timestamp,emg1,emg2,emg3,emg4,emg5,emg6,emg7,emg8
1533862417145845,7,3,12,4,-1,0,1,-1
1533862417145845,16,2,-1,-2,-8,2,0,-1
1533862417145845,-17,-5,-6,3,8,-6,-3,-2
1533862417145845,2,11,59,-1,9,2,0,0
1533862417146843,10,-16,-2,-8,-19,0,0,-1
1533862417146843,-12,-4,-4,2,3,-1,-2,-1
1533862417147846,-5,-3,11,2,2,-1,-1,0
1533862417147846,7,-4,-22,-1,-7,2,1,-2
1533862417158822,1,7,34,1,3,-2,-1,-2
1533862417158822,-9,2,17,2,5,-6,-1,1
1533862417166791,11,-1,27,10,2,3,1,-1
1533862417166791,4,0,-11,-18,-12,-2,-1,-2
1533862417174768,-13,-3,-36,12,8,-4,-4,0
1533862417174768,1,6,60,-4,0,-2,-1,-1
1533862417191722,8,1,-11,2,6,5,1,-2
1533862417191722,-8,-2,-5,18,1,-2,0,0
1533862417195715,-6,-1,-14,-28,-8,-2,0,-3
1533862417195715,4,-1,-24,-7,-6,1,0,-3
1533862417210672,0,0,-13,-17,-13,-4,-3,-1
1533862417210672,-7,-5,14,11,7,0,-1,-2
1533862417222839,0,-4,-19,-1,-1,-3,-3,-2
1533862417222839,3,8,-12,1,1,-1,-1,0
1533862417234609,-3,1,67,4,-1,-1,2,3
1533862417234609,1,0,-27,-7,-4,-4,-3,-3
1533862417274523,-17,-15,1,3,10,-2,-3,0
1533862417274523,5,2,-7,-6,-5,1,-2,-3
1533862417275511,11,-1,21,-5,-5,0,1,-1
1533862417275511,-15,-2,-12,6,7,-6,-4,-1
1533862417279544,2,-5,26,6,-2,1,2,0
1533862417279544,12,4,11,-1,0,3,1,0
1533862417279544,-13,-3,1,3,-9,-5,-2,1
1533862417279544,-5,-10,-59,-13,3,1,-2,-3
1533862417285640,11,4,5,10,-7,0,0,-2
1533862417285640,-8,-1,6,-5,5,-1,-1,-2
1533862417294452,-9,11,3,0,5,-3,-2,-4
1533862417294452,9,-3,0,8,5,3,1,-1
1533862417309408,3,4,-8,-5,-9,-1,-1,-1
1533862417309408,-11,-8,-10,6,3,-5,-3,-1
1533862417315392,-1,0,-19,-9,-3,0,-2,0
1533862417315392,6,4,21,-2,-6,0,-1,-2
1533862417323371,-7,-3,-51,-8,7,-2,-4,-2
1533862417323371,-5,9,26,-9,-5,-4,-2,-2
1533862417346313,4,-4,19,2,-2,3,2,1
1533862417346313,-3,-1,0,-2,0,-3,-2,-1
1533862417347307,-4,-5,-9,-7,-2,-1,-1,-1
1533862417347307,0,-2,-12,-1,-7,0,1,-2
1533862417369251,1,-6,-15,27,5,-4,-4,-3
1533862417369251,-2,2,52,-13,-8,-2,-1,1
1533862417370245,-1,-1,-10,9,17,-1,-1,-3
1533862417370245,1,6,-4,-8,-41,-6,-3,-1
1533862417384211,-4,-4,15,-15,13,-1,-1,0
1533862417384211,-3,-4,-12,4,1,-1,-1,-2
1533862417385208,2,1,17,28,6,2,0,0
1533862417385208,-2,-3,-1,-7,15,-2,-2,0
1533862417406150,-6,-9,-27,-26,-28,-7,-3,-4
1533862417406150,2,3,0,-6,-3,-1,1,0
1533862417407147,0,4,-5,-11,-1,-1,-1,-3
1533862417407147,-2,-5,-2,12,11,0,-1,0
1533862417421109,2,2,-22,-3,4,-1,-1,-4
1533862417421109,-1,-1,-20,3,2,2,0,0
1533862417422107,-4,-2,9,3,-1,-1,0,-1
1533862417422107,-1,0,45,-1,-8,-1,0,1
1533862417444051,1,0,3,13,9,3,-1,-3
1533862417444051,-5,1,-16,-11,-11,-3,-3,-2
1533862417445058,0,-1,25,-12,-11,-3,-1,0
1533862417445058,1,-4,-17,-5,5,-1,0,-1
1533862417466990,-3,1,3,6,-1,-2,-1,-2
1533862417466990,-1,0,12,7,1,-2,-2,-2
1533862417466990,2,4,-6,-7,0,-1,-2,-1
1533862417466990,1,-5,-7,4,1,-1,-1,0
1533862417480954,-2,0,9,8,7,-1,-1,0
1533862417480954,-2,-4,-5,-11,-5,-2,-2,-3
1533862417481946,1,-3,-11,-14,-9,-4,-2,-1
1533862417481946,-4,-3,-14,2,3,2,0,0
1533862417503924,1,-2,-13,1,-1,0,1,0
1533862417503924,0,-1,5,-1,-3,0,0,1
1533862417504904,-2,-1,2,0,-2,1,0,-2
1533862417504904,-2,-3,-3,8,8,-1,-2,-2
1533862417526827,-1,0,-1,-5,-4,1,0,1
1533862417526827,-2,-2,7,1,1,-1,-1,-2
1533862417526827,-3,0,1,0,-8,-1,-1,0
1533862417526827,0,-1,-13,-4,2,-1,0,-2
1533862417541790,-1,-4,1,-4,-10,-4,-3,-3
1533862417541790,1,-1,-1,6,-1,-2,0,-1
1533862417541790,-2,-3,-8,-4,4,-1,-1,0
1533862417541790,-2,-2,-4,-1,-2,-1,-1,-1
1533862417563728,-1,-2,0,-7,-6,-1,0,0
1533862417563728,-1,0,3,6,2,-2,-3,-2
1533862417564737,2,0,-1,2,-4,-1,-1,0
1533862417564737,-2,0,-2,2,3,2,0,0
1533862417586670,-3,-1,1,-6,0,0,-3,-1
1533862417586670,0,-1,-2,-9,-5,-1,-1,-2
1533862417587668,0,-2,-2,-4,-1,0,-1,-3
1533862417587668,-3,-2,-7,0,-7,-3,-2,0
1533862417601629,1,0,-2,6,4,1,0,-1
1533862417601629,-1,1,0,-1,4,0,0,1
1533862417602624,-1,0,0,-2,-3,-1,-1,0
1533862417602624,0,0,3,7,7,-2,-1,1
1533862417623827,1,0,-2,-2,-3,-1,-1,0
1533862417623827,-1,-3,4,4,-3,-4,-2,-1
1533862417624626,-3,0,-1,-10,-3,0,0,-2
1533862417624626,0,-3,-4,9,3,-4,-1,-2
1533862417646549,-1,-2,-3,-10,-10,-2,-1,0
1533862417646549,-2,-2,-2,4,7,-1,-1,0
1533862417647567,1,-2,1,13,2,-2,-2,1
1533862417647567,1,-2,-2,-15,-1,0,-1,-3
1533862417661512,-1,-1,-2,1,1,2,1,-1
1533862417661512,2,-4,1,1,-9,-2,-1,-2
1533862417662506,0,1,3,-1,1,1,1,0
1533862417662506,-1,-1,-9,5,3,0,-2,-1
1533862417683450,-2,0,10,15,7,1,0,-1
1533862417683450,-4,-2,-9,7,-9,-6,-4,-2
1533862417684464,0,-1,-1,-11,2,-1,0,0
1533862417684464,-2,0,-2,-4,-4,0,-2,-1
1533862417706388,0,0,-3,-9,-1,-1,-1,-1
1533862417706388,2,2,6,8,2,3,0,-2
1533862417707386,-2,-1,0,-3,2,-2,-2,-2
1533862417707386,0,1,4,17,0,1,2,-1
1533862417721351,4,0,3,16,8,-1,-1,-1
1533862417721351,-5,-6,-14,-42,-4,-4,-3,-3
1533862417729326,-4,-3,-8,-10,-8,-4,-2,-1
1533862417729326,0,-1,-1,-11,-1,1,-2,-3
1533862417744302,-3,0,5,7,-1,-1,-1,0
1533862417744302,-1,0,-8,10,5,1,0,-1
1533862417744302,1,2,5,11,3,2,1,-2
1533862417744302,-3,-1,-4,-12,-7,-2,-2,-2
1533862417766241,-3,0,-4,-16,-6,-3,-3,-2
1533862417766241,-1,0,1,-1,2,3,1,1
1533862417774210,0,0,-2,3,-5,-1,-2,0
1533862417774210,-2,-3,0,5,0,-3,1,-1
1533862417789167,-1,-2,-2,-9,-4,-3,-2,-2
1533862417789167,2,1,-1,1,1,-1,0,-1
1533862417790165,-1,-2,-1,0,-1,1,-1,-3
1533862417790165,-1,0,9,3,1,0,0,-2
1533862417804130,-7,-9,-22,-61,-41,-8,-4,-3
1533862417804130,1,2,3,18,9,4,0,0
1533862417805124,-4,-2,-2,-1,-4,-3,-3,0
1533862417805124,0,-1,1,-12,3,-1,-2,1
1533862417827065,1,0,1,19,8,3,3,-1
1533862417827065,-3,-3,10,13,2,0,-1,0
1533862417827065,-2,-3,-8,-31,-12,-4,0,-2
1533862417827065,0,0,3,6,3,-3,-1,-1
1533862417841028,0,1,-2,9,11,-3,2,-1
1533862417841028,-5,-5,-12,-10,-20,-4,-4,-2
1533862417849390,1,0,3,9,7,4,2,1
1533862417849390,-1,-3,-4,-9,-5,1,-4,-2
1533862417864187,0,2,1,16,11,4,0,1
1533862417864187,2,0,3,-7,5,-1,0,0
1533862417865185,0,2,-1,-3,-4,-3,-2,-2
1533862417865185,-1,0,-1,10,-18,-1,1,2
1533862417886301,-1,-1,13,6,6,-1,-3,-1
1533862417886301,-1,-3,-19,-27,-8,-3,-1,-3
1533862417887127,-2,0,7,-4,-7,-5,-3,-1
1533862417887127,-2,-1,-10,7,8,1,0,0
1533862417900377,2,-2,-3,19,7,2,0,0
1533862417900377,-3,0,0,-14,-13,-3,-4,-3
1533862417909349,-3,-2,-3,9,5,0,-1,-2
1533862417909349,-2,-2,0,-7,-7,-4,-2,0
1533862417924344,5,6,21,74,39,8,3,-2
1533862417924344,8,14,31,53,23,9,12,8
1533862417925294,-13,-21,-47,-89,-33,-16,-13,-7
1533862417925294,-1,-1,2,24,5,4,2,0
1533862417946238,-3,-5,-14,-22,-14,-2,-3,-2
1533862417946238,1,4,15,27,23,7,2,-4
1533862417947236,4,4,15,26,10,0,3,-1
1533862417947236,-4,-2,-8,-25,-3,-2,-5,2
1533862417961198,1,0,1,-2,-1,3,-2,1
1533862417961198,-2,-2,-3,-22,-9,-7,-3,-1
1533862417968179,0,0,-1,10,-4,-2,-1,-3
1533862417968179,-6,-3,-9,-13,-6,-6,-5,-5
1533862417992121,-3,0,-1,-5,-2,-3,-1,-2
1533862417992121,-1,-6,-5,-4,-8,-6,-6,-2
1533862417993113,0,0,0,2,2,6,2,0
1533862417993113,3,0,8,9,5,7,4,2
1533862418006283,-3,-3,-6,-17,-8,-4,-3,-1
1533862418006283,-3,-7,-11,-12,-19,-8,-3,-2
1533862418007076,0,2,6,21,15,5,3,1
1533862418007076,1,1,1,-1,5,-4,1,-2
1533862418021038,-3,-6,-10,-16,-22,-4,-1,0
1533862418021038,-5,-4,-7,-10,-2,-2,-5,-3
1533862418028022,-2,2,4,19,2,-3,-4,-2
1533862418028022,0,-2,-2,-6,-1,-1,0,-2
1533862418043979,-2,-1,-1,-12,-2,-3,0,0
1533862418043979,-2,0,2,5,5,1,-3,-1
1533862418044990,4,1,2,7,12,6,3,0
1533862418044990,-1,0,-1,-8,-6,-3,-3,-4
1533862418066915,-3,-1,-3,-2,-14,-3,-3,-5
1533862418066915,-1,-2,-7,1,1,0,-2,-2
1533862418066915,1,-4,-2,1,0,-7,-1,-1
1533862418066915,0,-2,-2,-4,-8,1,2,1
1533862418088859,-3,-1,-2,8,5,1,-1,-2
1533862418088859,-2,0,-1,-5,-3,3,0,-1
1533862418089854,-3,-2,0,-5,0,-3,-3,-2
1533862418089854,-1,-3,-1,9,12,4,2,-1
1533862418103817,-1,0,4,0,-6,-1,-1,1
1533862418103817,-1,-3,-5,0,0,-3,1,-1
1533862418104815,-3,1,0,-1,-3,-2,-2,1
1533862418104815,2,1,3,0,1,-4,-1,-2
1533862418126759,1,-1,-2,-3,10,0,-3,-1
1533862418126759,-3,-3,-10,-2,-14,-5,-3,-2
1533862418126759,1,-1,-1,-1,-3,1,0,1
1533862418126759,-3,-2,-3,-4,-6,6,-1,-2
1533862418148697,-1,-1,-6,-9,-4,-5,-1,1
1533862418148697,-1,2,6,-1,-3,0,1,-1
1533862418149706,-2,-2,-3,8,2,0,-3,-2
1533862418149706,0,-2,-2,-4,-4,-6,-3,0
1533862418163656,-3,0,1,-5,2,-3,0,-1
1533862418163656,1,-1,2,-3,3,2,-2,0
1533862418164655,2,1,3,4,-10,0,4,3
1533862418164655,-3,-2,-1,-1,8,-2,-2,-2
1533862418186598,-3,-3,-4,-1,-5,-5,-2,-3
1533862418186598,2,2,3,-5,-2,0,0,2
1533862418187592,-2,-1,-2,-2,11,1,2,-1
1533862418187592,0,-2,3,6,0,-1,-1,-1
1533862418217515,0,1,2,-1,-8,0,1,1
1533862418217515,-2,-2,-6,-5,-7,-3,-1,-3
1533862418217515,-2,0,-4,0,-8,-2,-5,-4
1533862418217515,1,0,-1,-2,-3,-3,-2,-1
1533862418224497,1,-1,0,-3,8,3,0,-1
1533862418224497,-3,-1,0,5,5,-2,-1,0
1533862418224497,1,1,1,-2,-1,0,-1,0
1533862418224497,-1,-1,-2,-5,0,-2,-2,-2
1533862418245602,-3,-3,-4,2,1,-4,-4,-2
1533862418245602,0,-1,-1,0,-2,-2,-1,-1
1533862418254417,1,-1,-4,-3,-5,0,-1,0
1533862418254417,-3,-2,-4,0,-4,-5,-3,-3
1533862418269378,0,0,0,-2,-2,1,0,0
1533862418269378,1,1,2,-1,0,2,1,-2
1533862418269378,-3,-2,-6,-11,-1,-3,0,-3
1533862418269378,-5,-3,-6,-3,-7,-5,-4,-3
1533862418292330,2,1,0,-1,2,1,-4,2
1533862418292330,-1,-1,0,2,4,4,3,1
1533862418293309,-2,-1,0,-1,-1,-3,-5,-3
1533862418293309,0,-1,-1,-1,-7,0,0,-1
1533862418314258,2,-1,-2,-3,-2,-4,-6,-4
1533862418314258,-4,0,0,-3,-2,-5,-3,0
1533862418315306,-2,-2,2,0,-9,3,1,-3
1533862418315306,2,-3,-2,-2,-4,-5,-2,-2
1533862418329217,3,1,2,-1,6,1,-5,0
1533862418329217,-1,-3,0,-3,8,9,5,1
1533862418330211,2,-1,0,0,-11,-3,2,0
1533862418330211,-1,0,-3,2,-4,-8,-7,-4
1533862418352336,-1,1,2,-7,5,-1,0,-1
1533862418352336,1,-3,-7,6,1,6,0,-1
1533862418353150,0,0,-1,-1,-2,1,1,0
1533862418353150,-3,1,-1,1,-2,0,0,0
1533862418366115,-3,0,-2,1,8,-4,-4,-4
1533862418366115,2,0,0,-1,-18,-12,-5,-4
1533862418374093,-1,-2,-2,-4,7,3,0,-2
1533862418374093,-5,-3,-3,3,-8,-3,1,-2
1533862418397033,2,-1,-2,-8,-2,5,2,-1
1533862418397033,-2,-2,-4,0,0,-5,-9,-5
1533862418398030,-6,-1,2,4,-7,-15,-5,-1
1533862418398030,3,2,1,-3,14,13,5,10
1533862418411992,-1,-3,-3,-2,-2,11,10,1
1533862418411992,-2,0,5,-2,5,2,5,3
1533862418412989,-4,-4,-8,2,-6,-4,-5,1
1533862418412989,0,-1,0,-3,-2,-5,-5,-6
1533862418425960,-2,-3,-4,0,-8,-4,-1,-2
1533862418425960,0,0,-1,-6,6,-1,-3,-3
1533862418433937,3,1,2,4,5,-1,-1,-4
1533862418433937,0,-2,0,-1,-11,-1,1,0
1533862418448894,-6,-4,-3,1,-9,-7,-2,-4
1533862418448894,1,1,0,-1,0,-4,1,-1
1533862418449891,0,1,2,-7,2,0,1,1
1533862418449891,-2,-2,-4,-2,3,2,0,1
1533862418479827,-1,1,1,-2,-4,-3,-5,0
1533862418479827,0,-1,0,1,13,5,0,-4
1533862418480818,-4,-3,-4,7,0,0,-1,0
1533862418480818,-3,-1,0,3,0,-2,-1,0
1533862418485813,0,-1,-2,0,-8,-6,-1,-4
1533862418485813,-2,-2,-6,-3,-3,-4,-2,-3
1533862418494771,-1,0,0,-1,7,6,2,-2
1533862418494771,1,2,1,-1,5,2,2,0
1533862418516715,1,1,1,2,-3,4,2,3
1533862418516715,-7,-5,-7,3,-2,-2,-1,0
1533862418524693,-1,-2,0,-7,-13,-4,-1,-1
1533862418524693,0,-3,-3,-1,3,-2,-4,-3
1533862418532693,-1,-1,1,-2,1,1,-3,-3
1533862418532693,-1,0,1,-4,4,-3,-2,1
1533862418533670,0,0,-3,2,-2,-7,-2,-2
1533862418533670,0,1,1,-4,-4,1,0,0
1533862418545638,-3,-4,-5,0,7,-1,0,0
1533862418545638,1,0,2,-3,-15,-3,0,0
1533862418554610,0,-2,3,0,5,4,-2,-2
1533862418554610,-4,-1,-1,-1,-2,-4,0,-1
1533862418568577,-2,-3,-4,0,1,-3,-1,-3
1533862418568577,0,0,-5,1,2,-3,-3,0
1533862418577549,-1,1,4,1,5,-1,-1,1
1533862418577549,-2,-3,-7,-5,-6,0,-1,-2
1533862418592513,0,1,1,1,-2,-2,-1,-3
1533862418592513,-1,-2,-3,-3,-3,-2,1,-1
1533862418593507,-1,-1,-2,-5,-2,0,-3,-3
1533862418593507,2,0,2,3,3,-1,0,-1
1533862418614451,-1,-3,-5,1,0,0,-3,-3
1533862418614451,-2,-1,-3,-2,-4,-3,-2,-3
1533862418616445,-3,0,1,-1,-9,-5,-1,-5
1533862418616445,2,1,-1,-2,7,10,3,5
1533862418628416,-3,-3,-2,0,2,-3,-3,0
1533862418628416,-5,-1,-1,-2,-8,0,3,0
1533862418637390,-1,-5,0,-1,3,-1,-3,-1
1533862418637390,-1,0,-1,-1,-3,-2,0,-1
1533862418652349,-4,-1,-2,0,-1,-3,1,-1
1533862418652349,0,-4,-3,-1,-2,-3,-3,-4
1533862418653347,-1,-1,-4,-2,-1,-2,0,-1
1533862418653347,-2,0,-1,7,2,2,-5,-4
1533862418682270,-1,0,1,-11,-7,-1,4,-1
1533862418682270,0,-1,-2,-1,0,2,-1,2
1533862418684264,1,1,1,-2,-3,9,8,3
1533862418684264,-5,-3,-1,-5,-12,-13,-4,-6
1533862418688254,0,-1,-1,2,4,2,3,2
1533862418688254,-3,0,1,2,-7,-4,-4,1
1533862418697232,-2,0,0,0,5,-2,-2,-1
1533862418697232,-1,0,-2,-3,2,-1,-1,-2
1533862418712193,4,2,3,1,-1,-5,-4,-2
1533862418712193,4,-2,0,-5,-9,-4,-2,-1
1533862418718176,7,0,-7,2,18,-2,-4,1
1533862418718176,4,4,-3,-2,-17,-1,1,-1
1533862418735128,1,6,0,-1,2,-1,3,-1
1533862418735128,-1,8,2,-3,-1,-5,-6,0
1533862418736126,-4,4,0,4,11,-2,-5,-3
1533862418736126,-4,3,1,-4,-18,0,-1,-2
1533862418757072,-5,2,-1,3,0,3,-2,-3
1533862418757072,-3,0,-1,-4,-5,-2,-2,-4
1533862418765048,-2,5,0,-2,-7,4,10,2
1533862418765048,-4,2,-2,-2,11,-4,-3,-2
1533862418772031,-5,-1,-4,-6,-4,1,3,1
1533862418772031,-1,3,1,-2,-1,-2,-2,-3
1533862418774040,-6,-6,-4,0,13,-1,-3,0
1533862418774040,-4,-8,1,-8,-17,2,0,-1
1533862418801952,-3,-9,-1,4,20,-1,-6,-2
1533862418801952,-4,-9,-1,-9,-32,-6,1,2
1533862418803947,-5,-11,-2,-2,-9,-2,-2,-4
1533862418803947,-4,-9,0,4,5,3,6,1
1533862418807936,-2,-5,-2,-3,3,-9,-9,-4
1533862418807936,-2,-5,2,1,13,4,2,0
1533862418817115,-1,-4,1,2,-6,-1,-4,0
1533862418817115,-2,-4,-4,-1,4,-2,0,-3
1533862418831896,-1,-5,-3,-1,-12,-5,-5,-4
1533862418831896,-3,-4,-8,4,17,5,7,1
1533862418833865,0,-2,-1,-10,-15,0,1,-1
1533862418833865,1,-4,9,1,11,-6,-13,1
1533862418854933,0,-3,6,-7,-9,-1,-2,-1
1533862418854933,2,-3,1,1,-2,0,-1,2
1533862418855823,0,-2,-4,-1,0,3,7,1
1533862418855823,1,-2,-6,1,6,1,2,-1
1533862418868774,-2,-6,-4,-4,-9,-4,3,-1
1533862418868774,4,-1,-1,5,17,5,-8,-5
1533862418877747,1,-2,-5,-3,-30,-10,-6,0
1533862418877747,2,-1,-4,0,9,1,-1,1
1533862418899691,-1,-2,-8,1,-19,-3,1,-2
1533862418899691,0,-1,5,1,9,-2,-1,-2
1533862418901683,0,-1,7,-1,7,-2,-4,0
1533862418901683,1,-1,-2,0,-5,-2,-2,-1
1533862418914666,1,1,0,0,3,2,0,1
1533862418914666,-1,-1,-2,1,-7,-5,-3,-2
1533862418916643,-1,-1,1,-1,-1,-2,-5,-2
1533862418916643,-2,3,0,-4,-2,0,1,0
1533862418928610,2,-3,-9,-1,6,1,-2,2
1533862418928610,-1,-1,-7,-1,6,4,4,0
1533862418937587,-3,2,-1,1,-19,-4,-1,-3
1533862418937587,-3,-1,-2,2,8,0,-1,-5
1533862418952547,2,4,2,-1,1,2,2,2
1533862418952547,-2,1,-1,-5,-10,-1,-2,-2
1533862418953544,1,2,4,-1,9,-1,-1,-1
1533862418953544,-1,2,-2,4,2,-4,-2,-2
1533862418974658,0,3,-1,-4,-6,-2,-2,-1
1533862418974658,0,1,0,1,2,-3,-1,-1
1533862418976495,-2,1,-3,-6,-7,-2,0,-2
1533862418976495,-2,0,-3,2,-3,0,-1,0
1533862419004408,-3,0,0,4,5,-2,-5,-3
1533862419004408,0,2,-1,-3,-4,-2,0,-1
1533862419006411,-2,0,-3,0,5,-2,-2,0
1533862419006411,0,0,1,-6,0,-2,-2,0
1533862419012389,-1,-3,3,3,4,0,1,-1
1533862419012389,-2,0,-2,0,-1,-2,-1,-1
1533862419013384,-2,-1,-5,-8,-1,-2,-5,-3
1533862419013384,-1,0,-1,-1,-12,-3,-4,-2
1533862419035328,-1,0,0,1,-2,4,8,4
1533862419035328,-2,-2,-2,-1,0,-1,-5,-4
1533862419036327,0,-1,0,2,12,3,0,3
1533862419036327,1,-2,-1,-5,-8,-2,-1,0
1533862419049288,-2,0,-1,-3,-5,-3,-5,-4
1533862419049288,-1,-1,2,-1,0,-2,-1,-1
1533862419056458,0,-1,0,1,-3,0,0,-2
1533862419056458,-1,-2,1,-5,1,-6,-2,-1
1533862419072230,-1,-1,-1,-3,-2,-3,-2,-4
1533862419072230,-2,-2,-1,2,7,1,-2,2
1533862419074225,0,-1,1,-8,-11,-3,-1,0
1533862419074225,-2,-2,-2,9,-12,-3,-2,-2
1533862419095168,-3,-2,-2,2,8,3,-1,-1
1533862419095168,-1,0,-3,-3,-2,-3,-3,-1
1533862419096162,-3,-2,-3,6,-2,3,-1,-1
1533862419096162,1,1,-1,-4,7,1,0,0
1533862419108131,-1,-1,0,-7,4,2,1,-1
1533862419108131,-2,-4,-1,0,-5,-4,1,0
1533862419117107,0,-2,-4,0,4,4,0,-1
1533862419117107,-1,-1,-1,1,-6,0,2,-2
1533862419132066,-2,0,-1,1,-2,-1,-3,-4
1533862419132066,0,0,0,-9,-2,-1,2,0
1533862419134061,0,-2,-2,2,-2,-2,-4,-3
1533862419134061,-1,-4,-3,-1,-4,-4,-3,-3
1533862419155008,0,1,0,0,1,-3,-5,1
1533862419155008,-1,-1,-1,-3,-7,0,-3,-2
1533862419156002,-2,-1,-1,-1,0,-3,0,-1
1533862419156002,0,-1,-2,-2,4,3,1,0
1533862419176946,-1,-1,0,-1,-1,-3,-2,1
1533862419176946,-1,-1,1,0,-10,-4,0,-1
1533862419178941,-3,-3,-2,8,5,1,-2,-1
1533862419178941,-2,0,-2,-7,2,-1,-2,-1
1533862419191910,0,1,0,-2,-3,0,1,-2
1533862419191910,-2,-1,-4,-2,0,-5,0,-2
1533862419193901,0,1,2,-3,3,0,2,2
1533862419193901,0,-1,0,-1,7,1,-1,-2
1533862419214848,0,-2,0,-4,-23,-3,-1,0
1533862419214848,-3,-1,-3,-3,-4,0,-2,-3
1533862419215842,-2,-1,0,-2,-2,-3,-3,-2
1533862419215842,-1,-2,-2,3,5,-3,-3,1
1533862419228919,0,0,-1,-2,1,1,-2,-1
1533862419228919,0,-1,-2,-1,1,0,-2,-1
1533862419236789,0,-1,-5,-4,-3,-3,-1,0
1533862419236789,-1,-1,-1,-3,-5,-3,-3,-3
1533862419251758,-2,-4,-3,1,6,-4,-2,2
1533862419251758,-1,1,1,2,-9,2,1,0
1533862419253741,0,1,3,-4,7,1,1,-1
1533862419253741,-2,0,-1,2,-13,-3,-2,0
1533862419282675,-4,-1,-4,4,9,-1,2,-5
1533862419282675,0,-2,-3,-5,-8,-2,-1,0
1533862419283672,0,0,0,-6,-2,-3,-1,0
1533862419283672,-2,-1,-2,-7,-1,8,1,-1
1533862419288651,0,-3,-1,9,-5,-2,-4,-1
1533862419288651,0,2,3,2,12,9,2,0
1533862419297634,-3,-1,-8,2,-13,-5,-3,-3
1533862419297634,-2,-1,0,-1,5,-6,-3,-1
1533862419312583,0,-1,0,-6,-1,1,0,1
1533862419312583,-1,-2,0,2,5,0,-3,-1
1533862419313580,-1,-2,-3,0,-1,-2,0,-1
1533862419313580,-1,-1,-5,-2,0,1,0,0
1533862419334528,1,-1,1,-3,0,0,0,-1
1533862419334528,-2,0,0,-2,0,-2,2,0
1533862419336520,-1,0,6,-2,-1,0,0,0
1533862419336520,-2,-4,-2,3,-2,-4,-1,-1
1533862419357466,-1,-1,0,-1,-1,1,0,-2
1533862419357466,0,-1,1,-5,3,-2,0,-3
1533862419358460,-1,-4,-4,3,-5,-1,-2,-4
1533862419358460,1,-2,1,0,0,-3,-2,-1
1533862419372423,0,-1,-1,-2,-5,4,0,-1
1533862419372423,-1,0,-4,-3,5,-1,-2,-1
1533862419373421,-2,0,-3,1,-2,-4,0,1
1533862419373421,-3,-2,-4,0,1,-3,-1,-1
1533862419402347,-5,-2,-4,1,-4,-1,-1,-2
1533862419402347,-2,-2,-1,2,-4,-2,-2,-2
1533862419403345,0,1,-3,1,8,-1,-3,-3
1533862419403345,-1,1,-4,-2,-1,-3,-4,-2
1533862419408331,1,-1,-2,-1,-4,2,1,0
1533862419408331,0,-2,-1,0,-7,2,1,0
1533862419417304,-4,-5,-6,0,-2,-8,-4,-3
1533862419417304,-4,3,-53,-12,1,-2,-1,-2
1533862419431268,2,-10,55,7,-1,-3,0,-1
1533862419431268,-3,-4,0,-4,-6,0,-3,-1
1533862419438251,1,2,6,-2,5,2,0,-1
1533862419438251,-1,-1,0,2,-3,1,1,-1
1533862419454208,-2,3,-22,-6,-2,-3,-4,-3
1533862419454208,-1,-1,-5,3,3,-2,-1,-1
1533862419456199,1,-2,6,2,-2,3,0,0
1533862419456199,-1,-2,9,-1,-2,-1,-1,-3
1533862419468170,-2,2,-10,-6,-2,-4,-3,-3
1533862419468170,-2,-2,-1,3,-2,-4,-2,0
1533862419485123,0,2,23,0,5,-1,-2,-1
1533862419485123,0,-2,15,-1,-8,1,-1,1
1533862419491323,0,-3,-7,-2,-2,-1,1,-1
1533862419491323,-1,1,1,0,5,-2,-2,-4
1533862419506069,-1,-2,-11,-6,-22,-5,-1,-3
1533862419506069,2,0,8,0,8,2,0,2
1533862419515042,-1,-1,3,2,1,-2,-2,1
1533862419515042,-2,-2,-12,0,-2,3,0,-1
1533862419516039,-2,-2,-5,-2,2,1,0,-1
1533862419516039,-2,-3,7,1,1,0,3,0
1533862419536983,1,-2,-18,-10,-8,-6,-1,-1
1533862419536983,-2,-1,-2,-5,-11,-2,0,-3
1533862419538994,-2,4,-3,-3,2,0,-1,-3
1533862419538994,-1,-4,-9,1,-3,-3,-2,-2
1533862419559934,1,6,57,3,4,1,0,0
1533862419559934,0,0,2,1,-2,-5,-3,-1
1533862419560936,3,-2,55,8,1,2,0,3
1533862419560936,-1,2,50,1,-3,-2,-1,-2
1533862419574885,-3,-1,-2,1,1,-3,-1,-1
1533862419574885,1,2,-9,-2,0,-4,-2,-1
1533862419575879,-1,3,-10,-3,-2,-2,-2,-1
1533862419575879,-2,-12,-32,-7,1,-2,-1,-2
1533862419596823,-3,-5,-34,0,-5,0,0,-1
1533862419596823,-2,1,-12,1,-2,-1,-1,-1
1533862419598817,-2,-7,-43,-7,-1,-2,-1,-1
1533862419598817,-3,-2,-8,0,1,-3,-3,0
1533862419611786,-2,3,-9,-4,-4,-1,-2,-3
1533862419611786,-2,-5,1,-2,-3,-2,-4,-1
1533862419618764,-1,1,3,0,3,2,-1,-1
1533862419618764,-1,0,-22,-2,-2,0,-2,1
1533862419634728,0,-2,10,2,-4,-3,0,0
1533862419634728,1,-2,2,-1,2,-3,-2,-2
1533862419636717,-2,-5,-13,-1,-1,1,0,-1
1533862419636717,2,-2,-6,1,1,0,-2,-1
1533862419656663,0,-5,-8,-2,3,-2,-1,-1
1533862419656663,-1,-4,51,1,3,-2,-1,-2
1533862419658657,-4,-3,14,1,-2,-1,-1,-1
1533862419658657,-2,0,32,3,-3,0,1,-1
1533862419670661,-2,4,7,-11,-1,1,1,0
1533862419670661,-3,0,-12,2,-1,-2,-1,-1
1533862419679603,1,4,-18,-3,0,1,-2,1
1533862419679603,-3,3,-30,-4,-2,-2,-2,0
1533862419694589,-5,-6,-89,-5,-3,-1,-4,-1
1533862419694589,0,-4,-52,-4,-2,-4,-2,-2
1533862419696560,2,5,53,1,-3,2,4,2
1533862419696560,-1,5,5,2,0,1,-2,-1
1533862419717627,-2,-10,-47,0,-3,-6,-4,-2
1533862419717627,-1,-1,2,-4,-3,-1,-2,-1
1533862419718499,-2,-4,-26,-8,2,-3,0,-2
1533862419718499,1,-3,45,16,2,-2,0,-1
1533862419730466,-2,2,13,-5,-9,-1,0,0
1533862419730466,-1,4,3,1,6,0,0,1
1533862419739445,-1,-2,14,-10,-3,-1,0,-2
1533862419739445,0,2,-23,-9,0,1,0,-3
1533862419754405,0,3,12,-1,-1,0,-4,-1
1533862419754405,-2,-4,13,13,-1,0,2,1
1533862419756397,1,4,-3,5,-4,0,-1,0
1533862419756397,-6,-12,-48,-28,-5,-4,-4,-3
1533862419777343,-3,-3,14,10,2,-2,-3,0
1533862419777343,-2,-2,1,-17,-7,-6,-4,-6
1533862419778338,-4,-3,-11,9,3,2,6,3
1533862419778338,2,1,-27,0,-1,3,-6,2
1533862419790306,3,3,48,8,4,2,4,1
1533862419790306,2,5,59,2,-5,-1,-2,1
1533862419800294,-1,-3,22,4,-5,-6,-2,-3
1533862419800294,-1,1,8,0,8,-1,-1,-2
1533862419814241,0,5,24,-1,-3,-2,-2,-2
1533862419814241,-3,-14,-110,-10,-11,1,0,-1
1533862419822220,-2,-4,27,-7,0,0,-3,-3
1533862419822220,-1,2,18,6,3,1,1,1
1533862419837180,2,5,63,-4,2,-7,-4,-2
1533862419837180,-4,3,4,8,0,2,0,0
1533862419839175,-2,-6,-29,-1,0,-1,-3,-1
1533862419839175,-1,0,2,1,-10,0,1,-1
1533862419851144,-3,-4,-33,5,-1,-3,-1,-4
1533862419851144,0,1,5,-3,5,2,2,1
1533862419867145,1,0,-11,0,3,-2,-3,-1
1533862419867145,-2,-1,-8,-6,1,-4,-2,-3
1533862419875083,-1,-4,-11,1,0,2,1,-1
1533862419875083,2,-2,28,-2,-2,0,0,2
1533862419876090,0,-1,-18,-1,2,1,-3,-3
1533862419876090,-1,1,3,-2,2,-1,2,-1
1533862419897021,-4,-5,-13,-7,-5,-2,0,0
1533862419897021,0,0,-1,0,2,-1,1,-1
1533862419899016,-1,-1,-16,-2,1,-3,-1,-2
1533862419899016,-2,-3,9,-2,-6,-3,0,-2
1533862419911185,3,-1,2,0,2,2,-1,-1
1533862419911185,-1,0,1,2,7,-2,-1,0
1533862419919960,-1,0,-2,7,-2,-1,-1,0
1533862419919960,1,0,16,1,-7,-3,-1,0
1533862419934920,-1,-2,-11,6,-8,0,-3,-1
1533862419934920,-2,0,-2,-8,1,-3,0,-1
1533862419935919,-1,-3,-6,-9,-8,-2,-3,0
1533862419935919,0,0,10,8,3,0,-2,-1
1533862419957858,-3,8,-16,-14,5,-2,0,-1
1533862419957858,-1,-12,47,10,-2,-2,-4,-2
1533862419958855,-2,0,-3,-2,1,1,2,0
1533862419958855,-1,-1,-20,1,3,1,0,0
1533862419970852,0,-1,32,-8,0,-1,0,1
1533862419970852,-3,-2,-19,-4,-9,0,1,-1
1533862419979798,-2,-3,-13,0,-1,1,-6,-3
1533862419979798,-3,-8,-68,-13,-2,-3,-1,-4
1533862419994759,-1,-4,4,-1,-8,-1,-1,-3
1533862419994759,1,4,-2,0,8,6,6,4
1533862419996754,1,1,13,-8,-4,3,-1,1
1533862419996754,-4,-4,-57,7,0,-3,-4,-2
1533862420017701,0,-8,-70,0,2,-4,-3,-3
1533862420017701,-1,3,36,4,-4,-3,-3,-3
1533862420018695,-5,-2,-24,-5,-1,-3,1,-2
1533862420018695,-2,-2,22,-9,-2,-3,-3,0
1533862420030663,-1,-2,-11,0,1,-1,-1,-2
1533862420030663,-1,-4,-42,-5,-3,-2,-4,-2
1533862420039649,-5,-4,4,-5,-3,-3,-3,-4
1533862420039649,-1,-7,21,0,-4,-3,1,1
1533862420054781,-3,4,18,2,-1,-2,0,-1
1533862420054781,-1,-5,-11,-2,0,2,-3,1
1533862420056594,-1,1,-12,-6,0,-3,-2,-3
1533862420056594,-1,0,27,1,-4,0,-2,-1
1533862420077541,-3,-7,-50,-7,0,1,-2,-1
1533862420077541,-2,3,-16,-11,-1,-3,-1,-4
1533862420078535,4,6,0,9,0,-2,-3,2
1533862420078535,-3,1,35,11,0,-1,1,-1
1533862420090506,-1,-4,-5,-28,-4,-3,-3,-3
1533862420090506,0,-1,-15,5,-5,-7,-7,-5
1533862420099482,3,3,14,-4,3,8,5,7
1533862420099482,0,3,-6,11,0,2,1,3
1533862420114448,-1,1,16,-3,1,1,-1,1
1533862420114448,-2,-2,2,-6,-3,-4,-1,-3
1533862420116434,-2,-3,12,8,0,-6,-1,-4
1533862420116434,2,4,17,3,6,-2,-3,-4
1533862420144362,-1,-1,3,10,-8,-1,2,2
1533862420144362,-2,-1,16,-10,-9,-6,-1,-1
1533862420146354,-5,-4,-2,5,-4,-3,-1,-1
1533862420146354,2,0,6,-9,-3,3,0,0
1533862420151344,-3,-6,-26,5,6,1,-2,-3
1533862420151344,1,2,1,2,6,3,-1,1
1533862420160328,-1,-2,-14,-10,-5,-3,1,-1
1533862420160328,-2,-2,13,3,-4,-3,-1,-1
1533862420175311,0,6,22,22,6,-3,0,0
1533862420175311,-2,-2,-42,-41,-1,1,-1,-1
1533862420176297,-4,-17,-37,-3,-6,-6,-4,-5
1533862420176297,0,2,44,-2,-2,-2,0,-3
1533862420197217,2,2,22,0,-1,0,3,1
1533862420197217,-2,-3,0,13,0,1,-2,-1
1533862420199233,-1,6,3,-2,-2,-1,0,1
1533862420199233,-1,-9,-19,-6,-1,-2,-2,2
1533862420211305,-2,-2,8,16,-5,-1,0,-2
1533862420211305,-1,-4,-1,-37,-5,-3,-1,-2
1533862420220157,-1,2,10,27,2,0,-3,-2
1533862420220157,-1,1,-7,0,0,0,1,-2
1533862420235120,0,4,21,-8,-5,-3,-3,-2
1533862420235120,-3,-6,-6,23,1,-1,0,-1
1533862420236114,-1,-3,3,-7,-1,-1,1,-1
1533862420236114,1,4,-3,-6,-1,0,2,-1
1533862420257061,-3,-7,1,-2,-8,-5,-7,-3
1533862420257061,-1,2,6,6,-2,2,3,3
1533862420259052,2,2,-4,-7,10,8,1,2
1533862420259052,-2,-1,22,24,20,1,-3,-2
1533862420271020,-2,0,-9,-19,-37,-7,0,0
1533862420271020,-1,1,2,-7,-8,-2,-1,-1
1533862420280029,-2,-3,2,-3,-4,-4,-3,-3
1533862420280029,-1,0,-9,-6,3,1,-2,-4
1533862420293962,1,0,0,3,19,4,1,-2
1533862420293962,0,0,4,5,0,0,-1,-1
1533862420300940,-1,1,3,4,0,-4,-2,1
1533862420300940,0,3,6,-11,-1,0,-2,1
1533862420316900,-3,-4,-24,-6,3,-2,-2,-1
1533862420316900,-1,0,9,16,-1,-3,0,-2
1533862420318891,0,-2,3,2,2,0,0,-4
1533862420318891,-2,-3,-4,-10,-10,-5,-4,-3
1533862420330860,-1,-1,-1,-6,5,2,1,0
1533862420330860,2,6,14,6,6,3,-1,1
1533862420339836,-4,-4,-10,10,-6,-5,-4,-4
1533862420339836,-2,-2,-13,-22,-10,-3,-2,-2
1533862420354796,0,-3,0,6,4,-2,-2,-3
1533862420354796,-1,0,4,-3,3,-1,1,-3
1533862420355793,2,1,-1,-12,-6,-1,0,0
1533862420355793,-3,-4,-2,8,-5,0,2,0
1533862420377738,-1,0,9,-3,5,0,-2,0
1533862420377738,1,-1,2,6,1,-1,0,-3
1533862420378732,-2,-5,-13,-13,1,0,-1,-1
1533862420378732,-1,1,4,12,3,-2,2,-1
1533862420399678,0,-2,1,1,-5,-5,-3,-3
1533862420399678,-1,-2,-6,-1,-11,2,1,3
1533862420401671,0,2,9,0,-1,2,0,2
1533862420401671,-1,0,-15,-5,3,2,-2,-2
1533862420422618,-1,1,9,3,15,-1,-3,-2
1533862420422618,-4,-7,3,-1,-19,-7,-4,-3
1533862420423612,-1,-3,-5,-4,14,5,2,3
1533862420423612,-3,-2,2,-6,-8,-4,-4,-2
1533862420437578,0,0,-3,-2,-15,-2,0,-1
1533862420437578,-1,-3,-4,-2,6,0,-2,-1
1533862420438572,-2,0,4,1,-3,-1,4,-1
1533862420438572,1,1,-1,4,4,-1,-2,1
1533862420459519,-2,-3,5,-3,4,1,-3,1
1533862420459519,-2,-1,-12,0,-2,-4,-1,-2
1533862420461510,-1,-1,3,1,-4,-4,-3,-3
1533862420461510,-2,-3,-7,1,-3,-2,1,-1
1533862420474491,-2,0,0,-9,4,-2,-2,-3
1533862420474491,0,1,7,3,-8,-2,0,2
1533862420480470,0,-1,-2,-2,1,0,-5,-3
1533862420480470,-1,-5,-7,-3,-8,3,2,-1
1533862420497415,0,-3,-7,1,1,4,0,3
1533862420497415,-1,3,1,-2,4,-2,-2,-4
1533862420498411,-3,0,-2,-4,-2,-2,-4,0
1533862420498411,2,5,3,-4,4,-2,2,2
1533862420519359,0,-2,-3,-2,-6,0,2,-2
1533862420519359,-2,-6,5,0,-13,-3,-7,-3
1533862420521351,-2,-9,-16,-14,-4,-1,-3,-2
1533862420521351,-1,-3,-4,2,1,1,0,0
1533862420533319,-1,1,1,3,10,2,2,-1
1533862420533319,-2,5,-1,1,3,1,-1,-1
1533862420542295,1,2,9,2,-10,-5,-2,-2
1533862420542295,-2,-4,-4,-4,-12,-6,-4,-4
1533862420557422,-1,0,-2,1,1,0,0,2
1533862420557422,2,-2,-2,3,4,3,-2,3
1533862420559264,-1,1,2,0,1,-2,3,-1
1533862420559264,-3,-2,-1,-4,-2,1,4,1
1533862420579199,-1,1,4,1,-1,-1,-2,-2
1533862420579199,-2,-3,-12,-7,6,-4,-4,-4
1533862420581191,0,2,1,-3,4,-3,-2,2
1533862420581191,-3,-6,-1,7,-15,-10,-11,-3
1533862420593162,0,-3,-5,-3,-1,-2,-2,-2
1533862420593162,0,0,-1,3,4,6,7,2
1533862420602141,1,2,7,-3,0,-5,-6,-5
1533862420602141,0,-3,-8,-3,-23,-4,-1,-3
1533862420617097,1,0,-1,2,16,6,0,3
1533862420617097,-5,-2,-1,-2,-3,1,-1,-3
1533862420619090,0,1,5,-2,-3,-1,1,-2
1533862420619090,0,-2,-2,5,-5,-5,-5,-5
1533862420640041,-3,-1,-2,0,-8,-6,-2,-1
1533862420640041,2,1,3,5,22,7,2,6
1533862420641031,1,-4,3,0,-29,-4,4,1
1533862420641031,-2,1,3,-1,8,3,3,2
1533862420653180,-5,-5,-9,-8,-10,-6,-2,-6
1533862420653180,-2,-1,0,-2,-6,-6,-4,-5
1533862420661975,0,-4,-8,8,9,2,-1,1
1533862420661975,1,1,4,6,1,0,-3,1
1533862420676934,3,-1,8,3,5,6,3,0
1533862420676934,1,-4,-8,-18,-6,-14,-5,-2
1533862420678929,-5,-3,-5,-3,9,6,3,-2
1533862420678929,-1,-1,-4,-5,1,-3,0,-3
1533862420700070,0,-2,-5,4,1,-3,-4,-2
1533862420700070,1,-1,4,5,2,3,2,1
1533862420701869,-2,-2,0,-3,-4,-2,0,2
1533862420701869,1,1,-1,-2,12,6,2,2
1533862420712838,-3,-2,-7,-7,-11,-3,-3,1
1533862420712838,-4,2,2,2,-8,-7,-4,-3
1533862420722812,1,0,3,1,-2,-2,-2,0
1533862420722812,-1,-2,-6,2,3,1,0,-2
1533862420744753,-1,0,5,6,-4,-3,1,-2
1533862420744753,-1,-2,-4,-10,-2,-7,-9,-3
1533862420746748,1,0,2,7,22,6,2,-2
1533862420746748,-3,1,3,-12,-7,3,-2,1
1533862420767701,0,3,-1,-7,2,-2,1,0
1533862420767701,-1,1,6,3,-9,-4,-8,-7
1533862420768699,0,-2,-2,3,-7,-5,1,0
1533862420768699,-1,-3,-4,1,7,1,6,4
1533862420773679,1,0,6,-1,-1,6,3,1
1533862420773679,-1,-3,-5,-1,0,-2,-4,-6
1533862420782652,-1,-1,2,-2,-3,-5,-8,-3
1533862420782652,3,1,7,3,11,5,10,4
1533862420797621,-3,-2,-5,5,-7,-2,-8,-3
1533862420797621,-3,0,0,2,3,1,2,3
1533862420798609,-1,1,3,-13,-4,0,1,-3
1533862420798609,-3,-5,-8,-2,-3,1,-5,-2
1533862420819563,0,-1,-3,-2,-2,-3,1,1
1533862420819563,-2,-3,-7,4,-12,-3,1,-2
1533862420821586,1,0,-2,6,16,2,-1,-2
1533862420821586,1,1,9,6,4,-1,-3,-4
1533862420833519,-2,-1,1,6,-11,-7,-6,-3
1533862420833519,-1,-4,-3,-3,8,3,6,4
1533862420842492,-1,0,3,-1,-16,1,0,1
1533862420842492,-3,0,-1,-5,-6,-4,-4,-2
1533862420856715,-2,-2,-6,-9,-5,-7,-2,-2
1533862420856715,0,3,1,3,0,-3,-1,-5
1533862420858698,-3,-3,-8,2,-2,0,-1,-1
1533862420858698,0,0,-4,-11,4,-3,-7,-1
1533862420879641,0,2,6,-3,8,5,2,0
1533862420879641,1,-1,-6,-16,-18,2,7,2
1533862420881643,-1,-2,2,-10,1,-4,-1,-2
1533862420881643,-1,-2,-7,-1,-7,-4,-5,-4
1533862420893603,-1,-3,-5,-6,-11,-5,4,1
1533862420893603,-1,-1,-2,-4,4,2,-4,1
1533862420902579,-2,-1,5,-2,-2,1,-3,0
1533862420902579,-2,-1,-1,-6,-4,-5,0,-2
1533862420917561,-4,-2,0,-3,-3,1,1,-1
1533862420917561,-3,-1,-1,8,8,-1,-1,-3
1533862420918537,-2,-3,-5,0,-4,-4,-1,-2
1533862420918537,-1,0,5,-1,-5,-4,-2,0
1533862420939480,-1,-3,1,-10,1,-3,-6,-3
1533862420939480,-2,-3,-5,-4,-2,4,3,1
1533862420941489,-3,-1,-2,5,5,1,2,3
1533862420941489,-1,-3,-5,-2,0,-2,2,-1
1533862420953443,1,-1,-4,-2,-2,-5,0,-2
1533862420953443,0,-1,-4,3,-6,-2,-8,0
1533862420978426,1,-2,-9,-1,11,0,-6,-1
1533862420978426,-3,-2,-6,4,4,8,6,1
1533862420979375,-2,-2,7,-1,-1,-5,-4,-3
1533862420979375,0,-1,21,-1,-1,0,1,-4
1533862420981387,-4,-3,6,-4,-14,-9,0,-4
1533862420981387,0,-1,-2,-8,-3,-1,-2,4
1533862420999329,0,0,-3,-3,1,3,-2,-1
1533862420999329,-3,-5,-5,0,-4,-1,2,-1
1533862421001322,-1,-2,-13,0,2,-1,0,-1
1533862421001322,-1,-2,-5,-2,-1,-3,2,-4
1533862421022262,0,3,-18,-3,1,4,2,0
1533862421022262,-2,1,-20,-3,-5,-5,-15,1
1533862421024272,1,0,7,1,-5,2,-4,-3
1533862421024272,0,-2,22,4,-4,-2,1,0
1533862421036225,0,-2,-7,8,-13,0,-1,-1
1533862421036225,-1,-1,-2,-4,26,3,2,0
1533862421045198,1,-2,1,-5,-8,-2,0,-2
1533862421045198,1,-3,6,-4,-5,0,-2,-2
1533862421067140,-4,-3,7,-2,5,-1,-1,-1
1533862421067140,-1,-1,1,2,-4,0,4,0
1533862421069135,-1,-1,10,-4,-5,0,-2,-1
1533862421069135,-3,-1,8,-7,-2,-2,-3,-4
1533862421073125,2,4,16,5,4,-2,-1,1
1533862421073125,0,-2,19,-4,4,3,4,-1
1533862421082182,-1,0,-24,1,-2,0,3,1
1533862421082182,-1,2,-21,-1,-2,-4,-7,-1
1533862421096062,0,-1,10,1,-11,1,-4,0
1533862421096062,-2,1,27,1,9,-3,-2,-2
1533862421103043,-2,2,1,1,-12,-3,4,2
1533862421103043,-2,-1,15,4,18,4,0,-4
1533862421120001,0,-1,28,-4,-1,0,7,-1
1533862421120001,1,0,-18,-2,-1,1,-9,2
1533862421120995,1,0,-22,0,-7,-3,-1,-3
1533862421120995,-2,-1,-8,-1,-10,-5,-4,-2
1533862421132963,-1,-2,47,1,5,0,3,0
1533862421132963,-5,-5,67,5,-10,-5,0,-5
1533862421141942,0,2,118,5,10,4,2,3
1533862421141942,-1,-2,-20,-8,-3,0,-2,-1
1533862421156902,-5,-4,-62,-4,26,2,-1,-4
1533862421156902,-1,0,-31,-10,-29,-5,0,0
1533862421158894,-3,-4,-36,-2,-5,-5,-6,-1
1533862421158894,-2,-1,-62,1,-4,-1,-2,-1
1533862421179841,0,-3,-19,3,3,3,-1,1
1533862421179841,-3,-1,-27,0,4,-3,4,-5
1533862421180837,-2,-1,-57,-3,1,1,-8,3
1533862421180837,-1,-3,-25,-13,12,-2,-5,0
1533862421192838,-2,-4,10,4,-3,0,-5,-1
1533862421192838,-1,-2,-7,2,-4,0,-1,-2
1533862421202776,-3,-3,-36,-1,0,-4,-1,1
1533862421202776,0,1,22,6,-3,-1,2,-6
1533862421224733,0,-1,-3,1,-4,-4,-2,-4
1533862421224733,-1,-2,-36,-1,-6,-1,3,0
1533862421226713,-1,-2,-16,0,4,1,-3,0
1533862421226713,0,0,17,5,-3,-2,-4,0
1533862421255664,-3,-2,-14,-2,-4,-2,0,-2
1533862421255664,-1,-6,-24,-11,11,0,-2,-3
1533862421256633,-2,-3,-10,-9,-9,-2,0,-3
1533862421256633,-3,-4,10,1,-7,-1,0,-4
1533862421257631,-3,-2,-11,-5,-10,-3,-3,-1
1533862421257631,-2,1,14,3,1,1,3,3
1533862421262617,0,-2,2,2,6,-1,-2,-3
1533862421262617,-4,-3,-19,-7,-3,-4,-2,-1
1533862421277576,0,1,13,-4,-11,-4,1,0
1533862421277576,1,2,12,4,18,5,4,1
1533862421278574,-2,-1,-15,-2,2,-2,0,-2
1533862421278574,0,1,23,5,-10,-2,-1,2
1533862421299518,-1,-1,13,-4,-3,0,0,2
1533862421299518,-1,-1,-2,1,-3,-3,-4,-3
1533862421301512,0,1,21,1,6,-2,1,-7
1533862421301512,1,-2,16,1,-8,2,1,5
1533862421313480,-2,-2,6,4,7,-1,-3,1
1533862421313480,-3,-2,3,0,-6,0,2,2
1533862421322470,-4,-1,5,-3,-4,-1,0,-2
1533862421322470,-2,-1,8,-1,3,-3,-2,-4
1533862421336419,0,-3,-7,-1,1,-2,1,-2
1533862421336419,-2,0,3,3,7,2,-4,-1
1533862421345395,0,0,-6,1,-4,0,0,-3
1533862421345395,-3,-2,-13,-4,1,-1,-1,-2
1533862421359358,-2,-1,-7,-1,-7,1,-1,2
1533862421359358,0,-1,-2,-1,-2,-1,3,1
1533862421361353,0,-2,-3,-3,-17,-3,-1,-1
1533862421361353,0,1,-7,-1,1,-2,-1,-2
1533862421373320,0,2,-1,0,6,-1,-2,-4
1533862421373320,1,-2,-3,3,-3,0,-1,-1
1533862421382298,-1,-3,-27,-14,3,2,0,2
1533862421382298,-2,-4,-9,1,1,-1,-3,1
1533862421397257,-1,-3,-10,-8,-8,-5,-2,-1
1533862421397257,0,-1,-12,1,-5,-2,-2,-2
1533862421399252,-2,-1,-4,1,1,-3,-1,-3
1533862421399252,0,-1,2,0,5,0,-2,0
1533862421420198,0,-2,-5,-3,7,-1,-2,-2
1533862421420198,-1,-1,-8,1,6,5,2,1
1533862421421193,-1,-1,-5,-3,-23,-3,-3,-1
1533862421421193,1,2,3,-4,12,-1,-2,-2
1533862421450118,-1,1,1,0,-14,-4,-3,1
1533862421450118,0,0,3,-1,-9,-3,-2,-1
1533862421451116,-1,-2,-4,4,10,-2,-1,-2
1533862421451116,-2,-1,-5,-1,-3,-1,0,-1
1533862421457302,-3,-3,-3,-1,5,1,-2,-3
1533862421457302,-1,-1,0,1,0,-2,-1,-4
1533862421459093,0,-1,0,2,1,4,5,2
1533862421459093,-1,0,-8,-2,-3,-3,0,1
1533862421480038,-1,-2,1,2,2,1,0,0
1533862421480038,-2,-1,-8,-1,-5,-2,-3,-2
1533862421481035,-3,-3,-12,2,4,-1,-1,-3
1533862421481035,0,0,-1,1,0,1,-2,-1
1533862421501980,0,0,-2,-1,3,1,3,0
1533862421501980,0,-2,-10,-3,-7,-5,-2,-2
1533862421503971,2,2,19,-2,-1,-1,-6,-4
1533862421503971,-1,-3,-26,-7,0,-1,-2,-2
1533862421516937,-2,0,-4,0,-6,3,0,2
1533862421516937,-1,0,-4,-4,0,-4,-3,-1
1533862421518930,-2,-3,-7,-3,-4,-3,0,1
1533862421518930,-1,0,1,3,-2,-1,0,-3
1533862421539876,-2,-2,0,-2,-8,-2,-1,1
1533862421539876,-2,-2,-5,0,9,-3,-3,-5
1533862421540873,1,-1,8,6,10,-2,0,-4
1533862421540873,3,1,-7,-1,2,6,2,9
1533862421561846,-2,-1,-8,-4,-2,0,0,1
1533862421561846,-1,-3,3,-8,-17,-3,1,-2
1533862421563812,-2,-1,-10,-1,1,-1,-5,-3
1533862421563812,-2,-2,5,3,-2,-4,-3,-5
1533862421576779,4,1,-6,2,7,-2,1,-2
1533862421576779,0,0,0,-1,2,0,-4,1
1533862421583761,-4,-3,-15,-3,-3,-2,-1,-1
1533862421583761,-1,0,7,3,-3,-3,4,-1
1533862421599719,3,1,1,4,0,-2,-4,1
1533862421599719,-1,-4,-19,0,0,1,-6,-1
1533862421601710,0,-2,-9,0,4,3,-1,0
1533862421601710,-2,0,-7,-7,-15,-1,4,-1
1533862421622673,-4,0,-4,-3,-4,-5,-1,-4
1533862421622673,1,-2,-8,-3,-2,-5,2,-1
1533862421623651,0,0,1,-1,1,0,0,0
1533862421623651,0,-2,-1,1,3,0,-1,-2
1533862421636625,-3,-2,2,0,3,-5,-5,-5
1533862421636625,0,0,-4,-3,0,0,-2,-4
1533862421650583,-1,0,-17,-7,-1,2,3,6
1533862421650583,-3,0,0,-4,-3,-3,-2,-4
1533862421659558,-3,-2,16,0,-3,-2,-3,-1
1533862421659558,-3,-1,12,1,-1,1,1,-2
1533862421665539,-2,-2,7,1,-4,-5,-3,-3
1533862421665539,-1,-1,14,3,7,0,0,-1
1533862421682494,-1,-4,6,-2,0,3,-1,-1
1533862421682494,1,0,11,0,1,-4,-1,-1
1533862421683495,-1,-4,-6,-7,1,-3,-3,-2
1533862421683495,-2,-2,8,-3,-15,-1,-1,1
1533862421696464,-2,-2,-9,-3,-11,-6,-6,-2
1533862421696464,-2,-1,3,-1,1,1,4,2
1533862421703450,-1,-1,3,0,0,-3,0,-2
1533862421703450,-1,0,13,1,11,2,-2,-2
1533862421727385,-2,-1,-4,-2,1,1,2,-3
1533862421727385,-3,-1,-16,-10,-7,-3,-2,0
1533862421728371,0,-1,-1,-3,0,-2,-2,-1
1533862421728371,-2,-1,-1,-4,-9,-2,1,-1
1533862421742333,0,-1,14,5,7,2,-1,1
1533862421742333,-1,-2,0,5,8,6,2,1
1533862421744332,-1,2,0,0,-9,2,3,1
1533862421744332,-2,-2,-8,-4,-4,-7,-6,-2
1533862421756300,0,-1,9,-1,-4,-2,1,-1
1533862421756300,-1,-2,5,3,0,-3,-4,-3
1533862421763278,0,0,-2,0,1,-3,-7,-3
1533862421763278,1,1,0,3,-6,3,-3,3
1533862421779257,-1,0,2,-4,10,2,2,-1
1533862421779257,-1,-1,-2,-6,-5,-2,-5,-1
1533862421781252,-4,-4,-8,2,-4,-1,1,-3
1533862421781252,0,0,6,2,1,-2,0,-1
1533862421802187,0,-2,-10,-3,0,1,1,0
1533862421802187,-1,-1,-11,0,-5,-1,1,-1
1533862421804179,-1,-3,-4,2,-1,0,0,-1
1533862421804179,0,-1,-6,1,-2,-3,-1,-3
1533862421817147,1,0,-11,-3,4,1,1,0
1533862421817147,-1,1,-2,0,-3,-2,-1,-2
1533862421823131,-3,-1,0,1,-2,0,-1,-1
1533862421823131,0,-2,-7,-2,6,-1,-5,-2
1533862421840085,-3,-2,3,-2,-11,-3,-2,-3
1533862421840085,0,1,8,1,7,3,1,4
1533862421841079,-2,2,4,-12,1,1,-2,-5
1533862421841079,-2,-4,-19,-3,4,-5,0,1
1533862421862027,-1,0,4,-6,-4,5,-1,1
1533862421862027,-2,-3,-6,-4,-1,0,-2,0
1533862421864018,-1,-1,-3,2,1,2,0,1
1533862421864018,-1,-2,6,-1,1,-1,4,-2
1533862421875989,1,-2,-11,0,3,-3,-3,-2
1533862421875989,1,-1,1,0,-1,-2,-3,-2
1533862421885230,-1,-1,-2,8,0,-3,0,0
1533862421885230,-1,-2,-10,-5,3,-1,-1,-1
1533862421900216,-1,0,-1,-3,-7,-4,0,-1
1533862421900216,0,0,-2,-2,-3,-2,-1,-1
1533862421901189,0,-1,-11,-2,-5,-4,-4,-3
1533862421901189,-5,-1,5,0,-7,-1,-1,-3
1533862421922131,1,1,0,-1,1,-1,0,-1
1533862421922131,-1,-2,-6,0,7,2,1,2
1533862421924126,2,1,7,-4,1,-2,-7,1
1533862421924126,-1,-2,-15,-4,-7,-2,0,-1
1533862421936094,-5,2,-3,2,-6,-5,-2,0
1533862421936094,-1,-1,0,0,-7,0,1,-4
1533862421945105,-1,-2,-6,-1,3,0,1,-3
1533862421945105,-2,0,-4,1,0,1,-1,-2
1533862421960069,-1,-2,13,3,3,-4,-2,-2
1533862421960069,0,-1,-2,-1,-2,-2,-1,-1
1533862421961062,-1,-2,-6,-2,1,0,1,1
1533862421961062,2,4,15,-2,6,1,1,1
1533862421982006,-1,-1,-8,-4,-15,-2,0,-2
1533862421982006,-2,-2,-5,1,0,0,3,1
1533862421984001,-3,-3,1,0,-5,-1,-2,1
1533862421984001,-1,-2,3,0,3,1,-1,0
1533862422004948,-2,-3,-2,1,5,0,-1,1
1533862422004948,-2,0,-1,0,-3,-4,-3,-6
1533862422005942,-1,0,8,-2,1,-6,-6,-5
1533862422005942,2,0,-8,-1,10,6,4,6
1533862422019908,-3,-4,-23,-3,0,2,1,-1
1533862422019908,-5,-3,-8,-6,-21,-5,-3,-1
1533862422020902,-1,-2,-3,2,-3,0,1,-1
1533862422020902,-1,-3,8,2,-6,-7,-4,-4
1533862422041846,-1,-1,18,2,5,1,0,-2
1533862422041846,0,-1,-11,-5,9,0,1,-2
1533862422043841,-1,-2,0,-2,-5,-2,-3,-2
1533862422043841,-2,-3,-4,2,1,-1,-1,-2
1533862422055812,-1,-2,8,-3,-3,-1,-1,2
1533862422055812,-1,-2,3,-1,-1,-3,-7,-2
1533862422065783,-2,-2,-5,-2,-1,0,1,2
1533862422065783,0,-2,-3,0,-3,-2,-1,-2
1533862422079769,1,1,4,0,0,-2,-2,-1
1533862422079769,2,0,5,5,-4,-2,-8,-2
1533862422081740,0,0,-14,-5,1,1,4,3
1533862422081740,-2,0,1,-4,0,-4,-6,-4
1533862422102687,-1,-2,-5,-2,-17,-5,-5,-1
1533862422102687,-2,-1,-12,-1,-1,-1,0,-1
1533862422103680,0,0,-8,3,-1,2,-1,-1
1533862422103680,0,-1,5,-1,-4,-2,-2,-2
1533862422115652,-2,-1,-10,-2,5,-1,-1,-4
1533862422115652,0,1,8,4,6,3,6,2
1533862422132606,-4,-6,-18,-6,-12,1,0,-1
1533862422132606,-4,-2,-6,3,15,1,1,0
1533862422139593,-4,-1,-14,2,2,-1,-3,-4
1533862422139593,-2,0,-4,-7,-10,-4,-3,-1
1533862422141579,-1,1,0,-2,0,-2,2,-2
1533862422141579,0,-4,-10,-6,-18,-3,-1,0
1533862422162523,-1,-3,6,-1,3,-3,0,-1
1533862422162523,0,-2,-5,0,-1,-1,0,-2
1533862422163521,0,-1,-5,1,10,-3,-1,0
1533862422163521,1,2,10,-5,-3,-1,0,-3
1533862422184464,-1,-4,-17,-7,8,1,1,1
1533862422184464,-3,-4,-8,-1,-12,-6,-5,0
1533862422186470,-2,0,-6,-3,-7,-3,-3,-2
1533862422186470,-1,-1,3,3,-1,0,0,1
1533862422207406,0,1,-6,-2,-1,3,3,0
1533862422207406,0,-1,-5,-1,3,1,-2,-1
1533862422208400,0,-1,-10,-1,3,-1,-1,-3
1533862422208400,-2,0,3,3,0,-2,0,-1
1533862422222581,-2,-5,-1,2,-7,-5,-4,-5
1533862422222581,-3,-2,-3,3,-1,1,0,0
1533862422224431,-2,2,3,-3,-12,-4,0,0
1533862422224431,-2,0,-7,-1,-2,0,0,-1
1533862422236326,0,1,1,2,3,0,1,1
1533862422236326,-1,-2,11,-3,9,-1,-3,-4
1533862422252284,2,0,6,3,-5,0,-2,-1
1533862422252284,-2,-2,-21,-12,-1,-1,0,0
1533862422259266,1,-1,0,0,2,1,-3,0
1533862422259266,-1,0,-3,-2,-7,-2,0,-2
1533862422261260,-1,-3,-12,1,-3,-2,-1,-2
1533862422261260,-2,-2,8,4,-9,-3,-1,-2
1533862422282203,0,0,4,1,3,-1,0,-1
1533862422282203,1,1,-9,-3,5,3,2,2
1533862422284198,-1,1,0,-3,5,1,-1,0
1533862422284198,-2,-5,-5,3,-5,-5,-5,-4
1533862422305327,-2,-1,9,4,0,0,-2,-2
1533862422305327,-1,-2,-5,-8,-1,-1,2,0
1533862422306140,0,-3,0,0,2,-2,-3,-3
1533862422306140,1,0,0,-1,0,-1,0,0
1533862422320315,-1,0,-9,-2,-3,-4,-1,-3
1533862422320315,-2,0,-1,-3,-6,-3,0,-1
1533862422321100,1,-1,6,3,13,-1,2,-2
1533862422321100,0,-1,-13,-5,-4,3,2,2
1533862422342046,-1,-1,4,-3,-3,-1,-2,0
1533862422342046,1,2,2,2,1,0,-1,-2
1533862422344038,-3,-3,-1,-2,-4,-2,-2,-2
1533862422344038,-2,0,-3,1,-2,-4,-6,-3
1533862422364985,2,-1,12,-1,-1,4,10,6
1533862422364985,-2,-2,3,5,1,-2,-6,0
1533862422365979,-3,-2,-9,-1,-1,-2,-2,-2
1533862422365979,0,-1,-3,-1,9,1,-1,-2
1533862422378948,-2,-2,-3,-6,-6,-1,-2,-4
1533862422378948,-2,0,-12,-4,-12,-3,0,-2
1533862422386152,0,-1,-5,-3,-4,-2,-3,-2
1533862422386152,-1,-1,-5,-3,-1,-1,0,-1
1533862422409865,-2,-1,4,1,0,-3,-7,-3
1533862422409865,0,-2,-2,4,11,3,0,1
1533862422410859,-3,0,10,2,0,-3,-3,-1
1533862422410859,0,-1,14,-3,7,6,2,-1
1533862422424988,-2,-1,-9,0,-1,-5,-1,0
1533862422424988,-1,-2,0,0,-7,-5,-1,-2
1533862422426821,0,-1,0,-2,-3,1,2,1
1533862422426821,0,-2,-5,1,-4,-3,-3,0
1533862422439785,-1,-1,2,0,3,-1,-2,-2
1533862422439785,-1,-1,6,-5,-6,0,2,-3
1533862422440798,1,0,-3,-2,-1,1,-4,-1
1533862422440798,-1,-3,0,2,1,-2,-1,0
1533862422461723,-2,-1,3,-5,-8,0,-3,-1
1533862422461723,-1,-2,-14,-3,2,-4,-3,-1
1533862422463719,-1,0,0,6,3,3,5,0
1533862422463719,-3,-3,-5,-5,0,-6,-2,-2
1533862422484662,-1,-1,0,4,-1,2,-4,0
1533862422484662,-1,-3,-6,-2,13,0,-5,-4
1533862422486657,-1,-1,-5,-7,-23,-3,-1,1
1533862422486657,0,3,0,1,1,-2,-1,-2
1533862422499631,-1,-1,-6,-2,-4,0,4,0
1533862422499631,-1,-2,-4,2,0,1,1,2
1533862422501617,-2,-3,-3,-2,1,-4,-4,-3
1533862422501617,0,-2,-6,-2,12,-1,0,-2
1533862422529542,-1,-4,-2,-6,-12,0,-1,-3
1533862422529542,-1,-1,-1,-1,-3,-1,-1,-3
1533862422531536,-1,-4,-16,-8,3,-5,-1,2
1533862422531536,-2,0,2,-1,-7,3,0,0
1533862422544505,0,-1,-8,5,5,-2,1,2
1533862422544505,-1,0,0,5,0,1,5,-2
1533862422546496,-1,1,-5,1,3,-4,-4,-2
1533862422546496,1,1,7,-1,3,0,-3,-1
1533862422559510,-1,-2,-14,0,-2,-4,1,-2
1533862422559510,0,-1,9,-2,-4,-3,0,-1
1533862422565452,-1,0,-10,-3,2,-3,0,-2
1533862422565452,-1,-1,-2,1,-8,-2,0,1
1533862422582404,-3,-2,4,-7,-5,-1,3,-1
1533862422582404,-2,0,-4,3,2,-1,-2,0
1533862422583397,1,0,3,0,4,3,1,-3
1533862422583397,-3,-3,-5,-5,0,-4,-1,-2
1533862422612320,-1,-1,-2,-4,-26,-7,-5,-1
1533862422612320,-2,-3,-11,-5,6,-1,-4,0
1533862422614315,-1,-1,3,-3,-3,0,-1,-2
1533862422614315,1,0,1,2,-5,0,0,-1
1533862422619523,-3,-2,-27,2,16,-1,-2,-1
1533862422619523,-1,-1,4,-2,-1,3,-3,1
1533862422643241,-2,-1,-4,3,-4,-4,-3,-1
1533862422643241,0,-1,3,-8,-6,0,2,1
1533862422643241,-3,-2,3,-3,4,-1,-3,-3
1533862422643241,2,0,-1,-2,-1,-1,-1,-2
1533862422645232,-1,0,-8,4,3,1,1,0
1533862422645232,-2,-2,-4,-5,-6,-5,-3,-3
1533862422665182,-1,0,7,-2,3,-2,-1,0
1533862422665182,0,-3,3,-6,-5,0,1,-1
1533862422666180,-3,-2,-5,0,1,1,0,0
1533862422666180,-2,-1,-2,-1,-13,-4,-4,-1
1533862422688118,0,-1,2,0,-1,0,0,-1
1533862422688118,-2,1,-9,-1,2,-4,-6,-1
1533862422689114,-4,-3,-5,0,-5,-2,0,-2
1533862422689114,-3,-1,-2,3,7,-1,-1,-4
1533862422702129,-1,0,-1,0,4,-1,-1,-2
1533862422702129,-2,-3,-7,-3,6,0,-2,0
1533862422704075,2,1,-1,1,-10,-2,2,1
1533862422704075,0,-1,-5,-3,2,1,-4,0
1533862422732017,-1,-2,1,0,-4,0,2,0
1533862422732017,-2,-1,-6,0,-3,0,0,-3
1533862422733995,0,-1,-2,-1,5,0,-1,-1
1533862422733995,-3,-2,-11,-5,-5,1,0,-2
1533862422738982,-1,-2,5,-2,9,-3,-4,-2
1533862422738982,-1,0,-6,-2,-16,-5,-1,-1
1533862422745962,-1,-1,-4,-3,1,1,-3,-2
1533862422745962,0,0,-9,2,2,-1,-2,-3
1533862422761924,-1,0,3,0,0,2,-3,0
1533862422761924,-3,-5,-12,0,-3,-4,-5,-2
1533862422763937,-1,-2,-2,-4,-1,0,0,-1
1533862422763937,-3,-3,2,-1,0,0,-1,0
1533862422784862,0,2,3,-4,1,0,1,-2
1533862422784862,-2,0,7,-1,-9,1,1,-3
1533862422785856,-2,0,7,-4,0,1,1,-1
1533862422785856,1,0,8,2,-2,-1,1,-1
1533862422798824,0,0,2,1,4,2,0,0
1533862422798824,-3,0,3,-1,2,-1,-1,0
1533862422805806,-2,-3,1,2,-5,-4,-3,-1
1533862422805806,-1,0,3,2,3,-1,-3,-2
1533862422837721,-1,0,-4,-3,-16,-3,-2,0
1533862422837721,-1,-1,4,-3,8,0,0,0
1533862422838715,0,1,5,-5,-4,-1,-4,-3
1533862422838715,-1,-1,-1,2,-2,-2,0,-1
1533862422844702,0,-2,4,0,0,0,0,-1
1533862422844702,0,-1,9,0,1,-1,-1,1
1533862422846718,-2,-2,-5,0,3,0,-1,-2
1533862422846718,-2,-2,-2,-3,-4,-1,-1,-2
1533862422858661,2,-1,-10,0,1,-1,-3,-1
1533862422858661,1,-2,-6,-2,-1,-2,-1,0
1533862422865646,-2,-3,-12,-3,3,0,1,-1
1533862422865646,1,-1,2,-1,-2,0,0,-2
1533862422897557,-2,-1,1,0,-2,-1,-1,0
1533862422897557,-2,-2,-11,0,-1,-2,-1,-2
1533862422898561,-2,0,-9,-3,-2,-1,-1,-1
1533862422898561,-2,-1,-5,-2,-2,-2,-1,0
1533862422920499,-3,-1,-2,-2,-3,-3,1,1
1533862422920499,0,2,3,1,1,1,2,0
1533862422921493,1,-2,2,0,1,-2,4,-1
1533862422921493,0,-3,-2,1,-4,-2,-4,-2
1533862422922491,-1,-1,-16,0,2,0,-4,1
1533862422922491,-1,0,-4,0,-3,-1,-3,-1
1533862422927477,0,0,1,-1,-3,1,-4,-2
1533862422927477,-2,-1,-11,0,-1,-2,1,0
1533862422942441,-1,-1,6,1,2,0,1,-1
1533862422942441,-2,-1,-7,-5,3,-1,-3,-1
1533862422943435,-1,-2,-10,3,-9,-4,-4,-4
1533862422943435,-2,-3,-10,1,1,0,2,2
1533862422964380,-4,-3,-6,3,-3,-5,-3,-3
1533862422964380,-1,-4,-16,0,3,1,3,1
1533862422966381,-2,-2,-12,1,1,-2,-1,0
1533862422966381,0,0,8,0,0,1,-2,-2
1533862422987319,2,-3,-1,-4,1,-1,-2,-2
1533862422987319,-1,-2,-1,-2,-8,-3,-1,-3
1533862422989312,-2,-3,-4,-3,-1,-3,-1,0
1533862422989312,-3,-2,-102,-2,-1,-3,-2,1
1533862423002327,-4,1,-128,1,4,3,0,-2
1533862423002327,-7,-3,-80,-4,-1,-5,-4,-4
1533862423004272,-4,1,-65,0,12,-4,-4,-4
1533862423004272,-5,-1,2,3,6,-2,4,4
1533862423024219,-7,-2,121,-8,-10,1,2,4
1533862423024219,-6,-2,125,-5,-6,-2,-2,0
1533862423026214,-7,-1,88,-3,6,3,2,1
1533862423026214,-3,-4,95,-3,-2,-5,-5,-8
1533862423038184,2,-1,117,1,1,-1,0,-2
1533862423038184,6,0,48,4,2,1,-4,2
1533862423047160,4,1,45,3,-6,-1,-1,-2
1533862423047160,6,1,83,-2,-4,2,0,-1
1533862423062120,3,-1,31,-1,-13,-3,-1,-4
1533862423062120,4,2,1,1,0,-2,-1,-2
1533862423064113,3,-3,45,-5,-3,2,3,3
1533862423064113,0,1,27,6,1,2,-3,-1
1533862423085056,2,3,-9,2,14,3,0,2
1533862423085056,-5,-5,2,-3,-19,-6,-3,-3
1533862423086053,-3,-2,31,2,0,2,1,0
1533862423086053,-5,0,-3,1,-5,-5,-2,-2
1533862423098021,-4,-2,-11,-1,1,-3,-3,-4
1533862423098021,0,0,16,6,16,5,2,-1
1533862423107994,2,0,6,-3,-27,-2,0,2
1533862423107994,3,0,-8,-2,-4,1,-1,0
1533862423121957,2,0,6,-2,1,-1,-1,0
1533862423121957,3,0,3,-8,0,1,0,-1
1533862423123952,2,0,-4,-1,1,-1,-1,-3
1533862423123952,1,0,-1,-8,-9,-3,0,-2
1533862423144899,0,-2,7,-4,0,-4,-5,-2
1533862423144899,1,1,-6,0,-5,3,1,1
1533862423145893,1,0,-4,0,2,0,-3,-1
1533862423145893,-2,-2,7,-2,-1,0,-4,-1
1533862423157861,-2,-2,-2,3,-2,-5,-5,-4
1533862423157861,1,1,-7,1,-2,1,6,4
1533862423166838,1,-1,4,-7,5,0,-3,-2
1533862423166838,-1,-3,2,1,-6,-2,-1,-1
1533862423197754,-1,-2,-6,-3,2,-2,2,-1
1533862423197754,-3,-2,-2,1,0,-2,-2,-4
1533862423198751,-1,0,4,-4,4,-1,-3,0
1533862423198751,-2,-3,-3,-1,3,0,1,-2
1533862423204737,-2,0,-5,-10,-15,-4,0,-1
1533862423204737,-1,1,2,3,-3,-7,-5,-1
1533862423206734,-1,-2,0,-10,-9,-3,0,-1
1533862423206734,0,1,-3,-2,2,0,-1,2
1533862423218698,-2,0,0,1,-3,2,-3,-3
1533862423218698,0,0,-1,-7,9,0,-2,-2
1533862423227675,-4,-3,-2,6,-1,-4,-4,-2
1533862423227675,-1,-1,-1,-5,0,3,-2,0
1533862423242634,-2,-3,1,-2,4,1,1,1
1533862423242634,0,0,53,2,-9,0,2,-1
1533862423243632,-3,-2,52,1,-4,-2,-1,-2
1533862423243632,0,-1,35,-2,-1,-3,-5,-2
1533862423264576,0,1,25,4,2,2,2,0
1533862423264576,1,-2,8,1,5,-2,-4,0
1533862423266571,-2,0,-6,3,-1,-4,-2,-2
1533862423266571,0,-1,-4,-2,6,3,2,-2
1533862423278542,-2,-2,-13,2,-6,-2,-2,-2
1533862423278542,-3,-3,-19,-5,-2,-1,-1,-2
1533862423287535,-2,-1,-5,-1,-4,-2,-4,1
1533862423287535,-1,2,6,-1,0,-1,0,-1
1533862423302480,-1,-4,11,-4,0,-3,1,-1
1533862423302480,-2,-3,3,4,2,-1,-1,-1
1533862423303472,0,-2,1,2,1,0,-2,-1
1533862423303472,-2,-1,7,1,-6,-3,1,0
1533862423324415,-1,-1,9,2,0,-1,-1,1
1533862423324415,-4,-3,-6,-4,-5,-1,-4,-3
1533862423326410,1,0,-2,-3,2,-2,0,-3
1533862423326410,-2,-1,-3,2,-3,0,0,-1
1533862423338383,0,-1,-3,-3,-1,-1,-3,0
1533862423338383,0,-1,-5,-3,-2,-2,0,2
1533862423347355,-2,3,-2,-3,2,4,1,1
1533862423347355,-4,-2,-6,0,-5,-4,-1,-2
1533862423362320,-3,-3,-10,0,-5,-8,-4,-4
1533862423362320,1,-1,-6,-5,8,4,-11,0
1533862423364326,-2,-2,-4,-2,-3,-1,1,0
1533862423364326,-3,-2,-4,-2,-9,-2,-1,-3
1533862423384259,1,-1,-4,-7,-5,-4,-3,-3
1533862423384259,-1,-2,-7,-1,2,-1,5,-1
1533862423392234,-1,-2,-8,4,-2,-1,1,-2
1533862423392234,0,-1,-4,-3,5,-2,-3,-1
1533862423407197,-1,2,0,-2,2,0,-3,-1
1533862423407197,0,-2,-5,-3,-4,-5,-3,-3
1533862423409189,0,-2,-3,-1,-14,-2,1,1
1533862423409189,-3,-3,-8,-4,1,-2,0,-1
1533862423422157,-4,-1,-6,-3,-6,1,0,3
1533862423422157,-2,-1,-9,-4,-3,-2,0,0
1533862423424149,0,-3,-8,1,8,2,-1,-4
1533862423424149,-1,-1,-4,0,-4,-4,-5,-1
1533862423445093,2,0,-2,3,6,6,2,0
1533862423445093,-1,1,-4,0,-3,2,2,-1
1533862423446091,-2,-1,-4,-1,2,-4,-4,-2
1533862423446091,-2,-1,-6,-4,6,0,-1,-3
1533862423467035,0,0,-2,-4,2,-2,-6,-3
1533862423467035,-2,0,-9,1,-10,-2,4,-1
1533862423469030,0,0,-5,-3,-2,-1,-2,1
1533862423469030,1,0,-7,3,4,-1,-3,-3
1533862423481994,-2,0,1,4,9,1,1,-1
1533862423481994,-2,-2,-5,1,1,-5,-4,-2
1533862423489016,-1,-2,-8,-6,-15,-4,-5,0
1533862423489016,-1,-3,-7,-2,-2,4,6,3
1533862423504256,0,-2,-2,4,-2,-1,5,0
1533862423504256,1,-1,-3,-1,3,-3,-10,-4
1533862423506217,0,-1,-1,0,13,2,2,0
1533862423506217,0,1,-1,-1,-3,-3,-4,-1
1533862423527161,-1,1,-3,4,-7,0,3,0
1533862423527161,-4,-4,-5,6,6,-2,-3,-3
1533862423529155,-1,-2,-5,0,-1,-1,-2,-3
1533862423529155,0,-1,-3,-6,-13,-3,0,1
1533862423541123,-2,-3,-4,-3,-9,-3,-2,-1
1533862423541123,-1,1,-1,-4,2,0,-1,0
1533862423548105,-1,-2,-4,-1,0,-1,-3,-4
1533862423548105,-2,-3,-8,-6,0,0,-3,-3
1533862423565106,0,0,-2,1,12,-7,-5,-1
1533862423565106,1,-2,-6,1,-15,-2,2,-1
1533862423566057,-3,-2,-6,-4,-8,-1,-3,-1
1533862423566057,-1,0,-2,4,2,-1,1,0
1533862423587002,0,-3,-5,-3,-4,-1,-4,-2
1533862423587002,-1,0,-3,-2,0,-3,-3,-3
1533862423589011,-1,-1,0,5,7,0,1,0
1533862423589011,-1,0,-1,2,1,1,-3,-4
1533862423602143,0,-1,-5,1,-4,2,-1,-1
1533862423602143,-2,-3,-8,-7,-2,-1,1,0
1533862423607945,-2,0,-2,-2,-4,-7,-2,-1
1533862423607945,0,-2,0,-2,-1,-1,-2,0
1533862423624899,-2,2,1,-2,1,-2,-5,-1
1533862423624899,0,1,2,4,3,4,7,0
1533862423625906,-2,-2,-4,-10,2,-1,3,1
1533862423625906,-3,0,0,-4,-10,-2,-1,0
1533862423646841,-3,-4,-3,2,-2,-2,-2,-2
1533862423646841,0,-1,-3,-4,-7,-4,-3,-2
1533862423648857,0,0,1,0,4,1,4,-1
1533862423648857,-1,-1,6,4,2,2,2,0
1533862423660806,-2,-2,-3,-4,0,3,-1,-1
1533862423660806,-1,-1,-3,0,3,1,-1,-1
1533862423669780,-2,-1,-4,4,3,-1,-3,-1
1533862423669780,-1,0,-2,-3,-8,-6,-5,-4
1533862423684739,0,-1,-3,-3,-5,4,4,4
1533862423684739,-3,-1,2,2,0,1,1,0
1533862423686733,-1,-1,0,-4,-3,-3,2,-4
1533862423686733,1,0,0,0,13,-1,-9,-1
1533862423707679,0,-3,-7,-6,-9,-3,0,-1
1533862423707679,-3,-1,-1,-1,-11,-4,-3,-2
1533862423708675,-2,-1,0,3,-3,3,5,2
1533862423708675,-3,-2,-1,0,-2,-1,4,-1
1533862423721644,1,1,3,2,9,-3,-1,1
1533862423721644,2,-1,-1,-2,0,1,-4,-1
1533862423728622,-2,-1,0,2,3,-1,-2,-5
1533862423728622,-2,-1,-5,-6,-13,0,2,0
1533862423743585,-2,0,1,0,0,-1,1,-2
1533862423743585,-2,-2,-1,-1,-3,-3,-2,-4
1533862423752558,0,-1,-2,0,0,-1,-1,0
1533862423752558,-2,-4,-7,2,8,2,-2,0
1533862423767522,-2,-3,0,-5,-7,-4,0,0
1533862423767522,1,0,-1,-2,-6,-2,0,0
1533862423768533,-1,1,-1,2,-1,-1,-3,-2
1533862423768533,0,-1,2,2,4,-1,0,-3
1533862423781481,-2,-1,-1,-2,-1,2,-2,-3
1533862423781481,-1,-2,0,2,1,0,2,0
1533862423788462,1,-1,-1,-3,-2,-4,-5,0
1533862423788462,-1,0,-2,-1,-5,0,2,0
1533862423804423,-2,2,0,0,-2,-1,-1,0
1533862423804423,-2,0,-3,5,4,1,1,-3
1533862423806413,-2,-1,-4,-11,-18,-7,-3,0
1533862423806413,1,0,-1,0,-2,2,0,0
1533862423827361,-2,-4,-3,1,0,-4,-7,-4
1533862423827361,1,0,-2,-4,-1,0,0,1
1533862423833342,1,-3,-2,2,2,2,-1,-3
1533862423833342,-2,-2,-4,-2,1,-3,0,0
1533862423841323,-1,0,1,-1,-1,-2,0,0
1533862423841323,-2,-1,-3,-5,-1,-2,-1,-2
1533862423848303,-1,0,5,9,4,1,-2,-1
1533862423848303,-3,-3,-10,-11,-2,-3,-2,-2
1533862423864268,0,-1,0,-1,0,0,0,0
1533862423864268,-1,0,0,-1,-1,-2,-2,-1
1533862423872239,-3,-1,-1,2,4,2,-1,-1
1533862423872239,0,0,2,0,-10,-2,0,-2
1533862423887201,-2,-1,-4,-2,-1,-1,-2,-3
1533862423887201,-1,-1,-2,-2,-3,-2,-1,-1
1533862423889196,0,-2,-1,-2,-1,0,-3,-1
1533862423889196,0,-2,-1,3,5,0,-2,-1
1533862423901160,0,-2,-1,-3,6,0,-1,-2
1533862423901160,-1,-1,4,-2,-5,-2,0,1
1533862423917127,-1,-1,-3,-2,-5,-2,0,-1
1533862423917127,-2,0,8,2,0,-1,1,0
1533862423925334,-3,-2,-49,-1,1,-2,-1,-3
1533862423925334,3,5,91,5,3,-1,-1,1
1533862423926093,-1,-3,8,0,-2,-1,1,1
1533862423926093,-1,-3,-7,-2,1,-1,0,-1
1533862423947038,-1,1,10,4,-1,-1,1,0
1533862423947038,-2,4,-74,-14,3,2,-2,-4
1533862423953025,1,-9,42,9,2,-2,2,0
1533862423953025,-1,-3,21,1,-1,1,-1,-1
1533862423961017,0,-5,-2,-4,-6,-2,0,-1
1533862423961017,0,0,-6,1,-2,-3,0,-1
1533862423969991,-2,1,-20,-6,3,-1,-3,-3
1533862423969991,0,3,-18,3,5,2,2,-1
1533862423984937,1,0,13,0,1,1,-2,0
1533862423984937,-3,-4,-6,-3,-16,-7,-2,0
1533862423985934,-3,1,-21,-3,-3,1,-1,-2
1533862423985934,-3,-2,-6,0,-4,-4,-4,-2
1533862424006881,-2,2,-11,1,0,-2,-1,-2
1533862424006881,1,-3,6,0,7,2,-2,0
1533862424008873,0,0,-15,-5,-4,-2,-1,0
1533862424008873,0,0,-1,-4,-2,-3,-1,-3
1533862424029818,-2,-1,7,-3,-8,-4,-1,1
1533862424029818,-3,-5,-13,1,2,-1,-3,-2
1533862424031811,-1,-1,-1,0,-3,0,-1,-1
1533862424031811,-1,-1,-18,-2,0,-2,0,0
1533862424044779,1,-2,-19,-2,6,-1,-3,-1
1533862424044779,-1,-1,-28,0,-6,0,0,-1
1533862424046783,-1,3,-27,-4,14,2,-2,-1
1533862424046783,-1,0,-4,-1,-7,-3,-3,0
1533862424067800,-2,-1,0,-3,-11,-2,-1,-3
1533862424067800,-3,-2,-8,0,-3,-4,-6,-2
1533862424068712,-1,-2,14,3,5,1,1,0
1533862424068712,-3,-3,4,-4,10,3,0,0
1533862424080699,-2,-2,8,-5,-15,-5,-4,-1
1533862424080699,-3,-3,-6,-1,1,-1,-2,-2
1533862424089656,0,0,-4,-5,-3,-3,-1,-2
1533862424089656,1,-1,11,0,-1,0,-1,0
1533862424103716,-1,-1,12,-7,1,0,3,-3
1533862424103716,-1,-1,3,-1,-1,0,2,-1
1533862424118580,-1,-1,5,-10,-8,-2,-3,-2
1533862424118580,-2,-2,9,8,-3,-7,-3,-5
1533862424127558,-2,0,19,-4,5,-2,-1,-3
1533862424127558,5,3,-11,-29,9,6,-3,8
1533862424128552,-1,-4,-18,-8,-4,-1,-3,-1
1533862424128552,-2,0,3,2,-5,1,0,0
1533862424149505,0,-1,-1,21,10,-2,-1,-3
1533862424149505,-2,-1,10,19,-7,-4,2,-3
1533862424149505,-1,1,6,3,-3,0,-2,0
1533862424149505,-1,-1,6,-4,-9,-7,-3,-3
1533862424172438,-1,-1,-18,4,-2,1,0,1
1533862424172438,-1,-3,3,4,4,-1,2,-1
1533862424173433,2,9,57,7,-1,2,-1,0
1533862424173433,1,-9,29,15,1,1,2,0
1533862424186435,-1,-4,11,-7,1,1,-4,3
1533862424186435,-2,-9,-88,-17,-2,-1,-2,-3
1533862424187432,-3,-3,34,7,-8,-4,-3,-2
1533862424187432,2,6,17,3,1,-2,-2,-1
1533862424209339,-1,-2,14,3,2,0,1,2
1533862424209339,-2,-2,15,5,0,0,2,-3
1533862424209339,-1,0,-31,-17,-3,-3,0,-1
1533862424209339,1,0,-24,-8,0,1,0,-1
1533862424223502,-2,-4,-9,-13,-4,-2,-4,-4
1533862424223502,-2,0,27,-3,-3,-4,-3,-4
1533862424231279,2,-3,-1,1,-1,0,4,-1
1533862424231279,-1,3,3,-7,3,1,1,3
1533862424246237,-1,-1,-10,3,-1,0,1,0
1533862424246237,0,0,20,8,-1,1,-1,0
1533862424247234,0,7,-12,-2,-5,-5,-5,-4
1533862424247234,-2,-15,-26,-5,-2,-5,-6,-4
1533862424269180,1,3,11,1,-1,3,-1,-2
1533862424269180,-1,-11,2,-7,-5,0,2,0
1533862424270174,-2,-4,-12,1,-2,-1,1,-1
1533862424270174,-4,2,-4,0,3,-1,-2,-1
1533862424283140,1,3,-5,-9,0,-3,1,-1
1533862424283140,0,0,19,12,0,-3,-3,-1
1533862424291118,-4,-10,-26,-3,-2,-2,-4,-1
1533862424291118,-2,3,0,-12,1,3,1,1
1533862424307074,-1,-6,-29,0,-2,-4,-2,-3
1533862424307074,-3,1,-31,3,-1,-5,-3,-4
1533862424308072,0,-1,15,0,3,5,6,3
1533862424308072,3,9,3,4,-6,6,0,4
1533862424329017,-3,-10,-52,-15,-1,-1,-1,0
1533862424329017,-2,7,14,8,-4,-2,-2,-3
1533862424330022,-3,-3,6,3,3,-2,-2,-4
1533862424330022,-1,-5,-2,-1,-3,-6,-2,-3
1533862424343996,0,-2,6,3,0,1,2,1
1533862424343996,1,0,-3,-7,-1,-2,-3,-3
1533862424351955,2,2,-3,0,12,5,-2,-1
1533862424351955,-3,-3,-17,-4,-9,-5,-1,-3
1533862424366918,0,5,16,-3,-6,-2,1,0
1533862424366918,1,1,13,14,0,0,1,0
1533862424366918,-1,2,-18,-7,-4,-3,-1,0
1533862424366918,-1,-1,-17,-18,6,3,1,0
1533862424388859,0,-1,11,13,1,-3,0,-2
1533862424388859,-1,-9,-11,-14,-4,1,1,1
1533862424389853,-2,17,29,5,-3,0,-1,-3
1533862424389853,-2,0,11,13,-2,-3,-3,-2
1533862424403824,0,7,10,0,-1,0,-2,1
1533862424403824,-6,-15,0,2,3,1,1,-1
1533862424411798,0,-6,-10,3,-3,-3,-2,1
1533862424411798,2,-3,-5,-11,-3,-2,-1,-3
1533862424426754,0,3,17,1,-1,-1,-2,-3
1533862424426754,-3,5,6,-7,2,-1,-1,1
1533862424427751,13,-4,-13,1,-5,-3,-3,-2
1533862424427751,3,0,10,15,2,-1,0,-1
1533862424448697,-4,-6,-10,-22,-2,0,2,1
1533862424448697,0,2,0,-9,-4,-3,-3,-4
1533862424449701,-4,-4,-6,1,-2,2,3,2
1533862424449701,-2,0,-7,2,0,-1,-2,-2
1533862424463657,-1,-2,5,10,1,-1,-1,0
1533862424463657,-2,0,5,-4,-2,-2,-1,1
1533862424471638,-1,-3,1,0,-1,-1,-1,-2
1533862424471638,1,0,-7,-6,3,-2,-1,-1
1533862424486638,-3,-1,-2,-5,-8,-2,-2,-5
1533862424486638,-2,1,11,8,2,-2,-2,1
1533862424487592,-5,-3,-2,12,-6,3,0,-2
1533862424487592,-1,-2,-5,-16,32,9,0,-2
1533862424509532,-4,-6,-19,-16,-32,-18,-4,-3
1533862424509532,0,3,-2,0,-21,-6,-1,1
1533862424509532,-2,-3,-5,-4,-8,-3,-2,-1
1533862424509532,-5,-1,7,-4,-7,1,0,-1
1533862424523716,1,0,11,9,24,8,1,0
1533862424523716,2,18,32,-1,5,-2,-1,-3
1533862424531475,-3,-7,-7,-5,-2,-2,-1,-1
1533862424531475,-2,2,-2,-8,4,4,2,1
1533862424546443,-2,0,24,2,2,0,-1,0
1533862424546443,3,-7,1,-6,-7,-4,-1,-1
1533862424547459,-5,-3,-6,-10,3,-2,-2,-1
1533862424547459,3,-9,-3,0,-10,-4,-2,-3
1533862424569377,-4,0,-12,6,-4,1,-1,-3
1533862424569377,4,0,1,0,1,0,0,0
1533862424569377,3,6,-7,-8,3,-1,-3,-1
1533862424569377,2,3,-6,-5,-7,-3,-1,3
1533862424583336,-5,0,1,7,0,3,1,1
1533862424583336,-6,-15,-7,5,7,1,0,-2
1533862424591318,-4,-2,2,-16,-2,-7,-5,-4
1533862424591318,-3,6,-3,2,0,-3,-1,-3
1533862424606278,4,0,7,5,13,9,4,5
1533862424606278,-4,-1,-16,-13,-23,-8,-1,0
1533862424607272,0,-2,-5,20,-17,-5,-1,-3
1533862424607272,-6,-1,13,4,3,0,-2,-3
1533862424629242,0,-4,-14,-11,-11,-10,-6,-4
1533862424629242,2,-3,-6,1,15,5,2,0
1533862424630233,-3,0,0,-2,-2,-2,0,-1
1533862424630233,-1,1,0,2,-4,-2,-2,-1
1533862424644379,0,1,0,1,10,4,-2,-3
1533862424644379,0,0,-9,-1,-2,1,-1,0
1533862424645171,-1,-2,-1,2,0,-1,-3,-2
1533862424645171,-3,-2,4,8,0,-2,-1,-1
1533862424666133,0,-4,-13,-12,0,-4,-1,-3
1533862424666133,-3,0,-1,2,-1,-1,-1,-1
1533862424667111,1,2,2,1,7,2,0,-2
1533862424667111,0,-5,-3,-4,-6,-4,-2,-3
1533862424689052,0,-1,0,-6,-9,-2,-1,1
1533862424689052,-4,2,1,6,7,3,0,0
1533862424690050,-3,-2,0,-1,8,1,1,0
1533862424690050,-1,-1,1,-2,-10,-4,-1,1
1533862424704056,0,0,0,3,-8,-5,-2,-4
1533862424704056,3,1,-4,-26,2,1,-2,-2
1533862424705011,-1,-3,7,23,0,0,-3,0
1533862424705011,-3,-2,-6,2,-4,-2,-1,-2
1533862424726954,-2,0,1,-4,5,0,-3,0
1533862424726954,1,0,2,6,3,-1,2,1
1533862424726954,0,-1,-4,-18,-6,-4,0,-1
1533862424726954,-3,-3,-17,-8,-6,-3,-2,0
1533862424748894,1,1,5,12,0,0,0,-2
1533862424748894,0,-1,2,-4,-3,-2,-3,-3
1533862424749891,-1,-4,-11,-13,-3,-2,-2,-2
1533862424749891,-1,-2,2,11,-4,-2,0,0
1533862424763854,0,0,-2,-3,-4,-3,-2,-1
1533862424763854,-3,-1,1,3,0,0,-4,-1
1533862424764850,-1,0,0,-4,4,0,-2,-2
1533862424764850,2,-2,-1,-6,-1,0,1,-1
1533862424787001,-2,0,0,1,1,0,-1,-1
1533862424787001,-3,-1,-2,7,1,0,-3,0
1533862424787789,-1,0,3,-4,3,2,3,3
1533862424787789,0,0,-3,-2,-2,-2,0,-2
1533862424808948,-2,-1,2,0,-4,-5,-2,-3
1533862424808948,-2,-3,-6,-5,-5,-5,-2,-3
1533862424809732,-1,-1,0,-1,-2,-1,0,-1
1533862424809732,0,1,5,0,11,4,-1,-1
1533862424823699,-2,-2,4,8,6,0,-1,1
1533862424823699,0,-4,-5,-3,-20,-7,-1,-3
1533862424824689,0,-3,-17,-14,1,-3,-3,-2
1533862424824689,-2,0,6,5,-2,3,1,1
1533862424846636,0,-1,-1,1,7,2,-3,-1
1533862424846636,0,-1,1,2,5,2,-2,-3
1533862424847631,0,0,3,-1,6,0,1,0
1533862424847631,-1,-1,-1,3,-7,-5,-3,-2
1533862424868592,-3,-1,-1,2,-11,0,3,-1
1533862424868592,-3,-2,-2,-4,3,0,1,0
1533862424869572,-1,0,1,1,-11,-4,1,1
1533862424869572,-1,-1,-4,-12,5,-2,-2,-1
1533862424883533,-1,0,-1,-4,-6,-2,-1,0
1533862424883533,-2,-2,-1,2,0,-1,-1,-1
1533862424891515,0,-3,0,2,6,0,-3,-4
1533862424891515,2,2,5,3,1,1,0,0
1533862424906471,-3,-5,-12,-17,-4,-3,0,2
1533862424906471,-1,1,-12,-7,4,1,1,-1
1533862424907469,0,-3,3,1,-5,-4,-2,-4
1533862424907469,-3,-2,-3,-3,-13,-5,-2,0
1533862424929411,-2,-1,1,-1,0,1,0,0
1533862424929411,1,0,3,1,2,2,-1,0
1533862424930414,-2,-2,0,1,-4,-3,-1,1
1533862424930414,-3,-1,-1,-1,2,0,-1,-3
1533862424943376,2,1,5,1,7,4,2,2
1533862424943376,-1,-4,-5,11,-10,-4,1,-1
1533862424951356,-2,-1,-2,-9,-11,-7,-3,-1
1533862424951356,-2,-1,0,-11,-2,-1,-3,-3
1533862424966315,0,-1,-6,-2,0,-1,-3,0
1533862424966315,0,-1,7,2,3,-1,-2,0
1533862424967309,1,0,-1,3,-1,0,-1,-1
1533862424967309,2,-1,-1,2,0,-1,-2,0
1533862424989491,1,0,1,1,4,4,0,0
1533862424989491,1,2,12,8,10,2,3,1
1533862424989491,-3,-3,-19,-21,-24,-7,-1,-3
1533862424989491,-1,-3,-4,-1,-6,1,0,-1
1533862425003437,-2,-1,2,0,-3,-3,-2,-3
1533862425003437,0,1,0,1,3,1,-1,-4
1533862425011416,0,1,5,4,10,1,-2,-2
1533862425011416,0,0,-5,1,2,-2,-4,2
1533862425026544,0,1,0,1,-3,1,1,-1
1533862425026544,-4,-4,-7,-9,-10,-4,-2,0
1533862425027382,-2,0,1,4,2,0,-3,0
1533862425027382,-3,-1,-1,-3,-6,-4,-2,-3
1533862425049315,0,-1,0,4,3,0,-4,-4
1533862425049315,1,-1,-5,-6,1,0,0,-1
1533862425050308,-3,-1,4,5,3,1,0,1
1533862425050308,-2,-2,-3,-6,-5,-3,1,0
1533862425063274,0,-3,-5,-10,-3,-5,-1,0
1533862425063274,-3,1,1,0,-5,1,-3,-1
1533862425071253,-1,-2,5,6,-4,-1,0,-1
1533862425071253,0,-2,-11,-3,3,1,2,-2
1533862425086213,0,-1,2,-2,-1,0,-1,-1
1533862425086213,-2,-3,-3,-5,-1,-3,-5,-3
1533862425087209,2,0,8,8,11,6,0,-1
1533862425087209,1,-3,-3,-6,9,1,2,1
1533862425109155,-3,-1,-5,-4,-34,-13,-3,-1
1533862425109155,-2,0,0,-1,3,1,-1,-1
1533862425110149,-2,-1,-2,0,-1,1,-1,-1
1533862425110149,-2,-1,7,5,3,0,-1,-2
1533862425123117,-2,-1,-3,0,12,2,0,-1
1533862425123117,2,1,1,-2,-3,-1,0,0
1533862425139075,-1,2,3,6,-7,0,2,-1
1533862425139075,-2,0,-2,-3,-10,-5,-1,-1
1533862425147064,-1,-1,1,1,4,-1,-2,-1
1533862425147064,-1,-2,-2,2,1,-2,-1,0
1533862425147064,-1,-2,-2,-3,5,0,0,-1
1533862425147064,0,-3,0,1,2,-1,0,-1
1533862425168994,1,-2,3,3,-5,-2,-2,-2
1533862425168994,0,1,-5,-2,0,-1,-2,0
1533862425169988,-3,-2,-12,-7,0,-2,-3,-3
1533862425169988,-2,-1,-4,1,-2,-2,0,-1
1533862425182955,-2,0,1,2,1,0,1,-1
1533862425182955,0,-2,1,-3,0,-2,1,-2
1533862425191933,-1,0,-1,-4,1,1,-1,-1
1533862425191933,-1,0,5,8,7,-1,-4,-1
1533862425206893,-2,-3,-9,-16,-9,-6,-2,0
1533862425206893,0,-2,-1,-4,-5,-2,0,-2
1533862425206893,-1,-3,-2,-3,-3,-1,-1,0
1533862425206893,-2,0,2,0,4,4,-1,1
1533862425228831,-1,-1,1,5,6,1,-2,-3
1533862425228831,-1,-1,-2,-3,-8,1,3,3
1533862425229837,1,1,6,6,3,1,0,1
1533862425229837,-1,-3,-12,-11,-10,-4,-3,-1
1533862425251771,0,-2,0,0,-2,3,-1,0
1533862425251771,1,-1,2,2,2,-3,-4,-2
1533862425252768,0,-2,-12,-7,-7,-4,-1,-3
1533862425252768,-1,-2,1,0,-5,0,0,-1
1533862425266731,-2,-2,-1,0,1,-3,-3,-3
1533862425266731,-1,1,-2,-6,3,-1,-3,-2
1533862425267727,-1,-2,7,14,5,1,1,0
1533862425267727,-2,0,-6,-7,-1,0,-4,-2
1533862425288674,-3,0,-1,-1,4,-4,-1,1
1533862425288674,-2,-2,1,-1,-7,-4,-3,-2
1533862425289674,-2,0,0,-4,-8,-4,-2,-1
1533862425289674,1,0,2,3,-3,0,-2,0
1533862425312652,1,-1,1,-1,3,3,-1,1
1533862425312652,-2,-3,-2,6,4,2,-2,-1
1533862425312652,-1,-2,4,-4,4,-1,1,-1
1533862425312652,-3,-2,-8,-4,-13,-5,-1,-1
1533862425326570,-4,1,-2,-5,-1,-2,0,0
1533862425326570,-2,0,-2,1,0,-2,0,-2
1533862425327579,2,-2,-1,0,5,1,-3,-1
1533862425327579,0,0,7,5,-4,-1,-1,0
1533862425349530,-2,-2,-7,-11,-8,-4,-2,-1
1533862425349530,-2,1,5,15,-8,-3,-1,-1
1533862425349530,-2,-2,-13,-8,1,-3,-2,-3
1533862425349530,0,-2,5,6,6,1,0,-3
1533862425372463,2,0,-3,-1,0,2,3,1
1533862425372463,0,-3,-6,-11,0,-4,-2,-1
1533862425373446,-1,-1,3,8,-4,-2,-2,2
1533862425373446,0,0,-2,-8,2,-3,-2,-2
1533862425386409,-2,1,2,0,-6,-5,-5,-5
1533862425386409,-2,-2,-5,-3,3,3,0,-2
1533862425387411,-1,1,1,-1,-1,2,-2,0
1533862425387411,-3,-1,-3,-7,-12,-6,-4,-3
1533862425417345,-2,-1,3,4,4,1,0,1
1533862425417345,-1,-1,1,1,5,2,1,0
1533862425418324,-1,0,-3,-10,-1,-2,0,-1
1533862425418324,-2,1,2,10,-3,-2,-2,-1
1533862425432288,0,-1,-3,0,-4,-4,-3,0
1533862425432288,0,-2,0,-2,-3,-4,-3,-3
1533862425433292,0,-1,-3,-4,3,6,2,3
1533862425433292,0,-2,-1,-7,3,1,5,-2
1533862425446254,0,-1,1,2,-3,-2,-1,-3
1533862425446254,-1,0,-1,-2,-4,-2,-1,0
1533862425447249,-3,-1,-1,-2,-4,-4,-3,-4
1533862425447249,-1,-3,-2,-2,3,-1,-1,-2
1533862425469192,0,-1,3,9,9,2,-1,-1
1533862425469192,-2,-2,-6,-14,-16,-5,-1,-1
1533862425470185,1,0,-1,-5,1,-1,0,0
1533862425470185,-1,0,-2,-6,-8,-3,-1,1
1533862425492181,-1,0,4,2,4,1,0,-2
1533862425492181,-2,-1,-3,0,6,-1,-2,-2
1533862425493125,-1,-1,-2,1,-5,-4,-2,1
1533862425493125,1,-1,2,2,7,5,2,0
1533862425506093,-1,-1,-3,-1,9,0,-2,1
1533862425506093,1,-2,-7,-10,-20,-7,-2,1
1533862425507088,-3,-1,-2,-2,-20,-5,-1,0
1533862425507088,-4,-2,-3,-3,-2,-2,0,-1
1533862425529062,-2,-3,2,2,2,1,0,-1
1533862425529062,0,-1,1,2,10,1,-2,-2
1533862425530027,-1,-3,-3,3,0,-2,-4,-2
1533862425530027,1,-1,1,1,2,-1,-3,-2
1533862425551970,1,1,4,3,-6,-1,-1,0
1533862425551970,0,-3,-17,-17,5,1,-1,-2
1533862425552963,1,0,3,6,4,-1,-1,-1
1533862425552963,-1,0,-2,-3,1,-1,-1,-1
1533862425566930,-3,-3,-6,-4,-3,-1,-2,-2
1533862425566930,-2,0,4,4,1,1,1,1
1533862425566930,1,-1,-1,-2,-1,0,-2,-1
1533862425566930,-1,-2,-4,-1,-3,-4,-5,-2
1533862425588871,2,0,-3,-5,-4,-5,-3,-3
1533862425588871,-1,1,5,5,2,1,0,-2
1533862425589865,1,-1,0,-2,5,1,1,0
1533862425589865,-2,-1,-1,-1,-4,-3,2,0
1533862425612804,-3,-1,-4,-2,-15,-6,-2,0
1533862425612804,-2,0,2,3,-2,-1,-1,1
1533862425612804,-2,-2,0,-2,1,-3,-1,-2
1533862425612804,1,-1,-1,1,7,3,-2,-1
1533862425626767,0,-1,0,1,12,5,5,2
1533862425626767,1,0,9,-2,-1,-3,0,-3
1533862425627764,-5,-4,-16,-10,-17,-7,-4,-2
1533862425627764,-1,0,1,-2,-2,-1,-1,-1
1533862425648708,-1,-1,-5,-3,-2,-2,-3,-1
1533862425648708,0,0,5,7,4,3,0,-2
1533862425649706,-1,0,3,3,8,1,-1,-2
1533862425649706,-1,0,0,-5,-7,-5,0,0
1533862425672662,-1,-4,-5,4,-3,-2,-2,-3
1533862425672662,0,-2,-4,-2,5,2,1,0
1533862425672662,0,-1,2,1,-2,-3,-1,-2
1533862425672662,-1,0,-5,1,4,1,-1,-2
1533862425686621,0,1,3,0,0,4,3,0
1533862425686621,0,-2,-2,-4,-3,-3,-2,-1
1533862425687604,0,-1,-1,4,3,1,0,-2
1533862425687604,-1,-2,2,3,5,0,-2,0
1533862425709706,-2,0,3,-5,-6,-4,-1,-2
1533862425709706,-2,-2,-13,-6,-11,-2,-3,-1
1533862425709706,0,2,3,-8,-2,1,0,0
1533862425709706,-2,0,0,1,1,1,-1,-1
1533862425732493,0,-1,0,-2,0,-1,0,-3
1533862425732493,0,-1,1,3,3,0,-1,-1
1533862425733482,2,0,3,4,4,1,0,0
1533862425733482,0,-2,-6,0,-8,-6,-2,-1
1533862425746448,-1,-1,-3,-5,-2,-3,-1,0
1533862425746448,-2,0,1,0,-3,-2,0,1
1533862425747461,-1,0,-2,0,-5,-1,-1,-5
1533862425747461,0,-2,-5,-3,1,2,-2,-1
1533862425769389,-1,0,-1,-1,4,2,-3,-1
1533862425769389,-2,0,0,5,9,1,3,1
1533862425769389,0,-1,0,-8,-8,-4,-2,1
1533862425769389,-1,-2,-5,3,-4,0,3,1
1533862425792328,0,0,0,-1,2,-1,-2,-1
1533862425792328,-3,-3,-2,-3,-9,-6,-3,-3
1533862425793321,1,-2,3,-2,2,1,1,1
1533862425793321,-1,0,3,5,9,2,-1,-2
1533862425806286,-1,-5,-7,-15,-17,-6,-1,-2
1533862425806286,0,1,4,8,5,2,-2,1
1533862425807285,-2,-1,-2,2,-5,-3,-2,-3
1533862425807285,-1,-1,0,0,2,0,-1,-1
1533862425829226,-2,0,-1,4,9,0,1,-1
1533862425829226,1,-1,0,-5,-7,-5,-1,-2
1533862425830238,-2,-2,-4,-1,2,-1,-1,0
1533862425830238,-2,-1,0,-4,-6,-2,-3,1
1533862425860146,-1,-1,-2,-4,-1,-3,-1,-2
1533862425860146,2,0,3,4,-1,3,0,1
1533862425860146,-2,-1,1,4,3,2,-3,-1
1533862425860146,-1,-3,-9,-6,-3,-3,0,-1
1533862425866130,-1,-1,-1,3,-8,-1,-1,-2
1533862425866130,-2,-1,-3,-4,2,-2,-4,-1
1533862425874105,-1,-1,-1,1,-1,0,1,0
1533862425874105,-1,1,2,-3,-2,0,0,1
1533862425889069,1,0,3,6,8,8,3,0
1533862425889069,-1,-3,-5,-7,-9,-7,-1,-2
1533862425890062,0,-2,-1,-2,-12,-4,-3,-1
1533862425890062,-1,-1,0,-1,-2,-2,-3,-3
1533862425912004,-2,-3,-5,-1,-2,-2,0,0
1533862425912004,-1,-1,3,3,9,1,-1,-2
1533862425913001,0,-2,-3,-2,2,-5,-3,-2
1533862425913001,-1,1,2,3,-3,0,0,0
1533862425925970,-1,1,6,3,3,2,2,1
1533862425925970,-1,-3,-17,-7,-1,0,0,-1
1533862425933980,-2,-2,-6,-6,-11,-3,-1,-1
1533862425933980,-2,-1,0,0,2,-2,-3,-3
1533862425948905,1,0,-2,-3,-1,-2,-6,0
1533862425948905,-1,0,1,0,-2,0,1,-1
1533862425949903,-3,-1,-1,-1,2,-1,-1,-2
1533862425949903,-1,0,-1,-1,0,-1,-3,-3
1533862425972841,1,0,1,1,7,5,2,2
1533862425972841,-2,0,-1,-4,-2,0,-2,1
1533862425972841,-1,-1,0,-1,-14,-8,-2,-2
1533862425972841,0,0,1,1,0,-2,1,-1
1533862425985809,-4,-4,-3,-2,-3,-3,-3,-3
1533862425985809,-2,-1,-1,4,8,4,-2,-2
1533862425993786,-1,1,-3,-6,3,2,-2,-1
1533862425993786,-1,-1,-1,1,-5,-4,-1,1
1533862426008749,-1,-1,-3,-7,-1,-3,0,-1
1533862426008749,-1,-1,2,2,1,2,0,-1
1533862426009742,-1,-1,3,-1,5,0,0,-1
1533862426009742,-1,-2,-6,-1,0,-3,0,0
1533862426031684,-1,-2,-4,-2,-2,-2,1,0
1533862426031684,-1,-1,1,-7,-11,-7,-3,0
1533862426032681,1,0,-1,-1,2,0,-1,-1
1533862426032681,0,0,2,1,-1,-2,-3,2
1533862426045647,-2,-1,-4,1,-2,-3,0,-2
1533862426045647,0,0,1,2,6,3,1,0
1533862426054626,-1,-2,-2,-3,-9,-8,-2,-2
1533862426054626,-2,-3,-2,-7,-11,1,1,-1
1533862426068588,-1,1,-3,-1,-4,-3,-4,0
1533862426068588,-4,-2,-2,0,-2,-1,-2,-2
1533862426069582,0,0,-1,1,13,6,2,-2
1533862426069582,1,-3,1,-2,-2,-1,0,-1
1533862426099502,-3,-1,0,0,-6,-4,0,-1
1533862426099502,1,1,-3,-6,2,-3,0,-4
1533862426100499,0,0,10,18,6,2,1,0
1533862426100499,-1,-1,-11,-5,-1,-1,-4,-1
1533862426106500,-2,0,-5,-6,-7,-1,-2,0
1533862426106500,-1,-2,1,2,-1,-2,0,1
1533862426114462,-1,-1,-6,-8,-11,-4,-3,-2
1533862426114462,-1,0,4,2,3,0,0,0
1533862426129423,-1,-1,-3,0,2,1,-1,-2
1533862426129423,-1,-1,0,1,-4,-1,-3,-2
1533862426129423,-2,0,-2,1,10,6,1,2
1533862426129423,1,-2,1,2,5,1,-2,-2
1533862426152360,0,0,1,-5,-15,-3,0,-1
1533862426152360,-3,-3,-5,-1,-7,-5,-1,-1
1533862426153358,-3,-1,0,-1,0,-2,-1,-2
1533862426153358,-1,2,1,-2,0,1,-2,-2
1533862426166339,0,-1,-2,-1,3,-2,-4,-2
1533862426166339,-2,-2,-1,-1,-1,-2,0,-2
1533862426174305,0,-4,-3,0,3,-1,-4,-1
1533862426174305,1,1,8,3,-1,-1,1,1
1533862426189306,0,-2,-12,-2,5,-3,-2,1
1533862426189306,-3,1,0,-5,-8,-2,1,1
1533862426190260,0,-2,-6,-7,-4,0,2,0
1533862426190260,-1,-1,1,-5,-2,-2,-1,-1
1533862426212214,-3,-3,6,5,0,-2,-1,-1
1533862426212214,0,-1,-2,-2,3,2,-1,-1
1533862426213198,-2,-1,-1,-1,-2,1,-2,-2
1533862426213198,-2,-1,-4,-1,0,-2,-1,-3
1533862426235143,-1,-1,0,-1,4,0,1,-2
1533862426235143,2,1,-4,2,-6,-1,-1,3
1533862426235143,-1,2,2,-1,-5,-3,-1,-2
1533862426235143,-1,-3,-3,-5,-2,1,0,1
1533862426250099,-1,-1,0,-4,-2,0,-3,-1
1533862426250099,0,-2,3,3,1,-3,-3,-2
1533862426250099,0,0,-3,-3,5,2,2,1
1533862426250099,-1,-1,0,1,2,-1,1,1
1533862426272044,0,1,6,5,-3,-2,-3,-1
1533862426272044,-1,-1,-6,-5,3,-3,-1,-2
1533862426273038,-2,-2,-5,-8,-4,-3,-2,-1
1533862426273038,-1,-2,-3,4,-6,-3,-2,-2
1533862426294983,-1,0,2,0,-3,-3,0,1
1533862426294983,-1,-2,1,3,3,2,-1,-1
1533862426295988,0,-1,-1,-3,2,0,0,-2
1533862426295988,0,-1,1,-1,1,2,-1,-1
1533862426308945,-2,0,-2,3,5,2,-2,-1
1533862426308945,-2,0,0,-11,-8,-3,0,-1
1533862426309939,-2,0,5,11,-3,-5,-3,0
1533862426309939,-2,-3,-12,-10,-6,-2,-3,0
1533862426331884,0,-4,1,-2,-2,0,-1,-3
1533862426331884,-1,-1,-6,-3,4,3,2,-2
1533862426332877,-3,-1,1,0,2,-3,-3,-2
1533862426332877,1,-1,2,1,1,-2,2,1
1533862426354823,0,-1,-3,-1,2,3,0,-1
1533862426354823,1,0,2,5,-1,0,0,0
1533862426355827,-2,-1,0,-6,-9,-2,0,-1
1533862426355827,-4,-2,-4,-3,-2,-2,-2,-3
1533862426368785,-2,-1,-6,-9,-2,-2,-1,-2
1533862426368785,-2,-1,4,6,-7,-5,-1,-4
1533862426369779,-1,-2,-3,-2,-1,-1,-1,-1
1533862426369779,1,0,0,0,3,2,-1,-1
1533862426392718,0,0,2,5,6,3,1,2
1533862426392718,-1,-2,-3,-6,-12,-8,-3,-3
1533862426392718,0,0,-3,-9,-1,2,0,0
1533862426392718,-3,-3,1,10,-10,-9,-3,-2
1533862426414663,-1,-3,-3,-7,-4,1,-2,-2
1533862426414663,-1,-1,0,4,5,3,0,0
1533862426415656,0,0,-2,-1,4,-1,-2,-1
1533862426415656,-1,0,1,-4,-2,0,-2,-2
1533862426428622,0,-2,5,8,4,-1,0,-3
1533862426428622,-2,-3,-15,-16,-15,-9,0,0
1533862426429619,-2,-1,-1,-4,-4,0,0,-2
1533862426429619,-2,-3,-2,-4,3,-1,1,1
1533862426452562,-3,-1,-1,3,-5,-5,-3,-2
1533862426452562,-1,-2,3,2,8,5,-4,-2
1533862426452562,-1,-1,-3,2,0,2,1,1
1533862426452562,2,1,0,-3,1,1,0,-1
1533862426474499,0,-2,-3,-6,-3,1,-1,-3
1533862426474499,0,-2,1,4,3,3,1,1
1533862426475499,0,0,-1,-2,-10,-2,-4,-2
1533862426475499,-1,0,-1,-2,-3,-2,-1,1
1533862426489459,-2,-1,-2,-3,0,-4,-1,0
1533862426489459,-1,0,-1,-1,3,0,-1,-2
1533862426489459,1,-1,0,3,1,0,-2,0
1533862426489459,0,0,1,-1,5,3,-1,0
1533862426512398,0,-3,-2,-1,2,1,-1,-1
1533862426512398,0,1,1,-10,-14,-6,-1,-1
1533862426513396,-2,-3,-7,13,3,-6,-3,-3
1533862426513396,-2,-1,-2,-9,-17,-4,-1,0
1533862426535340,-3,-1,-4,-3,-1,3,2,-1
1533862426535340,-2,-1,3,5,8,3,0,-2
1533862426535340,-1,-3,1,-3,6,-1,-3,-1
1533862426535340,-1,-1,-1,-1,2,-3,-2,-2
1533862426549303,1,-1,0,3,-4,-1,1,1
1533862426549303,-2,-1,-4,-6,4,1,-1,1
1533862426550297,-2,-1,-4,-13,-5,-3,0,-2
1533862426550297,-1,-2,-6,-1,-1,-4,-4,-3
1533862426573235,-1,2,-1,-4,-6,-3,-1,-1
1533862426573235,-1,-2,-1,3,3,1,-1,1
1533862426573235,-1,-1,2,2,2,3,-1,1
1533862426573235,0,-3,0,1,4,1,1,0
1533862426595199,-1,-1,-5,-3,-5,-4,-1,-1
1533862426595199,0,0,4,1,-13,-7,-1,-2
1533862426595199,-2,-2,-13,-7,-7,-2,-1,-1
1533862426595199,-1,1,1,3,-2,-1,0,0
1533862426609139,0,-3,-1,0,5,0,-1,-1
1533862426609139,0,-2,0,3,9,5,2,-2
1533862426610147,-1,0,2,-4,-2,-1,2,-1
1533862426610147,-3,-1,0,-1,5,1,0,-2
1533862426632081,1,-2,-2,0,-7,-5,-2,-1
1533862426632081,-1,-2,-2,-8,-3,-6,-3,-2
1533862426633078,-1,-1,0,0,4,-2,-2,0
1533862426633078,-2,-2,0,0,-3,-1,1,-1
1533862426655020,-1,1,0,1,1,1,-1,1
1533862426655020,-1,-1,-1,0,3,1,-1,0
1533862426656034,1,-1,1,1,-9,-4,-3,-3
1533862426656034,0,-2,-2,-4,2,0,-1,0
1533862426668983,-2,-2,-1,-2,-1,-1,-1,-2
1533862426668983,-1,-2,0,2,-2,1,-1,0
1533862426669976,0,0,-1,-4,7,4,-2,1
1533862426669976,-1,-1,-3,-1,-2,-2,-4,-1
1533862426692124,-2,0,0,5,-18,-7,-1,0
1533862426692124,-2,0,-2,0,5,0,-1,-1
1533862426693002,-4,-2,2,-1,-9,-2,1,0
1533862426693002,0,1,-2,-6,3,1,-2,0
1533862426714857,0,0,8,10,6,1,-1,-2
1533862426714857,-2,-3,-12,-1,-2,-4,-2,-3
1533862426715854,2,0,-4,-16,-3,1,0,-2
1533862426715854,-3,-3,-2,-1,-1,0,1,-1
1533862426728819,-2,-2,-3,-7,-3,-3,-2,-1
1533862426728819,1,0,4,2,-2,-2,-3,-2
1533862426729844,-1,-1,2,4,-2,-1,1,0
1533862426729844,-1,-2,-3,-7,-5,-4,0,-4
1533862426751758,0,-2,-1,-2,0,-4,-1,-3
1533862426751758,-2,-2,2,-1,3,0,0,-1
1533862426752756,1,0,1,-2,5,2,2,3
1533862426752756,1,-1,0,3,0,-1,0,1
1533862426774700,-1,-2,-2,0,0,2,0,-1
1533862426774700,-3,-2,-2,-2,-4,-4,-1,-2
1533862426775693,-2,-1,1,9,1,2,-3,-4
1533862426775693,0,-1,0,-2,-4,1,-1,-1
1533862426804620,-4,-2,-2,-7,1,-4,-4,-3
1533862426804620,2,-1,-1,-3,-3,0,1,1
1533862426805613,-1,-1,-3,0,-16,-5,-1,-2
1533862426805613,-1,-2,-2,1,4,-1,-2,0
1533862426812595,-1,-2,-6,-6,-2,0,3,3
1533862426812595,-2,-1,1,-1,1,1,-2,-3
1533862426812595,-1,-2,-1,4,1,-2,-2,-2
1533862426812595,-4,-3,-4,-10,-3,-1,-1,-2
1533862426834536,-4,-2,1,1,2,-2,2,0
1533862426834536,-1,0,1,2,3,1,0,0
1533862426835533,-2,-1,-2,-3,2,-1,-2,1
1533862426835533,-1,-1,-2,1,-15,-8,-2,-3
1533862426848499,0,-1,-4,-6,5,-1,-1,-3
1533862426848499,0,2,-1,1,2,1,-1,0
1533862426858472,-2,1,0,3,2,0,-2,-2
1533862426858472,0,-2,1,-1,3,2,-1,0
1533862426872438,2,-2,-1,-2,-4,-5,-3,-1
1533862426872438,-1,-1,3,1,-5,-1,3,0
1533862426873432,-1,-2,-13,-3,3,0,-1,-1
1533862426873432,-1,1,0,0,3,-1,-4,-3
1533862426894380,-1,-1,-3,-7,-7,-4,0,0
1533862426894380,-1,-3,1,4,0,2,-1,-2
1533862426896390,0,-2,1,-1,4,-4,-2,-2
1533862426896390,-1,-1,0,-8,-8,-6,-1,0
1533862426908555,-2,-3,-1,8,-4,-1,-2,-2
1533862426908555,-1,-2,-4,-10,-10,-3,-2,-1
1533862426917315,-1,-3,2,3,5,0,0,-1
1533862426917315,-1,-1,0,6,8,3,-4,0
1533862426932281,-1,-1,0,-5,6,2,-3,-2
1533862426932281,1,-2,1,-1,-5,-5,-3,-2
1533862426934270,-2,-1,-1,0,-3,-3,-1,0
1533862426934270,-3,-2,-2,-1,-1,-3,1,-2
1533862426955216,-1,-2,-3,-3,-5,-1,1,-1
1533862426955216,-1,0,0,1,3,1,-2,1
1533862426956212,0,-2,1,0,0,-1,-3,-4
1533862426956212,2,1,0,0,1,1,-1,0
1533862426968182,-1,-3,-1,-1,2,1,0,-1
1533862426968182,-1,-1,4,-1,-5,0,-1,0
1533862426977155,-1,-2,-7,-11,-6,0,1,-1
1533862426977155,-2,0,1,5,-3,-3,1,-1
1533862426992216,-2,0,-2,-2,-4,-3,-4,-1
1533862426992216,-1,0,0,1,0,0,-2,-1
1533862426998100,1,-1,0,-1,1,0,0,-1
1533862426998100,-3,-4,-5,-7,-4,-1,-1,-2
1533862427015084,-1,-1,4,14,7,0,0,0
1533862427015084,-1,0,-3,-11,-2,0,0,2
1533862427016052,-1,-2,2,1,-3,-1,-2,0
1533862427016052,-1,0,-1,0,-8,-6,-2,-1
1533862427028198,-1,-1,-3,-7,0,-1,-1,0
1533862427028198,-1,0,-1,-1,2,-1,0,-1
1533862427036995,-2,0,2,3,5,1,0,-1
1533862427036995,-1,-1,4,-1,4,0,-1,-2
1533862427051955,-3,-3,-10,-10,-20,-5,0,0
1533862427051955,-2,-2,-3,5,-1,-1,0,0
1533862427053950,-1,0,-1,-2,-1,1,-3,0
1533862427053950,0,1,0,7,8,4,-1,-2
1533862427074893,-1,-1,2,0,0,-3,-3,-4
1533862427074893,0,-2,-4,0,5,-1,-2,-3
1533862427080880,-1,-1,-1,-1,-11,-2,1,0
1533862427080880,1,-2,-3,-6,-4,-3,-1,0
1533862427087863,-2,-1,2,3,3,0,-1,-2
1533862427087863,-1,-1,-3,-7,-4,-3,-2,0
1533862427097835,-2,-1,6,9,2,0,-1,-1
1533862427097835,-2,-2,-9,-6,-1,-2,0,0
1533862427111795,0,1,-2,-1,5,3,-1,-3
1533862427111795,-1,0,-2,0,6,-2,1,1
1533862427113792,-2,-1,2,-3,-15,-9,-1,-3
1533862427113792,0,-1,-8,-6,-6,-1,1,-1
1533862427134737,0,-1,-2,-4,-2,2,-1,0
1533862427134737,0,0,0,0,-2,1,-1,-2
1533862427136728,-2,-2,-2,-3,7,1,-2,-1
1533862427136728,-2,-2,3,2,7,3,1,0
1533862427157672,0,0,-1,-2,-5,-1,0,0
1533862427157672,-2,-1,-2,-2,-7,-4,-2,0
1533862427158683,-1,-2,2,2,1,-1,-2,-3
1533862427158683,0,0,-1,2,1,-2,-3,-2
1533862427172636,-2,-1,-2,-4,-2,0,1,1
1533862427172636,-2,-2,1,3,-1,0,0,1
1533862427173630,0,0,-4,-3,-1,0,0,-1
1533862427173630,-2,-2,1,1,1,-1,-4,-2
1533862427194577,-2,-1,0,-2,9,-1,-3,-1
1533862427194577,0,-1,-2,-8,-10,-4,-1,-2
1533862427196568,-2,-1,-3,-8,-2,-4,2,0
1533862427196568,-4,0,5,11,-11,1,1,0
1533862427217515,-2,-1,-6,-4,0,0,-3,-3
1533862427217515,-3,0,-1,2,1,1,-2,-2
1533862427218533,1,2,4,1,8,2,-2,-1
1533862427218533,-2,-5,-16,-12,-6,-4,-1,-1
1533862427232472,-1,0,3,2,-4,-2,1,0
1533862427232472,0,0,-1,-3,2,-3,-1,1
1533862427233470,-3,-3,-2,0,-6,-1,-1,-1
1533862427233470,0,-1,3,-1,4,0,-1,1
1533862427255411,-2,-1,0,-1,0,0,-1,-3
1533862427255411,-3,-3,-2,-2,0,-1,-1,-4
1533862427256407,-1,0,1,-4,0,-1,0,-1
1533862427256407,0,-1,-3,7,-1,0,-1,-2
1533862427277355,-1,-1,-5,-1,3,1,1,-1
1533862427277355,-1,-2,3,3,0,0,-1,0
1533862427279352,-1,-2,-5,-6,-6,0,-2,-1
1533862427279352,-2,1,4,2,3,0,2,1
1533862427292312,-4,-1,4,-2,-3,-3,-1,-2
1533862427292312,-2,-1,-9,-8,6,-3,-1,-3
1533862427294308,0,-1,-2,0,-15,-7,-4,-2
1533862427294308,-1,0,-1,-6,2,-1,-2,-2
1533862427314259,0,-2,2,4,2,-2,-1,-2
1533862427314259,0,-2,0,1,1,-1,-3,-2
1533862427321277,-2,-2,-5,-4,2,1,-2,-1
1533862427321277,-1,1,2,0,-3,-2,-2,1
1533862427337193,-2,-1,-1,-2,-5,0,-1,0
1533862427337193,-2,-1,-2,-2,-5,-1,-2,-1
1533862427339201,-1,-1,-3,-1,2,-1,-1,-2
1533862427339201,-2,0,-1,0,-1,-1,-2,-2
1533862427360134,1,0,-2,-5,-3,-3,-2,-2
1533862427360134,-4,0,-1,-1,-4,-1,1,0
1533862427361128,-1,-1,1,5,2,2,1,0
1533862427361128,0,-3,0,-5,3,1,-1,-1
1533862427375094,-2,-1,-5,1,2,1,-1,-1
1533862427375094,-2,-1,1,-1,1,-1,-2,-2
1533862427376088,-1,-2,-2,-3,-17,-3,-1,-1
1533862427376088,-2,0,0,-2,0,-2,0,-2
1533862427396036,-2,-1,-1,-8,-9,-5,0,0
1533862427396036,-1,1,0,12,5,5,0,-1
1533862427405011,1,-2,0,-8,3,-2,-1,-1
1533862427405011,-1,-1,-4,-5,0,0,-2,-1
1533862427411992,-1,-2,0,2,6,3,-2,-1
1533862427411992,-1,-1,-3,-6,-2,-5,-3,-1
1533862427418979,-2,1,0,1,-3,0,1,0
1533862427418979,0,0,3,4,-3,-1,-4,0
1533862427434936,-1,1,-4,-4,1,3,0,-1
1533862427434936,0,-2,0,-2,-3,-1,-1,-1
1533862427435928,-2,-1,-2,1,-1,-1,-3,-3
1533862427435928,0,-2,-2,-5,-7,-2,-1,-1
1533862427457869,1,-1,-1,3,-1,-1,-1,0
1533862427457869,0,-3,-3,0,0,-3,1,-2
1533862427458867,-1,-1,0,0,1,-2,-1,-1
1533862427458867,-1,-1,1,-3,-4,-2,-1,-2
1533862427471832,-3,-3,-10,-3,-4,-2,-2,-1
1533862427471832,-1,-1,-1,-3,-4,0,-4,0
1533862427486013,-2,-2,1,4,1,1,2,1
1533862427486013,-1,-2,-3,-3,5,1,-1,0
1533862427494817,-1,-1,1,2,-1,0,0,-2
1533862427494817,-1,-2,-3,-7,0,-6,-3,-2
1533862427496768,-3,-2,-2,-4,-13,-5,-2,-1
1533862427496768,0,0,0,-1,0,1,0,0
1533862427517712,0,-1,0,0,0,-3,-1,1
1533862427517712,-1,-2,-2,1,-9,3,1,-2
1533862427518708,0,-1,-2,-1,5,-2,-5,-1
1533862427518708,-3,-1,0,5,-3,-2,-1,-1
1533862427539651,-1,0,-2,-1,4,-1,-1,-2
1533862427539651,1,2,2,-2,2,2,-1,1
1533862427541645,-1,-3,0,7,6,-2,-2,-2
1533862427541645,-1,-3,-6,-14,-11,-4,-2,-1
1533862427553616,-1,-1,9,6,-10,-6,-2,1
1533862427553616,-3,-1,-12,-7,-1,2,0,-2
1533862427562589,0,1,-1,-1,2,1,0,-1
1533862427562589,0,-2,-1,3,4,0,-1,-2
1533862427577549,-1,-1,-2,-4,8,0,-1,-2
1533862427577549,-1,-2,7,2,-4,-6,-1,-1
1533862427578546,-1,-2,-9,-10,-11,-2,-1,0
1533862427578546,-3,0,0,-1,1,0,-4,-1
1533862427591515,-1,-1,0,-3,-3,-4,-1,-1
1533862427591515,1,1,0,2,3,2,-2,0
1533862427598494,0,-1,-1,1,7,1,-4,-1
1533862427598494,-1,0,0,-1,-4,-2,2,0
1533862427614467,-2,-3,-3,1,-2,-2,-2,-1
1533862427614467,-1,-1,-3,1,7,0,-3,-2
1533862427616447,0,1,0,-4,-5,-3,-1,0
1533862427616447,-2,-2,1,5,-11,-7,0,-4
1533862427637398,0,-1,1,-2,0,2,-1,0
1533862427637398,-2,-3,-5,-2,-4,0,2,-1
1533862427639383,-2,-2,0,-2,11,0,0,-2
1533862427639383,0,0,0,-1,-13,-4,-1,0
1533862427651355,-1,0,0,0,-1,0,-1,-1
1533862427651355,-3,-2,2,5,5,1,-1,0
1533862427660329,-2,-2,-2,-4,1,-1,-2,-1
1533862427660329,-2,0,2,-4,-8,-2,0,0
1533862427675288,-4,-2,-3,-5,-5,-3,-1,-1
1533862427675288,-2,0,1,2,-5,-3,-3,-1
1533862427676288,0,0,-1,6,5,1,0,0
1533862427676288,1,0,0,2,5,0,-5,-3
1533862427697229,-1,-1,-2,-4,-2,-2,-1,1
1533862427697229,0,0,0,-8,1,1,2,1
1533862427699246,-1,-1,3,14,-6,-5,-1,-1
1533862427699246,-3,-3,-4,-5,2,-1,-1,-2
1533862427711193,-2,-1,-3,0,0,0,-1,-3
1533862427711193,-1,-1,-1,-3,0,-1,0,-1
1533862427720168,-1,-1,-2,-5,-5,-4,-1,-3
1533862427720168,1,-1,1,-4,0,6,0,0
1533862427735131,2,-1,3,9,6,0,-4,-2
1533862427735131,-1,-2,0,-3,-16,-7,2,1
1533862427736125,-2,0,-1,-7,-3,0,-4,-2
1533862427736125,-3,-1,-3,4,5,1,0,-3
1533862427757073,1,-1,1,-4,0,2,2,2
1533862427757073,-1,1,-2,3,6,3,1,0
1533862427759064,0,-2,-5,-7,-3,-1,0,-3
1533862427759064,0,0,0,1,-4,-5,-1,-1
1533862427771031,-2,-3,-1,-3,-13,-8,-5,-4
1533862427771031,-2,-2,-1,0,-4,-2,-3,-3
1533862427780031,-1,0,-2,-3,7,4,4,2
1533862427780031,0,-1,2,2,7,1,-3,-1
1533862427794968,-1,0,-3,-3,6,1,-1,-1
1533862427794968,-1,0,4,2,-7,-6,-2,-1
1533862427800955,0,-2,-12,-6,-4,1,-3,-2
1533862427800955,-1,-2,-2,-4,3,-1,-1,-2
1533862427816912,-2,-2,-5,-4,-5,1,-1,-2
1533862427816912,-1,-3,1,1,2,0,-2,-1
1533862427818904,-1,-1,3,1,-1,0,1,-2
1533862427818904,-2,-2,-2,-1,0,-4,-2,-1
1533862427830876,-1,-1,0,0,0,0,1,0
1533862427830876,-3,-1,-2,-4,-8,-3,0,-2
1533862427839847,-3,-2,1,-3,0,-1,-2,-1
1533862427839847,0,-1,-2,5,5,2,2,0
1533862427854807,-2,0,-1,-4,-8,-6,-1,-3
1533862427854807,0,-1,-4,-1,1,1,-1,0
1533862427856802,0,0,3,4,6,3,2,0
1533862427856802,-1,-2,3,-10,-12,-1,-2,-1
1533862427877746,-2,-2,-6,-1,2,-1,-3,-3
1533862427877746,-1,-2,-4,-7,-1,-3,-2,-3
1533862427878744,1,0,-2,-2,0,0,0,0
1533862427878744,-2,-1,-2,2,5,1,0,-1
1533862427890715,-2,0,3,4,-3,-2,-1,-1
1533862427890715,-2,-3,-7,-5,0,-2,0,-2
1533862427899691,-1,-1,0,-1,-3,0,-1,0
1533862427899691,-3,-2,-2,-1,-2,-3,-4,-2
1533862427915660,-1,1,-1,-2,-1,-2,1,1
1533862427915660,-2,-1,-1,1,-5,0,-2,1
1533862427916647,-2,0,0,1,3,0,-2,-1
1533862427916647,-2,-1,-3,-3,3,2,1,0
1533862427937589,1,0,1,3,-5,-3,-2,-2
1533862427937589,-1,0,0,4,5,-2,-1,0
1533862427938584,-2,-2,-1,-3,-6,-4,-2,-2
1533862427938584,-1,-2,-2,-3,-3,-1,-3,-2
1533862427950556,0,-4,-2,-4,2,1,1,1
1533862427950556,0,0,1,1,-2,0,0,0
1533862427959531,-3,0,4,7,-2,-3,-2,-2
1533862427959531,-1,0,-5,0,2,-2,0,-2
1533862427974490,-1,-1,-2,0,-1,0,0,-2
1533862427974490,0,0,0,-3,-2,0,-3,1
1533862427976493,-1,-1,0,-5,-2,-1,-2,0
1533862427976493,-2,-1,-3,-2,0,3,-2,-2
1533862427997427,-4,-1,-2,0,-1,-2,-1,-1
1533862427997427,0,-2,0,0,4,0,0,-1
1533862427998426,0,0,5,7,-12,-5,-3,0
1533862427998426,-1,-3,-5,-8,-5,-6,1,-1
1533862428011393,-2,0,-1,-2,1,1,-4,-1
1533862428011393,-1,-2,1,-1,5,3,2,-3
1533862428019368,-2,-1,-3,-4,-1,-2,-4,-2
1533862428019368,-1,0,0,-3,-5,-1,1,1
1533862428034404,2,-1,-1,-5,-1,-2,-3,-3
1533862428034404,-2,-3,0,3,1,-4,-1,-1
1533862428036398,-1,-2,-6,-2,8,3,4,1
1533862428036398,1,-1,2,-2,-13,-4,1,0
1533862428057346,-1,0,-1,-2,-1,1,-2,0
1533862428057346,-1,1,1,-2,-6,-2,-2,-2
1533862428059342,-1,-1,-5,-5,-4,0,0,-3
1533862428059342,-2,-2,-1,3,10,-1,-1,-3
1533862428071308,0,-1,2,3,-2,-2,1,1
1533862428071308,1,-2,-5,-7,1,0,-3,-2
1533862428080280,1,1,4,9,0,-4,-2,0
1533862428080280,-2,-2,-7,-4,-5,-2,0,-2
1533862428095240,-3,-2,0,2,1,-1,0,-1
1533862428095240,0,-2,-1,-1,3,1,0,-2
1533862428096252,1,-1,-3,-4,-2,1,2,-1
1533862428096252,-1,0,3,5,3,0,-5,-3
1533862428117183,-1,-1,-2,0,-3,1,-1,0
1533862428117183,-1,-1,-5,-4,-2,-2,-3,-1
1533862428119177,0,-1,-2,-3,0,-2,-3,-1
1533862428119177,-1,-1,5,4,3,-1,0,0
1533862428140124,0,-3,-9,-6,-6,-3,-1,-3
1533862428140124,0,0,1,0,0,-2,0,-2
1533862428141123,-2,0,-1,-8,-3,1,0,-1
1533862428141123,0,0,-5,-1,-3,2,-4,-1
1533862428155086,-2,0,1,0,3,0,0,1
1533862428155086,-3,-1,0,-1,-3,-1,0,-1
1533862428156078,0,-3,-4,-3,3,-1,-1,-2
1533862428156078,-1,-1,-2,-2,-6,-3,-3,-3
1533862428177040,-1,0,-1,3,2,1,-1,-1
1533862428177040,-3,-2,-3,-5,-7,-1,-1,0
1533862428179018,-1,0,-3,-3,-1,3,2,1
1533862428179018,-2,1,2,4,1,1,0,-2
1533862428199965,-3,0,0,2,2,-4,-1,-2
1533862428199965,0,0,0,1,0,-1,-2,0
1533862428200958,-2,-1,0,-1,-1,-1,-3,-1
1533862428200958,-1,-4,-13,-16,-6,-1,-1,0
1533862428214920,0,-2,0,0,-5,-5,-2,-1
1533862428214920,-1,0,2,1,7,-1,-2,-3
1533862428215918,-4,1,2,2,-1,-1,1,0
1533862428215918,-1,-1,-1,-4,-1,2,1,-1
1533862428236867,-1,-2,0,-7,2,3,1,1
1533862428236867,0,0,-2,-2,-2,-4,-4,-1
1533862428238856,0,0,-3,-2,0,-3,-2,-2
1533862428238856,0,0,3,5,1,0,2,0
1533862428259804,0,-1,-2,-3,-2,-2,-1,-1
1533862428259804,-3,-1,-4,1,-2,-3,-3,-1
1533862428261814,0,-2,-3,-2,-2,-3,-3,-3
1533862428261814,-1,0,-1,3,7,3,2,1
1533862428273766,-1,-2,-2,-4,-7,-7,-4,-1
1533862428273766,0,-3,-1,-1,-7,-1,-1,0
1533862428281742,-2,0,0,-2,2,-2,-1,0
1533862428281742,-1,0,-1,-3,0,-2,-1,0
1533862428297700,-1,-2,2,9,-1,-2,0,-4
1533862428297700,-1,-3,-4,-5,-3,-1,2,1
1533862428298697,0,-1,2,3,3,1,0,-1
1533862428298697,-1,-2,-3,-7,-12,-5,-1,-1
1533862428319641,-1,3,2,2,2,0,-2,-2
1533862428319641,0,-1,0,-1,-2,1,0,0
1533862428321635,-2,-3,-5,0,-2,-1,-3,-1
1533862428321635,-2,-1,1,0,3,0,0,0
1533862428334601,-1,0,-1,-2,-1,0,-1,-1
1533862428334601,-2,-1,1,3,0,-3,0,-2
1533862428340588,-1,1,2,6,0,1,0,-2
1533862428340588,0,-2,-4,-13,-4,-7,-1,-4
1533862428357542,-2,-2,-7,-8,-11,-2,-2,-2
1533862428357542,0,0,-2,1,6,1,-1,0
1533862428358537,-1,-2,-2,-3,-2,0,-1,2
1533862428358537,-3,2,1,6,6,0,0,-4
1533862428379506,0,-1,-2,2,3,-1,-1,-1
1533862428379506,-1,-1,-2,-4,-11,-3,-5,-1
1533862428381475,-1,-3,-2,-7,-5,-1,1,1
1533862428381475,-1,-2,1,4,-3,-1,-4,0
1533862428394444,-3,-2,-4,-6,2,1,0,-2
1533862428394444,-1,0,0,9,3,1,-2,-3
1533862428401425,0,0,-1,-2,9,-3,-1,-2
1533862428401425,-2,-1,4,2,-9,-5,1,-1
1533862428417382,-2,-3,-12,-7,-1,-2,-1,-1
1533862428417382,-2,-2,0,-2,2,3,1,-1
1533862428418376,0,-1,-4,-5,-3,-3,-3,-2
1533862428418376,1,-3,3,6,-1,0,-2,-2
1533862428440321,-1,-1,0,-2,-1,-3,-1,-1
1533862428440321,-1,0,-2,-4,-3,-5,-6,-1
1533862428441315,0,-1,-3,0,3,5,4,2
1533862428441315,-1,0,0,4,2,-1,0,-1
1533862428454281,-1,-1,0,3,-3,-1,-2,-3
1533862428454281,-2,-2,-3,-1,-1,1,5,1
1533862428461262,-2,0,-2,-3,-2,0,-3,-1
1533862428461262,0,-1,2,1,-2,-2,-2,0
1533862428477223,-1,-1,1,-1,-6,-4,-2,-1
1533862428477223,-2,-1,-3,-4,-4,-3,-1,-3
1533862428479215,-1,-2,0,0,-3,-2,0,-1
1533862428479215,-2,-2,-2,-1,2,1,-2,-2
1533862428500158,-1,-1,-1,-2,-5,0,1,0
1533862428500158,1,1,-1,-2,1,-2,-2,0
1533862428501155,-3,0,0,-2,-11,-3,-2,-1
1533862428501155,-3,-1,-3,-3,4,1,-3,-2
1533862428522103,1,-2,-1,1,6,2,0,0
1533862428522103,1,1,0,-3,0,1,2,0
1533862428524097,-1,-2,0,3,0,-2,-2,-2
1533862428524097,0,-1,0,-4,-2,-2,-3,-1
1533862428537059,-1,1,1,-2,-3,-2,-2,-2
1533862428537059,-2,-2,-3,-3,-1,1,2,-2
1533862428539055,0,-1,-1,-1,1,-3,-4,-2
1533862428539055,0,-1,-2,1,0,-3,-1,1
1533862428560001,0,2,0,-3,-2,2,0,3
1533862428560001,-1,0,1,0,-3,-1,-1,0
1533862428560995,0,-2,-1,-1,1,-1,-1,-3
1533862428560995,-3,-3,-4,-2,-7,-3,0,-2
1533862428574096,-4,-3,-2,1,1,-3,-2,-4
1533862428574096,-1,-1,3,3,-2,-4,-2,-1
1533862428580942,0,-2,0,-1,1,2,-1,-1
1533862428580942,-1,-1,-11,-6,-4,0,1,-1
1533862428596899,-1,-2,0,0,5,-1,-1,-1
1533862428596899,1,-2,-2,-2,-1,0,-2,0
1533862428602883,-1,-1,-2,2,0,-1,-1,-1
1533862428602883,0,-1,0,-6,1,-1,0,0
1533862428619837,-1,-2,-1,2,0,1,-1,0
1533862428619837,-1,-2,0,2,1,-3,0,-3
1533862428621836,-4,-1,-1,-3,-6,-5,-1,-1
1533862428621836,-2,-2,-1,0,3,1,-2,-2
1533862428633800,1,-2,-3,-1,-1,1,1,-2
1533862428633800,-2,-4,-1,-3,-6,-4,-2,-1
1533862428642777,-2,0,-2,-4,-1,0,0,0
1533862428642777,0,1,2,2,-3,-1,-3,-2
1533862428657740,-1,0,1,3,6,0,0,0
1533862428657740,-3,0,2,-6,-5,2,1,2
1533862428658733,-2,-1,1,-1,-4,-6,-1,-1
1533862428658733,0,-2,-8,-2,-9,-6,-3,2
1533862428679677,-2,0,2,-2,-2,-3,-2,0
1533862428679677,0,0,-2,1,-6,-2,-3,-2
1533862428681672,0,-1,-1,-3,-1,1,0,-1
1533862428681672,-1,1,2,3,6,4,-3,0
1533862428693847,-1,-1,3,5,-2,0,0,-2
1533862428693847,-1,-1,-4,-1,3,-2,0,-2
1533862428702616,-1,-3,-4,-3,-9,-5,-4,-2
1533862428702616,-1,0,4,-3,1,0,0,0
1533862428717577,-1,-2,-3,-5,-6,-1,-1,0
1533862428717577,-2,0,0,0,1,-1,-1,-1
1533862428718574,-1,0,-5,-4,1,1,-1,-2
1533862428718574,0,-2,1,1,3,3,3,0
1533862428747514,-2,-1,0,0,1,1,0,-1
1533862428747514,-1,-1,0,-3,-9,-6,-4,-2
1533862428748493,-1,-1,1,0,0,-1,0,1
1533862428748493,-2,-2,-8,-1,0,0,-1,-3
1533862428753484,-1,-2,-1,-2,1,-2,-1,-1
1533862428753484,-2,-2,-4,-3,-5,-1,-2,-2
1533862428762457,-1,-1,1,5,-2,-3,2,-3
1533862428762457,0,3,6,-2,3,3,1,-1
1533862428777420,-1,-4,-10,1,5,-1,-1,-2
1533862428777420,-1,-2,-4,-6,-3,-8,-3,-1
1533862428778421,-1,-2,-3,-7,-19,-4,-3,-1
1533862428778421,-2,-3,-1,1,-3,1,0,-1
1533862428800358,-1,1,-1,-4,0,-1,-3,-1
1533862428800358,0,-2,2,3,5,3,0,-1
1533862428801352,-1,-2,-1,3,7,0,-1,-2
1533862428801352,-1,-1,0,-2,4,-1,-1,-1
1533862428813320,1,1,6,-2,0,-2,-2,-1
1533862428813320,-3,-2,-4,-3,-9,-1,0,-1
1533862428822297,-2,-1,3,-1,2,-1,-2,0
1533862428822297,-1,0,-2,3,-4,-3,-3,-3
1533862428837256,-1,-2,2,-3,-6,1,0,-1
1533862428837256,0,-2,-1,1,7,1,0,-2
1533862428839251,-2,-1,1,2,7,3,1,0
1533862428839251,0,-2,-4,-12,-2,-3,-3,-2
1533862428860197,-2,0,0,9,2,1,0,-1
1533862428860197,-1,0,-2,-6,-9,0,1,0
1533862428861204,-2,-1,-2,1,-2,0,-1,0
1533862428861204,-1,0,-2,1,2,-4,-2,-2
1533862428873161,-3,-3,-3,-7,-4,-4,-3,-3
1533862428873161,0,-1,0,2,2,-2,-4,-1
1533862428882140,0,-1,-2,-8,-9,-3,-1,-1
1533862428882140,-1,0,8,9,-1,-3,-5,-1
1533862428897096,0,-1,-12,-7,-14,-4,2,-2
1533862428897096,0,-1,-1,0,8,0,0,-1
1533862428899091,-2,-2,-2,-2,4,2,0,-1
1533862428899091,-2,-2,2,-2,0,2,5,1
1533862428920038,-1,-3,1,-1,0,1,0,1
1533862428920038,0,0,0,2,3,-2,0,0
1533862428921032,-2,-1,-6,-7,-6,-2,-1,0
1533862428921032,-1,-3,-3,-4,-3,-3,-1,-1
1533862428934001,0,-3,3,-2,-8,-5,-3,-2
1533862428934001,-2,0,-4,-1,2,0,0,-2
1533862428941980,1,-1,1,2,2,-2,-1,-2
1533862428941980,0,-1,-1,3,-1,0,0,-1
1533862428957068,-2,-1,-3,-2,3,1,-1,-2
1533862428957068,-3,-1,-2,-6,-2,-5,-2,-1
1533862428958931,0,0,0,-1,-1,1,-1,0
1533862428958931,0,-1,2,4,-11,-4,0,0
1533862428979875,-2,0,-8,-3,-1,-2,-4,-1
1533862428979875,-1,-2,-2,-1,2,1,-1,-1
1533862428980872,0,0,3,3,8,-1,0,-2
1533862428980872,-1,-3,-8,-5,5,-3,-2,0
1533862428993872,1,-2,0,-6,-4,-1,0,2
1533862428993872,-1,-1,1,3,-10,-2,2,1
1533862429002834,-1,-1,-2,-5,-2,1,-1,1
1533862429002834,-3,-1,2,9,0,2,-3,-1
1533862429024755,0,-1,0,0,6,-2,-3,-1
1533862429024755,0,-1,0,-1,5,-1,-1,-2
1533862429026750,-1,-2,-6,-4,-4,-4,-2,-1
1533862429026750,0,-1,-1,-1,-2,-2,0,-3
1533862429039718,-1,0,0,-6,-3,-2,1,0
1533862429039718,-1,-1,2,5,1,0,1,0
1533862429041710,0,1,5,2,2,3,-4,0
1533862429041710,0,-2,-7,-8,-1,1,0,0
1533862429062661,-2,-2,1,4,1,-1,-3,-3
1533862429062661,-1,-3,-1,-4,0,-2,-1,0
1533862429063661,0,-3,-1,-2,-1,-1,1,0
1533862429063661,-2,1,-2,-6,-6,-2,-2,1
1533862429077616,-2,2,5,7,0,-2,-1,0
1533862429077616,-3,-2,-5,-6,-4,-3,-1,-2
1533862429078610,-1,-1,-2,1,4,-1,-1,-4
1533862429078610,-1,-1,0,0,-4,-2,-1,-1
1533862429099565,-1,-3,-3,-1,0,-1,-1,-1
1533862429099565,0,0,-1,-6,4,0,-2,0
1533862429101551,-2,-1,-4,-1,-4,-3,-3,0
1533862429101551,-2,-1,-2,-1,0,-1,1,-1
1533862429122493,0,1,2,-2,-3,1,-3,-1
1533862429122493,1,1,0,-1,-1,2,-1,-3
1533862429123491,-2,-1,1,0,-2,-3,0,-2
1533862429123491,-1,-1,4,-1,3,2,-2,0
1533862429137457,-2,-2,-8,1,-2,-2,-2,-3
1533862429137457,-1,0,1,-1,0,-3,-1,1
1533862429138451,-1,0,-3,-1,-10,-5,2,1
1533862429138451,-1,-1,1,-1,-5,-1,-1,0
1533862429159612,-1,-1,0,2,0,-1,1,-1
1533862429159612,-1,-3,-2,-4,4,0,-1,-2
1533862429161405,-1,-1,0,3,3,-2,-6,-2
1533862429161405,0,-1,-4,4,-1,-1,0,-1
1533862429182345,0,-1,-1,-8,-2,-1,1,-2
1533862429182345,0,0,2,10,-1,1,-3,-1
1533862429184328,-1,-1,1,-3,-5,-3,-2,3
1533862429184328,-2,-2,-2,-2,-1,-1,-2,-1
1533862429196305,-2,0,0,-2,0,-1,0,-2
1533862429196305,-1,-1,1,1,-4,1,-2,1
1533862429203496,-2,-2,-3,-6,-5,-1,-1,-1
1533862429203496,-3,-2,1,2,2,-2,-2,-1
1533862429220232,1,0,5,3,-6,-5,-4,-1
1533862429220232,-2,-4,-9,-6,1,0,2,-1
1533862429221229,0,-1,-2,2,5,3,3,0
1533862429221229,0,-1,0,-3,3,0,0,-1
1533862429242177,-1,-3,1,-3,-2,-2,0,-1
1533862429242177,-1,1,2,1,-6,-2,-1,-1
1533862429244168,0,-2,-2,-3,-2,-2,-4,-3
1533862429244168,0,-2,-1,-2,0,-1,2,-1
1533862429256138,-1,0,-1,-1,-3,-4,-6,-2
1533862429256138,1,-1,-3,-2,2,3,-1,-2
1533862429263118,1,-2,-1,0,7,0,0,-1
1533862429263118,0,-1,-1,-2,-4,-3,2,1
1533862429280073,-1,-2,-2,-2,1,1,0,0
1533862429280073,-1,-1,-1,-2,-8,-3,-4,-2
1533862429281073,-2,-1,0,-1,-3,-1,0,-2
1533862429281073,-1,0,-2,4,4,1,-2,-2
1533862429303010,-3,-1,-2,-5,-1,-2,2,1
1533862429303010,1,-1,-3,-2,-3,-1,-1,-2
1533862429304008,-2,-1,-3,1,3,-1,-1,-3
1533862429304008,-1,-2,1,-5,-8,-4,-1,-3
1533862429316977,0,-1,-9,-2,1,1,-2,-1
1533862429316977,-3,-2,2,-2,-7,-4,1,-1
1533862429323959,-1,-1,-2,-3,3,-1,-2,0
1533862429323959,-1,-2,-3,0,3,0,-5,-3
1533862429339912,0,0,0,-2,2,0,0,-1
1533862429339912,-2,0,1,5,-4,-1,0,0
1533862429340909,-1,-1,-2,-2,-6,-1,0,-3
1533862429340909,-1,1,-1,-2,-3,-2,-2,-2
1533862429361853,0,1,1,0,6,3,6,1
1533862429361853,-2,-2,-2,-4,-4,-6,-3,-4
1533862429363848,1,-1,1,2,-3,-3,0,-2
1533862429363848,0,-1,-2,0,2,1,-1,-1
1533862429376847,-2,-1,0,0,-5,-1,-4,-1
1533862429376847,1,-3,-3,-4,2,-3,2,-1
1533862429383821,-2,-1,0,1,-2,0,0,0
1533862429383821,-3,0,0,-1,-2,-2,-3,-2
1533862429399755,-2,-4,-1,0,4,0,-1,-2
1533862429399755,0,-1,-2,-1,-6,-3,-2,-2
1533862429401747,-1,-2,-1,-1,0,-1,-3,-3
1533862429401747,-1,1,-1,-3,-7,-6,-5,0
1533862429422690,1,-1,-1,-1,-6,-1,2,1
1533862429422690,-2,0,2,1,1,0,-1,1
1533862429423687,-3,-2,0,-5,2,0,0,-1
1533862429423687,0,-1,-2,-3,-2,-3,-4,-3
1533862429436654,-1,-2,-3,-2,-3,-4,-5,-1
1533862429436654,0,1,1,3,7,3,-5,0
1533862429443635,0,-1,0,3,3,-3,1,0
1533862429443635,-2,-5,-7,-5,3,3,1,-1
1533862429459593,-3,-2,-2,-5,-22,-8,-3,-2
1533862429459593,-1,-2,-2,-6,1,-1,2,-3
1533862429461587,2,2,4,2,6,6,-1,0
1533862429461587,0,2,3,-5,0,-1,3,1
1533862429482531,-3,-4,-8,0,-4,-6,-5,-5
1533862429482531,-1,-3,-4,-3,-6,-1,2,2
1533862429483528,-2,-3,-3,5,0,1,-2,-1
1533862429483528,-1,0,-2,7,13,5,1,-3
1533862429496507,1,0,0,-5,-4,-8,-3,-2
1533862429496507,1,2,5,-11,-5,2,-6,0
1533862429504473,-3,-5,-8,-2,0,-2,-1,-2
1533862429504473,1,1,5,-1,0,2,0,2
1533862429519466,-4,-4,-6,3,-6,0,-2,-3
1533862429519466,-2,0,1,2,13,0,2,-1
1533862429521439,-2,-1,-1,0,-5,0,5,1
1533862429521439,-1,1,3,4,11,3,-4,-4
1533862429542406,2,0,0,-1,9,4,0,0
1533862429542406,-1,0,4,-2,-22,-5,0,1
1533862429543377,-2,-1,-6,4,-2,-3,-1,-3
1533862429543377,-1,0,2,6,-5,2,4,0
1533862429556333,0,-1,-1,-3,15,-2,0,-2
1533862429556333,-1,-3,-3,8,12,6,-2,-1
1533862429571293,-2,2,2,1,-8,-7,-7,-2
1533862429571293,-2,-4,-5,0,-8,-8,-6,-4
1533862429580269,1,2,3,0,18,11,7,4
1533862429580269,-2,1,3,14,7,-6,-1,1
1533862429581267,-2,-6,-11,-20,-38,-15,-1,0
1533862429581267,-2,-2,-1,-8,-13,1,-3,-2
1533862429602210,0,2,5,3,4,1,-4,-3
1533862429602210,0,-1,-1,-2,8,3,-2,-2
1533862429604206,0,1,7,11,17,7,2,0
1533862429604206,-1,-2,-5,-3,-17,-10,0,-2
1533862429625149,-2,-3,-4,2,6,0,-1,-3
1533862429625149,-2,-1,-4,-1,4,5,1,2
1533862429626146,2,2,8,-9,0,-1,2,-2
1533862429626146,-3,-5,-11,-3,-3,-3,1,-2
1533862429640110,-1,-1,2,0,-7,-7,-8,-6
1533862429640110,-3,-3,-12,0,-14,0,-1,2
1533862429641106,0,0,2,-20,-8,-4,-4,2
1533862429641106,-1,-1,2,6,13,7,2,1
1533862429662052,-2,1,3,-2,-9,-1,5,0
1533862429662052,0,-3,-1,2,-4,-12,-2,-4
1533862429664046,3,0,-2,-21,5,0,-3,-2
1533862429664046,-1,0,-2,-5,-15,-5,-2,-2
1533862429676053,-2,-1,0,-1,-1,2,0,1
1533862429676053,-2,1,-2,2,5,5,3,-1
1533862429684990,0,0,3,6,-1,6,1,2
1533862429684990,-3,-1,1,0,-1,-6,-2,0
1533862429699950,1,-2,-2,-8,-8,1,4,-1
1533862429699950,-1,-1,4,-3,-16,-10,-2,-3
1533862429700948,-1,1,7,4,22,6,-3,-3
1533862429700948,-2,-3,-5,-2,-3,-2,-4,-1
1533862429721891,1,-2,-4,1,-20,-8,0,2
1533862429721891,-1,-1,-2,-4,8,3,0,1
1533862429723898,-1,0,0,3,-4,-3,-2,0
1533862429723898,0,1,1,-1,9,-1,-2,-1
1533862429735893,-1,0,1,0,9,4,-1,0
1533862429735893,-2,-2,-6,-8,-13,-5,-3,-7
1533862429744830,-2,-2,-6,12,5,2,-4,-6
1533862429744830,0,1,5,-1,6,4,2,3
1533862429759790,-3,0,-10,-3,-12,-2,1,-1
1533862429759790,0,-2,2,2,-9,0,1,-3
1533862429761787,-1,-2,-5,4,-7,-6,-2,-4
1533862429761787,1,0,-2,-8,-9,-6,-1,-3
1533862429782731,-4,-2,-6,5,16,1,-1,-1
1533862429782731,0,0,0,4,-1,1,-4,2
1533862429783729,-1,-3,-2,-8,-2,0,2,1
1533862429783729,0,1,8,4,14,7,6,2
1533862429795695,-4,-3,2,-4,-13,-3,-4,-1
1533862429795695,-1,0,3,0,-3,-6,-5,-2
1533862429804669,-3,-2,-3,-4,1,3,-5,2
1533862429804669,0,1,1,6,11,7,0,2
1533862429827608,-2,1,1,7,-1,5,4,-2
1533862429827608,-3,-2,-1,-10,-23,-8,0,-2
1533862429828605,-3,-4,-6,-5,7,1,-3,-5
1533862429828605,-2,0,0,-5,-22,-11,-5,-5
1533862429841570,0,2,5,0,22,0,-8,-1
1533862429841570,1,0,-5,5,19,6,0,1
1533862429848551,-2,-1,-11,1,-17,-6,0,-3
1533862429848551,-1,0,-7,4,0,0,-2,-2
1533862429855533,2,3,9,-4,-3,-4,-1,-2
1533862429855533,-3,0,-3,2,10,1,3,0
1533862429864545,-1,-3,0,-14,-10,2,3,3
1533862429864545,-3,-4,14,-1,-2,-5,-5,-2
1533862429879497,-1,-3,11,0,-18,-5,0,-1
1533862429879497,1,-4,0,-12,12,-4,-2,-2
1533862429885475,3,0,3,15,-9,-2,2,3
1533862429885475,-2,-4,-21,-12,15,2,1,-1
1533862429902447,-2,-2,-10,5,-3,-2,-4,-3
1533862429902447,-4,-2,-7,-2,-2,-2,-1,-3
1533862429903405,-3,-1,-8,17,3,-4,-4,-1
1533862429903405,0,-1,-23,-8,-14,1,-4,0
1533862429916412,-1,-2,-1,3,4,2,0,1
1533862429916412,-2,-5,21,-10,-4,-1,-2,-3
1533862429925347,-1,1,14,-1,-12,-8,-2,-6
1533862429925347,1,-1,10,0,-7,-6,-5,-5
1533862429939316,0,-4,-11,-6,14,9,8,9
1533862429939316,-2,-1,-3,9,-4,0,-1,-1
1533862429946291,-3,-5,6,-15,-13,-5,-2,0
1533862429946291,-1,-1,-11,0,-3,0,0,-1
1533862429962248,-5,-3,-3,3,-13,-6,-4,-6
1533862429962248,0,-1,10,7,22,6,2,0
1533862429964256,0,0,8,3,13,4,1,0
1533862429964256,-1,-1,0,-6,-13,-5,1,-3
1533862429985186,-2,-4,-7,-1,10,0,-4,-4
1533862429985186,4,4,16,2,-11,-3,-13,8
1533862429986200,-3,1,26,-1,8,2,-1,-3
1533862429986200,-2,1,-10,3,-2,1,2,-3
1533862429999158,0,-2,-7,-3,-20,-9,-5,-4
1533862429999158,0,-3,-3,-12,28,4,-2,-1
1533862430006131,-1,-2,10,-4,-10,3,1,2
1533862430006131,-3,-2,-7,-1,7,-2,-3,-2
1533862430022089,0,0,43,1,-15,-3,-1,-3
1533862430022089,-1,1,14,2,0,-4,-2,-4
1533862430024084,1,-1,-31,2,6,8,-2,3
1533862430024084,-1,-2,105,-6,-11,-5,2,0
1533862430044030,2,-1,71,-4,-3,-2,-1,0
1533862430044030,-2,-5,-13,0,-16,-6,1,-4
1533862430052007,0,-3,-24,2,24,2,-6,-2
1533862430052007,-3,-4,-31,-5,-1,0,-3,-1
1533862430058988,-3,-2,-92,-6,-4,-5,0,0
1533862430058988,-4,-5,-25,-5,-22,-3,2,0
1533862430065996,-2,-3,-24,-3,1,-1,0,-3
1533862430065996,-1,0,-23,6,8,-2,-4,1
1533862430081928,-3,-3,-30,2,24,7,0,1
1533862430081928,-5,-9,-51,-4,-10,-5,1,-6
1533862430083922,0,-1,-14,2,-9,-5,1,0
1533862430083922,-1,-1,-41,1,3,4,-1,0
1533862430104867,0,-3,17,1,-15,-5,-3,-2
1533862430104867,2,4,10,0,16,4,-2,-2
1533862430105893,-4,-3,-39,-4,-12,-8,-7,-3
1533862430105893,-2,-2,-6,-1,11,1,2,1
1533862430119826,-1,3,-2,-4,8,12,2,0
1533862430119826,-2,-1,-7,-3,-7,-1,1,-2
1533862430125813,-2,0,-8,-1,-10,-3,0,-3
1533862430125813,1,2,6,4,-2,0,3,1
1533862430142766,-1,-4,-23,-7,-1,-5,-3,-3
1533862430142766,1,6,-17,-2,11,2,0,3
1533862430143762,-2,-4,-11,4,10,3,1,-1
1533862430143762,-1,-5,8,4,-14,-3,2,0
1533862430164716,-1,2,-11,3,15,-7,-4,-2
1533862430164716,-2,-1,-9,-12,-23,-7,-2,1
1533862430166700,0,1,10,-10,-24,-6,-2,-2
1533862430166700,-1,0,-10,-4,19,4,0,1
1533862430178668,-3,-4,-21,2,-12,-3,-1,-2
1533862430178668,5,3,27,11,10,2,-4,1
1533862430185687,-4,-3,-16,1,-10,-6,-2,-2
1533862430185687,0,0,-7,-1,9,-3,-5,-2
1533862430202605,1,2,18,4,1,0,3,-1
1533862430202605,-2,-2,-8,0,-4,-1,-7,-2
1533862430203620,-1,-1,-16,2,3,0,1,2
1533862430203620,0,-2,0,-1,-2,-3,3,0
1533862430224548,-2,-3,7,-3,2,-2,-5,-2
1533862430224548,-3,-3,3,-6,-8,-4,1,-4
1533862430226542,-1,-1,2,-1,4,0,2,-1
1533862430226542,-2,0,2,-2,-8,-3,-2,-4
1533862430239505,2,0,-2,-4,-3,-2,-5,-1
1533862430239505,0,0,5,5,10,2,5,0
1533862430245489,-2,-2,-14,-5,10,2,-3,-1
1533862430245489,-2,-2,-3,-2,-23,-3,-1,-1
1533862430261446,0,0,7,-3,-2,-3,-1,1
1533862430261446,-2,-2,-12,-5,5,3,-2,-2
1533862430270425,2,0,14,3,-13,-5,-4,-2
1533862430270425,-4,-7,-33,-4,18,3,-6,-5
1533862430284448,-3,-2,3,-4,0,-2,4,0
1533862430284448,-4,-4,-12,0,-1,5,0,-2
1533862430286437,-1,2,-3,0,5,3,0,1
1533862430286437,-1,1,12,1,-3,1,-3,-2
1533862430299445,0,-1,18,2,-7,-2,-2,0
1533862430299445,-2,-3,6,0,-5,-5,-4,-2
1533862430306591,0,-1,4,-2,12,8,8,-1
1533862430306591,-1,1,7,-5,-9,-3,-2,-1
1533862430329321,-1,-1,8,2,-2,-1,-2,0
1533862430329321,-1,0,-5,-7,-1,-2,0,-2
1533862430331316,-1,-4,13,5,8,-1,0,-2
1533862430331316,1,0,1,3,-13,2,2,1
1533862430345278,-1,-1,-11,-10,-6,-3,-4,-3
1533862430345278,0,1,-5,-1,-6,0,1,3
1533862430346275,-2,0,4,-7,-4,-4,-6,-4
1533862430346275,-1,0,2,-3,4,-1,1,-4
1533862430359244,-1,3,3,4,12,5,0,3
1533862430359244,-1,-2,15,1,-15,-4,-2,-2
1533862430366430,1,1,-11,-1,18,3,2,1
1533862430366430,-4,-3,-20,5,-7,-8,-4,-1
1533862430382179,-3,-3,-5,4,-6,1,2,-2
1533862430382179,1,-1,4,2,3,-3,-6,-3
1533862430384174,2,1,2,5,-1,0,-2,2
1533862430384174,-1,-1,-2,-4,-4,-3,0,-2
1533862430412099,0,0,12,-2,11,2,-1,-2
1533862430412099,1,1,-18,-13,2,-3,2,-2
1533862430414102,-3,-3,-6,-1,-7,-5,-2,-1
1533862430414102,-1,-2,-9,-10,-18,0,-5,-1
1533862430419081,-2,-1,3,1,-7,-3,0,1
1533862430419081,-2,-2,-7,4,9,3,0,-1
1533862430426126,-2,-1,-8,-1,-6,-5,0,-3
1533862430426126,1,2,4,1,6,0,2,-1
1533862430443089,-1,-2,-2,-4,-4,0,-3,-2
1533862430443089,0,0,3,1,-2,1,3,3
1533862430456047,0,-1,-2,2,9,5,3,0
1533862430456047,-2,-1,10,3,-1,-3,0,-2
1533862430465022,-5,-1,-11,-8,-11,-5,-3,-3
1533862430465022,-3,-3,-10,-7,4,-1,-3,-4
1533862430466016,1,2,-3,-6,-22,-4,-1,0
1533862430466016,-2,-2,-4,-1,27,-3,-1,-1
1533862430477984,-1,0,-9,-6,-8,4,1,1
1533862430477984,-2,-2,0,2,-8,-3,0,0
1533862430487957,-3,-2,-6,0,-6,-3,-2,-3
1533862430487957,-1,-1,5,-1,8,-1,-2,-1
1533862430502973,1,0,2,2,5,0,-1,-3
1533862430502973,-1,-1,-4,3,-10,1,1,-2
1533862430503915,1,0,-3,-4,6,-1,-1,-1
1533862430503915,1,-1,2,0,-9,4,5,5
1533862430524859,2,0,10,-2,0,0,0,1
1533862430524859,-3,-3,-7,1,7,0,-4,-1
1533862430526853,-1,-1,15,4,-5,-5,-2,-3
1533862430526853,-1,-1,0,-1,5,0,-1,-3
1533862430547803,-3,1,-11,1,1,-1,3,-1
1533862430547803,-3,-1,1,-5,-10,-3,0,-3
1533862430548796,-3,0,0,2,-1,-1,1,-3
1533862430548796,-1,-2,-3,-2,-10,-2,-6,-3
1533862430562757,-1,-2,-7,-4,-2,1,0,-3
1533862430562757,-1,-2,-13,-1,-6,-4,1,0
1533862430563775,-1,-2,-15,-3,6,1,-4,1
1533862430563775,-1,-1,-6,3,-11,-1,-2,-1
1533862430584702,0,-2,-4,1,28,0,-2,-4
1533862430584702,1,0,-2,-4,-14,0,3,0
1533862430586694,-2,0,-15,-2,-2,-1,-2,2
1533862430586694,-3,-2,-5,-6,-7,0,-1,-2
1533862430607641,-1,-2,-1,-1,-8,-5,-4,1
1533862430607641,0,0,7,5,13,-1,-1,-1
1533862430608635,-2,-3,-2,3,1,-4,-2,-2
1533862430608635,-2,-1,-1,0,-8,-4,-2,-2
1533862430622597,-3,-5,-14,-8,-8,-5,-4,-2
1533862430622597,-1,0,4,6,15,2,-1,-2
1533862430623595,-2,-3,-11,-2,-12,-4,1,-1
1533862430623595,2,0,-8,0,2,3,-4,0
1533862430644542,1,2,1,0,-4,-1,-1,-1
1533862430644542,-2,0,-5,2,2,-3,-5,-2
1533862430646536,1,1,5,3,11,-1,-1,-2
1533862430646536,-2,-3,-17,-5,-7,1,2,-1
1533862430658502,-4,-1,-17,-4,-7,-4,-3,0
1533862430658502,-3,-1,-9,-7,-19,-4,1,-2
1533862430667517,-2,0,13,-2,5,0,0,-2
1533862430667517,-2,-2,-7,-11,1,-4,-2,0
1533862430682438,-1,2,0,2,-1,-2,-1,-3
1533862430682438,1,-2,4,-4,2,2,2,1
1533862430683436,1,0,1,-4,-1,-3,0,-3
1533862430683436,0,1,3,-3,2,-1,-2,2
1533862430704382,0,-2,8,-1,-3,3,2,1
1533862430704382,-3,-1,-10,-3,-2,-6,-3,-1
1533862430706374,-2,-4,-5,-4,-5,0,2,-3
1533862430706374,-2,-1,13,5,4,-1,-2,-2
1533862430718344,-1,-4,3,-2,-8,-1,-3,-3
1533862430718344,0,-4,-7,2,3,0,-1,0
1533862430735312,-2,-2,5,-1,-6,-3,-4,0
1533862430735312,-2,-2,-5,-3,-6,-3,5,-1
1533862430742478,-1,2,-10,-3,11,-1,-2,1
1533862430742478,-2,-1,1,-3,-19,-2,-6,-4
1533862430744286,-2,-2,-15,-3,10,0,-2,-1
1533862430744286,0,-1,-1,2,0,0,-1,-3
1533862430765216,-1,1,11,8,-11,-3,1,-1
1533862430765216,0,-1,-4,-1,3,-2,-2,-1
1533862430766222,0,-1,-3,0,-4,2,0,-3
1533862430766222,-2,0,3,5,9,4,5,0
1533862430778219,-1,-2,0,1,3,1,2,0
1533862430778219,-3,-2,5,-2,1,-2,1,-1
1533862430787158,-2,-1,-1,5,-2,-4,-2,-1
1533862430787158,-1,0,-9,-10,-2,-4,1,-1
1533862430810131,3,-3,0,-7,-4,1,1,-1
1533862430810131,0,1,1,5,-5,-2,-4,1
1533862430811106,1,-2,-10,2,8,3,3,1
1533862430811106,-2,-3,5,-19,-5,-2,-2,-2
1533862430832047,-2,0,1,12,2,-3,-1,-3
1533862430832047,-1,-3,-31,-7,-7,-3,-2,-2
1533862430834034,-1,-1,3,-16,-7,-2,0,1
1533862430834034,-1,-1,-3,2,1,-3,-4,-1
1533862430838022,-1,1,-5,-2,3,0,-3,-1
1533862430838022,-3,-2,-11,3,2,3,4,1
1533862430846999,0,0,-11,-14,-19,-4,-3,-2
1533862430846999,-1,-2,11,7,13,4,2,2
1533862430861958,-1,2,-6,-3,0,0,-3,0
1533862430861958,1,-2,3,6,14,1,0,-1
1533862430863961,-1,-1,-6,1,-11,-2,-1,1
1533862430863961,-1,-3,-20,-7,-9,-3,-6,-1
1533862430884896,-4,-3,2,1,-18,-8,-5,-4
1533862430884896,1,0,9,-5,7,0,2,-1
1533862430886895,-1,0,1,4,7,4,-1,-1
1533862430886895,-2,-1,-2,11,0,-4,-5,-3
1533862430897863,-2,0,-5,-4,-1,1,0,1
1533862430897863,1,0,1,-3,-7,-3,-8,-1
1533862430907834,-2,-6,-13,5,15,0,-1,-1
1533862430907834,0,-2,2,8,-4,-3,2,-3
1533862430921845,-2,-5,3,-6,5,1,5,1
1533862430921845,-1,1,-2,-2,-11,-1,-6,-1
1533862430923793,-1,0,8,4,2,-3,-2,-3
1533862430923793,1,0,-15,0,6,5,1,2
1533862430944736,-1,-3,-14,-3,3,-1,-2,0
1533862430944736,-1,0,-3,-4,-3,-1,2,-2
1533862430946732,-1,-1,-17,5,-10,-2,-3,-3
1533862430946732,-2,1,-3,1,4,-2,-1,-2
1533862430967678,-2,0,2,2,-3,-1,0,-1
1533862430967678,-2,-2,-2,4,3,-2,-1,-1
1533862430968672,-1,-1,-6,-8,4,1,-2,-3
1533862430968672,-2,0,8,2,-18,-3,-2,-1
1533862430982639,1,-1,-4,-2,22,4,-1,0
1533862430982639,-2,-2,-5,-3,-11,-1,4,1
1533862430983650,-3,-1,-16,-2,-2,-5,-3,-3
1533862430983650,-1,0,-1,-2,-3,1,-1,-3
1533862431012586,1,-2,8,-11,-14,-7,-7,-2
1533862431012586,-1,-3,-19,-3,-3,2,2,3
1533862431013553,-2,-1,-1,0,6,1,0,0
1533862431013553,-1,-1,6,1,-7,-4,-4,-2
1533862431026517,0,2,11,3,9,-2,-2,-1
1533862431026517,-2,-4,-20,-3,1,0,-1,-2
1533862431034510,0,1,10,5,-7,2,0,1
1533862431034510,-1,0,-7,-1,20,0,-2,-1
1533862431042535,-3,-3,-24,4,-11,-2,-1,-2
1533862431042535,-4,0,7,-3,15,4,-1,-2
1533862431044470,-1,-1,9,4,-12,-2,-3,-3
1533862431044470,1,-1,3,-4,-12,2,3,0
1533862431064420,-3,-3,-4,-3,-5,-3,-1,0
1533862431064420,-1,1,18,1,10,4,1,1
1533862431066412,0,-3,-14,-8,-5,-5,1,0
1533862431066412,-4,-1,-2,-3,0,-1,-1,-2
1533862431087354,-1,-1,7,0,-6,0,0,-3
1533862431087354,0,3,11,0,7,-8,-8,-5
1533862431089349,0,0,2,-4,1,5,3,1
1533862431089349,-2,-1,9,-1,7,-1,4,-2
1533862431101317,1,1,13,-1,1,2,0,0
1533862431101317,-3,-3,-13,-3,-10,-5,-3,-2
1533862431108302,-2,0,-4,-5,-2,-5,-2,-2
1533862431108302,1,2,6,3,4,-3,-1,1
1533862431124259,0,1,2,1,-10,0,2,-2
1533862431124259,0,-1,1,0,-2,-3,-4,-3
1533862431131238,-1,-1,-11,-3,3,1,-2,-2
1533862431131238,-1,-3,-7,-9,-4,-5,-1,-2
1533862431147218,-1,-1,-1,0,0,-1,2,-2
1533862431147218,-2,-4,-9,0,5,0,1,3
1533862431149192,-1,-3,-1,2,-7,-7,-3,-1
1533862431149192,0,-2,-4,2,-1,0,-2,0
1533862431161161,-3,0,-28,0,16,-1,-3,-2
1533862431161161,-2,0,1,1,-11,-5,-4,-4
1533862431176311,-1,-3,-9,-5,-5,0,6,1
1533862431176311,-1,-1,-8,1,3,-4,-9,-2
1533862431185164,0,-3,6,1,-11,-2,-5,1
1533862431185164,1,2,-9,-6,-4,1,4,-1
1533862431186106,-1,0,0,0,6,-1,-4,-3
1533862431186106,0,-1,12,1,-4,-2,-1,-3
1533862431215013,-1,-2,-5,-3,0,-1,2,0
1533862431215013,-2,-3,-10,-4,-13,-3,-2,-2
1533862431216012,-1,-2,2,-1,8,-2,-1,2
1533862431216012,-2,-3,-8,-4,6,-1,-5,0
1533862431221998,0,0,-2,-1,-7,0,-1,-2
1533862431221998,-2,-3,-13,-5,8,4,0,-1
1533862431228977,-1,1,2,-4,-11,-2,-4,-3
1533862431228977,-1,0,-1,4,-1,5,1,-1
1533862431244934,-3,-2,-18,-9,-1,-3,2,1
1533862431244934,0,-2,3,4,-1,3,0,0
1533862431246930,-1,-2,-3,-1,6,-1,-1,-1
1533862431246930,0,0,-6,0,-6,-6,-2,-2
1533862431267875,-3,-2,7,2,-4,-2,-4,-3
1533862431267875,1,0,-2,1,11,1,2,1
1533862431268869,-1,0,1,3,-1,-1,-1,-2
1533862431268869,0,-1,-8,2,-1,0,-2,0
1533862431281835,-1,-1,2,-6,5,0,-2,-2
1533862431281835,-1,0,2,0,-10,-4,-1,2
1533862431289014,-2,0,-2,2,5,0,-2,-2
1533862431289014,-6,-5,-9,-8,-3,-3,1,-2
1533862431312754,0,-2,5,2,-5,0,-5,-1
1533862431312754,1,3,7,1,13,4,-4,3
1533862431313750,-2,-1,2,3,-10,-2,0,0
1533862431313750,-2,-2,-4,-4,-5,-1,-1,-4
1533862431327716,0,-2,7,-1,0,-2,1,-1
1533862431327716,-2,-1,-4,1,-5,-4,0,-4
1533862431328718,1,-1,-1,-8,2,0,-2,-1
1533862431328718,-2,-1,3,3,-4,-2,1,0
1533862431341678,-2,-1,-14,-1,2,-1,-1,-1
1533862431341678,-2,-1,1,-4,-7,-3,-3,-2
1533862431348656,-1,0,-7,-4,-1,-4,-1,0
1533862431348656,2,1,-10,0,-1,3,3,1
1533862431364619,-2,-4,-4,-3,-7,-3,0,-2
1533862431364619,0,-1,3,-2,5,3,-2,-1
1533862431366624,-3,-2,-2,-1,4,-1,-2,-1
1533862431366624,-1,0,6,-5,-2,-3,-1,-3
1533862431394536,-2,-1,-11,-4,-2,2,2,3
1533862431394536,-1,-2,-10,-6,-8,-2,-2,-1
1533862431396531,-2,-5,-8,-2,3,-1,-2,-1
1533862431396531,1,0,-7,2,-6,-1,0,-2
1533862431401522,-1,-4,-7,0,9,-3,-1,-5
1533862431401522,-1,-2,-11,-3,-11,-6,-2,0
1533862431408713,-2,-1,-6,0,-3,0,-2,0
1533862431408713,-1,-3,-2,-4,-1,-4,-1,-1
1533862431424452,-2,1,13,8,-13,0,-5,-3
1533862431424452,0,-2,-4,-4,30,1,3,1
1533862431426468,0,0,-3,-2,-13,-6,-2,-1
1533862431426468,-2,0,-7,-1,1,0,-2,0
1533862431447420,-2,-1,6,-1,-4,-5,-1,-1
1533862431447420,-1,0,16,-2,-3,-4,-3,-2
1533862431448389,1,-3,4,1,-9,-3,-1,-1
1533862431448389,-1,0,10,-5,13,-1,-1,-1
1533862431461354,-2,-2,0,-2,-8,-5,-5,0
1533862431461354,-1,-1,11,0,-4,-1,0,0
1533862431470330,0,0,4,0,5,2,-1,-1
1533862431470330,0,-1,7,3,-5,0,-1,-1
1533862431484502,-1,-1,12,-3,7,2,2,-2
1533862431484502,-1,-3,-7,4,-4,-3,0,-2
1533862431491276,-2,-2,-15,-3,6,1,0,-1
1533862431491276,-1,-5,-4,-6,-11,-5,-3,-1
1533862431515211,1,1,6,-1,-2,0,-1,1
1533862431515211,-1,0,-11,3,5,2,-1,-2
1533862431516208,-3,-1,1,0,-2,0,-2,1
1533862431516208,1,1,3,5,3,1,-2,-2
1533862431521195,1,0,-1,1,-2,-1,2,1
1533862431521195,-3,-3,-18,-8,-11,-5,-3,-3
1533862431530172,-1,-2,3,4,2,-1,0,-1
1533862431530172,0,0,-8,0,7,2,-2,-3
1533862431545130,-2,-1,-9,3,-1,0,-1,0
1533862431545130,-2,-1,-6,-8,-2,-3,0,-1
1533862431546133,-3,-4,-5,-1,-6,-2,-2,-3
1533862431546133,-3,-2,-4,0,-7,-4,0,0
1533862431567102,1,-2,2,-6,5,3,1,-1
1533862431567102,-1,-2,-5,1,3,-2,-2,-1
1533862431569067,0,0,-9,1,-1,-1,0,-1
1533862431569067,-1,1,2,-4,-10,0,0,-1
1533862431581034,0,0,2,8,10,-1,4,-1
1533862431581034,-1,1,2,1,-2,-5,-16,1
1533862431590011,-3,-2,-6,-4,-3,1,0,-2
1533862431590011,-2,-1,6,1,2,0,-3,-2
1533862431604971,-1,0,-21,-2,1,4,5,0
1533862431604971,-5,-7,-19,-3,-12,-8,-1,-6
1533862431605972,3,2,-6,2,7,8,3,5
1533862431605972,0,-3,-7,1,3,-1,-3,-1
1533862431634945,-2,-2,1,-1,-2,-2,-4,-2
1533862431634945,1,0,-3,3,-3,0,2,-1
1533862431635930,-2,-2,-3,-3,-2,-2,-1,-2
1533862431635930,0,-1,0,-5,-4,-1,2,-2
1533862431640920,-1,-1,-14,-9,12,-1,-5,-1
1533862431640920,-1,0,-1,-7,-7,-1,4,0
1533862431649894,-1,-1,-7,-1,-4,-3,-2,0
1533862431649894,-1,0,-21,-1,-7,-1,-1,2
1533862431664853,-2,-4,-7,-6,-4,-3,-5,-2
1533862431664853,0,1,-4,3,3,0,1,-1
1533862431666850,-1,0,-8,-6,-4,-3,-2,-1
1533862431666850,-3,-1,2,4,11,-2,-2,-1
1533862431686795,-2,-1,2,0,-1,-1,-1,-2
1533862431686795,-1,-2,-6,-2,-17,-1,2,0
1533862431688789,-1,-1,-1,-9,4,-1,0,0
1533862431688789,-1,-3,-5,-1,1,2,1,0
1533862431700757,-2,-2,15,8,-1,-3,-3,-2
1533862431700757,0,2,5,-1,5,2,1,0
1533862431717713,-1,-1,6,5,-1,-1,-2,-5
1533862431717713,-1,0,-3,-3,-2,-1,-1,-1
1533862431724901,3,3,0,4,-12,-5,0,2
1533862431724901,-2,-4,-6,-3,11,1,-2,-2
1533862431726717,-2,-2,-2,-1,-7,-6,-2,0
1533862431726717,-3,-1,10,0,6,3,1,1
1533862431747631,-3,0,1,-1,-2,1,-2,-2
1533862431747631,0,-2,0,-4,-7,-1,-1,-1
1533862431748640,2,-1,3,-1,3,0,-1,-2
1533862431748640,-1,-4,-12,-5,-5,-1,-1,-2
1533862431760627,-1,-2,2,1,4,-1,-1,0
1533862431760627,0,0,4,-1,-1,2,0,-1
1533862431769601,-1,-4,-6,-1,-2,0,-1,-1
1533862431769601,-2,-4,-3,0,-8,-3,-2,-3
1533862431808473,0,-2,-4,2,-2,-2,0,0
1533862431808473,-1,0,-1,0,4,0,-1,-1
1533862431810463,0,0,-6,1,3,2,0,0
1533862431810463,-1,-2,1,-3,-2,-1,-1,0
1533862431811460,0,-3,0,-2,7,2,-2,-1
1533862431811460,-1,-1,6,0,-3,-3,-1,-2
1533862431815451,0,0,2,1,0,-3,-3,-2
1533862431815451,0,1,0,-1,-4,0,2,0
1533862431820629,-3,-2,0,-3,1,-2,-1,-2
1533862431820629,-5,-2,-18,1,2,-4,-2,-2
1533862431830411,-7,-2,-13,-2,-3,-3,0,1
1533862431830411,-7,-1,-20,-1,7,-2,-5,-2
1533862431844376,-8,-4,-1,-4,-1,-3,0,0
1533862431844376,-5,-4,-9,-2,-1,-1,1,-2
1533862431851535,-5,-2,-4,0,3,1,4,-2
1533862431851535,-2,-1,-3,1,4,-3,-9,0
1533862431867314,-2,0,-4,0,-2,-1,-3,-1
1533862431867314,-2,2,3,1,-6,0,-1,-2
1533862431869306,-3,0,-6,-1,1,-1,1,-2
1533862431869306,-4,1,-11,-2,-2,-2,1,-1
1533862431890253,-2,1,-125,-2,0,-1,-2,-1
1533862431890253,-1,2,-128,4,4,-1,-3,-1
1533862431891251,-4,1,-94,-3,-4,-3,-1,0
1533862431891251,-2,2,-52,15,1,-1,-1,-1
1533862431904213,-4,-1,-4,-1,1,-4,-3,-2
1533862431904213,-5,-2,97,-7,0,0,3,4
1533862431918178,-2,-2,127,-2,-2,-2,-4,-1
1533862431918178,0,0,80,-2,0,-1,-1,-2
1533862431927155,1,1,63,-3,-2,4,3,-1
1533862431927155,1,-1,127,-1,-6,0,-2,0
1533862431929146,2,-4,60,1,-8,-3,-1,-2
1533862431929146,2,4,27,-3,-7,-5,-2,-4
1533862431950093,0,0,72,0,0,3,3,1
1533862431950093,3,-2,46,-4,2,-1,-5,0
1533862431951087,-2,2,-1,-1,3,-1,-2,-3
1533862431951087,-2,-5,21,11,-2,-1,1,-1
1533862431964054,1,-1,40,5,-4,-3,-3,-4
1533862431964054,5,1,-3,-7,-4,0,0,-3
1533862431971034,12,3,-11,-2,-1,3,0,4
1533862431971034,9,0,31,-9,-6,2,0,-2
1533862431986992,8,1,1,-3,-7,0,0,0
1533862431986992,8,2,-12,-3,-16,-1,-1,-1
1533862431988986,0,0,13,-5,-6,-4,-4,-5
1533862431988986,15,1,7,-11,-4,0,0,-3
1533862432009930,3,2,-10,-2,0,4,-1,6
1533862432009930,1,-4,0,9,2,1,-8,-1
1533862432011943,3,-1,11,2,-3,-2,-3,-2
1533862432011943,-3,-1,-6,-3,-4,-4,-4,-3
1533862432023928,0,0,-8,-5,-2,-3,4,-2
1533862432023928,1,-3,11,-8,5,1,-2,-2
1533862432030893,0,1,-3,13,5,3,0,-1
1533862432030893,-7,-5,-7,-24,-12,-6,-5,-4
1533862432046831,-4,-4,5,-6,0,-4,-3,-3
1533862432046831,-5,0,2,3,-14,-3,3,4
1533862432048827,-1,-4,-7,-3,-2,1,-1,-2
1533862432048827,-5,-1,-1,7,5,-3,0,2
1533862432069964,-1,-1,5,15,0,-2,-2,-1
1533862432069964,-5,-1,-4,-7,3,-5,-1,-3
1533862432071772,-3,2,-5,-15,1,-1,-2,-3
1533862432071772,-1,-6,5,7,4,2,2,2
1533862432083736,-5,-5,-2,-6,-2,-3,-5,-2
1533862432083736,-3,-2,-4,14,7,1,1,-2
1533862432092708,-3,0,2,7,-3,-1,-1,-3
1533862432092708,1,9,2,-16,1,1,-1,1
1533862432107668,-3,-7,42,-4,-6,-4,-5,-1
1533862432107668,-1,5,40,-7,-1,-3,0,-1
1533862432108666,-2,-2,60,0,1,1,-2,1
1533862432108666,-2,-6,45,6,-4,-3,-1,0
1533862432129610,-2,0,20,-14,1,0,0,-3
1533862432129610,-2,-1,15,7,3,3,0,1
1533862432131605,-1,-3,23,18,0,-4,-1,0
1533862432131605,-2,1,16,-3,-10,-3,1,0
1533862432143575,-2,0,12,-2,0,-1,1,-2
1533862432143575,-2,-4,7,-9,-8,-2,-1,-2
1533862432152549,0,-1,2,-5,4,0,0,1
1533862432152549,-4,-3,-18,0,5,2,-1,-1
1533862432167514,-1,-2,-12,0,-4,-4,0,-2
1533862432167514,1,-2,-14,-7,-1,-3,-1,1
1533862432168506,-1,3,-6,-1,-1,0,-1,0
1533862432168506,-2,4,-20,4,4,-2,-2,-2
1533862432189450,3,-13,24,-7,2,2,-1,0
1533862432189450,-1,1,18,9,3,-2,1,-2
1533862432196432,-3,-2,-6,-19,-4,-4,-3,-2
1533862432196432,-3,-4,20,26,3,1,-1,0
1533862432203416,0,6,-33,-5,-1,-2,-3,-3
1533862432203416,-2,1,-18,5,1,-2,2,0
1533862432212400,-2,-8,-2,-14,3,3,0,-1
1533862432212400,-4,-6,-35,2,2,-2,-1,-4
1533862432227349,-1,5,-14,13,-15,-5,-3,-3
1533862432227349,1,5,9,2,4,5,5,0
1533862432229345,-2,-3,-21,5,3,1,1,2
1533862432229345,-2,-4,-8,-4,-10,-2,-5,-2
1533862432249293,-1,-1,-21,-7,-7,-2,-1,3
1533862432249293,-1,0,-21,-8,-8,-7,-6,-1
1533862432251285,0,4,-19,-8,5,-1,-2,-1
1533862432251285,-1,-7,1,1,2,0,0,-1
1533862432263252,0,0,2,5,1,1,2,1
1533862432263252,0,-1,-30,1,-1,0,-2,-2
1533862432272232,-2,0,-13,3,-3,-2,-1,1
1533862432272232,-3,2,17,-4,3,-1,-2,-2
1533862432287188,-2,-2,-14,1,3,1,-1,-2
1533862432287188,-1,-7,-12,-2,3,-1,-1,-2
1533862432289183,-2,-6,-6,-5,-4,-4,-2,-3
1533862432289183,-1,-2,-11,-3,-1,-1,-2,0
1533862432310131,-1,4,-1,0,-1,-2,-1,0
1533862432310131,3,1,6,0,-1,-2,0,-1
1533862432311124,-4,-1,-12,-3,-10,-6,-5,-6
1533862432311124,2,8,-4,-8,3,5,4,2
1533862432324091,-1,-14,-7,3,14,5,3,0
1533862432324091,-3,-4,-4,0,3,-3,-4,-2
1533862432332068,-1,0,-10,-12,-22,-7,1,0
1533862432332068,0,4,3,0,-5,2,0,4
1533862432347028,-2,2,-7,-14,3,0,-3,-3
1533862432347028,-3,-6,-17,-7,3,-1,-5,-2
1533862432355007,2,1,11,28,6,-1,-2,-3
1533862432355007,-3,-5,-15,-16,-10,-6,0,-6
1533862432369971,-1,10,23,8,1,0,-1,0
1533862432369971,-4,-5,-3,-8,1,1,-2,-3
1533862432371962,1,-2,-17,-6,0,1,-1,0
1533862432371962,0,0,-1,-1,2,-2,0,0
1533862432383933,-1,-6,-3,2,-1,-2,0,0
1533862432383933,-2,-5,-8,-3,-6,-4,-1,-2
1533862432392905,-5,-3,3,0,-1,-5,-4,-3
1533862432392905,2,2,5,3,3,4,0,-2
1533862432407869,-1,-1,-9,3,-2,2,1,2
1533862432407869,-2,2,7,7,0,-2,-2,1
1533862432408863,1,-1,-9,-7,2,3,1,2
1533862432408863,-1,-5,-7,-10,-7,-4,-1,-1
1533862432429807,0,-1,1,6,-3,-4,-4,-3
1533862432429807,-1,-1,-7,-15,-5,1,0,1
1533862432431802,0,3,3,15,9,3,1,-1
1533862432431802,-2,-1,15,2,4,-2,-5,-2
1533862432443773,-3,-4,-20,-11,-14,-3,-1,-1
1533862432443773,-2,2,0,-1,-6,-4,0,-1
1533862432452745,0,-2,1,-2,-7,-4,-1,2
1533862432452745,-1,2,1,-5,3,1,-1,1
1533862432466712,-1,0,4,10,2,-2,-3,-3
1533862432466712,-2,-4,-3,1,6,0,-1,-3
1533862432467706,-1,2,4,-6,-4,2,1,2
1533862432467706,-2,-17,-17,3,-3,-2,-2,0
1533862432489647,-2,0,2,-9,-1,-1,-3,0
1533862432489647,0,0,3,9,-2,-2,-2,-3
1533862432489647,-1,-2,-6,-3,0,2,1,-1
1533862432489647,-2,1,4,0,11,2,-1,-1
1533862432511589,1,0,3,7,-4,-3,-4,-2
1533862432511589,-1,-2,-13,-31,-14,-6,1,0
1533862432512586,-2,-1,2,3,-2,0,-3,-3
1533862432512586,0,5,0,-5,-1,3,1,2
1533862432526551,-2,-4,-13,0,1,1,-1,-2
1533862432526551,0,1,3,7,3,3,1,0
1533862432527546,-1,0,7,0,5,-1,-1,-3
1533862432527546,1,-2,-12,-2,-5,-8,-4,-5
1533862432549490,-1,1,-1,-8,-9,-2,0,1
1533862432549490,-2,-3,6,1,-3,2,2,1
1533862432549490,0,0,6,9,2,0,-1,-3
1533862432549490,-1,-1,-12,6,1,-1,-2,-1
1533862432571428,-3,-2,-3,-26,2,-4,-3,-4
1533862432571428,-1,-3,-2,-2,-3,-2,-2,-1
1533862432572426,0,-4,-2,-9,1,2,1,0
1533862432572426,-2,2,7,8,-1,-1,0,-3
1533862432586388,-1,-1,-7,2,0,-3,-2,-2
1533862432586388,0,1,-1,-10,5,2,0,0
1533862432587386,-1,0,0,20,-4,-3,1,3
1533862432587386,0,-2,1,13,18,5,-2,0
1533862432609330,-2,-3,-20,-38,-15,-6,-1,0
1533862432609330,-3,-3,2,5,-15,-7,-3,-1
1533862432610324,-2,-2,5,-12,-4,-4,-5,-4
1533862432610324,-1,-2,-3,5,-8,0,2,0
1533862432632281,1,1,-6,9,17,8,1,1
1533862432632281,-2,2,2,5,6,1,-1,-2
1533862432633263,-1,-1,-5,-1,-4,-4,-1,-1
1533862432633263,-1,-1,2,-6,0,-1,-2,0
1533862432646229,-2,1,3,6,-3,-2,-1,-4
1533862432646229,1,0,1,-4,-1,0,1,-1
1533862432647239,1,-2,-3,-1,-1,1,-3,-2
1533862432647239,-4,-1,-4,-1,-5,-6,-3,-3
1533862432669373,-1,-1,8,14,1,2,2,1
1533862432669373,0,-3,-10,-11,6,2,-2,-1
1533862432670203,-2,-1,0,-6,-2,-2,-1,-2
1533862432670203,-1,0,-8,-17,-15,-4,2,3
1533862432692120,0,2,6,1,-19,-5,-1,0
1533862432692120,-2,0,6,5,1,1,0,-2
1533862432692120,-3,-5,-13,4,7,-1,-3,-1
1533862432692120,0,-3,-4,-4,8,4,-2,-5
1533862432707198,1,-2,3,3,1,-1,0,-1
1533862432707198,-2,-1,-1,3,-12,-4,-1,0
1533862432707198,-1,2,-4,-6,-9,-5,-1,-1
1533862432707198,0,-1,5,-3,-9,-6,-2,-2
1533862432729017,-2,-1,-1,-1,7,3,-1,0
1533862432729017,0,-2,7,15,13,2,-2,-2
1533862432730010,1,-1,-3,-4,3,2,1,-1
1533862432730010,-1,-1,0,-4,-6,1,0,3
1533862432751946,-1,0,0,-3,5,-1,-1,-2
1533862432751946,-2,-1,3,13,-2,-3,-2,0
1533862432751946,0,-1,-3,-2,-8,-4,-2,-4
1533862432751946,-3,-3,-6,-3,0,-2,-3,-2
1533862432766909,0,-2,-4,-5,-3,-1,-2,-2
1533862432766909,1,1,1,6,-1,2,0,-2
1533862432766909,-2,-1,1,-2,0,-1,0,2
1533862432766909,0,-2,1,-4,2,3,6,1
1533862432788850,0,-1,1,0,-18,-9,-1,-1
1533862432788850,-1,-2,-6,-3,-4,-3,-3,-1
1533862432789852,-2,0,-3,-4,5,1,-3,-4
1533862432789852,0,0,5,9,-7,1,-3,-1
1533862432811786,-1,-2,3,3,5,-1,-1,0
1533862432811786,-2,-1,-9,-11,4,4,0,0
1533862432812786,-1,-1,-2,2,-6,-1,-1,-1
1533862432812786,0,1,0,-1,0,-2,1,-1
1533862432834727,-5,0,3,4,3,-3,-4,-4
1533862432834727,0,0,2,1,-4,-4,-2,-2
1533862432835721,1,-1,0,1,8,5,3,2
1533862432835721,0,0,1,-1,-3,-3,-3,-2
1533862432849687,-1,-4,-11,-4,3,-2,-4,-2
1533862432849687,0,-1,1,-1,-3,1,4,-2
1533862432849687,-3,-3,-3,-6,-2,-2,-1,-3
1533862432849687,-1,0,3,-4,3,-4,-4,-2
