timestamp,emg1,emg2,emg3,emg4,emg5,emg6,emg7,emg8
1533861131843926,18,7,7,9,-24,25,-4,-5
1533861131843926,-7,-4,-2,-3,20,-21,0,2
1533861131844918,-10,-2,-8,-6,9,-9,2,1
1533861131844918,10,0,75,1,-19,15,-2,-2
1533861131847910,-1,-4,-19,-6,9,-9,1,-1
1533861131847910,-12,-8,0,6,9,-8,-1,-1
1533861131850903,5,-1,10,0,-16,13,-2,-3
1533861131850903,3,1,-13,10,-5,4,-2,-3
1533861131854891,-13,-4,-3,-9,15,-22,0,4
1533861131854891,5,0,5,1,-9,7,-1,-1
1533861131867857,9,3,-5,8,-10,10,-2,-2
1533861131867857,-9,-1,-17,13,14,-19,1,1
1533861131878844,-6,-2,-1,-31,12,-2,-2,-3
1533861131878844,6,-1,-13,7,-29,11,-5,-4
1533861131884813,-1,-1,-30,-8,3,-7,-2,0
1533861131884813,-8,0,-6,0,7,-9,-1,0
1533861131894785,2,-7,92,12,-5,10,1,3
1533861131894785,6,1,-5,7,1,5,-1,-1
1533861131915745,-9,-4,-6,-12,2,-16,-2,-2
1533861131915745,2,4,2,5,-2,3,-2,0
1533861131915745,2,3,-31,-3,-7,3,-2,-2
1533861131915745,-5,-5,-49,-13,9,-7,1,-1
1533861131962604,17,13,-5,-16,-30,20,-5,-4
1533861131962604,-15,-15,-17,0,22,-25,3,2
1533861131962604,-6,-2,10,-10,-1,-2,-1,-3
1533861131962604,11,3,3,-5,-24,19,-2,-4
1533861131964600,-4,-4,-5,-2,22,-14,-1,3
1533861131964600,-6,0,-2,-9,-2,-3,-1,1
1533861131966593,5,2,-14,8,-14,10,-4,-3
1533861131966593,3,3,34,11,0,0,1,1
1533861131974575,-13,-5,-2,-2,11,-16,2,1
1533861131974575,7,7,16,-2,-9,14,-1,-2
1533861131983548,5,-3,-3,6,-8,7,-3,-2
1533861131983548,-10,-4,-15,-11,10,-18,-1,0
1533861131989531,-6,-4,2,7,3,2,1,-1
1533861131989531,8,19,-6,-1,-15,12,-4,-4
1533861132004671,-2,1,46,3,6,-10,0,1
1533861132004671,-6,-4,-18,-8,3,-7,-1,1
1533861132011617,1,-3,-10,3,-11,7,-3,-3
1533861132011617,3,5,48,11,0,0,-1,-2
1533861132035412,-7,-4,-17,-16,10,-9,1,1
1533861132035412,1,0,13,7,-2,3,-3,-1
1533861132036407,2,-4,-33,22,2,3,0,-2
1533861132036407,-5,-15,23,0,7,-7,1,1
1533861132050370,-3,-1,-30,-39,-28,-7,-2,-1
1533861132050370,2,0,61,2,1,6,0,-1
1533861132051366,-4,-1,20,2,9,-5,-3,1
1533861132051366,-2,-3,-15,18,5,0,-1,-1
1533861132073311,-1,-5,-20,1,3,7,-1,-3
1533861132073311,0,-1,-24,3,-1,-4,-1,-3
1533861132073311,-4,2,-7,-14,-8,-5,1,0
1533861132073311,1,0,-2,1,-4,4,-1,0
1533861132095248,1,2,6,-19,-2,-1,-1,0
1533861132095248,-5,2,-26,-3,5,-5,-1,0
1533861132096258,1,-3,12,8,0,0,0,-4
1533861132096258,4,2,33,-4,-7,2,-1,-2
1533861132110383,-4,-2,2,15,7,-6,0,0
1533861132110383,-1,-1,-5,-3,-1,-3,-1,1
1533861132111245,-1,-5,-46,2,-2,-2,-3,-3
1533861132111245,-2,-6,-21,-10,-1,-4,-2,-1
1533861132133150,-2,-9,6,14,8,-1,-1,1
1533861132133150,0,-1,12,0,1,2,-1,-1
1533861132133150,0,-2,-3,-6,-8,0,1,1
1533861132133150,-2,-17,-20,-15,-4,-3,-1,-1
1533861132155103,-2,-1,-3,8,-6,4,-1,-2
1533861132155103,-2,-6,-30,-1,2,2,1,-2
1533861132156087,-2,-2,10,-7,4,-4,-4,-1
1533861132156087,1,12,-3,-2,4,-3,-2,-2
1533861132170052,4,10,21,11,0,1,2,1
1533861132170052,-4,-5,-7,1,-1,-4,-2,-2
1533861132171046,-1,3,6,-3,0,0,-1,-1
1533861132171046,2,2,7,0,-2,1,0,-1
1533861132192988,-1,-2,-14,-1,2,-5,-2,-1
1533861132192988,-1,2,18,6,-5,-1,0,-2
1533861132192988,2,6,51,-16,-2,0,-1,-1
1533861132192988,-4,-2,-42,5,-1,-2,-1,-4
1533861132214929,0,-24,73,2,-4,-3,1,2
1533861132214929,-5,-3,-2,4,2,-1,-2,1
1533861132215936,-1,-1,2,-6,-4,1,-1,1
1533861132215936,-1,0,3,-1,-5,-2,-2,1
1533861132229890,-2,7,-18,29,15,3,-1,-2
1533861132229890,-1,-4,-21,-37,-14,-2,0,-2
1533861132230887,-1,-4,2,5,-2,-2,1,-1
1533861132230887,-2,-7,-21,-6,-4,-1,0,-1
1533861132252832,-1,4,-18,0,-1,-1,-4,-1
1533861132252832,1,-5,-12,-2,3,0,1,-3
1533861132253824,-3,-6,-20,17,-4,-5,-2,-2
1533861132253824,-1,-6,-31,-14,-3,0,-1,0
1533861132274771,1,7,3,13,8,2,1,-1
1533861132274771,-1,0,21,-6,2,-5,-1,1
1533861132275766,0,0,-8,-8,1,1,0,-1
1533861132275766,0,1,-2,18,-8,1,-3,0
1533861132290726,-1,2,10,-1,17,0,-2,-1
1533861132290726,-5,1,-13,-15,8,-4,-2,0
1533861132290726,2,3,6,14,-29,-1,2,4
1533861132290726,-3,-10,-20,-17,1,1,1,0
1533861132312682,-4,0,-73,-3,-7,-1,0,-2
1533861132312682,0,-2,33,26,13,3,-3,-2
1533861132313675,0,3,40,-21,4,-4,0,-2
1533861132313675,-5,1,4,0,3,-2,-1,0
1533861132335609,-1,-4,-20,-23,-5,-3,-2,-2
1533861132335609,-2,-1,-10,9,-10,0,-2,-1
1533861132335609,-3,-5,-31,-4,2,-3,-2,-1
1533861132335609,-1,-11,24,3,-2,-4,0,-2
1533861132349572,0,2,17,-1,0,2,-2,-1
1533861132349572,1,0,-14,-3,-6,-3,-2,-1
1533861132357562,-4,-3,-1,6,8,0,-1,-1
1533861132357562,3,8,18,11,5,1,0,-1
1533861132372507,-3,-3,4,-20,-8,-4,0,2
1533861132372507,-1,15,-20,10,1,-2,0,-1
1533861132373504,-3,-6,-49,-33,-11,-2,-4,-3
1533861132373504,0,11,71,20,23,2,-1,-1
1533861132395446,-1,2,26,-37,-30,-8,0,-3
1533861132395446,-3,-2,-31,34,-7,1,1,2
1533861132396458,-4,-10,-64,7,7,2,0,-3
1533861132396458,-2,-26,53,-25,-7,-6,-2,1
1533861132409412,-1,0,-32,-5,12,-1,-1,0
1533861132409412,0,-2,4,-18,0,0,-1,-1
1533861132417391,-2,-3,17,16,3,0,-1,1
1533861132417391,-1,9,-46,3,0,-1,-1,-1
1533861132441326,1,2,10,4,-1,2,-2,-2
1533861132441326,0,-9,-6,-1,-7,-3,-4,-1
1533861132441326,-1,3,-4,-4,3,-3,-2,-1
1533861132441326,-2,6,-19,-5,-7,-2,0,-2
1533861132455289,0,10,-4,6,-1,-1,-1,-1
1533861132455289,0,-6,4,-11,-1,-2,-1,-1
1533861132456284,-1,1,13,-3,1,-3,-1,-3
1533861132456284,0,-5,-2,-7,-5,-1,0,-3
1533861132469252,-1,-2,-14,9,-1,-2,-2,-1
1533861132469252,-3,3,-56,-1,6,-3,0,-1
1533861132477227,0,-14,42,1,0,4,2,3
1533861132477227,-2,-9,-53,-1,-9,-1,-1,-4
1533861132493198,0,-4,-2,17,6,0,-1,0
1533861132493198,-1,-12,7,-24,-6,-5,-2,0
1533861132493198,-1,-1,-5,2,-7,3,0,1
1533861132493198,-1,2,-21,8,-5,-3,-3,0
1533861132515129,-4,-10,-29,-13,-9,-5,0,-1
1533861132515129,3,9,12,3,3,1,0,-1
1533861132516123,0,5,19,6,4,-2,-1,-2
1533861132516123,0,1,1,8,7,-1,-1,1
1533861132529087,-2,5,17,6,1,0,-2,-1
1533861132529087,-1,-2,20,-6,-4,1,-2,-2
1533861132538113,-1,0,-6,2,6,-4,-3,-1
1533861132538113,-1,2,-8,6,4,-2,-1,-3
1533861132553221,-1,-5,10,-11,-10,0,-2,1
1533861132553221,1,3,7,7,12,4,1,0
1533861132553221,-7,-10,-57,6,-13,-11,-6,-2
1533861132553221,0,-2,-15,-13,-14,0,0,2
1533861132574969,-1,0,39,-26,6,2,-3,-2
1533861132574969,-5,-2,-8,-4,-5,-5,0,-1
1533861132575972,1,-7,-13,-5,7,0,-3,-2
1533861132575972,-1,-8,51,13,-1,2,-2,-2
1533861132598905,-4,-8,-19,12,3,-5,0,-3
1533861132598905,-2,-6,-16,-9,-4,-2,-2,-2
1533861132598905,3,3,16,-9,0,2,1,-1
1533861132598905,-2,4,-15,-10,-2,-2,-1,0
1533861132612865,-2,-5,-4,14,5,-1,0,-1
1533861132612865,1,3,30,2,0,2,-1,-1
1533861132613865,1,5,2,3,-3,-1,-1,-1
1533861132613865,-3,1,-2,-11,1,-4,-2,0
1533861132634973,0,4,4,5,-1,2,-2,0
1533861132634973,-1,-2,-9,6,-5,-3,0,0
1533861132635803,-1,5,16,19,4,-3,2,-2
1533861132635803,-2,-2,-3,-48,-10,-2,-2,-2
1533861132649769,0,0,-3,-2,1,1,0,-2
1533861132649769,-3,0,-27,3,-5,-5,-1,0
1533861132657748,-2,3,32,-5,-2,0,1,1
1533861132657748,-1,6,13,22,8,3,-3,-3
1533861132672707,-3,2,-9,-5,-9,0,2,-3
1533861132672707,-1,-10,6,-1,8,-2,-2,-2
1533861132673702,-2,0,4,-8,-9,-1,-2,-1
1533861132673702,0,0,3,18,2,-2,-2,0
1533861132695649,-1,-5,-15,-20,-2,-5,-3,0
1533861132695649,1,14,76,34,-7,4,1,0
1533861132695649,0,0,-14,-16,2,2,0,-2
1533861132695649,-1,-3,-1,10,3,-1,0,1
1533861132709637,-1,0,10,-23,0,-1,0,-1
1533861132709637,-1,-1,-15,-7,0,2,-2,-2
1533861132717588,0,-1,1,2,-3,-1,-1,-1
1533861132717588,-2,2,-9,-9,1,-4,0,-2
1533861132732548,-2,-6,-17,16,1,2,-2,-3
1533861132732548,-2,-3,-10,-6,0,-6,-3,0
1533861132733542,-2,1,-3,-8,-1,-3,0,1
1533861132733542,-1,-2,-12,8,0,3,-1,-3
1533861132755483,1,-1,16,9,-5,-4,-1,5
1533861132755483,-1,-5,-9,-24,1,0,-2,-5
1533861132755483,-3,-2,14,5,-9,-5,-2,-2
1533861132755483,0,3,8,4,3,4,0,1
1533861132778421,-1,-1,-16,22,-2,-2,-1,-2
1533861132778421,-3,-10,38,-37,-15,-12,-2,1
1533861132779419,-1,-12,13,7,2,4,2,0
1533861132779419,-2,4,-12,-11,-1,-2,0,-1
1533861132792384,0,5,16,-16,1,-3,-3,0
1533861132792384,1,8,-6,10,11,3,1,1
1533861132793395,0,2,-4,11,3,0,-2,-3
1533861132793395,-1,-7,1,-9,-8,-4,-2,-1
1533861132815326,-2,-3,-1,7,3,-1,1,0
1533861132815326,1,5,24,-6,-5,0,0,0
1533861132816320,-2,-12,8,-5,1,-1,-1,-1
1533861132816320,-3,-3,-9,12,3,1,0,1
1533861132838268,-1,-4,-39,-17,-3,1,-2,-2
1533861132838268,-3,-4,-23,-5,-4,-1,-2,-2
1533861132839259,-3,3,-4,1,5,-4,0,-1
1533861132839259,-1,-1,1,4,-3,-1,0,-2
1533861132852228,3,1,11,-1,-2,0,-3,-1
1533861132852228,2,15,0,19,5,1,2,-2
1533861132853222,-1,4,43,-3,6,-1,-1,-1
1533861132853222,-4,-2,-10,-27,-18,-3,-1,0
1533861132875166,-3,0,2,37,0,-3,-1,-2
1533861132875166,-1,2,-20,-16,3,-1,-3,-1
1533861132876160,0,-3,-77,10,3,2,-2,-3
1533861132876160,3,3,52,10,1,-1,0,0
1533861132899296,-1,-2,-57,-15,-3,-5,0,0
1533861132899296,-4,-19,40,13,2,0,-2,0
1533861132899296,-3,0,-42,-16,-4,-3,0,-2
1533861132899296,0,-3,-14,-2,6,-3,-2,-1
1533861132913063,-3,2,-9,-1,0,-1,-2,-1
1533861132913063,2,4,40,3,-5,1,0,0
1533861132913063,0,3,7,2,-6,0,-1,-1
1533861132913063,-3,-3,-9,1,3,-1,-2,0
1533861132934107,-1,0,20,0,-1,2,1,-2
1533861132934107,-1,-5,-36,-9,-3,-2,-3,-3
1533861132944060,-2,1,21,0,2,-3,-2,-2
1533861132944060,-1,5,-11,9,-2,1,-1,-1
1533861132959022,-3,-24,-23,-17,0,-1,-1,-1
1533861132959022,-1,4,37,14,8,-1,-1,1
1533861132960013,-1,1,-5,-12,-15,-8,-2,-3
1533861132960013,0,-13,-33,-20,-3,-2,0,-1
1533861132987941,0,7,31,-9,3,3,2,1
1533861132987941,-3,-3,-48,6,0,-5,-2,-2
1533861132989934,0,2,50,30,10,4,1,1
1533861132989934,0,-1,-14,-23,-15,-3,-1,-1
1533861132995127,-4,-1,10,1,3,-3,-3,-1
1533861132995127,2,1,-12,3,-1,1,-1,-3
1533861133010877,0,-1,-23,-10,-1,3,-1,0
1533861133010877,-2,0,4,-5,2,-4,1,-3
1533861133018857,0,3,27,-13,-3,-1,1,-1
1533861133018857,0,11,-61,3,-4,2,-1,-2
1533861133019853,3,-1,76,15,3,4,1,1
1533861133019853,-2,-3,-21,-11,3,-1,0,0
1533861133040797,-1,1,70,14,-4,-4,-2,-2
1533861133040797,-4,-7,-19,-5,-4,-4,-1,0
1533861133042792,-2,0,-20,-8,-3,-6,-2,2
1533861133042792,0,-2,-13,2,2,0,-1,-2
1533861133054764,-1,5,-4,-1,-5,-2,-1,-2
1533861133054764,-3,-11,-53,-11,0,-4,-2,-2
1533861133063736,-2,4,3,-17,-4,-2,-1,0
1533861133063736,-1,-1,11,16,-5,0,-3,-4
1533861133085680,-1,-5,-40,0,-1,-3,-2,-2
1533861133085680,-3,0,29,-5,-2,-1,1,0
1533861133087671,-2,6,-33,-6,-1,-2,-1,-2
1533861133087671,1,2,7,25,3,3,0,-1
1533861133100703,-1,8,0,-9,7,0,1,-1
1533861133100703,0,-7,-45,-19,-13,-1,-2,-1
1533861133102632,0,4,-9,-4,0,1,-1,-3
1533861133102632,-4,-5,9,3,0,-3,-2,0
1533861133114806,-2,1,-3,17,-1,0,0,-1
1533861133114806,-1,-3,-41,3,0,4,2,0
1533861133123577,-2,-3,5,-5,2,-1,0,0
1533861133123577,-1,8,46,0,-2,-5,0,1
1533861133138541,0,-6,-12,-1,0,1,-2,-1
1533861133138541,1,0,24,-2,-2,-1,-1,0
1533861133139532,-2,-8,-16,-7,-2,-3,0,0
1533861133139532,-1,-2,-5,-1,3,2,-1,-3
1533861133160481,1,15,-41,-11,-3,-3,-2,0
1533861133160481,-7,-12,40,9,1,0,0,-2
1533861133162472,0,5,-5,-5,1,2,-1,-2
1533861133162472,-3,-12,17,12,-1,-2,0,-1
1533861133174642,0,5,52,-12,-6,-3,0,0
1533861133174642,0,-2,2,17,2,-7,-2,-1
1533861133191394,-2,-9,-78,7,6,1,-2,-2
1533861133191394,1,5,25,-12,-4,-2,-3,-1
1533861133198377,-3,-11,1,4,4,0,0,-1
1533861133198377,-1,1,18,-1,-6,2,-1,0
1533861133200370,2,-3,-6,-3,-2,-1,-4,1
1533861133200370,1,7,-14,17,9,1,1,0
1533861133228297,-4,-10,-29,0,-6,-2,-2,-3
1533861133228297,1,-8,65,-13,-3,1,0,1
1533861133230294,0,-2,-1,-12,-3,-5,-1,0
1533861133230294,-3,-2,-16,-3,2,2,-1,-1
1533861133234281,0,-8,-2,11,0,3,-3,-2
1533861133234281,3,18,12,-6,3,-2,-2,-1
1533861133243261,2,9,85,9,-1,-3,1,0
1533861133243261,-3,-11,-54,-15,-2,-2,-3,-2
1533861133258255,-3,-1,-20,5,-1,0,-2,-4
1533861133258255,-2,1,-25,-14,1,-4,-2,-3
1533861133260213,-3,5,3,1,-3,1,-1,-2
1533861133260213,4,0,-13,-8,-5,-2,-3,-3
1533861133281154,1,13,-16,20,4,-4,-3,-1
1533861133281154,-4,-37,34,-21,-14,-4,-1,0
1533861133282156,0,-9,-9,-14,-2,1,-2,-4
1533861133282156,-4,-5,29,-22,-12,-3,-1,-2
1533861133303095,-1,-4,-15,15,8,-3,0,0
1533861133303095,-3,-14,-83,-19,-1,-2,-6,-5
1533861133305090,-2,-4,34,11,-4,0,3,0
1533861133305090,2,-1,4,1,27,-2,1,1
1533861133318059,2,-2,9,-12,-29,-2,0,0
1533861133318059,-2,6,-28,28,9,1,-3,-2
1533861133320051,0,0,-12,-58,-9,-4,-2,0
1533861133320051,0,19,5,15,-3,2,0,-3
1533861133340994,-2,-10,-34,-4,6,0,-1,0
1533861133340994,1,11,24,2,-10,0,-1,-4
1533861133341992,-4,-5,-18,2,1,-4,-3,-2
1533861133341992,2,4,19,18,7,1,0,2
1533861133362950,0,3,26,4,4,2,-1,2
1533861133362950,-2,16,3,-7,0,-5,0,0
1533861133364931,-2,-1,-1,2,0,-2,-1,-2
1533861133364931,-3,-8,-22,-7,-12,1,0,0
1533861133377896,-2,-7,13,0,0,-2,0,-1
1533861133377896,-3,4,3,0,2,-2,-1,0
1533861133379903,-1,1,-8,5,-4,-1,-2,-2
1533861133379903,-2,-5,-5,5,-3,-1,-1,-1
1533861133401034,-3,-2,-1,-9,1,-2,-1,2
1533861133401034,1,2,0,11,1,2,-1,0
1533861133402829,-2,-5,-9,23,2,2,-2,-2
1533861133402829,-1,-1,31,-41,-8,-5,1,-1
1533861133423776,1,7,79,5,4,0,1,1
1533861133423776,1,-1,3,14,-1,-2,-1,0
1533861133424770,-2,-2,8,-16,-15,-3,-2,0
1533861133424770,-4,0,-14,29,7,-5,-3,-2
1533861133437739,3,16,-53,-11,-1,4,1,-2
1533861133437739,-2,-19,-4,-9,-11,-5,0,-1
1533861133444717,-5,-7,-51,-14,6,-6,-3,-2
1533861133444717,1,4,10,32,7,3,-1,0
1533861133460674,-4,-10,-45,-44,-36,-3,-5,-4
1533861133460674,1,13,24,-5,11,-2,-2,2
1533861133462669,-3,-7,-6,-4,-9,0,-2,-1
1533861133462669,0,-3,-8,-9,2,1,-1,0
1533861133483612,0,-2,17,12,12,-1,-3,-2
1533861133483612,-1,5,1,22,-4,0,1,1
1533861133484610,-1,-3,4,-13,0,-2,0,0
1533861133484610,0,1,4,-10,-5,-1,-1,0
1533861133497582,-6,-8,-1,11,4,-4,0,-1
1533861133497582,0,-2,-8,-5,0,2,-2,-2
1533861133504771,2,8,16,9,1,1,3,0
1533861133504771,-4,-7,-25,-8,-5,-5,1,-2
1533861133520514,-2,-11,-64,-2,-2,0,-2,-1
1533861133520514,1,9,73,22,13,4,2,1
1533861133522509,0,-2,-4,-15,-10,-2,-1,-1
1533861133522509,-4,-4,-4,-20,-21,-4,-3,-3
1533861133543453,1,-7,5,-6,8,2,1,-2
1533861133543453,-2,-4,-22,16,3,-1,-1,-2
1533861133545447,0,-2,-12,-4,1,-3,2,-1
1533861133545447,-1,1,-7,-2,-5,2,-2,-1
1533861133557416,0,16,-17,5,5,-3,-2,-2
1533861133557416,-6,-23,-11,-22,0,-3,0,0
1533861133564397,1,2,9,25,2,0,-2,1
1533861133564397,-1,-7,-13,3,1,1,0,-3
1533861133581384,-1,-2,15,-7,-3,-5,-2,-2
1533861133581384,-2,6,-17,0,-2,0,-1,-1
1533861133582349,-1,-5,-1,9,-1,1,-1,-1
1533861133582349,0,-3,0,-4,0,-4,-2,1
1533861133603292,-1,-1,14,3,-2,-4,-1,-2
1533861133603292,0,3,-24,-11,-1,0,0,-3
1533861133605291,-1,-6,-23,-12,-2,0,-2,-1
1533861133605291,-3,1,19,21,1,-6,-3,-2
1533861133617258,0,-4,19,-3,-2,-1,0,1
1533861133617258,0,9,-24,5,-5,0,0,-3
1533861133624240,3,1,19,15,14,0,-2,0
1533861133624240,-6,-14,-46,-40,-21,-4,0,-1
1533861133641398,-5,-13,15,3,-6,-2,-3,-1
1533861133641398,-3,1,4,-6,-6,-2,-2,-3
1533861133642188,-3,4,-14,12,6,-3,-1,-2
1533861133642188,2,1,8,-12,4,3,-1,-1
1533861133663131,1,1,5,2,1,3,-2,-1
1533861133663131,-1,-3,-11,39,8,-3,-1,2
1533861133665128,0,-2,6,-45,-9,1,-2,-2
1533861133665128,-1,4,8,14,-3,-1,-2,-1
1533861133678093,0,4,2,-16,-1,-2,0,-1
1533861133678093,-3,-4,7,-3,3,3,-1,-1
1533861133685074,-1,-4,7,12,-1,0,-2,-1
1533861133685074,0,2,9,9,4,-1,0,2
1533861133701068,-3,-5,-10,3,2,-1,0,-2
1533861133701068,0,-5,-3,-6,-4,-2,-1,3
1533861133702028,0,0,-2,0,-6,-1,-1,-2
1533861133702028,-3,-4,-3,-5,7,-2,0,1
1533861133722976,-2,-4,-16,3,1,-1,-1,-3
1533861133722976,3,3,79,-11,-3,0,-1,-2
1533861133724967,-3,2,29,15,3,-2,0,0
1533861133724967,-1,-9,16,-23,-2,0,-2,0
1533861133737936,-3,-9,-65,-16,-16,-3,-3,-1
1533861133737936,-5,-5,-23,12,-3,-2,-4,-2
1533861133744913,-1,-3,-8,-2,4,0,0,1
1533861133744913,3,5,12,3,0,2,0,-1
1533861133761039,1,1,21,7,3,3,2,1
1533861133761039,-2,-5,-32,-3,1,-3,1,-1
1533861133762867,-1,4,0,-35,-10,1,-1,0
1533861133762867,0,1,-19,14,1,1,0,-2
1533861133783810,-4,-1,16,0,2,-2,-1,1
1533861133783810,0,-2,-5,-6,-2,1,-1,-1
1533861133784807,0,-1,2,19,0,2,-2,-1
1533861133784807,0,3,0,0,1,-2,0,-3
1533861133796775,-2,1,18,2,-1,-1,0,-1
1533861133796775,2,11,-10,-12,-4,-1,-3,-5
1533861133805751,-2,-15,13,17,4,-2,0,-2
1533861133805751,-3,-1,-5,-10,-9,-3,1,0
1533861133820713,0,-2,6,13,6,-1,-4,-2
1533861133820713,0,1,16,-13,1,3,1,1
1533861133822708,-2,1,-17,2,-3,-6,-2,0
1533861133822708,-1,0,-3,12,5,1,-2,-2
1533861133843649,0,-3,0,-1,-5,1,1,0
1533861133843649,3,10,32,3,2,-1,-2,1
1533861133844648,-5,-3,-14,-2,-1,-8,-3,-3
1533861133844648,-1,-3,5,7,3,2,-3,-2
1533861133856615,0,2,9,0,0,-4,-3,-2
1533861133856615,-4,-8,-33,-7,2,-4,-3,1
1533861133866588,1,5,-4,6,0,2,2,0
1533861133866588,-1,-3,-50,-9,-1,-2,-1,-2
1533861133880552,-1,-1,-14,32,10,0,1,-2
1533861133880552,-3,-6,-14,-51,-23,-2,0,-1
1533861133882545,2,3,11,15,1,-1,-2,-1
1533861133882545,-3,-2,-9,-9,-3,-5,-3,0
1533861133903502,0,0,8,2,4,2,1,1
1533861133903502,0,-7,-8,-1,-1,0,1,-2
1533861133909477,-1,14,-12,-5,-5,-2,-2,-2
1533861133909477,-4,-5,5,0,3,-1,0,-1
1533861133917452,-1,1,-13,-2,-6,0,-2,-1
1533861133917452,-2,-4,-1,15,3,1,-1,0
1533861133926428,-1,2,-11,-19,-2,-2,-2,0
1533861133926428,3,7,-31,6,-1,2,-2,-1
1533861133940391,-2,-10,41,-16,3,-2,-1,-1
1533861133940391,0,-4,71,10,-2,-3,1,1
1533861133942385,-2,-4,-10,2,4,0,1,-2
1533861133942385,-5,-1,-10,-12,-5,0,-2,-1
1533861133964327,1,3,-10,-2,-3,-1,0,1
1533861133964327,-4,-2,-30,-8,-2,-6,-2,-3
1533861133965324,0,-5,9,13,2,0,0,-2
1533861133965324,0,1,27,-2,-4,2,1,0
1533861133977502,-2,3,-8,-5,3,-1,0,-1
1533861133977502,0,-1,-6,6,3,-1,-2,1
1533861133986268,1,-5,-4,1,-8,0,-1,-1
1533861133986268,-1,0,-5,15,0,-4,-3,1
1533861134000242,-3,-3,3,-34,2,-3,-2,-2
1533861134000242,-1,-2,-22,0,1,0,-1,0
1533861134008208,1,-3,-5,-9,-8,2,1,-2
1533861134008208,-2,-2,10,7,5,-2,-1,0
1533861134023170,3,-1,-7,1,-9,-1,-2,0
1533861134023170,2,13,65,1,0,0,1,0
1533861134025164,-6,-6,7,-2,6,-5,0,0
1533861134025164,-1,-9,30,4,1,-3,-1,-2
1533861134037150,-2,-5,-6,4,-8,0,0,-2
1533861134037150,-3,-5,-46,-15,-5,-3,-3,-4
1533861134046109,0,8,-11,16,3,-1,-1,0
1533861134046109,2,-5,5,-9,-6,3,1,-1
1533861134061075,-3,-5,-45,4,-7,-2,-2,0
1533861134061075,-5,-6,-14,1,7,-2,1,1
1533861134062065,-2,0,-3,-22,-5,-1,-2,0
1533861134062065,-2,1,-1,0,3,1,0,-1
1533861134083013,-2,-1,-5,0,4,-2,-1,-1
1533861134083013,0,-4,-11,9,0,1,-3,-2
1533861134085009,2,-3,5,1,-1,0,0,-1
1533861134085009,0,2,-14,-18,-3,-5,-1,-3
1533861134096972,-1,0,16,6,-1,-3,-1,-1
1533861134096972,-1,-2,-13,-7,-4,0,0,-2
1533861134105976,0,-5,28,5,0,1,2,2
1533861134105976,-3,1,14,-5,0,-3,-2,0
1533861134121102,0,7,11,7,-3,0,-2,-1
1533861134121102,0,26,12,0,-3,2,-1,-2
1533861134122928,-2,-6,-11,4,3,-4,0,-1
1533861134122928,4,4,22,-8,-7,3,-2,1
1533861134143846,-1,-2,31,-3,-1,0,0,-2
1533861134143846,0,3,-16,10,6,-4,-2,-1
1533861134144844,-3,-2,-4,-9,1,0,-1,0
1533861134144844,1,6,50,-28,-14,-1,-1,-3
1533861134156813,2,0,-31,-2,-2,-2,-1,-2
1533861134156813,-4,-14,-21,4,-2,-2,0,-1
1533861134165789,1,11,17,1,-1,3,-3,-1
1533861134165789,-1,-9,-25,15,3,2,-1,0
1533861134179751,-2,-2,3,-5,4,0,1,1
1533861134179751,0,-10,-35,-2,5,0,-1,-2
1533861134186735,-3,-7,-20,-1,-11,-4,-3,-3
1533861134186735,-3,0,-30,1,-2,-5,-2,-2
1533861134203686,-2,0,21,10,-2,1,-1,-2
1533861134203686,1,-6,-8,1,1,1,0,-1
1533861134204684,1,1,-13,1,3,-1,-1,-1
1533861134204684,-4,-1,-4,5,3,-5,0,-2
1533861134225831,0,-3,0,0,-1,-1,-1,-1
1533861134225831,1,-3,9,-9,-4,-2,0,0
1533861134227628,-1,-2,-6,-6,0,-4,0,-1
1533861134227628,-3,-16,-33,8,2,1,0,-3
1533861134240782,2,4,-2,5,2,1,-1,0
1533861134240782,0,3,66,17,-2,-3,0,-1
1533861134242583,-3,-6,12,-50,-8,-6,-3,0
1533861134242583,0,1,-19,1,-5,2,1,1
1533861134263527,-1,-1,-7,-1,1,-2,-2,-1
1533861134263527,-2,0,-35,8,2,-6,0,0
1533861134264524,0,0,-1,17,2,3,-1,-1
1533861134264524,1,5,16,7,4,-1,0,-1
1533861134285471,-5,-24,-5,-16,-5,-6,-2,-2
1533861134285471,1,0,-9,-11,-6,-2,-3,-3
1533861134287463,1,-2,-6,11,1,1,0,0
1533861134287463,-2,1,-7,0,1,-3,-1,-1
1533861134300428,0,5,10,21,-1,-1,-1,-1
1533861134300428,-3,-5,-1,-20,-5,4,-1,0
1533861134307409,-1,-6,-16,6,0,0,-1,-1
1533861134307409,5,11,88,18,2,1,1,1
1533861134323372,0,8,52,-15,1,-2,2,0
1533861134323372,-1,8,2,-10,-9,-6,-3,0
1533861134325361,-2,1,0,9,3,-3,-1,0
1533861134325361,-2,-1,-33,5,16,13,1,-1
1533861134346305,0,-4,-24,-6,-7,-3,-4,-2
1533861134346305,-3,-1,8,0,5,2,0,0
1533861134347304,-2,1,13,-20,-16,-5,-3,-2
1533861134347304,-1,-6,-12,18,3,-1,-4,-2
1533861134360272,-2,5,17,-21,-4,0,2,1
1533861134360272,-3,-7,-19,2,0,-6,-3,-2
1533861134367252,-2,-5,-14,21,2,1,-1,-2
1533861134367252,-1,-3,-19,-12,-3,0,1,-1
1533861134383210,-3,2,-5,3,8,0,-1,0
1533861134383210,-1,-9,-48,0,-5,-1,-2,-4
1533861134385214,0,0,7,-6,1,-1,0,1
1533861134385214,-3,1,-6,-7,0,-5,-1,0
1533861134406150,0,10,9,-2,-4,0,0,-2
1533861134406150,-1,-5,-12,-1,-3,2,1,-1
1533861134407143,-2,-2,-39,-4,0,-2,-3,-3
1533861134407143,-2,8,-9,-8,-5,-8,-2,-2
1533861134420107,0,-4,-21,0,-3,-1,-3,-1
1533861134420107,0,2,11,6,2,0,-1,-1
1533861134427093,-4,0,-3,8,8,0,-1,-2
1533861134427093,0,-1,8,5,-4,-3,-3,-2
1533861134443050,-4,-12,-69,-32,-5,-1,-3,-3
1533861134443050,-2,4,49,10,2,-1,1,3
1533861134445041,0,5,52,12,-2,-1,0,-2
1533861134445041,-1,-8,-19,-17,-7,-5,-3,-2
1533861134465985,-1,-5,-12,23,7,-2,-2,-1
1533861134465985,-4,-6,-1,-4,0,-2,-1,-1
1533861134467996,1,2,-8,-12,-4,3,0,1
1533861134467996,-2,-2,-1,-4,-7,-1,-2,-2
1533861134479949,1,4,26,6,4,-3,1,-1
1533861134479949,-2,-7,-75,-11,-3,0,-3,-3
1533861134486960,-1,-3,27,2,-15,-2,-2,0
1533861134486960,-2,0,5,0,1,0,0,-1
1533861134503883,1,-2,0,-14,5,-3,-2,0
1533861134503883,0,-17,1,5,0,2,-1,-1
1533861134504881,0,-2,25,-1,-5,-1,0,0
1533861134504881,-1,-1,1,-9,-3,0,0,0
1533861134525824,-2,-1,-10,11,-7,-3,0,-3
1533861134525824,-5,-6,-48,0,-6,2,1,2
1533861134527819,-1,3,-2,-5,-3,-10,-2,0
1533861134527819,-2,-4,0,4,7,-2,-3,-2
1533861134539797,2,5,20,-3,6,3,-2,-2
1533861134539797,-1,5,6,14,0,-1,-2,-2
1533861134546770,-2,-3,-15,-43,-10,1,2,0
1533861134546770,-1,-2,-11,0,-14,-2,-3,1
1533861134563740,-2,-5,-16,11,2,1,0,-2
1533861134563740,-2,0,10,-6,6,-4,-3,-4
1533861134564730,5,5,34,8,4,6,0,0
1533861134564730,2,3,21,-13,1,-2,1,-1
1533861134585665,-4,-6,-12,-36,-11,-6,-4,-4
1533861134585665,2,6,21,0,-4,1,0,-1
1533861134587660,-1,-2,-23,14,8,-1,-2,-2
1533861134587660,-2,-3,-10,-4,7,-2,0,-2
1533861134600625,-2,2,14,14,-7,0,2,1
1533861134600625,3,3,16,-9,-3,-3,-1,-1
1533861134606609,0,0,-58,-5,4,-5,-5,-4
1533861134606609,-2,-14,78,15,2,0,1,3
1533861134623778,1,5,66,7,-4,4,1,1
1533861134623778,1,1,8,-5,1,0,-2,-1
1533861134624562,-2,-2,-6,26,2,-2,0,0
1533861134624562,0,2,-29,-26,-3,2,-2,-6
1533861134645505,-2,0,0,15,4,-1,-4,-3
1533861134645505,-5,-2,4,-22,0,-3,-1,1
1533861134647500,-2,-2,6,-5,-6,-1,-1,-2
1533861134647500,1,4,-24,7,-8,4,-1,-4
1533861134660469,2,-3,-10,-11,8,2,1,0
1533861134660469,-3,2,2,4,1,-2,-3,-1
1533861134667449,-2,-4,-12,6,3,-1,-3,-2
1533861134667449,-1,-1,-11,-1,-6,-5,-2,-1
1533861134683438,-1,-1,-10,-4,-2,-3,-1,0
1533861134683438,1,0,12,1,1,1,1,-1
1533861134685399,0,0,5,0,1,0,1,0
1533861134685399,-2,-3,-2,0,2,-5,-2,0
1533861134706401,-1,-1,-3,3,0,-2,-1,-2
1533861134706401,0,-1,4,1,-3,0,0,-1
1533861134707339,-1,-4,-7,-9,-3,-2,-2,-2
1533861134707339,0,18,17,0,-2,-6,-3,1
1533861134719311,-1,-18,45,24,-8,2,1,1
1533861134719311,0,1,-5,-6,3,0,-1,0
1533861134728289,-4,-5,1,-32,-5,-6,0,0
1533861134728289,2,-2,-12,7,3,3,1,0
1533861134743247,-2,-2,-20,-12,-11,-6,-2,-3
1533861134743247,-2,-1,3,15,-3,-5,-2,-2
1533861134745240,0,4,11,5,4,3,-1,0
1533861134745240,-2,-3,-17,-4,-2,1,0,0
1533861134766182,-1,5,-21,-3,1,0,1,0
1533861134766182,-1,-3,8,7,3,2,2,-1
1533861134767179,0,-2,-12,2,-3,-1,-3,-2
1533861134767179,-1,-5,2,-2,-5,0,-2,1
1533861134779151,-4,1,-13,-3,2,-3,0,-4
1533861134779151,0,1,2,-16,-3,-2,-3,-1
1533861134788269,-1,-1,6,18,3,2,-1,1
1533861134788269,-2,4,29,17,0,-4,-1,-2
1533861134803085,1,-5,19,-19,-6,-1,-3,0
1533861134803085,-3,-19,-42,-11,-6,-4,-2,-2
1533861134805079,-2,-7,-3,-23,-5,4,4,0
1533861134805079,-1,-1,-12,8,8,-5,-2,-2
1533861134826026,2,11,37,17,-5,4,-1,1
1533861134826026,0,2,5,2,-3,0,1,1
1533861134827037,1,2,49,18,11,-1,-1,0
1533861134827037,-4,-11,-20,0,-10,-5,-3,-2
1533861134839989,-1,-1,-30,-6,1,0,-3,-3
1533861134839989,-2,0,15,-14,2,-3,1,2
1533861134848976,-1,0,-8,7,-5,-1,-2,-3
1533861134848976,1,0,-4,-14,-2,2,0,-1
1533861134863927,-2,-1,-9,2,1,-2,0,2
1533861134863927,-4,1,-12,8,0,0,-3,-2
1533861134864918,-1,-1,-15,-5,-5,-1,-2,1
1533861134864918,-1,-2,-1,-5,1,-3,-1,-3
1533861134885862,-4,-4,-20,-1,4,-1,0,-2
1533861134885862,3,3,7,0,-4,-1,-1,-1
1533861134887857,-3,-8,-33,1,-2,-1,0,-4
1533861134887857,-3,-4,14,-7,0,-3,0,0
1533861134899834,-1,0,-9,22,0,-1,-1,-1
1533861134899834,0,7,7,-10,-2,0,0,-3
1533861134908801,-3,-5,-8,-33,2,-7,-4,-3
1533861134908801,-4,-18,-16,-9,-5,2,1,-2
1533861134923761,0,-1,0,3,-2,0,0,0
1533861134923761,0,2,-38,9,10,0,-2,0
1533861134924758,-4,-3,-8,-18,-11,-6,0,-3
1533861134924758,0,3,-3,2,4,1,1,0
1533861134945702,-4,2,-3,-8,-8,-3,-3,-2
1533861134945702,-1,-4,-3,3,6,-2,0,1
1533861134947697,4,11,31,10,3,3,1,1
1533861134947697,-1,-2,-31,-5,-2,3,-1,-2
1533861134959668,1,0,-11,1,5,-3,2,-1
1533861134959668,-4,-2,2,-4,-8,-1,-1,-2
1533861134968641,1,1,37,7,-2,1,-2,-1
1533861134968641,0,3,13,1,-2,-1,0,0
1533861134983617,-3,-2,7,1,3,-2,-2,-1
1533861134983617,1,11,-11,-19,-7,-1,-1,-3
1533861134984598,0,-9,-21,19,-4,-4,0,-1
1533861134984598,-1,-3,0,-16,0,-5,-2,1
1533861135005747,-2,-3,-1,7,-2,-1,-2,0
1533861135005747,0,1,14,8,1,4,1,0
1533861135007537,0,3,1,9,0,-3,-1,2
1533861135007537,-4,-1,5,5,-7,-4,-5,-3
1533861135028481,-2,-2,-6,-18,-9,-1,0,-2
1533861135028481,2,-3,10,8,-2,-1,-1,0
1533861135030475,-1,1,-12,9,8,-5,-1,-2
1533861135030475,1,-1,0,6,3,4,2,1
1533861135043440,0,0,-12,-19,-4,0,-3,-2
1533861135043440,-3,-3,6,5,-2,-3,0,-1
1533861135045436,0,-1,-1,-3,1,0,-1,-1
1533861135045436,0,1,0,-2,-4,1,-1,-1
1533861135066391,-1,-2,-4,1,3,-1,-1,-2
1533861135066391,-1,-3,4,-3,-1,-1,1,-1
1533861135067376,0,1,-1,-3,-5,2,0,-1
1533861135067376,-4,-8,-43,6,0,0,-1,-4
1533861135079346,-3,2,-39,-7,2,-4,-3,1
1533861135079346,-2,2,0,-2,2,3,-2,0
1533861135088322,-1,-11,-54,-2,3,0,0,-1
1533861135088322,-1,17,64,27,-1,-6,-2,-2
1533861135111263,1,-5,15,-10,3,4,3,1
1533861135111263,2,0,-1,-8,-13,-2,-4,-1
1533861135112256,-5,-5,-14,17,4,-5,-4,-5
1533861135112256,-1,2,0,-6,4,1,1,0
1533861135126223,1,2,0,13,2,4,-1,0
1533861135126223,1,0,18,-2,2,-3,-1,0
1533861135127234,-2,0,8,-1,1,-3,1,0
1533861135127234,0,-5,-7,2,-3,0,1,1
1533861135139204,-3,0,10,-4,-2,-4,-1,-4
1533861135139204,-3,-6,-12,-5,1,-1,-1,-1
1533861135148167,-2,2,7,-7,-5,2,-2,-2
1533861135148167,-1,-2,-7,3,0,0,-3,-1
1533861135171146,1,-1,2,5,0,-2,-2,0
1533861135171146,-3,-2,0,-3,-1,-3,2,-2
1533861135172097,1,1,7,3,-1,0,-1,2
1533861135172097,0,0,4,-4,-2,0,-1,0
1533861135186073,0,2,15,-18,-2,-4,-1,-1
1533861135186073,0,-20,9,-3,-4,-1,-2,-1
1533861135187056,0,-1,-6,-13,-6,1,-2,0
1533861135187056,-2,2,36,-6,3,-2,-1,1
1533861135208004,-2,1,-14,1,-3,2,2,-1
1533861135208004,-2,-1,-12,5,-2,1,-2,-3
1533861135209995,0,4,17,8,-1,-3,-1,0
1533861135209995,2,8,-24,-13,-1,-1,0,-2
1533861135222964,-2,-14,-65,-6,-5,-1,-3,-5
1533861135222964,0,2,29,13,-5,-4,-2,0
1533861135224972,-4,-5,-10,-14,-1,-3,-1,-1
1533861135224972,1,1,-10,-6,2,1,0,-3
1533861135245899,-2,0,6,5,-3,3,-1,-1
1533861135245899,-2,3,-14,-3,9,-5,0,-1
1533861135247893,-1,-1,-10,17,-2,-2,-3,-2
1533861135247893,-4,-8,-21,-14,-4,-1,-1,-2
1533861135268847,-1,-4,16,2,3,-3,-1,1
1533861135268847,-1,-2,-10,-2,-3,2,-1,1
1533861135269843,-2,1,21,-13,0,1,-2,-1
1533861135269843,-1,-2,4,12,-3,0,-1,-1
1533861135282803,-2,1,12,-3,0,-5,0,0
1533861135282803,-1,16,-4,-2,-1,1,-2,-1
1533861135289782,0,-4,6,-3,2,2,1,0
1533861135289782,-4,-10,-18,1,1,-2,1,0
1533861135305739,1,-5,-37,-8,-5,0,-3,-2
1533861135305739,-2,-7,17,2,-2,0,-1,0
1533861135307733,-4,-9,-52,-5,1,-5,-1,-3
1533861135307733,-1,0,34,-3,-1,-2,-1,1
1533861135336657,0,1,8,4,0,4,-3,0
1533861135336657,0,-1,-7,-3,-1,-1,-2,-1
1533861135343641,-3,-5,-4,-1,-2,-1,0,1
1533861135343641,1,-3,-4,2,-2,-1,-1,-1
1533861135344635,-1,2,9,-2,-1,-2,0,0
1533861135344635,-1,-4,-7,-2,2,-6,-1,-1
1533861135349828,0,5,21,-1,-4,2,1,-2
1533861135349828,0,3,-13,1,-4,0,-2,-2
1533861135365582,-1,0,13,1,0,-3,-1,-1
1533861135365582,-2,-2,-1,-3,-1,0,-1,-2
1533861135367574,1,-2,0,3,-2,2,-1,-1
1533861135367574,-1,1,10,3,1,1,1,0
1533861135388518,-4,-21,4,5,2,0,-1,0
1533861135388518,2,2,84,2,-2,6,2,1
1533861135389515,-4,9,-28,-5,-3,-1,1,-1
1533861135389515,-2,5,46,6,3,-5,-1,-2
1533861135402484,3,6,8,-11,-5,-1,0,-1
1533861135402484,0,-2,-29,8,3,-4,-1,-4
1533861135409465,-3,-4,12,11,-4,-5,-3,0
1533861135409465,-3,-5,-15,-6,3,0,-2,-2
1533861135426631,-2,1,-9,9,-4,1,-2,-1
1533861135426631,0,3,1,0,5,0,0,1
1533861135428412,2,-1,6,-6,-10,-3,-1,-3
1533861135428412,-2,-7,-33,-13,1,-2,-2,0
1533861135448361,-2,10,-3,-10,-10,-4,-1,-2
1533861135448361,-4,-12,-20,11,5,0,0,0
1533861135450353,-2,-1,12,5,0,-1,-1,0
1533861135450353,2,-3,-5,4,-4,0,-1,-2
1533861135462320,2,12,62,-3,6,-3,0,1
1533861135462320,-4,-7,-28,-6,-9,0,-2,-1
1533861135469305,1,-3,51,-3,2,-3,0,-3
1533861135469305,-1,-2,11,1,-1,-5,-2,-2
1533861135486256,-3,-2,-16,7,5,1,-1,1
1533861135486256,0,0,4,2,-3,-4,-3,-2
1533861135487261,1,-1,-10,-12,1,-1,-2,0
1533861135487261,0,-3,-24,-3,-2,-3,-2,-1
1533861135508201,-2,-5,-17,4,-1,2,-1,-1
1533861135508201,-1,3,-8,-13,-3,-2,1,2
1533861135510192,-3,0,-8,18,5,-1,0,2
1533861135510192,0,0,2,-19,-5,1,-2,0
1533861135523157,-2,-1,-11,-1,-3,1,-1,-2
1533861135523157,-2,-2,7,-7,2,-4,-1,-2
1533861135529141,1,2,2,12,1,-2,-1,-2
1533861135529141,-3,-2,-11,4,-5,4,-2,2
1533861135546096,-2,-3,14,-2,1,-3,-2,-2
1533861135546096,-3,1,-5,9,8,0,-2,-1
1533861135547094,1,0,-7,-6,-5,0,0,0
1533861135547094,-1,6,-37,-10,-6,-3,-2,-4
1533861135568248,-4,-21,-39,-2,5,-2,1,-3
1533861135568248,-2,-1,3,-2,-13,0,1,-2
1533861135570032,0,2,11,1,6,0,0,-1
1533861135570032,-3,-2,-11,-7,1,-5,0,0
1533861135582000,0,3,-3,0,0,-2,-2,-2
1533861135582000,3,-1,-3,1,0,1,-1,0
1533861135598955,-4,-4,2,-19,-4,0,0,-1
1533861135598955,-3,-7,-3,9,3,-4,-2,-2
1533861135605936,0,1,7,-10,-6,1,-2,-1
1533861135605936,0,-2,-6,-5,-1,-4,-1,-1
1533861135607931,-3,-1,6,-4,-1,-4,-2,-1
1533861135607931,-2,-3,3,2,-3,0,-1,-1
1533861135627878,-1,0,-2,-1,0,-3,0,0
1533861135627878,-2,2,2,1,-1,-1,-1,-2
1533861135629883,0,0,-9,-9,0,0,-2,0
1533861135629883,-1,-1,16,10,1,2,-1,-2
1533861135642841,-2,-1,-1,0,-1,-2,-2,-1
1533861135642841,0,0,11,-7,-4,-2,-2,0
1533861135649822,-3,-7,-30,-15,-9,-2,-4,-3
1533861135649822,-1,-1,7,3,1,1,0,-3
1533861135665777,-3,4,9,2,-1,-3,1,-1
1533861135665777,0,1,5,-1,0,-1,-2,0
1533861135667772,0,0,-2,11,3,1,1,-3
1533861135667772,-1,-6,-35,-2,-2,-4,-2,-3
1533861135688715,-3,15,64,-9,-1,-1,-2,-3
1533861135688715,-4,-18,-78,0,-2,1,-2,-3
1533861135689713,1,-2,11,1,0,0,-4,0
1533861135689713,-4,1,-37,-10,-1,-5,-1,0
1533861135701694,1,0,-1,27,-3,4,1,0
1533861135701694,-2,2,-7,-24,-5,-2,-3,-4
1533861135710657,-3,2,-5,-8,1,-2,0,1
1533861135710657,3,8,21,4,7,0,-3,-1
1533861135725634,0,-2,-16,-8,-9,-3,-2,0
1533861135725634,-3,0,13,23,7,-5,-5,-2
1533861135727629,0,-5,-5,-16,-4,3,1,-1
1533861135727629,0,-1,28,2,-12,0,0,0
1533861135748565,0,-2,-12,-6,1,1,0,-2
1533861135748565,0,-3,2,-2,2,2,2,1
1533861135749552,1,1,2,6,8,2,-1,0
1533861135749552,-1,-1,6,-1,-6,0,-1,0
1533861135762517,-1,-3,-17,-16,-4,-6,-1,-3
1533861135762517,-2,5,15,9,-5,-1,-2,-2
1533861135771493,-2,-2,7,-1,-3,-1,-2,-4
1533861135771493,-3,-3,-8,-21,-2,-3,-1,2
1533861135786648,-2,-8,2,8,-1,-1,-2,-1
1533861135786648,3,2,20,6,-2,-3,-1,-3
1533861135787451,1,0,1,2,5,2,2,0
1533861135787451,-4,-8,-2,-9,-6,-4,-2,-2
1533861135808398,-2,-2,-1,-10,0,2,-3,2
1533861135808398,-2,-2,-5,-9,-4,-1,3,1
1533861135810389,-3,-2,6,20,12,-6,-3,-1
1533861135810389,1,3,14,14,0,3,1,-1
1533861135822374,2,6,47,-7,-4,0,-1,-1
1533861135822374,0,-1,-2,-4,-1,-4,1,-1
1533861135831333,-3,-2,1,-8,-3,-2,-2,-2
1533861135831333,1,-2,9,-1,-11,-2,-1,-2
1533861135846294,-1,-5,-39,-2,-6,-1,-2,-1
1533861135846294,-1,1,39,25,2,3,1,2
1533861135847296,-1,0,-11,-40,-6,0,-3,0
1533861135847296,-1,0,1,16,8,0,-1,-3
1533861135868435,-4,-4,-8,6,-3,-4,0,-2
1533861135868435,0,-6,-25,-20,0,-1,-3,-2
1533861135870236,0,-2,-5,22,-1,0,1,-2
1533861135870236,1,-1,3,-16,3,-1,-1,1
1533861135882202,-2,-2,-15,27,0,-1,-2,-1
1533861135882202,0,2,16,-19,-1,-1,-3,0
1533861135891173,-1,-1,-5,4,-6,-3,-2,-2
1533861135891173,-2,-3,-2,-3,-2,-3,-2,0
1533861135906151,1,0,0,-11,1,0,1,0
1533861135906151,0,0,-17,2,1,-1,-2,-1
1533861135907130,-1,1,0,5,12,-2,1,0
1533861135907130,0,0,7,12,-7,-1,0,1
1533861135928078,-1,-2,-6,-13,-8,-1,-1,1
1533861135928078,0,1,0,12,-7,0,1,0
1533861135930070,-3,-3,-3,-6,4,-1,-5,-2
1533861135930070,0,-3,0,-15,1,-1,-2,-1
1533861135942037,0,-3,-2,-5,5,1,-2,-1
1533861135942037,-1,-1,-8,-3,7,-2,0,-1
1533861135951013,0,-6,-57,2,-16,-1,-1,-2
1533861135951013,-2,4,39,15,1,3,0,-2
1533861135965973,-2,-3,-6,-10,4,-2,0,-1
1533861135965973,-1,-3,-16,-16,-8,-3,-2,-2
1533861135967968,1,-5,-24,30,-4,-3,-1,-3
1533861135967968,-3,-3,-8,-6,0,-6,-4,-2
1533861135995893,-2,-1,8,-1,-2,-2,1,-2
1533861135995893,0,-3,-2,-8,0,2,0,-1
1533861135997888,0,1,16,-8,-8,0,2,1
1533861135997888,-3,-2,-13,6,14,-3,-1,-2
1533861136001880,0,2,12,-4,-13,-1,-1,2
1533861136001880,0,1,-4,-9,-4,0,-1,-2
1533861136010866,-3,-1,13,-7,7,-1,-3,-2
1533861136010866,-1,-1,0,2,-5,0,0,-2
1533861136025813,1,1,-13,21,6,2,-3,-1
1533861136025813,0,4,40,-20,-16,-4,-3,0
1533861136027808,-2,3,23,-2,2,0,0,2
1533861136027808,-2,-9,-13,22,12,5,0,0
1533861136048755,-3,-4,-7,-1,-5,-4,-2,-4
1533861136048755,-6,-3,-7,20,-6,-4,-4,-3
1533861136049748,-1,3,5,2,1,1,-2,0
1533861136049748,-1,4,0,-10,-7,-2,-1,-1
1533861136061718,-1,0,-5,-7,-2,-5,2,0
1533861136061718,1,1,-4,23,17,5,1,-1
1533861136070694,-1,-1,-2,-12,-14,-6,-1,-2
1533861136070694,0,0,-11,-14,-18,-7,-2,-1
1533861136085654,0,-1,-6,-1,-2,-2,0,-3
1533861136085654,0,-1,-1,-13,7,1,0,1
1533861136091637,-2,-1,7,5,-8,-4,-4,-1
1533861136091637,0,-3,-2,-3,5,1,-1,0
1533861136108595,0,0,7,-10,6,3,-1,-2
1533861136108595,-4,-4,-18,3,-4,-2,0,-1
1533861136109590,-4,-4,12,-15,2,-5,-1,-1
1533861136109590,1,-1,-8,-11,0,2,-2,-2
1533861136130533,-2,6,-30,-15,-3,-3,-4,-2
1533861136130533,1,0,24,10,6,-3,1,-1
1533861136132528,-1,-3,-8,11,-3,4,2,-1
1533861136132528,1,-3,21,22,7,2,2,2
1533861136145493,-1,-3,-20,-17,2,-1,-2,-2
1533861136145493,-3,-4,-16,-2,-2,-4,-3,0
1533861136152529,3,1,8,4,-10,-2,0,-2
1533861136152529,-2,5,-20,-9,-16,-5,-2,-2
1533861136168435,-1,-2,9,14,12,3,2,0
1533861136168435,-2,-4,-12,-7,0,0,-1,-3
1533861136170427,1,3,8,1,1,0,0,0
1533861136170427,-2,4,16,-11,5,-1,-2,-1
1533861136191375,-2,-10,-6,3,4,-1,-1,-1
1533861136191375,4,0,4,-10,-2,6,0,-2
1533861136192384,-5,3,-62,-12,-4,-11,-5,-6
1533861136192384,-1,-8,77,13,-6,4,5,2
1533861136205336,2,14,88,-13,7,-1,-2,-1
1533861136205336,-3,-8,3,16,-8,-1,-3,0
1533861136212315,-1,4,-19,-13,4,-1,1,1
1533861136212315,1,-3,-12,-3,-2,-1,-1,-2
1533861136228285,0,-3,-28,15,-7,0,-2,-2
1533861136228285,-3,0,2,-9,11,-3,-1,1
1533861136230266,1,0,17,-5,-4,2,-1,0
1533861136230266,0,1,-25,-7,-5,-5,-3,-2
1533861136251214,-1,-4,-7,8,2,-1,-1,-3
1533861136251214,-3,0,-18,0,-2,-2,-2,-2
1533861136252215,1,-4,6,4,1,1,-2,1
1533861136252215,4,6,-18,-1,-1,-2,2,1
1533861136265181,-1,2,0,-14,11,-4,0,0
1533861136265181,0,10,-2,7,2,7,3,-4
1533861136272158,-10,-27,-65,-19,-12,-7,-4,-4
1533861136272158,1,-1,74,42,-1,5,4,3
1533861136288115,-5,2,-21,-2,-13,-3,-3,0
1533861136288115,2,0,0,16,-4,-3,-1,-3
1533861136290107,5,-6,83,9,20,8,5,4
1533861136290107,-7,-3,6,-21,-4,-1,1,1
1533861136311054,2,-6,3,9,-7,1,2,1
1533861136311054,3,4,7,-5,0,-5,-1,-1
1533861136312062,0,15,-9,11,0,-5,-1,0
1533861136312062,1,-2,-34,-6,1,-2,-5,-4
1533861136325013,-3,0,15,3,-4,-1,-1,-1
1533861136325013,-3,-3,-26,-12,0,-7,-4,-2
1533861136332006,-1,-1,1,-1,-6,1,0,0
1533861136332006,-1,-2,-26,-11,-2,-2,-3,-2
1533861136347955,-4,-7,-15,-4,7,-3,-2,-5
1533861136347955,-3,-4,-11,4,-5,-3,-1,-1
1533861136349957,1,-1,8,12,-6,6,-1,0
1533861136349957,-1,-3,-22,-41,-5,-1,-1,-3
1533861136370894,-1,0,-9,9,7,0,-3,-2
1533861136370894,-3,-8,-13,6,-8,-8,-3,-2
1533861136372891,1,5,13,-4,-10,0,1,-1
1533861136372891,-5,-2,-21,6,6,-5,-1,-4
1533861136384853,-3,2,-12,1,0,4,2,-1
1533861136384853,4,-3,38,10,7,3,0,-2
1533861136391838,-1,-1,-45,-9,5,-2,0,-4
1533861136391838,1,5,51,11,0,1,0,-2
1533861136407795,0,-1,-65,-6,-4,-1,-3,-3
1533861136407795,-1,8,22,-2,-3,1,2,3
1533861136415780,-4,-12,-7,4,4,-1,-1,0
1533861136415780,0,-3,-17,-3,0,1,-3,-1
1533861136438712,0,-3,-2,-5,-5,-2,-1,-1
1533861136438712,-2,4,-7,-13,12,-3,-3,-1
1533861136439706,0,3,7,-9,-27,-7,-3,-2
1533861136439706,-2,2,-18,34,23,4,0,0
1533861136445690,-3,-2,18,-58,-33,0,1,1
1533861136445690,-2,-8,-21,26,-1,-2,0,-4
1533861136451675,0,6,14,1,0,4,-1,-2
1533861136451675,-1,-4,-18,-9,1,-6,-8,-2
1533861136468633,-1,6,-19,11,6,-3,-1,-2
1533861136468633,-2,2,-6,-10,-14,-1,-2,-1
1533861136469626,-4,3,6,0,9,1,0,-2
1533861136469626,-6,-16,-36,-6,-13,-8,-4,-4
1533861136490776,1,-10,4,4,10,0,0,1
1533861136490776,-3,-2,12,-6,-4,0,1,1
1533861136492566,-2,7,-17,-19,3,-1,-3,-2
1533861136492566,-1,0,-26,-2,-3,-2,-1,-1
1533861136505737,0,-2,15,5,-1,0,-3,-2
1533861136505737,1,-1,-24,-16,0,-3,-2,-2
1533861136512529,0,-5,9,8,4,-3,0,-1
1533861136512529,-1,2,5,-7,-1,2,2,0
1533861136528470,-1,-6,5,-4,-8,-5,-2,-2
1533861136528470,1,-2,13,6,4,0,0,0
1533861136530463,5,-1,2,14,9,-1,0,-1
1533861136530463,6,3,6,-14,-11,0,0,0
1533861136551408,2,2,0,11,7,-3,-1,1
1533861136551408,1,-4,-5,-3,-4,-8,-2,-4
1533861136552405,2,-4,-4,-21,-7,2,0,-2
1533861136552405,1,-2,40,6,-8,-1,0,1
1533861136564377,-5,5,-73,-5,0,-4,0,-2
1533861136564377,-6,-19,1,-7,8,4,-2,-1
1533861136573349,-1,13,19,10,4,-1,-3,-2
1533861136573349,-7,-1,-10,-8,-7,-2,0,-1
1533861136588312,-3,8,-9,3,-1,2,0,-1
1533861136588312,2,12,38,3,1,0,-1,0
1533861136590304,-3,-4,-22,3,4,-2,-1,-2
1533861136590304,-1,3,-14,-11,-3,-4,0,0
1533861136618233,1,-2,28,12,-5,2,1,0
1533861136618233,-1,1,-24,-10,-9,0,-1,0
1533861136620223,0,0,9,6,7,-4,-2,1
1533861136620223,1,3,4,-18,3,0,-2,-3
1533861136624586,-2,-12,11,16,-1,0,1,1
1533861136624586,-1,9,-13,-20,1,-1,0,-1
1533861136633516,2,7,63,9,-6,-2,0,-2
1533861136633516,1,-10,21,16,-3,3,-2,1
1533861136648478,-1,-4,25,10,6,1,2,1
1533861136648478,-2,-10,9,4,-3,-3,-1,-1
1533861136650479,-1,1,2,-7,-1,-2,-4,-2
1533861136650479,-2,-5,-29,2,0,0,-1,0
1533861136671416,0,3,16,-3,5,-1,-2,-3
1533861136671416,0,3,8,-14,-14,1,2,-1
1533861136672411,-3,-8,-53,-5,-5,-3,-2,-2
1533861136672411,0,4,10,5,10,-4,0,-1
1533861136684379,-4,4,-16,-5,-5,-4,0,-1
1533861136684379,-4,-26,-1,3,0,3,0,0
1533861136693355,-4,-12,-14,-3,-13,-3,-2,-3
1533861136693355,-4,-1,-5,2,2,-2,-1,-2
1533861136708319,4,-3,15,11,0,1,-1,3
1533861136708319,-2,2,-14,-5,3,-1,0,-4
1533861136710309,-3,-5,9,-2,6,-4,0,1
1533861136710309,1,-16,15,15,10,3,1,1
1533861136731256,-2,-3,5,-2,-6,-6,-4,-4
1533861136731256,-1,0,-13,-6,-12,-9,-3,0
1533861136732250,-1,0,41,15,2,3,-2,-1
1533861136732250,0,14,81,-1,-3,2,2,1
1533861136744421,-9,-19,-27,-7,5,2,1,-3
1533861136744421,-1,-5,-1,8,2,0,0,1
1533861136753196,-1,-3,-25,-12,-6,-2,-3,0
1533861136753196,-3,5,-28,10,1,-6,-5,-5
1533861136768158,-3,1,12,4,-2,-3,0,0
1533861136768158,-1,-1,1,-13,-2,0,1,-1
1533861136770150,-3,-3,-30,4,4,1,0,-1
1533861136770150,-4,0,-28,-11,1,-2,0,-2
1533861136791093,2,0,12,2,-9,-2,-4,-2
1533861136791093,-2,3,-10,0,1,-1,-4,-3
1533861136792091,1,-4,-9,-3,0,-3,1,2
1533861136792091,0,0,-16,-12,-7,0,-1,2
1533861136805166,-1,4,13,8,1,-2,-2,-4
1533861136805166,-2,2,2,-1,9,-1,-1,-3
1533861136814031,-6,4,26,-4,-6,2,3,0
1533861136814031,-3,1,-64,-35,-20,-7,-4,-3
1533861136828992,5,5,86,12,-8,2,3,3
1533861136828992,-2,-1,3,-16,-4,1,2,1
1533861136829988,7,4,7,27,10,0,-2,1
1533861136829988,1,1,-43,6,3,-2,-2,-3
1533861136849939,3,7,-9,-2,6,1,0,0
1533861136849939,-1,-6,-6,3,-6,-2,-1,-2
1533861136858922,0,-6,-5,-14,2,2,2,-2
1533861136858922,1,-1,2,16,6,0,-3,-1
1533861136873875,-2,0,-26,-13,-8,-5,0,-2
1533861136873875,4,10,6,-1,-1,0,-3,0
1533861136874869,1,-3,-25,-3,0,1,-1,-2
1533861136874869,-2,-7,-11,0,5,-3,0,-1
1533861136888832,0,0,-11,4,2,1,-3,0
1533861136888832,0,0,-27,-14,-11,-4,-1,-1
1533861136889829,-5,-1,0,16,8,-5,-3,-1
1533861136889829,-3,-1,23,2,-5,3,-2,-1
1533861136910983,-3,2,-81,-4,2,-2,-2,-3
1533861136910983,-1,-11,5,1,4,-2,-1,1
1533861136912768,-5,-7,-15,-1,3,0,-1,-2
1533861136912768,1,1,11,0,-13,0,0,-1
1533861136924740,2,3,29,15,-3,-2,-3,1
1533861136924740,1,7,44,5,6,2,3,1
1533861136933712,1,1,-4,-15,-6,-2,-3,-2
1533861136933712,-1,-8,-7,0,7,3,0,-1
1533861136948680,-4,-6,-26,-11,1,-5,-2,-1
1533861136948680,-1,0,-16,-6,-1,-3,-2,-3
1533861136949669,3,5,37,5,-5,0,1,-1
1533861136949669,0,4,3,0,0,-2,-1,-1
1533861136971611,-4,-7,-7,-16,-4,-2,-2,0
1533861136971611,-3,2,4,15,4,1,-1,-2
1533861136972608,-2,-2,-15,-6,-5,1,-1,0
1533861136972608,-2,-4,-4,-11,1,-4,1,-1
1533861136984579,0,2,-1,-13,1,2,0,0
1533861136984579,1,-8,28,23,0,-2,-1,-2
1533861136993552,-4,-1,-78,-2,-3,-3,-3,-2
1533861136993552,-7,-12,-51,-40,-8,-8,-6,-5
1533861137008515,6,12,113,19,4,4,3,3
1533861137008515,-5,-5,-26,4,-1,0,1,1
1533861137009509,-1,4,-1,-6,2,-3,0,-2
1533861137009509,1,0,18,9,0,3,0,1
1533861137030457,-2,12,-42,-10,4,2,-1,-5
1533861137030457,-3,-3,-24,3,-1,-5,-2,-2
1533861137038431,0,-5,29,-7,-7,3,-1,0
1533861137038431,2,0,0,7,-2,2,0,1
1533861137053395,-3,-5,-5,-8,0,-4,-1,-1
1533861137053395,-1,2,0,-3,3,2,-4,-2
1533861137055386,-1,-5,0,-6,-5,1,-1,2
1533861137055386,0,5,22,9,3,-4,0,1
1533861137068351,-5,-13,-23,0,0,-2,1,-1
1533861137068351,-1,4,1,1,-7,-2,0,-1
1533861137070346,1,-1,-2,-3,7,-1,0,-2
1533861137070346,-2,10,3,-4,-1,0,-2,1
1533861137091293,-2,-15,-2,14,-4,2,0,1
1533861137091293,-1,19,-54,-15,-2,0,-2,-1
1533861137092288,3,-12,60,23,3,3,2,3
1533861137092288,-3,3,2,-3,-2,0,2,-3
1533861137112234,0,-6,-34,-1,8,-5,-4,-3
1533861137112234,-1,-3,-6,-14,-19,-6,-3,-3
1533861137121210,-2,2,-32,-2,5,1,3,0
1533861137121210,-1,-1,10,10,-2,-1,-4,-2
1533861137128191,2,-2,7,-7,-4,0,-3,-1
1533861137128191,-1,-4,-17,-2,8,-2,1,0
1533861137130187,-1,4,7,-8,-8,-3,-4,-4
1533861137130187,0,-9,-4,2,6,-2,-1,-2
1533861137151133,-4,0,-10,-8,-19,-6,-1,-3
1533861137151133,-2,7,18,-1,0,4,2,-1
1533861137152128,-2,-4,-3,-1,-5,0,-3,-1
1533861137152128,2,2,34,15,4,2,1,0
1533861137174107,-3,0,3,-15,2,0,0,-3
1533861137174107,2,-4,1,12,-1,1,-1,0
1533861137175067,-1,1,-1,32,4,-1,2,1
1533861137175067,-11,-11,-91,-14,1,-3,-4,-4
1533861137188032,4,3,60,-11,-6,4,-1,3
1533861137188032,-2,-9,-12,-8,-3,-2,-5,-2
1533861137195012,-3,3,-9,-3,7,-4,-2,-2
1533861137195012,3,0,-6,10,0,0,-1,0
1533861137210984,-1,6,-16,1,-4,-2,-2,-4
1533861137210984,-2,1,-8,-6,1,-3,0,1
1533861137212966,-2,18,-62,-21,-5,-3,-2,-3
1533861137212966,3,-11,111,22,1,3,1,2
1533861137232915,-7,-14,-62,-23,-10,-5,-5,-4
1533861137232915,1,-9,31,9,6,-3,-3,1
1533861137234907,-2,-5,-28,-14,-5,-4,-2,-1
1533861137234907,0,2,-17,-15,-7,0,2,1
1533861137247875,-2,-3,-25,21,10,-4,-2,-2
1533861137247875,1,-1,-5,-5,-3,1,0,-3
1533861137254931,-1,-7,13,-22,-10,-1,-2,-4
1533861137254931,-1,2,-21,10,18,-2,-2,-1
1533861137279787,0,-2,21,-16,-29,-3,0,0
1533861137279787,-1,2,-9,0,4,2,-3,1
1533861137280806,2,-3,33,13,0,0,-1,-1
1533861137280806,-3,-3,-3,-31,-10,-3,-1,-1
1533861137292755,3,5,2,18,13,3,0,-2
1533861137292755,-5,-6,2,4,-10,-5,-2,-2
1533861137300734,-1,-2,16,-3,2,-5,-2,1
1533861137300734,0,-5,-40,5,4,-2,-4,-3
1533861137308726,-2,-7,0,12,-1,3,1,-1
1533861137308726,-1,0,-9,-19,-2,3,0,-2
1533861137314694,-1,-4,4,9,3,-1,-1,-3
1533861137314694,1,12,10,-9,-10,1,1,-2
1533861137338629,-2,-19,-35,1,5,1,0,2
1533861137338629,4,-2,82,21,7,-2,3,1
1533861137339626,-3,-10,-27,0,-3,1,2,0
1533861137339626,4,11,73,3,0,0,0,2
1533861137353589,-3,2,-18,-7,2,-4,-4,0
1533861137353589,-1,2,-7,6,-1,0,-1,-2
1533861137354587,-1,-3,-9,-4,-1,0,-6,-2
1533861137354587,-2,-4,-18,0,-5,-2,2,-2
1533861137367725,-1,-1,13,2,4,-2,-4,-2
1533861137367725,-2,2,-47,-9,-1,-2,-1,-5
1533861137376527,1,8,46,-5,-12,-1,-3,1
1533861137376527,-5,-6,-22,-3,4,-3,-6,-3
1533861137390671,-2,10,-31,-16,-3,0,-2,3
1533861137390671,1,-19,-56,-4,2,1,22,25
1533861137392486,0,4,92,14,5,-9,-24,-31
1533861137392486,0,2,-1,2,-3,1,-8,-1
1533861137413432,2,-9,63,-1,-1,2,6,-7
1533861137413432,-2,8,-10,-10,1,-6,-18,-6
1533861137415424,-6,2,-3,4,0,0,7,-4
1533861137415424,0,-14,4,6,-4,3,2,0
1533861137427391,0,7,8,-1,1,-3,-4,-11
1533861137427391,-3,2,-4,2,2,-2,3,4
1533861137434376,3,-1,-7,-9,-6,0,6,8
1533861137434376,0,3,-27,0,2,0,-3,-5
1533861137451331,-4,-4,-19,12,6,-4,3,6
1533861137451331,-3,-6,17,-4,-5,-1,-1,-6
1533861137452325,-2,-1,-32,-5,15,4,2,7
1533861137452325,-1,-1,-6,-17,-29,-4,2,-2
1533861137473326,-2,-2,4,1,11,0,-2,3
1533861137473326,1,2,20,11,9,2,-5,-6
1533861137475264,1,-4,-6,4,-7,-2,-2,-3
1533861137475264,-2,-1,-5,2,18,-3,3,4
1533861137488229,-2,0,8,-14,-7,-5,-4,-1
1533861137488229,-1,2,-24,-9,-20,-3,-9,-6
1533861137494234,-5,-5,-2,1,-12,0,4,6
1533861137494234,-2,-2,17,-7,16,0,-1,-2
1533861137511168,2,4,-12,1,-10,-3,-3,-3
1533861137511168,-2,-2,10,2,8,-3,0,-3
1533861137512165,-2,-4,-12,-9,-11,-2,1,4
1533861137512165,-1,0,2,8,-3,1,0,-2
1533861137532111,-1,-1,5,4,4,1,-1,-2
1533861137532111,-3,0,4,-7,-1,-4,-1,1
1533861137541088,-2,-3,-10,-4,-2,1,-1,1
1533861137541088,0,1,-12,7,-4,-2,-3,-2
1533861137548072,0,0,2,-11,6,-2,-2,2
1533861137548072,0,-3,5,3,1,2,-1,-3
1533861137555050,1,2,1,23,6,4,2,0
1533861137555050,-4,0,-22,-37,-17,-6,-1,0
1533861137571024,-2,-1,3,-1,-17,4,0,0
1533861137571024,0,-1,13,13,11,5,0,-3
1533861137572005,0,-2,-4,-9,11,-4,-2,-1
1533861137572005,-2,-2,-1,13,-13,-7,0,-3
1533861137592985,2,-2,4,-8,-7,1,-1,-2
1533861137592985,-1,0,-10,-50,-10,-5,-4,-2
1533861137594944,-1,0,-13,0,8,-2,1,1
1533861137594944,0,-2,-2,-11,-1,1,-3,-1
1533861137606912,1,3,3,19,4,0,-1,-1
1533861137606912,1,-1,1,-3,-3,-5,-1,1
1533861137615888,2,-2,-9,-4,0,-2,0,-2
1533861137615888,3,2,11,14,9,4,1,-1
1533861137631880,2,1,10,10,13,-2,2,2
1533861137631880,-1,-1,5,-2,-7,-1,-1,1
1533861137632844,-1,-9,7,4,-18,-1,-4,-3
1533861137632844,-2,-1,-11,-13,-3,-3,-2,-1
1533861137660771,-4,-5,-55,3,2,-3,-2,-3
1533861137660771,2,2,58,-7,12,3,0,1
1533861137662763,-5,1,-44,-1,-14,-1,-1,2
1533861137662763,-3,-5,4,10,18,2,3,3
1533861137666751,-2,1,-6,26,0,-2,-2,-2
1533861137666751,-2,-1,-15,-16,-11,-6,-4,-4
1533861137675744,-1,0,-6,0,7,-1,2,-3
1533861137675744,0,2,8,-5,-1,-4,1,-2
1533861137691684,-4,-2,21,5,-12,-2,0,2
1533861137691684,-4,-5,-29,22,-4,5,1,0
1533861137692681,0,2,14,-3,10,0,0,-1
1533861137692681,-2,-4,-8,-7,10,0,-5,-4
1533861137713626,2,1,12,1,-15,1,1,0
1533861137713626,0,-5,-15,18,-7,-2,2,-2
1533861137714652,2,3,-6,-9,-4,-3,-1,0
1533861137714652,-3,2,18,-9,1,-2,-2,0
1533861137726594,-3,-11,0,-4,24,3,-5,-2
1533861137726594,-4,0,-10,-16,-8,-7,0,-3
1533861137735567,0,0,1,-8,-4,3,0,0
1533861137735567,-3,-3,-11,0,-25,0,2,0
1533861137750528,0,17,11,-14,0,1,0,0
1533861137750528,2,-6,32,51,19,4,-4,-2
1533861137752524,-1,-4,-14,-9,-11,-3,-1,0
1533861137752524,0,3,20,-5,13,0,-2,0
1533861137773659,0,-4,-16,7,6,-5,0,-1
1533861137773659,-1,4,-15,34,3,1,-2,-3
1533861137775461,-3,1,46,21,-3,-5,-3,-1
1533861137775461,-5,-13,-24,-26,-17,-1,-3,-2
1533861137787493,0,-4,-9,-17,-1,2,0,-3
1533861137787493,2,1,-9,0,21,-2,-2,-1
1533861137796405,-2,-1,-4,-3,-21,-7,3,-1
1533861137796405,1,2,-3,12,18,10,-2,-3
1533861137818349,-1,-4,0,-25,-9,3,2,-2
1533861137818349,-4,-2,-8,-9,-16,-11,-3,-1
1533861137820342,-1,-1,-2,-6,28,7,-3,-3
1533861137820342,1,1,4,13,-9,-3,0,-2
1533861137833309,-4,-3,-2,-5,-17,-7,-4,-1
1533861137833309,-1,0,1,-2,-3,-3,1,-2
1533861137835300,2,16,2,-9,-1,-3,-3,-3
1533861137835300,-4,-28,19,-8,-7,-1,2,1
1533861137847270,-6,-9,-39,19,8,-3,0,3
1533861137847270,1,6,73,-12,-6,4,0,0
1533861137856244,0,-6,-5,-27,3,0,1,1
1533861137856244,-1,5,-8,39,-4,-6,-1,-1
1533861137871208,-1,-1,6,-9,-8,-4,-5,-4
1533861137871208,-2,-3,-25,-12,-4,2,-1,0
1533861137872201,-1,-4,-3,-7,4,-2,-2,-2
1533861137872201,0,5,-25,7,0,-1,0,0
1533861137893149,3,5,80,-2,-5,-2,-1,1
1533861137893149,0,-1,-24,-10,-4,0,-1,-2
1533861137895141,-1,-5,-2,6,5,-2,-1,0
1533861137895141,-1,2,-19,-5,-5,-2,-2,-2
1533861137916088,3,10,-8,0,-5,1,-3,0
1533861137916088,0,-9,-2,6,7,-1,-1,-1
1533861137917082,1,0,16,-16,-6,2,0,2
1533861137917082,1,2,2,-3,-3,2,5,3
1533861137931049,-4,-1,-16,-17,0,-5,-5,-6
1533861137931049,-3,2,-3,6,-10,-3,-1,1
1533861137932042,2,-3,-20,4,0,3,0,-2
1533861137932042,1,4,1,1,0,-2,-4,-3
1533861137952985,-1,-3,-1,-10,-7,2,3,4
1533861137952985,-2,-3,-22,-18,1,1,-2,-1
1533861137954987,0,-3,-4,31,-4,-2,-2,0
1533861137954987,0,8,7,-2,8,-3,-1,1
1533861137967157,-4,-3,-24,2,-4,-3,1,13
1533861137967157,1,-3,-3,0,-6,2,1,-8
1533861137975962,-4,-2,-4,-8,1,-2,-5,-7
1533861137975962,0,1,15,-4,5,-1,-2,-3
1533861137991090,-1,-3,-11,-6,-2,-2,-4,-3
1533861137991090,0,5,4,3,7,2,3,2
1533861137992913,-4,-2,-14,-8,-6,-7,-1,1
1533861137992913,-1,-6,-16,1,-13,-2,-1,-3
1533861138013826,-2,7,19,-1,-1,-4,-1,-6
1533861138013826,-2,-5,-1,3,2,0,0,1
1533861138014820,0,-1,9,-7,4,0,-1,-1
1533861138014820,1,-1,3,-16,-10,2,-2,3
1533861138035767,-2,-2,0,20,5,1,0,-1
1533861138035767,-2,3,-22,-5,-1,-4,-4,0
1533861138037762,0,0,16,5,-4,0,-1,-1
1533861138037762,-2,2,-48,3,0,-3,-2,-2
1533861138049936,-1,-9,13,-3,0,-1,1,0
1533861138049936,2,0,51,-3,-3,2,2,-1
1533861138057908,1,-22,-9,2,0,2,1,3
1533861138057908,-3,-4,-34,-3,-1,-5,0,-2
1533861138072693,3,6,67,11,9,8,4,-3
1533861138072693,-3,-9,-15,-2,-11,-4,-2,-1
1533861138073693,-4,2,-6,-6,2,-1,2,-1
1533861138073693,-4,0,23,0,3,-1,-3,-3
1533861138095608,1,-6,-2,5,9,-3,-3,0
1533861138095608,-3,0,-19,-17,-4,5,2,0
1533861138095608,0,10,24,11,-15,-4,2,0
1533861138095608,-2,-5,-44,-21,-13,-4,-3,-2
1533861138110567,-3,-2,-7,-11,-17,-8,-5,-3
1533861138110567,-5,-3,-51,4,9,-7,-2,-2
1533861138110567,2,-12,81,2,2,2,-1,0
1533861138110567,0,-2,17,14,8,5,4,2
1533861138132511,0,-3,-34,-14,2,-3,-2,-2
1533861138132511,-3,-3,-12,-3,1,-5,-4,-1
1533861138133503,0,4,-49,-4,1,-1,-1,-2
1533861138133503,1,0,26,10,-1,-1,0,-1
1533861138155459,-4,-1,6,-2,4,-2,1,-1
1533861138155459,2,5,4,3,-4,1,-1,-1
1533861138156450,0,3,-10,-3,1,1,-1,-2
1533861138156450,-3,0,25,11,2,-3,-3,-1
1533861138170407,-2,-1,-38,-20,4,3,-1,0
1533861138170407,-1,-3,7,12,3,-2,-2,-1
1533861138171402,-3,0,-12,23,-12,-2,1,2
1533861138171402,0,-5,0,-52,-25,-4,-5,-2
1533861138192345,0,-1,-12,24,6,5,1,-1
1533861138192345,-4,-8,-31,-15,-2,-3,-3,-2
1533861138193355,-4,-2,58,5,15,-2,-2,1
1533861138193355,0,-2,-2,14,5,2,-1,0
1533861138215284,3,-1,31,-4,-4,-1,-1,-2
1533861138215284,-4,-1,11,0,2,0,2,2
1533861138216281,-2,4,-28,-6,-2,-1,-4,-4
1533861138216281,3,3,2,4,-2,1,6,8
1533861138230245,-3,-2,-1,-5,3,-4,-9,-13
1533861138230245,0,4,10,5,0,-3,-2,-3
1533861138231242,-2,-6,-23,-12,-21,-1,-1,-1
1533861138231242,-2,0,11,4,4,-1,2,-3
1533861138253186,-3,-2,-13,5,5,-2,3,1
1533861138253186,1,2,9,1,-5,1,0,0
1533861138253186,0,-1,-15,1,5,-3,-4,-3
1533861138253186,-3,0,-15,7,12,-2,-4,-1
1533861138275323,-1,1,-86,-15,-18,-2,-1,-1
1533861138275323,3,-4,69,-7,0,3,0,1
1533861138276149,-2,-4,-25,-16,-5,-6,-3,-3
1533861138276149,-1,8,59,5,-1,-2,-2,-3
1533861138290094,1,2,5,27,4,1,2,3
1533861138290094,0,1,5,-14,4,5,1,0
1533861138291081,-2,0,47,5,-1,1,4,2
1533861138291081,-2,-2,-36,-6,-1,1,-3,-4
1533861138313037,1,5,18,-3,0,1,-2,-1
1533861138313037,-3,-3,-5,-3,-5,-5,-2,-3
1533861138314020,-4,-2,-23,4,6,0,-2,1
1533861138314020,1,-3,-5,2,1,1,-2,-3
1533861138334967,-3,-6,18,-2,-3,-3,-1,1
1533861138334967,1,-2,-22,-6,-2,1,-2,0
1533861138335961,2,13,2,3,5,0,-2,-2
1533861138335961,-3,-8,22,0,-10,-4,0,-1
1533861138349928,-3,-9,-50,4,3,-1,-1,0
1533861138349928,5,15,89,10,-4,-1,0,0
1533861138350921,0,-7,-42,-9,0,1,-1,1
1533861138350921,-2,-1,-23,-5,4,-4,-1,2
1533861138372862,0,4,42,2,0,3,-1,-1
1533861138372862,-2,-13,-28,18,0,0,1,0
1533861138373860,-2,-1,-15,-10,6,-5,0,-1
1533861138373860,-3,-6,-4,13,-7,0,-3,-3
1533861138394805,0,-5,-4,8,-1,1,1,-2
1533861138394805,0,3,-27,-11,0,-2,-4,2
1533861138395802,0,-1,20,4,2,-3,0,-1
1533861138395802,1,-4,-13,-5,1,2,-2,-1
1533861138409767,0,7,7,-11,1,-1,-2,-2
1533861138409767,-2,-1,-8,13,0,-3,-1,-3
1533861138410761,0,-3,-12,-19,-5,2,-2,-2
1533861138410761,0,4,2,-4,3,1,-3,-2
1533861138432706,-4,-1,-1,-8,-4,-5,-1,1
1533861138432706,-2,1,-8,-2,2,-1,-2,-4
1533861138433701,0,-5,-5,0,-2,-1,-1,-3
1533861138433701,1,8,-21,9,3,-2,1,-3
1533861138455684,1,-13,77,-3,-4,3,3,1
1533861138455684,-3,-12,28,-10,-2,-7,-3,-2
1533861138455684,-3,0,37,-4,-3,3,1,-2
1533861138455684,-1,-1,14,5,-1,-4,1,1
1533861138470632,-1,0,-19,0,3,-2,-3,-2
1533861138470632,-2,0,-43,-4,-8,-2,-2,-4
1533861138470632,-3,-5,-11,5,5,-5,-3,0
1533861138470632,-3,-6,7,3,1,1,-1,-1
1533861138492546,-1,-2,-31,-10,-6,2,0,-2
1533861138492546,-1,-1,-9,-4,2,-3,-3,-1
1533861138493545,-3,3,-10,2,6,0,-1,-2
1533861138493545,0,-2,-2,-1,-7,-2,0,-2
1533861138515481,0,-1,-12,-11,-15,1,0,0
1533861138515481,-1,4,3,-7,-2,1,2,1
1533861138515481,-1,-2,1,20,1,-1,-1,0
1533861138515481,-3,-2,-10,-14,-5,2,-1,1
1533861138530460,-1,2,11,6,-2,-4,0,-1
1533861138530460,-2,-5,-17,-27,0,-1,-2,-3
1533861138531440,1,-1,-32,-17,-39,-4,-2,-1
1533861138531440,3,15,86,28,18,-3,-4,-3
1533861138552386,-4,-22,5,13,-8,-3,-1,-1
1533861138552386,0,4,10,10,0,1,2,0
1533861138553380,2,3,1,-3,7,-2,-1,0
1533861138553380,-4,-6,-41,-13,1,-4,0,-1
1533861138575527,1,11,-7,6,3,1,-2,-1
1533861138575527,4,1,3,0,0,3,-2,2
1533861138576325,-4,-7,-18,-9,7,2,2,-1
1533861138576325,0,-1,1,-1,-5,3,-1,2
1533861138589284,0,3,-4,-6,5,-1,-2,-3
1533861138589284,-1,-6,-34,-3,-9,-4,0,-2
1533861138598260,-2,3,11,8,-1,-6,-2,-1
1533861138598260,1,-2,-2,2,-9,-2,0,-3
1533861138612225,2,2,6,-3,2,-1,-2,0
1533861138612225,-3,5,-81,5,8,-6,-4,-3
1533861138613237,-5,-12,-8,-1,-3,3,-1,-2
1533861138613237,1,-6,8,14,2,2,0,2
1533861138635165,-2,9,49,0,9,-4,-1,0
1533861138635165,1,1,-8,0,-17,0,-2,-1
1533861138636159,4,-4,-14,-6,1,2,-1,-1
1533861138636159,-3,-8,-18,6,-3,1,1,-1
1533861138649324,1,6,-17,-5,0,3,2,-1
1533861138649324,-9,-13,-25,-18,-8,-5,-4,-3
1533861138658103,0,2,19,-1,-2,-5,-1,-1
1533861138658103,-3,0,-6,-7,-4,-6,-3,-3
1533861138673063,0,-3,-15,-19,6,2,-4,0
1533861138673063,1,3,35,6,-15,1,2,0
1533861138673063,-3,-5,-3,3,-7,0,-2,0
1533861138673063,-3,-1,-9,-1,0,-2,-3,-5
1533861138695001,-3,-2,-15,19,6,-6,0,-3
1533861138695001,2,2,26,-8,-7,2,1,3
1533861138696015,-2,0,-10,-7,16,3,-1,0
1533861138696015,1,0,11,27,2,1,1,3
1533861138709962,-4,-6,-15,-32,-3,-2,-3,-3
1533861138709962,-2,-2,13,9,6,-5,-2,-1
1533861138717941,2,3,2,-1,-3,1,1,0
1533861138717941,1,4,2,-10,9,1,-1,-1
1533861138732903,0,3,10,65,7,-4,-2,-2
1533861138732903,-4,-11,-90,-69,-19,-4,-6,-4
1533861138733897,-2,-4,11,16,1,1,-4,0
1533861138733897,-2,-6,-27,-2,-14,-7,-5,-2
1533861138754844,-2,2,14,13,5,3,5,3
1533861138754844,-1,0,9,-7,-12,-1,2,1
1533861138755839,0,1,-10,0,5,5,3,-2
1533861138755839,-1,1,-4,-31,5,4,4,6
1533861138769811,-2,-3,-17,4,-10,1,1,-1
1533861138769811,3,4,33,24,12,3,-1,-1
1533861138777783,-2,0,-1,-3,-4,-10,-3,-4
1533861138777783,0,-3,8,1,2,-3,-1,-3
1533861138792740,0,-4,-46,-18,-3,-2,-3,-2
1533861138792740,1,-4,17,9,7,-3,-3,0
1533861138793737,-1,4,14,6,-3,-4,-4,-5
1533861138793737,2,1,-31,-15,1,7,5,4
1533861138815678,0,-4,-9,3,-8,-4,-5,-2
1533861138815678,-3,-1,14,19,12,-2,-1,-2
1533861138815678,0,2,-2,-23,-9,2,-1,1
1533861138815678,0,-2,2,3,-1,10,1,1
1533861138829642,-5,-3,3,-15,1,0,4,1
1533861138829642,-1,0,11,18,11,4,0,-3
1533861138837623,0,0,4,1,-10,-8,0,-2
1533861138837623,-3,-2,3,-9,-1,-8,-4,-4
1533861138852602,-1,0,1,-11,-6,-3,-3,-2
1533861138852602,1,0,12,5,0,1,-1,-2
1533861138853580,1,-3,-5,-4,5,-3,-1,0
1533861138853580,-1,-1,3,-3,-3,-4,-1,-2
1533861138875521,0,1,2,0,-1,0,-2,-2
1533861138875521,-2,2,0,3,3,0,0,0
1533861138876520,-3,-1,-2,1,1,-1,1,0
1533861138876520,-1,-1,4,5,2,-1,-4,-3
1533861138889484,1,-1,6,-5,3,-3,-1,-1
1533861138889484,-3,1,5,0,7,1,-1,0
1533861138897459,0,1,-3,-1,0,-1,-2,1
1533861138897459,-2,-1,0,-8,-39,-7,1,0
1533861138912420,-3,-2,-5,-5,5,-2,-3,-4
1533861138912420,-3,-1,2,-2,-15,3,7,3
1533861138913417,1,2,-1,10,10,9,0,2
1533861138913417,0,-1,-2,-5,12,-2,-3,-2
1533861138935358,-2,1,-1,-6,-2,-3,-1,0
1533861138935358,2,-1,2,4,-2,-1,-3,-3
1533861138936356,-2,-1,-2,2,-1,-4,-2,-3
1533861138936356,-5,-2,-1,-2,3,-7,-2,-4
1533861138957333,2,-2,-1,-1,-7,4,2,2
1533861138957333,0,-1,2,2,6,5,-2,0
1533861138965312,-1,-1,-2,-4,1,-2,0,0
1533861138965312,0,-1,1,-1,-3,0,-3,-3
1533861138973361,2,-2,-2,-2,-3,0,0,-3
1533861138973361,-1,-2,-4,-2,3,-5,-2,1
1533861138973361,-4,0,-3,0,-5,-4,-3,-2
1533861138973361,0,1,1,2,-1,1,-1,-1
1533861138997196,-2,-1,0,-5,3,-5,-4,-1
1533861138997196,-5,-3,0,-5,0,-8,-1,-1
1533861138997196,0,1,1,1,-8,4,-2,-1
1533861138997196,2,-2,-2,2,3,3,-1,-1
1533861139018140,-6,0,0,-5,2,-1,0,-1
1533861139018140,1,0,0,-1,-2,4,0,-2
1533861139019134,2,-3,-2,1,-2,-1,-1,-2
1533861139019134,-3,0,1,0,3,-2,2,1
1533861139033100,-3,-1,-1,-4,-3,-3,-4,0
1533861139033100,3,-1,0,0,-2,1,-2,-2
1533861139033100,-3,-2,-3,-2,4,-6,2,0
1533861139033100,-3,-2,1,-3,6,-6,-3,-2
1533861139055084,5,-1,0,-2,-9,4,0,-1
1533861139055084,0,-1,-2,-3,0,-5,-1,-3
1533861139056037,-5,-1,-2,-3,3,-4,0,0
1533861139056037,0,-1,-1,-1,-5,4,0,0
1533861139078980,1,-1,2,-1,-3,1,-1,0
1533861139078980,-2,-2,-2,1,-1,-4,-2,-2
1533861139078980,-1,-1,0,0,0,-2,-2,-2
1533861139078980,3,0,-1,0,-6,-1,-3,-3
1533861139092940,-2,-3,-1,-2,4,-4,1,-1
1533861139092940,-4,-1,2,2,13,0,4,3
1533861139093934,3,2,2,-4,-19,5,-1,0
1533861139093934,1,-1,-3,-1,7,-2,0,1
1533861139115875,-6,-2,-3,-6,-7,-5,-1,-2
1533861139115875,-1,0,-2,3,-4,1,-3,-6
1533861139115875,2,1,0,2,3,0,-1,1
1533861139115875,-3,-2,1,1,11,-5,-1,-2
1533861139138815,-3,-2,-3,-5,-4,0,1,0
1533861139138815,2,-2,-2,-3,-16,1,0,1
1533861139138815,-4,-7,-44,-7,1,-4,0,-1
1533861139138815,-3,-1,12,-2,3,-5,0,-1
1533861139152777,5,4,4,-1,-1,5,-5,-2
1533861139152777,2,-1,-3,3,-8,-2,-1,0
1533861139153774,-2,-3,-3,0,5,-8,-3,-1
1533861139153774,0,0,-5,-4,-6,6,3,0
1533861139175884,3,-1,-2,3,-1,1,-1,-2
1533861139175884,-2,1,6,-2,12,-5,-1,2
1533861139175884,-1,-2,4,-2,-4,1,-1,-2
1533861139175884,3,3,-3,4,2,0,-6,-2
1533861139198683,-3,-1,3,-1,-14,-9,0,-1
1533861139198683,-3,0,0,-1,4,-3,-1,0
1533861139199651,3,-1,5,2,-6,5,4,0
1533861139199651,-2,-2,0,-3,-2,-2,0,-2
1533861139212617,-5,0,-12,0,6,-7,-2,0
1533861139212617,4,1,2,-2,3,0,-4,-3
1533861139213614,0,1,9,-1,1,-2,-2,-2
1533861139213614,-2,4,-22,-3,1,1,2,1
1533861139235556,-1,-3,4,0,-3,3,-1,1
1533861139235556,2,-2,0,1,-1,4,1,-1
1533861139235556,-3,-1,8,-4,-3,-7,-3,-2
1533861139235556,-3,-5,-3,0,8,-3,-1,-1
1533861139258494,3,0,3,-4,-9,6,4,3
1533861139258494,-2,8,3,-10,3,-2,-4,-1
1533861139259497,-5,-10,6,5,3,-1,0,-2
1533861139259497,-1,1,3,-6,1,4,-3,-3
1533861139272460,0,-2,-4,-1,-8,-2,0,0
1533861139272460,-2,0,5,3,5,-5,0,0
1533861139273454,-3,0,-4,0,-4,-1,0,-1
1533861139273454,1,-1,-2,-4,-17,-1,-1,-2
1533861139295395,1,0,5,-2,16,-8,-4,-2
1533861139295395,-4,-4,-18,-3,1,-2,1,-1
1533861139296402,2,4,5,1,5,8,0,2
1533861139296402,-2,-5,0,-4,-23,-14,-2,-2
1533861139318337,-5,-2,-10,-5,-2,2,1,0
1533861139318337,-1,-4,-1,3,-3,4,0,-2
1533861139319332,1,0,3,-8,-17,-9,-3,-3
1533861139319332,-1,2,-1,-2,9,0,-1,0
1533861139333303,1,-1,22,5,-1,2,-2,0
1533861139333303,-2,4,-6,3,2,0,-5,-3
1533861139333303,0,-3,-2,3,9,1,1,-1
1533861139333303,0,0,36,2,-7,-2,0,0
1533861139355235,0,-2,-10,4,5,0,-2,-3
1533861139355235,-2,-3,-1,0,-8,-4,3,-1
1533861139356232,-2,4,2,2,3,1,0,0
1533861139356232,-3,-3,-11,6,0,0,-3,-3
1533861139378424,-3,0,-4,3,2,3,0,-2
1533861139378424,-2,-2,7,1,7,-3,-2,0
1533861139379422,-3,-1,-10,0,-12,-5,-3,-2
1533861139379422,0,-2,-6,6,-7,3,-1,0
1533861139392390,0,0,0,12,-1,-4,-3,0
1533861139392390,1,-3,-4,4,-2,1,1,0
1533861139393384,0,-5,-7,-12,15,1,-4,-2
1533861139393384,-1,-1,-1,-6,-3,2,0,-1
1533861139415326,2,1,-3,-17,-4,-5,-4,-3
1533861139415326,-4,-3,-3,-7,-13,-2,1,-2
1533861139416323,1,-1,3,0,8,4,0,-1
1533861139416323,-2,0,1,-7,17,1,1,-2
1533861139438267,-2,-1,-7,-9,-11,-4,0,0
1533861139438267,-4,-2,2,-5,-2,0,-4,-2
1533861139439261,-3,0,1,1,-2,-3,0,-1
1533861139439261,-3,-4,-9,-1,0,-5,0,-1
1533861139453225,-5,-2,-1,5,9,1,0,-2
1533861139453225,-3,-4,-3,-4,-7,0,-2,-2
1533861139453225,-3,-1,1,2,-4,-1,-2,-1
1533861139453225,-3,0,-1,2,-1,0,-1,-2
1533861139475168,1,-3,-3,-2,-1,-3,-1,-1
1533861139475168,-1,-1,0,-4,-2,-1,1,0
1533861139476171,0,1,2,0,3,-1,1,0
1533861139476171,0,-1,-3,5,-6,-1,0,0
1533861139498117,0,-1,-1,2,3,1,-1,0
1533861139498117,-1,0,-1,1,3,-3,0,0
1533861139499120,1,-1,-2,-2,1,4,0,0
1533861139499120,1,-1,-1,-2,-1,0,-1,0
1533861139513063,-1,0,1,-1,-11,-3,-2,-3
1533861139513063,-1,-3,-3,0,-5,-2,-3,0
1533861139514079,-1,0,1,0,0,-2,-3,-3
1533861139514079,-2,-2,0,-2,3,0,0,0
1533861139535032,-2,-2,-2,-3,8,1,-1,1
1533861139535032,-2,-2,0,1,-1,-4,-1,-2
1533861139536009,-4,-1,-3,-1,-2,-5,-7,-1
1533861139536009,-1,-1,-5,-1,-4,-2,0,-2
1533861139559090,-1,-1,1,0,-3,1,1,2
1533861139559090,2,0,-4,-1,-3,0,2,0
1533861139559090,-5,-6,-3,-1,-3,-5,1,-3
1533861139559090,-5,-3,3,1,2,-3,-3,-2
1533861139571906,-2,-2,-3,0,8,1,1,-1
1533861139571906,3,1,4,-3,2,7,2,1
1533861139579886,-1,-3,-4,-5,-18,-1,1,0
1533861139579886,-1,1,-3,-7,-6,0,-1,-3
1533861139594870,-3,0,0,-5,-2,-1,-2,-2
1533861139594870,-2,-1,-7,31,15,-1,2,3
1533861139595844,3,-1,-4,35,-9,3,1,2
1533861139595844,4,1,1,26,-3,0,1,0
1533861139618781,-3,-4,-5,0,2,-6,-1,-2
1533861139618781,-3,-2,-3,-21,-5,-6,-1,-4
1533861139618781,1,0,3,-21,0,3,1,0
1533861139618781,1,-2,-3,-23,-1,-3,-4,-1
1533861139631747,0,1,0,-17,0,-3,-1,0
1533861139631747,-3,-3,1,-10,3,-1,-3,-2
1533861139640723,-3,0,2,-10,8,2,0,-2
1533861139640723,-4,-4,-6,-11,-3,-7,-3,0
1533861139655712,3,0,6,-2,-6,2,-1,1
1533861139655712,1,-1,-3,1,-15,-1,-2,0
1533861139655712,0,-2,-5,1,-6,-5,-2,-1
1533861139655712,-2,1,1,7,9,3,-1,-2
1533861139677623,-3,-4,-3,11,2,-1,1,0
1533861139677623,-1,-1,0,3,-2,-3,-1,-1
1533861139678621,-1,-2,0,-3,4,-3,-1,-2
1533861139678621,-1,0,-1,-2,-2,1,0,0
1533861139691626,0,-2,-1,1,-5,1,0,-2
1533861139691626,-2,-2,-2,-6,-3,3,0,-1
1533861139700584,-1,0,2,-6,4,-2,-3,-2
1533861139700584,1,1,-1,-8,2,-3,-6,-2
1533861139715526,-4,-4,-8,4,-10,-1,-2,-1
1533861139715526,1,3,2,-5,6,1,-1,-1
1533861139715526,-1,0,-1,-1,5,-1,-2,-1
1533861139715526,-1,-1,2,-1,-2,-1,-1,0
1533861139738465,1,0,1,-1,-6,-2,-1,0
1533861139738465,-1,-2,-3,-3,-2,-4,-5,-1
1533861139739459,-2,1,0,4,4,1,0,-1
1533861139739459,1,-1,7,-2,-10,-2,1,1
1533861139752428,-1,-1,2,2,8,6,-1,0
1533861139752428,-1,-2,-2,0,0,-3,-3,-2
1533861139760571,0,-1,-8,-6,1,2,4,1
1533861139760571,0,1,-2,-4,-2,2,6,5
1533861139775367,-2,-2,13,-4,-3,-5,-4,-2
1533861139775367,-1,-1,13,-14,-9,-4,-1,-1
1533861139776364,-1,-2,1,0,-1,-1,-5,-3
1533861139776364,2,1,-9,-4,3,-2,-2,-2
1533861139798304,-2,-2,-32,6,-5,-2,0,0
1533861139798304,-1,4,-17,3,6,-1,-1,-1
1533861139799298,-2,-5,-23,0,-10,-4,-4,-2
1533861139799298,0,0,-16,-3,0,-1,-1,1
1533861139812277,0,5,-4,-4,3,6,4,3
1533861139812277,-2,-1,-14,7,6,-1,-1,0
1533861139820445,2,2,0,-5,-7,2,-2,-3
1533861139820445,-2,-4,16,3,2,-1,-1,-2
1533861139835401,0,-1,24,-11,0,-2,-3,-2
1533861139835401,-1,-2,71,-1,-1,2,2,0
1533861139836212,-3,-1,50,-2,2,-3,-2,-3
1533861139836212,-4,-8,10,-1,-6,-2,-3,-5
1533861139858141,-1,-1,-13,-2,-8,-4,-1,-2
1533861139858141,-2,-3,-22,0,-4,-1,-1,-2
1533861139859154,-1,-1,-16,0,1,1,1,1
1533861139859154,-1,1,22,5,3,-1,-3,-2
1533861139872107,0,-3,-10,-3,3,0,0,-1
1533861139872107,-1,0,-17,-5,0,-1,-5,-3
1533861139880085,-2,-2,-56,1,-2,-2,0,3
1533861139880085,-2,-2,-60,0,-1,1,0,1
1533861139895044,-1,0,-14,0,-2,-1,-1,-1
1533861139895044,-2,-1,12,1,-6,-4,-1,-3
1533861139896042,-1,-1,-2,-1,-1,-4,0,-1
1533861139896042,1,2,68,0,1,2,0,-1
1533861139917984,-3,-5,44,8,-3,-7,-6,-4
1533861139917984,-2,-4,-4,-2,-8,-2,0,2
1533861139918984,0,0,-20,-2,0,1,2,-2
1533861139918984,-2,-3,-71,0,4,-3,-1,-2
1533861139940923,-3,-2,-56,-2,-10,-5,-2,-5
1533861139940923,-1,-2,-19,-2,1,1,1,-1
1533861139941918,0,-1,-20,5,3,2,3,1
1533861139941918,-3,1,-38,-7,-3,-3,-2,1
1533861139954886,-2,-1,-11,1,2,-4,-2,0
1533861139954886,-2,-2,-5,-4,-11,-2,-3,0
1533861139955880,-1,0,57,-7,-6,-2,-2,0
1533861139955880,2,2,88,3,3,1,4,-1
1533861139978819,-2,0,49,-1,0,0,1,-3
1533861139978819,-3,-3,7,6,1,-1,-7,-1
1533861139978819,2,2,119,-2,6,6,5,2
1533861139978819,-2,-2,89,1,-8,-2,-8,1
1533861140000795,3,0,39,-10,2,4,3,0
1533861140000795,0,0,-74,-2,2,2,3,-2
1533861140001790,0,-2,-119,-3,-4,-6,-2,-5
1533861140001790,-2,1,-128,-6,-1,-1,-1,-3
1533861140015755,-2,-2,21,3,2,0,-2,-1
1533861140015755,0,2,127,1,2,0,1,0
1533861140015755,0,0,117,0,-4,-4,-2,0
1533861140015755,-2,-6,48,1,-2,-1,3,-1
1533861140038690,0,4,-20,1,2,-3,-2,1
1533861140038690,-6,-6,-47,-4,-4,-2,-1,-6
1533861140039703,-1,-5,-46,3,2,0,-2,1
1533861140039703,-1,1,-37,-1,-1,-3,-3,-3
1533861140060632,-2,3,-38,2,5,2,0,-2
1533861140060632,1,2,-2,-2,4,-1,0,2
1533861140061640,-3,2,-52,-11,-18,-8,-2,-4
1533861140061640,-1,-5,-27,-3,1,0,-1,4
1533861140075591,-1,-3,3,-9,4,1,1,-4
1533861140075591,-3,-1,-29,-1,-1,0,0,1
1533861140076589,-1,1,-21,6,10,-1,-2,2
1533861140076589,0,1,7,-4,0,0,1,2
1533861140098530,-4,-6,-17,1,-1,-5,-4,-5
1533861140098530,-3,0,-15,-4,-3,-5,-1,-2
1533861140099528,3,1,-9,3,12,-1,2,3
1533861140099528,-5,-7,-2,-6,-27,-2,-1,-5
1533861140121472,-1,-1,-27,-1,-1,-1,-5,-5
1533861140121472,0,0,-11,-3,1,-1,0,0
1533861140121472,-3,-3,-8,-1,1,0,-2,-2
1533861140121472,0,-3,6,4,5,-1,-1,-1
1533861140135434,-3,-4,3,-3,-6,-3,-2,0
1533861140135434,-2,-1,15,-2,-1,0,-3,-3
1533861140136438,0,-2,4,-3,0,-2,0,1
1533861140136438,0,-4,-12,3,1,-3,-2,0
1533861140158373,-2,-1,0,9,-4,1,0,-3
1533861140158373,1,0,16,10,-1,-1,-1,-4
1533861140159368,-2,-2,2,3,-2,-2,-2,0
1533861140159368,-3,3,3,8,3,2,0,-6
1533861140181309,4,-2,-16,-5,-4,1,4,6
1533861140181309,-1,-1,8,5,-6,-3,-1,4
1533861140182308,-7,-6,-28,-2,-6,-2,-4,-10
1533861140182308,-1,1,6,-4,-1,-3,-6,0
1533861140203253,3,2,27,1,4,1,2,7
1533861140203253,-1,-2,-4,1,-2,-3,-2,-2
1533861140204247,-5,-2,12,0,1,3,-5,-9
1533861140204247,4,2,2,2,5,0,1,3
1533861140218213,-1,-2,-15,-1,-4,-5,-4,-2
1533861140218213,-6,-6,-5,-7,-2,-2,-1,-2
1533861140219220,4,4,-12,-2,-1,2,1,7
1533861140219220,-2,1,-6,-3,1,-1,1,-2
1533861140241148,0,0,-18,-2,-2,-4,0,3
1533861140241148,1,-1,-15,0,-1,-1,-1,-3
1533861140242146,-2,-1,-23,-10,-6,-4,-3,-3
1533861140242146,-2,-1,-5,-1,0,1,1,-4
1533861140255145,-1,-2,-2,-4,-4,-2,-2,-3
1533861140255145,-1,0,-8,-2,-3,-3,-3,-4
1533861140256109,3,-1,1,6,4,8,-1,7
1533861140256109,3,3,13,8,8,1,2,-1
1533861140278050,-6,-4,-36,-4,-12,-2,2,-4
1533861140278050,1,3,4,8,11,1,-1,1
1533861140279062,-2,-3,14,2,-6,-5,0,-5
1533861140279062,-7,-6,-21,-6,-5,-4,-3,1
1533861140300992,3,3,-3,2,4,3,3,8
1533861140300992,-3,-2,-8,-3,-3,-2,1,-1
1533861140301987,-4,-7,-7,0,-1,-4,-6,-10
1533861140301987,1,5,-9,-1,-2,-1,-1,-1
1533861140314955,-2,2,-5,0,2,-2,-5,-7
1533861140314955,7,1,-10,2,1,2,2,7
1533861140315948,4,-2,6,-1,-1,-4,1,4
1533861140315948,-12,-3,-26,-9,-2,-1,-2,-4
1533861140338891,7,7,19,9,11,3,2,5
1533861140338891,-4,-5,-14,-7,-5,3,-1,0
1533861140338891,-2,-1,0,2,-1,-2,-3,-3
1533861140338891,1,-6,-7,7,-3,-4,-1,-1
1533861140360832,-2,-3,-19,0,0,1,1,-3
1533861140360832,1,1,14,4,13,-2,-4,-4
1533861140361827,0,-1,-13,-10,-5,-5,-1,-2
1533861140361827,2,0,4,0,-14,-2,1,0
1533861140375830,-5,-4,-5,2,0,-5,-3,-2
1533861140375830,-6,-2,-6,0,-7,-3,-3,-7
1533861140375830,3,0,-3,0,7,3,3,8
1533861140375830,1,6,17,5,7,2,-3,2
1533861140398730,8,6,-18,-24,-4,-1,-4,-3
1533861140398730,-5,-5,2,-10,1,-1,-2,-2
1533861140399746,11,-1,-24,1,-4,-5,-1,0
1533861140399746,-25,-8,-24,-8,2,1,3,2
1533861140420668,7,-4,8,-13,-9,-8,-9,-1
1533861140420668,-4,-1,2,-1,2,2,1,-3
1533861140421666,-10,-1,24,-3,-4,0,-4,-7
1533861140421666,6,-6,-43,-26,-11,-8,-2,-4
1533861140435631,-9,-4,1,-3,0,-1,-8,0
1533861140435631,2,-2,-7,-8,-2,2,1,5
1533861140435631,-5,-2,-1,-1,0,0,1,-2
1533861140435631,5,1,18,-1,2,0,2,-2
1533861140458570,-4,-4,6,7,1,5,7,4
1533861140458570,0,0,-1,2,-2,-3,-5,-5
1533861140459565,2,3,-7,-1,-1,-2,1,4
1533861140459565,2,-1,1,8,4,-1,0,0
1533861140480509,-3,-5,-22,0,-2,-5,-1,-6
1533861140480509,3,-1,-30,4,-2,-1,1,0
1533861140481506,-3,-2,-5,6,3,4,1,2
1533861140481506,1,-2,9,14,-3,-3,-5,0
1533861140495484,-6,-6,-18,-1,-3,-3,0,-3
1533861140495484,4,3,6,6,-2,-1,3,5
1533861140496483,-5,-1,0,0,-3,-1,-1,-2
1533861140496483,3,0,3,3,-3,-3,-2,-3
1533861140518410,2,2,21,7,1,0,-2,-3
1533861140518410,-3,-1,0,2,-3,-1,-2,-1
1533861140520402,-1,-3,-17,-12,-1,-1,-3,-3
1533861140520402,0,0,0,3,5,0,-1,0
1533861140541346,-3,1,9,2,-1,0,1,0
1533861140541346,-1,-1,-5,-7,-5,-4,-2,-2
1533861140542347,6,7,-10,0,4,-2,0,5
1533861140542347,-5,-4,13,2,1,2,-2,-4
1533861140554311,3,7,2,-2,1,-1,-1,1
1533861140554311,-2,-4,-8,-5,-3,-2,2,-1
1533861140563287,-5,-1,-5,-1,-2,1,-2,-5
1533861140563287,4,4,5,1,0,4,2,1
1533861140577253,0,-2,-11,2,5,1,-1,3
1533861140577253,1,0,4,0,0,-2,-2,1
1533861140586226,-2,4,14,0,-4,-3,2,3
1533861140586226,-1,-1,-8,-2,-1,-2,0,-4
1533861140601189,-4,-3,2,-2,1,0,-2,-2
1533861140601189,-1,2,-4,0,2,-4,-3,-2
1533861140602184,-4,-5,2,1,-2,0,1,-1
1533861140602184,1,-4,-18,-10,-10,-5,-6,0
1533861140615212,0,0,10,-8,4,3,0,0
1533861140615212,-1,-1,-2,-1,2,4,-2,-1
1533861140623128,-1,-1,8,9,2,-1,-3,-2
1533861140623128,3,7,12,-3,-9,-4,1,0
1533861140639084,-3,-3,2,2,-6,-1,0,-3
1533861140639084,-2,-3,0,-3,-2,-1,2,0
1533861140640109,-1,-3,-17,-5,0,-1,-4,-2
1533861140640109,0,2,-2,1,8,0,2,1
1533861140661029,-7,0,-2,-2,-3,-6,-3,-6
1533861140661029,-1,-1,-2,-2,-3,-3,-2,0
1533861140663020,0,-1,-3,0,5,3,0,4
1533861140663020,-1,-2,-3,-7,0,2,2,2
1533861140675207,-1,-3,4,2,-2,-1,-2,-4
1533861140675207,-1,1,15,6,0,-4,-3,-3
1533861140683981,3,-1,-10,-4,-1,3,5,4
1533861140683981,-2,-5,-12,0,-2,-2,-3,-5
1533861140698924,-1,-4,-2,2,1,-1,0,0
1533861140698924,-1,1,0,2,-1,1,-1,-1
1533861140699931,-1,0,4,-1,-6,-5,-3,-1
1533861140699931,-1,-2,14,9,18,3,-2,-1
1533861140720869,2,-1,-10,-3,-7,-6,-2,-2
1533861140720869,1,-3,-20,-14,-19,-1,-1,-1
1533861140722860,-8,-1,0,-3,-5,-1,-1,-7
1533861140722860,1,2,-12,-2,-4,1,0,0
1533861140734832,-4,-11,-10,-3,9,1,-3,0
1533861140734832,4,9,2,-2,3,0,-1,-1
1533861140743805,-3,-5,-5,-2,-3,-2,-2,-3
1533861140743805,7,4,5,2,6,-3,-7,3
1533861140757942,2,4,3,2,-2,1,4,0
1533861140757942,-3,-1,-4,-5,-1,-4,-7,2
1533861140764795,-2,-2,-18,-1,1,5,2,0
1533861140764795,-5,2,-3,1,-5,-4,-4,-1
1533861140780726,0,3,-19,-2,-9,0,4,2
1533861140780726,-3,1,7,8,5,-2,1,-6
1533861140782708,1,2,7,-3,2,-2,-3,-2
1533861140782708,-4,-7,-22,-8,-11,-6,-4,-2
1533861140794668,-3,0,-13,-1,-2,1,-1,-1
1533861140794668,-3,2,-5,4,2,1,2,-3
1533861140803645,2,2,7,2,1,-2,-2,-2
1533861140803645,1,0,7,-2,-1,2,3,-1
1533861140817750,-1,0,28,8,2,-2,-1,-3
1533861140817750,-1,-6,-19,-5,-3,-1,-1,-1
1533861140824777,3,-4,0,0,-4,-3,-1,-1
1533861140824777,-4,-1,0,-1,-4,-3,-1,-1
1533861140840689,-2,1,18,2,2,1,-2,-3
1533861140840689,2,0,-6,-6,1,-1,0,2
1533861140842681,0,-2,1,-4,-2,1,-3,3
1533861140842681,-5,-10,-24,-9,-1,-2,0,-6
1533861140871622,0,-1,17,3,-3,-3,-4,-2
1533861140871622,-4,-4,-5,2,-1,3,2,-3
1533861140872600,-2,-1,-24,-1,0,-6,-5,-1
1533861140872600,-3,0,-6,-3,5,-1,2,2
1533861140877587,-2,3,-5,-3,2,1,1,-2
1533861140877587,-4,5,-7,-14,-10,-4,-1,2
1533861140885566,-4,24,12,0,3,0,-2,-4
1533861140885566,-1,34,18,-1,-1,2,0,0
1533861140900529,-2,28,-20,-15,-7,-6,-2,-1
1533861140900529,3,14,3,2,2,-2,0,0
1533861140902521,2,-1,8,9,2,1,0,-2
1533861140902521,0,-16,2,2,-2,-2,-3,-2
1533861140923467,0,-20,0,3,0,1,1,-1
1533861140923467,2,-19,5,5,-2,2,0,0
1533861140925459,2,-20,6,0,-3,-4,2,0
1533861140925459,0,-21,-15,-7,-5,-3,-3,-1
1533861140937427,-1,-16,0,-2,2,2,-2,1
1533861140937427,-1,-14,0,2,0,-2,-2,-1
1533861140944408,-1,-11,1,2,-3,-1,1,-4
1533861140944408,-2,-9,-9,-6,-6,-4,-1,-5
1533861140961363,-1,-7,8,-1,-2,2,0,1
1533861140961363,-3,-9,-2,4,11,1,-2,-2
1533861140962360,-1,-7,-12,2,16,1,1,0
1533861140962360,0,-4,-13,-7,-30,-11,-2,-1
1533861140983305,-3,-4,5,-4,-10,-1,-3,-3
1533861140983305,-3,-2,-4,0,0,1,-1,-2
1533861140985300,-2,-1,1,-3,1,-1,-2,-1
1533861140985300,-1,1,31,21,21,5,-2,-2
1533861141006257,-3,-4,-39,-19,0,-5,0,-2
1533861141006257,-2,1,-3,-14,-5,-3,-1,-2
1533861141007241,-2,0,-4,-13,-4,-1,0,0
1533861141007241,-1,-1,5,6,7,3,0,1
1533861141021409,-3,1,7,-6,0,-2,3,-1
1533861141021409,-2,-1,9,4,4,1,1,-1
1533861141022201,0,-3,-24,-6,-10,-4,0,-1
1533861141022201,-3,-1,-3,-2,-4,-1,-1,0
1533861141043163,1,0,13,7,5,1,0,1
1533861141043163,2,1,2,0,-2,-3,0,-2
1533861141045157,-3,-2,-11,-5,-17,-3,-9,6
1533861141045157,0,0,-3,4,2,1,3,-2
1533861141058107,-4,-3,-6,9,11,1,-3,-3
1533861141058107,1,1,11,13,13,-1,2,-1
1533861141065089,-3,-5,-21,-7,-32,-6,-4,0
1533861141065089,1,-1,3,-1,3,5,-1,1
1533861141081043,0,1,8,4,6,1,-6,-2
1533861141081043,-1,-1,-18,-1,0,-3,-2,-2
1533861141083039,-1,0,-14,-9,-1,-5,-3,-5
1533861141083039,-5,-1,-1,-4,-1,-2,0,-2
1533861141102984,0,1,-2,1,-2,-2,1,1
1533861141102984,-5,-1,1,-4,0,0,-1,-3
1533861141104979,4,2,9,0,6,-1,0,0
1533861141104979,-4,1,-5,-1,-4,-1,-2,4
1533861141117947,0,-4,-21,-4,-2,-4,-5,-1
1533861141117947,3,0,-11,1,-6,0,6,-3
1533861141131907,2,2,28,5,1,2,3,3
1533861141131907,-3,-4,-10,-1,1,-5,-5,-5
1533861141140886,-1,-3,-6,-9,-3,2,2,-2
1533861141140886,-2,-3,-12,-3,-8,-3,-6,3
1533861141142877,-4,-1,-7,3,8,-2,-5,-6
1533861141142877,1,3,1,-5,-3,0,2,0
1533861141163826,0,1,7,6,-8,-4,-1,1
1533861141163826,1,0,-5,-7,3,3,2,3
1533861141164820,-4,0,0,6,9,0,1,-4
1533861141164820,1,-2,0,-5,-10,-5,0,-2
1533861141177784,-4,-3,-1,-2,-2,-4,-2,-3
1533861141177784,-2,0,-13,-14,-14,-5,-4,-5
1533861141184769,-1,1,8,6,6,4,6,8
1533861141184769,0,0,1,-5,1,0,-8,-7
1533861141200726,-1,0,14,9,3,-1,1,-1
1533861141200726,2,7,-12,-3,-4,-3,-5,2
1533861141202718,-1,0,1,0,-5,0,1,-5
1533861141202718,2,2,-5,-2,-1,-2,-5,-1
1533861141223687,1,2,7,0,-3,0,-1,0
1533861141223687,1,3,22,-1,2,4,-6,6
1533861141224659,-2,-4,-16,-7,-6,-5,0,-6
1533861141224659,0,3,2,8,10,1,3,2
1533861141237627,0,2,-5,1,9,-1,1,-4
1533861141237627,-2,1,-4,-3,-14,-7,-1,-1
1533861141244605,-4,-4,-15,-15,-33,-8,-3,-5
1533861141244605,-1,-3,-11,-1,-1,2,1,2
1533861141261561,-2,0,7,1,-1,3,0,0
1533861141261561,-4,-6,-4,2,13,3,1,-2
1533861141262558,-1,0,10,4,8,-1,-2,-6
1533861141262558,0,-1,12,3,-5,-4,3,-2
1533861141283505,2,-1,-13,-9,3,7,-4,4
1533861141283505,-6,-7,-8,0,-4,0,6,-6
1533861141285497,-1,0,7,4,3,-2,-6,-6
1533861141285497,1,-1,-26,-35,-4,-2,1,2
1533861141298461,-3,1,-4,0,-6,-2,2,-1
1533861141298461,0,0,13,5,0,-2,-2,-4
1533861141304448,0,0,-5,6,12,0,0,1
1533861141304448,-3,1,14,4,4,-3,1,-2
1533861141321403,-1,-3,1,-8,-27,-8,-2,-1
1533861141321403,1,-1,-6,-9,-9,-2,1,-1
1533861141322398,0,0,6,4,6,4,2,1
1533861141322398,-4,-1,-2,3,6,-1,-4,-3
1533861141343345,1,0,4,4,10,-2,-1,-3
1533861141343345,-2,-3,11,8,-2,-3,-3,0
1533861141345337,1,2,5,3,13,4,1,3
1533861141345337,-2,-2,-1,-5,5,3,0,3
1533861141357307,-4,-5,-16,-13,-26,-6,0,-3
1533861141357307,-1,-1,-3,-6,-2,1,1,-3
1533861141366281,-2,-1,-11,-13,-20,-6,-10,-2
1533861141366281,-3,-4,-13,7,2,-1,-3,-3
1533861141381243,-1,2,16,7,9,2,1,-1
1533861141381243,-3,-1,-9,-4,-5,-3,-2,-4
1533861141382238,0,-1,-3,1,5,0,1,-2
1533861141382238,2,3,8,7,-5,-1,1,-1
1533861141403185,-2,2,2,8,6,-3,-1,0
1533861141403185,0,-1,-2,-4,-1,-1,3,-1
1533861141405177,-3,-10,-24,-4,-7,-1,-5,1
1533861141405177,-1,-5,-3,-1,-4,-2,0,-3
1533861141417144,-3,0,-11,-2,-2,-2,0,0
1533861141417144,6,7,27,15,13,7,-2,9
1533861141426120,-2,-1,-8,10,13,4,1,-2
1533861141426120,-1,-3,-9,-6,-16,-5,-2,-1
1533861141441083,-1,-3,4,-4,-13,-4,-3,-4
1533861141441083,-3,-1,-4,0,-4,-5,-2,-1
1533861141442079,-1,3,1,-3,0,-2,-1,-1
1533861141442079,2,0,2,7,12,7,-2,-1
1533861141464023,2,0,-1,0,12,2,-1,-5
1533861141464023,-2,-2,-23,-5,-5,-6,1,5
1533861141465017,-1,-2,-9,-3,-9,-5,-3,-4
1533861141465017,2,1,8,0,-5,-1,-5,2
1533861141476984,-1,-1,0,-6,1,-1,1,-9
1533861141476984,-7,-4,-10,1,7,3,0,-2
1533861141485989,-4,-3,-8,-2,-4,-3,-2,-5
1533861141485989,-3,-1,-2,8,7,-2,-2,-2
1533861141500920,1,-2,-8,-6,-3,3,0,6
1533861141500920,-3,-1,1,-1,-5,1,-3,-2
1533861141502915,1,-3,4,1,5,1,0,-1
1533861141502915,-3,-1,3,-6,-8,-3,0,-5
1533861141523860,-1,0,6,5,9,-1,-3,1
1533861141523860,-1,-1,-12,-9,-12,-6,-2,-3
1533861141524856,2,1,3,-2,-24,-1,2,5
1533861141524856,-3,-2,0,-3,3,1,-1,-2
1533861141536825,-1,1,16,8,7,1,-2,0
1533861141536825,-2,-7,-32,-9,-8,-4,-4,-3
1533861141545819,3,1,5,4,6,-1,1,-2
1533861141545819,1,-2,1,-1,4,2,6,3
1533861141560760,-5,-2,-23,-2,-8,-7,-8,-7
1533861141560760,6,1,8,6,7,1,1,-2
1533861141562768,0,0,0,-3,2,-1,0,13
1533861141562768,-4,-1,-10,-3,-4,-2,-10,-4
1533861141583921,1,1,1,-2,2,5,10,3
1533861141583921,-1,-3,-6,-3,-1,-1,-2,-4
1533861141584697,-4,-1,1,-1,4,-2,0,-3
1533861141584697,0,-2,9,0,-4,-4,-3,3
1533861141597665,0,-1,-4,-4,-7,-2,0,1
1533861141597665,-3,-3,4,-1,4,-2,-1,-2
1533861141605643,-2,0,-5,-5,-6,-2,0,-1
1533861141605643,-3,1,-5,3,-4,0,-1,-2
1533861141620603,-4,1,-1,8,6,-1,-2,-1
1533861141620603,-4,-3,-25,-20,-17,-7,-2,-3
1533861141622595,-3,-3,-23,-11,-7,-4,-2,-2
1533861141622595,0,1,-2,2,-3,2,2,1
1533861141643542,0,0,2,2,8,5,-2,4
1533861141643542,0,1,13,8,9,3,-3,1
1533861141645538,-2,0,5,0,4,1,-1,-5
1533861141645538,-3,-4,-1,-3,-8,-5,-1,-3
1533861141657696,-1,-4,1,-5,-8,-3,-4,-5
1533861141657696,-4,-1,10,2,1,0,-1,0
1533861141666477,-1,-1,3,-2,-1,-2,-1,-1
1533861141666477,0,-1,5,0,1,0,4,-2
1533861141680441,0,2,6,-8,-2,-2,-2,-1
1533861141680441,-2,-1,-6,0,0,-1,-1,-2
1533861141687449,-3,-3,-1,0,-11,-1,-1,-1
1533861141687449,1,-1,14,1,10,-5,-3,-3
1533861141703378,-4,-6,-11,-2,13,4,4,0
1533861141703378,0,1,3,-2,-27,1,-3,1
1533861141705374,0,1,-3,1,8,5,2,0
1533861141705374,0,-1,-6,0,-9,-4,-1,0
1533861141717341,1,-2,6,4,0,-4,0,-2
1533861141717341,-3,-2,0,3,9,1,2,2
1533861141726317,2,2,8,6,1,1,-1,1
1533861141726317,-1,-4,-9,-6,-2,-1,-3,-3
1533861141748258,1,1,-5,-5,-5,-2,-4,-1
1533861141748258,1,-2,-2,4,5,0,-4,-3
1533861141750254,-1,-2,-4,-2,0,-4,5,-3
1533861141750254,-1,0,-3,-4,6,3,2,1
1533861141763218,-3,0,-16,-3,-19,-5,-2,-1
1533861141763218,0,-1,-7,3,-2,-1,0,0
1533861141765214,0,-1,2,3,13,1,-2,-7
1533861141765214,-1,-2,-1,-1,-7,-3,0,-2
1533861141786157,-2,-4,-4,0,9,2,1,-2
1533861141786157,-2,-2,-17,-8,-19,-9,-2,-3
1533861141787154,-3,-1,-12,-7,-6,2,-4,-1
1533861141787154,-1,-2,-19,-8,-3,-1,-6,0
1533861141808108,-1,-2,-22,-3,-1,-1,5,3
1533861141808108,1,0,7,4,15,-1,1,-5
1533861141810094,-3,-1,-10,-15,2,-4,-1,4
1533861141810094,-1,-1,-13,2,-5,1,0,-1
1533861141823061,0,-2,4,1,-5,-1,-4,1
1533861141823061,-1,-1,4,1,8,3,-1,1
1533861141825053,2,0,1,1,-4,-3,5,1
1533861141825053,-3,-2,-5,0,-2,-6,-4,-6
1533861141846018,-3,0,8,-5,-2,-5,-4,-4
1533861141846018,0,1,-10,2,4,0,-1,1
1533861141848013,-1,0,-4,2,-1,0,-3,-3
1533861141848013,-1,-2,-7,3,1,-5,-1,0
1533861141860957,-1,-1,-5,6,-6,-2,0,-2
1533861141860957,-3,2,4,12,5,-1,-4,-4
1533861141862952,-3,-5,-26,5,-5,-3,-4,-3
1533861141862952,-2,-1,0,3,0,-1,-1,-1
1533861141883895,-1,1,12,3,-2,0,2,-1
1533861141883895,-2,0,-13,-7,0,1,-5,3
1533861141884906,0,0,-2,3,2,1,0,0
1533861141884906,0,0,0,3,1,1,2,0
1533861141905840,-2,-1,-5,-4,-5,-4,-3,-1
1533861141905840,1,-4,1,-6,-1,-2,3,-2
1533861141907833,-1,-1,-1,-2,-3,-5,-5,-1
1533861141907833,-1,1,1,-7,-1,-2,0,0
1533861141920813,-2,-3,-11,-1,-3,-2,0,1
1533861141920813,-2,-3,12,-2,1,1,2,-2
1533861141922791,-5,-4,-18,-2,-7,-4,-4,-2
1533861141922791,-3,1,2,-1,3,0,0,-1
1533861141943735,3,1,12,1,1,0,2,0
1533861141943735,1,-1,7,1,-2,-1,-4,6
1533861141944734,0,-2,-9,-3,1,1,2,-3
1533861141944734,-4,0,5,2,2,1,2,5
1533861141966677,-4,2,-6,-12,-2,-4,-7,-2
1533861141966677,0,0,-21,-10,-7,-3,1,2
1533861141967672,2,0,8,1,1,2,0,-1
1533861141967672,-2,-3,-9,-1,5,-1,-2,-2
1533861141980640,-1,0,-9,2,-9,0,-1,-2
1533861141980640,0,1,-4,-3,1,1,2,0
1533861141986624,1,-1,-5,0,1,-1,0,-1
1533861141986624,0,1,2,1,8,2,-1,-6
1533861142003575,-3,-3,3,-1,3,-2,-4,0
1533861142003575,0,-4,-4,-1,-3,-3,-2,-4
1533861142004574,1,-1,7,0,-1,1,0,1
1533861142004574,0,3,15,10,-3,0,-2,-2
1533861142026514,0,1,-2,-3,-10,-5,1,0
1533861142026514,-4,-2,1,-2,-20,-5,-2,-6
1533861142027512,7,1,-2,-4,-2,0,-3,1
1533861142027512,0,-3,-6,-4,5,-1,-2,-3
1533861142040477,0,-2,-3,2,9,0,-3,-5
1533861142040477,-2,-2,7,2,8,-5,-3,-4
1533861142047458,-2,1,9,4,3,-1,-1,0
1533861142047458,-1,-2,-4,-9,-8,2,3,2
1533861142063415,-2,0,7,2,-3,0,-1,-7
1533861142063415,-2,-2,-2,-8,3,1,3,6
1533861142065411,-5,-1,-3,-6,-2,-3,-5,-3
1533861142065411,1,-3,-6,0,-8,-2,-6,-4
1533861142086354,1,2,15,-2,2,2,4,1
1533861142086354,-2,1,7,3,-2,-3,-2,-7
1533861142087352,-3,-6,-7,-2,-5,-5,-2,-3
1533861142087352,1,-2,1,1,-3,-1,-1,2
1533861142100317,-3,-2,-7,-6,-4,-2,-1,0
1533861142100317,-2,-2,0,5,3,2,-1,-3
1533861142107298,-1,2,-1,0,8,4,1,0
1533861142107298,-5,-2,-14,-7,-16,-5,-1,-2
1533861142123259,-2,-8,-9,4,1,3,-1,0
1533861142123259,3,3,3,4,4,0,2,1
1533861142125251,-2,-3,0,-4,-4,-2,-5,-3
1533861142125251,1,3,9,3,4,1,2,0
1533861142146197,-6,4,-5,-4,-1,1,-3,-4
1533861142146197,1,-2,-6,-8,-3,0,0,0
1533861142147191,-1,3,3,15,8,3,2,-2
1533861142147191,-3,-9,-25,-6,4,-1,-2,-1
1533861142160156,-1,-2,-3,-5,-18,-5,0,2
1533861142160156,2,0,-9,1,-5,0,-2,-4
1533861142167142,-3,-1,5,1,-4,0,3,2
1533861142167142,3,4,16,8,5,1,2,3
1533861142184138,-4,-4,-13,-3,7,-1,-4,2
1533861142184138,-3,-3,-6,-2,3,-2,-2,1
1533861142185091,1,1,6,-4,-8,-1,2,-4
1533861142185091,-4,-1,-1,-4,-1,-3,0,-8
1533861142206037,2,0,-4,-2,-6,-7,-5,-3
1533861142206037,-2,1,5,2,-3,0,-1,0
1533861142208029,0,1,-8,-4,3,0,-1,0
1533861142208029,-2,-2,-8,-5,6,3,2,1
1533861142220000,0,-3,-28,-8,-12,-5,-3,-3
1533861142220000,-2,0,6,1,0,2,1,-2
1533861142226978,-2,-3,-12,-3,2,-6,-7,-2
1533861142226978,-9,-4,-5,-5,-13,-5,-2,-3
1533861142243933,7,4,19,9,10,3,3,5
1533861142243933,-3,-1,-9,-6,-13,-2,-8,-3
1533861142245928,1,-5,-5,0,3,1,0,-1
1533861142245928,4,-1,9,1,1,-1,-1,0
1533861142265879,-2,-2,2,5,7,3,0,1
1533861142265879,-1,-2,-16,2,8,-5,0,-3
1533861142267875,-1,3,-4,-1,-3,-1,0,-1
1533861142267875,1,-1,-11,-6,-4,-2,-3,-2
1533861142279840,-2,-2,-11,-1,4,2,-1,-2
1533861142279840,1,2,3,1,9,3,-1,1
1533861142288813,-2,-4,-31,-8,-3,-2,-3,-3
1533861142288813,1,1,-12,2,-17,-7,0,1
1533861142303806,1,1,15,-6,-21,-10,-3,-3
1533861142303806,-2,-1,-6,-2,20,11,1,5
1533861142304813,-2,-5,0,3,0,4,14,1
1533861142304813,-2,2,13,1,-1,1,-4,-3
1533861142325714,-2,0,14,6,5,2,-4,1
1533861142325714,3,0,9,-5,-6,-8,2,2
1533861142327716,2,2,18,0,-2,-2,-1,-1
1533861142327716,1,-4,-1,-4,0,-2,-2,-2
1533861142339680,-8,-1,5,-5,1,-3,-2,-6
1533861142339680,1,-2,-2,-3,0,-1,1,0
1533861142348653,-8,-2,2,-3,-1,-4,-3,-6
1533861142348653,3,0,6,1,-3,-1,1,0
1533861142363631,-2,-4,-3,-6,-2,3,0,-1
1533861142363631,-5,-5,-7,-3,-11,-5,-2,-7
1533861142364610,0,2,8,3,4,-3,-5,0
1533861142364610,0,6,9,-14,0,0,-4,2
1533861142385560,-4,-11,-32,-12,-3,0,0,-5
1533861142385560,-4,1,-5,3,8,2,3,-1
1533861142387548,2,0,-3,-4,-17,-2,-2,1
1533861142387548,-3,1,5,-2,0,-2,1,-1
1533861142399725,1,0,-3,-6,-7,-5,-6,0
1533861142399725,-4,-4,-6,-2,-3,-1,-1,-4
1533861142408492,-1,-1,15,-1,-2,2,-4,-1
1533861142408492,1,2,4,3,6,4,6,5
1533861142431431,-1,2,9,5,4,-2,2,-2
1533861142431431,-2,-4,3,-1,-1,-4,-8,-5
1533861142432440,-2,-1,0,1,-4,0,-1,0
1533861142432440,-7,-5,-3,0,-2,-2,-5,-3
1533861142446392,5,4,13,7,3,-3,2,2
1533861142446392,-4,-3,-2,-2,-19,-3,-2,0
1533861142447390,4,3,-1,0,18,4,-1,1
1533861142447390,-7,-4,-9,-10,-17,-3,-4,-9
1533861142459536,3,2,9,5,2,0,3,-4
1533861142459536,0,5,13,1,7,-8,-8,-3
1533861142468415,-3,-4,-2,-2,-2,0,0,-3
1533861142468415,-2,-1,-5,-1,-8,3,5,3
1533861142483296,-5,-2,-8,0,4,2,-17,-8
1533861142483296,0,-1,0,-5,7,1,21,-1
1533861142485288,-5,1,4,-2,-2,-2,-2,-6
1533861142485288,-2,-5,-20,-2,13,2,-5,-1
1533861142506234,0,-2,11,-2,-4,0,0,4
1533861142506234,3,0,6,3,-3,0,3,0
1533861142507229,0,0,-8,4,3,-5,-6,0
1533861142507229,1,4,-4,4,1,1,1,1
1533861142519199,-2,-1,-7,-3,-6,-3,-2,-1
1533861142519199,-1,-8,-12,1,-2,-1,-6,-3
1533861142528183,2,-5,-14,-2,0,-3,7,0
1533861142528183,1,-1,-11,4,0,0,-1,0
1533861142543135,-4,2,-13,0,20,4,9,-3
1533861142543135,-1,2,3,-3,-11,-1,-5,0
1533861142545128,-1,-2,-32,-5,-9,-2,-1,-3
1533861142545128,0,-3,-3,-8,-18,-10,-7,-4
1533861142566074,-1,-3,-1,6,18,3,5,2
1533861142566074,-6,-2,-14,-1,-2,-1,-1,1
1533861142568066,-1,-4,-2,1,-8,-2,-2,0
1533861142568066,2,1,16,2,5,-4,0,0
1533861142580052,0,1,-10,-8,-6,2,-4,2
1533861142580052,1,0,3,2,7,4,-3,-1
1533861142589010,-1,3,-10,-7,-12,-1,7,0
1533861142589010,0,-3,4,7,11,0,-6,2
1533861142603970,1,-6,13,5,9,-4,9,-6
1533861142603970,-2,0,5,1,-6,-2,-2,0
1533861142604967,-2,-1,-1,3,-1,-3,-3,-1
1533861142604967,1,2,13,0,-1,-2,2,1
1533861142626109,-3,-1,0,-2,-6,-4,-9,-3
1533861142626109,1,2,13,9,11,11,5,2
1533861142627906,3,3,8,-1,20,3,6,5
1533861142627906,-7,-6,-15,-14,-44,-3,-7,-3
1533861142639959,1,6,10,1,6,-1,-3,3
1533861142639959,0,-7,-13,-7,-2,-3,-6,-5
1533861142648851,0,-9,0,0,4,-4,1,5
1533861142648851,-4,0,-8,1,21,2,-5,-11
1533861142663809,-3,-11,1,4,-8,7,-1,-2
1533861142663809,-1,9,-14,8,-3,-2,4,8
1533861142664807,0,0,14,0,-3,-4,2,-7
1533861142664807,-2,-9,-16,-11,-6,-1,6,2
1533861142685754,-2,-1,-39,-20,-17,-6,-1,1
1533861142685754,2,1,10,-5,23,4,0,0
1533861142687746,0,2,-1,-8,-28,-3,-7,2
1533861142687746,-4,-3,-19,4,1,0,0,-3
1533861142699886,1,0,5,-4,-3,-4,3,2
1533861142699886,-3,-3,-10,-16,-26,-5,-1,0
1533861142708690,-2,0,-12,5,12,7,-7,-6
1533861142708690,0,3,4,2,3,-2,4,0
1533861142723653,-2,-4,-4,7,5,3,-2,2
1533861142723653,-2,-2,-17,-10,-12,-9,-5,-6
1533861142724647,-3,-2,-11,1,3,-3,0,-3
1533861142724647,0,-1,18,-6,0,-2,-1,2
1533861142745598,2,5,16,6,11,1,0,-1
1533861142745598,-3,-2,-19,-5,-14,-3,0,1
1533861142747587,1,-4,-7,-3,7,2,0,3
1533861142747587,4,0,-2,5,-14,-1,4,2
1533861142768533,-5,1,5,2,6,-1,-2,-4
1533861142768533,0,0,-3,-8,6,-4,-4,-4
1533861142770525,-2,-2,19,14,30,8,2,0
1533861142770525,3,1,0,2,-19,0,0,-2
1533861142782496,-1,-2,-17,-9,-5,-4,-2,1
1533861142782496,-2,1,8,8,-5,4,3,-1
1533861142791468,-1,-5,-12,-2,-1,0,-2,-3
1533861142791468,-1,-1,-11,3,11,-1,0,-1
1533861142806428,2,0,20,9,-15,-5,2,1
1533861142806428,-1,0,4,13,30,1,-4,-3
1533861142807426,3,-5,-6,-10,-24,-5,-4,1
1533861142807426,0,1,15,-2,13,1,1,3
1533861142828369,-3,-1,9,5,-9,2,-2,-3
1533861142828369,-2,-3,-1,3,5,-3,1,-2
1533861142830364,-5,5,-7,3,13,2,2,0
1533861142830364,2,4,38,4,2,1,-1,0
1533861142843332,1,-3,-8,-12,-9,0,3,2
1533861142843332,-2,-4,2,0,-6,-1,-7,-4
1533861142845325,-1,0,-1,9,3,1,0,-4
1533861142845325,-1,-2,-10,3,-23,-5,2,-2
1533861142866271,1,1,-3,-5,26,8,1,0
1533861142866271,1,1,-4,10,2,6,1,0
1533861142867266,1,5,4,-3,5,-3,1,0
1533861142867266,-9,-13,-57,-17,-15,-8,-7,-4
1533861142888213,0,-2,-4,3,-23,-4,2,-2
1533861142888213,-4,-3,-10,-13,-8,-6,-6,-2
1533861142890204,-2,-2,-13,-14,-15,-8,-7,-3
1533861142890204,-1,2,16,14,24,2,-1,-2
1533861142904166,0,-1,-5,-8,-6,-7,0,3
1533861142904166,-2,-4,6,1,-4,-3,1,1
1533861142905163,-2,0,-5,-4,-4,-2,-4,-2
1533861142905163,0,0,-5,-5,10,-4,-6,0
1533861142926111,1,-1,14,13,18,4,0,-1
1533861142926111,2,1,-3,-1,10,-1,2,-1
1533861142928103,-1,-4,-4,-3,-39,-3,6,3
1533861142928103,-2,-3,-16,4,35,11,-4,-3
1533861142949062,-4,-7,-17,-7,-39,-12,-6,-4
1533861142949062,0,1,-5,-3,-20,-1,0,-2
1533861142950045,-3,-1,-9,2,28,-1,1,1
1533861142950045,-1,-4,-7,-13,-6,-4,-1,-3
1533861142963009,-1,2,-1,-4,-15,1,0,0
1533861142963009,-1,-6,-14,-9,-18,-2,-5,0
1533861142969997,-2,-1,1,2,-4,1,-3,-1
1533861142969997,2,2,24,16,26,6,4,3
1533861142985948,-2,-3,-8,-2,20,-1,-5,-3
1533861142985948,-1,3,23,7,-1,-3,2,1
1533861142987953,1,2,14,11,2,1,-2,0
1533861142987953,-1,2,-8,-6,2,-5,-3,-3
1533861143008890,-3,-7,10,-6,-3,-2,0,-3
1533861143008890,1,4,7,-5,-1,3,3,2
1533861143009885,0,-2,-19,-10,6,4,-5,-4
1533861143009885,0,3,11,7,-38,-5,0,0
1533861143021855,1,4,11,18,70,7,-3,0
1533861143021855,-4,-8,-23,-26,-56,-14,-3,-1
1533861143030831,-2,-2,-17,-11,-16,-5,-5,-3
1533861143030831,0,-2,-5,-9,-27,0,1,-2
1533861143045840,1,3,20,11,20,1,-1,-3
1533861143045840,0,-1,-7,12,33,10,6,1
1533861143047835,-3,-3,-9,-6,-13,-8,-6,-5
1533861143047835,-3,-4,1,-7,-5,-3,0,-1
1533861143068794,1,1,-3,2,-9,-4,2,0
1533861143068794,-5,-3,-6,-4,4,-10,-10,-8
1533861143074762,0,1,0,-3,-10,-1,1,1
1533861143074762,-1,-5,-9,0,20,3,0,-3
1533861143082741,-4,-5,-15,-2,9,3,2,0
1533861143082741,2,-1,4,3,-33,-7,1,1
1533861143089725,-1,0,-3,-1,17,4,-4,-5
1533861143089725,-2,-3,-16,-1,1,1,-4,0
1533861143105682,0,2,-15,-15,-44,-2,-1,0
1533861143105682,-1,-5,-10,3,26,3,-2,-3
1533861143107673,-2,-3,9,2,-7,-4,0,0
1533861143107673,1,-1,3,4,20,1,0,0
1533861143128618,-4,-4,-3,-4,-15,-3,-4,1
1533861143128618,1,4,12,6,16,3,1,0
1533861143130613,-1,-3,3,0,5,-4,3,-1
1533861143130613,-5,-1,0,-4,-5,-1,3,1
1533861143142584,0,-1,1,-3,-9,-1,-2,0
1533861143142584,0,2,16,5,5,-3,-3,1
1533861143149627,-2,-2,-1,-5,-4,-3,-3,-5
1533861143149627,0,-2,-3,-2,-7,-1,-16,1
1533861143165519,-3,-1,7,-3,-6,-1,17,-5
1533861143165519,-2,2,-2,-6,5,0,3,-2
1533861143167514,6,-2,1,2,-1,6,3,11
1533861143167514,-1,3,2,5,-1,-4,5,-12
1533861143188458,-9,-8,5,-3,-9,-7,-12,-4
1533861143188458,6,3,-1,-2,4,6,-19,0
1533861143190453,-7,-5,-7,4,0,0,14,24
1533861143190453,7,9,12,-4,1,-2,-21,-7
1533861143203500,-5,-7,-33,-4,-6,1,32,12
1533861143203500,4,-2,-1,2,-1,0,-10,11
1533861143209606,3,5,1,1,1,-1,-3,3
1533861143209606,0,0,-3,0,-1,-2,-24,12
1533861143226369,2,4,4,-1,-4,0,2,7
1533861143226369,-3,-5,-44,3,-3,-1,-14,0
1533861143227371,-2,0,-23,1,3,1,31,-5
1533861143227371,0,-3,-29,-9,-5,-2,11,-2
1533861143248298,1,0,-6,-1,-2,-3,-16,-4
1533861143248298,-8,-10,-2,-8,1,-2,13,-4
1533861143250297,-4,-4,1,-6,-9,-9,-28,-9
1533861143250297,-3,-2,14,4,-2,-4,10,-10
1533861143262261,1,1,-11,-4,4,0,-19,2
1533861143262261,1,0,11,6,2,-1,7,-5
1533861143271237,-4,-4,-66,-8,0,-1,-9,5
1533861143271237,-5,-2,-34,2,0,-3,7,-3
1533861143286196,0,-1,-34,-6,-4,-5,-10,-9
1533861143286196,-3,-5,-5,-4,-7,0,17,-12
1533861143287193,-3,2,51,1,2,-3,-7,0
1533861143287193,-2,-1,28,-2,15,8,18,19
1533861143308333,3,6,26,1,3,6,-1,-3
1533861143308333,3,6,47,7,-4,-2,-1,-3
1533861143310133,-3,-11,8,-3,5,-2,0,-5
1533861143310133,-1,-8,22,3,3,3,5,1
1533861143322101,1,0,25,5,4,4,-3,-3
1533861143322101,-4,-1,4,-6,-10,-4,-3,-2
1533861143331089,1,5,11,2,-14,-4,-3,-1
1533861143331089,-1,1,19,-13,-19,-13,-8,-8
1533861143346041,-2,0,17,0,2,2,8,3
1533861143346041,-4,-5,-10,-5,15,1,-2,2
1533861143352021,-1,1,14,1,4,-6,-6,-7
1533861143352021,-4,-1,2,4,9,5,3,0
1533861143367981,-1,-1,5,3,3,-2,1,-2
1533861143367981,-1,-3,-33,-11,-21,0,1,-3
1533861143369972,3,4,84,0,-4,1,-1,-2
1533861143369972,-1,-2,86,0,-4,-2,1,-1
1533861143381944,1,1,65,3,-2,-3,1,-1
1533861143381944,-2,0,20,9,14,-2,-9,3
1533861143398914,-3,-3,-45,0,-6,5,5,-2
1533861143398914,-2,1,-79,3,0,4,0,1
1533861143405877,-2,-3,-52,-9,-28,-13,-13,-6
1533861143405877,1,-2,-30,-7,24,-6,5,-2
1533861143407887,4,2,-41,8,12,8,-5,1
1533861143407887,0,-2,-37,0,0,4,8,0
1533861143428815,-3,0,-13,-3,-4,-2,0,0
1533861143428815,-2,-3,-23,5,-10,-4,-5,-4
1533861143429816,-2,-1,-17,-18,-24,-14,-5,-5
1533861143429816,-1,-1,-1,-1,8,0,-7,-4
1533861143441784,1,-1,-4,-3,1,11,-5,0
1533861143441784,-2,-2,-3,-1,-2,-3,3,3
1533861143450759,2,2,7,4,36,6,-1,-5
1533861143450759,-2,-9,7,-7,-17,-10,-6,-3
1533861143465720,1,1,0,1,18,1,4,0
1533861143465720,0,3,3,-1,-30,0,-2,-1
1533861143467711,0,1,3,-3,10,3,-3,-1
1533861143467711,0,2,-12,7,11,8,5,1
1533861143488655,1,-1,-19,3,-13,-4,1,2
1533861143488655,-4,0,10,-11,-1,2,-2,-3
1533861143489652,0,0,2,7,4,-1,1,0
1533861143489652,-3,-2,-14,-10,-15,-13,-9,-2
1533861143502621,-2,-3,1,-1,21,3,1,-1
1533861143502621,1,2,2,4,7,-1,-3,1
1533861143511600,-5,-3,-23,-14,-19,-4,-2,-6
1533861143511600,-1,0,15,4,7,-4,-2,-1
1533861143525556,-1,1,5,3,-1,-5,0,-3
1533861143525556,0,-3,-9,-9,-16,4,1,0
1533861143533534,0,-1,0,-5,16,-3,0,-1
1533861143533534,1,2,-5,2,-2,7,5,1
1533861143548498,-3,-3,-4,-5,-26,-8,-5,-4
1533861143548498,1,1,1,4,3,7,5,3
1533861143550490,-1,-5,15,-3,-8,-2,-2,-2
1533861143550490,4,1,13,-4,-5,-3,0,-2
1533861143562460,-6,-1,-22,-3,1,-3,-4,-5
1533861143562460,0,-4,16,8,17,3,2,0
1533861143571434,0,5,6,2,-37,-1,1,-1
1533861143571434,-2,-5,3,7,38,-2,-6,-2
1533861143586397,2,0,-2,-5,10,4,2,4
1533861143586397,-3,-3,-11,-3,-2,0,-4,-3
1533861143587391,-1,-5,-1,-5,-10,-1,2,-1
1533861143587391,-1,-1,0,4,-9,-3,-1,-1
1533861143608335,1,-3,13,3,11,4,3,-2
1533861143608335,0,1,-12,-3,3,-9,-6,-2
1533861143610329,-1,-3,-8,-1,-17,0,1,1
1533861143610329,0,4,2,-1,-6,7,-1,1
1533861143631274,-1,-2,-5,-4,-3,-3,-2,0
1533861143631274,-2,-3,-14,-12,4,-2,-3,-3
1533861143632270,-2,1,-7,2,7,-4,-3,-2
1533861143632270,-2,-4,-7,3,-10,-6,-3,-3
1533861143646242,-3,-2,-3,-9,-35,-4,-1,-1
1533861143646242,-1,1,0,3,7,-2,-4,-3
1533861143647231,-1,0,-5,-6,11,1,-3,-1
1533861143647231,1,0,2,3,13,5,2,-1
1533861143668175,0,-4,1,3,8,-3,-3,-2
1533861143668175,-4,-5,-3,0,13,-7,-3,-3
1533861143670169,1,-1,-2,-4,-53,2,5,0
1533861143670169,2,3,2,-4,18,7,-2,4
1533861143691117,-2,-4,-13,0,-8,1,3,-1
1533861143691117,0,3,18,9,10,1,-1,0
1533861143692111,-2,-1,-4,7,25,-1,-1,-4
1533861143692111,-5,-5,-25,-6,7,-3,-4,-7
1533861143706077,2,3,-5,-15,-48,-7,1,4
1533861143706077,-3,-3,-9,-10,-8,-2,-4,-2
1533861143708068,-3,-4,-29,-8,-4,-5,-2,-3
1533861143708068,-3,-1,-7,0,2,-2,1,0
1533861143729013,-1,2,12,11,28,2,-3,-2
1533861143729013,-2,-2,-14,2,-7,-2,-1,-2
1533861143730009,-2,-2,-20,-3,-29,-7,-6,-1
1533861143730009,2,1,-3,0,15,-3,0,-2
1533861143750980,-1,-2,7,5,2,0,2,-1
1533861143750980,3,4,2,-5,-3,1,4,1
1533861143752952,-1,-4,0,4,11,-2,-2,-3
1533861143752952,-2,-4,-9,-4,-10,-5,-3,-1
1533861143765914,-2,-2,-15,-5,-6,-4,2,-1
1533861143765914,1,0,-3,4,7,5,2,3
1533861143767908,0,1,3,-4,-6,-4,-1,-1
1533861143767908,-1,0,-2,-3,-21,-1,-1,-1
1533861143788873,-1,-4,4,-1,12,-3,-1,-1
1533861143788873,-1,-2,-6,-4,-5,-2,-1,-1
1533861143789851,-1,1,3,1,17,0,3,0
1533861143789851,5,4,3,-2,-8,-1,3,-4
1533861143810794,-3,-2,-7,2,12,4,-10,7
1533861143810794,-2,1,11,0,-10,-1,0,1
1533861143812788,2,2,3,2,12,4,28,1
1533861143812788,-8,-10,-3,-6,-10,-6,-12,1
1533861143825790,2,13,-20,-1,6,1,7,3
1533861143825790,2,-4,4,-4,-10,0,-8,7
1533861143827748,-6,-4,6,-2,7,-2,-11,-23
1533861143827748,-1,6,-14,-1,-6,2,30,28
1533861143848695,7,0,6,-5,0,4,5,0
1533861143848695,2,1,1,0,-2,-1,9,11
1533861143849689,-4,-3,-16,-2,4,-5,-24,-10
1533861143849689,0,-1,6,-1,-9,-3,-12,4
1533861143871631,-3,-6,-7,-4,3,-2,-2,-6
1533861143871631,2,-1,-28,-5,-4,-3,-3,-13
1533861143872628,-1,-1,-1,3,2,4,5,9
1533861143872628,0,-2,1,-1,-6,-2,-8,-11
1533861143893575,-6,-6,-18,-1,1,-3,-6,-1
1533861143893575,-5,-3,4,-4,1,-1,-2,-9
1533861143895567,-2,1,-3,4,3,-1,0,5
1533861143895567,-3,1,-1,-1,-1,-1,-4,-1
1533861143908535,-1,-2,22,4,-4,-1,-5,-8
1533861143908535,-3,-2,1,0,-9,0,4,0
1533861143910528,2,0,2,-2,6,-1,0,2
1533861143910528,-2,-1,7,3,-1,-2,-4,-9
1533861143930479,-3,-4,6,11,11,3,4,0
1533861143930479,0,0,4,-4,-9,-5,-7,-4
1533861143932467,0,4,0,-3,4,1,-4,6
1533861143932467,0,-1,9,0,-6,0,1,-4
1533861143945455,-2,3,5,-9,-2,-3,-7,-1
1533861143945455,-5,-4,-10,-2,3,-2,4,0
1533861143952463,-1,-3,3,2,1,2,2,1
1533861143952463,0,-1,-1,1,-2,-1,1,-5
1533861143968375,-3,-2,-4,1,-3,2,-4,-3
1533861143968375,-1,0,-1,3,1,-3,-5,1
1533861143970367,-1,1,0,-3,-1,-1,6,-2
1533861143970367,0,-2,0,1,-5,1,-4,-2
1533861143991478,-3,-4,-1,-4,2,-1,-2,0
1533861143991478,-2,2,1,-2,1,0,-3,-3
1533861143992309,-2,-3,-16,-4,-1,-2,-2,-3
1533861143992309,-3,-7,-15,-2,2,1,-3,-2
1533861144005275,-1,-4,-20,-7,-3,-4,0,-3
1533861144005275,1,0,-8,7,2,-5,-5,-5
1533861144012254,-3,-5,-31,-18,-9,0,3,2
1533861144012254,0,1,-23,-4,-5,1,6,-1
1533861144028213,0,0,-7,0,-1,-1,-3,-1
1533861144028213,0,-1,-13,4,3,4,8,-3
1533861144030206,0,3,10,3,3,-5,-14,-3
1533861144030206,-1,-5,4,-4,-1,-4,3,-1
1533861144051150,0,-4,-1,0,-2,-1,3,6
1533861144051150,-5,3,11,-2,3,-2,-11,5
1533861144052159,0,-3,-16,3,-2,2,3,-4
1533861144052159,0,3,-7,-6,-12,-1,-1,-2
1533861144065117,-1,-1,12,-1,6,-2,-1,1
1533861144065117,2,1,12,4,2,3,3,4
1533861144072098,-2,-1,9,-14,-19,-5,-4,2
1533861144072098,-1,-1,-16,2,21,3,-5,0
1533861144096042,-1,-1,-33,-1,-4,2,5,-4
1533861144096042,0,-4,-26,-4,-14,-2,-4,-6
1533861144098025,1,3,-2,4,8,2,-1,0
1533861144098025,-2,-2,9,-5,-12,-5,3,-2
1533861144110990,-1,-3,35,-1,1,0,-7,-6
1533861144110990,0,1,28,0,0,1,0,1
1533861144112991,-1,-1,27,6,-1,-2,4,3
1533861144112991,-3,1,15,-3,-2,-4,0,-2
1533861144124957,-2,-1,6,1,-2,-3,-4,-9
1533861144124957,-3,-4,-7,-13,-8,-2,-3,-2
1533861144131938,-3,-3,-3,-2,1,-2,-4,2
1533861144131938,-1,0,-21,2,-3,-2,-5,-2
1533861144148889,0,3,5,0,-5,2,4,3
1533861144148889,-3,-11,-18,-3,5,-3,-3,-2
1533861144149886,0,-1,-3,4,4,5,-2,-1
1533861144149886,2,1,4,-4,-2,-1,-2,-3
1533861144170830,-1,0,-15,-3,3,-2,-2,-2
1533861144170830,0,1,-2,3,-6,-5,6,-2
1533861144172825,2,2,8,2,0,-1,-6,-1
1533861144172825,-3,-2,-5,-1,0,-3,-3,-2
1533861144184796,1,1,9,0,-4,-4,0,1
1533861144184796,-2,-2,-1,-4,2,3,4,-1
1533861144193770,-1,-2,-3,5,2,-1,1,-1
1533861144193770,2,2,5,-9,-1,1,1,-1
1533861144208732,-2,-5,3,2,-2,-3,-4,-1
1533861144208732,2,-2,-1,1,0,0,-2,-1
1533861144209726,0,-3,-15,-1,1,-2,1,-2
1533861144209726,-1,-1,6,1,-2,0,-2,0
1533861144230674,1,0,-10,-5,-1,-2,-1,0
1533861144230674,-3,-1,-11,-4,-5,-4,-3,-5
1533861144232665,-2,-1,4,3,0,-2,-1,-2
1533861144232665,-1,-2,3,2,1,0,-2,0
1533861144244633,-1,-1,-4,-2,5,1,1,-2
1533861144244633,-1,-1,-3,2,-3,-3,-2,-1
1533861144253608,0,-1,0,1,3,0,-3,-1
1533861144253608,0,-2,5,2,9,-3,0,-1
1533861144268773,-2,0,-12,-7,-18,2,1,0
1533861144268773,0,1,3,-4,5,3,3,2
1533861144270600,-2,-1,-10,-5,-4,6,-3,1
1533861144270600,-4,-3,-8,0,-9,-3,-2,-6
1533861144291511,-4,-3,-16,-4,-3,-5,-6,2
1533861144291511,-4,0,-3,-2,0,1,1,-2
1533861144292505,0,0,2,1,-3,-2,-2,1
1533861144292505,0,-2,-6,0,2,1,-9,0
1533861144313454,-1,1,12,3,2,-3,-6,-1
1533861144313454,-4,-5,-4,-13,-10,-5,-4,-5
1533861144315443,-4,0,10,3,5,1,1,-3
1533861144315443,0,1,10,-2,-2,0,-2,-1
1533861144328409,-1,-2,9,2,-1,0,2,-1
1533861144328409,0,3,8,5,2,1,2,-1
1533861144330404,-3,-3,1,-4,-1,-4,-3,-3
1533861144330404,-3,1,-8,-6,-5,-3,2,0
1533861144351348,0,-1,-10,4,-1,1,-1,-2
1533861144351348,2,0,-15,-2,5,-1,-2,2
1533861144352345,0,-5,-8,-2,-2,-4,1,0
1533861144352345,-4,-5,-8,3,-1,-3,0,0
1533861144364316,-4,-2,5,-2,-1,-3,1,0
1533861144364316,2,3,6,2,1,1,1,1
1533861144373292,3,2,-4,-8,-2,0,-2,-1
1533861144373292,4,2,4,4,1,1,0,2
1533861144388262,-2,-4,-10,5,-3,-2,-1,-4
1533861144388262,1,0,10,6,2,-2,-1,-1
1533861144390244,0,-2,-9,-4,-5,-4,-3,-4
1533861144390244,-1,0,4,2,0,0,2,-1
1533861144411203,0,-3,-15,-24,-8,-4,-4,-3
1533861144411203,0,-1,-13,2,-4,-2,0,3
1533861144412196,-1,-2,3,3,3,-1,0,0
1533861144412196,-2,-2,-2,-4,0,-2,-2,-1
1533861144424156,-1,1,7,4,5,-1,0,-2
1533861144424156,-1,-2,-14,-2,0,0,0,0
1533861144434126,-2,0,-7,-1,-1,-2,0,-1
1533861144434126,-2,-3,-8,3,-2,1,0,-1
1533861144448137,1,1,1,1,2,3,0,2
1533861144448137,-1,-1,-1,-2,2,-1,1,0
1533861144450083,0,-2,-6,2,-1,0,0,-3
1533861144450083,-1,1,-12,-2,2,-3,-3,-2
1533861144471028,-1,-2,-9,-5,3,2,0,0
1533861144471028,2,0,0,-2,-3,-1,0,1
1533861144473022,-3,-3,-9,-4,-6,-1,-2,-2
1533861144473022,-2,-2,11,-4,-16,-6,-1,-6
1533861144484990,0,-1,17,0,1,-1,-1,3
1533861144484990,-2,-4,3,16,4,-1,-5,-4
1533861144493967,-3,-2,0,-7,2,1,3,-4
1533861144493967,-1,-4,-1,-3,5,1,-3,-2
1533861144508931,1,-1,16,3,-1,-3,-5,0
1533861144508931,-2,2,12,-3,2,-1,7,0
1533861144509924,1,-1,0,3,1,-5,0,0
1533861144509924,0,-2,-2,-2,-1,2,1,2
1533861144530902,-2,0,-4,2,3,-1,1,-1
1533861144530902,0,-1,-6,-5,0,-1,-2,-2
1533861144532873,2,-1,1,-6,-14,-1,-4,0
1533861144532873,0,1,-70,7,21,6,2,1
1533861144544835,-4,-2,-61,-19,-43,-14,-3,-3
1533861144544835,-1,1,3,2,4,-1,-4,0
1533861144553806,-4,-4,-5,0,-7,-2,0,-4
1533861144553806,-1,-1,31,3,7,5,-2,1
1533861144568769,0,-1,-11,4,10,0,-2,-1
1533861144568769,-3,-1,-2,2,-1,-1,-3,-4
1533861144569763,-2,-2,16,-2,-4,-3,-1,0
1533861144569763,-1,0,36,1,-4,-4,-3,-3
1533861144590711,1,0,19,6,10,-2,2,-2
1533861144590711,-1,2,20,-5,-5,0,-1,2
1533861144592702,-3,-2,-6,4,8,1,-5,-2
1533861144592702,-2,-6,-14,-1,-7,-3,0,-2
1533861144604670,-1,-3,-4,3,2,3,0,-3
1533861144604670,-1,-3,1,-2,-4,-2,-4,-1
1533861144613648,-2,2,-2,2,5,-1,1,1
1533861144613648,-1,2,-5,-7,-6,-4,-1,-1
1533861144628668,-1,-1,13,-2,-1,0,-1,-2
1533861144628668,-1,-2,-4,-3,3,-2,-3,-3
1533861144629664,-1,-2,5,2,3,2,-1,0
1533861144629664,0,-2,11,-5,-5,-3,3,2
1533861144650608,-2,-1,27,-2,-9,2,-2,-1
1533861144650608,-1,-1,10,-4,6,-1,3,0
1533861144656641,3,5,25,-1,-1,2,-2,2
1533861144656641,-1,-3,9,8,3,2,-1,-1
1533861144673549,0,-2,4,0,-1,-3,1,-3
1533861144673549,-2,-5,-7,-5,-8,-11,-4,-2
1533861144675541,-1,-1,-3,4,3,8,-4,-5
1533861144675541,-4,2,-8,-6,3,1,0,-1
1533861144688543,-1,0,1,-1,5,-1,1,0
1533861144688543,0,-2,11,-3,-5,1,-1,-5
1533861144690502,1,1,9,-2,2,-7,2,3
1533861144690502,1,-2,9,-1,-6,-1,0,3
1533861144711449,1,0,10,5,1,2,-2,0
1533861144711449,-1,0,-10,-3,-10,-1,-1,-1
1533861144712442,-1,-3,-5,-1,6,-5,-5,-6
1533861144712442,1,0,2,-4,7,1,-1,-3
1533861144733389,0,1,-5,-8,-8,-4,-3,-1
1533861144733389,-1,-4,-15,-3,1,-3,-2,0
1533861144735380,-2,-1,-8,7,-3,0,2,3
1533861144735380,0,0,-2,-6,-24,-4,0,-2
1533861144748352,-1,-1,-3,1,14,-1,-3,0
1533861144748352,-1,-3,-11,4,-1,2,-1,3
1533861144750356,-4,0,-5,-6,-2,-2,0,-3
1533861144750356,-1,0,-4,-2,2,-3,-4,-6
1533861144771288,0,4,4,4,1,0,0,-3
1533861144771288,-3,-9,-16,-9,-1,-1,2,3
1533861144772282,1,1,2,1,6,2,1,5
1533861144772282,0,0,6,2,5,1,0,0
1533861144793230,-6,-6,-21,0,-10,-5,-2,-3
1533861144793230,0,3,2,3,5,-4,-3,-3
1533861144795220,0,-2,-7,-2,3,1,-3,1
1533861144795220,-3,-1,-6,1,-4,-4,-2,1
1533861144808186,-2,-1,5,-4,-8,3,3,1
1533861144808186,-1,-1,0,-1,15,2,-3,-4
1533861144815170,-1,-3,-8,-7,-20,-6,1,-1
1533861144815170,-1,-2,3,2,13,4,-1,-1
1533861144831128,-1,-2,-6,-1,-12,-3,-2,-2
1533861144831128,-1,0,-4,0,-8,-1,0,0
1533861144832121,0,-1,5,7,2,1,0,0
1533861144832121,-1,-3,-1,2,-2,-8,-8,-3
1533861144854069,0,0,-1,-6,6,4,5,1
1533861144854069,-2,-2,-7,1,-8,2,2,7
1533861144855086,-1,1,4,1,2,-2,-2,-3
1533861144855086,-7,-7,-7,-21,-16,-17,-10,-9
1533861144868153,-2,-1,-12,4,12,5,-7,4
1533861144868153,0,3,2,0,-3,0,2,-3
1533861144875026,-2,-2,-1,1,2,0,4,-1
1533861144875026,-1,0,-7,-2,-2,-2,0,1
1533861144890967,-2,-5,3,0,0,-3,0,-5
1533861144890967,-1,1,0,-6,-2,-2,-6,-5
1533861144892959,0,3,10,0,0,-3,-1,-1
1533861144892959,1,-1,3,4,0,0,1,0
1533861144913903,-1,-2,14,2,-15,-5,-1,-2
1533861144913903,1,0,-16,4,3,3,0,-1
1533861144914900,-2,-3,20,-5,18,-1,1,-1
1533861144914900,1,4,20,-5,-29,4,3,3
1533861144927866,-1,-1,2,-3,5,0,1,0
1533861144927866,-1,-1,5,-5,-10,-2,-2,1
1533861144934847,-2,-2,-20,-14,-9,-7,-5,-6
1533861144934847,0,-2,-13,-2,7,0,-2,-5
1533861144950804,-2,-1,-1,5,-1,-3,1,-1
1533861144950804,0,1,-11,1,4,2,-4,4
1533861144956792,3,-1,-9,4,1,3,11,9
1533861144956792,-1,-1,-14,1,4,-2,-3,-2
1533861144973746,-3,-2,-20,-3,1,-2,0,-4
1533861144973746,-1,2,4,0,2,-4,3,-4
1533861144974741,-3,-5,-10,0,-8,0,-7,-4
1533861144974741,-3,-2,-7,2,0,-2,0,-1
1533861144987707,-2,1,-1,-2,2,-1,-1,0
1533861144987707,-2,-2,2,-1,-9,-4,0,-3
1533861144994691,-1,1,6,7,3,-2,-2,-2
1533861144994691,-3,-7,-18,2,9,-1,-2,0
1533861145010644,2,-3,1,-4,-13,-1,-1,0
1533861145010644,0,-3,0,1,18,2,-2,-1
1533861145012639,-2,-2,-13,-9,-27,-6,-6,0
1533861145012639,-1,2,13,1,0,1,2,0
1533861145033583,1,-1,10,2,7,-4,-3,-3
1533861145033583,1,-1,3,5,0,4,-1,3
1533861145035578,-2,-4,-11,-3,1,0,-1,-4
1533861145035578,0,1,8,0,1,-1,2,-3
1533861145048543,-4,-3,-6,-6,-6,-3,-1,-5
1533861145048543,1,0,5,2,0,3,-17,5
1533861145054542,-2,1,13,-3,4,3,28,13
1533861145054542,-2,-4,-16,-10,-6,-2,-4,-3
1533861145071497,0,-2,-1,0,2,-4,0,-4
1533861145071497,-1,-2,0,-5,-2,-5,0,-1
1533861145072479,-2,-2,1,2,-4,-4,-12,-10
1533861145072479,-1,-1,8,1,-2,-2,-1,-1
1533861145093426,1,5,16,3,6,5,0,5
1533861145093426,6,1,3,-2,1,-2,3,1
1533861145095439,-1,1,3,2,0,-2,-4,-4
1533861145095439,0,0,-3,-1,-2,-3,2,-3
1533861145108386,0,-1,-7,-3,14,-1,-10,-5
1533861145108386,-2,0,1,1,-11,-2,4,-1
1533861145114367,0,-5,-8,2,10,3,-6,-2
1533861145114367,1,3,9,4,12,2,0,5
1533861145131325,-3,-3,-7,-7,-28,-5,-1,3
1533861145131325,-6,-3,-7,-7,-12,-6,-1,-7
1533861145132319,2,4,5,3,4,-1,4,2
1533861145132319,-1,-3,-4,1,-2,4,-5,2
1533861145153267,-1,-2,7,5,5,1,3,-1
1533861145153267,-3,-1,2,-1,0,-2,0,-6
1533861145155269,-1,0,9,1,4,-3,-11,-4
1533861145155269,3,4,5,-2,2,1,5,2
1533861145167229,0,0,-2,6,3,0,-2,0
1533861145167229,-5,-8,-7,-6,-8,-2,1,-1
1533861145176201,-3,-1,-6,-6,3,-5,-4,-4
1533861145176201,-3,-3,-12,-3,-10,-1,6,-3
1533861145191165,-2,2,1,-1,4,-2,-4,-1
1533861145191165,-4,-5,-5,1,2,-5,-5,-7
1533861145192159,2,-2,-13,-2,-26,-4,2,2
1533861145192159,0,1,1,-7,0,0,-3,-2
1533861145214104,1,-4,-3,3,7,1,5,2
1533861145214104,5,6,3,-1,-1,-2,-1,2
1533861145215099,-7,-10,-22,-11,3,1,-4,-6
1533861145215099,-2,-4,8,5,6,9,4,2
1533861145227065,-3,1,-1,-6,-1,-1,0,-3
1533861145227065,-2,-1,-5,2,3,-5,1,-1
1533861145236042,1,5,-3,-5,13,0,2,4
1533861145236042,-2,-1,-3,5,-3,0,-8,-1
1533861145251003,-2,-6,-12,-1,5,1,-2,-1
1533861145251003,0,4,11,-1,-8,-2,4,0
1533861145253005,-3,-4,-5,-16,-28,-10,-5,-3
1533861145253005,0,0,4,8,12,-1,-5,-3
1533861145273943,0,0,-13,-7,-7,-8,0,-2
1533861145273943,1,1,-3,1,-8,8,0,0
1533861145274939,3,-4,-4,7,-12,10,9,7
1533861145274939,-5,-8,-14,-7,-4,-3,-2,0
1533861145286905,0,0,1,4,2,-3,-1,-1
1533861145286905,-7,-2,-10,0,13,-2,-8,-8
1533861145295882,1,-4,-4,-14,-4,-10,-10,-8
1533861145295882,-6,-3,-7,-2,2,2,2,5
1533861145310842,4,-5,31,11,8,11,8,4
1533861145310842,-1,4,26,25,5,5,-7,2
1533861145312836,-3,-1,-10,10,3,-2,13,-2
1533861145312836,7,4,25,-3,-11,-12,-4,-6
1533861145333783,1,5,16,-7,4,9,1,7
1533861145333783,-2,-2,2,-3,-2,2,-4,0
1533861145334777,2,4,8,1,2,-2,-3,-1
1533861145334777,-3,-4,7,-4,-3,-3,-7,-3
1533861145347754,-4,-2,-23,1,-18,-1,2,-4
1533861145347754,4,4,-12,2,5,-2,6,3
1533861145355722,-4,-5,-29,-3,16,3,-5,-3
1533861145355722,-3,-5,-13,-3,5,-3,-1,-4
1533861145371679,-3,-4,-33,-11,-11,0,-8,-5
1533861145371679,6,4,14,-19,-29,-5,10,3
1533861145372676,-7,-4,2,14,51,3,-12,-9
1533861145372676,-1,-2,-31,-15,-18,-2,-1,0
1533861145393624,2,1,-4,-3,3,1,-5,1
1533861145393624,-6,-8,-13,-8,1,-2,1,-3
1533861145394629,1,4,31,17,-17,0,4,6
1533861145394629,-2,-3,-6,-4,8,-4,-4,-5
1533861145407583,-2,4,18,3,-9,-5,-4,-4
1533861145407583,-2,-2,10,-1,-18,-3,2,0
1533861145416558,-3,-1,-26,-4,23,-3,-10,-5
1533861145416558,-1,1,3,12,18,5,-3,-4
1533861145431522,-2,-1,-7,1,-8,-2,6,1
1533861145431522,-4,-2,-4,-2,1,-3,-7,-2
1533861145432516,-3,3,1,-7,-17,-6,0,-1
1533861145432516,3,1,18,8,-3,4,4,1
1533861145453463,-2,-3,-10,-6,22,0,-5,-5
1533861145453463,-3,-5,-26,-16,-43,-6,-1,-3
1533861145455455,1,1,7,-3,-4,1,-1,0
1533861145455455,2,1,7,-7,-27,-6,2,4
1533861145467426,-6,-3,0,-12,-14,-6,-4,-3
1533861145467426,-3,7,-5,-3,33,1,-2,-5
1533861145476398,7,-13,-9,5,-22,7,10,7
1533861145476398,-4,-7,-19,-8,10,-8,-15,-8
1533861145491358,2,2,20,20,7,1,1,0
1533861145491358,2,2,38,5,10,7,2,3
1533861145492357,2,5,-13,-18,-11,-3,-2,3
1533861145492357,-1,-1,2,11,-17,-2,5,1
1533861145513300,-4,-8,-14,4,1,-1,-4,-4
1533861145513300,-2,-2,-12,-3,12,0,-3,-2
1533861145515295,1,6,16,11,18,1,2,2
1533861145515295,-4,-5,-17,2,15,-1,-4,-3
1533861145527274,1,3,1,-16,-63,-7,4,3
1533861145527274,-3,-7,-25,-2,6,0,-6,-3
1533861145536238,-4,-2,-17,-5,-11,-5,-4,-5
1533861145536238,1,4,9,3,16,2,1,0
1533861145551202,-2,-3,-4,2,16,-5,-1,-2
1533861145551202,-2,-6,-31,0,5,-2,-3,-3
1533861145552196,-2,4,18,12,-22,-7,-7,-4
1533861145552196,-1,-1,-8,0,28,7,-1,-1
1533861145573175,-3,-6,-6,-20,-11,-7,-3,-2
1533861145573175,0,-4,0,0,-18,-5,-1,1
1533861145575134,-1,-1,-4,-4,-13,2,1,1
1533861145575134,-1,3,8,5,-8,-3,0,-2
1533861145596078,-2,-4,8,-3,5,-6,-3,-1
1533861145596078,2,-1,11,6,6,1,0,2
1533861145598074,-1,0,7,0,4,3,-1,-3
1533861145598074,-3,-5,-35,-1,43,7,3,0
1533861145611039,4,5,1,7,1,8,1,0
1533861145611039,-2,0,-10,-11,-23,-9,-3,-2
1533861145613035,0,0,-32,-9,-5,-4,1,1
1533861145613035,-3,0,2,-3,-21,-2,-2,-2
1533861145633977,2,3,5,9,23,3,0,-2
1533861145633977,-2,-4,-16,1,25,1,0,-1
1533861145634990,0,-1,-9,-6,-13,-1,-1,0
1533861145634990,0,0,-3,-5,-35,-4,0,0
1533861145655922,-4,-7,-5,-14,-13,-6,-5,-2
1533861145655922,-1,0,-8,-12,1,1,0,-3
1533861145657913,-2,-3,-10,3,18,1,-2,-1
1533861145657913,1,2,10,3,1,-3,1,0
1533861145670882,-1,3,5,5,-2,2,0,0
1533861145670882,-1,0,9,11,20,2,-1,-4
1533861145670882,0,0,18,-2,-1,1,1,3
1533861145670882,-1,-4,-11,-8,-5,1,3,1
1533861145692823,0,2,-5,0,8,1,-3,-2
1533861145692823,-1,1,8,2,-23,-7,-2,-1
1533861145693817,1,-7,-5,-5,24,4,0,-1
1533861145693817,2,1,10,4,8,6,3,2
1533861145715762,2,1,-5,-3,-12,-2,1,3
1533861145715762,2,0,-14,-15,-14,1,3,3
1533861145715762,-7,-4,2,-9,-23,-10,-7,-8
1533861145715762,-1,1,3,1,4,-2,-3,-2
1533861145730722,0,-2,-8,5,18,-1,-1,-2
1533861145730722,-1,1,-1,4,4,0,1,1
1533861145730722,-2,-1,9,1,-4,-1,-3,0
1533861145730722,1,1,5,0,-7,-1,0,2
1533861145752663,0,1,-5,-2,7,1,-2,0
1533861145752663,-2,-4,2,1,-1,-2,0,-1
1533861145753657,-2,-3,-10,2,-2,-2,-3,-3
1533861145753657,-3,0,1,1,-11,-4,0,-5
1533861145775598,-4,-2,-4,2,0,-6,-4,-3
1533861145775598,2,1,9,5,5,4,5,7
1533861145775598,-3,0,-4,-2,1,3,1,-6
1533861145775598,0,-1,-16,-14,-12,-6,1,-7
1533861145790558,-4,-9,-34,0,-2,-2,-3,2
1533861145790558,-5,-2,-44,-3,2,1,3,1
1533861145790558,2,0,-46,-1,0,-3,-6,-17
1533861145790558,11,9,-9,4,-4,1,-13,9
1533861145812544,-4,-5,-8,1,5,3,17,-6
1533861145812544,-1,0,24,9,6,1,4,1
1533861145813497,-3,-4,-21,-7,-4,-6,-10,-18
1533861145813497,-6,-5,-23,-4,-7,-1,-6,9
1533861145835441,-2,1,-36,0,1,-2,-9,-6
1533861145835441,2,-1,-13,2,0,-2,-8,-20
1533861145836435,1,-1,29,2,0,-1,4,8
1533861145836435,-3,-4,23,-3,-3,-1,3,-12
1533861145849401,1,1,62,1,2,1,-4,5
1533861145849401,-4,-5,34,-5,-2,-5,-5,-6
1533861145858377,0,0,40,0,0,3,1,8
1533861145858377,-1,-2,29,-3,-5,-3,0,-2
1533861145873340,-2,3,22,-5,0,-6,-3,-5
1533861145873340,1,1,13,1,-1,0,5,3
1533861145873340,-1,-5,-10,-7,0,-2,2,0
1533861145873340,-2,-3,2,2,-3,-2,0,6
1533861145895279,0,2,-9,1,0,0,-5,-1
1533861145895279,-3,-4,-22,-4,-2,1,2,4
1533861145896275,-3,1,-10,-2,-2,-5,-27,-2
1533861145896275,-3,1,-9,-1,-5,-4,8,-9
1533861145910486,2,1,-7,4,3,4,-3,3
1533861145910486,-3,-3,-13,2,-3,-5,-6,-2
1533861145911483,-1,2,26,-2,1,1,4,-2
1533861145911483,-2,-3,7,0,0,-1,-6,-4
1533861145932427,3,0,10,1,0,0,0,-4
1533861145932427,-2,1,20,-2,-3,-1,3,7
1533861145933425,4,1,8,2,3,3,5,7
1533861145933425,1,2,9,-1,2,3,2,3
1533861145955369,-5,-7,-15,0,0,-5,0,0
1533861145955369,0,2,-4,-2,-6,0,1,1
1533861145956406,-6,-4,-7,1,-1,-4,1,-2
1533861145956406,-3,-2,-1,-7,-7,-3,-2,0
1533861145970339,1,0,0,-3,-1,-1,1,-1
1533861145970339,0,-1,-2,0,4,-1,-8,-4
1533861145971352,-2,-1,10,15,5,2,6,5
1533861145971352,0,-1,-20,-2,3,-2,-5,0
1533861145993284,-3,1,2,0,-12,-3,7,-2
1533861145993284,3,-3,-15,-4,2,-2,-5,-5
1533861145993284,0,3,-1,1,1,0,1,-2
1533861145993284,3,-3,-8,4,4,0,4,4
1533861146015209,0,3,-1,2,-4,-4,-1,1
1533861146015209,-1,-2,-11,-9,3,-2,-6,-2
1533861146016203,-1,-1,6,0,-2,-1,2,-3
1533861146016203,-3,-5,-11,0,-8,-3,-6,-4
1533861146030165,-2,-3,-2,-1,3,0,-1,-3
1533861146030165,-4,0,7,7,3,-2,-7,-2
1533861146031163,0,-3,-12,-10,-2,-2,1,2
1533861146031163,1,5,14,-1,-4,-2,4,-2
1533861146053104,1,-1,-3,-5,7,4,2,1
1533861146053104,0,1,16,2,-7,-2,-4,1
1533861146053104,-1,-3,-12,-2,-3,4,6,9
1533861146053104,-3,-2,-3,-3,0,-1,0,0
1533861146075049,-4,0,-3,-4,0,-2,-2,-2
1533861146075049,1,-2,-4,0,-1,0,2,1
1533861146076052,-1,2,9,3,1,4,2,0
1533861146076052,1,-3,-17,-12,-3,-3,-4,-4
1533861146090008,-5,-4,-93,2,-1,-1,11,0
1533861146090008,-4,1,-77,1,0,0,-1,-4
1533861146091003,-3,-3,-27,-15,-4,-6,-2,-2
1533861146091003,0,-1,33,5,2,3,2,1
1533861146112944,-5,-1,50,-1,-4,-2,-7,-3
1533861146112944,1,-1,11,-7,-6,-2,-1,-2
1533861146113942,-1,1,11,3,0,-2,-2,-2
1533861146113942,0,0,16,8,-2,-6,-4,0
1533861146143860,-1,1,21,-8,-6,-2,-5,2
1533861146143860,4,0,17,-1,1,-1,1,3
1533861146144859,-1,2,30,0,-2,0,-5,-2
1533861146144859,-4,-4,-1,-5,1,0,3,-1
1533861146150844,1,2,20,5,1,1,-3,-1
1533861146150844,-3,-3,11,-5,-3,-1,-1,-3
1533861146150844,-1,-2,1,-2,-3,-3,0,-2
1533861146150844,-2,1,-12,-1,-1,1,-2,0
1533861146172949,-1,-4,-3,-2,1,-3,-4,-5
1533861146172949,2,4,41,-3,1,1,4,2
1533861146173781,-2,-3,-17,-1,-4,-1,-3,-4
1533861146173781,-3,-4,-25,-18,-10,-3,0,-3
1533861146195729,2,-1,10,6,0,2,-6,1
1533861146195729,2,-2,0,3,13,2,-1,1
1533861146195729,1,2,4,6,-4,-4,0,-2
1533861146195729,-6,-1,-10,2,4,0,0,-2
1533861146209689,0,-2,-6,-6,-20,-4,-2,0
1533861146209689,-6,-5,-27,-7,2,-1,-4,-6
1533861146217867,0,-1,-10,-7,-8,-4,-1,2
1533861146217867,-1,1,-12,5,7,4,2,1
1533861146232627,1,2,-4,1,3,1,-3,1
1533861146232627,-2,-2,1,4,-3,-4,-2,-5
1533861146233621,2,0,9,-1,1,-5,0,-9
1533861146233621,2,-1,9,3,2,6,5,5
1533861146255596,-5,-5,-12,-5,0,-2,-2,-1
1533861146255596,-2,-1,2,1,-6,0,-5,-2
1533861146256561,-2,-1,2,2,4,0,9,2
1533861146256561,1,-1,18,1,-3,-3,-5,0
1533861146269645,1,-1,6,-2,5,-4,-2,-1
1533861146269645,1,-1,9,-1,-2,2,1,4
1533861146277504,-1,0,3,0,0,2,-2,-1
1533861146277504,-5,-2,-2,-5,-3,-4,-4,-2
1533861146292476,2,1,7,4,6,0,0,-1
1533861146292476,0,-5,-13,-19,-10,-7,0,-4
1533861146293461,1,1,-1,1,2,-2,-2,1
1533861146293461,0,2,1,1,-2,-2,-2,-4
1533861146315600,0,0,10,7,2,-2,-2,-3
1533861146315600,-2,-5,-19,0,0,0,0,0
1533861146316407,1,3,10,4,0,4,-3,7
1533861146316407,1,-4,-14,6,6,-4,-3,-1
1533861146329395,-1,0,5,5,-4,-5,1,1
1533861146329395,-3,2,5,2,-3,-3,-2,-5
1533861146337344,-4,-3,-13,-13,-27,-6,1,-2
1533861146337344,3,2,0,-2,-14,1,-4,3
1533861146352304,0,-2,-5,-4,5,1,-3,2
1533861146352304,-1,0,7,6,5,1,2,0
1533861146353300,-1,-3,-11,-2,2,-5,-3,-3
1533861146353300,0,1,5,-1,3,-4,0,-2
1533861146375245,-2,-4,-9,-3,1,-2,-4,1
1533861146375245,-3,1,4,2,4,3,-5,0
1533861146376239,1,-2,-9,4,8,4,4,1
1533861146376239,0,2,10,1,1,-2,1,-2
1533861146390287,0,1,-4,-5,-2,1,-3,-3
1533861146390287,-3,-1,-7,4,-7,-4,-3,0
1533861146405164,-4,-3,-7,-1,3,-3,-7,-3
1533861146405164,-1,0,4,1,0,-3,0,-3
1533861146413141,-2,0,5,-5,-2,1,1,0
1533861146413141,-1,0,5,-5,0,-2,1,-2
1533861146413141,0,-1,-1,-1,7,2,0,0
1533861146413141,0,-1,2,-1,6,2,-1,-2
1533861146435301,3,-1,-6,0,-3,-4,-1,0
1533861146435301,-3,-2,-10,-6,-11,-3,5,2
1533861146436084,-3,-1,1,-10,-24,-4,-3,-3
1533861146436084,-1,-2,4,5,14,5,-5,-1
1533861146450046,-3,-7,-21,-4,11,2,2,0
1533861146450046,-5,0,8,-2,-10,-4,-1,-4
1533861146458227,-2,-2,-5,-2,0,-5,-1,-3
1533861146458227,0,2,-1,4,-1,-3,1,1
1533861146473156,1,1,10,1,2,5,0,1
1533861146473156,1,-2,14,3,7,1,-1,-1
1533861146473978,-2,-2,-4,1,3,1,-3,1
1533861146473978,3,-1,-9,-8,-2,-1,2,-5
1533861146494923,-1,-1,-21,-5,-1,-3,4,-1
1533861146494923,2,0,2,-7,-4,-1,-1,-1
1533861146495919,-2,-1,9,3,0,0,-3,-3
1533861146495919,-2,-2,6,1,-1,-3,-3,0
1533861146509882,-1,2,8,-3,-3,0,-3,-4
1533861146509882,-1,-3,-30,-7,-6,-6,-4,-6
1533861146517862,-1,-4,-15,-3,-3,5,6,4
1533861146517862,-3,-1,-6,4,6,1,-6,0
1533861146532837,-4,-6,-22,2,2,-4,-2,-3
1533861146532837,-1,-1,-9,-2,-15,-4,-2,0
1533861146533845,0,0,-6,3,4,-2,-5,-3
1533861146533845,-1,0,-4,-9,-13,-4,1,-3
1533861146555760,1,2,9,3,0,-2,-1,0
1533861146555760,-1,1,-2,-1,3,4,3,5
1533861146555760,-1,-1,-7,-3,-7,-4,-6,-2
1533861146555760,-3,-3,-2,-4,-3,-2,1,0
1533861146578710,-2,-1,3,5,2,-2,0,-4
1533861146578710,-3,-2,-5,9,11,4,0,-3
1533861146579699,7,6,12,-4,15,3,1,-1
1533861146579699,-4,-4,-39,-16,-27,-7,0,-3
1533861146592664,2,0,-13,4,2,2,1,3
1533861146592664,-2,-4,-9,-2,-5,2,0,1
1533861146593659,0,2,-4,-4,-3,0,1,1
1533861146593659,1,2,21,8,10,1,-1,-2
1533861146615603,-3,-5,5,-6,-10,-6,0,-6
1533861146615603,0,0,15,4,7,-1,3,3
1533861146615603,-1,-3,14,3,4,-1,-7,-5
1533861146615603,1,-1,15,3,0,0,2,3
1533861146638755,-2,-3,14,-3,-8,-3,-8,-2
1533861146638755,2,0,2,-1,1,-2,-2,0
1533861146639571,-1,-2,16,2,7,-3,-2,-2
1533861146639571,-3,-1,74,-6,-7,-3,1,-3
1533861146652502,2,3,34,-9,-4,2,-1,5
1533861146652502,-2,-3,30,2,-9,-2,-6,-3
1533861146653512,-3,-4,-22,-6,-11,2,2,1
1533861146653512,-1,-1,-25,11,17,5,2,-1
1533861146675656,0,5,-20,-2,-4,-1,2,-1
1533861146675656,-1,-5,-29,-1,-3,-6,-4,-2
1533861146676473,0,1,-15,7,20,4,4,1
1533861146676473,-1,-3,-47,-19,-14,-6,-4,-4
1533861146698380,0,1,-9,0,1,8,-3,2
1533861146698380,1,5,-6,-3,4,4,6,2
1533861146699376,-3,-3,-5,1,-7,-3,-3,-5
1533861146699376,0,2,0,5,6,-1,-1,-2
1533861146713350,-3,-5,-8,1,4,-4,1,-3
1533861146713350,0,-2,-18,-3,2,-3,-3,0
1533861146713350,-1,-1,3,-2,0,-4,-1,0
1533861146713350,1,0,1,0,7,2,2,3
1533861146735283,-2,-2,-21,-14,-18,-7,-1,-4
1533861146735283,-4,-4,-2,-3,-22,-4,-3,-2
1533861146736277,0,0,4,2,3,0,0,-1
1533861146736277,-2,-8,-38,1,-18,-5,-4,2
1533861146758419,0,4,3,2,13,4,1,2
1533861146758419,0,2,6,10,19,6,-1,-6
1533861146759215,-2,-3,-3,1,-5,-3,-3,-4
1533861146759215,-3,-6,-8,0,8,-4,-1,-4
1533861146773191,2,0,13,9,7,2,0,2
1533861146773191,2,-3,-16,-7,-8,-2,0,1
1533861146773191,-3,-1,-8,-2,-3,-3,0,-1
1533861146773191,2,0,5,1,0,0,-1,2
1533861146795119,3,-2,2,2,-7,-4,-1,-1
1533861146795119,-1,2,4,-2,2,-2,-3,-2
1533861146796117,0,0,4,5,5,0,-2,0
1533861146796117,-3,-3,-19,-4,-3,-3,-2,-2
1533861146818061,-4,-2,-11,-4,-10,-4,-2,-3
1533861146818061,0,0,1,2,3,0,-1,-1
1533861146819069,-2,-3,-9,-10,-17,-2,-1,1
1533861146819069,-1,2,-2,-7,-8,-2,-1,-2
1533861146833018,-3,3,-8,-5,3,-5,0,1
1533861146833018,1,3,5,9,-4,3,-2,1
1533861146834015,0,-6,-9,-4,1,1,0,-1
1533861146834015,-1,-3,8,5,1,0,-4,-4
1533861146863938,-1,-3,-4,-7,-12,-6,2,-2
1533861146863938,-2,-1,-1,0,10,6,6,3
1533861146864932,0,2,0,0,1,3,3,3
1533861146864932,-1,0,-11,-4,10,0,1,-1
1533861146878896,-6,-5,-2,5,9,-1,-3,-6
1533861146878896,-1,0,1,-4,-10,-8,-4,-4
1533861146878896,3,3,2,-3,-2,-5,-1,-1
1533861146878896,1,4,3,0,4,3,0,0
1533861146900864,-1,-4,2,-4,-1,-3,2,-1
1533861146900864,-6,-11,-6,-9,-14,-1,-4,-7
1533861146901859,-2,-1,-6,0,5,-4,-4,0
1533861146901859,0,5,-4,-11,-3,-3,-8,-1
1533861146915805,-1,0,0,10,17,6,1,-3
1533861146915805,-2,-3,-10,-28,-59,-15,-1,0
1533861146915805,-1,-5,10,-1,-4,3,4,-5
1533861146915805,-1,-1,0,7,-13,7,4,6
1533861146938739,-1,-2,-24,-10,-6,2,3,1
1533861146938739,1,4,12,9,30,14,-5,1
1533861146939733,-3,-3,2,1,3,-3,-2,-4
1533861146939733,-1,0,0,-4,5,-6,-5,-5
1533861146960678,-1,-1,18,6,0,-5,-4,0
1533861146960678,-1,-2,4,2,10,-5,0,-3
1533861146961680,-1,2,7,-10,-8,-3,0,-3
1533861146961680,3,2,9,5,7,7,2,7
1533861146975840,0,-2,-5,-8,-13,-3,-3,0
1533861146975840,-2,0,3,7,6,-3,-3,-2
1533861146975840,-2,-1,3,1,0,-3,-3,-7
1533861146975840,-4,-7,-10,0,-3,-15,6,-5
1533861146998604,3,7,2,-1,17,16,-21,5
1533861146998604,-1,-2,-17,-20,-4,-5,2,2
1533861146999604,-1,-6,0,-1,-9,-2,3,2
1533861146999604,-2,-5,4,-12,-39,-13,-7,-10
1533861147012538,-1,-2,-3,5,3,-2,6,-3
1533861147012538,-1,3,-17,6,8,-4,-3,-3
1533861147013535,-2,4,-14,-1,11,1,-5,-2
1533861147013535,3,1,9,6,13,0,2,3
1533861147035476,-1,2,-17,-1,-5,-1,5,-3
1533861147035476,-1,5,29,9,8,-1,-3,-3
1533861147036474,-1,-5,-12,6,12,5,0,1
1533861147036474,2,6,17,18,21,15,5,5
1533861147058415,-6,-11,-52,-21,-27,-11,-5,-8
1533861147058415,3,4,36,8,-9,-1,11,2
1533861147059412,-2,4,-10,3,23,-2,-4,-4
1533861147059412,0,-8,-34,-9,-22,2,-2,0
1533861147072379,-1,-4,26,11,9,-1,1,0
1533861147072379,0,-4,-17,-2,7,-1,-6,-3
1533861147073396,3,4,4,2,-2,-3,9,7
1533861147073396,-4,2,-18,2,13,-4,-7,-6
1533861147095317,-2,-1,-6,-8,-24,-7,-2,-1
1533861147095317,-1,-6,-12,-5,-10,-1,0,0
1533861147096314,-2,-1,-13,-10,-10,-1,-6,-2
1533861147096314,-2,1,8,-3,4,2,2,0
1533861147118289,2,4,15,2,3,4,5,2
1533861147118289,2,0,-30,-2,10,-2,-3,0
1533861147119253,-3,-7,-18,-9,2,-1,-2,-3
1533861147119253,-1,-5,-11,-12,1,4,0,1
1533861147132249,-4,-1,-2,6,10,0,-3,-4
1533861147132249,0,-3,-7,-3,-9,1,1,3
1533861147140200,1,0,12,-3,-28,-9,0,2
1533861147140200,-3,-5,-37,-20,2,3,-2,-4
1533861147155163,6,6,16,11,15,5,6,4
1533861147155163,-4,-4,-26,0,23,1,-3,-5
1533861147156159,0,2,3,10,-7,0,-2,-1
1533861147156159,-2,-8,-14,-7,-10,-3,0,-3
1533861147179093,1,2,-2,-6,-30,1,1,2
1533861147179093,-1,-3,9,3,10,-4,2,-1
1533861147179093,-1,-4,-13,-10,-12,-6,-8,-3
1533861147179093,1,4,19,22,42,9,5,2
1533861147192251,-5,-3,-50,-27,-52,-15,-9,-6
1533861147192251,1,-9,7,0,4,1,2,2
1533861147200230,-1,-1,-26,-13,-42,-6,-4,-1
1533861147200230,0,-2,2,5,12,1,-1,-2
1533861147215195,2,-3,-16,-3,12,-1,6,1
1533861147215195,-5,5,18,12,16,-2,-8,-4
1533861147215993,0,-1,7,7,8,3,4,1
1533861147215993,0,2,2,-5,-13,-5,-4,-3
1533861147238965,2,2,0,7,13,0,0,-1
1533861147238965,1,0,-24,-8,-18,-3,2,-1
1533861147238965,1,0,3,7,23,8,0,1
1533861147238965,-2,-3,-4,-6,-28,-8,-5,-2
1533861147251901,0,-1,10,6,15,-1,-1,-1
1533861147251901,-2,2,5,0,-6,2,2,0
1533861147260874,1,3,4,3,-6,-1,-1,-2
1533861147260874,-4,2,-10,-8,19,-5,-6,-1
1533861147275932,-1,-8,-2,9,-14,-5,1,-2
1533861147275932,0,-3,-24,-27,-8,-5,-6,-1
1533861147275932,0,-3,-5,-4,-15,4,6,2
1533861147275932,-1,-1,23,1,-31,-5,-4,-3
1533861147298775,3,2,12,10,67,5,1,-1
1533861147298775,-3,-1,-33,-19,-67,-12,-3,0
1533861147299784,1,0,19,0,5,2,-1,0
1533861147299784,0,0,8,-5,-4,-1,-4,-1
1533861147311738,-4,-4,-8,5,1,-2,-4,-4
1533861147311738,4,4,29,9,23,5,1,1
1533861147320747,-4,-3,-11,-4,8,-5,-2,-2
1533861147320747,-4,0,4,4,-9,-2,-2,-2
1533861147335693,-3,-4,-14,-1,-8,0,-3,0
1533861147335693,-2,1,22,13,14,4,1,0
1533861147336674,-4,-2,-15,0,-5,-4,-2,-4
1533861147336674,-1,-2,9,3,3,0,1,0
1533861147358831,-1,0,-2,-1,-1,0,-1,-3
1533861147358831,1,1,-4,2,0,0,2,-1
1533861147359620,-1,-6,-11,-4,7,0,-4,0
1533861147359620,2,3,-2,4,-1,-1,3,2
1533861147372603,0,2,-1,-1,4,1,-1,0
1533861147372603,-3,-1,-18,-5,0,-1,-7,-3
1533861147388550,-2,-11,-30,-15,-47,1,2,-1
1533861147388550,-2,-3,-6,-7,25,-2,-1,-4
1533861147395514,-2,-2,-8,-11,-29,-6,-5,-3
1533861147395514,-2,1,-1,-1,17,1,4,2
1533861147396512,-1,-1,0,8,21,-1,-5,-1
1533861147396512,1,1,6,-4,-26,-1,4,1
1533861147418455,-1,-4,-19,1,4,-2,-3,-3
1533861147418455,-1,-3,-3,2,1,-3,-1,-1
1533861147419450,1,2,6,0,8,2,2,1
1533861147419450,1,-2,-7,3,-5,-2,-1,-5
1533861147432598,-4,2,-2,-3,2,-3,0,-3
1533861147432598,-2,-5,-21,-1,-7,1,2,-2
1533861147440424,-1,0,8,4,2,-1,-10,2
1533861147440424,-16,-6,-24,2,9,-4,0,1
1533861147455377,7,5,-3,-8,-5,0,-5,-3
