timestamp,emg1,emg2,emg3,emg4,emg5,emg6,emg7,emg8
1533861573027880,19,7,1,-9,-27,6,-1,2
1533861573027880,-16,-3,-5,2,19,-13,-5,-2
1533861573033864,-6,-3,0,-2,-1,3,3,-3
1533861573033864,14,5,4,6,-7,10,3,3
1533861573034861,-9,-3,-6,-15,3,-15,-6,-1
1533861573034861,-5,-4,-2,0,-7,-2,1,-4
1533861573036857,9,2,2,-4,-12,5,-1,0
1533861573036857,-1,-2,-3,-1,-1,-5,-5,0
1533861573040845,-14,-6,-1,6,22,-4,-1,-3
1533861573040845,7,3,-10,-5,-13,8,2,-1
1533861573054808,7,-1,11,1,-10,-1,0,3
1533861573054808,-11,-4,-3,-1,9,-10,-2,-4
1533861573065778,-3,-3,2,4,-2,0,1,-2
1533861573065778,8,2,1,-4,-5,3,-2,0
1533861573069768,-8,-2,-9,3,9,-8,-4,-2
1533861573069768,-5,-4,-1,-2,3,0,1,-4
1533861573084730,4,0,0,3,-6,5,2,-1
1533861573084730,3,0,2,-4,-1,-1,-2,2
1533861573100788,-7,-2,-4,0,5,-6,-2,-1
1533861573100788,0,-1,2,-3,-6,1,-1,0
1533861573115649,1,-1,-1,7,-6,-1,-2,0
1533861573115649,-4,-4,1,-8,6,-2,-1,0
1533861573148557,18,5,6,-4,-19,14,3,2
1533861573148557,-1,0,-7,4,-2,-11,-6,0
1533861573149554,-15,-5,0,4,19,-6,-1,-6
1533861573149554,8,1,1,2,-13,7,0,-1
1533861573152545,4,0,-2,-3,-10,-2,-4,3
1533861573152545,-13,-4,-3,-2,17,-6,-3,-3
1533861573153543,3,-3,1,-10,-24,3,1,-3
1533861573153543,8,1,3,-9,-7,2,-2,0
1533861573160528,-15,-5,-9,18,19,-12,-4,-4
1533861573160528,-1,-2,2,-1,-4,6,3,-1
1533861573166512,11,3,2,3,-4,8,-1,3
1533861573166512,-7,-3,-5,4,4,-9,-4,-2
1533861573174491,-9,-3,1,-5,10,-2,-1,-3
1533861573174491,7,-1,2,-10,-18,4,1,0
1533861573189447,4,0,-2,2,-1,-6,-2,2
1533861573189447,-10,-3,6,-4,9,-5,1,-3
1533861573204411,-1,-2,-5,6,-5,2,1,-3
1533861573204411,6,3,-7,-3,-11,3,-1,-1
1533861573219371,-4,-4,17,5,7,-2,-2,2
1533861573219371,-3,-2,-12,-13,-8,1,1,-2
1533861573227350,4,0,4,3,1,1,-2,-2
1533861573227350,-3,0,-4,-15,-2,-3,-1,0
1533861573234331,-4,-2,-9,-2,-7,-2,0,-1
1533861573234331,-2,1,0,8,1,-1,-1,1
1533861573235324,0,1,0,-3,-3,-4,-2,1
1533861573235324,-4,-3,7,7,9,-1,-2,-3
1533861573258273,0,-2,-7,-15,-10,0,-1,-2
1533861573258273,2,-2,0,4,-3,1,-1,-1
1533861573259261,-4,-3,-2,-12,1,-2,0,-2
1533861573259261,0,-2,-6,0,5,0,1,-1
1533861573280206,1,-1,-4,-1,-1,-2,-2,0
1533861573280206,-2,-2,-1,1,0,-2,-3,-1
1533861573281201,-3,-1,1,-2,-9,-2,0,-4
1533861573281201,0,-4,0,10,4,-4,-3,-1
1533861573295168,-1,1,-2,2,1,1,-4,-1
1533861573295168,-1,1,11,8,2,1,3,0
1533861573295168,1,2,-8,-5,-4,3,2,1
1533861573295168,-2,-2,-7,-11,-18,-4,0,-1
1533861573317106,-4,-2,-5,-25,9,-6,-3,-4
1533861573317106,-2,-3,-4,-9,-12,-4,-4,-3
1533861573318122,0,2,2,5,2,1,-2,0
1533861573318122,0,1,3,9,-1,1,1,0
1533861573341043,-3,-3,-1,12,3,-3,-1,-3
1533861573341043,0,2,5,16,6,2,3,1
1533861573341043,-1,-2,4,3,-2,-4,-2,2
1533861573341043,-5,-5,-15,-47,-7,-2,0,-2
1533861573355023,3,0,-4,-1,-1,6,5,3
1533861573355023,0,0,-6,-8,0,-4,-8,-3
1533861573356010,-2,-1,5,28,3,-8,-6,-7
1533861573356010,4,7,24,62,15,13,8,5
1533861573376951,4,4,0,6,3,9,8,5
1533861573376951,-12,-17,-48,-96,-32,-19,-5,-7
1533861573377944,-2,-4,-7,59,-2,-1,-7,0
1533861573377944,-3,-6,-17,-10,-21,-15,-7,-7
1533861573401076,2,7,70,60,7,2,-3,-2
1533861573401076,3,7,8,17,42,5,-2,1
1533861573401076,1,0,-2,-48,-33,-2,1,2
1533861573401076,-2,-3,-6,-24,-10,-5,1,0
1533861573414852,-5,-5,-22,33,1,10,9,1
1533861573414852,1,0,9,2,-20,-2,0,-1
1533861573415841,0,1,5,-18,7,-2,-5,-1
1533861573415841,0,0,3,13,13,2,-5,-1
1533861573437797,0,0,-7,-18,-4,-5,-4,-4
1533861573437797,-3,-5,-9,-23,-8,-1,-2,0
1533861573437797,-1,-2,-4,17,12,1,4,0
1533861573437797,2,1,15,41,11,1,0,-1
1533861573460722,-6,-10,-36,-109,-32,-19,-9,-8
1533861573460722,1,2,7,49,5,3,0,1
1533861573461718,-3,-2,-1,-11,2,7,2,1
1533861573461718,-1,-1,0,-2,6,3,-2,0
1533861573482663,0,1,4,11,0,-3,-2,-2
1533861573482663,-1,1,3,13,4,-1,2,1
1533861573483661,-3,-4,-4,-18,-4,-4,1,-2
1533861573483661,1,-1,2,-5,-1,0,-1,-2
1533861573497641,-2,-1,-8,16,5,-1,-2,0
1533861573497641,-1,-2,-2,1,-5,-1,0,0
1533861573498620,-2,-2,-3,3,7,-2,-1,-2
1533861573498620,-1,-1,-1,-6,2,-2,-4,-1
1533861573520597,-2,0,-4,-1,-8,-3,0,-2
1533861573520597,-1,0,2,5,2,2,0,-1
1533861573521592,0,-1,2,-7,0,-2,-3,0
1533861573521592,-4,0,-2,-3,0,-3,-3,1
1533861573535523,-2,-3,-2,-1,-1,0,-3,-3
1533861573535523,-1,2,4,7,3,2,-2,-1
1533861573535523,-4,-2,-3,1,0,-4,2,-3
1533861573535523,-3,-2,-3,-8,-6,-2,-1,0
1533861573557462,-1,0,-3,8,2,-1,0,-1
1533861573557462,-1,-1,0,4,2,-2,1,2
1533861573558461,-1,-1,-16,-5,-1,-4,1,0
1533861573558461,3,3,45,2,2,-1,-1,0
1533861573580405,-2,-1,0,2,2,-1,-3,-2
1533861573580405,-3,0,-13,0,8,1,-1,-4
1533861573581415,-1,-3,0,-7,-25,-1,3,2
1533861573581415,0,0,-14,-2,-2,-1,-3,-2
1533861573594368,-2,-3,-2,4,2,-1,1,2
1533861573594368,0,-1,7,0,-4,-2,0,-1
1533861573595362,0,0,0,1,7,0,-1,-2
1533861573595362,-1,-2,-9,-3,0,-3,-3,-3
1533861573617509,0,0,0,2,7,-1,-2,-2
1533861573617509,1,-2,-4,-6,-14,1,0,-1
1533861573618301,-2,-1,1,-3,7,-3,-2,0
1533861573618301,-3,-2,-6,-3,-6,3,0,-4
1533861573640242,2,-1,-2,2,14,2,-1,4
1533861573640242,-4,-2,1,1,-5,-5,0,-1
1533861573641239,-2,-1,2,-4,1,-1,-4,-3
1533861573641239,2,1,-3,-2,-13,2,0,3
1533861573654204,-1,2,-3,5,1,0,2,2
1533861573654204,-3,-1,-1,-1,4,-1,0,-2
1533861573662186,4,1,2,-1,-2,3,-2,-2
1533861573662186,-2,-2,-10,-4,2,-5,-5,-5
1533861573677163,-4,0,3,-1,-4,-3,-3,-4
1533861573677163,2,0,4,5,2,1,0,-1
1533861573678140,0,-1,-3,-3,0,-5,-4,-1
1533861573678140,-3,1,-4,3,11,-3,-1,0
1533861573701083,-2,-4,-14,-8,-7,2,0,-2
1533861573701083,2,1,8,0,-12,1,4,0
1533861573701083,-4,1,-6,-2,12,1,1,-2
1533861573701083,-5,-2,-18,-2,-5,-7,1,-2
1533861573714047,5,4,52,5,1,5,-1,4
1533861573714047,1,1,3,6,4,-4,-4,-1
1533861573722024,-6,-3,-6,-3,16,1,-1,0
1533861573722024,0,-7,-2,-3,-15,-3,0,-1
1533861573736987,1,-7,-23,-9,-18,-5,-2,-2
1533861573736987,-6,-3,-14,-2,3,-5,-1,-3
1533861573737980,2,9,13,0,0,0,2,-1
1533861573737980,4,3,0,1,2,3,-1,0
1533861573761075,-1,11,-49,1,3,-5,-1,-1
1533861573761075,7,12,106,29,9,5,3,5
1533861573761075,6,39,-28,-7,-4,4,-6,-2
1533861573761075,-11,-14,47,-7,-12,-10,-9,-7
1533861573773885,-16,-36,-102,-26,0,-9,-3,-6
1533861573773885,12,-15,98,43,6,8,5,4
1533861573782929,2,7,69,-27,-16,-9,-6,0
1533861573782929,-16,-27,-29,-13,0,2,15,20
1533861573797991,23,6,-56,-29,-13,-5,-7,-13
1533861573797991,-42,-20,-90,-7,-2,1,-6,16
1533861573797991,0,-12,-59,8,-4,-5,-1,-14
1533861573797991,35,29,-19,9,6,4,20,25
1533861573827744,-18,7,-12,5,2,1,-14,-26
1533861573827744,2,8,-81,-24,0,-5,-14,-19
1533861573828738,-9,7,-38,6,1,-14,-14,-7
1533861573828738,1,22,64,8,0,-3,3,-4
1533861573834726,10,17,111,16,5,21,14,23
1533861573834726,-10,-45,10,-19,-2,1,1,-7
1533861573842703,-26,-48,-51,-3,-7,-3,1,1
1533861573842703,8,-9,-96,-12,-6,-2,-10,-10
1533861573857673,5,11,85,31,2,-8,1,8
1533861573857673,1,22,-26,-29,4,1,0,0
1533861573857673,9,-18,44,28,-8,1,5,6
1533861573857673,-7,4,-18,-21,11,-4,-7,-9
1533861573880599,-10,-6,0,7,2,-5,-4,-3
1533861573880599,9,4,-29,-11,-30,-3,5,0
1533861573881611,7,-16,-4,-1,-4,-4,3,4
1533861573881611,-6,6,-8,9,11,4,-6,-9
1533861573894598,-7,-4,0,-1,10,5,5,3
1533861573894598,7,-4,-5,-12,-15,-12,-4,-4
1533861573903543,-3,9,-22,5,1,-1,-4,-2
1533861573903543,-10,-6,10,6,0,2,-4,-8
1533861573916514,7,-5,-12,-9,-19,-4,2,3
1533861573916514,2,3,-29,9,9,-2,0,1
1533861573925479,-2,6,-55,-9,-1,-2,-3,-3
1533861573925479,3,13,85,3,4,5,-6,-8
1533861573940438,-10,-7,-63,-13,3,1,7,3
1533861573940438,-6,-4,-20,5,1,-4,0,0
1533861573942441,2,4,83,11,4,3,4,4
1533861573942441,1,-4,-29,-18,-4,-2,-3,-2
1533861573954401,-2,6,-26,15,-10,-7,-7,-5
1533861573954401,1,4,11,6,9,-1,-2,-5
1533861573963386,9,4,-19,20,15,10,4,2
1533861573963386,-2,-6,-18,26,0,2,2,2
1533861573976344,-2,-5,29,-10,9,-8,-4,-1
1533861573976344,3,-2,-11,-3,-47,-3,1,1
1533861573985527,-1,-3,9,-32,-3,-6,-2,-2
1533861573985527,-4,-1,-11,7,-15,-4,-1,-2
1533861574000279,-3,-6,1,-5,7,3,-1,-3
1533861574000279,1,-1,4,2,24,3,-1,0
1533861574002273,-2,-1,-8,1,5,2,-2,-2
1533861574002273,-3,-3,5,1,9,1,2,1
1533861574014243,1,-3,-4,-6,-14,-7,-4,-3
1533861574014243,-1,3,-7,-1,13,-4,-6,-7
1533861574023217,-5,2,13,-2,2,4,3,0
1533861574023217,-3,-9,-14,1,20,4,3,0
1533861574037184,1,-1,5,-3,-28,-7,0,2
1533861574037184,0,4,-3,-7,6,2,-1,0
1533861574046157,2,0,4,-3,-17,-10,-1,2
1533861574046157,-2,-6,-12,3,2,0,-3,-4
1533861574060119,-1,0,-3,13,55,12,1,0
1533861574060119,0,1,11,-23,-62,-16,-2,1
1533861574062113,-7,-12,-19,-9,-21,-4,-3,-3
1533861574062113,-2,-2,-8,-19,-14,-5,-2,-1
1533861574082060,-2,-1,5,2,-7,0,-3,-4
1533861574082060,2,2,-4,15,36,9,1,-2
1533861574091042,4,2,14,-3,4,3,-2,-1
1533861574091042,-3,-5,-6,5,-1,-2,-3,-5
1533861574097226,-2,-6,-4,5,6,4,6,1
1533861574097226,-1,3,4,0,2,0,3,3
1533861574106014,-3,-2,-6,2,13,3,-1,0
1533861574106014,-2,0,3,0,10,-6,-6,-4
1533861574118961,5,8,2,10,5,8,-6,-4
1533861574118961,0,0,-10,-27,-47,-22,-4,-1
1533861574135916,-7,-8,-5,-3,-5,0,5,5
1533861574135916,-2,-3,-4,10,4,0,0,-1
1533861574142898,-4,-2,-1,-15,-6,-1,-2,2
1533861574142898,0,0,-2,19,18,0,-7,-4
1533861574144904,3,5,7,-7,-10,-4,-5,-4
1533861574144904,1,1,-4,-6,-16,0,0,0
1533861574165836,-3,-4,-4,-2,-3,-5,2,-1
1533861574165836,-3,-6,-2,5,26,12,4,1
1533861574166833,2,3,-2,-1,9,-2,-5,-4
1533861574166833,0,0,2,-3,-8,-5,-3,-3
1533861574178801,-2,1,4,0,-5,-3,0,-1
1533861574178801,-8,-9,-7,-2,13,4,9,7
1533861574187780,-6,-8,-5,1,-10,2,3,0
1533861574187780,5,9,5,-4,-4,-8,-13,-8
1533861574202956,8,11,8,5,14,-7,-11,-12
1533861574202956,-10,-12,-10,-6,-7,6,13,12
1533861574204732,-4,-9,-4,4,14,7,7,6
1533861574204732,-1,-2,0,0,21,2,3,1
1533861574241647,5,7,0,-13,-31,-8,-6,-1
1533861574241647,2,-3,1,6,46,-1,-5,-4
1533861574242631,-9,-12,-9,4,41,2,3,11
1533861574242631,-2,-2,-6,-3,49,2,-8,-2
1533861574243628,1,1,-2,-4,43,-7,-5,5
1533861574243628,9,17,9,3,61,-8,-16,-2
1533861574248615,5,-3,2,-2,88,2,28,62
1533861574248615,-16,-6,2,-1,108,-29,-14,81
1533861574262577,-10,-16,-11,2,116,-13,8,124
1533861574262577,5,11,6,21,90,2,-4,89
1533861574269562,-6,-6,-9,23,41,16,9,58
1533861574269562,-1,-16,-16,18,-31,12,22,62
1533861574285517,-1,-1,-4,-12,-106,-8,12,17
1533861574285517,-12,-16,-7,-22,-90,-27,13,18
1533861574287511,19,21,10,-40,-96,-60,-23,-24
1533861574287511,2,5,4,-13,-85,-32,-12,-23
1533861574299483,-7,-12,-6,11,-32,-22,-3,-21
1533861574299483,7,6,1,12,-58,-4,-12,-36
1533861574308462,-1,9,2,0,-70,14,-40,-60
1533861574308462,-9,-15,-10,12,-63,20,-8,-57
1533861574323415,2,5,1,19,-42,30,0,-86
1533861574323415,0,5,3,16,-36,31,30,-89
1533861574324421,-11,-17,-10,-40,-41,31,21,-68
1533861574324421,9,16,6,-34,-27,24,8,-89
1533861574345361,-5,-9,-4,-27,-27,28,14,-54
1533861574345361,8,6,2,-9,-10,8,-1,-52
1533861574347366,4,12,17,35,4,1,8,-13
1533861574347366,0,2,-3,24,-20,5,13,4
1533861574359319,-6,-14,-10,11,3,1,0,16
1533861574359319,-2,-1,7,10,2,-6,-15,19
1533861574368329,-2,-1,-7,16,19,-3,-8,13
1533861574368329,2,1,6,18,19,2,-6,16
1533861574382257,3,6,8,15,17,-12,-13,3
1533861574382257,-2,-7,-16,-2,14,7,-9,1
1533861574389240,-1,1,4,4,-7,-4,-14,-13
1533861574389240,-3,-6,-1,19,9,-4,-1,-20
1533861574406193,0,-2,2,59,-19,-17,-11,-29
1533861574406193,-2,-6,-6,19,3,9,-7,-21
1533861574407190,10,5,-11,21,-22,14,-4,-5
1533861574407190,-14,-9,10,-36,-33,-4,-12,-42
1533861574419160,-4,-1,3,-11,-5,-5,-15,-22
1533861574419160,-5,2,-3,-27,-15,-18,-19,-18
1533861574428135,-8,-7,0,-41,-12,-25,-17,-26
1533861574428135,8,0,-12,-49,-6,27,2,1
1533861574443096,7,4,-6,-52,3,19,14,6
1533861574443096,0,-5,20,-15,-4,-6,-2,6
1533861574449287,-1,9,-10,-18,4,-5,-3,11
1533861574449287,-5,-2,-4,-15,-4,-22,-10,6
1533861574466033,-6,-6,-4,-37,-7,-29,-15,-7
1533861574466033,-3,-5,-6,-30,-2,5,0,1
1533861574467030,8,11,36,-10,14,9,9,12
1533861574467030,9,4,-8,-8,9,7,6,12
1533861574479002,4,6,26,10,8,14,12,8
1533861574479002,0,-4,-12,-3,-1,-10,11,17
1533861574504929,1,-2,-3,11,8,11,21,11
1533861574504929,5,3,-2,11,6,-9,3,17
1533861574504929,-1,0,-4,-4,8,-5,6,7
1533861574504929,-9,-8,-13,-3,-14,-14,28,-1
1533861574508918,-8,-9,-8,9,-1,-17,55,-4
1533861574508918,3,5,1,2,-1,4,83,22
1533861574525893,-6,6,-27,-4,1,-11,66,-15
1533861574525893,1,2,-2,7,5,-8,58,11
1533861574526870,-11,-33,-9,8,10,30,14,-3
1533861574526870,-7,-9,-15,5,4,-8,-37,8
1533861574538839,-2,4,-1,34,3,19,-33,7
1533861574538839,2,-1,7,50,-5,-7,-60,6
1533861574547985,-1,5,-2,15,-12,-58,-46,0
1533861574547985,-3,-17,-68,10,13,49,-36,-1
1533861574562778,5,7,23,-4,15,23,-13,9
1533861574562778,-1,7,1,-25,1,9,-19,7
1533861574569768,-6,-2,-3,-16,-4,-18,-10,1
1533861574569768,-4,-3,6,-16,-10,-28,26,-9
1533861574584719,0,-5,-8,-31,-2,-8,25,6
1533861574584719,-2,-9,-37,-21,1,4,16,-1
1533861574592698,1,6,52,-14,1,-7,-14,-6
1533861574592698,-2,12,-23,-23,1,-8,-20,-3
1533861574607653,2,-23,94,10,-26,5,-17,9
1533861574607653,-1,0,3,2,9,-2,-14,2
1533861574609648,0,-2,-40,-10,-9,20,-23,6
1533861574609648,2,4,22,13,12,-17,-17,5
1533861574623613,-4,3,-17,-3,8,8,-17,-2
1533861574623613,-2,-1,-16,-2,-4,-14,-21,0
1533861574629805,2,4,8,9,8,26,5,5
1533861574629805,-1,8,27,6,2,-9,-10,5
1533861574645750,-5,-10,-46,-6,-1,-22,-21,-6
1533861574645750,2,1,23,3,1,15,-4,1
1533861574647548,-2,0,-18,1,9,-9,-6,-2
1533861574647548,-1,-2,6,2,-12,-5,-1,-3
1533861574668492,0,6,-10,-1,-1,-2,-11,2
1533861574668492,-4,-1,1,1,3,-3,-4,-2
1533861574669489,0,1,1,7,8,1,-3,0
1533861574669489,-1,-4,5,2,6,1,2,-5
1533861574681668,0,-1,1,11,-19,-6,0,3
1533861574681668,-1,0,2,-4,-3,1,4,3
1533861574690434,0,0,-9,2,-3,0,5,3
1533861574690434,-1,2,15,7,-2,2,-7,1
1533861574704516,-3,0,-19,1,15,4,-11,-1
1533861574704516,0,3,14,-2,-1,0,-16,4
1533861574713371,0,-3,-16,10,9,-2,-26,-7
1533861574713371,-3,-7,-6,-42,-42,-30,-10,-7
1533861574728467,-3,-3,-9,-1,9,21,3,4
1533861574728467,2,2,4,0,-5,-11,-19,0
1533861574729339,0,1,8,1,10,4,2,1
1533861574729339,-2,-2,3,19,16,16,10,3
1533861574742349,-1,1,-7,-9,1,-7,-1,-1
1533861574742349,1,5,10,-4,-17,-3,4,0
1533861574750310,-7,-6,-15,-1,-7,-6,-6,-10
1533861574750310,-3,-7,-4,4,0,-3,-4,-7
1533861574765273,3,0,-3,-7,4,0,5,4
1533861574765273,-1,-1,-5,1,17,7,4,-3
1533861574767264,1,0,-23,-1,-10,-7,-3,3
1533861574767264,3,4,25,6,8,10,9,3
1533861574788211,0,1,0,12,-7,-6,0,-3
1533861574788211,-8,-6,-3,-7,-5,-6,2,-2
1533861574790220,0,-4,-16,-38,-20,-8,2,-1
1533861574790220,-1,-1,0,20,6,2,-1,-3
1533861574802334,1,4,4,-3,13,5,8,5
1533861574802334,-1,-3,-2,20,9,-1,-4,-6
1533861574811148,-1,2,10,-6,-12,8,11,1
1533861574811148,-5,-2,-7,9,-1,-5,-5,7
1533861574826112,-5,0,5,-12,2,-9,-6,3
1533861574826112,1,1,-3,2,2,6,2,-9
1533861574827106,-2,0,9,6,10,1,0,1
1533861574827106,-2,-1,0,2,-7,-2,-3,-1
1533861574848104,2,0,-4,22,9,0,0,-7
1533861574848104,3,1,-1,-5,-11,-3,7,1
1533861574850051,-1,0,3,-3,17,-2,-8,-11
1533861574850051,-2,-6,-11,-12,-11,3,5,-1
1533861574862014,3,-1,8,12,-6,1,1,5
1533861574862014,2,2,3,26,31,6,3,7
1533861574870987,-2,1,7,13,0,4,10,6
1533861574870987,-7,-13,-23,-92,-62,-23,-1,6
1533861574885950,-6,-10,-25,-9,-9,-12,-26,-31
1533861574885950,8,4,7,35,26,12,4,6
1533861574886944,-9,16,-14,-19,-23,-6,10,-6
1533861574886944,4,-15,49,-1,15,9,4,10
1533861574907998,-10,-4,-2,-21,-6,-11,-3,-13
1533861574907998,-4,-6,0,-3,-3,-1,-4,-19
1533861574909884,2,4,8,16,7,8,0,1
1533861574909884,0,7,-10,18,12,-1,4,5
1533861574921850,-1,0,3,-10,-4,-1,5,7
1533861574921850,3,0,3,9,3,8,0,1
1533861574930827,3,-3,28,98,8,-6,3,6
1533861574930827,-7,-5,-46,-49,-8,-8,-8,-10
1533861574945796,4,-2,-31,78,45,8,5,7
1533861574945796,-5,-4,-9,-100,-68,-17,-6,-2
1533861574946812,-2,9,66,27,7,-5,-1,-7
1533861574946812,-1,-2,-41,13,26,13,3,-2
1533861574968734,-2,-1,28,-21,-36,-2,2,5
1533861574968734,-5,-4,0,-30,-2,-5,2,3
1533861574969723,-2,-8,-41,-22,-7,-4,-7,-6
1533861574969723,1,5,-2,31,14,6,0,-2
1533861574981690,4,4,6,-9,6,1,5,7
1533861574981690,-5,-2,-49,8,9,4,3,2
1533861574990667,2,-10,14,-17,-7,0,-3,7
1533861574990667,1,9,14,29,7,-4,-3,-6
1533861575005626,-3,-1,-3,10,1,-7,0,0
1533861575005626,0,4,2,-7,0,-2,4,3
1533861575007621,3,-1,2,56,11,8,3,-2
1533861575007621,-5,-3,-43,-69,-23,-10,-4,-8
1533861575028566,-6,1,-81,47,-9,-11,-8,-8
1533861575028566,4,0,86,-22,17,-1,1,0
1533861575029564,-5,-9,-41,-75,-21,-5,-2,0
1533861575029564,-1,1,15,69,23,5,2,-2
1533861575041530,0,6,-37,-43,-1,2,1,-1
1533861575041530,-2,-3,-11,-4,-11,-4,-2,-3
1533861575050510,1,-1,29,6,19,2,4,3
1533861575050510,1,2,30,10,-5,-2,0,-2
1533861575065470,1,-4,10,-16,-2,-1,2,-1
1533861575065470,-3,-2,-3,28,11,3,3,0
1533861575067464,-2,-3,-12,-54,-14,-2,1,-2
1533861575067464,3,3,-1,35,2,0,-3,1
1533861575088406,-1,-1,32,-1,0,1,2,-1
1533861575088406,-5,-3,-14,3,-12,-9,-2,-1
1533861575089403,-3,-2,-10,25,-4,-2,-3,0
1533861575089403,0,1,6,-16,0,-11,-8,-5
1533861575101372,1,0,22,0,-2,15,6,5
1533861575101372,1,4,3,18,3,6,7,2
1533861575110350,-2,-4,-29,11,-21,-4,-1,-1
1533861575110350,-6,-3,24,12,24,-2,-1,-1
1533861575125534,-1,-3,22,-10,-12,-11,-6,-2
1533861575125534,0,-3,-23,-3,-10,-1,-3,-4
1533861575127385,1,2,12,18,16,1,-3,-1
1533861575127385,0,0,1,-8,-1,6,3,-1
1533861575148319,1,-1,5,5,1,-2,0,0
1533861575148319,1,1,3,-2,2,-2,-2,-2
1533861575150311,-2,-4,-19,-38,-2,-9,-1,-2
1533861575150311,-2,0,8,23,-14,0,-3,-4
1533861575169260,-2,-3,-2,-25,-7,-4,-1,4
1533861575169260,-3,-3,-5,23,34,-3,-4,0
1533861575178237,6,3,11,-58,-21,9,5,3
1533861575178237,-3,-3,-5,-23,-25,-10,-7,-6
1533861575184220,-4,-6,-12,22,4,1,0,-5
1533861575184220,4,1,2,-4,-2,-2,-6,3
1533861575199184,-4,-7,-11,-15,-9,-1,-2,2
1533861575199184,2,8,19,3,7,7,12,-3
1533861575208156,-3,-3,-15,-23,5,3,-3,-2
1533861575208156,-2,-2,8,34,-11,-2,-4,-1
1533861575210151,-1,-1,-34,-12,5,-2,1,-3
1533861575210151,-1,-2,20,0,-11,-6,0,3
1533861575230098,1,-2,8,-6,6,-8,-6,-4
1533861575230098,0,-4,-10,-15,-1,2,3,-2
1533861575232103,-1,-1,-8,13,-2,-1,-2,0
1533861575232103,1,3,40,-2,3,6,1,0
1533861575244077,-1,-1,-40,13,17,2,-1,-1
1533861575244077,-2,7,68,3,-6,-3,-3,-2
1533861575253037,-3,-7,4,4,-3,-5,-4,-3
1533861575253037,0,-1,-22,-7,5,0,-1,0
1533861575275975,0,6,-1,3,4,1,1,-1
1533861575275975,-7,-7,-28,-21,-8,-7,-2,-3
1533861575276973,2,7,68,7,-8,2,-1,1
1533861575276973,0,-1,5,-27,3,5,-1,0
1533861575290939,-5,4,26,15,-4,-9,-4,-4
1533861575290939,-2,-4,-10,10,-5,0,0,-1
1533861575291933,5,4,1,65,33,8,3,-1
1533861575291933,-6,-8,-19,-6,-8,-2,-4,0
1533861575303903,-2,-5,-10,-29,-25,-6,-1,-1
1533861575303903,0,1,-10,-20,-4,-2,4,0
1533861575312876,-7,-13,-43,-16,-16,-13,-11,-6
1533861575312876,3,5,-4,24,10,3,2,1
1533861575327839,2,-2,8,5,7,3,0,0
1533861575327839,0,-1,2,11,-2,2,-2,-2
1533861575329832,-2,3,13,13,16,1,3,-1
1533861575329832,-2,-1,-14,7,1,-4,-3,-1
1533861575350778,5,4,12,-17,-2,2,0,3
1533861575350778,-6,-9,-5,22,1,-7,-7,-6
1533861575351772,-3,-2,-10,-13,-12,0,2,-2
1533861575351772,1,-3,-31,-27,4,3,-1,-1
1533861575364738,-4,-8,15,19,-13,-5,0,1
1533861575364738,1,4,-16,-22,7,6,4,2
1533861575371719,-2,-4,-10,-41,-13,-7,-8,-1
1533861575371719,-2,-5,-24,-4,-9,-1,-4,0
1533861575387882,-1,4,5,-10,2,0,2,-1
1533861575387882,-1,-4,-7,4,-2,-4,-5,-3
1533861575389672,1,2,21,37,12,-3,-1,0
1533861575389672,-1,0,-3,1,-9,0,2,-1
1533861575410833,-3,-7,-6,6,0,-4,-3,-4
1533861575410833,-1,-4,-2,-12,-19,-2,0,-2
1533861575412618,-1,0,-14,-13,4,3,2,0
1533861575412618,-3,1,6,6,2,-7,-5,-3
1533861575425575,0,-2,-9,-10,-4,2,0,-1
1533861575425575,2,3,0,18,30,5,1,1
1533861575431562,-3,-1,7,-14,-31,-5,-6,-3
1533861575431562,-2,-3,-3,19,-7,4,-1,-2
1533861575448514,0,2,29,8,14,0,-1,-2
1533861575448514,-5,-5,-37,-34,-26,-14,-8,-2
1533861575449511,0,-1,-5,8,6,2,0,1
1533861575449511,2,1,19,-19,5,-1,3,-2
1533861575470458,-3,-7,-21,28,-3,2,2,-2
1533861575470458,2,2,11,-21,-13,3,5,1
1533861575472451,3,-1,19,18,8,0,-1,0
1533861575472451,-2,-3,-14,5,-10,-7,-4,-2
1533861575484421,-1,1,0,-14,6,-1,-2,-1
1533861575484421,1,1,-19,0,1,0,-1,-3
1533861575493393,-1,-10,-2,5,-2,4,1,2
1533861575493393,0,4,-3,6,21,0,-1,1
1533861575508357,-5,-15,-57,-28,-21,-6,-3,-3
1533861575508357,-4,-11,-3,20,-1,2,-1,0
1533861575509351,0,4,-33,-6,10,-2,0,-2
1533861575509351,-2,-5,30,-3,-6,-2,0,0
1533861575530298,0,3,-2,19,-4,-2,-1,1
1533861575530298,0,8,29,-19,14,2,-1,0
1533861575532290,-7,-8,-33,31,-5,-9,-6,-5
1533861575532290,2,2,4,37,-8,5,4,0
1533861575553236,-2,-3,-53,-53,-26,-4,-2,-3
1533861575553236,-2,-5,55,38,11,-2,-2,-3
1533861575554231,-1,4,31,-40,9,2,-3,-2
1533861575554231,2,10,-2,17,4,-2,-1,0
1533861575568197,-1,-5,16,-29,-13,2,1,0
1533861575568197,-1,12,-5,-8,5,1,0,0
1533861575569192,-4,-21,19,0,2,-4,-3,-4
1533861575569192,-4,-18,-7,-10,-12,-8,-3,-2
1533861575590138,-1,-1,-13,18,15,1,0,-1
1533861575590138,3,1,-16,20,-3,0,1,-1
1533861575592131,1,16,8,-18,-6,1,0,0
1533861575592131,-6,-4,-43,-17,3,-6,-6,-3
1533861575604098,-1,0,24,-19,-8,-2,-3,-1
1533861575604098,-2,-1,0,23,-1,-1,-2,-2
1533861575613074,2,5,1,0,2,1,0,-1
1533861575613074,-2,-7,-18,15,14,0,0,-2
1533861575628052,-1,3,28,3,-22,-8,-3,2
1533861575628052,-2,-3,-12,-19,-18,-2,-1,0
1533861575630028,0,1,-4,10,18,7,1,1
1533861575630028,1,0,24,5,-4,-4,-2,0
1533861575650975,0,3,6,-18,-2,2,2,0
1533861575650975,-4,-11,-27,-11,-13,-5,-2,-2
1533861575651969,-1,0,-22,2,6,-5,-2,-1
1533861575651969,4,8,9,5,8,2,1,2
1533861575665935,-4,-9,-38,19,1,-2,-4,-4
1533861575665935,-1,-11,41,-14,3,2,1,3
1533861575666929,-1,-4,-12,8,-6,-3,0,-1
1533861575666929,2,5,53,3,-3,2,1,2
1533861575687876,-2,-1,1,9,-9,-2,-2,-1
1533861575687876,2,0,-18,-26,1,2,-1,-2
1533861575689869,0,0,-22,-3,-5,-3,-2,-1
1533861575689869,-4,-3,-16,-17,-11,-4,-3,-2
1533861575717793,2,2,24,-1,6,3,0,-2
1533861575717793,-1,0,-17,7,5,-6,-3,-3
1533861575719788,-2,-1,16,-32,-14,-8,0,0
1533861575719788,-2,-1,-9,40,10,1,-1,-2
1533861575724775,3,0,8,-25,23,-2,-2,-1
1533861575724775,-2,1,-5,-24,-43,0,1,1
1533861575731756,-4,-1,0,10,10,3,1,0
1533861575731756,-2,-5,-7,-17,-7,-1,-2,-1
1533861575747713,0,3,3,17,12,-1,-1,-1
1533861575747713,-1,0,-19,6,7,-2,-2,-4
1533861575749713,-1,-1,16,7,8,2,-1,-1
1533861575749713,0,-1,-5,-38,-22,-3,-1,0
1533861575770655,-3,-1,15,23,13,0,-1,-2
1533861575770655,1,-1,1,-2,-4,-1,-1,1
1533861575772649,-1,-1,-10,-35,-7,1,0,-1
1533861575772649,-1,-2,-10,26,9,-2,-4,-2
1533861575784646,-6,-2,-1,-9,-8,-2,0,-1
1533861575784646,-2,-1,11,-16,5,0,-2,-1
1533861575791622,0,-5,-50,3,-4,-5,-2,-3
1533861575791622,-2,-2,4,-40,-2,-1,0,-2
1533861575808578,1,-1,2,-36,-1,5,3,1
1533861575808578,-1,2,7,44,14,-1,-1,-2
1533861575809574,-1,-1,5,-12,-27,-2,1,0
1533861575809574,-2,0,-7,-9,1,2,0,0
1533861575830518,0,-1,-2,30,14,1,-1,-5
1533861575830518,1,-1,-15,-32,-4,-2,-1,-1
1533861575832512,-1,1,37,46,5,1,-1,-1
1533861575832512,1,-1,-6,-19,-11,1,0,-3
1533861575844480,1,0,7,23,5,-3,-1,0
1533861575844480,-4,0,7,12,16,-1,-2,-1
1533861575851462,-1,-3,1,-29,0,0,-2,-2
1533861575851462,0,-3,3,11,-21,0,1,3
1533861575868417,-5,-5,11,-13,16,-6,-4,-1
1533861575868417,-3,-1,-23,10,-4,0,0,-2
1533861575869413,1,1,-21,-2,3,2,-1,1
1533861575869413,1,8,47,-40,-2,-2,0,-1
1533861575890358,-4,-8,-4,19,-14,-5,-5,-2
1533861575890358,0,4,3,-11,-7,2,0,-1
1533861575892369,-3,-6,-8,4,0,-4,-5,-3
1533861575892369,-1,-4,3,2,13,1,3,1
1533861575905318,1,1,17,3,-14,-2,3,1
1533861575905318,-2,3,15,-2,-7,-4,0,-1
1533861575911302,-2,-9,-13,9,0,1,0,0
1533861575911302,-1,3,-8,0,-7,-1,-1,-1
1533861575928260,2,1,-7,3,-3,-3,-3,-2
1533861575928260,-2,-5,-6,-3,7,-2,-1,-2
1533861575929253,-1,3,7,-9,0,-4,-2,-3
1533861575929253,-2,-8,-27,17,2,-3,-3,-4
1533861575950201,1,1,-10,-5,1,3,0,2
1533861575950201,1,4,11,22,14,0,0,1
1533861575952192,-1,7,-27,-32,-27,-4,-1,-2
1533861575952192,-3,0,45,27,8,-5,-4,-3
1533861575965158,-5,-13,-27,-27,-7,1,-1,-2
1533861575965158,-2,-7,-15,-4,9,4,1,-1
1533861575979122,3,5,21,21,-5,-2,3,3
1533861575979122,-1,3,-26,13,5,0,-4,-3
1533861575988342,-1,5,9,-12,-10,-2,1,0
1533861575988342,1,3,5,5,-4,2,-3,0
1533861575990175,-1,1,3,-4,5,0,0,1
1533861575990175,-5,-4,-20,-2,13,-1,0,-3
1533861576011119,1,2,9,0,-2,-4,-2,-1
1533861576011119,2,-4,2,-14,-13,-1,1,-1
1533861576012117,-2,-4,-10,11,11,-3,-1,-2
1533861576012117,-2,0,-12,-14,17,1,-1,-3
1533861576024084,-2,1,8,-20,-19,-5,-2,-2
1533861576024084,-2,-1,-2,7,-10,-4,-2,-1
1533861576033063,-4,-7,-2,-20,-5,-3,1,-3
1533861576033063,2,4,-2,-8,1,3,2,1
1533861576048220,0,3,15,29,-5,-2,-2,-3
1533861576048220,-3,-2,-4,-8,13,-3,-1,-2
1533861576050040,1,-4,9,-11,-17,5,1,-2
1533861576050040,-4,-16,-28,-12,-10,-3,-1,-1
1533861576070962,0,4,-2,-3,3,0,-2,0
1533861576070962,0,-9,-12,9,7,-2,-4,-2
1533861576071973,1,9,31,7,-1,-2,0,1
1533861576071973,-3,-5,-23,4,-1,-1,1,-1
1533861576084922,-5,-3,-4,19,12,0,0,-2
1533861576084922,0,4,4,5,-10,-6,-1,-1
1533861576092900,-3,-2,-10,-28,1,-1,-1,2
1533861576092900,0,-1,8,-4,-1,-1,-3,-1
1533861576107861,3,9,-24,-14,-2,3,-2,-2
1533861576107861,-2,1,39,47,18,1,3,0
1533861576109854,-3,-2,4,-42,-7,-1,-3,-1
1533861576109854,-2,-4,-62,-11,-9,-3,-1,0
1533861576130802,2,11,27,14,26,3,2,1
1533861576130802,-1,-7,26,-50,-19,-4,-5,-3
1533861576131796,-1,-8,-14,22,-2,-5,-2,-2
1533861576131796,0,2,-1,10,-12,-1,-2,-4
1533861576144853,1,-3,-10,-13,9,2,2,5
1533861576144853,-2,6,-11,8,0,-3,3,2
1533861576152783,-2,-1,8,-6,6,3,0,-2
1533861576152783,0,1,15,-5,1,3,-1,-1
1533861576167700,-5,-3,2,7,-10,-4,2,-3
1533861576167700,-1,-2,0,-15,-3,0,0,-3
1533861576169694,2,-1,-9,29,-1,-2,-5,-2
1533861576169694,-1,10,4,8,2,-1,-3,0
1533861576190648,-7,-11,-2,-7,-7,-3,-2,-1
1533861576190648,-1,-2,-30,-12,-7,2,-2,0
1533861576192635,0,0,6,12,15,-4,-2,0
1533861576192635,-2,3,20,4,-9,-3,0,0
1533861576204605,-1,-4,-3,7,3,0,-2,-1
1533861576204605,2,-2,-14,0,-8,-3,-2,-1
1533861576213577,-4,0,4,2,-3,1,-1,0
1533861576213577,-1,-4,15,-4,1,-3,-2,-1
1533861576228549,2,-1,1,19,-3,0,-1,1
1533861576228549,-3,-1,-24,0,-2,0,-3,-1
1533861576229535,-3,-1,1,-56,-10,-6,-3,-2
1533861576229535,1,-1,15,-10,-4,3,2,1
1533861576250482,-2,-7,-10,21,4,-4,-4,-2
1533861576250482,-4,-3,-2,21,-8,-4,-3,-4
1533861576252473,1,-2,-1,25,11,6,2,0
1533861576252473,-2,0,2,-22,-16,-3,1,-1
1533861576264477,-1,1,2,-25,-3,-3,-3,-3
1533861576264477,1,0,11,-2,7,4,0,-3
1533861576273423,-3,0,-15,10,8,5,2,1
1533861576273423,0,-9,6,20,2,-1,-3,-2
1533861576288387,-4,-2,-3,-4,-17,-1,0,-5
1533861576288387,-1,2,-44,-9,0,-2,-3,0
1533861576289395,2,-6,41,10,0,3,1,2
1533861576289395,0,11,56,9,18,2,-1,2
1533861576311316,-2,-15,-28,-11,-7,-5,-2,-2
1533861576311316,0,-2,18,26,19,1,0,-1
1533861576312314,-4,-6,-48,-16,-21,-7,1,-3
1533861576312314,-7,-10,-8,-16,-8,-2,-1,-3
1533861576324298,2,5,14,-24,-21,1,0,-1
1533861576324298,-1,3,-16,-2,7,-1,-1,-1
1533861576333258,1,6,-2,0,11,3,-1,-2
1533861576333258,2,5,12,17,2,-3,1,1
1533861576348220,1,-2,-20,-2,6,-2,-2,-1
1533861576348220,-2,-4,4,-13,-7,0,-1,-1
1533861576350212,1,1,10,22,-1,-2,-3,-1
1533861576350212,0,-3,-18,-26,-6,-2,-2,-4
1533861576371202,-2,0,11,12,8,-2,-2,-1
1533861576371202,-2,-1,15,-23,-13,-2,-1,2
1533861576372154,-1,0,-4,0,-2,-1,-2,-2
1533861576372154,-1,-2,-8,11,5,-2,-3,0
1533861576384121,-2,-1,-15,-4,4,2,0,0
1533861576384121,0,0,16,9,-4,0,-2,-4
1533861576393097,-2,-1,3,8,3,-8,-2,0
1533861576393097,-4,-4,-15,2,23,-3,-2,-2
1533861576408057,1,4,14,19,1,5,1,0
1533861576408057,-5,-9,-21,-9,-31,0,1,-1
1533861576410052,-3,-3,-5,-1,-6,-3,-3,0
1533861576410052,-2,0,-3,-6,4,-1,-3,-2
1533861576437981,1,1,7,18,6,-1,0,1
1533861576437981,-2,-4,-3,-21,-1,-5,-2,2
1533861576439971,0,0,5,4,0,2,0,2
1533861576439971,-6,-2,-11,13,-7,0,0,-2
1533861576443965,2,-2,-8,-23,-4,-3,-1,0
1533861576443965,-1,-3,-1,5,8,-2,-3,-1
1533861576452940,1,0,14,2,-10,-3,0,-2
1533861576452940,1,2,-8,-2,-4,1,-1,1
1533861576467901,-5,-1,13,0,4,1,-1,-1
1533861576467901,0,1,13,-3,-6,-1,0,-3
1533861576469892,0,1,2,12,13,0,-1,-1
1533861576469892,-1,-1,-7,-1,-2,2,-1,-1
1533861576490836,-2,1,6,-2,-4,-6,0,-3
1533861576490836,-1,-3,-6,-2,2,-4,-4,-2
1533861576491833,-2,-2,-3,-34,-26,-4,-2,0
1533861576491833,-1,-3,-3,0,-8,1,-2,-1
1533861576512783,0,1,-8,-6,2,-1,-1,1
1533861576512783,1,2,3,9,8,0,0,0
1533861576514771,-2,0,-5,-2,6,0,-1,-2
1533861576514771,0,-1,-3,1,-2,0,-1,-1
1533861576527738,2,4,-6,1,-2,0,-3,1
1533861576527738,-3,5,19,-1,24,2,2,1
1533861576533732,-7,-13,0,-3,-13,-8,-4,-5
1533861576533732,0,-12,-25,-7,-6,0,-1,-1
1533861576550679,-1,-2,0,2,-4,-1,-1,-2
1533861576550679,1,3,-8,-2,1,1,1,2
1533861576552670,3,7,-2,2,6,3,0,0
1533861576552670,1,6,21,2,6,-3,-1,-2
1533861576573615,-1,-5,-2,14,-1,0,0,-1
1533861576573615,-1,-7,-8,-60,-14,4,1,-1
1533861576574613,-3,-3,2,35,-10,-4,-3,-1
1533861576574613,-2,1,-10,1,2,-1,-3,-1
1533861576588574,-3,1,1,5,-1,-1,-1,-1
1533861576588574,0,3,10,20,0,-2,-3,-2
1533861576589575,2,0,-15,-22,3,3,1,0
1533861576589575,-6,4,16,-6,1,-1,-1,-3
1533861576610516,0,-9,21,7,-1,1,1,0
1533861576610516,-4,-7,-1,19,1,-2,0,-2
1533861576612511,-1,1,-14,-18,10,-2,0,-2
1533861576612511,-1,-1,4,7,-9,-5,-2,-1
1533861576632460,-2,1,-5,-34,-15,-2,-2,-1
1533861576632460,-1,-2,-8,8,-5,-4,-2,0
1533861576640436,-3,-4,-10,16,9,2,-2,-3
1533861576640436,1,1,1,-10,-3,2,1,-2
1533861576647489,-4,-5,-9,-18,1,-7,-3,-1
1533861576647489,0,-1,-3,-1,5,-2,-1,-2
1533861576654398,0,2,8,-2,-1,-2,-1,-1
1533861576654398,2,-1,-2,5,-1,1,-1,0
1533861576670356,-1,-1,-2,-1,11,0,-1,-1
1533861576670356,-3,7,-49,-1,-14,-4,-4,-5
1533861576672351,0,-8,100,-5,-2,0,1,0
1533861576672351,-5,-6,-10,-11,-2,-2,3,0
1533861576693298,-5,-3,-8,-16,-21,-3,-2,-4
1533861576693298,1,3,24,14,22,7,0,1
1533861576694292,-3,-3,-49,-6,-15,-2,-4,-2
1533861576694292,-2,-7,-16,-4,-6,1,0,-1
1533861576707257,4,2,13,10,3,0,0,-2
1533861576707257,-2,1,-9,-8,-8,-6,0,-1
1533861576714241,-2,4,-11,-4,11,0,0,-1
1533861576714241,1,2,14,10,7,3,1,1
1533861576730199,-1,1,-19,1,-5,1,-1,-2
1533861576730199,-1,-4,7,7,0,-3,-2,1
1533861576732191,-2,-1,-5,0,7,3,2,-1
1533861576732191,0,-4,-5,-7,-3,-5,-3,-2
1533861576753137,-2,0,0,7,-3,0,0,0
1533861576753137,0,-3,2,3,-5,-1,0,0
1533861576755129,-3,-1,-1,8,-1,0,0,1
1533861576755129,-1,1,-4,-12,0,-4,-3,-1
1533861576768099,-1,-1,-2,12,2,-1,-3,0
1533861576768099,-2,-5,4,-1,1,-1,0,1
1533861576774078,2,-2,-18,-12,-14,-1,0,-1
1533861576774078,-2,1,0,-2,-4,-2,-1,-3
1533861576791033,-2,0,7,-5,1,-2,-1,-1
1533861576791033,1,-3,4,8,-5,-3,-1,-2
1533861576792031,-1,1,-4,3,14,1,-3,-3
1533861576792031,-2,-2,-3,11,3,1,1,-2
1533861576812981,0,-1,-3,-11,-7,0,-1,-1
1533861576812981,-2,2,3,-4,-12,-2,-1,1
1533861576814969,-1,-3,-3,-1,3,-7,0,-1
1533861576814969,2,-1,-8,-5,-13,-1,-2,1
1533861576827934,-1,-2,-7,2,12,-2,-2,3
1533861576827934,-3,4,-7,7,-2,-4,-4,-5
1533861576834916,-1,-2,23,24,4,2,-1,-1
1533861576834916,-2,4,-7,-22,-5,0,-2,-2
1533861576850873,0,-16,16,9,6,0,2,0
1533861576850873,-3,-2,-2,-7,7,0,0,-2
1533861576851872,3,9,44,0,-12,-3,-1,1
1533861576851872,-4,-6,-76,8,3,-5,-3,-3
1533861576872814,-3,9,17,-26,-5,0,0,-4
1533861576872814,1,-6,43,4,-4,0,2,0
1533861576874810,-1,-6,-24,-3,1,-2,-2,0
1533861576874810,-2,0,0,2,-4,-3,-3,-1
1533861576887778,-3,-1,-20,0,-3,-2,-1,-2
1533861576887778,-3,-5,-21,-7,0,0,-2,-2
1533861576894948,-1,3,-11,-7,-1,1,1,-4
1533861576894948,2,0,35,4,0,1,2,2
1533861576910716,-1,-2,-13,12,6,1,-1,-1
1533861576910716,-1,0,-2,0,7,-1,-1,-1
1533861576912726,-4,-2,-11,-21,-15,-5,-2,0
1533861576912726,-1,-2,17,27,5,3,0,-2
1533861576933656,2,-2,-11,1,3,-2,-1,-2
1533861576933656,0,-1,-16,7,-5,0,0,0
1533861576934649,1,1,-5,7,6,2,4,4
1533861576934649,1,-1,10,-16,-3,-4,-3,-6
1533861576947620,-4,2,1,4,3,-4,-4,0
1533861576947620,-3,-6,-2,2,-1,-2,2,5
1533861576954599,-1,3,-16,5,6,3,-4,-14
1533861576954599,-1,-10,30,0,-6,2,3,4
1533861576970556,-4,1,-6,1,0,2,-1,-1
1533861576970556,-1,0,-9,-12,-9,-2,0,-4
1533861576972562,1,-2,-4,1,-5,-1,0,4
1533861576972562,-1,1,-7,-4,3,-3,-1,0
1533861576993497,0,-1,-1,-5,6,2,0,-3
1533861576993497,2,0,0,1,-16,-7,-4,1
1533861576994497,-3,-1,-8,-12,-3,-3,-3,-1
1533861576994497,-2,3,0,11,19,1,-1,1
1533861577006457,-1,-1,-4,-21,-36,-5,-2,-1
1533861577006457,-2,0,-4,-10,-6,0,-3,-1
1533861577015432,-4,-5,0,11,6,-5,-1,-2
1533861577015432,0,1,-6,-25,-10,-1,0,-2
1533861577030428,-1,-2,1,29,15,-1,1,1
1533861577030428,-3,-4,-5,-5,-8,-1,-2,-1
1533861577032395,-2,-4,-4,-26,-8,-2,0,0
1533861577032395,0,-1,0,3,1,-3,-1,0
1533861577053331,1,5,7,-4,4,-2,-1,-1
1533861577053331,-2,-4,-28,6,1,-2,-3,-3
1533861577054328,0,-1,6,3,5,1,-1,2
1533861577054328,-2,1,6,-9,-13,-1,-2,-2
1533861577066296,-4,-7,-14,2,5,-4,-2,-2
1533861577066296,0,1,5,-4,-3,8,1,0
1533861577075273,-1,-2,0,6,5,3,-3,-1
1533861577075273,-3,1,-2,25,-1,1,-3,-2
1533861577090236,0,2,12,-2,-2,0,2,-1
1533861577090236,1,4,2,8,0,-1,2,-3
1533861577092228,-4,-10,-9,-63,-21,-4,-1,-4
1533861577092228,-3,0,18,6,-2,-3,0,-1
1533861577113175,0,-2,-17,-21,8,2,-1,0
1533861577113175,0,-1,8,29,14,-2,0,2
1533861577115167,0,5,8,-25,-12,0,0,0
1533861577115167,1,-4,-22,-21,8,-5,-2,-3
1533861577127133,-1,1,5,14,-3,-5,-2,-1
1533861577127133,-4,0,3,-15,1,-4,0,-2
1533861577136136,0,1,-1,41,6,0,-2,0
1533861577136136,-1,-3,-5,-16,-4,-2,-1,0
1533861577151070,-4,-1,4,-3,2,-2,-1,-1
1533861577151070,-1,-1,3,-5,-9,-1,-1,-2
1533861577152068,0,0,-6,15,0,-1,0,-3
1533861577152068,0,1,2,1,-4,0,0,0
1533861577173028,0,-1,0,-3,-2,2,0,1
1533861577173028,-1,-3,-1,-3,2,-2,-6,-2
1533861577175007,-3,-1,-1,0,-2,-1,-1,-1
1533861577175007,-3,-1,-3,-4,-4,-1,-1,-3
1533861577186977,-1,0,-4,1,-2,1,-2,0
1533861577186977,0,-2,0,-6,2,-3,-2,-1
1533861577195952,-1,-2,-3,12,8,-3,-1,-1
1533861577195952,0,0,-1,2,6,2,0,-1
1533861577210110,-1,-1,-2,-1,-9,0,-1,-2
1533861577210110,0,3,7,-5,-6,-2,3,0
1533861577217894,-4,0,6,2,4,-2,-1,-1
1533861577217894,0,-4,-13,5,-1,0,1,0
1533861577240839,1,4,-15,-5,0,-6,-5,-5
1533861577240839,-3,-11,31,-5,-1,-3,1,1
1533861577241827,1,3,33,3,-6,1,-1,0
1533861577241827,-1,2,5,9,5,1,-1,-1
1533861577255790,-4,-1,1,-6,1,-2,-1,-2
1533861577255790,0,4,-5,-3,-2,0,0,-3
1533861577257784,1,-13,-13,3,-2,-1,2,5
1533861577257784,-2,-4,0,-3,-5,-3,-4,-4
1533861577270945,-1,-2,5,6,4,4,1,-2
1533861577270945,0,0,6,-6,-1,1,-5,-2
1533861577271748,-4,1,-10,14,5,-3,-1,-1
1533861577271748,-3,-1,-8,-5,-6,-3,-1,1
1533861577292695,-3,-4,3,-27,-9,0,2,-1
1533861577292695,1,1,-12,-11,-2,0,-1,0
1533861577294686,-1,0,-11,12,9,0,-2,-4
1533861577294686,2,-1,11,17,-14,-2,-1,-1
1533861577306656,-1,-2,-12,-11,-5,0,-2,0
1533861577306656,-4,-2,-2,0,7,-3,-1,0
1533861577315631,-2,-1,6,-15,-5,-1,-1,-2
1533861577315631,-2,-5,-19,-7,-7,-1,0,0
1533861577330764,1,-5,4,32,8,-1,1,2
1533861577330764,-3,-5,-24,1,-7,-6,-1,-5
1533861577332585,1,3,4,4,-2,0,-3,-4
1533861577332585,1,3,17,-2,3,2,2,1
1533861577353638,-1,-5,12,3,-2,1,-1,0
1533861577353638,-1,-4,-22,-9,6,1,-2,-1
1533861577354598,0,-1,-5,-1,-5,-4,-2,-1
1533861577354598,-4,-2,-2,-4,0,-3,-3,-3
1533861577367494,-1,3,-7,6,2,-1,-2,-2
1533861577367494,0,2,1,-3,-4,1,1,-1
1533861577375470,-1,-3,-2,-3,1,1,-1,-1
1533861577375470,-1,1,-13,-6,1,0,-1,-3
1533861577390431,0,-1,9,-5,-10,-2,1,1
1533861577390431,-1,0,7,-1,3,1,-1,-2
1533861577392426,-2,-4,-17,-15,-7,1,0,0
1533861577392426,-1,0,6,6,9,-2,2,0
1533861577413388,-3,1,-7,1,-3,-7,-4,-2
1533861577413388,3,1,7,-7,9,-2,-3,-2
1533861577414382,-1,-2,-6,3,-19,-1,-1,0
1533861577414382,-1,-1,-1,-6,-7,2,0,0
1533861577436307,-1,-2,-2,6,8,0,0,-1
1533861577436307,-3,-2,-5,-26,-12,-4,0,-1
1533861577437304,0,-2,-6,10,5,-3,-2,-2
1533861577437304,1,2,2,-13,-3,-1,0,-1
1533861577449276,0,0,-1,15,6,-2,-2,-2
1533861577449276,-2,-2,1,20,6,2,-1,-2
1533861577458249,0,1,-3,-14,-6,-2,-3,0
1533861577458249,-2,-3,-2,-5,-3,-3,-2,0
1533861577473208,-2,1,1,-7,-4,2,2,-1
1533861577473208,0,1,10,1,2,1,0,-1
1533861577475202,-2,-4,-17,2,3,2,-1,0
1533861577475202,-1,-2,-2,-2,4,-5,-4,-2
1533861577495153,-2,-1,4,-4,-10,-1,-1,1
1533861577495153,-1,-3,-5,2,-3,1,-2,-2
1533861577497144,0,1,4,13,-2,-3,0,0
1533861577497144,0,-3,4,2,7,-4,-1,-2
1533861577511111,2,-3,-5,-17,-20,-5,-3,-2
1533861577511111,-1,1,12,-2,3,8,0,-1
1533861577512105,-6,1,-24,-8,-7,-6,-4,-4
1533861577512105,-4,-15,-16,-2,3,3,-2,-2
1533861577533093,3,1,14,7,6,1,2,1
1533861577533093,-2,-7,-30,-21,-7,-6,-3,0
1533861577535043,1,3,22,17,12,5,3,2
1533861577535043,1,11,5,7,-1,-2,-2,-1
1533861577555988,-4,-3,-1,-8,5,-1,-3,-1
1533861577555988,1,-4,-12,5,-6,-1,-1,-1
1533861577556986,3,-3,3,-7,7,0,0,0
1533861577556986,-1,0,7,1,-5,-4,-1,-1
1533861577569976,-1,1,-4,-1,0,0,1,-5
1533861577569976,0,7,12,5,6,-4,1,2
1533861577576962,-3,-1,10,-7,-17,-2,-1,-1
1533861577576962,-2,-7,-10,7,5,-3,-2,0
1533861577592889,-2,-4,-9,21,3,0,-4,-2
1533861577592889,-2,11,55,11,-15,-1,1,0
1533861577594885,-3,-22,-67,-9,-3,-1,-5,-4
1533861577594885,-1,3,14,5,-2,-5,2,0
1533861577615863,0,4,20,-17,-1,-9,0,2
1533861577615863,-2,-14,-47,15,1,-10,-4,-4
1533861577616825,1,9,22,2,15,-2,-1,-1
1533861577616825,1,8,-1,-18,-22,4,0,0
1533861577629823,0,-12,0,20,10,3,2,3
1533861577629823,0,10,40,14,6,1,-1,1
1533861577644880,-2,-3,2,1,-6,0,-4,-2
1533861577644880,-1,-4,-20,-9,9,3,-3,2
1533861577652728,-4,6,9,-8,-4,2,-2,-2
1533861577652728,0,-5,-9,-9,-11,4,-1,-1
1533861577654723,-2,-4,-2,8,8,5,1,-1
1533861577654723,-1,2,10,1,-4,-3,-1,-4
1533861577675671,0,0,2,-1,-4,0,-2,0
1533861577675671,-2,-11,-22,-10,-3,-6,-3,-2
1533861577677669,2,4,2,16,0,-1,-3,-1
1533861577677669,-4,-2,-5,-33,-8,-2,-1,-1
1533861577689632,-1,-1,-12,-27,4,-3,-1,-3
1533861577689632,-2,-5,0,13,-23,-5,-2,-1
1533861577696614,-2,1,17,-23,-2,-3,0,0
1533861577696614,0,-3,-6,19,8,1,-1,-1
1533861577713566,0,-4,-19,-2,-9,-1,-1,1
1533861577713566,-2,2,-2,-1,27,0,-1,-1
1533861577714563,-2,7,27,30,-16,1,-1,0
1533861577714563,-2,-5,-9,-43,-18,-4,-3,-2
1533861577735510,-1,-2,-6,-14,1,-1,0,-1
1533861577735510,-2,-1,-3,14,7,-1,0,-1
1533861577737501,1,1,-3,-12,8,-2,0,1
1533861577737501,1,1,-2,13,4,3,2,-1
1533861577750470,-2,2,1,0,-7,-3,-1,-2
1533861577750470,-3,-3,3,-5,3,-1,-3,-2
1533861577756451,-2,-2,-10,-17,-8,-2,-2,-2
1533861577756451,-2,-2,1,17,5,-1,0,0
1533861577773406,-2,-2,3,4,-3,-2,-2,-5
1533861577773406,1,-1,-21,-17,-6,3,1,0
1533861577774402,1,3,6,8,20,-1,1,2
1533861577774402,-5,-4,-8,-8,-15,-6,-2,-2
1533861577795348,-1,-7,4,8,2,-3,-4,-5
1533861577795348,0,-2,-10,11,4,5,0,0
1533861577797356,-2,-2,3,-16,-3,2,1,-1
1533861577797356,0,2,7,9,0,-3,-1,0
1533861577810310,1,0,-31,-22,-13,-4,-3,1
1533861577810310,-2,-3,8,15,12,3,-1,1
1533861577817291,-3,2,-15,-28,-19,-7,-4,-4
1533861577817291,1,1,21,34,21,6,-1,-2
1533861577833249,1,-7,-9,21,7,5,1,0
1533861577833249,-1,-2,-17,-13,-18,-9,-1,-1
1533861577834243,-1,-6,-3,6,1,0,0,-1
1533861577834243,-1,-4,-7,-6,1,-3,-2,0
1533861577855186,-2,4,10,14,2,-2,-2,1
1533861577855186,2,2,4,-27,0,1,0,0
1533861577857182,0,1,7,4,-4,-3,-2,-1
1533861577857182,-2,-1,2,4,5,-1,-3,-3
1533861577870147,-4,4,-4,-3,8,2,-1,-3
1533861577870147,-3,-12,-5,-8,-17,-2,-1,-3
1533861577877131,-1,2,14,-8,6,0,-2,-3
1533861577877131,-3,-9,-12,-14,-8,-4,-1,-3
1533861577901064,2,0,-41,-11,-5,2,0,0
1533861577901064,-1,3,55,13,3,-2,-3,-1
1533861577902061,-3,0,-18,14,2,2,0,0
1533861577902061,0,0,30,4,8,5,1,3
1533861577922008,-2,-6,12,6,-18,-7,-2,1
1533861577922008,-1,4,-21,-24,2,-4,0,-2
1533861577930984,-2,-3,-6,17,5,-3,-3,-1
1533861577930984,-3,3,2,9,10,-1,-2,-1
1533861577931981,-2,6,-2,-39,-11,-1,0,1
1533861577931981,1,6,9,2,1,1,-2,0
1533861577937965,0,-6,14,2,-7,1,-1,-3
1533861577937965,0,-7,-33,-18,-13,-4,-2,-4
1533861577952929,-4,-6,5,21,13,-1,-2,-2
1533861577952929,-2,-4,-16,6,4,-2,-1,-1
1533861577954930,1,4,3,-22,-8,1,-1,1
1533861577954930,-1,6,15,-5,5,2,0,1
1533861577975869,-2,-6,-3,-1,3,1,-2,-4
1533861577975869,-1,-5,-8,22,-14,-3,-1,-2
1533861577976862,0,0,-10,-4,9,1,0,2
1533861577976862,-1,1,-9,-3,-17,-5,-1,-1
1533861577997805,2,5,13,11,15,-2,-2,-1
1533861577997805,0,10,18,-16,-14,-9,-1,-4
1533861577998802,-1,0,0,8,5,4,2,-2
1533861577998802,-8,-28,-38,-15,-29,-8,-6,-5
1533861578012766,0,-8,-5,7,2,3,0,0
1533861578012766,-1,-1,-12,-7,6,-1,-2,-2
1533861578012766,1,6,5,9,8,-3,-1,-2
1533861578012766,2,20,15,16,10,1,1,1
1533861578042686,-2,-7,44,-20,-7,-4,-3,-3
1533861578042686,-5,-23,-41,6,8,1,-2,0
1533861578043700,-1,-3,-10,-15,-17,-4,-1,-2
1533861578043700,2,1,-10,20,9,3,-1,-1
1533861578058646,0,9,0,-10,-9,-5,0,-1
1533861578058646,2,7,19,-1,10,3,0,0
1533861578058646,-1,-4,-2,3,-12,-4,0,-2
1533861578058646,-3,-1,-14,-33,-6,-3,-2,-1
1533861578072606,-1,-3,11,20,6,4,1,1
1533861578072606,-2,5,-4,-11,-1,2,0,1
1533861578073603,-3,-16,-1,7,5,-6,-3,-1
1533861578073603,-2,-5,-1,-18,-9,-5,-2,-2
1533861578103526,0,3,-6,1,-10,0,1,-1
1533861578103526,-3,2,5,17,-4,-1,-3,-1
1533861578103526,-5,1,-21,3,2,-1,-3,-2
1533861578103526,2,-4,8,10,7,4,1,-2
1533861578118486,1,-4,18,-9,0,-2,0,0
1533861578118486,-3,-8,-39,1,4,-2,-2,-2
1533861578118486,-1,1,-6,-10,-11,-1,-2,1
1533861578118486,2,3,8,12,13,2,0,-1
1533861578132445,-2,8,-5,9,7,2,1,1
1533861578132445,-3,2,-1,-31,-19,-3,0,-1
1533861578133443,0,2,53,3,-1,-2,-2,0
1533861578133443,-2,-4,-1,10,1,-1,-2,-1
1533861578155390,-3,-6,-10,-1,-4,-8,-5,-2
1533861578155390,2,2,9,12,7,2,-2,0
1533861578155390,1,-5,-23,-13,0,0,-3,-1
1533861578155390,0,3,9,10,-8,-1,2,1
1533861578177519,-3,-1,-3,-12,-1,-2,-2,-2
1533861578177519,1,-1,1,11,11,1,1,-3
1533861578178331,-3,-3,-6,-4,-19,-5,-3,-3
1533861578178331,-3,-2,0,-1,3,-1,0,0
1533861578201263,-1,-1,-14,-5,-5,-1,-2,-1
1533861578201263,0,-1,0,-4,3,2,1,1
1533861578201263,-1,3,5,6,17,1,-1,-1
1533861578201263,0,2,12,-7,-15,-1,-2,-6
1533861578215227,-1,-10,-27,-9,-3,-1,-3,0
1533861578215227,-2,-6,8,4,-3,-5,-3,-1
1533861578215227,-2,2,-1,13,11,-1,-1,-3
1533861578215227,0,1,-11,-25,-7,1,-2,0
1533861578237165,1,0,26,-5,-7,0,0,0
1533861578237165,-4,-5,35,11,17,2,-4,0
1533861578238173,-1,6,-29,-36,-11,1,0,0
1533861578238173,0,-9,63,6,3,1,-1,0
1533861578253122,-3,-1,-39,12,1,1,1,-3
1533861578253122,1,0,-1,-42,-12,-2,-1,0
1533861578253122,-2,-3,9,24,11,-2,-2,0
1533861578253122,0,3,-26,-9,-2,-2,-1,1
1533861578275067,-2,4,-11,-1,-7,2,1,1
1533861578275067,-2,6,25,14,-9,0,1,0
1533861578276064,-4,-11,-31,-10,0,1,0,0
1533861578276064,-2,0,-22,7,-1,-1,1,0
1533861578298004,-2,-4,0,11,-3,-3,-2,-4
1533861578298004,-1,-2,-16,-31,-13,-1,-1,1
1533861578298004,0,3,23,0,1,-2,1,1
1533861578298004,-1,-3,5,-6,-11,-3,-2,-2
1533861578312966,-1,-2,-6,-21,3,-1,0,-1
1533861578312966,-3,0,-17,4,-6,-2,-3,-2
1533861578312966,2,0,5,6,2,1,1,-2
1533861578312966,-3,1,-3,11,-4,-2,-2,-1
1533861578334907,-1,2,15,-4,4,0,-2,-1
1533861578334907,-2,0,-10,13,-11,-5,-3,-4
1533861578335901,-2,-6,6,5,-4,-4,-5,0
1533861578335901,0,8,-6,29,16,2,-3,0
1533861578357842,-3,-9,-3,-51,-17,-2,-3,1
1533861578357842,-1,-3,-5,18,8,-1,-1,-1
1533861578357842,1,1,-1,-20,-10,1,0,0
1533861578357842,0,2,2,0,9,0,0,-4
1533861578372803,0,-6,-11,18,3,-4,-4,-2
1533861578372803,1,2,6,-3,1,0,1,1
1533861578372803,-1,-2,-5,2,-4,-5,-1,-1
1533861578372803,-2,-5,-13,-14,0,-2,1,0
1533861578394747,-1,6,0,6,1,-1,1,0
1533861578394747,1,-1,32,3,1,0,1,-2
1533861578395741,-4,-2,-17,12,4,-1,0,-3
1533861578395741,4,0,3,-10,-3,-1,3,4
1533861578417682,2,0,15,17,8,1,-4,-4
1533861578417682,-8,11,-40,-9,-2,-3,-4,-7
1533861578418683,4,-11,64,0,-3,4,17,28
1533861578418683,-2,-5,-1,-5,1,-1,-7,-22
1533861578432645,0,0,-2,3,1,-3,-2,12
1533861578432645,-3,-6,-27,-5,-2,-3,-5,-23
1533861578433639,-7,0,-9,-4,0,-2,-11,-18
1533861578433639,-1,-3,-11,-1,-2,0,1,10
1533861578454587,-3,-2,14,3,3,-1,1,-4
1533861578454587,2,-4,-5,-1,-1,3,1,12
1533861578455582,0,2,-14,-7,-5,0,0,-1
1533861578455582,-3,-3,3,-3,2,-2,0,-3
1533861578477538,-3,0,-15,9,-4,0,0,-4
1533861578477538,2,-1,10,-11,-7,0,3,4
1533861578478520,1,1,-11,-5,4,-3,-3,-4
1533861578478520,-1,1,-2,-7,-3,1,-3,-2
1533861578493483,0,1,4,14,-10,-1,1,0
1533861578493483,-2,-8,-9,-5,-8,-7,-2,-3
1533861578494478,-6,-2,2,-5,9,6,-1,-4
1533861578494478,-1,-5,-6,-2,-20,-8,-4,1
1533861578515425,-1,1,1,-13,3,1,-1,0
1533861578515425,-2,-2,6,9,-6,-1,-3,-1
1533861578516425,2,1,-13,8,5,-3,-3,-3
1533861578516425,1,-1,2,-9,-3,2,0,4
1533861578537366,-2,0,-2,5,22,0,1,-4
1533861578537366,1,-2,-1,-11,-23,-3,0,1
1533861578538360,0,0,-7,1,2,-3,-3,-1
1533861578538360,-3,-1,0,5,-2,0,4,0
1533861578552325,-2,-1,3,-5,-4,-6,0,-7
1533861578552325,-1,1,-2,8,4,2,7,3
1533861578553320,1,1,-1,13,7,0,0,-2
1533861578553320,-3,-2,-5,-4,5,-1,-2,0
1533861578575262,-3,-2,-3,-1,-7,-4,-4,-1
1533861578575262,-1,0,10,5,9,0,-2,1
1533861578575262,-2,-5,-18,4,-2,-3,-5,-3
1533861578575262,-1,-2,1,-37,-10,-4,-5,-1
1533861578606180,1,0,0,6,5,2,-4,1
1533861578606180,1,-1,1,-2,6,0,-2,0
1533861578607179,1,0,6,-1,3,0,-1,-1
1533861578607179,-1,-2,-4,14,-3,2,-2,0
1533861578612162,-1,-2,-1,-11,-7,-1,0,-1
1533861578612162,-2,-2,2,-3,19,1,-3,0
1533861578613161,1,0,-4,-4,-31,-4,-1,-2
1533861578613161,-1,-1,-5,8,14,2,0,-1
1533861578635101,-1,0,0,-11,-8,0,-2,-2
1533861578635101,-2,-1,-5,18,2,-2,-2,-1
1533861578636098,-2,-3,1,-8,-11,-2,-1,-1
1533861578636098,-1,0,-1,7,1,-3,-1,-1
1533861578666018,-1,-1,2,-18,2,0,0,0
1533861578666018,0,0,-1,19,3,-3,-1,0
1533861578666018,-1,-1,-3,-44,-14,-1,-1,-1
1533861578666018,-3,-4,-3,17,-4,-5,-3,-2
1533861578672012,-2,-1,-3,15,15,-5,-5,-6
1533861578672012,1,0,-4,-24,-37,2,4,1
1533861578680185,-2,-2,1,21,3,-1,-1,1
1533861578680185,0,0,-2,-16,-11,-2,0,0
1533861578694971,2,-2,-2,4,9,3,2,-1
1533861578694971,-1,0,2,-4,6,-2,-2,-2
1533861578695939,0,0,1,-1,3,-1,-1,0
1533861578695939,-1,0,2,12,-5,-1,-2,-1
1533861578717928,1,0,0,-8,-7,-2,-3,1
1533861578717928,-4,11,-41,-17,2,-5,0,0
1533861578717928,0,-11,61,21,6,4,-4,-7
1533861578717928,-1,2,6,-8,6,2,0,-3
1533861578732859,-2,-10,12,0,-8,-2,1,-3
1533861578732859,-3,-1,3,1,1,2,-5,-3
1533861578732859,-1,2,-22,0,5,-3,-1,1
1533861578732859,-1,2,-10,0,-1,-4,-3,1
1533861578755778,-1,1,-48,7,6,-1,-3,-2
1533861578755778,2,-10,5,-24,-9,-4,-1,2
1533861578755778,0,1,-5,-22,-7,0,2,1
1533861578755778,2,0,13,2,5,1,1,-1
1533861578777723,0,1,-12,3,-12,-3,-1,2
1533861578777723,1,-2,8,21,14,-1,-2,-2
1533861578778717,-2,0,-10,-25,-3,-3,-3,0
1533861578778717,1,-1,-6,-3,1,0,1,-1
1533861578792683,0,-1,10,-5,-3,-3,-2,1
1533861578792683,-1,-2,4,5,4,0,-3,-3
1533861578792683,-2,-1,0,7,-3,-3,1,-3
1533861578792683,0,-2,-5,4,1,1,1,-1
1533861578815653,0,0,9,19,6,-1,1,-2
1533861578815653,-4,-4,6,-24,-14,-3,-2,-2
1533861578815653,-1,2,-16,12,3,-1,-1,-3
1533861578815653,-1,-6,-60,0,1,3,1,-1
1533861578837566,-2,1,23,-5,-3,-2,-1,-1
1533861578837566,-2,4,-5,25,-2,0,2,-1
1533861578838557,-1,-13,0,-25,-11,1,0,1
1533861578838557,-2,-3,0,10,8,-3,-3,-2
1533861578852569,-2,-1,-2,-7,1,5,-1,-2
1533861578852569,2,-3,0,13,2,-3,-3,-2
1533861578853517,1,4,-4,-3,-2,-1,-1,0
1533861578853517,-2,-1,13,-1,-3,-5,1,0
1533861578874495,-2,-2,-6,-13,-4,0,-1,-1
1533861578874495,0,1,9,-1,11,0,-2,0
1533861578875460,-2,2,-6,8,-14,-2,-1,0
1533861578875460,-2,-1,12,0,11,1,-1,0
1533861578897399,0,1,-3,-17,-14,-4,-1,-1
1533861578897399,1,-2,-9,-25,12,-1,0,-2
1533861578898397,-3,-3,-3,18,-4,4,0,1
1533861578898397,-3,-4,6,14,0,-5,-4,-2
1533861578912361,-2,-2,-1,12,-7,-3,-2,-1
1533861578912361,-1,-1,6,-2,2,1,1,0
1533861578913357,1,1,-3,-5,11,1,0,0
1533861578913357,2,6,8,10,1,4,1,-3
1533861578935301,0,-8,-4,9,2,-3,0,-1
1533861578935301,-2,9,-44,-24,-16,-4,-3,-5
1533861578935301,0,-10,41,42,17,1,0,1
1533861578935301,1,-1,37,-24,-15,-2,1,0
1533861578957240,-2,-2,1,8,-2,-5,0,0
1533861578957240,-3,-5,-8,-25,-4,-1,-4,-2
1533861578958238,0,4,-5,-2,4,-2,-1,-3
1533861578958238,-2,-2,-4,0,-6,-1,-2,0
1533861578972199,1,2,2,5,4,2,1,2
1533861578972199,0,-4,24,24,3,-1,-1,0
1533861578980178,-3,-1,-24,-22,-3,-4,-2,-1
1533861578980178,0,-1,0,-1,11,-2,-1,1
1533861578995138,-1,3,-5,-14,-9,-2,-1,-4
1533861578995138,-3,-1,5,7,4,8,1,0
1533861578996135,-2,0,-24,-6,-11,-4,-2,-3
1533861578996135,0,0,-9,4,-8,-1,-2,-4
1533861579017079,-1,1,14,-10,2,2,0,2
1533861579017079,0,-1,-3,1,19,1,1,1
1533861579018078,-1,-1,23,-75,-32,-7,-3,-2
1533861579018078,-5,-8,-4,7,-5,-5,-3,-3
1533861579033037,-3,-2,-13,7,-1,-2,-2,-1
1533861579033037,-2,-7,-26,2,3,2,-1,-2
1533861579040018,-1,6,4,12,11,-2,-1,-1
1533861579040018,-1,-1,-10,-12,-6,-3,-1,0
1533861579054978,-1,-3,8,-8,-2,-3,-1,0
1533861579054978,-1,0,-2,11,-8,-3,1,-2
1533861579055996,0,2,-4,6,9,1,0,1
1533861579055996,0,0,1,5,1,-1,-2,-1
1533861579077916,-3,-2,-12,4,-9,0,-4,-1
1533861579077916,1,-3,12,-4,-4,-3,-1,-1
1533861579077916,-3,-2,-10,4,2,-2,-2,-2
1533861579077916,-2,-3,6,-5,4,2,0,-1
1533861579091880,-1,1,-5,-6,1,0,0,0
1533861579091880,0,-2,4,-4,-9,-5,0,0
1533861579099858,-1,-3,5,13,9,2,-1,-1
1533861579099858,-2,-1,-10,-5,-1,0,-1,-1
1533861579114817,2,0,0,-4,1,1,-1,-1
1533861579114817,-1,0,3,3,-3,-2,-2,-2
1533861579122811,-2,0,-4,23,13,-2,-1,-2
1533861579122811,1,2,1,-10,-18,1,1,1
1533861579137757,-3,-5,-8,-1,4,-4,-1,-1
1533861579137757,-1,-3,7,-2,-6,-3,-1,2
1533861579138775,2,1,-3,7,10,4,2,1
1533861579138775,-1,0,-1,7,0,-4,-3,-3
1533861579160698,-1,1,3,12,-6,-2,-2,-4
1533861579160698,-1,0,-2,10,3,2,-2,-1
1533861579161693,1,-1,-1,-22,-11,-4,0,-1
1533861579161693,-2,-1,8,-6,5,1,-1,0
1533861579174705,-3,-2,-22,0,4,-2,0,-1
1533861579174705,0,5,8,12,-1,-2,-4,-2
1533861579175654,-3,-4,-4,-8,-1,0,-2,0
1533861579175654,0,-2,-4,-14,-4,-3,-1,0
1533861579197609,-1,0,2,-8,-3,-1,-1,-1
1533861579197609,-3,0,-3,-9,-8,-4,-1,-1
1533861579198593,-1,0,0,5,-3,1,-1,-1
1533861579198593,0,0,-5,-3,3,-1,1,0
1533861579211562,-2,2,3,6,-4,2,-2,0
1533861579211562,0,-4,1,-5,10,-1,-1,0
1533861579220538,1,-1,-2,8,-4,0,-2,-1
1533861579220538,-1,-3,-5,-4,-12,-2,-3,-2
1533861579234501,-2,-1,5,-3,1,-2,-2,-1
1533861579234501,0,-2,3,-2,3,4,1,0
1533861579235496,-2,-2,-4,-3,1,-3,-1,-1
1533861579235496,-2,-1,-4,14,9,0,-2,-1
1533861579257446,-2,-2,1,-38,-15,-1,2,1
1533861579257446,0,-1,0,5,2,0,-4,-1
1533861579258448,0,-1,-4,-5,-5,-3,-1,-1
1533861579258448,-3,-2,-3,-4,1,-4,-1,-1
1533861579271399,-1,-2,4,15,3,0,-1,-3
1533861579271399,-3,-3,-3,-5,-12,-4,-4,1
1533861579279512,-2,-1,-6,-5,-4,-2,-3,-1
1533861579279512,1,1,9,6,5,1,1,-3
1533861579295472,0,-1,-1,-3,13,1,1,0
1533861579295472,-2,-3,-2,-2,-21,-2,-1,-3
1533861579295472,-1,0,-1,13,11,0,0,-1
1533861579295472,1,2,-2,-7,-6,1,-2,1
1533861579317413,0,-1,0,2,-4,-1,1,-1
1533861579317413,-1,-3,1,2,13,0,-2,-1
1533861579318408,-1,2,1,-10,-3,-2,-2,-1
1533861579318408,0,-1,-8,3,4,-3,-2,-2
1533861579340358,-3,2,-7,-5,0,-1,2,1
1533861579340358,0,-4,3,-3,-13,-2,0,-1
1533861579341346,-1,-4,-1,8,-3,-1,-1,0
1533861579341346,-2,6,-2,-6,4,-1,-2,0
1533861579355310,-1,-4,-5,-6,13,1,-2,-1
1533861579355310,-1,0,0,6,-7,-4,-2,-2
1533861579355310,0,-5,-7,15,-6,0,0,-1
1533861579355310,-5,-9,-55,-1,4,-1,-3,-5
1533861579377250,1,1,1,-34,-14,-4,-1,0
1533861579377250,2,1,22,-25,-2,-1,2,3
1533861579378248,-1,5,6,25,14,-1,-2,0
1533861579378248,-4,-11,-1,-8,-14,-3,-1,-1
1533861579401288,-2,-3,-11,9,1,1,-3,-1
1533861579401288,-1,-2,-10,-4,6,-4,-1,-4
1533861579401288,-2,-2,-4,4,6,0,-2,1
1533861579401288,3,4,13,-1,-4,-2,0,2
1533861579415153,-2,0,6,8,3,-1,-1,-3
1533861579415153,-2,-1,1,-1,1,3,0,-2
1533861579416155,-2,1,0,-25,-12,0,-1,-2
1533861579416155,-3,-2,3,2,6,-1,-2,0
1533861579437093,-3,-3,5,11,-13,-3,-3,0
1533861579437093,-1,3,-8,-6,6,2,0,-1
1533861579438087,0,-1,-3,0,-5,-2,0,-2
1533861579438087,0,1,10,6,4,3,2,1
1533861579461029,0,-1,-1,3,-3,-2,0,-1
1533861579461029,-1,-1,-4,15,8,-1,-1,-1
1533861579461029,-2,0,-12,-5,0,-1,-1,-1
1533861579461029,1,-2,10,3,-6,-1,2,-1
1533861579474992,-1,1,4,-1,14,2,0,-3
1533861579474992,-2,-1,-4,-6,-21,-4,1,1
1533861579475986,-1,-2,-1,14,5,-4,1,-1
1533861579475986,-4,-4,-6,-22,-8,0,-1,-3
1533861579496930,2,2,8,21,15,-1,-3,0
1533861579496930,-2,-2,-6,4,-6,-4,-2,-1
1533861579497927,-1,4,1,-51,-19,1,2,0
1533861579497927,1,-9,6,3,12,-1,0,0
1533861579520866,-1,-5,-4,-23,-33,-4,-4,-1
1533861579520866,-1,1,5,8,19,1,-1,-4
1533861579521880,3,3,6,-5,-14,-6,-3,-1
1533861579521880,-2,1,5,-1,8,-1,-5,-2
1533861579534829,-5,-10,-14,-7,-1,-5,-3,-2
1533861579534829,-1,-3,-10,17,2,0,0,0
1533861579535826,-3,-1,9,20,3,3,1,-1
1533861579535826,-1,2,3,-8,19,0,-2,-1
1533861579557767,-2,-1,-4,-15,-32,-3,-2,-2
1533861579557767,0,0,3,-5,-8,1,-2,-2
1533861579557767,-3,-4,-5,-1,6,-4,-3,-1
1533861579557767,-3,0,-1,19,-4,-2,-2,-2
1533861579580707,1,2,6,6,19,2,0,0
1533861579580707,-1,-3,-11,-1,-7,-2,-2,0
1533861579581703,-4,-2,-20,-5,14,-2,-3,-5
1533861579581703,2,9,6,23,-12,0,1,1
1533861579594672,1,-7,34,19,-15,-1,3,3
1533861579594672,-4,-16,-40,-35,2,1,-1,1
1533861579595666,-2,-3,11,16,1,0,-2,-5
1533861579595666,-1,-4,-12,-21,-6,0,-2,-2
1533861579617625,1,4,-4,-7,14,-1,0,0
1533861579617625,-1,5,18,20,-3,0,0,-2
1533861579618639,0,-1,2,-1,16,0,-1,0
1533861579618639,1,0,-4,3,-8,-2,-2,1
1533861579640584,-2,2,7,5,1,0,0,1
1533861579640584,-3,-3,-1,-11,3,-2,-3,-2
1533861579641544,2,-4,-3,-17,-13,-1,-1,0
1533861579641544,-1,0,4,-5,-3,-3,-1,1
1533861579654508,-2,1,-11,4,7,2,2,0
1533861579654508,1,-1,-1,16,8,-3,1,-1
1533861579655522,-3,-5,-3,-33,-26,-4,-3,-3
1533861579655522,-3,-4,-4,13,-1,-3,0,-2
1533861579677485,0,-2,3,-7,4,0,-1,-3
1533861579677485,0,3,5,-5,0,-2,0,0
1533861579678452,1,0,-5,8,-1,-1,1,1
1533861579678452,0,2,12,-10,-2,0,0,-1
1533861579700386,1,-1,-12,-3,2,1,-1,-1
1533861579700386,-1,2,-4,0,-1,-3,-2,0
1533861579701384,0,-9,3,13,4,1,-3,-2
1533861579701384,-4,-5,-20,-5,-9,1,2,1
1533861579715346,-2,-1,1,5,0,-5,-3,-2
1533861579715346,-3,-5,-1,-10,-4,1,0,-3
1533861579715346,1,1,-3,6,10,-1,0,-1
1533861579715346,-1,1,5,13,-1,-3,-3,-1
1533861579737290,-4,-5,-6,-6,-12,-5,-2,-3
1533861579737290,-1,4,7,-8,1,1,-1,-2
1533861579738284,-2,-1,-3,14,-1,-1,0,0
1533861579738284,-3,-1,-1,-7,-8,-4,-2,-1
1533861579760226,-2,2,-7,-5,5,0,-3,0
1533861579760226,0,-2,2,4,5,0,-3,0
1533861579761223,-2,2,0,-6,-3,1,0,0
1533861579761223,0,-1,-2,-3,5,1,-2,0
1533861579774196,-2,-1,0,-8,-10,-2,1,-1
1533861579774196,-2,-3,-3,7,-2,-4,-2,-2
1533861579782167,-2,-1,33,10,4,-1,0,2
1533861579782167,-1,-2,-6,-6,1,-2,-1,-2
1533861579797341,1,1,1,3,2,1,0,0
1533861579797341,-2,-3,9,1,0,-2,1,2
1533861579798124,-1,-2,-18,-1,-5,-3,-2,0
1533861579798124,-1,-1,0,-6,-5,-2,-2,-2
1533861579821064,-1,-1,3,4,3,-1,-1,0
1533861579821064,-1,-2,-10,-7,-5,-2,0,-2
1533861579821064,0,0,-6,-4,-5,-2,-2,-2
1533861579821064,0,0,2,-5,-3,-3,0,-4
1533861579835029,-3,-2,-10,-4,5,4,-2,-2
1533861579835029,1,0,5,1,9,1,0,0
1533861579836031,-1,-3,-4,1,-3,-1,0,0
1533861579836031,-2,-3,4,7,-10,-5,-2,-4
1533861579857965,-3,-3,-5,3,4,0,-2,-4
1533861579857965,0,-2,-4,-29,-13,-3,0,-1
1533861579857965,-2,1,2,2,8,-1,-1,-2
1533861579857965,0,0,-6,0,10,1,3,1
1533861579880936,0,1,1,10,-4,-3,-1,1
1533861579880936,-1,-1,8,9,-2,-1,0,0
1533861579881901,-3,-1,-6,-10,-1,0,-2,-1
1533861579881901,-3,-2,-2,-9,-5,-1,-2,-2
1533861579894867,-2,0,-2,0,-3,0,-3,0
1533861579894867,-2,-1,6,0,4,-1,-1,-3
1533861579895892,-1,0,-5,-3,-9,-2,0,-2
1533861579895892,1,-2,-5,-5,3,1,-3,0
1533861579917808,-2,-5,-1,-8,-3,-5,-2,-1
1533861579917808,-3,1,-4,12,5,1,-2,0
1533861579917808,0,0,-2,-25,-18,-2,0,1
1533861579917808,1,0,-1,6,-1,-1,-1,1
1533861579940743,-1,0,-1,10,6,1,0,-1
1533861579940743,-1,0,-4,-44,-8,-4,-1,-1
1533861579941740,-1,-1,-1,9,12,2,0,-2
1533861579941740,0,0,-1,-2,-5,-1,-2,-1
1533861579954706,-2,-2,-4,6,-3,1,1,0
1533861579954706,-2,-2,-1,9,-5,1,-1,-2
1533861579962721,-1,-2,3,0,4,-1,-2,1
1533861579962721,-3,-2,-1,0,6,1,-2,-1
1533861579977645,0,-2,-4,-6,-2,0,-1,-2
1533861579977645,1,-1,8,-1,-5,-1,0,1
1533861579978641,-3,-5,-17,1,3,-4,-2,-1
1533861579978641,0,-1,1,30,14,-1,-1,-1
1533861580000583,0,-2,-2,-8,-17,-2,-2,-2
1533861580000583,-2,-1,-1,12,-4,1,-2,-2
1533861580001580,0,1,1,-24,-5,0,-2,-1
1533861580001580,0,1,1,-3,-3,-1,0,1
1533861580014545,-2,-1,-1,1,7,1,1,-1
1533861580014545,-1,-2,-6,2,2,0,-2,-1
1533861580022524,-2,-1,4,19,-5,-1,-1,0
1533861580022524,0,-1,-1,-13,-4,-1,1,-2
1533861580037487,-2,-2,1,-5,1,-5,-1,0
1533861580037487,0,-1,-3,3,-3,-2,-1,0
1533861580038482,1,-1,0,2,-1,-1,-1,-1
1533861580038482,-2,-2,-1,-8,-1,-2,-3,-1
1533861580060426,0,-3,-30,-2,5,-3,-2,-1
1533861580060426,2,2,4,7,1,3,1,1
1533861580061420,-3,-3,-1,1,-12,-4,-1,0
1533861580061420,-7,-3,4,-1,1,0,0,-2
1533861580074385,1,-2,-1,-4,-12,-3,-2,-1
1533861580074385,1,0,-4,-5,3,-1,-1,-1
1533861580082367,-2,6,-3,-9,4,0,-1,-1
1533861580082367,1,-10,1,-7,-1,1,-1,0
1533861580097324,0,1,-10,5,3,0,-1,0
1533861580097324,-3,-3,-2,-8,-2,-3,-3,-1
1533861580098322,-2,-1,3,14,-1,-1,-2,-4
1533861580098322,-1,1,-4,-5,-5,-3,-2,-1
1533861580120481,-2,-1,10,-5,1,-1,-2,-1
1533861580120481,-3,-3,2,2,-2,-2,-2,-2
1533861580121261,-1,-2,-6,-2,-2,0,0,-2
1533861580121261,0,1,-1,-8,-3,0,-1,-2
1533861580143220,-3,-1,7,0,1,1,-2,-1
1533861580143220,-1,-1,-8,4,-2,-1,-2,0
1533861580144203,0,-5,1,-8,-3,-4,-2,-2
1533861580144203,-1,0,-2,-1,0,0,-1,0
1533861580157165,-1,0,9,-3,0,0,2,-2
1533861580157165,0,-1,-4,6,-2,-2,-3,-3
1533861580158162,-1,0,-1,-11,-1,-1,0,1
1533861580158162,-2,0,1,0,-7,-3,-2,-1
1533861580181100,-1,1,1,-1,8,1,0,-2
1533861580181100,-3,-5,-4,5,-5,-5,-2,-2
1533861580181100,-2,-2,-1,-14,-11,2,-1,-1
1533861580181100,1,-1,-4,7,1,-2,1,0
1533861580194102,1,1,4,-7,4,0,0,0
1533861580194102,-1,-1,-2,2,8,-1,1,-2
1533861580203044,-1,-2,-1,8,-4,-4,-3,-3
1533861580203044,0,0,-1,-4,-4,2,-1,0
1533861580217091,-2,-1,0,-9,0,-4,-2,-1
1533861580217091,-1,0,2,2,1,1,-1,0
1533861580218002,-1,-1,-5,2,-9,-2,-1,-2
1533861580218002,-1,1,-1,16,8,-1,-2,-2
1533861580241141,-3,-3,-4,-26,-11,-4,-3,-3
1533861580241141,0,-1,-1,5,3,0,0,-1
1533861580241141,1,0,3,-5,4,0,-1,1
1533861580241141,-2,-3,-42,-7,-3,-5,-1,-3
1533861580253909,1,-1,18,9,-1,3,1,-2
1533861580253909,-1,-1,-2,-5,-9,-3,-1,0
1533861580262884,-1,1,2,-2,4,-1,-2,-1
1533861580262884,0,0,0,-8,0,-1,-1,-2
1533861580277841,-1,-1,-4,12,0,-3,-2,-1
1533861580277841,-1,0,7,-1,-6,-4,-1,-2
1533861580277841,-1,-1,-8,-22,8,-2,0,0
1533861580277841,-3,-4,8,0,-6,-3,-2,-2
1533861580300783,0,0,1,-3,-8,0,0,0
1533861580300783,-3,-1,-2,-7,-2,-1,-1,0
1533861580301777,0,1,0,4,5,1,0,-1
1533861580301777,3,7,12,13,6,5,1,1
1533861580322727,-8,-10,-21,-25,-15,-9,-5,-4
1533861580322727,0,1,6,17,7,-1,1,-1
1533861580323729,-2,-2,-10,5,-6,-1,-1,1
1533861580323729,-4,0,4,-7,20,1,0,-2
1533861580337682,2,-1,-6,-9,-19,-1,-1,-2
1533861580337682,-3,-2,4,-6,-4,-1,-1,0
1533861580338679,1,-1,3,4,0,-3,1,0
1533861580338679,-1,-2,4,0,0,-1,-1,0
1533861580360623,0,2,2,10,7,2,0,0
1533861580360623,-1,-2,-6,-7,-4,-1,-1,-3
1533861580361633,-3,0,-2,4,2,2,0,-2
1533861580361633,-2,-2,-3,-13,-10,-2,-1,-1
1533861580383592,-2,-1,2,11,0,-3,-1,-2
1533861580383592,1,-1,-7,-7,-2,-1,-1,2
1533861580383592,-2,1,1,-3,2,-2,1,-1
1533861580383592,-2,-2,0,9,3,-3,-5,-4
1533861580397630,0,0,1,5,1,1,0,-1
1533861580397630,-3,0,-2,23,13,-1,-3,-1
1533861580398519,-2,-3,-1,-19,-9,0,-2,-3
1533861580398519,1,1,2,-14,-18,1,-1,3
1533861580420501,-1,-1,1,27,13,-1,2,2
1533861580420501,-3,-4,-9,-23,-10,-2,2,-3
1533861580421457,-2,-3,1,4,2,-18,-6,-3
1533861580421457,3,2,9,25,9,15,4,4
1533861580443399,-3,-1,-8,5,5,10,2,1
1533861580443399,-1,-2,-6,-23,-13,-3,2,-1
1533861580444404,1,-2,-1,-11,-3,1,-4,0
1533861580444404,-4,-3,-6,-40,-12,-12,-5,-3
1533861580457392,1,1,7,25,5,-1,-1,1
1533861580457392,0,-1,-2,-9,3,3,-2,-3
1533861580458375,-2,-1,2,38,12,-4,-2,-3
1533861580458375,0,-3,-42,-24,-16,-5,0,-2
1533861580481297,2,3,33,44,9,4,3,0
1533861580481297,-2,-2,-10,-57,-14,-4,-4,1
1533861580481297,-5,-8,-22,-81,-13,0,-4,-3
1533861580481297,1,-1,-1,15,17,4,2,0
1533861580503245,1,0,-6,-3,-23,-3,-2,-3
1533861580503245,1,4,24,58,24,-4,-1,-2
1533861580504265,-3,-3,-19,-3,-2,4,3,1
1533861580504265,-2,-1,6,-16,-2,-2,1,1
1533861580517205,-5,-5,-11,-26,-9,-8,-6,-5
1533861580517205,0,2,13,18,4,4,5,1
1533861580518198,1,4,10,18,-15,4,2,0
1533861580518198,0,-3,4,22,19,-5,-6,-1
1533861580540141,0,-1,-2,-29,5,-3,-6,0
1533861580540141,0,-5,-10,16,-5,0,-2,0
1533861580541136,0,0,8,29,6,4,0,-1
1533861580541136,-3,1,9,26,3,-3,-2,-3
1533861580563089,0,2,2,16,29,4,4,-1
1533861580563089,-4,-9,-22,-106,-53,-12,-9,-5
1533861580564101,-2,-1,-13,12,7,-1,0,-1
1533861580564101,-2,-1,11,13,-24,1,0,-1
1533861580578044,-2,-4,-12,-22,0,-1,-3,-3
1533861580578044,0,2,1,28,14,4,-1,-1
1533861580578044,-1,0,9,8,9,-4,-2,-3
1533861580578044,0,-1,-1,-7,-9,0,1,-2
1533861580600980,-1,2,-4,-5,0,-1,-1,2
1533861580600980,-2,-3,-5,4,2,0,1,-2
1533861580601987,0,-1,5,-2,-6,-2,-1,-2
1533861580601987,-1,-1,0,-1,2,-1,-3,0
1533861580622922,-3,-2,-3,-13,-7,-6,-2,-1
1533861580622922,-1,-1,3,17,4,3,0,-1
1533861580623916,1,-1,5,-3,0,3,-3,1
1533861580623916,0,0,-2,4,-1,-4,-2,-1
1533861580636881,-1,-4,-3,-8,-7,-1,-1,-1
1533861580636881,0,-2,-3,3,-2,-4,-2,-3
1533861580646855,-1,2,1,0,1,1,2,1
1533861580646855,-3,-3,-2,-8,-3,-3,0,-3
1533861580660820,-1,0,-2,-1,-3,-5,-2,-3
1533861580660820,-1,0,-2,9,1,-3,-1,-1
1533861580661815,-3,-1,-2,-8,-4,-4,-2,-3
1533861580661815,-1,0,1,-8,-3,0,-2,-1
1533861580683759,-1,0,-2,7,-1,0,-4,-2
1533861580683759,0,0,1,4,9,4,1,4
1533861580684753,0,-3,1,4,1,1,0,0
1533861580684753,-1,-3,-2,-8,-9,-6,-2,-4
1533861580696721,0,-1,-2,-6,-13,-2,-3,-2
1533861580696721,-2,0,-1,2,5,0,1,0
1533861580705706,0,0,0,0,-3,-3,0,-1
1533861580705706,0,-2,-2,-5,-1,-1,1,-2
1533861580720660,-4,-3,-2,-1,5,-3,0,-2
1533861580720660,-1,0,1,3,-5,-1,-1,0
1533861580722653,-1,-1,1,5,4,2,0,0
1533861580722653,-1,1,1,-4,1,-2,-3,-2
1533861580743599,-1,-1,2,-3,-3,3,-1,-1
1533861580743599,0,0,-2,-1,2,-2,1,-2
1533861580744606,-1,0,-1,19,11,-3,-3,-3
1533861580744606,-2,-2,-3,-19,-13,-1,-2,-1
1533861580756577,0,-1,-2,2,-1,1,3,2
1533861580756577,0,0,-1,8,11,1,-2,0
1533861580765541,0,0,1,-3,-3,-2,1,-1
1533861580765541,-2,-1,0,5,6,-1,1,0
1533861580788476,-2,-3,-4,-25,-28,-5,-2,-2
1533861580788476,-1,-3,-1,1,-8,-1,-1,-3
1533861580789474,-2,-1,0,-5,4,-1,-1,0
1533861580789474,-1,-1,1,10,10,1,-2,1
1533861580803439,0,2,-1,0,5,0,0,-2
1533861580803439,-1,-1,0,1,3,-3,0,-1
1533861580804432,1,-1,-3,1,-7,-3,-4,-4
1533861580804432,0,-1,0,-4,-2,-1,1,-1
1533861580817408,-1,0,-1,7,6,0,2,0
1533861580817408,-2,-2,-2,-5,-8,-2,-3,0
1533861580825380,-2,-1,0,-1,-2,-2,2,1
1533861580825380,-1,-4,-1,-3,5,-5,-4,-2
1533861580840337,-2,-3,0,2,3,3,-2,-2
1533861580840337,1,0,1,4,8,1,0,-2
1533861580842332,-1,-2,-2,-11,-27,-1,1,0
1533861580842332,-2,-1,-3,2,1,0,0,-2
1533861580863275,1,-1,0,-3,3,-2,-2,-1
1533861580863275,-2,0,-2,-1,-6,-1,0,-2
1533861580865270,-1,0,-2,0,3,4,-1,-1
1533861580865270,0,-1,-1,0,2,1,1,1
1533861580877243,-2,-1,-1,3,-1,-2,1,1
1533861580877243,-2,-2,-4,-4,5,-2,-2,-3
1533861580886225,-2,-3,-1,-4,-3,-3,-1,1
1533861580886225,1,-1,-2,0,-8,-3,-6,-1
1533861580900307,-1,1,-2,0,5,-1,1,3
1533861580900307,-1,-2,1,2,-1,-1,-2,-1
1533861580902190,-1,-3,-2,-11,-25,-5,0,-1
1533861580902190,-2,-1,-3,-12,0,3,0,-1
1533861580923119,-3,-2,-2,-1,4,-2,0,-1
1533861580923119,0,-1,-1,-1,-3,-3,-3,0
1533861580925110,0,0,0,6,11,1,-1,0
1533861580925110,-4,-4,-2,1,-2,-5,-1,-2
1533861580937082,-3,-3,-1,-1,-1,-2,-2,-3
1533861580937082,-1,-1,-2,-1,-1,0,0,-1
1533861580946054,-3,-2,-1,2,5,1,-2,-1
1533861580946054,-2,2,0,-1,-1,1,0,-1
1533861580961017,2,0,-2,2,-3,-3,-2,-1
1533861580961017,-2,-2,-1,-2,-3,-4,-3,-2
1533861580962012,-1,-1,0,1,6,-2,0,-2
1533861580962012,1,-2,-1,0,-3,-1,4,3
1533861580982959,-1,-1,-1,3,-4,-1,0,-1
1533861580982959,-4,-3,-3,-2,-2,-4,-2,-3
1533861580988940,0,0,0,0,1,-1,-3,-3
1533861580988940,0,1,-1,-2,-2,-2,-2,1
1533861580996918,-3,-3,-1,-2,0,-4,-4,-1
1533861580996918,-2,1,-2,-3,-4,0,0,-1
1533861581005896,1,0,1,0,-1,-1,-1,0
1533861581005896,-2,-1,-2,2,2,0,-2,-2
1533861581019860,-2,-3,-2,1,-1,1,1,-3
1533861581019860,1,-2,1,-2,-6,1,0,2
1533861581027045,-2,-1,-3,0,2,-3,-5,-2
1533861581027045,-4,-1,-1,-2,0,-4,-1,-4
1533861581042795,2,0,-2,-2,-4,-1,-3,0
1533861581042795,1,0,-2,-2,0,-4,-2,-2
1533861581044791,-4,-1,-1,1,3,-4,1,-1
1533861581044791,0,-1,1,0,-4,-3,-2,-2
1533861581056787,3,2,5,4,7,-3,-5,-1
1533861581056787,-5,-3,-5,-2,-4,1,0,1
1533861581065734,-2,-3,-3,-4,4,5,3,1
1533861581065734,3,-3,-3,3,-3,3,-1,-2
1533861581079700,-1,0,2,-4,2,-1,0,0
1533861581079700,-4,-3,-11,-6,-19,-10,-3,-1
1533861581086692,1,0,-1,-1,-6,0,-1,-2
1533861581086692,-1,1,0,0,-1,-3,-1,-2
1533861581102706,-5,-4,-17,-2,5,-4,-2,-3
1533861581102706,2,4,57,4,8,2,1,1
1533861581104631,3,1,4,-2,0,-1,-3,0
1533861581104631,-3,-1,-3,-5,-1,-7,-4,0
1533861581116598,-1,1,4,-2,0,5,2,-1
1533861581116598,2,-3,-19,2,-7,-2,-3,-2
1533861581125575,-1,0,2,5,12,0,-2,-3
1533861581125575,-5,-4,-5,-12,-10,1,5,-1
1533861581140537,2,4,11,7,3,3,-2,1
1533861581140537,-3,-7,-22,-8,-12,0,3,-1
1533861581146521,-5,-3,-6,3,-1,-1,-5,0
1533861581146521,-1,0,-1,4,8,0,-2,-1
1533861581163473,1,-2,1,-11,-24,-10,1,0
1533861581163473,-2,-2,-5,-2,8,-2,-5,-1
1533861581164470,-2,-2,6,-2,3,0,1,1
1533861581164470,2,-4,-6,-3,-6,2,0,0
1533861581177435,-3,-3,-3,1,3,0,-2,-2
1533861581177435,-3,1,1,-1,-1,1,-1,0
1533861581185414,1,0,-5,-3,9,-2,-2,-1
1533861581185414,3,4,7,1,2,-2,0,0
1533861581199380,-3,-1,-1,-13,-20,-7,1,-1
1533861581199380,-1,-3,-10,0,-3,-1,0,-3
1533861581208353,0,0,2,-4,-8,0,-1,-1
1533861581208353,-5,-2,-3,4,7,2,-1,-1
1533861581223313,-5,-3,-6,2,-1,-3,0,-2
1533861581223313,2,-1,-9,-8,-1,-1,0,0
1533861581224310,-2,0,2,2,-2,0,-2,-3
1533861581224310,-3,0,6,3,7,-2,1,-1
1533861581244260,0,0,4,0,-1,4,-3,0
1533861581244260,0,0,2,0,8,2,0,0
1533861581253233,-4,-2,-3,-4,-3,-2,-2,-1
1533861581253233,0,-1,-2,-6,-15,3,-2,0
1533861581260217,1,-1,0,2,9,0,2,2
1533861581260217,-3,0,-5,-2,-7,-6,0,-2
1533861581267198,1,0,6,2,14,1,2,0
1533861581267198,0,-3,-6,-6,-22,-3,0,-3
1533861581283156,-3,-1,0,-5,1,0,-2,-3
1533861581283156,-2,-2,-5,-6,2,2,0,1
1533861581285147,2,1,2,3,3,1,-1,-2
1533861581285147,1,0,1,3,8,2,-1,3
1533861581306105,-2,-4,-6,6,-3,-1,-1,-2
1533861581306105,1,0,2,0,-10,-3,-2,0
1533861581307089,-1,-3,-3,1,1,1,-3,-2
1533861581307089,-1,0,2,-14,2,-4,1,-2
1533861581320057,-2,-3,-2,-5,-2,-2,0,0
1533861581320057,-1,1,5,1,4,0,-5,-1
1533861581327083,-3,-3,-6,4,-9,-2,0,1
1533861581327083,-1,1,0,-2,1,-1,0,-1
1533861581343199,-1,-1,-4,-1,-2,1,3,-2
1533861581343199,-1,1,0,-2,8,0,-3,-3
1533861581345006,-3,-3,-5,-1,-8,-6,-2,-2
1533861581345006,-2,-2,-3,2,-1,-3,-3,-2
1533861581365931,-1,0,-3,-4,-2,0,-3,-1
1533861581365931,-2,-2,-2,3,1,-2,-1,0
1533861581366929,1,-2,-5,-15,-6,-3,-1,-2
1533861581366929,-1,-1,-1,4,2,5,3,1
1533861581379894,-1,-1,1,3,0,-4,-4,-2
1533861581379894,-1,-1,2,3,-1,0,2,-1
1533861581387872,-2,-1,-2,1,-7,2,-3,-2
1533861581387872,-3,-1,2,-1,3,-3,-1,1
1533861581402836,-1,-1,-2,0,2,2,-2,-2
1533861581402836,-1,-2,-1,2,-5,1,2,-1
1533861581404826,-1,-3,-3,-1,6,-4,-1,-2
1533861581404826,-2,-3,-2,3,-10,-5,-4,-2
1533861581425774,-1,1,4,1,1,-2,-1,2
1533861581425774,0,2,2,-2,2,-3,-1,-1
1533861581427766,-2,-2,-1,-1,-6,-1,1,-1
1533861581427766,-3,-2,0,3,2,0,-1,-1
1533861581439734,0,-1,1,-5,3,-2,-2,-2
1533861581439734,-2,-3,-5,-2,-8,-2,-5,-5
1533861581448709,-2,-2,-1,-1,-3,-3,-1,-3
1533861581448709,1,-2,-6,-2,-2,-1,-1,-2
1533861581463670,-2,-2,-8,4,-2,1,-1,-3
1533861581463670,1,1,1,-4,4,-4,-7,0
1533861581464667,-1,1,1,-3,-8,-3,-1,-3
1533861581464667,-3,-2,-3,2,4,-3,-1,-4
1533861581485615,-2,-2,1,5,-3,1,3,2
1533861581485615,-1,-1,-4,-5,21,6,3,1
1533861581487606,-2,-3,-4,-5,-28,-5,0,3
1533861581487606,-1,0,-1,-3,0,-3,-5,-4
1533861581499578,0,-2,-1,-1,-1,1,0,-4
1533861581499578,1,1,9,0,5,0,-1,0
1533861581508551,-2,-5,-10,-2,14,2,-1,-2
1533861581508551,-2,-1,-7,2,-19,-5,0,-2
1533861581523510,-3,1,-1,-1,11,4,-1,-1
1533861581523510,-2,1,10,5,-4,-2,1,-2
1533861581524517,-5,-6,-9,-4,-6,1,0,-2
1533861581524517,-1,-1,1,3,-4,-1,-2,-2
1533861581545490,0,-1,-8,0,12,1,0,-1
1533861581545490,-3,-1,1,-3,-11,-2,1,-1
1533861581547448,0,1,6,2,5,-2,-4,-2
1533861581547448,0,-1,7,-1,6,2,-1,1
1533861581559414,0,-2,-9,-12,-14,-7,-2,-2
1533861581559414,0,1,-3,-2,6,3,1,0
1533861581568390,0,1,-1,3,8,-1,1,1
1533861581568390,1,0,5,1,-8,-3,-2,-2
1533861581583544,-1,-3,-3,-10,-20,-4,-2,-2
1533861581583544,0,-2,1,0,-6,0,1,1
1533861581585345,1,-2,-6,-8,1,-4,-3,-1
1533861581585345,0,-2,-6,-6,9,2,1,-2
1533861581605292,-1,1,4,-8,1,-6,0,-2
1533861581605292,-2,-3,-5,0,-3,-3,-5,-1
1533861581607287,-1,-1,-3,0,-5,-3,-2,0
1533861581607287,-2,-1,4,3,6,0,-1,-2
1533861581619256,-1,2,5,-7,-1,-5,-9,-2
1533861581619256,-3,-5,-14,3,-4,1,-1,-1
1533861581628230,-1,-3,-4,-3,-1,1,0,1
1533861581628230,-2,-1,1,2,-1,0,0,-3
1533861581643193,-3,0,5,7,-1,-2,0,1
1533861581643193,2,-2,8,-2,-1,-3,-2,-3
1533861581645185,-1,-2,-4,-3,-4,-1,-3,-5
1533861581645185,-1,-1,-2,5,3,2,-2,-1
1533861581666128,0,-1,0,5,-1,1,-2,2
1533861581666128,-1,5,4,-4,-1,-2,-1,-3
1533861581667126,1,1,2,-1,-3,-2,4,-1
1533861581667126,-1,-1,-2,-2,-5,-9,-9,-3
1533861581679095,4,4,1,-1,8,4,-3,4
1533861581679095,-4,-8,-16,-5,-10,-6,-3,-1
1533861581688071,0,2,11,8,2,3,6,1
1533861581688071,-2,0,3,3,0,-2,-1,-1
1533861581703060,-2,-3,-3,-2,-2,-4,0,-3
1533861581703060,0,-1,5,2,-1,0,-2,-4
1533861581705026,1,5,12,0,2,1,-4,-1
1533861581705026,1,-5,-7,1,-1,1,0,0
1533861581725972,-6,-9,-10,-1,-6,-5,-2,-4
1533861581725972,0,-1,-10,-2,3,1,2,0
1533861581726965,-1,2,4,-1,0,-2,-4,-3
1533861581726965,0,2,5,-3,1,0,2,0
1533861581738934,1,-1,5,1,5,2,-3,1
1533861581738934,0,0,0,-1,-4,-1,0,-2
1533861581747913,-2,-1,-3,6,-1,-2,-5,-2
1533861581747913,0,-2,-14,-11,-1,-2,-2,-1
1533861581762872,1,0,-2,-6,0,-1,3,-2
1533861581762872,-2,0,-3,3,0,1,-2,-1
1533861581764864,-1,-4,-4,1,-2,-1,-6,-1
1533861581764864,-3,-3,-11,-5,-3,2,1,-2
1533861581785811,-1,0,9,-1,-1,3,3,-3
1533861581785811,-1,-1,4,-1,-3,-1,-2,-1
1533861581786805,-1,-3,3,-6,-8,-4,1,-1
1533861581786805,0,-3,-1,-1,3,-1,-7,-1
1533861581799771,-3,-3,-3,2,-5,-4,-1,0
1533861581799771,-2,0,8,0,-2,-2,-1,-1
1533861581808748,0,-2,-8,-3,7,-2,1,-1
1533861581808748,-1,0,-2,-4,-6,-1,3,0
1533861581823713,-1,0,10,3,2,-1,-2,-4
1533861581823713,0,1,6,6,-10,-4,-6,-1
1533861581824705,0,1,5,2,1,3,1,1
1533861581824705,-4,-4,-4,6,-3,-4,-3,-2
1533861581845648,-4,-3,-10,1,2,-2,-4,-2
1533861581845648,-4,-7,-56,-11,2,4,2,-3
1533861581847642,0,0,3,-5,-5,3,-2,-2
1533861581847642,-2,-5,27,-4,0,3,3,-2
1533861581859816,-1,-1,36,3,-2,1,-5,1
1533861581859816,-3,1,22,1,-1,-6,-3,-1
1533861581868630,-1,-4,4,-4,-4,-2,-1,0
1533861581868630,-2,-1,5,1,-2,-5,-2,1
1533861581883592,0,-5,-14,-5,-5,-3,2,-1
1533861581883592,-1,-1,-12,4,2,0,2,-2
1533861581884585,-1,1,-17,0,-4,-1,-1,-2
1533861581884585,2,0,-8,-9,-1,0,1,-1
1533861581905540,0,-1,-12,1,-7,-5,-3,-1
1533861581905540,1,-1,-8,-7,6,-2,-4,-3
1533861581907524,-2,-2,-4,5,-3,0,0,-1
1533861581907524,1,3,13,13,8,0,-2,-1
1533861581919495,-5,-7,-38,1,3,-1,-3,-5
1533861581919495,-1,-2,3,0,-3,-1,6,-1
1533861581928467,0,2,49,7,4,-1,-6,2
1533861581928467,-5,-2,11,-3,-4,0,-4,-8
1533861581943431,0,1,40,-4,1,3,2,1
1533861581943431,-1,-3,22,1,0,-3,0,-3
1533861581944425,-1,-3,9,3,-3,-5,-3,-3
1533861581944425,1,-1,-1,-8,-2,-1,2,4
1533861581965372,0,2,-72,2,1,2,-1,-3
1533861581965372,0,-2,53,-2,1,0,-2,-3
1533861581967363,-1,0,57,-4,0,-1,0,0
1533861581967363,-1,1,8,13,4,0,-2,0
1533861581979335,-3,-6,15,4,0,-1,-1,-2
1533861581979335,0,1,44,2,5,1,-2,3
1533861581988308,-2,-3,-92,-6,-12,-2,0,-3
1533861581988308,-1,0,-27,-7,-13,-7,0,-3
1533861582002275,-1,0,-34,-4,-5,-3,-3,-2
1533861582002275,0,2,-77,0,5,6,1,5
1533861582009255,-1,-4,-9,-13,-7,-4,0,-3
1533861582009255,-1,-2,-7,-3,11,4,1,1
1533861582026222,1,0,-4,-4,-14,-6,-4,-3
1533861582026222,-1,-4,7,0,12,4,6,3
1533861582027205,0,-2,-19,-12,5,1,-1,-1
1533861582027205,-1,-1,-26,2,-1,4,1,1
1533861582039171,-1,0,35,-1,1,-1,2,-1
1533861582039171,-5,0,25,7,-8,-5,-4,-4
1533861582048183,-1,1,-23,6,-1,-1,0,1
1533861582048183,-4,-3,-12,-5,1,-2,-5,-3
1533861582062111,7,-1,31,4,-1,0,-1,3
1533861582062111,-4,-2,-8,-2,-6,-4,-3,-7
1533861582069092,-4,-2,-35,4,7,-1,0,-4
1533861582069092,-3,-3,12,-12,-5,-4,-3,-2
1533861582086046,-2,0,18,-6,0,-1,2,1
1533861582086046,1,-1,-32,-8,-6,-1,0,2
1533861582087060,-1,-2,0,4,1,0,2,-2
1533861582087060,0,0,0,-1,3,2,-1,2
1533861582099015,-2,4,22,8,2,1,1,3
1533861582099015,-2,-4,-24,-4,-5,-5,-3,-4
1533861582107991,-4,-2,6,0,-6,-1,1,0
1533861582107991,1,0,9,-2,3,-1,2,0
1533861582122964,0,-3,-14,-5,0,0,-4,-2
1533861582122964,-4,-2,11,-2,0,-1,-5,-3
1533861582124944,-1,-1,-2,-3,3,-1,-2,-1
1533861582124944,-1,-1,2,-3,-11,-2,-1,-1
1533861582145886,-3,-1,3,-1,-1,0,0,-4
1533861582145886,0,0,-1,0,-3,-2,1,-4
1533861582147881,2,-1,-15,-6,5,0,2,1
1533861582147881,0,-2,-6,5,2,-4,-4,-1
1533861582167831,-3,-4,-12,10,-1,-2,-1,-1
1533861582167831,-1,-2,-2,3,-1,-1,-1,-3
1533861582169823,-1,2,-1,-9,-9,-5,2,-1
1533861582169823,1,0,4,2,7,2,2,1
1533861582182791,-2,2,3,6,-5,-1,-1,0
1533861582182791,-1,1,-5,-5,-7,-2,2,0
1533861582184783,-4,-3,7,1,-3,-4,-7,-5
1533861582184783,1,-1,-3,-1,-2,0,3,-1
1533861582205727,-4,-3,3,-5,1,-2,-2,-5
1533861582205727,2,3,8,0,2,2,1,5
1533861582207722,-1,-2,-7,-4,-2,-4,-2,-1
1533861582207722,-4,-1,-12,-12,-2,-2,-3,-3
1533861582227668,0,-1,12,0,4,0,-1,1
1533861582227668,0,0,-6,-5,0,0,-1,-2
1533861582229663,1,-1,2,-5,-9,-4,-2,-1
1533861582229663,1,-1,-16,1,5,-3,-3,-1
1533861582243628,-2,-3,-14,-6,-5,-2,-2,-1
1533861582243628,0,-1,9,2,1,0,-1,-1
1533861582244623,-1,0,-4,13,10,4,-3,-4
1533861582244623,0,2,13,10,35,7,4,4
1533861582265569,-3,0,-9,-15,-30,-6,1,-1
1533861582265569,-3,0,-10,-8,-32,-9,0,1
1533861582267561,-3,-2,-13,-2,-2,0,1,0
1533861582267561,-6,-3,-3,0,-10,-8,-8,-7
1533861582288512,0,1,11,10,30,6,2,2
1533861582288512,-2,-3,-1,5,7,-1,-5,-2
1533861582289502,-1,-1,2,5,0,1,-1,-1
1533861582289502,0,-2,-3,1,-2,0,0,1
1533861582303465,-1,-2,8,6,3,-3,-1,-1
1533861582303465,0,-2,3,-4,-6,-5,-6,-5
1533861582304462,2,1,3,4,10,7,6,5
1533861582304462,0,0,-4,2,-6,2,5,4
1533861582325409,-3,-3,-11,-6,-8,-6,-2,-3
1533861582325409,0,-2,-5,0,1,-4,2,-1
1533861582327403,-4,-4,-27,-14,-3,-5,-11,-8
1533861582327403,-1,0,5,4,-6,2,-7,3
1533861582348345,-2,-1,5,1,-3,0,-2,-2
1533861582348345,-2,-4,-19,-3,4,0,-1,-2
1533861582350340,-2,-2,-1,-1,-6,-5,3,0
1533861582350340,-1,0,5,-5,-10,-3,2,-4
1533861582362311,-1,-2,-17,1,2,-2,1,-4
1533861582362311,-1,0,-3,-1,3,0,-2,1
1533861582369292,-1,0,-6,-3,0,0,1,0
1533861582369292,-3,-3,9,1,-6,-4,-1,-3
1533861582386244,-1,-4,-23,-27,1,-2,-1,2
1533861582386244,-4,-3,-12,-6,-1,-3,-2,-5
1533861582387240,-2,1,9,3,-2,-2,0,2
1533861582387240,-2,-1,-1,-1,-1,-1,-4,-2
1533861582408188,0,-1,14,5,0,1,1,0
1533861582408188,1,1,5,-1,1,2,0,0
1533861582410180,-1,-1,-6,-3,-2,-7,-9,-7
1533861582410180,-1,2,4,3,0,0,4,0
1533861582423145,-2,1,-18,6,1,4,4,2
1533861582423145,-2,-1,-5,-2,1,0,1,0
1533861582429129,-3,-1,-1,5,1,3,4,2
1533861582429129,0,-1,2,-1,-10,-8,-5,-3
1533861582446085,-1,-2,13,-1,3,-5,-8,4
1533861582446085,0,0,2,2,-2,0,13,-9
1533861582447081,2,-1,-13,1,3,-3,-6,2
1533861582447081,-1,-1,-9,-2,-4,1,-2,0
1533861582468028,3,6,15,6,0,2,0,3
1533861582468028,-4,-4,-12,5,-2,1,-4,-2
1533861582470019,-1,-2,1,1,8,4,3,-2
1533861582470019,-2,-3,-16,-11,-16,-4,-2,0
1533861582481987,-2,2,14,7,-2,-2,-2,-4
1533861582481987,-2,-1,-4,-1,0,-1,0,3
1533861582490970,0,0,6,1,-9,-1,0,-1
1533861582490970,-1,-3,-4,-3,25,4,-1,0
1533861582505923,-2,-3,-2,-4,-5,-5,-1,-8
1533861582505923,0,1,3,-1,-4,0,-3,3
1533861582506921,-1,-2,-16,-3,-6,-2,-6,1
1533861582506921,-1,-1,-4,-1,-3,-2,0,-1
1533861582527865,-2,-2,-3,1,2,-1,-3,-3
1533861582527865,-1,-2,1,-1,3,-3,-2,-1
1533861582529859,-1,1,3,2,-1,-3,1,0
1533861582529859,-1,1,6,-2,-6,-2,-1,-4
1533861582542828,-1,-2,-10,-2,-4,-3,-1,-3
1533861582542828,-1,-2,-7,-2,0,-2,-3,0
1533861582549809,-1,0,3,0,2,0,-6,6
1533861582549809,-3,0,3,-2,-7,-4,0,-10
1533861582565767,-1,-3,5,-12,1,2,4,4
1533861582565767,1,2,2,-4,-2,1,-2,1
1533861582567762,-4,-4,6,0,-6,-6,-2,-5
1533861582567762,-2,-1,1,0,-1,-2,-3,-3
1533861582588707,-5,-2,-15,-13,-11,-3,-1,-5
1533861582588707,1,-3,-6,-5,-2,-5,-3,2
1533861582589700,2,0,11,1,3,5,4,0
1533861582589700,-3,-5,-1,4,-15,-2,1,-2
1533861582602665,1,-3,2,-4,-14,0,1,-2
1533861582602665,-2,-1,12,1,-1,-2,-2,-2
1533861582609646,-2,0,-7,-7,-3,-2,2,-4
1533861582609646,0,1,0,1,1,-2,-1,1
1533861582625607,-1,-2,7,3,-3,2,-3,-1
1533861582625607,-3,-2,-2,-2,-7,0,-2,2
1533861582627615,0,-1,-8,-7,6,-4,1,-3
1533861582627615,0,3,-6,7,7,1,4,1
1533861582648545,-4,-4,-24,-6,20,-3,-1,-4
1533861582648545,-3,-2,-3,2,8,-1,-2,-2
1533861582649539,-2,0,-4,3,2,0,-5,-6
1533861582649539,1,2,0,11,10,4,1,2
1533861582661508,3,-3,3,12,16,4,1,3
1533861582661508,-1,-11,-35,-25,-32,-8,1,0
1533861582670487,1,3,9,1,4,1,0,1
1533861582670487,-8,-4,-13,-7,-5,-4,-3,-7
1533861582685446,0,-2,9,5,-1,1,-1,0
1533861582685446,-1,4,0,2,6,-1,0,2
1533861582687439,0,0,-4,-5,-8,-2,1,-2
1533861582687439,1,-2,-9,-15,-8,-4,-2,-1
1533861582708382,-1,2,-1,1,3,-2,-3,-2
1533861582708382,-1,2,8,7,10,1,-1,-4
1533861582709380,0,-3,-2,-6,-6,-2,1,1
1533861582709380,1,0,-7,-2,9,4,-1,0
1533861582721347,-1,-3,-2,-3,0,-2,0,-2
1533861582721347,1,2,40,2,-9,-2,-2,2
1533861582730327,-1,-2,1,-3,1,-1,-6,-3
1533861582730327,-2,-4,-8,-5,-1,1,3,1
1533861582745426,2,3,5,0,-4,0,-5,3
1533861582745426,0,-1,-14,1,-1,-2,0,-5
1533861582747421,-2,2,1,7,2,0,-3,-1
1533861582747421,1,1,8,4,-3,-4,2,1
1533861582768367,-3,-2,-3,0,-7,-4,-3,-5
1533861582768367,-2,-1,-25,-7,1,-1,-3,0
1533861582769362,-2,-4,-11,1,-6,-2,-2,-1
1533861582769362,0,-5,-6,-4,1,-1,-2,-1
1533861582782331,-2,-1,-4,0,-3,-4,1,-2
1533861582782331,0,2,3,4,-8,4,-1,3
1533861582790322,-2,-4,-11,-8,10,1,-1,-1
1533861582790322,1,4,-4,-4,10,-2,-5,2
1533861582805266,1,3,-18,-9,-27,-5,1,2
1533861582805266,-6,-5,3,-8,6,-6,-6,-19
1533861582807260,-3,-7,-16,-15,-17,-1,2,5
1533861582807260,0,0,-7,-1,6,7,0,4
1533861582828207,3,3,8,2,10,3,2,4
1533861582828207,-1,-1,0,7,-5,-3,1,2
1533861582830199,-4,0,9,2,-5,-9,-5,-13
1533861582830199,-6,-10,5,-14,-9,-3,14,-5
1533861582842170,1,0,-9,7,7,6,-13,0
1533861582842170,-2,0,2,3,-3,-1,11,-5
1533861582851144,-3,-5,-22,-1,5,1,-1,2
1533861582851144,-3,1,7,-1,-7,-7,-5,-5
1533861582866106,-1,0,-3,-2,-6,-2,1,-3
1533861582866106,-3,2,-4,-1,9,5,-1,6
1533861582867100,-1,0,1,2,-3,0,-1,-2
1533861582867100,2,1,-7,-4,-4,-1,-3,-2
1533861582888045,-4,0,14,1,5,-3,1,-3
1533861582888045,2,1,0,3,10,4,-4,0
1533861582890040,2,-1,-16,-4,-9,-2,3,2
1533861582890040,0,1,2,-4,-6,-1,-4,2
1533861582902007,-2,-3,-6,-2,11,-1,-2,-1
1533861582902007,-1,-4,2,0,-7,-4,0,0
1533861582910983,0,0,10,3,-1,-2,1,-4
1533861582910983,3,4,5,9,3,4,-8,2
1533861582926114,-4,2,-3,-4,-5,-1,2,-6
1533861582926114,0,-4,-4,-3,3,1,-1,1
1533861582926942,2,0,3,-2,10,2,2,4
1533861582926942,-2,-4,-1,3,-5,-9,-2,-3
1533861582947962,-5,-3,-5,-10,-12,-4,-6,-4
1533861582947962,0,-2,-2,0,-2,1,-3,-1
1533861582949879,-2,0,11,-1,0,-1,1,-1
1533861582949879,-1,1,2,-2,0,-1,2,-2
1533861582961847,-4,-9,14,2,-7,-5,2,-2
1533861582961847,1,1,6,-1,4,2,-1,10
1533861582970823,1,-1,6,2,-2,0,4,2
1533861582970823,-4,0,8,11,0,0,-5,-2
1533861582985783,0,-1,-8,4,0,-1,-1,-4
1533861582985783,-2,1,-1,3,5,-2,7,-14
1533861582986781,1,-1,-3,3,2,-1,1,0
1533861582986781,-2,-1,-5,-2,-3,1,-4,1
1533861583008725,-1,-1,10,-1,-1,0,3,-2
1533861583008725,0,-1,3,2,1,-1,-3,0
1533861583009720,0,3,4,6,2,3,-1,-1
1533861583009720,-2,-5,-17,-7,-4,-1,3,-3
1533861583021694,0,3,15,3,4,2,-3,1
1533861583021694,-1,-1,-19,-12,-4,0,0,2
1533861583030663,-3,-3,3,1,-9,-5,-5,-4
1533861583030663,2,0,-6,1,-6,-1,0,5
1533861583045626,1,-3,-17,-9,3,-6,-2,-2
1533861583045626,-1,2,-1,2,-3,-2,-5,-2
1533861583047618,-3,-2,-8,-1,20,-1,1,-5
1533861583047618,-2,-6,-6,-9,-24,-2,-1,-5
1533861583068574,-1,2,4,1,-3,-2,5,1
1533861583068574,-3,-2,-17,-5,7,4,-5,5
1533861583069559,3,2,-11,2,4,8,-5,6
1533861583069559,-2,-3,-17,2,11,3,4,-1
1533861583082524,-3,-1,-2,3,-5,-6,-4,-3
1533861583082524,0,-2,13,1,-1,0,4,-3
1533861583090503,-1,-1,2,-2,-6,3,3,1
1533861583090503,0,1,1,-5,5,-3,-4,2
1533861583105463,1,-3,19,1,-5,1,1,0
1533861583105463,-1,-3,-19,-10,-4,-5,-4,-3
1533861583107458,-1,-2,-8,-1,-7,-3,-5,-2
1533861583107458,-2,2,5,1,-2,1,1,1
1533861583128405,-1,0,-6,-7,15,0,-3,-2
1533861583128405,-1,-3,0,4,-8,-6,-2,0
1533861583129399,-1,-4,-12,-8,-18,-6,-2,-2
1533861583129399,1,2,14,7,31,8,3,-2
1533861583150346,0,1,-11,-5,-35,-8,-1,-1
1533861583150346,-2,-2,-13,-5,38,8,0,-5
1533861583152338,-1,-2,-9,1,-18,1,-1,2
1533861583152338,-1,-2,14,0,-23,-6,0,2
1533861583165303,-1,-1,-7,-5,-18,-5,-4,-6
1533861583165303,0,-1,3,4,22,1,8,3
1533861583167298,-2,0,-2,4,6,1,-4,-2
1533861583167298,4,4,11,17,19,10,-6,5
1533861583188242,-1,-3,-15,0,8,7,6,6
1533861583188242,-3,-2,-2,2,-19,-10,-6,-5
1533861583190279,-1,0,-12,-5,8,-3,0,-3
1533861583190279,-4,-1,2,-6,-12,-8,-4,-4
1533861583211181,-3,-3,-6,0,2,-2,-5,-6
1533861583211181,1,0,-4,0,-9,-2,-7,-2
1533861583212178,-1,0,5,3,12,-2,-2,-1
1533861583212178,-3,0,-10,-9,-2,-5,0,-7
1533861583226304,0,-5,-17,-11,-9,3,-3,4
1533861583226304,0,4,23,10,3,12,6,6
1533861583227140,-3,-4,-10,1,-13,-11,-5,-1
1533861583227140,-5,-7,-19,-22,-35,-18,-10,-5
1533861583248085,-1,5,8,9,20,11,3,2
1533861583248085,-2,-5,-19,-7,-17,-7,-6,-5
1533861583250076,-4,-6,-20,-21,-20,-4,-1,-3
1533861583250076,0,-2,-4,5,17,1,-3,-3
1533861583271020,1,2,-2,8,11,-1,1,1
1533861583271020,-2,-1,2,0,2,-4,0,-1
1533861583272018,3,3,17,5,7,4,5,3
1533861583272018,-1,0,-4,-1,1,1,-1,0
1533861583284986,-1,-2,3,14,30,4,1,-1
1533861583284986,0,-3,-10,-4,-13,-3,0,-2
1533861583291964,0,-2,6,12,54,6,-3,-6
1533861583291964,-2,-4,-57,-48,-88,-20,-2,2
1533861583307921,-2,0,13,-6,0,-4,-2,-1
1533861583307921,-2,-2,2,2,16,-3,0,-2
1533861583309917,-3,1,7,9,13,5,1,0
1533861583309917,0,-2,30,27,31,5,-2,-1
1533861583330860,-3,-1,-4,-5,-3,-5,-2,-3
1533861583330860,-1,-2,-20,-3,-21,-3,-9,-2
1533861583332871,-2,0,-2,-9,-4,1,-1,-4
1533861583332871,0,-9,16,6,17,4,-3,-1
1533861583344826,-2,-5,-21,-7,-19,-5,0,-1
1533861583344826,1,6,22,10,7,2,4,1
1533861583351807,-2,-4,-18,-10,-13,-6,-4,-2
1533861583351807,-2,1,-1,9,34,6,0,-2
1533861583368762,-4,-3,2,-10,-23,-7,-4,-3
1533861583368762,-1,-1,12,-6,-4,-2,0,-1
1533861583369756,0,2,5,-6,-19,-5,0,1
1533861583369756,-2,1,10,9,5,3,2,-2
1533861583390703,-6,-7,-33,-6,6,-2,-7,-3
1533861583390703,-1,0,5,2,0,-1,-1,0
1533861583392695,-1,-1,-19,-13,-35,-9,-3,-3
1533861583392695,-1,0,1,4,10,5,1,0
1533861583404662,1,1,22,8,13,2,-2,-2
1533861583404662,-3,-2,-7,-2,-2,-2,-3,-2
1533861583411651,-1,-3,-6,-3,-1,0,2,1
1533861583411651,-1,0,2,3,4,-2,-1,-3
1533861583428598,-1,-2,-5,-3,-4,-3,-2,-1
1533861583428598,0,0,14,3,-3,0,3,0
1533861583430594,-2,-3,2,6,3,0,-2,-2
1533861583430594,-1,0,-7,-7,0,3,0,-1
1533861583450539,-2,-4,6,2,-2,-1,-2,-2
1533861583450539,-1,-1,-1,2,-2,-1,-4,-3
1533861583452535,-1,-4,-13,0,2,0,4,0
1533861583452535,1,-1,-4,-2,-9,-1,-4,0
1533861583473478,3,3,29,11,16,4,4,2
1533861583473478,-2,-5,-28,-4,16,3,1,-1
1533861583474478,1,1,-10,-11,-28,-5,-4,-2
1533861583474478,-2,-3,-11,-8,-13,-4,-1,-4
1533861583488458,0,2,10,0,-5,2,1,3
1533861583488458,-2,0,-3,-12,-4,1,0,1
1533861583489437,0,-1,1,6,27,2,1,0
1533861583489437,-2,-3,-4,-8,-10,-6,-1,-4
1533861583511377,-2,-4,-2,-4,-5,0,-2,-4
1533861583511377,-1,1,7,1,-5,-5,0,1
1533861583512375,-2,-2,-8,0,-4,-2,-5,0
1533861583512375,0,-2,9,4,4,-2,0,0
1533861583525343,2,2,-13,2,2,1,3,0
1533861583525343,-2,-3,-12,-4,-6,-4,-3,-1
1533861583532342,-2,0,3,2,-2,1,1,-2
1533861583532342,-1,-1,-2,-1,6,0,-3,-1
1533861583548278,-2,-2,1,-5,-5,-3,-1,-2
1533861583548278,1,-1,-6,-7,-6,0,-4,-2
1533861583550277,0,1,4,-7,0,-2,-3,-1
1533861583550277,1,3,7,-2,3,0,13,4
1533861583570223,0,-2,-18,-2,-5,-2,-5,-15
1533861583570223,-8,-7,2,8,-1,-1,-6,-18
1533861583572217,-4,-3,-2,0,-1,0,-9,13
1533861583572217,9,1,-11,-3,2,-2,0,5
1533861583584182,-6,4,-1,-3,-2,-3,0,0
1533861583584182,-1,0,-2,1,2,0,-9,-2
1533861583593162,2,-1,10,-1,-3,-3,-5,5
1533861583593162,-8,-6,-4,-1,-1,-2,0,-6
1533861583608118,9,2,8,0,1,1,8,15
1533861583608118,-2,-4,-5,-4,-7,-2,12,-9
1533861583610113,8,13,11,8,2,-1,-15,0
1533861583610113,-16,-3,-8,-1,1,3,-10,1
1533861583631060,4,-4,1,-9,-9,-4,8,3
1533861583631060,-5,-1,-6,-5,-3,-2,-4,4
1533861583632055,4,-4,10,1,-1,2,14,-3
1533861583632055,3,1,1,-1,0,-1,1,-5
1533861583644061,-6,-3,-12,-5,2,-1,-11,-3
1533861583644061,2,-1,6,4,-2,-1,-1,5
1533861583653048,0,-1,-14,3,0,0,4,-10
1533861583653048,-1,-3,4,1,-5,-8,-12,-5
1533861583667959,-4,-3,0,-5,-12,1,-3,0
1533861583667959,3,-1,-21,-8,3,-7,1,6
1533861583669954,-7,-7,-25,-4,-3,-1,-3,-5
1533861583669954,-1,2,-6,-1,10,1,2,3
1533861583690901,0,-4,12,-5,-7,-5,-6,-6
1533861583690901,2,4,20,3,-1,-1,3,0
1533861583691895,-2,1,13,6,17,5,3,0
1533861583691895,-3,-7,-30,-12,-3,-3,-3,-6
1533861583703866,-4,-2,-4,-9,-7,-4,2,-1
1533861583703866,2,2,20,11,-6,1,-5,1
1533861583712852,-9,-8,-9,-20,-6,-9,2,-7
1533861583712852,0,-3,2,0,-6,-3,-2,0
1533861583727810,2,4,16,6,10,5,0,3
1533861583727810,-2,-2,-2,-3,-6,1,-1,2
1533861583729794,-3,-1,1,1,-1,-2,-4,0
1533861583729794,5,7,13,4,14,6,2,5
1533861583750740,0,-1,5,3,-6,-3,-4,-1
1533861583750740,-10,-5,-25,-8,-5,-5,-5,-12
1533861583752732,-1,-5,-3,2,-9,-1,4,-6
1533861583752732,0,-3,0,-6,-14,3,2,-1
1533861583764704,0,0,-6,0,19,3,-5,6
1533861583764704,3,0,-1,3,4,0,-3,0
1533861583773683,-4,-3,-13,-10,-10,-4,0,-1
1533861583773683,-5,-1,-1,0,-9,-2,2,-4
1533861583788636,-1,1,10,6,-6,-4,2,-5
1533861583788636,0,-1,0,8,30,3,-10,0
1533861583789634,3,2,-1,-1,11,6,6,6
1533861583789634,-3,-6,-25,-4,-26,-8,-5,-4
1533861583810578,-3,-4,2,-5,-17,-10,-4,-3
1533861583810578,0,4,-3,-13,15,11,5,2
1533861583812572,-3,-1,-8,4,0,-2,-11,0
1533861583812572,1,5,11,11,-12,-5,-3,0
1533861583824554,0,-2,-7,-5,44,0,4,-3
1533861583824554,-1,-5,-35,-10,-60,-6,0,-2
1533861583833516,-4,-10,-14,-11,7,-4,-6,-6
1533861583833516,-2,-3,-8,-6,-3,3,2,-2
1533861583848479,-1,2,4,12,4,2,-3,-2
1533861583848479,4,4,20,1,7,1,6,4
1533861583849473,-2,-1,-23,4,-1,2,3,-1
1533861583849473,-1,0,8,5,3,-1,-3,-2
1533861583870459,-1,-3,-12,-3,-9,1,2,-1
1533861583870459,-2,-3,-13,-12,6,-3,-1,1
1533861583872413,0,3,-10,-6,-35,-8,-1,-3
1533861583872413,0,-3,10,-3,18,4,2,-2
1533861583884380,0,1,5,8,4,5,1,1
1533861583884380,-2,-4,-16,-11,-8,-7,-1,0
1533861583893355,0,-2,7,-2,-21,-3,-1,-3
1533861583893355,2,1,9,4,16,-2,2,4
1533861583908319,-5,-6,-21,-6,2,4,-6,-4
1533861583908319,-6,-4,-9,-5,-22,-8,-7,-4
1533861583909312,0,2,6,7,10,1,3,0
1533861583909312,2,4,5,7,3,2,4,2
1533861583931258,-3,-7,2,4,19,-1,-2,-3
1533861583931258,-1,-1,-12,-5,-16,-1,0,-2
1533861583932252,2,3,-6,-4,0,2,1,3
1533861583932252,-3,-6,8,-7,-5,-1,-2,-4
1533861583944286,-3,0,16,12,-7,-3,-2,-2
1533861583944286,-1,-5,-16,-7,8,-1,1,-2
1533861583953200,-2,2,7,3,4,0,1,0
1533861583953200,-1,0,-9,0,2,-3,-3,-1
1533861583968156,-2,0,-6,-4,-26,-2,-4,-3
1533861583968156,0,0,4,2,28,0,-1,0
1533861583970150,-1,-3,2,2,-16,-3,0,0
1533861583970150,-3,-2,-7,-3,6,-1,-1,2
1533861583991098,-1,-1,-4,1,-8,-1,1,0
1533861583991098,-2,-2,7,5,25,1,-3,-2
1533861583992091,1,-1,-14,-17,-26,1,0,-1
1533861583992091,0,-1,6,-2,-14,-2,0,1
1533861584004060,-3,-3,-22,-13,-11,-1,0,0
1533861584004060,-1,-2,9,12,-12,-3,-1,-1
1533861584013036,-2,-1,7,11,42,2,-1,0
1533861584013036,-2,-1,-7,-3,-12,-1,-6,-3
1533861584028045,0,-1,-7,-3,-12,-3,0,-1
1533861584028045,-1,-3,-6,2,-1,2,0,0
1533861584029991,1,-4,-10,0,3,-2,-4,-3
1533861584029991,-1,1,-1,6,3,1,1,0
1533861584050934,1,1,5,-1,16,0,-1,0
1533861584050934,-1,-1,-15,-8,-12,2,1,0
1533861584051932,-3,0,2,2,1,-1,-1,-2
1533861584051932,-2,0,13,-6,2,2,-2,0
1533861584072876,-1,-1,5,-5,-12,-1,0,0
1533861584072876,1,1,8,1,3,-1,1,0
1533861584074870,-1,-2,4,1,7,-5,-3,-1
1533861584074870,0,1,2,-5,-16,-11,-4,-2
1533861584087836,-3,-4,-25,-2,-10,-1,0,-2
1533861584087836,2,3,10,11,12,7,-2,6
1533861584089836,-2,-1,-12,-6,0,-3,1,0
1533861584089836,-2,-3,-6,3,10,5,3,0
1533861584110777,-4,-1,-5,-6,-2,-5,1,-1
1533861584110777,-1,-1,5,2,-8,-8,-3,-5
1533861584112773,2,0,3,9,5,3,-3,1
1533861584112773,-1,-1,-22,-7,-1,1,-2,2
1533861584133716,0,1,13,0,-4,-1,-1,1
1533861584133716,-3,-2,8,0,-4,-5,4,-12
1533861584134726,-1,-3,-1,0,2,2,-8,19
1533861584134726,-3,0,-21,0,3,3,-2,-17
1533861584148676,-1,0,7,-2,3,-2,-14,4
1533861584148676,0,0,-13,-14,-5,-3,4,3
1533861584149671,-3,0,0,-3,-3,-2,0,-8
1533861584149671,-2,-1,4,-2,2,2,0,0
1533861584170614,2,0,14,8,2,2,0,0
1533861584170614,-3,-6,-46,-24,-12,-7,-7,-6
1533861584172610,-1,-3,-10,-2,-5,-2,-2,-9
1533861584172610,3,-1,11,1,3,2,-1,8
1533861584193553,-1,-3,-8,2,2,-2,-2,-10
1533861584193553,2,0,29,7,0,2,1,6
1533861584194551,0,-1,13,-8,-5,-2,1,-3
1533861584194551,-2,-4,-20,-3,-6,-7,-4,-2
1533861584208564,3,3,7,-4,-2,-4,12,14
1533861584208564,1,2,7,7,9,4,-4,-6
1533861584209511,-9,-4,-17,-7,-9,-4,-8,-10
1533861584209511,-1,1,-2,-1,2,-3,-3,-5
1533861584230454,1,-2,-1,0,2,0,0,0
1533861584230454,0,-2,-8,-12,-20,-3,-2,0
1533861584232449,4,1,-6,5,0,-2,4,3
1533861584232449,-4,-4,1,-1,-1,-1,-3,-6
1533861584253393,1,4,-1,-10,-4,-1,2,2
1533861584253393,-1,-3,-14,5,1,4,0,1
1533861584254389,-9,-2,-1,-2,-4,-3,-1,-10
1533861584254389,2,-2,-3,-5,0,-1,1,5
1533861584267359,0,-3,-15,3,2,-1,1,0
1533861584267359,-3,-3,-7,1,-7,2,-7,-3
1533861584282392,0,-1,-19,-6,10,0,2,1
1533861584282392,1,4,18,-3,-7,-2,4,3
1533861584290302,-3,-5,-3,5,5,0,-5,-5
1533861584290302,-2,1,9,3,-5,-5,1,1
1533861584292296,-1,-2,6,4,2,2,1,-2
1533861584292296,-2,0,1,8,7,0,-2,-1
1533861584320228,-1,-1,3,-4,-7,-4,-4,-4
1533861584320228,6,2,1,3,2,2,4,9
1533861584322208,-3,0,-17,-17,-5,-2,1,1
1533861584322208,-3,-1,-8,1,0,-1,1,-2
1533861584328201,-5,0,-11,-1,-9,-1,1,-7
1533861584328201,-5,-2,-1,6,0,0,-8,-10
1533861584334345,3,-1,-16,-2,16,-3,-5,0
1533861584334345,0,2,-6,-3,-9,8,5,4
1533861584351134,-2,-4,-3,-3,-8,-4,-2,3
1533861584351134,-9,-4,-13,-11,-3,-1,0,-3
1533861584352145,1,0,4,4,-13,1,2,1
1533861584352145,2,-4,-3,-3,14,-2,-2,1
1533861584373074,0,1,-1,3,-2,0,-2,-4
1533861584373074,0,-1,0,-2,1,-6,-1,-1
1533861584375068,0,-1,8,2,-6,1,1,0
1533861584375068,-1,-4,-16,-5,-5,-5,-3,-1
1533861584388033,-4,-3,-9,-1,1,2,0,-4
1533861584388033,-3,-2,-10,-5,-1,-4,-4,-5
1533861584394020,0,0,6,3,5,1,-3,-1
1533861584394020,0,0,17,10,-4,-1,-2,-2
1533861584410975,1,-3,-4,-1,5,0,5,1
1533861584410975,-1,-1,6,6,3,1,1,-1
1533861584411981,-1,-1,-1,-1,-16,-4,-3,4
1533861584411981,-2,-2,1,-5,15,1,0,-5
1533861584432916,0,-1,-13,-14,-20,-1,2,3
1533861584432916,-2,-2,6,-2,1,1,-9,5
1533861584434908,-2,-1,3,-1,10,7,6,0
1533861584434908,3,4,13,-4,-11,-4,-1,0
1533861584447876,-3,-2,1,-4,1,0,-3,-1
1533861584447876,3,-1,0,-6,-2,-4,-5,0
1533861584453856,-8,-4,-1,-3,-3,-3,-12,-4
1533861584453856,4,-3,-14,-9,-3,-1,5,0
1533861584470811,-5,-1,7,4,9,-1,-5,-9
1533861584470811,1,-3,7,3,-1,-3,4,5
1533861584471819,0,0,8,6,3,0,1,3
1533861584471819,-3,1,13,-3,-3,0,-1,-1
1533861584493750,2,1,12,-4,-1,-3,-2,6
1533861584493750,-1,-1,10,2,1,2,4,-7
1533861584494747,-1,-2,0,-10,-3,-3,0,-3
1533861584494747,-1,-1,-2,-1,-2,1,-3,-1
1533861584507713,-3,-1,-5,-2,3,-1,-1,-2
1533861584507713,-2,0,-12,-10,-23,-8,-6,-3
1533861584514697,3,-2,4,0,21,-1,5,-1
1533861584514697,-3,-2,-6,4,-7,-2,2,-5
1533861584530657,1,-2,-3,-2,2,1,-7,-2
1533861584530657,-1,0,-10,-8,-2,-2,9,-3
1533861584532646,3,-1,-10,5,7,-1,-4,5
1533861584532646,-4,-3,-6,-1,-3,-3,-4,-9
1533861584553591,-3,2,7,12,6,6,1,-2
1533861584553591,0,-2,-6,-1,-7,-4,-7,-1
1533861584554588,-1,-3,1,3,-7,-2,3,-3
1533861584554588,-5,-4,-13,-5,5,-3,-6,-3
1533861584566558,5,4,12,3,-6,-2,-3,2
1533861584566558,4,0,-1,2,12,5,8,4
1533861584575536,-3,-1,-5,-1,-6,-2,-6,-9
1533861584575536,-1,-3,-16,-5,-1,0,1,4
1533861584590494,-4,-3,-4,-1,-4,-3,-3,-6
1533861584590494,1,0,2,3,7,1,0,4
1533861584592496,1,3,4,1,-1,0,2,1
1533861584592496,-2,0,14,5,-9,-4,1,0
1533861584613648,-2,-5,-12,-14,1,-3,-2,-5
1533861584613648,-4,4,9,10,12,4,3,-1
1533861584614428,-2,-3,-4,0,-12,-3,1,-6
1533861584614428,-1,-1,1,5,3,2,-5,-1
1533861584626398,1,1,9,1,1,-1,0,4
1533861584626398,-5,-4,6,-2,6,0,-3,-5
1533861584635374,0,-1,-4,-7,-9,-4,-3,0
1533861584635374,3,-1,-4,-3,1,0,0,1
1533861584650334,-2,-4,0,0,-3,-5,1,-5
1533861584650334,-1,-1,-14,-6,6,3,-1,-1
1533861584652336,-3,-4,-15,-7,1,1,0,-1
1533861584652336,0,0,-3,2,-1,-1,-2,-1
1533861584673269,-2,0,-13,-9,-7,-2,-3,0
1533861584673269,1,2,-1,6,-3,-1,-3,0
1533861584675264,0,-1,-13,-4,1,0,-4,-1
1533861584675264,-4,-2,3,-1,1,-2,-1,2
1533861584687238,-3,-1,-4,-3,0,-3,-1,-7
1533861584687238,1,0,-2,0,-5,2,5,3
1533861584696217,1,1,3,5,-4,0,-6,2
1533861584696217,-2,-1,-1,-2,-3,-2,1,2
1533861584711169,1,-1,-6,-2,14,2,0,-1
1533861584711169,-2,-3,-17,-5,4,-7,-2,-5
1533861584712171,-2,-3,-20,0,-13,-6,0,-3
1533861584712171,-3,-1,-19,-11,-12,-4,-6,-3
1533861584733113,-3,-4,-4,-2,-7,-4,0,-2
1533861584733113,-5,-3,-6,2,2,0,-2,0
1533861584735105,1,1,-15,4,16,3,1,1
1533861584735105,-3,0,9,5,1,-1,-1,-1
1533861584747073,-2,-1,1,-3,-21,-4,1,0
1533861584747073,-2,-2,-1,4,-3,-2,-3,-3
1533861584756048,-1,1,7,4,0,-1,0,-1
1533861584756048,0,-1,2,-1,11,0,-1,-2
1533861584771009,0,-1,-5,7,9,4,3,0
1533861584771009,2,3,14,5,-2,1,0,2
1533861584773004,1,0,-12,-7,1,-1,2,0
1533861584773004,0,-1,-6,0,-1,-1,-2,-3
1533861584792953,-1,-2,-1,-9,0,0,3,-3
1533861584792953,-1,-3,-18,-9,-6,-3,-2,-3
1533861584794945,-2,-1,3,7,2,1,4,1
1533861584794945,-3,-5,-7,-8,-7,-5,-12,-3
1533861584806916,0,0,11,1,-1,-4,1,3
1533861584806916,-2,-5,-2,0,-1,-3,-2,-6
1533861584815888,0,-2,4,-8,-5,2,1,2
1533861584815888,-1,-2,-12,-5,-3,-6,-3,-1
1533861584830867,0,-1,11,4,-2,-3,-3,0
1533861584830867,-1,0,6,-4,-9,-6,-6,-3
1533861584831850,-1,0,-6,-2,6,6,6,5
1533861584831850,0,2,16,6,-2,-2,1,0
1533861584860772,-3,-4,-6,-4,1,0,-3,-4
1533861584860772,1,1,-3,3,1,-2,0,1
1533861584862767,-1,-5,16,2,-6,-4,-3,-7
1533861584862767,-1,0,5,-3,1,2,-1,1
1533861584866755,2,1,14,9,5,4,-1,1
1533861584866755,-1,-2,-3,0,-3,-2,-4,0
1533861584875738,-4,-1,-11,-10,-8,-5,-6,-5
1533861584875738,-2,-4,-16,-2,0,2,0,4
1533861584890688,-1,-4,1,-4,-3,-4,1,-1
1533861584890688,-2,0,2,0,4,4,3,-2
1533861584892683,2,0,9,3,1,1,-6,3
1533861584892683,-1,-2,2,-7,-2,1,3,-3
1533861584913630,-1,-1,-5,0,-2,1,0,-1
1533861584913630,2,0,-6,0,0,-3,1,1
1533861584914624,-5,-4,-14,-3,-1,-4,-4,-7
1533861584914624,0,-1,6,2,-1,1,-2,-4
1533861584926596,-1,-3,4,-2,-1,1,2,2
1533861584926596,0,3,1,5,0,1,-2,4
1533861584935570,-3,-1,1,-2,0,-1,-5,-5
1533861584935570,0,-1,-2,0,3,1,1,1
1533861584950698,-2,-2,-17,-5,-4,0,-1,-3
1533861584950698,-1,-2,-2,-4,-1,0,0,0
1533861584952538,-3,-3,-4,0,-5,-6,-2,-9
1533861584952538,1,2,6,5,2,3,-1,3
1533861584974464,1,2,-11,-4,4,5,9,-1
1533861584974464,-3,-3,-6,-5,-4,-3,-7,-6
1533861584975467,1,2,3,1,-1,0,7,-10
1533861584975467,-1,0,6,3,-1,-1,4,-4
1533861584995408,-3,0,0,2,-1,-4,-9,-4
1533861584995408,-3,-4,-9,-9,-5,-3,-2,2
1533861584997403,-1,-4,10,-2,-1,-2,-2,0
1533861584997403,-3,-4,-14,-2,-3,-4,-2,-5
1533861585010380,-1,-3,1,-2,-1,-2,-1,-1
1533861585010380,0,0,3,-1,2,1,2,0
1533861585012363,3,3,-5,1,-1,2,1,8
1533861585012363,-2,-1,-7,0,-1,-3,-5,1
1533861585033310,-1,2,-3,-2,0,2,-7,1
1533861585033310,-4,-1,-15,-3,-2,-4,-1,-3
1533861585035301,1,0,-8,0,0,-3,-4,4
1533861585035301,-7,-2,-7,-1,2,2,3,-4
1533861585055248,-2,1,-2,-4,1,-3,2,-5
1533861585055248,2,0,11,1,0,-1,-2,-1
1533861585057243,0,0,2,0,1,-2,4,-4
1533861585057243,0,0,0,0,-4,-4,-5,-1
1533861585070211,-5,-2,-14,-7,0,-4,-5,-4
1533861585070211,-3,-3,-5,-4,-2,-1,-1,-2
1533861585072209,0,-1,-10,3,-2,-2,-2,-1
1533861585072209,0,-1,-10,-6,-4,1,3,0
1533861585093147,-1,-2,6,1,-2,0,-1,-3
1533861585093147,2,2,1,9,5,3,1,4
1533861585095143,-5,-3,-17,1,-2,-3,-3,-3
1533861585095143,0,-1,0,-1,-1,-3,0,-2
1533861585116085,-1,-2,-5,-1,-2,-1,-5,1
1533861585116085,1,-1,7,2,1,3,14,-1
1533861585117083,-4,-1,-6,-2,-1,-2,-6,-6
1533861585117083,-4,0,-4,-3,-1,-1,4,-9
1533861585138026,3,1,2,4,-3,-1,1,6
1533861585138026,0,-2,-5,0,-2,-4,-3,-2
1533861585140022,-2,0,1,-2,-1,-1,-1,5
1533861585140022,3,1,-2,-10,2,2,-7,7
1533861585152986,-4,-3,-3,-2,0,0,11,-5
1533861585152986,-2,-1,-4,1,-2,-3,-5,-3
1533861585154982,1,0,-5,-1,-2,-1,4,3
1533861585154982,2,-2,5,5,4,-2,-1,-1
1533861585175929,-3,0,4,0,-2,-4,-7,-3
1533861585175929,-1,-2,-9,-6,0,2,1,0
1533861585176922,-1,-2,-5,2,-4,-1,-4,2
1533861585176922,0,0,-5,-5,-3,0,1,1
1533861585189893,1,-1,-2,3,-1,-1,0,-3
1533861585189893,-6,-3,13,-2,-2,-3,-5,-6
1533861585196869,1,1,0,-3,2,3,0,1
1533861585196869,-4,-2,-3,0,-3,-3,-5,-8
1533861585212827,-1,-4,7,1,-1,1,-2,-1
1533861585212827,-2,-3,-2,-1,-2,-3,-4,-2
1533861585214822,-1,0,4,-2,-1,-2,4,-4
1533861585214822,-1,0,4,2,-2,-1,1,-5
1533861585235765,1,3,19,4,3,-2,-5,6
1533861585235765,0,-1,-14,-9,0,3,2,0
1533861585236763,-5,-7,-13,-19,-10,-7,-12,4
1533861585236763,-5,-4,-7,-5,-4,0,3,-6
1533861585249765,-1,-1,-4,-1,0,-3,-2,1
1533861585249765,1,1,1,0,0,0,-6,3
1533861585256730,1,0,11,7,0,-2,-1,-4
1533861585256730,-1,0,2,-1,-2,-2,-1,3
1533861585273696,3,1,-3,-3,-3,4,3,4
1533861585273696,-4,-2,-1,-3,-2,-1,0,-4
1533861585274662,0,-1,2,0,-1,2,3,-1
1533861585274662,2,-2,-1,0,0,-3,-2,0
1533861585295605,-2,-1,-1,0,1,-1,-2,-3
1533861585295605,1,2,12,10,0,-2,-2,-2
1533861585297600,0,0,2,-4,-1,-2,2,-4
1533861585297600,0,-2,-13,0,0,0,1,2
1533861585310565,-2,-2,-3,-5,-3,-3,-6,-3
1533861585310565,0,1,-2,2,2,2,0,4
1533861585316552,-2,-1,-2,1,2,-1,0,-2
1533861585316552,6,1,7,3,-1,1,1,5
1533861585333507,-10,-6,-17,-6,-1,-1,-6,-5
1533861585333507,-1,-2,-1,0,-1,0,0,-1
1533861585334502,-2,0,10,11,-2,-1,0,-2
1533861585334502,0,1,-2,-1,1,-3,0,3
1533861585355446,0,1,-3,-2,-2,-2,-5,-6
1533861585355446,0,-2,-21,-1,-3,-3,5,-1
1533861585357440,-2,-1,-6,-3,-2,0,-2,5
1533861585357440,-2,-1,-1,1,-1,0,-2,-1
1533861585370405,-1,-1,9,1,1,-2,-1,-1
1533861585370405,0,-2,-7,-2,-2,0,-3,-4
1533861585376455,0,0,4,-4,1,1,1,-3
1533861585376455,-3,-4,4,4,-1,-2,-3,-3
1533861585393396,-2,-1,2,2,-1,-1,1,0
1533861585393396,-3,-2,-2,-2,-1,-2,-2,-1
1533861585394390,-1,-4,-3,2,0,-3,2,1
1533861585394390,-1,-3,-7,-4,-2,-1,-3,-2
1533861585415334,2,-1,10,-1,-3,-1,3,0
1533861585415334,-2,-3,-7,0,4,0,-6,0
1533861585417328,0,0,-6,0,-3,4,6,-1
1533861585417328,-2,-1,-6,-5,0,-5,-5,0
1533861585430297,2,-2,-6,-5,-3,1,-1,0
1533861585430297,-3,1,4,-3,-3,-4,-4,-4
1533861585437276,-3,-3,-3,-5,-2,-4,-4,-1
1533861585437276,-1,-1,-5,-5,-3,-2,3,-1
1533861585453400,-3,0,6,0,0,-4,2,-2
1533861585453400,-1,-1,5,-6,0,-1,-2,-1
1533861585455229,2,4,2,3,0,2,-7,3
1533861585455229,-5,-1,-1,4,-3,0,4,0
1533861585476174,-1,-1,-28,-9,0,-1,-4,5
1533861585476174,0,2,19,-1,0,0,0,-2
1533861585477181,-3,-3,-19,-9,-5,-3,-3,-2
1533861585477181,-2,0,0,0,-1,-4,-5,-2
1533861585490137,-2,1,8,2,3,-6,-6,-9
1533861585490137,0,-2,-17,-4,-1,8,8,8
1533861585497129,1,0,-4,-2,-2,2,6,3
1533861585497129,-6,-2,-2,-5,6,2,1,-3
1533861585513076,0,-3,12,9,-4,-5,-5,-4
1533861585513076,-3,-1,-12,-11,-2,0,-1,-6
1533861585515067,-1,1,-5,0,1,3,1,-2
1533861585515067,1,-1,0,0,-4,-1,1,1
1533861585536014,-4,-1,-1,-5,-1,-3,-1,0
1533861585536014,-3,-1,0,1,-3,-5,-6,-1
1533861585537008,-2,-1,-3,0,-2,-1,0,-4
1533861585537008,1,1,10,-3,1,2,0,1
1533861585548980,2,-2,-4,1,-1,0,2,0
1533861585548980,-2,-2,-12,0,-6,-4,1,-3
1533861585557957,-5,-3,-10,-4,1,-5,-2,-6
1533861585557957,0,0,13,2,-6,-3,-3,-3
1533861585572916,0,-1,7,-3,-3,1,-1,1
1533861585572916,-2,-2,1,0,-3,-3,-2,1
1533861585574911,0,0,6,0,0,0,-2,-3
1533861585574911,-2,-4,-19,-13,-3,-3,-7,-5
1533861585595851,0,4,1,3,0,3,4,1
1533861585595851,0,-1,-10,2,1,0,3,1
1533861585597846,-1,-1,0,1,0,-4,-8,-1
1533861585597846,0,-1,4,2,0,3,-1,0
1533861585609816,0,0,6,0,-4,-2,2,-4
1533861585609816,-3,-2,2,-2,-3,-2,-1,-4
1533861585618802,-3,-3,-4,-15,-4,-3,-1,-1
1533861585618802,0,-1,-3,0,-3,-2,1,4
1533861585632772,1,-5,-13,-4,-4,-1,-2,-4
1533861585632772,-3,-2,8,2,2,-2,-1,-2
1533861585634746,0,2,-2,-10,-2,-3,-3,0
1533861585634746,0,-1,5,6,-2,-1,-2,-5
1533861585655691,-2,-1,-3,-2,-5,3,3,1
1533861585655691,0,1,-15,-1,-2,-3,-2,0
1533861585657686,-1,-1,-1,7,1,-1,-4,-3
1533861585657686,0,0,-2,-1,-1,5,5,4
1533861585669657,-2,-1,-3,2,2,0,3,3
1533861585669657,0,-1,-2,-2,-1,0,0,-4
1533861585678630,1,1,3,-1,1,2,1,1
1533861585678630,2,-2,0,2,2,-3,-3,-6
1533861585693593,-3,-2,-12,-6,1,-2,-2,-2
1533861585693593,1,1,5,-7,-1,-3,-2,0
1533861585695584,-5,-1,-7,2,-2,-1,4,-2
1533861585695584,0,0,-9,-3,-1,-1,-5,-2
1533861585715534,0,-1,-2,-5,-1,2,0,-3
1533861585715534,-2,1,6,1,1,-2,-2,0
1533861585717525,0,-3,-9,2,-3,1,-2,1
1533861585717525,-3,-1,8,3,1,-1,-1,-2
1533861585729493,-1,3,0,3,2,8,3,2
1533861585729493,0,-2,-6,1,-4,-3,-1,-2
1533861585738480,-1,-3,2,1,0,-4,-2,-3
1533861585738480,-5,0,-1,-2,-2,-4,-3,-2
1533861585753433,1,-3,-21,-3,0,0,-1,1
1533861585753433,-2,-2,-9,-4,-1,-1,-2,-2
1533861585754440,1,-1,-11,0,-4,0,3,-8
1533861585754440,-3,-5,-8,-5,-2,-2,-4,-6
1533861585776368,-3,1,8,1,0,-4,-4,-3
1533861585776368,-1,-3,-4,-1,3,2,-1,-1
1533861585777365,3,-2,0,2,1,-1,1,6
1533861585777365,5,-1,2,1,1,0,-1,-2
1533861585789341,-3,-1,6,-8,-6,-5,-7,1
1533861585789341,3,1,6,2,-2,0,4,-2
1533861585798326,-3,-1,-7,0,1,0,-2,0
1533861585798326,4,0,-3,-2,-1,3,-1,-1
1533861585813269,-1,-1,10,3,2,-2,-1,1
1533861585813269,-4,-2,-10,-1,-4,-4,-4,-2
1533861585815264,0,-2,-4,-1,-1,0,-3,-2
1533861585815264,-3,0,3,0,-1,-1,1,-1
1533861585836209,-1,0,2,1,-2,-1,1,-1
1533861585836209,-3,-3,-7,-2,0,0,-4,3
1533861585837205,-4,-3,0,2,-3,0,-1,-3
1533861585837205,-1,-1,-8,-2,-2,-3,-1,2
1533861585849177,-3,-3,-4,-1,0,-2,-1,-3
1533861585849177,1,-2,3,-3,-2,-1,1,-3
1533861585858155,0,0,-2,-2,-1,0,-1,1
1533861585858155,-1,-1,3,-1,-1,1,-1,-1
1533861585873109,0,-4,-16,-10,-2,-3,-2,-2
1533861585873109,-1,1,-3,1,-1,-1,-3,-2
1533861585875104,1,1,1,0,2,0,0,0
1533861585875104,-6,-2,-12,-2,-5,-2,-3,-3
1533861585896051,-1,1,5,5,2,-1,-1,-2
1533861585896051,0,0,-11,-1,0,0,-2,-2
1533861585897046,-2,-4,-11,-4,-1,-1,-1,0
1533861585897046,-1,-1,-4,0,1,-1,1,1
1533861585910011,-1,0,-4,-2,0,-1,0,-2
1533861585910011,0,0,-1,-1,-3,-4,-1,-2
1533861585917993,-1,-1,-1,1,-2,-3,-4,-1
1533861585917993,0,0,-11,0,4,-3,-1,0
1533861585932952,-2,-4,-1,-5,-8,-4,-2,-1
1533861585932952,-1,-1,0,-1,-4,-1,0,-3
1533861585934945,0,-1,-1,-1,9,1,-1,-4
1533861585934945,1,2,36,5,-3,0,1,-1
1533861585955888,-4,-6,-14,3,-2,-3,-4,-3
1533861585955888,0,0,-1,5,2,5,1,3
1533861585956885,-4,-4,-20,-14,-6,-1,1,-1
1533861585956885,-1,1,1,2,7,0,-1,0
1533861585977832,1,2,-5,5,1,2,-1,2
1533861585977832,-4,-3,3,-2,-6,-3,-1,-1
1533861585979838,-1,3,5,6,6,-1,-1,-3
1533861585979838,-2,-2,-1,-4,-5,-3,0,1
1533861585993790,0,-2,0,-8,9,3,3,-2
1533861585993790,0,-1,-2,-4,-5,-1,0,0
1533861585994783,-1,-2,-4,1,7,-2,-2,-1
1533861585994783,-2,-3,-10,-2,-9,-3,0,-2
1533861586015731,0,0,8,-3,-4,-1,-2,1
1533861586015731,-1,0,0,4,6,0,-2,-3
1533861586017726,4,5,20,4,-6,0,3,0
1533861586017726,-1,-6,-36,-26,-8,-2,-2,-1
1533861586038672,-1,1,1,-2,-1,-1,-2,-1
1533861586038672,-1,0,-14,2,-2,-5,-1,-1
1533861586039676,0,2,-4,-1,-6,-3,-1,0
1533861586039676,-1,-2,0,0,0,0,-1,-3
1533861586053666,-1,-1,0,1,4,5,6,3
1533861586053666,-1,-1,-5,-5,0,-2,-2,-2
1533861586054671,-2,-2,-3,-3,1,5,-2,-1
1533861586054671,0,-2,0,6,-1,-3,0,-1
1533861586075675,0,0,3,-3,1,-4,-3,-6
1533861586075675,0,-1,-1,1,5,0,0,-1
1533861586077562,0,-1,-5,0,-6,-1,1,-1
1533861586077562,-2,-1,-5,-3,1,-3,-4,-2
1533861586098510,-1,1,4,15,-5,-1,1,-1
1533861586098510,0,-3,-12,-3,3,-2,-7,2
1533861586099504,-2,-2,-5,3,-4,-5,-1,-1
1533861586099504,-1,-1,-5,-2,-1,2,1,2
1533861586112472,-1,0,-15,4,0,-2,-1,-2
1533861586112472,-1,-1,2,-2,-2,-1,-2,-4
1533861586119454,-2,-1,-1,1,3,1,1,2
1533861586119454,-2,-2,-9,-1,-3,-2,-4,-4
1533861586136405,-1,-1,-4,-6,-3,0,-1,-2
1533861586136405,-2,-1,-1,-1,2,3,4,2
1533861586137404,-1,-3,-2,-3,-4,-6,-3,-2
1533861586137404,0,-2,5,1,2,2,5,0
1533861586158369,-1,0,-3,-7,0,-2,-8,-4
1533861586158369,-2,-2,-5,-5,-6,-5,-2,-2
1533861586160342,-1,-2,-3,-3,-2,-2,1,-5
1533861586160342,-3,-1,-2,1,1,-2,1,-2
1533861586172309,0,0,-9,-1,-3,-7,-9,-3
1533861586172309,1,-1,-2,-1,-3,4,4,6
1533861586180294,0,-4,-15,-5,-7,0,-3,0
1533861586180294,-1,-1,-14,-5,3,-4,-4,-1
1533861586195248,-1,0,10,1,-4,3,3,1
1533861586195248,-1,-2,1,-2,4,-1,-2,-3
1533861586196245,-1,0,16,-6,-3,-5,-3,0
1533861586196245,0,0,9,0,-5,0,1,-1
1533861586217190,-2,-3,-6,1,1,-2,1,-2
1533861586217190,0,-1,2,-5,-6,-5,-1,-3
1533861586218191,1,-1,12,6,3,1,-2,1
1533861586218191,-2,-2,-10,4,-5,0,-2,0
1533861586232153,-2,0,0,-2,-3,0,1,2
1533861586232153,-1,0,-1,1,-1,-3,-1,-4
1533861586240128,-1,2,11,-3,0,-2,0,-3
1533861586240128,0,2,13,-3,2,0,0,-6
1533861586255092,-1,-2,-10,4,1,-2,-5,-1
1533861586255092,0,0,-2,1,-1,-2,0,-2
1533861586256086,-4,-3,-4,6,1,-1,-3,-1
1533861586256086,0,-2,-6,-10,-2,0,-2,1
1533861586277032,-2,-2,6,0,-2,1,2,0
1533861586277032,0,-1,1,-2,-23,-4,-4,-2
1533861586278067,2,-2,-14,-5,20,4,-4,3
1533861586278067,-2,2,0,6,12,3,-1,1
1533861586291992,-1,1,1,-1,-9,-5,-1,-3
1533861586291992,-2,-3,-9,-6,6,-5,-1,-1
1533861586299968,-2,0,-16,-2,-14,-2,2,-1
1533861586299968,-1,0,8,1,-5,-2,-2,0
1533861586314927,0,-1,-5,-7,-1,-1,-3,-1
1533861586314927,-2,-1,0,2,4,4,0,0
1533861586315924,-2,-1,9,-7,-3,-3,-5,-5
1533861586315924,-1,-1,3,0,2,-1,-4,1
1533861586337869,-2,-2,-4,0,-4,-1,-1,-2
1533861586337869,-2,-1,-6,-3,3,2,0,0
1533861586337869,0,0,9,-1,0,-2,1,1
1533861586337869,-1,-3,1,0,-8,-2,0,-3
1533861586351829,-1,-3,-7,-8,-12,-6,0,-1
1533861586351829,0,0,9,6,19,3,-3,2
1533861586359811,0,0,8,-2,0,5,3,0
1533861586359811,-2,-1,0,4,-2,-2,0,-1
1533861586374768,-1,2,11,8,-3,-3,-2,-1
1533861586374768,0,-2,3,-5,3,1,5,-3
1533861586375765,2,2,13,-1,-2,-2,1,3
1533861586375765,-1,0,-9,-2,0,0,-6,-2
1533861586397709,-1,-3,-8,-3,-1,-1,-1,0
1533861586397709,-3,-2,-1,-1,-15,-6,-5,-3
1533861586398704,-3,-3,-2,-9,5,-6,-4,-5
1533861586398704,-1,-2,-2,0,-1,-1,1,-3
1533861586411899,0,-1,-17,-4,5,2,0,-1
1533861586411899,-1,0,5,-1,-5,2,2,0
1533861586419651,-4,-2,-10,0,-6,-3,-3,-3
1533861586419651,-2,-1,-6,-2,8,-1,-3,-3
1533861586434801,-2,-2,-7,-4,-3,0,0,0
1533861586434801,-2,-1,-9,-7,-5,-3,-2,-4
1533861586435817,-1,-3,-12,-4,-8,2,-1,1
1533861586435817,1,3,1,-12,3,-1,1,1
1533861586457829,0,-2,-12,2,3,2,1,-2
1533861586457829,-1,-1,-4,2,1,-2,-7,0
1533861586458739,-1,0,0,3,-7,-3,-2,-2
1533861586458739,-3,-4,-5,1,-2,1,2,0
1533861586471703,0,-1,-9,-3,-2,-5,-2,0
1533861586471703,-2,-1,5,-1,10,-1,0,-1
1533861586479681,-1,0,-16,2,1,0,-1,-1
1533861586479681,2,1,-9,1,-1,-3,-2,0
1533861586494646,0,-2,2,-7,0,0,0,-1
1533861586494646,0,-2,0,0,-4,-1,-2,-1
1533861586495638,-1,-2,-12,0,5,1,1,0
1533861586495638,-3,-6,-12,-4,-11,-3,-2,-2
1533861586525562,-1,0,-6,-3,-5,-2,-2,-1
1533861586525562,0,1,-2,0,-4,-3,-3,-2
1533861586526556,-2,-4,-8,1,8,0,0,-2
1533861586526556,-1,-1,0,1,-28,-3,0,-3
1533861586531547,0,-1,-2,-4,25,2,-1,-2
1533861586531547,0,-2,-3,-5,-3,0,-1,0
1533861586540523,-2,0,10,8,-36,-11,-4,-4
1533861586540523,2,1,-1,2,29,0,1,2
1533861586555478,-8,-1,4,-1,-9,-1,-6,0
1533861586555478,-1,0,-1,-4,0,6,0,2
1533861586555478,3,-2,1,0,0,2,2,1
1533861586555478,0,-1,-4,-1,-10,-5,-1,-2
1533861586577470,-2,-1,-4,1,0,-4,-2,-1
1533861586577470,-1,-2,-6,1,1,-5,-3,-4
1533861586578418,-3,-1,16,-5,-3,1,0,-3
1533861586578418,0,-2,-1,2,-2,-2,-2,0
1533861586592532,0,-1,-3,-4,5,-1,0,-1
1533861586592532,-3,0,-2,9,-8,1,-2,-1
1533861586600480,-1,0,0,2,4,0,-3,-3
1533861586600480,-5,-4,-8,-2,4,-2,0,-2
1533861586615363,0,-2,2,3,-3,2,2,-1
1533861586615363,-6,-2,4,-4,-17,-4,3,-3
1533861586616316,3,1,6,-1,16,-1,0,4
1533861586616316,0,0,1,1,-1,0,-4,-3
1533861586637261,0,0,3,-2,-11,3,3,1
1533861586637261,1,-2,6,6,11,-3,-2,1
1533861586638258,-4,-6,-6,-5,-7,-6,-3,-5
1533861586638258,-1,-1,9,1,-4,-1,0,0
1533861586652223,3,-2,-5,-1,-2,3,4,0
1533861586652223,2,1,12,8,8,-1,0,-1
1533861586660202,0,0,-1,1,1,3,-3,1
1533861586660202,-1,2,5,5,4,3,0,0
1533861586675162,-3,0,4,3,-14,-3,-6,-4
1533861586675162,-4,-2,0,-2,16,-2,-4,-2
1533861586676163,-1,0,-27,-7,-3,-3,-1,-2
1533861586676163,-2,-3,-3,-3,2,-3,0,0
1533861586697100,-2,0,16,4,0,-1,-2,0
1533861586697100,2,-1,-9,-20,-9,0,2,-1
1533861586698098,0,-2,2,5,-1,1,0,0
1533861586698098,-3,-1,7,0,-5,0,1,-1
1533861586712080,-2,-2,-15,-10,5,-9,-3,-2
1533861586712080,-2,-4,-11,-9,-1,-2,-1,-1
1533861586720038,-5,-1,0,2,-16,-5,0,0
1533861586720038,1,-1,-6,-13,0,2,-2,1
1533861586735002,1,0,1,3,9,0,-1,-4
1533861586735002,1,-2,-1,5,-8,-1,1,0
1533861586735996,-2,0,-2,0,6,2,1,-1
1533861586735996,-5,-1,5,3,-6,-4,-3,-2
1533861586757941,2,0,3,5,0,0,-4,0
1533861586757941,0,-1,-18,-1,0,-2,-5,-6
1533861586757941,-1,0,12,-1,-3,1,0,-2
1533861586757941,-1,-1,5,1,-2,1,0,-1
1533861586772012,1,1,-2,-3,6,2,5,1
1533861586772012,-2,0,9,9,-1,-1,-1,2
1533861586779970,1,-1,-6,-3,-2,-1,-2,1
1533861586779970,1,-1,-4,1,1,-3,-6,-2
1533861586794920,-4,-2,-6,0,-2,0,2,1
1533861586794920,0,-1,-4,-5,-9,-3,0,1
1533861586802899,-2,-3,-7,3,0,-10,-5,-6
1533861586802899,2,0,7,2,9,7,10,5
1533861586817859,0,-2,-1,3,-4,-1,-6,-1
1533861586817859,1,2,-1,-3,-4,-1,1,0
1533861586817859,-4,-4,-4,0,-1,-2,-5,-3
1533861586817859,-1,-1,-5,-4,-1,-1,-2,-4
1533861586831822,-3,-4,-9,-4,1,0,-4,-3
1533861586831822,2,0,12,9,3,2,-1,1
1533861586839801,1,0,-10,-6,-2,2,-2,-2
1533861586839801,-1,-3,-17,-7,-10,-5,-3,-1
1533861586854757,5,0,-22,-1,-1,-1,4,3
1533861586854757,-6,-1,1,1,0,-3,-3,-2
1533861586855754,2,2,-6,-2,2,-1,3,2
1533861586855754,13,0,-3,-8,-1,0,-1,-1
1533861586877699,-5,-1,-15,-6,-5,-4,-3,-5
1533861586877699,-2,-1,0,-5,-4,1,0,-1
1533861586878693,1,1,4,-1,5,4,4,3
1533861586878693,-6,-2,-4,0,-1,0,-6,-1
1533861586891661,-5,-3,-1,0,1,0,-2,-2
1533861586891661,2,0,-2,-2,-2,0,0,-1
1533861586899640,-8,-2,-4,-4,-3,-5,-2,-6
1533861586899640,0,4,3,6,0,-1,0,2
1533861586914597,2,0,-19,-1,2,-2,2,2
1533861586914597,-5,-3,-16,-4,-1,-2,0,0
1533861586915609,-6,-2,11,1,0,-1,0,-3
1533861586915609,-4,-4,-23,-7,-11,-3,0,-3
1533861586937536,2,-1,0,1,0,-1,-1,0
1533861586937536,-1,-1,-6,-2,3,-1,0,-2
1533861586938533,-2,0,-2,2,1,-4,-6,-4
1533861586938533,-1,-1,0,2,-2,-1,3,-4
1533861586960478,-1,0,-7,-3,0,2,-3,1
1533861586960478,-1,-1,-1,1,1,4,1,0
1533861586961471,0,-5,-11,-3,0,-4,-3,-1
1533861586961471,-2,2,-7,-2,0,-2,-2,-3
1533861586975437,0,-4,-16,2,-2,-4,0,-2
1533861586975437,-1,-2,-22,-2,-1,-2,0,2
1533861586975437,1,3,0,-1,0,4,2,-2
1533861586975437,-5,-3,-29,-12,-6,-3,-8,-4
1533861586997376,1,4,29,-8,0,3,5,-2
1533861586997376,0,-3,-8,-8,-7,-6,-4,1
1533861586998373,-10,-1,-22,1,1,5,10,-3
1533861586998373,14,-2,-7,-2,3,-1,-3,-1
1533861587021311,-3,1,-6,2,-2,-3,-4,-2
1533861587021311,-1,1,5,2,2,3,-3,-2
1533861587021311,1,-1,-6,-5,-2,-1,-4,0
1533861587021311,-5,-2,12,5,1,-1,0,0
1533861587035277,-1,-3,-15,-4,-4,-1,-2,-2
1533861587035277,-6,-4,6,0,-3,-3,1,-4
1533861587036271,2,1,-11,2,1,1,-1,0
1533861587036271,-4,-2,-4,4,0,-4,-3,-1
1533861587058213,2,-1,-6,-12,-1,-3,0,0
1533861587058213,-7,-2,3,1,-3,0,-4,-2
1533861587058213,4,-3,-3,-2,-1,0,-1,0
1533861587058213,-6,1,2,2,-1,-5,-2,0
1533861587081155,-4,0,8,-1,-3,-6,4,1
1533861587081155,3,1,13,0,2,5,-11,3
1533861587081155,0,-1,3,3,-4,1,5,3
1533861587081155,-2,-1,5,3,2,-1,0,-1
1533861587095142,-3,-1,22,10,1,0,-1,-4
1533861587095142,-2,-1,24,-2,-5,-1,1,-4
1533861587096114,-1,-2,-5,-4,-3,-4,-5,0
1533861587096114,-3,1,17,2,-1,3,4,-1
1533861587118056,-4,-2,-4,1,0,-1,-2,-3
1533861587118056,0,-1,6,-2,0,1,3,-1
1533861587118056,-1,1,9,-2,4,4,2,4
1533861587118056,-4,-4,-1,-7,-4,-2,-2,-3
1533861587140995,2,4,-8,-4,-3,-1,-4,-4
1533861587140995,0,-1,10,-5,-7,-4,4,0
1533861587140995,2,0,-7,-10,-4,-4,-9,1
1533861587140995,1,2,-5,-2,7,0,2,1
1533861587154957,-3,-8,-13,-1,-14,-5,-6,-4
1533861587154957,1,-1,-22,2,11,3,0,1
1533861587155951,-3,0,-1,0,-6,-7,-2,-6
1533861587155951,-1,-3,4,0,-3,-3,2,-3
1533861587177896,-1,1,-3,-4,-8,1,-1,1
1533861587177896,0,2,-13,9,13,-1,-1,3
1533861587177896,-4,-2,-4,3,-1,-2,-3,-2
1533861587177896,-1,-1,-8,-1,-2,-1,-2,0
1533861587200835,-1,-2,9,1,2,-2,2,-1
1533861587200835,-11,-3,-26,-4,-12,-7,2,-6
1533861587201829,6,0,-3,7,5,0,-12,3
1533861587201829,-3,1,-9,-1,-3,-1,6,1
1533861587214797,4,-2,11,0,5,3,2,4
1533861587214797,-6,1,-18,1,-1,0,4,-4
1533861587215797,-3,1,8,5,0,1,-4,-1
1533861587215797,0,0,-10,-4,-3,-1,0,-2
1533861587237733,-1,1,-2,7,8,5,1,12
1533861587237733,0,-5,-24,-5,-13,-5,-4,-1
1533861587238747,-3,-3,-10,-12,-1,-6,2,-3
1533861587238747,-1,-2,4,5,-4,-3,-4,-3
1533861587260688,-2,-3,-19,-3,0,-1,-2,-5
1533861587260688,4,-2,-4,-2,-1,1,3,-1
1533861587261684,2,4,1,-5,-2,-2,-9,-3
1533861587261684,-1,-2,-18,0,4,4,-1,7
1533861587275631,-4,-2,12,1,-1,-2,-5,-3
1533861587275631,1,0,-1,-1,-7,-1,-2,0
1533861587275631,-2,-5,-14,-6,-3,1,2,-4
1533861587275631,1,3,-2,-2,1,1,-1,-3
1533861587297607,-1,-2,1,-2,-1,-3,-3,0
1533861587297607,-5,0,0,-2,-1,-8,-6,-7
1533861587298570,-1,-2,1,7,-2,-3,8,1
1533861587298570,0,-3,-10,-6,-4,0,-5,-5
1533861587320512,-2,-2,-12,0,-3,-3,-3,1
1533861587320512,2,0,-9,-7,-2,0,-2,0
1533861587321510,-2,-7,-6,4,4,1,2,-1
1533861587321510,-4,0,2,-1,-3,-5,-5,-5
1533861587335472,-1,1,-18,3,1,7,5,1
1533861587335472,3,-1,-3,-8,-2,-1,-2,2
1533861587336469,1,4,-6,-14,-1,3,2,5
1533861587336469,-1,-1,-10,0,-4,-3,0,1
1533861587358413,-1,1,-2,1,-1,0,-2,-4
1533861587358413,1,-2,5,-4,2,-2,-6,-3
1533861587358413,-2,-3,-5,-4,-7,-4,2,-2
1533861587358413,-1,0,-1,-1,2,0,1,-4
1533861587380354,0,-2,6,0,0,1,4,-1
1533861587380354,-1,-1,0,5,0,-2,1,-2
1533861587381348,-2,-2,-2,-1,-1,-6,-2,-4
1533861587381348,-1,1,-16,-4,3,2,-7,0
1533861587395314,1,-2,-8,-3,-10,-5,-3,-4
1533861587395314,0,0,-11,-1,10,4,-2,-3
1533861587395314,-1,0,4,4,-5,3,4,0
1533861587395314,0,-2,4,7,-4,-2,3,0
1533861587417253,-2,-2,-12,-2,21,1,1,0
1533861587417253,-2,1,-8,1,-23,-7,-3,-2
1533861587418250,-1,0,-15,1,15,0,-2,-1
1533861587418250,-1,1,-2,3,-13,1,-2,2
1533861587441191,-1,0,-16,-5,0,-8,-4,-3
1533861587441191,1,-2,9,6,1,4,3,1
1533861587441191,-1,-3,9,1,-10,-2,-5,0
1533861587441191,-3,-5,7,-2,-2,-3,0,-2
1533861587455161,0,-1,-15,-6,-2,-3,-2,-1
1533861587455161,2,2,14,1,0,-2,-3,1
1533861587456156,-3,-1,-6,-2,-6,-1,4,0
1533861587456156,0,-1,10,-7,0,-5,-1,-4
1533861587477095,-1,-2,4,-4,-4,-3,-11,-4
1533861587477095,-1,1,7,-2,7,4,-1,5
1533861587478090,-3,-1,-2,-1,-2,0,-3,0
1533861587478090,-4,-6,-5,2,0,-3,-3,-4
1533861587501031,1,5,19,0,-6,-1,4,2
1533861587501031,0,0,26,-3,4,1,0,-1
1533861587501031,-1,-2,-14,-10,2,-1,-1,-2
1533861587501031,-1,-1,4,-3,-7,0,-2,-1
1533861587515026,-3,-4,-14,4,7,2,1,-1
1533861587515026,1,0,4,4,-3,-6,-3,1
1533861587515988,-2,-2,1,3,7,-2,-3,-4
1533861587515988,-1,1,-6,3,3,3,-1,-2
1533861587537934,-6,-6,-37,-22,-15,-3,-1,-2
1533861587537934,0,-1,2,-4,4,5,3,0
1533861587537934,0,1,5,7,-1,-1,-4,-2
1533861587537934,-4,-1,-5,4,-5,-1,0,-2
1533861587560880,2,2,6,8,9,2,0,-1
1533861587560880,-2,-5,-33,0,17,-2,-4,-4
1533861587561866,0,2,-4,1,-3,3,3,0
1533861587561866,-1,-1,-5,-9,-17,-6,0,-2
1533861587574834,-2,-3,-14,-5,-13,-2,0,0
1533861587574834,-2,3,0,4,0,1,-3,1
1533861587582813,-3,-1,2,-1,4,3,-1,0
1533861587582813,3,-3,-18,-4,8,0,0,1
1533861587597770,-1,2,13,0,-10,-7,0,-3
1533861587597770,0,-4,-20,-8,2,-5,-4,-4
1533861587598767,1,1,-1,5,8,3,0,1
1533861587598767,-4,0,1,-4,3,-1,1,-1
1533861587620712,1,3,3,2,1,2,1,3
1533861587620712,1,-1,-18,2,-1,-3,-1,-5
1533861587621706,0,3,6,0,-9,-5,-2,-1
1533861587621706,-4,-2,-8,2,14,5,0,-3
1533861587634674,0,0,-4,1,3,-2,-2,-1
1533861587634674,-3,-2,-24,-10,0,0,-3,-2
1533861587642653,1,-1,-8,-5,-23,-3,1,1
1533861587642653,1,-2,-3,-3,-1,1,-1,2
1533861587657613,-3,-5,-16,-2,-3,-3,-4,-2
1533861587657613,-8,-3,3,-2,-15,-1,4,-2
1533861587658606,-1,-3,-14,-1,10,-3,-3,-4
1533861587658606,0,-1,-2,1,1,-3,-1,2
1533861587680548,-2,-1,-4,1,5,3,0,-2
1533861587680548,-2,0,-10,-1,-3,-1,1,0
1533861587681546,-3,-5,-13,-8,-15,-7,-4,-1
1533861587681546,3,-1,3,-1,-2,-3,-4,1
1533861587694673,0,-1,16,7,-7,-1,1,-3
1533861587694673,-1,0,15,3,19,2,0,0
1533861587702493,-1,-5,0,0,1,-2,-3,-2
1533861587702493,2,1,-8,-7,-12,-7,-5,-2
1533861587717453,-2,-1,-11,-3,-9,-4,-1,1
1533861587717453,2,2,-5,2,-6,-2,0,2
1533861587718446,-3,0,2,1,7,5,3,-2
1533861587718446,-1,-1,14,6,5,1,-3,-4
1533861587740388,-1,-1,-15,-8,10,-1,0,-1
1533861587740388,-3,-3,-8,3,-4,0,0,1
1533861587741397,-2,-1,-5,0,3,-1,0,2
1533861587741397,-6,-1,-10,2,1,0,-1,-2
1533861587754352,1,1,9,1,2,3,2,1
1533861587754352,-1,0,2,-1,-6,-7,-4,-3
1533861587762330,1,-2,-9,-5,-3,2,1,1
1533861587762330,-2,1,-12,0,0,-1,0,0
1533861587777293,0,-3,-10,0,-2,-1,-1,-2
1533861587777293,2,4,13,-3,-2,1,1,0
1533861587778286,-2,-2,-24,-3,8,-4,-3,0
1533861587778286,-3,-3,-6,-6,-18,-3,-1,0
1533861587801229,-5,-2,-3,0,11,-1,-3,-3
1533861587801229,-1,-2,-3,-2,-6,-2,3,3
1533861587801229,-4,1,9,1,-6,-1,-3,-4
1533861587801229,2,0,-3,7,16,3,1,-1
1533861587814194,-2,-1,-10,-4,-9,-2,-1,-6
1533861587814194,-4,-6,-4,-1,-2,-4,-1,-4
1533861587822170,0,-4,-9,-13,-10,-1,-2,1
1533861587822170,-1,-3,1,5,7,4,0,-2
1533861587837131,0,-4,-11,1,-7,0,-2,1
1533861587837131,2,-2,-6,-4,-6,-4,-2,-1
1533861587838140,-2,-2,-11,-4,-2,-3,-3,-3
1533861587838140,0,0,8,0,-3,-3,-3,0
1533861587861065,1,0,-2,-1,2,0,4,0
1533861587861065,-1,-2,13,0,-5,-2,1,-1
1533861587861065,0,0,13,3,-9,-1,-1,-1
1533861587861065,-1,0,-6,-7,6,-1,1,1
1533861587883010,-1,-1,10,5,1,0,-3,0
1533861587883010,-4,-6,-15,-5,1,-2,-2,-3
1533861587884022,2,1,5,3,-5,-3,-2,-2
1533861587884022,-1,-3,-17,-7,-22,-4,-3,-2
1533861587897970,0,3,12,6,0,1,3,2
1533861587897970,3,4,-2,6,6,0,-5,-1
1533861587897970,-1,-1,-5,3,5,1,4,-1
1533861587897970,2,0,-6,0,4,0,-3,2
1533861587927887,0,-2,-16,-2,-4,0,-2,-2
1533861587927887,0,2,-5,5,-1,-2,-3,-2
1533861587928884,0,1,9,1,3,1,2,2
1533861587928884,1,2,9,4,0,1,-1,0
1533861587942850,2,-4,-13,-3,-4,1,2,2
1533861587942850,-1,-1,2,1,-3,1,-2,0
1533861587943844,-1,-1,-5,-3,-5,-6,-4,-6
1533861587943844,-1,-1,-4,-2,-1,-5,-1,-1
1533861587957810,-2,1,-19,-3,-2,-5,-2,-3
1533861587957810,0,-3,-9,-6,-4,-2,-3,1
1533861587958804,2,1,-3,-2,2,3,-1,4
1533861587958804,-3,0,-6,1,5,6,3,-1
1533861587980745,-4,-2,-4,-4,-1,-2,-7,-6
1533861587980745,-3,0,-11,-4,-2,-2,3,-4
1533861587981743,-1,-3,-17,-1,1,-5,0,-3
1533861587981743,1,2,1,2,7,6,-1,3
1533861588003684,-2,-1,12,-3,0,1,2,0
1533861588003684,-2,-4,-1,1,-2,-1,0,-2
1533861588003684,0,-1,-6,0,-3,2,2,0
1533861588003684,-2,-2,-6,-2,-2,-3,1,-3
1533861588017650,-3,-2,8,-4,-1,-2,-3,-1
1533861588017650,-4,-2,-5,-5,-4,-1,-1,0
1533861588018645,-3,-3,-6,-4,1,0,-2,1
1533861588018645,1,6,-1,3,-3,-3,-1,-1
1533861588040586,-1,-1,-14,-1,1,-1,-3,-1
1533861588040586,-2,-2,-13,-10,-1,-1,2,-1
1533861588041582,-5,-3,11,1,-2,-3,0,-6
1533861588041582,4,3,-11,-4,-1,-1,-3,-1
1533861588063527,-4,-3,1,7,1,0,2,4
1533861588063527,0,0,-15,-1,-3,2,-3,-3
1533861588063527,-2,1,-5,2,-4,-4,-2,-1
1533861588063527,-2,-5,-20,-11,-5,-5,-1,-5
1533861588077490,-1,2,8,-1,-2,-3,-1,0
1533861588077490,-1,-2,13,3,1,-1,0,0
1533861588078483,-1,-4,-26,-2,-1,1,-4,1
1533861588078483,-4,-5,-9,2,-1,-1,-1,-2
1533861588100428,0,1,6,4,0,0,-3,-1
1533861588100428,-3,-1,-4,-2,-2,-1,-3,-2
1533861588101422,2,5,21,5,4,0,1,-1
1533861588101422,-4,-7,-15,1,-4,-4,-2,-1
1533861588123365,0,-1,-8,2,-2,1,0,-1
1533861588123365,1,0,1,2,2,-1,1,0
1533861588124361,1,-2,2,-4,-7,-1,1,0
1533861588124361,-1,-2,8,5,-4,0,-1,-2
1533861588137327,-7,-4,-11,-10,-3,-1,0,-2
1533861588137327,-1,-2,-12,-1,1,-2,-3,-1
1533861588138329,-1,0,1,5,2,-1,-3,1
1533861588138329,-2,-1,-6,-2,2,-1,0,-1
1533861588160266,3,-2,-11,2,-1,-1,-3,-2
1533861588160266,-2,2,9,15,4,-1,0,3
1533861588161265,3,-2,-16,-4,-5,-6,-3,1
1533861588161265,-13,0,-4,-4,-3,1,-2,-4
1533861588183207,6,-6,-14,-7,-6,-2,-4,-3
1533861588183207,-3,0,-8,-14,2,0,-1,-2
1533861588184201,-1,-3,-6,-2,0,1,2,-1
1533861588184201,0,-2,7,2,-2,-1,-1,-1
1533861588197166,-1,4,25,-1,-8,-4,0,-1
1533861588197166,3,4,20,5,0,1,-1,-2
1533861588198164,-3,-1,2,-8,-3,0,1,0
1533861588198164,-1,-4,7,-15,-3,0,0,-1
1533861588221102,-7,-5,-14,5,-3,-5,-5,-3
1533861588221102,4,-2,4,3,-2,-2,2,1
1533861588221102,2,4,18,4,4,0,-2,0
1533861588221102,-17,0,-4,0,2,-2,-2,-6
1533861588243265,7,7,12,5,5,1,2,2
1533861588243265,1,3,5,2,0,0,-3,0
1533861588244041,-7,-9,-18,-17,-6,-1,-4,-2
1533861588244041,5,-3,-1,-6,-4,-1,-3,1
1533861588258007,0,0,-1,2,6,5,0,-1
1533861588258007,-4,-1,-6,-2,-3,1,-3,-3
1533861588258007,1,5,13,13,10,-1,-1,-2
1533861588258007,5,-1,-3,8,-8,0,1,2
1533861588280974,-3,-2,-30,-18,-7,-1,-1,0
1533861588280974,2,-3,-3,-2,0,-1,-2,-2
1533861588281970,-1,-3,2,-3,1,-1,-1,-2
1533861588281970,1,-1,-1,0,6,1,-1,-2
1533861588302918,-1,1,2,8,7,3,-3,0
1533861588302918,-5,-5,-9,-10,-10,-3,-2,-2
1533861588303941,-1,-2,-7,-1,3,-2,-1,-2
1533861588303941,-1,-1,-2,7,4,1,2,-2
1533861588317875,-1,0,0,1,-1,-3,-4,-4
1533861588317875,3,9,21,6,19,6,0,-1
1533861588317875,-6,-4,-21,-7,-22,-10,-5,-3
1533861588317875,6,-4,-5,-1,-9,-4,1,3
1533861588340817,1,-6,-18,-8,-7,-1,0,-2
1533861588340817,-1,-1,2,9,-5,-3,0,-4
1533861588341811,-4,-1,-5,6,9,4,-1,-3
1533861588341811,0,-1,-10,-5,4,-5,-4,1
1533861588362758,-2,-1,-19,-5,0,-8,-1,-6
1533861588362758,4,-1,0,-5,-2,-3,0,3
1533861588363758,-1,-4,-29,-15,0,-1,0,2
1533861588363758,-4,-2,-13,0,-3,-5,-2,0
1533861588376721,1,1,-5,-5,6,3,2,1
1533861588376721,-8,-5,-12,-4,-8,-1,-3,-6
1533861588384696,-2,5,11,8,0,3,2,-3
1533861588384696,1,1,-13,-5,-1,4,-6,2
1533861588400871,0,0,-2,-2,2,-1,-2,-2
1533861588400871,-4,-5,-25,-11,-3,0,0,-1
1533861588401687,0,-1,2,4,-9,-1,-1,-2
1533861588401687,3,-2,-4,-1,2,-3,0,-2
1533861588423595,-6,-1,-2,2,-3,-3,5,0
1533861588423595,-1,-6,-13,1,-3,-4,-5,-3
1533861588423595,4,0,-10,-5,1,1,-6,1
1533861588423595,1,3,-2,1,0,0,4,-1
1533861588437554,-9,-5,-9,5,-4,-5,-5,-4
1533861588437554,-2,-2,4,-5,-6,-1,8,2
1533861588438556,2,2,12,11,5,2,0,2
1533861588438556,-1,-3,-9,-2,-4,-2,-5,-1
1533861588460519,3,1,-8,0,6,3,-1,1
1533861588460519,-2,-3,-12,1,-3,0,-2,-2
1533861588461492,-1,0,3,-1,-1,-4,1,-3
1533861588461492,-2,-1,-6,0,-4,-2,0,-1
1533861588483432,-2,-4,-18,-20,-7,-2,1,-1
1533861588483432,-2,-2,-16,3,3,-2,-1,0
1533861588483432,-1,1,-2,-1,-2,1,-4,-2
1533861588483432,0,-3,3,7,0,0,0,-3
1533861588496399,-1,-2,20,-20,-2,0,-4,0
1533861588496399,-1,-1,-13,-1,2,1,-1,0
1533861588505377,-2,0,-3,-2,1,0,4,-2
1533861588505377,1,3,0,-5,1,-3,-2,-1
1533861588520333,0,-1,3,14,2,-4,3,-1
1533861588520333,3,-1,7,11,4,6,-9,4
1533861588521332,-2,1,-2,17,14,-1,1,0
1533861588521332,-4,-1,-15,-44,-20,-2,0,-2
1533861588543272,-2,0,-12,-5,-10,-5,-4,-4
1533861588543272,-4,-4,-24,-16,-7,-7,1,-5
1533861588544269,-1,-3,1,6,-2,-4,-2,-2
1533861588544269,2,-2,-21,9,13,3,-3,0
1533861588557423,-1,5,1,-10,-1,-3,1,3
1533861588557423,-1,-1,-4,-3,-5,-4,2,0
1533861588565395,-5,-7,-3,-4,-4,-5,-1,-5
1533861588565395,-4,-2,1,-6,-3,-6,-2,-2
1533861588581348,4,-4,14,1,-4,4,2,3
1533861588581348,-1,0,8,3,-2,0,-1,-4
1533861588581348,2,2,-9,-2,-1,1,3,3
1533861588581348,0,1,2,-3,0,4,6,0
1533861588603290,-3,-3,-2,19,2,-1,-5,-1
1533861588603290,-1,1,8,-10,1,-1,-1,0
1533861588604313,-3,-3,-3,-9,-14,-6,-2,-4
1533861588604313,-3,0,3,6,2,-2,-4,-3
1533861588617465,-1,1,-7,5,0,-2,-4,-3
1533861588617465,-2,-3,0,9,4,0,5,0
