timestamp,emg1,emg2,emg3,emg4,emg5,emg6,emg7,emg8
655959479583,-37,3,13,12,41,-8,0,-14
655959479583,31,-24,-20,-23,-56,-10,-14,0
655959484794,3,5,-5,-20,11,3,3,5
655959484794,-30,2,10,18,-3,9,7,-7
655959485511,17,-8,-8,-9,-6,-12,-9,-3
655959485511,9,10,8,10,27,-1,3,7
655959487155,-18,1,7,5,-4,4,1,-6
655959487155,-4,-12,-19,16,-5,-8,-6,-6
655959490679,27,2,3,3,-19,1,-1,8
655959490679,-21,4,-1,8,36,1,4,-5
655959497632,-12,-2,5,-4,-30,8,0,0
655959497632,21,-4,3,-8,-4,-11,-8,1
655959498414,-4,-3,-15,3,-12,9,4,4
655959498414,-19,3,16,20,7,1,5,-2
655959511958,10,-4,-7,21,-3,-11,-8,-4
655959511958,10,5,13,-25,30,-2,3,8
655959519419,-15,-5,-11,-15,-32,8,5,-2
655959519419,-6,-3,-3,-15,-11,0,-3,-6
655959534423,14,-3,6,15,11,-6,-4,2
655959534423,-5,0,-6,5,1,6,2,-2
655959542182,-6,6,-1,-7,7,-2,-4,-5
655959542182,4,-3,0,7,-1,-1,-3,0
655959557792,1,0,-3,3,-2,-3,-2,0
655959557792,-5,-1,-2,-23,-2,2,0,-4
655959558603,4,1,0,32,2,-4,-4,1
655959558603,0,1,-7,-25,-11,-1,1,1
655959581583,-10,-6,-2,7,5,-3,-2,-1
655959581583,3,-2,-5,-3,-11,-4,-4,-3
655959583559,3,0,-2,-8,3,1,3,2
655959583559,-8,-1,10,28,3,3,-1,-2
655959595948,-2,-1,6,-22,6,-3,-2,-3
655959595948,2,-7,-25,-21,-8,-4,-6,0
655959602195,-3,-4,6,33,-6,0,-2,-3
655959602195,-3,5,3,-14,3,-1,-1,-3
655959617928,2,-2,-15,-2,-7,-1,0,0
655959617928,1,-2,4,18,-2,1,1,1
655959618606,-2,5,12,-20,9,-2,-1,-1
655959618606,2,-2,-3,-18,-11,-5,-3,-2
655959644216,-3,0,5,11,2,-1,1,0
655959644216,-4,1,0,-18,6,0,0,-1
655959645214,0,3,-2,9,-7,-2,-2,0
655959645214,3,-8,0,8,6,-3,0,1
655959655720,-3,0,-6,-20,-9,3,4,-1
655959655720,0,3,-1,-1,1,1,-2,-1
655959662228,-3,-6,6,21,-5,-6,-4,-3
655959662228,-4,3,-2,27,1,2,-1,-2
655959677164,-1,1,-8,-53,3,-2,1,-4
655959677164,-2,1,-5,29,-6,-2,0,-1
655959718827,-41,1,22,28,11,8,6,-12
655959718827,15,-10,-6,-13,-18,-17,-11,-4
655959719508,16,7,2,34,7,4,3,8
655959719508,-26,0,-1,-10,-2,5,3,-5
655959722558,4,-8,-8,-5,-6,-12,-7,-5
655959722558,21,4,-2,3,4,3,6,11
655959723376,-16,1,5,-16,0,7,6,-1
655959723376,-18,-4,9,4,-11,-7,-9,-14
655959730969,30,-3,-10,-17,-5,-6,-9,5
655959730969,-11,4,5,2,3,6,9,8
655959737136,-21,0,3,-2,2,-2,-6,-11
655959737136,24,1,-8,-3,-6,-7,-1,5
655959753410,4,1,-4,12,0,4,6,4
655959753410,-19,-3,-3,-9,1,-4,-20,-29
655959759477,10,-2,-7,2,-1,-3,-14,8
655959759477,-26,-1,-12,3,-2,-5,-10,8
655959768441,5,1,12,2,2,4,8,9
655959768441,-26,-4,-4,1,-2,-4,3,-7
655959790916,28,2,-6,0,-5,-4,-2,-2
655959790916,6,-20,-17,-4,-3,-3,-4,4
655959792440,-9,2,-5,-40,1,2,3,-9
655959792440,6,-3,-9,-36,-9,-4,2,0
655959805177,-2,-2,-1,-7,-7,-4,2,0
655959805177,-1,0,6,21,9,5,1,-6
655959811980,1,-1,-7,-6,-3,-5,-8,-1
655959811980,10,4,1,14,2,5,1,2
655959827422,-13,-6,-4,-6,0,-1,3,-5
655959827422,1,-1,7,13,-2,-2,3,-2
655959835932,6,2,3,11,9,-5,-5,2
655959835932,-7,4,5,2,-9,5,4,1
655959850838,-11,-6,-1,8,-12,-6,-1,-7
655959850838,16,-4,-8,-4,11,-2,-4,2
655959852435,-11,-1,-7,-3,-23,3,1,-2
655959852435,-4,-5,4,-14,14,-5,-3,-1
655959865252,0,-5,-5,-34,0,-4,-6,-3
655959865252,-1,6,5,3,-15,-1,5,-2
655959871988,-8,-5,-5,-11,5,-4,-1,-3
655959871988,-1,-5,0,22,-2,3,-1,-1
655959888396,1,-1,-6,-34,-4,-2,-1,2
655959888396,-3,-1,15,10,-17,1,-2,-2
655959889900,-5,-2,3,-17,2,-4,0,-7
655959889900,3,2,-10,10,-1,-4,-5,2
655959910902,-2,-2,1,-19,13,-1,-1,-1
655959910902,-1,3,-3,-1,5,-3,-1,-3
655959912448,4,0,5,14,-8,-1,-3,-1
655959912448,0,-4,2,-3,7,2,-1,-2
655959924512,10,23,19,30,-2,1,0,-1
655959924512,-6,4,0,-15,-5,0,1,-4
655959933428,22,-7,4,20,1,-2,-4,8
655959933428,-47,-2,-8,-25,1,5,8,1
655959948400,-5,-33,0,32,-6,-2,3,5
655959948400,18,25,-9,-20,4,0,-10,-12
655959949907,1,5,-10,-10,2,-2,-6,5
655959949907,8,-5,4,21,-1,-1,0,3
655959970966,-6,-6,8,20,-11,-3,-3,5
655959970966,-6,-9,3,-7,3,-6,-8,7
655959972492,-10,-3,-1,8,5,2,-10,-17
655959972492,26,3,20,-2,-9,-2,4,8
655959984470,-8,1,-23,-25,2,2,5,-6
655959984470,3,-3,2,8,4,3,9,1
655959993492,1,2,-4,-2,-1,-5,2,-2
655959993492,2,-2,-4,26,-3,-1,-4,-1
655960008365,-5,4,4,2,-9,0,1,-4
655960008365,-10,-11,-10,1,13,-4,-4,-7
655960010006,1,0,8,-1,5,1,2,6
655960010006,-4,1,-8,-23,-20,-3,-4,-6
655960030812,-11,-4,-2,-18,-22,5,-1,-4
655960030812,15,-1,-5,4,29,-4,2,5
655960032463,-12,-1,5,10,-34,12,2,0
655960032463,1,0,-1,-20,18,-9,-3,-3
655960044475,0,-3,-8,19,-11,-9,-9,-7
655960044475,-3,-1,5,32,-6,4,5,4
655960053470,-5,0,6,-17,13,-8,-1,-5
655960053470,-1,-2,-7,-13,-8,7,-4,-3
655960068419,7,2,-2,4,3,-3,-2,1
655960068419,-6,-3,4,1,3,0,0,-4
655960069978,-3,-3,-8,-2,3,-3,-4,-2
655960069978,7,2,-1,25,-5,0,-4,0
655960090784,-4,3,-5,-25,8,-3,-2,-2
655960090784,-6,-13,-1,-28,-9,-2,0,-3
655960092428,1,-4,-15,15,-1,-1,0,-1
655960092428,-3,-1,10,42,7,-3,-1,1
655960104507,-2,1,-3,-10,30,1,-1,-1
655960104507,-5,-1,-7,-16,-20,0,-3,-3
655960113435,2,1,-4,-4,-13,-4,1,3
655960113435,-7,-3,2,8,-11,-1,0,-3
655960128307,3,-2,-2,6,13,2,-1,1
655960128307,4,0,-2,-5,-7,-3,-1,1
655960129887,-3,-1,0,-26,0,-2,1,-1
655960129887,-3,1,1,-9,1,-3,-3,-3
655960150886,-1,-6,2,7,-13,-3,-3,-3
655960150886,1,-1,-3,9,4,0,0,1
655960152477,-1,-1,0,8,7,2,-1,2
655960152477,0,-1,1,-11,6,-4,-1,-2
655960164524,2,-2,-2,7,-12,1,-1,-1
655960164524,-2,-1,3,4,-5,1,0,-2
655960173510,-4,0,-3,0,-1,-1,-2,-3
655960173510,4,-2,-1,16,4,-2,-2,-3
655960188339,-1,1,-1,-31,8,1,-1,-1
655960188339,0,3,-5,-11,19,2,3,-3
655960189915,-4,-11,-11,-21,-26,-4,-2,0
655960189915,1,3,-5,-28,4,0,0,1
655960211041,-3,1,9,42,-8,4,3,0
655960211041,-2,-2,-1,-6,-6,-2,-2,-1
655960212454,4,3,0,3,10,-2,-3,-1
655960212454,-1,-1,0,7,2,0,-1,-1
655960225626,0,-1,-1,-8,-8,-3,-3,-3
655960225626,3,0,-1,-3,0,-2,-2,1
655960234254,-3,1,3,21,7,0,1,0
655960234254,-3,-3,6,-24,-5,0,-1,0
655960249915,-2,-3,-12,9,7,-2,-2,-4
655960249915,0,-1,-4,10,-12,-2,0,2
655960263346,-6,-1,-2,-32,-13,0,-1,-5
655960263346,-2,-1,0,2,-4,-4,-3,-3
655960270883,5,-2,2,11,18,-5,1,1
655960270883,-5,-3,0,-24,-23,0,-1,-2
655960272465,-2,-4,2,20,11,-1,-1,0
655960272465,4,-1,-4,-3,-9,1,0,2
655960284493,-4,0,6,4,-3,0,0,-1
655960284493,1,-2,-6,-14,4,0,-1,-1
655960293477,-1,-2,0,-11,-2,-4,-1,-2
655960293477,0,-8,-13,-1,-3,-3,-4,-1
655960308335,0,0,2,-7,-2,-1,-1,1
655960308335,-4,2,8,20,13,-1,-2,-2
655960309932,6,0,-7,-59,-18,1,1,1
655960309932,-10,-1,4,14,0,0,-2,-4
655960330901,-3,-4,0,5,0,-1,0,0
655960330901,2,-1,0,11,1,-1,-1,-2
655960332485,-2,3,3,28,15,1,0,-1
655960332485,-1,0,-5,-24,-6,-1,-1,-1
655960353352,3,0,-4,-12,-8,-3,-1,-3
655960353352,0,1,3,-3,-1,1,0,0
655960354995,-3,0,-2,49,9,-5,0,-5
655960354995,-1,-5,-6,-23,6,-2,-3,-2
655960375602,-2,-2,-5,-12,-22,5,0,-1
655960375602,-4,-1,-1,5,-9,-3,-1,0
655960375775,-3,-1,6,10,7,-2,-1,-2
655960375775,8,3,-3,27,12,-2,0,2
655960390877,-7,1,1,-30,-11,2,2,-3
655960390877,-3,-5,-10,-8,-1,-1,0,-2
655960392527,2,-2,-5,-24,1,-4,-4,0
655960392527,-1,0,-3,12,-6,2,1,1
655960413407,1,-1,2,2,15,-3,-3,-1
655960413407,2,2,0,6,-19,0,-3,-1
655960414977,0,-8,-7,-23,1,0,-3,-3
655960414977,-3,5,1,-3,-1,-2,1,-2
655960428471,-6,-5,-2,3,-1,-1,0,-1
655960428471,3,-2,-13,-6,18,-2,-3,0
655960429964,-4,-2,-1,15,-1,0,-1,-2
655960429964,2,5,3,7,-15,3,-2,0
655960450891,0,-6,-5,11,-9,-3,-5,-3
655960450891,-1,3,1,-2,10,1,2,1
655960452402,-3,0,1,1,1,-1,0,-1
655960452402,-1,-5,-8,-15,-2,-4,-2,-4
655960473353,5,5,2,10,5,-3,-2,1
655960473353,-6,-2,6,-1,-5,-1,1,-1
655960474944,-3,0,-2,3,-7,-2,-1,0
655960474944,4,-3,3,8,10,-2,-1,0
655960487730,-2,1,3,5,13,4,1,1
655960487730,-5,-2,-3,-2,-20,-2,-2,-2
655960494498,-3,-6,-11,-38,-14,-4,-4,-1
655960494498,-3,0,-2,-4,4,-1,3,0
655960511226,-5,-2,-2,1,0,-3,-3,-1
655960511226,2,-3,-3,8,-1,-5,-2,-1
655960517081,3,2,5,13,1,2,1,3
655960517081,-3,0,0,3,11,-1,0,-3
655960533348,-3,-1,-10,0,3,-2,-2,-3
655960533348,1,-2,5,-15,-16,1,-3,-1
655960534979,-5,-1,3,9,-4,1,0,-3
655960534979,-4,-4,-5,6,1,0,0,-2
655960547692,3,-3,-7,-26,-4,-3,-1,-1
655960547692,-3,0,2,22,9,-1,-1,0
655960554489,0,0,8,17,4,1,0,-1
655960554489,-1,-4,-11,-13,-11,1,-2,-1
655960570845,4,2,5,-9,4,0,-1,0
655960570845,-5,-5,-7,-11,-5,-3,-2,-4
655960572473,-1,-1,0,2,1,0,3,-5
655960572473,5,2,7,23,3,-1,-7,7
655960593425,-8,-3,-10,-35,-12,-4,0,-3
655960593425,-4,-1,7,0,2,-1,4,1
655960594981,8,-1,-4,-2,3,2,-7,-2
655960594981,-6,-1,4,11,-8,-1,7,-3
655960607795,-7,1,4,2,2,-2,-17,-10
655960607795,4,-4,-6,-14,-9,-4,-8,-1
655960614491,2,3,-4,23,2,-2,2,3
655960614491,-1,-1,1,-1,-1,-1,8,4
655960630896,0,-5,3,10,1,1,-4,-8
655960630896,3,4,-1,-3,6,1,3,1
655960632428,-6,-2,-5,-37,-4,-1,-3,1
655960632428,-1,-2,-3,6,-4,-1,0,-5
655960653373,4,0,-1,-2,3,-3,-1,5
655960653373,0,-4,-10,16,2,2,0,-2
655960654966,-4,0,11,12,-3,-1,1,-3
655960654966,-3,-3,-5,9,-4,-4,-10,-4
655960667742,3,7,10,12,3,3,6,3
655960667742,-2,-1,2,3,1,1,2,-2
655960674486,-2,-4,-4,-28,-5,-3,-4,-1
655960674486,1,0,2,2,-3,-3,-6,-2
655960689605,-1,0,0,3,3,-1,2,1
655960689605,-2,1,3,15,-9,0,-2,-1
655960698504,-3,-2,-3,-37,-9,-2,-1,-2
655960698504,-2,3,-4,-22,3,1,-1,-1
655960713421,-6,-14,-1,21,1,0,2,1
655960713421,5,-6,-12,-41,2,-6,-5,0
655960714983,1,4,4,22,6,1,1,-1
655960714983,-4,-8,-8,-21,-20,-1,-2,-2
655960735957,0,1,-2,-12,11,-3,-1,0
655960735957,-2,-1,0,-13,-25,2,0,0
655960737504,-3,-3,5,29,2,-3,-1,0
655960737504,-2,-5,-10,-18,1,-3,0,-1
655960749578,10,1,-5,3,9,0,0,2
655960749578,-1,-1,3,16,22,-1,-3,-3
655960758489,-9,-3,-5,-3,-11,-2,0,-4
655960758489,0,0,6,-6,4,1,-3,-2
655960773386,3,0,0,8,-17,-2,1,0
655960773386,-4,0,-4,-2,-5,-1,0,-2
655960774985,-1,-2,-3,-10,13,-2,-2,3
655960774985,1,-5,-9,15,5,-4,-1,-2
655960795995,-7,1,3,11,-12,-2,-1,-3
655960795995,-3,-2,1,3,10,0,-1,-3
655960797534,4,-1,-4,-9,-20,-2,-1,-1
655960797534,-2,-4,3,-4,24,-9,-3,0
655960809574,-2,0,-4,3,-15,9,1,2
655960809574,-1,1,1,-34,-22,-6,-3,-3
655960818534,5,4,-2,21,20,0,0,-2
655960818534,-6,-3,6,-10,-16,4,2,1
655960833473,-3,0,-2,-13,2,-5,-2,-4
655960833473,3,-5,-3,-5,15,-2,0,2
655960835006,-4,0,-5,6,-15,2,-1,-1
655960835006,-3,1,3,-8,-3,-2,0,-5
655960863438,4,2,4,1,4,-2,-3,-1
655960863438,-4,0,6,26,8,2,-1,-1
655960864965,4,1,2,-17,0,1,1,0
655960864965,0,-1,0,27,-19,0,-2,0
655960878340,-3,-1,1,-2,3,-1,0,2
655960878340,-3,1,-5,-20,-1,0,-2,-2
655960880035,-2,0,3,43,13,-3,-3,-2
655960880035,4,4,2,-24,-4,-2,-3,-1
655960893436,-6,0,-1,-7,-2,-1,0,-2
655960893436,-3,0,0,0,0,-2,2,-1
655960894971,3,-5,-7,-18,-8,0,-2,1
655960894971,-5,-2,-12,-8,-6,4,1,-1
655960915982,-3,-2,-2,1,2,-4,-1,-3
655960915982,3,1,-7,6,-3,0,0,-2
655960917494,3,-3,11,6,8,3,3,-1
655960917494,-2,4,4,-4,3,-1,1,0
655960938494,-4,-5,-2,12,-14,-4,-3,-4
655960938494,1,-2,3,-5,-5,-1,1,1
655960940034,-4,-1,-5,-7,-4,-4,-3,-2
655960940034,2,-1,6,4,9,0,0,0
655960953433,0,-3,-9,-13,-18,-2,-1,0
655960953433,-3,0,-7,-51,-4,1,-1,-2
655960955030,-4,-3,-2,14,0,-1,-1,-2
655960955030,2,0,0,-38,9,-3,-2,-2
655960975999,3,0,-2,24,5,-1,-1,1
655960975999,-4,-1,4,6,-2,-2,-2,-1
655960977541,-5,-6,-5,7,-1,-5,-3,-4
655960977541,4,-3,-2,-2,-2,0,1,0
655960998430,-5,-4,0,10,-3,-3,-3,-2
655960998430,-1,0,5,12,-1,-3,-1,-1
655961000043,3,1,-2,-4,-1,-2,-2,0
655961000043,-5,1,-3,17,-5,0,-1,-1
655961020916,1,-4,-6,-14,1,0,0,-2
655961020916,2,-5,8,15,0,-3,-1,0
655961022532,-4,-3,-14,-36,-12,-2,-1,-1
655961022532,-2,-1,5,28,38,-2,-1,-1
655961035984,-5,-1,-4,12,-38,-4,-2,-4
655961035984,3,-1,-1,-13,-2,2,0,2
655961037511,-5,-2,-5,7,0,-2,-2,-3
655961037511,2,1,-2,-18,-2,0,-2,-1
655961058461,2,-1,3,7,16,-2,0,-1
655961058461,-7,-1,-5,20,2,-3,-1,-3
655961059993,-2,1,11,-10,-10,1,0,-1
655961059993,2,-3,1,16,-1,-1,-3,1
655961072711,0,-3,-18,-17,5,1,1,-1
655961072711,-4,-1,-2,8,-9,-1,-2,-5
655961079597,2,0,5,-18,6,-3,-2,-3
655961079597,3,9,10,0,-11,-2,-2,1
655961095960,-3,-5,7,-1,2,0,-2,0
655961095960,-6,0,-2,-4,3,-4,-2,-2
655961097485,4,2,-5,13,6,0,1,1
655961097485,-5,-5,-2,18,9,3,1,-1
655961118446,1,3,1,-33,-2,4,1,1
655961118446,4,-4,-2,-9,2,-3,-1,-1
655961120010,-4,0,5,17,-7,1,-1,0
655961120010,-6,-3,-2,-4,-6,-2,-2,-4
655961132738,0,-1,0,-4,7,-4,-2,-2
655961132738,3,-1,-9,3,1,1,1,2
655961139522,-3,0,-2,6,0,-1,-1,0
655961139522,-3,-2,2,-20,-10,-3,-2,-2
655961155918,2,0,3,12,0,-2,-2,-1
655961155918,-4,-6,-14,-7,-4,-1,-1,-3
655961157479,-1,0,-10,-10,1,0,-1,-1
655961157479,1,0,-6,11,-12,-3,-4,-1
655961178471,5,6,9,32,0,1,-1,0
655961178471,-5,-3,5,-4,6,-1,2,-1
655961180033,-1,-3,-2,-6,-4,-2,-4,-1
655961180033,3,-5,-9,1,5,1,0,1
655961192780,-2,2,0,1,-4,-1,0,-1
655961192780,-2,2,-4,-1,-4,2,-1,-2
655961199558,4,-2,-1,-14,-3,-2,-2,-1
655961199558,-6,3,11,19,-7,-1,-3,-2
655961215911,-5,-7,-25,-35,3,-1,-2,-2
655961215911,4,-1,4,7,-2,-2,-3,0
655961217538,-3,-2,1,0,-4,-1,1,1
655961217538,-3,-3,-1,3,-6,-1,-1,-1
655961238437,0,-1,-1,-18,1,-2,0,0
655961238437,0,0,4,-14,-5,0,-2,0
655961240037,-2,0,-4,35,2,-1,1,-2
655961240037,-1,-5,-7,-26,-5,0,-2,-3
655961252807,3,3,5,-8,0,-3,2,0
655961252807,-2,1,3,15,-4,0,-1,0
655961259564,-1,0,4,0,7,3,-2,-2
655961259564,4,-2,-9,-10,-15,-3,-1,0
655961275065,-8,-4,2,1,-1,2,-1,-2
655961275065,-1,0,3,-1,4,-1,0,0
655961283538,2,-3,3,29,20,-6,-2,-4
655961283538,0,-3,-8,-27,-10,-3,0,-2
655961298461,-1,1,4,-8,-2,0,-2,-1
655961298461,-3,-3,3,19,6,-3,-1,0
655961300011,1,-3,-10,-8,3,-5,0,-1
655961300011,-7,0,3,10,-9,0,0,-4
655961312780,-1,-3,3,5,1,-3,0,0
655961312780,2,-4,-10,9,-2,-3,-4,-1
655961319544,-5,0,2,9,-1,7,2,-1
655961319544,-1,-3,0,-7,2,-4,-1,-2
655961335951,0,-4,-1,-2,10,-3,-3,-3
655961335951,2,2,-6,0,-1,-1,0,1
655961337519,-4,-2,-5,-28,2,-1,-2,1
655961337519,-3,-2,-4,1,-7,0,-1,-2
655961358405,2,0,-4,5,-20,1,0,1
655961358405,-7,-2,7,3,3,-2,-3,-3
655961360073,0,-1,1,14,-5,-1,-1,-2
655961360073,3,5,-4,-39,8,2,-3,1
655961371990,-5,-3,-1,-23,5,-1,-1,0
655961371990,-4,-4,-1,5,-1,-5,2,0
655961381110,-1,-4,-6,-14,-11,2,-2,-1
655961381110,5,2,0,18,0,-5,-1,2
655961395990,-2,-2,-2,3,-1,1,-1,-4
655961395990,-1,1,1,3,0,2,0,-2
655961397450,0,0,-3,-23,-4,-3,-3,-2
655961397450,-7,-3,1,14,1,-1,1,0
655961418533,-2,-4,0,-20,-7,-3,-2,-3
655961418533,3,-2,-9,6,0,-2,-2,0
655961419988,-3,6,-4,-10,-6,0,0,-1
655961419988,-4,-4,4,8,3,2,1,-1
655961432087,0,0,-2,43,7,-3,-3,-2
655961432087,3,2,-5,-27,6,-1,-1,0
655961441119,-4,3,5,14,-42,4,3,-2
655961441119,-2,-3,-7,-31,-1,-2,0,-1
655961455979,2,-5,-7,17,0,-4,-3,-1
655961455979,-4,1,4,-37,-1,-2,0,-1
655961457547,-2,4,0,14,11,-5,-5,-1
655961457547,2,-9,5,11,2,-3,-2,0
655961478339,0,5,-2,0,35,3,1,3
655961478339,-4,-3,2,2,-48,1,-3,-4
655961480032,2,-2,5,-5,25,-4,-2,-2
655961480032,0,2,-7,-6,-8,4,1,0
655961492107,-2,0,1,-24,-11,-5,-1,0
655961492107,0,-3,-7,3,13,2,0,0
655961501053,2,-4,3,2,-12,-1,-2,0
655961501053,-3,3,3,29,13,0,0,-1
655961515985,0,2,8,-11,28,-4,-1,1
655961515985,0,-6,-11,20,-28,-1,-2,-1
655961517489,-3,-8,-7,-15,-18,3,1,1
655961517489,-1,-1,-3,7,0,-1,-2,-3
655961538450,5,3,4,-9,-16,1,-1,1
655961538450,1,-3,-4,3,18,-4,1,-1
655961539984,-6,-4,-3,-3,2,-3,-1,-2
655961539984,-4,-4,-8,-5,-5,-4,-1,-3
655961552134,-1,-1,-4,-13,-12,2,-1,0
655961552134,-3,2,8,17,1,1,0,-1
655961561007,2,-2,-6,-1,4,2,-1,-1
655961561007,1,0,-2,-29,-4,-4,-3,0
655961576041,-2,-2,-3,6,-1,0,0,-1
655961576041,-5,0,-1,-15,2,0,-2,-1
655961577495,4,-1,-1,13,14,-6,-2,-1
655961577495,-3,1,4,7,-25,-1,-1,-1
655961598380,-3,-3,-9,-3,-9,10,2,-1
655961598380,-1,-1,4,3,-5,-3,-3,-4
655961599984,1,-1,3,11,19,-2,-3,0
655961599984,-1,-4,-7,-43,-3,-2,-2,-1
655961620975,-6,-2,5,11,-13,-4,-2,-3
655961620975,3,1,2,16,11,2,-1,-1
655961622516,-1,6,0,0,-5,0,0,0
655961622516,-2,-5,-1,14,9,-2,-1,-3
655961636028,0,-6,-7,0,-9,-5,-2,0
655961636028,2,0,1,-1,9,1,0,0
655961637533,-4,-1,5,-2,-10,-3,0,-3
655961637533,-4,2,-3,-37,-3,-1,-3,-4
655961658365,1,-1,-12,-34,-1,-4,0,0
655961658365,-5,-4,4,29,2,-1,2,-1
655961660043,-3,-2,-3,-19,-4,1,-5,-1
655961660043,6,0,0,45,8,0,9,6
655961672077,-2,-1,11,-13,1,0,-10,-15
655961672077,1,1,-3,-7,0,0,17,11
655961680992,0,-3,2,6,-10,-8,-26,-17
655961680992,-5,0,-4,-2,7,0,-3,-3
655961695982,-5,-1,0,-4,-3,-1,5,7
655961695982,3,-3,4,-1,-5,-2,9,4
655961697509,5,-8,-19,-18,-6,-1,27,12
655961697509,4,2,6,35,2,-4,-30,-20
655961718484,-34,-4,-5,4,-3,-2,-26,-12
655961718484,5,-1,11,18,-1,0,4,2
655961719992,-4,-1,-5,5,2,-2,2,7
655961719992,12,-1,-14,-35,-3,2,28,1
655961732190,-13,0,4,-4,-9,-7,-26,-12
655961732190,6,2,-6,-33,3,4,-13,0
655961741013,12,2,-2,-9,-7,1,-8,4
655961741013,-14,-4,5,9,1,1,6,6
655961755947,2,3,-5,12,3,0,27,6
655961755947,-13,-4,0,11,-3,-5,-16,-10
655961757480,-10,-2,9,8,5,0,-15,-2
655961757480,13,-3,-8,-58,-1,0,-5,2
655961778383,5,0,6,39,1,1,9,3
655961778383,-10,0,-7,-11,-2,-1,0,-9
655961780062,9,-2,3,12,-4,-4,4,-3
655961780062,-5,-3,-6,-7,-1,0,-4,2
655961800876,4,0,-2,10,-3,2,5,1
655961800876,4,3,0,2,6,3,0,-2
655961802495,-1,1,-4,-37,10,-6,-7,-4
655961802495,-9,-2,0,21,13,-1,-1,0
655961815920,5,-1,0,-46,-23,5,4,1
655961815920,3,-4,-6,-12,-14,-9,-8,-3
655961817461,-10,-1,3,38,11,-1,3,-1
655961817461,-8,7,20,39,-19,3,-2,-2
655961838917,13,-6,-8,-38,-2,-6,1,-1
655961838917,-3,3,10,2,-4,5,0,1
655961840484,-4,1,4,3,5,-6,2,-5
655961840484,-1,-7,-13,-20,16,1,0,-1
655961860996,9,-3,4,29,-9,-5,-6,2
655961860996,-8,2,-1,9,-8,-6,2,-4
655961862520,-8,-14,-10,-42,-29,4,0,-2
655961862520,4,-2,-4,-1,-3,-1,-5,-1
655961875295,-5,-3,-2,32,-5,0,1,0
655961875295,-2,0,5,-22,20,-4,-2,-5
655961882135,4,1,-8,-12,-8,0,-1,0
655961882135,-2,6,-2,10,-7,3,1,1
655961898512,-2,-3,16,4,16,1,3,1
655961898512,0,-3,-2,22,-2,-4,-3,-2
655961900054,-2,-1,-6,-58,-28,4,1,-1
655961900054,-2,1,6,15,20,0,-2,0
655961921516,0,1,-8,4,0,-1,1,-2
655961921516,2,1,1,-13,-7,-1,-2,-2
655961922976,-6,-2,-8,-8,4,0,3,-1
655961922976,-4,-2,-4,-3,-3,-6,-1,-2
655961935972,6,-1,-9,2,10,-2,-1,1
655961935972,-5,-3,-13,-21,5,0,-3,0
655961937541,-3,2,5,27,4,0,0,-1
655961937541,3,-1,7,15,-3,-4,-1,-3
655961958515,4,4,3,-3,4,0,-2,2
655961958515,0,-1,-4,-10,-6,2,0,0
655961960065,-8,-3,-6,35,2,-4,-4,-5
655961960065,1,-3,-1,-38,-5,-1,2,2
655961980948,-7,-2,-8,-16,-1,0,4,-1
655961980948,0,-2,2,4,0,0,-2,-5
655961982532,7,-2,1,-2,9,2,-2,5
655961982532,-5,-3,-9,-8,-11,-4,-15,-7
655961995309,-3,-5,6,16,-3,-2,3,1
655961995309,2,-2,-9,-14,2,-1,-2,4
655962002140,3,-2,-10,13,5,3,9,3
655962002140,-4,-4,-2,41,-5,-1,5,1
655962018478,-2,2,3,-4,-3,-1,-2,1
655962018478,5,4,-4,-17,-2,-6,-21,-7
655962020068,-2,-5,11,32,2,1,4,-10
655962020068,-4,2,1,-6,4,-1,5,9
655962040989,2,-7,-24,-53,-13,-2,-20,-3
655962040989,-7,5,12,39,6,-2,9,12
655962042573,-2,3,0,-11,1,-2,0,-5
655962042573,-4,-2,6,27,-8,-7,-33,-14
655962055251,2,0,-13,-24,7,3,17,7
655962055251,-3,-4,-3,-8,-7,-1,-13,-14
655962062094,-2,-2,4,5,1,2,3,6
655962062094,6,-5,2,14,4,-2,12,4
655962078460,-9,5,10,24,-2,-2,-3,1
655962078460,-1,-3,-1,-18,0,-1,-1,-4
655962080032,5,2,4,-12,-7,-3,5,4
655962080032,-1,7,-14,-1,-3,1,8,0
655962101025,-8,-19,15,48,5,0,-7,-5
655962101025,0,-4,-3,-11,-3,-3,10,0
655962102513,2,3,1,-12,-1,0,-11,-4
655962102513,-1,-4,-3,-15,1,1,4,3
655962115381,-2,2,-2,7,-4,-5,-1,-8
655962115381,-1,-1,-2,-8,-4,1,0,2
655962129546,-2,-1,-1,-2,4,0,0,-3
655962129546,-2,-1,2,10,-6,-4,-3,-6
655962138439,5,1,-2,-47,-4,-2,2,3
655962138439,2,2,7,43,4,3,1,-1
655962140032,-7,-3,-12,-45,-2,-3,-8,-3
655962140032,-1,-1,-6,-13,-6,-4,0,-3
655962168494,5,3,2,20,7,1,-2,-2
655962168494,-7,-6,0,13,1,-3,2,2
655962170014,-5,-3,-5,0,-10,-6,-4,-6
655962170014,2,2,9,0,6,-1,-4,2
655962175262,1,2,6,10,1,1,9,1
655962175262,-2,2,-20,-56,-14,-1,2,-4
655962182061,5,-13,4,25,-1,-6,-19,5
655962182061,-5,-2,2,-8,2,2,-3,-2
655962198505,-1,3,0,8,1,-2,1,-4
655962198505,0,-4,0,20,0,-2,-3,5
655962200124,0,3,-1,-12,0,2,4,1
655962200124,0,-1,-2,1,1,0,1,-1
655962220878,-4,-5,-8,-15,-12,-5,1,1
655962220878,5,-2,-1,2,-2,-2,7,4
655962222499,-4,3,9,6,3,2,2,-2
655962222499,-1,-2,-9,-19,6,3,-7,-12
655962235233,0,0,-1,12,-4,-4,-8,-3
655962235233,-2,-4,-5,-1,8,4,6,-1
655962242179,-4,3,7,-12,-11,-3,0,-1
655962242179,7,-3,-5,-1,-3,1,9,9
655962258437,-6,0,-2,-11,-2,-5,-10,-7
655962258437,-6,-2,4,13,4,2,11,1
655962260144,-4,-1,-2,-18,0,-8,-15,-10
655962260144,1,-3,-7,15,-5,-3,1,3
655962280937,1,8,-9,-9,5,-3,-1,-3
655962280937,-7,-16,2,6,-14,-3,1,12
655962282543,10,3,-8,-2,-1,0,2,-7
655962282543,6,2,11,5,1,-3,8,1
655962294663,-36,-6,-16,-23,2,2,-7,-9
655962294663,-3,0,0,-5,-2,-2,-5,-6
655962303579,-3,0,-4,-1,2,2,8,10
655962303579,0,-2,-10,-2,0,-1,-13,-13
655962318481,11,-1,8,0,2,1,2,5
655962318481,5,0,-3,-11,-2,0,-3,-6
655962320047,-6,-1,-5,-5,0,1,-2,-1
655962320047,-5,0,10,25,-4,-4,4,-2
655962340896,13,0,-1,-3,0,1,-1,4
655962340896,-6,5,13,9,-8,-2,-8,-11
655962342558,1,-3,1,-5,6,-2,5,1
655962342558,-1,-3,-6,-19,0,-3,-3,-1
655962354656,0,-2,5,14,-9,0,1,1
655962354656,-1,3,-2,-12,0,3,-4,-1
655962363541,-5,-1,-11,24,3,-2,1,-1
655962363541,-3,-3,3,-37,-11,-2,-2,1
655962378419,-5,-5,-8,-22,-6,-3,-3,-6
655962378419,0,1,2,0,1,0,1,0
655962379987,2,-3,-3,10,-1,-2,-1,-2
655962379987,-6,-2,2,-3,1,-1,-4,0
655962400939,5,1,1,12,-2,-4,4,3
655962400939,6,1,-4,23,5,-1,-10,-7
655962402532,-2,-1,2,-29,-2,1,2,1
655962402532,-8,-8,-11,11,-1,-3,-7,-1
655962414499,2,0,4,9,-2,-3,2,-4
655962414499,0,0,-4,30,6,-2,-2,0
655962423624,-1,-2,-1,-15,2,2,-1,1
655962423624,-1,4,6,-11,-12,2,4,0
655962438377,3,2,-2,-4,2,-2,-2,0
655962438377,-3,6,-1,-21,-8,-2,-2,-2
655962440023,-4,-12,-2,11,8,-2,0,-5
655962440023,3,-1,0,-13,5,-1,2,2
655962460956,0,1,2,8,0,2,0,2
655962460956,-3,-2,1,-7,5,-4,-2,-1
655962462531,1,4,7,49,0,-3,-1,-4
655962462531,1,-1,-6,-47,-12,2,1,1
655962474633,-4,-5,-3,9,-1,0,-3,-1
655962474633,0,-3,2,18,2,-1,1,-1
655962483619,1,2,-1,-13,1,-3,-4,-1
655962483619,-6,-4,-9,-6,1,0,-2,-5
655962498429,-3,2,2,-4,3,-1,1,-3
655962498429,0,-4,-7,-4,-2,0,0,2
655962500082,1,8,13,6,0,3,6,4
655962500082,-1,-1,-2,13,2,-1,-2,-3
655962520977,1,0,-4,1,-3,-4,3,-2
655962520977,1,-8,1,-16,-2,-5,-9,-2
655962522546,-5,-5,-9,-6,-5,-2,5,6
655962522546,-5,-2,6,22,0,-2,-14,-9
655962534658,3,8,7,5,3,0,10,4
655962534658,-5,-7,-15,-8,-6,0,-6,-1
655962543625,-6,-4,-5,-31,-11,-4,-4,-3
655962543625,4,0,-7,5,-2,-3,4,3
655962558518,-2,1,3,11,6,2,2,1
655962558518,1,4,6,23,0,-1,6,3
655962560085,-2,-4,-5,-37,-10,-5,-5,-5
655962560085,3,0,-3,3,3,-2,11,5
655962580986,-5,-6,-5,2,-3,-1,-12,-16
655962580986,0,-3,-4,-18,-1,-1,6,3
655962582559,1,1,3,17,-4,-6,-8,-2
655962582559,-5,0,-4,-3,1,-2,-6,-8
655962594566,7,-3,-4,-3,-1,1,13,3
655962594566,7,0,2,8,-3,-3,-19,-4
655962603595,-4,3,-8,-17,4,4,7,7
655962603595,-3,1,10,30,1,3,5,0
655962618377,1,0,0,-12,-6,-5,-13,2
655962618377,0,3,-6,-11,2,3,5,2
655962620048,6,-9,8,43,3,2,4,4
655962620048,-2,-4,1,-16,-1,-2,-1,-1
655962641033,2,1,-1,-18,-1,-4,-4,0
655962641033,-7,4,4,26,-8,-5,3,-4
655962642532,-4,-4,-7,10,2,1,-7,-6
655962642532,0,0,0,-4,1,-4,-3,-2
655962654583,-4,-2,0,4,-1,1,-3,-3
655962654583,-3,-2,2,1,2,-2,0,-1
655962663581,1,-1,-8,-37,-4,1,-1,1
655962663581,4,0,1,-13,-5,-1,-4,3
655962678476,-7,-5,-3,-16,-4,-2,0,1
655962678476,-4,-7,-15,5,-1,-1,21,5
655962680048,-2,-2,1,-11,-5,-7,-28,-23
655962680048,-1,0,8,27,6,2,-9,5
655962701058,-5,-3,-11,-42,-4,0,-4,-1
655962701058,3,-4,-2,3,1,-2,-2,2
655962702580,1,1,1,8,0,2,11,4
655962702580,-1,0,-2,19,-1,-2,5,1
655962714605,1,-3,5,27,1,-1,-5,-3
655962714605,0,0,-4,-38,2,3,-1,-2
655962723624,-1,7,2,13,-2,-1,3,-1
655962723624,-1,-11,-3,-2,1,-2,-7,-5
655962738401,1,-1,-6,4,1,1,1,5
655962738401,-5,5,8,-12,2,-2,-1,-5
655962740008,-6,1,-3,-20,4,1,-6,1
655962740008,2,3,-4,34,-9,2,7,3
655962761001,0,0,3,9,2,0,-2,-9
655962761001,-5,-9,-6,-20,-7,-4,-10,-7
655962762480,2,1,9,17,0,-5,9,-2
655962762480,-2,1,-22,-45,-5,-3,-15,-12
655962783396,-4,-5,0,12,1,0,-3,4
655962783396,-3,1,7,17,-1,-2,2,1
655962785105,4,0,-6,-11,-4,-3,4,3
655962785105,-8,-5,4,-1,2,0,0,-4
655962798277,1,7,5,-39,-5,-3,1,-2
655962798277,0,-5,-8,22,-4,-1,-8,-4
655962806131,-1,1,-8,3,-2,0,3,7
655962806131,1,-1,3,7,0,0,4,4
655962821004,-2,-5,-8,5,0,-3,-6,-5
655962821004,2,0,5,-8,-3,1,2,1
655962822555,-4,-3,0,2,0,1,-2,-4
655962822555,1,2,2,-2,0,-2,-1,-2
655962843509,4,5,-3,15,-2,-2,-2,0
655962843509,-3,-4,7,11,2,0,3,0
655962845083,-3,-2,-19,-59,5,2,-3,-4
655962845083,0,0,3,28,-5,-4,-1,-1
655962858586,-4,-7,-5,-10,-12,3,4,2
655962858586,-2,4,5,3,-1,-2,-2,0
655962860120,1,0,4,25,-3,-1,-5,-4
655962860120,-2,-2,-9,-28,6,0,4,5
655962880888,-4,3,8,-2,5,-1,-2,-2
655962880888,-1,-1,-2,8,0,-1,2,-3
655962882570,1,-6,-10,23,-8,-5,-10,-1
655962882570,-3,0,-5,-18,-1,-3,-3,-1
655962903425,-3,-2,-3,-33,-3,0,0,-1
655962903425,5,2,1,-23,4,-3,-5,0
655962905057,-3,2,11,12,5,3,7,3
655962905057,-2,0,0,26,-7,-1,1,-2
655962917801,0,-4,-10,-22,1,-2,-7,-2
655962917801,-1,0,0,-18,-4,-4,3,7
655962924659,-7,-5,-2,15,0,0,-2,-8
655962924659,-3,2,0,-22,1,-1,-2,1
655962941006,2,-1,-2,14,-1,-1,0,0
655962941006,-4,0,-14,-1,0,0,-1,-2
655962942568,-3,-11,6,30,1,-1,3,2
655962942568,2,-6,-12,-4,-3,-3,-4,-5
655962963533,-2,9,15,31,3,1,13,9
655962963533,-3,-3,-2,-6,-2,0,-15,-13
655962965123,-6,-1,-6,-53,-6,-7,-10,5
655962965123,3,1,0,-9,-1,1,-1,-1
655962977851,-3,-6,-7,1,1,-3,1,0
655962977851,2,0,-1,6,-4,-1,11,0
655962984636,4,8,4,8,-3,-1,-5,-7
655962984636,-2,-1,6,2,2,-2,1,3
655963000914,-3,0,-1,19,3,0,-7,-13
655963000914,5,2,-8,-43,-4,-2,2,3
655963002593,-3,-3,0,-8,-4,-1,0,-2
655963002593,-6,-8,-3,1,0,0,3,0
655963023483,2,-3,4,38,1,-1,-3,-3
655963023483,0,-3,1,8,3,1,3,6
655963025054,1,5,1,24,-7,-5,-4,-4
655963025054,0,-9,-1,-8,-4,-2,-10,-3
655963037910,1,-4,-10,1,1,0,-2,2
655963037910,-12,-1,3,-15,-1,0,-9,-9
655963044571,-2,0,13,32,3,1,10,7
655963044571,2,3,-18,-28,-2,-2,2,-6
655963061042,-3,-3,-3,18,-1,-2,6,-3
655963061042,-2,-3,-3,10,1,-2,-12,5
655963062623,4,1,3,0,-4,-1,-4,-1
655963062623,0,1,-4,-2,3,2,5,2
655963083542,-4,-4,-3,-39,-4,-2,-5,-1
655963083542,1,-1,-1,-3,4,-2,3,-2
655963085095,1,-2,2,21,-5,1,1,-1
655963085095,-3,3,7,-12,0,1,-4,-3
655963097521,-6,-7,-3,-42,-4,-4,-1,1
655963097521,2,-1,-1,19,-5,-1,-1,-2
655963106131,0,1,2,-17,7,0,-4,-2
655963106131,-1,0,2,12,-2,0,2,3
655963120974,4,5,0,3,-3,-3,0,0
655963120974,12,1,-4,-20,-1,0,2,-1
655963122527,-13,3,-7,-21,6,3,-5,-6
655963122527,-18,-5,6,20,-4,-2,3,3
655963143532,6,4,5,32,-1,3,17,3
655963143532,-14,-7,-8,14,-6,-4,-30,-14
655963145083,7,-6,-9,-64,-3,-4,-9,-6
655963145083,7,6,3,3,-4,-2,0,-2
655963157882,-8,0,-1,8,2,-1,7,9
655963157882,4,2,8,15,-3,5,9,-9
655963164637,2,0,-17,-23,-7,-4,-4,3
655963164637,1,0,8,-6,3,0,-4,0
655963181028,0,2,4,19,-1,-1,7,-1
655963181028,-4,-4,-2,23,2,-3,-6,-5
655963182581,2,-3,0,-47,-7,-2,-5,7
655963182581,-2,5,10,10,3,2,-8,-5
655963203514,1,-6,-10,-35,-9,-4,-15,-13
655963203514,-1,0,4,3,2,-3,5,5
655963205087,-8,0,3,31,4,1,0,-1
655963205087,-1,0,-7,-4,-7,-5,-4,-16
655963217857,13,-11,0,-32,0,-1,-9,5
655963217857,-6,1,-7,9,-1,0,-3,5
655963224644,-1,-6,8,38,4,2,13,2
655963224644,1,1,-9,-10,-2,-2,-6,-1
655963240950,-4,-2,1,18,0,-1,-8,-3
655963240950,-1,-1,-11,-58,-4,-2,8,0
655963242580,-4,1,9,30,3,1,3,3
655963242580,1,-3,-18,-22,-10,-6,4,3
655963263329,-7,-1,2,9,1,1,-6,-7
655963263329,-1,-5,-5,-9,1,0,4,5
655963269660,8,4,1,23,-3,-1,12,-1
655963269660,13,3,11,-33,3,-2,-9,9
655963286013,-30,-5,-4,29,-1,1,-9,-5
655963286013,-17,-5,-17,14,-6,-2,0,-10
655963287491,15,-10,-17,-5,2,-2,-7,-8
655963287491,-13,2,2,25,1,-1,19,14
655963301034,36,-2,6,-23,-4,-2,-8,-5
655963301034,-10,4,4,19,3,0,-10,-1
655963302635,1,-5,-9,-10,-5,2,-2,7
655963302635,2,17,34,27,4,0,-26,-6
655963323460,-10,1,-8,3,-1,-4,1,11
655963323460,11,-2,0,-27,-1,1,10,-14
655963325080,-2,-1,-11,-13,-3,-2,2,-2
655963325080,-3,-14,-12,-17,-4,-2,5,-1
655963337181,5,7,6,8,1,-1,1,2
655963337181,4,7,4,-14,-2,-2,3,4
655963346161,-12,-12,9,12,3,-2,1,-4
655963346161,1,-2,-5,31,-2,0,1,-1
655963361075,-7,2,-6,-25,0,-1,1,-7
655963361075,2,-4,2,18,-4,-4,-2,3
655963362518,-5,2,-7,-10,-8,-3,-7,-3
655963362518,-2,-4,-3,7,8,2,2,-5
655963383551,-3,-4,-6,-1,4,0,1,-3
655963383551,-2,-4,-5,-38,-17,-3,-3,4
655963385088,4,6,13,37,21,-3,-1,-1
655963385088,3,0,-7,-10,5,3,4,1
655963397181,-6,0,-2,5,-4,2,1,1
655963397181,1,-4,2,-41,-21,-8,-3,0
655963406143,-12,-4,-9,4,-12,-6,3,-7
655963406143,1,-6,-7,9,5,6,5,0
655963421024,-2,-1,0,14,9,-2,-1,-3
655963421024,2,2,0,-21,10,4,0,3
655963423161,-3,1,-1,4,4,-2,-3,-4
655963423161,4,-4,-3,-33,-5,-7,-4,-2
655963443448,3,-1,-4,26,-6,-2,-3,1
655963443448,-7,-3,-11,-21,-9,0,0,-3
655963445081,-6,4,12,6,-2,0,-2,-1
655963445081,0,-8,-4,-3,6,-2,-2,0
655963457175,-3,1,9,11,-6,-3,-1,-2
655963457175,-1,-5,-14,12,11,1,-3,0
655963466095,3,9,-3,-10,-11,-2,-3,1
655963466095,-4,-10,2,0,-1,0,-1,-4
655963480998,-4,2,1,-13,-9,1,-1,1
655963480998,0,-4,4,-8,-1,-3,-2,0
655963482534,3,3,-6,16,1,3,1,1
655963482534,-1,3,7,28,-6,0,1,-2
655963503527,1,-2,0,17,21,-2,-3,-1
655963503527,2,-1,12,19,-7,4,1,-1
655963505075,-5,-5,-20,-60,-8,-5,-3,-2
655963505075,-1,1,-2,-2,-5,-5,0,-3
655963517235,3,-1,0,-12,3,0,1,-1
655963517235,-7,0,2,0,7,-1,-3,-2
655963526090,-1,2,12,3,-7,-3,-5,-1
655963526090,5,0,-7,-5,17,-4,-1,1
655963541043,-6,-1,-5,-8,-27,-2,-1,-2
655963541043,2,-3,-5,1,-2,-1,5,0
655963542566,0,-5,-6,12,11,3,-2,0
655963542566,2,4,-1,-18,-4,-3,-6,-1
655963563482,-3,1,6,-7,-14,-1,4,1
655963563482,-1,-5,-7,14,8,-2,-1,0
655963565084,3,-4,0,-11,-7,-1,0,1
655963565084,-9,0,0,-2,-4,1,1,-3
655963585323,0,2,-8,4,6,-1,-2,-1
655963585323,1,-9,12,27,1,-2,-2,-2
655963586038,1,-2,-9,-10,-4,-2,-3,-2
655963586038,-1,1,3,-10,-3,0,0,1
655963600306,-2,1,0,13,-3,-3,-4,-6
655963600306,2,4,4,29,12,4,2,3
655963601073,-3,-3,2,-9,-5,1,2,-4
655963601073,-7,-5,-8,-25,-7,-4,2,-3
655963622854,2,-3,5,-2,11,-6,-3,-2
655963622854,2,10,13,-7,-13,5,-2,4
655963623590,-5,-3,-6,13,4,-1,-2,-3
655963623590,1,-4,-3,22,-18,-3,-1,1
655963645372,-3,-3,-5,-33,0,2,0,-2
655963645372,-5,-1,-1,0,3,-6,2,0
655963646087,3,0,3,-1,1,0,-6,-7
655963646087,0,2,-2,5,-4,-3,-3,0
655963660364,-7,-4,-4,8,6,0,-1,-1
655963660364,-3,1,0,11,4,-3,0,-3
655963661162,3,-1,-4,2,3,-1,-1,7
655963661162,-9,-2,4,-5,-1,0,-9,-11
655963682813,-2,-3,4,-8,-4,0,-2,-2
655963682813,0,-5,-27,-41,-8,-4,-2,-3
655963683542,0,5,7,10,16,1,5,2
655963683542,-1,-11,8,28,-9,2,2,1
655963705275,0,1,0,7,-6,-1,-2,1
655963705275,2,2,5,-4,0,2,3,1
655963706058,-6,-6,-2,-14,5,-4,-8,-10
655963706058,1,-1,-8,-13,2,2,-1,0
655963721733,4,8,6,12,-14,-4,-3,0
655963721733,-1,-2,0,10,2,-3,-2,1
655963722611,-4,-1,7,-15,-8,2,0,-2
655963722611,-1,-1,-15,-52,-10,-3,0,-2
655963742797,2,-4,-3,-5,10,2,0,-1
655963742797,-3,2,2,8,-1,1,-2,0
655963743567,0,-4,-3,21,1,-2,1,1
655963743567,4,4,7,9,5,-2,-1,1
655963765287,-3,-5,-2,-13,9,1,-1,0
655963765287,-4,0,-3,-6,-8,-1,-4,-4
655963766065,7,1,5,18,-6,0,-2,0
655963766065,-8,-4,-9,-35,1,-1,1,-3
655963780309,-4,-3,-10,-2,-4,-1,-2,-1
655963780309,0,-1,1,21,4,-1,-2,-3
655963781084,0,0,-2,7,-3,1,5,4
655963781084,-1,0,-3,-5,3,0,-5,-9
655963802818,0,-2,-1,1,-5,-4,-5,-1
655963802818,1,-1,3,28,0,-1,-2,-2
655963803598,-6,-1,-9,-54,-10,-5,1,0
655963803598,0,2,-1,9,-1,-1,-1,1
655963833564,3,-4,-7,2,26,-1,0,0
655963833564,-4,4,17,12,-22,-1,1,1
655963834254,-1,-2,-4,13,14,5,-2,-2
655963834254,1,-2,9,1,-19,-4,-1,0
655963840280,-5,-3,-8,-3,-5,-1,1,-4
655963840280,0,0,-11,-13,10,-2,-1,-1
655963841120,1,-4,-3,-5,3,-3,-3,-2
655963841120,3,3,7,14,-1,1,-1,2
655963862851,0,-2,-8,-22,3,4,3,1
655963862851,-5,-1,2,-24,-3,-5,-4,-5
655963863530,1,-2,2,23,-3,1,1,0
655963863530,-5,-4,-17,-1,-2,-2,-2,-2
655963885324,-4,-1,8,-28,4,-5,-1,-4
655963885324,2,-4,-10,-15,-20,-3,-5,1
655963886094,-2,1,-2,6,-7,3,-1,0
655963886094,0,1,8,24,6,-1,1,0
655963900253,0,1,-3,11,-5,-3,-1,1
655963900253,2,-1,-2,-15,12,-3,-2,-3
655963901087,-4,1,4,21,-2,-3,-2,-3
655963901087,-2,-6,-13,-23,-18,3,0,-1
655963922821,3,11,11,-9,6,0,-1,-1
655963922821,-3,-20,-19,-3,5,3,0,-2
655963923604,-6,-6,-5,7,2,-8,-3,-5
655963923604,0,2,7,5,-10,0,-1,0
655963945244,5,2,11,8,9,0,2,4
655963945244,-7,0,-21,-19,-41,7,2,-5
655963946046,3,5,-1,1,-28,3,-5,-2
655963946046,1,4,26,-32,15,-3,0,-1
655963967353,-2,-5,8,23,24,-8,-3,-5
655963967353,-4,-2,-13,-6,-10,2,2,-1
655963967377,3,0,-2,-5,7,-5,-2,2
655963967377,-4,-3,-16,8,0,0,0,-10
655963982814,0,4,10,4,-7,4,0,1
655963982814,5,4,18,12,21,-4,-4,1
655963983590,-1,-3,-4,-13,-2,3,0,3
655963983590,-3,-2,-7,20,12,-1,-2,0
655964005523,1,1,18,5,1,-8,-2,0
655964005523,4,-3,-9,-2,25,3,-1,4
655964007836,-10,-5,-13,-20,-61,-5,-4,-8
655964007836,-7,-12,7,-18,-11,3,0,-1
655964020312,2,-4,-10,4,-6,-1,-1,3
655964020312,-1,5,25,4,4,-3,0,-1
655964021859,-3,0,-6,-18,37,4,0,-2
655964021859,5,-1,-9,12,2,-6,-3,3
655964042785,-7,-4,-9,-3,-14,1,2,-2
655964042785,0,6,0,10,3,-1,0,-2
655964043555,-2,-12,-1,-22,2,-4,-1,1
655964043555,0,-1,-10,7,-4,-2,-2,1
655964065301,-3,-6,-12,-11,-5,2,-4,-3
655964065301,-4,1,0,-11,2,-2,5,-3
655964066081,5,2,3,11,-5,-4,-1,1
655964066081,0,0,5,14,2,0,4,2
655964080300,-5,-1,-5,26,-9,0,-11,-2
655964080300,2,-6,-14,-69,-2,-1,13,-1
655964081048,-2,1,11,29,4,2,-11,8
655964081048,-1,1,3,18,10,-2,-14,-24
655964102813,-4,-6,-12,-5,-12,-2,4,13
655964102813,3,-1,-5,-7,-11,-6,-18,10
655964103596,-3,-3,-5,4,10,-1,4,-14
655964103596,15,2,-4,-3,0,2,-11,16
655964125352,-17,-4,-1,54,-6,-3,5,-11
655964125352,2,4,2,-44,-3,0,2,3
655964126121,12,13,2,-15,5,2,10,2
655964126121,-5,-4,0,31,1,-1,-6,-22
655964140350,-27,-2,4,-28,-13,0,0,10
655964140350,5,-5,-5,40,8,0,-13,-2
655964141133,2,5,8,40,-2,-3,8,-1
655964141133,18,6,-8,-54,1,-1,8,0
655964162898,-7,-4,1,6,-1,0,-8,-2
655964162898,-7,0,-1,7,-1,0,4,-3
655964163644,4,-3,0,-14,-1,-3,-5,-1
655964163644,1,2,5,11,1,-3,3,2
655964185397,10,1,-9,-31,-2,0,1,-8
655964185397,-3,-3,-12,7,6,0,-3,-3
655964186156,1,0,13,-25,-7,3,2,-1
655964186156,-15,-3,-9,1,9,-6,-2,3
655964201870,9,2,-5,-7,-32,-2,-1,-3
655964201870,1,-1,20,22,11,12,7,2
655964202614,-3,5,-16,-6,9,-4,-5,0
655964202614,-11,-18,7,17,-22,-5,3,1
655964222796,5,-3,-13,-10,1,-6,-2,-6
655964222796,4,0,23,22,25,3,0,-2
655964223587,-8,-8,-6,-15,-12,4,-1,0
655964223587,-2,4,3,9,9,-2,-2,3
655964253514,5,-1,12,7,-2,3,2,-1
655964253514,-8,-6,-17,-8,5,-10,-4,-5
655964254275,-1,1,8,17,-3,0,-2,-1
655964254275,-1,3,0,2,3,1,2,0
655964260282,2,-4,-15,-10,4,2,-3,-2
655964260282,-3,-2,4,27,-2,-8,-3,-3
655964261075,-4,0,-5,-28,1,-6,-3,-1
655964261075,-4,0,4,-9,-9,1,0,-1
655964282881,4,6,6,-11,0,6,1,3
655964282881,3,0,-35,-8,-8,-6,-1,2
655964283596,-6,-8,3,6,-5,-6,-4,-4
655964283596,-11,-3,7,-22,-31,4,0,0
655964305307,4,-2,5,7,16,-4,0,-2
655964305307,3,1,-21,12,27,-1,-2,-4
655964306173,-7,3,-1,-2,-16,1,0,-1
655964306173,-1,-5,9,1,-6,-2,0,1
655964319693,2,5,-15,-17,-5,-5,-2,-3
655964319693,-1,8,51,16,-8,-4,0,-2
655964327963,-4,-21,-84,-15,-6,4,-2,-4
655964327963,2,3,12,4,12,0,-1,1
655964342834,-5,-6,-11,-8,3,0,1,-3
655964342834,-5,1,21,-12,-11,-1,0,-4
655964343748,1,-5,9,8,6,-6,-4,1
655964343748,2,5,4,6,3,-1,-2,2
655964365333,-2,-7,-9,-19,8,2,1,-3
655964365333,-2,-2,-13,2,-23,-1,-2,-1
655964366108,1,9,19,8,14,-3,-2,1
655964366108,-4,-6,-21,-5,-1,1,1,0
655964379710,-1,2,11,8,15,-1,-3,-3
655964379710,0,-3,-2,-8,-13,4,1,0
655964387912,-5,1,5,-12,-16,1,1,-3
655964387912,0,1,-12,-10,8,-2,0,0
655964402807,2,-5,8,26,1,-3,-2,0
655964402807,-2,0,-5,21,-5,-1,1,0
655964403631,-2,0,-1,-41,5,-4,0,0
655964403631,2,0,-12,22,4,-3,-3,-3
655964425389,4,-2,4,13,-11,-1,0,1
655964425389,-11,-4,-16,-15,-4,-5,-4,-6
655964426204,-3,-1,22,-4,7,-1,1,0
655964426204,1,-2,-4,-25,-10,-1,-1,0
655964439747,-1,5,-5,0,-2,1,1,0
655964439747,-5,-4,7,39,-6,-1,-1,-1
655964447874,2,-8,-1,2,3,-2,-2,1
655964447874,-1,6,4,-44,-1,1,-1,-1
655964471019,-3,-2,3,5,-8,0,4,-1
655964471019,1,-5,-3,5,-5,-2,-9,-7
655964471875,6,2,0,-24,1,0,1,4
655964471875,5,-4,-4,17,5,-1,-2,0
655964485295,-41,-5,2,-17,-9,-3,-6,-5
655964485295,9,5,-1,-13,-4,-2,0,2
655964486321,-3,-3,5,25,4,2,2,-4
655964486321,5,-1,-3,3,4,0,0,1
655964499666,-5,-2,-11,-3,-3,-4,-3,-2
655964499666,5,0,6,-44,-1,0,1,-3
655964507918,-35,-1,5,14,-2,1,3,4
655964507918,4,0,-6,18,3,-4,-3,-4
655964522803,11,3,-7,12,2,-2,0,-1
655964522803,-9,0,14,-11,-12,5,0,-1
655964523588,14,1,8,9,11,4,2,2
655964523588,-5,-7,-7,-23,-36,1,0,-1
655964545409,3,4,1,-20,47,-6,-5,-2
655964545409,-5,-5,-11,14,-65,3,3,-1
655964546210,6,0,-6,-16,-4,-5,-3,-4
655964546210,-3,2,1,2,35,-5,-2,1
655964559700,8,-5,-10,-26,-4,0,-4,-1
655964559700,-1,6,9,17,15,-3,0,4
655964567941,0,-10,-4,33,1,-2,-5,-3
655964567941,-4,-1,-12,-17,6,-2,-1,-1
655964582770,-2,-3,22,2,-12,-4,1,-1
655964582770,0,0,-11,4,8,0,-2,3
655964583607,-5,2,-12,-16,-5,-1,-3,-7
655964583607,0,0,2,16,6,-1,-1,-1
655964605389,9,2,-1,4,-6,5,-1,1
655964605389,-5,-2,-3,-9,-1,-2,-1,-4
655964606197,1,5,-4,9,17,-2,-1,-6
655964606197,2,-3,1,17,-2,-4,-2,1
655964619757,-2,1,-13,-17,-56,4,1,-1
655964619757,-5,-6,0,-16,-1,-3,-1,1
655964627950,1,-6,4,7,10,-4,-3,-2
655964627950,-1,3,3,-1,3,-1,0,-1
655964642963,-2,0,-26,41,9,1,-1,-2
655964642963,1,0,28,-39,8,-3,0,-1
655964643698,5,6,19,-26,-7,0,-3,-3
655964643698,-8,-7,9,30,-5,0,-1,-1
655964665374,-2,-4,19,-5,0,0,1,-1
655964665374,3,-4,-41,11,4,-2,-5,-1
655964666142,2,-2,15,11,0,-1,1,2
655964666142,-4,-4,4,-6,-11,1,0,-5
655964688567,0,-4,-1,6,-2,-2,-3,-1
655964688567,4,2,5,-2,13,-4,-2,0
655964689302,-4,0,-5,-9,-10,1,-3,-2
655964689302,-1,0,-9,5,-3,0,-1,-1
655964702794,7,1,-6,-37,-2,-3,-3,1
655964702794,-5,-6,10,6,8,-2,3,-1
655964703648,-2,-5,-9,14,-6,0,2,-6
655964703648,4,2,-3,-10,-2,-1,-1,9
655964725413,-2,-1,5,-23,-1,-2,0,0
655964725413,-2,4,-12,12,-2,-3,-4,-1
655964726127,-1,2,-8,-10,-4,-1,2,-2
655964726127,-1,-6,-6,-14,3,0,4,0
655964748545,-6,1,10,26,1,0,-10,-10
655964748545,1,-9,-15,18,0,0,-3,-1
655964749348,5,-1,11,-10,-9,-3,-1,8
655964749348,-4,6,11,5,0,0,-7,-12
655964771008,1,-5,-9,-14,0,0,6,7
655964771008,1,3,4,1,2,-1,1,-14
655964771845,0,-12,-2,13,-1,-2,-9,3
655964771845,-5,-2,-1,-5,-5,-2,4,4
655964785315,4,2,-3,-2,1,1,-3,4
655964785315,8,16,6,10,2,-3,12,-7
655964786125,-13,2,-12,-11,-3,0,-7,-7
655964786125,22,-14,3,-8,-5,-1,10,-10
655964808577,-56,-8,-9,8,-3,-6,-14,6
655964808577,-11,-4,1,-11,3,2,-4,9
655964809331,0,2,-5,3,-2,-1,3,1
655964809331,3,7,8,-8,1,-1,-3,-1
655964822788,22,5,2,14,6,-3,7,-5
655964822788,1,-14,-15,-19,19,1,-1,1
655964823628,-4,-2,6,18,-27,3,-2,-3
655964823628,2,-4,-3,-19,21,-9,-3,0
655964845271,7,-2,2,-20,-32,15,6,-2
655964845271,-10,1,10,25,-5,-7,-6,0
655964846061,10,2,-1,9,3,-2,1,2
655964846061,-8,2,-5,-22,-13,3,2,1
655964868507,2,5,2,8,33,-8,-2,-1
655964868507,3,1,-6,-4,-8,-1,-5,-1
655964869257,-5,-4,-5,0,-4,0,2,-1
655964869257,-12,-6,-11,28,3,-1,-3,-2
655964882898,4,5,13,1,-4,-4,-4,-3
655964882898,8,-1,-6,-10,5,-2,0,1
655964883585,-1,2,0,2,-6,-4,2,-1
655964883585,-9,-3,-9,-8,5,0,-3,-1
655964905345,8,0,14,8,-1,6,0,-1
655964905345,-6,1,-5,4,-21,-3,-2,-1
655964906102,-2,-1,-6,-18,31,4,-1,-1
655964906102,1,-3,-8,19,-24,0,-4,-1
655964928527,-3,3,2,-44,-25,-6,4,0
655964928527,-5,-2,18,-4,6,1,0,-3
655964929287,-3,-3,-13,-18,-6,-4,-3,-3
655964929287,7,7,9,21,15,1,-1,4
655964942798,-7,-4,-9,-32,-1,-7,-2,-4
655964942798,-7,-2,-1,1,-8,2,1,0
655964943582,5,-2,-13,-9,0,-4,0,-1
655964943582,-6,1,4,19,2,-2,-3,-3
655964965110,1,-3,-5,13,0,0,2,0
655964965110,3,-6,-8,-21,1,0,-4,1
655964973262,2,4,3,27,-1,-2,2,3
655964973262,-8,-9,2,-18,-7,-2,-7,-10
655964988531,1,-5,-5,4,3,-3,-2,3
655964988531,5,1,4,-22,3,2,-1,-1
655964989300,-1,3,-10,3,-5,-2,11,8
655964989300,8,2,2,-2,-8,3,11,-16
655965002878,-25,-7,-6,16,11,-3,-34,-24
655965002878,6,-5,-3,-23,-1,-3,-13,16
655965003579,-35,1,20,3,-4,0,-2,-5
655965003579,1,1,-16,-41,-3,-1,2,7
655965025393,13,-3,-7,0,-2,0,16,1
655965025393,2,3,13,26,2,1,4,-8
655965026118,6,-9,-9,-14,-1,-2,-3,-3
655965026118,0,4,4,6,10,0,0,3
655965048521,3,1,-2,23,-3,1,1,2
655965048521,-11,-8,-5,-16,0,-2,-1,-6
655965049259,9,4,-6,2,-11,-2,-3,0
655965049259,-9,-3,-2,3,3,0,-1,-1
655965062887,6,-15,-8,8,5,0,2,4
655965062887,1,3,-8,-26,-8,-4,0,-1
655965063639,1,-1,29,4,-14,6,0,-3
655965063639,-5,-1,-29,-7,-4,0,-4,3
655965085328,-3,-9,-11,-4,0,-6,-2,-4
655965085328,2,2,-21,18,11,-3,2,1
655965086087,2,-2,4,18,7,4,0,-3
655965086087,-3,1,23,-4,-12,-6,-5,5
655965108615,8,2,1,26,4,2,4,4
655965108615,-7,-1,-12,1,1,1,2,-2
655965109366,3,2,-1,-17,0,-3,-6,-2
655965109366,4,8,-6,29,-4,-1,-2,0
655965122802,-2,-7,28,-14,7,1,2,1
655965122802,-4,-6,1,12,-7,3,1,-1
655965123637,-1,-9,-19,-28,1,-5,-3,-3
655965123637,1,-3,5,-13,-8,2,0,2
655965145310,-3,15,9,15,-1,-1,-2,0
655965145310,1,3,23,24,-16,1,-3,-2
655965146119,2,-1,-16,-44,-7,-3,-4,-3
655965146119,-7,-3,-4,6,10,2,-1,-3
655965168490,1,1,-2,-15,-7,-1,2,1
655965168490,3,-1,-3,6,14,-2,-2,1
655965169355,3,-15,-15,17,6,-1,0,-2
655965169355,-5,3,5,-2,-12,-5,-2,-3
655965182978,-4,-2,-6,-4,-3,-3,-3,-2
655965182978,1,-2,6,24,2,-1,-2,-1
655965183675,-1,5,-2,-18,-3,-2,-2,0
655965183675,-2,-13,-8,-19,5,-4,-5,-1
655965205336,3,2,-6,2,-6,-2,-2,0
655965205336,-6,0,-6,-7,1,-1,1,-3
655965206120,0,5,16,14,0,1,-1,-1
655965206120,5,-6,1,8,2,-2,0,1
655965228634,-1,1,6,-8,0,-1,2,0
655965228634,-6,-2,-7,-29,-1,2,1,-6
655965229397,0,2,4,9,-4,-4,-3,3
655965229397,0,3,5,0,-1,-2,1,0
655965242199,-1,-3,-7,-8,-3,-1,0,-9
655965242199,-2,-5,0,-3,-3,-4,-6,10
655965250465,4,-1,-7,15,8,-2,-5,4
655965250465,-6,-1,3,-13,-6,-3,2,-13
655965265882,-3,2,-1,-4,-4,-3,-2,1
655965265882,2,-7,-9,3,2,-2,-7,0
655965266627,-4,8,7,-2,2,0,-1,-6
655965266627,-1,-1,5,27,1,4,5,4
655965288519,6,-1,-12,-2,-2,-3,-5,10
655965288519,1,4,-6,-13,-4,-1,-2,-6
655965289348,-9,-21,23,9,4,1,7,2
655965289348,-3,0,-10,-7,-1,0,0,-6
655965302250,7,5,16,9,3,-1,4,1
655965302250,-3,4,-23,18,6,0,1,3
655965310437,-1,2,-12,-29,-12,-5,-5,-9
655965310437,8,1,5,-3,30,-6,-2,6
655965325449,-14,-9,-15,33,-47,13,1,-2
655965325449,-1,4,16,-5,-2,-3,-1,-6
655965326210,2,-1,-3,11,-1,0,1,-1
655965326210,6,4,-11,-19,1,-3,-5,4
655965348681,-4,-1,1,-4,19,-2,1,-3
655965348681,-4,-6,9,15,-1,0,3,-4
655965349390,4,0,-10,-11,2,0,2,4
655965349390,-4,-6,4,11,-1,2,0,2
655965362158,3,2,-14,-8,3,-4,-5,-10
655965362158,9,-6,-2,-23,-13,-5,0,3
655965370369,-20,0,2,18,10,4,12,8
655965370369,-24,-1,-5,3,-10,-3,-20,2
655965385425,4,5,3,-3,2,-4,2,0
655965385425,-12,-5,-18,-42,-3,4,12,-4
655965386212,7,1,-8,10,1,-5,-29,-7
655965386212,-1,-5,13,18,-7,1,-1,0
655965408618,0,2,-22,-37,-6,-4,-4,5
655965408618,6,1,2,-15,2,-2,11,0
655965409353,-2,0,-13,-10,-6,1,11,-24
655965409353,7,0,-11,1,-8,-3,-2,22
655965422182,-1,1,19,22,12,2,0,1
655965422182,-3,-3,-2,-1,-3,-1,-5,-4
655965430331,-1,-2,-1,0,-6,-3,14,-4
655965430331,2,12,11,3,-2,-3,-12,-6
655965445952,10,-7,-1,-13,2,0,4,-10
655965445952,-51,-8,-11,1,-5,-6,-11,-1
655965446698,38,1,4,2,-1,0,-6,18
655965446698,-8,-4,19,2,-1,-1,-7,-17
655965468569,6,-3,-3,-11,1,-2,11,5
655965468569,1,3,7,16,0,0,-3,-2
655965469299,-10,0,-1,11,-2,1,3,3
655965469299,9,-1,-10,-31,0,-1,10,0
655965482202,-1,-11,0,2,4,-1,-9,-5
655965482202,9,6,10,-1,4,0,-2,-2
655965490458,-2,3,6,10,-5,-3,-3,2
655965490458,1,-9,-36,-4,-8,2,3,-4
655965505416,-10,4,13,10,-5,-6,-6,-3
655965505416,9,-5,-14,-15,16,0,0,1
655965506150,-8,0,1,-48,9,-4,-6,-3
655965506150,-2,-2,2,2,-32,14,7,-2
655965528553,-11,-3,-7,3,-11,-2,-1,2
655965528553,10,7,15,7,18,-1,-1,0
655965529382,-2,-5,-8,17,2,-9,-8,-3
655965529382,-3,1,6,2,-35,13,7,1
655965542281,-1,0,-4,-7,8,-3,-2,1
655965542281,6,-5,0,-10,-14,0,-3,-3
655965550360,-1,2,8,31,52,-6,-6,-3
655965550360,-7,-6,-15,15,-20,-7,1,-3
655965565374,-3,-3,0,-56,-21,4,1,-1
655965565374,6,4,12,29,18,-1,-1,-1
655965566154,-8,-7,-32,-5,-26,2,-1,1
655965566154,3,-1,3,8,27,-7,1,-4
655965588503,1,0,-1,6,10,-5,-3,-2
655965588503,-2,0,4,3,-23,-2,-1,-1
655965589320,-1,5,2,-9,11,1,1,-1
655965589320,0,-9,3,-13,-5,-1,-2,-5
655965626266,1,5,-10,-7,2,1,-2,2
655965626266,0,-6,1,12,-7,-1,-2,-2
655965626301,-3,-3,4,8,-1,-1,-1,-3
655965626301,3,5,0,12,4,-6,-2,1
655965626348,-9,-19,-16,-4,2,-3,-1,-3
655965626348,-3,4,3,13,-3,0,0,-2
655965626369,2,-2,4,-1,-11,0,-1,2
655965626369,-4,0,-3,-28,15,-5,-2,-5
655965648609,2,1,6,19,14,3,0,-2
655965648609,0,-2,-3,15,-34,-1,0,1
655965649538,1,-3,5,11,-6,0,0,1
655965649538,-3,2,7,-11,-1,-4,-1,-3
655965671060,-1,2,7,19,-9,-2,-3,-1
655965671060,2,-1,-11,-33,2,-4,-1,-1
655965671842,-5,-4,2,-14,1,1,1,-2
655965671842,2,4,3,-8,13,-1,-3,1
655965685357,-1,-2,-7,14,-24,-4,-2,-2
655965685357,-2,4,11,8,10,0,-1,-3
655965686105,-5,-2,2,-5,-18,-1,0,-2
655965686105,2,-4,1,-7,8,-3,1,0
655965708571,4,3,3,15,21,2,-2,3
655965708571,-8,-5,-2,-20,-19,-2,-3,-4
655965709329,-3,1,-11,0,-18,5,-1,-2
655965709329,3,2,1,10,5,-3,-2,-1
655965731093,-3,1,10,-4,18,-1,0,0
655965731093,1,-3,-6,-8,-15,3,0,0
655965731892,0,-2,-4,-2,-5,-4,-2,-1
655965731892,0,-4,8,17,12,3,3,5
655965745379,1,0,2,-5,0,-5,0,-1
655965745379,-1,-3,-10,23,16,-5,-2,-3
655965746154,1,2,-1,-21,-32,7,0,1
655965746154,-5,2,7,-7,-9,0,0,-1
655965768635,0,-5,-20,9,-6,-3,-4,-3
655965768635,1,-1,23,-31,1,-5,-1,-1
655965769375,0,0,-26,2,26,-3,-1,0
655965769375,-3,-2,-4,-10,2,-6,-1,-2
655965791132,2,-4,8,-10,-23,9,-1,1
655965791132,0,1,16,13,7,1,-2,-1
655965791888,-5,-3,-16,-6,4,-6,-5,-5
655965791888,1,-3,-9,1,6,1,-4,-2
655965805367,-1,0,-12,-7,-3,-8,0,-1
655965805367,-3,-1,23,21,1,8,-1,-3
655965806147,0,0,10,1,-18,-1,-2,3
655965806147,2,-6,-23,-19,0,-6,-5,-2
655965828618,-2,2,6,-10,1,1,-2,-1
655965828618,0,3,-20,-16,-1,3,1,1
655965829384,-2,-5,8,3,1,-4,-4,-3
655965829384,0,3,4,7,-3,3,1,2
655965851105,-3,-4,-2,9,4,-3,0,0
655965851105,2,-6,-3,6,1,-4,-3,-3
655965851888,3,3,10,20,2,4,3,0
655965851888,-5,0,-17,-45,-10,-3,-3,-4
655965865458,-5,-1,8,8,-6,1,-1,-2
655965865458,3,-1,-16,10,2,-4,-3,3
655965866208,-3,0,1,-5,4,0,4,-4
655965866208,-1,5,15,22,5,4,1,0
655965888522,6,1,-6,4,-6,0,-1,-2
655965888522,-8,-5,-17,-42,-11,-2,-2,-4
655965889299,0,1,7,19,-2,-1,17,4
655965889299,0,-4,-9,-5,-3,-2,-22,-8
655965911089,3,2,0,-2,3,5,4,2
655965911089,2,3,4,0,8,0,-3,-3
655965911860,-6,-3,4,4,-5,-2,-5,-9
655965911860,3,-2,-1,13,-2,-3,0,3
655965925418,-8,-4,-1,-18,1,-2,-5,-10
655965925418,-14,-8,-23,-1,-12,-8,0,1
655965926156,11,3,3,-8,6,3,0,19
655965926156,14,1,2,9,0,8,8,-18
655965948580,-10,8,13,6,7,2,23,40
655965948580,28,-1,-23,5,-8,-3,-25,-13
655965949369,20,-6,6,30,1,-7,-6,-11
655965949369,-24,-4,0,-17,-11,-4,15,-5
655965971139,-32,-15,-14,-12,-14,-7,25,26
655965971139,8,7,5,14,13,6,19,-32
655965971891,-31,-15,-2,1,1,-3,-45,26
655965971891,54,5,13,5,6,4,-7,3
655965985379,-15,5,-2,4,-2,-12,-33,-38
655965985379,-15,0,3,-4,-4,-3,-7,8
655965986118,-9,5,4,9,1,5,-3,-12
655965986118,-9,-4,-10,-16,-3,-4,29,3
655966008548,16,4,-3,-1,4,7,-4,-7
655966008548,10,-2,-25,-84,-5,-2,6,18
655966009358,-12,-11,8,28,-4,-5,14,-15
655966009358,-16,0,3,32,4,-4,-8,13
655966031066,18,2,-6,-5,14,-4,-4,-3
655966031066,-7,4,11,26,-19,14,0,1
655966031889,9,-6,-11,-47,7,-7,13,3
655966031889,-5,-6,-8,-11,-17,4,-8,0
655966045349,-7,-3,17,22,-26,-4,-12,-12
655966045349,-3,1,10,5,3,-5,11,3
655966046166,7,-1,-19,7,70,-14,-9,-6
655966046166,-5,-7,-24,-28,-80,12,-1,2
655966068581,1,-3,-3,-29,-2,4,4,-6
655966068581,-2,-5,7,12,12,-3,-4,8
655966069392,8,12,8,-40,6,3,5,-1
655966069392,-12,-4,-10,-1,24,-11,-12,-6
655966091105,4,-4,7,17,6,0,3,1
655966091105,-5,-3,-21,22,-19,-2,-1,0
655966091887,-4,-1,5,6,6,1,-2,-6
655966091887,0,0,2,27,35,-5,0,1
655966105376,5,2,2,-16,-37,7,5,-1
655966105376,-3,-3,8,16,19,-6,-2,1
655966106181,0,4,-18,-12,-44,1,1,-3
655966106181,-8,-7,-6,-20,-15,-2,-2,-1
655966128605,1,2,-3,6,11,-4,-5,-1
655966128605,1,4,16,19,53,-3,-4,-3
655966129342,2,7,17,-23,-58,9,4,3
655966129342,-4,0,-6,3,1,1,2,0
655966151151,3,0,-11,-27,10,-2,-3,1
655966151151,-3,-2,-2,1,-8,-6,0,2
655966151927,0,1,-4,7,7,3,3,0
655966151927,0,5,12,34,22,1,0,0
655966173583,-4,-4,4,-35,-4,-8,-8,-7
655966173583,3,1,-28,-10,-5,4,4,1
655966174421,-3,0,21,-5,-10,-1,-3,-1
655966174421,-3,-1,-25,3,5,-4,-4,-4
655966188662,6,-2,-1,18,8,-1,11,6
655966188662,-3,1,11,-2,-17,0,5,-2
655966189387,-13,-9,-16,5,-8,-7,-22,-21
655966189387,2,1,9,-1,1,-5,-8,0
655966211040,4,1,-3,19,6,1,5,3
655966211040,-5,2,-8,1,-2,-2,8,2
655966211902,-5,5,2,-67,-6,-1,-3,2
655966211902,2,-6,13,8,2,-4,-7,1
655966224811,-6,-6,-10,-11,-3,1,-13,-9
655966224811,3,0,-6,19,3,2,22,2
655966232975,3,0,-7,28,-4,4,-21,3
655966232975,-4,9,13,-19,-7,3,8,16
655966248567,-4,-7,-8,12,-6,1,14,4
655966248567,-6,-6,3,19,-7,-6,-49,-21
655966250178,5,0,3,10,14,-1,26,3
655966250178,-1,-7,-5,-41,-9,-3,10,-7
655966271114,2,-2,2,2,1,-3,-44,-4
655966271114,0,1,9,-16,2,-1,-10,5
655966271868,-11,-5,-1,9,-2,-6,-4,-9
655966271868,7,0,-2,22,7,5,49,-4
655966284768,0,4,4,0,3,-3,-11,-1
655966284768,-6,-12,-14,-32,-10,-2,-6,7
655966293755,10,-1,5,10,5,1,-8,10
655966293755,-19,-4,-4,-1,-3,-5,6,3
655966308559,29,2,8,-6,6,3,-15,-10
655966308559,6,-4,3,4,-11,-3,3,3
655966310179,-7,2,-2,-39,-2,-3,-10,-14
655966310179,18,-5,-4,7,2,-5,4,19
655966331132,-51,-2,2,71,5,0,-5,-17
655966331132,-8,-1,4,-34,-8,-4,-22,-10
655966332676,22,-2,-6,-3,1,3,24,13
655966332676,-3,2,3,20,6,0,2,-29
655966344783,1,-2,-1,-26,-5,-5,-1,25
655966344783,11,1,8,7,10,2,4,-5
655966353799,-17,0,-17,-12,-5,0,5,3
655966353799,-6,-3,2,25,-11,-5,-29,-10
655966368623,8,-4,-6,-22,-5,-3,21,-1
655966368623,-3,0,0,-24,-4,0,9,3
655966370213,-1,6,26,57,12,-1,-5,-3
655966370213,0,-1,-7,-13,17,-2,-12,-2
655966391141,4,-3,-22,-45,-26,-3,10,-2
655966391141,-7,3,15,7,-3,0,5,0
655966392683,-2,-15,-12,3,0,-3,-4,-5
655966392683,-2,1,-1,18,-17,0,-6,2
655966404679,-5,2,1,14,24,0,2,-2
655966404679,-5,4,17,13,-5,-3,-3,-5
655966413778,-1,-3,-10,-37,-21,-2,3,1
655966413778,0,-15,-12,12,1,7,-5,3
655966436144,5,9,18,4,42,-4,-2,-3
655966436144,-5,-3,-9,46,-34,-5,4,-3
655966437700,5,0,5,0,19,-1,0,1
655966437700,-7,-1,4,-3,1,0,-9,-5
655966451142,-2,-7,-10,-13,-1,1,-1,-5
655966451142,11,4,7,24,29,5,7,3
655966452695,-13,-2,-12,-3,-12,-4,0,-6
655966452695,-1,1,5,-12,-8,0,-9,-2
655966464696,3,-2,-3,24,0,-2,3,-1
655966464696,3,4,-21,-50,1,-3,0,1
655966473772,-8,-5,2,-6,-18,-1,-2,-5
655966473772,0,1,-6,16,4,-4,-3,0
655966496191,0,1,3,1,-8,-1,1,-4
655966496191,-6,-13,-12,-19,-1,2,4,2
655966497724,2,4,0,-9,5,2,12,5
655966497724,-1,0,12,-14,1,-7,-8,-6
655966511145,-2,3,1,-9,-11,0,-18,-3
655966511145,-2,3,0,5,-1,1,2,9
655966512721,-1,-3,-5,1,9,-4,2,-21
655966512721,-3,1,7,18,-3,-4,-22,0
655966524826,-6,-3,-10,-28,-15,0,5,1
655966524826,-2,-3,-7,-7,1,-2,3,1
655966533775,9,-2,5,35,5,0,-7,1
655966533775,0,1,2,-52,-4,1,9,3
655966548626,-3,-22,-15,-5,-11,-4,-5,-5
655966548626,-1,0,6,0,-1,-4,2,-2
655966550185,0,3,-10,-12,-3,-2,1,4
655966550185,0,0,1,-4,1,3,3,-3
655966571071,1,-1,4,30,0,-3,5,3
655966571071,-2,-5,-1,7,3,-2,-2,-3
655966572732,-7,1,-9,-10,-6,0,-22,-18
655966572732,-1,3,-2,-6,1,-2,-7,-3
655966593626,6,-1,4,-20,-1,3,16,5
655966593626,1,2,-2,2,7,1,6,1
655966595177,-10,0,8,36,0,-1,-3,2
655966595177,9,5,8,0,3,-2,3,13
655966608686,-21,0,-16,-2,-7,0,1,-20
655966608686,0,0,19,-18,0,-3,1,-4
655966610197,11,-2,0,20,-5,-6,-12,-3
655966610197,-25,-1,-3,-6,3,0,1,5
655966631136,2,-5,-6,7,-11,-6,4,-2
655966631136,9,-3,0,4,0,1,-15,4
655966632708,-5,0,-7,-29,-2,-1,7,2
655966632708,8,3,9,28,3,1,10,3
655966653687,0,5,8,5,5,1,-4,-9
655966653687,1,-2,-47,-45,-17,-6,-10,-7
655966655241,4,-18,17,4,4,3,9,11
655966655241,-2,8,13,8,-3,-3,-7,-10
655966668616,1,-5,-16,-16,1,0,0,2
655966668616,1,0,9,12,4,3,7,2
655966670191,-6,3,-6,-22,-5,0,-5,0
655966670191,-5,0,11,8,-3,-1,1,-6
655966691112,7,0,7,-24,0,-1,-3,3
655966691112,-9,1,0,24,0,1,5,-2
655966692671,-3,0,-19,-11,7,0,-3,-2
655966692671,5,-12,-7,16,-1,-4,0,-2
655966713644,3,7,-1,-39,-6,1,-2,6
655966713644,-3,-2,10,-12,-1,-1,-4,-8
655966715206,5,4,-9,-20,4,-2,1,3
655966715206,-4,-13,-6,-15,-9,-4,-2,-4
655966728066,-3,-1,3,-18,-7,-1,-1,3
655966728066,-8,-4,3,21,5,-1,3,1
655966734761,4,3,4,31,-2,1,-6,6
655966734761,2,5,-3,-59,4,4,-13,-18
655966751095,14,5,4,56,4,1,13,11
655966751095,-33,-14,-1,1,-8,-4,-18,-23
655966752676,-7,1,4,1,4,2,8,8
655966752676,1,21,-13,-8,-10,-1,4,7
655966773553,8,-2,-2,-6,10,-3,-7,1
655966773553,11,14,10,6,1,0,11,8
655966775245,-6,-5,1,6,-4,-4,0,-7
655966775245,10,-10,-13,-21,0,-2,-3,1
655966787966,-13,-6,-2,16,-10,2,7,-6
655966787966,4,10,0,-8,-1,-1,12,14
655966794793,-7,-11,-6,-22,-8,-10,-20,-4
655966794793,19,5,7,22,0,-1,-5,-7
655966811148,-16,0,-17,-27,5,1,-3,6
655966811148,-3,-6,-5,9,0,0,-6,0
655966812767,-4,-5,8,-9,-2,1,6,-1
655966812767,-19,-9,-11,14,2,-3,-1,-2
655966833643,2,3,14,8,-3,-4,-3,-8
655966833643,0,-5,1,11,-3,-3,2,8
655966835169,8,4,-13,9,-1,-2,7,3
655966835169,-7,11,14,-35,-5,-1,1,-6
655966847947,-8,-2,5,32,7,3,2,0
655966847947,13,-3,-15,-51,0,-1,-9,-3
655966854810,-1,-2,9,75,-9,-2,-1,-3
655966854810,-9,-2,-6,-53,-10,-1,4,2
655966871119,7,-5,-26,-17,-6,-3,-3,-1
655966871119,4,4,2,25,2,-2,6,8
655966872789,-1,1,-1,-21,6,7,-6,-10
655966872789,-2,-6,9,28,1,-3,-9,1
655966893572,2,8,7,17,-2,-1,3,1
655966893572,0,-2,-1,-15,2,2,-5,-4
655966895220,-4,-2,1,15,-6,-4,2,4
655966895220,4,-4,-1,-45,7,-1,1,3
655966907969,20,-3,3,-10,-1,-1,3,-2
655966907969,-8,-5,-8,43,-3,-1,-3,-3
655966914701,-9,1,5,-8,-6,-3,3,1
655966914701,8,-2,-25,20,-1,3,4,2
655966931090,9,4,20,-16,7,2,3,8
655966931090,-18,-6,-6,35,-5,-3,0,-21
655966932677,-7,-8,-16,-27,1,-3,-8,-1
655966932677,-8,16,26,14,3,0,5,5
655966953660,-12,-2,3,18,-3,-4,-12,-10
655966953660,16,7,1,-5,-8,-2,11,5
655966955234,-5,-9,4,-15,-3,-5,-14,-10
655966955234,0,-19,-18,25,5,3,15,3
655966967948,0,-1,4,28,-8,-6,-11,-2
655966967948,-1,-1,0,-76,0,0,-4,3
655966974758,-14,8,6,19,-3,-1,0,4
655966974758,22,-13,-3,-12,2,-4,1,6
655966991593,-3,-3,-15,26,-3,-2,-3,-11
655966991593,-4,-5,1,-3,-1,0,-2,-2
655966993230,4,-1,3,-28,3,3,9,5
655966993230,-6,1,11,41,-1,-3,-5,-7
655967013651,-7,0,-1,-21,-4,3,1,3
655967013651,-2,-3,0,21,3,-1,-7,-8
655967015212,12,-2,-12,-40,-4,1,4,-2
655967015212,-8,-9,-14,39,-5,-4,-4,-2
655967027988,3,-12,4,-19,1,2,9,2
655967027988,3,4,7,9,-2,-5,-21,-16
655967034782,-17,5,5,16,4,2,2,1
655967034782,-3,-2,-9,-16,1,0,-3,0
655967051185,-2,0,-12,-30,-4,-4,-2,0
655967051185,7,-8,-6,3,-6,0,4,2
655967052691,8,-3,-2,15,5,2,1,1
655967052691,-10,-3,-11,-28,-5,-2,-1,-4
655967073610,-2,2,18,13,1,-2,-1,-2
655967073610,2,1,-5,-5,2,2,0,10
655967075214,8,10,-3,-17,-1,1,6,0
655967075214,-3,-4,6,24,-7,-5,-13,-2
655967087264,0,-2,-8,15,1,-1,-12,-14
655967087264,2,3,7,-45,0,0,3,7
655967096292,-2,2,1,9,3,3,22,-13
655967096292,7,13,-2,-1,-6,-9,-33,7
655967111155,-1,4,6,3,-1,-1,-7,9
655967111155,5,-1,-12,-2,0,1,-10,-2
655967112719,19,-5,19,26,0,-2,-2,-1
655967112719,-45,1,11,-35,-2,3,53,3
655967133626,35,2,1,14,1,2,-29,3
655967133626,-1,-5,-3,0,-5,-7,12,8
655967135235,-2,5,0,-5,-3,-1,-1,-13
655967135235,20,-12,-20,-16,0,1,-19,7
655967147338,-44,-6,9,-10,-2,-5,2,13
655967147338,-1,-4,1,12,3,-1,-3,-19
655967156223,0,-8,-8,-6,0,-3,-8,-2
655967156223,5,-3,14,18,-3,-2,5,2
655967171188,-12,-2,-20,-40,-8,0,4,-9
655967171188,-4,-3,-6,-1,-2,-1,-11,-5
655967172729,0,-5,-2,-13,4,1,5,8
655967172729,-1,-4,-5,9,7,-4,-9,-13
655967193604,6,-2,-1,10,-8,-1,5,1
655967193604,-6,-1,9,9,1,4,6,2
655967195188,1,0,-8,-21,-3,-6,-7,4
655967195188,5,-1,-2,13,9,4,0,0
655967207299,-5,3,0,-10,-12,0,3,-9
655967207299,-5,-3,0,-6,-2,-7,-1,0
655967216215,-8,-6,-15,13,2,-9,-8,-2
655967216215,1,-2,0,5,-13,6,-6,-5
655967231163,-4,-3,-4,-33,-10,-5,4,2
655967231163,-5,2,13,-14,-4,3,-1,-3
655967232676,5,4,-2,-18,6,-7,-6,2
655967232676,0,-2,2,-4,1,4,2,-6
655967253597,-4,-7,-8,25,4,-3,1,-3
655967253597,4,1,-11,-2,1,-3,1,0
655967255271,-2,1,6,-4,1,-2,-4,-3
655967255271,1,2,-6,-23,7,-1,-1,1
655967267204,2,2,9,14,6,5,4,-2
655967267204,-8,-5,-16,-46,-24,-5,-5,-1
655967276254,-3,-2,3,27,9,5,2,2
655967276254,4,-1,-10,-32,-5,-4,-3,-4
655967291178,-3,1,-14,-1,6,-4,-2,-3
655967291178,-1,-9,10,15,2,-5,2,3
655967292709,0,3,2,-4,-12,3,-1,-1
655967292709,-2,-2,-8,-7,-6,-2,-2,-3
655967321218,-3,-2,4,10,9,-3,-1,-4
655967321218,-2,7,0,9,9,3,-1,-2
655967322752,1,-2,-4,10,-4,-3,0,1
655967322752,-5,0,5,20,-3,-5,-6,-6
655967327296,-4,7,3,-10,-8,1,6,0
655967327296,-2,-9,-9,-6,3,-7,-4,-4
655967336258,5,0,2,6,-16,8,-2,4
655967336258,-7,-3,-1,15,-13,-1,3,-1
655967351104,0,-3,7,22,8,1,-2,1
655967351104,2,0,-11,-16,-8,0,3,2
655967352773,-3,0,4,-18,11,-4,-7,-2
655967352773,1,3,2,11,7,1,-3,1
655967373669,4,-8,-12,-19,-6,-2,-3,0
655967373669,-1,8,30,24,6,3,1,-1
655967375231,-4,-3,-6,-2,3,-1,1,-1
655967375231,4,-1,-1,20,-3,1,1,1
655967387264,1,-3,-2,-30,-5,-2,-3,-2
655967387264,0,0,-3,18,6,1,2,-1
655967396326,0,1,-2,-5,-3,-2,-2,-2
655967396326,-2,2,-1,-2,10,2,0,0
655967411169,1,2,5,28,14,0,0,-2
655967411169,-8,-6,-12,-7,-35,-7,-5,-3
655967412762,1,-1,-4,-5,-9,-2,3,-3
655967412762,-1,-3,5,-28,7,-3,-2,-1
655967433668,-5,0,-24,-10,6,-3,-2,-2
655967433668,-2,-12,-2,-4,-7,-2,-2,-1
655967435173,1,2,3,4,0,2,0,-1
655967435173,-1,-2,4,7,-5,-3,2,0
655967447377,0,0,6,13,-2,-1,-2,-2
655967447377,1,2,-6,-23,5,-2,-4,-1
655967456299,-6,-7,2,-6,-4,-1,-1,-2
655967456299,-2,-3,-3,6,2,-3,-2,-2
655967471173,0,-2,1,-16,1,-3,-2,0
655967471173,-1,-3,4,17,-10,10,3,-1
655967472714,-4,0,3,8,10,-1,-1,-1
655967472714,5,1,-9,-17,-7,-1,-2,-2
655967493627,-3,-8,0,15,-11,-2,-1,0
655967493627,-3,2,-1,16,13,-2,0,0
655967495261,-1,-4,2,-19,-18,-6,-5,-3
655967495261,5,0,-9,8,10,7,2,3
655967516081,-4,5,7,-1,1,-4,-2,-3
655967516081,1,-1,-1,10,0,3,-3,-4
655967517674,7,1,-1,6,4,0,-4,1
655967517674,-6,-3,1,-1,-12,-3,0,-2
655967530497,-1,-3,1,-7,-1,1,1,-2
655967530497,4,3,4,22,10,-4,-3,0
655967537298,-1,-3,-6,-16,5,-4,-3,-2
655967537298,-4,-3,-2,0,-6,0,-1,-1
655967553656,-4,-4,-1,4,-1,-2,0,-2
655967553656,5,7,0,-1,5,-1,-4,2
655967555273,-6,-1,-3,2,-6,-1,0,0
655967555273,-3,2,-2,-12,-3,-5,-2,-4
655967576195,5,-13,15,-9,-4,1,-1,2
655967576195,-5,-1,0,15,0,-2,1,-3
655967577743,0,1,1,-15,-4,1,0,0
655967577743,1,-3,4,24,3,-1,-1,2
655967598644,0,3,-12,-31,-7,-3,-1,2
655967598644,-1,-1,5,3,5,2,3,-3
655967600284,-3,-3,-2,-13,-14,-2,-2,-1
655967600284,3,0,-5,-16,20,-2,-2,-3
655967613680,-4,3,-3,15,-5,-2,1,0
655967613680,-3,-3,1,-6,-9,-4,-3,-1
655967615257,4,-1,-9,2,-10,-1,-1,1
655967615257,-5,1,1,-13,-7,-1,0,-4
655967636113,-3,1,7,20,1,2,-2,-3
655967636113,1,-7,-21,-36,2,-1,-3,-1
655967637751,-3,0,1,7,9,0,3,-1
655967637751,-3,-1,4,12,-6,-1,0,-2
655967650480,5,0,-3,-18,1,1,-2,-2
655967650480,0,-1,-3,7,-6,-4,0,-3
655967664764,-3,-2,5,5,6,-1,-5,-3
655967664764,-3,-5,-8,14,-4,-3,-3,-2
655967673658,3,5,0,-6,-1,0,-1,-2
655967673658,-5,-3,-11,-1,3,1,0,0
655967675291,-2,8,6,23,1,-1,-2,-4
655967675291,2,-11,3,-27,3,-2,0,1
655967696194,-4,1,2,14,-6,2,3,0
655967696194,-1,0,0,-2,-1,-1,2,-1
655967697728,-2,-1,-3,1,3,-3,-2,-2
655967697728,7,3,-2,-7,28,-1,-5,0
655967710506,-9,-2,-1,3,-38,4,2,-2
655967710506,-7,-6,-7,-8,20,-12,-4,1
655967717357,0,-5,-12,-6,-25,9,-1,0
655967717357,-9,2,10,-12,-3,-5,0,-4
655967733662,0,-1,-4,4,16,1,-4,-3
655967733662,4,-1,-11,-13,-25,-4,-4,-2
655967735232,3,3,2,7,14,-1,1,1
655967735232,-2,6,6,-25,-5,0,0,1
655967756248,-6,-17,-18,22,-3,-3,-4,-4
655967756248,3,3,11,-6,33,-3,-2,1
655967757769,-3,-2,3,13,-16,-1,0,-4
655967757769,0,-1,9,-2,-8,6,3,2
655967770523,6,7,-9,-11,11,-9,-4,4
655967770523,-4,-8,-10,-9,8,6,-2,-3
655967777343,-3,-3,-2,16,8,-5,-2,-6
655967777343,5,10,4,19,-9,-6,-3,-9
655967810216,-4,-12,-1,-20,-59,9,4,3
655967810216,-9,-7,22,3,-10,0,0,-2
655967810279,1,0,-19,-42,-2,0,-2,2
655967810279,-3,-6,-1,13,4,-5,0,-1
655967816125,-2,9,27,12,37,-7,-4,-5
655967816125,3,4,-16,-6,-25,5,0,-1
655967817754,-2,-6,9,1,2,-3,2,-3
655967817754,-8,-1,1,-3,-6,1,0,-5
655967830448,-1,0,-14,-19,7,-3,-1,-2
655967830448,6,2,12,18,-2,3,0,1
655967837304,-2,3,-8,-23,21,-5,-2,-3
655967837304,-2,-3,-9,-1,-25,2,-1,1
655967853655,-2,-1,6,-1,-1,-3,-2,-3
655967853655,1,0,-6,-2,-9,-1,-3,-2
655967855270,-4,0,-14,27,19,3,4,-3
655967855270,1,0,3,3,2,4,11,5
655967876266,-1,-3,0,14,4,-8,-7,-3
655967876266,-6,1,3,-48,0,2,18,11
655967877809,-4,-6,-8,-13,-6,-3,-29,-12
655967877809,-1,-1,4,23,-11,-4,-19,-9
655967890560,0,5,2,-12,11,5,21,19
655967890560,5,10,15,20,-7,-3,-17,-12
655967897371,-11,-7,-1,-23,-7,-7,-23,14
655967897371,-8,-2,-12,-7,-4,1,-6,2
655967913643,7,2,0,-4,11,0,11,-7
655967913643,16,-5,-10,9,9,0,-7,8
655967915286,11,5,10,-15,-10,-1,24,11
655967915286,-23,-2,-3,13,3,-2,-13,-5
655967936198,-8,-8,-9,3,1,2,0,-16
655967936198,0,2,0,-10,0,-1,-13,-3
655967937744,15,3,1,38,1,5,0,-3
655967937744,2,-4,2,-46,-2,-8,-8,0
655967950601,4,0,-23,-15,-3,-3,-2,5
655967950601,-8,0,-12,1,-9,-1,12,1
655967957353,-15,-5,5,3,-2,-1,0,1
655967957353,1,-4,-4,37,-4,-1,8,0
655967973724,5,1,3,-9,1,-4,-5,-1
655967973724,-4,-5,0,-17,1,-5,-6,-6
655967975296,-4,3,4,17,-4,4,8,-2
655967975296,9,-6,7,-13,23,-3,5,3
655967996165,-14,-5,17,35,-8,-1,-10,-7
655967996165,-6,-3,-19,32,-2,1,1,-2
655967997725,6,6,22,-29,-26,-5,0,-3
655967997725,9,-6,-36,-19,-28,10,7,7
655968009788,-3,-3,22,1,13,-6,-9,-1
655968009788,-1,0,4,-2,61,-15,0,0
655968018744,-3,-10,-17,8,-76,9,2,2
655968018744,2,10,19,-5,13,-2,-1,-2
655968033610,-1,-7,-28,-17,11,-3,-3,0
655968033610,0,-1,-1,11,-13,0,5,-2
655968035256,-6,-3,6,11,11,-5,1,-3
655968035256,1,-1,4,30,8,-8,-2,-6
655968056262,3,0,-22,-39,-25,9,-2,7
655968056262,-5,-3,14,8,3,-2,-1,-5
655968057799,2,3,1,-6,23,-2,-2,-1
655968057799,-5,-9,-15,-6,-29,0,1,-4
655968069860,6,8,38,33,26,-3,-2,1
655968069860,-3,1,-26,-34,-15,2,-1,-3
655968078767,-4,-6,-5,-4,-1,-1,0,0
655968078767,4,-1,-2,-14,14,-4,1,-2
655968093805,-2,6,9,10,-10,3,2,1
655968093805,-9,-8,-13,6,-30,1,-1,-3
655968095255,0,0,0,-17,22,-6,-1,-3
655968095255,-2,-6,-29,-2,-10,-5,-2,1
655968116250,-2,-3,1,6,14,-3,-7,-4
655968116250,-4,1,20,-9,-39,2,2,-2
655968117776,3,4,18,15,21,4,4,1
655968117776,-3,-6,-18,-16,-1,0,0,-2
655968129793,1,6,-16,-13,-10,-1,-2,-1
655968129793,5,-7,2,12,21,-1,-2,2
655968138851,-3,2,13,-9,-2,-1,2,0
655968138851,-5,4,20,21,-9,-1,-1,3
655968153645,-2,-2,-10,-4,1,4,2,-5
655968153645,-6,1,9,-4,8,-2,0,-1
655968155201,1,0,-9,-6,3,3,3,-2
655968155201,-1,-2,-2,9,3,-4,-5,-2
655968176200,6,2,17,29,-6,-4,-5,-2
655968176200,-1,-1,-15,-31,5,1,1,-1
655968177872,-1,-6,-18,-25,-3,2,19,0
655968177872,26,5,6,-17,0,-1,-13,0
655968189774,-34,-4,-2,6,-2,-6,1,0
655968189774,-17,-2,-2,-35,-9,0,-13,-2
655968198837,4,-8,-13,45,-11,-7,-10,6
655968198837,2,10,24,2,7,6,6,6
655968213654,-7,-3,-11,-21,-10,-1,8,-2
655968213654,3,3,1,15,7,2,-2,2
655968215241,-8,-8,2,-15,-1,-3,-1,-2
655968215241,-1,-1,6,14,-1,1,8,3
655968236581,7,-1,-1,10,-3,0,-15,-3
655968236581,1,7,-2,12,-1,-2,2,-3
655968238254,1,-5,-7,-13,6,-2,-8,-6
655968238254,-13,-4,-6,12,-1,0,5,0
655968249822,5,-3,10,-20,-6,-6,0,-3
655968249822,9,6,6,24,13,2,2,0
655968258848,-3,7,16,11,-5,2,-4,-5
655968258848,-6,-8,4,-19,-3,-3,-4,-3
655968273723,0,-7,-11,-13,-14,-4,1,1
655968273723,6,-1,22,26,2,-1,-6,-4
655968275300,1,4,-3,6,29,-1,-1,2
655968275300,-6,-6,-48,-26,1,-2,-4,-3
655968295956,-2,-5,-10,10,-7,4,-4,-5
655968295956,-2,4,19,-2,2,-5,2,-2
655968302264,6,-5,-13,13,4,-10,-1,-2
655968302264,-6,4,3,-9,-27,14,3,-1
655968309769,2,-4,0,-35,-43,8,2,0
655968309769,0,-2,-7,-12,12,-3,-2,-1
655968318906,-1,-14,-14,-22,-20,-2,-1,-2
655968318906,-2,-4,22,38,35,-5,-4,-7
655968333653,2,2,-5,1,11,-5,-1,2
655968333653,-4,-3,-2,-43,-20,0,-1,-1
655968335273,-6,5,2,10,6,-4,-2,-4
655968335273,-5,1,7,3,3,-5,2,-2
655968356190,3,-2,-10,-2,-5,-1,-2,1
655968356190,2,1,-1,20,8,1,3,2
655968357885,-2,3,-5,4,-5,-2,-5,-2
655968357885,-3,-6,-1,-6,0,-3,-3,-2
655968369826,2,3,2,17,26,-8,-2,-1
655968369826,-7,-6,2,-15,-35,6,-2,3
655968378852,-3,-2,-3,1,-25,0,5,-1
655968378852,2,-8,-8,-14,-14,-4,-5,0
655968393694,-4,2,5,10,25,-3,-1,-3
655968393694,-1,-3,9,2,-1,-6,-1,-1
655968395264,2,-2,-29,4,-1,1,-5,-1
655968395264,-1,-2,15,-17,5,-1,2,1
655968416203,-1,-5,12,-32,-2,-5,0,-1
655968416203,0,-12,-12,18,-2,0,-2,-2
655968417715,4,1,5,-11,5,1,-2,1
655968417715,-1,5,-8,18,-5,-2,-1,-2
655968429808,-6,-3,4,8,-7,3,1,1
655968429808,3,0,0,2,23,-4,0,-3
655968438910,-8,2,3,-10,-24,3,-2,-1
655968438910,-2,7,7,-6,5,3,2,1
655968453743,1,2,3,9,-3,-1,-2,-1
655968453743,-4,1,-1,-9,3,3,0,1
655968455299,-2,-5,-8,15,11,-5,0,-5
655968455299,3,0,-2,-15,-5,-3,-2,-2
655968476172,1,-3,-11,-8,-7,3,1,-1
655968476172,-1,2,-3,5,25,-5,-1,-2
655968477783,-5,6,-14,-13,-16,0,-6,0
655968477783,2,-3,46,5,-8,-2,0,2
655968498708,-4,-13,-18,-1,0,-2,-3,-4
655968498708,-5,-3,-12,-23,-8,-3,-2,-3
655968500309,1,-3,0,12,4,-4,-2,-3
655968500309,-3,3,-24,-13,0,0,3,0
655968513690,0,3,3,23,5,0,4,7
655968513690,2,-2,2,-2,-11,0,1,-4
655968515280,3,-2,5,-4,3,0,-8,4
655968515280,-5,3,5,-2,-2,-3,-11,-5
655968536168,-4,-8,2,6,1,-2,3,-4
655968536168,5,-6,-15,9,-9,0,2,4
655968537797,-4,18,23,-17,6,-1,5,0
655968537797,-1,-2,-10,15,3,-2,3,-2
655968558651,8,4,-5,-5,-3,-2,-4,-1
655968558651,-8,-2,-10,18,-12,-3,-1,0
655968560290,1,-13,-3,-9,18,-1,-1,-2
655968560290,-1,2,-6,-13,-15,-3,9,5
655968573682,4,3,-4,13,4,2,-6,-1
655968573682,-4,0,5,10,-7,-3,-7,-6
655968575323,-4,-8,-2,-13,-15,-3,-6,7
655968575323,4,-1,-4,3,6,0,11,-1
655968596132,3,-2,-21,-18,-5,0,9,-7
655968596132,15,2,3,-4,5,-4,-9,22
655968597717,-20,-24,-17,7,6,0,-12,-3
655968597717,11,4,16,2,0,4,22,-1
655968618839,-22,-12,-30,-18,-8,-6,-13,-8
655968618839,12,2,-7,35,0,-4,-19,-23
655968620284,7,6,4,-60,-2,-3,-6,10
655968620284,-5,-5,-8,22,-5,-2,-6,1
655968633015,2,6,10,3,5,1,11,2
655968633015,0,-22,-5,-12,-6,0,8,-2
655968639818,0,5,12,17,-3,-2,2,-5
655968639818,-3,0,-13,-4,5,-1,-8,-7
655968656164,11,4,9,-7,13,-3,-3,-1
655968656164,-11,1,-4,19,-3,1,-1,-2
655968657810,7,5,5,-39,14,-5,4,-2
655968657810,-11,-6,-9,8,-62,13,-5,3
655968678690,-1,1,14,-7,-9,-1,-6,-1
655968678690,-3,3,9,7,61,-10,-2,0
655968680316,-9,-3,-17,11,-49,5,4,-7
655968680316,4,-4,-3,-6,0,-5,-8,-4
655968693113,-5,1,2,-11,-1,-1,-3,1
655968693113,-2,5,1,-11,-1,0,8,1
655968699831,4,-1,10,36,30,-4,-3,-4
655968699831,-2,-1,-9,-32,1,-1,-9,2
655968716205,-9,-3,7,-8,-42,1,1,-3
655968716205,2,3,1,-19,-2,-2,1,2
655968717740,4,3,-1,-1,12,1,-2,-2
655968717740,-6,-4,-4,4,-33,-7,-4,-2
655968738656,4,-2,5,6,26,-2,-1,0
655968738656,2,-1,-1,-16,-20,0,2,0
655968740271,-5,-1,6,8,10,2,2,-1
655968740271,-3,-2,-5,-1,5,-3,-2,-4
