timestamp,emg1,emg2,emg3,emg4,emg5,emg6,emg7,emg8
1533862913330987,2,6,11,5,9,3,0,1
1533862913330987,-5,-7,-1,-12,8,-1,-2,-2
1533862913330987,-2,-1,0,-1,-12,-5,-3,-2
1533862913330987,0,-1,17,1,1,0,-1,0
1533862913335975,-3,0,-3,4,-1,0,0,-2
1533862913335975,-1,0,-1,-4,-4,-2,-1,-4
1533862913336970,1,-2,2,4,9,1,0,0
1533862913336970,-2,2,-2,7,-12,-6,-2,1
1533862913340970,-3,-4,-6,-18,-2,-3,-2,-2
1533862913340970,0,-2,3,7,1,1,-1,1
1533862913341959,-1,-1,-6,-19,0,1,-2,-1
1533862913341959,-3,-5,-7,10,11,1,-3,-3
1533862913363898,1,-2,5,16,25,0,-2,1
1533862913363898,-2,-1,-4,17,-45,-8,2,1
1533862913364895,-1,0,-15,0,-4,0,0,-1
1533862913364895,0,-3,4,-19,-2,1,-1,-3
1533862913374869,1,4,-35,-14,-2,-3,-1,-4
1533862913374869,0,-17,-16,32,22,-1,-5,1
1533862913394820,-2,5,20,8,-3,-4,0,2
1533862913394820,-2,-1,-1,-14,-13,-3,-3,0
1533862913396811,-1,-5,-8,3,8,2,-2,-2
1533862913396811,-2,-5,-8,-4,-12,-1,2,0
1533862913408781,2,-5,-8,15,15,1,0,0
1533862913408781,-1,3,28,12,-1,-3,-2,-1
1533862913418752,-5,-5,2,-28,-21,-6,-1,-3
1533862913418752,2,4,9,3,14,3,1,-2
1533862913456744,-1,1,-5,3,2,-1,0,0
1533862913456744,-1,3,-6,-8,-4,-1,-1,0
1533862913457649,-2,-16,-73,-12,1,1,-1,0
1533862913457649,-2,5,18,24,-4,0,-2,-2
1533862913458646,1,-1,-3,-5,5,-2,-2,1
1533862913458646,-2,-2,7,16,17,0,0,-2
1533862913461737,0,1,-8,-23,-20,2,0,0
1533862913461737,-1,-2,-5,-4,-4,-2,-1,-1
1533862913469619,-1,-1,-6,12,7,1,0,-2
1533862913469619,-1,-3,-14,-6,1,-3,0,-2
1533862913475721,2,3,26,6,-1,-4,0,0
1533862913475721,-1,-3,-19,-7,-9,-3,-3,0
1533862913483579,-2,2,18,-19,-2,-5,-2,-4
1533862913483579,-2,1,-6,2,1,1,-2,-2
1533862913498540,1,11,86,5,4,-4,-5,-2
1533862913498540,-3,-8,-27,12,0,0,-2,0
1533862913506519,-2,4,-19,-14,-3,0,0,-1
1533862913506519,4,-4,65,2,-1,1,2,1
1533862913529460,-3,1,-20,-7,0,0,-2,-4
1533862913529460,-2,3,-5,10,6,0,-1,-1
1533862913530452,0,3,29,0,-6,3,-2,0
1533862913530452,-5,-6,-37,-3,-9,-2,-6,-5
1533862913544415,0,-1,-16,-8,-7,-1,0,0
1533862913544415,2,1,13,6,3,-4,0,-2
1533862913545418,1,-1,-19,8,15,2,3,0
1533862913545418,0,-2,-10,-19,-19,-2,-1,0
1533862913568351,-2,-1,-1,9,13,-2,-1,0
1533862913568351,-1,0,19,-28,-7,4,1,-1
1533862913568351,-2,0,7,17,4,-8,-5,-2
1533862913568351,-4,-9,-17,20,-5,-2,-2,-2
1533862913590293,0,-4,-8,-20,-13,-3,-2,-1
1533862913590293,1,8,21,-5,7,1,2,2
1533862913590293,0,-1,83,9,-9,5,6,2
1533862913590293,1,7,37,19,9,1,-2,0
1533862913604259,-4,-5,-20,8,6,-3,-3,-3
1533862913604259,1,-3,-25,-12,-9,0,-4,-4
1533862913605253,-1,-7,-37,-27,5,-2,-5,-2
1533862913605253,-3,-1,-2,-13,-23,-10,-4,-2
1533862913635229,0,7,23,21,7,3,0,-1
1533862913635229,-1,-6,2,-7,0,-4,0,1
1533862913635229,-1,1,-12,-3,2,-2,-2,-2
1533862913635229,-2,-3,-34,9,7,3,1,1
1533862913650168,-1,-1,-12,-16,-12,-1,-1,-1
1533862913650168,-4,-3,-2,-4,-3,-2,-3,-1
1533862913650168,-1,-6,-22,-2,-4,-2,-1,-2
1533862913650168,0,2,-2,-7,2,0,0,-1
1533862913664131,2,-2,11,22,25,2,1,-2
1533862913664131,0,1,-6,-6,-24,-11,-3,-2
1533862913665127,-1,-5,14,6,-12,0,0,1
1533862913665127,-2,-14,12,-3,4,-1,-2,1
1533862913687072,-5,-5,-2,-3,-2,3,1,-1
1533862913687072,-1,-3,-35,2,12,0,-3,-3
1533862913688068,8,29,50,16,-3,-5,-2,-1
1533862913688068,-3,-4,-35,-46,-16,-2,-1,-2
1533862913710007,-5,-7,-17,23,20,3,-1,2
1533862913710007,-1,-3,8,-6,-22,-3,1,0
1533862913711020,-4,-4,-44,-2,-8,-2,-3,-3
1533862913711020,3,7,10,4,7,2,-1,0
1533862913723974,-1,2,14,-11,-4,-2,0,-3
1533862913723974,-2,1,-12,9,15,-1,-2,-2
1533862913724981,-2,-5,-13,-3,1,0,-1,-2
1533862913724981,-1,-2,19,7,-11,-7,-1,-2
1533862913748057,-2,-9,-15,-15,-1,-3,-2,-3
1533862913748057,0,-1,7,7,4,2,0,-1
1533862913748057,-4,-4,-1,7,-4,3,0,-1
1533862913748057,-1,-3,-13,-21,1,1,-3,0
1533862913769851,-1,3,-1,6,-7,-1,2,1
1533862913769851,-4,-2,-5,-13,-1,-1,0,-2
1533862913770849,-3,-8,4,-7,-5,1,-2,0
1533862913770849,2,10,-38,19,7,-1,-2,-2
1533862913783811,4,3,86,8,-3,-3,-2,1
1533862913783811,-1,2,-6,-7,6,3,1,1
1533862913784808,-5,-9,-26,-10,-2,-1,-3,1
1533862913784808,1,1,12,7,7,3,1,-2
1533862913807843,-1,-1,-26,-7,-10,-3,-2,-1
1533862913807843,0,-1,4,11,6,1,0,0
1533862913808774,0,3,0,-12,-8,-3,0,-1
1533862913808774,-3,-2,0,10,2,-1,0,-3
1533862913829692,0,1,-8,-6,-3,-2,-1,-1
1533862913829692,-1,1,-14,1,-2,-3,-3,-3
1533862913830685,-2,-4,-17,-2,-2,-1,-2,-2
1533862913830685,-1,-11,-10,-2,1,0,-3,1
1533862913843654,-5,0,-21,-19,-12,-3,-4,2
1533862913843654,-7,-13,-30,-2,5,2,-1,-10
1533862913852627,0,-4,7,6,1,-2,12,18
1533862913852627,-5,3,-11,-2,-3,-3,-15,-16
1533862913867586,2,2,12,5,0,0,8,5
1533862913867586,2,3,-11,-8,-2,-1,-11,-11
1533862913868588,1,-3,-15,-4,1,0,0,3
1533862913868588,2,2,1,-1,1,-3,6,10
1533862913890562,-6,-4,-33,5,-1,-2,-7,-12
1533862913890562,-1,3,17,-5,-2,-2,-6,-5
1533862913890562,-1,-2,-6,3,0,0,-3,-6
1533862913890562,-2,1,10,-8,-2,-1,-1,0
1533862913912631,0,-1,2,-4,1,1,1,4
1533862913912631,1,-1,13,14,0,0,5,7
1533862913913498,-5,-4,2,6,0,-4,-9,-9
1533862913913498,-1,-1,-4,-5,-4,3,4,5
1533862913927426,1,-1,-6,11,9,2,-1,-1
1533862913927426,-4,-7,1,-37,-18,-6,-1,-1
1533862913928423,1,1,-15,-17,-7,2,1,-1
1533862913928423,-1,1,4,14,17,-5,-2,-2
1533862913950366,-1,7,2,-15,-28,-2,-2,-4
1533862913950366,-4,-15,-50,4,14,3,-1,1
1533862913950366,-2,-2,29,18,2,3,1,-1
1533862913950366,-3,-3,4,3,5,-2,1,-2
1533862913963330,1,2,3,-7,7,-3,-3,-2
1533862913963330,-2,-2,-4,-13,-22,-8,1,1
1533862913971312,-2,-4,-17,-16,8,-1,-3,-5
1533862913971312,2,2,12,15,5,2,1,0
1533862913987268,-3,-5,-23,0,-8,-4,-4,0
1533862913987268,4,4,9,-12,-1,5,4,2
1533862913988265,-1,1,3,18,5,2,-5,-1
1533862913988265,-2,0,-11,-26,-16,-3,-3,-3
1533862914009269,-1,-4,0,4,16,1,-2,0
1533862914009269,1,0,19,-11,-7,-6,-2,1
1533862914017245,-3,3,-44,3,1,-5,-2,-4
1533862914017245,-2,-11,-11,-5,0,-1,0,0
1533862914023446,-2,-3,10,11,-1,1,-2,-3
1533862914023446,-1,-9,62,12,12,2,3,0
1533862914032205,-1,-1,-14,-16,-9,-6,-4,-2
1533862914032205,-1,2,0,14,-2,0,1,-1
1533862914047165,-2,-6,-23,2,3,-2,-4,-3
1533862914047165,2,10,47,22,25,5,-2,0
1533862914048163,5,5,104,7,-18,-3,4,3
1533862914048163,-6,-2,10,2,-21,-2,0,-1
1533862914070102,-2,2,14,2,-7,0,-2,-1
1533862914070102,-2,0,-26,6,5,-1,0,1
1533862914071101,0,-2,-30,1,7,2,-4,-3
1533862914071101,4,5,9,-19,0,-2,-1,-2
1533862914084066,-1,-2,-2,7,-5,-5,-2,-2
1533862914084066,-2,-1,-19,16,2,-2,-1,-2
1533862914092044,1,-6,-16,-8,8,-4,-4,-3
1533862914092044,0,9,-55,-24,-19,-7,-2,-3
1533862914108005,-4,-11,-72,-5,-5,0,1,-2
1533862914108005,0,-1,30,0,4,4,1,0
1533862914108005,-6,-5,0,-20,-20,-8,-1,-2
1533862914108005,-1,0,5,7,11,4,1,3
1533862914130104,0,4,-12,-17,-5,0,-2,0
1533862914130104,-1,1,-13,25,3,-3,-1,3
1533862914130966,-2,-2,-13,-8,3,0,0,-2
1533862914130966,-1,-2,0,6,19,2,-3,-2
1533862914143909,-2,-9,-62,6,1,1,0,-3
1533862914143909,-1,-1,11,-10,-16,-1,0,1
1533862914151884,-2,2,8,12,-12,-3,-2,-1
1533862914151884,0,-2,15,4,13,4,2,1
1533862914166844,0,-1,18,-28,-11,0,2,-1
1533862914166844,0,2,-4,1,4,-5,-3,-2
1533862914167852,-4,-3,-26,-4,5,-2,0,0
1533862914167852,0,2,-12,-9,-5,1,0,-1
1533862914189786,4,15,49,4,9,-1,-2,0
1533862914189786,-2,0,26,5,6,0,-2,-2
1533862914190780,-1,-1,-17,2,-15,0,0,1
1533862914190780,-3,-10,15,4,-1,1,1,-1
1533862914203745,0,2,22,11,6,1,1,0
1533862914203745,-3,-4,-26,-18,-5,0,1,1
1533862914211728,-1,-1,-73,-9,1,-1,-4,-2
1533862914211728,2,2,80,10,0,1,0,1
1533862914226689,-2,-6,-5,8,-7,-4,0,0
1533862914226689,-4,-5,-23,-9,-9,-1,-2,-2
1533862914227697,0,-8,-34,-1,3,2,1,-2
1533862914227697,1,3,16,-5,2,-5,-2,0
1533862914249646,-4,-2,28,-7,-7,-2,0,-2
1533862914249646,-3,-2,-3,9,-3,-4,-3,-3
1533862914250620,-2,0,20,2,8,1,-1,-1
1533862914250620,0,-3,-23,-9,-7,-2,-2,-1
1533862914272564,1,11,-7,12,1,2,-1,-1
1533862914272564,0,-1,22,-36,-8,-4,-3,0
1533862914273559,-2,0,25,-1,9,0,0,0
1533862914273559,-1,-2,-14,4,-11,-1,-2,1
1533862914287521,-1,-4,4,1,5,-3,-1,-2
1533862914287521,0,0,-34,-5,-12,-2,-1,-2
1533862914288518,2,1,26,10,14,3,1,-1
1533862914288518,-1,3,-7,2,-2,-1,-1,-1
1533862914309465,-3,-8,-5,-16,0,-3,-2,1
1533862914309465,1,2,10,0,-3,-2,0,-1
1533862914310460,-1,-4,-20,2,0,-4,-2,0
1533862914310460,-1,-1,-6,8,-9,0,-2,-2
1533862914332408,0,-5,1,-6,-5,-2,1,-1
1533862914332408,-3,-12,6,-5,6,1,1,0
1533862914333399,0,3,1,16,-4,1,1,1
1533862914333399,-2,-3,-17,-3,-5,-4,-3,-2
1533862914347364,0,-3,-55,-21,-7,-3,-3,-2
1533862914347364,2,-7,7,14,2,2,1,6
1533862914347364,-5,0,10,4,4,0,-3,-7
1533862914347364,-1,-2,0,-18,-4,-3,0,0
1533862914370312,-1,-1,10,14,11,4,0,-2
1533862914370312,0,3,-17,9,1,-1,-2,-1
1533862914370312,3,-2,10,-9,-1,0,1,0
1533862914370312,-2,-3,-6,1,-9,-6,-2,0
1533862914392241,-2,1,8,2,-6,-1,-1,0
1533862914392241,-3,2,-35,9,1,-5,-4,-2
1533862914393239,-1,-4,20,-13,-10,-1,-2,-1
1533862914393239,1,0,-15,1,8,2,-1,-3
1533862914406207,-3,-2,9,-30,-27,-1,-1,0
1533862914406207,-3,1,-2,23,19,-1,-1,-2
1533862914415183,-1,-3,-2,-19,3,-3,-1,-2
1533862914415183,-4,-8,-64,-8,-8,1,-4,-5
1533862914428354,2,5,102,12,16,3,-1,0
1533862914428354,1,1,-6,-10,-17,0,1,-2
1533862914437157,0,4,-7,-5,5,-1,0,-2
1533862914437157,1,0,38,7,-6,-4,-1,0
1533862914453078,-1,-5,-16,7,9,-2,-1,0
1533862914453078,1,0,-8,6,2,2,0,-4
1533862914454076,-1,0,17,3,10,-3,-2,-1
1533862914454076,-2,1,-15,-18,-9,-6,-2,-3
1533862914475023,-3,-3,-18,-18,22,-1,-4,-2
1533862914475023,0,1,11,-27,-34,-2,3,-1
1533862914477022,-4,-3,-26,9,-11,1,-1,2
1533862914477022,0,-2,7,1,23,-3,-3,-2
1533862914488986,0,-1,-10,1,-9,0,2,0
1533862914488986,-1,0,-10,-7,15,-1,-2,-2
1533862914497959,-4,0,17,21,-11,-4,-4,-3
1533862914497959,-3,-7,-13,-42,-14,-7,-2,0
1533862914511921,2,1,5,21,5,-2,-1,-1
1533862914511921,0,-2,-8,-1,7,1,-2,0
1533862914513917,0,4,17,8,0,1,0,0
1533862914513917,1,6,33,31,21,3,-4,-2
1533862914534859,-3,-14,-35,-37,-34,-8,-2,-4
1533862914534859,0,1,-8,15,3,-2,-2,-1
1533862914536855,-3,-4,3,-40,-9,0,0,-1
1533862914536855,-1,4,-7,11,-6,-3,2,-1
1533862914548825,-3,-1,-9,0,8,-1,-4,-1
1533862914548825,-2,4,19,-4,-30,-11,-2,-2
1533862914557799,-3,-1,-16,5,6,1,-3,-2
1533862914557799,-3,-1,11,0,4,2,0,0
1533862914572762,0,-2,-29,28,7,2,-2,0
1533862914572762,5,23,87,-28,8,1,2,2
1533862914573764,-4,-25,5,-5,1,-4,-3,-3
1533862914573764,0,-2,3,12,1,2,3,-1
1533862914594907,-3,-7,-29,20,1,-3,-1,-2
1533862914594907,1,2,-27,-1,9,1,-2,-1
1533862914596696,4,0,-52,-14,-22,-1,1,3
1533862914596696,-3,-1,64,25,16,2,-3,-2
1533862914608665,-1,2,12,-7,2,-2,-2,0
1533862914608665,-2,-9,-32,-1,-10,-1,-2,-3
1533862914617639,-1,5,17,-9,-12,-2,2,1
1533862914617639,0,-4,-38,-10,-11,-1,0,1
1533862914632613,-4,3,-10,-11,-1,-7,-4,-2
1533862914632613,-2,-9,6,19,33,10,1,-1
1533862914634607,1,2,34,-13,-23,-5,2,1
1533862914634607,0,-5,-32,-19,-11,3,0,-2
1533862914654539,1,2,30,-3,-2,-1,1,-4
1533862914654539,-3,-12,-94,-2,-1,-6,-1,-3
1533862914656535,1,9,12,21,14,4,-1,-1
1533862914656535,-1,-2,8,21,3,-1,-1,0
1533862914668503,1,-3,39,-15,0,2,0,1
1533862914668503,-3,-2,-50,-2,-10,-2,-3,-2
1533862914677479,-1,8,-1,-16,2,-1,-3,-1
1533862914677479,-1,4,0,2,-9,-4,-3,-1
1533862914692438,1,1,-7,7,9,-1,0,-1
1533862914692438,1,3,65,14,-12,0,0,0
1533862914694434,-6,-3,-7,-2,-4,-4,-3,-2
1533862914694434,-2,-1,11,-10,5,3,1,-2
1533862914714415,-1,0,13,13,-3,2,1,1
1533862914714415,-4,-5,0,-27,-10,-4,-1,-1
1533862914722362,1,-4,-6,26,4,-4,-1,-1
1533862914722362,-2,-5,-21,-14,0,-5,-3,-2
1533862914728444,-1,-1,-16,2,-10,2,-1,-1
1533862914728444,0,-1,17,-2,9,-3,-2,-2
1533862914737320,-1,-5,-6,7,5,4,-1,-1
1533862914737320,2,-2,-14,1,11,4,-1,-1
1533862914752288,2,3,14,21,-11,-2,0,1
1533862914752288,-1,8,17,-28,-2,0,0,-1
1533862914754272,-2,-7,-7,2,-4,-3,2,-1
1533862914754272,-1,-1,-2,7,-1,-2,-1,0
1533862914775217,-4,-6,-11,3,0,-2,0,0
1533862914775217,-1,-2,-9,13,6,-2,-4,0
1533862914776215,2,5,2,-15,-1,0,1,1
1533862914776215,-3,6,-62,9,-3,-10,-7,-5
1533862914796161,-2,-7,10,-16,-4,1,0,0
1533862914796161,-3,-7,-15,11,-1,-4,-2,-3
1533862914805137,-1,-1,1,-20,-15,-4,-3,-3
1533862914805137,-1,-1,6,-2,-2,1,0,-1
1533862914812121,-1,-1,-23,1,1,-4,0,-2
1533862914812121,0,-4,4,-1,-1,1,1,0
1533862914814114,1,-1,-9,1,12,3,0,1
1533862914814114,1,1,-19,-1,-7,-1,-1,-1
1533862914835060,-4,-19,2,-10,3,-3,-2,0
1533862914835060,-2,-2,23,3,4,0,-1,0
1533862914836064,-4,-1,-9,4,5,-1,-2,-2
1533862914836064,-3,-5,12,-6,-12,-2,1,2
1533862914857995,0,5,-2,-7,1,-1,1,-2
1533862914857995,-4,0,-3,-3,-11,-5,0,-1
1533862914859990,-2,-4,2,20,9,1,0,-1
1533862914859990,1,5,-26,-10,8,1,-1,0
1533862914872958,1,7,70,0,-11,0,-3,-2
1533862914872958,4,-6,88,5,-3,3,1,0
1533862914873953,-3,-3,-11,12,5,2,0,0
1533862914873953,-1,-2,4,-17,-5,-2,0,1
1533862914894900,-3,8,-41,32,3,-6,-6,-3
1533862914894900,0,-7,-32,17,6,0,0,-1
1533862914896891,0,-3,6,-17,-18,-2,-2,-3
1533862914896891,-3,-4,26,-6,2,-2,0,-2
1533862914917835,-1,3,-3,3,0,-1,-1,-2
1533862914917835,-2,0,-16,-18,-4,0,-2,0
1533862914918837,0,-1,-14,-3,6,-2,0,-2
1533862914918837,1,-2,-3,21,6,0,1,-1
1533862914931814,-2,-2,-15,-14,-18,0,0,-1
1533862914931814,-1,0,-16,12,-1,-2,-1,-2
1533862914938856,-1,0,7,-13,0,-2,-3,0
1533862914938856,-4,-4,-72,-10,-3,-3,-3,-3
1533862914954737,-1,-6,42,16,8,-2,1,0
1533862914954737,-1,2,-34,-24,1,-2,-4,-2
1533862914956746,7,19,99,12,0,4,2,1
1533862914956746,-2,-12,32,-10,-5,1,1,0
1533862914977678,-4,-8,-37,0,4,3,0,-1
1533862914977678,-3,-2,-23,8,-8,1,0,0
1533862914978690,0,-1,-41,-16,0,-4,-3,-2
1533862914978690,-1,3,10,17,3,-5,-5,-2
1533862914991845,0,3,2,-35,-9,0,1,-2
1533862914991845,-2,0,9,-9,-14,-5,-3,-3
1533862914998620,-2,-3,-20,-10,-3,2,0,-2
1533862914998620,1,2,26,0,-3,2,3,1
1533862915014763,0,0,-20,15,6,0,-2,-1
1533862915014763,-2,4,4,1,2,0,-1,-2
1533862915016572,-3,-8,-13,-13,-3,-4,-2,-1
1533862915016572,-2,-1,0,4,0,3,-1,0
1533862915037518,2,1,58,-1,10,2,1,3
1533862915037518,-4,-3,2,-1,-4,0,0,1
1533862915039510,-3,-3,-4,15,0,-4,-2,-3
1533862915039510,0,-9,-7,-9,2,-1,-1,0
1533862915051479,-1,2,-26,-22,-16,-5,-3,-2
1533862915051479,-1,-1,18,22,8,1,-1,-1
1533862915058471,-2,-5,-20,7,4,-1,1,-1
1533862915058471,1,9,1,-4,-10,-3,-3,-1
1533862915075414,0,-4,-25,2,10,1,0,-1
1533862915075414,-1,-4,-13,-13,-13,-5,0,0
1533862915076412,-3,-4,-16,-3,-5,-4,-2,-2
1533862915076412,-1,-1,-4,-3,3,0,1,-1
1533862915097355,-1,1,4,19,2,0,-1,-1
1533862915097355,4,-1,23,-9,7,-1,1,-1
1533862915099352,-1,0,-5,-4,-10,-3,-1,-2
1533862915099352,-3,0,2,-4,-5,2,-2,-2
1533862915111321,-1,-1,2,-11,1,3,-1,-1
1533862915111321,-3,2,-34,0,-2,-2,-1,-2
1533862915120294,2,-10,31,20,6,-2,-1,-1
1533862915120294,0,3,5,-3,-2,-4,-1,-1
1533862915135254,-3,-21,-62,-14,-11,-6,-3,-3
1533862915135254,0,-3,-1,-7,6,6,1,1
1533862915136251,-4,-1,-13,-18,-7,-1,-1,-1
1533862915136251,-5,1,-9,4,0,-1,-3,-1
1533862915157198,1,-2,62,6,4,-1,-1,2
1533862915157198,-2,-5,-4,8,-14,-6,-5,-4
1533862915159190,-1,0,2,5,6,1,-1,-1
1533862915159190,1,-2,14,1,-10,-3,0,0
1533862915172159,-3,5,-23,-14,-11,-2,-2,-2
1533862915172159,2,1,1,5,-7,2,0,1
1533862915179140,-1,0,-3,3,13,1,-1,-2
1533862915179140,-1,-2,-14,0,-10,-1,-2,-1
1533862915196094,-1,2,-9,-7,14,-4,-4,-3
1533862915196094,-2,-4,1,0,-9,-3,-2,0
1533862915197089,3,1,-10,2,6,2,2,1
1533862915197089,0,-3,9,8,-7,2,0,-1
1533862915217035,-2,0,-3,5,5,0,-2,-2
1533862915217035,-1,1,3,3,6,2,-1,-1
1533862915219030,-1,1,-3,-5,4,-2,0,-2
1533862915219030,0,0,5,1,11,1,1,0
1533862915231999,-1,0,-4,3,-6,-2,0,-1
1533862915231999,0,-2,-13,-10,5,-2,-4,0
1533862915239210,0,0,0,11,0,1,-3,1
1533862915239210,0,-3,4,-10,-5,-2,-1,-3
1533862915254948,-3,1,-10,15,0,-5,-4,-2
1533862915254948,-1,-1,1,-22,5,1,0,-2
1533862915256977,-1,0,1,6,0,-2,-2,-1
1533862915256977,-2,1,5,-12,1,0,0,-1
1533862915277875,-1,0,-5,6,-19,0,2,0
1533862915277875,-1,-2,-3,4,5,-1,-1,-2
1533862915278869,-1,0,-2,3,-8,-2,-4,0
1533862915278869,-1,-2,-7,-15,9,0,-2,-1
1533862915290855,1,-2,0,1,3,-1,0,0
1533862915290855,-1,-1,-19,1,4,0,-1,-1
1533862915299814,3,17,38,-8,-3,-1,-1,0
1533862915299814,-5,-17,37,5,-3,-1,0,1
1533862915314777,-5,-4,-14,-3,5,0,-2,-1
1533862915314777,-3,-6,7,2,-24,-4,-2,-3
1533862915316783,-3,1,-42,-10,-9,-8,-3,-3
1533862915316783,2,4,-12,6,-9,0,2,1
1533862915337729,0,3,12,-8,4,1,0,-1
1533862915337729,-1,-1,-43,-7,6,1,0,-2
1533862915338709,1,-4,68,10,-4,-2,-2,-2
1533862915338709,-1,1,0,0,7,-3,-4,0
1533862915350686,-1,-1,-10,6,1,2,-1,0
1533862915350686,-2,0,-7,-20,-5,-5,-2,-2
1533862915359691,-2,-9,-23,-1,-2,2,0,-2
1533862915359691,0,-2,-1,-2,4,-1,0,-3
1533862915374648,1,4,7,-8,2,-2,0,-1
1533862915374648,-1,0,10,8,0,-1,-2,0
1533862915376632,-2,9,-38,-8,-1,-1,-1,-1
1533862915376632,0,-6,13,2,-1,-1,-1,-2
1533862915397760,5,6,16,11,4,-1,1,1
1533862915397760,-6,-10,33,-22,-15,-6,0,-1
1533862915398553,-5,-6,-32,13,8,4,-1,1
1533862915398553,-1,7,39,6,-14,-2,-3,-1
1533862915411524,-2,-1,-8,-19,-10,0,1,-2
1533862915411524,2,1,4,14,9,2,1,0
1533862915420506,-1,-5,-47,-12,-2,-2,-2,-3
1533862915420506,1,6,24,-4,2,-2,-2,-1
1533862915434727,-1,-4,2,3,10,1,-1,0
1533862915434727,1,4,-1,10,13,-2,-2,-1
1533862915436722,-4,-10,-15,-16,-33,-8,-1,-1
1533862915436722,0,1,-31,7,6,1,0,-2
1533862915457664,-3,-1,-13,-13,-12,-8,-3,-2
1533862915457664,-1,0,9,5,7,-3,1,-1
1533862915458662,1,-2,18,0,9,-2,0,0
1533862915458662,-1,-3,-16,5,-3,-3,-1,-2
1533862915471631,0,0,8,9,4,2,0,-1
1533862915471631,-3,-2,-15,-12,3,2,0,1
1533862915487585,-1,-5,12,23,5,0,-2,-2
1533862915487585,-2,-1,-14,-12,-5,3,-2,-4
1533862915495563,-2,-4,-14,-1,-2,-1,-2,-2
1533862915495563,-1,2,0,-2,-1,1,0,0
1533862915496561,0,1,12,-5,0,0,1,-1
1533862915496561,-1,0,-6,1,10,-1,-1,-1
1533862915517504,1,-1,-40,8,8,7,1,0
1533862915517504,-3,-2,16,7,-31,-8,-3,1
1533862915519500,-3,-4,6,-10,8,-4,-4,0
1533862915519500,-2,-4,-35,-11,-1,-5,-3,0
1533862915531506,-2,-7,-25,-4,0,1,-1,-2
1533862915531506,1,4,45,9,4,2,-1,0
1533862915540444,-2,-1,1,0,8,2,0,-1
1533862915540444,-3,-2,-11,0,-5,-1,0,-2
1533862915555551,-1,1,0,-9,-17,-6,1,0
1533862915555551,-2,-3,-19,-1,1,-1,-3,-3
1533862915556401,-3,-3,10,-7,0,0,-1,-1
1533862915556401,-2,-2,6,7,10,1,0,-1
1533862915577347,-1,1,16,-7,-5,-4,-2,-2
1533862915577347,0,-4,-11,2,7,1,0,-2
1533862915579340,0,0,2,-4,8,3,0,0
1533862915579340,-2,0,-6,-1,-12,-4,-1,1
1533862915591310,0,-1,9,7,-4,-4,-2,-1
1533862915591310,1,-2,-12,-16,3,0,-3,-1
1533862915600283,-2,-4,-10,7,-3,-3,-3,-2
1533862915600283,-1,-1,1,-3,2,1,-1,-1
1533862915615243,-3,0,12,4,-5,-1,0,-3
1533862915615243,-2,0,-1,3,3,1,0,0
1533862915616252,0,0,4,-3,-1,2,0,-1
1533862915616252,0,-1,-1,0,9,-3,-2,-1
1533862915637188,0,-3,5,-6,-10,-2,-2,0
1533862915637188,2,2,-7,5,-17,-2,-1,0
1533862915639180,-5,-4,-5,-17,-11,-3,-2,-2
1533862915639180,-1,0,-1,4,1,-2,0,-2
1533862915651159,-3,-1,-2,-2,12,0,-3,-2
1533862915651159,1,0,-2,4,5,3,-1,0
1533862915660123,1,-1,6,7,-7,-3,0,1
1533862915660123,-3,0,0,-7,-12,-5,0,-2
1533862915675087,-1,-2,4,-16,-4,-1,-1,-1
1533862915675087,-5,-5,-12,-2,1,-5,-1,-4
1533862915677079,0,0,2,-4,-8,0,1,0
1533862915677079,-1,-1,-1,1,4,1,-3,-1
1533862915697028,-1,-2,4,6,-3,-1,-1,0
1533862915697028,1,-1,-5,-11,1,-4,-3,-2
1533862915699019,3,13,17,2,10,2,0,0
1533862915699019,1,-10,6,22,5,-2,0,0
1533862915719122,-4,-6,-4,-31,-12,-2,-1,-1
1533862915719122,-1,-1,-4,-5,1,2,1,-2
1533862915727943,-3,-6,-64,2,-4,-1,-1,-3
1533862915727943,1,4,32,1,-2,2,-1,-1
1533862915733925,-1,0,8,14,9,-1,-1,-2
1533862915733925,-4,-2,-9,0,2,-1,1,-1
1533862915741118,-2,-5,-4,-5,-3,-1,1,1
1533862915741118,-2,-3,-50,-9,-2,0,-2,-2
1533862915764846,1,1,19,2,7,-1,0,0
1533862915764846,0,2,6,6,-6,1,0,-1
1533862915766852,-2,-2,13,0,5,-3,-2,-1
1533862915766852,-1,-3,-8,-5,-4,-3,-2,-1
1533862915779803,-1,0,-3,0,-7,-4,-2,0
1533862915779803,-1,-2,-3,-1,0,-1,-1,-1
1533862915781798,0,-2,14,1,0,0,-1,-2
1533862915781798,-2,1,0,-3,13,2,0,-2
1533862915794766,0,1,-11,3,-1,0,-2,-1
1533862915794766,-3,-2,4,-2,-14,-6,-1,0
1533862915796757,-2,-1,-21,-1,-3,1,0,-2
1533862915796757,-3,-3,19,-10,-14,-1,-1,-3
1533862915817702,-1,0,-1,-1,6,1,-1,-3
1533862915817702,0,3,-6,2,9,2,-2,-1
1533862915818701,-1,-16,1,13,6,-4,-4,-1
1533862915818701,-1,0,5,-13,-10,4,4,2
1533862915839643,-2,-4,-9,-9,-12,-3,-2,-2
1533862915839643,0,-2,5,4,0,-1,-3,-4
1533862915841637,0,2,-20,-14,-4,-3,-2,-2
1533862915841637,3,7,66,12,7,-2,0,0
1533862915854603,-2,-1,5,7,3,-2,0,0
1533862915854603,-2,-1,-4,-2,0,-1,-1,0
1533862915856599,3,6,8,-4,4,3,1,1
1533862915856599,-4,-18,-23,8,-8,-4,-1,0
1533862915877545,-1,4,44,6,-6,3,-1,1
1533862915877545,-2,-3,11,-10,-6,-2,-1,0
1533862915879537,-2,0,13,4,-1,1,-1,-1
1533862915879537,1,0,-15,-8,-2,0,0,-1
1533862915899483,0,-1,-11,2,6,1,0,-2
1533862915899483,0,0,-14,1,3,2,-1,1
1533862915901485,-2,2,22,8,7,-2,0,0
1533862915901485,1,2,-17,-15,-14,-1,0,0
1533862915914443,-4,-6,-18,-12,6,-3,-3,-3
1533862915914443,0,-1,-2,9,-4,-3,-1,0
1533862915928406,-3,2,11,-14,-17,-3,0,-1
1533862915928406,-2,2,-4,6,5,-1,-4,-1
1533862915937416,1,-3,-11,3,4,0,-1,0
1533862915937416,1,5,55,-1,0,-1,2,1
1533862915939411,-2,-2,-28,-2,1,-1,-2,-3
1533862915939411,-1,-1,-8,1,6,1,-1,-3
1533862915960323,1,0,3,2,-8,-5,0,0
1533862915960323,-2,-4,-8,5,-2,-3,-2,-1
1533862915966305,-3,-1,-35,-19,-12,-6,-3,-3
1533862915966305,-1,2,52,20,4,0,-1,-1
1533862915982262,-1,12,-1,4,14,2,-4,-3
1533862915982262,-3,-7,-92,-13,-20,-7,-6,-4
1533862915984256,2,-2,41,3,10,1,4,1
1533862915984256,-6,-2,-17,8,-19,-4,-1,-2
1533862915997436,-1,-1,5,8,4,1,-1,0
1533862915997436,0,-2,-5,5,16,3,-1,0
1533862915999228,3,6,58,-12,-9,-1,-2,-1
1533862915999228,1,1,-17,-12,4,-3,-3,-3
1533862916020160,0,2,-51,1,-12,0,-1,-1
1533862916020160,1,1,58,-4,13,4,0,0
1533862916021162,-1,-3,63,1,-6,0,1,0
1533862916021162,-2,1,8,1,0,0,-1,-1
1533862916042102,-3,-7,17,-21,-20,-8,-2,-2
1533862916042102,2,1,-30,-2,-7,-4,0,-1
1533862916044096,1,8,-7,20,14,1,-1,-1
1533862916044096,-2,-13,-40,-17,-6,-10,-7,-3
1533862916057080,-5,-8,-37,2,3,2,-2,-1
1533862916057080,0,5,63,-10,-6,0,3,2
1533862916059056,-4,-6,-26,1,-3,-1,-2,0
1533862916059056,1,8,14,3,6,1,1,-1
1533862916080000,-1,-5,-29,-10,0,-1,-2,-2
1533862916080000,-1,-5,-7,-10,-1,1,0,-1
1533862916081995,-2,0,9,14,0,2,-2,0
1533862916081995,0,-5,-24,-4,-5,3,-2,0
1533862916093962,-1,-3,14,-7,3,-1,-1,0
1533862916093962,-2,4,-59,9,5,1,-1,-2
1533862916100944,0,-9,5,15,0,-2,-1,0
1533862916100944,-4,-2,-28,-8,-10,-2,1,1
1533862916117899,1,1,-65,-11,0,0,0,-2
1533862916117899,-1,-8,23,4,6,0,-1,-2
1533862916118897,-5,-4,-40,-5,4,-3,0,-3
1533862916118897,-1,0,24,25,2,0,-1,0
1533862916139843,-2,-1,8,-3,-9,-1,-1,0
1533862916139843,-2,-3,1,8,5,1,-1,-2
1533862916141835,-1,-2,-17,-15,-11,-1,-1,-2
1533862916141835,1,-1,-9,8,8,-1,-1,-1
1533862916153804,-1,-1,34,11,0,-4,-2,-1
1533862916153804,-3,-4,-34,-23,-2,-4,0,-1
1533862916161782,4,7,75,-5,-2,-4,-1,1
1533862916161782,0,0,-1,-21,-6,2,0,-1
1533862916177739,0,2,12,27,8,0,-1,-1
1533862916177739,-4,-2,-5,5,-2,-1,-4,-3
1533862916178736,0,-4,-7,-11,-2,1,0,-2
1533862916178736,-3,1,-3,1,11,2,-1,-1
1533862916207662,-3,-1,28,11,-15,-2,-2,-1
1533862916207662,0,-4,-2,-8,-7,-1,-1,0
1533862916208657,1,9,-40,-12,0,-1,-3,-2
1533862916208657,3,-2,22,17,10,-1,-1,-2
1533862916213646,-3,-8,-7,-14,-9,-3,-1,-1
1533862916213646,-1,5,61,2,-8,-2,1,1
1533862916222619,-2,-4,-15,22,2,0,1,1
1533862916222619,-1,-4,-15,-30,-16,-4,0,-3
1533862916237582,2,-1,-4,0,12,1,0,0
1533862916237582,0,-1,-15,-6,-1,-1,-2,0
1533862916239574,0,0,-16,1,-1,-1,1,0
1533862916239574,1,2,6,5,15,1,-1,0
1533862916259520,1,-1,3,6,-26,-10,-1,-1
1533862916259520,-4,-2,-94,9,3,-1,-2,-2
1533862916261516,-3,-8,69,10,0,-2,-2,1
1533862916261516,-4,-4,-16,-5,-6,0,-1,-1
1533862916273483,0,2,9,-2,9,4,2,-2
1533862916273483,0,-5,-14,-8,-1,5,-1,0
1533862916282460,-1,1,-31,-4,-7,-3,-3,-4
1533862916282460,1,-2,1,-15,-6,-3,-3,-1
1533862916297418,-3,-1,4,-19,3,-1,-2,2
1533862916297418,-3,-3,21,19,3,-5,-1,-1
1533862916299414,-2,-3,-27,-10,-5,-2,-3,-1
1533862916299414,0,1,16,5,3,0,1,-1
1533862916320358,0,0,-5,-3,12,3,-1,-2
1533862916320358,-1,0,1,-5,-9,-5,0,-1
1533862916321359,-3,-1,-11,-27,-18,-5,-5,-1
1533862916321359,-3,-6,-10,1,-9,-1,0,0
1533862916333323,-1,1,11,0,-4,0,0,-2
1533862916333323,2,-3,6,7,3,1,0,-1
1533862916342474,-3,-4,-39,-3,11,1,-3,-3
1533862916342474,-3,1,-6,-5,-8,-5,-3,-3
1533862916357260,-3,-1,8,-2,3,1,-2,-1
1533862916357260,2,4,30,2,3,-2,0,0
1533862916359254,-2,-7,-23,-22,-17,-3,-1,-1
1533862916359254,0,1,-7,-3,7,-2,-2,1
1533862916380404,-1,-1,1,19,17,1,-2,-4
1533862916380404,-1,-5,-16,-18,-17,-2,-4,-1
1533862916381224,0,4,6,13,13,3,2,1
1533862916381224,-1,2,30,-19,-13,-4,-1,-1
1533862916394177,-1,-4,-3,-24,-17,-3,-1,-1
1533862916394177,-1,-4,1,16,6,0,-1,-2
1533862916409134,1,0,14,12,0,2,2,0
1533862916409134,0,0,2,-5,5,1,0,1
1533862916417099,-1,-1,-2,4,-10,-1,1,1
1533862916417099,-2,5,20,-8,-6,-4,-2,0
1533862916419094,-3,-4,-15,25,6,-3,-4,-4
1533862916419094,1,-2,-13,-18,-4,0,-1,-2
1533862916440067,-2,-3,-1,4,4,-3,-2,-2
1533862916440067,0,0,-12,-1,8,1,1,0
1533862916442033,-1,5,3,-3,-15,-5,1,0
1533862916442033,1,9,25,20,2,2,0,0
1533862916454001,0,-6,-4,-25,-12,-1,-1,-3
1533862916454001,-3,-9,-12,10,5,-1,-2,-3
1533862916462977,0,-5,-9,-9,3,2,-2,-1
1533862916462977,0,-5,-22,12,3,-1,1,-2
1533862916478115,0,6,13,3,4,-1,-1,2
1533862916478115,-2,5,2,-3,-2,2,0,-1
1533862916478934,0,-7,66,-16,2,-1,-1,0
1533862916478934,-6,-5,-4,8,-9,-3,-1,-3
1533862916499878,0,-2,-47,3,0,-2,-1,-1
1533862916499878,-1,-4,21,8,5,1,-2,-1
1533862916501880,0,3,-31,3,2,-1,-1,-2
1533862916501880,1,12,0,2,6,-2,-2,-2
1533862916513840,-2,-10,3,-10,-7,-3,2,1
1533862916513840,1,-2,-19,-9,-1,-4,-3,0
1533862916522817,-4,-3,-10,3,-16,-5,-2,-1
1533862916522817,-1,1,-7,-5,7,5,-2,1
1533862916537777,-1,3,-11,-15,1,2,-3,-2
1533862916537777,-3,3,18,23,-4,-5,-3,-3
1533862916538772,0,0,1,0,3,2,0,-1
1533862916538772,-2,-10,-5,-13,1,-4,-4,-4
1533862916560718,1,0,2,-23,-5,0,-2,-1
1533862916560718,1,-2,4,14,3,0,2,1
1533862916562709,-2,3,-2,-6,11,1,1,-3
1533862916562709,1,0,2,2,-8,0,0,0
1533862916573833,-1,2,12,22,6,0,0,0
1533862916573833,-4,0,-28,-25,-4,-2,-1,-1
1533862916582657,-1,-1,-12,11,0,1,-1,0
1533862916582657,-1,-7,-43,5,-3,-2,-2,-2
1533862916598613,-2,18,4,-25,-1,-2,-4,-2
1533862916598613,-2,-10,-44,-6,-6,-3,-2,0
1533862916599611,-1,3,-11,-6,-4,0,0,-4
1533862916599611,-4,-8,1,0,-4,1,-1,-2
1533862916620558,-1,1,-5,24,4,-2,0,0
1533862916620558,1,2,5,-25,-2,0,0,-2
1533862916621553,-2,-5,-24,27,7,-4,-3,-2
1533862916621553,-1,6,5,-18,-5,-1,-2,0
1533862916633520,2,-6,3,6,11,0,-1,-2
1533862916633520,-3,2,18,8,-14,-4,0,0
1533862916642496,0,-2,15,-22,-7,2,0,1
1533862916642496,-1,-3,4,15,-5,-3,0,0
1533862916657456,-1,-6,2,22,3,0,0,0
1533862916657456,2,-1,9,0,22,5,2,-2
1533862916659459,-1,-2,-6,9,-11,-5,-1,-4
1533862916659459,-1,1,0,-2,8,2,-2,0
1533862916680397,-3,-1,-12,15,-13,0,-3,-1
1533862916680397,1,1,39,-18,-5,1,0,2
1533862916681392,-1,-9,-13,-31,9,-2,-3,0
1533862916681392,-2,-4,-3,11,-13,-2,0,0
1533862916702339,-1,-14,-5,-4,6,0,-2,-1
1533862916702339,0,2,-6,19,1,-1,0,0
1533862916704332,4,9,72,-31,-20,3,2,1
1533862916704332,-5,-6,15,15,6,-5,-3,-1
1533862916717296,-4,-1,-12,-35,-13,-4,-1,-1
1533862916717296,-2,2,9,0,-2,-1,-3,-3
1533862916719290,-1,-7,-22,13,4,2,1,-1
1533862916719290,3,1,-21,-2,6,1,1,-1
1533862916740239,1,5,23,1,1,-2,-1,0
1533862916740239,-2,0,-13,0,-1,0,-2,-1
1533862916741232,-3,3,-1,10,-4,-5,-2,-2
1533862916741232,1,-1,5,-8,-3,-1,1,0
1533862916762178,-1,-3,-13,9,4,-2,-1,-1
1533862916762178,1,1,15,-10,-6,-3,-1,-1
1533862916764171,2,-2,21,13,5,-1,-1,0
1533862916764171,-2,6,-8,-1,-2,-1,-1,-2
1533862916777136,-1,-11,73,14,5,1,2,2
1533862916777136,-1,-4,-6,-2,-4,-3,0,1
1533862916779130,-1,2,13,1,-4,-4,12,9
1533862916779130,-4,12,28,-4,3,0,-15,-18
1533862916800074,-10,-25,-31,1,-2,-1,3,2
1533862916800074,6,-8,13,-2,-4,-2,-7,4
1533862916802069,0,2,-19,-9,3,0,6,14
1533862916802069,5,1,-6,-9,-1,0,2,-5
1533862916822018,-14,5,-18,3,-1,0,-19,-32
1533862916822018,-7,-3,-12,1,-1,-2,2,4
1533862916824011,4,-10,-26,-4,-2,-2,-9,-4
1533862916824011,2,-1,-17,1,-2,-1,8,16
1533862916844954,5,8,0,-2,-7,-2,2,9
1533862916844954,-2,-5,-15,-13,-3,-1,1,-4
1533862916846952,1,7,1,3,0,-2,-1,-3
1533862916846952,-4,5,-10,19,12,0,1,-4
1533862916859915,0,-12,2,-40,-19,-1,4,4
1533862916859915,-4,-3,-41,14,8,0,-4,-3
1533862916861913,-7,-2,40,-9,-26,-8,-8,-9
1533862916861913,0,-3,8,0,-4,3,-1,2
1533862916881889,2,3,-20,-5,3,0,1,1
1533862916881889,-1,2,-5,-3,2,-4,0,1
1533862916889961,-2,-6,-27,7,18,3,-4,-7
1533862916889961,-3,-9,-1,15,11,-5,-1,-1
1533862916897008,4,11,11,2,-30,-3,0,3
1533862916897008,0,3,18,-6,13,2,1,-3
1533862916903798,-4,-1,-43,10,5,0,-4,-3
1533862916903798,-1,-3,26,-18,3,2,-1,1
1533862916919787,1,-7,-22,10,-1,-1,2,1
1533862916919787,-1,2,44,4,0,-5,-2,-3
1533862916921785,-1,-2,-8,2,-11,-5,-4,-4
1533862916921785,0,-6,-21,-14,0,0,-1,0
1533862916943062,-1,1,-5,6,11,-3,-4,0
1533862916943062,1,11,14,4,-15,-2,-5,-3
1533862916943896,-2,-6,2,-13,12,4,-1,0
1533862916943896,0,2,7,-8,-16,0,-1,-1
1533862916956865,-1,3,20,6,4,-3,0,-2
1533862916956865,-1,-1,-16,5,-3,-3,-2,-2
1533862916963846,1,3,-5,-15,21,3,0,-3
1533862916963846,-3,-3,-11,-6,-34,-6,0,1
1533862916979804,-2,1,-14,4,5,-1,-3,2
1533862916979804,-2,-5,-15,-26,-13,3,2,0
1533862916981795,-3,-4,-1,15,6,-2,-4,-4
1533862916981795,-1,-5,-1,-5,6,0,-1,-1
1533862917002742,0,2,4,1,6,1,1,-1
1533862917002742,-1,0,7,0,-4,-3,-2,0
1533862917003736,1,1,8,24,26,0,-3,-1
1533862917003736,-3,0,-4,-17,-29,-1,1,-2
1533862917016702,-1,1,1,6,9,-5,-3,-2
1533862917016702,-4,-4,-8,-7,2,0,-1,-1
1533862917023700,-1,-2,-7,-5,-14,-6,0,1
1533862917023700,0,-4,-3,8,4,-3,-3,-1
1533862917039640,2,3,4,10,9,6,0,0
1533862917039640,-2,-3,-11,-20,-12,-7,-1,-2
1533862917041634,-1,1,2,22,-9,-4,-1,-3
1533862917041634,-3,-4,-8,-6,12,0,-2,-2
1533862917063675,1,-2,27,-2,-6,0,0,1
1533862917063675,-1,0,-1,0,3,3,0,-2
1533862917064574,0,0,9,-4,-5,3,0,0
1533862917064574,-1,0,-10,-6,-2,-3,-1,-2
1533862917076541,-3,3,-115,7,4,-6,-5,-4
1533862917076541,-1,-2,36,19,7,4,1,1
1533862917083523,-4,-3,-21,-31,-19,-2,-2,-2
1533862917083523,-3,-7,4,12,2,-3,-4,-3
1533862917099482,-1,1,-15,-9,3,0,0,-2
1533862917099482,1,-2,-16,-12,-4,-2,-1,-1
1533862917101475,-1,0,0,0,-18,-1,1,1
1533862917101475,-4,3,-1,1,7,-5,-2,-2
1533862917122418,-1,-3,21,-8,-19,-7,-1,0
1533862917122418,0,-3,-8,9,3,0,-1,-2
1533862917124413,0,0,21,-2,9,2,-2,-2
1533862917124413,1,-3,-13,-10,-16,-3,-2,-3
1533862917136385,0,2,20,-3,5,1,1,2
1533862917136385,0,-1,-2,-1,-10,-2,-2,0
1533862917151342,-2,0,-11,-3,-2,-3,1,2
1533862917151342,1,-3,1,11,21,3,-2,0
1533862917160321,-3,-7,9,-6,-9,-5,-2,-2
1533862917160321,-6,1,-7,7,1,1,-1,-2
1533862917161314,2,-7,-8,4,-15,-5,-2,-2
1533862917161314,-2,3,5,8,3,1,0,-1
1533862917183263,2,5,5,-24,5,3,0,0
1533862917183263,2,-14,-10,21,10,3,0,1
1533862917184253,-2,0,-8,-1,-1,-1,-3,-3
1533862917184253,0,0,5,-5,4,1,2,-2
1533862917196221,-2,0,-3,16,1,-1,-1,-1
1533862917196221,-2,5,-28,-2,-6,-3,0,-1
1533862917205198,0,5,48,-14,-2,-3,-1,-1
1533862917205198,-2,-3,-3,-3,-4,-4,0,1
1533862917220157,-1,-5,11,9,-3,-3,-1,1
1533862917220157,-3,-2,-20,-18,-23,-7,-4,-4
1533862917221162,-2,-4,-16,15,9,2,-3,-1
1533862917221162,1,6,5,2,1,3,-2,1
1533862917242098,0,-6,14,-20,-4,0,-1,0
1533862917242098,2,-1,-6,19,6,-1,0,-2
1533862917244094,-1,-1,-18,-14,-23,-5,0,0
1533862917244094,-1,2,6,1,-1,-1,1,0
1533862917256064,-5,-6,-7,1,1,1,-3,-2
1533862917256064,1,-1,14,-4,11,1,0,0
1533862917265037,-3,-3,-17,14,13,-1,-3,0
1533862917265037,-1,4,12,-8,-1,-4,-1,0
1533862917280002,1,5,1,8,-9,-3,-1,-1
1533862917280002,-2,-17,22,-8,4,1,-1,-1
1533862917282005,0,-1,7,8,8,6,0,-1
1533862917282005,-2,-4,-35,-9,10,0,-6,-4
1533862917302936,1,-2,4,-23,-15,-4,-3,-2
1533862917302936,1,7,46,7,-4,0,1,0
1533862917303940,-2,1,-2,5,2,-3,-3,-3
1533862917303940,-2,-8,-1,2,-2,2,0,0
1533862917315902,-1,-1,-1,13,3,-2,-2,-2
1533862917315902,1,2,-16,-13,6,-1,0,0
1533862917324877,-2,-3,-5,-10,-8,-4,0,-1
1533862917324877,-1,3,12,1,-8,-3,-1,-2
1533862917339840,0,0,1,26,12,1,0,-1
1533862917339840,-3,0,-5,-25,-4,-5,-2,-4
1533862917341852,-2,0,0,-11,-7,0,0,-2
1533862917341852,0,-5,-17,-6,6,-6,-1,0
1533862917362775,0,1,6,14,-13,2,1,1
1533862917362775,0,4,-1,-6,16,6,-2,-1
1533862917363773,-1,-2,-20,-4,-14,-6,-2,-3
1533862917363773,-1,-16,-5,-27,-23,1,-1,0
1533862917375755,-3,-6,-2,-1,7,-2,2,0
1533862917375755,-1,-3,-18,10,2,-6,-2,-1
1533862917392696,1,0,7,4,10,4,1,2
1533862917392696,-3,4,35,-14,-17,-4,-4,-3
1533862917399677,0,1,11,0,4,3,0,-2
1533862917399677,-3,-3,-24,-1,-9,1,-1,0
1533862917401672,-1,0,-4,1,4,4,0,-1
1533862917401672,1,3,-8,14,13,1,1,0
1533862917422615,-3,-3,-10,-18,-4,0,-2,1
1533862917422615,0,1,5,8,-3,-3,-2,-2
1533862917428599,-1,-1,0,5,12,-3,-3,0
1533862917428599,0,1,-1,9,-9,1,-1,-2
1533862917436578,-1,-2,10,-12,-13,-6,1,-2
1533862917436578,-1,0,-6,10,-1,4,-1,1
1533862917445554,-2,1,2,3,-6,-3,-1,1
1533862917445554,-3,3,-7,-9,-5,-1,0,-4
1533862917460526,0,-5,-8,13,6,0,-2,-2
1533862917460526,-4,-11,-21,-26,-14,-9,-3,-4
1533862917461513,-1,-4,3,-8,-15,-2,-1,-3
1533862917461513,1,-5,-31,20,27,-1,-3,-2
1533862917482456,0,6,45,-4,-2,-4,-1,1
1533862917482456,-1,11,17,16,8,-1,-3,-3
1533862917484451,-5,-9,-37,-7,0,-2,-1,1
1533862917484451,3,6,75,20,-4,0,1,4
1533862917496418,-4,2,2,-2,4,0,-1,0
1533862917496418,-1,6,86,10,1,-1,1,1
1533862917505415,3,12,53,-5,-6,1,0,0
1533862917505415,-2,-20,-9,11,11,1,1,-1
1533862917520357,-1,-6,-26,-10,-3,-2,-1,-2
1533862917520357,-1,-2,-26,2,0,-3,1,-1
1533862917521351,0,-3,-23,-1,-7,-1,-2,-2
1533862917521351,1,4,4,-1,-1,0,-2,-1
1533862917542299,0,0,-15,-6,3,-1,-3,-2
1533862917542299,-2,-6,-29,-12,-1,3,1,-1
1533862917544290,-2,-3,0,-10,3,-2,-3,-3
1533862917544290,-3,4,-19,-9,19,1,-2,1
1533862917556259,0,-5,-7,16,-33,-4,-1,-2
1533862917556259,-2,-3,-6,-13,-4,-4,-3,0
1533862917565246,-1,-2,1,17,13,1,1,-1
1533862917565246,-3,-2,-3,-19,-18,-6,-1,-1
1533862917580195,-2,2,-28,-1,13,3,0,-1
1533862917580195,0,-1,6,1,3,-1,-2,-3
1533862917581192,1,-2,1,-6,-8,-1,-2,0
1533862917581192,1,-2,-20,2,8,3,0,-2
1533862917602136,0,-5,-5,3,-6,-4,-2,-2
1533862917602136,-2,-4,-24,-12,-1,-1,-2,-2
1533862917604137,-1,9,3,2,11,0,-3,0
1533862917604137,-3,-1,1,-12,-12,-3,-1,-1
1533862917625078,0,-2,6,3,12,1,-1,-2
1533862917625078,-1,3,-10,-4,-8,-2,-1,-1
1533862917626071,2,-12,38,24,26,2,2,1
1533862917626071,-3,-4,-8,-30,-25,-2,-4,-2
1533862917640034,-6,-15,-97,-2,3,-4,-3,-3
1533862917640034,0,5,41,15,0,-1,0,1
1533862917641031,-4,-5,5,-21,-7,-1,1,0
1533862917641031,0,2,-11,6,1,-1,0,-3
1533862917663039,-2,-2,-1,-3,-3,-1,0,1
1533862917663039,0,-4,-27,10,2,1,0,1
1533862917665029,2,1,-15,-6,-4,1,-1,1
1533862917665029,-1,-1,3,15,7,-3,0,-2
1533862917683979,0,3,30,-15,-7,0,-1,-2
1533862917683979,1,1,-3,11,4,-2,0,-1
1533862917692955,1,-1,-10,-14,-16,-1,-1,-1
1533862917692955,-3,5,4,-1,-4,-4,-3,-1
1533862917707918,2,-9,63,20,0,0,1,0
1533862917707918,-3,-7,-14,-27,-7,1,-1,0
1533862917708912,-1,-6,9,1,2,-1,-1,-3
1533862917708912,1,1,-16,10,6,1,1,-2
1533862917722879,0,3,-2,-6,3,-2,0,0
1533862917722879,-1,0,-8,-9,-18,-6,-2,-2
1533862917723873,-1,2,-4,1,-6,-3,-1,-2
1533862917723873,0,-3,-16,-4,-1,0,-2,0
1533862917744819,2,10,55,-1,5,0,1,-1
1533862917744819,-1,-1,0,-3,0,-1,1,0
1533862917746810,-4,0,-20,-6,-1,-3,-1,-2
1533862917746810,0,1,18,3,-2,-1,0,0
1533862917759776,-2,2,-22,5,0,-1,-1,-3
1533862917759776,0,-2,2,10,-1,-1,0,0
1533862917765760,0,-3,-3,-14,-1,0,-1,-1
1533862917765760,0,0,-10,-12,-6,-1,-1,0
1533862917782714,0,0,-9,6,11,0,-2,0
1533862917782714,-4,-2,-4,4,-12,-5,0,-2
1533862917783712,-3,-7,-50,-6,-3,-2,-3,-4
1533862917783712,3,12,13,5,-15,-2,-1,-1
1533862917804659,-1,-5,-6,-1,1,-2,-1,-1
1533862917804659,1,6,39,-5,0,3,2,1
1533862917806651,-1,1,-8,-3,3,-4,-1,-1
1533862917806651,-3,-2,-7,11,0,-7,-3,-2
1533862917819620,-2,1,-4,-6,-6,-1,-1,0
1533862917819620,1,-2,-19,-1,7,-2,-2,-3
1533862917826750,1,13,17,5,-3,-3,1,-3
1533862917826750,-2,-9,4,1,4,2,0,0
1533862917842558,-2,-1,-24,-9,-5,1,-2,-3
1533862917842558,-2,-9,-4,0,-1,1,-2,-1
1533862917844550,-1,2,-3,-4,-3,-2,-1,-3
1533862917844550,0,-3,9,1,-1,-3,-1,-1
1533862917864499,-5,-2,-12,-5,0,0,2,2
1533862917864499,1,2,-10,-3,-1,-1,-3,-9
1533862917866491,-7,-11,-91,-5,-2,0,-4,-4
1533862917866491,4,4,34,5,3,1,0,2
1533862917879456,-1,-2,-2,-2,-2,-1,-4,-4
1533862917879456,1,0,11,-3,-1,2,-2,4
1533862917886441,-2,-3,3,4,-2,3,1,3
1533862917886441,-4,-7,-18,-6,0,-1,-1,-7
1533862917902399,-1,3,4,1,-2,-3,1,0
1533862917902399,-4,1,-4,-12,-2,-3,-3,0
1533862917904399,3,-1,16,-4,-7,-2,-1,-1
1533862917904399,-1,-2,-9,5,6,1,-1,2
1533862917925333,0,-2,13,0,-2,-2,-2,-2
1533862917925333,-3,-3,-17,-3,-1,-2,-1,-3
1533862917926330,3,3,27,-4,-4,3,0,0
1533862917926330,-5,-5,-6,30,13,-6,-2,-2
1533862917939300,1,0,-7,-1,-26,0,-3,0
1533862917939300,-2,-6,-3,21,5,0,-1,-2
1533862917946296,-2,-1,16,-12,16,-5,-1,1
1533862917946296,1,-2,-7,-22,-16,-4,-1,-1
1533862917962249,-1,-3,-14,3,8,4,1,-2
1533862917962249,-4,-6,17,-9,7,-7,-4,-2
1533862917970213,-1,-3,15,3,-3,0,0,-2
1533862917970213,-1,-3,-14,-11,-9,-1,-2,-1
1533862917985173,2,-1,-34,-10,-9,-2,-2,-2
1533862917985173,2,5,24,7,7,3,2,1
1533862917986185,-1,-3,-2,4,-2,0,0,1
1533862917986185,0,-1,2,-5,3,0,-2,-2
1533862917999137,-1,22,-8,-5,8,-1,-2,-3
1533862917999137,-2,-9,-11,3,-7,-4,0,-1
1533862918006118,-2,-5,-1,6,4,-2,-1,-1
1533862918006118,-4,-2,2,-5,-10,1,-2,-1
1533862918022110,-2,5,18,1,0,-5,-3,-1
1533862918022110,0,3,-6,-10,-2,0,-1,-2
1533862918024069,1,0,7,20,-12,-1,1,0
1533862918024069,-2,-4,-26,-7,1,1,0,-1
1533862918045017,-2,-7,13,6,2,0,-1,-2
1533862918045017,0,-1,-8,-22,-8,-2,-2,0
1533862918047008,0,-3,11,1,1,-1,1,0
1533862918047008,-3,-1,-9,1,0,-2,0,-1
1533862918058976,0,-8,-13,-5,1,-5,-1,-1
1533862918058976,-2,0,5,16,-4,2,-1,-1
1533862918067951,-4,1,-10,1,-2,-5,-4,-2
1533862918067951,4,5,17,-12,-6,-2,0,1
1533862918082912,-2,-18,-6,3,2,2,1,1
1533862918082912,1,-2,-9,8,3,0,2,-1
1533862918083909,-3,-1,6,-23,-11,-2,-3,0
1533862918083909,-1,-1,-8,-2,4,0,0,-1
1533862918104854,-2,-10,17,5,0,-4,-3,1
1533862918104854,-1,0,-12,-4,-3,0,-2,-1
1533862918106847,1,-1,17,4,0,1,-1,-1
1533862918106847,-2,-3,-4,7,4,0,-1,-1
1533862918118815,-1,2,5,-10,0,1,1,-1
1533862918118815,-1,1,5,-3,5,-1,-1,0
1533862918127792,-3,-3,-23,1,-18,-4,-3,-2
1533862918127792,0,1,4,-3,-5,1,-3,-2
1533862918142753,0,1,6,-2,4,0,-1,0
1533862918142753,0,0,-4,-3,-6,-2,-4,0
1533862918143749,-4,-1,-2,23,39,-2,-3,-2
1533862918143749,-5,-3,-3,-14,-21,-4,-4,-2
1533862918164709,-2,2,5,-3,-5,-1,0,0
1533862918164709,2,1,24,-1,-2,0,3,1
1533862918166703,4,2,2,-3,4,3,1,-3
1533862918166703,0,-4,4,4,-3,-1,-1,-1
1533862918178861,-3,-3,-8,-10,-2,-2,-4,-1
1533862918178861,2,4,36,-4,-2,-2,-2,5
1533862918187632,-4,-3,-9,-12,-7,0,0,-4
1533862918187632,1,10,5,10,11,1,-1,-3
1533862918202596,0,-9,4,-3,-7,1,2,0
1533862918202596,-5,-7,-5,32,10,-3,-2,-2
1533862918203589,-3,-6,-30,-14,-14,-5,-2,0
1533862918203589,0,1,2,6,1,2,1,1
1533862918225534,2,4,-6,-17,-6,-3,-4,-2
1533862918225534,-3,-6,-47,-8,-1,1,2,-3
1533862918226527,1,0,15,-8,4,2,2,0
1533862918226527,-5,-5,7,11,-12,-7,-2,-1
1533862918238532,-2,0,-16,1,3,-2,-1,-1
1533862918238532,-5,-16,-56,-2,-3,-1,-2,-4
1533862918247477,1,5,54,-6,-5,-2,-1,0
1533862918247477,3,15,10,-3,7,1,2,0
1533862918262435,-1,-4,30,11,3,-1,-2,-1
1533862918262435,-2,3,-5,-9,-11,-2,-3,-1
1533862918264427,-1,-2,-25,-2,-5,-1,-1,-1
1533862918264427,-1,-4,12,-9,5,-1,-2,-1
1533862918285373,-2,6,-3,-3,-4,-5,-1,-3
1533862918285373,0,-1,6,2,2,1,0,0
1533862918286368,2,0,-68,-2,0,-2,-3,1
1533862918286368,-2,-10,-32,1,0,-2,-2,-3
1533862918298336,-3,-1,28,11,1,2,0,-1
1533862918298336,2,2,27,-11,-8,-1,-1,-3
1533862918307312,1,-3,-11,2,-1,-1,0,-1
1533862918307312,0,-7,-11,-15,-3,0,0,0
1533862918322276,-6,-4,-30,1,-1,1,-3,-2
1533862918322276,1,4,-4,-7,0,-1,-1,0
1533862918324266,-1,1,24,5,0,-2,-1,-1
1533862918324266,-1,-4,4,-7,-1,-1,-2,-2
1533862918345210,-1,0,8,-9,-3,-1,1,-1
1533862918345210,-2,0,-3,11,3,-2,-3,-4
1533862918346209,-2,-3,6,-3,6,-1,-1,-2
1533862918346209,0,-1,3,5,-1,0,0,-1
1533862918358177,2,1,-10,-10,-18,-3,0,0
1533862918358177,-3,0,-5,5,5,-1,-4,-2
1533862918368152,-1,2,4,-4,4,-1,-3,-1
1533862918368152,-2,-1,-3,10,2,0,0,-1
1533862918382112,0,1,2,-11,-1,-3,-1,-2
1533862918382112,1,0,-1,-9,-9,3,3,-2
1533862918384109,-1,0,8,-9,-1,-3,-3,-4
1533862918384109,-3,-5,-5,-5,-26,-2,-3,-2
1533862918405061,-4,-4,-8,-5,26,-2,-1,-2
1533862918405061,-1,2,6,-5,-14,-1,0,0
1533862918407051,-2,-3,0,12,-2,1,-3,-1
1533862918407051,0,2,-26,-9,4,1,-2,-2
1533862918419015,2,2,79,25,7,0,0,2
1533862918419015,-5,-7,-80,-8,-5,-4,-2,-1
1533862918427989,-1,-2,22,-5,1,2,0,0
1533862918427989,-1,-2,-4,0,7,-1,0,-2
1533862918441955,-2,-2,-24,1,-7,0,1,-1
1533862918441955,-1,-5,-58,-17,5,-3,-4,-2
1533862918443947,0,3,19,17,-9,-2,0,-1
1533862918443947,-1,-1,-2,-1,10,0,0,-1
1533862918464894,0,-2,-14,-12,-12,0,0,-1
1533862918464894,-1,-2,25,14,-6,1,1,-2
1533862918466886,-3,-4,-29,-4,-2,0,-3,-2
1533862918466886,-3,-3,14,-7,-5,-1,-3,-2
1533862918478877,-3,-1,-21,-1,9,0,-3,-3
1533862918478877,1,3,26,6,2,0,-1,-2
1533862918487829,1,-1,3,5,-6,-1,0,-1
1533862918487829,-1,-2,1,7,4,-4,0,1
1533862918502790,1,9,-8,0,-2,-4,-2,0
1533862918502790,2,-4,33,-5,2,-1,1,0
1533862918503800,-3,1,-15,16,-2,1,1,-2
1533862918503800,-3,-5,1,6,4,0,-2,0
1533862918524730,-1,-4,-2,-1,-3,0,-2,-1
1533862918524730,-1,5,9,-1,1,-2,-3,-2
1533862918526725,3,6,73,-4,-6,-1,2,0
1533862918526725,0,-3,-4,-7,0,-3,-1,-1
1533862918538698,2,0,54,9,-2,-4,0,-1
1533862918538698,-4,-4,-33,-2,-2,-3,-1,-2
1533862918547669,-1,0,19,1,2,0,-2,0
1533862918547669,-1,-1,7,2,-4,1,0,0
1533862918560638,-1,-4,-12,-2,11,-1,-2,0
1533862918560638,-2,-3,-12,-4,-17,-1,-1,-2
1533862918569611,-1,-1,-13,-6,-1,-3,-2,-1
1533862918569611,-3,-2,-17,3,-1,-2,1,-2
1533862918584648,1,0,-15,-7,-1,2,0,0
1533862918584648,2,0,24,2,12,0,2,0
1533862918584648,-7,-5,-36,14,13,-3,-4,-3
1533862918584648,-1,3,-11,-10,-19,-4,-1,-1
1533862918606592,-3,-5,-15,-4,-16,-2,0,2
1533862918606592,0,2,20,1,-1,-1,0,-1
1533862918607586,0,-8,0,-16,-3,1,0,0
1533862918607586,-2,-8,-70,-8,4,0,-5,-3
1533862918621553,1,9,0,3,0,-2,-2,-1
1533862918621553,-2,-7,2,0,-2,-3,0,0
1533862918622545,1,0,-16,-9,-4,-4,-2,-3
1533862918622545,-1,-1,9,-1,0,0,-1,-1
1533862918644490,-3,-2,-26,-3,-5,-1,-3,-2
1533862918644490,-1,3,15,0,0,-1,-4,-2
1533862918645519,-2,2,-29,-10,-2,-2,-3,-2
1533862918645519,3,2,115,6,-4,-2,2,3
1533862918666428,-1,6,-7,-1,5,-1,-2,0
1533862918666428,-4,-10,6,-7,-4,-2,-2,-2
1533862918667426,1,-1,2,-1,-6,1,1,-1
1533862918667426,-2,-1,-23,5,6,-1,-3,-1
1533862918681606,0,-1,-2,3,-6,-3,1,3
1533862918681606,-1,2,2,-21,-2,-2,-1,-2
1533862918682399,1,-5,-88,-21,-6,-1,-3,-1
1533862918682399,3,10,17,7,2,0,-3,-3
1533862918704328,-2,-10,11,8,1,1,-1,0
1533862918704328,2,0,-19,7,2,0,0,-1
1533862918705324,1,3,7,3,-6,-2,-1,-2
1533862918705324,-3,-8,-2,-3,2,0,2,1
1533862918727267,-1,-3,-3,-3,-3,-1,-2,-2
1533862918727267,-3,3,-38,-1,-1,0,-2,0
1533862918727267,1,4,114,9,-1,-3,1,0
1533862918727267,0,-2,-15,-6,-4,-2,-2,-1
1533862918742443,-2,-1,1,-6,-1,-2,-4,-2
1533862918742443,-2,-2,2,1,2,-2,1,0
1533862918742443,2,-3,-25,-1,0,-2,0,0
1533862918742443,-1,-2,-11,1,-2,-3,0,-1
1533862918764380,2,-4,5,6,0,-2,0,0
1533862918764380,0,5,8,1,3,0,-1,1
1533862918765165,-2,-3,-6,-19,-24,-2,-2,1
1533862918765165,-1,-2,7,4,6,-1,-2,-1
1533862918787362,-3,-1,-21,-15,-2,1,-2,-4
1533862918787362,2,-1,10,-1,2,2,0,0
1533862918787362,-1,-2,-1,5,-3,-3,0,-4
1533862918787362,-7,-15,-61,9,-15,-3,-4,-4
1533862918802120,-1,-3,4,-14,0,0,0,-1
1533862918802120,-4,-3,-3,-5,-15,-2,0,-1
1533862918802120,-1,-3,8,-15,3,-5,-4,-2
1533862918802120,-1,1,-17,-18,-9,0,0,-1
1533862918824062,-1,0,-1,16,6,-1,0,0
1533862918824062,-1,0,14,-2,-11,0,-1,0
1533862918825059,-4,-1,-31,0,3,0,1,0
1533862918825059,2,2,18,3,7,-3,-2,-1
1533862918847001,1,1,0,-2,-5,-1,-1,0
1533862918847001,4,13,4,-14,6,-1,-1,0
1533862918847998,-1,-6,1,28,10,0,-2,-2
1533862918847998,-2,4,-3,-23,-1,1,1,-2
1533862918862001,-5,-16,19,7,-14,-4,1,1
1533862918862001,-3,-1,-9,1,1,-1,0,-2
1533862918862961,0,3,-2,-3,2,1,-4,0
1533862918862961,4,0,8,9,22,6,3,2
1533862918883903,-2,1,-17,3,-27,-10,-2,-2
1533862918883903,-4,-8,-4,3,-6,0,-2,-1
1533862918884900,-3,0,15,17,-8,-1,1,0
1533862918884900,-2,1,2,-9,4,2,-1,-3
1533862918906841,-1,-4,-15,0,14,-2,-3,-3
1533862918906841,4,-2,19,10,7,3,0,0
1533862918907838,-3,-5,-14,-13,-1,0,0,-3
1533862918907838,-2,2,-3,15,8,-3,-2,-2
1533862918922001,1,-3,14,0,-2,2,1,-2
1533862918922001,4,3,54,12,6,1,0,-1
1533862918922799,-4,2,-14,4,-9,-5,-3,0
1533862918922799,1,2,7,-10,16,2,-1,0
1533862918944745,0,9,69,-8,-29,-4,2,2
1533862918944745,-5,-6,-17,-20,-2,-5,-3,1
1533862918944745,3,1,12,-1,2,3,1,-1
1533862918944745,-1,-1,18,4,2,1,-1,-1
1533862918966680,-2,-7,-7,9,22,3,-2,-2
1533862918966680,-2,-2,-13,5,-24,-2,-3,-2
1533862918967678,1,-3,-5,-17,6,-4,-2,0
1533862918967678,-3,-8,-20,7,-6,-4,1,-1
1533862918981652,-1,1,-59,-27,5,1,-2,-1
1533862918981652,-3,9,17,9,1,-1,-2,-2
1533862918982639,0,-7,22,-2,1,2,0,-2
1533862918982639,0,1,10,-7,-7,-3,0,-1
1533862919004625,0,-1,-20,10,11,-3,-5,-5
1533862919004625,-3,-15,-1,-2,-10,-6,3,1
1533862919005577,-1,2,-22,1,-9,0,-3,-3
1533862919005577,2,13,67,-10,-4,-6,-1,-2
1533862919026529,-1,2,6,26,8,0,2,1
1533862919026529,-1,2,-17,-9,10,3,-2,1
1533862919027518,-4,-1,0,1,4,2,-1,0
1533862919027518,-2,-3,-3,-2,-14,-3,-1,0
1533862919041497,-1,0,-17,6,4,1,-2,-2
1533862919041497,1,1,21,-7,2,-1,-1,-2
1533862919042479,-1,-1,-19,0,6,1,-1,-2
1533862919042479,0,-3,-11,-5,-7,-4,-3,-2
1533862919064422,-2,-4,4,-4,-6,-1,0,-1
1533862919064422,-3,-6,-72,9,1,-1,-1,-4
1533862919065417,-2,-3,9,-6,6,2,2,1
1533862919065417,-3,-7,-16,-4,-11,-4,-2,-2
1533862919086363,-1,-1,6,-3,7,1,-1,0
1533862919086363,-1,-1,-6,-13,4,0,0,-1
1533862919094554,0,4,5,-8,-4,0,0,-1
1533862919094554,-2,-1,17,12,13,-4,-4,-1
1533862919101321,1,-1,-22,-11,-19,-4,-4,-3
1533862919101321,0,3,7,3,11,3,-1,2
1533862919102318,0,2,16,-1,10,2,4,2
1533862919102318,-3,-2,-27,2,-25,-1,0,1
1533862919124266,0,5,26,-8,4,-4,-2,-3
1533862919124266,-2,-8,5,10,4,-1,-1,-3
1533862919125256,-3,-2,-5,-2,-1,-3,0,-1
1533862919125256,0,5,-10,1,4,0,-3,-1
1533862919147272,-2,2,-8,-23,-2,-1,-3,0
1533862919147272,0,1,25,8,-14,-3,-1,-2
1533862919147272,-2,0,14,7,6,-3,-2,-3
1533862919147272,-1,3,-30,0,-5,1,0,-2
1533862919161163,2,-11,44,7,4,4,2,2
1533862919161163,2,1,-25,-1,11,-1,0,-1
1533862919169142,-4,-4,-21,-14,-11,-3,-4,-3
1533862919169142,-1,-4,-5,6,2,-2,0,-1
1533862919184102,-1,0,-23,-17,-7,-3,-1,0
1533862919184102,-1,-4,-5,35,12,-4,-4,-4
1533862919185096,0,-4,-5,-21,-20,-3,-2,-3
1533862919185096,0,1,-10,-6,-1,2,-1,-3
1533862919207037,-1,-4,5,30,11,1,1,-1
1533862919207037,-1,-1,0,-40,-15,-2,0,-1
1533862919208035,-1,1,4,16,-4,0,-1,-1
1533862919208035,-2,-7,6,-2,-7,-3,-2,-1
1533862919221003,0,-1,-14,0,-3,-1,-1,-1
1533862919221003,-1,2,-2,3,0,-4,-2,-1
1533862919229148,1,6,-4,2,3,-2,-3,0
1533862919229148,-1,-15,6,-1,-4,-1,1,1
1533862919244952,-2,-1,-5,-6,0,-2,0,1
1533862919244952,-3,-1,0,3,0,-4,-2,-2
1533862919244952,1,5,-1,-23,-7,4,2,1
1533862919244952,-3,-5,-44,24,10,0,-5,-2
1533862919266893,-2,4,1,-5,4,-2,-2,-1
1533862919266893,0,-4,3,0,-4,0,-2,-1
1533862919267876,-1,-2,12,4,2,-4,0,-1
1533862919267876,3,2,0,-6,13,-1,0,-1
1533862919280843,-4,-5,-13,-4,-29,-1,2,-1
1533862919280843,-2,2,-3,-18,-13,-2,-1,1
1533862919288822,-4,-3,-14,14,-15,-5,-1,-2
1533862919288822,-1,3,30,-18,5,1,2,-1
1533862919304861,0,-13,-33,6,3,-1,-5,-1
1533862919304861,-1,-2,9,4,10,-2,-4,-2
1533862919304861,-2,-3,-7,-10,5,-1,-1,0
1533862919304861,0,6,-1,6,3,0,-1,-3
1533862919334783,-1,6,59,3,0,-1,-1,-2
1533862919334783,-1,12,-69,-13,-6,-3,-2,-2
1533862919335777,3,4,-21,3,8,-1,1,1
1533862919335777,-4,-3,-15,-1,-7,-3,2,0
1533862919341764,1,-5,31,14,5,3,2,1
1533862919341764,-3,-5,-17,-10,-3,0,-1,0
1533862919356733,-1,3,25,4,-1,-3,-3,-4
1533862919356733,1,-2,-17,-20,-13,-1,-1,-2
1533862919372681,-2,-5,-45,-16,-2,-2,-4,-1
1533862919372681,2,0,21,13,7,-1,-1,0
1533862919373676,-1,-7,-20,2,2,1,0,0
1533862919373676,0,-2,18,-4,-5,0,-1,-1
1533862919386641,-3,4,-5,8,3,0,-2,1
1533862919386641,0,-1,18,-4,-2,-1,-1,-1
1533862919387639,-1,-7,-8,3,-2,-3,-2,0
1533862919387639,3,17,-35,-17,-4,-3,3,-1
1533862919401614,2,1,55,3,0,-3,-5,-7
1533862919401614,-2,-6,-37,-1,-2,2,17,9
1533862919409583,-1,4,93,20,3,3,-5,11
1533862919409583,-5,31,75,4,1,0,-14,-26
1533862919424540,-4,-8,-71,-16,-9,-6,-11,-11
1533862919424540,-4,-9,40,-2,1,-1,-3,-2
1533862919425537,7,-10,-7,-7,-3,-1,11,22
1533862919425537,-6,-3,-17,7,0,-1,-4,-7
1533862919446492,3,8,6,-27,0,1,1,2
1533862919446492,0,-2,7,16,-6,2,-3,-2
1533862919447480,-5,1,-42,-36,-6,-1,2,-2
1533862919447480,0,-13,14,43,11,-1,2,6
1533862919470417,-3,-1,-28,-32,0,1,0,-3
1533862919470417,1,1,-3,-14,4,0,1,5
1533862919471415,-4,-2,-15,-2,-28,-7,-5,-13
1533862919471415,-2,-9,-10,-2,1,-2,-2,1
1533862919484389,-2,-4,13,15,6,2,4,4
1533862919484389,-1,2,4,1,5,-1,-3,-4
1533862919485394,-1,2,3,4,7,0,-6,-8
1533862919485394,2,-9,-2,-26,-8,1,2,5
1533862919506321,0,4,-11,22,1,-3,3,3
1533862919506321,-1,-3,7,2,8,-2,-5,-6
1533862919507318,-3,-3,-15,6,2,0,-1,-8
1533862919507318,-3,-7,-33,-10,9,-3,-1,4
1533862919530260,1,-1,8,-6,-12,0,0,0
1533862919530260,1,1,2,0,-4,1,-2,-4
1533862919531254,-2,-2,5,-4,1,1,-1,-1
1533862919531254,-1,-4,-14,2,-1,0,0,1
1533862919544223,-3,8,-15,-6,0,-6,-4,-4
1533862919544223,-5,-13,-3,9,-7,-3,-1,-3
1533862919545217,0,-2,2,13,4,1,1,0
1533862919545217,-1,-3,-66,-29,-7,2,5,4
1533862919567168,1,-2,13,4,6,-4,-3,-3
1533862919567168,-3,-1,7,4,3,-4,-2,0
1533862919567168,-1,-8,-34,-12,-12,-5,-3,-3
1533862919567168,-2,-6,9,11,4,2,-2,-1
1533862919590110,-1,-4,-30,8,-3,3,0,0
1533862919590110,2,5,-10,-12,-6,1,-3,-1
1533862919591095,2,0,4,3,3,2,-1,-4
1533862919591095,0,0,24,-9,-2,-4,-2,0
1533862919604059,-4,-3,10,8,-13,-3,-3,0
1533862919604059,1,3,10,-8,6,2,-2,-1
1533862919605057,-3,2,1,4,8,-6,-4,-4
1533862919605057,0,-1,18,2,-2,0,2,1
1533862919627035,0,0,0,8,11,2,1,-2
1533862919627035,0,-1,-6,-11,-13,-4,0,0
1533862919627997,-3,-3,-13,-10,9,1,-3,0
1533862919627997,0,-1,19,5,-13,-7,-2,1
1533862919650934,0,-5,-3,1,2,1,1,1
1533862919650934,-4,-4,-62,-3,1,-2,-3,-4
1533862919650934,0,-1,18,4,-6,-2,2,-1
1533862919650934,-1,-3,7,-1,-10,-2,-1,-2
1533862919663939,1,0,6,-1,9,-1,0,1
1533862919663939,-1,-1,-3,-8,-15,-4,-1,0
1533862919664898,0,0,-7,4,6,-2,-2,0
1533862919664898,2,5,0,-6,8,0,-2,-3
1533862919686879,-3,-7,-20,3,-12,-3,-1,-2
1533862919686879,1,-2,10,1,2,1,-2,-1
1533862919687876,0,-5,28,17,12,6,1,0
1533862919687876,-3,2,4,-6,-16,-4,-2,-1
1533862919709806,0,2,-7,-10,0,2,1,1
1533862919709806,0,-2,4,-4,-3,-3,0,-1
1533862919710775,0,1,7,-2,-1,0,-2,-2
1533862919710775,0,-2,-8,6,5,0,-2,0
1533862919724738,0,0,5,-3,-8,-2,1,0
1533862919724738,-2,0,9,9,9,1,-1,1
1533862919724738,-1,2,-14,-10,-4,-6,-3,-1
1533862919724738,-1,-4,0,-4,-5,0,-1,-1
1533862919746858,-2,-2,4,9,4,-3,-3,-3
1533862919746858,0,-2,12,0,13,8,5,0
1533862919747676,-4,1,-12,-1,-17,-4,-5,-5
1533862919747676,-1,0,7,10,-6,1,-1,1
1533862919769620,-2,-4,5,-4,-2,-3,-3,-2
1533862919769620,6,4,9,0,33,9,1,2
1533862919770615,-2,-6,-12,-10,-28,-10,-2,-2
1533862919770615,-3,-4,4,16,-6,-4,-1,-1
1533862919784775,-5,1,-9,-7,-3,-1,-3,-1
1533862919784775,-1,-1,5,-3,-6,-3,-3,-2
1533862919784775,1,10,-4,-1,9,1,0,-1
1533862919784775,-2,-7,-11,-4,-1,0,-2,-2
1533862919806518,-1,4,4,3,3,-1,-1,-1
1533862919806518,-2,-3,2,-1,-11,-4,-1,-3
1533862919807522,1,0,2,-3,2,0,0,1
1533862919807522,-2,-2,2,3,4,-5,-2,-2
1533862919830455,0,0,-1,5,5,-2,2,2
1533862919830455,-1,1,-1,3,-26,-11,-3,-3
1533862919830455,-1,-2,-4,-5,7,0,0,0
1533862919830455,-1,0,-8,-24,15,6,-1,0
1533862919844420,-5,-2,6,13,-18,0,-3,-3
1533862919844420,-5,0,1,-4,2,-2,-3,-2
1533862919845414,-2,-8,-49,15,-6,-1,1,1
1533862919845414,3,6,44,-15,-1,3,3,0
1533862919867360,-1,-1,-1,19,21,-2,0,-1
1533862919867360,-3,6,-3,-27,-21,-6,-1,-1
1533862919867360,-5,-13,0,10,4,0,-2,-4
1533862919867360,0,1,-9,-2,-3,0,0,1
1533862919890295,1,0,-2,-16,3,0,0,-2
1533862919890295,-3,-3,-6,10,2,-2,-1,-1
1533862919891301,1,12,29,2,6,2,0,-4
1533862919891301,-1,-6,7,-3,-6,-4,-1,-1
1533862919904259,1,-15,28,10,-6,-2,1,1
1533862919904259,-1,-5,-6,0,-3,1,0,-2
1533862919905263,1,-1,3,-4,9,-1,-1,1
1533862919905263,-3,-2,-22,16,9,-4,-2,1
1533862919927200,2,7,-13,-24,-13,1,-2,-1
1533862919927200,1,-2,5,10,7,-3,-1,1
1533862919927200,-2,-5,-1,-3,-10,-1,0,0
1533862919927200,-1,2,0,-10,0,-4,-2,-1
1533862919950135,-3,0,-12,1,-14,-3,-1,1
1533862919950135,-3,1,12,0,-11,-2,0,1
1533862919951136,0,1,3,-9,14,5,1,2
1533862919951136,-2,-6,-4,31,5,-2,-3,-4
1533862919964097,0,0,-5,-22,0,-3,-3,-1
1533862919964097,0,-1,-8,14,13,0,-2,-3
1533862919965094,-3,0,5,-2,-9,-1,0,-1
1533862919965094,0,-1,5,-2,3,0,-1,2
1533862919987038,-1,1,-4,-2,-12,-3,0,-1
1533862919987038,0,0,5,-5,-5,-4,-2,0
1533862919988035,0,-3,-3,0,12,-1,-2,0
1533862919988035,0,-1,-6,-4,-5,0,1,-1
1533862920009978,-2,-3,-17,-6,3,-1,0,-2
1533862920009978,0,3,84,-3,1,-1,-1,2
1533862920010972,-3,0,-16,10,1,-3,-2,-1
1533862920010972,-3,-2,15,0,-12,0,-1,-1
1533862920024940,-1,-2,23,5,2,-1,-3,-2
1533862920024940,3,-1,11,2,12,2,1,1
1533862920024940,-5,-6,0,-8,-23,-1,0,-1
1533862920024940,3,5,-4,-17,-10,2,1,-1
1533862920047013,-8,-4,-1,15,21,-3,-5,-5
1533862920047013,-3,-2,-20,13,13,2,-2,-1
1533862920047907,3,8,9,-7,-11,-2,-2,0
1533862920047907,-6,-6,-30,-4,-3,-11,-5,-4
1533862920069816,1,1,-12,-3,-16,2,2,2
1533862920069816,-3,-7,-32,-15,-3,-1,-2,-7
1533862920073806,-1,1,17,6,-2,3,1,1
1533862920073806,2,-4,-10,-12,-1,4,1,-1
1533862920084778,1,-1,1,-2,0,-3,-1,1
1533862920084778,-4,-1,-15,10,-1,-4,-2,-2
1533862920084778,1,0,10,0,6,-2,-3,-2
1533862920084778,0,7,6,-20,-15,-1,0,-1
1533862920106719,-3,-4,-3,19,14,0,-3,-3
1533862920106719,1,-2,-12,-8,-6,1,0,1
1533862920107715,-1,-6,-12,-13,-5,-3,-1,-1
1533862920107715,-1,0,4,16,4,-1,0,0
1533862920129657,3,2,-1,-23,2,-2,1,0
1533862920129657,-2,-1,-35,10,-9,-4,-2,-1
1533862920130651,-1,1,1,-4,-8,-5,-2,-1
1533862920130651,-5,-17,-48,0,3,-2,-3,-2
1533862920143618,-2,2,11,-14,-5,3,2,1
1533862920143618,-2,-3,-3,-7,-15,-3,-1,-1
1533862920151597,0,-3,-3,11,8,0,0,0
1533862920151597,-3,-2,-7,-5,16,1,-3,-4
1533862920166556,4,2,-14,3,-14,-4,-3,-1
1533862920166556,-4,4,15,7,-19,-7,-2,0
1533862920167556,-3,-4,-14,-4,2,5,2,-1
1533862920167556,0,-1,16,7,-6,0,0,0
1533862920189497,0,3,13,9,14,2,1,0
1533862920189497,1,1,-1,12,9,0,-3,-1
1533862920190491,-2,-1,1,-40,-23,-6,-3,-3
1533862920190491,1,2,14,16,-1,3,2,-1
1533862920204722,-2,-5,-12,-11,-1,-3,0,0
1533862920204722,0,-2,-8,-9,0,0,0,0
1533862920211715,0,-1,2,4,8,0,-4,0
1533862920211715,1,2,2,-14,-13,-2,-2,-1
1533862920226821,-1,0,-11,7,2,0,1,-2
1533862920226821,-5,-4,1,0,-3,-4,-3,-3
1533862920227658,1,1,-18,12,28,4,-1,-1
1533862920227658,-1,6,22,-20,-23,-3,-4,-1
1533862920257581,-2,-2,4,0,-3,0,-1,-1
1533862920257581,-1,-4,-1,-9,4,2,0,-1
1533862920258576,-3,-2,-3,0,-6,-6,-2,-3
1533862920258576,3,3,-2,17,11,3,0,-2
1533862920263567,-1,-2,-1,-14,-14,-4,0,-1
1533862920263567,-3,-4,-4,7,-8,-1,0,-2
1533862920271544,0,1,3,-3,-8,0,0,0
1533862920271544,-1,5,-6,4,12,-2,0,1
1533862920295482,2,9,8,-26,-13,0,-1,0
1533862920295482,-2,-15,-89,27,30,-1,-2,-4
1533862920295482,-1,-6,20,2,-16,-4,-4,-3
1533862920295482,-2,1,55,-34,-8,-1,0,2
1533862920310441,-2,3,-2,17,4,-2,-1,0
1533862920310441,1,-2,-27,-33,-20,-2,1,-1
1533862920310441,-2,0,-1,13,8,-1,1,-1
1533862920310441,-2,-2,-36,12,3,-1,-2,-2
1533862920323402,0,-5,-5,-7,-2,-1,-1,-1
1533862920323402,3,3,36,-3,-3,-1,0,1
1533862920331385,0,-5,-14,4,4,2,0,-1
1533862920331385,-2,-3,0,0,0,-3,-2,-2
1533862920347432,-1,-4,0,3,-1,-4,0,-2
1533862920347432,-2,3,13,-8,-3,-1,-1,-2
1533862920347432,0,1,4,-11,-7,-1,2,-1
1533862920347432,0,-2,-9,9,19,-1,-1,0
1533862920370280,-4,-3,0,6,3,-2,-3,-2
1533862920370280,-2,0,15,1,2,0,0,1
1533862920371275,0,-1,-3,0,-16,0,-2,-2
1533862920371275,0,-3,2,-13,-1,-1,-2,0
1533862920383256,-2,-4,-6,1,6,-2,-2,-1
1533862920383256,0,2,15,-8,-3,-4,-2,-2
1533862920392221,0,1,4,1,6,0,-1,1
1533862920392221,-1,-2,-6,10,1,0,2,0
1533862920407178,0,-1,0,-2,-4,-1,-2,-2
1533862920407178,-1,1,0,-7,-8,-1,-2,-2
1533862920407178,1,0,3,-6,4,-1,0,-1
1533862920407178,-2,-4,2,18,-2,-3,0,-3
1533862920430116,-3,-1,0,2,-2,0,-1,-2
1533862920430116,-4,-1,10,10,-9,-3,-3,-2
1533862920431151,-2,-2,-8,-23,-1,1,-1,-1
1533862920431151,-1,-2,3,1,-1,-5,-1,-1
1533862920444273,1,-1,0,8,3,3,4,1
1533862920444273,1,2,10,-2,0,3,0,0
1533862920452085,-2,-2,-5,5,4,-6,-2,-1
1533862920452085,0,-2,-9,-9,3,-1,-2,0
1533862920467018,0,0,9,26,-9,-2,1,0
1533862920467018,-1,-3,0,-10,2,-1,1,1
1533862920468020,-3,-2,-3,-13,-6,-1,0,0
1533862920468020,0,0,1,-2,-9,1,0,-3
1533862920490157,1,0,-4,-6,15,2,-2,-2
1533862920490157,0,1,9,11,0,-2,-3,-2
1533862920490955,-2,-4,-26,-8,-4,-4,-2,-3
1533862920490955,-2,0,10,-1,-8,-3,1,1
1533862920513060,-1,-2,-31,10,3,-2,-6,-4
1533862920513060,7,12,50,33,8,6,4,6
1533862920513893,1,-5,-23,-38,-10,-9,-10,-7
1533862920513893,-13,-13,-10,-13,-3,-5,-4,-5
1533862920527067,-1,-5,-19,-25,-9,0,4,3
1533862920527067,-4,-3,-2,13,5,-3,-2,-1
1533862920527855,2,2,11,1,-21,-2,-2,0
1533862920527855,4,4,1,34,25,2,-2,-1
1533862920549797,-1,-2,5,15,7,-4,-1,-5
1533862920549797,-5,-6,-18,-55,-29,-5,-3,-3
1533862920550794,0,2,14,30,7,1,3,3
1533862920550794,1,1,5,21,15,4,-1,0
1533862920572736,0,7,31,42,2,0,2,4
1533862920572736,-3,-10,-54,-83,-2,-3,-2,-4
1533862920573741,-6,-2,4,16,-5,-6,1,0
1533862920573741,-2,-4,-16,-16,14,-6,-5,-3
1533862920586698,3,4,-8,27,-17,-2,1,1
1533862920586698,-3,-10,-45,-38,-10,1,2,-2
1533862920587698,-4,-1,19,11,1,-1,2,-1
1533862920587698,2,0,3,6,3,5,3,3
1533862920609640,-3,-2,-2,-17,0,-2,-4,-2
1533862920609640,0,1,4,15,-7,-3,-7,-5
1533862920610634,1,2,0,8,17,4,3,1
1533862920610634,-3,3,-3,0,-23,-6,0,-1
1533862920632577,-4,-6,-2,-34,-11,-5,-6,-4
1533862920632577,1,0,10,14,8,4,4,2
1533862920633573,1,1,7,17,13,4,-2,-2
1533862920633573,-2,-2,2,-10,-18,-2,2,0
1533862920646732,-3,-4,-1,-27,-1,-3,-5,-1
1533862920646732,-1,3,12,25,5,-2,1,-1
1533862920647536,-2,-2,-7,2,3,1,-1,0
1533862920647536,0,-2,-8,-10,-12,1,-3,-2
1533862920670473,-3,-2,1,-8,3,0,0,-1
1533862920670473,0,0,5,16,5,-3,-2,1
1533862920670473,0,-2,-1,-9,-6,-2,0,-1
1533862920670473,0,-1,-2,-10,-5,-1,-1,0
1533862920692419,1,2,9,-3,-1,-1,-1,0
1533862920692419,-2,-1,6,10,0,-1,-2,-1
1533862920693412,-2,-2,-4,-7,-1,0,1,-1
1533862920693412,-1,0,0,4,1,-1,0,-1
1533862920706378,-1,-2,-4,-4,-13,-4,-1,-3
1533862920706378,-1,0,2,3,0,2,3,0
1533862920707375,-2,0,-1,0,-1,1,-1,0
1533862920707375,1,-1,-1,-2,2,1,2,0
1533862920730317,-3,-2,-1,-5,5,3,0,-3
1533862920730317,-1,-3,3,2,-9,-6,-4,0
1533862920730317,-1,-1,2,1,-1,-1,-1,-2
1533862920730317,-1,-2,-1,-5,-6,-4,-2,-2
1533862920760326,1,-1,-3,-9,0,-2,-1,-3
1533862920760326,-1,1,2,6,3,-1,-1,-2
1533862920761231,0,-1,-1,0,4,2,3,1
1533862920761231,-1,-1,-2,-1,-5,-3,-4,-3
1533862920767215,-2,-1,0,-1,0,0,0,1
1533862920767215,1,0,-1,4,2,-1,-3,-2
1533862920767215,-3,-3,-3,-1,-3,-3,-4,-3
1533862920767215,-2,-1,-1,-4,-2,0,0,-2
1533862920790163,-1,0,0,-2,3,1,1,0
1533862920790163,0,0,1,-1,2,1,0,2
1533862920791151,0,-1,-1,-3,-4,0,-1,0
1533862920791151,-2,-1,-1,0,-3,-1,-1,-1
1533862920820074,0,-2,0,2,4,0,0,-2
1533862920820074,-2,1,0,0,-9,-3,-3,-2
1533862920821075,-1,-1,-2,-2,-2,-2,-3,-1
1533862920821075,-2,-2,-1,-2,-6,-2,0,-1
1533862920827055,-2,-2,0,-4,-1,-2,-4,0
1533862920827055,0,-1,-1,2,5,-1,0,-3
1533862920828053,0,0,1,-2,1,-3,-4,-1
1533862920828053,-1,0,-1,-2,0,2,-2,-1
1533862920850002,-1,0,-1,-5,1,4,4,1
1533862920850002,0,1,5,-2,0,1,-1,-2
1533862920850993,-3,-3,-8,1,-6,-5,-3,-2
1533862920850993,-3,0,-2,0,-2,-3,0,0
1533862920872932,-2,-4,-79,-5,-3,-2,-2,1
1533862920872932,1,1,57,6,0,1,-2,-1
1533862920873929,2,2,37,3,5,3,1,0
1533862920873929,-1,-2,-43,-10,-7,-4,-3,-1
1533862920887081,0,4,72,7,-5,-3,0,0
1533862920887081,-3,-4,-37,-3,-2,-4,-5,-3
1533862920894057,1,-2,-12,1,3,-3,-1,-2
1533862920894057,0,2,14,2,-4,-1,4,1
1533862920909833,-2,-4,-16,-3,-2,-3,-6,-5
1533862920909833,1,-4,-17,-14,-6,-1,0,0
1533862920910831,-3,4,14,3,-3,3,3,-1
1533862920910831,-3,-6,-12,1,-6,-5,0,-2
1533862920932772,0,1,6,0,-2,0,3,0
1533862920932772,2,3,14,5,8,1,-3,3
1533862920933782,2,-1,-24,-8,3,1,0,-1
1533862920933782,-1,-3,1,1,-3,-1,2,-1
1533862920946937,-3,-4,3,-8,14,5,5,-1
1533862920946937,-7,-2,-11,-7,-34,-13,0,-3
1533862920947734,0,-2,-8,-8,-18,-6,-4,0
1533862920947734,3,2,15,6,2,-3,-2,0
1533862920969795,1,0,9,-3,-4,-3,-7,-4
1533862920969795,-1,-2,-9,1,18,5,1,-3
1533862920970673,-2,-3,-3,-6,-4,-1,0,-2
1533862920970673,-1,-1,9,1,0,2,-4,-1
1533862920999594,-1,-2,-8,-3,-2,-1,-1,0
1533862920999594,-2,-4,-7,-3,-2,-3,-4,-4
1533862921000592,0,1,0,2,6,0,5,1
1533862921000592,-1,-4,-5,-3,3,-2,-4,-1
1533862921006594,0,1,2,2,-5,-5,-5,0
1533862921006594,-3,-2,0,8,4,3,1,-2
1533862921007572,-1,0,2,-2,10,-1,1,3
1533862921007572,-3,-4,-9,-4,-3,4,4,0
1533862921029514,-2,-1,-3,-2,-7,-2,2,1
1533862921029514,-1,0,1,-2,-3,-7,-7,0
1533862921030512,-3,-2,-9,-2,0,-5,-6,-5
1533862921030512,1,2,6,0,5,2,0,0
1533862921052486,-1,-3,-1,1,0,3,-3,-4
1533862921052486,-1,-1,2,4,1,0,3,-1
1533862921053449,-1,-2,-2,5,1,0,-4,1
1533862921053449,-1,-1,5,0,-2,-1,-1,-1
1533862921066418,-1,-1,-1,-2,-3,0,1,-1
1533862921066418,1,2,4,2,4,1,-1,1
1533862921074397,-2,-6,-13,-6,-6,-4,-4,-4
1533862921074397,-2,-3,-2,-2,-3,-2,0,-2
1533862921090351,-1,0,-1,-1,1,1,-2,0
1533862921090351,0,-1,-1,-2,-2,-2,2,1
1533862921090351,0,0,3,-1,4,-3,-2,-1
1533862921090351,-2,-1,0,-5,-15,-1,0,-4
1533862921112292,5,1,4,6,7,0,3,1
1533862921112292,5,-3,-11,-6,-7,-1,-3,3
1533862921113289,1,-2,-1,5,1,3,0,1
1533862921113289,-1,-3,-4,-5,7,-2,-2,-1
1533862921135248,-7,-1,6,-4,-13,-6,-4,-3
1533862921135248,-10,-5,-5,-5,-6,-20,-24,-18
1533862921136240,0,-3,-3,3,14,5,18,10
1533862921136240,3,3,7,3,-7,22,6,7
1533862921150192,1,1,4,7,-2,3,14,4
1533862921150192,1,2,1,1,0,5,5,5
1533862921151189,-1,2,2,1,-5,-8,-12,-10
1533862921151189,1,4,5,1,-5,-11,-6,-6
1533862921172132,-1,-2,-9,-7,12,1,-5,-2
1533862921172132,-1,0,2,-2,2,-1,0,-1
1533862921173148,-1,0,3,-6,-12,1,-4,-2
1533862921173148,-2,0,2,-2,14,6,0,3
1533862921186095,0,1,4,-6,-10,1,0,1
1533862921186095,-4,-2,-7,2,-4,-1,5,-3
1533862921194077,-1,-2,-5,-2,7,-2,7,5
1533862921194077,-3,0,-2,-3,3,2,-9,0
1533862921210034,-3,-1,2,-1,4,-1,-2,-1
1533862921210034,3,3,16,-7,6,7,5,3
1533862921211028,-1,-1,-7,0,-9,-1,-2,-4
1533862921211028,-2,-1,-5,5,3,-11,-3,-6
1533862921232969,0,-2,-7,-1,-7,-5,-6,-1
1533862921232969,2,2,0,-1,5,6,7,6
1533862921232969,0,1,-2,1,1,-3,-5,-3
1533862921232969,-2,-4,-1,-2,-10,-6,-2,0
1533862921245938,1,1,2,-8,2,3,-2,0
1533862921245938,-2,-5,-13,5,4,3,1,-3
1533862921255041,-1,-1,-4,-1,13,-3,-3,-5
1533862921255041,1,-1,10,-6,-15,-4,-1,3
1533862921268903,1,-1,8,1,6,7,4,2
1533862921268903,0,-1,8,1,-3,4,1,0
1533862921277876,-3,-3,-7,-1,0,-1,-2,-3
1533862921277876,-2,-3,-2,-1,10,-1,3,-1
1533862921292823,-2,-1,-14,0,-9,-6,-2,-2
1533862921292823,-1,-2,-7,-1,5,-3,-2,-1
1533862921293807,0,0,-7,-1,-5,3,2,0
1533862921293807,2,1,57,2,3,-2,0,-2
1533862921314751,-1,-1,-1,1,1,-7,-4,-2
1533862921314751,0,-1,-10,-1,-1,1,-1,-2
1533862921316746,0,-1,5,0,-11,1,-3,0
1533862921316746,-1,-1,-19,-1,0,-1,-2,-1
1533862921328826,-2,-4,-1,-1,-2,-6,-5,-6
1533862921328826,-2,-3,-12,-8,-7,-5,6,-1
1533862921337689,0,0,7,2,6,4,-7,6
1533862921337689,0,0,2,5,6,4,4,3
1533862921352650,-3,-4,-4,3,0,-1,-2,-3
1533862921352650,-4,-2,-12,-3,-12,-2,3,-3
1533862921353677,0,0,4,2,8,1,-2,1
1533862921353677,-3,-2,-15,-1,-1,-5,-8,-1
1533862921366613,-1,-1,2,-2,2,0,-1,2
1533862921366613,-1,2,9,-4,-16,0,-1,-1
1533862921375588,-5,-4,-16,-2,-6,-6,0,-3
1533862921375588,-2,-1,-10,0,-4,-3,1,-3
1533862921389554,-2,-3,-6,-2,3,-4,-1,-5
1533862921389554,-1,-1,-4,-1,4,-4,-6,-1
1533862921396535,-1,-1,15,-2,-6,2,3,-3
1533862921396535,1,2,45,-3,-3,-3,-1,-3
1533862921412492,-3,-3,8,-5,-8,-2,-1,0
1533862921412492,-1,2,15,1,6,3,-1,1
1533862921414494,-1,1,-11,-2,-12,-7,-1,-5
1533862921414494,0,-3,3,-1,-2,0,-1,-3
1533862921435429,1,1,19,-5,4,5,1,3
1533862921435429,-1,1,21,7,10,5,-1,3
1533862921436437,-4,-4,-8,-5,-11,-3,-3,-2
1533862921436437,-3,-1,-83,-6,-3,-3,-1,-3
1533862921449392,-2,0,-12,3,-3,-2,-1,-1
1533862921449392,-2,-1,31,-1,-5,0,5,2
1533862921456569,2,-1,56,-4,5,-3,-5,0
1533862921456569,1,-2,66,-4,2,1,1,1
1533862921480308,0,0,-23,1,-4,-3,0,-1
1533862921480308,2,-4,-39,-1,1,-6,0,-3
1533862921481304,-2,0,-66,-1,0,3,-1,0
1533862921481304,-2,0,-44,0,-2,-1,-1,-1
1533862921495268,-3,1,-26,-2,4,-4,-2,-2
1533862921495268,-2,-1,-21,-3,-3,-4,-2,0
1533862921496274,-2,1,4,2,1,2,4,-2
1533862921496274,-2,-3,-26,-2,-13,0,0,-1
1533862921509230,1,-3,-8,-3,-4,1,0,0
1533862921509230,-2,-2,-4,0,10,1,-1,-2
1533862921516216,1,-1,-12,2,0,0,-1,0
1533862921516216,-2,-2,-20,-4,1,-4,-2,-3
1533862921532169,-2,-3,-3,1,-5,-1,-3,0
1533862921532169,-1,-1,-4,0,-1,-2,-1,1
1533862921534164,-2,-1,-17,-3,4,-3,-2,0
1533862921534164,-1,0,-1,2,1,-3,-1,-3
1533862921555108,-2,-1,2,-4,-1,-2,5,-1
1533862921555108,1,0,-5,0,-1,-7,-10,-2
1533862921557103,0,-3,-10,0,1,2,4,3
1533862921557103,-1,-1,-5,-3,-1,-1,1,2
1533862921570067,-1,-1,-7,0,-4,1,-1,-1
1533862921570067,-1,-1,-8,-2,-4,6,2,-2
1533862921576199,-2,0,-8,-1,-3,-2,0,-2
1533862921576199,-2,-4,-18,0,2,-2,-2,-2
1533862921593006,-1,-2,12,1,-7,0,0,-2
1533862921593006,1,-2,-10,0,1,3,2,3
1533862921595002,-3,-3,-11,-4,-9,-9,-4,-3
1533862921595002,-3,0,0,4,10,2,2,1
1533862921614949,-1,1,8,-2,5,-3,-3,-2
1533862921614949,-3,-3,1,-5,-8,1,-1,-3
1533862921616949,3,1,3,1,-10,-4,-1,-2
1533862921616949,2,0,2,0,5,2,-7,1
1533862921629923,0,-3,-10,1,5,-2,0,0
1533862921629923,-3,0,-8,-3,-16,-7,-1,-1
1533862921635892,-3,2,-13,-1,6,1,-1,-2
1533862921635892,-2,-1,5,2,0,-3,-2,-2
1533862921652883,-4,-3,-9,4,9,-3,-3,0
1533862921652883,-1,1,28,7,6,2,-1,2
1533862921653875,-2,-5,5,-1,-5,1,1,-2
1533862921653875,0,2,8,-2,-3,-3,0,-2
1533862921682766,-3,-6,-22,-8,-2,-1,-1,-1
1533862921682766,1,3,19,2,6,-4,-2,-1
1533862921683771,-1,-2,-11,-3,-1,1,0,-4
1533862921683771,-3,0,23,0,0,0,1,-3
1533862921689938,-2,-1,-6,-2,3,1,0,-1
1533862921689938,-3,-2,-15,1,2,2,-1,-2
1533862921695754,0,1,12,-3,6,0,-1,0
1533862921695754,-3,-6,-31,-4,-7,-3,-1,0
1533862921712690,-2,-2,17,-5,-13,-10,-4,-4
1533862921712690,-2,-1,-3,-3,3,-1,1,1
1533862921713683,-1,1,9,-3,-5,-1,0,2
1533862921713683,0,-2,-6,-2,0,-2,-1,0
1533862921734628,-1,2,8,0,2,2,-1,-2
1533862921734628,0,-2,3,-2,-7,-5,-3,-2
1533862921736622,-2,-2,-7,-2,2,-2,-2,-2
1533862921736622,0,-1,-7,-1,-2,-2,0,-1
1533862921748592,0,1,15,-2,1,-1,-2,0
1533862921748592,-1,-1,-14,-6,-3,-1,0,-1
1533862921757567,0,-5,-1,2,8,1,-1,0
1533862921757567,1,6,-9,-1,-6,-6,-3,-1
1533862921772554,-1,-14,10,1,-6,1,0,1
1533862921772554,-1,-2,-6,-3,1,-2,1,-1
1533862921774520,-2,-2,-9,-1,-2,-2,-3,0
1533862921774520,-1,1,-21,-6,-2,-1,0,-2
1533862921795464,3,-2,-1,3,7,1,2,2
1533862921795464,-1,1,-4,-2,-8,3,-2,-1
1533862921796462,-2,1,-10,0,-8,-2,-2,-3
1533862921796462,0,-2,5,2,1,1,-1,0
1533862921808430,0,-5,-19,-2,-1,1,1,1
1533862921808430,-1,0,2,-1,2,-2,-2,-2
1533862921817411,2,1,31,11,-3,0,0,2
1533862921817411,-5,-5,-24,-7,2,0,-2,-2
1533862921832390,1,5,-3,-1,9,-1,0,-1
1533862921832390,-1,-4,15,3,-18,-5,-2,-2
1533862921834361,-4,-2,-26,0,2,0,-2,-2
1533862921834361,-3,-7,-6,-7,-4,-3,-1,-2
1533862921855305,-5,3,11,1,2,1,-1,1
1533862921855305,-6,-4,-32,-4,4,-2,-2,-3
1533862921856301,-2,0,8,-6,-3,-2,-1,2
1533862921856301,-2,-3,-62,0,-2,2,0,-2
1533862921868271,0,0,-118,0,-7,-3,-2,-3
1533862921868271,-1,0,-127,-2,2,-6,-3,-1
1533862921877246,-1,-1,-104,-3,4,6,3,3
1533862921877246,-3,-5,-1,0,3,0,0,0
1533862921892206,-2,1,40,-4,-4,-3,-2,-2
1533862921892206,1,-1,87,-1,1,1,-2,-2
1533862921899187,-3,-2,87,-3,-4,-2,-1,-6
1533862921899187,-1,-2,78,3,-2,-1,0,1
1533862921915155,-2,2,43,-4,-9,-5,-1,-5
1533862921915155,-4,-1,-13,-7,2,-2,-2,-3
1533862921916142,1,-3,42,0,0,0,0,-1
1533862921916142,-1,0,16,-1,-2,1,-1,-1
1533862921929112,-1,-3,-5,-1,-5,-2,-1,-2
1533862921929112,1,3,5,-1,2,1,0,1
1533862921938084,0,-1,-1,-1,-3,-2,-2,-2
1533862921938084,-2,-1,-11,2,-3,-1,-2,-1
1533862921953044,0,3,-6,1,0,-2,-2,-1
1533862921953044,-3,-2,-17,-6,2,0,2,-2
1533862921954042,-2,0,-31,-4,-2,-4,-2,-3
1533862921954042,0,-2,-5,5,0,0,-2,0
1533862921974985,-2,0,-15,-4,-4,-2,-3,0
1533862921974985,-2,-2,17,4,2,2,0,1
1533862921976979,-4,-8,-99,-9,-2,-2,-4,-4
1533862921976979,1,4,72,6,-2,0,1,0
1533862921988951,-1,-1,17,-1,2,-1,-1,0
1533862921988951,-4,-5,26,2,-5,-5,-2,-2
1533862921997944,-1,-1,19,-4,-1,-1,1,1
1533862921997944,2,1,36,-1,0,-1,-2,-3
1533862922012923,0,2,-46,-3,-1,1,2,-2
1533862922012923,5,-13,62,4,-1,2,1,2
1533862922013887,1,2,53,1,-6,0,-3,-2
1533862922013887,2,-2,1,-6,-7,-1,1,-3
1533862922034825,-1,0,31,-3,-4,-1,-2,-2
1533862922034825,0,1,-44,-5,-1,-3,-4,-4
1533862922036820,2,2,66,6,0,1,1,0
1533862922036820,-1,-1,-6,-1,3,0,0,-2
1533862922048788,1,1,13,0,4,-1,-4,-2
1533862922048788,1,3,-1,-4,-8,-2,0,-1
1533862922057763,0,0,20,-2,-7,-2,0,-1
1533862922057763,-1,0,-13,-2,6,-2,-3,-2
1533862922072726,-1,0,31,8,0,4,0,0
1533862922072726,1,-1,11,1,-2,-1,-2,0
1533862922073721,-2,-1,-32,-4,-2,-2,1,0
1533862922073721,-3,-1,2,-1,-2,0,-1,2
1533862922094684,-3,-3,3,-7,-3,-1,-1,-1
1533862922094684,-3,-3,14,3,-2,-4,-3,-4
1533862922096660,0,0,1,0,2,-8,-5,-6
1533862922096660,1,2,-9,-7,-4,3,4,5
1533862922108665,1,-1,15,1,1,4,0,4
1533862922108665,-2,1,-3,0,9,0,0,2
1533862922117604,0,-3,0,-6,-11,-3,-2,-1
1533862922117604,-3,-2,-5,-5,-9,-8,-6,-4
1533862922132564,1,-2,10,4,-2,-2,-2,-3
1533862922132564,-3,-1,-2,-4,1,-1,-4,-4
1533862922134558,0,-1,1,0,5,1,-1,-3
1533862922134558,0,11,4,5,3,2,3,1
1533862922154504,-3,-9,-9,3,-5,2,1,1
1533862922154504,-2,-3,-5,-2,-6,-4,-2,0
1533862922162484,-1,-1,1,-1,7,0,-1,-1
1533862922162484,-3,-1,-46,-3,-8,-2,-5,-1
1533862922168475,7,17,101,8,3,1,1,4
1533862922168475,-4,-4,-38,-7,-3,-1,-1,-3
1533862922177474,-1,1,5,10,1,-2,-1,2
1533862922177474,-2,-6,-6,-12,2,-4,-2,-3
1533862922192586,-4,-4,-44,-7,-3,-5,-3,-4
1533862922192586,-1,-1,2,3,0,1,-1,-4
1533862922194416,0,3,18,2,-2,2,1,0
1533862922194416,-1,-4,-2,4,6,3,-1,-2
1533862922215343,-3,-5,-24,-10,-17,-10,-6,-7
1533862922215343,1,1,7,-2,-5,-5,-3,-2
1533862922216339,2,-3,-20,-11,5,12,8,11
1533862922216339,-2,-2,6,-1,-3,3,0,1
1533862922228320,-3,-4,-17,8,-1,-2,-1,-2
1533862922228320,-1,2,6,-3,0,-1,-3,-2
1533862922237511,-1,-3,-1,3,-2,-5,-12,-9
1533862922237511,-1,-2,37,0,-3,-2,1,1
1533862922252245,1,0,-10,-8,1,2,1,3
1533862922252245,-3,6,15,2,-1,-1,0,-2
1533862922259295,-3,-6,-11,-15,0,-3,0,-1
1533862922259295,-3,-1,0,10,0,-2,-2,-3
1533862922275183,-3,-1,-19,-9,-2,-2,-2,-5
1533862922275183,4,0,-5,17,5,4,4,4
1533862922276206,-3,-1,1,1,0,-2,-1,0
1533862922276206,-2,-4,-23,-8,0,-3,-2,-1
1533862922289285,-3,-1,-9,3,1,-4,-2,-3
1533862922289285,1,-1,-20,-10,2,3,5,2
1533862922298122,-1,-2,-33,1,-1,1,-2,-1
1533862922298122,4,6,74,33,9,3,0,-2
1533862922312083,-5,-9,-29,-17,-9,-6,-2,-1
1533862922312083,-4,-5,-10,-7,2,-1,-2,-3
1533862922319095,-1,-4,-1,-7,-9,-11,-1,-3
1533862922319095,-1,3,-23,-15,-2,5,0,1
1533862922335022,-1,0,11,13,1,4,-1,-3
1533862922335022,-2,2,10,9,-4,-1,-2,-1
1533862922337029,-2,0,0,-6,1,-1,1,-3
1533862922337029,1,-3,-17,1,4,-6,-3,-2
1533862922357962,1,1,6,-9,0,5,4,3
1533862922357962,-3,-5,-22,-14,-1,-1,-6,-1
1533862922358957,-1,-1,0,9,-2,-4,-1,-2
1533862922358957,-1,-2,-8,-2,-6,-7,-3,-4
1533862922371927,-1,-2,-3,6,2,0,3,1
1533862922371927,2,3,-2,-8,1,-1,-3,4
1533862922378908,1,5,19,8,4,2,2,1
1533862922378908,-4,-6,-25,-1,-9,-5,-5,-3
1533862922395081,-2,0,-5,-11,2,-2,-6,-4
1533862922395081,0,0,1,-2,-1,-2,0,-2
1533862922396890,1,0,11,5,1,2,2,0
1533862922396890,-2,-2,-12,-1,-3,-1,1,1
1533862922416803,-2,-1,-2,4,-6,-1,0,1
1533862922416803,-2,-2,-1,0,4,-1,-2,-3
1533862922424988,-2,-3,-6,-4,-22,-7,-3,-2
1533862922424988,1,2,-3,-8,7,6,-2,1
1533862922431766,1,-2,-2,7,3,2,-1,1
1533862922431766,-3,-1,9,10,-3,0,0,-1
1533862922438994,-2,-2,-3,-6,1,-3,-3,-4
1533862922438994,-5,-8,-11,-16,-3,-10,-3,-6
1533862922454757,1,2,1,1,4,-2,-1,-2
1533862922454757,3,1,4,4,1,3,5,5
1533862922456749,-2,-1,-3,-5,-2,0,-4,0
1533862922456749,0,2,-2,-12,-5,-1,1,1
1533862922477711,-1,-1,4,14,1,-5,0,-2
1533862922477711,-3,-4,-8,0,-2,-4,1,-1
1533862922478690,-1,0,2,3,6,1,0,-3
1533862922478690,0,-4,-3,-1,-9,-1,-2,-4
1533862922491658,0,0,-4,-17,-2,3,0,-2
1533862922491658,1,-1,1,13,-4,-1,-2,-1
1533862922498636,0,0,2,2,2,-5,-3,0
1533862922498636,-3,-3,-22,-2,-2,-5,-3,-4
1533862922514598,-3,-1,-1,-4,0,0,-3,1
1533862922514598,-2,-1,-2,-2,6,2,0,-2
1533862922516591,0,-2,3,-3,0,1,-1,0
1533862922516591,1,0,-1,0,-13,-3,1,0
1533862922537535,-2,-2,-16,-9,-6,-2,4,2
1533862922537535,-1,-1,5,-5,0,0,-5,-2
1533862922539536,-2,-2,-6,1,2,-3,-1,-2
1533862922539536,-3,-1,0,1,5,0,-1,-2
1533862922551498,2,-3,4,-2,-3,-4,0,0
1533862922551498,-2,-3,-1,-3,-3,-6,-3,-2
1533862922558476,-1,0,0,1,1,2,2,1
1533862922558476,0,-2,4,5,-1,-1,-4,-2
1533862922575431,-1,-2,2,-1,-1,-2,-5,-4
1533862922575431,-2,2,-1,-5,-4,-2,2,0
1533862922576442,-2,-1,-1,-1,-3,3,3,1
1533862922576442,-2,1,2,2,6,3,0,1
1533862922597422,-3,-2,-8,-2,-5,-5,-4,-4
1533862922597422,-2,-4,-4,-2,-5,-3,-2,-2
1533862922599369,0,-1,-2,-6,0,0,-2,2
1533862922599369,-2,0,-2,0,5,3,0,1
1533862922612332,0,0,4,1,7,-3,1,0
1533862922612332,2,1,1,-3,-17,-4,0,-3
1533862922620338,1,-1,0,2,3,3,-1,-2
1533862922620338,-1,1,-2,0,-2,2,2,0
1533862922635271,-1,-2,-1,0,-3,2,-3,-2
1533862922635271,-1,-1,1,0,6,-1,-2,-1
1533862922636268,-2,1,-5,-3,-3,-6,-2,-1
1533862922636268,0,0,2,1,6,3,2,2
1533862922657215,1,-1,-2,5,1,1,2,2
1533862922657215,-1,0,0,-3,-2,0,3,0
1533862922659208,-2,-2,-1,-2,-3,-4,-4,-3
1533862922659208,-3,-4,-4,-2,-6,-9,-3,-3
1533862922671178,-1,0,-2,-2,-6,-1,-3,-1
1533862922671178,0,0,-2,-3,4,3,-5,-1
1533862922680151,-1,-1,0,-3,-10,1,-5,-3
1533862922680151,1,1,2,5,4,1,-1,1
1533862922702098,-2,0,-1,-6,0,3,6,5
1533862922702098,-2,-2,-3,-2,-2,-2,1,1
1533862922704086,-2,-2,-1,2,5,-1,-4,-3
1533862922704086,-1,-5,0,-2,-10,-9,-4,-3
1533862922717052,2,-1,-2,2,1,0,-8,-2
1533862922717052,-3,0,-4,-9,-3,-2,-4,-2
1533862922719048,-3,-1,-1,-5,-3,0,4,0
1533862922719048,-2,0,2,12,4,4,5,4
1533862922731015,-2,-1,-3,1,5,-4,-4,-3
1533862922731015,-1,-1,1,-2,-2,-3,-4,-4
1533862922739991,-1,-1,-5,-2,-10,-5,-4,-2
1533862922739991,0,0,-1,-4,3,1,0,-3
1533862922754954,-3,-4,-3,-2,-13,-6,-1,-4
1533862922754954,-2,-4,-1,6,6,3,3,0
1533862922756957,5,3,3,2,8,2,-8,2
1533862922756957,-1,-2,-1,-3,-5,-2,0,-1
1533862922777890,-2,-1,-4,2,0,-2,0,-1
1533862922777890,-2,-3,-4,-11,-12,-11,-4,-6
1533862922778886,0,1,4,2,4,6,10,3
1533862922778886,-3,-5,-9,-3,0,0,-5,-4
1533862922790855,-2,-3,-3,-6,-2,0,1,0
1533862922790855,1,1,2,5,2,-2,-1,0
1533862922799831,-1,-3,2,1,3,0,2,0
1533862922799831,2,0,2,-7,-1,-2,-2,-1
1533862922814790,-1,1,1,1,-1,-4,-3,-6
1533862922814790,2,1,4,6,6,5,-1,3
1533862922816786,-2,0,-5,-8,-17,-1,-5,0
1533862922816786,-5,-5,-5,-2,-11,-2,-1,-3
1533862922837729,-1,-3,1,1,-3,-4,-3,0
1533862922837729,-2,0,0,1,4,-4,1,0
1533862922838728,-2,-4,-5,2,3,-5,-4,-5
1533862922838728,1,1,2,-4,5,1,-4,0
1533862922851802,2,3,2,-7,-1,8,9,9
1533862922851802,-5,-4,-6,4,-6,-1,-2,-3
1533862922859674,-4,-3,-2,-2,0,-3,-3,-2
1533862922859674,-1,2,4,6,-9,-6,-4,-5
1533862922874633,-1,-2,-2,0,3,2,-1,-6
1533862922874633,-1,0,-2,-8,-7,3,4,3
1533862922876625,0,-2,-1,-2,-2,0,0,3
1533862922876625,-4,-4,-9,3,1,-2,-2,-1
1533862922897572,0,-1,1,3,12,1,-4,-2
1533862922897572,0,-2,2,2,1,-3,0,-1
1533862922899564,-3,-3,-3,-3,-3,-2,1,-4
1533862922899564,3,3,4,-5,-2,4,-2,3
1533862922911535,-3,-3,-6,-2,-8,-5,-4,-3
1533862922911535,-3,-2,-1,-9,-5,-9,-8,-6
1533862922920509,0,0,-1,1,1,-4,-4,-3
1533862922920509,2,2,1,-2,11,9,3,5
1533862922934517,-3,0,-4,-2,-4,-1,-1,0
1533862922934517,0,-2,-2,-5,-2,-2,1,-2
1533862922936524,-1,0,0,3,3,2,-7,0
1533862922936524,-2,-1,1,-2,-6,-3,1,-3
1533862922957482,-1,-1,4,4,0,-3,-1,1
1533862922957482,0,1,4,-1,1,-2,0,-1
1533862922959489,-2,-2,2,0,-19,-6,3,-4
1533862922959489,0,-1,-2,-6,11,-6,-2,-3
1533862922980393,0,1,0,0,10,3,1,3
1533862922980393,-2,-3,-4,-2,-4,2,2,-1
1533862922981391,-3,-1,-1,-6,-13,-9,1,-4
1533862922981391,-1,0,1,7,-7,-6,-8,0
1533862922995357,0,0,1,1,8,11,-3,-1
1533862922995357,-1,0,1,1,3,1,-2,1
1533862922996351,-1,-2,1,-7,-11,0,2,0
1533862922996351,-2,-4,-5,-8,-11,-5,0,-8
1533862923025296,-2,0,0,0,-2,-10,-7,-8
1533862923025296,1,-2,2,0,-6,2,4,4
1533862923026302,1,2,0,0,9,3,1,4
1533862923026302,-1,-2,-3,-1,10,3,3,5
1533862923031257,0,-2,3,1,2,2,1,0
1533862923031257,2,1,5,3,-6,-1,-2,-5
1533862923040233,2,1,6,3,4,0,-2,0
1533862923040233,0,0,7,2,10,2,-2,0
1533862923055202,1,0,-1,-14,-26,-6,-1,-2
1533862923055202,-1,-1,-5,2,10,-1,1,2
1533862923056227,-2,-4,-10,1,0,5,-5,1
1533862923056227,-2,-1,-3,2,2,5,-5,0
1533862923077138,-1,-1,-11,0,3,-3,-1,-1
1533862923077138,-1,0,-6,-5,-16,-4,-2,-2
1533862923079130,-1,0,8,1,2,-2,3,2
1533862923079130,0,1,13,-6,-5,-1,0,-1
1533862923091112,0,-1,6,2,8,2,0,0
1533862923091112,0,-1,-5,-4,-13,-6,-3,-1
1533862923100076,-1,-2,1,-2,15,-5,-6,-3
1533862923100076,0,-2,7,-4,-7,3,8,4
1533862923115033,1,3,6,-5,-1,1,1,2
1533862923115033,-1,-1,-14,4,3,5,-3,1
1533862923117040,-1,0,4,3,-1,2,1,-2
1533862923117040,-1,1,-13,-3,-6,-7,-4,-6
1533862923138003,0,-1,-4,1,-5,-4,2,-3
1533862923138003,0,-1,-2,-4,6,0,-2,-1
1533862923138971,-1,-2,-21,-1,2,0,-1,-3
1533862923138971,-2,-1,-17,-1,-5,-3,-1,-1
1533862923150939,-1,0,-4,4,-3,1,-2,0
1533862923150939,0,0,14,-5,0,-1,0,-3
1533862923159913,-1,-3,10,-3,-11,-8,-5,-4
1533862923159913,1,-1,2,-2,6,7,5,5
1533862923174875,-2,-2,18,2,-11,-3,-6,-1
1533862923174875,-3,-7,-21,2,23,4,-1,-2
1533862923181005,0,0,-9,-1,-8,-5,0,-2
1533862923181005,-2,-2,-1,-13,-13,-3,5,-1
1533862923197812,-2,-4,17,-9,-2,-1,10,7
1533862923197812,2,0,56,6,1,-3,-7,1
1533862923198813,-1,-1,-15,-4,3,-1,-1,2
1533862923198813,-1,-3,-11,-3,-1,-4,-5,-5
1533862923210811,-3,-3,3,-3,-5,-2,1,-5
1533862923210811,-1,-1,10,-5,-2,4,1,0
1533862923219757,-1,0,-30,4,6,1,4,1
1533862923219757,-2,0,37,-1,-7,-6,-4,-2
1533862923234720,-1,-1,17,-2,2,3,1,0
1533862923234720,-1,-1,84,-1,-5,-4,-2,-3
1533862923240701,1,-1,70,-1,-4,2,-6,-5
1533862923240701,1,-1,11,6,0,-1,1,1
1533862923257653,2,0,-55,5,3,-3,-7,-4
1533862923257653,-2,-1,-91,0,2,1,-4,2
1533862923259648,-1,-3,-42,0,-6,-1,0,1
1533862923259648,-1,-2,-20,2,3,-2,-4,-2
1533862923279613,-1,-1,-7,-3,-8,-2,0,-1
1533862923279613,-1,-2,-19,-2,12,2,4,-1
1533862923281589,-4,0,-19,-3,-7,0,0,-1
1533862923281589,-4,-2,-19,-4,-6,-3,-5,-3
1533862923294554,-1,-3,-7,4,4,1,-2,-2
1533862923294554,-2,0,-16,-7,-12,-3,1,-2
1533862923296549,1,-1,-14,0,4,-1,-4,-1
1533862923296549,0,0,-26,4,8,2,-2,-2
1533862923317496,-2,0,11,-2,4,-2,-4,1
1533862923317496,0,-1,-5,2,-1,3,2,1
1533862923319489,-1,-2,-18,-4,-5,-2,2,-2
1533862923319489,1,1,-7,-1,-4,-1,-4,0
1533862923340435,-2,0,7,-3,0,-3,-2,-3
1533862923340435,0,1,-3,-2,-3,-1,-1,-2
1533862923341432,-3,0,-12,-5,3,2,-3,1
1533862923341432,-1,-1,-7,0,0,-1,0,-3
1533862923355391,-1,0,9,3,0,-1,-1,0
1533862923355391,-1,-1,-8,-2,-6,-7,-4,-2
1533862923356389,-1,1,-4,3,7,4,8,2
1533862923356389,-1,-3,-8,2,1,-1,0,0
1533862923377335,0,-2,0,-1,12,1,-3,-2
1533862923377335,-3,-1,-14,-1,-9,2,3,1
1533862923379343,-3,1,-4,-2,4,-3,-1,-3
1533862923379343,-3,-1,-2,3,-3,1,1,-2
1533862923400272,1,0,-9,-9,-1,-2,-5,0
1533862923400272,-1,-2,-9,-1,-6,-5,0,-2
1533862923401269,-3,-2,4,5,6,-1,-2,-2
1533862923401269,2,2,9,5,2,-3,-2,1
1533862923415234,-3,-7,-23,-7,-4,-3,-3,-1
1533862923415234,0,1,10,-5,-2,-3,-4,-3
1533862923416240,1,-1,-9,-1,-7,2,4,-1
1533862923416240,0,-3,0,-5,-2,-1,-3,1
1533862923437175,-1,2,6,0,-4,-1,0,-1
1533862923437175,-2,-2,-2,4,6,0,-1,3
1533862923439166,-4,-2,-19,-8,-8,-7,-3,-3
1533862923439166,0,-1,-1,-2,13,7,2,0
1533862923460285,-1,-2,-10,-2,-13,-3,4,2
1533862923460285,-3,-2,-9,-4,-1,-3,-6,-4
1533862923461267,-1,-1,10,-3,3,0,-1,-1
1533862923461267,-3,-3,-13,1,-9,-6,-4,1
1533862923474230,-2,-2,-18,-1,6,1,2,-2
1533862923474230,0,-2,-2,0,-1,-3,-4,2
1533862923481213,-1,-2,-5,-1,-2,-2,-3,0
1533862923481213,-1,0,-4,-6,-6,-5,-1,0
1533862923497169,0,0,0,-1,2,2,2,0
1533862923497169,1,1,-7,-4,3,2,-3,1
1533862923499164,0,0,-8,1,-1,-1,-1,-1
1533862923499164,0,-1,0,-1,-2,-1,-3,-3
1533862923520236,-2,-2,8,2,0,-3,-2,-4
1533862923520236,-1,-2,-1,0,-13,0,3,2
1533862923522125,1,2,10,9,6,-2,-3,-1
1533862923522125,-3,-5,-15,-8,-4,-5,0,-5
1533862923535066,0,0,-12,2,-2,2,1,5
1533862923535066,-3,-3,-4,1,3,-1,-1,-3
1533862923541054,-2,0,3,1,1,-1,0,2
1533862923541054,-1,0,15,-1,-2,-4,-4,-2
1533862923557227,-1,0,13,0,-5,-5,-4,-3
1533862923557227,0,-2,0,-5,0,0,1,-1
1533862923563988,0,0,4,-2,-3,-1,-2,0
1533862923563988,-2,-1,3,-4,-2,0,-3,-3
1533862923579950,-2,-1,11,-4,-2,2,1,-2
1533862923579950,2,2,19,2,6,-1,-4,0
1533862923581941,-1,-3,2,-3,1,0,2,-1
1533862923581941,-4,-5,5,1,-3,0,0,-1
1533862923594907,-1,-1,3,1,0,1,-2,-3
1533862923594907,-3,0,-1,1,-3,-5,-2,-3
1533862923600892,-1,0,6,-6,4,0,-1,-4
1533862923600892,1,4,-2,-4,6,6,3,3
1533862923617844,-4,-2,-2,3,-5,-4,-1,0
1533862923617844,-2,-3,-2,-2,-4,-6,-2,-3
1533862923618843,0,-1,-2,-2,-5,-2,-1,-1
1533862923618843,1,0,-4,2,1,0,3,0
1533862923639786,1,-1,3,-5,1,-3,2,-2
1533862923639786,1,-1,-7,-6,1,1,-4,2
1533862923641781,-2,-5,-5,-5,-4,-3,0,-2
1533862923641781,-1,-2,-2,9,-3,-2,-5,-2
1533862923654750,-1,0,4,1,-2,-1,-5,-4
1533862923654750,-1,1,-1,-1,-2,-2,2,-2
1533862923660734,0,0,-11,-3,0,2,2,1
1533862923660734,-2,0,3,-4,-1,0,1,-1
1533862923677688,-1,-2,-1,1,0,-1,-2,-2
1533862923677688,-1,-2,-9,2,0,2,-1,-3
1533862923678683,0,-1,-1,-1,-4,-1,-3,-2
1533862923678683,-1,0,-2,0,1,-1,-1,-1
1533862923699640,1,-1,-2,-2,1,3,2,0
1533862923699640,-2,-3,1,0,2,-1,2,-3
1533862923701621,-2,-1,-7,-5,-14,-6,-2,1
1533862923701621,0,-3,-11,-5,0,-8,-5,-1
1533862923714586,-2,-1,-3,-7,0,-3,0,-3
1533862923714586,-1,-1,1,2,-1,-2,-4,0
1533862923721689,1,-1,-7,-1,0,4,-8,0
1533862923721689,-1,-5,-19,-2,-6,-5,1,1
1533862923737529,-4,0,9,4,0,1,-2,1
1533862923737529,-2,-4,-6,-2,-1,-2,0,-2
1533862923739520,-2,1,4,2,1,-4,-4,-4
1533862923739520,-1,-1,-1,-2,-1,2,1,-1
1533862923760643,1,0,-2,-2,-1,-3,-1,1
1533862923760643,-1,1,-4,1,-5,-2,3,-2
1533862923761462,0,-2,3,-2,3,0,1,2
1533862923761462,-1,1,0,0,0,-1,-2,-2
1533862923774433,-4,-4,-12,-8,-7,-3,1,-4
1533862923774433,0,-1,-5,1,2,0,-1,-1
1533862923781408,-1,0,-9,-1,2,1,-2,0
1533862923781408,-2,0,1,1,-4,3,2,-3
1533862923797365,-1,-1,4,4,-2,-3,-3,-1
1533862923797365,-2,0,-2,-3,-1,-2,-1,0
1533862923799359,-1,-2,-14,-1,-4,0,-1,0
1533862923799359,-3,-2,5,5,1,2,-1,1
1533862923820486,1,2,7,3,3,2,-5,3
1533862923820486,-4,-3,-7,-5,-4,-4,-3,-8
1533862923821301,0,0,12,0,-1,0,10,5
1533862923821301,-2,-1,-5,-1,2,-2,-2,2
1533862923842248,-2,-2,-5,-2,-3,-2,-2,-4
1533862923842248,-2,-1,6,-1,-1,0,-1,-2
1533862923844240,-3,-2,-1,-2,0,-3,-7,-6
1533862923844240,0,-1,-4,-4,-2,0,-1,-2
1533862923857209,0,1,2,0,0,0,1,1
1533862923857209,0,-2,-5,0,0,0,-2,3
1533862923859200,-2,-1,-11,-1,-2,0,1,-2
1533862923859200,1,0,2,-4,0,-1,-3,-1
1533862923880145,-1,-1,-2,1,-3,-1,-2,0
1533862923880145,-1,1,-19,-2,-6,3,3,5
1533862923882138,-2,-2,-7,-1,3,1,-3,-1
1533862923882138,1,0,2,0,1,3,0,1
1533862923894299,-2,-1,-13,-4,-2,-4,-2,-5
1533862923894299,-2,0,5,0,0,-4,-3,-2
1533862923903087,-1,-4,-9,-1,-5,-4,0,-2
1533862923903087,-1,0,-8,-9,-1,-3,-4,-1
1533862923917045,0,-2,1,-2,-2,-3,4,0
1533862923917045,0,1,11,2,6,4,-6,5
1533862923919052,2,-1,11,-2,-6,-2,-1,-4
1533862923919052,-5,-2,15,3,7,4,6,-4
1533862923939983,-3,-3,-3,-6,-6,-5,-9,-1
1533862923939983,-2,-1,-8,1,3,-3,4,-2
1533862923941978,0,-1,-4,2,1,-5,-4,-1
1533862923941978,0,-1,10,-3,-6,-5,0,0
1533862923953946,-2,0,8,3,6,2,3,-1
1533862923953946,-1,-1,-4,1,-1,-1,0,0
1533862923962923,-1,-2,4,-1,-4,0,0,-4
1533862923962923,1,-1,11,-3,-1,-4,-2,-3
1533862923978117,1,0,-16,0,1,8,4,4
1533862923978117,0,-3,-11,-11,-7,-5,-4,-2
1533862923978880,-4,-2,-4,1,4,5,4,2
1533862923978880,-4,-1,-7,0,-7,-2,3,-1
1533862923998838,-1,-1,4,-2,-1,-6,-12,0
1533862923998838,0,-1,-4,-1,4,5,-1,1
1533862924007802,0,-1,-13,-4,-3,-3,-3,-2
1533862924007802,-1,1,1,2,2,-2,-2,-1
1533862924013790,-2,-2,-4,-2,-9,-2,4,-3
1533862924013790,-1,-1,0,2,1,0,2,-3
1533862924022762,0,-1,-9,-4,1,0,2,3
1533862924022762,-2,-2,-9,0,-5,-4,-4,-1
1533862924037770,1,-2,-11,-2,2,-2,0,-2
1533862924037770,0,-2,0,2,-1,0,-1,-2
1533862924038721,-1,-1,-5,2,5,-1,-2,-4
1533862924038721,0,-2,-11,-7,-5,2,0,0
1533862924059667,0,-3,5,2,-2,-2,-6,1
1533862924059667,-2,-2,-4,1,3,0,3,-2
1533862924061657,2,1,13,-1,2,0,-7,1
1533862924061657,-2,-2,-4,-2,-5,-4,1,-2
1533862924073630,-4,-3,-7,3,-1,-3,-3,-4
1533862924073630,3,-1,-3,1,-4,-1,-2,-1
1533862924088589,-2,0,-4,0,-5,-2,-1,-1
1533862924088589,0,-2,0,-1,-2,-1,-3,-1
1533862924097562,-1,-2,2,-4,2,4,4,0
1533862924097562,1,0,-6,-8,-4,-4,-3,0
1533862924099557,1,1,-7,0,4,-1,-3,6
1533862924099557,-2,-2,-4,0,1,-2,0,1
1533862924127485,-3,-2,5,-3,-3,-2,0,-6
1533862924127485,-2,-3,-5,0,-3,-3,-1,-5
1533862924129476,-2,-1,-1,-6,-4,0,1,-2
1533862924129476,-1,0,-1,1,-1,0,-3,0
1533862924133466,-1,2,5,0,-2,-6,-4,-1
1533862924133466,1,0,3,-1,2,5,8,1
1533862924142442,-2,0,-5,-3,-2,-3,-1,-3
1533862924142442,0,-3,-2,-1,-2,-5,-4,-5
1533862924165380,-1,-1,-9,-1,4,3,1,5
1533862924165380,-3,-1,-3,-3,-5,0,0,0
1533862924166394,1,-1,-7,2,-1,1,5,-1
1533862924166394,-1,0,-7,-4,-2,-1,-1,-1
1533862924180342,0,-2,1,0,0,0,-2,-2
1533862924180342,-3,0,-1,-1,-2,-3,-2,0
1533862924181351,-2,-1,-8,3,-1,2,-3,-2
1533862924181351,-1,-2,2,0,-2,-5,-3,-4
1533862924193307,0,-1,-7,-6,-1,-1,1,-3
1533862924193307,-1,0,4,2,2,0,-1,-1
1533862924202287,-3,-2,-5,1,-1,-4,-1,-2
1533862924202287,-1,-2,-9,2,-2,1,-1,0
1533862924218435,-2,0,-6,0,-3,1,0,-2
1533862924218435,-2,-3,1,1,-1,-3,-2,-3
1533862924219263,1,-3,-4,-5,1,0,0,1
1533862924219263,0,-1,3,3,2,-1,-1,-2
1533862924240201,0,-1,7,-2,1,-4,-3,-3
1533862924240201,-1,-1,-9,1,-2,0,4,5
1533862924242175,-1,0,-7,0,-1,-6,-2,-4
1533862924242175,0,1,-4,-2,9,5,1,3
1533862924262156,-3,-1,-4,-2,-8,-4,-4,-3
1533862924262156,-1,0,-4,-3,-3,-2,-2,-3
1533862924264118,-1,-3,0,-3,-3,-4,-4,-5
1533862924264118,-1,-1,-4,0,-1,4,4,0
1533862924277101,0,0,-14,-2,2,-1,-3,0
1533862924277101,-2,-2,-7,5,2,-4,-5,0
1533862924279081,-3,-1,-10,-2,-1,2,3,0
1533862924279081,-1,-2,-5,-3,-3,-3,-1,-4
1533862924308000,-1,-1,10,1,-3,2,1,0
1533862924308000,0,0,3,0,-3,-2,-2,1
1533862924308997,2,1,1,-3,1,-1,-4,-1
1533862924308997,-1,-4,-2,0,-2,0,-2,-2
1533862924329941,-2,1,5,0,0,-2,2,1
1533862924329941,-2,-1,-4,-8,3,-2,-4,-3
1533862924331936,-3,-2,3,-3,-17,-3,1,1
1533862924331936,-2,-1,1,0,5,-2,-1,0
1533862924337937,0,-2,-3,2,2,-1,0,-3
1533862924337937,-1,-2,6,-7,8,-1,-2,-4
1533862924338917,0,-1,4,-4,-5,0,0,2
1533862924338917,-1,-1,1,-2,-20,-3,2,0
1533862924359862,-1,-1,4,-6,7,1,3,3
1533862924359862,-2,1,-1,4,-3,3,0,0
1533862924361889,-3,0,-4,2,8,0,-4,-1
1533862924361889,-1,0,0,-2,4,1,-3,0
1533862924382888,-1,-1,3,0,-6,-5,3,-2
1533862924382888,2,1,6,5,19,0,0,1
1533862924383798,0,-1,-9,1,17,4,0,0
1533862924383798,-3,-3,-3,-6,-29,-5,-2,-1
1533862924397759,-3,-4,-18,1,-1,1,-3,-4
1533862924397759,-2,5,-17,-6,-19,-1,-2,-2
1533862924398756,3,-3,46,6,-1,2,0,2
1533862924398756,-5,-4,-11,0,8,0,-2,-4
1533862924420700,0,-4,-2,-6,-10,0,-1,-2
1533862924420700,-1,0,1,7,11,-2,2,-3
1533862924421695,-2,1,-17,-3,2,-1,0,-2
1533862924421695,0,-2,-7,-2,-1,-2,-4,-1
1533862924442739,0,-2,1,-2,-3,0,-2,0
1533862924442739,-1,-5,-1,2,-4,0,-1,-1
1533862924444633,-4,-1,-17,-3,-8,-4,-1,-2
1533862924444633,1,0,-1,-5,14,-1,0,1
1533862924456602,0,2,-20,-2,-3,-4,0,-1
1533862924456602,-2,-2,3,-1,-11,0,-3,0
1533862924463583,1,-2,-10,0,2,-2,-1,-2
1533862924463583,2,2,11,3,7,0,-3,1
1533862924480537,0,-3,6,5,52,6,-1,-1
1533862924480537,-5,-3,-30,-27,-91,-15,-2,1
1533862924481538,-2,1,7,4,-9,-2,1,2
1533862924481538,-2,-2,-13,-8,16,6,1,-3
1533862924502482,-1,-1,4,-1,-27,-2,0,1
1533862924502482,1,-4,9,6,38,7,-2,-1
1533862924504474,-7,-5,-21,-5,-4,-2,-4,-5
1533862924504474,2,1,3,2,0,-4,1,1
1533862924516442,-2,-1,-4,-1,2,-1,-3,-1
1533862924516442,0,0,0,3,7,-1,2,-2
1533862924523438,0,1,-4,-1,-5,0,0,0
1533862924523438,-1,-1,-4,-2,5,-3,-1,-2
1533862924540383,1,1,0,0,-12,-1,-1,0
1533862924540383,-1,-3,2,3,0,-4,-3,0
1533862924541374,-2,-5,-12,-3,2,-3,-1,-2
1533862924541374,-2,0,1,0,-9,-3,-3,-2
1533862924562322,-2,-1,6,-1,-9,-2,1,-1
1533862924562322,-1,1,-4,-1,10,3,2,-1
1533862924564313,1,-1,-2,-3,3,0,-1,-1
1533862924564313,-1,1,-1,1,-4,-2,-2,0
1533862924577279,-2,7,8,3,8,5,0,-2
1533862924577279,-2,-14,-9,-6,-9,-6,-3,-1
1533862924583263,-2,-2,1,4,-4,-1,-2,-3
1533862924583263,2,-2,-5,-12,-21,-2,2,0
1533862924600229,-2,-2,-2,2,6,0,-1,0
1533862924600229,0,2,-7,-4,5,2,0,-2
1533862924601216,-3,-1,-8,-6,-4,-2,2,0
1533862924601216,-4,-2,2,4,1,-3,-3,-4
1533862924623190,1,-3,0,-3,-6,-3,-1,1
1533862924623190,-1,1,-5,-2,13,0,-2,-1
1533862924624188,0,-3,-3,0,-2,-1,-2,-4
1533862924624188,-1,-1,2,2,0,-1,1,1
1533862924645292,-2,-5,-3,-3,-9,-2,0,0
1533862924645292,-1,1,-6,6,2,-2,-4,-4
1533862924647094,0,1,-5,-2,-2,-1,-2,2
1533862924647094,-2,0,-6,1,-2,-1,-2,-2
1533862924660061,0,0,-7,-3,-3,-6,-3,-2
1533862924660061,-2,-3,3,-4,3,-3,-2,-3
1533862924662052,-3,-3,-11,-3,-18,1,1,0
1533862924662052,1,-2,10,2,13,2,-9,0
1533862924682997,0,1,9,2,-2,1,0,1
1533862924682997,1,1,1,-2,2,-2,0,-1
1533862924684000,-1,-1,8,-1,-2,-1,-3,-2
1533862924684000,-2,-2,4,-4,-3,-3,-2,-1
1533862924696994,-2,-2,-1,-2,-5,-4,-1,-4
1533862924696994,-1,-1,1,2,5,1,3,0
1533862924703942,0,-1,0,-1,4,-5,-5,-3
1533862924703942,-1,-1,3,0,-1,3,2,0
1533862924719901,-1,-1,9,3,6,3,1,-1
1533862924719901,-1,0,4,-2,-5,1,0,-1
1533862924721891,-1,-1,2,1,3,3,1,-1
1533862924721891,-1,0,0,1,-8,-3,1,0
1533862924742836,-3,-3,-15,-5,5,-4,-5,-2
1533862924742836,0,-1,8,-2,-7,-3,1,2
1533862924743833,-3,-3,-16,-6,-1,-4,-1,-2
1533862924743833,0,0,-2,1,2,-1,-1,0
1533862924764778,1,-3,0,2,-9,-4,-4,-2
1533862924764778,-2,-1,-4,0,2,-2,-3,-2
1533862924766772,0,-2,6,1,5,0,2,-1
1533862924766772,0,0,-9,-1,-5,1,3,3
1533862924779738,-3,-1,-4,-7,4,0,-6,-2
1533862924779738,-2,-2,-4,-3,-5,-5,-2,-3
1533862924781733,-1,2,-5,3,5,4,5,3
1533862924781733,-2,-4,-7,0,-6,-2,1,-2
1533862924802676,-3,-2,-3,-2,-6,-5,0,-2
1533862924802676,0,-2,-7,0,-2,-3,-5,-2
1533862924803674,0,1,-5,-1,6,2,-7,5
1533862924803674,-1,0,2,3,1,-3,0,-5
1533862924816638,-2,1,5,-1,2,2,3,3
1533862924816638,-1,-2,2,-3,-5,0,-6,-3
1533862924825614,-2,-2,-5,-1,-5,-2,0,-5
1533862924825614,2,0,1,-2,12,1,-2,2
1533862924847556,0,0,1,0,-8,-2,-3,-2
1533862924847556,-1,0,-5,1,1,0,3,1
1533862924849551,1,-1,3,1,-4,0,1,1
1533862924849551,-2,-3,-13,-7,-4,-6,-3,-4
1533862924862519,0,0,0,-1,6,-1,1,-1
1533862924862519,-3,-1,-11,1,3,2,-1,-3
1533862924864510,-3,-2,-2,-2,-3,-1,-1,-2
1533862924864510,-1,1,-1,-1,-12,-3,1,-2
1533862924876502,-3,-3,-13,-4,1,-2,1,-2
1533862924876502,-1,1,2,1,3,-1,-3,-1
1533862924885456,-1,-1,-1,1,-1,-2,-4,0
1533862924885456,-1,0,-2,0,-5,-2,-1,1
1533862924900444,-1,-2,-14,-6,-1,-3,-3,1
1533862924900444,-1,-1,3,-2,-5,0,2,-1
1533862924901417,-2,0,-6,-1,2,-2,2,-1
1533862924901417,2,-1,-5,1,1,3,0,8
1533862924922360,-3,-1,0,3,-4,1,-3,-6
1533862924922360,-1,-2,-14,0,1,-5,-4,1
1533862924924352,-1,-2,-10,-2,-2,-3,-2,-4
1533862924924352,-1,0,0,-2,6,1,-3,-4
1533862924936322,-1,-2,2,-1,-12,-3,2,-1
1533862924936322,1,-1,-5,-4,3,-1,-10,1
1533862924945310,-2,-1,-10,-1,-3,1,1,-2
1533862924945310,-3,-2,-4,-2,-2,-3,-5,-1
1533862924960421,-1,1,-6,3,-4,2,2,1
1533862924960421,-3,-3,-9,0,1,-2,1,-1
1533862924973436,-1,-2,-13,-1,-9,-5,-3,-1
1533862924973436,0,-3,-6,4,-1,-3,1,-4
1533862924982204,-1,-3,-8,-10,-3,-4,-2,0
1533862924982204,-1,0,-10,0,-5,2,7,1
1533862924984192,-1,1,-5,-2,5,-1,-4,1
1533862924984192,-2,-1,-1,-3,-5,-1,-2,-2
1533862924996159,-1,0,3,1,-1,-1,-4,-1
1533862924996159,-2,0,-1,2,3,3,10,3
1533862925013114,-2,-2,-4,-2,-2,-4,-3,-3
1533862925013114,-3,-3,-8,1,3,-3,-4,-1
1533862925020098,1,-3,-10,0,-1,1,0,-1
1533862925020098,-2,1,-2,-7,-9,-3,-3,-2
1533862925022089,1,1,6,3,8,3,2,2
1533862925022089,0,-1,-1,2,3,-1,0,0
1533862925042036,-1,-1,-10,-5,-5,1,-2,-1
1533862925042036,-1,-3,0,2,1,-1,3,-2
1533862925044031,2,-2,3,0,3,-1,-3,-1
1533862925044031,1,0,12,-6,-2,1,-2,-1
1533862925055999,-3,-1,5,-3,-15,-4,-2,0
1533862925055999,-1,-3,8,-3,1,0,-6,-2
1533862925064975,-2,0,-1,-1,1,-3,-3,-2
1533862925064975,-1,0,0,2,4,-2,1,-2
1533862925080141,-1,-1,13,0,2,0,-2,-1
1533862925080141,-1,2,-1,5,-5,-1,0,2
1533862925081931,-1,-3,-2,0,7,0,2,2
1533862925081931,-1,-3,0,-3,-4,-1,0,-1
1533862925102881,-2,1,5,1,-2,-4,0,-1
1533862925102881,-1,-3,1,-1,-3,-3,-2,-5
1533862925103880,0,2,3,-3,-1,-1,0,-2
1533862925103880,-2,-1,-1,-3,-1,-2,-1,-2
1533862925115839,0,1,0,0,3,-1,-1,-2
1533862925115839,0,0,-5,-8,-1,-1,-6,0
1533862925124825,-1,-3,-18,0,-3,-1,-6,-1
1533862925124825,0,-1,-5,11,3,2,2,3
1533862925139778,-3,-3,-5,-12,2,-1,-2,-3
1533862925139778,-4,-6,-12,-1,-19,-9,-5,-4
1533862925141768,-2,-1,-6,-8,-2,0,2,0
1533862925141768,-2,-2,1,-2,-5,-2,0,-2
1533862925162713,1,0,1,6,4,0,1,0
1533862925162713,0,1,-4,0,0,1,2,-1
1533862925168698,-2,-1,-5,1,-4,-2,-2,-4
1533862925168698,-1,-1,-6,2,1,-1,-1,-2
1533862925176677,1,0,0,2,3,4,1,2
1533862925176677,-2,0,-3,-6,2,-1,0,0
1533862925185651,0,1,4,8,4,0,-2,-2
1533862925185651,0,1,1,-6,-5,2,0,-1
1533862925200613,-3,-5,-13,-6,-5,-7,-5,-4
1533862925200613,-2,-2,-12,0,-3,-1,-2,-2
1533862925202613,-2,-2,-5,-6,-5,-1,-3,0
1533862925202613,-2,0,-15,2,0,-1,-2,1
1533862925222557,-1,1,3,10,1,-1,-3,-1
1533862925222557,0,3,-12,-7,6,3,6,-1
1533862925224554,-3,-2,-15,-4,-2,0,-2,-1
1533862925224554,2,-7,-6,0,-7,-5,-10,-4
1533862925245491,-5,0,-3,0,4,0,4,1
1533862925245491,1,0,1,1,1,0,-1,1
1533862925246505,0,-4,0,-5,-3,-2,2,-4
1533862925246505,-2,3,-3,-8,-2,-1,0,-2
1533862925260453,1,-1,-8,1,-3,0,-1,0
1533862925260453,1,-2,-2,3,-1,-1,-4,1
1533862925261452,-7,0,-7,-2,8,-5,-3,-4
1533862925261452,-1,-1,-3,4,-3,-1,-3,3
1533862925282393,-1,-1,-3,-8,-14,-5,-2,0
1533862925282393,-3,1,-10,8,2,2,1,-1
1533862925284389,3,1,-3,-3,-3,-2,-2,-1
1533862925284389,-6,-6,-6,-7,-8,-8,-3,-7
1533862925305333,-1,0,-1,4,4,2,1,0
1533862925305333,-2,0,-1,-8,0,-3,0,1
1533862925306330,-1,1,8,7,-10,4,1,-3
1533862925306330,1,1,5,-6,8,-2,-9,2
1533862925320295,0,-4,-19,0,-5,-1,-1,-3
1533862925320295,-1,-2,-1,4,-3,-2,-1,-1
1533862925321289,0,-1,-4,-1,-1,-1,7,1
1533862925321289,-1,1,-7,-5,-2,2,5,-2
1533862925342239,1,0,1,-2,9,0,-7,1
1533862925342239,0,-2,0,-1,-4,-4,-1,-3
1533862925344228,-1,-3,-18,-3,-7,-4,-1,-2
1533862925344228,-3,-2,-4,0,-4,0,-5,-1
1533862925365191,-1,1,9,1,3,-2,1,-1
1533862925365191,0,0,-14,-2,0,0,-4,-3
1533862925367168,-2,-3,-5,2,-6,0,-2,1
1533862925367168,-3,-6,-8,-3,-4,-2,1,-2
1533862925379138,0,1,-5,0,4,1,0,3
1533862925379138,-4,-2,-4,5,-1,-2,-1,-3
1533862925386119,0,0,-4,16,5,-2,-1,-2
1533862925386119,1,2,-1,-32,-2,-1,1,-2
1533862925402073,-1,-3,-1,4,-2,-5,-1,-5
1533862925402073,0,0,-1,-9,-2,3,3,4
1533862925404068,0,2,-12,16,7,1,-5,1
1533862925404068,-1,-1,0,-2,3,3,2,-1
1533862925442017,-2,-3,5,-3,-4,-3,-2,-2
1533862925442017,-2,-1,9,2,-4,-2,-2,-3
1533862925442964,-3,-4,0,-1,-9,0,3,0
1533862925442964,0,2,8,6,6,-8,-7,3
1533862925443962,0,-1,-2,-6,9,2,4,0
1533862925443962,-2,-2,-5,2,6,-1,-2,0
1533862925447951,-1,0,11,-6,-9,-1,1,-2
1533862925447951,-2,-2,0,0,-1,3,0,-1
1533862925462910,-4,-4,7,6,-11,-2,-2,-3
1533862925462910,0,-1,1,-8,1,-2,-2,-2
1533862925463908,0,0,12,-4,5,0,-4,0
1533862925463908,-1,1,0,-1,-11,2,3,-2
1533862925484856,-3,-1,5,-4,3,0,-1,-1
1533862925484856,0,-2,-6,-4,-4,0,0,-2
1533862925486847,0,0,3,-6,3,0,-3,-3
1533862925486847,-1,-2,2,11,-6,0,0,-2
1533862925499819,0,-2,-7,6,-1,-4,-1,-1
1533862925499819,-2,-4,-4,-39,-12,-4,-3,-1
1533862925506811,0,-2,-3,-3,1,-4,-2,-1
1533862925506811,-3,-5,-11,5,1,-3,0,-4
1533862925522754,1,1,2,3,5,4,5,1
1533862925522754,-1,-3,-14,8,1,1,-3,0
1533862925523748,-4,-1,-4,-3,4,1,-1,1
1533862925523748,-3,0,4,2,-1,-1,-2,-1
1533862925544692,0,-2,-7,-14,-4,0,1,-1
1533862925544692,0,-1,-4,10,4,-4,-1,-1
1533862925546685,1,-1,-5,-7,-5,-3,-2,-4
1533862925546685,0,1,-1,9,-3,-2,1,-3
1533862925559652,-1,-1,-3,-7,3,3,2,3
1533862925559652,0,1,4,5,2,2,-1,0
1533862925566632,1,0,-1,-1,2,1,2,0
1533862925566632,0,2,2,15,2,2,2,2
1533862925582591,-3,-3,-4,1,-8,-4,-8,-3
1533862925582591,-3,-2,-4,-36,-7,-1,-1,-2
1533862925584606,-4,-3,-1,-37,-12,-4,-2,-4
1533862925584606,-2,-3,-1,13,2,-4,-2,-4
1533862925604532,2,2,-1,21,3,6,5,4
1533862925604532,-2,0,-10,-32,-2,-1,-2,-1
1533862925606526,0,-2,-5,10,3,1,-4,-2
1533862925606526,1,-1,1,-13,0,0,1,1
1533862925619492,-4,1,-6,2,-2,2,3,-1
1533862925619492,-6,-2,3,19,2,-1,-4,-2
1533862925626473,12,-2,2,4,-3,-4,0,1
1533862925626473,-1,-2,-12,-10,-1,1,-4,1
1533862925642622,-1,-1,8,2,-2,-4,-2,-5
1533862925642622,2,1,2,13,3,-2,3,1
1533862925644454,-5,5,-9,2,-3,-2,-2,-4
1533862925644454,-1,-4,1,2,6,-1,3,2
1533862925665388,16,2,2,-19,-7,-3,-5,-2
1533862925665388,-5,-4,-11,11,-6,-3,-4,-3
1533862925667364,-3,0,1,8,0,1,1,1
1533862925667364,4,-1,0,-6,0,2,1,-1
1533862925679365,-4,1,-3,0,2,-2,-4,0
1533862925679365,0,0,0,-8,-4,-3,-1,-3
1533862925686517,-2,-4,-3,-1,-2,-3,-1,-3
1533862925686517,-6,-1,-15,5,2,-1,-5,-3
1533862925703267,-4,-3,0,33,0,-3,0,0
1533862925703267,-1,-5,-7,-37,-8,-4,2,-3
1533862925704299,-1,0,-9,-1,2,0,-2,2
1533862925704299,-2,-3,5,-8,1,1,0,0
1533862925725229,-3,0,-8,8,2,-2,-1,-1
1533862925725229,3,3,15,18,7,3,1,2
1533862925726207,-8,-5,-11,-9,-8,-3,-2,-4
1533862925726207,0,0,3,7,-9,-1,0,-2
1533862925755132,-4,-4,2,-22,-3,0,1,-4
1533862925755132,-1,-1,13,8,-1,-4,-2,-1
1533862925757122,0,-2,0,-5,6,4,-4,5
1533862925757122,-1,1,-14,-7,-5,0,0,0
1533862925762114,-4,-2,-10,-15,-10,-2,-2,-2
1533862925762114,0,-2,-8,9,1,-4,1,-3
1533862925764104,0,1,-4,1,1,-3,-5,-1
1533862925764104,-1,0,-10,-4,10,4,1,1
1533862925785248,-1,-1,3,-9,-21,0,-2,-1
1533862925785248,0,-3,-17,13,14,-3,0,0
1533862925787044,0,-2,-20,-5,-2,-3,0,-2
1533862925787044,-3,-3,-10,-22,-35,-7,-2,-3
1533862925799091,-3,-1,2,-9,-1,1,-1,2
1533862925799091,-2,-1,-2,9,-8,-1,1,-1
1533862925808014,-4,-2,11,6,8,1,-2,-7
1533862925808014,1,1,10,1,10,1,7,4
1533862925822946,0,-1,-11,2,3,-2,-5,-3
1533862925822946,0,1,14,0,-1,0,-1,-1
1533862925823945,-3,-6,-11,-8,-7,-6,-6,-5
1533862925823945,-2,0,4,5,1,-2,3,-2
1533862925844892,-3,-1,7,-2,5,1,0,0
1533862925844892,0,-1,1,12,5,2,-1,-2
1533862925846884,2,1,6,4,-4,0,5,4
1533862925846884,-4,-4,-1,-19,-8,-9,-6,-2
1533862925859057,-2,-2,5,6,4,0,-1,-2
1533862925859057,0,0,-9,-15,-6,-1,-1,0
1533862925867855,2,1,5,4,-3,-1,2,6
1533862925867855,0,-2,-4,5,5,1,-7,-7
1533862925882787,2,0,-2,-2,4,-3,-1,0
1533862925882787,-1,-1,1,6,2,3,-1,-2
1533862925883785,0,-2,-9,-3,-9,-3,2,0
1533862925883785,-4,-2,-4,11,5,-1,-3,-2
1533862925912711,-1,-2,6,-2,3,-5,-4,-3
1533862925912711,0,-2,-26,0,-13,0,1,-2
1533862925914701,-7,-2,-7,-5,-11,0,0,-1
1533862925914701,0,0,2,-8,1,3,-1,1
1533862925918691,-1,-1,4,-4,2,0,-2,-2
1533862925918691,-1,0,-4,2,0,-1,-3,0
1533862925927668,2,5,33,1,7,1,-2,0
1533862925927668,0,-1,-9,3,1,-3,-2,-3
1533862925942630,0,-1,-11,-3,3,0,2,-2
1533862925942630,0,0,9,1,1,0,-1,4
1533862925944623,-1,-2,-16,6,8,0,-1,-2
1533862925944623,-1,-1,-10,8,-2,-4,-4,-4
1533862925964580,-4,0,-23,-29,-23,-3,-2,-2
1533862925964580,-2,-4,-6,1,-2,-2,-5,-1
1533862925966564,-4,-10,-69,-5,-11,1,-1,-2
1533862925966564,5,4,44,-3,5,-2,1,2
1533862925978531,-3,-1,0,8,3,2,1,0
1533862925978531,-4,2,10,1,-7,-1,3,-2
1533862925987517,-3,-1,4,2,10,-1,0,-3
1533862925987517,1,3,5,-3,1,-1,0,-1
1533862926002467,-3,-8,-18,-1,1,-3,-3,-2
1533862926002467,1,4,7,6,1,-1,0,2
1533862926004462,1,-2,15,1,5,-1,-1,2
1533862926004462,-2,1,2,2,-1,1,0,1
1533862926032388,0,-1,0,-5,2,-2,-1,0
1533862926032388,1,-2,5,-4,6,1,0,0
1533862926034383,-5,1,-18,-5,-17,-2,-2,-3
1533862926034383,-1,-2,-22,3,1,1,-1,-2
1533862926038480,-1,-2,-4,8,4,1,-3,-3
1533862926038480,0,-2,-9,0,11,1,-2,-4
1533862926047347,-1,2,9,-7,1,-1,1,0
1533862926047347,-3,-2,-10,-10,-35,-7,0,2
1533862926062311,1,0,7,1,9,0,-1,0
1533862926062311,-2,1,-1,4,-1,-3,-2,-4
1533862926064316,2,-3,-1,7,11,-2,1,-2
1533862926064316,0,-2,-13,7,8,5,0,6
1533862926085382,-3,0,2,-2,-8,-7,0,-3
1533862926085382,-3,-3,-13,-1,-7,-1,-2,-3
1533862926087240,-1,-1,7,-6,-8,1,-2,-2
1533862926087240,-2,-4,-4,-4,16,2,-1,-4
1533862926099209,1,-2,-6,-7,-8,-2,-1,1
1533862926099209,-3,-3,-6,-8,-9,-3,-1,-1
1533862926107191,0,1,7,2,-3,0,0,1
1533862926107191,-1,-1,-2,0,2,-1,-1,-3
1533862926123150,-1,-1,8,0,1,-2,0,-1
1533862926123150,-3,-4,-12,-5,-1,-3,0,-4
1533862926124142,-1,-1,-6,-5,-6,-4,-4,-7
1533862926124142,2,0,-4,-1,5,4,-1,7
1533862926145085,-2,-1,-2,-2,-1,-3,-2,1
1533862926145085,0,-2,-10,-3,0,-2,1,1
1533862926147080,-1,-1,-4,3,3,-4,-1,-2
1533862926147080,-5,-3,-15,-6,-6,-8,-4,-8
1533862926168025,1,-1,2,3,-1,-1,-2,-2
1533862926168025,0,-1,0,-3,-4,0,-2,1
1533862926169022,-2,-1,-2,0,-3,-2,2,-1
1533862926169022,-2,-1,0,0,0,1,-1,-3
1533862926181996,-1,0,-1,1,2,3,-2,-1
1533862926181996,-2,-2,9,-1,-1,-3,-2,-4
1533862926183982,0,-1,0,-1,4,3,-4,2
1533862926183982,-1,1,-4,-7,-7,0,-4,1
1533862926204927,-2,1,3,5,-1,1,-2,1
1533862926204927,-1,0,0,-1,-6,-2,0,2
1533862926206945,-1,-3,-2,2,-2,-1,-4,-1
1533862926206945,-1,-2,5,-2,0,-1,1,0
1533862926228079,-2,-1,6,2,2,-3,0,-1
1533862926228079,-2,0,-9,0,-1,-1,0,0
1533862926228861,-1,-1,-1,-2,-3,-1,-1,0
1533862926228861,-1,-2,5,-6,1,-2,-1,-4
1533862926242839,-1,-1,-2,-2,-4,-1,0,-1
1533862926242839,-2,-1,-6,3,0,-1,-2,0
1533862926243821,-1,1,-7,-3,-2,-3,0,-2
1533862926243821,-2,-4,-7,3,2,0,5,-2
1533862926264772,-1,-4,2,-1,-3,-4,-10,0
1533862926264772,1,1,-12,-5,-1,2,4,0
1533862926266761,-4,3,-10,1,3,2,-2,2
1533862926266761,-1,1,4,-1,1,2,-4,0
1533862926287753,-3,-3,-8,-5,-4,-1,0,-3
1533862926287753,-5,-1,3,5,-2,-4,-3,0
1533862926288702,-1,-7,-1,-4,-6,-2,-1,-5
1533862926288702,-1,7,2,-1,-3,-4,1,-1
1533862926301863,-2,-2,-19,-1,-2,-2,-1,-1
1533862926301863,1,-2,3,0,1,-2,1,-2
1533862926308652,1,0,-12,-1,0,0,4,0
1533862926308652,0,-5,3,8,-3,-2,-3,-1
1533862926325669,-12,-1,11,7,1,1,1,-1
1533862926325669,7,1,-13,-11,2,3,6,3
1533862926326601,2,2,-13,8,-8,-4,-7,-1
1533862926326601,0,0,-5,-1,-1,-5,-6,-5
1533862926347543,-2,-2,-4,-38,-10,-1,3,-4
1533862926347543,-6,2,-4,8,2,-4,-3,-3
1533862926349556,-3,-5,-7,-9,-5,-6,-4,-3
1533862926349556,-3,-2,-5,18,10,8,11,4
1533862926361510,2,1,-21,9,14,-1,0,4
1533862926361510,-3,-3,-14,-17,-9,-1,-7,-1
1533862926368488,1,1,4,5,7,4,3,0
1533862926368488,-2,0,-9,-6,-15,-2,-3,-5
1533862926385609,2,1,16,1,3,7,6,0
1533862926385609,-1,-1,4,3,-1,-2,0,0
1533862926386440,-1,1,3,0,-1,1,-7,2
1533862926386440,0,-5,1,-8,2,-4,-3,-2
1533862926407413,4,1,7,2,-2,-2,-2,-3
1533862926407413,2,-1,6,3,0,0,0,-3
1533862926409411,-2,-5,9,4,0,1,2,0
1533862926409411,0,12,2,-4,-4,-7,-9,-9
1533862926421350,1,-11,-31,7,3,4,1,7
1533862926421350,-2,-1,1,4,2,1,3,1
1533862926428331,-3,-4,-8,1,3,-1,2,0
1533862926428331,-1,0,1,-13,-4,0,1,3
1533862926445283,-6,-1,-4,-6,-5,-9,0,11
1533862926445283,2,2,-14,-2,-7,-4,-10,-28
1533862926446280,4,3,-1,-3,3,2,4,2
1533862926446280,1,-3,-5,3,0,0,-10,-3
1533862926467228,-1,3,4,5,-3,-1,-2,-3
1533862926467228,-3,-5,-4,-8,2,0,3,13
1533862926469220,-4,1,-11,-16,-5,-4,-3,-13
1533862926469220,-2,-4,-8,-5,-4,-2,1,0
1533862926482205,4,1,23,16,6,4,-1,-3
1533862926482205,-2,-2,-4,0,1,-4,-6,1
1533862926489313,-2,0,-1,8,4,-1,-4,-1
1533862926489313,-4,-5,1,-4,2,0,5,5
1533862926505317,-2,-3,3,-5,-13,-5,-7,-8
1533862926505317,2,0,12,6,-4,-2,-1,-1
1533862926507117,1,3,15,4,16,6,4,9
1533862926507117,-1,-5,-13,-3,2,-2,1,-1
1533862926528188,0,2,4,-4,-8,-5,0,-2
1533862926528188,-3,0,0,-10,-15,-5,0,-1
1533862926529060,-1,-1,1,5,3,0,2,1
1533862926529060,2,1,3,10,8,2,-10,3
1533862926542025,-1,0,-20,-4,-7,-7,-3,-4
1533862926542025,-3,-2,-8,-3,0,-2,-3,0
1533862926549014,-1,-2,-3,0,8,1,-1,-4
1533862926549014,0,-2,-5,-1,3,-8,1,-2
1533862926564963,-2,-3,3,-13,-42,-9,-1,-1
1533862926564963,-1,0,11,17,22,5,-4,1
1533862926566958,-1,-3,-10,-22,-40,-7,1,0
1533862926566958,-1,-2,21,5,13,6,1,0
1533862926587901,0,-4,0,-4,12,-3,-1,-5
1533862926587901,0,-1,-5,0,-7,0,3,1
1533862926588899,0,0,12,0,10,0,-9,1
1533862926588899,-1,-2,-3,-6,-9,-7,-3,-6
1533862926602061,-1,-2,-3,0,5,2,3,-2
1533862926602061,0,0,12,4,5,-1,-3,0
1533862926608851,-1,-4,2,6,5,-4,-2,-3
1533862926608851,-2,-1,-9,-6,-22,-2,-1,-2
1533862926632780,1,4,16,1,0,1,-4,-1
1533862926632780,-1,-2,-9,-3,20,-4,0,-6
1533862926633778,-2,-1,-16,-6,-11,-4,1,2
1533862926633778,-2,-2,5,4,-8,-4,1,-3
1533862926647741,1,1,7,11,8,3,2,-2
1533862926647741,3,1,0,1,-5,1,-2,11
1533862926648740,-6,-3,-10,-4,-1,0,0,-6
1533862926648740,-2,0,-1,-10,3,-1,2,0
1533862926661704,-3,-2,-13,-2,-2,2,-8,-2
1533862926661704,0,-1,-7,-6,-2,3,1,2
1533862926669689,2,-2,0,3,-3,-6,-5,-3
1533862926669689,1,-1,4,8,5,2,0,3
1533862926684882,0,-1,1,1,8,8,5,-1
1533862926684882,-3,-2,-6,-3,-7,-3,-3,-4
1533862926686873,-8,-1,-7,1,-9,-2,1,-2
1533862926686873,1,-3,-3,4,-4,-5,-5,-4
1533862926707820,-10,1,8,4,17,0,2,0
1533862926707820,7,-1,-17,-9,-18,-1,0,1
1533862926713804,1,1,-1,-7,-26,-6,2,2
1533862926713804,0,-3,-7,4,3,3,-1,1
1533862926720786,-1,2,-2,-4,2,-6,-3,-2
1533862926720786,-3,-3,8,9,16,11,2,-1
1533862926729761,-4,-5,-18,-2,1,-4,-3,-3
1533862926729761,-1,1,-2,-3,4,2,-2,4
1533862926752697,0,0,2,5,-2,-2,-2,-3
1533862926752697,-5,0,-4,-3,-3,-4,-6,-4
1533862926753694,4,1,-1,-3,8,2,1,-1
1533862926753694,-5,-3,-5,1,-10,-3,3,-2
1533862926767660,2,-3,-5,-2,5,0,-6,1
1533862926767660,-1,1,7,-1,-18,-8,0,-4
1533862926769662,-3,-4,0,-4,16,8,-2,-2
1533862926769662,1,-1,1,-2,23,3,2,-2
1533862926781620,0,-1,-9,-5,-25,-12,-3,-1
1533862926781620,-4,-2,-14,-15,-44,-8,-1,-1
1533862926790595,1,0,17,17,26,6,0,-1
1533862926790595,-5,-3,-20,-16,-46,-12,-3,-3
1533862926804593,1,-2,-14,-4,15,2,-2,-3
1533862926804593,-2,-3,-4,-1,11,-1,0,-2
1533862926806553,1,1,2,-4,5,1,-2,-2
1533862926806553,-1,-2,6,1,-6,1,1,1
1533862926827500,0,-1,-4,-2,-4,0,0,1
1533862926827500,-1,-3,-25,-7,1,-3,-2,-2
1533862926829491,1,-1,-13,-9,0,-1,-3,-2
1533862926829491,-1,1,6,2,11,0,-5,-2
1533862926841463,0,-2,-6,3,-1,-1,5,0
1533862926841463,1,-1,6,7,8,4,-7,1
1533862926850436,0,-2,-2,0,-1,2,3,2
1533862926850436,-3,-2,-14,-3,2,1,0,-2
1533862926865395,-1,0,-11,-6,-6,-3,-6,-2
1533862926865395,1,2,1,3,8,-5,3,-1
1533862926866393,0,1,4,-1,-6,0,-1,-1
1533862926866393,0,-1,-11,-11,-34,-9,-2,2
1533862926887336,0,0,7,17,16,0,0,0
1533862926887336,-3,-4,-1,8,11,2,1,-1
1533862926887336,-2,-1,3,-19,-10,-9,-6,-1
1533862926887336,0,2,3,6,8,2,3,0
1533862926909470,-1,0,2,-4,-1,2,-2,-3
1533862926909470,-2,1,6,4,5,-4,-6,-5
1533862926910275,-2,-2,-9,6,-19,-6,-6,-2
1533862926910275,-1,-2,-4,3,24,5,0,-4
1533862926924241,0,-1,10,5,1,-1,-8,-1
1533862926924241,-2,-3,3,-1,-9,3,1,1
1533862926925235,-1,0,4,2,-1,-2,1,5
1533862926925235,-2,-2,1,-7,-11,-6,-3,-2
1533862926947177,-1,-1,5,0,-7,0,-1,-4
1533862926947177,-1,-1,3,-5,8,-5,-10,-2
1533862926948189,1,-1,11,-4,-9,0,3,0
1533862926948189,-2,-3,4,2,4,-3,-4,-1
1533862926969122,1,0,5,-5,1,-3,2,1
1533862926969122,-2,-1,12,-6,-6,0,-1,-1
1533862926970138,-1,-4,5,-6,3,-5,-2,-3
1533862926970138,-2,2,15,6,-16,2,-1,0
1533862926984418,-1,-1,-7,-13,7,-6,-1,-3
1533862926984418,-2,0,-8,-10,-24,-1,1,1
1533862926985413,-1,-3,8,6,10,-4,-3,-1
1533862926985413,0,-2,3,3,7,2,4,-2
1533862927007356,-2,-1,-14,-8,-10,-7,-9,0
1533862927007356,-2,0,-1,5,6,0,-6,-4
1533862927007356,-1,0,-3,0,-6,2,7,5
1533862927007356,-2,-1,-3,-15,-8,-3,-3,-1
1533862927029441,-3,-2,-12,-4,4,4,4,0
1533862927029441,-1,-1,-5,3,11,1,7,0
1533862927030293,-2,0,5,-5,-1,-3,-14,-5
1533862927030293,2,0,-3,-1,-32,-9,-2,-1
1533862927044258,-2,-2,-4,0,-8,1,-1,0
1533862927044258,-2,-3,-10,-4,4,2,6,-1
1533862927045253,0,0,6,7,9,3,6,2
1533862927045253,-1,-2,2,3,12,-1,-2,-2
1533862927067195,-1,-1,-7,-3,-6,-5,-4,1
1533862927067195,-2,-2,-5,2,-3,-3,-1,-3
1533862927067195,0,0,8,-1,-1,-2,-1,-4
1533862927067195,2,0,-8,-2,13,6,-1,2
1533862927089138,-2,-3,-6,-4,-5,2,9,0
1533862927089138,-2,-1,2,2,4,-3,1,0
1533862927090138,-3,-1,-14,0,-4,-4,-3,-1
1533862927090138,-2,-3,-8,-3,0,-4,-4,-3
1533862927113186,0,2,-5,1,1,6,-4,0
1533862927113186,-1,-2,-10,0,0,-1,-1,-5
1533862927113186,0,-3,-10,3,-10,-2,6,-1
1533862927113186,-4,-4,-17,-16,-1,-9,-12,-7
1533862927127037,0,-2,2,0,3,5,-1,1
1533862927127037,-1,0,-5,-5,-6,1,-3,0
1533862927128031,-4,0,-3,3,-3,-1,-3,-5
1533862927128031,-2,0,-9,2,10,0,11,1
1533862927149972,-2,1,-4,-3,-5,-9,-7,0
1533862927149972,-4,-1,0,-7,-9,-7,-2,-3
1533862927149972,0,-1,3,-2,9,-2,-3,1
1533862927149972,1,-1,3,4,0,-2,0,-3
1533862927163935,0,1,-2,1,2,-4,2,1
1533862927163935,-1,-1,-4,2,-2,2,-3,2
1533862927164933,-2,0,-13,-1,-5,-1,-1,0
1533862927164933,-2,0,-9,-1,4,2,-5,0
1533862927186879,4,-1,9,6,-3,0,-3,-6
1533862927186879,-1,-1,-6,-3,5,3,3,8
1533862927187892,-4,-3,-11,-6,-3,-4,-7,-12
1533862927187892,-2,-1,3,9,0,1,2,-1
1533862927210024,0,-2,-11,-1,6,3,-3,-1
1533862927210024,0,0,3,0,-3,-4,-5,-1
1533862927210024,1,-1,10,6,1,0,-1,1
1533862927210024,-1,0,5,-1,-2,0,-1,-1
1533862927224778,-3,-2,1,-12,1,0,6,7
1533862927224778,-2,-1,-7,-1,-4,-3,1,-2
1533862927224778,0,-1,3,-1,-3,0,-4,-1
1533862927224778,1,-2,0,3,6,1,-3,-5
1533862927246717,-3,-2,-6,-8,-13,-3,-3,-4
1533862927246717,1,-2,-9,1,-4,6,1,0
1533862927247721,1,3,-1,1,15,-2,-7,4
1533862927247721,-1,-4,-2,-8,-14,6,3,4
1533862927277828,-5,-6,-7,-1,-8,-6,1,-10
1533862927277828,1,-2,-7,-2,2,-1,0,1
1533862927278655,-2,-3,3,-2,-3,-4,-4,0
1533862927278655,2,3,4,5,12,7,-8,4
1533862927283641,-4,-1,-9,1,0,-5,-5,-4
1533862927283641,-3,-4,-1,-5,1,-9,0,-7
1533862927291603,1,2,5,0,-14,3,9,1
1533862927291603,-3,-1,0,-3,6,-8,-12,-1
1533862927307550,-1,0,2,-8,-1,3,6,4
1533862927307550,-3,-1,12,-5,-22,-4,-3,-3
1533862927307550,-3,-3,5,-4,1,0,-1,-4
1533862927307550,0,-3,-7,-11,-8,-1,3,0
1533862927329545,1,-2,1,6,5,0,-3,-1
1533862927329545,2,0,17,0,10,2,-5,-2
1533862927330491,1,-1,-8,0,-13,-2,3,1
1533862927330491,0,1,15,1,0,0,3,-2
1533862927344453,0,-1,-4,-3,1,-2,1,0
1533862927344453,1,0,8,2,0,-3,1,1
1533862927345449,-1,-1,-4,0,-2,-1,-2,-2
1533862927345449,0,2,8,1,5,1,3,3
1533862927366397,2,0,5,5,1,1,2,2
1533862927366397,2,-3,-6,-15,-4,-4,-3,-1
1533862927367391,0,-1,0,-2,4,2,0,2
1533862927367391,-1,-1,-2,2,-1,-1,4,0
1533862927389332,-3,0,5,-2,-5,-2,0,-2
1533862927389332,-1,1,15,1,3,-1,-5,-6
1533862927390329,-2,-3,2,-2,4,5,11,6
1533862927390329,-5,-1,2,0,-6,-4,3,-2
1533862927404422,-3,0,-6,0,-4,-2,-2,0
1533862927404422,-4,-2,-10,-3,-4,0,2,-3
1533862927405291,-2,0,20,-4,2,-3,2,-5
1533862927405291,0,1,3,5,4,-1,-10,-1
1533862927427234,-1,1,-7,4,-13,-2,-6,-2
1533862927427234,-1,2,-6,-1,14,0,1,2
1533862927427234,-3,-2,-8,-3,-12,-3,-1,-2
1533862927427234,-2,-3,-17,0,1,-1,1,-3
1533862927449178,0,-2,-16,-1,0,-1,-3,-3
1533862927449178,-1,-2,-20,2,1,0,1,0
1533862927450169,-1,3,-8,3,7,0,-4,0
1533862927450169,-1,5,-4,1,-5,1,-1,-1
1533862927464132,-4,3,-1,-8,-11,-4,-4,0
1533862927464132,-3,2,0,-2,-4,0,0,0
1533862927472198,-1,-2,5,-2,-1,-4,-3,-1
1533862927472198,-2,-5,10,-3,7,0,-1,-2
1533862927487263,-1,-3,5,-1,2,2,1,-1
1533862927487263,0,-4,7,7,-1,-1,-1,0
1533862927488094,-4,-6,-16,4,2,-3,-9,-4
1533862927488094,1,-2,-3,-9,-3,-1,1,-2
1533862927509015,-1,-1,-8,-5,1,-1,-1,-2
1533862927509015,-1,2,3,-11,-1,-3,-1,-1
1533862927510031,-3,-4,-19,4,-4,-2,-6,-6
1533862927510031,0,-5,-15,-2,-7,-4,5,2
1533862927523972,-1,-5,-8,5,7,3,0,2
1533862927523972,-2,-3,5,-1,0,-2,4,5
1533862927531950,-1,-2,-6,1,-3,-1,-2,1
1533862927531950,-2,-3,3,-1,-1,-3,0,-1
1533862927546914,-1,-1,7,-4,-1,-1,-2,-3
1533862927546914,0,-2,-7,5,-1,3,0,-3
1533862927547909,1,-3,-22,-6,-2,1,0,-1
1533862927547909,-1,-3,-5,1,-2,0,-5,-2
1533862927569854,1,1,-3,-3,4,1,1,-1
1533862927569854,-1,1,-21,-3,-10,-5,-2,-2
1533862927569854,1,0,-9,14,-3,-5,-2,0
1533862927569854,-1,-3,-12,-24,5,-1,-4,-2
1533862927584813,-3,-3,2,12,-6,-3,-1,-1
1533862927584813,-3,-4,-11,10,1,-1,-1,-4
1533862927584813,-2,2,-3,-5,-3,4,0,-2
1533862927584813,-2,0,-4,-28,-10,-4,1,0
1533862927607747,0,0,0,4,3,-4,-7,-6
1533862927607747,0,-2,-12,17,1,0,0,1
1533862927607747,0,-1,-10,-4,6,-2,-1,1
1533862927607747,0,1,9,33,2,3,2,-2
1533862927629688,1,3,-6,-17,1,0,-2,-1
1533862927629688,0,1,-17,-16,-3,-5,-2,1
1533862927629688,0,2,0,3,0,-5,-3,-4
1533862927629688,2,1,-7,-2,5,5,-3,13
1533862927644686,-1,-1,-19,9,-1,-3,9,-8
1533862927644686,-3,-4,11,7,4,-3,-6,-3
1533862927645648,-2,-5,-6,-4,-2,-1,0,-1
1533862927645648,-1,-1,-3,3,-3,-2,-1,-2
1533862927666607,1,0,2,-28,-3,-1,-1,2
1533862927666607,0,-3,-7,27,-3,-1,-3,-3
1533862927667600,-3,-4,-8,0,-8,-4,-3,-2
1533862927667600,-2,-4,-1,-10,3,-6,-7,-7
1533862927697521,-1,1,22,7,3,3,1,1
1533862927697521,-3,-5,-13,-34,-17,2,4,-1
1533862927698506,2,-1,6,9,4,1,-11,-4
1533862927698506,-3,-2,-10,11,-10,-6,-1,-3
1533862927703493,1,-1,-6,4,15,0,2,3
1533862927703493,0,3,8,-15,-1,-1,-2,1
1533862927711471,-2,0,8,-16,-6,-3,-1,-3
1533862927711471,-3,-4,-17,4,-5,-8,-7,-4
1533862927735410,0,-2,5,-9,-1,-1,-9,1
1533862927735410,1,-1,5,2,-2,0,1,4
1533862927735410,-1,-1,-10,-7,3,4,4,-7
1533862927735410,-1,2,1,0,3,1,-5,-3
1533862927749369,-2,-2,-13,12,-5,-3,-2,2
1533862927749369,0,-1,8,0,2,0,0,0
1533862927750400,-3,0,0,-8,-3,0,1,2
1533862927750400,0,1,14,6,2,5,4,0
1533862927763527,-2,-4,-25,-5,-7,-4,-1,-3
1533862927763527,0,-2,7,1,3,2,-3,-5
1533862927772311,0,-1,4,-4,-5,-1,4,3
1533862927772311,-1,-1,7,14,4,1,-4,-2
1533862927787468,-1,-1,3,-4,1,4,1,5
1533862927787468,-4,2,19,-2,0,-5,-4,-2
1533862927787468,-1,0,-5,4,4,0,-1,1
1533862927787468,-3,-3,-14,-1,-8,-5,-3,-6
1533862927809226,0,-1,-11,-15,-9,-1,1,0
1533862927809226,1,0,-8,3,2,-2,-5,1
1533862927810222,-1,-1,-7,-11,0,-1,0,3
1533862927810222,-1,0,0,16,0,3,2,-1
1533862927824309,-1,-3,-9,-19,-3,-7,-5,-6
1533862927824309,-2,0,6,1,-2,1,2,-1
1533862927832417,-2,-2,-8,-4,-2,-3,0,-1
1533862927832417,0,0,-3,3,1,-5,0,-1
1533862927846380,-2,0,-2,10,1,1,-3,-11
1533862927846380,2,1,2,1,5,-2,-2,0
1533862927847377,0,-2,-11,6,-3,-5,-3,-1
1533862927847377,-1,-1,7,-7,-3,-1,1,-2
1533862927869322,-2,-3,-2,10,-5,-4,-1,0
1533862927869322,0,-1,-8,-5,-1,-1,6,-3
1533862927870316,1,0,-3,-1,10,4,-14,6
1533862927870316,-3,-3,-34,-9,-5,-1,-4,-3
1533862927892261,-1,1,2,1,4,3,1,3
1533862927892261,-2,-2,-8,-3,9,-6,0,-5
1533862927893270,-1,1,0,-5,-26,-12,5,-3
1533862927893270,1,1,12,3,2,-1,-6,1
1533862927907221,-2,-1,-20,-6,-1,3,-1,5
1533862927907221,-1,0,-4,2,0,-4,-1,1
1533862927907221,0,1,-1,2,8,3,0,-1
1533862927907221,-3,-4,1,-14,-7,-1,4,0
1533862927929194,-1,-2,-6,-2,-11,-7,-6,-3
1533862927929194,-1,-4,-12,1,2,1,-1,-7
1533862927930161,1,-1,5,0,3,-3,1,3
1533862927930161,0,2,-7,3,8,4,3,0
1533862927945116,-1,0,2,4,-5,0,-1,-2
1533862927945116,2,0,-6,-7,-1,1,-2,-2
1533862927952315,-1,2,-2,3,-3,-5,0,-7
1533862927952315,-1,-2,0,0,2,0,4,2
1533862927983018,-1,-1,-22,5,4,1,1,0
1533862927983018,-2,-4,-10,-25,-12,-5,-3,-2
1533862927983018,-1,-2,-11,-6,-2,-2,1,-7
1533862927983018,2,2,-2,3,3,9,3,9
1533862927989000,-2,2,20,2,6,-5,-3,0
1533862927989000,-3,-1,-7,9,-2,-4,-2,-3
1533862927989996,-3,-4,-5,-4,-2,0,-2,-2
1533862927989996,-1,-5,-1,-5,10,-6,-5,-7
1533862928004101,0,0,7,-4,-22,-4,0,-1
1533862928004101,1,-1,1,2,-2,8,-1,7
1533862928019919,0,-2,-6,1,-2,-1,-1,2
1533862928019919,-1,1,-6,-8,-13,-5,-2,-3
1533862928026900,-1,0,-6,2,5,-2,1,-4
1533862928026900,0,0,-16,3,5,1,6,2
1533862928027895,-2,2,-3,0,0,3,-6,2
1533862928027895,0,-2,-9,-1,2,-4,-5,-2
1533862928049839,-1,0,-5,6,16,-4,-4,-3
1533862928049839,-1,-3,-14,-4,1,0,-3,-3
1533862928049839,-2,-1,3,-2,-6,0,1,-1
1533862928049839,-2,-2,-4,-5,0,3,0,3
1533862928072778,-2,-3,2,-11,-11,-5,-1,0
1533862928072778,-1,-1,6,1,12,0,-3,-4
1533862928073772,3,-1,-2,-2,8,-1,1,0
1533862928073772,-3,-1,0,10,-16,-8,-2,-3
1533862928086737,-2,-2,-3,-28,-10,0,2,1
1533862928086737,-2,-2,2,0,6,1,-2,0
1533862928087735,0,-2,-6,-11,-1,0,-1,1
1533862928087735,0,2,-6,2,7,2,-3,4
1533862928109675,-1,-3,-3,11,1,-1,-3,-2
1533862928109675,-7,-1,3,3,-12,-6,-3,-8
1533862928109675,0,0,2,-2,7,1,0,4
1533862928109675,0,0,-3,0,3,-2,2,-1
1533862928132615,-3,0,-9,7,-4,-2,-1,-1
1533862928132615,0,-1,-2,-10,-3,-1,-5,0
1533862928133612,1,-1,3,10,4,2,1,-3
1533862928133612,-1,1,-14,-14,-5,0,2,-2
1533862928146581,-1,0,-17,7,-6,0,0,0
1533862928146581,-2,-2,-8,1,6,-2,-2,-2
1533862928147586,-3,-2,-10,-8,-14,-2,-1,-2
1533862928147586,0,-3,-5,-4,5,0,-4,0
1533862928169519,2,1,-8,15,13,1,0,0
1533862928169519,2,0,-1,-34,-13,0,3,4
1533862928170514,-2,-2,-18,3,-2,-2,-3,-1
1533862928170514,-2,-2,-3,1,-8,-4,-2,-3
1533862928192490,-1,-1,7,3,7,0,-1,0
1533862928192490,1,2,20,18,-4,-2,-4,2
1533862928193484,-2,-1,-6,-5,7,-2,0,-4
1533862928193484,0,0,-1,-2,-2,-1,3,-3
1533862928207526,0,0,-5,-2,6,0,-5,-3
1533862928207526,-1,-2,1,10,-10,-4,-1,0
1533862928207526,-2,-4,4,-9,-7,0,0,0
1533862928207526,-2,-2,-4,1,2,-1,1,-1
1533862928229392,0,-1,-3,-5,0,1,1,-1
1533862928229392,-2,-3,-5,1,1,-3,-5,-3
1533862928230386,0,6,0,4,-11,-4,-1,2
1533862928230386,0,-14,-2,-2,4,4,-2,-1
1533862928260311,0,2,-8,-10,-9,0,-2,-1
1533862928260311,-1,0,7,2,-4,1,2,2
1533862928261316,-1,0,1,17,15,0,-2,-4
1533862928261316,-1,-1,-10,-18,-20,-7,-2,-3
1533862928267290,-1,1,-3,-1,6,0,4,1
1533862928267290,-4,-5,-34,-1,-13,-4,-2,-2
1533862928267290,0,2,32,5,-5,-2,0,-2
1533862928267290,-2,-1,-2,-1,11,-3,-2,-1
1533862928289232,-2,-4,4,-3,-13,-9,-3,-7
1533862928289232,1,2,-11,-5,13,6,-4,3
1533862928290225,-1,-2,-12,-5,2,1,3,4
1533862928290225,-2,0,-9,5,-1,-1,-3,-3
1533862928313164,-2,-3,1,2,-5,-6,0,0
1533862928313164,0,-1,-10,-3,-6,-5,1,1
1533862928313164,-1,-1,-11,-6,12,-2,-2,-3
1533862928313164,0,1,5,6,-11,-1,0,0
1533862928327130,-1,-3,-2,2,8,3,0,-1
1533862928327130,-2,-2,-11,-6,-10,-2,-1,-1
1533862928328124,0,-3,-5,-3,-7,0,0,0
1533862928328124,-1,2,-5,-1,1,-2,-2,0
1533862928358048,-2,0,-5,-12,1,3,-3,-2
1533862928358048,-1,0,1,4,1,-3,-3,-1
1533862928358048,-3,0,-7,-2,-5,-4,-2,-3
1533862928358048,-1,-2,5,2,11,-1,-1,0
1533862928373024,0,-4,-18,2,-4,-2,0,0
1533862928373024,1,-2,-2,1,0,0,1,0
1533862928373024,-2,-6,-19,-7,-7,-3,-4,-5
1533862928373024,-3,4,-2,6,-7,-2,0,1
1533862928386967,0,-2,21,-3,21,4,1,1
1533862928386967,-4,1,-6,-1,-11,-5,0,-4
1533862928387964,0,-1,-4,-2,-6,-3,-4,-2
1533862928387964,-1,0,6,-10,3,3,0,0
1533862928409909,0,0,-18,0,-2,0,0,1
1533862928409909,0,-2,9,5,6,2,-3,-2
1533862928416898,-1,-5,-7,-6,-3,1,-2,-1
1533862928416898,-1,-3,-17,-4,-2,-3,-3,-2
1533862928432844,1,2,29,7,-2,-3,0,1
1533862928432844,-1,1,0,0,7,0,-1,-1
1533862928433858,-3,-2,-4,5,-1,-4,1,-2
1533862928433858,1,-1,10,-10,-1,2,-1,0
1533862928446810,-1,1,-3,-2,-7,0,-2,0
1533862928446810,-2,-1,-13,-8,-8,0,-2,0
1533862928447819,-2,-1,4,-18,9,1,2,0
1533862928447819,-1,6,-20,-4,-14,-4,-1,-3
1533862928469749,-1,-6,-4,8,-3,-5,1,0
1533862928469749,1,-1,9,-4,-3,0,-2,-4
1533862928469749,-1,-4,-3,10,12,-2,-2,3
1533862928469749,-2,1,1,1,5,6,2,2
1533862928500698,-3,0,0,-4,2,-2,-1,-2
1533862928500698,-2,-2,-2,4,-15,-5,-2,0
1533862928500698,-2,1,14,6,-3,-3,-2,-2
1533862928500698,-1,-4,1,0,0,-5,-3,-5
1533862928506844,0,0,-17,-3,-2,2,-1,0
1533862928506844,-3,-2,-9,-1,5,1,-2,0
1533862928507653,-2,0,-7,-3,-4,0,2,0
1533862928507653,-2,-3,-8,2,1,-1,2,1
1533862928545546,-2,-2,-19,1,-6,-1,-3,-2
1533862928545546,-1,-1,-8,0,5,0,-2,0
1533862928545546,1,0,-15,-5,-7,-1,0,-1
1533862928545546,0,-2,-6,4,2,-3,-3,-3
1533862928552528,-2,-2,-25,-7,-2,-4,-1,-4
1533862928552528,0,0,4,2,1,0,0,-3
1533862928553530,-2,-1,-7,0,-7,2,5,0
1533862928553530,0,-4,-11,-7,2,-3,-3,-2
1533862928566487,-2,-2,6,4,-4,-2,-4,-1
1533862928566487,0,-1,-4,5,5,0,-1,-1
1533862928574465,0,-1,0,-3,-3,-2,1,6
1533862928574465,-6,0,-6,-2,2,1,1,-3
1533862928589425,-3,0,-2,-3,-4,-4,-2,-3
1533862928589425,-3,-2,1,5,1,-4,-4,-3
1533862928590423,2,1,-6,3,0,1,-2,1
1533862928590423,-1,-1,-5,-1,-2,-2,2,1
1533862928612367,1,1,-7,-2,-1,1,-2,-1
1533862928612367,1,0,-1,-7,1,1,1,-1
1533862928613361,-1,0,3,3,-2,0,-7,-5
1533862928613361,0,-2,4,4,-4,0,-3,-3
1533862928627329,0,-2,-22,-13,-5,-2,-3,-1
1533862928627329,0,-3,6,2,-1,2,7,6
1533862928627329,-2,-2,-4,1,2,2,-2,0
1533862928627329,-1,0,2,2,-1,-4,-4,-5
1533862928649265,1,-3,-5,1,2,0,5,0
1533862928649265,0,-3,5,4,-1,-4,-2,-4
1533862928650263,-2,-4,-7,3,-4,-3,-1,-1
1533862928650263,-1,0,-7,-4,1,3,-1,1
1533862928672404,2,4,3,14,-3,2,-7,-1
1533862928672404,-2,5,-13,9,-2,-1,2,1
1533862928673236,-1,0,2,15,-3,-5,0,-2
1533862928673236,1,3,4,0,2,1,0,0
1533862928695257,-1,-6,3,-32,-5,-2,2,1
1533862928695257,1,-4,-12,-14,-4,1,-3,0
1533862928696140,-4,-5,2,4,-3,-1,-3,-3
1533862928696140,0,-3,-8,-4,4,0,4,2
1533862928709226,-3,-1,-5,-16,4,0,-6,1
1533862928709226,-1,0,-7,-5,2,3,7,-2
1533862928710117,-1,-1,-16,-15,-2,-5,-4,-5
1533862928710117,-5,0,-8,13,-6,-3,-6,-3
1533862928733045,2,0,-3,15,2,-1,4,-5
1533862928733045,-1,0,-13,-32,-3,-4,-8,-10
1533862928733045,8,5,0,-2,-2,3,9,9
1533862928733045,-5,-3,-14,-6,-2,-5,-13,-12
1533862928746010,-2,1,-4,2,0,-1,-4,2
1533862928746010,-6,-2,-8,15,1,-3,-3,-18
1533862928753988,-1,1,0,0,5,-1,4,1
1533862928753988,0,-4,-10,-16,-5,-6,-3,0
1533862928769946,-2,-2,-18,14,1,-3,-1,-1
1533862928769946,0,-3,-5,0,-1,-3,0,5
1533862928769946,-3,0,-5,3,4,2,-4,-3
1533862928769946,0,0,2,0,-3,0,5,3
1533862928792885,-2,2,11,-5,2,0,-5,-1
1533862928792885,2,2,2,7,2,0,-2,4
1533862928792885,-2,-3,-14,-15,-4,-3,-4,-3
1533862928792885,-2,-1,0,5,5,-4,-3,1
1533862928806863,0,-2,-1,-1,-16,-2,4,-1
1533862928806863,-1,-2,7,-1,-5,3,2,3
1533862928821807,-2,-3,5,0,-6,-1,-4,-3
1533862928821807,0,-2,4,-8,-2,-1,3,-1
1533862928829786,-2,0,-5,3,15,2,-1,-4
1533862928829786,-2,-1,0,1,-3,-4,-4,2
1533862928829786,-1,-3,3,-2,-8,-4,-3,-3
1533862928829786,-1,-3,9,-1,1,1,-1,-1
1533862928852724,0,1,12,-2,-11,-2,1,1
1533862928852724,-3,-3,3,3,5,0,-1,0
1533862928853719,-1,1,16,0,29,8,0,0
1533862928853719,-11,1,-2,-5,-6,-8,1,-4
1533862928866687,5,-1,-10,0,-29,-5,-1,3
1533862928866687,-10,-1,5,-7,-12,-1,-1,-2
1533862928874666,7,-1,-11,-3,-7,0,-2,-2
1533862928874666,4,0,-4,5,-2,2,0,0
1533862928889639,-4,-2,9,1,19,1,-1,-8
1533862928889639,-2,0,-10,-4,-6,-4,-1,0
1533862928890633,-4,-3,-9,-1,-2,-4,1,4
1533862928890633,1,-1,-1,2,6,1,-1,-2
1533862928912980,3,-2,-6,-2,-1,-2,-1,1
1533862928912980,2,-3,1,1,6,-1,0,0
1533862928913820,-4,1,-1,0,2,-2,0,-4
1533862928913820,4,0,-13,0,-5,0,0,3
1533862928926785,-10,-1,-14,1,-3,-2,0,1
