timestamp,emg1,emg2,emg3,emg4,emg5,emg6,emg7,emg8
1533862083601808,6,0,1,2,-4,-2,1,0
1533862083601808,4,1,1,5,-2,1,-3,3
1533862083602806,-10,-2,-3,-10,1,-3,1,-1
1533862083602806,-1,-2,-1,-3,-5,0,-1,0
1533862083603803,7,1,0,-6,-1,3,-2,-2
1533862083603803,-8,-3,-3,11,0,-5,-1,-1
1533862083603803,-2,-2,-1,-4,-1,0,-1,-4
1533862083603803,5,0,1,0,-4,1,0,-1
1533862083616779,-6,-1,-4,-3,2,-4,-1,1
1533862083616779,-4,-2,-2,0,7,-4,1,-1
1533862083623751,5,0,0,3,-2,1,-2,0
1533862083623751,-2,-1,-3,-4,-5,-3,-3,-2
1533862083631737,-7,-3,-3,-4,6,-2,-1,-2
1533862083631737,3,1,3,-20,-6,4,1,-1
1533862083644694,2,-2,0,21,-1,0,-1,0
1533862083644694,-7,-3,-3,6,-1,0,-2,-2
1533862083656662,-2,-2,0,7,6,2,1,-2
1533862083656662,4,0,-1,-5,1,0,-2,-1
1533862083668630,-2,1,-2,-12,-12,-4,-1,-2
1533862083668630,0,1,-1,-5,5,1,1,0
1533862083676610,1,0,1,0,-5,0,0,-2
1533862083676610,1,0,0,-8,-3,-3,-1,0
1533862083689573,-2,-3,-4,7,5,-3,-3,-2
1533862083689573,1,-3,-2,6,-1,-2,-4,-3
1533862083730464,-8,-1,-1,2,3,-1,0,-1
1533862083730464,5,1,3,0,-7,-1,1,-1
1533862083731478,1,0,-3,-1,-1,-2,-2,0
1533862083731478,-7,-1,-2,4,5,-3,-1,-3
1533862083732459,1,-3,1,5,6,4,1,-3
1533862083732459,0,-2,-3,-13,-19,-3,-4,-1
1533862083735454,-9,-3,-1,1,3,-4,-1,-1
1533862083735454,-2,-1,1,-5,-3,2,2,0
1533862083742433,7,0,1,0,0,2,0,-1
1533862083742433,-6,0,0,0,8,-2,-2,-2
1533862083750411,-1,-1,-1,0,3,1,1,-2
1533862083750411,3,-3,-1,-7,-6,0,-1,1
1533862083757393,-3,0,-2,2,-2,-5,-4,-1
1533862083757393,-5,-3,-2,1,2,-3,-2,-2
1533862083773350,1,1,1,-2,-4,0,-3,-2
1533862083773350,1,2,0,2,1,0,-2,-2
1533862083779342,-6,-2,-4,-4,-1,-2,-1,0
1533862083779342,-2,-1,0,-1,0,-1,0,-4
1533862083803269,3,3,0,-4,-4,2,-1,-2
1533862083803269,-6,-5,-4,2,1,-5,-4,-4
1533862083803269,-3,-3,1,-5,-9,0,0,0
1533862083803269,2,1,-3,2,1,2,2,1
1533862083817257,-1,-1,-1,-1,-3,-1,0,1
1533862083817257,-2,-1,-1,-3,2,-2,-3,-1
1533862083825217,0,1,-1,-1,1,-2,-2,-3
1533862083825217,0,2,-2,-2,3,0,1,-1
1533862083840171,-3,-4,-3,4,-7,-6,-1,0
1533862083840171,2,-1,0,-10,-3,1,0,-1
1533862083847179,-2,-5,-4,-3,-11,-6,-3,-1
1533862083847179,-3,-2,-2,1,3,-1,-2,0
1533862083863109,-2,-2,-1,0,0,2,2,0
1533862083863109,1,1,1,2,1,-1,1,-2
1533862083864107,-1,-1,0,-3,2,-2,-2,-1
1533862083864107,0,-3,1,1,2,-1,-3,-1
1533862083877075,-1,-2,0,-3,-5,-1,-3,0
1533862083877075,-1,0,-2,0,-3,-3,-1,2
1533862083885054,-2,-1,-2,2,14,-1,-1,0
1533862083885054,-3,-1,-1,4,-6,-1,0,-2
1533862083902005,0,0,0,4,6,2,-3,-3
1533862083902005,-1,-1,-1,-9,-11,0,-1,-3
1533862083906997,1,0,-1,-1,-1,0,-1,-1
1533862083906997,2,1,0,0,-1,0,0,0
1533862083922950,-2,-1,-1,-2,3,-3,-1,-2
1533862083922950,0,-1,-1,2,-1,0,1,-1
1533862083923955,0,0,-2,2,0,-3,0,0
1533862083923955,-2,-4,-3,0,5,-2,-1,-2
1533862083936911,-1,1,-1,-2,-5,-2,-1,0
1533862083936911,-3,-2,-5,-16,-6,-3,-3,-2
1533862083944928,-1,-1,-2,0,-7,0,0,-1
1533862083944928,-1,-1,0,-4,-3,2,0,0
1533862083960851,-1,-2,2,5,10,1,-1,1
1533862083960851,1,-1,3,2,1,1,-1,0
1533862083960851,0,-1,1,-6,-4,-1,-2,-1
1533862083960851,-2,-1,-2,3,1,0,-1,-1
1533862083982802,1,-1,-2,-6,-10,0,-2,-2
1533862083982802,-1,0,-3,-4,5,-1,0,0
1533862083983787,-1,0,1,3,-3,-3,1,-1
1533862083983787,-1,-1,-1,-16,-13,-3,-1,-1
1533862083996752,-2,-2,-1,5,0,-2,0,0
1533862083996752,-1,-1,0,4,-3,-2,-3,-3
1533862084004734,1,1,-2,10,8,3,1,0
1533862084004734,-2,-2,-3,-11,-3,-1,-2,-3
1533862084020692,-3,-1,-4,-11,-6,-2,-1,-2
1533862084020692,-2,-1,-2,-5,3,-1,-1,1
1533862084020692,-2,-1,1,-3,-9,-3,-3,-3
1533862084020692,-1,-1,1,9,7,0,-1,-1
1533862084043630,-3,-4,0,-6,-6,-2,-1,-2
1533862084043630,-2,-1,2,8,2,-2,-1,-2
1533862084044624,0,0,-1,-5,1,1,-1,0
1533862084044624,-1,-1,-3,0,-1,-1,1,-1
1533862084057590,0,-1,-2,0,2,0,-1,0
1533862084057590,-2,-1,-4,2,-2,-1,-2,-2
1533862084064732,-3,-3,-2,-3,-4,-2,-2,0
1533862084064732,-2,0,0,1,-3,-2,-1,-2
1533862084088515,0,0,-2,0,3,2,-1,-2
1533862084088515,0,1,2,5,2,1,2,2
1533862084088515,-1,-2,-2,-4,-9,-2,-2,-2
1533862084088515,-1,-2,-1,-4,4,-4,-4,1
1533862084104464,0,0,3,-3,-8,0,-2,1
1533862084104464,-2,0,-2,4,6,2,2,0
1533862084105461,-2,-3,-7,-12,-7,-3,-1,-2
1533862084105461,-1,0,-1,2,-2,-2,-1,-4
1533862084117429,-1,-1,0,-4,2,-1,0,-2
1533862084117429,0,0,-2,3,3,-1,-3,-1
1533862084124413,-1,0,2,-3,-3,-1,2,-1
1533862084124413,1,-3,-2,5,-10,-1,-2,-1
1533862084140381,-3,-2,-3,3,7,-1,1,1
1533862084140381,0,-1,-1,4,-1,-5,-1,-3
1533862084141365,-1,0,1,-6,-5,-1,-2,-1
1533862084141365,-2,1,-1,-1,1,-1,0,0
1533862084163404,0,-2,-3,-6,-4,-2,-1,-2
1533862084163404,-1,-4,-4,3,1,2,-1,0
1533862084163404,-1,1,-1,-1,6,-2,0,-2
1533862084163404,-1,-2,0,-8,-2,-1,0,-1
1533862084177273,0,-2,-1,5,0,-3,-2,-1
1533862084177273,-3,-3,-2,-3,-6,-1,-2,-2
1533862084184468,-2,-1,0,2,0,1,-4,-2
1533862084184468,-1,-1,-1,1,-1,-1,-4,-2
1533862084200227,0,-1,-1,-5,3,1,0,-2
1533862084200227,1,2,1,-2,-7,-2,-1,0
1533862084201205,-1,-3,-3,7,-1,5,0,-2
1533862084201205,0,-2,-3,10,-3,-3,0,-3
1533862084223146,-3,-2,1,5,-1,0,0,1
1533862084223146,-1,-1,0,-11,-7,1,-1,0
1533862084224155,0,0,0,-6,-1,-2,-2,-1
1533862084224155,0,1,-1,0,2,-2,-2,-1
1533862084237112,0,-2,-2,-6,-4,-1,-1,-2
1533862084237112,1,-1,-1,4,1,-3,0,-1
1533862084253070,-1,0,-2,-1,1,-2,-2,-1
1533862084253070,-2,-3,-1,-5,-3,0,-1,-1
1533862084260051,-2,2,-2,-2,-3,-1,-1,-1
1533862084260051,-2,-1,-2,-5,-2,-1,-1,0
1533862084261051,-1,-2,-1,3,6,-3,-1,-1
1533862084261051,-1,0,-2,-6,-5,-1,0,0
1533862084282990,-1,0,-2,-1,-6,-7,-1,-2
1533862084282990,-2,-1,-2,7,2,-2,-2,-1
1533862084283983,-1,-2,0,-3,3,-1,-1,0
1533862084283983,-2,2,0,-4,1,1,0,-1
1533862084305928,-2,-3,-1,4,0,1,-1,-1
1533862084305928,-3,-2,-2,2,-2,-2,0,1
1533862084305928,1,-1,-2,-2,-2,-2,-3,-2
1533862084305928,0,0,-2,2,3,-2,-3,-1
1533862084319891,-3,-1,-2,-5,1,2,1,-1
1533862084319891,0,-2,-1,-5,-5,-1,1,1
1533862084320885,-2,1,-1,0,-3,0,-1,-1
1533862084320885,-3,0,0,8,3,-1,-2,-2
1533862084342831,-2,-2,0,-15,-7,-2,-2,0
1533862084342831,0,-1,-2,-1,10,-2,-2,-2
1533862084343825,-1,-2,-2,-8,-7,-3,0,1
1533862084343825,0,-3,-2,-2,3,1,2,-2
1533862084365909,-1,-1,-1,8,-2,-3,-2,-2
1533862084365909,-2,0,-1,-3,-5,-1,-2,-1
1533862084366792,-3,-1,-1,3,0,-2,-2,1
1533862084366792,-1,-2,0,-6,-4,0,0,-2
1533862084380939,0,-1,-1,7,5,0,-1,0
1533862084380939,-2,-2,-1,-3,-1,-1,-2,-2
1533862084380939,-1,-1,-1,0,1,0,-1,-2
1533862084380939,-1,-1,-2,2,4,-2,-2,-1
1533862084402669,-2,-2,-2,5,2,0,-1,-2
1533862084402669,-2,-1,-1,-6,-18,-1,-5,-3
1533862084403663,-1,-2,1,-2,0,0,-1,-1
1533862084403663,-1,-1,1,15,10,-1,1,3
1533862084425608,-1,-5,-2,-8,-3,-2,-2,-1
1533862084425608,1,-1,-1,-3,2,-1,2,-1
1533862084426602,0,-2,0,-3,-5,-2,-1,-1
1533862084426602,-2,-4,-3,8,-5,-3,-4,-4
1533862084440567,-2,0,-1,2,4,-2,1,-1
1533862084440567,-1,0,-2,-2,-2,-2,0,-1
1533862084441563,0,0,-1,-3,-4,-2,0,-1
1533862084441563,-1,0,0,-6,-1,-1,-1,0
1533862084462511,-2,0,0,-2,1,2,-1,0
1533862084462511,-1,-2,0,0,-4,1,-1,-1
1533862084463504,0,-2,-1,2,4,-1,0,-2
1533862084463504,0,-3,-1,-9,-4,-1,-2,0
1533862084485479,0,0,-2,-1,-6,0,-2,-2
1533862084485479,-4,0,-3,-3,2,-3,-4,-2
1533862084486443,-2,-2,0,3,9,4,0,0
1533862084486443,-2,-1,-1,-1,-15,1,1,0
1533862084500408,0,-2,0,2,4,-3,-2,-2
1533862084500408,1,0,0,5,4,-2,-2,-4
1533862084501402,-1,-1,-3,0,-6,-3,0,-2
1533862084501402,-2,-1,-2,-8,-2,-1,-4,0
1533862084522349,-4,-1,-3,-5,-3,-4,-1,0
1533862084522349,-1,-2,0,2,3,0,-1,-3
1533862084523344,-1,0,-1,-13,4,-3,-2,-3
1533862084523344,0,-2,-3,7,-18,-4,-1,-2
1533862084545493,-1,-2,-1,-8,-2,-1,-2,-1
1533862084545493,-2,-2,0,-6,1,-3,0,0
1533862084546283,-1,-1,-1,5,0,-1,0,1
1533862084546283,-2,0,1,-4,7,1,-1,-1
1533862084560250,0,0,1,2,-1,0,-3,-1
1533862084560250,-1,-1,-3,-1,-4,0,-2,0
1533862084567229,-1,-2,0,-4,0,0,-1,-3
1533862084567229,0,0,-1,-5,5,0,-2,-4
1533862084583252,0,-1,-1,1,-2,-1,0,-1
1533862084583252,-1,0,1,1,3,-1,-1,-2
1533862084583252,-1,-1,-2,0,-9,-1,-2,-1
1533862084583252,1,-1,-3,-1,-1,-2,0,-1
1533862084605137,0,0,0,-15,2,-2,1,1
1533862084605137,-3,-2,-3,15,-10,-5,-5,0
1533862084606122,-1,-2,1,2,-1,-1,2,1
1533862084606122,-3,-2,-1,-7,2,2,1,-2
1533862084620085,-1,0,-2,8,6,0,0,0
1533862084620085,-2,-1,-3,-8,-4,-2,0,-3
1533862084621083,1,1,-1,14,0,-3,-4,-2
1533862084621083,1,0,-2,-5,4,-4,-2,-2
1533862084643027,0,-2,0,1,-5,0,-2,-4
1533862084643027,-2,0,0,-2,1,0,-3,0
1533862084644036,-4,-1,-2,1,-1,0,-3,-2
1533862084644036,-2,-2,2,-3,0,2,0,0
1533862084664964,0,0,-4,1,-3,-2,-2,-3
1533862084664964,1,-2,-3,-3,0,2,1,0
1533862084665961,-1,-1,-2,-9,1,0,0,-3
1533862084665961,-1,-1,-2,-2,-1,-4,0,-1
1533862084681023,-1,-1,1,12,6,-2,-2,-2
1533862084681023,-2,-2,0,-11,-17,0,1,-1
1533862084681023,-3,-2,-1,6,1,-3,0,-1
1533862084681023,1,-1,0,-1,5,0,0,1
1533862084701870,-5,-3,-2,-7,-2,-2,-1,-1
1533862084701870,-1,0,0,-1,7,3,1,0
1533862084711053,0,-1,-1,-5,-2,-2,-2,-3
1533862084711053,-2,-1,0,0,-6,-4,-4,-2
1533862084725857,1,0,0,10,5,3,3,-1
1533862084725857,0,-3,0,-9,-3,-3,-4,-1
1533862084725857,-1,0,-4,3,-6,-2,-1,0
1533862084725857,-2,1,-4,-2,2,0,-1,-3
1533862084747743,-1,-1,0,-18,-1,-3,-1,-2
1533862084747743,-1,0,-1,1,-2,-2,1,-1
1533862084748740,-2,-2,-2,2,4,0,-2,0
1533862084748740,-1,0,0,-4,-4,-1,-2,0
1533862084762706,1,-1,-2,-5,-5,-2,-1,0
1533862084762706,1,0,-3,4,2,-1,-2,1
1533862084770685,-1,-2,0,-5,-3,-4,-1,0
1533862084770685,-2,-3,-1,-4,-5,-2,-1,-3
1533862084785646,0,0,1,-1,-2,-1,1,-2
1533862084785646,-1,0,0,-9,7,-2,1,-2
1533862084786639,-2,-2,-4,2,-11,1,1,0
1533862084786639,-3,0,-2,4,1,-1,-1,-2
1533862084807583,0,-2,-4,-10,-5,-2,-1,0
1533862084807583,-1,0,4,10,1,-1,0,-1
1533862084808598,1,0,-2,-13,-6,1,0,-2
1533862084808598,-2,-1,-1,12,3,-6,-5,-3
1533862084830556,-3,-2,-3,-21,-15,1,0,-2
1533862084830556,0,1,3,10,3,3,2,0
1533862084831548,-2,-1,-1,-1,0,-3,-3,-2
1533862084831548,0,1,0,9,8,4,1,2
1533862084845485,-1,-2,-3,-13,-14,-3,-3,-1
1533862084845485,-2,-4,-5,-13,-5,-5,-4,-5
1533862084846479,-2,-1,1,4,4,-2,-1,-1
1533862084846479,1,-1,0,-4,1,2,3,-1
1533862084868424,-1,3,1,12,3,0,-3,1
1533862084868424,-2,-1,-2,-2,0,-1,0,0
1533862084868424,-3,-3,-2,-10,-2,-6,-2,-2
1533862084868424,-2,-3,-3,-4,-7,-6,-3,-4
1533862084891359,0,-1,-1,18,4,-1,-1,-3
1533862084891359,0,2,0,-3,-2,3,-1,3
1533862084892356,2,1,8,68,9,-1,0,-2
1533862084892356,-1,0,1,-38,-4,3,4,3
1533862084905321,-5,-8,-22,-62,-17,-8,-6,-4
1533862084905321,-2,-3,-1,6,-2,-2,0,-4
1533862084906319,1,1,3,15,5,4,1,2
1533862084906319,0,0,1,-3,-4,-1,2,1
1533862084928504,1,2,7,28,-2,-4,1,-2
1533862084928504,-1,-1,-9,-41,-3,0,-2,-3
1533862084928504,-3,-2,-2,-11,-3,0,-2,-1
1533862084928504,-3,-1,-1,0,4,1,-2,-1
1533862084950202,0,1,-1,12,6,1,-1,0
1533862084950202,0,0,1,20,-4,-5,-1,-1
1533862084958181,-1,-1,-1,-13,-3,-3,-1,0
1533862084958181,-2,-2,-4,19,-3,-2,-2,-1
1533862084965162,0,1,5,-6,10,2,-1,0
1533862084965162,-4,-4,-7,16,-15,-6,-7,-6
1533862084966159,-2,0,-4,-15,1,0,-1,-3
1533862084966159,-1,-2,-4,4,0,0,-1,-1
1533862084988101,1,-1,3,-11,-6,0,2,0
1533862084988101,-3,-3,-2,-7,4,0,1,0
1533862084989097,0,-2,-3,-10,-10,-8,-5,-3
1533862084989097,2,-1,0,4,-2,1,0,1
1533862085011042,0,2,6,23,7,1,1,3
1533862085011042,-3,-1,-2,-33,13,1,1,1
1533862085012036,-2,-3,-13,-42,-20,-3,0,0
1533862085012036,-2,-1,2,8,6,-2,-1,-2
1533862085025003,-1,-4,-6,13,-11,-4,-5,-3
1533862085025003,2,0,3,24,1,2,0,-2
1533862085026000,2,4,11,51,13,3,2,1
1533862085026000,-3,-4,-9,-91,-21,-5,-6,-4
1533862085048135,-3,-2,-1,-5,16,-1,-1,0
1533862085048135,-2,-2,-3,13,-19,-5,0,-2
1533862085048938,-2,-3,-5,-26,6,1,1,-4
1533862085048938,0,1,6,29,2,2,1,1
1533862085070879,0,-1,0,8,0,2,-3,-1
1533862085070879,1,1,4,0,5,-3,-4,0
1533862085071877,-2,-2,-4,4,-3,-5,-4,-2
1533862085071877,-2,-2,-4,0,-2,-4,4,0
1533862085085838,-1,0,3,6,-1,-2,-3,-1
1533862085085838,-3,-3,-1,3,2,0,0,-1
1533862085085838,-2,-4,-3,-13,-9,-2,-3,-2
1533862085085838,-1,0,6,33,10,-1,-4,-1
1533862085107794,-1,0,-7,-36,-10,-2,-2,-4
1533862085107794,-1,-7,-10,17,9,0,3,2
1533862085108777,-3,-2,-6,-42,-18,-2,0,2
1533862085108777,-2,-2,-4,17,-6,-5,-3,0
1533862085130722,-4,0,2,17,2,-2,0,0
1533862085130722,0,2,4,-9,3,0,-5,-1
1533862085131717,1,3,1,-5,7,4,-2,-2
1533862085131717,0,0,0,6,-1,3,-2,0
1533862085145679,-1,-2,-3,1,-4,-5,-5,-3
1533862085145679,0,6,0,-14,-5,-2,0,0
1533862085145679,-2,-8,-1,12,5,2,1,2
1533862085145679,0,0,-1,-5,-5,-4,-3,-1
1533862085167621,0,3,1,-2,1,-1,1,-1
1533862085167621,1,17,7,-1,-6,1,0,-1
1533862085168618,-7,-14,3,4,-2,-6,-3,1
1533862085168618,-3,-26,-17,-7,1,0,-2,-24
1533862085190559,-4,-18,-14,-3,1,3,4,1
1533862085190559,2,6,-4,3,0,-1,1,31
1533862085197544,-2,-2,-3,0,2,2,-2,-22
1533862085197544,0,16,3,-9,-5,-7,-8,0
1533862085205526,3,12,6,7,4,5,3,5
1533862085205526,-7,-15,-2,-2,0,-1,-4,-12
1533862085206532,2,6,-2,0,-2,-4,2,8
1533862085206532,-1,-7,2,1,2,-5,1,-7
1533862085227460,2,3,-4,3,-2,-1,0,-1
1533862085227460,-1,-1,1,-1,0,2,-5,-15
1533862085228458,-2,-2,-3,0,-3,0,-5,14
1533862085228458,-4,1,1,0,0,-1,-1,-9
1533862085251400,-1,1,1,-3,0,-2,0,12
1533862085251400,1,-3,-2,-1,0,2,8,-6
1533862085251400,-4,0,-4,0,1,1,-8,-26
1533862085251400,0,4,0,-1,-1,1,0,19
1533862085265380,-4,-5,3,-2,0,-2,-5,-8
1533862085265380,0,-9,-8,4,-2,-6,-4,-3
1533862085266366,-1,2,-1,-15,-6,-5,3,7
1533862085266366,3,3,-2,-4,-4,1,0,3
1533862085288301,1,-4,-3,-6,-4,-1,3,1
1533862085288301,-1,-1,2,11,9,4,1,-5
1533862085288301,-1,-2,-5,-1,-11,-4,-2,0
1533862085288301,2,1,1,-3,9,4,-2,0
1533862085311240,-1,-4,-1,9,-16,-4,-11,-4
1533862085311240,1,2,1,-2,1,10,10,37
1533862085312248,1,3,1,-2,3,-2,5,3
1533862085312248,-3,-2,-2,-3,2,-2,-3,0
1533862085325203,-2,-1,-2,-3,-1,-8,-15,-23
1533862085325203,-2,0,-1,-6,-6,-5,-7,-7
1533862085333181,3,1,1,2,4,2,1,6
1533862085333181,-3,-3,-4,0,-3,-1,1,1
1533862085348141,-2,-1,0,0,4,1,7,2
1533862085348141,2,-3,-3,-7,-4,-3,-5,-5
1533862085349135,-3,-2,-1,1,2,0,-3,-9
1533862085349135,-1,1,-1,-2,-5,-2,2,-1
1533862085371076,0,-2,0,-1,1,-1,0,4
1533862085371076,-2,-3,-1,-5,0,-2,-2,-8
1533862085372073,-1,-1,1,5,1,-3,-1,1
1533862085372073,-1,-4,-2,-5,1,-3,-1,0
1533862085385039,-1,-2,-1,0,0,1,-2,5
1533862085385039,-5,-1,-3,1,-4,-3,1,-3
1533862085386051,0,2,0,11,1,2,3,-1
1533862085386051,-1,-3,-2,-12,-5,-2,-3,0
1533862085407979,0,-2,-2,2,4,-1,-3,-3
1533862085407979,-1,-3,-1,-6,-5,-7,-3,-13
1533862085408975,1,0,-2,3,-2,2,-1,3
1533862085408975,-1,1,3,15,5,4,5,3
1533862085430919,-3,-1,0,-7,7,-7,-7,-5
1533862085430919,0,-1,-1,-2,0,4,3,-1
1533862085431913,0,0,-1,-8,-16,-4,0,3
1533862085431913,-3,1,-3,-8,-9,-5,-6,-7
1533862085445879,-2,-2,0,17,1,7,6,3
1533862085445879,-1,-3,-1,-4,-1,-5,0,-2
1533862085445879,-2,-4,-5,-14,7,-2,-3,-1
1533862085445879,1,-1,-2,1,0,0,2,2
1533862085467821,-2,1,1,0,4,-4,-2,-3
1533862085467821,0,0,0,1,-15,-10,-5,-5
1533862085475800,1,1,1,-10,-3,4,1,2
1533862085475800,-1,1,0,4,-2,2,2,2
1533862085490756,0,0,-3,-1,0,-2,2,-2
1533862085490756,-2,-2,-1,-1,1,0,-5,-2
1533862085491754,0,-1,0,1,3,3,5,-2
1533862085491754,2,1,1,4,1,-1,-3,1
1533862085504722,-4,-4,-5,-8,-6,-1,-2,-3
1533862085504722,-1,-2,-2,-6,-5,0,1,-2
1533862085512697,1,0,0,5,4,-1,-1,1
1533862085512697,-2,-2,1,1,2,5,1,2
1533862085527661,-5,-2,-1,-5,-4,-1,6,2
1533862085527661,1,1,1,-2,-10,-4,-4,-4
1533862085528671,-1,-2,-1,2,11,-4,-6,2
1533862085528671,-2,-2,-1,2,-2,-6,0,0
1533862085551629,2,-1,-2,-13,-7,1,-4,-2
1533862085551629,-3,-1,-1,3,5,4,2,-3
1533862085551629,-5,-1,-2,-2,-6,-8,-6,-11
1533862085551629,0,-2,-3,-4,0,-2,-3,-3
1533862085564605,0,0,-1,5,0,0,-1,-8
1533862085564605,-3,0,-1,3,1,1,1,-12
1533862085573536,10,-1,0,-3,-8,5,3,38
1533862085573536,-5,-4,-6,2,-5,-3,0,-12
1533862085588513,1,-2,0,-13,0,1,-1,1
1533862085588513,-2,-4,-4,0,6,0,-5,6
1533862085588513,-3,0,-2,9,-2,-5,-1,-14
1533862085588513,-1,0,2,-2,-1,1,-1,-37
1533862085611436,4,0,-1,2,3,1,4,44
1533862085611436,1,1,-1,2,-3,-2,1,-7
1533862085611436,-1,-2,0,-5,-1,-2,0,2
1533862085611436,-1,-1,-2,1,2,2,0,0
1533862085624400,-1,0,-1,-5,-8,-4,-1,-11
1533862085624400,0,0,-1,0,7,3,1,2
1533862085633374,-2,2,1,5,3,0,-5,-11
1533862085633374,4,0,0,-1,-4,-3,-3,16
1533862085648346,1,-2,0,8,5,-2,-1,-4
1533862085648346,6,-2,-2,-32,-14,-2,6,36
1533862085648346,-7,-3,0,3,-11,-10,-4,-27
1533862085648346,-2,0,0,-2,2,4,0,-7
1533862085671274,-7,-3,-6,-18,-18,-1,5,-1
1533862085671274,4,-2,-5,-1,3,0,-5,2
1533862085672272,-3,-1,-1,-1,7,2,1,2
1533862085672272,6,-1,1,2,2,-2,-1,7
1533862085685236,1,1,0,9,8,-1,-5,-8
1533862085685236,-5,0,2,-1,1,-2,-2,-8
1533862085693249,3,2,0,-1,0,1,-1,4
1533862085693249,-7,-1,-1,-2,-2,4,2,2
1533862085708178,-3,-1,-1,4,8,1,-3,-5
1533862085708178,0,-2,-2,2,-11,-4,-3,-28
1533862085709175,-2,-5,-3,1,17,6,0,-8
1533862085709175,-5,-2,1,1,-6,-3,1,5
1533862085731116,-1,0,-1,-8,-4,2,8,-6
1533862085731116,-11,-3,1,11,20,1,-5,9
1533862085732119,-5,-2,-7,-29,-51,-17,-3,-14
1533862085732119,2,3,0,12,12,-1,-1,-33
1533862085754053,-4,-10,-10,-4,-21,-12,-4,58
1533862085754053,-1,-2,-30,3,2,0,-4,-4
1533862085754053,5,1,30,10,24,7,-1,3
1533862085754053,4,-3,1,-7,0,-2,0,5
1533862085768017,-4,4,2,5,-2,-2,-3,2
1533862085768017,0,0,1,4,2,-4,-4,-13
1533862085769012,-1,-1,-10,-4,3,-3,-4,5
1533862085769012,-10,-3,-2,-6,-6,5,1,10
1533862085790952,12,1,7,9,6,2,8,35
1533862085790952,-13,-5,3,-20,-1,0,-4,17
1533862085791951,-25,-3,-3,7,3,-5,-8,-73
1533862085791951,2,-4,-3,-2,-17,-2,-2,26
1533862085804940,0,-3,-19,15,1,-1,-7,-14
1533862085804940,7,1,3,7,-1,1,13,30
1533862085812898,22,12,28,9,0,3,-1,12
1533862085812898,-15,1,-1,-21,6,0,5,-40
1533862085827889,-30,-14,-3,0,-8,-5,-12,-33
1533862085827889,8,2,8,-8,5,2,-2,10
1533862085828852,-4,-4,-12,16,14,0,1,3
1533862085828852,17,7,-1,7,-5,-6,1,21
1533862085851791,11,6,-2,-10,9,11,2,-18
1533862085851791,-21,-4,27,1,-27,-13,-2,-68
1533862085851791,5,-10,-1,-1,1,3,3,65
1533862085851791,7,-2,-12,-16,-16,-15,-17,1
1533862085873741,3,5,3,0,8,8,-2,-21
1533862085873741,-7,-3,-24,-5,17,15,10,14
1533862085874729,-2,10,24,8,-28,-13,1,-1
1533862085874729,-9,-15,-21,-34,6,0,-2,5
1533862085887698,1,-6,-7,9,-2,-7,-4,-17
1533862085887698,6,4,-6,0,3,1,-2,1
1533862085888692,-1,-1,-6,3,2,0,1,3
1533862085888692,8,2,10,12,7,-1,-1,-6
1533862085911634,-5,5,5,-10,5,-3,0,1
1533862085911634,7,1,-2,2,-19,-11,-1,0
1533862085911634,-10,-10,-11,-9,3,4,0,-4
1533862085911634,-5,-3,0,10,-3,-1,-7,8
1533862085933571,12,-1,-2,-3,22,14,12,2
1533862085933571,2,3,7,1,-26,-9,-4,1
1533862085934569,-10,-3,-9,-13,-13,1,1,-5
1533862085934569,-1,1,-2,5,1,5,2,4
1533862085947538,6,4,9,11,0,-2,-1,0
1533862085947538,-6,4,3,-14,14,0,-2,-6
1533862085948532,2,-3,-11,3,5,5,-1,-1
1533862085948532,-10,-16,-6,-5,-2,3,0,-6
1533862085971473,0,-4,0,-6,-7,-6,-3,-4
1533862085971473,0,5,-2,9,0,-4,-2,-1
1533862085971473,8,6,-9,-10,-3,-1,-1,0
1533862085971473,-4,3,4,7,0,-3,-1,-4
1533862085993442,-2,-3,5,0,-8,-4,-2,1
1533862085993442,2,13,3,-2,4,0,-2,3
1533862085994410,-2,-13,-6,-5,0,1,1,-1
1533862085994410,-1,-14,-3,8,11,3,1,0
1533862086008375,-8,-1,-6,-9,-12,-6,-3,-5
1533862086008375,1,-3,-2,2,-1,-2,-4,-1
1533862086008375,3,9,-1,-1,4,-2,-2,-1
1533862086008375,0,7,-44,-3,4,2,6,3
1533862086031310,-3,-4,15,-3,-7,-4,-2,-4
1533862086031310,0,-6,-3,-1,-3,1,-3,-2
1533862086032308,-2,-1,1,0,1,-1,-2,-4
1533862086032308,0,4,0,-3,-8,-5,-4,-2
1533862086053388,0,1,-6,-1,5,-1,0,1
1533862086053388,5,5,7,10,-3,1,-1,3
1533862086054267,-7,-5,-11,-11,-7,0,1,1
1533862086054267,-3,-6,7,6,0,-4,-5,-2
1533862086068317,-3,2,-5,-5,-5,-3,-2,-5
1533862086068317,-8,-30,-6,0,1,-7,-4,-5
1533862086069227,0,1,-3,9,13,1,-6,-5
1533862086069227,6,11,18,2,-4,0,-2,1
1533862086091150,-3,2,-5,-22,-12,-7,-7,-3
1533862086091150,3,3,-5,0,3,9,10,5
1533862086092161,-3,-5,-4,-4,-7,0,-1,-1
1533862086092161,-2,1,10,14,3,-1,3,0
1533862086113091,1,5,2,-7,-2,-2,-3,-2
1533862086113091,-2,-4,-5,-5,-1,-3,-6,-6
1533862086115104,-3,-6,-2,2,5,-1,1,-2
1533862086115104,0,0,7,-3,1,-2,-6,0
1533862086128055,3,1,1,10,2,7,5,3
1533862086128055,3,0,2,-4,0,3,-1,0
1533862086129049,2,2,1,-2,2,2,4,2
1533862086129049,-5,-4,-5,5,1,-8,-6,-7
1533862086150990,0,-2,1,-3,-5,-10,-7,-2
1533862086150990,-5,4,-2,-19,-25,-1,-4,-3
1533862086151988,4,3,-4,9,3,-6,-6,-3
1533862086151988,-1,20,7,-4,-15,-1,4,2
1533862086173929,5,-9,0,12,20,6,5,3
1533862086173929,-9,-22,-11,-5,-1,-7,-3,-10
1533862086173929,-3,-5,-15,-12,-11,0,-2,-6
1533862086173929,4,-15,63,3,13,3,3,-1
1533862086187895,-6,2,-18,-1,-7,-2,-4,1
1533862086187895,9,36,10,6,11,7,7,1
1533862086188889,8,14,-6,-6,-4,0,2,5
1533862086188889,3,-2,8,2,-8,-5,-4,0
1533862086210835,26,103,50,15,6,1,3,6
1533862086210835,39,60,30,4,0,2,4,17
1533862086211832,-81,-87,-15,-13,-5,-4,-4,-17
1533862086211832,23,-54,-77,-38,-21,-10,-9,-12
1533862086233769,-78,-10,-71,8,-11,-12,-14,-30
1533862086233769,-29,-47,-37,-4,13,-2,-5,-8
1533862086234766,50,-15,6,24,-4,3,3,15
1533862086234766,-20,-27,-17,-24,-9,1,1,0
1533862086247768,30,5,10,-5,-4,3,5,7
1533862086247768,19,51,28,13,8,-1,-2,4
1533862086248766,-3,30,41,-6,7,5,-1,1
1533862086248766,0,28,19,13,7,4,5,3
1533862086270673,11,-3,12,-12,-1,0,1,4
1533862086270673,-21,0,29,4,-2,-3,-3,-6
1533862086271667,5,-8,-21,-9,-2,-3,-1,-3
1533862086271667,6,89,15,9,3,0,-1,2
1533862086293612,4,-20,-13,-2,-6,3,4,4
1533862086293612,-27,-101,-9,-6,0,-1,-3,-7
1533862086294606,7,23,-28,-2,-6,-4,-2,-2
1533862086294606,4,6,-12,-12,-9,-8,-5,1
1533862086307571,-9,-8,18,4,-21,-4,0,-4
1533862086307571,-12,-64,-68,-15,-5,-2,-2,-7
1533862086308579,14,16,9,-1,4,2,-1,1
1533862086308579,-13,5,5,14,14,4,2,-2
1533862086331508,10,-3,22,-4,8,4,0,3
1533862086331508,18,10,7,2,-1,-1,2,7
1533862086331508,9,6,0,4,4,-6,-3,0
1533862086331508,-54,-5,-5,-4,-7,-4,-1,-10
1533862086353451,5,-15,2,7,-1,-2,0,2
1533862086353451,0,28,5,4,1,1,-2,-2
1533862086354445,8,42,8,-4,0,0,0,4
1533862086354445,11,-32,-17,-3,-3,-2,-1,2
1533862086368510,-1,-35,-12,-7,4,-2,-1,-1
1533862086368510,-5,21,11,4,3,1,-1,-6
1533862086368510,-15,-19,-13,-2,-2,-2,-3,-5
1533862086368510,18,-1,-6,1,5,5,3,8
1533862086391351,47,39,3,-7,-9,-3,5,21
1533862086391351,-3,-5,11,-3,-7,-5,-6,-16
1533862086392345,-37,-11,2,-2,-5,-5,-7,-23
1533862086392345,10,-15,-22,3,8,2,-1,-4
1533862086414286,1,-7,-4,-1,10,4,1,-2
1533862086414286,28,38,23,5,-8,-5,-2,14
1533862086414286,-4,-4,6,-11,-8,1,4,3
1533862086414286,-13,-8,1,6,9,-2,-3,-5
1533862086427254,2,3,3,1,17,13,1,1
1533862086427254,-4,9,1,7,7,-1,-1,8
1533862086435243,9,-2,1,-3,-17,-2,3,6
1533862086435243,-21,2,4,-15,-23,-7,4,-1
1533862086450190,-11,-11,-2,0,-6,0,-5,-7
1533862086450190,-40,-21,-18,-3,10,2,-7,-22
1533862086459166,24,10,0,5,5,-2,-5,2
1533862086459166,34,62,51,13,10,4,3,14
1533862086473129,-5,-18,-8,-3,4,2,3,-6
1533862086473129,-57,-79,-24,1,4,-3,-4,-11
1533862086475123,18,-8,-36,-7,13,-5,-2,5
1533862086475123,1,-8,-10,0,-18,-1,2,-1
1533862086487094,-1,17,-16,-7,-29,-15,-8,-4
1533862086487094,26,32,29,11,1,6,7,10
1533862086496067,-8,-8,4,12,3,1,-3,2
1533862086496067,5,-1,-5,15,15,1,-1,1
1533862086510248,-26,-13,16,-10,4,-1,-2,-11
1533862086510248,19,16,-10,-13,-12,-1,6,13
1533862086519006,-18,10,9,-5,-1,-4,-1,-6
1533862086519006,11,-3,21,-3,6,3,2,3
1533862086533966,-7,-10,-15,-1,-5,-4,-6,-5
1533862086533966,-21,16,-9,-6,-5,-4,-5,-17
1533862086534964,4,29,50,11,4,5,3,4
1533862086534964,-6,-57,-62,-17,6,-2,-7,-6
1533862086547050,3,-6,9,0,-14,-9,-2,1
1533862086547050,5,-6,-35,-41,-41,-9,-3,3
1533862086555907,0,9,-19,-7,-2,3,-1,-1
1533862086555907,-4,9,20,-12,-19,-2,0,-3
1533862086570064,-8,-4,-12,23,31,6,3,1
1533862086570064,13,12,31,13,6,1,1,5
1533862086585834,-3,-7,11,0,-15,-4,-2,-2
1533862086585834,4,21,7,-6,-8,-2,1,10
1533862086600790,7,4,-5,-4,3,1,4,1
1533862086600790,-23,-15,7,9,4,-3,-7,-21
1533862086602782,-30,-48,-49,-12,3,-4,-7,-17
1533862086602782,3,-8,0,3,3,-3,-3,-4
1533862086606781,8,16,-1,-4,-11,-3,2,11
1533862086606781,27,20,16,10,8,-1,3,13
1533862086615917,-20,-5,7,-1,7,-4,-13,-22
1533862086615917,-7,1,-24,-13,-8,2,-1,-4
1533862086629710,-1,1,27,7,3,1,0,-2
1533862086629710,7,-5,0,-20,-2,-4,3,10
1533862086638691,10,23,-14,29,-4,-3,2,10
1533862086638691,-5,12,27,0,-16,-2,1,-1
1533862086653649,-18,-49,-18,15,16,1,-12,-14
1533862086653649,2,-14,-77,-49,-18,-5,-3,-3
1533862086655640,14,28,36,6,3,2,5,7
1533862086655640,0,6,5,12,6,-1,0,-3
1533862086667608,-2,13,18,-6,6,2,5,4
1533862086667608,-8,-23,10,18,10,-4,-5,-5
1533862086676585,5,-1,-22,-11,-14,-5,0,1
1533862086676585,0,9,17,1,3,2,5,4
1533862086690596,-3,12,-8,-9,1,-4,-2,-3
1533862086690596,29,79,17,19,9,4,-1,6
1533862086697529,-31,-5,98,-3,6,6,4,-7
1533862086697529,-26,-99,-101,-10,-3,-6,-11,-18
1533862086713489,-12,-25,-36,-7,-8,-2,-4,-7
1533862086713489,14,-5,9,4,-4,-2,2,6
1533862086715481,42,89,-3,7,12,-1,2,20
1533862086715481,81,118,114,12,4,11,12,33
1533862086727452,-96,-87,57,11,-7,-4,-7,-49
1533862086727452,41,-46,-91,-11,11,-4,-6,-5
1533862086736424,-6,-96,58,-26,-18,-5,-5,-11
1533862086736424,10,-22,-78,-18,-10,-10,-13,-5
1533862086750394,38,69,35,11,-2,4,6,22
1533862086750394,-24,23,37,15,31,11,2,4
1533862086757387,-9,-6,-30,17,-5,0,0,-5
1533862086757387,-11,0,22,-16,4,12,8,0
1533862086773344,7,7,-16,2,-14,-8,-1,8
1533862086773344,-26,-15,9,-1,6,-3,-4,-17
1533862086775335,24,4,-26,-9,-3,-1,4,15
1533862086775335,-9,0,10,-2,3,-1,-1,-3
1533862086787291,1,9,-9,2,11,3,10,9
1533862086787291,7,-5,3,13,7,3,-4,-7
1533862086803249,-5,-16,-19,-6,-12,-3,-9,-11
1533862086803249,-21,-12,-16,15,14,-10,-9,-16
1533862086811224,23,0,-20,-14,-18,1,-1,-1
1533862086811224,13,20,65,109,29,2,10,22
1533862086817211,-8,-5,-51,47,44,6,-1,3
1533862086817211,-23,-11,-4,-8,-4,4,0,-11
1533862086834166,14,11,-12,33,0,2,-1,8
1533862086834166,-11,-1,-30,-99,-94,-27,-7,-15
1533862086835161,-1,1,12,28,-104,-19,-4,4
1533862086835161,-18,-17,-47,-43,5,-5,-10,4
1533862086856121,39,7,-9,-35,-41,-4,-2,-5
1533862086856121,-64,-7,9,60,20,-2,-11,-60
1533862086858128,32,3,0,-78,62,18,12,52
1533862086858128,-1,4,30,33,25,7,9,31
1533862086870096,-11,1,20,30,50,11,3,20
1533862086870096,19,1,5,36,19,8,5,-13
1533862086877051,-7,9,6,-20,-3,-3,3,-54
1533862086877051,28,14,-22,31,15,-4,-11,-95
1533862086894007,-31,-6,4,-53,-53,-15,-11,75
1533862086894007,21,3,-6,13,-8,1,0,11
1533862086895006,-26,-12,-6,24,43,10,4,-17
1533862086895006,23,26,17,-25,-31,-8,-7,25
1533862086915944,-2,-8,-15,72,81,6,2,-35
1533862086915944,5,35,19,-39,-64,-8,0,-6
1533862086917939,-20,10,-1,64,-3,-9,-4,43
1533862086917939,-14,-71,-28,55,47,11,8,-54
1533862086930052,-1,-7,-2,-31,21,-6,-8,-14
1533862086930052,-10,-10,-7,-2,-18,3,-2,38
1533862086938903,27,31,12,-21,-14,-3,-4,-44
1533862086938903,15,13,16,-8,-42,-11,-2,49
1533862086953862,-7,-6,-6,33,-13,-4,-2,-30
1533862086953862,-9,-12,-21,-107,-26,-8,-4,3
1533862086954840,11,11,4,5,8,5,2,-17
1533862086954840,3,-17,4,7,-29,-9,-9,-93
1533862086983766,-4,-22,-6,-24,2,3,10,96
1533862086983766,44,6,10,2,53,9,4,32
1533862086985758,16,-16,-25,-44,-85,-22,-7,45
1533862086985758,-44,-2,12,28,32,4,1,-28
1533862086989746,47,20,16,17,19,4,-5,-128
1533862086989746,-19,-2,10,24,43,16,4,30
1533862086998731,-20,-8,-19,-58,-47,-21,-7,26
1533862086998731,16,22,9,0,-22,0,-1,-35
1533862087013699,-16,-5,-11,-57,-68,-10,-1,65
1533862087013699,1,-14,-5,11,23,1,-4,-10
1533862087015678,-10,-3,10,30,44,14,4,2
1533862087015678,-1,10,3,-7,-5,-8,0,6
1533862087036625,2,5,-6,-13,-2,-2,-6,-22
1533862087036625,-4,-1,1,-1,-2,1,0,-4
1533862087037619,11,-10,1,11,13,5,2,-28
1533862087037619,-17,4,2,-12,-5,-5,-4,18
1533862087049590,3,19,6,-4,-6,-7,-3,2
1533862087049590,12,5,-8,15,-12,-7,-2,4
1533862087058563,-12,-30,-7,7,9,6,0,-29
1533862087058563,-23,26,9,-5,7,8,7,44
1533862087073524,56,-33,-16,2,-9,-7,-1,18
1533862087073524,-72,-7,-18,-17,-30,-14,-11,-56
1533862087075518,-7,3,8,-8,12,5,-5,-9
1533862087075518,-9,-51,-18,7,11,0,0,23
1533862087096465,3,36,11,3,6,4,6,2
1533862087096465,53,51,11,-17,-16,0,0,8
1533862087097459,-21,22,-12,34,34,-2,-2,-10
1533862087097459,-1,-37,-9,-38,-28,-9,-3,17
1533862087118403,-16,23,3,4,1,-1,-7,-27
1533862087118403,24,81,40,-2,0,1,5,19
1533862087120398,-13,-66,-10,-1,-4,2,2,9
1533862087120398,-36,-54,-56,-4,-4,-6,-7,-5
1533862087141345,0,50,-6,-9,0,1,2,3
1533862087141345,34,50,11,15,11,7,10,24
1533862087142339,24,10,21,-4,-3,0,-2,-24
1533862087142339,-73,-32,3,0,-4,-2,-2,-20
1533862087156326,-3,-89,-30,0,5,2,-6,-9
1533862087156326,-52,-22,-10,-8,-3,-7,-13,-44
1533862087157299,44,61,12,4,3,2,7,26
1533862087157299,20,-10,24,0,-5,-2,9,22
1533862087170264,-11,14,0,-3,-6,-2,-7,-25
1533862087170264,10,-20,-5,1,1,2,0,13
1533862087179241,0,-22,-20,-13,-3,-3,-3,-2
1533862087179241,21,36,15,-5,3,2,1,22
1533862087195198,0,17,4,7,-4,-1,5,0
1533862087195198,6,-50,-5,-16,-4,-2,0,4
1533862087197200,-9,1,-10,-6,0,-2,-2,5
1533862087197200,25,36,-15,1,4,-3,-3,5
1533862087216141,2,2,34,8,-11,1,4,4
1533862087216141,-20,-30,-23,1,8,3,-2,-17
1533862087218136,2,-1,12,0,-5,-10,-5,14
1533862087218136,11,52,-28,-13,-2,11,3,5
1533862087230107,-23,-78,3,-7,-6,-4,-3,-13
1533862087230107,-5,-38,-32,4,0,2,-1,-4
1533862087239080,6,34,10,-4,0,1,4,3
1533862087239080,17,-9,13,7,-1,-5,-6,2
1533862087254043,-10,-12,-11,17,11,-1,0,6
1533862087254043,-6,-7,-5,-20,-19,-12,-4,-12
1533862087255043,-18,5,9,6,7,-1,-5,-5
1533862087255043,28,31,27,-3,3,4,2,5
1533862087275996,-37,29,10,-3,-2,-2,-6,-2
1533862087275996,61,-10,1,3,3,-1,1,4
1533862087277985,27,15,2,-1,3,4,4,-3
1533862087277985,-49,5,11,10,6,3,7,2
1533862087289944,28,5,-3,2,2,1,-1,4
1533862087289944,-27,10,-1,6,-1,-2,-3,-9
1533862087298920,-12,-23,-12,-6,-10,-5,-9,5
1533862087298920,22,20,16,4,0,3,-1,1
1533862087312886,21,13,-10,-4,3,-2,4,7
1533862087312886,-14,-29,-13,3,4,-1,-1,-2
1533862087320864,-52,-45,-15,-11,-10,-1,0,-18
1533862087320864,-44,8,-38,-5,-8,-9,-8,-9
1533862087335844,-2,7,20,2,5,5,3,-2
1533862087335844,-3,2,14,8,6,-2,0,4
1533862087337828,7,-10,-4,-3,-6,-1,6,17
1533862087337828,26,14,18,-4,-7,-5,-9,-2
1533862087349787,-8,0,-23,-13,-2,-2,6,22
1533862087349787,-28,1,3,6,1,1,-4,-18
1533862087358760,-1,-3,13,2,4,3,5,9
1533862087358760,-46,0,5,-5,-6,-9,-12,-27
1533862087373720,-28,-12,-16,-7,-2,0,7,10
1533862087373720,34,-9,7,3,1,2,-6,-2
1533862087374717,-14,7,-17,-5,-1,-4,-3,-11
1533862087374717,19,-17,-2,1,4,1,3,13
1533862087395664,-57,-20,-8,-8,-3,-5,-5,-23
1533862087395664,-19,25,11,10,-3,-2,7,23
1533862087397656,-23,9,4,2,0,-1,-5,-16
1533862087397656,31,-7,7,7,0,1,2,15
1533862087418603,-1,-3,-13,-1,4,2,-4,-18
1533862087418603,2,-21,8,14,8,0,-3,0
1533862087420598,27,22,3,-13,3,4,-2,-6
1533862087420598,27,-15,-1,-7,-24,-9,-3,19
1533862087433575,45,19,2,14,6,-6,-7,-50
1533862087433575,-48,14,1,-8,-18,1,-1,40
1533862087435558,14,-49,-28,13,13,-3,0,-6
1533862087435558,31,7,2,-7,-2,1,5,-1
1533862087456499,3,-10,-4,-6,-6,-2,-3,12
1533862087456499,56,8,2,2,11,4,4,-14
1533862087457496,-6,46,18,2,-4,-1,-5,-22
1533862087457496,14,-14,-11,-4,5,2,4,16
1533862087469467,6,23,29,3,-2,-1,-4,-11
1533862087469467,-29,-33,-29,-4,-1,-1,-1,-10
1533862087478439,10,2,-7,-7,-8,-5,-2,12
1533862087478439,4,2,6,8,7,2,2,-14
1533862087493403,8,16,5,-5,-13,-8,-4,7
1533862087493403,-5,9,5,-5,4,3,1,-2
1533862087495395,5,-6,-3,-3,-6,-3,-1,3
1533862087495395,-5,-3,-3,16,25,6,1,-31
1533862087516342,-8,-5,13,8,5,8,0,18
1533862087516342,-4,-5,-12,-55,-37,-13,-3,27
1533862087517345,9,20,7,9,-20,-7,-5,-14
1533862087517345,-22,-17,-12,3,4,-3,-6,-6
1533862087529304,-3,-18,2,-2,-7,-4,-6,1
1533862087529304,19,-1,-8,-1,16,9,6,-5
1533862087539278,2,-1,7,-8,18,6,5,-3
1533862087539278,-8,7,11,0,-6,-8,-3,8
1533862087554240,11,0,-12,-10,-10,-6,-7,-1
1533862087554240,-25,-12,4,17,-3,-5,-4,-13
1533862087555235,-5,5,-5,3,-19,-8,-3,-2
1533862087555235,1,-1,3,-4,10,6,3,5
1533862087576189,8,2,-3,8,17,13,3,6
1533862087576189,7,-4,3,-9,-13,-7,1,-11
1533862087578189,-1,-6,-6,5,5,-2,0,5
1533862087578189,7,2,8,-2,-14,-3,4,6
1533862087598120,6,-1,-6,-10,2,4,-1,-2
1533862087598120,2,1,1,9,6,-2,-2,-4
1533862087606099,8,-8,-2,-2,4,3,1,0
1533862087606099,7,-2,0,-3,-7,-4,-2,1
1533862087614077,-6,-1,-2,-10,-1,-7,1,-3
1533862087614077,2,1,-3,7,2,1,0,-2
1533862087615075,0,-4,-1,-1,-3,-3,-7,0
1533862087615075,-38,-5,2,-6,-4,3,-1,1
1533862087636022,-5,2,-6,2,-5,-1,4,0
1533862087636022,4,-1,1,6,4,-5,-3,-2
1533862087638013,-1,-4,-1,-6,0,0,1,0
1533862087638013,4,3,0,-5,-1,1,0,2
1533862087650016,-4,-1,-4,12,8,-3,-1,-3
1533862087650016,5,-1,3,3,13,4,1,5
1533862087658958,-6,-5,2,-13,-8,1,-1,-7
1533862087658958,6,-2,-5,-14,-28,-4,-1,-1
1533862087673918,-4,-5,-11,-5,3,-9,-3,-2
1533862087673918,0,2,6,11,-17,-5,-4,-5
1533862087674914,0,-6,-4,-4,18,2,-2,3
1533862087674914,-7,0,-4,-5,11,1,3,-5
1533862087697857,-3,-2,-3,-10,-8,0,-5,-6
1533862087697857,-9,-2,-4,7,11,1,0,-12
1533862087698857,4,4,3,-4,-5,-4,-6,-3
1533862087698857,-16,-1,5,0,-2,-2,0,0
1533862087718834,-6,-2,0,-3,-1,-2,-1,-3
1533862087718834,-5,-2,0,-2,0,2,3,2
1533862087719795,-7,-4,-2,0,-8,0,1,2
1533862087719795,4,-2,0,2,0,-1,-2,1
1533862087733760,-2,3,2,3,-2,-1,-2,1
1533862087733760,1,-2,-3,-18,-7,1,-2,2
1533862087734754,-6,-1,1,0,3,-2,3,-2
1533862087734754,4,-1,-5,8,-3,-5,-4,1
1533862087755724,-10,-3,-2,-5,-1,0,2,-4
1533862087755724,3,-3,-5,-8,-5,-8,-4,-5
1533862087757694,-1,-1,-4,6,9,4,1,5
1533862087757694,2,2,3,-3,8,3,2,1
1533862087778640,2,0,3,0,-12,-5,1,2
1533862087778640,-1,-3,-5,3,3,2,1,-2
1533862087780631,-5,-3,-3,9,-9,-3,-4,-3
1533862087780631,7,2,9,-7,36,10,0,2
1533862087793597,-1,-4,-7,-34,-42,-6,-2,-1
1533862087793597,-3,-3,-2,63,44,-1,-2,-2
1533862087795592,-4,-2,-1,-30,-32,-2,-6,1
1533862087795592,-4,-4,-5,1,-12,-10,-2,-3
1533862087816539,-1,0,1,10,15,2,0,0
1533862087816539,1,-3,3,-18,-1,0,2,-1
1533862087817533,-1,0,1,16,19,5,4,1
1533862087817533,6,3,0,-1,4,1,-2,0
1533862087838482,-6,-2,-6,-4,-3,-5,-3,2
1533862087838482,2,0,13,-5,-6,-1,-2,0
1533862087840477,-2,-4,-11,5,2,-2,0,-4
1533862087840477,0,-2,-4,-5,-17,-2,0,-1
1533862087852440,0,1,3,2,12,1,-1,0
1533862087852440,-3,-3,-5,1,-12,-4,-4,0
1533862087859448,0,1,0,-15,12,2,1,5
1533862087859448,-2,-1,-5,13,-15,-5,-3,-3
1533862087876379,-1,-3,-5,12,1,-3,-4,-3
1533862087876379,-3,-1,-6,-12,-4,-2,-1,-1
1533862087877373,-2,0,0,0,-7,-4,-1,-2
1533862087877373,-1,-1,-1,3,17,3,-3,0
1533862087898317,1,0,5,12,2,9,7,4
1533862087898317,0,0,-4,-18,-13,-3,-4,-2
1533862087900311,-3,-5,-8,-19,-13,-10,-2,-2
1533862087900311,2,0,1,-3,-2,0,-1,-3
1533862087912313,-3,-2,-1,-3,5,2,-2,-4
1533862087912313,1,0,-1,-2,1,4,2,4
1533862087921255,-1,0,6,6,1,2,-2,-1
1533862087921255,1,0,3,7,7,-3,-2,0
1533862087936215,-1,-2,-6,-5,-8,-6,-5,-4
1533862087936215,0,0,-4,7,-6,-4,0,-1
1533862087937212,-3,0,-1,-5,-7,-1,-1,-3
1533862087937212,23,0,-2,6,-1,-4,-3,-2
1533862087959220,-25,-3,1,-4,5,1,0,1
1533862087959220,1,1,1,-22,-7,4,2,-1
1533862087960152,-4,-3,-5,-7,-3,-3,-3,0
1533862087960152,-6,-3,-1,20,6,-4,-3,-1
1533862087972286,9,1,2,-6,9,4,3,0
1533862087972286,-9,-5,-1,-12,-3,-3,-2,-6
1533862087981095,1,2,-2,-10,-5,1,-2,1
1533862087981095,-9,-3,-1,2,-5,0,0,-1
1533862087996074,5,3,-1,-15,-5,0,-1,-1
1533862087996074,7,-2,-1,26,19,1,1,9
1533862087998076,5,-13,-4,7,2,-1,1,-5
1533862087998076,-48,-7,-2,-6,-6,-1,0,-10
1533862088018000,-1,-2,-1,-5,-9,-4,-2,-4
1533862088018000,10,1,-1,-7,-6,1,-1,-2
1533862088025975,33,11,3,11,2,1,3,7
1533862088025975,-9,-1,-4,-8,-5,-1,-4,1
1533862088032957,-29,-4,5,1,1,0,1,-7
1533862088032957,-13,-1,-3,7,-3,-7,-3,-6
1533862088039944,2,-1,0,13,-5,-3,-8,-5
1533862088039944,-6,5,2,-12,23,7,2,3
1533862088055896,2,0,-5,-2,-19,-1,-1,3
1533862088055896,13,-1,-4,-6,-5,-4,-1,1
1533862088057891,-25,3,0,-10,-27,-6,-3,-3
1533862088057891,9,-4,-4,-9,-3,-2,0,1
1533862088078865,7,-4,-2,4,-1,-6,-6,-3
1533862088078865,-1,1,3,6,6,1,2,0
1533862088079866,-4,-2,0,8,20,6,9,6
1533862088079866,-5,-6,-6,-16,-20,-5,-5,-5
1533862088092802,14,-2,-1,4,5,-4,-3,0
1533862088092802,-13,1,-1,-1,-9,-2,-3,-4
1533862088099827,26,3,4,6,17,1,2,12
1533862088099827,-16,-3,-4,-19,-39,-6,-4,-14
1533862088115736,-2,-7,-6,10,29,3,-3,-6
1533862088115736,3,-7,-5,-20,-15,1,-1,-2
1533862088117731,4,-5,0,10,-10,-8,-2,-1
1533862088117731,4,-2,4,42,34,0,2,4
1533862088138868,1,18,3,-33,-38,-5,-5,9
1533862088138868,10,-22,-1,0,12,1,-5,-12
1533862088140669,32,-6,2,0,25,9,3,2
1533862088140669,34,11,-4,-14,-45,-10,-2,5
1533862088153635,-27,-12,-5,-7,0,0,-1,-6
1533862088153635,18,8,6,13,47,2,4,6
1533862088159619,-44,-8,-12,-69,-103,-15,-7,-10
1533862088159619,34,4,5,-39,26,4,1,3
1533862088176576,4,-9,-8,33,-16,-9,-1,1
1533862088176576,-34,11,-7,-2,2,-2,-5,-3
1533862088178568,-15,0,2,42,54,5,-1,-5
1533862088178568,-28,0,-1,-16,5,-2,2,5
1533862088198517,10,3,1,2,-24,-1,3,0
1533862088198517,-17,5,1,3,0,4,8,17
1533862088200509,-17,-12,-6,3,-6,-14,-9,-16
1533862088200509,17,-2,2,-8,10,3,-5,2
1533862088212491,20,7,9,18,26,8,5,-1
1533862088212491,-15,-7,-3,21,-5,-4,-5,-5
1533862088219462,33,8,-5,-33,13,4,0,1
1533862088219462,-33,-6,-1,5,11,0,2,2
1533862088236416,1,-2,-2,10,12,7,0,-2
1533862088236416,9,5,3,1,-39,-7,-2,-5
1533862088237411,-8,2,0,-6,48,-1,0,0
1533862088237411,-5,-6,-16,-40,-95,-11,-4,-6
1533862088258371,4,3,3,26,29,4,3,4
1533862088258371,8,1,2,-5,2,-2,-1,-4
1533862088260353,-16,0,6,18,-13,0,-4,-15
1533862088260353,28,12,15,28,64,18,4,15
1533862088272317,4,8,2,1,2,-1,4,0
1533862088272317,-33,-4,-13,-2,-54,-14,14,12
1533862088281293,30,1,-9,-17,-24,-2,-21,-49
1533862088281293,-23,-6,0,5,22,0,-9,-21
1533862088296256,-18,-8,0,61,12,-2,-11,-13
1533862088296256,15,4,-18,-75,-74,-17,-8,4
1533862088297250,-1,0,3,66,-2,3,13,17
1533862088297250,5,-5,-10,-24,6,-7,-1,-5
1533862088319204,-6,-2,-3,15,4,-6,0,4
1533862088319204,27,7,16,56,43,17,5,0
1533862088320188,-23,2,6,19,-7,7,5,14
1533862088320188,10,-4,-7,2,18,-5,-1,-1
1533862088332286,-3,-2,0,6,13,5,1,1
1533862088332286,-16,-10,-11,-97,-38,-13,-10,-6
1533862088341144,-2,-3,0,9,-12,-2,-4,1
1533862088341144,-2,2,3,27,20,5,5,6
1533862088355098,29,-2,-4,-34,-12,-5,1,1
1533862088355098,9,-4,4,27,16,3,-4,-8
1533862088362080,-1,2,1,-7,22,3,4,12
1533862088362080,12,2,3,17,-18,-3,-5,-8
1533862088379035,-13,-5,-7,-41,-18,-6,-5,0
1533862088379035,12,-3,5,9,7,5,-4,-4
1533862088380029,-5,0,0,-6,40,-4,-2,10
1533862088380029,0,-3,-4,2,-44,-8,-1,-3
1533862088392000,2,-2,1,-23,-31,-2,-2,4
1533862088392000,-14,-5,-9,30,17,-1,-4,-7
1533862088400975,17,6,0,-2,-4,-4,-10,-6
1533862088400975,9,-9,2,8,-2,5,4,4
1533862088414937,3,4,7,-16,-4,-1,-2,-3
1533862088414937,10,0,2,-5,54,9,6,1
1533862088423912,-12,-1,-5,-29,-63,-8,3,11
1533862088423912,8,5,5,29,15,4,2,-3
1533862088438912,-34,-9,-2,7,-3,-2,-2,0
1533862088438912,22,-2,-14,-8,-29,-12,-12,-6
1533862088439869,-9,-6,-1,-19,-6,5,0,-7
1533862088439869,-5,2,3,5,1,-4,1,0
1533862088452837,9,0,0,-5,15,4,1,2
1533862088452837,-12,1,2,4,10,2,-1,-1
1533862088460815,-7,-3,-1,7,7,1,0,-4
1533862088460815,6,-3,-1,-8,-9,1,-1,6
1533862088476770,4,-3,-7,-7,2,-6,-5,4
1533862088476770,2,6,3,-3,-1,1,-2,-8
1533862088477769,2,-3,-5,11,10,-4,-2,3
1533862088477769,-18,-4,-4,-14,-5,-1,-2,1
1533862088498711,4,0,0,0,2,-1,0,-2
1533862088498711,-6,0,3,22,-1,4,3,2
1533862088499708,-4,-3,-12,-21,2,0,0,3
1533862088499708,-4,1,-3,3,13,-4,-4,-3
1533862088512677,-4,-4,-3,-22,-32,-8,-5,-7
1533862088512677,-7,-6,-2,-7,9,-1,-1,-2
1533862088521650,-9,-1,1,17,9,2,0,-3
1533862088521650,-9,-3,-5,8,0,-1,-1,-1
1533862088536737,6,2,0,-5,7,4,2,1
1533862088536737,-9,1,3,-11,-2,1,1,2
1533862088537624,-3,-3,-1,10,7,-3,-1,-1
1533862088537624,3,1,-1,-25,-34,-7,-2,0
1533862088558551,-3,-5,-9,4,-11,-7,-4,-3
1533862088558551,-5,0,2,8,-9,4,4,8
1533862088560560,40,9,11,-4,32,9,7,-2
1533862088560560,-40,-5,0,4,-25,-13,-11,-10
1533862088572514,-1,-8,-51,1,9,-6,-5,-4
1533862088572514,-1,1,24,-16,9,-1,-2,0
1533862088581491,1,2,-1,-5,-8,-2,0,5
1533862088581491,7,3,11,19,18,7,3,1
1533862088596595,-2,5,5,-6,2,-1,1,-3
1533862088596595,-6,-4,-9,7,-8,-1,-5,-4
1533862088597448,-9,-6,-1,-1,9,0,2,-2
1533862088597448,9,2,-5,-5,-13,-6,-1,-2
1533862088618397,-7,1,12,-2,-7,7,2,0
1533862088618397,4,-5,-10,26,38,-6,-6,-1
1533862088620386,-8,-1,4,-6,-28,0,-3,-2
1533862088620386,4,-4,-8,0,-13,1,1,3
1533862088632357,13,4,13,-12,-3,6,4,-1
1533862088632357,-5,-3,-7,21,23,-6,-2,-2
1533862088641330,-8,-5,-12,1,-18,-8,-5,-2
1533862088641330,0,0,3,-2,10,6,1,-1
1533862088655296,-3,-3,7,-7,1,0,-1,-1
1533862088655296,-2,4,3,-10,-11,0,-5,0
1533862088662277,-12,-4,-4,0,-4,-4,-1,-3
1533862088662277,2,1,1,24,41,3,0,1
1533862088679240,-5,1,4,-29,-38,-4,-2,-1
1533862088679240,18,-4,-9,-4,4,-4,-3,1
1533862088680227,8,-2,-1,-7,-11,-3,2,1
1533862088680227,4,0,-2,2,5,1,-3,-2
1533862088701173,5,0,1,10,15,1,-1,-1
1533862088701173,-6,-1,-3,-11,-16,2,3,-2
1533862088703168,-8,0,1,5,-1,-1,-4,-1
1533862088703168,1,-2,2,-5,-5,-1,-1,-1
1533862088716133,-5,-5,-2,5,9,-5,-3,0
1533862088716133,-1,-2,-2,-8,-14,-1,-1,0
1533862088718128,6,-1,4,2,2,-2,-2,-1
1533862088718128,4,-1,-4,-10,-10,-5,-5,-2
1533862088739069,5,-1,-1,6,6,-2,1,0
1533862088739069,-3,0,-1,-12,-4,4,4,1
1533862088740066,-9,3,1,-6,-1,2,2,3
1533862088740066,-16,-5,-8,8,12,-8,-3,-2
1533862088761013,-18,-1,-1,-10,-24,-7,-9,-3
1533862088761013,8,0,3,0,1,3,-3,-1
1533862088763005,6,-3,-4,-1,8,-1,1,0
1533862088763005,5,1,4,4,-8,6,2,2
1533862088775969,3,-2,-3,-13,-3,-2,0,-1
1533862088775969,-9,-2,-4,5,3,4,-2,-5
1533862088777978,2,-1,2,-9,-3,-7,-4,-2
1533862088777978,5,0,2,1,8,1,3,-1
1533862088805899,3,-2,-3,9,23,-1,0,-3
1533862088805899,1,0,-1,-15,-46,-1,2,0
1533862088807885,-8,-3,-5,16,15,2,-4,-2
1533862088807885,-3,1,6,7,7,7,4,6
1533862088820853,-2,-1,0,-11,-4,-7,11,5
1533862088820853,-10,-6,-9,-2,0,-6,-12,-3
1533862088822844,-12,-1,-1,-2,-11,-5,-10,-8
1533862088822844,-3,1,-1,-5,-7,4,3,2
1533862088834977,1,3,2,12,25,19,6,3
1533862088834977,-3,1,1,0,-3,0,4,2
1533862088843789,-5,-2,-5,-4,0,-7,-1,-2
1533862088843789,-1,-4,-7,-15,-23,-11,-5,-3
1533862088858751,2,0,0,8,1,-4,-7,-1
1533862088858751,-1,-1,2,-3,-1,-1,2,-1
1533862088859746,9,0,0,8,-11,-1,-2,-3
1533862088859746,5,-1,-2,-20,7,0,-1,-5
1533862088881690,1,-1,-1,0,-19,-6,0,-3
1533862088881690,2,0,0,21,21,8,1,-1
1533862088882684,3,1,2,14,-3,0,2,5
1533862088882684,-5,-7,-14,-57,-30,-13,-11,-5
1533862088895055,-4,-3,-2,-21,-6,-3,-5,-2
1533862088895055,-8,-3,-3,-2,3,-1,0,-1
1533862088903857,-6,-2,-3,4,11,5,2,4
1533862088903857,1,2,7,23,30,8,4,3
1533862088918803,-8,0,3,21,0,1,-4,-21
1533862088918803,-8,-7,-9,-12,-29,-15,-4,8
1533862088919797,-10,-3,-3,-20,-8,-1,-6,-22
1533862088919797,-8,-4,-4,6,-3,-5,-6,-10
1533862088941742,0,1,0,12,10,1,-1,6
1533862088941742,-1,4,3,13,11,2,11,14
1533862088942735,-6,-3,-2,-5,0,-2,-7,-6
1533862088942735,1,1,5,10,-9,3,7,18
1533862088955712,-5,-2,0,-6,9,-1,-4,-11
1533862088955712,-2,-1,-1,-2,-6,-1,-3,-3
1533862088962686,-2,-1,-1,0,7,3,4,6
1533862088962686,0,1,1,3,4,-1,-2,-1
1533862088978643,-2,-4,-7,-7,-9,-5,-2,5
1533862088978643,0,0,-2,6,3,-5,-8,-12
1533862088980639,1,0,-4,-22,0,3,2,6
1533862088980639,1,2,6,24,25,10,1,-4
1533862089001582,-2,1,-3,8,-13,-9,0,0
1533862089001582,-5,-6,-9,-57,-16,-7,-1,14
1533862089002589,1,-5,-5,4,-24,-9,-6,-18
1533862089002589,2,1,1,-2,-3,0,-10,-11
1533862089015544,6,-2,4,4,9,6,-6,-6
1533862089015544,6,4,6,12,17,3,2,6
1533862089022562,0,-3,0,0,4,0,2,4
1533862089022562,-10,-6,-6,-10,-10,-6,3,4
1533862089038522,2,0,-3,3,0,0,-4,0
1533862089038522,-3,0,2,2,-5,-2,-1,-10
1533862089040532,0,0,-1,-1,9,1,1,5
1533862089040532,2,0,-5,3,-3,0,4,-4
1533862089060595,-3,0,-3,-6,2,0,-2,4
1533862089060595,-6,-1,-10,3,-2,-1,-1,-8
1533862089067443,-7,2,-13,-3,-4,0,1,-1
1533862089067443,-3,1,-16,-3,-5,-2,-2,-3
1533862089075423,-4,-3,-10,-1,-2,-4,-3,0
1533862089075423,3,2,4,6,13,10,0,-6
1533862089082405,-2,-3,-3,-5,2,-8,-4,-1
1533862089082405,-3,-4,-3,-2,-18,-7,-8,-1
1533862089098362,-1,-4,6,6,-14,1,3,2
1533862089098362,1,-3,2,-1,-5,-4,-2,-4
1533862089100355,1,1,12,-9,-1,5,6,18
1533862089100355,-1,-4,1,9,12,-4,-3,-16
1533862089121297,-1,-1,1,6,8,-1,-2,-3
1533862089121297,2,1,2,3,4,-1,-2,0
1533862089123293,2,-2,-3,1,-5,-1,-3,-5
1533862089123293,3,0,2,-13,-10,0,1,5
1533862089135263,3,1,4,11,30,6,2,1
1533862089135263,1,-2,-3,-2,6,-6,-1,-5
1533862089142245,2,0,-1,-8,-53,-6,-2,11
1533862089142245,-9,-8,-11,14,-9,-14,-5,-17
1533862089159209,0,0,9,1,2,2,2,-2
1533862089159209,-4,-3,4,4,-5,0,-3,-3
1533862089160194,1,3,2,13,30,9,2,-10
1533862089160194,2,1,-2,-4,5,2,0,11
1533862089181141,-7,-5,-13,-17,-25,-7,-1,-2
1533862089181141,-2,-2,-2,1,9,1,0,1
1533862089183133,-3,-4,-2,-4,-1,-3,2,-22
1533862089183133,-3,-1,2,-4,-6,-5,-3,4
1533862089195103,3,-3,-1,-4,4,0,-1,14
1533862089195103,-4,-1,1,5,-9,-1,-8,-9
1533862089204076,-8,-3,0,3,10,-1,-3,-2
1533862089204076,-2,1,-1,-4,-4,0,1,3
1533862089219039,-1,6,1,0,-1,-2,-3,-5
1533862089219039,19,1,-8,-2,-3,-3,-1,0
1533862089220033,3,-8,-3,10,1,0,1,-4
1533862089220033,-2,4,3,17,34,8,2,3
1533862089240977,-3,-4,-10,-72,-70,-10,1,1
1533862089240977,0,2,1,11,10,-1,0,33
1533862089242972,-12,-8,-10,7,16,0,-12,-31
1533862089242972,13,-4,-3,-11,-52,-5,-4,13
1533862089254943,-4,2,4,22,26,4,3,-3
1533862089254943,-5,-5,-5,-21,-7,-4,1,-3
1533862089270901,-12,4,5,-4,9,1,5,19
1533862089270901,3,-9,5,4,11,1,-5,-13
1533862089278879,13,3,-2,5,0,-2,1,5
1533862089278879,-1,4,5,-7,-13,-5,-2,-15
1533862089279873,57,18,6,8,5,-1,1,30
1533862089279873,-96,-51,-8,-11,-5,-3,1,-21
1533862089300864,23,-7,-4,2,10,-1,-5,12
1533862089300864,8,-3,2,5,4,-3,3,-31
1533862089302813,11,5,1,0,-3,3,-4,-11
1533862089302813,10,14,1,-5,-4,-2,4,3
1533862089314783,-32,-1,0,4,8,1,-4,-3
1533862089314783,-26,-16,-5,4,1,0,-5,-14
1533862089323756,-15,-4,-1,-6,-12,-2,2,6
1533862089323756,17,8,7,-9,-2,-5,-3,-2
1533862089338715,-5,1,3,7,7,-3,1,-2
1533862089338715,16,9,2,13,9,6,4,12
1533862089339713,-21,-3,1,-23,-29,-4,-3,-7
1533862089339713,21,0,1,11,15,3,-1,9
1533862089361658,9,4,-10,-10,-2,-10,-8,-23
1533862089361658,0,3,-1,-8,-5,-1,-1,3
1533862089363649,-6,-8,-2,5,11,3,11,12
1533862089363649,7,-3,4,-4,-10,-6,-15,-17
1533862089374620,-2,-9,3,3,-6,1,5,3
1533862089374620,21,14,2,-8,1,7,-3,-7
1533862089383596,-23,9,-3,5,3,-4,1,-2
1533862089383596,1,-15,-1,9,31,6,3,4
1533862089398737,-6,-6,-7,-24,-42,-6,-6,-1
1533862089398737,3,-7,-2,3,4,-1,-1,-1
1533862089400552,7,2,1,-1,6,-2,-3,6
1533862089400552,-1,11,-3,-8,-15,1,3,6
1533862089421498,-12,-6,0,19,35,4,-1,-6
1533862089421498,-17,-3,-1,-34,-53,-6,-2,0
1533862089422492,-4,-9,-9,13,10,-7,-7,-1
1533862089422492,0,5,-2,-1,0,-1,1,-1
1533862089434463,1,3,-3,5,4,-1,-2,-5
1533862089434463,0,3,1,-1,6,5,4,9
1533862089443439,7,-2,1,2,5,-1,5,22
1533862089443439,6,3,-15,-8,-10,-3,-10,-35
1533862089458526,6,3,-2,0,6,-3,8,28
1533862089458526,-4,-6,-5,9,6,-5,-14,-38
1533862089460523,2,0,3,-6,-7,-2,-3,15
1533862089460523,2,5,-2,3,2,-1,1,-24
1533862089481463,6,2,-1,-2,-5,-2,3,13
1533862089481463,-12,-9,-3,5,5,-5,-2,-10
1533862089482466,3,-4,0,-2,-3,-1,-1,-6
1533862089482466,9,7,5,-6,-4,1,-4,19
1533862089494432,-1,-2,4,5,3,0,-3,-11
1533862089494432,1,-3,2,3,-4,-3,2,12
1533862089503408,-1,0,-1,-9,-10,-4,-5,-17
1533862089503408,1,4,4,8,16,4,3,15
1533862089518572,-2,-3,-1,-17,-11,-4,-5,-12
1533862089518572,0,1,2,30,27,10,8,12
1533862089520359,-1,-2,-1,-18,-12,0,1,-6
1533862089520359,-1,-4,-10,-11,-33,-8,2,3
1533862089541311,2,-2,3,5,-3,-2,-7,-8
1533862089541311,-1,-1,-2,-10,-2,-4,-1,4
1533862089542300,2,-1,-2,4,16,5,-1,-4
1533862089542300,7,2,2,0,-5,3,0,4
1533862089555393,9,2,-2,-1,1,1,5,-3
1533862089555393,5,-4,-2,-3,-4,-3,1,8
1533862089563403,3,-2,-2,5,-3,-3,0,-7
1533862089563403,7,2,0,-5,3,-2,-3,4
1533862089578207,2,-2,-2,9,5,6,3,-2
1533862089578207,1,1,-1,-6,-8,-5,2,8
1533862089585297,-4,-5,-5,-6,-8,-4,-2,-3
1533862089585297,-6,1,-1,3,-4,-3,5,11
1533862089601320,-14,-1,-2,6,8,1,-9,-28
1533862089601320,-10,-3,-4,2,6,-10,-6,-6
1533862089603139,-8,-3,-4,-12,-19,-3,0,-1
1533862089603139,-6,-1,0,10,6,-1,2,5
1533862089615105,-4,-1,2,4,-3,3,5,6
1533862089615105,-5,-1,-2,-6,3,0,-3,1
1533862089624227,-4,-1,0,4,3,-1,-1,-5
1533862089624227,-2,-1,0,-4,-3,-3,-3,-2
1533862089638226,-1,0,1,1,-2,0,1,2
1533862089638226,2,2,0,-1,-6,4,1,-1
1533862089645206,-1,-3,-5,-2,13,1,-4,1
1533862089645206,0,-1,-2,-4,-7,-1,1,-1
1533862089661128,0,-1,-3,0,4,0,-3,3
1533862089661128,-1,-4,-1,-5,-12,-7,-2,0
1533862089663157,0,0,3,8,5,4,3,3
1533862089663157,1,1,5,-3,2,5,-6,-4
1533862089684103,-2,-2,-4,-15,0,-6,-2,-11
1533862089684103,-7,-3,-2,-4,-13,-4,-8,-2
1533862089685074,-1,1,-2,3,5,5,6,6
1533862089685074,-6,-1,-3,0,3,-2,0,-25
1533862089697066,0,-2,-3,2,0,-3,-2,10
1533862089697066,-1,-4,-6,-4,2,3,-2,-3
1533862089706024,1,-1,0,-1,-6,-6,-6,-6
1533862089706024,-2,-4,-7,-6,2,-3,-2,7
1533862089720989,1,1,2,1,5,-1,0,-2
1533862089720989,-4,-4,-4,-5,-15,-5,-4,-6
1533862089722963,-1,2,1,1,-8,-6,-6,-1
1533862089722963,-3,0,-2,0,15,5,1,5
1533862089743910,-2,-1,-2,-7,-7,-2,-1,1
1533862089743910,2,2,2,7,11,5,5,7
1533862089744925,-2,-2,0,-9,-10,-4,-2,-6
1533862089744925,-1,-3,-2,1,1,-5,-4,-1
1533862089757885,-1,-1,-2,0,-2,-4,0,1
1533862089757885,-4,-3,-7,-21,-14,-2,-3,-2
1533862089764988,2,2,1,-1,1,0,0,-3
1533862089764988,-2,0,-5,-1,-2,-5,-3,-2
1533862089781806,-2,0,-2,4,0,3,2,1
1533862089781806,2,2,4,12,7,0,7,4
1533862089782803,-4,-6,-5,-8,5,2,-5,-6
1533862089782803,2,-2,0,0,-5,-3,1,1
1533862089803750,-1,-2,-3,1,-13,-3,-7,-1
1533862089803750,1,2,0,-4,2,2,2,1
1533862089804744,-6,-3,-6,0,-7,-5,-1,-6
1533862089804744,-1,-2,0,0,3,2,0,-1
1533862089817713,0,0,0,-3,3,4,3,1
1533862089817713,-1,0,3,13,5,-3,-3,0
1533862089824693,-1,0,-1,2,2,4,0,3
1533862089824693,-2,-2,-2,-15,-18,-6,0,-3
1533862089841649,-3,-1,-4,-1,-8,-6,-5,-5
1533862089841649,-3,-1,-2,-3,9,4,3,-1
1533862089842643,1,-1,1,8,2,1,0,-1
1533862089842643,1,1,3,2,5,-1,-3,4
1533862089863601,-1,0,-1,-3,2,-2,0,0
1533862089863601,1,-1,-2,-8,-7,-1,-5,1
1533862089865581,1,-1,-1,5,1,1,-2,-2
1533862089865581,1,-1,-1,4,2,0,0,-1
1533862089877561,0,-2,-2,-11,-4,-3,-4,3
1533862089877561,-3,-3,1,7,-1,-1,-2,-1
1533862089884553,-4,-2,-2,-6,-1,-3,0,2
1533862089884553,-4,-3,-1,0,-4,-1,0,1
1533862089901485,-7,-6,-6,-4,-5,-5,-5,-9
1533862089901485,-1,-1,-3,-6,-1,-2,-4,-1
1533862089902484,3,0,3,7,5,7,7,2
1533862089902484,0,3,2,7,8,4,5,3
1533862089923439,-3,-7,-2,0,-4,-3,-5,-4
1533862089923439,0,-1,-3,0,-1,1,2,-1
1533862089925422,-5,-3,-5,-6,-7,-7,-7,-8
1533862089925422,1,1,1,-7,0,-1,-2,1
1533862089938387,1,1,6,-1,2,2,2,6
1533862089938387,-2,0,1,4,-2,-3,-3,-2
1533862089944374,1,1,-1,3,6,2,5,3
1533862089944374,-2,-1,-2,-6,-13,-4,-3,-4
1533862089961329,-1,-3,-1,0,-6,-1,1,-2
1533862089961329,1,1,0,17,11,-3,-2,0
1533862089962323,-3,-3,-4,-12,1,-3,-7,-4
1533862089962323,-2,-1,-4,-6,-15,2,4,-3
1533862089983267,2,-1,1,8,10,-2,1,2
1533862089983267,-2,-1,0,1,-1,1,-3,0
1533862089985262,0,-2,-2,-6,-5,1,3,0
1533862089985262,-1,1,3,6,9,3,-1,1
1533862089998227,-4,-4,-7,-15,-16,-13,-8,-8
1533862089998227,2,1,-1,-3,0,8,8,5
1533862090005208,0,-1,0,2,1,-1,-1,0
1533862090005208,2,3,4,4,1,-2,0,3
1533862090029144,-3,-1,-1,2,1,3,-2,-3
1533862090029144,-5,-3,-3,-5,-6,-6,-7,-6
1533862090030143,0,0,1,-6,-4,-2,-3,-1
1533862090030143,-3,-7,-7,-6,-1,-3,0,-3
1533862090051088,4,3,5,13,7,7,3,5
1533862090051088,-5,-5,-6,-2,-2,0,-1,-3
1533862090053080,-2,-3,-3,4,3,-2,-4,-2
1533862090053080,0,1,4,-3,4,-6,0,-5
1533862090058067,-2,2,-3,-18,-12,1,2,0
1533862090058067,-1,-2,-3,5,-9,-8,-10,-7
1533862090065051,1,1,0,10,16,5,10,8
1533862090065051,0,-2,-1,7,-20,5,-3,0
1533862090081008,2,2,4,6,7,2,0,6
1533862090081008,-6,-3,-5,-14,-8,-10,-4,-5
1533862090083000,-5,-3,-6,-4,-5,-9,-9,-9
1533862090083000,-1,-1,-1,-2,4,-3,-2,0
1533862090104030,2,0,3,2,5,1,-3,0
1533862090104030,1,-1,-2,-1,-6,-3,2,-1
1533862090104940,1,0,2,-6,-3,1,-3,3
1533862090104940,2,-3,-1,-6,-2,1,-1,0
1533862090118017,-1,0,-2,5,1,-2,1,-2
1533862090118017,1,0,-1,-3,9,0,2,-3
1533862090124891,-2,-3,-1,2,-3,-5,-2,-3
1533862090124891,-2,-4,-4,-6,-1,0,2,1
1533862090140849,-3,-3,-4,5,5,3,-2,-2
1533862090140849,2,1,0,-8,5,-1,-3,0
1533862090142841,-1,-2,-4,-3,-5,2,0,-2
1533862090142841,-2,-1,-7,-2,-6,-10,-8,-5
1533862090163784,-1,-3,-10,0,2,-3,3,3
1533862090163784,-1,0,-9,0,3,13,6,2
1533862090164781,1,3,-1,2,-10,-5,-2,2
1533862090164781,-8,-9,-11,-10,-6,-2,-8,-9
1533862090177750,-2,-2,2,4,1,-5,-3,-3
1533862090177750,0,0,6,-4,-2,2,2,1
1533862090186722,-2,-3,3,-4,-7,-6,-3,-6
1533862090186722,5,5,9,4,13,8,2,11
1533862090200685,-2,0,1,6,-5,0,3,11
1533862090200685,-2,-1,1,-8,-1,-4,-5,-13
1533862090202680,2,2,-2,0,-3,-2,-3,-12
1533862090202680,-1,-2,-7,1,-3,-6,4,28
1533862090223624,-3,-3,-1,1,0,4,-2,-25
1533862090223624,-1,-1,-2,6,2,-5,-2,-3
1533862090225619,3,2,-2,-1,15,8,1,13
1533862090225619,-1,-1,0,1,1,-3,0,-1
1533862090237586,2,2,2,-3,-3,-1,7,-1
1533862090237586,-6,-3,-4,-6,-10,-5,-1,-8
1533862090246566,-2,-5,-4,0,-1,-4,-6,9
1533862090246566,2,-1,-5,1,3,2,4,5
1533862090261538,-3,-3,-10,-6,-5,-1,-4,-8
1533862090261538,-2,-4,-10,1,3,0,-4,6
1533862090262519,3,1,-5,1,-4,-3,2,-9
1533862090262519,7,3,-1,1,3,-2,11,43
1533862090283468,-18,-3,-7,-7,-5,-5,-15,-68
1533862090283468,-7,-2,-3,4,5,3,-7,-3
1533862090285458,-3,-3,-1,0,-4,-1,-1,18
1533862090285458,-2,2,-3,-3,0,4,-10,-31
1533862090297430,4,-1,6,-2,-3,0,3,24
1533862090297430,2,0,10,-1,-2,-2,3,7
1533862090306403,-6,-1,16,-2,-5,-5,-3,-17
1533862090306403,1,0,11,1,2,-1,3,0
1533862090321365,0,-3,32,-4,-6,-4,-1,8
1533862090321365,-2,-3,110,-5,-3,-3,-2,-7
1533862090322361,3,-1,124,-5,-3,3,-4,8
1533862090322361,-1,1,88,1,-4,-2,-4,-12
1533862090344301,2,1,5,-1,3,2,0,11
1533862090344301,0,0,-66,3,0,-2,2,1
1533862090345308,-3,-1,-86,-2,4,-1,-3,-7
1533862090345308,-3,-2,-73,-9,-10,-5,-1,-11
1533862090357270,0,-1,-47,5,2,1,-4,2
1533862090357270,3,-4,-35,-10,-6,-1,0,7
1533862090366242,-1,-2,-32,2,-2,-2,0,-5
1533862090366242,-4,-4,-68,2,3,-1,-4,-12
1533862090380208,2,-2,-75,-2,1,-4,0,10
1533862090380208,2,-1,-20,5,1,1,2,1
1533862090387189,-1,0,28,-1,-3,-2,0,-2
1533862090387189,-4,-2,81,-4,-3,-2,-1,-6
1533862090403290,-1,1,48,-3,-2,-3,0,0
1533862090403290,1,0,-4,1,2,2,-2,-2
1533862090405138,-2,-2,-30,1,-5,0,-2,-5
1533862090405138,-3,-4,-25,0,2,-3,-4,-4
1533862090417106,1,-4,-4,0,-4,2,0,4
1533862090417106,-3,-4,-6,-1,0,2,5,-3
1533862090426083,2,-1,6,3,-4,-3,-3,5
1533862090426083,-1,-2,11,0,-3,0,-1,-2
1533862090441045,0,-3,41,-2,0,-5,-8,0
1533862090441045,-1,-2,12,-2,-2,-4,0,0
1533862090448027,0,-1,-5,-4,1,1,5,-2
1533862090448027,-2,-1,5,0,-1,-1,-2,-5
1533862090470965,-1,2,40,-3,-2,-3,0,0
1533862090470965,0,0,-13,-1,2,0,-1,2
1533862090472957,-2,-1,-23,-1,2,-1,-1,0
1533862090472957,-2,-4,-17,-3,0,-1,-2,-4
1533862090476946,-1,-1,-34,-2,-1,0,0,0
1533862090476946,0,1,-26,3,0,-5,-3,-1
1533862090485925,1,-1,76,0,-1,4,2,1
1533862090485925,-1,-1,20,1,-3,1,5,9
1533862090499898,-2,0,54,-1,1,2,-2,-7
1533862090499898,1,1,26,0,-2,-5,-3,9
1533862090508865,-5,-3,-58,-2,-2,-4,-3,-12
1533862090508865,-1,0,-10,-1,-1,0,0,-1
1533862090523822,1,0,-2,-1,0,-2,-7,-3
1533862090523822,0,0,-11,-3,-11,-2,3,3
1533862090524822,-1,0,-46,4,-1,0,0,0
1533862090524822,2,-2,-8,-5,-2,-3,-5,-3
1533862090537887,0,-1,-18,-5,6,7,6,4
1533862090537887,-4,-1,-15,2,-3,-5,-3,-7
1533862090546761,-1,-2,-6,-2,-2,1,1,-1
1533862090546761,-3,-1,-3,5,5,-6,-9,-7
1533862090560723,1,-2,-20,-7,-9,2,-4,7
1533862090560723,-2,-4,6,-2,0,-4,-1,-1
1533862090562716,-3,-3,-17,-2,0,2,2,1
1533862090562716,-2,-2,-5,1,0,0,-2,-3
1533862090583664,0,0,0,-2,-3,-5,3,1
1533862090583664,1,-1,18,0,-1,-2,-6,-5
1533862090585656,0,0,-8,1,-7,-3,0,-1
1533862090585656,-1,-2,-11,-1,7,6,6,1
1533862090606620,-2,0,4,-3,1,-7,-5,1
1533862090606620,-2,0,9,6,4,3,4,-1
1533862090607598,-3,-1,-6,-2,-5,-5,-7,-4
1533862090607598,-1,1,4,1,-5,-5,-4,-5
1533862090621744,2,1,-12,3,7,10,6,11
1533862090621744,-2,-3,-6,-3,0,0,-1,0
1533862090622558,-2,-2,-15,-3,1,0,-1,-2
1533862090622558,-2,0,-6,-4,-8,-3,0,-3
1533862090643505,-2,-5,-2,0,-4,-6,-2,-6
1533862090643505,0,2,-9,-3,0,-4,-10,-3
1533862090645505,3,1,2,8,30,12,1,6
1533862090645505,0,-1,-15,-10,-29,1,14,4
1533862090666439,0,1,-3,8,0,-2,-1,-3
1533862090666439,-3,-1,-6,-5,-5,-2,-3,-3
1533862090667457,-2,-1,5,-5,-6,-6,-5,-5
1533862090667457,2,-1,1,2,9,-2,-1,8
1533862090681605,-3,-3,-15,-2,-2,-4,-6,-12
1533862090681605,0,-2,4,3,1,2,1,-1
1533862090682396,-2,-1,-11,-6,-4,-5,-3,2
1533862090682396,-3,-2,-9,-2,1,0,-4,-4
1533862090703345,-1,0,4,1,-3,0,2,5
1533862090703345,0,0,-3,-3,2,-1,1,0
1533862090705336,-1,-1,-13,-3,-7,-2,0,-4
1533862090705336,-1,0,-1,-1,2,-2,-5,-1
1533862090726283,-2,0,3,1,2,-1,-4,0
1533862090726283,-1,-2,-7,-2,1,1,1,-2
1533862090727277,0,-1,0,-1,-5,-2,0,1
1533862090727277,-1,-2,-2,3,3,1,-3,-4
1533862090748224,-2,-1,-28,-2,0,0,-2,-2
1533862090748224,-3,1,-3,-4,-7,-2,-1,-3
1533862090750216,-1,-1,-5,2,-2,-1,0,-1
1533862090750216,0,-2,-6,1,7,-5,-15,-1
1533862090763187,-2,-2,0,2,2,1,5,1
1533862090763187,-1,-1,-7,-2,-4,-1,4,4
1533862090765175,-2,-1,-4,-3,-6,-1,1,-4
1533862090765175,-2,0,4,0,-3,-2,-3,-4
1533862090786123,-1,0,9,-11,1,-3,-3,0
1533862090786123,-2,-1,-8,-3,-7,-2,-2,-3
1533862090788114,-1,-1,4,0,-4,-1,4,0
1533862090788114,0,-1,-5,-2,6,3,-4,-3
1533862090801083,2,-1,-6,3,-1,-1,2,0
1533862090801083,0,0,-8,-1,2,2,-1,0
1533862090807080,-1,-2,-13,-3,-5,-2,-4,-3
1533862090807080,-2,-4,0,-3,-2,-2,1,-1
1533862090824022,-1,-2,5,2,5,-1,3,2
1533862090824022,-1,-2,-3,2,-2,1,-3,0
1533862090825026,-1,0,0,1,1,0,-2,-2
1533862090825026,-1,-2,-3,-2,2,0,-1,-2
1533862090845963,-3,-1,-3,-5,-9,-6,-3,-5
1533862090845963,-1,-1,3,-1,4,2,0,1
1533862090847954,0,0,1,-1,2,0,-1,2
1533862090847954,-2,-2,-5,-2,-4,-3,1,-4
1533862090860923,-1,-2,-16,-3,-6,-4,-2,-1
1533862090860923,-1,-3,0,2,-1,1,1,-2
1533862090867962,-4,-2,-6,-6,-5,-4,-1,-4
1533862090867962,0,-2,-1,-2,-5,-3,-3,-1
1533862090883876,0,-2,1,0,0,-1,-5,-2
1533862090883876,-1,-2,-7,-2,-4,-3,-1,0
1533862090884855,0,0,-7,0,1,-1,0,0
1533862090884855,-2,1,-3,0,0,0,1,-1
1533862090905799,0,0,3,3,-6,2,0,0
1533862090905799,-2,-1,-7,-1,-1,-2,0,-2
1533862090907808,-1,-2,-6,-4,1,3,-1,0
1533862090907808,-1,-1,-2,1,-3,-1,-2,-1
1533862090920762,-2,0,8,-3,-1,0,0,0
1533862090920762,-2,-1,11,-1,0,-1,-4,-3
1533862090927744,-1,-1,11,-1,-2,-3,0,-4
1533862090927744,0,-3,4,-1,1,1,1,2
1533862090943701,-2,-1,5,-1,0,1,-3,-1
1533862090943701,-2,-2,5,-4,-3,-2,0,0
1533862090945692,0,-2,3,1,-2,0,-2,-1
1533862090945692,-2,0,-5,-2,0,-4,1,-3
1533862090966640,0,-2,8,-1,0,-1,-1,1
1533862090966640,1,0,4,-2,-1,-3,-3,-2
1533862090967634,-2,1,2,0,3,-2,0,3
1533862090967634,-2,-1,-1,-2,-6,-2,-4,-3
1533862090979606,0,-2,-1,0,-1,5,5,0
1533862090979606,0,-1,-1,-1,2,-3,-4,3
1533862090988578,-2,-2,-8,1,-1,1,-1,0
1533862090988578,-1,-1,-8,0,0,-2,-1,-1
1533862091003541,-2,-3,-8,0,2,-4,-3,-3
1533862091003541,-1,-1,-12,-1,-9,-1,2,-1
1533862091005539,-1,-2,-18,-2,-2,-4,-1,-4
1533862091005539,0,-5,-16,-4,2,1,-1,0
1533862091026480,-2,-3,-128,-1,1,-3,-1,0
1533862091026480,-3,-4,-125,0,1,1,-2,-3
1533862091028471,-3,-3,-105,2,0,-2,-2,-2
1533862091028471,-4,0,-125,0,-1,-1,1,-3
1533862091040455,-4,-2,-127,-1,-3,-1,2,-2
1533862091040455,-5,-1,-107,-1,3,-3,0,-2
1533862091047424,-4,1,-7,-1,0,-1,-3,-1
1533862091047424,-4,-1,63,0,6,-2,-1,2
1533862091063378,-4,-2,127,-1,3,-2,0,-4
1533862091063378,-2,-2,127,2,0,1,-3,-3
1533862091065373,0,-1,112,-1,-4,-4,-2,4
1533862091065373,-1,7,97,0,1,1,1,-4
1533862091086316,1,13,100,-3,-3,0,-2,2
1533862091086316,1,6,78,-4,-3,0,0,-2
1533862091087324,2,-1,60,-2,-5,-7,-5,0
1533862091087324,2,-5,51,-2,-1,-1,-5,2
1533862091099299,2,-4,30,-1,-11,0,3,1
1533862091099299,0,-4,30,0,1,-1,-3,2
1533862091109257,1,-4,33,-1,-3,0,1,0
1533862091109257,0,-2,3,3,-5,-4,-2,-2
1533862091123218,0,0,4,0,-1,-1,-4,-5
1533862091123218,-1,-2,18,-1,-2,-2,-2,-2
1533862091125228,1,-1,12,0,-2,1,-1,-3
1533862091125228,0,-2,-6,-3,-2,-2,0,-2
1533862091146245,-2,-5,2,-1,0,-5,-2,-1
1533862091146245,-2,-1,14,0,0,-1,0,0
1533862091148160,-1,0,0,-4,1,2,0,-2
1533862091148160,-1,-1,-6,-1,-1,2,0,1
1533862091160120,-2,-3,5,0,0,-2,0,-3
1533862091160120,-2,-1,2,-3,-1,-2,1,-2
1533862091169095,-2,0,-2,-1,-1,-3,-2,-4
1533862091169095,1,-1,-2,-1,-1,-1,3,3
1533862091184076,3,-2,2,2,1,0,-2,1
1533862091184076,-1,-2,1,-2,-3,-1,-1,-1
1533862091185054,-2,0,11,-1,0,0,-2,0
1533862091185054,-2,-1,36,-2,-3,0,-3,-2
1533862091206013,-1,1,33,-3,0,-1,-3,-1
1533862091206013,-1,1,32,0,2,-2,-1,-1
1533862091207991,-1,-3,24,1,-3,-1,1,-3
1533862091207991,-1,-1,7,-2,-1,1,1,-1
1533862091219962,-2,-1,10,0,-2,0,0,-2
1533862091219962,0,0,9,-3,-3,-3,-4,-1
1533862091228947,0,-2,13,-2,1,-1,-1,-1
1533862091228947,-2,-2,5,1,-3,-1,0,-1
1533862091243895,-1,1,3,-2,-1,1,2,-1
1533862091243895,-3,-2,-3,0,-2,-2,-3,-2
1533862091244899,-2,-1,-5,0,0,0,0,1
1533862091244899,-3,-2,-3,0,0,-3,-2,-2
1533862091265840,-4,-2,-9,0,0,1,0,-1
1533862091265840,-2,0,-25,-2,-1,-3,2,-3
1533862091267831,-1,4,-19,0,4,4,1,3
1533862091267831,-3,-1,-21,-2,-2,-3,0,-2
1533862091279814,-3,-3,-10,-3,-1,-6,-4,-1
1533862091279814,0,-2,4,0,0,-1,-1,0
1533862091288774,-1,0,8,-1,-3,-2,0,-4
1533862091288774,1,2,5,-2,-2,-2,-2,-3
1533862091303859,-1,0,7,-3,-1,1,0,3
1533862091303859,1,-1,34,6,-1,1,-3,-4
1533862091305738,1,-1,18,-9,-5,-2,-2,3
1533862091305738,1,-1,10,3,-1,1,-1,-1
1533862091325679,0,0,5,5,-3,-2,-2,0
1533862091325679,-5,-2,10,-5,-4,1,2,12
1533862091327672,9,5,5,5,0,-1,-3,-13
1533862091327672,-1,-3,-3,-6,-3,-2,0,0
1533862091339652,0,-2,-13,0,-2,-4,-5,-3
1533862091339652,-2,-1,-6,-2,1,4,2,0
1533862091348618,-1,-2,-12,3,1,0,0,0
1533862091348618,-1,-3,-25,-4,-2,-1,1,-2
1533862091363578,1,0,-10,0,-2,-3,0,-4
1533862091363578,3,-3,-16,-2,-2,-2,-2,-3
1533862091365570,-3,-2,-12,-4,-1,-1,-2,3
1533862091365570,0,-1,-10,1,1,-2,-3,-1
1533862091386513,-5,-1,-11,-3,-1,-2,0,-1
1533862091386513,-3,0,-9,-2,0,1,-4,-5
1533862091387511,-3,-2,-10,-3,0,-2,-1,-2
1533862091387511,-5,0,-4,0,3,1,-2,-2
1533862091399512,-1,-2,1,1,1,-3,-1,-2
1533862091399512,0,-1,-4,-3,0,-3,1,-1
1533862091408458,-4,-2,-2,0,0,2,1,1
1533862091408458,0,1,6,3,0,-2,2,5
1533862091423415,-9,-5,7,-3,-3,-3,-5,-9
1533862091423415,5,1,2,6,-1,-4,-2,-6
1533862091425410,-2,-2,2,-3,-2,-3,-1,1
1533862091425410,2,1,5,-1,0,1,-3,0
1533862091446353,2,0,-4,-4,-3,-1,1,3
1533862091446353,-2,0,-8,-2,-3,-3,0,-1
1533862091447354,-3,-4,-8,-1,-3,-4,-2,-4
1533862091447354,1,0,-8,-1,-1,-1,-1,-2
1533862091460319,-1,-1,-5,-1,1,0,0,-1
1533862091460319,-3,-3,-6,-3,4,1,-1,0
1533862091468298,-1,0,-5,2,2,-1,-2,1
1533862091468298,-2,-3,-9,-1,-2,1,2,-3
1533862091483255,1,-2,-5,-7,-4,-3,-2,0
1533862091483255,-1,-1,-2,-1,-1,0,-1,-1
1533862091485249,1,-2,-3,-3,3,-1,1,0
1533862091485249,-2,-3,-3,-1,4,-5,-2,-2
1533862091506194,0,2,-2,5,-1,13,9,4
1533862091506194,-6,-3,-10,0,-3,-5,-6,-6
1533862091508190,-3,-1,-5,-15,-1,0,-2,-3
1533862091508190,-2,1,-3,0,-17,-7,-6,-2
1533862091520159,0,-1,-7,-1,20,-1,0,0
1533862091520159,-3,0,-5,8,-15,-7,4,1
1533862091529132,-1,0,-1,1,-5,1,1,-2
1533862091529132,-2,-1,-1,-7,-2,-1,-2,-2
1533862091543124,-2,-2,-3,-1,0,-2,-5,-3
1533862091543124,0,-2,0,-1,1,3,-1,1
1533862091550105,1,-1,-2,7,2,-2,1,-2
1533862091550105,2,1,-1,-13,-1,1,2,1
1533862091566033,-5,-5,-6,-6,-8,-7,-8,-6
1533862091566033,0,-4,-3,-3,3,-3,0,1
1533862091568028,1,-1,-1,-1,-5,-1,0,0
1533862091568028,-1,-2,-2,2,3,0,-1,-3
1533862091588972,0,0,-1,-2,-4,1,3,1
1533862091588972,1,-4,-1,-4,1,-3,-1,-1
1533862091589969,-10,-4,-5,0,-2,-1,-3,-4
1533862091589969,-3,2,-4,3,2,3,0,-4
1533862091602980,13,3,0,-3,-5,2,-4,1
1533862091602980,0,0,-1,1,-1,2,0,-2
1533862091609923,-2,-2,-2,-3,1,-1,1,1
1533862091609923,-5,-5,-5,1,-1,-2,-1,-4
1533862091625876,-5,-4,-2,12,-2,-6,-3,-3
1533862091625876,-3,-1,-3,-35,-8,-1,-2,-2
1533862091627869,2,3,-1,0,-6,-6,-1,0
1533862091627869,0,-1,-1,-4,-1,0,-1,1
1533862091648812,0,1,0,0,3,5,5,0
1533862091648812,-1,0,-1,9,3,-3,-2,-2
1533862091649810,-1,-2,-3,2,-2,-1,-4,-2
1533862091649810,2,0,-1,0,-3,-2,0,-1
1533862091662778,-2,0,1,0,-1,0,1,1
1533862091662778,-3,0,-5,0,1,-3,-5,-3
1533862091671751,2,1,3,7,6,4,-2,1
1533862091671751,-4,-6,-6,-8,-8,-7,-5,-4
1533862091685719,-3,0,-3,6,-7,-4,-1,0
1533862091685719,-1,0,-1,-2,-1,0,0,-1
1533862091687709,2,-5,2,2,1,-2,0,1
1533862091687709,-3,0,-3,6,1,-5,-6,0
1533862091708655,-3,-2,1,-3,1,0,1,-1
1533862091708655,-1,-2,-5,2,-4,1,-2,-2
1533862091710647,1,4,-3,4,0,3,-2,-1
1533862091710647,8,-7,1,0,2,2,2,1
1533862091722615,1,-12,-3,-7,-2,-2,-1,-1
1533862091722615,-5,0,-3,3,4,0,2,0
1533862091731606,-4,-1,-26,-6,-4,-4,-2,-3
1533862091731606,-12,3,34,5,-3,0,2,-1
1533862091746554,59,13,3,-2,-1,1,2,5
1533862091746554,-19,4,3,2,-3,-3,-2,-2
1533862091747548,47,15,3,-2,-2,3,4,6
1533862091747548,-98,-62,-32,-12,-3,-4,-9,-19
1533862091768492,-9,-3,-3,3,5,0,-4,-6
1533862091768492,7,-6,5,0,-2,0,-2,1
1533862091770487,2,4,6,-1,1,0,2,1
1533862091770487,28,23,-1,3,1,-1,3,5
1533862091783451,-22,-2,-1,-7,-5,-4,-3,-2
1533862091783451,4,3,-5,-1,1,0,2,1
1533862091789437,-10,5,2,-5,-3,-5,-3,-2
1533862091789437,17,8,-2,2,2,2,0,2
1533862091806391,-22,-4,-4,-5,-1,-1,-1,-5
1533862091806391,7,3,-3,5,0,-1,-1,0
1533862091807388,-8,-14,0,-3,1,-2,0,-5
1533862091807388,5,0,-3,-3,1,-2,1,3
1533862091828335,4,-1,2,0,2,-1,-3,4
1533862091828335,11,7,-3,3,-4,-2,-5,-2
1533862091830326,-25,-14,1,1,-1,1,-1,-5
1533862091830326,14,11,-3,-2,0,-1,-2,0
1533862091843476,-4,7,2,-1,-2,1,3,3
1533862091843476,-9,-28,-5,0,2,1,1,-2
1533862091857255,2,1,-9,-16,-4,-5,-2,-2
1533862091857255,14,14,38,8,-3,1,1,2
1533862091873213,-16,-10,-1,3,-1,-2,-4,-2
1533862091873213,-16,-8,2,-4,4,0,-4,-5
1533862091875208,5,-2,-1,2,-5,-1,-2,-2
1533862091875208,6,0,-1,0,7,3,1,3
1533862091889170,6,-4,-16,6,-8,-6,-3,-1
1533862091889170,3,18,4,0,-1,0,1,2
1533862091890167,-1,-4,-4,-1,-6,-3,-1,6
1533862091890167,4,1,-6,-4,1,4,2,-2
1533862091903137,-5,-6,-3,-1,5,-2,-7,-15
1533862091903137,-19,-2,-5,-2,-2,-1,-1,-10
1533862091910133,-10,-17,2,2,0,0,-3,-6
1533862091910133,13,4,-8,-3,1,0,1,1
1533862091926074,0,-2,3,-4,-7,-6,-1,2
1533862091926074,2,-1,-3,-1,-2,-3,1,5
1533862091928066,4,6,1,-3,-1,-2,0,0
1533862091928066,-7,-4,-7,-1,-1,0,1,1
1533862091949009,-4,-1,-5,-6,0,1,0,-1
1533862091949009,10,2,2,-5,-1,-1,-1,1
1533862091950016,-9,-2,0,1,-4,-2,-4,-4
1533862091950016,5,-1,-7,-3,0,2,-1,0
1533862091962974,0,2,3,1,0,-3,2,-1
1533862091962974,4,-1,2,-5,-2,-4,-3,2
1533862091969956,-3,0,1,9,-2,5,4,2
1533862091969956,-4,-4,-11,-5,-9,-6,-5,-2
1533862091985910,0,1,-4,-5,-1,1,0,-3
1533862091985910,6,-8,4,1,0,1,0,1
1533862091987905,-23,8,-5,-6,4,-2,-4,-3
1533862091987905,4,-4,-1,2,0,0,-2,-2
1533862092008849,-1,-3,-8,-5,-2,0,-2,0
1533862092008849,27,7,-9,-7,0,0,-2,2
1533862092009852,17,-15,15,6,0,0,-1,-1
1533862092009852,-31,6,10,5,0,-2,-1,-6
1533862092022812,-10,-4,5,1,2,-3,0,-2
1533862092022812,8,-3,-3,0,1,-2,0,-2
1533862092029796,3,4,2,-4,-3,-1,0,0
1533862092029796,9,-1,0,-1,-2,-3,0,1
1533862092045767,10,1,-12,-6,-2,1,0,0
1533862092045767,-19,2,3,8,-1,1,1,-2
1533862092047746,-1,2,-5,7,6,-2,-1,1
1533862092047746,-2,-3,-10,-9,-8,-1,0,-2
1533862092067895,-10,0,-2,-19,-22,-6,-1,0
1533862092067895,-2,-2,0,-5,1,1,0,3
1533862092068690,-8,-2,-4,5,0,-2,-3,-3
1533862092068690,6,-2,-3,10,8,1,3,0
1533862092090634,5,-2,16,5,4,-2,-4,1
1533862092090634,-7,-2,-11,-3,-7,-3,-3,-4
1533862092091628,4,-9,3,-1,1,0,1,1
1533862092091628,3,2,0,-4,-2,1,-1,3
1533862092105590,-23,-9,-17,3,0,0,2,-3
1533862092105590,2,-1,5,3,1,-3,-2,-2
1533862092106598,-2,3,-10,-2,-4,-3,-2,-2
1533862092106598,4,-1,-2,-7,-8,-5,-3,1
1533862092128532,10,7,8,4,0,2,-1,1
1533862092128532,-9,-6,-9,-6,1,1,2,-5
1533862092128532,-4,2,4,-9,-4,-2,0,0
1533862092128532,2,-2,1,1,4,1,0,-2
1533862092150471,2,0,-1,5,10,-1,-3,-2
1533862092150471,-7,0,4,-4,-15,-5,0,0
1533862092151468,0,-4,0,-3,-1,1,-1,-2
1533862092151468,-2,2,7,-5,-1,-2,1,-1
1533862092165440,-4,-5,-10,11,3,2,-2,-5
1533862092165440,-2,-3,-6,-1,2,0,-2,-2
1533862092166429,-2,2,-3,-5,-4,-4,-2,-2
1533862092166429,1,-4,0,3,6,3,-3,2
1533862092188506,-2,1,7,-3,0,-2,0,1
1533862092188506,0,-2,1,1,-2,-2,-2,-1
1533862092188506,0,7,2,-4,-3,-1,-1,-1
1533862092188506,-8,0,-11,-2,-2,-3,-2,-4
1533862092210519,4,-1,10,6,-1,0,-1,1
1533862092210519,-4,-1,-6,3,-1,-2,-2,4
1533862092211446,-2,-3,-1,-6,20,3,-3,-6
1533862092211446,-7,-6,-14,-10,-7,2,-1,-6
1533862092225409,2,2,8,5,-18,-11,2,0
1533862092225409,1,-2,-3,-8,-5,-2,-2,0
1533862092226434,2,4,4,-5,-5,1,0,3
1533862092226434,0,0,-3,8,5,-6,-4,-1
1533862092248349,-2,0,3,0,7,4,-3,0
1533862092248349,0,-1,-9,0,2,-1,-1,-3
1533862092248349,0,-8,-1,4,1,-1,0,-1
1533862092248349,1,8,-3,-4,0,1,1,-3
1533862092270333,-1,-1,-1,-11,-2,1,0,-2
1533862092270333,-2,-2,4,3,0,-2,-3,-3
1533862092271290,-2,-4,-4,1,-2,-1,-3,0
1533862092271290,1,-2,2,3,-2,-3,0,-1
1533862092285251,1,3,-5,-5,-2,0,-3,-2
1533862092285251,-1,-1,1,-2,2,1,1,-2
1533862092286245,-2,-3,-2,15,2,-4,-1,-3
1533862092286245,1,-4,4,-16,3,-1,-5,1
1533862092308187,-2,-2,-8,-19,-14,-3,-1,-1
1533862092308187,-1,-3,-3,-3,-9,0,-1,-2
1533862092309197,-4,-1,-3,-1,-8,-1,1,-2
1533862092309197,-1,0,0,10,-1,-2,-1,-2
1533862092331126,-4,0,-1,3,12,1,-2,-1
1533862092331126,0,2,8,3,5,1,-1,0
1533862092332164,0,-3,-9,0,-7,-3,-1,-1
1533862092332164,-3,-3,-8,-8,-5,-1,-1,-1
1533862092345121,1,-3,-1,3,5,0,-2,-1
1533862092345121,-2,-2,2,-6,-20,-1,0,-2
1533862092346086,1,1,1,-13,4,3,1,0
1533862092346086,1,-2,0,1,-5,-2,-4,-1
1533862092368027,1,-2,-3,3,11,-2,-1,-1
1533862092368027,0,0,0,10,-3,1,-1,1
1533862092369025,-1,0,0,-10,-5,-4,-1,-2
1533862092369025,-3,-1,-2,1,-3,-1,1,1
1533862092391962,-3,-1,-2,-14,-16,0,-2,0
1533862092391962,0,-3,-3,2,10,0,-2,-3
1533862092391962,0,0,-4,-3,-2,-1,-2,-1
1533862092391962,1,-1,0,5,4,0,1,-1
1533862092413921,-1,0,3,4,3,0,0,0
1533862092413921,-2,-3,-8,-8,2,-2,-2,0
1533862092414901,-2,-3,-2,-1,-14,-6,-1,0
1533862092414901,-2,-1,-2,0,-1,-3,0,1
1533862092427893,-1,-4,-4,2,1,0,0,-3
1533862092427893,-1,0,2,6,9,-2,-3,-1
1533862092428865,3,1,9,12,19,5,-2,-2
1533862092428865,-1,-3,-13,-3,1,-2,-2,1
1533862092450832,-1,1,2,21,-3,0,1,3
1533862092450832,-1,-2,-11,-50,-22,-3,-3,-2
1533862092450832,-3,1,-4,2,-6,-3,-5,-2
1533862092450832,-2,1,1,2,5,2,-1,-4
1533862092465765,0,-7,-3,3,6,0,-1,-1
1533862092465765,-6,0,7,23,12,2,2,-1
1533862092465765,-1,1,-1,-4,-1,2,1,-1
1533862092465765,-2,2,0,-3,-10,-2,0,-1
1533862092487706,-1,-1,-3,4,4,0,-1,-3
1533862092487706,10,1,4,-2,-3,-3,-2,2
1533862092488704,-13,-3,-10,-13,-7,-5,-4,-6
1533862092488704,9,-3,-1,2,-1,1,0,0
1533862092510646,-4,-1,-2,-7,-4,-1,-2,-1
1533862092510646,-1,-1,1,-1,1,0,-1,-1
1533862092511643,4,1,7,-1,-2,1,1,0
1533862092511643,-5,-4,-6,2,3,-4,-4,-4
1533862092524608,-1,0,1,-9,-8,-5,0,0
1533862092524608,0,0,1,5,0,1,-3,-1
1533862092532614,-1,-3,-9,0,-3,-3,0,1
1533862092532614,-1,-1,13,-2,-5,0,-2,-4
1533862092547581,-1,0,-15,-7,0,2,0,-1
1533862092547581,-4,-3,-4,13,3,-2,-1,-1
1533862092548543,-1,1,0,-9,4,-1,-6,1
1533862092548543,1,-2,1,8,-9,-1,2,2
1533862092570519,2,1,3,-15,-10,-5,-3,-1
1533862092570519,-7,1,1,1,3,1,3,-2
1533862092571482,1,-11,-6,-1,1,0,-1,-3
1533862092571482,-4,13,7,-7,4,1,0,-2
1533862092585472,1,-3,-4,10,-1,-1,-2,-4
1533862092585472,0,0,-3,0,-3,0,1,0
1533862092586443,14,5,-2,-3,-2,-1,2,7
1533862092586443,-1,-6,5,5,-3,-5,-3,0
1533862092608419,-20,-1,3,-5,1,-3,-2,-8
1533862092608419,-1,-5,-3,-10,0,-1,-5,-4
1533862092608419,-2,-6,-6,4,-4,0,-2,-4
1533862092608419,6,0,-1,-2,0,1,2,3
1533862092630361,5,5,8,-3,3,0,-1,4
1533862092630361,-5,-7,-9,1,-5,-6,-3,-5
1533862092631365,-1,4,13,20,0,0,0,-1
1533862092631365,-2,-3,-22,-23,-4,-2,-1,1
1533862092645319,-1,-3,-3,-16,-7,-4,0,0
1533862092645319,-1,1,6,5,2,3,0,1
1533862092646309,2,-4,-7,4,-4,-1,-1,-4
1533862092646309,-4,-1,1,-4,-3,-1,-3,-3
1533862092668223,27,9,5,-2,1,1,3,19
1533862092668223,-14,10,-10,-11,-3,0,1,-3
1533862092669221,-24,-15,11,14,4,-2,-4,-21
1533862092669221,-30,-16,-8,3,2,-4,-6,-15
1533862092690165,4,16,-1,-11,-3,0,-2,2
1533862092690165,-10,2,3,22,4,-1,-1,-2
1533862092691162,0,-29,3,17,6,3,3,6
1533862092691162,37,-13,-20,-46,-22,-8,-2,-11
1533862092705124,6,-8,-3,-6,-3,-1,-6,7
1533862092705124,6,11,1,-8,-5,0,1,4
1533862092706122,2,23,10,52,23,4,3,2
1533862092706122,13,7,13,6,12,5,3,7
1533862092728270,-32,-18,-30,-46,-59,-20,-7,-12
1533862092728270,8,-2,-2,-9,-1,-2,-2,-4
1533862092729061,10,7,-6,-33,-9,-5,-4,2
1533862092729061,-29,2,8,32,3,0,-1,2
1533862092751003,12,13,7,43,28,8,3,-2
1533862092751003,-11,-13,0,23,13,1,-3,-3
1533862092751003,-14,0,0,-45,-14,0,5,5
1533862092751003,1,6,-9,-81,-32,-12,-8,-5
1533862092765967,-32,-7,-5,25,-5,-4,1,4
1533862092765967,59,59,10,32,14,9,2,5
1533862092765967,-63,-90,-21,12,10,1,-7,-19
1533862092765967,5,14,1,-18,-19,-2,-1,-1
1533862092788110,-7,-15,1,4,8,-6,-5,-13
1533862092788110,7,4,3,16,1,-3,1,4
1533862092788942,19,40,14,24,17,4,7,13
1533862092788942,-8,-7,0,-56,-9,-2,-5,-2
1533862092810954,4,-9,-3,26,16,0,-3,-3
1533862092810954,-6,-4,2,4,11,-3,-3,-1
1533862092810954,14,15,0,23,7,4,5,0
1533862092810954,-12,-15,-7,-44,-31,0,1,1
1533862092825817,7,4,-12,-21,-18,-13,-9,-8
1533862092825817,-10,-22,-4,-9,0,0,-1,-2
1533862092825817,3,5,-1,28,-10,-6,-6,-4
1533862092825817,17,13,16,86,49,14,12,12
1533862092847744,-3,4,12,-11,8,3,2,-1
1533862092847744,-15,-20,-14,-7,-8,-10,-4,-7
1533862092848741,8,9,5,-2,1,-3,-1,4
1533862092848741,4,4,0,1,10,3,-2,1
1533862092870816,-7,-4,-6,-26,-16,-2,-3,-7
1533862092870816,-11,-12,1,17,2,-4,-3,-1
1533862092871679,13,14,-10,-35,-25,0,-1,2
1533862092871679,-10,-6,4,-34,1,2,0,-4
1533862092885643,6,-4,-2,24,15,5,3,2
1533862092885643,2,-1,4,-15,-8,-3,-4,-3
1533862092886641,-4,6,0,20,15,-2,-2,1
1533862092886641,-23,-15,-3,17,-5,-7,-3,-3
1533862092907584,5,0,1,-10,2,2,0,-2
1533862092907584,3,1,5,6,-4,2,3,-2
1533862092908581,-8,3,28,46,18,1,0,0
1533862092908581,0,-8,-35,-33,-29,-10,-2,-2
1533862092930714,2,-1,-11,-63,-9,-2,-4,-4
1533862092930714,-6,-9,-4,-2,2,1,1,3
1533862092931534,6,9,-3,-22,0,6,2,1
1533862092931534,5,5,20,72,0,-3,0,1
1533862092945485,-4,-4,-8,-5,-14,-5,-7,-2
1533862092945485,-8,-6,-4,-15,-12,-5,-2,-5
1533862092946489,17,7,3,6,5,3,-1,4
1533862092946489,0,3,3,22,5,-10,-9,-6
1533862092968421,-17,-10,-3,-20,-7,-3,4,-3
1533862092968421,-5,-2,-2,-2,3,12,5,4
1533862092969436,3,-1,-12,-32,-13,1,2,0
1533862092969436,8,3,3,34,21,3,4,2
1533862092990363,12,13,13,25,4,1,3,3
1533862092990363,1,5,2,-20,-11,-13,-3,-3
1533862092991386,-9,-13,-16,-27,-11,-6,-7,-5
1533862092991386,0,-16,-6,15,2,4,3,1
1533862093005321,-26,4,10,26,16,4,1,-5
1533862093005321,7,-6,5,-3,4,-1,-2,1
1533862093006320,-3,-5,-17,-35,-20,-3,-3,-4
1533862093006320,8,11,-2,6,8,-2,1,2
1533862093028437,12,0,-11,6,-8,3,2,5
1533862093028437,-7,0,3,-9,0,-4,2,0
1533862093029258,-2,8,7,-5,-6,-3,-7,-6
1533862093029258,-8,-12,-15,-5,-10,-2,-3,-6
1533862093050408,11,18,13,22,19,5,2,2
1533862093050408,-4,4,-1,-5,-24,-8,-3,-4
1533862093051199,0,-16,-5,-14,-2,-6,0,1
1533862093051199,1,16,7,-4,7,-1,-1,2
1533862093065194,-9,-8,-1,5,5,-2,-6,-6
1533862093065194,4,-18,-5,-5,4,5,2,3
1533862093073141,4,15,-5,-3,-4,-4,1,0
1533862093073141,-18,7,13,6,1,-1,-2,-5
1533862093088353,3,-15,-6,-8,-1,-2,2,0
1533862093088353,15,-9,-6,-4,0,4,-4,-4
1533862093088353,-4,-1,-11,-8,-6,-2,-2,-2
1533862093088353,5,6,0,6,6,6,0,3
1533862093110298,11,16,19,11,-4,-1,1,3
1533862093110298,0,5,-5,-4,-2,-6,-4,-8
1533862093111292,-4,-24,-7,-19,-13,-10,-4,-7
1533862093111292,10,-5,18,28,21,6,-1,-2
1533862093125255,10,-7,-54,-29,3,14,12,6
1533862093125255,-5,9,-1,-7,-7,0,-3,4
1533862093133234,1,11,-7,3,-35,-13,-9,-4
1533862093133234,2,47,22,12,-4,-4,-2,-3
1533862093148406,-9,-47,-2,6,5,-1,-5,-5
1533862093148406,-16,-78,-36,2,13,4,-4,-5
1533862093149240,0,8,0,-14,6,2,1,-1
1533862093149240,2,-4,-10,-5,-7,-1,0,0
1533862093171132,-1,28,24,11,-2,-3,-3,-3
1533862093171132,-4,22,11,-3,-5,-2,4,3
1533862093171132,5,-15,9,1,6,1,-3,-1
1533862093171132,-1,3,-10,-8,0,0,3,6
1533862093185098,-6,8,16,12,2,-2,3,5
1533862093185098,11,1,19,-7,-8,-4,-5,-9
1533862093193077,-30,-19,-29,-3,4,2,0,-9
1533862093193077,-40,-23,-19,2,1,-2,-2,-11
1533862093208037,12,-4,-1,-11,-9,-6,-7,-2
1533862093208037,5,-11,-5,2,2,1,0,9
1533862093209031,12,15,16,5,4,-1,2,4
1533862093209031,27,-3,-4,-26,-26,-7,-4,0
1533862093229975,-3,5,2,10,-1,-5,-6,-4
1533862093229975,-24,7,3,-6,-3,2,-1,-5
1533862093230972,6,18,3,0,6,0,1,1
1533862093230972,-16,-11,-1,0,5,1,2,2
1533862093245932,-10,5,-3,-5,-1,2,-2,-1
1533862093245932,-18,12,6,-5,-1,-1,-3,-2
1533862093252917,-8,-3,2,-6,0,-1,0,0
1533862093252917,6,-14,-17,2,-6,-1,-2,-1
1533862093267876,-8,-1,11,7,2,-2,-2,-4
1533862093267876,15,0,13,4,-11,-8,-3,-2
1533862093268870,4,-11,7,3,27,9,2,-1
1533862093268870,4,-9,-29,-10,20,-4,1,1
1533862093290812,10,-6,-12,13,-32,-5,0,1
1533862093290812,2,16,-2,-35,-8,1,0,-1
1533862093290812,-1,2,4,3,-21,-10,-5,-2
1533862093290812,7,-3,13,0,15,3,1,-2
1533862093304775,3,2,7,2,13,1,0,1
1533862093304775,4,10,-8,12,4,-4,0,0
1533862093312753,-6,-11,-3,-11,0,-1,-1,-3
1533862093312753,8,-9,12,-4,0,1,-3,-1
1533862093327714,-3,-1,-1,1,2,-1,-2,-2
1533862093327714,-5,2,-18,-6,-7,1,-2,-3
1533862093328711,6,2,-8,-2,-1,0,0,2
1533862093328711,-4,5,6,5,-11,-5,-1,-2
1533862093350655,-1,-3,4,-1,1,-2,-2,-3
1533862093350655,-1,-8,2,-1,4,-2,1,1
1533862093351650,0,-3,-1,15,23,10,0,0
1533862093351650,0,0,-3,-11,-16,-8,0,-1
1533862093364618,-3,2,-1,-5,-7,-2,2,1
1533862093364618,-1,1,-8,-5,-15,-2,-4,-2
1533862093372612,-1,1,1,16,4,4,-2,-1
1533862093372612,-1,-1,4,-10,-2,-2,0,0
1533862093387685,4,-1,-5,-10,4,6,0,-1
1533862093387685,5,3,-1,-3,-21,-12,1,1
1533862093388552,2,2,8,12,3,-1,-2,3
1533862093388552,-24,-1,-5,0,-2,-1,-3,-1
1533862093410495,-11,-5,-4,0,3,-2,-2,-2
1533862093410495,8,1,0,9,7,-4,-1,3
1533862093411489,4,3,1,-11,-20,-6,2,-4
1533862093411489,-10,-3,-4,6,1,2,-2,-6
1533862093433430,-19,-7,-4,-1,-6,-7,-3,-5
1533862093433430,4,-1,5,14,12,7,1,4
1533862093434436,11,4,-3,-17,-8,-1,3,9
1533862093434436,4,-4,0,2,-6,-2,-3,-1
1533862093448407,-10,-1,1,0,10,-1,-3,-13
1533862093448407,-4,8,-8,0,5,0,-1,-3
1533862093448407,-2,2,16,-6,-11,-2,-1,-2
1533862093448407,7,1,-14,1,1,1,-3,5
1533862093470335,12,14,12,-3,-2,1,1,10
1533862093470335,-3,7,-3,3,0,3,1,-5
1533862093471329,-15,-43,-32,-5,-6,-9,-6,-11
1533862093471329,24,-4,0,2,5,1,-2,-4
1533862093493274,36,0,0,0,3,0,0,3
1533862093493274,42,4,6,-13,-8,-1,-1,1
1533862093494267,18,13,8,5,-1,-3,-1,-1
1533862093494267,-3,1,1,-3,-1,1,0,-1
1533862093508234,-13,1,-4,1,-4,-1,-1,0
1533862093508234,-36,1,2,-2,4,3,1,1
1533862093509228,-42,11,-6,-1,3,-3,-3,-6
1533862093509228,-8,13,-4,-8,-3,-1,-3,-1
1533862093530172,-11,16,-1,0,-2,-2,-2,-3
1533862093530172,-8,11,3,3,4,-4,-1,1
1533862093531169,3,36,4,-1,0,2,3,2
1533862093531169,21,30,14,14,1,1,-2,5
1533862093554247,-25,16,-14,-28,-2,-3,-5,-9
1533862093554247,-22,-11,-8,-12,-5,-7,-10,-21
1533862093554247,19,7,-81,-16,-6,-6,-4,-2
1533862093554247,13,20,9,1,-2,-2,2,-1
1533862093568263,35,19,0,11,7,4,5,5
1533862093568263,11,-9,15,9,7,2,1,2
1533862093569085,0,-6,2,-9,-4,-4,1,-1
1533862093569085,1,-16,3,11,3,-4,0,0
1533862093591013,-8,-14,-7,-6,0,-1,-1,-1
1533862093591013,-11,-12,-14,-4,-3,0,0,1
1533862093591013,-5,-19,25,23,7,1,-2,2
1533862093591013,-13,-21,1,-16,18,7,2,2
1533862093613951,-12,-34,12,11,-12,-5,0,-3
1533862093613951,-16,-26,-2,14,0,-6,-7,-3
1533862093614945,-3,-13,-8,-52,-14,-1,0,3
1533862093614945,-9,-12,-12,-10,-46,-6,-3,-2
1533862093627915,-7,12,-2,16,2,2,-2,-3
1533862093627915,-7,-58,-4,-6,10,3,1,-2
1533862093628914,-4,-10,16,30,7,-2,-3,-2
1533862093628914,-2,-7,-3,-6,-2,0,-1,-3
1533862093650860,10,-2,-6,-9,0,-1,-1,3
1533862093650860,1,3,1,7,-1,4,30,6
1533862093651881,-10,-40,6,14,10,-2,-31,-5
1533862093651881,-2,13,2,-4,6,-2,0,0
1533862093673789,-9,-58,-5,-5,-5,-5,-4,-2
1533862093673789,-7,30,13,6,-1,2,-2,-4
1533862093674785,-10,-16,-10,-20,-6,2,9,0
1533862093674785,8,0,-12,3,3,-2,0,1
1533862093687942,-17,5,24,5,-5,-3,-4,-5
1533862093687942,6,-4,-20,-6,-4,0,-5,1
1533862093688748,5,10,12,6,-3,-1,5,2
1533862093688748,-11,-11,12,13,2,-2,-6,-6
1533862093710696,5,-5,-7,-18,6,0,3,1
1533862093710696,4,3,14,-6,2,-1,-4,2
1533862093711687,-1,12,-4,12,5,5,5,-1
1533862093711687,-2,-9,-5,-13,-23,-6,-3,-2
1533862093733631,-2,-8,-5,-3,-5,-1,-1,-1
1533862093733631,-1,7,0,1,16,0,-5,-2
1533862093734625,3,9,2,-2,-28,-3,1,-1
1533862093734625,-8,-2,0,10,22,3,0,-3
1533862093748594,5,11,-1,-5,-6,2,3,-1
1533862093748594,0,18,-2,17,-5,-4,-7,-1
1533862093748594,-6,3,1,-2,5,1,5,-1
1533862093748594,-5,-13,-4,1,-3,-3,-3,-3
1533862093770529,7,6,2,11,6,0,-2,-2
1533862093770529,6,3,-14,-8,-16,-4,-5,-2
1533862093771526,1,-3,0,-12,-6,-2,-1,0
1533862093771526,-1,-8,2,-13,-4,-1,-1,-2
1533862093801446,8,-2,-10,2,11,3,1,1
1533862093801446,1,6,3,2,0,1,2,0
1533862093802444,0,4,3,1,-2,-2,-2,-2
1533862093802444,-5,-2,0,15,3,-1,-2,0
1533862093808428,-1,-1,-4,-6,1,-1,0,0
1533862093808428,0,-2,-1,-18,-9,-2,-3,0
1533862093808428,8,1,0,-2,5,-1,-1,-1
1533862093808428,6,3,1,19,9,1,-1,-1
1533862093830490,1,6,4,4,-1,-2,-1,-1
1533862093830490,-6,5,4,-4,-16,-1,-1,-1
1533862093831367,-5,-12,-18,1,5,3,-1,-2
1533862093831367,-10,-12,6,-11,-5,-2,-1,0
1533862093853308,-6,4,2,4,12,0,-3,-1
1533862093853308,-4,-10,23,-27,-24,-5,-4,-4
1533862093854305,5,25,39,-14,0,2,2,0
1533862093854305,0,1,-38,-53,-4,-3,-1,-3
1533862093868271,2,-12,-36,38,2,-5,0,5
1533862093868271,18,20,-3,6,13,5,2,3
1533862093868271,-40,-20,25,15,1,-7,-6,-18
1533862093868271,16,7,9,3,0,2,1,0
1533862093890213,-1,-1,-6,-20,-5,-2,-1,0
1533862093890213,13,-1,-11,2,6,2,0,10
1533862093891206,2,7,-16,-6,-5,-1,1,-4
1533862093891206,-9,-4,-6,9,-1,1,-2,-8
1533862093914152,0,-3,12,-10,-3,0,-6,-4
1533862093914152,-9,-9,-24,-3,3,-4,0,7
1533862093914152,20,12,-1,20,-10,1,3,17
1533862093914152,-22,-1,3,0,11,-3,-4,-33
1533862093928117,0,-1,16,6,-14,1,0,0
1533862093928117,-16,-10,6,-9,21,-2,-3,-7
1533862093929105,-5,-23,-23,-34,-26,-2,-3,6
1533862093929105,4,2,2,11,-23,-7,-2,13
1533862093951050,-7,2,-15,-12,7,2,-1,-1
1533862093951050,-6,-8,21,32,4,1,-1,-5
1533862093951050,11,12,1,4,17,0,2,2
1533862093951050,-6,-10,2,4,2,-1,-1,-6
1533862093973985,2,4,7,-14,-3,-1,-3,-6
1533862093973985,6,1,-29,11,-2,-2,0,5
1533862093974982,0,2,21,7,5,-1,-3,-3
1533862093974982,2,2,-22,-19,-7,1,-1,3
1533862093988016,-2,-3,-5,-13,1,1,-2,1
1533862093988016,3,2,-2,17,-6,-2,-2,1
1533862093988946,1,-2,-8,-1,4,-1,0,-7
1533862093988946,-4,4,8,28,15,2,4,-4
1533862094010908,4,-6,-10,-43,-25,-6,-2,1
1533862094010908,-2,-3,6,-9,0,-2,0,-6
1533862094010908,6,4,0,7,-3,-2,-2,0
1533862094010908,11,8,13,7,13,10,10,20
1533862094033828,-2,-23,4,7,0,2,4,2
1533862094033828,1,3,-2,-27,-3,-2,-3,-9
1533862094034822,-8,-20,-13,7,-1,-4,-9,-10
1533862094034822,13,7,-7,-5,-2,-3,-4,8
1533862094055765,-15,16,27,1,10,0,0,-21
1533862094055765,-1,-33,4,-1,-15,-3,-2,-1
1533862094056762,0,-11,-30,-25,-4,-6,-2,0
1533862094056762,-3,-23,-1,-19,-7,-2,-1,3
1533862094070727,17,-3,15,13,1,1,3,11
1533862094070727,15,7,-18,22,3,-2,-5,-7
1533862094071724,45,17,12,9,9,3,0,-1
1533862094071724,84,-3,3,14,-6,-1,-4,0
1533862094093730,72,16,-21,-27,-7,-3,-3,-1
1533862094093730,29,15,21,15,8,0,1,-1
1533862094094668,7,-29,-15,15,-1,-1,0,0
1533862094094668,40,9,8,-19,3,1,1,-1
1533862094107628,5,-11,-10,17,-5,-2,0,0
1533862094107628,-38,17,-7,-13,2,2,1,-1
1533862094115755,-71,-9,6,5,2,3,3,0
1533862094115755,-99,-10,3,12,-1,-4,-2,-4
1533862094130571,-75,1,0,15,1,-6,-1,-3
1533862094130571,-49,0,-16,-4,0,-1,-6,6
1533862094131564,-38,6,0,-9,2,-6,-1,-2
1533862094131564,-34,-4,17,2,11,3,-1,-2
1533862094153537,-21,-9,-42,-2,-30,-10,-5,0
1533862094153537,-11,9,77,22,1,3,3,2
1533862094154503,-10,10,-25,-5,1,-2,-1,-5
1533862094154503,-20,-2,-5,3,-2,-5,-3,-3
1533862094167718,-3,1,4,-28,15,5,-1,-2
1533862094167718,4,-5,-18,-38,-22,-5,-4,-6
1533862094175641,16,10,6,22,1,-2,-4,1
1533862094175641,-1,7,11,-22,2,7,5,1
1533862094190406,5,14,1,64,-22,-3,0,1
1533862094190406,8,-11,-12,-26,6,2,4,5
1533862094191404,8,-3,-15,-11,-20,-8,-6,-5
1533862094191404,7,6,-18,2,7,-3,-5,-3
1533862094213365,9,35,42,77,43,13,4,-2
1533862094213365,12,8,-1,-13,-4,-8,-2,0
1533862094214355,-8,-42,-43,-82,-64,-16,-9,-7
1533862094214355,2,-7,-11,-26,0,-2,-4,-3
1533862094227311,-4,-14,-49,-14,9,-2,-5,-5
1533862094227311,9,3,69,58,1,9,8,4
1533862094235290,13,28,26,-5,32,9,10,9
1533862094235290,-5,-2,-15,-58,-14,-6,-7,-8
1533862094250250,3,-3,5,-31,-23,3,-3,3
1533862094250250,2,4,-27,10,6,-2,-3,-3
1533862094251243,9,5,13,26,26,8,5,2
1533862094251243,-4,0,14,-30,-24,-10,-6,0
1533862094274187,5,2,9,53,0,-5,-5,2
1533862094274187,3,-1,-29,-59,36,11,8,2
1533862094274187,3,6,21,46,-23,5,7,3
1533862094274187,-1,3,2,72,0,-3,0,-2
1533862094287150,-5,-9,-39,-96,-51,-18,-7,-3
1533862094287150,-9,-19,-2,36,-20,-16,-15,-11
1533862094295129,6,6,8,-38,26,5,0,0
1533862094295129,1,2,-11,-23,-8,0,-1,-1
1533862094310089,-5,-11,-8,-50,11,-2,-4,-3
1533862094310089,-1,2,-17,17,-30,1,-2,-3
1533862094311086,1,-2,-33,9,20,4,1,0
1533862094311086,7,9,31,100,30,9,5,7
1533862094334025,-8,-12,-18,-51,6,-2,-3,-2
1533862094334025,-3,-4,16,-17,2,-5,9,5
1533862094334025,8,0,-3,6,-4,-5,-26,-13
1533862094334025,2,-8,0,49,15,10,4,5
1533862094355976,3,13,9,20,31,9,15,6
1533862094355976,-5,-13,-83,55,-28,-15,-9,-7
1533862094356962,0,1,17,12,19,7,6,1
1533862094356962,-3,2,3,-22,-5,4,8,7
1533862094370925,-3,-3,33,26,9,2,-3,-9
1533862094370925,1,3,-2,28,32,13,5,2
1533862094370925,-12,-8,-54,-76,-74,-24,-5,-7
1533862094370925,0,1,6,26,-2,-2,-2,-6
1533862094393865,-1,-4,12,47,22,8,5,5
1533862094393865,-1,-2,6,-27,-18,-11,-5,-4
1533862094394863,3,4,2,24,14,7,2,-2
1533862094394863,2,8,5,-14,6,1,1,2
1533862094415803,-10,-7,-10,-17,-32,-11,-7,-1
1533862094415803,-5,26,88,-8,1,8,24,31
1533862094416801,-13,10,-12,-38,-14,-10,-20,-19
1533862094416801,5,-4,-32,80,55,-2,-5,-9
1533862094430766,-13,-45,7,-55,-50,-17,-25,-33
1533862094430766,-6,3,-10,6,-22,0,-3,-5
1533862094431761,8,-25,9,14,26,12,12,6
1533862094431761,3,17,4,0,-1,0,7,12
1533862094453717,26,71,-10,35,1,-4,5,25
1533862094453717,13,-1,-27,-28,9,-4,-5,-12
1533862094454700,-65,-42,11,-5,-12,-9,-10,-26
1533862094454700,-4,-35,-36,-48,-37,-7,-6,-10
1533862094476642,6,31,42,36,24,7,13,16
1533862094476642,25,35,-77,-69,-19,-4,-9,4
1533862094476642,7,1,71,39,20,8,7,14
1533862094476642,-32,-107,4,-21,-6,-8,-8,-15
1533862094490607,-25,18,-31,5,1,4,-6,-24
1533862094490607,16,3,18,5,9,-2,-4,1
1533862094491601,17,-4,-33,7,11,4,2,1
1533862094491601,-31,7,-14,-22,-19,-6,-10,-26
1533862094513545,1,-3,27,2,0,2,3,9
1533862094513545,-19,14,3,19,20,10,2,0
1533862094515536,13,25,5,-3,6,2,7,14
1533862094515536,17,25,10,-1,-30,-2,6,20
1533862094536483,-9,-17,-9,-39,-2,-8,-2,-1
1533862094536483,-46,-16,1,-1,6,-1,-5,-12
1533862094537496,-49,6,1,20,-7,4,4,6
1533862094537496,-41,11,28,11,14,2,-1,3
1533862094549449,-25,-13,-9,12,17,5,1,-5
1533862094549449,14,-21,-13,-22,-28,-11,-6,-7
1533862094558431,47,-1,58,32,12,5,4,6
1533862094558431,31,13,-22,-44,-17,-14,-7,-4
1533862094573387,31,-16,-3,-12,-26,0,1,0
1533862094573387,31,-12,21,41,40,8,4,2
1533862094580462,24,16,-9,47,53,5,0,2
1533862094580462,-4,-2,-34,-72,-88,-32,-14,-15
1533862094596320,5,-12,14,-29,19,6,16,14
1533862094596320,-18,-13,-8,36,18,-2,-17,-8
1533862094597318,10,16,-2,0,22,8,-2,-7
1533862094597318,9,7,-40,-9,18,6,3,5
1533862094610286,18,-9,-6,-16,-17,-11,-1,-10
1533862094610286,-13,-15,-1,-34,-33,-13,-7,0
1533862094611280,16,-2,-6,-28,-38,-10,-3,0
1533862094611280,0,16,1,-27,7,5,-1,0
1533862094633221,19,-9,-31,9,4,2,-2,-17
1533862094633221,-14,-14,19,-21,-4,7,5,12
1533862094634219,23,3,-1,7,20,-7,-3,0
1533862094634219,5,9,19,44,-16,0,0,-11
1533862094656163,8,-8,1,50,28,3,-4,23
1533862094656163,2,7,-10,-59,-8,-7,-3,-12
1533862094657175,-5,-6,-6,-16,-23,-8,-2,-6
1533862094657175,9,4,10,21,24,6,4,8
1533862094670124,-12,-2,3,2,-11,-5,-4,-3
1533862094670124,4,-3,0,32,15,2,-1,-8
1533862094671121,-12,5,2,-14,-23,-3,0,7
1533862094671121,7,3,-12,-47,-1,4,2,0
1533862094693065,2,2,26,75,38,6,-1,-2
1533862094693065,-8,-9,-29,-63,-61,-15,-3,-5
1533862094700046,-3,1,-13,0,-12,-3,0,-3
1533862094700046,5,-2,8,-31,10,7,5,10
1533862094716004,-11,-3,2,25,-2,-1,-4,-4
1533862094716004,2,-2,-6,-27,4,1,-2,-3
1533862094717995,-7,1,2,14,-2,-3,4,3
1533862094717995,3,-1,3,3,-11,-1,-9,-5
1533862094729966,-11,-5,-2,-14,7,-3,-1,2
1533862094729966,3,6,9,41,19,3,1,-5
1533862094738950,2,-5,-18,-48,-25,-8,-5,-2
1533862094738950,2,6,21,14,22,9,6,6
1533862094752904,0,4,-9,-2,-1,0,-1,-4
1533862094752904,6,-10,16,15,-22,-1,2,3
1533862094759886,-6,-5,-9,26,13,0,-4,-2
1533862094759886,-3,-2,7,6,-1,-3,-3,1
1533862094775843,-7,-3,5,-40,-3,-1,-3,-2
1533862094775843,-4,2,-27,-11,3,-6,-2,-3
1533862094777838,2,4,27,18,3,5,5,3
1533862094777838,-3,3,38,31,18,3,2,-2
1533862094798781,4,2,7,-2,-7,-3,-2,1
1533862094798781,-9,-12,-8,-38,-2,-2,-1,-1
1533862094800777,-14,-11,-14,1,-16,-5,-5,-4
1533862094800777,7,-2,-22,4,3,-2,-3,-1
1533862094812742,-6,7,-3,21,-1,-1,0,-6
1533862094812742,10,0,-11,3,8,4,3,1
1533862094819726,4,9,97,1,-3,-4,0,0
1533862094819726,-12,-4,-5,7,-1,-2,2,0
1533862094835687,-2,2,-2,-1,-2,-2,-3,-1
1533862094835687,4,0,-15,-7,4,3,1,-1
1533862094837675,-3,0,-22,14,3,0,-3,-1
1533862094837675,6,9,51,-23,-14,0,2,3
1533862094849643,6,0,32,36,19,4,1,-1
1533862094849643,-3,0,-42,-34,-30,-14,-8,-5
1533862094858619,-3,0,-22,-14,-9,-1,0,0
1533862094858619,1,-9,17,-1,12,1,-1,0
1533862094873579,-5,-2,-8,35,0,-1,-2,0
1533862094873579,0,-7,-3,-5,-1,1,-1,-2
1533862094875574,-1,-5,-9,-6,2,-1,-3,-3
1533862094875574,-4,-3,-18,0,-7,-4,-1,-2
1533862094896517,-7,-2,5,-31,-4,3,5,-1
1533862094896517,-4,4,10,35,30,4,0,3
1533862094897515,-7,2,14,-4,-22,-7,-1,1
1533862094897515,-9,-4,-117,4,5,-3,-3,-1
1533862094910483,-11,-4,65,-28,-18,-6,-4,-3
1533862094910483,0,5,25,3,-3,2,1,-2
1533862094918460,-8,-8,-44,-18,2,-6,-5,-5
1533862094918460,-3,0,3,16,10,2,1,2
1533862094933419,-2,-7,-35,-16,-18,-3,1,-1
1533862094933419,1,1,13,23,17,4,-2,-1
1533862094935413,5,8,11,0,-1,0,2,3
1533862094935413,-2,-20,3,-11,0,-2,-2,-1
1533862094956358,0,-4,-16,-17,-12,-2,-1,0
1533862094956358,-3,2,14,25,-5,-1,0,-1
1533862094957355,-4,-1,-1,0,8,1,0,-1
1533862094957355,-2,3,-29,-4,0,0,-4,-1
1533862094978312,0,7,-47,-5,1,-1,-2,-4
1533862094978312,-3,-7,-18,41,28,0,1,0
1533862094980293,-1,7,-18,-11,-32,-4,-2,-4
1533862094980293,-4,-5,13,18,5,1,-3,-4
1533862094993262,-3,-4,9,-13,-8,-3,-3,-2
1533862094993262,0,4,-17,-39,14,4,1,-1
1533862095000240,4,-7,-2,47,-2,1,3,0
1533862095000240,3,8,9,-25,6,0,-3,-2
1533862095016201,0,-4,-22,-25,-29,-1,3,2
1533862095016201,-1,1,12,24,0,-4,-3,-3
1533862095018196,1,-1,-5,-14,12,1,1,0
1533862095018196,1,2,3,1,-13,3,0,1
1533862095039136,-4,-7,25,9,11,-4,-4,-1
1533862095039136,-1,8,7,19,11,-1,-2,-3
1533862095040133,-5,-16,-28,-50,-12,-2,0,-2
1533862095040133,-5,-7,29,30,-5,-6,-3,-3
1533862095053102,-1,1,-45,-46,11,3,-1,3
1533862095053102,-2,1,62,44,-27,-8,-3,-1
1533862095060080,1,4,-2,8,14,2,-2,-1
1533862095060080,1,5,14,4,0,-2,2,0
1533862095076037,0,-12,9,13,2,2,0,-3
1533862095076037,0,-8,-19,-40,-7,-2,-1,-1
1533862095078033,-1,4,-5,10,8,-1,-2,0
1533862095078033,2,7,21,-6,-6,0,0,0
1533862095098976,-2,0,-4,-15,4,-4,-4,-2
1533862095098976,-6,-6,-11,2,-6,0,2,-1
1533862095099975,-1,-4,0,-4,2,-4,-4,-3
1533862095099975,-2,3,-25,-4,-2,-2,-1,0
1533862095113156,-2,9,16,42,7,0,0,1
1533862095113156,-2,1,6,1,-4,-1,1,-2
1533862095119942,-2,-9,-9,-34,-10,3,3,1
1533862095119942,-4,-1,36,44,-3,-6,-4,-6
1533862095135880,-2,-10,-14,-16,8,2,2,1
1533862095135880,0,-1,-15,-3,-27,-1,0,0
1533862095137872,0,6,11,-12,12,-1,-2,0
1533862095137872,1,1,-1,-6,-4,-1,1,-1
1533862095158819,0,7,-1,29,2,-2,-1,-2
1533862095158819,-2,-4,18,-2,10,0,-2,1
1533862095159820,-4,-1,-39,-7,-5,-3,-2,-2
1533862095159820,-1,-4,-15,-6,4,0,0,0
1533862095173776,-1,-4,-10,-6,-3,-3,-4,-2
1533862095173776,-1,2,21,20,7,-1,-3,-1
1533862095179763,-2,-1,-13,18,2,-3,-4,-4
1533862095179763,-1,-5,-18,-34,-15,-4,0,-2
1533862095195720,2,13,26,6,12,-2,1,-1
1533862095195720,-4,-18,-9,5,-7,-3,2,-1
1533862095197724,-1,-7,-48,-3,5,0,-3,-1
1533862095197724,0,0,11,5,-8,-1,2,0
1533862095209740,-3,-5,-3,-38,1,1,-2,-3
1533862095209740,1,3,13,28,4,3,0,0
1533862095218656,-4,-9,-43,-9,-1,-3,-2,-5
1533862095218656,3,9,22,18,-1,2,1,2
1533862095233619,-1,-5,-9,-15,-4,-4,-2,0
1533862095233619,2,-3,-7,-5,-4,7,3,1
1533862095235611,-3,-2,14,-26,-10,-5,-2,0
1533862095235611,-3,-3,-27,-18,5,-3,-3,-2
1533862095256566,-1,-2,4,11,0,-1,-3,-1
1533862095256566,0,6,3,-8,10,-1,-2,0
1533862095257552,-1,2,31,11,-6,0,1,1
1533862095257552,-2,-3,-15,-6,0,-3,-1,-2
1533862095269722,0,-13,12,11,-8,-2,1,1
1533862095269722,2,2,-13,-29,6,-1,-1,-4
1533862095278506,-1,-3,7,5,-5,0,0,0
1533862095278506,-1,5,-1,24,8,0,-3,-3
1533862095293459,-2,3,-20,7,-20,0,1,-1
1533862095293459,0,3,-3,13,3,-2,-1,-1
1533862095295451,-1,-1,27,2,3,0,-2,-1
1533862095295451,-3,0,1,-2,3,0,1,-2
1533862095316397,1,3,24,15,8,0,-2,-2
1533862095316397,-1,3,1,-29,-2,-6,-1,-1
1533862095317392,-2,2,2,-4,-16,-5,-2,-2
1533862095317392,-2,-13,-5,-22,-14,-3,-1,-1
1533862095330360,-2,-3,-7,20,-7,-2,-3,-3
1533862095330360,1,1,-8,16,10,4,2,-1
1533862095338336,3,12,15,-28,9,1,1,-1
1533862095338336,-5,-9,-22,16,-6,-4,-4,-3
1533862095353299,1,-8,3,-11,3,-2,1,-1
1533862095353299,-4,-1,-25,-35,-2,-1,-2,-2
1533862095355290,0,0,-34,37,31,4,0,0
1533862095355290,-3,2,71,4,-30,-8,-5,0
1533862095376238,-4,-1,-2,-21,-12,-3,-2,-4
1533862095376238,0,-13,19,12,-2,1,-1,2
1533862095378229,0,6,10,27,11,1,1,-1
1533862095378229,2,0,-32,-33,11,4,3,0
1533862095406155,0,3,3,32,6,0,-2,1
1533862095406155,-2,3,10,-15,-5,-2,-2,-1
1533862095408150,0,-11,-3,-20,-6,0,-1,-1
1533862095408150,4,1,-1,42,10,-4,-1,-3
1533862095414133,-2,6,24,20,-5,-2,-3,-2
1533862095414133,-2,-2,-44,-24,-5,0,1,-3
1533862095415139,-3,0,40,23,-12,-5,-2,0
1533862095415139,-3,-1,6,-4,10,2,1,0
1533862095436089,0,-1,-6,4,1,-1,0,0
1533862095436089,2,8,18,15,5,-1,-3,-1
1533862095442257,1,-7,-2,-38,-5,-3,-4,-2
1533862095442257,-3,-4,-14,-9,2,0,0,-3
1533862095458016,-1,4,-2,-14,-8,0,-2,-2
1533862095458016,2,-14,8,3,15,3,-2,0
1533862095465997,-4,-2,6,38,-28,-7,0,-1
1533862095465997,-2,-6,-13,-7,0,-1,-2,0
1533862095473976,-1,-3,-21,-7,4,-3,-2,-2
1533862095473976,-1,9,18,0,-10,-5,-1,1
1533862095474974,-2,-4,-17,-2,8,0,-1,-3
1533862095474974,2,12,8,6,5,2,1,1
1533862095495917,-3,-6,-7,-12,4,1,0,-4
1533862095495917,-2,1,1,18,8,-4,-1,1
1533862095497909,-3,-5,1,-16,-13,4,0,0
1533862095497909,-3,0,-18,19,5,1,-2,-3
1533862095518856,-4,-1,-10,-35,-14,-6,-5,-3
1533862095518856,-5,-14,-31,17,13,1,-3,-5
1533862095519850,3,10,8,-22,7,0,1,0
1533862095519850,-6,-1,-1,12,-22,-6,-3,-4
1533862095532816,-1,-13,-9,3,3,2,1,1
1533862095532816,-3,-6,-16,-1,0,-4,-1,0
1533862095539798,-1,3,34,26,-1,-2,0,0
1533862095539798,0,1,9,-1,-11,-4,-1,0
1533862095556767,-1,6,-11,-17,5,-1,-2,-1
1533862095556767,-2,0,7,23,-8,-3,-2,-1
1533862095557750,-3,-5,-10,-6,8,2,-2,-1
1533862095557750,4,4,1,-18,4,1,0,-1
1533862095578696,2,2,9,0,-7,-2,-2,1
1533862095578696,-1,-10,-1,-23,-6,1,2,0
1533862095580688,-1,3,12,26,14,0,-1,0
1533862095580688,-6,-13,-43,-24,-7,-6,-5,-3
1533862095593656,1,-2,40,-13,0,2,3,0
1533862095593656,-2,5,-15,-1,-7,-2,-1,-4
1533862095599637,-1,-4,-8,4,2,-2,-1,-2
1533862095599637,4,-2,10,-9,0,1,0,1
1533862095616595,-1,-4,-23,16,-2,-5,-2,-2
1533862095616595,1,5,5,-20,-5,-3,-1,-1
1533862095617589,0,-3,2,-12,-10,-1,-2,0
1533862095617589,-1,0,-17,-6,14,0,-3,-1
1533862095638533,-1,0,-14,1,-16,-1,1,-1
1533862095638533,1,5,26,-3,-9,-2,0,1
1533862095640528,-1,4,-19,3,-3,-2,-2,-1
1533862095640528,-8,-10,-11,-13,7,0,-1,-2
1533862095653496,-2,3,12,8,16,1,1,-2
1533862095653496,-2,-9,-25,-3,-18,-3,-4,-3
1533862095659477,0,1,-5,-2,-5,1,3,-1
1533862095659477,0,7,20,-4,0,1,2,0
1533862095676639,-5,-29,-16,17,-8,-8,-5,-3
1533862095676639,-2,2,-27,-11,15,4,2,0
1533862095678435,-1,-2,26,14,-5,-6,-3,-2
1533862095678435,0,-5,8,7,6,1,2,2
1533862095698553,0,13,30,0,-16,1,1,1
1533862095698553,-1,1,23,-1,4,-2,-2,0
1533862095700367,-1,-9,-11,-5,5,3,0,0
1533862095700367,0,2,29,-8,-1,0,0,1
1533862095721311,-1,-1,-19,-6,7,0,0,-1
1533862095721311,3,0,11,28,5,-2,0,1
1533862095723307,-1,2,-5,-50,-14,-6,-4,-3
1533862095723307,-2,-6,-17,-28,0,-1,-4,-3
1533862095735277,0,-1,3,11,-6,-3,2,1
1533862095735277,-2,-3,-51,10,-11,-6,-3,-2
1533862095744251,-2,3,-24,-23,23,-4,-5,-3
1533862095744251,0,-8,1,-13,-43,-4,2,0
1533862095758213,-6,2,2,-11,8,3,-2,0
1533862095758213,-2,-2,-52,-9,-18,0,0,-1
1533862095760208,-1,8,15,7,6,-1,0,0
1533862095760208,4,-19,3,10,13,0,-2,4
1533862095773173,1,0,12,-14,7,2,-2,-2
1533862095773173,-11,-13,-40,-9,-3,-3,-3,-3
1533862095780158,1,-5,3,10,-2,2,1,5
1533862095780158,5,9,-2,6,5,1,0,-3
1533862095796115,-4,-14,-12,-15,-11,-2,-2,-4
1533862095796115,-2,2,27,10,9,-2,-2,-2
1533862095798107,-1,2,-5,16,0,0,1,-1
1533862095798107,-2,2,-2,3,-9,-9,0,-2
1533862095819053,1,4,-18,4,3,0,-1,1
1533862095819053,1,6,35,-10,6,3,0,-3
1533862095820047,-4,-6,-17,-17,-15,-2,-2,-3
1533862095820047,-3,3,12,30,7,1,1,-4
1533862095833017,-3,-3,-19,-13,-1,0,-1,0
1533862095833017,1,10,15,-43,-3,-2,-1,-1
1533862095840002,3,-1,43,42,-5,-2,0,0
1533862095840002,-8,-6,-30,1,3,-3,-3,-1
1533862095855962,0,4,-5,0,-3,-1,0,-1
1533862095855962,2,2,23,7,1,0,2,1
1533862095857946,-1,0,-16,-4,0,0,-1,-2
1533862095857946,-2,3,-4,1,0,1,-4,-3
1533862095878893,3,7,-5,-37,-4,1,-1,1
1533862095878893,-2,-8,-2,5,-3,-2,-3,0
1533862095879895,-2,-9,-3,-15,-8,-3,-2,-3
1533862095879895,-2,3,-5,7,2,1,-1,-1
1533862095892853,2,-5,41,27,8,-1,0,1
1533862095892853,0,-2,0,14,1,0,-1,-2
1533862095901829,3,-1,-8,-10,-5,-2,-2,0
1533862095901829,1,5,15,4,-3,-1,1,1
1533862095915791,-1,5,-68,-2,0,-2,-1,0
1533862095915791,-5,-16,51,-17,-6,0,1,-5
1533862095922773,-3,-6,33,15,6,1,3,8
1533862095922773,-3,-4,-6,-9,1,0,3,-8
1533862095938730,-5,-4,-15,12,-2,-3,3,0
1533862095938730,2,1,19,12,4,1,-6,-14
1533862095940740,-5,1,-27,-4,-3,-3,-5,-6
1533862095940740,3,0,4,-7,2,0,-2,3
1533862095952696,-1,0,15,1,-2,-1,-2,-1
1533862095952696,2,7,15,0,-2,0,2,5
1533862095961669,-5,-3,-3,3,2,-2,0,-3
1533862095961669,-3,2,-8,-12,-3,-1,-2,-1
1533862095976629,1,1,22,11,-3,-2,-2,-1
1533862095976629,-4,-1,-23,2,-2,-5,-1,1
1533862095977627,-1,0,-13,1,-1,1,2,-3
1533862095977627,-3,-2,6,-3,5,1,-3,2
1533862095998582,-1,-2,-12,-6,4,1,-2,-2
1533862095998582,-2,0,-7,-8,-10,-2,1,1
1533862096000564,2,3,0,-28,-23,1,3,0
1533862096000564,1,1,14,8,27,-3,-4,-2
1533862096021509,-3,0,15,23,2,0,-1,-2
1533862096021509,2,1,-14,12,36,5,-2,0
1533862096022505,3,8,10,0,-9,-7,-5,-2
1533862096022505,-3,-8,-18,-44,-44,0,-2,-1
1533862096036472,0,6,-19,-15,2,-3,-4,-3
1533862096036472,-2,-3,19,15,-4,-1,1,3
1533862096037479,0,0,-19,10,14,4,1,-1
1533862096037479,-2,-6,-9,11,0,-2,-2,-2
1533862096058418,2,-3,2,-6,-13,-1,-2,-1
1533862096058418,-4,-4,-16,13,-2,-5,-4,-2
1533862096060404,-3,-1,1,-19,-14,-3,-4,0
1533862096060404,-2,2,0,2,4,-1,0,-2
1533862096072374,0,-6,-3,2,13,2,1,-1
1533862096072374,-2,1,-3,1,1,1,0,-1
1533862096081352,-2,-6,-4,-7,-12,-6,-3,-1
1533862096081352,-2,1,2,7,-11,-3,-2,-2
1533862096096308,-2,3,0,2,9,1,0,-1
1533862096096308,-1,0,-22,-16,-3,-2,-4,-1
1533862096097306,-2,1,-15,6,7,0,-1,-4
1533862096097306,1,-2,11,4,-2,-2,-3,-1
1533862096118250,-2,-5,-5,-13,-8,-2,-2,-1
1533862096118250,-2,-2,-1,3,-8,-1,-1,-1
1533862096120252,-1,0,2,-5,-5,0,0,-1
1533862096120252,1,2,-2,-4,14,1,2,1
1533862096133210,-3,-6,-23,3,-5,-5,-1,-5
1533862096133210,1,-2,1,-1,-9,1,1,0
1533862096149169,-2,-5,-10,4,13,-1,-2,-1
1533862096149169,-1,2,12,2,-3,0,0,-1
1533862096156151,2,-1,4,-1,-8,-3,-3,0
1533862096156151,2,3,5,-10,-5,-2,-1,-1
1533862096158146,-2,-6,-20,2,12,-1,-1,-2
1533862096158146,0,-1,0,23,-5,-1,0,-2
1533862096179296,0,-2,5,-36,-12,3,0,-1
1533862096179296,-4,-3,-8,-1,-15,-6,-1,-2
1533862096180085,-1,-1,9,3,1,-1,0,0
1533862096180085,1,-2,-1,11,6,1,-1,-2
1533862096192056,-3,0,3,-3,-5,1,-2,-2
1533862096192056,0,-3,3,-5,5,1,-2,-1
1533862096201032,1,0,5,5,7,3,-1,-1
1533862096201032,2,6,8,0,21,2,1,3
1533862096215994,-6,-4,-14,-9,-27,-13,-8,-3
1533862096215994,-1,0,-5,-16,-16,-4,0,-1
1533862096217984,-4,-7,4,22,-9,-1,-2,-3
1533862096217984,-3,-1,0,-5,3,1,-1,-1
1533862096238928,0,0,8,4,13,0,-2,-1
1533862096238928,-1,3,-1,3,3,-1,-2,-1
1533862096239925,-1,1,3,3,-3,-2,-2,-1
1533862096239925,-2,-2,-5,-11,-5,-4,-2,-2
1533862096268846,3,1,6,9,7,3,1,-1
1533862096268846,0,0,-6,-7,-6,1,-1,1
1533862096269844,-3,1,-4,-1,8,-2,-1,0
1533862096269844,0,1,-4,-20,-1,2,1,-2
1533862096275872,-2,-3,5,27,-9,-8,-1,-1
1533862096275872,-1,-3,1,-9,4,-2,-2,-1
1533862096277824,0,-6,-1,-6,-3,1,0,0
1533862096277824,0,-2,-8,-3,-8,0,-1,1
1533862096298770,0,0,3,2,6,3,-2,1
1533862096298770,-2,-2,0,-2,5,-2,-2,-3
1533862096300762,2,4,9,11,12,1,0,-1
1533862096300762,-4,-7,-12,-13,-10,-3,-1,-3
1533862096321706,-4,1,5,-17,11,3,0,0
1533862096321706,-5,-4,-3,23,-20,-6,-3,-3
1533862096322705,-1,-1,0,-33,-12,-5,-2,0
1533862096322705,-1,-1,-1,7,5,0,-2,0
1533862096336676,0,0,-14,-4,3,1,2,-1
1533862096336676,3,4,43,1,5,3,1,1
1533862096337664,-2,-13,5,-1,8,3,1,1
1533862096337664,-5,-6,-18,13,-5,-10,-4,-3
1533862096358607,-2,-2,2,-4,-7,-4,-2,0
1533862096358607,-2,2,-11,-5,3,0,0,1
1533862096360602,-3,2,-2,6,-7,-2,0,-2
1533862096360602,0,1,7,-6,0,1,-1,-1
1533862096381545,-2,-4,-13,-29,-11,-3,-3,-1
1533862096381545,2,-1,-6,-10,28,4,-1,-1
1533862096382542,-2,19,-12,12,-37,-7,-1,-3
1533862096382542,-1,-20,-3,-45,-9,1,3,2
1533862096396506,-3,-2,8,28,-1,0,-1,1
1533862096396506,-3,-5,-1,-8,-6,-3,-1,-1
1533862096397503,0,2,-5,-11,7,-1,-3,-1
1533862096397503,0,8,4,30,6,-2,-4,-1
1533862096418450,0,0,2,-11,-9,-6,-1,0
1533862096418450,1,-5,-13,-17,2,-1,-2,0
1533862096420442,0,-4,-4,2,14,1,-1,0
1533862096420442,-4,3,-7,9,-29,-3,0,-1
1533862096441385,-2,-6,-8,-12,7,4,1,-2
1533862096441385,-1,3,-6,10,-9,-1,0,0
1533862096442388,-1,-3,2,-6,5,-1,-2,-3
1533862096442388,-2,4,2,-19,6,-2,-3,-3
1533862096455358,-1,-2,-2,17,5,-3,-3,-2
1533862096455358,-2,-9,-22,-7,-7,-2,0,-2
1533862096462337,0,8,33,1,-2,0,0,-1
1533862096462337,-1,-8,-5,12,5,-1,-1,-1
1533862096478287,0,4,6,-9,-1,-2,0,-1
1533862096478287,-1,-1,-14,2,1,-1,-4,-1
1533862096480281,-2,-5,-13,-12,-6,-5,-3,-3
1533862096480281,0,6,1,28,3,0,0,-1
1533862096501229,-4,-2,4,-28,3,-3,-3,-5
1533862096501229,0,-1,5,27,1,0,1,0
1533862096503220,-2,-3,-6,18,-10,0,2,0
1533862096503220,0,0,2,2,2,0,-2,0
1533862096515209,1,-1,4,8,0,0,0,-1
1533862096515209,-1,3,3,-4,-7,4,2,0
1533862096522170,-1,-2,-2,14,13,-1,-1,0
1533862096522170,-2,-7,-1,-13,-4,-5,-1,-1
1533862096539125,0,2,-2,23,-9,-2,-2,-1
1533862096539125,-2,-1,3,-2,13,2,-3,-4
1533862096540123,-1,-4,-1,-3,-12,-2,-1,2
1533862096540123,-2,0,-3,1,4,0,-2,-1
1533862096561065,-4,-4,-57,0,2,-1,-3,-3
1533862096561065,0,10,-35,-5,-7,-1,-1,0
1533862096563061,1,-12,53,13,14,2,1,-1
1533862096563061,0,1,1,-11,-1,1,-2,-3
1533862096576029,0,-2,0,9,-6,-1,0,1
1533862096576029,-2,-3,-7,-17,-6,-4,-3,-2
1533862096582010,1,3,-22,-16,5,0,1,-2
1533862096582010,1,1,0,22,2,-1,1,0
1533862096598964,-2,-2,18,-18,-8,-2,-1,-1
1533862096598964,-1,4,-9,3,3,-2,0,-1
1533862096599962,-3,-12,39,-22,-19,-8,-4,0
1533862096599962,-3,-1,-4,2,-1,-1,1,-1
1533862096620906,-2,-6,-5,1,7,2,2,-1
1533862096620906,-2,-6,25,-1,0,-2,-2,0
1533862096622907,1,1,-25,1,-13,0,-2,0
1533862096622907,-3,1,-5,-1,7,0,-2,0
1533862096635865,-1,-2,1,4,0,-1,-2,-1
1533862096635865,-2,-3,-11,-20,-5,-2,0,-4
1533862096641853,-1,3,-14,8,6,1,1,0
1533862096641853,-2,-5,-18,-11,-6,-3,-1,-1
1533862096658804,2,3,4,-1,2,0,1,-2
1533862096658804,2,-1,17,13,-3,0,2,0
1533862096664789,-1,1,-15,14,21,-3,-4,-3
1533862096664789,1,-4,14,-8,-17,-2,-1,-1
1533862096680744,-1,15,-37,-14,-8,-3,-2,-3
1533862096680744,-3,-9,26,6,5,2,0,0
1533862096682740,-2,-1,-15,5,-2,-1,-2,-1
1533862096682740,2,-1,-2,-4,2,-2,-2,-2
1533862096695705,2,4,14,10,3,1,-1,-2
1533862096695705,0,1,0,23,1,-3,-1,0
1533862096702686,-3,-3,-14,-28,2,1,-1,-1
1533862096702686,-2,1,2,16,6,1,0,-1
1533862096718694,-2,-5,8,-3,-11,-3,-1,0
1533862096718694,0,-3,-6,8,-8,-3,0,-1
1533862096720639,3,0,15,-13,0,1,0,1
1533862096720639,0,0,2,6,11,0,1,-2
1533862096741586,-1,-5,12,17,-3,0,-2,0
1533862096741586,-3,-5,-21,-29,-6,1,-2,-4
1533862096742580,1,4,32,14,-5,-1,-1,3
1533862096742580,0,-3,-10,-31,-4,-3,-2,-3
1533862096755546,2,-1,26,29,7,0,0,-3
1533862096755546,-1,1,-16,-4,-2,-2,-1,-1
1533862096763539,-6,-4,-19,-20,-8,-3,-1,-3
1533862096763539,-1,-2,6,6,1,2,0,0
1533862096778487,2,2,22,37,12,3,1,2
1533862096778487,-5,-4,-7,-49,-23,-6,-3,-1
1533862096780479,-2,-1,-15,-29,-3,0,1,-2
1533862096780479,-4,-2,-3,-10,2,-3,-3,-2
1533862096801426,-1,-1,5,18,8,1,0,1
1533862096801426,4,6,19,15,21,2,4,2
1533862096802420,-8,-15,-24,-29,-40,-15,-8,-6
1533862096802420,-3,-1,2,-36,-1,0,-3,-1
1533862096814388,-4,-3,-11,-28,-14,-3,-2,-3
1533862096814388,2,1,8,-23,3,3,2,1
1533862096823364,4,4,2,26,16,4,4,1
1533862096823364,1,0,-1,9,-3,-2,0,-1
1533862096838327,-3,-5,-1,2,1,-1,-4,-1
1533862096838327,-1,2,3,13,8,0,-3,-3
1533862096840319,1,1,-1,22,6,0,-1,-1
1533862096840319,0,0,0,-10,-18,-4,0,-3
1533862096861265,1,-1,-5,-29,-15,0,2,1
1533862096861265,-3,-3,-11,-45,-6,-6,-5,-4
1533862096863257,-5,-2,-12,-17,-10,-6,-5,-3
1533862096863257,0,2,8,40,6,6,2,2
1533862096875445,1,3,18,-8,9,3,0,2
1533862096875445,-7,-6,-12,-11,-3,-9,-6,-2
1533862096884211,-1,1,1,-16,7,5,3,1
1533862096884211,0,-4,-13,34,2,-6,-6,-2
1533862096899165,-2,0,3,-18,-12,1,2,-1
1533862096899165,1,0,10,51,6,2,2,-1
1533862096900173,3,3,5,3,6,4,0,-1
1533862096900173,-1,-1,4,-16,1,-2,-1,-4
1533862096921109,-3,-5,-14,-2,5,-5,-2,-4
1533862096921109,1,-2,6,4,-4,0,-3,-3
1533862096923097,2,2,-2,3,3,-2,-1,2
1533862096923097,-3,-3,-7,9,-18,-1,1,0
1533862096935065,3,-3,-7,-5,5,4,-2,0
1533862096935065,-2,-2,1,-16,-3,-6,-4,-3
1533862096944083,2,1,5,9,-10,1,0,-4
1533862096944083,1,-1,3,16,21,3,0,0
1533862096959198,0,-4,-3,-26,-5,-5,-2,-1
1533862096959198,1,1,5,58,4,1,2,1
1533862096960004,-1,-4,-13,-33,-2,-2,-2,-2
1533862096960004,3,1,2,-5,-4,-4,-3,-1
1533862096980942,13,2,3,46,22,4,4,0
1533862096980942,9,-1,3,-76,-30,-4,-2,-1
1533862096982937,3,-5,-9,-3,-11,-8,-3,-3
1533862096982937,5,-1,-5,-19,-5,4,3,-1
1533862096994905,-6,-1,-3,0,5,-2,-5,-1
1533862096994905,-2,2,10,47,26,2,2,-1
1533862097003881,-5,2,3,18,22,5,-6,-1
1533862097003881,-7,3,-7,-43,-67,-3,8,7
1533862097018841,-11,-3,-8,13,1,0,0,-2
1533862097018841,-10,-3,-5,0,-14,-5,0,-2
1533862097020839,-8,-2,3,1,10,-1,-2,-4
1533862097020839,-6,-1,2,4,22,-5,-6,-4
1533862097040788,-4,1,4,41,5,-2,0,-1
1533862097040788,-4,-3,-4,-19,-13,1,1,3
1533862097042795,-5,-6,-10,-45,-6,-1,-3,0
1533862097042795,-3,1,4,9,8,3,2,2
1533862097054783,1,0,-5,-21,-9,-3,-1,0
1533862097054783,-7,-2,5,26,10,0,-2,-4
1533862097063721,0,-1,-11,23,-5,-2,0,0
1533862097063721,0,-1,-3,-11,-2,-3,-3,-2
1533862097077684,-2,0,0,-14,-3,-4,-3,-3
1533862097077684,0,-5,-8,-3,-5,0,0,1
1533862097084668,-1,0,6,9,-4,0,2,0
1533862097084668,-1,-3,-2,-3,-2,-3,-2,-4
1533862097101642,-5,0,-4,-4,1,0,-2,-3
1533862097101642,0,-2,1,3,4,-2,-4,-3
1533862097102624,-1,-3,5,11,2,-1,2,0
1533862097102624,1,-3,-3,7,-2,-3,-6,-5
1533862097114744,0,-3,-4,-11,-8,-3,-1,-1
1533862097114744,1,1,-4,9,-7,-4,-3,0
1533862097131541,5,3,6,14,10,6,6,3
1533862097131541,0,-4,-1,-10,7,-2,-3,-1
1533862097138521,-1,-2,0,-5,-12,-1,-1,-1
1533862097138521,0,2,-5,-6,5,-2,-3,-2
1533862097145502,-1,-1,1,14,5,-5,-1,-2
1533862097145502,-3,0,0,3,6,0,-1,0
1533862097161463,-3,-4,-7,-10,-4,1,0,-1
1533862097161463,3,-2,8,-2,-5,0,1,1
1533862097162457,1,1,11,7,1,-2,-1,-4
1533862097162457,1,2,5,4,8,0,-1,-1
1533862097174425,3,-4,-1,-4,-11,-6,0,0
1533862097174425,0,-2,-2,-4,-10,-1,2,1
1533862097183404,-10,-9,-10,6,8,-4,-7,-8
1533862097183404,-5,-1,-4,-15,-16,2,2,0
1533862097198361,-3,2,5,6,21,5,-1,2
1533862097198361,-5,-2,-2,-20,-26,1,1,1
1533862097205343,-1,3,2,15,2,-4,3,4
1533862097205343,1,1,1,10,1,-1,-1,-1
1533862097221301,-5,-7,-10,-21,-12,-5,-6,-5
1533862097221301,-4,-9,-6,6,13,-3,-5,-3
1533862097223295,0,0,-3,-2,-9,1,1,-1
1533862097223295,-3,-2,-4,-6,7,-4,-2,-1
1533862097244243,1,5,3,-6,-2,3,2,3
1533862097244243,0,3,3,7,10,1,-2,1
1533862097245237,10,-6,0,1,-8,-2,-2,-1
1533862097245237,3,4,4,-5,3,2,2,-1
1533862097258204,1,-3,-6,7,-4,-2,2,-3
1533862097258204,-3,1,-4,-3,2,-3,-1,-1
1533862097265182,-2,5,1,-5,-2,2,-2,0
1533862097265182,-2,-4,-2,1,-5,-3,1,-1
1533862097281143,-4,-1,-1,-5,-6,-5,-7,-2
1533862097281143,-6,-5,-2,12,9,0,3,-2
1533862097283134,-2,3,-1,-7,0,5,1,2
1533862097283134,-1,-2,-2,-10,-13,-8,-4,-2
1533862097304286,-3,0,2,4,1,-2,-3,-2
1533862097304286,1,-1,-4,-4,-11,-5,-4,-2
1533862097305075,-5,2,2,3,5,-3,-4,-4
1533862097305075,-1,-2,-4,8,6,3,1,-1
1533862097318044,0,-10,-1,-5,-4,0,-1,-4
1533862097318044,8,3,-2,2,1,-1,-3,1
1533862097333001,4,1,-1,-11,-1,2,1,1
1533862097333001,0,3,0,21,4,2,-3,-2
1533862097340979,-2,5,3,2,6,-3,-2,1
1533862097340979,-8,-5,-4,-9,-11,-3,-1,-5
1533862097342984,-4,-2,-1,-10,-3,2,3,0
1533862097342984,-6,1,-1,9,0,-1,-3,-2
1533862097363919,-1,5,7,1,12,-2,-1,0
1533862097363919,-2,-3,-15,-7,-12,2,2,1
1533862097364915,0,-7,-1,-2,-4,-4,-3,-3
1533862097364915,-5,-4,-2,-1,0,1,0,-2
1533862097377884,2,13,3,2,-2,-4,-3,0
1533862097377884,6,9,7,-4,12,3,-1,2
1533862097386859,-5,-18,-6,-5,-13,-1,0,-3
1533862097386859,-3,-14,-8,-6,0,-2,-3,-3
1533862097400823,-3,-5,-5,-4,-2,-3,-1,-1
1533862097400823,-1,4,3,4,4,-3,-2,-2
1533862097402814,5,9,2,8,-2,-2,0,4
1533862097402814,0,0,0,-3,0,-1,1,-1
1533862097423762,-2,-2,-3,-2,-4,2,0,-2
1533862097423762,2,2,3,3,4,0,0,-1
1533862097425753,-1,2,1,2,-2,-1,0,1
1533862097425753,-1,4,4,-5,-2,-4,1,1
1533862097437721,-3,-9,-6,-26,-17,-2,3,-1
1533862097437721,-5,-6,-7,2,1,-3,-5,-4
1533862097446697,-1,-3,-1,1,1,0,-1,0
1533862097446697,4,1,0,4,4,0,-3,0
1533862097461668,1,9,6,10,-1,0,-1,0
1533862097461668,1,-7,0,-4,3,-2,1,0
1533862097462655,-5,-5,-5,-1,6,2,-1,0
1533862097462655,-4,-8,-10,-25,-18,-7,-6,-5
1533862097483617,0,-1,-7,16,3,-2,-2,-1
1533862097483617,3,12,9,6,4,0,1,1
1533862097485593,4,3,2,2,-16,-5,-4,0
1533862097485593,-7,-20,-9,-2,6,3,3,-1
1533862097497778,-2,-6,-6,-10,-2,0,-2,-2
1533862097497778,-2,1,-1,0,3,-2,-2,-3
1533862097506537,2,7,4,2,3,5,3,2
1533862097506537,1,7,3,8,1,1,1,0
1533862097521498,-1,-4,-3,-7,-3,-3,0,-3
1533862097521498,2,-3,-1,7,0,-1,0,0
1533862097522494,-2,0,-4,-3,-3,-5,-4,-4
1533862097522494,-2,1,1,6,0,3,2,1
1533862097543441,-1,-4,0,-5,2,0,-5,-2
1533862097543441,-3,-6,0,-6,-3,0,-1,-2
1533862097545433,-4,1,-3,-1,-2,-3,0,-1
1533862097545433,0,-2,-4,-5,0,-5,-5,-5
1533862097557400,3,11,11,7,3,2,7,6
1533862097557400,-7,-1,2,-5,-4,3,2,4
1533862097572362,-8,-23,-25,-26,1,1,-9,-14
1533862097572362,3,0,-1,14,-1,-5,-4,-1
1533862097581337,-4,-5,-8,7,-4,-7,-5,-5
1533862097581337,1,0,-33,-9,-16,-2,0,0
1533862097582334,5,10,16,6,-1,0,3,3
1533862097582334,-2,-2,1,-7,4,1,-2,-1
1533862097604336,-2,-1,2,-6,3,-1,0,-1
1533862097604336,0,0,2,5,5,0,0,-1
1533862097605274,-3,-2,-4,3,1,-3,0,2
1533862097605274,-1,2,-1,-9,1,0,0,-2
1533862097617446,1,-2,-4,1,-4,-2,0,-1
1533862097617446,0,0,5,1,2,2,2,1
1533862097626217,-1,3,0,1,3,-1,3,0
1533862097626217,1,8,6,-3,-6,-4,0,2
1533862097641181,-9,-21,-14,-5,-10,-3,-11,-11
1533862097641181,5,-1,1,-7,-6,-6,-7,-3
1533862097643171,9,5,8,3,1,0,0,2
1533862097643171,12,4,-3,3,-1,-2,-4,0
1533862097664125,-51,-11,-1,-4,-1,4,1,-2
1533862097664125,-2,-7,1,1,0,-1,-2,-6
1533862097665112,15,1,-5,-3,1,1,1,0
1533862097665112,18,6,3,-1,-7,-4,0,3
1533862097677286,12,9,7,-1,-3,2,5,6
1533862097677286,-11,-15,-5,-2,-2,-1,-6,-9
1533862097686056,-20,-10,-5,-1,-3,-2,-5,-5
1533862097686056,-13,-2,-5,1,1,-2,-3,-2
1533862097701020,9,4,1,-4,1,-5,-1,-2
1533862097701020,-5,10,6,1,1,0,2,2
1533862097703011,0,1,0,-1,-4,-6,-4,0
1533862097703011,-8,-3,2,-5,-1,1,2,0
1533862097723955,8,-2,-1,1,4,3,-2,0
1533862097723955,2,1,-4,-13,-6,-1,-1,0
1533862097724953,-12,-7,-31,10,-6,-9,-4,-7
1533862097724953,-2,1,36,5,4,2,1,-2
1533862097736923,3,4,3,-16,-14,-2,2,5
1533862097736923,-5,-2,2,7,9,2,0,-1
1533862097745900,-3,0,-2,-7,0,0,-1,-5
1533862097745900,-2,1,-7,8,-4,-2,-3,1
1533862097760859,7,11,-7,2,8,4,-1,5
1533862097760859,17,-6,-2,-1,-7,-7,-7,-4
1533862097762851,-33,-7,4,1,-9,-1,3,-6
1533862097762851,-14,-10,-6,6,24,5,3,0
1533862097783799,-4,-32,-4,23,-9,-6,-8,-5
1533862097783799,38,15,6,-8,8,6,4,5
1533862097785799,9,15,-4,-37,-49,-18,-8,5
1533862097785799,-17,-26,-8,0,9,3,-2,-14
1533862097797758,64,21,1,18,17,6,6,9
1533862097797758,-74,-11,-21,-50,-49,-15,-8,-12
1533862097806739,-3,-13,13,-13,1,3,-2,0
1533862097806739,4,7,-10,40,-6,-9,-1,-2
1533862097821706,30,-14,-4,-32,0,0,0,9
1533862097821706,2,30,18,55,20,10,5,-1
1533862097822697,-11,-19,-12,-14,-16,-8,-8,-12
1533862097822697,59,24,2,18,7,5,2,6
1533862097843670,-96,-54,2,-10,11,0,2,-7
1533862097843670,50,38,5,42,34,9,1,-2
1533862097845658,-10,-17,-1,-8,-4,1,-6,-7
1533862097845658,-11,-16,-19,-15,-21,-15,-9,-9
1533862097857598,-23,21,2,45,1,5,4,-1
1533862097857598,-35,-5,0,-92,0,-8,3,6
1533862097866574,9,-14,-4,-52,-62,-7,-1,5
1533862097866574,-5,10,2,43,42,6,3,6
1533862097881537,-12,25,-1,-19,-22,-3,-4,-3
1533862097881537,-11,-11,-1,-28,-20,-2,-1,-3
1533862097882535,12,14,4,39,34,0,3,3
1533862097882535,-17,-8,1,-25,2,2,0,4
1533862097903475,0,6,3,8,7,4,1,-4
1533862097903475,7,-18,5,53,25,6,-3,1
1533862097905470,-4,-4,2,40,34,3,0,2
1533862097905470,-18,3,-1,-55,-34,0,1,0
1533862097917441,25,2,0,0,-2,-5,-2,-5
1533862097917441,22,-13,-16,-39,-4,-8,-4,0
1533862097926422,16,11,-4,1,-11,7,4,2
1533862097926422,11,0,-2,-35,1,-3,-6,-5
1533862097941377,18,4,2,0,-3,1,-4,-5
1533862097941377,11,-8,0,8,13,-10,-4,2
1533862097942371,15,9,9,31,20,3,3,7
1533862097942371,9,-7,-5,-6,-14,10,-1,-4
1533862097964312,12,-6,0,-11,-1,6,10,0
1533862097964312,-5,-6,2,26,-10,-5,-2,-1
1533862097965310,10,0,-3,6,16,1,-2,-5
1533862097965310,7,2,5,1,-15,-6,-4,1
1533862097977281,6,4,-3,-21,-3,-11,-9,0
1533862097977281,2,-3,-11,13,-9,3,3,0
1533862097986255,-1,9,4,-3,7,2,3,2
1533862097986255,11,0,-2,-10,-4,-3,-2,-4
1533862098000220,11,-1,-5,9,-3,-5,-2,-4
1533862098000220,28,-20,2,2,1,0,-1,-2
1533862098007202,11,-4,0,-7,-1,-3,-1,-7
1533862098007202,-16,-4,0,11,-4,-1,0,0
1533862098024152,8,5,1,3,7,-1,-3,3
1533862098024152,4,7,4,0,-11,3,3,5
1533862098025150,14,3,-1,-5,7,4,-1,3
1533862098025150,-6,-8,-4,-2,-11,-4,-6,-4
1533862098037121,-7,3,-2,-8,-3,-5,-3,-3
1533862098037121,-21,-1,-1,1,-2,-1,-1,0
1533862098046094,-19,2,9,4,3,6,2,0
1533862098046094,-11,0,-6,-2,13,1,1,0
1533862098061056,-13,-8,-9,-5,-12,-7,-3,-4
1533862098061056,-8,-1,-2,4,-7,-6,-2,-3
1533862098075017,-4,18,2,-1,1,1,0,0
1533862098075017,10,4,7,8,-4,2,2,3
1533862098083995,5,-15,2,-13,4,4,1,1
1533862098083995,-7,-6,-8,4,4,-2,-9,-10
1533862098084989,2,-8,-10,-6,-10,-7,-5,-4
1533862098084989,0,-8,-5,1,9,5,2,2
1533862098097955,2,10,4,-10,-3,5,2,1
1533862098097955,-16,20,-3,39,9,-4,-3,-4
1533862098105933,5,35,23,-23,-19,-10,-4,0
1533862098105933,0,-29,5,6,-1,-1,2,7
1533862098120893,-41,-75,-49,-11,-8,-5,-10,-18
1533862098120893,-7,-94,-16,-8,1,4,2,-1
1533862098127874,2,-35,-13,9,17,3,2,4
1533862098127874,6,31,26,-7,-2,-5,-3,-4
1533862098143841,10,36,2,19,9,-4,-4,0
1533862098143841,1,56,-1,-41,-18,-1,-7,-7
1533862098144830,-1,71,28,34,9,-4,-1,3
1533862098144830,-4,-17,-9,14,-23,-6,-1,2
1533862098165776,-22,-27,-14,1,6,-4,-7,-10
1533862098165776,-5,10,4,13,-6,-5,3,3
1533862098167768,0,-33,4,-7,11,17,1,3
1533862098167768,-6,48,17,-2,11,6,6,2
1533862098180737,8,32,5,29,22,9,6,7
1533862098180737,-1,34,16,-1,-17,5,5,3
1533862098187715,-32,-103,-22,-43,-42,-29,-15,-11
1533862098187715,29,83,-28,18,11,-1,1,6
1533862098203675,-25,-61,49,11,-7,0,3,-1
1533862098203675,-27,-54,58,-37,16,-3,-7,-15
1533862098205668,-16,-121,-93,-59,-21,-3,-5,-13
1533862098205668,6,26,52,-14,-2,0,4,3
1533862098226611,25,42,-34,4,-2,-2,-14,-3
1533862098226611,22,62,36,15,2,-2,2,8
1533862098227609,8,71,44,26,28,12,5,5
1533862098227609,-6,-28,9,-7,-18,-10,-4,-4
1533862098241603,8,31,-26,4,4,-3,5,4
1533862098241603,-1,10,53,-1,-2,3,6,5
1533862098247556,-10,-36,4,2,2,-3,-4,-8
1533862098247556,13,70,-80,-15,2,2,2,3
1533862098263512,-9,-93,31,-3,-19,-2,5,6
1533862098263512,-8,-18,-26,1,10,-7,-17,-13
1533862098265522,24,101,6,17,2,8,11,16
1533862098265522,-17,-19,53,-3,17,-8,-10,-12
1533862098286468,2,48,15,6,11,0,0,2
1533862098286468,0,-50,-6,-1,-32,-4,-5,2
1533862098287448,-32,-85,-64,-7,-15,2,-8,-18
1533862098287448,1,-5,11,-15,11,-7,-10,-7
1533862098300417,11,40,-12,-26,-6,-2,0,4
1533862098300417,15,90,6,16,-12,8,16,15
1533862098316371,-9,6,103,5,-6,-5,6,-2
1533862098316371,-29,-128,-128,-34,-19,-7,-15,-21
1533862098323352,3,26,31,21,20,-2,-4,-3
1533862098323352,13,4,3,-14,-5,2,2,2
1533862098325348,2,43,36,23,12,-1,4,6
1533862098325348,-4,-15,45,7,-5,-1,-3,-5
1533862098346294,-4,-39,-42,-13,-11,-2,3,-2
1533862098346294,-3,-7,-52,-18,-10,-5,-2,2
1533862098348294,-12,-61,14,-2,19,-11,-11,-12
1533862098348294,11,22,-17,-3,-13,5,6,9
1533862098360256,11,92,20,6,-1,-6,-5,2
1533862098360256,-19,-66,-33,-3,9,3,-2,-11
1533862098369229,-5,21,16,3,-5,4,-3,-7
1533862098369229,-6,7,48,11,11,-3,1,2
1533862098384192,6,-1,-82,-16,-3,-2,-6,-2
1533862098384192,9,38,19,-6,6,8,9,7
1533862098385186,6,14,15,1,20,2,-5,-6
1533862098385186,-10,-67,-62,-3,-24,-2,-4,-3
1533862098406131,2,6,11,-9,-11,4,3,3
1533862098406131,7,53,62,24,24,-4,-3,5
1533862098408126,5,-10,-47,-5,-5,2,0,4
1533862098408126,-10,-3,32,9,9,3,-2,-8
1533862098420096,-2,-1,74,-6,-7,-3,-4,-6
1533862098420096,-3,-13,-63,-2,3,3,6,1
1533862098427078,8,30,-15,1,-6,-7,-5,4
1533862098427078,4,36,4,15,17,-4,0,6
1533862098444033,-11,-2,90,-10,-13,9,10,-1
1533862098444033,-20,-96,-92,-18,2,-6,-7,-14
1533862098445027,30,33,-7,0,6,2,2,12
1533862098445027,-1,0,54,2,-11,-2,1,-5
1533862098465974,-3,-24,-37,2,10,-8,-2,-4
1533862098465974,0,18,31,3,-14,7,-4,-2
1533862098467966,-1,11,-7,-3,15,1,2,3
1533862098467966,1,27,0,4,8,6,3,6
1533862098480944,3,26,26,3,-3,-3,0,4
1533862098480944,-20,-49,-18,-4,-4,-8,-7,-12
1533862098488909,2,-15,0,-2,10,-5,1,-1
1533862098488909,6,18,-3,1,-11,2,0,2
1533862098503873,4,-1,-15,3,-2,1,2,2
1533862098503873,10,39,14,2,11,-5,-5,3
1533862098504867,-4,1,45,3,-23,0,2,2
1533862098504867,-10,-45,-69,-9,-9,-3,-2,-5
1533862098526811,-12,-42,-2,-2,-13,-12,-11,-8
1533862098526811,11,44,-67,-5,2,13,5,2
1533862098527805,-11,-39,61,1,-3,-2,2,-5
1533862098527805,11,23,-28,3,13,-2,-1,3
1533862098540784,-15,-31,40,-3,2,-5,-9,-10
1533862098540784,14,15,-26,0,-9,-4,0,4
1533862098547755,-1,27,-27,1,7,-3,-2,4
1533862098547755,-9,-16,25,-4,-8,5,3,-5
1533862098564707,6,26,3,-7,-7,-3,-3,1
1533862098564707,-2,1,67,6,35,1,0,1
1533862098565705,1,20,-24,-1,-46,-5,-3,-5
1533862098565705,2,-27,22,1,10,0,2,2
1533862098585842,1,22,-33,-12,-39,0,3,-3
1533862098585842,-7,-22,21,2,-3,-7,-6,-5
1533862098587843,-2,-14,-27,1,-10,-12,-6,-2
1533862098587843,4,32,11,-4,-2,7,3,2
1533862098600929,-1,-25,-3,1,15,10,2,2
1533862098600929,-4,-15,-2,-2,-10,-6,-3,-1
1533862098607783,9,8,-1,0,5,-3,-2,0
1533862098607783,-8,-23,-6,-8,-13,4,1,-7
1533862098623743,-8,-16,-11,1,5,-3,-3,-4
1533862098623743,2,-9,9,3,19,1,0,-1
1533862098625735,3,28,-2,-1,-16,-4,1,0
1533862098625735,4,21,45,7,17,-1,0,6
1533862098646682,12,47,-44,-1,6,1,6,12
1533862098646682,-22,-41,15,-7,-7,-6,-9,-15
1533862098647676,-15,-5,-4,-10,-9,-2,-3,-7
1533862098647676,6,2,-42,-5,-11,-6,-7,-8
1533862098659644,-2,-25,-20,-1,14,0,2,3
1533862098659644,11,34,8,5,-17,-3,1,5
1533862098668620,1,-2,7,3,30,8,3,4
1533862098668620,-6,3,30,0,-7,-3,-4,-4
1533862098683582,7,24,5,2,0,1,1,0
1533862098683582,-6,20,19,1,2,2,-2,-1
1533862098685575,-5,-67,-20,-6,-12,-5,-3,-4
1533862098685575,1,3,-15,1,14,3,0,3
1533862098706523,-3,-5,1,-5,-7,2,-4,-4
1533862098706523,2,-4,-3,1,-4,-6,0,1
1533862098707516,8,40,7,-2,-32,5,7,5
1533862098707516,-4,-6,-2,-2,6,-5,-3,0
1533862098719489,-6,-8,3,3,-9,-9,-4,-5
1533862098719489,0,-6,4,-1,26,-9,-4,-1
1533862098728460,1,-2,-14,-7,-15,6,-3,-2
1533862098728460,-3,-2,-16,0,-5,0,-1,-2
1533862098743424,-5,-29,4,-6,5,-3,0,-1
1533862098743424,-2,-21,-27,-1,-10,0,1,0
1533862098745414,3,59,24,4,17,-3,1,2
1533862098745414,-9,-52,-33,-6,7,0,-2,-5
1533862098766360,0,10,-7,-2,-6,-5,-8,-9
1533862098766360,5,12,15,2,-15,-1,-2,3
1533862098767357,6,10,-22,5,20,13,9,5
1533862098767357,-5,31,52,0,-1,-4,-2,-1
1533862098780321,-4,-30,-34,-4,-8,1,0,1
1533862098780321,-4,-29,-20,-5,-14,-5,-4,-5
1533862098796279,1,14,2,1,21,-5,-6,-4
1533862098796279,3,13,11,-3,-3,-1,-2,2
1533862098803264,-1,-7,12,0,7,0,2,1
1533862098803264,0,3,-1,-4,-13,-1,-1,1
1533862098805254,1,-5,-7,2,5,-1,-4,-3
1533862098805254,-3,4,8,1,-11,-9,-1,-3
1533862098826203,-3,-16,12,-1,11,5,-1,-4
1533862098826203,0,-10,-12,-1,0,-2,-3,2
1533862098828194,-2,11,0,0,-7,2,1,-3
1533862098828194,-4,-45,-7,-3,-8,-5,1,-2
1533862098840168,4,21,1,2,2,-2,-1,-1
1533862098840168,0,5,4,7,27,-3,-3,0
1533862098849137,6,21,-6,-8,-33,-6,2,5
1533862098849137,-19,-2,52,-2,-1,10,-5,-8
1533862098864101,-2,-44,-73,-13,-18,-4,-3,-5
1533862098864101,-2,-12,-31,-5,-4,2,1,-4
1533862098865095,1,-4,-10,2,23,-1,-1,1
1533862098865095,11,42,9,4,-12,3,3,6
1533862098886042,-5,-2,28,2,4,-1,1,2
1533862098886042,-5,-11,4,-2,-1,6,3,-1
1533862098888041,-3,-7,1,0,2,-2,0,-6
1533862098888041,-1,-2,-15,-4,-7,-3,-1,-2
1533862098900006,0,15,18,2,5,-2,-2,-1
1533862098900006,3,8,-1,1,-15,-2,1,0
1533862098908981,4,10,14,6,16,-2,-6,-1
1533862098908981,-10,-33,-14,-6,1,-7,-3,-6
1533862098923941,-3,-6,-2,-6,-19,-3,-3,0
1533862098923941,6,11,-11,4,-2,3,2,3
1533862098924935,-4,-14,10,-3,9,-1,2,-1
1533862098924935,-6,7,-6,-2,-7,-4,-2,-3
1533862098945879,9,-13,1,2,5,2,1,-1
1533862098945879,-8,-6,7,-4,-6,-5,-4,-7
1533862098947874,-1,-3,-20,2,1,-2,-2,0
1533862098947874,4,8,-12,0,-7,-5,-8,-1
1533862098959842,-1,11,12,-2,5,0,0,2
1533862098959842,-2,-6,6,2,0,6,3,-1
1533862098968817,-6,-10,-1,-2,-6,-1,-1,-3
1533862098968817,3,-6,-2,-2,1,-2,1,1
1533862098983780,-2,7,2,2,-3,-3,-3,-2
1533862098983780,4,9,-1,-2,8,-2,-1,0
1533862098985778,-4,-5,2,-1,-7,-1,-2,-1
1533862098985778,2,9,3,3,5,1,4,0
1533862099006716,-5,-21,-15,-3,2,-1,0,-2
1533862099006716,1,2,8,-2,-1,-3,-2,2
1533862099007719,-3,-17,-11,-6,2,1,-3,-1
1533862099007719,5,4,-7,-1,-1,-2,1,0
1533862099019681,-1,12,14,0,0,1,2,1
1533862099019681,-4,15,3,-2,-5,-1,-2,-1
1533862099028658,-5,-33,-9,1,4,-6,-2,-2
1533862099028658,1,-1,-6,-3,-2,4,-2,-1
1533862099043621,-1,14,8,1,14,-2,-3,-3
1533862099043621,-3,-11,-1,-6,-20,-3,1,0
1533862099045611,0,8,-1,2,3,-3,-3,0
1533862099045611,-2,-8,3,-4,-5,-4,1,1
1533862099065562,-1,13,-1,2,10,1,1,1
1533862099065562,-2,-13,-17,-6,-17,-3,-4,-4
1533862099073537,-1,-4,2,0,3,4,0,-3
