timestamp,emg1,emg2,emg3,emg4,emg5,emg6,emg7,emg8
1533260488512714,-3,-2,9,-2,-4,-1,-1,-2
1533260488512714,4,1,-7,-1,-2,-3,-2,0
1533260488512714,0,-2,-1,0,-2,0,-2,-4
1533260488512714,4,-9,-5,0,-2,2,-1,-1
1533260488516733,1,-13,0,-5,-1,-3,-3,-1
1533260488516733,2,-8,-8,-5,0,1,1,-1
1533260488519732,0,1,10,-6,-4,0,-2,-1
1533260488519732,-3,-2,3,-4,-2,-3,-2,-1
1533260488531780,1,15,-7,-2,1,1,1,-1
1533260488531780,-4,3,34,21,-1,1,-2,0
1533260488533730,-5,-3,-57,-6,-1,-3,-2,0
1533260488533730,0,3,6,8,0,-3,-2,0
1533260488554823,-1,5,5,-7,-2,1,-1,0
1533260488554823,-7,15,-10,-1,0,-3,-1,-4
1533260488556804,1,-4,8,14,-3,-3,-2,0
1533260488556804,1,4,-5,-4,-1,0,1,1
1533260488561802,-1,-7,2,1,-2,-2,-1,-2
1533260488561802,0,2,-11,-27,-6,-2,-3,0
1533260488586825,0,-4,31,8,6,0,0,-1
1533260488586825,2,0,-5,-23,-8,1,-2,-2
1533260488588812,1,4,9,-10,-1,0,-1,-1
1533260488588812,0,-7,-24,-11,0,0,0,0
1533260488604873,-4,-5,-14,0,0,0,-2,-1
1533260488604873,-2,-2,18,10,2,0,-2,-1
1533260488639848,-5,11,-9,-1,3,1,-2,-1
1533260488639848,-4,-1,10,-3,-2,-1,7,-4
1533260488643861,5,0,-36,14,0,-2,-7,-2
1533260488643861,-1,-3,6,7,0,2,2,-2
1533260488644861,-2,-8,15,-2,-3,-1,-1,-4
1533260488644861,3,0,-19,-5,0,-2,-2,0
1533260488645862,-1,-3,21,-18,-3,-2,1,0
1533260488645862,-4,0,8,-8,1,-1,-3,0
1533260488649865,2,-3,-12,1,-1,-3,-3,1
1533260488649865,-1,-14,28,10,1,0,-1,0
1533260488664884,-3,-2,-44,-7,-2,-1,1,-1
1533260488664884,-1,-4,-32,6,-4,-6,-5,-3
1533260488672922,-5,16,12,16,0,-3,-1,-4
1533260488672922,-4,3,-2,6,-1,-2,-2,-2
1533260488681891,1,0,24,-8,-2,-1,1,-1
1533260488681891,1,-2,6,-5,-3,-3,-2,-1
1533260488695905,2,-1,1,0,-3,-2,1,-1
1533260488695905,-2,6,-10,-21,-5,-2,-3,-1
1533260488710915,-5,-1,-1,3,7,1,-1,-1
1533260488710915,1,2,37,-5,-1,-1,-1,1
1533260488711915,0,-8,-46,-10,-1,-1,-4,-3
1533260488711915,-2,-1,-15,18,-2,-1,1,0
1533260488733923,1,-3,21,12,0,-1,-9,0
1533260488733923,-4,-13,-5,-5,-3,-4,0,-2
1533260488733923,-2,1,16,6,1,1,3,0
1533260488733923,0,-2,6,-10,1,-1,0,0
1533260488757944,-4,-5,-11,-8,-5,-2,2,-3
1533260488757944,2,2,11,5,0,0,-1,0
1533260488758932,-5,-3,-9,-8,-2,-2,-2,-1
1533260488758932,3,6,10,4,-2,0,0,-2
1533260488770998,0,-5,12,12,0,0,0,-1
1533260488770998,-2,0,-35,-10,0,-1,-1,-3
1533260488771998,-2,-13,20,-16,-1,-1,-1,-1
1533260488771998,2,-20,-7,-5,-1,-2,-2,0
1533260488793016,-2,-1,7,-3,0,-2,-1,-3
1533260488793016,1,0,-12,-5,-1,-1,-1,-1
1533260488794001,3,-5,15,-2,1,1,-2,-1
1533260488794001,-1,1,-17,-7,-1,-1,-2,-1
1533260488808012,-1,3,0,-4,-3,-1,-2,2
1533260488808012,0,-1,-12,7,3,-1,2,-1
1533260488816018,-2,2,0,8,-3,-3,-1,0
1533260488816018,-4,0,-5,20,3,1,1,1
1533260488831080,0,3,18,4,-6,0,0,-2
1533260488831080,-2,3,11,-5,-6,-1,-2,1
1533260488832063,0,-1,-11,1,4,-1,0,-3
1533260488832063,-1,2,-2,-32,-7,-2,-4,-2
1533260488853058,-3,-2,-15,5,8,1,-2,-2
1533260488853058,-2,4,13,-2,-3,-1,-2,-2
1533260488854058,5,5,-2,0,-2,0,1,3
1533260488854058,0,-3,-4,1,3,0,0,-2
1533260488869056,0,1,-7,26,-3,-1,-1,1
1533260488869056,-2,2,7,-5,-2,-1,1,-2
1533260488876074,-2,3,-1,-1,-3,-1,0,-3
1533260488876074,0,8,13,-6,-1,-2,-2,-2
1533260488891085,-4,-2,2,-19,-1,-2,-1,-3
1533260488891085,3,9,28,4,1,0,0,1
1533260488892071,-1,-6,10,-11,-5,1,0,0
1533260488892071,-5,-2,-8,4,1,0,-2,-3
1533260488913178,-4,6,-7,-5,0,-1,1,-1
1533260488913178,-9,3,52,21,-1,-1,-4,-3
1533260488914130,0,-2,-58,1,-2,-2,-3,-3
1533260488914130,4,-6,3,15,-1,-2,0,0
1533260488928198,3,2,-3,-7,-3,-4,2,-1
1533260488928198,-2,-7,-17,-6,-1,0,0,-2
1533260488936219,2,1,2,-8,-1,-2,-3,0
1533260488936219,-5,-4,11,-7,0,-1,1,0
1533260488951233,6,12,-6,-9,-2,-2,2,1
1533260488951233,5,-5,-22,-12,1,2,-1,0
1533260488951233,2,-7,-40,3,2,1,0,0
1533260488951233,2,0,9,-10,-3,-2,2,-1
1533260488973292,-1,-8,27,17,1,2,-8,0
1533260488973292,0,-12,-69,11,-3,-2,-1,0
1533260488974279,0,3,12,-13,0,-1,4,2
1533260488974279,-2,-8,17,-14,-5,-2,-4,-2
1533260488987302,-1,-1,3,-3,-5,-5,-1,-2
1533260488987302,-1,4,10,-1,0,1,1,-2
1533260488996309,-6,-10,-7,16,0,-1,1,-1
1533260488996309,-2,10,2,-2,-3,-2,-6,-2
1533260489011318,-7,-9,-43,2,-2,-2,3,-4
1533260489011318,5,5,-3,-8,0,-1,0,-2
1533260489011318,-7,3,19,-9,-1,0,1,-1
1533260489011318,-6,-1,12,8,-1,-2,-3,-1
1533260489035327,4,6,5,1,2,1,4,1
1533260489035327,-11,-50,-30,-5,-4,-3,-5,-5
1533260489035327,-6,4,33,13,-4,-3,-2,-2
1533260489035327,2,0,-12,2,0,1,4,1
1533260489056386,-5,-19,14,4,-2,-4,-10,-3
1533260489056386,3,-9,-7,-8,2,0,3,3
1533260489057345,2,1,9,-6,-3,-2,-5,-1
1533260489057345,6,8,-23,2,0,-1,0,0
1533260489071376,-3,0,20,1,0,2,2,-2
1533260489071376,-4,7,-1,-25,-7,-3,-1,1
1533260489071376,2,4,8,10,-1,-2,0,0
1533260489071376,1,-3,-13,5,-2,0,-2,-1
1533260489093377,3,7,19,-10,1,1,1,1
1533260489093377,1,7,1,15,3,0,-4,-2
1533260489094364,3,2,-15,-4,-1,-1,-3,1
1533260489094364,-5,-6,-12,-22,-6,-2,0,-4
1533260489116392,-4,1,-21,-8,-2,-1,-1,-2
1533260489116392,3,9,63,-7,-4,-3,2,-1
1533260489117384,-3,-22,-26,0,-4,-1,-2,-5
1533260489117384,-6,7,-6,9,1,-1,-1,1
1533260489131405,-1,-10,1,-13,-4,0,-1,-4
1533260489131405,0,7,27,0,3,0,-1,-1
1533260489131405,1,-22,-12,2,1,-1,-1,1
1533260489131405,3,-8,0,14,1,0,-2,0
1533260489153414,5,20,-13,-18,-4,-2,1,0
1533260489153414,-4,7,-1,8,0,1,-2,-2
1533260489154420,-2,6,21,-1,4,-1,-2,0
1533260489154420,1,-1,30,13,8,2,0,-2
1533260489176517,1,-11,-78,-24,5,0,0,2
1533260489176517,-8,-6,22,14,-7,-5,-3,-4
1533260489177486,-2,9,-80,-30,-3,-2,-3,-1
1533260489177486,-4,-6,41,-15,-14,-6,-3,-3
1533260489190491,0,5,13,13,5,3,0,1
1533260489190491,1,13,44,20,2,2,1,3
1533260489191478,-8,-24,-68,-55,-10,-9,-4,-8
1533260489191478,2,8,40,24,8,3,-2,0
1533260489213553,-2,3,-85,-6,-14,-2,-2,-2
1533260489213553,-7,-11,9,-15,-15,-14,-1,-4
1533260489214553,8,17,102,22,18,18,7,6
1533260489214553,0,-3,-61,-4,6,-1,0,2
1533260489236564,-4,1,52,-10,4,-1,-1,1
1533260489236564,6,11,-29,1,2,4,1,1
1533260489237568,-1,0,9,17,-13,-10,-2,-2
1533260489237568,0,-3,13,-20,-5,0,-1,-1
1533260489250579,-3,-17,28,28,6,-2,0,-2
1533260489250579,-1,-6,-52,-19,-1,-1,0,-2
1533260489251563,-2,3,35,7,-5,-2,0,-3
1533260489251563,0,2,2,2,-18,-5,-2,0
1533260489273595,-4,-7,-7,-20,-4,1,0,0
1533260489273595,-1,5,25,2,-1,2,-2,0
1533260489274596,-8,3,24,-18,-12,-5,-5,-4
1533260489274596,3,3,25,32,19,5,-2,1
1533260489303698,1,-20,-84,-2,-4,-5,3,-1
1533260489303698,9,7,0,8,23,6,7,3
1533260489304666,-3,0,-64,6,-9,-3,-4,-1
1533260489304666,-10,17,17,-34,-33,-7,-6,-6
1533260489312726,-1,16,57,-2,1,3,0,-1
1533260489312726,-5,-4,-75,7,15,0,-1,-1
1533260489313748,1,8,33,-4,-15,-12,-4,2
1533260489313748,-5,-27,-36,-28,-1,-9,-5,-5
1533260489333763,1,-6,12,32,7,14,1,-3
1533260489333763,3,13,29,5,11,9,5,1
1533260489334751,1,6,2,3,19,6,0,-1
1533260489334751,0,4,-28,-12,-15,-7,-2,-1
1533260489356739,-2,-1,26,3,0,-5,-4,-2
1533260489356739,0,-6,2,-29,-11,-8,-5,-3
1533260489357740,2,1,1,7,-12,-4,-4,-1
1533260489357740,-1,-6,-19,2,8,-6,2,-1
1533260489370751,2,1,12,6,3,4,5,1
1533260489370751,-5,-6,-6,23,5,-10,-4,-3
1533260489371738,-3,-2,-15,5,5,-9,0,0
1533260489371738,-4,-6,6,11,0,1,0,-3
1533260489393768,-1,-2,21,-5,-13,-8,-4,2
1533260489393768,-4,-3,-19,-20,0,5,-2,-1
1533260489393768,-1,-3,18,26,16,9,0,-2
1533260489393768,2,-2,-46,-3,-11,4,-2,-1
1533260489423871,0,0,-1,-6,1,9,1,0
1533260489423871,2,-6,-7,-7,-1,7,0,-2
1533260489424836,-2,-5,-8,-16,-3,1,-1,0
1533260489424836,-2,-3,-3,11,3,4,0,2
1533260489429839,-5,-2,-4,-8,-2,0,-1,-3
1533260489429839,-1,-4,-3,27,7,-7,0,-3
1533260489438846,7,2,27,5,-4,0,4,-2
1533260489438846,4,5,26,8,14,0,2,2
1533260489453846,3,-6,-3,-49,-19,-13,-5,3
1533260489453846,-5,-4,9,59,-9,6,-2,-1
1533260489453846,-29,5,-1,-10,14,11,2,-4
1533260489453846,-6,-1,3,-24,-8,-16,-7,-8
1533260489476857,19,8,-18,-23,-30,-35,-11,2
1533260489476857,21,7,-7,-30,-24,7,3,4
1533260489477857,-15,-1,8,43,70,33,14,0
1533260489477857,-27,-14,-10,13,12,9,-2,-17
1533260489490867,-10,-6,-3,-21,-16,-15,-7,-7
1533260489490867,10,-4,3,0,-18,-7,-5,-2
1533260489491868,34,3,7,12,-9,-8,1,9
1533260489491868,-14,2,-12,0,11,10,6,6
1533260489513885,6,-2,14,24,10,-1,-2,0
1533260489513885,-8,-3,-1,-45,-31,-13,-7,-3
1533260489513885,-13,-4,-10,12,-13,-5,-6,-7
1533260489513885,17,-1,-7,21,9,1,1,4
1533260489543904,32,5,2,-3,11,4,1,4
1533260489543904,-13,0,2,-6,-11,1,0,-2
1533260489544905,-42,-25,-3,-32,-24,-13,-11,-15
1533260489544905,9,4,-7,8,6,2,7,5
1533260489549909,-12,2,9,12,-1,10,3,-2
1533260489549909,13,2,5,-15,-3,-7,-4,-3
1533260489558915,10,2,-10,-1,33,19,5,2
1533260489558915,7,3,15,18,0,-8,-3,4
1533260489573926,-2,0,2,12,5,3,1,-2
1533260489573926,-1,0,-5,-12,-7,-12,1,3
1533260489573926,-1,-3,-3,-38,-52,-22,-10,-5
1533260489573926,9,3,-5,-20,0,7,-1,-1
1533260489603948,-5,0,4,40,29,10,6,1
1533260489603948,-9,2,-3,-72,-24,-14,-6,-4
1533260489604948,20,4,3,61,5,8,4,6
1533260489604948,-6,13,23,10,30,15,11,0
1533260489626973,-28,-23,-9,-10,-15,-16,-13,-15
1533260489626973,-13,-12,-8,2,-26,-22,-16,-6
1533260489627972,15,0,-10,-24,-10,-11,-8,1
1533260489627972,29,9,7,4,21,24,16,10
1533260489641989,-10,12,4,23,6,-1,1,-1
1533260489641989,1,9,-4,23,26,11,4,0
1533260489643990,6,9,2,-4,-19,-20,-7,5
1533260489643990,-11,48,-6,-11,-29,-18,-14,-6
1533260489655999,-9,58,8,-12,6,9,2,-1
1533260489655999,6,-18,9,16,26,8,4,0
1533260489663004,8,3,8,-24,-8,-2,-1,-2
1533260489663004,-9,-72,3,10,-12,-4,-6,-3
1533260489679013,4,86,2,-25,-17,0,-1,-2
1533260489679013,8,-15,-1,33,25,13,3,2
1533260489681014,-33,37,2,-11,-5,-3,-2,-6
1533260489681014,-3,21,-9,-21,3,-4,-8,-4
1533260489709036,3,-70,-3,-11,-5,-21,-6,3
1533260489709036,-6,-21,-9,-21,-35,-18,-18,-6
1533260489711037,9,-33,10,29,49,36,31,5
1533260489711037,23,-12,8,4,12,0,5,3
1533260489715088,-10,50,-7,10,1,6,-1,-3
1533260489715088,-4,28,1,6,0,-5,-3,-5
1533260489724105,-18,-128,3,-13,-20,-16,-11,-1
1533260489724105,-25,-52,91,-1,-23,-11,-8,-3
1533260489739137,13,44,110,16,6,9,7,3
1533260489739137,0,-96,114,-2,5,2,0,1
1533260489741103,16,-68,15,-1,-12,-20,-4,-1
1533260489741103,14,-52,-58,-12,-4,-16,0,2
1533260489762120,2,-53,-43,-1,1,-7,0,-2
1533260489762120,8,98,-29,8,8,3,4,3
1533260489763109,12,124,-65,-15,-7,2,-2,5
1533260489763109,-7,94,-88,-17,5,-14,-2,5
1533260489784134,99,80,-103,7,-8,-12,-3,6
1533260489784134,112,40,-101,-13,5,-9,6,16
1533260489786120,127,24,14,8,-2,-28,-1,12
1533260489786120,93,60,-8,4,-18,-21,-4,17
1533260489799145,5,7,-18,-1,-8,-14,0,26
1533260489799145,23,25,-105,11,9,4,4,21
1533260489801146,-9,70,-128,-12,-5,-2,-4,10
1533260489801146,-65,47,-128,-10,14,8,1,3
1533260489822165,-99,76,-55,-14,12,6,-1,-6
1533260489822165,-108,114,-64,12,12,3,2,-7
1533260489822165,-90,127,-58,-15,-2,-1,-3,-9
1533260489822165,-49,101,-53,5,-11,8,-1,-17
1533260489828161,-26,-5,-21,18,-4,10,-4,-18
1533260489828161,-22,30,2,3,-6,14,-1,-21
1533260489836165,-3,-20,67,-15,-25,17,-4,-20
1533260489836165,-10,-22,67,22,-8,15,2,-14
1533260489859181,-32,-58,59,-2,-3,12,-1,-13
1533260489859181,-37,-100,79,-11,5,7,1,-12
1533260489859181,-28,-90,76,3,15,12,-2,-10
1533260489859181,-30,-128,77,-5,1,7,-5,-9
1533260489873181,-14,-117,61,-3,2,9,-2,-5
1533260489873181,-19,-95,42,0,3,3,-1,-6
1533260489874185,-29,2,27,0,5,5,0,-3
1533260489874185,-13,47,46,2,-8,3,-2,-4
1533260489888212,-2,-20,14,11,1,5,3,-2
1533260489888212,-18,-11,25,-3,-1,2,-1,-3
1533260489920231,-19,61,20,-2,6,-1,-1,-1
1533260489920231,-4,118,15,-17,-1,0,-1,-1
1533260489922216,-5,127,7,-6,-4,-1,-3,-4
1533260489922216,-16,99,15,-5,-9,4,-2,-4
1533260489923217,-6,94,8,15,8,2,1,0
1533260489923217,0,-72,16,3,-2,-3,-2,-1
1533260489941323,-4,19,4,-1,4,0,-2,1
1533260489941323,4,58,8,3,0,-4,-1,0
1533260489943284,4,45,3,1,-3,-1,-2,-2
1533260489943284,5,47,8,6,-1,-1,-2,-1
1533260489955364,5,-61,15,-1,2,-3,-1,-1
1533260489955364,6,-96,4,4,2,-4,1,1
1533260489964321,-3,-68,19,-6,0,-1,-1,0
1533260489964321,1,68,6,-19,-4,-4,-2,0
1533260489979345,3,120,-2,-9,-2,-4,-1,-2
1533260489979345,0,62,23,7,1,-1,-3,1
1533260489981347,0,-81,-5,8,1,-3,-1,2
1533260489981347,3,-113,-5,0,0,-1,-2,0
1533260490001378,5,-101,-2,15,-1,0,-1,1
1533260490001378,1,-85,-1,-6,4,4,1,0
1533260490003379,7,-96,-45,-18,-9,-2,-3,0
1533260490003379,10,-69,8,-10,-1,1,1,0
1533260490024410,9,-128,20,31,0,-4,0,1
1533260490024410,7,-119,-23,-3,4,-3,-1,0
1533260490025394,10,-123,-12,0,-2,-3,0,-1
1533260490025394,4,-107,-3,-14,0,-2,-1,1
1533260490039486,4,-128,-4,-24,2,-2,0,1
1533260490039486,1,-93,-31,3,-1,-1,-1,-1
1533260490040466,-1,-7,13,-1,-2,-4,-3,0
1533260490040466,-1,22,42,16,-2,-2,-3,-2
1533260490069471,-3,5,-53,-17,1,2,2,-2
1533260490069471,-2,127,20,10,-9,-8,-4,-4
1533260490070459,-5,113,-21,-2,-1,-2,-4,-3
1533260490070459,4,59,-19,20,7,2,0,0
1533260490075521,-4,-53,-20,-16,-2,0,-1,-4
1533260490075521,1,-10,72,12,4,2,1,1
1533260490084531,-4,-75,-74,-21,-8,-5,0,-4
1533260490084531,-3,-25,51,21,1,-5,-2,-1
1533260490106576,4,40,23,-18,4,2,-1,1
1533260490106576,-1,-2,-35,-5,-5,-7,-3,0
1533260490108547,1,33,44,-18,-7,-10,-4,3
1533260490108547,1,8,-32,12,-1,5,1,1
1533260490121550,2,1,16,16,7,5,3,3
1533260490121550,-2,13,-73,-44,-8,-7,-3,-1
1533260490123547,7,19,24,-1,-1,-1,-2,-3
1533260490123547,-1,36,48,8,4,7,5,-1
1533260490144561,5,64,49,-4,-6,-4,-1,7
1533260490144561,0,55,-68,3,1,-3,0,-1
1533260490145552,3,3,50,31,0,-2,1,4
1533260490145552,0,-44,-72,-14,-13,-7,-8,-2
1533260490159625,-3,17,24,-10,0,0,-2,-2
1533260490159625,-3,-72,-75,-7,-1,-3,0,-1
1533260490160610,-2,-18,-3,4,-1,-3,-2,-3
1533260490160610,0,-11,6,-14,0,-4,-2,-1
1533260490181757,0,-4,3,-3,-8,-5,-3,-3
1533260490181757,0,-14,31,12,-1,-2,-2,-1
1533260490183745,-3,0,-9,36,17,3,-2,-4
1533260490183745,-3,2,-77,-48,-9,-2,-2,-2
1533260490195735,1,21,-10,-10,-5,-2,0,0
1533260490195735,4,46,4,-1,7,6,4,0
1533260490204720,1,-1,24,10,15,10,4,5
1533260490204720,0,-14,-9,21,3,-4,-3,2
1533260490226753,-6,24,-42,1,-15,-10,-7,-5
1533260490226753,0,33,11,-34,-4,-3,-5,0
1533260490228756,1,18,29,-7,-10,-4,-3,5
1533260490228756,-5,-24,-14,1,2,-3,0,-7
1533260490241763,-2,1,12,31,-1,0,0,-1
1533260490241763,4,4,54,14,-1,3,1,0
1533260490242763,8,-20,-29,-38,-4,0,1,0
1533260490242763,-6,-9,24,-3,-4,2,1,-1
1533260490265765,4,-5,36,15,4,0,1,-1
1533260490265765,1,-11,-26,7,0,2,0,-3
1533260490267791,-1,26,-36,-12,-4,-2,-1,-1
1533260490267791,6,-4,30,-13,2,-1,0,1
1533260490278826,10,44,-21,-9,1,3,1,4
1533260490278826,-1,-5,12,-6,-2,-2,-1,-3
1533260490280781,-9,8,16,21,-1,1,-1,-4
1533260490280781,2,29,-6,4,-3,-6,0,-1
1533260490301834,-4,14,-18,-7,3,-2,-1,-2
1533260490301834,-4,7,23,-21,-4,-1,-1,0
1533260490302835,0,2,24,4,-2,-2,-4,-2
1533260490302835,1,-8,-30,-21,-5,-3,-2,-2
1533260490315871,-2,-12,-17,20,3,3,-1,-2
1533260490315871,-2,-8,-11,2,0,-2,-2,0
1533260490323900,-3,-2,8,-8,-3,-3,0,-3
1533260490323900,-7,11,22,-2,-1,-3,-3,-1
1533260490346916,-4,-18,-58,-23,-2,-4,-1,-2
1533260490346916,2,20,29,15,3,-2,0,3
1533260490347882,-2,-10,-27,-3,0,-2,-2,-2
1533260490347882,0,18,25,14,-6,-3,-2,-1
1533260490361893,1,-3,2,9,9,1,-1,-1
1533260490361893,-4,-18,24,24,0,-2,-2,-5
1533260490362892,-1,13,7,4,-1,1,0,-1
1533260490362892,1,-4,-45,-8,-1,-1,-1,-1
1533260490374901,-5,-9,32,-15,-6,-6,-2,-2
1533260490374901,1,7,-11,12,-4,-1,-1,-1
1533260490383954,2,4,20,-9,-3,-2,0,-2
1533260490383954,4,17,16,1,-2,0,-1,-2
1533260490398966,-6,-4,-47,-5,-7,-3,-4,-5
1533260490398966,-2,8,23,0,0,-1,0,-1
1533260490420978,2,0,-8,3,2,1,0,-1
1533260490420978,2,-1,0,-27,-4,-2,-2,2
1533260490436989,-3,-5,-3,17,2,-3,0,1
1533260490436989,0,-3,23,-15,-15,2,-2,-1
1533260490437975,-3,-7,-3,21,9,2,-2,0
1533260490437975,2,-1,2,12,2,0,1,0
1533260490443995,0,-7,35,-8,6,3,-1,0
1533260490443995,1,-4,-26,-1,-4,-2,-2,0
1533260490445997,4,0,99,4,-1,3,2,0
1533260490445997,-14,-53,-86,-22,-27,-17,-10,-14
1533260490460040,11,29,105,4,2,2,3,2
1533260490460040,-10,-32,-83,-14,-5,-7,-4,-4
1533260490465010,-8,-12,18,-28,-5,-3,-3,-4
1533260490465010,5,29,69,13,13,7,5,6
1533260490482015,-4,-39,-21,-1,-12,-5,-1,-7
1533260490482015,0,17,36,6,7,4,1,-9
1533260490483025,-3,-42,-9,22,1,0,-1,1
1533260490483025,-2,6,-1,-2,3,1,-1,0
1533260490504032,9,-4,-14,-9,-2,1,0,-3
1533260490504032,-3,36,27,25,7,2,3,4
1533260490506022,6,-9,-64,-28,-4,-2,1,-3
1533260490506022,-1,3,-1,20,0,1,-2,-2
1533260490518032,-2,10,99,18,-3,-2,-1,3
1533260490518032,0,-19,-94,-11,-5,-3,-2,0
1533260490533056,-2,15,-20,-25,0,0,0,1
1533260490533056,1,5,45,1,0,0,0,2
1533260490542062,-4,-6,-58,11,-1,-2,-3,-1
1533260490542062,3,5,72,7,6,1,0,3
1533260490543049,-7,-3,-52,-3,-6,-3,-2,-4
1533260490543049,0,18,22,-16,-1,-1,-1,1
1533260490564155,-6,-12,-23,11,1,1,0,-3
1533260490564155,3,3,32,2,1,-1,-1,0
1533260490566123,1,0,-30,-4,-3,-3,-1,1
1533260490566123,0,-23,-20,-15,-1,-1,-2,-1
1533260490578131,-4,-8,-28,-18,-8,-5,-4,-2
1533260490578131,3,1,-14,-10,6,2,1,1
1533260490585120,3,22,22,10,-3,1,1,-1
1533260490585120,-3,26,-30,37,2,-1,-1,-4
1533260490616157,1,28,27,-16,-6,-3,-1,-2
1533260490616157,-6,6,18,-22,-7,-4,-3,-4
1533260490618143,-3,-13,-20,27,5,-3,-3,0
1533260490618143,-1,-19,7,-34,5,-1,-1,-3
1533260490624162,2,-7,44,9,-4,2,0,0
1533260490624162,0,-11,0,-35,-11,-4,-3,-2
1533260490626164,-4,-3,25,26,-3,-3,-1,-2
1533260490626164,1,-7,4,10,6,-3,-2,1
1533260490638172,-2,-2,-26,-7,3,3,1,0
1533260490638172,-3,-15,66,1,-3,-3,-1,-2
1533260490647226,1,12,-37,-39,-8,3,1,0
1533260490647226,-3,-5,13,5,-2,-5,0,-2
1533260490661231,2,-2,-51,-20,-6,-2,-3,-1
1533260490661231,2,1,7,31,3,2,1,0
1533260490663228,-1,2,15,-1,-5,-4,-2,-1
1533260490663228,5,23,45,3,9,5,3,4
1533260490691247,-7,-10,-55,3,-3,-3,-1,-1
1533260490691247,2,44,-1,0,-2,-2,-2,0
1533260490693253,-2,-4,15,-5,-1,-4,-2,-5
1533260490693253,2,-5,-29,2,-1,2,1,0
1533260490698252,0,4,-23,-3,-3,-1,-1,0
1533260490698252,-10,-4,13,-2,3,0,-1,1
1533260490707263,0,-3,0,1,-2,-3,-1,-3
1533260490707263,1,-1,20,-1,-2,-1,-2,-1
1533260490721274,0,-3,-19,5,1,0,0,-1
1533260490721274,0,-12,4,5,-4,-1,0,-1
1533260490723270,9,-3,-38,1,4,3,0,-1
1533260490723270,-3,-13,25,-2,-5,-2,-1,0
1533260490751279,0,-7,24,-1,4,-4,-2,-2
1533260490751279,-1,-22,-54,-14,-5,-2,0,-2
1533260490753281,-2,12,36,2,-3,-2,-2,1
1533260490753281,6,-6,-23,4,-3,2,0,3
1533260490758303,-2,10,7,1,-1,-2,-5,-14
1533260490758303,-9,-39,-29,4,-1,-1,-1,-2
1533260490767292,3,25,8,-10,1,2,-2,0
1533260490767292,-11,-18,-13,-6,-8,-5,-3,-4
1533260490781301,-9,-23,-30,-16,-6,0,0,2
1533260490781301,7,17,-14,9,6,2,-2,1
1533260490783303,-1,-4,34,29,3,1,0,-1
1533260490783303,1,14,-18,-11,-5,-2,-3,-1
1533260490811323,-1,-9,26,2,6,0,1,1
1533260490811323,-2,-2,-25,-10,-6,-6,-3,-4
1533260490813324,-6,-7,31,-14,-12,-6,-1,-3
1533260490813324,-1,12,6,15,9,1,1,-1
1533260490817327,-1,-7,39,9,-1,-1,3,1
1533260490817327,4,11,-87,-5,-5,-1,3,1
1533260490827333,-5,-4,11,-6,0,-3,-1,-1
1533260490827333,-1,-11,-32,-11,-9,-2,-1,-1
1533260490841354,0,8,21,-7,4,1,-1,3
1533260490841354,0,2,8,-13,-2,-1,-2,0
1533260490843345,4,13,-24,7,-5,-1,-1,-1
1533260490843345,-3,2,12,14,-1,-2,-1,-6
1533260490864361,-1,7,11,-5,-2,-3,1,4
1533260490864361,1,15,31,3,5,1,0,0
1533260490865362,-6,-14,14,0,0,0,-2,-4
1533260490865362,0,0,-48,-24,3,1,0,1
1533260490877368,-2,-11,25,26,-5,-6,-4,-3
1533260490877368,1,-4,32,1,-1,1,-1,-1
1533260490886375,-1,13,-22,-11,0,-2,1,-1
1533260490886375,-4,-26,6,23,0,-1,0,-1
1533260490901386,4,-4,-48,-18,-5,-2,-1,-2
1533260490901386,-2,2,20,-9,1,-3,-1,1
1533260490903388,-2,-7,-22,-5,0,-2,-2,2
1533260490903388,-1,-5,-8,2,-1,0,-2,-1
1533260490924402,-9,6,24,-7,-7,-1,-4,-3
1533260490924402,-2,-16,14,23,0,-1,0,-4
1533260490925403,1,-3,-3,-2,0,1,1,0
1533260490925403,1,0,3,6,-1,-1,-2,0
1533260490937411,0,-4,-26,-19,-3,-1,-1,-2
1533260490937411,-1,-26,-32,-8,-5,-3,-2,-2
1533260490946418,0,14,39,10,1,-2,-2,-1
1533260490946418,0,10,42,19,5,2,0,0
1533260490961428,2,-1,-9,0,-2,0,0,1
1533260490961428,-2,3,-25,-12,-3,0,-2,-2
1533260490969459,-3,-13,-6,-9,-3,-2,-1,0
1533260490969459,-1,-1,21,-9,-5,-3,-2,0
1533260490984460,0,-1,-48,0,2,0,-2,1
1533260490984460,-4,-2,26,3,1,1,0,-1
1533260490985461,-1,-7,-9,7,2,2,-1,-1
1533260490985461,2,5,1,-13,-2,-1,0,-1
1533260490997469,0,-4,-9,16,3,-2,0,0
1533260490997469,-1,-1,2,0,1,-2,1,-1
1533260491006475,3,10,5,-6,-2,-2,-1,-1
1533260491006475,1,-3,-14,-18,-5,-2,3,-2
1533260491021505,0,2,-40,-10,0,0,-7,-6
1533260491021505,0,-1,24,13,-1,-1,-2,-1
1533260491023497,-4,-3,10,1,-3,-3,-1,-2
1533260491023497,-2,-4,-4,14,-2,-3,-4,-4
1533260491044518,-1,-1,-22,-18,-5,-4,1,-2
1533260491044518,-3,-2,18,-7,-1,1,0,2
1533260491045503,1,-4,-10,-4,1,3,-16,-4
1533260491045503,0,-34,-40,-5,-1,-6,4,2
1533260491057609,6,-14,21,5,3,4,2,0
1533260491057609,-2,-4,7,1,-2,-8,-18,-5
1533260491066564,11,15,-9,9,-4,2,15,8
1533260491066564,-17,14,-29,-17,-4,-3,-18,-16
1533260491081599,-7,11,7,-10,2,1,11,-10
1533260491081599,2,1,15,-1,2,4,8,6
1533260491083576,-2,-6,1,3,0,1,-3,-5
1533260491083576,4,-7,-15,-5,2,2,-3,6
1533260491104607,-1,-3,32,6,-9,-4,0,1
1533260491104607,-2,6,-12,23,0,2,-1,-5
1533260491105598,1,0,-38,-23,4,1,2,0
1533260491105598,0,-1,59,12,-11,-6,0,-2
1533260491117613,-3,2,11,-17,1,-1,-6,0
1533260491117613,4,2,-1,15,1,-1,1,-2
1533260491126608,-2,-8,1,15,-2,-3,-2,1
1533260491126608,-1,7,-27,-23,-1,2,2,-2
1533260491141632,-1,0,2,9,5,1,-4,-4
1533260491141632,-1,8,23,-13,-8,-7,-3,1
1533260491143633,-2,-8,-39,13,14,-1,3,-1
1533260491143633,-4,2,57,14,-1,0,-1,-1
1533260491164632,0,-12,-28,5,-7,-5,-5,2
1533260491164632,1,-19,-11,1,-1,1,2,0
1533260491165633,-3,-10,-18,2,5,1,-3,0
1533260491165633,-1,3,1,16,0,-1,-2,-2
1533260491177657,1,4,1,3,0,-2,-1,3
1533260491177657,0,1,-9,-18,1,-1,1,1
1533260491186648,-2,0,4,-12,-4,-1,-2,-4
1533260491186648,-1,26,-10,-7,1,1,-2,0
1533260491201711,0,8,51,7,1,2,0,-1
1533260491201711,-7,-5,-20,7,-10,-7,-4,-5
1533260491203659,-2,-5,6,11,-3,-4,0,-2
1533260491203659,2,2,-17,2,-1,1,2,0
1533260491223690,-5,7,4,1,5,-1,-2,1
1533260491223690,-2,-1,-15,-15,3,-1,-2,0
1533260491225676,-4,4,24,-2,-3,-3,-3,-1
1533260491225676,0,-7,-14,-14,1,1,1,2
1533260491237700,0,-4,-3,4,-3,-3,-2,-2
1533260491237700,1,-11,-1,8,2,-2,-1,-1
1533260491246691,0,1,29,12,-2,1,-1,-1
1533260491246691,0,9,-33,-15,-2,-4,-1,-1
1533260491261716,-1,-1,12,-17,-2,-1,-3,0
1533260491261716,0,9,-11,-18,-2,-1,0,0
1533260491263717,-1,-2,21,-6,-12,-5,-3,-3
1533260491263717,1,-6,2,-4,-8,-3,-1,-1
1533260491283731,-3,-5,-1,-1,5,-1,-2,-1
1533260491283731,4,2,-3,32,10,5,1,-1
1533260491285718,1,-6,-13,-7,1,-1,0,-2
1533260491285718,-1,-4,-5,-9,-1,1,2,-1
1533260491306747,-2,1,2,-12,-7,-2,-2,-2
1533260491306747,-3,-6,-14,-6,-3,0,-2,0
1533260491308738,-1,0,-11,-9,0,-1,-2,-2
1533260491308738,0,-2,21,8,1,-1,-1,-1
1533260491321795,0,2,-17,6,1,1,0,2
1533260491321795,0,3,12,8,5,0,0,-1
1533260491323744,-3,-3,-16,-6,-3,0,-4,-2
1533260491323744,-2,7,34,-5,1,-2,-2,-1
1533260491343759,-1,-27,-50,0,1,-1,-2,1
1533260491343759,0,1,13,-18,-5,-3,0,-1
1533260491345760,-2,-9,-2,-12,3,0,2,0
1533260491345760,-3,-7,2,11,-1,-3,-2,0
1533260491366790,0,3,15,-4,0,-2,1,-2
1533260491366790,-2,-4,7,28,0,-4,-2,0
1533260491367776,-3,6,18,-22,-1,0,-3,-1
1533260491367776,-1,-12,-63,-4,0,-1,-2,-1
1533260491381801,5,-1,-25,5,-1,0,1,1
1533260491381801,-3,-11,3,-21,-5,-2,-2,-3
1533260491382802,-1,6,7,11,-3,0,-2,1
1533260491382802,1,-1,13,12,2,1,0,0
1533260491403817,-3,1,16,0,-3,-1,-1,-1
1533260491403817,0,-5,-20,7,-1,-1,2,0
1533260491405802,1,-7,-9,-8,-6,-4,1,-1
1533260491405802,-2,15,30,11,2,1,0,1
1533260491426832,-1,3,-10,-13,-5,-1,-1,-1
1533260491426832,0,5,-6,-21,1,1,1,-1
1533260491427833,1,-1,7,16,-4,-1,-2,-1
1533260491427833,-8,-18,-13,2,1,-3,-3,-6
1533260491441879,-1,0,14,18,6,1,0,1
1533260491441879,-1,4,6,14,-1,-1,0,1
1533260491442849,0,-1,-23,-7,-5,-1,0,-1
1533260491442849,1,-7,4,-11,-2,1,-1,0
1533260491463859,-3,6,2,-8,-3,0,0,-2
1533260491463859,-2,11,10,-11,-3,-1,-1,-2
1533260491465845,-5,-22,-24,-8,-1,-3,-2,-2
1533260491465845,0,-10,28,17,-1,-1,0,-2
1533260491486875,0,-8,-19,2,-2,-6,0,0
1533260491486875,0,-6,-25,3,-2,-1,1,-1
1533260491487862,-1,14,12,4,1,-2,-2,0
1533260491487862,1,4,-2,-19,0,-2,-2,-2
1533260491501883,3,13,31,-8,1,2,-1,0
1533260491501883,-5,-7,-64,0,-5,-1,-4,-2
1533260491502884,-1,1,-18,7,0,-3,-2,1
1533260491502884,-2,-9,-10,-6,-2,-2,-2,0
1533260491523901,0,4,17,12,-1,-1,-1,-2
1533260491523901,0,3,51,10,-4,-3,-2,-2
1533260491525887,-1,-12,-17,-3,0,-3,2,-1
1533260491525887,1,-8,-73,-26,0,3,0,0
1533260491546955,-2,8,32,-6,-2,0,-1,0
1533260491546955,-1,-5,0,-13,-2,-3,-3,-3
1533260491547943,-2,14,35,20,1,-2,-2,-1
1533260491547943,-1,-4,68,-8,1,-1,1,0
1533260491560927,0,-12,-4,11,8,1,2,1
1533260491560927,-2,2,-59,-11,-3,1,0,-2
1533260491567996,-2,7,37,7,-9,-4,-2,-3
1533260491567996,-1,-15,-54,-1,-1,-3,-3,-4
1533260491583997,4,10,19,-10,5,5,2,3
1533260491583997,-1,-5,36,3,-2,-5,-1,1
1533260491586006,-5,-8,10,-18,-4,-4,-4,-2
1533260491586006,-11,0,-92,1,-8,-1,-1,-4
1533260491607024,-1,-8,-10,-3,-14,-7,-3,-2
1533260491607024,4,2,13,-4,1,0,-3,0
1533260491608012,2,2,8,2,5,4,3,2
1533260491608012,4,4,34,26,13,1,4,4
1533260491620035,-1,3,-6,4,-2,4,-1,-5
1533260491620035,-3,-2,-5,-21,-8,-3,-2,0
1533260491629034,-6,-7,1,-14,-12,-9,-8,-5
1533260491629034,1,3,7,-24,-3,3,1,0
1533260491644052,-6,-5,-25,12,11,-2,-1,-1
1533260491644052,-1,-1,11,14,5,1,0,-2
1533260491652058,0,-6,-16,-2,8,10,5,2
1533260491652058,-1,3,2,-11,-10,-3,-4,0
1533260491667054,-2,-4,-35,18,-3,-5,-2,0
1533260491667054,-3,1,30,12,-1,-6,-2,-2
1533260491668055,-2,-3,-22,6,1,2,0,0
1533260491668055,-1,7,36,-8,-7,-2,-1,0
1533260491680062,0,-1,-24,-23,-5,-1,-2,-2
1533260491680062,-1,2,-4,-10,-5,-3,-1,-2
1533260491689068,-3,-3,-6,0,-4,-2,-1,-2
1533260491689068,3,1,17,3,4,1,0,-1
1533260491704130,0,-7,-9,0,-1,-1,1,-1
1533260491704130,-1,3,5,-9,-2,0,3,-1
1533260491706094,-1,0,5,15,-1,-1,-2,-2
1533260491706094,-1,4,14,14,1,-2,-1,-2
1533260491726095,-2,-2,-5,-2,11,6,1,0
1533260491726095,0,-2,-3,-5,2,-1,0,1
1533260491734102,2,-2,1,-7,4,-3,-2,-1
1533260491734102,-2,-2,-7,3,-2,1,-1,-1
1533260491740105,-3,-2,26,8,-2,-3,-3,-2
1533260491740105,-1,3,23,-8,-2,1,-1,2
1533260491749112,1,-1,-56,-6,1,-1,2,-1
1533260491749112,-1,-3,-3,5,-2,-4,-1,-3
1533260491764174,1,-30,7,-4,-7,-1,-1,0
1533260491764174,0,-11,1,3,4,1,-3,-1
1533260491766139,-1,-4,2,-18,-6,-4,-3,0
1533260491766139,-3,12,20,-13,-6,-5,-1,-1
1533260491787139,-2,9,-11,-3,-3,1,2,-6
1533260491787139,3,9,-21,4,10,4,4,0
1533260491788139,1,4,8,3,1,-1,0,-2
1533260491788139,0,4,1,-4,-12,-2,-1,0
1533260491800161,-3,0,9,22,1,-3,-2,-3
1533260491800161,-2,1,1,-1,-2,2,0,-2
1533260491809169,0,4,4,-5,7,5,0,-1
1533260491809169,0,0,7,-14,-5,-3,-2,0
1533260491824260,-5,3,-43,-31,-15,-9,-5,-1
1533260491824260,-3,-1,11,8,-10,-8,-6,-1
1533260491826261,1,-3,-10,13,13,7,1,1
1533260491826261,3,3,-17,6,1,3,-1,1
1533260491846240,1,9,-20,17,19,-1,-1,-1
1533260491846240,1,1,-12,0,-8,-2,0,-3
1533260491848249,-7,-1,12,-17,-11,-10,-6,-3
1533260491848249,-7,-6,1,-11,-1,1,-1,-3
1533260491860249,0,-10,22,1,-19,-3,4,1
1533260491860249,4,-1,33,32,37,2,3,3
1533260491869275,3,-6,40,6,9,5,4,1
1533260491869275,-1,-3,-3,-10,-2,2,-4,-1
1533260491885299,-6,0,2,-8,-26,-9,-7,-4
1533260491885299,-4,-2,23,8,-4,-3,-1,-3
1533260491886284,-1,0,-16,6,1,-2,0,-2
1533260491886284,1,-1,8,13,26,4,0,1
1533260491906320,-4,-6,16,-29,-7,-3,-3,-2
1533260491906320,-8,-7,-7,-31,12,1,-5,-4
1533260491908300,-3,-1,-9,19,-21,7,-1,-1
1533260491908300,4,4,-13,5,-5,-1,0,4
1533260491920323,3,5,12,-4,-5,-12,-1,-1
1533260491920323,2,-4,-9,-12,12,-4,0,-1
1533260491929317,-4,-5,-19,-8,10,-7,-10,-5
1533260491929317,-11,-4,-3,3,-50,-6,-5,-8
1533260491944340,9,12,-18,55,47,16,17,9
1533260491944340,5,3,16,-11,19,10,4,4
1533260491945383,-1,-20,-6,-19,-2,-5,0,-3
1533260491945383,-8,-11,-2,-38,-25,-14,-12,-5
1533260491966356,-6,-6,-5,-4,-8,1,-3,-5
1533260491966356,3,1,-3,37,-9,2,7,2
1533260491968342,2,1,-4,16,11,1,2,1
1533260491968342,2,0,16,14,19,4,2,1
1533260491980361,-5,-6,-64,-6,-10,-4,-6,-3
1533260491980361,-6,-22,-3,-14,-21,-4,-8,-4
1533260491989366,-1,2,24,-5,-11,-3,-2,-3
1533260491989366,3,3,4,9,17,-3,-1,0
1533260492004384,-2,9,21,-21,-5,-1,-3,-2
1533260492004384,0,7,-11,-11,-9,1,-1,-1
1533260492005385,-1,3,-18,-16,-4,-1,0,2
1533260492005385,3,-2,-14,1,2,-2,1,0
1533260492034406,-2,-6,23,4,5,4,-2,-1
1533260492034406,-5,2,-40,-8,-9,-4,-2,-2
1533260492035405,-1,4,11,-7,-9,-4,1,-2
1533260492035405,1,5,1,29,12,2,2,1
1533260492040458,0,-7,22,27,0,0,-3,1
1533260492040458,-3,-1,-12,-17,-16,-5,-3,-3
1533260492049494,-1,1,-8,-11,-6,0,-1,-1
1533260492049494,-2,-2,2,-5,10,1,2,-2
1533260492064519,3,-2,1,-18,10,4,-1,1
1533260492064519,0,5,-3,-3,-8,-4,-3,-1
1533260492065524,-3,0,6,-16,-12,-5,-4,0
1533260492065524,2,-6,2,25,9,2,0,0
1533260492086534,-3,2,0,-33,2,0,-1,0
1533260492086534,0,3,0,15,2,1,0,0
1533260492088530,3,1,-8,-1,-2,-3,-2,0
1533260492088530,-3,-14,-14,-7,-9,-3,-2,-2
1533260492100540,1,4,3,3,-7,-4,-1,-1
1533260492100540,0,-5,5,-4,2,0,-2,-1
1533260492116541,-2,-8,6,30,9,-1,2,0
1533260492116541,-2,7,2,3,1,-1,0,1
1533260492124562,0,7,1,3,-2,1,-1,-1
1533260492124562,0,-2,-3,-22,-15,-5,-3,-3
1533260492125550,-2,-13,-4,-20,-2,-2,-3,-3
1533260492125550,-2,-7,-3,37,12,7,5,0
1533260492146657,-2,12,1,-5,2,-4,-4,0
1533260492146657,2,51,2,-8,-7,-4,0,2
1533260492148625,3,18,-2,-5,5,5,1,1
1533260492148625,1,12,13,-12,-10,-6,-3,-3
1533260492160632,-1,-39,4,4,-7,0,2,-4
1533260492160632,-2,-38,17,0,2,-2,-3,0
1533260492169666,-4,-15,-35,1,0,-3,-3,-3
1533260492169666,-3,19,3,-20,-4,-2,-3,-2
1533260492184698,-1,29,28,8,-8,-4,-4,0
1533260492184698,6,78,6,3,-4,-1,-2,-1
1533260492185696,7,52,10,9,6,2,2,2
1533260492185696,5,35,4,-22,-3,-3,1,-1
1533260492206707,-9,9,-35,9,3,-1,0,-1
1533260492206707,-16,49,-18,-2,-3,-2,-2,0
1533260492208709,-12,4,8,-1,0,1,-2,-1
1533260492208709,-8,-27,8,7,3,2,1,1
1533260492220717,-6,-19,1,-15,-7,0,2,-1
1533260492220717,-4,-94,-17,-26,6,-1,-1,-3
1533260492229768,-1,-63,9,-2,-6,-3,-4,-4
1533260492229768,-3,-9,-8,-7,-6,-4,-3,-1
1533260492243778,4,4,19,28,-4,0,-3,-2
1533260492243778,0,-65,-39,-23,10,4,6,1
1533260492250767,0,-35,16,13,-7,-5,0,-1
1533260492250767,0,-19,16,8,0,1,-3,-2
1533260492266809,5,-2,-12,5,-7,-2,-2,0
1533260492266809,4,13,-2,27,-2,-1,-3,-1
1533260492267828,-2,25,31,2,2,-2,-3,-3
1533260492267828,2,-9,-9,5,0,-1,0,0
1533260492280817,-1,6,-2,-30,-9,-4,-3,-1
1533260492280817,-5,2,8,13,3,5,2,1
1533260492288959,0,9,-25,-31,-7,0,4,0
1533260492288959,-2,-13,21,16,3,0,0,-2
1533260492303962,-6,1,-20,-27,1,-2,-3,-3
1533260492303962,-2,-6,16,-8,-7,-4,-6,-3
1533260492309938,-2,-4,8,46,4,7,2,2
1533260492309938,0,-17,-32,-16,-4,-3,-2,-1
1533260492327028,0,-13,3,-17,-4,-3,1,1
1533260492327028,0,-10,-25,16,1,-2,0,1
1533260492327979,-1,-20,-13,3,2,-2,-2,-4
1533260492327979,-1,10,-4,-21,-3,-3,-2,-2
1533260492349010,-1,-2,-3,15,6,1,-2,-2
1533260492349010,4,-3,4,-13,-3,0,0,0
1533260492351015,2,12,-17,-7,6,-1,4,4
1533260492351015,-1,10,-5,13,-6,-2,-2,-1
1533260492372028,4,-11,9,-2,9,2,-2,0
1533260492372028,-6,-7,23,22,-5,-4,-3,-2
1533260492373011,-2,6,-18,-6,-4,-4,-4,-2
1533260492373011,1,15,-3,-8,4,-2,-2,-2
1533260492387022,-2,-4,4,18,-1,-1,1,-3
1533260492387022,-3,24,-2,-6,-3,-1,-3,-2
1533260492388023,-1,22,-2,4,0,2,-1,-2
1533260492388023,-2,-10,-4,-24,-8,-3,-2,-2
1533260492409036,-2,8,0,21,-2,-4,-3,-3
1533260492409036,-6,-59,-39,-19,-4,7,7,1
1533260492411048,3,-33,-17,-1,0,-1,-1,-1
1533260492411048,-1,-35,1,-5,1,4,-1,-1
1533260492423059,2,7,-14,-14,-7,1,0,2
1533260492423059,1,8,9,9,12,-6,-2,-1
1533260492430052,-2,33,13,29,-5,-4,-4,-3
1533260492430052,-2,-112,-29,-16,-2,3,3,0
1533260492447078,0,-68,11,0,7,2,-3,-1
1533260492447078,1,-88,1,5,-2,1,0,-1
1533260492448064,-2,-28,-6,-20,-3,-3,-1,-1
1533260492448064,3,46,16,12,9,-5,-3,-2
1533260492469094,0,30,14,5,4,-2,-1,-2
1533260492469094,-1,32,-11,-24,-12,-9,-2,-2
1533260492471080,-4,-12,2,-2,8,2,0,-1
1533260492471080,-1,26,-5,3,-3,2,-1,-1
1533260492483105,0,-2,-9,-11,0,-2,-1,1
1533260492483105,0,55,7,10,-6,-1,0,-3
1533260492490108,3,-19,16,6,-1,-4,-1,0
1533260492490108,-5,13,-19,-12,0,3,1,2
1533260492507162,-3,-1,-8,-10,-2,2,1,-4
1533260492507162,1,21,6,20,3,1,-2,-2
1533260492508153,-3,30,-11,-13,-4,0,-1,-1
1533260492508153,4,-5,4,11,1,-1,-2,-1
1533260492529217,-5,-32,-6,9,-1,1,0,2
1533260492529217,3,23,12,-2,-5,-2,-1,0
1533260492531224,-2,-4,7,-10,-6,-4,-1,-4
1533260492531224,0,-17,-4,1,5,0,0,1
1533260492543192,1,-21,-11,-15,-5,-4,-1,-2
1533260492543192,-1,-16,5,-1,4,-1,-2,1
1533260492550273,-5,-86,-9,-8,-4,0,-1,-1
1533260492550273,9,87,40,11,-3,-1,-1,0
1533260492566289,0,47,-39,-13,-2,3,1,-1
1533260492566289,-1,-3,2,2,-1,0,0,-2
1533260492568259,-6,17,-19,-3,-2,-1,0,-1
1533260492568259,-3,-5,4,8,5,1,-1,-1
1533260492589270,-3,33,16,23,-1,-2,-3,-1
1533260492589270,0,44,-10,0,4,1,-2,-2
1533260492591271,-4,65,5,1,-5,-1,-1,-3
1533260492591271,-2,29,-8,9,-5,-4,-2,-2
1533260492603279,-2,16,7,2,-4,-2,-2,-3
1533260492603279,-5,-40,-9,-4,2,3,2,-2
1533260492612286,7,-20,-1,-22,-2,-1,-2,-2
1533260492612286,-3,-18,-7,-15,-4,-2,-3,-3
1533260492627298,-1,-19,-13,-25,-4,-2,-1,-1
1533260492627298,3,-2,16,1,6,0,-2,-1
1533260492634296,-10,-28,-3,7,1,3,-2,-2
1533260492634296,-3,25,18,13,2,1,4,0
1533260492649398,2,-4,14,-6,-4,-1,-1,-1
1533260492649398,1,14,9,20,3,-3,-4,0
1533260492655398,-1,5,-2,17,-2,-1,-5,1
1533260492655398,1,-13,9,24,-1,-5,-3,-1
1533260492662485,-5,-4,17,-6,-3,-4,-1,-2
1533260492662485,-7,-64,-5,-15,-6,0,0,0
1533260492671470,11,73,9,-10,8,1,2,2
1533260492671470,0,-7,-19,-17,-4,-3,-2,-1
1533260492694508,2,9,-5,2,6,1,-2,0
1533260492694508,-6,1,-45,-28,-16,-12,-5,-4
1533260492695464,-1,-13,15,-11,0,3,3,0
1533260492695464,-1,-14,-7,1,-3,0,0,-2
1533260492709482,-2,-9,-7,-5,-4,-3,-2,-3
1533260492709482,-2,10,13,10,4,3,-1,0
1533260492710470,0,0,0,6,-2,-2,-2,-1
1533260492710470,1,21,18,-1,3,0,0,2
1533260492722492,-4,-8,18,4,-1,-2,-3,-4
1533260492722492,-1,13,-13,-4,-5,-2,2,1
1533260492731496,4,8,-12,17,1,2,2,1
1533260492731496,-2,-16,8,2,-2,0,-2,-2
1533260492746494,-1,-4,-19,-14,-4,-1,-2,-1
1533260492746494,1,10,22,-2,1,1,0,-2
1533260492748498,-2,8,-18,-30,-5,-5,-2,-4
1533260492748498,-2,6,29,8,-3,-2,-2,0
1533260492768522,-4,-26,-61,-19,-4,-5,-2,-3
1533260492768522,3,5,32,10,-1,-1,1,-1
1533260492775530,-2,-20,-54,0,-3,-5,-1,0
1533260492775530,-2,-15,10,1,-2,-5,-2,-1
1533260492782534,-5,-2,51,12,6,2,-3,-3
1533260492782534,0,-16,-9,-21,-2,2,-1,-2
1533260492791525,2,-8,92,9,4,0,1,-2
1533260492791525,-2,-38,-11,-14,-9,-4,-3,-4
1533260492806551,0,-14,41,17,2,0,0,1
1533260492806551,-4,-4,-53,-10,-4,-5,-3,1
1533260492808538,5,-4,-24,5,1,1,2,12
1533260492808538,-2,2,5,2,3,1,-2,-10
1533260492829569,13,-3,5,12,6,8,3,-1
1533260492829569,2,-1,3,10,1,0,-2,1
1533260492830553,-7,-36,-48,-33,-15,-10,0,2
1533260492830553,0,-17,4,10,0,2,2,4
1533260492842578,2,10,-15,5,2,-4,-4,-3
1533260492842578,1,-22,-68,-49,-8,11,18,10
1533260492851568,-4,-15,48,-3,-9,-5,-4,-4
1533260492851568,-2,1,-9,-26,-4,-12,-4,0
1533260492868580,0,28,61,-2,-5,-4,-2,-4
1533260492868580,-3,34,-2,8,6,1,-3,-7
1533260492869581,-4,125,-43,8,2,3,-4,0
1533260492869581,-3,112,3,-12,0,3,0,-11
1533260492889641,-4,127,102,12,6,1,-5,3
1533260492889641,-8,127,-59,-20,-8,-5,-4,-4
1533260492890597,2,119,-8,-1,2,5,2,-4
1533260492890597,-2,33,65,3,2,0,-3,-3
1533260492902737,-2,-86,44,-1,0,0,-6,0
1533260492902737,8,-122,-10,18,2,3,-3,6
1533260492911694,2,-128,-60,0,-2,-3,-4,-14
1533260492911694,0,-62,-128,-6,-7,-2,19,4
1533260492926716,8,-72,-128,-9,-4,8,78,3
1533260492926716,3,-48,56,22,9,-1,-9,3
1533260492928717,-7,-113,-17,8,-4,-15,90,-7
1533260492928717,11,-128,-123,-5,8,0,45,-2
1533260492948730,-3,-128,-127,8,-15,-3,-58,5
1533260492948730,6,-120,-96,-15,-26,-8,107,-1
1533260492950723,13,-60,-114,-47,-35,-1,-89,0
1533260492950723,7,-128,127,-28,-38,-2,-43,4
1533260492971753,-9,-122,86,42,-28,-7,94,-4
1533260492971753,-3,-32,123,36,-9,5,88,-2
1533260492973751,-2,64,127,44,1,16,17,6
1533260492973751,4,46,52,9,-3,5,-26,4
1533260492978825,-2,127,-51,12,6,4,-118,-3
1533260492978825,-11,115,-16,2,5,4,-128,-9
1533260492984823,2,103,66,25,9,-6,2,-1
1533260492984823,-8,127,-13,-7,10,-7,-7,-1
1533260493001876,-4,124,-24,-46,4,-23,-35,1
1533260493001876,-2,125,103,0,15,-15,5,-1
1533260493002874,-2,98,95,-17,10,11,27,3
1533260493002874,-13,108,-8,-22,0,-2,64,-5
1533260493015837,-2,93,-4,-35,12,-2,85,-1
1533260493015837,8,51,38,-8,16,-8,52,1
1533260493023910,-9,-79,-32,-6,4,-21,-18,-8
1533260493023910,-4,-119,-71,-14,-3,-10,-2,-3
1533260493038960,2,-109,-13,-43,0,-5,-41,-4
1533260493038960,-1,-92,-24,-28,-3,2,-109,3
1533260493044939,-3,-77,-53,-25,-2,6,-56,-6
1533260493044939,2,-86,8,8,-2,9,-68,8
1533260493062006,-2,-77,36,4,0,6,-52,-3
1533260493062006,-4,12,-29,34,3,9,-76,-4
1533260493062997,-3,-17,-43,-8,-4,9,-46,0
1533260493062997,-2,-85,25,11,8,0,-29,-3
1533260493075055,-1,-85,4,6,3,6,-36,1
1533260493075055,0,-125,1,6,1,6,-36,-2
1533260493084013,-1,23,36,15,10,-6,-29,0
1533260493084013,-3,127,4,15,10,-3,-39,-3
1533260493098023,-4,127,-10,5,7,2,-18,1
1533260493098023,-9,100,10,-11,-1,-10,1,-4
1533260493105041,-2,47,32,1,6,-3,-3,1
1533260493105041,0,20,-16,9,1,0,-16,7
1533260493129057,-1,8,14,11,-2,-3,9,0
1533260493129057,11,-48,29,1,0,-3,23,0
1533260493131057,-4,-36,-7,2,1,-5,11,-4
1533260493131057,-2,-13,-21,18,-5,-4,-6,-3
1533260493143066,3,-51,10,9,-6,-2,7,-5
1533260493143066,-4,6,-18,6,-4,-2,-24,5
1533260493152070,3,-9,36,14,1,5,-75,4
1533260493152070,-1,4,-13,-9,-4,-1,-9,-3
1533260493167080,-2,24,-16,-4,-4,1,7,-5
1533260493167080,2,-6,10,-2,-4,-3,20,-4
1533260493168071,0,-29,-23,1,-5,-4,40,-2
1533260493168071,-1,-5,19,0,2,-1,8,0
1533260493189101,-3,3,-3,-11,-1,2,-9,4
1533260493189101,-1,8,-12,-4,0,3,-6,0
1533260493191103,0,11,16,5,2,0,-30,-1
1533260493191103,-1,-15,-2,1,-4,0,-49,-5
1533260493203188,2,-18,-18,6,2,-1,6,-2
1533260493203188,-1,-9,1,-9,1,-4,20,1
1533260493212276,-4,-7,-6,-18,-4,-3,40,-5
1533260493212276,-5,16,4,-3,0,2,28,2
1533260493226249,-2,20,-5,1,0,2,1,1
1533260493226249,-5,-1,5,-5,-6,-7,-38,-3
1533260493233253,5,2,-15,7,4,0,-15,4
1533260493233253,2,-11,-4,10,5,0,-20,2
1533260493249265,3,4,17,5,-2,-8,-12,-5
1533260493249265,-2,-6,-10,5,-3,-1,1,5
1533260493250254,0,-11,15,0,-9,-3,11,-2
1533260493250254,5,-19,10,-7,-8,-1,-6,-2
1533260493271268,-1,-9,-9,-2,0,6,1,1
1533260493271268,5,-6,-20,10,1,3,-21,-6
1533260493273278,-6,-21,-6,-43,-1,-4,17,-1
1533260493273278,-6,-25,9,-36,-3,17,-6,-1
1533260493286290,-8,-25,-12,-19,-7,0,-17,-5
1533260493286290,2,-16,-2,4,3,4,-18,-5
1533260493293294,3,-2,13,28,13,-10,-35,3
1533260493293294,-4,3,-23,11,-9,-20,13,-4
1533260493310295,-2,14,-4,7,2,-7,-39,2
1533260493310295,10,5,-1,3,-7,0,-91,-3
1533260493312308,-2,2,-9,0,-4,2,-117,-2
1533260493312308,-2,10,41,-4,5,-7,-113,-4
1533260493331321,6,9,-4,4,6,-11,24,1
1533260493331321,-2,-37,-37,0,-3,7,87,-1
1533260493333322,-5,-27,-45,-8,-2,5,100,-3
1533260493333322,0,-5,-22,-3,-4,-2,127,-2
1533260493346332,-2,7,35,-2,8,1,92,-2
1533260493346332,-10,31,0,-2,13,2,-31,-7
1533260493352336,-2,26,11,6,-18,-1,-74,0
1533260493352336,3,18,-40,8,7,1,-59,3
1533260493369353,-3,19,-22,2,-6,-2,-128,0
1533260493369353,-7,20,-5,-10,1,-7,16,-1
1533260493371337,0,-5,1,-1,3,1,73,-1
1533260493371337,2,-24,-107,-1,-3,-7,64,-2
1533260493391364,-1,-30,-85,-6,-1,0,93,0
1533260493391364,-2,-17,-40,4,-5,-5,75,-2
1533260493393366,-4,-23,-96,15,1,-4,-65,-3
1533260493393366,-8,1,77,-7,-1,2,103,-4
1533260493405412,2,14,127,-1,-2,17,121,-2
1533260493405412,4,-36,45,-9,-2,2,127,1
1533260493414370,1,-13,57,-5,1,-5,100,-1
1533260493414370,0,-5,116,3,4,-9,40,0
1533260493429394,1,-1,39,-7,-3,-13,20,1
1533260493429394,-3,37,19,7,-13,-12,-7,-3
1533260493430394,-5,15,66,-16,5,3,19,-2
1533260493430394,3,2,127,22,11,5,-63,5
1533260493451409,1,7,67,12,-5,-6,-53,-1
1533260493451409,-10,-56,127,7,-8,-6,-57,-5
1533260493453394,-1,-4,127,-22,-4,-2,-13,-2
1533260493453394,6,5,76,-7,4,5,3,0
1533260493466418,3,-15,14,-10,-1,4,-8,0
1533260493466418,1,18,7,4,-1,-5,-2,0
1533260493472424,3,25,-81,-10,-3,-3,29,1
1533260493472424,3,9,-128,-2,-3,-3,0,0
1533260493489435,-13,13,-49,-11,-2,-4,-6,-2
1533260493489435,-9,-9,-27,-7,3,6,-3,-4
1533260493490443,-1,52,-44,4,-3,1,4,0
1533260493490443,-3,-35,2,0,-6,2,-27,-1
1533260493511452,-21,-49,18,0,-6,0,-28,-6
1533260493511452,-2,-53,23,-7,1,2,-20,1
1533260493513452,-13,-23,6,4,-4,0,-4,-6
1533260493513452,-2,-36,-16,-5,-7,-2,-10,-5
1533260493525497,7,-59,-11,-1,0,4,-2,-2
1533260493525497,-2,25,-71,-4,7,14,0,-2
1533260493534467,-8,-66,-47,9,-1,-2,2,-2
1533260493534467,0,-22,-77,1,-5,0,-8,0
1533260493549477,-20,-89,-128,0,-4,-3,-28,-6
1533260493549477,38,77,-48,3,2,-4,-14,1
1533260493550478,-5,69,-26,10,8,6,1,5
1533260493550478,-3,16,-70,-3,-4,-3,-10,-1
1533260493571576,1,127,-56,3,-2,-4,-13,-1
1533260493571576,-7,67,-41,-3,-1,-6,-16,0
1533260493573529,-2,83,17,6,5,4,-9,-3
1533260493573529,1,79,1,-1,0,0,-7,0
1533260493585550,10,26,-9,6,-1,-2,-5,2
1533260493585550,-4,-68,-26,-18,-8,-15,-4,2
1533260493594606,9,-73,0,-1,-7,-7,-9,-1
1533260493594606,-12,-70,-17,-6,-4,-1,-1,0
1533260493609610,9,-122,4,-4,-4,2,3,2
1533260493609610,-6,-63,15,0,-4,4,-4,-1
1533260493610608,-1,-128,3,0,-3,3,-1,-1
1533260493610608,4,-109,34,-9,0,5,1,-1
1533260493631629,5,13,-22,0,-4,2,-2,3
1533260493631629,-4,27,31,13,-4,1,-7,-2
1533260493633624,-6,26,-97,-9,-4,0,-3,-3
1533260493633624,0,67,-4,-5,-3,-2,-3,0
1533260493645638,3,65,16,-11,0,0,-1,1
1533260493645638,-10,71,14,-10,-1,1,-1,-3
1533260493654628,8,95,36,7,-3,-3,3,1
1533260493654628,-2,63,-1,19,0,-4,1,-3
1533260493669690,-3,41,27,-6,-2,-3,-4,-2
1533260493669690,-5,17,22,13,5,-3,-2,-1
1533260493670709,2,3,-58,-37,3,-3,2,0
1533260493670709,-2,39,-67,14,1,-3,-2,-2
1533260493692716,-1,13,-8,-15,-6,-9,-1,-5
1533260493692716,1,-24,-15,-16,1,-3,-2,0
1533260493694706,4,-30,45,16,8,-5,-3,0
1533260493694706,-4,-9,89,-9,-1,0,-2,-2
1533260493705732,-4,-10,-8,12,-2,-1,1,2
1533260493705732,4,-26,39,3,-11,-3,-3,0
1533260493714737,-1,-18,62,6,-10,2,-1,0
1533260493714737,-2,-10,-12,7,-9,5,-2,-3
1533260493728747,1,-2,-4,8,4,6,2,-1
1533260493728747,3,-9,-9,-11,-7,4,2,1
1533260493730743,-14,36,-20,7,-13,5,2,0
1533260493730743,0,0,-22,-15,-24,2,3,-2
1533260493751762,4,-5,8,3,-22,7,2,1
1533260493751762,-7,4,11,3,-27,9,0,-1
1533260493752764,0,-10,-17,0,-63,3,-3,-2
1533260493752764,-1,-5,12,-11,-10,7,-2,0
1533260493765800,-1,4,43,-2,3,15,-1,1
1533260493765800,-6,-15,-90,6,-35,3,-8,-3
1533260493773805,1,-15,13,57,-38,-1,-5,-4
1533260493773805,-23,3,27,72,-90,36,5,1
1533260493788816,-24,-8,0,68,-10,16,3,-3
1533260493788816,-17,21,23,71,107,52,3,0
1533260493790818,5,2,35,39,28,48,4,-1
1533260493790818,37,4,-21,28,127,-12,-1,-2
1533260493811883,124,9,-18,-23,112,-5,2,0
1533260493811883,97,-26,-2,-42,41,-29,1,2
1533260493813836,-31,3,5,-66,127,-30,1,0
1533260493813836,-24,38,17,-40,114,-15,-5,-2
1533260493824856,-99,15,4,0,-46,-18,-10,-1
1533260493824856,-74,15,19,-6,-80,-36,-20,-1
1533260493833863,-8,28,11,-15,-117,-29,-10,-1
1533260493833863,50,8,11,-37,-128,-22,-11,2
1533260493848876,104,26,-30,-19,-52,-43,-8,-2
1533260493848876,121,0,-4,-4,-115,-48,11,-4
1533260493850870,127,-41,28,0,-128,-47,19,0
1533260493850870,120,-29,18,-1,-112,-38,13,-1
1533260493871890,58,-10,27,-9,-26,57,14,1
1533260493871890,-13,-5,-35,21,48,91,3,-3
1533260493872891,-74,-3,-73,22,78,85,-14,3
1533260493872891,-23,-13,9,-1,8,99,-2,0
1533260493884899,-67,-11,-32,4,-14,59,9,-4
1533260493884899,-21,-4,-52,-22,-82,-4,17,-5
1533260493893907,-2,13,-12,-7,-39,-5,14,-2
1533260493893907,-11,13,-9,-3,-17,-5,12,2
1533260493908918,-9,15,-10,-17,-14,3,3,1
1533260493908918,-33,16,1,-5,-10,0,4,-3
1533260493910920,1,26,-20,-23,-35,-36,-12,-3
1533260493910920,-42,26,-12,-26,-30,-65,-12,-3
1533260493931934,-27,23,63,-10,2,-52,-10,1
1533260493931934,-31,9,68,-18,35,-33,-14,1
1533260493932947,-37,-19,46,-16,43,-37,-10,-4
1533260493932947,-27,-5,19,-10,49,-17,-8,-6
1533260493944938,-8,-5,25,1,34,2,4,0
1533260493944938,-9,-15,-31,-1,57,5,-3,5
1533260493953946,-11,-25,-21,-3,40,12,-7,-4
1533260493953946,-56,-24,-36,4,16,0,-9,-6
1533260493968994,-54,-25,-27,-19,21,-28,-16,-6
1533260493968994,-37,-17,5,-3,66,-5,-1,3
1533260493970947,-25,-12,-16,-7,55,5,6,1
1533260493970947,-37,-21,-27,-11,38,-3,1,-2
1533260493992017,-27,-23,-11,11,-19,-11,-4,-2
1533260493992017,-22,-13,8,-23,-12,-7,-7,-1
1533260493993004,-30,-18,-25,-7,-17,-12,-10,-3
1533260493993004,-14,-7,21,-5,-14,-13,-4,-1
1533260494005026,-5,-8,9,14,26,-5,1,4
1533260494005026,2,-2,-36,2,26,-11,0,1
1533260494014081,6,-3,-44,3,0,7,-2,-1
1533260494014081,-4,-5,-107,3,-26,-6,-2,0
1533260494029122,-4,-8,-124,-4,1,-9,0,2
1533260494029122,-21,-23,-89,-14,5,-12,-4,-6
1533260494031104,-34,-4,-108,-11,3,-9,2,-3
1533260494031104,-35,-10,-11,-30,10,13,0,-2
1533260494051103,-33,-10,87,-21,-33,5,-3,-5
1533260494051103,-14,2,121,3,-22,-1,-6,-1
1533260494059100,0,-9,127,-2,-2,25,0,2
1533260494059100,-2,0,90,5,12,57,4,2
1533260494065148,-21,-1,28,-8,8,-45,-1,2
1533260494065148,-9,5,43,-16,-14,-5,-5,-4
1533260494074128,4,9,22,-1,-9,35,3,1
1533260494074128,7,-2,-32,0,13,40,0,-1
1533260494097134,10,-8,-1,1,-11,36,-5,-4
1533260494097134,14,2,-7,2,-20,-9,-2,-1
1533260494098122,17,6,24,0,7,-44,-2,-1
1533260494098122,9,3,6,14,22,-25,4,4
1533260494112181,10,-3,1,-6,3,-14,1,-2
1533260494112181,-4,1,-3,6,6,-13,-1,-1
1533260494114148,-12,7,-17,0,10,-5,-5,-5
1533260494114148,8,6,7,-2,7,-20,-2,1
1533260494125235,10,5,-18,1,-8,-12,-1,-4
1533260494125235,14,14,-11,18,17,-6,2,2
1533260494140246,14,1,3,-10,-10,-8,2,-1
1533260494140246,13,-3,1,-4,2,-12,-2,-1
1533260494148251,-18,-10,-3,11,24,1,2,1
1533260494148251,-11,-4,7,6,3,9,2,1
1533260494155256,9,0,1,-5,-11,-15,0,-2
1533260494155256,-6,5,0,2,1,-30,-6,-4
1533260494172268,15,15,-2,2,-10,-1,-1,-3
1533260494172268,10,22,10,-10,-15,0,1,0
1533260494178237,8,3,-7,5,7,-3,3,0
1533260494178237,11,-1,5,0,-11,-11,0,-1
1533260494185242,8,-7,0,-10,-6,0,-3,-2
1533260494185242,12,-7,0,0,-1,-2,-2,-1
1533260494194309,12,3,1,-5,-1,-6,-1,1
1533260494194309,8,5,-2,3,1,0,2,-2
1533260494208340,8,4,1,7,-4,11,7,2
1533260494208340,4,10,-8,-3,-12,0,2,-2
1533260494223349,5,10,-15,3,-10,0,-3,0
1533260494223349,-23,3,-1,0,-18,-9,-6,-5
1533260494231320,-13,-2,-6,-2,-12,-7,-5,-2
1533260494231320,15,-19,-5,6,9,12,5,-1
1533260494233307,34,-3,-7,6,14,7,7,5
1533260494233307,65,-23,6,1,5,-2,3,1
1533260494254336,71,-1,-5,-1,-2,-4,-2,-1
1533260494254336,43,-2,0,-11,-21,-4,-6,-3
1533260494255336,12,-8,17,25,4,0,0,-1
1533260494255336,-18,13,-1,9,10,-2,4,1
1533260494268392,-28,13,-3,3,3,-4,-2,2
1533260494268392,-45,-7,-14,-6,3,-1,-5,-5
1533260494275398,-8,6,-5,-7,4,3,-2,0
1533260494275398,-11,-15,-7,-14,-2,-1,-3,-1
1533260494299399,8,-12,-9,0,3,6,0,-3
1533260494299399,8,-9,-4,10,10,3,4,1
1533260494300420,-47,-65,-27,-14,5,-7,-9,-13
1533260494300420,32,51,0,0,-6,7,6,6
1533260494314419,4,4,1,-5,-3,4,0,1
1533260494314419,50,34,12,-2,-10,2,-1,2
1533260494320429,44,1,11,0,-9,4,-2,-2
1533260494320429,32,-31,-20,-4,-12,0,-6,-3
1533260494328429,44,12,6,4,-7,3,0,-1
1533260494328429,0,-20,-3,2,-4,2,-1,-2
1533260494335439,-20,-2,-6,14,8,5,1,0
1533260494335439,-48,0,-1,12,6,1,1,-2
1533260494359456,-8,-5,-3,0,-6,-2,-1,2
1533260494359456,-20,8,-10,-4,33,-2,0,-5
1533260494360459,1,55,10,-1,-9,6,3,3
1533260494360459,-31,26,23,0,-12,0,-1,-2
1533260494381550,-57,-47,20,-7,-21,2,-6,-1
1533260494381550,0,-77,19,-4,-29,0,-4,1
1533260494383501,-21,-59,-24,4,-4,2,0,3
1533260494383501,-60,-67,-23,-2,4,-3,-4,-4
1533260494388524,-42,71,-16,0,6,0,1,0
1533260494388524,10,66,1,-2,-1,1,0,2
1533260494395572,56,81,-3,-12,8,-2,-2,0
1533260494395572,36,96,-23,-2,3,5,-1,-3
1533260494411614,-26,73,16,6,16,9,1,-6
1533260494411614,-32,-51,-22,-2,-3,0,-1,-1
1533260494413596,-22,-113,10,5,-4,-3,0,-6
1533260494413596,-1,37,-27,-8,0,-4,1,0
1533260494434635,22,114,-5,1,5,-2,0,-1
1533260494434635,9,127,-3,2,5,-4,0,-3
1533260494435581,15,68,29,-6,-1,-4,0,2
1533260494435581,58,33,17,-2,-4,-6,-4,0
1533260494448605,47,-58,31,-6,-4,-12,-7,0
1533260494448605,35,-116,24,6,0,3,0,-2
1533260494455612,-24,62,48,3,5,2,6,2
1533260494455612,5,-100,29,-2,-6,-6,-4,2
1533260494471621,-25,-24,10,4,-4,2,0,0
1533260494471621,14,94,19,10,-4,2,2,2
1533260494473624,7,-87,-26,-7,-6,-1,-3,-1
1533260494473624,-35,-14,27,5,6,7,3,1
1533260494493637,24,-128,-15,-1,-2,-5,-3,0
1533260494493637,-43,-128,-27,-4,-1,-1,1,-4
1533260494495633,-9,-68,-19,5,2,3,7,4
1533260494495633,-7,-74,-16,3,2,0,1,-2
1533260494508647,-12,16,-32,-4,1,-6,1,-1
1533260494508647,-38,72,-19,0,0,-2,1,0
1533260494516663,-7,108,-19,-3,-3,-1,-8,-2
1533260494516663,-2,11,-6,2,-4,1,-5,0
1533260494531664,-26,-31,-16,-1,-3,1,-10,-8
1533260494531664,-20,-111,-10,-5,-5,2,-4,-4
1533260494533660,-23,-36,-14,-8,-2,-1,-2,-4
1533260494533660,-31,-20,-8,-2,1,0,0,-3
1533260494553674,-15,46,-4,0,2,1,1,-3
1533260494553674,-6,100,0,3,2,-1,1,0
1533260494555665,-8,-84,-17,1,-1,-6,-3,-4
1533260494555665,-7,39,6,4,2,0,4,-3
1533260494576696,7,-26,-6,-2,-3,-1,1,-1
1533260494576696,-13,-33,-7,-6,-7,1,-6,-2
1533260494578697,-13,23,6,-1,5,8,-1,-1
1533260494578697,-3,34,-4,-2,0,-1,-6,-3
1533260494591706,0,17,1,13,-7,-4,-3,1
1533260494591706,0,34,36,-2,-57,-5,-2,-2
1533260494593708,3,32,11,-5,-23,-2,0,-2
1533260494593708,5,-7,-7,-13,-2,-5,1,-2
1533260494614722,3,16,-11,-11,20,-5,4,0
1533260494614722,2,-10,-29,-7,24,-5,19,-1
1533260494615717,7,61,-8,-4,14,-3,17,-2
1533260494615717,1,29,-7,3,7,3,16,-1
1533260494627732,-4,-21,7,-2,4,3,9,0
1533260494627732,-5,-7,-27,1,7,0,-9,-2
1533260494636734,0,-32,-8,4,1,1,-10,-1
1533260494636734,4,-20,-12,2,3,1,-5,1
1533260494651750,2,-1,-6,-2,-5,0,-10,0
1533260494651750,4,-14,16,2,-2,-1,-8,1
1533260494653744,5,-12,25,19,-1,-1,-7,-2
1533260494653744,5,-23,25,16,-4,-1,-11,0
1533260494673765,4,59,-8,-10,-7,0,-3,1
1533260494673765,5,24,35,-10,0,0,-6,0
1533260494675760,-1,6,-37,11,2,1,-3,1
1533260494675760,-5,-34,-30,-62,-17,-4,-5,-6
1533260494687775,0,-31,21,7,2,2,3,1
1533260494687775,3,13,-2,-1,2,-3,2,1
1533260494696778,4,22,24,5,-1,-1,-3,1
1533260494696778,5,2,8,15,-2,2,0,1
1533260494711791,4,-21,-9,-2,-5,-3,-3,0
1533260494711791,2,-4,2,-1,2,-4,-1,-2
1533260494712793,1,-2,15,-2,-2,-2,0,-5
1533260494712793,2,3,-2,5,-1,-2,-4,-3
1533260494742817,2,-14,6,-11,-9,-3,-2,-3
1533260494742817,0,-1,-19,7,2,2,-1,-1
1533260494743802,-3,-7,-9,-6,5,1,4,1
1533260494743802,2,2,-6,-3,-1,-2,5,3
1533260494755824,-1,0,38,4,-3,-2,4,-1
1533260494755824,-1,2,6,10,-3,0,-2,1
1533260494756809,4,1,-54,-5,-3,-1,-8,-1
1533260494756809,-1,-22,35,-11,-3,-3,-6,0
1533260494770832,1,20,-3,3,0,-1,-5,-3
1533260494770832,2,-5,-15,-7,-11,-7,-6,-6
1533260494771818,-10,1,19,-3,-5,-4,-3,-2
1533260494771818,-18,10,-14,10,-5,-6,0,-4
1533260494793848,-19,11,8,-4,-1,-1,3,-5
1533260494793848,-8,14,-6,3,42,10,3,-1
1533260494793848,0,20,7,-9,-19,-5,-3,2
1533260494793848,14,5,9,11,11,9,-3,2
1533260494815865,10,7,32,2,17,7,6,7
1533260494815865,5,22,4,-3,-3,5,0,-2
1533260494816863,5,-2,6,-4,8,15,0,-3
1533260494816863,8,20,-19,-6,-10,3,0,-4
1533260494830880,4,-7,-23,-9,-10,3,-7,-5
1533260494830880,-5,-4,11,-27,3,-20,-6,-5
1533260494831861,0,-12,-4,-15,-49,-26,-1,-11
1533260494831861,10,3,19,22,63,-11,14,4
1533260494853891,16,0,-17,9,-37,-46,2,6
1533260494853891,12,-18,67,15,19,-27,2,5
1533260494853891,9,-10,22,-4,-10,3,-3,7
1533260494853891,0,34,-12,-5,-28,-2,-9,-4
1533260494875907,-8,-10,-41,-29,-5,25,-6,-5
1533260494875907,-5,-5,-47,16,17,26,-8,-5
1533260494876907,-2,-3,-20,39,67,23,3,-5
1533260494876907,1,-5,15,-7,7,6,4,1
1533260494890917,3,-4,-15,36,48,11,10,4
1533260494890917,-4,-6,-19,-37,-26,-5,-7,-4
1533260494891919,-9,-9,-10,-27,-61,-13,-12,-4
1533260494891919,-10,-18,-13,-3,-4,6,-3,1
1533260494913934,-3,-8,17,-5,17,-13,7,8
1533260494913934,2,-7,-11,8,-17,7,2,3
1533260494913934,8,4,0,0,30,23,0,5
1533260494913934,4,-10,-20,-12,-11,72,-3,-1
1533260494935949,-1,-11,7,-5,-21,-26,-3,-7
1533260494935949,0,2,-14,12,0,76,3,18
1533260494936951,0,6,2,-21,-7,41,-2,21
1533260494936951,-6,-3,16,0,-37,-30,-10,8
1533260494950961,-7,-4,6,10,4,-55,-7,-1
1533260494950961,-1,-2,7,12,14,-52,7,-5
1533260494951961,-5,-1,11,-19,0,-28,2,-4
1533260494951961,-3,6,4,12,7,0,0,-5
1533260494972970,-1,-1,-13,-14,-1,25,-3,-12
1533260494972970,6,0,-3,13,-25,-7,3,-11
1533260494973962,2,-4,-22,-1,12,9,5,-9
1533260494973962,-3,-2,7,18,8,-10,-12,-8
1533260494996027,-1,-6,11,-12,-14,-13,-2,-11
1533260494996027,1,4,-3,-13,-18,-18,-1,-2
1533260494997008,-4,5,28,16,9,-21,11,1
1533260494997008,-1,-6,6,-4,-10,-25,3,0
1533260495011002,0,-2,-6,-12,-9,20,-6,2
1533260495011002,-22,-4,2,-1,5,31,-2,-1
1533260495012003,-3,-9,-4,-7,2,-5,-2,-5
1533260495012003,11,3,5,3,1,-15,1,2
1533260495033018,5,-9,-5,-3,1,21,0,22
1533260495033018,20,-1,-29,1,0,-7,0,9
1533260495034003,2,-5,-18,-2,-7,-21,-3,-3
1533260495034003,-2,-112,-25,-14,-11,-9,-5,-8
1533260495056115,2,99,16,13,2,5,15,5
1533260495056115,-5,1,15,-8,-6,-17,-4,-14
1533260495057075,1,14,-17,-5,-5,-11,-3,21
1533260495057075,-1,-50,-4,2,6,-7,0,-27
1533260495072091,12,42,5,-2,0,-9,-12,-2
1533260495072091,-14,-25,0,-13,-5,-10,-8,9
1533260495073076,-8,-11,10,10,3,-3,3,-17
1533260495073076,6,36,8,-1,-1,-1,13,6
1533260495095098,-14,-128,-8,2,-9,3,4,-9
1533260495095098,19,37,12,3,-2,5,7,1
1533260495096107,13,79,12,4,4,3,-15,-1
1533260495096107,-3,20,-8,-10,-1,-3,-7,8
1533260495116120,-3,-3,-5,0,-4,9,-5,-7
1533260495116120,5,-9,-2,-1,-4,0,0,1
1533260495117122,-1,-26,1,-5,-9,-6,-3,-2
1533260495117122,-3,39,0,-6,-3,-4,-5,6
1533260495132118,5,24,-12,3,-4,6,-3,6
1533260495132118,-5,-27,6,0,-7,-1,1,-4
1533260495133118,18,88,21,1,6,-3,4,3
1533260495133118,9,-4,8,-1,-3,-2,0,3
1533260495153228,4,29,24,10,-4,2,-3,-5
1533260495153228,5,-2,9,-9,-1,-7,-1,-2
1533260495154179,-3,-89,13,0,2,1,-2,-7
1533260495154179,0,92,27,7,8,6,5,-1
1533260495177209,-6,-67,-3,-8,7,11,-5,-4
1533260495177209,-11,49,7,0,0,11,-6,-8
1533260495178196,-22,-66,-30,4,0,7,3,-1
1533260495178196,-4,-25,-21,10,11,3,-6,3
1533260495191223,-4,-20,2,-1,4,-5,-4,4
1533260495191223,1,-82,-19,13,1,-7,-3,3
1533260495192220,-11,-48,-14,6,0,0,9,0
1533260495192220,-49,46,10,-2,-6,-3,13,8
1533260495213237,-66,-35,-14,-14,-12,-9,0,-11
1533260495213237,-19,56,8,1,10,4,14,-5
1533260495214235,54,94,2,0,-6,-6,7,0
1533260495214235,70,21,19,-2,-7,1,2,-2
1533260495236252,112,127,33,-9,-5,2,-2,-4
1533260495236252,89,110,26,-6,-11,-11,-10,-3
1533260495237253,53,-14,1,7,-1,-4,-3,-5
1533260495237253,51,82,15,-5,1,1,2,-2
1533260495252247,31,-87,-14,0,-2,-3,-2,-2
1533260495252247,-2,-73,-36,-9,0,0,-6,-3
1533260495253249,-22,-89,-4,10,0,2,-7,-3
1533260495253249,-34,-128,-35,-17,-6,-2,-8,-3
1533260495273278,-51,-114,-29,21,-2,3,0,2
1533260495273278,-41,-128,-34,14,3,-1,2,4
1533260495274276,-49,-109,-22,8,0,-6,-2,-1
1533260495274276,-44,-128,-21,-2,2,-7,-1,-3
1533260495297280,-39,-31,-25,-8,8,-7,2,-5
1533260495297280,-42,-128,-6,-8,-2,-8,-5,-8
1533260495298285,-40,-63,-2,-12,-3,-3,-3,-8
1533260495298285,-25,75,-5,1,1,-2,-2,-6
1533260495311345,-21,94,3,0,0,-2,1,1
1533260495311345,-13,-32,-41,-21,-8,-5,-4,0
1533260495311345,-4,97,24,5,5,8,-3,11
1533260495311345,-24,-71,-37,-6,1,2,-1,1
1533260495333397,-7,8,4,1,-1,3,-3,-2
1533260495333397,-3,25,-9,-10,-9,-6,-1,-7
1533260495334350,-1,30,9,-19,-5,-1,-2,-4
1533260495334350,-1,-16,1,-9,-4,-1,-7,7
1533260495356450,5,27,14,10,5,6,0,0
1533260495356450,2,46,24,-9,-15,-1,3,0
1533260495356450,1,8,2,17,17,4,1,0
1533260495356450,2,40,14,11,-1,3,-1,-1
1533260495371431,-6,-1,-12,-9,-3,-4,-4,-1
1533260495371431,2,75,12,4,2,2,-5,-1
1533260495371431,-9,41,0,-14,-8,-3,-2,-6
1533260495371431,8,12,1,-5,-6,-3,0,-4
1533260495393447,9,0,1,-8,-3,0,-3,0
1533260495393447,3,14,16,8,2,-2,-1,7
1533260495394448,2,36,10,-2,-4,-3,-7,1
1533260495394448,3,8,10,4,2,-3,2,2
1533260495417449,4,-23,-2,6,-1,-2,2,7
1533260495417449,-3,7,-8,-18,3,2,0,3
1533260495418462,-1,-1,8,8,2,2,2,5
1533260495418462,-2,13,6,-1,-3,3,-1,-5
1533260495431464,-3,-3,-3,-8,1,3,-3,0
1533260495431464,-1,12,10,23,11,-1,-4,0
1533260495431464,-1,66,-7,-8,-4,-3,-1,-3
1533260495431464,-2,21,-4,20,3,-1,4,-1
1533260495453491,3,-3,-15,-8,-12,-1,3,-4
1533260495453491,1,-16,1,4,4,0,-1,0
1533260495454493,4,-34,0,-4,2,-13,-1,-5
1533260495454493,2,-11,-8,1,-8,-13,-5,-9
1533260495476538,2,2,7,1,2,-3,-8,-9
1533260495476538,8,15,5,-8,-2,2,-6,-8
1533260495476538,-3,-3,-13,-12,-8,10,1,-4
1533260495476538,1,3,19,4,-2,5,3,2
1533260495490597,0,-18,-2,-4,-5,-7,3,-1
1533260495490597,0,-6,0,-2,-2,1,5,4
1533260495491562,-2,-11,-4,-5,-7,0,-1,2
1533260495491562,1,3,2,-3,0,3,1,2
1533260495513701,-4,6,5,-10,-5,-2,-4,-5
1533260495513701,-3,8,-8,-5,10,1,3,-1
1533260495514707,3,5,6,10,10,1,3,1
1533260495514707,3,-11,-2,-8,-2,2,-3,-6
1533260495535756,2,0,2,2,1,4,-2,-1
1533260495535756,-4,0,8,-6,-14,-5,-3,0
1533260495536706,6,-17,-8,25,9,5,1,-1
1533260495536706,7,1,-13,-4,1,-4,-1,1
1533260495550725,1,0,-2,1,-1,-7,3,0
1533260495550725,-2,-3,10,21,10,1,2,-1
1533260495551717,2,6,0,-12,-8,-5,-2,1
1533260495551717,1,-2,3,-9,-5,-3,-1,1
1533260495573741,0,-1,-10,-6,4,-2,-3,-4
1533260495573741,-1,-2,-3,-8,-11,-5,-6,-8
1533260495574741,-5,-12,-7,-1,-4,-3,-8,-7
1533260495574741,3,10,-6,-2,9,5,2,0
1533260495595762,1,5,-4,7,1,3,2,2
1533260495595762,-5,5,-3,-4,-5,1,0,2
1533260495596749,-9,3,-7,-4,-3,-3,-2,0
1533260495596749,-5,20,2,3,1,-5,-12,-2
1533260495610773,-1,-5,-1,-3,-3,-1,-5,2
1533260495610773,2,-14,1,-2,-1,0,0,-6
1533260495611761,7,-18,9,-5,1,-3,0,-6
1533260495611761,2,-18,2,2,0,-3,3,-9
1533260495633842,-1,3,4,3,2,1,4,-5
1533260495633842,6,-4,3,-2,1,-2,1,2
1533260495633842,-5,-12,-10,-15,-14,-5,-2,7
1533260495633842,-2,-11,-58,12,0,6,3,7
1533260495655893,0,12,-2,-7,3,2,1,3
1533260495655893,3,14,7,1,-5,1,3,-1
1533260495656844,-2,4,20,-2,-2,-2,1,-6
1533260495656844,-5,-4,17,2,0,-3,-8,-2
1533260495670905,-1,-3,21,3,-3,0,-1,-2
1533260495670905,3,0,-17,-15,-8,-5,-5,-2
1533260495671863,4,-4,2,-8,-5,-3,-1,-4
1533260495671863,1,-8,3,-17,-3,-7,6,-4
1533260495693961,1,-1,0,2,0,-3,7,-1
1533260495693961,-9,10,21,11,15,2,1,-1
1533260495693961,-4,-7,-12,-5,-2,2,1,-2
1533260495693961,4,4,-3,-6,-8,4,6,4
1533260495715967,0,3,-1,-11,-7,-1,-2,-3
1533260495715967,-1,3,-19,10,4,0,1,-1
1533260495716965,8,0,-15,4,0,-2,-3,1
1533260495716965,5,-2,14,15,-7,0,-5,0
1533260495731978,-3,0,1,-9,-6,2,-3,-4
1533260495731978,-3,-9,-7,16,2,1,-5,-5
1533260495732990,-1,0,-12,0,5,3,-4,3
1533260495732990,0,0,11,-12,-3,-4,-2,-7
1533260495752988,-86,-6,4,-18,-12,-5,-4,-3
1533260495752988,-18,-6,-2,9,-1,2,-3,-3
1533260495753989,8,4,7,14,21,9,-2,-8
1533260495753989,44,3,-4,6,6,0,7,1
1533260495776052,53,-2,-9,12,11,6,6,5
1533260495776052,24,3,38,-7,-2,-11,5,-2
1533260495777037,17,-25,-46,-11,-35,-15,5,-7
1533260495777037,6,-2,8,-17,-19,-6,-5,-7
1533260495790030,41,-1,-14,13,14,5,-5,-1
1533260495790030,12,7,10,15,14,4,-11,10
1533260495806041,8,11,26,9,11,-1,-9,5
1533260495806041,-22,-11,4,-4,-3,-5,-13,-6
1533260495813046,-17,-8,-3,8,-16,-7,-1,-3
1533260495813046,-3,-3,-15,-13,-7,1,6,-2
1533260495814031,-17,3,6,-7,-4,1,3,1
1533260495814031,-24,1,-4,-11,-7,1,-1,0
1533260495836056,-6,3,4,-10,5,-3,-11,0
1533260495836056,-3,-8,-13,0,8,3,-3,5
1533260495837058,-12,1,-3,-2,6,3,1,3
1533260495837058,-13,0,11,1,3,1,2,3
1533260495852068,2,-1,-14,-14,-5,-3,-5,3
1533260495852068,0,-4,5,2,-19,-11,-8,-1
1533260495858078,-7,-1,-6,-9,6,0,-4,-2
1533260495858078,0,3,-8,13,7,-2,-4,-6
1533260495873183,3,3,-6,-2,2,0,-2,-2
1533260495873183,-4,3,-7,-6,-5,-3,-1,-1
1533260495874135,-1,-11,8,-26,-6,0,-2,-5
1533260495874135,-2,1,-4,13,8,-2,2,2
1533260495897158,1,4,-4,23,-3,3,1,4
1533260495897158,-5,-2,-18,-6,2,5,-7,0
1533260495898152,-2,1,8,-1,-1,0,-12,0
1533260495898152,-2,-10,-5,-14,-6,0,-5,1
1533260495910175,-1,-7,3,0,-6,-2,8,-4
1533260495910175,-1,5,-1,-5,-4,-4,8,-3
1533260495926264,-2,10,-4,-3,-7,-6,6,-4
1533260495926264,-4,-8,1,-11,0,0,5,-2
1533260495933228,0,-8,0,4,1,3,4,-5
1533260495933228,2,-9,-7,-17,-10,5,7,-3
1533260495934233,-1,-7,6,19,5,2,4,0
1533260495934233,1,-16,-8,-3,0,-1,-2,0
1533260495964338,-5,-5,0,1,0,-7,-7,0
1533260495964338,-4,-5,76,-3,11,0,0,0
1533260495965299,-4,-8,20,-6,-11,-6,1,0
1533260495965299,-2,-8,-16,11,9,-1,-3,-2
1533260495970304,5,0,-45,2,-4,-5,-5,0
1533260495970304,-3,1,-57,21,22,5,-2,-4
1533260495978310,2,4,-23,-1,10,-1,-1,-3
1533260495978310,-4,4,-4,-6,3,-1,1,4
1533260495993315,-2,0,3,-19,-10,-5,-2,3
1533260495993315,-6,-2,-9,-22,-15,-5,-1,-2
1533260495994306,-2,-6,2,-3,1,-2,4,0
1533260495994306,-1,-7,0,3,-8,-3,2,-5
1533260496016337,-5,-18,11,-13,-2,-3,-4,-7
1533260496016337,0,-3,-3,-2,-9,-5,-4,6
1533260496017324,6,6,-9,17,-5,-1,1,2
1533260496017324,-3,11,5,12,-4,0,1,1
1533260496030346,-12,9,16,19,5,1,3,1
1533260496030346,-3,2,7,-6,-13,-2,-2,-9
1533260496038352,-1,-2,2,7,-5,-2,-9,-2
1533260496038352,-3,12,8,0,19,3,-2,2
1533260496053363,8,4,4,-13,-21,-9,-8,-3
1533260496053363,-1,-2,-12,8,-12,-3,-3,1
1533260496054364,1,-8,-9,-6,33,12,9,4
1533260496054364,8,-2,8,2,9,11,2,0
1533260496075424,4,6,0,-3,10,5,7,0
1533260496075424,-9,0,-5,-12,-8,-8,1,-3
1533260496083430,-11,-1,1,0,-22,-8,-8,-8
1533260496083430,-2,-1,-9,-3,-9,-7,-1,-2
1533260496090434,-5,-6,0,-9,-6,-4,0,0
1533260496090434,7,-5,1,0,-8,0,-1,-3
1533260496098431,0,-4,3,0,-4,-2,0,2
1533260496098431,-2,-2,4,-4,-8,-2,2,2
1533260496113451,-38,-1,7,8,-1,-3,0,0
1533260496113451,-14,0,-1,-14,2,-3,-3,1
1533260496114452,-12,-6,-9,17,10,-1,-3,-2
1533260496114452,7,16,-2,-17,-9,-1,-4,-7
1533260496136465,16,13,3,7,11,5,-2,-3
1533260496136465,7,-5,-8,-17,-16,-10,-4,0
1533260496136465,3,-12,-2,-17,-18,-2,-3,0
1533260496136465,3,-11,2,9,21,12,6,0
1533260496158483,13,-9,3,11,18,5,-2,0
1533260496158483,6,-5,-4,8,7,4,-6,-5
1533260496166483,4,-5,1,-4,-8,-6,-11,-10
1533260496166483,-10,-1,0,3,-30,-11,-6,-3
1533260496173494,2,1,-3,2,8,4,1,5
1533260496173494,4,2,-2,12,10,-1,0,9
1533260496174494,7,0,-1,-13,-26,-5,-3,2
1533260496174494,-2,-8,-1,-7,-21,-10,1,-3
1533260496195510,-5,-1,4,12,29,3,10,-5
1533260496195510,-3,-9,-1,9,19,7,3,-5
1533260496196495,-5,5,-1,5,17,6,4,4
1533260496196495,-3,-3,-7,-16,-8,-4,-5,1
1533260496219526,5,6,-10,-10,-29,-10,1,1
1533260496219526,6,7,-1,5,14,2,3,-2
1533260496219526,-1,6,-3,-3,5,5,9,-4
1533260496219526,3,9,0,-2,-7,-6,-4,-3
1533260496249624,1,-8,11,-6,-10,-8,-6,0
1533260496249624,0,-7,18,-3,1,-2,-2,-1
1533260496249624,-2,-2,14,-6,0,-2,-6,1
1533260496249624,-4,6,2,5,9,5,0,-3
1533260496255595,-1,30,5,-6,3,4,-1,-5
1533260496255595,3,47,6,-3,-4,3,-1,-2
1533260496256589,-1,40,6,-21,-11,7,3,0
1533260496256589,-10,25,0,35,11,1,-1,-1
1533260496286616,2,-44,2,4,-7,12,-6,-2
1533260496286616,-114,-30,-14,-17,-12,15,0,-2
1533260496287618,-18,-54,6,5,12,3,1,2
1533260496287618,-26,-7,24,-17,10,2,-1,3
1533260496293621,-14,113,4,-17,-5,4,1,5
1533260496293621,33,68,7,-8,-7,6,-1,2
1533260496294623,-3,8,-11,11,6,19,-5,-5
1533260496294623,10,-109,-11,-20,10,13,-7,-4
1533260496315668,48,-99,-17,-7,-61,29,-6,-6
1533260496315668,47,11,-10,28,-1,-29,7,-1
1533260496316670,105,33,-18,12,10,-42,6,5
1533260496316670,109,-79,-7,16,3,-33,12,0
1533260496339685,50,-119,9,2,30,-44,1,-4
1533260496339685,60,-128,-5,-1,20,10,4,-2
1533260496339685,33,-65,-2,4,-17,-9,-3,1
1533260496339685,10,52,-12,-5,83,-99,6,-2
1533260496353710,20,75,-7,-9,119,-89,8,0
1533260496353710,69,91,2,3,127,-114,2,-3
1533260496354710,72,82,-16,-7,101,6,-2,-1
1533260496354710,32,94,-17,-17,-30,119,-15,-5
1533260496369751,3,79,13,-4,-15,20,-2,-4
1533260496369751,-49,61,8,6,-81,10,0,-3
1533260496375801,-128,42,8,2,-51,-118,2,-2
1533260496375801,-90,50,-19,-11,-10,-24,-1,4
1533260496392783,-90,38,-34,16,19,-111,-1,2
1533260496392783,-49,28,-28,-2,-13,-6,-7,-1
1533260496393780,-49,26,7,-11,-39,9,-4,-3
1533260496393780,-46,127,-1,-7,-74,68,-17,-4
1533260496405788,11,127,28,-2,-23,107,-13,-5
1533260496405788,12,54,-11,15,32,62,11,8
1533260496412834,-30,87,4,9,-4,86,3,-6
1533260496412834,-10,57,7,-16,-5,98,6,-4
1533260496427810,21,39,-17,-25,-31,127,1,-4
1533260496427810,62,25,-13,-20,-101,123,-13,-3
1533260496443820,99,45,17,-14,-74,107,1,3
1533260496443820,92,99,11,43,55,73,14,7
1533260496450809,73,81,12,15,0,69,6,6
1533260496450809,24,23,38,24,2,80,-9,-7
1533260496451809,-16,-24,-19,-52,112,39,-13,-15
1533260496451809,-12,-80,-14,-56,-128,-67,-19,-5
1533260496464819,-33,-59,-17,20,29,-70,-22,4
1533260496464819,-16,-16,11,89,115,-12,32,7
1533260496472824,-3,1,11,72,-104,21,50,7
1533260496472824,-6,-36,10,14,-35,-48,18,0
1533260496487835,-36,-49,-22,-65,-63,13,-7,-8
1533260496487835,-22,-73,-28,-79,43,3,-47,-14
1533260496495842,-15,-110,-34,-63,-74,-31,-43,-10
1533260496495842,-11,-49,-6,-8,69,-61,-7,5
1533260496510852,-10,-43,14,81,8,-70,3,12
1533260496510852,-33,9,-3,-31,-50,-8,0,0
1533260496526934,-31,20,0,-19,60,-29,-22,-6
1533260496526934,-21,-14,5,37,22,-2,6,3
1533260496527931,-10,-8,21,-7,-64,-5,4,2
1533260496527931,-3,43,14,57,106,-48,2,3
1533260496532898,-51,19,-14,2,-94,-17,-6,-1
1533260496532898,-12,-14,-6,-15,17,-3,-1,-5
1533260496547924,-13,-15,-11,-10,102,-12,1,-6
1533260496547924,-8,-113,-28,-80,-128,-40,-2,-5
1533260496563969,2,-40,10,-43,-95,-54,-3,2
1533260496563969,-8,-77,15,61,75,-12,10,3
1533260496570941,-3,-104,-12,10,3,-32,11,-3
1533260496570941,-9,-36,1,-23,-14,-82,2,6
1533260496571942,-20,-52,-28,15,127,47,-35,-16
1533260496571942,15,12,-14,-96,-128,18,-21,-7
1533260496610957,-35,-11,19,34,49,-49,22,4
1533260496610957,22,64,-24,99,77,-45,34,29
1533260496611974,17,14,-99,-3,89,-37,0,6
1533260496611974,-79,-41,-118,-74,-61,28,-24,-30
1533260496615959,0,-25,-83,46,-89,-60,7,0
1533260496615959,17,22,44,51,64,-128,12,7
1533260496616960,40,26,91,67,110,-128,29,19
1533260496616960,26,3,42,-7,106,84,-27,3
1533260496623963,-22,-18,24,-121,-76,-104,-50,-24
1533260496623963,-41,0,-5,-43,-128,7,-23,-16
1533260496629971,-5,29,66,-3,26,5,-1,-3
1533260496629971,-4,60,109,26,-47,5,10,10
1533260496645077,-19,62,86,-15,-59,127,2,7
1533260496645077,2,-9,38,4,15,127,-6,-4
1533260496653048,22,-10,57,41,-41,97,31,13
1533260496653048,21,-18,47,70,83,31,37,19
1533260496662116,17,-17,12,-14,59,127,2,2
1533260496662116,-13,23,-8,-65,-17,127,-26,-16
1533260496684112,0,-15,-19,-49,-100,127,-20,-15
1533260496684112,8,10,6,14,-28,97,3,6
1533260496686098,7,-7,6,1,15,59,5,-1
1533260496686098,-1,-30,-11,-44,-30,44,-4,-8
1533260496690117,7,26,-6,13,-15,-8,9,5
1533260496690117,30,73,-17,19,25,-61,4,-12
1533260496705204,3,-2,-18,-13,20,26,-7,-8
1533260496705204,15,15,-8,-3,-16,34,4,6
1533260496713209,-21,-79,-20,21,-1,18,7,-1
1533260496713209,12,-96,-49,-17,-4,3,-18,-10
1533260496722215,-10,-9,-13,2,-20,15,5,2
1533260496722215,-18,31,-7,12,19,-15,8,-5
1533260496735233,-6,33,-24,-2,11,-20,3,-4
1533260496735233,12,-100,-16,-8,-9,-74,-6,2
1533260496744276,-11,-106,1,16,3,-37,2,6
1533260496744276,-8,-60,7,3,17,-45,7,-1
1533260496750341,-9,-37,-8,-11,-4,-82,-5,-4
1533260496750341,-29,29,9,-1,-20,-52,-5,-8
1533260496765342,17,127,6,14,0,-18,-3,34
1533260496765342,-32,-106,-15,-8,3,-2,-9,-24
1533260496773384,-18,-72,-20,-3,-14,12,-5,22
1533260496773384,44,4,4,12,2,4,3,-30
1533260496781482,33,-62,-38,0,9,-8,0,8
1533260496781482,-16,-26,-24,-5,2,-3,4,24
1533260496804494,-24,3,-1,-1,-3,5,-3,-10
1533260496804494,-63,51,106,6,11,-7,17,13
1533260496805491,-20,-37,46,5,6,-11,-3,-18
1533260496805491,0,109,34,-6,-9,-19,-5,0
1533260496810497,29,22,5,2,-3,-9,-2,-12
1533260496810497,-21,113,-40,0,0,-38,-1,13
1533260496825508,-26,127,-50,0,-10,-20,3,-16
1533260496825508,13,127,-61,3,1,-21,2,-1
1533260496841521,68,127,-51,0,2,-8,0,3
1533260496841521,59,127,-82,-8,-5,-10,-5,-9
1533260496843521,-67,127,-40,3,1,-6,2,0
1533260496843521,17,57,-31,2,5,-7,1,-2
1533260496855525,3,4,16,1,4,2,-3,-6
1533260496855525,18,-120,12,-28,-25,-15,-5,7
1533260496864539,50,-98,14,53,41,6,1,-8
1533260496864539,26,-96,-1,-16,2,7,4,-1
1533260496878547,11,-15,-9,-6,-3,11,3,-1
1533260496878547,5,-59,-18,5,2,5,-4,5
1533260496885551,20,-108,-11,-34,-12,-3,-1,-3
1533260496885551,44,-128,8,10,0,-24,-7,-6
1533260496892556,31,-111,1,-8,0,-15,-1,-2
1533260496892556,-30,-8,33,17,23,14,19,7
1533260496907567,3,-115,25,-9,-6,-9,-5,-3
1533260496907567,-16,-106,38,0,0,-4,-5,-1
1533260496915572,-28,67,25,-15,-11,-11,-6,-2
1533260496915572,-38,77,0,-4,-5,-8,-9,-3
1533260496924580,-15,127,17,-3,3,-1,0,-4
1533260496924580,-18,45,21,5,4,6,5,-1
1533260496930583,-21,-13,10,4,2,7,2,-1
1533260496930583,-6,-66,-1,3,0,-5,-2,-5
1533260496945675,8,-34,5,0,-1,-3,0,-2
1533260496945675,-20,-49,-5,-4,-9,-6,-5,-1
1533260496960650,-18,-99,-4,3,1,1,-1,2
1533260496960650,-10,92,-15,0,4,-2,-2,5
1533260496967704,1,-123,-12,-12,-2,-5,-2,-2
1533260496967704,-6,-36,-4,-3,-2,3,0,-2
1533260496975743,-8,-80,-8,0,2,-2,-2,-3
1533260496975743,3,-128,-4,1,4,-2,1,3
1533260496992704,17,-30,-10,-5,-4,-1,0,-3
1533260496992704,4,-37,3,-4,-3,0,1,-3
1533260496993720,-6,-126,-3,4,-1,-6,-8,-3
1533260496993720,12,-112,2,-2,-4,1,-1,5
1533260497005810,8,-57,-3,-6,-12,2,2,0
1533260497005810,10,55,4,9,8,5,4,-1
1533260497012812,-4,69,-1,4,-3,1,3,-2
1533260497012812,2,98,-9,6,5,-2,-3,-1
1533260497037779,2,97,5,0,0,2,1,3
1533260497037779,-6,-9,7,-4,-4,0,-4,3
1533260497038787,-12,36,2,-2,0,7,-3,3
1533260497038787,-8,-23,1,-3,-3,1,0,-4
1533260497044816,7,-36,-1,0,-3,-3,0,-2
1533260497044816,7,-68,-7,-25,-10,-5,-2,-1
1533260497050787,-3,-4,1,35,24,6,1,2
1533260497050787,8,-68,-6,-2,-3,-2,-2,1
1533260497081867,8,1,0,1,-1,0,-4,-2
1533260497081867,10,31,5,-15,-16,0,0,-5
1533260497082879,10,52,2,-2,2,-4,0,-2
1533260497082879,12,47,-9,5,-5,-3,-1,-2
1533260497087882,7,53,-16,2,1,-6,-3,0
1533260497087882,-9,75,5,-9,-11,-14,-6,-2
1533260497094886,-4,52,3,-16,-11,0,-4,-6
1533260497094886,-5,46,-1,13,20,5,-1,-2
1533260497103893,-4,113,0,0,3,4,-1,-1
1533260497103893,-2,28,-25,0,0,2,0,1
1533260497109916,-8,4,12,-19,-14,-11,3,-3
1533260497109916,0,-28,0,4,-5,-5,-2,-3
1533260497133932,-4,-27,2,-5,0,-2,-2,1
1533260497133932,2,-3,2,5,11,-3,-2,1
1533260497133932,-1,3,-6,-7,-3,0,0,-1
1533260497133932,-1,-28,1,-22,-7,-3,-1,1
1533260497147961,-4,-35,0,15,-9,1,0,3
1533260497147961,-3,-7,2,13,8,6,-1,4
1533260497164004,5,-19,-7,-1,9,6,-1,0
1533260497164004,2,-3,-4,-26,-42,-25,-13,-7
1533260497165957,-10,6,-5,4,-29,-7,-12,-11
1533260497165957,15,23,11,18,55,38,22,9
1533260497178978,12,22,22,16,28,13,11,6
1533260497178978,32,17,-6,5,12,5,2,0
1533260497192989,21,-8,-4,-15,-19,-15,-4,-5
1533260497192989,2,-5,-9,-7,-26,-14,-10,-7
1533260497193994,4,-8,-6,-8,-2,5,-2,-3
1533260497193994,-17,-11,5,-4,2,5,-1,2
1533260497207999,-19,-45,-8,-6,5,23,-1,2
1533260497207999,-11,-26,-16,2,-3,35,-5,-3
1533260497215004,-23,-5,-9,-8,-5,59,-1,2
1533260497215004,-17,-9,-7,-1,-3,52,-3,-2
1533260497224046,-1,38,-5,2,9,63,1,2
1533260497224046,-1,32,1,3,1,1,-3,-4
1533260497238144,4,21,0,-3,-12,2,-3,-1
1533260497238144,-8,10,-7,1,1,10,1,-5
1533260497245149,-3,13,1,1,7,-5,1,-1
1533260497245149,-6,16,1,7,-4,-5,4,3
1533260497253119,-6,18,-7,-2,-9,-32,-4,1
1533260497253119,-4,0,9,10,10,-25,1,1
1533260497268129,-9,-8,11,-2,12,-27,-3,1
1533260497268129,-4,-9,20,-15,-32,-16,-10,-8
1533260497275134,7,28,17,10,4,4,5,-2
1533260497275134,13,20,-8,-13,29,5,9,3
1533260497284125,7,4,9,-1,2,-8,3,-4
1533260497284125,-2,-5,-12,-1,-7,-38,-6,-2
1533260497298195,-10,-12,-7,-11,-13,-46,-7,-4
1533260497298195,-1,5,-17,6,-6,-35,-7,-1
1533260497313238,5,-21,-31,3,26,-13,6,-4
1533260497313238,-6,-19,-39,3,-10,-22,-1,0
1533260497314189,4,-20,-34,3,-4,-18,4,1
1533260497314189,0,-1,11,6,7,-12,1,1
1533260497328326,4,3,11,-3,-5,-27,2,7
1533260497328326,3,5,26,-3,0,-32,-3,-1
1533260497335380,-1,-5,14,-5,-10,-9,-4,-1
1533260497335380,-6,-47,-15,-9,-38,-11,-7,-4
1533260497360348,2,6,-10,6,-1,-2,-4,-1
1533260497360348,4,11,-1,18,29,-10,8,4
1533260497361349,-8,20,3,-1,9,-25,0,0
1533260497361349,-7,8,11,-8,-6,3,-3,-8
1533260497365366,-8,19,8,-2,-19,15,-4,-7
1533260497365366,-5,28,9,-16,0,41,-11,-6
1533260497372371,1,0,35,13,15,22,-5,1
1533260497372371,5,10,25,11,-1,13,4,4
1533260497396421,1,-14,8,-10,4,13,0,1
1533260497396421,-2,-6,9,-12,-33,9,0,-5
1533260497397374,0,-12,-17,-21,-14,-6,-3,-1
1533260497397374,-1,-8,-15,-12,-23,-12,3,-2
1533260497404381,1,-7,-13,2,4,-5,-4,1
1533260497404381,-4,-14,-4,11,59,22,4,-1
1533260497418487,0,-7,-6,-26,-61,6,1,-1
1533260497418487,-2,15,3,33,16,10,5,-1
1533260497425491,13,17,10,49,88,-1,21,9
1533260497425491,-1,-6,-6,-1,-15,-2,0,-3
1533260497432460,-9,-53,-13,-4,-45,-2,-7,-7
1533260497432460,-7,-12,-4,-20,32,-23,-8,-1
1533260497447465,-5,-11,-2,-19,-70,-16,-9,0
1533260497447465,-3,-9,-8,-9,15,-21,-10,1
1533260497455477,3,24,1,-26,-36,10,-11,-4
1533260497455477,1,13,-7,13,-23,29,-10,-3
1533260497471530,5,4,-23,34,92,5,5,-1
1533260497471530,3,7,-3,-9,-34,-77,4,1
1533260497478618,-2,5,7,9,64,-39,-5,1
1533260497478618,2,-1,-39,-4,-53,-58,5,-2
1533260497485623,1,8,-10,-1,7,-111,-1,2
1533260497485623,5,0,2,12,-5,-103,1,-2
1533260497492591,2,2,9,7,16,-22,2,-1
1533260497492591,-4,-2,30,0,25,65,-6,1
1533260497516608,-7,-5,22,-37,-46,107,-9,-5
1533260497516608,-5,2,4,6,-16,119,-3,1
1533260497517601,0,6,1,5,14,72,1,1
1533260497517601,-2,6,14,6,9,54,5,-2
1533260497524613,-6,-6,13,-18,-34,41,-1,-3
1533260497524613,5,-14,28,3,10,40,-1,-1
1533260497538702,10,2,6,12,0,14,-2,1
1533260497538702,4,4,2,-13,4,-20,-2,4
1533260497553677,3,0,-20,-3,-10,-23,0,-3
1533260497553677,-2,-5,-13,0,9,4,0,2
1533260497554678,1,-3,-13,4,8,-3,4,-1
1533260497554678,2,-2,7,3,11,-11,0,-1
1533260497567734,-1,-6,20,-13,-13,-5,-4,0
1533260497567734,-6,-3,6,-19,-12,12,-2,0
1533260497575783,-4,-6,-3,23,6,-3,7,1
1533260497575783,-14,-13,-4,-7,22,-7,2,0
1533260497590842,3,-3,2,16,17,9,3,1
1533260497590842,6,-6,-25,2,-10,-1,-4,-4
1533260497598922,8,4,-22,-19,-7,-12,-3,-3
1533260497598922,1,5,-12,-6,-12,-9,-4,-5
1533260497613894,-10,-57,-8,14,8,-3,-4,-10
1533260497613894,5,75,13,1,3,6,5,4
1533260497613894,-6,-71,1,0,10,-8,-1,1
1533260497613894,-2,-4,3,-9,-9,-10,-1,2
1533260497629893,-2,-15,-1,-8,-15,-11,-1,-1
1533260497629893,3,-31,-12,3,6,-3,-7,-8
1533260497634947,-3,-97,1,-1,-1,0,-5,-3
1533260497634947,-8,50,6,2,-1,-4,2,6
1533260497649928,2,53,2,-12,-10,-6,-1,1
1533260497649928,-5,-13,-4,5,7,1,-2,1
1533260497658936,-3,25,-5,2,3,-1,1,0
1533260497658936,-4,-47,-6,-2,-6,-10,-2,-2
1533260497673965,6,2,0,-3,1,7,-1,3
1533260497673965,0,-14,1,-2,1,7,1,1
1533260497673965,1,-37,-4,0,1,2,1,-4
1533260497673965,6,-47,5,0,0,-3,-2,-3
1533260497687983,17,88,7,-5,-7,-5,2,2
1533260497687983,-22,-24,-1,-4,3,7,4,-2
1533260497694989,4,38,5,7,-2,1,2,5
1533260497694989,7,49,-15,-19,-2,-5,-3,-1
1533260497721072,-15,-35,1,-3,-6,-8,-1,-2
1533260497721072,3,-31,4,-3,-3,-5,-1,-3
1533260497721072,7,77,8,1,-1,-91,1,4
1533260497721072,8,-5,5,11,-5,-35,-3,-2
1533260497733057,7,-15,0,-19,-7,-7,-5,-2
1533260497733057,6,61,4,13,5,16,-2,-1
1533260497734047,-3,4,11,-12,-1,42,1,-3
1533260497734047,22,37,7,-2,1,21,0,-1
1533260497749062,10,-33,2,5,-2,10,-6,0
1533260497749062,17,-30,10,-6,-6,13,0,2
1533260497755078,13,55,10,13,2,19,0,0
1533260497755078,9,54,-1,-15,3,5,2,2
1533260497770167,15,127,-3,1,-1,9,1,2
1533260497770167,17,127,-4,-7,-6,-7,0,1
1533260497778253,6,127,-2,-9,-10,0,0,-2
1533260497778253,-20,102,-4,20,12,0,0,-2
1533260497793265,-23,-43,-15,-4,-2,-20,-3,-1
1533260497793265,-6,-101,-12,6,-2,-21,-1,5
1533260497794237,-10,-128,-18,-2,9,-3,3,-1
1533260497794237,-5,-66,0,2,-1,4,1,-1
1533260497808339,-14,30,4,-1,0,7,4,4
1533260497808339,-9,-92,1,5,4,3,0,-2
1533260497815363,2,-35,-8,-4,-3,12,3,-1
1533260497815363,4,-128,-10,-3,-4,1,2,-5
1533260497831429,-3,-118,-27,4,-8,-6,0,-7
1533260497831429,-8,-105,-13,-5,-1,-2,-1,0
1533260497838428,-9,-112,-18,2,9,7,-4,0
1533260497838428,0,-57,-12,-20,0,0,-3,-3
1533260497853439,0,-51,-4,15,-4,-3,-1,-5
1533260497853439,-3,-32,-10,-1,8,3,-4,-2
1533260497854441,-3,-13,-12,-8,-4,1,-6,-2
1533260497854441,-10,10,-12,13,-1,1,-1,-1
1533260497867448,-6,-15,-8,-15,-1,5,0,0
1533260497867448,-19,16,-8,-14,-6,1,0,-5
1533260497875455,-15,26,-3,15,3,1,-4,0
1533260497875455,-11,28,-3,3,7,1,-5,-1
1533260497890459,-4,-13,-4,-4,2,1,-2,-4
1533260497890459,-3,41,0,0,-3,-5,0,-3
1533260497898466,-11,23,-1,-13,-2,-1,0,-2
1533260497898466,-9,-116,6,0,-5,-1,-1,-1
1533260497913517,-4,30,3,2,-1,-7,-2,2
1533260497913517,0,-53,5,-18,-4,-5,-1,2
1533260497914497,4,-2,4,20,3,-2,-1,-1
1533260497914497,6,29,-1,0,-2,0,2,-2
1533260497929499,4,34,3,-9,-1,-3,-1,-2
1533260497929499,0,-13,2,-7,-16,-5,-4,-2
1533260497943537,1,-2,4,-1,13,2,-1,2
1533260497943537,5,-128,3,13,6,0,0,2
1533260497950541,2,-128,-3,0,-6,-1,1,0
1533260497950541,-1,-59,-4,6,2,0,2,-3
1533260497958550,-2,-111,-5,-8,-6,-2,1,-3
1533260497958550,-1,32,-6,3,-1,-2,-1,0
1533260497973525,-3,96,0,-4,8,1,-2,-1
1533260497973525,3,107,-8,-2,-4,-2,-1,-2
1533260497974525,4,-55,-3,-4,-4,0,-1,0
1533260497974525,-1,15,2,-21,-19,-6,0,-3
1533260497989580,-4,12,2,16,3,-3,-2,-3
1533260497989580,2,-20,10,28,10,2,0,0
1533260497995584,-9,-51,-5,-2,-15,-5,-4,-1
1533260497995584,-2,-8,2,-16,-8,-4,-5,1
1533260498010596,7,21,6,0,-1,1,-2,1
1533260498010596,6,61,6,-2,-3,-1,-3,-1
1533260498018601,4,109,9,-3,4,3,2,-2
1533260498018601,2,68,4,8,2,-2,3,0
1533260498033612,1,51,-5,-8,-8,-9,-4,-3
1533260498033612,-1,70,-3,3,2,-5,2,1
1533260498034612,-2,67,-6,-3,-5,-3,-1,-5
1533260498034612,-4,82,12,-5,0,-1,0,-3
1533260498049609,-1,-3,-6,2,4,1,2,-1
1533260498049609,-3,15,0,-20,-7,-5,-2,1
1533260498071674,3,48,-7,12,11,-2,-2,1
1533260498071674,6,25,-7,6,5,2,0,1
1533260498073657,-3,2,-4,-2,1,0,-1,2
1533260498073657,0,6,-4,-28,-16,-4,-1,2
1533260498078726,-1,59,-4,18,-18,-20,-7,-1
1533260498078726,2,14,-10,-15,15,20,0,-3
1533260498092701,8,-19,5,19,35,16,5,4
1533260498092701,-6,0,-4,0,5,-1,0,1
1533260498100707,3,5,11,-19,-23,-8,-4,0
1533260498100707,-8,-14,-7,-5,-15,-14,-8,-4
1533260498131728,0,-11,4,1,4,0,3,0
1533260498131728,0,-6,2,9,19,10,4,-5
1533260498133725,-3,6,11,2,1,2,1,0
1533260498133725,-4,-17,-8,-1,-16,-7,-7,0
1533260498146821,-3,-15,-5,-10,-19,-5,0,0
1533260498146821,2,-13,-6,-2,-3,-3,-1,-1
1533260498147776,4,-2,-4,-15,-2,4,0,-1
1533260498147776,5,13,3,-9,2,3,2,-2
1533260498152790,-2,-6,-1,-7,-8,-3,-4,-3
1533260498152790,1,-1,2,9,-7,-4,-1,-2
1533260498168802,2,-8,1,1,3,4,3,0
1533260498168802,0,0,5,-6,-1,-2,2,3
1533260498175865,3,-2,7,17,-7,-4,-4,-2
1533260498175865,-1,-8,-11,11,-2,-12,-5,-5
1533260498176866,-2,8,7,-4,11,5,2,-1
1533260498176866,5,11,6,24,12,11,7,4
1533260498189870,-2,0,8,-11,-1,5,0,-1
1533260498189870,-3,-4,-33,-5,-3,5,-2,0
1533260498198923,-2,-17,4,5,-3,1,-3,-2
1533260498198923,-3,-10,4,-7,-5,-6,-2,1
1533260498212929,0,-13,3,-4,-14,-4,-3,-2
1533260498212929,2,3,3,4,2,0,-5,-1
1533260498228938,-1,0,-8,-3,7,0,1,1
1533260498228938,0,-2,2,4,0,2,2,0
1533260498236981,-3,-3,-12,-6,-4,-4,-3,-1
1533260498236981,2,-6,7,0,1,-2,-1,0
1533260498236981,-3,-5,-4,-11,-6,-6,-4,-2
1533260498236981,-1,-5,1,3,-3,0,-2,-5
1533260498267005,-3,-12,-3,-12,1,3,-2,-7
1533260498267005,0,-4,14,-5,-14,7,-4,1
1533260498267967,3,0,4,14,17,20,6,-2
1533260498267967,0,-11,-3,7,8,2,1,10
1533260498272974,-5,-11,-4,5,1,-6,0,0
1533260498272974,-5,-2,1,-12,-8,-6,-2,-5
1533260498280961,-1,11,-8,-4,-4,3,-1,-6
1533260498280961,0,23,-5,9,-1,-3,-3,-4
1533260498295989,2,15,-1,-10,1,5,0,-4
1533260498295989,-2,7,8,-20,-11,2,-4,-2
1533260498303993,2,-5,-11,12,-10,-5,-3,4
1533260498303993,-4,-16,3,-16,-9,-4,-5,-1
1533260498309997,4,-3,5,7,8,5,-1,3
1533260498309997,4,-3,0,10,25,9,7,2
1533260498318990,3,-6,-3,-23,6,-12,-5,-4
1533260498318990,-3,-12,-7,6,-16,-4,-3,-4
1533260498333013,2,-3,3,-2,-4,-1,2,5
1533260498333013,1,-2,2,-10,-9,-17,-3,1
1533260498341019,-4,2,3,0,0,-6,0,-1
1533260498341019,-3,0,-1,12,9,-8,-2,-4
1533260498356065,-8,-4,-7,-4,-1,-12,-5,-3
1533260498356065,-3,-2,-4,8,0,8,1,0
1533260498364023,-2,3,-3,4,-8,-2,-2,0
1533260498364023,2,3,-3,-11,-5,-4,-2,-1
1533260498370075,3,-4,1,-12,-18,-11,-2,-4
1533260498370075,0,2,3,2,8,-9,-2,-2
1533260498393056,-3,0,-7,-6,-3,-9,-1,1
1533260498393056,-3,2,-1,4,2,-7,0,-2
1533260498403108,-3,-3,-5,-3,-9,-4,-6,0
1533260498403108,2,-6,-6,2,-11,2,2,-1
1533260498404103,4,-2,4,12,8,2,7,5
1533260498404103,5,1,4,-6,27,-3,5,-2
1533260498424199,2,-4,-18,-25,-23,-11,-4,-3
1533260498424199,-10,-5,3,33,13,7,-3,-5
1533260498425158,5,2,-1,1,-15,7,4,2
1533260498425158,3,1,-3,11,6,6,1,-1
1533260498430170,8,3,5,0,12,8,-3,1
1533260498430170,-1,-6,-2,-26,-9,5,-1,-2
1533260498438254,0,-2,2,-7,-14,-5,-3,-3
1533260498438254,-6,-9,-6,-6,-16,-11,-7,-3
1533260498453228,-5,2,-1,0,-6,-3,4,-2
1533260498453228,-1,3,-1,-1,7,-5,-3,0
1533260498461313,2,1,11,2,1,0,2,1
1533260498461313,1,1,5,8,41,29,5,2
1533260498499303,0,-8,6,13,-37,-18,1,2
1533260498499303,-5,-11,1,-14,-35,-20,-8,0
1533260498515317,-6,-15,-9,-22,-10,-10,-12,-3
1533260498515317,-1,2,2,16,11,3,3,-2
1533260498515317,1,14,3,12,46,32,11,3
1533260498515317,-1,9,0,47,39,10,1,1
1533260498516310,-8,2,-9,-27,-33,-17,-10,-8
1533260498516310,-2,2,-7,-9,-29,-6,-5,-1
1533260498517302,-2,4,-2,-10,29,-6,0,1
1533260498517302,9,1,-5,-11,-10,-6,1,-1
1533260498521319,-3,-2,-5,6,6,-4,-9,-2
1533260498521319,4,-6,-7,-48,-35,-5,-3,-1
1533260498544335,5,-1,6,36,12,5,11,1
1533260498544335,-1,-6,0,-20,-19,-18,-10,-3
1533260498545322,-1,1,12,7,7,22,11,3
1533260498545322,-3,0,4,33,39,10,8,7
1533260498550339,-9,-7,-7,-29,-43,-29,-19,-5
1533260498550339,-1,-2,-13,4,-28,5,6,-4
1533260498558380,8,-2,-7,3,67,20,11,5
1533260498558380,3,-9,-1,-15,-23,-9,-5,-3
1533260498573356,2,-9,6,0,1,4,-5,-1
1533260498573356,0,-3,7,-7,-14,-8,-6,-2
1533260498581397,2,-5,-3,-6,-23,-8,-6,-3
1533260498581397,0,-3,1,4,15,6,-1,-3
1533260498596372,2,-5,1,-11,-21,-9,-4,-6
1533260498596372,-5,-5,1,4,29,13,6,-2
1533260498596372,-5,-4,5,18,15,14,6,4
1533260498596372,-4,0,3,15,-10,-13,-4,2
1533260498610384,-11,-7,-5,-29,-17,0,-7,-3
1533260498610384,-2,4,5,-9,-21,-8,1,-2
1533260498618387,1,-16,2,1,32,6,7,2
1533260498618387,3,2,4,12,-4,-2,0,1
1533260498632392,-3,23,-1,-11,-2,3,-1,-2
1533260498632392,7,24,6,11,29,19,7,2
1533260498641448,-6,19,5,-11,-28,-22,-11,-4
1533260498641448,-5,1,2,-13,-21,-22,-8,-3
1533260498664420,-1,17,-1,11,6,-10,-3,0
1533260498664420,-1,50,-1,-1,16,-7,1,3
1533260498665422,2,113,-10,-3,-9,-6,-4,-3
1533260498665422,-2,123,-9,-6,-3,6,0,-4
1533260498670425,13,127,3,17,14,11,5,4
1533260498670425,-2,-21,6,-3,-4,2,-2,-1
1533260498678430,6,76,12,3,-2,6,-2,0
1533260498678430,1,-64,4,-5,-1,3,0,1
1533260498692476,0,-53,0,-19,-10,-1,0,-1
1533260498692476,0,-47,-1,21,21,3,-3,1
1533260498701487,10,-128,-8,2,-4,-3,0,-1
1533260498701487,-9,-119,2,-1,-4,1,2,5
1533260498716463,-8,-124,3,11,6,2,1,-3
1533260498716463,-7,-118,-3,-27,-10,0,2,-2
1533260498716463,-4,-128,3,8,-5,-8,-1,-2
1533260498716463,0,-84,3,-12,-10,-7,-1,-4
1533260498730453,-3,30,5,14,7,3,3,-2
1533260498730453,1,-63,6,-22,-16,-5,-1,-1
1533260498754484,-5,-83,2,21,9,-1,-5,-4
1533260498754484,-8,-13,3,7,-2,-3,-4,-5
1533260498755492,-1,-21,13,-23,-10,5,4,1
1533260498755492,5,106,-5,19,12,0,0,2
1533260498761512,-2,127,13,-7,-7,-3,-2,-1
1533260498761512,1,25,16,-2,0,-3,-2,-3
1533260498775572,-2,-115,-18,3,-3,-4,-1,0
1533260498775572,-1,107,-47,-1,-5,-1,-1,-2
1533260498801537,-5,56,-48,-9,-11,-3,-2,-1
1533260498801537,1,16,-69,3,3,3,-1,1
1533260498802547,-1,-16,-52,-11,-1,-1,2,-2
1533260498802547,0,-22,-45,16,-6,3,-1,-1
1533260498805541,-5,-17,-26,0,35,2,5,-3
1533260498805541,1,11,15,-17,2,-5,-1,-3
1533260498821613,-4,37,36,6,-2,1,-3,1
1533260498821613,-3,-5,26,-9,-12,-4,-3,-2
1533260498823614,-4,-5,26,0,-7,1,-3,-3
1533260498823614,3,20,13,-10,-1,1,-2,-2
1533260498835624,-4,10,3,4,21,1,-5,-2
1533260498835624,0,-6,18,4,1,0,-3,-4
1533260498844629,-2,-24,-6,-13,-6,-1,0,-3
1533260498844629,-7,7,-16,-8,-11,1,0,0
1533260498850688,-1,-78,-23,-4,-14,-3,-4,-1
1533260498850688,-3,-30,-9,18,-1,-3,-7,1
1533260498859707,-2,-112,-11,-6,-26,3,-4,1
1533260498859707,3,-58,-15,2,-14,-2,-2,3
1533260498872678,-10,8,-20,-1,-7,-3,-3,-1
1533260498872678,-2,-75,-1,-12,7,1,-1,-2
1533260498881670,-3,-76,0,-7,6,-3,-1,-5
1533260498881670,-6,-53,3,6,6,0,-4,-3
1533260498895777,-2,104,5,-1,13,-3,-4,-4
1533260498895777,2,57,2,-15,-1,-6,-1,-2
1533260498904806,-1,127,12,3,-1,-3,-2,-1
1533260498904806,0,127,10,-7,-9,-3,0,-1
1533260498910804,3,71,7,-26,12,3,1,0
1533260498910804,-2,21,4,34,4,1,-1,0
1533260498918810,-4,24,3,8,15,-4,-2,-1
1533260498918810,2,72,5,5,11,-1,-1,0
1533260498941868,3,-63,2,-15,-17,-9,-4,-1
1533260498941868,-3,-77,5,-18,-21,-10,-6,-5
1533260498943833,1,29,7,4,8,17,5,2
1533260498943833,-2,68,8,12,17,6,6,-1
1533260498955891,7,127,6,26,20,16,6,1
1533260498955891,-4,90,8,-23,4,-2,-2,-2
1533260498963882,-7,-44,-6,-7,-37,-24,-10,-3
1533260498963882,-5,-51,7,-6,-9,-10,-5,-2
1533260498978939,4,-120,26,21,13,-2,6,4
1533260498978939,4,-124,7,-2,14,4,5,6
1533260498980889,2,5,-4,-2,-2,-5,1,3
1533260498980889,-1,-81,-12,-4,-14,-9,-4,-4
1533260498993030,-4,-121,-14,-7,-38,-24,-9,-6
1533260498993030,2,-103,-3,0,-1,11,5,1
1533260499002044,2,-128,-8,8,20,5,1,-1
1533260499002044,2,-39,-11,-1,0,-4,0,0
1533260499015092,-4,51,-14,3,-6,-11,-5,0
1533260499015092,0,88,-3,-6,-24,-16,-6,-3
1533260499024131,5,101,5,-2,12,1,4,3
1533260499024131,8,-50,-1,2,13,11,1,0
1533260499030179,3,-66,1,2,2,0,-2,0
1533260499030179,-3,18,2,-3,3,1,-4,-2
1533260499039183,-4,-7,3,-7,-12,-2,-1,-2
1533260499039183,-2,31,4,-3,-4,-3,0,-1
1533260499068205,-7,23,5,3,5,9,3,-3
1533260499068205,-2,23,4,-5,1,2,0,-4
1533260499077220,-1,-15,3,-2,0,4,-1,-1
1533260499077220,-3,18,-1,-4,0,5,-2,-2
1533260499084227,-2,-7,-5,1,-7,5,-3,-1
1533260499084227,-5,-6,-8,1,3,2,1,-2
1533260499086229,3,-22,-2,-3,-4,4,0,-1
1533260499086229,-3,-24,-3,-3,-4,1,-2,1
1533260499099240,-1,-15,-10,-1,-2,3,-1,1
1533260499099240,-4,6,-7,0,0,-3,-1,2
1533260499101237,-8,-3,4,-33,-17,-19,-19,-8
1533260499101237,-10,16,11,-6,-55,-10,-8,-7
1533260499113236,8,41,4,50,75,32,22,10
1533260499113236,7,43,4,5,26,4,5,6
1533260499121302,-7,13,-12,8,0,3,-1,-4
1533260499121302,-4,-20,-10,-22,-6,-10,-6,-3
1533260499135309,-3,-9,3,-22,-36,-12,-10,-9
1533260499135309,3,-28,-4,1,-6,-1,2,0
1533260499144321,0,-37,0,-2,-2,-3,3,3
1533260499144321,4,-14,-5,4,7,2,1,-2
1533260499159361,-2,-10,-7,0,-11,-2,-5,-2
1533260499159361,0,-10,0,-3,3,-1,-2,-2
1533260499161324,5,5,2,-2,-12,-7,-2,-1
1533260499161324,0,9,-1,6,11,0,1,2
1533260499172335,-1,27,-2,-2,2,-5,-1,1
1533260499172335,0,7,1,-10,-7,-6,-2,-2
1533260499181342,-1,9,-2,0,-4,-4,-2,0
1533260499181342,2,9,-10,7,12,1,4,1
1533260499195350,4,18,13,-4,-2,-3,-1,-2
1533260499195350,-1,14,31,9,-3,6,2,1
1533260499204353,-2,-5,7,-2,-2,6,2,-2
1533260499204353,-2,4,1,11,12,3,0,-1
1533260499219435,-5,1,-6,-13,-15,-4,-4,-5
1533260499219435,-1,8,7,8,-4,0,-1,-1
1533260499220400,-2,4,2,10,12,5,1,-2
1533260499220400,-3,-6,10,-2,0,0,-2,0
1533260499232408,-4,-13,11,1,-3,0,-2,-3
1533260499232408,1,-7,-4,-7,0,1,-3,-1
1533260499241414,-8,-1,29,-5,-4,-2,0,0
1533260499241414,-1,26,3,-3,-2,-1,-1,-2
1533260499255509,1,-4,-3,-5,0,2,4,1
1533260499255509,0,-40,-15,-5,-1,-4,0,0
1533260499264476,4,-42,-15,-4,-3,-7,-1,0
1533260499264476,0,-29,0,2,-5,-1,0,0
1533260499279489,1,-19,-3,0,-10,-5,0,-2
1533260499279489,0,-14,-6,-3,5,-4,2,-2
1533260499280474,4,-3,0,10,3,3,2,0
1533260499280474,-4,-20,-5,-4,6,-5,0,0
1533260499292498,-2,-10,-15,-8,-11,-9,-7,-2
1533260499292498,-5,-2,-15,-10,-14,-11,-6,-4
1533260499301504,-1,17,-8,1,-4,-6,-4,2
1533260499301504,4,19,-4,2,12,9,3,1
1533260499315514,-1,3,-1,4,12,2,-3,-1
1533260499315514,-4,4,-4,-6,-2,-5,-4,-3
1533260499324551,-4,15,-7,-9,-2,1,-3,-4
1533260499324551,2,18,-1,-3,-9,1,-1,-2
1533260499339620,1,18,4,0,-1,-6,3,2
1533260499339620,-2,25,4,5,6,6,2,-2
1533260499340564,4,28,-2,5,11,13,5,1
1533260499340564,-3,23,0,-6,-12,-3,-3,0
1533260499352585,-3,29,2,-2,-3,-5,-5,0
1533260499352585,4,22,-2,-7,-9,-9,-2,-4
1533260499361586,-6,7,-1,10,7,-9,3,0
1533260499361586,5,5,2,2,1,-4,0,-1
1533260499375602,2,4,-4,-4,-6,4,-5,0
1533260499375602,-5,-11,-12,1,4,14,-1,-1
1533260499384602,-1,-17,-11,-7,20,-2,0,-3
1533260499384602,-2,-3,-5,-9,-26,-10,4,-5
1533260499399619,-1,-3,3,4,-3,8,3,0
1533260499399619,1,-2,1,2,-1,-7,-9,0
1533260499400614,2,2,-5,1,-2,4,-1,1
1533260499400614,-2,-3,-5,-3,4,-9,-8,-1
1533260499412629,-6,-3,-7,-10,3,-5,-4,-4
1533260499412629,-14,-9,0,-1,-14,-11,-1,-6
1533260499421620,6,-8,2,5,1,-14,2,0
1533260499421620,3,-19,-5,-1,17,7,0,-1
1533260499435646,-5,-13,-4,7,2,7,2,-1
1533260499435646,-2,-6,-9,9,13,3,-1,1
1533260499444652,-8,-7,-13,-14,-21,-6,-4,-2
1533260499444652,1,6,3,16,-2,-3,3,4
1533260499459657,2,0,-3,-11,18,11,-4,-2
1533260499459657,-2,-1,-10,1,27,14,-2,0
1533260499460648,1,0,-8,-15,-25,-15,-4,-4
1533260499460648,-5,-5,-9,3,17,8,1,0
1533260499472754,1,-4,3,-7,-10,-18,-1,-3
1533260499472754,-3,0,-5,-3,-14,-2,-5,0
1533260499481708,-1,-4,3,2,-5,16,0,1
1533260499481708,3,0,2,-1,3,-12,1,1
1533260499495767,9,3,11,-9,-8,-1,4,0
1533260499495767,-2,1,2,-26,-21,-3,-3,-2
1533260499504820,5,-1,1,-10,5,-6,-2,-2
1533260499504820,3,-3,3,14,0,19,8,-1
1533260499518878,1,7,2,36,39,-9,1,1
1533260499518878,5,-3,-1,-4,-7,-2,0,2
1533260499520843,-1,2,7,-1,-13,2,3,1
1533260499520843,1,-4,-6,-26,14,-10,-9,-2
1533260499532890,-9,4,-6,-18,-36,-5,-4,-3
1533260499532890,-3,7,4,22,-14,7,4,-3
1533260499541859,-6,-45,2,-11,-10,-4,-2,-1
1533260499541859,2,-9,-3,4,-6,-3,-7,-4
1533260499554990,-5,0,-3,8,7,-1,0,-1
1533260499554990,0,18,-6,-2,30,9,5,1
1533260499571970,-1,22,-1,-6,-13,0,-1,-2
1533260499571970,0,7,-4,2,18,9,0,2
1533260499579008,0,-7,-14,-27,-17,-13,-13,-2
1533260499579008,-1,-5,2,-1,-57,-26,-8,-4
1533260499580955,8,17,7,59,39,23,9,1
1533260499580955,5,6,4,12,24,11,12,6
1533260499601990,-4,10,1,3,4,-1,-1,-3
1533260499601990,-3,-3,1,-10,0,-12,-5,-2
1533260499602981,-8,1,-10,-59,-41,-25,-16,-6
1533260499602981,-3,5,4,7,-8,5,4,-5
1533260499614995,-3,-4,0,4,-1,10,5,5
1533260499614995,10,-13,4,-11,19,5,1,2
1533260499624994,-7,-12,0,-12,-22,-16,-8,0
1533260499624994,-9,-7,-3,6,-7,7,-5,-2
1533260499639093,5,-7,-3,2,18,6,3,4
1533260499639093,-15,-15,5,-3,-38,-12,-4,-3
1533260499641046,0,3,8,20,39,15,3,-1
1533260499641046,-2,-7,5,-14,22,-7,-4,-4
1533260499653062,5,3,1,-4,-74,-4,1,-3
1533260499653062,6,5,3,-18,54,-5,1,0
1533260499662074,-3,7,-12,27,0,-69,-20,-1
1533260499662074,-4,7,-5,-5,-46,34,13,-1
1533260499675082,0,-4,-7,14,46,-16,2,6
1533260499675082,-7,-43,-16,-46,93,-6,-22,-9
1533260499684074,-21,-101,-21,21,-91,60,17,-9
1533260499684074,16,-14,8,14,23,-45,9,12
1533260499698100,5,-10,8,18,41,27,3,1
1533260499698100,12,127,0,8,10,-3,2,5
1533260499705103,-1,121,4,-40,20,-9,-23,-7
1533260499705103,-10,104,12,-20,-40,12,-2,-8
1533260499713104,1,122,23,9,-23,7,3,-3
1533260499713104,10,34,19,14,-3,3,7,18
1533260499722116,6,-54,8,-7,11,18,-2,-24
1533260499722116,3,-64,8,-3,-31,-25,-9,-3
1533260499735125,3,-109,13,-1,20,-15,4,4
1533260499735125,-9,-101,12,0,-43,-3,-11,-4
1533260499744116,1,-78,12,32,71,7,19,12
1533260499744116,0,-128,-7,-9,-52,14,-2,-2
1533260499758223,-4,-121,-4,11,42,-14,-7,-8
1533260499758223,2,-106,1,-1,-62,-5,1,-3
1533260499773274,3,-118,38,-9,-16,1,-4,5
1533260499773274,-7,-128,18,7,44,-1,-9,-4
1533260499774226,-3,87,-9,-25,-8,8,-10,1
1533260499774226,-2,113,32,47,18,3,17,0
1533260499782286,2,46,106,4,11,-3,-1,10
1533260499782286,-3,75,127,15,28,-82,8,97
1533260499795300,-4,56,127,43,-53,-121,-1,117
1533260499795300,-5,63,116,111,-6,-81,5,127
1533260499812354,4,25,-17,91,-28,-11,-32,49
1533260499812354,-6,35,-90,94,-43,40,-51,27
1533260499819395,13,6,-128,113,-44,39,7,-73
1533260499819395,101,-56,-128,-1,-29,-38,-20,-116
1533260499820361,118,21,-121,-72,26,9,-3,-102
1533260499820361,-63,48,-125,-120,-9,35,8,-14
1533260499833375,-105,-16,-128,-128,-4,-78,-14,19
1533260499833375,-128,-40,-120,-106,-33,-87,0,69
1533260499841363,-128,36,-122,-53,-48,-128,-6,121
1533260499841363,-39,28,-128,47,-1,-53,-4,108
1533260499855422,96,-40,-67,-40,-18,54,-2,100
1533260499855422,112,-12,55,20,-2,78,3,-12
1533260499864476,127,30,103,78,14,71,0,-55
1533260499864476,97,-13,119,-25,70,53,1,-107
1533260499886524,15,-21,127,66,13,62,0,-91
1533260499886524,14,3,116,-70,-7,68,-10,-89
1533260499888490,27,14,102,-73,-36,41,-5,-55
1533260499888490,80,-8,127,-70,-48,19,2,-73
1533260499892494,107,-1,127,-127,-14,19,1,-73
1533260499892494,96,3,117,-128,-3,35,11,-37
1533260499901500,20,-2,-10,-19,2,16,33,-18
1533260499901500,31,1,88,-82,19,-8,20,-39
1533260499915591,-14,-6,35,-96,17,10,9,-31
1533260499915591,-62,-15,-87,-80,27,21,11,-11
1533260499931561,-42,5,-102,-126,29,3,9,2
1533260499931561,-23,2,-128,-106,24,-8,1,-26
1533260499939567,-48,-8,-89,-32,26,5,1,-13
1533260499939567,-58,-1,-29,-2,31,11,4,-1
1533260499940572,-63,6,87,18,25,-4,3,-3
1533260499940572,-41,6,14,28,15,-5,-3,-11
1533260499952579,-51,90,120,62,12,3,-2,-6
1533260499952579,-42,34,87,94,14,3,5,-1
1533260499961574,-48,-65,65,99,16,0,6,1
1533260499961574,-54,74,127,127,10,-3,-1,-6
1533260499975598,-38,75,14,127,1,0,-2,-2
1533260499975598,-28,-124,-63,109,-7,4,1,-3
1533260499990608,-33,127,-11,76,-1,0,0,3
1533260499990608,-37,66,-64,31,-7,-3,0,-4
1533260499998662,-27,-123,7,37,3,-2,-3,-37
1533260499998662,-18,-78,-69,-23,-2,3,2,-46
1533260500005699,-25,-128,-101,17,14,0,2,-42
1533260500005699,-9,-40,-128,14,-4,-4,-1,-42
1533260500012757,9,84,-119,1,-5,0,-2,-28
1533260500012757,11,127,-87,42,-9,4,-2,-17
1533260500021705,1,52,-72,5,0,15,-2,-14
1533260500021705,10,119,-20,4,-3,22,-3,-18
1533260500035769,0,98,-20,-9,-1,22,-5,-9
1533260500035769,-9,2,-24,-19,-3,19,-7,-4
1533260500044734,5,32,7,3,9,12,-5,0
1533260500044734,9,22,-11,-21,-8,9,0,-3
1533260500050738,7,50,-24,-15,0,8,1,2
1533260500050738,13,74,-6,-3,-3,0,-2,5
1533260500066749,7,-93,3,-35,-14,1,1,4
1533260500066749,14,-73,18,11,0,2,-3,4
1533260500072754,-2,-128,20,-8,-3,-3,-1,8
1533260500072754,3,-36,41,54,-8,0,-6,7
1533260500089765,-2,24,8,1,1,-3,-3,3
1533260500089765,-1,-60,-20,-5,5,-1,-1,2
1533260500095765,2,-43,-9,-23,-3,-5,-5,3
1533260500095765,-5,-19,40,0,-3,1,-3,4
1533260500104771,-1,12,40,-3,-5,-3,-2,5
1533260500104771,4,43,35,-4,-6,-4,-2,4
1533260500109774,6,21,-6,-7,2,-2,-2,7
1533260500109774,-2,45,95,1,-19,-5,-3,1
1533260500125786,9,17,46,-16,10,3,-2,5
1533260500125786,0,-7,68,9,7,5,0,6
1533260500132844,6,-6,97,1,5,1,-1,3
1533260500132844,-7,19,-5,13,-1,-3,-2,8
1533260500141833,-3,65,40,-17,-24,-8,0,6
1533260500141833,5,-10,-85,18,20,3,1,4
1533260500154856,-1,27,-72,16,-3,-1,-4,5
1533260500154856,-7,-35,-77,-18,6,2,-2,2
1533260500163861,-4,-20,-44,-11,-11,-4,-4,2
1533260500163861,0,-60,-44,5,-5,-3,0,6
1533260500169865,-6,-107,-65,33,4,0,0,3
1533260500169865,6,-79,-86,-13,1,-2,-1,7
1533260500186872,4,-60,-72,-15,-8,-7,0,8
1533260500186872,-7,-44,-38,-55,-19,-13,-3,0
1533260500192882,-3,-20,-77,69,16,-5,-2,-1
1533260500192882,0,13,-75,2,23,3,0,2
1533260500208893,-9,60,-128,24,12,-3,-2,0
1533260500208893,3,-22,-43,-65,-37,-9,-5,-3
1533260500215885,10,-19,83,55,26,3,2,1
1533260500215885,-7,28,123,0,1,-5,-1,-1
1533260500223905,-17,85,-8,51,8,5,1,1
1533260500223905,-65,127,-94,28,-18,5,0,2
1533260500229899,-112,127,-48,-102,-12,16,2,0
1533260500229899,-55,88,34,21,-3,28,2,-1
1533260500253925,-5,109,111,13,5,41,4,2
1533260500253925,38,-104,-1,68,10,85,1,1
1533260500253925,115,-107,-71,-29,-11,72,4,1
1533260500253925,18,-13,71,-92,16,114,3,-3
1533260500261932,25,74,122,10,-9,114,0,0
1533260500261932,39,-37,111,90,12,39,1,1
1533260500274940,68,20,114,61,11,77,1,4
1533260500274940,127,-113,76,127,35,45,5,4
1533260500293018,28,-128,-61,108,4,120,7,7
1533260500293018,-33,35,-94,88,0,-91,15,4
1533260500293018,4,55,-108,44,-23,27,24,3
1533260500293018,45,56,-97,-71,49,-14,52,-3
1533260500305006,124,22,12,-116,124,1,52,-8
1533260500305006,85,-31,92,-53,127,-58,57,-6
1533260500313019,53,-96,83,-69,80,-128,52,-7
1533260500313019,-39,-63,-28,-49,0,-128,-4,4
1533260500336106,-57,-128,-26,-62,-108,-103,-32,5
1533260500336106,-10,-128,13,-103,-71,109,-62,2
1533260500337087,-47,-42,12,-76,-128,100,-29,2
1533260500337087,-10,58,-24,-13,-119,76,-8,3
1533260500344061,22,59,-37,-47,-118,-31,18,1
1533260500344061,-24,127,6,-13,63,-36,13,2
1533260500350081,-51,80,-42,-31,111,-33,15,2
1533260500350081,-16,-23,-53,-29,127,-12,22,2
1533260500373097,1,17,12,-7,127,-45,-4,1
1533260500373097,43,18,24,-8,15,-20,0,-1
1533260500374093,-5,-21,-16,6,-5,-4,-34,-1
1533260500374093,-40,-46,-27,15,-7,-26,-39,-5
1533260500382148,-43,-103,-48,3,-68,7,-43,-6
1533260500382148,-67,-115,-35,-18,-100,127,-38,-13
1533260500395160,-85,49,-53,-32,-109,54,-39,-12
1533260500395160,-41,101,-46,9,-127,-12,-25,-4
1533260500412166,-35,117,-10,4,-76,-72,-20,-3
1533260500412166,-36,-10,7,20,-42,-116,-22,0
1533260500413164,-1,-28,71,24,-63,-128,-18,0
1533260500413164,0,-24,78,24,-27,-115,-11,0
1533260500425228,-21,4,66,-5,-10,-116,-8,3
1533260500425228,-13,8,50,-23,-27,-128,-3,1
1533260500433273,11,-57,42,28,83,-106,0,10
1533260500433273,5,0,20,33,33,-99,-6,2
1533260500442236,3,-60,-2,3,13,-123,3,2
1533260500442236,-8,17,-19,19,-16,-48,5,0
1533260500455246,10,27,31,8,5,-31,-5,1
1533260500455246,3,-23,66,43,7,-8,-5,3
1533260500464235,-4,-10,53,38,19,1,-7,1
1533260500464235,24,21,15,-13,-7,44,-9,1
1533260500478338,18,-61,-30,-17,0,24,-10,-7
1533260500478338,6,-35,-21,-18,-10,35,-5,3
1533260500493348,2,23,3,9,9,66,-6,-2
1533260500493348,-8,59,43,24,39,34,7,6
1533260500494315,3,33,29,12,26,44,6,5
1533260500494315,18,21,36,-8,-6,64,-2,1
1533260500502381,12,-18,7,-23,30,80,-1,0
1533260500502381,4,-4,5,-19,-70,19,-9,-8
1533260500515407,-15,-20,-11,-2,-20,-62,-8,-10
1533260500515407,-12,-11,-32,0,2,56,-6,-2
1533260500524380,-12,5,-47,3,14,33,6,3
1533260500524380,-1,-12,-34,-6,68,-2,4,2
1533260500530379,-1,15,-30,-1,-1,39,-2,-3
1533260500530379,-9,-4,-40,-9,-18,71,1,0
1533260500545395,-10,-23,-15,-9,-13,61,0,-3
1533260500545395,-10,-15,-7,-3,-40,-28,-2,-4
1533260500552400,-4,-11,-21,5,-6,-7,-2,-1
1533260500552400,6,17,4,-25,-53,-58,2,-3
1533260500569407,3,12,25,46,18,-71,11,8
1533260500569407,-77,-14,-14,-1,-2,52,7,5
1533260500575464,-11,-21,-13,-12,-3,69,3,-1
1533260500575464,12,-29,2,17,2,54,-3,-3
1533260500584532,12,-48,-23,-28,-13,48,-8,-8
1533260500584532,48,-49,-37,-3,16,-3,-1,0
1533260500598593,7,-31,-11,-1,-6,-14,3,2
1533260500598593,-11,-83,24,-43,-20,-22,-5,-4
1533260500605562,-2,-41,28,-48,-38,56,-5,-7
1533260500605562,15,-16,63,-29,-7,101,6,1
1533260500612562,3,5,36,11,36,2,10,12
1533260500612562,2,18,-12,25,75,-78,5,6
1533260500621559,-16,44,-9,-9,-13,19,-11,-5
1533260500621559,-9,87,-16,7,-47,96,-8,-7
1533260500635664,1,47,-51,28,9,85,10,5
1533260500635664,-4,37,-84,35,34,31,5,1
1533260500644651,-6,-82,-34,-7,12,-17,4,1
1533260500644651,-7,-76,-2,-10,-16,45,-2,-5
1533260500658645,10,-10,41,-6,-16,79,-3,-7
1533260500658645,-5,38,40,15,9,127,0,-3
1533260500665645,2,53,36,33,16,127,8,6
1533260500665645,26,62,34,-10,-1,91,1,6
1533260500672650,6,68,40,-32,-35,94,-4,-3
1533260500672650,4,54,8,-28,-21,-39,2,1
1533260500681666,-3,77,5,18,10,10,0,-4
1533260500681666,5,47,13,9,1,-128,3,0
1533260500695672,-7,-8,-8,-3,-4,-104,-3,-2
1533260500695672,-7,-32,14,-9,-13,-17,-3,-8
1533260500704678,-7,-66,-4,-13,20,-120,-5,-4
1533260500704678,-6,-44,-41,23,-2,-123,2,0
1533260500726779,-2,-18,-44,19,19,-73,2,2
1533260500726779,-5,-36,-28,-27,-13,-59,-7,-4
1533260500728747,-1,-4,-61,30,-7,-49,4,-3
1533260500728747,11,16,-44,-2,63,12,10,4
1533260500741752,0,13,-32,-21,-13,-86,-6,-2
1533260500741752,-6,8,-10,11,-24,-73,-3,-2
1533260500743754,-6,38,9,-23,-14,-42,-3,1
1533260500743754,-5,39,15,-8,-19,-46,-6,-7
1533260500763769,7,6,11,9,10,-29,13,4
1533260500763769,2,-9,12,31,20,-38,4,4
1533260500765753,-4,3,20,-22,-10,-19,1,1
1533260500765753,-1,-42,26,54,13,-29,-1,-1
1533260500801875,-7,-36,23,7,8,-9,-6,-2
1533260500801875,1,-11,0,-15,-28,25,-2,-1
1533260500802875,0,-27,-17,-26,-16,-36,2,-1
1533260500802875,-4,-22,-2,-11,17,-11,-1,0
1533260500825855,-5,-29,4,-15,15,4,7,2
1533260500825855,-6,-14,9,-24,24,-1,-2,-3
1533260500826851,6,-24,7,-12,-55,-47,-1,-4
1533260500826851,13,14,18,-22,39,12,5,5
1533260500827857,8,-13,16,-7,-24,1,-10,-3
1533260500827857,-7,32,-6,-4,-4,16,-2,0
1533260500831858,-7,21,8,15,27,32,13,14
1533260500831858,-15,25,1,20,-10,5,-3,-5
1533260500837925,-8,23,1,-31,-6,13,8,21
1533260500837925,-11,9,-1,-2,20,5,0,-2
1533260500846911,-25,3,3,-1,14,-3,-9,-2
1533260500846911,-3,4,8,-28,-19,-21,-19,-15
1533260500852967,-12,2,-1,17,8,12,-4,-2
1533260500852967,6,13,14,10,-21,5,-5,3
1533260500861923,14,20,15,35,28,7,5,0
1533260500861923,27,-31,5,-28,-7,-1,7,11
1533260500874981,23,-19,9,3,-24,-12,-10,-8
1533260500874981,12,-32,-4,-2,-15,6,-2,-4
1533260500884040,-2,-24,-8,3,-2,-5,-7,-2
1533260500884040,-6,-23,-21,2,5,-4,3,1
1533260500899049,-14,-9,-11,2,-10,3,-2,-6
1533260500899049,4,-30,-8,3,-7,-2,3,2
1533260500905090,1,-27,-8,3,5,-4,-1,0
1533260500905090,-2,-21,-1,5,1,-6,-2,-2
1533260500922066,1,-77,0,-1,-10,-3,5,-5
1533260500922066,30,-22,-14,0,0,-3,5,4
1533260500923051,23,11,-16,-14,-2,-8,-2,-2
1533260500923051,4,44,12,15,7,5,0,-1
1533260500944082,-12,74,4,-16,2,10,-2,-2
1533260500944082,-40,65,-12,28,16,3,-6,-6
1533260500946067,-10,45,-14,-18,-17,-1,-3,-4
1533260500946067,-14,70,-23,8,-17,-10,0,4
1533260500958090,-18,62,-16,6,1,-8,-3,-4
1533260500958090,-26,16,4,-3,2,11,3,-3
1533260500965090,10,127,10,3,3,10,7,3
1533260500965090,35,-93,-23,-17,-5,-5,-6,-6
1533260500981103,38,115,9,4,0,-3,0,1
1533260500981103,19,40,14,-7,2,0,1,0
1533260500988114,-77,-110,-7,-1,4,-2,-4,-2
1533260500988114,-75,41,24,3,4,11,4,10
1533260501004122,-107,-128,-1,-7,-12,-3,-10,-5
1533260501004122,-63,-112,7,1,-7,3,0,0
1533260501006126,14,-18,26,4,-6,5,0,1
1533260501006126,100,-17,13,-14,-18,-4,-4,-5
1533260501018132,91,-3,17,3,-4,4,6,2
1533260501018132,16,127,38,0,1,3,3,7
1533260501025137,-43,66,1,0,13,6,-3,-4
1533260501025137,-50,92,9,5,0,-3,1,0
1533260501041149,-5,15,10,-1,15,-2,2,3
1533260501041149,49,-128,-9,-9,6,-8,1,-3
1533260501048154,88,-2,20,6,5,-4,1,1
1533260501048154,74,-128,0,4,21,-13,-4,-5
1533260501064165,89,59,10,4,9,-3,4,2
1533260501064165,65,-71,-17,-2,-11,-5,-1,-6
1533260501066161,43,-123,-16,-13,-7,-6,0,-3
1533260501066161,12,-101,1,14,-12,0,1,0
1533260501078169,11,-65,2,-8,-9,-3,-5,-7
1533260501078169,9,66,-21,0,-5,2,-4,-4
1533260501085180,16,53,-23,-7,-10,-2,-2,-5
1533260501085180,-9,100,-32,18,11,1,-2,-4
1533260501101190,-23,42,-45,-12,0,-1,-3,-4
1533260501101190,-4,53,-36,-11,4,5,-1,-1
1533260501108197,-20,-29,-28,2,5,2,-2,-2
1533260501108197,-40,23,-18,-16,-17,3,-2,-3
1533260501124236,-34,-28,-28,-5,-7,6,-3,-3
1533260501124236,-36,-81,-21,6,18,8,0,2
1533260501126237,-25,52,-14,34,13,0,-1,-4
1533260501126237,-27,-3,-23,-9,-6,0,-1,-9
1533260501138245,-20,70,-21,-5,-3,1,-1,-9
1533260501138245,-17,26,-17,-15,-12,-1,-1,-2
1533260501145250,-8,-3,-6,-7,0,3,0,0
1533260501145250,-10,10,5,22,4,4,-2,1
1533260501161311,-18,3,1,-4,5,4,-4,0
1533260501161311,-7,22,16,-8,-5,-3,-4,2
1533260501168320,-7,-21,-4,17,8,1,0,1
1533260501168320,-11,-62,10,2,5,-1,2,0
1533260501184291,-1,-72,-7,-1,-11,-4,0,0
1533260501184291,-10,-31,0,-5,-3,-3,-1,-1
1533260501186292,-2,-73,20,-15,-8,-5,-3,-2
1533260501186292,-4,-50,-3,-11,-3,1,0,2
1533260501198301,-10,-59,5,8,4,0,2,-1
1533260501198301,2,56,8,-7,-6,-4,-1,-2
1533260501205342,-10,-86,-8,24,14,0,-1,-2
1533260501205342,-7,-35,11,-31,-18,-4,-2,1
1533260501221398,-12,-103,-1,35,15,3,0,2
1533260501221398,-8,-104,-5,-15,-15,-9,-4,-3
1533260501245381,-5,-48,11,7,6,0,3,0
1533260501245381,0,13,-17,-1,0,1,2,2
1533260501245381,3,53,2,-14,-9,-5,-4,-3
1533260501245381,-2,50,5,-6,-6,-13,-7,-1
1533260501247389,-6,28,-8,4,0,8,3,0
1533260501247389,6,107,-5,5,22,9,4,-1
1533260501257388,-1,66,9,1,-4,0,1,0
1533260501257388,13,13,1,-2,4,0,0,1
1533260501266395,17,26,-10,-14,-14,-10,-6,-3
1533260501266395,-3,3,4,-13,-10,-3,-5,0
1533260501281390,15,-28,-1,16,7,-2,-2,2
1533260501281390,6,-8,1,-12,-8,2,-2,-2
1533260501287410,4,59,10,-11,-3,4,-2,0
1533260501287410,11,-18,1,2,2,1,1,-1
1533260501304421,13,25,0,-1,-4,-6,-1,-2
1533260501304421,5,49,-7,6,2,0,2,-1
1533260501305422,2,52,5,-12,-16,-10,-2,-1
1533260501305422,0,6,-7,2,-1,-1,0,-3
1533260501317511,-9,-5,-9,9,8,9,2,-1
1533260501317511,0,11,-6,3,17,11,4,3
1533260501326480,1,1,-1,-5,-4,0,-1,0
1533260501326480,-2,-17,13,-7,-12,-10,-5,-2
1533260501341516,0,-10,-4,-6,-14,-9,-2,-1
1533260501341516,-5,-16,2,15,2,-4,0,-3
1533260501355503,-8,-22,-7,-11,-2,-4,-3,-1
1533260501355503,-10,5,3,-16,-16,-2,-5,-3
1533260501364510,-5,9,2,5,-11,-2,-4,-1
1533260501364510,-1,0,0,1,5,-1,-4,1
1533260501365507,-9,-4,6,-13,-1,-5,-2,-4
1533260501365507,-2,10,11,10,11,-1,0,-2
1533260501377519,-2,8,10,-10,2,1,2,-1
1533260501377519,3,-16,-4,8,-4,-5,-1,-1
1533260501386525,1,-1,13,-20,-13,-6,0,-1
1533260501386525,-1,9,0,17,13,-2,-1,0
1533260501401542,0,-2,-6,4,1,0,-2,-10
1533260501401542,-6,-9,-5,11,16,4,2,-3
1533260501407540,1,-10,-9,1,1,-2,0,-2
1533260501407540,4,-8,-11,-16,-14,-8,-2,3
1533260501439563,5,1,-3,-4,-6,-9,-2,0
1533260501439563,-6,4,-5,-11,-14,-8,-2,-3
1533260501441558,-5,-36,-16,17,14,8,5,2
1533260501441558,-1,-22,-8,10,13,2,4,3
1533260501442565,-2,-19,-6,3,3,-4,-1,4
1533260501442565,-3,-17,14,-7,-7,-4,-2,0
1533260501454561,0,21,10,-6,-10,-8,-4,0
1533260501454561,-11,3,3,-1,-9,0,0,-2
1533260501461583,-1,22,1,-7,-2,1,-1,1
1533260501461583,0,-11,-11,4,-3,-1,-3,-1
1533260501484594,4,26,-10,2,-3,1,-2,0
1533260501484594,2,32,3,5,1,1,0,0
1533260501485581,-6,38,1,-23,-8,0,3,0
1533260501485581,-7,26,11,25,3,4,4,0
1533260501487581,-5,37,4,3,-4,1,1,-1
1533260501487581,-12,8,5,3,-1,1,2,-3
1533260501497588,-10,12,6,6,7,1,0,-3
1533260501497588,-8,19,25,-2,-1,2,1,-1
1533260501523622,-3,-25,10,-2,-1,4,-3,-1
1533260501523622,-14,-15,-7,-8,-17,11,-6,-1
1533260501523622,-10,92,-30,9,5,19,-1,2
1533260501523622,-15,112,-25,5,1,15,-3,0
1533260501527683,-7,127,-16,0,7,-2,-1,0
1533260501527683,3,127,-8,-22,-8,3,-3,-2
1533260501543707,5,94,-13,19,2,13,1,0
1533260501543707,23,30,-2,-8,0,12,1,-2
1533260501550711,-29,-102,18,13,7,-17,-1,0
1533260501550711,-42,-58,12,2,-1,-9,-2,-1
1533260501557719,0,-128,25,-8,-8,0,-4,-3
1533260501557719,72,-56,4,-1,-7,18,-2,0
1533260501566677,79,-108,-16,-5,-5,20,1,-1
1533260501566677,109,-3,-22,-3,8,16,2,1
1533260501580697,68,-108,-17,-10,-2,12,2,1
1533260501580697,49,13,0,-13,2,-63,-1,1
1533260501595691,55,-11,4,1,6,-70,-2,-4
1533260501595691,5,-79,9,-10,14,-122,1,-1
1533260501603714,-8,-66,6,2,12,-128,-2,-2
1533260501603714,-33,-128,16,-3,5,-126,0,-1
1533260501605699,-60,-93,26,-2,12,-80,0,1
1533260501605699,-50,-67,45,6,4,-14,2,-1
1533260501617723,-30,-1,55,-21,-10,50,0,-2
1533260501617723,-41,79,10,-23,-8,123,2,2
1533260501634731,-24,127,-44,-16,7,109,5,1
1533260501634731,-19,79,-65,25,14,127,4,0
1533260501640790,-7,71,-41,-3,8,72,2,-1
1533260501640790,0,59,-2,19,3,47,1,-2
1533260501647815,9,-6,7,-10,-23,50,0,-1
1533260501647815,4,24,-11,-7,-39,12,-1,-1
1533260501678800,-9,5,-33,-20,-24,7,-3,-2
1533260501678800,-30,-48,-25,-8,-9,36,-2,-3
1533260501687816,-3,-40,-10,20,37,44,-2,0
1533260501687816,17,-68,14,10,17,7,3,4
1533260501688817,0,-37,14,11,-4,-15,-5,-1
1533260501688817,-4,-50,-11,-30,-5,-5,-8,-5
1533260501690816,-7,-36,1,2,-38,69,-15,-8
1533260501690816,-4,-94,22,27,26,-18,-3,-1
1533260501716874,0,-32,-10,-9,-1,-46,-4,2
1533260501716874,-17,-43,-11,13,5,-32,-2,-2
1533260501717858,-23,-62,0,-10,-38,-48,-11,-7
1533260501717858,-15,-2,5,-27,-23,-41,-12,-8
1533260501731885,-5,35,35,5,8,-17,1,2
1533260501731885,4,44,12,33,25,5,-1,0
1533260501732851,-2,88,10,11,6,-46,5,-1
1533260501732851,5,71,-5,-25,6,-5,-4,-4
1533260501737854,2,26,10,4,-13,-67,-3,-2
1533260501737854,1,41,-4,-1,6,-65,3,1
1533260501754853,3,1,-3,-2,-31,-40,-5,-2
1533260501754853,5,7,6,1,1,-3,-1,6
1533260501760870,0,2,-5,2,2,36,1,-2
1533260501760870,-10,-14,1,-10,-15,5,-9,-6
1533260501767876,0,18,-2,3,23,-37,0,-1
1533260501767876,-9,23,-3,3,1,11,1,-3
1533260501783887,-1,-9,-6,9,0,33,-2,0
1533260501783887,-3,-18,6,-10,-21,70,1,-1
1533260501785883,-3,7,4,-10,4,9,2,1
1533260501785883,-6,-4,-10,-3,-13,-77,-8,-8
1533260501797977,-5,-21,-7,3,-11,-41,0,-1
1533260501797977,-6,-44,-8,-14,-2,-68,-3,-1
1533260501806947,3,-8,-10,3,15,-82,3,3
1533260501806947,-1,-43,-5,-9,-15,-58,-2,-3
1533260501820994,1,-16,11,0,7,-7,3,-1
1533260501820994,4,-12,5,19,34,98,-2,1
1533260501835004,1,27,0,-2,-18,127,0,-1
1533260501835004,7,48,39,-18,5,98,2,1
1533260501844092,0,-2,-2,7,-13,50,-6,-4
1533260501844092,-2,31,0,4,-49,9,-3,-2
1533260501846044,-1,2,-27,-2,43,42,5,5
1533260501846044,-1,-15,-27,9,1,28,0,-3
1533260501858066,-5,-32,0,-5,-9,7,-1,-1
1533260501858066,0,-25,-34,6,13,43,-3,-2
1533260501874063,0,-47,7,-7,-33,17,-3,-2
1533260501874063,-3,-38,16,-16,-10,34,-3,-2
1533260501881131,-1,-16,-2,-2,14,28,-1,-4
1533260501881131,-2,-21,-6,-2,5,-58,0,-1
1533260501888132,-1,-8,-27,-20,-23,-79,-4,-3
1533260501888132,2,3,13,16,7,30,3,1
1533260501920155,10,23,20,14,30,-45,5,7
1533260501920155,2,10,19,-3,-9,-45,2,0
1533260501921157,-2,5,35,-15,-16,50,-2,-7
1533260501921157,-3,-4,-25,-2,2,12,-5,-8
1533260501922151,-4,3,-23,-14,-14,26,-4,-5
1533260501922151,0,3,-11,4,13,-15,-1,2
1533260501927160,-2,6,8,6,13,27,-1,2
1533260501927160,3,66,-20,30,9,92,4,5
1533260501949175,-1,50,-16,-26,-31,127,-4,-3
1533260501949175,-5,22,14,21,20,122,5,1
1533260501951179,-1,31,24,5,21,87,2,5
1533260501951179,-8,6,4,-18,-55,-56,-4,-2
1533260501963180,-11,15,-5,-13,-1,-38,-8,-6
1533260501963180,2,10,20,-3,-2,-101,1,-1
1533260501970191,12,2,7,26,22,-108,9,6
1533260501970191,3,-7,-24,-11,19,-101,1,4
1533260501994202,-7,-24,-57,-9,-12,-110,-7,-5
1533260501994202,-6,-8,-16,-16,-6,-105,-11,-6
1533260501996208,-6,11,1,-12,-17,-69,-5,-5
1533260501996208,-1,21,19,22,8,-23,2,-2
1533260502009216,-2,21,30,-14,-1,-43,-5,0
1533260502009216,-2,19,13,-9,2,-22,4,-2
1533260502011215,0,18,19,1,50,-49,-2,-1
1533260502011215,1,12,39,3,-43,-45,-3,-1
1533260502039276,4,8,36,-5,19,7,8,1
1533260502039276,-2,-4,3,20,-12,14,-6,1
1533260502041243,-11,-15,-15,-36,-13,0,-1,-5
1533260502041243,-4,-4,-3,-7,19,33,6,3
1533260502046271,-1,-6,-11,24,1,14,-1,0
1533260502046271,4,-10,9,-10,-5,27,-1,-2
1533260502047272,6,-26,2,13,-10,-2,-4,-1
1533260502047272,-2,-26,-16,6,10,6,-8,-5
1533260502075308,7,-7,-15,8,1,-25,3,2
1533260502075308,3,-21,-21,-14,-17,-21,-6,-2
1533260502087301,2,-15,-20,-10,-17,-8,-2,-3
1533260502087301,7,-12,-6,0,7,-5,0,-1
1533260502091320,-5,-13,4,-1,-4,-3,-3,-1
1533260502091320,-1,-9,-2,-2,-2,9,1,-2
1533260502092319,0,-10,-1,9,6,-3,-1,0
1533260502092319,-14,9,-10,-6,6,-2,-2,-4
1533260502114335,1,17,-2,2,0,-5,1,0
1533260502114335,-6,-5,0,-14,-11,1,-2,-2
1533260502115336,4,5,-1,21,9,20,9,2
1533260502115336,6,27,-1,1,19,0,2,1
1533260502121339,0,17,-2,0,-8,6,-1,-3
1533260502121339,2,10,-3,3,1,-34,-4,2
1533260502127344,-3,6,-16,-5,-25,-28,-7,-4
1533260502127344,5,4,-12,-8,-20,-26,-6,-1
1533260502151345,-3,-18,-1,26,37,18,7,2
1533260502151345,1,11,8,1,3,8,4,3
1533260502153362,-15,-12,2,-1,-8,-4,-5,-4
1533260502153362,-13,-3,0,-28,0,2,-1,-1
1533260502166369,-4,14,4,0,-6,3,-5,-2
1533260502166369,-5,0,5,-2,8,23,4,0
1533260502168357,-1,-6,-8,-10,-9,1,-3,-3
1533260502168357,-1,-37,8,20,1,9,-2,-1
1533260502189389,-3,-41,10,-2,-7,-2,-4,-4
1533260502189389,8,-52,-9,-5,8,13,0,-1
1533260502190388,4,-24,1,-23,-1,5,-2,2
1533260502190388,-4,-43,7,-4,-18,-6,-13,-4
1533260502203398,1,-41,8,22,29,22,20,5
1533260502203398,5,-36,-11,4,-8,-1,4,1
1533260502210403,1,10,5,6,-1,-3,-1,-2
1533260502210403,3,-1,9,-8,-11,-13,-6,-4
1533260502226414,-6,38,7,-20,-21,-18,-12,-4
1533260502226414,-14,88,11,19,17,16,8,0
1533260502228410,-8,70,6,6,2,-2,-2,0
1533260502228410,-22,127,-11,1,-3,3,3,2
1533260502240424,-31,126,-3,-43,-18,-9,-6,-2
1533260502240424,-18,127,8,30,0,-3,-3,-1
1533260502249415,-29,105,2,5,3,-1,-3,0
1533260502249415,-21,74,-9,-1,8,1,-1,0
1533260502263520,-28,99,-4,-6,0,0,-1,-3
1533260502263520,-6,108,-13,-8,-8,-3,-2,1
1533260502270526,45,-85,-11,-5,1,-3,1,-1
1533260502270526,73,-128,-11,0,2,5,1,-2
1533260502286618,45,-126,-5,6,7,5,1,0
1533260502286618,20,-114,1,-10,-6,3,-2,1
1533260502288584,2,-98,8,2,-5,2,-3,1
1533260502288584,4,-123,16,-5,1,10,3,1
1533260502300639,11,-128,0,-1,-9,-6,-6,-1
1533260502300639,90,-66,0,6,1,-6,-6,-1
1533260502309659,26,33,37,-6,1,2,2,3
1533260502309659,-3,-62,38,4,4,1,2,1
1533260502323653,10,-74,15,-2,-5,0,-1,1
1533260502323653,9,-128,-20,1,0,2,0,-2
1533260502331687,65,-111,-22,10,4,0,0,-2
1533260502331687,61,85,9,-9,0,1,0,-2
1533260502346712,35,90,58,-6,-6,-8,-1,-2
1533260502346712,-33,27,44,-4,-1,-2,-5,-2
1533260502348707,-53,66,2,-6,-3,0,-1,-1
1533260502348707,-65,-33,-33,7,1,5,-2,-1
1533260502360722,-33,3,-38,-2,-1,-1,-2,-3
1533260502360722,-11,104,-36,-17,-8,-2,-3,-2
1533260502369723,-17,110,-38,6,1,0,-1,-4
1533260502369723,-27,90,-53,5,7,5,4,-1
1533260502391823,-5,26,-3,2,0,0,-4,-1
1533260502391823,5,1,-5,-6,0,-2,-1,-2
1533260502393783,14,45,-28,0,-2,1,-1,-1
1533260502393783,36,127,-40,-2,-4,2,-2,-2
1533260502406833,8,62,-33,8,-2,-2,-4,0
1533260502406833,-7,-21,2,3,-3,-1,-3,-4
1533260502408804,-9,-60,12,-3,-4,-4,-3,-3
1533260502408804,-1,-51,7,2,7,-4,-3,-3
1533260502420802,-10,-26,-14,-3,2,-2,0,-1
1533260502420802,-28,-9,-2,-6,0,6,2,1
1533260502429844,-24,-120,-11,-5,-6,3,-4,-3
1533260502429844,-23,-71,1,2,-2,-2,-1,0
1533260502443868,-15,-80,-13,-2,-2,1,-3,-2
1533260502443868,-19,-12,-12,-9,-1,-3,-2,-3
1533260502449922,-18,6,-7,-8,1,1,-2,0
1533260502449922,-16,93,0,7,-7,-2,-4,-2
1533260502466967,-5,112,1,-9,-4,0,-1,-3
1533260502466967,-8,113,-21,12,9,2,2,-2
1533260502467932,-11,127,-9,6,8,4,0,-2
1533260502467932,-6,97,-3,-13,-7,-1,0,1
1533260502479941,5,127,-13,-7,-6,0,1,0
1533260502479941,-7,117,2,-1,-10,-5,-3,0
1533260502488946,-7,-15,1,3,-6,-5,-1,-1
1533260502488946,-4,-29,4,-14,-1,-11,-4,-5
1533260502503957,-7,-100,4,0,-4,-4,-1,-3
1533260502503957,-6,-128,0,9,23,13,10,3
1533260502509960,-2,-110,-5,3,1,-1,-3,-2
1533260502509960,-6,-111,17,3,0,1,1,1
1533260502526974,-5,-75,5,-5,-5,-6,-6,-3
1533260502526974,-2,-119,6,-12,3,-6,-5,-2
1533260502527976,2,-104,16,3,3,-1,0,1
1533260502527976,-1,-128,20,1,1,-2,-1,0
1533260502540018,1,-79,-2,-1,-1,1,0,-1
1533260502540018,6,-67,-1,-4,-10,-5,-2,-1
1533260502549024,-3,-93,-5,15,1,2,1,0
1533260502549024,-1,-107,-4,-14,-3,2,-2,-2
1533260502563994,5,-69,1,5,2,3,2,2
1533260502563994,1,20,-2,-24,-29,-16,-10,-1
1533260502570039,-7,72,-2,7,-12,-5,-7,-8
1533260502570039,10,33,-5,27,48,28,19,10
1533260502587054,7,-2,-9,-3,0,1,1,3
1533260502587054,1,-26,13,2,-1,-2,-1,-2
1533260502588017,0,1,4,-22,-15,-11,-6,-2
1533260502588017,-1,3,9,-16,-21,-12,-5,-5
1533260502600028,2,-21,-2,8,6,4,0,-1
1533260502600028,1,-12,3,9,1,0,0,0
1533260502609028,5,6,1,-3,2,-2,2,2
1533260502609028,-1,15,-3,2,0,0,-1,0
1533260502624049,-8,5,-7,10,3,-1,-1,-2
1533260502624049,1,16,8,-11,-11,-2,-2,-3
1533260502630093,5,19,-3,-3,5,1,2,2
1533260502630093,3,12,-17,-7,-7,-1,-2,0
1533260502647112,3,19,-11,-8,-9,-6,-5,-2
1533260502647112,-7,-19,11,11,3,0,0,-4
1533260502648096,-2,4,9,3,8,5,2,0
1533260502648096,-4,-1,0,-3,-11,-10,-7,-3
1533260502661122,-1,16,-3,6,-5,-6,-1,1
1533260502661122,-2,8,-8,-6,-2,-2,-4,-2
1533260502669108,-2,13,-1,7,10,13,7,0
1533260502669108,-3,13,53,-5,-5,-7,-2,0
1533260502684138,-1,0,14,-9,-2,-3,-1,-2
1533260502684138,4,-7,-1,7,11,3,3,1
1533260502690145,-4,10,-14,-4,-9,-6,-5,-4
1533260502690145,5,-11,-64,5,-3,0,1,0
1533260502714139,-3,-5,-23,-8,-10,-4,-1,1
1533260502714139,3,-3,-16,8,6,-1,-3,-1
1533260502716140,5,16,-2,-5,4,3,0,0
1533260502716140,-1,10,13,7,0,1,0,-1
1533260502720167,1,8,20,-5,-1,-3,0,-1
1533260502720167,-2,-14,4,-3,-8,-4,-3,0
1533260502729222,1,-9,8,-8,-2,-4,2,0
1533260502729222,0,15,6,-6,-3,-5,-2,-2
1533260502743233,0,1,2,-6,-8,-7,-3,-3
1533260502743233,-1,9,28,0,1,-3,1,-4
1533260502750238,4,11,37,5,13,9,3,1
1533260502750238,2,-8,6,-1,3,5,1,1
1533260502767244,2,-3,-2,11,6,3,2,0
1533260502767244,-3,-12,-14,-10,-10,-3,-1,0
1533260502768248,-3,-15,-25,-7,-10,-10,-5,-2
1533260502768248,-5,-17,-10,-1,-6,-5,-3,-2
1533260502780258,0,-10,-9,3,5,-1,1,0
1533260502780258,-1,-4,-14,-4,-3,-2,0,0
1533260502789245,-2,0,-19,-6,-6,-6,-3,-1
1533260502789245,-1,13,-3,13,3,-2,-1,-1
1533260502803356,0,7,-12,0,2,1,-1,-3
1533260502803356,4,2,-5,8,1,1,-1,2
1533260502810325,0,3,1,-13,-4,-3,-3,-2
1533260502810325,-1,14,-4,-7,-11,-7,-3,-4
1533260502826337,-20,8,20,2,2,-1,-4,-4
1533260502826337,-17,10,-17,7,14,16,10,1
1533260502827328,-20,2,8,6,-1,-1,-1,1
1533260502827328,0,7,2,-4,-1,-1,1,-1
1533260502848352,8,0,9,-1,-6,-6,-3,-2
1533260502848352,7,2,3,-6,-7,-4,-1,-3
1533260502849340,9,-8,1,5,-3,-4,-2,-4
1533260502849340,3,-7,-1,-2,-3,-2,-2,-2
1533260502864345,7,4,8,2,3,1,1,1
1533260502864345,6,-3,-1,-10,-2,-3,-3,1
1533260502870368,7,3,3,-2,0,0,0,-1
1533260502870368,1,0,6,-5,-1,1,-2,-1
1533260502885431,0,2,-3,2,0,1,0,1
1533260502885431,-3,1,-5,0,-5,-5,-4,-5
1533260502892468,-6,5,-7,5,5,8,4,3
1533260502892468,-7,14,1,2,1,0,1,-2
1533260502916567,-5,-1,-15,9,6,4,2,-2
1533260502916567,1,10,18,-10,-3,0,-1,-2
1533260502916567,2,1,-4,-14,-11,-3,-3,-2
1533260502916567,-1,-1,-8,7,-3,-3,-4,-5
1533260502924575,1,3,43,-4,5,5,3,2
1533260502924575,-2,6,3,15,3,3,1,1
1533260502930648,-1,2,-35,2,1,0,-2,-5
1533260502930648,3,6,-23,-4,-1,1,-1,3
1533260502945701,3,2,-5,-5,-8,-2,-2,-4
1533260502945701,7,2,13,-21,-16,-8,-2,-2
1533260502952801,6,3,29,12,5,1,-3,-4
1533260502952801,8,9,6,3,6,3,1,3
1533260502968812,1,-11,-9,-5,1,-3,-4,-1
1533260502968812,0,-7,5,2,6,13,5,3
1533260502969796,-1,-3,7,-1,-4,6,-1,0
1533260502969796,-11,-21,-4,-16,-12,-2,-6,-6
1533260502984787,-3,-4,-22,-1,0,5,-1,1
1533260502984787,0,-1,-3,-4,2,0,1,1
1533260502990780,-4,-9,-8,-15,-6,-11,-4,-4
1533260502990780,2,-6,8,2,5,-7,1,-3
1533260503005845,-2,-8,-23,-13,-9,-3,0,-1
1533260503005845,-1,-5,5,7,4,-3,-3,-2
1533260503012936,2,0,-11,6,10,-3,1,3
1533260503012936,2,-5,-3,-11,-16,-9,-1,-3
1533260503028933,-1,-1,2,2,9,-5,-2,-4
1533260503028933,2,1,5,3,-7,-3,1,-1
1533260503028933,2,-2,18,12,9,-5,1,2
1533260503028933,-3,-4,8,-10,-3,-3,1,0
1533260503044008,-5,-2,-26,-4,0,-8,-4,-3
1533260503044008,-1,-1,-4,-4,0,0,-3,0
1533260503050005,-6,-1,3,-1,-7,-2,-3,-1
1533260503050005,-3,-3,-16,-5,-3,-2,-2,-2
1533260503064981,0,11,29,16,6,6,2,0
1533260503064981,-7,-10,-49,-21,-3,3,-2,-2
1533260503072984,5,17,15,0,-11,-5,-3,1
1533260503072984,-8,-13,-12,-4,4,11,2,0
1533260503088987,6,0,8,0,3,6,1,-1
1533260503088987,-3,-6,-5,6,-6,-2,-5,-4
1533260503088987,-1,-8,1,-1,-6,-2,-2,0
1533260503088987,-1,-1,4,7,1,5,2,-3
1533260503104006,1,2,7,3,0,4,3,-1
1533260503104006,-2,-6,-42,-9,0,4,0,-1
1533260503110010,-4,18,40,19,12,7,2,-1
1533260503110010,-3,6,10,7,-1,0,-1,0
1533260503125022,-3,4,21,-4,-9,-2,-4,-1
1533260503125022,-3,-6,2,-3,-7,3,-3,-3
1533260503133076,-3,-2,2,3,-3,2,-1,1
1533260503133076,-1,0,-3,17,13,1,0,0
1533260503172141,2,3,5,-2,-1,-3,-2,1
1533260503172141,-2,4,24,8,-1,-6,-2,-1
1533260503173097,-3,-12,-28,-24,-7,-3,-5,-4
1533260503173097,2,8,9,11,1,3,2,0
1533260503185092,-1,-8,-15,-9,-3,-4,0,1
1533260503185092,-1,1,12,7,1,-7,-1,0
1533260503194098,-4,-11,-20,-12,-6,-6,-5,-5
1533260503194098,4,7,-6,-7,-13,-8,-5,1
1533260503209163,2,9,1,7,5,13,5,-2
1533260503209163,-1,4,6,4,9,-3,1,1
1533260503211135,-1,-3,-5,-4,-7,-8,0,-5
1533260503211135,-2,1,13,4,0,-5,-6,-4
1533260503224137,-2,-4,6,7,-2,-7,-1,-4
1533260503224137,-3,-22,-29,-11,1,8,4,-2
1533260503226139,-4,-17,-18,-6,-4,1,2,-2
1533260503226139,-2,-6,2,-9,3,-1,1,-2
1533260503238148,4,17,27,13,15,8,3,4
1533260503238148,-8,-7,-31,3,-3,-8,-5,-4
1533260503247144,-5,5,-19,0,-9,-9,-6,-2
1533260503247144,-1,8,-11,-15,-12,-2,-4,-4
1533260503262159,-3,-3,-27,-11,-9,-5,-6,-2
1533260503262159,2,16,59,-1,-5,-7,-5,-1
1533260503263156,-2,-2,20,5,4,2,3,-2
1533260503263156,-3,-16,-9,-13,-1,4,4,2
1533260503276254,-10,-26,-10,-7,-12,-11,-4,-5
1533260503276254,1,-27,-17,3,5,-3,-4,-2
1533260503277251,1,-27,20,9,1,2,1,0
1533260503277251,-2,-40,-15,20,11,9,5,1
1533260503284220,-3,-52,5,-2,0,0,-5,-1
1533260503284220,-7,-62,9,-17,-12,-3,-10,-6
1533260503290265,-3,-42,-17,-9,-20,-1,-8,0
1533260503290265,2,36,-2,1,21,1,2,-1
1533260503305359,-22,68,-13,15,14,7,11,3
1533260503305359,-12,45,-6,0,4,-7,-6,-2
1533260503312455,1,37,-13,-8,-4,3,-4,-3
1533260503312455,2,18,-2,1,-24,-6,-3,-4
1533260503328425,13,-1,-15,-19,-1,-15,-8,-3
1533260503328425,10,60,3,6,14,3,8,5
1533260503329414,2,61,4,-9,-2,-8,-6,-1
1533260503329414,5,-8,25,-10,-12,-8,-6,-2
1533260503344438,4,-40,18,6,-11,-3,-2,-1
1533260503344438,-2,-15,14,17,15,7,5,0
1533260503350501,0,-11,-3,-6,1,2,1,2
1533260503350501,-12,-75,-8,-6,-5,-2,-3,-3
1533260503365543,-1,-62,11,-2,-1,3,0,0
1533260503365543,0,-17,5,-15,-17,-5,-5,1
1533260503372634,-2,-42,-4,34,4,-6,-5,1
1533260503372634,-6,13,12,6,12,6,3,1
1533260503388690,-2,-1,-12,-8,-21,-28,-16,-2
1533260503388690,0,49,0,3,0,-2,1,-5
1533260503389690,1,80,10,6,39,50,32,9
1533260503389690,-2,63,4,-3,-22,-12,-8,-4
1533260503404667,0,88,-9,-4,5,-1,3,1
1533260503404667,-5,113,-3,0,-28,-15,-13,-5
1533260503410670,-4,63,-3,-24,-8,-14,-13,-6
1533260503410670,-5,-52,-9,14,-3,-12,-11,-5
1533260503425681,1,-79,-2,16,29,28,23,4
1533260503425681,-1,-100,0,-6,0,-4,4,1
1533260503432687,-7,-20,-1,-6,-12,-5,-1,-3
1533260503432687,3,12,-8,-10,-6,-3,-3,-2
1533260503448699,1,37,-23,-17,-17,-11,-10,-5
1533260503448699,-1,-32,-32,-9,3,3,2,1
1533260503449697,2,-104,7,-8,9,-3,1,0
1533260503449697,1,-1,28,16,-3,-4,-3,1
1533260503464736,-3,25,17,-9,-4,-1,-4,-3
1533260503464736,3,-57,6,21,9,5,7,1
1533260503470794,-4,1,8,-18,-6,-8,-5,-4
1533260503470794,-1,24,-1,-2,3,3,0,-3
1533260503485770,-1,-32,-6,6,8,5,-3,-4
1533260503485770,0,-27,-1,3,0,-4,-3,0
1533260503492776,1,22,-3,9,-5,-7,-3,-4
1533260503492776,-3,7,-3,-5,5,-1,1,1
1533260503515872,-4,7,11,-23,-23,-6,-8,-4
1533260503515872,-2,47,17,19,-1,-3,-10,-6
1533260503516823,6,-7,12,1,20,15,16,7
1533260503516823,9,-64,-25,5,10,7,0,0
1533260503524848,8,-17,-27,-13,-2,-4,-2,2
1533260503524848,-2,39,-26,-25,-16,-7,-10,-5
1533260503530875,3,-30,-37,40,4,-2,-2,1
1533260503530875,4,-14,-9,-34,0,-1,5,4
1533260503544898,-4,5,-7,35,8,-2,-7,-2
1533260503544898,-7,-25,18,-26,11,18,10,3
1533260503561021,-8,-72,8,20,-2,5,-4,0
