timestamp,emg1,emg2,emg3,emg4,emg5,emg6,emg7,emg8
28515485450,-2,-4,29,2,6,24,3,1
28515485450,9,6,-100,10,21,49,18,8
28515486156,-8,-4,103,-17,-25,-68,-24,-10
28515486156,-5,-5,26,-3,-2,3,1,-2
28515486910,7,3,-83,12,19,51,18,8
28515486910,-5,-3,76,-10,-18,-49,-16,-7
28515487724,-4,-4,-128,1,1,9,2,-3
28515487724,2,-1,-80,6,13,32,10,4
28515498609,1,1,3,-3,-5,-19,-4,-1
28515498609,-8,-6,74,-7,-13,-30,-14,-6
28515515879,1,-1,-90,5,9,29,7,2
28515515879,4,3,-14,5,4,13,7,0
28515518824,-8,-6,53,-12,-19,-46,-19,-7
28515518824,-2,-5,-94,-1,2,11,2,0
28515529591,5,2,-17,8,13,34,10,3
28515529591,-3,-1,48,-10,-12,-32,-11,-6
28515536042,-6,-3,-12,-5,-4,-8,-2,-3
28515536042,1,0,-31,4,5,21,8,2
28515544673,0,-1,-20,-2,-1,-4,0,0
28515544673,-5,-4,22,-4,-9,-18,-10,-4
28515559503,1,-2,-80,-2,1,7,3,0
28515559503,1,1,-31,-1,1,4,2,1
28515566695,-2,-3,34,-5,-7,-14,-7,-2
28515566695,-1,-2,56,0,0,3,0,1
28515604626,-10,-6,111,-13,-24,-58,-23,-10
28515604626,-3,-3,-1,3,4,17,4,1
28515613487,8,6,-91,6,16,38,15,4
28515613487,-8,-4,88,-14,-23,-62,-21,-9
28515614279,-3,-4,-52,2,3,12,3,1
28515614279,8,4,-68,10,18,47,17,4
28515615074,-5,-1,49,-10,-20,-50,-18,-7
28515615074,-7,-7,-53,-5,-3,-1,-5,-4
28515626369,5,2,-93,8,12,37,10,4
28515626369,2,1,21,-6,-7,-25,-7,-2
28515633170,-8,-5,48,-7,-11,-25,-9,-6
28515633170,-1,-2,-16,2,7,23,5,2
28515640680,4,4,-51,1,7,16,8,4
28515640680,-7,-4,37,-12,-17,-42,-18,-7
28515655709,-3,-5,1,-2,0,8,-1,-1
28515655709,5,2,-55,7,13,32,14,6
28515663268,-3,-1,24,-6,-8,-23,-8,-2
28515663268,-4,-3,23,-3,-4,-8,-3,-1
28515672162,0,-2,-54,4,6,18,5,3
28515672162,0,1,-45,-2,-2,-6,-1,0
28515686390,-4,-4,4,-4,-6,-13,-5,-5
28515686390,-1,-1,-59,0,1,4,3,0
28515693188,1,0,-42,1,1,2,-1,0
28515693188,-2,-2,4,-6,-7,-12,-7,-4
28515700727,0,-1,-101,0,1,4,-1,-2
28515700727,-1,-2,-46,1,3,7,1,-1
28515715682,-3,-4,27,-5,-7,-14,-6,-4
28515715682,-2,-1,-33,2,-1,2,1,-1
28515723197,0,-2,-17,0,2,8,4,0
28515723197,-3,-1,56,-3,-4,-12,-4,-3
28515732213,-2,-3,1,-2,-1,-3,-1,-2
28515732213,1,-2,-47,1,2,5,2,0
28515746514,1,-2,-14,-3,-1,-1,0,0
28515746514,-3,-4,-20,-2,-4,-5,-1,-2
28515753263,-1,-1,-47,-4,0,2,0,-2
28515753263,1,-1,-14,-1,0,4,1,-2
28515760729,-4,-2,-6,-4,-4,-7,-4,-3
28515760729,-2,-1,13,-3,-3,-2,-1,-1
28515775703,0,0,-27,-3,0,6,0,-1
28515775703,-2,-1,-11,-4,-3,-9,-4,-1
28515783241,0,-2,-9,0,0,3,1,-1
28515783241,-1,-1,-19,-4,-1,1,-2,-1
28515792182,-1,0,-16,-2,-2,-5,0,-3
28515792182,-2,-1,1,-2,-2,-2,-2,-3
28515806605,0,-1,-35,-3,-1,1,-3,-2
28515806605,0,-1,-41,-1,-2,-3,-3,-2
28515821427,-2,-2,-7,-4,-3,-7,-4,1
28515821427,-2,-1,-36,-3,0,2,0,-1
28515822179,-1,0,2,0,1,5,0,-1
28515822179,0,-2,25,-3,-5,-8,-2,-2
28515835885,0,1,-19,0,3,6,1,2
28515835885,1,-1,-27,3,0,3,0,-1
28515843229,0,0,-9,-2,-1,-7,-2,-3
28515843229,-3,-1,-36,-1,-2,0,-2,-1
28515852165,1,1,-6,1,0,1,0,0
28515852165,-2,-1,-2,-3,-1,-3,0,2
28515866399,-2,-3,32,-3,-3,-6,-3,1
28515866399,0,0,41,2,1,3,0,2
28515873179,0,0,-13,1,0,4,2,1
28515873179,-2,-1,-5,-3,-4,-7,-2,-1
28515880723,-1,-2,0,-1,1,4,1,0
28515880723,0,0,-41,-2,0,3,2,-1
28515895686,-1,-2,-38,-4,-3,-7,-3,-1
28515895686,-2,0,10,-1,-1,-2,-6,-3
28515903210,-2,-1,-77,0,1,1,-2,-2
28515903210,0,-1,-43,-4,-2,-5,-3,-3
28515912143,-2,0,8,-2,-4,-6,-7,-4
28515912143,1,0,-56,-2,-1,3,0,0
28515926357,0,-1,4,-1,0,4,0,0
28515926357,-3,-1,27,-2,-4,-6,-3,-3
28515933240,-1,-2,-25,-1,1,3,5,1
28515933240,-1,-2,1,1,-2,1,0,-3
28515940653,-1,-3,2,-4,-5,-9,-3,-4
28515940653,-1,-2,-39,-2,-2,1,-1,-1
28515955691,-1,-2,-33,-3,-1,1,-1,0
28515955691,-1,-1,3,-3,-2,-2,-1,0
28515963205,-2,-2,1,-3,-3,-6,-3,-4
28515963205,-1,-3,18,-1,1,3,0,-2
28515978198,0,-3,-5,-2,-1,1,0,-3
28515978198,-1,-2,-20,-2,-3,-4,-3,-3
28515986423,0,0,-54,-4,0,4,1,0
28515986423,-2,0,-49,-2,0,2,1,-1
28515993220,-2,1,-37,-2,-4,-10,0,-3
28515993220,-2,-3,-6,-4,-1,2,-1,-4
28516000719,0,-2,-52,0,1,0,-4,-3
28516000719,0,-1,-46,-3,-3,-4,-5,-1
28516015775,-2,-2,2,-3,-3,-4,-5,-2
28516015775,-1,0,-39,-1,0,2,1,-1
28516023252,1,2,10,-2,0,1,0,-2
28516023252,-2,-3,32,-5,-4,-7,-3,-2
28516038213,-2,0,3,0,0,1,2,1
28516038213,0,-2,-13,0,-1,1,1,2
28516046397,-1,-2,-24,-4,-4,-7,-1,-3
28516046397,-1,0,-35,1,3,6,2,0
28516053159,1,1,-45,-1,1,3,1,-2
28516053159,-1,-2,-6,-2,-2,-4,-6,-2
28516060687,-2,-2,20,-1,-1,-4,-3,0
28516060687,-2,0,18,-1,-1,1,-1,0
28516075668,-1,0,-5,1,1,1,-1,-3
28516075668,-2,-2,18,-2,-2,-6,-2,-1
28516083179,0,-1,-50,-2,1,4,-3,-1
28516083179,-1,0,-51,0,0,3,-1,-1
28516098184,-2,-3,25,0,-5,-8,-6,-2
28516098184,-2,-1,-5,-1,1,5,0,-2
28516106400,-1,0,-25,0,1,0,-1,-1
28516106400,-1,-2,-32,-4,-2,-8,-1,0
28516113203,-3,-4,-15,-4,-2,-2,-3,-2
28516113203,1,-1,-57,-4,0,2,0,-2
28516128953,1,-1,21,-2,-1,0,2,0
28516128953,-2,-3,12,-3,-3,-8,-1,-4
28516143833,-1,-1,-26,0,0,5,4,-2
28516143833,-1,0,-11,0,-1,2,3,-1
28516144655,-3,-2,-23,-2,-4,-8,-1,-2
28516144655,-1,-2,-31,1,0,7,0,1
28516158290,-1,-2,-10,-3,0,-1,-2,-2
28516158290,0,0,0,-3,-4,-9,-3,-3
28516166444,-3,-2,21,-3,-3,-3,-3,-2
28516166444,2,-1,67,0,0,0,-3,-2
28516173206,-1,-1,-8,-2,-2,1,-2,-2
28516173206,-4,-2,-10,-4,-4,-10,-4,-1
28516180717,-2,-2,-20,0,0,2,2,0
28516180717,0,0,-52,0,0,1,-1,1
28516195721,-1,-3,-36,-5,-3,-9,-5,-3
28516195721,-1,-1,-3,-1,3,5,4,0
28516203241,0,0,-22,1,-1,3,1,0
28516203241,-2,-1,-40,-2,-4,-7,-3,-3
28516218231,-3,-2,-15,-3,-1,-3,-3,0
28516218231,-1,1,-53,0,0,4,-4,-2
28516226432,1,0,7,-2,-1,1,-3,-2
28516226432,-4,-2,3,-4,-2,-9,-3,-1
28516233168,1,-1,-32,-4,0,3,0,-2
28516233168,0,0,-8,-1,0,3,2,0
28516248896,-1,1,33,1,-3,-6,-4,-2
28516248896,-1,-1,-19,1,-1,1,1,-2
28516255729,-1,-1,-35,-2,0,3,3,1
28516255729,-2,-2,12,-3,-4,-10,-8,-3
28516263262,-2,-2,2,-3,-1,-2,-4,-2
28516263262,-1,-1,4,-2,1,3,-3,-2
28516278164,-1,0,4,-2,-3,1,-1,-3
28516278164,-1,-2,-2,-2,-3,-7,-2,-2
28516286434,0,-2,-99,-2,-1,2,0,-1
28516286434,-1,-1,-45,-1,-1,0,2,-4
28516293182,-2,-2,-21,-3,-3,-8,-2,-1
28516293182,-2,-3,-25,-4,-2,0,1,-1
28516308899,0,-3,-9,1,0,-1,-2,-2
28516308899,-4,-1,-25,-3,-4,-9,-2,-1
28516315703,-2,-1,-17,-3,-2,0,-2,-1
28516315703,1,-1,11,-1,1,3,0,1
28516323206,-1,0,12,-2,0,0,2,-2
28516323206,-2,-3,-8,-3,-3,-4,-4,-2
28516338215,0,-2,-6,-3,1,2,-1,-3
28516338215,-1,0,-14,0,0,0,1,-1
28516346431,-3,-2,-39,-3,-4,-9,-3,-1
28516346431,-2,-1,-15,0,1,3,-2,-2
28516353250,-1,-2,-31,0,1,1,-1,-2
28516353250,-1,-3,-17,-4,-2,-8,-3,-2
28516369092,-2,-3,16,-1,0,1,-3,-2
28516369092,-1,-1,7,-1,-1,2,-1,-2
28516375710,-1,0,-9,-1,-1,-5,-2,0
28516375710,-3,-3,-6,-3,-3,-6,-1,-2
28516383381,-2,-1,-86,-1,-1,0,1,-1
28516383381,0,-1,-45,-2,-1,1,-1,-1
28516398227,-2,-3,-2,-4,-5,-8,-8,-3
28516398227,-1,-2,-8,-1,2,6,-1,0
28516406453,0,0,4,-1,2,3,1,-1
28516406453,-1,-1,-21,-3,-4,-6,-1,-1
28516413416,-2,-1,-14,-1,-2,2,-1,0
28516413416,1,-2,-65,0,-1,1,-2,-1
28516428959,-1,0,17,-3,-4,-5,-2,-1
28516428959,-2,-3,-12,-4,-3,-7,-3,-3
28516435792,-1,-3,-73,-3,-1,2,4,0
28516435792,2,-1,-9,-1,1,4,5,1
28516443366,-2,-3,-18,-3,-4,-7,-4,-1
28516443366,-1,-2,-28,-1,-1,9,0,0
28516458250,1,0,-13,-1,1,2,0,1
28516458250,-1,-1,3,-2,-4,-8,-4,-2
28516466602,-2,-2,10,0,0,2,-2,-2
28516466602,0,-2,23,-3,1,1,2,-1
28516473282,1,0,3,-2,0,-5,5,2
28516473282,-3,-1,-9,-3,-4,-6,-1,-1
28516488958,-1,0,-63,-3,-1,1,-2,-2
28516488958,0,-1,-40,-1,0,2,-2,1
28516495953,-3,-1,19,0,-2,-6,-4,-1
28516495953,-2,-2,-8,0,2,7,0,-1
28516503329,0,-1,5,2,1,0,0,0
28516503329,0,-2,-24,-3,-2,-9,-3,-1
28516518411,-1,0,-24,-2,-1,1,5,0
28516518411,-1,-2,-50,0,-1,0,0,0
28516526551,-1,-2,6,-4,-4,-6,0,-1
28516526551,-2,-1,-24,-3,-3,-5,0,-2
28516533385,0,0,-11,3,1,3,-1,-4
28516533385,0,1,-13,-1,0,2,-3,0
28516549073,-2,-2,-5,-3,-4,-5,-7,-2
28516549073,0,-1,-17,2,1,4,-4,-1
28516555750,-2,-3,-32,-1,0,2,-4,-5
28516555750,-1,-3,7,-4,-7,-12,-5,-1
28516563318,-2,-2,9,-3,-1,0,-2,-1
28516563318,-1,-2,-24,-4,-1,3,-3,0
28516578380,-2,-2,-8,-3,-3,-5,-6,-1
28516578380,-1,-2,-5,-3,-3,-3,-4,-2
28516586448,-1,-2,53,-1,-1,4,0,-1
28516586448,1,0,-23,0,2,2,3,1
28516600990,-3,0,19,1,-2,-6,-2,0
28516600990,0,-1,-42,0,2,5,3,-2
28516609068,1,0,77,-1,1,3,0,0
28516609068,-2,0,1,-5,-3,-7,1,-1
28516623874,-2,-5,-13,-3,-3,3,0,0
28516623874,0,1,-35,0,1,4,2,0
28516624731,0,-1,-18,-3,1,-4,0,-3
28516624731,-2,-4,-20,0,-3,-6,-3,-1
28516638461,0,-1,-51,-4,-1,1,1,0
28516638461,-1,0,0,-1,2,1,1,-1
28516646461,-1,-3,55,-6,-4,-7,-2,-2
28516646461,-1,1,-48,0,-1,4,-3,-2
28516661024,2,2,-19,0,0,0,-2,-2
28516661024,-3,-3,1,-2,-4,-9,-5,-3
28516669156,-2,-3,-41,1,-1,4,0,-2
28516669156,-1,-2,-43,2,0,-1,1,0
28516684015,0,-1,-24,-2,-1,-3,0,-1
28516684015,-3,-4,-1,-3,-2,-4,-2,-2
28516684748,0,0,45,1,-2,0,3,0
28516684748,1,0,-5,-1,0,-1,2,-1
28516698423,-2,-2,58,-2,-5,-5,-3,-4
28516698423,-1,-1,-23,-1,0,0,3,1
28516705729,-1,-2,-22,-5,2,3,2,0
28516705729,-2,-1,0,-2,-3,-7,-1,-4
28516720788,-1,-1,-8,0,1,6,3,1
28516720788,-1,1,-59,1,0,1,1,0
28516729013,-1,0,-50,-3,-2,-5,-7,-2
28516729013,-2,-1,-2,0,-2,-3,-6,-1
28516744082,-2,-1,-17,0,-1,-1,1,0
28516744082,-1,0,5,-1,-3,-1,-3,0
28516744703,-2,-1,12,-3,-3,-5,-7,-2
28516744703,-1,-3,-58,-3,1,1,0,0
28516758233,-1,1,-30,1,1,1,0,0
28516758233,-3,-2,4,-3,-3,-5,-6,-2
28516765874,-2,0,-40,3,1,7,0,1
28516765874,1,-2,-33,0,-2,1,-2,-2
28516780726,-1,-2,-18,-3,-3,-7,-4,-2
28516780726,-1,-2,-1,-1,-1,-1,-4,-2
28516796409,0,-2,52,1,-1,-3,-1,-1
28516796409,-1,-2,9,-1,-2,-2,-1,-1
28516804049,-3,-2,-36,-2,-6,-6,-7,-3
28516804049,0,-2,28,-1,1,2,3,0
28516804635,-1,-1,106,-2,-1,0,2,0
28516804635,-4,-3,-51,-4,-4,-5,-3,-5
28516819685,3,3,-84,4,7,15,6,-1
28516819685,-1,-1,-50,-5,-1,-1,0,0
28516826597,-4,-5,40,-6,-6,-12,-6,-4
28516826597,-1,1,-83,1,2,3,2,0
28516840748,-1,-3,-21,-5,-1,-1,0,-1
28516840748,-1,-3,-68,-3,-3,-1,0,0
28516849118,-1,-1,-22,-3,-2,-3,-1,-1
28516849118,-1,-3,69,-2,-1,3,1,-1
28516863944,0,-3,-33,0,1,1,-5,-2
28516863944,-1,2,-32,-1,-2,-4,-1,-1
28516864693,1,-3,-66,3,1,5,1,-1
28516864693,-1,0,-41,1,-1,1,1,1
28516878234,-2,-1,-34,-4,-4,-10,-5,-2
28516878234,-2,-4,41,-1,-1,-3,-5,-3
28516886443,-1,-1,-4,1,1,4,1,0
28516886443,1,0,-19,-2,12,3,-1,-1
28516900753,-2,-2,63,-3,2,-7,-4,-1
28516900753,0,-1,-18,0,4,4,-1,-1
28516908915,1,-1,-69,-3,-1,4,-1,0
28516908915,-2,-3,31,-5,-8,-8,-6,-4
28516923870,-2,-2,-11,-3,-5,1,0,1
28516923870,-1,-2,-47,-1,-2,2,-2,-2
28516924678,-2,1,-69,-3,-7,-8,-3,-2
28516924678,-3,-2,17,-2,-6,-3,1,-2
28516938246,-1,-1,-28,-2,-2,1,2,1
28516938246,0,0,3,0,-3,1,2,1
28516946418,-2,-4,-7,-4,-3,-8,-2,1
28516946418,-3,-3,-80,-3,-1,3,0,-1
28516960849,1,3,-15,1,0,4,0,-1
28516960849,0,1,6,-3,-5,-7,-3,-1
28516968932,-1,0,-41,2,1,3,-3,0
28516968932,0,0,-25,0,-2,3,-2,2
28516983893,-3,-2,-31,-3,-3,-6,-4,-1
28516983893,-1,-3,10,-1,0,-2,-1,0
28516984680,1,0,59,1,2,2,4,2
28516984680,1,1,10,0,-1,-2,-1,0
28516998270,-2,-5,53,-3,-6,-7,-5,-3
28516998270,-1,0,18,0,2,3,2,-1
28517006434,-1,0,-35,-5,0,2,1,-2
28517006434,0,-1,-8,-3,-3,-7,-3,-3
28517020727,-1,0,17,0,1,6,2,-1
28517020727,-1,0,-52,1,1,3,-1,-1
28517028985,-1,0,-19,-1,-1,-4,-2,-1
28517028985,-2,-2,28,0,-2,0,1,0
28517043884,-2,-4,-61,1,0,1,0,-1
28517043884,-3,0,6,-3,-2,-5,0,-2
28517044663,-4,-2,-33,-5,-3,-7,-3,-2
28517044663,-1,-2,-78,-1,-1,-1,0,1
28517058230,-2,-2,-13,0,0,2,4,-2
28517058230,-3,-2,33,-2,-4,-7,-2,-2
28517066470,-2,-3,-25,5,2,6,3,-1
28517066470,-2,-2,-12,1,-2,2,-2,-1
28517080920,-1,-1,-9,-4,-4,-9,-5,-2
28517080920,-1,-3,-1,-1,-1,2,1,-1
28517088916,-1,-1,60,0,-1,3,-2,-2
28517088916,-1,0,24,-1,-2,-4,-1,0
28517104099,-3,-3,27,-2,-3,-7,-2,-3
28517104099,0,-2,-46,-3,-1,2,0,-1
28517104673,0,0,-23,-2,1,5,5,1
28517104673,-3,-1,-13,-3,-5,-8,-1,-2
28517118338,0,-1,-73,-2,2,6,3,1
28517118338,0,0,-44,1,1,2,1,1
28517126620,-3,-2,-7,-1,-5,-10,-5,-2
28517126620,-2,-2,15,-2,-1,0,-2,-2
28517140789,-1,0,-35,-1,0,1,-3,-2
28517140789,-1,-3,8,-2,-3,-6,-4,0
28517156409,-2,-3,-60,-3,-3,-5,-2,-1
28517156409,-1,-1,-28,1,1,4,1,0
28517163909,0,-3,-3,1,1,2,-3,-1
28517163909,-2,-2,5,-2,-4,-5,-4,-1
28517164735,-1,-1,-8,3,3,5,0,-1
28517164735,0,-2,-27,-2,0,1,-3,0
28517178286,-1,-1,-43,-4,-4,-9,-5,-2
28517178286,-3,-1,1,-1,-1,0,0,0
28517186703,-1,-1,53,-3,-2,0,-1,-1
28517186703,-1,0,9,-4,-2,-4,-5,-3
28517200814,-3,-4,30,-3,-3,-6,-2,-3
28517200814,-1,0,-48,-2,0,2,-2,-2
28517208967,1,-2,-64,-5,1,2,0,-1
28517208967,-2,-4,24,0,-3,-5,-1,-4
28517223296,-1,-1,-35,-1,-2,6,1,2
28517223296,0,-3,-35,0,-1,2,-6,-2
28517231595,-2,-4,35,-2,-5,-11,-7,-3
28517231595,-2,-2,2,0,-1,1,0,0
28517238231,-1,-2,-45,-2,-2,0,3,1
28517238231,-1,-1,17,-2,-2,-6,-1,-1
28517246527,-3,-3,-68,-2,-5,-5,-4,-1
28517246527,-2,-3,-87,0,0,2,0,0
28517260851,-1,1,10,0,0,1,-1,0
28517260851,-2,0,3,-2,-4,-6,-2,-2
28517268951,-1,0,3,3,1,4,0,0
28517268951,0,-2,-24,-2,-1,2,0,-2
28517283333,-2,-3,-37,-3,-4,-10,-3,-3
28517283333,-1,-2,3,0,0,4,-2,-2
28517291512,-1,-2,58,-5,-1,0,1,-1
28517291512,1,-1,15,-2,-3,-4,-1,-1
28517298447,-2,-3,29,-3,-2,-4,-1,-1
28517298447,0,-1,16,-4,0,2,1,-1
28517306410,-1,0,-65,-3,0,0,2,-1
28517306410,-3,-4,-36,-3,-5,-8,-2,-2
28517320799,-2,0,-11,-3,-1,2,0,1
28517320799,-2,-2,-42,0,2,2,3,2
28517328949,-4,-3,25,-2,-4,-9,-6,-2
28517328949,-1,-2,19,0,1,6,2,-1
28517343422,1,1,-37,1,0,2,1,1
28517343422,1,1,-5,-5,-3,-3,-1,0
28517351684,-2,-1,-74,-1,-2,-2,-2,1
28517351684,-2,0,-66,-1,0,2,-1,-1
28517367291,1,-1,-1,-1,0,1,0,-2
28517367291,-2,-2,12,-1,-3,-8,-1,-1
28517367969,0,0,22,4,1,2,2,1
28517367969,0,-1,-15,-1,1,4,0,0
28517380769,-1,0,37,-3,-2,-9,-1,-1
28517380769,-1,-3,3,2,2,7,2,-1
28517388930,1,1,53,-2,0,4,3,-2
28517388930,1,0,21,-4,-3,-8,-4,1
28517403384,-3,-3,18,0,-2,-4,-1,-3
28517403384,-3,-3,-62,-2,0,0,-2,-2
28517411437,-1,1,-50,-4,-2,0,0,0
28517411437,-1,-3,-1,-2,-3,-9,-1,-1
28517427304,0,-1,-81,0,1,5,1,0
28517427304,-1,-1,-32,0,1,3,1,-1
28517427923,-2,-1,36,-1,-4,-8,-3,-3
28517427923,0,-1,13,0,2,4,-1,-1
28517441066,-1,0,-27,-2,0,3,-2,-1
28517441066,-2,-2,7,-5,-3,-9,-5,-2
28517449206,-1,-4,-88,-3,-3,-2,-2,-2
28517449206,0,-1,-56,1,0,2,1,1
28517463300,0,-2,1,0,0,0,-2,-1
28517463300,-3,-2,-5,-1,-3,-7,-3,-1
28517471447,-3,-3,31,3,2,4,1,0
28517471447,0,0,-18,-2,0,0,2,-1
28517487145,-3,-1,-34,-3,-3,-8,-2,-1
28517487145,0,-3,4,1,-1,4,2,-1
28517487858,1,-1,29,-3,0,3,-2,0
28517487858,-2,-2,13,-3,-4,-9,-5,-2
28517500930,-3,-2,24,0,-1,-5,-2,-2
28517500930,-1,0,-76,-2,-2,2,-2,0
28517509153,0,-1,-94,-1,1,-1,0,-1
28517509153,-4,-3,11,0,-3,-8,-3,-4
28517532146,-2,-1,-61,-3,1,3,2,-2
28517532146,0,-1,-21,1,0,2,1,-1
28517532837,-2,-3,50,-4,-5,-9,-5,-2
28517532837,0,-1,17,-1,1,5,-3,0
28517547270,-1,0,-23,2,0,2,-4,-1
28517547270,-2,-3,6,-4,-5,-8,-5,-2
28517547866,-1,-2,-92,-3,1,1,1,0
28517547866,0,-1,-61,0,1,2,2,0
28517561119,-1,-1,5,-1,-2,0,-1,-2
28517561119,-3,-2,0,-1,-3,-7,-3,0
28517569179,-2,1,48,3,0,1,2,0
28517569179,-1,0,-23,-2,1,1,3,-1
28517583229,-2,-1,-21,-2,-2,-8,-5,-2
28517583229,-2,-1,9,-1,-1,2,2,-1
28517591449,-1,-1,23,-5,-1,0,-2,-1
28517591449,-1,0,15,-3,-4,-9,-3,-1
28517614642,-2,-3,24,-2,-1,0,-2,-1
28517614642,-1,-1,-8,-3,-1,3,0,-2
28517615403,-1,-1,-87,-2,-1,0,-1,-1
28517615403,-3,-3,-26,-2,-4,-5,0,-3
28517620740,-1,-1,-46,-4,-1,2,-1,0
28517620740,1,0,-21,0,0,-1,-2,-2
28517628923,-3,-2,45,-4,-3,-9,-2,-2
28517628923,-1,-2,16,0,0,6,2,-2
28517643252,-1,-2,-13,0,-1,0,6,-2
28517643252,-1,-4,-20,-2,-1,-10,-1,-2
28517651462,-2,-2,-87,-2,-1,1,-2,-2
28517651462,0,-1,-50,0,1,2,-5,1
28517665807,-1,-1,-6,-2,-2,-2,-5,0
28517665807,-2,-2,14,-2,-3,-5,-6,-3
28517674758,-1,-1,68,3,0,1,0,0
28517674758,-2,-1,-12,-1,-1,2,0,-1
28517680874,-2,-4,9,-3,-5,-10,-3,-3
28517680874,-1,1,27,1,2,7,1,1
28517689726,0,-1,-9,-3,0,2,-2,0
28517689726,-2,-3,-5,-5,-5,-9,-4,0
28517703261,-1,-2,24,1,0,1,1,1
28517703261,-1,0,-81,-2,0,3,1,1
28517712296,1,-1,-89,-5,-3,-4,-2,-1
28517712296,0,0,-6,0,-2,-5,-4,-1
28517725757,0,1,-87,-2,-1,3,1,1
28517725757,1,0,-15,-1,-1,3,1,0
28517734718,-1,0,36,-3,-5,-8,-3,-2
28517734718,1,-1,-42,-2,1,7,3,0
28517740787,1,1,-13,-1,2,2,2,-2
28517740787,-1,-1,7,-2,-5,-9,-2,-2
28517749714,-2,-3,-88,0,-1,1,0,0
28517749714,1,-2,-34,0,0,1,-1,-4
28517763263,0,-2,0,-3,-3,-5,-2,-1
28517763263,-1,-1,2,-1,-4,-4,-1,-2
28517779788,-1,-2,65,1,0,3,0,-1
28517779788,-1,-2,-3,-1,1,3,-1,-2
28517785749,-2,-2,-2,0,-4,-8,-5,-2
28517785749,-1,-1,-16,0,2,6,1,0
28517794831,1,0,53,0,-1,1,-1,-1
28517794831,-4,-2,1,-3,-4,-6,-5,-1
28517800807,-1,-1,20,-2,-1,1,-2,-3
28517800807,-1,0,-50,0,1,2,-2,0
28517809737,-2,-2,-95,-2,-2,-6,-2,-2
28517809737,-1,-4,14,-3,-4,-5,-2,-2
28517823247,-1,-1,-49,-1,-1,2,-1,-1
28517823247,0,1,-14,1,1,2,-1,0
28517839810,-2,-1,4,-5,-3,-6,-3,-1
28517839810,-2,-1,-8,-1,-1,4,0,2
28517845770,-1,-2,-18,-1,-1,1,1,-2
28517845770,-2,-3,-6,-3,-4,-10,-3,-3
28517854814,-3,-1,-75,2,-1,0,-2,-1
28517854814,0,-2,-42,1,-2,-1,1,0
28517860882,-1,-2,2,-4,-3,-4,-3,-1
28517860882,-2,-3,8,-2,-3,-3,-2,-2
28517869790,-2,-1,69,0,1,2,-1,0
28517869790,-1,-3,-10,-4,-2,-5,-1,-1
28517892223,-2,-1,-101,0,-1,-2,-3,-2
28517892223,2,5,-66,3,3,9,3,1
28517893697,-1,-4,90,-3,-3,-3,0,-2
28517893697,-8,-9,-30,-9,-6,-12,-5,-5
28517905778,1,4,-128,5,6,11,4,0
28517905778,-1,-1,-4,-6,-3,0,-3,0
28517914766,-2,-8,76,-5,-5,-10,-4,-2
28517914766,0,2,-128,2,2,3,-1,-2
28517921018,1,-1,-50,-2,-2,-1,1,0
28517921018,-2,-6,-18,-5,-4,-7,1,0
28517929748,-4,-1,-39,0,-2,-3,-2,-3
28517929748,2,2,-65,1,4,6,2,2
28517943465,-1,-2,7,-4,-1,-1,-1,2
28517943465,-5,-6,-56,-5,-6,-9,-4,-4
28517952349,3,3,-58,2,3,11,2,-1
28517952349,1,1,-30,-1,0,0,-1,-1
28517965823,-4,-3,-35,-5,-6,-9,-4,-3
28517965823,-1,-3,-34,1,-1,-1,-5,-1
28517974753,-1,-2,-8,-2,0,3,-1,-1
28517974753,0,1,-33,0,-1,3,-2,-1
28517981005,-2,-2,48,-2,-5,-10,-1,-1
28517981005,-3,-6,92,-1,-1,-1,0,-2
28517989795,1,1,-62,-1,3,6,1,0
28517989795,-2,-1,7,-3,-3,-6,-1,-1
28518003325,-5,-6,102,-3,-1,3,0,-1
28518003325,-2,0,-102,1,1,4,2,0
28518012335,0,2,-128,-1,-2,-5,-2,0
28518012335,-4,-5,79,-4,-6,-10,-3,-1
28518025804,-2,-2,-86,-1,-1,5,-1,-2
28518025804,2,2,-41,1,3,3,1,-1
28518034764,-2,-3,-9,-7,-5,-13,-4,0
28518034764,-3,-4,-48,-6,-1,4,0,-2
28518040814,0,0,-17,2,1,7,0,0
28518040814,-2,2,32,-2,-4,-7,-5,-1
28518049759,-2,-5,-70,2,-1,5,-3,-1
28518049759,0,-1,-30,1,1,4,1,-1
28518063356,-1,1,-4,-3,0,-8,-1,0
28518063356,-2,-3,11,-3,-3,-5,-2,-1
28518072315,-2,-2,50,0,-2,2,0,-1
28518072315,0,1,2,0,0,2,0,0
28518085767,-3,-2,33,-1,-3,-7,-2,-2
28518085767,0,-3,-19,-3,0,3,-1,1
28518094766,0,0,28,0,0,4,-1,-1
28518094766,0,-1,9,-1,-3,-7,-3,-2
28518100799,-1,-3,30,-2,-1,5,0,1
28518100799,-1,-1,-46,-1,1,3,0,0
28518121568,-1,-1,-103,-3,-2,-10,-1,-1
28518121568,-4,-2,19,-1,-3,-3,0,1
28518123263,-1,-2,-18,-2,0,2,-1,1
28518123263,0,0,-12,0,0,1,-1,0
28518132310,-4,-3,-22,-5,-4,-8,-2,-2
28518132310,1,0,12,3,2,5,0,-1
28518145767,-1,0,-24,1,0,2,1,0
28518145767,-3,-3,-62,-4,-3,-6,-2,-4
28518154784,0,0,-60,4,3,7,4,-1
28518154784,-2,-4,-46,-1,-1,1,2,0
28518160755,-3,-3,-36,-5,-6,-11,-4,-3
28518160755,0,0,-11,4,0,2,0,-2
28518169779,-1,-1,78,0,-2,1,0,1
28518169779,-2,-2,-11,-2,-1,-2,-3,-1
28518183278,-1,-3,-15,1,-3,-5,-5,-4
28518183278,0,-1,28,-3,-2,2,-2,-1
28518192305,0,0,-15,-5,0,2,-2,-2
28518192305,-1,-2,86,-1,-4,-8,-5,-3
28518205748,-1,-2,19,-2,0,1,1,-1
28518205748,-1,-1,-60,-2,1,2,1,0
28518214772,-3,-1,-35,-2,-4,-9,-2,-1
28518214772,-2,-2,1,-2,-1,-1,0,-2
28518220749,0,-1,-77,-1,-1,4,1,-1
28518220749,0,0,10,1,0,1,1,-1
28518229757,-3,-5,-15,-7,-5,-9,-4,-2
28518229757,-2,-1,-121,-1,0,2,2,-1
28518243250,0,0,0,1,2,2,1,-1
28518243250,-2,-2,32,-2,-5,-10,-2,-2
28518252295,-2,-2,-61,3,0,5,-2,-1
28518252295,0,-3,-34,1,0,3,-2,-1
28518265746,0,-1,-5,-3,-3,-7,-7,-2
28518265746,-4,-4,5,-2,-1,-3,-2,0
28518274730,-1,-2,51,-1,1,4,-1,0
28518274730,-1,0,12,-1,-2,-3,-2,-2
28518281085,-1,-2,43,-3,-4,-7,1,1
28518281085,-1,-2,42,-2,0,3,1,1
28518290165,2,0,-13,-3,1,2,2,0
28518290165,-3,-4,-8,-4,-5,-8,-3,-4
28518303351,-2,-2,21,0,4,6,3,1
28518303351,0,0,-60,1,1,1,-1,-1
28518312361,-1,-2,-20,0,-5,-8,-2,-1
28518312361,-2,-4,24,-1,-1,1,-2,0
28518326110,-1,-1,-57,0,1,0,-2,0
28518326110,0,0,-8,0,-1,-5,0,-1
28518334745,-2,-2,-45,-3,-4,-7,-3,-3
28518334745,0,0,-95,-1,-1,1,0,-2
28518349698,1,0,-18,0,0,3,0,1
28518349698,-2,-1,54,-3,-3,-10,-2,-1
28518351336,-2,-2,-30,6,3,8,0,0
28518351336,-2,-1,-18,-2,0,0,2,0
28518363375,-1,-2,23,-4,-3,-7,-2,0
28518363375,-2,-4,-12,-1,-1,0,0,-1
28518372381,0,0,48,-2,1,2,2,-1
28518372381,1,-2,22,-2,-2,-3,1,0
28518385783,-3,-3,31,-1,-4,-6,-2,-2
28518385783,0,-2,-64,-1,-1,3,3,1
28518394794,-1,-2,-28,-6,0,2,0,0
28518394794,-1,-2,-21,-4,-4,-6,-4,-1
28518409640,-1,0,-28,-2,0,7,1,-1
28518409640,0,0,-46,-1,0,2,-2,-3
28518411318,-2,-2,-7,0,-3,-10,-6,-2
28518411318,-1,-1,22,0,-1,2,-2,-2
28518423374,-1,-3,-21,-1,0,-1,0,-3
28518423374,-2,-3,2,-5,-6,-8,-2,-2
28518432288,-2,1,-62,-1,1,1,0,-1
28518432288,-2,-2,-40,-2,0,3,0,2
28518445809,-1,-2,-24,-2,-2,-2,-2,0
28518445809,-3,-1,-116,-1,-2,-4,-2,-1
28518454758,1,-2,-16,3,1,6,5,0
28518454758,-1,-3,-45,-4,-2,-1,0,0
28518469630,-2,-2,-66,-5,-5,-10,-5,-3
28518469630,-2,-1,16,0,0,3,-1,0
28518471306,-1,-2,80,-3,-1,0,2,0
28518471306,-1,0,-3,-2,-3,-5,-5,-3
28518492151,-2,0,8,2,0,0,-4,-2
28518492151,0,-1,50,-1,1,1,-1,1
28518493777,1,-1,37,-4,-2,-2,0,-1
28518493777,-3,-2,-55,-2,0,-4,-1,-3
28518505756,0,0,-29,1,1,6,6,2
28518505756,0,0,-65,-4,-1,1,0,0
28518514808,-2,-4,47,-6,-5,-11,-6,-4
28518514808,-1,0,-56,3,2,5,-1,-1
28518529796,-1,-2,-55,-5,0,-2,-2,-1
28518529796,1,1,-36,-1,-1,1,2,-1
28518531293,-4,-4,-46,-4,-7,-10,-2,-1
28518531293,-2,-1,-86,-1,1,3,0,-3
28518543362,-1,0,-29,0,2,5,1,-1
28518543362,-2,-3,90,-3,-4,-10,-4,-2
28518552449,-2,-2,-57,3,0,3,-2,-1
28518552449,-1,-1,5,1,0,5,0,0
28518565860,-2,-2,7,-2,-3,-9,-2,-1
28518565860,-4,-3,24,-2,-2,3,-2,-1
28518574746,-1,0,-21,-2,-1,3,-2,-1
28518574746,0,1,25,-1,-2,-5,-2,1
28518589627,-3,-4,63,-3,-5,-7,-5,-2
28518589627,-1,-2,-16,-5,0,3,-3,0
28518591222,-2,1,-74,-2,2,1,-1,-1
28518591222,-1,-2,10,-4,-4,-8,-2,-2
28518603314,-1,0,57,0,-1,0,-1,-1
28518603314,-2,0,-53,1,3,5,-3,0
28518612320,-3,-3,23,-2,-5,-9,-4,-2
28518612320,-1,-2,44,-4,0,4,5,1
28518625758,-1,0,-66,2,1,5,3,-1
28518625758,-1,0,-14,-1,-2,-5,1,0
28518640795,-2,-3,-62,-3,-2,-6,-4,-2
28518640795,0,2,-74,2,2,5,2,2
28518649651,-1,0,-28,-3,-2,0,-4,1
28518649651,-3,-4,59,-2,-5,-10,-7,-3
28518651323,0,-1,4,4,1,6,2,0
28518651323,-1,1,4,-2,2,3,2,0
