timestamp,emg1,emg2,emg3,emg4,emg5,emg6,emg7,emg8
1533863710581384,-1,1,-2,18,2,-1,-2,0
1533863710581384,-2,-3,-5,-18,-3,-1,1,-2
1533863710582381,-4,-2,-3,17,2,-3,-1,-1
1533863710582381,-2,-3,-3,-7,-10,-1,-2,-1
1533863710586372,-2,-1,3,-3,-6,-2,-2,0
1533863710586372,0,3,0,8,-2,-2,-2,-1
1533863710587369,1,2,1,-10,4,0,1,1
1533863710587369,-3,-2,-1,4,1,-2,1,-1
1533863710592354,-2,-1,-5,7,13,-2,-2,-2
1533863710592354,-3,-2,-8,-10,-8,3,-1,-1
1533863710601330,1,-3,19,-3,2,3,2,1
1533863710601330,-1,1,5,4,3,1,-1,-1
1533863710607341,-1,-3,6,-8,-4,1,1,0
1533863710607341,0,-1,-2,10,2,-3,-4,-1
1533863710623272,0,-1,-7,-4,-3,-2,-2,-3
1533863710623272,1,2,-1,9,-2,-2,-5,-3
1533863710631252,0,5,-7,-18,-5,-2,0,0
1533863710631252,-3,-18,7,1,4,-1,3,2
1533863710661174,-3,-3,-10,-2,-5,-1,-2,-2
1533863710661174,0,1,40,5,3,1,1,1
1533863710663165,0,2,-3,-2,-9,-6,-1,-3
1533863710663165,3,6,0,2,2,0,-2,-1
1533863710668152,-1,-1,4,-8,3,-2,-3,-2
1533863710668152,-2,-3,-15,-2,5,-2,0,-3
1533863710710040,-3,-1,-5,-5,-12,-3,-2,-2
1533863710710040,-1,0,-28,-2,5,0,-2,-1
1533863710713032,-1,-1,4,3,2,-1,-1,1
1533863710713032,-2,0,0,3,1,0,-1,-1
1533863710714039,0,0,3,9,7,-1,0,0
1533863710714039,-2,-1,-2,-12,-11,-1,1,-2
1533863710715026,-4,0,-5,-6,-5,-5,-3,-2
1533863710715026,1,0,-3,-18,-7,0,0,0
1533863710720234,-1,-3,-13,-4,0,-1,-1,0
1533863710720234,0,1,10,5,-1,-1,0,0
1533863710728989,0,-2,-1,1,2,0,-1,-1
1533863710728989,0,-1,5,11,1,-1,-1,-1
1533863710742955,0,9,-3,-2,1,-3,-4,-3
1533863710742955,-3,-6,0,-12,0,-2,0,-2
1533863710749933,-1,-1,0,-1,-11,-1,2,0
1533863710749933,-4,-3,-45,-2,-3,-3,-3,-2
1533863710756914,-2,-2,22,1,-1,0,0,-1
1533863710756914,0,2,3,9,2,-2,-3,-1
1533863710779854,-1,1,-3,-1,0,0,-2,-2
1533863710779854,-1,0,-3,2,1,0,-1,-3
1533863710780851,0,-2,-3,-1,3,1,-2,-2
1533863710780851,0,-3,3,3,-5,-3,-3,-2
1533863710794816,-2,-3,-2,1,-9,-2,-1,0
1533863710794816,1,1,8,-2,0,0,0,-1
1533863710802796,-2,-4,-2,-1,1,-2,1,-1
1533863710802796,-2,-1,6,-6,-1,-3,-2,0
1533863710825749,0,-1,-2,-4,3,-1,-2,-2
1533863710825749,-1,0,3,1,8,2,-2,-2
1533863710826762,-1,-3,-5,-21,-22,-6,-1,0
1533863710826762,-1,-1,-6,6,2,6,2,-1
1533863710840694,0,-1,-21,-2,0,-2,-1,-3
1533863710840694,0,9,11,-2,-3,-3,-1,-2
1533863710840694,-1,-6,-1,6,7,0,0,-1
1533863710840694,-1,-1,-1,3,-3,-1,-1,-1
1533863710863635,0,-2,0,-4,0,-1,-1,-1
1533863710863635,0,0,4,-7,-5,-2,-3,-1
1533863710864627,-1,-5,-2,0,0,-2,-1,0
1533863710864627,-1,-2,-2,0,-3,3,-1,-2
1533863710877631,1,1,6,4,6,-2,2,0
1533863710877631,-2,-4,1,0,1,-2,0,1
1533863710878590,-3,0,-4,5,-12,-1,-2,-1
1533863710878590,-2,-1,-1,-7,-1,-4,-4,-1
1533863710900729,0,-1,-1,-3,7,-1,-2,-1
1533863710900729,0,-6,23,2,-2,-4,-2,0
1533863710900729,2,-1,0,-2,14,5,2,-1
1533863710900729,0,-1,1,-1,-3,0,-1,0
1533863710923503,-1,-1,3,6,1,0,0,0
1533863710923503,-2,-3,-7,0,1,-1,-1,-3
1533863710924468,-1,0,-1,-2,-1,-2,-2,0
1533863710924468,1,-2,5,-3,-1,0,1,-1
1533863710937432,-1,0,2,-4,-5,1,1,-1
1533863710937432,0,-2,-2,12,8,1,0,0
1533863710938430,0,-3,1,-28,-10,-3,-3,-1
1533863710938430,1,8,-43,6,-2,-4,-4,-1
1533863710960410,-2,-13,48,8,0,3,1,2
1533863710960410,-3,-2,-2,-2,-4,-1,0,-1
1533863710961370,-1,-1,-1,7,4,-3,-1,-1
1533863710961370,-2,-3,-7,-7,-4,-1,0,0
1533863710983309,0,3,-21,-6,-1,-3,-4,-4
1533863710983309,1,-1,1,5,2,4,-1,-1
1533863710984307,1,7,0,5,7,-1,0,0
1533863710984307,-3,-8,8,-9,-11,-3,2,0
1533863711006278,-3,-2,-15,-2,2,1,-1,0
1533863711006278,-3,-4,1,-2,-4,-3,0,0
1533863711007250,-2,1,-10,2,1,-1,-2,-3
1533863711007250,0,1,11,5,7,1,0,-2
1533863711020238,0,-1,-1,0,-3,-1,-2,-2
1533863711020238,-2,0,-8,-12,-1,-4,-3,-2
1533863711021210,1,-1,6,0,7,3,0,-1
1533863711021210,0,0,4,2,-3,-2,1,0
1533863711043152,0,-1,-1,-4,-3,-2,-3,-2
1533863711043152,-1,-2,-2,-4,-8,-2,0,-1
1533863711044146,-1,-3,-6,2,-2,-2,-1,0
1533863711044146,-2,-2,6,3,1,-2,-1,-3
1533863711058114,1,9,-16,-5,-2,-4,-3,0
1533863711058114,1,-10,-4,23,18,0,2,1
1533863711058114,-1,-5,33,-15,-20,-1,-1,1
1533863711058114,0,-1,-2,-8,4,1,0,-2
1533863711080051,-5,-5,2,4,1,0,2,-1
1533863711080051,-2,1,-11,-3,-12,-3,0,-3
1533863711081047,-2,-4,-12,9,3,-2,-1,-1
1533863711081047,1,-1,2,-5,0,-3,-1,0
1533863711103997,0,3,1,4,2,0,-2,-1
1533863711103997,-2,0,2,-11,-11,-2,-3,0
1533863711103997,-2,-2,-8,0,12,2,0,-2
1533863711103997,-2,-1,-1,-4,-12,-4,-4,-2
1533863711118148,0,-5,-6,-1,3,-2,-1,-1
1533863711118148,-2,1,0,2,-5,-1,-1,0
1533863711118148,1,5,-8,0,-6,-3,-4,-1
1533863711118148,0,-9,-34,4,3,1,-3,-1
1533863711139894,2,11,47,-4,0,-2,-2,0
1533863711139894,-3,-5,0,0,-4,-1,1,-1
1533863711140888,-2,-3,0,4,1,-2,-2,-3
1533863711140888,-6,-6,-3,-11,-7,-1,3,1
1533863711162829,-1,0,-16,-5,-2,0,-2,-2
1533863711162829,-2,1,1,-4,-1,-1,-2,-1
1533863711163826,1,0,-3,2,0,-2,-1,0
1533863711163826,0,5,5,-8,-4,-8,-4,-2
1533863711177789,-1,-4,-8,3,2,2,0,-2
1533863711177789,-2,-2,0,-4,5,1,0,-1
1533863711178786,-1,-3,-11,4,-9,-2,0,1
1533863711178786,1,0,10,1,-2,-3,-1,-2
1533863711208710,-1,-3,-3,-7,2,-1,-1,0
1533863711208710,0,-1,-8,14,1,-1,-1,-3
1533863711208710,-1,2,-4,-17,-6,-4,-2,-3
1533863711208710,2,-1,9,3,5,-1,-1,0
1533863711223798,-3,-4,-7,6,-3,0,1,-1
1533863711223798,2,3,-3,-3,2,-1,-1,0
1533863711224667,0,5,7,-3,-3,2,0,-4
1533863711224667,-3,-5,3,11,5,0,3,0
1533863711237637,-4,-8,-19,-18,-18,-4,-1,0
1533863711237637,-2,-2,2,-23,-9,0,-2,-1
1533863711238627,-1,-1,7,0,10,0,-1,-1
1533863711238627,0,2,-5,1,-5,-1,-4,-1
1533863711260762,2,-1,-6,15,12,1,-3,-1
1533863711260762,0,4,42,-21,-9,-5,-2,-1
1533863711260762,0,4,-19,-7,-4,-4,-2,-3
1533863711260762,0,-7,2,2,5,-2,0,2
1533863711283510,-3,-2,3,7,-2,-1,-1,-2
1533863711283510,-2,-1,-13,1,0,0,-1,1
1533863711284504,-1,-2,-1,5,1,1,0,0
1533863711284504,0,3,8,3,2,-2,0,0
1533863711297477,2,5,1,-5,-3,0,0,-1
1533863711297477,-1,-3,-12,-4,1,3,-2,-2
1533863711298466,-2,-6,-2,-1,-2,2,1,0
1533863711298466,-1,0,-5,-3,0,1,-1,-2
1533863711320407,0,6,-6,2,1,-2,-1,-3
1533863711320407,-3,-9,-32,1,2,0,1,0
1533863711321405,-1,-5,24,6,-2,-2,1,0
1533863711321405,-2,-6,-51,-4,-3,-7,-7,-5
1533863711343350,3,7,32,-4,-3,1,0,1
1533863711343350,-2,0,-8,-6,-4,-3,-1,-4
1533863711344344,-3,-3,-8,-1,-3,-1,-1,-1
1533863711344344,-2,1,-6,-5,-2,1,-1,0
1533863711357309,-1,-3,-8,10,-1,-4,-3,-2
1533863711357309,-1,1,1,0,2,0,-3,0
1533863711365287,-1,-2,-2,0,-1,0,-1,0
1533863711365287,0,4,18,1,12,3,-1,-2
1533863711380339,-2,-1,-3,9,-1,1,1,0
1533863711380339,0,-1,13,12,-10,-8,0,0
1533863711381337,-2,-3,1,-14,0,7,-1,-1
1533863711381337,-2,0,8,3,-6,-1,0,0
1533863711403278,-2,-14,-80,-18,1,-1,0,-2
1533863711403278,-1,1,20,11,8,1,0,0
1533863711404282,-1,-4,-27,-2,-3,-3,-1,-1
1533863711404282,0,2,3,-4,-1,-2,-4,-2
1533863711417242,-2,0,53,1,-1,-2,0,2
1533863711417242,-2,-1,-45,-8,0,-3,-2,-2
1533863711425219,0,1,45,12,8,3,3,1
1533863711425219,-2,1,2,-12,-1,1,1,0
1533863711440182,1,0,-4,11,2,-4,-2,-2
1533863711440182,-3,-2,-14,5,-7,0,-3,-2
1533863711441176,0,3,7,2,-3,-6,-3,-1
1533863711441176,1,-2,-3,4,0,-1,-2,-1
1533863711463118,0,0,13,-12,-1,-1,-1,-1
1533863711463118,2,1,12,2,5,-4,-1,-2
1533863711464128,-2,-1,-24,5,-2,-4,-2,-3
1533863711464128,1,8,11,0,-10,1,2,-1
1533863711477088,-5,-16,-11,0,-4,1,0,-1
1533863711477088,1,-1,6,13,-7,-4,-1,-1
1533863711485063,-1,3,-6,-24,4,2,1,-1
1533863711485063,-4,-5,-24,8,-4,-6,-4,-2
1533863711500020,-1,6,14,-4,8,0,0,-1
1533863711500020,-1,-6,1,-5,-3,2,1,-1
1533863711501017,0,-7,3,6,5,-2,-1,1
1533863711501017,1,-2,2,-11,-16,1,0,-1
1533863711522993,-2,1,-11,-9,0,-2,-3,-1
1533863711522993,-2,-2,4,1,1,-2,-2,-1
1533863711523969,-1,-1,-10,4,-4,-1,-2,-1
1533863711523969,-1,-5,5,-1,7,0,-1,-1
1533863711545937,0,-2,-6,-13,-6,-6,-4,-2
1533863711545937,1,6,27,-8,1,2,0,-2
1533863711546904,-2,-3,-4,13,2,0,0,0
1533863711546904,-2,-2,1,-8,-4,-2,0,-1
1533863711559894,-1,0,-34,2,-2,-1,-1,-2
1533863711559894,-2,6,13,-8,-1,-2,0,0
1533863711560874,-3,-6,-4,-3,1,-3,-4,-4
1533863711560874,-1,-7,-37,7,8,-1,-2,-1
1533863711584005,0,2,40,4,-4,-2,-3,-2
1533863711584005,0,7,-1,-10,-7,-1,-2,-1
1533863711584005,-2,-8,2,0,-4,-1,1,2
1533863711584005,-1,0,-2,5,0,1,2,0
1533863711596761,-2,-5,-10,-7,-2,0,-1,-1
1533863711596761,-1,-5,-13,18,8,1,-3,-2
1533863711604946,0,2,11,-15,-13,-1,-3,-2
1533863711604946,-1,-1,10,0,4,-1,-1,0
1533863711619798,1,-2,-12,-2,-1,-3,-1,-1
1533863711619798,2,1,24,6,12,0,2,0
1533863711620703,-2,0,-20,-1,-6,-3,-2,0
1533863711620703,-1,-3,14,-22,-11,-1,-3,-1
1533863711643638,-2,-2,-2,11,-4,0,-1,1
1533863711643638,-2,-5,-19,-12,1,-1,-2,-1
1533863711644632,1,5,-9,3,2,-1,-1,-1
1533863711644632,0,-13,49,11,4,0,3,1
1533863711656604,-1,0,18,-3,7,0,-2,-1
1533863711656604,-4,-6,-9,-5,-8,0,1,0
1533863711665576,-1,0,0,13,0,1,-1,-2
1533863711665576,0,7,-6,-19,-4,-3,-3,-2
1533863711688515,-4,-9,-10,-7,1,-3,-1,-1
1533863711688515,-3,-3,3,-9,-10,-4,-2,-2
1533863711689512,-1,3,-1,-8,-3,-3,-1,-2
1533863711689512,-2,2,-7,13,4,-1,-3,-2
1533863711702478,-1,0,2,0,-3,-1,0,0
1533863711702478,0,1,-10,-4,-8,2,0,-2
1533863711709459,-4,-5,5,-2,1,-2,-1,0
1533863711709459,-1,2,-1,1,1,0,1,-2
1533863711726417,-2,8,-4,0,-1,-1,0,-2
1533863711726417,-3,-7,-4,-3,-1,-2,-2,-1
1533863711727411,0,1,-1,2,1,-1,-1,0
1533863711727411,-2,3,0,-5,0,-1,-1,-2
1533863711748356,4,-1,21,3,2,-2,-1,-1
1533863711748356,-5,-10,-3,-4,-2,2,4,2
1533863711750350,-1,-1,33,8,2,-1,-3,-2
1533863711750350,-1,2,-9,-7,-1,0,-3,-2
1533863711762321,0,1,-4,-10,-6,-4,-3,-1
1533863711762321,2,2,2,5,5,-2,-3,-2
1533863711769303,0,-3,-7,-2,-4,-1,0,-2
1533863711769303,-2,-3,-62,1,3,-5,-3,-2
1533863711786257,1,3,41,5,-3,4,0,-2
1533863711786257,1,3,24,-1,0,-1,-2,-1
1533863711787251,-4,-3,-18,-6,-3,-3,1,-2
1533863711787251,-1,-3,-2,7,-9,-3,-1,-3
1533863711808209,-2,-4,-24,-6,-1,0,-2,-1
1533863711808209,0,-2,-16,-3,2,-1,-2,-3
1533863711810189,2,5,-16,-1,-3,-1,-2,-4
1533863711810189,1,8,35,10,6,1,2,1
1533863711822161,-3,-10,-11,0,3,3,1,2
1533863711822161,-4,-13,8,6,-4,-2,-2,0
1533863711831133,-4,-3,-10,-4,0,-1,-1,-1
1533863711831133,2,-3,-1,0,-1,-2,-1,-1
1533863711846093,2,4,-12,0,-4,0,-2,-2
1533863711846093,1,3,-17,0,2,-2,-2,-1
1533863711847091,0,-4,0,4,10,0,0,-1
1533863711847091,-3,-5,0,-3,-3,0,-3,-2
1533863711868038,-3,0,-1,-1,-16,-2,1,-1
1533863711868038,1,1,-1,-5,-11,-1,0,1
1533863711870039,0,1,5,-3,-2,-2,0,1
1533863711870039,-1,-2,7,4,3,0,-1,-3
1533863711881997,1,-2,-9,10,7,-1,-1,-2
1533863711881997,-3,1,-9,-10,-1,-2,-2,-2
1533863711890974,1,1,-3,3,-2,-4,-1,-1
1533863711890974,-1,-2,-5,-4,7,2,-2,-1
1533863711905933,-3,-1,-6,-23,-11,-2,0,-3
1533863711905933,1,-1,-2,3,1,-1,0,0
1533863711906932,-1,-4,6,4,-4,2,0,-1
1533863711906932,-3,-1,2,-17,-6,-3,-3,0
1533863711928882,-1,0,5,0,2,-2,-3,0
1533863711928882,1,5,-7,1,7,-1,-1,-2
1533863711929870,0,5,-11,-19,4,-2,-2,-3
1533863711929870,-4,-5,-13,-2,-16,-2,1,0
1533863711941837,-1,0,41,17,0,2,1,-1
1533863711941837,-2,2,-4,-7,-1,-1,-2,-1
1533863711950814,-1,-8,2,4,2,1,1,2
1533863711950814,0,-2,5,5,2,-2,-1,0
1533863711973908,-2,-1,-14,1,2,-3,-2,-3
1533863711973908,1,2,-2,-10,0,-4,-2,-2
1533863711974750,1,2,11,2,-5,-3,-3,-2
1533863711974750,-1,0,1,16,9,-1,0,0
1533863711988714,-4,-2,-14,-24,-7,2,1,1
1533863711988714,-3,-2,-35,1,-17,-4,0,-3
1533863711989711,-3,-4,0,2,-16,-1,-1,-1
1533863711989711,-1,-4,7,4,-4,-2,0,0
1533863712001803,0,2,-4,0,6,0,-1,-1
1533863712001803,-2,-3,-1,2,8,2,-2,-1
1533863712010857,-2,-2,-3,-12,-7,-3,-1,-2
1533863712010857,0,3,2,-2,1,1,-2,-2
1533863712026621,0,1,-2,9,0,-4,-4,-2
1533863712026621,2,0,4,-14,-2,0,-1,-1
1533863712027608,-3,-9,-1,8,-1,-1,2,0
1533863712027608,0,-2,21,16,11,3,1,0
1533863712048552,-2,-4,-21,-27,-5,-3,-2,0
1533863712048552,0,-6,13,15,2,-2,-2,-3
1533863712049549,0,4,-5,-1,2,1,-1,-2
1533863712049549,-1,0,-39,-13,-13,-2,1,-2
1533863712062533,1,-3,14,5,3,0,-2,-1
1533863712062533,2,11,4,7,-3,-2,-3,-1
1533863712071491,-3,-7,-13,-1,5,4,0,-1
1533863712071491,-3,-3,-3,-12,0,1,0,0
1533863712085658,0,-1,-8,10,3,-2,0,-2
1533863712085658,-2,0,3,2,4,-1,-2,2
1533863712087469,0,2,-3,-16,-10,-2,-4,-1
1533863712087469,0,1,7,6,4,0,-2,0
1533863712108392,-2,2,-10,2,-5,-3,-1,-2
1533863712108392,-2,-2,18,5,6,2,2,1
1533863712110391,0,5,28,-3,0,-3,0,1
1533863712110391,-3,-13,7,6,-2,2,-1,1
1533863712122355,0,-2,0,12,-1,-2,0,-1
1533863712122355,-1,-3,-3,-9,1,-1,-3,-2
1533863712131352,-2,-1,-12,-14,-6,1,-3,-2
1533863712131352,0,8,6,-9,-7,-7,-2,-2
1533863712146318,-2,-1,-1,0,4,3,-1,1
1533863712146318,-2,-5,-8,-1,-4,-3,1,0
1533863712147289,0,2,-15,-3,3,-2,-3,-3
1533863712147289,0,3,14,-3,2,0,0,-1
1533863712168232,-1,-1,-5,3,2,-1,0,-1
1533863712168232,-4,-2,1,-8,-9,-2,-4,-3
1533863712170228,-2,0,-6,-23,-5,-5,0,-3
1533863712170228,0,-2,-3,7,1,3,0,-2
1533863712182199,-1,-1,-17,-22,-6,-3,-2,-2
1533863712182199,-1,4,72,6,8,3,5,3
1533863712198217,-2,4,10,8,-1,-4,-1,-1
1533863712198217,-4,-6,-13,2,1,-2,1,0
1533863712206131,-3,-2,9,5,0,-1,-1,0
1533863712206131,0,-5,-27,-6,-3,-3,-3,-2
1533863712207132,0,-3,-4,6,-1,0,-1,0
1533863712207132,0,1,15,1,-3,-6,-2,-1
1533863712228072,1,7,-12,-2,2,3,-4,-3
1533863712228072,0,-10,-4,5,-6,-4,2,1
1533863712230079,0,-4,4,4,9,6,2,1
1533863712230079,-2,1,-16,-7,-4,-3,-3,-2
1533863712242241,-2,-8,1,-2,-5,-2,0,-1
1533863712242241,1,4,-12,-3,0,0,-3,-1
1533863712251017,-2,-1,-3,10,1,1,-2,-1
1533863712251017,-1,-4,1,-9,-1,-1,-2,1
1533863712265974,-1,-1,-8,1,-3,-5,-1,-1
1533863712265974,-2,-1,-4,7,1,-1,-2,-1
1533863712266989,-1,-2,0,13,8,-1,-1,-3
1533863712266989,-1,0,-4,-31,-14,-4,-1,-2
1533863712287940,-1,-3,7,-2,0,0,0,-2
1533863712287940,-1,-2,-16,-5,1,1,-1,-3
1533863712289908,1,-3,4,0,-5,1,-1,0
1533863712289908,-1,-1,-5,5,2,-1,0,-3
1533863712311031,0,0,5,-1,-3,-1,1,0
1533863712311031,-4,-2,-7,2,-2,-3,-4,-3
1533863712312847,0,0,-6,-14,-2,-3,-2,-5
1533863712312847,0,13,-32,0,-7,-1,-1,-3
1533863712326808,-2,-6,23,-11,-1,-1,1,2
1533863712326808,-3,0,-8,1,4,4,0,-2
1533863712327805,0,-9,39,7,-2,0,-1,0
1533863712327805,-4,-2,-9,3,-1,-2,-1,-3
1533863712348749,1,7,3,2,12,-1,-2,0
1533863712348749,-3,2,8,-5,-17,-4,0,1
1533863712349757,-2,-2,-27,-1,7,3,0,-2
1533863712349757,-1,-4,11,1,-7,0,-1,1
1533863712370694,-2,0,0,7,1,1,-3,-2
1533863712370694,-1,-3,-11,-1,9,-4,-1,0
1533863712372691,-2,0,-12,-3,-10,-2,-2,0
1533863712372691,2,-2,10,1,5,1,-2,-2
1533863712385654,-2,-4,-9,3,-8,-6,-3,-3
1533863712385654,-1,0,-10,-2,10,4,-2,-3
1533863712392640,0,1,-2,-10,-7,-1,0,0
1533863712392640,-2,-5,11,8,3,0,1,0
1533863712408617,0,1,-6,-3,-9,-2,-1,-1
1533863712408617,0,0,-1,-1,1,-1,0,-1
1533863712409588,0,1,3,2,1,-3,-2,-2
1533863712409588,0,-3,1,-1,-1,-1,-2,0
1533863712430532,3,9,-28,-6,10,-1,-2,-3
1533863712430532,-3,-17,27,16,-8,0,1,-2
1533863712432530,-8,-9,-11,-15,-6,-2,3,2
1533863712432530,-2,-3,-5,-8,3,1,-1,-1
1533863712445703,-2,-4,-2,7,-5,-4,-3,-1
1533863712445703,1,5,-3,4,5,0,-3,-1
1533863712452472,1,5,-1,-4,-1,-2,-3,-3
1533863712452472,-1,-4,4,7,4,-2,0,-2
1533863712468432,-2,-2,2,-13,-5,1,-1,-1
1533863712468432,0,2,-9,-10,-6,-2,-1,0
1533863712470435,-1,-5,-6,18,1,-7,-3,-2
1533863712470435,1,3,7,-4,10,0,-2,1
1533863712491371,0,-1,2,5,-11,0,0,0
1533863712491371,-3,2,-7,-13,-4,-5,-1,-2
1533863712492365,-1,-1,5,-3,-2,2,-1,0
1533863712492365,0,2,3,3,-2,-4,0,-1
1533863712505334,-3,-5,0,10,5,0,1,-1
1533863712505334,0,5,-2,-20,-1,1,-1,-1
1533863712512315,-1,-1,1,4,0,-3,-2,-1
1533863712512315,-4,-1,-7,-4,-6,-1,-2,-1
1533863712528272,0,-4,3,-2,-4,2,1,1
1533863712528272,-2,1,-13,-2,1,-2,1,0
1533863712530283,-1,1,-2,7,7,3,2,-2
1533863712530283,-1,0,-11,-4,-3,-1,-1,-1
1533863712551378,-1,-5,10,-1,-8,-7,-3,-1
1533863712551378,1,-3,0,2,10,0,-1,0
1533863712552206,-1,-3,-9,-5,0,3,1,-1
1533863712552206,-1,-2,-2,6,-8,-3,1,-1
1533863712565174,-1,-1,22,1,1,5,-1,-1
1533863712565174,0,-3,-3,1,-5,-1,0,0
1533863712572152,1,0,1,-6,-4,-3,-4,-1
1533863712572152,-1,-2,-7,-8,3,1,-1,-2
1533863712588109,-2,-2,-11,3,0,-3,-3,-2
1533863712588109,2,3,45,1,6,0,-2,0
1533863712590104,-2,10,-4,-1,-15,-6,-3,-1
1533863712590104,-1,4,-38,0,-1,-1,-4,-4
1533863712611051,-1,-5,-28,-1,1,-3,2,0
1533863712611051,-3,-10,59,24,3,3,4,1
1533863712612045,-2,4,3,-16,-3,-1,-2,-1
1533863712612045,-1,-1,-16,4,-4,-2,1,-2
1533863712625014,-3,-3,-34,-9,-2,0,-2,-2
1533863712625014,1,1,-30,-11,-3,-3,-2,-3
1533863712631996,-1,-2,-10,8,4,2,-2,-3
1533863712631996,1,-1,19,-2,-1,1,0,0
1533863712646969,-2,0,8,-19,0,-1,-1,1
1533863712646969,0,-1,-14,7,-5,-4,-4,-2
1533863712655927,-1,-5,9,-4,-3,-1,1,1
1533863712655927,0,-3,-1,-3,1,1,0,-2
1533863712670888,-1,5,14,7,5,2,1,1
1533863712670888,-2,-1,-25,-10,1,-3,-2,-3
1533863712672887,-1,-3,-11,-3,-7,-3,-3,-2
1533863712672887,-2,-2,12,5,0,1,1,0
1533863712684970,-2,0,-4,0,-2,-2,-2,-1
1533863712684970,1,3,-7,3,4,0,-2,-2
1533863712692034,0,0,6,-19,-6,2,0,-2
1533863712692034,-2,-4,10,18,-3,-2,-2,0
1533863712708786,0,-2,2,-5,-1,0,-2,-2
1533863712708786,-2,-5,-11,-2,-3,-4,-1,-1
1533863712709784,-1,1,-1,-10,-2,-3,-2,-1
1533863712709784,-1,-2,-7,5,-1,1,-1,-2
1533863712730728,1,2,-10,-11,-5,-3,-3,-3
1533863712730728,-1,-11,4,-3,4,1,-1,-2
1533863712732735,1,-2,17,3,5,3,1,0
1533863712732735,-1,-1,-2,-4,-5,-6,-3,-1
1533863712744693,-2,-4,-3,5,-6,-1,1,1
1533863712744693,-3,1,-9,-7,-7,1,-2,0
1533863712753666,0,-3,18,3,7,-1,-1,-1
1533863712753666,-3,-7,0,2,-2,-2,-4,-2
1533863712768626,2,0,-42,-4,-1,-1,-1,-1
1533863712768626,1,5,27,-14,-9,-3,-3,-1
1533863712769623,-3,-6,-27,1,3,-1,0,-1
1533863712769623,1,3,60,-1,2,1,0,0
1533863712797550,-4,3,0,10,0,-4,0,0
1533863712797550,-2,-7,-21,0,-3,1,0,-2
1533863712806527,-2,-2,-19,10,-1,-3,-3,-2
1533863712806527,1,1,7,-14,0,0,-1,0
1533863712807522,-1,5,1,1,-1,-1,-4,-2
1533863712807522,-1,-4,-4,7,0,-2,0,-2
1533863712813508,-1,-1,-8,0,1,-3,-5,-1
1533863712813508,-2,-2,-22,-5,-1,-1,-1,-1
1533863712828505,0,-1,13,-3,-5,-1,-2,-2
1533863712828505,-1,5,-17,-1,3,0,-3,0
1533863712830462,0,1,-25,-2,-2,-5,-3,-3
1533863712830462,-1,-2,4,-3,-5,2,2,0
1533863712850442,-3,-7,-53,-26,2,0,0,-1
1533863712850442,-3,-1,35,10,-7,-4,-3,-2
1533863712857423,-1,0,7,-15,-5,-2,0,-1
1533863712857423,0,-1,-17,-3,9,1,-1,-2
1533863712864390,-1,-3,9,1,-5,-2,0,-1
1533863712864390,-2,2,-26,-1,-5,-3,-2,-2
1533863712873346,-3,-14,12,12,2,-1,0,2
1533863712873346,-2,4,0,-8,-1,-3,-1,-1
1533863712888308,-2,-6,-19,5,3,0,-1,-2
1533863712888308,-1,-10,-7,-4,-3,-2,0,1
1533863712890302,1,3,9,9,-3,0,0,-1
1533863712890302,-3,-2,-3,-8,-2,-1,-1,-1
1533863712911245,-1,0,-9,10,3,-3,-3,-1
1533863712911245,1,3,0,-2,-1,1,2,-2
1533863712912259,1,4,1,-10,-10,-1,1,-1
1533863712912259,-3,-8,-20,4,0,0,-1,1
1533863712924210,-5,2,21,1,-6,-4,-1,-3
1533863712924210,-2,2,27,-8,2,3,0,0
1533863712933187,-2,0,8,12,4,1,-4,-3
1533863712933187,1,-1,-4,-4,-3,-2,1,-1
1533863712949143,2,-4,36,5,7,0,-1,0
1533863712949143,1,0,-32,-24,-18,-5,-1,-3
1533863712950146,1,-14,8,2,8,1,-2,0
1533863712950146,-1,0,-4,-7,-9,-4,-2,-1
1533863712971089,1,-3,-7,-5,4,-1,-1,0
1533863712971089,-2,-1,-10,10,1,-1,-2,0
1533863712972083,1,6,-22,-1,2,0,-1,-2
1533863712972083,-1,-5,6,-17,-7,-1,0,-2
1533863712993026,1,-7,35,1,-3,-1,-1,-2
1533863712993026,-1,2,-7,5,2,-2,-2,-3
1533863712995021,0,7,-1,4,0,-1,-1,-1
1533863712995021,-2,-15,4,3,7,0,-1,-1
1533863713007034,0,1,2,3,4,1,-2,0
1533863713007034,0,0,-1,3,4,-2,-1,-1
1533863713015976,-1,0,15,-7,-19,-5,1,1
1533863713015976,-2,-1,-23,-6,-1,-1,-1,-3
1533863713030926,-1,-3,-77,-5,-6,-3,-1,-2
1533863713030926,1,-1,27,3,2,0,-1,0
1533863713032922,-3,-9,0,3,7,-2,1,0
1533863713032922,0,4,-11,-2,-4,-3,-2,-3
1533863713044887,-1,5,-10,5,0,2,-1,-2
1533863713044887,0,-1,4,-9,1,-4,-1,1
1533863713053864,-3,-4,-11,-12,-3,3,1,0
1533863713053864,-1,-2,-11,-19,-4,-1,-3,1
1533863713068833,-1,-1,13,2,3,-2,-2,0
1533863713068833,1,4,20,-4,-4,-1,-2,-2
1533863713069822,0,3,13,8,-1,-3,-2,-1
1533863713069822,0,0,-7,4,1,1,-2,-1
1533863713090768,0,1,23,-1,2,-1,1,-1
1533863713090768,-3,-5,-18,-5,0,-2,-1,0
1533863713092759,-1,3,-22,-7,-17,-4,-2,-4
1533863713092759,-1,-5,21,8,2,0,-1,0
1533863713104728,-2,-7,12,-3,-3,-2,-2,-2
1533863713104728,-5,-4,-10,4,-1,4,1,0
1533863713113704,-1,-3,-10,0,6,-1,-1,0
1533863713113704,0,2,-7,0,-2,-3,-1,-3
1533863713128663,0,2,16,-2,-4,-1,-3,-1
1533863713128663,-2,-4,-17,-4,3,-1,1,-2
1533863713129671,2,2,8,17,15,1,-2,-1
1533863713129671,-3,-1,-65,-19,-13,-5,-1,0
1533863713150605,-3,-4,27,-1,-2,2,1,2
1533863713150605,-2,-1,-3,-7,-9,2,1,-1
1533863713152600,-2,1,2,-2,0,1,0,-1
1533863713152600,0,2,3,17,1,-2,-1,-3
1533863713164567,-1,2,-5,-1,-2,-2,-1,-1
1533863713164567,1,1,-12,-1,-2,-2,-3,-2
1533863713173545,-3,-9,-27,-10,1,-2,-4,-2
1533863713173545,-2,4,-18,5,5,3,1,0
1533863713195530,-4,-16,8,-4,-2,-1,2,1
1533863713195530,2,6,16,11,4,5,0,-1
1533863713197481,-1,-4,0,5,-2,-3,-1,-2
1533863713197481,-3,2,11,-8,-5,-2,-3,-3
1533863713218454,0,5,-1,0,-2,-2,-2,-1
1533863713218454,-1,-1,-15,3,0,-3,-1,-3
1533863713220424,-2,-1,-2,-6,-3,0,0,-2
1533863713220424,-1,-1,22,14,11,-3,1,0
1533863713233387,0,3,0,-12,-15,-2,-2,-2
1533863713233387,-3,-5,-1,-4,0,-1,-2,0
1533863713235379,-1,5,2,6,-1,-2,-1,-1
1533863713235379,0,0,17,2,5,-1,-2,-1
1533863713248379,0,0,-2,6,-3,-3,-2,0
1533863713248379,1,-1,-16,-8,-4,-1,-2,-1
1533863713250339,2,5,76,2,0,1,-1,0
1533863713250339,1,11,1,2,1,-1,-2,-2
1533863713271285,-5,-7,34,9,11,3,1,0
1533863713271285,1,4,33,0,-1,7,5,3
1533863713272279,-2,-2,-18,-9,-3,-3,-2,0
1533863713272279,0,0,11,6,-2,0,0,0
1533863713292229,1,6,-13,-5,-3,-4,-1,-2
1533863713292229,-1,-3,-18,5,2,-3,-3,-2
1533863713301216,0,0,-2,-5,0,-2,-2,-1
1533863713301216,1,-1,2,-2,1,-1,-1,-2
1533863713308187,-2,-2,-41,4,-1,-3,0,-2
1533863713308187,0,-7,4,-13,-2,-2,0,-1
1533863713314173,-1,-4,-13,-5,0,2,0,-1
1533863713314173,-2,-7,1,4,-3,-1,-2,-1
1533863713331124,1,2,2,-12,1,1,-1,-2
1533863713331124,0,6,-6,-3,-1,-4,-2,-2
1533863713333116,-1,-9,-4,1,-2,-2,-3,-1
1533863713333116,-1,4,-7,-3,7,1,1,-2
1533863713353269,-2,-11,43,6,-6,0,2,2
1533863713353269,-6,-5,-14,-4,-3,-1,-3,-2
1533863713355068,0,-1,-8,11,-1,0,1,-2
1533863713355068,-2,-1,12,-5,-7,-2,-3,-1
1533863713368232,1,2,-17,1,2,1,-3,-2
1533863713368232,0,0,-6,-3,-1,-4,-2,-1
1533863713375022,-2,-1,-4,-2,-1,-2,-1,0
1533863713375022,-1,-2,-29,-5,0,-4,-3,0
1533863713390974,-2,-2,-8,-4,5,-2,0,-1
1533863713390974,-2,-2,-24,8,-12,-1,3,0
1533863713392978,-1,-1,-20,6,0,-1,-1,-3
1533863713392978,-1,-4,24,-4,-8,-1,-1,0
1533863713412904,-1,4,-15,-7,-2,-1,-3,-1
1533863713412904,0,-14,3,3,5,-3,-2,-2
1533863713414898,-2,-2,-9,-1,0,-3,-1,-2
1533863713414898,0,1,6,-1,-3,-1,1,0
1533863713427866,-2,0,1,0,-3,-3,-3,-4
1533863713427866,-1,2,0,5,6,1,-1,-2
1533863713435062,1,3,3,-5,2,-4,-3,-1
1533863713435062,-1,-5,5,15,-10,0,1,0
1533863713450847,-1,6,10,-28,-10,-2,-3,-2
1533863713450847,-1,12,5,4,1,0,0,-1
1533863713452802,-4,-7,-45,-2,-1,1,-2,-2
1533863713452802,-2,4,40,-6,6,1,1,0
1533863713473743,-2,-6,4,8,3,-2,-1,0
1533863713473743,-1,-2,-3,-3,-3,-1,-2,-1
1533863713474738,0,3,9,0,-4,-2,0,-1
1533863713474738,-2,-8,-39,-15,-7,-2,-1,-2
1533863713487706,-3,-3,-21,0,1,-2,-2,-2
1533863713487706,-1,-1,19,2,0,-4,-2,-2
1533863713494688,0,3,9,0,0,0,-2,-2
1533863713494688,-1,-2,-8,-2,0,0,0,-1
1533863713510642,-1,0,4,-1,-1,-1,0,2
1533863713510642,-2,-3,-10,-4,1,-2,-2,-3
1533863713512638,-2,-2,4,-10,-8,-1,0,-1
1533863713512638,-1,-1,0,10,-2,-2,0,-1
1533863713533581,-1,-2,-3,-8,6,-1,0,-4
1533863713533581,-1,-3,-3,2,-3,1,2,-1
1533863713534578,1,2,8,1,-1,-1,-2,0
1533863713534578,1,-2,5,1,2,0,-2,-1
1533863713547554,0,0,-21,1,1,0,-2,-1
1533863713547554,-1,-2,17,10,-9,-4,-2,-2
1533863713554727,-3,-10,5,-21,0,1,2,1
1533863713554727,-2,8,-36,-6,-5,-1,-3,-1
1533863713570495,2,2,84,19,-1,2,2,0
1533863713570495,0,2,-4,-12,0,0,-3,0
1533863713572476,-2,-1,-38,3,-1,-3,-3,-1
1533863713572476,-1,-1,30,0,3,-2,-1,0
1533863713593423,-2,-1,-29,-3,5,-2,0,-2
1533863713593423,-3,-14,0,-30,-21,0,2,0
1533863713595415,-2,2,15,7,3,0,-2,0
1533863713595415,-2,-6,-10,3,0,-2,-1,-1
1533863713608397,-1,0,-15,-9,-2,-1,-3,-1
1533863713608397,1,2,3,3,7,-2,0,-1
1533863713614365,-1,1,-32,-4,-1,0,-3,-3
1533863713614365,0,-5,12,2,-6,-2,0,-2
1533863713631319,1,-2,-3,5,2,0,0,0
1533863713631319,-3,1,-9,-9,0,-4,-3,-2
1533863713632316,1,0,8,4,-5,0,1,0
1533863713632316,-1,-1,-1,-3,7,2,0,-1
1533863713653264,-1,0,5,5,-6,-3,-1,-1
1533863713653264,-1,0,-4,-2,2,-2,-3,-1
1533863713655255,-1,-2,-56,-2,5,0,-1,-2
1533863713655255,0,4,23,-13,8,-1,-2,0
1533863713668224,-5,-5,-15,5,-11,-1,0,-1
1533863713668224,-3,-11,0,10,12,2,1,-1
1533863713674204,-1,-1,-1,-3,-6,-1,0,-3
1533863713674204,0,-2,-35,3,-2,1,0,-2
1533863713691162,0,4,-4,-6,-4,-4,-1,0
1533863713691162,2,6,-8,1,3,-1,-3,-2
1533863713692156,-2,-3,24,13,3,0,3,1
1533863713692156,2,-2,23,-2,7,2,1,-1
1533863713713102,-3,-7,-1,-21,-5,-3,-2,0
1533863713713102,-1,2,-6,2,-10,-4,-2,0
1533863713715096,-1,-2,18,-3,3,2,0,2
1533863713715096,-4,-2,-5,8,-3,-1,-2,-2
1533863713727079,1,2,-3,1,3,-1,-2,-1
1533863713727079,-1,-2,2,-5,0,0,-2,0
1533863713736039,-1,3,3,1,-5,-5,-3,-2
1533863713736039,0,-4,-5,9,-2,-2,0,-2
1533863713751003,-1,-3,-6,-8,-11,0,-2,-1
1533863713751003,-2,-1,-7,5,9,2,0,-2
1533863713752994,-1,2,19,-3,-15,-4,-2,-1
1533863713752994,-2,0,-1,1,3,3,-2,-1
1533863713773937,1,1,-1,2,1,0,1,-1
1533863713773937,2,12,3,5,-2,-2,0,-1
1533863713775932,-5,-12,9,-8,2,1,2,-2
1533863713775932,-1,7,-9,-6,-3,-4,-1,-1
1533863713787027,-2,-7,44,6,-2,-3,-2,-2
1533863713787027,-1,-2,-7,-12,-4,1,0,1
1533863713795879,0,2,-3,12,1,-3,-3,-3
1533863713795879,0,2,13,-14,-5,-3,-2,0
1533863713810839,-2,-3,-47,-8,4,-3,-2,-3
1533863713810839,0,-3,4,3,1,0,0,-1
1533863713812851,-2,-1,10,1,-4,-2,-1,-1
1533863713812851,-2,-7,-18,3,-6,-1,0,1
1533863713833781,1,2,-2,1,9,2,-2,0
1533863713833781,0,-5,5,-7,-20,-4,-3,-1
1533863713834784,1,4,6,-1,1,1,1,-1
1533863713834784,-3,-1,-7,-5,1,-2,0,-2
1533863713846750,0,-2,-9,13,3,1,0,-2
1533863713846750,-1,0,14,-1,2,-1,0,-1
1533863713863700,0,11,-7,-6,-1,-3,-3,-2
1533863713863700,-3,-11,-54,-16,-1,-1,-1,-1
1533863713870679,0,3,55,14,2,0,0,0
1533863713870679,-3,-9,12,0,3,4,3,1
1533863713872674,-2,1,-5,-5,0,0,-3,-2
1533863713872674,-2,-3,1,2,-7,-3,-3,-2
1533863713900599,1,3,-17,-8,-2,-1,-1,-2
1533863713900599,0,2,-24,7,-2,0,0,-1
1533863713902601,2,-4,57,15,4,-2,-1,1
1533863713902601,-2,-7,16,-10,-1,0,-1,0
1533863713907583,-4,-2,-15,-4,1,-4,-4,0
1533863713907583,1,2,9,2,2,-1,-2,-2
1533863713915562,-2,-4,-26,2,-1,-3,-1,-2
1533863713915562,1,3,28,4,3,1,1,1
1533863713930518,-1,-2,-5,11,-5,2,1,-4
1533863713930518,-3,-5,-21,-16,-3,-2,-2,-1
1533863713932514,-2,-3,1,-9,5,0,-3,0
1533863713932514,1,-1,2,6,-3,-2,-4,-4
1533863713953457,1,10,-6,-9,3,0,-2,-4
1533863713953457,-2,-5,-2,6,-8,-4,-1,0
1533863713955461,2,-1,3,5,-1,-4,-2,-1
1533863713955461,-2,2,8,-17,-13,-2,-1,-1
1533863713967423,-1,-5,-27,9,-2,-2,0,-1
1533863713967423,0,2,16,10,10,0,0,0
1533863713982384,-4,-7,-62,-20,-7,1,1,-1
1533863713982384,-1,3,0,-3,2,0,-1,-1
1533863713991392,-1,-2,2,-13,0,-1,-3,0
1533863713991392,2,12,-41,23,-15,-4,-4,-2
1533863713992361,-4,-15,3,-15,6,1,0,1
1533863713992361,-1,-2,-1,10,3,0,-1,-2
1533863714013298,-1,-2,11,4,3,2,1,0
1533863714013298,-3,-1,0,2,4,-3,-1,-2
1533863714015307,3,7,6,-10,-14,-3,-1,-2
1533863714015307,-2,-3,2,1,1,-5,-1,0
1533863714027276,-1,0,1,24,1,2,-1,1
1533863714027276,-2,-6,12,-5,3,-3,-4,-2
1533863714036237,-2,0,7,14,10,6,2,-1
1533863714036237,-1,0,-23,-17,-7,-2,-1,-3
1533863714051198,0,-3,-2,1,15,-1,-1,0
1533863714051198,1,-6,-66,-60,-27,-2,-1,-2
1533863714053192,-5,-2,-40,20,-4,-7,-5,-5
1533863714053192,2,6,25,17,-3,3,2,0
1533863714073140,-4,-4,1,-2,16,1,-1,-1
1533863714073140,-3,-5,4,10,-12,1,0,0
1533863714075132,1,-1,-2,-1,2,-2,1,1
1533863714075132,2,1,8,11,-1,-3,1,0
1533863714087101,-1,-4,-30,4,-13,-5,-1,0
1533863714087101,0,-1,22,15,27,2,-4,-1
1533863714096076,0,1,-3,-12,-19,1,2,1
1533863714096076,-2,17,14,-13,-17,-5,-3,-2
1533863714111040,-2,-18,19,-17,-18,0,1,0
1533863714111040,-3,-6,1,4,6,0,-1,-2
1533863714113031,1,4,23,-2,14,0,0,0
1533863714113031,-3,-3,-11,15,10,1,-3,1
1533863714133978,-1,4,-13,-12,-15,-3,-1,-1
1533863714133978,1,3,7,4,8,-3,-1,-2
1533863714134972,0,-3,8,-5,3,1,0,0
1533863714134972,-2,-7,-12,-4,2,0,0,-1
1533863714146940,-1,2,1,-15,-6,-3,-2,-1
1533863714146940,0,-3,36,-6,2,-1,1,0
1533863714155929,-3,-2,-9,-12,-10,0,-1,-3
1533863714155929,-4,-9,-35,-12,-4,-1,-2,-2
1533863714170879,1,7,72,6,0,-2,-1,0
1533863714170879,-2,2,0,8,0,3,1,-1
1533863714172870,-1,-1,6,2,-1,-4,-1,-1
1533863714172870,-1,-4,-5,-6,6,1,-1,-2
1533863714200796,-2,-2,-26,0,-1,-1,-1,-2
1533863714200796,-1,-1,-3,0,2,2,3,1
1533863714202792,-1,3,18,0,0,1,-1,0
1533863714202792,-3,-4,-19,-5,-6,-6,-5,-4
1533863714215756,1,-6,43,15,2,-3,-2,1
1533863714215756,-2,-2,2,-5,-7,-1,0,-2
1533863714217751,-1,-1,-7,1,2,-1,-1,1
1533863714217751,-1,-7,12,11,4,1,1,1
1533863714230720,-1,3,-25,-30,-13,-3,-3,-2
1533863714230720,0,1,-14,1,5,-2,-3,-2
1533863714232712,1,2,23,-3,0,-2,-2,-2
1533863714232712,-1,-9,1,7,-4,-4,0,-1
1533863714253701,-4,-6,-45,-10,1,-3,0,-5
1533863714253701,3,0,19,24,9,6,3,2
1533863714254662,-3,3,-19,17,-2,-2,-2,-2
1533863714254662,3,7,84,-19,-20,0,-1,0
1533863714275599,-5,-5,-20,-7,2,-4,-2,-1
1533863714275599,-3,-1,1,-8,-6,-6,-4,-2
1533863714277611,-2,-1,-1,17,10,-2,-1,-1
1533863714277611,-1,-2,-20,-3,6,0,1,1
1533863714290577,1,0,-32,-9,-5,1,-1,-3
1533863714290577,-1,2,12,-7,9,-1,-1,-1
1533863714292550,-1,-4,-8,-15,-13,-4,-3,-2
1533863714292550,-2,2,-21,9,10,5,1,0
1533863714313495,-1,-3,3,10,5,2,1,-1
1533863714313495,-5,-5,-28,-49,-23,-9,-5,-4
1533863714315490,-1,-5,-3,-17,-7,-3,0,-1
1533863714315490,0,-1,-16,8,14,-5,-2,-1
1533863714335439,1,9,18,17,14,5,1,2
1533863714335439,-1,-1,-13,9,-6,-1,0,0
1533863714337431,2,1,1,-1,9,4,0,0
1533863714337431,0,0,-3,-2,-18,-8,-5,-2
1533863714350399,1,6,30,28,15,4,2,1
1533863714350399,-1,1,38,11,1,3,1,0
1533863714357377,-3,-1,6,-4,-5,-4,-2,-2
1533863714357377,-2,-3,-4,-18,9,1,1,-3
1533863714373338,-1,3,4,27,-22,-6,-6,-5
1533863714373338,-2,-13,-10,18,15,-1,1,0
1533863714375329,-1,-11,-16,14,22,1,-1,-3
1533863714375329,0,-3,2,-17,-25,1,1,1
1533863714396310,0,-5,-25,-14,1,-2,0,0
1533863714396310,0,8,-4,-14,-7,-3,-2,-1
1533863714397271,0,6,12,13,2,-4,-2,2
1533863714397271,0,1,-14,-12,5,-1,-2,0
1533863714410239,0,-12,12,-5,0,-1,0,-1
1533863714410239,-1,3,-4,4,-3,0,-2,2
1533863714417270,-3,-1,35,-24,-14,-1,2,1
1533863714417270,-3,-7,-4,23,0,2,-1,0
1533863714433174,-1,6,7,-20,-1,0,-2,-2
1533863714433174,3,0,-13,-12,-5,1,-1,1
1533863714435183,-2,-4,-23,6,0,-2,-3,-5
1533863714435183,0,5,14,15,7,1,-1,-1
1533863714456143,-2,-2,-13,-5,3,-4,-3,-3
1533863714456143,0,-6,-17,17,-6,-1,-2,-3
1533863714457130,2,0,-15,-36,-8,-3,-1,-1
1533863714457130,-1,1,1,6,-6,-3,-1,-1
1533863714470079,1,8,7,15,12,2,2,0
1533863714470079,-4,7,11,-24,-11,-2,-1,0
1533863714478054,-3,-10,3,8,3,4,0,-1
1533863714478054,-4,-15,-18,-10,-3,-4,-3,-2
1533863714494015,1,2,19,8,3,-1,-2,1
1533863714494015,-4,1,-36,-8,-9,-2,-3,-4
1533863714495009,0,-9,18,5,8,5,1,2
1533863714495009,-2,1,-8,-14,-1,1,1,-1
1533863714515953,-1,-1,-7,-4,-1,0,-2,-3
1533863714515953,-2,9,-5,9,-1,-3,-4,-2
1533863714516950,-1,4,16,3,0,0,2,0
1533863714516950,-2,0,20,-7,-9,-5,-3,-1
1533863714529916,0,-2,-22,-24,-17,3,2,0
1533863714529916,-2,2,54,30,10,-1,-2,-2
1533863714536897,-2,1,-37,-3,0,1,-2,0
1533863714536897,2,6,13,-7,-2,-3,-1,-2
1533863714553852,-2,-1,-5,-9,-12,-1,-1,0
1533863714553852,2,-13,-7,-31,9,-3,0,-2
1533863714554856,-5,-6,-15,2,-22,-7,-2,-2
1533863714554856,-1,-4,-9,7,11,3,-1,0
1533863714575796,-1,3,-2,-4,-1,-3,-1,-1
1533863714575796,0,0,-4,2,1,1,1,0
1533863714577805,1,0,1,4,1,-1,0,1
1533863714577805,-1,5,10,7,-3,-3,-2,-1
1533863714589759,-2,-4,-6,-5,-3,-1,-1,-1
1533863714589759,-2,-4,0,6,1,0,1,1
1533863714604727,-1,8,-6,-14,-1,-3,-5,-3
1533863714604727,-1,-10,-27,27,4,-3,2,-1
1533863714613698,0,-7,11,-8,2,-1,-2,0
1533863714613698,-3,-7,-10,6,-18,-3,-2,-5
1533863714614688,0,2,-9,22,2,4,3,-1
1533863714614688,-7,-2,-20,-34,6,-6,-4,-1
1533863714635633,-5,-6,-33,-11,-26,-2,1,0
1533863714635633,2,10,82,38,22,-2,-2,0
1533863714637627,-1,-13,-14,27,-3,2,0,-1
1533863714637627,2,3,26,-31,19,2,0,-1
1533863714650592,-3,-6,-38,-2,-10,-3,-4,-2
1533863714650592,0,-1,-36,-14,-7,-2,0,0
1533863714656580,2,7,12,-2,6,-3,-4,-1
1533863714656580,2,5,18,21,2,1,0,-1
1533863714673532,1,1,7,-5,3,-4,-2,-3
1533863714673532,1,-3,-14,-5,-7,1,1,-2
1533863714674529,-4,1,15,-8,-3,-2,-2,0
1533863714674529,0,0,-3,-11,-9,2,0,-1
1533863714696486,0,2,14,0,0,0,1,0
1533863714696486,-5,-8,-22,-4,-1,-5,-4,-1
1533863714697467,0,-3,0,-1,7,3,2,-1
1533863714697467,1,5,6,13,4,-4,-2,-2
1533863714709435,-3,5,6,5,-15,-1,1,0
1533863714709435,-3,-12,-1,-20,1,-1,-2,0
1533863714718412,-3,-11,-24,13,-5,-6,-2,-3
1533863714718412,-1,-6,-15,-2,-2,1,1,1
1533863714733375,2,14,15,5,0,-5,-3,-1
1533863714733375,1,1,10,17,22,6,1,0
1533863714735367,-4,4,-9,-40,-37,-11,-6,-4
1533863714735367,0,-6,-29,17,-1,-2,-3,-2
1533863714756313,1,1,43,0,7,-1,1,0
1533863714756313,-2,1,-6,8,-2,2,1,0
1533863714758304,-2,-3,-22,-4,8,-4,-4,-2
1533863714758304,-3,-2,-6,-14,-1,-1,1,-2
1533863714769279,-1,-3,-15,-13,-3,-4,-3,-2
1533863714769279,-1,-6,36,8,0,0,-1,1
1533863714786236,-1,8,-6,-3,-7,3,0,-1
1533863714786236,-2,-5,-4,-7,-1,-4,-1,0
1533863714793214,-2,-6,3,-5,26,4,1,1
1533863714793214,3,3,-17,-46,-54,-11,0,-1
1533863714795206,-4,10,17,20,0,2,0,-1
1533863714795206,1,1,80,-13,2,-1,-3,-1
1533863714816158,-6,-14,-23,9,4,3,2,0
1533863714816158,-2,0,-14,8,9,0,-1,-1
1533863714817148,2,0,15,-3,8,-4,-3,1
1533863714817148,-1,2,-16,-2,-24,-2,-2,-1
1533863714829115,-1,-2,7,2,1,-1,-2,0
1533863714829115,-3,1,5,7,6,-1,-2,-3
1533863714838095,-1,-4,7,-4,-3,-4,-1,0
1533863714838095,-1,-3,-17,20,8,1,-2,-1
1533863714854054,1,2,-5,2,0,-1,-3,-2
1533863714854054,-3,3,-3,-13,4,1,0,-1
1533863714855046,-1,-9,-6,-6,10,0,-1,-2
1533863714855046,-1,-3,-12,-2,-16,-3,0,0
1533863714875993,-2,-5,-11,9,-5,-2,-4,-4
1533863714875993,3,1,-16,-5,7,0,0,2
1533863714877989,1,5,25,-3,-12,2,2,0
1533863714877989,0,8,-8,30,19,2,2,-1
1533863714889953,-5,-10,36,-17,-25,-4,0,2
1533863714889953,-6,-6,-8,5,4,-2,-2,-4
1533863714898929,0,-1,-6,-12,-3,-1,0,-3
1533863714898929,-2,-2,-22,9,17,2,-2,-2
1533863714913888,2,8,-2,4,-1,-2,-1,-1
1533863714913888,-1,13,-11,2,-2,-2,0,-1
1533863714914886,-2,-19,8,-10,-1,-4,-1,2
1533863714914886,0,-4,7,-14,-7,-2,-2,-1
1533863714935830,-1,-5,-13,15,10,0,-3,-1
1533863714935830,0,-7,-9,-3,-8,-3,-2,-2
1533863714937824,0,7,-11,8,9,3,0,-1
1533863714937824,-2,4,2,11,18,4,2,-1
1533863714949794,-3,-6,-17,-24,-31,-2,-1,-4
1533863714949794,0,-3,1,0,2,-2,-3,-1
1533863714958772,-1,3,0,12,1,-1,-3,-1
1533863714958772,-2,-7,10,1,-4,-1,-2,0
1533863714973728,-2,6,11,-15,3,-2,0,-3
1533863714973728,1,-4,-14,14,8,6,0,-1
1533863714974725,-1,-2,-2,-23,-9,-3,0,-1
1533863714974725,1,4,-7,4,-13,-3,0,0
1533863714995671,0,9,9,-6,15,-2,-1,0
1533863714995671,0,-10,3,2,-6,-2,-1,-1
1533863714997665,-2,-7,-16,1,-5,-1,0,-2
1533863714997665,-1,-1,-8,-13,-18,-1,-3,1
1533863715009633,1,6,10,25,23,3,-1,1
1533863715009633,-3,-3,10,-53,-29,-2,0,-1
1533863715018609,-4,-5,-13,0,-4,-4,-2,-3
1533863715018609,-2,-1,9,8,1,-4,-3,-4
1533863715033569,-1,-5,45,1,2,0,2,2
1533863715033569,-2,0,12,7,7,1,0,-3
1533863715035565,-1,2,0,7,4,2,2,1
1533863715035565,1,2,92,-1,-7,1,2,2
1533863715055548,-1,0,-20,5,5,-1,-1,-1
1533863715055548,-1,0,-3,4,1,-1,-1,-2
1533863715057504,0,0,17,-7,-4,-1,-4,0
1533863715057504,-3,-1,-46,-3,1,-3,-1,-3
1533863715069472,-1,-3,-20,3,-5,-2,-1,-1
1533863715069472,0,1,10,3,-1,-4,-2,0
1533863715078452,-1,2,-14,14,25,2,-1,-2
1533863715078452,-2,6,-24,-32,-32,-3,-3,-2
1533863715092438,0,-1,-17,-11,-9,-2,-3,-3
1533863715092438,-3,-14,11,-2,-2,-1,-1,-1
1533863715099420,-1,0,8,9,6,2,-1,0
1533863715099420,-3,-4,-11,10,10,1,-1,-1
1533863715116414,0,-4,18,-4,-7,-4,-1,-2
1533863715116414,-4,-3,-28,8,3,0,-1,-1
1533863715117354,0,5,23,-1,-4,0,1,-2
1533863715117354,-1,-6,11,-8,-1,-2,-2,-2
1533863715138332,0,-2,-31,-7,-2,-1,-2,-2
1533863715138332,2,2,-10,4,2,-4,-1,0
1533863715140283,1,2,61,2,-2,-1,1,0
1533863715140283,-2,-3,-30,-5,-2,-2,-1,-3
1533863715153249,0,-1,-5,14,1,-2,-1,0
1533863715153249,0,4,13,0,0,2,0,-1
1533863715155244,-4,-2,-19,-5,-5,-2,-1,-1
1533863715155244,2,-2,-5,6,10,0,1,-3
1533863715176190,-1,-2,0,-3,-17,1,-2,-1
1533863715176190,-2,-2,-3,-15,4,-1,0,-1
1533863715177185,-2,-1,-19,2,0,-5,-2,-1
1533863715177185,2,1,0,-13,-10,4,0,2
1533863715198128,-9,-9,-12,36,0,-5,-3,-5
1533863715198128,-2,3,-26,-6,-9,1,-2,-2
1533863715200124,1,-4,-3,-10,3,-2,-3,-3
1533863715200124,1,3,10,7,-1,3,4,2
1533863715213089,3,-2,-5,-23,2,3,3,2
1533863715213089,-4,1,-5,5,-25,-8,-5,-2
1533863715215083,-1,-5,-4,3,-4,-3,-2,-1
1533863715215083,-3,-6,-3,-4,5,-4,-2,-2
1533863715236030,1,1,50,2,11,3,-1,0
1533863715236030,-4,-2,-9,-11,4,0,-1,0
1533863715238025,1,3,-3,-6,-7,-2,-1,-2
1533863715238025,-4,-3,-12,0,1,-4,0,-1
1533863715257970,-2,2,-6,-10,-5,-2,1,-1
1533863715257970,2,1,7,7,7,0,0,-1
1533863715259963,-2,-4,-6,-5,-5,0,-1,0
1533863715259963,2,1,14,8,2,-2,-4,-1
1533863715273142,-1,2,-24,8,5,2,-2,-3
1533863715273142,0,-1,-1,-19,-6,-4,-2,-1
1533863715279910,0,-1,-1,16,26,4,-1,0
1533863715279910,-7,-5,-24,-44,-41,-9,-3,-2
1533863715295867,-1,-3,-4,-5,-22,-4,0,1
1533863715295867,0,-1,6,6,4,-1,-2,-1
1533863715297861,-1,-2,0,6,2,4,1,0
1533863715297861,4,2,-5,2,36,4,2,0
1533863715318806,-7,-6,-15,0,-15,-5,-5,-2
1533863715318806,-2,0,18,4,2,-1,0,0
1533863715319806,-2,1,-8,-12,-8,-1,-1,-1
1533863715319806,-1,-1,4,5,7,1,-1,-2
1533863715340790,1,-3,-56,-14,0,-4,-3,-2
1533863715340790,-2,-16,-17,-7,4,2,-1,0
1533863715342743,1,-2,14,7,-7,-3,-1,-3
1533863715342743,-3,-4,-35,-6,-6,1,-4,-2
1533863715355723,3,7,88,12,11,3,3,2
1533863715355723,-5,-2,-7,0,0,-2,0,-1
1533863715357703,-4,4,-7,5,-4,2,1,0
1533863715357703,-2,4,-13,-1,-4,-2,-1,-1
1533863715378648,-2,-9,-17,-2,3,-1,-1,-1
1533863715378648,2,3,-2,0,12,-2,0,-3
1533863715379642,1,-1,14,-8,-18,-4,0,0
1533863715379642,0,2,4,9,1,4,0,0
1533863715392611,-2,0,-13,11,0,-1,-1,-1
1533863715392611,1,0,12,-3,0,-1,2,1
1533863715399590,-3,-5,-26,-18,-1,-5,-3,-2
1533863715399590,0,-6,12,2,-1,-3,-3,-3
1533863715415547,-1,3,-3,-6,3,0,0,1
1533863715415547,0,-1,-5,4,-1,1,-2,-1
1533863715417558,1,5,6,31,23,-3,-1,-2
1533863715417558,-6,-11,-10,-68,-39,-3,-2,-1
1533863715438500,-2,-3,2,-5,0,1,2,-1
1533863715438500,0,6,4,10,2,1,-1,-1
1533863715440485,-2,-2,-4,-7,-6,-2,0,-1
1533863715440485,1,-2,-7,25,15,2,0,0
1533863715452448,-2,-3,35,1,3,0,-2,-1
1533863715452448,3,12,2,-2,-1,-1,-1,-1
1533863715467408,-1,-6,-11,-28,-5,-2,-1,-2
1533863715467408,-1,5,6,52,18,0,0,-1
1533863715476611,-3,-18,-27,-19,-9,-4,-1,-3
1533863715476611,-1,-3,-9,-2,-18,1,0,-1
1533863715477381,1,2,12,-1,-5,3,0,1
1533863715477381,-1,4,81,-2,3,-1,-1,-2
1533863715498329,1,7,-23,11,5,-6,-5,-4
1533863715498329,-2,-6,15,4,6,0,-2,-1
1533863715500325,-1,-4,-6,17,3,3,1,-2
1533863715500325,-3,-4,-23,-50,-17,-3,0,-1
1533863715512289,2,7,-2,21,22,2,-1,1
1533863715512289,0,-3,7,-29,-26,-9,-3,-1
1533863715519269,-2,0,-16,-11,-8,-4,-3,-1
1533863715519269,1,-4,-3,27,11,2,1,-1
1533863715543209,-1,5,7,-2,-1,-2,-2,-2
1533863715543209,-2,-9,-21,3,4,0,1,1
1533863715545200,-5,-2,0,-5,4,3,2,0
1533863715545200,-1,0,3,6,-1,-6,-4,-1
1533863715558166,0,2,-13,-12,-4,-2,-3,-3
1533863715558166,0,-3,-22,13,3,-2,-2,-3
1533863715560161,-7,-5,-25,-12,-10,0,-1,-1
1533863715560161,-3,-6,-4,9,2,-3,-1,-1
1533863715572241,1,0,-15,-9,1,0,-1,-2
1533863715572241,3,5,8,3,1,2,0,0
1533863715581106,3,-2,0,16,-5,-2,-2,-2
1533863715581106,0,0,-28,-20,0,2,3,0
1533863715596071,-6,-8,-17,28,-5,-3,-1,-2
1533863715596071,-6,-2,-12,-5,-9,-3,-4,-3
1533863715597070,0,4,7,9,4,-3,-2,0
1533863715597070,1,-5,6,8,-3,0,-1,-1
1533863715619002,2,-1,12,-8,0,-5,-3,-2
1533863715619002,0,-2,9,6,10,6,1,-1
1533863715620029,-2,0,9,-3,-6,2,4,1
1533863715620029,1,3,-2,52,22,2,3,0
1533863715631972,-5,-3,-41,-58,-25,-6,-5,-4
1533863715631972,-4,5,9,4,1,-6,-4,-3
1533863715657107,-4,-9,-33,-13,-5,-1,-4,-2
1533863715657107,-2,-9,-33,-10,12,0,-2,-1
1533863715657900,1,2,42,14,-13,0,2,2
1533863715657900,-1,0,1,-5,-6,-1,1,1
1533863715658898,1,2,-9,-13,2,-3,-2,-3
1533863715658898,-2,-1,-27,-4,-10,-3,-3,-3
1533863715678846,-2,-1,-3,-10,5,6,-1,2
1533863715678846,2,-4,-6,-4,0,-3,-2,0
1533863715679841,0,-1,13,8,5,-1,-2,0
1533863715679841,2,2,10,0,-9,-3,-3,-1
1533863715692014,2,3,6,-8,20,3,3,1
1533863715692014,-2,-4,14,-4,-28,-3,-2,0
1533863715700852,-5,0,0,-24,-4,-5,-3,-5
1533863715700852,-2,3,7,-18,-12,1,1,0
1533863715723728,-6,-19,-90,-10,-8,-5,-4,-1
1533863715723728,4,8,71,14,15,2,2,2
1533863715724735,-1,-9,11,9,-15,-5,0,0
1533863715724735,-3,-4,6,-2,-3,0,-2,-2
1533863715738865,2,4,1,14,10,1,1,-1
1533863715738865,-2,-2,-35,-14,-5,-5,-2,-3
1533863715739681,1,3,-7,-6,-1,0,0,1
1533863715739681,0,-3,16,4,10,0,0,0
1533863715752730,-1,-5,14,20,0,-1,-1,-1
1533863715752730,-3,-2,-11,11,7,0,-1,-3
1533863715760656,1,5,14,-1,2,2,-2,-1
1533863715760656,0,2,-14,-17,-6,-1,0,-1
1533863715775584,-4,0,13,-4,-9,1,0,1
1533863715775584,-1,1,-21,1,10,-3,-3,-5
1533863715777579,-4,-8,-53,-22,-8,-2,-3,-4
1533863715777579,-1,-4,13,2,-5,-2,0,-1
1533863715806505,1,-2,35,3,-2,-1,0,0
1533863715806505,0,5,16,-3,7,-2,0,-2
1533863715807499,-2,-1,1,2,1,-1,-2,0
1533863715807499,-3,-4,-4,10,-2,-5,-3,-3
1533863715812495,-1,5,8,3,1,0,0,-2
1533863715812495,-2,-11,-39,-4,8,3,3,1
1533863715821461,2,-2,14,-11,-19,-2,-2,-2
1533863715821461,-4,3,0,-12,-4,3,-1,-1
1533863715843406,3,3,26,-10,-2,-1,-1,-1
1533863715843406,-2,-3,8,7,0,0,-2,1
1533863715845397,1,4,22,13,8,-3,-2,1
1533863715845397,-2,-3,-5,10,-7,-3,-3,-1
1533863715858366,-3,3,-29,-11,-4,-1,-2,-4
1533863715858366,0,-18,19,8,-1,2,1,0
1533863715860357,3,8,77,9,9,0,1,1
1533863715860357,-1,3,-9,1,1,-1,-4,-3
1533863715872328,-2,-2,-5,-18,-12,-2,3,4
1533863715872328,-2,2,-6,15,10,-1,-2,0
1533863715881303,-2,-2,-22,-12,-22,-1,-1,-2
1533863715881303,3,5,23,16,3,-2,-3,0
1533863715896262,-2,-5,5,-13,-4,1,-2,-1
1533863715896262,-3,6,36,-4,3,-1,0,1
1533863715897279,-3,-1,-20,4,8,4,3,0
1533863715897279,-3,-22,-47,-1,8,-3,0,-2
1533863715917205,0,2,30,19,-10,-5,-1,-1
1533863715917205,-4,5,-106,-17,-13,-4,-4,-4
1533863715934160,-2,-7,-1,-3,5,-3,-2,-2
1533863715934160,1,5,20,-4,0,-1,1,1
1533863715935156,2,-2,-6,4,8,1,-2,-2
1533863715935156,-1,-5,-10,-14,-11,0,-3,-2
1533863715941141,0,4,-4,5,7,-1,-2,-3
1533863715941141,-3,1,-6,5,0,3,0,0
1533863715956286,-2,-4,-7,-14,-13,-2,0,-2
1533863715956286,0,3,16,3,3,-3,-1,-1
1533863715957099,0,-3,-15,11,25,1,0,-1
1533863715957099,0,2,15,-30,-30,-2,0,1
1533863715978242,-3,-1,-10,0,-2,-3,-1,-2
1533863715978242,0,0,5,-10,-1,-1,1,1
1533863715980045,0,1,-6,5,-7,-5,-4,-2
1533863715980045,-2,15,-14,-3,1,-2,-3,-4
1533863715992039,-5,-8,12,3,2,2,3,1
1533863715992039,-5,-10,-3,-2,6,3,4,3
1533863716000993,-3,-9,-35,10,-6,-1,1,1
1533863716000993,1,6,-13,-10,-2,-5,-2,-3
1533863716015945,1,1,-13,6,4,-1,-2,-2
1533863716015945,0,1,25,9,-1,-4,-2,-2
1533863716017950,-1,-1,-19,-22,-7,-1,-1,0
1533863716017950,1,-6,2,15,30,0,1,0
1533863716038880,0,1,-2,-14,-29,-2,-2,-2
1533863716038880,0,-6,-18,-21,-4,1,-2,-1
1533863716039894,1,3,10,2,-2,-2,-3,-2
1533863716039894,-4,-4,-2,-2,-5,1,1,0
1533863716051849,2,-4,30,16,21,2,1,-1
1533863716051849,0,9,-16,-1,-6,-5,-6,-3
1533863716066842,-1,-4,13,0,-7,0,0,-1
1533863716066842,0,2,-17,-1,2,-1,-1,-3
1533863716074784,-4,-6,48,9,-9,-3,3,0
1533863716074784,-5,-4,3,11,-2,2,0,-1
1533863716083761,-1,-1,-1,-14,0,-4,-5,-4
1533863716083761,1,2,-2,16,12,2,-1,-1
1533863716098720,0,-4,-17,-16,-14,2,3,2
1533863716098720,-2,-5,22,-1,-14,-2,0,-2
1533863716099759,-2,-3,11,7,-1,-2,0,-1
1533863716099759,-3,-4,4,-9,-10,-5,-3,-1
1533863716120799,1,5,-22,5,16,-1,-7,-2
1533863716120799,0,-1,3,2,2,-2,0,0
1533863716122657,-1,-2,-15,-6,-3,2,-1,-1
1533863716122657,2,-5,-4,-2,-7,-4,-1,-1
1533863716135621,0,3,-18,-5,5,-2,-4,-2
1533863716135621,1,2,-69,-7,-6,-3,-3,-4
1533863716137616,-3,-4,29,-5,2,2,2,0
1533863716137616,-1,-4,7,1,-2,-1,1,-2
1533863716158560,-2,-2,7,1,5,-3,-3,-2
1533863716158560,1,-3,-50,-11,-8,-1,-4,-5
1533863716159557,2,3,5,12,17,-3,-1,2
1533863716159557,-3,-6,28,-21,-31,-2,3,1
1533863716180503,-4,-1,-19,-1,8,-2,0,-2
1533863716180503,-1,1,15,26,7,-3,-1,-2
1533863716182496,1,0,-12,-14,-4,0,-2,-2
1533863716182496,-1,7,-12,2,6,0,0,-1
1533863716195497,-1,-14,-42,-2,2,2,-3,-3
1533863716195497,4,-3,-3,1,-3,0,2,0
1533863716196459,24,11,33,14,-5,3,1,1
1533863716196459,14,-6,5,9,-2,4,-1,-1
1533863716217408,7,5,-10,-5,-2,0,0,-1
1533863716217408,-6,-4,29,-2,1,-3,-3,0
1533863716218400,-15,-2,-8,0,-6,-4,-3,-1
1533863716218400,-11,-1,-15,-10,1,-1,-2,-1
1533863716240375,-8,-4,18,25,29,0,1,2
1533863716240375,-11,-5,25,-27,-26,3,3,0
1533863716241340,-7,-2,-16,-6,3,-3,-2,-2
1533863716241340,-4,-3,7,5,5,0,-4,-1
1533863716257305,-1,4,19,-7,-7,-4,-3,-3
1533863716257305,1,2,-48,-6,10,-2,-2,-2
1533863716257305,-2,-9,40,0,-7,-3,-1,1
1533863716257305,-6,-12,7,15,3,-2,0,1
1533863716278270,-3,-2,-8,2,-4,-2,0,0
1533863716278270,1,-2,-9,2,6,-1,-1,1
1533863716278270,-5,-1,-84,-42,-20,-8,-4,-4
1533863716278270,1,8,58,9,2,-2,-2,-2
1533863716300181,0,2,0,-9,-6,1,0,0
1533863716300181,3,0,48,22,23,0,-1,0
1533863716301179,-5,-1,-38,-34,-22,1,-1,-3
1533863716301179,-2,-3,0,3,-4,-3,-1,-2
1533863716315141,0,1,-13,-9,-5,-3,-1,-2
1533863716315141,3,13,19,-13,-6,-5,-4,-3
1533863716316138,0,-19,-44,18,13,0,-1,-1
1533863716316138,-1,1,-3,-13,-3,1,0,-1
1533863716338084,-1,0,26,2,-4,1,2,0
1533863716338084,0,0,-16,4,1,0,-1,-2
1533863716338084,0,-8,34,4,1,-4,-3,-1
1533863716338084,0,-3,10,0,-3,1,1,0
1533863716360024,-4,-11,-62,-1,1,-1,-3,-2
1533863716360024,-1,1,27,-1,-2,0,1,1
1533863716361018,0,5,8,13,26,2,1,-1
1533863716361018,-3,-3,5,-26,-28,-4,-1,-2
1533863716374984,2,5,-13,-1,-6,-3,-4,-2
1533863716374984,2,3,70,4,-4,-1,-1,0
1533863716382963,-1,14,3,-5,-5,2,-2,-2
1533863716382963,0,-2,13,5,10,0,0,1
1533863716405901,-2,-13,-4,10,2,-1,0,2
1533863716405901,-3,-6,-10,7,-1,-2,-1,-3
1533863716406908,-1,-2,-17,-6,-1,1,-1,-3
1533863716406908,1,-4,2,10,7,-1,-3,-1
1533863716420858,0,3,17,-13,-9,1,2,1
1533863716420858,0,-6,-6,7,-1,-1,-1,1
1533863716420858,-1,-2,2,-1,0,1,-2,0
1533863716420858,-2,3,-55,16,29,-4,-5,-4
1533863716434839,8,19,96,-22,-33,-4,-3,1
1533863716434839,-8,-9,-57,4,-9,-2,0,-1
1533863716450791,-3,-1,20,-16,-7,1,2,0
1533863716450791,-2,-1,1,-6,-4,-2,-2,-2
1533863716457763,1,2,-29,5,14,0,0,-4
1533863716457763,2,1,-25,-11,5,0,-3,-1
1533863716458757,1,1,41,-3,-17,-4,-2,-3
1533863716458757,-1,-5,-47,2,2,-1,1,-1
1533863716480699,-5,-2,17,16,7,3,0,-1
1533863716480699,-1,2,12,-9,-6,-1,-3,-2
1533863716480699,-4,-5,-15,14,6,-2,0,-1
1533863716480699,-3,0,-14,-14,-7,-1,-1,0
1533863716494661,-2,-1,-22,-2,-2,-3,-2,-3
1533863716494661,1,-4,8,-6,-2,-2,1,-1
1533863716502853,1,19,-21,11,4,-3,-4,-2
1533863716502853,1,5,50,12,14,1,-1,0
1533863716526575,0,-5,33,-28,-38,-4,-2,-1
1533863716526575,-4,-2,16,5,4,2,0,-2
1533863716526575,-2,-1,-7,21,2,-3,-3,-2
1533863716526575,0,18,-16,-14,-8,-2,0,-2
1533863716540554,-5,-14,-65,-7,8,-1,0,-3
1533863716540554,0,-1,-5,-4,-1,1,1,0
1533863716540554,1,-6,-24,-4,-8,-1,-1,-2
1533863716540554,8,7,76,16,0,1,-3,-1
1533863716554501,3,-10,11,14,8,2,-2,1
1533863716554501,-2,-7,-18,-11,-4,1,-1,0
1533863716562479,-2,-2,38,6,2,2,1,0
1533863716562479,-4,0,-14,-10,-3,-2,1,-1
1533863716577443,-2,3,-6,20,13,0,-1,-1
1533863716577443,-4,3,-38,2,7,-1,-3,-2
1533863716578436,-2,-10,34,-7,-24,-4,1,2
1533863716578436,-4,-9,-27,-10,-4,-1,0,-1
1533863716600592,-3,-2,2,-5,7,-4,-1,-1
1533863716600592,-2,4,11,18,9,1,2,-1
1533863716601377,0,5,21,-8,-1,-3,-3,-1
1533863716601377,-1,-1,0,-4,-6,-3,0,0
1533863716614341,-3,1,-31,0,0,-2,-2,-4
1533863716614341,-1,1,13,-5,1,0,-1,-1
1533863716622322,-4,-5,-15,-2,3,1,1,2
1533863716622322,1,5,-24,-9,-2,-1,-2,-2
1533863716638277,-5,-6,41,-4,2,-1,0,2
1533863716638277,-1,-1,11,-8,-13,-7,-3,-2
1533863716638277,-1,-1,3,2,2,1,2,-1
1533863716638277,-5,-7,-61,-2,4,1,-3,-3
1533863716660218,3,10,-5,-11,-10,-3,-2,-2
1533863716660218,0,4,26,1,1,0,0,0
1533863716661221,-6,-2,-50,-5,-6,-1,0,0
1533863716661221,1,-6,19,12,5,1,-1,2
1533863716675244,1,0,-21,-8,3,-2,-1,-3
1533863716675244,-1,7,30,-13,-7,-3,-4,-2
1533863716683157,0,-19,10,10,9,1,2,0
1533863716683157,-3,-3,-3,-11,-14,0,0,0
1533863716698267,-1,1,31,26,11,0,0,-1
1533863716698267,-1,-5,-89,-25,-6,0,-2,-2
1533863716698267,0,7,17,7,4,-3,-5,-3
1533863716698267,0,8,9,-5,-7,-3,-2,-1
1533863716720065,-1,-16,-48,-9,-4,3,2,2
1533863716720065,0,-2,13,20,12,-1,-1,-1
1533863716721056,-4,3,3,3,-3,-1,2,-1
1533863716721056,-5,-7,-48,-6,-18,-1,0,-3
1533863716735022,2,6,67,-14,1,-5,-5,-3
1533863716735022,0,4,49,-3,-7,0,1,-1
1533863716742997,2,4,20,21,19,2,-3,-1
1533863716742997,-4,-4,-4,-4,-10,-5,-5,-2
1533863716757960,-3,0,-41,-8,-4,2,-1,-2
1533863716757960,2,0,-10,-8,1,-2,-1,-2
1533863716758954,-2,3,3,-3,-1,-3,-1,0
1533863716758954,0,-2,-15,-8,3,-2,-1,0
1533863716779898,-1,2,-9,8,0,-1,-1,-1
1533863716779898,-1,-9,-4,0,3,0,-2,0
1533863716780894,1,6,-8,5,-7,-1,-2,-3
1533863716780894,3,4,-9,-25,-15,-5,-4,-2
1533863716794861,-5,-13,3,9,6,1,1,-1
1533863716794861,-6,-3,-19,-8,-8,-1,0,0
1533863716802840,3,0,63,6,5,-3,-2,-1
1533863716802840,-1,6,-9,4,9,2,3,0
1533863716825778,-2,2,-2,4,-6,-1,1,1
1533863716825778,0,-22,-107,-19,0,-2,-3,-3
1533863716826772,0,2,54,-1,-5,-5,-3,-1
1533863716826772,-4,1,23,11,3,-2,-3,-1
1533863716840735,-1,1,-16,-21,-6,-1,-4,-2
1533863716840735,-2,-2,-19,-8,-9,-2,-3,-1
1533863716840735,1,-3,-52,-5,5,1,0,1
1533863716840735,-2,-20,44,5,-6,-1,1,1
1533863716854698,1,3,-16,10,7,1,-2,-3
1533863716854698,2,2,20,8,3,-3,0,-1
1533863716862677,-1,5,-60,-12,-17,-2,-5,-3
1533863716862677,-2,-4,7,-11,4,-1,1,-1
1533863716877640,-5,-4,-2,-2,-1,-2,-3,-3
1533863716877640,-1,6,34,9,1,0,-2,1
1533863716878634,-3,-9,-76,-10,3,-3,-2,-2
1533863716878634,-1,-3,-12,2,1,-1,-1,-3
1533863716900609,-1,5,41,2,0,2,3,1
1533863716900609,-4,0,17,10,-2,-3,-3,-2
1533863716900609,0,12,15,-5,5,2,0,0
1533863716900609,-5,-13,-95,-6,-3,-1,-3,-2
1533863716916550,0,-5,2,-18,-7,-3,-2,0
1533863716916550,0,2,-11,17,25,1,-1,-2
1533863716922520,-2,1,-11,-34,-38,-1,-3,-2
1533863716922520,1,1,-57,6,3,-1,-2,-3
1533863716937477,4,2,83,1,5,1,1,2
1533863716937477,-1,-2,14,5,-7,-2,-3,-1
1533863716938475,0,-11,-77,-5,7,-3,0,-1
1533863716938475,5,14,88,2,1,0,0,0
1533863716960418,-4,-4,-38,9,1,-2,0,-2
1533863716960418,2,-1,10,-12,-1,2,2,0
1533863716961412,-2,-4,40,14,6,-1,-1,-3
1533863716961412,1,4,-3,5,4,-2,-2,-1
1533863716983353,-2,-10,-7,10,-1,0,0,1
1533863716983353,0,0,46,9,-8,0,3,1
1533863716984350,-4,-5,-52,-11,6,1,0,-1
1533863716984350,-1,-24,-31,21,20,1,0,-1
1533863716997315,-3,8,-21,-3,-19,-7,-4,-1
1533863716997315,0,-8,-74,-31,-8,-3,0,-2
1533863716998313,-4,-13,34,5,-3,0,1,1
1533863716998313,-1,4,28,5,7,1,-1,-1
1533863717020258,2,5,0,2,1,0,-2,2
1533863717020258,0,0,2,12,4,0,-4,-1
1533863717021253,0,1,-3,-5,4,-1,1,-3
1533863717021253,0,5,29,-24,-15,-1,0,-1
1533863717043199,-3,-6,-28,-3,-3,-5,-1,-3
1533863717043199,2,9,12,-4,-5,-4,-3,-2
1533863717044191,-1,-6,18,16,7,3,2,1
1533863717044191,-3,-2,-45,-10,-9,0,-1,-1
1533863717058157,1,-1,25,22,26,1,1,-2
1533863717058157,-3,1,-28,-26,-35,-7,-4,-4
1533863717058157,-1,-14,-71,-22,0,-6,-5,-4
1533863717058157,-2,-5,51,3,0,3,3,3
1533863717080096,-3,11,-38,1,2,2,-2,-5
1533863717080096,-3,-17,-1,1,1,-2,0,2
1533863717081093,-1,-2,-46,12,0,0,-2,-2
1533863717081093,1,13,109,0,2,1,0,-2
1533863717103129,1,-2,3,5,-8,-1,-1,-1
1533863717103129,-1,3,2,32,9,2,1,-3
1533863717104038,4,14,11,-13,-20,-6,-6,-3
1533863717104038,0,2,-85,3,8,0,-4,-3
1533863717117993,-2,4,52,-8,-7,0,1,1
1533863717117993,-4,-2,31,8,8,2,1,0
1533863717117993,-4,-1,43,18,6,-1,-1,-1
1533863717117993,-5,-1,-58,-11,-9,-7,-5,-4
1533863717139935,7,21,77,10,6,-2,-3,0
1533863717139935,-2,0,-55,-12,-3,-1,0,-2
1533863717140932,-3,-9,-5,-13,0,2,2,-1
1533863717140932,5,-4,105,8,-3,-2,4,4
1533863717162874,-8,-20,-64,4,3,0,-1,-3
1533863717162874,-3,6,-58,-11,-6,0,-1,-1
1533863717170944,5,6,6,-13,-5,1,1,1
1533863717170944,-6,-5,-87,-8,-4,-1,-4,-4
1533863717178037,4,-7,89,29,26,4,4,4
1533863717178037,-4,-4,40,3,-23,-3,1,0
1533863717178831,-2,-3,-40,-22,-1,-3,-5,-2
1533863717178831,-1,1,5,-2,-6,-1,1,2
1533863717200832,-1,-4,-56,-11,-3,-2,-5,-4
1533863717200832,1,3,-23,-6,3,0,-2,0
1533863717200832,2,6,44,18,3,1,2,-1
1533863717200832,-1,-5,5,1,-2,-2,-3,-1
1533863717223714,-1,-1,-34,-10,-9,-1,-1,0
1533863717223714,2,-3,-36,1,16,1,-2,-1
1533863717224708,-1,7,45,14,-2,-2,-2,-1
1533863717224708,0,-5,80,-3,-12,-6,-5,-3
1533863717237676,-9,-15,-61,-14,-5,1,3,0
1533863717237676,-4,-3,8,13,5,2,1,-2
1533863717245652,-3,21,-65,-37,-12,-2,-2,-2
1533863717245652,-2,-7,21,20,13,1,0,2
1533863717260612,2,8,31,-15,-12,-9,-6,-2
1533863717260612,0,-6,12,8,9,-2,-3,-3
1533863717260612,1,1,80,21,4,0,3,-1
1533863717260612,2,4,0,-12,-6,-1,-1,-1
1533863717283554,-2,-1,-45,1,4,1,-1,-3
1533863717283554,-2,8,21,-22,-7,1,-1,0
1533863717284549,0,-8,4,-12,-7,-2,-1,-1
1533863717284549,-4,7,-42,12,15,-2,0,-1
1533863717297513,3,5,-26,-35,-27,-6,-6,-3
1533863717297513,-2,-3,70,19,-2,0,0,1
1533863717298511,-5,-17,-30,-5,1,0,2,2
1533863717298511,-2,-7,-50,-1,-3,-1,-3,-3
1533863717320455,-1,2,-19,-6,0,-1,-4,-2
1533863717320455,-1,-1,-3,-6,-2,2,1,-3
1533863717321450,-3,5,-62,2,1,-1,-4,-3
1533863717321450,-4,-20,-26,0,-7,-1,1,-1
1533863717343394,0,9,53,3,1,-1,1,0
1533863717343394,-1,-6,9,-13,-9,-2,-2,-1
1533863717344391,1,-4,94,29,13,1,1,0
1533863717344391,0,10,36,-6,-2,-3,-4,0
1533863717358354,1,2,-21,-32,-17,-3,-3,-1
1533863717358354,2,1,-73,-17,1,-3,-3,-2
1533863717358354,2,4,98,31,5,0,1,-1
1533863717358354,-6,-8,-116,-4,20,2,3,2
1533863717380292,-1,-7,45,2,-28,1,3,1
1533863717380292,-1,12,-6,6,11,3,2,-2
1533863717381290,0,-9,-39,-18,-1,-4,-4,-4
1533863717381290,2,13,71,3,-13,0,-2,-3
1533863717403232,-4,-21,-36,27,17,-2,-1,-1
1533863717403232,-5,-17,7,-11,1,0,2,0
1533863717404229,-5,-8,-6,4,-5,-3,1,1
1533863717404229,5,-1,68,7,2,2,2,-1
1533863717418194,-1,5,-23,-1,3,-1,-2,-1
1533863717418194,9,6,105,6,-3,-1,-4,0
1533863717418194,-3,-7,-7,1,4,-3,-2,1
1533863717418194,-8,-10,-86,-14,-8,0,-1,-3
1533863717440343,-3,0,33,7,8,1,3,-1
1533863717440343,-3,1,-1,16,-8,-3,-2,-2
1533863717441130,1,4,-34,-26,-11,-1,-2,-2
1533863717441130,2,6,-11,9,-1,-3,-3,-2
1533863717463071,3,2,-41,-12,1,-1,-3,-2
1533863717463071,0,3,33,1,2,-7,-2,1
1533863717464068,-1,-2,-24,-1,-4,-1,2,-2
1533863717464068,-2,-1,14,12,0,-3,-2,-2
1533863717478034,-1,10,-27,-1,6,-3,-1,-2
1533863717478034,-1,0,-21,18,-6,-4,-2,-4
1533863717479038,4,3,-23,-12,-9,-2,-3,-1
1533863717479038,0,5,69,4,13,1,-1,0
1533863717499975,-10,-19,-23,-12,-20,-1,1,1
1533863717499975,-2,5,6,0,3,1,0,2
1533863717500969,-2,1,8,4,-1,-1,-1,-2
1533863717500969,0,0,-41,-9,-5,-3,-1,-3
1533863717523911,9,10,66,13,10,3,-1,0
1533863717523911,-7,-6,-4,-4,3,0,3,0
1533863717523911,-3,-2,93,7,-3,-1,-3,0
1533863717523911,0,3,27,1,-1,1,1,-1
1533863717537927,-1,-3,-31,-6,-2,-2,-1,-2
1533863717537927,2,-2,37,-8,0,-2,-2,-1
1533863717538869,-3,-1,-39,2,14,0,1,0
1533863717538869,-6,-5,-68,-24,-32,-4,-1,-2
1533863717559815,1,19,52,26,2,1,0,0
1533863717559815,-1,-8,-66,-18,-2,-2,-1,-4
1533863717560814,2,-12,43,17,16,0,0,0
1533863717560814,0,-2,50,5,-19,-2,0,-2
1533863717583749,-4,-2,30,-8,4,-2,1,-1
1533863717583749,3,7,5,7,2,-1,-2,0
1533863717583749,4,8,-21,0,-4,-4,-3,-2
1533863717583749,0,-4,-66,-5,6,-1,-2,-1
1533863717597711,0,0,-74,-12,1,-5,-5,-3
1533863717597711,-5,-8,87,0,-6,3,4,1
1533863717598708,-5,11,-49,-5,-1,-4,-2,-3
1533863717598708,-2,-2,52,11,12,2,2,1
1533863717620649,0,5,-19,-5,0,-1,-2,-2
1533863717620649,2,5,-65,-26,-29,-4,-4,-1
1533863717620649,-3,0,-47,7,-3,3,0,-1
1533863717620649,-2,11,-35,4,7,-1,-1,-2
1533863717643591,-2,-8,-93,-11,-1,-4,-3,-4
1533863717643591,1,-3,10,18,8,-1,0,5
1533863717644585,-3,-10,7,-7,-4,2,1,-1
1533863717644585,1,5,18,-10,-6,-3,-5,-2
1533863717657553,-1,-2,13,4,6,-1,0,-1
1533863717657553,0,6,24,-1,1,-2,0,-2
1533863717665529,-4,-5,-17,-16,-5,1,4,0
1533863717665529,-2,-11,-7,7,5,0,-1,-1
1533863717680506,2,15,0,-13,-8,-3,-1,-1
1533863717680506,-1,-22,28,26,12,1,2,-2
1533863717681499,-4,-21,-26,-18,-7,-3,-3,-1
1533863717681499,-2,2,-19,-18,-5,0,1,0
1533863717703429,1,-3,27,4,-1,1,-2,0
1533863717703429,0,-2,12,-3,-3,-4,-3,-2
1533863717704426,6,16,-15,5,29,-2,-4,-4
1533863717704426,-5,-16,23,-15,-39,-1,3,2
1533863717717433,-2,-2,28,19,2,2,-1,0
1533863717717433,-3,2,-32,-17,0,0,-1,0
1533863717725369,2,25,-74,5,-4,-5,-6,-5
1533863717725369,1,-8,-11,-32,-2,0,1,1
1533863717748537,-5,-11,12,9,3,1,2,0
1533863717748537,-1,2,-24,-7,-3,-1,0,-2
1533863717749311,-1,-2,19,4,-9,-1,-2,0
1533863717749311,2,7,-14,1,8,-4,-4,-3
1533863717763268,3,-2,38,13,2,0,2,0
1533863717763268,-2,5,-16,-13,-6,1,0,-4
1533863717764266,-1,-3,39,3,-17,-2,-1,0
1533863717764266,4,-1,49,24,9,2,0,1
1533863717777408,-3,-6,-12,-3,-1,-4,-3,-3
1533863717777408,2,9,-76,-7,9,-1,-4,-2
1533863717785213,0,-13,31,6,0,2,5,3
1533863717785213,-3,3,-31,7,-3,-4,-4,-3
1533863717800172,2,-7,94,16,4,2,1,1
1533863717800172,-5,8,-22,-7,-3,0,0,-1
1533863717801167,-5,-11,-4,-5,-6,0,1,0
1533863717801167,0,4,-12,7,8,1,-1,-1
1533863717823111,-2,-7,-70,-37,-10,-5,-3,-2
1533863717823111,-1,-3,-30,27,8,-4,-5,-2
1533863717824112,1,0,32,-10,-21,0,-1,-3
1533863717824112,-4,-15,-69,-8,12,-1,-1,-1
1533863717837079,4,23,2,-10,-5,0,0,0
1533863717837079,0,-6,45,5,2,2,1,1
1533863717845049,-2,1,-19,10,9,-1,-2,0
1533863717845049,1,-7,-22,4,-1,-2,-4,-1
1533863717867987,-1,10,22,-5,-8,-3,-4,-3
1533863717867987,-3,-6,-86,-15,2,-2,-2,-4
1533863717868989,-2,-23,83,6,4,3,6,3
1533863717868989,-3,1,10,-4,-6,-1,0,-1
1533863717883948,-2,-14,-28,2,3,-3,-2,0
1533863717883948,0,2,1,10,7,-4,-3,-1
1533863717883948,-2,-3,-97,-9,-9,-2,-2,-2
1533863717883948,1,5,68,1,-2,-3,-1,-1
1533863717896910,-5,-10,-27,10,6,0,2,-1
1533863717896910,0,-6,8,-9,-9,-1,-1,-1
1533863717904892,-3,2,-14,-8,-4,-4,-4,-3
1533863717904892,1,8,51,10,9,1,1,0
1533863717919853,-2,-12,-4,23,14,-1,-1,-1
1533863717919853,2,3,59,-24,-20,-2,0,2
1533863717920852,2,6,41,6,0,-2,-4,-2
1533863717920852,-6,-4,-16,-8,-15,1,1,-3
1533863717943785,-3,3,48,-6,-1,-1,1,0
1533863717943785,-1,-7,-12,0,-2,2,-2,-1
1533863717943785,0,-10,-71,-15,-1,-3,-4,-3
1533863717943785,-2,3,19,9,9,-2,0,-2
1533863717957748,2,8,-82,-18,-10,-3,-2,-2
1533863717957748,1,0,19,19,24,-2,-1,-1
1533863717965728,-3,1,-2,-28,-32,1,1,-3
1533863717965728,-1,-6,-36,1,1,-2,-2,-4
1533863717980707,-3,-3,-28,-12,-11,0,-1,-1
1533863717980707,-2,-6,-68,-5,1,0,1,-1
1533863717980707,4,9,81,24,17,1,1,1
1533863717980707,-1,2,2,-7,-1,1,-2,0
1533863718003628,-1,-7,-3,-1,-6,-4,-1,-1
1533863718003628,-3,-6,-8,-4,-13,0,-2,0
1533863718004623,-1,1,-1,-12,4,-2,0,2
1533863718004623,1,4,-3,6,-7,-4,-1,-1
1533863718025586,2,8,33,30,13,3,-1,2
1533863718025586,-6,3,1,-10,-1,6,4,0
1533863718026564,0,6,-24,4,1,0,0,-1
1533863718026564,7,31,21,5,4,-5,-2,-1
1533863718040533,-4,-22,31,-8,-3,1,1,0
1533863718040533,-6,6,90,-2,-17,-4,-4,-2
1533863718040533,-6,-10,-21,4,17,1,1,-2
1533863718040533,-5,-6,-52,2,2,0,-2,-2
1533863718063478,-1,1,-22,-13,-13,-1,0,-2
1533863718063478,3,0,-21,2,-5,-5,-3,0
1533863718064476,-1,-5,-4,-6,6,-3,0,1
1533863718064476,2,-8,-36,-20,-7,-1,-3,0
1533863718086403,1,-2,-20,-7,-5,-1,-1,-1
1533863718086403,2,-4,-11,6,32,0,-1,0
1533863718086403,-4,-1,-39,-17,-40,-5,-3,-3
1533863718086403,-1,1,77,9,4,0,1,1
1533863718100564,-3,-1,5,-9,3,1,-1,-1
1533863718100564,-1,-1,6,1,-1,0,-1,-3
1533863718101368,-1,-1,-14,-3,-2,-2,0,-2
1533863718101368,5,13,45,9,8,1,-1,1
1533863718123310,-4,-25,-73,-21,-14,-5,-5,-5
1533863718123310,1,-2,51,19,7,-1,0,2
1533863718124308,0,-4,89,17,8,2,3,2
1533863718124308,-8,-13,-45,-22,-12,-2,-2,-2
1533863718146248,-2,9,-16,-8,4,0,1,0
1533863718146248,1,4,-10,-6,3,0,-2,-1
1533863718147241,2,-2,-40,-5,1,-6,-3,-1
1533863718147241,-2,-3,-4,11,-13,-1,1,-1
1533863718160206,-4,0,-52,-7,-1,-2,-4,-3
1533863718160206,-4,-6,-13,-14,-7,-2,1,0
1533863718161204,0,3,42,1,0,-1,-1,-3
1533863718161204,0,2,29,15,11,-3,-3,-2
1533863718183144,-5,-8,-27,-12,-5,2,-1,-1
1533863718183144,0,0,-52,-8,-11,-1,-3,-3
1533863718184143,0,10,24,24,22,5,0,1
1533863718184143,-2,1,-38,-3,-8,-2,1,0
1533863718206087,-3,-9,-4,12,6,-3,-4,-2
1533863718206087,-3,-9,3,-5,-6,-2,1,1
1533863718207080,-2,6,60,2,3,-2,-1,0
1533863718207080,-2,-4,-15,-20,15,0,-2,-2
1533863718220048,-1,1,-67,-23,-40,-6,-3,-2
1533863718220048,1,-1,1,3,2,1,1,-2
1533863718221043,2,-4,-29,6,0,-2,-3,-2
1533863718221043,-2,-4,-7,-7,-6,1,0,1
1533863718242985,0,0,9,10,17,2,-2,-2
1533863718242985,-2,1,32,13,-2,-1,-3,0
1533863718243982,-2,-1,-4,0,-1,0,-1,-1
1533863718243982,0,-7,-14,-8,-4,-2,0,-1
1533863718265924,2,1,24,-9,1,0,1,0
1533863718265924,-3,-4,-55,-11,-15,1,1,-1
1533863718266921,-3,-5,55,-6,-1,-1,0,0
1533863718266921,1,-5,39,18,6,-1,2,1
1533863718279896,1,0,37,24,27,-1,-3,0
1533863718279896,2,4,-23,-17,-28,-3,-3,-1
1533863718280906,-3,-24,-99,1,12,-1,-1,-2
1533863718280906,-6,-14,-48,-46,-40,-5,-4,-4
1533863718303824,2,-1,96,9,4,3,3,3
1533863718303824,-4,-18,-59,6,9,0,-2,-2
1533863718303824,-4,-4,-118,-10,-9,-4,-1,-4
1533863718303824,3,5,100,12,4,1,-2,-1
1533863718325957,0,1,-2,15,4,0,0,0
1533863718325957,-3,8,2,-31,-17,-5,-2,-3
1533863718326765,-1,6,12,8,-1,-3,-3,-2
1533863718326765,-3,-9,-52,6,28,1,-1,-1
1533863718340726,-1,7,-3,-12,-27,-1,-1,-1
1533863718340726,-1,1,30,6,10,-4,-4,-3
1533863718340726,-1,1,21,4,-16,1,0,1
1533863718340726,0,0,-9,-11,5,-2,-2,1
1533863718363680,2,2,6,4,1,-2,0,1
1533863718363680,-1,-2,12,6,-1,-2,1,0
1533863718364660,-2,1,13,-11,6,0,-1,2
1533863718364660,0,0,-19,0,-8,1,-1,0
1533863718385604,0,6,-9,0,-3,-6,0,-1
1533863718385604,1,-23,9,7,9,2,0,1
1533863718386601,2,5,80,11,6,2,2,0
1533863718386601,-2,-4,76,6,-10,-1,0,1
1533863718400564,-4,-8,15,13,17,4,3,1
1533863718400564,-2,7,-1,25,-8,0,-1,-1
1533863718400564,-4,-4,-59,-38,-24,-4,-5,-4
1533863718400564,2,-3,-40,-2,0,-1,-3,-2
1533863718423502,4,8,77,-10,5,0,-2,-1
1533863718423502,-2,1,34,9,-3,-1,0,0
1533863718424499,-2,4,-45,7,1,-1,-3,-3
1533863718424499,-1,-2,-11,-2,-1,-4,-1,-2
1533863718446441,0,0,-35,-3,6,0,-2,-2
1533863718446441,1,4,-23,-7,-9,-5,-2,-2
1533863718446441,-2,-2,20,15,1,-3,-4,1
1533863718446441,1,4,-27,-27,-12,0,5,6
1533863718460611,-5,-1,-1,20,11,-2,-9,-14
1533863718460611,1,-14,-1,-28,4,2,-1,0
1533863718461411,0,-4,9,-2,-2,1,-1,-1
1533863718461411,-3,-4,7,12,2,0,2,0
1533863718483346,-2,1,-22,-9,-5,2,3,3
1533863718483346,-5,-7,-4,-19,2,-1,-2,-1
1533863718484340,3,22,61,10,-2,-4,1,-2
1533863718484340,-1,-4,-67,0,4,-2,-5,-5
1533863718506281,-5,-15,-12,-4,-10,3,3,2
1533863718506281,0,6,-6,9,0,-4,-5,-4
1533863718506281,2,-3,-44,-14,4,-4,-2,1
1533863718506281,-2,-3,-1,4,3,3,3,-1
1533863718520286,0,2,2,3,7,-1,-2,-1
1533863718520286,-1,7,21,-14,-21,-4,-1,0
1533863718521279,-2,-9,-17,-10,2,1,0,-2
1533863718521279,1,4,11,10,-1,-2,-2,-1
1533863718543186,-4,-2,-18,-12,-15,-4,-3,0
1533863718543186,-2,-7,-3,19,15,2,1,2
1533863718544179,0,-1,29,6,14,1,1,0
1533863718544179,-3,4,-25,-33,-27,-4,-4,-5
1533863718566123,4,-6,2,2,-1,-1,1,1
1533863718566123,-1,-4,12,12,7,1,0,-1
1533863718567118,-2,-3,-3,-15,-10,-1,1,-1
1533863718567118,-1,-3,10,24,16,1,0,0
1533863718580088,-1,2,-22,-1,-4,-5,-4,-1
1533863718580088,0,8,-5,-2,-2,1,-1,-3
1533863718588061,0,-8,-26,14,20,0,-4,-1
1533863718588061,-1,7,26,-20,-26,-6,-2,-1
1533863718603033,-3,3,5,3,-1,0,1,-1
1533863718603033,0,11,7,4,3,1,0,1
1533863718604024,-3,-6,1,1,9,5,3,1
1533863718604024,-2,-6,3,23,14,-2,-4,-4
1533863718625960,-2,-5,4,-3,-30,-3,-3,-2
1533863718625960,1,3,3,6,2,-2,-1,0
1533863718626960,0,0,-9,-11,-10,-6,-4,-2
1533863718626960,1,2,4,6,7,-2,0,2
1533863718639923,-3,1,11,19,-1,-1,0,1
1533863718639923,-4,-7,-24,-11,12,-1,0,-1
1533863718647901,-3,2,2,-27,-30,-3,1,-1
1533863718647901,-3,-6,-6,6,0,-3,-2,-2
1533863718662861,0,3,19,-16,3,1,2,-3
1533863718662861,-1,-11,68,6,4,-2,0,0
1533863718663860,-1,1,15,-6,-2,-1,-1,-1
1533863718663860,1,3,-60,-16,-4,-1,-5,-3
1533863718685801,-2,-7,41,7,10,2,3,2
1533863718685801,-3,3,-24,-16,-3,-1,-1,1
1533863718686811,-3,-4,7,10,-4,-4,-3,-1
1533863718686811,-1,-4,-4,6,8,0,-2,-1
1533863718699779,0,3,-30,-16,-9,-4,-2,-1
1533863718699779,0,1,-9,-3,1,0,-1,-2
1533863718707741,-1,-2,-7,8,2,-1,-1,-2
1533863718707741,1,0,5,14,-3,-2,0,-1
1533863718723702,-1,-1,-10,7,11,-5,-2,-1
1533863718723702,1,2,6,11,-8,2,2,1
1533863718724697,-2,-9,15,-7,4,-3,-3,-1
1533863718724697,-1,-8,2,-10,11,9,0,0
1533863718745640,1,5,87,3,-8,0,1,-1
1533863718745640,-3,-3,-10,5,4,-1,-4,-2
1533863718746638,0,10,-20,11,-10,-2,0,-1
1533863718746638,-4,-7,22,-3,-2,-1,1,-1
1533863718759643,-2,-3,-34,-10,5,1,-1,-1
1533863718759643,1,0,-14,-7,-5,-4,-3,-2
1533863718767581,-1,0,14,9,7,3,3,0
1533863718767581,1,2,5,-8,-2,-4,-2,-2
1533863718783544,-1,-1,-22,-1,-5,-2,-2,-3
1533863718783544,-2,0,-1,-3,-4,-1,-3,-3
1533863718784538,0,-2,-15,1,2,-2,-2,-1
1533863718784538,1,0,1,1,-1,-2,0,-1
1533863718805480,0,-5,-62,-6,-5,-2,0,0
1533863718805480,2,5,21,7,7,1,1,0
1533863718806477,-2,-2,-2,-7,-9,-2,-2,-1
1533863718806477,-4,-2,1,7,-1,0,-2,-1
1533863718819477,-1,2,-1,-8,-1,-1,0,0
1533863718819477,-3,-6,-14,6,14,1,0,-1
1533863718827456,-2,-1,-1,-1,-10,-2,-2,-1
1533863718827456,-1,-2,3,-17,-10,-3,0,-1
1533863718843407,-1,-4,-8,15,12,-1,-3,-3
1533863718843407,-2,-2,-9,-14,-5,-5,-1,1
1533863718844419,-5,-2,5,-26,-25,-1,-1,-2
1533863718844419,-1,-1,-5,1,0,-1,-1,-2
1533863718866344,2,2,12,-1,-7,-1,-3,1
1533863718866344,2,5,-17,-1,3,-2,-4,-3
1533863718866344,1,-19,38,16,13,3,-1,2
1533863718866344,-3,-4,7,-6,-6,-3,0,-1
1533863718879284,-1,-4,-4,5,4,0,-1,-2
1533863718879284,-3,-2,-4,-9,-13,-2,0,-2
1533863718888265,0,2,-12,3,7,-2,-1,-1
1533863718888265,0,-1,-3,-6,1,-1,-2,-1
1533863718903220,-3,-3,6,-3,-2,0,-1,-1
1533863718903220,-3,-1,-2,11,-6,-4,-1,-2
1533863718909204,0,5,-11,-11,-1,-1,-1,-1
1533863718909204,0,-2,2,-1,6,1,-1,-1
1533863718926219,-2,2,-9,13,5,0,-1,0
1533863718926219,-3,-4,0,-14,-17,3,1,0
1533863718927173,-3,-2,-10,-16,1,-1,0,-1
1533863718927173,0,-1,-2,0,8,1,-1,0
1533863718948099,-1,-3,-2,-9,-10,-2,-1,0
1533863718948099,2,3,-1,-1,-2,-2,-1,-1
1533863718950095,2,1,10,24,6,2,0,-1
1533863718950095,-1,1,-2,5,6,-2,0,0
1533863718963059,-2,-1,-10,-17,-12,-2,-2,-2
1533863718963059,-3,-5,-15,-15,-8,-4,-4,-3
1533863718970040,-1,8,30,7,2,-2,0,-1
1533863718970040,-2,-4,3,-3,-6,-2,-1,-2
1533863718985998,2,-2,12,6,11,-1,-2,-1
1533863718985998,-3,-6,-2,0,-2,0,0,-1
1533863718988011,0,0,-19,-11,-7,-3,-2,1
1533863718988011,-2,-1,0,12,-1,-1,-1,1
1533863719008936,-2,1,-1,-5,-4,-2,-1,0
1533863719008936,0,-1,0,-1,-1,0,-2,0
1533863719009933,-1,-2,-11,0,5,-1,0,-3
1533863719009933,-1,4,-1,7,-1,-1,-1,0
1533863719021906,-1,-1,-10,-12,-6,-3,-2,-4
1533863719021906,2,2,5,2,7,1,1,-1
1533863719030882,-1,1,-4,6,-7,-6,-2,1
1533863719030882,1,0,-4,11,7,2,0,0
1533863719045845,-1,-1,1,-17,-29,0,0,1
1533863719045845,-2,-5,5,5,6,-1,-2,-2
1533863719047832,-1,-2,-7,1,6,1,-3,-4
1533863719047832,-4,-3,-5,-13,-4,-1,0,-2
1533863719068775,0,-1,5,18,8,0,-1,-1
1533863719068775,-1,1,0,-10,2,-4,0,-2
1533863719069773,0,-3,-8,-1,-4,-1,-1,-3
1533863719069773,1,5,2,5,-1,-3,-2,-3
1533863719082738,1,1,0,-6,8,1,-1,-1
1533863719082738,-3,-2,-5,0,-3,1,2,-1
1533863719089719,-4,-5,-24,16,6,-1,-1,-1
1533863719089719,0,-2,7,-6,-12,-1,-1,0
1533863719105723,1,1,-1,15,20,-3,-1,-2
1533863719105723,1,-2,-1,-18,-32,-3,-4,-2
1533863719107673,-1,3,-12,-12,10,0,-2,-2
1533863719107673,-3,2,-1,-10,-8,-2,-1,-3
1533863719135597,1,-1,1,6,5,-2,-2,-3
1533863719135597,0,-2,1,27,15,3,-1,-2
1533863719137592,0,-2,4,-9,-11,-1,0,0
1533863719137592,0,-3,-5,-18,-5,-2,-2,-2
1533863719142582,-1,-5,3,0,4,1,1,1
1533863719142582,0,1,-1,6,7,0,1,1
1533863719149576,-4,-6,-2,-4,-10,0,-1,1
1533863719149576,-1,-1,5,10,13,-1,-3,-2
1533863719165531,-3,3,-9,-5,-12,-2,0,-1
1533863719165531,1,2,-4,10,11,-3,-2,0
1533863719167512,0,0,7,-27,-28,-5,1,-1
1533863719167512,-2,-6,-6,12,10,4,1,-1
1533863719188464,-4,-4,-2,-16,-11,-4,-1,1
1533863719188464,-2,-2,-2,-1,11,-2,-3,-2
1533863719190450,0,-3,1,2,5,-2,-2,0
1533863719190450,-1,-1,-3,-2,-9,-1,0,-1
1533863719203423,0,0,0,0,3,0,-3,-1
1533863719203423,-2,-2,0,-8,-16,-3,-2,-1
1533863719209400,1,2,0,15,5,0,-1,0
1533863719209400,1,1,0,-13,9,0,0,0
1533863719226371,-3,-4,-3,7,-10,-3,0,-2
1533863719226371,-2,-2,1,3,1,-2,-1,-1
1533863719227351,0,-1,1,-2,3,-1,-2,-1
1533863719227351,-2,-1,-3,17,14,0,-2,-1
1533863719248296,-3,-2,0,-13,-20,-4,-2,-2
1533863719248296,1,0,1,-2,14,4,2,2
1533863719250291,-1,-2,3,-11,-15,-3,-2,-2
1533863719250291,-3,-4,-6,18,-10,-4,-1,0
1533863719263256,-2,-1,-6,-55,-9,-4,-4,-2
1533863719263256,-1,-2,-1,12,-6,-2,1,-1
1533863719269252,0,0,-2,5,21,5,-1,-1
1533863719269252,1,0,0,-24,-22,-3,1,-1
1533863719286227,0,-1,-1,18,15,-3,-1,-1
1533863719286227,-1,-1,-9,-13,-9,-3,0,0
1533863719287222,-1,-12,36,5,4,-1,0,1
1533863719287222,0,-1,0,-9,-7,0,-4,-2
1533863719308136,-1,1,0,21,18,3,2,-2
1533863719308136,-3,-3,0,-25,-24,-3,-2,-2
1533863719310131,-2,0,-14,7,3,1,0,0
1533863719310131,1,-1,-2,-6,-5,-1,-1,0
1533863719323099,1,0,6,10,13,4,0,0
1533863719323099,-4,-1,-4,12,8,0,-3,-3
1533863719337058,-4,0,-10,-5,-6,-6,-1,-2
1533863719337058,-1,1,2,10,-6,-4,-2,0
1533863719346035,-1,0,-9,-27,-19,-4,-3,-3
1533863719346035,0,0,1,-1,0,1,0,0
1533863719348030,-5,-2,-6,0,2,1,-2,-2
1533863719348030,-2,-3,-1,-3,6,0,1,0
1533863719367979,0,1,1,18,-2,-2,-1,-2
1533863719367979,2,3,1,10,25,-1,1,-1
1533863719369971,1,2,10,-9,-37,-5,-1,-2
1533863719369971,-4,-1,-6,-3,4,0,1,-3
1533863719382940,-4,-2,1,5,0,1,0,-1
1533863719382940,-3,-2,-1,-7,-6,-2,-2,1
1533863719389920,-1,1,-9,5,18,3,-1,-2
1533863719389920,0,-1,-1,-2,2,1,-2,-2
1533863719413854,1,-1,0,-2,-11,-1,-2,0
1533863719413854,-2,-3,0,2,-2,-2,1,-2
1533863719414850,3,1,-2,5,20,1,-2,-3
1533863719414850,-4,-4,-3,-12,-24,-8,-3,0
1533863719428813,-3,-4,-5,-1,9,1,0,-2
1533863719428813,1,-2,1,0,-8,-3,-4,-3
1533863719429830,-1,-1,-2,0,2,0,0,-1
1533863719429830,0,-1,0,0,12,0,-2,-2
1533863719441781,1,2,-2,-2,-12,-5,-1,-2
1533863719441781,-2,-12,-19,4,16,1,2,0
1533863719450754,-4,-7,7,-24,-34,-3,1,-2
1533863719450754,-6,-4,-4,-2,11,5,3,1
1533863719465718,-2,-5,-2,10,-3,-2,-3,-1
1533863719465718,1,4,0,0,3,-2,-3,-2
1533863719467710,2,3,-6,-2,7,-1,-3,0
1533863719467710,-1,-1,-3,-8,-7,-4,-3,0
1533863719488653,-2,2,0,-11,0,1,-1,-2
1533863719488653,0,2,4,-16,-12,-1,-3,-1
1533863719489650,0,2,-3,9,4,0,-2,-2
1533863719489650,1,2,4,1,1,1,-1,0
1533863719502616,-1,0,-2,1,7,-3,-1,0
1533863719502616,-1,-3,1,-1,-7,-3,-1,-2
1533863719518574,-2,-4,-6,-4,-3,-1,-1,-1
1533863719518574,-1,0,-3,7,-1,-4,-1,-2
1533863719526607,-2,-1,-4,-17,-3,5,0,0
1533863719526607,-1,0,4,10,4,1,0,-2
1533863719527550,-3,0,-2,4,0,-1,-1,-1
1533863719527550,1,-1,0,-1,0,0,0,-2
1533863719548496,0,-4,1,8,6,-1,-2,-1
1533863719548496,0,2,4,2,-8,-3,-1,-1
1533863719550488,0,0,-4,-9,10,2,1,1
1533863719550488,-1,0,-2,-1,-1,0,-3,-2
1533863719562456,0,0,0,9,-3,-3,-1,-1
1533863719562456,-3,-2,-3,-17,-11,-1,-2,-2
1533863719571431,-1,-1,0,16,3,-2,-1,-2
1533863719571431,0,0,-1,-2,11,-3,-1,-1
1533863719586407,-1,-2,-3,-20,-28,-4,-3,-3
1533863719586407,0,0,3,6,9,-1,-1,-1
1533863719587389,0,-3,-3,-2,-11,-2,-1,-1
1533863719587389,-3,-2,2,3,-2,2,0,1
1533863719608336,-1,-3,1,8,8,0,0,-1
1533863719608336,-3,-1,0,-3,5,1,0,-1
1533863719610328,0,-1,-3,0,-16,-8,-5,-1
1533863719610328,2,0,0,3,2,7,1,-2
1533863719622299,-1,0,-2,-6,4,-1,1,0
1533863719622299,-3,-1,0,22,-4,-3,-4,-2
1533863719631272,0,-2,-1,-9,16,0,0,0
1533863719631272,-1,-2,-2,-5,-13,-6,-3,0
1533863719646233,1,0,0,-2,0,-3,0,-2
1533863719646233,1,0,0,-2,4,0,-2,-2
1533863719647230,-1,3,0,-6,-7,-1,1,-1
1533863719647230,-5,-7,-8,-2,1,-1,-2,-2
1533863719668173,-3,-2,-2,-5,4,0,-1,0
1533863719668173,-2,-1,-1,-6,-8,-4,-1,1
1533863719670168,-1,0,1,1,11,2,-1,-1
1533863719670168,0,0,2,-5,-16,-3,0,-1
1533863719682135,1,-1,0,6,5,1,0,-2
1533863719682135,-2,-2,1,-4,-4,0,-3,-2
1533863719691113,0,-3,-3,2,5,2,0,1
1533863719691113,-1,7,-12,-5,0,0,-1,-1
1533863719706108,-4,-13,6,2,2,2,0,-2
1533863719706108,-2,0,-3,-18,-14,-2,-1,-1
1533863719707080,-1,-2,0,7,5,0,-1,-1
1533863719707080,-4,-2,-3,-14,-16,-4,1,-2
1533863719728229,-2,3,-4,0,6,-4,-1,-1
1533863719728229,1,3,-3,-2,2,1,1,0
1533863719730008,-2,-3,-3,10,1,0,-2,-1
1533863719730008,2,-1,5,-1,-2,0,-4,-1
1533863719742146,-2,-2,-1,16,9,-2,-1,-2
1533863719742146,-3,-4,-2,-13,-1,4,1,-2
1533863719750967,-2,-1,-2,0,-4,-4,-1,-2
1533863719750967,0,-3,2,11,18,0,-1,0
1533863719765915,0,0,0,-20,-31,-3,0,0
1533863719765915,-1,-1,-2,7,17,1,-2,0
1533863719767907,-2,-2,-1,6,-13,-1,-2,-2
1533863719767907,0,-2,2,-15,-6,-3,-2,-1
1533863719789087,-1,-1,-1,9,14,-1,-1,0
1533863719789087,1,-1,-2,-7,0,1,-1,-2
1533863719789849,-6,-4,-1,-2,-12,-5,-1,-3
1533863719789849,-1,-1,2,16,13,3,-1,-1
1533863719802023,1,2,-1,5,0,-2,-2,0
1533863719802023,-2,-1,-3,-36,-15,-4,-1,-1
1533863719810792,0,-3,2,15,11,-6,-3,-1
1533863719810792,-2,-1,-1,3,-4,-2,-3,-3
1533863719825758,-1,9,-12,-19,-9,-1,-1,-1
1533863719825758,-3,-6,2,21,1,-6,2,0
1533863719827746,0,2,4,-25,-8,2,1,1
1533863719827746,-4,-4,4,1,-2,0,-1,-1
1533863719848896,1,2,-1,11,-2,0,-2,-2
1533863719848896,0,3,-3,1,6,0,0,-1
1533863719849689,0,-1,-5,-14,-3,-4,-2,-1
1533863719849689,-2,-1,-8,13,-2,-2,0,-1
1533863719862657,-3,-3,1,-5,5,0,-1,-2
1533863719862657,-1,0,-2,-10,-8,-2,0,0
1533863719871660,0,0,1,9,9,-1,0,-1
1533863719871660,1,-2,-1,-41,-14,0,-2,-2
1533863719885627,-1,-3,0,5,2,2,1,0
1533863719885627,-2,-3,5,12,-2,-2,-2,-3
1533863719887588,0,0,-6,-7,8,2,-3,1
1533863719887588,2,-3,-39,18,4,-1,-1,-2
1533863719908736,-3,-18,19,-15,-11,-2,-3,0
1533863719908736,-1,-2,0,4,3,2,1,-1
1533863719910525,-2,-4,1,-4,-6,1,0,-1
1533863719910525,-1,-1,-3,8,3,-3,1,0
1533863719931468,-2,-1,-11,-4,2,-3,-4,-1
1533863719931468,1,0,-2,0,-1,3,-2,-1
1533863719932466,-1,1,-1,2,7,-1,-2,-1
1533863719932466,-1,2,10,1,-2,2,0,1
1533863719946429,-1,2,-3,2,1,-2,-1,-2
1533863719946429,-3,-1,3,-7,-6,-6,-3,-1
1533863719947427,-3,1,-7,-10,-8,-1,0,-1
1533863719947427,0,-2,6,1,1,-5,-5,-3
1533863719969371,-1,3,-12,-9,-8,-3,-3,-1
1533863719969371,-2,-6,-2,9,11,2,0,0
1533863719970365,1,11,-14,-9,-9,-2,-4,-2
1533863719970365,2,-5,35,3,1,-1,-1,1
1533863719991311,-2,2,6,0,5,6,1,-1
1533863719991311,-1,-2,-29,-3,-13,-4,1,-1
1533863719992306,3,4,115,-1,0,2,3,4
1533863719992306,-3,0,-8,3,2,-2,0,-2
1533863720006486,0,2,-2,0,1,-1,0,-3
1533863720006486,0,2,5,0,6,4,-4,-3
1533863720007276,0,2,-69,10,-2,-3,-3,-3
1533863720007276,1,-14,15,-16,-8,3,2,2
1533863720028362,-4,-5,12,2,2,-1,-1,-1
1533863720028362,-1,-2,-10,0,-6,-4,-3,0
1533863720030206,-3,-7,-21,1,-3,-2,-2,-2
1533863720030206,0,3,-1,4,8,2,-1,-1
1533863720058136,1,1,-13,-2,-7,-3,0,-1
1533863720058136,1,-4,5,1,-13,-2,0,1
1533863720060135,-3,-6,-7,2,-1,-3,0,-2
1533863720060135,-3,7,-2,5,-5,-1,-2,-2
1533863720065113,-1,1,-3,-2,0,0,0,-1
1533863720065113,0,0,20,3,0,-4,-3,-1
1533863720072093,-4,-6,6,-8,5,2,0,-1
1533863720072093,-5,2,-11,5,-12,-6,-1,-1
1533863720089050,-1,-2,-3,1,2,-2,-1,0
1533863720089050,-2,-6,-94,-4,-2,2,-1,-3
1533863720090045,1,2,84,13,2,0,0,0
1533863720090045,-2,-4,4,-23,1,-2,-1,-2
1533863720111017,-1,-1,-2,7,-14,-5,-2,-1
1533863720111017,-1,2,-11,-13,2,2,-1,0
1533863720112983,0,2,-29,-20,-1,3,-1,0
1533863720112983,1,5,-23,-5,0,-5,-5,-3
1533863720125157,-3,-5,-6,8,-2,2,1,-1
1533863720125157,1,0,30,2,-3,0,1,-1
1533863720132122,-3,-4,-4,5,-4,-2,-1,-3
1533863720132122,0,5,-16,-7,3,0,0,-2
1533863720149083,2,-3,10,2,3,-1,0,1
1533863720149083,0,3,38,-3,10,-2,-2,1
1533863720149885,-3,-1,-32,0,-6,-4,-3,-3
1533863720149885,-1,-4,19,-7,-1,4,1,0
1533863720170865,-1,-2,-4,0,-9,-5,1,-1
1533863720170865,-3,-2,6,4,-2,-2,0,-1
1533863720172823,1,-3,2,0,-1,2,0,1
1533863720172823,1,0,-7,-12,-5,0,0,0
1533863720185790,-3,-1,0,12,13,1,-3,-1
1533863720185790,-1,-2,18,10,0,-2,-1,-1
1533863720191978,0,2,-24,-18,-7,-3,0,-1
1533863720191978,-4,-5,1,12,-10,-3,-1,-2
1533863720208727,3,12,-3,-14,2,1,0,0
1533863720208727,-2,-8,-5,14,-6,-6,-1,0
1533863720209724,2,3,38,9,11,4,0,-1
1533863720209724,-1,9,92,2,-6,0,1,0
1533863720230676,-1,0,-1,6,12,1,0,-1
1533863720230676,0,-3,21,4,-10,-1,-1,-1
1533863720232669,0,-10,0,-17,-18,-3,-3,0
1533863720232669,-6,-13,-43,6,4,-1,0,-2
1533863720245631,0,0,6,0,-5,-1,-2,-1
1533863720245631,0,4,-12,-19,4,3,1,0
1533863720252611,-3,10,-41,42,12,0,-2,-1
1533863720252611,-2,-22,-12,-14,-11,-5,-3,0
1533863720268567,-2,-6,-9,1,1,0,-1,-3
1533863720268567,0,-3,24,-1,16,-1,-2,-3
1533863720269565,1,7,7,-12,-11,-5,0,-1
1533863720269565,-1,8,-6,15,9,1,-1,-2
1533863720290509,-1,-1,6,-19,-28,-9,-2,-2
1533863720290509,-3,-1,-24,-26,-9,1,-1,-1
1533863720292734,-1,-6,-6,-1,6,0,0,-2
1533863720292734,0,0,-6,1,9,-3,-3,-1
1533863720305475,-1,-7,-12,-3,0,-2,-1,0
1533863720305475,3,6,-16,7,-2,1,0,-1
1533863720312450,0,-5,42,-10,1,2,2,1
1533863720312450,-2,0,-8,-3,1,0,-1,0
1533863720328407,-3,13,-15,-12,-3,-5,-7,-5
1533863720328407,-4,-10,-12,-1,-6,-3,0,-1
1533863720330401,-3,-5,-9,12,6,5,1,0
1533863720330401,1,-1,-10,3,-7,0,0,2
1533863720350542,-1,-2,30,-4,0,3,2,0
1533863720350542,1,5,-13,8,0,-3,-2,-2
1533863720357333,-4,-7,-25,-17,-6,-3,-2,-3
1533863720357333,0,4,-24,1,11,1,-2,-1
1533863720365308,-3,-2,-27,-7,-15,-5,-2,-1
1533863720365308,1,-1,5,-3,-5,-3,-1,-2
1533863720372293,-1,0,7,5,2,1,0,0
1533863720372293,-1,0,-7,-19,-9,-1,0,-3
1533863720388250,0,-4,2,16,13,5,1,0
1533863720388250,-2,-1,12,9,-3,-2,-2,-5
1533863720390242,-1,-2,-15,-8,2,-2,-3,-1
1533863720390242,-1,2,-25,1,5,-5,-2,-3
1533863720411371,-2,-4,2,-2,7,2,0,0
1533863720411371,2,5,12,7,-3,-2,-2,0
1533863720412184,1,5,-21,15,0,0,-2,-1
1533863720412184,-7,-18,-4,-12,-7,0,-1,-1
1533863720425229,2,-2,-48,-7,7,-2,-3,-2
1533863720425229,-1,11,80,14,0,2,5,3
1533863720434125,-6,-16,25,9,8,-1,-2,-1
1533863720434125,1,-2,17,-5,1,0,0,1
1533863720449088,1,3,4,-4,-5,2,2,0
1533863720449088,-2,-10,-45,-2,5,-1,-3,-2
1533863720450082,2,2,-32,-32,-10,-5,-2,-2
1533863720450082,-1,7,31,11,-3,-3,0,-1
1533863720471224,-2,-9,-3,-1,-2,1,-1,-3
1533863720471224,0,2,-14,-12,-2,-2,-1,-1
1533863720473021,-1,1,8,3,-2,-3,-1,1
1533863720473021,-2,3,-21,0,-6,-4,-2,-1
1533863720485020,-2,1,3,6,2,-3,-2,-1
1533863720485020,-1,-6,-2,-1,3,1,-1,0
1533863720493965,-1,-1,-13,1,-3,-1,-2,-1
1533863720493965,-1,-5,-4,2,-6,2,-2,0
1533863720509068,-1,-3,14,-13,-9,-3,-1,0
1533863720509068,-3,-6,-17,-7,1,-2,-3,0
1533863720509922,-2,5,-6,-9,-8,-4,1,3
1533863720509922,-2,-4,-75,24,17,3,2,-4
1533863720530868,-6,-7,-14,-17,-8,-1,0,-2
1533863720530868,-2,0,-9,-9,-8,0,-2,-1
1533863720532882,-1,-1,7,-2,-4,-6,-2,-2
1533863720532882,3,1,8,1,-3,-2,-1,0
1533863720544842,-1,8,-24,2,2,-1,-3,-3
1533863720544842,1,-1,-4,-3,-1,-2,-1,0
1533863720553805,0,-5,-6,9,12,2,-1,0
1533863720553805,1,2,23,10,-10,0,3,0
1533863720568830,-1,-6,7,-26,3,-3,0,0
1533863720568830,0,3,4,0,-4,-3,-3,-1
1533863720569775,1,-1,8,4,1,2,-2,-3
1533863720569775,-3,-1,-37,-18,-5,-6,-6,-4
1533863720590709,-1,-9,-59,9,5,3,2,1
1533863720590709,-4,-2,5,2,5,-1,0,-1
1533863720592701,-3,-4,-14,-1,-5,-1,-2,-2
1533863720592701,-1,-1,27,-6,-2,-1,-2,-1
1533863720604668,0,-2,6,-12,-5,-3,-3,-1
1533863720604668,-5,1,-36,0,2,-2,-3,-2
1533863720613645,-2,-6,-59,-3,-13,-2,-1,-4
1533863720613645,5,7,67,-4,11,3,0,1
1533863720628637,-2,-2,28,25,5,1,-3,-2
1533863720628637,-3,-6,2,-5,-7,1,3,0
1533863720630599,-1,3,19,-8,-2,-2,-1,0
1533863720630599,0,-2,1,3,-5,-2,0,1
1533863720650545,-1,-1,19,9,-2,-2,0,0
1533863720650545,2,16,-4,-5,8,-1,-3,-1
1533863720652541,0,-10,19,7,-13,-4,-2,0
1533863720652541,-3,-1,-8,-1,1,0,-1,-1
1533863720664708,-1,-6,34,-4,-4,-4,0,0
1533863720664708,0,-1,-7,-10,-14,-2,-2,-2
1533863720673484,-2,-3,7,-2,12,1,0,-2
1533863720673484,-1,2,-5,0,-11,-5,-4,-3
1533863720688471,1,3,6,11,1,-2,-4,-2
1533863720688471,1,-2,-33,-15,-3,6,0,-2
1533863720690443,0,9,51,-5,4,-3,0,2
1533863720690443,-2,-6,24,0,-2,-4,-2,0
1533863720711383,1,0,1,6,3,0,1,-1
1533863720711383,-2,-11,6,11,2,1,2,0
1533863720712380,-3,-2,-13,0,-8,0,-1,-2
1533863720712380,-1,3,-69,-13,8,0,-4,-5
1533863720724349,-3,1,30,11,-7,1,3,1
1533863720724349,-2,-2,15,0,6,-3,-3,-3
1533863720733327,-4,-2,-11,1,1,2,0,1
1533863720733327,1,0,0,10,-6,-3,-2,-1
1533863720748283,-2,1,-13,-20,4,-3,-2,-2
1533863720748283,0,-1,11,7,-6,-3,0,-1
1533863720750285,-2,7,-28,-12,-9,0,1,-1
1533863720750285,-1,-7,-2,-2,3,-1,-2,-2
1533863720771223,1,-8,-78,2,9,-3,-5,-1
1533863720771223,-5,-6,21,12,-11,-7,-3,0
1533863720772220,-2,-4,-14,29,10,1,-3,-2
1533863720772220,2,4,34,19,12,2,2,2
1533863720784188,2,2,3,-20,-22,2,1,-1
1533863720784188,0,1,-19,-6,-9,-7,-1,-3
1533863720793164,3,0,0,7,7,6,0,-1
1533863720793164,-2,3,-19,-2,1,0,-2,-2
1533863720808162,0,-9,86,-17,-5,-1,-1,0
1533863720808162,-1,2,19,9,6,1,-1,0
1533863720810137,-1,-8,27,-8,4,-2,1,0
1533863720810137,-4,-6,-1,-3,3,-2,-1,0
1533863720831066,-1,2,-44,-3,0,0,-4,-3
1533863720831066,1,-2,19,5,5,0,0,-1
1533863720833070,-2,1,-2,-11,-3,-5,-2,-3
1533863720833070,0,1,-2,0,-3,-8,-2,-1
1533863720853009,-3,-1,-11,-8,-4,2,1,0
1533863720853009,1,-3,-13,-5,1,2,0,-1
1533863720855009,2,-3,-72,-22,-21,-1,-2,0
1533863720855009,-7,-5,-11,12,-6,-6,-4,-4
1533863720867979,-5,-2,8,-20,-17,1,-2,-1
1533863720867979,-3,-9,27,-13,-21,-2,0,1
1533863720869959,0,8,11,12,-7,0,2,-1
1533863720869959,3,10,31,-24,-7,-1,-1,-3
1533863720890938,0,-26,-45,9,11,-2,-2,-2
1533863720890938,1,-2,-55,18,21,-1,-4,-2
1533863720892898,-5,-19,-64,-23,-3,-3,0,-2
1533863720892898,-1,-1,96,6,-4,1,-1,2
1533863720913846,-2,13,26,26,9,-1,-1,-1
1533863720913846,-1,-3,-24,-16,-5,1,1,0
1533863720914838,-1,-3,-2,10,8,-3,-2,0
1533863720914838,-1,3,-17,-24,-1,0,0,-1
1533863720928803,-1,1,-10,10,4,2,0,0
1533863720928803,-2,0,12,2,-3,-5,-4,-1
1533863720929800,0,5,29,-23,-4,-3,-3,-2
1533863720929800,0,-7,-21,8,6,4,3,0
1533863720950786,-1,2,21,8,-11,-3,-1,-1
1533863720950786,0,0,-12,-33,-3,-1,-3,-2
1533863720952740,-1,0,27,17,1,0,1,0
1533863720952740,-1,-3,-33,19,6,2,-2,-1
1533863720973682,2,-9,48,40,26,0,0,1
1533863720973682,-5,-2,6,-26,-36,-3,-2,-2
1533863720974679,-2,-4,1,-13,5,0,-2,-4
1533863720974679,0,-5,-1,-13,-5,-3,-2,0
1533863720987658,1,13,-17,-7,3,3,2,-1
1533863720987658,2,7,5,6,10,-2,-1,2
1533863720994669,3,-7,-51,-7,-6,1,-2,0
1533863720994669,-4,0,8,11,-4,1,3,2
1533863721011632,-3,-1,-15,-17,-3,-9,-6,-1
1533863721011632,-1,-5,5,11,16,5,0,0
1533863721012578,-3,1,-20,2,-3,-5,-6,-4
1533863721012578,0,3,5,5,-7,-1,1,-2
1533863721033521,-1,2,-33,1,-8,-4,-3,-3
1533863721033521,-3,-17,17,5,-7,-4,2,-1
1533863721035516,-3,-1,23,11,9,0,0,-1
1533863721035516,-4,-3,-12,-15,-6,-2,-3,-3
1533863721047483,-2,-1,7,-7,0,0,-1,-1
1533863721047483,1,8,-10,7,3,-1,-1,0
1533863721054465,0,4,27,9,10,0,-1,-3
1533863721054465,-2,-2,-6,4,-7,0,0,-1
1533863721070422,-3,3,-2,-24,-15,-3,-1,-3
1533863721070422,1,0,-7,19,11,3,0,-2
1533863721078403,0,1,13,-18,7,-2,-3,0
1533863721078403,-2,7,-33,-7,-25,-5,-1,-1
1533863721093362,0,4,81,16,8,4,-1,0
1533863721093362,-2,-1,11,17,-6,-3,1,1
1533863721095357,-4,-5,-6,-16,2,-7,-3,-2
1533863721095357,-1,-10,11,13,-3,0,0,1
1533863721108325,0,-4,-33,-4,-7,2,-1,-2
1533863721108325,0,-1,-13,-5,1,0,-1,-2
1533863721114304,5,15,9,-1,-4,0,-2,-1
1533863721114304,1,-5,2,-13,8,-1,-2,-2
1533863721131263,-2,1,-6,12,1,-5,0,-1
1533863721131263,-2,-7,-6,-32,-9,-1,-1,-1
1533863721132257,-1,0,7,14,-3,-1,0,-2
1533863721132257,1,0,-6,-16,9,2,-1,-1
1533863721153214,-2,-4,-3,15,21,-3,1,0
1533863721153214,-5,6,9,-21,-58,-9,-5,-3
1533863721155199,3,3,19,-12,-4,1,0,-1
1533863721155199,0,-10,-8,-3,1,-1,1,-2
1533863721168161,-3,-4,-18,1,6,-1,-2,-1
1533863721168161,0,5,5,14,23,2,-1,-1
1533863721175146,-2,-7,-6,0,-10,-6,-2,0
1533863721175146,0,-1,-11,-9,2,3,-3,-2
1533863721191100,1,-2,-7,11,0,0,0,-3
1533863721191100,-1,-3,-3,0,5,-1,-3,-2
1533863721193096,-3,-3,-4,-24,-20,-3,-1,0
1533863721193096,3,10,69,33,21,7,1,1
1533863721213040,-5,-3,-7,-43,-19,-2,-3,0
1533863721213040,-3,-3,-4,-13,6,0,-1,-1
1533863721215035,-5,-13,-72,2,6,-2,-1,-1
1533863721215035,0,11,-37,-14,-13,-5,-3,-4
1533863721228001,0,-1,10,22,0,-1,1,-1
1533863721228001,2,-3,7,-9,12,1,0,1
1533863721234982,-2,2,-10,14,1,4,1,3
1533863721234982,0,1,31,-9,3,-6,-3,-2
1533863721265902,-2,-1,-1,-4,-10,1,2,0
1533863721265902,0,2,29,10,1,-1,0,-2
1533863721267898,1,-1,29,16,-3,2,0,-1
1533863721267898,-1,-2,-20,-19,-9,-4,-2,-1
1533863721273878,3,5,15,-12,2,3,1,-1
1533863721273878,-1,-8,18,0,0,0,-1,-1
1533863721274877,-2,-1,9,-1,-2,0,-1,-3
1533863721274877,-3,-6,2,31,19,1,2,-1
1533863721287866,-3,-3,-18,-4,-13,-4,-2,-3
1533863721287866,-2,2,-27,-9,-11,-2,-2,0
1533863721294823,1,1,22,9,10,-2,-2,-2
1533863721294823,-1,-5,-22,0,-3,-1,-2,-2
1533863721310831,-2,5,-25,-5,-3,-4,-4,-3
1533863721310831,-4,-6,-5,-1,-4,-3,-1,0
1533863721312783,2,3,68,-2,-9,2,2,1
1533863721312783,-2,-4,3,18,19,1,-1,-2
1533863721333933,-2,0,-14,-13,-24,-4,0,1
1533863721333933,4,1,31,14,21,3,1,-1
1533863721339703,-2,-11,-20,-24,-27,-3,-3,0
1533863721339703,-5,-8,-13,-18,-7,1,0,-1
1533863721346697,2,-3,12,5,3,-2,-3,-1
1533863721346697,-2,-1,-34,1,-1,-6,-1,-1
1533863721355665,-1,3,-1,12,10,-1,0,-1
1533863721355665,-1,-2,-2,-10,-4,0,-1,-3
1533863721370654,-2,-3,-6,-3,0,-1,-2,-1
1533863721370654,0,2,-43,-2,0,-1,0,-1
1533863721372616,1,-3,9,21,16,1,-2,-2
1533863721372616,-4,-1,2,-15,-23,-7,-3,0
1533863721393559,-3,-3,0,5,8,3,0,0
1533863721393559,1,5,-11,-7,-1,2,-1,-2
1533863721395554,1,6,13,7,7,0,-1,-3
1533863721395554,-1,-21,-35,-25,-15,-4,-1,-2
1533863721407521,-1,-4,1,-1,7,1,-1,-2
1533863721407521,-1,-5,-3,4,-2,-1,-2,0
1533863721416497,1,1,-24,2,1,-1,-1,1
1533863721416497,5,11,105,13,0,1,-1,1
1533863721431457,4,11,49,-3,-9,-4,-2,-2
1533863721431457,-4,-6,-1,1,-1,5,5,-1
1533863721432455,-6,-2,-1,3,-5,-3,1,-1
1533863721432455,-2,1,-37,-13,10,0,0,-1
1533863721454522,-3,-5,-23,-18,-13,-4,-1,-1
1533863721454522,0,4,16,-3,0,-2,-4,-3
1533863721459382,-1,-3,-13,-7,-6,0,0,0
1533863721459382,-1,6,-30,6,1,1,1,-2
1533863721467362,2,-2,19,10,7,0,-1,-1
1533863721467362,-2,-5,-9,1,8,0,0,-1
1533863721476338,2,-1,-3,-5,-7,7,3,1
1533863721476338,1,-1,-10,14,-4,-2,-1,1
1533863721491297,-2,2,-8,1,-1,-2,-2,0
1533863721491297,0,-3,-5,-3,-11,-6,-2,0
1533863721492305,1,0,5,5,4,-2,-3,-2
1533863721492305,-2,1,9,0,4,0,-1,-1
1533863721513253,1,9,-25,2,-3,-1,-2,-4
1533863721513253,0,-6,-19,30,14,1,1,0
1533863721515233,-7,-6,22,-46,-10,-4,1,-2
1533863721515233,0,1,-99,17,-5,-2,-3,-3
1533863721527200,-4,-13,26,-2,2,-1,1,1
1533863721527200,1,0,-2,-2,-1,-1,-3,-3
1533863721536185,1,0,-1,9,1,-1,-1,-2
1533863721536185,-3,-1,-9,-11,-9,-4,-1,0
1533863721551137,3,2,-7,4,8,-2,-2,-1
1533863721551137,-1,-3,7,0,10,3,0,0
1533863721552135,-5,-5,0,-1,-21,-6,1,0
1533863721552135,-3,-3,14,-12,-5,2,0,-2
1533863721574137,-1,-3,-5,10,17,1,-1,1
1533863721574137,-1,4,16,-9,-18,-1,-1,0
1533863721575073,1,3,-14,0,11,-2,-2,-1
1533863721575073,0,-3,12,2,3,-3,1,-1
1533863721587041,-2,-1,-7,2,-5,-3,-3,-1
1533863721587041,-3,5,-16,-23,-13,0,-1,-2
1533863721596018,-3,-17,0,16,6,-2,-4,-2
1533863721596018,-3,-6,-2,-4,-10,-1,0,-1
1533863721611178,-3,-5,-8,-4,1,1,0,-1
1533863721611178,0,3,11,1,-2,-4,-2,0
1533863721612989,0,2,-4,4,5,1,-3,-3
1533863721612989,0,0,9,-17,0,-4,-2,-1
1533863721634083,-2,0,-6,-7,-7,2,0,-3
1533863721634083,-7,-9,-92,-18,-7,-4,-1,-3
1533863721634912,0,-1,24,13,2,0,0,-1
1533863721634912,-2,-1,8,13,7,1,0,-1
1533863721646882,1,2,-2,-1,1,-1,0,0
1533863721646882,0,1,5,2,0,-1,-1,-1
1533863721655858,1,2,-16,-5,6,-1,-1,-1
1533863721655858,1,0,6,-1,-4,-3,-2,-1
1533863721670820,-1,-2,-8,5,-4,3,1,1
1533863721670820,3,0,26,-4,21,4,-1,1
1533863721672811,-1,5,-8,25,-24,-6,0,0
1533863721672811,-4,1,2,-9,-10,-1,-4,-1
1533863721693953,-3,-18,0,-3,-2,0,1,1
1533863721693953,-1,-2,-21,0,-7,0,0,-2
1533863721694752,4,-12,71,7,23,1,2,4
1533863721694752,1,2,-4,2,1,1,-1,1
1533863721706724,0,4,-7,-3,0,-6,-2,-2
1533863721706724,-3,-8,-41,24,7,2,-2,-2
1533863721715907,-2,-2,-15,-32,-10,-9,-6,-5
1533863721715907,-1,1,16,-20,-21,-4,-2,-1
1533863721730657,-2,-6,16,9,-2,1,1,1
1533863721730657,-3,1,11,-7,-4,-5,-1,-1
1533863721732652,-2,5,-30,-8,-1,-1,-2,-1
1533863721732652,1,0,4,2,8,5,1,1
1533863721753599,1,6,-11,5,13,-3,-1,-1
1533863721753599,0,1,21,-13,-3,-2,1,0
1533863721755590,1,3,-14,18,-7,1,-2,-1
1533863721755590,-3,-3,5,-23,3,-1,-1,-1
1533863721767561,0,0,-1,6,10,2,-1,-3
1533863721767561,1,1,23,-4,-23,-6,-2,0
1533863721776533,0,8,-3,-13,6,5,0,-3
1533863721776533,1,-8,-27,7,-7,-8,-1,-1
1533863721790504,0,4,40,19,1,0,0,0
1533863721790504,-7,-4,13,-12,28,8,6,0
1533863721792492,-3,3,5,-6,-13,0,-1,-2
1533863721792492,-4,0,-26,1,-23,-8,-3,-4
1533863721813435,0,-3,-31,-13,-21,-6,-5,-7
1533863721813435,3,-1,10,5,0,-2,-2,-2
1533863721815431,1,-5,-22,9,6,0,-1,-2
1533863721815431,2,-2,0,-5,13,1,-1,-2
1533863721836373,-1,-1,-3,-5,-12,-2,-3,1
1533863721836373,0,5,9,10,2,-2,-3,1
1533863721837381,-3,0,-10,-15,-1,-4,0,2
1533863721837381,-1,0,12,10,4,-2,-2,0
1533863721851339,1,3,7,4,3,-2,1,1
1533863721851339,-3,-4,-9,-9,-7,0,1,-1
1533863721852333,-1,5,-22,-19,-6,-4,-3,-3
1533863721852333,-4,-24,16,-14,7,4,1,1
1533863721873362,-1,1,-11,4,4,-2,-1,1
1533863721873362,-1,2,10,-20,-25,-3,-1,-1
1533863721875271,-4,-3,-87,3,2,1,-3,-2
1533863721875271,-1,10,17,26,11,-2,-1,-1
1533863721896230,-5,-3,-10,-52,-31,-3,-2,-3
1533863721896230,0,-3,11,22,-3,-3,-3,-2
1533863721897211,0,-5,2,-5,0,0,2,-2
1533863721897211,1,6,-12,11,5,-3,-3,-4
1533863721911177,3,-1,38,4,11,-1,0,-1
1533863721911177,-1,3,5,4,-1,-2,0,0
1533863721912172,-2,-4,10,-4,1,2,2,0
1533863721912172,-1,3,8,10,6,1,0,0
1533863721933114,-2,2,-5,8,-1,-3,-1,-2
1533863721933114,0,-3,-7,-2,2,-1,-2,-2
1533863721935109,-3,-1,27,-2,-3,3,2,1
1533863721935109,2,-1,-7,-3,-4,2,2,0
1533863721956062,-3,-4,-22,-3,0,-1,-2,-1
1533863721956062,0,0,-5,4,4,-2,-3,-1
1533863721958048,1,-4,29,1,1,-2,-2,-1
1533863721958048,-3,6,-17,11,8,0,-2,-2
1533863721970224,-2,-13,-50,-14,-18,-1,-1,-1
1533863721970224,1,6,37,14,-12,-1,-1,0
1533863721977191,-1,-7,21,5,0,0,1,-2
1533863721977191,-1,-1,-10,-20,-3,-2,-2,-1
1533863721992955,-1,-4,-54,7,9,-2,-1,-1
1533863721992955,0,-1,4,-6,5,-2,-2,-1
1533863721994949,-4,4,-3,9,11,3,-1,-1
1533863721994949,-1,1,12,7,10,3,0,-1
1533863722015893,-3,-1,-4,-18,-34,-4,-2,-1
1533863722015893,1,-3,-8,-4,-9,-3,-1,-2
1533863722017888,2,2,6,8,2,-2,-3,-2
1533863722017888,-3,-4,-13,-4,-1,-3,-3,-2
1533863722030865,0,-1,24,15,29,6,-1,-1
1533863722030865,-3,-3,-8,-16,-8,0,0,-1
1533863722037835,0,1,5,-5,-10,-3,-1,0
1533863722037835,-2,-3,1,-14,-11,-4,-2,-1
1533863722053792,-2,2,9,4,9,1,-1,-1
1533863722053792,-1,11,-2,-2,1,-3,-3,-2
1533863722055787,-2,-5,-24,2,2,-3,-4,-1
1533863722055787,1,-4,11,-3,-11,3,0,1
1533863722076007,-4,2,-5,0,1,1,0,-1
1533863722076007,-1,-10,23,5,5,-2,-2,1
1533863722078000,-2,1,-12,-15,-4,-3,0,0
1533863722078000,0,-9,2,17,4,2,0,0
1533863722089969,-2,1,16,-27,-13,-6,-3,-3
1533863722089969,0,-2,-15,15,6,3,-1,-2
1533863722096951,2,2,-4,-16,-7,-1,-2,0
1533863722096951,1,1,13,-14,-4,-3,-1,-1
1533863722113904,-3,-6,-19,2,13,6,3,1
1533863722113904,-4,-1,-25,2,-3,-6,-2,-1
1533863722114911,-2,-2,12,1,5,2,1,1
1533863722114911,0,15,69,14,-3,0,-1,-1
1533863722135847,-1,-15,21,15,2,-3,-2,1
1533863722135847,0,-1,-11,-11,0,0,-3,-2
1533863722137841,0,-1,9,5,-4,-2,-1,-1
1533863722137841,-2,-2,-45,-14,-4,0,-2,-1
1533863722149808,2,8,14,1,-3,-3,-2,-1
1533863722149808,0,-7,44,5,5,1,0,1
1533863722156998,-4,-6,-10,2,-4,-3,-1,1
1533863722156998,-3,-2,-17,6,-1,-1,1,1
1533863722173744,0,4,-3,-14,-1,1,0,0
1533863722173744,-1,-1,-22,-2,4,2,1,-2
1533863722174743,-1,2,2,-1,-10,0,-1,-2
1533863722174743,-1,-1,-10,-5,-4,-5,-3,-2
1533863722196685,-1,1,8,10,-1,0,-1,-2
1533863722196685,1,2,-1,-10,-1,2,-2,-3
1533863722198679,1,9,-35,-10,-2,-5,-4,-2
1533863722198679,-4,-9,-17,3,5,5,5,4
1533863722210674,-1,-12,-20,11,2,-1,1,1
1533863722210674,-4,-6,4,-30,-9,-2,-2,0
1533863722217628,-2,2,-6,17,9,0,1,-2
1533863722217628,-1,0,6,-5,-17,-6,-3,-5
1533863722233589,0,6,-15,-7,4,-1,-3,-4
1533863722233589,0,0,-21,-7,8,-2,-2,-5
1533863722235580,0,-1,30,3,-5,1,-2,-1
1533863722235580,0,1,-15,-13,-6,-1,-1,-1
1533863722256527,0,2,10,-7,-4,2,-1,1
1533863722256527,-1,-1,8,13,-5,-2,-1,-1
1533863722257520,-3,0,-5,-7,7,-3,-3,-2
1533863722257520,1,-1,6,-1,-1,-5,0,0
1533863722269491,1,4,-22,27,8,-1,-3,-1
1533863722269491,-4,-5,5,-2,-11,-5,-4,1
1533863722278484,-4,-10,-9,-34,-14,3,1,3
1533863722278484,-4,-12,-65,10,3,0,-4,-1
1533863722293428,-1,1,15,-12,4,1,3,-2
1533863722293428,-1,-2,-21,7,1,1,2,2
1533863722295435,0,-1,15,12,-1,-2,-1,0
1533863722295435,1,4,-1,-12,3,2,-2,-5
1533863722316562,2,-4,-4,1,1,-3,-1,-2
1533863722316562,-1,-2,3,10,-1,0,1,-3
1533863722317361,-2,-4,-12,-6,-15,-6,-3,-4
1533863722317361,-1,1,13,4,10,3,-1,-4
1533863722329329,-3,-1,7,-1,-1,-2,-2,-4
1533863722329329,0,3,12,-1,-8,-3,-1,-4
1533863722338314,0,-1,-2,5,3,-3,-1,-4
1533863722338314,-1,-4,5,0,4,1,0,-1
1533863722353265,-2,3,12,-4,3,-1,-3,-2
1533863722353265,-3,-2,-11,-4,-4,-1,-3,-1
1533863722355260,0,-1,8,7,1,-1,-1,-1
1533863722355260,-2,-2,-57,-15,-6,-1,0,-2
1533863722376401,-2,-5,-8,4,-3,0,0,0
1533863722376401,-4,-6,13,1,-10,-8,-4,-1
1533863722377227,-2,-16,-5,-19,-4,0,0,-1
1533863722377227,-3,3,23,3,-3,0,-3,1
1533863722389363,0,-1,-28,-11,-1,1,-1,1
1533863722389363,5,6,80,23,14,2,0,3
1533863722399150,-3,6,21,8,13,-2,2,0
1533863722399150,-5,-3,9,2,-15,-3,-3,-3
1533863722413106,-1,-4,1,-10,-7,-1,-1,-3
1533863722413106,1,3,-21,1,0,-1,0,-2
1533863722415100,2,1,-7,6,10,1,1,-1
1533863722415100,1,5,28,3,4,-1,1,1
1533863722436043,-1,-1,3,2,-5,-4,-1,-2
1533863722436043,-1,-2,-29,-26,3,0,0,-3
1533863722438043,0,-2,-3,10,-1,1,-2,0
1533863722438043,0,-4,-5,-4,-3,-2,-2,-1
1533863722450225,1,0,11,2,-2,-2,-2,1
1533863722450225,-2,-2,-16,-1,-10,-1,0,-1
1533863722465966,-3,0,-20,-12,-6,-1,-2,-3
1533863722465966,0,0,13,3,-2,-2,-3,-2
1533863722474161,2,3,1,0,3,-3,-2,-2
1533863722474161,-3,2,-20,-3,6,0,0,-4
1533863722474939,-3,-23,-12,-1,-3,0,1,1
1533863722474939,-5,-4,-9,-7,2,-2,0,-1
1533863722495896,-6,-4,18,11,-2,-1,1,2
1533863722495896,0,3,-25,-11,-1,-4,-2,-3
1533863722497879,3,14,85,15,-1,-1,-2,1
1533863722497879,0,0,5,-22,3,2,-1,-2
1533863722509846,-1,-5,7,29,0,-2,-2,-2
1533863722509846,0,-5,-16,-27,5,-5,-3,0
1533863722518822,0,-1,-20,7,-12,0,-2,-1
1533863722518822,2,0,23,0,-3,0,1,3
1533863722533802,-2,5,14,-10,-3,-2,1,1
1533863722533802,-2,-4,-1,11,-2,4,0,1
1533863722534817,0,1,-7,4,5,-2,-2,0
1533863722534817,-2,0,-5,3,1,-3,-3,-2
1533863722555901,-1,-1,-20,-4,-7,-3,-2,-3
1533863722555901,-1,-3,6,-7,6,1,-1,0
1533863722557718,-2,1,-10,0,-3,-3,-3,-3
1533863722557718,2,8,21,9,-7,-2,-1,-1
1533863722578663,-2,-6,-10,-11,1,0,-1,1
1533863722578663,-1,2,14,0,-9,-3,2,0
1533863722579668,-2,1,5,-7,2,3,1,0
1533863722579668,-2,1,-12,3,0,0,0,-2
1533863722593840,1,1,-3,-5,-4,-2,-4,-2
1533863722593840,0,-2,-91,-1,4,1,-4,-2
1533863722595618,3,-11,-34,8,10,-4,-2,-3
1533863722595618,-6,7,63,-43,-18,0,2,0
1533863722616561,-9,-12,2,-19,-11,-1,2,1
1533863722616561,-6,-8,-3,-4,-7,2,-1,0
1533863722617558,0,2,-21,-9,4,-3,-2,-2
1533863722617558,4,-1,-38,16,12,-2,-2,-2
1533863722629526,4,1,5,3,3,-2,-2,-2
1533863722629526,0,3,12,5,-1,-6,-2,0
1533863722638503,0,4,-8,-9,-4,0,-1,-1
1533863722638503,-1,-6,13,7,3,1,-1,0
1533863722653469,-2,5,-7,0,-2,-4,-2,-2
1533863722653469,-2,-4,6,8,-2,0,0,0
1533863722655458,-1,-3,48,-1,-5,4,1,1
1533863722655458,-2,-7,-22,8,-3,-1,-2,0
1533863722676596,0,1,1,-8,4,0,0,-1
1533863722676596,2,0,13,6,4,-1,-1,-2
1533863722677411,-3,-3,-1,-1,-7,-3,1,-1
1533863722677411,-1,-2,-11,-9,7,-2,-3,-2
1533863722689369,1,1,-35,12,-2,-4,-3,-2
1533863722689369,-1,5,52,7,1,4,4,1
1533863722698516,-4,3,-1,-17,-5,-3,-1,-1
1533863722698516,-1,-10,-4,11,-7,0,1,0
1533863722713322,0,1,-1,-9,1,0,-1,-2
1533863722713322,0,-4,-3,7,-1,-2,-3,-1
1533863722715310,1,4,-12,0,-1,0,-1,-2
1533863722715310,0,2,-3,4,5,-2,-3,-3
1533863722735243,-1,-6,-10,13,4,1,0,0
1533863722735243,2,10,85,-10,16,0,1,0
1533863722743432,-3,-10,92,2,-27,2,4,4
1533863722743432,-5,-5,-13,-4,3,-4,-3,-1
1533863722758182,-2,1,5,-1,-16,-4,-3,0
1533863722758182,-1,-4,-26,7,1,1,-1,-1
1533863722760176,0,5,-31,-2,2,-2,-2,-3
1533863722760176,2,-1,9,8,3,-2,0,-1
1533863722774167,0,-3,7,-14,1,1,-1,-1
1533863722774167,1,2,-23,-2,-1,-1,-1,-1
1533863722775136,-4,1,-15,13,4,-2,-4,-3
1533863722775136,-1,0,-16,-9,-7,-2,-2,-1
1533863722796091,-2,0,-3,0,7,1,-3,0
1533863722796091,-4,-4,-13,-10,-24,-5,-2,-1
1533863722797077,1,-1,-13,5,0,0,-2,-3
1533863722797077,-1,-2,2,-2,1,0,0,-1
1533863722819106,-1,1,10,-3,1,-2,1,-2
1533863722819106,-2,-3,-3,1,3,-2,1,-2
1533863722820017,0,0,-11,-1,-11,-3,-1,0
1533863722820017,0,3,0,3,4,3,-2,0
1533863722833981,-2,-3,3,-1,-3,-1,-1,-2
1533863722833981,-2,-2,-13,1,-2,-3,-2,-1
1533863722834977,0,4,-19,6,15,1,0,-1
1533863722834977,-1,-5,-29,-3,-13,-1,1,0
1533863722855924,-2,0,88,4,-2,3,2,0
1533863722855924,-2,-3,4,0,0,-2,-1,-2
1533863722857915,-2,-2,-13,-7,1,-3,-2,-3
1533863722857915,-1,-1,-3,0,-2,-3,-2,0
1533863722878871,3,0,-28,-2,2,0,0,-2
1533863722878871,-1,1,-7,1,-6,-4,-4,-3
1533863722879856,3,8,0,15,4,-1,-4,-2
1533863722879856,-2,-4,-7,-18,16,-3,-1,0
1533863722892825,-5,-16,1,-47,-24,-4,-2,-3
1533863722892825,1,-1,47,1,0,5,2,2
1533863722899815,-4,-6,-50,-9,-6,-1,-1,-2
1533863722899815,1,0,8,14,4,0,-1,-2
1533863722915760,2,3,-10,9,6,0,-2,-1
1533863722915760,0,-2,-18,-6,-2,-3,-2,-2
1533863722917755,0,-3,1,-9,0,0,-2,1
1533863722917755,0,2,12,7,-6,-2,0,-1
1533863722945685,-3,1,-15,-1,2,-2,0,1
1533863722945685,-2,-2,-23,3,-5,0,-1,-2
1533863722947675,-1,-3,8,-12,-3,-3,-1,1
1533863722947675,-2,-3,-5,15,15,-2,-4,-4
1533863722952681,-1,3,-11,5,2,1,0,1
1533863722952681,-3,0,1,-15,-26,-3,1,0
1533863722959849,-1,-10,-47,-5,2,3,2,0
1533863722959849,-2,-1,50,-1,-14,-1,1,0
1533863722976615,3,1,-3,12,9,-1,-3,-3
1533863722976615,-2,-5,-9,3,23,3,-3,0
1533863722977595,-3,2,-15,-1,-18,-10,-4,-2
1533863722977595,1,1,-30,5,0,-1,-1,-2
1533863722998735,1,-2,39,-18,-11,-1,0,2
1533863722998735,-3,-5,-8,-6,-3,-1,0,-1
1533863723000533,-1,0,19,2,6,-2,-2,-4
1533863723000533,0,0,-12,4,-11,-2,-2,-1
1533863723012502,2,0,-9,4,-5,-3,-3,-3
1533863723012502,2,-2,-11,-1,1,0,0,0
1533863723019592,2,0,21,14,6,0,0,0
1533863723019592,1,-2,-10,-36,-2,-1,1,0
1533863723036439,-1,3,-19,10,-3,2,0,0
1533863723036439,-3,-16,2,8,-4,-4,-1,0
1533863723037472,-4,-2,11,3,1,1,-1,1
1533863723037472,-2,1,6,-5,-7,-1,0,-1
1533863723058393,-2,0,-12,-6,2,-1,-1,-2
1533863723058393,1,4,-6,2,3,-2,-3,-4
1533863723060375,0,2,0,-8,-2,0,0,-1
1533863723060375,-1,1,82,28,4,2,2,0
1533863723073340,-4,3,-7,-2,22,4,3,-1
1533863723073340,-3,-7,2,-3,-16,-2,-1,-1
1533863723079323,-2,-2,3,-12,-16,-2,0,-2
1533863723079323,0,-2,-35,-10,-1,0,-1,-2
1533863723096278,0,0,-13,21,2,0,-2,-1
1533863723096278,1,6,13,-10,7,-1,-1,-2
1533863723097276,0,-3,-5,4,5,0,-1,-2
1533863723097276,-2,-3,-12,9,0,-2,-2,-2
1533863723118220,-2,-3,5,-13,-7,-3,0,-1
1533863723118220,0,4,-31,2,3,2,-2,-2
1533863723120214,-1,-16,25,-8,6,-1,0,0
1533863723120214,-4,-10,23,8,-5,2,0,-1
1533863723133180,-2,-3,-3,-5,0,-1,-1,1
1533863723133180,-1,2,-7,-10,-13,-3,-1,-1
1533863723139190,-2,3,-5,0,2,-2,-2,-2
1533863723139190,0,2,-10,-7,1,0,-2,-2
1533863723156131,0,-2,-6,19,5,-2,-2,-2
1533863723156131,-3,-5,-38,-27,-2,0,-1,-1
1533863723158126,1,7,57,7,-4,0,2,2
1533863723158126,-2,-11,-46,-17,-7,-4,-1,-1
1533863723179077,-3,0,10,-2,-8,-4,-2,-3
1533863723179077,-1,-1,-4,12,5,-3,-3,-3
1533863723180053,1,1,-1,-2,3,-1,-2,-2
1533863723180053,-1,2,-17,-4,-5,-2,0,-1
1533863723193045,0,0,-5,4,-2,2,-3,-1
1533863723193045,0,0,15,4,0,-2,-1,0
1533863723200000,-1,-3,-33,-8,0,1,1,0
1533863723200000,2,3,15,9,0,-2,-1,-1
1533863723216156,1,-3,-7,-3,7,0,1,-1
1533863723216156,-3,-3,6,-13,3,1,-1,0
1533863723217957,-1,-2,-5,-11,-30,-7,-2,-2
1533863723217957,0,0,-10,-3,3,2,-3,-1
1533863723238931,1,11,9,-3,-12,-2,-1,-1
1533863723238931,1,2,25,10,4,-1,0,0
1533863723239893,-5,3,-55,2,13,2,1,-3
1533863723239893,-3,-11,8,-3,-2,-2,1,1
1533863723251896,-3,0,-3,9,2,1,0,0
1533863723251896,1,-4,-49,-14,-3,0,-1,0
1533863723260841,-2,-1,-3,-10,-15,0,-4,0
1533863723260841,-1,6,-8,10,5,-3,-3,-3
1533863723275832,-2,-6,-2,-8,-2,-3,1,0
1533863723275832,-1,0,-9,12,0,-1,0,-2
1533863723277793,2,-2,12,-2,5,-1,0,0
1533863723277793,3,5,21,3,-9,-2,-2,-2
1533863723298736,-1,-10,7,-18,7,3,3,0
1533863723298736,-3,9,13,9,-2,-3,0,-2
1533863723299733,-3,-7,4,-16,-6,-2,-1,-1
1533863723299733,0,4,10,-7,2,0,-2,0
1533863723311701,-1,-3,-14,-2,-10,-4,-3,-4
1533863723311701,2,6,1,2,2,0,-2,0
1533863723320678,0,-4,17,5,11,-3,-1,-1
1533863723320678,-4,-4,-43,1,-6,-1,0,-2
1533863723335637,0,-4,6,-13,-4,1,0,0
1533863723335637,-3,7,-10,-6,-9,-4,-3,0
1533863723337633,-3,-4,-6,8,7,1,-1,-2
1533863723337633,1,-3,0,-5,-2,-3,-1,-3
1533863723358579,1,-2,4,2,-4,-2,-2,-2
1533863723358579,0,-5,11,3,3,0,-1,-3
1533863723360572,1,1,2,12,2,-1,-1,-1
1533863723360572,-1,1,2,-19,2,-1,-1,1
1533863723372539,-4,2,-18,-15,-1,-4,-4,-3
1533863723372539,1,-4,10,-2,-3,-2,1,-1
1533863723381519,-4,-2,-3,-8,-13,-1,1,0
1533863723381519,-1,-3,-2,6,2,1,2,0
1533863723396476,-3,-6,-83,4,-4,-2,-2,-2
1533863723396476,-1,-5,27,5,1,-2,-2,-2
1533863723397486,1,-2,4,-7,4,-1,-1,1
1533863723397486,-2,2,5,2,-5,-3,-4,-3
1533863723418419,2,15,-12,-3,-4,-2,-2,-3
1533863723418419,-2,-5,11,5,3,1,1,0
1533863723420426,-4,1,-42,5,9,2,-1,-3
1533863723420426,-2,-5,15,6,-12,-1,1,1
1533863723432379,0,0,17,-5,1,-1,-2,1
1533863723432379,0,-1,0,-3,-3,-1,-2,-2
1533863723441355,2,2,8,12,0,-2,-2,0
1533863723441355,0,0,-13,-22,-1,-2,-3,-3
1533863723456318,-2,-2,22,12,2,-2,-1,0
1533863723456318,-4,-2,-8,-10,-9,-5,-2,-2
1533863723457313,0,-5,6,-6,8,3,0,-1
1533863723457313,-3,-7,31,-9,-4,-3,0,0
1533863723477259,-2,-5,14,2,-19,2,0,0
1533863723477259,1,-4,-2,2,-1,0,0,-1
1533863723486234,-1,-2,1,9,2,-3,-4,-3
1533863723486234,0,1,-9,8,18,1,-2,-1
1533863723492425,0,8,-20,-6,-3,-5,-2,-1
1533863723492425,0,-18,75,0,-5,1,-2,0
1533863723501195,-3,-1,4,-14,-19,-1,2,-1
1533863723501195,-3,3,-16,3,0,0,-1,-1
1533863723516259,-3,-6,18,15,10,-1,0,0
1533863723516259,-1,5,-35,-1,0,-4,-2,-3
1533863723517253,-1,2,1,-2,6,2,-1,0
1533863723517253,2,0,52,20,0,-3,0,0
1533863723538234,1,-3,-11,-9,-5,-2,-1,0
1533863723538234,1,4,-12,-2,2,0,1,-1
1533863723540212,-1,-1,17,4,-1,-2,-2,-2
1533863723540212,-2,-1,-30,5,-1,-1,0,-2
1533863723552355,-2,-6,1,5,4,1,2,-3
1533863723552355,-2,6,-15,-11,-1,0,1,1
1533863723561136,2,-3,-43,-4,8,-1,-2,0
1533863723561136,-1,-4,41,-11,-11,-6,-5,-2
1533863723576095,3,-5,46,13,17,6,3,1
1533863723576095,-2,-8,-37,4,0,3,2,1
1533863723578104,-6,1,-8,-7,-9,-2,-2,-1
1533863723578104,-1,4,-24,16,12,0,0,-2
1533863723599037,-2,-2,7,-44,-25,-2,-3,-2
1533863723599037,-1,1,9,22,-11,-5,-3,-3
1533863723600034,-1,-3,2,-11,-1,-3,-2,-2
1533863723600034,-2,-2,-15,8,-4,-2,-2,-1
1533863723611999,-2,-1,-16,13,27,0,-2,0
1533863723611999,-1,1,-8,-10,-13,-2,3,3
1533863723626959,-2,-1,7,1,-3,-2,-8,-8
1533863723626959,-2,-1,-10,1,-6,2,-1,-2
1533863723635936,0,2,-5,-2,-5,-3,-2,-2
1533863723635936,-3,0,2,-4,4,-1,-2,-3
1533863723637930,5,2,16,9,-1,0,0,3
1533863723637930,-1,6,-99,-38,-12,-4,-3,-4
1533863723658885,-1,-8,96,6,-11,-1,2,2
1533863723658885,-4,-18,-10,-9,2,0,-1,1
1533863723659871,0,0,8,4,7,0,0,2
1533863723659871,-1,-6,-62,4,-5,4,0,1
1533863723681023,5,7,63,-3,-1,-3,-2,0
1533863723681023,-4,-3,5,10,1,-3,-4,-3
1533863723682821,-3,-3,18,37,32,-2,0,0
1533863723682821,-4,-3,21,-37,-47,-2,-3,-3
1533863723695785,-5,-5,-57,-20,-8,-7,-5,-3
1533863723695785,5,6,30,-24,-8,4,-2,-3
1533863723697787,-3,-2,-15,12,22,-2,-1,1
1533863723697787,2,-1,13,-3,-7,-3,5,2
1533863723718717,-5,-8,-31,15,1,-3,-2,-3
1533863723718717,1,3,-23,-9,4,1,-2,2
1533863723719711,3,8,-14,-4,-14,-1,-1,-2
1533863723719711,-1,-16,20,3,14,2,-1,-1
1533863723741693,-2,0,31,15,10,0,1,0
1533863723741693,-2,-1,12,5,-14,1,1,1
1533863723742651,-3,0,9,-12,-8,-2,-1,-4
1533863723742651,0,8,50,21,17,-5,-4,-2
1533863723756646,1,-2,-23,-10,-7,-1,5,5
1533863723756646,-2,-2,-49,18,13,0,-6,-3
1533863723757610,-3,-4,29,-15,-17,-1,2,5
1533863723757610,-2,0,-2,-12,-1,-1,-3,-4
1533863723778553,0,3,-37,8,10,-3,-3,-3
1533863723778553,1,5,53,1,0,-2,1,1
1533863723780548,-1,-2,-16,-10,-13,-3,-1,0
1533863723780548,-1,11,-39,4,12,-1,-1,-2
1533863723801493,-3,-21,10,-2,-6,1,-1,-1
1533863723801493,-2,-4,-5,4,10,3,-2,-3
1533863723802489,1,0,-5,-13,-12,1,1,-4
1533863723802489,-2,-1,12,9,9,-1,0,0
1533863723816456,-3,3,-31,-10,-18,-5,-2,-4
1533863723816456,0,3,-6,5,3,-5,-3,-2
1533863723817450,-3,-5,-13,-16,8,2,-3,0
1533863723817450,-1,-1,1,2,15,5,1,0
1533863723838394,-2,1,-11,17,-17,-7,-3,0
1533863723838394,0,-1,19,-16,-9,-3,-1,-1
1533863723840388,0,2,4,4,9,-1,-1,-1
1533863723840388,-1,-2,27,14,-7,5,2,1
1533863723861333,1,3,-4,-20,5,5,-1,-1
1533863723861333,-3,0,-10,46,22,-3,0,-1
1533863723862329,1,2,-8,-5,-27,-7,-2,-1
1533863723862329,-4,-12,-1,-13,4,-5,-5,-2
1533863723875295,-3,3,-10,-3,-4,1,-2,-2
1533863723875295,3,5,-8,-7,6,0,-1,-3
1533863723882277,-1,-10,-12,-10,-12,-2,-3,-2
1533863723882277,2,10,-39,7,-3,-4,-1,-2
1533863723898254,0,3,72,-4,0,3,3,2
1533863723898254,-5,-4,-4,-13,-2,-4,-1,-4
1533863723900228,0,0,2,9,8,1,-2,-2
1533863723900228,-1,-5,6,-2,3,-3,0,-1
1533863723921208,-1,2,-41,-8,-13,-3,-2,-3
1533863723921208,0,0,-6,-5,4,2,0,0
1533863723923239,0,5,11,9,5,1,0,-2
1533863723923239,-1,3,5,-17,-8,-2,-1,0
1533863723935138,-2,-1,-10,-4,8,1,-2,-1
1533863723935138,-5,-12,-5,2,8,-2,-4,-1
1533863723942117,-1,-1,-13,20,-9,-3,0,1
1533863723942117,-1,-3,7,-27,-15,-3,-4,2
1533863723958110,1,0,-5,20,15,3,-3,-2
1533863723958110,0,2,-1,-13,-21,-3,2,-1
1533863723960069,-1,-2,-7,-6,7,0,0,-2
1533863723960069,0,-3,14,16,5,-1,1,-2
1533863723981023,-3,-1,-5,-2,4,-2,-3,-2
1533863723981023,-1,1,-11,-8,-6,-1,-2,-1
1533863723983013,0,2,-15,-9,0,-2,0,-2
1533863723983013,-1,-5,19,-1,-8,1,0,0
1533863723995013,-2,-15,-52,-6,-5,-2,-1,-2
1533863723995013,2,-2,51,24,14,0,-1,1
1533863724001958,2,2,95,5,8,1,2,1
1533863724001958,-7,-8,-15,-15,-18,-7,-6,-1
1533863724018913,-2,-2,-12,6,7,2,-3,-2
1533863724018913,-2,-4,-21,-2,-8,1,1,1
1533863724019909,-1,0,-20,-34,-7,2,-3,0
1533863724019909,3,2,3,40,35,1,-1,0
1533863724040892,-4,3,4,1,-36,-11,-1,-2
1533863724040892,-2,-1,-18,-22,-19,-3,-2,-3
1533863724042851,-2,-7,-55,-6,0,-1,0,-3
1533863724042851,0,-4,33,21,7,3,4,1
1533863724055814,2,7,-48,-32,14,0,0,-2
1533863724055814,-1,-6,21,10,2,3,0,1
1533863724061797,-4,-3,-10,-2,-12,0,-5,-2
1533863724061797,2,0,-3,-6,-2,0,-2,-1
1533863724078754,-2,0,7,22,13,-2,-1,-2
1533863724078754,-1,2,-6,-3,-15,-1,-1,-1
1533863724079751,-3,-3,2,7,3,-4,-1,-3
1533863724079751,-4,-1,-109,-19,-9,-3,-3,-4
1533863724100739,2,-1,43,-9,-9,3,2,0
1533863724100739,-6,-3,-23,-9,6,-6,-5,-2
1533863724102688,-2,-2,2,7,0,-1,0,-1
1533863724102688,1,2,1,-19,-6,5,-1,0
1533863724115654,-1,-4,-17,14,24,-5,-4,-5
1533863724115654,2,10,-3,-19,-9,-2,0,-1
1533863724122637,-4,-2,-14,4,-8,-3,0,0
1533863724122637,-3,-3,28,7,0,-1,4,1
1533863724138590,0,0,11,15,13,4,0,0
1533863724138590,0,-3,24,-13,-9,-8,-4,-2
1533863724140598,2,1,2,-14,-10,4,0,0
1533863724140598,0,1,9,-1,-1,1,-3,-2
1533863724160534,-2,-2,4,-6,-10,-2,-2,0
1533863724160534,1,-1,-19,15,7,0,-1,-1
1533863724162528,-1,8,-21,-3,8,-4,-3,-2
1533863724162528,0,-6,53,3,0,1,1,0
1533863724174668,-3,-2,-6,-17,-11,1,0,0
1533863724174668,2,0,-9,-9,-1,1,0,-1
1533863724183505,-1,-3,8,5,16,0,-2,-1
1533863724183505,-3,2,-10,16,-2,-2,-1,-3
1533863724198450,5,8,66,1,-8,-4,-1,-1
1533863724198450,-4,-5,-3,-2,4,4,3,1
1533863724200430,-1,-5,-5,0,-5,-4,0,0
1533863724200430,0,-1,-7,-7,2,-2,-3,-1
1533863724221425,1,0,-4,7,-5,1,-1,1
1533863724221425,-1,-5,7,9,6,-2,-4,-2
1533863724222369,2,-2,-1,-2,-13,-1,-2,-3
1533863724222369,-2,0,-5,18,20,4,-2,0
1533863724234575,-2,4,-24,-47,-23,-3,0,-2
1533863724234575,1,4,5,14,1,3,3,1
1533863724243349,-3,-9,-4,1,1,-1,-1,0
1533863724243349,1,-1,-2,-8,-2,-5,-2,-2
1533863724258476,-1,-2,-11,1,9,1,0,-1
1533863724258476,1,0,3,4,-4,1,-1,-1
1533863724260265,0,4,-2,-16,14,-3,-2,-2
1533863724260265,-6,-17,-15,0,-11,-3,1,-1
1533863724281211,-3,-3,17,12,-13,-3,-3,-1
1533863724281211,0,0,17,4,6,-1,0,1
1533863724282206,-1,-2,-75,-6,-3,1,-1,-1
1533863724282206,1,5,27,-6,-2,0,1,-1
1533863724294176,-1,-3,-8,5,8,-1,-1,-1
1533863724294176,-2,-3,-15,-8,-1,0,-2,-2
1533863724304149,-1,-2,-1,3,-6,-2,-1,-1
1533863724304149,1,5,-21,7,6,-4,-2,-2
1533863724318111,0,-6,-2,-26,-18,-4,-4,-2
1533863724318111,-1,6,-20,-2,17,9,3,0
1533863724320106,-3,-2,49,0,-31,-5,1,1
1533863724320106,-5,-5,-15,-5,-9,0,1,0
1533863724341053,0,-1,8,10,7,-3,-2,1
1533863724341053,-1,-4,-15,0,4,-5,-7,-3
1533863724343044,0,2,15,4,5,-1,-2,-1
1533863724343044,-4,-6,-50,-11,-3,-2,-1,-2
1533863724355046,3,8,52,28,14,1,1,1
1533863724355046,-1,-2,12,-37,-30,-3,0,-1
1533863724363987,-4,-6,4,10,13,-3,-2,-1
1533863724363987,-3,-3,-80,2,-9,-4,-5,-4
1533863724378959,-4,-3,-5,-4,2,1,0,-2
1533863724378959,-1,-3,-9,8,5,-1,-2,-1
1533863724379945,3,4,21,-6,4,-1,-1,1
1533863724379945,1,-1,5,-13,-5,-2,-1,-2
1533863724408871,-2,-4,-23,4,6,1,0,-2
1533863724408871,-1,1,9,7,8,-5,-1,-1
1533863724409865,-1,8,-16,-1,-11,5,2,0
1533863724409865,-3,-5,29,-17,-11,-5,-4,-1
1533863724414853,-3,-3,-15,6,-1,-1,-2,-1
1533863724414853,-3,1,1,-5,-5,-6,-4,-3
1533863724423828,1,0,-3,7,8,-2,-2,-2
1533863724423828,1,-1,9,-2,2,2,3,-1
1533863724438788,-6,0,-54,-11,-5,0,-1,-3
1533863724438788,-1,-13,-27,5,2,-2,-1,0
1533863724439785,-1,-7,26,11,6,1,-1,0
1533863724439785,2,6,23,-6,-11,0,1,1
1533863724460750,-2,-6,-23,-6,-8,-5,-3,-3
1533863724460750,-1,0,-16,6,0,0,-1,-1
1533863724462726,-1,-5,-12,-10,-12,-5,-6,-2
1533863724462726,1,1,24,10,17,-4,-1,0
1533863724474895,-1,-1,-1,3,2,2,0,-1
1533863724474895,-1,0,6,-7,-8,-5,0,1
1533863724483667,0,5,14,1,5,3,-1,-1
1533863724483667,0,5,-6,-6,-11,-5,-2,-3
1533863724498631,-2,-17,-14,0,-1,-2,1,3
1533863724498631,-3,-1,74,4,0,2,-1,-3
1533863724499625,-2,-4,-17,2,-8,-4,-1,-1
1533863724499625,0,2,1,-1,12,4,1,-1
1533863724521570,-1,4,-2,-5,-10,-5,-5,-2
1533863724521570,-1,2,-8,12,14,-1,-2,-1
1533863724522564,0,-4,-2,-25,-5,2,1,-2
1533863724522564,-3,3,5,24,4,-3,-3,-1
1533863724542512,3,4,55,0,1,1,1,1
1533863724542512,-4,-7,-16,-10,-6,-1,-1,-2
1533863724543508,0,4,-4,-2,0,1,-1,0
1533863724543508,-1,-1,-14,-4,0,-1,-1,-2
1533863724557474,-3,0,-14,1,-6,-1,-4,-2
1533863724557474,-1,0,-14,-5,3,2,-1,-2
1533863724558467,-1,-4,-3,9,-4,-2,-3,-2
1533863724558467,-1,-6,11,-13,-1,3,1,-1
1533863724580409,1,3,-2,31,30,0,0,-2
1533863724580409,0,-15,8,-30,-50,-7,1,0
1533863724581406,-3,-2,-10,-7,10,-4,-4,-2
1533863724581406,-2,-15,13,-1,-5,-3,-4,-2
1533863724603511,-5,-3,-86,-8,-2,-4,-1,-3
1533863724603511,-1,9,1,1,1,0,0,-1
1533863724603511,-3,-14,11,-1,-5,-1,0,-2
1533863724603511,0,4,24,-1,-5,-1,1,2
1533863724617332,-1,-4,-6,-6,3,4,2,0
1533863724617332,0,-2,-14,5,7,1,0,-2
1533863724618329,-4,-2,-8,0,-11,-5,-3,-2
1533863724618329,1,5,-4,-2,-4,-2,-3,-1
1533863724640253,0,-4,22,2,-3,0,0,-1
1533863724640253,-2,4,-13,-3,0,-2,-2,-1
1533863724641250,2,3,13,9,4,-1,0,-1
1533863724641250,0,1,-14,-7,0,1,0,-2
1533863724663191,2,4,18,9,-4,-5,-1,0
1533863724663191,-3,-9,6,5,11,-3,-2,-3
1533863724664200,-2,-4,-55,12,23,2,-2,-2
1533863724664200,-4,2,6,-25,-37,-6,-3,0
1533863724678148,-4,-7,4,9,-4,-2,-1,-1
1533863724678148,-1,14,40,6,17,4,-1,-2
1533863724679154,-4,-5,6,2,-12,-6,-2,-1
1533863724679154,2,-1,-6,-1,9,3,0,-2
1533863724700089,2,4,-24,-23,-5,-4,-4,-3
1533863724700089,0,2,32,17,2,2,1,2
1533863724701087,-1,0,-27,-1,5,3,-1,-1
1533863724701087,-3,8,40,5,-2,-2,1,-1
1533863724723033,-1,-10,8,-14,-12,-3,0,-1
1533863724723033,2,-3,-34,-1,-2,0,0,-2
1533863724724025,2,4,9,8,12,2,0,0
1533863724724025,0,1,-23,-17,-12,-5,-3,-2
1533863724737991,1,4,53,-1,-11,1,0,-1
1533863724737991,-1,-4,-16,-6,-3,0,-2,0
1533863724738985,-1,4,18,-14,-1,-2,-1,-1
1533863724738985,0,-5,-21,13,12,1,0,-3
1533863724759933,-2,-3,0,-1,-4,-1,-1,-2
1533863724759933,0,-4,-16,-5,-7,-4,-2,-3
1533863724760926,-3,-3,11,-11,-11,1,2,-1
1533863724760926,-1,-4,4,5,11,0,-2,-2
1533863724782873,-4,-1,-87,-10,8,-3,-1,-2
1533863724782873,-5,7,-67,-13,-10,-3,-3,-4
1533863724783865,1,-8,27,20,8,2,4,3
1533863724783865,-7,-10,1,1,10,5,2,1
1533863724797828,-3,-4,-32,-7,-6,-7,-5,-2
1533863724797828,-1,2,-26,4,-2,-2,-4,-1
1533863724798825,-2,1,-3,-23,-18,-4,-2,-1
1533863724798825,3,6,3,14,6,0,-1,-1
1533863724820771,1,4,15,0,4,1,-1,1
1533863724820771,-1,-6,4,-5,-3,-1,-2,-3
1533863724820771,0,1,13,9,8,-4,-2,-1
1533863724820771,-1,-4,2,-1,0,0,-1,0
1533863724842739,-1,-3,12,-5,-5,-2,-2,-1
1533863724842739,3,-2,17,0,-5,2,2,2
1533863724843705,-4,-13,-93,-17,16,3,1,-2
1533863724843705,-6,-1,14,-20,-41,-9,-6,-2
1533863724857668,-2,0,16,0,1,0,0,-2
1533863724857668,0,-1,14,4,7,1,-3,-2
1533863724858665,1,6,-19,-1,-8,-4,-4,-3
1533863724858665,3,-5,38,-9,13,4,3,2
1533863724880800,-2,-2,54,18,24,2,1,3
1533863724880800,-6,-7,-14,4,-24,-5,1,0
1533863724880800,0,2,33,-3,-9,3,0,-2
1533863724880800,0,3,-29,-2,1,-4,-4,-5
1533863724902591,3,2,8,1,2,2,1,-1
1533863724902591,1,0,7,9,19,-2,1,1
1533863724903546,-1,1,-2,19,-17,-3,-4,-1
1533863724903546,-3,-1,-6,-11,-2,-1,0,-3
1533863724917508,-2,-2,-12,0,-1,0,-1,-3
1533863724917508,-2,-7,-68,-14,1,1,-2,-2
1533863724918508,0,0,22,-1,3,-1,-1,0
1533863724918508,-1,-3,-13,7,3,-2,-2,0
1533863724940448,-2,-1,20,2,-8,0,-1,0
1533863724940448,-2,-1,-4,0,4,-3,-1,-3
1533863724941444,-1,4,16,0,-5,-2,-1,-1
1533863724941444,-4,-3,-33,4,13,2,0,-1
1533863724962394,-3,-21,30,-10,-3,1,2,1
1533863724962394,-4,-3,-3,-2,-7,-6,-1,-2
1533863724963399,-1,-1,0,-8,-13,-1,-1,-3
1533863724963399,0,1,2,0,10,1,-2,-1
1533863724977360,0,7,-11,-2,-8,-2,-2,-2
1533863724977360,-1,-1,10,3,2,-1,0,0
1533863724978344,1,-1,20,9,9,0,0,-3
1533863724978344,-3,-2,-4,-13,-8,-3,-3,-2
1533863725000320,-2,3,-16,-2,1,0,-2,-1
1533863725000320,1,-1,23,-5,-6,-2,-2,0
1533863725001284,-3,2,-14,-4,-6,-3,1,1
1533863725001284,-1,-1,7,17,7,3,1,-1
1533863725023225,-1,2,-10,-14,6,-1,-2,0
1533863725023225,-2,3,-67,-6,-16,-3,-2,-3
1533863725023225,-2,-7,42,0,5,0,-1,0
1533863725023225,-1,0,-5,-1,-10,-5,-1,0
1533863725038184,-2,-8,17,3,-12,-1,-1,0
1533863725038184,-1,2,-4,0,15,3,0,-1
1533863725038184,3,4,23,-10,-4,-2,-3,0
1533863725038184,-1,2,-21,2,-10,-5,-5,-3
1533863725060129,-5,-5,16,11,4,3,4,1
1533863725060129,-3,-5,26,-3,-9,-2,-2,-1
1533863725061124,-2,-3,-6,4,8,0,0,-1
1533863725061124,2,-1,3,-2,5,-2,0,-1
1533863725083388,3,7,-16,-6,-14,-5,-3,-4
1533863725083388,1,-2,8,14,19,0,-2,-2
1533863725083388,2,8,5,-23,-9,5,3,0
1533863725083388,-2,1,57,21,0,-2,0,-1
1533863725098319,-1,1,-14,-12,-2,0,1,1
1533863725098319,-2,-1,27,0,-2,-1,1,0
1533863725098319,0,1,-15,8,14,-1,-4,-2
1533863725098319,2,-2,-4,0,-6,-1,0,-2
1533863725120108,0,1,-6,-3,4,-5,-3,-2
1533863725120108,0,5,20,3,-8,-2,0,-1
1533863725121100,-3,-16,-16,-6,2,0,-2,-2
1533863725121100,-3,-4,-6,-9,2,2,0,2
1533863725143256,-3,-2,20,1,-5,-1,0,0
1533863725143256,-4,-9,-7,-3,7,4,1,0
1533863725144040,-4,1,-18,3,-17,-7,-3,-3
1533863725144040,0,-2,-24,-6,-2,-4,-2,-1
1533863725157997,2,3,-2,1,4,1,-2,0
1533863725157997,1,5,-6,-13,-3,2,-3,-4
1533863725158997,1,5,70,12,10,-6,-3,1
1533863725158997,-3,-5,-17,5,9,4,2,-2
1533863725179939,-5,4,-44,-24,-30,-5,-3,-2
1533863725179939,-1,-5,11,0,3,0,1,0
1533863725180938,-4,-3,-34,-1,-15,-4,-1,-2
1533863725180938,3,-2,-8,-18,0,-2,-1,-1
1533863725202877,0,-1,3,8,8,0,-2,-2
1533863725202877,0,0,9,1,14,-3,-2,-1
1533863725203875,-1,0,-8,-11,-17,0,-1,0
1533863725203875,-3,3,0,9,5,0,-3,1
1533863725216843,-1,-4,-9,4,-5,-1,-1,-2
1533863725216843,3,12,88,5,-2,-2,-1,1
1533863725225971,-2,-9,-8,11,12,0,-2,-1
1533863725225971,0,0,1,-15,-13,-3,-1,-2
1533863725240957,0,-3,1,2,13,0,-1,-1
1533863725240957,1,-5,-29,-4,-11,0,1,-1
1533863725240957,-2,0,-13,-3,-1,-3,-1,0
1533863725240957,0,0,17,-6,-17,-2,0,-1
1533863725262809,0,-2,-7,5,8,-2,0,-2
1533863725262809,-2,-2,-13,-3,-8,-3,-2,-3
1533863725263714,-1,0,-5,-3,4,2,1,-1
1533863725263714,-1,-2,-8,7,8,-1,-1,-2
1533863725276684,1,1,1,-1,-1,-1,-1,-1
1533863725276684,-3,-2,-10,-4,-8,-2,-1,-2
1533863725285656,-2,1,-20,-15,-4,0,0,0
1533863725285656,-1,-4,20,13,6,-1,-3,-2
1533863725300617,-3,-2,2,0,8,0,0,-2
1533863725300617,-3,-1,-4,-1,-8,0,-2,0
1533863725300617,-1,0,-9,-4,-10,-4,-2,-1
1533863725300617,1,1,-7,-9,3,2,0,1
1533863725323624,0,-1,3,-1,-2,-1,-1,0
1533863725323624,1,-4,-9,-1,7,1,-1,0
1533863725324586,-1,2,-19,-11,-8,-4,-1,-1
1533863725324586,4,10,98,18,6,2,-1,0
1533863725337541,-3,11,-13,-9,-6,-1,-3,-4
1533863725337541,-4,3,-30,-1,7,-1,-1,-1
1533863725345507,-1,-10,27,14,-3,-2,0,-1
1533863725345507,-4,-8,-18,-11,-11,-4,-1,-1
1533863725360459,1,-3,-17,-9,5,-3,-4,-2
1533863725360459,-2,2,3,-5,4,4,1,-1
1533863725361466,-3,0,3,13,-5,3,2,1
1533863725361466,-2,0,-35,-2,3,1,-1,-2
1533863725383449,-1,-3,-10,-2,-11,-1,-1,-3
1533863725383449,0,-5,-1,18,-2,-5,-3,-3
1533863725383449,-1,-3,-18,-5,10,0,-1,-1
1533863725383449,-1,0,-15,1,3,0,0,0
1533863725397358,-1,2,4,-1,-7,-1,1,2
1533863725397358,1,-5,72,-7,0,-3,0,1
1533863725405449,-2,1,-11,-6,2,1,-3,-4
1533863725405449,0,-1,-9,-1,-7,4,1,1
1533863725420299,-1,-3,15,5,-9,-3,1,1
1533863725420299,-1,0,-28,14,24,1,-2,-2
1533863725421293,-6,-4,-76,-55,-30,-4,-6,-3
1533863725421293,-2,-3,30,-3,-10,-1,0,0
1533863725443238,-3,-5,-11,1,-2,-3,-1,0
1533863725443238,1,5,5,-1,0,-2,-1,0
1533863725443238,-1,-6,9,12,2,0,-1,-2
1533863725443238,0,0,-22,-4,9,0,-2,-2
1533863725457201,-3,-6,-12,-8,4,1,1,-1
1533863725457201,0,-1,-10,-1,-17,-3,0,0
1533863725465176,1,-1,-27,7,11,-2,-2,-2
1533863725465176,-3,1,18,5,-1,-3,-1,-3
1533863725480136,0,-1,19,6,12,4,1,-1
1533863725480136,-3,-2,-15,-10,-18,-6,-1,-2
1533863725481133,2,2,10,12,1,2,3,0
1533863725481133,0,8,-20,-17,3,-2,-1,0
1533863725503127,-4,-15,-14,-2,-9,-2,-3,0
1533863725503127,0,-3,-10,-5,3,2,0,-2
1533863725504072,3,13,112,4,0,0,0,1
1533863725504072,-1,-1,-9,3,-1,-1,-1,-4
1533863725519032,3,5,10,3,5,-4,-2,-2
1533863725519032,1,-6,16,-5,5,7,1,1
1533863725525018,-1,-3,44,28,-2,0,5,2
1533863725525018,-5,-8,-22,-6,-14,-3,-3,-2
1533863725539976,-2,1,29,-5,0,2,-1,-3
1533863725539976,-3,-4,-21,-9,-12,-4,-3,-2
1533863725540973,1,3,-19,-1,13,0,-3,-2
1533863725540973,1,-3,2,4,2,-2,-1,1
1533863725562916,0,2,-16,2,-6,-3,0,-2
1533863725562916,-1,2,-5,-7,-4,-5,-1,-1
1533863725563913,-1,-9,-7,-1,4,0,0,0
1533863725563913,-3,0,-10,7,-6,-3,-1,0
1533863725585853,-2,-2,-8,-11,4,2,-2,-1
1533863725585853,-2,8,-9,1,-7,-3,-2,-2
1533863725586853,1,-6,-9,-6,-1,-3,-3,-3
1533863725586853,-1,-4,-6,-1,-1,-1,0,-2
1533863725600873,-2,2,0,9,-9,-4,-2,-1
1533863725600873,1,-1,-18,-9,19,6,-1,-2
1533863725600873,-3,-7,-44,-10,-8,-11,-4,-1
1533863725600873,1,8,92,4,-8,7,2,0
1533863725622955,-3,-6,52,5,-4,-2,2,-1
1533863725622955,-5,-3,-15,2,-6,-4,0,0
1533863725623752,1,1,-11,-7,4,-2,0,-2
1533863725623752,2,-5,-30,-3,6,-5,1,-2
1533863725645763,0,4,-23,-2,-6,-1,-3,-2
1533863725645763,2,-3,17,0,5,2,-3,-2
1533863725646717,1,0,-31,-10,1,-1,-3,-2
1533863725646717,-4,-4,-31,11,-10,-1,3,1
1533863725660653,-3,0,-6,-11,0,0,-2,-1
1533863725660653,-3,-5,-7,4,-1,-4,-1,0
1533863725661672,-4,-1,3,-12,-17,-5,-3,0
1533863725661672,0,0,-18,-3,2,1,-1,-2
1533863725682797,2,-1,-11,6,8,4,0,1
1533863725682797,-1,-4,-2,2,-12,-4,0,0
1533863725683593,0,2,-33,-27,-6,1,-1,-2
1533863725683593,0,-11,-5,23,12,-4,-5,-1
1533863725705537,-6,-9,-40,-1,-4,-2,1,0
1533863725705537,-6,-4,5,3,0,0,0,0
1533863725706532,-1,3,21,1,-5,2,0,-2
1533863725706532,1,1,-16,-12,4,-1,1,0
1533863725720500,2,-2,-12,-2,-9,-6,-5,-3
1533863725720500,-1,5,-17,-1,-2,-4,0,-2
1533863725721529,-2,-12,-3,11,17,6,2,0
1533863725721529,-5,-2,-14,-18,-16,-2,0,-3
1533863725742468,0,0,8,3,-7,2,1,-1
1533863725742468,0,0,10,-8,-9,-1,-2,0
1533863725743433,2,4,11,4,9,-2,-2,-1
1533863725743433,-1,-2,2,21,27,0,-3,-2
1533863725766374,-1,0,6,-19,-18,-1,0,1
1533863725766374,2,3,-22,-21,-12,-5,-2,-3
1533863725766374,-1,12,17,6,-7,2,-1,-1
1533863725766374,0,-7,13,5,12,5,2,2
1533863725780336,-3,-2,-4,16,6,-1,0,-2
1533863725780336,-2,-9,-82,-25,-20,-2,0,-3
1533863725781379,-4,1,29,2,-1,-3,-1,0
1533863725781379,0,3,-5,-13,-17,-4,-3,0
1533863725803283,3,7,10,7,12,0,-4,-1
1533863725803283,-1,3,-48,15,18,-1,-3,-3
1533863725803283,-7,-10,38,7,-3,4,4,1
1533863725803283,-2,2,5,-8,-12,-1,-2,-2
1533863725826407,-2,-5,-2,4,15,1,0,-1
1533863725826407,-2,2,19,0,-5,-3,-4,-4
1533863725827224,2,1,-10,-3,-1,-5,-2,-1
1533863725827224,0,0,-1,-6,-9,-4,-2,-2
1533863725840176,2,3,-2,-14,-4,3,0,-1
1533863725840176,1,1,39,9,5,-3,-1,0
1533863725841170,-2,-4,-20,0,7,0,-2,-4
1533863725841170,-1,-4,-7,-10,-16,-1,0,-2
1533863725863112,-3,1,16,-3,-3,-4,-2,-1
1533863725863112,0,-7,18,0,0,0,1,-1
1533863725863112,-2,-5,-7,4,1,0,-2,-1
1533863725863112,-1,0,-8,-4,12,-1,-1,-1
1533863725886050,2,5,-9,9,-16,-6,-1,-2
1533863725886050,1,2,32,4,8,3,-1,3
1533863725887048,-2,-3,-15,4,5,-2,-3,-3
1533863725887048,0,6,67,-16,-7,2,-1,-2
1533863725900195,-3,-5,-3,1,1,1,1,-1
1533863725900195,-3,-7,9,9,3,-2,-1,0
1533863725901011,0,3,-14,9,13,1,-1,-3
1533863725901011,-5,-3,-42,-33,-21,-5,-3,0
1533863725923169,-2,-1,-8,16,4,-3,-1,0
1533863725923169,-2,-2,48,-4,-15,0,-1,0
1533863725923948,-1,-2,-1,3,16,2,-2,-2
1533863725923948,-1,7,-29,8,-11,-3,-1,-3
1533863725945890,1,-3,-11,-12,-5,1,0,-1
1533863725945890,-3,-7,-26,0,5,2,0,-2
1533863725946888,1,2,9,2,-10,-1,0,-2
1533863725946888,2,1,-8,-11,-7,-1,-1,-2
1533863725960883,-3,-4,0,-2,8,-3,-1,-2
1533863725960883,0,3,2,7,3,-1,-1,-3
1533863725960883,-1,-1,0,-10,-7,-2,-4,0
1533863725960883,2,-5,2,9,10,-2,-2,0
1533863725982795,1,2,-5,6,13,2,1,-1
1533863725982795,1,2,91,1,-18,-3,0,1
1533863725983789,-2,0,-3,-7,-11,-1,-1,0
1533863725983789,-3,-5,-14,13,7,-1,-2,0
1533863726005923,-3,0,-11,-3,1,-1,-1,-2
1533863726005923,1,-6,7,5,7,1,0,-1
1533863726006727,3,1,8,-17,-4,-4,0,-1
1533863726006727,0,9,-18,5,-8,8,2,-1
1533863726020893,-3,-7,21,0,1,-2,-1,0
1533863726020893,-3,-2,-29,7,-1,-1,-2,-1
1533863726020893,-1,8,3,0,-2,-5,0,-1
1533863726020893,-3,-19,-21,3,8,-3,0,-1
1533863726042635,1,1,-9,-7,8,-2,-3,-1
1533863726042635,1,6,-24,-4,-15,-3,-1,-1
1533863726043644,-3,-9,-29,-5,3,3,-3,-2
1533863726043644,-1,-9,-64,6,1,0,1,0
1533863726065725,-4,-5,21,-9,-13,0,1,-1
1533863726065725,0,-2,-5,-6,13,-1,-1,-3
