timestamp,emg1,emg2,emg3,emg4,emg5,emg6,emg7,emg8
1533863328769406,-1,0,1,2,-4,-1,-1,-2
1533863328769406,-2,-1,-4,-3,-4,1,0,-2
1533863328770404,-1,-9,22,3,3,1,0,-2
1533863328770404,-3,-5,-19,9,26,-1,-2,-4
1533863328772400,0,2,3,-31,-36,-1,4,2
1533863328772400,-3,-10,-18,3,-9,1,-2,-2
1533863328772400,-2,2,-13,-23,-1,-1,-1,-1
1533863328772400,0,-1,9,6,-8,-1,-1,-1
1533863328779390,0,0,9,13,14,3,-1,-1
1533863328779390,-1,4,-2,-9,2,-2,-1,-1
1533863328786361,-2,0,-3,4,1,-2,0,-2
1533863328786361,2,-1,6,0,2,-1,-2,0
1533863328800347,0,0,-7,-8,2,-3,-1,-2
1533863328800347,-1,1,5,2,1,-1,-1,-1
1533863328812299,-2,-1,-7,15,-2,0,-4,-3
1533863328812299,-1,-1,0,-10,-10,-2,-1,0
1533863328815287,-1,1,-4,8,0,1,-3,-2
1533863328815287,0,-1,3,4,1,-2,-1,-4
1533863328841215,-1,-1,12,14,5,-1,0,-2
1533863328841215,-2,2,0,-5,-3,0,-1,1
1533863328842212,-2,-5,-15,-31,-5,-6,-2,-1
1533863328842212,-3,0,14,11,1,-4,-1,2
1533863328860164,-1,-4,-22,-9,0,-2,-2,-2
1533863328860164,0,4,38,37,3,4,1,-2
1533863328894073,-1,2,2,1,2,-2,0,3
1533863328894073,-1,-1,4,-4,1,0,-3,-2
1533863328895071,1,2,1,-2,7,0,-1,-2
1533863328895071,0,1,11,1,6,1,1,0
1533863328899095,-1,-1,-2,12,3,-3,-2,0
1533863328899095,-1,-2,-7,-12,-5,-5,-1,-1
1533863328899095,1,2,8,9,1,0,0,-1
1533863328899095,-2,-6,-13,-26,-6,-5,-4,-2
1533863328906041,-2,-2,3,2,0,0,0,-1
1533863328906041,0,0,0,2,-1,0,0,0
1533863328921005,0,-1,-14,-4,-1,-4,-1,-1
1533863328921005,-2,0,2,9,-5,-5,0,-4
1533863328928980,0,0,3,8,-4,-1,1,-3
1533863328928980,-2,4,-14,-3,3,-1,-1,-1
1533863328935965,-4,-13,-14,-3,-2,-1,-3,-4
1533863328935965,1,-4,7,0,7,2,-3,-1
1533863328950925,-1,-3,-13,-13,-13,-3,-2,-1
1533863328950925,-3,-1,-14,11,5,2,-1,-1
1533863328965885,-3,3,15,15,-7,-4,-3,-1
1533863328965885,1,-2,-11,-34,-4,-1,1,-1
1533863328974857,1,-1,4,9,6,0,-3,-1
1533863328974857,0,-2,4,-6,2,3,2,2
1533863328988820,0,1,-24,-13,-3,-1,-2,-1
1533863328988820,-3,-4,5,24,1,-5,-2,-4
1533863328990815,2,4,-5,-2,1,1,-1,-1
1533863328990815,0,-1,2,-2,-5,-4,-1,-2
1533863329011759,-1,0,11,1,5,0,2,1
1533863329011759,-1,0,0,3,0,3,1,1
1533863329013754,-3,-3,-1,0,9,-3,0,-1
1533863329013754,0,-4,-20,1,-11,0,1,-1
1533863329025721,-2,1,6,-3,2,-2,1,0
1533863329025721,-1,2,-6,-9,-19,-2,-2,-1
1533863329034697,-1,-4,2,3,-1,-2,-2,-3
1533863329034697,0,-2,11,-9,6,-2,-2,-1
1533863329048664,-1,-2,-4,-34,0,3,-3,-2
1533863329048664,-2,1,-2,15,0,0,0,0
1533863329056642,0,-2,0,-2,0,-1,-1,0
1533863329056642,1,-1,6,16,2,0,-1,-1
1533863329071602,-2,-2,6,0,-4,-5,-1,-1
1533863329071602,-2,-2,-7,-5,-13,-4,-2,-2
1533863329073601,-2,-1,6,5,11,2,-3,0
1533863329073601,-1,0,-3,-15,-23,-6,0,2
1533863329085564,0,0,15,11,6,4,0,1
1533863329085564,0,3,-4,-3,5,-2,-1,-1
1533863329094537,-4,-6,-27,-28,-21,-6,-2,-2
1533863329094537,-2,-6,5,12,6,3,0,-2
1533863329109501,-1,-3,2,17,0,-2,-2,0
1533863329109501,-2,-3,-11,-20,-1,2,-1,0
1533863329110495,-1,-3,-4,7,-1,1,-1,-3
1533863329110495,-2,-1,0,-38,-9,-3,-2,-3
1533863329131442,-1,0,-9,5,-4,-4,1,-1
1533863329131442,-3,-2,0,6,7,-2,-4,-1
1533863329133433,-1,2,2,3,5,0,1,-1
1533863329133433,-3,0,2,10,3,-3,-2,-2
1533863329145421,0,0,-3,2,-2,-3,1,-2
1533863329145421,0,0,9,3,-6,2,1,-1
1533863329162379,0,1,4,-11,5,-1,0,-2
1533863329162379,-1,-1,-5,15,8,0,0,-3
1533863329169337,-1,-2,-2,-7,-18,-4,-2,0
1533863329169337,-1,-2,-1,17,23,3,-2,-1
1533863329171333,-2,-2,-8,-38,-35,-6,1,0
1533863329171333,-1,2,7,5,8,5,1,-1
1533863329192279,0,-1,-16,-14,6,0,-2,-1
1533863329192279,-2,-1,19,21,-3,-3,-3,-2
1533863329193273,2,4,3,14,20,6,0,0
1533863329193273,-3,-3,-12,-21,1,-2,-5,-1
1533863329205245,-3,-7,-6,-7,-18,-5,-3,-3
1533863329205245,1,1,-6,-2,-7,-1,0,2
1533863329214217,1,0,-9,12,11,-2,-2,0
1533863329214217,-2,2,21,17,2,-3,-1,-2
1533863329229177,-1,-2,-22,4,-3,1,-1,-1
1533863329229177,0,-2,-5,-6,3,0,1,-2
1533863329231183,-1,-1,2,-18,-9,-3,-2,-4
1533863329231183,-1,-2,5,13,0,0,0,0
1533863329252115,-3,2,5,7,0,3,0,1
1533863329252115,-2,-3,2,-22,-5,-1,-1,-2
1533863329253113,0,0,-7,-2,4,0,0,0
1533863329253113,0,-1,2,11,-4,-3,-1,-1
1533863329266107,-1,-1,8,-4,4,-4,-2,-2
1533863329266107,-3,-4,-4,9,7,0,-2,-2
1533863329273254,-3,-3,8,0,-12,-1,-1,1
1533863329273254,-2,-4,-11,-4,2,0,-2,1
1533863329289036,3,4,10,6,0,-2,2,1
1533863329289036,-1,-5,-29,-8,6,-2,0,-2
1533863329291011,-1,-1,5,1,-10,-1,-1,-1
1533863329291011,-1,0,-8,-5,13,2,1,0
1533863329311955,-5,-3,2,-10,-24,-3,-4,-3
1533863329311955,0,3,21,14,4,1,1,1
1533863329313967,-3,-2,-36,-5,18,2,-1,-2
1533863329313967,-3,-1,-18,-16,-22,-5,-1,-2
1533863329325937,0,1,13,5,4,0,2,0
1533863329325937,0,0,3,11,0,-5,-2,-1
1533863329332936,1,-2,3,-5,-1,-1,-2,0
1533863329332936,-4,-8,3,-6,-18,-6,-3,-2
1533863329349858,1,1,6,10,12,5,0,-2
1533863329349858,-2,-4,-48,-19,-17,-2,-1,-2
1533863329350851,1,1,15,11,18,4,2,-2
1533863329350851,2,1,1,-10,-1,-1,-1,-3
1533863329371796,-2,-5,-14,-2,5,-4,-1,0
1533863329371796,-3,3,26,23,-5,-5,-1,0
1533863329373790,-3,0,-1,-28,-7,-4,-1,0
1533863329373790,0,2,-2,3,7,3,0,-2
1533863329385758,0,2,2,-1,5,2,0,0
1533863329385758,-1,0,2,2,-4,0,-2,-2
1533863329392762,-2,0,-2,1,-6,-3,-2,-2
1533863329392762,-1,1,6,7,-3,-3,-3,-2
1533863329409697,0,2,2,-10,9,0,0,0
1533863329409697,2,2,-3,-1,4,2,-2,-1
1533863329410691,-5,-6,2,-2,-16,-4,-2,-1
1533863329410691,1,2,1,0,14,4,-1,1
1533863329431636,-1,1,-8,-2,-2,0,-1,-2
1533863329431636,0,4,33,1,7,0,-1,1
1533863329433630,-5,-12,-54,-20,-29,-8,-2,-4
1533863329433630,-1,-2,-11,19,5,-4,0,-1
1533863329446596,0,-1,2,-17,-1,-2,-2,0
1533863329446596,-1,-2,-1,1,-4,-2,0,-2
1533863329452579,2,3,15,13,15,5,1,0
1533863329452579,-3,-1,-1,-18,-1,1,1,0
1533863329469538,-2,-2,-4,4,-11,-4,0,-2
1533863329469538,-2,-1,-5,-10,2,0,1,0
1533863329470531,0,-1,10,5,-7,-5,-4,-3
1533863329470531,2,0,1,5,-9,-2,-1,-1
1533863329492473,-3,-5,1,7,1,-2,-2,-4
1533863329492473,-3,-4,-7,-14,-4,-3,-2,0
1533863329493470,0,1,3,2,10,1,-1,0
1533863329493470,-1,-1,28,29,-15,-6,-2,-3
1533863329505441,1,0,0,-19,14,3,-2,0
1533863329505441,-4,-5,-40,-26,-18,-3,-2,-4
1533863329514414,-1,1,12,3,-4,-3,-1,-2
1533863329514414,-3,-2,-6,-7,-5,-1,-1,-1
1533863329529375,1,-3,-4,-2,-2,0,0,1
1533863329529375,-2,-1,14,16,4,-2,-1,-1
1533863329531370,-1,2,6,4,3,1,-3,1
1533863329531370,-2,1,-9,-9,1,0,0,-1
1533863329552313,-4,-4,-1,15,0,0,0,-2
1533863329552313,3,0,4,-12,-2,1,0,0
1533863329553313,0,0,-8,-6,-3,2,0,0
1533863329553313,-2,-1,9,23,10,-4,-1,-2
1533863329565475,-3,-3,-12,1,-13,-5,-1,0
1533863329565475,-1,-3,8,-1,0,-1,-2,-1
1533863329574255,-2,-1,-2,4,6,1,0,0
1533863329574255,2,3,31,-8,14,0,1,2
1533863329589217,-3,-4,-52,-2,-7,-2,-1,-2
1533863329589217,-1,-4,-17,-6,-3,2,0,-1
1533863329591209,-4,-3,31,32,-7,-3,-1,-3
1533863329591209,-2,-6,-25,-36,-10,1,1,-1
1533863329612153,0,1,12,8,6,-2,-2,-1
1533863329612153,2,2,2,3,-3,-2,-1,0
1533863329613150,1,0,-1,4,9,0,-2,3
1533863329613150,-2,-1,-10,4,0,-3,-3,-1
1533863329634108,-2,-2,7,-5,-5,-2,-2,-3
1533863329634108,0,1,0,-7,-3,-3,1,2
1533863329636090,-1,-1,3,3,5,-4,0,-2
1533863329636090,-3,-5,-7,3,-3,-3,-2,-3
1533863329649089,0,-1,1,-23,-8,-1,-2,0
1533863329649089,-1,0,15,-6,2,-4,0,-1
1533863329651050,-2,-5,-28,23,-4,-2,-2,-1
1533863329651050,-1,-4,-20,-36,-11,0,0,0
1533863329671994,-1,0,10,1,15,2,1,-2
1533863329671994,1,0,1,6,9,2,1,-1
1533863329672992,0,-1,7,-24,-15,-7,-3,-1
1533863329672992,2,1,-12,8,5,3,-1,1
1533863329684992,-2,-1,23,14,-7,-3,-1,0
1533863329684992,-3,-2,-1,3,-12,-3,-2,-2
1533863329694932,2,3,0,-4,1,1,-1,-1
1533863329694932,0,0,-2,1,8,0,-1,-2
1533863329709892,2,2,-1,-5,1,0,-2,-2
1533863329709892,-4,-26,1,-5,-2,-1,-1,0
1533863329710888,0,-1,4,1,2,2,0,-1
1533863329710888,0,0,-4,-12,-6,-3,-1,0
1533863329731836,1,6,-4,10,3,-1,-1,0
1533863329731836,-1,-13,10,5,1,0,2,-2
1533863329733828,-2,-1,-10,-15,-1,0,-1,-1
1533863329733828,-2,-6,4,32,0,0,1,0
1533863329745795,2,1,3,-25,-3,1,0,-1
1533863329745795,0,6,-23,6,2,-3,-4,-2
1533863329754993,-2,0,-1,-2,-1,-3,-1,-2
1533863329754993,-2,-1,3,1,-1,1,1,-1
1533863329769897,-2,0,-5,7,-1,0,-2,0
1533863329769897,-1,6,-7,-8,-2,-2,0,-2
1533863329770729,-2,-6,6,-5,-2,0,0,-2
1533863329770729,0,6,2,3,-2,-4,-1,-3
1533863329799664,0,-4,-14,-7,0,3,-2,2
1533863329799664,-5,3,5,-10,0,-2,-4,-2
1533863329800650,-1,0,8,13,2,-1,-2,-1
1533863329800650,-2,-4,3,-22,-5,-2,-4,0
1533863329805669,-1,-3,2,2,-1,-2,0,-1
1533863329805669,-1,14,-7,4,1,0,-2,-2
1533863329814611,0,-3,0,-14,-6,-2,-2,0
1533863329814611,-2,0,1,2,2,-1,-2,0
1533863329836552,-3,-6,-5,20,1,-4,-2,-2
1533863329836552,4,10,30,9,1,4,2,1
1533863329838548,2,4,9,-19,-11,0,2,0
1533863329838548,0,2,2,1,-4,-3,1,-2
1533863329851513,-2,0,0,3,6,-1,-1,-1
1533863329851513,-3,-5,-4,2,-7,-6,-2,-1
1533863329853507,-1,-6,-38,-19,1,-2,-2,-3
1533863329853507,2,0,13,-1,-6,2,0,-1
1533863329874455,-1,-1,13,4,-4,0,-4,0
1533863329874455,0,-5,-29,-10,14,3,1,-2
1533863329876446,-1,-1,2,3,-21,-3,-1,-1
1533863329876446,-1,1,-7,-11,8,-2,-2,-3
1533863329896406,-4,-8,-8,0,31,-4,-2,-5
1533863329896406,2,-1,3,-10,-18,2,1,2
1533863329898387,-2,2,3,21,31,-4,-4,-1
1533863329898387,1,-1,-15,0,-17,0,3,0
1533863329911352,-2,-1,5,-19,-16,-5,-1,-2
1533863329911352,-2,0,-5,-4,3,-3,-1,-1
1533863329919332,-1,-4,3,5,1,1,-1,-1
1533863329919332,0,1,24,11,4,-2,-1,0
1533863329934365,-1,-4,-39,-7,3,0,1,-1
1533863329934365,-1,-4,-6,1,-6,-5,-2,-1
1533863329936324,-2,0,-4,-4,-6,0,-2,-3
1533863329936324,-4,2,0,15,11,0,-4,-2
1533863329957267,2,1,3,-23,-15,-1,0,0
1533863329957267,0,3,16,14,16,5,-1,-1
1533863329958263,-3,5,2,5,-17,-5,2,1
1533863329958263,-3,-12,-14,-10,4,-1,-2,-1
1533863329970232,-2,-3,8,8,-9,-5,-1,-1
1533863329970232,0,-2,-8,-9,-12,0,-1,-3
1533863329980207,-2,5,15,11,9,0,-4,-2
1533863329980207,-6,-16,-15,5,-7,-1,0,0
1533863329994178,1,1,13,7,3,-1,0,0
1533863329994178,2,3,0,13,14,1,0,0
1533863329996163,0,3,-5,-18,-11,-1,-2,-1
1533863329996163,-1,3,0,-14,-15,-3,-2,-1
1533863330017107,-1,-5,-17,-4,2,4,0,-3
1533863330017107,-1,-5,2,6,3,-5,-2,-1
1533863330018103,-2,-4,-5,0,16,3,2,1
1533863330018103,0,3,7,6,3,-1,0,0
1533863330039048,-1,0,5,5,-11,-4,-1,1
1533863330039048,-1,1,-1,4,-6,-2,-1,-1
1533863330041043,-1,-5,-6,-2,4,2,-2,-1
1533863330041043,1,1,0,-8,-3,-3,-2,-1
1533863330055005,1,3,12,2,-1,0,-1,-2
1533863330055005,-1,1,-9,-5,15,2,-1,0
1533863330056020,-1,-19,24,21,-4,-2,0,3
1533863330056020,-2,-4,-8,-30,-5,-3,-1,-2
1533863330076947,-1,2,0,-4,-19,0,-1,-1
1533863330076947,-3,0,1,2,-2,-4,-2,-2
1533863330077960,0,1,-10,-12,10,-1,0,-2
1533863330077960,0,3,1,9,6,0,-2,-1
1533863330090909,-2,-3,-5,1,1,-1,-1,-2
1533863330090909,-2,-3,0,-8,-1,-1,-1,-1
1533863330099895,2,1,-7,1,-1,1,-1,-1
1533863330099895,4,1,2,2,-3,0,-1,-1
1533863330114856,1,6,9,-8,24,6,-1,-1
1533863330114856,-6,-9,-22,-4,-36,-9,-3,-4
1533863330115842,0,-1,3,-11,-9,1,-2,-3
1533863330115842,-2,0,-3,3,0,-3,0,-1
1533863330136803,1,-2,5,2,-3,0,2,0
1533863330136803,0,1,-2,-9,15,2,0,-1
1533863330138796,-1,-2,-7,-1,-5,-4,-2,0
1533863330138796,0,9,-4,-4,-1,-4,-3,-1
1533863330150749,-4,-16,-9,4,4,-2,-2,-1
1533863330150749,-1,-2,24,6,-5,-1,-2,-1
1533863330159725,-5,-5,-54,6,-6,-4,-3,-4
1533863330159725,1,4,11,-2,8,6,3,2
1533863330174706,0,3,-8,-17,-9,-3,-1,-2
1533863330174706,-5,-5,-8,7,-4,-4,-3,-2
1533863330175682,1,-2,5,-3,-7,0,-2,-1
1533863330175682,-3,-5,-4,5,5,-1,-3,-2
1533863330196627,-1,3,-2,-1,7,-2,0,-1
1533863330196627,2,1,10,-5,3,2,3,1
1533863330198629,-1,5,5,-2,-6,0,0,-1
1533863330198629,-3,-4,-6,3,-1,-1,-1,-1
1533863330210589,-2,0,6,11,-9,-1,-1,-2
1533863330210589,2,11,-15,-12,-4,-5,-1,-2
1533863330219566,-4,-11,-3,5,3,0,0,0
1533863330219566,-2,0,14,-12,-10,0,-1,0
1533863330234525,-5,-6,-11,9,4,-4,-3,-1
1533863330234525,0,1,0,-6,-4,-1,-1,0
1533863330235542,0,3,-4,-5,2,0,0,0
1533863330235542,0,-2,3,3,-1,-3,0,-2
1533863330257463,0,-1,14,0,0,2,-2,-1
1533863330257463,-1,-5,-28,2,1,0,-1,-1
1533863330258465,1,1,8,-11,-9,-6,-1,-1
1533863330258465,-1,-2,-7,0,-1,0,0,-2
1533863330270432,-3,1,2,3,-5,-1,1,0
1533863330270432,-1,-3,4,6,4,0,0,-1
1533863330279405,-2,0,4,-13,-7,-3,-2,0
1533863330279405,1,1,-7,10,5,-1,-1,-2
1533863330294365,-4,-4,-15,1,-9,-6,-3,-3
1533863330294365,-2,-2,7,9,4,3,-1,-2
1533863330296361,-1,-1,-2,10,8,1,1,-2
1533863330296361,0,1,4,-27,-5,0,-1,1
1533863330317307,-1,1,1,10,3,0,-1,-3
1533863330317307,-2,-9,-1,-6,-2,0,-1,0
1533863330318301,-1,-14,16,2,-10,-3,1,1
1533863330318301,0,-1,-6,14,2,2,3,0
1533863330330269,-1,-1,-1,-26,-9,-3,-3,-2
1533863330330269,-3,-4,1,-6,-2,-2,-3,-1
1533863330339245,1,7,10,12,9,-1,-2,-1
1533863330339245,-3,-6,-7,0,-6,-5,-4,-4
1533863330355206,-2,0,0,-2,-1,1,2,-1
1533863330355206,1,3,1,-2,-5,-1,-2,-1
1533863330356200,0,1,-1,-7,5,0,-2,0
1533863330356200,-1,-4,-5,10,-3,-4,-3,3
1533863330377144,-4,1,-2,-3,-1,-4,-2,-11
1533863330377144,-2,0,2,9,-2,0,1,-3
1533863330378157,-1,2,-8,-34,-6,-2,0,0
1533863330378157,-1,-2,0,5,8,-2,-2,-3
1533863330390108,-2,-3,-10,14,-10,-2,-4,2
1533863330390108,0,0,10,-11,-5,-2,-1,2
1533863330399093,-1,-12,6,4,6,3,2,-4
1533863330399093,-1,-2,-6,-11,-12,-3,-1,-3
1533863330414049,2,3,7,-2,10,0,1,2
1533863330414049,-1,-5,-1,-3,4,2,-1,-1
1533863330416040,-2,6,-3,1,-6,-2,-1,0
1533863330416040,-1,-1,0,3,3,-1,-2,-3
1533863330436986,2,-2,-1,-9,-6,-2,1,1
1533863330436986,1,0,-3,-9,3,-1,-1,0
1533863330444962,-1,-1,-19,-2,0,-3,-1,0
1533863330444962,-2,-2,6,14,0,-1,-1,-2
1533863330458925,-2,0,1,23,4,4,1,-1
1533863330458925,-1,1,1,-4,-1,-1,-1,-1
1533863330460918,-2,-1,-9,-33,-1,-3,-2,-1
1533863330460918,1,3,-6,8,2,-3,-2,-1
1533863330473887,-3,-19,7,15,4,-2,-1,2
1533863330473887,-2,-3,-3,-1,-3,1,-1,0
1533863330475879,0,2,4,6,-5,1,0,-2
1533863330475879,-2,2,-2,-27,-1,-1,1,-1
1533863330496880,0,5,-3,12,5,-1,-3,0
1533863330496880,-2,-3,-6,10,-10,-6,-1,-2
1533863330498818,1,0,6,3,4,-2,-1,-3
1533863330498818,0,-1,0,-5,-3,4,0,-1
1533863330519766,-2,-3,-8,-23,-2,-1,-2,0
1533863330519766,0,-2,1,-5,-4,-2,-1,-2
1533863330520760,-2,3,2,23,7,-4,-3,-1
1533863330520760,-2,-2,-1,10,-12,-1,-2,-1
1533863330534726,0,1,-4,-21,-13,0,-1,1
1533863330534726,0,0,0,13,-4,0,0,-3
1533863330535720,-4,0,-3,7,2,0,-1,-1
1533863330535720,-1,-2,-1,-3,10,-3,0,-1
1533863330556663,0,0,-1,-6,-5,-2,-1,-2
1533863330556663,-3,0,-3,-11,-1,-3,-2,0
1533863330558659,0,-2,1,11,-1,-1,1,0
1533863330558659,-3,-2,0,-7,6,0,0,-1
1533863330579622,-1,0,-7,-2,-8,-3,-3,-2
1533863330579622,0,4,-9,-26,-4,-1,-4,-1
1533863330580613,-4,-20,7,9,1,-2,-2,-1
1533863330580613,-2,-4,-2,11,-1,0,-1,0
1533863330601546,2,2,2,-6,4,1,3,-2
1533863330601546,2,0,-1,-1,2,0,0,0
1533863330608528,0,2,-5,-6,-8,1,-4,1
1533863330608528,-3,-3,-3,6,-8,-5,-4,-2
1533863330616507,-1,-1,3,-18,-2,3,-1,0
1533863330616507,0,0,6,18,6,-1,0,0
1533863330618498,-2,3,-6,-10,1,-1,-2,-1
1533863330618498,0,-4,0,1,-5,-3,0,-2
1533863330646440,0,4,0,1,2,0,-1,0
1533863330646440,-3,-4,6,-8,-2,0,-2,-1
1533863330648418,0,2,3,6,2,-1,-1,1
1533863330648418,-3,-1,-5,1,0,-2,-2,-1
1533863330653404,-1,-1,-2,0,1,0,0,1
1533863330653404,-1,-1,-4,-1,-1,-2,0,-2
1533863330660386,-1,9,-8,0,-1,-2,-1,-1
1533863330660386,-2,-18,7,-2,2,1,1,0
1533863330677409,-2,-2,0,9,4,-2,-1,-2
1533863330677409,-3,-3,-4,-17,-4,-2,1,0
1533863330678339,0,2,-3,5,1,0,-1,0
1533863330678339,2,6,0,-9,1,1,-3,2
1533863330699285,-3,-1,-4,12,-14,-3,-1,-2
1533863330699285,-4,-9,-4,12,1,-3,-4,-2
1533863330701289,-2,-2,2,-25,-5,0,0,-2
1533863330701289,0,1,-22,-2,3,-1,-2,0
1533863330713245,3,0,3,-28,-1,0,1,0
1533863330713245,2,0,-3,35,4,-1,-2,-1
1533863330720226,-2,-2,-1,2,-7,-2,-2,0
1533863330720226,-1,3,6,7,5,2,0,-1
1533863330736182,-2,0,-17,-17,-9,-2,-2,-1
1533863330736182,-2,0,-2,-3,2,-1,-2,-3
1533863330743163,0,0,5,8,3,0,-1,-2
1533863330743163,-2,1,1,-11,-6,-2,-1,0
1533863330759121,-1,-1,1,12,2,-3,-2,0
1533863330759121,-1,-1,5,-2,0,-1,0,0
1533863330761141,1,-1,-1,-17,2,1,0,-1
1533863330761141,-2,-1,-9,-5,-14,-3,-2,-2
1533863330774274,0,-1,1,7,3,0,0,-1
1533863330774274,0,0,2,1,0,0,-2,-1
1533863330781064,-3,-1,-13,-8,-4,-2,-1,-2
1533863330781064,1,2,30,-2,-7,0,1,0
1533863330797021,-4,10,-69,-16,5,-2,-4,-2
1533863330797021,-1,-4,3,14,-11,-2,-2,0
1533863330798018,0,-1,-4,8,-5,-3,1,0
1533863330798018,-2,-3,2,-16,3,-4,-1,-2
1533863330818962,0,1,17,17,-1,-1,-3,-3
1533863330818962,-3,0,0,-3,1,-2,-3,0
1533863330826940,3,1,-2,-9,8,3,0,1
1533863330826940,-5,-2,-12,-3,-19,-2,-2,0
1533863330833956,-1,-4,13,-3,2,0,0,0
1533863330833956,-1,0,-6,-9,-2,-1,-1,-1
1533863330840955,0,-2,16,16,5,-1,0,-2
1533863330840955,0,1,-4,-2,13,-1,1,-1
1533863330856878,-3,-4,14,9,-11,-3,-1,-2
1533863330856878,2,-4,-22,-23,-8,-2,2,-1
1533863330858855,-5,-1,20,8,-2,0,-2,-1
1533863330858855,0,0,-28,2,0,2,1,-1
1533863330879799,-2,-3,6,-7,5,-1,-2,0
1533863330879799,3,6,8,-16,12,5,1,-1
1533863330880796,1,-1,4,22,-7,-2,-1,-2
1533863330880796,-4,-3,-3,8,-2,-3,-2,-2
1533863330893765,-2,-6,1,19,4,0,-1,-1
1533863330893765,-4,-4,-19,-44,-15,-4,0,-3
1533863330900746,-1,8,-5,-7,8,-2,-1,0
1533863330900746,2,-14,20,-4,2,2,-1,0
1533863330916700,1,-1,0,23,0,-1,0,-1
1533863330916700,-1,0,13,4,7,-2,-1,-1
1533863330918696,-1,-3,-15,-11,-6,-1,-1,-2
1533863330918696,0,4,-2,0,0,-2,1,-1
1533863330939642,-1,0,0,-14,2,0,1,-1
1533863330939642,-3,-6,0,6,-4,-1,-2,0
1533863330940668,0,-2,0,-5,-4,0,-1,-1
1533863330940668,-1,2,-3,7,-1,0,-1,0
1533863330952607,-1,-2,2,-7,0,0,-2,-3
1533863330952607,-2,2,5,9,-4,1,-3,1
1533863330961805,-2,-5,-10,9,0,-5,-1,-3
1533863330961805,2,3,0,-10,1,1,-1,0
1533863330976541,0,4,30,-2,-5,-2,0,0
1533863330976541,-3,-2,-6,-2,-7,-5,-2,-3
1533863330978534,-4,-4,2,-7,2,-2,-2,0
1533863330978534,0,-1,-12,-6,2,-2,-2,-1
1533863330999678,0,4,10,20,12,2,1,-2
1533863330999678,-6,-28,-10,-10,-30,-5,-1,-2
1533863331000475,1,-3,3,-4,-8,1,2,-1
1533863331000475,-1,-1,1,3,-2,-4,-2,-4
1533863331013442,0,-3,-9,-4,1,0,-3,-1
1533863331013442,2,8,5,0,14,1,0,-2
1533863331022417,-2,-3,-13,4,-2,-1,-2,-2
1533863331022417,-3,-3,-2,1,-3,-1,0,0
1533863331037381,-1,-1,-8,-10,0,-2,0,0
1533863331037381,1,1,-2,5,5,2,-1,0
1533863331038375,-1,-1,1,3,-4,0,-1,-1
1533863331038375,0,5,6,-5,3,1,-1,-2
1533863331059322,-2,-6,-11,-17,-8,-3,-3,-1
1533863331059322,-2,0,5,13,1,-7,-2,-2
1533863331061313,1,-1,-3,2,5,1,-2,-2
1533863331061313,-1,-2,1,3,-4,-2,-2,-2
1533863331082258,-3,-2,-5,7,1,1,1,0
1533863331082258,0,4,-1,-4,1,1,-1,0
1533863331083255,-1,1,1,6,9,0,-1,0
1533863331083255,-1,0,-3,-13,-8,-1,-1,-1
1533863331097217,-1,-2,-2,11,-2,0,0,-1
1533863331097217,-1,1,0,-19,-12,-3,-1,-2
1533863331098234,0,1,2,4,-1,3,1,1
1533863331098234,-2,-1,-4,12,-4,-4,-3,-5
1533863331119159,0,-2,0,-5,18,2,1,-2
1533863331119159,-1,-1,-2,3,-12,-2,-3,0
1533863331121153,-1,0,-3,-11,-5,-3,-1,0
1533863331121153,1,-2,0,-5,3,2,-2,1
1533863331133125,-2,1,-4,0,-2,-5,-3,-2
1533863331133125,2,1,-2,2,13,4,1,-1
1533863331142098,0,-3,2,-13,-5,-3,-1,-1
1533863331142098,-3,0,2,2,1,-1,0,0
1533863331157061,0,-4,-3,-9,-10,-2,-1,0
1533863331157061,2,19,-4,5,6,0,-1,-1
1533863331158055,-2,-10,-1,5,1,-3,-3,-1
1533863331158055,-2,-1,1,-1,-5,-2,-1,-2
1533863331178998,-1,1,6,27,3,-1,0,-1
1533863331178998,-5,-4,-9,-53,-7,-4,-2,-2
1533863331180993,0,0,-6,4,-6,-4,-1,-2
1533863331180993,0,-1,0,2,4,0,0,1
1533863331193128,-1,1,-3,-14,-6,0,-3,0
1533863331193128,-1,-3,4,25,8,3,1,-2
1533863331201938,-2,-1,0,-12,-3,-2,0,-1
1533863331201938,-1,-5,-4,-4,2,-2,0,-2
1533863331217000,-3,0,-2,4,-13,-3,0,-2
1533863331217000,-2,-6,-1,11,2,-3,0,1
1533863331218894,-1,0,2,-5,0,-1,-1,0
1533863331218894,-1,3,0,-3,2,2,1,-2
1533863331239839,1,-3,-2,-18,-4,-1,-2,-1
1533863331239839,-3,-5,-1,23,-4,1,-1,-3
1533863331240834,-2,0,-3,-4,17,0,-2,-1
1533863331240834,0,0,5,32,-10,-1,-3,0
1533863331252804,-3,-4,-19,-70,-15,-5,0,-1
1533863331252804,-1,-4,0,3,-2,0,1,-1
1533863331261777,-2,0,0,0,-1,0,0,0
1533863331261777,-1,-1,1,9,7,0,-4,-3
1533863331276740,0,-5,2,10,0,0,-2,0
1533863331276740,0,0,0,0,1,-1,-3,-2
1533863331278732,1,1,-4,5,-1,1,-1,-3
1533863331278732,-1,-5,-2,-9,4,-1,0,0
1533863331299677,-2,1,-3,12,-2,-1,1,-2
1533863331299677,-1,-1,0,-6,0,-3,-2,0
1533863331300674,0,-2,2,1,-1,-2,-3,0
1533863331300674,-2,0,-2,-23,-8,0,0,0
1533863331312642,0,-2,0,25,-1,0,0,-1
1533863331312642,-1,-3,1,-8,3,1,-1,-2
1533863331329602,-1,-1,0,-4,-6,-1,0,-2
1533863331329602,0,1,-3,-2,-5,-1,-1,0
1533863331336577,-2,-1,1,7,3,-1,0,0
1533863331336577,2,0,2,-13,2,-1,0,1
1533863331338572,-1,3,-11,1,-6,-5,-3,-1
1533863331338572,-2,-24,6,16,0,-1,2,-1
1533863331359519,-3,-1,2,-2,-3,-3,-2,-2
1533863331359519,0,0,2,5,0,-2,-1,-1
1533863331360514,-1,-3,-2,-12,-10,-1,0,0
1533863331360514,0,5,-1,-1,8,-2,0,-2
1533863331382458,1,-2,-3,-8,0,-2,-4,-1
1533863331382458,-2,-4,-2,2,8,-1,0,1
1533863331383452,-1,0,-1,3,4,-7,-3,-1
1533863331383452,0,5,-1,7,-17,-3,-3,-1
1533863331396430,0,0,-5,6,-11,-3,1,-1
1533863331396430,-3,2,3,-13,-7,-1,-2,-2
1533863331398413,-1,0,2,3,11,5,1,-2
1533863331398413,1,2,0,-7,2,-1,-1,-1
1533863331419356,1,1,1,-5,-2,0,-3,0
1533863331419356,1,0,0,9,5,-1,-2,-1
1533863331421351,-2,-3,1,17,-2,0,1,-3
1533863331421351,-4,-3,-5,-27,-4,-3,-2,-1
1533863331442298,0,0,2,-3,2,4,-1,0
1533863331442298,-1,-2,-2,4,0,1,-1,1
1533863331443293,0,12,-11,-1,-8,0,0,1
1533863331443293,0,-5,7,6,0,0,1,-1
1533863331457258,0,1,2,-10,5,-1,-1,-2
1533863331457258,-2,1,-2,7,1,0,-1,-1
1533863331458253,-4,-5,-12,-27,-9,-4,-4,-1
1533863331458253,-2,4,-5,7,-5,1,-3,0
1533863331479198,-1,-2,-3,0,-4,-1,-1,-1
1533863331479198,2,-4,5,-1,1,2,1,0
1533863331481190,0,-3,4,-7,-1,0,-1,-2
1533863331481190,0,1,-4,-1,7,0,-1,-1
1533863331502138,-1,2,6,3,3,-1,1,-2
1533863331502138,-2,0,-5,-3,-5,-5,-1,-3
1533863331503132,0,-4,3,19,7,1,0,2
1533863331503132,-3,-1,-2,-32,-12,-4,0,0
1533863331517095,-4,11,-24,-12,-12,-5,-2,0
1533863331517095,-4,-6,-2,2,2,-3,-1,-1
1533863331518093,-1,-3,4,4,5,3,-1,0
1533863331518093,-1,-1,1,0,-4,3,-1,-2
1533863331539037,1,0,2,10,9,1,-1,0
1533863331539037,-1,1,-2,-17,-10,0,-1,-2
1533863331541052,-2,-4,-4,-16,-1,-4,-2,-3
1533863331541052,0,2,0,0,6,-2,-2,1
1533863331561995,-2,-5,3,3,1,-1,0,-1
1533863331561995,2,-1,-1,17,0,-3,0,-2
1533863331562973,0,0,4,-4,-9,-1,1,0
1533863331562973,-1,-1,-3,-3,0,-2,-1,-1
1533863331575950,0,-5,2,0,-2,-1,1,0
1533863331575950,1,0,3,1,-1,0,0,0
1533863331583079,-2,-4,-4,-21,-5,-6,-5,-2
1533863331583079,-4,-7,-30,9,-3,-1,-1,-2
1533863331599877,-2,-3,27,4,6,2,0,-1
1533863331599877,-1,-1,-3,-11,-3,2,-1,0
1533863331600883,-1,2,0,2,-1,-2,-1,-1
1533863331600883,-1,0,-5,19,4,0,-2,-1
1533863331621817,1,-3,-4,-28,-2,-1,-2,-1
1533863331621817,-2,0,-6,-1,-4,-4,-2,0
1533863331623810,-3,-1,-1,16,-8,-1,-3,-2
1533863331623810,0,2,9,0,1,1,-1,-1
1533863331635781,0,1,-7,6,-1,-1,-3,-3
1533863331635781,-2,-4,2,3,5,-3,-2,-2
1533863331642760,-1,-2,-6,3,-1,-3,-2,-2
1533863331642760,-2,-19,13,-2,-3,0,1,1
1533863331659716,-4,-6,-3,0,1,-1,0,-2
1533863331659716,-2,-6,-52,-7,-2,-3,-1,-4
1533863331660710,0,-3,6,5,2,1,3,0
1533863331660710,1,4,-1,7,1,1,-1,-1
1533863331681655,-3,-2,0,-17,-2,-3,-2,-2
1533863331681655,-1,-4,3,-3,-2,0,-2,-4
1533863331683650,0,3,0,7,2,-1,-1,-2
1533863331683650,-1,3,0,-8,-2,0,-1,-1
1533863331695631,-1,-3,-10,-8,-2,1,0,1
1533863331695631,-2,2,9,25,2,-1,0,-1
1533863331712573,-1,-2,-4,2,-14,-4,-2,1
1533863331712573,-1,-11,12,-22,0,-4,0,0
1533863331719564,0,0,0,6,-6,-1,-2,-1
1533863331719564,0,5,16,-16,6,2,-1,1
1533863331720551,-4,-5,4,24,12,-1,-3,-1
1533863331720551,-2,1,-10,14,-9,-4,1,-1
1533863331741497,0,0,-13,-24,-5,-2,-1,-1
1533863331741497,1,0,49,-6,-3,1,0,-1
1533863331743488,-1,2,-23,-6,-2,-2,-3,-4
1533863331743488,-1,-11,38,16,3,-3,-2,-2
1533863331756454,-2,-6,8,15,8,-3,0,-2
1533863331756454,0,-1,-8,5,-2,-1,-1,-2
1533863331763436,-1,-4,-30,-24,-8,1,-1,-1
1533863331763436,0,12,-20,1,3,1,-1,-2
1533863331779394,0,0,2,10,-3,-2,2,1
1533863331779394,-2,-6,-7,-15,-2,-5,-2,0
1533863331781391,-2,-3,-8,-14,-3,-2,-1,0
1533863331781391,-2,-4,-85,-13,1,0,-3,-5
1533863331802334,-2,0,8,7,-1,0,-2,-1
1533863331802334,-2,2,-3,-1,-5,-1,-1,0
1533863331803330,1,-1,25,7,2,1,-2,2
1533863331803330,0,5,2,-7,-4,-1,-2,-1
1533863331816298,1,15,21,8,10,-2,-1,-2
1533863331816298,-3,-3,-5,-9,-11,-3,0,0
1533863331823276,-2,1,-3,16,-1,1,1,-1
1533863331823276,3,3,33,-26,3,1,3,0
1533863331839234,-2,-4,-15,37,-2,-2,-4,-3
1533863331839234,-3,1,1,5,-3,-3,-3,-1
1533863331841229,-2,-1,1,-16,-2,2,1,0
1533863331841229,0,7,1,9,2,-1,-1,-1
1533863331862172,-3,-8,-1,-5,0,-1,-1,-2
1533863331862172,-1,-1,-9,5,-2,-1,-2,-3
1533863331863169,-2,-4,3,5,-5,-3,-2,-2
1533863331863169,0,-2,6,-17,-1,0,-1,2
1533863331876193,-1,1,-9,10,-1,2,-3,0
1533863331876193,0,-4,2,-13,3,1,0,-1
1533863331884330,0,2,3,-10,-1,1,-2,-1
1533863331884330,-2,10,-5,10,-2,-2,0,-2
1533863331899264,1,-13,8,-6,11,1,1,1
1533863331899264,-5,-8,-25,9,-17,-9,-1,-2
1533863331901069,1,2,17,4,-1,-3,-1,-1
1533863331901069,-2,3,-36,-6,-5,-4,-3,-3
1533863331922015,0,0,1,-10,-3,-1,-2,-1
1533863331922015,0,1,0,8,1,2,1,-1
1533863331923009,0,-3,-2,-19,1,-1,-1,0
1533863331923009,-5,-9,-4,8,-8,-6,-4,-3
1533863331943952,1,0,-7,-1,-5,-1,-1,-2
1533863331943952,0,-1,3,-8,8,2,-1,0
1533863331945948,-1,1,3,12,-5,-3,-1,-2
1533863331945948,0,4,-27,1,7,1,-1,-1
1533863331958916,-2,-10,15,-8,-7,-2,0,0
1533863331958916,-2,-11,7,8,2,-1,-1,0
1533863331960908,1,3,6,-24,-5,-1,-2,-2
1533863331960908,1,2,10,23,4,-2,-1,0
1533863331981855,-2,3,17,-22,2,-1,-1,0
1533863331981855,-2,4,-2,7,3,-2,-3,-1
1533863331983846,-1,-5,-4,17,-14,-5,-1,0
1533863331983846,-1,-8,23,-1,-4,-1,-1,-1
1533863331995814,-2,0,-23,-2,-6,-1,-3,-4
1533863331995814,-1,0,3,-3,1,2,-2,-1
1533863332004790,-1,-1,-7,-6,5,2,-2,0
1533863332004790,-3,0,9,-11,-5,0,-1,-2
1533863332019753,-1,12,-67,12,-2,-2,-2,0
1533863332019753,-2,-3,1,-10,1,-3,-1,-2
1533863332020763,-2,-3,-6,-5,0,-2,0,-1
1533863332020763,0,-5,0,-12,-5,1,1,0
1533863332041922,0,9,-33,-4,0,0,0,-1
1533863332041922,1,-13,30,17,3,1,1,3
1533863332043920,-1,-1,4,-3,0,-1,-1,1
1533863332043920,-1,-2,11,4,-1,0,-1,0
1533863332056049,-2,-5,5,3,-2,-3,0,-1
1533863332056049,0,6,-25,-4,-5,-6,-3,-3
1533863332064860,-3,5,-6,-2,1,0,0,0
1533863332064860,1,-8,13,4,4,-3,2,0
1533863332079829,0,-5,14,-11,-5,0,0,-2
1533863332079829,1,4,-7,-4,-4,1,-1,-2
1533863332080825,0,-2,-9,-5,3,-2,-1,-2
1533863332080825,-1,6,28,1,-2,-2,0,1
1533863332101765,-1,5,-1,2,0,-4,-2,1
1533863332101765,-2,-19,25,23,4,4,1,2
1533863332103756,-1,-4,0,-24,3,0,2,-1
1533863332103756,-1,2,-6,-18,-3,-3,-3,-2
1533863332115724,-3,-14,14,5,-9,-1,-1,-2
1533863332115724,0,9,-2,-3,-1,-1,-2,-4
1533863332124702,-3,-5,-17,16,6,1,-2,-1
1533863332124702,0,-2,30,-9,-1,0,-1,-2
1533863332139664,-2,5,7,-8,-1,0,0,1
1533863332139664,-2,2,-11,-8,1,0,-1,0
1533863332145644,-1,3,-3,5,0,0,0,-3
1533863332145644,-3,1,-21,1,3,-1,-3,-3
1533863332161605,0,-1,6,-10,-12,-1,-2,-1
1533863332161605,-6,-2,-15,-2,2,-1,-1,-4
1533863332163596,1,-1,10,-4,-2,0,-2,-1
1533863332163596,-1,-7,-5,4,2,0,-1,-1
1533863332175766,-1,-2,11,13,8,0,-2,-1
1533863332175766,0,3,-13,-2,-4,-2,-1,-1
1533863332184541,1,1,4,-8,-1,-2,-1,-1
1533863332184541,-1,-2,-10,-8,-5,-1,-3,0
1533863332199508,-1,-2,-3,8,5,0,-1,-4
1533863332199508,-2,-2,-20,-18,-2,-2,-2,-2
1533863332200499,-2,4,-12,9,-3,1,-4,0
1533863332200499,0,0,-3,0,1,-3,-1,2
1533863332222442,-1,-14,3,-6,-6,-5,-1,-2
1533863332222442,0,3,7,1,2,-1,-2,0
1533863332224434,0,-2,-27,1,-2,-2,-2,-1
1533863332224434,1,5,-3,4,-1,1,0,0
1533863332235415,3,7,2,-18,14,0,-1,-1
1533863332235415,-1,-3,1,5,-6,-2,-2,-2
1533863332244386,-4,-8,5,18,-1,-5,-1,-2
1533863332244386,-2,-4,-10,-18,-19,0,-2,-2
1533863332259546,-3,-1,1,12,-2,-2,0,0
1533863332259546,3,4,-4,-16,-3,0,0,-1
1533863332261335,0,-1,16,-2,9,2,-1,-1
1533863332261335,-1,0,-11,8,2,-2,-2,-3
1533863332282285,-1,-16,45,1,-7,0,0,0
1533863332282285,0,3,10,0,2,-2,-1,0
1533863332283276,-1,-5,4,-2,-4,-1,1,0
1533863332283276,0,-2,10,18,8,0,0,-1
1533863332295245,-7,-3,-24,-18,-11,-4,-3,-1
1533863332295245,-2,1,1,-15,-5,-2,-4,-2
1533863332304263,-1,-4,5,-3,2,1,0,-4
1533863332304263,2,4,6,-2,-3,-1,-2,-1
1533863332319181,0,1,-6,8,3,0,-3,-1
1533863332319181,-1,1,1,6,1,1,-1,-1
1533863332321176,-1,5,5,-11,-7,-2,-1,-1
1533863332321176,0,1,-1,-4,5,-1,1,0
1533863332341122,0,6,-5,10,3,0,-1,-1
1533863332341122,-5,-4,-1,8,-14,-7,-1,0
1533863332349103,-1,-3,-9,31,0,-1,-3,-1
1533863332349103,-5,-4,-6,-50,-10,-3,0,0
1533863332364063,1,9,-18,2,3,2,-1,-1
1533863332364063,2,-4,20,-1,3,3,-1,0
1533863332366055,0,-2,22,0,4,-2,0,-1
1533863332366055,-4,-2,6,12,-2,-1,-3,-2
1533863332379020,0,4,-1,4,-2,-2,-1,0
1533863332379020,-3,1,-7,-10,-3,2,1,-1
1533863332386001,0,1,-12,4,0,-1,-2,-1
1533863332386001,-1,-14,14,-13,5,1,-1,-1
1533863332401959,0,-6,1,8,7,-3,-4,-2
1533863332401959,0,4,-3,9,-11,-3,0,1
1533863332403953,-1,-3,1,-9,-6,-1,-1,1
1533863332403953,-2,1,-15,1,-2,-3,-3,-3
1533863332424900,3,3,21,0,1,-1,0,0
1533863332424900,1,-2,3,1,12,4,2,-3
1533863332425895,-4,14,-17,-23,-12,-5,-3,-4
1533863332425895,-3,-2,1,16,-2,2,-1,-2
1533863332439860,-2,-2,-6,-2,-10,-2,1,-2
1533863332439860,0,-1,-3,-5,3,-2,-1,-2
1533863332440855,0,-2,-1,-17,-2,0,-1,-3
1533863332440855,1,-1,-26,5,3,-3,-2,-1
1533863332469781,-1,-6,23,4,-4,-1,1,0
1533863332469781,0,3,-2,-9,2,-1,-1,1
1533863332470774,0,-5,-6,8,-1,1,0,1
1533863332470774,-3,-1,8,34,1,-3,-2,-2
1533863332484737,-5,-5,-23,-40,-10,-1,-1,-1
1533863332484737,-2,9,-17,6,3,0,-3,-2
1533863332486731,-1,-9,-32,-5,-2,-1,0,-2
1533863332486731,-1,-12,15,3,1,1,0,0
1533863332498917,-1,0,-5,-3,1,0,-2,-2
1533863332498917,-1,-1,-4,-5,-5,-2,-2,-2
1533863332512663,-1,-1,-3,4,4,0,0,0
1533863332512663,2,7,-10,-10,1,-1,2,0
1533863332521642,-2,0,-3,50,6,-5,-4,-2
1533863332521642,-3,-10,-7,-34,-12,-5,-3,-3
1533863332523634,-1,-1,13,-9,-5,-3,-1,1
1533863332523634,0,1,-12,-16,-3,0,-1,-1
1533863332544580,1,2,9,0,-1,1,-1,-2
1533863332544580,0,0,2,19,6,-2,1,-1
1533863332545574,0,-1,7,12,3,0,1,-1
1533863332545574,-3,2,-15,-27,-7,-2,-2,-1
1533863332558543,-1,-1,-8,-8,-3,-2,-1,-1
1533863332558543,-2,-6,-4,15,1,0,-1,-1
1533863332573509,-1,-1,9,-8,-3,-2,-3,-2
1533863332573509,-2,0,6,13,1,0,1,-1
1533863332582479,-2,-2,-4,-8,-3,2,-1,0
1533863332582479,-1,-4,1,-12,-1,-1,-1,0
1533863332584482,-1,0,4,6,-1,-1,-1,-2
1533863332584482,1,3,0,1,1,0,-3,-1
1533863332604417,-1,-1,-5,-17,-1,-3,-2,-1
1533863332604417,0,3,-5,15,0,-5,-2,-1
1533863332606412,-1,-30,27,-6,2,-2,-1,-1
1533863332606412,-1,-2,4,6,0,-4,0,-2
1533863332626362,-2,-3,-6,-24,-12,0,0,-1
1533863332626362,-2,-4,-2,20,6,-1,0,-2
1533863332628354,-1,7,-10,-9,-1,-2,-3,-1
1533863332628354,0,2,10,11,11,-1,-1,-1
1533863332642319,-1,-5,7,-9,-3,2,0,0
1533863332642319,-3,1,2,17,-17,-2,-2,-2
1533863332643313,0,5,-4,-8,-3,0,-2,-2
1533863332643313,-3,-1,-2,2,-2,1,-2,-2
1533863332664260,1,1,-11,2,7,-1,-4,-2
1533863332664260,2,1,10,-18,0,3,-1,0
1533863332666252,-3,1,-6,1,-1,0,-2,1
1533863332666252,0,-2,-3,-3,-2,-1,-2,0
1533863332679217,-3,0,0,-1,0,-2,-1,-1
1533863332679217,-1,-1,-7,3,1,0,-1,0
1533863332685204,1,-15,50,12,1,-2,2,1
1533863332685204,-2,2,-2,-3,0,-2,-2,0
1533863332702156,-1,-3,-5,-2,-3,-1,1,0
1533863332702156,1,-4,0,-10,5,-1,0,-1
1533863332703161,-1,9,-10,19,4,-2,-1,-1
1533863332703161,-1,-1,-3,-16,-13,-2,0,0
1533863332724100,-1,-4,6,10,0,-1,-2,-1
1533863332724100,1,-1,6,-14,0,1,-2,-1
1533863332726092,-2,3,-8,-2,-6,-4,-2,-1
1533863332726092,0,-2,-6,8,1,0,1,-1
1533863332739223,-2,-1,-2,4,0,1,-1,-2
1533863332739223,-2,0,-5,-1,4,1,-3,-2
1533863332746046,-1,2,-11,-6,0,1,-1,-1
1533863332746046,-1,-3,4,3,-4,1,-3,-1
1533863332762012,-1,3,-7,-5,-2,-2,1,-1
1533863332762012,-2,0,4,0,2,-1,2,-1
1533863332763991,-1,7,-19,-12,-10,-3,1,-2
1533863332763991,1,1,-3,-1,0,0,2,-1
1533863332783940,-6,-5,-4,23,4,-4,-3,-2
1533863332783940,-3,-4,2,-9,-5,-3,-2,-2
1533863332785949,-1,-1,-15,-14,-2,1,-4,-1
1533863332785949,0,0,3,11,-1,2,-1,-1
1533863332798898,3,0,-2,-6,-1,0,0,0
1533863332798898,0,0,-17,4,-5,-3,-2,-1
1533863332812866,-1,-2,-5,3,0,1,-1,-1
1533863332812866,1,-3,-3,-15,-1,-2,-2,-1
1533863332821839,0,-2,4,8,5,0,-1,0
1533863332821839,-2,-3,-3,-4,-11,-4,-1,-1
1533863332823830,-2,-3,-4,-8,4,0,-3,-1
1533863332823830,-3,-2,5,4,3,-1,-1,-2
1533863332844775,0,0,-6,-7,-3,-1,0,0
1533863332844775,0,-1,5,-8,3,0,0,0
1533863332845773,0,1,2,6,-6,0,2,-2
1533863332845773,-4,-2,-6,-5,-4,-1,0,-1
1533863332857749,-3,-2,-10,0,0,-3,-5,-1
1533863332857749,-1,18,-11,-4,1,0,0,0
1533863332866719,0,-7,4,-5,-5,-1,1,0
1533863332866719,3,1,29,1,-2,-3,1,-2
1533863332881679,-1,-4,-1,-2,4,-3,-2,-3
1533863332881679,-1,-4,-3,5,-8,-1,0,-2
1533863332883671,0,3,1,0,1,-1,0,0
1533863332883671,-1,-2,-13,1,-4,-3,-1,-2
1533863332904614,0,6,5,-21,-6,-1,-1,-1
1533863332904614,1,-2,8,14,8,-3,-4,0
1533863332906610,-2,-1,-2,9,-5,0,-2,-1
1533863332906610,-1,-2,-3,-27,-5,0,-3,-1
1533863332918577,-1,0,4,10,2,-3,0,0
1533863332918577,-3,-6,-5,-7,-1,-1,0,-2
1533863332926556,-1,-1,3,8,0,-1,0,-1
1533863332926556,-3,-1,-10,-2,-2,-2,-4,0
1533863332942513,-1,-1,1,-10,-3,1,-2,-2
1533863332942513,1,-2,5,17,8,2,1,-1
1533863332943511,0,2,-3,-7,-6,-3,-1,-2
1533863332943511,-5,-5,-10,12,-7,-3,-4,-2
1533863332964454,0,9,-11,-5,-5,-1,-1,-1
1533863332964454,-2,-9,-7,-8,0,-2,-4,1
1533863332965464,0,-3,13,-4,2,-1,0,-1
1533863332965464,-1,0,-2,-5,1,-4,0,-1
1533863332978417,-3,-3,2,-2,-4,-2,-1,0
1533863332978417,-2,-1,-9,1,-3,-2,-1,-2
1533863332987394,0,-2,-13,-11,2,-1,-3,-3
1533863332987394,2,1,-2,-1,1,0,0,0
1533863333002356,-3,-4,-8,36,3,-3,-1,-2
1533863333002356,-1,-4,-2,-16,-2,-3,1,-3
1533863333003350,-2,-2,-4,-11,-5,-3,-1,-2
1533863333003350,0,-1,3,4,3,0,0,-2
1533863333024294,2,4,1,-6,1,1,0,0
1533863333024294,-4,-19,11,-6,-3,2,-1,0
1533863333026289,-2,-2,1,17,9,2,-2,0
1533863333026289,0,2,-5,-9,-5,-2,-1,-1
1533863333038260,-2,-5,-3,-4,-8,-1,0,-1
1533863333038260,0,2,1,4,-1,1,-1,-2
1533863333053217,0,0,-1,2,2,-2,-2,-1
1533863333053217,-2,-1,-1,3,5,-1,-2,-1
1533863333062193,-1,-7,-4,19,2,0,0,-1
1533863333062193,-2,3,-20,-40,-3,-4,-3,-2
1533863333063206,-1,-2,-9,2,0,1,0,-2
1533863333063206,0,0,7,9,10,1,0,-2
1533863333100131,-2,-1,5,-7,-12,-1,-1,0
1533863333100131,-3,1,-3,-8,-1,-4,-3,-1
1533863333102086,-2,-8,-13,-2,-5,-3,-1,0
1533863333102086,1,2,7,-4,-2,2,0,0
1533863333102086,0,1,-1,-8,0,-1,3,0
1533863333102086,2,-5,9,14,2,-1,1,0
1533863333107073,-3,2,7,-18,-7,-3,-2,-2
1533863333107073,-1,-2,-2,1,3,-2,0,-1
1533863333122234,-2,-4,4,-15,-2,-1,-2,0
1533863333122234,1,7,-1,8,-2,0,0,1
1533863333123031,-3,-2,2,10,7,1,1,-1
1533863333123031,0,0,-3,10,-9,0,-1,-3
1533863333144971,-1,2,2,-2,3,-1,2,0
1533863333144971,-4,0,0,-7,-6,0,-1,-1
1533863333145969,3,0,1,-6,-2,0,-1,0
1533863333145969,-2,-4,-4,-2,2,0,-1,-1
1533863333166916,-2,-3,-5,2,-5,-1,-1,-4
1533863333166916,-2,0,1,4,-2,-2,0,-2
1533863333173898,0,-2,3,-1,2,0,-1,-2
1533863333173898,-2,0,-7,0,-4,-2,-1,-2
1533863333180881,-1,-4,-6,-8,-1,0,-2,-2
1533863333180881,2,1,3,4,-5,2,-1,0
1533863333181873,-1,3,9,15,3,-2,-1,0
1533863333181873,-3,-4,-9,-20,-7,-5,-3,-2
1533863333203814,0,0,-2,1,1,-1,-2,0
1533863333203814,-2,-1,-3,-3,0,-1,-1,-1
1533863333204815,0,-14,-17,10,0,2,0,-1
1533863333204815,3,-6,52,-9,-6,0,1,1
1533863333225759,-1,-3,5,5,4,-1,-2,1
1533863333225759,-4,-8,-2,-1,-5,-5,-5,-2
1533863333226753,-1,4,1,-11,-2,-2,-2,-2
1533863333226753,-2,1,-16,-1,-1,1,-3,0
1533863333242710,0,-1,3,0,-4,2,0,-1
1533863333242710,-1,3,9,2,8,3,-1,-1
1533863333243707,-1,3,-5,-9,-2,-1,-2,-1
1533863333243707,-4,-2,-11,24,3,-4,-2,-3
1533863333263658,-1,0,0,-22,-3,-5,-2,-3
1533863333263658,0,0,-7,5,-5,-1,0,-1
1533863333264651,-2,1,3,-5,-1,-1,-2,-3
1533863333264651,0,0,-9,-5,-1,0,-1,0
1533863333294833,-1,-20,22,6,4,1,-2,0
1533863333294833,-2,-3,-1,-11,8,0,0,-2
1533863333294833,-2,-1,1,7,-14,-6,0,0
1533863333294833,-2,-3,20,11,-1,-3,-1,0
1533863333300813,1,10,10,-12,2,-1,-1,0
1533863333300813,-1,0,0,8,-1,-2,1,-1
1533863333301820,0,12,-4,-10,1,0,-1,-2
1533863333301820,-3,-4,-15,6,0,-2,0,-2
1533863333323761,-1,2,-10,-6,-3,1,-2,-2
1533863333323761,1,1,10,7,3,1,-1,0
1533863333324749,-1,2,-5,-6,-2,1,-1,-1
1533863333324749,-2,-2,-13,-11,0,-3,-3,0
1533863333346705,-1,-1,-8,-2,-4,0,0,0
1533863333346705,-2,1,4,2,-2,-4,0,-2
1533863333346705,-1,-3,-3,23,1,-1,-2,-1
1533863333346705,-1,-1,-7,-46,-5,1,0,-2
1533863333361651,0,15,1,-1,0,0,0,-3
1533863333361651,-1,-2,-10,12,8,-2,-4,-3
1533863333361651,-3,-6,3,3,-15,-5,0,1
1533863333361651,-2,-1,-1,-9,-4,0,0,1
1533863333383591,-2,3,-5,-2,-3,-2,-1,-2
1533863333383591,0,0,-3,-2,5,1,0,-1
1533863333384589,0,-1,2,-2,1,-2,0,-2
1533863333384589,-1,3,-8,19,0,1,-1,-2
1533863333406748,0,-4,-16,-24,-1,-2,-2,-1
1533863333406748,-5,2,-2,20,-5,-3,-5,-1
1533863333407528,-1,-6,4,-10,-1,-2,0,0
1533863333407528,-3,-4,-10,12,-4,-2,-2,-1
1533863333421582,-1,-5,5,-3,-1,1,1,-1
1533863333421582,1,0,0,-10,-2,-1,-1,0
1533863333428473,1,3,2,-6,4,-2,-1,-1
1533863333428473,1,15,-8,-3,1,-2,-1,-4
1533863333451484,2,-1,1,20,9,1,-1,0
1533863333451484,-3,-2,-8,-20,-17,-7,-6,-2
1533863333458397,-5,-7,-34,0,5,1,-1,-3
1533863333458397,0,-1,5,2,-1,-1,-2,-2
1533863333466373,-3,-5,-2,8,-1,-2,-2,0
1533863333466373,2,0,3,1,-3,1,2,1
1533863333467367,0,-1,2,-3,2,0,-1,0
1533863333467367,-1,-8,-10,-5,2,-1,-2,-2
1533863333481329,0,4,12,4,1,-1,0,-1
1533863333481329,2,-2,4,8,5,0,0,0
1533863333482326,-3,-4,1,-19,-7,-3,-5,-1
1533863333482326,-3,-1,4,15,-1,0,2,0
1533863333503276,-5,-6,-10,-23,-9,-5,-3,-3
1533863333503276,1,9,-29,1,-3,0,-1,-1
1533863333504268,0,0,7,-2,2,2,1,1
1533863333504268,0,-23,7,8,7,3,1,3
1533863333535408,-3,-2,-2,0,-9,-3,-1,0
1533863333535408,-1,1,2,-11,-1,1,-1,-1
1533863333535408,-1,2,-2,12,1,-1,-3,-2
1533863333535408,-1,3,-2,6,1,-1,-3,-4
1533863333541170,-2,-1,-8,-14,5,-3,-3,-2
1533863333541170,-4,-11,3,-5,-6,-1,1,-2
1533863333542168,2,-2,5,-2,2,0,0,-1
1533863333542168,1,4,6,-10,-7,0,-2,0
1533863333564110,-2,-6,-2,17,3,-1,-1,-2
1533863333564110,-1,-1,1,4,-6,-3,0,-1
1533863333564110,-1,-1,1,-1,2,1,1,-1
1533863333564110,-1,2,-4,-4,-1,-2,-1,-2
1533863333586053,0,-1,-1,0,-5,-1,-2,-1
1533863333586053,-1,-3,4,13,4,-1,0,0
1533863333587066,-1,-1,-10,-28,-3,-4,0,-3
1533863333587066,-3,2,30,2,-10,1,-1,-1
1533863333601216,-2,-3,-3,5,-3,0,-1,-1
1533863333601216,-2,-3,8,-7,2,1,-1,-1
1533863333602008,-2,-5,5,25,4,0,-3,-3
1533863333602008,-1,18,-17,3,-1,-1,-3,-2
1533863333623952,0,0,6,-16,3,3,0,1
1533863333623952,-5,-5,-15,-16,-12,-5,-2,-2
1533863333624966,-3,2,0,-4,-2,-1,-2,0
1533863333624966,0,-2,-8,-8,3,-2,1,-1
1533863333645921,1,-1,-1,11,0,1,-1,0
1533863333645921,0,-1,-1,-9,2,0,0,0
1533863333646888,-2,0,1,1,-1,-3,-1,0
1533863333646888,1,-5,1,7,5,-4,-2,-1
1533863333660853,-2,-1,-19,-5,-7,-4,-1,-1
1533863333660853,-1,-1,15,5,-1,-3,-1,-3
1533863333661847,-2,-4,-1,-8,-8,-4,2,-2
1533863333661847,-3,1,-3,9,4,-2,-3,-1
1533863333683789,0,-2,-5,7,1,-2,-1,-1
1533863333683789,1,3,-4,-15,-1,-1,-1,0
1533863333684786,-1,-4,7,1,1,1,0,0
1533863333684786,0,-1,-6,-10,-2,0,-1,-1
1533863333706728,-3,-2,-6,-8,-7,-1,-4,-4
1533863333706728,-1,-3,5,14,6,3,-2,-1
1533863333706728,3,6,4,6,0,1,-3,1
1533863333706728,-5,-8,-15,-38,-4,-5,-3,-2
1533863333721822,-3,0,2,10,-2,-4,0,-2
1533863333721822,1,-3,-3,-7,-3,-1,0,0
1533863333721822,-3,-3,-5,0,-1,2,-1,-1
1533863333721822,2,13,-6,2,-1,-1,-1,-1
1533863333743999,1,-7,8,0,2,-1,1,-1
1533863333743999,0,-2,-4,-2,1,-1,-1,-1
1533863333744873,2,1,2,7,-1,1,1,0
1533863333744873,-3,-8,3,-17,-4,-4,-2,-1
1533863333765820,1,21,-10,7,0,0,-2,-3
1533863333765820,-2,-4,10,5,5,0,-1,0
1533863333766815,-1,-1,-1,1,-7,-3,-1,-2
1533863333766815,0,-5,3,8,0,-2,1,0
1533863333780781,-1,2,2,2,2,0,0,1
1533863333780781,-1,-1,-4,-6,-2,0,-2,-1
1533863333781775,-1,-1,-3,7,4,-2,-1,-3
1533863333781775,-1,-3,-1,6,2,1,-2,-3
1533863333803719,-2,-7,-1,6,-9,0,0,0
1533863333803719,0,2,-4,-11,6,-1,-2,-2
1533863333804713,-4,-6,-32,2,-14,-6,-2,-3
1533863333804713,1,1,19,15,1,4,-1,0
1533863333826710,-2,-3,4,3,3,0,-1,0
1533863333826710,0,-1,-5,-12,-1,-1,-2,0
1533863333826710,-1,0,-1,7,3,-2,-2,0
1533863333826710,1,-4,-11,8,-2,-1,1,0
1533863333841615,0,1,-2,-33,-4,0,-1,-2
1533863333841615,-3,-14,7,27,0,-1,-1,0
1533863333841615,-2,-4,5,-22,-1,-1,-3,-1
1533863333841615,1,7,-8,0,-6,-2,-1,-1
1533863333863556,0,-2,15,0,0,2,0,0
1533863333863556,3,7,-3,-2,-5,-2,-1,-1
1533863333864553,-5,-6,2,-7,5,-2,-2,0
1533863333864553,-3,-5,-1,-7,-9,-2,-2,0
1533863333886498,-1,-4,-9,1,2,-1,-1,-1
1533863333886498,-2,1,1,-9,-7,-2,0,-3
1533863333886498,3,5,0,1,3,2,-2,-2
1533863333886498,2,-1,18,11,7,1,-1,0
1533863333902451,-3,-4,11,1,-8,-6,-2,-1
1533863333902451,0,1,-33,-2,-8,-3,-3,-4
1533863333908439,-4,-16,18,-8,1,-2,0,0
1533863333908439,-1,-3,-5,5,-4,2,1,-1
1533863333924393,3,2,7,3,3,3,0,1
1533863333924393,1,7,27,10,1,0,-2,0
1533863333924393,0,19,-10,2,2,0,-2,-1
1533863333924393,-1,-6,-1,-18,-2,-1,-2,-1
1533863333954316,-1,-7,-8,-2,-2,0,-2,-3
1533863333954316,-3,-2,-10,-4,-2,-1,-2,0
1533863333955310,1,1,3,2,-1,1,-1,-1
1533863333955310,-1,-5,-2,-3,0,-1,-1,-2
1533863333960300,-1,-1,-10,2,0,-2,-3,-1
1533863333960300,-2,-3,0,-9,-3,1,0,-3
1533863333976258,-1,-4,4,28,2,-2,-1,-2
1533863333976258,-3,0,-8,-38,-2,-3,-2,-1
1533863333984237,1,-4,1,6,5,-3,-1,1
1533863333984237,-2,-2,2,18,1,-1,-1,2
1533863333984237,-2,-3,-3,-12,-11,-4,-1,-2
1533863333984237,-1,-4,-17,7,-1,1,-1,0
1533863334006378,-2,-2,1,-4,-2,3,2,-1
1533863334006378,1,10,-2,-7,1,0,1,0
1533863334007198,0,-18,-38,-7,0,0,0,-1
1533863334007198,-4,0,11,14,-3,0,0,-2
1533863334020140,-2,0,-1,5,0,-3,-1,0
1533863334020140,-1,-1,1,0,-5,-2,0,-2
1533863334029113,-1,-4,8,-1,4,-2,1,0
1533863334029113,0,0,-2,-11,-3,0,0,-2
1533863334044076,-1,-4,-5,-5,-2,-3,0,-1
1533863334044076,0,-6,6,22,12,0,-2,1
1533863334044076,0,6,6,-47,-18,-2,-3,0
1533863334044076,-1,-5,-1,17,3,-2,-2,-2
1533863334066019,-1,0,4,1,0,2,0,0
1533863334066019,-2,-2,-10,-13,-8,-1,-1,-2
1533863334067013,0,3,6,12,6,1,0,-1
1533863334067013,0,4,4,3,0,-2,1,0
1533863334081972,0,-2,-11,-10,-4,-2,-1,-2
1533863334081972,-1,-6,-1,0,2,-1,-2,-1
1533863334088956,2,8,4,-1,-1,-1,-2,-2
1533863334088956,0,-21,10,3,8,0,0,3
1533863334103916,-6,-5,-9,-21,-19,-7,-4,-3
1533863334103916,-1,-6,-5,19,-5,-2,-1,-3
1533863334104910,-2,3,8,-23,0,-3,-1,-1
1533863334104910,0,13,7,5,-1,1,-3,-1
1533863334134834,0,2,2,4,6,2,1,0
1533863334134834,-1,-3,9,-5,0,-2,-3,-1
1533863334134834,-2,-2,-4,6,-2,0,-1,-1
1533863334134834,0,0,-7,-4,0,-1,-1,-1
1533863334141021,-1,-3,2,-7,-1,1,1,0
1533863334141021,0,0,-2,8,1,-2,-3,-1
1533863334148798,-1,-3,-3,-5,0,1,-2,0
1533863334148798,-3,-2,-4,-2,-3,-2,-2,0
1533863334163753,-2,0,0,2,-1,2,-2,-2
1533863334163753,1,-1,-4,-9,-3,0,-2,-1
1533863334164750,0,-2,1,1,-2,-2,0,-2
1533863334164750,-2,-1,-4,-6,-2,-1,-1,-2
1533863334186694,-1,2,3,36,10,-1,1,-1
1533863334186694,-3,-3,-4,-44,-10,-1,-1,-3
1533863334186694,-4,-4,-5,-2,-2,-3,-1,-3
1533863334186694,-1,2,-1,-5,-5,-3,0,-1
1533863334200872,0,0,-2,2,3,0,0,-1
1533863334200872,0,3,11,16,5,1,-2,0
1533863334208636,-1,-2,-6,1,-2,0,-2,-3
1533863334208636,-1,-1,-1,-9,-9,-4,0,-1
1533863334223638,2,-1,-2,-1,-3,-3,-2,-1
1533863334223638,-3,-1,-2,4,9,-4,-2,0
1533863334224625,1,-1,4,2,2,1,-1,0
1533863334224625,-1,0,-13,2,-6,-3,-1,-3
1533863334246537,-1,-2,-1,-22,1,1,-1,-1
1533863334246537,1,14,-5,-4,-6,0,-1,0
1533863334247535,-1,-8,6,27,2,-1,-1,-1
1533863334247535,2,2,12,-12,4,3,1,-2
1533863334269489,0,-4,2,-18,-3,-2,0,0
1533863334269489,-4,-1,-12,-27,-7,-4,1,-3
1533863334270472,-2,1,-2,3,4,-3,-3,-1
1533863334270472,-3,-2,-30,8,-2,1,-2,-2
1533863334283436,-2,4,-3,-7,-4,0,-4,-2
1533863334283436,-1,-5,13,14,0,1,1,0
1533863334284430,-1,-3,-16,-7,-4,-2,-2,-1
1533863334284430,-2,0,3,3,-4,-1,-2,-1
1533863334306374,0,-1,-1,8,3,-1,-3,-1
1533863334306374,0,-4,-11,-26,-7,-1,0,-1
1533863334307369,-1,0,3,5,-1,-1,0,0
1533863334307369,1,3,1,-1,3,-3,-3,-2
1533863334329317,-2,0,3,4,-5,-2,0,-1
1533863334329317,0,-5,-1,3,-3,-4,-1,-1
1533863334330308,1,4,3,-17,10,4,1,-1
1533863334330308,3,21,-14,23,9,0,-1,-2
1533863334343276,-3,-20,21,42,-9,-4,-1,-4
1533863334343276,-4,-7,-8,-38,-9,-2,0,-1
1533863334344270,-1,1,1,-2,-2,0,1,0
1533863334344270,1,3,7,-6,6,0,-1,-1
1533863334366215,0,2,-1,9,-3,-1,0,-2
1533863334366215,0,-1,-3,22,8,-1,-3,-3
1533863334367208,-1,-1,-17,-3,-8,-2,-1,-1
1533863334367208,-3,-10,7,-6,-7,-3,0,0
1533863334389153,-3,5,2,-13,-2,-1,1,0
1533863334389153,0,-3,11,-13,1,1,-1,0
1533863334390148,1,3,-4,13,1,-3,-1,-1
1533863334390148,-4,-6,1,10,5,-4,-3,-1
1533863334404110,-2,0,-10,-17,-6,1,-1,-2
1533863334404110,1,12,-4,7,1,1,0,0
1533863334404110,1,-1,8,-4,-1,0,1,-2
1533863334404110,0,-4,-2,3,-1,-3,-1,-2
1533863334426054,-1,-5,-1,10,3,-1,-1,-1
1533863334426054,0,0,5,-24,2,1,-1,-1
1533863334427048,0,0,2,2,-8,-2,-2,-2
1533863334427048,-3,-5,2,-3,-1,0,-1,-1
1533863334456972,0,5,-8,-10,3,0,-3,-2
1533863334456972,1,-4,-1,3,-5,-3,-2,2
1533863334457966,-2,-4,0,15,12,-2,-2,-3
1533863334457966,0,14,-7,-19,-18,-2,-1,-2
1533863334463958,-3,-4,-20,6,0,0,-2,0
1533863334463958,0,-2,15,13,-1,2,1,0
1533863334463958,-4,-2,12,-2,0,0,-2,0
1533863334463958,-1,-2,-3,-6,-2,1,0,0
1533863334485891,-1,-16,6,3,5,-1,-1,1
1533863334485891,0,2,2,1,0,-1,-1,-2
1533863334486888,-3,-2,-18,-6,-13,-3,-3,-1
1533863334486888,0,-8,9,15,5,2,1,2
1533863334509881,2,9,5,2,1,0,0,-1
1533863334509881,-2,-4,5,-30,-1,-2,0,-1
1533863334509881,-5,-4,1,11,4,0,-2,-1
1533863334509881,-3,-1,-1,-6,-1,0,-3,-2
1533863334523898,0,1,-4,-4,-10,-4,-2,-1
1533863334523898,-1,0,-9,17,6,-1,-2,0
1533863334524788,-1,1,1,-13,-6,-2,0,-1
1533863334524788,-1,-7,-4,-6,-4,-2,-2,0
1533863334545736,-2,2,1,2,7,0,0,-1
1533863334545736,-2,-5,-5,15,3,-1,0,-3
1533863334546744,1,1,11,-5,-5,-3,0,0
1533863334546744,-1,-6,-22,-7,0,0,1,-1
1533863334569670,0,0,15,3,-2,-1,-4,-2
1533863334569670,-3,-3,-13,-15,-6,-2,-2,-2
1533863334570665,-2,-2,-22,-20,-4,-3,-1,0
1533863334570665,-2,-20,-27,4,-6,-1,-2,-2
1533863334583648,-2,1,-1,-16,-1,-1,-1,-1
1533863334583648,-2,-4,-12,5,-3,0,-2,-3
1533863334584627,1,0,17,14,5,2,3,3
1533863334584627,0,4,3,-5,5,0,-1,-1
1533863334606568,-2,-2,-13,-34,-2,-3,0,-1
1533863334606568,-1,-4,-4,24,-2,-4,-3,-1
1533863334606568,-1,2,-5,-16,-5,-1,-1,-2
1533863334606568,-2,4,9,5,-1,-2,0,1
1533863334629507,-1,-2,-6,14,3,1,0,-1
1533863334629507,0,6,33,0,0,-2,0,1
1533863334630505,-1,-27,-16,-8,7,1,-1,-2
1533863334630505,0,0,20,46,-4,0,-1,-1
1533863334643473,-4,-5,-1,-44,-4,-5,-3,-1
1533863334643473,-2,-7,-25,-17,-3,1,-1,0
1533863334644467,-1,8,17,7,-3,-2,-2,-2
1533863334644467,-4,-4,3,-15,4,1,-3,-1
1533863334666412,0,2,-5,25,1,1,0,-1
1533863334666412,-1,0,-8,13,-3,-3,0,-1
1533863334667406,-1,14,-1,-17,-4,-2,0,-2
1533863334667406,2,4,7,-11,4,0,2,0
1533863334689351,-1,6,12,26,4,-1,-2,-1
1533863334689351,0,-5,0,-8,0,0,-1,-2
1533863334690344,0,1,1,20,2,2,0,0
1533863334690344,0,-2,3,1,1,0,-1,-1
1533863334704307,-2,-7,-21,-19,-15,-2,-2,-2
1533863334704307,0,3,2,0,10,3,-1,-2
1533863334704307,-1,-2,1,10,-14,-2,-2,-2
1533863334704307,0,2,2,2,3,0,0,0
1533863334726252,2,-2,1,-9,-3,-1,2,1
1533863334726252,-2,1,-5,18,6,-3,-1,-2
1533863334727245,-2,0,9,-10,3,-3,-1,0
1533863334727245,1,16,-20,-2,0,-5,-1,-2
1533863334750188,1,-5,26,11,4,0,0,-1
1533863334750188,-2,-4,-2,-12,-13,0,-1,-1
1533863334751189,-1,-4,-7,-9,5,2,-1,-3
1533863334751189,-3,1,12,-3,-6,-3,-2,-1
1533863334763282,-1,2,-8,-1,3,-2,-1,-1
1533863334763282,0,1,-3,11,-3,-2,0,-1
1533863334764280,-1,1,-3,15,0,1,0,-2
1533863334764280,-3,-26,-2,-35,-9,-2,-2,-3
1533863334794200,-1,-3,-3,2,5,0,-1,-1
1533863334794200,1,-6,3,-2,1,0,-1,0
1533863334795208,0,-2,-8,14,3,-1,-2,1
1533863334795208,-2,15,1,1,-7,-3,-2,-2
1533863334809160,0,-11,0,3,-8,-2,0,-1
1533863334809160,-3,-4,-3,9,-10,-3,-2,-1
1533863334810157,2,2,0,-12,2,-1,0,0
1533863334810157,1,1,-1,2,4,0,-4,-3
1533863334824119,-1,5,-2,-9,5,-2,-2,1
1533863334824119,-1,3,-2,11,7,-1,-1,-3
1533863334824119,-2,-7,9,-34,-15,0,-2,-1
1533863334824119,-2,-7,0,-3,4,1,0,0
1533863334846064,1,2,-6,-7,-7,-1,0,-2
1533863334846064,-2,-5,3,0,9,-1,-1,-2
1533863334847058,-2,0,-6,18,-9,-5,-2,-2
1533863334847058,1,-3,-1,-19,1,-1,2,0
1533863334870067,-3,1,-3,13,-5,0,-2,-3
1533863334870067,-2,1,-5,-11,-11,-1,-2,-1
1533863334870067,-2,-6,-8,-7,0,-1,-2,-2
1533863334870067,-2,-5,-8,0,0,-4,-3,-2
1533863334882966,1,1,-1,7,7,1,2,0
1533863334882966,0,11,-3,-30,-8,-1,-2,-1
1533863334890944,-2,-21,5,0,-2,-2,0,-1
1533863334890944,-3,-8,-12,6,0,1,-1,-3
1533863334905904,1,-1,30,-15,-3,0,-1,-1
1533863334905904,-1,-3,6,47,20,3,-1,-2
1533863334906897,-1,4,-5,-49,-23,-8,-3,-2
1533863334906897,1,6,25,8,-2,1,0,0
1533863334929837,-3,1,-14,4,5,-2,-1,-1
1533863334929837,0,1,-1,-5,-7,-3,0,0
1533863334929837,1,4,8,11,12,4,-3,-1
1533863334929837,-1,-3,-2,3,-3,0,0,0
1533863334942806,-2,-2,-10,-7,-4,-1,-2,-3
1533863334942806,0,-2,6,-9,2,-2,1,1
1533863334950781,-1,1,-10,3,4,0,0,-1
1533863334950781,-1,-2,-4,-2,-8,-3,-3,-2
1533863334966742,-3,-1,-3,17,-2,-1,1,-1
1533863334966742,-3,-5,-7,-18,-8,-3,0,-3
1533863334966742,0,-2,-2,34,7,0,-1,-3
1533863334966742,0,-7,6,-15,6,-1,0,0
1533863334989717,-4,-4,-2,-17,-13,-5,-4,-2
1533863334989717,-2,0,-4,-10,-2,2,0,1
1533863334989717,-2,-19,6,10,-6,-2,0,0
1533863334989717,-5,-1,-2,-9,1,0,-1,-2
1533863335003640,0,-2,-7,9,8,2,1,1
1533863335003640,-2,-6,-6,-29,-6,-3,-3,-2
1533863335011645,0,12,-3,-5,7,-1,1,0
1533863335011645,0,0,-7,3,0,-1,-1,0
1533863335026595,2,-2,-1,-2,-2,0,-1,-3
1533863335026595,1,4,-17,25,1,0,0,-1
1533863335033563,1,6,8,2,2,2,2,-1
1533863335033563,-3,-3,-2,5,-2,-5,-4,-2
1533863335056501,-1,0,-5,-9,-2,1,-2,-2
1533863335056501,-1,-3,-10,10,1,1,2,-1
1533863335057502,-1,11,-3,-19,-4,-4,-1,-1
1533863335057502,-1,-24,5,-2,-2,-1,3,-1
1533863335071468,-3,-2,-6,3,3,0,-1,-1
1533863335071468,-2,0,8,8,0,-4,0,0
1533863335072472,-2,-2,-6,-5,2,0,-2,-1
1533863335072472,0,6,-1,-7,-12,-3,0,-1
1533863335086418,1,3,1,-7,3,1,-2,0
1533863335086418,-1,-6,5,4,-15,1,-2,0
1533863335087425,-2,-6,8,-5,8,2,-1,0
1533863335087425,-2,6,-18,-2,-9,-1,-2,-1
1533863335109360,0,-4,-7,-14,-3,-1,0,-1
1533863335109360,-1,-4,4,7,9,0,-1,-2
1533863335110354,-1,0,-7,-1,-6,0,0,-1
1533863335110354,0,3,3,-2,3,0,1,1
1533863335123323,-1,12,-16,5,1,-3,-1,1
1533863335123323,-6,-17,-16,-8,4,-2,-3,-2
1533863335131301,0,1,4,7,-16,-7,-3,-2
1533863335131301,-1,-3,-2,10,6,0,1,-2
1533863335146262,-1,7,31,6,-3,-3,-1,-1
1533863335146262,0,5,2,-7,-2,-2,-1,-1
1533863335147255,-1,-2,-4,-10,9,1,0,0
1533863335147255,-1,1,3,12,-6,-3,0,0
1533863335169196,-1,-4,0,-15,-5,-1,1,0
1533863335169196,-2,1,-3,4,-4,-4,-3,-2
1533863335170194,-1,-11,-14,15,-4,0,0,-2
1533863335170194,-1,-18,11,2,11,2,0,0
1533863335199120,-3,-12,-17,-24,-16,-3,-2,-3
1533863335199120,0,2,11,6,-3,-1,1,-1
1533863335200114,-2,3,-15,-20,0,-3,-1,0
1533863335200114,0,7,-6,-5,5,-1,-3,-2
1533863335214080,-1,-3,-1,-10,-2,-3,-2,0
1533863335214080,0,-1,1,0,-7,0,-1,0
1533863335215075,-1,1,4,3,-2,1,-2,-2
1533863335215075,1,5,-2,0,-3,0,-3,-1
1533863335229037,-4,0,13,8,5,3,0,0
1533863335229037,0,7,0,-4,-2,-3,-2,-3
1533863335230034,1,2,8,7,4,0,1,0
1533863335230034,-3,0,-1,-6,-2,-1,0,-1
1533863335251987,-1,5,-14,9,-1,-1,-3,-2
1533863335251987,0,-18,8,-13,-8,0,0,3
1533863335252972,-2,-5,-4,13,1,-3,-3,-1
1533863335252972,-3,-1,0,2,1,0,-2,-2
1533863335265938,1,3,-3,2,9,-4,-1,-2
1533863335265938,-1,6,-12,7,-1,-2,0,-2
1533863335266951,-3,-2,0,-16,2,-1,-2,-1
1533863335266951,0,1,-6,3,-7,-1,-2,-1
1533863335289873,-2,-7,2,-3,-7,1,1,-1
1533863335289873,0,2,2,-6,12,3,-2,-1
1533863335289873,-1,-3,-12,-2,-9,-2,-3,-1
1533863335289873,-2,1,-1,-2,-1,-2,-1,1
1533863335319793,2,0,-4,-1,-2,1,-1,-1
1533863335319793,0,5,33,12,0,-2,-1,2
1533863335319793,-1,2,-5,-4,3,-1,2,-3
1533863335319793,-1,1,5,4,3,0,-1,-3
1533863335326778,-3,-3,5,18,-2,-2,-2,-2
1533863335326778,1,0,-10,-20,0,1,-3,0
1533863335333756,-1,-3,1,2,-4,-1,-2,1
1533863335333756,1,13,-21,-10,-4,-4,1,-1
1533863335349838,0,-15,15,6,-1,-1,0,0
1533863335349838,-2,2,-3,-2,4,-1,1,-3
1533863335350712,-2,4,-6,-10,3,-3,-1,-1
1533863335350712,0,-15,-8,-4,-9,0,-2,0
1533863335372652,1,2,-9,26,4,-1,0,-2
1533863335372652,1,3,9,-20,-23,-1,0,1
1533863335373650,-2,-4,10,8,4,2,0,0
1533863335373650,-2,0,2,-9,6,-1,1,0
1533863335386618,-3,-2,-9,10,2,0,-3,-2
1533863335386618,-1,-7,-2,7,5,1,-1,-2
1533863335386618,0,2,-7,-2,-14,-2,0,-2
1533863335386618,0,1,7,6,3,-2,-3,-1
1533863335409559,-2,-1,-3,-21,5,-3,-1,-1
1533863335409559,-1,3,-8,-13,-1,0,0,0
1533863335410551,-1,-1,-2,23,3,-2,-3,-2
1533863335410551,0,-1,2,26,-2,0,-1,-3
1533863335432496,-1,13,-10,-42,-3,0,-2,-1
1533863335432496,-3,-7,-12,8,7,-2,-1,-3
1533863335432496,-1,0,12,-5,-15,-1,-1,-2
1533863335432496,-1,0,4,-2,-1,0,-1,0
1533863335446488,-2,-1,-12,-6,5,0,-1,0
1533863335446488,-1,-1,-12,2,-13,-4,-2,0
1533863335447486,-3,-6,6,6,10,1,0,1
1533863335447486,0,8,-4,-13,-11,-1,-2,-3
1533863335469431,2,-2,4,-2,-4,-2,-2,0
1533863335469431,0,19,0,-9,8,1,-1,-1
1533863335470425,-1,-7,-7,19,6,-2,0,-1
1533863335470425,-3,-5,-3,-6,0,-1,0,-2
1533863335492499,-2,-2,3,-14,-4,-3,0,-1
1533863335492499,0,-5,-5,22,5,-1,-1,-2
1533863335492499,-2,2,-1,-30,-8,-4,-2,-1
1533863335492499,-2,-3,-5,6,1,1,-3,0
1533863335506364,0,-3,1,-13,-4,-2,-2,1
1533863335506364,1,-3,-3,-6,1,-2,1,-1
1533863335513312,0,1,1,18,-1,-1,-1,-2
1533863335513312,-5,-7,0,3,-5,-4,-2,-3
1533863335529267,-1,11,-8,10,3,3,-1,-1
1533863335529267,-4,-20,-11,0,-2,0,-1,0
1533863335530282,2,2,3,-9,2,3,1,2
1533863335530282,1,1,2,-3,-2,-1,-2,0
1533863335552210,0,3,3,10,-12,0,0,0
1533863335552210,-3,-1,-1,-9,-1,0,0,-2
1533863335552210,1,-2,-14,-1,2,0,0,-3
1533863335552210,1,4,20,-6,5,-2,-1,-2
1533863335566271,0,-5,-3,11,2,-1,-3,-3
1533863335566271,-1,0,4,-14,-4,-2,-3,-3
1533863335567259,-2,-6,-6,9,4,-1,-1,0
1533863335567259,-2,-3,-11,-51,-11,-2,-2,-1
1533863335597181,-3,-8,5,15,3,0,1,0
1533863335597181,-2,0,0,-4,-5,-2,-1,-2
1533863335598188,0,4,4,14,-6,-1,-3,-1
1533863335598188,-2,-5,-3,9,4,-2,-2,-2
1533863335612141,-1,-3,-2,-4,-6,-4,0,-2
1533863335612141,-2,-1,-2,2,-1,-2,1,0
1533863335613138,2,1,2,-15,-2,0,0,1
1533863335613138,2,0,-3,-3,2,1,-1,0
1533863335626102,-3,2,2,4,5,-1,-2,-1
1533863335626102,1,0,-2,2,-11,-2,-3,-2
1533863335627108,-3,-4,-2,7,4,-2,-1,-1
1533863335627108,-2,-3,3,9,-2,-2,-1,-1
1533863335650037,-1,-1,1,-2,3,2,2,-1
1533863335650037,-2,-1,0,-6,0,-2,-2,-1
1533863335650037,-1,1,-3,-13,-3,-2,-4,-2
1533863335650037,-1,2,-7,7,0,-3,-1,-2
1533863335671982,-1,-6,-3,-1,-2,-1,-3,0
1533863335671982,0,-2,4,2,-1,1,-2,0
1533863335673011,-2,-2,-2,-10,-15,-3,1,-1
1533863335673011,-1,0,2,3,4,-1,1,-1
1533863335685945,1,-2,-1,-8,-8,-3,1,0
1533863335685945,-1,0,3,7,3,2,0,0
1533863335686939,-1,4,3,-7,5,0,-2,0
1533863335686939,1,1,-1,7,1,3,1,1
1533863335709982,-4,-5,-6,-5,-2,-3,-1,-3
1533863335709982,-3,1,-2,12,0,0,-3,0
1533863335709982,-3,-1,4,7,2,2,1,-2
1533863335709982,-1,0,0,-46,-4,-2,1,0
1533863335731823,-4,-8,-7,4,3,-2,-4,-5
1533863335731823,0,0,1,3,-2,-1,0,-3
1533863335732816,0,0,-1,-8,-7,0,-2,-1
1533863335732816,-1,-3,0,8,-9,-2,-1,-1
1533863335745781,1,1,2,-7,1,2,0,0
1533863335745781,-1,-2,-2,-9,0,-3,-1,-1
1533863335753766,-3,-3,-2,22,13,0,-2,-1
1533863335753766,-1,0,-3,4,-12,-4,0,0
1533863335769721,0,-2,-1,9,-2,-3,-2,-1
1533863335769721,0,2,2,-23,-4,-2,1,-3
1533863335769721,1,1,-1,-8,0,-3,0,0
1533863335769721,0,-2,0,6,6,0,-1,1
1533863335791660,0,-2,0,13,-3,0,-4,-2
1533863335791660,-2,-1,-1,-12,-2,-1,-3,1
1533863335792657,0,-2,-3,10,3,-2,-1,-1
1533863335792657,-2,-2,-4,-14,-2,-1,-1,-2
1533863335805622,-2,0,0,1,-2,-1,0,0
1533863335805622,0,0,1,3,10,2,0,1
1533863335813604,-2,-4,-2,-21,-18,-5,-1,0
1533863335813604,0,-3,-2,32,-1,-2,-1,-1
1533863335829559,0,1,4,1,6,-1,0,-1
1533863335829559,0,0,1,8,-2,0,-1,-2
1533863335831558,0,-1,0,-25,-8,-1,-2,1
1533863335831558,-2,-1,-4,-1,0,0,-1,0
1533863335851543,-2,-1,-1,5,-5,-3,-1,-1
1533863335851543,-1,-2,1,-5,8,-2,-1,-3
1533863335853499,1,3,2,14,6,1,2,-1
1533863335853499,0,-2,0,-13,0,-3,-1,-3
1533863335865462,-1,-1,-2,-12,-1,-1,-2,-2
1533863335865462,0,-1,-1,11,0,-2,-2,-2
1533863335874438,-2,-1,-1,5,-4,1,-1,-2
1533863335874438,-2,-1,-1,2,0,0,-1,0
1533863335889403,1,-1,1,2,-1,0,0,0
1533863335889403,-2,-3,-1,19,-4,-1,-1,0
1533863335891392,0,0,-2,-10,0,-1,-1,0
1533863335891392,-5,-5,-10,8,-4,-4,-4,-3
1533863335912337,-2,-1,-4,-8,-6,-2,-1,0
1533863335912337,0,2,1,2,-2,-1,-1,2
1533863335913334,-2,-2,4,3,5,-1,0,-2
1533863335913334,1,2,3,17,11,2,-1,0
1533863335925301,-2,-4,1,-15,5,-2,-2,-2
1533863335925301,-4,-3,-4,-30,-18,-2,0,0
1533863335934278,-2,-2,0,50,8,-2,-1,-3
1533863335934278,1,3,5,-29,-9,-1,1,-1
1533863335948260,-4,-4,-7,24,-8,-5,-4,-3
1533863335948260,-2,-2,-4,14,2,3,-2,-1
1533863335956221,0,0,0,-22,-2,2,-2,0
1533863335956221,-2,-2,1,15,5,1,-1,0
1533863335972369,0,0,2,-5,1,-1,0,0
1533863335972369,-1,1,1,-10,0,-2,-1,-1
1533863335973174,-3,-6,-10,3,-9,-5,-4,-2
1533863335973174,1,-3,-3,-9,1,-2,0,-2
1533863335985146,-2,0,-1,-17,-3,-2,1,-2
1533863335985146,0,1,1,-4,3,0,0,-1
1533863335994143,-4,-2,-3,-4,-4,-2,-3,-3
1533863335994143,-2,-2,-5,25,-2,0,-4,-1
1533863336009134,0,3,7,7,1,3,0,1
1533863336009134,-4,-5,-7,-41,-7,-5,-1,-1
1533863336011074,0,2,-1,-36,2,-1,1,0
1533863336011074,-1,0,-4,-8,-4,-6,-2,0
1533863336032017,0,-2,-5,5,-3,-1,0,-2
1533863336032017,1,-2,-1,0,-1,-1,0,-1
1533863336034010,-2,0,1,-12,0,0,-1,-1
1533863336034010,-2,0,3,14,7,-1,-1,-2
1533863336045979,-1,0,-1,-5,-6,0,-3,0
1533863336045979,-2,0,2,16,-2,-2,-1,-1
1533863336054955,1,0,1,18,-1,-1,-1,0
1533863336054955,-2,-1,-5,-33,-3,0,-1,-1
1533863336067924,0,0,2,1,0,-2,0,-2
1533863336067924,0,0,0,0,2,1,-1,0
1533863336076896,-1,-3,-2,0,-4,0,-3,0
1533863336076896,-1,0,6,10,4,1,1,1
1533863336091860,-1,-3,-7,-20,-4,0,-1,-2
1533863336091860,0,-5,-7,9,-5,0,-3,-1
1533863336093851,0,1,3,2,4,0,1,-1
1533863336093851,-1,-1,-1,-26,-5,-4,-1,-2
1533863336105819,-1,1,2,-12,2,-3,1,1
1533863336105819,-2,1,1,33,5,-3,-1,-1
1533863336114796,-2,-3,-3,7,-5,-2,-3,-1
1533863336114796,-1,0,0,9,1,0,-1,0
1533863336129755,-2,-1,-3,-20,-7,-1,-1,1
1533863336129755,-2,0,-1,12,-2,0,0,-2
1533863336130753,0,0,-1,-17,-7,-4,0,-2
1533863336130753,-1,-3,-3,7,0,2,0,-3
1533863336151714,-2,-2,0,1,2,-1,-1,0
1533863336151714,3,-1,1,6,10,1,-1,0
1533863336153697,-1,-2,-1,6,-3,0,0,0
1533863336153697,0,1,-2,-17,-6,-3,-3,-4
1533863336173641,-3,0,0,25,1,-1,-2,-2
1533863336173641,-3,-2,-2,-10,-7,-1,-2,0
1533863336181822,0,1,1,7,6,2,-1,0
1533863336181822,-2,0,-2,-28,0,-4,-2,-2
1533863336189599,-1,-3,-2,3,-1,-2,0,-1
1533863336189599,0,-1,2,14,2,-3,2,-3
1533863336190592,-2,-2,-5,-27,-3,-2,-1,-1
1533863336190592,-1,0,2,4,-5,-1,1,1
1533863336211536,-2,-2,-9,1,-5,-1,-4,-2
1533863336211536,0,-1,-1,3,-4,-1,-2,0
1533863336213550,-4,-2,-3,6,0,0,-1,-2
1533863336213550,-2,-1,3,7,1,0,0,-2
1533863336234672,1,0,1,-9,4,2,-1,-1
1533863336234672,1,1,-1,-5,-9,0,-1,-1
1533863336236482,-3,-4,-7,-17,-5,-1,-1,0
1533863336236482,-1,-1,1,2,0,-2,-1,0
1533863336249439,2,0,1,24,3,-4,0,-2
1533863336249439,1,0,1,-44,-3,-3,-2,-3
1533863336251430,0,1,0,1,4,-2,0,-1
1533863336251430,-3,-3,-6,17,-1,-3,-2,-3
1533863336272403,-3,0,-4,0,-4,-2,0,-2
1533863336272403,-1,1,-1,-18,8,-1,-3,1
1533863336273371,-2,0,2,8,4,-1,-2,-1
1533863336273371,-2,-2,-2,-4,-4,-1,-1,0
1533863336294314,-2,-1,1,-5,-7,2,-1,2
1533863336294314,-2,-1,-3,19,4,-1,1,-1
1533863336296310,-3,-2,-1,4,-9,-3,-2,-2
1533863336296310,2,-2,0,0,-1,-2,-3,-1
1533863336309275,-1,1,-4,-26,1,-1,-1,-1
1533863336309275,-4,-28,-1,-35,-6,-1,1,0
1533863336315262,-2,-7,1,27,1,-1,0,-2
1533863336315262,-2,-2,-2,1,1,1,0,1
1533863336332380,0,-3,4,4,0,0,-2,0
1533863336332380,0,-3,11,14,-2,-3,-2,-1
1533863336333211,0,-3,-14,-14,-1,-2,-1,-1
1533863336333211,-5,-6,0,-6,-3,1,1,0
1533863336354158,-1,-4,-3,-4,0,-3,-1,-1
1533863336354158,0,7,-3,3,0,-1,-3,-2
1533863336356150,0,0,-2,-7,-3,0,-3,-3
1533863336356150,0,3,3,13,-1,1,0,-2
1533863336369114,0,2,-5,-24,-1,-4,-2,-1
1533863336369114,-1,2,-6,23,-3,-2,-1,-1
1533863336376181,0,1,5,8,6,-2,-1,-1
1533863336376181,0,-2,-10,-24,-9,-3,-3,-1
1533863336392222,0,-2,0,-2,0,-1,-1,-1
1533863336392222,-6,-3,-7,-1,-3,0,-2,-3
1533863336393051,-1,1,2,-4,-2,1,-1,-1
1533863336393051,1,-1,2,8,7,1,2,-1
1533863336413995,-2,0,1,1,-2,-1,1,0
1533863336413995,0,5,3,-24,1,-3,0,0
1533863336415990,-3,-3,-3,22,3,1,0,-2
1533863336415990,0,2,-3,-2,-6,-1,-2,-1
1533863336428974,-4,-4,-3,10,-1,-5,-4,-3
1533863336428974,-2,-1,-8,-17,-3,1,-1,-1
1533863336435936,0,2,2,6,0,-3,-3,0
1533863336435936,0,0,3,-4,-5,-2,-1,-1
1533863336451038,-1,-1,-1,-8,-2,3,0,0
1533863336451038,0,1,2,17,-1,-2,-3,-1
1533863336459897,1,-4,-4,-11,3,-1,-1,-1
1533863336459897,-2,0,-2,6,-6,-3,-1,0
1533863336474990,-2,-2,1,7,-6,-3,-1,-2
1533863336474990,-1,0,-2,-1,-4,2,-1,-2
1533863336475830,-1,-1,1,-6,-5,-2,-1,-1
1533863336475830,0,-1,-2,0,8,0,-2,-1
1533863336488798,-2,-4,-3,6,4,-4,-3,0
1533863336488798,0,-1,-1,-1,-7,-3,-1,-2
1533863336495781,0,1,2,-21,1,0,0,0
1533863336495781,-4,-5,-8,2,-5,-4,-3,-5
1533863336511740,-2,0,-1,0,1,0,-1,0
1533863336511740,0,1,-1,7,1,1,0,-1
1533863336513727,-1,1,1,11,2,-1,0,1
1533863336513727,-2,-1,-4,-28,-5,-1,0,0
1533863336534672,2,1,4,-4,14,8,0,-3
1533863336534672,-2,-4,-8,18,-10,-5,-3,0
1533863336535669,-2,2,-4,-7,-14,-1,-1,0
1533863336535669,0,-1,5,8,0,-2,0,1
1533863336548635,-2,-4,-5,-6,-4,-3,-1,-1
1533863336548635,-1,1,2,2,9,2,-2,-1
1533863336555616,-2,-2,-2,1,-5,-3,-2,-3
1533863336555616,-1,0,-3,5,-3,-2,0,0
1533863336571572,0,2,4,0,0,1,-1,-1
1533863336571572,0,1,-3,-11,1,1,1,-3
1533863336573569,1,-1,2,20,4,-1,0,-1
1533863336573569,-2,-2,-5,-24,-8,-2,-3,-2
1533863336602549,-1,-3,-1,8,-1,-2,-2,-1
1533863336602549,-1,0,-3,-4,-3,-2,-2,-1
1533863336603500,0,0,1,-16,5,2,2,2
1533863336603500,-2,-3,-1,26,3,-1,-4,-1
1533863336608474,-3,-2,-6,-6,-6,-2,-2,-2
1533863336608474,-3,-3,-1,-1,-7,-5,-2,-2
1533863336615455,0,-1,3,-12,4,1,1,-3
1533863336615455,-1,1,3,12,4,-1,-1,-1
1533863336632412,-1,-3,-4,-7,-4,-3,-3,-1
1533863336632412,0,1,-2,7,-1,1,-3,0
1533863336633419,1,-1,-2,3,0,-2,-3,-1
1533863336633419,0,-4,-3,-23,-4,0,-1,-1
1533863336654355,1,1,1,11,0,-2,2,-1
1533863336654355,-2,-3,-2,-16,-1,-3,-1,1
1533863336656346,-3,-1,-1,-3,-2,-2,-2,-2
1533863336656346,-2,0,0,-1,0,2,-2,-1
1533863336668318,-1,-1,0,0,7,0,-1,-3
1533863336668318,-2,-2,-1,-4,2,-1,-1,-3
1533863336677290,-2,-2,-3,4,-12,-6,-2,1
1533863336677290,0,-1,-2,14,3,2,1,-2
1533863336692254,0,-2,-1,-14,2,2,0,0
1533863336692254,-1,1,4,-1,7,-2,1,-1
1533863336693248,-1,-1,-2,22,-6,1,-1,-2
1533863336693248,-2,-1,-4,-46,-11,-4,0,-2
1533863336714192,-2,-2,-2,15,-3,1,0,1
1533863336714192,1,2,-1,-26,-3,0,1,0
1533863336716200,1,1,1,8,20,2,-2,-1
1533863336716200,-3,-5,-1,23,-5,-4,-4,-2
1533863336728157,0,-3,-1,-12,-7,-2,-1,-4
1533863336728157,-1,-2,0,0,0,-3,1,0
1533863336737131,0,-2,-1,-2,-4,-1,1,0
1533863336737131,3,3,2,-11,1,3,0,1
1533863336752093,-4,-5,-6,1,-6,-8,-4,-2
1533863336752093,-1,-2,-1,-2,-9,0,-3,-1
1533863336753088,0,-1,-4,-22,-1,0,-2,-1
1533863336753088,0,-1,-1,15,-2,-2,-1,-1
1533863336774035,0,-1,0,13,0,-2,-2,-3
1533863336774035,-1,-3,-3,-10,-1,-1,-1,0
1533863336776032,0,-2,-2,-12,-7,-2,0,-2
1533863336776032,-1,-1,0,17,12,-2,-2,0
1533863336787998,-1,0,-3,2,-7,0,2,-1
1533863336787998,-3,-2,-3,12,-7,-1,1,0
1533863336796988,-4,-3,1,0,0,-2,-3,-2
1533863336796988,1,1,2,1,7,2,0,-1
1533863336811931,-6,-7,-8,4,-21,-8,-3,-1
1533863336811931,0,-1,-1,-2,2,3,-1,-1
1533863336813924,-2,-2,-3,-12,-7,-1,-1,-1
1533863336813924,0,0,1,4,11,2,1,-1
1533863336835030,-1,1,2,-4,-5,0,0,0
1533863336835030,-4,-1,-2,0,0,-3,0,-2
1533863336835867,-2,-2,-3,6,-3,-4,-1,-2
1533863336835867,1,-1,2,-5,1,-3,-1,0
1533863336847834,-1,-1,0,-5,9,1,-4,-2
1533863336847834,0,-1,-3,8,-2,0,-3,-1
1533863336856809,0,1,-1,1,-1,-2,-1,0
1533863336856809,-1,0,-1,-13,-6,-1,1,-2
1533863336871770,1,0,2,-7,0,1,0,-3
1533863336871770,0,-1,0,2,2,-1,-1,-2
1533863336873765,-2,-2,-2,13,-5,-1,-1,-2
1533863336873765,-1,-4,-4,-16,-10,-3,-3,-1
1533863336894710,-1,1,0,-12,1,-2,-1,1
1533863336894710,-1,-1,2,6,3,2,1,-2
1533863336895706,-2,-2,-2,-17,-1,0,-1,-1
1533863336895706,-2,-1,-2,7,-7,-2,0,1
1533863336907678,1,-1,0,2,7,0,0,1
1533863336907678,2,1,3,-7,3,-1,-1,-1
1533863336916667,-2,-3,-4,23,0,-3,-2,-4
1533863336916667,-3,-1,-6,-10,-8,-3,-4,-3
1533863336931656,-2,-3,-5,2,-1,-4,-3,-3
1533863336931656,-3,-2,-3,0,5,-1,-2,1
1533863336933607,-1,2,2,-10,-1,0,0,1
1533863336933607,-1,0,0,11,0,-1,-2,-2
1533863336954554,-1,1,-1,-6,2,2,-1,-1
1533863336954554,-1,-1,0,21,0,-1,-2,-1
1533863336955547,2,2,3,-33,6,2,2,0
1533863336955547,-5,-6,-7,5,-17,-8,-5,-2
1533863336968515,-3,-1,2,12,3,-1,-1,1
1533863336968515,-2,-4,-5,-7,-5,-2,-3,0
1533863336977487,0,-2,-1,3,-1,1,0,-1
1533863336977487,2,-1,1,-7,8,4,3,-1
1533863336992451,2,-2,0,-1,-4,-2,1,-2
1533863336992451,-1,-2,-2,4,-5,-5,-1,-1
1533863336993445,0,-2,-2,-1,4,0,-2,-1
1533863336993445,2,3,5,23,3,2,-1,0
1533863337015497,-3,-2,-7,-72,-11,-3,-4,-4
1533863337015497,-4,-1,1,7,3,1,0,-3
1533863337016385,-3,-3,-5,-16,-9,-5,-3,-3
1533863337016385,-1,0,2,11,8,-1,-1,1
1533863337028353,1,3,4,23,5,1,0,1
1533863337028353,0,0,1,-8,1,0,-1,-1
1533863337037328,1,-1,0,-11,1,1,-1,-3
1533863337037328,-3,-4,-3,-1,-7,-4,-1,-1
1533863337052287,-2,-3,-1,12,-5,0,0,0
1533863337052287,-1,-1,-5,-5,-5,-2,-1,-2
1533863337053291,-1,1,-1,10,0,0,-1,-2
1533863337053291,0,0,0,-12,0,0,-1,-2
1533863337074248,-1,-1,-3,-5,-1,-2,-1,-1
1533863337074248,-3,-2,-2,-2,-2,0,0,-2
1533863337076223,-1,0,1,0,1,0,-2,-1
1533863337076223,1,0,3,24,6,3,-1,-1
1533863337097171,2,0,-2,-33,-7,0,1,3
1533863337097171,-5,-5,-6,20,5,-4,-4,-2
1533863337098164,-2,1,-2,0,-4,-1,0,1
1533863337098164,-2,0,-1,1,1,0,-1,1
1533863337112127,0,0,4,28,0,2,-1,-1
1533863337112127,2,1,2,-15,0,-3,-1,-1
1533863337113125,-2,-4,-4,-5,-4,-6,-3,-2
1533863337113125,-2,1,0,0,4,-1,-2,-2
1533863337135067,-1,-2,0,10,3,-1,-1,-1
1533863337135067,-1,-1,-4,-11,-13,-3,-1,1
1533863337136064,-2,-1,-1,27,1,0,-1,0
1533863337136064,1,-2,-4,-32,-4,-2,-1,-3
1533863337157114,-1,-1,-1,-2,0,-1,-2,-2
1533863337157114,1,0,0,-1,0,-2,-1,-2
1533863337158095,2,3,3,-1,-2,1,1,1
1533863337158095,-3,-3,-5,4,4,-3,-3,-2
1533863337172061,-2,-3,-9,0,-9,-3,-2,-2
1533863337172061,-2,-2,1,6,-2,-1,-2,-2
1533863337173055,0,-2,-4,-1,-2,-2,-1,-2
1533863337173055,0,-1,-2,-15,-8,-1,0,-2
1533863337194002,-2,-2,1,8,7,-2,-1,-2
1533863337194002,0,1,0,1,0,1,0,0
1533863337195994,0,-1,0,-16,-3,-3,0,-1
1533863337195994,0,0,-1,-2,1,-2,1,0
1533863337216941,-4,-3,-7,15,2,-3,-2,-1
1533863337216941,-2,-1,-5,-40,-5,-1,0,-1
1533863337218934,-2,-3,-1,-3,-4,-1,-2,-1
1533863337218934,-1,-2,-1,3,-1,-4,0,-2
1533863337230917,1,2,3,6,1,-1,0,-1
1533863337230917,-1,0,-1,12,-3,1,-1,-2
1533863337238072,0,0,1,-21,1,2,-2,1
1533863337238072,-2,0,-3,20,0,-2,-2,0
1533863337253843,-3,-5,-5,-4,-7,-3,-2,0
1533863337253843,-1,-2,-5,-3,-2,-2,-1,-4
1533863337260824,1,-1,-1,12,-2,-1,-2,-3
1533863337260824,0,-1,1,2,1,0,-1,-1
1533863337276781,-2,1,0,-29,1,-1,-1,0
1533863337276781,0,0,4,0,0,2,0,0
1533863337278773,-1,0,0,15,7,4,2,-3
1533863337278773,-3,-1,-1,-20,-8,-3,-2,-2
1533863337291742,-2,0,-1,21,1,1,-1,-1
1533863337291742,-1,-2,-2,-5,-3,-1,-1,1
1533863337298719,0,-1,-2,-6,0,-2,-2,0
1533863337298719,-1,-1,-1,-3,-5,0,-2,0
1533863337314679,3,1,1,2,-2,-1,-2,-4
1533863337314679,-1,-1,0,-1,3,-2,0,-1
1533863337315682,-3,-1,-3,-7,-2,-3,0,0
1533863337315682,-1,-1,-1,12,2,1,0,-1
1533863337336621,-1,0,-3,-19,-5,-2,-1,1
1533863337336621,-1,-1,-1,11,0,-4,-1,-2
1533863337338633,-3,-1,-3,-16,-5,-3,-3,0
1533863337338633,0,-1,0,-6,-1,1,-2,-1
1533863337351581,-1,-2,0,-1,-1,1,1,-1
1533863337351581,-1,0,6,24,8,1,-1,-2
1533863337358562,-5,-7,-15,-35,-13,-3,-6,-1
1533863337358562,1,-2,1,-15,-1,0,-1,-3
1533863337374516,-3,-4,-4,16,-3,-1,-3,-1
1533863337374516,-2,-1,-1,-1,0,-3,-2,0
1533863337376511,0,0,4,15,-1,2,1,-1
1533863337376511,-1,0,1,-7,2,-1,0,-1
1533863337397458,3,2,2,7,5,1,1,-2
1533863337397458,-1,-4,-3,0,3,-2,-2,0
1533863337398453,-3,-3,-2,11,-11,-2,-4,-2
1533863337398453,-2,-1,-1,2,-4,0,-1,-1
1533863337411438,-1,0,4,-5,3,2,0,0
1533863337411438,0,-2,-3,-9,-1,0,-2,-1
1533863337419399,-1,1,0,7,3,-1,0,-1
1533863337419399,-2,-2,-2,-10,1,0,-1,1
1533863337434360,-2,-1,-2,7,-2,-1,-2,-1
1533863337434360,-1,0,-2,-6,-10,-2,-1,-1
1533863337436351,-2,-3,-5,-12,0,-3,-1,1
1533863337436351,-4,-1,-3,7,-3,-3,-2,-1
1533863337457332,-1,0,0,-2,3,0,0,-1
1533863337457332,0,-2,-1,0,-1,-1,-1,-3
1533863337458325,0,1,3,18,1,1,1,-1
1533863337458325,1,0,-1,-4,5,-1,0,-2
1533863337471290,-4,-3,-6,-21,-7,-5,-4,-3
1533863337471290,-1,-1,-4,-9,2,-2,0,-1
1533863337478272,-2,-1,1,13,-2,1,0,-1
1533863337478272,-2,0,-4,-4,0,-2,-2,1
1533863337494228,0,-1,0,3,0,-3,-2,-2
1533863337494228,1,1,2,-2,-3,0,1,0
1533863337496223,1,-1,1,-1,5,-3,-1,-1
1533863337496223,0,-3,2,9,3,-3,-1,-2
1533863337517170,-4,-6,-9,-7,-1,-2,-3,-1
1533863337517170,-4,-3,-3,-2,-18,-2,-2,0
1533863337518165,-1,-2,-1,4,-3,0,1,-1
1533863337518165,-1,1,-1,-3,-7,-3,1,-2
1533863337539314,-1,1,3,-7,4,0,1,-1
1533863337539314,0,-1,-1,-1,6,0,-1,-2
1533863337541110,0,-1,-1,-5,1,-2,-2,-2
1533863337541110,-1,1,1,-1,0,1,0,0
1533863337555092,-1,0,-5,-18,-11,-2,-2,-1
1533863337555092,-2,-1,-2,27,4,-2,-4,-2
1533863337556063,1,1,-1,-27,-2,-1,1,0
1533863337556063,-1,-3,-6,3,-3,-1,0,-1
1533863337577217,0,-1,4,11,-4,1,1,0
1533863337577217,-1,-1,0,-16,0,0,-1,0
1533863337579003,-1,-1,0,5,4,0,0,-2
1533863337579003,-1,-2,-2,0,-1,1,-2,-2
1533863337590973,0,0,0,1,-2,0,1,-1
1533863337590973,-1,-2,0,-1,1,-1,-1,0
1533863337599956,-1,0,0,31,5,-2,-1,-2
1533863337599956,-5,-4,-8,-42,-8,-5,-3,-3
1533863337614909,-2,-1,-3,14,0,-3,-3,-3
1533863337614909,-1,-1,-2,-1,-4,0,0,-1
1533863337615921,-2,0,0,6,-2,1,-1,0
1533863337615921,-1,-1,2,9,0,1,0,1
1533863337636850,1,-1,2,-9,1,-1,2,1
1533863337636850,-1,-1,-5,4,9,-1,-2,0
1533863337638842,-1,-2,0,-9,-8,-3,-2,-1
1533863337638842,2,1,3,6,-3,0,-1,-2
1533863337650813,0,-1,-3,5,5,3,-2,-1
1533863337650813,0,0,1,-4,-7,1,0,0
1533863337659786,-3,-2,-3,-8,3,0,-1,-2
1533863337659786,0,-2,-1,-1,-3,-1,0,-1
1533863337674749,0,1,2,9,0,-2,-1,-2
1533863337674749,-4,-4,-9,-21,-6,-7,-2,-4
1533863337675743,-1,-1,-2,-7,1,0,-3,-1
1533863337675743,-2,-2,-4,2,-2,-1,-2,0
1533863337696688,-1,0,0,2,-7,-1,0,0
1533863337696688,2,-1,1,6,0,0,-1,2
1533863337698681,0,-1,-2,-10,-4,-1,0,0
1533863337698681,1,1,3,9,10,2,-2,-1
1533863337710653,1,1,3,-18,-11,-2,0,-1
1533863337710653,-4,-4,-5,16,7,-4,-1,-2
1533863337719626,-4,-5,-7,23,-3,-3,-2,-2
1533863337719626,0,-2,-3,-8,-5,-1,-1,-2
1533863337734589,0,-2,-1,13,9,2,-1,-2
1533863337734589,1,4,1,-14,-3,2,0,-2
1533863337735583,0,1,1,-15,0,0,0,1
1533863337735583,-2,-1,-2,11,5,0,0,-1
1533863337757528,1,-1,2,-5,4,1,-1,-1
1533863337757528,0,-1,2,17,-6,-1,-3,0
1533863337758522,-2,-1,-1,-17,4,-1,-3,-1
1533863337758522,-4,-2,-2,14,-10,-3,-2,-2
1533863337770490,-3,-3,-2,-5,2,-2,-2,-1
1533863337770490,-1,2,-1,-8,-2,2,0,1
1533863337779485,1,0,2,3,-1,-1,-1,-1
1533863337779485,0,1,2,-15,-1,-2,0,0
1533863337794426,-2,-4,-7,6,3,-3,-3,-2
1533863337794426,-1,-1,-1,8,5,-2,-1,1
1533863337796421,-2,0,2,-3,-6,0,0,-2
1533863337796421,-2,-3,-1,-5,-1,1,0,-2
1533863337816370,-4,-2,-1,15,-5,0,-1,-1
1533863337816370,-1,-1,-1,-26,0,-2,0,-1
1533863337824346,-3,-2,-4,13,-1,-2,-3,-1
1533863337824346,0,0,0,-12,4,-2,0,0
1533863337830334,0,-1,-2,-20,-8,-4,0,-1
1533863337830334,-2,-2,-2,4,-7,-2,0,0
1533863337845289,-1,1,-2,-26,-4,-2,0,-1
1533863337845289,-2,-1,-3,-1,0,-1,-1,-1
1533863337854266,-1,0,0,1,2,-1,-1,1
1533863337854266,0,2,3,-4,3,2,-1,-1
1533863337856260,1,-3,-2,10,3,-2,-3,-3
1533863337856260,-1,-1,0,21,10,-2,-3,-1
1533863337877385,-3,-1,-5,-24,-24,-3,0,0
1533863337877385,-2,-2,-2,0,0,0,-1,-1
1533863337878201,-1,-1,0,16,-6,-2,0,-1
1533863337878201,0,-1,-3,-13,-3,-1,-4,-3
1533863337890173,-1,-1,0,15,8,-2,-1,-2
1533863337890173,-1,1,-1,-3,-1,-1,1,-1
1533863337899145,-1,-1,-2,-2,2,0,0,-2
1533863337899145,3,0,1,21,1,1,1,-2
1533863337914106,-1,-1,-2,-38,0,-1,-1,0
1533863337914106,-2,-5,-5,2,-4,-1,-1,-3
1533863337916100,-3,-2,-4,-4,-4,-2,0,-2
1533863337916100,-2,0,-1,3,3,-1,-1,-3
1533863337937048,-2,1,2,13,-7,-2,-1,1
1533863337937048,0,-1,1,-8,5,-2,-3,-3
1533863337938042,-1,-1,0,5,1,-3,-1,0
1533863337938042,-2,1,2,-10,-9,0,1,0
1533863337960080,-3,0,-4,7,5,0,-2,0
1533863337960080,-2,0,-1,0,-2,0,-2,-2
1533863337960981,0,-1,-2,6,-4,-1,-1,-1
1533863337960981,-3,-1,-3,-11,-2,-2,-2,-2
1533863337974943,0,-1,-1,3,2,0,-2,-2
1533863337974943,0,-1,-1,3,-2,-2,-2,-1
1533863337975949,-1,1,0,-5,3,0,0,0
1533863337975949,1,-2,0,-6,-7,1,-1,1
1533863337996888,-1,-4,6,7,1,-3,0,-2
1533863337996888,-4,-4,-7,16,-4,-4,-1,-2
1533863337998879,-3,-2,-3,2,5,-2,-1,-2
1533863337998879,-2,-6,-3,-4,-17,-4,0,-1
1533863338010852,-1,2,-1,8,6,2,-2,-1
1533863338010852,2,1,3,-12,-2,3,0,-1
1533863338019823,-2,1,3,-10,-3,4,1,1
1533863338019823,-1,3,-4,3,2,-2,-2,-2
1533863338034786,1,-2,-1,0,3,0,-1,-2
1533863338034786,1,22,-7,-11,-8,-4,-3,-3
1533863338035797,0,-6,5,15,7,1,0,1
1533863338035797,-5,-7,-7,-29,-15,-2,-1,-1
1533863338056724,-5,-7,-11,-17,-13,-3,-2,-3
1533863338056724,-2,-4,2,-2,6,-1,0,0
1533863338058719,0,3,-1,-3,-3,-1,-3,-3
1533863338058719,2,2,4,12,5,0,0,0
1533863338079666,-1,-7,-32,3,4,-1,-1,-1
1533863338079666,-2,-2,9,-2,0,0,0,0
1533863338080660,-2,2,-2,-8,-5,-2,0,-2
1533863338080660,-1,-4,-2,-1,-5,-1,0,1
1533863338094623,0,19,-7,3,-1,-2,-2,-1
1533863338094623,1,-9,1,2,2,0,-1,-1
1533863338095645,-1,-2,-1,-8,-2,-1,-3,1
1533863338095645,-3,-1,-1,-1,11,2,-2,0
1533863338124543,-1,0,5,-4,-18,-2,0,-2
1533863338124543,-2,-1,1,2,2,2,1,-1
1533863338125552,-1,0,1,-1,-5,-3,0,-3
1533863338125552,-3,1,-6,25,-1,-6,-4,-3
1533863338139696,-2,-4,4,-18,1,0,-2,-1
1533863338139696,-3,-9,-2,2,1,-2,-1,0
1533863338141498,-1,-4,-3,-17,-11,-1,-2,0
1533863338141498,-1,0,5,2,4,1,0,-1
1533863338154583,0,-4,6,7,15,0,0,-1
1533863338154583,0,-4,-5,-4,-16,-3,-1,0
1533863338156470,0,3,-4,2,2,-2,-4,-1
1533863338156470,0,-2,-5,-5,-2,-2,-1,-1
1533863338177405,-1,-2,5,6,3,-1,-1,-2
1533863338177405,0,4,-1,-10,-5,0,-1,-1
1533863338178398,-3,-2,-4,10,1,-2,-3,0
1533863338178398,-2,-2,-4,-19,-5,1,0,-1
1533863338199346,1,13,0,-11,-1,-1,0,-1
1533863338199346,-2,-4,1,10,7,0,0,-2
1533863338201343,-2,-4,-2,0,-9,-3,-1,-3
1533863338201343,-2,-3,3,4,2,-1,-2,-2
1533863338213305,-1,-2,2,-1,-4,-4,0,0
1533863338213305,1,4,1,11,3,2,1,0
1533863338220289,-3,-4,-3,-15,4,-2,-1,-1
1533863338220289,-3,1,-11,-22,-17,-4,-2,-1
1533863338237241,0,-5,4,2,-1,2,0,0
1533863338237241,0,-1,0,12,14,-2,-3,-1
1533863338238249,-1,-6,-19,1,-13,-5,-2,-2
1533863338238249,-1,-19,16,12,10,1,0,1
1533863338259360,-2,-6,0,-2,-2,0,-2,1
1533863338259360,-3,-2,-1,-34,-7,-3,-1,0
1533863338261177,0,-1,-2,28,-1,-1,0,-1
1533863338261177,-1,2,-5,-9,2,-3,-3,-2
1533863338274146,-1,-1,4,10,-7,-2,-2,0
1533863338274146,2,-2,1,-6,2,2,-1,-2
1533863338280127,0,6,6,-8,1,1,1,0
1533863338280127,-1,3,-1,8,-2,-2,-1,-1
1533863338297085,-1,-5,1,-5,-2,-3,-1,-1
1533863338297085,-3,1,-6,6,-5,-3,-2,-2
1533863338298094,1,2,3,-15,0,-2,-1,1
1533863338298094,-1,2,-2,26,2,-1,-1,-3
1533863338319026,-3,-5,-5,-12,5,1,2,0
1533863338319026,0,-2,1,-3,-5,-2,-1,0
1533863338321020,-1,1,6,-2,14,1,0,-1
1533863338321020,1,2,1,14,-5,2,1,-1
1533863338333983,-3,-4,-10,-1,-5,-3,-3,-2
1533863338333983,-2,-2,-2,-24,-7,-1,-2,-4
1533863338340967,0,-3,-1,-3,-6,3,-1,0
1533863338340967,1,4,1,-12,5,-1,0,1
1533863338356922,0,1,3,16,2,-2,1,-1
1533863338356922,-1,-2,-3,12,3,-1,0,0
1533863338358916,-1,-1,2,-7,-4,0,2,0
1533863338358916,1,0,-3,5,4,0,-1,0
1533863338379860,0,-1,-4,-30,-13,-3,-3,-2
1533863338379860,-3,-3,-2,12,11,-2,-3,0
1533863338380858,-2,-2,1,-4,-8,-3,-2,-1
1533863338380858,-1,-1,-1,-5,-8,1,0,0
1533863338401801,-2,-2,2,13,1,-1,-1,0
1533863338401801,0,2,-2,1,-1,0,0,-1
1533863338403796,0,-11,8,-1,5,1,-1,-1
1533863338403796,0,-3,-1,6,2,-2,-1,0
1533863338416761,-3,-5,-4,-18,-10,-3,-4,-1
1533863338416761,-1,-3,0,-8,-6,1,-1,0
1533863338418765,1,3,-7,15,2,-1,-1,-2
1533863338418765,-2,2,2,-7,2,-1,-2,-2
1533863338439703,1,-2,4,9,6,0,1,-2
1533863338439703,0,3,-3,-2,-3,-3,0,0
1533863338440709,-1,1,-2,-7,1,1,-3,1
1533863338440709,-1,-2,-2,-9,-5,-1,-3,0
1533863338461658,0,2,1,5,3,2,1,0
1533863338461658,0,-1,2,8,-6,-2,-1,-1
1533863338463635,-5,-2,-7,-6,1,-4,-2,-2
1533863338463635,-4,-4,-8,3,-12,-4,-3,-2
1533863338476818,-2,0,-1,-1,6,-1,-3,-1
1533863338476818,-1,-3,-1,11,-3,0,0,-1
1533863338478596,-2,-1,1,2,4,0,-1,0
1533863338478596,0,0,-2,-10,1,-3,-3,-1
1533863338499544,1,1,3,9,0,2,1,0
1533863338499544,-3,-3,-6,-4,-2,-4,-4,-1
1533863338501551,-1,0,-1,-2,-10,-3,-1,-1
1533863338501551,-1,-1,0,-7,-1,-1,-2,-1
1533863338514499,-2,20,-9,2,-3,-1,-2,-3
1533863338514499,-1,-7,2,-3,3,0,0,0
1533863338520485,-2,-2,-2,-5,-6,-1,0,-1
1533863338520485,-3,-2,0,1,5,0,-1,-2
1533863338537473,1,-2,0,3,-1,-3,-1,-2
1533863338537473,0,4,0,5,-3,1,0,-1
1533863338538437,-5,-3,-7,11,3,-7,-4,-3
1533863338538437,1,-1,-4,-11,-6,0,1,-2
1533863338559380,0,-7,1,-2,3,0,-2,-1
1533863338559380,-1,1,-1,-3,-1,2,-1,-1
1533863338561389,2,-1,3,4,2,2,0,-1
1533863338561389,0,1,-4,-3,2,1,-1,-2
1533863338573346,-2,-8,1,4,12,1,-2,-1
1533863338573346,0,-2,-6,-12,-6,-3,-1,1
1533863338589299,-3,1,-2,4,-16,-3,1,0
1533863338589299,-4,-3,-4,-20,-10,-2,-1,-2
1533863338597286,-1,-7,-2,16,-2,-1,-2,1
1533863338597286,-1,0,-2,7,6,3,-2,0
1533863338598275,2,-1,-2,-26,7,0,-3,-4
1533863338598275,-1,2,1,2,-1,-1,0,-1
1533863338619223,-2,-6,-4,-9,-4,-1,0,-1
1533863338619223,-2,0,1,-2,2,-1,-1,0
1533863338621215,1,-1,1,2,-9,0,-2,-1
1533863338621215,-1,-2,3,6,6,1,0,-2
1533863338633186,0,0,1,-6,-2,-2,-2,-1
1533863338633186,-2,-2,-2,-2,-3,-3,-3,-2
1533863338642158,0,-1,0,-4,12,1,2,-1
1533863338642158,1,-1,-4,0,-10,-1,0,1
1533863338657122,-1,-2,-3,-6,-7,0,0,-1
1533863338657122,-1,-2,-3,9,-3,0,0,-2
1533863338663103,-2,-3,-1,13,6,-1,-2,-1
1533863338663103,-3,-2,0,-9,0,-2,0,-1
1533863338680073,-2,0,-1,-1,-2,-4,1,1
1533863338680073,-1,0,2,-4,0,-4,-2,-2
1533863338681054,0,0,0,4,5,0,-1,-2
1533863338681054,0,1,1,7,-2,-3,-1,-1
1533863338693025,-2,-3,-4,-10,-8,-2,-1,-3
1533863338693025,-4,-3,-3,-3,1,-3,-1,-2
1533863338701998,-3,-1,-2,-6,-5,1,0,-1
1533863338701998,-1,-3,2,0,0,2,-2,0
1533863338716962,1,0,5,0,1,4,-1,0
1533863338716962,0,0,1,-7,4,0,0,-2
1533863338718953,-1,0,-2,21,-5,-2,-2,1
1533863338718953,-2,-1,-3,-10,-2,-1,0,-2
1533863338738903,-2,-1,0,10,-3,0,0,-2
1533863338738903,-1,-1,-2,-11,-3,-1,-1,0
1533863338740901,-1,-2,-3,-8,0,-2,-1,-1
1533863338740901,-1,-2,0,1,6,-3,-1,-1
1533863338752862,0,0,0,1,0,-1,1,1
1533863338752862,0,0,0,-17,-7,1,3,-1
1533863338761842,-2,0,1,25,12,2,0,1
1533863338761842,-2,-1,-1,6,-1,-2,-3,-1
1533863338776802,0,-1,-2,-7,-18,-5,-2,-2
1533863338776802,-2,-5,-5,-18,-5,-1,-3,-1
1533863338778793,1,-1,-2,-10,-2,-1,-1,1
1533863338778793,1,-2,-1,10,6,2,0,0
1533863338799740,0,0,1,-1,3,1,-1,0
1533863338799740,0,1,0,9,-2,-1,-1,-3
1533863338800734,-1,1,-2,-23,-8,-2,-1,-2
1533863338800734,-2,-1,-2,-13,-4,-3,-3,-1
1533863338812703,1,-2,0,2,2,-2,-1,-2
1533863338812703,-1,-2,-2,12,0,-4,-1,-1
1533863338821721,-2,1,0,-6,-2,-1,-1,-1
1533863338821721,0,1,0,-5,-6,0,0,-1
1533863338836639,-1,-1,-2,2,5,4,0,-1
1533863338836639,-1,-3,0,2,-1,-1,-1,-2
1533863338838634,-1,-2,2,-2,-5,-3,-1,-3
1533863338838634,1,-1,0,5,17,0,-1,0
1533863338867610,-2,-1,-1,0,-24,-6,0,-1
1533863338867610,-1,-1,-1,-1,0,0,-2,-1
1533863338868553,-1,-2,-3,-9,-3,-2,-4,-2
1533863338868553,0,2,-1,-5,-3,0,-2,0
1533863338873543,-3,0,-2,13,8,0,-2,-2
1533863338873543,-1,-3,-2,8,0,-3,-2,0
1533863338882526,-3,-1,-3,-31,-10,-1,0,-1
1533863338882526,-1,-2,-1,12,-2,-3,-3,-2
1533863338897475,0,0,3,-3,5,3,1,-1
1533863338897475,-2,-3,-4,-5,0,0,-3,0
1533863338898473,-1,-3,-1,-2,1,1,0,-1
1533863338898473,-2,-1,0,-5,2,-1,-2,1
1533863338919417,-1,-3,-1,16,-2,-3,-3,1
1533863338919417,-1,-1,1,6,-3,1,-1,-1
1533863338921412,-1,-3,-5,-5,-2,-2,1,-2
1533863338921412,-3,0,-1,-5,1,0,0,-2
1533863338933380,0,0,0,-10,7,-4,-1,-3
1533863338933380,0,1,-3,2,0,-3,-2,-2
1533863338942357,1,1,2,4,1,-1,-3,1
1533863338942357,-2,-1,-1,6,-3,0,0,-2
1533863338957518,-2,0,-2,9,3,0,-3,0
1533863338957518,-3,-1,-1,-1,-3,0,0,-1
1533863338959311,0,-2,1,2,-2,-1,2,-2
1533863338959311,0,-2,0,-2,5,0,-1,-2
1533863338979275,-1,-2,-1,-6,-3,-1,-1,0
1533863338979275,-3,-3,-3,-10,-10,-4,-2,0
1533863338981253,-1,0,0,0,0,0,-2,-1
1533863338981253,0,0,0,8,-3,-1,-1,-1
1533863339009180,-1,-3,-5,3,7,1,-1,-2
1533863339009180,0,0,2,3,-7,0,0,-1
1533863339011171,-2,-2,-5,-12,-4,-2,-3,-2
1533863339011171,0,-2,-2,-7,-3,0,-1,-2
1533863339017167,-2,-1,0,-3,0,-1,-2,-2
1533863339017167,-3,-3,1,13,5,0,-1,-1
1533863339018157,-2,0,0,4,-4,-1,1,0
1533863339018157,0,0,-1,-14,-9,-6,0,-1
1533863339039096,0,1,0,6,-1,3,-1,0
1533863339039096,-2,-2,-4,-10,0,0,-3,0
1533863339041091,-2,0,0,-4,1,0,-2,-2
1533863339041091,-2,-1,-3,5,7,-3,-1,-1
1533863339062035,-1,1,-2,-18,-16,-4,1,0
1533863339062035,0,2,1,3,2,-2,-1,-1
1533863339063033,-6,-5,-6,-5,-3,-3,-4,-2
1533863339063033,-2,-1,1,8,-3,1,-1,0
1533863339078003,-3,-2,-4,-17,4,-1,-2,-1
1533863339078003,1,0,4,-1,0,-2,2,-2
1533863339078990,1,1,0,6,-2,0,0,-2
1533863339078990,0,1,0,-6,-6,-3,-1,0
1533863339099937,-2,-3,2,26,12,1,0,0
1533863339099937,-3,-3,-8,-16,-16,-4,-2,-1
1533863339100932,-2,-3,1,5,2,1,-1,0
1533863339100932,0,-3,-2,-13,-4,1,-2,-2
1533863339121879,0,1,-3,-11,-4,-1,0,-2
1533863339121879,0,0,1,0,6,-1,2,0
1533863339123870,1,0,-1,5,2,-1,-1,1
1533863339123870,0,0,-1,6,-5,-3,-1,-2
1533863339136839,0,0,-2,-33,1,-5,-3,-3
1533863339136839,-1,-2,-3,3,0,-4,-5,-3
1533863339142823,0,0,-1,-14,0,-3,0,0
1533863339142823,-2,-2,-3,6,-8,-1,1,0
1533863339159777,-2,-5,-3,-1,-6,0,-1,-2
1533863339159777,-2,-1,1,1,2,2,-1,0
1533863339160771,1,0,1,7,2,-1,0,-2
1533863339160771,-3,-1,-3,-6,9,4,-1,-2
1533863339181885,1,3,6,15,-6,-2,-1,0
1533863339181885,0,-1,-3,-24,-5,-2,-3,0
1533863339183738,-3,-6,-5,14,-2,-2,-4,-3
1533863339183738,-1,-1,-1,-5,-5,-2,0,-3
1533863339196681,-4,-4,-4,-5,0,0,0,-2
1533863339196681,0,0,3,7,4,1,0,-1
1533863339203660,0,1,-1,-3,-5,-2,-1,-1
1533863339203660,0,0,-2,-2,0,-1,0,-1
1533863339219614,0,-1,-3,-1,3,1,-1,-1
1533863339219614,0,0,1,-7,-2,0,0,-1
1533863339220611,-2,-1,-1,-3,-1,-1,0,-2
1533863339220611,-1,-2,-3,10,14,0,-1,-1
1533863339241559,-2,-2,-2,-4,-22,-4,-2,-2
1533863339241559,-2,0,-1,11,-1,1,-1,1
1533863339243549,-2,-1,-2,-2,-4,-3,-1,-1
1533863339243549,0,-1,0,-9,-4,-3,-1,-1
1533863339256519,0,-2,-2,-2,6,-1,1,-1
1533863339256519,0,-1,0,13,1,-1,-1,-2
1533863339263499,1,2,1,-8,1,0,2,0
1533863339263499,-2,-5,-4,-7,-2,-4,-3,0
1533863339278457,-1,-2,-5,3,4,-1,-1,-2
1533863339278457,-2,0,0,-10,-12,1,-1,-2
1533863339287433,-1,-2,-1,9,2,1,-2,-2
1533863339287433,-4,1,1,5,1,-1,-1,0
1533863339301581,-3,-1,0,-2,-9,-1,-2,-1
1533863339301581,1,0,0,-1,5,-1,-2,-1
1533863339303392,2,0,2,0,0,0,0,0
1533863339303392,-4,-3,-6,-12,-2,-2,-2,-1
1533863339316549,-1,-1,0,-3,2,-1,0,-2
1533863339316549,-2,-1,-3,-5,-6,-3,-2,0
1533863339323336,-1,-2,-3,1,-1,-1,-1,-2
1533863339323336,-1,-2,-1,-6,-5,-3,-1,-1
1533863339339297,0,0,1,-3,7,-1,-1,0
1533863339339297,1,-1,2,6,-3,0,0,-1
1533863339341288,-2,-2,-4,1,4,-2,-2,-2
1533863339341288,-1,-1,0,17,-1,-1,-1,-2
1533863339362233,-3,-3,-4,-18,-3,1,0,-1
1533863339362233,-1,-1,1,-5,-5,-1,0,0
1533863339363229,-2,-1,-5,-4,-9,1,-2,1
1533863339363229,2,0,-1,-3,-5,-4,0,0
1533863339376198,-1,-1,1,11,8,-1,-2,-2
1533863339376198,-1,0,0,-8,6,2,0,-1
1533863339383381,0,-1,0,0,-4,-2,-1,-2
1533863339383381,-4,-5,-2,17,1,1,-1,-2
1533863339399137,-2,-5,-3,13,-5,-2,-1,0
1533863339399137,-2,-1,-3,-22,3,-2,-1,0
1533863339406118,-2,0,-2,-9,-5,-1,-2,-2
1533863339406118,0,1,1,-2,5,2,-1,-1
1533863339422072,-1,0,2,7,-2,-2,1,-1
1533863339422072,-1,0,-3,-2,-2,-4,-2,0
1533863339424067,-2,-4,-6,-19,0,-1,-1,-2
1533863339424067,-2,0,-1,9,-8,0,-1,1
1533863339436035,0,1,-3,-11,-5,0,-2,0
1533863339436035,2,-1,1,2,1,-2,0,-2
1533863339443019,-2,-3,0,26,9,-1,0,0
1533863339443019,-2,-1,-2,-15,-6,-1,-2,-2
1533863339459976,-2,-1,-1,5,2,-2,-1,0
1533863339459976,-1,-1,2,4,3,-1,1,1
1533863339460971,0,0,1,8,-2,-2,1,1
1533863339460971,0,-2,-4,-33,-7,-4,-2,-1
1533863339481921,-1,0,-2,2,2,-1,0,-1
1533863339481921,-1,-2,0,20,-2,-1,-2,-2
1533863339483907,0,-1,1,-18,2,0,-2,-1
1533863339483907,0,-2,0,7,-2,0,0,1
1533863339495875,2,4,-2,-30,5,0,-1,-2
1533863339495875,-5,-9,-9,18,-22,-6,-4,-2
1533863339504851,-2,-1,1,3,0,-3,-1,1
1533863339504851,-1,1,3,2,2,-1,0,0
1533863339519811,-4,-2,1,-1,3,-1,-1,0
1533863339519811,0,2,0,-3,7,0,-2,-1
1533863339520808,-1,-1,-2,2,-2,-1,-2,0
1533863339520808,-1,-1,-3,-8,-4,-4,-3,0
1533863339541752,1,-1,1,10,-8,-2,-1,-1
1533863339541752,-3,-3,-6,-12,1,-2,-3,-3
1533863339543747,-1,-2,-3,18,-3,1,0,-1
1533863339543747,-3,-1,-1,-9,1,0,-2,-3
1533863339555749,0,-2,0,6,1,-1,0,0
1533863339555749,-1,-2,-3,-20,4,0,-1,-1
1533863339564692,0,1,1,-8,-12,-3,0,0
1533863339564692,0,-2,0,18,9,-1,-1,-1
1533863339579657,-2,-3,-3,-3,-8,-3,-2,-1
1533863339579657,-3,0,1,-3,-3,-1,-2,0
1533863339580649,-1,-3,-3,3,3,2,-1,-1
1533863339580649,1,-1,1,6,-3,2,2,-1
1533863339601592,-1,-2,-2,1,0,-1,-1,-1
1533863339601592,0,1,1,-1,5,-2,0,-1
1533863339603587,-1,-2,-2,-14,1,-3,-2,0
1533863339603587,-2,-2,0,-1,-6,-2,-1,-3
1533863339615558,-1,-1,-2,12,6,-1,-2,-1
1533863339615558,-3,-3,-5,-12,-1,-1,-2,-3
1533863339624531,-1,-1,-3,1,-3,-1,-2,-1
1533863339624531,-1,0,-1,-1,5,4,0,-1
1533863339639517,-1,-1,-1,-2,-6,-4,-1,0
1533863339639517,-1,-1,-1,10,-4,-2,0,-1
1533863339641513,-1,0,-2,-8,6,0,-1,-1
1533863339641513,0,-2,1,-5,-5,-2,0,0
1533863339662430,-2,0,0,-17,9,1,-1,-2
1533863339662430,-4,-6,-6,37,-4,-4,-3,-2
1533863339663428,-1,-2,-4,-16,-11,-2,-1,-2
1533863339663428,-2,-1,-2,-2,1,-1,-2,-1
1533863339675394,1,0,-1,-4,-5,-1,1,-1
1533863339675394,0,0,1,-8,3,1,1,-1
1533863339690354,-1,0,3,2,0,-1,-1,-2
1533863339690354,-1,-2,2,3,0,-2,-2,0
1533863339699330,-4,-3,-5,1,-3,-1,-2,-2
1533863339699330,2,1,-1,-12,12,2,0,0
1533863339701325,-1,-1,-2,-22,-14,-4,-3,-1
1533863339701325,0,1,-3,0,-6,0,0,0
1533863339722476,-2,-3,-4,12,0,-2,-2,-1
1533863339722476,-1,1,2,9,-3,0,1,-2
1533863339723267,1,0,1,0,8,2,0,-2
1533863339723267,0,-1,0,-10,-1,-1,-3,-2
1533863339736232,-1,-1,-4,-14,-9,-2,-2,-2
1533863339736232,-1,2,2,-10,7,1,-1,1
1533863339744211,-3,-3,-7,23,-2,-4,-2,-1
1533863339744211,-1,-2,-1,2,-4,-2,-1,-1
1533863339759170,-1,-2,0,8,8,-1,-1,0
1533863339759170,-1,0,1,-14,-16,-6,-1,-2
1533863339761182,0,0,0,5,4,-3,0,-2
1533863339761182,-1,-2,-6,-13,4,-1,-3,-1
1533863339789091,0,-2,2,-4,-4,-2,-2,-1
1533863339789091,1,0,0,5,2,-1,-1,-1
1533863339791086,-3,-2,-6,-11,-6,-1,-3,-3
1533863339791086,-3,-2,-5,-20,-8,0,0,-3
1533863339796075,-2,-2,-2,-3,-4,-2,-2,-2
1533863339796075,-3,-2,-2,-4,1,-2,-1,0
1533863339805048,2,2,2,18,1,1,1,-1
1533863339805048,-1,-1,2,-11,0,-1,-1,0
1533863339819014,-2,-3,-4,-7,-1,-2,-1,-1
1533863339819014,-1,-3,-1,-2,-2,0,-1,0
1533863339821005,-2,-2,2,1,6,0,-1,-1
1533863339821005,-1,-1,1,11,2,0,-1,-1
1533863339841950,2,-1,0,-9,-15,-3,0,-1
1533863339841950,-2,-3,-4,5,1,-3,-1,-4
1533863339843945,-1,-3,-1,-21,-4,-2,-2,1
1533863339843945,-1,0,-2,9,2,-1,-1,-2
1533863339855929,-1,0,0,3,2,2,-1,-1
1533863339855929,1,1,0,0,4,1,-2,0
1533863339864903,1,0,1,23,6,0,1,-2
1533863339864903,-1,-3,-4,-40,-4,-5,-2,-1
1533863339879848,-2,-2,-3,26,-3,-4,-1,2
1533863339879848,-1,-2,-4,-7,-7,-1,-1,0
1533863339880856,-1,1,2,3,2,1,-1,-1
1533863339880856,-2,-1,1,14,8,3,-1,-2
1533863339901790,0,2,2,-10,-13,-2,1,-5
1533863339901790,-1,1,0,-7,2,-3,-1,-1
1533863339903784,-1,-5,-2,5,-1,-2,-2,0
1533863339903784,1,0,0,10,3,-1,1,1
1533863339915753,-1,-2,-1,-9,3,-1,-3,0
1533863339915753,0,-3,-3,-7,-9,0,-3,-1
1533863339924728,0,-1,-3,-4,-2,-2,0,-1
1533863339924728,-2,-1,0,7,-1,-1,-1,0
1533863339939691,-2,0,1,4,4,3,0,-1
1533863339939691,1,0,2,10,8,1,-1,-2
1533863339940685,-3,-1,-5,-31,-13,-3,-2,-1
1533863339940685,-1,-2,-2,8,-10,-1,-1,0
1533863339961630,-2,-1,0,4,4,-3,-1,-2
1533863339961630,0,0,1,2,1,0,1,1
1533863339963625,1,0,1,1,-1,-3,-1,-3
1533863339963625,-2,0,0,7,3,-3,0,-2
1533863339984567,-1,-3,-4,-15,-7,-1,-2,-2
1533863339984567,1,-1,1,1,-6,1,0,1
1533863339986563,-2,-2,-2,-8,0,-1,-1,-1
1533863339986563,-2,-3,0,15,0,-2,-3,-1
1533863339999531,-1,-2,-2,-2,8,0,-1,-2
1533863339999531,-2,-2,-5,-7,-11,-5,-1,0
1533863340001522,1,0,0,-7,-1,2,-1,1
1533863340001522,1,-1,0,8,-4,0,-1,-3
1533863340022627,1,-2,1,-12,5,-1,-1,1
1533863340022627,-3,-1,-2,-5,5,0,0,-1
1533863340023463,-1,-1,0,15,-8,-1,1,0
1533863340023463,-1,-2,-3,-7,0,-2,-1,-1
1533863340044408,-1,-1,1,3,3,4,-1,-2
1533863340044408,-1,-2,1,7,2,0,-1,-1
1533863340046403,-1,-1,1,-17,-9,-1,0,0
1533863340046403,0,-1,-1,15,-2,-2,0,-3
1533863340067350,-1,-1,-2,-4,-6,-2,1,0
1533863340067350,0,1,0,-1,2,-3,-1,-2
1533863340068344,-4,-4,-3,4,2,-1,-2,-3
1533863340068344,0,-1,0,-4,-2,-2,0,2
1533863340082310,0,1,0,-9,-3,-3,-1,-2
1533863340082310,-1,-2,-1,14,3,-4,-4,-2
1533863340083304,-1,-2,-2,23,6,-2,-3,-1
1533863340083304,-2,-4,-5,-20,-4,1,-2,1
1533863340112246,-1,0,0,-3,-3,0,-1,0
1533863340112246,-2,-1,0,-5,-4,-1,0,-2
1533863340113224,-1,0,-2,2,4,0,0,-1
1533863340113224,-1,1,0,0,5,0,-1,-1
1533863340119211,-2,-1,0,18,2,-3,-1,1
1533863340119211,-1,-1,-5,-24,-22,-1,-2,-1
1533863340127187,-2,0,-3,-7,-5,1,-1,0
1533863340127187,-3,-1,-1,-8,-3,-2,-2,-2
1533863340142150,-1,-1,-1,0,1,0,-2,-2
1533863340142150,-1,-1,-1,11,8,-4,-1,-1
1533863340143144,-3,-4,0,-6,-1,-2,-1,-1
1533863340143144,0,-1,-3,-6,-3,-2,0,0
1533863340164088,1,1,5,-15,-1,0,-1,-1
1533863340164088,0,0,-3,26,-3,-3,0,-2
1533863340166082,-4,-3,-5,6,1,-2,-2,-2
1533863340166082,-3,-4,-4,-21,0,0,-1,-3
1533863340179218,-3,-2,-4,4,-15,-2,-2,0
1533863340179218,0,0,2,-12,7,2,0,1
1533863340186177,2,2,-1,8,-5,-6,-1,2
1533863340186177,0,0,0,-2,-1,0,0,-2
1533863340202022,-2,-2,-2,-1,0,-2,0,0
1533863340202022,-3,-1,0,-10,-2,1,-2,-2
1533863340203995,0,1,3,-2,5,3,-1,-1
1533863340203995,-2,-2,-3,-12,-5,-2,-3,-1
1533863340224928,-3,-2,-4,-6,0,-1,-2,-2
1533863340224928,0,0,0,4,0,0,-2,0
1533863340225925,-2,-3,-3,4,7,-2,0,-1
1533863340225925,1,1,2,5,-7,-2,0,1
1533863340238891,-1,0,-1,2,2,0,-1,-1
1533863340238891,-2,-2,-4,-4,-5,-3,-1,-2
1533863340245888,0,-1,1,-13,-3,0,0,-1
1533863340245888,1,1,2,12,9,1,0,0
1533863340269805,-1,-3,-6,-8,-6,-5,-3,-3
1533863340269805,-3,-4,-5,-23,-8,1,-3,-2
1533863340270803,0,-1,-2,-18,-3,-1,0,-3
1533863340270803,-1,-1,1,9,-3,-1,-2,0
1533863340284800,-1,-1,1,6,9,1,0,-3
1533863340284800,0,-2,1,2,3,-1,-2,-1
1533863340285797,-1,-1,0,0,-2,-2,-1,0
1533863340285797,0,-1,-1,-2,-1,1,0,-1
1533863340298731,3,0,2,-6,-3,2,0,1
1533863340298731,-4,-5,-3,3,6,-3,-1,-2
1533863340305727,-2,-3,-3,0,-5,-2,-1,0
1533863340305727,1,0,0,23,2,-1,-1,-1
1533863340321667,0,-2,-4,-39,-10,-1,0,-1
1533863340321667,1,0,1,1,0,0,1,0
1533863340323661,0,-2,-1,-2,7,1,-2,-1
1533863340323661,-2,-1,-1,-2,-4,0,-1,-2
1533863340344605,-2,0,0,12,0,-1,-1,-2
1533863340344605,3,1,1,-2,0,0,0,0
1533863340345602,-2,-1,-5,-4,-3,-3,-4,-5
1533863340345602,-2,-3,-3,10,2,-3,-2,-2
1533863340358571,0,-1,-2,3,-4,0,0,-2
1533863340358571,-1,-1,-3,11,-3,-2,-1,-1
1533863340365766,1,1,-1,-3,-5,-1,-1,1
1533863340365766,-3,-2,-2,-8,0,-2,-1,-1
1533863340382507,-2,-3,0,9,4,-3,-2,0
1533863340382507,0,1,3,2,2,3,2,-1
1533863340383502,1,1,-1,-14,-6,-1,-1,0
1533863340383502,-3,-4,-9,-17,-5,-2,-3,-1
1533863340404448,-5,-3,-1,21,11,-3,-2,-2
1533863340404448,-3,0,-2,-6,0,0,-1,-1
1533863340406439,-2,0,1,7,4,0,0,-2
1533863340406439,1,2,1,-6,-6,0,1,-1
1533863340418449,0,0,-2,-3,-5,-1,0,-1
1533863340418449,0,-3,-2,-2,2,-2,-2,-2
1533863340425425,0,-1,3,5,4,1,1,1
1533863340425425,-1,0,0,2,9,0,0,-1
1533863340442428,-1,-4,-2,4,-16,-1,0,-1
1533863340442428,-4,-4,-3,-5,-2,-3,-2,0
1533863340443365,-1,-1,-2,-3,0,1,-1,0
1533863340443365,-1,-3,1,-1,-7,-1,-2,-1
1533863340464289,0,-1,0,6,4,-1,0,-2
1533863340464289,-3,-1,0,-2,0,-3,0,-1
1533863340466281,-1,-2,-3,-2,-6,-2,-1,-1
1533863340466281,2,3,3,14,17,2,1,0
1533863340478260,-7,-5,-12,-33,-11,-3,-3,-2
1533863340478260,-2,-1,-2,6,-10,0,-1,-1
1533863340487240,-3,-2,-2,-7,0,-4,0,-2
1533863340487240,0,0,2,6,5,0,0,0
1533863340501186,1,1,4,1,-7,-3,-1,0
1533863340501186,2,0,0,-6,-1,1,1,-2
1533863340510178,0,0,3,0,3,0,-1,-1
1533863340510178,-5,-5,-5,10,-12,-6,-3,-3
1533863340524126,0,1,0,-1,2,0,-1,1
1533863340524126,-2,-3,-4,-7,-5,0,0,-1
1533863340526120,0,0,2,19,5,1,-1,0
1533863340526120,-2,0,-1,-17,-5,-1,-2,-2
1533863340538097,0,0,0,-7,4,-2,-1,0
1533863340538097,-1,-2,-2,7,1,-2,-2,-1
1533863340547068,-2,0,-1,-2,1,-1,-1,0
1533863340547068,-1,-2,-1,11,-1,-2,-1,1
1533863340562024,0,0,-2,-3,-2,1,1,-2
1533863340562024,-1,1,0,-3,2,-1,1,0
1533863340564018,0,-2,-4,-5,-11,-1,-1,-4
1533863340564018,1,-4,-3,7,0,-3,-1,-2
1533863340584965,1,0,1,1,2,0,-2,0
1533863340584965,-1,0,-2,-11,0,-5,-2,0
1533863340585970,-3,-2,-4,6,4,-5,-2,-1
1533863340585970,-3,1,0,-6,-11,1,2,0
1533863340598954,1,-1,3,10,3,2,1,1
1533863340598954,-1,-3,-3,5,0,0,-2,-2
1533863340606905,-1,-4,-2,-11,-1,0,-1,-1
1533863340606905,1,-1,-1,1,3,0,-1,0
1533863340621863,-3,-2,-3,3,0,-3,-3,-4
1533863340621863,1,1,-1,9,-3,-1,-3,0
1533863340623858,0,0,1,11,4,0,-2,-1
1533863340623858,-1,-3,-2,-14,7,0,0,-2
1533863340644803,0,-2,-3,-2,-14,-3,-2,-2
1533863340644803,-1,-2,-2,-7,0,-3,-1,1
1533863340645803,-2,-3,-2,-17,-6,-1,-2,-2
1533863340645803,0,2,-1,-18,-3,-2,-1,0
1533863340657804,-3,-3,-1,17,7,-3,-1,-1
1533863340657804,-1,-1,0,-5,-4,0,-1,-3
1533863340666744,-1,-1,-4,-2,3,-3,-1,0
1533863340666744,-1,-2,0,12,-10,-1,1,0
1533863340681704,-2,-2,-3,-31,-1,1,0,-1
1533863340681704,-1,-1,0,0,-2,-2,0,0
1533863340683714,0,-1,1,-6,-2,0,-2,0
1533863340683714,-1,-1,-1,-2,-1,-1,-2,-2
1533863340711625,0,-1,1,6,11,3,0,0
1533863340711625,-2,-2,-1,11,-10,0,-1,-1
1533863340713618,-2,0,0,-4,1,0,-1,-2
1533863340713618,-2,-3,-2,-7,-2,-4,-3,-1
1533863340717634,-2,1,0,4,-1,-1,0,-2
1533863340717634,-1,-2,-2,1,5,-2,-1,-1
1533863340727581,-2,-2,-6,-15,-6,-2,-2,-2
1533863340727581,-1,0,-2,-11,-10,0,1,-2
1533863340741577,-1,-2,0,18,4,-1,-2,-3
1533863340741577,0,-1,-1,10,3,0,0,0
1533863340743566,-2,0,1,29,-2,-1,-1,-1
1533863340743566,0,-2,-1,-8,15,2,-1,-3
1533863340764482,0,-1,-2,-12,-24,-7,0,0
1533863340764482,0,-1,1,-4,2,-1,-1,-3
1533863340766487,-1,-3,0,-2,-7,-1,1,0
1533863340766487,-1,1,1,9,6,4,0,-1
1533863340787593,0,0,0,-15,5,-1,0,0
1533863340787593,-2,-1,-2,0,-5,-1,0,-1
1533863340788419,-2,-1,0,-6,2,0,0,0
1533863340788419,-1,1,1,21,-2,-1,-2,0
1533863340809363,0,0,-2,-30,-1,-1,0,0
1533863340809363,-1,-4,-6,4,-6,-3,-1,-3
1533863340811358,-3,-3,-4,4,6,0,-3,-1
1533863340811358,-2,-4,-2,6,-20,-5,-4,-2
1533863340824322,1,-2,0,-14,3,1,-2,-1
1533863340824322,1,0,1,-10,7,2,0,-1
1533863340826316,1,0,2,7,-5,-2,1,-1
1533863340826316,-2,-1,-2,-4,3,-1,-2,-2
1533863340838287,-3,-1,-5,-2,-2,0,-3,-1
1533863340838287,-2,0,0,13,6,-2,-3,-2
1533863340847262,-1,-2,0,3,-4,0,0,0
1533863340847262,-2,1,0,-7,-3,-2,-1,0
1533863340861242,-2,-1,-2,13,1,0,-1,-1
1533863340861242,-2,0,-1,-2,2,-2,1,1
1533863340868239,0,-1,1,0,0,-1,-1,0
1533863340868239,2,1,-1,-43,-1,2,1,-2
1533863340884162,-2,-2,-3,38,1,-4,-3,-2
1533863340884162,-1,-3,-3,2,-7,-1,0,-1
1533863340886157,-1,0,-1,3,-1,-1,-1,-1
1533863340886157,-1,-2,-2,-10,-2,-2,2,-1
1533863340907104,-2,0,2,3,4,1,-1,1
1533863340907104,-1,-1,1,-4,2,2,-2,0
1533863340913084,-2,0,-2,-1,-7,-2,-3,-1
1533863340913084,-1,-2,-2,-8,2,-2,-3,1
1533863340922060,-1,-2,0,0,-5,-1,0,0
1533863340922060,-4,-1,1,8,-1,-3,-2,-1
1533863340923057,-2,-2,-3,-7,-1,-2,-2,-2
1533863340923057,-3,-1,-2,0,-2,-3,-3,0
1533863340952195,-3,-2,-3,5,-6,-1,1,-4
1533863340952195,0,0,0,-18,-6,-1,-1,-1
1533863340953991,0,-1,1,2,1,0,0,-2
1533863340953991,-1,-1,1,9,9,2,0,-1
1533863340966944,-2,-2,-2,6,-3,-1,-2,-1
1533863340966944,-2,-1,-1,-8,-1,1,0,-1
1533863340968936,-1,-2,-3,-3,-1,-2,-1,0
1533863340968936,-2,0,-1,15,-5,-4,-1,-1
1533863340981909,0,1,1,-6,8,1,-1,-1
1533863340981909,2,-1,-1,-12,-4,-1,-1,-2
1533863340983894,-3,-5,-4,14,4,-5,-4,-3
1533863340983894,-2,-2,-1,4,-5,-1,0,-2
1533863341004843,0,0,-3,-10,3,0,-1,-1
1533863341004843,0,-1,-2,-3,-3,-2,-1,-1
1533863341006834,0,1,0,-24,-7,0,0,0
1533863341006834,1,-1,-1,-5,-4,1,0,-1
1533863341026816,-2,-2,0,27,5,-1,-1,-3
1533863341026816,-2,-2,-2,3,-2,0,-1,-3
1533863341028775,0,-1,-3,-22,-4,0,0,-1
1533863341028775,-1,-1,-3,1,-2,-1,0,-2
1533863341041741,1,0,1,-3,-1,-1,0,1
1533863341041741,-2,-2,0,-9,-1,-3,0,-1
1533863341047728,-1,-1,-1,5,4,-2,0,-3
1533863341047728,-1,-1,-3,-11,-9,-3,-1,-1
1533863341064679,-2,-2,-2,7,0,0,-1,-1
1533863341064679,-1,0,-3,2,0,-2,-1,-1
1533863341065676,0,0,0,0,6,-1,-2,1
1533863341065676,-1,-1,-2,-6,-3,-4,-2,0
1533863341086642,-1,-1,-2,-8,-7,-5,-1,-1
1533863341086642,-3,-2,1,17,-2,2,0,-2
1533863341088615,-1,-1,-3,-15,-5,1,0,-1
1533863341088615,-1,0,-2,-12,0,0,0,-2
1533863341101580,0,0,-4,5,-2,-1,0,-2
1533863341101580,-3,-1,-2,-7,6,-1,-2,-1
1533863341108565,1,0,2,18,-1,-2,1,0
1533863341108565,0,-2,1,-5,7,-2,1,-1
1533863341124519,0,0,1,-2,-5,-1,-1,-1
1533863341124519,0,-1,-1,3,3,-2,-2,0
1533863341126514,-1,-1,-1,-2,-8,-3,-1,-2
1533863341126514,1,-1,-1,10,1,-1,-1,-3
1533863341147461,-1,-2,-1,-10,-4,-2,-1,1
1533863341147461,-1,1,-1,-14,2,1,-1,0
1533863341148455,0,-2,1,20,2,2,-3,-1
1533863341148455,-2,-2,-2,-3,-5,-4,-1,0
1533863341161420,1,-1,-3,-21,-11,-3,-3,0
1533863341161420,-2,-3,-6,2,-8,-5,-3,-3
1533863341168402,-2,1,-1,-11,-1,-1,-2,-2
1533863341168402,-1,-1,-1,14,4,2,0,-1
1533863341184359,-1,-1,1,0,9,2,0,-1
1533863341184359,-1,-2,-3,-10,-22,-5,0,0
1533863341186354,1,-1,0,8,5,-1,0,0
1533863341186354,-3,-4,-3,2,0,-1,-1,-1
1533863341207301,1,0,0,15,8,-2,0,-2
1533863341207301,-1,-3,-6,-27,-2,0,0,-2
1533863341208300,-2,-2,1,13,1,0,-2,-1
1533863341208300,-1,-1,0,8,0,-1,-1,-1
1533863341221472,-3,-2,-2,-17,-7,0,-1,0
1533863341221472,-2,-1,-1,9,-1,0,-2,1
1533863341228241,-1,-1,-4,-5,-4,-1,0,0
1533863341228241,1,1,0,-14,9,0,-1,-2
1533863341244200,-2,-2,-4,11,-18,-1,-2,-1
1533863341244200,0,0,0,-8,4,0,-3,0
1533863341246195,-2,0,-2,-1,1,-2,-1,1
1533863341246195,0,1,4,-12,-2,1,1,0
1533863341267138,-6,-6,-6,19,2,-5,-2,-3
1533863341267138,-1,1,2,5,3,0,-2,-2
1533863341268155,-2,-2,-1,3,-4,-1,0,-1
1533863341268155,-1,-3,-2,-25,-8,0,-1,0
1533863341281100,0,1,0,-13,5,2,0,-2
1533863341281100,-1,-1,-1,11,9,0,1,-1
1533863341288085,-1,-1,0,-4,-15,-5,-2,-1
1533863341288085,-4,-1,-2,18,-4,-2,-2,-3
1533863341304042,-2,-1,-1,-7,-2,-1,-2,0
1533863341304042,-2,-1,1,11,2,-1,-4,-2
1533863341311020,3,0,0,-15,1,2,2,-2
1533863341311020,-3,-4,-4,-5,0,-3,-1,-2
1533863341327117,-2,-3,-2,12,0,0,-1,0
1533863341327117,0,-1,-1,-7,4,-2,1,0
1533863341328973,-4,-2,-1,0,-3,-1,-2,0
1533863341328973,0,0,1,7,-3,-1,0,-2
1533863341341937,-1,1,3,-5,5,-1,0,-2
1533863341341937,1,0,1,-7,2,-1,-1,-2
1533863341348004,-1,-2,-1,1,-2,-1,-2,-2
1533863341348004,-1,-4,-3,9,-4,1,-2,-1
1533863341364879,0,0,-1,-23,-8,-2,-1,-1
1533863341364879,-1,-2,0,10,-3,-2,-2,-1
1533863341365874,-2,-2,-3,-9,4,0,-1,-2
1533863341365874,-1,0,1,19,3,0,-2,-1
1533863341394797,0,-2,-1,-9,3,1,-1,0
1533863341394797,-3,-2,1,0,-1,-1,0,-2
1533863341395803,-2,-3,-5,4,1,-2,0,-1
1533863341395803,0,-1,0,6,-3,1,0,-1
1533863341400784,-3,-1,-1,-1,-5,0,-1,-2
1533863341400784,-1,0,-1,-8,-2,-2,0,1
1533863341409756,2,2,3,5,14,0,0,0
1533863341409756,-3,-1,-5,-7,-9,-4,-2,0
1533863341424918,-1,-1,-3,12,4,-1,-1,-2
1533863341424918,0,0,-3,1,-6,3,0,0
1533863341425713,-2,-2,-1,-2,-2,-1,-2,-1
1533863341425713,2,-2,2,-4,-1,-3,0,-1
1533863341446657,2,-1,1,-7,-5,-2,0,0
1533863341446657,1,1,3,15,-1,2,1,0
1533863341454637,-3,-6,-5,-13,8,-1,-5,-3
1533863341454637,-1,-2,-2,2,-2,-2,-2,-1
1533863341460620,-1,0,0,-3,-2,1,-1,-1
1533863341460620,-1,-2,-1,-2,-7,-1,0,-1
1533863341469597,0,2,1,-6,-6,-1,-1,0
1533863341469597,0,-1,-1,-1,5,-1,0,1
1533863341483599,-2,-3,-1,-3,2,-2,0,-1
1533863341483599,0,1,2,5,3,-1,0,0
1533863341484557,-1,-1,-3,-18,-4,-3,-2,0
1533863341484557,-2,-3,-5,6,-8,-1,-2,0
1533863341506501,0,-1,-2,8,0,0,1,-1
1533863341506501,0,0,-4,-14,-2,0,0,-3
1533863341507495,-1,0,1,11,6,0,1,-2
1533863341507495,-1,1,0,-2,-12,-4,-3,-1
1533863341528439,-1,0,3,-4,9,0,-1,0
1533863341528439,-2,-2,-2,20,-11,-5,-1,-1
1533863341529437,-3,-5,-8,-27,-7,-1,-2,-2
1533863341529437,0,0,1,-3,3,-1,-1,0
1533863341544396,0,-1,-1,7,4,0,-2,-1
1533863341544396,1,-1,-1,-7,1,0,-2,0
1533863341544396,1,0,4,13,-1,1,0,-1
1533863341544396,1,0,-2,-4,-3,3,-1,-1
1533863341566547,-1,-3,-3,3,5,-1,-2,-1
1533863341566547,-1,-1,-4,-14,-5,-1,-1,-1
1533863341567335,-3,-5,-2,16,-13,-5,-2,0
1533863341567335,-3,-2,-1,-12,6,-1,-1,-1
1533863341589279,-2,1,0,7,-1,-2,0,-2
1533863341589279,0,-2,-1,-6,4,-2,-2,0
1533863341589279,2,4,7,10,12,4,0,-2
1533863341589279,-2,-1,-5,-30,-15,-3,-1,-2
1533863341604239,-3,-4,-3,-2,-2,-1,-3,-3
1533863341604239,-2,-2,-1,-4,-9,-1,-1,-2
1533863341604239,-1,-2,-3,-5,-3,-1,-3,-2
1533863341604239,3,-1,1,15,8,0,1,-2
1533863341626181,0,0,0,-6,-4,-1,-1,-1
1533863341626181,1,-2,-1,0,9,1,-1,0
1533863341627175,2,2,0,-2,-9,-4,1,2
1533863341627175,-3,-2,-4,5,1,0,-2,-2
1533863341649117,-2,-2,-2,-2,-10,-1,-1,-2
1533863341649117,-1,0,-3,9,1,-2,-1,-1
1533863341649117,-1,-2,-1,-2,5,3,2,-1
1533863341649117,-1,-1,0,-6,2,-1,0,-1
1533863341664099,2,-1,-2,-6,-4,-4,-2,-2
1533863341664099,-1,1,0,-2,1,-3,-2,-1
1533863341664099,-2,-1,1,8,11,-1,-2,0
1533863341664099,-1,-1,-1,-6,-9,-4,0,0
1533863341686020,-1,-1,-3,-16,-1,0,-2,0
1533863341686020,-2,-5,-4,-1,-4,-4,-2,-3
1533863341687014,-3,-2,-3,-4,-6,-1,-1,-1
1533863341687014,-1,-2,1,8,11,3,-2,-2
1533863341716938,-1,0,4,2,1,1,0,1
1533863341716938,-1,-2,-2,-6,-5,-2,-1,0
1533863341717932,-2,-1,0,-1,1,-4,-2,-1
1533863341717932,1,1,2,11,2,3,-1,-1
1533863341723916,2,0,-2,-29,-14,-1,0,0
1533863341723916,-6,-4,-4,17,4,-1,-4,-4
1533863341724913,-1,-2,-6,11,-9,-3,-3,-2
1533863341724913,-2,-1,0,-4,-2,-2,-2,-1
1533863341745876,-1,1,0,6,2,-1,0,1
1533863341745876,0,2,2,-5,9,1,0,-1
1533863341746858,1,1,1,-12,-13,-3,0,0
1533863341746858,-1,-2,0,20,2,-4,-2,-3
1533863341769796,-3,-3,-4,-31,-11,-2,-1,-3
1533863341769796,-2,-2,-4,-9,-1,-4,-2,-2
1533863341769796,-1,-2,-3,2,-3,-2,-2,-1
1533863341769796,-1,-3,-1,-1,0,0,-1,0
1533863341783759,-2,-1,0,14,4,0,-2,-2
1533863341783759,0,-1,1,-6,-3,1,-2,-1
1533863341784753,0,0,1,-6,5,3,1,-2
1533863341784753,1,2,0,-3,2,4,-1,0
1533863341806871,-4,-6,-7,5,-5,-7,-4,-2
1533863341806871,-1,0,0,-10,-6,-2,0,-1
1533863341813681,-2,-3,0,5,-5,-2,-2,-1
1533863341813681,-1,-1,0,0,2,1,-1,1
1533863341828636,2,-1,2,10,13,1,1,-2
1533863341828636,1,0,-3,-10,-12,-1,-2,-1
1533863341829642,-1,0,-3,3,-3,-2,-1,1
1533863341829642,-2,-1,-4,-23,-3,-1,0,-1
1533863341843595,-1,-1,0,9,1,0,1,0
1533863341843595,0,-1,0,1,-2,-2,1,0
1533863341844592,0,1,1,-4,5,-1,1,-1
1533863341844592,-1,-1,-2,0,-6,-5,-3,-1
1533863341866538,0,2,1,7,7,2,-1,1
1533863341866538,3,1,5,-12,1,1,1,0
1533863341867550,-6,-7,-11,14,-18,-7,-4,-4
1533863341867550,-3,-5,-3,-2,-4,-1,-3,-1
1533863341888488,-2,-1,-2,2,-2,1,-1,0
1533863341888488,0,0,0,0,5,3,-1,-1
1533863341889473,0,0,2,-12,5,1,0,-2
1533863341889473,-2,-2,-1,-2,-3,-2,-2,-1
1533863341903439,-2,-1,-1,4,3,-2,-3,0
1533863341903439,1,1,-1,6,1,-3,0,0
1533863341904433,0,-1,1,-14,-9,0,0,0
1533863341904433,-2,1,-3,8,6,0,0,1
1533863341926377,-3,-1,-1,-8,-12,-3,0,-1
1533863341926377,-6,-5,-4,7,3,-1,-1,-2
1533863341927372,0,-1,0,0,-3,0,-3,-1
1533863341927372,-3,0,0,-1,3,-1,0,-1
1533863341948320,2,1,2,-11,5,0,0,-1
1533863341948320,0,-3,-4,5,-4,-6,-3,-2
1533863341949314,-1,0,2,15,6,1,1,-1
1533863341949314,-1,-2,-6,-18,-8,-2,-1,0
1533863341964274,0,-1,0,1,6,1,-1,0
1533863341964274,-1,0,-2,-6,-5,0,-1,0
1533863341965271,0,0,1,-5,3,0,0,0
1533863341965271,-1,0,-1,9,0,-2,-3,-2
1533863341994193,-1,-1,0,3,-5,-2,0,-1
1533863341994193,0,-1,2,1,6,0,0,0
1533863341995191,-2,-1,-3,-13,-7,-4,-2,-2
1533863341995191,-2,-2,-3,11,-6,-3,-1,-1
1533863342009157,0,-2,-4,-1,-2,-2,0,-3
1533863342009157,-3,1,-2,0,0,0,0,-1
1533863342010150,-1,-2,-1,-4,6,-3,-3,-2
1533863342010150,-1,-2,1,-8,-3,-2,1,0
1533863342024116,-2,0,-2,1,2,-1,-1,-1
1533863342024116,0,0,2,7,2,2,1,0
1533863342024116,-3,-2,-6,-13,-7,-3,-3,-2
1533863342024116,-1,-2,-3,8,-1,-3,0,-3
1533863342046058,-2,-1,-1,1,-5,-3,-3,-2
1533863342046058,0,-2,0,11,-3,1,0,0
1533863342047066,-1,0,-4,-11,1,4,-2,-1
1533863342047066,0,2,1,-9,10,4,0,-2
1533863342069993,1,2,1,-10,-10,0,0,0
1533863342069993,-3,-3,-4,0,-7,-1,-2,-1
1533863342069993,-2,-1,2,12,-2,-2,-3,-1
1533863342069993,-3,-1,-2,-6,0,-5,-2,0
1533863342083953,0,-1,0,8,2,-2,-1,0
1533863342083953,0,3,0,-1,4,0,0,0
1533863342084951,1,-1,-1,-30,-2,-2,0,1
1533863342084951,-1,-2,0,4,-6,-4,-2,-1
1533863342105897,-2,-3,-3,-5,-2,0,-1,0
1533863342105897,0,-1,-3,-6,-5,-1,0,-2
1533863342106909,-2,-1,-1,15,3,-1,0,-1
1533863342106909,0,0,1,-6,0,0,-1,-1
1533863342128833,2,0,-2,-8,1,1,-2,-1
1533863342128833,-2,-4,-1,-3,0,0,-1,-1
1533863342129831,0,0,-1,4,2,0,-1,0
1533863342129831,-1,1,1,-9,5,1,-1,-1
1533863342143812,-4,-2,-1,9,-14,-7,-1,-1
1533863342143812,-2,0,-3,-6,0,-1,-1,-2
1533863342144791,0,-3,-1,11,1,1,0,-2
1533863342144791,0,-1,-1,-14,-4,-2,-1,-1
1533863342174891,-1,-1,-3,-4,5,-3,-2,0
1533863342174891,-4,-2,0,6,-8,-4,-3,-2
1533863342175708,-3,0,-1,-4,3,-1,-2,-1
1533863342175708,-2,-1,-1,6,-7,-2,-1,-3
1533863342188673,-1,-1,-3,-29,1,0,1,-1
1533863342188673,2,-2,-1,-16,1,-2,-1,0
1533863342189671,-1,-1,-1,14,-11,-5,-1,0
1533863342189671,-1,-4,-2,4,9,2,0,-2
1533863342203633,-1,0,0,8,-2,0,-1,-3
1533863342203633,-1,-1,0,-1,1,1,-2,-1
1533863342204630,-1,0,0,-8,-1,-1,-2,-1
1533863342204630,2,0,2,7,0,-1,0,1
1533863342226590,-1,-2,-4,9,1,-1,-1,1
1533863342226590,-2,-3,-2,-9,-3,-3,-1,-3
1533863342227570,1,0,-1,1,1,0,0,1
1533863342227570,-1,0,1,21,-3,-1,-1,0
1533863342248513,-1,-2,-1,-35,-1,2,-2,-2
1533863342248513,-3,-1,-2,-13,-1,0,0,1
1533863342249510,0,0,-3,-2,-1,-1,0,-2
1533863342249510,-2,-3,-2,1,-1,0,-2,0
1533863342263477,-2,-2,-2,25,13,0,-2,-2
1533863342263477,-1,-1,-1,-12,-22,-5,-3,-1
1533863342264487,-1,0,-1,-10,4,1,1,-1
1533863342264487,-1,-1,-6,-14,-7,-2,-1,-2
1533863342286415,-1,3,1,7,1,-2,0,0
1533863342286415,0,1,0,6,7,0,0,2
1533863342287409,-1,-1,-2,9,3,-3,0,-2
1533863342287409,-3,-2,-2,-17,-6,-1,-1,-1
1533863342309355,-3,-2,1,1,-4,-3,0,-1
1533863342309355,-1,-2,-2,8,3,-1,-2,-1
1533863342309355,-1,-3,-4,-30,-21,-3,-2,0
1533863342309355,-1,-2,0,13,6,1,-2,-1
1533863342323314,-1,-1,-2,-3,-3,0,-2,-2
1533863342323314,0,-1,-2,12,2,0,-3,-2
1533863342324325,1,1,4,5,9,3,0,-1
1533863342324325,0,-1,-5,-27,-14,-4,0,-1
1533863342346255,-1,-2,-2,-2,0,-1,-1,-2
1533863342346255,-2,-1,1,6,5,-2,0,1
1533863342347249,0,-2,2,6,4,0,-1,-2
1533863342347249,1,2,-1,-10,-3,-1,-1,0
1533863342369194,-2,-2,-1,36,-3,-1,-1,-3
1533863342369194,1,1,-4,-19,-5,0,-1,-3
1533863342369194,-3,-3,-1,7,0,-4,-2,-2
1533863342369194,-1,2,5,-1,6,0,1,1
1533863342384150,-1,-3,-2,13,1,-4,-1,-1
1533863342384150,-3,0,1,2,6,0,0,0
1533863342384150,-3,-4,-5,23,-8,-3,-4,-4
1533863342384150,-1,-1,0,9,1,0,-2,-1
1533863342406095,1,1,0,-19,-2,-1,1,1
1533863342406095,0,0,4,4,-3,0,-1,-1
1533863342407089,-2,-2,-6,-4,6,-1,0,-1
1533863342407089,-2,-3,-2,3,-6,-3,-2,-1
1533863342429034,2,2,1,0,4,2,0,1
1533863342429034,0,-4,-5,6,6,-2,-2,-2
1533863342430027,-3,-3,-5,-2,-5,-1,-2,-1
1533863342430027,-3,-2,1,29,-3,-1,-1,-1
1533863342459983,-1,0,-1,-32,0,-1,-1,-2
1533863342459983,2,2,2,21,10,2,3,0
1533863342459983,2,2,4,-46,-14,1,1,1
1533863342459983,-2,-3,-5,1,3,-2,-2,0
1533863342466119,-4,-2,-2,6,-6,-1,-3,1
1533863342466119,0,2,2,-2,-2,-2,-1,-2
1533863342466938,-1,-3,-1,5,10,-3,-1,-1
1533863342466938,1,2,2,1,2,2,2,-1
1533863342488871,1,-3,-1,6,0,-2,0,-2
1533863342488871,-2,-3,-2,1,-9,-4,-3,-3
1533863342489871,-1,0,-2,-6,5,-1,0,-1
1533863342489871,-2,-2,-6,-22,-12,-3,-2,-2
1533863342504827,-3,-2,-1,11,-2,0,-2,0
1533863342504827,-3,-3,-3,-2,0,1,-1,0
1533863342511810,0,1,2,0,-10,-3,-1,0
1533863342511810,-1,-1,1,13,12,2,-2,-3
1533863342526895,-2,-2,-4,-4,-3,-1,1,-1
1533863342526895,-1,-2,-7,-28,-7,-2,-1,-2
1533863342526895,2,1,3,0,7,2,0,2
1533863342526895,-4,-2,-3,20,2,-3,-1,-1
1533863342548713,0,0,-1,-5,-6,0,-1,-1
1533863342548713,-1,-1,-3,-1,-1,-2,0,-1
1533863342549707,1,-1,-1,-1,0,0,0,1
1533863342549707,2,1,3,0,0,1,1,-1
1533863342562871,-1,-2,1,-3,-2,-3,-2,0
1533863342562871,-3,-6,-5,3,4,-1,-3,-1
1533863342570832,-2,0,0,-10,-6,-2,-2,-1
1533863342570832,1,-2,-1,-6,-9,-4,-1,-1
1533863342586788,-2,-1,0,-3,5,0,-2,-2
1533863342586788,-2,-2,-2,-17,-11,-6,-4,2
1533863342586788,-2,-3,-6,18,2,1,-2,-4
1533863342586788,-2,-1,0,-10,-7,0,-1,1
1533863342608733,3,2,2,-15,1,2,0,0
1533863342608733,-7,-4,-4,5,2,-2,-4,-5
1533863342609727,-2,0,-2,11,1,-1,-2,-2
1533863342609727,0,-1,0,-4,2,-1,-1,-2
1533863342633663,1,-1,2,-2,-1,-1,0,0
1533863342633663,1,-1,2,15,-2,0,1,-1
1533863342634661,-3,-2,-3,-7,3,-1,0,0
1533863342634661,0,-1,-1,-4,-3,-2,-1,-1
1533863342646644,-1,-2,-1,3,1,-1,1,0
1533863342646644,0,0,1,-14,-1,-1,1,1
1533863342646644,1,-1,0,13,6,1,-1,-2
1533863342646644,0,0,-2,2,-4,-1,1,2
1533863342668573,-2,-2,-6,3,-4,-4,-4,-1
1533863342668573,-3,1,-2,0,0,-1,0,-3
1533863342669567,-1,0,3,-11,-1,-1,0,0
1533863342669567,-2,-4,-5,11,1,-2,-3,-3
1533863342683533,-2,0,-1,2,4,1,-2,-2
1533863342683533,0,-1,-1,-27,-11,-2,-1,-1
1533863342699487,-2,-3,0,1,4,-2,0,-1
1533863342699487,-3,-3,-5,-29,-14,-3,-4,-2
1533863342706472,0,0,0,-7,-6,-2,-2,0
1533863342706472,-1,1,3,43,13,0,0,-2
1533863342707466,-1,-1,-1,-8,-3,1,1,-1
1533863342707466,-1,-1,-3,-18,5,0,0,-1
1533863342728410,-5,-3,-2,26,-11,-4,-1,-2
1533863342728410,-1,-1,0,-13,5,1,0,-1
1533863342729407,-3,0,-1,-6,-19,-5,-1,0
1533863342729407,-2,0,2,5,7,2,0,-1
1533863342743372,-2,-1,-2,-9,-1,0,-2,0
1533863342743372,1,0,-2,-2,1,1,-1,0
1533863342751353,1,-2,-2,5,3,1,-2,-3
1533863342751353,0,-1,0,2,2,0,-1,0
1533863342767367,0,1,-2,-10,-1,-2,-4,-4
1533863342767367,0,0,0,7,0,-1,-1,0
1533863342767367,1,-2,-3,-3,1,-1,-2,-1
1533863342767367,-3,-3,-1,0,-4,-1,-1,0
1533863342788314,0,-2,1,10,13,1,1,0
1533863342788314,-1,0,1,-35,-27,-7,0,-2
1533863342789308,-4,-2,-3,19,-1,-3,-2,-3
1533863342789308,-1,0,1,-27,4,1,0,-1
1533863342812247,-3,-4,-4,15,-6,-4,1,-1
1533863342812247,0,0,1,10,5,0,0,-1
1533863342813261,1,1,3,-12,-1,0,0,0
1533863342813261,2,3,3,2,0,0,1,-1
1533863342826212,-1,-2,-4,7,0,-2,-3,-1
1533863342826212,-3,-3,-5,-7,-6,-2,0,0
1533863342827207,-2,-2,-4,2,-3,-3,-1,0
1533863342827207,-1,-1,-1,2,5,1,-3,-3
1533863342849148,2,1,3,-5,-2,2,0,-1
1533863342849148,-2,-4,-4,-6,0,-2,-2,0
1533863342849148,-1,0,-2,-5,-2,-1,0,0
1533863342849148,0,-3,0,7,8,-2,-2,-3
1533863342872113,-1,0,-1,-11,-15,-4,-1,-3
1533863342872113,-1,-1,-1,4,-2,-1,-2,0
1533863342873090,-1,0,-1,1,4,1,0,-1
1533863342873090,-3,-1,-3,4,-3,-3,-1,0
1533863342886219,0,0,0,1,8,3,0,1
1533863342886219,-1,-1,-1,-3,-2,0,-1,-1
1533863342887047,1,-1,0,-7,-3,-1,0,0
1533863342887047,-2,0,-3,4,-5,-3,-1,0
1533863342908991,-3,-3,-1,-3,-5,-3,-1,-1
1533863342908991,-2,-2,-2,5,6,-3,-3,-3
1533863342909985,0,0,-2,-4,-12,-4,-2,-2
1533863342909985,2,0,-1,-1,2,1,2,-1
1533863342931930,-2,0,-2,8,-5,-2,-1,-1
1533863342931930,-2,0,2,-13,1,-1,0,-1
1533863342932924,-1,-2,-2,-1,10,-2,-1,-1
1533863342932924,-2,-2,0,-8,-8,-2,-4,-1
1533863342946887,-1,0,0,-4,-2,0,-1,-2
1533863342946887,2,-2,0,18,21,2,-1,-1
1533863342946887,-2,-4,0,4,-24,-4,0,-1
1533863342946887,-2,-2,-1,0,-3,1,1,0
1533863342976810,1,-1,1,-2,9,3,2,-2
1533863342976810,0,-1,-3,-6,-7,-3,-2,-1
1533863342977804,-4,0,0,-6,4,-1,-3,-3
1533863342977804,-1,0,-1,7,2,0,0,-1
1533863342991801,-1,-2,-1,-7,-6,-1,-1,-2
1533863342991801,1,1,0,-5,-3,1,-1,-1
1533863342992768,2,0,-2,-7,4,-1,0,-2
1533863342992768,-3,-5,-3,15,-2,-5,-4,-3
1533863343005764,-3,-1,-1,2,4,-1,-1,0
1533863343005764,-1,0,-2,-18,-5,-2,2,1
1533863343006761,-1,-1,-3,3,6,2,-1,-1
1533863343006761,1,0,0,-14,-5,0,0,-2
1533863343028757,-4,-3,-5,-7,-12,-4,-1,-2
1533863343028757,-1,-1,1,-9,6,4,1,-1
1533863343029665,0,-2,-1,-1,-9,-3,-3,2
1533863343029665,0,0,0,7,0,-3,-1,-1
1533863343051610,1,0,-3,-21,2,0,-2,-1
1533863343051610,-4,-3,-1,7,-6,-3,-1,1
1533863343052604,-4,-2,1,11,20,0,-2,-2
1533863343052604,-2,-6,-5,11,-18,-2,-2,-3
1533863343066572,-2,-1,-1,-21,-5,-5,-1,-2
1533863343066572,1,1,0,5,-8,0,0,-2
1533863343067564,-1,-1,2,0,9,2,0,-1
1533863343067564,0,-1,-1,14,7,-3,-1,0
1533863343088508,-3,-3,-5,-1,-4,-3,0,-1
1533863343088508,-2,1,-2,-6,-7,0,-3,-1
1533863343089505,0,0,0,16,12,4,0,-1
1533863343089505,-1,0,0,-22,-7,1,1,0
1533863343112446,-1,-2,-2,-14,-11,0,-1,-1
1533863343112446,-1,-3,-3,17,4,-2,-2,-2
1533863343112446,-3,-4,-3,6,-9,-4,-2,-3
1533863343112446,1,0,1,-2,10,2,-1,1
1533863343126407,-2,0,5,29,8,-2,-2,-1
1533863343126407,-2,-5,-9,-23,-13,-3,-2,-1
1533863343127405,-3,-1,-1,-11,-5,-3,-3,-2
1533863343127405,-3,-1,-2,12,0,-2,-1,-4
1533863343149352,0,1,0,-6,3,0,-2,-1
1533863343149352,2,2,-1,12,1,0,0,0
1533863343149352,-1,-1,0,-3,-2,-4,-1,-1
1533863343149352,-1,-3,0,-1,3,-1,-2,-1
1533863343172288,-2,-1,-3,-11,-19,-1,1,1
1533863343172288,-2,-1,2,12,5,-1,-1,-2
1533863343173290,-1,0,-3,-10,-3,-1,-3,0
1533863343173290,1,0,2,-8,5,-1,-1,1
1533863343186282,1,-1,0,20,6,-1,-1,0
1533863343186282,-1,-2,0,-21,-7,0,0,0
1533863343187245,0,-3,-4,11,-4,-2,-2,-2
1533863343187245,-1,0,2,-8,-2,0,1,-2
1533863343209185,-3,-2,-3,20,11,0,-1,0
1533863343209185,-1,-1,0,2,4,3,-2,-2
1533863343209185,0,1,0,11,-22,-5,0,-1
1533863343209185,-2,0,-2,-15,-1,-1,-1,0
1533863343232125,2,1,1,10,0,-1,0,0
1533863343232125,-1,0,1,15,8,1,-1,0
1533863343233127,-3,-6,-12,-29,-14,-5,-3,0
1533863343233127,0,-1,0,5,4,0,0,0
1533863343246090,-1,0,0,-21,-5,0,-3,-2
1533863343246090,1,-2,2,21,0,-1,-1,-2
1533863343254105,-1,0,1,-29,3,1,1,-2
1533863343254105,-1,-2,-5,18,-8,-4,0,-2
1533863343269068,2,2,4,33,23,4,2,0
1533863343269068,-2,-1,-6,-65,-39,-8,-3,-2
1533863343270028,-3,-1,-2,-11,0,-2,-2,-2
1533863343270028,-4,-3,-3,-21,-7,-1,-1,-2
1533863343291967,-1,-2,-3,-5,-6,-1,-1,-1
1533863343291967,-1,-2,-1,22,10,0,0,0
1533863343292962,0,0,3,9,4,-1,0,1
1533863343292962,-2,-3,-5,-24,4,-3,-4,0
1533863343305926,0,-1,0,-10,-7,-1,0,-2
1533863343305926,-3,-2,-1,3,1,-2,-1,-1
1533863343306924,-1,-1,-2,-3,-3,-2,0,-2
1533863343306924,0,1,2,6,2,2,-1,-3
1533863343328870,-2,-3,-3,2,6,-4,-2,-2
1533863343328870,1,1,2,17,6,0,1,0
1533863343329867,-3,-6,-7,-22,-12,-2,-3,-1
1533863343329867,2,1,1,-16,12,1,1,-1
1533863343351806,-6,-4,-2,5,-16,-6,-2,-2
1533863343351806,-3,-1,-3,15,7,-2,-1,-2
1533863343352804,0,1,1,13,5,3,2,1
1533863343352804,1,1,3,-1,-7,1,2,-1
1533863343365769,-1,-3,-3,-11,6,-1,-2,-1
1533863343365769,-1,-1,-1,12,11,-2,-3,-1
1533863343373745,0,0,-2,6,-10,-3,-3,0
1533863343373745,-2,-1,-4,15,-10,-1,-1,-2
1533863343388705,0,1,-2,-40,-3,-1,-3,0
1533863343388705,0,-3,-3,13,0,0,-2,-2
1533863343396693,1,1,0,-14,8,2,0,-1
1533863343396693,-1,-3,3,22,0,-2,-2,-1
1533863343411659,-2,-3,-2,-20,-6,-1,-1,0
1533863343411659,-2,-1,-1,-30,-13,-5,0,-2
1533863343412643,-1,0,0,16,14,-1,0,-1
1533863343412643,-4,-1,-5,15,-5,-1,0,0
1533863343425609,-1,1,0,-2,-7,0,1,0
1533863343425609,-3,-1,0,1,1,-1,-1,1
1533863343433588,-1,0,3,23,2,-1,1,-1
1533863343433588,0,-3,-3,-27,0,-3,-2,-1
1533863343456527,0,-1,-2,2,4,-1,-2,-1
1533863343456527,1,0,3,-18,-8,3,0,-1
1533863343457521,-3,-3,-2,18,-1,-4,-2,-2
1533863343457521,-3,-3,-5,0,0,0,-3,2
1533863343479467,1,0,2,-21,2,2,0,0
1533863343479467,-3,-1,-5,13,-4,-3,-1,-1
1533863343480460,-2,-3,-3,-8,-8,-1,-3,-2
1533863343480460,-2,-1,-1,3,1,-2,-1,-3
1533863343485449,-1,-2,-1,11,1,-3,-1,-1
1533863343485449,0,1,3,-16,7,1,-1,0
1533863343493440,1,1,1,8,1,2,0,0
1533863343493440,-1,1,-1,5,5,0,-1,0
1533863343509392,-1,-2,-4,-19,-7,-2,-3,-1
1533863343509392,-1,-2,1,15,-7,-2,-2,-2
1533863343509392,-1,0,-2,-22,5,1,-2,-2
1533863343509392,0,-1,-2,6,-8,-1,-1,-3
1533863343532324,0,0,-3,-6,5,-3,0,-1
1533863343532324,-3,-3,-3,19,1,-1,0,1
1533863343532324,-3,-2,1,-3,3,0,1,-1
1533863343532324,0,1,1,6,-8,-1,-1,2
1533863343545286,-2,-4,-4,-14,-4,-1,-1,-2
1533863343545286,-2,-2,-3,0,-3,-1,-1,-1
1533863343554265,-1,1,1,1,1,1,0,0
1533863343554265,0,0,3,-8,4,-1,-1,-1
1533863343569222,-1,-1,-1,26,-3,-1,-1,-1
1533863343569222,-1,-2,-1,2,0,1,0,0
1533863343569222,-1,-1,-4,-34,-3,-3,-2,-2
1533863343569222,-3,-5,-3,26,10,0,-3,-2
1533863343592164,-2,0,-3,18,-16,-4,-1,-2
1533863343592164,1,0,-1,-12,10,2,-1,0
1533863343593159,-3,-3,-3,9,-1,0,0,-1
1533863343593159,-1,-2,-4,-10,-8,-4,-1,-2
1533863343606126,0,1,1,5,7,1,1,-1
1533863343606126,0,1,0,-12,1,-2,-1,0
1533863343614105,0,-2,-1,15,-1,-2,-1,-1
1533863343614105,-4,-1,-1,-15,-7,-2,0,-2
1533863343629082,-2,-2,2,13,2,-2,-2,-1
1533863343629082,-3,-1,-2,-2,-5,-5,-2,-3
1533863343630066,0,1,-1,-20,-6,1,0,-2
1533863343630066,0,-1,0,-12,2,-2,-1,0
1533863343658982,0,0,-2,-11,2,1,0,2
1533863343658982,0,0,0,-6,6,0,-1,-1
1533863343659980,0,-1,0,8,-11,-3,-1,-2
1533863343659980,1,0,1,3,-2,-1,-2,-1
1533863343665968,-1,-1,-3,3,-4,-1,-2,0
1533863343665968,-3,-5,-4,-6,1,1,-2,-1
1533863343673942,0,0,3,22,3,1,0,2
1533863343673942,0,1,2,-13,-2,-1,1,-1
1533863343688902,-1,-1,-1,-20,1,0,0,-1
1533863343688902,-2,-3,-3,16,-1,-1,0,-3
1533863343689899,-2,-1,2,16,2,0,-2,-1
1533863343689899,-1,-1,-5,-32,-9,-3,0,1
1533863343711841,-2,-4,-1,-15,4,-2,-1,-1
1533863343711841,-1,0,-1,-1,2,-3,-1,0
1533863343712838,-2,0,-1,2,-12,-2,-1,0
1533863343712838,-3,0,-4,0,8,0,-1,0
1533863343734779,0,-1,1,9,0,0,0,-2
1533863343734779,-1,1,1,-3,-5,1,0,-1
1533863343735786,-2,-2,-2,-14,7,-1,-4,-1
1533863343735786,-2,-4,-3,-3,-8,-4,-4,-3
1533863343748745,-2,-2,-1,9,-4,0,-2,-1
1533863343748745,-2,-3,-2,3,-3,-2,-2,-2
1533863343749740,1,-2,1,-7,1,-3,1,-1
1533863343749740,0,-2,0,6,0,1,1,-1
1533863343771684,-1,1,-1,3,3,0,1,-1
1533863343771684,-2,0,1,8,-1,-3,0,-2
1533863343772684,-1,0,-6,-29,5,1,-1,-2
1533863343772684,0,1,-1,16,-5,0,0,0
1533863343802604,-1,-1,-2,6,-8,-3,-1,-3
1533863343802604,-1,0,-3,-21,-8,1,-2,0
1533863343802604,-3,-2,-2,5,-1,-1,-2,0
1533863343802604,-1,-3,0,2,7,1,-2,-2
1533863343808585,-1,-1,0,3,1,-1,-1,-2
1533863343808585,-1,-2,-2,-5,-2,-3,-2,-1
1533863343809580,-1,1,1,-2,1,-1,-1,-2
1533863343809580,-1,-2,-2,3,-9,0,-4,0
1533863343832539,0,-2,-2,-2,-1,-2,0,0
1533863343832539,1,0,-1,-5,0,-2,1,0
1533863343832539,-3,-2,-3,-2,-1,-2,0,0
1533863343832539,-1,-1,-1,-3,0,-1,1,0
1533863343854462,-2,1,1,10,1,0,0,0
1533863343854462,-3,-3,-2,-11,9,0,-2,-1
1533863343855457,0,1,1,6,-21,-3,1,0
1533863343855457,-1,0,-2,-11,0,-3,0,-3
1533863343868422,0,-2,1,6,0,-2,-3,-3
1533863343868422,0,-1,-3,-8,-1,1,-1,-1
1533863343869432,0,-3,-3,-10,-2,1,0,-1
1533863343869432,-1,-1,0,-6,0,1,-3,-1
1533863343892361,1,-2,-2,-4,0,0,-2,-1
1533863343892361,1,1,-1,4,2,-3,-2,-3
1533863343892361,-1,-1,0,1,0,-3,-1,-1
1533863343892361,-2,-4,-4,15,-3,-4,-4,-2
1533863343914302,-1,-1,-2,-8,4,-1,0,1
1533863343914302,-1,2,-3,-3,-16,-4,-2,0
1533863343916294,0,-1,0,5,2,1,2,-1
1533863343916294,0,2,3,18,7,1,0,0
1533863343929260,0,-2,-3,-30,-4,0,-2,-1
1533863343929260,-4,-5,-5,11,0,1,-1,-2
1533863343929260,-1,-2,-4,-4,0,-2,-2,-2
1533863343929260,-2,2,1,-7,-5,1,-1,0
1533863343952532,-3,-2,-2,35,1,-4,0,0
1533863343952532,0,3,2,-18,3,0,2,1
1533863343953372,-2,-1,-2,17,-2,-3,-2,1
1533863343953372,-1,-2,-2,-4,-2,-2,0,-4
1533863343974319,-2,0,0,-18,-1,-1,1,1
1533863343974319,2,-2,1,6,4,0,-2,0
1533863343975313,-1,-1,1,-4,-7,-1,-1,-1
1533863343975313,2,0,-3,-7,-1,-2,0,0
1533863343989279,-2,0,1,28,-6,-4,-2,-3
1533863343989279,-2,-3,-8,-37,-4,-2,-2,-2
1533863343989279,0,0,1,3,8,-1,-1,-2
1533863343989279,-2,-4,-5,-12,-6,-2,-2,-1
1533863344012214,0,-1,1,-2,-4,0,-2,-1
1533863344012214,-2,-2,1,13,-4,-5,-1,0
1533863344013211,1,0,0,-4,2,0,-1,-1
1533863344013211,-3,0,-3,0,-1,-2,-2,-2
1533863344034159,-1,1,-1,-3,1,0,1,0
1533863344034159,-1,0,1,6,-5,-1,-1,-3
1533863344035153,-1,-1,-2,3,1,-1,0,-1
1533863344035153,-3,-3,2,10,9,0,-1,-2
1533863344049117,-1,-2,-3,-14,-11,-1,-2,-2
1533863344049117,0,-4,-2,2,-8,0,-2,0
1533863344050112,0,0,1,3,0,-2,0,-1
1533863344050112,2,0,-3,-7,-1,-4,-1,1
1533863344072137,-2,-4,-6,-6,1,-2,-2,-1
1533863344072137,-3,-2,-3,11,-7,-3,-2,1
1533863344073080,-1,-1,-2,-2,1,1,-1,-1
1533863344073080,0,0,1,-6,-4,-3,0,-1
1533863344094993,0,1,0,-4,10,1,-1,-2
1533863344094993,-1,0,0,0,-2,-1,-1,0
1533863344094993,-4,-3,-3,7,1,1,-2,0
1533863344094993,0,-2,0,8,7,-1,0,0
1533863344108959,-1,-1,-1,-8,-19,-5,-1,-1
1533863344108959,-1,0,1,0,1,-1,-1,0
1533863344109953,-1,0,-1,-5,0,-1,-1,-2
1533863344109953,1,0,-1,0,-4,0,1,-2
1533863344131897,-1,0,-4,4,7,0,1,-2
1533863344131897,-1,1,0,-1,3,-2,-2,-3
1533863344132892,1,-2,2,-8,-1,0,0,-2
1533863344132892,0,-2,0,11,-2,2,2,-2
1533863344155013,-2,-2,0,4,11,-2,0,0
1533863344155013,-4,-4,-5,2,-4,-3,-1,-2
1533863344155013,-3,0,-3,-7,-6,-4,-2,-3
1533863344155013,-3,0,0,-12,-4,-1,-2,-1
1533863344167802,-1,2,0,-4,-2,-1,-2,0
1533863344167802,2,4,2,3,12,4,3,1
1533863344176778,-2,-6,-1,20,6,2,-2,2
1533863344176778,-4,-2,-7,-5,-3,-2,-1,-1
1533863344191734,-3,-2,-3,6,-3,-1,-3,-1
1533863344191734,-1,-2,0,-12,1,-1,-1,-2
1533863344193729,-2,0,-3,-4,-12,-3,-2,-1
1533863344193729,0,0,0,-9,-10,-2,0,-2
1533863344214676,1,1,-3,6,12,1,-2,-2
1533863344214676,1,-1,0,-20,-3,2,0,1
1533863344215670,-6,-4,-7,23,-2,-5,-3,-2
1533863344215670,-3,-2,0,-7,-4,-1,0,-1
1533863344228636,0,-2,2,3,3,-3,1,0
1533863344228636,0,-1,-2,1,-7,-3,-3,-1
1533863344244593,1,0,1,-6,5,2,1,-2
1533863344244593,-2,-3,-4,-12,-2,-3,-2,-3
1533863344251578,-1,-1,1,-15,-5,0,-1,-1
1533863344251578,-4,-3,-3,-3,-8,-3,-1,-3
1533863344253569,1,-1,1,0,1,0,0,0
1533863344253569,-1,1,-1,1,2,-1,0,0
1533863344274690,0,-2,-1,-5,-3,0,-1,-1
1533863344274690,-3,-2,-1,7,-1,-5,-2,-1
1533863344276508,-1,-1,-1,-7,-2,-4,-2,-1
1533863344276508,-2,-1,2,19,4,2,-1,1
1533863344288483,-2,-3,-4,-37,-8,-4,-2,-2
1533863344288483,-2,0,-2,5,-2,-1,-1,-2
1533863344297472,-2,-1,-2,1,2,1,-1,-1
1533863344297472,-1,-2,-2,9,1,-3,-1,-1
1533863344312422,-1,-2,3,19,-2,2,0,0
1533863344312422,0,0,-2,-16,4,1,1,-1
1533863344313411,0,-1,-3,-6,-11,-2,0,-2
1533863344313411,2,0,2,2,1,-1,0,-1
1533863344334355,-1,2,-2,-17,-1,-2,-1,0
1533863344334355,-1,-2,-2,23,7,0,-3,-1
1533863344336348,-1,0,4,20,3,-2,-4,-2
1533863344336348,-2,-1,-5,-26,-2,-2,-2,0
1533863344357291,1,0,3,21,6,-1,-2,0
1533863344357291,-3,-5,-10,-29,-17,-6,-3,-2
1533863344358289,-2,-2,-1,-5,4,-1,-1,-1
1533863344358289,1,-1,1,-8,-7,1,1,0
1533863344372251,-2,-2,-3,9,-18,-6,-2,-3
1533863344372251,-1,0,1,9,0,1,0,0
1533863344373261,-2,-2,-3,9,-2,0,-2,-1
1533863344373261,-1,-2,-2,-19,0,-1,-1,-2
1533863344394195,0,-2,-4,-23,1,-1,1,0
1533863344394195,0,-1,4,32,5,-1,1,-1
1533863344396192,-3,-2,-2,-34,-5,-2,-1,0
1533863344396192,1,0,-2,-5,-5,2,-2,-1
1533863344408304,-4,-3,-5,14,-9,-2,-2,-2
1533863344408304,-2,1,1,3,-1,-1,-1,0
1533863344417135,1,0,2,1,11,1,1,-1
1533863344417135,0,1,0,-2,-1,-2,-3,-1
1533863344432092,0,-1,1,0,6,1,0,-1
