1532065836505,0,-8,2,-6,0,-1,-8,1
1532065836510,-2,7,-8,5,-3,1,0,1
1532065836515,-2,-15,-13,-3,1,-5,-10,-3
1532065836520,-3,3,-2,-2,1,3,3,-1
1532065836525,-1,-4,6,-3,-15,-2,1,-1
1532065836530,-1,2,-4,-3,-1,-3,-5,-2
1532065836535,1,4,-18,-6,-3,0,0,-1
1532065836540,0,-2,5,-2,9,1,-2,4
1532065836545,-2,0,-8,2,-7,-2,-2,2
1532065836550,0,-2,0,-4,-1,0,9,0
1532065836555,-1,2,4,3,-1,-2,1,0
1532065836560,1,4,-12,-3,-7,0,2,-3
1532065836565,-1,-5,12,2,3,1,1,-4
1532065836570,-3,-7,0,-7,0,-4,-5,1
1532065836575,-1,0,0,11,9,3,6,-1
1532065836580,-1,4,-3,0,-1,1,0,-1
1532065836585,1,3,4,-17,-3,-2,-4,-1
1532065836590,1,1,2,3,1,-3,-4,-2
1532065836595,-4,-3,-3,-7,-11,-1,-2,-2
1532065836600,0,-10,-11,8,-4,-4,-5,-2
1532065836605,-2,3,13,-3,40,0,-4,-4
1532065836610,1,-2,-11,14,-14,3,0,1
1532065836615,-1,8,16,-24,-23,0,7,1
1532065836620,0,-3,-30,-16,-11,-1,-4,-2
1532065836625,2,2,7,3,6,-2,4,3
1532065836630,0,-10,2,9,20,3,-3,-2
1532065836635,0,6,3,7,5,-3,4,-2
1532065836640,-1,-8,15,9,5,-1,-5,-1
1532065836645,0,5,1,6,-9,0,3,-1
1532065836650,-2,6,-9,-14,-14,-3,-8,1
1532065836655,0,-9,-1,-1,-12,-1,-1,1
1532065836660,-1,0,-2,-6,2,-2,-6,-2
1532065836665,0,0,-12,5,-4,-2,-5,-2
1532065836670,-1,-6,12,4,0,4,3,0
1532065836675,0,2,0,-5,4,-4,-7,0
1532065836680,0,4,8,-1,5,-2,4,1
1532065836685,-1,-7,-5,2,-9,-3,-6,3
1532065836690,0,1,-9,-6,-1,-1,-2,-6
1532065836695,0,-7,8,9,13,4,-7,-2
1532065836700,-2,8,1,-5,-3,-8,-6,-2
1532065836705,1,-11,-8,-5,-22,2,7,0
1532065836710,0,1,-12,-3,10,-1,-11,0
1532065836715,1,20,1,12,18,8,8,1
1532065836720,-1,-12,1,-14,0,2,-2,-1
1532065836725,-3,-9,-6,-7,12,-4,-3,-1
1532065836730,-3,-11,-28,20,-7,-3,-1,-5
1532065836735,-2,-4,13,-3,-15,-5,-4,0
1532065836740,-1,10,-3,1,-7,1,-6,1
1532065836745,0,2,-27,-1,-2,-1,-7,-1
1532065836750,-2,-3,22,1,8,0,7,2
1532065836755,0,-2,-10,-2,0,-4,-3,0
1532065836760,-1,-1,2,3,-2,0,3,-2
1532065836765,-1,-3,3,5,1,1,-3,0
1532065836770,0,3,1,-11,-4,-3,-2,-1
1532065836775,-2,-6,-6,-1,-3,0,-7,3
1532065836780,-2,-1,-10,-7,-3,0,14,1
1532065836785,-2,1,-5,-4,-2,-1,-2,-4
1532065836790,-2,2,7,-5,-2,-1,1,-1
1532065836795,0,-4,-2,-1,-2,-4,-2,-1
1532065836800,2,-2,-9,1,7,4,0,1
1532065836805,-3,-1,6,3,-4,-1,-1,-2
1532065836810,-1,-3,8,-3,0,1,0,1
1532065836815,-1,-4,-4,2,-1,-4,-2,-1
1532065836820,0,2,2,4,2,0,-1,-2
1532065836825,1,6,-6,-7,-18,-2,0,0
1532065836830,-1,-6,6,-6,-5,-2,-1,-1
1532065836835,-1,2,-2,-16,0,0,1,1
1532065836840,-2,1,3,3,2,0,-5,-1
1532065836845,0,1,1,3,4,0,-2,-1
1532065836850,3,2,1,1,-3,-1,3,0
1532065836855,-1,0,-9,3,-1,-3,-3,-2
1532065836860,-1,-3,4,0,-1,-1,10,-1
1532065836865,0,8,11,3,3,-3,-3,-2
1532065836870,-2,-15,-9,-4,-3,-3,-4,2
1532065836875,1,0,0,1,0,-3,-12,-1
1532065836880,2,1,6,0,-4,0,6,2
1532065836885,-3,-3,4,1,3,4,5,-3
1532065836890,0,4,-2,-4,-1,-2,0,-2
1532065836895,-2,-5,-4,3,0,3,-1,-1
1532065836900,1,7,2,0,-3,-4,-3,-1
1532065836905,1,-10,-2,-3,-5,-4,-1,-2
1532065836910,-1,5,0,3,15,0,-1,1
1532065836915,-3,-3,0,-2,-13,4,4,0
1532065836920,-3,0,-1,0,-2,-1,-5,-5
1532065836925,-1,0,-6,-2,2,1,2,0
1532065836930,0,-2,0,-3,-3,-3,-1,-3
1532065836935,-4,4,-1,1,2,-3,-3,-6
1532065836940,0,-14,-2,0,-2,-1,-7,0
1532065836945,0,-1,-4,-2,1,-2,1,0
1532065836950,-1,3,1,2,0,1,11,-2
1532065836955,-1,-2,-5,2,4,0,-1,-1
1532065836960,-1,-2,0,1,1,-2,-9,-1
1532065836965,-1,2,10,-2,-4,0,0,0
1532065836970,-1,-1,-10,-11,-7,-3,-7,-1
1532065836975,0,0,0,3,6,-1,3,-2
1532065836980,-1,-3,-5,7,-2,0,4,0
1532065836985,0,-7,-20,-4,20,3,3,1
1532065836990,0,2,14,0,-16,-3,-4,1
1532065836995,2,-2,1,3,2,-1,1,1
1532065837000,-2,-2,-7,-2,3,-1,0,-2
1532065837005,1,2,4,-3,-7,-3,-8,-2
1532065837010,0,0,-9,0,5,1,2,2
1532065837015,-2,-3,3,-1,1,-1,0,-1
1532065837020,-1,1,14,3,-3,-3,-3,0
1532065837025,-2,-1,-4,2,1,0,-1,-1
1532065837030,0,-2,4,-1,10,1,-20,-3
1532065837035,0,4,-4,-6,-28,-3,10,-2
1532065837040,2,0,-4,2,0,2,-1,0
1532065837045,-3,-4,-4,-14,-16,-2,-1,-2
1532065837050,-1,-1,5,4,9,-1,-5,-1
1532065837055,0,-2,-6,-3,18,1,-4,0
1532065837060,-1,-6,-14,-2,-21,-5,-1,0
1532065837065,-2,-1,1,11,-1,1,1,1
1532065837070,-2,2,7,2,1,0,2,0
1532065837075,0,-1,-3,-1,7,-1,-3,-2
1532065837080,-1,4,7,-3,5,1,4,-3
1532065837085,2,-1,-1,3,0,-2,2,-4
1532065837090,-1,-3,-6,-18,-12,-4,9,-2
1532065837095,-1,-6,3,5,4,3,-2,-2
1532065837100,-2,-1,4,-4,4,1,1,0
1532065837105,1,-3,-4,1,-2,-1,2,-1
1532065837110,2,-2,-3,3,-1,0,3,1
1532065837115,0,-5,4,-2,-1,-2,2,2
1532065837120,-5,-6,-1,0,2,0,-4,-1
1532065837125,-10,-5,0,1,4,0,-3,-2
1532065837130,-19,-6,-3,2,-3,0,1,-2
1532065837135,-34,-5,-1,-1,-2,0,-4,-1
1532065837140,-28,0,0,-1,2,-1,0,1
1532065837145,-13,0,4,1,-3,-1,-1,1
1532065837150,3,1,-1,0,-4,-1,0,-1
1532065837155,14,0,-3,1,-4,-1,-1,-2
1532065837160,18,2,5,-2,0,0,-3,1
1532065837165,18,3,6,-2,-4,-1,-1,2
1532065837170,14,2,0,1,-3,-2,-3,0
1532065837175,17,2,-1,-1,-2,-1,-2,-2
1532065837180,13,0,-4,-1,-1,0,-2,-1
1532065837185,11,4,-1,0,0,-1,-1,-2
1532065837190,7,3,-4,-2,-1,0,-1,0
1532065837195,6,3,1,-2,-2,0,0,-1
1532065837200,6,2,0,-4,1,-2,0,0
1532065837205,2,-6,-7,1,-1,1,-2,-1
1532065837210,0,1,-3,-1,-1,0,-1,-3
1532065837215,1,1,-1,-1,-1,-3,0,-3
1532065837220,0,3,-2,-2,-1,-1,-1,-1
1532065837225,-1,3,0,-1,1,0,-1,-1
1532065837230,-3,-1,-3,0,-3,1,1,-1
1532065837235,-2,0,-2,-1,-1,-1,-1,0
1532065837240,-1,-1,1,1,-1,-2,-2,-1
1532065837245,-5,-1,0,-1,-1,-2,0,-2
1532065837250,-5,-3,-1,0,-2,-1,-1,0
1532065837255,-4,-2,0,0,-2,-2,0,1
1532065837260,-6,-3,-1,-2,-1,-1,0,-1
1532065837265,-6,-1,-1,-2,-1,-1,-1,-1
1532065837270,-5,0,-4,1,2,-3,-1,0
1532065837275,-5,-4,-1,0,-1,-1,0,-1
1532065837280,-1,-2,0,-1,1,-1,-1,-1
1532065837285,-3,-2,0,0,1,-1,0,-1
1532065837290,-1,-2,0,-3,0,1,-2,0
1532065837295,-1,-2,0,-2,-1,-2,1,-1
1532065837300,-2,-4,-1,-1,-1,0,1,-1
1532065837305,1,-1,-1,-1,0,0,-1,1
1532065837310,0,-1,0,-1,-2,0,1,-1
1532065837315,1,-2,1,0,-1,-1,-2,-1
1532065837320,-1,0,-1,-1,0,0,-1,-1
1532065837325,2,-1,1,0,-1,0,-1,-2
1532065837330,0,-1,-3,1,-1,-1,1,0
1532065837335,1,-4,0,0,1,-1,-2,0
1532065837340,-1,-2,0,-2,0,-1,0,0
1532065837345,0,-1,1,-1,-3,-1,-2,1
1532065837350,-2,0,-1,-1,-2,-2,-1,-1
1532065837355,-1,-1,-2,-1,-1,0,-1,-1
1532065837360,-2,-1,0,-1,0,-1,-2,-2
1532065837365,-1,-1,-3,-2,0,-2,1,-1
1532065837370,0,-2,-1,0,0,1,-1,0
1532065837375,-2,-1,-2,-2,-1,1,-3,-1
1532065837380,-2,1,-1,-3,-1,-1,0,0
1532065837385,0,-1,0,-1,-2,-1,-2,-1
1532065837390,-4,0,-1,-2,-1,-2,-1,-1
1532065837395,-1,-1,-1,-1,-3,0,-2,-2
1532065837400,-1,0,-2,0,-2,0,-1,-1
1532065837405,-2,0,0,-1,-1,1,-1,1
1532065837410,-1,-1,-2,-2,-1,-1,-1,0
1532065837415,-2,0,-1,-1,0,0,-1,-2
1532065837420,-2,-1,0,0,0,0,-1,-2
1532065837425,1,0,-1,-1,-2,-1,-1,-3
1532065837430,-1,-1,0,0,-1,-2,-2,0
1532065837435,-1,0,-2,0,0,-1,0,0
1532065837440,-2,-2,-1,0,0,-1,-1,0
1532065837445,-2,-1,0,-2,0,-1,0,0
1532065837450,-2,-1,-1,-3,0,0,-2,-2
1532065837455,0,-1,-1,0,0,-1,-1,-2
1532065837460,0,0,-1,-1,-2,0,0,-1
1532065837465,0,0,-1,-1,-1,-2,0,-1
1532065837470,-1,-1,0,0,-1,-2,0,0
1532065837475,0,-1,-1,-2,-1,-2,0,-4
1532065837480,-2,0,-1,-2,2,-1,-2,1
1532065837485,-1,-1,-2,0,-2,-1,0,-2
1532065837490,-1,0,0,-3,-1,-1,0,1
1532065837495,-1,-1,-1,-1,0,-1,-2,-1
1532065837500,-1,0,-2,0,-1,0,0,-2
1532065837505,-1,-2,0,-1,-1,0,0,-1
1532065837510,1,0,-1,-1,-1,0,0,-2
1532065837515,-1,-2,0,-2,-1,-1,0,0
1532065837520,1,-1,-1,-1,-1,0,-2,-1
1532065837525,-1,0,0,-1,-1,0,-1,-1
1532065837530,0,0,0,1,0,-1,-1,-1
1532065837535,0,1,-1,-1,-1,-2,-1,-1
1532065837540,0,-2,0,-3,0,-1,-1,-1
1532065837545,-1,-2,-3,-2,-1,-1,-1,1
1532065837550,-1,-1,-1,0,0,0,-3,0
1532065837555,0,0,0,0,-1,-1,-1,2
1532065837560,-1,-1,-2,-1,-1,-2,-1,-1
1532065837565,-2,-1,0,-1,1,-1,-2,0
1532065837570,0,-2,0,-1,-1,0,0,-1
1532065837575,-2,1,-1,0,-1,0,1,0
1532065837580,-1,0,-3,0,-1,-2,-2,0
1532065837585,-1,0,0,0,0,-1,-2,0
1532065837590,-2,1,-2,0,-2,-3,0,-1
1532065837595,-2,-1,0,0,0,1,-1,0
1532065837600,0,-2,-1,-1,-2,-1,0,0
1532065837605,-1,-1,-1,1,0,0,-1,0
1532065837610,0,0,-1,-2,-3,0,-1,-2
1532065837615,1,-1,-1,-1,0,0,0,-1
1532065837620,-2,-1,2,1,-2,0,1,-1
1532065837625,-1,-1,1,-1,-2,-1,0,-1
1532065837630,-1,-1,0,1,-1,2,-1,-3
1532065837635,-1,0,0,-2,-3,-2,-8,-2
1532065837640,0,-2,0,-1,-2,1,3,1
1532065837645,-1,-1,-1,-3,-6,-2,1,-1
1532065837650,-3,-4,-9,2,0,0,6,3
1532065837655,-1,3,18,0,3,-2,-2,-1
1532065837660,-2,-2,-6,0,-7,-1,-9,-4
1532065837665,0,-2,-11,-9,-14,-2,7,2
1532065837670,0,1,9,-2,3,4,1,-1
1532065837675,1,3,29,5,6,4,1,2
1532065837680,-1,4,-48,-4,-1,-3,1,0
1532065837685,-4,-20,-9,-10,-7,-3,-2,-3
1532065837690,3,11,6,5,7,2,1,4
1532065837695,2,15,41,4,-3,1,-5,0
1532065837700,-2,-11,26,19,46,1,-3,-4
1532065837705,-1,1,-20,-18,-28,-3,5,0
1532065837710,-3,-6,-3,-4,-4,-2,-9,-3
1532065837715,-1,5,11,5,1,2,5,1
1532065837720,-3,-7,-19,-14,-43,-7,-11,0
1532065837725,-1,-1,-20,8,17,-1,7,-1
1532065837730,-1,-7,13,4,11,1,-4,-2
1532065837735,2,3,9,-2,0,-2,-1,-2
1532065837740,1,1,-10,-8,-3,-2,2,0
1532065837745,1,-3,-12,0,-4,0,5,0
1532065837750,1,-4,1,-1,-8,-2,-4,-1
1532065837755,1,6,1,4,7,2,-3,2
1532065837760,-4,-2,-10,2,3,2,8,-3
1532065837765,-1,-4,-4,-1,-3,-1,-7,-1
1532065837770,-2,-2,-2,-2,2,-4,-1,-2
1532065837775,0,-1,-3,-5,-1,1,-5,-1
1532065837780,0,-2,-3,-1,-2,-2,-4,0
1532065837785,-1,-1,-4,1,2,-3,-5,-2
1532065837790,-2,-4,-1,0,9,7,5,3
1532065837795,-1,1,-5,-2,-16,-5,-2,-1
1532065837800,0,-3,-6,0,1,-2,-2,0
1532065837805,1,-2,-7,0,2,-2,-2,-2
1532065837810,-1,-1,0,-6,-6,-2,-2,-1
1532065837815,-1,0,6,-3,1,0,-1,-3
1532065837820,1,0,0,2,4,0,-2,-1
1532065837825,-4,-3,-1,-2,5,-1,6,-2
1532065837830,-5,-2,5,1,6,1,1,0
1532065837835,-5,-1,2,1,-6,-2,-2,-1
1532065837840,-3,0,-1,-14,-14,0,0,-1
1532065837845,-3,-6,-3,-1,-3,-1,-4,-2
1532065837850,0,1,3,-1,-7,-3,2,-3
1532065837855,-2,-1,4,5,7,0,-2,0
1532065837860,-1,0,-4,-1,9,-1,-8,-2
1532065837865,1,1,1,1,-3,1,1,1
1532065837870,-1,-1,-3,-5,-3,-4,4,-1
1532065837875,0,0,5,2,3,0,4,-1
1532065837880,0,1,-2,6,1,-2,0,-3
1532065837885,-1,-1,-2,-1,1,0,-2,-1
1532065837890,1,-2,-4,0,-5,-3,-4,-2
1532065837895,-1,0,-3,0,4,4,-4,0
1532065837900,-1,1,-3,4,2,1,4,-1
1532065837905,1,0,-4,1,1,-2,-3,-1
1532065837910,0,-1,-1,-1,-2,1,-5,1
1532065837915,1,7,-2,-4,-3,2,11,4
1532065837920,1,-6,-1,5,10,-1,0,-1
1532065837925,-1,-1,-4,-5,-11,-3,-1,1
1532065837930,-4,-3,0,-1,-5,-2,-18,-6
1532065837935,0,-2,2,0,-5,-2,-3,-3
1532065837940,1,3,0,4,-2,-2,2,0
1532065837945,1,2,-6,-17,0,-1,-1,1
1532065837950,-3,-2,0,0,9,-1,3,-4
1532065837955,-3,-14,0,-6,-10,0,-1,-3
1532065837960,-2,2,3,5,1,0,-2,-2
1532065837965,-4,1,-1,2,1,2,6,1
1532065837970,2,3,-4,1,-6,-3,1,0
1532065837975,-2,7,1,-1,3,-4,-6,-4
1532065837980,-1,-15,-2,5,4,1,2,3
1532065837985,-3,-9,-9,-6,4,1,2,-2
1532065837990,2,25,-1,0,-4,-1,1,1
1532065837995,-2,-16,-8,2,7,0,-1,1
1532065838000,-1,1,16,-3,-7,-2,-4,1
1532065838005,0,-4,1,3,2,-1,-15,-5
1532065838010,2,-2,-12,2,4,1,2,3
1532065838015,-1,-12,-2,-7,-6,-1,4,1
1532065838020,0,8,-10,-6,-1,-2,1,-2
1532065838025,-1,8,3,5,-2,-3,-7,0
1532065838030,-4,-68,-4,-4,1,1,8,1
1532065838035,-1,23,9,7,-1,1,-4,-3
1532065838040,-2,-4,-5,-5,2,1,6,0
1532065838045,-1,8,0,-7,-1,0,1,0
1532065838050,3,13,6,-3,-4,-1,-1,0
1532065838055,-3,-9,-12,-5,-4,-3,4,-1
1532065838060,0,3,-3,10,-2,-2,0,2
1532065838065,1,10,-6,-6,0,3,12,0
1532065838070,-5,-1,7,13,-5,-4,-5,3
1532065838075,0,-8,7,6,6,-1,3,-3
1532065838080,0,8,-6,-9,2,1,-2,-3
1532065838085,0,-3,0,1,-1,1,5,1
1532065838090,0,1,5,-3,-5,-3,-9,-5
1532065838095,0,17,-26,-6,-2,0,2,-1
1532065838100,-1,-26,31,5,0,1,-3,1
1532065838105,-2,2,-2,6,1,0,-4,-2
1532065838110,-3,0,-3,-6,1,1,-9,-2
1532065838115,-2,-4,-2,-2,-2,0,-2,-2
1532065838120,0,23,-11,-7,-3,-2,-2,-4
1532065838125,-1,-10,15,1,-3,-2,-5,1
1532065838130,-3,1,-19,-3,-1,0,0,-3
1532065838135,4,15,11,-1,2,2,2,2
1532065838140,3,-10,-6,-3,-2,-1,2,-3
1532065838145,-4,-1,17,3,0,0,-3,-4
1532065838150,-1,1,0,-1,-2,-1,3,-6
1532065838155,0,-4,-10,-6,-1,-1,0,-3
1532065838160,-2,7,13,4,3,2,5,3
1532065838165,1,-8,-14,3,-4,-3,-2,1
1532065838170,5,10,-19,-1,0,2,-1,-1
1532065838175,-8,-28,25,-2,-5,-4,-15,-1
1532065838180,-5,-17,-23,-1,1,1,-3,0
1532065838185,0,10,7,-2,-1,-4,-5,-1
1532065838190,1,0,1,-2,-3,-1,20,6
1532065838195,0,8,2,6,4,2,-3,-3
1532065838200,-3,1,-6,-7,-2,-2,0,-2
1532065838205,0,-8,5,1,-1,-1,-1,-1
1532065838210,-1,5,-12,-1,0,1,9,1
1532065838215,3,9,4,-2,-1,-1,-7,1
1532065838220,-1,2,6,0,-1,-2,-3,-5
1532065838225,2,13,-7,2,0,2,9,3
1532065838230,0,-22,9,-3,-3,0,5,6
1532065838235,1,17,-4,3,7,-4,-38,-10
1532065838240,1,3,-2,6,7,-2,2,-5
1532065838245,0,23,-5,-9,-25,-4,-3,-2
1532065838250,-2,-31,7,-2,-4,1,0,1
1532065838255,-2,0,-2,-2,-4,-1,13,2
1532065838260,8,6,1,-1,5,2,-19,2
1532065838265,-4,-15,-22,0,3,0,4,-3
1532065838270,-3,27,40,4,-4,-5,-14,-5
1532065838275,5,5,3,5,1,1,8,8
1532065838280,-8,-23,-33,-11,0,3,16,-6
1532065838285,3,-9,22,9,10,2,-1,1
1532065838290,-1,-1,-11,-11,0,0,-4,-1
1532065838295,-3,23,-1,1,-2,-1,9,1
1532065838300,2,-5,8,0,-11,-3,-2,1
1532065838305,-3,-33,-13,-5,0,1,10,7
1532065838310,-2,22,10,7,5,-3,-18,-6
1532065838315,0,-17,-3,-2,0,-2,2,-5
1532065838320,2,20,1,-3,-11,-3,-4,1
1532065838325,-1,-19,-8,1,5,1,4,-2
1532065838330,2,13,10,-1,4,-1,-13,-3
1532065838335,-3,-19,-7,-4,-1,-1,4,3
1532065838340,0,18,12,5,4,-3,-1,-2
1532065838345,-1,-10,11,4,4,-1,0,-1
1532065838350,-4,-7,-40,-12,-24,-4,1,-3
1532065838355,0,1,22,0,-4,0,3,-1
1532065838360,2,1,-33,-13,-2,-2,5,1
1532065838365,-3,-23,15,6,7,-4,-22,-3
1532065838370,0,-8,-6,-1,3,0,10,4
1532065838375,-3,-23,-14,-3,-4,2,7,-1
1532065838380,-4,12,11,4,0,-2,-4,-4
1532065838385,4,21,-14,-8,-4,-1,-4,-2
1532065838390,1,1,18,4,2,1,5,-1
1532065838395,-3,8,-8,-2,-1,-2,-2,-1
1532065838400,1,8,5,-1,-1,-2,4,-2
1532065838405,-2,-31,-11,-4,-4,0,-13,2
1532065838410,-5,12,13,7,1,-2,0,-5
1532065838415,3,12,-8,-4,1,1,-11,-5
1532065838420,-7,-9,-5,-2,-2,0,5,1
1532065838425,3,32,-6,0,-1,1,9,-7
1532065838430,-1,-28,6,1,2,0,-5,-2
1532065838435,3,-2,-33,1,-2,-2,-2,-1
1532065838440,-5,-11,36,-1,-4,1,-3,-3
1532065838445,1,13,-2,0,-1,-3,1,6
1532065838450,-1,2,-5,-3,0,-2,-6,1
1532065838455,-1,5,2,2,3,0,10,2
1532065838460,-1,-26,-25,-4,-1,-1,-1,0
1532065838465,-2,24,27,5,-1,2,1,-1
1532065838470,-4,-34,-8,-4,-2,0,2,0
1532065838475,-8,-6,-8,-3,-5,-2,-6,-5
1532065838480,3,10,14,2,3,0,-5,3
1532065838485,-2,-10,1,-1,-2,0,4,-3
1532065838490,0,27,-12,-3,1,0,5,-3
1532065838495,2,-33,6,0,3,0,0,1
1532065838500,0,-7,4,2,-2,-1,-10,0
1532065838505,-2,9,3,0,-2,0,15,-6
1532065838510,3,15,2,1,5,1,-1,-1
1532065838515,1,-3,16,-1,0,0,-3,2
1532065838520,0,-6,-17,-1,-1,0,1,2
1532065838525,1,2,11,2,-2,-3,-8,1
1532065838530,-1,-4,-33,-10,-4,-2,14,4
1532065838535,0,-3,36,4,0,-1,-6,-4
1532065838540,-3,-12,-3,0,0,-1,-1,3
1532065838545,0,3,-6,-3,-2,-4,-24,-4
1532065838550,0,0,6,1,-1,0,14,6
1532065838555,10,30,-8,-2,1,0,1,6
1532065838560,-10,-33,0,0,-2,-1,-4,-2
1532065838565,-6,-20,-16,-5,-1,-2,-7,-5
1532065838570,0,21,32,5,0,-1,-8,-4
1532065838575,-4,-22,-17,-5,-2,-1,-2,-6
1532065838580,3,8,3,1,0,2,10,3
1532065838585,-1,0,-7,-2,2,-1,11,4
1532065838590,1,-5,-9,0,0,-1,-3,-2
1532065838595,2,13,4,-1,-2,-2,1,1
1532065838600,2,14,3,-1,0,0,0,0
1532065838605,-2,-21,-6,0,1,2,9,-6
1532065838610,0,2,2,2,1,-1,-1,3
1532065838615,1,10,3,1,1,0,-11,-2
1532065838620,-4,-14,-16,-11,-8,-6,6,-3
1532065838625,-1,4,3,1,1,0,-10,0
1532065838630,1,1,2,-1,-3,-2,-7,-1
1532065838635,-3,0,1,2,1,0,10,5
1532065838640,-2,-11,-8,0,-3,0,-5,-5
1532065838645,2,15,1,-1,3,2,-1,0
1532065838650,-3,-18,0,-5,-5,-2,-1,-3
1532065838655,-6,2,-11,-3,-1,-1,4,-6
1532065838660,6,11,2,3,2,1,-15,-1
1532065838665,-6,-10,-10,-6,-2,-3,2,-1
1532065838670,2,6,19,7,2,0,0,4
1532065838675,-1,-13,-1,-6,-4,0,11,-3
1532065838680,-2,12,-5,-2,-1,-1,-1,-5
1532065838685,-1,-9,13,-3,-4,-3,-9,0
1532065838690,2,3,-20,1,1,-1,-6,-3
1532065838695,-2,-4,22,4,-1,-2,-4,0
1532065838700,-2,-4,9,-2,-2,0,0,0
1532065838705,1,6,-8,0,-2,-1,8,5
1532065838710,-2,-5,5,3,2,1,-6,-5
1532065838715,2,7,-8,0,-2,-2,0,0
1532065838720,3,17,-3,0,-2,0,-2,0
1532065838725,2,7,3,-1,-5,-1,3,-2
1532065838730,-5,-15,-10,-5,-1,0,-4,-1
1532065838735,3,5,19,4,0,0,-2,3
1532065838740,2,24,-17,-5,-2,-3,6,2
1532065838745,-3,-23,17,3,1,-1,-11,-4
1532065838750,5,37,5,2,0,1,11,8
1532065838755,-5,-7,-11,-4,-2,-1,-4,-4
1532065838760,2,7,10,6,2,1,-1,-3
1532065838765,-1,14,-12,-7,-5,-4,-9,-2
1532065838770,2,-12,-9,-4,-4,-1,-7,-4
1532065838775,-1,4,-1,-1,-1,-1,0,0
1532065838780,1,-6,0,2,3,5,6,0
1532065838785,0,-11,-15,2,1,0,4,1
1532065838790,-1,-1,12,1,1,0,2,2
1532065838795,-2,6,-9,-5,-3,-3,-1,-1
1532065838800,-1,-20,1,0,-3,-4,-13,-4
1532065838805,-2,-15,-4,-1,-1,0,13,1
1532065838810,1,10,-1,0,4,4,6,-3
1532065838815,-1,-15,-6,-5,-16,-3,-2,-1
1532065838820,-4,6,-8,-2,-2,-2,-6,-3
1532065838825,1,15,13,2,0,-4,0,1
1532065838830,-1,-5,-1,-4,-2,-1,-15,-8
1532065838835,-2,-8,-10,0,6,2,-1,6
1532065838840,-4,-27,5,3,-2,-1,8,1
1532065838845,2,14,-9,-7,0,-2,-4,0
1532065838850,-3,-20,-12,0,2,-4,-1,-1
1532065838855,-1,9,8,0,4,0,-12,-5
1532065838860,0,4,3,3,2,1,12,3
1532065838865,-3,14,-9,-2,-3,-1,-10,-5
1532065838870,0,-14,-1,-3,-1,-1,1,-1
1532065838875,2,2,-4,-2,-2,-3,5,2
1532065838880,3,13,16,1,1,-2,-7,-2
1532065838885,-3,1,-5,2,4,2,6,-1
1532065838890,0,-21,-2,-4,-3,0,-1,2
1532065838895,0,-3,1,0,-1,0,-4,-5
1532065838900,-1,4,-3,-1,1,0,0,1
1532065838905,1,9,8,4,8,0,-2,-1
1532065838910,-4,-15,4,0,-1,-1,-4,-1
1532065838915,1,6,-16,-9,-21,-3,2,2
1532065838920,0,3,-1,-3,-5,-2,-4,-1
1532065838925,0,-13,4,1,-6,0,4,-1
1532065838930,-1,9,-16,-3,1,-2,9,-4
1532065838935,-2,-7,11,-1,11,1,-16,-1
1532065838940,-2,-4,-6,-5,-8,-3,8,7
1532065838945,1,0,0,-2,2,0,3,2
1532065838950,3,24,-14,0,0,-2,-9,-7
1532065838955,-6,-24,23,2,-1,1,10,0
1532065838960,-3,-21,-13,-3,-1,-1,-3,-4
1532065838965,-2,0,8,1,1,-1,-4,1
1532065838970,2,7,-3,-1,0,0,3,3
1532065838975,-1,4,-10,1,-1,0,-1,-2
1532065838980,-1,5,3,1,4,-1,-5,-1
1532065838985,-1,-6,-4,-3,-2,2,8,-2
1532065838990,-2,6,9,0,-5,-1,-5,-1
1532065838995,-1,4,-11,-2,0,-2,4,3
1532065839000,-2,-2,8,-1,-1,0,-1,-4
1532065839005,2,13,3,5,16,2,-7,0
1532065839010,-2,-15,2,-8,-9,0,7,1
1532065839015,-1,-4,6,6,-4,-2,-7,-2
1532065839020,-2,-6,14,-1,-1,-1,7,1
1532065839025,0,1,12,-3,-7,-4,-5,-1
1532065839030,-2,7,3,2,0,-3,-8,-5
1532065839035,-3,-9,-2,-4,-4,0,9,-3
1532065839040,7,17,-8,1,2,0,-2,0
1532065839045,-2,-12,-1,-2,-3,-1,3,0
1532065839050,-1,3,-3,-1,-5,-1,-2,-1
1532065839055,0,4,0,-2,0,-2,0,0
1532065839060,-5,-22,-12,0,5,3,8,2
1532065839065,-3,8,3,1,-6,-2,0,-3
1532065839070,-2,-2,-29,-8,-4,-1,-4,0
1532065839075,-1,-8,-1,4,8,2,1,0
1532065839080,1,14,16,-2,-5,-3,-4,2
1532065839085,-1,-7,-6,-1,-2,0,1,-2
1532065839090,0,-1,4,0,-5,-4,0,1
1532065839095,-3,-9,-11,-5,0,-1,-8,0
1532065839100,2,10,-12,-3,-5,-1,8,0
1532065839105,-4,-19,9,2,-5,0,-5,1
1532065839110,-1,9,6,2,5,2,2,-2
1532065839115,2,15,-3,-4,0,-1,3,1
1532065839120,-4,-35,8,7,18,0,-4,-4
1532065839125,1,8,-8,-2,-5,-2,-3,-2
1532065839130,-1,-9,5,3,-10,1,1,0
1532065839135,0,5,-10,-3,-2,-2,3,3
1532065839140,-3,16,9,-2,-5,1,-2,-2
1532065839145,5,1,6,0,10,0,0,2
1532065839150,-4,-31,3,-1,2,-1,5,4
1532065839155,1,7,10,-1,-5,-2,-18,-4
1532065839160,0,25,4,0,-1,0,1,-2
1532065839165,-5,-50,4,-2,-4,-2,-4,0
1532065839170,3,6,2,0,-3,-3,-10,2
1532065839175,2,-2,-10,1,2,2,3,-2
1532065839180,-4,-1,6,-2,-4,-2,-2,-1
1532065839185,-2,11,-14,-4,-4,-2,0,-3
1532065839190,-1,7,-2,0,0,-4,-5,0
1532065839195,-1,-14,-6,0,0,-2,0,-1
1532065839200,0,-3,-6,-4,-6,-2,-6,-2
1532065839205,-1,9,-8,-2,-1,0,2,-2
1532065839210,1,-7,9,7,3,2,2,-2
1532065839215,-2,-1,-7,-8,-6,-4,-1,-3
1532065839220,2,4,13,0,-6,-4,-9,1
1532065839225,-3,-1,0,-1,-2,-2,12,1
1532065839230,-1,12,-3,0,5,2,-1,-3
1532065839235,-1,-5,6,6,3,0,6,0
1532065839240,3,10,-1,2,-2,-1,-4,2
1532065839245,0,-9,-16,-6,-5,-3,-5,1
1532065839250,-4,6,4,-1,-3,-1,-5,-5
1532065839255,1,4,-3,1,1,0,7,2
1532065839260,-2,-36,-6,-1,2,0,-1,-4
1532065839265,1,22,3,2,2,0,-2,-2
1532065839270,-1,-7,-1,-3,-3,-3,-1,-2
1532065839275,-1,11,34,5,4,4,-2,4
1532065839280,-2,-24,-46,-10,-2,-2,-1,0
1532065839285,-4,-1,18,2,0,-2,-1,-1
1532065839290,5,27,-8,-2,0,1,-3,0
1532065839295,1,11,-6,-3,-1,-3,-10,-4
1532065839300,-4,-11,-2,-4,2,-1,0,-2
1532065839305,2,8,2,0,2,-1,4,3
1532065839310,-1,-10,-18,-2,-2,-1,-3,-3
1532065839315,-2,-7,18,3,1,1,11,2
1532065839320,0,5,-19,-1,0,1,7,-1
1532065839325,0,7,19,-3,-4,-1,-7,2
1532065839330,-3,-6,-2,1,2,-1,5,-1
1532065839335,-1,3,-10,-1,-4,-1,-4,0
1532065839340,1,9,6,0,-2,-1,1,3
1532065839345,0,-5,-5,4,4,1,6,1
1532065839350,-3,-15,2,-6,-1,-3,-7,-3
1532065839355,0,6,0,-4,-4,-1,-6,-4
1532065839360,2,0,8,3,3,2,1,1
1532065839365,-1,14,-9,1,3,0,1,-1
1532065839370,-2,-23,3,-2,-3,-4,-6,1
1532065839375,2,7,-2,0,-3,-2,-5,-3
1532065839380,1,6,1,2,3,0,6,0
1532065839385,-2,-7,3,0,-2,-1,-1,-2
1532065839390,3,-1,-20,1,0,0,-2,-1
1532065839395,-6,-2,6,-3,-2,0,-2,3
1532065839400,6,-1,24,4,-2,-2,-1,-1
1532065839405,-4,-6,5,1,3,-3,-7,-5
1532065839410,-6,6,2,-7,-15,-1,10,2
1532065839415,2,0,-27,-2,0,-1,0,-5
1532065839420,1,-3,18,2,-4,-3,-14,0
1532065839425,2,-8,-21,-12,-4,-5,-12,-3
1532065839430,0,7,18,4,7,4,9,0
1532065839435,0,-8,3,1,-2,-2,-2,0
1532065839440,-6,6,-7,-4,-1,-2,-2,-2
1532065839445,3,0,-2,1,-1,-1,-1,-1
1532065839450,-2,-5,-5,-1,5,-1,-4,-6
1532065839455,2,26,-4,-1,-11,-1,-1,1
1532065839460,0,-21,-6,1,2,-2,-1,0
1532065839465,2,6,2,4,-1,2,-1,2
1532065839470,2,-10,-29,-9,2,-1,0,-2
1532065839475,3,7,32,1,-1,-3,-9,-2
1532065839480,-7,7,-4,-2,1,2,5,-1
1532065839485,-9,5,-3,-3,-1,1,4,-1
1532065839490,0,-5,-2,5,1,1,-11,-3
1532065839495,-2,-9,-5,-1,2,0,7,-2
1532065839500,2,17,-11,-6,-5,-2,-6,-1
1532065839505,0,-14,8,4,4,3,0,-1
1532065839510,1,6,3,-1,-1,0,6,3
1532065839515,-6,-19,-21,-4,0,-3,-3,-1
1532065839520,4,9,5,2,-1,-1,-4,1
1532065839525,-1,2,-26,2,0,1,8,-4
1532065839530,0,-3,11,-8,-6,-2,-6,1
1532065839535,-6,10,-5,2,-2,0,-6,0
1532065839540,-3,-8,-5,0,2,1,11,-3
1532065839545,1,10,-11,1,-3,-1,-1,0
1532065839550,3,-4,1,3,-5,-2,3,0
1532065839555,1,-21,20,4,5,1,-3,1
1532065839560,-3,3,20,7,1,1,-8,-4
1532065839565,-3,-13,-8,-11,-4,-1,-4,-1
1532065839570,-2,8,-4,1,-1,-1,0,-1
1532065839575,2,-1,-9,-4,-1,0,6,-3
1532065839580,1,-2,-8,1,0,-1,-9,-2
1532065839585,5,1,12,2,1,1,6,3
1532065839590,-5,3,0,-4,0,0,-3,-2
1532065839595,-1,-5,-12,-2,-1,-3,-24,-5
1532065839600,0,-2,2,1,2,2,11,1
1532065839605,3,13,1,0,0,-2,0,-2
1532065839610,-4,10,4,-1,0,-1,2,0
1532065839615,-7,-21,-1,0,-3,-3,2,-1
1532065839620,3,2,-9,-4,1,2,7,2
1532065839625,-4,-13,8,-3,0,-2,-2,-1
1532065839630,-1,7,2,2,-5,-1,-5,-1
1532065839635,3,2,-21,-4,2,2,18,2
1532065839640,-3,4,10,-2,6,-2,-9,-2
1532065839645,-2,-4,19,-1,-9,-4,-6,-4
1532065839650,-2,-2,2,-1,-5,1,17,0
1532065839655,0,-4,-12,-1,0,3,0,2
1532065839660,-1,1,-13,-2,-1,-1,3,0
1532065839665,-1,8,15,0,5,-2,-6,-1
1532065839670,-1,-8,-2,-2,-4,-6,-21,-7
1532065839675,1,8,7,1,3,0,21,4
1532065839680,0,-4,-5,-1,0,1,0,-1
1532065839685,1,-1,-2,-2,-1,-2,0,0
1532065839690,-1,3,-6,-1,-3,-6,-5,-3
1532065839695,-1,-1,5,0,2,0,-3,-3
1532065839700,0,-10,-2,-2,-11,-5,-30,-2
1532065839705,-2,-14,-11,0,-4,2,14,3
1532065839710,2,15,2,2,2,5,14,0
1532065839715,-2,-1,5,-1,2,0,-2,-1
1532065839720,-2,0,1,0,0,-2,1,1
1532065839725,-1,1,1,0,-1,-2,-5,0
1532065839730,2,-11,-7,-6,1,-2,0,2
1532065839735,-3,11,-3,1,-6,-5,-13,-2
1532065839740,-4,-17,15,1,-2,-1,4,-2
1532065839745,0,5,-8,2,2,0,5,2
1532065839750,-2,-5,5,-4,-2,1,1,1
1532065839755,-2,7,-4,-3,-6,-2,-1,-2
1532065839760,0,1,-1,1,9,0,4,-2
1532065839765,2,17,-4,1,2,1,-4,-2
1532065839770,-3,-32,-10,3,-8,-1,-2,1
1532065839775,-1,0,14,-7,-2,0,0,-2
1532065839780,0,3,-3,0,0,-1,7,-1
1532065839785,0,-5,9,0,5,-1,-10,-1
1532065839790,2,10,4,2,4,0,6,2
1532065839795,0,-4,-2,0,-3,1,2,0
1532065839800,0,-4,4,0,2,-2,-2,0
1532065839805,0,1,-14,-8,-5,-2,-2,0
1532065839810,2,7,4,4,6,1,-4,0
1532065839815,-1,-14,-10,-4,-10,-5,-5,-2
1532065839820,1,12,14,4,-3,0,1,0
1532065839825,-2,-6,-11,1,-2,-1,2,0
1532065839830,-2,-3,-1,-1,4,-3,-6,-4
1532065839835,4,4,-2,0,2,-1,-6,-1
1532065839840,-1,1,-8,-1,-5,0,6,2
1532065839845,-1,-4,10,4,13,-3,0,-1
1532065839850,-1,2,8,2,-3,3,2,1
1532065839855,-2,2,-3,-1,-3,1,6,1
1532065839860,-3,-3,-9,-5,-8,-2,-5,-4
1532065839865,1,-3,-2,0,-2,1,-1,1
1532065839870,-1,-2,-6,2,13,-1,6,-2
1532065839875,0,1,5,3,-1,1,-8,-1
1532065839880,-1,-4,-8,-5,-8,-2,-1,-1
1532065839885,-2,1,5,1,6,2,6,-1
1532065839890,-3,7,0,-2,-3,-2,-7,-5
1532065839895,-2,-16,-1,0,-2,-2,-2,-3
1532065839900,2,-1,-11,-1,0,-1,1,0
1532065839905,-1,-1,9,-3,-7,-2,-5,-3
1532065839910,-2,1,-11,-5,-3,-1,-3,1
1532065839915,0,4,-7,1,2,1,1,-1
1532065839920,0,-3,3,1,5,-2,-6,-1
1532065839925,-2,-5,-6,-7,-15,-3,3,2
1532065839930,0,-6,-21,1,2,3,-3,-1
1532065839935,-2,5,30,4,12,-1,3,-1
1532065839940,-2,1,-13,-7,-16,2,-2,0
1532065839945,1,-3,-6,1,-3,-2,-8,1
1532065839950,-1,1,0,-2,-2,-1,5,1
1532065839955,-1,5,9,3,1,0,6,0
1532065839960,-2,-10,0,-4,7,-5,-1,-1
1532065839965,-3,5,-1,1,1,1,-3,0
1532065839970,-3,-11,-8,-5,-2,-1,-7,-2
1532065839975,-2,-5,4,-1,-1,-3,-5,-3
1532065839980,-1,4,4,-2,-4,-1,3,0
1532065839985,0,2,6,2,3,3,8,0
1532065839990,0,8,8,1,3,-2,-11,-2
1532065839995,-2,-13,-7,-3,0,-1,1,-3
1532065840000,0,4,-3,-1,-2,1,1,1
1532065840005,0,-8,-7,-3,-3,-2,-2,0
1532065840010,-2,-3,19,1,-5,-4,-6,-1
1532065840015,1,3,-2,1,3,-1,-8,-2
1532065840020,-2,-9,2,0,-2,0,5,-3
1532065840025,-2,-2,-2,-4,-6,0,-3,-4
1532065840030,-1,1,4,0,-5,-1,2,1
1532065840035,2,0,-9,-3,-3,-3,-2,1
1532065840040,1,2,-1,1,8,0,-5,-1
1532065840045,-1,-7,-9,-1,-3,-4,4,-2
1532065840050,1,1,3,0,3,3,1,0
1532065840055,-2,0,1,-1,-2,0,-4,0
1532065840060,2,5,2,3,0,-3,-3,0
1532065840065,0,-1,-4,-2,6,-1,-7,-2
1532065840070,-1,-1,0,0,-4,-4,-9,-2
1532065840075,-1,2,1,-3,-2,0,6,-3
1532065840080,0,-4,-5,0,2,1,0,-1
1532065840085,-4,-2,7,-6,-13,0,8,-1
1532065840090,0,0,-2,0,-1,0,7,0
1532065840095,1,-1,-6,2,2,1,5,-1
1532065840100,-1,-2,7,0,-3,-3,1,0
1532065840105,1,8,-8,-3,-3,-3,-6,0
1532065840110,-2,-1,4,0,2,-1,-6,-3
1532065840115,-1,0,-9,-2,-3,-1,-1,1
1532065840120,-2,-3,1,1,1,1,0,-2
1532065840125,-2,-5,-4,-1,-2,1,2,-1
1532065840130,-2,-2,2,-3,-11,-4,-1,-3
1532065840135,-2,0,1,-3,1,-1,-6,-5
1532065840140,0,1,-2,0,-1,-1,0,-1
1532065840145,1,-2,1,1,-1,0,1,-1
1532065840150,-2,-3,-1,1,2,2,4,-2
1532065840155,1,1,0,1,3,-1,-4,0
1532065840160,0,-3,-2,0,-1,-2,-6,0
1532065840165,-1,2,9,-2,-3,-3,-6,-1
1532065840170,1,-2,-15,0,2,0,13,3
1532065840175,0,1,3,0,1,-2,-2,0
1532065840180,0,-3,3,1,0,-1,1,-1
1532065840185,-1,-1,-3,-2,-2,-2,-3,-1
1532065840190,-1,0,7,-1,-5,-1,-5,0
1532065840195,0,-2,-3,-1,1,1,-1,-2
1532065840200,-2,-2,-8,-4,0,-2,1,0
1532065840205,-1,0,-2,0,-1,1,-7,-1
1532065840210,-1,-2,2,0,0,-2,5,0
1532065840215,-1,0,-5,-1,-2,-1,3,1
1532065840220,-2,-2,1,1,1,0,-3,-1
1532065840225,0,1,-5,-2,-2,0,5,0
1532065840230,-1,-1,4,-2,-1,-1,-3,-3
1532065840235,0,-1,-1,-1,1,-1,-4,0
1532065840240,-1,0,-1,-1,-3,0,1,0
1532065840245,1,1,-5,-1,-1,-1,1,-1
1532065840250,0,-1,-2,0,-2,2,-1,1
1532065840255,-1,-1,-3,1,-9,-2,2,0
1532065840260,-1,-2,-5,-1,-3,-2,0,2
1532065840265,-1,-2,2,-1,-10,-11,-9,-6
1532065840270,2,2,-2,-7,-9,37,-8,-4
1532065840275,-1,-1,1,0,15,-33,4,3
1532065840280,0,1,-2,2,2,9,10,4
1532065840285,0,-1,-4,4,7,8,2,0
1532065840290,1,1,6,6,10,2,3,1
1532065840295,3,2,-1,4,9,20,6,2
1532065840300,-2,-4,-6,-5,-7,-8,-5,-4
1532065840305,1,2,18,-3,6,-17,-3,-2
1532065840310,-4,-5,-3,-3,-15,-26,-13,-6
1532065840315,-3,-7,-6,-24,-57,-17,-23,-10
1532065840320,0,-7,-19,2,0,-33,-7,-2
1532065840325,2,3,3,3,14,55,25,11
1532065840330,2,2,-9,17,51,9,29,13
1532065840335,-1,-2,9,13,47,15,7,2
1532065840340,-2,-2,-1,4,-3,-7,-10,-7
1532065840345,-5,-7,-13,-20,-32,-31,-18,-8
1532065840350,-2,0,4,-8,-36,-2,-5,-4
1532065840355,-2,1,-4,-7,-19,1,1,-2
1532065840360,-1,0,13,11,70,1,-4,-4
1532065840365,2,1,3,8,3,13,2,-2
1532065840370,-1,-4,-7,-11,-38,-12,2,-1
1532065840375,0,-3,0,0,-3,-1,-2,-1
1532065840380,0,-4,7,-4,-2,5,4,1
1532065840385,1,-5,0,11,28,3,2,0
1532065840390,-1,-4,-2,2,10,-10,-4,-3
1532065840395,-1,-5,-5,1,-3,-1,-4,-1
1532065840400,-1,0,0,1,-4,12,1,2
1532065840405,-3,-2,-2,-2,-4,-6,1,0
1532065840410,-3,-1,5,1,-11,-8,-4,-1
1532065840415,-2,2,4,4,5,5,-1,2
1532065840420,-2,4,4,1,-15,4,2,-1
1532065840425,-2,4,-5,-2,-15,-7,-5,-1
1532065840430,-1,1,4,-3,-2,-5,-4,0
1532065840435,1,7,2,1,2,5,0,1
1532065840440,1,4,-4,-6,-16,0,0,0
1532065840445,0,2,-7,-7,-12,-6,-2,-2
1532065840450,1,4,-2,-2,6,-1,-2,-1
1532065840455,-1,5,-4,-3,0,-1,-1,-1
1532065840460,-1,3,-1,-6,-13,1,-2,0
1532065840465,-1,-1,1,-3,3,-2,-3,1
1532065840470,1,0,1,-3,3,-1,0,-1
1532065840475,0,1,-2,-2,-2,-2,-1,-2
1532065840480,0,-1,-3,-4,-5,1,0,-1
1532065840485,-1,-2,-5,0,-1,-1,0,-1
1532065840490,-3,-1,-4,0,-4,-4,0,-2
1532065840495,0,-3,-4,-1,-4,-2,0,-1
1532065840500,-1,-2,-1,-1,-2,4,0,2
1532065840505,-2,-3,-4,0,-1,-3,3,-1
1532065840510,-2,-3,-2,-3,-1,-2,-3,-1
1532065840515,-3,-2,1,-1,2,3,1,-2
1532065840520,-2,-4,-1,-2,-4,0,2,-3
1532065840525,-1,-3,-1,-1,0,-3,-2,0
1532065840530,-2,-2,0,-1,1,-1,-1,-2
1532065840535,0,-2,1,1,2,1,-1,-1
1532065840540,-4,-1,1,-1,-2,0,-2,0
1532065840545,-8,-2,-3,0,1,0,-2,1
1532065840550,-9,-3,-1,1,3,0,0,1
1532065840555,-12,-2,-1,-1,0,-1,-1,0
1532065840560,-13,-2,1,-1,-2,2,-3,0
1532065840565,-9,-1,-1,0,-1,-2,-1,-2
1532065840570,-2,0,-1,0,1,0,0,-3
1532065840575,3,0,0,0,0,-1,0,0
1532065840580,7,-1,1,0,-1,-1,0,-1
1532065840585,9,-1,0,-1,-1,1,0,-1
1532065840590,8,0,-1,0,-1,-2,-1,-1
1532065840595,6,-2,1,-1,-1,-3,-1,-2
1532065840600,7,-2,0,-2,-1,0,-1,0
1532065840605,8,0,-1,-1,0,0,0,-2
1532065840610,5,1,-1,-1,0,-1,-1,0
1532065840615,4,-1,-5,-2,-1,-1,0,0
1532065840620,3,-1,-4,-2,-1,-1,0,-1
1532065840625,1,-3,-5,-1,-1,-1,0,0
1532065840630,2,0,-2,0,1,-1,-1,0
1532065840635,1,-1,0,-1,-1,-1,0,-1
1532065840640,1,-1,2,-1,0,0,-1,0
1532065840645,0,0,2,-1,1,-1,-3,-1
1532065840650,-1,-1,2,0,0,-1,-2,-1
1532065840655,-1,1,2,-1,-1,0,-2,-1
1532065840660,-1,-1,2,-1,-1,-2,0,0
1532065840665,0,-1,1,-1,-1,-1,-2,1
1532065840670,-1,-2,1,-2,-2,-2,0,-1
1532065840675,0,-1,1,-1,-1,-1,-1,-1
1532065840680,-2,0,0,0,-2,-1,-2,-2
1532065840685,-1,0,1,1,-2,0,-1,-2
1532065840690,0,-2,0,-2,0,-1,-2,0
1532065840695,-2,-1,-2,0,-2,0,-1,0
1532065840700,0,0,2,0,0,-2,0,-1
1532065840705,0,-1,-2,-1,-1,-1,0,0
1532065840710,-2,1,-1,2,1,0,-1,-1
1532065840715,-2,-3,0,-1,0,-2,0,0
1532065840720,0,-1,-3,-3,-1,0,1,-1
1532065840725,-1,0,-2,-1,-1,-3,0,-1
1532065840730,-1,-1,-1,-1,-1,-1,-1,-1
1532065840735,-1,-2,0,-1,-1,-2,-2,-2
1532065840740,-1,-1,-2,0,-1,-2,-1,1
1532065840745,-3,-3,-3,1,-2,1,-1,-2
1532065840750,-2,0,6,-2,-2,-2,-2,-2
1532065840755,-1,0,-1,0,-1,-1,0,0
1532065840760,-3,-1,2,-1,-2,0,2,0
1532065840765,-1,-1,-4,-3,-2,0,0,-1
1532065840770,0,0,7,0,0,1,-2,1
1532065840775,-2,-4,-11,0,-1,-3,-2,-1
1532065840780,0,5,4,1,0,1,-2,0
1532065840785,-1,-5,-5,10,7,-2,0,0
1532065840790,0,6,-1,-7,7,3,0,0
1532065840795,-3,-6,19,1,-15,-2,-3,0
1532065840800,-1,-3,8,-1,-4,-3,-2,-2
1532065840805,-1,-4,-35,2,12,2,-1,0
1532065840810,0,3,12,11,16,-4,1,-2
1532065840815,-5,-8,10,2,-5,-1,-5,-1
1532065840820,-2,-8,-29,-6,-9,-2,-1,-1
1532065840825,2,15,46,15,17,1,0,0
1532065840830,0,7,-11,19,47,0,0,-6
1532065840835,-4,-3,34,-19,-35,0,1,-2
1532065840840,-5,-23,10,-12,-42,-3,0,0
1532065840845,-3,-12,-40,-2,34,1,-1,-5
1532065840850,-1,11,-12,-5,-23,1,1,0
1532065840855,2,-2,1,-39,-49,-3,1,4
1532065840860,-4,-6,43,1,14,-3,-5,-7
1532065840865,-2,4,12,52,15,5,1,6
1532065840870,-11,-17,-21,-75,-78,-6,-7,2
1532065840875,2,9,-2,22,41,-2,-1,-5
1532065840880,-2,11,3,-11,-44,3,-3,-1
1532065840885,0,0,-9,11,33,0,5,-1
1532065840890,1,4,48,100,59,5,-1,-1
1532065840895,3,7,-13,30,25,-3,3,0
1532065840900,-2,-12,-17,-40,12,0,-2,-5
1532065840905,-7,-3,-16,-13,-30,-1,-6,6
1532065840910,4,8,12,-24,6,1,2,0
1532065840915,3,3,18,92,9,2,3,0
1532065840920,2,-1,-16,-36,21,-6,-1,-5
1532065840925,-3,-14,-36,10,-24,-5,-5,-2
1532065840930,2,-3,5,-51,-5,0,2,-2
1532065840935,1,-4,16,-4,1,-3,-3,-3
1532065840940,5,20,0,56,14,5,1,6
1532065840945,3,-5,-26,-58,-29,-5,-2,-5
1532065840950,5,7,16,19,23,2,1,0
1532065840955,0,0,7,8,5,-1,-2,-3
1532065840960,-1,-5,-14,2,-2,1,0,2
1532065840965,1,1,6,0,-6,0,-2,2
1532065840970,5,8,15,53,22,4,3,-1
1532065840975,-2,-5,-19,-99,-12,-2,0,-4
1532065840980,-4,1,24,38,0,1,-2,6
1532065840985,0,2,2,-18,3,-3,0,-1
1532065840990,-4,-7,-6,44,-4,-4,-6,-2
1532065840995,-7,-10,-40,-65,-20,-2,-5,1
1532065841000,3,5,28,73,9,0,1,-1
1532065841005,1,1,4,-69,-3,0,4,-3
1532065841010,1,1,2,16,6,3,1,5
1532065841015,11,-5,-20,28,-7,-3,-4,5
1532065841020,5,12,4,47,23,3,2,-8
1532065841025,-10,-11,-6,-16,-17,-5,-4,4
1532065841030,-1,-11,8,4,-8,-4,-6,-6
1532065841035,-2,-3,-24,16,6,1,3,-2
1532065841040,1,-3,7,-25,-7,-1,-3,3
1532065841045,-1,8,28,27,2,0,0,-1
1532065841050,6,-3,-12,8,1,-2,1,7
1532065841055,-3,6,13,3,-3,0,-4,-4
1532065841060,-13,-3,-30,-24,-4,0,4,-4
1532065841065,11,2,6,42,11,5,8,4
1532065841070,-5,-7,-23,-89,-16,-12,-12,-24
1532065841075,36,9,37,54,4,-2,-3,8
1532065841080,-16,-9,-42,-58,-1,0,32,-9
1532065841085,13,0,-3,5,-8,-4,-60,4
1532065841090,-17,1,-24,-2,3,-3,4,22
1532065841095,17,-1,9,-20,3,11,14,-8
1532065841100,89,4,8,-22,-4,-4,-30,29
1532065841105,-110,2,23,48,12,8,65,-19
1532065841110,15,-26,-63,-54,-27,-11,17,-20
1532065841115,-32,-9,4,-10,-1,-21,-36,-15
1532065841120,25,2,-8,19,5,4,26,-3
1532065841125,-9,4,33,23,-3,6,-71,1
1532065841130,-33,-8,-2,-2,2,-1,28,-4
1532065841135,-126,-2,5,1,-3,4,-50,13
1532065841140,35,-3,-24,0,1,-22,18,-49
1532065841145,11,12,-13,-9,4,1,40,-15
1532065841150,-30,-2,13,2,2,0,-28,-10
1532065841155,22,-3,-6,-21,-4,9,4,25
1532065841160,-76,-5,18,19,-4,6,-3,29
1532065841165,24,-7,-10,-25,-9,-9,-15,1
1532065841170,24,4,2,15,6,8,5,3
1532065841175,-10,2,11,18,2,0,28,-5
1532065841180,16,0,-8,-11,-7,0,-20,4
1532065841185,27,-4,-5,-1,-3,-5,18,-4
1532065841190,-8,3,8,10,3,4,-8,5
1532065841195,31,1,-7,-3,2,-2,9,-2
1532065841200,-26,-3,-2,-6,-6,-3,-14,-7
1532065841205,5,-3,-8,-13,-4,-2,-5,6
1532065841210,0,2,11,20,5,3,2,6
1532065841215,14,3,-3,-5,-3,-4,-2,-10
1532065841220,-9,-2,-2,-1,-5,1,-1,-1
1532065841225,-3,-2,3,2,-1,-3,8,1
1532065841230,25,1,-2,0,1,0,-8,1
1532065841235,12,0,-2,3,2,-1,13,-6
1532065841240,-20,-3,1,-3,-2,0,-6,1
1532065841245,12,-2,-3,-4,-1,-3,0,3
1532065841250,-2,2,1,2,1,-2,-7,-4
1532065841255,2,-1,-3,-5,-1,2,1,-1
1532065841260,-11,0,2,5,-1,1,-3,2
1532065841265,7,-2,-4,-5,-1,-2,-2,-2
1532065841270,6,1,2,1,1,0,1,0
1532065841275,-4,1,3,4,0,-2,7,-3
1532065841280,2,-1,0,-4,-3,-2,-5,2
1532065841285,2,-2,0,1,-1,-2,3,-2
1532065841290,-5,-1,1,0,0,3,-1,0
1532065841295,3,-2,-2,-2,-1,-1,0,0
1532065841300,-10,-2,0,-2,-1,-1,-3,-2
1532065841305,-1,-1,-1,-3,-3,1,-3,3
1532065841310,-2,-1,4,4,1,0,0,2
1532065841315,1,0,-1,-3,-2,-1,-1,-4
1532065841320,-2,1,1,-2,0,-1,-1,-2
1532065841325,0,-2,0,0,-1,-1,2,-1
1532065841330,4,1,-2,0,1,-1,-2,1
1532065841335,3,-1,-2,-2,2,0,3,-2
1532065841340,-4,-3,-1,0,-1,-1,-2,0
1532065841345,2,-2,-3,-1,-1,-2,-3,-1
1532065841350,-1,-1,0,-2,0,0,-1,-2
1532065841355,1,-1,-1,-1,-1,0,-1,-1
1532065841360,-2,-1,-1,0,-1,-1,-1,0
1532065841365,1,-1,-2,-2,-1,0,0,-2
1532065841370,1,-1,0,-1,-2,-2,0,-3
1532065841375,0,1,-1,2,-1,0,1,1
1532065841380,0,0,0,-1,0,1,-2,-1
1532065841385,2,-2,-2,-1,-1,-2,0,-1
1532065841390,0,-1,-2,0,0,0,-3,1
1532065841395,0,-1,-1,0,1,-1,0,-1
1532065841400,-1,0,-1,0,-2,0,-1,0
1532065841405,-1,0,-1,-2,0,-1,-1,0
1532065841410,-2,1,0,0,0,1,-1,-1
1532065841415,-2,0,0,0,-2,-1,0,0
1532065841420,-2,0,-1,-1,0,-1,-1,-1
1532065841425,-1,-1,0,-3,0,-2,1,-1
1532065841430,1,0,0,-1,0,0,0,-1
1532065841435,0,0,-2,-1,-1,-2,1,1
1532065841440,-3,-1,0,-1,-3,-2,-1,-2
1532065841445,0,0,-2,-1,-1,1,0,0
1532065841450,0,0,0,-2,0,-2,0,-1
1532065841455,-1,-1,-2,-2,-2,0,0,-2
1532065841460,-2,-1,0,0,-1,1,-1,-1
1532065841465,0,-1,-1,0,-1,-1,-1,0
1532065841470,-1,0,0,-1,0,0,0,-1
1532065841475,0,-1,-1,-1,0,-1,0,-1
1532065841480,-1,-2,-1,-2,0,0,1,-2
1532065841485,1,-1,-1,-2,-1,-1,-2,-1
1532065841490,-1,-2,-1,2,-2,1,-1,0
1532065841495,0,0,0,-1,0,0,-4,0
1532065841500,-2,0,-2,-1,-1,1,0,-3
1532065841505,0,0,-1,-1,-1,-1,-1,0
1532065841510,1,0,-1,-1,0,-1,1,-2
1532065841515,0,-1,1,-1,0,-2,-3,-1
1532065841520,-1,0,0,0,0,-1,-2,1
1532065841525,-1,-3,0,-1,0,1,-1,-1
1532065841530,-1,-1,-1,-2,0,-1,-2,0
1532065841535,1,-2,-1,1,0,0,0,-1
1532065841540,0,0,-1,0,-2,2,-2,-1
1532065841545,-1,-1,-1,1,-1,0,1,1
1532065841550,-2,-1,-2,-1,-3,-2,0,-2
1532065841555,-2,1,-1,-2,-2,-1,0,-1
1532065841560,-1,0,-1,-1,0,-3,-1,0
1532065841565,-1,0,-1,-1,-1,0,1,-1
1532065841570,-1,-2,0,0,-1,0,-2,-3
1532065841575,-1,1,1,-2,-1,0,-2,1
1532065841580,-1,0,-1,0,-2,0,-2,-2
1532065841585,-1,1,-1,0,-2,0,0,-1
1532065841590,-1,-1,0,-2,-1,-2,0,1
1532065841595,-1,-3,-1,-1,-1,1,1,-1
1532065841600,0,-1,-1,-1,0,-1,-2,-2
1532065841605,1,-1,1,-1,-1,1,-1,-3
1532065841610,1,-1,-1,-1,1,0,0,0
1532065841615,-1,-1,-1,-1,-2,-1,-1,1
1532065841620,0,-1,-1,-2,-2,-1,0,-1
1532065841625,0,-2,-1,0,-1,-1,-1,-1
1532065841630,0,-1,1,-2,0,0,0,-1
1532065841635,0,-2,-1,0,0,0,-2,-3
1532065841640,-1,-1,-2,-1,0,-2,-1,0
1532065841645,-1,-1,-2,0,0,0,-3,-1
1532065841650,-2,-1,-1,0,-1,-1,-2,-1
1532065841655,0,-1,-1,0,-1,-1,-1,0
1532065841660,-1,-1,-1,-2,-1,-1,-1,-3
1532065841665,0,-1,-2,-1,-2,0,-1,0
1532065841670,0,-1,0,0,-1,-1,-1,-2
1532065841675,-1,-1,-1,-2,-1,-1,0,-1
1532065841680,0,-3,0,-1,-1,1,1,1
1532065841685,-2,0,1,-1,0,-2,0,1
1532065841690,1,-1,-1,0,-1,0,-1,-1
1532065841695,-1,-1,0,-2,-1,-1,-2,-1
1532065841700,0,0,-1,0,0,0,1,-2
1532065841705,-1,-1,-1,-1,-3,0,0,-1
1532065841710,-1,-1,-1,0,-2,-2,-2,-2
1532065841715,-2,-1,0,0,0,-1,-1,-1
1532065841720,-2,0,0,-1,-1,0,0,0
1532065841725,0,-1,0,0,-1,-1,-1,-1
1532065841730,0,0,-1,0,0,1,-2,-1
1532065841735,0,0,0,0,-1,0,2,0
1532065841740,1,0,-1,-1,-1,-2,-1,-1
1532065841745,-1,-3,-2,-2,1,1,-1,-1
1532065841750,-1,-1,-2,0,-1,-1,0,-1
1532065841755,0,-1,-1,0,-1,-2,-2,-2
1532065841760,-2,-2,-2,1,0,-1,-1,1
1532065841765,1,1,-1,-2,-1,-1,0,-2
1532065841770,0,-1,0,-1,-1,0,1,-1
1532065841775,-1,0,-1,-1,0,0,-1,-1
1532065841780,-1,-2,0,-1,-2,-3,-1,-1
1532065841785,0,-1,-1,-1,-2,-2,-2,-1
1532065841790,-1,0,-2,-1,-1,-1,-1,1
1532065841795,-2,-1,-1,-1,0,-1,0,0
1532065841800,-2,-1,0,-1,-1,0,0,-2
1532065841805,-1,-1,1,-1,-2,-1,1,-1
1532065841810,-2,0,0,-1,-1,-2,-2,-1
1532065841815,-2,-2,-1,-2,0,-1,-1,-1
1532065841820,0,0,1,-2,-1,0,-1,-1
1532065841825,-1,-2,1,0,-1,0,0,-1
1532065841830,0,-1,0,1,0,-1,-2,1
1532065841835,0,0,-1,-1,0,-1,-1,-2
1532065841840,-1,0,-1,-1,0,-1,0,-1
1532065841845,-1,-2,-2,-1,-1,-1,-2,-1
1532065841850,-1,0,-1,-1,-1,-1,1,-1
1532065841855,-2,-1,-1,0,0,-2,0,-1
1532065841860,-2,-1,-1,-2,1,-1,-2,-1
1532065841865,1,0,2,-1,0,-1,-2,-1
1532065841870,-1,-2,-1,-1,-1,-1,-1,-1
1532065841875,-1,-1,-1,-1,-3,-1,-1,0
1532065841880,0,0,-1,1,0,0,0,0
1532065841885,-1,-1,-1,0,-2,-1,0,-2
1532065841890,-1,-1,0,-1,-1,0,-2,0
1532065841895,1,-1,-1,-3,-3,0,0,-1
1532065841900,-1,1,-2,-1,-1,-1,-1,0
1532065841905,-1,0,-1,-2,0,0,-2,1
1532065841910,-2,-1,-1,-1,0,-1,-1,-1
1532065841915,-2,0,-1,-1,0,0,0,1
1532065841920,-1,-2,1,1,-3,-1,-2,-1
1532065841925,-1,0,0,0,-1,0,0,-1
1532065841930,0,0,-1,-1,-2,-1,1,-2
1532065841935,1,-1,1,-2,0,0,-1,-1
1532065841940,0,-2,-1,-2,-1,-1,0,-1
1532065841945,-2,0,-2,0,1,-1,0,1
1532065841950,0,-1,-1,-2,0,0,-1,0
1532065841955,-2,0,-2,1,-2,0,-2,-1
1532065841960,0,-2,-2,-1,0,0,0,1
1532065841965,0,-2,-1,-1,-3,-1,-2,-2
1532065841970,0,-2,0,0,-1,-2,0,-2
1532065841975,0,0,0,0,-1,0,-2,1
1532065841980,0,0,-1,-2,-1,0,-2,0
1532065841985,0,0,-1,0,1,-1,1,-1
1532065841990,-1,-1,-2,-1,-2,0,-1,-2
1532065841995,0,-2,0,0,0,0,0,0
1532065842000,-1,0,-2,-1,-1,-2,0,-1
1532065842005,-2,-1,-1,-1,-2,-1,-2,-2
1532065842010,0,1,0,-2,0,-1,-2,1
1532065842015,0,0,1,0,1,0,0,-2
1532065842020,-1,0,1,0,-2,-1,0,-1
1532065842025,-1,-3,1,-2,0,-1,-1,0
1532065842030,-1,-1,0,-1,-1,-1,0,-2
1532065842035,-2,-1,-1,-1,0,-2,-1,0
1532065842040,0,-1,-2,0,-3,0,-1,-2
1532065842045,1,1,-3,-1,-1,-2,-1,-3
1532065842050,-1,-1,-1,-1,-2,1,-2,-1
1532065842055,-2,0,-1,-2,-2,-2,1,0
1532065842060,-1,-1,-1,0,3,-2,-3,-1
1532065842065,-2,-1,1,-1,-1,-2,0,2
1532065842070,0,0,-2,0,-2,0,0,-1
1532065842075,1,-2,-1,-1,-2,1,0,-3
1532065842080,-1,0,-2,-2,-1,-1,1,-1
1532065842085,0,-2,-2,0,-1,0,-2,0
1532065842090,-2,-2,-2,-1,1,-1,-2,0
1532065842095,-1,-2,-1,1,0,-2,0,-1
1532065842100,0,0,0,-3,0,-2,-1,0
1532065842105,-2,0,-1,0,-1,1,1,-3
1532065842110,-2,0,-1,0,0,-2,1,-1
1532065842115,-2,-1,-1,-1,-1,-1,-1,-1
1532065842120,-1,0,-1,0,0,0,0,-2
1532065842125,-1,0,0,-1,-1,-1,0,0
1532065842130,-1,-1,0,0,-1,1,-2,-1
1532065842135,-1,0,0,-1,0,-2,-2,-2
1532065842140,-2,-2,1,-2,-1,1,-2,0
1532065842145,-1,-1,0,-1,0,-1,-1,-1
1532065842150,-1,-1,-1,-1,-1,-2,0,0
1532065842155,0,-1,-2,-2,-2,0,-2,1
1532065842160,-2,-1,-1,1,-1,-3,2,-1
1532065842165,0,-1,0,1,-1,-1,-2,-1
1532065842170,-1,-1,0,-2,-1,0,0,-1
1532065842175,0,0,-1,-1,-1,0,-2,0
1532065842180,0,-1,-1,0,-1,-1,-1,0
1532065842185,0,-1,0,-2,-2,-1,1,-1
1532065842190,-1,-2,-1,0,-1,-1,0,-2
1532065842195,-2,-1,0,-2,-1,-2,-2,-1
1532065842200,0,0,-1,-2,-2,0,-1,0
1532065842205,0,-1,-2,0,-1,-2,-3,1
1532065842210,-2,-1,-3,0,0,1,-2,1
1532065842215,-1,0,0,-1,1,-2,-1,-1
1532065842220,-2,0,0,2,-2,-1,0,-2
1532065842225,-1,-1,-1,0,0,-1,-1,1
1532065842230,0,0,-1,-2,-2,0,-1,0
1532065842235,0,-1,0,0,0,-2,-1,1
1532065842240,0,-2,0,0,-1,0,-1,-1
1532065842245,-1,0,0,-1,-1,-1,1,1
1532065842250,-2,-1,0,1,1,-1,-2,-1
1532065842255,-1,0,-2,2,-1,-2,-1,0
1532065842260,0,-1,-2,0,-1,0,-1,-1
1532065842265,-2,-1,-1,-2,-1,0,-2,-1
1532065842270,0,0,1,0,1,-1,-1,0
1532065842275,-1,-1,-1,0,0,-1,-1,-2
1532065842280,-1,-1,0,0,0,1,-1,-1
1532065842285,-1,-1,-3,0,-1,-2,0,-1
1532065842290,0,-1,0,-2,-1,-2,1,-1
1532065842295,1,0,-1,-1,-2,-1,-1,0
1532065842300,-2,-1,-2,1,1,-1,-1,0
1532065842305,-1,0,-1,0,-1,-1,0,-1
1532065842310,-1,-2,-1,-1,-2,0,0,-1
1532065842315,0,-3,-1,0,-1,1,0,0
1532065842320,0,-3,0,-1,-2,-1,-2,-3
1532065842325,-1,-1,-1,1,-1,0,-2,-2
1532065842330,1,-1,-1,-1,0,-2,-1,0
1532065842335,0,-2,0,-1,0,-1,1,-1
1532065842340,1,0,-2,0,-1,-3,0,-1
1532065842345,0,-1,-1,-1,-1,-1,0,-1
1532065842350,1,0,-1,0,-1,0,-1,0
1532065842355,0,-1,0,-2,-1,1,0,-1
1532065842360,-3,-1,0,-2,0,1,-2,-1
1532065842365,-2,-1,0,-1,-1,-1,-1,0
1532065842370,0,-1,0,-1,-1,-1,-1,-1
1532065842375,-1,0,0,-2,-1,-1,0,0
1532065842380,-1,1,-2,-3,-1,0,0,-1
1532065842385,1,0,-1,-1,-2,0,-1,0
1532065842390,-2,1,0,-1,-2,-1,-1,-1
1532065842395,-2,0,0,-2,-1,-2,-1,-2
1532065842400,-1,0,0,0,-3,-1,-1,0
1532065842405,0,-2,-1,0,0,-1,0,-1
1532065842410,-2,-2,0,-1,-2,-1,0,-1
1532065842415,-2,0,0,-2,-1,0,0,-1
1532065842420,0,-2,-1,0,0,0,-2,-1
1532065842425,0,0,-1,1,-1,-1,-1,-1
1532065842430,0,0,1,-1,-1,0,-1,0
1532065842435,0,-1,0,0,1,-1,0,-1
1532065842440,0,0,-2,0,-2,-1,0,1
1532065842445,-1,0,-1,-2,-1,0,-2,-1
1532065842450,0,0,-1,1,-1,-2,0,0
1532065842455,0,0,-1,0,-1,-1,0,0
1532065842460,1,-1,-1,-1,1,0,0,0
1532065842465,-1,-1,1,-1,-3,0,-1,0
1532065842470,-1,0,-1,-1,-2,0,-1,1
1532065842475,-2,-2,-1,0,-2,1,0,0
1532065842480,0,-2,-1,-1,-3,-2,-1,-1
1532065842485,0,-1,-1,0,0,-1,-1,-2
1532065842490,-1,0,0,-1,-1,-2,-2,-1
1532065842495,0,0,0,-1,-1,0,-1,-2
1532065842500,-2,0,-1,1,-1,-2,1,0
1532065842505,-2,0,-2,-1,1,0,-2,1
1532065842510,0,-2,-2,1,0,-3,-1,-1
1532065842515,-1,-2,0,-1,-1,1,0,-2
1532065842520,-1,-1,0,-1,-1,0,1,-1
1532065842525,-2,-1,-1,0,-1,-1,-1,-1
1532065842530,-2,-2,0,-1,0,0,-2,-2
1532065842535,0,0,-1,-1,-2,-1,-2,1
1532065842540,-2,-1,1,0,0,0,-1,0
1532065842545,0,-2,-1,-1,-1,0,0,-2
1532065842550,-1,0,-1,0,0,-2,0,-1
1532065842555,0,-2,-2,-1,1,-2,-1,-1
1532065842560,0,-1,0,0,-1,-1,-3,-1
1532065842565,0,-1,0,0,-1,0,-2,-1
1532065842570,0,-1,0,-1,-1,1,0,-1
1532065842575,0,-1,-1,-1,-1,-1,0,-1
1532065842580,-1,-1,0,0,1,-1,1,-2
1532065842585,-2,-1,-1,-1,1,-1,-2,-1
1532065842590,1,0,-1,-1,-2,1,-1,0
1532065842595,-1,-1,-1,-1,-1,-1,1,-2
1532065842600,-2,-2,-1,-1,0,0,0,-1
1532065842605,-1,-1,-1,-1,0,-1,-1,0
1532065842610,0,-1,1,-2,-1,-1,-3,-2
1532065842615,0,-2,0,-1,-2,0,-3,-3
1532065842620,-2,0,-2,0,-1,-2,-2,-3
1532065842625,-1,-1,-2,0,-2,-2,1,-2
1532065842630,0,-2,-2,1,-2,-1,1,-2
1532065842635,-1,-1,-1,0,-1,-1,-1,0
1532065842640,-1,0,0,0,-2,0,0,-1
1532065842645,-2,0,0,0,-1,0,1,0
1532065842650,-1,-2,-2,0,-1,0,0,-1
1532065842655,0,-1,-1,-2,-1,-2,-1,-1
1532065842660,-1,-1,-2,0,0,-1,0,0
1532065842665,-1,0,-1,0,-2,-1,-1,-2
1532065842670,-1,0,0,-2,-1,-1,-1,0
1532065842675,0,0,0,-1,-1,-2,-2,0
1532065842680,-1,1,1,-1,-1,-2,-1,0
1532065842685,1,-2,-1,-1,0,-1,-1,-1
1532065842690,-1,0,0,0,1,-2,-1,0
1532065842695,0,-1,-4,-1,-1,0,-2,-1
1532065842700,-2,-1,-2,-1,-2,0,-2,-1
1532065842705,-1,0,0,-2,-1,-1,-2,0
1532065842710,-1,0,0,0,-1,-1,0,-1
1532065842715,-1,-1,1,-1,-1,-1,0,-2
1532065842720,0,-1,-3,-2,-1,-2,1,0
1532065842725,-1,-2,-1,-1,0,0,0,-1
1532065842730,-1,1,-1,-1,-1,0,1,-1
1532065842735,-1,-1,0,-2,0,-1,-2,-1
1532065842740,1,-2,1,0,0,1,-1,-1
1532065842745,-1,-1,-1,-1,-2,-2,-1,-3
1532065842750,-3,-2,-2,-1,-1,-2,0,-2
1532065842755,-2,-2,-2,-1,1,0,0,-1
1532065842760,-1,0,0,-1,-1,-1,-2,0
1532065842765,-1,-1,-1,1,0,-1,0,0
1532065842770,-1,0,1,-1,-1,-1,-1,-2
1532065842775,0,0,-1,-1,0,0,-1,0
1532065842780,0,1,-1,-2,-3,-2,-1,-2
1532065842785,-1,-1,0,-1,0,0,-1,-1
1532065842790,-1,1,0,-2,1,0,-1,1
1532065842795,-1,-1,-1,0,-1,-2,1,-1
1532065842800,0,0,-1,-1,0,1,0,-1
1532065842805,-1,-2,-2,0,-1,0,-2,0
1532065842810,-2,0,-2,-1,0,0,-2,-1
1532065842815,-2,-2,0,-1,-2,-1,-2,1
1532065842820,0,-1,0,-1,-1,-3,-2,-1
1532065842825,0,0,-1,-1,-1,-1,1,0
1532065842830,0,-1,-1,-1,-2,0,1,-3
1532065842835,-1,1,0,-1,-2,0,0,0
1532065842840,1,-1,-2,-1,0,-1,-1,0
1532065842845,1,-3,1,-1,-1,-3,0,-1
1532065842850,0,-2,0,1,0,-1,-2,1
1532065842855,0,-1,-2,-1,0,-1,-1,-2
1532065842860,0,-1,-2,0,-1,0,-2,-2
1532065842865,-1,0,0,-2,-1,0,-1,-2
1532065842870,1,0,-1,-1,0,2,-2,1
1532065842875,0,0,-1,-2,-1,0,-1,-1
1532065842880,-1,0,-1,-1,-1,0,-1,-1
1532065842885,-1,0,-2,-2,-2,-2,-2,-2
1532065842890,-2,-2,1,-3,-1,-2,0,-1
1532065842895,-1,0,0,0,-1,0,-1,-1
1532065842900,-1,0,-1,1,-1,1,-1,1
1532065842905,0,1,-1,-1,0,0,-1,-1
1532065842910,0,-1,0,-1,-2,-1,0,0
1532065842915,0,0,-1,1,-1,-1,0,0
1532065842920,-1,-2,-1,0,-1,-3,0,1
1532065842925,-1,-1,-1,0,-1,-1,-1,1
1532065842930,1,-1,-1,-1,-2,-1,-1,-1
1532065842935,0,-1,-2,0,-1,-1,0,-1
1532065842940,-2,-1,0,-2,-1,0,-2,-2
1532065842945,0,0,-1,-1,-1,-1,-2,0
1532065842950,-3,-1,0,0,1,-1,-1,-2
1532065842955,-2,-2,0,-1,-1,0,-2,0
1532065842960,-1,-2,-3,-2,0,1,-1,-2
1532065842965,0,-2,-2,0,-1,-1,-1,0
1532065842970,0,0,-2,-2,0,-1,-3,0
1532065842975,-1,-1,0,0,-2,-1,-1,0
1532065842980,-2,0,1,-1,-1,-1,2,-2
1532065842985,-1,-1,-1,-1,-2,0,0,-1
1532065842990,-1,-1,-1,-1,-1,0,0,0
1532065842995,-1,-1,0,-2,-2,0,-1,-2
1532065843000,0,0,-1,-2,-1,-1,-1,-3
1532065843005,-2,-1,0,-1,-1,0,0,-1
1532065843010,-1,-1,-3,-1,-2,1,0,1
1532065843015,-1,-1,0,0,1,0,-2,-2
1532065843020,0,-1,-1,-1,0,-2,-2,1
1532065843025,0,0,-1,-1,-1,-1,-1,-2
1532065843030,0,-1,1,0,-2,0,1,-2
1532065843035,-1,0,-1,0,-1,1,0,-1
1532065843040,1,-1,-1,-1,0,0,-1,-1
1532065843045,-1,-1,1,0,0,0,0,-1
1532065843050,0,0,-2,-1,-1,-2,-2,-1
1532065843055,-1,0,-2,0,0,-2,-1,0
1532065843060,0,-1,1,-1,-2,-1,0,0
1532065843065,-1,-1,-3,-1,-2,0,-2,0
1532065843070,-2,-2,-2,-1,1,-1,-2,-1
1532065843075,0,-1,0,0,-1,-2,-2,0
1532065843080,0,-1,1,-2,0,-2,-1,0
1532065843085,-1,-1,-1,0,0,0,0,-2
1532065843090,-2,-1,-1,0,0,-1,-1,0
1532065843095,0,-1,-1,-1,0,-1,0,-1
1532065843100,-2,-2,-1,0,-1,-1,-1,-2
1532065843105,-1,-1,-1,-1,0,0,-2,0
1532065843110,0,-1,1,-2,-1,-1,-1,1
1532065843115,-1,-1,-2,0,-1,1,0,-2
1532065843120,-2,-1,-2,-1,-1,1,-1,0
1532065843125,-2,-2,-1,-1,-1,-1,0,-1
1532065843130,-1,-1,1,-1,0,-2,-1,-1
1532065843135,-2,-1,-1,-2,-1,-1,-2,0
1532065843140,-1,-1,-1,-1,-2,0,0,-1
1532065843145,0,1,0,-1,-1,-1,-1,0
1532065843150,-1,-1,-1,-1,-1,0,-1,1
1532065843155,1,-3,-2,1,0,-1,-1,-2
1532065843160,0,0,-1,0,-1,-1,-2,-1
1532065843165,0,-1,-1,-1,0,-2,-2,-1
1532065843170,-2,0,-1,1,-1,-1,-3,-3
1532065843175,1,-2,0,-2,-3,-1,-1,0
1532065843180,-1,0,-1,0,-2,-2,-1,-2
1532065843185,0,-2,-1,-1,-1,-1,-1,1
1532065843190,-2,-2,-2,-2,-1,-1,0,0
1532065843195,0,-2,0,0,-1,0,0,-2
1532065843200,-1,-1,-2,-1,1,-2,1,-1
1532065843205,0,-2,-1,0,-1,1,-1,-2
1532065843210,-2,0,-2,-1,-1,-1,-1,-1
1532065843215,-2,0,-1,-2,0,-2,-1,-1
1532065843220,1,-1,-1,0,-1,-1,-2,-1
1532065843225,-2,0,-1,-1,-1,-2,-1,-3
1532065843230,1,1,-1,0,-1,-1,0,-1
1532065843235,-1,0,1,-2,-1,-1,-1,-2
1532065843240,-1,-1,-1,1,-1,-1,-2,0
1532065843245,0,-2,0,-1,-2,1,0,0
1532065843250,-1,-1,-1,-1,0,-1,0,-1
1532065843255,-2,-1,-1,-1,-2,-1,-2,0
1532065843260,-2,-2,-2,-1,-1,-2,-1,-1
1532065843265,-1,1,0,0,1,-2,-2,-2
1532065843270,-1,1,0,1,-1,-2,0,-2
1532065843275,-1,-1,-1,0,1,-1,1,1
1532065843280,-1,1,-1,0,0,0,-1,-1
1532065843285,-1,0,-1,-2,1,0,0,-1
1532065843290,-1,-1,-1,-1,-2,-1,-2,0
1532065843295,0,-1,-2,-3,-1,0,-2,-1
1532065843300,-1,-1,2,-2,-1,-1,-1,-2
1532065843305,-2,0,-1,0,-3,-1,-2,0
1532065843310,-1,-2,-1,-1,0,0,0,-1
1532065843315,0,0,0,0,-1,-2,0,0
1532065843320,-2,0,-2,-2,1,-2,-1,0
1532065843325,-1,-2,0,-3,-1,0,-1,0
1532065843330,-2,-2,0,-2,-1,0,-1,-2
1532065843335,-2,0,0,0,-1,0,-1,0
1532065843340,1,-1,0,0,-1,-2,-1,0
1532065843345,1,-1,-2,-3,-2,-1,0,-1
1532065843350,-1,-1,-1,-1,-1,0,-1,-1
1532065843355,0,0,-1,-1,0,0,1,-1
1532065843360,-2,-1,0,0,-2,1,0,-1
1532065843365,-1,-1,-2,1,-1,-2,0,0
1532065843370,-1,-2,-1,-1,-1,-1,-1,1
1532065843375,0,-1,-1,-1,1,0,0,0
1532065843380,-1,-2,0,-1,-1,-1,-1,-1
1532065843385,0,0,-1,-1,0,0,-1,-3
1532065843390,1,-1,-2,-2,-1,-2,-1,-2
1532065843395,-1,-1,-1,-1,-3,-2,-3,-3
1532065843400,0,-1,-1,0,-2,0,-2,-2
1532065843405,0,-3,0,0,-1,0,-2,0
1532065843410,-2,0,-2,0,-1,1,-1,0
1532065843415,-1,-1,-1,-2,-1,-2,0,0
1532065843420,0,-2,-2,-2,-1,1,-1,-1
1532065843425,0,0,-2,-1,-2,-2,-1,-1
1532065843430,-1,0,-1,-1,0,0,0,-1
1532065843435,0,0,-2,-2,-1,0,-2,-2
1532065843440,-2,-1,-1,1,1,0,-1,-3
1532065843445,2,-1,0,0,0,-1,1,0
1532065843450,-1,-1,-1,-1,0,-1,-1,-1
1532065843455,-1,-1,0,-2,0,-1,-1,1
1532065843460,-1,-2,0,-2,0,-1,2,1
1532065843465,-1,1,-2,0,-1,-1,-3,-2
1532065843470,1,-1,-2,0,-1,-2,-2,-2
1532065843475,-1,0,0,-1,0,0,0,-1
1532065843480,0,0,-1,-1,0,-2,-1,0
1532065843485,-3,-1,1,0,-1,-1,-1,1
1532065843490,0,-2,0,-1,-1,-1,-1,0
1532065843495,-1,-1,-1,0,-1,-1,-1,-1
1532065843500,0,-1,0,-2,-1,0,-2,1
1532065843505,0,1,-2,-1,-1,0,-1,-2
1532065843510,-2,0,0,-2,-1,-2,-1,-3
1532065843515,0,-1,-1,-2,-2,-1,-2,-1
1532065843520,-1,-1,-2,0,-2,-2,1,-1
1532065843525,-1,0,-1,-2,-1,-2,0,1
1532065843530,0,1,0,0,0,-1,-1,-1
1532065843535,-2,-2,0,0,0,-1,-2,-2
1532065843540,-1,-2,-1,0,-1,1,-1,-2
1532065843545,-2,0,0,-2,-1,0,-1,-2
1532065843550,-1,-2,1,-1,-2,0,0,-1
1532065843555,1,-3,-1,-1,0,0,-2,0
1532065843560,-1,0,0,-1,-2,-1,0,-2
1532065843565,-3,-2,-1,0,-2,-1,0,0
1532065843570,-2,-2,0,0,0,0,-2,-1
1532065843575,-2,0,0,-2,-1,-2,-1,-1
1532065843580,0,-2,-1,-1,-1,-2,-1,-2
1532065843585,-1,-2,0,-1,0,-2,-2,-1
1532065843590,-1,-2,-3,-1,0,-1,-1,-2
1532065843595,-1,0,-1,-1,-1,-1,-2,-1
1532065843600,-2,-1,-2,-2,0,0,-1,-1
1532065843605,-2,-1,0,-1,-1,0,-1,-2
1532065843610,0,0,-1,-2,0,-2,-2,0
1532065843615,0,-1,1,-1,-1,-1,-1,-1
1532065843620,1,0,0,1,0,-1,-1,0
1532065843625,-1,0,-2,0,0,-1,0,0
1532065843630,0,-1,-2,0,-2,0,0,-1
1532065843635,-2,-1,-2,0,-1,0,1,-1
1532065843640,-1,0,1,-3,0,-1,-2,0
1532065843645,0,-2,0,-2,-2,-2,1,-1
1532065843650,1,-1,0,-1,-2,-1,0,1
1532065843655,0,-1,-3,0,-2,-2,-1,-1
1532065843660,0,-2,-1,-2,-2,0,1,-2
1532065843665,-1,-1,-1,-1,0,-1,0,-2
1532065843670,-1,-1,0,0,-1,0,-1,-1
1532065843675,0,0,0,-1,-2,-1,0,1
1532065843680,-2,0,0,-1,-2,-1,-2,-1
1532065843685,1,0,-1,-1,1,-1,-1,0
1532065843690,-3,-1,0,0,-1,-1,-2,-1
1532065843695,0,0,0,-3,0,0,0,-1
1532065843700,0,1,-1,1,-1,-1,-1,-1
1532065843705,-1,0,-1,-1,-3,-2,0,-1
1532065843710,2,1,-1,-1,-1,-1,0,0
1532065843715,0,-2,-1,0,0,0,-1,-1
1532065843720,0,-1,-2,-2,0,-1,0,-1
1532065843725,-2,0,-1,0,-1,-1,-2,-1
1532065843730,-1,-2,-2,-3,-2,-1,0,-1
1532065843735,-1,-1,-1,-2,-1,0,0,1
1532065843740,-1,-1,0,-3,1,-2,0,0
1532065843745,-1,0,-1,-1,0,1,-1,-1
1532065843750,-2,-1,0,0,0,-2,1,-1
1532065843755,0,2,0,0,0,-2,-1,-1
1532065843760,-1,-2,-1,0,-1,0,-1,0
1532065843765,0,-2,-1,0,-2,-1,0,-1
1532065843770,0,0,-2,2,-2,-1,-1,-1
1532065843775,-1,-3,-1,0,-3,1,-2,-1
1532065843780,0,-1,-1,0,0,0,-1,-1
1532065843785,-2,-1,-1,0,-1,-1,-1,-1
1532065843790,-1,0,0,0,-2,-1,0,-2
1532065843795,1,-1,-2,-1,-1,-1,0,-1
1532065843800,-1,0,0,-2,1,0,-2,-1
1532065843805,0,-1,-2,0,1,-1,0,0
1532065843810,-1,-2,-1,-1,-3,0,0,-1
1532065843815,-2,-1,0,-1,-1,-1,-1,0
1532065843820,1,-3,0,-1,0,0,-2,0
1532065843825,0,0,-2,-2,-2,-2,0,0
1532065843830,-2,0,-1,0,0,-2,1,1
1532065843835,-2,-1,-2,-1,-2,2,-1,0
1532065843840,0,-1,-1,-1,-1,-1,0,0
1532065843845,-1,-1,0,-1,0,-2,0,-1
1532065843850,-2,-2,-3,-2,-1,-1,-2,-1
1532065843855,0,0,0,0,0,-1,-1,-1
1532065843860,-1,-1,-1,-2,-2,-1,-1,0
1532065843865,-1,-1,0,0,0,0,-1,-2
1532065843870,0,-1,0,-1,-2,-2,-1,0
1532065843875,0,-2,-1,-1,-1,-1,0,-2
1532065843880,-1,0,-2,-1,0,-2,1,0
1532065843885,1,0,-1,-1,-1,0,-1,-1
1532065843890,0,-1,1,0,1,0,0,0
1532065843895,0,0,-1,0,0,-1,-3,-3
1532065843900,-2,-1,-1,-1,0,-1,-1,-2
1532065843905,-1,-1,-1,-1,-1,0,0,-1
1532065843910,-1,-1,-1,-1,-3,-1,-1,-1
1532065843915,-1,-1,-1,-1,0,-1,-1,1
1532065843920,-1,1,1,-1,0,-2,-1,-1
1532065843925,-3,0,-2,0,-1,-3,-2,1
1532065843930,0,1,0,0,-1,1,-1,-1
1532065843935,-2,-2,-1,0,0,-2,-1,-2
1532065843940,-2,-1,-1,0,-2,0,1,-1
1532065843945,0,-2,0,-1,-2,-1,0,1
1532065843950,0,-2,0,-2,-1,-1,-2,-1
1532065843955,-1,0,2,-2,-2,-1,-1,1
1532065843960,0,-1,-1,-1,-2,-1,0,-1
1532065843965,0,-1,0,-2,0,1,-1,-1
1532065843970,-1,-1,-3,1,-2,-1,0,-1
1532065843975,0,0,1,-1,-2,0,0,-1
1532065843980,0,-1,1,-2,-1,1,0,-1
1532065843985,-1,0,-2,-1,-1,1,1,-1
1532065843990,0,2,-1,-1,-1,-1,-1,-1
1532065843995,0,-2,0,-1,0,0,0,0
1532065844000,-2,0,-2,0,-1,-3,-3,-1
1532065844005,-1,0,0,-1,0,-3,1,-2
1532065844010,-2,0,1,-2,-2,1,-1,0
1532065844015,-1,0,-1,0,-1,-2,-1,-1
1532065844020,-1,-1,-1,0,-1,-1,-1,0
1532065844025,0,0,0,0,-1,1,-1,-1
1532065844030,-1,-1,-1,-1,-2,-1,-2,-3
1532065844035,0,-1,-3,-1,0,-1,-2,0
1532065844040,0,-3,0,0,0,0,-2,-2
1532065844045,-2,1,-1,0,-2,-1,-2,-1
1532065844050,0,-1,1,0,0,-2,0,0
1532065844055,0,-2,0,-2,-2,0,0,-1
1532065844060,1,1,0,0,-1,-1,-2,-2
1532065844065,0,-2,-1,-2,-2,-2,-1,-2
1532065844070,-1,-2,-1,-3,-2,-1,-1,-1
1532065844075,-1,-1,-2,0,0,-1,0,0
1532065844080,-1,-1,-2,-1,-1,-1,-1,0
1532065844085,0,-1,-2,1,-2,0,-2,0
1532065844090,-1,1,-1,-1,0,-1,0,1
1532065844095,-1,-1,-1,-2,-3,0,0,-1
1532065844100,-1,0,0,-1,0,1,-1,0
1532065844105,1,-1,-2,-2,0,-2,-1,-1
1532065844110,1,0,0,1,-1,-1,0,-1
1532065844115,-2,2,-1,0,-1,0,-2,-3
1532065844120,-1,-1,-1,-1,-1,-1,-1,-1
1532065844125,-2,-2,0,-2,-2,1,-1,-1
1532065844130,-2,-2,0,-1,1,1,-1,0
1532065844135,-1,-1,-1,0,1,0,-2,-2
1532065844140,-2,-1,1,-2,-2,-2,1,1
1532065844145,-1,-1,0,-1,0,0,-1,0
1532065844150,-1,0,-2,0,-1,-2,-2,-2
1532065844155,-1,-1,0,-1,-3,-1,-2,-1
1532065844160,0,0,0,0,-1,-2,0,-3
1532065844165,-1,-1,-2,0,-1,-1,1,0
1532065844170,-2,-1,-2,-1,0,0,0,-2
1532065844175,0,-1,0,-1,-1,0,0,-1
1532065844180,0,0,-2,0,-1,-1,-2,0
1532065844185,-1,-1,1,-1,-2,0,-2,-1
1532065844190,0,0,-1,-1,-2,-1,-1,-1
1532065844195,0,0,0,0,-1,1,-2,-2
1532065844200,-1,-2,-1,-1,0,-1,-4,-1
1532065844205,-1,-2,0,0,-1,-1,-1,0
1532065844210,-2,0,-1,-1,-1,-1,0,-1
1532065844215,-2,-2,-2,0,0,-3,-2,-1
1532065844220,-1,-2,-2,0,-1,-1,0,1
1532065844225,-1,-2,0,-2,-1,0,-1,-1
1532065844230,-2,-1,-2,-1,-1,0,-2,0
1532065844235,-1,0,-1,0,-1,0,-1,0
1532065844240,-2,-1,-2,0,-1,-1,-1,-2
1532065844245,-1,-1,-1,-1,-2,-1,0,-1
1532065844250,-1,-2,0,-2,1,-1,-1,0
1532065844255,-2,0,-1,0,0,-2,-1,1
1532065844260,-2,0,-1,-2,-3,-1,0,0
1532065844265,-2,-1,-1,0,0,0,-2,-2
1532065844270,0,-2,0,0,-2,1,-1,-1
1532065844275,0,0,-1,-3,-2,0,1,-1
1532065844280,-1,-2,-1,0,-1,-1,-1,-1
1532065844285,-1,0,0,-1,0,-1,0,0
1532065844290,-1,1,-1,-1,-1,0,-1,-1
1532065844295,-1,-1,-1,-1,-1,-1,-1,0
1532065844300,0,-1,0,1,-2,0,-1,-1
1532065844305,0,-1,-2,0,0,-3,0,0
1532065844310,-1,0,-1,-2,-1,-3,-1,0
1532065844315,-1,0,-1,-1,-2,0,0,-1
1532065844320,-1,-1,1,-2,-1,1,-1,1
1532065844325,-1,0,0,-1,-2,0,2,-2
1532065844330,0,-1,-1,0,-1,0,-1,0
1532065844335,-1,-2,-1,-2,-1,0,-1,1
1532065844340,-2,-1,0,-1,0,-1,-2,-2
1532065844345,-1,0,-1,0,0,-1,-1,1
1532065844350,-1,-1,-1,-1,0,-1,0,-2
1532065844355,-1,0,-1,-1,0,-2,-1,-1
1532065844360,0,-1,-1,-2,-2,-1,0,-4
1532065844365,-1,0,-2,-1,-1,-2,-1,-1
1532065844370,1,1,-2,-2,0,-2,0,-2
1532065844375,0,4,1,0,-1,-1,1,-2
1532065844380,-1,-3,-2,0,1,-1,0,0
1532065844385,-2,-6,-3,0,-1,-1,0,-1
1532065844390,-3,-2,-1,-3,-1,0,-1,0
1532065844395,0,0,0,-1,-2,-2,-3,-2
1532065844400,0,2,-2,-1,-1,0,1,-2
1532065844405,-1,2,-1,-1,-2,0,-1,1
1532065844410,-1,-1,-1,0,-2,-1,0,-2
1532065844415,0,-6,-2,-2,-1,-2,0,2
1532065844420,-1,1,-2,0,0,-1,0,0
1532065844425,-1,-2,0,-1,-2,-2,-1,-2
1532065844430,0,2,1,0,0,-1,1,1
1532065844435,-1,0,-1,-1,0,1,0,-2
1532065844440,-1,-2,-1,-1,0,-1,0,-1
1532065844445,0,1,-1,-2,0,0,1,0
1532065844450,-1,-2,-1,-1,-1,-1,-3,0
1532065844455,-3,-3,-1,0,-1,-3,0,-1
1532065844460,0,0,-1,0,-2,-1,-1,2
1532065844465,0,-1,0,-1,-2,-2,-2,-1
1532065844470,0,-2,1,-1,-1,-1,-1,0
1532065844475,-1,-1,-1,-1,-2,1,0,-1
1532065844480,-1,-2,0,-2,-1,0,-1,-1
1532065844485,-1,1,-1,-1,0,-1,-1,-2
1532065844490,0,0,-1,-1,-2,0,1,1
1532065844495,0,2,0,0,-1,0,-1,-1
1532065844500,-1,-1,-2,0,0,-3,-3,-2
1532065844505,0,-2,-1,-1,-2,-3,-3,-1
1532065844510,-1,0,-1,0,-1,-3,-2,-1
1532065844515,-1,-1,-1,-2,0,-1,-2,0
1532065844520,-1,-1,-2,-2,0,1,-1,0
1532065844525,0,-2,-1,-2,0,0,0,-2
1532065844530,-1,1,-1,-1,0,0,0,-1
1532065844535,-1,-2,-4,-1,-3,-1,0,1
1532065844540,0,-2,2,-1,-2,-2,0,-3
1532065844545,-1,-2,-3,0,-1,-3,-3,0
1532065844550,0,-1,-1,-1,-1,-1,-2,-1
1532065844555,-2,0,0,-2,-1,0,-1,-1
1532065844560,-1,0,-1,-1,-2,-1,-1,-2
1532065844565,-2,0,1,1,1,2,-1,0
1532065844570,-2,-1,-1,-1,-2,-1,-1,0
1532065844575,1,-2,-3,0,-2,-1,-1,-4
1532065844580,-1,-1,-1,-2,-1,1,-1,-1
1532065844585,-1,0,0,-2,-1,-3,-3,-1
1532065844590,-1,-1,-1,1,0,-1,0,-1
1532065844595,0,-1,0,-2,-1,-2,0,1
1532065844600,-1,0,0,0,1,-1,0,1
1532065844605,0,-1,-1,-2,-1,0,1,-1
1532065844610,0,-3,-2,-1,-1,-2,-4,-4
1532065844615,-1,0,-2,0,1,-4,-1,-3
1532065844620,1,0,-4,-1,-1,-1,-2,-1
1532065844625,-3,2,5,0,-2,0,-1,-2
1532065844630,2,-3,1,0,-1,1,4,4
1532065844635,1,1,-1,-1,0,0,-1,1
1532065844640,0,0,0,-1,-2,-1,0,1
1532065844645,-1,-2,-2,1,0,1,0,-1
1532065844650,-1,-2,3,0,-1,-2,-3,-2
1532065844655,1,1,-8,-1,0,1,1,0
1532065844660,-1,1,2,-1,-1,1,0,-2
1532065844665,0,0,-2,0,0,1,1,3
1532065844670,-2,-1,0,1,0,-1,-2,-2
1532065844675,-2,-4,3,-4,-1,-1,0,-1
1532065844680,-1,1,2,1,0,-1,-2,-3
1532065844685,-1,-3,-6,-2,-1,0,0,-2
1532065844690,-1,3,2,-1,-1,-2,0,-2
1532065844695,-2,-2,-4,5,-2,0,-3,-2
1532065844700,-1,0,1,-12,-2,0,0,-1
1532065844705,-5,-5,19,2,-4,-5,-3,-1
1532065844710,-1,5,-21,1,-1,2,1,0
1532065844715,-1,-2,9,-7,0,-1,-3,1
1532065844720,0,3,0,4,-1,-1,-1,0
1532065844725,2,-1,-4,3,2,0,1,0
1532065844730,0,-2,2,3,-2,-1,-2,-1
1532065844735,0,5,-2,-15,-1,0,0,-2
1532065844740,-1,-6,-13,-13,2,-3,1,-2
1532065844745,-3,-1,7,20,3,-3,-2,-1
1532065844750,-2,-7,5,10,5,1,-3,1
1532065844755,1,1,-12,-6,-13,-1,0,-1
1532065844760,-2,-2,18,1,4,0,0,1
1532065844765,4,11,-54,-9,-2,-1,2,-1
1532065844770,-2,-19,-6,1,7,-2,-1,-5
1532065844775,-1,-6,1,10,1,-1,-2,-1
1532065844780,-2,2,-15,9,22,3,0,2
1532065844785,2,1,-3,-8,-13,0,-4,2
1532065844790,1,6,-5,-5,-15,-3,-1,-3
1532065844795,0,-2,3,20,27,0,0,-1
1532065844800,0,1,-13,1,-10,1,2,-1
1532065844805,2,2,-3,-26,2,-1,3,-1
1532065844810,-4,1,17,-6,-10,-2,-5,2
1532065844815,-5,-10,6,-4,-11,-2,-4,-1
1532065844820,-1,-1,7,14,16,0,-1,-2
1532065844825,-3,0,7,-2,-8,-4,0,-2
1532065844830,0,1,-5,-4,11,2,3,-3
1532065844835,1,2,-3,5,1,0,2,-1
1532065844840,1,1,8,-7,-10,-5,-2,-2
1532065844845,-1,-7,1,5,12,7,1,-5
1532065844850,-3,2,-3,-28,-38,-5,-2,4
1532065844855,-2,0,0,18,17,2,-1,0
1532065844860,-2,-5,-5,-22,-30,-4,-1,0
1532065844865,1,0,4,10,14,-1,-2,-1
1532065844870,-3,-5,-2,10,14,-2,-1,-1
1532065844875,2,6,7,12,15,-2,2,-2
1532065844880,-4,2,6,-42,-45,-3,-2,-2
1532065844885,-4,-14,-18,-1,-3,-3,-2,0
1532065844890,-1,-2,3,0,0,1,-2,-2
1532065844895,0,-2,-21,-5,-13,-4,-1,0
1532065844900,1,4,22,19,20,-2,-2,-2
1532065844905,1,5,3,9,14,3,-1,0
1532065844910,-1,5,-3,-27,-27,-2,0,3
1532065844915,-9,-14,1,-3,-5,-1,-2,-3
1532065844920,-1,-5,-6,8,6,-1,-1,-2
1532065844925,1,0,8,12,9,0,-1,-1
1532065844930,3,2,1,2,6,-2,1,-3
1532065844935,3,11,11,7,16,5,2,0
1532065844940,2,-1,-6,-1,-33,4,-1,7
1532065844945,-6,5,13,-36,-39,-5,-3,4
1532065844950,9,8,-3,18,25,0,1,2
1532065844955,-22,-6,-4,-16,-13,-4,-4,-6
1532065844960,0,-29,0,47,63,0,1,-10
1532065844965,3,-12,8,-17,-1,2,0,-3
1532065844970,2,20,0,10,-12,1,1,2
1532065844975,4,2,15,-9,-8,-3,-1,6
1532065844980,11,4,-10,16,25,-2,-3,0
1532065844985,5,2,9,12,-12,-5,-2,3
1532065844990,9,38,6,10,18,1,-1,-4
1532065844995,-2,-36,1,7,5,-1,0,1
1532065845000,6,15,4,-4,-3,0,0,1
1532065845005,16,23,3,7,7,0,2,2
1532065845010,-13,-14,-12,-9,-1,0,-2,6
1532065845015,-22,40,-9,5,10,0,2,-3
1532065845020,-11,-36,-16,-21,-16,-8,-5,-21
1532065845025,-29,-22,8,7,-4,-1,-4,6
1532065845030,34,5,-16,1,0,-2,0,-9
1532065845035,6,81,47,-3,3,3,4,19
1532065845040,-33,-50,-47,6,3,-1,-4,-9
1532065845045,-6,-60,9,11,-4,-2,1,-8
1532065845050,-19,-41,-14,-52,-20,-6,-9,3
1532065845055,36,75,-27,-12,-16,-2,-1,-1
1532065845060,-26,37,6,1,-6,1,3,6
1532065845065,-14,-35,-22,7,7,-1,-4,-8
1532065845070,-8,-11,11,11,10,-2,1,-1
1532065845075,6,-22,18,-4,-2,0,1,1
1532065845080,14,38,-35,-1,1,-4,-1,12
1532065845085,15,11,4,1,1,2,-2,-3
1532065845090,1,11,11,7,2,-1,5,0
1532065845095,-19,-6,-7,-3,-1,2,-3,-3
1532065845100,12,-28,13,8,3,0,-3,-2
1532065845105,-1,6,4,-5,0,-2,0,0
1532065845110,7,13,4,1,-3,0,-2,0
1532065845115,-6,-38,-11,0,1,-1,-2,-6
1532065845120,18,14,20,-3,-2,0,2,3
1532065845125,-2,23,-10,-7,-4,-2,-2,5
1532065845130,0,-31,-4,5,2,-2,-10,-11
1532065845135,-14,-30,-1,-1,-1,-1,7,-6
1532065845140,10,7,14,3,2,4,2,2
1532065845145,6,32,-11,-4,-5,-3,-9,3
1532065845150,0,0,6,5,0,-1,4,0
1532065845155,5,-18,-1,2,5,1,3,-1
1532065845160,1,5,7,-1,2,1,5,2
1532065845165,-2,4,-10,0,0,1,5,0
1532065845170,-6,-6,5,1,1,-2,-1,0
1532065845175,5,-17,-3,-7,-5,-3,-6,-5
1532065845180,0,12,6,-1,0,0,-1,1
1532065845185,0,-8,-5,-1,-4,-7,-11,-5
1532065845190,3,1,3,-3,-1,0,7,1
1532065845195,4,3,0,2,3,1,-3,1
1532065845200,1,-3,3,-3,-4,-3,2,2
1532065845205,-1,-5,-20,17,12,3,3,-2
1532065845210,1,11,13,-23,1,-1,-1,3
1532065845215,1,3,-1,9,7,2,1,-1
1532065845220,-5,-7,-10,-10,-7,-6,-3,-2
1532065845225,-2,-7,-35,-2,5,1,7,-1
1532065845230,-1,12,43,-9,-2,1,-5,0
1532065845235,-2,4,16,-58,-54,-12,-7,4
1532065845240,-1,0,3,57,8,6,9,-1
1532065845245,-5,5,9,14,-2,1,-1,1
1532065845250,1,0,2,36,25,3,1,4
1532065845255,3,-5,-3,33,32,-7,4,-4
1532065845260,-1,-13,-28,-98,-5,-6,-5,-4
1532065845265,5,7,27,-2,18,6,5,-2
1532065845270,-2,-2,4,27,-9,-2,-2,-1
1532065845275,-1,-11,-26,39,-20,-2,-9,-2
1532065845280,-3,-9,-39,-45,-46,-8,-6,-4
1532065845285,1,-3,18,53,26,0,3,-7
1532065845290,1,4,14,12,25,3,1,1
1532065845295,2,5,10,-4,11,4,-3,1
1532065845300,-7,-8,-19,-31,-51,-15,-7,1
1532065845305,-1,-3,-8,-57,-39,-3,-2,-1
1532065845310,-2,3,3,22,1,1,0,-2
1532065845315,-4,1,9,21,20,4,4,0
1532065845320,-4,1,27,19,31,11,1,-1
1532065845325,-2,2,3,-16,-19,-2,0,2
1532065845330,-6,-7,-33,-14,-15,-7,-1,-3
1532065845335,-2,-5,4,-8,2,-2,0,-5
1532065845340,-1,5,12,22,20,3,1,-1
1532065845345,-2,1,0,19,21,3,1,-3
1532065845350,-9,-4,-16,-34,-46,-2,-4,1
1532065845355,-3,-7,-14,-17,2,-2,-3,0
1532065845360,-1,5,16,23,5,7,0,-1
1532065845365,-5,-1,7,-2,-25,-5,-3,2
1532065845370,-2,-6,-15,-22,-10,-2,0,-2
1532065845375,1,-5,-3,-1,16,-6,-4,-4
1532065845380,-1,4,11,30,-12,7,2,2
1532065845385,-3,0,-9,-20,-4,2,0,2
1532065845390,1,-3,-8,8,4,-1,-1,-4
1532065845395,-4,-6,-10,-29,-54,-4,-2,2
1532065845400,4,5,14,23,36,0,-1,-3
1532065845405,0,-1,-10,-9,-1,-2,-3,0
1532065845410,1,1,0,7,12,-2,-1,-1
1532065845415,0,0,7,9,15,5,0,-3
1532065845420,0,0,-2,1,-10,-8,-1,3
1532065845425,-1,-2,-5,-32,-43,-3,-3,1
1532065845430,-2,-3,2,9,14,-1,-1,-1
1532065845435,3,-3,3,6,24,-1,1,-2
1532065845440,1,3,-3,-13,-10,3,-1,0
1532065845445,-3,-8,-2,16,20,2,2,0
1532065845450,1,4,3,-1,6,0,-1,-3
1532065845455,-2,3,-4,-1,16,3,1,-3
1532065845460,-1,5,2,-13,-20,-1,-1,-1
1532065845465,3,11,2,4,8,-6,-5,-2
1532065845470,-7,-33,-5,-13,-13,3,1,1
1532065845475,0,8,-3,0,1,-2,-4,-1
1532065845480,-1,17,7,15,29,-1,2,2
1532065845485,-7,-15,-5,-1,-16,-1,-2,-8
1532065845490,2,15,-4,-1,0,-3,-2,-2
1532065845495,2,-13,-2,-2,-9,1,0,-2
1532065845500,5,10,4,4,6,1,-2,2
1532065845505,-1,7,-3,1,9,-2,2,1
1532065845510,-1,4,-4,4,7,0,-1,0
1532065845515,-3,-5,0,-3,-11,-2,0,-1
1532065845520,1,-2,1,-3,-1,-2,-1,-2
1532065845525,-4,-14,-1,5,9,-1,-1,-2
1532065845530,-1,0,-2,-4,-5,-4,-3,-1
1532065845535,2,7,2,-2,-5,4,3,1
1532065845540,-3,-9,-2,1,5,-4,1,-1
1532065845545,2,0,0,-1,5,-2,-3,-1
1532065845550,0,4,2,-2,-2,3,3,1
1532065845555,0,1,0,-5,-4,-1,0,2
1532065845560,-1,-12,-1,0,0,-7,-8,-5
1532065845565,0,-2,-3,-2,-3,-5,-6,-8
1532065845570,-4,-1,-1,3,2,4,6,2
1532065845575,-2,-4,-2,1,1,0,2,1
1532065845580,-1,0,2,3,3,2,5,3
1532065845585,4,4,2,-2,-2,-4,-1,1
1532065845590,-1,-3,-4,-4,0,-1,-5,-3
1532065845595,-2,-3,-1,-2,-3,-2,0,0
1532065845600,0,0,1,1,1,-1,-1,2
1532065845605,1,8,-2,-2,0,3,2,0
1532065845610,-2,1,1,1,2,1,-1,0
1532065845615,1,-3,0,-1,-4,-4,-1,-2
1532065845620,-4,-8,-6,-7,-5,-1,-3,-3
1532065845625,-1,-2,-1,2,4,1,1,2
1532065845630,0,2,0,-1,-2,-1,0,0
1532065845635,0,3,2,0,-4,0,-1,-3
1532065845640,-2,-1,-1,1,3,0,2,-1
1532065845645,1,-4,6,5,4,-1,-1,0
1532065845650,1,-6,-1,-3,1,2,0,0
1532065845655,-5,-16,-5,-5,-6,-5,-5,-4
1532065845660,-2,7,-1,1,0,1,1,0
1532065845665,0,6,2,-1,-1,-1,0,-1
1532065845670,3,13,1,1,-4,-3,-3,2
1532065845675,0,0,0,5,10,2,-1,0
1532065845680,-3,-12,-1,-6,-14,-2,-3,-4
1532065845685,-4,-6,-12,-5,-7,-2,3,3
1532065845690,-3,-13,-5,-2,0,-2,-3,-1
1532065845695,0,3,0,2,0,-2,0,-1
1532065845700,3,5,0,3,6,1,-1,-2
1532065845705,2,1,4,-2,-7,-3,-2,1
1532065845710,-2,-1,0,2,1,-1,3,0
1532065845715,-1,1,-2,0,-1,-3,-1,1
1532065845720,-2,-6,-6,0,4,1,0,-2
1532065845725,1,-16,-1,0,3,0,1,-2
1532065845730,0,-9,-1,-4,-1,0,-2,-2
1532065845735,0,6,0,9,13,1,0,-1
1532065845740,2,7,2,-19,-18,-3,-1,3
1532065845745,2,18,1,2,2,2,-2,0
1532065845750,2,9,-3,-4,-6,-2,0,-3
1532065845755,-4,-18,0,1,-1,2,0,2
1532065845760,3,-6,-1,4,11,0,-1,-3
1532065845765,-3,-3,-12,-9,-11,-3,-1,0
1532065845770,3,6,0,-1,3,2,0,1
1532065845775,6,32,6,0,-1,0,2,0
1532065845780,-19,-59,-11,-4,-9,-3,-4,-6
1532065845785,1,7,4,-2,-2,-2,-3,-3
1532065845790,0,-22,-1,0,-2,0,2,-1
1532065845795,2,-11,0,-5,-6,-2,-1,-2
1532065845800,2,35,5,4,8,0,1,1
1532065845805,-1,6,4,-2,2,-1,0,1
1532065845810,-1,10,-2,-2,-1,-1,-1,-3
1532065845815,-3,-8,-3,-9,-6,1,0,0
1532065845820,3,11,8,7,3,1,0,0
1532065845825,-1,-8,-4,1,9,2,2,0
1532065845830,0,10,0,2,0,-1,-1,0
1532065845835,0,-2,-1,5,2,-1,0,-3
1532065845840,-4,4,1,-16,-11,1,1,-2
1532065845845,-1,-7,1,0,-1,-2,-3,-1
1532065845850,-3,3,3,-2,-4,0,0,2
1532065845855,-4,-35,-4,-5,-2,-4,-2,-2
1532065845860,1,-4,-1,5,4,-2,-1,1
1532065845865,-2,7,0,-3,-3,-3,0,-2
1532065845870,-1,7,-1,-1,2,-4,-1,-5
1532065845875,-3,8,0,-1,-5,0,-3,1
1532065845880,6,0,1,3,2,-1,0,1
1532065845885,1,-2,-2,-3,1,2,1,-2
1532065845890,2,8,-3,3,3,1,-1,-2
1532065845895,1,29,1,-4,-3,-1,4,1
1532065845900,-1,-11,-3,-2,-5,-3,-1,1
1532065845905,-6,-16,-3,4,5,2,-1,-3
1532065845910,-1,-3,-1,-2,-3,-2,-4,-1
1532065845915,0,8,-4,-4,-6,-4,-4,-4
1532065845920,2,6,3,-1,0,0,1,1
1532065845925,-5,1,-2,1,2,3,2,2
1532065845930,-1,-22,-1,0,-2,-3,-3,2
1532065845935,1,-3,-3,-1,-2,0,-1,-1
1532065845940,-4,17,-3,5,4,0,-2,-7
1532065845945,1,1,2,-1,-4,-4,-2,-1
1532065845950,-3,-3,1,-1,-1,1,0,-1
1532065845955,-4,5,1,0,-1,1,1,2
1532065845960,2,-10,-4,-2,-2,-2,-2,1
1532065845965,-2,-6,-3,2,2,0,-1,-1
1532065845970,-3,-6,-2,-2,0,0,-2,-3
1532065845975,0,-5,-4,-1,-1,-2,0,0
1532065845980,1,1,-3,-2,-1,-1,0,0
1532065845985,-4,3,2,-1,-3,-2,-3,-3
1532065845990,2,1,1,-1,-1,-1,-1,0
1532065845995,-7,-12,-5,-4,-2,-3,-8,-4
1532065846000,0,-1,1,3,1,0,2,-1
1532065846005,1,3,-3,-3,-6,-8,-3,3
1532065846010,-4,3,-2,0,-2,0,-1,-2
1532065846015,4,8,1,0,1,0,3,2
1532065846020,-6,-22,-1,2,1,-3,-5,-5
1532065846025,3,5,2,-2,0,-2,-3,-1
1532065846030,0,5,-1,-1,-1,2,1,0
1532065846035,-2,5,0,0,0,1,0,-2
1532065846040,3,6,-2,-2,-3,0,1,4
1532065846045,3,3,0,2,1,1,2,-1
1532065846050,-3,-10,-1,2,1,-3,0,0
1532065846055,-3,6,-5,-2,-2,2,0,-2
1532065846060,-1,-1,3,2,1,0,-2,2
1532065846065,-4,-11,-1,-2,-1,-1,-1,0
1532065846070,0,-1,-2,1,-1,0,1,2
1532065846075,-1,-2,2,1,-1,-3,-1,1
1532065846080,1,0,-2,1,1,0,-1,-2
1532065846085,-2,15,0,-3,-3,0,-2,-2
1532065846090,5,-13,-3,-2,-2,-2,0,1
1532065846095,3,15,1,-2,-1,0,-1,-2
1532065846100,-7,-28,-1,-1,-3,-1,0,-2
1532065846105,-2,-2,-1,3,3,2,2,2
1532065846110,-4,0,-2,-4,-2,-2,-4,-3
1532065846115,2,3,1,-2,-2,0,-2,-1
1532065846120,3,8,1,0,0,-2,-2,-2
1532065846125,-5,-7,2,0,-2,1,-2,0
1532065846130,1,-4,-6,0,1,-1,-2,-3
1532065846135,0,-11,-2,-2,0,0,0,1
1532065846140,-3,12,-1,-2,-1,-2,-2,-1
1532065846145,1,-2,-2,0,-1,0,0,-1
1532065846150,0,18,-1,-1,-2,1,1,2
1532065846155,-5,-25,-3,0,-2,1,0,-2
1532065846160,1,7,-4,0,1,-1,-1,-3
1532065846165,2,7,2,-2,-1,0,0,-2
1532065846170,0,-9,-2,1,-1,-2,-2,-1
1532065846175,-4,2,-1,-1,-1,-1,-2,0
1532065846180,1,0,-1,0,0,0,-2,2
1532065846185,1,-7,-6,-1,0,-2,-3,-2
1532065846190,-2,9,0,-1,0,0,0,-1
1532065846195,-2,-4,-1,1,1,0,3,-2
1532065846200,4,-4,-2,-1,-4,-4,-1,1
1532065846205,0,-3,-6,2,2,-1,2,-1
1532065846210,2,2,1,2,0,0,-1,-1
1532065846215,0,-4,-4,1,-1,-1,-2,2
1532065846220,-4,1,2,3,2,4,2,-1
1532065846225,-2,-12,-2,-3,-2,-3,-3,-4
1532065846230,-5,-7,-1,1,4,3,2,-4
1532065846235,1,8,2,-2,-2,-1,1,-1
1532065846240,2,2,2,-3,-3,-1,-5,1
1532065846245,4,14,1,-3,0,-1,0,1
1532065846250,0,-9,0,0,-1,-2,-2,-2
1532065846255,-2,6,2,1,1,-1,-2,-1
1532065846260,-1,1,2,-2,-1,1,0,-1
1532065846265,-2,-4,-4,1,0,-2,0,-1
1532065846270,-2,3,0,-3,-3,-2,-1,2
1532065846275,2,0,-1,-1,1,1,0,3
1532065846280,-3,1,-1,-2,-3,-3,-5,-2
1532065846285,1,-3,-5,0,-1,-1,-4,2
1532065846290,-4,0,-1,1,1,2,-1,-2
1532065846295,-1,-9,3,0,-1,-4,-5,-2
1532065846300,3,18,-1,-1,-2,0,2,-1
1532065846305,-2,-4,2,1,0,2,1,1
1532065846310,-3,-14,1,-5,-3,-4,-2,0
1532065846315,4,-3,-2,-4,-4,-2,-3,-2
1532065846320,-2,9,0,1,3,3,0,-6
1532065846325,-1,5,1,-1,-2,-3,0,1
1532065846330,-1,-13,0,1,-1,-2,-2,2
1532065846335,-4,-7,-4,-5,-2,-2,0,-2
1532065846340,0,-10,-2,-1,-1,-1,1,1
1532065846345,2,3,5,0,0,0,-5,-11
1532065846350,1,9,3,3,0,3,9,14
1532065846355,0,6,2,-4,-5,-3,-3,1
1532065846360,2,-3,0,3,-1,0,0,2
1532065846365,-5,-21,-2,-2,-2,-1,0,1
1532065846370,4,14,-3,1,-2,-2,-6,-7
1532065846375,-3,1,-1,2,5,3,0,-6
1532065846380,-1,-1,-3,-2,-3,-3,-1,2
1532065846385,-3,-3,5,5,10,-3,0,-1
1532065846390,4,3,-1,-2,0,1,-2,-6
1532065846395,-1,0,3,1,0,-2,0,-3
1532065846400,1,-8,-4,0,-2,1,1,-3
1532065846405,-4,-14,-4,2,-1,0,-2,3
1532065846410,-6,6,0,2,0,-1,0,0
1532065846415,3,-6,0,-5,-3,0,1,-2
1532065846420,3,13,-3,-2,1,-1,0,0
1532065846425,-3,-1,2,-5,-1,-1,-1,-5
1532065846430,1,-11,-2,-3,-5,-2,-2,-1
1532065846435,-6,8,1,1,5,-1,-2,-2
1532065846440,4,-6,-2,2,1,0,3,3
1532065846445,1,8,-4,-5,-4,-1,0,-1
1532065846450,-4,-7,0,0,-2,-3,-2,-2
1532065846455,0,-6,-4,1,0,-3,0,1
1532065846460,-8,-9,-1,-2,0,-1,-3,-4
1532065846465,6,-1,-3,-1,-4,-1,-3,-4
1532065846470,-4,5,1,-2,-1,1,0,-1
1532065846475,-1,1,0,1,2,1,-1,0
1532065846480,-2,-14,-2,0,-1,-2,-1,-4
1532065846485,0,12,1,-1,1,0,2,4
1532065846490,-4,-8,1,-2,-4,-3,-2,1
1532065846495,3,2,0,-2,-1,-1,-2,0
1532065846500,-4,3,-5,-3,-2,-1,0,-3
1532065846505,-1,-1,-1,2,0,-1,-2,-1
1532065846510,3,1,-2,0,2,-1,0,1
1532065846515,-1,-1,0,-1,-4,-1,1,0
1532065846520,0,0,1,0,2,1,3,0
1532065846525,1,4,1,-2,-2,-1,0,0
1532065846530,-1,-1,-1,1,0,3,0,-5
1532065846535,2,2,-1,-1,0,-1,-2,-3
1532065846540,-1,0,0,-2,-1,0,0,2
1532065846545,4,5,-2,1,-1,-1,0,0
1532065846550,-2,-4,-2,-1,-1,0,0,1
1532065846555,-3,-3,-1,-2,0,-1,-2,-1
1532065846560,6,28,0,-2,-4,-3,-2,1
1532065846565,-5,-28,0,0,-2,-2,-3,-3
1532065846570,0,2,-4,0,3,0,2,-1
1532065846575,-3,0,-1,-1,1,-2,0,1
1532065846580,-1,-3,0,-3,-1,-2,-2,-1
1532065846585,3,10,4,0,-1,-1,-1,4
1532065846590,-5,-7,-2,-2,-3,-2,-3,-5
1532065846595,-3,-6,2,0,-1,2,1,-1
1532065846600,2,2,0,2,-1,-1,-2,1
1532065846605,-3,-7,-3,1,1,0,0,0
1532065846610,5,7,3,-2,-2,-1,-1,3
1532065846615,-3,-5,0,-1,0,-1,-1,-3
1532065846620,-1,-4,-2,2,2,1,-1,-1
1532065846625,0,3,-6,-3,-4,-2,-1,-2
1532065846630,-3,-1,1,0,-2,-3,-3,0
1532065846635,0,8,0,-2,-3,-1,-1,-2
1532065846640,1,-14,-3,0,1,1,0,1
1532065846645,-4,-2,2,1,0,2,0,-4
1532065846650,1,6,0,-1,-2,-2,-2,-2
1532065846655,2,1,-3,-1,-1,-1,-4,0
1532065846660,-4,-13,-1,-1,0,-1,0,0
1532065846665,1,7,-3,-2,-2,-2,-2,0
1532065846670,-1,5,0,-1,0,-2,-2,-1
1532065846675,0,-8,-2,0,-1,0,-3,2
1532065846680,0,1,4,0,-1,-1,-3,-2
1532065846685,-1,0,-3,0,-3,1,0,1
1532065846690,0,-2,0,-2,-2,-1,0,-2
1532065846695,-2,-8,-1,1,1,0,3,0
1532065846700,5,5,2,-1,-1,-1,-2,-1
1532065846705,-3,-2,1,1,1,-1,-1,-3
1532065846710,1,-2,-1,-1,-1,-1,0,-1
1532065846715,-3,-4,0,-1,-1,-3,-2,0
1532065846720,-4,-2,-2,-2,-3,-3,-3,-1
1532065846725,1,6,0,-2,0,1,3,2
1532065846730,-2,-15,-1,-2,-2,2,0,-1
1532065846735,9,14,1,0,0,0,-1,1
1532065846740,-5,6,-4,0,-4,-3,-2,-4
1532065846745,0,15,-1,-2,-4,-1,-3,-5
1532065846750,-3,-22,-1,1,0,-1,0,2
1532065846755,0,6,-1,-2,-3,-2,0,2
1532065846760,0,2,-2,-1,-1,0,0,-2
1532065846765,-7,-4,-1,-1,0,0,-3,0
1532065846770,0,1,1,1,-2,-2,-1,1
1532065846775,-2,-4,-3,0,-2,0,-1,-3
1532065846780,0,4,4,2,0,-3,-3,-3
1532065846785,0,1,-8,0,1,0,2,-3
1532065846790,7,7,-1,-1,-1,1,1,1
1532065846795,-8,-20,2,-1,-1,0,-1,-1
1532065846800,-5,-4,-7,-2,-1,0,1,-4
1532065846805,-5,-9,2,-1,-2,-2,1,0
1532065846810,7,2,-4,-1,0,-1,-1,-3
1532065846815,1,8,-2,1,1,-1,0,-2
1532065846820,-1,1,5,-3,0,1,0,3
1532065846825,-1,-18,1,-2,-3,-2,-5,2
1532065846830,-5,-5,-4,-3,-4,-1,-1,-2
1532065846835,2,0,1,-1,0,1,0,-1
1532065846840,-4,2,0,0,-1,2,2,0
1532065846845,2,-2,1,-1,-2,-1,-1,-1
1532065846850,0,-5,-4,0,3,-2,-1,-3
1532065846855,-4,3,0,-2,-2,1,-2,-1
1532065846860,-1,-16,0,-2,-1,-1,-2,2
1532065846865,-1,6,-2,-2,-4,-2,-2,-2
1532065846870,1,1,3,-1,0,0,-2,-3
1532065846875,-2,1,-5,0,1,0,1,-1
1532065846880,-3,-11,-2,-1,-2,-2,-1,0
1532065846885,0,0,-5,-3,-1,1,1,-1
1532065846890,-3,7,2,-1,-1,-1,0,-1
1532065846895,-2,-4,-1,-1,-1,-5,-2,0
1532065846900,0,-2,3,-1,-1,-1,1,0
1532065846905,5,15,0,-1,-2,-2,-3,-5
1532065846910,-5,-3,3,0,-1,0,-1,4
1532065846915,1,-20,-1,1,1,1,-1,-3
1532065846920,1,7,-1,-2,-1,-2,-4,0
1532065846925,-2,-3,2,-1,1,0,-1,2
1532065846930,-3,20,0,1,0,2,2,0
1532065846935,1,-28,-1,-2,-4,-2,-1,-1
1532065846940,0,1,-2,0,1,-1,-2,-2
1532065846945,-1,0,0,0,0,-2,-2,-1
1532065846950,-8,-14,-2,-1,0,0,0,0
1532065846955,7,12,-2,1,1,3,2,0
1532065846960,-1,4,2,-1,-2,0,-2,-4
1532065846965,-6,6,-1,1,0,-3,-2,-4
1532065846970,6,3,-2,0,-3,-4,-2,0
1532065846975,-6,2,1,-1,1,0,0,-2
1532065846980,1,-4,-2,-1,-3,1,1,1
1532065846985,1,5,0,0,-1,0,-2,1
1532065846990,-7,-6,0,-1,-2,-1,-1,-4
1532065846995,8,1,-2,-1,1,-1,-2,0
1532065847000,-3,-2,-1,1,0,0,-1,2
1532065847005,2,-7,-2,-1,-2,-1,0,-3
1532065847010,-6,8,1,-2,-2,0,-2,3
1532065847015,0,11,-1,-2,-2,-1,1,2
1532065847020,-2,-14,-5,1,-1,-1,-1,0
1532065847025,-1,-5,-1,0,-2,-2,-1,-2
1532065847030,1,-2,0,0,-1,-1,-2,0
1532065847035,-4,12,1,-1,-1,-1,-2,-3
1532065847040,-1,4,-3,0,0,-1,0,-1
1532065847045,4,-2,2,1,0,-2,-2,0
1532065847050,-1,6,-2,-1,-1,-2,-2,-3
1532065847055,0,-1,-1,-3,-2,-2,-3,-2
1532065847060,0,4,-2,0,0,0,-2,-4
1532065847065,-4,-6,-1,-1,2,2,4,4
1532065847070,2,-5,-5,2,0,0,1,-1
1532065847075,-6,5,-2,1,-1,-3,-2,-4
1532065847080,0,1,3,-2,-1,-2,-1,-2
1532065847085,-5,1,-2,-1,-1,-1,-2,1
1532065847090,9,-1,-1,-2,-2,-1,-1,1
1532065847095,-3,1,-1,-1,-2,-2,1,-3
1532065847100,4,-6,-2,-1,1,1,-1,1
1532065847105,-3,-4,-4,0,-2,-1,-1,-3
1532065847110,-1,-5,1,1,1,1,-1,-3
1532065847115,-1,4,-3,-3,-4,-1,-1,2
1532065847120,-4,3,0,-1,-1,-4,-1,-2
1532065847125,-2,-6,0,0,0,1,0,-2
1532065847130,-3,-1,0,0,-1,-3,-1,-3
1532065847135,0,-4,-1,-1,-1,-1,-1,-1
1532065847140,-1,-4,-1,-1,-1,2,2,2
1532065847145,0,-2,2,0,1,-2,1,0
1532065847150,-1,-2,-4,-3,-2,0,-1,-1
1532065847155,-1,-3,2,1,-1,-1,-2,-1
1532065847160,0,-3,-4,-3,-1,-2,0,-2
1532065847165,0,1,2,-1,-1,0,-1,0
1532065847170,-1,-1,-1,1,-1,0,2,0
1532065847175,-1,-6,-1,-2,-1,-2,0,1
1532065847180,-3,4,-3,-1,-2,-1,0,-1
1532065847185,0,-6,-2,-3,-3,-2,-2,1
1532065847190,-1,-5,-2,-2,1,-2,-2,0
1532065847195,-1,-2,0,0,0,-1,0,-1
1532065847200,-2,-1,0,1,-1,-2,-1,-3
1532065847205,0,3,0,0,1,0,0,-1
1532065847210,-6,4,2,-2,-3,1,0,-1
1532065847215,5,-7,-3,-1,0,0,-1,3
1532065847220,0,5,-1,1,0,-2,-1,-4
1532065847225,-4,-5,-2,-3,-1,-3,0,-2
1532065847230,1,3,1,-2,0,-2,-2,0
1532065847235,-1,-2,-2,0,1,2,0,-2
1532065847240,-3,-2,1,0,-2,-1,-3,0
1532065847245,5,3,-2,-2,-1,2,1,0
1532065847250,-2,-6,-1,0,-1,-2,-2,-1
1532065847255,-4,-1,0,-2,-2,-2,-4,-3
1532065847260,2,-6,0,-2,0,2,2,1
1532065847265,-2,5,2,-1,-2,0,-2,-2
1532065847270,1,1,1,0,-2,0,0,0
1532065847275,-2,4,1,-1,0,0,-1,0
1532065847280,1,-3,-3,-2,-1,-2,0,1
1532065847285,-3,-11,-3,1,0,0,-2,0
1532065847290,1,-5,-5,-1,1,-2,-2,-1
1532065847295,-2,1,-1,-1,-2,-1,0,-2
1532065847300,-2,-2,0,0,0,0,-1,-1
1532065847305,0,-3,5,-2,-1,0,-1,0
1532065847310,-3,-4,3,-1,-2,-1,0,0
1532065847315,6,12,4,0,0,-1,0,0
1532065847320,-3,-26,0,-3,-2,1,0,3
1532065847325,-1,5,-9,-1,1,-2,-2,-4
1532065847330,0,-10,-8,1,0,-1,0,-2
1532065847335,2,2,-10,-1,-5,-3,-1,3
1532065847340,4,10,1,5,15,5,3,0
1532065847345,3,1,-3,0,1,-1,2,0
1532065847350,0,-4,-4,-1,1,0,-1,-3
1532065847355,-1,-5,-3,1,1,1,-1,0
1532065847360,0,1,-1,-4,-8,-2,-4,-2
1532065847365,-2,1,0,-2,-2,1,-1,0
1532065847370,1,5,3,1,-2,1,-2,-1
1532065847375,-5,-5,3,-1,-3,-1,0,-1
1532065847380,-3,2,0,-1,-2,-2,-1,-2
1532065847385,-6,2,2,-1,0,-1,-3,-1
1532065847390,2,5,3,-1,-4,-1,-2,0
1532065847395,-1,-4,0,-2,2,0,-1,1
1532065847400,-3,9,0,-1,-3,-1,-1,-2
1532065847405,-2,2,-1,-2,-2,-2,-3,0
1532065847410,1,-8,-1,0,1,-1,1,0
1532065847415,-1,2,1,-1,0,-1,-1,-2
1532065847420,1,7,1,0,1,-2,0,0
1532065847425,-2,-3,1,-2,-2,0,-1,0
1532065847430,-4,1,-2,-1,-1,1,-1,-2
1532065847435,-2,-3,-2,0,1,-1,0,-3
1532065847440,-1,-5,-3,-2,-3,-1,-2,1
1532065847445,-1,0,0,-1,-1,-1,0,-1
1532065847450,5,4,0,0,2,-2,-1,1
1532065847455,-4,7,-2,-1,1,1,-1,-3
1532065847460,-2,-2,0,-1,-2,-1,-2,-2
1532065847465,1,2,0,0,0,0,-2,0
1532065847470,-3,5,0,-3,0,-1,0,0
1532065847475,2,-8,0,-2,-2,-1,0,1
1532065847480,1,1,-2,-1,0,0,0,-1
1532065847485,-1,-3,-2,0,0,-2,-2,0
1532065847490,-2,-9,0,0,-4,1,-1,-1
1532065847495,1,1,0,-2,-1,-1,-2,1
1532065847500,-2,-3,-2,-2,-1,0,-1,-4
1532065847505,3,-1,1,1,-3,-3,-1,-2
1532065847510,-3,-3,-2,-1,1,-1,-1,-1
1532065847515,-3,3,0,0,-1,-2,-2,-3
1532065847520,7,3,-1,0,0,-1,0,1
1532065847525,-1,0,0,-2,-1,1,0,-1
1532065847530,0,5,0,-3,1,-2,-2,0
1532065847535,-2,-7,-1,-1,-2,-1,0,-1
1532065847540,-1,-1,-1,0,-2,-1,-1,-1
1532065847545,1,4,-1,0,-1,-1,-1,-2
1532065847550,-1,-5,-2,0,1,-1,-1,0
1532065847555,-4,-1,0,0,0,1,1,-1
1532065847560,-2,2,1,-1,-2,-1,2,-4
1532065847565,4,1,-3,-1,0,0,-1,-1
1532065847570,-2,5,1,-2,-2,-2,-1,-1
1532065847575,-2,-4,-1,-3,-1,-2,-1,-2
1532065847580,-3,1,-1,-2,0,-2,-2,0
1532065847585,-1,-1,-3,0,0,-1,0,-1
1532065847590,-1,-9,-3,-2,0,-1,0,0
1532065847595,1,0,-2,-1,-1,0,0,1
1532065847600,-2,-6,-2,0,0,-1,0,0
1532065847605,-1,2,-1,0,0,-3,-1,-2
1532065847610,0,-4,1,0,-3,0,0,0
1532065847615,0,0,-2,-2,1,0,-1,-1
1532065847620,-1,-2,0,-2,-2,-1,-2,0
1532065847625,2,-6,-1,0,0,-1,-1,1
1532065847630,-2,0,-3,1,-1,0,-2,-3
1532065847635,1,-1,-1,-1,0,-2,0,1
1532065847640,-1,-1,-2,-1,-1,-1,-2,-1
1532065847645,-2,0,1,-1,-2,-1,-1,1
1532065847650,-3,-2,-3,0,-2,-2,-1,1
1532065847655,4,4,0,-1,-1,-1,-1,-1
1532065847660,0,-5,-1,-1,0,-1,-2,0
1532065847665,-2,0,-1,0,-2,0,-1,-1
1532065847670,0,-1,-3,-1,0,0,-1,-2
1532065847675,-1,1,-1,0,-1,-1,-1,-3
1532065847680,0,-8,1,-1,-1,1,0,1
1532065847685,0,8,0,0,1,0,0,-3
1532065847690,-1,-10,0,-2,1,-3,0,0
1532065847695,-2,-1,1,-1,-2,0,-2,-1
1532065847700,-1,2,-3,2,1,-2,-1,-1
1532065847705,-2,-5,1,1,-2,-1,0,-1
1532065847710,-2,3,0,-1,-1,-1,1,-3
1532065847715,0,-1,1,0,-1,-1,0,0
1532065847720,-2,-1,-1,-1,-1,-1,-1,0
1532065847725,-4,-2,-1,-1,-1,-1,0,-1
1532065847730,4,0,-2,0,-2,0,-2,1
1532065847735,-4,-2,-1,1,-1,-1,-1,-1
1532065847740,-1,-1,-1,-1,-1,-1,-1,-1
1532065847745,1,-4,-1,-1,1,-1,0,-1
1532065847750,1,7,0,-1,-1,0,-1,0
1532065847755,-4,-8,-2,-1,1,0,-1,-1
1532065847760,0,-4,-1,-2,-1,0,-1,-2
1532065847765,-2,-4,-2,-1,-2,0,0,-1
1532065847770,0,2,-1,-1,0,-1,-1,-2
1532065847775,0,-4,0,-1,-1,0,0,1
1532065847780,2,4,0,0,-1,-2,-1,-1
1532065847785,-3,-3,-2,-2,-1,-1,-2,-2
1532065847790,0,-4,-1,-1,1,-3,-1,0
1532065847795,2,0,0,0,-1,-2,-2,-2
1532065847800,-1,0,-1,1,0,0,-1,0
1532065847805,1,0,0,-3,-1,-2,-2,1
1532065847810,-5,-1,0,0,-1,-1,1,-3
1532065847815,-2,-9,-1,-2,-1,-2,-4,-2
1532065847820,-1,-4,0,0,-1,-1,-1,-1
1532065847825,1,-5,-2,-1,0,-1,0,-1
1532065847830,-1,1,-2,0,-1,0,0,-1
1532065847835,-2,1,-1,0,-1,0,-1,-1
1532065847840,3,2,0,-3,-1,-1,0,1
1532065847845,-2,2,0,-1,-2,-1,-1,-1
1532065847850,0,0,-3,-2,-1,-2,-1,-2
1532065847855,-2,-3,1,-1,-2,-1,-1,-4
1532065847860,-1,0,-1,0,-4,-1,-2,-1
1532065847865,0,-2,1,-1,-2,1,0,-1
1532065847870,-2,-6,-4,-1,-1,1,-2,-2
1532065847875,0,7,0,-2,-1,-2,2,0
1532065847880,-2,0,1,0,0,-3,0,0
1532065847885,2,-3,1,-1,1,-2,0,-1
1532065847890,-2,2,1,-1,-1,-2,0,0
1532065847895,-1,-8,-2,0,-2,2,0,-1
1532065847900,-3,10,-2,-1,0,-1,1,-1
1532065847905,2,0,0,0,0,-1,0,0
1532065847910,1,-3,-2,0,0,-1,-1,1
1532065847915,-2,0,1,0,-1,-1,0,0
1532065847920,-1,-5,1,0,-1,0,1,-1
1532065847925,0,4,0,-2,-2,-1,-1,0
1532065847930,-1,-2,-1,-1,-2,0,-2,1
1532065847935,-1,2,-1,-1,0,-2,-1,-1
1532065847940,1,-5,1,-3,-2,0,-1,-1
1532065847945,-2,-6,-2,-1,0,-1,-2,-2
1532065847950,4,7,0,-1,-1,0,-2,0
1532065847955,-1,0,-2,-1,0,-3,-1,-1
1532065847960,-1,-5,-1,-1,2,1,1,-1
1532065847965,-3,-4,-1,1,-1,2,0,0
1532065847970,-1,-3,0,-2,0,-1,-1,1
1532065847975,0,-3,-1,1,-1,0,0,-2
1532065847980,-1,-3,-1,0,-1,-2,-1,0
1532065847985,-1,0,1,-3,-3,-1,1,0
1532065847990,-1,0,-1,-1,-2,0,-2,-2
1532065847995,4,7,0,-1,1,-1,-1,-1
1532065848000,-1,3,-3,-1,0,0,-2,-2
1532065848005,-2,2,-1,-1,1,-2,0,-2
1532065848010,-2,-14,-2,0,0,-1,-1,2
1532065848015,-1,3,-1,-1,-1,-2,-1,0
1532065848020,-2,-1,-1,0,-1,-2,0,0
1532065848025,-1,1,-2,0,0,0,-2,0
1532065848030,0,12,2,-2,0,0,0,-1
1532065848035,-2,-8,-1,0,0,0,0,-1
1532065848040,1,-3,-2,-1,0,-1,-1,-2
1532065848045,0,4,-2,0,-1,-1,-1,0
1532065848050,0,5,0,0,-1,-1,0,-2
1532065848055,-1,-5,-3,0,-1,0,-1,-1
1532065848060,-1,2,0,1,-1,-1,-1,1
1532065848065,-3,-11,0,-2,-2,1,0,2
1532065848070,3,0,-1,-1,-1,-3,0,-1
1532065848075,-1,4,0,-1,1,1,-2,-1
1532065848080,-3,-11,0,0,0,0,-1,-2
1532065848085,-1,-2,-1,0,-3,-1,0,-1
1532065848090,-2,-3,-2,0,0,0,-1,-1
1532065848095,-2,-6,-1,-1,-1,-1,0,-1
1532065848100,2,6,0,-3,-2,-1,-1,1
1532065848105,-1,-1,-1,0,0,-1,-2,-1
1532065848110,0,-8,-2,-2,0,-2,-2,1
1532065848115,-1,2,0,0,-1,0,-1,0
1532065848120,-3,-1,1,-3,0,-1,-1,-1
1532065848125,1,2,-1,-1,0,-2,-1,0
1532065848130,-2,5,-1,0,-1,1,1,-2
1532065848135,3,-6,-1,-2,-4,-1,-3,0
1532065848140,0,4,-2,0,-1,-1,0,-2
1532065848145,-2,-3,-1,-1,-1,-1,-2,-1
1532065848150,0,1,-1,-1,0,-2,-1,0
1532065848155,-2,4,-1,-2,2,1,0,-1
1532065848160,0,-4,-1,0,0,2,-1,0
1532065848165,0,-3,-1,0,-2,0,-2,-1
1532065848170,-1,3,-1,-1,-1,0,-2,-1
1532065848175,-4,-5,-1,0,-1,1,-1,0
1532065848180,0,2,-1,-1,-1,-1,0,-3
1532065848185,0,-1,-1,-2,0,-1,0,-3
1532065848190,-3,-6,1,0,0,0,0,-1
1532065848195,1,2,-1,0,-2,-2,-1,-1
1532065848200,-1,0,-2,0,-3,-1,-1,0
1532065848205,0,0,-1,-2,-2,0,-1,-3
1532065848210,-1,-3,-1,-1,-2,-1,0,-1
1532065848215,-3,2,0,-1,-1,-1,0,-2
1532065848220,-2,-7,-3,-1,-1,-1,-1,1
1532065848225,-1,1,-1,-1,1,-1,-2,0
1532065848230,1,-4,-2,-1,-1,1,-2,0
1532065848235,1,3,1,1,-2,-2,1,0
1532065848240,-3,-1,-1,0,1,-1,-1,-1
1532065848245,-3,-8,0,0,-2,-1,0,0
1532065848250,0,2,1,-1,-2,-1,-2,0
1532065848255,1,-2,-1,-1,-2,0,-2,0
1532065848260,1,0,-2,-1,-1,-1,0,-2
1532065848265,-4,-3,-1,0,-2,-2,0,0
1532065848270,0,-3,-2,0,-2,-1,0,-1
1532065848275,1,6,-3,-1,-1,-1,-3,0
1532065848280,-1,1,2,-1,-2,-1,-1,1
1532065848285,-5,-18,-1,-2,-2,-1,-1,-1
1532065848290,2,5,-2,-2,-1,-1,-2,-2
1532065848295,-2,-2,1,-1,-1,-1,-1,-2
1532065848300,-1,-7,-1,-1,-1,-1,0,-1
1532065848305,1,9,1,0,-1,-2,-1,0
1532065848310,-2,-8,-3,-2,0,0,0,0
1532065848315,-2,1,2,-1,0,0,1,-1
1532065848320,1,2,-4,-2,-2,0,-4,-1
1532065848325,2,11,0,0,0,0,-1,0
1532065848330,-2,-4,-2,-1,0,-2,1,-1
1532065848335,-6,-3,1,-1,-1,-2,0,-1
1532065848340,3,1,0,0,-1,0,0,0
1532065848345,-1,3,0,-1,0,0,-1,-2
1532065848350,4,-1,-1,1,-1,-3,-1,1
1532065848355,0,11,-2,-2,0,-2,-2,-1
1532065848360,-2,-19,-2,-2,-1,-1,0,0
1532065848365,-1,3,-2,-1,1,0,-2,-2
1532065848370,-4,4,2,-2,-2,-1,0,0
1532065848375,-2,-6,-3,-1,-2,0,0,0
1532065848380,4,2,1,-1,1,0,-2,1
1532065848385,-1,-5,-2,-1,-1,0,-1,-3
1532065848390,-3,-1,-1,-1,-1,0,-1,-2
1532065848395,1,2,0,-2,-1,0,0,-2
1532065848400,-4,-14,-1,-2,-1,-1,-2,-1
1532065848405,0,2,-2,-2,-1,-1,-1,1
1532065848410,2,7,-1,-1,-1,0,-1,-2
1532065848415,-2,-4,-1,0,-1,0,-1,-2
1532065848420,2,6,-1,0,0,-2,0,0
1532065848425,-2,2,1,-1,0,-1,1,-3
1532065848430,-3,-3,0,0,0,-3,0,0
1532065848435,1,0,-1,-1,0,-2,0,-1
1532065848440,0,0,-2,0,0,-1,1,-2
1532065848445,1,1,-1,-2,0,0,-1,0
1532065848450,-1,-3,0,0,-2,1,-1,-2
1532065848455,1,-7,-2,0,-2,0,1,1
1532065848460,-2,6,-1,0,-2,0,-1,-2
1532065848465,2,-3,-2,1,-1,-1,-3,0
1532065848470,-2,-2,1,-1,0,1,0,-1
1532065848475,-3,-8,-4,0,-1,1,-1,1
1532065848480,1,12,1,0,-1,-1,-2,0
1532065848485,-2,-10,0,0,-1,-1,-1,-1
1532065848490,1,1,0,-2,0,0,-2,-1
1532065848495,-1,-4,0,0,-1,-1,-1,-1
1532065848500,-3,-1,1,-2,-2,-2,0,-2
1532065848505,1,4,-2,0,0,-1,-1,0
1532065848510,-1,0,-1,0,0,0,-1,1
1532065848515,-2,-11,0,-2,-1,0,-1,-2
1532065848520,-1,2,-2,-1,-2,0,0,0
1532065848525,0,-7,-3,0,0,-1,0,1
1532065848530,-1,-3,-1,-2,0,-1,-1,-1
1532065848535,-1,0,0,-2,-1,-2,0,-2
1532065848540,-2,8,-2,0,0,-1,-1,-1
1532065848545,-1,1,-1,0,-1,-1,-1,0
1532065848550,-1,-13,-2,-1,0,0,-1,-1
1532065848555,2,-4,-2,0,0,0,-2,-2
1532065848560,0,0,0,0,0,1,-3,-1
1532065848565,-2,-5,0,-1,-2,1,0,0
1532065848570,0,3,-1,-1,-1,-2,-1,-1
1532065848575,1,8,-1,-1,-1,-1,-2,-1
1532065848580,-3,-9,0,-2,-1,-1,0,-2
1532065848585,2,7,0,-1,-1,0,0,-1
1532065848590,-2,8,-2,-1,-1,-1,-1,-1
1532065848595,-1,-3,-1,-2,0,-1,-1,0
1532065848600,-3,-11,0,-2,-1,-2,-1,-1
1532065848605,6,13,-2,0,-1,0,-3,-1
1532065848610,0,-9,-2,-1,-1,0,-1,-2
1532065848615,-1,1,-2,0,0,-1,-3,-2
1532065848620,0,4,-1,0,-1,1,-1,1
1532065848625,0,-4,0,-2,-1,-2,-1,-2
1532065848630,-1,-2,-2,-1,-2,0,0,2
1532065848635,-2,3,-1,0,-1,0,0,-1
1532065848640,-1,-6,-2,1,-1,0,-1,-2
1532065848645,-2,-4,-1,-2,-1,-1,0,-1
1532065848650,-1,7,1,0,-1,-1,0,0
1532065848655,1,2,-1,-1,-1,0,1,-1
1532065848660,3,4,-2,0,0,-3,0,-2
1532065848665,-3,-15,-1,-2,-2,-2,1,0
1532065848670,1,18,0,0,-1,0,-1,-1
1532065848675,-3,-2,1,0,1,0,0,1
1532065848680,-3,-9,-1,-1,-1,-1,-1,0
1532065848685,1,6,1,-1,-1,-1,0,0
1532065848690,0,-8,0,-1,-1,-1,0,0
1532065848695,1,6,-1,-2,-2,-1,-1,-3
1532065848700,1,5,0,-1,-2,-2,1,-1
1532065848705,-5,-5,-1,1,-1,1,-2,-1
1532065848710,1,-4,-1,-2,-1,-1,0,2
1532065848715,-1,-14,0,-1,0,0,1,0
1532065848720,1,4,-2,-1,1,1,0,-1
1532065848725,-2,6,0,-1,-2,-2,0,-1
1532065848730,0,0,0,1,0,0,-2,-1
1532065848735,2,-4,-1,-1,-2,0,-1,1
1532065848740,-4,9,0,-1,-1,0,0,-1
1532065848745,5,0,-1,0,0,0,-2,0
1532065848750,-3,-10,-1,-1,-2,-1,-2,-1
1532065848755,-2,5,-1,2,1,-1,-1,1
1532065848760,-1,0,1,-2,-2,-1,1,1
1532065848765,-2,-8,-1,0,1,0,-1,-2
1532065848770,1,-1,0,-1,-2,-2,-1,0
1532065848775,-1,-3,-1,0,0,0,-1,-1
1532065848780,-1,-5,0,-1,-1,-2,0,-1
1532065848785,-3,4,-1,0,-1,-2,0,-2
1532065848790,-3,-17,0,-1,0,-1,0,-1
1532065848795,2,8,-1,-2,-1,-1,-3,1
1532065848800,-1,-5,0,0,-1,2,1,-1
1532065848805,-3,-11,-1,-2,0,-1,-2,-1
1532065848810,-1,6,-1,-2,0,0,0,-1
1532065848815,0,-4,-1,-3,-2,-1,-1,0
1532065848820,-2,-1,0,-1,-1,-1,1,0
1532065848825,1,-1,-2,0,-1,-2,-2,-1
1532065848830,-2,4,-1,1,-1,0,0,0
1532065848835,1,-3,2,-1,1,-2,-1,0
1532065848840,-2,-1,-2,0,0,-1,-3,-1
1532065848845,0,-2,-1,-2,-2,0,-1,1
1532065848850,1,-4,-2,0,-1,-1,0,-1
1532065848855,1,8,1,-1,-2,-2,0,0
1532065848860,0,-2,-1,-2,-2,-3,-2,-1
1532065848865,-4,9,0,-2,-2,-2,0,-1
1532065848870,1,-8,-2,-2,0,0,0,0
1532065848875,0,-13,-1,-1,1,2,-1,0
1532065848880,-1,1,-1,-1,0,0,-1,-2
1532065848885,-2,-1,1,-1,-1,1,0,-2
1532065848890,0,7,-1,-1,-1,-1,1,-1
1532065848895,1,15,-1,-1,-2,-2,-2,-2
1532065848900,3,1,1,-1,-1,1,0,0
1532065848905,0,-8,-2,0,-1,1,-1,1
1532065848910,0,3,1,-2,-1,-1,-1,0
1532065848915,-4,-8,-1,-1,-1,1,0,-2
1532065848920,0,3,-3,-1,-2,-2,-3,-2
1532065848925,-3,1,0,-1,0,0,-1,0
1532065848930,2,-10,-3,0,1,1,-2,0
1532065848935,-2,2,-1,-1,-1,0,-1,-3
1532065848940,-2,-14,-4,-1,0,0,-2,2
1532065848945,3,6,-1,-1,-1,-2,-1,-1
1532065848950,-5,-4,0,0,-1,0,0,-2
1532065848955,1,-6,-1,-1,1,1,0,0
1532065848960,-1,1,1,0,-3,1,-1,0
1532065848965,2,9,1,-1,-1,-2,-1,0
1532065848970,0,5,-1,0,0,0,1,-2
1532065848975,-1,7,-1,0,-1,1,-2,-2
1532065848980,-4,-6,0,-1,0,-1,0,-2
1532065848985,-2,1,-1,-1,-2,0,1,-2
1532065848990,-1,0,0,-2,-1,0,0,-1
1532065848995,4,-3,-1,-1,-1,0,-2,0
1532065849000,-3,-3,-1,-2,1,0,-1,-2
1532065849005,-2,-3,0,-2,0,-2,-1,-2
1532065849010,-5,0,-1,-1,-1,-2,-1,-1
1532065849015,6,-6,-2,2,-2,-2,-2,0
1532065849020,0,0,0,0,-3,0,-1,1
1532065849025,-3,-10,-1,0,-1,-1,1,1
1532065849030,0,-6,-1,0,-2,0,-1,0
1532065849035,-1,15,2,0,0,1,0,-1
1532065849040,-1,0,-1,1,-1,-1,0,0
1532065849045,-4,-4,-1,0,0,-1,0,-2
1532065849050,1,3,-1,-1,0,0,0,0
1532065849055,2,-14,-2,-2,-1,-1,-1,0
1532065849060,1,7,0,-2,0,-1,-1,-2
1532065849065,-3,3,0,0,-3,-1,1,-1
1532065849070,1,-5,0,-1,0,-3,-1,-3
1532065849075,-5,-12,-2,-2,-1,0,0,0
1532065849080,0,-1,-1,-2,-2,-1,-1,-1
1532065849085,3,7,-1,-2,-2,0,-2,2
1532065849090,-4,-15,-2,-2,-1,0,-1,-1
1532065849095,0,8,0,0,-1,-1,-1,0
1532065849100,1,4,-1,-1,0,0,-3,0
1532065849105,-1,-18,-2,-1,-1,0,0,-2
1532065849110,0,8,-1,-2,0,-1,-3,2
1532065849115,-2,0,-1,-2,-1,0,0,-1
1532065849120,-3,-4,-2,-1,-1,-2,0,0
1532065849125,1,-2,-1,-1,-1,-1,-2,-1
1532065849130,-3,4,-2,-1,0,-1,-1,0
1532065849135,1,-3,0,-1,-2,-1,2,-1
1532065849140,1,3,0,-2,-1,-2,0,-1
1532065849145,2,-3,-2,-1,0,-1,-1,0
1532065849150,-4,-6,1,-2,-2,-1,2,-2
1532065849155,3,9,-2,-1,0,-1,-3,-1
1532065849160,1,-2,-1,0,0,0,-1,-1
1532065849165,-4,0,-2,-1,0,0,-1,-2
1532065849170,2,1,-1,-1,-2,-1,-1,-2
1532065849175,-2,-2,0,0,0,-1,0,0
1532065849180,-1,-4,0,-1,0,-1,0,0
1532065849185,1,5,0,-1,-1,-1,0,0
1532065849190,1,-4,-2,0,-1,-3,-1,0
1532065849195,-4,-10,-1,0,0,-2,-1,-2
1532065849200,-1,7,-1,-2,-2,0,-1,-1
1532065849205,1,-8,-2,0,0,1,-2,1
1532065849210,0,2,1,0,-1,0,-3,0
1532065849215,-3,0,0,-1,-2,-1,0,0
1532065849220,3,-2,0,-2,0,-2,1,-1
1532065849225,-3,-3,-1,0,-1,0,-1,-2
1532065849230,1,15,0,-1,-1,0,-2,-1
1532065849235,-2,-4,0,-1,-1,0,1,-1
1532065849240,-3,-6,0,0,-1,0,-1,-1
1532065849245,1,4,0,-2,0,-2,-3,-1
1532065849250,2,8,0,0,0,0,-2,-2
1532065849255,-3,-2,-1,-3,-1,-1,-1,1
1532065849260,-3,-5,-1,0,0,-1,0,0
1532065849265,2,7,-1,-1,-2,-3,-2,0
1532065849270,-3,-13,-1,-3,-1,-2,0,-2
1532065849275,1,9,-1,-2,0,0,-2,-1
1532065849280,-4,-7,-1,1,-1,-1,0,-2
1532065849285,0,13,1,-2,-1,-1,-1,0
1532065849290,1,-2,-2,0,-1,0,-1,-1
1532065849295,1,6,0,-1,-2,0,-1,-2
1532065849300,-2,-6,-2,-1,-2,-2,-3,-1
1532065849305,-3,-4,0,0,-1,1,-1,-1
1532065849310,1,1,-1,1,0,-2,0,-1
1532065849315,-1,-9,-2,-1,0,0,1,0
1532065849320,4,9,0,1,-2,0,-2,-1
1532065849325,-1,-6,0,-1,1,-1,0,0
1532065849330,-3,-4,-2,-1,-3,0,0,0
1532065849335,3,6,-2,0,-1,-2,0,0
1532065849340,-3,-1,-1,1,-1,-1,1,0
1532065849345,-2,-6,1,-1,2,0,-1,1
1532065849350,-3,-11,1,-2,0,-3,-1,0
1532065849355,1,16,0,-1,-1,-2,-2,0
1532065849360,-1,-5,-3,-1,0,0,-1,-1
1532065849365,-1,6,-2,-2,-2,-1,-1,-1
1532065849370,0,3,0,-1,-2,-1,-1,1
1532065849375,-3,-9,-1,-1,-1,1,-1,-2
1532065849380,1,0,-1,-2,-1,-3,1,-1
1532065849385,0,-2,-1,0,-1,-1,0,-1
1532065849390,1,6,-2,-1,0,-1,-1,-2
1532065849395,-2,-8,-1,0,-1,0,0,-2
1532065849400,0,4,2,0,-1,-1,-2,-2
1532065849405,0,-3,2,1,-1,-1,-1,-1
1532065849410,-2,-1,-2,-1,-1,0,-1,-1
1532065849415,0,4,2,0,-1,-1,1,0
1532065849420,-3,-6,-2,0,0,0,-1,-1
1532065849425,-1,-8,-1,-3,-1,-1,-1,-2
1532065849430,-2,-4,-1,0,0,-1,1,0
1532065849435,1,6,-2,-1,1,-2,-2,-2
1532065849440,-3,-6,-1,0,-1,1,-1,-1
1532065849445,-1,15,0,-1,-1,-1,-1,-1
1532065849450,3,-8,-3,-1,0,-1,-2,0
1532065849455,-5,-3,-1,-3,0,0,0,-2
1532065849460,2,1,0,-1,-1,-1,0,1
1532065849465,0,0,0,0,-1,-3,-2,0
1532065849470,-2,10,0,-1,0,1,-1,1
1532065849475,-2,1,0,0,-1,-1,-2,-1
1532065849480,-1,-15,-3,-1,-2,-1,-1,2
1532065849485,0,4,-1,0,-2,-1,-1,1
1532065849490,-4,-6,-1,-2,-3,-2,0,-2
1532065849495,3,7,-2,0,-1,0,-2,0
1532065849500,-3,1,-1,-1,0,-1,-1,-2
1532065849505,0,-8,-1,-1,-1,-2,0,0
1532065849510,-1,2,-1,-1,-1,0,0,-1
1532065849515,0,-4,-1,0,-1,-1,0,-2
1532065849520,2,-3,-1,0,0,-2,-1,1
1532065849525,1,2,-1,-1,-1,-1,0,-1
1532065849530,-3,-3,0,-1,-1,-2,-2,0
1532065849535,-2,1,0,0,-3,0,0,-2
1532065849540,2,9,1,-1,-1,-2,-1,-1
1532065849545,-3,1,0,-2,-1,-1,-1,-2
1532065849550,-4,-5,-1,0,-1,0,0,-1
1532065849555,3,-4,-2,-1,1,0,-2,1
1532065849560,-3,-6,-1,-1,-1,0,-2,-3
1532065849565,-2,-8,0,1,0,0,0,-2
1532065849570,1,5,0,-1,-2,-2,-2,-1
1532065849575,0,1,1,-1,-2,-2,2,0
1532065849580,-2,-14,-3,-2,-1,1,0,-2
1532065849585,1,2,-1,-2,-2,0,-2,1
1532065849590,-1,-2,2,-1,2,-1,-1,-1
1532065849595,-2,5,-1,-2,1,-2,-2,-1
1532065849600,-1,2,-1,0,-1,-1,-1,1
1532065849605,-1,-1,-2,0,0,-1,-3,-1
1532065849610,-1,-10,-1,-1,-1,-1,-2,0
1532065849615,-3,10,-2,-2,-1,0,-1,-2
1532065849620,3,0,-1,-1,-1,-1,1,-2
1532065849625,-2,0,-2,-1,-3,0,-1,0
1532065849630,2,7,0,-1,-1,0,-2,-1
1532065849635,-3,-10,0,1,-1,-1,0,-2
1532065849640,-3,4,0,0,-2,1,1,-3
1532065849645,1,-4,-1,0,1,-2,1,-2
1532065849650,-2,7,-1,0,-1,-1,0,-1
1532065849655,0,-7,-2,-2,-1,0,-1,0
1532065849660,-2,13,-1,-1,0,-1,-2,-1
1532065849665,-3,-4,0,-1,1,-1,-1,0
1532065849670,0,1,-2,-2,-1,-2,-1,-1
1532065849675,-1,-18,0,0,-2,-2,0,0
1532065849680,-1,11,-1,-2,0,-2,0,0
1532065849685,2,-1,-1,-1,-1,-1,-1,-2
1532065849690,-2,-14,1,-1,0,0,-1,-2
1532065849695,-3,4,0,0,0,0,-2,0
1532065849700,-1,-10,0,0,-1,-2,-2,-1
1532065849705,1,-2,-2,-1,0,-1,-1,-2
1532065849710,2,2,-1,-1,-2,-2,-1,0
1532065849715,-2,-3,0,0,1,0,0,1
1532065849720,0,-2,2,-1,-1,-1,0,0
1532065849725,-3,-13,0,-2,-1,0,0,-1
1532065849730,4,9,-1,0,-2,-2,-1,1
1532065849735,-2,11,-1,-1,0,-2,-1,-1
1532065849740,-2,-13,0,-2,-3,-2,-1,-1
1532065849745,-4,0,-3,-1,-2,-1,1,-2
1532065849750,3,-11,-2,-1,-2,-1,0,0
1532065849755,1,11,-1,0,1,-1,-1,-1
1532065849760,-2,2,0,-2,0,0,-2,0
1532065849765,2,7,0,-1,-1,-1,-2,-1
1532065849770,-1,-1,0,-1,-2,-2,1,-1
1532065849775,-1,-2,0,-1,-1,-1,-1,0
1532065849780,-1,-2,-2,-1,-1,-1,0,1
1532065849785,-1,1,-1,-2,-1,-1,-3,-2
1532065849790,-2,1,0,-1,1,-2,-1,-1
1532065849795,-2,-3,-1,-1,-1,1,-1,-1
1532065849800,0,0,-2,-1,-1,-2,1,-2
1532065849805,-2,3,0,-1,-1,0,0,0
1532065849810,-2,-6,-1,-2,0,1,-1,-2
1532065849815,0,0,-1,-1,-3,0,0,-1
1532065849820,-2,-1,-2,-1,1,1,0,-1
1532065849825,-1,-11,-1,-1,0,0,-1,0
1532065849830,-3,4,-1,-1,0,-1,0,-1
1532065849835,3,5,0,-1,-1,-1,-1,-1
1532065849840,0,0,-3,0,0,0,-1,-1
1532065849845,-1,5,-1,-3,-2,-2,-1,-2
1532065849850,-3,-11,-2,-1,0,0,0,0
1532065849855,-4,1,0,-2,-2,-2,0,-2
1532065849860,1,-17,-2,-2,-2,0,-2,-1
1532065849865,-1,12,0,0,-1,-2,-1,-3
1532065849870,1,1,0,0,-1,0,0,-1
1532065849875,-1,0,0,-1,-2,-3,-1,-1
1532065849880,-1,8,1,-1,-2,0,-1,-1
1532065849885,1,-9,-1,0,-1,1,0,1
1532065849890,-2,1,1,0,0,0,-2,-2
1532065849895,-4,-6,1,-1,-1,0,-1,-2
1532065849900,0,1,1,-2,-2,-2,0,-1
1532065849905,4,4,1,-1,-1,-1,-1,-1
1532065849910,-1,-2,-2,0,-1,1,0,-2
1532065849915,1,0,-2,-1,0,0,0,-1
1532065849920,-4,3,-2,0,1,-2,-1,-1
1532065849925,2,1,-1,1,-2,-1,-1,1
1532065849930,-2,6,-1,0,-2,-1,-1,0
1532065849935,-5,-28,-3,-2,-2,-1,0,-3
1532065849940,5,15,-1,-1,1,0,-3,0
1532065849945,-3,3,0,-1,-1,-1,-2,-2
1532065849950,2,1,0,-1,-2,-1,-4,0
1532065849955,0,-2,-2,0,1,-1,2,0
1532065849960,-2,2,-2,-1,0,-1,1,-1
1532065849965,0,-3,-2,-1,0,-1,0,-1
1532065849970,1,0,1,-2,0,-1,-1,0
1532065849975,-2,5,-1,0,0,-1,-2,-2
1532065849980,-3,-17,-1,0,-2,-1,0,-1
1532065849985,4,10,-1,0,0,1,1,1
1532065849990,-3,0,-1,-1,-1,-1,0,-2
1532065849995,2,-3,-1,-1,-3,-1,-1,0
1532065850000,-1,-2,1,-2,-1,-1,-1,1
1532065850005,0,-2,0,-2,-3,-3,-2,0
1532065850010,-4,6,1,0,-1,0,0,0
1532065850015,-3,-8,-3,-1,0,-2,-1,-2
1532065850020,2,7,0,0,0,1,-1,0
1532065850025,-2,-8,1,0,0,-1,-2,-3
1532065850030,1,3,-1,-1,0,-2,-1,1
1532065850035,-3,-1,-2,0,-1,0,1,-1
1532065850040,-1,7,-1,-2,-1,0,1,0
1532065850045,1,4,-2,0,-2,-1,-2,0
1532065850050,0,-17,-1,0,-1,-1,0,-2
1532065850055,0,-2,0,-1,-2,-2,-1,-1
1532065850060,0,-6,-4,0,0,-1,1,0
1532065850065,-2,3,-1,-1,-2,-2,-2,-2
1532065850070,-3,-3,0,-1,-1,-1,2,-2
1532065850075,3,3,0,-2,-1,-1,1,-1
1532065850080,1,-5,-4,-1,0,-2,0,-1
1532065850085,-2,1,-2,0,-1,-1,-2,-2
1532065850090,-1,-1,0,-1,-2,-1,-3,-2
1532065850095,-2,-5,-1,1,-1,-1,-2,-1
1532065850100,-3,-8,1,1,0,0,1,-1
1532065850105,1,-4,-2,-2,0,-2,0,1
1532065850110,0,9,-1,-1,-1,-1,-5,0
1532065850115,-1,-4,-1,2,1,2,2,0
1532065850120,-2,2,2,-1,-2,-2,-2,-3
1532065850125,2,-1,-2,0,0,1,-1,-1
1532065850130,0,11,-2,0,0,-1,0,0
1532065850135,-4,-9,0,-2,-1,-2,-3,-1
1532065850140,0,5,-1,0,-2,-2,-1,-2
1532065850145,-2,-4,-1,-1,0,2,2,0
1532065850150,4,-13,-1,0,0,1,0,0
1532065850155,1,13,1,-1,-1,0,0,-3
1532065850160,-2,-14,0,1,-1,-1,-1,0
1532065850165,-3,5,1,-1,-2,-1,-1,-1
1532065850170,1,-2,0,-2,-2,-2,-2,0
1532065850175,-1,0,-2,-1,-1,-1,-2,-2
1532065850180,-1,-10,-2,1,-2,-1,0,1
1532065850185,2,9,1,-1,-1,-1,0,0
1532065850190,-5,-7,-2,-1,0,-1,1,-1
1532065850195,1,13,1,-1,-2,0,-1,-1
1532065850200,-2,-13,-2,-2,-1,-2,-3,-1
1532065850205,0,-4,0,1,-1,-1,-1,0
1532065850210,-1,-8,-3,0,1,2,0,-1
1532065850215,-2,5,-1,0,1,2,2,1
1532065850220,0,0,0,-3,-2,-2,-3,-1
1532065850225,1,3,0,-3,0,1,1,0
1532065850230,2,-10,-2,-2,0,-1,-3,-1
1532065850235,-3,-6,-1,0,0,-2,-2,0
1532065850240,-1,-10,-1,-1,0,-1,0,-1
1532065850245,0,2,-3,0,1,-1,-2,-2
1532065850250,-1,12,2,-1,-3,0,-1,-2
1532065850255,-1,-6,0,-2,-2,0,-2,-2
1532065850260,4,18,-2,0,2,0,1,0
1532065850265,-3,-23,-2,0,-1,0,-2,0
1532065850270,1,1,0,1,-2,-1,-1,1
1532065850275,-2,-7,-1,0,-2,-3,0,0
1532065850280,-4,10,0,0,0,1,-1,1
1532065850285,1,-10,-1,-2,-2,-2,-1,-2
1532065850290,-2,5,-1,0,1,0,1,-1
1532065850295,1,-12,-2,-2,0,0,-1,0
1532065850300,-2,3,0,-1,-1,0,-3,-2
1532065850305,0,-5,1,-2,-1,-4,0,0
1532065850310,-3,4,-1,-1,0,-1,0,0
1532065850315,-3,-4,-1,-3,-1,0,-2,-2
1532065850320,0,-1,-3,0,-1,-1,3,-2
1532065850325,-4,3,-1,-2,-2,-2,-6,-1
1532065850330,-1,2,-2,0,0,-1,1,0
1532065850335,-1,-6,-1,-1,-3,-2,0,-1
1532065850340,-1,5,0,-1,-1,0,0,-2
1532065850345,0,-7,-4,1,0,0,0,1
1532065850350,0,10,0,-1,-1,-1,-2,-2
1532065850355,0,-16,-2,1,-1,-2,-1,-2
1532065850360,-1,6,0,-1,-2,-2,-2,-2
1532065850365,-1,5,1,0,0,-1,0,-4
1532065850370,-2,-12,0,-1,-2,-1,-2,-1
1532065850375,-3,4,-2,-2,-3,-3,-4,-2
1532065850380,3,-1,-2,1,0,0,1,0
1532065850385,0,11,-2,0,2,-1,1,-1
1532065850390,1,-1,-1,0,0,2,0,-1
1532065850395,-1,1,0,0,-1,2,-2,0
1532065850400,-1,-2,1,-1,-2,-4,-4,-1
1532065850405,1,5,1,-1,-2,-1,-2,-1
1532065850410,0,-3,-2,-1,2,2,2,1
1532065850415,2,8,0,-1,-1,1,0,1
1532065850420,-2,-12,-2,0,-2,1,0,-2
1532065850425,2,7,1,-1,-2,0,-2,-2
1532065850430,1,3,-3,-3,-2,-4,-6,-1
1532065850435,-2,-2,0,2,2,0,2,0
1532065850440,0,10,-1,-1,-1,-1,-1,-1
1532065850445,-3,-3,0,-1,-1,0,-1,0
1532065850450,-1,-12,-1,-2,-3,-2,-3,-2
1532065850455,2,9,-3,-2,-1,-1,0,0
1532065850460,-1,-7,-1,0,0,0,2,0
1532065850465,1,6,1,-1,1,-1,0,0
1532065850470,-1,0,0,-2,0,1,1,1
1532065850475,2,-3,0,0,0,-2,0,-1
1532065850480,1,-5,-1,0,-1,-1,-3,0
1532065850485,0,-5,0,-2,-2,-1,-1,-1
1532065850490,-3,-3,-2,0,-1,1,0,-1
1532065850495,-2,-1,-1,0,-1,0,0,0
1532065850500,1,10,-1,-2,-2,-1,-1,-1
1532065850505,-2,-8,-2,-1,0,-1,-2,0
1532065850510,-2,7,1,0,-1,-3,-2,-3
1532065850515,-3,3,0,-2,0,-1,1,0
1532065850520,-5,-35,0,-1,-1,-2,0,-1
1532065850525,2,12,-1,1,1,-1,-3,0
1532065850530,-3,-3,0,1,-1,-2,-1,0
1532065850535,-1,1,-1,-3,-2,0,-1,-2
1532065850540,-1,1,-3,-1,0,-1,1,0
1532065850545,-4,-2,0,1,0,0,-4,-1
1532065850550,1,-5,0,-1,-1,0,2,0
1532065850555,0,2,1,-2,-1,-1,0,-2
1532065850560,-1,7,-1,-2,-1,-1,-3,-2
1532065850565,-2,-7,1,-2,-1,0,-1,-2
1532065850570,3,5,1,2,5,-1,2,-1
1532065850575,-2,-7,-7,0,-4,0,1,0
1532065850580,-2,5,1,3,0,-1,-1,2
1532065850585,0,-8,-2,-2,-2,-1,-1,-1
1532065850590,-4,9,0,-1,-7,-4,-4,0
1532065850595,2,-3,0,-1,4,0,-1,1
1532065850600,2,7,-1,-3,-1,-2,0,-2
1532065850605,-3,-3,-1,2,4,1,4,-1
1532065850610,3,3,-1,-2,3,-1,0,-2
1532065850615,0,-2,-2,-2,-2,1,-3,-1
1532065850620,-3,1,-1,0,-2,-1,-2,-1
1532065850625,4,1,0,-1,-1,0,1,1
1532065850630,-3,-6,-1,-1,0,0,-1,1
1532065850635,-5,4,2,1,-3,-1,-2,-2
1532065850640,6,-1,-2,-2,-1,-1,-1,-2
1532065850645,-5,-13,0,-1,-1,0,-1,-1
1532065850650,1,-1,-2,1,-1,-1,-1,1
1532065850655,-2,3,0,1,0,-2,-2,-2
1532065850660,-4,2,-1,0,0,-1,-1,-1
1532065850665,-3,2,2,-2,-4,0,1,-2
1532065850670,2,-7,0,-3,-3,-1,-2,0
1532065850675,-1,10,-1,0,1,-2,-2,-1
1532065850680,1,-9,-4,-2,-1,0,1,0
1532065850685,0,5,-1,-1,-2,-3,-1,-1
1532065850690,0,1,-2,-1,0,0,-1,0
1532065850695,0,5,0,0,1,0,0,-1
1532065850700,-3,-5,1,-2,-2,0,-1,-2
1532065850705,-1,1,-1,-1,-1,-3,0,-1
1532065850710,-1,-14,-3,0,1,-2,0,-1
1532065850715,3,5,1,-1,0,-1,-3,0
1532065850720,-2,8,2,-1,0,0,-2,-1
1532065850725,2,1,-2,-1,-1,0,-2,1
1532065850730,-6,3,0,-2,-2,-2,-4,-4
1532065850735,1,-19,-1,0,-3,-1,2,0
1532065850740,1,-1,-1,0,1,-1,0,0
1532065850745,-2,7,-1,1,0,-2,-2,-3
1532065850750,-4,-11,-2,-2,-1,-1,1,-2
1532065850755,2,6,-1,-1,-1,-1,-1,-1
1532065850760,-2,4,2,-1,-1,0,1,-2
1532065850765,-3,-12,0,-2,-1,0,0,0
1532065850770,6,5,-1,-1,-1,-1,0,-1
1532065850775,-3,-8,-1,-2,0,-1,-2,-1
1532065850780,-5,-19,-1,-1,-1,-2,0,-1
1532065850785,5,7,-2,-1,-1,-2,-1,1
1532065850790,-4,-2,1,-1,0,0,-2,0
1532065850795,0,-6,-2,-1,0,-2,-2,2
1532065850800,1,4,-2,-1,0,-1,-4,-1
1532065850805,-3,-1,0,-1,-4,-1,1,-2
1532065850810,0,-3,-2,-1,-1,0,-1,-1
1532065850815,0,1,-1,0,-1,-1,1,-1
1532065850820,1,3,0,-1,-2,-1,-1,1
1532065850825,-5,-5,-3,0,0,0,0,1
1532065850830,1,14,1,2,-3,-2,-2,0
1532065850835,-2,-5,-2,-2,-1,-3,-1,-4
1532065850840,-3,-2,-1,-1,-1,-2,-2,0
1532065850845,0,5,1,-1,-1,-1,0,0
1532065850850,2,3,-1,-2,-1,0,0,1
1532065850855,0,4,0,-1,0,0,0,1
1532065850860,1,1,-1,0,0,-2,0,0
1532065850865,1,11,0,-4,-2,-2,-1,-2
1532065850870,0,6,-1,-2,-3,-2,0,-4
1532065850875,-1,-25,-4,0,-2,0,-3,1
1532065850880,1,5,-3,-2,0,0,-1,-1
1532065850885,-1,-2,2,0,-1,0,0,-1
1532065850890,-4,-1,-3,-1,-1,-1,-2,0
1532065850895,-3,6,0,0,-1,0,-2,0
1532065850900,-1,-1,0,-1,-3,-2,-1,-1
1532065850905,0,-4,-3,-1,0,-1,-1,0
1532065850910,-3,-1,1,0,0,-2,-2,1
1532065850915,4,9,0,-1,-1,0,0,2
1532065850920,3,-10,1,0,0,0,1,3
1532065850925,-5,-1,0,-2,-1,0,-2,-2
1532065850930,3,2,-3,-1,1,0,-1,-2
1532065850935,-3,-13,1,-1,-3,-1,1,-2
1532065850940,-5,3,-4,-1,1,0,-1,-1
1532065850945,-1,-6,-1,1,-1,0,-1,1
1532065850950,0,-12,1,-1,0,-1,0,-2
1532065850955,-4,1,2,-1,1,0,0,-1
1532065850960,3,9,-6,-2,0,-2,-4,-4
1532065850965,6,-6,2,1,-2,0,1,4
1532065850970,-5,1,2,1,-1,-1,0,-1
1532065850975,2,7,-2,-1,-1,-2,-3,0
1532065850980,1,1,21,2,0,2,3,1
1532065850985,-1,1,-3,-4,0,-3,0,-1
1532065850990,1,-13,3,1,-1,-1,-3,2
1532065850995,-5,4,-2,0,1,0,-1,-3
1532065851000,4,-1,-4,-2,-2,-1,1,0
1532065851005,-9,-5,-22,-3,-1,-2,-1,-4
1532065851010,-3,-2,1,-1,-1,-2,-1,1
1532065851015,-1,-11,3,-2,-3,-1,0,-2
1532065851020,-1,10,-8,-1,0,-1,0,-2
1532065851025,-4,-11,0,0,0,0,-1,-1
1532065851030,5,16,2,0,0,1,0,0
1532065851035,-2,-6,-6,-4,-5,-2,1,-2
1532065851040,-4,5,-7,-3,-2,-2,-4,-1
1532065851045,3,-7,6,2,0,-1,0,2
1532065851050,0,-6,-3,0,0,0,2,-1
1532065851055,-3,4,1,0,0,0,-2,-1
1532065851060,8,10,-13,-5,0,-2,-3,-1
1532065851065,-1,-15,10,3,1,1,0,-2
1532065851070,-4,-3,2,-1,-1,-1,-1,-1
1532065851075,-3,-10,-3,-1,1,-2,-2,-1
1532065851080,5,8,-13,-3,-2,-2,0,-2
1532065851085,-2,8,-2,-2,-4,-1,2,0
1532065851090,2,-12,-4,-1,0,-1,1,2
1532065851095,7,18,4,1,2,0,-1,-1
1532065851100,-9,-9,1,-1,-3,-3,-4,-4
1532065851105,1,6,0,-3,-1,0,-1,-1
1532065851110,-4,7,2,0,-2,-1,-1,-1
1532065851115,8,15,-7,-3,-2,0,1,1
1532065851120,-4,-7,6,1,2,2,1,0
1532065851125,3,-3,-5,-1,0,0,-3,1
1532065851130,-22,-12,0,-2,-2,-1,-2,-4
1532065851135,6,10,3,0,0,1,1,0
1532065851140,-5,-22,-2,3,0,1,-1,1
1532065851145,-4,-2,6,-1,-2,0,2,0
1532065851150,12,10,-2,-3,-3,-1,-2,-2
1532065851155,-11,-4,-2,0,0,-1,-1,1
1532065851160,1,3,-9,-1,-2,-1,-2,1
1532065851165,3,13,19,4,1,0,1,-1
1532065851170,12,-36,5,2,0,1,0,1
1532065851175,-3,-4,5,0,0,1,-2,0
1532065851180,-4,-4,7,-2,-1,-1,1,-2
1532065851185,-2,-21,3,-3,0,-2,0,0
1532065851190,-3,13,2,-2,-3,0,0,-2
1532065851195,0,-5,1,-1,-2,-1,1,-3
1532065851200,0,9,-3,-1,-2,-2,-2,1
1532065851205,1,-3,-1,-1,-1,0,1,-1
1532065851210,-3,-5,4,-1,-1,-1,3,-3
1532065851215,1,-4,-3,0,-1,1,-3,-1
1532065851220,-7,-11,-2,-1,0,-1,-5,0
1532065851225,3,8,-2,-3,-2,-3,-1,0
1532065851230,-3,3,-2,-1,0,0,-2,-3
1532065851235,0,0,-3,0,1,0,-4,0
1532065851240,3,-6,-2,-2,-1,1,1,-1
1532065851245,-3,4,0,-1,-1,1,3,-2
1532065851250,-8,-14,-4,0,-1,2,-2,-2
1532065851255,6,1,2,1,-1,-3,-1,-1
1532065851260,3,-12,-1,-4,-4,-3,-2,-2
1532065851265,-9,0,4,2,4,3,-1,0
1532065851270,0,-1,-2,-1,-1,-3,-3,-2
1532065851275,-4,-19,-2,-2,-2,-1,0,-2
1532065851280,-11,12,-9,-2,-3,-3,-1,-1
1532065851285,10,-24,5,1,2,-1,-4,2
1532065851290,2,5,8,-2,-2,0,0,0
1532065851295,1,7,0,-1,-1,-1,1,-2
1532065851300,-3,4,-3,2,3,0,-2,0
1532065851305,-5,8,-4,-3,-2,-3,-1,-2
1532065851310,9,18,-6,-2,-3,-1,3,1
1532065851315,1,-5,-3,-2,-1,-2,-4,-2
1532065851320,-2,16,3,0,1,1,1,-1
1532065851325,-7,18,-5,-1,1,-1,-5,-2
1532065851330,1,-10,3,0,-2,-1,1,-1
1532065851335,0,14,-1,-3,-5,0,0,-2
1532065851340,-1,-4,-4,-2,1,-1,-2,0
1532065851345,-1,-5,-2,-1,-1,0,1,-3
1532065851350,0,-3,2,-1,-2,-2,0,-2
1532065851355,-2,-6,-1,0,0,-1,-1,0
1532065851360,2,28,-4,0,1,-1,-4,-2
1532065851365,-2,-12,5,-2,-3,0,3,-1
1532065851370,1,-7,-1,-2,-1,0,-2,-1
1532065851375,2,19,-7,-2,-1,-1,-1,1
1532065851380,-1,13,-1,-1,-1,-1,1,0
1532065851385,1,-21,-1,1,0,1,0,0
1532065851390,-3,0,11,4,2,0,0,-1
1532065851395,-2,15,0,-1,-1,-1,0,-2
1532065851400,-2,-18,2,-2,-2,0,1,0
1532065851405,3,3,-2,-1,1,1,-1,2
1532065851410,-3,10,-4,-3,-3,-1,-2,-4
1532065851415,-1,1,-5,-1,1,1,2,-1
1532065851420,-2,-18,2,-1,-2,-3,1,0
1532065851425,0,17,-4,0,1,-1,-4,0
1532065851430,0,-16,0,-2,0,-3,0,2
1532065851435,-3,1,0,0,1,-2,-2,-1
1532065851440,-6,-11,-12,-4,-2,0,0,1
1532065851445,4,-9,-1,-2,-3,-3,-2,-2
1532065851450,1,22,-5,-1,0,1,0,-1
1532065851455,0,1,-1,1,0,-1,-4,-2
1532065851460,-4,-1,-1,-1,-2,-1,-1,-2
1532065851465,0,-4,1,-1,-1,-2,1,-1
1532065851470,-2,-13,0,1,2,0,-1,-1
1532065851475,-1,8,0,0,-1,-2,2,2
1532065851480,1,-10,3,0,-1,0,-2,-1
1532065851485,-7,1,1,-1,0,0,0,0
1532065851490,5,-4,-2,-2,0,-1,0,-1
1532065851495,0,-2,-2,-1,0,0,-2,-1
1532065851500,1,30,1,1,1,-1,1,0
1532065851505,1,24,-6,-2,-2,0,0,-1
1532065851510,-3,-27,-1,1,-1,-1,0,-1
1532065851515,-1,6,-2,-3,-1,-1,-4,-1
1532065851520,0,-34,2,1,-1,-1,1,0
1532065851525,-1,-15,2,-2,0,0,0,0
1532065851530,-4,16,1,-2,0,-3,-1,-1
1532065851535,-1,6,1,-1,-4,-2,0,0
1532065851540,2,-1,-4,-2,-1,1,-1,-2
1532065851545,0,0,-1,0,1,-1,0,0
1532065851550,-5,-16,-10,0,-4,0,-2,-1
1532065851555,2,-10,4,0,-1,-2,0,0
1532065851560,-3,-10,-1,-2,-1,-2,-1,0
1532065851565,-1,13,-3,-2,1,-2,-3,-1
1532065851570,2,28,-2,-1,-1,-1,-1,0
1532065851575,-4,-17,-8,-2,-1,0,0,-3
1532065851580,1,12,-2,-1,-1,-2,-4,0
1532065851585,4,1,1,-1,-3,0,-2,0
1532065851590,0,-17,2,-1,-1,0,1,0
1532065851595,0,22,0,-1,-1,0,-1,-1
1532065851600,3,-6,-1,-1,-1,-3,-1,-1
1532065851605,0,1,2,-1,-1,-1,1,-1
1532065851610,0,2,-1,-1,-1,0,-1,-1
1532065851615,-1,-21,-2,1,0,1,-2,-1
1532065851620,-7,-15,-2,-1,-1,-3,-1,-2
1532065851625,0,3,-1,-1,-1,0,0,1
1532065851630,0,-6,-1,0,-1,-1,-1,2
1532065851635,9,5,2,-2,-1,-1,-1,-2
1532065851640,-10,4,-1,-1,-1,0,0,-4
1532065851645,0,23,2,1,-1,0,-1,-2
1532065851650,6,11,1,-2,-2,-1,-1,-1
1532065851655,0,3,0,0,-2,-2,-1,2
1532065851660,5,32,-3,-3,-3,0,0,-3
1532065851665,-6,-19,-7,1,0,-1,-2,-3
1532065851670,-3,8,2,-1,-1,-3,0,-1
1532065851675,8,-10,0,0,0,-2,-1,0
1532065851680,-9,8,1,0,-1,-2,-3,-2
1532065851685,-1,-14,-4,-1,-2,-2,-1,-1
1532065851690,6,0,13,1,-1,0,0,0
1532065851695,-10,13,-1,-2,-3,0,-2,-4
1532065851700,-1,1,0,-1,0,1,0,0
1532065851705,2,-29,-3,-1,-2,-2,0,1
1532065851710,-2,10,-4,-1,0,-1,-4,-3
1532065851715,13,0,-2,0,0,-1,0,0
1532065851720,-32,-29,-3,1,1,-1,-2,1
1532065851725,14,28,5,-1,-5,0,1,-3
1532065851730,-7,-14,-3,-2,0,-1,-2,-2
1532065851735,3,0,0,1,-2,0,0,2
1532065851740,-1,-2,4,-1,0,2,3,-3
1532065851745,-1,-24,0,-1,-1,-1,-2,3
1532065851750,-2,11,-3,0,-2,-3,-1,-3
1532065851755,-2,15,-13,-4,-1,-1,-1,-1
1532065851760,18,14,0,-1,-1,0,-1,0
1532065851765,-14,-54,-10,-3,-1,-3,-3,-5
1532065851770,9,10,3,0,-1,-1,-3,0
1532065851775,-13,-12,1,1,2,-1,-1,-3
1532065851780,15,8,-2,-1,-2,0,-2,2
1532065851785,3,3,0,0,1,1,0,1
1532065851790,4,-21,2,0,-3,2,2,-1
1532065851795,-17,-22,-1,-3,-2,-2,-2,-3
1532065851800,-19,-64,-3,-1,1,-1,-5,-4
1532065851805,17,39,1,0,1,-1,1,1
1532065851810,-53,-9,-1,0,1,-1,0,-6
1532065851815,0,-32,3,-1,-1,-1,-1,12
1532065851820,-1,9,-1,1,0,0,2,2
1532065851825,20,32,3,0,-1,-1,3,4
1532065851830,-33,-13,-2,-1,-3,-2,-1,-3
1532065851835,40,47,1,-1,1,0,-2,-2
1532065851840,9,-1,9,2,1,-1,0,-2
1532065851845,-2,-1,-4,0,0,0,-5,-3
1532065851850,28,-19,-1,1,2,0,2,8
1532065851855,-19,5,4,2,1,1,1,-6
1532065851860,6,-28,-5,-3,-3,-2,1,1
1532065851865,-10,9,3,1,-1,-3,-3,-4
1532065851870,17,6,-1,-2,0,3,-1,3
1532065851875,-10,-8,-1,-2,-3,-1,-2,-1
1532065851880,2,-4,-6,-4,-2,-1,-3,-4
1532065851885,-6,-14,6,-1,-2,2,0,-1
1532065851890,-17,-24,-7,-1,1,2,-1,9
1532065851895,-7,5,5,-1,-3,-4,-3,-5
1532065851900,3,1,-4,0,0,-1,-3,4
1532065851905,27,-2,-2,0,0,2,3,3
1532065851910,-15,26,0,-4,-1,0,2,-17
1532065851915,10,-16,-3,3,2,0,-2,0
1532065851920,-8,43,3,-2,-1,-1,2,15
1532065851925,10,-19,-2,-4,-1,-3,-6,-27
1532065851930,57,9,-2,-1,0,-2,1,9
1532065851935,-74,19,1,0,1,3,3,-8
1532065851940,0,-1,0,0,-2,-4,0,-11
1532065851945,-21,-8,-5,-1,-1,0,1,7
1532065851950,-1,-5,9,2,-1,0,-1,-3
1532065851955,22,1,1,-3,-4,-1,0,3
1532065851960,18,-1,2,0,-4,0,1,5
1532065851965,-56,23,-5,2,1,-1,-2,4
1532065851970,-31,-10,-6,0,0,-2,-5,-6
1532065851975,12,1,-3,-3,0,1,3,26
1532065851980,11,-30,2,1,2,0,-1,-18
1532065851985,26,12,0,3,2,-1,-2,9
1532065851990,-5,-5,-1,-3,-1,-2,-2,-23
1532065851995,-11,-34,1,1,2,1,1,-17
1532065852000,16,-15,-5,-1,0,-1,-2,22
1532065852005,20,1,0,-2,-2,-3,2,2
1532065852010,-28,28,2,-3,-2,-1,-1,3
1532065852015,-17,19,-1,-1,-2,-1,0,25
1532065852020,52,-15,-4,0,1,1,0,-34
1532065852025,-7,-23,1,-1,-2,-2,-3,-1
1532065852030,42,29,-1,0,2,0,1,7
1532065852035,-32,-16,-10,-3,-4,-3,-5,1
1532065852040,-25,44,5,-2,-3,-2,3,7
1532065852045,28,-29,-8,-2,-1,1,-3,0
1532065852050,-3,18,1,1,2,0,0,25
1532065852055,-5,38,-2,-2,-4,-2,-4,-43
1532065852060,-27,3,1,-2,-2,0,-2,-10
1532065852065,-2,-2,-4,0,1,0,0,4
1532065852070,35,-16,0,1,1,0,5,11
1532065852075,-32,-13,1,-4,-3,-2,-2,-4
1532065852080,-51,1,2,-1,0,-1,1,-8
1532065852085,-6,0,0,-2,-2,-2,-1,-9
1532065852090,-7,-18,-1,1,0,-1,-1,2
1532065852095,32,-13,2,-1,0,0,1,4
1532065852100,-14,-6,-6,-2,-1,-2,-5,-10
1532065852105,0,7,5,-1,-2,-1,-2,5
1532065852110,-46,45,-3,-2,-2,1,3,3
1532065852115,54,-21,-1,1,0,0,1,1
1532065852120,20,9,0,0,1,0,-2,20
1532065852125,-13,-42,-2,-2,-3,0,3,-9
1532065852130,1,-13,-2,-2,-1,-1,-2,-3
1532065852135,-35,13,0,3,3,0,-1,-1
1532065852140,55,5,1,0,-2,0,-2,-2
1532065852145,35,16,-1,-1,-3,-3,-2,14
1532065852150,-35,-11,0,0,3,0,1,-15
1532065852155,-12,-38,-5,0,1,1,1,26
1532065852160,-3,2,2,0,0,1,-2,-18
1532065852165,-64,-13,0,-3,-5,0,-2,-18
1532065852170,64,25,-3,1,0,0,-5,-1
1532065852175,32,26,6,-3,-4,0,1,10
1532065852180,-2,-57,7,2,1,-1,-2,-16
1532065852185,-36,11,-3,-2,-1,-4,-1,-14
1532065852190,-31,8,0,-2,-2,-2,-3,8
1532065852195,19,-2,3,0,-2,-3,-3,-18
1532065852200,11,5,-9,-1,0,-2,-2,3
1532065852205,18,1,-1,3,3,2,3,7
1532065852210,-7,-4,0,-1,-1,-1,-1,-1
1532065852215,-32,-11,1,0,-1,0,2,1
1532065852220,0,15,-3,-2,1,-1,1,4
1532065852225,8,9,3,-2,-3,-2,0,-5
1532065852230,10,-23,-11,1,3,0,-6,10
1532065852235,9,2,0,-1,-2,-1,0,-8
1532065852240,-33,14,-1,0,-2,1,2,9
1532065852245,68,-13,-1,0,2,0,1,-5
1532065852250,-19,6,0,1,-1,-3,-4,-12
1532065852255,8,16,0,-1,1,1,-2,2
1532065852260,2,-13,0,-2,-1,-3,-1,5
1532065852265,22,24,0,-3,-2,0,3,27
1532065852270,-65,-25,-4,-2,0,-2,-2,-20
1532065852275,-8,1,2,-2,-3,-1,2,-5
1532065852280,17,18,2,0,0,0,2,28
1532065852285,20,0,-2,1,3,2,-3,-1
1532065852290,14,25,7,-1,-7,-3,-1,-14
1532065852295,0,23,-2,0,1,1,-2,9
1532065852300,10,14,-6,-3,-3,-3,-1,30
1532065852305,-2,-4,-3,0,-2,-2,-9,-42
1532065852310,-17,-21,3,-3,-2,-2,-1,-29
1532065852315,48,0,1,-3,-1,-1,-2,0
1532065852320,-77,-29,-3,-3,-2,-1,-2,-6
1532065852325,24,36,0,4,4,0,-2,0
1532065852330,-13,-48,-3,-3,-2,-1,3,3
1532065852335,26,5,-2,-1,-2,-1,-1,-8
1532065852340,49,-6,-6,0,0,-2,-4,-14
1532065852345,-35,-57,-2,-1,-3,-1,1,18
1532065852350,25,37,0,0,0,0,-4,0
1532065852355,-2,-4,-4,-1,1,0,-2,5
1532065852360,31,-3,1,1,-1,0,-1,-8
1532065852365,-22,12,1,-2,-2,0,2,3
1532065852370,30,-3,1,0,-2,1,2,9
1532065852375,30,4,-1,-3,-3,-1,3,14
1532065852380,-83,-2,1,-2,-1,-1,-2,-19
1532065852385,-51,-34,-3,2,0,0,0,-3
1532065852390,80,13,-2,-3,-4,-4,-4,-1
1532065852395,6,15,1,0,1,0,7,30
1532065852400,1,0,-3,2,1,1,-3,-17
1532065852405,-6,27,2,-2,1,-2,-1,-1
1532065852410,-34,-45,4,0,-3,0,4,17
1532065852415,20,14,-7,1,2,-2,-4,12
1532065852420,55,22,4,-1,-3,0,-4,-50
1532065852425,-71,-32,-5,-3,-2,-2,-4,-1
1532065852430,23,32,2,-2,-2,0,2,0
1532065852435,-19,-1,1,1,2,0,-3,-3
1532065852440,-17,-38,-5,-2,-2,-1,-1,-20
1532065852445,35,37,4,-2,-3,-2,-1,0
1532065852450,-35,-8,-1,-1,1,-1,-3,-6
1532065852455,-36,-40,1,1,2,2,1,-14
1532065852460,4,38,-1,-2,-1,-2,0,19
1532065852465,34,1,-2,-1,-1,0,0,6
1532065852470,18,-9,-3,0,0,0,-2,-7
1532065852475,24,14,4,0,-3,-1,-3,3
1532065852480,-84,-29,1,0,-2,-2,1,7
1532065852485,51,31,-3,-2,1,-2,-3,-8
1532065852490,-50,31,-1,-2,-2,-4,0,18
1532065852495,-45,-22,2,-2,-3,0,-2,-61
1532065852500,47,6,0,0,-1,-1,0,7
1532065852505,-31,3,-2,-1,-1,-1,-2,2
1532065852510,10,1,0,-1,-1,0,0,-2
1532065852515,-14,-4,-2,-1,0,-1,1,8
1532065852520,6,-7,0,-1,-1,-3,-3,7
1532065852525,-31,-25,4,-1,-2,1,3,-8
1532065852530,12,-2,-8,-4,-2,-4,-1,28
1532065852535,-57,-6,-4,-1,-1,-2,-7,-12
1532065852540,2,-5,1,1,-1,2,3,-4
1532065852545,52,-2,0,1,0,2,3,27
1532065852550,-18,-7,-2,0,0,1,0,-24
1532065852555,-17,-12,-2,-1,-2,-1,3,44
1532065852560,49,31,-1,-3,-1,-3,-3,-3
1532065852565,-18,-11,-5,0,0,-2,-1,-8
1532065852570,-36,-21,-2,0,0,0,-2,-9
1532065852575,38,-5,0,-3,-3,-2,-3,-1
1532065852580,-13,6,1,0,-2,1,9,16
1532065852585,8,-5,-2,-2,-4,-3,-8,0
1532065852590,-20,-3,0,2,3,0,5,-15
1532065852595,26,-12,-5,-2,0,-2,-1,28
1532065852600,-38,-22,2,0,1,1,-4,-4
1532065852605,-3,-1,-2,-4,-2,-3,-1,-7
1532065852610,9,2,2,-1,-3,-1,-3,2
1532065852615,34,21,-1,1,-1,-1,0,25
1532065852620,51,-26,-3,0,1,-1,-5,-29
1532065852625,-15,-12,-1,-1,-1,1,-1,1
1532065852630,13,3,2,1,-1,1,0,-2
1532065852635,-19,11,-2,-1,-2,-3,-5,-15
1532065852640,-45,-11,-1,-2,-2,-3,4,7
1532065852645,4,5,-1,1,1,1,-1,-8
1532065852650,-13,5,-1,-2,-3,-3,-2,-5
1532065852655,-11,-17,2,-3,-4,-2,1,3
1532065852660,35,12,-3,1,2,2,5,9
1532065852665,5,4,-1,1,3,1,-4,-10
1532065852670,21,1,-2,-1,0,-2,-1,29
1532065852675,-22,6,1,0,-1,-2,-4,-46
1532065852680,6,0,1,-1,-1,-2,3,5
1532065852685,5,3,0,-1,-1,-1,5,30
1532065852690,23,-2,-1,-2,-1,1,0,-6
1532065852695,10,-4,0,-1,-1,0,-3,-1
1532065852700,-24,0,-2,-1,-2,0,-1,-7
1532065852705,-30,0,-3,-1,1,-1,0,-5
1532065852710,9,3,0,-2,-4,-1,-4,2
1532065852715,25,-8,-4,-1,0,0,-3,1
1532065852720,-19,-1,-1,-1,0,-3,-3,-3
1532065852725,-5,9,-1,0,0,-1,0,2
1532065852730,2,-1,-1,2,0,-1,-1,-3
1532065852735,-6,-3,-2,1,2,0,0,-10
1532065852740,1,1,1,-7,-4,-1,-3,4
1532065852745,-14,-4,1,0,-1,-1,3,-3
1532065852750,4,-14,-2,-1,-1,-3,-1,8
1532065852755,-22,-5,-2,0,-1,-2,1,-12
1532065852760,29,4,-2,-1,1,-2,-2,-9
1532065852765,11,-3,-2,0,-2,-1,0,12
1532065852770,40,6,-3,-1,-1,1,-1,7
1532065852775,-35,1,1,3,-1,0,1,-18
1532065852780,-10,-1,1,0,-2,-1,-1,-1
1532065852785,-15,-4,-3,-6,-1,1,0,-3
1532065852790,27,9,0,1,0,0,0,5
1532065852795,24,5,1,0,-4,-2,0,3
1532065852800,-23,3,-1,-2,-1,0,-1,1
1532065852805,34,9,-1,1,2,1,1,-1
1532065852810,-9,10,2,2,0,-1,-3,-1
1532065852815,-14,-9,-1,-2,-1,0,-2,0
1532065852820,3,0,-1,4,-1,0,-2,-2
1532065852825,23,3,-1,-3,-1,-2,-4,-6
1532065852830,0,-5,-3,-4,-3,0,1,-3
1532065852835,-13,1,0,0,-1,0,-2,0
1532065852840,42,7,2,-2,-4,-4,-3,5
1532065852845,-8,-7,2,2,-3,-2,-1,-6
1532065852850,24,4,-1,1,1,1,-1,2
1532065852855,-31,-6,-4,-1,2,1,-1,-2
1532065852860,-6,-2,0,-3,2,3,3,2
1532065852865,4,3,-2,-1,-1,-1,-2,-4
1532065852870,-7,1,-2,5,2,0,-2,1
1532065852875,22,6,-1,-5,-4,-4,-3,-1
1532065852880,-8,-13,-1,7,-5,1,-2,-2
1532065852885,15,8,-6,-11,-2,-2,-2,-2
1532065852890,-6,-4,0,-2,-1,0,-3,-3
1532065852895,19,1,1,0,-1,1,5,1
1532065852900,-3,-3,0,9,4,0,-1,1
1532065852905,-27,-3,0,-3,0,-1,-2,0
1532065852910,-11,-1,-4,-5,-9,-5,-1,-2
1532065852915,7,-7,-1,-3,0,-1,0,0
1532065852920,-35,-6,-3,-2,2,-2,0,-1
1532065852925,7,7,4,4,-1,3,1,-1
1532065852930,-18,-4,1,-4,2,-1,-1,-2
1532065852935,4,8,-3,9,4,0,-1,0
1532065852940,-18,-14,-6,1,-5,-4,0,1
1532065852945,15,-1,2,-1,-5,-3,0,-6
1532065852950,9,0,0,4,3,1,0,2
1532065852955,9,8,1,-1,0,-2,-4,1
1532065852960,2,3,2,-10,-3,1,3,-3
1532065852965,-6,-3,-4,4,-1,-1,-1,0
1532065852970,-14,-3,0,1,0,-2,-5,-2
1532065852975,11,-3,4,-5,-4,-2,1,-1
1532065852980,11,5,1,2,2,4,-1,-1
1532065852985,-25,-5,-1,0,5,0,-2,0
1532065852990,0,-3,-5,-6,-2,-3,-2,0
1532065852995,1,-1,1,2,-1,0,2,-2
1532065853000,4,2,-1,-1,0,-3,-2,-1
1532065853005,-11,-2,2,19,4,1,-4,-2
1532065853010,-9,-3,-2,-62,-9,2,4,-3
1532065853015,9,0,-2,3,0,-1,0,1
1532065853020,-2,-1,-1,1,1,-2,-4,1
1532065853025,-7,-4,3,-11,-2,0,1,-2
1532065853030,-1,3,5,18,2,-4,-2,0
1532065853035,1,-3,-4,-3,-4,-3,-5,0
1532065853040,5,0,-1,-9,5,5,1,-1
1532065853045,-7,-4,1,8,-2,2,6,0
1532065853050,-3,0,-2,10,4,-2,-5,-2
1532065853055,0,-2,-2,-4,0,1,0,0
1532065853060,0,-1,0,5,-7,-6,-2,-2
1532065853065,-3,-2,1,0,38,-5,-3,-2
1532065853070,-2,0,8,21,43,12,2,-5
1532065853075,-2,-3,-20,-39,-94,-5,-1,5
1532065853080,0,1,-4,-1,-8,-2,1,3
1532065853085,-9,-4,-7,-7,-24,-1,-4,0
1532065853090,1,-1,5,5,13,-7,-2,-3
1532065853095,4,1,11,16,44,1,-2,-6
1532065853100,1,1,0,-2,7,-6,-3,-5
1532065853105,-3,-1,1,1,10,10,2,-1
1532065853110,-5,-2,-6,-2,-35,-1,0,0
1532065853115,0,-1,-4,2,1,2,0,3
1532065853120,-3,-3,-4,-8,-16,-7,-3,1
1532065853125,1,-1,5,-3,-8,-1,-5,-5
1532065853130,-3,0,-4,2,0,0,3,2
1532065853135,-1,-1,0,6,-13,7,4,2
1532065853140,1,0,-6,-8,4,-8,-2,0
1532065853145,-3,-3,1,-1,12,-6,0,-3
1532065853150,-6,-5,-7,-7,-48,-1,-5,2
1532065853155,1,-1,2,2,5,-10,-4,-1
1532065853160,3,2,6,-5,25,10,3,-1
1532065853165,0,3,1,37,18,1,2,1
1532065853170,-3,-3,-9,-24,-20,-4,-2,-1
1532065853175,-3,-4,5,41,32,-3,-5,-4
1532065853180,-1,-1,-5,-25,-24,-2,-1,1
1532065853185,-2,-1,-1,-11,-13,-3,-3,2
1532065853190,1,0,5,13,20,2,5,0
1532065853195,1,3,5,6,0,0,1,-2
1532065853200,-1,0,2,6,22,2,-1,-3
1532065853205,-1,0,-4,-7,-10,9,1,-1
1532065853210,-3,-3,-9,-32,-25,-2,0,3
1532065853215,-1,-1,1,22,4,1,-1,1
1532065853220,0,-1,2,22,-3,0,-3,-1
1532065853225,-2,-4,-6,-60,-4,-5,-2,-5
1532065853230,2,1,1,16,12,-2,0,-4
1532065853235,-1,-2,-6,-2,34,2,0,-2
1532065853240,-3,0,3,-21,-22,1,2,2
1532065853245,-1,2,0,31,-2,-1,-5,1
1532065853250,-1,0,1,6,12,-4,-3,-1
1532065853255,0,-3,-17,-12,7,-3,-1,-3
1532065853260,0,-4,-1,5,-12,0,-1,-3
1532065853265,-3,-2,-4,-11,-27,-6,3,2
1532065853270,0,-1,-6,-20,-9,-2,-3,-1
1532065853275,6,4,12,12,37,5,4,-3
1532065853280,-10,-11,-10,-23,-34,-7,-7,1
1532065853285,-3,-1,-8,15,-21,-3,-8,3
1532065853290,2,1,13,11,3,-3,-2,-1
1532065853295,0,0,-11,-24,-4,2,3,0
1532065853300,3,3,5,12,20,4,1,-2
1532065853305,-5,-23,-6,-4,2,0,0,-4
1532065853310,-1,-1,0,8,9,3,-2,-2
1532065853315,-3,1,-1,-7,-2,0,0,2
1532065853320,7,36,5,8,4,1,0,0
1532065853325,-3,-6,-3,2,-11,-1,2,1
1532065853330,-4,-8,-3,5,4,-1,2,-1
1532065853335,-1,-9,-4,-9,-5,-3,-5,-1
1532065853340,2,21,2,3,5,-2,0,1
1532065853345,-1,-4,-1,-1,-2,-4,-2,-1
1532065853350,1,4,-1,1,2,-2,0,-1
1532065853355,-3,-16,-3,-5,-7,0,-4,-1
1532065853360,-2,16,1,5,1,-1,-2,-2
1532065853365,-1,4,-1,-2,1,3,1,-1
1532065853370,-2,-5,-2,1,1,2,0,1
1532065853375,-5,-14,-2,-3,-2,0,-1,-2
1532065853380,1,11,1,-1,-3,-3,-1,-1
1532065853385,-2,3,-2,-2,-1,-1,-3,-1
1532065853390,-6,-5,-1,4,3,1,0,1
1532065853395,-4,-10,0,-3,-5,-2,0,-1
1532065853400,-3,14,1,0,1,-1,-1,-1
1532065853405,3,2,1,-2,0,2,1,1
1532065853410,-5,1,0,2,0,-1,0,-2
1532065853415,-4,-22,-4,-3,-5,-2,-1,-7
1532065853420,1,6,1,-1,1,0,0,-1
1532065853425,-1,-1,-1,0,-1,0,0,1
1532065853430,9,-2,1,-1,-4,0,-1,-1
1532065853435,-10,-1,0,0,1,2,0,1
1532065853440,40,10,-1,-2,3,-2,-1,3
1532065853445,5,0,1,-1,-2,-2,-1,-2
1532065853450,3,1,-2,0,-2,1,0,1
1532065853455,12,2,-1,-1,-3,0,-1,-2
1532065853460,-8,-1,1,2,2,-1,-1,-5
1532065853465,-1,-2,0,-3,-1,3,3,-1
1532065853470,7,-2,-2,-2,0,0,-1,1
1532065853475,-6,-4,0,1,-3,-4,-1,0
1532065853480,-7,-1,-1,-1,-1,0,1,-1
1532065853485,5,0,-3,0,-3,0,-2,1
1532065853490,-33,-8,1,-2,-2,-3,-8,-8
1532065853495,-25,-5,2,0,4,3,7,14
1532065853500,-3,14,-1,4,1,-1,-5,-14
1532065853505,-4,-11,-2,1,1,-1,0,-1
1532065853510,-1,0,-2,-1,-1,-4,-4,-9
1532065853515,21,6,2,-1,-3,1,2,20
1532065853520,-17,1,1,0,0,0,1,0
1532065853525,0,15,4,-4,-2,0,-1,-22
1532065853530,-3,1,-8,1,2,0,2,18
1532065853535,-1,-18,-9,-2,-1,-3,-9,-12
1532065853540,0,-32,-4,-9,-2,-3,-3,0
1532065853545,-7,-23,-10,-2,-4,-5,-5,-6
1532065853550,9,16,8,1,0,0,1,-5
1532065853555,4,16,1,2,2,0,3,9
1532065853560,-7,9,5,0,-2,1,1,-1
1532065853565,-11,7,-1,-2,0,0,-3,-7
1532065853570,1,-6,-2,0,-1,-2,-3,-8
1532065853575,1,5,3,-3,-5,-3,-2,-7
1532065853580,-6,0,-2,-2,-2,0,0,-2
1532065853585,5,1,0,1,0,0,-2,8
1532065853590,-8,-4,-2,2,1,1,1,2
1532065853595,-6,3,0,-1,-2,-1,-4,-10
1532065853600,1,7,-2,-1,-1,-1,-1,3
