1532067465086,-4,2,-6,2,2,0,0,0
1532067465091,3,0,6,-5,-2,-3,-3,-3
1532067465096,-2,-1,3,-3,-3,-1,0,-2
1532067465101,-2,-10,5,-15,-2,-2,-1,-2
1532067465106,-3,-11,-1,3,-1,1,0,2
1532067465111,2,-22,3,-2,-1,-1,0,-1
1532067465116,0,40,13,0,-2,0,-2,-3
1532067465121,-3,-24,-1,4,3,0,0,-2
1532067465126,3,22,9,0,0,-2,1,-1
1532067465131,0,-19,-7,-3,-1,-2,-1,-1
1532067465136,-3,13,9,-1,-1,0,0,-4
1532067465141,-3,-31,0,-6,-4,0,-1,-1
1532067465146,-2,7,3,-3,-2,1,-2,1
1532067465151,-2,-14,-3,1,-1,-1,1,0
1532067465156,-1,6,6,-2,-4,0,0,1
1532067465161,-1,-2,-5,14,3,-2,-3,-2
1532067465166,-1,-4,14,-9,-1,0,1,1
1532067465171,5,2,-3,-1,-1,-3,-3,1
1532067465176,-7,3,0,3,-2,1,1,1
1532067465181,-3,-40,20,0,-1,0,1,-4
1532067465186,-2,9,3,-5,-1,-3,-1,-1
1532067465191,0,-1,-8,-1,-1,-2,-2,1
1532067465196,4,6,1,3,-2,0,1,0
1532067465201,-1,24,0,5,3,-2,-2,0
1532067465206,-2,-2,6,-8,-3,2,1,-1
1532067465211,0,-5,-2,-1,1,2,1,-1
1532067465216,0,-15,0,-2,-1,-1,0,-1
1532067465221,1,8,2,2,-1,0,-1,0
1532067465226,-4,4,-4,1,-3,-2,0,-2
1532067465231,0,-3,-3,-14,0,-2,-1,0
1532067465236,6,5,7,4,-1,0,-1,1
1532067465241,-2,15,9,2,-4,-1,-1,0
1532067465246,-4,-23,-4,0,2,-3,-4,0
1532067465251,5,15,-2,6,1,0,-1,1
1532067465256,-7,-10,7,-9,-3,-2,0,-1
1532067465261,2,-4,6,11,1,-3,0,-2
1532067465266,3,-9,2,0,1,0,0,-2
1532067465271,-7,-11,-20,-4,-2,-2,0,2
1532067465276,-1,-1,11,-4,0,-1,-1,2
1532067465281,-3,-1,-3,6,1,-3,-3,-3
1532067465286,3,-2,-1,1,1,2,1,1
1532067465291,1,1,4,4,0,-1,1,0
1532067465296,-1,18,-7,-9,-2,-1,-1,-2
1532067465301,-1,-1,-3,-2,1,1,1,2
1532067465306,3,-11,1,8,-4,-3,-2,-1
1532067465311,-4,14,-3,-15,-3,1,-1,-5
1532067465316,1,-2,-4,8,1,-2,-2,-1
1532067465321,2,7,0,-6,-1,-2,-1,2
1532067465326,4,6,3,10,0,-1,0,5
1532067465331,-6,-20,-9,-27,1,-2,0,-6
1532067465336,-4,-4,6,9,-1,0,-1,-1
1532067465341,1,-5,2,-8,-5,-1,-2,-4
1532067465346,1,-2,-6,-5,0,-2,0,3
1532067465351,2,6,10,17,1,2,-2,2
1532067465356,-3,-2,-1,-4,2,1,-1,-3
1532067465361,-1,-4,-5,4,0,0,0,1
1532067465366,2,-9,-7,-18,-5,-2,0,2
1532067465371,-3,11,-3,-4,-1,1,1,0
1532067465376,3,-8,-4,-22,1,-1,0,-1
1532067465381,-5,-5,7,11,-3,0,-2,3
1532067465386,0,-14,-4,6,2,0,1,0
1532067465391,-3,-10,-8,-5,-2,1,1,3
1532067465396,-1,5,3,-2,-1,-1,0,-6
1532067465401,5,9,-3,4,-4,0,-1,-1
1532067465406,-2,1,-7,6,0,-1,-1,-1
1532067465411,0,4,-3,10,5,0,-1,1
1532067465416,0,-8,-9,-21,-1,-1,1,0
1532067465421,-4,-6,-19,-20,-7,-4,-4,5
1532067465426,6,17,1,-4,0,0,0,0
1532067465431,-9,24,8,10,0,-1,-1,-6
1532067465436,0,-17,3,6,-1,0,-1,0
1532067465441,6,9,14,4,5,0,1,-1
1532067465446,0,2,-3,-6,-1,0,1,-1
1532067465451,0,-12,-6,-3,-2,0,1,1
1532067465456,0,10,5,26,0,-1,0,0
1532067465461,-10,-15,-6,9,-4,-3,-4,0
1532067465466,7,15,12,23,7,2,-1,-2
1532067465471,-2,4,-2,-60,-6,-2,-2,-3
1532067465476,-1,-26,0,4,2,0,-1,-3
1532067465481,1,-2,-7,-24,-7,-2,-1,-2
1532067465486,-4,13,15,29,4,-1,1,1
1532067465491,3,-19,-2,8,-4,-3,-1,-2
1532067465496,1,12,4,0,-1,0,-1,1
1532067465501,-2,2,2,-16,-2,-2,-1,-4
1532067465506,-1,-17,-2,-18,-3,-1,0,-3
1532067465511,6,-4,-5,-3,-2,-2,-1,3
1532067465516,2,14,0,10,-1,-1,-1,2
1532067465521,-12,30,17,21,2,2,2,-4
1532067465526,1,-17,4,-19,-4,-1,-1,-5
1532067465531,-6,-20,-8,18,-1,0,-4,0
1532067465536,5,0,2,4,-5,0,0,1
1532067465541,5,13,6,-5,7,1,2,3
1532067465546,0,18,-5,0,6,2,-2,-2
1532067465551,0,-6,8,-8,2,0,2,-3
1532067465556,-9,4,0,-2,-2,-3,-3,-1
1532067465561,-1,-13,2,-2,-5,-2,-1,-2
1532067465566,-4,-26,-13,-21,-8,-2,-3,-1
1532067465571,3,5,5,-1,2,0,0,3
1532067465576,-1,5,-1,-3,-4,-2,-1,0
1532067465581,1,13,-5,1,4,-1,1,-3
1532067465586,-3,-20,12,7,-1,-4,-1,-3
1532067465591,-2,-17,-7,-1,-5,-1,1,0
1532067465596,-2,3,11,10,2,2,0,-4
1532067465601,-1,-11,-9,-23,-3,-4,-2,3
1532067465606,-1,9,8,-8,-1,0,-2,2
1532067465611,-3,-12,5,6,3,-1,2,-4
1532067465616,1,1,-3,14,-5,-3,-3,1
1532067465621,-6,-11,-5,-21,-2,0,0,-3
1532067465626,-4,-8,0,-7,-14,-7,-4,2
1532067465631,0,4,-1,-5,-5,1,-1,2
1532067465636,2,9,3,2,7,2,2,-1
1532067465641,3,18,11,5,0,0,1,-2
1532067465646,-7,-23,-7,-6,0,-2,2,-1
1532067465651,2,-3,7,14,-2,-2,-3,-2
1532067465656,4,13,-6,-10,-1,-1,-1,4
1532067465661,-1,-8,-1,8,1,1,0,0
1532067465666,-7,70,30,7,-7,-3,-3,-5
1532067465671,-1,-44,-4,-32,-2,-1,-3,-5
1532067465676,0,-10,11,-10,2,-1,1,0
1532067465681,4,15,-2,17,3,1,-2,0
1532067465686,4,-9,-27,9,4,2,0,3
1532067465691,7,19,-2,5,-3,-2,-1,2
1532067465696,-19,37,4,-4,1,-2,-2,-7
1532067465701,2,-53,8,2,-2,-3,-2,-5
1532067465706,1,-10,13,-3,-5,0,0,-3
1532067465711,5,0,-3,2,4,1,1,3
1532067465716,6,-8,-17,-8,1,0,-2,3
1532067465721,-6,8,-7,7,-1,-1,-1,1
1532067465726,-2,0,1,3,-2,0,-1,-3
1532067465731,-1,12,12,1,-2,-3,-4,-5
1532067465736,-4,-11,-2,-10,-2,0,-2,-3
1532067465741,-1,3,0,13,-3,0,0,3
1532067465746,5,-7,-7,-3,7,0,1,2
1532067465751,-6,6,5,6,-6,0,0,-1
1532067465756,-2,-7,-13,1,-2,-1,-2,-1
1532067465761,6,-6,0,-5,1,-1,-2,0
1532067465766,8,2,-28,-5,-1,-1,0,3
1532067465771,-1,42,3,10,2,-2,1,-5
1532067465776,-15,-39,12,6,-2,-2,-2,-9
1532067465781,3,-38,-3,-12,-4,-2,-1,-5
1532067465786,1,5,-2,3,1,0,0,-1
1532067465791,3,7,-6,-3,3,-1,-1,1
1532067465796,4,9,-20,-7,-4,0,-2,3
1532067465801,-5,11,-5,8,3,0,-1,-1
1532067465806,-5,-13,4,-10,-3,0,0,2
1532067465811,1,13,2,-8,-4,-2,-2,-2
1532067465816,4,11,3,-11,2,-2,-2,-1
1532067465821,-3,5,8,-3,-3,2,1,1
1532067465826,-1,3,4,13,-5,-3,-1,-3
1532067465831,-6,-5,-5,6,5,0,0,2
1532067465836,0,0,8,-15,-3,-3,-2,2
1532067465841,-1,-8,2,4,2,-1,0,0
1532067465846,0,17,4,-7,-4,-1,-2,0
1532067465851,-3,-15,4,2,-4,-1,-2,-3
1532067465856,2,-7,3,5,3,0,2,-1
1532067465861,3,4,-2,2,-2,0,-1,1
1532067465866,-2,-6,10,1,1,-2,-1,1
1532067465871,-2,-14,-8,7,3,2,2,0
1532067465876,1,4,1,5,2,-1,0,2
1532067465881,0,15,9,-5,-2,-3,0,-3
1532067465886,-5,-28,-5,-2,-1,-2,-3,-2
1532067465891,0,3,0,-8,-1,0,-2,1
1532067465896,-1,0,5,2,-3,-2,1,-3
1532067465901,-2,8,2,10,-1,0,-2,0
1532067465906,3,1,-3,9,2,-1,1,0
1532067465911,0,-1,4,-13,-3,-1,0,-1
1532067465916,1,3,1,1,-1,-2,-1,0
1532067465921,1,4,7,-5,0,-2,-1,0
1532067465926,-2,-1,1,2,1,1,0,0
1532067465931,-2,10,5,2,0,-2,-2,-2
1532067465936,-6,-19,-3,0,-2,1,0,-1
1532067465941,0,4,-2,3,1,-1,0,1
1532067465946,-2,3,0,-2,2,-1,0,-1
1532067465951,-5,4,0,0,1,1,2,0
1532067465956,-3,2,4,4,0,-1,-2,-1
1532067465961,-13,-13,0,4,0,-1,0,1
1532067465966,-13,-8,-1,-9,0,0,1,-2
1532067465971,-9,-3,4,2,-5,-3,-2,-3
1532067465976,-5,1,8,-9,-4,-3,-2,-1
1532067465981,0,9,2,2,-1,0,1,0
1532067465986,0,3,2,-13,-3,-4,-3,-1
1532067465991,1,-6,-1,3,0,-1,-2,0
1532067465996,4,5,-2,-1,-3,-1,2,-1
1532067466001,6,13,-2,3,6,1,-1,-2
1532067466006,1,-18,-1,4,2,1,2,0
1532067466011,4,3,-3,-4,-3,-1,1,0
1532067466016,2,-8,0,8,5,2,1,1
1532067466021,5,4,-1,-5,-2,0,0,-2
1532067466026,1,-9,4,-2,-2,-2,0,0
1532067466031,5,-3,1,0,-1,-2,0,0
1532067466036,4,3,0,2,-4,1,-1,0
1532067466041,4,-1,3,-5,1,-2,-2,-3
1532067466046,7,7,-1,-2,-1,-1,-2,-2
1532067466051,0,-10,6,19,2,0,-2,-1
1532067466056,4,11,0,2,0,0,-2,-2
1532067466061,1,5,3,11,-1,-2,-2,-1
1532067466066,-1,-4,0,-25,0,0,-1,-2
1532067466071,0,-2,-5,7,0,1,1,1
1532067466076,0,6,8,17,1,0,0,1
1532067466081,-3,-6,-14,-9,0,-2,-2,-3
1532067466086,-3,-3,-1,-3,-4,-3,-1,-1
1532067466091,-1,0,-10,-8,-1,1,0,-1
1532067466096,-1,11,7,4,-2,-1,-1,-1
1532067466101,1,1,-5,2,1,2,2,-1
1532067466106,-2,0,-10,4,-1,-2,-2,-2
1532067466111,-1,1,6,-4,-2,-2,1,-2
1532067466116,-4,-14,-12,3,1,0,0,0
1532067466121,0,5,-1,-10,-4,-2,-3,0
1532067466126,0,-1,-4,6,2,-1,-1,1
1532067466131,-4,-10,11,-2,-2,-1,-1,-1
1532067466136,-3,-13,-13,-8,0,0,3,1
1532067466141,-4,-5,0,-8,-1,-1,-1,-3
1532067466146,1,6,9,-1,-2,-1,0,-1
1532067466151,1,-3,5,2,0,0,1,1
1532067466156,1,6,1,29,2,-1,-3,-1
1532067466161,-4,-11,-5,-56,-5,-3,-2,-1
1532067466166,-1,-1,3,6,-4,-1,-1,1
1532067466171,-3,11,2,0,-3,0,-1,1
1532067466176,-1,1,7,-9,0,-1,-1,-2
1532067466181,1,-10,-4,27,1,-1,3,0
1532067466186,-2,-3,-10,-1,-1,0,-1,-2
1532067466191,-3,-12,-5,-11,3,-1,-1,0
1532067466196,2,4,4,-1,-1,0,1,-3
1532067466201,-2,3,-2,3,-2,0,-1,-1
1532067466206,-4,-20,1,-6,-3,-3,-1,-1
1532067466211,-2,13,-4,9,-1,-1,0,-1
1532067466216,-3,-7,3,-1,1,-1,0,-1
1532067466221,1,4,7,-15,-3,-1,-3,-2
1532067466226,-1,5,6,5,-1,-2,-3,-1
1532067466231,-1,-5,2,6,0,1,0,0
1532067466236,-2,-5,-12,-1,-3,-3,-3,-3
1532067466241,-3,-1,4,-34,-3,-2,-2,-2
1532067466246,-2,-8,0,10,1,0,-1,-1
1532067466251,0,-6,-4,-1,2,1,0,0
1532067466256,-1,7,3,0,-3,-1,-1,0
1532067466261,4,8,9,8,0,1,-1,-2
1532067466266,2,14,-2,10,4,1,3,0
1532067466271,-3,-11,-12,-1,-7,-5,-4,0
1532067466276,-3,3,4,-11,-2,-1,0,0
1532067466281,1,-1,2,9,0,2,1,0
1532067466286,1,1,-5,-4,2,-2,-1,-4
1532067466291,1,3,6,7,1,1,1,-1
1532067466296,-2,0,-6,-7,-2,0,-2,1
1532067466301,-3,2,1,1,-4,-5,-2,-1
1532067466306,1,-10,-1,-3,-4,-1,-2,-1
1532067466311,-2,-4,-1,-4,-2,-2,-2,-1
1532067466316,3,4,5,-8,-2,-2,0,-1
1532067466321,-3,5,5,31,5,-1,1,0
1532067466326,-2,-9,-6,-49,-5,-2,-3,-2
1532067466331,1,-5,0,0,-3,-1,-3,-2
1532067466336,3,25,8,-2,3,-1,-2,-2
1532067466341,0,-11,-2,8,0,1,0,-1
1532067466346,-2,2,3,9,1,0,-2,0
1532067466351,2,7,0,-11,-3,-2,0,-1
1532067466356,1,-5,-2,-4,-4,-2,-3,-2
1532067466361,-3,-3,0,4,1,0,0,-1
1532067466366,-1,-4,4,0,-4,-2,-1,-2
1532067466371,-1,-9,-1,4,2,2,0,0
1532067466376,-2,-4,-4,3,-1,0,-1,2
1532067466381,-1,1,-3,0,0,-1,-4,-1
1532067466386,4,-10,2,8,1,1,1,1
1532067466391,-1,14,10,-4,0,-1,0,-1
1532067466396,-4,-8,-1,-10,-4,-2,-1,-2
1532067466401,-8,-4,4,-6,-3,-1,-2,-3
1532067466406,5,4,5,2,-2,-2,-1,-2
1532067466411,-1,36,9,1,0,-3,-3,-2
1532067466416,-4,-36,-4,-10,2,2,1,2
1532067466421,6,5,9,5,1,2,1,0
1532067466426,-3,19,-7,-1,0,-1,-1,-1
1532067466431,-6,-1,1,3,-3,-1,1,-2
1532067466436,0,-22,-15,0,3,-4,-2,-1
1532067466441,2,-3,0,-1,0,-2,-1,1
1532067466446,0,1,3,2,0,2,1,-1
1532067466451,1,4,-4,10,0,-2,0,-1
1532067466456,-5,-5,-6,-14,-1,-1,0,0
1532067466461,2,-5,-5,3,-4,-2,-3,0
1532067466466,-5,5,-4,4,1,0,-1,0
1532067466471,-2,-3,-3,-1,0,0,-1,-1
1532067466476,3,10,-1,-2,0,0,-1,0
1532067466481,-4,-16,-11,2,-2,-1,-1,-1
1532067466486,-6,-34,2,-8,-8,-4,-6,-3
1532067466491,-1,-6,-1,8,0,2,0,1
1532067466496,-3,-2,0,11,0,0,0,2
1532067466501,3,-5,1,-1,3,0,2,1
1532067466506,2,17,5,-6,0,0,3,-2
1532067466511,-2,-13,-10,-3,-6,-5,-1,-1
1532067466516,1,0,1,8,-2,-1,-2,0
1532067466521,-8,9,-2,-3,4,-2,-1,-2
1532067466526,2,-4,14,-8,-9,0,-1,-1
1532067466531,-3,-13,-2,-9,-4,0,0,1
1532067466536,1,5,-1,2,4,0,2,-3
1532067466541,4,-5,-2,9,1,0,-3,0
1532067466546,-1,18,2,3,1,-2,0,-1
1532067466551,-2,-2,2,-3,1,0,-2,-1
1532067466556,5,-5,-6,12,0,0,-2,0
1532067466561,-8,-7,0,-8,-3,-1,-1,0
1532067466566,0,8,9,4,2,0,0,-3
1532067466571,0,1,-1,-3,-4,-1,0,0
1532067466576,0,2,10,4,5,1,1,-1
1532067466581,3,-8,1,1,-2,0,0,-1
1532067466586,1,2,-4,-4,1,0,-1,1
1532067466591,-5,14,3,1,0,-1,1,0
1532067466596,-4,-21,-1,-4,-6,-2,-3,-1
1532067466601,4,5,10,-8,-5,0,1,-2
1532067466606,2,-1,1,3,0,2,2,1
1532067466611,-1,11,4,0,1,-1,-2,-2
1532067466616,-2,-1,2,-8,-1,-2,-1,0
1532067466621,0,-1,3,-2,-1,-1,-2,-1
1532067466626,0,15,-1,8,-2,-1,0,-2
1532067466631,-2,-7,3,8,1,0,-1,-1
1532067466636,-1,-5,-2,10,5,1,1,-2
1532067466641,-2,-12,0,-31,-13,-4,-4,1
1532067466646,2,9,-3,10,2,-2,-2,2
1532067466651,-3,-1,-11,-4,-3,-2,-1,-1
1532067466656,-4,-10,12,9,-1,-1,-2,-2
1532067466661,1,-8,6,0,0,-2,-1,-3
1532067466666,3,5,0,-9,0,1,-3,-1
1532067466671,3,14,6,-2,0,2,0,0
1532067466676,0,1,5,-5,0,-1,0,-2
1532067466681,-5,-12,8,0,-1,1,0,-1
1532067466686,-2,-11,1,1,-1,-1,0,1
1532067466691,4,0,-3,-4,1,-1,0,1
1532067466696,-1,15,2,-13,-5,0,0,1
1532067466701,-2,0,-3,3,4,2,-2,-2
1532067466706,-3,-14,-2,7,0,0,0,-2
1532067466711,0,-6,0,-1,2,0,-1,0
1532067466716,-1,2,-5,-3,-3,-1,-2,-2
1532067466721,-2,-7,-15,4,2,-1,-1,2
1532067466726,-2,6,4,5,-3,-2,-1,-2
1532067466731,-7,-10,3,-19,-4,-1,1,-3
1532067466736,2,-7,0,-5,-5,-2,-1,-1
1532067466741,-4,5,2,4,2,-1,0,0
1532067466746,-3,-5,-12,2,4,-3,1,1
1532067466751,-1,-11,-1,7,0,0,0,-1
1532067466756,-3,19,2,-20,-6,0,-2,1
1532067466761,1,-11,-6,1,-2,-2,-2,-1
1532067466766,-3,-5,-5,-6,-4,-2,0,1
1532067466771,4,-1,4,6,0,-3,-2,-2
1532067466776,-6,-4,6,-7,1,0,-1,-3
1532067466781,4,-1,-4,7,-1,1,0,1
1532067466786,-1,14,2,10,3,-2,-3,0
1532067466791,4,10,-8,-16,-9,-1,0,-1
1532067466796,-2,-11,1,-9,2,0,-2,-2
1532067466801,-2,-2,8,-7,-4,-1,1,-4
1532067466806,2,3,-3,4,-1,1,-1,-1
1532067466811,2,2,-11,-9,2,-1,0,1
1532067466816,-3,-1,-5,6,-1,0,1,0
1532067466821,2,0,2,19,9,0,-1,-2
1532067466826,-4,-4,-11,-18,-3,-2,-1,0
1532067466831,-2,8,1,5,1,-2,-2,-2
1532067466836,-3,-2,2,0,-4,-1,-1,-1
1532067466841,-1,-8,7,-6,0,-2,-1,-4
1532067466846,2,4,2,-7,-2,-1,0,-1
1532067466851,-4,4,-16,-3,-5,-3,-4,0
1532067466856,-1,-4,-3,3,-2,-1,-3,0
1532067466861,0,13,-2,4,1,1,2,1
1532067466866,0,15,6,-2,-3,0,-2,-2
1532067466871,-1,-23,6,-3,3,0,-1,-3
1532067466876,0,5,0,1,0,0,-3,1
1532067466881,2,5,-2,8,0,0,-1,2
1532067466886,-3,-11,-7,-10,-7,-2,-6,-1
1532067466891,-3,-4,-3,2,3,-1,-1,0
1532067466896,-1,2,-2,22,6,0,0,-2
1532067466901,-2,-3,1,-23,-8,1,0,1
1532067466906,4,1,-11,17,16,-1,2,2
1532067466911,-3,4,7,14,-1,3,0,-2
1532067466916,0,-5,-1,-9,-7,-3,0,0
1532067466921,-1,2,0,4,-4,-1,-1,-2
1532067466926,-2,-3,7,-4,-2,0,0,-2
1532067466931,-1,1,1,5,9,1,-1,-1
1532067466936,2,0,4,-1,0,-1,2,-1
1532067466941,-1,1,-1,2,-5,-2,-2,0
1532067466946,0,1,-6,1,12,2,1,0
1532067466951,2,-5,6,-5,-3,-1,1,0
1532067466956,0,-1,2,-4,-6,-1,0,-2
1532067466961,-1,1,0,-5,0,-1,-1,-2
1532067466966,-3,-6,0,0,-5,-1,-1,-1
1532067466971,1,-3,1,-2,-5,-1,-1,0
1532067466976,-1,2,-2,-3,-2,-2,-2,-1
1532067466981,1,-2,1,9,4,-1,0,0
1532067466986,-2,-1,4,-16,-7,-2,-1,-1
1532067466991,1,-7,7,-3,-5,-3,0,-2
1532067466996,-1,4,-1,1,-1,-1,-1,-3
1532067467001,-1,-2,7,-1,1,2,0,-3
1532067467006,-1,0,2,-1,-6,-2,-1,-1
1532067467011,1,-1,1,0,4,-2,-1,0
1532067467016,1,11,1,2,0,0,-1,-1
1532067467021,-4,2,4,15,0,0,0,-2
1532067467026,-2,-13,1,-18,-4,-2,-3,0
1532067467031,-1,2,2,-3,-7,-4,-4,0
1532067467036,3,-3,-2,17,5,2,-1,0
1532067467041,2,10,1,-33,-1,0,0,-1
1532067467046,-2,9,7,14,-1,-1,1,-1
1532067467051,2,-5,2,3,0,-1,0,-2
1532067467056,-1,0,8,3,-2,-1,-1,0
1532067467061,-10,-10,-3,-5,-4,-1,0,0
1532067467066,-3,-17,1,-5,-1,-2,-4,-2
1532067467071,0,-4,-5,-8,-3,-1,-3,-2
1532067467076,-1,3,-1,2,-1,0,0,1
1532067467081,-1,-7,1,-1,-2,-2,0,-1
1532067467086,0,-1,-2,4,-1,-1,0,-3
1532067467091,-1,10,1,-10,-5,-1,-1,-1
1532067467096,-6,-16,0,-5,4,-1,0,0
1532067467101,2,-3,-8,3,2,0,-1,1
1532067467106,3,11,5,-2,-7,-1,2,-1
1532067467111,-1,-2,-1,1,2,-1,0,0
1532067467116,-6,-12,-12,-4,-3,-3,-1,-3
1532067467121,3,0,6,3,5,-2,2,-2
1532067467126,0,1,3,5,0,0,0,1
1532067467131,-2,3,2,-1,0,1,1,-1
1532067467136,3,-10,3,-2,1,-2,-2,-1
1532067467141,-2,24,0,18,-2,-1,-1,-2
1532067467146,0,-21,-2,-18,3,1,-2,0
1532067467151,-2,3,7,7,-2,-2,-1,-1
1532067467156,2,5,0,-2,-4,-1,-2,2
1532067467161,2,5,4,2,0,-1,-1,1
1532067467166,-3,8,8,3,-2,0,0,-2
1532067467171,4,-2,1,-7,3,-1,-3,0
1532067467176,-7,-5,7,-1,6,-1,1,-4
1532067467181,1,-14,1,2,-10,-1,-1,1
1532067467186,1,10,5,8,1,2,1,2
1532067467191,1,1,-1,-5,2,0,1,-2
1532067467196,2,4,0,8,1,-2,-2,0
1532067467201,-1,3,-6,-12,0,-1,-2,-1
1532067467206,-3,-12,-7,-5,-4,-3,-3,-1
1532067467211,-2,1,0,3,-8,0,0,-1
1532067467216,1,5,1,1,4,1,-1,1
1532067467221,-3,-6,-5,-9,-1,2,-1,0
1532067467226,3,6,-1,3,0,1,0,-1
1532067467231,-1,-4,-4,14,-1,0,0,0
1532067467236,-1,1,-6,-37,-3,-1,0,0
1532067467241,2,-2,3,9,5,-2,0,-1
1532067467246,-4,2,0,16,-7,-3,-2,-1
1532067467251,0,0,-4,-5,5,1,-1,-2
1532067467256,-2,-5,2,-3,-3,-2,1,-2
1532067467261,1,0,-1,-7,-2,-3,-2,2
1532067467266,3,-3,-2,-1,-1,1,2,-2
1532067467271,-7,7,1,6,2,-1,0,-2
1532067467276,0,-9,10,-1,-8,-2,-3,-1
1532067467281,-5,-3,-11,-14,0,-2,-4,-2
1532067467286,2,0,2,11,2,1,1,0
1532067467291,0,13,3,-4,-3,-2,0,2
1532067467296,1,-6,1,1,6,1,0,-1
1532067467301,0,-2,2,-14,-14,0,-1,-2
1532067467306,-2,1,3,-4,-1,0,-1,-1
1532067467311,0,-7,2,-11,-3,-1,-1,0
1532067467316,-2,3,-9,-7,-3,-3,-2,-1
1532067467321,2,-3,7,17,3,1,1,0
1532067467326,-1,-1,0,-23,2,0,0,1
1532067467331,-2,-6,-1,-4,-1,-1,-1,-1
1532067467336,1,2,-2,3,-3,-2,0,-2
1532067467341,-3,-4,0,10,0,-2,-2,0
1532067467346,0,0,3,3,3,-2,-2,-1
1532067467351,1,-2,3,-4,0,-1,2,-1
1532067467356,-3,-3,-9,7,2,0,-3,1
1532067467361,-2,-3,-2,-7,-4,-2,-1,0
1532067467366,1,-1,-1,8,2,-1,-1,0
1532067467371,-2,-2,-1,4,-2,1,-1,-1
1532067467376,-1,1,7,1,-5,-1,0,-2
1532067467381,2,1,4,-8,1,0,0,-1
1532067467386,0,0,-6,7,3,-1,0,0
1532067467391,1,-4,3,-14,-3,-1,0,0
1532067467396,-1,10,-1,7,-2,0,-1,1
1532067467401,-4,-5,1,-5,0,-1,-2,-4
1532067467406,-1,-1,4,0,-2,2,0,-1
1532067467411,2,-15,0,4,6,-4,-3,-1
1532067467416,-1,14,4,-17,-12,0,0,-1
1532067467421,3,-9,3,2,1,1,0,0
1532067467426,0,8,10,5,-3,-1,-1,0
1532067467431,-3,4,1,6,-4,-1,0,-2
1532067467436,-2,-5,4,-10,7,0,2,-3
1532067467441,1,7,9,2,0,1,1,-2
1532067467446,-2,-5,-3,4,-2,-1,-3,0
1532067467451,0,-4,-2,0,0,1,-1,0
1532067467456,1,0,5,10,1,0,0,-1
1532067467461,2,5,6,-5,0,0,0,-1
1532067467466,-1,-4,-3,0,0,-1,0,-1
1532067467471,-1,2,0,-1,-5,-2,-1,2
1532067467476,-1,1,8,0,-4,-2,-2,-1
1532067467481,0,-5,-1,-9,1,-2,0,1
1532067467486,1,4,6,-7,-3,-2,-2,-1
1532067467491,-1,1,1,5,0,0,0,-1
1532067467496,-3,-3,4,-14,-7,-1,-2,1
1532067467501,2,-4,2,4,0,-2,-1,-1
1532067467506,-5,15,0,-1,-1,-2,1,-2
1532067467511,-2,-22,2,-2,2,-2,-3,-1
1532067467516,2,-2,5,15,1,-1,0,-1
1532067467521,-2,4,-7,-7,4,-2,0,-1
1532067467526,-2,-3,2,-33,-16,-1,-3,0
1532067467531,1,3,-9,5,0,-1,-2,1
1532067467536,1,1,2,0,-7,0,0,-2
1532067467541,-9,1,4,11,3,-2,-1,-3
1532067467546,2,-5,4,-1,3,0,0,-1
1532067467551,-1,4,-2,1,3,-1,-1,-3
1532067467556,-1,-11,-6,-6,-2,-1,-1,0
1532067467561,0,5,-2,-5,-6,1,0,-1
1532067467566,1,-4,-5,-7,2,-1,0,-3
1532067467571,0,-1,3,0,-1,0,1,-2
1532067467576,-2,3,-8,12,1,-2,-3,0
1532067467581,-2,-4,-6,-4,-2,-2,-3,-1
1532067467586,-2,-8,-7,1,0,-3,-3,-1
1532067467591,3,6,0,-2,-3,0,0,0
1532067467596,-1,-3,-4,-2,3,1,1,0
1532067467601,3,-3,-5,-1,-3,-3,-1,1
1532067467606,0,-6,-4,10,-1,-1,0,0
1532067467611,0,2,-7,-11,-6,-3,1,-1
1532067467616,-5,9,-6,19,4,1,1,-1
1532067467621,-1,-23,-1,-21,-4,0,-1,-2
1532067467626,2,5,1,11,8,-1,0,0
1532067467631,-1,0,4,14,0,0,-1,-1
1532067467636,0,2,2,-15,-9,-1,-1,-1
1532067467641,-1,4,0,3,5,0,0,0
1532067467646,-5,-5,-5,5,-2,-1,-2,-1
1532067467651,0,0,1,-1,2,0,-1,-2
1532067467656,3,-5,-1,5,2,1,-1,-1
1532067467661,0,18,1,7,-2,-1,-2,0
1532067467666,-2,-18,5,-20,-1,0,0,-2
1532067467671,0,3,2,6,-2,1,-1,0
1532067467676,-1,-7,-2,-5,0,-3,-1,0
1532067467681,2,0,0,9,1,0,3,2
1532067467686,1,7,-1,-10,-3,1,-2,1
1532067467691,-4,1,1,-1,-3,0,-1,1
1532067467696,1,-8,2,-2,1,0,1,-1
1532067467701,-1,2,0,12,4,1,-1,-2
1532067467706,1,1,6,-12,-1,-1,-1,-1
1532067467711,-3,-5,7,-7,-6,-1,-1,-1
1532067467716,1,4,-6,-4,8,1,0,0
1532067467721,-5,6,5,7,-3,-1,-2,-1
1532067467726,-3,-18,-2,-7,-3,-1,-3,0
1532067467731,-2,-4,-6,-14,-3,-3,-3,1
1532067467736,0,1,5,1,-4,-2,-1,-2
1532067467741,3,4,10,4,1,1,1,-1
1532067467746,0,7,-3,17,0,0,-1,0
1532067467751,-2,-3,0,-9,-4,-2,-3,1
1532067467756,-1,-3,1,7,0,-1,0,-1
1532067467761,-2,-4,-5,-12,-2,-1,-1,-2
1532067467766,2,6,13,-1,-1,0,0,-1
1532067467771,2,-2,0,4,1,0,0,0
1532067467776,1,10,4,-7,-5,-1,-1,1
1532067467781,-5,-19,6,-3,7,1,1,-3
1532067467786,1,-3,8,11,-6,-1,-1,-2
1532067467791,0,4,1,14,2,-2,0,-1
1532067467796,2,-7,9,-16,-2,0,0,1
1532067467801,0,7,-1,-8,-7,-1,-1,1
1532067467806,-2,-5,2,2,7,0,0,-2
1532067467811,1,2,0,13,4,-1,1,0
1532067467816,-3,-1,2,11,-3,-2,-2,-2
1532067467821,2,-4,3,-32,-2,-2,-1,-1
1532067467826,0,4,2,5,-2,0,1,0
1532067467831,-1,0,4,2,1,2,1,-1
1532067467836,-2,-6,0,8,-1,-2,0,-1
1532067467841,0,-5,-3,16,1,-1,-2,-1
1532067467846,1,12,4,-10,-2,0,0,1
1532067467851,-1,-8,1,-12,-4,-1,0,-3
1532067467856,-2,6,-2,2,5,1,-2,-1
1532067467861,0,-16,4,15,-3,-3,-1,1
1532067467866,1,5,-8,-13,-1,0,1,1
1532067467871,0,3,9,-3,-1,0,1,-2
1532067467876,-2,-2,0,-6,-4,0,-2,0
1532067467881,-1,2,-5,-7,-5,-2,-2,1
1532067467886,-1,-1,5,5,1,0,-1,-2
1532067467891,0,-2,0,5,0,0,-1,1
1532067467896,-2,-4,-3,-2,-2,-3,-4,-1
1532067467901,-1,4,5,-7,-2,0,1,-1
1532067467906,-3,-12,-3,2,0,-2,-2,1
1532067467911,-2,2,4,-4,2,0,0,-1
1532067467916,3,-3,0,1,6,1,0,0
1532067467921,-1,6,4,6,0,1,0,0
1532067467926,-1,-1,4,14,-9,-3,2,-1
1532067467931,-1,-3,-1,-17,-1,0,-1,0
1532067467936,-2,1,4,6,-2,0,0,0
1532067467941,0,0,0,0,1,-1,0,-1
1532067467946,-1,-3,-7,-2,1,-1,0,-2
1532067467951,-2,1,-1,-3,-4,-1,0,-2
1532067467956,0,-1,-2,-1,1,-4,-1,-2
1532067467961,-2,-1,-5,-4,-4,0,-1,-2
1532067467966,-2,0,-4,1,-1,0,1,-1
1532067467971,0,-4,-7,-7,-2,-1,-1,-1
1532067467976,0,0,-7,-8,-1,0,-2,-1
1532067467981,1,-2,-5,12,-3,-2,-1,0
1532067467986,-2,8,-4,-9,-3,-2,-2,-1
1532067467991,-3,-4,-1,6,-1,-2,-1,-1
1532067467996,0,-4,-6,-7,0,0,2,-2
1532067468001,-1,1,-3,-2,-1,-1,-1,0
1532067468006,0,-1,2,-4,-4,-2,0,0
1532067468011,-1,-1,-3,0,6,0,0,1
1532067468016,0,-2,3,4,1,0,0,-1
1532067468021,2,-7,2,-3,1,1,0,-1
1532067468026,-2,-2,-4,3,-1,-4,-2,-1
1532067468031,0,6,-3,7,-3,-3,-2,1
1532067468036,-2,-6,5,0,-2,1,0,-1
1532067468041,-2,8,3,-6,3,1,-1,-1
1532067468046,-1,-10,-6,0,2,0,1,-3
1532067468051,0,2,-6,-17,-7,-3,1,-1
1532067468056,-4,-3,2,9,5,0,-1,1
1532067468061,0,0,-5,3,-1,-2,1,-1
1532067468066,1,1,-2,-2,-5,0,1,0
1532067468071,-1,-3,0,3,0,0,-1,-1
1532067468076,-1,-1,-5,-13,-6,-3,-1,-2
1532067468081,-1,2,-1,6,2,0,0,-1
1532067468086,1,-3,6,2,10,2,-2,-2
1532067468091,0,-6,1,-3,-3,-2,-3,-1
1532067468096,0,3,-8,2,0,-1,0,0
1532067468101,-2,-2,-1,-4,-6,-1,0,-1
1532067468106,0,0,0,-4,-1,-2,-1,1
1532067468111,0,10,-5,1,2,0,0,0
1532067468116,0,2,5,5,-5,-2,-1,0
1532067468121,1,-1,-1,-2,2,0,-2,-2
1532067468126,-1,3,-3,-12,-6,0,0,-1
1532067468131,0,0,-8,2,4,1,1,-2
1532067468136,-1,0,-8,-2,-7,-2,-3,-1
1532067468141,-3,7,-4,9,-1,0,-1,1
1532067468146,-1,-7,-4,-1,-2,0,-1,-1
1532067468151,-1,3,-6,-2,-2,0,-1,-1
1532067468156,0,-8,-7,-2,5,2,1,-2
1532067468161,0,2,4,-9,0,-1,-1,-1
1532067468166,-1,1,18,3,1,1,-1,-2
1532067468171,-3,-2,16,6,-4,-2,-4,-1
1532067468176,0,4,10,-11,-2,-2,-1,-2
1532067468181,-1,-4,4,4,-1,-2,-2,-1
1532067468186,-2,1,4,-3,-1,-2,-2,0
1532067468191,0,-3,3,2,-3,-1,0,0
1532067468196,0,1,13,7,3,0,1,-1
1532067468201,-2,-4,3,-14,-8,-3,0,-2
1532067468206,1,2,7,4,-1,0,-2,0
1532067468211,0,-1,8,4,-1,0,-3,1
1532067468216,-1,0,8,-2,-1,0,-1,0
1532067468221,0,-2,3,-1,-1,-1,0,-2
1532067468226,-1,2,-2,0,-1,0,1,0
1532067468231,-1,-3,3,-6,-2,0,-1,-2
1532067468236,-2,-2,8,-1,-3,-3,-1,0
1532067468241,-1,-3,7,1,2,-2,0,0
1532067468246,-1,0,3,0,0,-1,-1,1
1532067468251,-1,-2,2,-3,0,0,-1,-3
1532067468256,1,2,1,7,4,1,1,-2
1532067468261,-2,-1,-2,-1,-5,-2,-1,-2
1532067468266,-1,0,0,4,4,2,-1,-1
1532067468271,-1,2,2,0,-1,0,-1,-1
1532067468276,-1,-3,-2,-1,1,0,-1,0
1532067468281,-1,-2,3,-3,3,-1,1,0
1532067468286,0,-5,-1,-5,-2,-2,-1,0
1532067468291,-1,-4,-1,-2,-2,-2,1,-1
1532067468296,0,-4,0,-14,-3,-1,0,-1
1532067468301,2,-3,2,10,0,1,-2,-1
1532067468306,-1,-2,3,7,0,0,-1,1
1532067468311,0,-1,0,1,12,3,1,1
1532067468316,-2,-3,-4,-17,-9,-4,-3,0
1532067468321,0,-3,-2,-16,-2,1,0,1
1532067468326,0,-5,-4,3,-4,-1,1,0
1532067468331,0,-2,-3,8,-2,-3,-2,0
1532067468336,-2,-2,-6,-1,3,0,0,-1
1532067468341,0,-2,0,6,1,-1,0,-1
1532067468346,0,-1,-5,-15,-4,-1,-3,0
1532067468351,1,1,-2,-13,-3,-1,0,0
1532067468356,2,1,4,39,3,1,0,-2
1532067468361,-2,-2,-2,-2,1,-3,-2,0
1532067468366,0,2,-2,-1,0,0,1,-1
1532067468371,0,1,3,1,-6,-1,-3,3
1532067468376,0,-1,-2,-1,2,-2,-1,-1
1532067468381,1,2,1,18,1,0,0,-1
1532067468386,0,-3,-2,-8,0,-3,0,-1
1532067468391,-1,2,2,-6,-6,-1,1,0
1532067468396,0,0,-2,27,-1,-2,0,0
1532067468401,0,1,-3,-24,4,1,1,-1
1532067468406,-2,0,-6,5,-1,-1,-1,-1
1532067468411,-1,-1,-5,-8,-3,-2,-1,-2
1532067468416,0,3,-1,2,1,0,0,-3
1532067468421,-3,-2,-2,1,-6,-2,-1,1
1532067468426,0,-1,0,-15,-2,-1,-1,0
1532067468431,0,0,0,-5,1,-1,-2,-1
1532067468436,0,1,0,16,3,1,0,-2
1532067468441,-5,-4,-2,2,-4,-4,-5,-1
1532067468446,0,1,0,-2,1,-1,-1,0
1532067468451,-5,0,-3,6,-4,-1,-1,-2
1532067468456,1,-1,1,-20,2,2,-2,-1
1532067468461,4,1,-3,24,1,0,1,-2
1532067468466,-2,0,-12,-17,-4,-2,1,-2
1532067468471,2,1,-5,11,2,0,-2,-1
1532067468476,3,3,-4,-8,0,2,1,0
1532067468481,16,4,-1,4,1,0,2,1
1532067468486,-11,-1,-6,-19,-5,-2,-3,-3
1532067468491,15,-6,-3,6,1,-1,-1,-1
1532067468496,-5,-2,-1,-12,-2,-2,-2,-1
1532067468501,1,-2,1,6,0,0,0,-2
1532067468506,9,3,9,10,3,1,1,1
1532067468511,-9,2,4,-10,-1,-1,-2,-5
1532067468516,-3,-1,4,-2,-3,-3,-1,-2
1532067468521,12,0,8,-7,0,0,-1,-2
1532067468526,-8,0,9,7,0,0,1,1
1532067468531,-5,-3,5,1,-1,0,0,-1
1532067468536,0,-4,6,-4,-2,-1,0,-2
1532067468541,-1,3,4,-2,0,0,-2,-2
1532067468546,1,1,8,1,1,0,-3,-2
1532067468551,10,0,-7,1,-2,-1,1,2
1532067468556,5,0,0,-7,-3,-1,1,3
1532067468561,-13,-7,-1,-6,-4,-1,-1,-1
1532067468566,25,6,-7,8,0,0,-2,2
1532067468571,5,0,3,1,2,0,-2,3
1532067468576,-32,-3,-7,-4,-1,-1,-1,-5
1532067468581,-1,5,0,9,0,-1,2,-4
1532067468586,-5,0,3,-10,0,0,-1,-2
1532067468591,-9,1,-2,21,-5,-2,1,4
1532067468596,-21,-23,-2,-11,-3,-1,-1,-4
1532067468601,-21,-9,-2,-1,-2,0,-2,-1
1532067468606,8,-5,4,10,-1,-1,-2,-3
1532067468611,4,4,-1,-9,0,0,0,-2
1532067468616,9,6,-2,2,0,-1,0,1
1532067468621,-3,-2,-4,-3,0,-1,0,-1
1532067468626,1,4,0,1,-1,1,-1,1
1532067468631,-32,-21,-9,-7,-5,-1,-2,-5
1532067468636,8,3,4,7,-3,-2,-3,-2
1532067468641,-2,-1,-7,-13,-1,1,-1,-1
1532067468646,3,-2,0,6,-1,-2,1,1
1532067468651,-7,3,3,-4,0,1,-1,-3
1532067468656,4,4,3,0,0,0,-1,-1
1532067468661,2,-2,0,-2,0,-1,-1,2
1532067468666,-9,-4,0,-2,0,0,0,-3
1532067468671,12,3,2,23,3,-1,-2,2
1532067468676,-17,-3,-3,-34,-3,-1,-1,-3
1532067468681,31,8,-1,-9,-3,2,1,10
1532067468686,-37,-7,-2,4,-3,-2,0,-9
1532067468691,12,6,6,0,2,1,2,-2
1532067468696,18,6,-1,8,0,-1,0,0
1532067468701,-23,-5,1,-4,0,-1,0,-3
1532067468706,23,6,-1,-1,-1,1,-2,2
1532067468711,-26,-14,-5,-8,-2,-1,-1,-1
1532067468716,2,2,1,5,1,0,-1,-1
1532067468721,1,-1,0,-1,-1,0,-1,-2
1532067468726,-2,-4,-4,2,-3,-2,-2,1
1532067468731,7,5,0,-4,-1,0,-1,-3
1532067468736,12,1,-2,0,0,-1,-2,5
1532067468741,-11,-2,-1,2,0,-2,-2,-5
1532067468746,4,3,-3,1,-2,-2,-1,-3
1532067468751,5,2,-2,-8,-1,-1,0,-2
1532067468756,6,-4,-1,0,-1,-1,-2,1
1532067468761,-9,-1,-2,-2,-2,-2,-1,-3
1532067468766,29,3,-1,1,-1,0,1,4
1532067468771,-21,4,6,8,-1,0,-1,-2
1532067468776,7,3,0,-8,0,1,0,0
1532067468781,3,2,-2,-5,-2,-2,-3,-2
1532067468786,-18,-8,1,-2,0,-1,-2,-2
1532067468791,10,0,-1,-3,-2,-1,-1,1
1532067468796,-5,-12,-1,10,3,-1,0,4
1532067468801,-6,1,2,3,1,-2,0,-1
1532067468806,-21,-3,-2,-7,-3,-1,-3,-11
1532067468811,8,-3,-2,-1,-1,0,0,-1
1532067468816,3,10,-6,-2,-2,-1,1,-2
1532067468821,2,-1,13,1,-2,-2,-2,3
1532067468826,-6,-7,-3,2,1,-2,0,4
1532067468831,8,5,-7,-5,-2,0,-1,2
1532067468836,-10,2,-2,-1,-1,-1,-1,-2
1532067468841,9,-5,-6,-1,-1,-1,0,-1
1532067468846,-12,-1,2,1,-2,-1,-1,-3
1532067468851,-5,-6,1,-4,0,-1,0,-1
1532067468856,15,3,-2,0,-1,-1,0,-2
1532067468861,-12,-7,-3,1,1,0,-3,-1
1532067468866,6,-2,5,0,0,-1,-2,-1
1532067468871,19,0,1,3,1,0,0,4
1532067468876,-6,-9,-7,-12,-2,-1,-2,5
1532067468881,-4,0,-2,-3,-2,-2,-3,-14
1532067468886,-7,-1,-6,-6,0,1,1,-4
1532067468891,-4,-1,0,-2,0,0,0,-1
1532067468896,6,5,7,6,-3,-1,-2,0
1532067468901,-8,3,-1,-2,-2,-1,-1,1
1532067468906,3,-20,0,-1,0,-2,-3,7
1532067468911,-2,-3,-5,-2,1,-2,-2,-3
1532067468916,-9,-2,10,-6,-3,-1,-2,-5
1532067468921,8,7,5,7,-1,0,1,4
1532067468926,0,4,-2,3,-3,0,0,-1
1532067468931,-2,-1,0,-4,-2,-2,0,-2
1532067468936,10,0,-8,-3,2,0,-2,-1
1532067468941,-30,-14,-6,-3,1,-2,-2,-6
1532067468946,-6,-5,4,1,1,2,4,7
1532067468951,77,12,-3,-4,1,-2,-3,3
1532067468956,-30,-8,-4,1,-2,-3,-4,-7
1532067468961,21,10,2,1,0,1,0,-3
1532067468966,-13,-1,-5,0,-1,0,1,0
1532067468971,17,0,9,-3,-2,0,0,1
1532067468976,-15,-7,10,2,-3,-1,-2,4
1532067468981,16,5,-17,0,1,0,3,2
1532067468986,-27,-14,-7,0,-2,0,2,0
1532067468991,18,16,12,2,-1,-3,-3,1
1532067468996,6,11,2,-3,1,0,1,-6
1532067469001,-17,-26,-1,-1,-2,-3,-1,3
1532067469006,2,21,-2,0,-1,-1,-2,-8
1532067469011,-13,-10,-6,-1,-4,0,-1,0
1532067469016,17,10,0,1,1,0,2,7
1532067469021,-10,0,8,-1,0,1,1,0
1532067469026,3,-15,-4,-1,-2,-2,0,8
1532067469031,-15,0,-1,-3,-2,-2,-3,-6
1532067469036,7,3,0,4,-1,0,1,-6
1532067469041,-19,-7,-4,-1,0,-1,0,1
1532067469046,65,16,-1,2,0,0,0,0
1532067469051,-102,-38,7,-6,-3,-2,-3,-2
1532067469056,26,9,-16,3,2,1,-1,2
1532067469061,-32,3,5,2,-2,1,0,-6
1532067469066,21,6,3,-3,-1,-4,-5,-10
1532067469071,14,3,-14,-3,-1,-1,1,-1
1532067469076,10,-22,15,4,-1,-1,0,8
1532067469081,-17,5,-2,0,0,0,-1,8
1532067469086,53,20,5,-3,-1,-1,1,3
1532067469091,15,-1,-24,-1,0,-1,-6,-14
1532067469096,-32,-10,21,-1,-4,-1,-2,-4
1532067469101,51,8,-7,-1,0,-3,-2,-12
1532067469106,56,5,-1,0,1,2,-1,4
1532067469111,-21,10,5,1,-3,-3,0,11
1532067469116,-33,13,-27,-5,-2,-1,-3,-29
1532067469121,-22,-30,16,8,3,3,2,-1
1532067469126,50,11,-48,-9,-2,-3,-2,10
1532067469131,4,20,40,4,1,-2,0,-14
1532067469136,4,-29,-16,-8,-2,-2,-4,8
1532067469141,0,12,12,-3,-4,-2,-2,1
1532067469146,-30,9,7,4,5,3,4,-3
1532067469151,18,-8,-17,0,-1,3,2,11
1532067469156,-20,4,11,-1,-5,-4,-1,9
1532067469161,103,32,7,-1,1,2,-7,10
1532067469166,-60,-12,21,-4,-7,-2,-9,14
1532067469171,13,5,-14,14,14,3,11,-13
1532067469176,-2,-3,-1,4,-1,-2,4,-4
1532067469181,45,-7,-22,0,1,2,5,-12
1532067469186,-27,-13,-4,-8,-5,-1,7,-9
1532067469191,14,-4,12,-4,-4,-3,-7,10
1532067469196,-4,-1,-5,0,2,1,-3,3
1532067469201,-56,-2,6,-1,-5,0,0,3
1532067469206,-18,-12,0,1,0,0,-4,-3
1532067469211,26,3,-11,-9,-7,-2,-1,-6
1532067469216,81,11,6,3,2,1,-3,7
1532067469221,-98,-5,-29,-15,-10,-7,-9,-10
1532067469226,-20,-1,15,11,8,1,0,-19
1532067469231,-65,-24,5,-3,-1,-2,-4,-2
1532067469236,-30,-43,6,-2,-3,0,-2,-1
1532067469241,16,28,8,1,1,2,0,-3
1532067469246,-32,-16,-1,-1,-2,-2,-2,-2
1532067469251,-43,4,4,1,-3,-1,0,-3
1532067469256,36,2,-20,-4,1,2,1,7
1532067469261,76,-23,1,-5,-2,0,8,19
1532067469266,6,28,10,1,3,-2,-6,-6
1532067469271,-68,-12,9,0,-4,-1,-2,-10
1532067469276,-3,26,12,-3,1,2,9,-1
1532067469281,-38,-4,-3,-2,-2,-2,-6,-5
1532067469286,-19,-8,-1,0,-2,-1,-5,-2
1532067469291,-9,-16,-17,-2,-1,-1,2,1
1532067469296,31,23,0,-1,0,0,1,-3
1532067469301,3,-8,0,-12,-7,-7,-8,2
1532067469306,-82,-38,-1,5,3,0,0,5
1532067469311,-49,-10,9,0,-3,-4,-5,-12
1532067469316,-113,-16,-34,-7,-2,-1,-1,-11
1532067469321,-5,16,6,1,-1,-1,-1,-3
1532067469326,22,9,7,3,0,1,1,1
1532067469331,-69,-5,-6,-2,-2,-2,-2,-19
1532067469336,-7,11,7,0,0,-1,3,-4
1532067469341,47,-17,2,-4,-2,0,0,2
1532067469346,-2,38,16,0,-3,-1,1,-5
1532067469351,28,-27,-15,-3,-1,-4,-3,8
1532067469356,-13,6,0,4,-1,1,2,2
1532067469361,-20,9,-6,-1,2,-1,1,-9
1532067469366,18,1,2,2,0,-2,-3,-3
1532067469371,55,13,10,0,-2,2,2,8
1532067469376,-87,-30,-5,-3,-3,-3,-5,-11
1532067469381,70,14,12,3,0,0,2,5
1532067469386,-34,3,-1,0,-1,0,0,0
1532067469391,23,15,0,-2,-2,0,0,1
1532067469396,7,0,-2,2,1,1,-2,-1
1532067469401,86,-11,-2,-3,-3,-3,-3,3
1532067469406,30,-9,-3,-8,-6,-2,1,7
1532067469411,-22,-2,-2,4,3,-1,0,-4
1532067469416,104,28,1,0,0,0,-2,4
1532067469421,-29,21,7,3,1,1,0,-2
1532067469426,5,-30,-9,0,0,-2,-2,3
1532067469431,60,13,-1,0,-3,0,1,8
1532067469436,-10,-11,-7,-1,0,-1,-1,0
1532067469441,-18,-6,2,0,1,1,0,4
1532067469446,-52,-3,-1,-2,-1,-2,-2,-11
1532067469451,45,5,-5,-3,-3,-3,-1,1
1532067469456,3,-7,0,1,1,-2,-1,-3
1532067469461,-22,-11,-16,-4,-5,-3,-1,-2
1532067469466,1,8,9,4,1,2,3,-3
1532067469471,-7,-7,-1,-5,-2,-4,-3,-1
1532067469476,-25,-27,-2,-4,-4,-1,1,4
1532067469481,-37,0,-1,1,-2,-3,-4,-7
1532067469486,-15,-1,10,2,-1,1,2,9
1532067469491,-18,13,-9,-7,2,0,1,-1
1532067469496,29,6,15,2,0,2,0,4
1532067469501,6,2,1,-1,1,2,0,-1
1532067469506,-92,8,-6,-2,0,-2,-5,-16
1532067469511,-6,-11,-4,3,2,1,3,4
1532067469516,-1,9,-2,-1,-1,0,-2,-5
1532067469521,-22,-18,3,0,0,-2,0,2
1532067469526,-17,-8,-3,-2,-3,-1,-8,-7
1532067469531,-90,-26,0,-5,0,-1,-2,-11
1532067469536,12,12,-2,1,0,-1,0,4
1532067469541,-65,-43,-3,-1,-1,0,-5,-11
1532067469546,26,26,-1,4,3,2,7,0
1532067469551,119,25,4,9,1,3,4,10
1532067469556,-27,-2,-28,-24,-11,-6,-10,-2
1532067469561,-5,6,59,6,4,1,0,-8
1532067469566,-14,-62,-12,6,2,-3,1,0
1532067469571,-35,9,8,-21,0,1,-3,-5
1532067469576,-8,-7,-30,26,-4,1,5,3
1532067469581,52,11,8,-2,-7,-1,0,13
1532067469586,75,51,2,-11,4,0,-4,1
1532067469591,-62,14,-4,10,-1,0,3,1
1532067469596,96,2,-22,-26,-3,-2,-4,6
1532067469601,-70,1,8,-7,-2,-3,-4,-4
1532067469606,42,2,10,9,1,0,1,3
1532067469611,73,-8,0,-19,-3,-1,-2,2
1532067469616,46,0,6,5,1,3,5,12
1532067469621,6,27,-25,-1,3,-2,-3,-24
1532067469626,62,5,-8,-7,-2,-3,-1,9
1532067469631,9,9,5,-6,-1,-1,-2,-4
1532067469636,-33,-14,25,3,2,0,-1,-2
1532067469641,-21,-32,-22,-8,-3,0,2,0
1532067469646,-8,-9,3,3,-6,-3,-5,-1
1532067469651,-27,-1,0,14,2,0,2,-2
1532067469656,-70,-1,16,-6,-1,-1,-2,-4
1532067469661,34,21,-11,6,3,0,2,10
1532067469666,-43,2,-3,-2,0,2,-1,-3
1532067469671,-78,-18,4,15,0,-1,0,6
1532067469676,29,-7,5,-3,-1,-1,-1,-1
1532067469681,16,-6,-3,3,3,1,1,1
1532067469686,25,-3,0,-6,-3,-1,1,5
1532067469691,57,16,5,4,-1,0,1,5
1532067469696,-81,-10,2,0,3,-2,-5,-14
1532067469701,-38,0,-4,13,1,-2,-1,-2
1532067469706,-19,-75,-12,-35,-7,-5,-6,-6
1532067469711,11,32,-9,-1,1,-2,-3,-7
1532067469716,11,11,8,0,1,1,0,-1
1532067469721,21,-14,-5,0,-6,0,0,1
1532067469726,-64,6,1,16,1,0,2,-5
1532067469731,-31,-29,0,3,-2,-2,-3,-5
1532067469736,81,-2,-1,-6,-4,-3,-2,-2
1532067469741,49,-4,-1,-1,4,1,0,10
1532067469746,-9,12,0,-1,0,0,1,-2
1532067469751,2,-13,-4,-7,-5,-1,-2,0
1532067469756,-7,-16,7,11,-1,1,5,3
1532067469761,54,18,-18,-16,-2,-6,-6,-7
1532067469766,24,28,2,6,2,-2,0,-1
1532067469771,22,1,2,-5,0,-1,1,1
1532067469776,3,4,-6,-8,0,0,3,3
1532067469781,-15,-28,2,-20,-1,-1,2,7
1532067469786,-69,6,3,9,-2,0,-1,-4
1532067469791,46,4,-5,-8,-2,-2,-2,3
1532067469796,32,2,-3,-4,-3,-2,-4,0
1532067469801,-91,-28,-6,-4,-3,-3,3,-11
1532067469806,-34,11,3,4,-1,-2,-2,-5
1532067469811,70,1,5,5,1,-1,-2,9
1532067469816,-1,-22,2,8,-1,-1,-2,1
1532067469821,-53,-16,-14,-2,-3,-5,-9,-19
1532067469826,37,2,-1,-1,0,1,1,1
1532067469831,52,-15,-3,-8,-2,0,0,3
1532067469836,-47,-1,0,13,1,-4,-2,-7
1532067469841,-44,11,9,3,2,3,3,3
1532067469846,37,-18,-1,33,1,1,-1,-1
1532067469851,-29,-4,-6,-5,-1,-1,-2,-2
1532067469856,3,50,-1,-15,1,-1,-2,-7
1532067469861,-4,5,3,21,2,1,0,0
1532067469866,9,-8,-5,-23,-5,1,0,3
1532067469871,22,6,-4,-3,2,2,0,1
1532067469876,37,9,4,1,0,0,2,-1
1532067469881,93,15,-1,-6,-3,-1,0,8
1532067469886,28,-18,-11,-3,0,-5,-3,5
1532067469891,-92,-8,1,10,1,-2,-3,-18
1532067469896,-35,7,3,-3,0,1,1,-3
1532067469901,32,-5,3,12,2,0,0,3
1532067469906,-38,-4,7,8,3,2,1,-1
1532067469911,11,6,-10,-8,-6,-2,-1,-2
1532067469916,-59,-21,-1,15,-1,-1,-1,-8
1532067469921,85,22,-1,-3,-2,0,-1,3
1532067469926,-14,2,4,-3,1,-1,-2,-1
1532067469931,-20,12,11,22,2,1,2,2
1532067469936,-11,-30,-9,-28,-3,-1,-1,3
1532067469941,-38,-1,2,9,-1,-2,1,-1
1532067469946,56,15,1,-13,-2,0,0,5
1532067469951,-79,-14,-4,4,-7,-4,-5,-20
1532067469956,68,-12,-1,5,1,-1,-3,-5
1532067469961,32,7,3,13,1,1,1,6
1532067469966,-8,0,4,0,2,0,0,1
1532067469971,-29,-14,-16,-35,-12,-3,-1,6
1532067469976,-12,17,-1,-8,-3,-1,-1,1
1532067469981,-35,-3,-3,-3,-1,-1,0,-5
1532067469986,6,7,2,-12,2,-1,-1,-1
1532067469991,34,3,4,53,5,-1,-2,3
1532067469996,-16,13,0,-37,-3,1,1,2
1532067470001,-37,-42,-26,-59,-15,-8,-6,-7
1532067470006,-5,-5,0,6,-6,0,2,-6
1532067470011,-27,11,5,-8,4,0,0,0
1532067470016,3,0,10,23,5,-1,-3,-4
1532067470021,0,8,5,19,0,0,1,-1
1532067470026,22,2,-6,-32,-5,0,1,3
1532067470031,-13,-7,6,10,2,1,-1,-4
1532067470036,-6,-1,1,-2,4,-2,0,1
1532067470041,11,-2,-12,3,-7,-2,-3,-2
1532067470046,0,0,-3,18,-1,-2,-2,-2
1532067470051,13,3,6,2,2,2,1,1
1532067470056,30,6,-1,19,0,0,0,3
1532067470061,-16,6,5,-22,0,1,-2,-1
1532067470066,-4,1,-4,-9,-2,-1,-3,-1
1532067470071,14,-4,0,22,-4,0,-3,2
1532067470076,-7,-5,2,8,0,-1,5,-2
1532067470081,-53,-29,-7,-32,-6,-2,-3,-4
1532067470086,11,3,3,13,1,-2,-3,-3
1532067470091,5,-2,1,-33,4,-1,0,3
1532067470096,-17,-6,2,23,-4,-1,0,-1
1532067470101,34,16,-1,-4,0,1,0,-1
1532067470106,-17,-3,2,4,0,0,4,-1
1532067470111,-3,-5,1,8,1,-2,0,0
1532067470116,2,-3,-17,-76,-10,-5,-2,-1
1532067470121,4,7,8,14,-1,-1,3,0
1532067470126,2,0,-1,3,-3,-3,-4,-1
1532067470131,9,3,0,2,0,5,-2,-1
1532067470136,-10,-1,-1,11,5,1,2,1
1532067470141,-1,3,4,6,10,8,3,2
1532067470146,3,-1,-4,-4,4,0,2,0
1532067470151,5,1,1,-5,-4,-4,3,-2
1532067470156,-6,-7,-10,-16,-11,-6,-8,-2
1532067470161,0,2,5,11,-2,-1,-1,-1
1532067470166,9,3,0,8,5,0,-1,-1
1532067470171,0,-3,-5,-16,-6,-5,-2,-1
1532067470176,-4,0,3,17,-6,2,-2,-1
1532067470181,2,4,0,9,11,1,1,1
1532067470186,-1,0,-2,-11,-3,2,1,1
1532067470191,1,-1,0,-2,15,-1,-2,-3
1532067470196,-7,-4,-2,4,-5,3,3,3
1532067470201,3,4,-1,-2,-17,-6,-4,0
1532067470206,0,1,-2,-4,-3,-3,0,-1
1532067470211,-2,-2,1,-4,3,-2,0,-3
1532067470216,3,0,1,14,22,2,1,-2
1532067470221,-1,1,-6,-5,-45,-5,-2,-1
1532067470226,0,-1,0,-1,17,-3,-5,-2
1532067470231,0,-1,-1,10,56,2,3,-1
1532067470236,4,1,19,41,98,16,6,-3
1532067470241,-3,0,-8,-27,-87,-1,-3,4
1532067470246,-2,1,-6,-8,-9,-4,-3,3
1532067470251,2,-1,-3,-10,-5,-6,-7,-3
1532067470256,-6,0,-4,5,2,4,-1,5
1532067470261,5,3,13,30,107,7,6,-1
1532067470266,6,4,9,12,26,10,3,-4
1532067470271,-3,-3,-9,-10,-60,-12,-2,2
1532067470276,0,-2,2,-14,-26,-10,-5,-5
1532067470281,-1,0,-6,-8,-26,-10,-3,-1
1532067470286,-8,-4,-16,-23,-88,-8,-3,3
1532067470291,0,-1,1,1,7,5,-1,3
1532067470296,-4,-4,-11,-8,-21,-17,-5,-1
1532067470301,3,1,10,8,31,8,4,-2
1532067470306,0,2,5,0,7,4,4,-1
1532067470311,-3,-2,-4,-5,3,7,3,1
1532067470316,0,2,-1,6,3,-3,-1,0
1532067470321,6,0,5,2,23,-5,-6,-7
1532067470326,-4,-6,-10,-15,-36,2,-2,0
1532067470331,-2,1,7,14,15,-2,-2,2
1532067470336,-2,0,1,-16,-47,6,1,0
1532067470341,-4,-2,-5,5,-1,-4,0,0
1532067470346,1,-3,-7,-19,-35,-5,-4,-2
1532067470351,4,1,4,0,23,4,1,-3
1532067470356,-1,-2,-7,-9,-5,0,-1,1
1532067470361,-3,-1,3,1,9,-1,1,2
1532067470366,6,1,1,18,-14,-14,-3,-6
1532067470371,-4,-4,-11,-36,-61,4,0,1
1532067470376,-2,0,2,7,-2,5,2,3
1532067470381,-3,3,-7,-21,-29,-1,0,4
1532067470386,0,-1,12,35,57,0,0,-2
1532067470391,3,-2,-13,-36,1,-11,-1,-9
1532067470396,-1,2,6,13,-5,-3,-4,-2
1532067470401,-2,-7,-12,-7,6,6,2,-2
1532067470406,-4,-1,-4,-8,-30,0,0,4
1532067470411,-1,0,6,17,3,0,-2,-1
1532067470416,-1,-1,4,0,26,-4,-1,-1
1532067470421,0,0,-3,5,-32,1,0,-2
1532067470426,-1,-2,-4,6,99,5,1,-3
1532067470431,-2,-1,-4,-17,-69,-6,0,2
1532067470436,-3,-2,-7,-8,17,-1,-1,1
1532067470441,1,1,12,20,15,1,-4,-3
1532067470446,1,-6,-3,15,59,-2,-3,-2
1532067470451,-2,-3,-1,-27,-59,-4,-2,0
1532067470456,1,0,-2,13,11,5,1,-1
1532067470461,1,5,13,9,34,0,-3,1
1532067470466,-1,1,3,12,8,2,4,-2
1532067470471,3,5,8,-6,36,-1,0,-3
1532067470476,-4,-3,1,-6,-42,-10,-4,-3
1532067470481,-2,0,-9,-22,-55,2,0,4
1532067470486,-2,-2,-3,-7,-3,-3,-3,0
1532067470491,2,-4,1,19,37,2,-4,-4
1532067470496,3,3,2,-8,0,-2,0,-2
1532067470501,1,-1,0,13,42,7,7,0
1532067470506,-1,5,8,-2,-25,1,0,3
1532067470511,-1,-3,-13,-4,13,3,0,0
1532067470516,-1,-5,4,-14,-20,1,-1,-4
1532067470521,1,4,10,36,27,-9,-15,-6
1532067470526,3,-3,2,1,5,1,1,-5
1532067470531,-8,-3,-16,-19,-87,8,10,9
1532067470536,3,4,1,15,43,-2,1,2
1532067470541,0,3,4,-23,-61,5,7,2
1532067470546,-3,-5,-3,-11,5,-7,-10,-4
1532067470551,0,-2,9,30,29,-7,-10,-4
1532067470556,-1,-8,-23,-19,0,-3,-3,-4
1532067470561,-3,0,6,3,18,3,6,3
1532067470566,4,7,11,27,0,5,4,3
1532067470571,-2,-7,-8,-6,12,-4,-6,-6
1532067470576,2,5,14,7,-9,-2,-6,-2
1532067470581,-1,-10,-17,-19,12,-5,-2,-6
1532067470586,-4,2,-3,-1,-38,-6,-2,0
1532067470591,-5,-3,-2,11,15,3,7,8
1532067470596,-1,-2,1,5,-2,6,2,5
1532067470601,0,-2,-8,-17,2,-1,-1,-3
1532067470606,3,-3,-9,-18,-11,-5,-3,-2
1532067470611,3,3,11,40,10,-9,-9,-4
1532067470616,-4,-3,-2,-19,-9,-4,3,0
1532067470621,-5,-4,-6,9,7,2,1,3
1532067470626,1,4,13,-13,-1,2,1,0
1532067470631,1,1,-1,16,10,0,-6,-4
1532067470636,-4,-6,-15,-17,-21,-3,-5,-4
1532067470641,-3,-1,4,-3,3,-3,0,1
1532067470646,-3,-6,-16,-26,-21,-7,-2,0
1532067470651,1,3,6,1,23,10,8,-2
1532067470656,0,1,1,2,-1,-2,-4,-1
1532067470661,-2,-2,-8,7,-9,-9,-6,-6
1532067470666,1,2,-3,-23,-8,3,1,-1
1532067470671,-3,0,-5,26,7,2,0,2
1532067470676,-2,0,2,-6,-3,-2,-4,1
1532067470681,1,2,5,1,15,6,6,4
1532067470686,-4,-8,10,8,1,-1,-3,-1
1532067470691,-1,-5,-11,-19,0,-2,1,-2
1532067470696,0,1,1,1,5,9,5,3
1532067470701,0,6,15,2,-2,-9,-9,-5
1532067470706,1,0,3,7,-14,-5,-2,-2
1532067470711,-4,-7,-3,-9,4,5,4,4
1532067470716,0,5,5,5,13,2,4,-3
1532067470721,-1,-3,1,-20,-5,-2,-1,-1
1532067470726,0,3,5,-5,2,-1,-4,0
1532067470731,2,1,-17,-24,-10,-13,-14,-10
1532067470736,-5,-4,-5,36,-5,2,4,3
1532067470741,2,1,-5,-9,0,-1,-2,0
1532067470746,-4,-3,-13,-12,-4,-2,-1,0
1532067470751,0,2,-6,23,7,2,8,2
1532067470756,-6,-9,-4,-37,-14,-5,-9,-5
1532067470761,-1,-1,0,15,3,0,2,0
1532067470766,1,-1,3,0,2,0,0,1
1532067470771,0,-1,-1,-3,-7,-7,-9,-4
1532067470776,-1,-5,-6,1,-5,-7,-6,-3
1532067470781,2,3,4,-24,-1,4,3,-8
1532067470786,-14,-1,4,29,11,3,-2,-27
1532067470791,16,-3,-1,-14,-11,2,15,44
1532067470796,3,7,7,80,12,5,17,18
1532067470801,-7,-9,15,2,-1,-1,-4,3
1532067470806,2,-1,-19,-24,0,-3,2,-2
1532067470811,-5,0,7,24,0,-4,-18,-29
1532067470816,-2,-3,-12,-61,2,5,11,8
1532067470821,-4,-2,10,32,0,2,8,6
1532067470826,18,3,23,24,1,-3,-6,8
1532067470831,-16,-5,-9,-11,-12,-8,-2,-13
1532067470836,6,1,4,-7,-1,1,-2,0
1532067470841,-6,-1,-12,-12,1,-2,2,-9
1532067470846,4,-2,-4,-9,2,2,5,7
1532067470851,2,-1,4,-9,3,0,-2,0
1532067470856,-4,-2,-12,3,0,2,-6,-4
1532067470861,3,1,-6,-24,-2,-9,-9,-5
1532067470866,-3,-2,4,8,-17,-4,-7,-4
1532067470871,-3,-3,-12,12,6,2,6,4
1532067470876,-4,0,6,-8,-4,2,-1,-6
1532067470881,1,-1,-17,-38,12,11,9,10
1532067470886,1,0,5,9,-2,4,3,2
1532067470891,-3,-1,-7,-6,-3,-12,-16,-12
1532067470896,1,-5,-2,-14,-12,-7,-7,-5
1532067470901,5,6,5,17,4,2,-3,-1
1532067470906,-6,-4,-18,-30,2,2,10,1
1532067470911,-9,-9,16,20,-7,-6,-7,-2
1532067470916,5,4,4,-16,2,-3,-6,4
1532067470921,4,2,-13,3,2,0,2,0
1532067470926,-2,-5,-13,-26,-5,0,2,0
1532067470931,2,-3,4,-16,0,1,3,0
1532067470936,-2,-1,15,29,-2,-6,-13,-6
1532067470941,-9,2,22,6,-3,0,-3,-16
1532067470946,14,1,3,6,3,2,7,21
1532067470951,3,0,-8,-9,4,0,0,1
1532067470956,0,-1,-2,13,-6,2,6,-4
1532067470961,1,0,2,-36,0,4,1,3
1532067470966,-9,0,7,19,4,-4,-11,-17
1532067470971,3,2,8,6,1,4,4,-1
1532067470976,-1,2,-17,-13,-2,-12,-9,-1
1532067470981,-5,-9,-11,16,-7,1,6,4
1532067470986,-3,-3,-7,-3,4,-1,-4,-2
1532067470991,-2,3,9,0,-1,6,1,3
1532067470996,3,2,2,-12,11,4,5,-4
1532067471001,1,-2,-6,-1,-3,-7,-1,1
1532067471006,-3,3,10,11,-1,-5,-8,-1
1532067471011,2,-4,-9,-5,1,3,6,3
1532067471016,-22,-4,10,-11,-5,-2,-14,-31
1532067471021,16,8,-1,15,4,3,12,33
1532067471026,-4,-5,-3,-2,-11,1,9,-3
1532067471031,3,9,3,6,1,-1,2,5
1532067471036,3,7,22,19,11,5,9,3
1532067471041,-9,-5,-3,0,-4,-6,-7,-16
1532067471046,-1,-2,-4,-10,2,-7,-9,0
1532067471051,1,-2,-3,-4,1,-2,-6,-5
1532067471056,-6,-1,-11,5,3,-2,1,3
1532067471061,3,2,6,0,-8,2,4,0
1532067471066,-2,-2,1,14,11,6,5,0
1532067471071,-4,3,13,1,-4,-4,-12,-9
1532067471076,8,-3,-4,0,2,2,3,2
1532067471081,-7,2,11,-6,0,-1,-5,-13
1532067471086,-4,-7,-11,-7,-15,-4,2,7
1532067471091,-7,-1,5,3,1,1,-2,-2
1532067471096,-5,-2,-7,-8,-6,-5,-3,-8
1532067471101,17,4,-3,9,4,2,20,30
1532067471106,6,4,4,-10,0,3,0,5
1532067471111,-22,-11,-8,6,-1,-7,-17,-20
1532067471116,22,12,4,6,4,7,17,12
1532067471121,-8,-3,0,-15,-10,-8,-17,-17
1532067471126,-2,-4,1,12,6,-3,-10,0
1532067471131,0,0,-16,-15,-8,-4,11,-1
1532067471136,9,-3,-5,0,3,2,5,-3
1532067471141,-23,-5,-1,3,3,1,-31,1
1532067471146,-19,0,12,0,-10,-8,18,-19
1532067471151,6,4,-17,-6,3,12,3,27
1532067471156,14,-1,1,2,-1,2,54,-15
1532067471161,-13,-15,-17,5,5,2,32,11
1532067471166,12,2,-8,-7,-1,2,-15,-5
1532067471171,3,3,13,-1,-13,-9,-41,4
1532067471176,-6,-5,-4,-4,-1,-6,-2,1
1532067471181,5,4,6,2,-3,1,-25,-10
1532067471186,-6,-6,-5,3,-2,-10,-15,-18
1532067471191,10,-1,-1,3,-3,0,5,17
1532067471196,-5,-2,-3,-2,2,6,-38,13
1532067471201,1,0,1,-12,3,2,63,-15
1532067471206,9,7,7,-6,8,4,-84,-14
1532067471211,24,-1,-6,-17,-9,-9,77,8
1532067471216,-41,-4,2,-1,-19,-17,-70,16
1532067471221,5,-1,1,6,6,4,10,7
1532067471226,21,11,-2,11,25,36,104,52
1532067471231,-29,-5,-14,-6,19,20,-26,-21
1532067471236,-15,-8,-3,-8,-7,-14,114,-41
1532067471241,25,10,5,28,-14,-16,-60,-40
1532067471246,-14,-8,-14,-57,-29,-18,62,-6
1532067471251,3,-3,4,16,10,7,-8,11
1532067471256,-6,-5,-6,-6,8,6,31,38
1532067471261,-1,4,3,-7,-8,-1,-29,5
1532067471266,10,-4,0,43,10,3,-26,-12
1532067471271,-7,3,9,-14,-12,-11,-43,-15
1532067471276,17,0,-9,-1,-3,6,-36,-3
1532067471281,1,0,11,-4,8,1,-5,17
1532067471286,-3,3,-9,-2,7,20,-1,12
1532067471291,2,-3,7,10,3,-5,-57,-20
1532067471296,1,-2,-2,-4,-10,-12,38,33
1532067471301,4,3,-7,-11,-14,-21,26,-22
1532067471306,-8,-4,23,15,5,5,-34,15
1532067471311,-10,-6,-12,12,4,3,86,-8
1532067471316,13,-1,-5,-23,3,0,-103,-40
1532067471321,-8,-5,-8,5,0,1,83,52
1532067471326,2,0,6,11,-4,-15,-13,-25
1532067471331,5,-2,-6,-15,-10,-6,9,2
1532067471336,4,4,20,8,1,5,-69,-30
1532067471341,0,-3,-14,-2,8,3,15,10
1532067471346,-8,-4,1,-3,-6,-10,-60,1
1532067471351,10,6,5,-5,-8,-2,68,22
1532067471356,-7,-5,-22,-24,2,2,-27,36
1532067471361,-1,-2,9,17,4,2,-110,-32
1532067471366,-6,2,-5,-1,11,7,96,26
1532067471371,3,2,5,7,0,-4,-21,-10
1532067471376,7,3,10,28,-2,-5,-11,-9
1532067471381,-6,-4,-10,-16,-9,-1,31,2
1532067471386,3,-1,7,-12,-9,-8,-76,-22
1532067471391,4,5,21,14,5,3,11,-6
1532067471396,7,6,20,41,1,2,15,-8
1532067471401,10,-4,-2,-67,-20,-8,-79,9
1532067471406,0,-5,-2,-35,-15,-4,-97,-36
1532067471411,1,-2,-12,11,9,-2,62,-2
1532067471416,-15,-6,-16,0,6,0,9,15
1532067471421,16,1,15,-20,-3,0,4,-15
1532067471426,-13,4,-5,-10,-9,-5,-55,4
1532067471431,-5,-5,-1,11,0,3,27,10
1532067471436,7,2,-1,29,1,-1,-5,3
1532067471441,1,5,7,-2,12,3,43,9
1532067471446,10,-3,0,5,-4,0,-93,-15
1532067471451,0,2,6,-19,-20,-17,24,11
1532067471456,-10,-6,-9,8,15,13,23,-1
1532067471461,-5,-2,4,-1,3,4,24,6
1532067471466,4,3,17,53,5,-4,11,-21
1532067471471,-4,-7,-13,-36,-15,-1,-26,5
1532067471476,0,1,0,1,-12,-8,-19,-10
1532067471481,0,0,-8,49,16,-2,8,-7
1532067471486,-2,1,-1,8,0,3,66,47
1532067471491,-2,-4,-7,-11,1,4,-23,-53
1532067471496,-2,-4,-1,-3,-9,-5,-8,-2
1532067471501,-3,3,4,30,5,3,28,15
1532067471506,1,5,-2,-14,-1,-4,17,-16
1532067471511,4,1,5,2,-4,-2,-64,-20
1532067471516,-5,-5,-10,14,9,3,21,43
1532067471521,-4,2,8,-15,-15,-6,-31,11
1532067471526,3,-2,-5,-7,3,0,48,-42
1532067471531,-9,2,0,-8,-2,-2,-20,20
1532067471536,-10,-12,1,-3,-3,-7,-14,-49
1532067471541,19,7,-1,3,2,2,-5,28
1532067471546,-1,-6,-6,-17,-6,1,20,14
1532067471551,11,4,-1,-4,2,5,21,32
1532067471556,-3,2,7,7,-12,-14,-47,-1
1532067471561,-8,-5,-3,14,-3,-3,44,-15
1532067471566,7,3,0,1,7,3,4,19
1532067471571,-6,-5,-5,-3,5,2,-3,-8
1532067471576,1,4,10,-7,1,0,-2,-8
1532067471581,-7,-5,-8,-6,3,5,2,-2
1532067471586,-4,1,6,-1,-8,-8,-28,-14
1532067471591,0,3,8,17,11,3,12,16
1532067471596,5,11,5,-12,-5,-7,-12,19
1532067471601,-4,-3,4,4,4,12,-26,12
1532067471606,-1,2,4,-3,1,-9,-3,-5
1532067471611,3,6,9,9,5,2,-2,0
1532067471616,12,0,0,4,-5,10,25,10
1532067471621,-3,5,-7,-8,1,2,14,26
1532067471626,1,-3,-8,5,4,-4,0,-7
1532067471631,-5,-1,2,-12,-9,-5,-3,-5
1532067471636,3,-2,1,11,-5,-4,-18,-9
1532067471641,-10,-5,0,-21,-5,-5,-12,-27
1532067471646,3,-2,-9,0,-3,0,-2,17
1532067471651,10,3,0,10,-1,-5,14,9
1532067471656,-5,-2,-10,-7,1,8,12,-2
1532067471661,-5,-6,-10,-7,0,1,6,-3
1532067471666,-6,-3,1,17,7,8,-1,-12
1532067471671,-3,-2,-7,-16,-10,-6,-13,-11
1532067471676,10,-4,-9,-3,0,3,7,14
1532067471681,-7,9,10,19,-3,-9,9,0
1532067471686,3,2,7,7,1,0,-20,-6
1532067471691,-2,-8,-12,-3,-6,2,7,7
1532067471696,-7,3,5,-4,6,-1,-2,-17
1532067471701,2,6,3,6,9,3,-4,-15
1532067471706,-9,-5,-3,-7,-1,-1,-1,-13
1532067471711,-3,0,-2,-8,-7,1,8,3
1532067471716,1,1,6,5,4,-4,-8,-5
1532067471721,3,3,-3,4,3,-3,-4,-11
1532067471726,-6,-1,4,-29,-10,-2,0,0
1532067471731,-4,-2,7,0,-8,-12,-19,-16
1532067471736,3,7,8,-6,-3,-2,-2,-5
1532067471741,-5,-8,-7,4,12,11,3,4
1532067471746,-6,-2,-3,5,3,0,-1,-11
1532067471751,7,2,4,-2,-3,-3,-3,-2
1532067471756,-13,-4,-7,-17,-9,-5,-7,-14
1532067471761,7,7,0,-9,-4,-3,2,1
1532067471766,-1,3,5,25,9,7,4,-4
1532067471771,-7,-10,-6,2,1,6,1,-8
1532067471776,-2,-3,0,7,5,1,2,6
1532067471781,2,-4,-4,-5,-10,-1,6,6
1532067471786,2,-1,0,-1,-8,-10,-16,-10
1532067471791,-3,3,6,18,6,3,5,-5
1532067471796,-24,-26,-58,-64,-14,0,4,-7
1532067471801,19,13,11,7,11,10,21,7
1532067471806,-19,-16,-16,-19,-7,-10,-15,25
1532067471811,31,8,7,28,-6,2,15,25
1532067471816,4,3,16,-1,-5,-4,-3,-1
1532067471821,-10,-4,4,3,0,-2,-4,-12
1532067471826,-7,-2,-7,27,5,5,6,-1
1532067471831,-9,-11,-14,-25,-1,1,3,-5
1532067471836,7,3,9,11,-4,-5,-5,11
1532067471841,-3,1,3,-12,-6,-13,-26,-15
1532067471846,4,5,8,12,6,7,12,1
1532067471851,-8,-5,-5,-2,5,0,6,12
1532067471856,9,9,12,2,0,5,9,14
1532067471861,-3,-7,-1,14,-2,-4,-23,-17
1532067471866,18,5,-6,-19,-8,-5,5,-4
1532067471871,21,-2,-3,10,4,3,-14,3
1532067471876,8,-5,2,2,4,1,-2,19
1532067471881,-37,-2,15,2,-1,-2,-2,-9
1532067471886,-10,7,0,6,1,2,-8,-4
1532067471891,23,5,-10,12,-10,-5,47,3
1532067471896,-43,-9,11,1,1,-2,-7,7
1532067471901,38,5,3,-1,-5,-9,-24,-41
1532067471906,-14,-10,6,11,4,3,-95,-34
1532067471911,-10,1,-9,-15,-2,-4,66,23
1532067471916,7,-3,3,-12,-1,7,19,0
1532067471921,-9,-3,-7,-7,3,4,96,62
1532067471926,12,-1,-7,-8,9,1,-42,-5
1532067471931,-17,-6,8,23,-5,-8,-9,-15
1532067471936,-5,5,1,-4,-11,-10,-42,-9
1532067471941,15,-2,-7,-35,1,7,-93,1
1532067471946,30,8,9,27,-9,-4,65,-1
1532067471951,-34,-11,-1,-6,-2,-3,-4,-2
1532067471956,25,7,-3,15,12,13,-76,24
1532067471961,-12,1,-10,8,11,4,32,11
1532067471966,5,-2,-4,-15,1,-1,-31,9
1532067471971,-1,1,11,-32,-11,-1,-93,-3
1532067471976,-1,-3,-12,1,-2,-5,99,23
1532067471981,-10,-7,-17,9,-1,1,7,-14
1532067471986,3,0,6,-1,-3,-1,3,15
1532067471991,-1,1,8,-14,-8,-1,-27,0
1532067471996,6,0,2,-1,0,2,-22,-19
1532067472001,-10,-9,-13,-14,-8,-6,39,6
1532067472006,-7,0,3,8,-3,-3,-39,-26
1532067472011,-7,-4,-9,-4,3,2,55,-1
1532067472016,7,1,-6,-3,3,0,19,3
1532067472021,2,1,14,7,-8,-3,-48,-33
1532067472026,-13,-3,-7,-9,-2,-6,25,31
1532067472031,3,0,2,3,4,-2,2,-16
1532067472036,4,0,10,-12,-6,-4,-33,-6
1532067472041,-2,6,27,-4,3,1,27,-22
1532067472046,-6,-8,3,0,3,9,30,9
1532067472051,1,-3,1,3,-7,-7,10,48
1532067472056,1,2,-8,34,4,-5,1,-18
1532067472061,0,-2,6,-12,-10,-6,-29,-2
1532067472066,6,0,4,-14,-3,0,20,-11
1532067472071,-10,-1,-10,0,9,2,-20,-13
1532067472076,3,-5,-1,-3,-9,-9,5,24
1532067472081,-4,1,-1,18,12,8,25,3
1532067472086,0,1,-3,-11,-4,-2,-1,-5
1532067472091,3,0,-4,-9,4,3,-11,18
1532067472096,3,-2,-11,-63,-17,-8,-39,-29
1532067472101,-7,-3,-22,11,-6,-10,22,39
1532067472106,5,0,-1,0,-6,-8,-7,13
1532067472111,-4,-2,-3,28,15,19,-7,-35
1532067472116,0,0,-3,-1,-3,-3,18,5
1532067472121,-3,-4,-3,-18,0,0,-34,-26
1532067472126,3,0,4,53,12,-6,32,47
1532067472131,4,0,10,-51,-33,-6,-61,-65
1532067472136,-10,-6,-15,-4,2,-2,30,72
1532067472141,4,1,1,0,-5,-3,-13,-58
1532067472146,-1,0,-10,12,-9,-5,-1,-7
1532067472151,-3,-1,8,49,27,20,1,7
1532067472156,-1,-3,4,10,12,-7,6,10
1532067472161,3,-1,0,5,-7,-5,-7,11
1532067472166,0,1,2,1,4,10,22,-6
1532067472171,0,0,-3,21,11,-10,0,33
1532067472176,0,2,0,-23,-21,-5,-36,-32
1532067472181,16,-1,8,-19,-9,-4,32,-30
1532067472186,16,-1,-10,0,21,10,-1,27
1532067472191,-52,-5,-18,-18,-19,-6,-15,13
1532067472196,-3,-1,6,-9,8,3,-6,42
1532067472201,16,-1,-11,19,13,-4,33,-10
1532067472206,3,10,21,-47,-28,2,-54,-78
1532067472211,6,-3,-7,5,15,3,18,97
1532067472216,13,2,-2,12,-6,-6,-20,-47
1532067472221,-16,-2,2,-9,-5,3,4,17
1532067472226,1,-2,2,-1,-4,-2,1,-6
1532067472231,13,-1,1,-12,-1,3,1,16
1532067472236,-2,1,8,-7,-6,-3,-18,-44
1532067472241,9,0,1,1,2,2,11,51
1532067472246,-30,-6,-5,3,12,3,27,-12
1532067472251,14,0,7,-2,-14,-8,6,-13
1532067472256,-7,-4,-3,7,4,1,18,9
1532067472261,2,-1,-1,-13,-7,-1,-23,24
1532067472266,7,1,1,5,-5,-6,-21,-44
1532067472271,-5,-3,-5,-12,-3,2,11,-20
1532067472276,4,1,1,11,13,11,-1,-31
1532067472281,-11,-1,-8,-10,2,1,8,51
1532067472286,-4,-1,9,1,-2,-6,21,54
1532067472291,8,2,4,9,2,-3,-26,-15
1532067472296,-11,-8,-21,-14,-7,2,9,-41
1532067472301,-4,-2,-2,4,1,-4,-6,-42
1532067472306,-5,-3,-5,4,-4,1,29,-11
1532067472311,6,4,6,-16,-8,-6,-20,17
1532067472316,1,-3,-11,3,-2,-1,22,47
1532067472321,-4,0,-1,4,-5,-2,-44,-43
1532067472326,-8,-5,-6,-25,-9,-3,16,40
1532067472331,4,1,8,18,1,-7,-22,-46
1532067472336,-5,0,6,-1,1,11,-7,9
1532067472341,-4,0,3,16,6,-3,4,12
1532067472346,6,3,6,21,4,-3,-5,-29
1532067472351,-3,-6,-15,-29,-1,-1,22,7
1532067472356,0,1,6,16,-1,-4,-2,-8
1532067472361,-2,0,7,-6,3,3,-21,-1
1532067472366,0,-2,3,18,5,2,26,-9
1532067472371,12,1,-2,-12,-8,-7,-41,-39
1532067472376,-21,-1,5,3,-5,-5,40,10
1532067472381,-3,-2,-9,-5,9,10,15,84
1532067472386,-2,1,-7,-10,2,2,-33,-16
1532067472391,-4,-2,6,17,6,-1,16,12
1532067472396,12,4,9,0,-8,-7,-22,-36
1532067472401,2,2,7,-12,-11,-4,-11,-20
1532067472406,-6,-6,-13,-4,-2,-4,2,7
1532067472411,0,-3,-4,6,11,13,-3,-10
1532067472416,4,-1,3,0,-2,-2,6,43
1532067472421,-6,-3,-8,9,6,-2,13,-43
1532067472426,3,0,-2,10,0,1,5,2
1532067472431,2,1,5,-11,-8,-11,-10,-21
1532067472436,2,-5,-9,-22,-6,0,-4,4
1532067472441,-5,-2,-2,24,1,3,28,-3
1532067472446,4,4,9,-2,-1,1,17,-34
1532067472451,-8,-3,-17,4,12,2,-18,29
1532067472456,1,2,10,-1,0,-3,-2,-28
1532067472461,16,2,7,-10,-20,-7,38,42
1532067472466,-7,-5,-6,13,21,16,16,54
1532067472471,-3,0,5,19,2,6,20,2
1532067472476,2,5,1,-14,4,-3,-36,-28
1532067472481,0,-3,-6,-4,-10,-7,-4,-18
1532067472486,3,-1,1,-18,-6,-3,-2,-3
1532067472491,0,1,8,-4,-1,2,5,1
1532067472496,3,0,-3,14,-2,-3,-3,18
1532067472501,-3,-3,2,11,2,3,-22,-29
1532067472506,-5,-3,-2,-4,0,5,4,39
1532067472511,-1,-1,-10,-8,-2,-4,-9,-20
1532067472516,3,-1,-6,-5,-8,3,-5,-1
1532067472521,2,4,6,-7,-1,-2,-5,-18
1532067472526,-3,3,-3,13,7,-4,-26,7
1532067472531,2,3,8,-1,1,0,18,1
1532067472536,1,-1,1,4,-5,-4,8,15
1532067472541,-8,-4,-9,-5,-7,-4,-39,-22
1532067472546,3,8,9,6,14,1,21,-5
1532067472551,6,4,8,5,2,-1,-26,-39
1532067472556,-11,-26,-62,-48,-36,-11,16,72
1532067472561,-5,-5,-8,1,15,11,10,-4
1532067472566,3,-1,7,-10,-9,-8,-4,-14
1532067472571,-1,2,14,15,-3,1,-18,-2
1532067472576,9,12,16,18,24,1,-1,-18
1532067472581,-2,-4,-12,-29,-18,-6,-7,4
1532067472586,-9,-11,-20,2,4,10,16,10
1532067472591,0,-1,5,-4,-21,2,17,-2
1532067472596,2,1,6,15,26,15,3,0
1532067472601,-6,6,19,61,28,-7,-8,-12
1532067472606,3,-1,-27,-26,-18,-8,-9,-6
1532067472611,-7,-1,1,-2,-11,-2,2,12
1532067472616,-5,-1,4,9,-6,10,7,-4
1532067472621,-3,1,3,-5,13,5,2,0
1532067472626,0,1,18,6,-8,-12,-19,-18
1532067472631,2,-4,-19,-3,-1,-5,14,6
1532067472636,-2,3,5,0,0,-2,0,5
1532067472641,4,8,11,7,19,1,-8,-5
1532067472646,-3,-10,-10,-28,-36,-17,-16,-9
1532067472651,2,-3,-1,3,8,12,23,10
1532067472656,0,5,12,7,28,2,-14,-12
1532067472661,0,-3,-9,-37,-21,-6,8,3
1532067472666,5,3,2,30,29,11,4,5
1532067472671,0,-5,-16,-13,-13,-14,-40,-11
1532067472676,1,-10,-8,-13,-17,-9,4,-10
1532067472681,1,7,7,4,8,10,22,18
1532067472686,-1,-4,-1,-11,-2,7,17,5
1532067472691,-1,-3,4,16,4,0,-2,3
1532067472696,-4,-4,5,-9,-17,-14,-22,-24
1532067472701,5,-4,-14,-30,-13,-12,-13,-5
1532067472706,-2,2,-1,14,13,4,9,14
1532067472711,-3,-1,3,-4,-1,15,12,-2
1532067472716,-5,-3,6,5,10,-9,-22,-15
1532067472721,-1,-3,-4,-1,-12,-7,-14,-12
1532067472726,4,1,6,38,-6,-11,1,0
1532067472731,-6,-4,-8,-27,-3,6,31,23
1532067472736,-3,11,20,17,14,0,-2,-8
1532067472741,3,0,1,11,9,9,12,8
1532067472746,4,5,22,35,19,5,20,5
1532067472751,1,1,11,-21,-37,-19,-17,-4
1532067472756,-1,-4,-1,-7,-2,8,8,5
1532067472761,-9,-13,-13,-7,-5,4,10,0
1532067472766,0,-2,5,-11,2,1,-14,-8
1532067472771,-1,-4,-2,-1,-3,-15,-10,-11
1532067472776,4,5,7,-19,-1,2,7,7
1532067472781,-1,0,7,49,-10,3,-17,2
1532067472786,-8,-5,-20,-40,-2,2,-1,-2
1532067472791,0,-1,-1,17,13,8,5,0
1532067472796,3,0,-21,3,5,3,3,2
1532067472801,-3,-4,5,26,-12,-16,-20,-14
1532067472806,-3,-3,2,-49,-27,-12,-12,-8
1532067472811,1,6,12,10,3,3,-2,-7
1532067472816,0,-2,-3,11,18,10,12,12
1532067472821,3,-4,-13,-25,-1,6,16,12
1532067472826,4,4,9,-3,-4,-12,-12,-8
1532067472831,-7,-7,-8,3,-12,-22,-16,-3
1532067472836,0,-2,-2,-11,-8,19,13,3
1532067472841,-10,-19,-40,-19,13,5,6,-7
1532067472846,0,1,-2,-6,-10,6,8,7
1532067472851,0,-1,5,12,15,-12,-2,3
1532067472856,-2,-3,5,-1,-25,-7,-14,-12
1532067472861,2,12,13,-34,-5,2,1,3
1532067472866,8,2,0,27,23,12,-5,-7
1532067472871,4,5,-4,6,23,8,6,-1
1532067472876,-3,-3,-10,-15,-21,1,12,9
1532067472881,3,6,16,-6,-12,-5,-4,-1
1532067472886,-7,-3,-5,1,3,-4,-5,-1
1532067472891,0,1,2,2,-7,5,-6,-4
1532067472896,1,4,8,13,23,9,7,0
1532067472901,0,3,10,16,3,-2,-4,-6
1532067472906,-1,-1,-22,-25,-13,-4,-8,-8
1532067472911,-1,3,2,0,10,-1,2,10
1532067472916,-2,-10,-24,-9,-18,-22,-10,-3
1532067472921,-1,0,14,18,19,19,17,2
1532067472926,-1,-10,-21,-8,-7,-4,-4,3
1532067472931,-4,-3,3,-4,6,3,-7,-2
1532067472936,4,3,16,-3,-19,-11,-4,-1
1532067472941,4,11,32,9,9,-12,-6,-5
1532067472946,-1,-1,-2,0,9,-1,-4,3
1532067472951,-9,-6,-6,-20,-6,5,8,-3
1532067472956,-3,-4,-5,12,4,0,2,1
1532067472961,1,-5,-13,-15,-7,-5,-6,-4
1532067472966,-2,4,10,-1,-11,-2,-8,5
1532067472971,9,5,2,-8,-10,8,16,10
1532067472976,1,7,29,31,40,8,-2,-5
1532067472981,-6,-10,-24,-25,-35,-19,-24,-19
1532067472986,-1,-4,0,5,7,0,0,-7
1532067472991,-4,-4,-12,-7,-1,6,11,6
1532067472996,0,9,18,13,-8,-8,-7,-5
1532067473001,3,4,-3,-6,2,3,15,15
1532067473006,0,11,24,10,12,9,-1,-1
1532067473011,0,1,-1,7,1,-4,-2,-1
1532067473016,1,-1,-14,-21,-19,-7,-5,-5
1532067473021,-2,-3,-1,1,2,3,-3,-1
1532067473026,-1,2,1,-10,-18,-14,-8,-11
1532067473031,-6,-7,-14,2,9,10,11,9
1532067473036,-2,0,-5,0,11,2,0,3
1532067473041,-5,-9,-12,-2,0,2,2,1
1532067473046,2,0,11,1,-3,-1,3,-1
1532067473051,5,-1,-9,-16,-9,-10,-15,-13
1532067473056,0,2,9,-3,5,-6,-6,0
1532067473061,-2,1,0,15,6,10,15,11
1532067473066,2,-1,0,5,10,5,6,-3
1532067473071,-3,-8,-12,-8,-10,-15,-17,-6
1532067473076,0,-2,-10,-15,-30,-12,-4,-2
1532067473081,-3,4,14,28,27,16,5,4
1532067473086,4,-1,-5,8,22,10,13,2
1532067473091,-2,-2,-8,-9,2,-2,5,5
1532067473096,0,-1,0,1,-2,2,-5,3
1532067473101,0,-1,-9,-15,-19,-15,-7,-1
1532067473106,-3,-5,-3,-2,-11,-1,-2,-2
1532067473111,1,2,4,4,2,-4,-9,-5
1532067473116,-3,-4,3,-2,3,0,4,1
1532067473121,0,3,6,-1,-12,3,2,1
1532067473126,-1,-1,-5,-2,2,1,4,5
1532067473131,-1,0,11,3,-4,-4,-12,-10
1532067473136,-2,-5,-10,-4,2,2,4,2
1532067473141,3,3,8,-13,-9,-11,-16,-8
1532067473146,0,0,3,2,-4,-1,11,3
1532067473151,-4,11,25,19,20,9,2,6
1532067473156,-4,-13,-28,-15,-11,0,-1,-7
1532067473161,-3,-3,-2,-13,11,1,-5,-5
1532067473166,-2,-3,0,-2,-20,-10,-7,-5
1532067473171,1,0,7,6,4,0,-2,-3
1532067473176,-2,2,-1,5,10,3,3,3
1532067473181,1,1,-8,-7,-7,-4,-5,-6
1532067473186,-1,1,0,2,2,2,-1,-1
1532067473191,0,-4,-10,-1,-6,1,0,0
1532067473196,1,-1,-3,-9,-7,-4,-3,-2
1532067473201,2,-2,-2,-5,-14,-11,-11,-6
1532067473206,-8,-5,-2,9,20,18,18,10
1532067473211,0,0,-5,-7,2,8,2,4
1532067473216,2,-1,7,7,-4,-9,-9,-8
1532067473221,-1,-6,-25,-30,-10,-5,-16,-7
1532067473226,-2,-1,-2,-2,4,7,31,14
1532067473231,-1,-1,-5,-4,3,0,-3,-6
1532067473236,1,-1,5,15,-4,-6,-18,-4
1532067473241,1,-2,8,2,-9,-7,8,-4
1532067473246,1,0,2,-2,0,0,-4,-4
1532067473251,-5,-3,-7,1,18,9,-12,10
1532067473256,-1,2,8,-9,-11,2,19,14
1532067473261,-1,0,-9,-2,-1,-2,9,-5
1532067473266,2,4,4,-3,-5,-7,-9,-5
1532067473271,3,1,2,1,-8,-2,-14,-4
1532067473276,-3,-8,-8,-15,-10,-10,-47,-14
1532067473281,0,1,2,10,10,8,13,9
1532067473286,-8,-2,-4,8,3,5,72,12
1532067473291,-4,-3,-6,-2,1,-1,-24,-3
1532067473296,-2,1,-10,-13,-4,0,36,-4
1532067473301,1,-1,13,11,-5,-6,-23,-9
1532067473306,1,-4,-1,7,5,-1,-9,-4
1532067473311,0,-3,-4,24,-7,-5,-20,-1
1532067473316,-2,1,6,-41,-8,-2,23,3
1532067473321,-1,-5,-1,2,7,1,8,-3
1532067473326,-1,0,-3,9,2,-5,-17,10
1532067473331,-2,2,-5,6,0,3,5,-2
1532067473336,-4,-1,3,10,5,6,1,6
1532067473341,0,3,8,-2,-1,-5,-10,-6
1532067473346,3,0,0,2,-2,-5,-12,-4
1532067473351,0,-5,-9,-28,-3,4,30,13
1532067473356,-8,-2,-11,12,0,-6,-14,-9
1532067473361,0,-2,-2,-2,1,3,-1,6
1532067473366,0,0,7,1,-2,-2,-27,-12
1532067473371,5,4,12,3,-2,-3,39,3
1532067473376,3,-2,-21,-4,-1,2,2,5
1532067473381,-8,-7,1,2,-11,-6,6,-21
1532067473386,7,8,12,9,5,0,-24,-10
1532067473391,3,1,22,-15,-8,-5,-11,-7
1532067473396,-18,-8,5,28,18,7,45,21
1532067473401,-5,2,0,-4,0,-2,-37,-4
1532067473406,-2,0,-14,-18,0,2,4,0
1532067473411,8,2,2,23,-2,-1,-23,-10
1532067473416,5,5,1,-6,-5,-5,-50,-8
1532067473421,9,-1,-3,-12,2,1,22,12
1532067473426,-3,-7,-10,-14,-7,-2,7,4
1532067473431,-8,0,-7,4,9,3,-15,-3
1532067473436,-5,-5,0,0,1,3,-1,0
1532067473441,6,1,0,11,-2,-3,-28,-5
1532067473446,-11,1,9,17,8,4,13,-6
1532067473451,-3,-8,-19,-47,-20,-13,22,4
1532067473456,-4,-3,-2,-9,7,8,24,9
1532067473461,7,3,-2,20,0,-1,-12,9
1532067473466,20,4,24,18,1,-3,-12,1
1532067473471,-44,-13,1,20,5,-1,-26,-21
1532067473476,11,3,-10,-5,-1,0,24,9
1532067473481,-3,5,8,-9,2,2,-44,-9
1532067473486,-5,-9,-15,-4,-6,-6,50,21
1532067473491,14,5,-2,27,5,3,3,-5
1532067473496,11,0,4,-16,-4,-1,-17,0
1532067473501,-14,1,-5,0,5,2,2,0
1532067473506,0,-2,-9,-22,-8,3,-9,-4
1532067473511,-24,-10,-23,-36,-16,-5,17,-5
1532067473516,15,0,10,11,-1,-16,-68,2
1532067473521,4,-1,3,38,7,9,47,-13
1532067473526,3,-5,3,9,2,0,-30,-5
1532067473531,20,5,9,21,2,1,61,26
1532067473536,-10,-1,-4,7,4,0,-37,-19
1532067473541,6,2,-1,-40,-10,-10,24,6
1532067473546,-19,-1,10,34,-10,-5,-19,7
1532067473551,37,4,-1,7,11,6,23,9
1532067473556,-7,4,6,-9,-5,-9,-41,-17
1532067473561,0,-5,-20,33,5,11,36,18
1532067473566,-3,2,4,-68,-5,1,1,-8
1532067473571,2,4,23,-1,-5,-3,-4,2
1532067473576,17,6,-5,31,-3,-2,8,0
1532067473581,-40,-9,8,-42,-7,-1,-28,-8
1532067473586,23,-2,2,23,5,-4,-26,1
1532067473591,-37,-4,-8,-14,7,-2,7,4
1532067473596,-11,-3,-6,-61,-11,3,10,-16
1532067473601,0,2,-3,32,-7,-3,0,4
1532067473606,-11,2,0,12,5,1,-6,-10
1532067473611,2,0,3,4,4,2,1,-2
1532067473616,12,-1,0,-19,1,-5,-6,-4
1532067473621,-18,-11,-10,-17,-8,-5,7,3
1532067473626,-9,-2,-5,-4,-5,-3,-2,-4
1532067473631,13,2,-3,-26,2,3,-15,-1
1532067473636,-14,3,20,67,9,0,21,0
1532067473641,12,0,-15,-13,-3,-10,-14,2
1532067473646,0,3,8,29,8,11,3,-5
1532067473651,-3,-2,0,-16,6,7,-8,-2
1532067473656,2,-4,-1,26,-3,-1,21,-1
1532067473661,2,0,24,6,-2,-4,-43,6
1532067473666,16,-1,-7,-13,-2,-3,75,36
1532067473671,8,6,8,20,-4,-4,4,-10
1532067473676,-10,8,-4,0,6,4,-1,-13
1532067473681,33,2,0,11,0,-3,-9,2
1532067473686,-63,-7,-3,32,15,-2,-44,-18
1532067473691,20,1,-15,-10,-6,4,35,47
1532067473696,6,-6,-11,47,4,-4,20,1
1532067473701,-10,1,-6,-32,-12,-5,5,-19
1532067473706,11,1,-9,-5,-1,2,-21,-12
1532067473711,2,1,-5,-12,10,-1,1,-6
1532067473716,-11,-6,-14,-39,-13,-6,-10,8
1532067473721,12,-4,-9,-59,-8,5,25,-17
1532067473726,-10,3,9,5,-9,-2,-2,-12
1532067473731,-9,-7,-24,-10,-6,-9,-49,-11
1532067473736,4,-1,-3,13,6,7,25,5
1532067473741,-5,-1,-3,-7,8,7,17,9
1532067473746,12,2,0,-16,5,2,8,1
1532067473751,-13,-5,-2,-31,-26,-13,-12,-14
1532067473756,-3,-1,0,42,6,3,-10,-1
1532067473761,10,5,7,18,7,-5,-17,-2
1532067473766,4,-2,-13,9,5,3,13,12
1532067473771,-3,9,4,-5,0,-2,-17,-17
1532067473776,8,-2,-3,-25,-3,0,8,-3
1532067473781,-10,-2,2,12,2,3,7,7
1532067473786,14,1,0,-46,-1,4,-5,-1
1532067473791,-2,-1,10,51,3,-3,12,5
1532067473796,-6,-1,3,-1,4,-1,-14,-7
1532067473801,-2,-1,-13,-48,-24,-6,20,14
1532067473806,3,-3,2,-44,-7,-10,-15,-11
1532067473811,0,-3,-5,-46,-10,12,15,4
1532067473816,-5,-2,4,33,11,1,-2,1
1532067473821,-1,-2,0,21,9,2,3,3
1532067473826,4,2,-5,-7,-11,0,-6,0
1532067473831,-2,1,13,80,12,-4,-8,-5
1532067473836,-4,-4,-2,-46,-19,4,2,16
1532067473841,-3,-3,-15,-34,5,-2,7,-37
1532067473846,-1,-3,16,41,-13,-6,-40,-9
1532067473851,0,0,11,37,11,9,21,7
1532067473856,-6,-2,-5,-4,9,-4,45,48
1532067473861,-2,-1,5,22,-14,-2,-3,-52
1532067473866,1,0,-8,-28,6,-1,33,8
1532067473871,-1,-6,-12,-22,-11,-11,-37,-21
1532067473876,6,0,7,2,-14,-2,-18,-10
1532067473881,-1,-2,-2,23,29,7,15,25
1532067473886,4,0,-7,-8,-1,0,-8,-3
1532067473891,-2,-1,7,23,-2,-1,-10,-3
1532067473896,0,-5,-15,-76,-22,-8,0,-15
1532067473901,-2,-1,4,52,23,8,-14,21
1532067473906,-3,-3,2,-10,-24,-4,-3,-15
1532067473911,-2,-3,-4,1,8,3,37,29
1532067473916,4,4,12,12,2,-5,-18,-11
1532067473921,0,-1,-12,-14,-12,1,8,2
1532067473926,2,1,-2,9,17,3,0,1
1532067473931,-3,-4,-1,-34,-21,-6,-17,7
1532067473936,0,1,5,35,4,-3,22,-43
1532067473941,8,3,3,-36,-24,-18,-59,-30
1532067473946,-3,-1,-10,15,10,10,71,53
1532067473951,-4,-2,0,2,11,5,-31,-18
1532067473956,-5,-4,-3,-45,-1,10,60,12
1532067473961,2,-1,9,8,-9,-9,-11,5
1532067473966,-33,-7,0,11,-6,-12,-43,-54
1532067473971,31,17,2,0,16,13,32,37
1532067473976,4,2,2,-31,-16,-1,-8,23
1532067473981,-6,-4,-2,26,8,-1,3,-1
1532067473986,-9,-7,-4,3,-3,1,5,-2
1532067473991,-7,1,2,13,3,1,-14,-22
1532067473996,0,-3,0,1,1,-8,-24,3
1532067474001,-3,1,7,0,-7,5,13,-24
1532067474006,4,-3,-2,20,7,-5,-15,0
1532067474011,-13,-5,-8,4,10,-10,23,-6
1532067474016,11,3,-8,-34,-18,-3,-19,5
1532067474021,-9,-10,-1,18,-23,-16,-2,10
1532067474026,10,-2,-8,5,20,15,-7,-3
1532067474031,8,4,-1,-41,-18,3,11,-1
1532067474036,-6,1,15,60,26,1,-12,-9
1532067474041,-6,-6,-23,-62,-12,3,15,16
1532067474046,5,0,6,2,-6,-15,-17,-5
1532067474051,-2,-4,2,38,4,-3,-3,2
1532067474056,-9,-4,-8,-18,-12,-4,-16,-14
1532067474061,6,7,16,27,6,2,-2,16
1532067474066,6,1,-4,3,0,-1,2,0
1532067474071,-8,-2,2,1,-10,-13,-6,-2
1532067474076,-1,-5,-8,-14,9,12,-9,-5
1532067474081,0,4,3,-31,19,11,17,11
1532067474086,-2,0,6,36,-11,-1,2,6
1532067474091,7,1,1,-16,-10,-10,-8,0
1532067474096,-2,0,-8,11,-8,-6,-12,-7
1532067474101,2,4,16,34,23,17,16,15
1532067474106,1,3,2,12,12,4,4,-3
1532067474111,-4,-2,4,-65,-17,-9,-15,-6
1532067474116,3,-2,-9,-4,-13,-2,-2,2
1532067474121,-1,-1,6,22,-5,-8,-8,-9
1532067474126,1,0,10,21,8,7,8,10
1532067474131,-1,0,-1,25,10,-2,-3,-6
1532067474136,-5,-1,-4,20,7,-3,1,-1
1532067474141,-3,-3,-10,-18,-8,-10,-10,1
1532067474146,9,0,2,-1,1,2,6,2
1532067474151,-4,-4,-1,-27,0,0,-5,-3
1532067474156,5,3,-4,-15,-3,-2,0,1
1532067474161,-2,1,8,45,21,19,10,6
1532067474166,-6,-7,-13,-18,-19,-17,-7,-8
1532067474171,1,-9,-15,-21,-4,7,-1,-5
1532067474176,-8,-1,9,16,-7,-16,-7,-9
1532067474181,8,2,-1,12,-9,-5,-4,5
1532067474186,-1,-2,-8,-11,7,17,5,5
1532067474191,1,3,10,-3,1,3,1,-7
1532067474196,-5,-3,6,60,15,0,1,-7
1532067474201,-5,-16,-25,-7,-17,-14,-16,-7
1532067474206,0,-2,-2,-47,-12,0,5,10
1532067474211,-10,-9,-8,28,4,0,-18,-24
1532067474216,3,3,-2,-20,10,6,15,15
1532067474221,-1,5,-2,-15,-10,-5,0,4
1532067474226,5,-1,3,4,-4,-8,-11,-8
1532067474231,-12,-5,-6,16,-7,-1,-5,-6
1532067474236,9,-3,-1,-9,1,3,0,1
1532067474241,-4,1,0,-8,3,-4,2,-4
1532067474246,4,-1,-3,-19,-1,-7,-10,-2
1532067474251,5,1,11,8,-1,8,14,14
1532067474256,-4,-1,4,-34,-15,-15,-14,-9
1532067474261,-5,1,0,36,20,11,7,-5
1532067474266,7,3,2,-21,9,7,13,12
1532067474271,-5,2,0,6,12,-4,-9,-3
1532067474276,6,3,16,33,-1,4,2,10
1532067474281,2,-1,-32,-31,-12,1,1,-8
1532067474286,-9,8,30,49,4,-12,-6,-4
1532067474291,0,-10,-20,-21,6,11,2,0
1532067474296,-3,1,-1,18,2,-2,-3,-3
1532067474301,-9,-11,0,-22,-2,-5,-7,-4
1532067474306,12,10,-4,23,-9,-3,6,-1
1532067474311,0,0,-1,-42,-16,-13,-9,-2
1532067474316,-11,-8,0,7,8,10,-4,-11
1532067474321,7,9,13,-11,-5,9,21,24
1532067474326,-8,-1,2,-19,-8,-6,-8,-13
1532067474331,4,1,3,24,3,5,14,19
1532067474336,7,17,17,-11,9,3,0,3
1532067474341,1,-7,4,-6,-4,-9,-12,0
1532067474346,-9,-12,-6,3,-2,0,-13,-4
1532067474351,10,-1,-10,-18,1,8,16,8
1532067474356,-2,-6,-15,-15,-2,-4,0,4
1532067474361,1,0,6,10,-8,-4,-2,0
1532067474366,-2,-2,-5,-30,-9,-6,-11,-6
1532067474371,-2,1,1,13,-2,-2,-3,-8
1532067474376,-7,-2,-4,-2,7,7,5,0
1532067474381,0,-5,-9,-14,1,-4,-5,-3
1532067474386,0,-9,-11,-4,-5,2,4,12
1532067474391,-2,-3,-4,-12,-16,-15,-38,-3
1532067474396,3,6,-3,6,-1,-1,27,-19
1532067474401,-5,-8,-12,0,10,3,4,1
1532067474406,3,11,11,-1,-3,-2,-23,-14
1532067474411,-3,3,10,22,2,2,64,16
1532067474416,6,-4,-11,-26,-1,-1,-59,3
1532067474421,1,-2,14,16,16,19,42,24
1532067474426,-15,-2,-5,-21,-4,-6,25,-3
1532067474431,8,5,16,13,2,1,-7,2
1532067474436,1,-1,-1,-5,-13,-5,-27,-3
1532067474441,-6,-4,-5,3,1,3,34,1
1532067474446,15,-1,-13,-8,5,5,-8,8
1532067474451,-18,-1,9,11,-1,-1,0,-1
1532067474456,3,1,1,-13,-5,-6,4,-14
1532067474461,-4,3,15,-20,-1,-3,-28,-8
1532067474466,11,0,6,-12,0,5,15,28
1532067474471,0,-1,-13,21,-10,-7,-7,-15
1532067474476,-2,-7,-17,-29,-21,-10,28,0
1532067474481,-1,5,28,11,15,4,-104,-20
1532067474486,1,7,-37,18,8,17,92,11
1532067474491,3,-11,-7,-63,-27,-6,-66,-16
1532067474496,21,8,11,9,51,42,47,22
1532067474501,6,-3,-7,-16,-13,-2,52,-10
1532067474506,4,5,-3,15,10,0,16,23
1532067474511,2,3,-18,-13,11,4,-23,-12
1532067474516,-17,-8,27,9,-22,-22,-13,-1
1532067474521,2,6,26,35,-9,-9,-28,-11
1532067474526,13,-11,-53,-40,-20,-31,-40,0
1532067474531,-12,-7,-13,-36,0,16,26,-13
1532067474536,3,-7,-13,58,-1,4,-86,12
1532067474541,2,2,7,-2,-2,-9,21,10
1532067474546,4,3,49,27,-6,-12,-28,-22
1532067474551,-7,-4,-17,34,-3,-18,107,-6
1532067474556,-6,6,-13,-12,10,10,-68,-19
1532067474561,13,2,-23,3,0,-2,-7,19
1532067474566,-28,-12,31,45,19,24,-34,-6
1532067474571,18,5,15,3,4,-6,-6,-4
1532067474576,-10,-3,10,-16,-29,-33,31,-2
1532067474581,-14,1,-20,-1,1,-3,52,5
1532067474586,-2,-5,-28,-4,10,20,-39,-9
1532067474591,2,3,16,14,12,-3,-2,11
1532067474596,1,-3,1,4,7,31,22,21
1532067474601,5,4,3,9,36,33,-52,-8
1532067474606,-5,0,-1,-26,-19,-20,17,-23
1532067474611,0,-7,-10,-3,-10,-14,-55,4
1532067474616,-11,-13,-8,17,-22,-15,21,14
1532067474621,2,0,-4,-16,-11,-14,43,-10
1532067474626,-13,10,16,-27,7,5,-92,-5
1532067474631,-5,-4,-4,24,0,7,75,-55
1532067474636,-1,1,11,-28,3,-12,53,5
1532067474641,-16,-8,16,3,-12,-3,-51,-12
1532067474646,-7,-7,0,2,8,5,26,-26
1532067474651,-3,-1,-3,-25,-3,2,-1,44
1532067474656,2,2,16,44,2,-7,7,8
1532067474661,11,-2,0,-28,3,-5,2,-12
1532067474666,-2,-6,8,-11,-32,-22,-6,1
1532067474671,-4,-3,12,1,-23,-39,-89,-51
1532067474676,20,7,-6,2,19,46,-1,-10
1532067474681,-10,6,-12,12,41,24,85,68
1532067474686,-4,-10,-22,-2,-4,-9,41,6
1532067474691,-8,4,-9,0,-1,-3,-41,-9
1532067474696,5,-6,-24,-26,-44,-53,-51,-6
1532067474701,-14,-8,-7,17,-19,-16,69,-41
1532067474706,17,12,-9,-22,28,42,-7,44
1532067474711,6,0,-8,32,-13,-19,-59,32
1532067474716,-18,-6,-9,3,20,22,55,1
1532067474721,3,5,8,-15,-22,-18,-128,-66
1532067474726,4,-7,-2,13,-23,-54,101,69
1532067474731,-2,3,-1,0,27,45,-3,11
1532067474736,31,6,17,6,37,33,-80,-33
1532067474741,-32,-2,-11,3,-8,14,5,64
1532067474746,-1,2,6,-11,5,-4,5,-22
1532067474751,14,3,-3,-32,-47,-38,5,-5
1532067474756,-35,-10,-29,6,13,3,-1,-13
1532067474761,19,2,8,4,8,-14,-23,-15
1532067474766,6,0,-12,-2,12,35,42,46
1532067474771,-16,-2,12,20,20,15,4,-11
1532067474776,5,2,3,-5,-5,-16,8,12
1532067474781,14,-1,-9,-30,-33,-10,-106,3
1532067474786,-9,-1,3,14,-17,-7,-13,-36
1532067474791,9,2,5,0,28,16,79,61
1532067474796,-7,2,-3,-2,-5,7,31,-33
1532067474801,-1,-3,-4,2,-3,-2,23,42
1532067474806,0,1,8,5,-2,-5,-44,-42
1532067474811,8,2,9,1,-11,-15,-45,-18
1532067474816,-13,-5,-14,-32,7,27,47,65
1532067474821,2,1,5,-7,19,4,11,7
1532067474826,6,2,2,18,-4,-8,6,-14
1532067474831,-6,-2,3,-15,16,23,23,-23
1532067474836,0,-3,-7,-16,-58,-81,40,-24
1532067474841,-6,-7,-6,11,27,41,32,16
1532067474846,0,1,-3,15,28,24,-36,6
1532067474851,-7,-4,4,-53,-23,-18,7,-9
1532067474856,7,5,4,24,-10,-18,-25,-24
1532067474861,31,5,2,9,-11,-2,17,-27
1532067474866,-27,0,-4,12,-5,-14,-4,-15
1532067474871,8,3,-3,23,-13,-42,-111,-18
1532067474876,-11,-2,10,8,19,55,92,53
1532067474881,-31,-13,-16,-21,-18,-29,-68,-52
1532067474886,12,4,4,8,8,9,-48,46
1532067474891,-22,-4,3,9,7,7,95,18
1532067474896,19,8,-16,-30,-8,-13,-127,-57
1532067474901,-14,-7,10,46,-9,14,63,-19
1532067474906,3,-2,-16,59,44,45,57,67
1532067474911,-18,-3,2,-6,-2,3,-48,-14
1532067474916,-5,-4,8,21,16,-3,-21,34
1532067474921,8,6,13,-22,-19,-13,-40,-23
1532067474926,-1,-6,-9,-106,-46,-43,-63,-90
1532067474931,26,4,2,29,10,22,-9,68
1532067474936,-40,-7,-3,-5,22,43,41,-14
1532067474941,2,4,3,18,-9,-30,-22,3
1532067474946,-5,-3,19,12,7,15,37,12
1532067474951,6,-2,-30,-17,-16,-20,11,35
1532067474956,10,-3,5,-23,2,7,-54,-42
1532067474961,-17,-3,-7,-4,16,17,73,60
1532067474966,20,2,3,-56,-3,-21,-34,16
1532067474971,-45,-9,2,-58,-28,5,99,-33
1532067474976,6,6,-4,39,-3,-17,16,-1
1532067474981,6,0,-2,-14,-5,-9,17,37
1532067474986,11,2,6,-25,1,3,-87,-47
1532067474991,2,0,-7,56,30,13,77,16
1532067474996,9,-7,-2,-75,-46,-27,37,-8
1532067475001,-18,1,3,10,7,-1,-30,-15
1532067475006,-6,-2,1,36,-12,-7,14,-13
1532067475011,14,6,10,16,42,28,-33,2
1532067475016,0,-4,-7,-44,-14,-3,-9,3
1532067475021,12,0,4,1,-1,-1,17,12
1532067475026,1,4,1,19,16,-2,-23,43
1532067475031,0,-2,6,-3,-4,2,-3,19
1532067475036,-4,-2,-7,29,0,-4,-13,-13
1532067475041,7,0,2,-16,-13,1,-37,-16
1532067475046,-7,-5,-15,14,12,13,5,-27
1532067475051,3,0,-3,14,1,-9,13,-1
1532067475056,-2,-3,-5,25,3,-4,29,1
1532067475061,-1,-2,1,-77,-11,3,54,44
1532067475066,6,5,10,2,-6,-10,-74,-11
1532067475071,2,2,-1,45,14,12,41,13
1532067475076,-7,-3,-7,-16,0,2,3,2
1532067475081,1,1,9,14,3,-3,-29,-7
1532067475086,-2,-5,-12,34,-10,-8,11,8
1532067475091,6,1,-3,-21,-5,-3,-76,-37
1532067475096,-7,-4,-1,-27,-10,-4,76,32
1532067475101,3,1,4,0,-1,-9,-28,-32
1532067475106,-7,-5,2,26,19,30,44,61
1532067475111,-1,-1,-4,17,19,-4,-36,-54
1532067475116,2,0,8,-80,-27,-3,-62,-28
1532067475121,-6,-6,-3,14,-6,-6,87,38
1532067475126,2,3,-5,5,-4,-16,-42,-8
1532067475131,6,0,-10,14,-6,2,2,-9
1532067475136,-12,-5,18,40,18,14,37,19
1532067475141,-1,0,-13,1,17,9,8,-13
1532067475146,-2,-6,-2,-25,-22,-16,-12,-19
1532067475151,1,1,1,-7,2,3,27,14
1532067475156,4,0,-10,-4,-4,-4,0,-13
1532067475161,-1,0,8,37,6,2,-29,8
1532067475166,0,0,3,-28,-6,-8,-12,-3
1532067475171,-1,-2,-1,-19,-2,-3,28,0
1532067475176,2,-3,-5,-20,-4,-3,-7,-13
1532067475181,-8,-4,-3,10,-1,0,18,-3
1532067475186,5,3,0,9,6,-3,-56,-16
1532067475191,-2,-2,-2,-30,-13,0,-38,-37
1532067475196,-4,-2,-12,25,9,-4,21,36
1532067475201,4,3,2,-35,-15,-7,41,-14
1532067475206,-2,-2,-1,38,8,4,24,12
1532067475211,-5,-2,-5,-1,22,13,-1,26
1532067475216,1,-3,0,-5,-7,-1,-32,-23
1532067475221,6,2,3,-13,-5,2,-93,7
1532067475226,0,0,13,13,-5,-9,50,17
1532067475231,-2,-3,-19,-19,-20,-14,22,6
1532067475236,5,6,4,3,3,4,-20,-12
1532067475241,-7,-4,-5,-1,12,13,6,13
1532067475246,-1,2,13,14,12,5,8,-8
1532067475251,1,2,-8,4,7,0,23,12
1532067475256,4,4,0,-8,-5,-9,-7,-2
1532067475261,-1,-1,-3,10,-11,-9,-28,-18
1532067475266,-3,-1,-1,0,1,-1,12,-7
1532067475271,-1,-2,5,-10,2,4,1,-3
1532067475276,3,1,8,7,-6,-11,-11,-2
1532067475281,2,3,5,7,4,10,28,1
1532067475286,1,-2,-2,-14,-11,-10,-69,-31
1532067475291,-2,0,3,-9,-16,-12,-13,23
1532067475296,-10,-5,-7,7,4,9,89,-36
1532067475301,-5,-5,-6,5,5,-1,12,25
1532067475306,-3,-4,-2,-13,-10,-5,65,30
1532067475311,5,1,3,9,0,-2,-72,-25
1532067475316,2,-3,2,8,8,-1,-27,-5
1532067475321,-15,-13,-14,-21,-47,-17,-44,-18
1532067475326,12,5,-2,18,45,13,-8,1
1532067475331,-2,0,2,-5,-6,-1,37,1
1532067475336,-3,2,-3,-1,-1,-3,-2,10
1532067475341,0,2,3,7,9,10,5,-8
1532067475346,-2,-2,1,-7,-19,-15,-17,-10
1532067475351,-8,-5,2,-1,-4,5,24,4
1532067475356,5,3,5,0,0,1,-91,3
1532067475361,6,0,9,13,12,-1,48,13
1532067475366,-9,-2,-5,-20,-14,-2,-1,-31
1532067475371,3,6,-5,9,12,5,28,34
1532067475376,-4,3,8,-4,-18,-7,67,-21
1532067475381,-7,-1,-16,3,11,13,85,5
1532067475386,6,2,3,2,-2,6,-49,-6
1532067475391,2,-3,3,30,0,-14,-13,-6
1532067475396,4,-2,8,-41,15,17,-33,20
1532067475401,4,3,9,18,17,-3,-18,-7
1532067475406,0,-1,-1,-13,-17,-6,-16,-25
1532067475411,-1,-2,-8,-6,5,11,7,35
1532067475416,2,1,1,22,8,0,-86,-22
1532067475421,0,-1,-10,-12,-12,-9,-14,49
1532067475426,-2,-3,0,21,24,19,85,32
1532067475431,-7,-9,8,-5,-15,-12,-27,-24
1532067475436,-1,-7,2,0,-4,-6,16,30
1532067475441,1,-2,-2,-8,-7,7,-116,-61
1532067475446,-4,0,-4,-3,-12,-22,6,11
1532067475451,1,0,-1,-8,6,12,90,20
1532067475456,-6,0,-15,7,0,1,103,22
1532067475461,3,2,1,-4,-6,-11,-46,-27
1532067475466,-3,1,0,5,-18,-12,-19,-4
1532067475471,-5,-2,5,-30,21,24,-33,-11
1532067475476,5,3,2,-5,-8,-8,-95,6
1532067475481,3,4,8,10,-3,0,30,-55
1532067475486,-15,-11,-21,-21,11,12,97,80
1532067475491,0,-2,-9,0,-20,-21,-26,-11
1532067475496,-7,-2,2,9,-4,1,-47,-24
1532067475501,-5,-4,1,2,13,9,-43,-3
1532067475506,6,2,14,3,3,-1,-23,-21
1532067475511,-1,0,1,0,0,-9,-22,-6
1532067475516,-4,-2,-4,-7,-16,-10,72,8
1532067475521,1,-3,1,-4,-12,-8,5,5
1532067475526,-2,-2,-3,2,17,13,1,-3
1532067475531,-2,-1,1,2,-8,-8,4,-4
1532067475536,-4,-1,4,6,0,3,33,-39
1532067475541,2,3,4,-7,-3,-3,20,23
1532067475546,1,1,1,9,3,-3,-73,-4
1532067475551,-4,-2,-10,-9,-8,-3,24,-13
1532067475556,1,0,2,5,4,0,-1,18
1532067475561,-6,-2,-3,-2,6,3,18,43
1532067475566,2,-3,-4,-7,-9,-5,21,-5
1532067475571,2,1,9,8,-2,-4,-19,-11
1532067475576,-3,-3,-7,-11,-13,-1,6,19
1532067475581,-2,-4,-3,2,8,1,13,-8
1532067475586,0,2,9,3,3,5,-19,7
1532067475591,4,1,4,-1,-5,-7,-99,-38
1532067475596,6,2,-5,3,-1,-5,61,15
1532067475601,-8,-2,5,-7,-7,11,-81,8
1532067475606,-11,1,-5,-6,-2,2,106,-31
1532067475611,3,-10,-6,19,14,0,-13,-20
1532067475616,-4,-8,0,-2,-1,-5,-6,-15
1532067475621,1,4,-6,-3,-14,-13,-2,-15
1532067475626,4,18,2,-5,-9,-5,-59,-12
1532067475631,-3,-10,5,-6,-1,8,-4,4
1532067475636,-5,-10,-9,10,11,1,40,14
1532067475641,-2,0,-9,-10,-3,0,-5,6
1532067475646,2,0,-1,1,-7,-13,-61,-19
1532067475651,2,19,8,2,0,6,127,15
1532067475656,-1,-1,-11,0,5,7,-66,34
1532067475661,1,-1,-1,4,-2,3,-17,-7
1532067475666,18,7,14,3,16,4,-72,-1
1532067475671,-14,-9,-10,-5,-2,-3,78,39
1532067475676,-2,-2,-2,4,-4,-3,-37,-35
1532067475681,-13,-7,-1,-12,-3,2,72,11
1532067475686,-8,-8,3,3,-9,-1,-57,-19
1532067475691,5,-3,4,-2,2,-5,-23,-8
1532067475696,2,4,6,6,13,8,-4,-3
1532067475701,4,4,-1,-2,2,-3,-12,-12
1532067475706,-5,-7,-9,-9,-23,-5,-20,-7
1532067475711,0,10,3,-3,9,1,-36,26
1532067475716,-3,-5,-6,-3,4,2,27,2
1532067475721,-13,-17,-4,9,6,-1,-16,-11
1532067475726,-2,4,8,-5,-12,-8,-49,-17
1532067475731,1,-5,-5,-1,-8,-8,16,32
1532067475736,3,16,4,4,5,9,20,-12
1532067475741,3,1,-2,-2,-1,3,26,-2
1532067475746,-6,-19,-5,-4,0,-1,-21,5
1532067475751,1,11,-6,5,1,-2,-44,-4
1532067475756,2,-1,4,2,4,-1,30,29
1532067475761,11,15,9,-5,-8,-6,-96,-20
1532067475766,0,12,1,-3,1,-2,94,54
1532067475771,-16,-23,-27,-2,-2,-2,73,-69
1532067475776,-11,-24,0,1,-3,-3,-42,-31
1532067475781,-6,-11,0,-5,-4,0,9,17
1532067475786,16,15,14,7,18,5,-25,9
1532067475791,9,6,14,2,6,0,-45,22
1532067475796,4,2,-6,-7,-6,-5,21,-18
1532067475801,-1,-11,9,3,-3,2,0,2
1532067475806,2,2,11,-7,-12,-4,21,11
1532067475811,3,2,12,-1,-2,-2,-56,-24
1532067475816,-2,-3,-4,5,10,2,64,40
1532067475821,6,4,-5,2,2,1,-3,6
1532067475826,5,-3,10,-7,-7,0,3,-11
1532067475831,-4,19,0,3,6,-4,-44,17
1532067475836,-4,-14,8,0,-3,-4,-17,-14
1532067475841,3,0,16,-15,-18,-5,-17,-2
1532067475846,-1,13,1,8,19,6,-20,-7
1532067475851,0,-9,2,7,10,4,21,-1
1532067475856,0,-34,6,-6,-7,-4,-44,-6
1532067475861,0,17,-4,3,4,-4,-10,-32
1532067475866,14,-6,5,-9,-14,1,38,17
1532067475871,0,16,-6,3,2,3,4,31
1532067475876,-5,-4,-11,3,4,1,28,9
1532067475881,0,-9,1,0,-4,0,4,-6
1532067475886,1,-1,-8,6,6,4,-14,-4
1532067475891,8,6,-11,-12,-6,0,36,19
1532067475896,11,33,-45,-8,-5,-5,-30,8
1532067475901,-11,-38,18,10,5,9,66,-1
1532067475906,-14,3,-23,0,-2,-5,-38,3
1532067475911,1,-22,6,-1,-19,-4,66,9
1532067475916,0,8,-1,-15,-2,-1,-27,5
1532067475921,-9,11,-36,15,28,-6,-68,-6
1532067475926,1,-41,13,4,-10,-5,-40,-2
1532067475931,9,25,-11,-9,-12,-1,21,23
1532067475936,-6,-8,2,-6,7,5,-42,-8
1532067475941,10,13,-5,6,14,3,35,4
1532067475946,-1,8,3,7,9,4,-50,1
1532067475951,0,-5,-1,0,2,3,-7,0
1532067475956,-10,-2,-10,-9,-13,-9,-16,3
1532067475961,23,12,14,-11,-16,-6,82,1
1532067475966,-35,-4,-11,3,4,14,-21,-2
1532067475971,-1,-18,-3,10,18,7,60,-2
1532067475976,2,11,-3,1,0,-2,-18,-26
1532067475981,-5,-9,-5,5,9,-1,-16,0
1532067475986,4,-1,4,-11,-20,-11,23,1
1532067475991,1,3,-9,-6,-11,0,4,8
1532067475996,-7,-5,0,-8,-1,3,24,2
1532067476001,5,-2,0,5,8,0,-44,-7
1532067476006,-4,-2,-6,-5,-1,-4,42,42
1532067476011,-2,1,-5,-6,-7,-4,-10,-17
1532067476016,2,-4,-1,-4,-3,-1,-1,2
1532067476021,5,-1,6,9,2,3,23,-9
1532067476026,-5,3,0,-8,3,-6,-5,12
1532067476031,0,2,-3,-19,0,-2,-1,-5
1532067476036,-3,-4,20,32,-12,-1,84,29
1532067476041,-21,-5,-16,-16,-7,-14,-114,-33
1532067476046,6,6,4,-4,-7,-1,25,-35
1532067476051,5,2,4,4,7,2,8,10
1532067476056,-4,2,-12,-20,11,7,-1,-16
1532067476061,-4,-3,8,-2,-10,-4,-20,14
1532067476066,9,5,8,-5,2,-4,-2,0
1532067476071,3,-2,-7,18,5,-1,-1,2
1532067476076,0,2,-15,-30,-12,-4,-28,6
1532067476081,0,-1,0,-63,-3,8,42,-8
1532067476086,-8,-1,2,-16,-7,-11,-7,7
1532067476091,-5,-1,5,11,-8,-3,-36,-3
1532067476096,2,0,-1,-8,12,3,3,-4
1532067476101,-2,-1,-19,9,9,1,-78,-17
1532067476106,-1,-3,8,42,1,0,41,-14
1532067476111,4,3,5,-11,-10,-3,72,23
1532067476116,-3,2,8,-22,4,-11,-108,-5
1532067476121,-16,-9,-25,-53,1,5,19,-6
1532067476126,3,0,-7,-26,-11,3,20,-16
1532067476131,1,3,10,81,9,-1,65,8
1532067476136,-13,-4,-2,-10,-29,-14,-83,23
1532067476141,8,6,15,16,18,5,18,1
1532067476146,-1,-3,-5,85,-5,-5,-18,-3
1532067476151,-3,-3,-5,41,-3,0,-21,-2
1532067476156,6,-3,2,62,-3,-2,43,-17
1532067476161,-2,-3,-1,-6,-19,-5,-16,3
1532067476166,-1,0,16,24,22,5,-11,19
1532067476171,-1,5,-5,-26,-3,0,-41,-41
1532067476176,13,12,-10,-50,23,14,24,-17
1532067476181,-22,-26,-19,8,-50,-25,-21,26
1532067476186,13,8,21,28,25,14,73,-20
1532067476191,-3,1,6,4,-7,2,-16,-22
1532067476196,-11,-9,-11,72,24,1,-36,44
1532067476201,8,10,1,-85,7,2,-15,-15
1532067476206,8,3,14,-33,-4,1,82,17
1532067476211,-13,-5,3,-72,-14,-8,-35,-11
1532067476216,0,3,12,20,8,4,17,-34
1532067476221,5,3,9,33,17,3,13,15
1532067476226,0,-2,-7,-22,-10,-1,-26,-22
1532067476231,-1,0,1,5,5,-1,17,16
1532067476236,-5,-7,-16,-26,-19,0,12,-26
1532067476241,2,1,8,37,8,2,-4,-7
1532067476246,-2,2,2,-56,-1,10,5,-17
1532067476251,-3,-7,-15,-63,-9,-3,-18,9
1532067476256,0,-1,12,-6,-1,-2,31,-20
1532067476261,0,2,2,55,8,3,4,-1
1532067476266,-2,2,-5,20,-2,-7,-12,-11
1532067476271,-6,0,2,70,18,0,-37,3
1532067476276,3,0,11,5,-1,6,-10,26
1532067476281,-3,-2,-5,-44,-28,-12,11,-24
1532067476286,2,2,3,90,22,0,-5,-9
1532067476291,-3,-7,13,1,-76,-16,20,-12
1532067476296,3,-3,-27,-22,-14,0,-16,8
1532067476301,2,4,2,103,60,15,1,8
1532067476306,-6,-6,-13,-90,-32,-15,-45,11
1532067476311,7,3,4,-8,14,12,50,13
1532067476316,0,-6,-18,-39,-15,-9,55,-2
1532067476321,0,0,-4,-8,-10,-4,-35,13
1532067476326,-2,-4,-7,-2,12,5,-3,0
1532067476331,7,7,2,5,46,10,-8,1
1532067476336,-12,-14,4,-11,-50,-17,-4,-3
1532067476341,-3,-1,-4,35,15,5,-5,7
1532067476346,4,-2,-9,-85,-46,-6,-5,3
1532067476351,-5,-4,1,6,-6,-5,-14,0
1532067476356,6,9,13,78,34,6,-5,-5
1532067476361,3,7,-3,9,9,3,18,5
1532067476366,-6,-11,3,20,-7,-1,-16,3
1532067476371,1,-2,-4,14,9,0,-11,1
1532067476376,0,-3,-8,-34,6,0,6,-6
1532067476381,-1,1,4,39,-5,-1,2,0
1532067476386,4,8,-9,-23,4,4,2,4
1532067476391,0,4,11,13,16,1,-10,0
1532067476396,-10,-6,2,50,-6,-7,-3,1
1532067476401,-1,-1,3,-61,-26,-3,4,2
1532067476406,-1,0,-9,2,-5,0,-11,1
1532067476411,-2,-2,2,42,-1,-2,-2,3
1532067476416,3,5,7,-1,2,1,-6,-3
1532067476421,-1,-1,12,11,6,-3,-4,-3
1532067476426,-4,-4,-19,-5,-10,-5,-2,-1
1532067476431,4,1,-2,-29,-10,-1,-4,-3
1532067476436,-1,-1,0,-68,-11,0,1,-2
1532067476441,3,2,-7,-58,-2,0,-1,2
1532067476446,-3,-2,13,44,26,-1,-2,-1
1532067476451,-5,-6,-23,-23,-18,-6,-10,4
1532067476456,2,0,1,24,19,4,1,-4
1532067476461,0,-3,-1,-40,-34,2,10,1
1532067476466,-2,1,3,-6,9,3,-2,2
1532067476471,1,0,-7,-28,2,1,-1,-1
1532067476476,0,0,7,35,12,-1,2,-2
1532067476481,-3,-4,-1,13,-8,-8,-5,-4
1532067476486,-2,1,5,29,11,2,-2,2
1532067476491,1,1,-4,-69,-24,-1,-4,-2
1532067476496,4,2,-1,67,54,9,12,3
1532067476501,-3,-5,-1,7,-11,-2,-2,0
1532067476506,-3,-3,-1,3,-7,3,-2,5
1532067476511,-3,-5,-14,-66,9,-1,-2,0
1532067476516,3,1,2,-21,-14,0,3,-4
1532067476521,1,1,4,-20,-4,1,1,-2
1532067476526,6,9,1,55,45,5,7,-2
1532067476531,-5,-2,7,-55,-41,-6,-6,2
1532067476536,0,3,0,22,-30,-8,0,-4
1532067476541,-2,-5,6,-47,7,-2,-2,0
1532067476546,-3,-6,-6,1,-22,-7,-9,-2
1532067476551,8,6,4,-20,6,9,12,-4
1532067476556,-2,-1,-8,-28,25,-1,-1,0
1532067476561,-5,-4,9,-34,-43,-3,-4,-3
1532067476566,0,-4,-5,-67,18,-3,-3,-2
1532067476571,0,-3,-1,15,1,0,-2,-2
1532067476576,-1,-4,1,-13,-10,-1,-2,1
1532067476581,3,4,-4,35,17,2,6,0
1532067476586,-4,-5,-12,31,-13,1,2,1
1532067476591,-3,-1,-1,75,53,1,-1,0
1532067476596,-1,2,11,-21,-43,-5,-3,-5
1532067476601,-5,-4,-8,8,3,-8,-8,-2
1532067476606,1,2,13,20,-4,0,-2,-1
1532067476611,-2,-1,-21,-18,-4,-1,-1,2
1532067476616,-6,-7,-10,25,-8,-5,-4,-1
1532067476621,2,1,-3,42,35,2,3,1
1532067476626,-3,-1,6,-45,-46,-9,-4,-3
1532067476631,0,1,-2,8,-7,1,1,-2
1532067476636,1,1,-1,-58,18,4,2,3
1532067476641,-4,-7,14,78,-36,-5,-2,-2
1532067476646,-5,-8,-8,85,24,-6,-7,-1
1532067476651,0,-2,1,16,-27,-5,-5,-1
1532067476656,-1,3,3,-35,33,9,10,1
1532067476661,0,3,6,32,-4,1,1,-4
1532067476666,0,3,-8,-21,12,1,2,1
1532067476671,-1,4,1,-9,-1,-3,-3,-1
1532067476676,5,6,5,19,12,3,2,0
1532067476681,-1,0,-14,-15,25,1,0,2
1532067476686,2,1,2,-20,6,2,1,0
1532067476691,-2,-2,7,27,-2,-1,-1,2
1532067476696,0,-1,-2,-89,-16,-4,0,0
1532067476701,0,-1,-2,1,17,3,3,-1
1532067476706,4,0,6,-32,-24,-2,0,-2
1532067476711,-3,-5,4,17,34,-2,-2,2
1532067476716,-1,-2,-9,14,-14,-2,-1,-1
1532067476721,0,1,-8,-11,-19,-3,-4,-1
1532067476726,-2,5,29,45,12,2,0,-1
1532067476731,3,1,-2,-13,-28,2,3,-1
1532067476736,-1,2,-5,-3,3,1,0,-1
1532067476741,-2,0,6,55,12,3,-3,3
1532067476746,4,2,-3,-7,17,7,6,0
1532067476751,-3,-6,-2,-28,-7,-9,-9,-1
1532067476756,0,1,10,-36,-13,0,-3,0
1532067476761,-2,-4,-5,33,-5,-2,-1,-2
1532067476766,1,1,2,44,30,2,1,-1
1532067476771,-1,-1,4,4,-6,2,-1,1
1532067476776,-4,-1,-5,4,-2,-5,-4,-2
1532067476781,2,3,3,-17,23,3,1,-1
1532067476786,0,0,-5,-23,-17,-3,0,0
1532067476791,-2,-4,3,8,10,1,0,1
1532067476796,-3,-4,-13,-15,-26,-6,-4,-4
1532067476801,1,0,-8,30,34,3,3,-2
1532067476806,-3,-5,9,31,0,-5,-8,-1
1532067476811,-4,-6,-10,-29,-26,-5,-5,0
1532067476816,-1,-3,5,-25,5,-4,-1,-1
1532067476821,1,0,7,-31,24,2,4,-2
1532067476826,0,-3,-18,45,10,3,2,1
1532067476831,-1,-3,-1,-35,-17,-1,0,-1
1532067476836,-1,-2,-1,21,3,0,-2,1
1532067476841,0,5,-11,-89,-8,-1,0,-1
1532067476846,-5,-6,3,9,-11,-7,-8,-5
1532067476851,-2,6,-2,4,13,0,2,2
1532067476856,2,11,-9,-32,-10,5,3,0
1532067476861,-3,3,10,38,6,-2,-5,-1
1532067476866,2,3,2,-17,-1,0,-2,-5
1532067476871,-1,-4,1,-6,-4,-5,-5,-3
1532067476876,1,-5,-13,-70,-13,-1,-2,0
1532067476881,-1,-7,3,48,1,2,0,0
1532067476886,-2,-8,3,32,7,0,-3,0
1532067476891,-2,-6,-6,-46,-28,0,-4,0
1532067476896,-3,-5,6,1,1,-5,-8,0
1532067476901,-1,0,1,26,4,-5,-3,0
1532067476906,0,0,-1,-4,-3,-3,-5,0
1532067476911,2,2,-18,-96,0,-2,1,-5
1532067476916,1,3,12,12,38,18,7,1
1532067476921,-6,-3,0,25,-38,-5,3,3
1532067476926,-1,2,-3,-6,-13,-4,10,-1
1532067476931,2,5,3,15,33,2,8,-1
1532067476936,0,-3,-2,-58,-30,-9,-2,-3
1532067476941,-1,-6,8,20,5,4,3,-4
1532067476946,1,-5,-29,-37,-6,1,3,-1
1532067476951,-2,-4,5,45,5,-1,-1,3
1532067476956,-2,-8,-5,24,2,-4,-1,-3
1532067476961,-1,-3,17,-12,-13,-3,-2,1
1532067476966,0,1,1,-4,-5,-1,-2,2
1532067476971,0,-4,-7,-14,5,0,-3,-2
1532067476976,-1,2,-3,52,-18,-2,-2,-1
1532067476981,1,0,4,-50,10,1,2,1
1532067476986,-4,-6,1,-8,-3,0,-4,2
1532067476991,-2,-4,6,39,7,-1,-6,0
1532067476996,2,-2,8,-34,17,1,0,0
1532067477001,-2,-1,-10,23,-24,-3,-3,-3
1532067477006,0,-2,-3,15,11,-1,-2,-3
1532067477011,-3,-3,-9,-40,-36,-6,-4,-2
1532067477016,-2,-2,-2,-10,3,-2,-2,1
1532067477021,-1,0,3,39,16,2,-1,-1
1532067477026,1,2,-2,-8,-1,3,1,-2
1532067477031,1,1,-20,0,-5,-1,1,-4
1532067477036,0,-3,10,12,2,-2,0,-2
1532067477041,1,-1,-10,-14,-5,0,-1,-1
1532067477046,-2,-2,9,17,-3,-2,0,0
1532067477051,4,14,15,17,11,4,1,1
1532067477056,-6,-6,-35,-12,-16,-2,0,-3
1532067477061,-4,-8,9,27,11,1,1,0
1532067477066,-1,3,6,-33,-6,-2,0,-1
1532067477071,-3,-5,-9,5,-3,0,1,-1
1532067477076,-2,-5,12,-7,-6,-2,-1,1
1532067477081,3,2,-7,41,2,-3,1,-4
1532067477086,2,5,16,33,18,4,1,-1
1532067477091,-4,-11,-8,-49,-16,-5,-1,-5
1532067477096,2,11,13,-8,-1,-1,-1,-6
1532067477101,3,1,21,15,13,3,1,-4
1532067477106,7,17,32,-1,-6,0,1,1
1532067477111,-1,2,19,9,7,1,0,5
1532067477116,4,2,-4,11,-3,1,3,6
1532067477121,-3,-6,10,-16,1,0,2,8
1532067477126,-4,-5,-23,-1,-4,-1,4,4
1532067477131,0,-1,-3,5,3,1,6,3
1532067477136,-3,-2,-1,-8,-3,-2,1,0
1532067477141,2,3,-26,-10,-3,-2,-8,-2
1532067477146,-2,-12,-9,-3,-5,-1,-10,-2
1532067477151,-3,-9,-3,4,2,2,-4,-2
1532067477156,-1,-4,-2,-3,-10,-5,-6,-2
1532067477161,3,5,-12,-24,1,0,-4,-1
1532067477166,0,-1,-1,14,-3,-1,-5,-2
1532067477171,-2,4,13,23,4,-1,-7,-3
1532067477176,11,8,-4,-1,1,-1,-3,1
1532067477181,-9,-7,-9,-21,-10,-2,-2,-1
1532067477186,3,1,-7,-7,-4,-3,1,-2
1532067477191,5,0,-2,-8,3,-1,0,-1
1532067477196,-24,-3,-5,-22,-7,0,1,-8
1532067477201,16,4,1,29,5,-3,0,0
1532067477206,2,0,-4,-22,-4,1,2,-2
1532067477211,1,-7,-12,20,0,-4,-1,-1
1532067477216,2,-2,4,-6,4,2,1,4
1532067477221,3,1,-2,-3,3,1,-1,2
1532067477226,-51,-15,-5,4,-3,-4,-3,-9
1532067477231,11,15,7,-1,-1,0,0,-2
1532067477236,2,-2,-9,2,-4,0,-2,-5
1532067477241,3,1,0,-4,3,0,4,-1
1532067477246,-10,-9,-1,7,2,1,-2,1
1532067477251,-2,-9,-11,-10,-5,-1,-2,0
1532067477256,7,7,6,1,-2,-2,-2,1
1532067477261,-13,-8,-6,4,-2,2,-2,-7
1532067477266,7,2,2,-2,0,-1,2,3
1532067477271,-15,-1,1,-15,-6,-2,0,-6
1532067477276,18,6,2,7,5,0,-1,-2
1532067477281,-3,-2,-2,-1,-4,-3,-1,-1
1532067477286,3,1,-1,-5,-4,-3,-5,1
1532067477291,-7,-3,1,-8,0,2,-1,1
1532067477296,-1,-3,-2,-6,-2,-1,1,-1
1532067477301,-11,1,6,29,6,0,1,-3
1532067477306,22,-2,-8,-39,-7,0,1,1
1532067477311,13,5,6,17,-2,-1,-3,1
1532067477316,-5,-2,1,-3,0,0,-2,1
1532067477321,20,2,0,7,1,-1,-1,5
1532067477326,-2,1,1,4,0,-1,-5,-1
1532067477331,20,-1,-1,-3,0,0,3,10
1532067477336,-26,-5,-3,3,-1,-6,1,-10
1532067477341,-28,6,1,-4,2,-1,2,-9
1532067477346,54,2,-10,2,-3,-1,1,6
1532067477351,-14,0,4,-8,-2,-1,-2,-4
1532067477356,17,-1,1,2,-2,0,-3,6
1532067477361,-2,-2,-2,-7,-3,0,-3,1
1532067477366,-16,5,6,8,1,-1,-1,-2
1532067477371,-8,-6,-9,1,-1,-1,1,-4
1532067477376,6,-11,-7,-9,-9,-3,0,5
1532067477381,9,2,-2,-7,-2,-1,-1,0
1532067477386,-13,-1,1,6,3,-1,0,-3
1532067477391,16,7,2,-4,-1,-1,0,2
1532067477396,-16,-1,2,14,3,0,-2,-3
1532067477401,-1,-4,-4,-9,-1,-1,1,1
1532067477406,1,-2,-1,2,-2,-1,-1,0
1532067477411,-10,-2,-1,-3,1,-2,0,-4
1532067477416,3,1,-2,-3,-1,-2,1,-3
1532067477421,-2,-2,2,-2,-1,-1,-2,-1
1532067477426,-4,3,1,4,1,0,0,-1
1532067477431,14,2,2,1,1,1,0,-2
1532067477436,5,0,0,-2,0,0,0,2
1532067477441,-24,-16,-2,-1,-2,-3,-1,0
1532067477446,-28,-6,-9,1,-5,-2,-2,-11
1532067477451,-6,-4,9,5,0,-2,-2,2
1532067477456,4,5,1,4,5,1,2,1
1532067477461,17,-5,-5,-2,-2,0,-4,2
1532067477466,6,4,-9,-7,-4,-1,2,0
1532067477471,-38,-17,-1,5,0,-1,-3,0
1532067477476,3,5,-1,2,1,1,-1,-7
1532067477481,2,1,3,-3,1,-2,0,0
1532067477486,8,-1,1,3,1,1,-1,1
1532067477491,2,5,1,1,-1,-1,-1,-3
1532067477496,-2,-5,-4,-3,-2,-2,-1,-1
1532067477501,3,1,-2,0,-1,-2,-2,0
1532067477506,0,2,1,2,2,0,0,-1
1532067477511,15,5,3,-2,-1,-2,-2,-1
1532067477516,2,-2,-9,-2,-2,1,2,1
1532067477521,-5,-2,-3,-4,-4,-3,-3,-4
1532067477526,-1,-2,3,-1,-1,-3,-1,2
1532067477531,-6,-3,-2,-1,-1,1,-1,-3
1532067477536,23,1,3,1,0,-1,-1,3
1532067477541,-11,4,-2,-2,0,0,-1,-5
1532067477546,-13,-10,3,-6,-5,-3,-5,-1
1532067477551,8,12,1,2,0,-1,-2,-1
1532067477556,-2,-7,-1,1,4,-1,-2,0
1532067477561,-2,-8,-6,-9,-5,-1,-2,-2
1532067477566,-8,-2,-5,-1,2,2,1,-8
1532067477571,0,-1,30,8,2,1,2,7
1532067477576,1,8,-12,-8,-4,-2,-3,-2
1532067477581,-26,-11,3,2,1,-2,-2,-2
1532067477586,17,-1,-33,-7,-5,0,15,81
1532067477591,-64,-24,-6,-4,-6,-2,-17,-61
1532067477596,5,-9,6,2,1,-1,5,18
1532067477601,19,13,0,6,7,-3,-15,-20
1532067477606,-14,11,-13,4,-1,-4,-4,-78
1532067477611,14,6,-12,-2,1,-1,7,23
1532067477616,-4,-1,5,-4,-5,0,2,-14
1532067477621,-2,-1,-8,-6,-4,0,1,-2
1532067477626,3,-1,13,0,-1,-1,-3,25
1532067477631,22,8,-2,-4,-2,-1,0,-7
1532067477636,-5,-2,13,3,1,1,0,3
1532067477641,3,1,-5,-3,-2,0,6,13
1532067477646,-4,-4,4,1,0,-2,-9,-10
1532067477651,-2,-2,2,-1,2,1,9,11
1532067477656,7,5,-12,-8,-12,-8,-23,-6
1532067477661,-25,-16,-2,5,11,8,18,9
1532067477666,-1,2,8,4,0,0,4,-13
1532067477671,-27,-2,-9,-2,0,0,-4,-6
1532067477676,27,10,-2,2,0,1,3,12
1532067477681,-30,-14,-1,-3,-6,-3,-11,-13
1532067477686,-2,-4,12,-2,-2,0,-4,0
1532067477691,12,-2,-3,-2,0,1,5,15
1532067477696,17,8,-1,4,2,-1,1,-9
1532067477701,9,4,6,-2,-3,-1,-2,-2
1532067477706,-6,-5,-1,0,1,0,0,1
1532067477711,-18,-6,1,-1,-3,-3,-3,4
1532067477716,-6,6,1,0,1,-1,3,-1
1532067477721,54,13,-6,0,-1,1,0,2
1532067477726,0,-6,3,1,1,1,-1,-1
1532067477731,31,3,1,-2,-1,-1,-3,21
1532067477736,-70,-14,3,-1,1,0,2,-13
1532067477741,7,1,0,0,-4,-2,0,1
1532067477746,-9,0,2,-2,-4,-1,-6,-5
1532067477751,7,-2,-1,0,2,3,3,-3
1532067477756,24,3,-3,1,3,3,2,2
1532067477761,-32,-13,-3,-1,0,-1,1,4
1532067477766,-4,-2,1,-1,-1,-1,-3,-11
1532067477771,5,-1,-4,-4,-5,-7,-4,-3
1532067477776,7,-2,0,-1,-2,2,-6,3
1532067477781,0,5,2,1,2,2,6,-6
1532067477786,-6,1,1,-1,0,1,-1,4
1532067477791,8,2,-3,-1,0,1,3,-4
1532067477796,-3,-4,-1,0,0,-4,-1,-1
1532067477801,-1,0,2,-3,-6,-1,-5,-2
1532067477806,0,-3,-1,-2,1,-2,0,-1
1532067477811,8,3,-1,-1,0,-1,-3,3
1532067477816,-16,-10,-2,-1,-1,0,-1,-6
1532067477821,51,4,0,-2,-2,-3,-1,7
1532067477826,-54,-2,-1,-2,-1,-1,3,-4
1532067477831,-41,-11,-5,-1,-4,-4,-7,-15
1532067477836,3,-7,-1,2,1,-2,2,1
1532067477841,-21,-1,-2,0,1,2,-1,-1
1532067477846,36,15,1,-1,-1,-1,-1,6
1532067477851,7,-11,-2,0,2,1,0,3
1532067477856,-11,4,0,-1,-2,0,1,-6
1532067477861,-7,-3,1,-1,-1,-3,-1,0
1532067477866,8,2,0,-3,-2,-2,-3,-2
1532067477871,13,5,0,-1,0,-1,1,-1
1532067477876,11,0,-4,1,1,-3,4,2
1532067477881,-3,2,-1,-2,-1,-1,0,-2
1532067477886,-10,-4,-3,-2,0,-3,-1,-2
1532067477891,9,3,0,-1,1,0,0,2
1532067477896,-7,-3,0,0,1,0,-1,0
1532067477901,-1,-4,-2,-1,-1,-1,1,4
1532067477906,10,-1,1,0,-2,-1,-2,-3
1532067477911,-13,4,7,-1,-2,0,3,1
1532067477916,15,-2,-14,-3,-2,-2,-1,3
1532067477921,-6,-1,18,1,1,-2,0,3
1532067477926,4,-2,10,-3,-4,2,2,0
1532067477931,-11,-3,-18,3,7,4,7,-1
1532067477936,-2,-2,-9,-1,1,1,3,1
1532067477941,2,7,11,0,-4,-6,-5,-1
1532067477946,-3,-1,-10,-5,-4,-5,-5,-4
1532067477951,0,-1,3,0,-3,2,-1,0
1532067477956,-8,0,-1,0,1,0,4,-3
1532067477961,39,1,-12,-4,-1,-1,1,6
1532067477966,-37,-2,1,1,1,-2,-1,-12
1532067477971,9,-4,-2,-2,-3,-2,-4,-1
1532067477976,-3,1,5,0,-2,-3,-1,-1
1532067477981,-7,-3,-1,-2,-2,-1,-4,-3
1532067477986,9,-1,0,1,2,1,0,1
1532067477991,-3,-1,-1,-2,-2,1,-2,-4
1532067477996,-4,0,2,-2,-3,-2,-1,-1
1532067478001,-11,-2,-3,0,-1,0,0,1
1532067478006,11,-1,-4,-1,0,2,-2,-1
1532067478011,-10,-3,1,0,-1,-1,-4,0
1532067478016,6,-2,2,-1,-1,-2,-4,-1
1532067478021,-10,-4,-7,1,-2,0,-4,-3
1532067478026,3,-3,0,0,0,0,0,-1
1532067478031,-4,0,16,-2,-3,-2,0,-5
1532067478036,7,-3,-12,-2,-2,-1,2,1
1532067478041,-6,1,-2,-2,-3,-3,-5,-1
1532067478046,7,5,1,1,5,3,12,1
1532067478051,-21,-13,-6,2,0,0,0,1
1532067478056,11,-1,-2,-1,-3,-4,-6,-2
1532067478061,-22,-3,6,-1,-2,1,-5,-4
1532067478066,16,1,0,2,-1,-3,-3,2
1532067478071,-1,1,-1,-1,-3,-3,-4,-3
1532067478076,-8,-3,1,0,0,3,-2,0
1532067478081,17,1,-6,-4,-2,-2,-3,-1
1532067478086,-4,-2,4,-1,-1,-2,-4,-2
1532067478091,5,1,-4,0,2,0,-1,1
1532067478096,-2,-2,0,0,0,-1,-2,0
1532067478101,-5,0,-1,-1,0,1,0,1
1532067478106,3,1,-1,1,-1,0,0,1
1532067478111,4,0,-4,0,-3,-2,0,0
1532067478116,0,2,3,-1,0,-1,0,-2
1532067478121,-7,-1,-3,1,2,5,5,-1
1532067478126,-3,-3,-4,0,0,1,-2,1
1532067478131,3,-1,-3,-2,-1,-1,-3,1
1532067478136,-3,1,5,-1,-1,-2,0,0
1532067478141,-2,-1,-2,-1,-1,-2,2,-1
1532067478146,-2,-2,0,-1,-1,-1,-3,-1
1532067478151,3,0,0,-1,0,-1,-1,0
1532067478156,-4,0,1,2,2,1,1,-2
1532067478161,-4,-1,-4,-1,2,0,3,1
1532067478166,13,0,0,-2,-5,-3,-1,3
1532067478171,-24,-3,-1,-2,-1,-3,0,-4
1532067478176,-24,-3,11,0,-1,2,-1,-2
1532067478181,-1,-3,-18,-3,-1,-1,-8,-2
1532067478186,-2,5,10,2,2,2,4,1
1532067478191,3,-1,-3,0,2,0,-2,-1
1532067478196,3,0,3,-3,-2,-3,-2,0
1532067478201,4,0,5,1,1,-1,-1,-1
1532067478206,-7,0,-5,-1,1,1,-1,-4
1532067478211,6,2,0,-2,-2,-1,0,0
1532067478216,6,0,-3,0,1,1,0,0
1532067478221,3,6,0,-1,-1,0,1,-2
1532067478226,1,-3,-2,-3,-2,-2,-1,-3
1532067478231,2,1,2,0,0,-1,1,-1
1532067478236,4,-1,-2,-1,-2,-1,0,0
1532067478241,20,2,3,0,-2,1,1,-11
1532067478246,-17,-11,-4,-2,-3,-2,3,44
1532067478251,12,1,-5,2,-1,-1,-3,-11
1532067478256,-7,-1,-19,-1,-1,-3,-12,-41
1532067478261,14,-11,12,2,-1,0,6,65
1532067478266,-15,-16,-2,1,0,0,-8,-99
1532067478271,0,-1,32,-2,-4,-1,1,4
1532067478276,7,0,0,-2,-3,1,1,-6
1532067478281,-3,2,-2,0,3,0,1,2
1532067478286,26,3,-7,-2,-3,-5,-5,26
1532067478291,-35,-18,-11,-1,0,3,4,2
1532067478296,13,3,4,0,1,-2,4,10
1532067478301,-4,0,4,-4,-3,-2,-1,-12
1532067478306,-5,6,3,-2,-1,-2,0,12
1532067478311,3,1,-8,-3,-2,-3,-6,-12
1532067478316,-6,-1,2,-1,-2,0,3,12
1532067478321,-4,-3,-7,-2,2,0,1,-6
1532067478326,5,-1,-3,-2,-3,0,-1,-2
1532067478331,-28,0,-4,-2,-3,-2,0,4
1532067478336,-2,1,-2,2,4,-1,5,4
1532067478341,-9,-1,-1,-1,-4,-2,-2,-11
1532067478346,-3,0,2,1,0,-2,-4,-3
1532067478351,17,4,0,-1,0,0,1,-3
1532067478356,35,11,3,-1,-2,0,-3,22
1532067478361,-79,-28,-7,-1,-4,-8,-8,-15
1532067478366,-6,-3,1,0,2,4,11,24
1532067478371,34,0,-9,-1,-1,-2,-6,-9
1532067478376,16,11,-3,0,0,-2,-4,-16
1532067478381,10,4,-2,1,-3,0,-3,-5
1532067478386,0,-2,-3,-1,0,-1,-3,-1
1532067478391,-18,-4,3,1,0,0,1,7
1532067478396,-16,-7,-1,-1,-1,2,-2,0
1532067478401,24,5,0,-1,-1,-2,-2,1
1532067478406,-11,-1,-1,1,0,0,1,0
1532067478411,6,4,-3,-2,0,0,-1,3
1532067478416,22,-2,0,0,-1,-2,-3,5
1532067478421,2,4,1,-2,1,2,1,-4
1532067478426,7,2,1,-4,-1,-2,-1,-4
1532067478431,26,4,0,1,-3,-1,-4,1
1532067478436,-13,-5,-1,0,1,0,0,-2
1532067478441,-7,2,0,1,2,1,5,-3
1532067478446,15,7,-1,1,1,3,0,0
1532067478451,2,-1,0,0,-1,-3,-1,2
1532067478456,-18,-8,1,-2,-3,-1,1,4
1532067478461,0,3,0,-3,-1,-2,-1,-3
1532067478466,3,8,1,-2,-2,-3,-4,-8
1532067478471,2,0,-2,3,1,1,2,4
1532067478476,-45,-11,0,-2,-3,-3,-2,-6
1532067478481,25,6,0,0,0,3,-1,4
1532067478486,-3,0,0,0,-2,-1,-3,-1
1532067478491,-9,-1,1,-1,0,0,0,-3
1532067478496,1,-1,-1,1,-1,-1,1,-1
1532067478501,1,-1,0,-2,-2,-2,-1,-3
1532067478506,-10,-5,-2,-1,-1,0,-2,0
1532067478511,7,2,-1,0,0,0,2,1
1532067478516,-5,-1,0,-1,-1,0,-2,-3
1532067478521,9,-2,-2,-2,1,-1,-1,-1
1532067478526,-4,1,-2,0,-1,-2,-2,-4
1532067478531,-8,-2,-1,0,1,0,2,1
1532067478536,-6,1,0,-2,-2,0,1,-2
1532067478541,1,-2,-1,-2,1,-2,-2,-2
1532067478546,-12,-5,-1,-2,0,0,-2,-4
1532067478551,19,2,-2,-1,0,-2,-1,5
1532067478556,3,0,1,0,0,0,-1,1
1532067478561,7,3,0,1,-2,2,0,-10
1532067478566,-11,-9,-3,-2,-2,-3,-2,12
1532067478571,-10,-3,-2,0,-2,0,-1,-7
1532067478576,10,1,-1,0,1,1,1,2
1532067478581,1,-5,-1,0,-3,-2,-2,4
1532067478586,-9,3,-2,-2,-2,-3,0,-5
1532067478591,-6,1,0,0,1,1,0,-2
1532067478596,-8,-5,-2,-1,1,-1,-2,-2
1532067478601,13,2,0,0,-1,-1,1,2
1532067478606,20,-1,1,-1,-3,1,-2,2
1532067478611,2,3,0,-1,-1,-2,-3,3
1532067478616,-6,-2,-2,-3,-3,-1,0,-5
1532067478621,-9,0,0,-2,-2,-1,-1,-1
1532067478626,4,-8,-4,3,2,-1,2,2
1532067478631,-11,-4,-2,-1,-2,-4,2,-4
1532067478636,4,-1,-1,0,-2,0,1,1
1532067478641,4,0,0,-2,-2,2,-1,1
1532067478646,-6,1,1,-2,-3,-1,-1,-2
1532067478651,4,-3,-2,-2,-1,0,-3,0
1532067478656,1,-3,0,-1,-1,-2,-2,0
1532067478661,1,0,0,-1,-2,-1,-2,2
1532067478666,-27,1,0,0,0,-1,-2,-8
1532067478671,-18,-3,0,-1,-2,1,-2,-3
1532067478676,31,2,-1,-2,0,-1,2,5
1532067478681,-9,0,0,-3,-4,-1,-7,-4
1532067478686,5,1,-2,2,4,0,5,1
1532067478691,4,-1,0,-1,-5,-3,-1,-1
1532067478696,23,3,2,-2,-2,1,3,30
1532067478701,-32,-10,-4,3,5,1,-1,-21
1532067478706,26,8,1,-3,-4,-2,-2,35
1532067478711,-5,-14,-1,-3,-1,1,-1,-58
1532067478716,-19,2,0,-1,0,0,6,36
1532067478721,26,-8,0,-2,-3,-2,-3,-30
1532067478726,-65,-11,-4,-3,-1,0,-8,-12
1532067478731,24,16,-2,1,0,-3,-4,-3
1532067478736,-3,-13,1,0,-2,-2,-4,-17
1532067478741,-6,0,-3,-2,0,1,4,16
1532067478746,17,3,2,-2,-4,-2,-3,-7
1532067478751,8,10,1,0,0,0,2,14
1532067478756,-22,-17,-1,-1,-3,-1,-5,-26
1532067478761,-4,15,1,-2,-2,-1,1,16
1532067478766,19,-12,0,1,-2,-2,-1,2
1532067478771,-13,14,0,-1,1,-1,-2,15
1532067478776,15,-11,-2,-1,-2,-1,-1,-9
1532067478781,-1,8,0,-1,0,-4,3,-10
1532067478786,12,-4,-2,0,2,4,5,15
1532067478791,9,-6,-2,1,3,0,-4,-15
1532067478796,-37,5,-1,-1,-2,-2,-1,28
1532067478801,19,2,-1,2,2,0,0,-12
1532067478806,-10,12,0,0,0,1,1,-23
1532067478811,8,-13,0,-1,0,1,5,42
1532067478816,18,17,-1,-1,-3,-3,-7,-25
1532067478821,-2,-13,-2,0,1,1,0,27
1532067478826,-1,1,2,2,1,-1,2,-5
1532067478831,-5,-7,0,-2,-3,0,-3,-11
1532067478836,29,10,-1,-3,1,-2,-2,40
1532067478841,-33,-8,-4,1,0,-2,1,-67
1532067478846,7,-2,-1,1,-1,-2,-7,-4
1532067478851,-23,-7,-1,0,-3,-2,-3,-18
1532067478856,9,4,0,-1,-2,0,2,-5
1532067478861,2,-3,1,1,0,1,0,24
1532067478866,7,2,-1,-2,-2,-1,2,2
1532067478871,-2,2,-2,-1,-1,0,1,39
1532067478876,-9,-5,-3,1,1,-1,-3,-49
1532067478881,-4,0,-2,0,0,2,-1,26
1532067478886,6,1,0,0,-1,-1,2,-16
1532067478891,5,-2,0,-2,-3,-1,-1,7
1532067478896,38,12,1,-2,-1,-1,3,18
1532067478901,-60,-26,-1,-2,0,-2,-2,-14
1532067478906,15,4,-1,1,-1,-1,-1,-5
1532067478911,-5,-5,-1,0,0,1,-2,0
1532067478916,0,4,0,0,-1,1,1,-5
1532067478921,9,-1,1,-3,-1,-2,-2,-2
1532067478926,-16,-1,-1,-2,-1,-7,-1,-5
1532067478931,11,0,-2,-1,1,4,0,20
1532067478936,4,0,2,-3,-2,1,3,35
1532067478941,-12,-4,0,0,0,-3,1,-15
1532067478946,9,-2,-2,2,0,-2,-2,-5
1532067478951,6,3,0,0,-1,0,-1,-7
1532067478956,-2,2,-1,-1,0,-1,-3,20
1532067478961,8,1,1,0,-1,0,-1,-5
1532067478966,-12,-4,0,0,-1,-3,2,9
1532067478971,10,6,0,0,-3,-2,-3,3
1532067478976,-2,-1,-1,0,1,0,0,2
1532067478981,-7,-4,-2,-2,-1,0,-2,-3
1532067478986,1,0,1,-1,1,0,1,7
1532067478991,-3,-3,-2,-2,1,1,-1,-33
1532067478996,-3,5,-1,-2,-2,-1,-5,15
1532067479001,3,-14,-3,0,-3,-5,5,45
1532067479006,-55,3,-3,0,-1,5,-6,-29
1532067479011,0,-1,-1,0,0,-2,1,-30
1532067479016,-1,-2,1,0,-1,-3,2,-2
1532067479021,10,4,-1,-1,-3,-3,-10,-2
1532067479026,8,-3,-1,-2,4,2,9,8
1532067479031,1,2,2,0,2,-1,-3,12
1532067479036,3,2,-1,0,1,0,-1,-10
1532067479041,-13,-6,-3,-1,-2,-1,-2,-14
1532067479046,12,0,-3,-3,-4,-5,-4,3
1532067479051,-4,2,2,-2,-1,0,0,7
1532067479056,11,-5,0,-2,-3,-3,0,8
1532067479061,-8,5,0,-3,-1,2,0,-14
1532067479066,-4,-2,1,-4,-4,-4,-5,-3
1532067479071,11,2,-1,4,4,1,4,14
1532067479076,-2,-1,-1,1,0,0,1,-3
1532067479081,-1,3,2,3,3,0,6,-2
1532067479086,0,-2,0,1,-3,-2,-6,-6
1532067479091,1,0,-1,-2,-4,-2,-5,1
1532067479096,-1,-4,-2,-3,-4,0,0,4
1532067479101,0,3,-2,-1,1,-1,-3,12
1532067479106,1,-3,0,0,-1,0,1,-23
1532067479111,-1,-3,-2,-1,-3,-2,-3,1
1532067479116,-3,-4,-1,-2,0,-1,0,-13
1532067479121,4,-2,1,-1,0,2,7,9
1532067479126,1,0,-1,-1,-3,-3,-5,7
1532067479131,0,0,-1,-5,-3,-1,2,6
1532067479136,1,2,-1,3,4,1,4,-4
1532067479141,-2,-2,-2,-2,-5,-7,-6,-11
1532067479146,0,1,1,-1,0,7,3,8
1532067479151,-1,-6,1,1,1,1,6,-3
1532067479156,2,1,-1,-9,-3,-3,-4,4
1532067479161,-2,-1,0,2,-1,-2,-2,-8
1532067479166,-1,1,0,8,0,-3,-4,-2
1532067479171,3,0,1,-2,-2,0,-2,8
1532067479176,-1,-4,-1,-2,-2,0,-1,0
1532067479181,-2,0,-1,-2,0,0,-1,-4
1532067479186,0,-1,-1,-3,-1,0,-1,1
1532067479191,-3,2,-1,-2,-2,0,-2,0
1532067479196,-1,-2,1,3,1,0,0,2
1532067479201,-2,0,-2,-3,-1,0,-1,-10
1532067479206,2,-2,-1,-1,1,-1,3,4
1532067479211,-2,2,3,1,-2,-1,2,2
1532067479216,0,-2,-1,2,0,-1,-1,-2
1532067479221,-2,-1,1,-3,-1,-1,-2,0
1532067479226,-1,-2,-1,-5,-1,0,-1,2
1532067479231,-2,0,-1,0,0,-1,-2,0
1532067479236,-1,-1,0,1,0,0,3,1
1532067479241,-1,-2,-3,-2,2,1,1,-5
1532067479246,-1,-1,-3,-6,-2,-1,-1,-2
1532067479251,-1,-2,-2,-1,-3,-2,0,0
1532067479256,-1,-1,-2,1,-1,0,2,0
1532067479261,-1,0,1,-2,2,0,0,-1
1532067479266,-1,-1,0,1,2,-1,0,1
1532067479271,1,-1,-1,0,1,0,-3,0
1532067479276,0,-1,0,-2,-6,-6,-4,-3
1532067479281,0,1,-1,2,2,5,2,-2
1532067479286,-1,-2,-2,2,0,0,4,-1
1532067479291,1,-1,-2,-1,0,-1,-2,1
1532067479296,-1,0,-1,0,0,-2,-2,-3
1532067479301,-1,-1,-1,0,-3,-1,-4,-2
1532067479306,-1,-1,-2,-2,-2,0,-1,0
1532067479311,0,0,-1,-2,0,1,2,1
1532067479316,-2,-2,0,-1,0,0,1,0
1532067479321,1,-1,0,-1,0,-2,2,-4
1532067479326,0,0,-1,-2,-1,0,4,2
1532067479331,-3,-2,-1,-1,-1,0,0,-3
1532067479336,2,0,-2,1,1,2,-2,1
1532067479341,-1,-2,-3,-1,-2,-1,-5,-3
1532067479346,0,-1,-1,-2,-2,-2,-7,-3
1532067479351,0,-2,-1,-2,-1,-3,-3,2
1532067479356,1,0,-1,0,2,2,2,0
1532067479361,-1,-1,0,-1,0,0,1,-1
1532067479366,1,-1,0,-1,0,-2,-1,-1
1532067479371,-2,-1,-1,0,-2,0,-1,0
1532067479376,0,-1,-1,-1,0,0,-5,-1
1532067479381,1,-1,-1,0,-2,-3,0,-1
1532067479386,1,0,0,-1,-2,1,-1,0
1532067479391,0,-1,-1,-2,-3,-1,-1,-3
1532067479396,-1,1,0,-1,1,1,-1,1
1532067479401,-3,-2,-2,-1,-2,0,2,0
1532067479406,0,0,-1,0,2,0,-2,-1
1532067479411,0,1,-3,0,-1,-3,-2,-3
1532067479416,0,-1,-1,-1,-3,-3,-1,-2
1532067479421,-1,-1,0,-1,-2,1,-1,-4
1532067479426,-1,-1,-2,-1,-1,-4,0,0
1532067479431,-1,-1,0,0,-1,0,0,-1
1532067479436,-1,-1,-2,-1,-2,0,-1,0
1532067479441,-1,-2,-1,-2,0,-1,-1,0
1532067479446,0,-1,-1,-2,1,1,-2,0
1532067479451,0,0,0,-1,1,-1,-3,-3
1532067479456,-2,-2,0,-2,-2,-5,-2,-1
1532067479461,-1,-1,0,0,1,3,-2,0
1532067479466,-4,-3,1,0,-2,-2,-4,-2
1532067479471,3,0,0,1,3,0,1,1
1532067479476,-1,-1,-1,-3,-2,-1,0,0
1532067479481,1,-1,-1,-1,0,-1,-1,-1
1532067479486,0,-1,-2,1,1,0,-2,1
1532067479491,-1,-2,-1,0,-1,-1,-3,-2
1532067479496,-1,-1,-1,0,0,0,1,0
1532067479501,0,-1,1,-1,-1,-3,-1,0
1532067479506,0,-2,-2,-2,-1,1,0,0
1532067479511,-1,-1,0,0,1,1,-1,0
1532067479516,0,-1,1,0,0,0,-1,-2
1532067479521,2,0,-2,0,-1,-1,-3,-2
1532067479526,0,-1,2,1,1,0,0,0
1532067479531,-1,-1,-3,-2,-1,0,0,0
1532067479536,-2,-2,-2,-2,-2,0,0,-2
1532067479541,-2,0,1,0,-1,-3,-2,0
1532067479546,0,-2,-2,0,0,0,-2,0
1532067479551,-1,0,0,-2,-1,0,-1,0
1532067479556,-1,-1,-1,-3,-2,-2,-2,-1
1532067479561,0,-1,0,2,1,1,1,2
1532067479566,0,-1,0,-2,-2,-1,0,-2
1532067479571,-2,-2,0,-2,-2,-6,-1,-2
1532067479576,1,-1,1,1,2,4,-2,-1
1532067479581,-1,-1,-3,0,-1,-1,0,-1
1532067479586,-1,-1,0,0,-1,1,2,-2
1532067479591,0,0,1,-2,-1,-3,-1,-1
1532067479596,0,-2,0,-1,-2,-1,1,-2
1532067479601,-1,-2,-2,-4,-4,-1,-1,1
1532067479606,1,0,-1,1,-1,-4,-2,0
1532067479611,0,1,0,-2,1,1,1,-3
1532067479616,-1,-2,-2,-1,0,-1,1,2
1532067479621,-1,-2,-2,-3,-1,0,0,-1
1532067479626,0,0,-2,-1,-1,-2,-2,-1
1532067479631,0,0,1,0,-1,-1,0,0
1532067479636,1,-1,0,-1,-1,0,-3,0
1532067479641,-1,0,0,-1,-3,0,3,-1
1532067479646,-4,0,-2,-2,-1,-2,-5,-1
1532067479651,-1,0,-1,0,1,1,2,-1
1532067479656,-2,0,-1,-3,-4,-3,-1,-2
1532067479661,0,0,-1,0,1,0,0,0
1532067479666,-1,-1,-1,1,0,-1,-1,-2
1532067479671,-1,-1,1,-3,-1,-5,-1,-1
1532067479676,0,-1,1,-2,-1,-2,-1,-1
1532067479681,-1,-1,-1,1,-1,1,-2,-1
1532067479686,-3,-1,-1,-2,-2,0,1,-1
1532067479691,-1,-2,-2,-6,-2,1,1,0
1532067479696,-1,0,0,0,-1,-1,0,0
1532067479701,-1,0,0,-9,-2,0,-1,-1
1532067479706,1,0,-1,7,4,2,0,-2
1532067479711,-3,-3,4,27,-4,-5,-4,-2
1532067479716,-2,-2,0,-24,-6,-2,-2,-2
1532067479721,1,0,-2,-3,-2,0,-2,0
1532067479726,1,1,0,-8,0,-1,0,-1
1532067479731,2,0,-3,-1,5,0,0,-3
1532067479736,-4,-2,0,0,-4,-1,-2,-5
1532067479741,1,-1,0,1,0,-1,0,-3
1532067479746,2,-1,0,-4,-1,-2,-3,-1
1532067479751,0,-1,-1,-2,-1,-1,1,2
1532067479756,-1,0,-1,7,3,1,1,-2
1532067479761,-1,-2,-1,-5,-3,-4,-1,0
1532067479766,-2,-2,-1,3,-2,0,-1,1
1532067479771,-2,0,-1,-7,-1,-1,-1,0
1532067479776,0,-2,-1,7,2,1,2,-2
1532067479781,2,-1,0,5,0,0,-1,-1
1532067479786,-3,0,0,0,0,-1,3,2
1532067479791,-1,-2,-1,-9,-4,-1,1,0
1532067479796,-2,0,-2,-4,1,-1,2,-1
1532067479801,0,-1,-1,2,-1,0,-1,-3
1532067479806,-1,-3,-1,1,-1,-2,-1,-1
1532067479811,-2,-2,0,-3,-1,0,0,-1
1532067479816,-2,-1,-2,3,-1,-1,-2,-1
1532067479821,1,0,-1,3,0,-1,-2,1
1532067479826,-3,-2,0,-3,-3,-1,-1,-5
1532067479831,-2,-1,-2,-4,-3,-1,-2,5
1532067479836,2,2,-1,2,3,1,1,2
1532067479841,-2,0,0,0,-2,-2,-2,-1
1532067479846,-1,-1,-1,3,-1,-1,0,1
1532067479851,-1,-1,0,-2,-1,0,-4,-5
1532067479856,4,1,1,0,-3,-1,-3,-10
1532067479861,-7,-1,0,-3,-1,-1,-1,9
1532067479866,4,1,0,0,1,-1,3,9
1532067479871,2,0,-1,1,0,-1,3,26
1532067479876,-2,-2,-1,0,-1,-1,-3,-14
1532067479881,0,-3,0,-2,0,0,-2,-1
1532067479886,0,-1,-1,-2,-1,-2,-5,-12
1532067479891,1,1,-1,-1,-1,0,0,8
1532067479896,2,-1,1,-1,2,1,1,10
1532067479901,-2,-2,-3,-2,-5,-1,1,-5
1532067479906,1,-1,1,0,2,1,4,10
1532067479911,2,-1,-1,-4,0,-1,0,-9
1532067479916,-6,-1,0,-1,-2,-3,1,3
1532067479921,0,0,-2,2,-2,-2,-1,-4
1532067479926,-3,-3,-2,-3,-2,0,0,-2
1532067479931,-2,0,0,1,-2,-1,0,-12
1532067479936,-2,-1,1,0,2,0,-1,4
1532067479941,0,0,-1,0,1,-2,0,5
1532067479946,-1,0,-2,-3,-1,0,1,-5
1532067479951,-1,-2,-1,0,0,-2,0,-6
1532067479956,2,-1,0,2,-2,-2,-2,3
1532067479961,1,-1,1,-1,0,1,-1,-2
1532067479966,1,-1,0,-1,-1,-2,-1,-1
1532067479971,-3,-1,-1,0,-2,1,-1,-8
1532067479976,-2,0,1,-1,0,-1,0,0
1532067479981,0,-2,1,1,4,1,4,0
1532067479986,0,-1,0,1,-2,-2,-3,-7
1532067479991,-2,0,0,-1,-1,-1,1,4
1532067479996,3,-1,-2,-3,-2,-1,0,-4
1532067480001,-10,-3,-2,1,1,-2,-3,-5
1532067480006,-1,-2,-1,1,-1,-1,0,1
1532067480011,1,0,0,-2,-2,-1,0,-1
1532067480016,-2,-2,0,-2,0,-1,-1,-1
1532067480021,1,-2,0,-3,-2,-2,1,-2
1532067480026,-4,1,-1,1,0,-1,-1,-2
1532067480031,0,0,-2,-2,-4,0,-1,3
1532067480036,-1,-1,-1,1,2,0,2,-3
1532067480041,-1,0,-1,-3,-2,-1,-4,-1
1532067480046,0,-2,0,-1,1,0,1,-1
1532067480051,0,0,0,0,-1,-1,2,-3
1532067480056,-2,0,0,-2,-2,-1,0,1
1532067480061,-2,-1,-1,-1,-1,-1,0,-1
1532067480066,-2,-1,0,0,0,0,1,1
1532067480071,-1,-2,-1,-2,-1,1,1,2
1532067480076,-1,-2,-2,0,-2,-2,-2,-1
1532067480081,-2,-2,0,1,0,-1,0,-1
1532067480086,1,-1,0,-1,-2,-1,-3,-1
1532067480091,1,-2,0,0,-1,-1,-3,-1
1532067480096,-1,1,-1,-1,-1,-2,0,1
1532067480101,-1,-2,-1,-1,2,0,0,-1
1532067480106,1,-1,-3,-2,-2,-3,-3,-1
1532067480111,-1,0,-1,0,-3,-3,1,0
1532067480116,0,0,1,-2,-1,-1,-2,-1
1532067480121,-1,1,-1,0,-2,0,0,0
1532067480126,1,0,-1,-2,-1,-1,1,4
1532067480131,-2,-1,0,-2,-2,-3,-3,-3
1532067480136,-1,-1,1,1,0,1,0,-4
1532067480141,0,-1,-2,-1,1,1,1,0
1532067480146,-1,-1,1,-1,0,0,-2,3
1532067480151,0,0,-1,0,-2,-2,-2,0
1532067480156,0,-2,1,-3,-1,-3,-1,-7
1532067480161,-1,-1,0,-2,-2,-2,-1,6
1532067480166,-1,0,-1,-2,0,-1,1,-3
1532067480171,-1,0,0,0,1,1,-2,-4
1532067480176,1,0,0,0,-1,0,1,0
1532067480181,1,-2,0,-1,0,0,-1,-1
1532067480186,-3,1,0,-1,1,-3,1,-1
1532067480191,-1,0,0,-1,1,-1,0,-3
1532067480196,0,0,-1,-2,-1,1,0,0
1532067480201,-1,1,0,-1,-2,-1,-3,-4
1532067480206,1,0,0,1,0,1,0,2
1532067480211,0,-2,-1,-1,-2,-2,-1,3
1532067480216,-3,-1,0,-1,-3,0,0,3
1532067480221,0,-1,-1,2,1,1,-1,-9
1532067480226,-2,-1,-2,0,0,0,0,3
1532067480231,1,-1,-1,-1,0,-2,-1,-2
1532067480236,-1,-3,-3,-1,-2,0,-1,0
1532067480241,-1,-2,0,-2,-2,0,-1,-1
1532067480246,-1,0,0,-1,-2,-1,-1,-4
1532067480251,0,1,-1,-3,-3,0,0,2
1532067480256,-1,-1,0,0,0,-1,-3,1
1532067480261,0,-1,1,0,0,0,1,-2
1532067480266,-1,0,0,-1,-2,-1,0,-3
1532067480271,-2,0,-2,-1,0,-1,0,1
1532067480276,-2,-2,0,-1,-1,-1,0,3
1532067480281,-1,1,-3,0,-1,0,1,-2
1532067480286,0,0,0,0,0,0,-1,2
1532067480291,-2,0,2,-1,-1,0,-1,-5
1532067480296,0,-1,-3,-2,-1,-2,1,3
1532067480301,-1,-1,0,-1,-2,-1,0,0
1532067480306,-1,-1,-1,-2,-1,0,0,-2
1532067480311,-1,1,-2,0,-1,0,1,0
1532067480316,0,-2,0,-1,-1,0,0,-2
1532067480321,-3,-1,-2,-3,0,-2,0,-2
1532067480326,1,0,1,-2,0,0,-2,-4
1532067480331,-1,-4,0,-1,1,-2,-1,-8
1532067480336,2,0,1,-2,-1,-2,-1,7
1532067480341,2,-1,-2,-1,-1,0,-1,-1
1532067480346,-1,-1,-1,-1,-1,-1,-2,-2
1532067480351,0,-3,0,-2,-3,0,-1,0
1532067480356,-1,1,0,-1,0,-1,0,-5
1532067480361,-1,1,2,3,0,-1,0,0
1532067480366,-2,0,-1,0,-2,-2,0,1
1532067480371,-1,-2,0,-1,-1,-2,0,-2
1532067480376,-3,-1,-1,-1,-2,1,1,-4
1532067480381,-2,-3,-2,-2,-3,-2,0,0
1532067480386,0,-2,-1,-2,0,-1,-1,-1
1532067480391,2,0,-1,0,0,0,-2,2
1532067480396,-2,-1,-2,1,1,0,1,-3
1532067480401,0,-1,-1,-1,1,-1,1,0
1532067480406,1,-1,0,0,-1,-1,-1,0
1532067480411,0,0,-4,-1,-3,-2,-2,2
1532067480416,-1,0,0,-3,-2,0,0,-1
1532067480421,-2,-3,-1,-1,1,1,-1,-1
1532067480426,1,-1,-1,0,1,0,-1,1
1532067480431,-2,-1,-1,-1,-2,-2,-1,-2
1532067480436,1,-1,0,1,1,-1,1,1
1532067480441,-1,0,1,-1,-2,-2,-2,-1
1532067480446,-1,-1,-2,-1,-1,0,-2,0
1532067480451,0,-2,0,1,2,1,2,-1
1532067480456,-2,-1,-1,-1,-1,-1,-2,-1
1532067480461,-2,-2,0,-2,-2,-1,-1,-1
1532067480466,-1,-1,-1,0,-1,-4,-2,-1
1532067480471,-1,0,0,0,-2,2,-1,-1
1532067480476,-1,-2,-1,-1,-1,-3,-1,0
1532067480481,0,1,2,-2,0,-2,1,1
1532067480486,0,-2,-1,-1,-2,0,0,-3
1532067480491,-3,-1,-2,0,1,-2,-1,-2
1532067480496,-1,0,-1,-1,-1,-2,-3,0
1532067480501,-3,-3,-2,-1,-2,0,1,-4
1532067480506,-3,-1,-1,-2,-2,-3,0,-1
1532067480511,-1,1,-1,-1,-1,-1,-2,-1
1532067480516,1,-2,-1,0,1,0,-1,-1
1532067480521,-1,-1,-2,-1,-3,-1,-1,1
1532067480526,-2,-1,-1,-3,-1,-2,1,-1
1532067480531,-1,-1,0,-2,1,-1,-1,1
1532067480536,-2,-1,0,-1,-3,-1,-4,-3
1532067480541,-1,-1,-2,-1,-1,0,-1,0
1532067480546,-2,-1,-2,-1,-1,-1,-1,-2
1532067480551,0,0,-2,1,-1,-1,1,-3
1532067480556,0,0,-1,1,-1,0,-1,0
1532067480561,-1,-2,1,0,-1,0,-1,0
1532067480566,2,0,-1,0,0,-1,0,1
1532067480571,-2,0,-1,0,2,-1,1,-1
1532067480576,0,0,-1,-2,0,-3,-2,-1
1532067480581,-1,1,-1,-1,-2,0,1,-1
1532067480586,-1,-1,0,-2,-1,-1,-1,0
1532067480591,-1,-1,-1,1,1,1,0,1
1532067480596,0,1,-3,-1,0,-1,1,-1
1532067480601,-1,0,-1,-2,-1,-1,-1,0
1532067480606,0,-1,2,-3,0,0,-1,-2
1532067480611,0,-2,0,-1,-3,-2,-2,-1
1532067480616,-1,-1,-1,0,0,1,-1,-1
1532067480621,1,-1,0,-2,-1,0,0,0
1532067480626,0,-1,-1,0,0,-1,1,-1
1532067480631,0,1,0,1,0,-1,-1,-1
1532067480636,0,0,0,0,-1,1,0,-2
1532067480641,0,-1,-1,0,0,-1,-1,0
1532067480646,-2,0,-1,-1,-2,-2,3,0
1532067480651,-1,1,-1,1,1,-3,-2,-1
1532067480656,-3,-1,0,0,-1,0,-1,-1
1532067480661,1,0,0,-1,-1,0,0,-1
1532067480666,-2,0,-1,0,2,0,0,-1
1532067480671,-2,-2,-1,-2,-2,-2,0,-1
1532067480676,1,1,-1,2,1,-2,0,-1
1532067480681,-1,-1,-2,0,1,-1,0,1
1532067480686,0,-2,0,0,-2,0,0,-1
1532067480691,-1,-2,-1,0,-2,0,-1,0
1532067480696,-1,-1,0,0,-1,-1,-2,-2
1532067480701,-1,-1,-1,-2,-1,0,3,-3
1532067480706,1,-2,-1,-1,-1,1,0,-1
1532067480711,1,0,-2,-1,-1,-1,-1,-2
1532067480716,1,0,0,0,0,0,0,1
1532067480721,-3,-2,-1,-3,-3,-1,-3,-2
1532067480726,-2,-1,0,0,0,-1,-1,-3
1532067480731,-1,0,-1,0,0,-1,2,2
1532067480736,1,0,0,-2,0,0,-2,-1
1532067480741,1,-1,-1,0,-1,-2,1,0
1532067480746,-1,0,1,-2,-2,-3,-1,-1
1532067480751,-1,0,0,0,-1,0,-1,0
1532067480756,-2,0,-3,-1,1,-1,2,0
1532067480761,-1,-1,-3,-1,-2,-2,-1,-1
1532067480766,0,-1,0,-1,-1,-1,0,-3
1532067480771,0,-2,-2,1,2,-1,1,0
1532067480776,-1,0,0,0,-2,0,2,-1
1532067480781,0,-1,-1,-1,-1,-2,-2,1
1532067480786,-2,0,-1,-2,-3,-1,-1,1
1532067480791,-1,-1,-2,-2,-3,0,-1,-1
1532067480796,1,-1,1,-1,0,0,0,-1
1532067480801,-1,0,-2,0,-1,-1,0,-2
1532067480806,1,0,0,-1,-1,-2,0,-2
1532067480811,1,-1,0,-2,-2,-2,-1,-2
1532067480816,-1,-3,-1,-1,0,0,0,-1
1532067480821,-2,-1,1,-2,-1,-2,0,-2
1532067480826,-1,0,-2,0,1,0,-1,2
1532067480831,-3,-2,-2,-2,-5,0,1,-1
1532067480836,0,2,1,1,2,2,2,0
1532067480841,-1,-1,-1,-1,-2,-1,1,-1
1532067480846,1,0,-2,-1,0,0,0,0
1532067480851,0,0,-1,-2,-1,-1,-2,-1
1532067480856,-1,-1,-1,-2,-2,-1,-1,-1
1532067480861,-1,0,0,0,2,0,-1,1
1532067480866,-1,0,-2,-1,-2,-1,-1,-2
1532067480871,1,-2,0,-3,0,0,-3,-1
1532067480876,1,-3,-1,-1,-1,-2,-1,0
1532067480881,-1,0,-1,1,0,0,0,-2
1532067480886,-1,-1,0,0,-1,-2,-3,-2
1532067480891,1,1,0,0,-1,-2,-2,0
1532067480896,-3,-2,-2,-2,-1,-1,-3,0
1532067480901,-1,-2,0,-1,-3,1,-2,0
1532067480906,0,0,1,2,1,-1,1,-1
1532067480911,-1,1,0,-1,0,0,0,-1
1532067480916,-1,0,1,0,0,-1,-1,1
1532067480921,0,1,-2,0,-3,-1,-3,0
1532067480926,1,0,-1,1,2,1,0,2
1532067480931,-1,-1,0,-1,0,-2,0,-2
1532067480936,0,-1,-1,-1,-2,-1,-1,-3
1532067480941,-1,-1,1,0,1,-1,0,0
1532067480946,1,-1,-2,-2,-3,-1,0,-2
1532067480951,-4,-1,-1,-1,-1,0,0,-1
1532067480956,1,0,0,-1,-5,-1,-1,-2
1532067480961,0,0,-1,-3,-1,-2,2,-2
1532067480966,0,0,0,-1,-1,-2,-1,1
1532067480971,-1,-1,-1,-1,0,-3,-1,-4
1532067480976,-2,-2,-2,-3,-2,-2,0,0
1532067480981,-2,-1,-1,0,-1,1,-2,0
1532067480986,-1,-1,0,-1,-1,-1,-1,1
1532067480991,2,-1,-1,0,0,0,-3,-1
1532067480996,0,-1,-2,0,0,-1,-1,0
1532067481001,-1,-1,0,0,0,0,0,-1
1532067481006,0,-1,0,-2,-1,0,1,-2
1532067481011,-2,-1,0,-2,-1,1,0,-1
1532067481016,1,0,-2,-1,-1,0,1,-3
1532067481021,-1,-1,-1,-2,0,-1,-2,-3
1532067481026,-1,-4,2,2,0,0,1,1
1532067481031,1,4,-2,0,0,-2,0,2
1532067481036,-2,0,1,-2,-3,-1,-1,-2
1532067481041,1,-1,-1,1,1,0,-2,-1
1532067481046,-3,-2,0,-1,-3,-1,0,-2
1532067481051,0,0,-3,-1,-2,-2,-1,-1
1532067481056,2,0,0,0,1,0,-3,1
1532067481061,-4,-1,-3,-2,-1,-2,3,-1
1532067481066,0,0,0,-1,-2,-2,0,-3
1532067481071,0,-3,-1,-1,-2,-2,1,0
1532067481076,-3,-2,0,-1,-1,-2,0,0
1532067481081,-1,0,1,0,-1,-1,-3,-3
1532067481086,1,0,-1,-1,0,1,-1,0
1532067481091,-3,-3,3,0,0,-1,0,-1
1532067481096,-3,-1,-1,-1,-1,0,1,0
1532067481101,2,-1,0,-3,-2,-2,0,1
1532067481106,-3,0,-1,0,0,-3,-1,-2
1532067481111,0,-2,-1,0,-1,0,-1,-1
1532067481116,1,-1,0,-1,-2,1,2,0
1532067481121,0,-1,-1,0,-1,1,-1,0
1532067481126,0,-1,-1,0,-2,1,-2,0
1532067481131,-3,-1,1,0,-1,1,1,-1
1532067481136,0,1,0,-1,-1,-2,-1,-2
1532067481141,-1,-3,-1,-1,-1,-2,1,1
1532067481146,-1,-1,-2,-3,-2,-4,-3,-1
1532067481151,1,0,1,2,2,1,-1,0
1532067481156,-2,1,-1,-1,-3,0,-1,-1
1532067481161,-1,0,-1,0,0,-1,0,2
1532067481166,0,-2,1,-1,1,-2,1,0
1532067481171,0,0,-1,-2,-1,-1,0,-2
1532067481176,0,-2,-2,0,-1,-1,1,0
1532067481181,0,0,0,-1,-1,0,1,-4
1532067481186,-1,0,-1,0,1,2,-2,2
1532067481191,0,0,1,1,2,-2,0,-2
1532067481196,-2,-2,0,-1,0,-1,0,-2
1532067481201,0,0,0,-2,-3,-1,-3,2
1532067481206,1,-2,-1,-3,-1,1,3,-3
1532067481211,-1,-2,-1,-2,-2,-2,0,-2
1532067481216,1,-1,-3,0,-3,-3,-2,-1
1532067481221,-3,-2,-1,0,0,-1,-2,0
1532067481226,-1,-1,-3,-1,-3,-2,0,-2
1532067481231,0,1,-1,-2,-1,-1,-2,1
1532067481236,-1,-1,0,-3,-1,-2,0,0
1532067481241,1,0,-2,0,2,1,1,-1
1532067481246,-2,0,-1,-1,-2,-2,-2,-1
1532067481251,-1,0,-2,0,-1,0,-1,0
1532067481256,-3,0,2,-1,-1,-1,-1,-3
1532067481261,0,1,-1,0,0,-2,-1,0
1532067481266,0,1,-1,1,-1,0,0,-2
1532067481271,-1,-2,0,-2,-2,-1,-1,-1
1532067481276,-2,-3,-3,-2,0,0,0,0
1532067481281,0,-2,0,-2,-3,-2,-2,1
1532067481286,-3,-1,-1,-2,2,-2,3,-1
1532067481291,-2,0,-2,-1,0,0,-1,-1
1532067481296,0,-1,-1,0,2,0,-2,-1
1532067481301,-2,0,-2,-3,-3,1,0,-1
1532067481306,0,-3,-1,-2,-1,-3,-1,0
1532067481311,-1,-2,0,-1,-1,-1,-1,-1
1532067481316,1,0,-1,1,1,1,-1,-2
1532067481321,-1,-2,0,-1,-3,-2,0,-2
1532067481326,-4,-1,0,-1,-1,0,-1,0
1532067481331,1,-1,-1,-1,-1,-1,1,0
1532067481336,-1,-1,-2,-1,0,-2,0,-1
1532067481341,-2,-1,0,0,-1,-2,-1,0
1532067481346,-1,0,-1,-1,-3,-1,-2,-2
1532067481351,1,-1,-1,-1,-2,-2,-1,2
1532067481356,-2,0,-1,0,1,3,0,0
1532067481361,0,0,-2,-3,-2,0,0,-3
1532067481366,1,-1,-1,0,1,-2,-2,0
1532067481371,0,-2,-1,0,0,1,1,-1
1532067481376,2,-1,0,-1,-2,-2,0,0
1532067481381,-2,0,-2,-1,-1,-1,-1,0
1532067481386,1,0,-1,0,-3,1,-1,-1
1532067481391,-1,0,0,-3,-2,-2,2,0
1532067481396,-1,-2,-1,-2,0,1,1,0
1532067481401,-1,-1,-1,1,-1,-1,0,-1
1532067481406,-2,-2,1,0,-2,0,0,-4
1532067481411,-1,-1,1,1,1,1,0,-2
1532067481416,-3,0,-2,-2,0,-1,0,-2
1532067481421,0,-1,0,-1,-2,-1,0,1
1532067481426,-2,-1,-2,0,-2,-1,1,-3
1532067481431,-3,-1,-2,-1,-2,-1,1,-1
1532067481436,1,1,0,0,-1,-1,-2,0
1532067481441,1,-1,-2,0,0,0,1,0
1532067481446,-3,-2,-2,-1,0,-3,0,-3
1532067481451,0,0,-2,-2,-1,-2,1,0
1532067481456,-1,-2,-1,-1,-3,-3,-1,-1
1532067481461,-2,-2,0,-1,0,0,-1,-1
1532067481466,1,0,-1,-2,1,0,0,1
1532067481471,3,0,0,1,0,0,-1,-1
1532067481476,-1,-2,-1,-2,-3,0,0,-1
1532067481481,1,1,0,0,2,0,0,1
1532067481486,-3,-1,1,-2,0,0,0,0
1532067481491,-2,-2,0,-1,-2,-1,-1,1
1532067481496,-1,0,-2,1,0,-2,-2,-1
1532067481501,-1,0,0,-1,-1,-2,-2,-2
1532067481506,2,-1,-3,-1,-1,-1,-2,0
1532067481511,-4,-2,-1,0,1,-1,2,-2
1532067481516,-1,-1,1,-1,0,-3,0,-2
1532067481521,-1,-1,0,-2,0,0,0,-4
1532067481526,2,-1,-1,-1,-1,0,0,2
1532067481531,-1,0,-1,-2,-2,1,-4,2
1532067481536,-1,-1,0,-1,0,-1,2,-3
1532067481541,-2,-1,-1,1,-2,0,0,-3
1532067481546,-2,-1,0,-2,-3,0,0,-2
1532067481551,1,0,0,-1,-2,0,0,-1
1532067481556,-1,-1,2,0,-1,0,1,0
1532067481561,-1,-1,-2,-1,-4,-2,-1,-2
1532067481566,0,0,-1,0,1,-2,-1,1
1532067481571,-1,-3,0,0,2,0,1,-1
1532067481576,-1,-1,-2,1,-2,-1,-2,-2
1532067481581,-1,0,-1,-3,-2,0,0,-2
1532067481586,-1,-1,0,-1,-3,-1,-1,-2
1532067481591,0,-2,-2,0,-1,-2,-1,-2
1532067481596,0,-2,-2,-1,1,0,1,2
1532067481601,-1,-1,-1,-2,-2,-2,-1,0
1532067481606,0,-1,-1,1,0,0,-1,-1
1532067481611,-3,-1,-1,-1,1,-1,-2,-2
1532067481616,0,-3,0,-2,-2,-2,-2,-2
1532067481621,-1,-1,-2,0,1,1,-1,-1
1532067481626,-1,-3,-1,-2,0,-1,0,-2
1532067481631,0,0,-1,1,-2,-2,-1,-2
1532067481636,0,0,0,-1,-2,0,-3,-2
1532067481641,-1,-1,-1,-1,2,0,1,0
1532067481646,-1,1,-1,0,-1,0,-1,0
1532067481651,-1,0,1,-1,-2,-1,0,-1
1532067481656,-1,-1,-1,-3,-1,-1,0,1
1532067481661,-2,-4,-2,-1,-1,-1,-1,1
1532067481666,-3,-3,0,-1,1,1,2,-2
1532067481671,2,0,-1,0,0,-3,-1,1
1532067481676,-1,1,-1,-1,0,0,0,1
1532067481681,0,0,0,0,-1,1,-1,0
1532067481686,-3,-3,-2,-3,-3,-2,1,-3
1532067481691,-1,-2,-2,-1,-1,-2,0,-4
1532067481696,0,0,0,0,-1,-3,-2,-1
1532067481701,0,-2,-2,1,-1,-2,1,0
1532067481706,-1,1,-1,-1,-3,-2,-3,0
1532067481711,1,0,-1,0,1,1,1,3
1532067481716,-2,-1,-1,0,-1,0,-1,-2
1532067481721,1,-1,2,-1,-1,0,-1,-2
1532067481726,0,0,0,-1,-1,0,2,-2
1532067481731,-2,-1,1,0,0,1,1,2
1532067481736,-2,-1,0,-1,-1,-1,-1,-1
1532067481741,0,0,-2,-3,-1,-2,-1,-1
1532067481746,0,0,0,2,2,1,0,1
1532067481751,-2,-1,-1,-4,-3,-2,-1,-1
1532067481756,1,0,-1,0,1,0,0,-1
1532067481761,-1,0,0,-1,0,0,0,-2
1532067481766,-2,1,-1,-1,0,0,-1,-2
1532067481771,2,-1,-1,-2,2,1,0,-1
1532067481776,0,0,-2,-2,-1,-2,2,-1
1532067481781,-2,-3,0,-2,-5,-1,-1,-3
1532067481786,1,-2,0,-1,0,-1,-3,1
1532067481791,-1,0,1,1,-1,-2,-1,-2
1532067481796,-1,-1,-1,-2,-3,0,1,2
1532067481801,-2,-1,0,0,1,2,0,-3
1532067481806,-1,-1,0,-1,-2,-1,-1,1
1532067481811,-1,-2,-1,-2,-3,-1,-2,0
1532067481816,-1,-1,0,0,1,0,1,-3
1532067481821,1,-1,0,0,-3,-1,0,1
1532067481826,-1,-1,-1,0,-1,-1,0,-2
1532067481831,-1,-1,-2,0,2,0,-1,-3
1532067481836,0,-2,-1,1,0,-1,0,-1
1532067481841,-1,-1,-1,-1,-1,-1,-2,0
1532067481846,-1,-1,-2,-1,0,-2,1,-2
1532067481851,-2,-1,1,-1,-3,0,-3,-1
1532067481856,-2,-2,-1,-2,-2,1,1,-3
1532067481861,1,1,0,2,5,0,-1,2
1532067481866,1,-1,-1,-3,0,0,-2,0
1532067481871,-1,-1,-2,-2,-3,-2,1,0
1532067481876,1,-1,-1,-2,-1,-1,0,1
1532067481881,0,0,-1,0,1,-1,1,-1
1532067481886,-1,1,1,-2,0,1,0,0
1532067481891,1,0,-1,-2,0,-3,-1,0
1532067481896,0,-1,0,-1,0,0,-3,-3
1532067481901,-3,-1,-1,-2,-2,-2,1,-4
