1532146213530,-30,-7,-11,-10,-6,-3,-4,8
1532146213535,-26,-5,-8,0,3,-4,-14,-21
1532146213540,-8,3,9,4,0,6,12,5
1532146213545,-35,-9,2,-1,0,0,6,-3
1532146213550,55,46,-6,-8,-12,-3,2,-5
1532146213555,2,-6,3,-2,4,-2,-1,10
1532146213560,1,-11,-3,3,-3,4,0,0
1532146213565,38,28,-5,-3,0,-2,1,13
1532146213570,9,2,4,-1,-1,-5,-4,-7
1532146213575,5,3,-4,-3,-5,0,-2,-4
1532146213580,-16,-15,-1,2,1,3,7,-7
1532146213585,-6,6,7,2,-1,3,-3,4
1532146213590,6,-17,-2,-1,0,-9,0,9
1532146213595,-21,-37,-1,0,-1,2,-2,-4
1532146213600,-11,-13,-1,-2,-1,-7,-7,1
1532146213605,18,18,-1,-1,-2,6,0,-5
1532146213610,18,29,1,0,0,1,-5,-2
1532146213615,26,28,-6,-7,-3,1,1,9
1532146213620,-4,-19,-3,3,0,-8,-2,-2
1532146213625,11,0,3,4,1,-3,-4,0
1532146213630,-5,0,6,1,5,9,29,0
1532146213635,-10,2,-4,-2,-4,-3,-3,-7
1532146213640,-8,4,2,1,3,4,3,3
1532146213645,-21,-15,-6,-5,-4,1,7,23
1532146213650,-24,-19,-10,-5,-18,-44,-32,-50
1532146213655,-28,-3,5,1,-4,20,0,3
1532146213660,15,16,-1,2,-3,7,-8,-16
1532146213665,6,-2,-1,-4,-11,1,8,6
1532146213670,7,-17,3,2,11,10,3,21
1532146213675,16,10,-5,-3,3,-13,-4,12
1532146213680,-7,13,-5,-2,-14,-1,6,4
1532146213685,-6,-17,4,1,7,0,-7,-2
1532146213690,19,4,8,7,3,7,-2,-2
1532146213695,19,5,7,7,-5,-2,-3,-4
1532146213700,13,-15,3,-6,5,-1,1,7
1532146213705,10,0,-12,-5,-1,-6,-3,-5
1532146213710,15,-14,-7,-6,-1,4,11,4
1532146213715,6,4,1,1,0,-5,-25,2
1532146213720,-5,14,-10,-10,-4,-4,-25,-13
1532146213725,-4,-15,-5,-5,-20,-12,-4,-14
1532146213730,-2,-9,-7,-1,26,-4,-35,5
1532146213735,-8,-14,9,1,-5,3,9,2
1532146213740,12,19,-3,-6,1,-2,1,14
1532146213745,-10,11,14,14,6,11,-7,-23
1532146213750,-6,-13,-13,-5,-12,-2,11,-1
1532146213755,-5,17,2,3,-4,-7,-3,-5
1532146213760,-3,-20,3,1,3,6,15,2
1532146213765,23,-3,-2,-5,6,-3,-1,12
1532146213770,-9,-8,4,2,0,4,3,5
1532146213775,-9,-16,-14,-6,4,-5,-2,-5
1532146213780,-11,5,4,6,-5,13,9,0
1532146213785,-6,6,-1,-2,6,-11,5,0
1532146213790,10,-16,3,2,2,13,16,-2
1532146213795,2,36,-11,-6,-14,-16,-41,-3
1532146213800,-19,-39,-2,-3,-1,2,7,-2
1532146213805,0,22,14,9,7,-7,-16,-4
1532146213810,-8,-8,-6,-5,10,9,-10,-1
1532146213815,-5,-45,-1,0,0,13,24,4
1532146213820,-16,14,-3,-1,4,-18,-3,-6
1532146213825,-28,-13,-6,-6,-7,-3,-16,-8
1532146213830,23,41,8,1,-9,-2,-23,9
1532146213835,-18,-20,-5,-5,0,-5,50,-1
1532146213840,4,-2,-1,8,3,5,-8,-7
1532146213845,2,-6,1,3,6,3,29,3
1532146213850,-3,28,-2,-2,-15,-6,3,5
1532146213855,19,-18,3,2,5,-6,-17,-6
1532146213860,-4,-22,-10,-8,-2,12,-5,-2
1532146213865,4,-7,-2,-2,-3,1,39,6
1532146213870,20,29,2,-3,-2,2,-7,1
1532146213875,20,-26,2,2,7,-1,-10,0
1532146213880,-3,23,8,0,-7,-10,22,-7
1532146213885,-18,-12,-14,-5,-4,3,-31,-8
1532146213890,4,-11,7,5,17,1,32,6
1532146213895,-30,26,0,-8,-20,7,13,-4
1532146213900,9,12,14,11,0,5,-5,-2
1532146213905,17,-7,1,-8,7,0,-11,0
1532146213910,-17,-3,-10,1,-1,2,1,-5
1532146213915,-20,6,1,4,1,-8,-20,2
1532146213920,17,25,-1,-6,5,19,6,-2
1532146213925,14,10,-3,-5,-15,-34,35,-1
1532146213930,-45,-38,-4,1,-1,-7,-38,-9
1532146213935,9,-17,0,-1,7,11,-1,0
1532146213940,-14,-24,-14,-7,-6,-9,-20,-7
1532146213945,12,2,4,6,6,16,-3,0
1532146213950,12,6,-1,-1,-7,0,6,-4
1532146213955,2,-6,-13,-9,-9,-11,-1,6
1532146213960,-9,-12,13,3,0,-1,-17,3
1532146213965,14,-11,-4,-3,1,6,-14,-3
1532146213970,38,55,-14,-3,-1,-5,9,12
1532146213975,11,-3,8,3,3,3,-2,61
1532146213980,-13,64,5,2,-11,-9,10,-81
1532146213985,-22,-25,11,7,17,6,-33,0
1532146213990,-1,-23,-4,2,-7,16,10,-11
1532146213995,19,7,-2,0,6,-10,32,12
1532146214000,-3,29,-3,-2,-3,-3,20,30
1532146214005,-11,-55,-5,-2,-8,-2,-10,-7
1532146214010,-8,20,-1,-6,3,-3,7,0
1532146214015,25,7,4,7,-1,26,1,-7
1532146214020,-6,-41,4,1,-2,-28,-16,13
1532146214025,-10,14,-19,-4,-6,9,5,-11
1532146214030,-9,-26,11,4,2,-8,12,12
1532146214035,-20,26,-5,-8,-1,-2,-21,-20
1532146214040,12,-23,-3,-1,6,-5,-22,4
1532146214045,-4,23,-5,-5,-1,6,13,8
1532146214050,0,9,5,2,-2,2,10,8
1532146214055,-3,-19,10,1,0,-7,-4,-11
1532146214060,18,19,-11,-6,-3,10,2,2
1532146214065,13,-4,-2,8,1,-8,-6,-6
1532146214070,5,-16,3,5,-17,2,-11,11
1532146214075,-5,11,4,1,36,-7,-23,-47
1532146214080,17,16,3,-2,2,10,38,40
1532146214085,17,40,-2,-4,-6,2,0,4
1532146214090,-81,-88,-18,-17,-11,-19,-3,-91
1532146214095,21,21,-4,3,-7,-4,-21,17
1532146214100,-62,-46,-1,6,-2,0,-2,3
1532146214105,7,13,11,-1,4,-1,-1,-2
1532146214110,15,31,5,-1,-9,8,8,27
1532146214115,10,-33,-12,-5,-1,1,13,5
1532146214120,-5,42,7,6,12,-5,-2,9
1532146214125,-33,4,2,-2,-16,5,1,9
1532146214130,6,13,4,3,20,-7,-9,-6
1532146214135,-49,-7,-12,-7,-12,-2,2,-12
1532146214140,-2,-26,-6,-3,1,2,-9,15
1532146214145,-5,-10,2,2,-4,-8,-14,-20
1532146214150,-18,-2,1,-4,-5,-6,4,24
1532146214155,-7,7,-1,4,2,5,5,-2
1532146214160,-10,2,-5,-4,-3,0,2,-10
1532146214165,-9,0,0,1,5,-1,-12,-9
1532146214170,-6,64,9,5,3,4,-5,-6
1532146214175,-29,-15,16,9,-5,-2,13,12
1532146214180,-31,-12,-13,-12,-3,-4,-10,0
1532146214185,1,-12,-16,-10,0,3,18,28
1532146214190,6,-28,-15,-4,-1,1,-17,0
1532146214195,5,37,23,13,-3,-6,-3,-24
1532146214200,24,13,18,12,5,2,2,2
1532146214205,13,4,8,-1,4,-1,18,8
1532146214210,38,-8,-12,-4,-1,3,-18,11
1532146214215,40,-2,-4,-11,-7,-4,-11,-31
1532146214220,26,-30,-1,4,2,-1,-2,-14
1532146214225,70,39,-5,8,3,3,10,43
1532146214230,20,-61,-15,-6,-1,-2,-1,-18
1532146214235,30,-44,-18,-10,-5,-4,4,0
1532146214240,53,38,4,-6,-7,-2,3,4
1532146214245,54,-44,-2,-8,-4,-4,-5,2
1532146214250,-21,48,26,8,3,3,1,5
1532146214255,-94,28,0,4,1,-2,-8,-37
1532146214260,-70,-19,-4,-1,-5,-3,-12,-14
1532146214265,-111,-54,-16,-2,-3,-7,-21,-26
1532146214270,-32,-16,4,-3,-2,-3,-3,-10
1532146214275,18,-32,-22,-9,-5,-2,8,11
1532146214280,45,29,16,-2,2,1,4,20
1532146214285,108,31,9,5,5,5,7,1
1532146214290,19,70,-2,9,3,3,7,24
1532146214295,-16,-52,-5,-5,-3,0,-5,26
1532146214300,-26,-3,-23,-8,-4,-10,-12,-38
1532146214305,-39,13,-1,-4,-3,-7,3,-6
1532146214310,-5,-17,3,-6,0,9,6,21
1532146214315,12,10,4,-3,0,0,-1,5
1532146214320,9,47,-3,2,1,-2,-10,-11
1532146214325,13,-39,12,4,-3,-4,15,-23
1532146214330,41,-18,7,0,-5,-9,-33,4
1532146214335,25,-20,-14,-3,2,3,7,-15
1532146214340,11,-8,-1,-3,-3,9,28,36
1532146214345,-45,43,-5,-3,1,7,-9,-3
1532146214350,-8,-2,-9,-2,1,-1,13,-20
1532146214355,12,13,26,11,-1,-2,-3,18
1532146214360,11,-38,-9,-2,1,3,9,-8
1532146214365,-5,12,0,-1,3,4,-34,9
1532146214370,-33,-16,-11,-3,-8,-10,15,-4
1532146214375,-57,37,7,3,2,6,6,9
1532146214380,-69,3,0,1,-1,-6,-15,-5
1532146214385,-75,-24,-1,-1,-4,-6,-7,-8
1532146214390,-61,24,-7,-4,-4,-8,-52,-8
1532146214395,-5,2,-1,-1,7,13,22,2
1532146214400,21,-45,-5,-7,-28,-10,-12,9
1532146214405,19,23,-1,2,33,-6,-19,-3
1532146214410,40,-7,1,2,-3,2,-11,-6
1532146214415,27,1,-3,-5,20,-1,21,1
1532146214420,28,10,-2,1,-22,3,-3,16
1532146214425,15,3,2,-3,-81,-13,4,-24
1532146214430,21,1,8,4,91,10,33,11
1532146214435,16,16,-5,-4,-6,-4,-82,-16
1532146214440,19,25,-1,3,20,-5,4,3
1532146214445,0,-22,-1,-1,-2,5,2,49
1532146214450,8,37,6,-2,-22,-4,7,-63
1532146214455,9,-25,-9,-3,-33,-7,5,10
1532146214460,7,-29,-8,-1,37,1,-9,-24
1532146214465,-5,7,0,4,13,19,35,18
1532146214470,5,7,3,-1,-21,-9,5,61
1532146214475,6,-21,2,1,2,1,-22,-54
1532146214480,2,3,3,2,-23,-13,9,-14
1532146214485,18,31,1,-2,10,-2,-24,-15
1532146214490,-2,-13,-6,0,24,19,1,2
1532146214495,25,19,-3,0,-40,7,51,17
1532146214500,34,-13,3,4,20,8,-19,12
1532146214505,25,-54,-3,-4,-1,-7,4,2
1532146214510,31,-28,0,-4,-23,-7,-13,-12
1532146214515,47,57,-11,-4,15,-7,1,8
1532146214520,18,22,10,4,-58,-5,20,7
1532146214525,12,54,-1,-6,48,-2,-37,-8
1532146214530,-8,-77,6,-3,12,17,27,-13
1532146214535,-12,-44,-21,-4,1,-5,-1,3
1532146214540,-1,-19,3,3,2,5,11,-1
1532146214545,-17,0,5,3,-12,-4,3,29
1532146214550,-10,27,-2,1,-20,6,-2,-2
1532146214555,-21,36,5,-4,16,1,21,13
1532146214560,-51,-68,-13,-3,6,8,4,-13
1532146214565,7,-16,-6,-5,-23,-20,-4,-32
1532146214570,7,-11,0,-1,7,-5,-6,-6
1532146214575,7,16,5,1,-13,-11,14,-2
1532146214580,22,36,2,2,32,4,-30,18
1532146214585,1,4,5,2,-42,7,1,-5
1532146214590,12,-18,-16,-3,37,13,-10,-4
1532146214595,12,-11,1,-1,-2,-7,23,14
1532146214600,14,3,2,-5,-11,-10,17,35
1532146214605,-23,-25,-5,1,5,-1,-10,-11
1532146214610,-4,87,-2,-7,-36,-16,12,-27
1532146214615,-22,-2,1,1,7,8,-20,23
1532146214620,3,-10,-12,-2,16,5,2,-44
1532146214625,-11,-12,12,11,16,13,32,26
1532146214630,-2,18,7,5,-18,-10,-19,12
1532146214635,-21,1,4,2,11,6,8,-14
1532146214640,11,4,2,-1,1,3,4,16
1532146214645,25,10,-11,-6,0,-2,-19,-22
1532146214650,1,-18,-1,-1,-6,-13,9,27
1532146214655,17,-11,-2,-3,-6,-13,-46,-31
1532146214660,23,8,0,-4,-3,-6,11,-4
1532146214665,1,2,-3,-5,5,2,30,38
1532146214670,1,-6,7,4,-2,9,-4,6
1532146214675,-2,-42,-8,-6,-5,-4,-9,-73
1532146214680,-8,5,0,-4,-4,-9,-21,5
1532146214685,-32,38,-1,0,6,0,-3,-17
1532146214690,-2,-38,5,5,1,6,31,45
1532146214695,-19,37,2,0,4,7,2,29
1532146214700,68,7,3,1,2,1,-12,-27
1532146214705,92,10,-3,-7,1,-1,11,-4
1532146214710,126,-5,3,6,-1,4,-5,12
1532146214715,127,16,5,4,3,5,2,6
1532146214720,110,-11,-4,0,-3,-11,-18,-15
1532146214725,-23,-5,-6,-4,-3,0,7,15
1532146214730,-91,2,-2,-4,-1,-2,-2,-24
1532146214735,-123,-12,-1,0,-1,-6,-7,5
1532146214740,-128,16,10,3,5,10,19,13
1532146214745,-111,-19,3,8,2,1,-1,-13
1532146214750,-114,-9,-5,-3,-2,-1,-5,-22
1532146214755,-96,2,-1,-4,2,6,4,25
1532146214760,-105,-2,-10,-13,-16,-5,-3,3
1532146214765,-73,-1,5,10,-3,-7,-9,-24
1532146214770,-55,10,2,5,-3,-3,-6,2
1532146214775,-41,15,-10,-12,7,9,8,22
1532146214780,-47,30,-4,-10,6,7,2,-5
1532146214785,-29,-114,-14,-1,-8,-11,-11,-17
1532146214790,-16,52,18,10,-10,-6,1,-2
1532146214795,-8,-5,-12,7,4,-3,-6,3
1532146214800,-28,11,12,9,6,0,-2,-8
1532146214805,-8,-4,-14,-14,3,3,1,0
1532146214810,-2,-26,-7,-8,-4,0,-2,0
1532146214815,-5,9,11,-1,-4,-3,3,2
1532146214820,-15,-37,-7,-4,1,4,3,4
1532146214825,-2,100,-20,-12,3,1,0,-1
1532146214830,2,-59,-9,0,1,-1,0,-6
1532146214835,-2,9,7,9,-12,-18,-8,-7
1532146214840,-8,10,20,8,-2,8,8,-5
1532146214845,8,17,0,-4,3,-2,-3,3
1532146214850,-28,-2,-9,-20,-2,3,5,5
1532146214855,-63,-40,-10,3,-3,-8,-7,-13
1532146214860,-93,-9,-2,16,0,-2,-5,-3
1532146214865,-90,22,14,6,1,-3,8,2
1532146214870,-106,24,6,-1,3,2,-27,-2
1532146214875,-57,76,8,-7,2,9,15,12
1532146214880,-56,-24,-6,-3,-1,6,4,11
1532146214885,-32,-67,-4,-1,2,-8,-19,-12
1532146214890,7,-4,-8,-2,-6,-9,-1,-5
1532146214895,17,-14,1,-8,-6,-4,-2,1
1532146214900,21,27,-10,-13,0,-2,-5,-4
1532146214905,47,-24,5,16,1,5,12,4
1532146214910,46,3,16,10,4,4,10,3
1532146214915,18,-15,18,12,1,0,0,3
1532146214920,29,11,-10,-7,-2,-2,-2,-6
1532146214925,25,31,-6,-13,-4,-5,30,13
1532146214930,14,-2,-6,-5,-9,-1,-54,-27
1532146214935,-6,-8,3,11,7,-4,-7,-2
1532146214940,23,7,2,4,6,1,1,6
1532146214945,-41,-36,9,2,-3,0,-9,0
1532146214950,-8,1,-8,-3,-6,-4,12,2
1532146214955,22,34,-11,-11,-1,1,8,-20
1532146214960,-6,-36,1,-1,-3,2,0,17
1532146214965,52,38,4,3,0,3,-2,22
1532146214970,-51,-51,1,2,0,-4,8,-53
1532146214975,84,38,-8,-2,-2,-6,-12,3
1532146214980,25,-13,-3,0,1,0,5,0
1532146214985,19,17,3,-1,1,6,21,14
1532146214990,40,16,2,1,3,5,35,73
1532146214995,8,-48,-4,0,2,9,-6,58
1532146215000,-25,37,-5,-6,-12,-17,-32,-96
1532146215005,-7,-69,-2,-1,-2,-5,-19,-10
1532146215010,56,29,-7,1,-2,-1,7,5
1532146215015,-13,-9,6,6,6,6,12,8
1532146215020,-12,-7,-1,3,4,4,13,44
1532146215025,-25,31,16,-1,-3,3,-16,-33
1532146215030,8,-29,-11,0,-2,-3,6,2
1532146215035,7,-17,-16,-9,-6,1,2,-2
1532146215040,53,-30,3,6,4,-1,-4,6
1532146215045,44,97,34,2,1,0,-5,-16
1532146215050,-15,14,-8,2,1,2,4,7
1532146215055,28,-15,-13,-6,-4,-1,2,-1
1532146215060,94,38,21,10,4,-1,-10,-10
1532146215065,25,20,-10,2,13,9,-2,-8
1532146215070,80,24,20,4,6,7,3,11
1532146215075,-73,-29,-4,-8,-22,-21,-13,-35
1532146215080,-67,-39,-14,-13,-13,-8,0,6
1532146215085,96,47,15,8,0,4,9,25
1532146215090,-68,19,-8,-5,2,1,3,-3
1532146215095,-93,-83,-10,1,8,7,-9,-22
1532146215100,37,96,20,5,3,-2,9,29
1532146215105,-43,-38,2,5,2,5,-4,3
1532146215110,-71,-80,-45,-19,-8,-11,-3,-26
1532146215115,-14,61,10,2,1,-7,6,4
1532146215120,-85,-47,-15,-6,-3,-1,-1,-7
1532146215125,-12,26,4,0,-2,3,0,2
1532146215130,37,26,17,3,-2,-5,4,8
1532146215135,7,1,9,2,5,4,3,3
1532146215140,-9,-12,-2,-2,-7,-6,-3,0
1532146215145,-43,-17,-11,-4,-2,-2,-1,-8
1532146215150,3,-10,-8,-3,-4,1,-2,1
1532146215155,29,-37,-26,-3,10,9,-6,-4
1532146215160,18,36,28,12,3,-1,4,9
1532146215165,-11,-74,-37,-19,-22,-17,-9,-9
1532146215170,10,15,10,2,-5,-6,-10,-4
1532146215175,42,25,8,1,4,7,7,15
1532146215180,19,-20,-29,-4,7,9,8,2
1532146215185,-9,-42,3,-3,-5,-10,-7,2
1532146215190,1,-12,-11,0,0,3,-4,-6
1532146215195,33,65,11,11,11,12,9,5
1532146215200,1,42,22,10,-3,-7,2,4
1532146215205,-15,-3,-2,-7,-10,-12,0,1
1532146215210,-7,-26,8,-10,-1,6,-3,9
1532146215215,13,50,24,-1,-3,-4,15,8
1532146215220,16,14,-7,3,9,12,16,26
1532146215225,-17,-14,-10,2,6,17,-32,-50
1532146215230,12,-18,-20,-17,-9,-24,16,-1
1532146215235,-2,-7,-9,-2,-14,-13,-28,-37
1532146215240,21,8,7,-2,-6,-18,-27,-43
1532146215245,-40,24,13,15,4,-6,-10,-85
1532146215250,26,-10,10,5,2,13,26,79
1532146215255,-12,-27,0,-6,-4,-2,-9,15
1532146215260,27,10,-12,-5,3,12,27,32
1532146215265,14,-7,-11,-3,5,8,27,112
1532146215270,11,29,4,0,-3,-1,-34,-60
1532146215275,2,-20,3,3,-4,-8,0,-21
1532146215280,-15,-39,-9,-3,0,2,-6,17
1532146215285,21,4,0,0,3,4,10,7
1532146215290,26,12,2,3,1,7,3,16
1532146215295,19,-7,-4,-5,-7,-7,29,19
1532146215300,-5,-37,-5,-3,-2,-3,-36,-43
1532146215305,25,-11,-8,-5,-8,-11,3,12
1532146215310,21,22,6,7,4,5,0,65
1532146215315,-20,-8,1,-1,0,2,-45,-94
1532146215320,-23,-3,-5,-7,-11,-20,0,-1
1532146215325,22,-67,-9,-1,-1,-2,2,-9
1532146215330,-75,-9,0,3,3,4,7,27
1532146215335,24,-3,4,-1,2,1,6,14
1532146215340,2,-13,0,-1,0,-1,-1,-25
1532146215345,-1,41,0,-3,-3,3,3,2
1532146215350,0,0,2,1,-1,-3,-5,-22
1532146215355,9,-2,2,0,1,14,29,36
1532146215360,-11,-14,-2,-3,-3,-11,-8,1
1532146215365,15,2,-2,-1,1,-1,3,1
1532146215370,12,-1,1,1,-1,1,9,-18
1532146215375,-22,-6,1,1,0,6,11,22
1532146215380,-7,32,-1,-1,-1,-3,16,4
1532146215385,-20,9,-2,-1,3,-2,-20,-14
1532146215390,-9,2,-2,0,-3,13,19,-31
1532146215395,-44,-5,-6,-3,-5,-47,-66,-5
1532146215400,13,6,-5,-3,-1,19,-5,23
1532146215405,-10,-13,-3,0,3,7,24,34
1532146215410,-55,-2,2,-4,-5,-15,-40,-52
1532146215415,55,9,-5,2,3,7,26,53
1532146215420,-36,-20,-1,-2,-2,-2,-39,-83
1532146215425,-88,18,-6,-9,-11,-10,-4,-63
1532146215430,-62,-16,11,7,6,8,12,-18
1532146215435,71,-3,-3,1,1,-4,6,90
1532146215440,70,-10,0,1,0,-7,-8,-59
1532146215445,-45,-7,-2,1,2,3,-3,34
1532146215450,12,14,-2,-2,-2,-7,5,5
1532146215455,-64,-29,7,-2,-2,15,2,1
1532146215460,-21,15,-4,-2,-2,7,1,-28
1532146215465,65,44,7,2,0,-16,23,3
1532146215470,84,-6,-5,-3,-1,-5,-50,61
1532146215475,-1,-21,0,-1,-6,-10,-24,-80
1532146215480,-61,-8,-7,-8,2,20,15,49
1532146215485,66,2,0,3,0,-7,18,74
1532146215490,3,-20,-6,-4,-5,-26,-21,-68
1532146215495,-107,4,-7,-5,-4,14,37,-23
1532146215500,4,-11,-2,0,0,6,1,66
1532146215505,54,2,-3,-3,-4,-5,-24,-73
1532146215510,-18,13,1,1,2,11,34,92
1532146215515,35,5,4,2,2,3,-33,-48
1532146215520,-38,-5,-2,-2,-2,2,100,14
1532146215525,36,10,2,1,0,-10,-80,8
1532146215530,11,-6,-3,-1,-3,-8,45,-45
1532146215535,-28,8,0,1,2,12,-19,13
1532146215540,-9,15,0,0,-5,-13,1,0
1532146215545,-8,-20,-1,-2,-4,6,36,67
1532146215550,-22,3,1,4,6,11,-24,-57
1532146215555,5,18,2,4,7,13,26,23
1532146215560,28,-2,3,1,-1,-10,-7,74
1532146215565,-30,-9,-1,-1,-2,3,-4,-14
1532146215570,-26,6,-4,-3,-8,-13,-29,-47
1532146215575,62,11,-1,-4,-1,-2,9,-6
1532146215580,51,-9,2,5,4,2,-15,11
1532146215585,-128,-4,-5,-8,-10,-13,-4,23
1532146215590,28,3,-2,-1,4,11,24,90
1532146215595,10,-4,0,-2,-3,-9,-2,33
1532146215600,-86,-9,0,1,1,-4,-20,-86
1532146215605,30,-1,-1,-2,6,12,-6,-38
1532146215610,-11,1,-1,-1,-5,-10,-4,-18
1532146215615,12,2,3,2,2,-3,0,46
1532146215620,-18,-2,0,1,-1,10,12,16
1532146215625,7,0,0,2,5,5,34,18
1532146215630,-23,4,1,-2,3,6,-16,88
1532146215635,0,-2,-1,-2,-2,-12,-28,-74
1532146215640,27,0,-2,-2,-5,3,-19,-36
1532146215645,3,0,0,2,3,1,3,-54
1532146215650,49,-5,-3,-3,-2,4,11,62
1532146215655,-29,0,-4,-3,-5,-11,-7,-79
1532146215660,25,0,-1,1,-1,-6,3,59
1532146215665,33,-2,2,3,2,20,17,42
1532146215670,2,6,2,1,0,-15,-2,38
1532146215675,6,2,-2,-3,0,6,-3,-33
1532146215680,-20,-4,1,0,0,-3,-3,-28
1532146215685,-34,-12,-5,-4,-7,-20,-20,1
1532146215690,15,15,6,0,0,5,19,58
1532146215695,4,-4,-1,1,1,4,13,34
1532146215700,7,-6,10,-2,0,-2,3,75
1532146215705,60,20,-10,0,-1,-11,-19,16
1532146215710,-36,-17,2,4,6,13,-11,-128
1532146215715,5,9,-4,-3,-9,-16,9,66
1532146215720,19,3,4,4,7,14,11,18
1532146215725,-33,-12,-1,-5,-1,-1,-38,8
1532146215730,30,4,-6,-2,-2,0,30,32
1532146215735,6,-11,-3,-1,-5,-26,-53,59
1532146215740,-2,-1,-4,-1,1,-3,-55,-57
1532146215745,41,-11,-2,-3,-4,-22,18,34
1532146215750,-31,8,3,6,2,5,-73,-90
1532146215755,-4,-1,-3,-2,-2,9,31,58
1532146215760,51,16,9,4,4,6,23,69
1532146215765,-23,-21,-8,-11,-7,16,8,-68
1532146215770,-27,-5,-3,-5,-8,-16,-14,-81
1532146215775,-10,-6,5,4,5,7,25,77
1532146215780,77,2,-4,-1,-4,-15,-44,-20
1532146215785,-24,8,5,0,-1,8,38,67
1532146215790,67,2,2,3,8,32,17,-60
1532146215795,-20,-8,-10,-7,-8,-42,-38,-8
1532146215800,20,-8,-10,-4,-6,-23,-13,-24
1532146215805,19,7,6,3,-2,-59,-81,27
1532146215810,22,-13,-9,-6,-4,23,-34,86
1532146215815,-45,4,2,-4,-6,-11,-66,-21
1532146215820,-68,-29,-16,-6,-6,-5,3,52
1532146215825,-60,-10,-1,0,12,60,23,89
1532146215830,-77,10,2,1,2,-51,9,-13
1532146215835,62,44,12,-4,-15,-6,37,10
1532146215840,-68,-23,1,7,3,6,-23,-83
1532146215845,-34,-16,-13,-5,-4,12,37,16
1532146215850,29,41,17,12,10,22,2,-65
1532146215855,-17,-62,-13,-2,10,66,66,56
1532146215860,10,36,6,-5,-5,-76,-79,-37
1532146215865,4,-4,-7,-1,0,35,9,-12
1532146215870,2,10,9,13,13,14,40,82
1532146215875,16,-6,15,3,-6,-19,-49,-128
1532146215880,-82,-10,-4,-3,-6,33,41,105
1532146215885,37,7,2,8,17,8,32,40
1532146215890,-7,-7,-9,-16,-38,-14,6,-48
1532146215895,48,9,-2,5,34,9,19,116
1532146215900,-41,8,8,3,2,-1,24,-16
1532146215905,2,24,10,-1,-41,-23,-2,-22
1532146215910,5,-63,-14,-4,36,12,-4,10
1532146215915,-22,8,2,3,-3,9,33,22
1532146215920,8,8,-7,-6,-7,11,20,-19
1532146215925,21,22,10,-2,-9,-31,-30,-31
1532146215930,27,35,-9,-3,-9,10,10,63
1532146215935,-13,-48,-24,2,4,-7,-15,-83
1532146215940,22,-4,-13,-3,7,-8,-3,22
1532146215945,9,-10,6,3,1,27,43,84
1532146215950,0,15,11,-1,5,-12,-20,-87
1532146215955,-17,42,1,-4,-9,0,-32,1
1532146215960,22,-6,11,-1,-22,9,29,41
1532146215965,3,-3,11,7,18,16,4,-16
1532146215970,-3,56,84,-10,-15,-19,-1,3
1532146215975,-2,19,-38,11,-10,-11,7,-3
1532146215980,8,-68,-67,-16,1,17,12,21
1532146215985,-30,16,-14,2,-18,-35,-46,-128
1532146215990,8,-30,-16,6,41,-2,8,101
1532146215995,-13,39,49,5,10,7,10,-97
1532146216000,5,21,20,1,3,4,3,15
1532146216005,13,4,-7,-4,-6,5,10,65
1532146216010,-13,-28,-7,-4,-35,-21,-20,-101
1532146216015,8,9,1,-6,5,1,13,19
1532146216020,15,-5,-1,3,14,14,7,-7
1532146216025,1,-12,-9,-3,6,-11,-12,-9
1532146216030,14,-2,-19,-4,-8,5,13,44
1532146216035,-6,-12,1,2,1,10,0,5
1532146216040,-3,23,2,-5,-9,-8,-8,21
1532146216045,-19,-4,12,0,4,-4,-9,-21
1532146216050,-38,-10,-24,-8,-3,-6,-5,-21
1532146216055,-16,-1,-6,-9,-4,-3,5,12
1532146216060,-10,-8,12,4,9,-1,-7,-45
1532146216065,0,60,19,4,-58,7,8,20
1532146216070,-2,-41,-13,14,57,9,-1,7
1532146216075,-18,3,4,-3,-1,-6,-2,7
1532146216080,9,35,42,0,-3,11,12,-3
1532146216085,6,-21,-24,-6,-8,-11,-13,-13
1532146216090,5,-42,-24,-10,-34,-28,-10,2
1532146216095,14,23,-11,-1,10,23,14,35
1532146216100,6,-18,1,-3,-5,-10,-13,-18
1532146216105,-23,-19,1,3,17,3,6,-49
1532146216110,22,30,14,3,-6,5,8,26
1532146216115,28,-10,-3,-1,4,9,20,58
1532146216120,28,9,5,4,-1,10,18,79
1532146216125,-27,0,0,-3,16,-9,-29,-100
1532146216130,5,7,-4,1,-6,3,6,63
1532146216135,3,2,1,-1,-13,-3,-9,6
1532146216140,2,-20,-6,1,2,-3,6,23
1532146216145,23,3,2,0,15,4,7,17
1532146216150,-5,0,-4,0,-9,2,-2,-6
1532146216155,11,7,35,2,-1,-5,3,-24
1532146216160,2,80,3,5,2,-2,-2,-28
1532146216165,13,-81,-63,-13,8,-6,-7,-2
1532146216170,7,-9,-28,3,-6,2,3,27
1532146216175,-13,-24,-6,1,-1,-6,-11,-70
1532146216180,12,6,9,-1,0,-5,-5,-22
1532146216185,2,42,24,3,4,6,1,3
1532146216190,3,-12,0,-4,-7,1,7,22
1532146216195,9,-17,-10,-4,-3,-3,0,4
1532146216200,-12,-41,-12,-3,-2,-4,-9,-21
1532146216205,9,63,3,-2,4,-3,2,6
1532146216210,-7,-7,8,1,1,1,0,2
1532146216215,-22,-5,0,1,0,3,-1,-14
1532146216220,-32,-42,-6,-3,-6,3,-4,-16
1532146216225,0,29,9,4,8,-4,1,23
1532146216230,2,49,8,-4,-5,1,0,-5
1532146216235,-2,-91,-13,0,-6,-7,-13,-1
1532146216240,5,3,-7,2,4,3,15,2
1532146216245,-14,-41,4,0,-2,4,3,5
1532146216250,-8,2,-4,-2,5,1,-4,-9
1532146216255,9,121,2,-2,-1,-2,1,4
1532146216260,-5,-88,-4,0,3,0,-2,0
1532146216265,31,37,1,-1,-6,-6,-4,1
1532146216270,-1,23,1,2,16,4,-2,-11
1532146216275,-11,-68,-2,-4,-21,-12,1,7
1532146216280,17,68,-15,-5,32,-17,-11,-9
1532146216285,-3,-2,8,2,13,17,4,2
1532146216290,-8,-77,-8,-4,-48,-17,-13,1
1532146216295,1,59,-1,-2,45,8,2,-1
1532146216300,-12,-21,7,4,5,0,-1,-1
1532146216305,-20,-33,10,5,-17,-1,2,4
1532146216310,-15,-32,-6,-4,12,8,6,0
1532146216315,-3,-59,-14,-3,-10,-4,-1,0
1532146216320,24,55,-5,0,-22,-1,-7,-5
1532146216325,24,58,5,2,11,1,-2,3
1532146216330,-1,7,11,2,-12,-4,1,-3
1532146216335,-12,-34,-2,-4,-10,3,1,-1
1532146216340,-11,-5,-5,-1,0,3,-1,0
1532146216345,-27,-90,3,-1,-5,-2,3,2
1532146216350,20,-8,-9,-5,5,4,-3,-5
1532146216355,11,53,-2,-1,-1,-8,3,1
1532146216360,-10,13,4,-6,-4,2,-3,-1
1532146216365,32,97,-4,0,3,-10,-7,-1
1532146216370,4,9,4,2,5,1,0,1
1532146216375,1,2,1,2,-6,3,-1,2
1532146216380,-7,-12,6,2,-9,-2,2,2
1532146216385,-22,-70,-4,-2,2,2,2,0
1532146216390,4,25,-8,-5,-5,-3,-3,0
1532146216395,1,7,3,2,0,6,2,0
1532146216400,-13,-19,-4,-2,-1,1,1,-3
1532146216405,-5,-14,-8,-5,2,-2,1,-1
1532146216410,2,23,0,-1,0,-3,1,-1
1532146216415,-5,-8,1,0,0,-3,-3,0
1532146216420,-6,-14,-3,0,-3,-1,1,1
1532146216425,5,33,4,2,2,-2,0,3
1532146216430,-8,-19,5,2,0,-3,2,-4
1532146216435,-9,36,-1,-2,-1,2,-2,-1
1532146216440,4,-11,-7,0,-5,-3,-5,-6
1532146216445,2,-45,-5,-3,3,-2,0,0
1532146216450,-12,10,4,1,-1,-2,-1,-3
1532146216455,10,25,2,-2,7,-1,-2,-3
1532146216460,6,-15,-3,-1,-2,-4,-2,-2
1532146216465,-6,10,0,0,2,2,0,-2
1532146216470,7,13,0,0,3,0,-3,1
1532146216475,-6,-17,2,1,-6,-2,-2,-1
1532146216480,0,21,0,-1,-3,-2,-2,0
1532146216485,-1,-24,0,-3,2,2,0,0
1532146216490,1,0,-2,-1,6,4,1,-2
1532146216495,-2,-11,-6,0,-11,-3,-2,0
1532146216500,1,3,2,2,-3,-2,-1,1
1532146216505,-1,-6,1,-1,-2,-2,1,0
1532146216510,2,14,2,1,4,4,1,2
1532146216515,5,2,3,-3,0,1,-2,0
1532146216520,-1,-1,-7,-3,0,1,-1,0
1532146216525,1,4,7,-1,-4,-2,-3,-2
1532146216530,0,1,-1,0,-3,-5,0,-1
1532146216535,-4,-29,-6,-2,-2,-2,-1,-2
1532146216540,2,7,1,-2,3,2,3,0
1532146216545,-1,3,1,3,-1,-1,-2,0
1532146216550,2,-4,3,1,-3,-2,0,1
1532146216555,-2,-8,0,2,-6,3,0,1
1532146216560,-5,-8,2,-1,1,-3,-1,-1
1532146216565,0,7,-9,0,2,1,-2,-2
1532146216570,5,11,-2,-1,-8,-4,0,0
1532146216575,-1,1,0,-2,-2,0,1,1
1532146216580,0,3,2,-2,-4,0,-1,1
1532146216585,-6,-7,-1,-4,-1,-1,-1,-3
1532146216590,-2,-5,-4,-3,-6,-3,-4,-3
1532146216595,-3,-6,-2,-3,2,-2,-1,-1
1532146216600,-2,10,1,0,1,2,1,-1
1532146216605,3,-4,-2,-2,-4,0,1,1
1532146216610,-2,-1,-3,-1,-11,1,-4,2
1532146216615,-2,-6,0,-2,22,-3,2,-15
1532146216620,-2,4,3,1,-11,-3,-5,-2
1532146216625,-1,-3,-4,-2,-1,1,4,3
1532146216630,2,-7,-4,-5,-16,-6,0,34
1532146216635,-8,-7,-5,-5,0,-7,-11,-63
1532146216640,0,3,-3,-2,0,7,2,4
1532146216645,4,-5,-7,-2,2,-8,0,31
1532146216650,0,2,2,7,12,11,-6,-31
1532146216655,-4,28,37,6,-6,6,8,22
1532146216660,14,-14,-15,-1,-8,-13,0,21
1532146216665,8,-7,-6,-1,-4,-1,1,26
1532146216670,4,-9,-9,-5,3,-6,-4,-13
1532146216675,-22,-12,-11,-3,-2,-1,-11,-8
1532146216680,3,11,11,0,6,2,2,-2
1532146216685,12,4,3,2,4,9,20,85
1532146216690,36,2,7,1,1,-2,0,-22
1532146216695,-10,4,4,0,-1,-2,-8,-25
1532146216700,-16,1,1,6,-1,-11,-4,37
1532146216705,-4,-9,-12,-2,-5,-10,-1,-36
1532146216710,-3,4,-1,0,13,15,0,18
1532146216715,2,-7,-10,-2,-3,-6,-7,-48
1532146216720,-7,1,5,2,6,11,4,-1
1532146216725,-2,-1,1,-9,-17,-16,-2,-5
1532146216730,-8,1,3,-4,-9,-17,3,70
1532146216735,-3,-8,-7,-2,-9,-9,-14,-65
1532146216740,-13,-3,-5,-3,3,4,-7,-37
1532146216745,-6,2,6,5,11,13,-5,-13
1532146216750,-2,2,1,0,2,3,5,1
1532146216755,29,5,0,5,6,12,16,56
1532146216760,1,-3,-3,-2,6,3,-1,-4
1532146216765,-25,-7,3,0,-4,3,-4,-29
1532146216770,-9,-4,-3,-5,0,-5,-6,-26
1532146216775,15,-1,-2,12,25,51,22,50
1532146216780,16,9,4,-5,-21,-47,0,11
1532146216785,-34,-22,-18,-26,-42,-41,-34,-42
1532146216790,-13,-7,-5,-2,0,3,-8,-6
1532146216795,-3,-2,-3,-7,-13,-27,-10,-15
1532146216800,7,7,0,3,12,26,15,18
1532146216805,31,13,10,12,20,23,13,5
1532146216810,-43,-15,-4,-2,-3,-18,-4,-16
1532146216815,9,1,0,1,4,11,4,34
1532146216820,-1,-5,-1,0,-2,-1,-7,-8
1532146216825,11,7,3,1,1,-4,-3,-14
1532146216830,-11,4,14,15,6,6,1,-7
1532146216835,-9,-3,10,19,5,-6,1,15
1532146216840,9,9,7,11,-2,-2,2,-3
1532146216845,2,0,15,-28,4,-6,2,12
1532146216850,15,11,5,8,12,9,2,4
1532146216855,5,-14,8,4,-1,-2,-6,-7
1532146216860,21,80,-12,-19,-5,-7,-5,-8
1532146216865,-38,-61,-15,5,-10,-2,-2,-3
1532146216870,2,2,3,-7,-2,3,2,0
1532146216875,1,-35,-10,-6,3,-1,-1,-3
1532146216880,-2,-26,-7,0,-2,2,3,1
1532146216885,-1,1,-31,-18,-12,-3,1,6
1532146216890,8,50,19,-25,-2,-1,-6,-4
1532146216895,6,0,40,53,14,4,3,5
1532146216900,-35,2,9,16,10,5,-3,-1
1532146216905,0,9,0,8,0,-1,-1,5
1532146216910,-45,-5,-7,-11,-8,-4,-4,-4
1532146216915,12,14,-20,-16,-6,0,-6,-4
1532146216920,-10,-30,6,-6,-2,1,6,2
1532146216925,-20,-14,-7,-3,0,-2,-3,-3
1532146216930,18,-6,-12,1,-1,-4,-5,-4
1532146216935,-20,16,-5,-5,-2,-2,-3,-3
1532146216940,8,3,-4,-1,2,0,1,-2
1532146216945,15,20,10,7,1,-1,0,3
1532146216950,7,-27,4,6,0,2,3,-2
1532146216955,15,9,-2,0,2,4,5,2
1532146216960,3,-5,-3,-8,-1,-1,0,0
1532146216965,5,8,5,5,-4,0,-1,0
1532146216970,5,-4,-3,4,-1,1,-2,-1
1532146216975,11,8,0,-4,0,0,1,-1
1532146216980,19,-11,-5,-6,-4,0,-2,-1
1532146216985,22,0,2,3,0,-2,-1,0
1532146216990,11,-3,-2,5,2,-1,1,0
1532146216995,10,5,4,-1,0,1,0,-1
1532146217000,15,0,0,0,-1,-1,1,0
1532146217005,10,5,-5,3,0,-2,-3,0
1532146217010,-9,-7,-4,-2,-1,-4,0,-3
1532146217015,-8,5,1,0,-3,-1,1,0
1532146217020,-2,-6,-5,-12,-5,-4,0,0
1532146217025,1,-2,3,4,1,2,-1,0
1532146217030,0,-8,-2,0,2,-2,-2,-2
1532146217035,4,2,2,-2,2,-4,-3,1
1532146217040,4,-2,2,4,1,2,1,-2
1532146217045,6,-3,2,0,1,-3,-1,0
1532146217050,4,-6,-2,-1,-1,3,0,0
1532146217055,2,0,-4,-3,-3,-1,-2,2
1532146217060,2,-8,-4,-5,-3,-1,-1,-2
1532146217065,-1,-2,-2,-2,-4,-2,0,0
1532146217070,-4,-3,1,3,-3,0,-2,0
1532146217075,-5,2,-3,-3,-1,-1,-1,-3
1532146217080,-4,-2,-2,1,-2,0,-1,0
1532146217085,-3,0,0,1,-2,0,-2,-1
1532146217090,-6,1,-1,-2,-1,-2,-1,-1
1532146217095,-3,2,-1,-1,-1,0,0,-1
1532146217100,0,0,0,0,2,0,-2,-1
1532146217105,-3,0,-1,-1,-1,0,-1,-1
1532146217110,-2,-4,-2,-2,0,0,0,-1
1532146217115,-2,3,1,0,-2,-1,-1,-3
1532146217120,-3,-3,0,1,1,-2,-2,-1
1532146217125,-2,-1,1,-2,-3,-2,0,-1
1532146217130,-2,-5,-2,-2,-3,-1,-2,-1
1532146217135,1,-2,0,1,0,1,1,1
1532146217140,0,-2,-1,-3,-2,0,-2,1
1532146217145,-3,0,-1,-1,1,-2,-1,0
1532146217150,-4,0,-1,0,1,-1,-2,-1
1532146217155,-2,0,-1,-1,0,0,-1,0
1532146217160,-1,3,-2,-2,-2,0,-3,-2
1532146217165,-3,0,0,-1,-4,0,-1,-1
1532146217170,-2,1,-2,-2,-1,1,2,-1
1532146217175,-5,-1,1,-2,-3,-3,-2,0
1532146217180,-2,-1,0,-1,-1,-1,-1,-1
1532146217185,-1,0,0,0,0,1,1,0
1532146217190,-2,-2,-3,0,-2,-2,-1,-2
1532146217195,-1,-2,-3,-3,-1,-1,-1,-1
1532146217200,-1,1,2,1,4,0,-1,-2
1532146217205,-2,1,0,1,1,-1,0,1
1532146217210,0,0,4,-1,0,-1,-1,-1
1532146217215,-1,-1,-2,-1,-3,0,-1,0
1532146217220,-2,-2,-3,-6,-1,-4,-2,0
1532146217225,-1,0,-1,1,2,3,0,-1
1532146217230,-3,2,-1,0,-1,-3,-2,1
1532146217235,-2,2,5,6,2,-1,0,1
1532146217240,-3,-2,-1,1,-2,-1,-1,0
1532146217245,-2,-1,-7,-3,-1,-3,-1,-1
1532146217250,-2,-1,1,-1,0,1,-1,0
1532146217255,-2,1,-3,1,0,-1,-1,-2
1532146217260,-1,2,4,3,0,0,-1,0
1532146217265,-2,-1,0,-4,-3,-3,-1,-2
1532146217270,-3,1,-2,2,-1,-2,-1,-2
1532146217275,-1,3,1,0,0,0,-1,0
1532146217280,-1,-1,-2,0,0,-2,-1,-2
1532146217285,-2,0,0,0,-3,-1,-2,-3
1532146217290,-2,-6,-7,-8,-3,-2,-3,-4
1532146217295,-1,-3,-11,-6,-2,0,-1,0
1532146217300,1,3,2,0,1,0,1,-1
1532146217305,-4,3,11,8,3,1,0,1
1532146217310,-2,-1,1,-2,1,0,0,1
1532146217315,-1,-1,-3,0,0,0,-1,-3
1532146217320,-3,-2,-4,-5,-6,-1,-2,-1
1532146217325,0,-3,-9,-6,-4,-6,-1,-1
1532146217330,-2,2,5,3,0,-1,0,-1
1532146217335,-1,1,0,-1,1,0,-1,1
1532146217340,0,1,1,2,1,1,-1,3
1532146217345,0,-2,0,-5,-1,-1,-2,-3
1532146217350,0,-2,0,-1,-3,-3,1,0
1532146217355,1,-3,-5,0,2,1,-3,0
1532146217360,2,-2,-4,-4,-3,0,2,0
1532146217365,-2,2,6,2,1,-1,0,-1
1532146217370,-1,1,-1,-1,-1,-2,-1,-2
1532146217375,-2,-1,0,0,0,-1,0,0
1532146217380,-1,1,1,-1,-3,-1,-1,-1
1532146217385,-2,-4,0,-1,-1,-2,-1,0
1532146217390,-1,-5,-11,-2,-2,0,0,0
1532146217395,-1,1,0,-2,0,1,1,-1
1532146217400,-2,-1,3,-3,0,0,-1,5
1532146217405,0,2,7,1,-4,-2,1,-10
1532146217410,-1,2,4,4,-1,-1,-2,-1
1532146217415,1,2,5,0,2,1,1,1
1532146217420,0,6,-6,-2,-2,1,1,3
1532146217425,-2,-18,-9,-3,0,-1,-3,1
1532146217430,-1,-6,-9,-4,-2,-1,-1,-5
1532146217435,0,-3,-1,1,-4,-1,-1,-2
1532146217440,2,-2,-5,-2,-2,-1,-2,-2
1532146217445,1,2,-2,-5,-3,1,2,5
1532146217450,-5,6,12,6,3,0,0,0
1532146217455,-4,-2,1,-1,3,3,-1,-4
1532146217460,3,1,0,0,-2,-4,-2,-1
1532146217465,-3,-3,-4,2,3,0,0,4
1532146217470,0,0,0,-4,-3,-4,-1,0
1532146217475,-6,3,-2,-3,-3,-5,-3,-13
1532146217480,-4,-12,-6,1,1,1,0,9
1532146217485,-5,-1,-2,-2,-3,-3,-2,-14
1532146217490,-6,1,-3,-3,0,0,0,5
1532146217495,3,1,3,3,1,0,1,8
1532146217500,6,3,-1,-1,-13,-1,5,10
1532146217505,3,2,0,-1,11,4,0,9
1532146217510,0,-4,-7,-7,-6,-3,-9,-32
1532146217515,5,-4,-7,0,-3,-13,1,-8
1532146217520,-11,0,1,6,40,32,-5,-5
1532146217525,-3,-1,-2,-8,-22,-6,-6,-20
1532146217530,1,-1,-2,5,3,24,14,32
1532146217535,2,3,5,-3,-16,-30,-6,-15
1532146217540,-18,-2,1,-1,-2,-54,-12,-4
1532146217545,-11,10,10,7,15,-3,12,35
1532146217550,86,1,-10,-4,-5,-6,-5,11
1532146217555,-7,-7,-7,-3,2,20,4,-14
1532146217560,0,-7,-6,-3,0,-1,-5,-22
1532146217565,34,19,5,2,-2,4,0,-16
1532146217570,-75,-24,-8,-3,-9,-12,2,22
1532146217575,7,-19,-14,3,7,10,-1,9
1532146217580,60,2,-2,-10,-18,1,2,2
1532146217585,-51,-18,-3,2,-6,-10,-11,-12
1532146217590,17,5,2,-5,12,11,4,14
1532146217595,3,0,3,-2,-12,-5,-6,-5
1532146217600,6,-10,2,6,8,13,3,-6
1532146217605,25,15,7,3,10,9,4,4
1532146217610,3,14,3,-2,3,-5,-4,-10
1532146217615,-10,28,37,-3,-4,1,-1,2
1532146217620,-23,-7,-10,3,-15,-2,3,-9
1532146217625,-3,-21,-9,0,4,1,2,13
1532146217630,-40,-12,-9,1,-1,-6,-3,-17
1532146217635,-6,-2,-8,-3,5,3,0,8
1532146217640,8,11,13,0,1,5,4,1
1532146217645,-16,-9,-3,-3,1,1,-1,-4
1532146217650,-19,4,6,4,4,0,-4,-19
1532146217655,26,9,-1,1,3,3,2,21
1532146217660,-5,2,2,2,-3,-9,-2,15
1532146217665,-17,-8,-8,-3,-6,-3,-5,-28
1532146217670,38,14,4,-3,-4,-2,3,-1
1532146217675,-37,-13,-4,4,2,0,0,8
1532146217680,-17,8,-5,1,2,3,0,5
1532146217685,4,-8,-1,-4,-6,-4,-2,-1
1532146217690,1,-3,2,2,-3,-4,1,1
1532146217695,20,-4,-5,1,4,-1,-1,2
1532146217700,-1,10,-2,-2,-3,2,-2,-6
1532146217705,4,13,5,0,-2,0,2,6
1532146217710,2,-1,0,-1,-1,0,-3,-10
1532146217715,-4,-17,-11,-1,-1,0,-1,0
1532146217720,-3,-3,2,1,-4,2,-1,-3
1532146217725,-30,2,0,2,2,-3,-2,-6
1532146217730,37,-9,-2,0,-3,-4,-3,3
1532146217735,-28,13,0,0,0,0,1,-7
1532146217740,-8,-17,0,0,-3,2,-3,0
1532146217745,-7,4,-1,-1,-3,-1,1,5
1532146217750,18,-14,-8,-1,2,-1,-1,0
1532146217755,-5,6,1,-2,-5,-5,-2,-4
1532146217760,4,15,2,0,0,2,2,-2
1532146217765,-15,-12,-7,-2,0,-1,1,6
1532146217770,24,-9,2,-2,-13,-4,0,-2
1532146217775,17,11,1,0,7,-2,0,3
1532146217780,-6,14,-2,-3,-1,-1,1,-1
1532146217785,7,-3,0,0,-1,1,-1,2
1532146217790,-28,4,0,-2,2,-2,-1,-1
1532146217795,16,-12,-1,3,-1,1,0,-2
1532146217800,1,3,-2,-2,-2,0,-2,-2
1532146217805,18,12,3,3,5,1,2,5
1532146217810,-73,10,-4,-1,0,-2,-5,-17
1532146217815,9,-21,-6,-4,-3,-1,-2,6
1532146217820,0,-5,0,-3,1,1,0,0
1532146217825,1,1,-2,1,1,-3,-6,-1
1532146217830,20,4,3,0,-2,1,3,6
1532146217835,-24,-2,-4,-3,-2,2,-1,-5
1532146217840,37,2,0,0,-2,-2,-1,-2
1532146217845,-37,-8,-6,-5,-5,-1,-1,-2
1532146217850,-8,-6,-3,-3,-3,2,2,-1
1532146217855,0,11,7,7,14,-4,0,-3
1532146217860,33,-12,-4,-2,-9,-2,-3,-2
1532146217865,8,-4,-3,-2,-5,-4,-4,-5
1532146217870,-24,14,1,0,4,-2,-4,-5
1532146217875,15,2,-1,-2,-8,0,3,7
1532146217880,-10,-6,0,2,1,-3,-1,0
1532146217885,5,-12,-3,-2,-1,-4,-1,-3
1532146217890,-58,14,2,-3,2,1,-2,-6
1532146217895,12,-22,-7,-1,-2,2,-2,-6
1532146217900,-19,-8,-8,-2,3,-5,-5,4
1532146217905,11,0,-2,0,-4,3,2,-1
1532146217910,56,-5,-4,-4,1,1,3,9
1532146217915,5,9,4,0,-1,-3,-2,-2
1532146217920,8,9,20,-6,-19,-3,1,2
1532146217925,11,2,-4,5,3,1,-2,7
1532146217930,-42,-7,-2,2,4,-2,-6,-26
1532146217935,-61,-5,-2,-1,-3,1,2,0
1532146217940,9,-7,-8,-1,6,3,1,-11
1532146217945,65,10,3,-4,-3,-3,-1,14
1532146217950,15,13,3,2,-4,-3,-3,-3
1532146217955,-4,-10,-3,-4,-2,-1,-5,-12
1532146217960,-10,2,-1,0,3,2,3,11
1532146217965,-9,-7,2,0,-1,-1,0,-4
1532146217970,18,3,-5,0,4,1,1,10
1532146217975,28,17,4,-3,-10,0,1,0
1532146217980,41,-10,-2,4,9,-3,0,3
1532146217985,5,-8,-2,-2,-10,-6,-5,-8
1532146217990,-8,-14,-3,-1,6,0,0,3
1532146217995,16,9,-2,-1,5,-2,-1,4
1532146218000,-20,0,0,-3,-2,1,5,4
1532146218005,-4,-3,-5,-1,-2,2,-1,-9
1532146218010,-28,-9,-2,-2,-4,-2,0,-16
1532146218015,7,1,-3,3,-1,-2,-6,2
1532146218020,38,3,-6,0,0,2,-2,-11
1532146218025,54,12,5,1,3,2,8,28
1532146218030,-46,-19,-3,-4,-3,-7,-13,-33
1532146218035,-3,-11,-5,-4,-13,-8,1,1
1532146218040,-40,-1,6,6,5,-3,3,14
1532146218045,8,5,3,-1,4,4,2,5
1532146218050,-7,-2,1,-1,-5,-3,-8,-15
1532146218055,-15,-1,-2,-1,2,3,2,-1
1532146218060,3,-2,-4,-4,-1,-2,-6,-14
1532146218065,-21,-2,3,1,0,0,2,10
1532146218070,40,13,1,2,-3,1,5,22
1532146218075,4,2,-2,-1,5,3,-3,2
1532146218080,-5,2,-3,-2,-2,2,0,-2
1532146218085,29,2,0,0,4,0,-1,-7
1532146218090,-19,-8,-1,3,-2,12,30,10
1532146218095,25,-5,-3,-4,-7,-20,-42,-8
1532146218100,15,-1,-4,-1,3,8,4,26
1532146218105,-19,-3,7,5,6,-1,-7,-35
1532146218110,-30,4,4,0,-7,-3,-9,17
1532146218115,50,-8,-8,-7,-6,1,11,-26
1532146218120,-54,-23,-4,-1,5,1,0,-23
1532146218125,-18,5,-8,-8,-9,-4,-12,9
1532146218130,31,-3,-2,2,5,6,22,9
1532146218135,-29,3,6,4,12,18,1,-4
1532146218140,-12,5,2,-1,-3,28,-7,-1
1532146218145,12,1,-4,-4,-11,-31,24,1
1532146218150,-31,-6,-4,-4,-2,1,3,3
1532146218155,-31,6,-6,-3,-8,-10,9,12
1532146218160,-34,-17,3,-1,1,-19,-8,-5
1532146218165,-93,2,1,6,5,11,-6,-19
1532146218170,94,-45,-6,1,4,8,4,-25
1532146218175,-64,-16,13,8,6,-12,-24,-4
1532146218180,43,28,2,0,-2,-15,26,-1
1532146218185,-59,30,-4,-6,-3,0,-50,16
1532146218190,-1,14,2,0,-2,-8,-28,21
1532146218195,64,-8,-3,0,-3,35,32,-34
1532146218200,28,-8,2,1,0,-9,-37,-5
1532146218205,40,-12,-5,-4,-2,4,15,7
1532146218210,10,15,-2,-3,2,-1,9,-3
1532146218215,-48,-2,-4,-7,2,7,18,-2
1532146218220,-36,-1,0,-3,-1,4,-9,6
1532146218225,69,-5,-2,-3,-9,-31,-23,-9
1532146218230,-7,-7,-2,-1,0,-6,-22,7
1532146218235,38,18,3,3,2,-25,15,16
1532146218240,0,-1,-2,-2,-2,12,13,-13
1532146218245,12,-15,-1,-3,0,5,-6,-3
1532146218250,-1,27,7,5,3,-6,15,14
1532146218255,29,-10,-2,-1,3,18,-8,2
1532146218260,-13,-19,-11,-5,-7,-6,-8,-7
1532146218265,-41,-18,-8,-3,0,7,14,-6
1532146218270,16,8,-1,-2,-5,-26,-54,-22
1532146218275,4,11,3,2,0,15,29,29
1532146218280,48,36,5,4,1,11,29,34
1532146218285,-8,-9,7,7,-5,-3,27,16
1532146218290,-18,-16,3,-2,12,4,-38,-58
1532146218295,-26,-7,-9,-4,-18,-9,-24,-2
1532146218300,-21,-8,-2,-4,-5,-8,7,-7
1532146218305,-8,-3,-6,-1,1,12,5,2
1532146218310,15,28,25,-5,-3,6,18,21
1532146218315,-56,-8,-2,2,5,-6,-12,-5
1532146218320,-5,-12,7,15,3,-5,-5,-6
1532146218325,32,78,20,11,3,4,-2,2
1532146218330,-10,-51,-13,0,-5,3,6,13
1532146218335,47,-18,-4,-8,-1,-8,7,9
1532146218340,5,34,-4,2,10,4,4,10
1532146218345,0,23,-4,-7,-3,-2,-10,-12
1532146218350,10,3,-5,-3,-3,-1,15,4
1532146218355,-20,-18,-12,-9,-13,-8,-13,-13
1532146218360,-1,-15,-8,1,5,-8,-10,-4
1532146218365,22,-7,15,5,3,7,4,-2
1532146218370,-24,6,7,1,-6,2,12,5
1532146218375,22,-1,-11,-6,4,0,-9,2
1532146218380,4,0,15,-3,-8,-1,-2,-4
1532146218385,2,-2,-6,13,6,1,4,-1
1532146218390,-20,-2,-4,1,1,3,2,3
1532146218395,-36,-13,-9,-1,1,-5,-8,-2
1532146218400,-8,0,-9,-14,-7,1,1,-8
1532146218405,-1,-8,3,-9,1,5,3,-4
1532146218410,11,5,-8,2,0,1,6,10
1532146218415,-73,1,0,-2,4,-10,-9,-6
1532146218420,-3,1,-1,1,-2,-5,-1,-7
1532146218425,-49,-31,-2,-4,0,1,1,3
1532146218430,17,7,0,-1,2,-2,1,9
1532146218435,68,24,21,-1,-2,-6,5,2
1532146218440,-66,21,5,-4,0,-3,-2,-8
1532146218445,14,-21,-29,3,-7,9,2,16
1532146218450,-40,-25,-27,-1,3,2,-3,-4
1532146218455,7,14,3,4,-3,6,3,16
1532146218460,-18,-7,-12,7,-2,-2,-1,-1
1532146218465,11,13,13,16,11,12,8,20
1532146218470,-21,-19,-12,-9,-4,1,-10,-4
1532146218475,-54,-12,1,-13,-1,-10,5,-8
1532146218480,21,15,-3,-3,1,-5,-3,-3
1532146218485,18,-1,-1,4,1,-5,-8,-13
1532146218490,21,0,10,0,-1,6,5,7
1532146218495,-8,19,18,-14,0,3,-3,-7
1532146218500,-41,-56,-70,-7,-10,-4,0,-1
1532146218505,21,-44,-25,-7,-1,1,-1,-3
1532146218510,19,20,-23,2,-1,-1,2,1
1532146218515,-16,-98,7,10,8,6,6,17
1532146218520,-44,106,68,18,2,3,6,-10
1532146218525,5,-3,-20,-10,4,-3,-4,10
1532146218530,10,-7,-2,-9,-5,1,2,-4
1532146218535,67,30,-1,-12,-16,-15,-8,-12
1532146218540,10,-15,3,-5,-9,6,5,1
1532146218545,-42,-20,17,10,7,-1,-4,-4
1532146218550,6,16,20,4,12,-6,6,1
1532146218555,-64,-3,-5,-7,-5,1,-12,-25
1532146218560,-18,-74,-7,-11,-12,-5,-10,-50
1532146218565,18,52,-25,-7,11,-7,-2,-3
1532146218570,12,9,-19,5,-2,-8,-14,10
1532146218575,10,21,1,12,7,3,2,-5
1532146218580,75,8,12,-14,-2,3,10,18
1532146218585,-10,-47,4,-13,-9,4,-3,-21
1532146218590,-90,46,69,8,-1,7,23,53
1532146218595,15,-54,-46,26,8,7,8,47
1532146218600,36,29,6,1,-4,-13,-29,-54
1532146218605,-12,12,-9,-4,-6,-1,4,-26
1532146218610,99,17,-18,-18,-13,-8,-15,-9
1532146218615,42,26,1,-8,-13,-7,0,13
1532146218620,-18,-10,9,-3,-9,14,13,36
1532146218625,-43,-10,-7,2,-1,8,3,10
1532146218630,-26,-21,0,13,1,-3,-2,-16
1532146218635,-57,-28,-19,-15,3,0,1,-12
1532146218640,6,61,-14,10,5,-17,-1,10
1532146218645,-15,11,-2,4,-10,3,-8,-1
1532146218650,-1,-67,-20,-23,-4,0,-2,-6
1532146218655,3,27,-39,7,9,-2,-5,-18
1532146218660,0,2,47,11,5,4,11,14
1532146218665,4,1,35,10,6,-2,-1,8
1532146218670,-13,-83,-54,5,4,-1,-7,-8
1532146218675,-29,-2,-13,-17,-5,-6,-7,-9
1532146218680,-1,1,-24,-14,-4,1,-1,8
1532146218685,2,4,1,-6,6,0,1,-3
1532146218690,6,26,35,4,-5,2,-3,-13
1532146218695,3,2,20,1,0,0,1,-7
1532146218700,18,-17,-11,1,14,1,-2,9
1532146218705,27,9,21,2,0,9,2,2
1532146218710,0,1,-23,-6,-10,-3,-3,-8
1532146218715,11,15,8,8,-1,-7,-2,2
1532146218720,8,-2,14,-3,-4,-2,-4,2
1532146218725,2,2,-20,-4,6,1,2,2
1532146218730,4,20,4,11,-11,3,8,-6
1532146218735,-2,-1,16,-5,-9,8,-6,-6
1532146218740,3,-3,-3,-2,10,5,0,5
1532146218745,-5,-13,-9,-8,-13,-10,-1,3
1532146218750,9,10,6,12,2,11,11,36
1532146218755,5,12,23,1,-30,-4,7,35
1532146218760,-29,-8,-6,1,-16,-10,-27,-91
1532146218765,-2,18,15,3,-6,-1,-5,7
1532146218770,-6,-10,-4,-5,26,1,-5,-24
1532146218775,-3,-12,-8,1,15,-1,7,17
1532146218780,13,10,-16,-7,-2,8,11,29
1532146218785,18,3,3,2,1,-3,-4,-12
1532146218790,-3,-26,13,3,10,0,2,5
1532146218795,7,6,0,-4,6,-2,-4,-11
1532146218800,1,-7,-6,-6,2,0,5,12
1532146218805,24,66,3,2,2,-2,0,-5
1532146218810,12,11,-4,1,10,-5,-7,5
1532146218815,-22,-16,-1,3,-10,-6,-4,-15
1532146218820,0,-21,0,2,13,-6,8,4
1532146218825,-12,-1,-1,-1,-20,2,2,13
1532146218830,0,-7,-1,-7,-5,0,-7,-6
1532146218835,4,-15,2,1,7,2,19,-10
1532146218840,-10,-10,3,-2,4,-1,-49,2
1532146218845,5,-11,-1,-1,7,3,9,11
1532146218850,-7,12,4,3,6,1,-1,-7
1532146218855,11,-6,-1,0,4,-2,-11,-5
1532146218860,33,10,-1,-6,-9,-1,19,16
1532146218865,3,-17,-7,2,4,2,0,22
1532146218870,5,2,-2,0,-5,-3,-14,-74
1532146218875,-5,31,24,-3,0,-6,11,21
1532146218880,73,6,-15,-8,-11,-1,13,49
1532146218885,-65,-31,-14,-16,-7,-9,-18,-48
1532146218890,-18,10,9,19,6,11,1,15
1532146218895,-8,9,10,18,15,0,-3,0
1532146218900,35,15,11,1,-6,-6,-9,-20
1532146218905,-14,0,2,-11,-4,-6,9,31
1532146218910,-21,-15,-11,5,-15,-13,-7,6
1532146218915,-1,17,6,1,7,6,-3,-12
1532146218920,-6,-1,8,10,8,5,21,72
1532146218925,27,-12,-24,-35,-2,7,-4,-20
1532146218930,-21,-16,-38,-26,-12,-13,-20,-86
1532146218935,78,23,50,3,8,6,4,12
1532146218940,-104,49,38,28,17,4,1,-21
1532146218945,49,-68,-10,17,14,4,8,43
1532146218950,15,-34,-10,-23,-2,7,19,75
1532146218955,-23,-18,-50,-25,-23,-20,-35,-84
1532146218960,15,53,3,-16,-8,-5,-3,-11
1532146218965,-13,4,3,-2,-3,-3,0,-13
1532146218970,10,-10,9,16,-1,5,11,46
1532146218975,-12,1,22,-1,-1,7,11,22
1532146218980,-1,-68,-29,10,6,6,1,-26
1532146218985,-14,24,3,8,-7,-5,-1,-6
1532146218990,41,-19,-1,-1,-4,-1,2,3
1532146218995,-21,-16,-7,-6,0,6,3,15
1532146219000,2,18,2,-19,-9,-1,6,36
1532146219005,20,46,41,12,-1,-4,-10,-41
1532146219010,-7,39,-31,0,1,-7,-12,-29
1532146219015,-19,-1,3,16,8,-1,-11,-41
1532146219020,-8,-31,-17,-5,-7,-6,5,24
1532146219025,18,-35,-8,-3,1,6,12,35
1532146219030,-56,19,37,4,0,-8,-3,7
1532146219035,3,26,-17,-15,-5,-4,11,72
1532146219040,34,8,40,18,6,14,0,-4
1532146219045,-41,-38,-48,3,0,-17,-26,-72
1532146219050,24,48,0,4,-4,-2,-4,-15
1532146219055,23,-2,-30,-11,7,3,-1,-1
1532146219060,-20,-28,-11,-19,-7,-4,-2,17
1532146219065,-3,22,21,12,-8,-1,13,26
1532146219070,-4,-20,5,8,4,4,5,2
1532146219075,-27,-59,1,-1,-4,-1,-1,3
1532146219080,-3,-49,1,-6,-1,3,4,-12
1532146219085,11,77,-4,-8,-2,-3,-7,-17
1532146219090,20,-28,-14,2,0,-5,1,21
1532146219095,17,58,13,6,3,6,5,7
1532146219100,-16,7,-6,-2,-1,-8,-20,-48
1532146219105,-3,-26,-3,-1,0,0,4,9
1532146219110,-2,-4,17,-12,-4,2,5,5
1532146219115,-6,-3,-2,2,-2,1,2,11
1532146219120,-12,18,-14,10,0,-1,5,19
1532146219125,-18,-57,-40,3,1,-8,-22,-81
1532146219130,18,16,25,-2,1,-2,5,25
1532146219135,-1,-46,-25,-3,-1,1,2,-6
1532146219140,-30,80,8,-3,-1,-6,-6,0
1532146219145,0,-1,17,4,-4,6,13,21
1532146219150,-1,6,5,-1,3,6,-4,-17
1532146219155,-12,-6,-3,-2,-1,-3,-3,-30
1532146219160,6,-30,-16,-2,-1,1,7,8
1532146219165,6,17,24,3,1,3,2,19
1532146219170,-10,0,-11,-5,-5,-5,4,4
1532146219175,6,2,8,3,-1,0,-1,14
1532146219180,14,-1,-3,7,7,3,3,-8
1532146219185,2,5,16,-5,4,1,-5,3
1532146219190,-20,3,-7,0,-4,-3,-3,-3
1532146219195,10,-5,-6,0,-8,-8,-9,-1
1532146219200,20,-27,-15,-6,-4,-3,5,5
1532146219205,-25,-9,-1,-6,-13,-21,-16,-13
1532146219210,24,17,7,5,9,23,4,25
1532146219215,-13,4,-2,4,2,1,-2,-33
1532146219220,-17,-16,-2,-4,-2,1,6,-11
1532146219225,33,13,11,5,1,-3,6,70
1532146219230,-17,3,-5,-7,-9,-6,-14,-72
1532146219235,-13,-7,-12,-7,1,4,-12,-30
1532146219240,52,-3,6,-5,-3,-3,4,4
1532146219245,-64,10,17,25,13,8,6,27
1532146219250,16,2,0,-3,0,-1,-1,36
1532146219255,1,21,22,-10,-12,-8,4,-14
1532146219260,-11,-5,-20,-6,-3,-6,-21,-35
1532146219265,11,-66,-74,-4,6,2,3,12
1532146219270,-2,-22,-10,0,2,-3,5,18
1532146219275,-14,-13,-6,-2,0,1,-1,9
1532146219280,68,41,35,-7,-4,3,3,32
1532146219285,-70,20,7,3,-1,4,-1,-58
1532146219290,-31,-30,10,-6,-6,-5,-7,-17
1532146219295,15,11,-23,5,2,-3,1,8
1532146219300,-34,13,9,2,-2,-6,-10,-19
1532146219305,60,21,-40,-3,1,3,-2,26
1532146219310,21,-16,-1,-6,-3,-6,4,8
1532146219315,-17,44,42,-4,-4,3,6,-7
1532146219320,-11,-100,-34,-16,-4,2,-13,-21
1532146219325,-39,23,6,11,2,-3,-4,-2
1532146219330,14,43,4,2,3,1,-5,-14
1532146219335,39,12,6,3,2,-4,5,19
1532146219340,-11,5,-5,4,-1,2,3,-16
1532146219345,32,-5,26,-10,-5,6,21,60
1532146219350,2,12,1,-1,-2,-1,-12,-23
1532146219355,-20,7,-17,6,4,4,-6,10
1532146219360,-4,-5,5,6,1,-1,-2,3
1532146219365,7,17,6,-7,-7,-3,-9,-6
1532146219370,-12,0,4,1,4,5,19,18
1532146219375,7,-20,1,4,4,0,-1,10
1532146219380,-29,5,-7,-2,-11,-6,0,-32
1532146219385,25,-5,17,3,5,1,-3,-8
1532146219390,-4,-14,-8,-5,11,19,9,29
1532146219395,5,-12,-10,-2,-48,-6,-4,3
1532146219400,-5,5,-1,9,91,20,6,34
1532146219405,-16,-6,6,-12,-33,-45,-30,-62
1532146219410,12,6,2,5,42,-1,3,-2
1532146219415,-5,-7,-6,-2,-30,9,-1,19
1532146219420,-18,0,0,-7,-28,-14,-13,-11
1532146219425,7,-4,-1,-6,-3,5,15,-33
1532146219430,-3,-4,-15,-11,-4,-11,-13,11
1532146219435,1,-13,4,11,28,-6,-2,-9
1532146219440,9,7,8,13,-9,-4,2,-4
1532146219445,-45,21,16,-2,9,11,4,-11
1532146219450,-3,-45,-52,-6,-24,-12,2,13
1532146219455,35,-27,-13,-6,18,0,3,-18
1532146219460,2,18,27,2,-10,6,9,26
1532146219465,3,-5,-11,-7,1,4,-3,-17
1532146219470,23,-29,5,7,-6,0,0,-30
1532146219475,-21,16,-33,-1,9,0,-9,4
1532146219480,7,34,2,1,-4,-7,0,-3
1532146219485,10,28,49,-2,-3,9,10,38
1532146219490,13,-90,-58,-4,-3,-2,3,39
1532146219495,-12,50,59,-10,1,1,7,-81
1532146219500,-30,-34,-39,1,-14,-7,-10,-25
1532146219505,0,-5,31,3,10,5,10,21
1532146219510,-25,43,11,2,-15,-3,-14,-21
1532146219515,-1,-19,-4,2,9,0,9,71
1532146219520,-6,18,12,-1,-3,5,-2,-19
1532146219525,1,-33,-21,-2,-2,0,-13,-44
1532146219530,-19,18,13,-1,-7,-11,7,-13
1532146219535,-13,-13,-5,1,23,1,8,20
1532146219540,25,-11,4,1,-47,23,-3,22
1532146219545,11,-1,-28,-10,-12,-24,-16,15
1532146219550,8,23,18,8,20,22,2,11
1532146219555,-2,-19,-4,-4,8,21,0,-6
1532146219560,10,-9,-8,-12,-61,37,29,-2
1532146219565,0,4,-6,1,25,-35,-21,-13
1532146219570,-8,23,12,-3,-23,-42,10,6
1532146219575,1,-13,-13,-7,-26,15,-21,-14
1532146219580,-14,-10,-7,1,37,-5,-10,-24
1532146219585,20,7,1,8,11,33,31,32
1532146219590,7,15,13,0,-2,15,1,14
1532146219595,-3,-6,-9,5,10,-10,-9,-22
1532146219600,-7,-1,6,0,20,-5,17,41
1532146219605,34,31,4,2,-4,0,3,-12
1532146219610,11,18,17,-13,-3,1,-6,-33
1532146219615,-54,-106,-90,2,-7,-11,-11,3
1532146219620,23,-5,9,-1,8,-26,-12,-5
1532146219625,-85,-51,5,-1,-9,13,4,21
1532146219630,59,55,28,-8,-6,0,-6,10
1532146219635,45,66,74,6,-2,-4,13,-28
1532146219640,33,77,-18,-6,-1,-6,4,-1
1532146219645,-25,-90,-77,-4,-1,3,-10,1
1532146219650,-53,-35,-32,3,3,8,1,2
1532146219655,-41,14,11,1,10,-11,-8,38
1532146219660,48,25,35,7,8,-3,1,-22
1532146219665,15,2,28,-2,-7,7,10,20
1532146219670,-11,6,-3,1,-1,3,-1,-11
1532146219675,51,8,3,-11,-11,-1,-7,12
1532146219680,-26,-29,14,3,9,97,23,18
1532146219685,16,20,-14,-12,-11,-100,-14,5
1532146219690,-18,-23,-4,9,-2,36,-9,-2
1532146219695,63,37,18,5,-36,-58,22,46
1532146219700,-22,-36,-14,-9,51,84,0,-17
1532146219705,7,12,-10,-8,-55,-60,-71,-22
1532146219710,12,10,3,-6,-21,18,32,24
1532146219715,32,-4,1,-1,4,20,-1,-15
1532146219720,-67,-6,-11,2,-17,-18,8,12
1532146219725,31,28,17,9,33,32,27,-3
1532146219730,-17,-1,8,3,18,-17,-17,-18
1532146219735,56,5,-4,-1,-7,3,10,-7
1532146219740,-65,-18,-11,-2,6,-55,-5,1
1532146219745,-26,7,6,1,12,34,-2,-8
1532146219750,45,3,3,1,-6,-26,-2,-5
1532146219755,-76,43,23,-19,-13,30,14,-8
1532146219760,-55,-69,22,21,18,-47,-13,4
1532146219765,87,116,18,7,12,16,13,22
1532146219770,-44,-19,-26,-8,-7,16,6,-13
1532146219775,29,13,-16,1,11,-25,-15,-9
1532146219780,21,8,14,2,11,-28,-16,-16
1532146219785,-21,-10,13,4,-7,26,16,-9
1532146219790,29,18,10,0,16,0,7,36
1532146219795,-25,-27,3,-3,1,3,-10,4
1532146219800,0,2,-19,-11,-18,-4,7,-50
1532146219805,13,-5,-12,-3,0,11,-10,-37
1532146219810,9,-11,5,4,4,-30,-13,0
1532146219815,-41,-35,-15,6,9,58,13,-10
1532146219820,29,22,-11,-17,4,-87,-34,13
1532146219825,24,-6,2,10,12,82,50,21
1532146219830,-18,5,9,-5,-4,-10,-42,-8
1532146219835,-20,-8,-6,2,3,-92,8,7
1532146219840,29,19,-10,-6,-31,-5,-35,3
1532146219845,-12,-28,-3,-8,-43,-8,7,7
1532146219850,2,2,23,17,77,5,17,-1
1532146219855,4,-27,-4,7,29,30,5,-9
1532146219860,-42,10,4,1,-19,6,11,11
1532146219865,-23,-58,-54,-20,13,4,-5,-13
1532146219870,12,7,-15,-14,-40,1,3,-13
1532146219875,-77,-34,13,6,20,-4,-6,-5
1532146219880,9,24,28,21,26,8,3,7
1532146219885,11,50,21,5,-3,-16,-10,9
1532146219890,-53,21,8,-5,-12,2,9,-8
1532146219895,19,-71,-42,-16,-25,-8,-18,-4
1532146219900,-26,-113,-46,-13,-18,12,19,24
1532146219905,21,82,21,12,12,-18,-4,-3
1532146219910,60,33,-12,4,-10,-8,-11,6
1532146219915,-45,16,14,0,1,14,-6,-37
1532146219920,71,54,23,14,42,16,9,-18
1532146219925,-101,-105,-32,-22,-43,-16,-12,-25
1532146219930,-64,-34,-1,-6,-26,-3,12,-1
1532146219935,-13,51,11,5,0,6,-39,2
1532146219940,30,53,-1,-8,-20,3,7,25
1532146219945,35,57,21,10,24,11,8,16
1532146219950,-53,-44,-35,-13,-4,-19,-15,-9
1532146219955,56,25,0,6,-11,-6,-1,8
1532146219960,6,-43,-11,-4,-25,-14,4,-4
1532146219965,45,21,24,5,9,3,9,15
1532146219970,6,-39,7,12,-2,8,5,-16
1532146219975,30,-4,-8,-3,2,5,2,6
1532146219980,42,60,7,0,-5,3,-3,-2
1532146219985,17,25,-12,-11,0,10,0,-13
1532146219990,23,-12,52,-11,0,15,5,2
1532146219995,43,57,-12,18,18,10,30,75
1532146220000,-8,-95,-54,-4,2,0,-22,29
1532146220005,-37,-26,-4,-7,-3,-4,-20,-56
1532146220010,0,-22,-26,-4,-4,3,1,23
1532146220015,3,31,73,-8,-8,-2,7,-2
1532146220020,8,70,15,19,-2,0,15,32
1532146220025,-39,-108,-23,7,13,11,4,28
1532146220030,46,-10,0,3,-4,-2,-1,-17
1532146220035,-36,4,-26,-13,-8,-12,-13,-14
1532146220040,-7,80,-4,-9,-1,-7,-7,-18
1532146220045,12,-9,23,-1,-3,-6,-2,-6
1532146220050,5,5,-1,6,2,-1,6,-6
1532146220055,17,-39,-11,-8,-2,13,10,1
1532146220060,0,-85,-52,-6,-30,-4,-4,-17
1532146220065,26,72,6,9,-7,-2,-2,9
1532146220070,0,35,-11,1,4,2,9,16
1532146220075,19,26,15,19,21,0,-10,-14
1532146220080,-38,-85,24,-11,-5,3,-1,-19
1532146220085,-1,-13,-12,-3,-1,1,7,20
1532146220090,3,40,28,3,7,2,5,27
1532146220095,-19,-36,-22,-12,-13,-3,-9,-27
1532146220100,-14,34,5,4,7,-2,3,-23
1532146220105,-27,-30,7,6,12,0,-8,-66
1532146220110,-16,-13,12,-16,-13,-13,-7,-7
1532146220115,-13,20,-18,4,8,6,8,18
1532146220120,7,-19,-2,2,-3,-2,0,25
1532146220125,11,-7,4,0,19,-3,4,37
1532146220130,8,4,-8,-2,-65,10,-12,-34
1532146220135,7,1,4,-15,-5,-14,1,-12
1532146220140,28,51,5,-2,7,6,3,19
1532146220145,-12,-29,-21,-8,-6,-8,0,10
1532146220150,23,9,-2,6,24,3,-4,8
1532146220155,-12,9,-6,1,1,3,1,-1
1532146220160,39,-3,16,0,-4,4,7,-12
1532146220165,-3,-26,1,-4,8,-8,-6,5
1532146220170,-16,18,-9,-2,21,8,6,-2
1532146220175,10,-15,-19,9,-19,-13,-8,30
1532146220180,-43,-14,-3,-5,6,-3,4,-23
1532146220185,51,25,3,1,-4,3,-8,-28
1532146220190,-68,-31,5,-3,3,-2,5,-38
1532146220195,-5,-29,7,-5,-7,1,6,4
1532146220200,-22,3,-16,13,0,1,-9,3
1532146220205,10,-30,-71,-6,-6,-1,5,35
1532146220210,-1,9,-65,7,4,-6,-5,6
1532146220215,-25,-36,-24,-7,1,-1,2,21
1532146220220,7,-7,36,-10,-3,-3,6,41
1532146220225,-7,1,24,-2,-6,2,-9,-29
1532146220230,29,21,38,0,-4,-12,-6,-40
1532146220235,-11,-2,7,1,14,8,-2,-8
1532146220240,16,-16,-13,-3,-4,-19,-8,8
1532146220245,13,25,27,0,3,21,13,22
1532146220250,7,7,-1,1,0,-5,-8,18
1532146220255,19,-5,21,-8,-11,7,6,-2
1532146220260,22,28,9,8,25,1,0,-19
1532146220265,-3,-41,8,10,9,-12,-2,9
1532146220270,1,29,6,6,-22,4,7,7
1532146220275,4,7,0,3,19,5,11,24
1532146220280,13,-6,-1,3,22,20,4,65
1532146220285,-26,10,-4,-3,2,-5,-18,-78
1532146220290,-16,-17,-3,-2,4,-3,4,-1
1532146220295,69,11,3,-6,-3,-20,3,31
1532146220300,-28,-31,-18,-8,-5,15,-5,9
1532146220305,15,-9,10,7,16,-6,-6,4
1532146220310,-10,6,-8,0,7,13,-6,-40
1532146220315,-19,2,8,1,-1,-5,23,47
1532146220320,-1,16,7,-7,-10,3,-13,-1
1532146220325,14,-9,8,-5,-5,-11,1,-8
1532146220330,54,45,-20,-1,3,15,6,8
1532146220335,-102,-76,-38,-2,-4,-2,-8,1
1532146220340,83,-32,20,4,10,0,9,34
1532146220345,-57,36,-11,3,3,-10,2,7
1532146220350,64,30,34,-6,-3,1,-22,-42
1532146220355,-13,96,-16,-11,-5,-13,-8,-29
1532146220360,-5,34,72,-3,3,0,2,-1
1532146220365,4,-44,-14,1,-5,-2,-9,-14
1532146220370,-46,-51,-77,7,-4,0,0,35
1532146220375,8,-46,-5,3,1,1,0,24
1532146220380,-19,-20,-13,-7,-3,-10,-19,-77
1532146220385,56,74,36,0,-6,-2,18,67
1532146220390,-17,10,32,-3,3,2,3,-5
1532146220395,-12,1,3,14,14,10,-4,1
1532146220400,-5,25,-1,2,2,5,11,1
1532146220405,1,14,1,-9,-18,-23,-7,-1
1532146220410,-16,-28,-21,-5,-8,-10,-4,10
1532146220415,12,11,17,-10,-7,-6,-2,-19
1532146220420,7,-37,-44,10,8,6,4,34
1532146220425,0,-14,-7,6,9,8,0,-46
1532146220430,3,-23,10,0,-26,-14,5,6
1532146220435,25,47,39,6,-5,16,-2,29
1532146220440,-62,-45,-43,-10,-7,-16,-22,-60
1532146220445,-9,-29,-19,-4,1,2,5,34
1532146220450,-11,-5,18,1,-1,4,2,-1
1532146220455,16,11,8,0,6,3,8,4
1532146220460,26,16,-3,4,-2,0,0,29
1532146220465,2,-8,-4,-3,-4,-1,-7,-17
1532146220470,-7,-2,10,0,4,3,6,34
1532146220475,0,-1,-10,-7,5,2,-1,-21
1532146220480,-7,-2,1,7,21,10,21,4
1532146220485,-22,-12,0,-2,3,-19,-5,-12
1532146220490,3,2,16,11,-24,13,0,-4
1532146220495,-7,-21,-6,-1,74,-16,-13,-3
1532146220500,-14,-15,3,-20,-57,-11,-12,-20
1532146220505,-7,-14,-10,-11,-16,-5,1,2
1532146220510,4,46,-2,-12,-1,-6,-1,5
1532146220515,-8,4,13,11,-6,0,1,-4
1532146220520,8,26,10,12,4,4,7,4
1532146220525,-1,-13,-5,1,14,6,-1,3
1532146220530,6,-13,-5,-2,17,9,4,10
1532146220535,-4,-1,-16,-5,-15,3,-8,-71
1532146220540,17,9,35,-9,3,-4,8,11
1532146220545,-5,12,-15,-5,-14,-3,-6,0
1532146220550,-1,-40,23,21,23,10,3,-5
1532146220555,5,-17,-5,3,-12,-7,-2,1
1532146220560,2,38,16,1,-11,-15,-10,-18
1532146220565,17,17,10,2,0,-2,5,-2
1532146220570,-8,0,-13,-19,5,-3,-5,-3
1532146220575,10,-18,-1,-10,-22,1,7,5
1532146220580,-18,11,-51,2,10,3,-6,4
1532146220585,18,66,7,3,10,3,-6,-1
1532146220590,-13,1,8,18,10,-1,5,-8
1532146220595,-2,15,37,8,-19,-11,-6,1
1532146220600,-12,-59,4,-18,-8,6,7,3
1532146220605,4,4,-1,-1,1,5,8,4
1532146220610,-1,-3,-30,-16,-3,-1,-7,-1
1532146220615,18,34,-8,-7,-8,-6,-4,-4
1532146220620,14,45,-14,8,10,-4,-8,4
1532146220625,-4,-9,-14,-4,2,2,-1,-3
1532146220630,-17,21,8,-17,-21,-3,3,-3
1532146220635,-51,-55,-16,-14,-8,3,4,4
1532146220640,-15,-16,9,18,22,18,9,5
1532146220645,22,34,40,34,-4,0,-2,2
1532146220650,-17,-15,26,2,-3,-12,-8,-10
1532146220655,-27,0,-10,-13,-19,5,3,2
1532146220660,-9,47,-17,-15,-12,-3,1,2
1532146220665,-35,-103,-33,-15,12,1,1,-5
1532146220670,61,100,-23,16,17,4,-4,0
1532146220675,32,121,42,17,-3,7,14,2
1532146220680,8,-74,10,-1,9,-9,-13,-4
1532146220685,8,-39,-20,-9,0,-7,22,41
1532146220690,-20,-52,-9,-16,-39,-7,-1,-15
1532146220695,-34,-109,-20,0,-21,10,4,12
1532146220700,20,116,4,5,80,12,7,1
1532146220705,-14,-8,17,5,-98,-14,-12,-9
1532146220710,3,37,-4,-9,-43,-17,6,29
1532146220715,3,10,-4,3,-14,-8,15,7
1532146220720,-9,-59,-1,-6,-8,-5,-42,-11
1532146220725,-12,8,-8,-7,27,4,-4,0
1532146220730,-4,-26,5,6,33,5,-6,-8
1532146220735,20,25,12,14,5,0,-6,-11
1532146220740,1,-27,-4,6,-16,0,9,4
1532146220745,19,35,-7,-5,20,5,-13,-16
1532146220750,-25,-62,3,0,1,1,8,-10
1532146220755,19,32,-2,1,13,-7,-16,-6
1532146220760,17,46,-1,1,-10,0,12,10
1532146220765,17,-6,6,-1,5,-6,0,-7
1532146220770,-26,-23,-3,-4,5,3,4,-6
1532146220775,6,-19,-8,-8,8,0,-6,8
1532146220780,1,4,8,2,-15,-10,2,-2
1532146220785,-7,-19,-15,-2,-5,5,-5,-8
1532146220790,7,6,2,-1,7,4,-3,1
1532146220795,6,25,-5,3,17,-10,-7,-3
1532146220800,8,-10,5,-2,-15,3,1,1
1532146220805,-22,-17,2,0,15,-1,1,-7
1532146220810,6,9,-9,1,16,2,-2,2
1532146220815,0,2,1,-3,-1,-1,0,9
1532146220820,9,-8,-6,-5,-24,-3,8,33
1532146220825,-12,-25,5,3,-2,-1,-3,-63
1532146220830,4,28,-4,-3,-29,1,-6,-1
1532146220835,2,8,3,-2,11,-3,-11,-13
1532146220840,-32,-80,-5,1,-10,-2,0,1
1532146220845,27,66,3,-1,9,5,2,21
1532146220850,14,-40,-3,1,5,-7,-9,-4
1532146220855,-19,-36,3,-14,-4,2,3,1
1532146220860,8,-18,-7,15,17,0,11,10
1532146220865,-37,-63,-57,-3,2,1,-1,10
1532146220870,2,62,6,4,15,-2,2,-12
1532146220875,19,3,-18,1,-9,-5,2,37
1532146220880,19,-10,14,-12,-5,0,12,33
1532146220885,0,29,49,1,-8,0,-11,-8
1532146220890,-8,-28,-21,6,0,1,-3,-26
1532146220895,-19,-14,-2,-8,-1,1,1,-39
1532146220900,-25,8,-6,0,-6,-4,-16,-82
1532146220905,5,-4,7,-2,-2,-1,8,45
1532146220910,-1,13,12,0,10,6,1,36
1532146220915,19,11,65,2,-2,6,11,17
1532146220920,96,60,-20,8,-1,0,1,13
1532146220925,-37,-10,-43,-10,-2,-10,-9,-4
1532146220930,-31,4,22,-11,-10,-4,1,-11
1532146220935,-33,-113,-32,1,-3,3,9,24
1532146220940,-2,125,12,4,0,-1,-17,-22
1532146220945,22,0,31,8,7,4,14,34
1532146220950,28,-8,-11,1,2,1,-9,59
1532146220955,5,75,-9,-2,-9,-3,-11,-52
1532146220960,-41,-66,-14,-10,8,-10,-20,-100
1532146220965,-27,-54,3,1,-12,-6,-25,1
1532146220970,-60,-31,-6,-15,-14,-12,5,-17
1532146220975,32,86,0,9,27,1,61,112
1532146220980,-18,-25,30,15,-2,24,-44,-76
1532146220985,-73,42,15,14,20,60,13,-8
1532146220990,28,-94,-17,-13,-25,-80,-82,-36
1532146220995,-5,-12,-16,-4,-4,52,45,8
1532146221000,-57,-53,-17,-9,-35,-100,40,127
1532146221005,103,56,30,5,4,-5,6,78
1532146221010,-55,-20,-7,-1,32,38,-10,-72
1532146221015,87,26,-5,-9,-34,-29,-23,-85
1532146221020,-3,-36,3,7,62,27,22,116
1532146221025,62,-13,-1,2,0,0,-11,-103
1532146221030,-28,-56,-12,4,-11,20,25,27
1532146221035,66,32,-35,-16,-3,-40,-34,28
1532146221040,-34,9,21,3,-1,51,47,107
1532146221045,23,42,52,-3,-6,-7,3,-2
1532146221050,-39,-34,2,-1,7,7,-4,-51
1532146221055,-94,-96,-56,13,15,-7,-9,-52
1532146221060,-16,86,-35,-34,-40,-23,-6,-92
1532146221065,12,103,5,20,-3,-25,-7,39
1532146221070,80,63,23,-4,9,16,23,13
1532146221075,-9,-83,76,-7,-3,9,-8,36
1532146221080,57,69,26,20,6,1,-15,-36
1532146221085,-2,-26,-120,-38,-7,-10,-25,-27
1532146221090,27,115,19,22,18,-13,16,25
1532146221095,-33,16,31,15,5,-6,-7,17
1532146221100,-12,-104,61,-13,-13,17,11,33
1532146221105,-57,-128,-73,-1,5,14,19,-5
1532146221110,-4,102,3,19,5,-3,-2,31
1532146221115,-11,86,-7,-9,-3,-13,-59,-64
1532146221120,88,86,17,-12,5,3,-5,6
1532146221125,5,-51,29,-1,0,-5,11,4
1532146221130,-1,-113,7,-17,-13,6,27,54
1532146221135,-36,-122,-39,11,5,14,6,2
1532146221140,-35,-18,-71,-17,-22,-6,-8,-22
1532146221145,30,126,19,5,-3,-8,-2,16
1532146221150,-3,-16,1,0,2,-1,-5,-3
1532146221155,-14,-20,27,-6,-8,0,1,-15
1532146221160,-36,-128,-27,-1,6,5,-3,-5
1532146221165,-24,53,-13,-4,0,-11,-10,11
1532146221170,-5,-23,22,-3,-6,7,3,-16
1532146221175,-1,74,-26,6,-1,-2,-9,27
1532146221180,-18,-39,16,21,12,4,-4,11
1532146221185,16,-1,-6,-18,-2,-6,-11,-14
1532146221190,22,10,-11,-5,-5,0,-2,21
1532146221195,-33,-58,22,1,-1,5,5,-7
1532146221200,-23,-108,-22,8,5,8,2,-18
1532146221205,57,59,11,-3,-5,-11,-2,0
1532146221210,-5,-61,-9,4,-2,-2,5,-2
1532146221215,-11,-72,-3,-5,1,0,-1,1
1532146221220,2,17,13,2,-1,-2,0,-21
1532146221225,-33,-70,14,-1,-2,3,11,16
1532146221230,10,61,-20,3,5,0,7,27
1532146221235,-4,18,12,1,0,-2,-24,-81
1532146221240,0,15,-9,-6,7,-4,-3,2
1532146221245,-37,-62,7,1,-7,2,4,-3
1532146221250,10,-7,-2,-3,-6,-1,1,27
1532146221255,-9,32,12,2,1,3,8,-23
1532146221260,36,57,-23,-5,-5,-5,-8,10
1532146221265,2,1,12,2,5,-1,4,4
1532146221270,-28,-3,-1,-1,-2,1,-2,-23
1532146221275,16,6,-13,-3,4,-1,3,34
1532146221280,-5,9,-2,-2,-5,-2,1,23
1532146221285,-14,-15,12,3,3,0,-4,-49
1532146221290,2,-12,-3,-1,-3,0,0,-4
1532146221295,19,82,-2,-3,-2,-2,2,20
1532146221300,3,8,5,0,0,0,2,1
1532146221305,-6,-31,-1,0,1,2,4,21
1532146221310,8,25,5,1,1,-1,1,-2
1532146221315,10,-19,-2,-2,1,-2,-4,2
1532146221320,-9,-15,1,-1,0,-12,2,27
1532146221325,-39,-60,-1,2,7,24,-7,-78
1532146221330,7,26,4,-6,-4,-1,-6,-7
1532146221335,36,43,-3,0,5,-4,7,47
1532146221340,20,15,1,0,-10,4,2,19
1532146221345,-14,13,-1,-2,-1,-12,-4,1
1532146221350,-11,-55,-5,-1,0,-7,-7,-43
1532146221355,-13,-31,-12,1,47,18,23,30
1532146221360,29,22,12,9,-14,-11,14,46
1532146221365,-39,15,9,-2,-40,-19,-17,-64
1532146221370,59,-7,0,7,27,-5,-56,-8
1532146221375,1,-17,-6,-5,-28,14,30,-39
1532146221380,31,6,1,2,95,97,62,4
1532146221385,-26,6,4,-3,-80,-51,15,127
1532146221390,-36,-6,-8,-17,-78,-19,1,-93
1532146221395,-25,-4,9,16,62,4,14,13
1532146221400,-10,-9,-9,-8,-36,18,-41,-113
1532146221405,40,-6,-7,-4,5,-16,25,26
1532146221410,31,22,6,8,32,16,88,127
1532146221415,-14,-19,-7,-14,-30,-12,-47,-38
1532146221420,-59,4,21,5,-3,-18,-8,-121
1532146221425,-32,-45,-12,-7,32,28,-26,21
1532146221430,40,35,5,6,-6,-23,-18,47
1532146221435,-6,-19,-10,-5,-3,8,45,78
1532146221440,57,66,10,9,10,16,-16,91
1532146221445,72,10,14,-4,8,-2,21,-73
1532146221450,-35,-82,-17,-5,0,25,-1,-63
1532146221455,25,-8,-57,2,-15,-10,-34,-34
1532146221460,6,79,29,8,-1,-32,-17,13
1532146221465,15,43,-35,-22,-5,-7,-16,42
1532146221470,21,-16,-10,3,11,-2,14,30
1532146221475,-13,-3,-3,-29,-32,-11,-13,16
1532146221480,13,36,0,17,-17,-30,-6,-5
1532146221485,-56,-72,-51,23,36,27,14,-32
1532146221490,-17,70,99,16,3,8,6,24
1532146221495,4,11,32,-10,-19,-11,-21,-30
1532146221500,-37,-13,-16,-10,-5,6,6,-12
1532146221505,60,126,25,-1,14,7,10,20
1532146221510,-24,-5,-45,4,3,2,-9,3
1532146221515,-7,20,40,6,-20,-3,2,6
1532146221520,-37,-76,3,-20,-13,-4,7,-32
1532146221525,-33,-128,9,-4,4,13,4,0
1532146221530,5,102,-53,-5,4,-5,-20,-10
1532146221535,0,35,-2,3,8,0,15,17
1532146221540,-5,-58,15,-7,0,-15,-8,17
1532146221545,-11,-39,-6,-3,-3,-5,-11,0
1532146221550,-10,-110,-7,-3,0,7,-1,18
1532146221555,15,-55,-1,1,-1,7,-7,-14
1532146221560,5,-15,-18,5,7,-6,-14,-1
1532146221565,11,126,25,-3,-1,-2,-9,11
1532146221570,17,-34,20,-10,3,-1,-4,-2
1532146221575,-5,-3,-23,8,1,-3,-6,1
1532146221580,0,-71,-25,-9,-15,-11,-1,14
1532146221585,5,18,25,5,4,3,1,-6
1532146221590,-17,-21,-15,-5,-3,-1,1,-15
1532146221595,-2,-22,-18,1,1,-2,1,3
1532146221600,-6,25,45,3,-1,2,4,12
1532146221605,10,-9,-37,1,7,-3,-5,5
1532146221610,-14,-9,13,-4,-2,1,1,-13
1532146221615,1,-56,-12,3,-1,-3,-1,25
1532146221620,-1,-8,-5,-5,1,-2,4,24
1532146221625,-39,-111,0,2,-4,-2,-26,-66
1532146221630,15,80,9,-6,-6,-5,-5,-22
1532146221635,-17,-75,23,6,3,2,4,3
1532146221640,39,107,-27,-6,-7,-6,-1,19
1532146221645,0,1,11,3,2,3,14,37
1532146221650,-21,-43,1,-3,0,2,0,-32
1532146221655,-4,27,3,2,-2,-1,-2,-12
1532146221660,-7,-20,-13,-3,-1,0,8,39
1532146221665,2,10,9,-2,-4,1,-10,-61
1532146221670,0,17,4,0,0,-5,-3,3
1532146221675,3,34,-4,3,1,1,2,0
1532146221680,-5,-4,1,-5,-5,-5,0,-9
1532146221685,14,33,7,5,10,3,7,36
1532146221690,-3,-20,-10,-2,-13,-6,-2,6
1532146221695,3,13,4,0,1,-4,2,21
1532146221700,0,-1,8,1,4,4,-6,-24
1532146221705,1,1,1,2,-2,17,8,15
1532146221710,0,-8,-8,-3,5,9,-13,-30
1532146221715,-19,10,4,-3,-12,-22,6,-21
1532146221720,-4,-9,-9,-4,2,-3,-3,26
1532146221725,4,-3,3,4,11,-15,-11,-18
1532146221730,8,10,13,14,18,10,45,10
1532146221735,27,31,10,-9,-21,16,-4,57
1532146221740,-9,-18,-6,-5,8,28,18,14
1532146221745,-38,-28,-19,-19,-41,-10,1,-69
1532146221750,48,13,-1,-6,-3,11,17,73
1532146221755,2,-1,1,6,7,6,8,-39
1532146221760,-26,-27,-23,-11,-11,-26,-7,-83
1532146221765,34,18,10,11,21,5,-6,102
1532146221770,5,16,28,18,10,18,8,-32
1532146221775,-12,-16,0,-1,11,4,-6,-3
1532146221780,-13,-1,-1,-1,-11,-8,-17,-15
1532146221785,8,38,18,-39,-13,21,36,26
1532146221790,-2,-82,-21,12,2,-24,-22,2
1532146221795,13,47,-44,15,3,-5,-2,27
1532146221800,12,36,47,2,0,1,-8,-4
1532146221805,23,-30,10,1,-4,-9,-8,-12
1532146221810,-15,-4,-15,-21,-14,-22,-10,1
1532146221815,3,-47,13,-13,-6,-7,-16,-11
1532146221820,10,8,-10,47,17,14,8,15
1532146221825,-5,23,23,9,1,0,-10,-16
1532146221830,-23,22,29,-2,-6,1,-11,-7
1532146221835,-5,44,43,-7,-3,2,0,-20
1532146221840,5,-27,-45,-13,-8,-1,1,-8
1532146221845,-7,6,33,17,2,-3,2,15
1532146221850,-25,-21,-36,-3,-3,0,-12,-3
1532146221855,5,24,0,-10,-4,-1,9,-4
1532146221860,-10,-9,8,-5,-3,-8,-2,60
1532146221865,-37,-18,-19,0,4,-7,-18,-88
1532146221870,-25,36,18,-14,-4,-2,-3,-8
1532146221875,-11,-23,-46,1,3,-5,-1,27
1532146221880,-22,7,3,0,-1,-8,7,-14
1532146221885,4,-22,-20,5,2,-3,5,30
1532146221890,34,46,21,-4,-2,2,-4,-13
1532146221895,22,-20,19,-8,-2,-3,-3,6
1532146221900,14,-50,-29,4,1,4,-12,-4
1532146221905,18,5,5,0,-3,1,-3,7
1532146221910,18,6,-16,-3,0,-6,-3,-2
1532146221915,9,36,16,10,4,-4,-8,-1
1532146221920,4,-23,-5,-15,0,-3,-1,-7
1532146221925,5,-12,-26,-3,3,-2,-1,-5
1532146221930,-2,-27,-15,3,-2,3,2,20
1532146221935,-12,44,31,0,-2,1,1,-14
1532146221940,-13,-78,-19,-4,-4,-4,-4,-15
1532146221945,-11,48,-37,-6,-3,-2,3,18
1532146221950,1,-6,5,3,2,3,-1,3
1532146221955,-9,10,8,4,2,0,-1,-1
1532146221960,-21,-53,25,1,0,3,6,5
1532146221965,13,75,17,-9,-6,-7,-11,4
1532146221970,-27,-67,-52,-4,-1,-1,-3,-15
1532146221975,1,-12,-10,-4,-1,-2,-4,-22
1532146221980,14,91,15,2,-1,-2,-2,12
1532146221985,-2,-58,-9,0,4,5,0,8
1532146221990,6,28,27,-2,-5,-1,0,3
1532146221995,-20,-47,-9,1,-4,-2,1,0
1532146222000,-10,-17,2,0,5,-1,-4,-5
1532146222005,16,90,-6,2,-5,-2,5,9
1532146222010,10,-29,0,3,4,2,-4,-10
1532146222015,5,-1,-12,0,16,14,2,6
1532146222020,20,44,20,-4,-6,-8,3,-3
1532146222025,-20,-71,-27,-6,-13,-17,-5,-4
1532146222030,1,5,-21,-1,-6,-2,3,9
1532146222035,-4,-2,0,6,2,1,1,-4
1532146222040,-15,-32,13,-4,2,6,-3,-5
1532146222045,-11,-8,30,11,4,5,6,8
1532146222050,-6,-6,-14,-13,-7,-5,-2,-5
1532146222055,0,-12,-13,-4,-1,0,-4,-5
1532146222060,22,84,5,2,1,1,-1,0
1532146222065,7,-29,1,1,4,1,0,2
1532146222070,-15,-8,16,5,9,7,7,6
1532146222075,-3,-14,-10,-4,15,4,0,-1
1532146222080,-9,-10,7,-3,-33,-18,-9,-6
1532146222085,-15,-12,-9,1,3,-8,-5,-4
1532146222090,8,-2,20,9,-8,0,2,1
1532146222095,12,43,10,-3,2,5,1,1
1532146222100,1,-30,-27,0,4,4,6,0
1532146222105,7,43,4,-5,18,-6,-4,-3
1532146222110,-8,31,4,2,-18,-3,-4,3
1532146222115,-6,-38,-7,-1,1,1,2,1
1532146222120,3,26,-2,3,11,11,4,-2
1532146222125,3,-25,2,-5,-21,-20,-3,-5
1532146222130,-13,-21,-10,-7,-2,-4,-5,-1
1532146222135,-7,-28,2,-4,-12,-6,-5,-4
1532146222140,24,44,-17,-2,9,4,1,0
1532146222145,-1,-24,14,9,12,12,4,3
1532146222150,12,36,5,4,8,0,0,1
1532146222155,-5,-24,-2,-8,-14,-5,-4,-5
1532146222160,-21,-5,-9,-4,0,0,-1,-8
1532146222165,5,-30,3,1,-3,5,3,4
1532146222170,-6,9,-12,-5,-4,-6,-3,0
1532146222175,10,20,-3,2,6,6,4,3
1532146222180,-3,13,9,1,0,-8,-5,0
1532146222185,6,6,-7,2,-3,0,0,-1
1532146222190,-1,1,17,7,10,4,0,1
1532146222195,-1,-7,-3,0,-1,-2,-1,1
1532146222200,-2,-7,-5,-8,-9,-6,-4,-1
1532146222205,-8,-2,-1,-6,-4,4,0,-4
1532146222210,0,1,-4,4,9,3,2,-2
1532146222215,4,36,-1,-2,-8,-5,-3,-2
1532146222220,-2,-64,-6,-4,-4,-4,-2,-1
1532146222225,-2,32,11,4,2,6,2,1
1532146222230,-2,-60,-13,-9,-2,-7,-5,-1
1532146222235,1,15,-2,2,-5,-5,-2,-4
1532146222240,-4,25,1,6,4,3,1,1
1532146222245,1,-5,-4,1,0,1,0,-2
1532146222250,10,25,12,-3,-4,-4,-1,1
1532146222255,-13,-30,1,2,1,-2,-2,-2
1532146222260,0,-9,5,1,12,5,2,2
1532146222265,2,-13,-11,-6,-16,-4,-3,-1
1532146222270,-9,66,6,-5,-12,-2,0,-1
1532146222275,-2,-107,-20,-8,-1,-4,-4,-6
1532146222280,4,7,8,13,2,-1,-2,1
1532146222285,6,16,3,3,10,2,1,0
1532146222290,4,0,2,1,-8,2,2,0
1532146222295,2,28,4,-1,7,0,-2,2
1532146222300,6,-3,-3,-7,-14,-5,-1,-2
1532146222305,-20,-58,2,0,-1,0,0,-2
1532146222310,-1,19,-12,-5,0,-3,-2,0
1532146222315,7,6,-2,6,6,1,1,1
1532146222320,-14,-17,5,-2,-1,-1,0,-2
1532146222325,24,55,12,5,2,-1,-2,1
1532146222330,-9,-40,-8,-5,5,-2,0,-4
1532146222335,-3,5,-1,-2,-4,-3,0,-1
1532146222340,6,1,1,-3,-3,2,-2,-1
1532146222345,-6,-12,-4,-3,-5,0,1,0
1532146222350,1,5,0,3,16,1,-2,-1
1532146222355,11,35,5,2,-15,-1,-1,0
1532146222360,-7,10,14,2,-5,-2,-1,1
1532146222365,-10,-21,-25,-21,-3,-5,-5,-6
1532146222370,5,-27,-13,10,-7,4,1,0
1532146222375,-7,-2,15,7,10,1,0,2
1532146222380,-6,15,-9,-4,0,-3,-2,-3
1532146222385,0,-20,-1,-2,-4,-1,1,0
1532146222390,8,53,14,2,5,1,-2,2
1532146222395,-24,-25,-4,0,-6,-1,-1,-3
1532146222400,5,10,-2,-3,-1,-2,-2,-1
1532146222405,1,12,2,-1,9,2,1,0
1532146222410,1,-4,-3,-6,-14,-6,-1,-2
1532146222415,0,24,0,-4,-6,-2,1,-1
1532146222420,4,-17,-4,-1,1,-2,-5,-2
1532146222425,-1,4,-10,9,1,1,2,1
1532146222430,15,23,19,4,8,3,2,-2
1532146222435,-22,-38,-11,-3,-1,-1,-3,-3
1532146222440,-9,-35,-3,-4,-5,0,1,0
1532146222445,21,69,6,1,3,0,-1,2
1532146222450,-26,-31,-1,-11,2,-3,-4,0
1532146222455,13,21,-14,3,-2,-2,-5,-2
1532146222460,-8,-26,13,9,2,1,2,-1
1532146222465,6,-54,-2,2,0,-1,-1,0
1532146222470,7,20,4,-1,-5,-1,2,1
1532146222475,7,-8,1,-8,-2,-2,-1,-1
1532146222480,-3,-4,-12,-3,7,0,-1,-2
1532146222485,-2,14,7,4,-6,-2,-2,2
1532146222490,2,-9,-3,-1,-2,0,6,1
1532146222495,-12,-12,-6,-6,-4,-1,-3,-7
1532146222500,13,31,3,2,2,6,2,1
1532146222505,-18,-42,1,0,-1,-7,2,-1
1532146222510,2,-9,-13,-2,4,-2,-4,0
1532146222515,-11,-40,7,5,2,-3,-1,-4
1532146222520,4,63,6,-6,-4,3,5,1
1532146222525,-13,33,-16,-8,-6,-5,-8,-8
1532146222530,53,3,3,2,2,6,6,13
1532146222535,-25,-34,2,-1,-17,-1,1,-2
1532146222540,-1,3,-10,-8,8,-5,-6,-2
1532146222545,1,4,13,12,15,7,2,3
1532146222550,-15,10,4,7,-17,-12,-5,-3
1532146222555,13,19,2,0,2,1,0,5
1532146222560,8,8,-4,0,2,-2,-1,-2
1532146222565,-14,15,0,-8,-5,-2,1,-3
1532146222570,1,5,6,3,16,-2,-1,0
1532146222575,10,32,5,-3,-13,3,4,2
1532146222580,1,-67,-16,1,-19,-10,7,1
1532146222585,-14,-52,-9,-3,1,5,-20,-8
1532146222590,-11,-13,-3,-3,3,-1,-2,-6
1532146222595,3,54,5,-2,1,6,5,1
1532146222600,14,9,0,-2,0,-17,-7,-1
1532146222605,15,9,2,4,1,4,5,1
1532146222610,-9,-39,-9,-8,-8,2,-1,-5
1532146222615,-6,-24,-1,4,8,1,5,3
1532146222620,-1,46,4,1,1,4,-1,-1
1532146222625,1,51,5,-5,-3,-3,2,-2
1532146222630,-34,-40,-28,-6,-2,-1,-7,-3
1532146222635,56,21,12,5,7,-4,1,4
1532146222640,-39,3,-16,-2,1,10,-3,-6
1532146222645,3,-8,-3,-6,-12,-5,-3,1
1532146222650,16,20,3,0,3,1,6,3
1532146222655,7,-19,-10,-8,3,2,2,2
1532146222660,-2,6,16,-1,-4,-21,-11,4
1532146222665,-15,0,9,16,8,17,8,-2
1532146222670,10,19,-8,-9,-11,-19,9,-3
1532146222675,-7,-16,3,2,3,18,12,-6
1532146222680,10,-10,-5,-9,-7,5,2,6
1532146222685,1,-10,-13,-7,-6,-3,-8,-3
1532146222690,-14,-71,5,4,2,-1,10,0
1532146222695,8,39,-5,2,1,-12,-3,-3
1532146222700,5,52,8,-3,0,3,-1,1
1532146222705,-10,-26,-5,0,0,0,9,0
1532146222710,-19,26,-3,2,-5,-3,-12,-7
1532146222715,1,15,5,8,7,-1,-1,7
1532146222720,-15,1,5,3,4,10,-2,-8
1532146222725,11,-24,1,-6,-2,-10,22,4
1532146222730,-3,-11,-8,-12,-5,-4,-20,-7
1532146222735,12,-25,-18,-4,2,11,2,3
1532146222740,2,16,20,26,6,-5,0,4
1532146222745,4,26,13,1,-5,-8,-1,-2
1532146222750,-33,-54,-9,-5,11,15,6,-2
1532146222755,-24,3,0,-17,-15,-2,-9,-10
1532146222760,28,-86,-35,-12,-3,5,1,2
1532146222765,-26,24,-8,-2,8,-11,-7,-8
1532146222770,22,66,15,1,-5,-20,-9,1
1532146222775,-5,-44,-16,3,-17,-14,-31,-7
1532146222780,-3,-6,16,9,-9,10,9,2
1532146222785,13,-5,2,-2,-23,14,-5,4
1532146222790,26,23,7,3,34,-9,-2,3
1532146222795,-49,-23,-4,-1,-7,-11,8,-6
1532146222800,9,17,8,3,6,4,-3,-1
1532146222805,3,-37,-2,-5,-17,-9,-23,1
1532146222810,-1,-11,-7,0,2,33,24,-1
1532146222815,5,-32,10,3,5,-18,-2,5
1532146222820,9,0,-6,-6,4,0,1,-2
1532146222825,-14,-6,-13,-5,-1,0,-7,-5
1532146222830,4,36,22,18,-17,-12,-3,0
1532146222835,3,3,3,5,8,-4,3,-1
1532146222840,-10,-16,3,-6,-9,5,35,6
1532146222845,6,8,-3,-6,16,-9,-55,-11
1532146222850,14,-18,-12,-2,-15,-4,2,5
1532146222855,-12,53,-3,-2,20,9,3,-3
1532146222860,-8,-15,3,10,-30,-10,-26,-8
1532146222865,2,-15,-5,-15,20,25,28,7
1532146222870,-15,1,-14,-8,-41,-21,-17,1
1532146222875,13,19,-1,6,13,-8,-12,-2
1532146222880,28,30,27,3,-3,6,28,7
1532146222885,6,10,-5,6,15,-1,-10,-1
1532146222890,17,18,3,-4,-5,2,-9,-3
1532146222895,-27,20,-14,-10,-5,4,7,-8
1532146222900,2,-64,-7,-6,10,-13,1,0
1532146222905,-23,8,7,12,-3,0,-4,-4
1532146222910,-4,24,10,5,13,14,6,6
1532146222915,19,14,10,1,-9,-7,-6,1
1532146222920,-11,-32,-16,-7,18,23,-9,-5
1532146222925,35,6,7,1,-19,-15,47,18
1532146222930,-3,26,-3,1,-35,32,-31,-5
1532146222935,6,-12,-1,-2,24,-12,-27,-2
1532146222940,-16,2,4,0,-4,7,23,12
1532146222945,2,-16,-13,-3,11,-24,-66,-15
1532146222950,-31,-42,-7,1,12,43,-2,-7
1532146222955,-22,10,-5,-1,-21,-7,19,0
1532146222960,-40,-26,2,-4,-1,-17,-11,-4
1532146222965,2,-3,-1,1,-19,-9,1,-2
1532146222970,10,-41,-1,4,41,6,37,7
1532146222975,40,7,18,-1,-6,15,-8,12
1532146222980,13,88,-15,-5,-7,-37,-35,-8
1532146222985,-5,7,6,2,1,5,18,-4
1532146222990,17,15,3,2,33,27,37,5
1532146222995,26,-20,3,0,7,14,13,-1
1532146223000,-57,5,-17,-12,-17,-55,-52,-24
1532146223005,8,36,11,2,-11,24,-8,0
1532146223010,-8,-72,-5,-5,-39,-34,-19,-4
1532146223015,19,-7,-2,0,-17,3,19,6
1532146223020,23,3,-18,-6,23,6,-20,-3
1532146223025,-47,-19,18,9,47,32,33,7
1532146223030,-38,11,-6,2,-7,36,18,3
1532146223035,-6,8,12,1,-23,-54,-13,1
1532146223040,3,-24,-18,-9,-28,12,10,-1
1532146223045,-5,11,0,7,-10,-14,18,2
1532146223050,52,47,39,14,7,-5,-5,4
1532146223055,-16,22,2,3,37,31,14,2
1532146223060,20,-50,-11,-3,-2,30,-26,-6
1532146223065,15,3,-30,-22,-7,-38,-14,-6
1532146223070,-2,-13,8,5,-19,-30,8,2
1532146223075,8,41,10,2,29,4,-74,0
1532146223080,-39,-67,6,-2,-4,21,37,-9
1532146223085,-53,-39,-31,-9,-48,-59,-26,-14
1532146223090,7,15,-4,-2,10,-6,-23,0
1532146223095,2,-26,-11,-8,-12,-25,34,-5
1532146223100,47,54,13,-4,75,48,6,12
1532146223105,2,-26,-21,5,-6,-7,-10,1
1532146223110,-7,21,28,1,5,-22,-9,-4
1532146223115,-1,-61,-17,-6,-39,6,29,1
1532146223120,14,28,-8,10,26,15,7,-1
1532146223125,20,63,39,7,6,18,23,6
1532146223130,-9,-42,-14,-11,-1,-16,-15,-6
1532146223135,9,22,-2,-2,10,24,-9,-6
1532146223140,-5,7,-8,-6,-16,-29,-3,-1
1532146223145,-10,12,-3,-5,8,-1,-2,5
1532146223150,-25,-65,-10,-3,-8,6,10,-1
1532146223155,-24,-4,-4,-6,2,-1,-18,-12
1532146223160,3,67,4,4,-12,-22,19,0
1532146223165,31,-22,15,8,-6,15,28,14
1532146223170,12,-3,-7,-1,19,-1,-23,-5
1532146223175,0,2,-7,-3,-5,0,14,-9
1532146223180,8,9,5,2,-16,-10,-6,5
1532146223185,33,26,15,7,17,22,0,-1
1532146223190,-38,-70,-27,-14,-7,-18,-3,-14
1532146223195,6,47,-15,-3,-7,-8,-15,-1
1532146223200,18,14,21,11,-11,-18,2,5
1532146223205,24,9,6,1,14,33,15,4
1532146223210,-16,23,-1,-1,-2,11,-2,3
1532146223215,-12,-18,-2,4,-3,-7,17,0
1532146223220,-10,-16,0,-7,-9,-5,-20,-5
1532146223225,9,-35,-5,-7,-19,-34,13,-2
1532146223230,-7,73,-10,-10,-6,-9,-14,-7
1532146223235,-2,-68,-6,-2,0,10,3,3
1532146223240,10,64,-4,11,4,10,13,2
1532146223245,-2,-20,22,14,10,8,-3,1
1532146223250,20,-2,5,6,4,-2,0,3
1532146223255,-23,-48,-5,-8,-2,4,5,-1
1532146223260,-14,4,-7,-9,-9,-7,-1,-1
1532146223265,2,-21,-31,-9,-4,0,-14,-5
1532146223270,20,58,8,3,4,-2,7,-1
1532146223275,2,-20,11,5,1,-3,3,4
1532146223280,-24,-52,4,2,-4,3,9,-1
1532146223285,-11,7,-5,-11,-2,7,-3,-3
1532146223290,4,-12,-22,-9,-2,-6,-1,-4
1532146223295,18,17,13,11,5,4,0,2
1532146223300,7,30,19,6,-4,3,-3,0
1532146223305,-16,-50,-19,-8,-5,0,-2,-6
1532146223310,-2,-8,-6,-4,1,-9,2,-1
1532146223315,-4,13,-4,-3,-5,0,-4,-1
1532146223320,7,8,-5,-5,3,-3,5,2
1532146223325,-15,-61,-3,-3,4,5,-4,-2
1532146223330,-15,-50,17,9,-2,6,2,-1
1532146223335,4,79,-3,0,2,4,-3,-1
1532146223340,-14,-72,0,-9,-5,-6,-3,1
1532146223345,13,35,-17,-2,1,-6,-3,2
1532146223350,4,25,17,14,7,0,4,2
1532146223355,-8,9,10,2,-2,-2,3,1
1532146223360,-9,-25,-18,-12,-6,-5,0,-4
1532146223365,3,20,15,7,0,-4,0,0
1532146223370,16,-8,-4,-6,-3,-2,-3,1
1532146223375,-26,-2,-6,2,1,-3,-4,-2
1532146223380,16,0,-1,-4,3,-2,-3,-2
1532146223385,9,-2,-5,0,-1,1,2,0
1532146223390,16,21,-6,-4,-2,-6,1,-2
1532146223395,-18,1,2,-5,1,-3,-1,-3
1532146223400,-17,-10,4,5,4,2,-1,-2
1532146223405,-7,30,2,2,2,-1,1,-1
1532146223410,-12,1,3,7,0,-5,-1,-1
1532146223415,20,8,-4,-1,-6,2,-3,2
1532146223420,-2,-28,-12,-3,1,4,2,-3
1532146223425,2,-8,0,-5,-4,0,-7,-2
1532146223430,-1,24,12,0,-4,-2,1,-2
1532146223435,10,5,20,6,1,3,0,1
1532146223440,3,13,-9,2,0,3,-2,1
1532146223445,10,-7,-8,-9,-5,0,-2,-1
1532146223450,-2,-4,-15,-9,-4,0,-1,-1
1532146223455,3,2,4,11,5,1,2,22
1532146223460,-1,6,18,13,6,4,-4,-28
1532146223465,-13,5,12,-1,-3,-4,1,-5
1532146223470,-14,-3,-6,-4,-1,7,0,-2
1532146223475,-1,-10,-19,-22,-6,-5,-4,-4
1532146223480,-7,13,6,5,0,0,1,13
1532146223485,3,31,-7,7,2,2,-1,3
1532146223490,-6,9,1,-4,0,-3,0,-1
1532146223495,-3,-4,-2,-4,-3,-4,0,0
1532146223500,4,-4,-2,-7,-1,-4,0,4
1532146223505,28,6,-17,3,2,0,0,-4
1532146223510,15,-3,3,0,1,-2,0,6
1532146223515,5,-5,16,-6,-5,-3,-5,-11
1532146223520,-6,-7,-10,0,0,-1,0,-1
1532146223525,-17,11,11,7,5,0,-3,1
1532146223530,-4,9,-17,-8,-1,1,0,2
1532146223535,-8,-25,-9,-1,2,1,-1,-6
1532146223540,-3,15,21,9,0,-1,2,0
1532146223545,-12,-9,11,-5,-4,0,1,4
1532146223550,-7,-7,-10,1,3,-2,-4,-4
1532146223555,-8,4,-7,-5,-2,-2,1,3
1532146223560,4,-5,1,-7,-10,-1,5,19
1532146223565,-9,-5,-1,2,-2,-1,-7,-14
1532146223570,-13,36,23,4,2,-1,-4,-18
1532146223575,-6,-45,-22,-1,2,0,-2,-5
1532146223580,-2,-2,-6,-2,-2,-2,-1,5
1532146223585,-5,-4,-4,-9,-5,-3,3,8
1532146223590,-2,5,12,3,1,-3,-3,-1
1532146223595,4,17,-4,4,3,7,1,0
1532146223600,-1,-11,-5,-3,-2,-3,-2,5
1532146223605,-1,15,7,0,-2,-2,-6,-20
1532146223610,-2,-30,-18,-3,-2,1,1,8
1532146223615,4,20,8,9,0,0,6,10
1532146223620,-1,-27,-4,-6,-1,-2,-8,-27
1532146223625,1,0,0,-2,0,0,3,11
1532146223630,-2,-7,0,-10,-6,-5,1,0
1532146223635,-3,-3,-23,-6,-4,-4,1,2
1532146223640,2,13,5,7,4,4,2,14
1532146223645,3,3,4,0,-3,-4,-1,-22
1532146223650,1,12,2,10,5,2,-3,-4
1532146223655,-4,-25,10,-1,-1,-4,-9,-8
1532146223660,1,11,-6,-7,-1,-1,-3,-8
1532146223665,-5,-14,-5,1,7,1,2,9
1532146223670,2,-1,-3,-11,-4,-3,2,10
1532146223675,5,15,7,9,0,2,2,10
1532146223680,3,-12,-7,-1,2,2,7,4
1532146223685,3,-1,-2,-7,-2,1,-17,-24
1532146223690,-5,-6,-6,0,-3,-3,4,-9
1532146223695,-5,-5,-6,-8,-5,-7,-9,-15
1532146223700,-3,4,-16,-9,-1,-2,4,-2
1532146223705,7,12,23,15,4,5,11,35
1532146223710,2,-30,9,14,5,1,-5,-4
1532146223715,17,25,4,-3,-4,0,-6,10
1532146223720,-22,-20,-14,-14,-7,-7,-12,-27
1532146223725,-10,-4,-2,5,1,-1,4,-6
1532146223730,7,0,-3,-3,-5,0,-6,-16
1532146223735,1,1,5,-2,-4,-1,12,24
1532146223740,5,2,6,8,8,1,-5,3
1532146223745,-1,-2,-8,-13,-7,-4,-1,2
1532146223750,-14,-23,-7,-2,-2,-3,6,22
1532146223755,15,56,14,9,2,-1,-2,-20
1532146223760,6,1,-4,1,-3,-3,-3,-3
1532146223765,-5,-21,-3,0,-2,-1,1,5
1532146223770,-3,7,-2,-5,0,0,-2,-6
1532146223775,-3,-28,-13,-11,-4,-1,-1,-6
1532146223780,2,22,12,11,0,2,-1,-1
1532146223785,0,-12,-2,0,-1,1,4,9
1532146223790,-6,-31,-4,-4,-4,2,-5,-9
1532146223795,-3,-7,-5,1,0,-1,0,-4
1532146223800,21,49,4,-4,1,-2,-3,7
1532146223805,0,-3,-4,0,-1,1,0,-9
1532146223810,4,9,5,-2,-1,-2,0,18
1532146223815,-17,-31,-7,0,4,3,0,-16
1532146223820,-8,1,-5,-2,-4,0,5,9
1532146223825,9,-19,-8,-8,-3,-5,-4,2
1532146223830,-1,26,7,4,3,-1,-1,-3
1532146223835,-1,-11,4,4,-2,-1,2,10
1532146223840,-3,-12,4,-3,-1,1,-2,4
1532146223845,-2,10,-1,1,1,1,1,-3
1532146223850,-2,-4,-13,-8,-9,-7,-1,6
1532146223855,-15,-19,0,-3,-2,1,1,2
1532146223860,-7,-4,-3,0,0,0,-5,-18
1532146223865,0,-41,9,5,0,-1,0,-3
1532146223870,19,42,-3,-1,1,0,-3,0
1532146223875,14,49,1,-1,-1,-3,-3,2
1532146223880,-11,-22,-3,-5,-3,-2,1,-2
1532146223885,-4,8,-1,-2,-1,-2,-2,0
1532146223890,-9,-18,3,-2,0,1,0,-4
1532146223895,-6,-11,-6,4,0,1,0,-4
1532146223900,3,-6,8,4,-1,2,4,12
1532146223905,-4,22,1,-1,0,1,-3,-2
1532146223910,6,-5,0,0,0,0,-3,-4
1532146223915,0,8,-5,-11,-4,-4,-3,3
1532146223920,6,-28,-5,1,-1,-4,-1,-9
1532146223925,-7,-6,-1,-1,-4,-2,3,14
1532146223930,-1,12,-7,-3,1,-2,1,-18
1532146223935,12,17,7,4,1,0,-11,-20
1532146223940,-4,5,-1,0,-2,-3,0,2
1532146223945,-6,18,0,-7,-2,-4,0,-1
1532146223950,5,13,2,1,0,3,3,13
1532146223955,7,-17,-10,3,0,-1,2,3
1532146223960,-6,-32,-1,2,1,-1,-1,-2
1532146223965,0,12,2,3,0,-1,-1,2
1532146223970,-3,-7,-10,-7,-3,1,3,4
1532146223975,4,19,5,2,1,1,-2,5
1532146223980,5,13,-2,-4,-1,-2,-1,-1
1532146223985,2,-7,-4,-3,0,3,-5,-7
1532146223990,-4,4,4,5,1,0,-1,-3
1532146223995,-18,-11,8,-3,-2,-3,2,-2
1532146224000,7,28,1,-3,-1,1,1,9
1532146224005,-7,-38,3,11,2,1,0,-1
1532146224010,4,15,3,-3,-2,0,-1,-3
1532146224015,7,-21,-20,-6,-4,-3,-1,1
1532146224020,4,24,6,0,-2,2,3,8
1532146224025,1,8,4,0,0,-2,0,-31
1532146224030,-5,-8,0,2,-2,-3,-10,3
1532146224035,4,-6,-6,-6,-2,-1,-3,1
1532146224040,1,4,0,4,0,1,2,6
1532146224045,2,5,1,-1,0,-3,8,14
1532146224050,-5,-9,-5,-1,2,-1,-2,-8
1532146224055,-14,10,17,8,0,0,-1,-30
1532146224060,-27,-99,-12,-4,-1,-1,1,-1
1532146224065,31,86,0,5,-1,-2,-5,5
1532146224070,11,42,-5,-6,-11,0,4,3
1532146224075,1,-2,1,-3,5,-7,1,12
1532146224080,-2,17,-2,-6,-1,-1,-4,-8
1532146224085,-21,-76,-9,-1,-3,0,0,4
1532146224090,2,-4,12,14,4,3,1,5
1532146224095,-5,-42,-8,-4,-4,0,-4,0
1532146224100,0,10,-6,-2,-1,5,2,-3
1532146224105,6,21,2,-7,0,-9,-14,-2
1532146224110,0,-6,-12,-4,-1,-1,2,-3
1532146224115,0,7,-3,0,2,-2,1,1
1532146224120,-3,0,-5,-8,-6,-3,-1,-5
1532146224125,-3,2,1,-5,-4,-3,-4,0
1532146224130,-5,-1,16,6,3,4,1,-4
1532146224135,-1,-16,-2,-1,0,-3,-4,0
1532146224140,9,26,-10,-5,-6,-3,-1,-3
1532146224145,9,10,-7,-2,-3,-1,-2,-1
1532146224150,-17,-33,5,0,0,-6,-1,2
1532146224155,-8,4,0,-7,-1,2,2,-1
1532146224160,1,2,2,9,6,1,0,1
1532146224165,5,16,10,5,0,3,0,-2
1532146224170,2,-9,-9,-5,3,-3,-3,-2
1532146224175,-2,0,-6,-7,-6,0,3,1
1532146224180,0,6,5,-1,1,-2,-3,-1
1532146224185,-5,-23,0,2,4,3,-2,1
1532146224190,3,-5,-5,-6,-4,-3,-2,3
1532146224195,2,13,8,9,7,6,16,-4
1532146224200,0,3,11,3,-1,5,1,-5
1532146224205,-10,-22,-10,-7,1,-7,-4,-2
1532146224210,-2,-35,-15,-11,-8,-2,0,5
1532146224215,-6,5,-8,-1,-1,5,2,8
1532146224220,11,7,19,15,-1,-2,-2,-6
1532146224225,-2,26,-1,-1,7,1,12,-3
1532146224230,-3,-38,-10,-8,-10,-10,-7,-10
1532146224235,-2,-13,-1,0,0,2,-2,7
1532146224240,4,2,2,0,3,4,6,16
1532146224245,2,6,-2,-4,-7,-5,5,26
1532146224250,6,2,5,4,3,2,-10,-27
1532146224255,-19,12,2,1,2,-6,-7,-38
1532146224260,3,-6,-10,-6,-5,-8,-1,5
1532146224265,-10,-5,5,1,-2,3,-1,-2
1532146224270,32,41,1,-4,1,0,3,2
1532146224275,-19,-50,-2,6,0,0,-5,-3
1532146224280,0,4,1,0,1,1,-10,5
1532146224285,-8,-8,-8,-2,-3,-2,22,21
1532146224290,35,7,-4,-3,3,7,10,67
1532146224295,-23,9,6,-9,-10,-6,-19,-54
1532146224300,-20,-11,-13,0,2,-8,-7,-49
1532146224305,-6,-34,-10,-5,0,3,-6,-12
1532146224310,-22,17,3,4,3,-4,3,28
1532146224315,17,-23,-9,-7,-3,1,7,30
1532146224320,7,-6,8,-2,-1,-3,-7,-11
1532146224325,7,21,-2,-2,-5,1,-2,-5
1532146224330,38,39,8,4,1,-2,3,12
1532146224335,-17,-9,5,6,1,-1,4,6
1532146224340,-54,-36,-8,2,-1,-1,-2,-24
1532146224345,15,-10,3,-2,-3,8,6,14
1532146224350,32,8,5,1,2,-2,-3,-11
1532146224355,-29,45,11,3,6,7,4,68
1532146224360,-2,-66,-11,-8,-7,-6,-24,-88
1532146224365,-34,58,16,2,-4,-3,-2,40
1532146224370,32,-3,-31,-5,-8,-7,0,25
1532146224375,-46,-42,-28,-6,0,-2,4,33
1532146224380,-3,-29,27,-1,0,0,-6,-27
1532146224385,-27,0,-48,-7,-3,-7,-21,-12
1532146224390,-38,9,45,8,-1,-3,-5,-55
1532146224395,39,31,-14,4,-2,3,6,25
1532146224400,-53,27,3,1,5,10,23,64
1532146224405,75,-61,-11,-10,-5,-15,-20,-3
1532146224410,-31,-13,-4,1,3,5,0,-58
1532146224415,68,4,5,-7,-7,-7,-8,-2
1532146224420,-77,23,7,3,-1,0,7,-13
1532146224425,31,14,12,3,-1,-5,-20,21
1532146224430,3,-20,-11,-6,-3,0,8,36
1532146224435,8,-3,10,1,-1,0,-3,-26
1532146224440,37,37,12,-10,-2,0,3,93
1532146224445,-75,-39,1,18,4,0,-4,-36
1532146224450,-34,-29,-21,-13,-3,-12,-12,-6
1532146224455,46,24,11,11,5,5,-1,14
1532146224460,42,17,-8,-3,-2,-7,20,87
1532146224465,12,-24,2,-11,0,5,12,-13
1532146224470,-27,63,57,8,-1,13,-3,-41
1532146224475,-22,-73,-45,14,0,-7,-6,-19
1532146224480,88,19,-5,4,0,-9,-11,-44
1532146224485,1,22,-8,0,2,1,7,12
1532146224490,5,-11,-1,-3,0,2,13,47
1532146224495,58,44,35,-5,-1,7,3,1
1532146224500,-51,17,-9,6,2,1,14,96
1532146224505,100,-1,0,-1,-2,-2,-18,-76
1532146224510,-72,-25,-7,-5,-3,-3,-1,42
1532146224515,2,3,36,-15,-13,-8,-4,30
1532146224520,-28,-5,-43,21,12,8,-3,-4
1532146224525,26,11,8,3,-1,0,16,46
1532146224530,8,-14,-15,5,8,11,3,-7
1532146224535,-20,2,3,-5,-8,-34,-7,-48
1532146224540,0,-16,5,-15,-8,7,-6,-41
1532146224545,-41,22,23,-3,-1,10,16,52
1532146224550,112,23,-11,13,4,-9,-17,-71
1532146224555,-3,11,-14,2,0,6,4,-2
1532146224560,-21,-27,-3,-6,-4,-6,-6,-19
1532146224565,29,11,15,2,0,-1,15,47
1532146224570,-60,11,25,-4,-8,3,-4,-36
1532146224575,-41,-47,-74,6,10,11,1,19
1532146224580,26,-12,-7,-3,2,-2,-13,15
1532146224585,-14,0,-5,-1,-3,5,6,-42
1532146224590,24,-10,11,-7,-4,-2,7,39
1532146224595,48,27,36,0,-5,6,5,3
1532146224600,-50,-66,-25,-5,-2,-19,-14,-53
1532146224605,-25,37,8,1,14,4,24,30
1532146224610,-11,-33,-19,0,-5,-24,-14,8
1532146224615,4,3,6,1,1,-2,9,80
1532146224620,16,24,43,-11,-11,-6,-12,-87
1532146224625,-13,-5,-23,6,-1,-12,-7,10
1532146224630,20,-21,-46,-3,2,10,19,68
1532146224635,-18,9,3,-6,-3,9,-2,-72
1532146224640,38,15,17,-1,-1,1,8,17
1532146224645,-1,29,56,-11,-5,7,-19,-108
1532146224650,-16,-3,-32,14,3,-13,1,-16
1532146224655,2,-18,-23,-3,-7,-15,-6,28
1532146224660,17,11,-7,2,9,44,19,110
1532146224665,-22,-8,-7,-5,-1,4,-23,-96
1532146224670,-66,-8,14,-5,-1,8,9,44
1532146224675,9,40,37,-6,-8,-27,-22,-114
1532146224680,-15,2,-20,9,6,-1,3,41
1532146224685,49,-15,-25,-2,1,42,16,111
1532146224690,-4,-7,2,-1,0,-34,-33,2
1532146224695,-8,-6,-3,-4,-8,-1,18,55
1532146224700,-16,32,52,1,0,-37,-22,-103
1532146224705,27,1,-29,1,-3,-6,-1,58
1532146224710,-14,-31,-37,-3,-2,15,2,21
1532146224715,27,6,11,4,8,-13,1,33
1532146224720,10,4,-12,-3,0,18,-8,-15
1532146224725,61,37,19,-8,-8,-9,7,11
1532146224730,-46,-20,36,9,-3,-3,-7,-74
1532146224735,-13,-20,-32,5,8,11,7,68
1532146224740,-3,4,-4,-4,-5,-4,0,-53
1532146224745,-51,5,-10,-6,-1,-14,-18,-48
1532146224750,41,-4,15,-3,-1,11,5,32
1532146224755,-36,20,12,-2,-2,-45,5,22
1532146224760,9,2,-10,0,2,63,6,13
1532146224765,-28,-31,2,2,-3,-15,0,36
1532146224770,38,32,15,-7,-5,-3,-12,-103
1532146224775,-9,-12,-2,5,3,6,-2,-7
1532146224780,-8,0,-38,-10,-8,-17,0,9
1532146224785,-7,-48,-14,2,-1,-26,17,101
1532146224790,1,7,5,-2,0,7,-21,-75
1532146224795,22,17,21,-6,3,22,-3,2
1532146224800,8,-13,11,0,-8,-11,-3,33
1532146224805,-36,-26,-32,7,2,3,1,-7
1532146224810,10,20,4,2,3,-7,9,50
1532146224815,4,-14,-3,-7,-2,10,-2,-8
1532146224820,67,27,32,-6,-2,-8,11,6
1532146224825,-25,4,22,1,0,-12,-4,-40
1532146224830,0,-44,-66,2,2,5,-7,-17
1532146224835,-13,-8,3,1,-2,10,-4,-63
1532146224840,30,31,1,1,1,-5,23,87
1532146224845,-57,-7,16,-8,-3,3,-23,-110
1532146224850,6,5,5,-3,1,8,8,50
1532146224855,-7,-6,-14,-2,-13,-6,-12,5
1532146224860,-11,-17,-2,0,2,-8,1,9
1532146224865,31,15,1,0,-2,1,6,73
1532146224870,-9,26,4,-4,-3,-4,-6,-58
1532146224875,6,4,6,3,2,16,3,45
1532146224880,-16,-32,-5,-2,-4,-7,1,22
1532146224885,2,-6,-18,-2,-10,-13,-10,-12
1532146224890,29,-5,-1,3,14,34,27,32
1532146224895,-21,14,17,-5,-3,8,-19,-63
1532146224900,-9,-8,-14,3,1,-7,-4,-6
1532146224905,9,-13,19,3,3,11,17,67
1532146224910,-47,-44,-21,-2,-6,-22,-16,-48
1532146224915,-6,2,-22,-7,0,-5,-4,-16
1532146224920,-24,-38,-27,7,3,-2,-6,12
1532146224925,18,9,5,-3,1,6,-6,-8
1532146224930,57,18,18,-2,-1,2,18,63
1532146224935,-34,17,20,-6,-4,-4,-15,-15
1532146224940,16,-28,-12,-2,-4,-9,-11,-18
1532146224945,-15,-7,-20,6,5,-2,4,-1
1532146224950,-11,-9,-8,-3,-5,0,9,41
1532146224955,44,2,9,6,5,19,2,-10
1532146224960,-18,18,12,-5,0,-15,-9,-35
1532146224965,3,15,27,0,-1,-14,-5,-29
1532146224970,20,-22,-4,8,2,0,3,36
1532146224975,-5,29,-20,-5,-1,-2,7,18
1532146224980,-10,18,32,-2,-2,9,5,-9
1532146224985,63,-23,-34,-4,-3,-5,-7,-41
1532146224990,-52,7,4,-6,-5,-9,-8,0
1532146224995,-24,-13,0,6,3,-5,1,6
1532146225000,4,13,8,7,7,-4,8,77
1532146225005,-51,-38,1,-1,-1,-6,-14,-30
1532146225010,41,36,18,-8,-8,21,11,-33
1532146225015,32,-2,-17,1,0,0,-2,1
1532146225020,-16,-34,4,3,7,-4,-9,-15
1532146225025,10,15,0,-6,-2,10,27,82
1532146225030,-2,9,16,-2,-1,-6,-11,-67
1532146225035,-15,-12,-19,7,-2,-15,-1,27
1532146225040,31,11,-14,-3,-4,8,-7,-25
1532146225045,-15,-18,-18,7,9,5,-2,-17
1532146225050,-12,-18,-40,-12,-5,-16,1,53
1532146225055,-1,13,13,-7,0,16,6,-9
1532146225060,-27,9,7,2,-4,2,4,-5
1532146225065,40,11,14,3,3,5,-1,-12
1532146225070,-1,30,22,1,1,-3,3,17
1532146225075,1,-17,-1,1,0,-2,-9,-16
1532146225080,-1,-5,-22,-1,-3,-1,-4,-29
1532146225085,-32,23,6,-5,-8,-21,1,25
1532146225090,-3,13,10,2,3,12,-2,-22
1532146225095,22,-2,7,-1,-2,-4,3,-5
1532146225100,3,-6,-6,-3,-1,13,3,-4
1532146225105,-16,12,3,-2,-12,-15,-5,23
1532146225110,15,-6,-4,-1,-1,-15,-13,-23
1532146225115,5,-15,7,5,5,7,3,21
1532146225120,1,37,59,-8,-7,-7,-1,-7
1532146225125,-20,-16,-63,9,2,9,-7,-17
1532146225130,-44,-4,12,2,-6,-2,3,48
1532146225135,-15,-23,-28,-7,-5,-8,-4,-41
1532146225140,-9,-6,3,0,3,9,-8,11
1532146225145,110,45,30,-6,5,20,13,-56
1532146225150,-54,-51,-1,3,-4,-8,-2,30
1532146225155,1,-4,9,4,4,2,7,12
1532146225160,-13,7,-21,-4,-5,-6,3,17
1532146225165,3,-9,8,1,4,6,-2,1
1532146225170,6,5,-10,-4,0,3,-1,-4
1532146225175,-15,27,46,-8,-3,-3,-4,-54
1532146225180,-13,-54,-40,6,0,-6,-1,18
1532146225185,-38,-9,-10,-2,-3,4,-2,18
1532146225190,12,21,-9,-2,2,0,-2,-11
1532146225195,-1,-12,-5,-2,1,-14,-2,-5
1532146225200,11,22,2,-4,-1,-6,5,15
1532146225205,-30,-7,11,0,2,2,-4,-30
1532146225210,64,-9,5,1,-3,4,2,25
1532146225215,-19,-1,-8,-2,-9,18,12,42
1532146225220,-6,12,-7,-2,0,-30,-18,-48
1532146225225,-21,-4,16,-11,-8,-3,-4,35
1532146225230,18,-7,-37,4,-2,-7,-4,-31
1532146225235,-45,2,13,11,4,-1,4,38
1532146225240,11,-10,-15,-3,-4,4,-4,-17
1532146225245,-5,27,16,4,4,13,0,65
1532146225250,12,-13,11,-5,2,1,7,-54
1532146225255,29,27,50,-9,-6,-1,2,-18
1532146225260,-56,7,-52,15,2,2,-4,28
1532146225265,-9,-42,-24,-8,-3,-12,-7,-58
1532146225270,-32,3,-6,0,2,4,8,33
1532146225275,23,-13,-17,-5,2,4,-8,-15
1532146225280,23,27,34,-3,0,4,6,-6
1532146225285,36,0,37,3,-1,-10,-2,-26
1532146225290,12,34,-17,5,2,11,-1,51
1532146225295,-42,-10,-22,-9,-2,-7,8,31
1532146225300,-1,6,9,-2,3,13,5,-42
1532146225305,-28,-9,-20,3,-1,-14,-11,-35
1532146225310,7,-1,20,-2,-1,-2,-12,-9
1532146225315,29,4,-1,3,-2,18,9,22
1532146225320,3,-13,0,0,-7,-19,1,60
1532146225325,-9,3,-5,-4,2,12,-11,-75
1532146225330,-62,-11,13,-6,-4,-19,0,14
1532146225335,15,19,-17,5,3,-4,-4,6
1532146225340,-4,-25,-25,-4,0,0,-3,1
1532146225345,18,4,2,1,1,7,-4,9
1532146225350,27,-1,1,-2,-5,-5,17,18
1532146225355,9,-10,7,4,3,1,-1,16
1532146225360,-5,33,11,-5,-4,4,-8,-58
1532146225365,-60,-83,-49,-1,1,-1,-2,-41
1532146225370,12,-10,-3,-3,-7,-19,-11,13
1532146225375,12,-11,-11,1,7,25,8,-8
1532146225380,-2,12,25,-2,-2,-8,4,31
1532146225385,-11,-41,10,3,-1,2,4,35
1532146225390,6,49,4,2,8,-1,-10,-26
1532146225395,29,27,-15,-7,-3,-11,3,63
1532146225400,20,-1,-1,4,-2,-4,-13,-84
1532146225405,-9,6,6,-6,-5,-5,0,-8
1532146225410,20,61,10,1,4,28,13,33
1532146225415,-38,-14,-8,-5,-12,-68,-37,-24
1532146225420,18,-2,-8,0,-2,53,44,42
1532146225425,-8,32,-1,-1,3,-22,-39,-16
1532146225430,-13,4,12,-9,-13,-13,-3,-10
1532146225435,22,1,-9,8,2,12,3,-10
1532146225440,-13,-25,-14,-6,-4,-18,3,8
1532146225445,21,21,27,2,0,-7,13,60
1532146225450,8,-25,-35,0,3,20,-2,5
1532146225455,-1,-18,-11,6,0,4,-5,-100
1532146225460,-39,-35,-11,-1,3,-14,-5,-7
1532146225465,22,44,26,-3,-3,17,17,27
1532146225470,-2,-62,-41,6,3,-9,-8,39
1532146225475,-19,7,19,-8,-3,13,6,-1
1532146225480,17,-3,8,11,0,2,-17,1
1532146225485,-28,-53,-59,-13,-2,1,-4,-53
1532146225490,-65,35,30,8,-4,-1,24,-6
1532146225495,17,17,5,3,6,-13,-45,13
1532146225500,17,21,40,-2,-1,15,22,29
1532146225505,-4,41,15,-1,-4,4,5,28
1532146225510,-2,-41,-17,-8,-3,-3,5,-29
1532146225515,16,-23,-15,-2,-5,-1,23,28
1532146225520,-12,21,2,-2,9,-5,1,30
1532146225525,16,-1,-3,2,-4,6,-3,-19
1532146225530,16,13,33,-5,6,-7,-5,-10
1532146225535,-2,-14,-34,2,-4,6,3,-2
1532146225540,-14,-24,-7,0,10,-16,0,63
1532146225545,-3,32,13,2,-2,-2,-7,-82
1532146225550,-17,-11,-10,-8,-11,-5,-18,21
1532146225555,-8,-7,24,-3,3,-9,10,-42
1532146225560,21,14,-6,5,-1,7,-1,-8
1532146225565,3,-20,-34,-15,0,0,-5,37
1532146225570,40,22,25,18,1,4,2,32
1532146225575,-58,-31,-20,2,11,0,-26,-45
1532146225580,7,8,10,-2,-6,-3,1,3
1532146225585,83,-2,23,0,0,5,8,-2
1532146225590,43,18,2,-9,1,-9,-5,-38
1532146225595,33,2,-5,-1,-3,11,-1,1
1532146225600,20,3,-2,-5,-7,-1,-13,-14
1532146225605,-1,6,23,6,1,0,5,24
1532146225610,4,-21,-22,3,3,-16,1,40
1532146225615,4,36,15,-3,-2,-5,12,-6
1532146225620,-14,-38,-28,-3,-1,0,-11,-24
1532146225625,-17,-1,-2,0,-2,3,1,23
1532146225630,-29,-8,-18,4,4,22,-10,-21
1532146225635,8,19,17,-1,1,-17,7,45
1532146225640,7,-7,9,-5,-15,3,0,14
1532146225645,-8,39,64,-9,-6,-18,1,38
1532146225650,-8,7,16,1,-5,7,0,-56
1532146225655,-9,-53,-65,11,4,1,-15,-26
1532146225660,0,2,13,-9,1,2,-5,15
1532146225665,-9,-6,-29,4,0,-1,-1,16
1532146225670,6,10,40,-8,-3,-6,-3,-2
1532146225675,26,39,32,-7,-5,9,17,35
1532146225680,-9,-22,-32,11,7,-3,-4,-29
1532146225685,-23,-12,7,-3,-1,-3,0,4
1532146225690,-1,-7,-34,-2,1,-2,0,-14
1532146225695,13,-10,-17,2,3,-1,8,103
1532146225700,-45,-1,2,-6,7,1,-17,-88
1532146225705,-4,6,-16,1,-1,-1,-3,-107
1532146225710,-12,-15,7,-5,-2,1,-4,2
1532146225715,2,10,46,-6,-1,0,4,40
1532146225720,7,32,5,7,-1,8,14,72
1532146225725,-28,-65,-37,-5,-2,-3,-1,-29
1532146225730,-34,2,23,-2,-2,-7,-18,-35
1532146225735,-4,-24,-49,12,-1,-2,1,-21
1532146225740,3,-6,8,-8,3,1,0,-2
1532146225745,24,16,-10,8,2,5,5,60
1532146225750,1,-33,-16,-8,4,2,-3,-15
1532146225755,15,20,40,0,-6,2,-5,-20
1532146225760,1,2,-1,-3,6,-2,-17,-23
1532146225765,6,20,-6,2,-3,-3,6,47
1532146225770,19,12,17,-4,-3,-1,6,9
1532146225775,25,10,-5,1,-1,6,4,22
1532146225780,7,-29,-39,6,-10,-9,3,13
1532146225785,-15,10,-9,3,-9,-12,0,-14
1532146225790,3,-7,-1,7,13,6,-3,-22
1532146225795,2,13,25,-8,11,20,7,7
1532146225800,5,17,26,-7,-5,1,-8,-34
1532146225805,10,-14,-38,-4,-8,-7,0,18
1532146225810,-9,-15,-16,5,-7,1,-2,25
1532146225815,-1,-5,-3,-3,-14,-5,10,44
1532146225820,-10,39,57,-1,-23,4,-6,-76
1532146225825,-12,-17,-33,0,47,6,-5,-37
1532146225830,11,-19,-15,0,1,8,1,-13
1532146225835,-11,-21,-36,6,-4,-7,-12,10
1532146225840,20,8,1,-4,-7,0,2,34
1532146225845,-1,31,53,-7,-20,-23,0,-27
1532146225850,7,-13,-29,5,2,0,6,29
1532146225855,10,11,6,-6,2,10,0,14
1532146225860,-38,-27,-1,2,3,-6,-1,-69
1532146225865,9,1,-2,-1,3,8,-1,37
1532146225870,7,8,9,-6,-2,-9,5,21
1532146225875,17,11,14,0,-1,9,9,-23
1532146225880,8,8,20,-2,22,-14,-11,-29
1532146225885,12,6,-9,11,-54,16,7,51
1532146225890,-6,39,1,-8,62,7,9,-1
1532146225895,-47,2,23,-2,-11,2,2,-23
1532146225900,18,-23,-57,7,-6,-5,3,46
1532146225905,12,2,5,1,9,18,-4,-13
1532146225910,2,-4,-12,-9,-19,-9,-15,-49
1532146225915,-19,3,15,5,-4,-17,-3,-19
1532146225920,3,30,46,-1,12,9,16,15
1532146225925,13,18,5,-10,-6,-6,5,15
1532146225930,14,7,-40,17,-16,3,-9,26
1532146225935,-13,-15,-1,-10,0,-10,-18,-77
1532146225940,22,2,-3,8,2,12,-7,53
1532146225945,-22,-13,4,-5,20,47,10,-47
1532146225950,-13,3,16,-15,-30,-79,-6,23
1532146225955,0,14,65,-6,-12,-12,-2,-1
1532146225960,13,-39,-108,0,11,-21,-11,33
1532146225965,-15,5,15,8,5,5,-3,14
1532146225970,-9,-11,-10,4,1,19,-14,-62
1532146225975,-18,-4,1,-8,2,16,16,30
1532146225980,-14,-9,11,-10,-27,-38,-7,-24
1532146225985,15,-28,-16,1,10,23,-5,-4
1532146225990,-6,-39,-23,-11,11,14,9,16
1532146225995,21,0,10,6,-22,-23,-7,57
1532146226000,-18,22,6,10,12,56,13,-59
1532146226005,-12,-3,-9,-4,-3,-44,-10,40
1532146226010,1,32,72,-5,-28,28,-9,-58
1532146226015,-1,-20,-69,12,23,16,2,-11
1532146226020,-2,-13,24,-11,-15,-4,10,54
1532146226025,18,64,65,9,10,-11,-1,28
1532146226030,-38,-81,-88,12,-15,-3,-10,22
1532146226035,-17,-26,8,-19,6,-22,-5,-70
1532146226040,4,11,12,3,-30,-18,-12,14
1532146226045,-7,19,6,-4,-3,-15,10,61
1532146226050,-4,14,55,11,7,5,4,-44
1532146226055,-13,-11,-59,-5,-22,-8,-4,8
1532146226060,-3,-8,2,-1,14,15,0,9
1532146226065,-1,-9,5,-12,-30,-19,6,30
1532146226070,5,28,13,2,-33,-2,3,-19
1532146226075,12,-2,-13,-10,13,16,-22,-33
1532146226080,21,34,3,-10,-9,5,4,17
1532146226085,15,-8,-27,-12,11,-1,-6,-10
1532146226090,-5,42,73,24,0,-2,16,8
1532146226095,14,-41,-83,7,17,9,-9,22
1532146226100,-15,6,26,-4,13,-25,-19,-68
1532146226105,-1,-23,9,2,-8,14,13,6
1532146226110,1,-9,6,-3,-56,-5,11,73
1532146226115,1,29,30,-4,66,32,6,-42
1532146226120,-2,-10,15,10,-5,-13,23,96
1532146226125,-23,-30,-7,-4,-7,-20,-29,-128
1532146226130,-17,-35,-55,-4,13,-14,-9,-26
1532146226135,7,55,12,11,-16,8,3,12
1532146226140,-6,-20,-16,-6,-38,-14,11,43
1532146226145,-7,-8,-10,-4,18,-4,-4,11
1532146226150,-8,22,39,-13,40,12,24,38
1532146226155,51,-13,-1,4,-71,14,10,116
1532146226160,-47,25,-15,-4,49,-20,-41,-112
1532146226165,-29,8,-7,11,0,-15,-13,8
1532146226170,30,18,39,-12,4,-12,1,48
1532146226175,-20,-31,-58,0,-15,-20,-3,1
1532146226180,9,-18,34,-9,-10,13,11,39
1532146226185,10,24,34,34,21,28,13,-14
1532146226190,26,-10,-42,-7,16,9,5,64
1532146226195,15,21,56,6,9,21,16,14
1532146226200,-28,5,1,-19,-45,-87,-49,-102
1532146226205,14,-14,-3,-1,-14,-2,12,47
1532146226210,6,22,-15,3,-10,21,7,23
1532146226215,-4,-7,16,3,19,42,1,-36
1532146226220,3,-2,-17,-5,16,35,-11,1
1532146226225,-12,-23,-17,-9,-12,21,-1,-39
1532146226230,-6,15,-14,-12,-20,-25,-7,-7
1532146226235,-1,0,5,2,5,-9,-8,-40
1532146226240,11,25,45,-8,-16,-5,1,3
1532146226245,-12,-53,-102,11,5,-7,-4,52
1532146226250,22,-23,19,5,16,21,0,-7
1532146226255,0,30,-21,-4,12,-21,-4,24
1532146226260,13,-13,19,14,27,-12,28,-1
1532146226265,5,19,23,-14,-59,-21,-14,-20
1532146226270,-29,-14,-31,-7,28,-3,23,35
1532146226275,-19,-5,32,0,8,-31,-42,-70
1532146226280,25,18,-7,2,-9,46,53,127
1532146226285,8,-2,28,-15,25,-16,-15,-79
1532146226290,3,13,-24,19,6,-13,-4,29
1532146226295,-23,-40,-3,-7,-20,-41,-6,-60
1532146226300,-20,-14,-15,0,11,-11,2,81
1532146226305,3,-11,-32,0,6,69,20,58
1532146226310,18,27,54,-18,-2,-10,-10,22
1532146226315,-3,-8,-33,4,-4,-8,45,115
1532146226320,1,12,13,11,1,10,-22,-94
1532146226325,-4,-28,-12,-3,2,1,4,-86
1532146226330,33,22,58,14,-16,-21,-20,17
1532146226335,-28,-46,-49,-6,30,35,0,-38
1532146226340,-19,-18,-40,-10,-11,36,-28,-77
1532146226345,32,23,11,6,18,-25,36,127
1532146226350,-50,-2,-13,-11,-28,-13,-55,-125
1532146226355,8,37,55,7,-14,-5,-7,43
1532146226360,21,-55,-65,-3,32,14,43,109
1532146226365,3,-3,24,-15,17,-6,-33,-94
1532146226370,-20,-42,-53,-1,-8,-13,3,-42
1532146226375,45,115,127,-25,-9,-19,7,0
1532146226380,-45,-99,-108,24,13,0,-20,63
1532146226385,19,5,0,4,-9,-7,5,55
1532146226390,24,39,69,-11,23,42,27,-22
1532146226395,3,-32,-33,6,-10,-18,11,61
1532146226400,-40,33,-3,-22,-62,-21,-28,-90
1532146226405,-45,-27,-39,-4,39,-1,-30,18
1532146226410,81,0,-29,15,-5,16,53,72
1532146226415,-64,17,24,-5,-11,47,-86,-77
1532146226420,-46,-45,-12,-19,-22,-25,20,89
1532146226425,28,22,9,0,-9,-52,37,57
1532146226430,-46,33,86,-5,-30,-6,-57,-84
1532146226435,42,-12,-75,6,-4,14,50,127
1532146226440,50,-21,-46,10,5,8,-10,41
1532146226445,-38,14,43,1,-11,-63,-12,68
1532146226450,28,-6,-3,10,29,23,26,83
1532146226455,49,20,14,0,-24,-30,4,48
1532146226460,-46,43,43,-6,67,18,-26,-128
1532146226465,-20,-22,-32,-8,-26,36,23,34
1532146226470,-4,6,-25,-5,-14,-27,4,-45
1532146226475,5,51,45,13,-28,-41,-9,49
1532146226480,10,-72,-58,12,38,21,18,-19
1532146226485,-4,18,18,-12,4,-6,-18,-27
1532146226490,6,-27,-26,13,26,46,7,23
1532146226495,-46,-19,24,-22,-16,36,-17,-107
1532146226500,-1,49,25,16,-10,-28,13,54
1532146226505,4,-9,2,6,-14,3,-6,22
1532146226510,27,-20,-20,-7,-5,-27,-28,82
1532146226515,98,62,79,2,18,-16,61,16
1532146226520,-28,-40,-33,17,-32,-53,-12,11
1532146226525,-18,28,-8,2,22,42,2,57
1532146226530,-54,-63,-128,-14,-10,-13,-28,-76
1532146226535,11,-34,-13,3,28,1,16,66
1532146226540,86,49,51,0,-8,-9,50,111
1532146226545,-51,53,75,-20,-21,50,-62,-128
1532146226550,-14,-59,-49,13,34,23,22,109
1532146226555,-35,-19,-20,2,-6,-8,-17,-57
1532146226560,39,40,49,-10,-43,45,0,32
1532146226565,32,30,14,15,40,-15,13,25
1532146226570,18,4,12,-18,-4,19,12,-16
1532146226575,-74,-30,-82,40,38,25,-12,20
1532146226580,-75,-34,-12,-16,-7,-12,-19,12
1532146226585,94,21,15,1,-24,-35,5,-1
1532146226590,-58,3,9,-13,-36,-39,6,82
1532146226595,-2,16,16,-17,4,-4,-20,-36
1532146226600,39,14,4,-8,-5,2,-49,-96
1532146226605,-32,-11,-24,10,55,18,24,90
1532146226610,26,72,103,-1,10,-9,36,127
1532146226615,30,-115,-80,13,-26,67,1,3
1532146226620,17,81,79,-2,30,10,21,53
1532146226625,-18,-77,-52,-23,-56,-60,-44,-128
1532146226630,-25,-13,-1,29,44,22,-2,-76
1532146226635,38,-25,-35,-28,-28,-107,43,112
1532146226640,-35,4,-4,6,-60,29,-54,-128
1532146226645,24,7,12,10,35,65,25,113
1532146226650,43,32,23,3,7,-64,41,98
1532146226655,-40,5,17,8,-7,37,-44,-92
1532146226660,-30,5,17,-12,-4,49,-31,-48
1532146226665,-12,-5,-11,0,70,8,40,114
1532146226670,72,13,-8,10,-35,29,69,49
1532146226675,-103,17,73,-19,37,-5,-53,-28
1532146226680,69,-6,-38,14,10,-17,40,98
1532146226685,-41,74,7,-7,-97,-62,-77,-128
1532146226690,-4,-16,-22,29,104,90,23,84
1532146226695,24,33,44,-9,-22,-48,25,47
1532146226700,63,10,11,15,30,22,29,9
1532146226705,-19,-23,-15,-16,-1,-18,53,127
1532146226710,-21,-3,-23,-20,-72,-77,-106,-128
1532146226715,-6,13,-10,-9,21,91,10,96
1532146226720,55,0,11,-26,-3,-17,11,127
1532146226725,-17,-12,-1,21,-7,12,-9,-75
1532146226730,-41,-29,-17,-17,-103,27,-18,12
1532146226735,36,39,15,3,40,14,37,92
1532146226740,-45,-31,21,-4,-24,-23,-7,84
1532146226745,12,-60,-59,1,-12,-9,-52,-92
1532146226750,-12,6,-26,-8,-9,-20,-18,81
1532146226755,47,-46,-51,-17,-13,-12,36,92
1532146226760,-3,75,39,5,4,-50,9,-73
1532146226765,-8,9,-22,8,-9,-22,-8,1
1532146226770,-3,22,52,-6,4,9,-28,-38
1532146226775,9,-18,-26,-9,-8,-15,-4,-32
1532146226780,18,-26,-4,-5,8,41,59,122
1532146226785,-3,4,33,-15,-14,39,-37,-81
1532146226790,61,69,57,-16,35,-44,43,53
1532146226795,-102,-42,-80,7,1,-5,-54,-45
1532146226800,44,28,3,23,30,21,59,72
1532146226805,-53,36,41,6,-26,-33,-44,-67
1532146226810,32,-12,-4,-12,-10,-1,3,47
1532146226815,68,99,113,26,27,13,32,-9
1532146226820,-49,-80,-93,-19,-4,-3,-28,-2
1532146226825,30,60,3,-1,1,25,50,127
1532146226830,4,-23,0,19,38,36,-17,-128
1532146226835,-71,29,13,-9,-18,-59,-60,-126
1532146226840,-22,-34,-22,-18,-27,-34,-1,11
1532146226845,49,7,19,-2,37,23,30,69
1532146226850,-4,6,-19,-26,-47,-64,15,72
1532146226855,42,-67,-24,22,-91,-26,-48,7
1532146226860,-88,-10,4,-2,99,-33,-21,13
1532146226865,-2,-21,-19,-2,-14,6,17,114
1532146226870,32,30,28,7,48,43,-13,-77
1532146226875,-11,-3,-5,8,11,-25,39,-39
1532146226880,48,50,45,-4,-31,-45,-2,-3
1532146226885,70,4,34,23,34,-6,9,43
1532146226890,-83,-18,-83,-5,-41,23,3,32
1532146226895,10,-29,-18,-8,28,44,82,127
1532146226900,-46,49,38,1,-19,-29,-78,-122
1532146226905,-6,-3,-50,-10,14,45,37,62
1532146226910,49,5,-1,6,15,-40,16,85
1532146226915,-41,-19,-30,-10,4,-5,-27,-104
1532146226920,35,38,28,-2,-10,18,47,81
1532146226925,-37,-51,-14,-16,-44,-7,-59,-89
1532146226930,33,31,12,20,26,9,46,50
1532146226935,38,-43,-27,-16,-15,4,-27,-12
1532146226940,67,13,8,15,20,38,13,10
1532146226945,-26,-7,21,12,-3,-39,18,27
1532146226950,14,-23,-1,8,18,-12,-18,5
1532146226955,36,80,70,-4,-6,-30,50,127
1532146226960,-23,86,48,-2,-31,13,-37,-82
1532146226965,7,-109,-108,10,17,6,22,127
1532146226970,-1,-29,33,-11,12,31,21,52
1532146226975,-90,-38,-25,-5,-10,-28,-36,98
1532146226980,31,-15,-1,-2,-5,-29,14,115
1532146226985,55,49,56,6,6,-43,3,21
1532146226990,-20,20,-4,15,49,68,42,127
1532146226995,29,16,-7,-13,-31,-77,3,-80
1532146227000,-92,-51,-36,-5,95,50,-33,-99
1532146227005,32,40,31,11,-57,-21,26,58
1532146227010,-49,-50,-40,-18,-55,-87,-77,-128
1532146227015,33,23,9,18,54,76,106,127
1532146227020,-28,-8,7,-16,-38,-84,-85,-89
1532146227025,75,76,47,-6,-21,-49,40,118
1532146227030,-58,-57,-42,6,0,5,-37,-128
1532146227035,-8,-29,-59,29,25,37,-73,-128
1532146227040,-2,-37,-20,2,-33,-60,59,102
1532146227045,54,17,45,32,96,101,48,62
1532146227050,-26,52,43,-13,-31,-47,-39,67
1532146227055,-39,-7,0,-25,-20,-46,-29,75
1532146227060,112,50,21,36,54,94,108,127
1532146227065,-73,-11,-20,-40,-45,-67,-83,-128
1532146227070,-8,-12,8,10,12,30,19,36
1532146227075,29,7,-2,8,48,56,28,91
1532146227080,41,-23,-18,-12,-20,82,44,127
1532146227085,-7,-2,-4,-26,-51,-54,-77,-56
1532146227090,93,10,8,29,47,41,89,93
1532146227095,-39,46,53,-29,-37,-19,-87,-94
1532146227100,-24,0,-28,10,-28,-47,-1,100
1532146227105,65,-38,-6,21,76,118,80,85
1532146227110,-101,26,30,-55,-65,-77,-122,-78
1532146227115,34,26,-6,48,21,47,62,127
1532146227120,38,14,40,28,60,76,39,58
1532146227125,-75,38,3,-27,-84,-128,-90,-110
1532146227130,-62,-65,-26,16,21,-34,50,37
1532146227135,116,72,49,-22,22,61,25,52
1532146227140,35,-29,-39,-20,-3,17,-28,18
1532146227145,-1,7,6,-13,-12,19,58,37
1532146227150,39,-8,-5,0,-4,-28,-75,89
1532146227155,-91,-36,-9,-3,-16,-20,8,22
1532146227160,22,8,8,-20,-35,-22,-36,-120
1532146227165,33,-17,1,15,32,84,75,49
1532146227170,-32,65,40,8,25,56,-6,-72
1532146227175,45,-10,-14,-7,2,-1,1,43
1532146227180,-26,-30,-17,16,9,-8,-11,-8
1532146227185,21,-55,-38,16,50,-22,29,85
1532146227190,10,22,-3,7,-16,1,-4,-64
1532146227195,38,-15,-8,-10,-11,-31,-33,48
1532146227200,-13,60,39,0,16,77,20,15
1532146227205,-28,8,-10,-13,-2,26,-44,-95
1532146227210,-26,-21,-25,-2,-22,-80,6,33
1532146227215,20,50,29,5,0,16,14,22
1532146227220,41,-17,-8,9,27,22,6,81
1532146227225,70,-15,6,20,41,90,30,54
1532146227230,-21,-18,-8,-3,58,-58,-23,52
1532146227235,-50,-4,-20,-28,-69,-91,-15,-117
1532146227240,-10,-4,-4,-3,-40,-19,-15,60
1532146227245,-105,-11,-13,-18,-38,-40,-54,-116
1532146227250,-54,-9,22,3,-2,29,-12,-76
1532146227255,-1,27,28,18,19,28,46,124
1532146227260,3,38,25,-13,-11,5,-24,-11
1532146227265,30,-17,-40,-5,19,61,51,60
1532146227270,58,-11,-15,-12,-13,-96,-14,22
1532146227275,-45,7,2,6,-59,-19,-35,86
1532146227280,9,10,16,17,-9,22,-46,-50
1532146227285,-1,-23,-24,9,14,68,3,53
1532146227290,9,41,24,-19,-10,0,-4,-37
1532146227295,-36,1,27,-13,5,-71,-24,-65
1532146227300,38,45,-57,8,0,57,36,98
1532146227305,-68,-1,-10,-21,-12,-99,-76,-128
1532146227310,3,43,16,0,-35,-14,-1,50
1532146227315,95,9,-4,6,21,75,59,120
1532146227320,-5,35,49,-15,-29,-49,-74,-116
1532146227325,-10,16,8,-4,10,1,21,63
1532146227330,96,20,-11,4,-8,53,35,127
1532146227335,-18,-33,-11,-5,-22,-8,-14,73
1532146227340,-19,-25,14,-7,26,16,33,34
1532146227345,-31,-48,-48,-16,-10,4,-9,55
1532146227350,-27,-5,0,-1,-7,-65,-15,-128
1532146227355,92,-20,-36,-9,11,24,20,57
1532146227360,-55,1,10,5,8,26,28,7
1532146227365,-76,-39,8,28,6,-62,-15,-52
1532146227370,-36,-19,-6,-7,-2,-15,-29,18
1532146227375,-6,-5,-18,-1,4,-40,-10,52
1532146227380,3,-33,-18,-9,13,75,70,127
1532146227385,-63,57,41,-29,-116,-108,-40,-38
1532146227390,6,5,0,19,69,101,11,94
1532146227395,-113,-58,-46,21,29,27,-7,44
1532146227400,52,53,-6,-1,-7,-32,1,-14
1532146227405,18,-84,-63,-9,0,27,17,26
1532146227410,80,43,37,22,25,86,89,24
1532146227415,-106,18,-6,-35,-66,-65,-50,-111
1532146227420,30,19,52,24,-11,-82,-24,47
1532146227425,54,42,33,20,24,-28,23,53
1532146227430,57,-29,-29,5,47,81,58,122
1532146227435,-53,7,18,9,-16,-104,-39,-100
1532146227440,-88,-14,-8,-17,-20,62,-26,-91
1532146227445,34,13,-2,-12,18,22,5,100
1532146227450,64,6,8,-1,6,-5,37,125
1532146227455,-44,47,40,-9,-22,-10,-19,-18
1532146227460,-30,-48,-44,2,3,-44,-35,-99
1532146227465,-42,-84,-89,-6,-11,-25,26,120
1532146227470,-44,6,13,4,-13,-18,-21,-99
1532146227475,30,21,2,4,33,47,18,7
1532146227480,46,68,45,-5,19,13,4,7
1532146227485,26,33,31,-3,0,34,26,15
1532146227490,-9,-40,-32,-12,-31,-60,-40,-79
1532146227495,-49,-2,-6,7,0,-16,-25,-40
1532146227500,22,-7,5,5,37,13,60,127
1532146227505,-4,6,2,1,-5,13,-49,-99
1532146227510,22,15,3,5,32,30,-2,74
1532146227515,73,18,5,-4,-11,71,17,106
1532146227520,22,-20,0,8,7,2,13,22
1532146227525,21,21,19,18,37,66,34,32
1532146227530,-59,-22,-19,-19,-30,2,-62,-128
1532146227535,30,-13,-19,-1,8,-75,-10,6
1532146227540,0,12,5,-8,-5,39,7,-22
1532146227545,-10,-57,-39,-17,-25,-29,-7,15
1532146227550,-35,-1,-3,-17,-9,-11,-9,-29
1532146227555,29,52,-23,-3,-12,-3,6,15
1532146227560,13,-90,-10,8,-19,-32,-16,57
1532146227565,2,54,53,-4,-19,-55,-85,-78
1532146227570,-57,7,19,37,28,8,68,115
1532146227575,-32,-13,-10,-33,-51,-18,-35,-111
1532146227580,-11,26,-2,-11,-24,-56,-17,-25
1532146227585,2,-8,-5,3,10,52,27,69
1532146227590,5,-20,-10,2,0,1,-7,-12
1532146227595,49,8,0,-6,2,-53,1,-27
1532146227600,-5,4,2,3,21,29,-32,-15
1532146227605,2,-9,-2,-8,6,-9,27,27
1532146227610,9,18,7,-8,-18,-26,0,69
1532146227615,49,-5,12,20,28,42,16,-16
1532146227620,-15,-3,-42,-20,-19,-3,-49,-128
1532146227625,71,28,17,0,10,33,25,80
1532146227630,-27,-22,-17,-13,4,2,-20,-7
1532146227635,-41,-57,-13,3,-14,-42,8,69
1532146227640,-4,-7,-3,-10,-14,-40,8,-17
1532146227645,-14,41,15,-6,0,49,1,-30
1532146227650,47,2,2,-4,-26,-12,-38,21
1532146227655,4,60,67,-2,34,41,16,85
1532146227660,-88,-25,-42,13,5,-27,-6,-12
1532146227665,52,51,17,-2,-22,-19,1,-22
1532146227670,-43,-5,-4,-6,-22,-78,11,18
1532146227675,37,-6,-1,11,26,37,12,102
1532146227680,46,26,39,5,3,28,11,75
1532146227685,37,-11,13,13,20,42,53,98
1532146227690,-105,0,-25,7,5,-23,-34,-48
1532146227695,10,-26,-5,16,-3,-3,4,-57
1532146227700,-7,-59,-23,-4,4,2,4,-2
1532146227705,21,-2,-17,-3,21,64,6,-22
1532146227710,-39,15,27,-9,-16,3,-17,-95
1532146227715,-46,-9,-28,-5,4,30,-2,-18
1532146227720,57,110,83,4,0,23,13,42
1532146227725,-2,-113,-96,-16,-2,-17,-35,16
1532146227730,3,20,-7,-19,-42,-18,8,6
1532146227735,-3,-90,-26,-5,2,6,4,47
1532146227740,85,93,-21,1,-3,-15,4,19
1532146227745,-29,77,96,53,45,71,7,-43
1532146227750,-26,-72,-25,30,13,-66,-28,-13
1532146227755,-30,-15,-36,-14,-28,-38,-20,-56
1532146227760,60,9,-10,-34,-11,11,18,30
1532146227765,-22,127,74,1,2,8,14,-9
1532146227770,-7,-115,-120,-11,0,16,3,-55
1532146227775,11,26,19,-11,-9,-21,-11,-11
1532146227780,-20,-13,4,1,-8,-38,-11,36
1532146227785,33,26,12,-3,-4,-25,28,5
1532146227790,-14,71,70,-1,7,48,-37,-56
1532146227795,-32,-10,14,28,32,48,31,127
1532146227800,-58,1,22,2,12,-10,-15,-39
1532146227805,-30,-15,45,-9,-28,-40,0,0
1532146227810,66,28,-15,1,-6,6,29,84
1532146227815,15,49,41,12,12,5,-7,-69
1532146227820,2,48,18,20,19,26,17,15
1532146227825,-19,-41,-8,8,24,13,5,6
1532146227830,17,40,25,16,11,-15,1,-20
1532146227835,21,19,-17,-8,0,3,-5,6
1532146227840,-27,-42,7,6,12,18,9,-27
1532146227845,-43,-19,-26,4,20,-19,7,28
1532146227850,42,31,24,-16,-11,9,-26,-64
1532146227855,-33,-3,-10,-6,-10,-27,-8,40
1532146227860,49,-10,-4,3,-21,-33,-1,54
1532146227865,-53,2,-31,-24,-43,-28,-14,-34
1532146227870,13,-2,19,-1,8,9,22,101
1532146227875,1,22,34,5,18,23,0,-30
1532146227880,29,-3,-6,4,-16,-2,24,64
1532146227885,-52,6,-26,-11,-14,-4,-34,-75
1532146227890,51,-42,-29,-1,23,-2,19,120
1532146227895,-17,-14,-20,-13,-15,0,-52,-110
1532146227900,-17,37,9,-4,7,17,13,9
1532146227905,56,-38,-15,-4,-15,-42,-8,30
1532146227910,-44,1,7,-3,-7,6,-8,6
1532146227915,28,13,-10,6,2,-5,2,-22
1532146227920,-30,-22,2,-2,3,22,3,-26
1532146227925,28,-15,-14,9,31,34,3,78
1532146227930,-20,22,2,-31,-62,-100,-42,-105
1532146227935,-61,-21,7,-5,-17,45,24,48
1532146227940,-22,-8,4,-10,-34,-83,-19,-45
1532146227945,4,-24,-19,-5,-1,50,11,99
1532146227950,-17,10,5,-1,17,35,12,-45
1532146227955,22,21,-3,3,9,-10,2,12
1532146227960,-4,-13,1,6,5,-8,6,-36
1532146227965,-41,2,-3,-2,2,-21,-21,-65
1532146227970,48,98,61,16,18,18,20,40
1532146227975,-70,-108,-89,5,5,-1,6,-2
1532146227980,45,19,-14,3,15,24,-21,18
1532146227985,-3,-82,-50,-18,-12,-29,-13,-19
1532146227990,16,20,14,-2,0,16,-4,-24
1532146227995,12,38,16,-2,-7,-6,6,33
1532146228000,-10,13,17,0,0,9,7,42
1532146228005,3,43,20,6,1,17,3,-7
1532146228010,-16,-18,-6,2,-6,-31,-4,-9
1532146228015,66,33,13,-1,6,-2,18,67
1532146228020,13,-16,-20,-1,-4,-6,-17,-62
1532146228025,-34,-1,35,34,42,53,17,-38
1532146228030,-15,-44,-21,-3,4,2,-8,11
1532146228035,18,3,8,-7,-30,-23,4,-2
1532146228040,2,-9,-3,-4,-1,11,-11,-9
1532146228045,14,12,-1,-5,-11,-19,-3,11
1532146228050,-19,-29,-20,-1,10,39,24,29
1532146228055,7,77,50,2,12,-13,-13,34
1532146228060,-8,-106,-77,4,3,-8,-19,-79
1532146228065,-4,26,4,5,0,1,8,1
1532146228070,-12,0,-11,-1,-8,1,0,-10
1532146228075,-17,-45,-15,-9,-1,1,-3,-6
1532146228080,14,28,26,1,5,24,15,59
1532146228085,38,-2,-7,-2,-2,-17,-12,-17
1532146228090,-12,-15,-5,-3,-1,2,2,3
1532146228095,36,1,5,-1,-3,-3,1,-24
1532146228100,-88,58,60,2,3,9,5,9
1532146228105,21,-84,-70,-7,-8,-13,-6,0
1532146228110,1,-3,-5,4,-1,2,0,16
1532146228115,-8,39,-13,0,5,3,-9,-40
1532146228120,50,26,8,3,-2,3,0,8
1532146228125,-22,-23,21,-12,-14,-15,-2,-3
1532146228130,-2,33,26,-3,2,9,6,-2
1532146228135,-7,-95,-30,1,6,-18,-6,-11
1532146228140,4,-4,-31,-5,-5,3,2,34
1532146228145,-9,38,22,-5,-2,6,4,21
1532146228150,70,0,1,4,-4,12,-15,-71
1532146228155,-76,17,19,-3,6,-10,2,-41
1532146228160,74,-6,0,-6,-14,-22,-11,0
1532146228165,7,4,-10,-1,-1,0,1,8
1532146228170,-4,-19,-9,0,10,9,0,8
1532146228175,-5,16,-5,-2,4,11,8,28
1532146228180,-35,-30,-5,2,2,7,7,10
1532146228185,-38,25,11,1,-1,-2,-9,-44
1532146228190,-14,3,3,-4,0,-6,9,37
1532146228195,43,-1,-7,-1,-5,2,-3,-7
1532146228200,-120,-7,3,3,4,4,2,3
1532146228205,39,54,26,-8,-7,-4,-4,-17
1532146228210,-52,-16,-17,4,-4,-2,-7,13
1532146228215,15,-51,-36,-5,1,5,-4,-19
1532146228220,18,5,6,-1,2,2,-2,-6
1532146228225,34,17,3,-2,1,-15,-5,10
1532146228230,-13,16,14,-1,-8,-7,6,-3
1532146228235,10,20,11,1,-1,5,4,12
1532146228240,8,-4,-4,-4,-1,1,-3,21
1532146228245,-2,-1,0,2,2,-3,-6,-49
1532146228250,-51,-10,-8,-5,2,-9,2,27
1532146228255,26,3,1,1,-3,9,-7,-18
1532146228260,7,0,0,-3,1,2,13,-9
1532146228265,-3,-7,-5,2,0,5,-2,26
1532146228270,17,-4,1,0,-6,-5,-3,-9
1532146228275,8,9,0,-3,-3,-4,10,20
1532146228280,1,4,5,5,2,3,-9,-14
1532146228285,-22,-5,-7,0,0,2,4,0
1532146228290,52,1,-3,-1,3,-3,8,20
1532146228295,-5,14,15,-1,-4,-5,-12,-19
1532146228300,13,-1,-1,0,-3,20,9,6
1532146228305,-10,-12,-6,1,1,-31,-3,2
1532146228310,3,2,-1,-1,3,5,1,-2
1532146228315,-3,0,-7,-3,-2,-5,-7,2
1532146228320,19,-1,-2,-1,0,-4,-3,-10
1532146228325,13,1,-2,-3,-8,1,1,2
1532146228330,-15,-18,-4,-6,-2,1,2,-13
1532146228335,0,0,4,2,2,5,2,-7
1532146228340,-20,-8,5,3,0,-5,-8,-1
1532146228345,-19,-11,1,2,1,5,5,-27
1532146228350,14,3,-2,-4,-4,-1,-6,26
1532146228355,17,-5,-9,-7,-11,13,0,-25
1532146228360,-16,5,0,3,4,1,-14,-15
1532146228365,-15,4,0,1,1,-4,-4,7
1532146228370,4,3,-2,-7,-8,-2,3,1
1532146228375,-4,-11,-2,1,1,-2,1,10
1532146228380,16,3,6,4,5,1,3,12
1532146228385,1,2,-13,-1,-6,-4,-1,-7
1532146228390,0,-4,14,2,7,1,-1,-11
1532146228395,4,19,4,-3,-3,-2,-1,7
1532146228400,7,-50,-14,-10,-4,2,1,2
1532146228405,-2,25,0,5,4,-3,-2,1
1532146228410,-4,-7,-4,3,2,4,2,3
1532146228415,-2,6,8,-1,7,-4,-5,-9
1532146228420,-4,22,15,0,-7,-2,-5,-6
1532146228425,0,-14,-4,-5,3,3,7,7
1532146228430,28,-8,-11,-1,2,10,11,20
1532146228435,41,-1,-6,-2,-4,-4,-6,17
1532146228440,-1,17,10,3,-1,-12,-9,-76
1532146228445,-23,-1,13,3,-1,-6,1,-1
1532146228450,-28,8,-4,-4,-5,3,-6,-10
1532146228455,0,2,-3,-7,-6,1,6,21
1532146228460,-31,-69,-70,-9,3,-1,-1,32
1532146228465,-4,44,3,8,2,0,-3,-3
1532146228470,-11,-31,-6,10,6,0,0,-4
1532146228475,-13,7,23,2,0,1,0,-3
1532146228480,0,8,10,2,0,1,2,-4
1532146228485,-1,-2,1,-6,-6,-1,-1,-1
1532146228490,-1,2,-11,-9,-2,-4,-1,2
1532146228495,2,-12,-21,-2,-1,-4,-7,-4
1532146228500,5,34,25,5,1,3,-2,10
1532146228505,-3,-11,-9,-2,-1,-4,2,9
1532146228510,2,-8,5,3,-3,-17,2,0
1532146228515,-9,-17,-11,1,5,21,8,1
1532146228520,-8,7,12,2,0,2,-9,-25
1532146228525,-13,4,8,-5,-3,-3,1,3
1532146228530,3,-4,-1,1,-1,1,-3,7
1532146228535,-9,-2,-12,-2,-4,-7,3,-1
1532146228540,2,-9,-10,-4,-3,-2,1,14
1532146228545,10,13,13,5,2,0,-2,-1
1532146228550,-17,-17,3,-5,-3,-2,-6,-13
1532146228555,-10,-11,11,1,-4,-2,-2,6
1532146228560,16,31,-1,4,3,6,7,5
1532146228565,4,-37,-25,-2,7,0,-6,-4
1532146228570,5,10,-2,-4,-11,-10,-1,4
1532146228575,3,3,-5,-8,1,-5,-4,-2
1532146228580,1,11,16,1,0,-2,1,-12
1532146228585,4,-20,-9,-3,0,2,5,9
1532146228590,4,15,10,6,5,6,6,20
1532146228595,-17,3,1,0,-4,-7,-16,-54
1532146228600,1,1,-13,-4,-3,0,10,22
1532146228605,15,15,28,5,2,1,-1,22
1532146228610,-13,-23,-21,-3,0,4,-11,-65
1532146228615,-3,30,18,-3,-7,-4,3,11
1532146228620,0,20,18,2,8,0,1,10
1532146228625,0,0,-16,1,0,-3,2,6
1532146228630,1,-32,-12,-1,4,4,-1,17
1532146228635,4,-4,-4,5,0,3,2,-3
1532146228640,-3,15,8,-3,-3,2,0,-9
1532146228645,2,-8,12,-1,0,0,3,12
1532146228650,20,3,-1,0,1,-3,-4,-18
1532146228655,-8,11,-4,-8,-4,-6,-5,-6
1532146228660,7,0,3,0,2,-1,2,9
1532146228665,-6,-6,5,4,1,1,0,-14
1532146228670,-2,10,0,-1,-1,2,0,15
1532146228675,4,-25,-5,-1,2,-1,-1,-4
1532146228680,2,-7,-14,-3,-5,-4,4,19
1532146228685,-7,-13,-11,-7,-5,-4,-12,-49
1532146228690,-11,51,22,2,0,-1,1,-6
1532146228695,3,-5,-19,1,1,4,-3,29
1532146228700,-4,-21,-14,-3,-6,-6,-2,-20
1532146228705,4,1,3,0,-3,0,0,17
1532146228710,-4,5,4,-2,-4,-1,9,11
1532146228715,-5,6,-2,0,-1,-10,-1,-25
1532146228720,-1,-8,4,5,2,9,-1,8
1532146228725,0,-6,-2,-4,-1,8,-4,4
1532146228730,4,14,-1,-4,-3,-3,-5,-2
1532146228735,10,-7,1,-1,0,-2,8,10
1532146228740,-1,-13,-9,-2,-3,-4,-4,-1
1532146228745,-13,6,2,1,-2,-5,-2,-22
1532146228750,0,9,2,2,-1,0,0,2
1532146228755,-2,-44,-23,-2,6,1,-2,5
1532146228760,11,58,35,0,-7,-1,1,5
1532146228765,-14,-67,-45,1,2,1,-7,-5
1532146228770,-4,0,1,-5,-2,2,7,10
1532146228775,-4,-1,1,0,-2,-3,-7,-24
1532146228780,15,-7,-5,-3,-6,-5,-9,-8
1532146228785,5,14,6,-2,2,2,10,18
1532146228790,-12,-9,-8,0,0,-5,-10,-24
1532146228795,2,11,4,0,-2,1,4,8
1532146228800,-10,-9,5,3,1,-1,1,-2
1532146228805,8,11,2,-5,-3,-3,-2,17
1532146228810,4,-18,-12,-6,0,3,5,-5
1532146228815,1,11,4,5,0,0,4,2
1532146228820,1,-9,2,0,1,1,-6,20
1532146228825,-17,5,7,-1,-3,-10,-8,-37
1532146228830,4,17,9,1,1,6,1,1
1532146228835,9,31,36,-6,-7,-1,1,12
1532146228840,-25,-67,-62,0,0,-6,-3,-14
1532146228845,8,51,17,5,-1,-1,-1,7
1532146228850,-5,-47,-19,1,0,0,-2,10
1532146228855,-2,-3,5,3,12,5,7,11
1532146228860,7,3,4,-2,1,5,7,14
1532146228865,1,12,4,-6,-8,-12,-10,-23
1532146228870,-3,4,-3,-2,0,-1,-4,-16
1532146228875,0,1,-10,0,-1,2,-7,-3
1532146228880,-2,8,23,-1,4,5,2,-20
1532146228885,-14,-16,-14,-4,1,5,2,-2
1532146228890,19,12,-3,-1,-6,-10,0,14
1532146228895,-13,18,17,16,4,2,-2,-3
1532146228900,3,1,12,5,4,-4,5,19
1532146228905,-1,-7,7,2,6,15,-8,12
1532146228910,-5,13,6,-2,-4,-4,1,-41
1532146228915,-1,-3,-14,-9,-6,-5,-11,10
1532146228920,-10,-8,-16,-4,-3,-3,-4,-35
1532146228925,7,7,4,-3,-5,-1,10,39
1532146228930,4,-4,0,-3,5,3,3,-1
1532146228935,-8,-2,-6,3,8,1,5,-1
1532146228940,2,20,3,-3,-11,-7,-3,6
1532146228945,4,-26,-11,3,4,-2,3,4
1532146228950,-4,-11,9,5,-2,4,1,9
1532146228955,-6,19,2,0,1,-3,-3,-19
1532146228960,-2,-8,-6,1,2,0,0,9
1532146228965,20,11,-1,-5,-5,-1,9,2
1532146228970,-12,-11,-18,-4,-2,-4,-15,10
1532146228975,14,24,17,-3,-14,-15,-3,-21
1532146228980,1,-51,-14,1,13,21,-3,1
1532146228985,4,2,-12,-3,-5,-5,1,5
1532146228990,3,46,21,3,3,1,15,18
1532146228995,-10,-60,-34,-4,1,17,-23,-8
1532146229000,-8,14,3,-4,-6,-23,-9,-39
1532146229005,2,-15,-4,1,1,-5,4,12
1532146229010,-4,14,6,-6,8,0,-4,0
1532146229015,0,-5,-7,-6,-9,-4,11,20
1532146229020,16,-6,-8,-3,-8,-3,-4,-19
1532146229025,-14,9,14,4,1,5,-5,-6
1532146229030,7,-4,-8,1,-2,-5,-2,7
1532146229035,-7,-4,1,-3,-1,-2,2,-1
1532146229040,-3,2,7,4,5,3,3,18
1532146229045,-15,9,8,1,-1,-13,-10,-43
1532146229050,-4,-6,-2,-3,-2,8,-5,-9
1532146229055,15,-13,-11,-2,-2,-4,6,18
1532146229060,-9,7,-9,-10,-1,-8,3,16
1532146229065,3,4,5,1,3,3,3,17
1532146229070,-11,4,13,5,-7,-6,-14,-35
1532146229075,-1,-4,-5,-3,3,3,2,3
1532146229080,10,12,1,-1,-3,6,5,-4
1532146229085,3,-3,-2,-3,-1,-5,-5,2
1532146229090,3,5,2,-5,-2,0,1,17
1532146229095,-16,-44,-23,-1,-10,-23,-3,-15
1532146229100,10,16,22,5,4,2,-4,4
1532146229105,14,-6,-8,-4,-1,2,4,0
1532146229110,-25,-6,-20,-7,-2,-9,2,-5
1532146229115,-6,14,19,9,5,8,-1,-3
1532146229120,-6,-3,3,5,-3,4,0,5
1532146229125,8,3,4,2,3,1,2,5
1532146229130,-6,-16,-11,-4,-2,3,-4,7
1532146229135,3,13,-7,-4,-2,-5,0,-15
1532146229140,-9,-9,11,2,5,3,4,11
1532146229145,10,2,9,6,0,3,0,-15
1532146229150,7,-3,-2,3,1,2,-4,4
1532146229155,3,3,-7,-3,-1,5,2,9
1532146229160,9,3,-8,-6,-4,-6,-2,0
1532146229165,-32,-5,1,-1,0,3,-2,-8
1532146229170,3,2,5,2,0,1,2,-9
1532146229175,10,15,11,-2,-2,-3,2,12
1532146229180,-15,9,-3,2,-4,0,-2,-11
1532146229185,8,-12,-8,-2,2,0,-2,-2
1532146229190,-2,-7,-4,0,-2,-4,-3,-4
1532146229195,-2,-4,0,-1,0,0,-4,-1
1532146229200,-3,1,-7,-2,-1,0,-2,-3
1532146229205,-3,6,-3,-2,-1,0,-1,0
1532146229210,7,-10,3,3,2,2,4,7
1532146229215,-2,6,5,0,-1,0,-2,-2
1532146229220,4,-3,-10,-5,-1,0,3,4
1532146229225,-2,4,-6,-4,-3,-4,-4,-2
1532146229230,0,4,9,4,-1,0,0,-4
1532146229235,-10,-12,3,1,-1,3,-1,-10
1532146229240,-11,-14,-21,-30,-7,-4,-4,-6
1532146229245,1,2,0,12,-1,0,1,8
1532146229250,2,2,12,12,5,0,2,10
1532146229255,12,-2,-5,-3,-1,0,-1,-3
1532146229260,11,9,9,8,1,-2,0,5
1532146229265,1,7,-3,-10,-2,-2,1,5
1532146229270,-2,-8,-9,-6,-3,-3,-4,-2
1532146229275,-5,-1,0,-2,-2,-1,1,-6
1532146229280,-4,7,12,5,1,0,-1,-5
1532146229285,-6,-24,-12,-7,-2,0,-4,-2
1532146229290,-2,-8,-8,-8,-5,-1,3,-1
1532146229295,12,28,1,8,2,0,4,12
1532146229300,2,-6,15,9,5,4,-1,-2
1532146229305,-9,50,0,-4,-4,0,-10,-21
1532146229310,1,-61,-8,5,1,1,1,4
1532146229315,4,-1,-6,-14,-2,-3,-7,11
1532146229320,-2,-3,4,8,3,1,0,-5
1532146229325,-17,6,10,2,3,0,4,-5
1532146229330,8,33,3,-16,-3,-2,-2,-4
1532146229335,12,-7,-4,9,-3,-3,0,4
1532146229340,5,3,1,7,0,2,0,20
1532146229345,-5,-28,1,-4,-4,2,-2,-5
1532146229350,-11,7,-8,-7,-1,-3,1,-6
1532146229355,3,-6,-2,-9,-1,1,2,2
1532146229360,-7,10,-7,5,-1,-6,-4,6
1532146229365,4,-6,-4,-2,-2,3,0,-16
1532146229370,-8,3,9,6,2,4,0,3
1532146229375,-17,0,0,-5,-1,-4,1,0
1532146229380,-19,-14,-4,-1,-2,-6,-4,-16
1532146229385,1,-7,3,2,-1,2,2,15
1532146229390,6,4,-4,6,-2,0,-1,2
1532146229395,0,-1,7,2,3,4,0,-7
1532146229400,-2,8,3,-5,-5,-2,1,-9
1532146229405,9,-3,2,5,2,-4,-2,9
1532146229410,0,5,-12,-15,-5,-1,0,2
1532146229415,-5,26,12,13,0,0,3,-6
1532146229420,-25,-5,-11,-3,-1,-2,-12,-4
1532146229425,-24,-12,7,-4,-3,-1,2,4
1532146229430,-39,15,1,-4,-1,2,1,17
1532146229435,-18,-30,-7,-8,-5,-5,1,3
1532146229440,-9,6,0,13,5,7,1,0
1532146229445,1,3,10,2,1,-2,0,-5
1532146229450,-8,-3,3,3,-1,-1,3,18
1532146229455,-19,-6,-11,-14,-3,-1,-6,3
1532146229460,-2,15,-16,-11,-5,-22,1,-11
1532146229465,22,2,6,23,4,21,-2,6
1532146229470,8,0,7,0,9,7,-2,-26
1532146229475,3,-11,-2,-3,-4,-1,1,11
1532146229480,14,-24,0,-10,-3,5,3,4
1532146229485,23,1,-15,-11,-3,-11,0,4
1532146229490,22,57,13,11,6,-3,0,1
1532146229495,11,-34,-1,-3,-2,2,-3,-30
1532146229500,4,15,-10,-17,-4,5,2,0
1532146229505,-2,-47,-10,2,-1,-5,1,-7
1532146229510,16,18,9,3,0,0,0,0
1532146229515,-13,1,6,-10,-6,-2,1,4
1532146229520,-23,-33,-25,21,7,-1,-2,-8
1532146229525,-3,27,10,2,4,3,-2,1
1532146229530,-2,-27,-7,-4,0,-4,-5,-6
1532146229535,-11,1,-10,-7,-3,1,1,0
1532146229540,24,14,12,-5,-8,-1,-2,-3
1532146229545,-4,36,-2,-1,2,-3,-1,5
1532146229550,5,-29,7,-2,-4,0,1,-11
1532146229555,20,-15,-11,5,-1,0,1,0
1532146229560,1,-15,1,-8,-6,4,-1,-19
1532146229565,6,24,-12,-12,-1,-8,-3,1
1532146229570,26,-19,-6,-3,-4,-1,-8,-10
1532146229575,16,14,25,19,1,-2,1,1
1532146229580,22,14,9,2,5,5,3,12
1532146229585,12,-32,2,1,2,3,4,-4
1532146229590,2,-5,-9,-12,-5,-3,-2,-6
1532146229595,4,-3,-13,-6,1,3,0,1
1532146229600,33,34,-5,-2,-6,-9,-10,-3
1532146229605,3,5,2,1,3,-7,-3,-2
1532146229610,-6,1,3,7,5,5,-2,7
1532146229615,-7,-24,-1,4,4,0,-1,-2
1532146229620,-11,17,7,-4,-2,2,4,7
1532146229625,-7,-13,-12,-10,-5,-2,3,7
