1532467565938,-1,-2,-3,-2,-2,-5,-4,-2
1532467565943,0,-1,-1,-4,-1,4,7,0
1532467565948,-2,-2,-5,-4,-3,-3,-6,-3
1532467565953,-1,-1,1,0,0,-5,-2,-2
1532467565958,-1,0,-1,0,0,2,-4,0
1532467565963,1,-4,0,-2,-2,6,8,-2
1532467565968,-1,2,0,2,1,-12,-11,-3
1532467565973,1,-1,-6,0,0,3,6,1
1532467565978,0,-3,3,1,1,0,0,-2
1532467565983,-1,-2,-2,0,-1,0,-3,0
1532467565988,0,-2,0,-3,-1,2,4,0
1532467565993,-1,-1,1,-4,-2,-3,-2,-3
1532467565998,2,1,0,-2,-1,0,3,1
1532467566003,0,0,0,1,-3,0,-5,0
1532467566008,0,1,3,6,3,3,5,1
1532467566013,-1,-5,-4,-1,-1,-9,-4,-2
1532467566018,-1,0,1,0,0,-3,0,0
1532467566023,-2,-3,-2,-5,-6,-9,-7,-2
1532467566028,0,-1,-2,-2,-1,5,1,-2
1532467566033,-1,0,-2,1,6,-4,-5,-1
1532467566038,-1,1,1,1,1,3,0,0
1532467566043,0,-1,-2,-4,-3,-4,-2,1
1532467566048,-2,1,-3,0,-1,-4,-5,-1
1532467566053,0,0,1,-2,-1,6,9,2
1532467566058,1,-1,-2,1,0,1,0,-2
1532467566063,-2,1,3,6,9,0,-2,-1
1532467566068,-2,-3,-2,-10,-11,1,2,-2
1532467566073,-2,1,-1,-1,-4,-2,-3,-1
1532467566078,-2,-2,-3,-4,-2,-1,-1,1
1532467566083,-1,4,0,-2,-4,-1,-1,-1
1532467566088,1,-3,1,5,4,5,3,0
1532467566093,-2,-3,-3,0,0,-5,-5,0
1532467566098,-5,-1,-4,-1,-2,-4,-1,-4
1532467566103,0,0,0,0,2,1,3,0
1532467566108,-1,0,0,2,2,-8,-6,-2
1532467566113,-1,-1,0,-2,1,3,1,0
1532467566118,-1,-1,-4,-8,-10,-3,-2,-1
1532467566123,-2,-2,1,1,0,0,1,-2
1532467566128,0,-3,0,-3,-3,-1,0,-2
1532467566133,0,1,2,0,-1,2,0,-1
1532467566138,-1,-1,0,3,3,0,-2,-1
1532467566143,-1,-2,-3,-2,-3,1,0,-1
1532467566148,-1,1,-2,1,-3,-5,-3,2
1532467566153,-2,0,-4,-6,-7,-4,-3,-2
1532467566158,1,-3,1,-3,-1,4,1,-1
1532467566163,-2,-3,-1,1,0,0,4,1
1532467566168,0,3,1,5,6,2,3,0
1532467566173,0,-2,1,2,-1,-6,-3,0
1532467566178,-1,0,-4,0,3,3,2,-1
1532467566183,2,-1,-2,-2,-3,0,-1,-1
1532467566188,0,-2,-1,-2,-1,1,1,-2
1532467566193,-1,2,1,2,4,7,5,2
1532467566198,0,0,0,-1,-2,-2,-2,-1
1532467566203,-2,-2,-2,0,-3,-6,-9,-2
1532467566208,-1,-2,-3,-2,-1,0,0,0
1532467566213,-1,0,-1,-1,-6,2,3,1
1532467566218,-1,0,0,4,1,-2,-1,0
1532467566223,0,-2,1,-1,3,6,5,-1
1532467566228,-3,0,-4,-7,-9,-5,-4,-4
1532467566233,-1,2,2,0,3,-3,-3,0
1532467566238,-2,0,-1,1,2,3,1,-2
1532467566243,-1,-4,-3,-2,2,5,5,1
1532467566248,-2,0,3,2,2,1,-4,0
1532467566253,0,-1,-2,-3,-5,-11,-5,0
1532467566258,1,-1,-2,0,-4,-1,8,-1
1532467566263,1,-2,1,-1,-1,-2,-3,-1
1532467566268,-3,-1,-3,-1,3,5,-1,-3
1532467566273,-2,0,0,1,0,-2,1,0
1532467566278,-1,1,0,2,1,2,4,1
1532467566283,2,-1,1,2,-1,2,0,-2
1532467566288,1,0,1,0,2,-2,0,-1
1532467566293,-1,-3,-5,-5,-4,0,-1,-2
1532467566298,-1,-1,-2,-6,-4,0,-3,-1
1532467566303,-2,-2,-1,-4,-7,-13,-3,0
1532467566308,2,-3,0,1,0,-5,-4,-1
1532467566313,-1,1,-3,1,1,2,2,0
1532467566318,-1,-2,1,-1,4,0,1,-3
1532467566323,0,0,-2,-1,-1,5,-2,2
1532467566328,0,2,-1,-5,-3,1,7,0
1532467566333,0,-5,0,-2,-1,3,-1,-2
1532467566338,-3,-1,-1,-2,-3,-8,-5,-3
1532467566343,-1,1,0,0,-2,-2,-3,-2
1532467566348,1,-1,-3,0,-2,-3,-4,-1
1532467566353,-2,0,-3,-1,-2,2,4,-1
1532467566358,-1,-2,1,4,-2,1,-2,0
1532467566363,-1,1,-2,-1,-2,-6,1,-2
1532467566368,-2,-2,-1,-2,2,2,5,0
1532467566373,0,-2,0,-1,-2,-3,-6,-2
1532467566378,-1,-1,-1,2,-1,-1,2,-2
1532467566383,0,1,2,4,5,-3,-6,-3
1532467566388,-1,-2,-5,-7,-6,-2,4,1
1532467566393,-1,-1,-2,-5,-5,-5,-4,-1
1532467566398,1,-1,-1,-1,-2,1,3,0
1532467566403,0,-3,-2,-2,3,9,5,-2
1532467566408,-1,2,4,4,0,-6,-5,0
1532467566413,0,2,0,2,3,-6,-11,-2
1532467566418,0,-3,1,-3,-4,3,3,0
1532467566423,0,0,-1,0,0,2,1,-1
1532467566428,-2,-1,-5,-9,-3,-3,-2,-4
1532467566433,0,-1,-1,1,-4,3,0,2
1532467566438,-2,0,-3,1,3,-2,-1,-1
1532467566443,-1,1,0,1,1,2,-4,0
1532467566448,-1,-2,1,3,-3,-6,-3,-2
1532467566453,-2,1,0,2,-1,-3,-1,-2
1532467566458,1,-1,0,-4,-1,2,1,1
1532467566463,-4,-1,-1,-2,-1,6,5,-1
1532467566468,-1,-1,1,1,-2,-3,-2,-2
1532467566473,-1,0,0,-1,-2,0,7,-1
1532467566478,3,-1,-4,-2,3,-1,-5,1
1532467566483,1,-2,1,2,1,-2,0,1
1532467566488,0,0,-4,-3,-4,8,-2,-1
1532467566493,-1,1,3,-2,-1,-1,9,-1
1532467566498,-3,1,0,-2,-2,-8,-9,-3
1532467566503,-2,0,-2,-2,-3,-6,-4,-1
1532467566508,0,1,2,4,1,4,3,2
1532467566513,0,0,-2,4,4,2,-5,0
1532467566518,-1,-2,1,0,4,4,3,-2
1532467566523,-1,1,-2,-3,-6,-6,-3,-1
1532467566528,-1,-8,-2,-4,-3,2,4,-1
1532467566533,-1,-1,-1,1,-1,-2,-6,0
1532467566538,-2,-1,1,2,-1,-2,-1,-1
1532467566543,0,-1,-3,-2,1,2,7,-1
1532467566548,0,2,2,3,1,-2,0,-1
1532467566553,0,1,-3,-8,-3,8,-2,-3
1532467566558,-2,0,3,3,0,-8,-4,-3
1532467566563,-1,-2,-4,-4,-6,1,1,-1
1532467566568,-1,2,2,0,0,-9,2,0
1532467566573,-1,-3,-4,-1,0,0,-1,-2
1532467566578,1,3,-1,2,0,4,1,-2
1532467566583,0,-1,0,1,2,3,1,-1
1532467566588,0,0,-1,2,0,0,-4,0
1532467566593,-1,-2,0,-2,0,-3,-5,0
1532467566598,0,-4,-3,-5,-9,0,6,-1
1532467566603,-2,1,-3,-2,1,-3,-8,-2
1532467566608,0,-4,-1,2,1,-2,-4,-1
1532467566613,-1,0,1,1,0,-3,-1,0
1532467566618,1,1,-2,-1,0,7,9,0
1532467566623,0,-1,-2,-4,-3,-4,-5,0
1532467566628,-1,3,-2,-1,-2,-5,-5,1
1532467566633,0,-5,-1,-2,-3,1,4,-1
1532467566638,-1,-2,-2,-6,-6,-3,-4,0
1532467566643,1,2,3,3,2,-4,5,0
1532467566648,-1,-3,-1,-5,-3,0,-2,-2
1532467566653,-2,-2,-2,1,1,-3,-4,-3
1532467566658,0,1,1,-1,0,4,2,3
1532467566663,-3,-1,0,0,-2,2,-1,0
1532467566668,-1,0,-3,0,2,0,-4,-2
1532467566673,0,-1,0,-1,4,3,6,0
1532467566678,-1,0,1,-1,-2,-8,-11,-4
1532467566683,0,-2,-1,-2,-2,1,2,-2
1532467566688,0,0,-4,1,-1,-2,2,0
1532467566693,0,-2,-1,-1,-1,-6,-3,0
1532467566698,1,-1,-1,4,10,4,4,-2
1532467566703,0,-2,-1,-6,-5,-3,-5,3
1532467566708,-2,-2,-2,-6,-5,3,1,-4
1532467566713,0,2,0,2,-5,1,2,2
1532467566718,-2,0,2,0,0,-14,-8,-3
1532467566723,0,-3,-2,-2,0,4,3,1
1532467566728,-2,-1,2,1,3,-5,-4,0
1532467566733,0,0,-2,-5,-3,2,-2,0
1532467566738,-1,-1,3,4,0,6,6,0
1532467566743,-1,-1,-4,-5,-3,0,-1,-1
1532467566748,-1,-1,-3,-3,-2,2,-2,-1
1532467566753,-1,0,1,1,2,-4,-6,0
1532467566758,0,2,-2,0,3,5,1,-1
1532467566763,-1,-3,-1,-2,-3,-7,-9,-3
1532467566768,-1,0,-1,2,1,3,5,0
1532467566773,0,-1,-1,2,4,1,0,0
1532467566778,-1,0,-4,-6,-9,0,-3,-1
1532467566783,-1,-1,-1,0,-1,4,3,-2
1532467566788,1,0,-1,0,0,-7,-6,-2
1532467566793,-1,-2,-2,-5,-3,-5,-5,-4
1532467566798,-1,-1,0,-2,-1,0,1,1
1532467566803,0,-2,-3,1,1,1,1,-2
1532467566808,-1,2,1,3,2,6,3,1
1532467566813,-2,-3,1,0,1,7,5,-1
1532467566818,-3,-3,-5,-4,-2,-12,-14,-4
1532467566823,-1,-1,-2,-2,-2,-4,3,0
1532467566828,-2,0,-5,-5,-1,0,-4,1
1532467566833,-1,0,2,3,-1,2,1,0
1532467566838,1,-1,0,-3,0,-3,-2,1
1532467566843,0,0,1,1,0,3,0,-1
1532467566848,-1,1,-1,0,-1,2,1,-1
1532467566853,1,-4,-2,-1,1,0,3,0
1532467566858,0,-2,-2,2,0,3,1,1
1532467566863,0,-1,-2,1,-1,0,-2,0
1532467566868,-1,0,3,5,5,-2,-2,-2
1532467566873,0,3,-2,-6,-2,-4,-1,-1
1532467566878,0,0,-2,1,-2,-1,2,-1
1532467566883,-2,-1,-4,-8,-8,-1,0,0
1532467566888,0,-2,0,-2,-4,-1,1,-1
1532467566893,2,1,-3,0,1,5,0,0
1532467566898,-2,-3,4,5,7,-4,-6,-1
1532467566903,0,0,-3,2,0,-2,-3,-1
1532467566908,-1,-4,-3,-3,-7,-5,-1,-2
1532467566913,0,0,-1,-2,1,2,4,0
1532467566918,-1,0,-2,-4,-5,1,0,-1
1532467566923,0,2,3,4,4,-1,-1,0
1532467566928,-1,-6,-1,-1,-1,-2,2,-1
1532467566933,-2,2,-2,-2,-2,-2,-3,-2
1532467566938,-1,-2,1,1,0,6,2,1
1532467566943,-2,0,-2,-1,1,-7,-3,-2
1532467566948,0,1,-3,-4,-2,-1,-5,0
1532467566953,-1,0,-3,-5,-9,-7,-3,-1
1532467566958,0,0,-1,0,0,10,11,1
1532467566963,-1,-2,2,2,0,-6,-7,-2
1532467566968,-1,4,-2,-2,-4,0,4,1
1532467566973,0,-4,-1,0,-1,0,-5,-3
1532467566978,1,1,-1,0,3,1,3,0
1532467566983,0,-2,-2,1,-1,-2,0,-1
1532467566988,-2,-3,-3,-7,-6,-4,-2,-2
1532467566993,0,0,1,3,2,1,7,2
1532467566998,-2,1,5,1,-5,-5,-3,-2
1532467567003,0,0,-6,-3,3,7,2,0
1532467567008,-1,0,-3,-2,1,1,1,0
1532467567013,0,0,-1,-1,2,-2,0,1
1532467567018,-1,-3,-2,-4,-4,3,2,-1
1532467567023,0,0,0,1,1,6,3,0
1532467567028,1,0,-2,1,1,-11,-14,-3
1532467567033,-1,0,1,-5,-6,-7,4,-1
1532467567038,0,-3,-3,-2,-4,-2,-1,0
1532467567043,-1,1,0,1,1,7,6,0
1532467567048,-1,1,-1,3,4,-4,-10,-1
1532467567053,-2,-2,-1,1,-1,1,2,-1
1532467567058,-1,1,1,-4,-7,-6,-6,-2
1532467567063,-1,-1,-3,-2,-3,-9,-1,0
1532467567068,-2,0,-2,-3,-2,3,-4,0
1532467567073,0,-1,1,3,4,7,11,0
1532467567078,0,-1,6,1,0,2,2,-2
1532467567083,-1,-1,-1,-2,1,2,-3,0
1532467567088,0,-2,-2,-2,-5,2,7,1
1532467567093,1,-2,-1,0,4,-2,-8,-2
1532467567098,-2,0,-1,0,4,-6,-7,-4
1532467567103,-2,0,-1,2,-2,-2,0,-3
1532467567108,-1,-2,-2,-7,-4,-2,-1,-3
1532467567113,-1,0,-2,-2,-4,1,1,2
1532467567118,1,-1,-4,1,-1,9,5,2
1532467567123,-2,-1,4,2,0,-14,-9,-2
1532467567128,-1,1,1,6,9,7,2,-1
1532467567133,-3,-5,-3,-8,-6,3,0,-1
1532467567138,-2,-2,-3,-8,-6,-13,-11,0
1532467567143,0,-2,-4,0,2,5,3,-2
1532467567148,1,0,1,2,0,-6,-1,0
1532467567153,1,3,1,0,1,-4,-4,-1
1532467567158,-1,-5,-1,-3,-1,6,5,-1
1532467567163,-3,-1,0,-1,-2,-2,-2,-2
1532467567168,0,-1,-1,-1,-1,0,0,-1
1532467567173,-1,-1,-2,1,-1,0,0,0
1532467567178,-1,4,-1,1,3,-3,-3,-1
1532467567183,0,-2,-1,-3,-3,-3,-2,0
1532467567188,-3,-4,-3,-6,-7,-1,-4,0
1532467567193,-2,0,-2,-1,-3,5,4,-3
1532467567198,0,1,-1,2,2,-2,-2,1
1532467567203,-2,2,0,4,4,-7,-4,-1
1532467567208,-1,-2,-2,-2,-6,0,4,-1
1532467567213,-3,-1,-3,-8,-2,-4,-4,-2
1532467567218,0,-2,1,1,-2,4,4,0
1532467567223,0,0,0,-4,-2,4,3,1
1532467567228,-1,-2,-2,-1,0,4,1,0
1532467567233,-2,1,1,4,2,-6,-8,-2
1532467567238,0,1,-2,-1,2,0,7,-2
1532467567243,-1,-1,-1,-1,3,-1,-1,-1
1532467567248,-2,-3,-1,1,-5,0,2,0
1532467567253,-1,-1,0,0,2,4,-2,0
1532467567258,0,-1,-2,-3,-2,-5,-9,-2
1532467567263,2,-1,4,0,-3,0,0,0
1532467567268,-1,-2,-6,0,0,8,4,-4
1532467567273,1,1,0,2,1,-5,4,1
1532467567278,-3,-1,0,-3,-1,-7,-5,-3
1532467567283,-1,-1,-1,0,-2,3,-1,-2
1532467567288,1,3,2,1,5,-3,1,-1
1532467567293,0,0,-1,-4,-10,-1,1,4
1532467567298,0,-5,-3,-2,5,-3,-4,-3
1532467567303,-2,1,0,-1,-2,0,0,-1
1532467567308,0,-1,1,1,2,-5,-5,-1
1532467567313,-1,2,1,5,1,1,-1,-3
1532467567318,1,1,-1,-3,-1,5,5,1
1532467567323,0,-2,-5,-2,-2,-3,-4,0
1532467567328,0,-4,-1,-3,-1,4,0,0
1532467567333,-1,-2,0,0,1,7,2,-3
1532467567338,-1,1,1,4,1,-12,-6,-1
1532467567343,-2,-2,-1,-2,-1,-2,-7,0
1532467567348,-2,-1,-3,3,0,-1,1,-1
1532467567353,-1,-3,-1,-7,-5,-4,-7,-2
1532467567358,-3,1,0,-3,-2,12,14,1
1532467567363,-3,-2,0,3,-1,-5,-3,0
1532467567368,-1,0,0,-5,-3,-8,-8,1
1532467567373,0,-3,0,1,2,4,1,-2
1532467567378,-1,-1,5,6,-2,-4,-4,-2
1532467567383,-1,-1,-9,-5,0,6,6,1
1532467567388,1,-5,-1,-1,-1,-4,-5,-2
1532467567393,-1,1,1,3,5,0,-1,0
1532467567398,-1,-2,-4,-2,-4,1,1,0
1532467567403,3,0,2,-1,-2,1,3,1
1532467567408,-4,-1,-1,-3,2,-1,-2,-1
1532467567413,1,0,1,1,-1,-4,-1,1
1532467567418,2,3,-1,1,-1,4,0,-1
1532467567423,-1,-4,0,-4,0,-3,-1,0
1532467567428,-1,0,0,0,-1,-5,-3,-2
1532467567433,1,-2,-1,-3,-3,-1,-1,0
1532467567438,-2,0,1,1,0,2,0,-1
1532467567443,0,-3,1,2,-1,1,1,-3
1532467567448,0,0,-2,-1,-3,1,1,0
1532467567453,-2,-2,-3,-4,-1,-2,-2,3
1532467567458,0,-1,-2,0,2,4,9,0
1532467567463,0,2,-1,-2,1,-4,-4,-3
1532467567468,0,-1,2,3,0,1,0,-1
1532467567473,-1,2,-3,-4,-8,-1,-3,0
1532467567478,-1,-5,-1,-4,-2,-14,-7,-1
1532467567483,-1,0,-9,-2,-1,-1,0,1
1532467567488,0,-2,1,1,2,12,5,0
1532467567493,-1,1,0,5,6,-4,2,-1
1532467567498,0,0,1,-5,-3,-1,-11,1
1532467567503,-1,-1,0,-4,-3,-4,-3,-2
1532467567508,0,0,-1,-1,-4,-2,3,-1
1532467567513,0,0,-2,-2,-5,-3,-8,0
1532467567518,0,1,-2,-1,4,13,13,1
1532467567523,-1,-2,1,0,-6,-4,-4,-2
1532467567528,2,1,-1,2,1,-5,-1,-1
1532467567533,0,-2,-2,-2,2,1,2,-3
1532467567538,-2,-2,-3,-1,-6,-7,-3,-3
1532467567543,0,-1,-2,2,3,4,3,0
1532467567548,0,1,1,-1,0,1,-3,1
1532467567553,0,-3,0,1,-2,-2,-1,-3
1532467567558,1,-3,-4,-1,-1,-13,-9,0
1532467567563,-2,1,1,-2,1,0,2,0
1532467567568,-4,-1,-1,3,3,0,-7,0
1532467567573,-2,0,1,-6,1,1,4,-4
1532467567578,0,1,-3,2,-1,7,1,-2
1532467567583,-1,-1,0,-4,-9,-1,-2,-2
1532467567588,1,2,-4,-3,0,-6,3,-1
1532467567593,0,0,-2,-2,-3,4,-1,-1
1532467567598,-2,1,2,4,3,-1,1,-4
1532467567603,-1,0,4,0,1,-7,-5,0
1532467567608,0,-1,-5,-7,-10,-2,-1,-2
1532467567613,-1,-3,1,2,1,-4,-5,1
1532467567618,-1,0,0,1,0,1,-1,1
1532467567623,1,3,0,2,1,10,1,-1
1532467567628,-1,1,3,0,2,-4,-2,-3
1532467567633,-1,-5,-3,0,0,1,4,0
1532467567638,0,-1,-7,-6,-5,-9,-11,-2
1532467567643,-1,-1,-2,1,2,0,-5,1
1532467567648,0,0,0,1,1,5,19,1
1532467567653,0,3,1,1,3,2,3,0
1532467567658,-2,-7,-2,0,1,-1,-1,0
1532467567663,-1,-2,0,-2,-5,-1,2,-1
1532467567668,-2,-3,-3,-4,-6,-8,-8,-1
1532467567673,0,0,-3,1,-1,2,2,-1
1532467567678,0,0,-1,-1,-1,3,-3,0
1532467567683,1,-1,-2,-1,-1,-10,-4,-4
1532467567688,-2,0,-1,0,-3,-5,-3,-2
1532467567693,-2,0,2,3,0,-3,-2,-2
1532467567698,0,-1,0,2,2,2,2,0
1532467567703,-1,2,-2,-3,-2,0,3,1
1532467567708,-1,-7,-4,-4,-5,5,-1,0
1532467567713,-2,-4,-4,-2,-3,-4,-3,0
1532467567718,-1,1,3,2,3,1,2,0
1532467567723,-1,-2,1,3,3,0,3,-2
1532467567728,0,0,-4,-2,-3,-5,-3,-1
1532467567733,-1,0,6,-1,1,-3,-4,-2
1532467567738,0,-3,-10,-2,-6,-3,1,-1
1532467567743,1,-1,-3,-3,-3,5,8,0
1532467567748,-4,1,1,0,1,-2,-2,-1
1532467567753,-1,1,1,0,0,-1,-2,0
1532467567758,0,2,1,-1,0,-6,-5,-3
1532467567763,0,0,-1,-3,-2,3,-3,-2
1532467567768,-1,0,3,5,5,-3,-4,-1
1532467567773,-1,-2,-5,-2,2,-1,0,-2
1532467567778,0,1,1,-5,-4,9,6,0
1532467567783,-3,-2,-1,0,0,-3,-6,-2
1532467567788,-1,-1,1,-1,-7,-12,-9,-3
1532467567793,0,1,-1,1,-1,-1,-2,0
1532467567798,0,-1,1,2,2,2,4,0
1532467567803,0,-1,-1,1,-1,3,1,1
1532467567808,-1,0,1,3,4,0,-5,1
1532467567813,-1,-2,-6,-9,-10,-7,-3,-2
1532467567818,-1,-1,0,-4,-4,-3,-1,-1
1532467567823,-1,-1,1,2,2,-7,-4,-3
1532467567828,-2,-1,0,-2,1,9,8,1
1532467567833,-1,-1,7,3,-1,-6,-5,1
1532467567838,-2,-3,-6,1,8,5,5,-2
1532467567843,-2,0,-1,-2,-2,-3,-9,0
1532467567848,1,-1,-1,-1,-1,7,5,-1
1532467567853,-4,-1,-3,-4,-5,4,2,-1
1532467567858,-1,1,1,1,0,-3,1,0
1532467567863,-2,-2,0,1,0,-2,-1,-1
1532467567868,1,-1,-3,-1,1,4,-1,-1
1532467567873,-3,-5,-3,3,3,2,0,0
1532467567878,-2,-1,1,-1,-6,-12,-11,-3
1532467567883,-1,-2,-3,-1,0,-1,0,-1
1532467567888,0,0,0,-4,-2,-1,-2,0
1532467567893,1,0,0,2,2,5,8,-1
1532467567898,-1,-1,-2,-5,-1,-5,-11,-1
1532467567903,-1,1,0,-2,-3,-8,-4,0
1532467567908,0,0,2,1,1,-5,-3,-1
1532467567913,1,-3,-8,-3,-3,6,12,2
1532467567918,0,0,0,0,-4,4,1,2
1532467567923,-2,-1,0,0,3,-3,-1,-3
1532467567928,-2,-1,-1,1,2,5,4,-2
1532467567933,0,-1,-1,-1,0,0,-2,-2
1532467567938,-2,-1,-2,-2,-5,-10,-5,-3
1532467567943,-2,-2,-2,-6,-6,0,1,-2
1532467567948,-1,0,-1,-2,-4,-2,0,-1
1532467567953,-1,-4,2,2,0,1,0,0
1532467567958,2,1,3,5,2,9,5,3
1532467567963,-1,-1,1,1,9,-1,-7,-2
1532467567968,0,-2,-4,-3,-6,-7,-2,-2
1532467567973,0,1,-2,-5,-3,-3,-4,-1
1532467567978,-1,-2,0,-2,-2,-2,3,-1
1532467567983,1,0,-1,-1,-1,-2,-3,3
1532467567988,-1,0,0,0,3,15,8,0
1532467567993,0,0,-2,-1,-2,-11,-9,-1
1532467567998,-1,0,0,-1,-1,9,8,0
1532467568003,-1,-1,-1,-2,-4,-2,-5,-3
1532467568008,0,1,-4,-2,-4,-21,-10,0
1532467568013,-1,-3,-2,-1,2,-4,-7,-1
1532467568018,-1,-1,1,3,1,5,2,-1
1532467568023,-1,0,-1,0,-3,6,7,-1
1532467568028,1,-2,2,0,4,8,0,-1
1532467568033,-2,2,-8,-8,-6,-3,0,-3
1532467568038,0,-2,-1,-4,2,-12,-16,-4
1532467568043,2,1,-3,2,-1,5,9,3
1532467568048,-3,0,4,1,2,-2,-1,-3
1532467568053,1,2,2,0,4,4,-1,1
1532467568058,-3,-2,-1,0,-2,-9,-2,-1
1532467568063,0,-3,-2,-1,-1,-3,-6,-4
1532467568068,1,-4,-2,2,6,3,9,0
1532467568073,0,0,2,-4,-5,-3,-1,1
1532467568078,-1,-1,-3,1,-2,1,-1,-2
1532467568083,0,-1,0,4,3,-3,1,1
1532467568088,-1,-1,-4,-5,-6,-4,1,-1
1532467568093,-1,-1,3,4,1,0,-6,-1
1532467568098,1,-2,-1,-3,-2,2,9,-1
1532467568103,-1,3,0,0,-2,-7,-5,-2
1532467568108,-1,-1,-1,-1,-2,-1,-6,-3
1532467568113,0,-1,0,-1,-1,6,6,-1
1532467568118,-2,2,-2,-2,-4,-7,-10,-2
1532467568123,-1,0,0,-1,-3,-12,1,-1
1532467568128,-1,0,0,0,1,2,0,-1
1532467568133,0,-1,-3,-3,-6,2,10,0
1532467568138,0,-1,0,-2,-2,6,3,0
1532467568143,-1,-2,-1,6,7,-2,-5,-3
1532467568148,-2,0,-2,-2,-2,-2,0,-1
1532467568153,0,-3,0,-3,-3,1,-2,0
1532467568158,1,5,0,3,0,-7,-10,0
1532467568163,-1,-7,-3,-1,-2,0,0,-2
1532467568168,-1,-1,2,2,-1,-1,0,-2
1532467568173,-1,-1,0,1,-2,-3,-2,-2
1532467568178,-1,-4,-5,-5,-1,2,3,1
1532467568183,0,3,3,1,2,3,-1,-2
1532467568188,1,0,-1,-1,-2,1,2,0
1532467568193,-2,-2,1,-3,-2,-11,-8,-1
1532467568198,1,4,-1,0,-3,3,5,0
1532467568203,-1,0,-1,0,0,-4,-2,0
1532467568208,-2,-3,-3,-3,0,5,-3,1
1532467568213,-1,-1,-2,3,2,6,-3,1
1532467568218,-1,-2,1,3,2,0,8,-2
1532467568223,2,1,-3,-9,-10,-4,-3,-3
1532467568228,-1,0,-2,-6,-4,-1,-1,-3
1532467568233,1,-2,0,1,0,1,1,0
1532467568238,-2,-2,0,0,-3,1,-1,-1
1532467568243,0,-3,0,3,2,6,4,-2
1532467568248,-1,-1,-4,0,2,-5,-7,-2
1532467568253,-1,0,1,0,-1,-6,2,-2
1532467568258,0,-3,-2,-3,-1,2,1,0
1532467568263,0,1,2,-3,-3,-1,1,1
1532467568268,0,0,0,-1,0,0,-1,-1
1532467568273,-2,0,-3,1,3,7,3,-4
1532467568278,-2,-1,-1,-3,-1,-6,-10,-2
1532467568283,-1,0,-1,2,0,-2,-2,1
1532467568288,-1,-1,0,1,-1,-1,-2,0
1532467568293,-1,0,-3,-3,-6,6,14,0
1532467568298,1,0,-1,3,4,-5,-8,-1
1532467568303,0,-1,-1,-3,-1,-1,-4,-1
1532467568308,-1,-4,-1,-2,-1,2,5,-1
1532467568313,-2,1,-1,-4,-5,1,0,-1
1532467568318,-2,-3,-2,0,-1,-9,-2,-1
1532467568323,-1,3,-1,-2,-2,-4,0,1
1532467568328,0,-4,0,3,4,0,-3,0
1532467568333,-1,0,-2,-4,-2,0,-5,-2
1532467568338,-1,-3,-1,-4,-6,4,7,-1
1532467568343,-3,1,0,3,1,-2,-5,-2
1532467568348,0,1,0,0,-1,2,0,0
1532467568353,1,-2,2,3,6,5,15,1
1532467568358,1,0,-2,1,-1,-7,-11,-1
1532467568363,-1,-2,4,-1,-2,9,10,0
1532467568368,-1,1,-8,-2,1,-6,-9,-1
1532467568373,-2,0,0,-4,0,-2,-7,-1
1532467568378,1,-2,-1,-4,-2,5,3,0
1532467568383,0,-3,1,2,0,-1,0,0
1532467568388,-1,-3,2,-2,-2,-8,-5,-1
1532467568393,1,-1,-2,-5,-5,-8,-9,-3
1532467568398,-1,-2,0,1,1,2,1,-3
1532467568403,0,-2,-4,-5,-2,4,-3,-2
1532467568408,1,1,1,0,-2,-1,8,1
1532467568413,-2,-1,1,2,2,-9,-15,-1
1532467568418,-1,0,1,2,-1,3,3,-1
1532467568423,-2,0,-2,-2,-1,-1,0,-1
1532467568428,1,0,-1,-2,0,8,7,0
1532467568433,-1,1,-2,1,3,0,1,1
1532467568438,-1,-3,-4,-2,-5,-11,-8,1
1532467568443,-1,-2,-1,5,3,-1,-2,-2
1532467568448,2,7,2,3,3,-1,-5,-2
1532467568453,-2,-7,-2,-4,-7,-7,-3,-1
1532467568458,-2,1,1,3,3,8,12,-2
1532467568463,0,-3,-2,-5,-2,-6,-2,-1
1532467568468,-2,2,-1,1,-6,1,-1,-1
1532467568473,-2,0,-1,0,-1,3,0,0
1532467568478,1,0,0,-3,-2,-11,-7,1
1532467568483,-2,-1,0,1,1,1,-6,-1
1532467568488,0,0,0,-4,0,-2,2,0
1532467568493,0,-1,0,0,-2,-2,-1,0
1532467568498,-1,-3,-5,-5,-2,2,-2,-2
1532467568503,0,3,-5,-2,-4,-5,-2,0
1532467568508,-1,-2,1,-1,-2,-3,-1,1
1532467568513,-1,1,0,1,4,-1,-4,-2
1532467568518,-1,-2,2,1,1,8,5,-1
1532467568523,-1,-2,-1,-1,1,-12,-8,-3
1532467568528,-1,-2,-3,-2,-5,-7,-8,0
1532467568533,1,0,2,2,1,23,27,0
1532467568538,-1,0,-2,-4,-2,-5,-6,-2
1532467568543,-2,0,2,1,4,6,6,0
1532467568548,-2,0,0,-1,-2,-9,-9,-1
1532467568553,0,-1,0,1,-2,-5,-4,-3
1532467568558,0,-1,0,-5,-3,-1,0,1
1532467568563,-1,-1,-3,0,-1,-2,4,-1
1532467568568,-3,-3,1,-2,-5,-4,-4,-5
1532467568573,0,2,-2,1,0,-1,-3,1
1532467568578,-1,-1,-3,-3,1,3,-5,0
1532467568583,-1,0,3,4,-1,-8,-3,-2
1532467568588,-1,-2,2,4,4,2,6,0
1532467568593,-1,-1,-2,0,-1,-5,-7,-3
1532467568598,-1,1,1,-4,1,-3,-2,-2
1532467568603,1,0,-3,-3,-2,7,0,0
1532467568608,-6,-4,-5,-4,0,3,3,-3
1532467568613,0,-2,-1,-1,-3,-5,-2,-1
1532467568618,-1,-1,-3,-2,-2,0,-2,0
1532467568623,-1,1,1,0,1,1,2,-1
1532467568628,1,2,0,1,1,12,18,1
1532467568633,0,-2,2,3,2,-10,-12,0
1532467568638,-1,0,-2,0,-4,-1,8,0
1532467568643,-1,-3,-2,-3,-3,1,-2,-3
1532467568648,1,0,-1,-3,-4,-5,-7,-1
1532467568653,-2,-1,-2,-4,-2,-6,-5,-1
1532467568658,-1,0,1,2,1,3,1,-3
1532467568663,-1,0,-2,-3,-3,-3,-4,1
1532467568668,0,-1,-1,1,4,6,3,0
1532467568673,0,1,-2,-4,-6,-2,0,-1
1532467568678,-1,-1,0,5,1,-7,-4,-2
1532467568683,-1,-3,-3,-4,-1,6,4,0
1532467568688,0,-1,0,0,-1,3,8,-3
1532467568693,0,-2,-3,-5,-2,-2,-4,3
1532467568698,-1,-1,-1,-2,-2,3,4,-1
1532467568703,-2,0,2,3,2,-5,-2,-1
1532467568708,1,-3,-3,-1,2,-5,-12,1
1532467568713,-5,1,-2,-1,-2,6,13,-3
1532467568718,1,-1,0,-1,-1,-2,-2,-1
1532467568723,0,-1,0,1,0,-9,-8,-1
1532467568728,-1,0,0,1,0,-2,-6,-3
1532467568733,0,-1,1,5,2,1,-2,0
1532467568738,0,0,-6,-5,-6,0,0,2
1532467568743,-1,-2,-1,-5,-2,5,4,-1
1532467568748,-1,-5,-5,-2,-2,-7,-4,-3
1532467568753,1,-1,3,0,0,0,-6,-1
1532467568758,-1,2,4,5,3,3,3,-1
1532467568763,1,-5,-2,-6,-9,-5,-8,0
1532467568768,-1,2,0,-3,0,1,3,0
1532467568773,-2,1,-2,0,1,0,-2,-2
1532467568778,-2,-2,0,1,4,-5,-6,-1
1532467568783,-3,1,0,2,7,4,2,0
1532467568788,-1,-2,0,-3,-7,0,1,1
1532467568793,-2,-1,-5,-6,-5,-6,-6,-3
1532467568798,1,-2,-2,-3,-3,-6,-4,-1
1532467568803,1,2,1,5,3,7,7,2
1532467568808,-1,-2,0,1,0,3,-2,-3
1532467568813,1,0,1,1,4,-8,-6,-2
1532467568818,0,-1,-2,1,1,0,-1,1
1532467568823,0,-1,-2,-3,-4,-4,-7,-1
1532467568828,0,3,1,-2,0,2,5,-1
1532467568833,-1,-5,0,1,3,-1,-6,-2
1532467568838,-2,-2,0,3,5,0,11,-2
1532467568843,-4,-1,-2,-2,-2,-3,-2,-2
1532467568848,0,-1,3,0,-4,-3,-5,0
1532467568853,0,0,-2,-3,-4,-3,8,-1
1532467568858,-1,-1,-1,-2,0,3,-3,-1
1532467568863,0,-1,1,-1,-1,7,4,0
1532467568868,-1,-2,-3,-4,-2,-16,-12,-3
1532467568873,1,-1,0,3,-2,-2,1,0
1532467568878,-1,-2,0,2,2,2,-1,-2
1532467568883,1,3,3,2,1,-1,-2,-1
1532467568888,0,-3,-2,-1,-2,-7,-6,-1
1532467568893,0,0,-3,-6,-6,0,0,0
1532467568898,2,0,0,-1,-3,-1,-4,-1
1532467568903,-4,0,0,-1,4,8,9,-1
1532467568908,-2,4,1,1,2,0,3,-1
1532467568913,-1,-6,-1,-5,5,2,-4,-1
1532467568918,0,0,-1,-3,-3,5,4,-2
1532467568923,0,-2,-2,-3,-2,-17,-12,-3
1532467568928,-1,-1,-1,2,-4,-5,-3,-2
1532467568933,1,2,-1,0,3,14,15,2
1532467568938,-2,0,-1,-1,2,0,-5,0
1532467568943,1,0,1,-3,-2,4,1,1
1532467568948,-2,0,-2,2,2,-2,-5,-2
1532467568953,1,1,2,1,0,0,0,0
1532467568958,0,1,0,1,-3,-4,-1,-3
1532467568963,1,1,0,0,3,0,3,-1
1532467568968,0,-3,-4,-7,-6,6,4,1
1532467568973,-1,0,0,0,-1,-12,-8,-2
1532467568978,-1,2,3,1,0,-3,-3,0
1532467568983,0,-1,0,3,1,2,3,-1
1532467568988,1,0,-2,-3,-1,5,9,-1
1532467568993,-2,0,0,-1,-1,-7,-11,0
1532467568998,-3,0,1,0,0,-4,-4,-2
1532467569003,0,-2,-2,-3,-6,1,1,0
1532467569008,1,-2,-2,-3,2,2,2,1
1532467569013,-3,2,-1,-3,-4,1,-4,-5
1532467569018,-1,-2,0,0,2,0,0,1
1532467569023,0,-1,-1,4,-3,-1,0,-2
1532467569028,-1,-2,1,3,0,0,-2,0
1532467569033,-1,-3,-5,-7,-6,-6,-3,0
1532467569038,-1,0,-4,1,3,0,0,-2
1532467569043,1,-2,-3,-8,-3,0,-1,-2
1532467569048,-3,0,0,1,-4,-2,-5,-2
1532467569053,0,1,0,2,4,5,11,3
1532467569058,-1,-3,-4,-2,-4,1,-6,-1
1532467569063,-1,-1,-4,1,1,-8,-2,0
1532467569068,0,-1,0,-3,-1,-1,-5,-1
1532467569073,-2,-1,-3,-1,-1,5,2,-2
1532467569078,1,0,0,0,1,1,0,-1
1532467569083,-1,-1,-1,2,0,-4,-7,0
1532467569088,-2,-1,1,-2,-6,0,1,-2
1532467569093,-1,-1,-3,-1,1,-4,-5,-1
1532467569098,-1,-5,-3,-5,-1,-1,1,-1
1532467569103,0,-3,-1,1,0,0,-8,-1
1532467569108,2,0,1,-1,3,4,11,2
1532467569113,-4,-4,0,1,-1,2,1,-2
1532467569118,0,1,0,-2,-4,-4,-1,-2
1532467569123,-2,2,0,0,3,-5,-4,-2
1532467569128,-1,-2,0,4,2,-2,-3,2
1532467569133,0,1,-3,-7,-4,-4,1,-1
1532467569138,-2,-4,-2,-5,-8,1,5,-2
1532467569143,-4,-1,0,1,-3,-9,-5,-2
1532467569148,-1,-1,0,1,-1,-2,2,-3
1532467569153,0,0,1,4,2,0,-7,0
1532467569158,-1,2,-2,-1,-3,-4,-5,0
1532467569163,1,0,1,-4,-4,13,21,0
1532467569168,-2,-1,-2,-1,-1,-7,-7,-2
1532467569173,0,0,2,2,2,13,15,2
1532467569178,-1,-3,-1,-1,2,-4,-9,2
1532467569183,0,-1,-1,-3,-2,0,-1,0
1532467569188,0,-1,-1,-5,-1,3,2,0
1532467569193,0,0,0,-1,-2,0,0,0
1532467569198,0,1,1,-1,4,3,2,-1
1532467569203,0,-1,-1,2,0,-2,2,-1
1532467569208,-1,-4,-3,2,-1,-11,-7,-3
1532467569213,1,0,0,-1,2,-3,2,0
1532467569218,-2,1,-1,0,-2,-3,-3,-4
1532467569223,-6,-6,-3,-2,-2,2,-2,1
1532467569228,1,0,-1,-1,-2,7,7,1
1532467569233,-1,-2,0,4,3,-4,-8,-1
1532467569238,2,-1,1,3,2,1,1,-2
1532467569243,1,2,3,-1,-1,1,1,0
1532467569248,-3,-3,-4,-9,-11,-4,-3,0
1532467569253,-1,-1,-3,-4,-2,-4,-3,-1
1532467569258,-1,-1,-1,2,2,-1,-7,-2
1532467569263,-1,0,-2,-4,-5,1,-2,0
1532467569268,-1,-1,-1,1,3,5,4,-1
1532467569273,0,2,-1,-4,-2,-3,-6,-1
1532467569278,-1,-1,-2,-5,-7,-17,-10,0
1532467569283,-1,-1,1,4,7,12,7,-1
1532467569288,0,0,1,3,5,2,8,1
1532467569293,-2,-2,-6,-2,-5,2,0,-3
1532467569298,0,-1,-1,3,-2,0,3,1
1532467569303,0,0,-2,-2,-4,-5,-4,-1
1532467569308,-2,-1,0,-1,3,2,-2,-1
1532467569313,1,1,1,4,2,5,2,0
1532467569318,-1,-1,-3,-6,0,-1,2,0
1532467569323,0,-2,-1,-4,-4,-4,2,0
1532467569328,0,0,-2,-1,0,-1,-3,-3
1532467569333,3,-1,-1,2,3,-4,1,2
1532467569338,-3,-2,0,0,-1,6,1,-1
1532467569343,-1,0,-3,-7,4,-2,-6,-1
1532467569348,-2,-1,-1,-3,-2,-4,-5,-1
1532467569353,0,-3,1,2,-3,-1,3,-2
1532467569358,0,-1,0,-1,-1,3,3,1
1532467569363,-1,0,-1,-2,-2,-14,-15,-5
1532467569368,0,-2,0,4,2,-2,0,1
1532467569373,-1,-2,-4,-7,-7,-1,-1,-1
1532467569378,0,-2,0,2,-3,3,5,-1
1532467569383,2,1,-1,-1,0,7,3,2
1532467569388,0,0,0,-3,-4,2,-3,-3
1532467569393,0,0,1,2,1,-2,1,-1
1532467569398,1,1,0,4,8,0,-2,1
1532467569403,-1,-3,-5,-6,-7,-8,-4,-2
1532467569408,-1,-1,0,-1,-2,7,7,0
1532467569413,-1,-1,0,1,-1,4,3,-1
1532467569418,0,1,-2,-3,-1,3,4,-1
1532467569423,-2,0,-1,1,-2,-6,-5,-1
1532467569428,-1,0,-1,1,-2,-7,-3,-2
1532467569433,-3,0,2,3,2,0,-5,-1
1532467569438,-1,-1,-2,-3,-3,1,6,-2
1532467569443,1,-2,-1,2,-1,1,2,-1
1532467569448,0,-1,-5,-5,-2,-4,-6,-3
1532467569453,2,0,2,2,-1,1,1,1
1532467569458,-1,-1,-1,-1,0,2,0,0
1532467569463,-3,-2,-4,-7,-2,-2,-3,-4
1532467569468,0,1,0,2,1,2,5,1
1532467569473,-3,0,-2,-6,-5,-8,-10,0
1532467569478,-3,-4,-1,-1,-2,-2,-1,1
1532467569483,0,-1,-1,3,3,4,4,2
1532467569488,-3,-4,-4,-13,-7,-7,-9,-2
1532467569493,1,0,1,4,-1,-2,-3,-2
1532467569498,-1,1,1,-1,-4,-11,-7,0
1532467569503,0,-3,1,4,1,-2,-2,0
1532467569508,-1,1,1,5,8,5,4,2
1532467569513,0,-3,-2,-3,0,5,4,-2
1532467569518,0,-2,-2,-4,-7,0,0,-3
1532467569523,-1,-2,-2,0,-1,-3,4,0
1532467569528,1,0,-1,1,2,1,-7,-1
1532467569533,-2,-2,0,1,-6,-4,2,-3
1532467569538,0,0,0,2,0,0,0,-2
1532467569543,-1,-1,-3,-3,0,2,0,1
1532467569548,-3,-3,-1,-3,-1,-1,-5,-2
1532467569553,0,1,-2,-3,-3,1,5,1
1532467569558,0,0,-1,0,0,1,-4,0
1532467569563,-1,-3,-1,-7,-5,-9,-1,1
1532467569568,2,0,-1,1,1,-2,1,-1
1532467569573,-1,-2,0,-1,-2,3,-1,-2
1532467569578,0,-1,-2,1,3,-1,2,-1
1532467569583,0,-1,0,1,-2,7,-1,2
1532467569588,0,3,-1,-3,-2,-5,-5,0
1532467569593,1,-2,0,-2,-3,-5,-7,-3
1532467569598,-1,1,3,4,0,1,8,1
1532467569603,-1,0,1,1,2,1,-8,1
1532467569608,1,-2,-1,0,1,-2,-4,1
1532467569613,0,2,-1,-3,7,4,7,1
1532467569618,-1,-1,-1,1,-5,-3,1,-3
1532467569623,1,-5,-4,-2,-4,-3,2,0
1532467569628,-3,-1,0,1,2,8,4,-1
1532467569633,-2,1,0,2,-2,-14,-8,-1
1532467569638,-1,-1,-3,-5,-1,2,-2,-1
1532467569643,-1,0,3,6,4,-4,-1,0
1532467569648,0,-1,-1,-2,2,5,4,0
1532467569653,1,-2,-3,-6,-11,0,1,0
1532467569658,-1,0,-2,0,0,-8,-7,-1
1532467569663,-1,-1,-2,-2,0,0,0,-1
1532467569668,-1,-2,1,0,1,-2,3,-1
1532467569673,-2,-1,3,2,4,5,4,1
1532467569678,0,2,-2,1,-3,-4,-7,-1
1532467569683,-1,-2,-4,-3,2,2,6,-1
1532467569688,1,3,0,-2,-2,-6,-3,-2
1532467569693,-4,-5,-1,-1,1,4,4,-1
1532467569698,-1,-2,-3,-4,-4,5,0,-2
1532467569703,-2,2,-1,-3,-1,-7,1,1
1532467569708,-2,-5,-2,2,1,3,1,-3
1532467569713,1,0,-2,-3,-9,-12,-7,-1
1532467569718,-1,-2,-3,-4,-3,1,0,1
1532467569723,0,-1,0,-1,-2,0,-3,-2
1532467569728,1,1,-2,-3,-3,-3,-2,-2
1532467569733,2,1,3,7,6,-4,-7,1
1532467569738,-2,-3,-2,-4,0,2,1,-2
1532467569743,-1,0,0,-2,-2,4,-1,-1
1532467569748,-3,-1,1,1,2,-1,3,1
1532467569753,0,-2,-2,-3,-4,3,2,-3
1532467569758,-1,0,-1,-1,1,-10,-7,0
1532467569763,-3,-1,-1,-3,-4,0,-2,-2
1532467569768,-1,1,1,0,0,-2,-4,0
1532467569773,-1,-1,-4,0,-2,9,4,0
1532467569778,0,0,1,2,-1,-5,-2,1
1532467569783,-1,0,0,1,1,-1,-3,1
1532467569788,-1,0,0,0,-1,-8,0,0
1532467569793,-1,-1,-2,-2,2,-1,-1,-4
1532467569798,-2,5,0,0,3,5,6,-2
1532467569803,0,-7,-2,-3,-3,2,3,-1
1532467569808,-1,-1,-4,-8,-4,-2,-2,-2
1532467569813,0,0,-2,-4,-3,-5,-7,-1
1532467569818,-1,-2,1,3,4,1,-1,0
1532467569823,-1,3,1,3,2,-5,-3,1
1532467569828,0,-1,-1,1,2,1,1,0
1532467569833,-1,-2,0,-1,5,6,2,-3
1532467569838,1,1,-2,-2,-2,2,-1,2
1532467569843,-3,-4,0,-3,1,5,7,-1
1532467569848,0,1,0,0,2,-4,-9,-3
1532467569853,-2,-1,0,-1,-4,-3,0,0
1532467569858,-1,0,-2,-2,-2,-4,-5,-1
1532467569863,-1,-2,-2,0,-1,-3,-3,0
1532467569868,0,2,1,3,3,11,5,0
1532467569873,1,2,-2,0,-1,-6,-3,1
1532467569878,-1,-2,-2,0,-1,-2,-4,1
1532467569883,-1,3,6,-4,-3,-2,-2,-1
1532467569888,-1,-5,-11,-3,1,2,3,0
1532467569893,0,2,3,0,-2,-2,-4,-3
1532467569898,0,-2,1,0,0,3,3,-1
1532467569903,-1,1,-1,-3,-3,-7,-5,-2
1532467569908,-1,-1,4,1,-3,-1,2,-2
1532467569913,1,0,0,1,3,7,-1,0
1532467569918,-2,0,-3,-5,-4,-8,-7,-3
1532467569923,0,0,-2,1,0,0,-1,1
1532467569928,-1,0,1,-1,-3,-3,1,0
1532467569933,1,1,0,-1,1,6,3,0
1532467569938,1,-5,1,2,1,1,0,-2
1532467569943,-1,-1,-3,2,4,-4,-3,-1
1532467569948,1,-1,-2,-3,-2,-6,-2,-2
1532467569953,-2,-1,0,-2,-7,1,2,-2
1532467569958,-1,0,-2,-1,1,3,0,0
1532467569963,-2,-1,-2,-1,-6,4,3,-2
1532467569968,-2,-3,1,0,-2,-10,-7,-1
1532467569973,-2,-1,0,2,3,3,4,-3
1532467569978,-1,0,1,-1,-2,-3,-3,-1
1532467569983,0,0,1,0,1,4,2,-1
1532467569988,0,-2,0,2,2,3,3,0
1532467569993,-1,-1,-1,-1,1,-4,-2,0
1532467569998,2,-1,-1,0,-4,-4,-3,-1
1532467570003,-4,-1,-3,-2,-3,-1,3,0
1532467570008,-1,-1,1,-5,-2,1,-1,-2
1532467570013,-2,-2,-1,-3,-2,-2,-1,2
1532467570018,0,0,1,1,4,6,5,1
1532467570023,1,-1,-2,0,-1,-4,-3,0
1532467570028,-1,-1,2,3,-1,-2,-2,-1
1532467570033,1,-1,-3,2,0,-4,-7,0
1532467570038,-1,1,-1,-4,-1,0,0,2
1532467570043,-1,-2,0,0,-5,-9,-5,-1
1532467570048,-1,-2,-3,1,0,0,-2,-1
1532467570053,-1,1,0,2,-1,-2,-1,-2
1532467570058,0,-2,-2,0,5,8,10,1
1532467570063,1,0,-1,-3,-6,-13,-5,0
1532467570068,-1,-1,0,-2,-2,-1,1,1
1532467570073,-1,-3,-6,-2,-1,4,1,0
1532467570078,-1,0,1,0,-4,-1,-15,-1
1532467570083,-2,-1,0,0,1,3,-1,0
1532467570088,1,0,0,-1,-1,-3,-2,1
1532467570093,-1,-4,-1,-2,0,0,6,-1
1532467570098,-1,0,-2,-5,-7,-4,4,-3
1532467570103,0,1,-1,1,1,3,1,-1
1532467570108,-1,0,-2,-1,-3,-4,-2,0
1532467570113,0,1,-1,0,-1,-2,2,-2
1532467570118,-2,2,2,3,3,-1,-10,-1
1532467570123,1,-2,0,7,8,3,-5,-2
1532467570128,-1,-2,-7,-11,-6,1,-9,-3
1532467570133,-1,-2,-3,-5,-3,-3,-3,-1
1532467570138,-2,-5,1,0,-1,-3,-2,-2
1532467570143,-1,0,2,2,1,3,9,-1
1532467570148,0,-2,0,4,3,11,9,2
1532467570153,-1,-2,-7,-7,-4,-21,-21,-2
1532467570158,-1,-2,-3,-3,-4,-4,0,-2
1532467570163,-1,1,-2,-1,0,1,8,0
1532467570168,0,-1,4,3,1,1,5,-3
1532467570173,0,-1,0,-1,0,7,5,0
1532467570178,-1,-1,1,1,0,2,4,-2
1532467570183,1,-2,-7,-2,0,-1,-4,0
1532467570188,1,0,-1,1,4,-2,-3,1
1532467570193,-3,1,0,-2,-8,0,4,-1
1532467570198,1,-1,-2,-3,-4,-7,0,0
1532467570203,-1,-3,0,-3,-1,2,0,-1
1532467570208,0,-1,0,4,0,-3,-9,-2
1532467570213,1,-2,-2,-2,3,0,-10,-1
1532467570218,-3,3,-1,1,-2,0,-14,-2
1532467570223,-1,1,5,-6,-3,-1,-10,-2
1532467570228,-2,-3,-11,-1,-2,-3,-5,-1
1532467570233,-1,-2,-1,-1,1,1,10,-2
1532467570238,-3,0,-2,-3,-6,-1,10,1
1532467570243,0,-2,0,1,0,1,6,-1
1532467570248,-1,1,0,-3,-1,-1,11,0
1532467570253,0,0,2,1,2,0,2,0
1532467570258,0,-2,-1,-1,1,1,4,-1
1532467570263,-1,1,-3,-1,-3,-3,0,0
1532467570268,-2,0,0,0,-2,0,2,-3
1532467570273,-1,1,0,0,-1,5,3,2
1532467570278,0,-2,-1,-2,0,-1,-1,-1
1532467570283,1,0,-1,2,2,1,4,-3
1532467570288,0,0,1,-1,-1,0,-4,-2
1532467570293,-1,-1,2,2,-4,-5,-2,-2
1532467570298,-1,1,1,1,4,-2,0,0
1532467570303,-3,-2,-4,-8,-11,-5,-3,-1
1532467570308,-3,-1,0,-4,-4,-1,-1,-3
1532467570313,0,0,1,1,-2,2,0,1
1532467570318,0,-1,0,0,2,-1,-1,-2
1532467570323,2,-2,1,3,2,2,1,-1
1532467570328,-1,-2,-2,-6,-3,-5,-8,0
1532467570333,1,-1,-1,1,-1,7,12,-1
1532467570338,-1,-1,-2,-2,-4,-3,-2,0
1532467570343,-1,-1,-2,-1,0,-2,-1,-1
1532467570348,-1,2,0,0,-1,0,1,1
1532467570353,-1,0,1,1,3,-1,-4,-1
1532467570358,0,-2,-1,0,0,1,0,-3
1532467570363,0,0,0,-1,-1,-2,-1,0
1532467570368,-2,0,-2,-2,0,1,-2,-11
1532467570373,-1,0,-1,-2,-4,-1,-2,7
1532467570378,2,-1,-2,1,1,2,6,12
1532467570383,-3,-3,-1,3,1,-2,0,-6
1532467570388,1,-2,-3,-2,-5,-4,1,2
1532467570393,-3,-2,-1,1,-1,-3,-6,-9
1532467570398,-2,-2,-3,-3,-4,0,-3,-3
1532467570403,0,-2,-2,-2,-2,2,-3,3
1532467570408,-1,0,0,-1,2,-11,-6,-2
1532467570413,-1,0,0,0,1,1,-5,-3
1532467570418,-1,0,2,1,-2,3,11,-1
1532467570423,-3,0,2,2,3,0,-8,-3
1532467570428,-1,0,0,-2,-2,0,-2,0
1532467570433,1,-1,-2,-3,-4,-5,-5,-3
1532467570438,0,-3,-4,-7,-4,0,-1,-5
1532467570443,-1,1,-2,-3,-4,-1,-3,1
1532467570448,-1,0,2,4,3,2,2,1
1532467570453,2,-1,-1,2,2,1,-3,6
1532467570458,0,0,-1,-1,-2,0,-10,-3
1532467570463,-1,-2,-3,0,1,-3,-5,1
1532467570468,0,-2,-1,-5,1,1,3,1
1532467570473,-2,-2,-3,-6,-8,-3,9,-2
1532467570478,-1,0,0,0,2,-1,-1,-6
1532467570483,-1,-1,-1,-1,0,-3,0,-1
1532467570488,-1,-1,1,2,0,2,3,2
1532467570493,0,0,0,2,5,2,2,0
1532467570498,-2,-1,-1,0,-2,-4,0,-2
1532467570503,0,-1,0,0,-1,-1,5,0
1532467570508,-2,0,-2,1,-4,-1,-3,0
1532467570513,-1,-1,1,3,5,1,0,2
1532467570518,-2,-2,-3,-7,-3,-1,-3,-1
1532467570523,-2,0,-2,-4,-4,-10,-6,-3
1532467570528,-4,0,0,0,0,-11,4,1
1532467570533,0,-2,-2,3,5,29,-10,-1
1532467570538,-2,2,2,0,2,-1,3,-3
1532467570543,-2,-4,-4,-7,-2,1,-5,-3
1532467570548,2,2,2,0,-4,-10,3,-1
1532467570553,1,-1,-2,0,0,-9,0,-1
1532467570558,-3,-2,-4,-1,-5,-7,-2,-1
1532467570563,2,1,0,-2,-2,8,3,4
1532467570568,0,-1,-2,-1,0,1,-3,0
1532467570573,-1,1,0,-2,0,7,12,1
1532467570578,-1,0,0,-1,1,-3,0,-1
1532467570583,-1,-1,0,2,-2,-28,4,-1
1532467570588,-1,0,-1,0,6,17,-1,0
1532467570593,1,-2,-1,-5,-6,-4,1,0
1532467570598,0,-3,-1,1,2,5,-4,-1
1532467570603,0,-1,-1,-1,-3,-14,-9,-1
1532467570608,1,-1,-2,-1,-5,-6,-1,0
1532467570613,0,0,0,4,5,9,-14,-1
1532467570618,1,1,-1,-4,1,10,10,0
1532467570623,-2,-2,0,1,-3,4,-8,-2
1532467570628,-1,0,-2,-3,-4,-2,-6,-3
1532467570633,-1,0,0,-3,-6,-7,2,0
1532467570638,-2,-1,-2,-3,-2,-5,-7,-2
1532467570643,-1,-1,-1,0,-1,-14,0,1
1532467570648,-1,-1,2,2,1,24,0,-4
1532467570653,-2,-1,0,-1,0,-4,4,2
1532467570658,3,1,1,3,3,7,1,11
1532467570663,-1,0,1,0,1,3,-4,-5
1532467570668,0,-1,-6,-2,-2,-13,-3,3
1532467570673,0,-1,0,-1,-4,-12,0,-6
1532467570678,-3,-1,-1,3,5,12,-11,-6
1532467570683,1,0,-2,4,2,-1,-4,-1
1532467570688,-1,0,1,-4,-2,29,8,-1
1532467570693,-1,-1,-3,-4,-5,-16,-6,-2
1532467570698,2,0,-1,0,-1,0,8,1
1532467570703,-2,0,-1,-2,-2,3,-1,0
1532467570708,-1,-2,2,3,2,0,2,-1
1532467570713,-3,-1,-2,0,5,0,1,1
1532467570718,0,-1,-2,-3,-6,-13,-9,-2
1532467570723,-1,-1,-1,-1,-1,0,3,-3
1532467570728,0,0,0,0,0,-8,-6,-1
1532467570733,0,0,2,1,2,-2,7,-1
1532467570738,-3,-2,-1,3,0,10,-8,-4
1532467570743,-1,0,-1,-9,-6,-2,10,0
1532467570748,-1,-3,-1,-1,-2,-26,-10,1
1532467570753,-4,-2,-2,-3,-1,11,7,-2
1532467570758,1,-1,-1,0,-1,-6,-10,2
1532467570763,1,0,-5,-4,-4,1,-6,3
1532467570768,-1,-3,0,-1,-1,7,-2,0
1532467570773,0,-1,0,1,1,-19,-1,-3
1532467570778,-3,-2,-1,-3,-1,19,11,-4
1532467570783,-2,0,2,1,4,2,1,1
1532467570788,-1,1,0,-2,-2,-17,-2,-5
1532467570793,8,4,2,2,0,4,3,5
1532467570798,-12,-7,-4,-2,-3,-12,1,1
1532467570803,-2,-5,1,0,1,-8,-7,-2
1532467570808,-2,0,4,2,4,2,0,-1
1532467570813,0,-3,-9,-2,-6,5,-2,-1
1532467570818,6,2,1,1,0,-11,4,5
1532467570823,-2,-1,-2,-1,7,-13,-10,-2
1532467570828,0,-2,-3,-5,-12,28,7,9
1532467570833,1,-2,2,-3,-5,-12,-5,1
1532467570838,1,0,-1,-2,1,-12,-1,-7
1532467570843,-1,-1,-1,2,-2,24,3,-7
1532467570848,1,-1,0,3,8,-8,1,-8
1532467570853,-1,0,-1,-2,-2,-6,1,-3
1532467570858,0,-1,2,2,-1,9,0,-3
1532467570863,-1,-3,0,-1,-5,-11,-2,-1
1532467570868,-1,-3,0,0,-2,-14,-9,-3
1532467570873,-2,-2,-1,0,4,5,-2,1
1532467570878,-4,-3,-3,-4,-4,-19,-8,-4
1532467570883,12,1,0,-1,-4,8,4,3
1532467570888,-6,-3,-4,1,4,-14,0,0
1532467570893,3,2,0,-3,-8,-4,-4,-3
1532467570898,-3,-2,0,-4,-8,-44,3,-3
1532467570903,-5,3,-3,-2,1,78,8,-2
1532467570908,-15,-11,0,3,2,-4,-3,4
1532467570913,-2,0,3,2,4,10,4,-15
1532467570918,2,-2,-2,-2,2,-9,1,13
1532467570923,0,-1,-1,0,-4,-17,-6,-3
1532467570928,4,3,-2,-1,-4,-11,0,5
1532467570933,-2,0,0,1,0,-6,-4,1
1532467570938,-1,2,2,0,2,36,5,-3
1532467570943,0,-1,3,0,3,-6,2,1
1532467570948,1,2,-4,-1,-8,-33,-1,0
1532467570953,0,-3,-2,0,-2,2,-4,3
1532467570958,4,-1,-1,-1,-1,-1,-3,-5
1532467570963,-4,0,0,0,2,-4,1,-8
1532467570968,1,0,-3,-3,-4,-9,-1,6
1532467570973,-1,-2,-2,-1,4,1,-4,4
1532467570978,1,0,0,1,0,5,-2,2
1532467570983,-3,-2,0,1,0,-9,-2,-1
1532467570988,0,-1,-1,-5,-3,15,2,-10
1532467570993,-2,-2,-2,-5,-8,-4,-3,-7
1532467570998,1,-1,1,-2,2,11,-1,4
1532467571003,-2,-1,-1,0,-1,-11,-1,-3
1532467571008,3,2,1,4,6,15,0,-3
1532467571013,-2,-2,1,2,3,1,-4,-7
1532467571018,-2,-2,-4,-2,-8,-12,4,-1
1532467571023,-1,-2,-2,-3,-6,-15,-12,0
1532467571028,1,0,-1,-2,1,7,2,-2
1532467571033,3,3,1,1,4,1,4,4
1532467571038,-6,-4,0,-1,0,3,1,-1
1532467571043,-8,-2,1,0,3,10,0,-3
1532467571048,11,0,-1,-3,-4,5,4,-5
1532467571053,-4,0,0,-1,-4,-5,0,4
1532467571058,2,8,1,0,0,4,4,-3
1532467571063,-4,1,-4,-3,-2,-12,3,4
1532467571068,11,2,0,1,0,-4,-1,-1
1532467571073,-52,-18,-6,0,1,6,-5,-3
1532467571078,0,-7,-1,-1,-2,-4,1,3
1532467571083,-3,0,-1,-2,-1,-5,0,-2
1532467571088,2,3,3,0,-4,7,0,5
1532467571093,18,6,2,1,0,-11,4,1
1532467571098,-6,0,-1,0,1,8,7,-1
1532467571103,-1,-3,0,1,1,-4,-6,-7
1532467571108,-4,-5,-2,-2,-3,-6,-2,5
1532467571113,7,3,0,-2,-1,8,-4,18
1532467571118,-5,-3,-2,-1,-1,-15,-4,4
1532467571123,9,0,-3,-2,-2,-1,-3,16
1532467571128,-8,-9,-4,-5,-4,-2,0,-3
1532467571133,11,8,1,-1,0,11,-1,-1
1532467571138,5,3,1,1,-1,-31,-3,-7
1532467571143,-4,2,0,-2,0,26,-8,-7
1532467571148,-8,-2,0,0,3,-1,-10,14
1532467571153,1,-1,-1,-2,-1,-1,2,-2
1532467571158,1,-8,-3,-1,-1,-9,-7,-10
1532467571163,1,0,-1,-1,-5,-1,7,-20
1532467571168,-4,-7,-4,0,-3,2,3,-14
1532467571173,7,8,1,1,0,2,5,-12
1532467571178,0,6,-2,-3,1,11,1,-9
1532467571183,6,-5,-1,1,-2,-9,-31,-3
1532467571188,-23,5,1,-1,-1,4,24,-19
1532467571193,-4,-12,-5,-2,-5,-13,-6,11
1532467571198,1,1,0,-2,0,7,-1,-14
1532467571203,-4,-3,-1,0,-2,-4,1,6
1532467571208,7,4,1,1,1,0,-4,-3
1532467571213,6,0,1,3,1,-4,1,1
1532467571218,-4,-4,1,3,0,7,-5,0
1532467571223,2,1,0,-4,-5,-3,13,6
1532467571228,3,0,-3,-4,-2,-3,4,2
1532467571233,0,-2,-1,-4,-4,-3,-2,-5
1532467571238,5,-1,-2,0,-2,9,-14,11
1532467571243,0,2,1,3,2,-9,3,1
1532467571248,-3,-8,-1,3,4,3,-1,-8
1532467571253,2,6,-1,0,0,0,-4,7
1532467571258,0,-1,-1,-2,-3,1,7,9
1532467571263,4,1,1,-1,-1,1,6,-4
1532467571268,0,2,-1,-2,-2,0,-11,-9
1532467571273,-2,-5,0,0,1,0,5,-9
1532467571278,5,0,0,1,-1,2,2,-1
1532467571283,-4,-4,-3,0,0,-4,5,2
1532467571288,2,0,0,-1,-3,0,-11,4
1532467571293,-2,-3,0,4,-1,-3,-7,-2
1532467571298,-3,1,0,3,5,3,-5,0
1532467571303,-3,-2,-4,-5,8,-2,-6,-1
1532467571308,1,-1,-3,-9,-16,-3,-6,6
1532467571313,1,1,0,2,2,3,-2,-4
1532467571318,-3,-3,-2,-6,2,0,1,-4
1532467571323,-7,-3,0,4,-4,2,7,-1
1532467571328,4,1,2,5,1,0,4,3
1532467571333,-2,-1,-5,-10,-6,-5,3,-5
1532467571338,1,-1,-2,-4,-4,0,3,5
1532467571343,0,-2,1,1,1,0,5,1
1532467571348,3,7,4,11,6,2,3,6
1532467571353,-12,-5,2,12,11,1,-3,2
1532467571358,3,-4,-5,-11,15,0,-2,-9
1532467571363,0,-5,-12,-19,-15,-6,-5,2
1532467571368,0,-3,-3,-5,-17,-5,-2,-1
1532467571373,5,1,2,3,-7,-1,-1,-1
1532467571378,-2,1,3,10,7,-1,-3,2
1532467571383,1,0,3,5,5,1,0,1
1532467571388,0,0,-1,1,3,1,-4,-4
1532467571393,-2,-2,-2,-8,-5,-3,-5,-2
1532467571398,-4,-2,-4,1,-8,-4,0,-1
1532467571403,1,2,0,4,4,-1,-2,0
1532467571408,-6,-2,1,5,11,5,3,-3
1532467571413,0,-1,-4,-5,4,-5,4,-7
1532467571418,4,1,0,-8,-10,-2,5,6
1532467571423,4,2,1,0,-17,-3,2,4
1532467571428,1,-2,-3,-3,6,0,-4,4
1532467571433,-19,-6,-10,-2,-5,-6,-10,-13
1532467571438,9,1,5,-2,-1,12,-11,0
1532467571443,-2,4,-7,2,6,2,-1,1
1532467571448,2,-2,-4,-1,7,2,-8,2
1532467571453,5,0,1,3,-2,2,2,0
1532467571458,-11,-2,-6,-1,-9,-18,-6,-4
1532467571463,-1,0,-1,-6,0,-5,-5,-2
1532467571468,-2,0,0,-4,-10,2,1,-3
1532467571473,3,-2,5,1,0,1,9,5
1532467571478,2,2,6,6,-2,1,11,-1
1532467571483,-2,4,7,3,2,-7,9,-1
1532467571488,-5,-3,-6,-4,2,-11,3,-6
1532467571493,2,1,1,-2,6,10,1,-1
1532467571498,1,2,0,4,-6,-2,2,-2
1532467571503,-3,-2,0,5,8,6,-2,1
1532467571508,-3,-2,-2,-4,5,-1,-2,-5
1532467571513,3,0,-4,-9,-10,-6,0,1
1532467571518,-4,-2,-3,-3,-1,0,2,1
1532467571523,2,-3,-3,-2,-2,1,3,-2
1532467571528,-2,2,3,7,3,4,1,1
1532467571533,2,-1,1,6,5,-2,-1,4
1532467571538,-5,-3,-9,-11,-5,-5,-2,-3
1532467571543,0,-4,1,0,-9,0,-1,-2
1532467571548,2,2,1,-1,3,-6,-2,2
1532467571553,1,0,0,1,-2,7,-5,-1
1532467571558,-4,-1,1,3,-3,1,-9,-3
1532467571563,-4,-5,-5,-9,7,1,-4,-10
1532467571568,1,2,2,-6,6,0,0,-6
1532467571573,-1,0,4,-8,-9,-5,-6,3
1532467571578,3,2,-4,-2,0,-1,-3,-1
1532467571583,-4,-1,0,4,-2,-5,0,3
1532467571588,-6,-5,5,0,8,1,2,-7
1532467571593,2,1,-11,-3,-6,1,-1,2
1532467571598,0,3,4,0,-1,-1,-2,7
1532467571603,1,-1,3,0,-2,-1,1,2
1532467571608,2,-4,-6,3,-4,3,1,13
1532467571613,-5,0,2,2,16,0,0,-10
1532467571618,1,-3,-3,-3,-8,-2,0,-4
1532467571623,-3,-3,-1,-5,-10,-5,-4,-6
1532467571628,0,1,-3,1,-2,-2,1,8
1532467571633,0,-6,-4,-1,0,1,-2,0
1532467571638,-4,-3,0,-5,2,-5,1,-2
1532467571643,1,-1,-4,3,-3,12,-1,3
1532467571648,0,-3,-1,-2,9,-4,-4,-8
1532467571653,-4,-2,2,-3,-8,-4,-4,-1
1532467571658,-3,-2,-1,4,1,6,0,5
1532467571663,4,4,13,3,6,-10,-1,-2
1532467571668,1,2,-17,-3,-6,3,4,-3
1532467571673,-1,-6,-1,-3,0,-1,-4,-2
1532467571678,-4,-4,-1,0,0,0,0,-2
1532467571683,2,1,1,-1,-2,-5,-2,3
1532467571688,0,1,3,4,3,8,2,3
1532467571693,6,1,2,3,-2,-4,-1,3
1532467571698,-4,-1,-4,-8,-4,-2,-3,-6
1532467571703,1,-2,-3,-9,-6,0,-2,1
1532467571708,1,-3,-2,-3,-7,-5,7,-2
1532467571713,2,2,-3,2,3,2,-6,1
1532467571718,-1,-1,3,1,-6,-1,0,2
1532467571723,-1,1,-1,-2,3,-1,0,-4
1532467571728,-2,0,3,-2,7,-1,0,-1
1532467571733,-4,-1,-2,0,-4,0,6,1
1532467571738,2,-1,-6,3,1,1,3,-2
1532467571743,-3,-2,-1,-2,-3,-2,1,-2
1532467571748,2,-2,2,0,0,-1,3,7
1532467571753,0,1,1,0,-5,-3,2,-3
1532467571758,-7,-4,1,1,3,0,-3,-6
1532467571763,1,0,-3,-2,-5,1,-5,-2
1532467571768,-1,-3,-1,2,6,0,-6,-4
1532467571773,3,-1,-1,-4,-7,-3,0,0
1532467571778,-5,1,-3,-5,-8,-4,-8,-5
1532467571783,-6,-2,-1,6,5,0,1,0
1532467571788,3,2,3,4,-6,2,-2,-4
1532467571793,2,-1,-3,-7,8,-1,-1,1
1532467571798,1,0,-1,-2,-7,-3,0,-3
1532467571803,0,0,-2,-5,3,-2,0,1
1532467571808,-6,-4,-1,-3,-13,-4,-7,-3
1532467571813,-2,-2,-2,6,8,5,-1,0
1532467571818,5,2,2,3,9,1,-2,-1
1532467571823,-1,2,0,3,-7,-10,-3,1
1532467571828,1,0,-1,-2,2,-9,0,0
1532467571833,-2,-1,-2,-9,-23,-3,1,-2
1532467571838,2,1,1,1,9,5,1,2
1532467571843,-3,-1,-2,-2,3,7,0,-1
1532467571848,-1,-2,-3,-2,8,3,-2,-6
1532467571853,-1,0,0,1,13,7,-2,-1
1532467571858,0,0,2,-1,-24,-14,1,2
1532467571863,0,-1,-2,-6,-7,-7,1,0
1532467571868,-3,-2,-2,-5,-6,-4,-4,-2
1532467571873,-2,-3,-1,1,6,1,-1,-2
1532467571878,1,0,-1,3,8,6,1,1
1532467571883,3,1,2,4,0,3,-1,5
1532467571888,-1,0,-2,-1,6,-1,-2,-1
1532467571893,0,-2,-1,-5,-15,-4,-3,-4
1532467571898,-1,-2,0,2,8,4,2,1
1532467571903,-1,-2,-5,-1,8,2,-1,-2
1532467571908,-1,-3,1,-4,-9,9,-2,-2
1532467571913,0,1,-1,-1,-9,-8,-3,-1
1532467571918,-4,-1,0,3,25,0,-1,-5
1532467571923,1,0,1,1,-27,-32,-4,-3
1532467571928,-5,-4,-2,0,34,37,-5,-12
1532467571933,6,2,-4,-12,-56,-5,20,29
1532467571938,2,1,1,0,37,9,1,4
1532467571943,0,-1,0,1,-22,-13,-7,-2
1532467571948,-1,0,-1,6,19,-1,13,-2
1532467571953,-6,-4,-5,-5,-1,2,-9,-7
1532467571958,4,1,4,6,6,19,7,2
1532467571963,1,1,1,-1,-2,-18,-5,4
1532467571968,-1,0,-2,0,-20,-7,-11,-1
1532467571973,-3,-2,-3,-1,17,-6,15,-4
1532467571978,-1,-2,-2,-3,7,-5,-5,-1
1532467571983,-2,-3,0,1,42,-7,-15,-18
1532467571988,2,1,0,-8,-84,14,13,18
1532467571993,-3,-3,-3,-3,20,-5,-1,-4
1532467571998,-5,-2,0,-3,-14,-6,9,-2
1532467572003,1,-1,-3,-5,-1,12,18,8
1532467572008,0,-1,1,12,59,3,-5,-7
1532467572013,0,2,3,-1,-67,-51,0,-3
1532467572018,0,0,-6,-9,-20,-8,-6,1
1532467572023,-3,-3,-3,-2,7,25,-14,-7
1532467572028,-4,-2,-1,-1,-19,-5,-7,-3
1532467572033,0,-1,-4,-7,23,31,7,4
1532467572038,-2,-3,-4,-3,-11,-28,-9,-2
1532467572043,0,-1,0,3,11,8,-5,-3
1532467572048,-1,-2,-4,-5,-8,-4,5,1
1532467572053,0,2,4,4,-4,9,9,3
1532467572058,2,0,1,4,51,34,-6,-6
1532467572063,-7,-5,-6,-7,-66,-66,-11,-8
1532467572068,-1,-1,-5,-8,-1,5,-14,0
1532467572073,0,0,1,2,-9,0,-3,1
1532467572078,-3,1,-2,-5,-15,-11,-6,-6
1532467572083,0,2,4,7,37,29,-6,-1
1532467572088,-3,-1,-1,4,4,2,-1,-6
1532467572093,0,-2,-3,-1,-12,-11,3,2
1532467572098,-3,0,-4,-8,-2,-5,2,-4
1532467572103,-1,-1,-2,-2,8,10,-3,-4
1532467572108,0,2,0,0,-13,-10,1,-1
1532467572113,-1,1,0,0,5,3,-1,1
1532467572118,1,-2,1,2,1,16,3,1
1532467572123,3,0,3,8,44,49,7,6
1532467572128,-2,-3,-4,-12,-54,-66,-1,-2
1532467572133,-1,-1,0,2,9,15,0,2
1532467572138,-2,-1,0,-2,-14,-17,-12,-1
1532467572143,-2,-1,-2,2,22,14,-11,-4
1532467572148,3,2,4,7,2,4,-3,3
1532467572153,2,0,-1,1,-7,8,4,4
1532467572158,-2,0,-1,-6,-22,-24,5,2
1532467572163,-1,-2,-2,-2,9,18,4,-3
1532467572168,0,0,1,3,12,16,2,-1
1532467572173,-1,-2,-3,-5,-10,-14,-9,-2
1532467572178,1,1,3,0,-10,-11,-4,0
1532467572183,0,-1,1,5,10,0,-4,-4
1532467572188,-3,-2,-1,-3,3,9,0,-1
1532467572193,0,-2,-2,-2,-5,-3,3,-2
1532467572198,1,1,0,3,2,1,4,1
1532467572203,-1,-3,0,-1,1,-12,3,0
1532467572208,2,-1,-2,-4,1,11,2,-2
1532467572213,1,-1,0,2,1,-3,2,2
1532467572218,-3,-2,-1,3,7,7,1,-1
1532467572223,0,0,1,-3,-26,-21,-2,-3
1532467572228,1,1,-2,-1,5,9,0,3
1532467572233,-2,-3,-1,-1,6,1,-1,-6
1532467572238,1,0,0,-1,-6,-10,-2,-1
1532467572243,2,1,0,-3,-2,-12,-1,1
1532467572248,-4,-2,0,4,17,26,0,-3
1532467572253,-1,-2,-2,-5,-9,-4,1,0
1532467572258,-2,-4,-1,-4,1,-16,-4,-1
1532467572263,-2,-1,-2,-2,0,5,4,-1
1532467572268,-1,-3,-1,0,-2,-11,-1,-2
1532467572273,-2,1,2,5,8,-3,-1,-2
1532467572278,-2,-2,-3,0,-2,21,0,-1
1532467572283,-2,-2,-4,-9,-11,-17,-7,-3
1532467572288,1,-2,0,-4,-12,0,3,4
1532467572293,-3,-2,0,1,10,10,3,-2
1532467572298,-1,0,-1,-1,-14,-6,2,-2
1532467572303,1,0,0,4,6,4,0,3
1532467572308,-4,0,0,-1,0,-1,-1,-4
1532467572313,-3,0,-3,-5,-6,-3,-1,-2
1532467572318,3,1,-2,2,5,0,1,-1
1532467572323,-10,-4,-1,2,3,9,0,-3
1532467572328,3,1,2,1,4,-4,-3,5
1532467572333,0,1,0,3,3,-1,-1,-2
1532467572338,-1,-1,0,-3,-4,-5,-1,0
1532467572343,0,0,0,2,1,-3,0,-2
1532467572348,-2,-3,-1,-3,-2,0,-2,-3
1532467572353,0,-1,-2,-8,-12,-5,-2,-1
1532467572358,0,0,-1,-2,6,6,1,0
1532467572363,0,1,-1,-2,-3,-7,-2,-1
1532467572368,1,-1,-1,1,3,2,-1,-1
1532467572373,0,-1,-1,1,1,1,-1,-2
1532467572378,-1,-2,0,1,-3,-8,1,1
1532467572383,2,0,0,0,9,8,-6,1
1532467572388,-1,1,-1,0,0,-1,10,-3
1532467572393,-2,1,-1,-3,-5,-8,1,-1
1532467572398,-1,-2,-3,-2,3,-11,-3,0
1532467572403,2,-1,0,0,1,9,1,3
1532467572408,0,-1,-2,-2,2,5,-5,-6
1532467572413,0,-1,1,4,1,1,1,0
1532467572418,0,-3,0,1,7,3,2,0
1532467572423,1,-1,-1,-4,-9,-2,2,1
1532467572428,-1,0,0,-4,-9,-5,0,2
1532467572433,-1,-1,1,3,1,3,2,3
1532467572438,-2,0,0,0,4,1,-2,-2
1532467572443,-1,-1,-4,-10,-19,-16,-3,0
1532467572448,0,1,-4,-1,8,14,0,0
1532467572453,0,0,0,-3,-4,-5,1,-2
1532467572458,-4,-2,-1,2,-1,4,5,1
1532467572463,-1,1,4,2,7,4,-2,0
1532467572468,-1,-2,-2,0,-2,-6,-7,-1
1532467572473,1,1,1,3,3,2,-7,0
1532467572478,1,-1,0,-2,0,0,-6,-4
1532467572483,0,-1,-1,-1,-4,-1,2,-2
1532467572488,-1,-1,0,-1,3,-16,-6,0
1532467572493,-3,-4,-3,-5,-7,-3,-15,-2
1532467572498,0,-3,-2,0,4,0,2,0
1532467572503,0,0,2,1,3,1,-4,-2
1532467572508,-2,-1,1,0,-1,4,1,-2
1532467572513,-1,-2,-1,5,20,7,7,-1
1532467572518,-1,0,0,-4,4,-15,7,-1
1532467572523,-5,-2,-4,-10,-43,-32,6,-2
1532467572528,0,-1,0,3,6,2,7,2
1532467572533,2,-1,-3,-9,-9,-7,-4,-2
1532467572538,2,1,0,4,4,13,1,-2
1532467572543,0,2,3,5,17,5,3,-1
1532467572548,0,-2,0,-1,-2,0,5,1
1532467572553,-2,0,-3,-3,-5,-1,-2,3
1532467572558,-2,1,-3,-7,-20,0,-19,-4
1532467572563,3,-2,-2,-1,3,-18,7,6
1532467572568,-7,-4,-1,0,1,15,-14,-2
1532467572573,0,0,-1,-1,-7,3,4,0
1532467572578,-3,-2,0,3,5,1,-3,-3
1532467572583,-1,0,0,-1,0,7,-9,-6
1532467572588,3,-1,-2,-6,-6,-1,6,5
1532467572593,-3,-3,-3,-5,-3,-18,-5,-9
1532467572598,-1,-1,-1,-3,-6,-11,-4,-4
1532467572603,-1,-1,0,4,1,9,-4,-1
1532467572608,0,1,1,7,13,2,-6,-2
1532467572613,-1,1,0,-3,-15,-17,3,-1
1532467572618,-1,-1,-1,3,12,16,1,-1
1532467572623,-1,-1,-1,-1,5,-1,2,1
1532467572628,0,-1,0,1,-1,-24,-8,-1
1532467572633,-1,-4,-2,1,8,9,9,-3
1532467572638,-2,-1,1,3,-6,8,-2,-4
1532467572643,0,-1,-2,1,14,5,23,8
1532467572648,-2,0,-3,-7,-12,-6,-13,-3
1532467572653,-4,-2,-3,-4,-5,-15,-19,-19
1532467572658,2,1,0,3,2,-9,3,9
1532467572663,-1,-1,0,0,6,15,13,1
1532467572668,-1,-1,-2,0,-1,-5,5,7
1532467572673,-1,1,0,-2,-7,3,-7,-6
1532467572678,-2,0,-2,-1,-3,-4,-2,-7
1532467572683,1,-2,0,0,-10,10,-1,11
1532467572688,0,-1,0,1,5,2,-1,1
1532467572693,-2,-3,-4,-2,14,-15,9,6
1532467572698,1,-1,1,-3,-1,26,-17,-4
1532467572703,-4,-1,-2,-7,-16,-10,1,-7
1532467572708,-1,-2,-1,-2,-6,-15,-19,-4
1532467572713,2,-1,1,2,4,17,-8,7
1532467572718,-1,-1,1,4,18,8,15,0
1532467572723,0,-1,-2,0,-3,-28,-19,-8
1532467572728,1,0,-2,-8,-12,0,10,3
1532467572733,0,2,0,2,3,14,15,3
1532467572738,0,-1,-1,3,-1,4,-1,3
1532467572743,-2,-2,-1,-3,0,-1,0,-9
1532467572748,-1,0,1,2,2,1,-17,-1
1532467572753,0,0,0,4,6,-2,-3,-3
1532467572758,-1,-1,-2,-5,-2,2,7,6
1532467572763,-3,-2,-3,-3,-1,-8,-12,-8
1532467572768,-2,0,-4,-2,-12,-10,13,-2
1532467572773,-1,-2,0,-3,-6,0,-10,4
1532467572778,-2,-2,-2,0,0,11,2,-9
1532467572783,0,-1,1,3,0,12,10,7
1532467572788,-1,0,1,0,7,10,8,4
1532467572793,1,0,-2,-2,-6,-14,-10,2
1532467572798,0,-1,-2,1,-3,-5,9,3
1532467572803,0,0,-1,-1,6,2,-1,-3
1532467572808,-1,-2,-2,-1,-2,-1,10,0
1532467572813,-2,0,0,2,14,6,-15,-8
1532467572818,-1,-1,-1,-2,-26,-16,28,-3
1532467572823,1,-2,-3,-1,8,5,-11,-2
1532467572828,-1,0,-1,0,-2,-9,-5,-7
1532467572833,1,0,1,0,6,-9,-11,-1
1532467572838,0,0,0,-1,3,3,11,0
1532467572843,0,2,0,2,3,27,18,14
1532467572848,-2,-4,-4,-4,1,18,3,-4
1532467572853,-2,-3,-2,-4,-16,-18,1,-6
1532467572858,0,-1,2,1,2,-16,-1,3
1532467572863,-1,-1,0,0,-7,-26,-14,-2
1532467572868,0,1,0,1,14,32,6,6
1532467572873,0,2,0,-1,-2,10,10,4
1532467572878,0,-2,-2,-5,-10,-13,-30,-10
1532467572883,1,0,1,-1,7,4,-4,3
1532467572888,-1,-2,0,-1,-4,-10,-41,-10
1532467572893,0,0,-2,4,6,2,25,9
1532467572898,-3,-1,-2,-1,0,-1,-12,-4
1532467572903,0,-1,-2,-2,0,2,5,13
1532467572908,-1,1,0,0,-5,-6,2,-3
1532467572913,-2,-2,-1,-2,-3,2,5,-1
1532467572918,-3,-2,-2,2,20,-5,-14,-5
1532467572923,0,-1,-2,-1,-22,-21,1,-6
1532467572928,2,0,1,-1,-3,6,14,-5
1532467572933,4,1,2,0,5,8,-7,2
1532467572938,0,3,1,5,8,-4,27,3
1532467572943,-1,-2,0,-2,1,6,-11,-4
1532467572948,-4,-4,-4,-2,-5,-14,-16,-10
1532467572953,-1,-1,-2,-2,-2,-12,9,4
1532467572958,1,-1,-1,2,3,21,6,1
1532467572963,0,-1,-1,1,4,-5,4,-6
1532467572968,2,3,2,0,-3,0,18,6
1532467572973,-4,-4,0,-2,-3,1,-13,-5
1532467572978,-2,-1,-3,-8,-18,0,12,-2
1532467572983,-3,-1,-3,-1,8,9,-32,-16
1532467572988,-1,-1,-1,-5,-12,-35,-4,4
1532467572993,3,0,0,3,-1,19,30,6
1532467572998,1,-2,0,-1,-1,28,0,7
1532467573003,-4,-2,-3,0,4,1,13,-4
1532467573008,1,-1,-1,2,8,13,-16,-11
1532467573013,-2,-2,-2,-4,-15,-17,-3,-3
1532467573018,1,1,0,4,4,-15,-6,6
1532467573023,-2,0,-2,-5,3,7,8,1
1532467573028,-1,-1,-1,-3,-3,5,7,6
1532467573033,-1,-2,-2,-2,0,-7,7,9
1532467573038,-1,-1,-1,-2,1,-1,-26,20
1532467573043,1,0,1,4,-1,-1,13,48
1532467573048,-2,-1,-1,1,2,3,15,17
1532467573053,-2,-1,-1,-3,2,9,-10,-9
1532467573058,-2,-1,-2,3,-4,-18,-13,-32
1532467573063,-1,-2,-1,-2,-5,1,-22,-35
1532467573068,-2,-1,-3,-3,9,-13,-18,-15
1532467573073,0,0,0,0,-11,-3,-2,-15
1532467573078,-1,-1,-2,0,2,-3,2,-8
1532467573083,-2,-2,0,0,-6,1,16,-6
1532467573088,-1,1,1,0,3,8,9,-11
1532467573093,1,0,-2,-2,-5,-5,-12,-4
1532467573098,-1,2,0,-1,0,-10,-17,-1
1532467573103,1,2,0,1,1,-10,20,1
1532467573108,1,-2,0,0,7,17,30,7
1532467573113,-2,0,0,-1,-5,-12,-10,-3
1532467573118,-1,-2,2,-2,-5,-2,-3,5
1532467573123,-1,-2,-3,-1,-1,-2,-12,-11
1532467573128,-1,1,-1,0,-6,-6,-6,-3
1532467573133,-2,-4,-3,-1,3,4,8,4
1532467573138,-1,-1,-1,-3,9,6,0,-4
1532467573143,2,-1,-1,-4,-11,-6,4,-1
1532467573148,-1,0,-2,0,-6,-22,-12,1
1532467573153,-1,1,1,5,11,20,-1,1
1532467573158,-1,-2,-2,-3,-10,-8,7,0
1532467573163,-1,-2,-1,-3,10,2,1,-3
1532467573168,-2,-3,-2,-6,-16,-5,-8,2
1532467573173,-1,-1,-1,-3,-1,9,12,0
1532467573178,-1,-1,-1,3,2,-3,-11,4
1532467573183,-1,1,1,3,1,8,-1,-7
1532467573188,1,1,0,-1,-4,-23,0,1
1532467573193,-3,-1,-2,-2,1,2,-3,1
1532467573198,-1,-1,-2,-2,-2,-1,-9,-3
1532467573203,-1,-1,0,1,-4,-6,-17,0
1532467573208,0,0,-1,1,6,11,30,7
1532467573213,-2,0,-2,-1,1,0,1,-3
1532467573218,1,1,0,-1,0,0,-4,0
1532467573223,0,0,1,-1,-8,-13,-8,4
1532467573228,1,-1,-1,-1,0,6,-16,-1
1532467573233,-1,0,1,1,2,-6,3,-9
1532467573238,1,-2,-2,-1,-3,7,10,11
1532467573243,0,0,-1,0,2,-15,4,-1
1532467573248,-2,-3,-1,-2,-3,23,-10,-5
1532467573253,0,1,2,0,-1,-19,-5,4
1532467573258,-3,-1,-2,-3,0,-13,-12,-7
1532467573263,-1,-1,-1,1,1,5,11,1
1532467573268,-2,-3,-2,-2,1,-6,-25,2
1532467573273,3,-1,-3,-4,-1,18,28,5
1532467573278,-2,-2,0,0,-3,-2,-1,-8
1532467573283,0,-1,0,0,3,-7,1,1
1532467573288,-1,-2,-2,0,-3,16,21,0
1532467573293,-3,-2,-2,-3,-4,-22,-30,1
1532467573298,-2,-2,-2,-1,-1,13,11,-2
1532467573303,-2,-1,1,-1,1,7,7,2
1532467573308,-6,0,0,2,2,-10,-31,-17
1532467573313,3,-1,-1,-3,-2,5,0,5
1532467573318,3,-1,0,0,0,3,12,5
1532467573323,-1,-2,1,0,1,8,-20,-7
1532467573328,-1,0,0,3,2,-63,-10,-8
1532467573333,-1,0,-3,-1,-2,35,0,5
1532467573338,-2,-1,-1,1,2,-22,1,-3
1532467573343,-1,0,-2,-1,-9,-6,-6,-3
1532467573348,0,-1,-1,0,-2,-1,-5,-1
1532467573353,-2,-2,-1,-3,-1,-14,-8,-1
1532467573358,0,-2,-2,-3,-2,10,14,0
1532467573363,0,-1,0,-2,-2,6,-15,-2
1532467573368,1,1,0,0,2,6,-4,-4
1532467573373,-3,0,2,2,1,-4,1,-6
1532467573378,0,-1,-1,-2,0,1,-5,3
1532467573383,-1,0,-1,0,-3,11,9,5
1532467573388,-1,0,-2,-3,-6,10,20,-2
1532467573393,-1,-3,-3,-2,-1,-4,-19,-4
1532467573398,0,1,0,-1,-1,-8,-12,-4
1532467573403,1,-1,0,0,-3,-7,-4,1
1532467573408,-2,1,0,0,3,-4,-18,0
1532467573413,-2,-1,-1,-1,-1,10,0,0
1532467573418,0,-2,-1,2,-1,-1,4,4
1532467573423,-2,0,1,-1,4,1,7,-2
1532467573428,1,-1,-1,-2,-2,17,-1,-1
1532467573433,-2,1,-1,-1,-2,-20,-23,-1
1532467573438,-1,-1,-1,0,-1,8,21,-1
1532467573443,0,1,-1,-2,-1,2,1,1
1532467573448,-1,-1,-1,-2,-2,1,-9,-2
1532467573453,-1,0,-1,-1,-2,-7,1,-3
1532467573458,-1,-1,-1,-3,-1,2,-3,-3
1532467573463,0,-1,-1,0,-1,-1,2,-1
1532467573468,-2,-1,-1,-2,2,7,16,3
1532467573473,3,0,-2,0,0,-3,-1,4
1532467573478,-1,-1,-1,-1,-1,-1,1,-3
1532467573483,-2,-1,-1,0,0,-5,3,-1
1532467573488,-2,-2,-2,-2,-4,-3,-1,-1
1532467573493,-2,-1,-1,-2,1,12,-5,-7
1532467573498,-1,0,-3,0,-1,-8,-19,6
1532467573503,-2,-1,-2,-1,-2,-7,1,-1
1532467573508,2,0,1,2,2,18,22,3
1532467573513,-1,-1,-2,-2,-4,-21,-24,-4
1532467573518,3,1,3,-1,-1,2,5,-3
1532467573523,0,-1,-2,1,6,7,21,2
1532467573528,0,1,0,0,-7,-14,-25,-1
1532467573533,0,-2,-2,-1,2,9,24,1
1532467573538,0,-2,0,-1,1,7,8,-1
1532467573543,-2,0,0,0,-1,-1,-3,0
1532467573548,-2,-3,-1,-3,1,11,3,-1
1532467573553,-2,-1,-1,-1,-4,-14,4,-2
1532467573558,-2,-1,-3,0,0,-1,2,1
1532467573563,0,0,0,1,-2,1,2,1
1532467573568,0,-2,-1,-2,1,1,0,-1
1532467573573,0,0,-1,0,-2,-1,9,3
1532467573578,-2,0,-2,-3,-2,1,1,-1
1532467573583,-2,-3,-2,0,-3,-8,-14,-4
1532467573588,-1,-1,0,0,2,5,1,-6
1532467573593,2,-3,-1,0,1,0,10,-1
1532467573598,-3,0,-1,0,-2,2,-8,-1
1532467573603,-1,0,-1,-1,-2,-13,-21,0
1532467573608,-2,-2,-1,1,1,4,-8,-3
1532467573613,-2,0,-2,-1,0,2,-2,2
1532467573618,-1,0,0,-1,0,-4,-1,1
1532467573623,-5,-3,-3,-1,-3,-5,-12,-9
1532467573628,1,-1,-1,0,0,8,7,0
1532467573633,-5,0,0,-2,1,-15,0,-1
1532467573638,1,-1,0,-1,-2,-1,-9,3
1532467573643,-2,-2,0,-3,-4,-14,-16,1
1532467573648,-1,-1,-1,0,0,16,24,-5
1532467573653,-1,-2,-1,-1,3,1,-6,-4
1532467573658,-1,0,-1,-1,-7,-5,0,2
1532467573663,-1,-1,-2,-3,-2,-3,-1,-3
1532467573668,-1,-1,0,1,-4,9,18,4
1532467573673,1,1,2,1,-2,-4,-1,2
1532467573678,-2,-4,-2,1,2,-5,-20,-11
1532467573683,-1,1,-2,-1,0,2,13,-3
1532467573688,0,0,-1,0,2,-2,-17,8
1532467573693,1,0,-2,-1,1,8,1,-2
1532467573698,1,-2,-1,-1,-2,1,2,1
1532467573703,-4,-2,-1,-1,0,14,21,2
1532467573708,-2,-1,-1,-2,-3,-7,-34,-10
1532467573713,-2,-3,-1,2,-1,3,18,5
1532467573718,0,0,0,1,1,-4,-5,-3
1532467573723,0,-1,-2,-1,0,-11,-12,-2
1532467573728,1,0,-1,-1,-2,-3,-4,-2
1532467573733,-2,1,-1,1,0,4,16,0
1532467573738,-3,-1,-2,-1,-2,2,-11,-7
1532467573743,0,-1,2,0,2,3,3,0
1532467573748,-1,0,-1,-1,2,-6,10,4
1532467573753,0,-1,-2,-1,-1,-5,-25,-3
1532467573758,1,0,-2,-1,0,-2,15,6
1532467573763,-1,-1,0,0,-3,7,4,-2
1532467573768,1,1,-1,-1,-2,-5,-3,-1
1532467573773,-2,-2,1,-2,-3,3,-5,-5
1532467573778,-2,-2,-3,0,-1,0,-1,0
1532467573783,0,-1,-2,-2,0,-5,-6,-3
1532467573788,0,0,-1,-1,1,-3,0,-1
1532467573793,-1,-2,-1,-2,-2,0,5,-2
1532467573798,-3,-1,1,0,2,1,4,0
1532467573803,0,-1,-1,-1,-1,3,2,2
1532467573808,-1,-3,-2,-3,-3,-6,3,3
1532467573813,0,0,0,-1,-1,-2,25,1
1532467573818,0,0,0,0,-1,1,1,2
1532467573823,2,0,-4,1,-1,4,6,-1
1532467573828,-2,-1,1,0,-3,1,-5,-2
1532467573833,-1,-2,-1,-2,-2,-5,-19,-1
1532467573838,-1,-2,-1,-1,-1,3,4,-1
1532467573843,2,0,1,1,1,2,9,4
1532467573848,1,-1,0,-1,-1,-3,-9,-1
1532467573853,-2,-1,-2,0,1,-1,8,1
1532467573858,0,-1,-3,-1,-3,-1,2,-3
1532467573863,1,0,2,3,4,4,-17,-6
1532467573868,-1,1,-1,-2,-1,-8,-10,-1
1532467573873,0,-1,-1,-1,0,1,-1,2
1532467573878,-1,-1,-2,-4,-2,0,-4,-2
1532467573883,-4,0,-1,-1,-1,-9,-10,-1
1532467573888,-1,-1,-2,1,0,2,6,-3
1532467573893,0,0,-2,-1,-3,5,-6,-3
1532467573898,0,-2,1,-1,0,-2,18,-1
1532467573903,0,-2,-1,-1,-1,3,10,8
1532467573908,-4,-3,-2,-4,-3,-6,6,-13
1532467573913,-2,-2,-1,-1,-1,-2,-9,-2
1532467573918,0,-1,-1,1,0,2,9,3
1532467573923,-1,-1,-1,-3,-1,-1,6,1
1532467573928,-3,-1,0,-2,-3,1,-4,-3
1532467573933,0,0,-2,0,-2,-11,-8,-1
1532467573938,0,-2,-1,1,1,7,-1,-8
1532467573943,-1,-2,1,0,-2,-1,-2,-1
1532467573948,1,-1,0,-2,-2,-1,1,3
1532467573953,0,2,-1,-3,1,0,-15,-4
1532467573958,-1,0,1,-1,-1,-4,-10,-2
1532467573963,-2,0,-1,0,-2,-16,-18,-5
1532467573968,0,-1,-1,-1,3,7,16,6
1532467573973,-1,0,0,0,-2,-5,2,-1
1532467573978,2,0,0,-4,-5,6,18,3
1532467573983,-1,-2,-1,-2,-3,1,0,-1
1532467573988,1,-2,-1,-3,-2,-4,-2,4
1532467573993,-1,0,1,0,1,-1,-3,-1
1532467573998,-1,-1,-1,-2,-1,-2,-3,-3
1532467574003,-1,-1,-1,-1,2,2,4,-3
1532467574008,-2,-1,-1,2,0,2,6,3
1532467574013,0,-1,0,0,0,2,-2,-3
1532467574018,-2,-1,-2,-1,1,-5,-13,-1
1532467574023,0,-1,-2,-1,-3,-5,-3,-3
1532467574028,2,1,0,2,1,7,19,2
1532467574033,1,-2,-1,0,1,-2,-1,1
1532467574038,1,0,-1,-2,-1,-2,-8,0
1532467574043,-3,0,-1,-2,-2,11,14,-2
1532467574048,0,0,-3,-3,-1,-9,-6,2
1532467574053,0,-1,-1,1,-2,-1,4,0
1532467574058,-2,-1,-1,0,0,1,-9,-2
1532467574063,0,-4,-4,1,1,-5,-12,-1
1532467574068,-1,-1,-1,1,-1,9,6,1
1532467574073,-3,-2,-2,-1,0,1,-3,-5
1532467574078,-1,0,-1,-1,-2,-5,-6,-3
1532467574083,1,0,0,-1,1,-1,3,2
1532467574088,-1,-1,0,0,0,-3,-13,-5
1532467574093,0,-1,-1,-2,-3,0,-2,0
1532467574098,0,1,-1,3,5,2,6,1
1532467574103,-1,1,-2,0,-3,-10,-12,-2
1532467574108,-3,0,-2,0,-2,6,-18,-4
1532467574113,0,-3,-1,-3,-3,-1,5,3
1532467574118,-3,-2,0,-1,-1,0,-3,-4
1532467574123,0,-2,0,1,0,0,2,-1
1532467574128,-2,-1,-2,0,0,-2,-8,0
1532467574133,0,1,-1,-1,0,-2,4,0
1532467574138,-2,0,1,-1,-2,-4,-12,1
1532467574143,-1,-2,0,-1,-2,3,0,2
1532467574148,-3,-2,0,-3,-3,-4,6,-4
1532467574153,-1,1,-1,0,-1,3,-1,2
1532467574158,0,-1,-1,-2,-2,-2,7,-1
1532467574163,0,1,1,0,1,2,4,-2
1532467574168,0,-2,0,-2,-1,-4,-2,-1
1532467574173,-1,-1,-1,-1,-1,-1,10,7
1532467574178,0,-2,-1,0,0,-2,-9,-4
1532467574183,-3,0,0,0,-3,-8,-11,-4
1532467574188,-1,-3,-2,-1,0,19,18,0
1532467574193,1,-1,1,-1,-1,-20,-23,-4
1532467574198,0,1,-2,-2,-3,-4,-6,0
1532467574203,0,-2,-2,-2,1,4,3,-2
1532467574208,0,1,-1,0,-2,-7,-27,-3
1532467574213,-2,-2,-1,0,0,8,18,-2
1532467574218,-1,-1,-1,-2,-1,-1,5,-4
1532467574223,0,0,2,-2,1,2,-18,0
1532467574228,1,-1,-1,-1,-2,-5,-6,-1
1532467574233,-3,0,0,-2,0,6,0,-2
1532467574238,-1,-1,0,0,-2,-11,-6,-1
1532467574243,-2,0,-1,-1,1,14,24,2
1532467574248,0,1,1,1,-1,-7,-1,0
1532467574253,-1,0,-1,0,-1,3,5,-4
1532467574258,-2,0,-1,2,0,-7,0,4
1532467574263,0,0,-1,1,-1,-2,-6,-1
1532467574268,1,0,0,0,1,5,5,1
1532467574273,-1,0,-2,-1,-1,-6,-3,3
1532467574278,-1,-2,0,-2,-2,2,-8,-4
1532467574283,-2,1,-1,-1,0,-2,35,9
1532467574288,-1,-1,-2,0,0,1,3,0
1532467574293,-1,-1,-1,1,0,2,-14,-4
1532467574298,1,-1,-2,0,1,6,6,0
1532467574303,-1,0,0,1,-1,0,-11,-1
1532467574308,-1,-1,-1,-2,-2,-12,-4,0
1532467574313,0,-1,-1,-2,0,8,14,0
1532467574318,0,0,0,1,-2,-1,-2,-2
1532467574323,-1,0,0,0,0,-4,-2,-2
1532467574328,2,-1,0,0,-1,-3,1,2
1532467574333,1,0,1,-2,-3,-9,-14,-5
1532467574338,0,-2,-1,-1,2,10,13,1
1532467574343,0,-1,-1,-2,-2,5,-1,-1
1532467574348,-3,1,0,-2,-1,-8,-5,-2
1532467574353,-1,-3,-2,0,-1,3,11,1
1532467574358,-1,0,2,-1,-1,2,-23,-5
1532467574363,-2,-1,-3,-1,-2,-18,8,4
1532467574368,0,0,-2,1,3,12,6,1
1532467574373,16,3,-1,-1,0,1,1,-1
1532467574378,-19,-6,-3,-3,-1,1,-7,1
1532467574383,0,-1,1,-1,-1,-4,-15,-3
1532467574388,-5,-2,-2,-3,-1,-2,8,0
1532467574393,-2,-2,0,-1,-2,1,2,0
1532467574398,5,1,-1,0,-3,-4,0,2
1532467574403,2,-2,-2,-1,-1,-2,1,-2
1532467574408,0,-2,0,0,1,2,5,-1
1532467574413,-6,-1,-2,-2,0,-6,-12,0
1532467574418,3,0,-1,2,2,19,37,2
1532467574423,-5,-1,-1,-3,-3,1,-3,-6
1532467574428,3,0,0,-1,-3,-5,-4,-1
1532467574433,-4,-1,0,-1,-1,-2,-9,-1
1532467574438,0,-1,-1,-2,-1,-8,6,0
1532467574443,1,-1,0,0,0,4,30,8
1532467574448,-1,-1,-1,-1,1,-8,-14,-14
1532467574453,-5,0,0,2,-1,0,3,-1
1532467574458,1,-1,1,0,-1,-4,-5,-1
1532467574463,0,-1,-1,1,0,2,-1,-3
1532467574468,1,-1,-1,-2,-2,-1,-7,4
1532467574473,-2,0,-1,0,-2,1,6,1
1532467574478,-2,0,0,-2,-2,-5,-17,1
1532467574483,8,4,0,-2,0,-1,5,-4
1532467574488,-17,-6,-1,0,1,1,-12,-5
1532467574493,1,-6,-3,-2,0,-2,-8,0
1532467574498,-2,-1,-3,-2,-2,0,3,4
1532467574503,2,-1,-1,-1,-3,-4,16,0
1532467574508,-2,0,0,-1,-2,-1,10,0
1532467574513,-1,2,2,2,0,11,10,-3
1532467574518,0,-1,-2,1,-1,-18,-12,-5
1532467574523,-9,-2,0,-1,1,1,-20,-6
1532467574528,5,0,0,-2,-3,-9,7,2
1532467574533,-2,-1,-1,0,1,16,16,-1
1532467574538,2,1,0,0,1,-9,-10,-4
1532467574543,0,-3,-3,0,-1,-3,-16,-3
1532467574548,5,-2,-1,-2,-3,5,11,5
1532467574553,-1,-2,-2,-2,-1,-10,-8,-2
1532467574558,1,1,0,-1,-2,0,7,-2
1532467574563,-3,-3,-1,-1,-1,0,-21,-5
1532467574568,2,0,-2,0,-2,-2,-5,-1
1532467574573,-3,0,-1,-1,1,-5,-5,3
1532467574578,0,0,-2,1,0,8,5,3
1532467574583,-2,-3,-1,-2,-4,-12,-11,-3
1532467574588,3,2,0,1,4,17,50,1
1532467574593,1,-1,-1,0,-1,-2,0,-2
1532467574598,-3,-1,0,1,-1,-1,1,-3
1532467574603,0,-1,0,1,2,4,-2,2
1532467574608,-1,0,-3,0,-5,-2,-12,-3
1532467574613,4,3,-1,-1,-1,-5,-6,0
1532467574618,-9,-6,1,-1,1,2,5,-3
1532467574623,-1,0,-1,-1,0,3,4,3
1532467574628,-2,-2,1,-2,-1,1,-10,0
1532467574633,2,-2,-2,1,1,-7,-1,2
1532467574638,1,3,-1,-2,-3,4,-8,-2
1532467574643,-3,-3,0,1,-1,-5,-16,-4
1532467574648,1,-1,0,0,1,-4,-8,3
1532467574653,-3,0,-2,-2,-2,10,3,-6
1532467574658,3,2,-1,-2,-2,-2,28,10
1532467574663,-1,-1,-2,-1,-1,3,1,-5
1532467574668,1,1,-1,-1,-2,-3,-4,0
1532467574673,-1,0,0,-1,0,-14,-20,-2
1532467574678,1,-3,1,-1,-1,7,0,-2
1532467574683,1,1,-2,-1,2,-7,-1,5
1532467574688,-1,-2,-2,-2,-2,-2,-2,-2
1532467574693,-2,0,-1,-2,-2,1,6,3
1532467574698,0,-1,-2,-1,0,5,-16,-11
1532467574703,0,1,0,-1,-1,-4,-3,3
1532467574708,0,-3,0,0,0,-5,-14,-4
1532467574713,7,2,1,0,1,9,14,1
1532467574718,-6,-2,0,1,-1,-4,8,0
1532467574723,1,-2,-2,-2,1,2,-12,-5
1532467574728,2,0,-1,1,1,0,4,1
1532467574733,-10,-1,-2,-2,-3,-5,-14,-4
1532467574738,15,1,0,1,1,17,43,13
1532467574743,-3,1,-2,-2,-3,-1,2,-3
1532467574748,-3,0,-2,0,-2,-4,-3,3
1532467574753,1,-2,0,-1,-1,-1,0,2
1532467574758,-3,-2,-1,-1,-2,-15,-30,-8
1532467574763,-2,-3,0,-1,-1,11,19,2
1532467574768,1,-1,-2,1,1,3,-12,-2
1532467574773,-1,-3,0,-2,-2,-6,1,-5
1532467574778,-2,-2,-2,-1,-1,-7,-12,-2
1532467574783,-1,-2,2,-2,-2,1,3,-3
1532467574788,-1,2,-2,0,1,-3,-2,-2
1532467574793,-2,-3,-2,1,1,-4,-4,-1
1532467574798,-2,-1,-2,-1,-2,-1,-1,-2
1532467574803,2,1,-2,-1,1,2,0,-1
1532467574808,-3,0,0,-4,-2,2,7,-3
1532467574813,-1,-2,-4,-3,-1,-2,-13,4
1532467574818,0,1,0,-1,2,-4,-3,-4
1532467574823,-3,-2,-3,0,-2,-10,-9,-3
1532467574828,2,-1,0,-1,0,11,13,1
1532467574833,-2,0,-1,-1,-2,-3,2,-3
1532467574838,-6,-2,0,-1,-1,2,-12,0
1532467574843,0,-2,0,-1,-1,-5,-3,0
1532467574848,-3,-2,1,1,-1,-6,5,-3
1532467574853,-2,0,1,0,0,0,-24,-2
1532467574858,16,-1,-2,-1,1,3,8,-1
1532467574863,-10,-1,-1,-2,-1,1,2,-4
1532467574868,0,-2,-2,-2,-4,-6,6,3
1532467574873,-5,-1,-2,-2,-1,3,5,0
1532467574878,-1,-1,-1,-2,-1,-9,-14,-5
1532467574883,0,-1,1,0,1,3,5,-2
1532467574888,0,0,1,0,2,-5,-11,1
1532467574893,2,-1,0,1,-1,17,22,4
1532467574898,-5,-1,-1,-1,-2,-14,0,-3
1532467574903,2,1,1,2,-1,3,-3,-1
1532467574908,-3,0,-1,-1,-1,-4,-13,-1
1532467574913,2,-1,-2,-1,0,-4,-2,-1
1532467574918,-5,0,0,1,0,1,12,0
1532467574923,3,1,-1,-1,-2,1,1,6
1532467574928,-3,-2,-1,-1,-2,-2,-7,-5
1532467574933,-1,-2,-1,-1,-2,-3,-17,-7
1532467574938,-1,-1,-2,-2,-2,-7,-14,-1
1532467574943,1,-2,0,-2,0,8,14,3
1532467574948,1,-1,0,0,-1,-6,1,-1
1532467574953,-2,-2,-2,-1,-1,-8,-1,-5
1532467574958,6,4,-1,-1,-1,0,0,-2
1532467574963,-16,-3,-1,0,-3,-2,1,-3
1532467574968,3,-1,-2,-2,-2,5,4,5
1532467574973,-1,0,1,2,1,1,-10,-1
1532467574978,-3,-2,-2,-2,-1,3,17,1
1532467574983,3,2,0,1,0,6,-3,-4
1532467574988,-5,-3,-2,-5,-2,-11,-12,-5
1532467574993,7,-2,0,0,-1,-6,-6,0
1532467574998,-6,6,2,-1,-1,12,1,0
1532467575003,0,-1,0,0,-1,-2,-11,-1
1532467575008,-3,0,0,0,-1,2,6,-3
1532467575013,0,0,-4,-1,-2,-4,10,-1
1532467575018,-1,-3,-1,-1,-1,-3,-15,-1
1532467575023,2,0,-2,-2,1,-2,10,0
1532467575028,0,0,-2,0,0,-2,-4,-2
1532467575033,-2,-2,1,0,-2,1,0,0
1532467575038,-1,-2,-4,1,-1,10,15,1
1532467575043,-4,-1,0,0,-1,-13,-3,-4
1532467575048,2,-1,1,0,0,3,-5,0
1532467575053,-2,0,0,-2,-1,-3,4,4
1532467575058,-2,-2,-1,-1,-1,-9,-7,-4
1532467575063,13,2,-1,-1,-2,-4,-12,-2
1532467575068,-16,-2,0,2,0,0,-23,-2
1532467575073,-1,0,-2,-1,-1,6,40,9
1532467575078,-4,0,1,-1,0,2,-5,-5
1532467575083,-1,-2,-1,-2,-1,-5,-16,-2
1532467575088,3,0,-1,0,-1,1,7,1
1532467575093,-1,0,0,-2,0,-4,-13,-4
1532467575098,-3,-3,-2,-2,-3,0,2,-1
1532467575103,0,1,0,0,0,-2,1,0
1532467575108,1,-1,-2,-2,-2,0,7,-4
1532467575113,-3,-2,-2,2,0,-3,-4,-3
1532467575118,0,-2,0,1,0,-6,-7,-1
1532467575123,-4,-4,-4,-2,-3,5,11,1
1532467575128,1,2,-1,0,0,-2,-5,-5
1532467575133,1,1,0,-3,0,-1,3,-4
1532467575138,-9,-3,-4,1,-1,0,-9,1
1532467575143,2,0,-2,0,-1,-7,-27,0
1532467575148,0,-2,-1,-1,-2,-1,28,2
1532467575153,-2,-1,1,0,0,7,-5,-4
1532467575158,-1,-2,0,-2,-1,-7,-9,-2
1532467575163,1,-1,-2,0,0,7,21,1
1532467575168,4,1,-1,-1,-1,-4,-1,5
1532467575173,-1,-1,1,1,-1,-2,-10,-4
1532467575178,1,-1,-1,0,0,3,5,2
1532467575183,-1,-1,0,0,0,-5,-3,-4
1532467575188,0,0,-1,-2,0,6,-2,-1
1532467575193,0,0,-2,0,-3,0,5,2
1532467575198,-1,-3,-3,-2,0,-11,-9,-2
1532467575203,-2,-1,-2,0,-1,-2,11,5
1532467575208,-1,0,0,0,-2,-5,-4,-3
1532467575213,0,-2,-2,0,0,4,-3,0
1532467575218,2,1,1,0,-1,3,6,1
1532467575223,-2,-1,-1,-3,-1,-4,-11,-3
1532467575228,4,-2,2,-1,1,4,39,8
1532467575233,-2,0,-2,-2,-1,1,9,1
1532467575238,2,-1,-1,-1,-2,-4,-12,-1
1532467575243,-3,0,1,0,2,14,19,1
1532467575248,1,-2,-2,-1,1,-1,-16,2
1532467575253,0,-1,-2,-1,0,-5,0,-2
1532467575258,-2,-1,0,0,2,1,3,3
1532467575263,-1,-2,-2,0,-2,0,15,-5
1532467575268,0,-2,-2,-1,1,1,-18,-6
1532467575273,-2,-1,-1,-1,-2,-3,-4,-1
1532467575278,0,0,0,-2,-3,0,1,1
1532467575283,-2,0,0,-2,0,-1,-2,-2
1532467575288,-1,-1,-2,-2,0,-11,-7,1
1532467575293,-1,-1,-2,-1,0,11,15,0
1532467575298,0,-1,0,1,-1,3,-12,-6
1532467575303,0,0,1,0,1,-8,-10,0
1532467575308,-4,-3,-2,-2,-1,4,-10,-4
1532467575313,0,-1,-1,-2,0,-4,0,1
1532467575318,0,-1,-2,1,0,1,-3,1
1532467575323,-1,-1,-1,-1,-1,6,16,-1
1532467575328,-3,-1,-1,-1,0,-1,-8,-6
1532467575333,1,-1,-3,-1,-1,-1,-7,0
1532467575338,-1,0,0,1,2,-7,-1,-6
1532467575343,1,-2,-1,-3,-2,0,10,7
1532467575348,-3,1,0,1,0,0,-6,-11
1532467575353,0,-1,-1,-2,-2,3,12,1
1532467575358,-3,0,-1,-1,-1,7,7,2
1532467575363,-1,-3,-2,-2,-1,-4,-10,0
1532467575368,3,1,1,0,2,-5,2,1
1532467575373,1,-1,-3,1,-1,0,-20,-3
1532467575378,0,-2,-3,-2,-1,-3,-3,-1
1532467575383,0,0,0,0,-1,2,4,-1
1532467575388,8,1,-2,-1,-2,0,6,1
1532467575393,-15,-6,0,-3,0,-8,-30,-7
1532467575398,0,-2,-1,-1,-1,-1,24,5
1532467575403,-2,-2,-2,2,-1,-1,-14,-1
1532467575408,-2,-1,-2,0,1,5,16,4
1532467575413,12,-1,0,0,0,-3,-5,-3
1532467575418,-2,2,0,-2,-2,2,-2,1
1532467575423,1,0,-1,-2,-1,3,-4,-3
1532467575428,0,-2,-1,-1,-3,-2,-1,0
1532467575433,-1,0,2,1,0,2,15,3
1532467575438,-3,-6,-1,0,1,0,-6,-2
1532467575443,1,2,-1,0,0,-13,0,-2
1532467575448,-3,-2,-1,-2,-2,1,-11,-2
1532467575453,-2,-1,-2,-3,-2,1,12,-3
1532467575458,3,-4,-4,-3,-2,-4,-7,5
1532467575463,-1,-1,-1,-1,-1,-1,-7,-2
1532467575468,7,4,0,0,-1,-5,1,5
1532467575473,-21,-7,-1,-1,1,4,0,-4
1532467575478,3,1,-2,0,0,4,32,1
1532467575483,-7,0,-1,-1,-2,-7,-2,-1
1532467575488,3,-5,-1,1,0,-3,-10,-3
1532467575493,11,4,-1,-2,-2,-6,0,3
1532467575498,-15,0,1,-1,0,-1,-12,-3
1532467575503,-6,-1,-2,0,1,-2,5,2
1532467575508,-4,1,0,-1,0,-2,-1,-1
1532467575513,1,0,-1,0,-4,-2,-5,-1
1532467575518,-1,-2,-1,0,1,2,-12,-4
1532467575523,7,1,0,-1,-1,1,8,1
1532467575528,-5,-4,-3,-3,-2,-7,-21,-5
1532467575533,2,2,0,0,2,16,22,1
1532467575538,5,0,0,-1,-1,-4,-14,-1
1532467575543,-1,-2,-1,-2,-1,6,17,-3
1532467575548,-3,-1,-1,-2,-2,-6,-8,-5
1532467575553,-1,-1,0,-2,-2,-8,-27,-1
1532467575558,2,-1,-2,1,-1,-4,7,-1
1532467575563,1,0,0,-1,1,0,-13,-3
1532467575568,-2,-2,0,-1,-1,6,13,2
1532467575573,9,5,-1,-1,-1,-4,3,3
1532467575578,-18,-6,-2,-1,0,0,-25,-4
1532467575583,0,-1,0,0,1,-2,-4,0
1532467575588,0,-1,-1,0,-1,3,6,5
1532467575593,1,-2,-3,1,0,-7,-1,1
1532467575598,5,9,0,-2,1,-1,14,-2
1532467575603,1,-1,1,-3,-1,2,-2,-3
1532467575608,-3,0,-2,0,0,5,0,0
1532467575613,-3,-4,-1,-2,-4,-15,0,-3
1532467575618,4,0,1,1,-1,2,-5,-1
1532467575623,-4,-3,-3,0,-1,-3,-6,0
1532467575628,0,0,0,-3,0,1,8,-4
1532467575633,-1,-2,0,0,-1,-1,-14,-3
1532467575638,3,1,1,-2,-2,-7,26,4
1532467575643,2,-1,-1,1,-1,0,-11,0
1532467575648,0,0,-1,1,0,0,12,0
1532467575653,-3,-1,-1,1,1,2,12,1
1532467575658,1,-1,-2,-1,0,-1,-17,-9
1532467575663,0,1,-2,-2,-4,6,4,1
1532467575668,-2,-2,-1,1,1,6,28,4
1532467575673,-4,-2,-1,-1,0,-3,-6,-4
1532467575678,2,-1,-2,0,0,2,4,-1
1532467575683,2,0,0,-1,-1,-7,-1,-4
1532467575688,0,-1,1,0,0,-3,-15,-2
1532467575693,-2,1,0,-1,-2,0,-3,0
1532467575698,-2,-2,-2,-2,-4,-1,4,-10
1532467575703,-3,-3,-2,0,-1,-15,-13,0
1532467575708,0,0,1,-2,-2,13,13,3
1532467575713,0,1,-1,-1,1,1,0,3
1532467575718,2,-1,-2,0,-1,0,-27,2
1532467575723,-4,-1,0,-2,-4,-6,6,-6
1532467575728,1,0,0,1,2,7,-2,-2
1532467575733,-1,-2,1,-1,-3,-6,-5,-3
1532467575738,-1,-3,0,0,-2,4,2,2
1532467575743,0,-1,0,0,1,0,-1,3
1532467575748,0,0,-1,-1,0,-7,-24,1
1532467575753,-2,0,-1,-3,0,1,-1,0
1532467575758,-1,-1,-1,-2,1,-1,10,4
1532467575763,0,0,-1,-1,0,5,3,1
1532467575768,-1,-1,-1,0,0,0,2,-2
1532467575773,-2,-1,0,1,-1,-2,2,2
1532467575778,-1,-2,0,-1,-3,-9,0,-2
1532467575783,-1,-2,0,-2,1,8,-1,-2
1532467575788,-2,-2,-4,-1,-2,-8,3,-2
1532467575793,0,-1,-1,-1,0,4,7,1
1532467575798,0,0,-1,-3,0,0,-9,-2
1532467575803,-2,-1,-3,0,0,-11,-4,-2
1532467575808,-2,0,-1,-1,-2,-1,-7,-3
1532467575813,0,-1,-3,0,2,0,10,4
1532467575818,-1,-1,0,-1,-1,0,12,0
1532467575823,-1,-1,0,-2,-3,-1,-6,-2
1532467575828,-1,-2,1,-1,0,-1,-1,5
1532467575833,-2,0,0,0,-1,-11,-36,-3
1532467575838,0,-1,-1,-1,-1,11,9,-3
1532467575843,1,1,0,1,2,9,19,4
1532467575848,-4,-1,-2,-2,-2,-5,-9,-2
1532467575853,0,0,0,-1,-1,2,4,-3
1532467575858,0,-2,0,1,-4,-6,-4,-2
1532467575863,-2,-1,-2,0,0,3,0,-5
1532467575868,0,-3,-1,-1,-2,0,0,-1
1532467575873,0,-2,-2,-1,0,-2,-17,-10
1532467575878,-2,1,1,-2,2,2,47,6
1532467575883,-1,-1,0,-1,-2,-3,-13,-3
1532467575888,-1,0,-1,-2,0,-4,-1,0
1532467575893,-4,-2,-1,-2,-3,0,6,-2
1532467575898,2,-1,0,1,-2,-8,-13,3
1532467575903,0,-1,-2,-1,-1,8,2,1
1532467575908,0,0,0,-1,1,0,0,0
1532467575913,-1,0,0,2,-1,-3,-2,-3
1532467575918,0,-1,-1,0,0,-1,-8,1
1532467575923,4,1,-1,0,-1,-6,5,2
1532467575928,-11,-6,-2,-3,-2,-3,-4,-6
1532467575933,2,1,-1,-3,1,5,9,0
1532467575938,-2,0,-2,0,1,-3,-4,-1
1532467575943,1,2,0,-2,-1,-2,-1,0
1532467575948,3,-1,-1,-1,-3,0,-8,-4
1532467575953,-3,-1,-1,-1,-3,-2,-9,-4
1532467575958,-3,0,0,-2,-2,-8,-16,0
1532467575963,3,-2,-1,-1,0,-1,-9,5
1532467575968,1,3,-1,0,1,14,25,3
1532467575973,-2,-3,-2,0,-1,-6,-15,-5
1532467575978,1,-1,-1,-1,-2,5,-2,-1
1532467575983,-3,-3,0,-1,-3,-6,-9,-3
1532467575988,2,0,-1,1,-2,-9,-11,-1
1532467575993,-1,0,0,0,-2,2,17,2
1532467575998,0,-1,-2,-1,-1,4,-4,1
1532467576003,-4,-1,-1,0,1,0,-2,-2
1532467576008,-1,-2,-2,0,-2,-2,11,-1
1532467576013,1,0,0,0,2,8,5,7
1532467576018,-1,-1,-1,-1,-1,-3,-4,-2
1532467576023,-3,1,-1,-3,-2,1,-1,-2
1532467576028,2,-1,-1,0,1,-1,4,-5
1532467576033,-1,-2,-2,-2,-3,-5,-16,-2
1532467576038,3,0,-2,2,2,10,0,-2
1532467576043,0,1,1,-1,-1,-1,7,-2
1532467576048,1,-2,-2,-2,-2,-3,6,2
1532467576053,0,0,-2,0,1,-3,-14,-11
1532467576058,-2,-1,-2,-2,-2,-1,2,-2
1532467576063,3,0,-1,1,-1,-13,-17,-2
1532467576068,2,1,0,1,2,13,15,3
1532467576073,-3,0,0,-2,-1,-2,0,0
1532467576078,2,0,-2,-1,0,4,13,4
1532467576083,-2,-3,1,0,0,-11,-11,-11
1532467576088,1,-1,0,1,1,9,-2,2
1532467576093,0,-2,-1,0,0,1,17,7
1532467576098,-4,0,-1,0,-1,-4,-10,-7
1532467576103,-3,-1,-2,-1,1,1,3,1
1532467576108,-2,0,1,-3,-4,-8,-10,-1
1532467576113,2,1,0,0,0,5,15,-2
1532467576118,1,-1,-2,-2,-2,-6,-17,0
1532467576123,-2,-2,-2,0,0,5,3,1
1532467576128,0,-1,0,0,-1,-6,-5,-7
1532467576133,0,-1,0,0,0,1,6,9
1532467576138,-5,-1,-2,-2,-9,-18,-23,-9
1532467576143,3,0,1,1,3,26,30,5
1532467576148,-2,0,-1,-1,-1,-5,-13,-2
1532467576153,-1,0,-2,-1,-1,-2,11,-1
1532467576158,-2,0,1,-1,1,-1,-15,-2
1532467576163,0,-2,-2,-2,-3,-11,-12,-7
1532467576168,-3,-1,1,0,0,13,7,0
1532467576173,-1,-1,1,-2,0,-6,7,-1
1532467576178,5,1,-1,-1,-1,0,0,12
1532467576183,-5,-2,-1,2,1,1,-7,-10
1532467576188,-8,-2,-1,-1,0,-4,-4,-3
1532467576193,0,0,-2,-1,-1,-5,-15,-3
1532467576198,0,-1,-1,1,4,14,16,-4
1532467576203,1,0,-3,-4,-12,-7,11,6
1532467576208,-1,-2,-1,-3,-1,-10,-8,-1
1532467576213,1,-2,0,1,0,11,7,1
1532467576218,0,0,1,0,10,-3,3,-1
1532467576223,-2,-1,0,-1,-5,-3,3,2
1532467576228,1,1,-2,-1,-2,-7,-8,-1
1532467576233,1,0,0,-3,-1,-5,-5,0
1532467576238,-3,-3,0,1,0,3,5,0
1532467576243,-1,0,0,1,8,6,-8,-1
1532467576248,-1,1,1,2,5,-4,0,3
1532467576253,0,-1,0,1,18,20,-6,-9
1532467576258,-1,-2,-4,-8,-53,-35,5,2
1532467576263,-3,-3,-3,-6,-19,-18,-8,-5
1532467576268,5,2,-2,2,10,-18,-6,2
1532467576273,-11,-5,-1,-4,-16,28,8,3
1532467576278,4,-1,-2,-2,12,7,-4,11
1532467576283,7,2,2,6,23,16,-3,-6
1532467576288,-16,-1,2,5,24,-11,-4,-11
1532467576293,15,1,0,-6,-41,-17,-1,1
1532467576298,-4,-1,1,-4,-16,-9,4,7
1532467576303,-1,1,-2,-1,-9,-7,4,-3
1532467576308,9,-3,-5,-10,-21,-7,0,5
1532467576313,-24,-8,-1,0,6,2,-3,-18
1532467576318,11,-2,-1,-2,11,-13,1,-7
1532467576323,2,1,0,-2,-5,19,-2,12
1532467576328,1,0,0,1,13,9,-2,-19
1532467576333,6,5,1,0,-4,-19,-4,8
1532467576338,0,3,2,5,13,37,2,9
1532467576343,-8,-2,-1,1,-6,-43,-6,-7
1532467576348,-1,0,1,4,39,47,0,1
1532467576353,1,-1,-1,-4,-16,-29,1,9
1532467576358,-11,-7,-4,3,10,13,1,-15
1532467576363,4,-3,-2,-7,-8,2,1,6
1532467576368,-1,1,0,-3,-23,-10,1,8
1532467576373,-1,0,0,2,6,-23,-8,-5
1532467576378,-1,0,-1,-1,12,23,2,-7
1532467576383,-3,-2,1,3,31,20,0,-1
1532467576388,0,-4,-4,0,-41,-18,4,-3
1532467576393,3,6,-3,-4,-9,-26,-3,13
1532467576398,-7,-2,-2,-3,-7,14,-4,-6
1532467576403,-3,-2,0,-1,-1,-5,0,-13
1532467576408,5,2,0,4,12,-49,-24,7
1532467576413,-1,-3,-2,-6,-5,59,-3,-6
1532467576418,-2,-1,0,0,5,-9,-2,-1
1532467576423,-1,1,1,-3,-10,9,8,6
1532467576428,-2,-2,-2,-2,-2,-12,-6,-3
1532467576433,-2,-3,-2,0,9,-1,-4,-2
1532467576438,-1,-3,0,-1,3,-7,-5,-3
1532467576443,-3,-2,-4,0,2,1,0,2
1532467576448,2,-1,1,-5,-11,11,-4,-1
1532467576453,2,-1,-1,4,9,-4,-1,-3
1532467576458,-11,1,2,3,27,30,11,-8
1532467576463,10,1,2,-2,-41,-66,10,12
1532467576468,-3,-3,-2,-2,15,73,21,2
1532467576473,3,2,-3,-2,-12,-75,9,3
1532467576478,1,-1,-3,-2,2,-33,-8,2
1532467576483,-2,-1,-1,1,1,45,-9,2
1532467576488,-2,0,-3,-4,0,-10,-11,-8
1532467576493,0,0,1,3,8,-5,-20,-3
1532467576498,3,2,0,1,-2,-16,3,0
1532467576503,-2,-1,-1,-2,13,23,18,1
1532467576508,-2,-1,1,-3,-29,-9,13,3
1532467576513,-2,-1,-1,-1,43,36,9,-8
1532467576518,-3,-2,-4,-5,-22,-5,4,1
1532467576523,-4,-2,-1,1,6,16,-6,0
1532467576528,-1,-2,0,0,5,-21,3,-2
1532467576533,-5,-1,0,-1,-4,-31,-1,1
1532467576538,6,1,1,1,-2,54,-7,-4
1532467576543,1,4,6,3,10,-4,-1,-4
1532467576548,4,0,2,4,27,-2,-7,5
1532467576553,-12,-3,-4,-7,-35,31,-5,-11
1532467576558,4,-2,-1,1,14,-43,-21,-3
1532467576563,-5,-3,-3,1,-16,-18,-16,-9
1532467576568,3,-1,-2,0,9,-17,1,1
1532467576573,3,-3,-2,4,34,39,9,5
1532467576578,-3,-4,-3,-2,-20,-9,6,-4
1532467576583,1,-2,-3,-11,-35,27,2,6
1532467576588,-1,-1,-2,-5,-15,2,0,5
1532467576593,3,2,1,3,12,9,-2,7
1532467576598,-4,-4,-3,1,11,4,21,-2
1532467576603,-7,-1,0,6,43,-4,-3,-6
1532467576608,5,4,-1,-8,-52,-17,6,3
1532467576613,11,1,-2,-8,-36,-9,0,4
1532467576618,-18,-2,5,13,14,-51,-18,-10
1532467576623,-8,-3,-4,0,11,-3,-1,-14
1532467576628,-10,-4,0,3,25,61,1,8
1532467576633,13,-3,-3,-4,-33,7,-9,-4
1532467576638,3,2,-2,3,35,46,-11,4
1532467576643,-8,-3,3,7,14,-9,-11,0
1532467576648,-1,-1,-5,-10,-40,20,6,0
1532467576653,3,2,1,0,19,4,-11,4
1532467576658,3,-1,1,2,16,20,8,-2
1532467576663,-11,-2,-1,1,-1,-15,3,-6
1532467576668,7,4,2,-1,5,24,6,0
1532467576673,-4,-1,-1,1,-5,-4,-3,2
1532467576678,-9,-6,0,-1,-5,8,4,-9
1532467576683,5,3,0,3,27,10,0,3
1532467576688,0,-3,-4,-5,-11,-8,-1,1
1532467576693,4,-1,-2,-3,-3,16,3,2
1532467576698,0,1,2,2,11,-13,1,-8
1532467576703,-7,-4,-3,0,-25,-42,-1,-1
1532467576708,-3,-2,0,-1,-8,-3,0,-3
1532467576713,-1,-4,-3,0,-10,-6,5,10
1532467576718,-1,1,0,1,12,13,-3,-2
1532467576723,4,1,2,4,48,3,1,-1
1532467576728,-8,-4,-7,-16,-63,25,5,5
1532467576733,5,0,1,2,13,19,-17,-5
1532467576738,0,1,-1,2,1,-6,2,-1
1532467576743,-4,1,1,3,-2,-19,-1,0
1532467576748,3,1,2,10,35,43,8,1
1532467576753,-1,-2,-4,-9,-13,-15,5,-4
1532467576758,-11,-5,-4,-8,-15,-7,-2,-8
1532467576763,-12,-3,-1,-1,-14,3,-3,-7
1532467576768,18,3,3,2,6,-15,-3,8
1532467576773,7,3,2,6,11,33,1,2
1532467576778,-1,-2,-6,-4,-24,-38,-7,-9
1532467576783,-5,-2,-4,-5,-1,4,3,-3
1532467576788,-6,0,0,-1,15,-6,-6,-2
1532467576793,-4,-4,-2,-2,-10,-4,1,0
1532467576798,5,1,0,0,5,7,-2,-1
1532467576803,6,1,0,1,-8,4,-4,9
1532467576808,-3,-1,0,2,9,-2,-1,-4
1532467576813,-3,-2,-1,0,5,-3,-3,-2
1532467576818,-3,-1,-2,-1,7,7,3,1
1532467576823,3,0,-4,-5,-19,-3,-1,-1
1532467576828,1,0,0,0,6,-15,-2,5
1532467576833,-6,0,-1,-1,-12,-4,4,-1
1532467576838,0,-2,-1,1,-3,-7,2,-6
1532467576843,3,2,1,-1,16,9,3,2
1532467576848,-5,-2,0,-5,-13,19,-1,-4
1532467576853,-3,1,0,-1,-27,-35,-4,-4
1532467576858,1,-3,0,0,3,13,-5,3
1532467576863,-2,-3,-2,-1,-6,-3,-3,-5
1532467576868,0,1,-3,0,11,-5,-2,1
1532467576873,0,-1,-1,0,4,7,1,2
1532467576878,4,2,-1,0,13,12,0,-4
1532467576883,-2,0,0,4,8,5,-3,-8
1532467576888,-1,1,-3,-4,-12,-11,1,-2
1532467576893,-2,-3,0,-1,6,26,5,-1
1532467576898,-1,-1,0,1,-10,-27,-3,3
1532467576903,-13,-2,1,-2,-1,6,-5,-5
1532467576908,17,1,0,4,10,-17,5,3
1532467576913,-14,-6,-5,-4,6,19,2,0
1532467576918,-2,0,2,-1,20,26,-1,-7
1532467576923,-3,0,-1,-6,-54,-61,-4,3
1532467576928,-2,0,-3,-3,5,25,-5,5
1532467576933,4,2,1,2,4,-1,13,2
1532467576938,-2,-3,-3,5,19,12,-5,2
1532467576943,6,1,-2,-4,-10,5,-4,5
1532467576948,-11,-4,-2,-3,-2,-15,-1,-6
1532467576953,1,1,3,2,-7,-19,-9,-5
1532467576958,-1,-1,0,0,1,22,7,11
1532467576963,20,1,1,6,30,10,5,1
1532467576968,-12,1,1,3,4,-4,-5,-4
1532467576973,8,-3,-3,-6,-1,-5,-5,1
1532467576978,2,0,0,-4,-19,15,4,-2
1532467576983,-7,-2,-1,2,-20,-62,-6,-8
1532467576988,-3,-2,-1,4,10,6,3,-1
1532467576993,0,0,-2,-3,2,0,-2,0
1532467576998,1,1,-1,-1,-1,-5,-5,2
1532467577003,-5,-4,-2,-1,19,32,-1,-8
1532467577008,-2,-1,2,-3,-20,-19,-2,2
1532467577013,4,0,-3,1,-6,9,2,1
1532467577018,-1,-1,-3,0,2,-31,-4,3
1532467577023,-8,-5,-3,-2,3,52,1,-5
1532467577028,-3,1,-3,-8,-31,-12,5,-4
1532467577033,6,0,0,-4,-7,-9,-3,8
1532467577038,-5,-1,-2,1,22,-23,-3,-4
1532467577043,-21,-1,1,5,0,17,10,-13
1532467577048,5,-3,0,1,-2,28,-12,3
1532467577053,-3,-1,-2,0,15,1,2,-2
1532467577058,4,0,-5,-4,-6,-22,-10,0
1532467577063,-12,-3,0,-2,6,10,2,-11
1532467577068,-1,-2,0,2,11,-14,3,6
1532467577073,0,-1,-2,-2,8,3,4,0
1532467577078,6,2,3,1,11,75,0,-1
1532467577083,0,1,1,-2,-18,-37,7,9
1532467577088,-7,-6,-6,-3,-7,-18,-2,-3
1532467577093,21,2,3,4,44,41,11,5
1532467577098,-3,-2,-5,-11,-94,-78,6,-4
1532467577103,8,-1,-2,0,20,22,-7,7
1532467577108,-11,0,4,4,15,-30,-9,-14
1532467577113,-11,-1,-2,-2,-29,-19,-5,-4
1532467577118,-1,-1,0,-1,14,29,-1,-3
1532467577123,16,3,-2,-5,-10,6,5,10
1532467577128,-3,-3,-1,5,12,-49,-1,-6
1532467577133,2,3,0,-4,-19,-1,-12,-2
1532467577138,-13,-5,-2,-2,0,-23,3,-9
1532467577143,5,1,-1,-5,-5,13,12,8
1532467577148,-11,-2,1,2,12,12,-3,-1
1532467577153,1,-1,0,1,11,13,-2,-2
1532467577158,6,3,5,3,-7,3,-11,4
1532467577163,-9,-2,-4,-2,13,-15,4,-3
1532467577168,3,0,0,0,5,34,6,2
1532467577173,-3,0,-1,-2,-4,-9,6,-4
1532467577178,3,0,2,4,30,-5,-3,2
1532467577183,-2,-2,-1,-1,-3,24,-7,1
1532467577188,-1,0,2,3,4,5,-3,-1
1532467577193,-2,-1,0,-3,13,13,0,-1
1532467577198,9,0,-3,-2,-26,-13,3,3
1532467577203,-2,0,0,-2,-9,-11,-2,-4
1532467577208,1,-1,1,0,-7,7,5,2
1532467577213,2,-2,-2,2,-3,-5,-1,1
1532467577218,-1,-2,-3,-5,13,13,-2,-3
1532467577223,-3,0,2,1,4,-4,-2,1
1532467577228,-1,0,-2,-5,-37,-40,-1,-3
1532467577233,-2,-1,-2,-8,-10,-35,-3,-1
1532467577238,-7,-7,-2,-3,8,26,-12,-3
1532467577243,-1,1,1,3,-14,7,19,1
1532467577248,0,2,2,4,25,22,2,2
1532467577253,1,4,2,2,-9,-3,-3,1
1532467577258,6,2,2,1,-10,-14,-3,3
1532467577263,-3,-2,-1,0,-2,-5,-8,-5
1532467577268,-2,-3,-5,-5,9,3,-2,-2
1532467577273,-1,1,-2,-2,-2,12,1,-1
1532467577278,11,3,0,-1,14,14,5,5
1532467577283,-4,-3,1,2,-10,-36,-2,0
1532467577288,-1,-1,-3,-8,-32,27,2,-1
1532467577293,-2,-2,-2,0,4,2,-3,-1
1532467577298,-5,-2,-1,-1,1,-2,-1,-3
1532467577303,0,-1,2,0,6,6,-4,1
1532467577308,5,1,1,-1,16,-13,-3,0
1532467577313,-5,-5,1,-4,-22,9,3,-6
1532467577318,2,2,-1,-3,14,17,-6,-3
1532467577323,0,0,0,-2,-23,-24,-10,5
1532467577328,-5,-2,-1,1,0,3,34,3
1532467577333,2,-1,0,1,12,2,-10,1
1532467577338,2,0,-2,0,-5,-23,7,3
1532467577343,-4,-2,-3,-3,-8,18,-5,-5
1532467577348,-5,-2,0,-3,-1,8,-12,0
1532467577353,-2,0,0,1,7,-6,3,-2
1532467577358,8,2,2,3,-3,3,1,3
1532467577363,0,-1,-2,-3,8,10,-4,-2
1532467577368,1,-2,0,-2,-18,-13,0,1
1532467577373,1,-3,-3,-5,0,0,4,0
1532467577378,-7,0,0,2,-8,-12,-9,-3
1532467577383,2,2,-3,-2,11,12,4,2
1532467577388,-7,-6,0,5,19,1,-3,-7
1532467577393,7,0,-2,-5,-15,-10,-15,-1
1532467577398,-5,1,-2,-1,-1,-3,6,1
1532467577403,-4,1,1,3,15,17,2,-3
1532467577408,-2,3,-2,-1,-22,-11,-18,-2
1532467577413,-4,-5,-2,-2,7,-8,7,-2
1532467577418,-6,-2,1,0,-8,7,5,0
1532467577423,12,-1,0,0,1,-4,2,2
1532467577428,-2,1,-1,0,14,3,1,0
1532467577433,2,2,1,5,13,7,-12,-1
1532467577438,4,-3,-2,-8,-28,-9,3,-1
1532467577443,-1,0,1,1,3,6,1,2
1532467577448,1,0,-1,-3,-5,-33,-19,-5
1532467577453,1,0,-1,1,6,16,16,4
1532467577458,-6,-1,-1,2,11,12,-1,-4
1532467577463,3,1,-3,-3,-4,-6,6,2
1532467577468,-9,-8,-3,-1,5,-3,-10,-6
1532467577473,0,1,-1,-1,-16,-9,-5,0
1532467577478,-5,-1,1,0,2,-3,-8,-6
1532467577483,0,0,-1,-2,-2,3,4,-4
1532467577488,6,1,-2,1,4,1,6,5
1532467577493,-4,-2,1,0,4,12,2,-1
1532467577498,2,-1,-1,-1,16,5,8,1
1532467577503,-1,-1,-2,1,-20,-32,-17,-2
1532467577508,0,0,1,2,18,8,-1,-5
1532467577513,2,-1,-3,-7,-26,-13,22,6
1532467577518,2,2,2,-2,-18,-23,-13,0
1532467577523,-10,-4,-3,-4,1,13,0,-6
1532467577528,0,3,1,6,4,7,8,4
1532467577533,-1,0,2,2,3,-2,-10,-3
1532467577538,-1,-2,-1,-3,4,-9,-1,-2
1532467577543,-1,-1,-1,-3,7,4,10,1
1532467577548,-2,-3,-6,-10,-22,-21,-17,-1
1532467577553,3,2,-1,1,12,12,26,0
1532467577558,-6,-1,-2,1,-3,0,-3,-1
1532467577563,5,-1,0,0,-4,4,-2,-7
1532467577568,2,3,3,4,8,18,14,4
1532467577573,-3,0,0,0,-4,-26,-27,-4
1532467577578,1,-3,-5,-1,7,15,3,1
1532467577583,-1,1,0,-1,-5,9,15,1
1532467577588,1,-1,-1,-1,-2,-19,-3,-3
1532467577593,-2,0,-2,-2,6,12,-17,-2
1532467577598,-1,-1,0,0,-3,3,5,-3
1532467577603,-2,-2,-1,2,7,13,13,-2
1532467577608,3,2,1,-2,-1,1,-11,5
1532467577613,-3,-3,-3,-1,2,-17,-3,-4
1532467577618,-1,-2,1,-1,-7,-21,-11,1
1532467577623,-6,-4,-4,-5,3,-2,6,-4
1532467577628,0,-1,1,1,-5,-4,9,-4
1532467577633,5,2,4,8,49,-2,-16,-2
1532467577638,-4,-1,-3,-5,-46,4,-1,2
1532467577643,2,0,0,-2,-20,-13,5,3
1532467577648,-2,-1,-3,-2,2,8,-25,0
1532467577653,-1,-3,-2,1,32,58,27,2
1532467577658,1,-2,-2,-5,-21,-41,7,-5
1532467577663,-2,0,0,-1,-1,12,-27,0
1532467577668,-3,-2,-4,-5,-8,-35,-10,-7
1532467577673,-3,-2,-3,1,0,5,-11,-6
1532467577678,4,-1,1,0,11,14,34,8
1532467577683,-3,-3,-2,-5,-7,-9,-9,1
1532467577688,0,0,-1,1,21,-19,6,-1
1532467577693,-1,2,1,-3,-31,-10,-7,-1
1532467577698,-2,0,-1,3,13,6,9,-3
1532467577703,-3,-2,-2,-1,3,-1,10,4
1532467577708,1,-1,1,2,13,21,1,1
1532467577713,2,-1,-1,0,31,-15,17,-4
1532467577718,6,1,2,3,-5,-64,-9,3
1532467577723,-5,-1,-6,-8,-19,44,-4,1
1532467577728,0,0,1,6,54,31,-17,-7
1532467577733,-6,-2,0,-5,-24,-13,15,7
1532467577738,-6,-1,-3,-4,-19,-2,-23,2
1532467577743,2,0,0,0,-13,-26,-28,19
1532467577748,0,-2,-1,3,27,15,-11,16
1532467577753,-2,1,-1,1,-1,-11,-44,4
1532467577758,-2,-3,-2,-4,1,33,33,-2
1532467577763,-1,0,1,-2,-16,3,13,-9
1532467577768,-2,-2,-4,-4,6,-3,-3,-19
1532467577773,1,1,1,3,6,-15,-10,-11
1532467577778,2,-2,-2,2,1,37,88,-7
1532467577783,3,1,2,-1,24,-9,20,-11
1532467577788,4,1,2,-3,-2,37,51,6
1532467577793,-3,0,-1,-9,-75,-57,-4,-5
1532467577798,0,2,2,-2,-2,12,3,0
1532467577803,-5,-3,-5,-1,8,12,24,-4
1532467577808,-2,-3,-1,1,22,-13,-9,-9
1532467577813,5,2,0,0,8,10,-3,9
1532467577818,-1,-1,0,-2,-7,-1,0,-4
1532467577823,2,0,1,-1,-18,-12,8,2
1532467577828,-1,-1,1,2,0,-1,-57,-1
1532467577833,-2,-3,-1,2,24,20,-2,-7
1532467577838,1,-2,-3,0,0,-23,25,-4
1532467577843,-1,-3,-2,3,20,-13,23,1
1532467577848,-4,0,-2,-6,-39,-7,41,-2
1532467577853,-1,-3,-3,-2,14,6,37,1
1532467577858,3,3,5,7,15,9,17,1
1532467577863,-2,0,0,-1,-5,-27,-55,-4
1532467577868,1,-1,-1,4,20,43,48,0
1532467577873,-1,-2,-3,-3,-14,-14,-28,-10
1532467577878,-3,-4,-5,-8,-4,20,-32,0
1532467577883,-3,-3,-2,-3,-18,8,-33,-4
1532467577888,-3,0,-3,-5,-6,-29,-74,1
1532467577893,5,2,1,4,9,28,-32,7
1532467577898,-4,-3,-3,-1,-21,-19,-7,-4
1532467577903,2,1,-1,0,-11,14,45,6
1532467577908,-1,1,0,2,4,-19,70,-1
1532467577913,-1,-1,0,0,15,-2,42,-3
1532467577918,-4,-1,-3,-6,-8,10,10,-7
1532467577923,-1,-1,-1,0,3,20,15,-6
1532467577928,0,1,-1,-1,-3,-52,11,-12
1532467577933,1,1,0,0,12,19,0,-4
1532467577938,0,2,1,1,-3,-6,-24,-2
1532467577943,-4,-3,1,-3,5,-47,-26,10
1532467577948,-1,-2,0,3,23,80,-6,10
1532467577953,-6,-4,-5,-7,-9,-46,-35,8
1532467577958,1,-1,-2,-4,3,1,-60,12
1532467577963,1,2,1,3,-5,-5,-29,5
1532467577968,-2,-1,0,4,4,12,-27,-5
1532467577973,-6,-4,-2,-1,-7,-12,7,-8
1532467577978,3,-5,-3,0,18,26,18,37
1532467577983,-4,-3,-4,-6,-34,-41,-7,-9
1532467577988,11,3,3,-1,-13,24,9,-44
1532467577993,4,3,2,4,19,14,9,-27
1532467577998,0,2,-3,-3,-14,-33,0,-17
1532467578003,-5,-4,-3,-4,-13,-21,-49,12
1532467578008,0,-1,-2,-2,11,9,60,41
1532467578013,-4,-2,-1,0,-2,16,-35,12
1532467578018,-2,1,2,2,-3,-7,-5,10
1532467578023,-1,0,-2,-2,-6,0,-7,4
1532467578028,-3,0,1,-3,5,-10,-37,-11
1532467578033,2,-2,-1,0,4,-6,8,-5
1532467578038,-1,-1,-1,2,5,12,15,-7
1532467578043,-1,-2,-2,-1,-3,10,5,-13
1532467578048,-2,-3,-4,-1,-9,-13,-7,1
1532467578053,2,0,-1,0,-2,0,12,8
1532467578058,2,0,0,1,-14,23,-12,-7
1532467578063,3,4,3,2,6,-13,15,-2
1532467578068,-1,-2,2,-1,2,4,-4,3
1532467578073,-1,-1,2,0,0,11,15,6
1532467578078,-5,-3,-2,-2,-2,-2,-12,-6
1532467578083,0,-1,-1,-2,-4,18,13,0
1532467578088,-2,-1,-1,0,-17,-42,-42,2
1532467578093,-1,0,-1,1,10,67,14,4
1532467578098,-2,-2,-6,-2,-11,-30,-17,-10
1532467578103,1,0,-4,-2,-11,9,-12,3
1532467578108,-2,-2,-6,-3,6,-31,-16,1
1532467578113,3,2,0,-1,-4,9,1,3
1532467578118,0,0,3,0,5,21,6,-3
1532467578123,-2,1,0,2,4,13,7,7
1532467578128,2,-1,-2,-1,-7,-6,-9,-2
1532467578133,-2,0,-2,-3,-4,-32,-41,0
1532467578138,0,-2,1,-2,10,5,-62,-4
1532467578143,6,3,2,1,4,-2,-35,-2
1532467578148,-4,-1,1,-1,6,7,-21,-5
1532467578153,1,-2,-1,-1,-13,-19,-27,-10
1532467578158,1,1,1,2,9,-2,4,3
1532467578163,0,-4,-2,-1,-14,57,42,-7
1532467578168,-4,-1,-5,-10,-39,-55,37,0
1532467578173,-4,-2,-6,1,16,71,30,-5
1532467578178,-4,-2,-1,0,-2,-11,14,-8
1532467578183,-2,-4,-2,0,8,-20,-4,-11
1532467578188,5,4,4,6,11,24,-6,0
1532467578193,-1,-3,-1,-8,-4,-9,-20,-6
1532467578198,3,2,1,5,3,-9,52,16
1532467578203,-7,-5,-5,-7,-2,-25,-26,-9
1532467578208,0,-2,0,1,7,9,21,0
1532467578213,1,1,4,1,-2,1,17,-2
1532467578218,1,1,1,-2,3,3,-5,2
1532467578223,1,-1,-4,-2,-4,0,36,0
1532467578228,-1,-3,-6,-1,6,19,14,11
1532467578233,3,2,-2,-3,-20,-43,32,1
1532467578238,-8,-6,-6,-2,-1,-23,12,6
1532467578243,-8,0,-2,3,4,4,-15,-12
1532467578248,2,1,2,2,14,19,-22,-3
1532467578253,-2,-3,0,-1,-6,-35,-4,1
1532467578258,3,1,1,-4,4,-17,8,-2
1532467578263,0,-3,2,-3,-7,51,5,8
1532467578268,-3,-2,1,-3,-5,-57,-10,-4
1532467578273,2,0,-1,2,2,-20,40,0
1532467578278,-4,-1,-5,-1,-1,21,-34,-9
1532467578283,-1,-2,-5,-1,7,18,-1,-5
1532467578288,2,2,0,1,5,9,-10,1
1532467578293,1,-1,-1,-4,-14,-2,11,1
1532467578298,-4,-2,-1,-4,-1,-4,8,-7
1532467578303,3,3,5,2,-8,-10,17,-1
1532467578308,-4,-2,0,-2,5,27,-20,-1
1532467578313,-4,-4,0,-3,8,-7,-14,-1
1532467578318,0,0,-1,1,-4,12,3,1
1532467578323,2,0,-2,3,5,-10,14,1
1532467578328,-3,-1,-5,1,9,3,12,0
1532467578333,-5,-1,-6,-5,-8,-21,-4,-12
1532467578338,0,-3,-4,-3,-5,21,1,2
1532467578343,0,2,2,-1,4,-33,-4,-10
1532467578348,-4,-4,6,2,0,8,5,0
1532467578353,-1,8,9,7,14,22,-11,-4
1532467578358,0,0,3,0,-1,-5,-12,-13
1532467578363,-1,-2,0,-11,-48,-3,4,1
1532467578368,1,-4,-4,-1,5,-23,-1,1
1532467578373,-6,-3,-5,-4,9,-2,-3,-8
1532467578378,-1,0,-3,-6,-1,0,-4,-4
1532467578383,0,0,-3,4,12,11,-6,2
1532467578388,-2,-2,-5,-4,-19,-3,3,-3
1532467578393,1,-1,-4,2,1,9,-17,12
1532467578398,1,2,-2,5,5,-23,5,3
1532467578403,4,1,-2,0,37,9,7,0
1532467578408,2,-4,-6,-8,-42,-32,-2,3
1532467578413,-20,-9,-8,-5,4,25,-1,-5
1532467578418,28,5,7,10,-10,-1,-18,13
1532467578423,-4,3,3,10,34,-10,4,-4
1532467578428,4,2,1,4,19,73,0,3
1532467578433,-1,-5,-7,-9,-4,-73,15,1
1532467578438,-6,-3,-3,-8,-7,-1,-1,-7
1532467578443,-1,-5,-1,-5,-9,-45,24,3
1532467578448,3,1,-3,4,32,50,13,-1
1532467578453,-2,0,-3,4,-16,-1,-12,-3
1532467578458,-9,-4,-6,0,-17,-19,-7,-6
1532467578463,2,1,3,-2,14,31,11,-4
1532467578468,-5,-5,-10,-7,9,-7,2,-6
1532467578473,16,-5,-4,-6,-8,27,-5,14
1532467578478,-8,-4,-3,-11,-18,-35,13,-15
1532467578483,-8,5,17,16,-13,4,-34,14
1532467578488,16,10,11,1,26,-16,-14,-12
1532467578493,19,6,9,6,-9,16,9,7
1532467578498,-1,-1,0,-1,8,-12,15,4
1532467578503,-26,-20,-12,-12,-7,11,2,-18
1532467578508,0,4,8,3,12,61,-30,17
1532467578513,10,6,4,0,-13,-24,22,-12
1532467578518,-2,-2,-3,2,6,-20,-1,2
1532467578523,-8,-7,-12,-13,-8,-23,1,-8
1532467578528,-4,-2,-2,2,-13,-37,-1,2
1532467578533,-4,0,2,-3,-3,23,-18,-9
1532467578538,-2,3,5,0,-9,27,1,18
1532467578543,2,4,1,4,7,5,6,0
1532467578548,-3,1,-1,1,-2,-23,-5,-13
1532467578553,-3,1,-2,1,7,-8,7,-4
1532467578558,-2,-2,-5,-2,15,14,14,-2
1532467578563,0,-1,-1,-3,-1,-9,-11,19
1532467578568,26,0,-6,-8,-32,0,7,2
1532467578573,-11,-2,-1,5,6,-51,-5,-7
1532467578578,1,2,5,3,15,73,18,4
1532467578583,10,0,-11,4,11,-4,2,3
1532467578588,-12,-4,-3,-8,-10,-19,25,4
1532467578593,-5,-3,-3,-2,-13,-6,1,-2
1532467578598,6,0,2,0,7,4,34,-5
1532467578603,-5,3,3,-1,-8,9,16,-4
1532467578608,1,-1,-1,2,0,-19,45,-7
1532467578613,1,1,0,4,6,6,19,11
1532467578618,-4,-2,-7,-8,-9,2,-13,-5
1532467578623,1,2,1,0,-9,6,-20,-8
1532467578628,-7,-2,-1,5,19,-12,-20,-8
1532467578633,-4,-1,-3,-8,-12,6,-42,-5
1532467578638,-3,-2,-6,-2,-2,7,-41,-13
1532467578643,7,1,-6,-5,3,-56,-72,-29
1532467578648,-8,-1,-8,-8,-24,40,-4,-28
1532467578653,-2,-3,-9,4,-4,5,-13,-9
1532467578658,0,-1,-7,3,12,-6,-16,-3
1532467578663,4,2,-1,0,4,-2,-14,14
1532467578668,-6,-3,16,1,4,4,-7,-29
1532467578673,-1,0,9,1,8,-16,8,-23
1532467578678,13,3,10,1,-13,-8,-1,-8
1532467578683,-11,-5,-10,-2,-15,-33,-7,30
1532467578688,-10,-3,-13,3,9,30,0,36
1532467578693,1,0,-8,-2,7,10,1,38
1532467578698,-6,-2,-7,-3,-11,-1,5,17
1532467578703,9,0,3,-2,-9,7,-16,22
1532467578708,-5,1,1,-2,7,-16,16,6
1532467578713,-6,-1,-3,-3,-8,-10,-13,-8
1532467578718,5,3,3,5,9,-15,-4,17
1532467578723,1,1,3,-4,-5,52,-3,-21
1532467578728,-1,-2,1,3,-5,-3,-9,9
1532467578733,-1,-3,2,2,-1,38,19,-10
1532467578738,-1,0,6,-1,-4,-23,19,-11
1532467578743,0,0,8,3,1,14,25,-15
1532467578748,0,-2,3,-3,5,-21,3,3
1532467578753,6,2,7,-4,12,6,42,18
1532467578758,-4,-1,0,1,-14,7,12,24
1532467578763,6,1,-1,-3,-7,-6,17,12
1532467578768,-1,-3,0,0,4,-13,-12,-4
1532467578773,-13,-5,-2,-5,-5,7,-91,1
1532467578778,9,0,1,-1,1,4,-53,-5
1532467578783,7,1,0,-1,5,-23,-18,16
1532467578788,-10,-3,-4,-4,-19,19,-27,0
1532467578793,-2,-1,-1,4,8,-23,18,-12
1532467578798,-8,-2,-7,-8,-6,6,1,-3
1532467578803,13,-3,-3,-3,-1,-5,-4,20
1532467578808,13,2,-3,-1,1,17,-12,12
1532467578813,0,4,0,-1,-4,-9,-20,3
1532467578818,-34,-3,0,1,-1,-4,14,-24
1532467578823,39,-3,-3,0,0,0,0,-12
1532467578828,-23,0,0,-3,-8,-4,-20,-8
1532467578833,24,-8,2,2,4,-52,-69,6
1532467578838,-14,-9,3,0,5,32,-61,-21
1532467578843,-14,16,-8,-2,0,-7,50,5
1532467578848,33,19,-2,-3,-1,44,54,16
1532467578853,-3,-15,-1,2,3,13,127,13
1532467578858,-4,-2,-2,-1,-2,-57,114,3
1532467578863,-9,-8,4,0,-1,30,107,-6
1532467578868,-22,-10,-5,-1,-8,-43,29,-9
1532467578873,20,14,-3,-5,10,127,-31,27
1532467578878,-4,3,-8,2,-2,-83,-118,-6
1532467578883,-63,-23,-8,8,4,-7,-128,-13
1532467578888,51,15,-7,1,-3,-60,-116,6
1532467578893,-57,-13,-4,-7,-9,92,-65,-4
1532467578898,75,3,-4,-3,1,33,16,48
1532467578903,10,12,7,5,1,-63,84,5
1532467578908,-6,-2,2,4,-5,-121,68,3
1532467578913,11,1,-6,-9,-15,6,65,-53
1532467578918,2,10,8,4,10,34,77,-11
1532467578923,7,6,6,-1,0,-18,53,3
1532467578928,-10,-11,-1,-1,-4,-69,50,-45
1532467578933,3,3,4,1,-1,14,34,-17
1532467578938,-12,-2,-1,1,2,15,48,-11
1532467578943,3,-7,-1,-12,-16,127,19,-16
1532467578948,-11,-1,6,7,20,-61,15,14
1532467578953,16,17,9,14,9,-77,31,19
1532467578958,-17,-11,-4,-3,-5,14,9,-8
1532467578963,9,2,0,-3,-2,5,23,-7
1532467578968,-8,-4,-3,-5,-18,18,62,-6
1532467578973,-29,-23,-20,-25,-9,-107,-14,-26
1532467578978,-2,14,5,1,8,75,89,21
1532467578983,9,2,-6,0,3,-8,-15,-8
1532467578988,-63,-22,-6,-10,-11,45,27,-29
1532467578993,34,11,25,18,4,-31,27,62
1532467578998,-17,18,8,7,15,-45,5,-45
1532467579003,-5,-5,-6,-8,6,7,32,-3
1532467579008,23,8,2,4,-8,85,-28,5
1532467579013,-31,-14,-14,-5,-13,-1,45,-25
1532467579018,-9,-11,-6,-6,-1,29,12,-2
1532467579023,6,4,-2,5,15,25,4,-1
1532467579028,-8,-7,-8,-14,-30,-45,-31,-5
1532467579033,-11,-2,-5,5,10,3,7,5
1532467579038,10,0,4,0,-12,-27,9,8
1532467579043,-5,-1,-3,0,17,-35,-22,-13
1532467579048,1,-5,-4,-4,6,-5,-25,-1
1532467579053,11,10,1,-2,-20,5,7,14
1532467579058,4,-4,-2,3,21,12,-34,2
1532467579063,-15,-5,0,-6,-45,-102,-46,-9
1532467579068,4,3,2,3,17,86,17,-11
1532467579073,4,2,0,-2,7,-22,-34,1
1532467579078,7,-5,-5,-7,-10,-28,-25,10
1532467579083,-1,0,4,3,14,42,11,14
1532467579088,15,9,10,8,3,31,-8,14
1532467579093,-2,2,1,5,21,32,-2,-19
1532467579098,-12,-8,-8,-5,-4,14,-24,-10
1532467579103,3,1,0,0,-9,-20,-1,9
1532467579108,5,1,-1,0,5,6,1,9
1532467579113,-7,-6,-6,-4,-7,4,-15,-12
1532467579118,2,-5,-1,-2,0,61,16,7
1532467579123,3,1,0,0,-9,-42,-42,-3
1532467579128,-2,0,-2,3,3,0,-6,0
1532467579133,-1,1,0,-1,6,-1,-3,-2
1532467579138,3,1,-1,1,-4,4,-3,5
1532467579143,-3,-4,-5,-5,0,52,-8,-6
1532467579148,-3,-3,-3,-3,2,-19,-18,1
1532467579153,5,4,1,2,-3,-16,-16,4
1532467579158,-5,-1,1,-2,-4,31,-21,-6
1532467579163,-9,0,1,1,-1,-44,-38,-8
1532467579168,1,1,-1,-2,-5,5,-11,8
1532467579173,2,1,0,0,7,2,12,-4
1532467579178,-1,-2,-2,-4,-18,-40,-12,-6
1532467579183,0,-2,1,-2,1,24,7,1
1532467579188,2,-1,1,4,23,17,8,5
1532467579193,2,-1,-2,-5,-18,-9,0,-5
1532467579198,-5,-3,-2,1,-2,-45,1,-2
1532467579203,3,0,-1,-1,3,41,5,2
1532467579208,5,-2,-3,-3,-10,0,27,6
1532467579213,5,0,2,2,11,5,-7,-2
1532467579218,0,-2,0,1,11,-32,-18,-2
1532467579223,-3,-3,-3,-5,-19,-2,45,2
1532467579228,-4,-1,1,0,10,-7,-31,-8
1532467579233,2,0,-1,-1,-5,15,0,18
1532467579238,-1,-1,1,2,11,11,1,-5
1532467579243,-1,2,-3,1,1,15,12,-1
1532467579248,-3,-1,-4,-4,-14,-9,16,-2
1532467579253,1,2,1,3,7,3,4,8
1532467579258,-1,0,2,4,10,-11,-20,0
1532467579263,3,2,3,5,33,48,24,3
1532467579268,-2,-1,-3,-9,-47,-30,8,2
1532467579273,-5,-1,-4,-5,5,19,-25,-10
1532467579278,-2,-2,-3,-4,-7,-21,32,0
1532467579283,-1,-3,-1,1,10,2,8,-1
1532467579288,0,1,1,5,14,-20,11,0
1532467579293,-1,-1,0,2,4,-20,6,-4
1532467579298,-2,-4,-4,-3,-12,-4,-13,-5
1532467579303,0,-1,-1,-2,-10,-19,2,1
1532467579308,0,-2,-1,-1,-1,-4,-3,2
1532467579313,0,0,-1,-2,3,7,-10,-3
1532467579318,1,2,-1,-3,-3,-5,1,4
1532467579323,-2,0,-1,-1,-15,-16,-4,-2
1532467579328,0,0,1,0,14,29,-8,1
1532467579333,-3,0,-1,0,-3,-1,-10,-6
1532467579338,0,1,1,-1,1,12,8,2
1532467579343,-1,-2,-5,-3,-10,-42,-10,-1
1532467579348,-1,-2,-1,0,7,60,1,0
1532467579353,-1,-1,0,-1,4,-18,-6,-5
1532467579358,3,-1,2,-2,-8,9,8,7
1532467579363,-4,0,-2,3,1,-30,-17,-2
1532467579368,0,-1,-1,-3,0,-19,-8,-3
1532467579373,-2,0,-4,0,-4,8,13,1
1532467579378,0,-3,-2,-2,1,38,2,1
1532467579383,-1,-2,1,1,3,-32,-19,-14
1532467579388,0,0,-3,-4,-13,-25,-7,-2
1532467579393,2,-1,0,-1,-2,24,8,1
1532467579398,-1,2,-2,4,27,17,-1,1
1532467579403,0,-4,-1,-7,-39,1,0,2
1532467579408,-2,0,0,2,8,-27,-6,-1
1532467579413,-2,-2,-1,-2,-10,-9,-5,-4
1532467579418,-2,-1,-1,-3,-7,-8,-7,-3
1532467579423,-1,0,-1,0,3,18,7,0
1532467579428,2,0,4,2,9,22,2,8
1532467579433,-2,-2,-1,-2,-6,-12,-3,-4
1532467579438,-1,0,-2,-3,-5,-9,-8,-2
1532467579443,0,2,4,2,12,19,10,-2
1532467579448,-2,-1,1,5,-2,11,1,-3
1532467579453,0,1,-2,-5,-1,-7,-19,-2
1532467579458,-1,1,-2,-4,-2,-20,-1,0
1532467579463,-2,-1,-2,-4,-1,15,4,0
1532467579468,-1,0,1,-2,-6,-10,3,-1
1532467579473,0,-1,0,5,14,13,15,-3
1532467579478,-1,-1,-1,-1,-5,-16,-10,0
1532467579483,1,0,-1,-1,3,4,4,4
1532467579488,1,2,-1,3,9,-5,10,0
1532467579493,-3,-5,-4,-1,-1,-4,11,-4
1532467579498,0,-1,1,1,-6,3,-3,-4
1532467579503,-1,0,1,-1,-2,-3,-10,1
1532467579508,-1,0,0,0,5,6,-4,-5
1532467579513,1,3,4,-3,1,0,1,3
1532467579518,-2,-5,-6,-2,-7,4,-10,-2
1532467579523,0,-1,-2,-1,-1,4,6,5
1532467579528,-1,0,2,2,1,-12,-7,-5
1532467579533,-3,-4,-4,-2,-2,-1,2,-5
1532467579538,-4,-2,-1,-2,5,11,9,-3
1532467579543,-2,-3,-2,-1,-5,-6,-7,-2
1532467579548,-3,0,-1,2,1,-3,4,-8
1532467579553,2,0,1,-1,0,-8,-5,6
1532467579558,-1,-1,-1,-2,-3,2,2,-1
1532467579563,0,0,-3,-1,1,3,3,0
1532467579568,1,3,1,-2,3,5,-1,3
1532467579573,-1,-2,-1,0,1,2,5,1
1532467579578,-4,-1,-2,-2,-1,-8,-4,-10
1532467579583,2,-2,-1,-2,-3,1,5,2
1532467579588,1,0,1,3,6,3,3,3
1532467579593,1,2,-1,0,-12,-17,5,3
1532467579598,0,0,-1,-3,2,22,15,4
1532467579603,-3,-2,-4,-6,-10,-15,-32,-9
1532467579608,-1,-2,-5,-2,3,0,26,-2
1532467579613,-1,0,-1,2,-4,-4,-9,-7
1532467579618,0,-1,-1,0,1,-5,-2,2
1532467579623,-2,-1,-1,-1,-2,1,-6,-2
1532467579628,1,-1,0,1,0,-4,-6,0
1532467579633,1,1,0,0,6,11,2,1
1532467579638,-2,-1,0,0,-1,-11,-7,-7
1532467579643,-3,0,2,1,2,-3,3,-4
1532467579648,-1,-1,-2,-5,-6,10,1,-7
1532467579653,-1,-3,-2,-2,1,2,5,2
1532467579658,3,1,0,-1,-6,0,2,6
1532467579663,-1,-3,-3,-3,7,-3,1,1
1532467579668,-2,-2,-3,-2,-3,6,9,4
1532467579673,-3,-1,0,-1,2,-2,-6,-7
1532467579678,0,-2,-1,1,2,18,22,-2
1532467579683,-1,-1,0,1,-12,-6,-10,1
1532467579688,0,2,2,2,8,-6,2,3
1532467579693,-3,-8,-2,-6,-3,1,-12,-5
1532467579698,-1,-2,-4,-1,-6,-9,-11,0
1532467579703,0,-2,-1,-1,-1,-3,3,-5
1532467579708,-1,-1,2,0,1,-4,-6,4
1532467579713,-1,0,-2,1,-1,-3,3,-3
1532467579718,1,-1,1,2,3,-5,-7,-1
1532467579723,-1,-1,0,2,4,11,13,0
1532467579728,-3,-3,-5,-3,-6,-12,-10,-8
1532467579733,0,0,-1,-2,1,3,3,2
1532467579738,3,0,1,1,3,8,0,6
1532467579743,2,1,0,0,-2,0,3,11
1532467579748,-1,-2,0,0,-2,1,-1,-7
1532467579753,-3,0,0,-2,6,2,-2,5
1532467579758,0,-1,0,-3,-4,6,-1,3
1532467579763,0,1,1,0,0,-6,7,-2
1532467579768,-3,-1,-1,-3,-3,-7,-6,-5
1532467579773,0,-1,0,-2,-5,-4,-12,-6
1532467579778,0,2,0,2,15,-8,-14,0
1532467579783,2,1,0,-1,-20,-7,21,5
1532467579788,0,-2,-3,-3,-10,9,-9,5
1532467579793,-1,1,-1,-3,8,1,-8,-6
1532467579798,-2,-1,-2,0,3,-5,-6,-2
1532467579803,-2,0,3,3,10,11,8,-5
1532467579808,-2,-2,-2,0,6,-8,-9,-1
1532467579813,-2,1,-3,-3,-7,-2,10,5
1532467579818,0,-3,0,-7,-9,8,13,-1
1532467579823,1,2,0,2,3,-9,-9,0
1532467579828,1,0,2,1,-8,-4,-1,2
1532467579833,2,-1,-3,1,3,3,-1,2
1532467579838,-1,-2,-3,-1,-4,-3,-1,-2
1532467579843,-2,-2,-2,-5,-1,3,16,1
1532467579848,-2,-1,1,1,2,6,-11,-6
1532467579853,-1,-2,-1,3,5,-9,-9,1
1532467579858,0,1,-1,0,-2,8,5,-7
1532467579863,-1,-1,0,1,0,-6,-22,-1
1532467579868,2,2,3,0,7,10,36,7
1532467579873,0,1,2,6,29,4,-17,-18
1532467579878,-3,-2,-4,-7,-35,-34,-24,-2
1532467579883,-2,-3,-4,-9,-18,27,29,6
1532467579888,-1,-2,-2,-2,-14,-7,0,-7
1532467579893,0,0,2,5,10,5,2,0
1532467579898,0,-2,-3,-2,4,-1,22,11
1532467579903,3,3,3,7,16,2,-30,-14
1532467579908,-1,-2,-3,-4,-5,6,-14,5
1532467579913,-1,-1,-1,-3,-11,-4,19,-2
1532467579918,-2,-1,2,3,9,6,-10,-9
1532467579923,0,-2,-2,0,0,-4,13,8
1532467579928,-1,-1,-2,0,5,-3,10,1
1532467579933,-2,0,2,3,9,10,-16,-4
1532467579938,-1,0,-2,-5,-18,-10,3,-4
1532467579943,-3,-2,-5,-7,-13,-9,-1,-1
1532467579948,1,-1,-3,-4,1,-22,-14,-2
1532467579953,0,-1,1,-1,-15,-3,10,6
1532467579958,-1,0,1,5,21,19,-7,-8
1532467579963,-2,0,-1,1,10,2,-3,-3
1532467579968,-1,-3,-3,-9,-38,-17,-12,1
1532467579973,1,-1,0,0,32,-21,-10,0
1532467579978,0,1,-2,-13,-65,13,10,5
1532467579983,-3,0,0,0,7,0,-37,-10
1532467579988,1,2,3,3,10,10,-8,-3
1532467579993,-4,-1,-3,0,2,18,34,-1
1532467579998,0,-3,-3,3,21,-11,-3,1
1532467580003,-3,-2,0,-1,-11,-9,-5,-4
1532467580008,-2,-1,-1,-1,0,8,30,3
1532467580013,1,-1,-2,-5,-18,-10,-1,8
1532467580018,1,1,1,5,19,1,3,1
1532467580023,0,-1,-1,-3,-7,-3,24,1
1532467580028,-2,-2,-1,2,15,7,-14,-3
1532467580033,1,-1,-1,-2,-18,6,28,-1
1532467580038,-3,-1,-2,-1,-3,-17,-13,-3
1532467580043,0,-2,-1,4,12,6,-20,7
1532467580048,-1,-1,-3,-1,-11,-9,-24,-9
1532467580053,0,-1,-1,-1,-1,13,-10,-1
1532467580058,1,-2,-4,-2,5,3,10,3
1532467580063,0,-4,-2,-4,-8,-14,-6,-11
1532467580068,-2,-1,0,-1,6,-3,-12,-2
1532467580073,1,-2,-2,-4,-12,-4,19,1
1532467580078,1,1,4,3,14,9,-19,5
1532467580083,-1,-1,0,0,1,-2,29,6
1532467580088,1,-1,-1,1,2,10,-5,-1
1532467580093,-3,-2,-3,-2,-4,-21,-12,-5
1532467580098,-2,-2,-2,-1,2,1,10,-2
1532467580103,-2,-2,-1,-1,2,-1,-1,-3
1532467580108,1,0,0,-1,-2,6,4,9
1532467580113,0,1,3,-2,-9,-6,24,-1
1532467580118,-2,-1,-3,-1,1,-1,0,-3
1532467580123,-1,0,-2,-2,-2,-2,-18,-6
1532467580128,1,2,0,0,-1,2,13,8
1532467580133,0,-1,0,-4,-20,-13,-21,0
1532467580138,0,-1,0,-1,6,11,0,0
1532467580143,-2,-2,1,1,1,-7,1,-7
1532467580148,-3,-4,-3,0,3,-4,-15,-7
1532467580153,-2,-3,-3,-5,0,1,-21,-4
1532467580158,0,2,3,2,9,5,-5,2
1532467580163,3,3,2,1,-2,1,3,10
1532467580168,0,-1,0,-2,-7,-7,14,-4
1532467580173,-3,-1,-5,-1,2,4,-19,-3
1532467580178,0,-3,-1,1,2,-2,-5,-4
1532467580183,-1,2,1,0,1,3,6,2
1532467580188,1,1,2,-1,7,0,-3,2
1532467580193,-1,-2,0,1,3,2,21,-1
1532467580198,-4,-3,-1,-5,-13,-6,4,-4
1532467580203,0,-2,-2,0,6,5,20,6
1532467580208,2,1,-1,0,0,-1,-24,3
1532467580213,0,1,3,2,-7,5,25,-10
1532467580218,0,-3,-3,-1,3,-14,-24,-4
1532467580223,0,-1,-2,-3,-1,8,5,-2
1532467580228,-1,-1,-3,-2,4,-3,-12,2
1532467580233,-3,-1,-1,-1,-8,-10,-14,-5
1532467580238,-3,1,-2,-2,-10,3,10,-8
1532467580243,-1,-1,-1,3,-5,-7,-1,-3
1532467580248,-2,-3,-1,-2,8,3,11,-1
1532467580253,1,1,1,3,17,13,-10,4
1532467580258,-1,2,0,-4,-20,-8,7,-7
1532467580263,-1,0,-1,0,1,-2,-1,7
1532467580268,-2,3,-1,0,-5,2,21,-3
1532467580273,-2,-8,-3,-1,-1,-8,-5,-1
1532467580278,1,-1,2,3,9,11,23,9
1532467580283,1,0,0,-5,-19,10,-7,-1
1532467580288,0,-1,1,4,3,-28,-35,-5
1532467580293,0,-1,-3,-2,-1,1,-13,-2
1532467580298,3,1,-1,-1,7,10,18,1
1532467580303,1,-1,-2,0,3,5,-11,-1
1532467580308,1,-2,-1,-2,13,15,7,0
1532467580313,-1,-1,-4,-5,-29,-2,-3,9
1532467580318,-4,-5,-4,-3,-3,-15,-17,-11
1532467580323,-1,0,0,-1,-5,-11,-6,4
1532467580328,-3,-4,-3,1,-2,-6,3,-5
1532467580333,2,2,3,2,15,10,-6,-1
1532467580338,-1,-1,-1,-1,4,8,-4,10
1532467580343,1,-3,-3,0,0,-4,7,-4
1532467580348,-3,1,3,0,-2,4,5,1
1532467580353,0,4,-1,-3,2,-12,0,-3
1532467580358,-3,-5,-5,0,-7,-16,-15,-10
1532467580363,0,1,1,5,41,14,9,-4
1532467580368,-5,-3,-5,-9,-45,1,17,-4
1532467580373,2,0,2,2,-7,-6,-13,3
1532467580378,-1,1,1,1,-3,3,19,-1
1532467580383,0,-2,0,1,9,-10,-23,2
1532467580388,-1,0,0,1,21,6,10,-6
1532467580393,-1,-2,-2,-4,-10,19,17,5
1532467580398,-2,0,0,0,-4,-25,-42,-8
1532467580403,-3,-3,-4,-3,-15,-11,20,-6
1532467580408,1,1,2,4,2,5,3,4
1532467580413,-1,2,-1,-4,-1,-18,-28,-5
1532467580418,-1,-3,-1,2,12,28,33,5
1532467580423,-3,6,2,-3,-11,-3,-17,-1
1532467580428,0,-7,-3,0,-2,0,22,1
1532467580433,-1,1,1,3,11,11,3,0
1532467580438,0,-3,-5,-2,-4,-4,-12,-1
1532467580443,-1,1,0,-5,-8,-5,-10,2
1532467580448,0,1,2,0,1,7,17,3
1532467580453,-3,-2,-2,-2,0,-10,-9,-4
1532467580458,1,3,1,-5,-18,0,-4,1
1532467580463,-1,-1,-1,-2,-18,-26,11,5
1532467580468,-1,-1,-1,1,-1,2,-9,-4
1532467580473,-1,-2,-3,-1,-2,-2,3,0
1532467580478,0,1,-3,-3,1,-6,8,3
1532467580483,-1,-6,-3,-2,0,9,3,-3
1532467580488,0,1,1,-2,-6,-6,-19,-3
1532467580493,-1,-3,-2,-1,1,2,11,1
1532467580498,1,2,2,2,9,2,-10,1
1532467580503,-2,-3,-2,-2,-2,2,-7,-1
1532467580508,-3,-5,-3,-1,-2,-6,-4,-1
1532467580513,0,-1,-1,1,0,1,-2,-1
1532467580518,-2,1,0,0,6,0,5,-4
1532467580523,-2,-3,-2,-2,-6,0,-6,-4
1532467580528,1,0,0,0,-2,-4,-5,-1
1532467580533,1,-2,0,-1,1,8,8,4
1532467580538,-1,-2,-2,-4,-10,-4,0,-1
1532467580543,0,-1,0,1,4,6,4,-2
1532467580548,0,0,-1,-1,-2,-26,-20,-3
1532467580553,0,3,0,1,-1,-1,19,4
1532467580558,-1,0,-1,1,13,7,-8,-4
1532467580563,1,1,0,-1,-9,19,8,3
1532467580568,-1,0,-3,0,5,-10,-3,-1
1532467580573,-1,0,3,1,4,2,1,2
1532467580578,-3,0,-3,-2,0,-5,-4,-6
1532467580583,2,0,-1,-2,-9,-11,0,2
1532467580588,-3,-5,-5,-2,2,14,-12,-9
1532467580593,-4,-2,-1,2,5,-5,-6,-10
1532467580598,2,-1,-2,-2,-6,6,1,6
1532467580603,1,0,0,2,42,28,7,2
1532467580608,-1,2,2,0,-43,-44,-6,-1
1532467580613,-1,-1,-1,1,1,-12,-18,-1
1532467580618,-3,-1,-1,2,-3,-10,1,-6
1532467580623,-3,-5,-5,-3,0,-2,-4,-2
1532467580628,0,0,0,-1,12,23,11,5
1532467580633,0,0,1,-1,1,11,5,-4
1532467580638,-3,-1,-2,-2,7,9,10,-8
1532467580643,-2,-1,-2,0,-11,-13,-25,-4
1532467580648,1,0,3,1,7,9,32,6
1532467580653,1,-1,1,-1,-8,-6,-2,1
1532467580658,2,1,0,0,7,3,2,3
1532467580663,0,-2,-3,-5,-5,0,-2,-4
1532467580668,-1,-4,-3,-1,-5,5,-6,-1
1532467580673,-2,-1,4,3,-2,-25,-9,-2
1532467580678,-1,-1,-2,2,10,10,4,1
1532467580683,-2,-1,-2,-1,-3,-20,6,3
1532467580688,-1,-1,0,-2,0,10,-10,-3
1532467580693,-2,-1,-7,-11,-13,-3,0,-2
1532467580698,-1,0,0,-2,2,10,2,-1
1532467580703,-1,0,1,1,5,5,-3,-5
1532467580708,0,0,1,3,4,2,11,0
1532467580713,-2,2,0,5,0,3,-6,-5
1532467580718,0,-2,-2,-4,-1,2,-3,3
1532467580723,-1,-1,-1,-3,-2,7,5,3
1532467580728,-1,0,0,0,-4,-11,-3,1
1532467580733,-1,-1,2,0,-1,-1,-2,0
1532467580738,1,1,-5,-1,0,4,7,2
1532467580743,-1,-4,-2,-2,-6,-3,4,2
1532467580748,-2,-4,-3,-2,0,-3,-7,-3
1532467580753,-2,-3,-1,-1,-2,-3,-1,-4
1532467580758,-1,1,2,-1,-3,-6,-3,-5
1532467580763,0,0,3,0,3,17,11,2
1532467580768,-2,0,-2,-2,2,-22,-22,-10
1532467580773,-2,-2,-2,-2,-3,-1,-14,-14
1532467580778,-2,0,-1,-2,-4,-2,18,-2
1532467580783,-4,-5,-3,-4,1,8,-11,-13
1532467580788,1,1,3,2,-4,-1,24,7
1532467580793,1,1,-1,-1,1,0,0,3
1532467580798,2,-1,-2,-3,2,-3,-3,-6
1532467580803,-1,-1,0,0,-1,0,0,3
1532467580808,-3,-1,0,0,-1,7,-1,-11
1532467580813,1,0,-3,-2,-2,-13,-7,3
1532467580818,0,0,3,0,-3,2,7,8
1532467580823,1,-1,-3,0,3,2,2,7
1532467580828,6,5,2,-3,-3,2,-12,5
1532467580833,-16,-6,-5,0,1,10,15,4
1532467580838,-1,-1,-2,-1,-1,-7,-37,0
1532467580843,0,1,-1,0,-3,-8,-11,-1
1532467580848,-2,-1,-1,-2,-1,-1,14,3
1532467580853,2,0,2,-1,-3,4,13,0
1532467580858,0,-1,1,1,-3,-5,-3,-1
1532467580863,-2,0,-2,0,3,4,8,2
1532467580868,1,3,-1,0,-1,-4,3,3
1532467580873,-1,-2,0,-1,-1,-6,-8,-5
1532467580878,-3,-3,-1,-4,0,8,5,3
1532467580883,2,-1,1,4,1,-19,-10,-6
1532467580888,0,-2,-3,-4,2,3,-10,5
1532467580893,-1,-6,-7,-10,-5,1,-2,-8
1532467580898,-2,-1,0,-1,1,3,3,5
1532467580903,-1,-2,3,4,2,3,-1,-8
1532467580908,0,-2,-2,-1,-4,-1,0,2
1532467580913,2,2,-2,-3,0,-4,-7,-2
1532467580918,0,0,-1,-4,-7,-4,6,-3
1532467580923,0,0,1,-2,-2,1,10,3
1532467580928,-3,0,5,7,3,4,-3,-1
1532467580933,2,-1,-1,4,2,-4,-5,1
1532467580938,0,-3,-2,-2,-4,1,-4,0
1532467580943,-1,-1,-3,2,0,0,15,0
1532467580948,-3,1,0,1,1,-1,-2,-10
1532467580953,0,-1,-5,-4,-4,5,3,4
1532467580958,-1,0,-1,-1,-1,-5,0,-2
1532467580963,-2,-2,-2,-2,-5,-7,-6,-3
1532467580968,3,-2,1,2,-1,4,0,11
1532467580973,1,2,1,3,5,3,-4,7
1532467580978,-1,-1,-4,1,3,-5,5,1
1532467580983,-2,-1,-3,-8,1,2,-5,-3
1532467580988,-5,-4,-4,-6,-4,-3,0,-1
1532467580993,1,0,4,4,-3,3,1,1
1532467580998,-1,0,1,-2,-2,-1,-9,-12
1532467581003,3,1,0,-2,-2,3,3,6
1532467581008,-2,-1,1,1,2,-7,-6,-5
1532467581013,-2,-1,0,-1,0,-7,5,1
1532467581018,-4,-4,-2,-1,0,-7,-1,-7
1532467581023,1,2,-2,0,-1,4,3,6
1532467581028,1,-2,-2,-1,5,16,-7,-1
1532467581033,-3,0,-3,-3,-14,-20,-8,-1
1532467581038,1,0,-1,-1,2,5,15,1
1532467581043,-2,-2,-2,-3,-2,-5,-7,-3
1532467581048,-1,0,-2,-2,0,-1,5,6
1532467581053,-1,-1,1,0,5,9,27,-1
1532467581058,-3,-2,0,5,4,-11,-27,-12
1532467581063,0,1,-3,-4,-5,-9,-4,2
1532467581068,1,0,-3,-6,-8,-2,3,-1
1532467581073,2,2,3,1,2,-5,-8,3
1532467581078,-2,0,1,1,1,9,10,3
1532467581083,1,-1,0,2,2,-1,0,2
1532467581088,-2,-1,-1,1,-2,-2,-15,-12
1532467581093,2,-1,-2,-3,-4,7,15,2
1532467581098,2,0,0,1,6,-1,-8,-2
1532467581103,-3,-3,-3,2,4,1,-2,-1
1532467581108,-5,-5,-6,-8,-12,-9,6,-3
1532467581113,-2,-4,-3,-4,-4,-5,-14,-9
1532467581118,1,1,1,-4,-4,4,12,7
1532467581123,-3,-1,1,-1,3,-1,-1,0
1532467581128,-2,-1,1,4,4,0,0,-11
1532467581133,0,0,-3,-2,-3,0,0,-1
1532467581138,0,1,-1,0,-6,-3,-4,-4
1532467581143,-1,1,2,1,-4,-5,-2,-6
1532467581148,-3,-2,1,6,6,3,6,0
1532467581153,-4,0,0,3,5,4,-13,-9
1532467581158,8,1,-3,-4,-3,0,3,6
1532467581163,-16,-4,2,4,6,6,0,3
1532467581168,-1,-1,-3,-5,-5,-4,-15,-2
1532467581173,3,0,-1,0,2,3,7,13
1532467581178,-1,-2,-1,1,-3,-2,-5,-5
1532467581183,8,3,-4,-6,-8,-3,2,3
1532467581188,0,2,-3,-3,-1,-2,2,5
1532467581193,-6,-5,4,5,4,2,-8,-5
1532467581198,9,2,0,1,-1,2,5,23
1532467581203,1,-4,-2,-2,-6,-3,2,-2
1532467581208,-5,-1,0,-1,1,-4,-3,-11
1532467581213,2,2,-2,1,0,-5,-5,-12
1532467581218,-5,-2,0,-1,-5,-6,-15,-15
1532467581223,-2,-1,-2,-2,2,3,1,3
1532467581228,3,0,-4,-6,-4,0,-4,2
1532467581233,-4,-1,-2,-1,-9,-8,-8,-9
1532467581238,-5,-1,-2,-2,4,-5,17,-12
1532467581243,4,0,2,1,4,1,-1,3
1532467581248,-2,-2,-1,0,1,1,8,-12
1532467581253,1,0,-4,-7,-2,4,9,2
1532467581258,-4,-3,-2,-4,-9,-8,-17,-8
1532467581263,1,1,3,4,7,-1,-8,-13
1532467581268,-1,-2,0,-3,-14,-17,3,-1
1532467581273,-2,-2,-4,-6,-8,-16,-2,-4
1532467581278,-1,-2,-3,-3,-3,-2,6,6
1532467581283,2,0,-1,-1,7,20,27,18
1532467581288,2,-1,-1,-1,3,-5,4,13
1532467581293,1,-1,1,0,-5,16,13,-1
1532467581298,-4,-1,1,3,5,-2,5,-12
1532467581303,-1,0,0,1,-6,-17,-16,-1
1532467581308,-3,1,1,2,4,9,7,-10
1532467581313,5,2,-1,0,0,3,-19,21
1532467581318,1,-1,1,0,2,8,-13,11
1532467581323,-4,-1,2,3,-2,1,-13,-22
1532467581328,-2,-2,2,3,7,-1,3,-27
1532467581333,4,-2,-3,-6,-2,0,0,5
1532467581338,4,1,-1,-1,1,7,-1,9
1532467581343,0,-2,-2,-2,-8,1,4,-3
1532467581348,0,-1,-2,-1,-7,-10,-26,-16
1532467581353,-6,-1,5,6,9,-6,7,-2
1532467581358,-4,1,3,4,2,-5,-6,-36
1532467581363,4,0,-4,-7,-10,-1,8,15
1532467581368,-2,-2,-2,-3,-3,-2,0,-17
1532467581373,-2,-1,0,0,1,-3,-8,-67
1532467581378,-2,-2,-4,-7,-10,1,5,-73
1532467581383,-1,1,1,2,3,-1,-6,-76
1532467581388,-4,-3,-1,-3,-3,-12,-8,66
1532467581393,-2,-2,-1,1,7,6,-8,53
1532467581398,-2,-3,-3,-2,-4,-3,-8,84
1532467581403,-2,-2,-2,-2,0,1,1,55
1532467581408,-5,-2,1,-1,-2,-6,0,36
1532467581413,-1,-2,-1,1,7,17,-5,39
1532467581418,-2,0,-2,2,11,-9,-1,30
1532467581423,-1,-3,-2,-4,-20,-8,-10,10
1532467581428,3,0,1,1,-2,0,20,23
1532467581433,-3,-2,-2,0,0,-7,1,6
1532467581438,-1,-1,-3,-3,-6,7,6,9
1532467581443,0,-2,0,2,13,5,6,4
1532467581448,1,0,1,-2,0,1,-7,2
1532467581453,1,1,-1,-2,-3,4,5,-2
1532467581458,-1,-4,-3,-3,-2,-1,-7,-5
1532467581463,-2,-4,-4,-4,-1,-9,0,-12
1532467581468,-1,-1,-2,1,-3,-1,-14,-1
1532467581473,2,2,3,3,3,2,6,-6
1532467581478,0,0,1,0,-3,2,-4,3
1532467581483,-1,0,-1,1,4,-3,-8,-9
1532467581488,0,1,1,2,1,1,10,-4
1532467581493,2,-5,-4,-4,-5,-3,-2,2
1532467581498,-12,0,-1,2,-3,-2,1,-2
1532467581503,3,-1,-8,-1,-1,-1,-2,-2
1532467581508,-5,1,1,-3,-1,3,4,0
1532467581513,-2,0,0,-1,-2,-3,4,-5
1532467581518,3,-1,2,0,1,1,-6,-3
1532467581523,1,2,1,4,2,4,12,0
1532467581528,2,-2,-1,-4,-1,-18,-35,6
1532467581533,10,-1,-3,-1,0,8,14,0
1532467581538,-24,-4,-1,-1,-2,-1,-3,-3
1532467581543,0,0,-2,-4,-5,-8,1,0
1532467581548,-1,-2,-1,-1,-1,6,-2,40
1532467581553,3,1,2,-1,-1,-8,-1,106
1532467581558,7,1,2,1,4,5,2,63
1532467581563,-5,-1,-2,0,1,2,-17,63
1532467581568,1,-1,-3,-3,-7,0,5,88
1532467581573,-5,-2,-1,1,6,3,-9,91
1532467581578,4,0,-1,-2,-4,0,3,127
1532467581583,-1,-4,0,-4,-8,-11,0,52
1532467581588,4,3,-2,-1,0,11,-3,124
1532467581593,-4,-1,-1,0,-1,-5,1,0
1532467581598,2,1,-1,1,5,3,-6,-33
1532467581603,3,-1,1,-3,0,-10,-11,-89
1532467581608,0,-3,-1,2,-2,0,3,-103
1532467581613,-7,0,-3,-2,-2,1,-27,-128
1532467581618,6,0,0,2,0,-1,9,-110
1532467581623,1,-1,0,1,13,10,1,-122
1532467581628,-2,-1,0,-3,-12,8,-15,-128
1532467581633,-2,0,1,0,3,-23,-26,-114
1532467581638,4,-2,-4,-5,-7,-10,-5,-106
1532467581643,1,1,4,2,3,9,-9,-27
1532467581648,-3,0,-1,-2,-3,-6,21,-4
1532467581653,2,1,3,-2,-6,-6,9,9
1532467581658,2,0,1,2,4,17,23,-9
1532467581663,-2,0,-1,2,6,2,24,-40
1532467581668,0,-2,1,-2,-1,0,27,-58
1532467581673,-1,-2,-3,0,-4,-2,2,-54
1532467581678,-4,-1,2,1,4,-16,-2,-59
1532467581683,-1,0,-2,-2,-2,-5,1,-22
1532467581688,-3,-2,-1,-1,4,-2,-9,-51
1532467581693,-2,-1,-2,-2,-2,9,-9,-18
1532467581698,2,0,0,0,2,6,18,13
1532467581703,-1,-1,1,1,-2,5,20,29
1532467581708,-2,-1,-4,-3,4,-8,-28,-8
1532467581713,0,0,-2,-3,-5,-6,3,5
1532467581718,-1,-2,-4,-2,-7,-3,-21,10
1532467581723,-2,-1,0,0,4,-5,-8,13
1532467581728,1,1,2,4,-6,4,26,14
1532467581733,-1,1,2,1,5,12,6,13
1532467581738,-1,-2,-3,-4,0,-7,-15,13
1532467581743,0,-1,2,-1,-12,-8,-11,11
1532467581748,-1,-1,-1,-2,3,7,25,7
1532467581753,-2,0,0,0,0,-19,-23,3
1532467581758,0,-2,-1,-1,1,5,1,3
1532467581763,-2,-3,-2,-3,-7,-3,7,17
1532467581768,-2,-1,-2,1,10,2,-17,9
1532467581773,-2,-1,1,0,-12,-1,12,2
1532467581778,0,0,-1,-1,0,-5,0,14
1532467581783,0,0,-5,-4,-2,0,-1,15
1532467581788,0,-2,-3,-2,-15,-23,-27,-7
1532467581793,1,0,-1,-1,10,23,45,-1
1532467581798,0,-1,-1,0,-8,0,2,-2
1532467581803,0,1,0,0,1,3,7,-5
1532467581808,0,0,-3,-2,0,5,-10,-13
1532467581813,0,0,1,1,3,-19,-19,-2
1532467581818,-1,-1,-2,-1,5,-1,-8,2
1532467581823,0,1,-1,0,-1,7,-21,-4
1532467581828,-2,-2,-1,0,3,-4,21,8
1532467581833,-1,-1,-2,-2,-6,11,14,4
1532467581838,0,0,0,-4,-7,-14,-7,-2
1532467581843,-1,-1,-1,-1,-1,-2,-7,9
1532467581848,0,-1,-1,0,5,8,-1,3
1532467581853,0,-2,0,1,3,-9,6,2
1532467581858,0,0,2,3,9,21,-4,4
1532467581863,-1,-2,-3,-1,-11,-22,5,3
1532467581868,1,-1,0,-5,-7,3,10,4
1532467581873,-3,-1,-3,0,5,6,-24,5
1532467581878,1,0,0,0,-2,6,6,3
1532467581883,-2,0,2,3,17,5,5,5
1532467581888,0,-1,-1,2,-4,13,14,4
1532467581893,-3,-3,-7,-6,-16,-17,-15,5
1532467581898,0,-3,-3,-3,1,-5,20,3
1532467581903,-1,-1,-1,1,-4,-5,-23,-6
1532467581908,1,0,3,2,3,-7,-22,2
1532467581913,-2,-1,-5,-5,-18,-2,0,0
1532467581918,-1,-1,-1,0,3,-4,-4,0
1532467581923,-3,-1,0,-2,-6,-17,2,-1
1532467581928,-2,0,-1,-3,2,-5,-6,-5
1532467581933,1,-2,-2,1,0,2,-11,2
1532467581938,0,-1,-3,-3,0,15,9,3
1532467581943,-1,0,-1,1,4,2,-10,2
1532467581948,-3,-2,1,0,-9,4,6,-4
1532467581953,-2,-1,-1,-2,0,-3,-1,5
1532467581958,-2,-3,-3,0,-3,-2,-27,-1
1532467581963,2,-1,1,1,7,1,19,2
1532467581968,3,0,-1,-4,-16,-4,-20,5
1532467581973,0,-1,2,8,13,6,12,-1
1532467581978,-2,1,0,4,6,0,-12,-4
1532467581983,-3,-1,-1,-5,-7,6,-8,0
1532467581988,-1,0,0,-2,1,1,-7,-3
1532467581993,0,0,-1,-2,0,-21,-12,-3
1532467581998,0,1,0,-1,-2,-2,30,-1
1532467582003,0,0,-2,0,1,10,1,-3
1532467582008,0,0,0,1,5,0,11,0
1532467582013,1,0,-3,0,-1,16,22,1
1532467582018,-1,0,-1,1,3,-11,-8,-5
1532467582023,-2,-1,-1,-4,-5,-8,-13,3
1532467582028,0,-3,-1,-1,4,5,3,3
1532467582033,-2,-1,1,0,-5,10,-12,-2
1532467582038,-2,-1,-1,-3,-8,-8,-1,-5
1532467582043,-2,-3,-3,-3,-8,-9,-2,0
1532467582048,-4,0,-3,-4,-6,-2,-15,0
1532467582053,0,0,0,-2,2,-7,2,0
1532467582058,1,0,2,3,6,15,17,3
1532467582063,0,0,0,-2,-15,-28,-16,-5
1532467582068,-1,0,0,3,9,4,7,1
1532467582073,-1,-2,-4,-6,-3,2,-4,-4
1532467582078,0,4,3,3,17,-10,-23,1
1532467582083,0,3,-1,0,-28,12,10,1
1532467582088,0,-2,-1,1,4,-13,11,-2
1532467582093,-2,-1,0,1,1,9,13,-2
1532467582098,0,-1,-2,-3,-7,-11,-5,2
1532467582103,-1,-1,3,1,16,22,-12,0
1532467582108,-1,-1,1,-1,-3,-16,-13,-2
1532467582113,0,0,0,2,-4,3,-13,1
1532467582118,-1,-3,-5,-4,-1,7,0,-2
1532467582123,-1,-2,1,1,6,16,7,2
1532467582128,-3,-1,-4,-5,-8,-41,-21,-3
1532467582133,0,-1,-2,-1,-4,-7,1,0
1532467582138,0,-1,-1,-3,-18,-12,-1,0
1532467582143,-1,-2,-3,-1,3,20,7,-1
1532467582148,-2,0,-1,0,-12,-3,29,4
1532467582153,-2,-2,0,-2,-1,-6,-5,-1
1532467582158,-1,-1,2,0,8,5,3,-2
1532467582163,-1,-2,-3,-3,-3,-12,-14,-7
1532467582168,-1,-2,0,1,-1,19,5,-1
1532467582173,0,1,2,3,1,-9,2,-2
1532467582178,-2,0,-1,0,-2,0,4,-2
1532467582183,-1,-1,-2,-1,6,-14,-12,-2
1532467582188,1,1,-1,0,7,13,13,-1
1532467582193,-1,-2,-1,-2,-5,6,19,1
1532467582198,1,-3,-2,-1,-3,-8,-17,0
1532467582203,0,-1,-3,2,-3,-13,4,2
1532467582208,0,-1,-1,0,4,9,-1,0
1532467582213,-2,1,1,-2,-9,-11,2,0
1532467582218,-1,-1,-2,-2,-1,6,-1,-3
1532467582223,-1,0,1,1,4,12,18,2
1532467582228,-1,1,-1,0,-4,-8,-16,0
1532467582233,0,-3,1,2,7,13,24,5
1532467582238,-3,-3,0,1,7,-1,-3,-4
1532467582243,0,-1,-3,-6,-18,-8,-1,-1
1532467582248,-1,0,-1,-2,3,-17,-14,-5
1532467582253,-1,0,0,1,6,9,-4,-2
1532467582258,-2,0,-2,-4,-19,16,7,1
1532467582263,0,-1,2,6,17,-4,-13,-1
1532467582268,2,-1,1,-1,-4,-5,1,1
1532467582273,-1,-1,-4,-4,-2,-6,-19,-1
1532467582278,1,-2,-1,-1,2,5,14,2
1532467582283,-2,-1,0,-1,-4,0,-3,1
1532467582288,-2,-1,-2,1,0,4,-13,-1
1532467582293,0,1,0,1,4,-2,1,0
1532467582298,-1,-1,-1,-5,-8,-6,-12,-3
1532467582303,0,2,1,0,7,9,-1,1
1532467582308,-2,-1,0,0,-1,-4,-17,-3
1532467582313,-1,-1,-3,1,-2,-3,-2,-2
1532467582318,0,-2,-1,0,2,-1,1,0
1532467582323,1,-2,-4,-8,-5,18,4,-1
1532467582328,-2,1,0,2,6,-25,-7,-5
1532467582333,-2,-3,-1,-3,2,-1,-1,-3
1532467582338,-1,0,0,2,10,10,4,0
1532467582343,0,-1,1,3,-3,-1,4,-4
1532467582348,-1,-3,-2,-2,0,8,7,4
1532467582353,0,-1,0,-3,-15,-15,-13,1
1532467582358,-3,-2,-1,1,7,-5,11,1
1532467582363,0,1,3,-1,3,13,9,0
1532467582368,0,-3,-6,-4,-4,0,5,1
1532467582373,1,0,1,1,8,-14,-8,2
1532467582378,1,1,-1,-4,-7,11,6,8
1532467582383,0,-2,-1,-1,4,-9,-7,-1
1532467582388,1,1,3,2,-5,1,3,-2
1532467582393,-2,-2,-2,0,3,5,5,-2
1532467582398,-1,0,-1,1,3,-9,-9,-1
1532467582403,-2,-1,-2,0,-2,5,8,-4
1532467582408,0,2,1,-1,7,-4,-14,0
1532467582413,0,-3,-3,-4,-23,-7,3,1
1532467582418,0,0,0,2,5,11,19,4
1532467582423,-1,-1,-2,-1,-2,-4,-13,0
1532467582428,-2,0,1,1,1,9,6,-2
1532467582433,-1,-1,0,3,10,-7,2,-2
1532467582438,-1,-1,0,-3,-11,-6,-2,-2
1532467582443,-1,0,-1,-2,1,-8,-13,-2
1532467582448,1,1,0,1,3,3,0,1
1532467582453,-1,-1,0,3,-3,-4,-6,-3
1532467582458,-1,-3,-3,-3,3,4,-15,-2
1532467582463,3,-1,-2,-1,2,6,21,6
1532467582468,-2,-1,0,-2,-4,-1,-2,-2
1532467582473,-1,1,-1,1,7,2,-10,-1
1532467582478,-2,1,1,2,-6,-9,7,0
1532467582483,-1,-1,-4,-3,2,8,-12,-1
1532467582488,-1,0,-3,-1,-8,-7,-4,-2
1532467582493,-1,-2,-1,-1,3,-1,1,-4
1532467582498,0,-2,1,2,2,7,6,2
1532467582503,0,-1,0,-1,-1,-12,-3,0
1532467582508,-1,-3,-3,-2,-2,-19,4,-3
1532467582513,-1,-1,0,0,4,26,-2,0
1532467582518,-1,-1,-3,-3,1,11,5,0
1532467582523,-1,0,-1,-3,-10,-18,-13,-3
1532467582528,-1,0,2,-1,4,-2,-2,0
1532467582533,-1,-3,-5,-1,-4,-2,-7,1
1532467582538,0,1,1,2,3,9,12,1
1532467582543,0,-1,1,0,-1,5,2,-3
1532467582548,-1,-5,-4,-3,-9,5,-1,-1
1532467582553,-1,1,0,-1,2,-14,0,0
1532467582558,-2,-2,-1,-2,-5,-3,3,-1
1532467582563,-1,0,1,2,15,-11,-15,-2
1532467582568,-1,-1,1,0,-8,16,24,0
1532467582573,0,-1,-2,0,0,0,-2,1
1532467582578,1,-1,-2,-3,6,1,-11,-3
1532467582583,-1,-1,0,-1,0,2,2,0
1532467582588,1,0,3,1,-2,-12,-8,-1
1532467582593,-3,-2,-3,-1,-1,-3,0,-2
1532467582598,-1,-2,1,3,3,2,-1,0
1532467582603,0,1,-1,0,-3,4,5,0
1532467582608,0,-2,-1,-1,3,-2,-19,-2
1532467582613,1,-1,1,-2,-7,-2,14,-4
1532467582618,0,0,-1,-1,-2,6,-2,4
1532467582623,1,-1,-1,2,0,-9,-3,0
1532467582628,0,-2,-2,2,-1,0,1,-1
1532467582633,-1,0,-2,-7,-6,1,6,0
1532467582638,-2,-1,-2,-1,-2,-11,-19,-2
1532467582643,0,0,-2,-3,-1,10,15,4
1532467582648,-1,0,1,1,0,-5,-6,-4
1532467582653,0,-1,-1,1,-5,1,3,7
1532467582658,1,0,0,-1,7,5,-2,-4
1532467582663,-2,-1,-2,-1,8,-3,2,1
1532467582668,-2,-1,2,2,-8,-8,-2,-3
1532467582673,0,0,-1,0,-13,-9,-1,-2
1532467582678,0,-2,0,-1,5,8,-1,0
1532467582683,-1,-1,2,4,1,-7,-4,-2
1532467582688,1,0,-4,-4,4,5,1,-1
1532467582693,-2,-1,-1,-2,2,-5,-3,-2
1532467582698,-1,-1,-4,-1,-4,-7,-4,0
1532467582703,-2,3,-1,-2,-8,4,1,-1
1532467582708,-2,-8,-3,-3,-3,-4,12,-2
1532467582713,1,0,-1,0,4,4,-4,3
1532467582718,-1,-1,-1,-1,-4,0,-2,-1
1532467582723,-1,-1,-3,-5,-6,-5,0,-2
1532467582728,0,4,2,0,-2,6,1,3
1532467582733,-1,-1,1,-1,6,0,2,-2
1532467582738,1,-3,-2,0,0,-8,-9,-2
1532467582743,-1,-2,-2,-2,-9,-1,3,-5
1532467582748,0,0,0,-1,-2,3,0,1
1532467582753,0,-2,1,1,1,2,-16,-4
1532467582758,1,1,1,2,9,-1,-4,-1
1532467582763,-1,-2,-6,-8,-20,-17,0,2
1532467582768,-1,2,-1,-2,-2,1,1,0
1532467582773,-2,-2,-1,-1,0,2,5,0
1532467582778,0,-1,0,-1,1,4,6,-1
1532467582783,0,-1,2,4,6,7,10,2
1532467582788,-1,-1,-1,-2,6,4,7,0
1532467582793,0,1,-2,-3,-3,-10,-15,-3
1532467582798,4,4,-1,-1,-7,1,21,-2
1532467582803,-9,-3,1,1,4,5,-7,0
1532467582808,2,0,-1,4,-2,5,-4,-1
1532467582813,-2,-1,-4,-2,1,-10,-4,0
1532467582818,-2,-1,-3,-5,-6,-2,4,-1
1532467582823,3,1,1,-4,2,2,8,-2
1532467582828,-1,0,1,1,4,3,-8,3
1532467582833,-2,0,1,3,2,-5,-16,-8
1532467582838,0,-2,-4,-1,-8,-4,6,7
1532467582843,0,-2,-1,-4,1,2,-4,-3
1532467582848,-1,0,-2,-1,-1,-3,-14,-3
1532467582853,3,-2,-1,1,-3,-8,21,-1
1532467582858,-4,-1,0,1,2,5,4,-4
1532467582863,-2,-5,-3,2,6,6,0,-6
1532467582868,0,-1,-2,-4,-8,-8,2,4
1532467582873,1,1,-1,-6,-6,2,-8,-6
1532467582878,0,0,3,1,-2,-5,19,14
1532467582883,-1,1,-1,4,6,6,-3,-8
1532467582888,-1,0,-2,-2,-6,2,0,-3
1532467582893,-3,-2,-2,-2,0,2,0,-10
1532467582898,-1,-1,-1,0,-1,-1,-5,3
1532467582903,4,0,0,-1,-1,-1,-3,9
1532467582908,1,1,-1,-1,2,-2,0,-2
1532467582913,-1,-1,-1,1,-2,1,7,6
1532467582918,-4,-1,-2,-1,-1,3,-20,-8
1532467582923,-3,-1,0,0,2,-2,12,1
1532467582928,-2,-2,3,1,0,-3,-8,-2
1532467582933,0,-1,-3,-3,-4,4,10,-1
1532467582938,-1,-1,0,-2,2,-1,0,-1
1532467582943,0,-1,0,2,0,4,10,2
1532467582948,-1,-2,3,3,8,3,-15,-5
1532467582953,-1,-1,-4,-3,-9,-11,-7,0
1532467582958,-3,-1,-5,-5,-1,-4,4,1
1532467582963,-1,-1,-2,0,4,1,-5,0
1532467582968,-1,0,-2,-2,-4,-3,-4,-3
1532467582973,0,0,0,1,1,5,-2,-1
1532467582978,-1,-2,1,0,2,0,-8,-2
1532467582983,0,-1,0,0,0,1,1,3
1532467582988,-1,0,0,0,1,-5,0,-3
1532467582993,1,0,0,-1,1,2,3,-2
1532467582998,1,-1,-3,-2,-6,-4,0,6
1532467583003,1,-2,-2,-4,0,-1,2,0
