1532373640479,-10,-10,-4,-2,10,24,-1,-4
1532373640484,-1,-4,-1,-5,-8,1,-13,-1
1532373640489,-3,-3,1,-1,-3,-3,-9,1
1532373640494,1,2,-2,1,8,14,0,-1
1532373640499,-3,5,-1,-6,-9,-14,10,8
1532373640504,9,-2,-5,0,-2,23,-6,-10
1532373640509,3,1,-1,2,4,-17,-12,1
1532373640514,-2,-4,-6,-6,-11,-8,-11,-1
1532373640519,16,-1,-2,4,-1,-54,-3,0
1532373640524,-10,-5,3,-3,10,5,2,0
1532373640529,4,-7,0,-1,-7,-17,17,4
1532373640534,-2,-4,4,-1,8,11,38,-6
1532373640539,5,-1,-1,0,-8,-16,33,-1
1532373640544,3,-3,2,2,-2,0,-4,-1
1532373640549,-1,0,-2,0,0,2,-21,-1
1532373640554,6,3,3,3,-6,-13,-24,0
1532373640559,5,3,1,-2,1,5,-30,1
1532373640564,-1,5,-2,-3,-9,-6,-12,-1
1532373640569,-4,5,1,2,17,4,-4,-1
1532373640574,-11,-1,1,-3,0,7,-18,-2
1532373640579,-10,-6,-2,-2,-8,7,-10,-2
1532373640584,-3,-3,-2,2,-6,15,1,-2
1532373640589,-4,-3,-3,-2,1,-22,7,-5
1532373640594,2,-4,-7,-7,-17,1,-4,-3
1532373640599,-2,-1,0,-3,-6,-4,-13,0
1532373640604,-3,-5,-2,2,6,13,-17,-1
1532373640609,3,-6,1,-1,-16,-24,9,1
1532373640614,-1,-4,-8,3,10,16,-10,-2
1532373640619,-7,1,0,-4,-8,-2,-34,-2
1532373640624,-2,-1,-1,-1,5,21,-23,1
1532373640629,0,0,3,1,-6,-6,-20,-1
1532373640634,4,-2,2,2,4,-18,-10,-1
1532373640639,3,-7,0,2,3,10,13,-4
1532373640644,1,0,-2,-3,2,3,15,-3
1532373640649,-1,-3,-6,1,1,5,8,-4
1532373640654,-13,2,-4,-1,-2,6,11,-1
1532373640659,0,-5,0,13,49,33,-3,-1
1532373640664,1,-3,0,-4,-14,-12,-9,-5
1532373640669,3,2,1,-6,-3,-3,-2,-1
1532373640674,2,1,3,-1,4,12,-11,0
1532373640679,2,2,-2,-8,-25,-14,-10,-1
1532373640684,2,5,-4,0,0,-5,-9,-3
1532373640689,1,1,0,3,4,9,4,-2
1532373640694,-2,-5,-1,0,-8,-4,2,0
1532373640699,-16,-5,-2,-4,-7,-6,-1,0
1532373640704,4,-5,0,1,4,-2,6,-2
1532373640709,7,2,0,-1,-5,-9,2,-3
1532373640714,17,-1,-1,3,-1,6,1,-2
1532373640719,6,0,-1,4,5,-4,5,1
1532373640724,-8,2,-1,-2,-1,-5,1,1
1532373640729,2,-1,2,-1,-7,-11,26,-1
1532373640734,-5,-3,-6,-3,-5,6,8,-1
1532373640739,-7,-3,-2,-6,-8,-7,38,-3
1532373640744,-4,-3,0,4,7,9,20,-1
1532373640749,2,-2,-2,0,-10,-8,-11,-3
1532373640754,-5,-2,4,0,3,-6,-30,-3
1532373640759,-3,-1,0,0,-3,3,0,0
1532373640764,3,9,3,-2,-3,-4,43,2
1532373640769,-4,2,-2,-2,-6,2,18,-6
1532373640774,-5,2,-3,-2,-8,-26,8,2
1532373640779,-2,1,-2,-4,2,-1,-7,-6
1532373640784,0,1,3,1,8,7,6,-4
1532373640789,12,-4,0,4,-9,-3,-2,1
1532373640794,-5,-6,0,-2,-2,-12,-5,0
1532373640799,1,-1,-2,-2,4,-8,-9,0
1532373640804,11,-3,-1,-3,-2,-2,-13,2
1532373640809,3,1,5,-1,-2,-6,-3,0
1532373640814,5,3,2,1,1,1,-4,0
1532373640819,8,1,-4,-2,-9,-8,1,2
1532373640824,9,-2,-5,2,-4,-2,5,-2
1532373640829,-4,0,-4,-1,-16,-11,8,0
1532373640834,5,1,2,1,17,3,6,-2
1532373640839,-7,1,-2,-3,-4,-1,13,0
1532373640844,-11,3,1,-1,2,-8,7,-3
1532373640849,6,0,1,-4,-8,1,1,-1
1532373640854,10,-4,-2,-4,-6,-11,-5,-6
1532373640859,14,0,4,4,-1,7,5,2
1532373640864,0,1,-4,-3,1,0,-3,1
1532373640869,-5,-2,-3,0,2,0,11,-1
1532373640874,-4,7,-4,-4,-1,4,1,1
1532373640879,4,-3,0,-2,-6,3,0,-3
1532373640884,7,-4,3,1,3,-9,-3,3
1532373640889,-7,-3,-1,-2,-3,-2,-2,-1
1532373640894,-6,2,-1,1,3,2,-15,0
1532373640899,-5,1,-3,-4,-3,-1,-5,1
1532373640904,1,-2,-1,1,-3,1,4,-1
1532373640909,2,1,-1,-1,-14,-15,10,-3
1532373640914,3,-1,-2,-4,11,15,0,-3
1532373640919,-5,3,2,4,-9,-9,-10,1
1532373640924,-8,0,-2,-1,-5,-5,-1,-1
1532373640929,4,-2,0,2,2,-2,-3,1
1532373640934,-3,-7,-5,1,-9,-2,1,-3
1532373640939,0,-2,-2,1,7,2,-15,-4
1532373640944,-1,-4,-1,-2,-2,-3,-14,0
1532373640949,2,0,-4,-6,-7,-10,-4,1
1532373640954,-2,-2,-2,3,11,9,-2,-2
1532373640959,3,5,-1,-2,-2,0,-9,-2
1532373640964,0,1,2,-1,-4,-3,-5,-2
1532373640969,7,-1,-2,-1,0,-1,1,-2
1532373640974,-3,-6,-7,-6,-6,-1,0,-2
1532373640979,-7,-9,0,-1,0,2,-3,0
1532373640984,-5,-5,-4,1,-5,-7,-12,-1
1532373640989,-4,1,-1,-2,10,6,-3,-2
1532373640994,-1,4,4,6,-2,5,-9,1
1532373640999,3,1,0,3,3,6,-13,1
1532373641004,-2,3,1,-4,-2,4,-1,1
1532373641009,2,1,1,-2,-3,-5,-19,-1
1532373641014,2,2,-1,2,-4,-6,-4,0
1532373641019,-5,0,2,-2,2,4,2,-2
1532373641024,-1,-2,-1,2,-3,0,9,-3
1532373641029,-3,-2,0,2,2,1,13,-1
1532373641034,2,-4,-3,1,-1,-1,11,-2
1532373641039,-1,-5,-3,-4,9,-2,-4,-2
1532373641044,2,1,0,1,-1,-2,20,2
1532373641049,4,1,0,-3,2,-2,29,-3
1532373641054,1,-4,0,-2,-3,-7,14,1
1532373641059,-3,-6,-1,1,2,5,-16,1
1532373641064,-6,2,-2,-4,-12,-6,-12,2
1532373641069,3,1,-3,-1,2,7,1,0
1532373641074,-2,4,1,-1,-3,-5,-18,-2
1532373641079,0,1,0,-1,5,0,-9,-1
1532373641084,3,5,2,4,16,13,-4,0
1532373641089,-1,2,-2,0,2,-5,-15,-2
1532373641094,-6,-3,-1,-3,2,-4,-7,-3
1532373641099,-6,-5,0,-2,-4,-3,-3,-1
1532373641104,-2,-3,-2,2,-5,-6,-5,-5
1532373641109,-3,-1,1,2,1,12,1,-5
1532373641114,-1,1,3,-2,-7,1,-10,-4
1532373641119,-3,-1,22,1,-2,-12,12,0
1532373641124,0,1,-43,-4,-3,-6,-2,-7
1532373641129,-16,-5,3,2,-3,-12,-24,-9
1532373641134,4,0,3,0,2,3,-36,0
1532373641139,-2,-1,-5,-1,-4,-1,13,-2
1532373641144,-7,-2,11,-4,-2,-10,-37,0
1532373641149,-2,-2,-2,7,1,12,-21,3
1532373641154,2,7,0,-4,-1,-6,-34,-1
1532373641159,-4,-4,-2,0,-3,-9,-36,-1
1532373641164,1,2,4,-1,1,3,-18,-5
1532373641169,0,-8,-13,-6,3,6,-12,-3
1532373641174,4,3,15,3,-3,-6,17,-1
1532373641179,-2,4,-4,-3,5,4,28,-1
1532373641184,3,3,2,4,-5,0,23,4
1532373641189,-6,-3,-6,-3,-4,-7,2,-1
1532373641194,3,-5,2,-1,1,-4,-11,-1
1532373641199,-4,-3,-7,-1,3,7,2,-3
1532373641204,-4,-4,1,-2,0,-6,12,-1
1532373641209,1,5,-12,1,6,3,-2,-1
1532373641214,1,-3,2,6,4,4,-10,-4
1532373641219,4,2,8,-2,-8,-13,-8,-6
1532373641224,8,1,-12,-7,2,14,-2,-3
1532373641229,-17,-4,1,1,-1,5,11,4
1532373641234,2,0,-5,-3,-5,-3,0,-22
1532373641239,-4,2,10,2,-4,-8,0,-1
1532373641244,-8,-1,-9,0,8,2,-5,-3
1532373641249,5,-3,1,0,-3,-4,-3,-1
1532373641254,-3,-2,4,-5,0,3,-6,5
1532373641259,1,-1,6,3,14,15,-13,1
1532373641264,0,-2,-3,-3,-6,-9,-1,0
1532373641269,1,-3,-3,-4,-13,-6,-21,1
1532373641274,-3,3,3,5,10,5,-20,-2
1532373641279,-1,0,0,-5,-7,-4,-22,-2
1532373641284,3,-10,-14,-4,0,0,17,1
1532373641289,4,7,10,1,0,-4,68,3
1532373641294,0,-19,-10,-5,-7,2,26,3
1532373641299,1,15,16,1,-1,-1,-31,0
1532373641304,-3,-4,-28,2,2,4,-54,-3
1532373641309,0,3,13,-5,-2,-1,-56,-1
1532373641314,-2,5,-15,0,-3,-7,-34,-2
1532373641319,-5,-5,8,6,2,3,0,1
1532373641324,-4,0,13,-7,-7,-8,-3,0
1532373641329,0,-1,-6,-7,8,16,8,-3
1532373641334,1,2,1,-2,-3,-6,55,-1
1532373641339,-2,-9,-5,-1,0,-1,44,-1
1532373641344,-2,3,10,9,4,3,25,0
1532373641349,-5,-3,3,-1,-2,-4,-14,-2
1532373641354,4,-6,-13,-3,-9,-2,-31,-3
1532373641359,4,-2,1,0,1,-4,-6,-3
1532373641364,2,0,-8,-5,5,6,14,-1
1532373641369,3,-1,-8,-1,0,2,-5,-3
1532373641374,3,3,9,6,5,9,-7,2
1532373641379,1,-2,-2,-4,-4,-3,-5,-2
1532373641384,-2,-1,-1,-2,-3,-7,-2,-1
1532373641389,-2,-2,-6,-4,-2,-5,-21,0
1532373641394,-5,0,3,-3,-4,-1,-6,-1
1532373641399,-3,0,-1,0,0,0,3,-1
1532373641404,2,-1,5,1,-2,1,5,1
1532373641409,2,-1,-1,2,1,3,8,-4
1532373641414,2,-4,-1,-4,-5,-6,-2,-1
1532373641419,-2,-4,2,-3,-1,0,3,0
1532373641424,-3,1,2,4,-1,4,0,-1
1532373641429,-2,3,6,1,-2,1,-4,-1
1532373641434,-3,-1,-10,-1,-4,-4,-9,-1
1532373641439,-3,-4,-3,2,1,-4,-4,0
1532373641444,-3,-3,2,-3,-4,-6,-10,-1
1532373641449,0,-2,-5,-3,-4,-6,-7,-2
1532373641454,1,2,0,0,0,0,3,-3
1532373641459,1,2,-1,-1,-1,1,-7,0
1532373641464,-4,0,2,1,1,5,-2,1
1532373641469,-3,2,-3,2,-3,0,6,0
1532373641474,-3,-1,4,-1,-2,-4,5,-2
1532373641479,-2,-1,-5,1,3,3,0,0
1532373641484,-3,-5,1,-1,-1,-2,-4,-1
1532373641489,-5,-4,-1,3,0,-3,4,-1
1532373641494,1,1,4,-4,-3,-2,-2,-1
1532373641499,0,-3,8,1,3,0,1,-1
1532373641504,4,2,-13,-5,-7,-14,-9,0
1532373641509,2,0,-2,3,28,29,-2,2
1532373641514,2,-1,3,0,-1,-3,0,3
1532373641519,2,-2,-1,1,-6,-6,1,0
1532373641524,-2,1,-5,2,-1,0,-9,-1
1532373641529,-2,0,-3,-3,-7,-11,-5,-2
1532373641534,-4,-1,-1,-7,2,4,0,-1
1532373641539,0,-2,-3,-4,4,1,-1,-1
1532373641544,1,1,7,-1,-1,1,-3,-1
1532373641549,2,0,-3,0,-9,-9,-1,-1
1532373641554,0,1,3,4,4,5,-7,0
1532373641559,-1,-4,-3,-1,-8,-5,-1,-1
1532373641564,-3,-3,2,-3,-1,1,0,-4
1532373641569,1,-4,-2,-4,-6,-6,1,1
1532373641574,-1,-2,0,0,-2,-4,-3,-2
1532373641579,-1,1,-3,-1,0,2,2,0
1532373641584,2,4,3,2,0,1,4,-1
1532373641589,0,1,2,-5,-4,-5,2,-1
1532373641594,-1,-1,-6,1,-3,-8,2,-2
1532373641599,-2,4,11,-2,0,0,-6,-1
1532373641604,1,-7,-13,1,1,0,1,2
1532373641609,-1,-2,-1,-5,-8,-1,5,0
1532373641614,-1,0,1,6,4,11,-6,-1
1532373641619,-1,1,-3,-3,-4,-5,-3,0
1532373641624,-3,0,3,0,-1,-1,-6,2
1532373641629,-5,-2,-3,-6,-3,-7,-2,1
1532373641634,0,-2,-2,-4,-8,-13,2,0
1532373641639,4,-1,0,4,11,16,-1,-2
1532373641644,1,0,3,1,-8,-4,2,-3
1532373641649,0,-5,-6,-3,-3,-1,-12,-3
1532373641654,-3,1,0,2,1,2,-1,-1
1532373641659,-1,-1,6,0,-6,-8,5,-1
1532373641664,1,1,-3,-1,-1,-2,54,-1
1532373641669,0,-7,-15,3,0,-1,-24,-3
1532373641674,-3,-2,4,-6,2,-2,-18,0
1532373641679,0,-4,-3,0,-4,-3,-1,0
1532373641684,-2,-3,14,2,-2,0,-4,-4
1532373641689,-1,1,-16,3,0,2,12,1
1532373641694,-1,1,12,2,2,-1,-11,-1
1532373641699,1,-4,-6,-5,-3,-3,-9,0
1532373641704,0,1,-4,-1,0,0,-9,-1
1532373641709,-1,1,9,1,-1,-1,-9,2
1532373641714,-1,0,-4,-4,-7,-9,-1,1
1532373641719,-1,-3,-1,3,10,12,-5,-2
1532373641724,3,2,-4,-4,-10,-9,-9,2
1532373641729,5,4,-1,0,2,3,-9,-3
1532373641734,-1,-2,0,1,2,-2,10,-2
1532373641739,-1,1,10,-2,-2,3,-4,1
1532373641744,-2,-2,-15,-2,-1,-5,-6,-2
1532373641749,-1,2,3,-1,0,1,-7,-1
1532373641754,4,5,12,1,1,2,-6,2
1532373641759,0,4,2,4,-2,-7,-3,1
1532373641764,-1,-7,-12,1,1,6,-2,-2
1532373641769,-3,-3,-1,-12,-7,-5,-3,-1
1532373641774,0,-1,-2,3,2,5,-4,-2
1532373641779,-1,0,4,0,-10,-10,8,-3
1532373641784,0,1,8,4,7,11,-10,-2
1532373641789,-3,0,-7,1,-7,-8,-9,-2
1532373641794,-2,-3,-3,-1,8,7,-9,0
1532373641799,2,-1,-2,-4,-1,-5,-5,0
1532373641804,-1,-2,-2,-1,-4,-2,-6,2
1532373641809,0,0,0,-2,-5,1,-5,0
1532373641814,0,2,0,-2,-2,1,-7,-1
1532373641819,2,-2,4,0,2,0,-11,0
1532373641824,-1,-2,-9,0,1,1,13,-2
1532373641829,1,2,2,1,1,-1,-6,0
1532373641834,-1,-1,-3,2,-3,0,-1,0
1532373641839,-1,-4,-6,1,-3,-3,-6,-4
1532373641844,-4,0,7,-6,2,-2,-14,-2
1532373641849,-2,-2,-2,-1,4,-2,-4,-1
1532373641854,-2,0,-4,-4,0,-2,-8,-1
1532373641859,-2,-2,-3,3,-2,-1,-2,-2
1532373641864,2,3,3,-2,-2,-1,-3,1
1532373641869,0,-5,-2,2,-2,-1,16,-1
1532373641874,2,-2,-1,-1,-8,-2,-10,-1
1532373641879,0,1,-2,-8,-6,2,-2,-2
1532373641884,0,0,3,4,-2,0,-15,0
1532373641889,2,3,25,-2,4,2,-8,-1
1532373641894,1,-3,-36,-1,-1,0,3,0
1532373641899,-4,-1,2,3,-2,-3,1,-2
1532373641904,-2,0,-3,-1,-3,-5,6,0
1532373641909,0,2,-1,-2,1,-2,0,0
1532373641914,-1,-1,20,2,0,-3,-3,-3
1532373641919,3,-3,-17,-5,-3,-1,-5,0
1532373641924,0,0,6,-2,-2,0,-1,-1
1532373641929,-1,0,-4,-5,0,-1,4,2
1532373641934,-1,-2,-1,-1,0,-1,-6,-2
1532373641939,1,-3,-1,-2,0,0,-3,-1
1532373641944,-1,0,-1,-4,-3,-4,-6,-3
1532373641949,-2,0,-1,2,0,4,-10,0
1532373641954,-2,0,-1,1,1,1,0,1
1532373641959,2,-3,0,-4,-7,-9,4,0
1532373641964,0,2,2,-5,-1,-2,87,0
1532373641969,2,-1,-5,2,-3,-9,-51,-2
1532373641974,0,2,4,-3,-3,2,-43,-1
1532373641979,-3,0,-9,-3,1,5,-54,0
1532373641984,-2,0,3,0,-5,-2,-39,-1
1532373641989,1,0,5,3,1,1,-1,0
1532373641994,-2,-3,-1,0,-3,-3,-6,0
1532373641999,-1,-1,-7,-8,0,4,-8,-1
1532373642004,-3,-2,0,-2,0,2,-8,1
1532373642009,0,0,0,3,-1,-2,-16,-1
1532373642014,-2,-2,-2,-2,-3,1,-12,-2
1532373642019,0,0,3,3,0,-1,0,-2
1532373642024,0,0,0,-3,7,1,1,-2
1532373642029,-1,-1,-1,-2,-3,1,7,-1
1532373642034,0,-1,0,-1,1,0,4,-1
1532373642039,-2,0,0,-1,-6,-6,-2,2
1532373642044,-3,-2,1,4,1,0,-7,1
1532373642049,0,-2,1,1,5,3,-3,-2
1532373642054,-4,-3,-5,-3,-2,-1,-4,-1
1532373642059,-2,0,0,1,2,0,-2,-2
1532373642064,-1,-4,-1,-2,3,-2,-4,0
1532373642069,2,-4,-2,-2,-2,2,1,-2
1532373642074,1,2,0,2,1,-1,-3,2
1532373642079,0,1,0,2,-2,-2,-18,-2
1532373642084,-2,0,-2,-2,-1,2,0,-1
1532373642089,-2,-2,-5,-4,-2,-2,-15,-2
1532373642094,-1,0,2,1,2,6,6,0
1532373642099,0,1,-1,-2,-2,-1,-7,-1
1532373642104,1,-1,2,1,-2,-4,-10,-2
1532373642109,3,-1,1,1,-5,-1,-6,0
1532373642114,1,0,2,1,5,-3,-9,0
1532373642119,-1,-2,5,-4,-8,-2,-3,0
1532373642124,-1,1,-7,-1,4,1,-1,-1
1532373642129,-3,-1,-3,1,-3,-2,-3,0
1532373642134,-1,-2,-4,1,1,3,-5,-1
1532373642139,-2,1,0,-5,-2,1,1,-1
1532373642144,0,-1,-1,0,-1,-1,3,1
1532373642149,-1,-2,-2,0,4,1,-3,0
1532373642154,-1,-1,2,-3,1,-1,-5,-2
1532373642159,0,-1,1,3,-2,-4,2,0
1532373642164,-3,1,-2,-4,-1,-3,-2,-2
1532373642169,-3,-2,-3,0,0,-1,3,0
1532373642174,-2,-2,6,-5,-2,-2,-3,0
1532373642179,0,-3,-9,2,2,1,4,1
1532373642184,4,-7,-2,-2,-2,1,-2,2
1532373642189,3,-1,-2,2,2,1,1,0
1532373642194,-3,-1,0,-4,-6,-2,-1,-1
1532373642199,3,-3,-12,-4,-4,-2,1,-3
1532373642204,6,4,5,2,-1,0,13,1
1532373642209,-10,-6,6,11,2,-3,-12,-4
1532373642214,-4,5,-8,-16,-4,0,-5,2
1532373642219,-2,-1,-4,4,4,4,-17,-2
1532373642224,0,-4,3,-2,-2,1,-10,-1
1532373642229,1,-2,-23,1,1,3,-4,2
1532373642234,-3,4,4,0,-2,0,-1,-1
1532373642239,0,-2,-1,-3,-2,-3,-1,-4
1532373642244,-2,2,4,0,-4,0,-49,-1
1532373642249,2,0,1,-3,-3,-4,-68,1
1532373642254,2,-3,0,7,-1,-2,-94,0
1532373642259,2,2,-2,-2,1,3,26,1
1532373642264,-2,-1,4,7,6,1,60,0
1532373642269,-1,-3,-2,-14,-3,-6,64,0
1532373642274,-1,-1,4,5,4,5,34,-2
1532373642279,1,2,6,-6,-3,0,-1,0
1532373642284,-3,-5,-16,2,0,-1,-11,-3
1532373642289,2,2,5,-4,-1,-1,-26,-3
1532373642294,-1,-3,0,1,-1,-2,-30,-1
1532373642299,2,-1,5,5,-2,-1,-40,0
1532373642304,-1,0,-4,-4,-1,1,-24,-2
1532373642309,1,0,0,-6,-5,-4,-102,2
1532373642314,-1,-2,-4,0,-4,-6,-12,-4
1532373642319,-1,1,2,1,1,3,-35,-1
1532373642324,-3,0,-5,-3,-3,-1,-20,1
1532373642329,-1,-3,-4,2,-1,-2,31,-3
1532373642334,-1,-3,9,-3,-1,-1,28,1
1532373642339,1,-1,-10,-3,-1,-3,39,0
1532373642344,0,-2,-8,1,-2,-1,47,-3
1532373642349,-1,-2,3,-3,-1,2,73,-1
1532373642354,0,4,4,4,0,2,59,2
1532373642359,-1,-1,-9,-3,0,-1,40,-1
1532373642364,-2,1,8,0,1,0,11,1
1532373642369,-1,-4,-10,1,-1,-2,21,0
1532373642374,0,-2,-4,0,1,-2,22,0
1532373642379,-3,0,1,-1,8,3,9,-2
1532373642384,-1,2,8,-1,-2,-1,-5,-1
1532373642389,1,0,2,0,2,0,7,-2
1532373642394,0,0,4,2,0,1,-1,-1
1532373642399,-1,-3,-7,2,-2,-4,-20,0
1532373642404,-1,0,5,-4,-4,-3,-19,-2
1532373642409,1,4,-8,-5,-2,0,-6,-2
1532373642414,-2,0,3,-1,-2,-1,-15,0
1532373642419,-2,0,-4,0,-3,-1,-10,-2
1532373642424,-1,-1,-1,-2,2,3,8,-2
1532373642429,-1,-1,-3,-1,-5,-2,-6,-2
1532373642434,1,0,1,-1,-1,1,-4,-2
1532373642439,0,1,6,-1,2,3,10,-4
1532373642444,1,0,3,-3,1,-5,-9,-1
1532373642449,2,-11,-10,0,0,-1,-2,0
1532373642454,-4,7,-4,-1,-4,0,-2,-1
1532373642459,-5,0,0,2,1,1,-3,0
1532373642464,0,-2,1,-2,-4,-6,5,1
1532373642469,0,4,8,4,0,-4,0,-2
1532373642474,1,-5,-12,-2,2,4,-6,-1
1532373642479,0,-6,7,-5,-4,0,-12,-1
1532373642484,-2,0,-8,2,-4,1,-9,-1
1532373642489,-3,0,7,0,1,-1,-13,-1
1532373642494,-1,-2,-4,1,-1,-3,-12,-1
1532373642499,0,1,3,1,0,0,5,1
1532373642504,-1,-4,-1,2,-2,-4,-14,-3
1532373642509,-2,-1,-1,-3,-3,0,-8,-1
1532373642514,-2,-10,8,-1,-2,0,-4,-2
1532373642519,3,3,-21,-1,-2,-2,-4,3
1532373642524,-1,-2,7,-3,-1,-4,-2,-3
1532373642529,0,-2,-8,2,2,1,-4,-1
1532373642534,1,0,3,-3,-5,-3,2,-1
1532373642539,-1,-4,2,-1,-1,0,8,-2
1532373642544,1,0,-4,-2,-3,-7,12,1
1532373642549,-1,-3,-1,1,6,13,-10,0
1532373642554,-1,3,-3,-2,0,-4,-5,0
1532373642559,-2,-2,1,-1,-1,-2,-8,-1
1532373642564,-1,1,-3,0,-5,-1,-4,-1
1532373642569,1,-1,2,-6,-5,-3,1,0
1532373642574,1,2,0,1,0,-3,0,0
1532373642579,-2,2,13,-1,2,2,-5,-3
1532373642584,-1,-3,-13,1,-6,-7,-3,-1
1532373642589,-1,2,-3,-4,5,2,10,-1
1532373642594,-1,4,4,-2,-1,8,-6,2
1532373642599,-16,-9,-2,-2,-1,-1,-6,-5
1532373642604,19,4,4,-5,1,-6,-2,2
1532373642609,3,-3,-3,0,-11,-4,-7,2
1532373642614,-14,-2,-1,2,2,-10,3,-2
1532373642619,2,3,15,3,0,9,6,0
1532373642624,-11,-3,-7,0,0,2,-5,0
1532373642629,-7,-3,-18,-6,-4,-4,7,6
1532373642634,4,1,1,-1,-1,0,5,0
1532373642639,4,1,6,0,0,5,9,2
1532373642644,0,-10,-7,3,4,5,-1,0
1532373642649,-7,4,0,-1,-1,3,-2,0
1532373642654,-9,7,23,0,-2,6,-7,-4
1532373642659,9,-11,-23,-3,0,-8,28,-3
1532373642664,-24,1,-9,2,4,-1,31,0
1532373642669,19,-3,2,-2,-14,-9,20,-7
1532373642674,-4,0,2,8,7,6,21,-2
1532373642679,-12,-5,-4,-4,10,12,-16,-9
1532373642684,7,3,5,-1,-12,-15,-45,3
1532373642689,5,-1,-3,-5,-4,1,17,4
1532373642694,-18,-4,-1,2,2,6,26,-1
1532373642699,4,-1,-1,-2,-4,-6,24,-8
1532373642704,2,-3,0,-1,6,7,10,9
1532373642709,-7,-4,2,6,6,44,58,-17
1532373642714,19,0,-2,-7,0,-3,64,19
1532373642719,1,1,-3,-5,2,8,-52,-5
1532373642724,-17,-7,-1,2,2,4,-53,-1
1532373642729,8,4,0,-1,-5,-24,-52,2
1532373642734,-9,3,2,1,-1,-8,-23,-3
1532373642739,0,0,0,3,3,-4,-20,-3
1532373642744,-1,-3,-5,-6,-9,-4,-76,-6
1532373642749,0,-4,-1,-7,-6,-17,-70,-9
1532373642754,-4,0,4,5,2,3,-35,-4
1532373642759,1,-2,-4,-5,-1,-9,5,1
1532373642764,5,-1,-2,-2,-8,0,-42,-10
1532373642769,-1,-6,-1,2,1,-11,-32,1
1532373642774,10,1,3,-2,-4,10,-29,10
1532373642779,-19,1,-3,2,-6,-6,64,-8
1532373642784,8,-1,-5,-4,1,-30,19,3
1532373642789,-4,-2,-3,-2,-15,-14,-23,9
1532373642794,-12,2,1,-3,9,12,-21,-21
1532373642799,5,-2,3,8,16,58,-91,1
1532373642804,6,0,-4,-1,-13,-63,-58,7
1532373642809,7,-1,-3,-5,2,22,-5,10
1532373642814,0,-5,-1,7,14,22,36,-1
1532373642819,-34,-5,1,-14,-4,-19,-14,-14
1532373642824,24,0,-10,0,-3,-13,112,-14
1532373642829,-4,0,5,3,-3,-15,62,-22
1532373642834,-1,-2,-1,-4,-15,-14,25,3
1532373642839,17,6,8,5,7,-16,-42,21
1532373642844,-12,-1,2,-1,9,36,-100,-13
1532373642849,4,-2,0,-1,-13,-21,-55,1
1532373642854,-8,2,-1,-1,-5,-5,-53,-32
1532373642859,-1,-8,-8,-4,-17,-9,-16,-3
1532373642864,-13,-2,2,7,25,31,-23,-4
1532373642869,22,-1,-6,-4,-1,20,-20,9
1532373642874,11,0,0,-5,-9,15,-6,15
1532373642879,6,1,-10,-13,-28,-48,14,7
1532373642884,-24,-7,-3,6,11,41,-10,1
1532373642889,8,0,0,1,-17,-61,-3,2
1532373642894,-41,-4,0,5,29,38,-76,2
1532373642899,82,7,8,7,1,-17,22,6
1532373642904,18,3,-1,-5,-19,22,50,3
1532373642909,-17,-1,-3,-6,-10,-7,34,-12
1532373642914,9,1,-1,-3,8,-6,68,14
1532373642919,-46,6,-2,-3,12,12,18,-3
1532373642924,-18,-3,2,-3,-8,-19,-2,-8
1532373642929,21,0,1,7,9,38,35,9
1532373642934,-8,-6,-2,2,-5,-24,37,-20
1532373642939,-14,-3,-3,5,17,55,5,4
1532373642944,7,0,-2,-15,-13,-16,0,10
1532373642949,-4,1,-10,1,4,59,25,10
1532373642954,0,0,3,3,4,5,42,-9
1532373642959,14,-5,10,6,22,3,-56,1
1532373642964,-20,2,-12,9,57,55,-48,2
1532373642969,-12,0,3,3,9,38,-54,0
1532373642974,3,-2,-2,-3,-21,-36,-63,-2
1532373642979,1,3,-4,-10,-24,-33,-8,3
1532373642984,1,3,0,-1,-6,6,-3,-1
1532373642989,0,0,4,0,-3,-22,8,4
1532373642994,-4,-1,7,6,55,76,-32,9
1532373642999,-5,-5,-14,3,-17,-20,-9,-7
1532373643004,2,-4,3,-11,-5,15,-5,-2
1532373643009,0,3,1,15,18,41,23,-1
1532373643014,-3,-1,6,-12,-32,-44,-44,-5
1532373643019,-13,-7,-12,1,-3,-15,-21,-6
1532373643024,13,-1,1,-2,-7,-9,-3,24
1532373643029,11,-1,-2,-6,-14,-23,1,-4
1532373643034,-11,-3,-7,-6,6,14,-17,11
1532373643039,-4,2,27,-2,-31,-29,-11,-12
1532373643044,-7,3,-3,7,9,-12,14,1
1532373643049,0,-7,-37,-9,17,9,2,-7
1532373643054,-7,-6,1,6,7,39,-10,3
1532373643059,13,7,-6,-11,-13,-27,-15,11
1532373643064,-2,-8,5,-2,-16,10,-8,1
1532373643069,2,3,10,2,11,-2,-19,-10
1532373643074,2,4,-1,0,-12,-32,-6,9
1532373643079,-5,-4,-4,0,-29,10,8,-23
1532373643084,-5,-1,1,1,5,-2,8,39
1532373643089,3,1,2,-7,-5,-11,-1,-1
1532373643094,1,-2,-3,-1,-4,-18,-4,-3
1532373643099,1,3,1,0,-2,1,2,-2
1532373643104,6,4,0,-3,-7,5,2,-22
1532373643109,-1,-3,-6,-7,2,-4,-17,1
1532373643114,4,0,0,-3,-5,-1,-2,1
1532373643119,-5,-4,1,9,11,17,-18,8
1532373643124,-6,5,4,-3,-11,-29,-15,-20
1532373643129,-2,2,-2,-3,6,19,-10,6
1532373643134,2,-1,-2,-6,-2,-22,-22,3
1532373643139,7,5,0,4,-9,3,-1,-1
1532373643144,-2,1,20,0,11,1,-9,12
1532373643149,-2,-4,-23,4,1,0,9,-8
1532373643154,-9,-7,2,-5,-13,-10,3,-7
1532373643159,11,4,3,2,-2,-22,3,9
1532373643164,-11,-3,-18,-1,7,21,5,-4
1532373643169,6,2,0,-1,-10,4,-3,5
1532373643174,-5,-5,-6,-10,-8,5,1,8
1532373643179,-2,-2,-3,-2,0,-3,7,10
1532373643184,9,-1,3,1,-8,-8,-8,5
1532373643189,-4,0,-3,-6,0,11,19,-4
1532373643194,16,6,8,4,9,10,-8,-6
1532373643199,-16,-6,-10,-2,-9,-20,-15,0
1532373643204,7,-1,8,2,5,13,-29,27
1532373643209,-1,1,-2,1,1,-4,-32,9
1532373643214,0,-10,1,-3,-1,-5,-19,-5
1532373643219,15,5,-9,1,3,18,-18,-12
1532373643224,-23,2,3,1,0,-20,7,-15
1532373643229,-12,1,-4,-1,3,10,-29,-1
1532373643234,4,-4,6,1,-18,-20,-107,3
1532373643239,12,-5,-3,-5,5,1,-70,-5
1532373643244,1,-6,8,-4,-15,-10,14,11
1532373643249,8,0,-11,5,12,53,80,-13
1532373643254,-7,-1,-5,0,-2,-9,16,10
1532373643259,-2,-2,1,0,-2,-5,-39,-9
1532373643264,9,-2,-3,0,1,5,19,10
1532373643269,-10,-1,9,-3,-6,-20,51,-5
1532373643274,5,-3,-9,-1,-5,17,89,-1
1532373643279,-1,1,-1,-2,-3,-7,96,16
1532373643284,-2,0,4,-3,1,3,59,-3
1532373643289,4,-2,-1,8,-1,-8,50,-5
1532373643294,-12,0,-7,-5,-6,-13,54,-7
1532373643299,-9,-2,3,-1,0,-11,54,2
1532373643304,2,1,-1,7,12,13,35,-4
1532373643309,-2,1,-3,-11,-6,-4,-5,-2
1532373643314,1,1,-3,-2,12,12,80,-3
1532373643319,-9,-2,2,-4,-10,-14,100,-6
1532373643324,3,6,17,11,-1,-5,49,-2
1532373643329,-4,-9,-39,-8,-3,-9,29,3
1532373643334,5,1,4,-2,3,0,40,-11
1532373643339,-19,2,-1,0,1,24,54,-3
1532373643344,1,1,-1,-4,5,-21,32,1
1532373643349,7,4,14,5,-3,-5,5,0
1532373643354,-13,0,-4,-3,-2,-10,7,-3
1532373643359,-1,-2,1,4,10,3,8,-2
1532373643364,-1,-2,-5,-12,-7,16,-10,9
1532373643369,2,-1,5,4,1,-10,-15,-6
1532373643374,-3,-2,-5,-2,1,2,-4,-6
1532373643379,3,3,3,0,-4,-2,-12,-7
1532373643384,-2,-4,-6,0,-5,-4,-16,-7
1532373643389,2,2,3,0,-7,-18,7,11
1532373643394,2,1,6,8,12,29,-3,1
1532373643399,6,0,-1,-2,-8,-12,-24,1
1532373643404,-1,-4,-11,-4,3,-3,-9,-14
1532373643409,-5,-1,5,-5,0,21,-17,12
1532373643414,0,1,0,-1,-7,-23,-17,-1
1532373643419,1,-2,1,-1,-1,3,-18,2
1532373643424,-1,0,-9,-3,-8,-8,-24,-3
1532373643429,-6,-4,-1,-4,1,1,-23,-1
1532373643434,3,3,12,-1,2,11,-10,2
1532373643439,15,1,-15,-5,-2,-9,-14,-1
1532373643444,9,-1,2,6,-3,25,-12,6
1532373643449,-24,-3,3,-3,-4,-15,1,-11
1532373643454,0,0,-4,1,0,6,-16,-2
1532373643459,1,-1,4,1,-4,-4,-13,6
1532373643464,-3,0,-3,3,3,9,-13,-2
1532373643469,13,-2,-7,-7,-5,-17,-13,-6
1532373643474,-4,-3,-4,-3,1,24,-7,7
1532373643479,1,4,5,0,1,-1,-6,5
1532373643484,-6,-5,-6,-6,-6,-15,-12,-5
1532373643489,7,-1,3,3,6,9,-8,13
1532373643494,-3,0,-1,6,-2,-17,-36,-21
1532373643499,0,-2,-1,-5,-5,3,-28,-3
1532373643504,0,-1,-1,-3,-7,-5,-113,0
1532373643509,-8,-3,-5,-7,-1,-4,-4,7
1532373643514,0,0,0,2,-2,0,3,-4
1532373643519,2,-2,0,7,3,3,11,3
1532373643524,-2,0,-1,-6,-5,9,-16,9
1532373643529,4,1,-3,-4,-7,-12,-23,-3
1532373643534,-5,1,0,4,9,7,-13,-3
1532373643539,-9,-2,0,-3,-6,-9,-10,-2
1532373643544,5,0,-1,-1,3,13,-5,10
1532373643549,-4,-1,1,5,3,17,5,3
1532373643554,-4,-1,-1,-1,-6,-2,-2,1
1532373643559,1,-3,-5,-2,-2,-13,-7,-5
1532373643564,-1,0,0,-2,-1,7,16,-12
1532373643569,3,0,2,1,0,-10,-8,0
1532373643574,-5,-2,0,2,0,8,5,-4
1532373643579,2,-1,-4,-7,-3,-1,17,1
1532373643584,-3,-2,-1,-3,-9,-3,3,4
1532373643589,8,0,-1,3,2,-11,1,-2
1532373643594,-2,-2,0,0,-3,-6,-8,1
1532373643599,-9,0,1,0,-1,-6,-14,18
1532373643604,-2,1,-2,3,-6,-2,-5,-16
1532373643609,-2,2,0,-7,5,4,20,7
1532373643614,-3,-3,-4,1,-3,4,-16,3
1532373643619,4,-3,-3,-4,-4,-18,-13,-7
1532373643624,-5,0,3,2,5,27,-7,5
1532373643629,7,0,2,7,-2,-20,-17,2
1532373643634,-4,-2,-7,-8,-7,7,0,-4
1532373643639,0,3,0,2,0,4,1,-10
1532373643644,1,-1,2,-1,-3,-15,-6,2
1532373643649,-1,1,2,1,-8,-5,-7,-6
1532373643654,0,1,2,1,0,6,3,-2
1532373643659,1,-2,-6,-5,-7,2,-13,2
1532373643664,-12,-4,-2,-2,4,-5,-10,6
1532373643669,-6,5,3,2,5,25,-3,-5
1532373643674,4,0,1,5,-6,-17,7,-5
1532373643679,-14,-2,-3,-2,4,-6,-1,-2
1532373643684,10,-1,1,-4,-17,-3,9,14
1532373643689,-22,-4,-3,0,0,-10,-8,-8
1532373643694,15,0,-1,-3,4,-8,-1,3
1532373643699,-12,1,0,-1,-2,0,-9,8
1532373643704,9,-1,1,4,3,-14,-1,-10
1532373643709,3,1,-3,-6,-8,-4,-14,-2
1532373643714,-3,-3,-2,2,3,5,-10,-1
1532373643719,11,1,-6,-5,-3,14,0,-1
1532373643724,1,-2,-3,-1,8,11,-26,-3
1532373643729,9,-1,9,1,-3,-9,-4,0
1532373643734,-17,0,-6,0,2,-4,0,4
1532373643739,4,-4,-4,4,-6,-3,3,5
1532373643744,5,-1,-1,-4,0,15,4,-4
1532373643749,4,1,3,-2,4,14,6,9
1532373643754,2,-1,1,-1,2,-2,-7,-8
1532373643759,-14,2,10,3,9,0,0,-3
1532373643764,24,1,-12,6,1,18,8,5
1532373643769,-20,-6,-4,-4,-3,-2,-12,-14
1532373643774,2,2,5,1,4,14,-6,0
1532373643779,3,0,-1,1,-1,-15,-3,-2
1532373643784,3,0,5,-8,-18,-19,-11,-5
1532373643789,5,1,-1,1,15,8,-9,5
1532373643794,4,0,-9,-5,-5,2,-8,4
1532373643799,2,-2,4,0,-5,-12,-8,-18
1532373643804,-1,0,4,3,0,-15,-14,15
1532373643809,-6,0,-2,6,-7,4,-4,-1
1532373643814,21,2,3,-8,1,0,-12,4
1532373643819,-2,0,-5,0,-3,5,-18,3
1532373643824,-9,2,4,-3,-1,-1,-13,-7
1532373643829,-2,-2,-8,-4,-8,-14,-3,-3
1532373643834,5,1,-2,1,4,16,7,6
1532373643839,-14,-4,-14,-2,-4,-33,2,-5
1532373643844,0,-1,10,4,5,13,3,-3
1532373643849,-1,-2,-12,-5,-3,-8,-18,4
1532373643854,-3,-3,4,0,-8,-5,0,3
1532373643859,13,0,-3,-2,-1,-5,-1,-4
1532373643864,-8,-1,3,0,4,-5,-9,-6
1532373643869,2,3,4,3,-6,-21,68,-5
1532373643874,3,1,0,-2,7,13,6,13
1532373643879,5,3,-4,-11,-6,-1,26,0
1532373643884,-12,-5,-5,4,3,7,1,-11
1532373643889,0,1,2,1,1,-10,4,7
1532373643894,-2,-2,3,9,-1,0,-12,-7
1532373643899,2,-2,-2,-10,-9,-4,-21,-2
1532373643904,6,1,-3,3,2,3,-9,4
1532373643909,-6,-4,-2,-4,-1,0,-16,-4
1532373643914,-9,-2,-3,-8,3,-7,-8,-13
1532373643919,4,-1,-8,0,1,12,-14,12
1532373643924,-1,-2,1,8,-2,5,-20,-6
1532373643929,5,0,12,3,2,6,4,4
1532373643934,-6,1,-6,-2,-8,-9,27,2
1532373643939,2,-2,2,-5,0,6,16,-5
1532373643944,-1,-2,-5,1,-3,4,9,-6
1532373643949,5,0,2,-4,-1,3,4,3
1532373643954,-1,-5,-5,3,10,8,-34,0
1532373643959,-3,1,3,-3,-7,-18,-24,-2
1532373643964,-2,-3,0,1,0,-12,-8,-7
1532373643969,0,-3,-3,1,-4,21,-9,-4
1532373643974,-2,3,8,4,2,-5,11,2
1532373643979,0,0,-14,-2,-1,-6,23,4
1532373643984,-25,-1,7,-2,2,16,17,-8
1532373643989,3,-4,-15,-3,-7,-9,7,-1
1532373643994,-5,0,6,0,-7,3,-2,-11
1532373643999,3,-1,-5,-1,-3,-8,-6,-3
1532373644004,4,-1,7,5,6,22,10,12
1532373644009,-2,-4,5,-2,0,-7,6,-12
1532373644014,0,-2,-7,-1,-4,-1,-7,10
1532373644019,-2,-4,-15,-13,-4,-5,-7,-6
1532373644024,5,1,-1,-2,0,-4,-23,-1
1532373644029,-5,-8,-23,6,0,-2,-1,-1
1532373644034,-32,0,2,-4,-8,3,3,7
1532373644039,-5,-3,-4,4,1,8,4,-3
1532373644044,12,0,-2,-2,0,9,9,4
1532373644049,-7,0,-3,1,-6,-15,6,-2
1532373644054,6,-3,2,7,2,-3,4,5
1532373644059,-4,0,-3,-6,2,0,-10,-10
1532373644064,5,-1,-4,-6,-2,-4,-8,1
1532373644069,-13,2,9,4,-7,-6,-9,-14
1532373644074,2,-3,-13,-7,-1,2,-7,-1
1532373644079,2,4,16,8,-2,-7,0,0
1532373644084,3,-7,-10,3,0,11,-4,3
1532373644089,-1,6,1,-8,7,2,-9,10
1532373644094,-3,-4,0,5,-4,0,-13,-7
1532373644099,-7,2,-3,3,-4,-6,-13,-1
1532373644104,3,-1,2,-5,-7,-7,-7,-13
1532373644109,10,-4,-5,-1,-4,-18,9,9
1532373644114,-13,1,5,-1,1,-4,-1,-12
1532373644119,0,-4,-10,-7,-3,-9,-2,-4
1532373644124,-3,0,7,-2,-2,1,4,2
1532373644129,20,-2,-7,6,-1,-8,-1,-3
1532373644134,4,-3,-2,-9,-4,-6,-4,-4
1532373644139,-5,1,22,4,-8,-14,-5,3
1532373644144,8,-4,-17,-1,0,6,6,4
1532373644149,-1,-3,-4,-1,3,10,6,-14
1532373644154,1,1,0,4,1,17,6,1
1532373644159,-8,-9,-1,-3,-7,-9,-7,0
1532373644164,-10,2,7,0,0,18,-13,-7
1532373644169,3,0,-6,6,6,1,-7,3
1532373644174,3,1,1,-9,-10,-19,-16,-4
1532373644179,-3,-3,-18,2,8,10,0,8
1532373644184,-11,2,7,-4,-2,10,-3,-2
1532373644189,3,-5,10,3,2,4,-1,1
1532373644194,-11,8,-18,-4,-2,1,-5,-3
1532373644199,-2,-1,8,1,-9,-21,-4,-2
1532373644204,-2,1,3,-1,-3,8,4,-2
1532373644209,3,-3,-2,1,4,5,-1,0
1532373644214,8,-3,-4,1,3,12,5,6
1532373644219,-13,2,20,3,-4,5,-9,-6
1532373644224,0,-4,-9,-3,0,-1,-11,3
1532373644229,3,-2,-10,-3,-3,2,-10,-2
1532373644234,-1,1,16,0,-7,-22,-1,2
1532373644239,5,4,-16,2,1,14,5,2
1532373644244,12,0,10,7,4,0,-3,2
1532373644249,-5,-3,-7,-10,-2,-6,1,2
1532373644254,2,-9,-2,6,-1,-13,-4,-10
1532373644259,12,10,1,-5,-2,0,-2,7
1532373644264,-9,1,-4,-4,-8,-20,-2,-4
1532373644269,3,2,6,4,8,13,-6,4
1532373644274,-9,-2,-9,-1,-2,-21,-2,-10
1532373644279,-7,-3,25,3,5,44,6,-7
1532373644284,5,-4,-34,-1,-9,-12,2,4
1532373644289,-11,2,2,2,-2,-17,-4,4
1532373644294,1,-3,4,2,22,54,-3,-4
1532373644299,0,-6,0,-6,-8,-19,-8,-2
1532373644304,-3,7,2,5,2,13,1,4
1532373644309,0,-6,-4,-6,-4,6,12,0
1532373644314,3,8,0,2,-4,-19,-8,1
1532373644319,3,-4,-3,0,-4,-6,-9,-3
1532373644324,4,-2,4,-6,-4,-9,9,7
1532373644329,-10,2,22,0,-6,10,-16,-10
1532373644334,9,-3,-27,0,1,-9,-11,13
1532373644339,-10,-2,-9,7,1,9,-4,-5
1532373644344,-2,-8,8,-13,-3,-27,-22,-15
1532373644349,4,10,-1,1,-2,17,-7,6
1532373644354,-10,-4,8,-5,0,-3,4,2
1532373644359,7,-1,-3,-2,-8,-14,0,-3
1532373644364,1,-1,-4,7,4,-2,6,4
1532373644369,1,-4,0,-2,-3,-13,6,-1
1532373644374,2,4,1,0,-7,-6,-17,-6
1532373644379,-3,-2,-6,-1,6,-1,-18,-3
1532373644384,-8,1,7,4,0,5,-14,0
1532373644389,-2,4,-8,-6,-3,-10,-9,-11
1532373644394,7,-3,0,-1,-3,-6,7,9
1532373644399,-3,2,8,1,0,7,13,-5
1532373644404,6,0,-3,-3,5,-9,13,0
1532373644409,-4,-5,-9,5,-1,16,11,-9
1532373644414,-3,-3,-2,-1,-10,-37,13,0
1532373644419,-1,-1,4,-3,20,62,2,8
1532373644424,0,-2,-5,-1,-1,3,-13,2
1532373644429,-4,-3,-5,-2,-6,-17,-8,0
1532373644434,-9,-2,4,-6,0,5,-8,-9
1532373644439,0,0,4,5,-5,-26,-1,1
1532373644444,0,1,-5,3,-1,12,4,2
1532373644449,0,-4,-8,-9,-3,-3,0,5
1532373644454,-2,1,6,3,-4,-1,-4,1
1532373644459,4,1,2,-4,3,0,6,2
1532373644464,0,-2,-10,2,3,1,-62,3
1532373644469,-21,1,-12,-1,-5,-27,33,-8
1532373644474,-7,-3,6,-1,-5,-9,78,-3
1532373644479,-3,0,-5,-12,-6,-8,39,0
1532373644484,2,0,0,-3,-10,12,20,1
1532373644489,10,-2,-5,4,9,-3,-1,-1
1532373644494,0,-1,13,1,-7,-20,-7,1
1532373644499,0,2,-9,5,-1,10,10,2
1532373644504,-1,-2,-3,-2,6,14,11,-3
1532373644509,5,0,-9,1,-8,-10,-18,9
1532373644514,-7,-2,8,-3,-3,-9,2,-3
1532373644519,-24,-1,-2,-2,4,-7,14,-5
1532373644524,5,-2,-2,-1,1,2,13,2
1532373644529,8,-4,6,8,0,-3,-3,-12
1532373644534,-1,-2,-12,-8,-2,13,11,4
1532373644539,-8,-4,-2,-2,-2,-2,-1,-5
1532373644544,-1,5,11,-1,-1,-1,0,-6
1532373644549,0,-6,-11,2,2,4,-39,4
1532373644554,5,-2,2,-6,-6,-14,-33,-5
1532373644559,-2,1,-2,2,0,-6,-4,2
1532373644564,-2,-2,10,-7,-3,4,0,-2
1532373644569,5,4,-7,4,0,-12,10,2
1532373644574,-4,-3,1,2,-2,-3,16,-2
1532373644579,5,-3,-4,-8,-2,-4,9,5
1532373644584,2,1,0,0,-1,-7,0,-14
1532373644589,3,-7,2,1,-1,9,8,8
1532373644594,-5,0,-5,0,-3,-1,-3,2
1532373644599,12,-1,-2,2,-3,-15,4,2
1532373644604,-16,-1,10,0,-6,-5,5,-5
1532373644609,6,-1,1,-7,-5,3,8,-1
1532373644614,-14,-3,2,-1,-4,-7,-6,-1
1532373644619,-2,2,-2,0,-2,-12,-7,-3
1532373644624,-1,-4,-8,-2,1,10,0,-5
1532373644629,0,3,1,2,3,-9,0,1
1532373644634,6,-1,-5,-5,-1,1,3,3
1532373644639,3,-1,9,0,1,-7,-2,-2
1532373644644,4,1,-3,0,-5,-18,-18,5
1532373644649,-22,-1,-3,-2,-3,-8,-12,-14
1532373644654,4,3,11,1,-7,-5,9,2
1532373644659,-4,2,-8,3,8,8,-5,0
1532373644664,6,-14,8,-9,-2,5,3,1
1532373644669,1,8,-19,4,1,-2,3,1
1532373644674,-14,-2,1,-7,-7,-10,-1,0
1532373644679,1,-2,9,3,-6,-1,-1,4
1532373644684,2,2,-4,-1,-2,-4,-6,-5
1532373644689,6,-5,1,4,3,14,2,-3
1532373644694,-2,-3,-2,-7,-6,-13,-8,3
1532373644699,0,1,-6,1,2,13,16,-2
1532373644704,-5,3,5,4,1,-3,-2,2
1532373644709,-2,0,3,-1,0,3,-3,6
1532373644714,6,0,-8,6,2,-8,-4,-1
1532373644719,-1,-4,-3,-6,2,11,-10,-2
1532373644724,-2,-1,-5,-1,-7,-13,-6,3
1532373644729,7,1,2,1,4,19,1,-5
1532373644734,-9,-2,4,-4,-1,0,-12,5
1532373644739,-7,0,2,-6,-3,-1,-12,3
1532373644744,-8,-1,-20,-1,-2,-8,-6,-10
1532373644749,-6,1,4,1,-2,-12,-11,-4
1532373644754,5,0,5,8,2,15,1,4
1532373644759,-3,-1,2,0,-2,0,-1,-7
1532373644764,-1,-1,-5,-1,2,6,15,12
1532373644769,0,-2,0,-13,-5,-8,3,-4
1532373644774,1,0,0,3,-3,-5,6,-4
1532373644779,2,0,10,2,1,-6,-4,-2
1532373644784,2,-1,-14,-7,2,-1,-2,-6
1532373644789,-2,-2,-2,-1,-1,3,-5,-6
1532373644794,-1,-2,-5,-5,-3,-5,-3,2
1532373644799,-1,-1,-3,1,-4,4,-18,8
1532373644804,10,3,1,2,5,-11,3,5
1532373644809,-2,-4,-4,-1,-2,-6,-1,-5
1532373644814,3,-1,11,2,1,5,13,-1
1532373644819,-6,-1,-11,0,-1,13,11,1
1532373644824,7,0,2,1,-8,3,2,-1
1532373644829,-2,3,-3,-4,10,4,4,-15
1532373644834,-4,-3,-3,-2,0,8,7,-3
1532373644839,-4,2,6,5,-2,-12,-1,-2
1532373644844,19,3,16,2,-4,-5,3,4
1532373644849,-5,-3,-22,-3,-4,3,-7,1
1532373644854,0,-2,-2,6,2,8,-1,1
1532373644859,12,-1,-4,-4,-2,-9,14,1
1532373644864,5,3,17,3,-6,11,-5,8
1532373644869,-10,-2,-12,0,0,2,-1,-18
1532373644874,-5,0,3,3,-2,-6,-7,4
1532373644879,1,-1,-1,-4,1,8,-4,-1
1532373644884,-1,0,2,-1,-3,-11,-5,6
1532373644889,4,-1,1,-5,-3,-10,0,7
1532373644894,6,0,1,-1,4,27,-5,0
1532373644899,1,-2,-5,4,-3,-15,-9,-2
1532373644904,-4,-4,5,0,0,16,10,-6
1532373644909,5,2,-4,6,1,-8,-4,9
1532373644914,-6,-1,0,-12,-3,-19,1,-11
1532373644919,0,-1,-2,0,5,25,-4,6
1532373644924,0,1,-2,0,0,-1,-8,-2
1532373644929,1,1,15,-1,-5,2,-3,-17
1532373644934,4,-3,-12,8,4,9,0,-3
1532373644939,-7,-1,-3,-10,-5,-1,-3,0
1532373644944,3,-2,-2,3,-7,-14,0,4
1532373644949,3,-3,-2,-12,4,7,-2,0
1532373644954,0,0,5,5,0,-3,-7,-3
1532373644959,-4,-4,-1,2,1,4,-4,3
1532373644964,5,0,-7,-3,-3,-13,-6,1
1532373644969,-6,-2,3,8,3,3,9,-5
1532373644974,-12,2,-1,-6,-3,-16,-5,3
1532373644979,-4,-1,12,-6,-2,-1,-4,-4
1532373644984,4,-2,-21,-1,-2,-10,-4,-3
1532373644989,-10,-5,-4,-5,-5,1,-5,7
1532373644994,25,1,-1,0,1,-13,8,-2
1532373644999,1,-1,-1,3,-2,-6,-5,0
1532373645004,-5,4,17,5,1,9,-6,5
1532373645009,-5,0,-11,3,-4,-16,-13,-7
1532373645014,0,-3,-2,-4,-2,27,-1,1
1532373645019,-4,2,-1,-10,-4,-8,2,-8
1532373645024,6,1,-2,4,6,3,0,13
1532373645029,4,1,4,5,3,14,7,1
1532373645034,-6,-2,0,1,-7,-16,-5,-5
1532373645039,0,-1,7,-4,-5,-6,1,-6
1532373645044,-7,2,-11,-3,6,-11,-1,-7
1532373645049,8,1,3,1,1,0,-11,9
1532373645054,2,-3,-5,-1,1,-8,-5,6
1532373645059,-14,-1,2,3,0,8,-2,-6
1532373645064,-1,-2,2,-3,-7,-29,10,-7
1532373645069,-1,3,5,-1,5,19,-2,1
1532373645074,-1,-4,-14,-10,-7,-5,-3,-1
1532373645079,6,-1,-4,4,5,5,-5,4
1532373645084,-13,1,3,-6,-7,-4,-3,-3
1532373645089,-9,-2,-1,2,1,4,-9,-4
1532373645094,-5,1,2,-2,-5,-7,-3,-2
1532373645099,2,-3,-8,5,5,25,17,-2
1532373645104,-2,-2,0,-6,-7,0,-4,-7
1532373645109,7,2,17,-3,1,-9,-2,10
1532373645114,-6,4,10,5,-5,18,-8,-9
1532373645119,5,1,-30,0,6,-12,-8,2
1532373645124,-10,-10,8,-3,1,5,-2,-1
1532373645129,10,1,-4,1,-1,4,5,8
1532373645134,-20,-1,1,0,-1,-13,0,-4
1532373645139,16,1,4,-5,-4,-6,2,4
1532373645144,-5,0,3,6,-2,-7,2,-1
1532373645149,-1,-3,-6,-3,-2,4,-9,0
1532373645154,5,0,-3,5,3,9,3,5
1532373645159,-6,0,2,-13,-6,-10,-10,-5
1532373645164,-1,-4,-4,1,2,1,-6,-1
1532373645169,-11,-1,-1,4,0,0,1,4
1532373645174,4,-2,-2,-2,5,11,-2,-14
1532373645179,-6,-1,0,-2,-9,-21,-6,-3
1532373645184,7,2,-2,-4,2,13,2,-2
1532373645189,-5,0,-3,-1,1,1,-2,-3
1532373645194,7,-4,-2,4,-8,-30,-8,0
1532373645199,-4,-1,4,4,-1,3,0,-2
1532373645204,0,-2,-1,-6,0,-22,3,4
1532373645209,-5,2,1,0,1,-14,7,7
1532373645214,7,-2,0,1,2,23,-3,7
1532373645219,3,-3,-2,-2,1,0,4,1
1532373645224,-3,1,2,-4,-7,-15,4,-3
1532373645229,5,1,-2,2,1,15,-8,-2
1532373645234,6,0,-14,-1,-3,-9,-11,4
1532373645239,-1,-4,-6,-1,1,-18,-10,-3
1532373645244,-11,-3,-2,-3,1,-4,-8,-5
1532373645249,-6,-4,10,-2,-3,-2,1,-5
1532373645254,1,3,-3,4,-1,-6,-5,9
1532373645259,7,-5,-6,-8,-4,9,-19,8
1532373645264,8,3,2,10,0,-9,-1,-4
1532373645269,-17,-2,3,-2,2,9,8,-3
1532373645274,5,0,2,-3,-5,-6,-3,-3
1532373645279,-1,-1,5,-2,-7,-7,0,0
1532373645284,-8,-3,-8,-3,-5,5,-1,4
1532373645289,10,-5,-3,1,-1,-9,-5,0
1532373645294,-8,-1,3,-2,-4,-18,-3,2
1532373645299,0,0,-3,-1,4,31,-4,-7
1532373645304,-2,1,3,-1,-8,-20,-6,-1
1532373645309,2,-2,-6,4,10,25,1,6
1532373645314,8,0,1,-5,-3,2,2,-4
1532373645319,-12,-2,0,-5,-5,-16,-7,-8
1532373645324,-5,-1,-3,1,2,15,5,0
1532373645329,-3,0,-3,-5,-3,-7,-5,0
1532373645334,0,3,3,0,2,7,0,-3
1532373645339,1,-4,-4,2,-1,-7,-1,1
1532373645344,2,1,-2,0,-6,7,-5,-4
1532373645349,-1,0,-2,-3,0,-8,-9,-1
1532373645354,3,-1,0,-3,2,4,4,1
1532373645359,2,-2,-2,-2,-4,-13,1,-2
1532373645364,-1,-2,-1,3,4,6,-3,0
1532373645369,12,3,1,5,0,1,-2,0
1532373645374,-27,-5,10,5,2,-4,-13,3
1532373645379,19,-1,-11,-17,-4,-5,-7,-3
1532373645384,-3,0,-8,-1,-5,-5,0,0
1532373645389,0,-2,-4,-4,-5,-9,-10,-2
1532373645394,5,0,0,5,2,14,-10,4
1532373645399,-1,2,7,9,5,5,-7,-2
1532373645404,2,0,2,-1,-5,-7,0,-1
1532373645409,-5,-6,0,-10,-10,-17,10,-11
1532373645414,5,0,-10,3,6,7,13,7
1532373645419,-19,-3,-1,-4,-3,4,1,-5
1532373645424,5,1,3,2,3,4,-4,-4
1532373645429,-3,0,-2,6,1,-5,-1,4
1532373645434,4,-1,0,-1,-3,-2,2,-7
1532373645439,2,1,0,-8,0,9,-1,2
1532373645444,-7,-5,-2,-1,-2,-4,-5,0
1532373645449,-4,-1,1,2,0,3,-6,1
1532373645454,-2,-1,-3,-5,-1,-3,-4,-1
1532373645459,-1,4,-3,4,2,1,6,1
1532373645464,2,-4,10,-1,-2,-20,-8,-7
1532373645469,4,-2,0,3,-1,-2,-4,3
1532373645474,-1,0,-1,10,8,-3,14,4
1532373645479,3,2,-2,-2,-2,1,-9,8
1532373645484,8,0,8,0,1,4,-11,-14
1532373645489,-15,-4,-11,-4,-7,-10,-6,-2
1532373645494,-8,-1,9,3,1,4,-6,-3
1532373645499,2,-2,-11,-1,6,8,-4,-2
1532373645504,3,4,1,-2,-3,-5,-1,12
1532373645509,5,-4,12,-3,-1,-8,-2,-10
1532373645514,-13,-4,-11,-3,-3,-8,3,-2
1532373645519,9,-6,-14,2,-3,-4,12,5
1532373645524,1,1,1,6,-2,-2,-12,-4
1532373645529,2,0,0,-18,-3,-11,-8,-7
1532373645534,5,0,5,6,11,14,-9,11
1532373645539,-6,1,12,-1,2,-5,-8,-9
1532373645544,0,3,-5,6,5,9,1,8
1532373645549,-3,-2,-8,6,3,0,0,-3
1532373645554,1,-3,-4,-12,-10,-11,-1,-10
1532373645559,-3,-3,-2,-2,3,9,-2,1
1532373645564,-1,-2,5,-3,-8,-4,3,2
1532373645569,3,2,-1,3,0,-3,4,-3
1532373645574,-8,-2,-2,-2,-3,-11,-8,-2
1532373645579,7,2,4,6,2,16,-7,2
1532373645584,-2,-5,0,-10,-14,-9,-6,-3
1532373645589,-2,0,-7,4,13,23,1,2
1532373645594,-3,1,13,-3,-7,2,1,-1
1532373645599,12,-3,-17,-13,-9,-12,-1,-3
1532373645604,8,-2,2,2,8,5,16,11
1532373645609,-4,-3,-6,8,12,17,1,-7
1532373645614,5,-5,-5,2,-3,1,-8,-1
1532373645619,0,-1,-1,-7,-22,-32,-19,-19
1532373645624,2,1,5,3,7,34,-5,-1
1532373645629,2,5,7,4,-4,-14,-4,4
1532373645634,11,3,-11,-3,4,4,-3,0
1532373645639,-33,-10,-7,-1,3,2,8,-5
1532373645644,-29,-3,-7,-8,-12,-23,-14,-9
1532373645649,5,-1,16,1,-9,-15,1,-6
1532373645654,15,6,-12,0,5,18,9,26
1532373645659,18,1,1,-4,-16,-25,-11,9
1532373645664,2,-2,9,10,37,69,8,2
1532373645669,-4,1,-10,-3,-1,6,11,-8
1532373645674,-2,-4,6,-6,-23,-57,16,-6
1532373645679,-7,4,14,0,4,48,54,6
1532373645684,-5,-11,-9,18,66,58,4,-14
1532373645689,1,9,-1,-7,-11,0,29,5
1532373645694,19,2,3,2,6,10,19,8
1532373645699,-14,-1,-1,2,-11,-30,14,9
1532373645704,4,-3,-8,-12,-26,-32,-3,-24
1532373645709,12,-7,-3,-5,5,-2,-18,45
1532373645714,-10,-1,-5,-8,-11,-21,-22,-11
1532373645719,-10,1,6,8,-7,14,-23,-20
1532373645724,-5,4,8,6,10,2,-3,2
1532373645729,-1,-1,-10,-5,-7,-22,-11,-22
1532373645734,-18,-5,11,0,-23,-2,-12,2
1532373645739,1,7,-13,-1,15,9,-6,6
1532373645744,-7,-2,-4,-10,-41,-56,-13,-6
1532373645749,4,0,2,12,12,31,-10,12
1532373645754,-10,0,10,-9,-4,-14,-10,-1
1532373645759,23,-4,-12,-2,9,17,-16,-5
1532373645764,6,1,-2,-5,-14,-25,3,3
1532373645769,-3,1,4,-4,-23,-23,-2,-8
1532373645774,-8,-2,1,10,6,9,-1,-7
1532373645779,-3,-3,0,5,27,-4,-12,-1
1532373645784,5,0,-1,-18,-24,-35,2,5
1532373645789,2,-3,0,1,13,70,4,3
1532373645794,-7,0,-10,-4,-26,-20,-5,-7
1532373645799,-10,-1,2,1,0,12,4,-6
1532373645804,-2,-1,-3,-2,-6,11,-5,8
1532373645809,18,2,3,-2,-9,-6,-7,-13
1532373645814,8,0,-3,-7,-1,-15,15,-4
1532373645819,-5,-1,-3,1,-3,-2,-7,5
1532373645824,6,2,-2,-3,-1,4,-19,-3
1532373645829,-22,-4,-3,1,2,-18,-2,-6
1532373645834,4,0,-3,3,-8,23,-23,8
1532373645839,1,0,1,5,2,-2,16,-4
1532373645844,3,1,3,1,1,2,-42,10
1532373645849,-5,-3,1,0,-6,-6,2,-3
1532373645854,1,-1,-3,-1,-4,-22,-14,-7
1532373645859,-11,-2,-4,1,5,8,14,-3
1532373645864,9,1,-1,-7,2,20,28,12
1532373645869,6,0,1,2,-4,-6,-4,3
1532373645874,-4,-2,-2,5,4,-7,36,-3
1532373645879,-21,-5,-2,-6,-2,7,19,-7
1532373645884,6,-2,-6,-7,-2,-12,54,0
1532373645889,3,1,1,1,2,1,-6,-9
1532373645894,5,0,2,1,-7,-12,18,4
1532373645899,-3,0,-2,-14,-11,-6,40,1
1532373645904,-10,1,1,7,4,7,34,-6
1532373645909,-11,-2,3,3,-2,3,6,0
1532373645914,0,-3,0,2,-2,-5,21,3
1532373645919,-5,0,0,2,-1,0,13,-20
1532373645924,-2,1,-4,-8,-8,-3,1,-9
1532373645929,3,1,2,6,10,14,-3,8
1532373645934,7,0,2,2,-4,-6,-22,-16
1532373645939,0,0,-2,1,-4,-14,-24,3
1532373645944,1,-5,-3,4,3,-1,-15,-1
1532373645949,-5,0,-4,-13,-5,-2,3,-7
1532373645954,-9,-3,-2,-4,-3,-3,-1,2
1532373645959,17,2,-2,-4,3,3,3,10
1532373645964,-1,-2,2,-1,-1,0,-1,-8
1532373645969,9,3,1,4,2,-1,-4,1
1532373645974,-26,-2,-3,-2,-11,-11,-4,-22
1532373645979,4,-5,-3,-5,-2,6,5,7
1532373645984,32,2,0,-3,-1,-15,-11,20
1532373645989,-21,-7,-2,-2,-2,-6,-9,-18
1532373645994,-3,-3,-2,-2,-9,-16,-5,2
1532373645999,-5,1,4,5,4,11,2,-4
1532373646004,-11,-8,-7,-4,-2,-1,5,6
1532373646009,-30,2,-2,-8,-3,-14,2,-7
1532373646014,39,1,0,5,1,4,-9,18
1532373646019,-16,2,4,2,-4,-4,-5,-27
1532373646024,6,4,3,8,7,17,1,17
1532373646029,18,-2,-6,-7,-2,-5,-4,26
1532373646034,-16,-4,-1,0,5,1,10,-4
1532373646039,-7,-1,-2,-3,-11,-17,15,8
1532373646044,-18,-1,1,1,-5,-6,-3,-19
1532373646049,12,2,1,4,-1,18,5,-4
1532373646054,15,0,0,2,29,32,-1,12
