1532061612899,-5,-1,-3,-5,-1,-2,-3,-2
1532061612904,2,2,5,6,-4,-7,0,0
1532061612909,-3,1,-2,1,3,5,1,0
1532061612914,0,-3,-2,2,-2,-2,-1,0
1532061612919,0,-3,-6,-1,-1,2,3,-2
1532061612924,-2,0,-1,-6,2,2,1,-4
1532061612929,6,-3,-3,2,-6,-6,-2,3
1532061612934,-10,1,7,-2,1,-2,-4,-4
1532061612939,-1,-1,2,-1,-1,-3,-7,-3
1532061612944,-1,-3,1,-4,-2,0,2,4
1532061612949,5,0,1,6,2,0,-1,2
1532061612954,-5,1,3,0,-4,-1,-2,-6
1532061612959,-2,-3,-3,-2,1,3,2,-1
1532061612964,7,4,-4,2,2,0,-3,-2
1532061612969,-4,-4,-5,-7,-6,-5,-3,-5
1532061612974,4,-1,-1,-4,-3,1,-1,3
1532061612979,-5,-1,-3,0,-1,2,3,-1
1532061612984,-3,-2,0,-5,0,-1,0,-3
1532061612989,8,2,-2,1,2,-1,-1,1
1532061612994,17,3,2,3,-3,-3,1,-2
1532061612999,-10,-9,-2,-7,-4,-1,0,-3
1532061613004,-10,1,5,4,3,2,1,-5
1532061613009,-6,-2,-1,-2,-1,-2,-5,-1
1532061613014,-1,-3,3,-4,0,0,-1,-1
1532061613019,6,1,0,4,-2,-2,-3,1
1532061613024,11,0,1,-5,0,-1,-4,2
1532061613029,-17,-4,-4,3,0,-3,0,-7
1532061613034,1,-2,-4,-9,-2,-2,-1,0
1532061613039,-1,3,2,-1,-2,-2,2,5
1532061613044,0,-3,5,4,1,-1,-1,0
1532061613049,1,0,9,-2,1,4,1,-1
1532061613054,-3,0,-7,3,-1,-2,-3,0
1532061613059,-1,1,-7,-6,-4,-4,0,0
1532061613064,-2,-2,6,3,-3,-1,0,-2
1532061613069,0,-2,0,-4,0,2,2,-1
1532061613074,1,-1,-1,-1,-1,1,0,1
1532061613079,2,1,-3,-7,4,2,-1,-2
1532061613084,1,0,-4,8,-7,-4,-4,1
1532061613089,0,-1,-4,0,0,-2,-1,-2
1532061613094,-6,-2,7,3,-3,-3,-4,-4
1532061613099,2,0,-5,2,1,-1,-1,2
1532061613104,6,1,3,-1,1,3,5,1
1532061613109,-1,0,-7,-5,-2,1,1,1
1532061613114,-1,0,-3,10,4,-1,-2,-1
1532061613119,0,-1,-6,-5,-3,-3,-8,-5
1532061613124,-1,-2,-5,2,3,-2,1,1
1532061613129,-10,-2,-6,-10,-5,0,2,3
1532061613134,0,5,0,-5,-5,-10,-2,-3
1532061613139,-3,-3,-3,-12,-1,7,-1,0
1532061613144,-1,-1,-4,-7,-2,6,0,-1
1532061613149,11,-1,4,7,2,6,-1,1
1532061613154,-2,-5,-1,4,0,4,3,-1
1532061613159,1,0,5,5,4,0,3,0
1532061613164,-2,-3,0,-5,3,-1,-7,-4
1532061613169,-2,-1,1,2,-6,-7,3,1
1532061613174,3,0,3,-6,2,-3,-4,1
1532061613179,1,1,3,3,3,7,2,0
1532061613184,-1,-1,0,-1,4,9,0,2
1532061613189,-5,0,-5,-9,3,3,1,-4
1532061613194,21,3,-7,6,2,-3,-1,5
1532061613199,-12,-5,-3,-3,-5,-11,-4,-5
1532061613204,-6,-2,3,8,-11,-12,-5,1
1532061613209,-5,1,0,-10,-2,-5,-5,-2
1532061613214,4,-3,0,29,0,4,2,-2
1532061613219,-4,-3,0,-5,2,4,1,1
1532061613224,-3,0,0,3,3,-2,-1,-3
1532061613229,7,-4,-2,-2,-5,-2,-2,-1
1532061613234,-13,-5,-6,-32,1,5,2,-1
1532061613239,16,3,0,3,-2,-4,-1,0
1532061613244,-7,-1,5,55,4,-3,-1,-3
1532061613249,1,2,-4,-9,-2,-4,-1,8
1532061613254,-6,-2,-1,1,0,-4,2,-10
1532061613259,-8,-1,-5,-21,-10,-5,-7,-4
1532061613264,3,0,-3,-26,1,-1,1,2
1532061613269,3,-4,1,11,2,2,4,-7
1532061613274,-6,0,2,-3,2,7,7,6
1532061613279,1,-2,-3,8,-1,-2,-1,-1
1532061613284,-6,-1,-3,-12,-4,-3,-3,0
1532061613289,3,1,-1,8,-1,-5,-3,-3
1532061613294,-5,-1,0,-11,-9,-11,-6,1
1532061613299,-7,-2,0,-4,-6,-4,1,-6
1532061613304,9,4,2,4,1,8,8,2
1532061613309,-17,-7,-4,0,6,3,-1,0
1532061613314,-7,1,7,15,4,5,-1,-4
1532061613319,7,2,-4,-17,-1,-8,-3,4
1532061613324,-10,-7,-2,10,-4,-5,-3,-6
1532061613329,9,2,3,14,4,3,-3,1
1532061613334,4,-3,-3,-4,-5,-4,-1,4
1532061613339,-5,-4,0,-8,-1,2,-3,-3
1532061613344,1,2,-5,-21,4,10,9,2
1532061613349,14,5,0,8,1,-2,5,2
1532061613354,-20,-9,-2,-5,-7,-6,-4,-4
1532061613359,3,1,6,10,4,-2,-6,-3
1532061613364,-10,-5,-9,-28,-4,-5,-6,-6
1532061613369,-4,-4,5,16,-9,-9,-20,-8
1532061613374,11,5,-3,-5,-3,0,31,5
1532061613379,-1,1,0,8,-1,9,-1,7
1532061613384,15,2,-2,-19,-4,0,4,0
1532061613389,-10,0,0,-5,4,2,-5,0
1532061613394,1,-2,-2,4,0,1,-8,-6
1532061613399,-6,0,6,15,-2,-9,0,-3
1532061613404,2,-5,-8,-6,-9,-9,-7,1
1532061613409,8,3,2,5,5,3,5,1
1532061613414,0,-1,-11,-2,0,0,-9,-3
1532061613419,-5,-1,-5,-2,4,-1,8,0
1532061613424,-3,-2,-1,3,-3,-4,-9,1
1532061613429,-9,-4,-5,-13,-8,-10,3,-2
1532061613434,7,2,-2,-12,3,0,-2,-1
1532061613439,6,-2,-4,6,-6,-1,-4,1
1532061613444,-6,-2,6,22,8,6,3,-3
1532061613449,3,2,2,-1,0,5,-1,1
1532061613454,3,2,1,-6,0,2,3,11
1532061613459,-4,-1,3,-7,0,-4,-6,-14
1532061613464,6,0,3,-5,-2,-3,13,4
1532061613469,-27,-13,-1,-1,-6,-3,-8,-9
1532061613474,-4,-3,-4,-10,-2,-2,-16,-5
1532061613479,-2,0,-6,0,-1,2,7,1
1532061613484,5,2,1,18,3,8,-5,2
1532061613489,3,1,-1,-5,2,-1,-2,-1
1532061613494,-3,0,-2,-2,-2,-2,7,-2
1532061613499,3,0,1,-8,-4,0,-1,3
1532061613504,-4,-2,-1,-6,-4,-9,-10,-5
1532061613509,7,2,-3,5,-1,-5,1,3
1532061613514,-7,-6,0,0,2,1,-5,-3
1532061613519,-3,-2,5,17,1,-3,1,-1
1532061613524,1,4,-2,-9,-1,-2,1,-1
1532061613529,0,-1,-2,-11,-2,-3,1,-1
1532061613534,9,3,3,7,-1,2,9,10
1532061613539,-2,-1,-2,-6,2,2,-5,0
1532061613544,-11,-7,3,-1,-7,-7,-8,-4
1532061613549,5,1,-1,0,-6,-12,-7,-3
1532061613554,-4,0,1,4,7,15,-6,-6
1532061613559,3,0,0,-3,9,18,16,4
1532061613564,10,-1,-4,-5,1,0,4,4
1532061613569,-11,1,-1,0,2,0,-2,-2
1532061613574,-2,0,0,3,-10,-14,-5,-5
1532061613579,-1,0,0,-1,-3,-6,-2,3
1532061613584,2,5,1,5,9,3,-15,-5
1532061613589,-6,-8,-4,-7,-8,-1,15,-5
1532061613594,6,3,8,28,9,6,3,8
1532061613599,6,-5,-13,-21,-11,-3,-2,1
1532061613604,-4,0,0,-9,-11,-7,1,7
1532061613609,20,6,-1,-6,6,2,2,-10
1532061613614,-22,-12,1,6,0,9,-3,-6
1532061613619,4,3,2,6,12,7,-4,0
1532061613624,-3,-7,-6,-3,-2,-3,-5,-2
1532061613629,-1,0,-1,-2,-6,-3,-3,3
1532061613634,-1,-1,-4,-3,-4,-9,-2,-5
1532061613639,3,-1,-1,-3,-4,-4,-4,1
1532061613644,28,5,1,-9,0,-2,7,5
1532061613649,-65,-10,1,26,0,-2,-13,-10
1532061613654,7,2,0,-8,4,0,-1,-1
1532061613659,-9,-4,-1,4,-7,-11,2,-2
1532061613664,-2,-1,0,-2,4,6,3,1
1532061613669,22,5,1,-3,0,9,6,7
1532061613674,-3,-4,-7,0,10,7,-2,-3
1532061613679,-5,-1,2,2,-3,-16,-11,-8
1532061613684,-5,-2,-6,-6,-7,0,8,-1
1532061613689,10,1,4,3,6,8,2,6
1532061613694,8,3,0,5,0,-2,-5,2
1532061613699,-10,-5,-4,2,0,-1,-4,-4
1532061613704,-5,-3,3,2,-1,-3,-7,-5
1532061613709,-3,2,-3,3,-1,-2,0,0
1532061613714,32,4,5,-13,-7,-4,-1,19
1532061613719,-35,-3,3,8,12,5,4,-29
1532061613724,-6,15,-3,1,-4,1,-5,-7
1532061613729,18,7,9,20,12,6,2,0
1532061613734,-25,-14,-26,-72,-26,-23,-11,-9
1532061613739,11,0,0,-7,-17,-9,-6,11
1532061613744,-10,-5,1,9,13,16,8,0
1532061613749,3,2,1,-1,3,12,9,2
1532061613754,12,9,4,15,13,5,-2,-2
1532061613759,2,-8,-3,-3,-4,-9,-4,5
1532061613764,-11,-8,-3,-4,-11,-15,-8,-8
1532061613769,9,0,-4,-3,-3,-5,-2,7
1532061613774,0,-5,5,1,-2,4,5,-2
1532061613779,-8,0,0,2,2,8,4,-2
1532061613784,-7,-1,1,1,-2,-4,14,9
1532061613789,-1,-5,-5,-11,-1,-5,-11,-7
1532061613794,-7,-2,0,10,-1,0,-3,-3
1532061613799,9,5,-1,2,-2,-2,1,1
1532061613804,1,-2,-1,-3,-1,3,-11,0
1532061613809,8,0,-2,-8,1,3,7,-2
1532061613814,-23,-2,1,24,4,5,7,0
1532061613819,9,16,-3,-51,-10,-4,-2,4
1532061613824,4,-3,1,2,-3,-5,-2,-1
1532061613829,-18,-5,-1,-4,-7,-7,-3,0
1532061613834,7,5,2,1,0,0,-2,-8
1532061613839,15,-3,5,14,4,5,5,6
1532061613844,-5,-2,-4,8,2,-10,-6,-4
1532061613849,-4,-11,-10,-15,-11,-11,-1,-7
1532061613854,3,0,4,15,-7,-8,-2,3
1532061613859,-3,-3,-1,-1,15,21,5,5
1532061613864,3,2,2,-4,1,10,-3,-8
1532061613869,8,0,1,9,8,3,7,9
1532061613874,3,1,-4,-10,-10,-24,-10,-5
1532061613879,-18,-11,-6,10,-3,3,2,0
1532061613884,5,4,-4,-18,-4,4,3,1
1532061613889,-3,0,-2,7,1,-5,0,2
1532061613894,-6,-2,1,-10,-3,-1,-4,-4
1532061613899,10,2,0,15,4,-3,-1,-1
1532061613904,-1,-3,-1,5,-2,-2,-1,0
1532061613909,-2,0,-2,-5,-4,2,-3,2
1532061613914,-11,-1,1,0,5,2,2,-4
1532061613919,7,4,6,32,7,5,0,5
1532061613924,11,-8,-26,-82,-23,-9,-4,0
1532061613929,-31,-5,0,-11,-7,-8,-7,-7
1532061613934,5,0,-1,-1,-2,5,2,1
1532061613939,-1,0,3,7,-3,-8,1,3
1532061613944,-2,-2,6,24,10,4,4,-2
1532061613949,17,7,0,-1,4,6,-1,-5
1532061613954,-3,-2,3,-6,-6,3,-7,3
1532061613959,-1,0,-3,-17,-1,0,12,-5
1532061613964,-1,0,0,12,-2,-2,-8,4
1532061613969,13,-1,-4,-3,4,5,5,6
1532061613974,-13,-5,0,13,6,2,-2,-6
1532061613979,1,0,-3,-8,-9,-13,-11,-5
1532061613984,-6,2,0,4,-7,-12,-4,-4
1532061613989,2,-3,1,2,2,6,3,-2
1532061613994,4,-2,-4,-4,8,8,6,3
1532061613999,0,-1,-1,-4,0,5,0,-2
1532061614004,-9,-4,1,20,5,0,3,-4
1532061614009,16,3,-2,-12,-8,-7,-8,0
1532061614014,-11,-7,-3,-3,-9,-10,-1,-3
1532061614019,-4,-3,-1,1,-2,2,-4,-2
1532061614024,-3,3,3,14,5,2,0,-1
1532061614029,5,1,1,10,-1,-6,-2,3
1532061614034,0,1,-4,-22,-7,-4,0,-1
1532061614039,-1,-1,3,-2,6,5,-5,-3
1532061614044,2,-1,3,13,-1,4,5,6
1532061614049,-6,-9,-5,-17,-1,-3,5,-3
1532061614054,11,6,0,31,6,1,-4,-3
1532061614059,-6,-7,-9,-20,-14,-10,4,8
1532061614064,-37,-3,0,13,7,2,-11,-7
1532061614069,3,4,5,-13,0,7,-4,-5
1532061614074,13,4,0,32,5,7,-1,3
1532061614079,20,2,1,10,-5,-6,17,7
1532061614084,2,-4,0,0,2,-3,1,-4
1532061614089,-11,-1,-2,0,-8,-13,-8,-2
1532061614094,-7,0,3,-2,1,1,-4,0
1532061614099,1,4,0,3,6,6,1,-3
1532061614104,7,-4,-2,-7,-3,-2,-2,1
1532061614109,-4,1,2,12,0,-1,-1,-2
1532061614114,7,1,1,-11,-1,2,4,1
1532061614119,-1,-2,2,6,-4,-14,-8,-3
1532061614124,1,-2,-1,-12,7,16,5,-4
1532061614129,3,2,0,-2,1,8,2,2
1532061614134,-6,-6,-5,-16,0,0,3,-3
1532061614139,-4,0,0,8,-2,-9,-17,-7
1532061614144,3,2,-6,-37,-9,-7,6,3
1532061614149,3,-4,-1,20,-1,-1,2,4
1532061614154,3,-2,1,23,11,4,2,2
1532061614159,17,6,2,-5,2,2,-9,-6
1532061614164,-15,-4,-7,6,-5,-5,8,4
1532061614169,7,0,-3,-13,2,-2,-9,2
1532061614174,-13,-6,2,13,-12,-11,-10,-3
1532061614179,5,2,2,-14,3,10,5,0
1532061614184,8,3,2,0,8,7,0,-1
1532061614189,-8,-4,-1,-20,0,0,-4,-8
1532061614194,1,2,10,15,0,-7,1,-1
1532061614199,-13,-3,-6,-13,-2,-5,-2,0
1532061614204,10,1,2,4,-1,-4,-1,1
1532061614209,-10,-1,-1,5,4,3,4,1
1532061614214,10,2,-2,-14,-2,3,6,0
1532061614219,0,-3,-1,3,0,-1,0,4
1532061614224,-8,-1,-2,6,0,-14,-4,-5
1532061614229,10,-1,0,-20,-5,10,-6,-2
1532061614234,-3,-1,-5,-17,3,5,-5,9
1532061614239,-9,-4,-2,8,1,6,12,-13
1532061614244,15,-1,4,8,1,-2,-12,8
1532061614249,-22,-5,0,-1,-3,-9,6,-13
1532061614254,4,3,2,22,2,-5,-11,-6
1532061614259,-14,-6,-2,-48,-8,0,-4,1
1532061614264,7,5,2,0,1,-2,-2,-2
1532061614269,3,0,-1,13,-9,-7,-2,3
1532061614274,-3,-2,-2,-34,1,9,10,-1
1532061614279,12,1,3,27,7,2,-6,3
1532061614284,-11,-10,0,7,4,-1,9,0
1532061614289,7,5,-5,7,-4,-12,-2,3
1532061614294,-18,-4,-5,-5,1,5,6,-5
1532061614299,-2,2,-5,-12,-1,-1,1,-1
1532061614304,8,-2,-3,-20,-6,11,-4,1
1532061614309,-8,1,3,42,10,-2,5,-1
1532061614314,7,3,-2,-10,-5,-7,-6,-4
1532061614319,8,0,-1,17,2,-3,-1,7
1532061614324,-30,-12,-5,-15,-1,2,2,-4
1532061614329,12,-3,-6,2,5,-6,2,10
1532061614334,6,-3,-4,-44,-20,-10,-25,-21
1532061614339,-2,-5,-9,-9,-1,7,45,19
1532061614344,1,10,2,4,-9,-4,-3,-11
1532061614349,-2,1,2,3,5,5,6,3
1532061614354,4,-1,-2,9,5,-5,-6,3
1532061614359,-11,-1,0,11,-3,-3,-13,-6
1532061614364,9,1,0,-9,-4,-2,-1,1
1532061614369,12,0,-1,3,1,7,-4,2
1532061614374,-20,-3,-2,-7,-9,-7,6,-6
1532061614379,10,9,3,1,-2,-2,-11,-5
1532061614384,4,0,0,11,8,6,7,4
1532061614389,6,4,1,-7,-4,-5,-11,-6
1532061614394,0,-1,-1,17,4,1,5,6
1532061614399,-9,-3,-2,-14,1,0,-3,-1
1532061614404,1,1,2,7,1,6,-6,-4
1532061614409,-3,-2,-2,-8,-9,-7,-3,-3
1532061614414,1,-5,-3,-4,-2,-3,5,5
1532061614419,3,-3,0,7,6,5,-5,-3
1532061614424,-4,0,1,3,3,0,0,0
1532061614429,-4,-4,-4,-8,-7,2,7,3
1532061614434,-1,0,-1,-3,3,-4,1,-1
1532061614439,-3,1,2,12,-11,-19,-15,-12
1532061614444,2,-3,-6,-3,2,8,0,-1
1532061614449,-7,-4,0,-6,8,6,9,5
1532061614454,-2,1,1,5,-6,0,-1,2
1532061614459,4,1,4,6,9,4,1,5
1532061614464,-1,-1,-1,-4,-4,-8,1,-1
1532061614469,-6,-6,-3,-5,-8,-6,-10,-4
1532061614474,4,0,0,-3,0,-1,3,-2
1532061614479,-5,-3,1,0,-12,-12,-6,-4
1532061614484,2,-1,3,8,-2,1,0,6
1532061614489,0,4,2,9,15,19,11,-3
1532061614494,-7,-7,-6,-17,-3,-1,-9,-2
1532061614499,31,8,-5,-3,-2,-1,17,3
1532061614504,-41,-14,-1,0,-6,-15,-14,-8
1532061614509,3,3,-2,-4,-6,-8,-10,-3
1532061614514,-2,-3,-2,12,9,12,9,1
1532061614519,-6,-2,-1,-3,3,5,-4,3
1532061614524,13,3,0,10,3,3,4,7
1532061614529,10,0,3,-9,-7,-13,-1,-5
1532061614534,-18,-4,-5,4,1,1,-19,-6
1532061614539,-4,-4,-2,0,-1,1,-10,-7
1532061614544,9,2,-1,-18,-10,-8,9,11
1532061614549,-14,-2,2,4,0,-3,-11,-13
1532061614554,17,9,4,1,-2,-1,28,13
1532061614559,-14,1,4,15,6,22,-10,-2
1532061614564,27,9,0,0,4,0,-1,7
1532061614569,-18,-5,-8,-7,-6,-10,-10,-9
1532061614574,8,-1,3,8,2,-4,1,1
1532061614579,6,-1,-6,4,1,0,3,5
1532061614584,-20,-2,-2,-5,2,1,-3,-19
1532061614589,2,5,0,0,1,-1,-4,7
1532061614594,19,7,1,-5,0,-1,-7,-3
1532061614599,-46,-10,2,-4,-6,-7,-3,-3
1532061614604,26,9,0,22,6,1,3,-3
1532061614609,-4,-2,-2,-54,-11,-3,-2,-5
1532061614614,-6,-1,1,12,-6,-12,-5,0
1532061614619,4,-1,-3,-7,-2,1,-3,-5
1532061614624,-8,-7,0,8,3,-1,0,2
1532061614629,-15,-12,-4,10,7,5,-2,1
1532061614634,6,4,3,4,-3,3,2,2
1532061614639,16,4,1,-11,-3,1,18,9
1532061614644,-9,1,5,11,5,5,-4,-11
1532061614649,-8,-9,-5,7,-4,5,-2,8
1532061614654,15,3,0,-6,0,-2,-12,-12
1532061614659,-19,-14,-5,12,-7,-12,9,-7
1532061614664,-19,0,8,16,1,6,-10,-3
1532061614669,12,13,6,15,16,17,12,0
1532061614674,-18,-7,-7,-35,-11,-16,-3,3
1532061614679,16,2,1,12,-2,-9,-21,-11
1532061614684,-2,-5,-3,-23,-13,-6,-1,1
1532061614689,-20,-14,5,8,3,4,8,9
1532061614694,-5,0,2,12,3,4,-20,-12
1532061614699,17,5,0,0,13,12,23,5
1532061614704,0,-1,1,-4,-5,-6,-12,-6
1532061614709,1,-8,-1,-3,-10,-2,19,11
1532061614714,19,15,0,-2,6,7,1,10
1532061614719,-3,6,-3,-16,-9,-11,-10,-6
1532061614724,-10,-5,-3,3,-3,-7,-9,-3
1532061614729,3,2,-2,-25,-10,-4,-1,-2
1532061614734,-13,-14,2,23,9,-3,1,-1
1532061614739,-1,-3,3,-20,-2,2,-4,0
1532061614744,-28,-2,-7,-15,-3,-4,6,-6
1532061614749,7,-2,-3,0,4,-1,-18,-6
1532061614754,3,-4,4,-7,-14,9,31,10
1532061614759,22,11,2,14,17,13,-8,10
1532061614764,1,-5,-3,0,3,-1,-1,-5
1532061614769,4,4,2,6,2,-1,1,-3
1532061614774,1,0,-9,-9,-7,-8,-8,-5
1532061614779,12,2,-7,-29,-16,-8,-5,-1
1532061614784,-13,-11,1,6,3,-4,16,1
1532061614789,12,14,-5,40,4,4,-13,-4
1532061614794,-2,-8,-9,-43,-5,3,3,5
1532061614799,-6,2,0,7,-3,-5,-3,-5
1532061614804,9,1,-7,-8,-3,-4,-2,0
1532061614809,12,-1,3,3,0,-7,-4,-3
1532061614814,-22,-2,-2,17,3,-5,-4,-6
1532061614819,0,5,-4,2,3,9,3,-3
1532061614824,19,-3,-3,3,-3,-4,7,6
1532061614829,-11,2,-3,-17,-1,3,0,-3
1532061614834,9,0,0,3,3,3,6,4
1532061614839,-25,-10,0,0,-5,-7,-12,-6
1532061614844,-11,-4,3,3,-8,1,-1,1
1532061614849,16,0,-4,-1,3,6,5,5
1532061614854,3,3,-1,4,2,2,-2,-4
1532061614859,-13,-2,5,29,10,-3,0,1
1532061614864,0,-1,-3,-19,-5,-1,-9,-2
1532061614869,-2,-8,-5,3,-14,-17,2,6
1532061614874,-35,5,-1,-14,-3,1,-6,-15
1532061614879,-6,-8,-6,-14,-2,8,1,-2
1532061614884,9,5,2,-5,3,4,5,7
1532061614889,1,-9,0,2,0,-4,-5,-7
1532061614894,-2,-16,4,24,-1,-11,-7,-5
1532061614899,-25,-12,-5,6,1,-7,-2,-7
1532061614904,36,12,-4,-7,7,17,21,19
1532061614909,-3,13,2,22,7,-4,-21,0
1532061614914,6,4,0,2,4,4,10,-6
1532061614919,-13,-3,3,-8,-12,-2,-1,4
1532061614924,33,-5,-2,13,-1,-11,-5,5
1532061614929,-49,-15,-3,-35,-11,-11,-11,-13
1532061614934,10,13,2,12,4,9,9,1
1532061614939,3,-1,0,-22,2,4,-1,-2
1532061614944,11,10,3,9,-5,1,-2,1
1532061614949,-2,-5,0,-9,-6,-2,4,-2
1532061614954,35,-6,4,-9,-3,-8,-8,2
1532061614959,-2,7,4,33,5,-3,2,-5
1532061614964,-15,-3,-3,-39,-7,4,-1,-8
1532061614969,4,1,-4,-29,-5,-4,2,-1
1532061614974,-1,-6,-1,-10,-1,0,0,7
1532061614979,7,-2,-2,12,4,0,-5,1
1532061614984,3,1,-1,6,4,-1,-6,-2
1532061614989,32,5,0,-10,-4,-3,10,5
1532061614994,-35,-2,2,29,8,1,2,1
1532061614999,-16,-10,-3,-25,-7,4,3,3
1532061615004,-3,3,-2,1,-1,-3,-19,-18
1532061615009,16,1,0,5,11,11,25,5
1532061615014,19,5,-4,6,-3,-6,-15,6
1532061615019,-28,-2,-2,5,-1,0,0,0
1532061615024,-1,0,-1,2,-3,3,-3,-8
1532061615029,-27,-11,-4,15,-3,-5,-7,-2
1532061615034,2,-5,-6,-39,-11,-9,1,-2
1532061615039,42,11,1,-2,8,7,1,-6
1532061615044,-19,-10,3,43,20,8,4,14
1532061615049,1,2,3,7,-13,-2,-6,-4
1532061615054,-3,0,-6,-10,0,-5,4,14
1532061615059,-6,-10,-5,-32,-10,-13,-9,-11
1532061615064,-6,1,-2,10,0,-5,-2,-9
1532061615069,0,-1,-1,-6,-5,-2,-2,-3
1532061615074,0,-1,-2,24,0,4,1,-6
1532061615079,18,2,0,-25,-1,6,-1,11
1532061615084,-3,-5,2,-2,1,-5,0,-1
1532061615089,19,3,-9,-17,-7,-4,-9,-2
1532061615094,5,-5,-7,-18,-8,3,12,8
1532061615099,-36,-6,-2,41,14,-5,-11,-27
1532061615104,16,8,-2,-27,-10,3,10,9
1532061615109,5,4,7,21,12,3,-1,-3
1532061615114,8,-2,-1,-17,-3,-5,-4,-1
1532061615119,29,2,1,7,-6,-8,-7,11
1532061615124,-34,-7,-1,-20,-11,-12,-4,-12
1532061615129,6,1,1,22,7,4,3,2
1532061615134,-12,0,4,13,9,0,-12,-13
1532061615139,-19,-8,3,-6,-5,-3,8,13
1532061615144,8,10,-9,-15,-5,1,-2,-5
1532061615149,-2,5,-4,-11,2,7,4,1
1532061615154,-5,-3,-1,15,2,-1,-2,-10
1532061615159,-28,-25,-2,-22,-5,-10,-9,-4
1532061615164,13,5,1,-1,-12,-6,3,6
1532061615169,-16,1,1,8,12,13,1,-6
1532061615174,5,-5,6,-11,0,3,6,12
1532061615179,56,22,-5,-10,-3,0,13,7
1532061615184,2,-2,4,11,4,0,-9,-1
1532061615189,-7,-11,-9,-37,-14,-14,-5,-7
1532061615194,1,3,8,23,-12,-10,-20,3
1532061615199,10,2,7,22,10,11,24,6
1532061615204,-12,-3,-1,14,16,6,4,0
1532061615209,4,1,2,15,-3,-1,-5,1
1532061615214,-2,0,-4,0,6,6,4,-3
1532061615219,-4,0,-4,-1,-11,-6,-11,-2
1532061615224,14,4,0,12,3,-4,-1,-4
1532061615229,-49,-15,-2,-2,-9,-22,-6,-6
1532061615234,-9,0,-9,-27,-14,4,4,-4
1532061615239,-2,13,4,39,19,29,16,5
1532061615244,4,-11,-3,-28,2,5,-2,0
1532061615249,12,1,-4,-7,-1,-4,-17,-3
1532061615254,-13,-8,-3,17,-3,-10,-8,-1
1532061615259,-10,-2,0,3,-16,-21,0,-6
1532061615264,-2,2,0,12,-6,-9,28,-1
1532061615269,20,12,1,-16,-2,12,5,2
1532061615274,-9,-1,4,29,19,15,0,-7
1532061615279,-2,-5,-5,-62,-12,-11,-13,3
1532061615284,18,2,-1,2,-8,-14,-8,4
1532061615289,-6,-5,3,3,-7,-3,-7,-6
1532061615294,-1,2,3,-5,5,1,8,1
1532061615299,2,-6,-5,-11,-5,-3,-2,5
1532061615304,-11,-3,0,4,13,18,8,-4
1532061615309,6,1,1,5,12,5,4,4
1532061615314,15,5,-2,0,-5,-4,-38,-10
1532061615319,-21,-9,-3,5,-10,-18,29,-4
1532061615324,-20,4,0,10,-5,-7,-17,1
1532061615329,10,4,1,-13,-5,9,8,5
1532061615334,-21,-7,-4,10,11,9,10,-3
1532061615339,8,4,1,-18,-14,-14,-18,-2
1532061615344,-8,-7,-1,1,-1,9,-3,-2
1532061615349,12,3,5,26,16,7,11,5
1532061615354,-15,-5,-7,-28,-20,-24,-5,-8
1532061615359,7,2,2,10,5,13,-6,0
1532061615364,4,1,0,4,0,4,6,2
1532061615369,-4,-2,1,1,2,1,-6,-5
1532061615374,-1,0,-1,-6,0,1,11,2
1532061615379,9,1,1,16,5,1,-6,-4
1532061615384,-5,1,-1,-19,-12,-14,-9,-4
1532061615389,-10,-6,-2,3,-3,-1,0,0
1532061615394,9,3,4,24,7,4,6,3
1532061615399,4,2,-4,-64,-9,-2,-2,-4
1532061615404,19,-12,-3,13,4,1,8,14
1532061615409,-8,-4,-1,1,-3,3,-4,-11
1532061615414,-5,-2,-4,-15,-9,-2,12,0
1532061615419,-39,-3,-2,32,12,6,-9,-11
1532061615424,1,1,-2,-8,-8,-11,-6,-4
1532061615429,-14,-6,-1,0,-6,-9,4,2
1532061615434,28,6,2,1,7,9,-3,9
1532061615439,-4,7,0,9,-8,-3,-4,-2
1532061615444,-4,-5,-1,3,5,5,4,-5
1532061615449,-5,0,-1,27,25,23,3,1
1532061615454,-4,-4,-4,-32,-12,-11,-6,-8
1532061615459,7,4,-5,-6,-4,-3,-1,2
1532061615464,-4,-1,-1,0,0,-2,-9,-4
1532061615469,5,-7,-2,-10,-11,-10,0,0
1532061615474,0,2,-2,8,4,3,-3,-3
1532061615479,13,1,0,14,6,2,6,6
1532061615484,-25,1,-2,-6,-9,-3,-10,-7
1532061615489,6,2,0,13,2,-4,-1,2
1532061615494,1,1,-1,-24,-2,-1,4,-1
1532061615499,0,-1,-1,8,-1,-2,-11,-5
1532061615504,-3,3,1,11,-5,-2,-16,-4
1532061615509,-5,-3,-5,-10,7,7,35,-3
1532061615514,3,6,-2,6,1,8,-3,-3
1532061615519,6,8,4,23,11,9,-4,-1
1532061615524,7,-3,-2,-6,1,-2,-3,-3
1532061615529,6,-7,-4,-7,-16,-16,-15,2
1532061615534,-7,-4,1,-3,-2,0,2,4
1532061615539,-1,-7,2,12,10,7,7,-1
1532061615544,4,-1,-1,-3,-2,-6,-4,2
1532061615549,17,20,-1,-39,-17,-7,-11,0
1532061615554,-52,2,5,31,-2,-3,7,-6
1532061615559,5,-17,-7,-13,-6,-4,-3,3
1532061615564,-7,-14,-6,7,8,6,1,-5
1532061615569,-4,15,2,-4,1,0,0,1
1532061615574,18,4,2,-12,0,-2,-1,4
1532061615579,1,-23,-1,2,-2,-3,-1,0
1532061615584,-19,-5,-8,-16,-5,-1,-1,-12
1532061615589,4,-1,-1,10,0,-3,-1,-1
1532061615594,11,13,0,16,0,-6,-4,0
1532061615599,-2,5,1,-8,-1,9,2,2
1532061615604,10,-8,-4,-23,3,4,3,6
1532061615609,9,6,0,24,3,1,-6,0
1532061615614,-4,-7,-4,-5,0,1,5,0
1532061615619,-5,-7,-8,1,2,-2,2,0
1532061615624,-1,9,-1,-18,-7,-2,1,0
1532061615629,-1,4,3,6,-3,-7,-2,-1
1532061615634,1,-9,6,30,7,5,1,-2
1532061615639,1,-1,-4,-6,6,5,1,-2
1532061615644,-1,1,2,-9,-11,-4,-2,0
1532061615649,15,-8,1,-16,-4,-5,-5,4
1532061615654,-27,-20,-6,-3,-11,-9,-6,-13
1532061615659,-2,15,7,26,-4,-6,-4,-1
1532061615664,13,31,8,21,8,0,3,4
1532061615669,-11,-19,-1,-11,4,4,2,1
1532061615674,5,-30,-7,-6,3,6,0,2
1532061615679,-4,1,1,-7,-5,-5,-5,-3
1532061615684,-5,-8,-1,1,-11,-8,-2,-1
1532061615689,-4,12,1,0,4,3,3,1
1532061615694,15,9,-1,-17,2,8,3,6
1532061615699,-4,-2,-1,13,3,-5,-3,-2
1532061615704,4,-5,-2,-9,1,-2,-1,0
1532061615709,-2,4,0,6,-1,-3,-1,-2
1532061615714,7,-1,-2,9,-5,-7,-2,1
1532061615719,3,8,-3,-15,4,6,0,-1
1532061615724,0,2,0,-10,-6,1,0,-2
1532061615729,1,-5,-3,1,-2,-4,-3,-2
1532061615734,-2,0,-3,-2,-1,-4,-6,-6
1532061615739,8,10,1,-1,-4,-3,-1,1
1532061615744,-26,-13,-1,9,7,3,1,-1
1532061615749,-7,-6,-5,-17,-4,1,-1,-3
1532061615754,17,6,-1,4,-1,-7,-3,4
1532061615759,-7,-4,1,19,0,2,1,-3
1532061615764,9,14,0,3,7,6,2,-1
1532061615769,-5,-10,1,-3,-2,-4,0,-1
1532061615774,1,-12,-6,-27,-7,1,1,4
1532061615779,0,-2,-18,-2,0,1,-1,-6
1532061615784,1,-2,-3,24,3,-4,0,-2
1532061615789,-1,9,-10,-33,-15,-11,-4,-2
1532061615794,-3,18,11,-1,0,-5,-1,-1
1532061615799,9,-17,8,-5,3,12,5,4
1532061615804,-14,-23,5,15,10,10,3,-2
1532061615809,4,9,7,20,5,2,0,-1
1532061615814,11,5,-1,-23,-9,-4,-3,0
1532061615819,-9,2,2,-17,-10,-20,-10,-9
1532061615824,13,4,3,-7,0,6,-2,3
1532061615829,-11,-5,2,10,6,3,4,0
1532061615834,7,1,-2,3,0,1,-1,0
1532061615839,-1,2,4,4,-3,-4,-4,1
1532061615844,4,1,0,-9,-2,-4,-1,-1
1532061615849,0,2,-1,12,0,-1,0,0
1532061615854,-1,-4,-2,-12,-1,1,-1,1
1532061615859,-17,-4,-3,-4,-8,-11,-2,-3
1532061615864,-6,3,0,-4,-1,4,-1,2
1532061615869,11,8,-1,1,0,0,0,2
1532061615874,-10,-11,-4,3,-2,-4,-2,-4
1532061615879,-10,-23,-9,-4,1,-4,-3,-5
1532061615884,9,8,-3,-10,8,15,5,4
1532061615889,-14,2,1,1,-3,3,-1,-3
1532061615894,8,15,3,10,5,2,3,-1
1532061615899,8,3,1,-8,-2,0,1,5
1532061615904,-8,-3,-1,1,-7,-10,2,-2
1532061615909,8,11,0,-5,-1,3,-5,-3
1532061615914,-15,12,2,10,-3,-7,-4,-2
1532061615919,-8,-39,-6,-5,0,4,-4,-5
1532061615924,4,-15,-6,1,1,-5,1,5
1532061615929,15,-2,1,17,4,2,1,0
1532061615934,-31,-15,-6,8,-2,-2,-1,-2
1532061615939,24,30,6,-26,-1,9,4,3
1532061615944,-14,9,5,27,3,0,-4,-5
1532061615949,-11,-26,-13,-4,-13,-16,-5,-8
1532061615954,10,7,5,-8,-5,-5,-3,-2
1532061615959,-3,12,-1,-2,12,18,3,1
1532061615964,10,1,-1,-3,-2,4,5,0
1532061615969,1,-5,0,-1,8,5,2,4
1532061615974,-3,5,0,-2,1,-7,-3,-5
1532061615979,3,-12,2,21,-6,-13,-2,3
1532061615984,-2,2,-2,-8,-5,-2,-3,-4
1532061615989,3,-1,-1,-1,2,-1,-2,2
1532061615994,4,1,-2,-17,-1,2,0,-1
1532061615999,0,8,1,2,1,1,-1,1
1532061616004,4,1,0,-1,-5,-8,-6,-6
1532061616009,-5,-5,0,-7,-2,-1,-1,-1
1532061616014,2,-5,-3,1,-3,-1,3,0
1532061616019,0,6,-1,1,-7,-1,0,0
1532061616024,0,-2,-1,3,11,5,-2,0
1532061616029,-4,-2,-2,-11,-3,4,1,-1
1532061616034,0,-8,-3,0,0,-5,-3,-2
1532061616039,-4,2,0,6,-11,-7,-1,-1
1532061616044,2,-4,-4,-12,-2,-9,-4,-1
1532061616049,-2,-1,0,2,1,-1,-2,-1
1532061616054,5,3,0,5,10,23,8,2
1532061616059,-2,-2,-1,-2,1,-1,2,1
1532061616064,1,3,-1,-8,-12,-3,-2,-3
1532061616069,1,2,0,-7,-1,-10,-4,-1
1532061616074,-10,-9,1,16,-16,-27,-10,-3
1532061616079,-1,1,-3,23,12,28,5,-1
1532061616084,1,-2,-2,-21,6,9,4,3
1532061616089,1,0,-2,-2,-3,0,1,-2
1532061616094,-10,-6,-3,-16,-5,-9,-5,-3
1532061616099,-1,0,0,4,-11,-21,-7,-1
1532061616104,-3,-2,1,8,2,6,1,-1
1532061616109,5,3,1,-2,1,4,3,1
1532061616114,27,12,0,1,-1,-7,-2,1
1532061616119,-44,-12,-4,-9,0,-3,-3,-8
1532061616124,4,-12,-2,2,-6,5,1,1
1532061616129,-13,0,-2,-6,-7,-10,-3,-4
1532061616134,3,-1,0,5,1,4,-2,-1
1532061616139,28,13,1,-7,12,22,12,4
1532061616144,-42,-20,-3,-1,3,-9,-2,-3
1532061616149,0,-2,-1,9,-5,-6,-6,-5
1532061616154,2,-2,-2,-7,-9,-2,-2,1
1532061616159,-9,-1,-2,-5,6,-5,2,2
1532061616164,11,7,1,5,-2,-1,-2,4
1532061616169,-1,-7,-2,0,-6,-15,-3,-2
1532061616174,-7,-4,-4,-2,7,18,-6,-5
1532061616179,24,6,0,-3,10,21,11,4
1532061616184,-17,-5,-3,3,-7,-20,-1,0
1532061616189,-4,4,0,1,6,10,-4,-4
1532061616194,9,-1,3,-2,4,5,10,4
1532061616199,-7,-3,2,-3,-5,-8,0,-1
1532061616204,-1,-1,1,-1,0,-5,-9,-4
1532061616209,18,5,3,-3,-7,-6,1,1
1532061616214,-36,-19,-1,2,6,14,-1,0
1532061616219,11,9,0,0,-4,-3,1,-2
1532061616224,8,4,-2,0,-1,-6,0,0
1532061616229,-1,-2,-1,-3,2,-1,-4,2
1532061616234,-3,2,0,1,0,-2,-1,-5
1532061616239,-8,-4,-2,-6,-8,-13,-9,-4
1532061616244,16,4,0,-4,-8,-5,-1,-4
1532061616249,-7,-11,-1,3,1,4,-4,-1
1532061616254,20,7,0,-2,5,3,2,5
1532061616259,-10,-7,-2,-3,-8,-11,-5,-2
1532061616264,6,6,0,1,3,8,-3,2
1532061616269,8,5,0,2,7,11,9,-1
1532061616274,-3,-1,-2,-2,-5,-9,1,0
1532061616279,-6,-3,-1,-4,-4,-8,-9,-10
1532061616284,-9,-3,-1,0,-3,3,1,-5
1532061616289,0,5,0,-3,5,5,1,2
1532061616294,9,8,-1,-9,-4,-5,0,-2
1532061616299,6,2,1,8,0,-3,-2,2
1532061616304,-1,-3,2,4,-5,-1,-1,1
1532061616309,7,-2,2,-1,-12,-10,-1,2
1532061616314,-9,0,0,1,11,23,8,0
1532061616319,6,1,2,-2,3,-7,-3,3
1532061616324,-6,4,-4,-5,-1,4,2,-1
1532061616329,1,-5,-5,-10,6,1,-1,0
1532061616334,-9,-3,-2,-6,-12,-20,-6,-4
1532061616339,-11,-4,0,-23,-3,6,-3,-5
1532061616344,0,3,0,-3,7,4,2,0
1532061616349,10,10,4,-2,-2,0,-3,-7
1532061616354,-2,-12,0,44,-6,-3,-3,7
1532061616359,17,3,-4,-9,-2,-4,-1,5
1532061616364,-11,-5,2,4,0,-8,-3,-4
1532061616369,11,-4,-9,-47,-6,7,3,8
1532061616374,4,1,-2,3,-2,-5,-5,-11
1532061616379,-13,-5,0,7,-4,-2,-2,-7
1532061616384,12,1,0,10,-2,-1,-2,3
1532061616389,-8,5,2,21,4,1,3,-3
1532061616394,-15,-12,1,-15,-1,2,-3,-1
1532061616399,18,-1,1,18,-2,0,6,11
1532061616404,-16,1,-1,-10,-1,-2,-1,-10
1532061616409,-8,-3,-3,10,0,0,-1,-1
1532061616414,0,4,-3,-9,1,-2,1,-1
1532061616419,-2,2,1,2,-2,-3,-3,-4
1532061616424,-5,-3,3,2,0,-2,0,1
1532061616429,5,-1,0,13,3,2,-1,2
1532061616434,26,7,3,30,10,5,3,3
1532061616439,-12,-3,-3,-67,-12,-1,-1,2
1532061616444,19,8,-2,-16,-12,-6,-2,-4
1532061616449,-25,-12,-7,-15,-6,-7,-5,-6
1532061616454,5,3,7,15,9,7,1,1
1532061616459,6,2,-1,27,5,-6,-3,-1
1532061616464,-1,0,-3,3,-4,0,2,2
1532061616469,-8,-1,3,-2,9,15,5,-1
1532061616474,11,3,-11,-18,0,-1,0,-1
1532061616479,-22,-4,1,8,1,-1,1,0
1532061616484,6,-1,-4,-6,-2,-2,-2,0
1532061616489,-6,-3,-1,12,-6,-10,-4,-2
1532061616494,-7,-3,-2,-16,-7,-9,-4,-4
1532061616499,-3,-2,-2,19,3,4,0,-2
1532061616504,6,0,-1,-1,4,8,0,-1
1532061616509,0,-2,0,-1,-4,-1,-1,0
1532061616514,8,22,-1,-3,-3,-1,0,5
1532061616519,-1,6,3,10,-2,-7,-3,-5
1532061616524,-20,-28,-8,-3,-5,-9,-6,-6
1532061616529,4,2,1,-2,3,8,5,-1
1532061616534,-3,-5,-3,-28,1,8,5,1
1532061616539,13,1,2,13,-2,1,1,5
1532061616544,4,12,-12,5,0,-3,1,3
1532061616549,-11,-7,9,-2,-7,-12,-7,-2
1532061616554,4,6,21,12,-6,-7,-7,-5
1532061616559,-28,-2,-3,-21,0,11,2,0
1532061616564,14,3,0,-9,9,7,2,0
1532061616569,6,-11,-6,6,3,1,2,4
1532061616574,-19,-10,-16,-13,-5,-6,-3,-9
1532061616579,-3,-5,-4,25,0,-5,-9,-6
1532061616584,12,5,1,8,-3,-4,0,2
1532061616589,-7,6,1,6,2,1,0,-3
1532061616594,2,8,1,-14,-2,1,5,1
1532061616599,0,7,0,-12,0,-2,1,-4
1532061616604,4,-11,-3,3,-1,2,1,4
1532061616609,0,2,-2,0,-3,-2,-3,-2
1532061616614,-3,-18,-6,4,0,2,-1,1
1532061616619,12,9,3,-4,0,1,1,3
1532061616624,-5,-6,4,-3,-4,-4,-4,-3
1532061616629,-1,-1,-3,-3,-2,-2,-4,1
1532061616634,8,39,7,3,1,0,1,6
1532061616639,6,-6,3,7,4,1,2,-1
1532061616644,-25,-39,-14,-15,-3,-2,-4,-11
1532061616649,-19,-54,-24,-1,-3,-2,-2,-16
1532061616654,4,5,20,8,-1,-2,-2,1
1532061616659,16,8,-1,-1,2,2,2,8
1532061616664,4,42,8,-3,-8,-10,-5,-3
1532061616669,8,12,-2,-3,-4,-2,3,4
1532061616674,-11,6,-7,-5,3,6,0,-2
1532061616679,0,-5,-2,5,3,-2,0,1
1532061616684,-16,-26,0,5,-3,2,-1,4
1532061616689,-1,36,4,6,4,-1,-3,-4
1532061616694,-1,-19,-7,-21,2,12,2,-2
1532061616699,-16,-26,-5,-16,-8,-20,-8,-7
1532061616704,11,2,-1,2,-1,5,3,-2
1532061616709,-1,8,8,2,1,0,3,1
1532061616714,-1,1,2,14,1,-3,0,-1
1532061616719,6,-4,1,0,-5,0,3,8
1532061616724,-6,9,-2,-36,0,-4,-2,-3
1532061616729,5,-6,8,-1,-4,-3,-6,-3
1532061616734,5,-30,-9,0,-2,-11,-1,-2
1532061616739,-17,7,-3,-3,-4,0,-7,-10
1532061616744,5,1,7,16,6,2,5,6
1532061616749,-5,-1,1,-2,5,13,5,3
1532061616754,3,-1,-3,1,-5,-13,-3,-1
1532061616759,9,5,-3,6,2,-5,-5,1
1532061616764,0,12,3,0,-3,5,3,-1
1532061616769,-14,-12,-5,-7,-2,-4,-2,-3
1532061616774,-4,2,-4,5,-7,-10,-7,-7
1532061616779,8,2,0,-1,5,14,5,2
1532061616784,2,-1,-3,1,1,-1,-3,0
1532061616789,9,0,-1,0,1,-1,3,6
1532061616794,-6,1,-3,-5,-3,-5,-2,-1
1532061616799,-8,-10,0,-3,-8,-10,-6,-5
1532061616804,3,-2,0,7,1,3,4,6
1532061616809,3,10,-2,-7,-5,4,0,-1
1532061616814,-7,-5,-6,-5,8,11,3,-3
1532061616819,11,7,2,-4,-4,-7,1,0
1532061616824,19,7,2,1,-6,-6,-3,-1
1532061616829,-29,-8,2,10,4,-4,-2,-1
1532061616834,-2,-7,-3,-6,1,10,-2,-1
1532061616839,-1,3,-2,3,9,11,4,-4
1532061616844,7,-6,-8,-13,-7,-8,-4,2
1532061616849,-2,-1,-3,-2,2,0,0,0
1532061616854,-3,-3,-2,1,-6,-14,-6,1
1532061616859,0,-3,1,1,-10,0,1,1
1532061616864,-3,2,4,11,15,10,2,1
1532061616869,8,0,0,-2,-1,0,-2,-4
1532061616874,1,0,2,5,-5,-1,1,-3
1532061616879,-15,-9,-2,1,0,-2,-3,-4
1532061616884,15,4,0,-8,2,-2,2,5
1532061616889,1,-8,1,14,-4,-2,-4,-1
1532061616894,-2,1,-4,-20,-2,4,0,-1
1532061616899,1,-1,0,3,0,0,1,-2
1532061616904,-9,-1,-3,2,4,6,1,-5
1532061616909,11,8,4,1,-2,-7,0,1
1532061616914,-6,-14,-1,4,-4,-6,-1,-3
1532061616919,3,5,-4,-6,1,2,0,2
1532061616924,-8,-1,3,6,0,-3,-4,-3
1532061616929,3,1,-9,-15,-11,-8,-2,-1
1532061616934,-1,-6,-2,3,0,2,1,1
1532061616939,-6,-3,-4,-5,3,3,0,-3
1532061616944,1,-2,2,2,-2,0,-1,-1
1532061616949,3,3,2,1,5,6,0,1
1532061616954,0,5,0,0,-3,-3,0,2
1532061616959,-1,-5,-2,0,0,-5,-1,-2
1532061616964,8,3,0,5,-3,0,-1,-1
1532061616969,1,2,0,-4,1,1,-2,-1
1532061616974,0,-1,-1,-2,2,-1,-3,-1
1532061616979,-2,-3,3,1,-2,-3,-1,1
1532061616984,-9,-1,-3,-2,-1,-2,-1,-2
1532061616989,1,-3,-1,-4,-2,4,4,-1
1532061616994,1,4,1,7,1,-3,-2,3
1532061616999,-8,-6,-1,-5,-5,3,-3,-4
1532061617004,-3,5,1,4,2,1,0,-1
1532061617009,1,2,4,6,1,-3,0,2
1532061617014,-2,-7,-7,-9,-2,1,0,1
1532061617019,1,4,0,-1,0,4,4,2
1532061617024,8,0,3,5,2,-2,-3,0
1532061617029,-6,-2,-5,-7,-2,-1,-4,-4
1532061617034,0,1,6,11,2,1,0,-2
1532061617039,2,2,-1,3,2,0,0,1
1532061617044,-10,-7,-14,-20,-8,-6,-3,1
1532061617049,3,-4,3,4,-3,-2,-1,0
1532061617054,-4,-1,-2,-1,2,1,-1,-4
1532061617059,-1,-4,-6,-11,-6,-5,-2,-2
1532061617064,4,14,10,7,-2,-6,1,1
1532061617069,0,4,0,2,1,4,2,4
1532061617074,-6,-14,-10,1,1,3,-1,-3
1532061617079,2,7,8,4,2,3,1,-2
1532061617084,-3,-12,-5,-7,-4,-3,-2,-3
1532061617089,-4,4,-5,-4,-1,-1,-2,-3
1532061617094,0,-1,3,0,0,-2,1,0
1532061617099,-4,-6,1,1,-1,-3,-2,-2
1532061617104,-4,-2,-3,-1,-2,-6,-2,-2
1532061617109,0,-5,-3,3,1,2,1,0
1532061617114,-1,-1,-3,-1,2,1,-3,0
1532061617119,1,-2,-4,-6,-6,-5,0,1
1532061617124,-3,-2,4,4,9,13,3,0
1532061617129,0,-2,0,-3,-1,-4,-3,-1
1532061617134,-1,1,2,-1,-3,-5,-1,-2
1532061617139,0,2,-1,-2,2,-1,0,0
1532061617144,-3,-4,0,3,-5,0,-1,-1
1532061617149,0,0,-1,-2,-4,-5,-3,-3
1532061617154,2,3,2,-2,-4,2,-1,-1
1532061617159,1,-2,0,1,2,0,-1,-2
1532061617164,-3,-2,0,1,-1,0,0,-1
1532061617169,-1,-1,1,0,-2,-5,-1,-2
1532061617174,-4,-2,-1,-4,-3,-5,0,0
1532061617179,0,2,-5,0,0,4,-1,0
1532061617184,-2,-7,-5,2,1,0,0,0
1532061617189,5,2,-2,-2,3,1,1,1
1532061617194,-4,-2,5,7,-3,1,1,-3
1532061617199,2,2,-7,-11,1,-2,-3,0
1532061617204,-4,2,3,-4,-11,-13,-5,-5
1532061617209,1,0,0,1,-2,1,-2,0
1532061617214,3,4,3,3,12,16,8,4
1532061617219,2,-2,2,-6,3,4,-2,-2
1532061617224,-5,-4,-1,3,-3,-5,-1,-2
1532061617229,-2,-3,0,-4,-3,-4,-4,-2
1532061617234,-1,0,-3,-1,-6,-6,0,0
1532061617239,-1,-1,0,4,3,3,0,1
1532061617244,1,0,-3,-6,-7,-7,-3,1
1532061617249,0,2,-1,-2,-5,-4,-1,-2
1532061617254,2,1,-2,1,6,4,0,-1
1532061617259,1,0,-2,2,6,8,3,-3
1532061617264,-3,-9,-2,1,7,9,3,0
1532061617269,-3,0,-1,-4,-4,-5,-4,-1
1532061617274,0,6,1,-5,-8,-9,-7,-2
1532061617279,0,-9,-1,-2,-11,-10,-5,1
1532061617284,1,2,1,-1,3,0,-2,-1
1532061617289,-1,-5,0,-1,2,9,3,1
1532061617294,1,3,-1,0,3,2,3,0
1532061617299,-3,0,0,1,-3,-4,-3,-5
1532061617304,-1,1,-1,1,0,-1,2,1
1532061617309,0,-2,-1,1,2,6,4,0
1532061617314,-1,3,-1,-5,-3,-5,-2,-1
1532061617319,-1,-2,-2,-1,-1,-4,0,1
1532061617324,-1,2,-1,-2,-3,-8,-7,-4
1532061617329,-1,-7,-2,-1,-3,0,-1,-1
1532061617334,1,0,0,3,6,11,1,1
1532061617339,-1,-2,0,-3,-4,-7,-2,-2
1532061617344,0,-2,-1,-3,-3,0,-3,-3
1532061617349,2,2,0,1,0,-2,3,1
1532061617354,-2,-3,-4,-4,4,-1,1,-2
1532061617359,1,6,1,4,-3,1,-1,0
1532061617364,-1,5,-4,-8,5,10,6,3
1532061617369,-3,-11,0,1,4,-4,-4,-4
1532061617374,-1,-4,-3,-6,-8,-11,-4,0
1532061617379,0,-1,-4,-5,-1,-2,-1,-3
1532061617384,-5,-4,0,-3,-9,-5,1,-2
1532061617389,-1,6,0,0,3,9,2,2
1532061617394,2,-4,-1,4,11,6,6,3
1532061617399,-2,0,1,2,0,-4,-5,-1
1532061617404,0,-5,2,3,-6,-7,-9,-2
1532061617409,-1,-2,-5,-8,-12,-9,-6,-4
1532061617414,-2,3,1,3,4,3,0,2
1532061617419,0,1,-1,-3,-6,-4,4,1
1532061617424,4,1,1,3,5,12,3,0
1532061617429,-2,2,1,4,3,-3,1,-1
1532061617434,2,-1,1,-3,-6,-1,-5,-3
1532061617439,-1,-2,0,-3,-4,-3,1,-1
1532061617444,-2,-3,0,1,-3,-12,-4,-2
1532061617449,-2,2,-1,1,5,10,7,-2
1532061617454,-1,1,0,-4,-5,-9,-2,-3
1532061617459,0,0,-1,-1,3,4,2,-2
1532061617464,0,2,1,3,-2,-6,-3,0
1532061617469,1,0,-1,-5,-5,-4,1,1
1532061617474,-2,-2,0,9,11,15,-5,-1
1532061617479,-2,-2,1,0,2,5,3,2
1532061617484,2,2,2,2,0,0,1,-1
1532061617489,-3,-14,4,6,-4,-9,-5,-2
1532061617494,-5,6,-6,-18,-13,-12,-10,-7
1532061617499,-1,-8,0,-2,-5,-2,-3,2
1532061617504,1,-3,-4,-1,9,13,15,-1
1532061617509,3,5,2,3,4,6,20,7
1532061617514,4,2,4,12,4,6,-12,-4
1532061617519,-4,-10,-14,-20,-9,-10,12,-2
1532061617524,-4,6,-1,-2,-2,-8,-11,1
1532061617529,0,2,2,3,1,6,-9,3
1532061617534,-2,-2,1,2,2,3,19,0
1532061617539,2,2,2,3,3,-1,-14,-3
1532061617544,2,-2,1,-4,-4,-1,-2,-1
1532061617549,0,-2,-6,-16,-9,-14,-4,-4
1532061617554,-2,-7,3,10,-6,-7,-8,-3
1532061617559,1,5,0,7,6,7,1,-1
1532061617564,-2,-3,-3,-13,-10,-6,0,4
1532061617569,-1,4,0,6,3,9,1,-8
1532061617574,-1,-4,-1,-3,8,2,12,3
1532061617579,0,-1,-3,1,4,0,-2,2
1532061617584,0,2,-5,2,3,9,17,1
1532061617589,-6,-12,-11,-19,-9,-10,-13,-5
1532061617594,0,8,2,-4,-10,-8,-11,2
1532061617599,-6,-18,5,0,-3,-2,-5,-10
1532061617604,-1,8,5,5,4,5,1,2
1532061617609,1,3,0,-3,1,-1,-6,-3
1532061617614,0,0,-3,-2,-2,-2,7,3
1532061617619,0,1,-1,6,-2,-3,-1,1
1532061617624,1,-2,-2,0,-3,-3,-14,-6
1532061617629,0,9,-1,5,2,1,16,6
1532061617634,-1,-9,-2,0,2,2,-10,1
1532061617639,0,7,-1,0,0,-2,6,2
1532061617644,-1,2,-1,-5,3,-1,-5,-7
1532061617649,-3,-3,-2,2,-3,-10,-12,2
1532061617654,-2,-3,-1,-5,-10,1,5,-5
1532061617659,1,2,0,4,0,10,2,2
1532061617664,-2,-3,-6,-10,10,4,0,-1
1532061617669,3,7,5,11,6,9,0,3
1532061617674,1,3,-2,0,1,-3,-3,1
1532061617679,0,-2,-1,-10,0,-4,-2,-3
1532061617684,-3,-5,0,3,-5,-5,-5,-3
1532061617689,-2,-6,1,13,-6,-11,-1,-4
1532061617694,-1,-4,-2,-4,0,4,1,-3
1532061617699,1,11,2,-1,2,-3,-5,2
1532061617704,1,-1,1,-5,-2,-2,1,2
1532061617709,0,-6,-3,-3,1,-2,-4,-2
1532061617714,-4,-2,-5,-2,-9,-3,2,0
1532061617719,-1,2,-2,1,-2,2,2,-1
1532061617724,3,-4,0,6,4,6,1,2
1532061617729,0,4,0,-4,1,-1,2,-3
1532061617734,-4,-11,5,6,5,-1,1,0
1532061617739,0,-6,-12,-15,-3,-4,-3,-1
1532061617744,-4,0,0,4,-4,-4,-3,-2
1532061617749,0,2,-1,-1,-3,-1,-3,0
1532061617754,0,10,-2,-7,-4,-8,-2,0
1532061617759,-2,-13,-1,7,1,0,-2,-1
1532061617764,0,0,2,6,-5,-14,-3,-2
1532061617769,2,4,3,-3,8,12,1,-2
1532061617774,2,-1,-5,-5,6,5,6,2
1532061617779,-4,2,3,9,2,4,-2,-5
1532061617784,-1,5,-6,-13,-6,-1,4,0
1532061617789,-3,-9,0,5,3,-3,-1,0
1532061617794,-1,0,-3,-11,-13,-10,-7,-6
1532061617799,3,6,5,5,-1,-1,0,3
1532061617804,1,1,-2,-5,6,9,1,-2
1532061617809,0,-8,0,8,-1,-1,-6,-1
1532061617814,0,-1,0,3,3,2,2,-2
1532061617819,0,3,-2,-3,-1,0,2,3
1532061617824,1,10,8,13,-8,-3,0,3
1532061617829,-2,-6,-4,-11,-1,-1,-6,-1
1532061617834,1,-6,-1,1,-3,-4,-3,-1
1532061617839,1,13,4,1,3,2,1,-1
1532061617844,-2,-11,-2,-4,1,-1,-1,2
1532061617849,-3,4,-4,-6,-3,-3,-8,3
1532061617854,-4,0,-2,-2,-3,1,7,-13
1532061617859,-2,-3,4,16,1,-3,-3,-1
1532061617864,3,0,-4,-17,-2,4,0,-1
1532061617869,-1,-4,-3,2,0,-1,1,-1
1532061617874,-3,-4,-3,5,-5,0,-5,0
1532061617879,1,1,-3,-6,-1,0,3,0
1532061617884,-5,-9,0,3,2,-4,-3,-5
1532061617889,2,6,3,-7,-5,-5,-1,0
1532061617894,0,-2,-5,3,1,-2,-4,3
1532061617899,0,-2,-2,-3,-3,-5,-4,-3
1532061617904,0,14,2,1,-7,-1,3,-2
1532061617909,-1,-1,0,-2,5,5,-1,-1
1532061617914,-1,-5,-5,-5,5,-1,-1,0
1532061617919,0,6,-5,-16,-4,2,-3,-2
1532061617924,1,-1,0,-1,-4,-6,-3,2
1532061617929,-4,-5,2,8,0,5,1,0
1532061617934,-4,-13,-9,-17,-3,0,1,-1
1532061617939,1,-1,2,14,3,2,-1,-2
1532061617944,4,8,4,5,-3,-3,-1,0
1532061617949,4,6,0,-22,-4,-2,-2,-1
1532061617954,-4,-9,3,9,5,4,6,0
1532061617959,0,3,-1,-17,-5,-6,-3,-1
1532061617964,2,0,-6,1,3,-4,-3,0
1532061617969,-1,3,2,25,-7,-1,-3,1
1532061617974,-5,-7,-2,-3,8,7,2,-1
1532061617979,0,1,3,11,-1,4,-2,-1
1532061617984,1,0,-5,-22,-3,-1,-3,-4
1532061617989,-1,2,-2,-10,-13,-14,0,-1
1532061617994,-1,-2,0,1,-3,-6,-2,-1
1532061617999,0,-13,-1,2,6,3,-1,1
1532061618004,1,6,2,3,1,5,4,1
1532061618009,-2,-4,-7,-10,4,4,3,-1
1532061618014,1,4,4,13,3,3,0,1
1532061618019,-3,2,-2,-1,-10,-15,-6,-5
1532061618024,-1,-2,-1,-1,-1,-1,-2,-1
1532061618029,2,4,1,-2,2,-5,0,3
1532061618034,-7,-8,-4,-3,3,7,-1,-2
1532061618039,-2,0,0,4,4,3,2,-2
1532061618044,1,0,0,0,0,3,2,0
1532061618049,-1,7,1,-1,-9,-5,-4,-3
1532061618054,1,-2,-3,-1,2,-5,-4,2
1532061618059,-3,2,-1,-3,-1,5,-7,-5
1532061618064,-4,2,4,8,-2,-12,2,3
1532061618069,-2,-9,-7,-4,-4,-4,-1,3
1532061618074,3,-6,2,5,3,9,7,1
1532061618079,-2,-6,-7,-6,7,8,1,-2
1532061618084,1,1,0,-5,-3,-7,-7,-4
1532061618089,0,-1,0,-1,-2,-1,-2,-3
1532061618094,5,11,0,0,-9,-8,-2,-1
1532061618099,-3,-9,-2,-3,-3,-1,-1,-3
1532061618104,0,2,4,8,9,11,4,-2
1532061618109,-1,-9,-8,-11,5,8,5,0
1532061618114,-1,4,-2,-1,-4,-8,-5,-4
1532061618119,2,-1,0,0,-7,-6,3,0
1532061618124,-1,3,3,-4,-3,-9,-7,0
1532061618129,-2,-3,-1,-2,-1,1,-4,-5
1532061618134,-4,-12,0,7,3,10,4,1
1532061618139,0,3,1,0,4,-3,-1,1
1532061618144,-1,-5,-4,-5,0,5,2,0
1532061618149,1,1,1,4,4,5,2,-2
1532061618154,-3,4,-1,-4,-6,-12,-10,-6
1532061618159,2,0,2,-1,-9,-5,-2,0
1532061618164,0,4,6,9,-1,0,0,-1
1532061618169,-5,-10,-12,-9,1,3,0,-2
1532061618174,0,4,-2,-6,-4,-5,-3,-3
1532061618179,0,-5,1,3,-5,0,-6,-1
1532061618184,1,5,-2,-5,3,-1,3,3
1532061618189,1,-5,6,9,6,6,-2,0
1532061618194,-2,-5,-2,-4,0,2,3,-3
1532061618199,-1,1,0,2,2,-3,-2,0
1532061618204,-2,-3,0,-1,-5,2,-2,1
1532061618209,0,-1,-1,0,2,1,2,1
1532061618214,0,0,-2,-9,-2,-5,-3,-1
1532061618219,-2,-3,-2,-1,1,-1,1,-3
1532061618224,0,-2,-2,0,-3,0,-2,-4
1532061618229,0,5,0,-6,3,2,0,1
1532061618234,2,9,3,6,-8,-3,-3,1
1532061618239,-2,-18,1,7,-1,-5,-3,1
1532061618244,-1,-3,-7,-9,-1,-1,-3,-2
1532061618249,2,3,-1,5,-3,12,3,0
1532061618254,-4,-7,0,-2,12,3,2,-1
1532061618259,1,6,3,1,-2,-3,-1,-1
1532061618264,0,-1,-7,-5,-3,-4,0,-2
1532061618269,-1,-3,1,-1,-3,-13,-3,-1
1532061618274,0,2,-2,-1,-3,5,0,-1
1532061618279,-1,4,2,3,3,-1,1,-2
1532061618284,-3,-3,-5,-7,-2,3,-2,4
1532061618289,-1,9,2,2,-1,-3,-1,-1
1532061618294,8,2,1,7,0,-2,1,-2
1532061618299,-11,-10,-1,-8,-1,-1,4,24
1532061618304,-4,1,-7,-7,-3,0,-5,-27
1532061618309,-1,-5,3,6,1,-6,-3,-1
1532061618314,1,8,5,9,-4,-2,-3,-6
1532061618319,1,2,-7,-10,0,2,0,0
1532061618324,-2,-9,1,-4,0,-4,0,4
1532061618329,-2,-3,-2,2,-2,1,-1,-5
1532061618334,-2,-3,-1,-4,-3,-4,0,3
1532061618339,3,5,0,6,-1,0,0,-4
1532061618344,1,4,0,0,-4,-1,0,4
1532061618349,1,-2,-4,-1,4,0,-2,-5
1532061618354,-1,0,1,1,6,1,-1,5
1532061618359,1,-4,-6,-16,7,6,2,-3
1532061618364,-3,-7,4,14,-3,-3,-2,-3
1532061618369,-1,-3,1,1,-6,-9,-1,1
1532061618374,-4,0,-3,-6,-5,-4,-1,-1
1532061618379,1,0,-1,-1,-3,-4,-1,-7
1532061618384,3,4,1,-2,1,0,2,6
1532061618389,-5,-10,-15,-17,-3,-3,-2,-1
1532061618394,-2,0,-1,0,-3,2,-1,-1
1532061618399,0,3,1,2,0,-4,-2,-4
1532061618404,0,4,2,3,0,3,0,4
1532061618409,0,1,4,8,-1,-2,0,1
1532061618414,1,1,-1,3,5,2,2,-1
1532061618419,-2,-3,-3,2,4,6,0,-1
1532061618424,-1,-4,-6,-20,-2,-1,1,0
1532061618429,0,-1,6,3,0,1,-1,0
1532061618434,-1,-5,-2,-9,-5,-5,-4,-1
1532061618439,-1,1,6,11,-6,-3,-1,-2
1532061618444,-1,0,-3,9,6,0,1,0
1532061618449,3,0,-2,-7,1,-2,1,-4
1532061618454,-2,-2,0,0,-7,-9,-1,3
1532061618459,1,-2,-7,-13,-1,-1,-2,-1
1532061618464,-2,-4,6,14,0,-3,0,-3
1532061618469,-4,-3,-4,-22,0,10,2,3
1532061618474,2,3,0,8,4,-5,-1,-2
1532061618479,3,15,3,-6,0,2,-1,-2
1532061618484,-1,-7,-4,0,-3,1,1,-1
1532061618489,0,-4,4,19,11,7,3,-3
1532061618494,-3,-12,-5,-13,-1,-2,-1,-1
1532061618499,-1,5,-2,-4,-5,-4,-4,-2
1532061618504,3,5,4,7,0,-5,-2,-1
1532061618509,1,1,-3,-2,-6,-5,-3,2
1532061618514,-1,-3,-1,6,1,4,1,-1
1532061618519,-2,-4,-2,6,-2,-3,-2,-4
1532061618524,-1,-1,-8,-17,-5,-2,-3,0
1532061618529,-2,4,3,5,-3,-2,2,-3
1532061618534,9,2,-1,-7,-3,-3,0,2
1532061618539,-19,-11,-9,-7,-1,0,-2,-5
1532061618544,0,3,3,3,11,12,1,2
1532061618549,1,0,1,6,-3,-9,-5,-2
1532061618554,0,4,-6,-19,-6,-4,-6,-1
1532061618559,3,-3,0,8,-1,3,1,1
1532061618564,6,-2,0,12,8,9,5,4
1532061618569,-11,-1,0,-6,0,1,0,-2
1532061618574,-1,1,3,13,2,1,0,0
1532061618579,4,8,0,-3,-4,-4,-2,-4
1532061618584,-6,-14,-7,-15,-9,-10,-7,-6
1532061618589,6,2,2,10,-1,-3,-1,1
1532061618594,-3,-1,-1,-3,-5,-6,-1,-4
1532061618599,3,2,2,0,3,8,1,2
1532061618604,1,2,2,4,1,3,1,1
1532061618609,2,5,0,0,2,2,1,4
1532061618614,-3,7,-6,-10,-10,-2,-2,2
1532061618619,-5,-20,-3,1,-3,-8,-4,-3
1532061618624,-2,7,2,4,-1,3,3,0
1532061618629,-3,-1,-1,0,-4,-3,-5,-2
1532061618634,-2,-1,0,-1,2,-6,0,-3
1532061618639,3,2,1,7,9,15,6,2
1532061618644,-2,-1,0,3,2,1,-1,-4
1532061618649,-2,-12,-7,-15,-5,-10,-3,-3
1532061618654,1,3,1,6,-5,0,-2,0
1532061618659,1,1,3,8,-1,-7,-3,0
1532061618664,-1,6,-5,-9,0,1,-1,-1
1532061618669,0,-1,0,1,1,-1,0,2
1532061618674,-6,-17,-3,-11,-4,-2,-3,-1
1532061618679,1,-1,0,-4,-6,-1,1,-1
1532061618684,-2,3,2,-2,-8,-11,-4,-2
1532061618689,3,-1,2,3,0,0,1,2
1532061618694,-5,-6,-2,-1,4,17,2,-3
1532061618699,1,0,-1,5,5,3,1,0
1532061618704,-2,1,1,-2,-3,-5,-2,0
1532061618709,-4,3,-3,-5,-4,-6,-6,-2
1532061618714,-1,-7,1,3,-6,-9,0,-1
1532061618719,0,-3,-2,-2,6,12,2,1
1532061618724,-1,-6,0,3,-1,-2,1,-1
1532061618729,-1,2,-2,-2,-2,-2,-1,-1
1532061618734,-1,3,0,-2,1,1,-3,-1
1532061618739,1,4,-1,-2,-6,-8,-2,-4
1532061618744,0,-3,-3,-3,2,-4,-2,2
1532061618749,-1,-2,0,2,-2,9,0,0
1532061618754,-1,0,1,4,5,5,3,-2
1532061618759,-2,-3,-4,-4,-3,-3,-3,3
1532061618764,0,-1,0,-1,-5,-9,-2,6
1532061618769,-1,0,0,-1,-1,8,3,-21
1532061618774,4,1,-1,2,10,7,0,1
1532061618779,1,2,1,1,-4,7,4,-2
1532061618784,-1,-3,-2,0,10,3,4,-5
1532061618789,1,-1,-1,2,1,1,-1,19
1532061618794,-1,1,1,0,3,3,-1,-12
1532061618799,-5,0,0,-1,-5,-14,-4,-13
1532061618804,-1,0,-3,-5,-12,-7,0,9
1532061618809,7,-1,2,0,2,-6,-8,19
1532061618814,-15,-4,-3,2,2,2,9,-5
1532061618819,5,-3,-2,-6,-7,-16,-10,2
1532061618824,4,-1,-2,-2,-3,12,3,16
1532061618829,-1,2,2,10,6,1,-4,-23
1532061618834,13,-2,-3,-17,-9,-10,-32,-17
1532061618839,-8,-3,-1,8,5,6,38,21
1532061618844,-13,-4,-3,-17,-7,-10,-16,-11
1532061618849,0,1,-1,0,4,21,15,15
1532061618854,-2,0,-1,-4,2,0,-12,-12
1532061618859,2,-3,-3,2,-15,-13,-21,-13
1532061618864,-1,-3,0,-8,-9,-9,8,-6
1532061618869,1,2,4,13,20,20,0,0
1532061618874,-8,2,7,15,6,10,16,2
1532061618879,9,2,-8,-13,3,1,-9,2
1532061618884,2,1,0,-3,-6,2,9,9
1532061618889,-3,-4,-6,-13,-23,-32,-13,-42
1532061618894,10,1,1,1,4,9,1,17
1532061618899,-9,-2,2,4,1,-2,-6,-48
1532061618904,-7,1,1,15,5,2,-28,28
1532061618909,4,-2,-4,-14,-4,-3,22,38
1532061618914,-5,-3,0,6,-4,-8,29,-25
1532061618919,-3,0,0,-3,-2,-6,-5,-8
1532061618924,3,-1,0,3,2,3,-10,-12
1532061618929,-2,-1,1,7,-3,1,-5,6
1532061618934,-2,-3,-5,-15,0,-8,-10,4
1532061618939,2,-1,1,1,-14,-13,-9,13
1532061618944,4,-2,7,13,10,26,33,57
1532061618949,-5,1,2,2,14,9,-12,-31
1532061618954,0,0,-9,-17,-9,-4,-3,5
1532061618959,-6,-6,-4,-14,4,-4,1,-8
1532061618964,10,-2,1,18,1,-4,-11,-5
1532061618969,-21,-2,0,11,-2,-2,5,-7
1532061618974,2,-3,-4,-39,-10,-1,-1,26
1532061618979,14,8,-3,-7,1,0,-5,8
1532061618984,-27,-6,2,20,-5,-8,1,-28
1532061618989,9,4,-1,-17,-6,-7,-17,18
1532061618994,-1,3,2,18,6,6,2,-12
1532061618999,-10,-9,-1,-2,6,6,19,-3
1532061619004,4,2,-3,-18,3,3,-8,-25
1532061619009,11,0,-2,0,-3,-8,-3,21
1532061619014,-7,-2,1,12,1,-3,-6,-1
1532061619019,25,4,4,8,1,4,-3,29
1532061619024,-1,0,-3,-9,7,-3,2,-33
1532061619029,-9,-11,-5,-5,-25,-21,0,-13
1532061619034,4,0,3,18,6,8,2,0
1532061619039,-8,1,-2,8,14,15,5,3
1532061619044,5,-1,-2,-19,4,4,3,-11
1532061619049,0,0,0,5,-5,-6,-2,2
1532061619054,2,-4,-8,-8,-13,-11,-2,6
1532061619059,-10,-3,1,-13,-2,4,-2,-4
1532061619064,21,5,-3,3,8,6,4,10
1532061619069,-33,-5,1,9,2,1,3,-10
1532061619074,6,-5,-1,-13,-7,-4,-2,3
1532061619079,-14,2,0,8,-2,-3,-4,2
1532061619084,37,3,1,7,-9,-2,7,0
1532061619089,1,0,-3,15,7,3,0,-2
1532061619094,-11,-5,0,4,3,-4,-1,-6
1532061619099,-4,-4,-7,0,2,-6,-2,3
1532061619104,-22,-6,-1,-40,-10,3,2,-4
1532061619109,84,14,-1,15,11,3,8,16
1532061619114,-54,-10,-3,-19,-7,-9,-11,-12
1532061619119,6,-3,1,4,-6,-4,1,-4
1532061619124,-22,-7,0,16,-1,-4,-5,-10
1532061619129,1,-5,-2,4,8,12,7,3
1532061619134,6,6,0,-4,-1,9,-1,4
1532061619139,6,4,2,40,4,-3,-4,0
1532061619144,-3,-6,-7,-38,-17,-11,-4,-3
1532061619149,-18,-1,-3,-24,-12,-6,-3,-5
1532061619154,20,8,5,17,15,5,3,7
1532061619159,-9,-2,0,11,4,9,0,1
1532061619164,-4,0,-3,11,9,-3,-2,-4
1532061619169,-18,-8,1,26,-2,-4,-4,-9
1532061619174,5,-1,2,2,-10,-7,-2,0
1532061619179,10,4,2,6,-1,-2,1,0
1532061619184,-6,2,-1,-15,-1,-3,-3,-1
1532061619189,-3,-1,-6,-38,2,0,4,-2
1532061619194,0,-3,2,36,2,7,2,-2
1532061619199,-8,0,-1,-17,-1,-2,-2,0
1532061619204,13,5,-1,9,-3,-3,-2,4
1532061619209,-8,-4,-1,-2,-7,-15,-3,-5
1532061619214,18,6,0,-15,4,9,3,1
1532061619219,-17,-16,-2,-17,5,10,6,-2
1532061619224,9,8,-2,-1,1,-1,-2,-2
1532061619229,-12,-5,1,21,-4,-6,-5,-5
1532061619234,-6,4,-1,-20,-14,-15,3,-2
1532061619239,2,8,1,-15,-6,-3,-3,2
1532061619244,-11,-24,2,20,2,2,2,-5
1532061619249,-11,5,2,-9,10,16,4,0
1532061619254,4,10,-1,18,8,4,0,2
1532061619259,5,14,0,-17,-6,-9,-2,-2
1532061619264,15,-24,-1,16,-2,-1,-1,1
1532061619269,-19,-10,-4,-5,-3,-5,-5,-3
1532061619274,0,-1,-2,16,3,6,-2,-1
1532061619279,1,12,-2,-43,-9,0,6,-1
1532061619284,-4,11,2,1,-4,-5,-7,-2
1532061619289,11,-3,1,0,2,7,4,1
1532061619294,2,-1,-1,-2,7,-2,-1,2
1532061619299,1,-6,-1,-2,-3,-2,-4,-6
1532061619304,-3,-3,0,14,-4,-5,-1,-1
1532061619309,0,2,-1,-7,-1,-4,-1,-4
1532061619314,5,-1,-1,-1,1,5,-1,0
1532061619319,7,-3,-2,-17,3,2,0,1
1532061619324,-7,16,4,-5,2,5,-3,-2
1532061619329,-2,-8,0,5,-8,-1,-2,1
1532061619334,6,31,5,2,8,-1,1,-1
1532061619339,-1,-44,-2,7,-6,-3,1,1
1532061619344,-18,-49,-20,-8,2,0,-2,-6
1532061619349,-1,-10,0,-8,-3,-5,-6,-4
1532061619354,-3,-9,-3,-15,-7,-7,-3,-2
1532061619359,3,32,6,14,-2,1,-4,0
1532061619364,2,24,3,-2,1,-2,2,5
1532061619369,7,14,0,4,5,7,0,1
1532061619374,3,-16,0,-11,-16,-12,3,0
1532061619379,-26,-8,-1,22,3,-4,-5,-5
1532061619384,3,4,1,-2,-3,2,2,0
1532061619389,5,7,1,-7,-2,1,4,2
1532061619394,-4,-10,-1,16,10,8,2,3
1532061619399,1,-8,-5,-15,-5,-5,-1,0
1532061619404,2,9,5,0,1,5,-3,-2
1532061619409,-5,5,0,-4,-7,-8,-5,-3
1532061619414,1,2,2,11,4,-1,2,1
1532061619419,1,-10,-4,-5,-1,2,0,-4
1532061619424,-8,11,1,33,7,-5,0,-3
1532061619429,5,2,3,-34,-13,-5,-5,-1
1532061619434,5,21,-3,-5,3,8,5,3
1532061619439,-1,-12,-2,11,5,4,-2,-3
1532061619444,-9,-37,-15,-17,-4,-9,-1,-4
1532061619449,-4,3,-3,1,-3,1,-7,-6
1532061619454,-13,-10,2,12,3,0,-3,3
1532061619459,11,32,0,-14,9,8,5,-1
1532061619464,6,9,2,-5,-8,-6,-2,9
1532061619469,-5,-7,-2,9,4,0,0,-9
1532061619474,0,3,-3,-17,-2,-3,-5,7
1532061619479,2,2,2,16,0,1,-3,-19
1532061619484,-1,-4,1,10,6,11,3,2
1532061619489,8,3,-3,-25,-9,-11,-20,2
1532061619494,-8,-8,-3,16,-12,-17,15,-6
1532061619499,-7,3,-1,1,1,9,-8,6
1532061619504,-1,-5,-1,-15,-9,-3,-2,-3
1532061619509,3,12,1,19,4,3,7,1
1532061619514,1,-9,0,-29,9,10,-6,-1
1532061619519,-2,-12,2,39,-4,-7,-11,-1
1532061619524,1,37,11,9,-11,-13,15,4
1532061619529,1,-3,-2,-2,5,6,-6,1
1532061619534,8,-16,-2,15,-7,-8,-4,-2
1532061619539,-9,-22,-6,-41,6,1,5,-7
1532061619544,-16,-13,-9,-2,-5,-2,-28,0
1532061619549,-3,13,4,9,-1,-1,17,-11
1532061619554,4,-4,0,3,-4,-12,-3,0
1532061619559,8,5,-2,-7,-10,-5,3,3
1532061619564,7,21,4,8,12,13,1,3
1532061619569,-4,-23,-5,0,10,10,3,4
1532061619574,-7,1,-3,-9,-5,0,-7,-6
1532061619579,-2,-7,-4,4,-5,-6,-1,3
1532061619584,5,11,-5,-8,-1,-5,-5,-8
1532061619589,2,6,-2,-2,-2,1,9,6
1532061619594,1,-8,1,-3,7,7,0,2
1532061619599,-8,-12,-3,8,-8,-7,-4,-2
1532061619604,3,10,3,9,4,1,1,-5
1532061619609,1,0,2,-5,4,0,-2,-1
1532061619614,-3,-2,-4,4,0,-3,1,-2
1532061619619,3,4,3,3,-3,-9,-4,2
1532061619624,-4,-29,-6,-14,-5,1,2,-4
1532061619629,-1,3,-4,14,13,3,1,1
1532061619634,-10,-7,-1,-42,-14,-4,-3,-6
1532061619639,1,0,0,20,-7,-2,0,-1
1532061619644,6,7,4,-4,2,-2,4,2
1532061619649,0,6,0,5,4,-6,-1,3
1532061619654,0,-22,-8,-22,-10,-4,-5,-4
1532061619659,-1,-11,-2,0,18,21,8,0
1532061619664,-5,-13,3,12,4,4,-3,0
1532061619669,-4,-14,-1,-8,-9,-5,-2,-3
1532061619674,2,17,3,25,6,-12,-2,0
1532061619679,5,13,1,-8,-5,0,-2,4
1532061619684,3,13,2,0,0,3,4,0
1532061619689,0,-1,1,-16,0,5,2,-1
1532061619694,-5,-15,-3,-10,-4,2,-1,-3
1532061619699,-6,-22,-11,15,-5,-11,-4,-4
1532061619704,1,10,0,-2,1,3,2,0
1532061619709,3,6,3,17,-3,-2,-1,2
1532061619714,-2,4,-2,-25,-8,-2,1,0
1532061619719,-7,20,3,-5,0,-6,-1,-1
1532061619724,2,5,2,-13,-6,-10,-2,2
1532061619729,2,-16,0,-12,0,12,3,2
1532061619734,-6,-24,-6,46,15,15,2,-3
1532061619739,0,1,5,9,-1,-1,-3,-2
1532061619744,3,14,0,-36,-2,-3,1,-1
1532061619749,0,8,0,17,-10,-11,-2,2
1532061619754,-6,-9,-2,17,4,-3,-3,-5
1532061619759,5,12,-2,-33,1,-4,-1,-1
1532061619764,0,1,2,11,-3,3,2,1
1532061619769,-1,-6,-3,-31,-7,-8,-1,1
1532061619774,-1,9,-3,-6,-5,-1,-4,-3
1532061619779,-1,7,-2,16,6,5,3,-2
1532061619784,-5,-5,-4,-11,1,0,-1,-5
1532061619789,-3,-6,-5,-11,-10,-4,-1,-2
1532061619794,3,15,3,7,-2,-1,-1,0
1532061619799,-1,5,3,1,7,2,1,0
1532061619804,-1,-16,0,6,2,-1,-1,1
1532061619809,-4,-1,-6,5,-4,-2,0,-4
1532061619814,2,10,6,12,-1,1,0,2
1532061619819,3,-12,-2,-19,-9,-2,1,1
1532061619824,2,7,2,8,5,0,-2,0
1532061619829,-9,-28,-4,2,1,-4,-6,-8
1532061619834,7,14,-1,-39,-6,-1,3,1
1532061619839,-3,-13,1,0,1,3,1,1
1532061619844,-3,0,-3,12,0,-1,-3,-2
1532061619849,8,15,5,-4,2,-2,1,2
1532061619854,-1,0,-2,-5,0,-2,-2,2
1532061619859,-5,-19,-3,-2,-5,-5,-1,-3
1532061619864,-7,-9,-8,-10,-21,-10,-6,-3
1532061619869,-7,-5,0,15,1,-1,-1,-1
1532061619874,6,5,2,-6,14,18,5,0
1532061619879,1,6,0,-7,-2,-3,-1,-1
1532061619884,-1,-14,-2,-2,7,2,0,-2
1532061619889,2,9,0,-19,-6,-3,-3,0
1532061619894,2,0,4,41,-5,-8,-4,2
1532061619899,4,14,3,9,-4,-4,-1,1
1532061619904,-1,-4,0,4,6,4,3,-2
1532061619909,-5,-22,-10,14,3,-4,1,-2
1532061619914,-3,7,2,-32,-3,2,-1,-3
1532061619919,5,9,0,-3,-1,-1,-1,0
1532061619924,1,-8,-5,-11,-12,-7,-5,7
1532061619929,-11,1,2,10,4,0,-8,-17
1532061619934,-10,-4,2,6,4,3,2,-5
1532061619939,7,8,-4,-9,-9,1,2,5
1532061619944,-11,0,8,9,-2,-7,-6,-9
1532061619949,6,9,2,23,-7,2,0,8
1532061619954,-12,-22,-6,15,-1,-3,-5,-1
1532061619959,8,6,4,-12,2,1,-2,-4
1532061619964,13,5,-3,-26,8,3,7,8
1532061619969,-7,0,-1,2,1,5,4,1
1532061619974,0,-2,-1,14,-3,-9,-5,-6
1532061619979,-12,1,0,12,-2,-9,-2,-3
1532061619984,2,0,4,13,15,13,0,1
1532061619989,7,23,-1,-38,-2,1,2,3
1532061619994,17,-5,-2,37,12,5,4,1
1532061619999,-26,-65,-20,-16,-27,-13,-19,-13
1532061620004,-8,13,-1,22,-11,-10,0,-7
1532061620009,12,20,6,12,4,-2,4,3
1532061620014,5,12,5,-58,8,1,4,3
1532061620019,-11,-22,-12,38,-6,-1,-9,-3
1532061620024,0,-1,1,17,7,8,6,2
1532061620029,-1,-8,3,11,6,2,-1,1
1532061620034,4,17,6,9,16,-23,-2,3
1532061620039,6,11,8,-15,-11,22,3,-3
1532061620044,-4,-3,-6,-21,-26,6,0,-2
1532061620049,20,-1,-4,7,2,1,3,3
1532061620054,-31,-28,-9,-50,-23,-18,-8,0
1532061620059,3,17,5,3,13,0,2,0
1532061620064,1,16,4,19,8,1,3,-1
1532061620069,-3,-5,0,2,0,6,1,1
1532061620074,11,-13,-7,9,-5,-1,-1,-5
1532061620079,3,10,2,7,6,-5,0,3
1532061620084,14,-5,-3,-18,-8,-4,-10,0
1532061620089,-32,0,1,-3,9,-1,12,-2
1532061620094,20,5,-3,-16,-3,4,-3,4
1532061620099,0,13,2,-16,10,4,7,-1
1532061620104,9,-2,0,16,3,-1,-6,3
1532061620109,19,-6,0,2,-8,-13,-12,-2
1532061620114,-39,-5,-5,11,-1,5,5,-8
1532061620119,17,15,6,-14,-1,6,1,5
1532061620124,-9,3,-1,-12,5,-3,-3,0
1532061620129,-13,-38,-5,-5,-1,1,-4,-1
1532061620134,-2,-3,-7,13,-13,-4,-10,-6
1532061620139,13,7,2,6,10,-3,14,3
1532061620144,-11,-7,-4,-1,0,-3,-4,-5
1532061620149,1,10,0,-4,-12,-18,-14,-5
1532061620154,11,-6,2,9,-3,9,-4,4
1532061620159,-11,5,0,3,4,-5,17,9
1532061620164,15,-4,1,8,5,8,4,-9
1532061620169,-8,-5,-11,-54,1,15,2,-5
1532061620174,14,12,3,6,1,0,1,0
1532061620179,-19,-17,-5,-12,-4,-6,-13,0
1532061620184,-2,-2,-4,8,-8,-8,0,1
1532061620189,-9,6,1,17,-2,-4,-2,-2
1532061620194,0,7,1,-6,0,-3,-4,-1
1532061620199,-1,-5,2,14,-2,-1,0,0
1532061620204,10,-10,-4,-26,-3,-5,2,3
1532061620209,-7,-12,-2,3,3,1,-2,-9
1532061620214,6,6,3,1,-3,2,4,4
1532061620219,-17,-10,-6,9,8,5,-2,-9
1532061620224,-5,2,0,-13,-3,-9,4,-4
1532061620229,12,1,3,5,5,11,5,8
1532061620234,-12,-1,1,-2,-2,5,-3,7
1532061620239,16,9,6,13,6,-5,3,-10
1532061620244,-7,-11,-3,-28,-2,1,-42,-5
1532061620249,-7,1,-5,-3,-17,-22,37,-5
1532061620254,-1,5,6,18,6,16,0,4
1532061620259,-6,17,-1,7,6,9,-10,-1
1532061620264,-3,-8,3,-17,-6,3,12,1
1532061620269,6,0,-8,-23,-2,-8,-15,-3
1532061620274,-3,14,3,13,-8,-7,-6,1
1532061620279,8,11,6,18,-4,-5,0,-3
1532061620284,-28,-51,-3,17,8,6,1,-3
1532061620289,25,-6,-5,-1,6,5,-13,1
1532061620294,-3,-7,-3,-13,-8,-3,19,-2
1532061620299,1,7,1,-16,-6,-3,-3,10
1532061620304,21,22,3,2,4,-2,5,6
1532061620309,-12,-6,4,3,-2,1,-1,0
1532061620314,0,-1,-6,-3,1,-6,-10,-5
1532061620319,3,-2,-3,-9,-8,-4,-42,-1
1532061620324,3,1,-4,-5,-2,-5,55,1
1532061620329,-6,6,4,28,8,6,-52,8
1532061620334,0,-1,-4,-37,-6,1,71,0
1532061620339,6,-12,3,6,-1,-1,-8,-19
1532061620344,-11,-7,-5,32,-16,-8,5,24
1532061620349,3,14,5,20,6,4,-30,0
1532061620354,7,1,1,-3,7,-3,-31,-14
1532061620359,-10,-19,-10,-84,-14,-11,48,-5
1532061620364,-4,9,2,45,8,4,6,0
1532061620369,-10,30,6,-1,17,-1,7,-1
1532061620374,-2,-22,1,25,-4,1,-36,-6
1532061620379,-6,-26,-17,-30,-19,-1,-31,-1
1532061620384,-7,6,-1,-25,-6,-6,16,-4
1532061620389,3,13,1,8,-2,0,34,5
1532061620394,4,7,0,-1,6,-6,-96,17
1532061620399,3,8,2,-34,-4,1,95,-20
1532061620404,3,42,10,40,9,6,-18,-10
1532061620409,-4,-30,-9,-21,-4,2,-12,-7
1532061620414,-6,-35,-10,8,3,0,-11,-8
1532061620419,0,4,11,59,6,-4,-36,15
1532061620424,-2,-2,-5,-37,-3,0,2,-8
1532061620429,2,20,5,9,-9,-7,6,-12
1532061620434,8,25,4,-22,-6,-1,10,6
1532061620439,-5,-34,-9,10,7,5,0,8
1532061620444,-1,0,-6,-12,0,4,2,-6
1532061620449,3,-12,1,32,4,3,-14,10
1532061620454,-16,2,-7,-74,-18,-8,3,-5
1532061620459,22,31,7,17,7,6,-2,-1
1532061620464,13,-20,-7,16,6,3,-3,18
1532061620469,-22,-59,-10,-34,-10,-3,10,-7
1532061620474,1,5,0,28,3,-1,18,-3
1532061620479,-19,20,3,30,7,-3,-31,4
1532061620484,-5,-8,2,-6,1,-4,19,-38
1532061620489,11,15,-5,-19,-4,-2,-21,-8
1532061620494,0,-7,-1,4,-7,-3,56,8
1532061620499,18,8,-3,2,3,2,-19,17
1532061620504,-8,-11,0,13,2,0,-3,12
1532061620509,5,10,9,21,7,6,-5,-8
1532061620514,-12,-3,-3,-8,-5,0,-8,-14
1532061620519,4,-2,7,-12,-3,-2,16,10
1532061620524,-3,-9,-3,-32,-8,-2,-17,15
1532061620529,-3,8,6,16,3,-3,9,-19
1532061620534,1,3,0,22,0,-4,-6,2
1532061620539,-1,0,-2,-8,-5,-2,17,8
1532061620544,2,-5,-1,-4,2,4,-11,12
1532061620549,4,7,-6,-19,1,-1,-9,-20
1532061620554,-13,-16,-5,6,-2,-2,9,-4
1532061620559,-6,-1,-4,13,-5,-7,-21,-23
1532061620564,3,10,0,-37,-1,1,-11,-1
1532061620569,-5,-8,-5,-2,-2,1,14,18
1532061620574,10,4,1,25,9,0,4,3
1532061620579,2,-7,-1,0,6,8,9,14
1532061620584,4,0,-1,17,-1,-6,-8,-4
1532061620589,16,0,-2,-23,-12,1,4,-13
1532061620594,-25,-5,-5,-18,-3,-5,0,18
1532061620599,-10,-9,3,13,0,-7,-11,-15
1532061620604,0,14,8,46,13,7,-1,-14
1532061620609,-7,-4,4,-13,-9,0,8,9
1532061620614,7,0,2,-10,0,1,-2,-3
1532061620619,-7,7,-4,-11,-5,-3,-7,-7
1532061620624,-8,-3,-6,0,0,0,-6,0
1532061620629,4,1,-1,2,-6,-8,3,11
1532061620634,17,8,2,18,11,9,4,6
1532061620639,0,-5,-3,-8,-7,-2,13,18
1532061620644,-17,-8,0,-26,-9,-7,-21,-32
1532061620649,0,-1,0,-18,0,-5,4,-3
1532061620654,6,0,3,-3,3,0,0,0
1532061620659,-19,-2,9,13,1,-1,-8,-18
1532061620664,3,6,11,-4,-3,-1,0,11
1532061620669,-3,-4,4,12,-3,-3,2,8
1532061620674,1,-2,-3,6,-6,-17,-2,-4
1532061620679,17,5,-12,-39,6,18,8,14
1532061620684,-6,-12,-16,-1,5,11,0,6
1532061620689,-19,-10,-13,66,6,3,-7,-27
1532061620694,4,0,-9,-9,-3,-3,0,-7
1532061620699,3,-4,-7,5,-9,-8,-7,-4
1532061620704,10,3,-3,-16,-6,-6,1,13
1532061620709,2,2,-7,-16,0,-2,3,14
1532061620714,-2,-2,-1,-8,-3,-1,-2,-6
1532061620719,1,-2,-2,-4,-1,-5,-2,1
1532061620724,-3,-3,-3,13,1,-1,-1,-4
1532061620729,-1,1,-3,-5,0,-3,3,11
1532061620734,3,7,3,10,3,6,-2,-5
1532061620739,-2,-3,-3,-2,3,4,2,5
1532061620744,-6,-5,-2,-10,0,-6,-4,-8
1532061620749,4,3,3,-5,-3,1,1,1
1532061620754,3,3,6,7,6,5,5,2
1532061620759,-7,-11,-10,-2,1,1,-2,-12
1532061620764,-3,-1,-4,0,-2,-5,-5,-8
1532061620769,1,0,-6,-9,-1,-1,0,5
1532061620774,4,10,-8,1,5,4,4,3
1532061620779,1,4,9,27,8,-2,-1,-3
1532061620784,-13,-15,2,32,1,-5,-6,-13
1532061620789,-7,-8,-9,-66,-14,-6,0,0
1532061620794,-1,-2,10,3,-6,1,2,-2
1532061620799,2,2,1,2,1,-1,1,1
1532061620804,9,9,10,16,3,3,4,11
1532061620809,0,0,10,21,9,2,4,1
1532061620814,-5,-5,-3,-14,14,-6,0,-4
1532061620819,1,4,16,56,52,-4,-1,0
1532061620824,-1,-1,-1,-47,-8,16,0,-4
1532061620829,1,6,2,-24,-25,-11,-2,3
1532061620834,-3,-5,0,-7,-16,4,-6,-10
1532061620839,-7,-8,-2,-30,-40,0,-1,-1
1532061620844,1,5,3,35,11,-5,0,5
1532061620849,-5,-3,4,7,1,8,3,3
1532061620854,-5,-9,-19,-34,-16,-10,-6,-3
1532061620859,-2,-2,-2,3,1,-8,-7,-9
1532061620864,3,2,1,-8,-7,-2,0,1
1532061620869,0,5,1,13,6,1,-2,1
1532061620874,15,11,12,30,10,3,0,1
1532061620879,1,15,35,81,21,15,3,2
1532061620884,-7,-15,-45,-24,-14,-7,-3,-1
1532061620889,18,1,-8,23,-14,-11,-9,-3
1532061620894,-33,-7,-2,28,0,-3,-4,-12
1532061620899,9,2,-8,-29,-14,-5,-1,2
1532061620904,3,8,23,25,9,1,1,2
1532061620909,12,8,-2,8,11,2,-2,1
1532061620914,3,-3,-8,-20,-11,0,-2,-1
1532061620919,4,-4,-4,-10,-4,0,1,4
1532061620924,-12,0,-4,-24,1,1,4,0
1532061620929,-6,-8,-7,-11,-3,2,1,-4
1532061620934,6,2,9,3,-3,-4,-3,-3
1532061620939,-27,-12,-8,-27,-8,-3,1,0
1532061620944,21,15,-2,-24,-6,-3,0,7
1532061620949,19,25,2,2,5,5,3,7
1532061620954,6,47,10,34,5,0,4,5
1532061620959,-15,-33,-8,-34,-8,-2,0,-2
1532061620964,-16,-62,-27,5,-4,-5,-8,-14
1532061620969,-17,-1,9,41,5,1,-7,-2
1532061620974,7,7,-4,-11,-1,3,0,3
1532061620979,10,12,-5,-23,-8,-3,-1,-2
1532061620984,-1,28,12,-9,-1,0,2,2
1532061620989,-11,19,8,13,6,4,2,0
1532061620994,-2,-46,-8,13,1,0,-1,-2
1532061620999,-1,9,-11,-1,-7,-4,-6,-4
1532061621004,7,8,7,-5,1,0,0,3
1532061621009,5,10,0,-15,-1,-1,1,-1
1532061621014,-14,-19,2,-16,-6,0,-1,-2
1532061621019,13,-4,2,18,4,1,-1,-1
1532061621024,2,19,3,-5,-4,-4,-1,-2
1532061621029,-9,-24,-6,-16,-3,-4,-1,-2
1532061621034,6,-7,-1,-5,-1,-2,1,4
1532061621039,1,-12,-6,4,-1,-2,-3,-2
1532061621044,10,42,8,26,3,-2,1,3
1532061621049,-4,1,3,-5,-1,1,3,2
1532061621054,-5,-83,-13,5,1,2,2,2
1532061621059,-11,2,-4,-7,-3,-4,-7,-11
1532061621064,-1,4,9,-4,1,2,1,1
1532061621069,0,-5,-3,-13,0,0,-1,0
1532061621074,3,32,7,13,0,0,-1,6
1532061621079,5,12,1,4,1,0,2,1
1532061621084,6,-15,0,-6,-4,-3,-6,-10
1532061621089,-28,-35,-14,-7,0,-2,-1,-13
1532061621094,0,15,-7,-2,-1,-2,0,-3
1532061621099,-7,-11,-7,-10,-2,2,5,6
1532061621104,-7,0,0,-10,-2,-1,0,-2
1532061621109,8,11,21,33,1,-1,0,4
1532061621114,-4,13,12,-16,-6,-3,-1,-5
1532061621119,-1,-9,15,-6,-1,-1,-4,0
1532061621124,0,-18,-14,-21,0,1,0,-1
1532061621129,-1,2,-5,8,0,-3,-2,-3
1532061621134,5,14,-6,16,5,1,-2,1
1532061621139,8,15,-4,9,-4,-3,-1,-1
1532061621144,4,9,-3,-6,1,2,4,4
1532061621149,-23,-64,9,13,-5,-2,-2,-6
1532061621154,7,76,-12,-2,3,0,-1,3
1532061621159,-13,-98,-48,-26,-10,-3,-4,-7
1532061621164,0,24,0,-20,-1,-2,-1,-4
1532061621169,11,20,-15,1,4,0,5,7
1532061621174,15,3,2,-2,-8,-1,-3,1
1532061621179,-11,46,7,3,2,0,2,-3
1532061621184,10,1,4,9,1,1,0,4
1532061621189,10,-1,0,2,4,2,-2,1
1532061621194,-3,-8,8,-3,1,-2,-1,-2
1532061621199,4,24,8,7,3,0,1,3
1532061621204,-7,-15,8,24,-2,0,1,-5
1532061621209,8,47,27,-10,-3,2,5,1
1532061621214,-19,-104,0,-13,2,3,-1,-2
1532061621219,9,89,27,-2,-6,-4,-1,-4
1532061621224,-13,-62,14,32,0,-5,-2,3
1532061621229,-9,-1,6,-14,2,-1,-5,-10
1532061621234,-4,23,-66,-30,-4,-5,-1,-1
1532061621239,-30,-114,4,8,4,3,-1,-10
1532061621244,40,127,11,8,1,2,3,9
1532061621249,11,-54,13,10,-4,0,-5,1
1532061621254,-55,-35,-5,5,6,0,2,-7
1532061621259,12,36,36,20,4,2,-2,4
1532061621264,-5,-21,-56,-10,-7,1,-2,-9
1532061621269,10,50,-25,-18,-4,-8,-11,-2
1532061621274,44,-4,9,-7,-2,4,3,14
1532061621279,-18,-76,-51,-9,-2,-2,-4,-6
1532061621284,-51,-24,8,14,4,0,-3,-14
1532061621289,15,91,13,-10,-1,0,3,3
1532061621294,-17,-51,-3,0,0,-5,1,-7
1532061621299,21,19,9,4,-3,-5,1,11
1532061621304,31,-15,23,-3,-2,-6,-4,5
1532061621309,-51,-16,-9,2,0,-2,-1,-4
1532061621314,26,39,22,-3,-1,0,-1,1
1532061621319,5,25,-8,8,-1,1,5,6
1532061621324,2,-29,-10,-15,-4,-3,-4,-5
1532061621329,-4,4,8,1,0,4,3,-8
1532061621334,5,0,-58,-14,-3,1,0,6
1532061621339,2,-26,8,0,1,0,-5,-11
1532061621344,-10,75,28,1,0,-5,0,5
1532061621349,35,-111,-73,-30,-10,-5,-9,-13
1532061621354,-60,-10,4,21,1,-3,-7,-13
1532061621359,57,57,-20,-14,-4,-2,7,29
1532061621364,-10,37,6,17,4,1,-4,-16
1532061621369,-17,-84,6,0,7,8,5,-2
1532061621374,5,43,3,-8,-5,-4,-6,-15
1532061621379,24,25,1,7,-1,-2,-1,-1
1532061621384,13,-6,13,-3,-6,-6,-5,15
1532061621389,24,43,11,-8,-1,-1,7,26
1532061621394,14,6,2,14,6,3,6,11
1532061621399,-34,-26,-19,-1,7,4,-2,-26
1532061621404,-21,-37,-12,-10,-4,1,-1,-20
1532061621409,-8,6,1,-2,-6,-6,-6,-16
1532061621414,32,13,-8,-5,-5,-2,1,22
1532061621419,-14,-27,-8,-2,0,-1,3,8
1532061621424,-44,-38,-7,-13,-8,-6,-10,-7
1532061621429,-61,0,9,12,2,0,0,3
1532061621434,43,51,23,10,-1,0,4,10
1532061621439,-9,2,9,-7,-3,-5,-4,-8
1532061621444,4,24,-4,1,2,3,1,3
1532061621449,-23,-59,-38,3,0,-2,-5,-8
1532061621454,-24,35,23,-4,-5,-1,-7,-30
1532061621459,11,-11,-7,-8,-1,5,3,12
1532061621464,6,43,0,8,4,4,6,2
1532061621469,33,34,20,-2,-4,-3,3,16
1532061621474,0,-8,21,1,5,3,3,2
1532061621479,0,-64,-28,-9,-1,-2,-3,-12
1532061621484,-27,-34,-28,4,2,-1,-1,1
1532061621489,24,31,6,1,-2,-3,3,11
1532061621494,-20,-21,19,13,5,3,-3,-11
1532061621499,4,87,24,-4,-3,-4,-4,0
1532061621504,6,-6,-17,-17,-6,1,-2,2
1532061621509,-12,-49,16,4,0,-3,-6,-2
1532061621514,-29,-49,-43,-6,-6,-4,-10,-9
1532061621519,17,81,7,1,2,4,2,9
1532061621524,48,4,22,5,1,-4,-4,-3
1532061621529,2,45,13,-6,-2,2,9,9
1532061621534,-11,-34,-7,-1,-6,-10,-15,-40
1532061621539,-11,-19,3,-3,-2,-1,-2,-11
1532061621544,46,-28,-8,-10,-11,-10,-8,7
1532061621549,91,53,-6,-3,-3,0,1,-1
1532061621554,-92,-11,14,-1,0,-1,0,9
1532061621559,-11,42,10,5,8,5,6,15
1532061621564,-80,-95,-19,-11,-7,-1,-4,-46
1532061621569,16,86,-6,-11,-12,-3,0,-18
1532061621574,38,-31,10,-1,-2,-3,2,18
1532061621579,95,118,39,2,-2,-1,2,7
1532061621584,-67,-80,-2,18,16,14,18,44
1532061621589,-40,-29,-13,-1,-2,-11,-18,-24
1532061621594,8,60,-23,-14,-1,0,7,9
1532061621599,-36,-2,-16,0,0,0,0,12
1532061621604,121,4,8,6,2,2,0,10
1532061621609,-40,4,-17,2,4,0,-8,-20
1532061621614,96,-84,-15,-2,-4,-4,1,16
1532061621619,-38,19,30,19,11,4,-2,-10
1532061621624,29,53,-1,-17,-13,1,9,-1
1532061621629,-20,-44,-1,-1,4,4,7,16
1532061621634,-4,34,6,4,5,1,1,-6
1532061621639,42,-28,-15,-8,-5,-3,3,8
1532061621644,-111,-44,-6,5,-4,-13,-19,-27
1532061621649,89,41,13,19,9,7,4,1
1532061621654,-11,107,24,0,4,6,8,9
1532061621659,48,-85,-20,-6,-4,-2,0,1
1532061621664,-38,72,11,6,0,-4,-11,10
1532061621669,-29,-7,17,-5,-2,-1,1,-4
1532061621674,-31,-79,-40,11,9,8,5,11
1532061621679,-39,75,21,0,0,3,5,-18
1532061621684,59,8,-18,4,-3,-6,-2,11
1532061621689,-20,-15,-14,-13,0,3,8,10
1532061621694,-3,39,36,-4,-12,-10,-10,-18
1532061621699,-11,-71,-18,-2,-1,0,0,-2
1532061621704,-4,30,10,14,8,5,5,5
1532061621709,-24,-34,-5,-2,0,1,-7,-7
1532061621714,31,17,1,3,1,0,-3,-5
1532061621719,-47,28,21,8,4,1,0,-5
1532061621724,9,-30,-20,-12,-9,-10,-10,-9
1532061621729,12,16,6,19,44,6,9,4
1532061621734,24,7,10,5,11,9,1,14
1532061621739,-17,-38,-21,-30,-51,1,-2,-9
1532061621744,9,30,12,-12,-26,-10,-6,0
1532061621749,0,3,14,2,-3,5,11,5
1532061621754,48,-19,-31,-6,6,-7,-23,11
1532061621759,54,-59,1,24,27,2,-1,4
1532061621764,-33,23,-14,0,7,11,45,-25
1532061621769,7,25,-11,17,5,1,-17,13
1532061621774,-27,-7,14,-8,-10,-7,-8,-15
1532061621779,-18,14,1,-5,-4,-6,-14,1
1532061621784,25,-4,3,-15,-2,0,-36,1
1532061621789,4,-8,-1,8,-4,-2,22,1
1532061621794,-4,40,22,6,-9,-3,4,2
1532061621799,-38,-8,2,-15,-6,0,5,-5
1532061621804,6,-9,9,0,11,1,22,3
1532061621809,-10,1,-2,-19,-17,-4,-24,-7
1532061621814,0,-6,11,27,9,-1,-21,-4
1532061621819,-9,2,-7,-13,-12,-10,-22,2
1532061621824,10,-12,-6,7,11,10,39,-1
1532061621829,4,63,14,2,16,-9,-8,2
1532061621834,-8,-85,-34,-6,5,-8,10,0
1532061621839,4,-5,0,28,21,16,4,-3
1532061621844,0,11,-1,-33,-44,-6,-40,-8
1532061621849,0,6,-4,8,-5,0,-37,-4
1532061621854,-22,13,14,-9,-13,-2,103,2
1532061621859,-30,16,-1,3,20,-7,-7,-6
1532061621864,5,-43,-15,21,19,1,-77,-1
1532061621869,-17,-34,-4,-11,-15,2,98,-7
1532061621874,7,49,11,7,8,2,-53,-5
1532061621879,-18,-10,-10,-3,-8,-11,-28,-13
1532061621884,3,22,8,0,4,4,100,22
1532061621889,12,-18,-6,1,-6,-6,-72,4
1532061621894,-16,-20,0,-14,-4,-3,-28,-5
1532061621899,13,-1,-8,0,-1,0,46,4
1532061621904,-1,4,0,-15,-2,-7,-48,-2
1532061621909,4,-13,-1,4,8,2,4,6
1532061621914,6,16,6,17,8,9,21,1
1532061621919,2,-2,-1,11,-30,-3,-29,-2
1532061621924,2,4,2,-63,-35,-8,-7,3
1532061621929,-5,-8,-6,-14,-26,-7,12,4
1532061621934,3,10,3,2,-4,-4,-8,-11
1532061621939,7,-4,2,22,22,6,-4,-3
1532061621944,8,7,4,58,34,8,14,-1
1532061621949,3,31,12,-56,-22,-9,5,4
1532061621954,-4,-24,-11,-16,-11,5,-13,4
1532061621959,8,-21,-14,-7,2,-4,6,-6
1532061621964,5,18,7,35,17,8,13,7
1532061621969,0,-7,-6,3,4,-1,-16,-2
1532061621974,-4,-16,11,6,3,-2,-3,-3
1532061621979,16,3,9,30,6,3,8,1
1532061621984,12,0,-14,-10,3,-3,-12,-5
1532061621989,7,-15,-12,-22,8,6,18,10
1532061621994,57,18,12,8,-10,-6,-20,-9
1532061621999,-113,-17,-14,-22,8,3,6,-1
1532061622004,11,11,1,-34,-3,-2,-2,0
1532061622009,1,-33,-5,16,3,-1,-12,0
1532061622014,-2,7,-3,-14,-3,-3,1,-8
1532061622019,16,4,2,10,-3,-2,-1,2
1532061622024,5,-3,0,-1,0,-2,-11,2
1532061622029,-31,-5,5,45,3,-4,-1,-6
1532061622034,14,11,-4,-20,6,6,0,2
1532061622039,-3,-2,1,-5,-5,0,1,-5
1532061622044,-13,-7,-6,-42,4,4,3,-3
1532061622049,20,1,2,-12,0,1,-1,-1
1532061622054,-16,-6,2,40,7,0,-5,9
1532061622059,6,4,1,22,1,-6,6,-4
1532061622064,-33,-11,-2,-19,-7,-4,-19,1
1532061622069,63,20,-6,-19,-4,2,30,-5
1532061622074,-62,8,-1,-5,3,7,2,0
1532061622079,2,3,-1,16,3,3,6,1
1532061622084,5,-5,-4,-6,5,-1,6,1
1532061622089,-14,-5,-2,-13,-8,-6,-30,-7
1532061622094,6,0,-1,20,0,-5,-3,-3
1532061622099,15,2,1,-12,-5,-2,5,2
1532061622104,3,1,-3,2,5,4,-7,-3
1532061622109,-6,-3,2,-4,-4,0,-4,1
1532061622114,12,1,4,9,-3,-3,6,0
1532061622119,-10,-8,-1,-7,2,-2,-5,0
1532061622124,16,2,2,3,-1,-4,2,-3
1532061622129,-13,1,-2,-1,-4,10,3,3
1532061622134,-3,-16,-19,6,1,3,6,-2
1532061622139,5,6,8,-12,-10,-8,-11,-3
1532061622144,-1,0,1,10,2,11,8,3
1532061622149,1,0,-5,-12,-36,-12,6,11
1532061622154,-4,-1,-1,3,3,-2,-13,-22
1532061622159,-3,-8,-10,-14,-6,1,-10,-14
1532061622164,4,-2,0,-14,-29,-8,0,3
1532061622169,-6,-2,-20,2,15,-1,-1,7
1532061622174,1,-4,4,-3,-11,2,4,8
1532061622179,0,0,6,10,7,-6,1,-1
1532061622184,0,4,14,16,16,1,6,1
1532061622189,-7,-7,4,-12,-5,2,-6,-3
1532061622194,9,3,-4,4,4,-5,3,7
1532061622199,2,4,0,-8,-2,-2,4,1
1532061622204,0,-5,-1,4,1,2,-2,-1
1532061622209,-4,2,10,13,8,-3,-1,-2
1532061622214,0,-2,0,-4,6,1,-1,-4
1532061622219,0,-1,2,0,6,6,0,4
1532061622224,5,-1,-9,-15,-16,2,1,2
1532061622229,-8,-4,-1,5,-3,-7,-4,-5
1532061622234,-1,1,3,-3,-6,-6,-3,-2
1532061622239,2,1,-9,-8,-8,4,-1,4
1532061622244,3,3,1,9,15,4,3,1
1532061622249,-6,-5,1,5,18,3,-1,-7
1532061622254,2,1,1,0,-7,-7,-2,2
1532061622259,1,3,-1,-6,-8,-6,-2,0
1532061622264,0,9,6,3,6,-1,-1,-4
1532061622269,-2,18,2,3,5,2,-2,-2
1532061622274,-3,-32,-6,-1,-1,3,1,-3
1532061622279,-6,-11,-8,-13,-8,-6,-4,-5
1532061622284,-1,5,3,4,9,-4,-3,-4
1532061622289,1,-4,-5,-9,-9,3,0,2
1532061622294,2,15,3,7,2,-1,0,2
1532061622299,1,-4,-3,-8,-3,1,2,0
1532061622304,-3,-5,-3,-13,-4,-6,-4,-2
1532061622309,0,6,3,3,5,-1,-1,-2
1532061622314,0,6,0,6,0,1,0,-2
1532061622319,-1,0,8,5,4,2,3,1
1532061622324,2,0,-4,-23,2,1,1,0
1532061622329,0,-4,0,11,1,0,1,-3
1532061622334,-2,0,5,38,5,3,-1,0
1532061622339,0,6,0,-13,5,-5,-4,1
1532061622344,-7,-6,-1,15,-9,-5,1,0
1532061622349,-4,-9,-3,-18,-3,-3,-2,1
1532061622354,1,4,1,-16,1,1,2,2
1532061622359,3,3,-2,10,4,2,-2,-3
1532061622364,3,-2,-3,-2,0,0,0,0
1532061622369,-4,-5,0,-1,-1,-2,-1,-5
1532061622374,2,7,1,3,3,-3,-1,1
1532061622379,-4,-16,-3,0,-5,-1,0,-1
1532061622384,-3,-5,-2,-5,-5,-3,-20,-4
1532061622389,-1,4,3,7,-1,-2,17,1
1532061622394,0,0,-5,-6,-1,3,3,-3
1532061622399,2,7,-3,-6,-3,0,2,3
1532061622404,-4,-2,0,4,2,0,1,-1
1532061622409,-7,-8,-3,6,3,-5,-16,-6
1532061622414,0,0,-1,-13,-9,-3,-2,2
1532061622419,-1,-12,3,-1,3,3,3,-2
1532061622424,-6,-2,-3,7,3,-6,-2,-9
1532061622429,1,17,-4,-4,-3,6,2,8
1532061622434,10,3,4,-7,-3,-2,4,10
1532061622439,-6,-3,-9,-1,1,0,-1,-1
1532061622444,-7,-1,-3,0,5,-8,-4,-2
1532061622449,2,5,6,18,32,-5,-8,-20
1532061622454,-6,-3,-15,-29,-47,9,5,7
1532061622459,0,-10,1,-5,-11,-5,2,9
1532061622464,0,-7,0,-4,-8,0,-3,-8
1532061622469,0,-7,-2,-5,-2,-5,-4,1
1532061622474,0,-1,2,9,19,-7,-10,-7
1532061622479,1,8,0,4,2,5,2,1
1532061622484,-4,-4,-6,-3,-1,2,1,-11
1532061622489,-5,-10,2,6,4,0,-3,-4
1532061622494,-2,1,2,-3,4,-2,-3,-3
1532061622499,2,4,-3,-4,-5,1,1,5
1532061622504,7,5,3,0,1,-2,4,12
1532061622509,1,-3,-3,-6,-9,4,0,2
1532061622514,-2,-5,1,4,5,-1,1,-1
1532061622519,5,5,2,6,4,-4,0,1
1532061622524,-6,-2,-2,-10,-15,-1,0,-4
1532061622529,1,-9,-8,-4,-10,-3,-3,6
1532061622534,-3,-1,-3,-6,-3,-9,-5,-2
1532061622539,-1,1,1,6,7,-1,-3,-4
1532061622544,8,3,3,5,4,5,7,8
1532061622549,-8,-8,-2,-10,-12,-5,-11,-15
1532061622554,0,-3,-1,1,8,-2,-5,-5
1532061622559,3,0,0,1,0,-1,-4,-1
1532061622564,-2,1,0,2,2,3,3,1
1532061622569,0,-1,-1,-4,-3,1,2,6
1532061622574,4,2,1,4,4,0,-2,0
1532061622579,-2,1,-1,-2,-2,-3,-3,-6
1532061622584,0,-6,-5,0,-1,1,2,3
1532061622589,2,-1,1,-1,0,0,2,3
1532061622594,-5,0,1,-1,-1,1,-1,-3
1532061622599,0,1,1,-5,-3,0,1,2
1532061622604,2,2,1,3,3,0,-1,-3
1532061622609,0,1,1,-2,-3,0,1,0
1532061622614,-6,0,2,4,2,-1,0,-2
1532061622619,1,3,1,-4,-5,-1,0,0
1532061622624,-4,-3,-1,2,1,-2,-3,1
1532061622629,0,-1,1,1,-2,-1,-1,0
1532061622634,-2,-1,0,0,1,-1,0,-2
1532061622639,-2,-1,1,4,4,1,-1,-3
1532061622644,-3,-2,-2,-4,-3,-2,0,0
1532061622649,0,-1,-1,-4,-4,2,1,2
1532061622654,3,1,0,1,2,-1,-1,2
1532061622659,0,-1,-4,0,-2,-1,-2,-4
1532061622664,1,-1,0,1,3,1,0,1
1532061622669,-2,0,0,-1,-1,-1,2,3
1532061622674,0,0,0,-2,-1,-2,2,0
1532061622679,1,-1,0,-1,-1,-2,-1,-1
1532061622684,4,2,0,2,1,-3,0,1
1532061622689,2,2,0,1,-1,-1,0,1
1532061622694,-1,1,0,-1,-1,1,1,3
1532061622699,-6,0,-3,2,-3,-1,0,-2
1532061622704,4,2,0,1,-1,-1,-1,0
1532061622709,1,1,-2,2,2,-1,-1,-1
1532061622714,0,-2,-1,-2,-2,-3,-5,-2
1532061622719,4,-2,0,-1,3,0,-2,0
1532061622724,1,-2,-1,0,4,0,-1,-1
1532061622729,-2,-2,0,0,2,-1,-1,-2
1532061622734,0,0,1,1,2,-1,-1,-2
1532061622739,-4,0,0,0,1,2,-1,-1
1532061622744,-2,1,-1,0,-1,4,0,0
1532061622749,-1,0,0,-2,0,2,1,1
1532061622754,-2,0,-2,-1,1,4,0,-3
1532061622759,1,2,-1,0,0,2,-2,0
1532061622764,-3,-2,-2,-3,0,2,-3,-1
1532061622769,-2,-1,-1,-1,2,4,-3,0
1532061622774,-3,-3,-1,-2,2,0,-1,-1
1532061622779,0,0,1,-3,4,-1,-2,-3
1532061622784,0,-1,1,1,2,-1,-2,-2
1532061622789,-1,0,1,-2,1,-2,-2,-2
1532061622794,0,-1,-2,-4,-1,-1,0,-1
1532061622799,-4,-2,2,-4,-1,-2,-1,1
1532061622804,-2,-1,0,-3,7,-3,1,-2
1532061622809,1,2,2,-2,-1,-3,1,0
1532061622814,5,3,3,-10,-10,-3,2,3
1532061622819,-3,0,-3,-3,1,-6,-2,-3
1532061622824,0,2,-2,2,6,-2,2,0
1532061622829,-3,2,-1,-1,1,-6,-1,1
1532061622834,-2,-2,-3,2,1,-8,-2,-2
1532061622839,4,0,-2,-1,-9,-7,-3,-1
1532061622844,2,0,0,-1,-7,-8,-3,-2
1532061622849,1,-4,-2,-1,-5,-10,1,-2
1532061622854,-1,-1,-1,2,1,-3,2,-1
1532061622859,-3,-3,-1,1,-3,1,5,-1
1532061622864,-1,1,-2,0,-6,-2,4,0
1532061622869,0,-3,-4,-1,-8,-4,2,1
1532061622874,-1,-1,-2,0,-3,-1,2,2
1532061622879,-7,-2,-3,0,-4,-1,1,-5
1532061622884,9,4,0,1,-5,7,4,6
1532061622889,0,-3,-1,0,-4,3,-2,-1
1532061622894,-1,-2,-2,0,-1,3,-5,-4
1532061622899,-2,-2,-1,-2,1,3,-5,-2
1532061622904,-3,-2,-3,-3,-4,-9,-7,-3
1532061622909,-1,-2,0,-4,-3,-7,-6,-3
1532061622914,-1,2,0,-2,-2,-6,-5,-1
1532061622919,-2,-1,2,-1,-7,-8,-4,1
1532061622924,-5,-5,-1,2,-6,-4,-3,-6
1532061622929,-3,-4,-2,3,-4,-2,-4,-4
1532061622934,1,-2,-1,1,-4,-9,-2,-2
1532061622939,4,0,1,-1,-2,-11,3,3
1532061622944,-1,1,4,-3,-1,-1,0,0
1532061622949,-2,-2,0,0,-1,7,2,0
1532061622954,-2,-2,-4,0,-3,13,9,-1
1532061622959,3,0,-4,1,2,16,8,3
1532061622964,2,0,-1,-2,1,13,7,2
1532061622969,1,-1,-2,0,3,12,6,3
1532061622974,-5,-4,-3,-1,0,7,2,-1
1532061622979,2,-1,-1,-2,2,4,1,2
1532061622984,-1,-3,-1,-3,0,1,0,4
1532061622989,1,-2,0,-3,0,3,1,3
1532061622994,1,0,1,-3,1,2,0,2
1532061622999,-3,-1,0,0,1,1,-2,-1
1532061623004,-2,-2,-1,-1,-2,1,-4,-3
1532061623009,-1,1,-1,0,1,-4,-3,-4
1532061623014,-2,-1,0,-1,0,-4,-3,-4
1532061623019,-3,-2,-2,-3,-2,-3,-6,-5
1532061623024,0,-1,-2,-2,0,-3,-5,-4
1532061623029,0,-1,-3,0,1,-2,-5,-1
1532061623034,2,-1,-1,0,2,0,-4,0
1532061623039,-1,-2,-1,-1,-1,1,-4,-2
1532061623044,-4,-3,-2,0,-1,-1,-1,-2
1532061623049,-5,0,-2,-2,-3,-3,-3,-4
1532061623054,2,0,0,-1,0,-2,0,3
1532061623059,-1,-2,-2,0,-1,-3,-1,1
1532061623064,0,-1,-1,0,0,-5,0,0
1532061623069,0,2,-1,1,0,-2,-1,-1
1532061623074,0,-1,0,0,-1,0,0,1
1532061623079,-1,0,-1,-1,0,0,-1,-2
1532061623084,-3,0,-1,-3,-2,0,-2,0
1532061623089,1,0,0,-1,1,-1,-1,1
1532061623094,-9,-2,-2,-1,-2,-2,-1,-7
1532061623099,6,5,0,1,0,-1,1,3
1532061623104,-2,-1,-1,0,-1,1,0,-2
1532061623109,-2,-1,-2,-2,-1,0,-1,-1
1532061623114,-1,-2,0,-1,-2,-3,0,-3
1532061623119,-3,-2,-1,-1,-1,-2,-3,-3
1532061623124,1,-1,-2,-2,-1,-2,0,-2
1532061623129,1,1,-1,-2,-1,-2,4,1
1532061623134,1,0,-3,0,1,-2,-1,-1
1532061623139,-1,-1,-1,-2,0,-1,4,-1
1532061623144,0,1,-1,-1,-1,-1,4,0
1532061623149,-1,-1,1,-2,0,-2,4,3
1532061623154,0,-2,-1,-2,-1,-3,-1,1
1532061623159,-2,-2,-2,-1,-1,-4,-2,2
1532061623164,0,-1,-2,1,-1,-2,-4,5
1532061623169,-1,-1,-2,-1,-2,0,0,3
1532061623174,-1,1,0,-1,0,1,-1,-1
1532061623179,1,0,-2,0,-1,-2,-3,1
1532061623184,2,-1,0,0,-2,-2,-5,-3
1532061623189,2,-1,-1,1,0,2,-5,-3
1532061623194,1,0,-1,-1,-2,1,-5,-1
1532061623199,-4,-2,-2,0,-1,1,0,-6
1532061623204,0,-2,-1,-1,-2,-5,7,-6
1532061623209,0,-1,0,0,-1,-4,-5,-1
1532061623214,-1,-2,0,-2,-2,-3,-8,3
1532061623219,-2,0,1,-2,-1,2,0,4
1532061623224,-1,2,-1,-1,-2,6,2,4
1532061623229,-1,0,0,-2,2,3,6,-12
1532061623234,1,-3,-3,0,-2,-5,-1,-7
1532061623239,-1,-4,-5,-1,-2,-8,-10,-5
1532061623244,0,-3,-3,-1,-2,-5,-9,3
1532061623249,-1,-1,-2,-1,-2,-1,-5,3
1532061623254,-2,1,0,1,-1,2,-1,-1
1532061623259,0,-1,1,0,-2,1,2,-7
1532061623264,-2,0,-1,1,1,-4,-2,-6
1532061623269,1,0,0,1,1,-2,1,-5
1532061623274,1,-2,1,-2,0,2,3,-4
1532061623279,-2,-1,0,-3,-1,2,3,-1
1532061623284,0,-1,0,-4,0,0,1,0
1532061623289,-1,-2,-1,-1,-1,-2,-1,1
1532061623294,-1,-4,-2,-1,-1,-3,3,2
1532061623299,-1,-1,-3,0,-2,0,0,1
1532061623304,-2,-1,-1,-2,-1,0,-1,-1
1532061623309,-4,0,-3,-2,-2,-1,2,0
1532061623314,1,1,-1,-1,1,-2,2,3
1532061623319,-2,-2,-1,0,1,-1,0,0
1532061623324,-1,-1,-2,1,-1,0,2,0
1532061623329,0,-4,-2,-2,0,-2,-2,-3
1532061623334,0,0,-2,-1,0,-1,1,1
1532061623339,0,-1,-1,0,0,0,-2,-2
1532061623344,0,-2,-1,0,-1,1,0,1
1532061623349,-2,-1,-1,-2,-2,1,-1,0
1532061623354,2,-1,-1,-1,-1,-1,0,1
1532061623359,0,-1,1,-1,0,0,0,0
1532061623364,-3,-2,0,-1,1,1,-1,-1
1532061623369,-1,-1,1,0,-2,-1,0,0
1532061623374,-2,1,-1,-1,0,-1,1,0
1532061623379,1,-1,-1,-1,-2,-3,2,1
1532061623384,0,-1,0,0,-3,0,-3,-2
1532061623389,1,0,0,-1,-1,-2,-1,3
1532061623394,-1,-1,-2,0,-2,-1,-3,-3
1532061623399,0,-1,0,-2,-1,-1,-1,-2
1532061623404,0,-2,-2,-2,1,-4,-2,-1
1532061623409,0,0,0,0,-3,0,-1,-2
1532061623414,-2,0,-1,0,-1,1,1,-1
1532061623419,-3,-1,-1,-1,-1,1,0,0
1532061623424,0,0,0,0,0,2,1,-2
1532061623429,1,-3,-1,-2,-2,1,-2,1
1532061623434,2,1,-2,0,-1,3,-3,-2
1532061623439,1,-2,0,0,0,3,-5,-2
1532061623444,-4,0,-1,-2,1,-3,-2,-3
1532061623449,1,0,-3,-1,0,-5,0,0
1532061623454,-2,-1,0,-3,0,-1,0,-2
1532061623459,0,-2,-2,0,0,-2,0,-2
1532061623464,-2,-1,0,0,-4,1,-3,0
1532061623469,-3,-2,0,2,1,1,-1,-1
1532061623474,1,-1,-2,0,0,1,1,-1
1532061623479,0,0,-1,-1,1,3,-1,1
1532061623484,0,0,-1,-3,0,2,-2,-1
1532061623489,0,2,-1,-2,0,3,0,-3
1532061623494,-1,0,1,-1,-1,4,-1,-1
1532061623499,0,-1,0,-1,0,4,-1,0
1532061623504,2,-2,0,-1,1,-7,-2,-1
1532061623509,-3,-1,0,-1,0,-2,-1,-2
1532061623514,-1,-2,-1,-2,0,1,0,0
1532061623519,-1,0,0,-1,-1,3,-2,0
1532061623524,-1,0,-1,0,-1,-1,-2,1
1532061623529,-2,0,-1,0,-4,-2,-3,0
1532061623534,0,-1,-1,0,-2,-6,-2,-1
1532061623539,-2,-1,-1,-2,0,-4,0,-2
1532061623544,1,-2,1,0,-1,0,1,-2
1532061623549,0,-1,-2,-1,2,-7,-2,0
1532061623554,-2,0,0,-1,0,-6,-2,-1
1532061623559,-2,-2,0,-1,-2,-8,-3,-1
1532061623564,-2,-1,-2,-1,0,-8,-2,-3
1532061623569,1,-1,-2,-1,-1,-2,1,0
1532061623574,0,-2,-1,0,0,-4,-2,-1
1532061623579,0,-2,-2,0,0,-4,-2,-2
1532061623584,-2,0,0,-2,-2,1,1,0
1532061623589,-2,1,0,-1,-1,1,-1,1
1532061623594,0,1,0,-2,0,-1,-1,-1
1532061623599,0,1,-1,0,-1,-4,0,0
1532061623604,0,0,1,0,0,0,1,-2
1532061623609,0,0,2,0,1,-1,0,-2
1532061623614,-1,-2,-2,-1,0,-2,-2,0
1532061623619,0,-2,-1,0,0,-1,-2,0
1532061623624,0,-2,0,2,-1,1,-3,2
1532061623629,-2,-2,0,-2,0,2,-3,-1
1532061623634,-1,-2,1,-1,1,-1,-2,0
1532061623639,-1,-3,-1,-2,0,-1,1,-1
1532061623644,-2,0,-1,-1,0,-1,0,-2
1532061623649,-1,-2,-2,1,-1,0,1,-1
1532061623654,-2,-1,-2,0,-2,-2,1,1
1532061623659,-1,-1,-2,-2,-1,-3,0,1
1532061623664,0,0,-2,2,-2,-1,-1,0
1532061623669,-2,-2,0,-1,-1,-2,-1,-1
1532061623674,0,-2,-1,-1,0,0,0,0
1532061623679,-1,0,0,0,-1,-1,0,0
1532061623684,0,0,0,-1,-2,0,-1,1
1532061623689,-2,-1,-1,1,0,1,0,0
1532061623694,0,0,-1,1,-2,-1,0,0
1532061623699,-2,-3,-1,-2,0,-2,-3,0
1532061623704,-3,-1,-1,-3,-1,-1,-3,-1
1532061623709,0,-1,0,0,-2,-3,-2,-1
1532061623714,0,-1,0,-1,0,-2,0,-3
1532061623719,-2,1,0,-3,0,-1,-1,-1
1532061623724,0,-1,-1,-3,-2,-1,-2,0
1532061623729,0,0,-1,-1,-1,-1,-1,-1
1532061623734,-1,0,0,-1,-2,-1,-2,-1
1532061623739,-2,-1,-1,0,-3,-2,-2,0
1532061623744,-1,-2,-2,-1,-1,-3,2,-2
1532061623749,0,-1,0,-3,0,-2,-1,-2
1532061623754,0,0,0,-1,-2,-1,0,0
1532061623759,-1,1,0,2,1,-2,-1,-1
1532061623764,1,1,-1,1,3,1,1,0
1532061623769,0,0,1,1,2,0,-3,-1
1532061623774,-2,0,0,0,-5,-1,2,-2
1532061623779,-1,1,-1,1,-2,-2,0,0
1532061623784,-2,0,0,-1,-2,-3,0,-1
1532061623789,-1,-1,-3,0,-2,1,1,2
1532061623794,0,0,0,-1,1,0,-1,-1
1532061623799,0,-3,-1,0,-1,0,1,0
1532061623804,1,-1,1,0,0,2,0,-1
1532061623809,0,-1,-1,-2,-2,3,1,-2
1532061623814,0,-2,-1,1,-3,3,0,0
1532061623819,0,-2,-2,-1,-1,2,-2,-3
1532061623824,-1,1,-1,0,0,2,-2,-2
1532061623829,1,-3,-2,0,0,-1,-1,0
1532061623834,-1,-1,-2,-1,1,0,0,0
1532061623839,-1,2,0,-2,1,1,0,0
1532061623844,-2,1,-2,-2,-1,0,0,1
1532061623849,0,-1,-1,-1,-1,-1,0,0
1532061623854,-2,-1,-1,-2,0,-1,-2,-1
1532061623859,0,-2,-1,0,2,1,1,-1
1532061623864,0,-3,0,-2,-2,-1,-1,-3
1532061623869,-2,-1,-1,-2,-2,0,-1,-1
1532061623874,0,0,-2,1,-2,-2,0,-2
1532061623879,0,-1,0,0,-1,0,-2,-2
1532061623884,1,-4,-1,1,0,0,-1,-1
1532061623889,-1,-1,-2,0,0,-1,0,-2
1532061623894,0,-1,-2,-1,1,-3,-2,0
1532061623899,-2,0,-2,-1,-1,0,2,1
1532061623904,0,-1,-1,0,1,1,0,-1
1532061623909,-3,0,-1,-1,-4,1,-1,-1
1532061623914,-2,1,1,0,0,2,-3,-1
1532061623919,-1,0,0,0,-2,-1,-3,-2
1532061623924,-1,0,-1,0,0,-1,-1,-1
1532061623929,-1,-2,-1,0,-1,-1,0,-1
1532061623934,0,-2,-2,0,0,0,2,0
1532061623939,-1,-1,-1,1,-1,0,-2,-1
1532061623944,-2,-1,0,0,-1,-1,-2,0
1532061623949,0,1,-1,0,-2,-3,-2,0
1532061623954,-1,-1,2,0,-2,-2,2,-1
1532061623959,0,-2,-1,-1,-2,0,-1,0
1532061623964,1,-1,-2,-2,-2,0,1,0
1532061623969,-1,1,0,-2,1,-1,-1,-1
1532061623974,-1,-2,-1,-2,-1,1,-1,-3
1532061623979,-2,-1,-2,0,-1,0,-1,-2
1532061623984,0,-1,-1,0,-1,-1,0,-1
1532061623989,-2,-1,1,-1,-2,-1,-2,-2
1532061623994,-2,0,-2,0,-1,-1,-1,0
1532061623999,0,0,-2,-1,-3,-1,-1,1
1532061624004,-1,1,-1,0,-1,-2,-1,1
1532061624009,-1,-2,-1,-2,0,0,0,-2
1532061624014,-2,-1,0,-1,0,1,1,0
1532061624019,0,-2,-1,0,0,1,-2,0
1532061624024,-2,-1,0,0,-1,0,-2,-2
1532061624029,0,-1,0,1,1,-1,-2,-1
1532061624034,-1,-1,0,0,-2,0,-3,-2
1532061624039,0,0,-1,0,-1,0,0,2
1532061624044,0,0,-2,1,-2,0,-1,-1
1532061624049,-1,-1,-1,0,-1,-2,0,0
1532061624054,-2,0,-1,-2,1,0,-3,-1
1532061624059,0,1,0,-1,2,-2,0,-1
1532061624064,-1,-2,1,-1,1,-3,-2,-3
1532061624069,-1,-1,-1,0,-1,1,0,-2
1532061624074,0,0,-2,-2,-1,-3,0,2
1532061624079,0,-1,0,-2,-2,-2,1,0
1532061624084,-1,0,-2,0,-2,-1,0,-1
1532061624089,2,-2,-2,-1,-2,-2,0,0
1532061624094,-3,-2,-1,-1,0,-2,-1,-2
1532061624099,-1,0,0,-1,0,1,0,0
1532061624104,0,-1,-3,-1,-3,0,0,1
1532061624109,-2,0,-2,0,-1,0,0,0
1532061624114,0,0,0,0,0,-1,0,1
1532061624119,-2,-1,-1,-1,0,-3,-1,-2
1532061624124,-1,-2,0,-1,0,0,1,0
1532061624129,0,0,-2,-1,0,1,0,0
1532061624134,0,1,-1,0,0,0,-1,-3
1532061624139,-2,1,0,-1,0,1,0,-1
1532061624144,0,0,-1,-1,0,0,-2,-1
1532061624149,-1,-3,0,-2,0,-2,-2,-1
1532061624154,2,-3,-1,-1,-2,-2,-2,0
1532061624159,-1,-1,-1,-2,0,-1,-2,-1
1532061624164,0,-1,-1,0,0,1,-1,0
1532061624169,-2,1,0,1,-1,3,-2,-2
1532061624174,-2,-1,0,0,0,1,-2,-3
1532061624179,0,-2,-2,-1,0,-1,0,-2
1532061624184,-2,-1,-1,-1,0,-2,-1,-1
1532061624189,2,-2,0,-1,-1,-1,-1,1
1532061624194,-1,-1,-1,-2,-1,0,1,-2
1532061624199,1,-1,1,1,0,0,-3,-1
1532061624204,-1,0,-1,-1,1,-1,1,1
1532061624209,-1,1,-1,-2,0,-2,1,0
1532061624214,1,-1,0,-1,-1,-1,0,0
1532061624219,0,-1,0,-2,-3,-2,0,-1
1532061624224,-1,0,0,-1,-2,1,1,-1
1532061624229,-1,1,-2,1,-1,-3,-1,-3
1532061624234,-3,-1,-1,-1,-1,-2,-1,0
1532061624239,1,-2,0,-3,-2,-2,-1,1
1532061624244,-2,0,-1,-1,-2,-2,0,1
1532061624249,-4,-1,-1,-1,-1,0,-1,0
1532061624254,-1,0,-1,-1,-3,0,-1,0
1532061624259,-2,-2,-2,0,1,-1,0,1
1532061624264,0,-1,-2,-2,1,-1,-4,0
1532061624269,-1,0,0,-1,0,-1,0,-1
1532061624274,0,2,0,0,-1,3,-1,-1
1532061624279,-1,1,1,1,1,1,0,-2
1532061624284,0,0,1,0,0,-1,0,-1
1532061624289,0,-2,0,-1,2,-2,-3,-1
1532061624294,-1,1,0,-2,1,-1,-3,1
1532061624299,0,-2,-3,-1,0,-1,0,-1
1532061624304,1,-2,-2,-1,0,0,-1,0
1532061624309,1,-2,-2,0,-1,1,-2,-2
1532061624314,0,-3,-2,-2,0,-1,-1,-4
1532061624319,-1,-1,-1,0,0,-2,-1,0
1532061624324,0,0,0,-2,0,-2,0,-3
1532061624329,-2,-1,-1,-2,0,-2,1,-2
1532061624334,2,-1,0,0,0,-1,-1,-2
1532061624339,-2,-2,-1,-1,1,-2,1,-3
1532061624344,-1,-1,-2,-1,-3,-1,-1,-1
1532061624349,1,0,-1,2,-3,-1,0,1
1532061624354,-2,-1,-1,0,-2,0,0,-1
1532061624359,-2,0,-2,-2,-3,-3,1,0
1532061624364,-1,1,-3,-3,-1,-1,0,-1
1532061624369,0,1,-2,-1,-3,-2,1,1
1532061624374,-1,0,-1,-1,-3,-2,0,2
1532061624379,1,0,2,1,-2,0,0,0
1532061624384,-2,-2,-1,0,-1,1,0,0
1532061624389,-1,-2,-1,1,-1,1,-1,-1
1532061624394,-1,-4,-2,1,-1,1,-2,-1
1532061624399,-1,0,-1,0,1,0,-3,-2
1532061624404,-1,0,0,0,1,-2,-3,-2
1532061624409,-1,-3,0,-2,-2,-4,-2,-2
1532061624414,-2,-2,-1,0,-1,-1,0,1
1532061624419,-1,-1,-1,-3,0,-2,-2,3
1532061624424,-2,1,-2,0,0,-3,-2,-1
1532061624429,1,1,-2,-1,-1,-3,-1,-1
1532061624434,-1,0,-3,-2,-2,-2,1,-3
1532061624439,-2,-1,-1,-2,-2,1,2,-1
1532061624444,0,-1,0,-2,-1,-1,1,3
1532061624449,0,-1,-3,-2,0,2,1,-3
1532061624454,-2,0,-2,0,0,1,-1,2
1532061624459,-1,1,-2,0,-2,1,-1,-1
1532061624464,-2,-3,-1,0,-2,0,0,-1
1532061624469,0,-2,0,-2,0,1,1,0
1532061624474,0,-2,-1,0,-1,-2,0,-4
1532061624479,0,-1,-1,-1,-1,-1,-1,-1
1532061624484,0,-2,0,-2,-3,2,-1,0
1532061624489,-1,1,1,0,-1,1,0,-2
1532061624494,-1,0,0,-3,-1,1,1,-3
1532061624499,-3,0,-3,0,0,-1,-2,-3
1532061624504,-2,-3,-1,1,-2,0,-3,-3
1532061624509,0,-1,-1,0,-2,0,-2,2
1532061624514,0,-2,-1,0,-2,-1,0,1
1532061624519,2,-2,0,1,-3,1,-2,0
1532061624524,2,-1,-1,-2,1,1,-1,2
1532061624529,-2,-2,-2,-1,-2,0,0,1
1532061624534,-1,0,-1,-1,0,0,1,2
1532061624539,-2,-1,0,-1,-3,0,-2,-2
1532061624544,0,-1,-1,1,-1,2,0,-4
1532061624549,-1,-2,-1,0,1,0,-1,-2
1532061624554,1,-1,1,-2,0,-1,-1,-4
1532061624559,-1,-1,-1,-1,0,-1,-1,-4
1532061624564,-2,1,2,0,1,-2,1,-3
1532061624569,0,2,-1,-2,-1,-2,1,-1
1532061624574,0,0,-1,-1,-1,-4,0,1
1532061624579,-2,-3,-3,1,1,-3,0,0
1532061624584,-2,0,0,-1,-2,-1,1,1
1532061624589,-1,0,1,0,-1,-1,0,-1
1532061624594,1,-1,-1,-2,-1,3,1,-1
1532061624599,1,-1,-1,-1,1,1,1,-2
1532061624604,-1,0,-3,-1,-2,0,1,-1
1532061624609,-2,-3,-1,-1,-1,-2,-4,0
1532061624614,-3,-2,-1,-1,-3,-3,-4,-2
1532061624619,-1,0,-2,0,-2,-2,-1,0
1532061624624,0,-2,-3,0,-1,-3,0,-1
1532061624629,0,0,-1,-2,-3,0,-2,-1
1532061624634,-2,-2,-2,1,-2,-3,-4,-3
1532061624639,1,0,-1,-3,-1,-4,2,1
1532061624644,-1,-1,0,1,0,-3,-2,0
1532061624649,-3,-1,0,1,-2,2,-1,-1
1532061624654,-1,-1,2,-1,0,1,-1,-1
1532061624659,0,1,0,-2,0,2,-2,0
1532061624664,-2,-2,-2,-2,0,0,0,-3
1532061624669,-1,0,-2,1,0,0,-2,-3
1532061624674,3,2,-1,1,1,1,3,2
1532061624679,-2,0,1,-2,-2,-3,-2,-2
1532061624684,-1,0,-1,-2,-3,-1,-2,1
1532061624689,-2,-1,0,0,-2,-3,-3,0
1532061624694,-2,-2,-1,0,-1,-1,-1,-3
1532061624699,6,1,-1,0,0,2,-1,3
1532061624704,0,0,-2,-2,1,2,0,-1
1532061624709,1,-2,-1,-3,0,1,1,1
1532061624714,0,-1,-1,-1,0,2,0,1
1532061624719,-2,-2,-1,0,0,2,-1,-3
1532061624724,-1,-3,1,0,1,1,0,-3
1532061624729,0,-1,-1,-1,0,1,-1,0
1532061624734,-3,-2,-1,-1,-2,-2,0,0
1532061624739,2,1,0,0,0,1,2,0
1532061624744,0,0,-1,-2,0,-1,1,-1
1532061624749,-2,-1,-1,0,0,-3,0,-2
1532061624754,0,0,-1,-1,1,-2,-3,-1
1532061624759,-2,-1,-1,-2,-1,1,0,-1
1532061624764,-1,0,0,-2,-2,-1,-1,-1
1532061624769,-1,-1,1,-1,-2,-6,1,-1
1532061624774,-1,-3,-2,-1,-1,-8,0,-1
1532061624779,-2,-1,-1,0,-1,-3,-1,-1
1532061624784,-2,0,-2,0,1,0,-1,0
1532061624789,-3,-1,-2,-3,0,-2,-3,1
1532061624794,1,0,0,-1,-1,-2,-3,1
1532061624799,1,-1,-2,1,0,-6,2,0
1532061624804,-2,-2,0,1,0,-1,-2,-1
1532061624809,-1,-1,-1,-1,0,0,-1,-2
1532061624814,0,-2,-2,1,-1,-1,-1,0
1532061624819,-1,-2,0,0,-2,-2,-1,-1
1532061624824,-1,1,-1,0,-1,-5,-1,0
1532061624829,-1,0,1,-2,-1,-1,-2,-3
1532061624834,-1,-2,0,-3,-1,1,0,0
1532061624839,-2,-1,2,0,1,-3,-2,-2
1532061624844,1,-2,1,0,1,-3,1,-2
1532061624849,-2,-2,-2,1,0,-3,-2,-1
1532061624854,-3,1,-2,-1,-1,0,-1,-2
1532061624859,-1,-1,-1,-2,0,-2,-3,3
1532061624864,-2,2,0,-1,-2,0,0,1
1532061624869,-1,-3,-1,1,-1,2,1,-2
1532061624874,-1,-1,0,2,0,-1,0,-2
1532061624879,0,-1,-3,0,-1,0,0,-3
1532061624884,-1,-1,0,0,0,0,0,-2
1532061624889,-1,-1,1,-3,0,-2,1,-2
1532061624894,0,-1,0,-1,-2,-2,-1,0
1532061624899,1,-2,0,-1,-2,0,-1,0
1532061624904,-1,-1,-3,-3,0,-1,-2,-1
1532061624909,-5,0,-3,-2,-2,0,-2,-5
1532061624914,3,3,-1,0,1,1,2,0
1532061624919,1,0,-2,-1,-1,-1,1,-1
1532061624924,0,0,-2,0,-1,-1,-1,1
1532061624929,-1,-3,-2,-1,-1,-2,1,-2
1532061624934,-6,-4,-1,-2,-2,-1,-2,-3
1532061624939,-4,-2,0,-2,2,1,-1,-1
1532061624944,3,3,1,-2,0,0,1,2
1532061624949,2,1,-1,0,2,-3,0,0
1532061624954,-2,-2,-3,0,-2,-2,-1,-3
1532061624959,-1,-1,0,-1,-2,-2,-3,-3
1532061624964,-1,-4,-2,-3,-2,-2,-3,-2
1532061624969,-2,-1,1,0,-3,0,-1,1
1532061624974,-4,-3,-1,-1,-2,-2,-2,0
1532061624979,5,2,1,-2,1,-1,2,2
1532061624984,-1,-1,0,1,0,0,-1,-5
1532061624989,1,-1,-1,-1,-2,1,-1,1
1532061624994,-1,0,1,-1,-2,-2,-2,-1
1532061624999,-3,1,-2,-1,-1,-3,-1,-1
1532061625004,1,0,1,-1,0,-5,2,0
1532061625009,0,0,1,0,1,-2,-2,-1
1532061625014,2,-1,-1,-1,0,-3,0,-1
1532061625019,-1,1,1,1,0,-1,-2,-1
1532061625024,-1,-2,-3,0,-3,-1,-1,0
1532061625029,0,2,1,1,-2,1,0,-1
1532061625034,1,0,1,0,-2,3,1,2
1532061625039,-3,-2,-3,-2,-2,3,0,-2
1532061625044,0,-2,-3,1,-1,2,-2,-1
1532061625049,-1,-2,-2,-1,-1,0,-1,1
1532061625054,-3,-1,0,-1,-1,-1,1,-3
1532061625059,0,-2,-2,-2,-2,0,-2,-1
1532061625064,-1,-2,1,0,-3,2,0,0
1532061625069,-1,0,-1,-2,1,3,-2,-1
1532061625074,0,0,-1,2,1,3,0,2
1532061625079,-1,-2,0,1,-2,2,0,-1
1532061625084,-1,2,-1,-1,0,-1,-3,-3
1532061625089,0,0,-1,0,-1,-2,0,0
1532061625094,-1,-1,-1,-2,0,-3,0,-4
1532061625099,0,1,-1,0,0,0,-1,-3
1532061625104,0,-1,1,-1,-2,0,-1,0
1532061625109,0,-4,0,-2,-3,-3,0,-1
1532061625114,-1,-1,1,-2,0,-1,-2,0
1532061625119,1,1,0,-1,-1,-3,1,2
1532061625124,0,0,0,-2,0,1,-1,0
1532061625129,-3,-1,-3,-1,-2,0,-1,-3
1532061625134,0,3,-3,-2,-3,-2,-1,1
1532061625139,0,0,-3,0,-2,-1,0,0
1532061625144,-2,-3,-2,0,-1,-2,3,-2
1532061625149,-2,-2,1,-1,-1,-1,2,-2
1532061625154,0,-6,-2,-1,1,3,2,-2
1532061625159,-3,-5,-1,0,1,3,0,1
1532061625164,3,3,-3,-1,-1,-1,0,0
1532061625169,-1,3,-2,1,2,-1,-2,-1
1532061625174,-1,-1,-1,1,0,-3,-3,1
1532061625179,1,-1,1,1,0,-2,-2,-1
1532061625184,-3,-3,1,2,0,1,0,-2
1532061625189,0,-1,-3,0,-2,-1,-1,-2
1532061625194,-2,-2,-1,-2,-2,0,-2,0
1532061625199,1,0,-1,-2,-3,-1,0,-1
1532061625204,-3,-1,-2,-3,-3,0,-1,-2
1532061625209,0,-1,-1,0,-1,0,1,-1
1532061625214,-3,-2,-1,2,1,-4,0,-1
1532061625219,-4,-3,-1,-2,1,-5,-3,-2
1532061625224,1,2,-1,-2,1,0,0,1
1532061625229,-1,1,1,0,1,-1,-1,-1
1532061625234,0,0,-2,-2,1,1,1,-3
1532061625239,-2,1,-1,1,-1,2,-1,-2
1532061625244,-4,-2,-2,0,-1,3,-2,-1
1532061625249,-1,-1,0,-2,-3,-1,-3,0
1532061625254,2,0,-2,-2,-1,1,-3,0
1532061625259,1,0,-3,-1,0,-4,-1,0
1532061625264,0,-1,0,0,-1,-2,-1,-3
1532061625269,-1,-1,-1,-1,1,-2,1,2
1532061625274,-1,0,0,-1,-2,-2,1,-1
1532061625279,-1,-1,-2,0,2,-4,-1,-1
1532061625284,-2,-2,-2,-2,1,-1,0,-3
1532061625289,-4,2,-1,0,1,-2,-2,-3
1532061625294,-2,1,1,1,-1,-1,-2,-1
1532061625299,-2,-1,-2,-2,-1,1,0,0
1532061625304,-4,-4,-1,0,1,-3,0,-1
1532061625309,2,-1,0,0,-1,-2,1,0
1532061625314,1,-1,-1,-1,-2,-2,1,2
1532061625319,0,-1,1,1,-2,2,-2,2
1532061625324,-4,-1,-2,-1,-2,-3,-3,0
1532061625329,3,1,1,-1,-2,0,0,0
1532061625334,-1,0,-1,0,-2,-2,0,-1
1532061625339,0,0,-1,-2,-2,-3,1,-1
1532061625344,0,1,-3,-2,-1,-1,0,4
1532061625349,-2,-2,-1,0,1,0,-1,-1
1532061625354,-1,-1,-2,-1,-2,0,-1,0
1532061625359,1,-1,2,-1,1,3,0,-1
1532061625364,0,-1,0,1,-1,0,-1,-3
1532061625369,-1,-2,-1,-2,-1,2,0,0
1532061625374,1,0,-1,-1,-2,-1,0,-2
1532061625379,-2,-3,-2,1,-2,-1,0,-2
1532061625384,1,-1,0,-2,-2,-3,0,-1
1532061625389,-1,0,0,1,-2,-1,-1,-2
1532061625394,0,2,0,-2,0,2,-2,0
1532061625399,-3,1,-1,-3,-2,1,-5,0
1532061625404,0,-1,-1,0,1,-1,-1,-1
1532061625409,-3,-3,-4,-2,0,-3,-1,0
1532061625414,-1,0,0,2,1,-1,1,0
1532061625419,1,0,0,2,-1,-1,0,-1
1532061625424,0,0,0,0,-1,1,1,1
1532061625429,-1,-1,-1,-1,-1,-1,0,-2
1532061625434,-3,-1,-1,-2,-3,-1,-5,-3
1532061625439,-1,-1,0,-2,-1,-1,-2,0
1532061625444,-1,-1,0,-1,-1,-1,-1,-1
1532061625449,0,-3,-1,-2,-3,-1,-1,-1
1532061625454,1,-2,-2,0,-2,-1,1,-1
1532061625459,0,0,-2,0,1,-2,1,-2
1532061625464,-1,-1,-1,-2,0,-2,-1,-2
1532061625469,-2,-1,-2,-1,0,1,0,-1
1532061625474,-1,-1,-1,-3,2,1,0,-2
1532061625479,-2,-3,-4,-1,0,-2,0,-1
1532061625484,0,0,0,2,-1,-1,0,0
1532061625489,1,0,2,-2,-1,1,-3,-2
1532061625494,0,-1,0,0,-1,0,0,-1
1532061625499,-1,1,1,-1,-3,1,2,0
1532061625504,-1,2,-2,0,-3,0,0,-1
1532061625509,-2,-1,-2,-1,-3,-2,0,0
1532061625514,0,0,-1,0,-2,-1,-5,-1
1532061625519,1,0,2,0,0,0,-3,1
1532061625524,-1,-3,-1,0,0,0,-1,0
1532061625529,1,2,-1,1,0,0,0,0
1532061625534,0,0,0,-2,0,-1,-1,0
1532061625539,0,-1,1,0,-1,-4,-2,-2
1532061625544,-2,0,-1,-1,1,-2,-4,-1
1532061625549,1,-1,-1,1,1,-3,-2,-1
1532061625554,-2,-2,-3,-2,1,0,-4,0
1532061625559,-2,1,-1,-2,2,-1,0,-1
1532061625564,1,-1,0,-2,0,1,0,1
1532061625569,-1,-3,-1,-4,3,1,3,1
1532061625574,-2,-2,-1,-2,0,-3,3,-1
1532061625579,-1,-1,-1,-2,-1,0,0,-1
1532061625584,-3,-3,-1,-2,-1,-2,1,-2
1532061625589,0,0,-1,-1,-1,-3,-2,-1
1532061625594,1,0,-2,1,0,-3,0,1
1532061625599,-2,0,-2,-1,0,-3,0,-2
1532061625604,-1,1,-1,-2,-3,-3,1,0
1532061625609,-1,-1,-1,0,-6,-3,-3,-2
1532061625614,-2,-1,1,-1,-7,-1,-1,1
1532061625619,-3,1,-1,0,-2,-2,-3,0
1532061625624,3,0,0,1,1,-1,-2,0
1532061625629,-2,0,-1,-3,-1,-4,-3,-3
1532061625634,2,-2,0,-1,-1,-5,-3,-1
1532061625639,1,-2,-1,-1,0,-1,-3,0
1532061625644,1,0,-1,-1,0,-2,-2,-2
1532061625649,-2,0,-1,0,-1,3,-1,-3
1532061625654,0,0,0,0,-1,2,1,-1
1532061625659,1,-2,-2,-1,-3,1,2,-1
1532061625664,-1,-1,-3,-1,-1,2,-1,1
1532061625669,1,-1,0,-1,-2,0,-1,1
1532061625674,-1,-1,-1,-2,0,0,2,-2
1532061625679,1,-1,-1,0,-2,2,0,-2
1532061625684,-1,1,-1,-2,1,0,-3,0
1532061625689,0,0,-1,-2,-1,-1,-4,0
1532061625694,0,-2,-2,1,1,-1,-3,1
1532061625699,-2,-3,1,-1,-1,0,-1,-1
1532061625704,-2,-1,-2,-2,-4,-1,4,-1
1532061625709,-3,-1,-1,0,-1,1,3,0
1532061625714,0,0,-2,0,-1,-1,0,1
1532061625719,-1,1,-2,1,0,-2,1,0
1532061625724,-1,-2,0,-1,-3,0,-1,-3
1532061625729,0,-3,-1,-1,-2,-1,0,-4
1532061625734,-2,-2,-1,-2,0,0,0,-1
1532061625739,-1,-1,-1,-1,-1,0,-2,-1
1532061625744,0,0,3,0,0,-2,-5,0
1532061625749,-1,-3,-1,-1,-2,-1,-2,-1
1532061625754,1,-3,0,-1,-2,2,-1,-1
1532061625759,0,-2,1,-2,-1,-3,-1,1
1532061625764,0,-1,-2,0,1,-2,0,-2
1532061625769,-3,2,-1,1,3,1,1,-2
1532061625774,-2,-1,0,-1,1,1,0,-3
1532061625779,-3,-3,-1,0,-1,0,0,0
1532061625784,-1,-5,0,-1,-2,2,2,-1
1532061625789,-1,-1,-1,-2,0,0,-2,0
1532061625794,0,3,-1,-3,-1,0,1,2
1532061625799,0,0,-1,-3,-3,-1,0,0
1532061625804,1,-1,2,-1,-2,-3,-2,1
1532061625809,2,1,0,2,-1,0,-1,-1
1532061625814,0,-2,-2,2,-1,-3,-3,-5
1532061625819,1,0,-2,0,-1,0,0,-3
1532061625824,-2,1,-3,2,-1,1,-1,-2
1532061625829,-1,1,-1,-1,-1,-1,-1,1
1532061625834,-3,0,1,0,0,-2,-2,0
1532061625839,-1,-1,-3,-1,0,-3,-1,1
1532061625844,-1,-1,-2,-2,-3,-3,-1,-1
1532061625849,1,-2,-1,-1,0,-1,2,2
1532061625854,0,-2,-2,0,0,1,0,-1
1532061625859,-2,-4,-1,1,1,-1,1,-1
1532061625864,-2,-3,-2,-1,1,-1,2,0
1532061625869,-1,-1,1,0,-3,1,-1,-1
1532061625874,-1,-1,-2,-2,0,1,-1,-1
1532061625879,-1,-1,0,-1,0,2,-3,-2
1532061625884,1,-1,1,1,0,2,-1,-1
1532061625889,-1,-1,-1,-1,-1,1,0,-1
1532061625894,-1,1,-2,-2,-3,1,-1,1
1532061625899,-2,-1,1,-1,-5,2,-2,0
1532061625904,-2,-1,0,-1,-2,1,-2,2
1532061625909,0,-1,-3,-2,-1,-1,2,-1
1532061625914,-1,0,0,-3,-1,-5,0,-3
1532061625919,-1,1,-2,-1,1,-6,0,-2
1532061625924,1,3,-1,1,0,-2,-1,-2
1532061625929,-1,1,0,0,1,2,0,-1
1532061625934,-1,0,0,1,0,3,-1,-2
1532061625939,0,0,2,-2,0,3,1,2
1532061625944,0,-2,2,-2,-1,-2,-2,1
1532061625949,1,-5,-1,-2,-3,-1,-3,-1
1532061625954,0,-1,1,0,-3,-2,-1,-2
1532061625959,-1,0,-1,-1,-1,1,-2,-2
1532061625964,-2,1,-4,-2,1,3,0,-1
1532061625969,-2,0,-3,1,0,1,-1,-2
1532061625974,0,0,0,1,2,3,0,0
1532061625979,-1,-1,-1,0,2,-2,0,-1
1532061625984,1,1,-1,-3,1,-1,-1,0
1532061625989,2,0,-1,-2,1,-2,-1,2
1532061625994,0,-1,-1,-3,0,4,-2,2
1532061625999,-1,-1,1,0,-1,6,-3,0
1532061626004,-3,-2,-3,1,-1,-1,-3,-3
1532061626009,0,-2,-2,1,0,-4,0,-1
1532061626014,-2,-1,-1,-1,1,-6,0,-3
1532061626019,-1,0,0,-1,0,-3,-1,-1
1532061626024,-1,0,0,-2,-1,-5,-2,0
1532061626029,-2,2,1,0,-2,-7,-3,-1
1532061626034,-1,-1,0,1,0,-7,0,0
1532061626039,-1,-2,0,-1,-1,-5,-2,0
1532061626044,1,-3,1,-2,-2,-5,-2,0
1532061626049,0,-2,1,0,-2,-6,0,0
1532061626054,-1,-2,0,0,0,-5,2,-1
1532061626059,-1,-2,-4,-3,0,-8,0,-2
1532061626064,0,0,-1,0,0,-6,1,-1
1532061626069,-4,-2,-1,-2,2,-2,0,-2
1532061626074,-1,-1,-1,0,-3,-2,0,0
1532061626079,0,-2,-1,-1,-2,-5,-1,-1
1532061626084,-1,0,0,0,0,-3,-1,0
1532061626089,-1,0,-2,-2,0,-1,-1,1
1532061626094,-1,-1,0,-1,-1,0,-1,-2
1532061626099,0,-2,-2,1,-1,0,-2,-1
1532061626104,0,0,-1,0,-3,2,-4,-2
1532061626109,0,0,-1,0,-1,0,-2,-1
1532061626114,-1,-2,-1,0,-1,-2,-2,0
1532061626119,0,0,-2,0,-2,-1,2,2
1532061626124,1,-1,1,-1,-1,-1,2,0
1532061626129,-1,-3,0,1,-1,0,2,0
1532061626134,0,2,1,-1,0,-1,-3,0
1532061626139,-1,-2,0,-1,0,-1,-2,-1
1532061626144,0,-1,-2,-2,1,-1,0,0
1532061626149,-1,0,0,-2,0,-1,1,0
1532061626154,1,-2,-2,-3,-2,1,0,2
1532061626159,1,3,0,-2,-1,0,1,-1
1532061626164,-2,-1,0,-1,-1,1,-2,-1
1532061626169,0,0,1,-1,0,-2,-1,-1
1532061626174,-1,-1,-2,0,-2,-4,1,0
1532061626179,1,0,-3,-3,-1,-1,-2,-1
1532061626184,-2,0,-2,0,0,-3,-1,-2
1532061626189,-2,0,-1,-2,0,-1,-1,-2
1532061626194,-1,0,0,-1,1,0,-1,-3
1532061626199,-2,-3,1,-1,1,2,-1,-2
1532061626204,-1,-5,-2,-2,0,3,-1,-2
1532061626209,-2,-3,-1,-3,-1,-1,-3,-5
1532061626214,0,-2,-2,-1,-1,-5,0,-3
1532061626219,0,0,-1,-1,-3,-6,0,-2
1532061626224,-2,0,-1,1,-4,-3,2,1
1532061626229,-2,0,-2,-2,-2,-2,0,-1
1532061626234,-1,-2,0,-2,0,-5,-3,0
1532061626239,-1,-1,1,-1,-2,-4,-3,3
1532061626244,0,0,0,-1,0,-4,-2,2
1532061626249,0,-1,0,0,3,-4,-3,-1
1532061626254,-1,3,1,-2,1,1,-3,1
1532061626259,-1,1,-1,0,2,-1,0,-2
1532061626264,-1,2,2,0,3,3,-1,0
1532061626269,-2,-1,0,3,1,-5,-1,0
1532061626274,-2,-2,-1,2,-2,0,0,-2
1532061626279,-3,-3,0,-1,-4,3,0,-1
1532061626284,0,0,-1,0,-1,2,3,-1
1532061626289,1,-2,-2,-1,-2,4,2,0
1532061626294,-2,-1,0,1,0,1,-4,-2
1532061626299,0,1,-1,1,-2,-3,-1,0
1532061626304,-1,-2,-2,0,1,-1,-4,0
1532061626309,0,-1,1,1,-2,1,-2,0
1532061626314,1,0,-2,1,-4,-1,-1,-1
1532061626319,-1,1,-1,-1,-3,2,0,0
1532061626324,0,-2,0,-1,-3,2,-2,-2
1532061626329,1,0,-2,-1,-2,2,-2,-2
1532061626334,2,1,-1,0,-1,3,2,0
1532061626339,-1,1,0,-2,1,4,1,-2
1532061626344,0,-1,-3,-1,-1,2,1,-1
1532061626349,-1,-2,-2,-1,-3,5,2,-2
1532061626354,-1,-2,-1,-1,-1,4,-1,1
1532061626359,1,0,-2,-1,-2,3,-2,1
1532061626364,-1,-1,-1,-1,-4,1,0,-2
1532061626369,0,-2,-3,-2,-3,2,0,0
1532061626374,-1,-1,0,0,-1,0,2,-1
1532061626379,0,0,0,1,0,2,-2,0
1532061626384,1,-1,-3,0,1,1,0,-1
1532061626389,-1,1,1,-1,-1,4,1,0
1532061626394,-2,0,-1,-3,0,6,-1,-1
1532061626399,-2,-1,-1,0,0,0,-1,-3
1532061626404,0,1,-1,-2,0,1,0,-2
1532061626409,1,0,0,1,0,3,-2,-1
1532061626414,0,-2,-1,0,-4,0,-4,-3
1532061626419,-2,-2,-1,1,-2,-2,-1,-3
1532061626424,-2,-2,0,1,-1,-5,-2,-4
1532061626429,-1,0,0,1,0,-2,-2,-2
1532061626434,-1,1,0,-1,0,-5,1,-2
1532061626439,-1,-1,-4,-3,2,2,2,-2
1532061626444,-2,0,-2,-2,1,3,1,1
1532061626449,-1,0,-2,-3,-2,4,-1,-1
1532061626454,-2,-2,0,-1,-1,2,-1,0
1532061626459,1,-1,0,1,-3,-1,-3,-1
1532061626464,-1,-2,2,-1,0,-3,-1,0
1532061626469,-1,-1,0,-2,0,-6,-2,-1
1532061626474,0,-1,-1,-1,2,-5,-1,1
1532061626479,-2,0,0,0,0,-6,-1,1
1532061626484,0,0,-1,1,-1,-6,-6,1
1532061626489,-1,0,-1,0,0,-6,-3,1
1532061626494,0,-3,-1,-1,-2,-6,1,1
1532061626499,1,-1,-1,-2,-1,-1,-1,-2
1532061626504,0,2,-1,0,-1,-2,0,1
1532061626509,0,-2,1,1,1,-3,0,0
1532061626514,0,-1,-1,0,-2,0,-1,-1
1532061626519,-1,-3,0,-2,-4,-2,-3,-2
1532061626524,-1,0,-2,-1,-1,-3,-1,-3
1532061626529,1,1,2,0,-2,-4,-1,-2
1532061626534,-1,0,-1,-2,-1,-3,0,-2
1532061626539,-1,0,-1,0,1,-2,1,1
1532061626544,-1,0,-2,-3,-2,-1,-2,0
1532061626549,0,-1,0,-3,0,-3,0,-2
1532061626554,-2,2,0,-1,0,-1,-2,-2
1532061626559,0,0,0,0,-3,0,-1,-1
1532061626564,0,-2,-2,-1,1,0,1,1
1532061626569,-1,0,-1,1,0,-2,-1,1
1532061626574,-1,-3,0,-1,-1,-1,-3,-1
1532061626579,-2,-2,0,0,0,-3,-2,-3
1532061626584,0,-3,0,0,-1,1,2,-3
1532061626589,-3,-2,-2,-1,-1,1,1,3
1532061626594,0,1,-2,-2,0,2,-1,1
1532061626599,-1,1,-2,0,1,-1,-1,-1
1532061626604,1,0,0,-2,-2,0,0,-3
1532061626609,-1,-2,-1,-2,-3,1,1,-3
1532061626614,-1,-1,-1,0,1,-1,1,-1
1532061626619,0,-2,-2,-1,1,-3,-2,-1
1532061626624,-2,-1,0,-1,-3,-3,-2,-1
1532061626629,1,-1,-2,-2,-1,-2,-1,-1
1532061626634,0,0,-2,-2,0,0,0,-2
1532061626639,-1,0,1,0,-1,0,0,-1
1532061626644,-1,1,0,-1,1,1,2,-1
1532061626649,0,0,-1,0,1,3,-1,-1
1532061626654,-2,-1,0,1,-1,-1,0,1
1532061626659,0,-1,-2,-2,1,1,0,1
1532061626664,1,-1,0,-1,0,-2,-5,2
1532061626669,-1,0,-3,-1,0,0,-3,-1
1532061626674,-1,-1,-1,-1,1,-2,-2,-2
1532061626679,-1,1,-1,-3,0,0,1,-2
1532061626684,0,-1,0,-2,-2,0,1,0
1532061626689,-1,-1,-2,-1,-2,-1,1,0
1532061626694,1,0,-2,0,-2,-1,1,1
1532061626699,-1,1,0,-2,-2,-1,-1,0
1532061626704,-3,0,-3,-2,0,-4,-2,-2
1532061626709,-2,-2,-1,0,-2,1,-3,-2
1532061626714,0,-6,-1,-1,0,0,-3,-2
1532061626719,-2,-2,0,-1,-3,-1,-2,-1
1532061626724,0,1,-1,1,-2,-2,0,0
1532061626729,0,0,-2,0,-1,-3,0,-1
1532061626734,-3,0,-1,0,-1,-2,0,-1
1532061626739,-2,2,1,-1,1,0,0,-1
1532061626744,-2,-2,1,-1,-2,-1,0,1
1532061626749,-2,-1,0,-4,2,-1,-2,0
1532061626754,0,2,0,-4,1,0,-2,1
1532061626759,-1,-2,-2,-2,0,-1,-3,-3
1532061626764,-1,4,-1,-3,0,1,1,-2
1532061626769,0,0,-3,-1,-1,-2,0,-1
1532061626774,1,-3,-2,1,-1,1,1,-1
1532061626779,-2,-4,-2,0,1,-1,-2,-2
1532061626784,-2,-4,-3,-1,0,-2,-3,-1
1532061626789,0,-1,-2,0,0,-1,-1,-1
1532061626794,0,3,-1,0,-1,0,0,-1
1532061626799,0,2,-1,0,-1,0,4,-2
1532061626804,-3,-3,-1,0,0,-2,0,-4
1532061626809,1,-2,-2,-1,1,-6,-2,0
1532061626814,-1,0,0,-1,1,-4,-2,-1
1532061626819,-1,-1,-2,1,-1,-5,0,1
1532061626824,-2,-1,0,0,1,-3,1,0
1532061626829,-2,2,1,0,-3,0,0,1
1532061626834,-1,-3,-1,0,-4,-1,0,0
1532061626839,-2,-2,1,0,-3,-2,-2,-1
1532061626844,0,-2,1,-1,0,-6,-2,1
1532061626849,-2,-1,-2,0,-2,-4,0,1
1532061626854,0,-1,1,-1,-3,-3,-2,-2
1532061626859,0,1,0,0,-2,-2,-2,-1
1532061626864,1,-1,-1,-2,-2,-2,-2,-2
1532061626869,-2,0,0,-2,-5,0,-2,-2
1532061626874,-2,-1,-2,0,-3,0,1,1
1532061626879,-1,-1,-3,-2,0,1,0,4
1532061626884,-1,-1,-1,0,2,4,0,3
1532061626889,-2,-3,-2,-2,-1,1,2,1
1532061626894,-1,0,0,-2,-2,-5,2,0
1532061626899,0,-1,-1,-3,-3,-2,0,1
1532061626904,2,2,-1,0,-2,2,-1,-1
1532061626909,0,0,2,0,-1,3,-1,-2
1532061626914,-2,-3,-1,0,1,3,-2,-2
1532061626919,-1,-2,-2,0,2,2,1,-2
1532061626924,0,-2,-2,0,-2,4,1,-2
1532061626929,-1,-2,-3,-1,1,5,-2,-2
1532061626934,2,-1,-3,-2,-2,3,-4,0
1532061626939,-1,-1,0,-1,-1,1,-1,2
1532061626944,0,-2,-2,-1,-2,-2,-4,-1
1532061626949,0,0,-2,-1,-2,-1,-2,1
1532061626954,-2,1,0,0,0,-1,0,-1
1532061626959,0,1,0,2,-2,0,-4,-1
1532061626964,-2,0,0,0,0,0,-1,0
1532061626969,-2,-1,-1,0,0,-1,0,-1
1532061626974,0,-2,0,-1,1,2,0,-1
1532061626979,2,-1,0,-2,-2,3,1,-4
1532061626984,-2,-3,1,1,-1,2,0,-7
1532061626989,1,-2,-1,-1,-3,4,-1,-6
1532061626994,1,-1,0,1,-3,0,-2,-3
1532061626999,-1,0,0,0,0,-2,1,-2
1532061627004,0,-1,-1,-2,-3,-2,1,1
1532061627009,-2,0,1,0,0,-3,1,-1
1532061627014,-2,0,-2,-1,1,-1,-1,0
1532061627019,1,0,-2,-1,1,0,-3,-2
1532061627024,-1,0,0,-3,0,3,1,0
1532061627029,-1,0,-1,-2,1,2,-1,1
1532061627034,-4,0,0,-1,1,2,-4,-3
1532061627039,-1,-1,-2,0,1,3,-2,0
1532061627044,1,-1,-3,1,-2,11,-1,2
1532061627049,0,-1,-1,0,-3,7,-1,1
1532061627054,0,-1,-1,-1,0,4,1,0
1532061627059,-2,0,-1,-2,0,-9,-1,1
1532061627064,-2,0,-1,-3,-2,-9,-2,-2
1532061627069,0,0,0,-2,0,-2,0,-1
1532061627074,0,-1,-1,-1,-4,0,0,2
1532061627079,0,-1,-2,-1,-2,1,1,0
1532061627084,-1,-1,-1,-1,-1,1,1,1
1532061627089,0,-2,-2,1,-2,0,-1,0
1532061627094,-2,0,0,1,0,-5,2,-2
1532061627099,0,0,-1,1,0,2,-2,-2
1532061627104,0,0,0,-2,0,1,-2,-1
1532061627109,0,0,3,-2,-1,0,-2,-1
1532061627114,1,-3,0,-2,1,3,-3,-2
1532061627119,0,-1,1,-1,-1,0,-1,0
1532061627124,-3,-2,-1,0,0,-2,-1,0
1532061627129,0,-3,-1,-2,0,0,0,-1
1532061627134,-2,1,-1,-4,0,-6,2,0
1532061627139,-2,0,0,-2,1,-9,-1,-1
1532061627144,1,-1,-1,-3,0,-2,-2,-3
1532061627149,-2,-2,-4,-2,1,-7,-4,-2
1532061627154,-1,0,0,-1,0,-3,0,1
1532061627159,-2,0,1,1,-2,1,0,1
1532061627164,0,-3,1,3,-1,-7,-1,0
1532061627169,-3,-2,0,1,-1,-7,-2,-1
1532061627174,3,0,-1,-1,1,-1,0,-2
1532061627179,1,1,0,-2,0,-1,1,-2
1532061627184,0,-1,-2,-2,0,-5,0,0
1532061627189,-1,-1,-1,0,1,-6,-1,0
1532061627194,-2,-1,-1,0,-1,-6,-3,0
1532061627199,0,1,0,-1,0,-3,0,-1
1532061627204,-1,2,0,0,0,-4,1,1
1532061627209,-1,0,0,0,4,-6,-1,-1
1532061627214,-1,-2,0,0,-1,-3,-2,-2
1532061627219,0,-3,-1,0,-1,1,-4,-1
1532061627224,-2,-1,0,-1,-2,-3,-2,2
1532061627229,-3,0,0,0,-3,-3,-1,-1
1532061627234,-1,-1,-2,-1,1,-3,1,1
1532061627239,-1,-3,-2,-1,0,-4,1,-3
1532061627244,-2,-1,0,-2,0,-3,-1,-3
1532061627249,0,0,0,-1,-1,-4,-1,0
1532061627254,-1,-2,-3,0,-2,0,-3,-2
1532061627259,1,-1,0,-1,0,-1,-1,-1
1532061627264,0,-2,-1,-1,1,0,2,0
1532061627269,0,-1,1,-3,-1,-2,-1,1
1532061627274,-1,1,0,-3,1,-3,-1,-2
1532061627279,-1,0,0,-1,0,0,0,-3
1532061627284,-2,-1,-2,-1,-2,-1,0,-1
1532061627289,0,-1,-1,0,-1,1,-1,1
1532061627294,-1,0,-2,0,-2,0,-1,-1
1532061627299,-2,-1,-4,2,-1,0,0,0
1532061627304,0,-1,-1,1,0,-1,-2,-3
1532061627309,-1,-1,0,-1,1,0,-2,0
1532061627314,1,-2,0,0,1,-1,-1,-1
1532061627319,-1,-1,-2,-2,0,-2,0,-3
1532061627324,-1,-1,0,-2,-1,-2,2,-2
1532061627329,-2,-1,-2,0,-1,-4,-1,0
1532061627334,-1,-1,-3,-1,-3,-2,-2,0
1532061627339,0,-1,0,-1,-4,-1,-2,-1
1532061627344,-1,0,2,-2,-1,-1,-2,-1
1532061627349,1,-2,1,-1,0,-2,0,0
1532061627354,0,-3,-2,-1,0,0,0,-2
1532061627359,-1,-3,-3,-3,-2,1,-2,-1
1532061627364,0,0,0,-4,-4,-1,-1,0
1532061627369,-3,0,-1,-1,-4,-1,-2,-1
1532061627374,-1,0,2,-1,-2,-3,-1,-2
1532061627379,-1,-4,1,-3,-3,-4,0,-4
1532061627384,-1,-1,0,-3,-3,0,0,-3
1532061627389,-3,0,-2,-3,-3,-3,-2,-2
1532061627394,1,1,1,-2,0,-2,-1,1
1532061627399,0,1,-2,-1,2,-4,0,2
1532061627404,1,1,-1,0,1,-7,0,1
1532061627409,-1,1,-1,-1,-1,-5,-1,0
1532061627414,-3,-2,0,1,-1,-3,-2,-1
1532061627419,-1,-2,0,4,-1,-2,-1,-2
1532061627424,-1,-2,0,2,1,-1,0,-1
1532061627429,2,-1,0,2,-2,-1,2,0
1532061627434,1,0,-1,2,0,1,2,0
1532061627439,-1,-1,-1,-1,-1,2,2,0
1532061627444,-1,-1,-1,1,0,3,-3,-2
1532061627449,0,-1,-3,2,1,7,-3,-3
1532061627454,-1,-3,-2,-1,-1,7,-3,-2
1532061627459,0,0,-2,0,2,3,0,0
1532061627464,1,0,-3,-2,0,1,-2,0
1532061627469,-1,2,-1,-3,1,-1,0,0
1532061627474,-1,1,-2,-1,-1,0,1,1
1532061627479,-2,-1,-1,-2,0,1,2,0
1532061627484,-1,-1,-1,-2,-2,-1,0,-2
1532061627489,-2,-3,-1,-1,-2,-1,-1,-1
1532061627494,0,-2,-2,-1,-1,-1,-1,-2
1532061627499,0,-2,0,0,-2,0,-2,-2
1532061627504,-1,-2,-3,0,-4,3,-2,-3
1532061627509,2,1,-2,-1,0,0,1,-3
1532061627514,-1,1,-1,0,0,0,-3,1
1532061627519,0,-2,-1,-2,-1,-1,-2,2
1532061627524,-2,-1,-1,-1,1,0,0,1
1532061627529,-2,-2,-1,0,-2,0,0,2
1532061627534,-1,0,-2,0,0,-2,0,0
1532061627539,0,1,0,0,-1,2,0,-1
1532061627544,-1,0,-1,0,-1,1,0,2
1532061627549,-1,-1,-1,-1,-1,2,1,-2
1532061627554,0,0,-1,-1,0,2,0,0
1532061627559,0,-1,-1,-2,1,1,-1,1
1532061627564,0,0,0,-2,1,1,1,0
1532061627569,-2,-1,0,-1,0,0,1,-2
1532061627574,0,-2,-1,-1,0,2,2,-3
1532061627579,1,1,-1,0,-2,3,-1,-5
1532061627584,1,-1,1,1,-2,-1,-3,-3
1532061627589,1,-1,0,-2,1,0,1,-1
1532061627594,-3,0,0,-3,-1,-1,-1,0
1532061627599,-1,-1,-1,0,-2,-1,0,-2
1532061627604,-3,0,0,2,-2,-2,-2,0
1532061627609,-1,0,-1,0,-2,-1,-2,0
1532061627614,0,-2,-2,-1,-1,-4,1,0
1532061627619,-1,0,-2,0,0,1,-1,1
1532061627624,-1,0,-2,0,-1,3,1,-1
1532061627629,-1,-2,1,-2,-1,4,-1,0
1532061627634,1,-2,-2,-1,-1,0,-1,1
1532061627639,-1,-1,0,0,0,-2,-1,-1
1532061627644,-1,-1,-3,-2,1,-2,-1,1
1532061627649,-1,-1,-1,1,-1,-1,-3,0
1532061627654,-1,0,-1,0,-2,-2,1,0
1532061627659,-1,0,-1,0,-2,-2,0,-1
1532061627664,0,0,0,-3,0,-3,0,-1
1532061627669,-1,-1,-2,-2,0,-5,2,-3
1532061627674,-1,0,0,-2,-1,-3,-1,0
1532061627679,1,-1,-2,-2,0,-4,-1,-1
1532061627684,1,1,0,-2,-1,-4,-1,1
1532061627689,-2,-2,-1,-1,-2,-3,0,0
1532061627694,-1,-3,0,-1,0,-3,-2,-2
1532061627699,-1,-1,-1,0,-1,0,1,0
1532061627704,-2,0,-1,-1,-2,-3,-1,-1
1532061627709,1,-1,-1,0,-1,-4,-3,0
1532061627714,-1,-2,-1,-1,0,1,-1,-1
1532061627719,-4,-1,2,0,-1,0,-3,-3
1532061627724,-1,1,0,-1,-1,-1,0,-1
1532061627729,-1,0,-3,-2,0,-1,0,-1
1532061627734,-1,-1,-3,0,0,-1,-1,0
1532061627739,-1,-2,0,-2,-1,-4,-2,0
1532061627744,0,-2,-2,-1,-1,-1,-2,-1
1532061627749,-2,-1,0,0,-2,-2,0,-2
1532061627754,-1,0,0,-1,-1,0,-3,0
1532061627759,0,1,-1,-1,-2,0,-1,0
1532061627764,0,-1,-1,0,-1,-1,0,-2
1532061627769,-1,-1,-1,-2,-1,0,-2,-1
1532061627774,-1,0,0,-2,-1,0,1,0
1532061627779,-1,2,0,-1,0,-1,1,0
1532061627784,0,2,-1,0,-1,-4,0,1
1532061627789,-2,0,0,1,0,-1,0,1
1532061627794,-1,-1,0,0,-4,-2,2,-1
1532061627799,0,-1,-1,-2,-2,-3,-4,-1
1532061627804,-1,-3,-2,-2,-1,3,-1,-3
1532061627809,-1,0,1,0,1,3,-2,-1
1532061627814,-1,1,1,1,-1,0,-3,-1
1532061627819,-1,-1,1,0,1,1,0,1
1532061627824,-2,-1,1,0,1,1,-1,0
1532061627829,-1,-1,-1,-1,-2,-3,-1,-1
1532061627834,-2,-2,0,-1,-1,-2,-1,-2
1532061627839,-1,-2,-2,1,-1,-1,1,0
1532061627844,-1,-4,-1,0,0,0,0,-1
1532061627849,0,-1,0,-2,0,-1,-1,0
1532061627854,0,1,0,-1,-1,0,0,-2
1532061627859,-1,0,0,0,0,-1,-1,-3
1532061627864,-1,-1,0,0,-1,-2,-1,-1
1532061627869,-1,0,-1,-1,-1,-2,0,-2
1532061627874,1,0,-2,0,2,-2,-2,0
1532061627879,0,-1,-2,-3,0,1,0,-1
1532061627884,-1,-1,-1,-1,-1,0,0,0
1532061627889,0,0,-2,0,1,-2,-1,0
1532061627894,-2,-3,1,2,-2,-4,-1,0
1532061627899,-4,-2,-2,0,-1,-3,1,0
1532061627904,-1,-1,-1,0,-1,-3,-1,0
1532061627909,0,-1,-1,0,1,-2,0,0
1532061627914,0,1,-2,0,-2,0,1,-3
1532061627919,0,1,1,-2,-3,1,-2,1
1532061627924,-2,1,1,-1,-1,-1,-1,-1
1532061627929,0,-1,0,-1,-1,-1,-2,0
1532061627934,-2,-2,1,-2,-1,0,-1,-2
1532061627939,-2,-2,0,0,0,-1,-2,0
1532061627944,-1,-1,-2,-1,-1,-1,-5,-2
1532061627949,0,-1,-1,0,0,1,6,-1
1532061627954,0,0,-2,-1,2,-1,-4,1
1532061627959,0,-2,-1,-2,1,-1,-1,-1
1532061627964,-1,-2,-1,0,0,0,-2,-1
1532061627969,-2,-2,0,1,-2,0,-4,-2
1532061627974,-2,-2,-2,-2,-3,0,0,0
1532061627979,-1,-2,0,1,-1,2,1,-1
1532061627984,-1,-2,1,-1,0,-2,0,0
1532061627989,-1,0,0,0,1,-1,-3,-1
1532061627994,-1,1,-1,0,1,-2,0,-2
1532061627999,-1,0,-1,1,-2,-2,-2,0
1532061628004,-2,-3,-1,-1,-2,-1,0,-4
1532061628009,-1,-2,-2,-1,-3,1,-1,-1
1532061628014,-1,-1,-1,-1,-2,-3,0,0
1532061628019,-1,0,-2,-2,-1,-1,1,-4
1532061628024,0,1,-4,-2,2,-2,1,-1
1532061628029,0,-2,-2,-3,-1,0,-2,-1
1532061628034,0,-2,-3,-2,0,0,-3,0
1532061628039,-1,-2,1,0,-1,-7,1,-1
1532061628044,0,0,-1,-1,0,-5,-1,0
1532061628049,-2,1,-1,-2,-1,-4,-3,-1
1532061628054,-2,0,1,-3,-1,-1,-1,0
1532061628059,-1,-1,0,-1,1,-2,-3,-1
1532061628064,0,-2,1,-2,1,1,0,1
1532061628069,0,0,-1,0,1,-2,-3,0
1532061628074,-1,0,0,-1,0,1,1,-1
1532061628079,0,1,-2,0,-2,0,-2,0
1532061628084,-2,0,1,0,-3,-1,1,-1
1532061628089,-1,1,0,1,-1,-1,1,-1
1532061628094,1,0,0,2,1,-1,-1,0
1532061628099,1,-2,-2,-1,1,0,-2,2
1532061628104,-1,-1,-1,0,-3,2,2,0
1532061628109,2,-2,-2,-1,-1,2,6,2
1532061628114,-1,-2,-2,-3,-2,2,2,0
1532061628119,0,-1,-1,-1,0,3,1,-2
1532061628124,1,0,-1,0,-1,4,-3,-1
1532061628129,-1,0,2,-3,0,4,-2,0
1532061628134,0,0,0,-1,0,2,-4,3
1532061628139,0,0,-2,1,1,-1,-1,-2
1532061628144,-2,-2,0,-2,0,-1,-1,0
1532061628149,-3,-2,-3,0,-1,-1,-3,-2
1532061628154,-2,-2,-2,-1,-3,0,-3,-2
1532061628159,-1,0,-1,-2,-3,1,-5,-2
1532061628164,1,1,-2,1,0,1,-4,-4
1532061628169,0,0,0,-1,1,-2,-3,-4
1532061628174,-1,-2,-1,0,0,-2,-2,-4
1532061628179,1,-1,-1,0,0,2,-2,0
1532061628184,0,1,0,0,-2,-2,4,-2
1532061628189,-3,-1,-2,1,-2,-1,3,1
1532061628194,0,0,-3,-1,-1,-1,-1,-1
1532061628199,-1,-2,0,-1,0,-3,-6,2
1532061628204,-1,-1,0,0,1,0,-4,3
1532061628209,-1,-2,-1,0,-1,0,-4,1
1532061628214,1,-1,1,-1,-3,1,0,2
1532061628219,-1,0,-1,0,-3,1,1,2
1532061628224,-1,-2,-2,0,-3,2,-1,0
1532061628229,0,-2,-2,0,-4,0,-2,-3
1532061628234,-1,-1,-1,-1,0,0,1,-4
1532061628239,0,-1,-1,1,0,-2,2,-3
1532061628244,-1,0,-2,0,0,-2,0,-2
1532061628249,-2,-2,1,0,-2,-3,0,0
1532061628254,0,-2,0,0,-1,2,1,0
1532061628259,-1,0,0,-1,1,-1,0,-1
1532061628264,0,1,-1,-3,0,4,-1,-3
1532061628269,-1,-1,-1,-2,-2,-2,-1,0
1532061628274,-1,0,0,-3,-1,-7,-2,0
1532061628279,0,-2,-1,-2,1,-2,-1,0
1532061628284,-1,0,-1,-1,1,-3,1,0
1532061628289,-1,-2,-1,0,1,6,-1,0
1532061628294,0,-1,-1,0,0,3,2,0
1532061628299,0,-1,-2,0,1,0,1,-2
1532061628304,1,0,2,1,0,0,-2,-3
1532061628309,-1,2,1,1,0,-8,0,0
1532061628314,0,0,0,-1,0,-5,0,1
1532061628319,-1,-2,1,-2,-2,-9,-1,-1
1532061628324,-1,-2,-2,-1,0,-7,-1,-1
1532061628329,-1,1,0,-1,0,-1,0,-2
1532061628334,-2,-2,0,0,1,1,1,-1
1532061628339,-2,1,-1,0,-1,-4,-1,0
1532061628344,-1,0,0,0,0,-2,0,2
1532061628349,1,-2,0,-2,-1,-3,-1,0
1532061628354,0,-1,0,-3,-3,-3,0,-1
1532061628359,0,-2,-1,-3,0,-3,-3,-1
1532061628364,0,0,-2,-1,-1,-4,-3,-1
1532061628369,-1,0,0,-1,1,0,0,-1
1532061628374,0,-3,-1,1,3,0,1,-1
1532061628379,-1,-1,-1,0,1,0,-2,-1
1532061628384,-3,-3,-2,-3,0,3,-1,-1
1532061628389,1,-1,0,-2,1,2,-2,0
1532061628394,0,-1,0,-2,-1,-1,0,0
1532061628399,0,-1,0,-1,0,-4,0,-2
1532061628404,1,-1,-1,1,-1,-3,0,-2
1532061628409,-2,-1,-2,1,-2,-1,0,-2
1532061628414,-2,-1,-2,-2,0,-1,-1,0
1532061628419,-2,1,0,0,-2,0,-1,-1
1532061628424,-1,-1,0,0,-2,-1,-1,0
1532061628429,0,-2,1,0,-3,-1,1,1
1532061628434,-2,-1,-1,-1,-1,0,0,-2
1532061628439,-1,0,-1,-1,0,0,-2,-1
1532061628444,-1,0,-1,-1,1,0,1,0
1532061628449,0,0,-1,-1,-1,0,-1,-1
1532061628454,0,-2,-2,-2,1,-1,-2,0
1532061628459,-2,-1,-2,-1,-1,-3,0,-1
1532061628464,-1,0,-2,-1,-2,-2,-1,-1
1532061628469,-1,-2,-2,2,-1,0,-1,-1
1532061628474,-1,-2,1,2,-3,1,-2,-1
1532061628479,1,0,-1,1,1,1,-2,-2
1532061628484,0,0,-1,0,0,1,-2,-2
1532061628489,0,1,1,-1,1,-1,0,0
1532061628494,-1,2,-1,1,0,0,0,0
1532061628499,-1,-2,1,0,-3,-2,0,-1
1532061628504,-1,-2,1,1,0,-1,0,-1
1532061628509,0,-1,-1,-2,-2,-2,-2,-2
1532061628514,-2,-2,0,-2,0,1,-2,-3
1532061628519,0,-2,-2,-2,-2,2,-1,-1
1532061628524,-1,-2,-4,-1,-4,0,-1,-2
1532061628529,1,-1,0,-2,-3,-1,0,-3
1532061628534,-1,-1,-3,-2,-2,-3,-2,-3
1532061628539,-1,0,-1,-1,0,-5,-1,1
1532061628544,-2,-1,0,-1,-1,-4,0,0
1532061628549,-1,-1,-2,-1,0,-2,-3,4
1532061628554,0,0,-1,-1,-2,-1,0,2
1532061628559,1,-1,-2,-1,-4,1,-1,1
1532061628564,-1,-1,-2,-2,1,-2,0,-1
1532061628569,-1,0,-1,-2,0,-2,-3,-2
1532061628574,1,-1,0,-1,1,-1,1,-2
1532061628579,-2,-1,-1,-1,-1,-4,-1,-2
1532061628584,-3,-1,0,0,1,-7,-4,-1
1532061628589,-2,-3,0,-2,0,-7,-3,-1
1532061628594,-2,-1,1,1,0,-11,-3,0
1532061628599,-3,-1,2,1,-1,-11,-4,-3
1532061628604,-1,-1,1,0,-5,-7,-3,-4
1532061628609,-2,-1,1,1,-2,-3,-2,-5
1532061628614,-6,-3,-1,-1,-3,-4,-3,-14
1532061628619,-3,-2,0,1,-1,-5,0,-9
1532061628624,0,0,-1,1,0,-8,-5,-6
1532061628629,1,-1,0,1,-3,2,0,-3
1532061628634,-7,1,1,2,0,4,-1,-4
1532061628639,-3,-1,-3,-2,2,-1,0,2
1532061628644,1,0,-3,-7,0,0,2,8
1532061628649,7,0,1,-2,-2,1,6,13
1532061628654,11,2,1,-4,1,5,6,17
1532061628659,5,0,0,-3,2,12,4,9
1532061628664,1,0,-4,0,1,11,3,6
1532061628669,1,-1,-6,-2,1,7,0,1
1532061628674,6,-3,-4,1,1,8,-2,5
1532061628679,3,0,-1,-2,0,7,-1,8
1532061628684,-2,1,2,0,1,9,7,-3
1532061628689,-9,0,0,-1,0,7,4,-4
1532061628694,-6,2,-2,0,-1,2,3,-2
1532061628699,-3,-1,-2,-3,-1,1,-2,-2
1532061628704,-2,-2,2,-3,-1,2,-3,3
1532061628709,-3,-1,0,0,1,0,-4,-2
1532061628714,-2,-2,-1,-4,-2,0,-3,0
1532061628719,0,-1,-2,-3,-3,1,-1,-2
1532061628724,0,-1,-2,-2,-2,0,-1,-5
1532061628729,-2,-2,0,-1,-2,-2,-1,-6
1532061628734,2,-1,1,-1,-1,-3,-1,-2
1532061628739,-2,-1,1,1,-1,-3,0,-5
1532061628744,2,-1,-3,-1,-2,0,-2,-3
1532061628749,-1,1,-1,0,-1,-1,-5,-2
1532061628754,0,-1,-2,-1,-3,-2,-5,-4
1532061628759,-1,-2,0,1,-3,-2,-3,-5
1532061628764,0,-2,-1,0,-1,-2,-6,-3
1532061628769,0,-1,-2,0,-2,-3,1,-3
1532061628774,-1,-1,-3,-1,0,0,5,-4
1532061628779,0,0,-2,0,-1,-2,4,-2
1532061628784,0,-1,-1,-1,-2,-1,7,-1
1532061628789,-1,-1,-2,0,-1,2,6,1
1532061628794,0,-2,-2,-1,-1,0,1,-1
1532061628799,-2,-3,-2,1,1,1,-1,2
1532061628804,-1,-1,-3,-1,-1,-1,-6,2
1532061628809,0,0,-1,-1,-1,0,-8,1
1532061628814,-1,-2,-1,-2,-2,0,-3,1
1532061628819,0,-1,-1,1,-2,0,-3,1
1532061628824,-1,-2,-1,-1,-3,0,0,0
1532061628829,0,-2,-2,-1,0,-2,1,0
1532061628834,0,1,-1,-2,-1,-1,-2,0
1532061628839,-1,-2,-1,-4,-1,1,-3,1
1532061628844,-2,-2,1,-1,0,4,0,-3
1532061628849,-1,-1,-1,0,0,-3,0,-1
1532061628854,-1,-2,2,0,2,0,1,-2
1532061628859,-1,0,2,1,0,0,0,-1
1532061628864,-1,0,1,3,2,3,0,2
1532061628869,-1,0,-1,1,-1,1,-2,0
1532061628874,-2,1,-1,1,-2,0,-4,2
1532061628879,1,0,0,-1,-1,-2,1,-2
1532061628884,-1,1,1,-1,-1,-3,0,-2
1532061628889,-1,0,-1,0,-2,-4,1,-1
1532061628894,-1,-2,0,-2,0,-1,1,-2
1532061628899,-1,0,0,-1,-1,-1,0,1
1532061628904,0,1,-2,-2,-1,-2,-3,0
1532061628909,-1,-1,0,-2,0,0,-4,-1
1532061628914,-2,-1,-1,1,-2,-2,-3,-1
1532061628919,-1,0,-2,-2,-1,-2,-2,-1
1532061628924,0,-1,-2,-3,-2,-4,-2,0
1532061628929,0,1,-3,-5,0,-2,-2,0
1532061628934,1,1,-3,-2,-2,-4,-1,-1
1532061628939,0,-3,-2,-1,0,-1,-1,-2
1532061628944,-1,-1,-1,0,-1,-4,0,0
1532061628949,-1,-2,-1,0,0,0,0,0
1532061628954,-1,-1,-1,0,1,-1,1,-1
1532061628959,0,0,0,0,-2,-3,0,-2
1532061628964,0,0,-1,1,2,-3,-2,-1
1532061628969,1,1,-1,1,0,-2,-2,1
1532061628974,-1,-1,-1,-2,1,-2,-1,0
1532061628979,-1,-1,-2,-2,0,-1,-3,-1
1532061628984,0,-3,0,-1,-2,0,0,-1
1532061628989,0,-2,-1,-2,-2,-2,-3,-1
1532061628994,0,0,0,1,-1,-2,-3,0
1532061628999,-1,-1,1,1,-2,-2,0,1
1532061629004,-1,-1,1,1,-1,-1,0,-1
1532061629009,-2,-1,1,0,0,-2,-1,-2
1532061629014,0,1,0,-2,-1,-1,-1,-1
1532061629019,-1,2,-2,-2,-2,-1,-1,-3
1532061629024,-1,0,-1,1,-1,-1,1,-2
1532061629029,-1,1,-1,-1,-1,-1,0,0
1532061629034,-1,-2,0,-2,0,-1,-1,0
1532061629039,1,0,1,-1,-1,-2,-1,-1
1532061629044,0,-1,0,-2,0,1,-2,0
1532061629049,-1,2,0,1,0,2,0,-1
1532061629054,-2,-1,0,1,0,2,0,-2
1532061629059,1,-1,-1,-1,-1,-1,0,0
1532061629064,-2,-1,-1,-1,-1,-3,-1,-1
1532061629069,-1,-3,0,-2,0,-1,-1,-1
1532061629074,1,-1,-1,0,-2,-1,0,-1
1532061629079,1,-1,0,-1,1,-1,1,-1
1532061629084,-1,1,0,-2,1,-2,-3,-1
1532061629089,-2,-2,0,-4,0,-3,0,0
1532061629094,-1,-1,-2,0,-1,-2,0,0
1532061629099,-2,0,0,-2,-2,-2,-2,0
1532061629104,-1,-1,-2,-1,-3,0,-2,0
1532061629109,-1,0,-1,-1,-3,0,-1,-1
1532061629114,0,-2,-1,0,-1,-1,-1,-2
1532061629119,0,-1,-2,0,1,-1,-1,-2
1532061629124,1,-1,0,0,0,0,1,-1
1532061629129,0,0,1,0,-2,-1,-1,0
1532061629134,-2,-1,0,0,0,0,-2,-2
1532061629139,0,-1,2,1,-2,1,-3,1
1532061629144,-3,1,0,0,1,-1,-7,0
1532061629149,0,-2,-1,-1,-1,-1,1,-2
1532061629154,0,0,-2,-1,0,-1,1,-1
1532061629159,-1,-2,-1,-2,0,2,1,0
1532061629164,-1,-1,0,0,-1,-2,0,-1
1532061629169,-3,-1,3,1,-2,-2,-1,1
1532061629174,-1,1,2,-1,-2,-1,0,-1
1532061629179,-1,0,1,-1,1,1,0,-2
1532061629184,1,0,-1,-3,-1,2,0,-2
1532061629189,0,-1,-1,-1,1,-1,-2,-2
1532061629194,-1,-1,-2,-1,2,-3,-4,0
1532061629199,-1,-1,-1,-3,2,-3,-2,-2
1532061629204,-2,-2,-1,0,0,-1,1,-1
1532061629209,0,0,-1,0,0,-1,1,-2
1532061629214,-2,-1,1,-1,-1,0,1,-1
1532061629219,-1,1,-2,-1,-1,-2,-1,0
1532061629224,-1,-3,-2,0,-1,-3,2,0
1532061629229,-1,-1,-3,-2,0,0,-1,0
1532061629234,0,-3,-4,1,-1,-3,2,1
1532061629239,-2,-1,-1,-1,-3,-4,1,-2
1532061629244,-2,0,0,-2,-3,-3,1,0
1532061629249,-1,0,-1,0,-3,-2,-2,-1
1532061629254,0,0,-1,-3,-1,0,-2,1
1532061629259,0,0,-1,-1,0,-2,-1,0
1532061629264,1,-1,0,0,-2,-4,-3,1
1532061629269,1,0,0,-1,-1,-5,-4,1
1532061629274,-1,-2,0,0,0,1,-4,-1
1532061629279,-1,0,-2,1,-1,2,-4,-2
1532061629284,-2,-1,-1,0,0,0,0,-2
1532061629289,-2,1,1,-2,0,1,-1,-1
1532061629294,-1,-2,0,1,-1,1,-2,0
1532061629299,-1,-2,-1,1,0,0,-2,-3
1532061629304,0,-2,-1,-3,-1,0,-2,-1
1532061629309,-1,-2,0,-4,-1,0,2,-3
1532061629314,1,0,-2,-3,0,0,4,-1
1532061629319,-1,-1,0,-2,-1,0,4,1
1532061629324,-1,1,-2,-1,0,0,-1,2
1532061629329,1,-2,-3,0,-1,-2,-2,2
1532061629334,1,1,-1,-1,-2,-1,0,0
1532061629339,-1,-2,-1,0,-1,-1,1,2
1532061629344,-2,-1,-4,-1,-1,0,0,-2
1532061629349,0,-1,-1,0,0,2,0,-3
1532061629354,-3,-2,-2,-2,-1,1,-1,-2
1532061629359,-3,0,-2,-3,1,1,1,-1
1532061629364,0,-3,-1,0,3,-2,2,1
1532061629369,-2,0,-2,-3,1,0,-1,0
1532061629374,-1,0,-1,-1,-2,-1,-1,-2
1532061629379,1,0,-2,-2,-1,0,0,-3
1532061629384,1,-1,-1,0,-2,-1,-1,-5
1532061629389,0,-2,-4,1,0,-2,1,-3
1532061629394,1,-1,-1,0,-1,0,-1,-3
1532061629399,1,0,-1,-1,-2,-1,-2,1
1532061629404,-2,1,-1,-2,-2,-1,-1,0
1532061629409,-2,-3,-1,1,-1,-1,0,-1
1532061629414,-2,-2,0,-2,1,0,0,2
1532061629419,0,-1,-1,-1,0,0,-1,-1
1532061629424,0,-1,-2,-3,0,0,1,0
1532061629429,0,1,-2,-2,-1,-3,2,0
1532061629434,0,-3,-2,-1,0,-4,0,0
1532061629439,0,0,0,1,-1,-3,-1,0
1532061629444,0,-1,0,2,0,-2,-1,-1
1532061629449,-1,-3,0,-1,0,3,0,0
1532061629454,-1,0,-1,-2,-1,0,-1,1
1532061629459,-1,1,0,0,-4,-1,-1,1
1532061629464,-2,0,1,-3,-3,0,-1,0
1532061629469,1,-1,0,0,-1,-1,-1,-1
1532061629474,0,0,-2,2,-2,0,-1,-2
1532061629479,-1,-2,0,-1,1,2,1,0
1532061629484,1,1,-1,0,1,-1,-1,-1
1532061629489,-1,-1,1,0,-2,0,0,-1
1532061629494,-2,1,0,-1,-1,1,0,-2
1532061629499,0,1,0,2,-1,2,0,-1
1532061629504,0,0,1,0,-2,3,-1,-2
1532061629509,0,1,2,-2,-3,4,-1,0
1532061629514,1,-3,-1,-1,-2,3,-4,-1
1532061629519,-2,-3,-2,-3,0,2,-3,-1
1532061629524,-1,-2,1,-1,-1,4,-1,1
1532061629529,0,2,0,-2,0,4,-1,-1
1532061629534,-1,2,-2,0,-2,6,-1,-2
1532061629539,0,-1,-2,-1,-2,-1,-3,0
1532061629544,-2,-2,-3,-1,-5,0,-2,0
1532061629549,-2,-1,-3,-1,0,-5,0,0
1532061629554,-2,0,0,-2,-2,-6,0,-1
1532061629559,-1,-2,-1,2,0,-8,-4,-1
1532061629564,0,0,0,0,-1,-1,-2,0
1532061629569,1,0,0,0,0,1,-2,-1
1532061629574,0,-1,-1,-1,1,0,1,-1
1532061629579,0,-3,-2,0,0,-7,0,0
1532061629584,-1,-2,-1,-2,1,-10,0,-3
1532061629589,-1,-2,-1,-1,0,-6,-1,-1
1532061629594,-1,-2,-1,-2,0,-3,0,0
1532061629599,-1,-2,0,-1,2,-6,0,2
1532061629604,-1,-1,0,0,0,-7,0,-2
1532061629609,0,-2,1,0,0,-7,-1,-1
1532061629614,0,0,0,-1,-1,-7,-1,-3
1532061629619,-3,-1,-1,-1,-2,-1,0,-1
1532061629624,-2,-2,-1,-1,-1,12,0,-1
1532061629629,0,0,-1,-1,-1,5,1,-2
1532061629634,0,1,-1,0,2,-3,-1,1
1532061629639,-2,-1,0,-3,0,-5,-3,-1
1532061629644,-1,-2,-2,-2,1,-9,-2,1
1532061629649,1,-1,-2,-1,0,-5,-1,-1
1532061629654,-1,-2,-3,1,0,-5,0,0
1532061629659,0,0,-1,-1,2,-2,-1,-1
1532061629664,-1,-1,-2,0,1,-3,-1,-3
1532061629669,-2,0,-1,0,-1,0,0,-1
1532061629674,-1,-3,-1,1,-2,-2,-4,-2
1532061629679,-1,-1,-1,0,-1,-1,-3,-4
1532061629684,0,0,0,0,1,-5,-1,-2
1532061629689,2,-1,0,0,2,-3,1,-2
1532061629694,-1,-1,0,0,1,0,-1,0
1532061629699,0,-1,1,-1,-1,2,1,0
1532061629704,-1,-1,-1,0,-2,-1,0,1
1532061629709,-3,0,-1,-1,0,-1,0,-1
1532061629714,-1,-1,-1,0,1,1,2,-1
1532061629719,2,0,0,-1,-1,2,0,0
1532061629724,0,-1,1,-1,0,-1,-1,0
1532061629729,-2,-1,-1,-1,-2,1,-1,0
1532061629734,-3,-2,0,0,-1,0,-3,-2
1532061629739,-1,-1,-2,-2,0,0,-2,1
1532061629744,0,1,0,-1,0,0,2,1
1532061629749,0,-2,1,-2,-1,0,-1,0
1532061629754,-2,0,-1,-2,-2,2,-1,0
1532061629759,-2,-3,-3,-1,0,0,-2,-1
1532061629764,-2,-3,0,-1,-1,-1,-3,-1
1532061629769,-2,0,0,-1,0,-2,-2,0
1532061629774,-1,-2,-2,-2,1,-3,0,-3
1532061629779,0,-3,-1,0,0,-3,-1,-3
1532061629784,3,-1,-3,-4,0,-2,2,0
1532061629789,1,0,-1,-1,-1,-2,0,-1
1532061629794,-1,-1,-2,-3,0,-6,-1,-2
1532061629799,-2,0,-2,-2,-1,-3,1,-3
1532061629804,-3,-3,-1,-1,-2,0,1,-1
1532061629809,-1,-3,-1,0,-2,3,-1,-2
1532061629814,-2,0,0,-1,-3,0,-2,2
1532061629819,-2,-2,1,-2,-5,-4,-2,-1
1532061629824,-1,1,-2,0,-3,-5,0,-1
1532061629829,-2,1,-1,-2,-4,-2,0,-1
1532061629834,-1,1,-1,-2,-4,-2,1,-3
1532061629839,1,-1,-1,-2,-3,-4,0,0
1532061629844,-2,-2,1,-3,-2,-4,1,0
1532061629849,-1,-2,2,-4,0,-5,-1,-1
1532061629854,-2,-1,-1,-2,2,-6,-2,-1
1532061629859,-3,0,-1,-1,0,-1,0,-1
1532061629864,-2,0,0,1,-1,0,-3,-1
1532061629869,1,-1,-2,2,-2,-4,-1,0
1532061629874,3,-1,1,1,0,1,-1,-1
1532061629879,1,2,-1,-1,-1,5,0,-1
1532061629884,1,-1,-2,1,-1,6,0,-2
1532061629889,0,-1,-1,-1,-2,6,0,-1
1532061629894,-2,-1,-1,-1,-5,3,1,0
1532061629899,-1,-2,0,-1,0,4,0,1
1532061629904,0,1,1,-1,-1,9,-1,-4
1532061629909,-1,-2,0,-1,-1,3,-1,1
1532061629914,0,-5,-1,-2,3,3,0,-1
1532061629919,-1,-3,-1,-1,2,0,0,-1
1532061629924,-2,1,-1,-3,0,-3,-1,1
1532061629929,-2,-1,-2,-3,0,-1,-3,-1
1532061629934,0,3,-1,-1,-1,2,-1,1
1532061629939,0,0,-2,-1,-1,-2,1,3
1532061629944,-2,-4,-2,-1,0,-2,-2,-2
1532061629949,-1,-1,-1,-1,-3,-2,1,0
1532061629954,-2,-3,0,0,-2,0,-1,0
1532061629959,0,1,-1,1,-1,2,0,-2
1532061629964,0,1,0,0,-2,-1,-2,1
1532061629969,0,0,-2,-1,1,1,-2,0
