1532063483290,-7,-15,-1,0,0,-3,-3,-3
1532063483295,-1,-6,-2,13,2,-1,-1,3
1532063483300,1,4,3,13,2,0,-13,-2
1532063483305,3,17,0,-2,-5,-2,16,1
1532063483310,-4,-12,-3,-12,2,-1,-4,-3
1532063483315,-3,-10,-1,-8,-6,-3,-3,0
1532063483320,2,1,1,9,1,1,2,1
1532063483325,-5,-5,-2,-8,-1,-2,-8,-3
1532063483330,11,20,1,16,0,1,1,3
1532063483335,-4,6,2,-8,-1,0,2,-2
1532063483340,0,-19,-8,2,4,-3,1,0
1532063483345,-5,4,2,-4,-7,-1,-6,-2
1532063483350,-2,2,-2,-1,-2,0,3,0
1532063483355,5,9,2,-5,2,-2,-4,-1
1532063483360,3,18,-1,8,-1,0,0,1
1532063483365,1,8,7,9,4,1,1,-3
1532063483370,-8,-47,-12,-15,-4,-2,-3,-4
1532063483375,-4,1,4,0,2,0,0,0
1532063483380,-2,-12,-12,-10,-3,0,2,-1
1532063483385,10,3,0,5,-2,-3,-2,2
1532063483390,-13,14,6,0,2,-3,-4,-6
1532063483395,-1,5,-1,-7,0,1,0,0
1532063483400,0,-3,4,-1,-1,0,2,1
1532063483405,0,-4,1,2,2,0,-2,0
1532063483410,1,16,0,13,-3,0,0,0
1532063483415,-8,-31,-5,-17,-2,-1,2,-3
1532063483420,4,12,-3,-23,-7,-2,-6,3
1532063483425,6,-8,0,0,2,-2,0,-1
1532063483430,-1,25,1,-6,1,-1,-1,1
1532063483435,2,7,-1,0,-6,-3,0,-2
1532063483440,0,8,8,40,14,1,1,0
1532063483445,-2,-27,-11,-24,2,3,1,1
1532063483450,-7,1,-5,-25,-12,-5,-6,-8
1532063483455,2,-2,0,11,-1,0,-4,-1
1532063483460,-2,15,0,-5,-5,-1,-1,-2
1532063483465,-3,-3,8,14,1,0,-1,-2
1532063483470,4,2,1,-1,3,1,3,1
1532063483475,1,3,0,5,0,-1,0,1
1532063483480,0,4,6,4,-3,-1,1,-4
1532063483485,-5,-13,-5,2,1,-1,-2,2
1532063483490,1,-14,-7,-3,-2,-1,-2,-2
1532063483495,-2,1,-1,3,-1,-3,-1,-2
1532063483500,1,7,-1,2,-1,-1,0,0
1532063483505,-2,2,-2,10,1,0,-2,-1
1532063483510,2,1,-2,-14,0,1,0,0
1532063483515,0,-11,-2,12,-1,0,-1,0
1532063483520,-3,-9,-3,-16,-4,-3,-1,-2
1532063483525,-3,3,-3,-1,-4,-1,-2,-3
1532063483530,3,-6,4,12,1,0,1,0
1532063483535,1,12,2,1,3,0,0,0
1532063483540,-1,-2,-3,-4,-3,-2,1,0
1532063483545,-4,3,-1,-8,-3,-1,-1,-1
1532063483550,-2,-21,-2,18,2,1,2,-2
1532063483555,1,-4,-5,-19,-3,-3,-1,0
1532063483560,-2,-6,0,7,0,3,0,0
1532063483565,2,11,0,-5,0,1,-1,1
1532063483570,3,14,5,4,-1,0,1,-1
1532063483575,-13,-10,-1,-3,-3,-1,-1,-2
1532063483580,15,-15,-8,-4,-1,-2,-2,0
1532063483585,-10,6,2,3,-2,-3,-3,1
1532063483590,-6,-4,-2,-3,-2,-1,-3,-6
1532063483595,1,4,-3,-4,-1,1,-2,-3
1532063483600,-5,4,3,2,0,-1,-1,-1
1532063483605,2,-5,-1,-2,-2,-3,1,-1
1532063483610,-1,-3,-3,-2,-1,-1,-1,3
1532063483615,0,3,2,-1,-1,-2,-1,-1
1532063483620,-3,0,0,-2,-2,0,0,-2
1532063483625,1,-6,-5,-2,-2,-2,-1,-1
1532063483630,-1,1,1,16,0,-2,1,2
1532063483635,2,4,-2,-30,-5,-1,0,-2
1532063483640,-3,-5,-2,-1,0,-2,-1,1
1532063483645,-2,-2,0,2,-1,-1,-1,-1
1532063483650,2,2,-1,-1,1,-1,0,-1
1532063483655,1,-2,-3,9,2,0,-2,1
1532063483660,-4,-2,0,14,0,-1,2,-4
1532063483665,0,1,-3,-20,0,0,0,-2
1532063483670,1,-1,1,2,-4,-1,-3,0
1532063483675,1,0,-2,3,0,-1,0,-1
1532063483680,-3,-3,0,-5,-3,-1,-2,-2
1532063483685,0,2,0,9,1,-2,-1,-2
1532063483690,3,-1,-1,-7,0,0,-2,1
1532063483695,-1,-2,-3,-1,-2,-2,-1,-2
1532063483700,-1,1,-1,-1,1,0,0,1
1532063483705,2,-1,-1,4,0,0,1,-1
1532063483710,0,-2,-2,-6,1,0,0,0
1532063483715,-1,0,1,-1,-1,0,-4,0
1532063483720,-1,-1,-2,-3,-1,0,-1,-1
1532063483725,0,1,-1,3,0,1,3,-1
1532063483730,-2,4,0,-4,-3,-1,-3,-3
1532063483735,1,-3,0,4,0,-2,1,-1
1532063483740,-2,-3,2,-2,0,-1,-2,1
1532063483745,-3,-8,-4,-1,-2,-2,-3,-1
1532063483750,0,-5,-3,-1,-1,-1,-2,-1
1532063483755,0,-1,0,3,-1,-2,2,0
1532063483760,0,4,-2,2,0,-1,-1,0
1532063483765,0,0,0,-14,-2,0,-1,-1
1532063483770,-1,4,0,-1,-1,0,-1,0
1532063483775,-2,1,-4,7,-2,-1,-1,0
1532063483780,-1,-3,1,-2,-1,0,0,-1
1532063483785,-2,1,-3,4,-1,-1,-2,-1
1532063483790,0,-2,-3,-4,-1,-1,-1,-1
1532063483795,0,0,0,-5,-1,-2,-1,-2
1532063483800,-3,-1,-1,0,0,-1,-2,-4
1532063483805,-1,-3,1,1,-1,0,-1,-1
1532063483810,-1,1,-1,-1,-1,-1,-1,0
1532063483815,-1,-2,-2,9,1,0,0,0
1532063483820,-3,-1,-1,-16,-2,-1,-1,-1
1532063483825,-2,1,3,8,-2,-1,-1,1
1532063483830,-2,-3,0,0,-1,0,0,1
1532063483835,0,2,0,-9,0,0,-2,-3
1532063483840,1,0,-1,-1,1,-1,3,0
1532063483845,-2,0,1,13,-3,0,0,0
1532063483850,0,-2,1,5,-1,-1,1,-1
1532063483855,-2,-5,-9,-17,-6,-1,-4,0
1532063483860,-1,-1,0,0,1,-1,-3,0
1532063483865,1,1,-2,-9,1,-3,-1,-2
1532063483870,-1,-1,-1,2,1,1,2,0
1532063483875,-2,2,1,1,1,1,4,1
1532063483880,-1,-3,-1,-1,-2,-1,-1,-1
1532063483885,-1,-1,-1,1,-3,-3,0,-1
1532063483890,-1,-1,-3,-10,-1,-1,-2,-2
1532063483895,0,0,1,1,0,-1,-3,0
1532063483900,-1,-3,-1,0,-1,-3,-1,-1
1532063483905,0,1,0,12,1,1,-1,-1
1532063483910,0,0,0,-10,-1,0,0,-1
1532063483915,-1,0,0,-3,-1,-1,0,0
1532063483920,-1,0,0,2,-3,-1,-2,0
1532063483925,-2,1,-1,-3,-1,-1,-1,-1
1532063483930,-2,-2,-3,-1,-1,-1,-2,-3
1532063483935,0,-2,1,6,0,-1,-1,-2
1532063483940,-1,1,0,0,-2,-2,0,-1
1532063483945,-1,-1,0,-6,-1,0,0,-2
1532063483950,-1,-1,-2,-2,-3,-1,-2,0
1532063483955,-1,-1,-2,0,0,-2,-1,0
1532063483960,-2,-1,-1,1,-1,-1,-1,-2
1532063483965,0,-3,-3,-5,0,1,-3,-1
1532063483970,0,0,2,3,1,1,3,0
1532063483975,-1,3,1,1,0,1,-1,-1
1532063483980,-1,5,-1,-1,-3,0,-1,-1
1532063483985,-2,-3,-2,-2,-1,-2,-3,-1
1532063483990,-1,3,-1,3,-1,-2,-2,0
1532063483995,0,-5,0,0,0,0,0,-3
1532063484000,-1,-2,-3,-1,-2,0,-2,-1
1532063484005,1,0,0,-2,1,-2,0,1
1532063484010,-3,-1,0,0,-1,-1,-1,-2
1532063484015,0,3,0,-1,0,-1,1,-1
1532063484020,0,-3,0,1,1,0,1,0
1532063484025,0,-2,-1,-3,-2,-2,1,0
1532063484030,-2,-2,1,5,-2,-4,0,0
1532063484035,0,0,-1,0,0,0,-1,-1
1532063484040,-2,-1,0,0,0,-2,1,0
1532063484045,-3,-1,-2,-3,0,0,-2,0
1532063484050,0,0,-1,-2,-1,-2,-1,-2
1532063484055,0,-1,-2,2,0,-1,0,1
1532063484060,0,-2,-1,0,1,0,1,1
1532063484065,-2,0,-1,-2,-2,-1,-1,-2
1532063484070,-1,0,0,0,0,-2,-1,-1
1532063484075,0,1,0,-3,-1,0,-1,0
1532063484080,-1,3,-1,-1,-2,-1,2,0
1532063484085,-2,-18,-2,0,0,-1,0,-1
1532063484090,-1,0,-1,1,-1,0,-2,-1
1532063484095,-1,-3,-1,-1,-1,-1,-3,-1
1532063484100,-1,-1,-1,-3,-1,-1,-2,0
1532063484105,0,5,0,1,-2,0,-1,-1
1532063484110,1,-3,-2,0,-1,-1,0,0
1532063484115,-2,-1,-1,-2,0,-1,-2,-2
1532063484120,1,1,-2,-1,-1,-1,-1,-2
1532063484125,-1,0,1,2,0,1,0,-1
1532063484130,0,-2,-1,-1,-3,-1,-2,0
1532063484135,0,0,0,0,-1,1,-1,0
1532063484140,0,-3,-1,0,0,-2,0,-1
1532063484145,0,1,0,-1,-2,0,-2,0
1532063484150,1,1,0,0,-2,-1,0,0
1532063484155,-1,-1,-2,0,-2,0,1,-1
1532063484160,-1,-2,1,-1,-2,-1,-1,0
1532063484165,-1,2,-1,-1,-2,-1,-2,-1
1532063484170,0,-1,0,-1,0,-1,0,-1
1532063484175,0,1,1,0,0,-1,0,-2
1532063484180,0,3,-2,-1,0,-1,0,-1
1532063484185,-2,-15,-3,-2,-1,-2,0,-3
1532063484190,0,-1,0,-1,-2,-1,-4,-1
1532063484195,-2,-1,0,-2,-1,1,3,-1
1532063484200,-1,0,0,1,-2,0,-1,-1
1532063484205,1,5,1,-2,0,-1,0,-1
1532063484210,-2,-2,-3,-2,-1,-1,-2,-1
1532063484215,-3,-2,-1,0,-2,0,-1,-3
1532063484220,0,-2,-1,-2,-1,-1,0,-2
1532063484225,-1,3,0,-2,0,-1,0,0
1532063484230,-1,-2,-2,-1,-2,-1,-1,-1
1532063484235,-1,1,0,0,0,0,-4,-1
1532063484240,-1,-2,-2,0,-1,0,-1,0
1532063484245,0,1,-1,-1,0,0,-1,-3
1532063484250,0,0,1,-1,2,-1,1,-1
1532063484255,-1,-2,-1,0,-1,-3,-1,-1
1532063484260,0,-2,0,-1,-1,-1,-2,-1
1532063484265,0,3,-2,-3,-2,-3,0,-1
1532063484270,-1,-2,-3,0,0,0,-1,0
1532063484275,-1,-3,0,-2,-1,-3,-1,0
1532063484280,-1,-3,-1,-1,0,0,0,-1
1532063484285,0,2,0,0,0,-1,-2,1
1532063484290,-3,0,-1,0,0,1,1,-1
1532063484295,-1,-2,1,0,0,0,0,0
1532063484300,-1,-1,0,-2,-1,-1,-3,-2
1532063484305,-1,-1,0,1,-2,-1,0,1
1532063484310,-2,-1,-1,-1,-4,-1,0,-1
1532063484315,-1,-1,-1,-2,0,-1,0,-1
1532063484320,-1,-1,-1,0,-2,-1,-3,0
1532063484325,1,-1,0,-1,0,-1,0,-1
1532063484330,0,-1,-1,-1,2,-3,0,0
1532063484335,0,1,-1,-1,0,-1,-2,-2
1532063484340,0,-1,-2,-1,0,-1,1,0
1532063484345,-1,-1,-1,-1,-1,-1,-2,0
1532063484350,-1,-1,-1,-1,-1,0,-4,-1
1532063484355,0,-1,-1,-2,0,-1,-2,-1
1532063484360,1,1,0,0,0,-1,1,0
1532063484365,-1,-2,-1,0,-1,-1,-2,0
1532063484370,-1,0,0,-3,-2,0,-1,-1
1532063484375,0,-1,-2,2,-1,-2,1,0
1532063484380,-1,-1,-1,-1,-2,-1,-3,-1
1532063484385,0,0,-1,0,1,0,2,-1
1532063484390,0,0,1,-2,-3,-1,-1,-2
1532063484395,0,0,-1,0,0,1,0,-1
1532063484400,-2,0,1,-1,-1,-1,0,-2
1532063484405,0,0,-2,-1,-1,-2,-1,0
1532063484410,0,-1,-2,-2,0,-1,0,0
1532063484415,-1,-2,-2,-2,-1,-1,0,-1
1532063484420,-1,-1,0,1,0,0,-3,-1
1532063484425,-2,0,1,0,-2,0,-1,-2
1532063484430,-2,-1,0,-4,-1,-1,-1,-3
1532063484435,-1,-2,-1,-2,-1,1,-3,0
1532063484440,-1,-1,0,-1,-2,-1,0,-1
1532063484445,0,-2,0,-1,-1,1,-1,0
1532063484450,1,0,-1,0,-1,-1,-2,-1
1532063484455,-1,-1,0,-1,0,-1,0,-1
1532063484460,-2,-1,0,-1,0,-1,-1,-1
1532063484465,-3,0,-2,-1,-2,-3,-1,-1
1532063484470,-1,0,-2,-1,-1,0,0,1
1532063484475,0,0,0,-3,-1,0,-2,0
1532063484480,-1,-1,0,-1,-2,-1,-2,-2
1532063484485,1,-1,0,-2,0,1,-1,-1
1532063484490,-1,-2,0,0,-1,0,-2,-1
1532063484495,-1,1,-2,0,-1,0,-1,-1
1532063484500,1,0,0,-3,-1,-1,-1,-2
1532063484505,-1,-1,-1,1,-1,-2,-3,-1
1532063484510,-1,-1,-1,-1,-1,1,3,-1
1532063484515,-1,0,0,1,0,-1,0,-1
1532063484520,-2,-3,-1,0,-1,-2,1,-2
1532063484525,0,0,0,0,-1,-2,-2,-2
1532063484530,0,-2,-1,0,-1,-1,-4,-2
1532063484535,0,-1,0,0,-2,-1,-1,-1
1532063484540,-1,0,-2,-1,0,-1,0,0
1532063484545,1,0,1,1,-1,0,0,0
1532063484550,-1,-1,-2,-1,-1,-1,-1,-1
1532063484555,0,-3,0,0,-2,-1,-3,-2
1532063484560,-1,-1,-1,1,0,-1,-1,0
1532063484565,-1,0,-1,-2,-2,2,-1,0
1532063484570,-1,0,0,0,-1,-1,0,-2
1532063484575,-1,-2,0,-1,-2,-1,-2,-2
1532063484580,-1,0,-1,-1,-2,0,0,2
1532063484585,0,-1,-2,-2,1,-1,-1,-3
1532063484590,0,-1,-2,0,-2,-1,0,0
1532063484595,-1,0,-1,1,-2,-1,-3,-1
1532063484600,-1,-1,-1,-1,-1,1,-1,-2
1532063484605,-1,-1,0,0,-1,-1,0,-1
1532063484610,1,0,0,-3,-2,-1,-1,-1
1532063484615,-2,-1,-1,-1,-1,-2,0,-1
1532063484620,-2,-2,0,-1,-2,1,-1,-1
1532063484625,-2,0,-2,-1,0,-1,1,1
1532063484630,-2,-2,0,-1,-1,-1,-1,-1
1532063484635,1,-2,0,-1,-1,-2,0,-1
1532063484640,-2,0,0,-1,0,-3,0,0
1532063484645,1,0,-1,-2,0,-1,-1,-1
1532063484650,-1,-2,-2,-1,-3,0,1,0
1532063484655,-2,0,-1,-3,0,-1,-1,-1
1532063484660,0,-1,-1,1,1,-1,1,-2
1532063484665,-1,-1,0,0,-1,-2,-1,-1
1532063484670,1,1,0,1,1,-1,1,0
1532063484675,-1,-3,-1,-1,-1,0,0,-2
1532063484680,0,-1,-2,-1,-1,-1,-3,-1
1532063484685,0,0,-2,2,-2,0,1,0
1532063484690,0,-2,-1,-2,-1,-1,-1,-2
1532063484695,-1,0,-1,0,-1,-1,-2,-2
1532063484700,0,-2,-2,-2,-1,1,1,-1
1532063484705,-1,1,-1,-1,-1,0,-2,-1
1532063484710,-1,0,0,0,-1,-1,-2,0
1532063484715,-2,1,-2,-1,-1,0,0,-1
1532063484720,0,1,-1,0,0,-3,-1,0
1532063484725,-2,-2,0,-2,1,-2,-1,-1
1532063484730,-1,-1,-2,1,0,-1,0,-1
1532063484735,0,-2,-1,-1,1,-3,1,-1
1532063484740,-1,-2,0,0,-1,0,0,0
1532063484745,1,-2,0,-2,-3,-1,-3,0
1532063484750,0,0,-1,0,-1,0,-2,-2
1532063484755,0,0,-1,0,-1,0,0,-1
1532063484760,-1,-2,-1,-1,0,0,0,-1
1532063484765,-2,1,-1,-1,-1,0,0,0
1532063484770,-1,-2,-2,-2,-3,-1,-3,-1
1532063484775,1,-1,-1,-2,-2,0,0,0
1532063484780,-1,-1,-2,-1,-2,-3,-2,-1
1532063484785,-1,0,-2,-1,0,-1,-2,-2
1532063484790,-1,0,-1,1,-1,-1,0,-1
1532063484795,-2,-1,-1,-2,0,0,-3,-1
1532063484800,-2,0,0,0,0,-1,0,0
1532063484805,-1,-2,-1,0,-1,0,1,-2
1532063484810,0,-1,-1,0,1,-1,1,1
1532063484815,0,-1,-2,-2,-1,-1,1,-1
1532063484820,-2,-2,0,-1,-2,-1,-2,-1
1532063484825,-3,-2,0,-1,-1,-1,-1,-4
1532063484830,-1,-3,0,0,1,2,-3,-1
1532063484835,0,0,-1,0,-2,-1,1,-1
1532063484840,-1,-1,-2,-3,-1,-2,-1,-1
1532063484845,0,0,0,0,0,0,0,1
1532063484850,-2,0,-1,-1,0,-1,0,1
1532063484855,-2,-1,-1,-1,-1,-1,-3,-1
1532063484860,1,1,-1,1,-1,1,0,-1
1532063484865,-2,-3,0,-1,-1,0,1,0
1532063484870,0,0,0,-1,-1,-3,1,-2
1532063484875,-1,-1,-1,0,0,-2,0,-1
1532063484880,-2,-2,0,-1,0,0,0,-2
1532063484885,-1,-1,0,-1,-2,0,-2,0
1532063484890,-1,0,0,-1,-2,-2,-3,0
1532063484895,-1,0,1,-1,-2,-2,1,0
1532063484900,-1,-1,0,0,-1,-1,-3,-1
1532063484905,0,0,-3,1,-1,-1,2,0
1532063484910,-1,0,-1,0,-1,0,-1,-3
1532063484915,-2,-2,0,-1,-1,-2,-4,-2
1532063484920,0,0,-2,-1,-1,1,3,2
1532063484925,0,-2,0,-1,-2,-2,-2,-1
1532063484930,0,-2,-2,-1,-3,-1,0,-1
1532063484935,-1,-2,-1,1,-2,1,1,0
1532063484940,-1,0,0,0,-1,-1,-2,-1
1532063484945,-2,-2,0,0,0,0,-1,1
1532063484950,0,-1,0,-1,-1,-1,-1,0
1532063484955,-2,-1,0,-3,0,-1,-2,-2
1532063484960,-1,-2,-1,-1,-2,-1,-1,-1
1532063484965,1,1,-1,0,0,0,-1,-1
1532063484970,-1,-1,-2,0,1,-2,-1,0
1532063484975,-1,0,0,1,-1,1,-1,1
1532063484980,1,-1,-1,-1,0,-1,0,-4
1532063484985,-1,-1,0,-3,-7,-2,-3,-1
1532063484990,-1,0,-2,4,3,1,-1,0
1532063484995,1,1,-1,-1,0,-3,1,-2
1532063485000,-2,-2,-1,-1,-1,-1,0,-1
1532063485005,1,1,-1,-2,-2,-2,-2,-2
1532063485010,-2,-1,-2,-4,-8,-2,-4,-2
1532063485015,1,-1,-1,4,4,2,2,0
1532063485020,-1,1,0,-1,3,1,1,-1
1532063485025,0,-2,-1,1,1,-1,2,-1
1532063485030,0,-1,-3,-1,-2,0,1,0
1532063485035,-1,0,0,-4,-4,-2,-3,-1
1532063485040,-1,-1,-2,1,-11,-2,-2,-1
1532063485045,-1,0,-2,-1,3,-1,1,-2
1532063485050,-1,0,1,1,1,-1,0,2
1532063485055,-2,-2,-3,3,3,1,-2,0
1532063485060,-1,-1,-2,-7,-1,0,0,0
1532063485065,0,-1,-1,-1,-1,0,-2,-1
1532063485070,0,-2,0,-4,-1,-2,-1,-1
1532063485075,-1,0,1,-2,-2,-3,-1,-2
1532063485080,0,-2,-1,3,6,1,0,-1
1532063485085,1,-1,-4,-4,-6,1,0,1
1532063485090,0,2,2,2,10,-1,1,0
1532063485095,0,0,-1,4,3,3,-1,1
1532063485100,-1,-2,1,-7,-12,-4,-1,2
1532063485105,0,3,3,-2,-5,-3,0,-2
1532063485110,-3,-4,-9,-4,2,2,-1,1
1532063485115,-2,-1,3,16,29,-1,-3,-1
1532063485120,1,0,0,4,-1,1,-3,-2
1532063485125,-1,-1,-3,-10,-19,-2,-1,1
1532063485130,2,0,4,2,3,-3,1,-2
1532063485135,-1,-3,-3,-9,-11,-2,0,3
1532063485140,0,0,2,-5,4,0,2,-3
1532063485145,-1,-2,0,9,14,1,0,-2
1532063485150,-1,0,0,-4,2,0,-1,-4
1532063485155,0,-3,-2,9,-2,-1,0,-2
1532063485160,-1,1,2,-3,-14,-2,-3,1
1532063485165,-2,-3,-8,-24,-19,-2,-1,0
1532063485170,0,0,3,5,0,3,0,-1
1532063485175,-2,1,1,-1,-4,-1,1,0
1532063485180,-2,-3,-6,3,1,-5,-5,-2
1532063485185,-1,0,2,7,4,-2,1,-1
1532063485190,-1,-1,-4,6,7,1,0,-1
1532063485195,-1,-1,-2,-23,-18,-1,1,1
1532063485200,0,0,1,5,33,1,0,-1
1532063485205,-1,-2,1,-5,-22,-3,-2,-1
1532063485210,1,-1,3,10,0,0,-3,-2
1532063485215,0,-1,-1,-1,-11,-2,-1,-3
1532063485220,0,0,-4,-4,6,4,3,2
1532063485225,-2,-2,-2,6,14,0,-2,-1
1532063485230,0,-1,-6,-10,-9,-3,1,-2
1532063485235,0,-1,0,-4,-1,0,0,-1
1532063485240,-2,0,0,7,-2,-3,0,-2
1532063485245,-1,2,8,25,6,0,-1,1
1532063485250,-1,-1,-6,-8,-3,-1,-2,0
1532063485255,-1,0,-3,-29,0,0,-1,-1
1532063485260,-2,-2,-5,2,-20,0,1,2
1532063485265,1,1,6,-8,5,2,2,0
1532063485270,-1,0,-2,-6,-10,-5,-1,0
1532063485275,0,-1,3,18,7,-2,1,-2
1532063485280,1,-2,2,-3,-3,-3,-4,-3
1532063485285,1,-2,-5,-10,2,1,1,0
1532063485290,-1,-1,-2,22,20,0,-3,1
1532063485295,0,1,4,6,-22,0,-1,0
1532063485300,1,1,1,3,-10,1,2,0
1532063485305,1,-1,-8,-9,1,-1,-2,-1
1532063485310,-2,-3,-1,-8,-3,-1,-4,-2
1532063485315,-1,0,1,-2,13,-1,-3,-3
1532063485320,-2,-2,-2,28,-4,-5,-2,-2
1532063485325,-2,1,4,11,4,2,-2,-2
1532063485330,-1,0,-1,-14,-6,0,-2,0
1532063485335,-2,0,-4,-7,-5,-2,0,-1
1532063485340,1,1,4,-1,12,2,1,0
1532063485345,1,-3,-5,-3,0,1,2,-1
1532063485350,0,-3,7,-2,-4,-3,-1,-4
1532063485355,-1,2,0,17,-2,-5,-5,-1
1532063485360,0,0,3,-7,20,5,2,0
1532063485365,-1,1,1,13,-9,-1,2,1
1532063485370,-1,-1,-2,3,-6,-2,1,0
1532063485375,1,-3,-4,-26,-14,-2,-3,0
1532063485380,-2,-1,1,-3,-8,-6,-3,-2
1532063485385,-1,-2,1,-13,0,-2,0,-1
1532063485390,1,2,2,17,8,3,-4,-2
1532063485395,0,-1,-5,-11,-1,1,9,2
1532063485400,-1,-1,-3,-1,2,1,-2,1
1532063485405,1,2,1,3,1,-3,-4,-3
1532063485410,0,1,0,-15,-10,-3,0,-1
1532063485415,-3,-5,-1,23,7,-1,-6,-3
1532063485420,0,-2,0,29,-7,-1,0,2
1532063485425,-2,-5,-11,-66,-7,-2,-2,-3
1532063485430,-1,0,-6,-6,-26,-4,-1,3
1532063485435,2,2,3,2,13,5,0,-1
1532063485440,-2,-5,-7,-1,1,3,4,-1
1532063485445,1,3,3,25,4,-1,-2,0
1532063485450,-3,-1,-4,-17,6,-1,2,-4
1532063485455,-1,-2,-5,-6,-12,-3,-4,-1
1532063485460,0,-1,-3,-13,5,-1,-3,-2
1532063485465,0,-1,2,18,16,-1,-3,-1
1532063485470,-1,0,1,-9,-8,-1,-1,1
1532063485475,0,1,3,10,1,2,1,0
1532063485480,0,0,-5,-13,9,2,-2,-2
1532063485485,-1,-1,0,10,-5,-4,-1,-2
1532063485490,1,1,3,13,30,0,0,-2
1532063485495,0,-2,-3,2,-10,-3,-2,-3
1532063485500,-2,-2,1,-23,-14,-3,-2,0
1532063485505,-1,-1,-2,5,3,1,2,0
1532063485510,0,-1,-3,-1,0,5,1,0
1532063485515,-2,0,-4,-1,2,-1,-4,0
1532063485520,0,0,-3,-27,-5,-5,-2,-2
1532063485525,-1,0,4,6,-4,-1,-3,-1
1532063485530,0,-2,-7,19,10,3,-2,-3
1532063485535,0,-1,7,-31,-11,-5,-2,-1
1532063485540,-2,-4,-7,-19,-11,0,2,1
1532063485545,0,0,2,19,42,2,-1,-1
1532063485550,-3,-1,-5,-1,-41,1,4,7
1532063485555,0,0,0,8,1,-2,-3,-3
1532063485560,1,0,5,10,-7,-1,-4,-4
1532063485565,0,-1,-9,-17,-1,0,5,0
1532063485570,-1,-1,9,7,4,-3,-5,-3
1532063485575,-2,-1,-1,6,-1,-1,1,1
1532063485580,-1,0,2,-2,29,0,-1,-2
1532063485585,-2,-2,-3,43,-15,1,-3,0
1532063485590,0,-4,-8,-60,-15,-5,1,-3
1532063485595,-1,-2,2,2,-3,-1,0,-1
1532063485600,1,2,0,-5,0,-1,1,-1
1532063485605,0,-2,1,12,-2,0,-1,1
1532063485610,0,1,6,6,5,-3,-4,0
1532063485615,-1,-1,-7,6,10,2,-1,-2
1532063485620,0,2,1,35,11,3,2,-1
1532063485625,1,2,3,-58,-15,1,5,-2
1532063485630,-6,-10,-17,-10,-23,-12,-9,-2
1532063485635,1,0,2,9,14,6,1,-2
1532063485640,-2,-2,0,-12,-23,-5,-1,-1
1532063485645,-2,0,-1,17,-1,0,-1,-1
1532063485650,-1,1,10,-2,13,-1,2,-3
1532063485655,-1,0,5,-9,6,5,0,0
1532063485660,0,2,11,13,0,-1,-2,-1
1532063485665,-2,-8,-21,-23,-3,-3,-6,-2
1532063485670,0,0,9,14,-6,-2,-1,-1
1532063485675,0,-1,-4,32,4,-3,3,-1
1532063485680,-3,-6,-10,-79,-27,-2,-3,1
1532063485685,-2,4,15,35,16,0,2,-2
1532063485690,0,0,-12,-33,18,3,-1,-1
1532063485695,-2,-1,2,44,-17,-1,-2,-1
1532063485700,0,2,5,20,-11,-5,-4,-1
1532063485705,-2,-4,-11,-15,8,4,0,0
1532063485710,-1,0,0,22,-1,-3,-1,1
1532063485715,3,3,1,-11,13,2,2,-2
1532063485720,-1,2,4,31,6,1,-1,-2
1532063485725,-5,-5,-14,-46,-31,-10,-9,-1
1532063485730,1,2,6,17,10,3,2,-1
1532063485735,1,0,-4,-7,8,-1,-2,1
1532063485740,-2,-3,-6,5,-6,-7,-4,-2
1532063485745,1,2,2,-15,-9,3,2,4
1532063485750,-1,-3,1,15,-2,1,-1,0
1532063485755,-1,-2,-6,-41,-4,-2,0,1
1532063485760,-1,1,-2,13,14,0,-5,-1
1532063485765,0,-1,1,-39,-10,-4,-1,-2
1532063485770,-2,-2,-2,-7,-11,-3,-4,-2
1532063485775,-1,-2,-1,31,-7,-3,-3,-2
1532063485780,1,-1,-6,-25,9,2,0,1
1532063485785,1,1,4,3,6,1,3,-2
1532063485790,0,-2,-6,3,-8,-1,0,0
1532063485795,-2,-3,-2,-5,3,-3,-1,2
1532063485800,0,0,-2,-8,1,2,3,-1
1532063485805,0,1,5,5,2,-1,-1,0
1532063485810,-2,-1,-5,32,5,1,1,2
1532063485815,1,2,4,-37,-8,-3,1,-6
1532063485820,-1,-3,-4,-12,-5,2,1,0
1532063485825,-3,-4,-1,18,-8,-2,-4,-2
1532063485830,2,2,7,32,12,1,0,0
1532063485835,-2,-2,-9,-15,-2,1,1,-2
1532063485840,1,2,9,53,20,3,2,-2
1532063485845,-3,-5,-16,-87,-20,-6,-5,2
1532063485850,-1,-2,1,17,-12,0,-1,-1
1532063485855,-2,-3,-3,8,0,0,0,1
1532063485860,-2,-3,-5,-17,-5,-4,1,-3
1532063485865,2,5,11,99,21,3,1,-2
1532063485870,-4,-5,-2,-13,-3,-2,0,-4
1532063485875,0,0,4,-1,-4,-1,2,1
1532063485880,-1,-1,-10,-20,-3,-2,-5,1
1532063485885,2,-1,0,-23,16,4,4,-4
1532063485890,-2,0,0,12,-26,1,0,2
1532063485895,0,0,1,28,13,2,1,-1
1532063485900,-3,-2,-6,-26,-16,-4,0,0
1532063485905,2,-1,4,3,1,-3,-3,-1
1532063485910,1,0,-2,-3,18,2,1,-2
1532063485915,-2,2,3,-12,-9,-1,-3,1
1532063485920,1,0,2,8,-1,0,-1,-3
1532063485925,-2,-2,0,7,-7,-1,0,-1
1532063485930,2,4,1,10,13,0,4,-2
1532063485935,-2,-7,-10,-5,-6,-4,-6,0
1532063485940,1,-1,1,-11,1,1,0,-1
1532063485945,-4,-2,0,16,-6,-2,-7,0
1532063485950,1,5,8,-25,8,0,4,-2
1532063485955,-1,-2,-13,-47,-3,-1,-1,-2
1532063485960,-1,-4,-1,15,-2,-1,-3,0
1532063485965,0,-1,5,17,-2,-2,-2,0
1532063485970,-1,-2,-9,-53,-2,1,2,-1
1532063485975,0,1,-1,-12,0,-3,0,-1
1532063485980,-2,-1,-3,-2,-7,-3,-3,-2
1532063485985,1,-1,0,5,0,-2,2,-1
1532063485990,0,-1,-2,0,4,0,0,0
1532063485995,0,1,1,-17,3,0,2,1
1532063486000,-3,0,4,6,0,-1,-2,-2
1532063486005,-2,-3,-11,-35,-6,-2,-1,-2
1532063486010,0,0,5,12,5,1,-2,0
1532063486015,-1,-2,-4,-10,-5,-2,-4,-2
1532063486020,-2,-4,-12,-72,-14,-2,0,-2
1532063486025,-2,-2,3,9,-1,-2,-3,1
1532063486030,-1,1,0,19,3,-2,-1,-1
1532063486035,0,-2,0,11,-2,-1,0,-1
1532063486040,1,0,2,23,13,0,2,-2
1532063486045,-1,-3,-8,-19,-12,-2,-1,-1
1532063486050,-3,-2,-1,-26,-12,-3,-4,1
1532063486055,-1,-3,-5,-1,-2,-2,0,-3
1532063486060,1,0,1,9,-6,-2,-4,0
1532063486065,2,0,-1,-15,4,-1,-1,-2
1532063486070,-4,-4,-2,47,-2,-2,-3,0
1532063486075,0,0,-3,-20,0,1,-1,0
1532063486080,1,1,1,31,3,0,-2,0
1532063486085,0,0,3,3,-1,-1,2,-3
1532063486090,0,1,-3,-20,2,-2,1,-1
1532063486095,-1,0,2,14,2,-1,-1,0
1532063486100,-3,-2,-5,-4,-6,-2,-1,0
1532063486105,-1,-1,-1,-9,-4,-2,1,-2
1532063486110,-2,-2,2,12,5,-1,-1,0
1532063486115,-1,-2,-2,0,-10,-2,-2,1
1532063486120,0,3,6,10,11,1,4,-3
1532063486125,-2,-5,-8,16,-12,-3,-4,1
1532063486130,0,-3,-3,-1,0,-1,-1,-2
1532063486135,1,2,3,-11,2,-1,2,-2
1532063486140,-1,-1,0,45,2,-2,-6,0
1532063486145,1,-1,-2,-7,-1,1,0,1
1532063486150,0,0,-2,-9,8,1,0,1
1532063486155,1,-1,2,49,4,-2,-2,-1
1532063486160,-1,-3,-6,-24,-20,-2,-1,-2
1532063486165,-2,-2,5,17,8,-2,-3,-1
1532063486170,1,0,2,2,0,-1,-1,-2
1532063486175,-1,-1,-2,13,1,1,-2,1
1532063486180,0,0,3,8,10,0,3,-2
1532063486185,-4,-5,-10,-33,-19,-2,-5,1
1532063486190,1,0,5,5,4,0,1,0
1532063486195,-1,0,-3,-1,1,-1,0,0
1532063486200,-1,0,2,-6,0,0,-1,0
1532063486205,0,3,6,21,3,1,1,-2
1532063486210,-2,-1,-2,5,2,1,-2,-1
1532063486215,1,0,1,-24,-4,1,2,-2
1532063486220,-1,-2,-5,-19,1,-2,-1,-1
1532063486225,-1,-1,4,19,5,1,0,-1
1532063486230,-1,-2,-1,-2,-4,-1,-1,-1
1532063486235,-1,-2,1,-5,2,-2,0,-2
1532063486240,0,0,-1,-12,-4,0,1,-2
1532063486245,0,1,1,-2,3,-2,-1,-1
1532063486250,0,0,1,-1,-3,-1,-1,-2
1532063486255,-1,-1,-4,1,3,0,-4,-2
1532063486260,-2,-1,-4,-5,-1,-2,-2,1
1532063486265,1,1,1,0,4,0,0,-1
1532063486270,1,-2,-2,-5,-2,-1,0,0
1532063486275,-1,0,1,-6,-3,-1,0,0
1532063486280,-1,-1,-1,-7,-1,0,-2,-1
1532063486285,0,-1,2,0,0,-1,2,-1
1532063486290,1,2,4,8,1,-2,0,-2
1532063486295,-2,-2,-7,-15,-2,-2,-2,1
1532063486300,0,-3,0,-6,-3,-3,-2,-1
1532063486305,0,1,6,22,4,0,0,-1
1532063486310,-3,-5,-13,-21,-10,-3,-4,-3
1532063486315,-1,2,7,6,4,1,1,0
1532063486320,-1,0,-9,-25,-4,0,2,-1
1532063486325,-3,-1,0,14,2,-1,-2,0
1532063486330,0,1,4,-4,6,1,-1,1
1532063486335,-2,-3,-6,-30,-15,-4,-2,-3
1532063486340,0,0,1,21,3,0,0,1
1532063486345,0,0,-4,-34,-5,1,-1,-2
1532063486350,-2,0,0,1,-2,0,-1,1
1532063486355,-2,0,0,-2,-1,1,0,-1
1532063486360,2,0,-1,16,11,1,0,-2
1532063486365,-2,1,7,1,6,1,-1,-2
1532063486370,-1,-2,-9,-8,-8,-1,-1,1
1532063486375,1,0,2,11,2,0,-1,-1
1532063486380,-2,1,2,-9,-2,-2,0,0
1532063486385,1,-1,-4,-14,-1,-1,-3,0
1532063486390,-1,-1,0,3,1,0,7,-2
1532063486395,-1,0,2,11,0,-1,-1,0
1532063486400,-4,-4,-6,-27,-8,0,-2,-2
1532063486405,-1,0,1,12,4,0,-1,1
1532063486410,-1,-1,0,0,-1,-1,-4,-1
1532063486415,0,-1,-3,-5,-3,-1,-2,0
1532063486420,0,1,5,9,0,0,3,0
1532063486425,-2,-2,-11,-16,-3,-1,-2,0
1532063486430,0,1,5,14,0,-1,0,0
1532063486435,-3,-7,-15,-65,-13,-4,-4,-4
1532063486440,-2,0,2,-2,0,-1,-4,0
1532063486445,1,0,5,9,5,0,1,0
1532063486450,-4,-6,-14,-25,-11,-3,-3,-3
1532063486455,-1,1,3,19,3,1,-3,4
1532063486460,-1,-3,0,15,-4,-1,-3,-1
1532063486465,-2,-2,-2,-7,0,-1,0,-4
1532063486470,2,2,5,3,5,0,-2,-2
1532063486475,2,1,1,-11,3,1,5,-2
1532063486480,-3,-3,-3,7,3,0,-1,0
1532063486485,0,1,3,-5,-8,0,0,-1
1532063486490,0,0,-6,-17,-7,1,0,-3
1532063486495,1,0,3,15,-4,-1,-2,-1
1532063486500,1,0,1,2,4,0,0,1
1532063486505,0,-2,-2,-14,-1,-2,2,-1
1532063486510,0,0,4,28,7,-1,0,3
1532063486515,-2,-2,-6,-12,-6,-1,-4,0
1532063486520,-1,-2,-2,1,-6,-3,13,1
1532063486525,1,0,-2,9,-2,-2,-5,1
1532063486530,0,-2,-6,-15,-3,-1,14,0
1532063486535,-2,-1,5,27,5,-1,-1,-3
1532063486540,1,1,-4,-24,7,-1,-5,0
1532063486545,0,-4,-11,-39,-17,-5,-8,2
1532063486550,0,1,3,25,30,2,13,0
1532063486555,-3,-5,-9,-23,0,7,1,-1
1532063486560,2,2,2,-30,-14,-3,0,-1
1532063486565,-1,-1,-2,12,1,1,2,-1
1532063486570,-5,-3,17,3,-2,-1,17,1
1532063486575,9,7,-12,-32,25,2,-9,6
1532063486580,2,3,-2,-27,-8,-2,1,-4
1532063486585,-2,-3,4,41,2,-2,2,-1
1532063486590,2,3,4,6,2,0,-13,-4
1532063486595,1,1,1,16,6,-2,3,-1
1532063486600,-1,0,0,12,-1,-1,-2,0
1532063486605,1,0,5,-3,-5,-1,7,-3
1532063486610,4,4,-4,19,9,-2,-5,2
1532063486615,-2,-3,-7,-31,1,3,-7,-1
1532063486620,1,0,2,12,-2,0,11,-2
1532063486625,0,1,-2,-14,-5,-2,-3,-2
1532063486630,1,1,1,12,8,2,3,1
1532063486635,-1,0,-4,5,0,0,-2,1
1532063486640,-1,1,1,-12,-8,-1,-2,-1
1532063486645,-3,-2,5,36,4,3,8,6
1532063486650,-2,-1,-11,-24,2,2,8,-1
1532063486655,0,0,1,-7,-5,1,37,-2
1532063486660,-2,0,-3,18,1,-6,-51,4
1532063486665,-4,-2,1,-21,-5,-5,3,-6
1532063486670,0,1,2,5,5,2,-4,0
1532063486675,-1,-1,-1,-23,-4,-2,-6,1
1532063486680,-3,-5,-10,0,-13,-3,0,1
1532063486685,2,1,1,-7,2,0,11,-3
1532063486690,-1,0,0,30,-1,-4,-12,-2
1532063486695,-1,-2,0,-7,-7,0,6,-4
1532063486700,2,2,8,32,13,1,12,-2
1532063486705,-2,-3,-7,-48,-10,0,-13,1
1532063486710,2,0,4,7,16,1,12,-3
1532063486715,-2,-5,-5,6,-23,-6,-17,2
1532063486720,2,1,5,5,0,-3,3,1
1532063486725,-2,2,1,16,18,-2,-5,-7
1532063486730,-1,-4,-1,9,-11,12,5,1
1532063486735,0,1,1,-13,-7,-4,-15,-2
1532063486740,-1,-3,-2,-2,0,0,0,-1
1532063486745,1,0,-1,-21,-2,-3,1,-3
1532063486750,1,1,3,2,12,-3,-3,1
1532063486755,-2,-5,-11,-2,-5,2,-12,-2
1532063486760,-2,-1,10,1,-8,-4,2,-4
1532063486765,2,3,6,17,16,3,-20,-3
1532063486770,-5,-10,-21,-36,-34,-12,-11,-3
1532063486775,1,1,1,-4,8,1,-7,-2
1532063486780,0,0,0,20,16,0,5,2
1532063486785,1,-3,-4,-50,-25,-4,-2,-4
1532063486790,1,3,9,-1,8,-2,-2,-2
1532063486795,-2,0,-6,17,13,5,7,0
1532063486800,1,3,11,-11,13,-2,5,-3
1532063486805,-2,-3,-7,31,-8,6,-3,0
1532063486810,-1,-1,-4,-8,-12,-3,3,1
1532063486815,0,0,1,-11,4,-3,3,3
1532063486820,3,1,3,35,5,3,7,-1
1532063486825,-2,-1,-4,-38,13,0,7,-2
1532063486830,0,-5,-12,-62,-30,-4,-5,2
1532063486835,-1,0,6,18,10,2,0,-2
1532063486840,0,-2,-6,-6,-3,1,4,3
1532063486845,1,0,2,18,-9,-3,-5,4
1532063486850,1,3,8,18,28,-1,0,-2
1532063486855,0,1,5,-39,-10,1,0,-3
1532063486860,0,0,-5,-25,-13,1,7,-2
1532063486865,-2,-1,19,52,8,2,5,3
1532063486870,0,-3,-16,-17,0,-2,-6,-3
1532063486875,1,9,41,16,10,-2,-7,-1
1532063486880,-1,1,1,14,9,4,4,1
1532063486885,0,-1,0,6,-7,0,-1,0
1532063486890,-3,0,-6,2,-4,-1,-1,-2
1532063486895,-1,-2,-19,31,0,-3,4,-1
1532063486900,-3,-2,-2,-44,-21,-3,1,-4
1532063486905,-1,2,13,22,12,0,0,2
1532063486910,0,-1,-6,17,3,-2,5,-1
1532063486915,-2,-3,-12,-18,-11,0,-6,2
1532063486920,1,4,9,26,6,1,1,-2
1532063486925,0,-4,-13,-3,-3,-3,6,-2
1532063486930,1,4,40,14,1,-1,-3,0
1532063486935,-1,-1,-4,2,-2,-3,-5,2
1532063486940,-3,-4,-13,-4,-2,-2,-18,-3
1532063486945,2,2,7,-2,3,2,9,4
1532063486950,-1,0,-9,12,4,0,0,-3
1532063486955,-1,-6,-17,-50,-16,-5,-4,-3
1532063486960,0,0,6,21,-6,-2,-3,1
1532063486965,0,-3,-13,-15,-7,-3,-4,-3
1532063486970,1,1,4,5,9,0,-6,-1
1532063486975,-1,-3,-3,10,-4,2,5,-1
1532063486980,-1,-3,-6,-4,-6,2,8,2
1532063486985,-3,1,-1,0,-8,-5,-4,-3
1532063486990,0,0,-8,-20,6,1,0,-1
1532063486995,-1,-1,5,28,2,-3,-5,-4
1532063487000,0,-1,-2,-2,2,-5,2,-2
1532063487005,-4,-5,-10,-3,-11,3,-8,-5
1532063487010,2,3,5,10,-6,-1,-2,0
1532063487015,-1,0,-4,-3,6,0,0,-1
1532063487020,0,-1,-22,-8,-6,-1,6,-1
1532063487025,-4,-2,20,15,9,0,-6,1
1532063487030,-1,0,-6,7,0,-2,-4,-1
1532063487035,1,-4,-12,-47,-11,-4,-15,1
1532063487040,1,1,5,-4,0,5,13,0
1532063487045,3,2,-8,17,17,3,8,-2
1532063487050,-2,-4,0,-10,2,0,4,-3
1532063487055,0,3,14,18,22,-4,-6,-1
1532063487060,-5,-6,-12,-9,-34,3,-3,2
1532063487065,2,1,-5,-17,-9,-1,1,3
1532063487070,-2,-1,6,-1,15,-1,-13,-3
1532063487075,-2,-1,-2,-3,-2,-2,2,0
1532063487080,-2,-2,-20,-31,-8,-1,-1,-1
1532063487085,-1,-1,15,21,5,1,2,-1
1532063487090,0,-2,-6,8,1,-3,-5,0
1532063487095,0,1,2,-15,-4,1,-1,-3
1532063487100,-1,0,14,-6,9,3,11,-1
1532063487105,-3,-3,-10,-42,-3,2,-1,2
1532063487110,-1,3,21,28,8,1,-2,1
1532063487115,-3,-3,-11,-43,-22,-8,-7,-3
1532063487120,0,4,8,15,10,-10,-3,0
1532063487125,-3,-4,-8,4,10,28,13,-1
1532063487130,0,-3,-2,-2,-8,-4,0,-3
1532063487135,0,-1,-10,1,5,-2,-1,0
1532063487140,-3,-1,0,-1,-12,0,-2,2
1532063487145,4,5,5,35,6,-6,1,1
1532063487150,-7,-3,-2,-11,7,-3,-10,-3
1532063487155,-1,-4,-9,-50,-12,2,3,-1
1532063487160,-1,-2,1,3,7,2,-3,-1
1532063487165,3,2,1,10,2,-4,-8,1
1532063487170,4,2,-9,-8,-10,-2,12,-3
1532063487175,-5,-7,28,2,-2,-7,-13,0
1532063487180,-1,1,-9,9,1,1,-8,2
1532063487185,2,1,-5,8,-1,-1,1,-1
1532063487190,2,-2,0,4,-1,-2,-3,1
1532063487195,1,1,-11,14,4,0,-1,-3
1532063487200,0,-1,-4,0,-3,2,-4,-3
1532063487205,-2,1,9,14,-6,-1,4,0
1532063487210,-1,-1,-4,1,14,-1,-2,0
1532063487215,-4,-6,-28,-65,-22,-5,2,-1
1532063487220,0,-2,8,19,0,1,0,0
1532063487225,-2,-1,-6,-9,-8,-6,-1,-2
1532063487230,0,-2,2,3,11,-1,-4,1
1532063487235,-1,0,-1,20,-11,1,6,0
1532063487240,0,0,4,3,-2,1,2,0
1532063487245,-2,-2,5,-27,-12,-4,-14,-1
1532063487250,-2,0,1,15,2,-1,-9,0
1532063487255,1,0,-10,22,7,0,6,-2
1532063487260,-1,-1,4,2,3,2,0,1
1532063487265,-1,1,0,-26,-10,-1,5,-1
1532063487270,-1,0,1,-11,4,-2,-4,-1
1532063487275,-1,2,-7,13,-7,-1,-2,0
1532063487280,-2,0,18,5,-5,-1,-1,-4
1532063487285,0,-5,-18,17,9,-2,-4,0
1532063487290,-3,-2,1,-12,-12,-2,-5,-1
1532063487295,0,-1,6,10,4,-1,3,-2
1532063487300,1,0,-8,2,5,-2,1,1
1532063487305,0,0,6,14,1,-1,-2,-2
1532063487310,-1,0,-6,-12,0,-1,-2,-2
1532063487315,0,-3,0,21,9,1,0,-1
1532063487320,-2,-4,-6,-8,-16,-3,-3,-3
1532063487325,1,0,-6,-20,2,-1,1,-1
1532063487330,2,-4,-12,-11,-9,1,5,3
1532063487335,-3,-1,30,5,5,0,-2,-1
1532063487340,0,1,-2,7,10,-2,0,1
1532063487345,-1,-2,-2,5,-21,-3,0,-2
1532063487350,0,1,5,0,8,2,0,0
1532063487355,1,1,-1,4,6,3,-1,2
1532063487360,-3,-4,-8,-11,-5,-1,-2,-2
1532063487365,-1,0,2,17,9,-2,2,0
1532063487370,-1,-2,-7,-43,12,-5,1,-3
1532063487375,2,1,-3,6,-7,8,2,0
1532063487380,-2,0,-2,4,-6,-2,-7,-1
1532063487385,1,-1,-6,-12,7,2,4,1
1532063487390,-2,2,4,-14,-14,-2,7,-2
1532063487395,1,-1,9,7,13,-3,-5,-3
1532063487400,0,0,4,2,0,0,3,-1
1532063487405,-3,-1,9,24,2,0,1,-4
1532063487410,0,-5,-8,-22,-11,2,-7,0
1532063487415,1,3,3,7,-1,-4,-2,2
1532063487420,0,-3,-8,-14,-4,2,2,2
1532063487425,-1,-1,-5,5,1,-1,-7,1
1532063487430,-2,0,4,32,3,1,2,-1
1532063487435,-2,2,-6,-18,-3,-2,0,-2
1532063487440,-1,-2,0,2,-2,-1,-1,-2
1532063487445,-1,-3,-7,-16,0,0,-2,-1
1532063487450,0,-2,4,19,-7,-3,-3,0
1532063487455,-1,0,-3,7,5,-7,-4,-2
1532063487460,-5,-3,-12,35,4,7,2,-1
1532063487465,1,0,5,13,0,-4,2,-3
1532063487470,1,-1,-3,-20,-3,1,-2,0
1532063487475,-2,0,2,16,-11,-4,-1,-3
1532063487480,0,1,2,-21,-1,-4,-3,-1
1532063487485,0,-1,4,-2,-1,-1,1,0
1532063487490,-1,-1,-3,5,3,1,2,-1
1532063487495,1,0,1,17,9,2,-2,-1
1532063487500,0,-3,-1,-12,-5,-3,3,1
1532063487505,-1,0,-7,20,-7,1,13,-1
1532063487510,1,2,6,-4,6,-1,1,2
1532063487515,-2,-1,-7,-16,-5,2,-2,-3
1532063487520,-1,-2,1,1,-3,-1,5,1
1532063487525,1,0,1,-15,1,-4,-20,-2
1532063487530,-1,-1,1,16,0,1,0,0
1532063487535,0,1,-2,-4,2,0,2,2
1532063487540,0,-1,0,-3,-3,-2,-4,-1
1532063487545,-2,-2,2,3,3,-1,3,0
1532063487550,-1,2,-3,-13,-5,0,0,-1
1532063487555,-2,-2,2,-8,-8,-1,3,-3
1532063487560,-1,-1,1,9,1,-1,-4,-1
1532063487565,0,0,-2,-9,-4,-1,-2,-1
1532063487570,1,2,1,24,4,1,-1,-1
1532063487575,0,-2,-10,-46,-2,1,-3,0
1532063487580,0,-1,-4,-11,0,-2,-2,-2
1532063487585,-2,-2,0,1,-3,-1,-1,-1
1532063487590,-1,-1,5,-24,-8,-3,-5,0
1532063487595,2,0,-6,12,5,-2,3,1
1532063487600,-1,-2,-1,11,-2,1,0,-4
1532063487605,0,1,-1,-19,-1,-1,-4,0
1532063487610,-1,-4,0,4,-1,-2,-3,-1
1532063487615,1,-1,5,13,-2,-2,2,-3
1532063487620,-1,2,-1,33,8,1,0,0
1532063487625,-2,-3,2,11,-7,-2,1,-2
1532063487630,0,1,2,1,16,1,-1,0
1532063487635,-1,-1,-4,7,-11,-2,-6,-2
1532063487640,-1,1,5,-4,-4,-1,-4,-1
1532063487645,-1,-3,-3,13,6,1,-2,1
1532063487650,-2,-4,-10,-23,-9,-2,-5,-3
1532063487655,-1,1,11,13,11,1,4,2
1532063487660,1,-1,1,-18,-2,-1,-7,1
1532063487665,-1,1,4,8,0,2,4,-1
1532063487670,0,-2,-4,-12,5,3,0,-1
1532063487675,2,-2,1,-4,-3,-3,-3,-2
1532063487680,-2,-2,-6,-30,-2,-1,4,1
1532063487685,0,-1,0,2,-1,-2,-2,2
1532063487690,-1,0,-1,-14,-1,-3,-2,-3
1532063487695,-2,-2,-3,11,2,-1,-4,1
1532063487700,-1,-1,-5,-26,-7,-2,3,-1
1532063487705,-1,-3,-2,11,0,-1,-3,0
1532063487710,0,2,3,5,-8,-2,1,-1
1532063487715,-3,-3,-5,1,-3,-1,-5,0
1532063487720,-1,-3,-4,-2,5,1,-7,-2
1532063487725,-1,1,-2,-1,-5,-4,1,-3
1532063487730,-1,0,2,2,3,3,5,-1
1532063487735,-1,-1,4,22,-3,-1,1,-1
1532063487740,-2,0,-8,-23,1,-3,-5,-2
1532063487745,0,-1,2,-9,2,1,0,1
1532063487750,-1,-1,-3,-12,-10,-2,-1,-1
1532063487755,-1,1,4,0,2,-1,2,0
1532063487760,0,0,5,16,5,1,0,-1
1532063487765,-1,1,0,12,-4,-3,-2,-1
1532063487770,-1,-3,-1,3,-3,0,3,0
1532063487775,-1,1,1,8,3,0,-2,-1
1532063487780,-1,-1,0,6,-4,-1,-5,-1
1532063487785,0,-1,1,12,6,0,-1,-1
1532063487790,-2,-1,-4,-12,-2,-1,0,0
1532063487795,-1,-2,-5,0,-2,-1,-3,-2
1532063487800,-1,-2,3,28,0,-1,4,-3
1532063487805,-2,-1,-2,-7,3,3,-2,-2
1532063487810,0,0,-1,2,-1,0,0,1
1532063487815,-1,-2,-7,-38,-11,-2,0,-3
1532063487820,-1,0,-1,-6,0,-2,3,0
1532063487825,-3,-1,-1,-15,-2,0,1,1
1532063487830,-2,-1,3,10,1,-2,0,-3
1532063487835,0,-2,-3,7,3,2,-1,3
1532063487840,2,0,7,21,-1,0,7,-1
1532063487845,-2,-5,-14,-42,-9,-4,-6,-1
1532063487850,-1,-1,-1,4,-3,0,-2,1
1532063487855,0,2,2,-5,-1,-1,0,0
1532063487860,-1,1,-1,11,6,1,6,-2
1532063487865,-2,-3,2,18,-4,-3,-4,-2
1532063487870,0,2,1,4,1,0,-1,1
1532063487875,0,-1,-3,-7,1,2,2,0
1532063487880,0,0,2,4,4,-1,0,0
1532063487885,-1,-2,-8,-50,-6,-1,-2,-1
1532063487890,-1,-3,-3,5,-3,-2,1,-1
1532063487895,-2,-3,0,11,1,-1,-3,0
1532063487900,0,3,1,-6,-2,-1,-2,1
1532063487905,-2,-3,-1,2,1,-2,2,-2
1532063487910,-1,-2,-7,-9,-7,-4,-5,-2
1532063487915,-3,-1,0,-3,4,-1,-1,-1
1532063487920,-1,-1,-3,-10,-1,-1,-5,1
1532063487925,1,-1,2,13,-5,-1,0,-1
1532063487930,0,1,4,1,0,-1,0,-1
1532063487935,1,-1,-2,5,1,-2,0,-2
1532063487940,-4,-4,-2,-8,-6,-3,-9,-3
1532063487945,1,2,1,0,2,-1,4,-1
1532063487950,0,-1,-1,1,0,-2,-4,-2
1532063487955,-1,-1,0,20,1,0,-2,-3
1532063487960,-1,-3,-5,-10,-1,-1,-2,0
1532063487965,-1,0,6,-33,-8,-2,-8,-1
1532063487970,0,-4,-5,16,-7,-3,1,-2
1532063487975,-1,-1,5,5,1,1,1,0
1532063487980,0,0,-2,4,2,0,4,-3
1532063487985,-2,-3,0,23,3,-1,-3,-1
1532063487990,-2,2,2,-11,0,-1,-1,0
1532063487995,-2,0,0,-7,-3,-2,-3,-1
1532063488000,0,-2,-4,-5,-7,-2,-1,-2
1532063488005,0,1,-2,-4,1,0,0,-1
1532063488010,-1,0,2,9,1,0,4,1
1532063488015,0,-2,-1,-5,3,-2,-7,-2
1532063488020,1,1,0,-3,-5,0,4,0
1532063488025,-2,-3,-2,17,-4,-2,-3,-2
1532063488030,1,0,-1,0,4,0,-9,-3
1532063488035,-2,0,-4,5,-2,-2,1,0
1532063488040,0,-1,4,9,1,1,1,1
1532063488045,-1,0,-4,-12,-2,0,1,-2
1532063488050,-2,-3,0,-1,0,-1,-1,0
1532063488055,-1,-1,-1,-10,-2,-1,0,0
1532063488060,-2,0,0,4,-2,-2,-4,-4
1532063488065,1,-2,0,20,4,1,2,0
1532063488070,-3,-2,-4,-28,-3,1,-4,-1
1532063488075,2,0,-2,-16,-5,-1,0,-2
1532063488080,-1,-2,-2,24,0,-3,-4,0
1532063488085,0,-2,-5,-43,-5,-2,-2,0
1532063488090,0,1,4,10,5,0,2,-1
1532063488095,-1,-1,-3,-7,-2,0,-2,-2
1532063488100,0,-2,0,-3,1,0,-3,-1
1532063488105,-1,2,0,0,2,-2,-4,0
1532063488110,0,1,2,4,2,-1,6,1
1532063488115,-1,-1,-4,5,-4,0,0,-2
1532063488120,-1,-2,-3,-22,-2,-1,1,-2
1532063488125,-1,-2,1,32,5,0,-4,-1
1532063488130,0,-1,-3,-40,-9,0,7,-1
1532063488135,0,-1,2,8,0,-2,0,0
1532063488140,0,-1,-1,-2,-1,-2,-2,2
1532063488145,0,1,2,2,5,1,3,0
1532063488150,0,-1,-7,-12,-4,-3,-6,-1
1532063488155,0,1,0,18,-2,1,2,0
1532063488160,-1,-2,-8,-35,-4,-2,0,0
1532063488165,0,0,6,14,6,0,5,1
1532063488170,-1,-3,-1,10,1,0,-3,0
1532063488175,-1,0,2,1,1,0,-1,1
1532063488180,1,0,-4,-6,-2,0,9,-1
1532063488185,-1,-1,-4,22,-3,1,-3,-1
1532063488190,-1,-2,-6,-20,-4,-1,-2,1
1532063488195,0,-2,-3,-1,-7,-1,0,-1
1532063488200,-1,0,1,4,3,0,-1,-3
1532063488205,-1,-1,-6,-8,0,-1,2,0
1532063488210,-1,0,5,14,2,-1,1,0
1532063488215,0,0,-4,-8,2,-1,-2,-2
1532063488220,-1,-1,2,2,-1,-1,-3,-2
1532063488225,-1,3,1,0,-2,-1,1,-2
1532063488230,-4,-4,-3,-6,-6,-2,-2,-1
1532063488235,0,1,3,15,11,3,0,0
1532063488240,-2,-2,-5,-25,-7,-1,-2,-2
1532063488245,0,-1,2,-2,-1,-3,-1,-1
1532063488250,2,2,4,22,7,0,-1,-1
1532063488255,-1,-1,-4,-9,-8,-3,0,-1
1532063488260,-2,-1,-2,-1,-3,-1,1,-2
1532063488265,1,0,-1,-14,-1,1,2,2
1532063488270,-1,0,1,25,7,1,-2,0
1532063488275,0,-1,3,-19,1,1,-3,-1
1532063488280,3,2,-1,34,7,0,2,0
1532063488285,-1,-4,1,-10,-12,-5,-5,-4
1532063488290,0,1,2,9,-3,0,2,0
1532063488295,-1,-1,-1,7,7,0,-2,0
1532063488300,-2,-3,-1,17,-1,-1,-5,-1
1532063488305,-1,0,-3,-3,8,1,-1,-3
1532063488310,-1,-1,0,4,-1,1,-3,-2
1532063488315,1,0,-1,-3,-11,-5,-9,-1
1532063488320,0,1,5,4,-1,-4,2,1
1532063488325,-3,-2,-6,-35,-6,-2,0,-1
1532063488330,-2,-3,1,6,7,1,-5,-4
1532063488335,-3,-4,-6,-15,-10,-2,2,2
1532063488340,0,-1,1,6,-4,-2,1,-2
1532063488345,0,-1,1,10,-3,1,-4,0
1532063488350,1,2,-1,-14,7,-1,2,2
1532063488355,-1,-1,-2,-9,-5,-5,3,-1
1532063488360,-4,-1,1,2,12,1,0,-2
1532063488365,-1,-2,-4,7,-7,3,0,1
1532063488370,-1,1,5,-33,-2,3,-3,-2
1532063488375,-1,-1,2,15,-7,-1,5,-2
1532063488380,-2,2,3,-3,7,-3,-4,-2
1532063488385,-1,0,-4,-8,-5,2,-2,1
1532063488390,2,2,0,-1,-3,-3,4,0
1532063488395,0,-1,-1,2,20,0,-2,-2
1532063488400,1,-3,-3,-1,23,2,-3,-2
1532063488405,-2,0,3,-8,-48,-4,0,1
1532063488410,-1,0,-1,7,-4,-2,-3,-1
1532063488415,0,-1,-1,3,-5,-3,2,-2
1532063488420,-1,-3,-3,-12,-3,-2,-1,0
1532063488425,0,0,4,14,21,-1,2,-2
1532063488430,-1,0,1,-1,-7,-2,1,1
1532063488435,-2,-1,-2,6,9,6,-1,-1
1532063488440,0,0,5,-8,-4,1,-3,1
1532063488445,1,-1,1,6,13,-3,1,2
1532063488450,-1,1,0,0,-3,6,9,0
1532063488455,-2,-1,-2,5,3,-1,-1,-1
1532063488460,0,-1,-2,-3,-13,0,-2,1
1532063488465,-1,-3,-5,-14,5,1,-3,-2
1532063488470,-1,-2,-3,6,-4,-10,-4,0
1532063488475,1,-1,1,-4,14,0,-2,0
1532063488480,-2,-1,-2,0,-34,-3,3,1
1532063488485,0,2,4,15,-14,0,0,-2
1532063488490,-1,-4,-9,-18,-14,-4,-4,-3
1532063488495,-2,-1,0,-7,-4,1,4,1
1532063488500,-1,0,0,8,3,-5,-8,0
1532063488505,0,-1,4,16,18,1,5,-2
1532063488510,-3,-3,-2,11,7,1,-2,-3
1532063488515,-2,-1,-6,-16,-11,-2,-3,-1
1532063488520,0,-2,-2,8,6,1,-4,-1
1532063488525,-2,0,-1,-4,-7,1,3,-1
1532063488530,0,-1,0,9,4,-2,3,-1
1532063488535,-2,-1,3,-5,-2,-1,-2,-2
1532063488540,-2,-1,-1,-2,1,0,2,0
1532063488545,0,-2,-1,-4,-2,-2,-8,-1
1532063488550,-1,1,1,0,-4,-6,0,-2
1532063488555,0,-2,-4,0,8,4,1,0
1532063488560,1,-2,-5,-9,-3,0,1,-1
1532063488565,-1,1,-1,0,2,-2,-2,0
1532063488570,-1,-2,0,9,7,-2,-4,-2
1532063488575,-1,-2,-2,-35,-13,-3,3,0
1532063488580,-1,0,1,3,-2,1,3,0
1532063488585,2,1,-2,-2,11,-1,-1,-2
1532063488590,-2,-2,-1,6,12,2,-3,-2
1532063488595,-2,0,-4,1,-18,-2,0,-2
1532063488600,-2,-1,-1,-6,0,0,-8,-4
1532063488605,0,-2,-1,1,4,-1,1,-2
1532063488610,-1,0,-5,-5,-5,2,-3,-1
1532063488615,1,0,2,13,-2,-4,-3,2
1532063488620,0,0,0,-4,-1,0,9,0
1532063488625,-1,1,-2,8,3,0,-1,0
1532063488630,-2,-3,-3,-29,-3,0,-1,-1
1532063488635,1,0,0,4,4,-1,-4,-2
1532063488640,0,0,0,-8,2,1,5,-2
1532063488645,-1,-2,-7,2,-8,-1,-2,0
1532063488650,1,2,6,8,3,2,2,0
1532063488655,-1,1,-1,-2,-4,-1,-4,-2
1532063488660,-1,1,2,0,5,0,-1,2
1532063488665,-2,-5,-13,-12,3,-2,-1,-1
1532063488670,0,2,4,6,-1,0,5,0
1532063488675,0,0,0,7,0,0,2,-2
1532063488680,-3,0,0,12,2,-1,-4,1
1532063488685,-1,1,6,-7,3,0,3,-3
1532063488690,-2,-4,-12,-8,-13,-3,-3,0
1532063488695,0,2,8,14,7,-1,3,-3
1532063488700,-1,-1,-3,6,-4,-3,-1,-3
1532063488705,0,-1,1,-4,-3,0,-1,0
1532063488710,0,-2,8,9,2,-1,-7,-1
1532063488715,-1,-2,-8,-1,0,-1,5,0
1532063488720,0,-2,-3,-13,-5,-1,-5,-1
1532063488725,-1,-1,5,14,2,-1,-3,-2
1532063488730,-1,-1,-7,-4,-2,-3,-1,0
1532063488735,0,1,3,6,6,2,-2,0
1532063488740,-2,-4,-10,-47,-14,-3,-6,2
1532063488745,-1,0,1,14,0,-2,10,0
1532063488750,-2,-1,-1,11,6,3,1,0
1532063488755,0,-1,-7,-12,-13,-3,-2,-2
1532063488760,-1,1,13,11,5,-1,0,1
1532063488765,-1,-1,-2,-8,-1,-1,-2,0
1532063488770,-2,-2,-4,-9,0,-2,-5,-2
1532063488775,1,1,5,29,7,0,3,1
1532063488780,0,0,-6,-15,-3,1,-1,-1
1532063488785,-2,-5,-14,-68,-15,-5,-3,-1
1532063488790,2,0,7,13,2,-1,2,1
1532063488795,-3,-2,-5,-7,-3,-1,-3,-1
1532063488800,-1,-2,2,19,-3,-3,-1,-3
1532063488805,2,3,9,13,5,0,-2,-1
1532063488810,0,1,0,4,4,1,-3,0
1532063488815,0,-3,-6,-14,-10,-3,-3,-2
1532063488820,0,3,6,8,3,1,1,-1
1532063488825,-1,-2,-3,4,0,0,-3,-4
1532063488830,-2,1,-2,3,-5,-1,-1,3
1532063488835,1,0,4,8,5,0,-2,2
1532063488840,-2,2,-2,3,0,0,1,-3
1532063488845,0,0,3,12,1,1,2,2
1532063488850,-1,-3,-6,3,-4,0,0,-2
1532063488855,-1,0,8,1,1,1,1,-1
1532063488860,-2,-2,-4,-9,0,1,0,1
1532063488865,0,2,2,9,1,0,-6,-1
1532063488870,-1,-2,-3,-11,-5,0,0,-1
1532063488875,-1,0,-1,11,3,-1,-2,-1
1532063488880,-2,-3,-3,11,-2,-3,-1,-2
1532063488885,-2,-1,-1,-15,1,-2,-6,-4
1532063488890,-1,0,-4,-5,-3,-2,-1,-3
1532063488895,1,0,3,-1,3,1,-4,1
1532063488900,0,-3,-8,0,0,-1,-1,-2
1532063488905,-1,0,4,9,4,0,-1,-1
1532063488910,-1,1,0,-4,-3,0,6,-2
1532063488915,0,-1,3,8,2,-1,-1,0
1532063488920,1,-1,-1,-6,0,-1,-1,1
1532063488925,-1,0,2,5,-3,-1,1,-1
1532063488930,-1,-2,-1,0,6,0,-1,-1
1532063488935,-3,-1,-1,5,-7,-3,-2,-1
1532063488940,-2,-2,-1,-26,-4,-1,0,-2
1532063488945,0,1,0,15,3,2,2,1
1532063488950,-1,-1,3,-8,-2,-2,1,0
1532063488955,-2,-2,-5,-10,3,-1,-3,-2
1532063488960,0,0,-5,-2,-4,-1,5,0
1532063488965,-2,-3,-2,4,-3,-2,-1,-4
1532063488970,-1,-1,3,12,4,1,-4,0
1532063488975,-1,2,-2,-20,-3,-1,4,1
1532063488980,-1,-2,-4,16,0,1,-1,1
1532063488985,-3,-1,7,-2,1,-2,-1,1
1532063488990,-1,-1,-3,0,-3,-2,-1,-3
1532063488995,-1,-1,0,1,0,0,-1,-2
1532063489000,0,-1,1,-5,2,-1,-2,-1
1532063489005,1,0,-6,-11,-8,-2,-2,1
1532063489010,0,-1,5,12,-1,-1,1,0
1532063489015,-1,-1,-1,-3,2,1,1,-1
1532063489020,-1,0,-2,-12,1,-2,-8,-1
1532063489025,1,-1,0,11,3,0,2,0
1532063489030,-1,-1,-1,-9,-9,-3,-2,-3
1532063489035,0,2,0,4,3,-1,3,0
1532063489040,0,1,3,22,0,0,0,-2
1532063489045,-3,-4,-14,-29,-2,-1,-2,1
1532063489050,-1,0,2,-6,1,-1,-5,1
1532063489055,-2,-2,-1,1,-4,1,2,0
1532063489060,-2,2,5,17,2,-1,1,-1
1532063489065,-1,-1,-4,-5,-2,-1,-4,0
1532063489070,0,-2,4,1,-7,0,0,-1
1532063489075,-2,-2,-1,-7,1,-2,-4,-3
1532063489080,-1,-1,1,2,-2,0,0,0
1532063489085,1,0,0,1,1,0,2,-3
1532063489090,-2,-3,-6,-7,1,-1,-4,-2
1532063489095,0,0,1,4,2,1,-4,-1
1532063489100,-2,-1,-1,16,-5,-1,2,-1
1532063489105,-1,-1,-1,-18,-3,-1,-2,-3
1532063489110,0,0,-1,10,1,-2,-1,0
1532063489115,0,-1,-2,-9,-3,-3,-4,-1
1532063489120,-3,0,-1,20,4,2,5,-3
1532063489125,0,-1,-2,4,-3,-2,-1,3
1532063489130,0,0,-2,-7,-2,0,0,-1
1532063489135,0,-1,-2,-6,-3,-2,0,1
1532063489140,0,-1,-2,-7,3,1,-3,0
1532063489145,-2,1,2,9,2,0,-2,-4
1532063489150,-2,-2,-8,-7,-5,-2,-2,-1
1532063489155,0,0,2,7,-1,-1,1,-1
1532063489160,1,-1,1,-17,4,2,-2,1
1532063489165,-1,-3,-2,12,-4,0,-1,-1
1532063489170,0,-1,4,7,0,-1,-3,0
1532063489175,-2,-3,-4,-1,0,-2,0,-2
1532063489180,0,0,-3,7,-1,-2,1,1
1532063489185,-2,1,5,-10,3,0,-2,1
1532063489190,-2,0,0,8,3,1,-3,-3
1532063489195,-1,-1,-2,-4,-2,1,2,-2
1532063489200,1,1,2,-11,1,-1,0,-2
1532063489205,1,-1,-7,-6,-3,-1,-1,2
1532063489210,-1,0,-5,-17,-5,-3,3,-2
1532063489215,-1,-1,-1,-2,-1,-1,-6,-2
1532063489220,0,-2,-1,-16,-2,-1,-3,-3
1532063489225,1,0,3,11,3,-1,1,-2
1532063489230,0,-1,-6,-33,-5,-1,-3,1
1532063489235,0,-1,1,15,-1,-1,1,2
1532063489240,0,-3,-5,-22,-9,-2,-3,-1
1532063489245,-3,-5,-7,-8,-3,0,-1,1
1532063489250,-1,0,2,8,-1,0,1,-2
1532063489255,-2,-1,-4,-15,-1,0,-2,-1
1532063489260,0,0,2,18,1,-2,-5,0
1532063489265,0,-1,3,-18,-2,-1,3,-2
1532063489270,0,1,2,12,-2,-4,-2,0
1532063489275,1,-1,0,-1,2,1,6,-1
1532063489280,-1,0,-1,-1,-3,-1,-2,0
1532063489285,0,0,0,4,-2,0,-3,-1
1532063489290,0,1,1,5,4,-1,1,0
1532063489295,-3,-1,-1,-9,0,-1,-5,-1
1532063489300,1,1,1,27,1,-1,0,0
1532063489305,0,-3,-3,-22,0,-2,0,-3
1532063489310,-2,-1,3,15,0,-1,-1,-2
1532063489315,2,0,0,-4,-3,0,0,0
1532063489320,-3,0,-4,-11,0,-1,2,1
1532063489325,-1,0,-1,14,-2,-3,-5,0
1532063489330,-1,-2,-4,-5,0,0,2,0
1532063489335,-3,1,1,4,1,-3,-4,-1
1532063489340,-1,-2,2,-7,-3,-2,2,0
1532063489345,-3,0,2,33,3,-1,0,-2
1532063489350,-1,-3,-10,-42,-9,-3,2,-3
1532063489355,0,1,8,4,0,-3,-9,-3
1532063489360,0,0,0,-6,-1,0,3,1
1532063489365,-2,-2,-4,3,-1,-1,-2,-1
1532063489370,-1,0,3,7,5,0,-1,-1
1532063489375,0,-3,-3,18,-3,0,-2,-1
1532063489380,-3,-1,-5,-39,-5,-1,2,0
1532063489385,1,1,0,-7,-1,1,-1,-1
1532063489390,-2,0,0,7,1,1,0,1
1532063489395,-1,-2,-4,-6,-2,-2,1,-1
1532063489400,-1,-1,4,15,1,-1,1,-2
1532063489405,-1,0,0,-6,0,1,0,-2
1532063489410,2,0,-1,6,3,1,-2,1
1532063489415,-1,-2,4,-8,-3,-1,1,0
1532063489420,1,0,0,7,-2,-1,-3,-2
1532063489425,1,0,3,2,1,1,2,0
1532063489430,2,0,-5,2,1,-2,-1,0
1532063489435,-6,1,3,-13,0,-1,-1,-3
1532063489440,-2,-2,-1,12,-1,0,-11,-5
1532063489445,0,1,5,7,1,1,16,3
1532063489450,2,-1,6,10,3,-1,-4,-2
1532063489455,1,-3,-19,10,2,-1,2,-1
1532063489460,5,2,1,-27,-10,-6,-8,0
1532063489465,10,3,-8,0,0,-1,-4,0
1532063489470,-24,-11,3,-2,-5,0,4,-4
1532063489475,0,1,2,8,5,0,2,0
1532063489480,-2,-1,-6,15,4,0,0,-1
1532063489485,2,-4,-11,-14,-7,-3,-2,-3
1532063489490,2,4,20,-1,3,0,6,1
1532063489495,2,1,5,15,-1,0,-8,7
1532063489500,-12,-7,-3,-16,4,1,14,1
1532063489505,-3,-5,-8,-10,-6,-8,-26,-8
1532063489510,13,2,-34,-9,-7,0,17,3
1532063489515,14,19,24,12,7,0,-22,-1
1532063489520,-37,-19,-1,17,-5,1,11,-5
1532063489525,-9,-6,-6,9,1,-1,-16,-2
1532063489530,-3,-6,-1,5,3,2,18,1
1532063489535,10,2,-4,-10,-4,0,-2,0
1532063489540,11,3,-1,1,3,-1,-4,-3
1532063489545,-3,1,7,7,3,2,23,5
1532063489550,6,4,4,15,0,-3,-32,1
1532063489555,-5,-6,-21,-38,-11,-2,6,1
1532063489560,11,5,4,4,0,-1,-7,-3
1532063489565,-9,-3,0,-4,1,0,4,-1
1532063489570,5,1,4,14,2,0,5,5
1532063489575,-12,-5,2,9,6,0,2,-6
1532063489580,1,-4,-13,-33,-13,-4,-15,-3
1532063489585,8,3,7,13,2,0,10,3
1532063489590,-3,0,1,-3,1,0,-1,-1
1532063489595,-4,-5,-10,-23,-4,-3,-12,1
1532063489600,8,4,8,3,2,1,12,0
1532063489605,-1,3,6,12,8,1,-2,9
1532063489610,-4,-4,-8,1,-9,-3,-15,-8
1532063489615,-3,-4,6,14,-3,-1,13,0
1532063489620,5,-1,-2,-19,2,1,4,2
1532063489625,-2,-1,3,2,-4,-1,-5,-2
1532063489630,-1,-1,0,2,1,-2,-2,-1
1532063489635,2,0,-6,-9,-2,-1,14,1
1532063489640,0,1,-1,-1,-4,-2,-21,-2
1532063489645,0,0,4,5,-3,-1,-7,-4
1532063489650,-2,-5,-13,-23,-9,-3,-7,-2
1532063489655,-1,0,6,19,2,0,10,-2
1532063489660,-2,1,2,3,3,-2,0,1
1532063489665,0,-1,-6,-20,2,1,-2,-4
1532063489670,1,1,10,17,4,2,3,1
1532063489675,-5,-6,-13,-50,-11,-3,-2,-5
1532063489680,0,0,0,12,2,2,1,0
1532063489685,1,-1,-2,3,-3,-3,-1,-1
1532063489690,-1,2,3,-7,1,-1,-2,-2
1532063489695,-2,-1,-1,-26,1,0,-8,1
1532063489700,1,-2,-2,-1,-5,0,6,0
1532063489705,2,3,2,8,4,3,4,-2
1532063489710,-1,-2,4,-10,-3,-2,2,0
1532063489715,-1,-2,-6,1,-2,-2,-13,-2
1532063489720,2,0,2,8,0,2,7,0
1532063489725,-2,0,4,8,3,1,3,6
1532063489730,-3,-1,-1,9,6,0,-6,-9
1532063489735,0,-3,1,-24,-4,-2,4,0
1532063489740,-1,-2,-2,6,2,-1,-4,-1
1532063489745,-1,-2,-1,-8,-4,-3,0,0
1532063489750,0,-1,-4,0,-2,0,1,1
1532063489755,-2,-4,-5,9,-2,1,3,-3
1532063489760,0,0,4,8,1,0,-6,0
1532063489765,-2,-1,-2,-3,-1,0,-5,-8
1532063489770,-1,0,-7,-29,-8,-3,5,6
1532063489775,-1,-2,4,16,1,0,-3,-1
1532063489780,0,-1,-4,-20,-3,-2,-5,1
1532063489785,0,-3,-5,13,1,1,3,-2
1532063489790,0,0,0,-14,-6,-3,-9,-2
1532063489795,0,2,1,12,4,0,6,1
1532063489800,0,0,1,18,1,-2,-2,3
1532063489805,-2,-2,-3,-18,-4,0,-5,-2
1532063489810,-1,-1,-1,-10,0,0,1,-3
1532063489815,-1,-2,0,10,-4,-1,-4,-2
1532063489820,1,0,1,8,1,-1,8,1
1532063489825,0,0,3,-2,-1,0,-10,-1
1532063489830,-1,-2,0,22,2,2,6,-1
1532063489835,0,-2,-3,-3,-1,-2,-4,-1
1532063489840,-1,-2,0,2,3,0,2,-2
1532063489845,-1,-2,-3,2,-9,-4,5,0
1532063489850,-1,-1,-1,-13,0,-1,-9,-1
1532063489855,-2,0,0,18,0,0,4,-2
1532063489860,0,0,-2,-2,1,0,-5,-3
1532063489865,1,0,0,-10,0,-1,-2,2
1532063489870,1,-2,4,10,1,1,1,-1
1532063489875,0,0,-1,11,3,0,-1,3
1532063489880,-2,1,4,-41,-8,-3,-2,-5
1532063489885,-3,-4,-10,-16,-2,-1,-10,-3
1532063489890,1,-1,-1,6,-4,0,5,0
1532063489895,-1,0,-2,-2,-1,-2,-2,-2
1532063489900,-1,1,3,6,6,2,0,0
1532063489905,-3,-3,-10,-13,-13,-4,-3,0
1532063489910,0,1,2,0,2,-1,-3,0
1532063489915,-4,-4,-3,-16,-9,-1,-6,-4
1532063489920,2,1,0,17,0,-2,2,1
1532063489925,-1,0,6,-8,2,0,2,-1
1532063489930,-1,-1,-2,14,3,-1,-2,-1
1532063489935,2,-1,5,14,3,1,1,0
1532063489940,-2,-4,-7,-2,-4,-2,5,-1
1532063489945,-1,1,1,14,4,0,-9,-2
1532063489950,-1,-1,-6,-7,-5,-1,-3,0
1532063489955,1,2,5,5,4,1,8,2
1532063489960,-1,0,-3,-9,-1,0,4,-1
1532063489965,1,-3,-8,7,-3,-1,-5,-2
1532063489970,1,1,14,-1,1,-1,-2,-2
1532063489975,-1,-3,-3,3,-3,-2,-1,1
1532063489980,-1,-2,-2,13,4,0,2,3
1532063489985,0,-1,-3,-28,-7,-1,4,0
1532063489990,-1,-1,-4,-7,2,0,0,-1
1532063489995,-1,-2,-4,-5,-1,-1,-1,-3
1532063490000,-1,1,1,14,1,-1,-3,-1
1532063490005,0,-2,1,-1,3,2,4,-2
1532063490010,-1,0,0,17,2,-1,-2,-1
1532063490015,-2,-2,-1,-42,-5,0,2,-3
1532063490020,-2,-4,-9,7,-8,-3,-8,0
1532063490025,0,0,3,4,1,1,-1,1
1532063490030,-2,0,-2,-6,-1,-1,0,-2
1532063490035,1,0,3,19,2,1,0,2
1532063490040,-1,1,2,-12,1,0,-1,-2
1532063490045,-1,-1,-1,-4,0,-1,-1,0
1532063490050,1,0,1,8,0,-1,-6,-1
1532063490055,-1,0,-3,-8,-4,-1,-3,0
1532063490060,-1,-2,-3,-6,-2,-2,-3,0
1532063490065,1,1,5,7,7,0,1,-2
1532063490070,-2,-1,-4,2,-2,-2,0,1
1532063490075,0,0,4,35,1,0,1,0
1532063490080,0,-1,-4,-11,-2,0,0,-2
1532063490085,-3,-2,-1,-3,-8,-2,0,-3
1532063490090,-1,-1,0,-2,1,-1,0,-1
1532063490095,-1,-1,-1,-3,1,-1,0,-1
1532063490100,-1,-1,0,2,-1,-1,-2,-2
1532063490105,0,0,5,9,2,0,5,-1
1532063490110,-3,-3,-6,-11,-4,-1,2,1
1532063490115,1,-1,-1,-7,1,-1,-2,-1
1532063490120,0,0,3,9,3,-1,-4,-2
1532063490125,0,-3,-9,-35,-11,-2,2,1
1532063490130,0,-1,0,-2,-1,-2,-3,-4
1532063490135,-1,0,1,18,0,1,2,-1
1532063490140,0,0,-1,5,-1,1,1,0
1532063490145,-1,0,-3,-15,1,-1,-1,1
1532063490150,-1,-1,2,1,-1,0,0,1
1532063490155,-2,-2,-5,-9,-2,-2,-5,-1
1532063490160,0,-2,0,0,-1,-2,-3,-1
1532063490165,-1,1,3,28,1,-1,1,-4
1532063490170,-1,-1,6,-13,-2,1,1,0
1532063490175,-2,-2,-4,-6,-1,-2,-3,-2
1532063490180,-1,0,6,2,-1,-1,1,0
1532063490185,0,1,-6,-9,4,0,-1,-1
1532063490190,0,-1,-4,4,-5,-1,-2,0
1532063490195,-2,-2,-2,-2,0,-1,-2,-1
1532063490200,1,1,1,7,-2,0,3,1
1532063490205,-2,-4,-4,-14,1,-2,-6,0
1532063490210,-2,0,-1,-10,-3,-1,5,0
1532063490215,0,-2,2,-4,0,-2,-1,-1
1532063490220,-2,-1,-1,0,2,-1,-1,0
1532063490225,0,0,3,19,2,-1,-2,0
1532063490230,1,-2,-2,-11,-2,1,0,-2
1532063490235,1,3,2,1,2,0,3,-1
1532063490240,-1,0,-2,-13,-5,-1,-4,-3
1532063490245,0,0,1,12,3,0,4,0
1532063490250,-2,0,-2,-3,-1,-2,-4,-2
1532063490255,-1,0,-1,-2,-4,0,-1,-1
1532063490260,0,0,-4,-5,3,1,-1,2
1532063490265,1,0,2,17,-2,0,-1,-3
1532063490270,0,-2,-4,-11,2,-1,-2,0
1532063490275,-1,-1,-3,-6,-8,-2,-4,-2
1532063490280,0,-2,3,0,3,-1,0,0
1532063490285,-3,-2,-6,-5,-2,-2,0,-1
1532063490290,-1,0,0,-14,5,1,-1,-1
1532063490295,1,-1,0,27,1,0,0,-4
1532063490300,-2,-2,-7,-20,-6,-2,-2,0
1532063490305,0,1,1,2,1,0,-5,-2
1532063490310,0,0,0,9,-1,-1,-1,-1
1532063490315,-1,0,0,-10,2,0,-2,1
1532063490320,-1,0,0,14,3,1,4,-4
1532063490325,-1,1,1,-20,-4,-2,-3,-1
1532063490330,-2,-2,-6,-14,0,-1,-2,1
1532063490335,1,0,-4,-17,-9,-3,-1,-2
1532063490340,-1,-3,-3,-10,-4,-2,-7,0
1532063490345,1,0,3,4,1,0,-1,0
1532063490350,0,-1,-1,10,0,1,0,-3
1532063490355,0,0,0,2,5,1,-2,1
1532063490360,1,0,-1,-1,-4,-1,5,0
1532063490365,-2,-4,2,1,-6,-4,-3,0
1532063490370,0,1,1,11,-1,-3,0,1
1532063490375,0,0,-1,-3,1,0,2,0
1532063490380,-2,-1,-4,-24,-2,0,-2,-1
1532063490385,4,0,4,33,4,3,3,-1
1532063490390,-8,-4,-7,-44,-8,-2,-1,-2
1532063490395,-1,1,5,2,3,1,-3,-3
1532063490400,-1,-1,-3,0,-5,-1,-4,-1
1532063490405,0,-1,0,2,2,1,5,1
1532063490410,1,1,3,24,2,1,-1,-1
1532063490415,-1,-1,-3,-20,-2,1,0,-1
1532063490420,-1,-1,5,12,4,-1,-1,-1
1532063490425,-2,-2,-6,-15,-2,-1,-4,-1
1532063490430,0,-2,-1,9,-5,-2,0,0
1532063490435,-1,0,2,8,3,-1,0,-3
1532063490440,-2,-1,-4,-2,-2,-1,-2,-1
1532063490445,-1,0,1,-9,1,1,-1,1
1532063490450,0,0,1,12,0,-1,3,-3
1532063490455,0,-1,0,4,-2,-2,-1,0
1532063490460,-2,-1,-1,-25,-3,-1,0,-3
1532063490465,-1,-1,-3,-6,-1,-1,-2,-1
1532063490470,1,0,2,0,4,0,-3,0
1532063490475,-2,-3,-9,7,-3,-1,0,1
1532063490480,0,-1,5,9,-1,1,0,0
1532063490485,-2,0,-1,1,-1,-1,-1,1
1532063490490,1,0,1,1,1,1,1,-1
1532063490495,0,-1,1,-7,0,-1,-4,-3
1532063490500,-1,-2,-6,-1,-7,-1,1,-1
1532063490505,0,-4,-4,-11,-2,-2,-1,1
1532063490510,0,2,3,7,1,-1,-1,0
1532063490515,-1,-1,-1,2,-2,-2,1,0
1532063490520,-1,-1,2,17,3,0,-3,-2
1532063490525,0,3,5,-10,1,0,1,-1
1532063490530,0,-3,-6,16,-5,-3,1,-2
1532063490535,-1,0,1,-8,0,0,-1,0
1532063490540,0,0,-1,-13,0,-1,-2,2
1532063490545,-3,-3,0,14,0,-2,1,-2
1532063490550,-1,0,3,13,5,3,3,2
1532063490555,1,1,0,-8,-2,0,1,0
1532063490560,0,-1,0,-4,-1,-1,2,-3
1532063490565,-1,1,-1,4,-1,-3,-1,-1
1532063490570,-1,0,-1,-5,5,2,-2,0
1532063490575,-2,-1,1,7,-2,0,0,0
1532063490580,0,0,0,-8,-5,-2,-5,-1
1532063490585,-1,-1,1,-1,-2,0,1,-1
1532063490590,1,-1,-4,-10,-2,-1,0,-3
1532063490595,-2,-2,-2,2,-2,-3,-4,1
1532063490600,-3,-2,-1,0,-1,1,0,-1
1532063490605,-2,-3,-5,1,-3,-2,-2,-1
1532063490610,1,0,4,-1,1,2,4,0
1532063490615,-1,-2,-2,6,2,0,0,-1
1532063490620,0,0,-5,-12,2,0,1,1
1532063490625,-1,-4,-8,-30,-11,-3,-1,-2
1532063490630,-2,0,2,16,0,-1,-3,-2
1532063490635,-1,0,0,-27,4,2,2,-2
1532063490640,0,0,8,34,-5,-3,-2,-3
1532063490645,-1,0,3,6,6,3,-5,0
1532063490650,-1,-4,-8,-15,-5,-2,-3,1
1532063490655,0,0,-2,5,1,0,-1,-4
1532063490660,0,3,2,3,3,0,0,0
1532063490665,1,1,3,5,4,-1,0,-2
1532063490670,-3,-2,0,-11,-7,-3,-5,-1
1532063490675,0,0,1,9,-14,-2,-1,-3
1532063490680,-3,-5,-14,0,2,0,0,-1
1532063490685,0,0,-1,3,1,0,-1,-1
1532063490690,1,0,3,1,2,3,2,-1
1532063490695,-1,-2,-5,-9,2,-3,1,0
1532063490700,1,0,-1,-1,-3,-1,-2,-1
1532063490705,-4,0,1,-4,1,-1,3,-1
1532063490710,-3,-1,-5,-1,2,-2,-1,-2
1532063490715,0,-2,0,-1,1,-1,-2,1
1532063490720,1,-1,-2,2,-1,-2,-2,0
1532063490725,0,0,1,4,4,-1,3,1
1532063490730,-1,-1,0,-3,-3,-2,-1,0
1532063490735,-1,-1,1,16,-1,-1,-1,0
1532063490740,-1,-1,-3,-22,1,-1,8,-1
1532063490745,0,-1,0,3,-3,1,1,0
1532063490750,0,-1,1,-7,-4,-1,-5,-1
1532063490755,2,1,4,23,1,0,2,-2
1532063490760,-2,-1,0,3,0,0,-4,0
1532063490765,0,-1,1,2,-5,-1,-1,2
1532063490770,0,-1,-4,8,-1,0,2,1
1532063490775,-1,0,4,0,1,-1,0,-1
1532063490780,-1,0,4,5,1,-1,-6,0
1532063490785,0,-1,-2,-1,-1,-1,-4,0
1532063490790,-1,0,-3,7,6,0,5,0
1532063490795,1,0,0,-9,-2,-1,-3,0
1532063490800,-1,-1,-6,8,-5,0,1,1
1532063490805,1,1,1,-3,8,-3,-4,-2
1532063490810,1,0,-1,-8,-6,1,-4,-4
1532063490815,-1,0,5,11,3,1,-2,0
1532063490820,0,-1,-3,-26,0,0,2,-1
1532063490825,-1,-2,-5,1,0,0,-1,-1
1532063490830,-1,1,2,6,-1,-5,-3,0
1532063490835,-2,-1,-8,-7,-3,-2,4,-3
1532063490840,0,0,7,-1,-1,-2,0,-3
1532063490845,2,0,1,9,2,-2,2,-3
1532063490850,-1,-3,-3,-16,-9,0,-4,0
1532063490855,0,-2,-2,-9,2,1,1,3
1532063490860,-1,-1,-5,-15,-8,-1,0,-2
1532063490865,-2,2,1,-1,-4,1,0,-2
1532063490870,-2,-2,1,8,0,-3,0,-1
1532063490875,1,0,3,0,2,0,-4,-4
1532063490880,0,-3,-10,-7,3,-1,3,2
1532063490885,0,0,3,20,-5,0,-3,1
1532063490890,-1,-1,-7,-41,-7,-2,0,-1
1532063490895,-1,-2,-2,13,-2,-1,5,1
1532063490900,1,1,5,8,8,2,1,1
1532063490905,2,-1,-3,-5,-4,-2,-3,-4
1532063490910,0,0,2,9,4,-2,0,2
1532063490915,-2,-2,-6,-9,12,-2,-4,-1
1532063490920,-2,0,3,19,-5,3,0,-2
1532063490925,0,-1,-2,-10,-7,0,2,1
1532063490930,0,0,2,9,-2,-1,-3,-3
1532063490935,-3,-3,-5,-8,5,-3,-3,0
1532063490940,1,0,-3,-11,-3,-4,-4,-2
1532063490945,-1,-4,-9,-16,1,0,0,0
1532063490950,1,2,10,4,-3,-2,-4,-2
1532063490955,-1,-2,-2,-1,1,1,-2,0
1532063490960,-1,-1,3,18,4,0,1,-3
1532063490965,-3,-1,-6,-21,-8,-1,0,-1
1532063490970,-2,-2,-2,-2,2,-2,-2,-3
1532063490975,1,3,3,1,-2,0,3,0
1532063490980,-2,0,1,7,2,-2,0,-2
1532063490985,1,-1,3,6,15,4,2,3
1532063490990,-2,-2,-4,-1,-1,-1,-1,-2
1532063490995,-2,2,13,0,0,-3,0,0
1532063491000,0,-1,-2,5,1,-2,-4,2
1532063491005,-1,-1,0,-6,-2,-1,6,0
1532063491010,-1,-1,-3,10,2,0,-1,-1
1532063491015,-1,-5,-8,-7,-8,-4,-3,-2
1532063491020,-1,0,-4,-16,3,-2,-1,1
1532063491025,-1,-2,-10,19,-6,-3,-2,1
1532063491030,2,0,10,9,4,3,3,2
1532063491035,0,-2,-8,-8,-9,-2,-5,-1
1532063491040,-2,-1,9,-12,-1,0,4,-3
1532063491045,-3,-2,-2,7,16,0,-6,-6
1532063491050,0,-1,-7,-11,-12,-1,-3,-1
1532063491055,0,0,4,10,1,-2,-1,0
1532063491060,-1,0,-3,4,2,-2,0,0
1532063491065,2,1,-3,2,-6,-1,0,2
1532063491070,-1,-3,-8,-15,3,1,1,-3
1532063491075,-1,1,9,1,3,-3,-4,-2
1532063491080,0,-2,-4,12,-2,0,1,-2
1532063491085,-1,-1,-1,-28,-1,1,0,0
1532063491090,-2,-1,0,9,-1,-2,-4,0
1532063491095,-2,-2,-9,-2,-5,-1,1,-1
1532063491100,-1,-1,-2,1,-1,-1,-1,-1
1532063491105,0,2,6,25,3,0,-5,-3
1532063491110,-2,-4,-12,-49,-13,-4,-1,-2
1532063491115,2,1,8,16,4,1,0,-1
1532063491120,-3,-3,-3,-10,-3,-1,2,-2
1532063491125,-1,-1,0,4,-1,1,0,0
1532063491130,-2,1,1,2,-2,-2,-3,2
1532063491135,-1,2,-1,-3,3,2,3,-3
1532063491140,2,0,0,1,-2,-1,1,-3
1532063491145,1,1,-1,-13,1,1,6,1
1532063491150,-3,-3,-3,3,-11,-6,-10,-2
1532063491155,0,-3,-2,32,3,0,5,3
1532063491160,-1,-1,-5,-5,1,-1,-7,-3
1532063491165,2,2,9,-32,-10,0,1,0
1532063491170,-2,-2,2,27,4,0,2,-1
1532063491175,-1,1,1,-4,4,-1,-3,-1
1532063491180,-1,-2,1,49,10,2,-2,1
1532063491185,-5,-7,-4,-10,-17,-4,-4,-2
1532063491190,1,2,3,5,6,-1,-4,3
1532063491195,2,0,-4,-12,-7,0,3,0
1532063491200,-1,-3,-1,4,4,0,3,-1
1532063491205,0,1,1,2,3,-1,1,-3
1532063491210,-1,1,7,5,-2,1,0,3
1532063491215,-5,-4,-11,-25,-10,-3,4,-6
1532063491220,3,0,2,-22,-4,1,2,-9
1532063491225,-3,-5,-2,22,-1,-3,-9,8
1532063491230,2,2,1,-6,0,2,24,11
1532063491235,-3,-2,0,-9,0,-1,-53,-18
1532063491240,-1,1,0,8,7,-1,-4,-10
1532063491245,0,-1,-2,3,2,0,15,5
1532063491250,4,1,5,5,-13,1,14,-1
1532063491255,-6,-5,-11,-44,-3,-5,-19,13
1532063491260,0,-1,2,20,1,1,4,-5
1532063491265,-1,0,2,13,6,-1,-16,-9
1532063491270,0,0,-7,-7,3,-3,7,-2
1532063491275,1,2,4,14,-3,-1,20,3
1532063491280,-1,-3,-5,-28,-5,0,-13,5
1532063491285,1,0,1,4,3,1,9,7
1532063491290,-1,-1,1,18,7,-1,-20,-12
1532063491295,1,-1,-3,-37,-4,-1,7,-4
1532063491300,-1,0,-3,-6,4,-1,9,8
1532063491305,3,0,-8,1,-8,1,-2,4
1532063491310,-1,-2,0,-7,1,-1,-20,-14
1532063491315,2,4,10,18,15,3,2,-9
1532063491320,0,-4,-11,-24,-18,-2,16,9
1532063491325,-3,-2,-1,-10,-1,-2,-24,5
1532063491330,-1,2,1,7,3,1,0,-2
1532063491335,0,-4,-8,4,-6,-1,12,3
1532063491340,-1,0,-2,-17,-2,-3,15,1
1532063491345,0,2,11,-1,5,-1,-26,-10
1532063491350,3,-2,-13,-37,-17,-4,11,3
1532063491355,-21,-14,-4,2,7,0,-13,-1
1532063491360,0,-4,-7,6,-6,-2,2,-1
1532063491365,-3,-3,17,4,4,2,7,-4
1532063491370,1,5,2,-3,6,1,-4,1
1532063491375,6,4,-3,14,0,0,15,0
1532063491380,3,-4,-4,-8,-12,-2,-3,1
1532063491385,-12,-2,-2,14,4,-1,-4,-3
1532063491390,12,-2,5,12,-3,-1,-13,-9
1532063491395,1,0,-19,3,6,-1,5,0
1532063491400,0,3,8,-3,-1,0,-16,1
1532063491405,5,0,-15,3,-4,0,16,-1
1532063491410,-5,-3,10,24,0,-1,-3,7
1532063491415,6,9,34,19,15,3,1,3
1532063491420,1,2,-14,6,2,0,-1,-5
1532063491425,2,3,25,-12,-7,-3,3,0
1532063491430,-6,-7,-8,-24,-3,-1,1,-1
1532063491435,2,-2,-22,34,1,-2,-1,2
1532063491440,-4,3,22,-9,6,0,-3,-2
1532063491445,1,-3,-23,-20,2,-1,5,0
1532063491450,-4,0,12,35,6,0,-7,0
1532063491455,3,1,5,-54,-20,-4,3,-1
1532063491460,-2,-1,-1,10,0,-2,-2,1
1532063491465,0,-2,-10,3,-4,-2,0,-2
1532063491470,-3,0,1,-7,5,2,-1,0
1532063491475,0,-1,1,10,-4,1,1,-1
1532063491480,-2,-2,-5,5,-1,-4,-7,0
1532063491485,-2,-4,-6,-25,-5,-1,-1,-3
1532063491490,-1,2,-3,-15,-2,1,4,1
1532063491495,2,2,5,-11,2,1,1,-2
1532063491500,-4,-4,-4,52,-3,-3,-11,0
1532063491505,1,4,4,-1,10,3,6,0
1532063491510,20,8,-4,-10,-11,-2,-4,4
1532063491515,-29,-14,-5,10,-6,-5,-6,-7
1532063491520,4,0,3,-9,1,0,0,-4
1532063491525,1,-1,-1,0,-2,0,4,-2
1532063491530,-6,-3,-9,5,3,-5,-2,-2
1532063491535,8,3,10,2,8,1,4,1
1532063491540,-9,-4,-12,-99,-19,-1,13,5
1532063491545,6,0,-5,31,-1,-2,-24,-8
1532063491550,1,0,3,-5,2,1,-1,-2
1532063491555,4,0,-2,-2,-7,-3,2,1
1532063491560,-7,-2,1,11,4,-1,-4,-4
1532063491565,2,3,6,4,0,0,27,1
1532063491570,-7,-6,-9,43,3,-1,-23,0
1532063491575,-1,-4,-19,-62,-13,-4,1,-3
1532063491580,1,-1,6,50,1,0,-8,0
1532063491585,-1,-1,1,-25,-2,0,11,0
1532063491590,-2,0,-2,4,8,1,10,-1
1532063491595,1,4,27,33,7,1,-1,3
1532063491600,5,1,-4,-28,-8,-3,6,6
1532063491605,-1,1,5,14,2,-4,-23,-12
1532063491610,-7,-4,-5,-29,0,2,7,-1
1532063491615,5,1,-2,19,-2,-1,-5,-1
1532063491620,0,2,6,35,8,1,-1,-6
1532063491625,-6,-7,-14,-66,-13,-4,3,2
1532063491630,-3,-2,1,2,-5,-2,0,0
1532063491635,2,3,3,14,7,3,-6,1
1532063491640,3,2,4,5,4,1,23,-5
1532063491645,0,1,-4,27,-1,-3,-45,9
1532063491650,9,6,4,0,7,2,21,-1
1532063491655,-8,-11,-22,-49,-23,-2,-18,-3
1532063491660,-1,1,1,14,3,1,12,1
1532063491665,-3,-2,-1,6,0,-1,-18,-3
1532063491670,2,1,-2,-29,-2,3,14,-4
1532063491675,1,3,5,36,3,-4,-17,1
1532063491680,-1,-3,0,-4,0,-1,-10,-3
1532063491685,2,0,-3,-10,-6,0,18,1
1532063491690,-6,-5,3,44,2,-3,-9,1
1532063491695,0,-3,-6,-54,-8,0,8,-1
1532063491700,-2,0,-2,9,-1,-1,-5,1
1532063491705,-12,-2,4,-10,6,1,18,8
1532063491710,-4,-2,-4,37,-4,0,-6,-3
1532063491715,-2,-1,2,25,5,1,-26,-11
1532063491720,-4,2,1,-34,2,-1,-27,-11
1532063491725,6,7,11,10,9,3,24,0
1532063491730,-13,-15,-13,-11,-19,-6,0,-1
1532063491735,17,5,11,48,12,2,25,11
1532063491740,-34,-9,-17,-38,0,0,-14,-8
1532063491745,3,3,9,1,-13,-3,0,-6
1532063491750,-6,-5,6,-54,0,1,3,6
1532063491755,8,3,-11,6,-7,-3,38,-3
1532063491760,13,5,7,24,8,0,-46,6
1532063491765,5,1,-8,1,5,0,19,14
1532063491770,-8,1,-5,-14,1,-2,-20,-15
1532063491775,-3,-4,7,-1,2,0,10,2
1532063491780,6,-2,-4,-1,-5,-1,15,2
1532063491785,1,-1,-4,13,5,2,-2,-4
1532063491790,6,0,6,12,-8,-2,8,2
1532063491795,-4,0,0,-6,1,-2,-10,-1
1532063491800,2,-2,3,22,-3,-1,-12,6
1532063491805,-6,-5,0,8,5,2,7,-9
1532063491810,21,6,-8,-27,1,-3,-23,3
1532063491815,-32,-18,-15,-20,-6,1,-3,-8
1532063491820,5,2,8,-1,-7,1,15,2
1532063491825,-4,-4,8,30,7,0,7,-1
1532063491830,6,3,-7,8,0,1,-13,-1
1532063491835,8,2,-5,-2,0,-1,17,2
1532063491840,1,-1,10,0,4,1,0,-1
1532063491845,-3,-1,-7,19,-11,-4,5,-11
1532063491850,-7,1,6,1,8,1,1,1
1532063491855,4,0,-1,-1,4,-3,-33,2
1532063491860,-2,-1,0,6,3,2,20,-5
1532063491865,2,2,-2,-13,0,0,-2,0
1532063491870,-6,0,4,1,0,2,6,-2
1532063491875,-3,-1,-5,-27,1,1,3,0
1532063491880,6,1,4,52,-5,-3,5,1
1532063491885,-3,-2,-8,-6,-13,-4,-18,2
1532063491890,-5,-4,-1,-5,-2,0,5,2
1532063491895,4,6,10,26,2,0,3,2
1532063491900,0,-1,-2,1,4,-1,0,-2
1532063491905,-2,-2,-2,4,2,1,6,-2
1532063491910,-4,-2,-3,5,-2,-2,-17,-3
1532063491915,3,2,2,4,1,-1,6,-1
1532063491920,1,-1,-4,-12,4,-1,-3,-1
1532063491925,-4,-5,-4,-2,-8,-2,-5,-1
1532063491930,3,3,2,-1,-4,-1,41,-1
1532063491935,-1,-1,2,20,0,-2,-41,6
1532063491940,-1,-1,-1,-11,4,-2,-19,-9
1532063491945,-4,-2,-12,-61,-8,-1,9,3
1532063491950,-1,-1,-8,-5,-1,0,-6,0
1532063491955,0,1,10,-4,-4,-1,9,-9
1532063491960,1,3,6,3,2,1,5,-5
1532063491965,1,-2,-3,17,5,0,-10,-3
1532063491970,-4,-1,-10,-15,-1,-3,0,4
1532063491975,10,8,10,0,-5,0,6,2
1532063491980,-24,-17,-8,-17,0,0,2,4
1532063491985,2,2,6,32,1,1,-2,-2
1532063491990,-2,0,3,-1,-4,1,23,6
1532063491995,1,-3,-3,11,4,-2,-25,-11
1532063492000,3,3,-4,9,-9,-3,14,-2
1532063492005,-1,1,1,-9,3,-3,-29,1
1532063492010,-2,-3,5,7,7,0,10,-4
1532063492015,-3,-3,-7,-25,-12,-2,0,4
1532063492020,1,-2,-2,2,1,0,1,-5
1532063492025,-5,0,6,-10,-3,-2,3,-3
1532063492030,16,0,0,-9,3,0,-11,2
1532063492035,-5,-1,-4,9,-6,0,11,-1
1532063492040,2,3,2,-8,0,0,-5,-1
1532063492045,12,4,-3,-26,-4,-3,7,6
1532063492050,3,-5,9,14,-9,-2,-3,-4
1532063492055,4,8,2,24,9,1,-7,0
1532063492060,4,-1,-3,16,-2,-2,1,-1
1532063492065,-18,-10,-3,44,2,-2,-10,-10
1532063492070,1,3,-3,-51,-4,-2,6,-1
1532063492075,-5,-5,-8,-8,-4,-2,-7,0
1532063492080,2,3,5,-13,0,3,32,6
1532063492085,6,0,-2,6,1,-2,-39,0
1532063492090,-3,-2,-3,8,0,-2,2,10
1532063492095,-4,0,3,1,7,1,-2,-2
1532063492100,0,-2,-16,-64,-7,-4,-1,2
1532063492105,-3,-5,-6,-40,-15,-1,17,-1
1532063492110,1,0,-2,26,-2,1,-1,-1
1532063492115,9,0,3,-4,0,-3,-27,2
1532063492120,6,11,1,4,1,1,1,0
1532063492125,1,0,3,1,6,1,6,-2
1532063492130,-9,-3,-1,-6,0,0,-8,3
1532063492135,9,1,-4,0,-3,-1,20,2
1532063492140,-8,-6,-7,1,-4,-3,-7,-4
1532063492145,5,-3,3,6,1,0,-10,6
1532063492150,3,11,7,-7,10,3,11,8
1532063492155,-30,-16,-12,-29,-4,-1,-15,-15
1532063492160,24,4,-9,-17,-15,-6,-8,0
1532063492165,-28,-17,12,43,3,-1,3,-4
1532063492170,-4,0,-3,-26,-1,0,8,-1
1532063492175,-1,-3,0,11,-2,-1,9,-2
1532063492180,-4,-2,3,27,9,1,-19,0
1532063492185,9,4,-9,-51,-8,0,13,2
1532063492190,0,-1,5,23,4,0,-15,-10
1532063492195,2,6,2,13,1,-2,8,1
1532063492200,-28,-20,-3,0,-5,-1,-6,2
1532063492205,8,8,7,24,13,2,6,-2
1532063492210,-9,-6,-5,-13,-5,-2,-5,-3
1532063492215,6,1,-1,-16,2,0,-4,1
1532063492220,1,1,-2,2,-7,-1,12,-4
1532063492225,0,2,-2,-11,-4,-2,-16,2
1532063492230,-1,-3,-3,-5,0,0,0,0
1532063492235,4,2,2,-1,4,1,3,-6
1532063492240,0,-1,1,-23,-7,0,2,-2
1532063492245,-14,-2,-5,1,-3,-2,-9,-4
1532063492250,6,6,2,13,-1,0,-4,-3
1532063492255,0,-3,-1,3,3,-2,9,3
1532063492260,3,8,8,-33,14,2,-1,4
1532063492265,0,-3,-6,68,-12,-3,1,-7
1532063492270,-5,-6,-7,31,-3,-1,-13,-5
1532063492275,14,-1,-2,-36,-4,0,10,8
1532063492280,-6,-1,0,-1,0,-2,6,0
1532063492285,15,7,3,9,7,1,9,0
1532063492290,-11,0,2,-7,2,-2,-10,-2
1532063492295,-1,-5,-1,14,0,0,13,-1
1532063492300,0,-1,-1,8,1,0,-15,2
1532063492305,4,0,0,-33,-1,0,10,4
1532063492310,0,-5,-2,7,-4,-2,-2,-3
1532063492315,-10,1,-1,-6,-3,-1,1,0
1532063492320,6,1,6,32,7,0,2,-1
1532063492325,-7,-4,-8,-9,-10,-4,-5,-13
1532063492330,2,-2,-2,-24,0,2,7,-1
1532063492335,-4,-2,-1,15,-1,-3,-22,-4
1532063492340,0,2,3,8,4,0,2,-2
1532063492345,2,1,-1,-13,-1,-3,-5,1
1532063492350,-2,-4,-8,-35,-13,-4,0,-2
1532063492355,-1,0,4,19,7,3,15,0
1532063492360,-2,-1,-1,8,-6,-1,1,0
1532063492365,-6,-7,-5,51,4,-2,-8,1
1532063492370,5,2,6,-11,1,-1,-1,0
1532063492375,-6,-2,-5,-10,14,-2,8,-4
1532063492380,-2,-1,-2,-16,-5,-7,-12,0
1532063492385,-1,-4,-6,-25,-11,5,11,-1
1532063492390,-2,-1,2,5,6,3,-10,-2
1532063492395,0,-1,-1,-3,-16,0,0,2
1532063492400,-1,-1,-4,-16,-2,-3,-1,-3
1532063492405,1,2,2,-14,2,-3,-1,3
1532063492410,0,0,-2,5,-5,-3,-2,-1
1532063492415,-3,-1,-2,-6,-4,2,-1,-1
1532063492420,2,1,4,29,10,3,3,2
1532063492425,-1,0,-9,-52,-7,-2,4,1
1532063492430,-1,-2,0,13,6,-1,-7,-3
1532063492435,0,3,0,4,1,-1,4,-3
1532063492440,-3,-3,5,10,-15,-2,-4,-2
1532063492445,0,1,-1,-10,6,2,1,0
1532063492450,0,1,5,17,-2,-3,1,0
1532063492455,-2,0,-5,12,5,-1,-2,1
1532063492460,-4,-4,-8,-3,-14,-2,-1,1
1532063492465,0,1,4,0,7,-2,-2,2
1532063492470,2,-1,1,20,8,4,10,0
1532063492475,0,3,11,-19,28,1,1,-2
1532063492480,-3,-6,-18,-7,-21,0,-6,1
1532063492485,1,-1,-1,0,-7,-3,4,1
1532063492490,-2,-1,1,1,-4,-2,-11,1
1532063492495,3,2,4,-8,5,1,-2,0
1532063492500,-1,-2,-12,-22,0,-1,3,-4
1532063492505,-2,0,3,2,0,0,-2,0
1532063492510,-1,-1,-5,-7,-2,-2,-1,0
1532063492515,0,0,9,44,-3,-1,-1,1
1532063492520,2,1,3,-4,7,-3,-9,-3
1532063492525,-2,-5,-12,15,-15,-2,-5,0
1532063492530,-2,-2,4,-9,6,1,3,-3
1532063492535,-1,-1,-3,16,-3,0,2,2
1532063492540,0,-1,3,-15,-1,1,-1,-1
1532063492545,3,4,9,-9,6,1,4,-1
1532063492550,-1,2,-1,32,7,1,-4,-1
1532063492555,-3,-8,-17,-19,-21,-3,-2,-2
1532063492560,0,3,15,9,5,-1,11,2
1532063492565,0,-1,0,-21,9,3,-9,-2
1532063492570,-2,0,0,56,0,0,-2,1
1532063492575,-2,-3,-5,-20,-14,-2,-1,-1
1532063492580,0,-1,-4,-2,0,-1,-2,-1
1532063492585,0,-1,7,12,5,-1,3,-1
1532063492590,0,-2,-1,-2,-6,-5,-7,-2
1532063492595,-2,2,6,43,4,1,21,0
1532063492600,-3,-7,-15,-5,-15,-5,3,0
1532063492605,-1,3,1,8,0,-5,-22,-3
1532063492610,-2,0,-3,-27,-4,-1,-4,-5
1532063492615,0,-2,-3,-10,1,0,-6,-4
1532063492620,1,1,11,8,7,1,12,-3
1532063492625,2,0,2,16,5,-1,7,1
1532063492630,-1,0,-3,-23,-7,-2,-4,0
1532063492635,-1,0,-1,-17,-7,0,-2,0
1532063492640,-2,1,3,15,7,3,1,-1
1532063492645,-1,-1,-1,-8,2,0,1,-2
1532063492650,-2,0,2,26,-1,-2,0,0
1532063492655,-1,-2,-4,-2,0,-2,-5,1
1532063492660,0,-2,-5,-16,-8,-3,-6,-2
1532063492665,-1,1,4,11,1,2,7,1
1532063492670,-1,-1,-1,-40,2,1,1,0
1532063492675,-3,-4,-6,14,-14,-4,-8,1
1532063492680,1,0,3,21,9,0,-6,1
1532063492685,0,0,-8,-34,-7,-1,5,0
1532063492690,-1,1,10,-8,3,2,4,-1
1532063492695,0,2,3,0,3,-3,-7,-1
1532063492700,-1,-3,-12,-71,-8,-2,-5,-2
1532063492705,-3,-6,-7,41,-10,-4,-2,1
1532063492710,1,-3,-5,-14,-3,0,-1,-3
1532063492715,0,0,7,9,5,0,11,1
1532063492720,0,1,1,4,3,-1,-25,4
1532063492725,3,4,3,-10,6,2,9,-11
1532063492730,0,-1,-1,37,3,-2,-26,4
1532063492735,0,-4,-10,-44,-8,-2,-2,-4
1532063492740,-2,-2,3,15,-1,1,12,2
1532063492745,-1,-2,-3,-10,-1,0,16,0
1532063492750,1,0,3,23,4,-1,-13,-2
1532063492755,5,4,1,2,8,1,4,0
1532063492760,3,-1,-3,3,-7,-2,2,0
1532063492765,-12,-10,4,4,0,0,2,3
1532063492770,-1,0,-4,-34,2,1,1,-1
1532063492775,-1,-5,-2,33,-9,-3,-5,0
1532063492780,-3,4,-4,6,1,-1,-1,-4
1532063492785,-4,1,10,-3,1,1,-2,1
1532063492790,-1,-1,-4,-6,-1,-2,7,0
1532063492795,-2,-2,-2,-33,-4,0,-5,4
1532063492800,-4,-2,2,45,6,1,-5,-8
1532063492805,8,3,3,3,2,2,10,-4
1532063492810,-5,-2,-5,-21,-6,-3,-12,1
1532063492815,-6,4,7,21,16,2,0,5
1532063492820,10,-3,-7,-47,-16,-4,2,-2
1532063492825,-3,-3,-2,-2,-3,-5,-4,-3
1532063492830,4,1,2,12,-3,-1,12,1
1532063492835,3,1,0,-4,4,2,37,5
1532063492840,-5,-2,-4,-4,-1,-3,-51,-10
1532063492845,6,-3,-3,-28,-6,-4,-11,-1
1532063492850,3,1,0,-10,-2,-1,7,3
1532063492855,-6,-4,-7,-15,-8,-1,-2,-5
1532063492860,7,5,1,22,9,2,16,1
1532063492865,11,0,-6,3,-1,-1,7,16
1532063492870,-6,-3,-3,9,0,0,-2,-17
1532063492875,-5,0,-2,-20,0,-2,-14,1
1532063492880,-1,-1,7,14,12,2,0,2
1532063492885,-2,-1,-8,23,-9,-2,-20,-2
1532063492890,-2,-3,1,-10,-6,1,41,5
1532063492895,1,-3,-2,7,-6,-2,-17,2
1532063492900,-2,2,1,3,1,-2,-8,-5
1532063492905,-4,2,8,31,14,2,17,8
1532063492910,4,6,-4,-34,-5,-1,-4,-3
1532063492915,-19,-16,-5,-27,-6,-3,-8,-10
1532063492920,-8,-5,6,15,5,0,9,10
1532063492925,-3,0,-3,1,-2,2,28,-2
1532063492930,-2,0,2,4,-4,-5,-50,-5
1532063492935,8,4,2,3,11,1,8,4
1532063492940,-2,-2,-8,16,-7,-2,3,-8
1532063492945,-9,-1,11,-7,-4,-2,-9,-7
1532063492950,0,-5,-3,5,-2,1,7,6
1532063492955,8,3,4,0,0,0,-1,0
1532063492960,-4,0,4,15,5,2,6,2
1532063492965,3,1,-4,-11,3,1,-13,-5
1532063492970,1,-1,-7,-30,-1,0,9,4
1532063492975,-1,-2,0,12,-3,-2,-8,-5
1532063492980,4,1,-1,-2,5,1,5,3
1532063492985,-1,-3,-2,3,-7,-1,-13,-6
1532063492990,0,-1,2,-1,5,1,8,-3
1532063492995,1,2,3,52,10,3,44,15
1532063493000,4,1,-14,-51,-24,-5,-38,-8
1532063493005,-11,-10,-5,3,5,-4,-26,-6
1532063493010,5,0,8,32,1,-2,-8,-5
1532063493015,4,4,2,1,-1,1,0,0
1532063493020,-4,-1,6,-9,8,2,18,0
1532063493025,2,1,-6,-15,-5,-1,-5,3
1532063493030,0,1,1,0,-2,0,9,4
1532063493035,-9,-4,-6,11,-4,-4,-22,-9
1532063493040,12,2,8,11,4,0,8,3
1532063493045,-1,0,-6,-19,-4,1,4,-3
1532063493050,-2,0,-2,-2,4,2,5,1
1532063493055,-1,2,3,-27,4,-1,-4,-6
1532063493060,-8,-8,-18,-71,-14,-3,-4,4
1532063493065,4,4,11,46,5,0,8,1
1532063493070,-5,-5,-4,-21,-6,-1,-5,0
1532063493075,0,-1,-11,-12,-11,-3,-10,-3
1532063493080,-3,0,1,-6,4,0,6,0
1532063493085,2,-1,6,36,5,-3,-3,-2
1532063493090,-1,-1,-2,41,4,1,4,3
1532063493095,-1,-2,-1,-21,-8,2,-9,-3
1532063493100,-2,-2,4,18,8,1,1,1
1532063493105,-1,2,-1,-3,-1,0,-4,2
1532063493110,-1,0,2,4,2,-1,5,-1
1532063493115,-2,-4,-10,-27,-12,-5,-5,-3
1532063493120,-3,-1,6,19,0,1,7,-1
1532063493125,2,1,-2,-36,3,-1,-7,-2
1532063493130,-2,-5,-8,0,-2,-3,-4,0
1532063493135,1,0,3,12,3,0,-5,-6
1532063493140,-1,-1,-4,-8,-3,0,7,-1
1532063493145,0,0,-3,-17,1,0,-1,-2
1532063493150,-3,-4,-5,15,-6,-3,-4,0
1532063493155,2,0,7,11,-2,-2,-1,2
1532063493160,-2,-2,1,15,1,-2,-3,-3
1532063493165,0,0,0,-7,0,0,2,0
1532063493170,-2,-3,-7,-50,-12,-2,2,0
1532063493175,0,-1,5,24,4,-1,-2,1
1532063493180,0,0,5,10,7,1,2,-1
1532063493185,0,1,2,7,1,-1,0,1
1532063493190,-3,-4,-10,-31,-9,-2,-1,-1
1532063493195,-2,-2,-1,10,2,1,-1,-1
1532063493200,0,1,-1,9,-3,-2,-6,-2
1532063493205,0,-1,1,-13,4,1,-1,-2
1532063493210,0,1,3,18,2,2,2,-2
1532063493215,-2,-2,-4,-6,-7,0,-5,0
1532063493220,-1,1,4,11,4,-1,-2,-2
1532063493225,-4,-3,-6,7,-4,0,1,-1
1532063493230,1,2,5,38,6,1,-2,-1
1532063493235,1,-1,-1,-29,0,-1,0,-1
1532063493240,-2,0,-1,-50,2,1,-2,-3
1532063493245,0,-1,1,2,-1,-1,-1,-1
1532063493250,1,2,0,20,1,-2,2,0
1532063493255,1,-1,-2,7,0,-2,-3,-2
1532063493260,1,1,0,11,1,0,5,3
1532063493265,0,-1,0,-23,-2,0,-1,0
1532063493270,0,1,2,-3,4,0,-2,1
1532063493275,0,1,-2,-2,0,0,4,-2
1532063493280,-1,-2,0,9,-11,-4,-5,-3
1532063493285,-2,-2,-2,13,0,-2,-3,2
1532063493290,1,1,7,30,3,2,7,-1
1532063493295,-3,-4,-8,47,-6,-3,-9,2
1532063493300,0,-3,-5,7,-4,-2,-1,-2
1532063493305,0,1,-1,-17,-2,-1,4,1
1532063493310,1,0,-1,10,-1,-1,-3,0
1532063493315,0,1,2,-14,6,1,1,-4
1532063493320,-1,0,3,6,3,1,2,-1
1532063493325,-2,-1,-3,2,-5,-1,-2,-3
1532063493330,0,0,-4,-35,-4,-2,-6,-2
1532063493335,0,-1,4,36,5,1,2,3
1532063493340,1,-1,-2,-12,-4,-2,1,1
1532063493345,1,-2,0,0,-3,-1,-1,-2
1532063493350,0,-2,-1,-9,-4,-1,-4,-1
1532063493355,0,1,0,-16,-3,0,-5,-2
1532063493360,-1,0,3,28,5,1,1,-2
1532063493365,3,0,-1,1,1,0,-3,1
1532063493370,-4,-5,-17,-59,-15,-4,-2,-3
1532063493375,0,-1,3,-5,0,0,-1,1
1532063493380,1,0,2,23,3,0,-4,0
1532063493385,-1,-1,-5,-4,5,1,2,0
1532063493390,0,-1,-1,-11,-2,0,-1,-2
1532063493395,-2,-2,1,-14,-3,-2,0,-3
1532063493400,0,-1,-5,-10,-1,2,0,-1
1532063493405,-2,-1,0,2,3,-1,-2,0
1532063493410,-1,-1,5,18,3,0,0,0
1532063493415,-1,-1,-2,1,-1,0,3,-1
1532063493420,0,2,3,5,4,0,-2,2
1532063493425,1,0,-2,-1,-4,1,-2,-4
1532063493430,-1,-3,0,2,-12,-4,-4,-1
1532063493435,-1,1,4,23,10,2,-11,-2
1532063493440,-2,-3,-4,-37,-21,-5,2,-2
1532063493445,1,1,4,5,4,0,-1,0
1532063493450,0,-1,-1,7,0,-2,-7,-2
1532063493455,-1,0,3,-2,1,1,6,0
1532063493460,1,-2,-2,23,3,-4,-3,-1
1532063493465,-1,-2,-1,-28,-5,-2,2,-4
1532063493470,0,0,0,-9,0,0,-4,-3
1532063493475,-2,-2,-9,-10,-6,-3,-2,-2
1532063493480,-2,0,0,7,3,1,0,0
1532063493485,-1,-1,-2,-4,-6,-3,-4,-2
1532063493490,1,-1,0,0,3,-2,1,0
1532063493495,-1,-2,-2,-4,-5,-4,2,0
1532063493500,-1,-1,-1,14,3,1,-6,0
1532063493505,0,-1,1,-9,-4,-1,0,-3
1532063493510,0,-1,1,16,-3,1,1,1
1532063493515,0,0,-1,-6,-2,-1,0,-2
1532063493520,-1,0,-1,-3,3,0,-4,-1
1532063493525,1,-2,-1,-5,5,0,-3,0
1532063493530,-3,-1,-3,2,2,0,2,-1
1532063493535,2,1,1,0,-2,0,3,-1
1532063493540,1,-1,-2,1,0,-1,1,-1
1532063493545,-1,-2,-4,-1,-2,-1,-2,1
1532063493550,0,0,1,3,0,0,0,0
1532063493555,-1,-1,-3,-3,-2,-2,-3,0
1532063493560,-1,-1,1,-5,-1,-1,1,-2
1532063493565,0,-1,-4,6,1,0,1,0
1532063493570,-1,1,5,-11,3,-2,-2,0
1532063493575,1,-1,2,1,-7,-3,1,-1
1532063493580,2,0,-1,2,2,2,2,0
1532063493585,-1,-2,-7,7,-7,-2,1,0
1532063493590,0,0,-4,-11,3,3,0,0
1532063493595,-2,0,-2,-11,9,1,1,0
1532063493600,-1,-4,0,6,-13,-2,2,-1
1532063493605,0,1,3,12,4,0,0,0
1532063493610,0,-1,-4,-12,1,-4,-1,1
1532063493615,2,-1,2,-7,-2,0,-1,-2
1532063493620,-1,1,-3,26,1,-2,1,-1
1532063493625,-1,-3,-5,-38,-4,-3,-4,-1
1532063493630,-1,-2,2,8,-3,1,1,1
1532063493635,-2,2,1,1,3,-1,-1,-1
1532063493640,-2,-2,-1,0,0,-1,-2,1
1532063493645,1,2,1,0,0,-1,2,-4
1532063493650,-1,-3,-3,13,-1,0,2,-1
1532063493655,-1,0,8,-3,-2,-3,-1,1
1532063493660,0,0,2,-9,2,-1,-2,-2
1532063493665,-3,-3,0,7,-4,-1,-5,0
1532063493670,-1,-1,-2,3,4,0,0,-2
1532063493675,-1,-2,-6,-31,-4,-1,3,0
1532063493680,0,0,-3,6,-9,-1,-6,1
1532063493685,-3,0,3,13,0,0,0,-2
1532063493690,0,-1,1,-4,-1,-2,-3,0
1532063493695,0,0,1,17,1,0,1,-2
1532063493700,0,-2,3,-23,7,1,1,-4
1532063493705,-1,-4,-6,13,-5,-1,-5,2
1532063493710,1,1,0,4,-1,-1,0,-2
1532063493715,0,-1,-9,-1,-2,-3,-1,1
1532063493720,-2,-1,2,4,2,-1,1,-1
1532063493725,0,-1,-4,3,0,-1,-3,-2
1532063493730,-1,1,12,6,3,0,1,-2
1532063493735,-2,-4,-4,3,-5,-3,-5,-2
1532063493740,-2,-1,-2,-5,-6,-3,4,-2
1532063493745,0,0,-2,-20,-2,0,3,1
1532063493750,0,0,-1,-11,-2,-1,-5,-3
1532063493755,1,2,6,32,2,1,-2,1
1532063493760,0,-1,0,7,2,-1,-3,-4
1532063493765,0,1,-1,-26,1,-1,-6,0
1532063493770,-3,-3,-4,8,-5,-4,2,0
1532063493775,1,2,1,-7,1,0,-2,-1
1532063493780,1,-1,-1,-5,1,-1,2,1
1532063493785,1,-2,0,2,0,-1,-1,-1
1532063493790,0,0,-3,10,-1,0,-1,0
1532063493795,-1,-2,-5,-3,-2,-2,-3,-1
1532063493800,0,-1,-2,-14,-3,-2,-5,0
1532063493805,1,-1,3,5,2,0,-2,-1
1532063493810,0,-2,-5,-11,-1,-2,2,-3
1532063493815,-3,-4,1,51,5,0,2,0
1532063493820,0,0,-10,-94,-6,-1,-2,-1
1532063493825,-3,-2,-1,9,-7,-3,-3,-1
1532063493830,-3,-4,-4,2,-7,-2,-8,-2
1532063493835,2,2,3,-12,8,0,-5,-2
1532063493840,0,-2,-3,25,0,-2,3,-1
1532063493845,-2,-2,-3,-13,-6,-1,1,0
1532063493850,-2,-1,-3,-8,-3,0,0,-1
1532063493855,-1,0,-1,-10,0,2,0,0
1532063493860,1,0,5,14,1,-1,-3,1
1532063493865,-1,0,1,-11,1,0,-2,-2
1532063493870,0,-1,0,17,-3,0,-6,-1
1532063493875,-2,0,1,14,2,0,4,-1
1532063493880,-1,-1,-3,-59,-5,0,0,-1
1532063493885,-2,-5,-7,37,-12,-4,-1,-1
1532063493890,0,-2,-4,-3,2,-1,-2,1
1532063493895,-2,-1,7,-5,-4,-1,-3,-2
1532063493900,-1,1,1,18,2,1,1,-1
1532063493905,-1,2,5,0,7,0,2,-1
1532063493910,-1,-1,-3,-7,-1,0,0,-1
1532063493915,1,-2,-5,-11,-7,-1,0,-3
1532063493920,0,-1,3,34,5,1,0,-1
1532063493925,-1,1,-1,-16,-2,1,-2,-3
1532063493930,-1,2,4,37,8,0,-1,-2
1532063493935,-3,-6,-12,-80,-13,-3,1,0
1532063493940,-2,-2,-1,8,-1,-2,-1,-1
1532063493945,0,0,-1,-10,-2,0,0,-2
1532063493950,0,-2,-4,-4,-7,-3,2,-1
1532063493955,-1,-2,-1,9,1,0,-4,0
1532063493960,-2,-1,0,7,0,-1,0,0
1532063493965,-1,1,5,6,2,0,2,-1
1532063493970,-2,-3,-6,-2,-1,-2,-2,0
1532063493975,0,0,1,-14,-1,1,3,3
1532063493980,-4,-2,-4,15,-1,0,-5,-1
1532063493985,0,-1,-1,-24,2,-1,-2,-1
1532063493990,0,2,3,-21,-3,-1,1,1
1532063493995,-1,-1,-4,4,-8,-2,-1,-1
1532063494000,-1,-1,-2,19,0,0,-1,-1
1532063494005,0,-1,-1,-2,2,-1,1,0
1532063494010,1,-1,-1,-3,1,0,1,-2
1532063494015,-1,0,0,-2,2,1,-1,-2
1532063494020,0,0,2,7,0,0,3,3
1532063494025,-1,0,-2,12,-1,-1,-2,-1
1532063494030,0,-1,1,-9,-4,-2,-1,-1
1532063494035,1,1,2,28,1,-1,-1,-2
1532063494040,0,-1,-1,5,1,1,-4,-1
1532063494045,0,-1,-7,-6,-2,-2,1,1
1532063494050,-3,-1,0,16,-6,-2,-6,2
1532063494055,0,-1,-3,-5,-7,-2,-1,-3
1532063494060,-1,-1,1,2,-1,-3,1,0
1532063494065,0,2,3,13,3,0,0,-1
1532063494070,0,1,1,0,3,-1,1,-1
1532063494075,-1,-3,-5,-3,0,-1,-3,1
1532063494080,-1,0,-3,-8,-2,1,5,-1
1532063494085,-1,-3,-3,10,-4,-3,0,-1
1532063494090,-1,0,3,-3,0,1,-2,0
1532063494095,-2,-2,-3,-6,2,-2,0,0
1532063494100,0,-1,-1,-8,-2,0,-3,-3
1532063494105,-2,-1,4,8,3,-1,-4,2
1532063494110,1,1,-1,-11,2,2,7,-2
1532063494115,-2,-2,-5,-20,-7,-2,-1,-5
1532063494120,1,1,4,15,4,-1,-2,-1
1532063494125,1,-2,-5,-26,-5,-1,0,-1
1532063494130,0,-2,-2,6,3,-1,1,0
1532063494135,-2,1,2,9,7,1,-3,0
1532063494140,-1,-2,-2,-21,-8,-1,3,-2
1532063494145,-1,0,-1,21,2,0,0,-1
1532063494150,-2,-3,-1,-8,-4,-2,-6,-2
1532063494155,0,-1,1,-4,-1,0,4,1
1532063494160,0,1,-2,-2,0,0,-3,-1
1532063494165,0,0,3,-4,4,-3,0,1
1532063494170,-1,-2,0,12,1,1,0,0
1532063494175,0,0,1,25,-1,-4,-5,-1
1532063494180,-1,-1,1,12,0,0,-4,-3
1532063494185,1,0,0,-11,1,0,1,-1
1532063494190,0,-4,1,10,-2,-3,0,2
1532063494195,-1,-2,-2,6,-5,-2,-3,-4
1532063494200,-3,-5,-5,-13,-6,-2,-2,-5
1532063494205,0,0,-1,-11,-2,1,-2,-2
1532063494210,-2,1,-1,15,-3,-1,1,-2
1532063494215,1,0,1,-1,2,-2,5,2
1532063494220,-2,-4,-2,14,-3,-2,-6,-2
1532063494225,-2,-2,-1,-8,-1,1,1,-1
1532063494230,-1,0,-3,-1,-3,-2,1,-1
1532063494235,0,-1,0,-1,-2,1,-4,-1
1532063494240,-2,-1,-2,-8,1,-2,-4,1
1532063494245,1,2,6,42,10,3,5,1
1532063494250,-2,-3,-12,-65,-10,-2,-4,-1
1532063494255,-1,0,-1,1,1,-1,-1,1
1532063494260,-1,0,1,4,2,0,1,-2
1532063494265,0,-3,2,21,0,-1,-1,-1
1532063494270,0,4,7,-1,9,2,-1,1
1532063494275,-4,-6,-7,3,-13,-4,-3,-5
1532063494280,-1,-1,-4,-3,3,1,1,0
1532063494285,-3,-1,2,-6,-3,-1,5,-1
1532063494290,-1,-2,-3,-9,-3,-1,-6,-4
1532063494295,2,1,3,-1,7,-1,4,1
1532063494300,-1,0,0,19,0,1,0,0
1532063494305,-2,-2,-9,-14,-7,-2,-4,-1
1532063494310,-1,0,-2,12,2,-2,-1,-1
1532063494315,1,1,2,3,2,-1,0,-1
1532063494320,0,-1,1,1,-1,-1,0,-1
1532063494325,-1,-1,-1,-12,-4,-1,-3,0
1532063494330,1,-1,4,-2,-1,1,-2,-2
1532063494335,0,1,1,-12,7,1,0,3
1532063494340,-1,-4,-8,-17,-15,-3,0,-2
1532063494345,1,1,1,-2,-3,-1,-3,0
1532063494350,0,-1,2,13,1,-1,4,0
1532063494355,-1,0,3,-12,2,0,1,-2
1532063494360,1,1,3,13,6,-2,-1,-1
1532063494365,-2,-3,-5,-16,-10,-2,-1,0
1532063494370,-1,-3,-5,-1,0,0,-1,-1
1532063494375,-1,0,-2,0,3,0,-1,0
1532063494380,0,0,1,4,2,-2,1,-1
1532063494385,-2,-1,-2,3,-3,-2,-5,-3
1532063494390,0,-1,4,-6,6,0,1,0
1532063494395,-1,1,2,7,-3,-1,-2,-1
1532063494400,-3,-2,-7,-11,-4,-2,0,0
1532063494405,-1,-2,1,-15,4,0,0,0
1532063494410,1,1,-4,5,-5,-2,-1,0
1532063494415,0,-3,0,17,3,0,-1,-4
1532063494420,1,2,6,-18,2,-1,-1,0
1532063494425,0,-4,-8,-25,-7,-3,-5,0
1532063494430,-1,0,3,14,2,0,6,-2
1532063494435,-2,-2,-2,0,0,1,-1,1
1532063494440,0,-2,2,7,2,1,0,0
1532063494445,-1,0,0,-9,4,0,-3,-1
1532063494450,-1,-1,2,6,2,0,0,0
1532063494455,0,-1,-1,2,-4,-2,-2,-1
1532063494460,0,-2,-5,-11,-2,-2,-1,-1
1532063494465,2,1,4,11,1,0,2,1
1532063494470,-1,0,1,-6,4,0,-3,-2
1532063494475,-2,0,-6,-21,-5,-1,-4,1
1532063494480,-2,-3,-4,-18,-7,-4,-1,-2
1532063494485,-2,-2,-7,6,0,1,0,-1
1532063494490,-1,0,7,10,-2,0,1,-1
1532063494495,-1,1,-5,-10,1,-1,-10,-1
1532063494500,-1,1,-2,-13,4,2,4,1
1532063494505,0,1,0,7,-6,-2,-6,-2
1532063494510,-2,0,-3,-3,1,0,-1,-1
1532063494515,-1,-1,2,10,-1,-3,-1,-1
1532063494520,0,-1,-3,-3,-6,-2,2,-1
1532063494525,-1,-1,1,2,3,1,2,-1
1532063494530,0,0,-3,-12,-5,-1,-2,-1
1532063494535,1,1,3,28,1,1,1,1
1532063494540,-1,-1,-5,-22,-2,1,-4,0
1532063494545,0,1,6,23,6,0,4,-2
1532063494550,-4,-4,-9,-42,-8,-3,-5,-2
1532063494555,0,-2,-1,14,-2,-3,3,0
1532063494560,-3,0,2,19,0,0,-3,-1
1532063494565,-1,0,-1,2,3,0,-1,-1
1532063494570,1,1,1,-5,-2,0,-2,0
1532063494575,1,-1,-2,9,2,-1,2,-2
1532063494580,-1,1,-1,1,1,2,-5,-2
1532063494585,-1,1,0,-6,-1,-2,3,-1
1532063494590,-1,1,0,14,1,-1,-7,-1
1532063494595,-2,0,0,-8,-2,1,4,0
1532063494600,0,-1,4,31,1,-2,-6,-1
1532063494605,0,-1,-6,-56,-7,-2,1,0
1532063494610,1,-1,1,2,-2,0,-3,-1
1532063494615,0,0,1,-4,4,2,4,0
1532063494620,-1,-3,-6,1,-3,1,-3,0
1532063494625,-2,-1,8,23,0,-1,-2,0
1532063494630,0,-3,-1,11,-3,-4,4,-2
1532063494635,-1,-1,-2,-29,-4,-1,-2,-2
1532063494640,-1,0,2,1,5,-2,1,-1
1532063494645,-1,-2,-4,2,-1,-2,0,-1
1532063494650,0,1,0,18,1,1,2,0
1532063494655,0,-2,-2,-6,2,2,-2,-1
1532063494660,0,-1,1,-22,-5,-2,0,0
1532063494665,-2,-2,0,5,-3,-2,-3,-1
1532063494670,0,-1,1,2,0,-2,-2,-2
1532063494675,1,0,1,-3,2,-1,1,-2
1532063494680,0,0,0,1,3,0,0,0
1532063494685,-1,0,-3,-14,-5,0,5,0
1532063494690,-2,0,-1,-3,6,0,1,-1
1532063494695,0,-1,-4,16,-5,-3,-2,-4
1532063494700,-2,-3,-4,-17,-3,-1,-1,-1
1532063494705,0,0,4,29,4,0,-6,1
1532063494710,-1,1,-1,-14,1,2,1,1
1532063494715,0,-2,2,31,-2,-3,-2,-3
1532063494720,-2,0,-4,-30,-4,0,-1,-2
1532063494725,0,-2,0,17,1,0,0,1
1532063494730,0,-1,2,6,-2,-1,-1,-2
1532063494735,-1,-2,-2,-16,-2,-2,-2,1
1532063494740,2,2,5,25,9,-1,2,0
1532063494745,0,-1,-5,-17,-7,-3,-3,-2
1532063494750,-1,-2,2,-10,-1,-2,-1,0
1532063494755,-1,-1,2,7,0,1,1,-1
1532063494760,0,-1,2,26,1,-1,-2,-1
1532063494765,-2,-1,-4,-33,0,0,1,1
1532063494770,0,-2,-2,14,-5,-3,0,-2
1532063494775,-1,-3,-6,-37,-8,-4,-3,-1
1532063494780,-1,0,2,18,-1,0,-2,0
1532063494785,0,0,3,8,2,0,-3,-1
1532063494790,-1,-1,-7,-10,-4,-1,-3,-1
1532063494795,-1,-2,2,10,-2,-2,0,-1
1532063494800,-1,-1,-3,1,0,-1,1,0
1532063494805,-1,-2,0,22,0,0,-1,-3
1532063494810,0,-1,-1,-2,3,1,0,-1
1532063494815,0,2,-1,-19,1,0,-1,1
1532063494820,-1,-4,-5,-11,-11,-3,0,1
1532063494825,0,0,0,-5,3,0,-2,-1
1532063494830,0,-1,0,23,1,0,-1,-1
1532063494835,-1,-2,-6,-46,-3,1,0,-2
1532063494840,0,1,1,9,-3,-2,1,-2
1532063494845,0,-3,-2,-11,-2,-2,-1,-2
1532063494850,0,-1,-5,0,1,-1,1,1
1532063494855,-1,-1,1,34,-5,-2,-1,-2
1532063494860,-1,0,3,-3,6,3,1,0
1532063494865,1,-1,-2,-5,-6,-1,1,-2
1532063494870,0,0,3,7,4,0,-2,-1
1532063494875,-2,-1,0,9,1,-2,-5,2
1532063494880,0,1,1,-9,-1,-1,-2,-3
1532063494885,-2,0,0,17,4,0,0,-1
1532063494890,-1,-2,-6,-26,-6,0,0,-2
1532063494895,-1,-1,-1,-3,-6,-1,-2,0
1532063494900,-1,-2,2,-15,3,-1,1,1
1532063494905,1,0,-1,17,9,0,0,0
1532063494910,-3,-1,-5,-5,-14,-1,-2,-1
1532063494915,-2,-4,3,18,1,-2,-1,-2
1532063494920,-1,-2,-2,-32,-20,-4,-1,-2
1532063494925,0,1,-4,-14,4,3,2,-1
1532063494930,-1,0,4,23,9,-5,1,-1
1532063494935,-1,-1,2,19,-11,-3,-2,0
1532063494940,0,-1,0,11,11,-1,-2,0
1532063494945,-1,-1,0,-9,-4,-1,-1,-2
1532063494950,1,-2,-2,-14,5,0,-1,-1
1532063494955,0,-2,-1,-16,2,-1,2,-1
1532063494960,-3,0,2,20,2,0,0,-1
1532063494965,1,0,-1,-27,-1,-2,-2,0
1532063494970,-2,-2,-1,15,-8,-2,0,0
1532063494975,0,-1,-1,-8,7,2,2,-3
1532063494980,-1,-2,0,4,-2,-1,0,-1
1532063494985,-2,-2,1,-4,2,-2,-1,-2
1532063494990,-2,-2,-2,10,-5,-1,-1,1
1532063494995,0,0,-1,-5,-2,2,-1,0
1532063495000,-1,0,-1,3,0,-1,-1,0
1532063495005,-2,-3,-1,15,-3,-3,-3,0
1532063495010,-1,0,1,-2,9,2,0,1
1532063495015,-2,-3,-8,-23,-19,-2,-2,0
1532063495020,0,-3,0,7,-4,-2,-1,-3
1532063495025,-1,-1,1,18,0,-1,-3,2
1532063495030,2,-1,-3,-17,0,-1,0,-4
1532063495035,-1,1,1,17,17,1,1,0
1532063495040,0,0,1,-17,-12,-1,0,1
1532063495045,-2,-3,-3,1,-10,0,0,-2
1532063495050,-1,0,4,12,7,0,-1,0
1532063495055,-1,-1,-7,-52,-10,-1,1,1
1532063495060,1,-2,3,22,8,1,0,1
1532063495065,-1,0,-1,4,0,-1,-2,-1
1532063495070,0,-1,-2,-10,-2,-1,0,1
1532063495075,-1,0,2,18,14,0,2,-1
1532063495080,-1,-2,-3,-6,-8,-1,-2,-2
1532063495085,-1,0,-1,-5,4,0,-1,1
1532063495090,1,1,2,-10,-10,0,-1,-1
1532063495095,0,0,-3,8,2,-2,-1,-1
1532063495100,-1,-2,-2,2,7,0,-1,-2
1532063495105,1,0,2,6,0,0,0,-1
1532063495110,0,-2,-1,-14,0,0,-1,0
1532063495115,-1,0,4,-6,0,0,0,0
1532063495120,-3,-4,-5,17,-7,-3,-3,-2
1532063495125,0,0,3,7,1,-1,-3,-1
1532063495130,-2,-1,-3,-9,-5,-2,-3,-1
1532063495135,0,-1,0,-4,2,0,-1,0
1532063495140,1,2,4,15,19,1,4,-1
1532063495145,-4,-1,-4,-12,-21,-4,-2,1
1532063495150,-1,-2,1,2,-2,1,-1,-1
1532063495155,-1,0,-1,7,-1,-2,-1,0
1532063495160,1,0,1,-9,11,1,-1,1
1532063495165,-1,-2,-6,-47,-11,-3,2,-3
1532063495170,0,0,-2,-4,-3,-1,1,0
1532063495175,-3,0,-1,24,-2,0,-2,-1
1532063495180,1,0,-2,-3,7,0,-1,-1
1532063495185,-3,-3,-5,-33,-11,-1,-1,-1
1532063495190,0,-1,-4,1,2,-3,0,0
1532063495195,-1,-3,-1,15,-4,-2,-1,-2
1532063495200,-1,-1,-2,-4,-3,0,-2,0
1532063495205,0,0,1,20,6,0,-1,0
1532063495210,-3,0,-2,-1,3,-2,-1,-1
1532063495215,0,-1,0,2,-3,-2,-1,-1
1532063495220,0,0,-2,-8,-4,1,0,-1
1532063495225,0,0,1,6,2,0,1,-1
1532063495230,0,0,6,2,1,1,-1,-1
1532063495235,0,0,-5,25,1,0,0,-1
1532063495240,-1,0,3,-2,-6,-3,1,-1
1532063495245,-1,0,-1,5,5,-1,-1,0
1532063495250,-1,-2,0,11,1,-2,-1,-3
1532063495255,-2,-1,2,-1,-2,-1,-2,0
1532063495260,0,0,-1,-11,-5,-1,0,0
1532063495265,-2,-3,-6,6,-7,-2,0,-2
1532063495270,-3,-2,-1,12,1,-2,-3,0
1532063495275,-2,-1,0,-13,-2,-1,-3,-2
1532063495280,-2,0,-4,-1,-2,0,-1,-1
1532063495285,1,-1,2,5,7,1,-1,1
1532063495290,-1,-3,-3,-6,-10,0,1,-2
1532063495295,-1,0,-2,-17,-2,-1,0,-1
1532063495300,-2,-3,-5,-8,-5,-1,-1,-1
1532063495305,-1,1,2,14,7,-2,-2,-2
1532063495310,0,-1,1,10,4,-1,2,-3
1532063495315,1,-1,-1,-13,-8,-4,-1,0
1532063495320,-2,-4,-10,-13,1,-2,-3,0
1532063495325,-1,-1,1,-10,-4,-2,0,-1
1532063495330,-1,-1,-1,-5,-4,-2,-1,-1
1532063495335,-1,0,2,5,0,-1,0,0
1532063495340,1,1,1,1,0,0,-2,1
1532063495345,0,-1,-3,10,-2,-1,-2,0
1532063495350,-2,-1,-2,-9,0,1,-1,-1
1532063495355,-2,1,4,2,10,2,-2,-1
1532063495360,-2,-1,4,11,7,0,0,0
1532063495365,0,2,2,-5,3,0,1,-2
1532063495370,0,-1,1,-7,1,1,1,-3
1532063495375,0,-1,3,14,3,0,-1,0
1532063495380,-2,-2,-6,1,0,-2,-3,1
1532063495385,-1,-1,1,-4,0,-1,0,-1
1532063495390,-1,-3,-6,-22,-13,-2,-1,0
1532063495395,0,2,3,16,6,0,0,-1
1532063495400,0,-1,-2,-17,-1,-2,1,-1
1532063495405,-2,0,0,3,0,-1,-1,0
1532063495410,-1,-2,-2,14,-2,-1,-2,-1
1532063495415,-3,0,-1,-3,0,0,-1,0
1532063495420,-1,1,1,-4,-6,-2,-1,-1
1532063495425,0,0,-1,-5,0,-2,-2,-1
1532063495430,0,0,2,-4,1,1,1,-2
1532063495435,-1,-2,-3,-15,-3,-1,-1,-1
1532063495440,0,1,4,20,4,1,-1,1
1532063495445,-2,-3,-7,-20,-5,-2,-2,0
1532063495450,-1,0,-1,-12,-3,-2,-3,-1
1532063495455,-1,0,2,13,7,0,-1,1
1532063495460,-1,-1,-3,-8,-2,-2,-1,1
1532063495465,0,1,2,7,4,2,1,-2
1532063495470,1,2,6,-11,11,2,1,0
1532063495475,-2,-6,-15,-35,-30,-5,-2,-4
1532063495480,-6,-4,1,30,2,-1,-4,0
1532063495485,1,0,0,0,0,0,-1,0
1532063495490,0,1,4,15,5,-2,0,-1
1532063495495,1,1,6,17,9,1,-2,1
1532063495500,1,0,-3,-22,-4,1,-1,-2
1532063495505,-2,-1,-2,-2,-3,-1,-1,0
1532063495510,-2,1,1,8,0,-1,0,-1
1532063495515,0,0,1,1,8,1,0,-2
1532063495520,-2,-4,-3,-15,-16,-3,-2,-2
1532063495525,-1,0,2,8,4,0,0,-1
1532063495530,0,-1,-3,-18,-2,-1,0,-2
1532063495535,0,1,1,14,4,-1,0,0
1532063495540,-2,-4,-5,14,-9,-2,-2,-2
1532063495545,0,1,1,-18,-1,0,1,0
1532063495550,-3,-4,0,11,-11,-4,-2,0
1532063495555,-2,-1,-1,-8,0,-1,-2,-1
1532063495560,1,3,3,12,10,0,-1,-1
1532063495565,1,-3,-3,-1,-1,-1,-1,-1
1532063495570,0,1,-1,1,2,-1,-1,-1
1532063495575,0,0,-5,-9,-7,0,-1,1
1532063495580,-1,1,3,4,0,0,0,0
1532063495585,-1,-1,-1,-3,-2,-2,1,1
1532063495590,-1,-2,-1,-6,5,2,0,0
1532063495595,2,2,4,-8,-7,-1,2,-3
1532063495600,-2,-2,-5,4,-3,-1,-4,1
1532063495605,-1,-2,2,19,0,-2,-3,1
1532063495610,0,-1,-3,-7,-3,-1,-1,-1
1532063495615,0,1,-1,5,5,0,0,-2
1532063495620,1,1,7,15,8,2,2,-1
1532063495625,-1,-2,-7,-22,-5,-4,-1,0
1532063495630,0,-1,0,5,-4,-2,0,0
1532063495635,-1,-3,0,-2,-2,-1,-1,0
1532063495640,0,0,2,-13,3,0,0,0
1532063495645,0,0,-2,25,3,0,0,-1
1532063495650,-1,-1,-3,-10,-11,-1,0,-3
1532063495655,0,-2,-1,-5,-1,0,-2,0
1532063495660,1,0,-1,-8,1,-1,-1,-1
1532063495665,-1,0,1,2,2,1,-2,-1
1532063495670,-1,1,1,11,4,0,-1,0
1532063495675,-3,-3,-5,-4,-2,0,-2,0
1532063495680,-2,-2,-7,-3,-3,0,0,-1
1532063495685,-2,0,1,3,3,0,1,-1
1532063495690,0,-1,-2,4,-2,0,2,-1
1532063495695,-1,0,1,-13,1,0,-2,0
1532063495700,2,1,2,12,9,0,-1,0
1532063495705,-1,-2,-9,-41,-20,-2,-2,-2
1532063495710,-1,0,2,12,5,0,-2,0
1532063495715,-1,1,2,6,-2,0,1,-2
1532063495720,-1,-2,-1,18,2,1,-1,-1
1532063495725,0,2,2,-20,1,0,1,0
1532063495730,-1,-2,-1,-9,-1,0,-4,-1
1532063495735,0,1,1,2,1,-1,-2,0
1532063495740,0,-1,-5,-10,-1,-2,-2,-1
1532063495745,-1,0,4,14,3,0,-2,-2
1532063495750,0,-1,-7,-15,-3,-1,-2,-1
1532063495755,-1,1,4,-1,4,-2,1,0
1532063495760,-3,-3,-8,-23,-10,-2,-1,-1
1532063495765,1,-1,0,6,1,0,-2,1
1532063495770,2,2,6,-1,6,2,1,-1
1532063495775,-2,0,-1,19,6,0,0,-1
1532063495780,2,0,2,-2,-10,-1,0,0
1532063495785,-2,-4,-4,2,-3,-4,-2,0
1532063495790,-1,-1,-1,5,-5,-2,-1,0
1532063495795,0,-1,3,26,9,1,-2,0
1532063495800,0,1,3,-4,4,-1,1,-2
1532063495805,0,-1,-5,1,-2,0,-2,1
1532063495810,-1,-2,-1,-5,-3,-3,-1,0
1532063495815,0,-2,0,-8,-2,-1,-1,-2
1532063495820,-1,-1,0,12,1,-2,0,0
1532063495825,-2,-1,-1,-13,1,0,0,0
1532063495830,-1,-1,1,4,0,-1,1,0
1532063495835,-2,0,-2,-4,-2,-2,-1,-1
1532063495840,0,0,4,19,5,-1,-1,-1
1532063495845,-2,-2,-3,-12,-4,-1,0,-2
1532063495850,-1,-1,0,3,-3,-1,0,-2
1532063495855,1,-2,1,-6,-4,-2,0,1
1532063495860,0,0,2,11,7,0,-1,0
1532063495865,-1,1,0,-3,-2,0,0,-1
1532063495870,-1,-1,0,-16,-9,-1,-1,-1
1532063495875,0,-1,-2,-3,-1,0,-1,-1
1532063495880,-1,-2,-6,-7,-1,-1,1,-1
1532063495885,0,-2,0,30,-2,-2,0,-1
1532063495890,-1,-1,-2,-8,3,-1,-2,-1
1532063495895,0,0,1,0,-2,0,-1,-1
1532063495900,-2,-1,0,-10,0,0,0,-2
1532063495905,-1,0,-2,-9,-5,-2,-1,-3
1532063495910,-3,-6,-11,-5,-9,-3,-3,-2
1532063495915,-1,2,3,13,4,-1,-2,0
1532063495920,1,-2,1,-7,3,1,0,0
1532063495925,1,1,2,10,2,1,0,-3
1532063495930,-1,-1,-1,1,-7,0,-1,-3
1532063495935,0,-1,-2,-7,-3,-2,0,-2
1532063495940,-1,-2,-3,-8,-5,-2,0,-1
1532063495945,0,1,0,5,7,0,0,0
1532063495950,2,2,4,6,5,0,0,-1
1532063495955,-2,-2,-3,1,-3,-1,-3,-1
1532063495960,-3,-2,-5,18,-6,-3,-3,-1
1532063495965,0,-3,-7,-31,-4,-2,-2,0
1532063495970,1,1,4,6,4,-1,-1,-1
1532063495975,0,-3,-6,-11,-2,-1,0,1
1532063495980,-1,1,0,-22,-1,0,-1,0
1532063495985,-2,-1,1,33,-2,1,-2,-1
1532063495990,-1,0,2,-2,7,2,1,1
1532063495995,-2,-3,-6,-9,-13,-1,0,-2
1532063496000,-2,-1,-3,-7,-4,-2,0,0
1532063496005,-1,1,3,-10,3,0,1,0
1532063496010,-2,0,0,11,4,0,-1,1
1532063496015,0,0,3,0,-4,0,-2,-1
1532063496020,1,-2,-5,-8,1,0,-1,-1
1532063496025,0,-4,-1,-28,-7,-1,-2,-2
1532063496030,-1,0,2,12,3,1,0,-1
1532063496035,-2,-1,-2,-8,2,-1,0,-1
1532063496040,-3,-3,-8,-22,-2,-1,-2,-1
1532063496045,1,0,3,3,2,0,2,-1
1532063496050,0,-3,-2,-11,-4,-3,-1,-1
1532063496055,0,3,2,12,3,0,1,-2
1532063496060,-3,-2,1,1,-5,-2,-5,-1
1532063496065,0,1,-2,5,0,-1,0,2
1532063496070,-1,-2,-1,-13,2,0,1,0
1532063496075,0,-1,3,15,-2,-1,1,-2
1532063496080,0,0,-2,-16,1,-1,2,-1
1532063496085,-2,-3,-3,9,2,0,-2,0
1532063496090,0,0,-2,-9,-5,-1,-1,0
1532063496095,-1,0,-3,-22,0,-2,-2,0
1532063496100,0,-2,-3,15,1,0,0,-2
1532063496105,0,-2,1,-8,-6,-1,-1,-2
1532063496110,1,-1,1,5,4,0,0,-1
1532063496115,-1,-2,-6,1,1,-1,0,0
1532063496120,-1,-1,0,1,-8,-3,0,-3
1532063496125,-3,-3,-1,2,4,-3,-1,-1
1532063496130,2,-1,0,12,-1,0,-2,-1
1532063496135,-2,0,2,-6,5,-1,1,0
1532063496140,-2,-3,-2,6,-7,-4,-4,2
1532063496145,0,0,1,-5,-2,1,1,0
1532063496150,-2,0,0,27,9,-2,-2,-1
1532063496155,-1,-3,-9,-62,-12,0,0,-1
1532063496160,2,1,1,-3,7,3,1,1
1532063496165,0,-1,1,25,1,-1,-1,-2
1532063496170,-3,-3,-3,-16,-11,-2,-4,0
1532063496175,-1,-1,0,23,6,-1,-3,0
1532063496180,1,-2,-4,1,-3,0,2,-2
1532063496185,0,0,2,-13,-3,2,-1,-1
1532063496190,-1,0,-2,6,-2,-1,2,-2
1532063496195,-2,-2,3,23,1,-2,-1,0
1532063496200,1,1,1,1,8,1,0,0
1532063496205,-1,-3,-9,-23,-5,-1,-2,-1
1532063496210,0,-1,-3,-39,-17,-2,-3,-5
1532063496215,-1,-1,1,16,1,0,0,-1
1532063496220,0,-1,2,2,1,-2,0,-1
1532063496225,-2,-1,-2,11,5,-1,-5,-2
1532063496230,-1,1,-1,-15,2,1,1,1
1532063496235,0,-2,0,21,-1,-1,-2,-1
1532063496240,-1,1,-3,-17,-6,-1,7,1
1532063496245,-2,0,0,21,2,-4,-20,-1
1532063496250,0,0,-2,-16,1,0,2,0
1532063496255,-4,1,-1,10,3,0,-3,0
1532063496260,1,0,5,-6,1,0,2,-1
1532063496265,2,0,0,-13,-6,-2,4,2
1532063496270,-1,-3,-4,-24,-7,-3,-3,-3
1532063496275,1,-1,-4,2,5,0,2,1
1532063496280,-2,-3,-3,2,-1,-2,-2,-1
1532063496285,-1,0,5,-14,-6,-2,3,-1
1532063496290,0,2,2,27,8,2,-2,0
1532063496295,-1,0,1,-17,-3,0,1,-2
1532063496300,-1,-1,1,0,-2,-2,-4,-2
1532063496305,0,0,1,9,2,1,3,0
1532063496310,-1,0,-1,-22,-4,-2,1,-1
1532063496315,-1,0,0,-13,2,0,-2,-1
1532063496320,-2,-1,-2,2,-6,-1,-6,0
1532063496325,-2,-4,-4,0,-2,0,6,0
1532063496330,-2,-1,3,14,4,-1,-2,1
1532063496335,-1,-2,-3,-10,-7,-2,0,-2
1532063496340,-2,-1,1,14,0,-2,-3,-2
1532063496345,-2,-1,0,10,-1,-1,2,-1
1532063496350,0,-1,-6,-18,-2,1,-1,-1
1532063496355,2,1,6,10,3,0,-2,-1
1532063496360,0,0,-2,13,1,1,0,0
1532063496365,-1,-2,-5,-6,-5,-1,0,-1
1532063496370,1,-1,-1,-2,-1,0,3,-3
1532063496375,-2,-1,-1,21,-3,-2,-3,-1
1532063496380,1,2,4,9,3,1,-1,-2
1532063496385,-1,0,-1,-11,1,0,0,-1
1532063496390,-1,0,-1,26,4,0,-5,-2
1532063496395,-2,-4,-7,-44,-15,-3,-1,-3
1532063496400,-1,-1,0,-8,1,0,0,-3
1532063496405,-1,1,0,1,4,0,0,-2
1532063496410,1,-1,0,21,4,0,-1,0
1532063496415,1,0,2,3,-1,-2,3,-3
1532063496420,-2,-2,-5,-19,-6,-2,-3,-2
1532063496425,1,0,2,8,3,-1,-6,-1
1532063496430,-2,-1,-3,-18,-1,-2,3,1
1532063496435,-1,0,2,11,6,1,-3,-2
1532063496440,-2,1,2,-2,-4,-1,-1,-2
1532063496445,-2,0,1,-8,-2,-3,0,-2
1532063496450,-2,-5,-1,29,-6,0,-1,-1
1532063496455,0,0,0,-4,5,0,1,-1
1532063496460,-1,0,1,10,3,0,0,3
1532063496465,-2,-1,-2,-6,2,0,-2,-1
1532063496470,-1,-1,-2,-20,-2,-1,-1,-1
1532063496475,-3,-1,0,18,-3,-1,-1,0
1532063496480,1,-1,1,-4,0,0,0,-1
1532063496485,0,-1,-3,8,-1,-1,1,0
1532063496490,-1,-1,0,-8,-4,-2,-2,0
1532063496495,0,-1,2,6,6,3,0,1
1532063496500,-1,1,0,-10,-2,-1,-2,1
1532063496505,0,-1,-5,-7,-3,-1,1,-1
1532063496510,0,0,0,3,4,1,-2,1
1532063496515,0,-1,-3,-9,-1,-3,-3,0
1532063496520,-1,-2,-1,8,0,-1,-1,-1
1532063496525,1,2,8,-14,-7,-1,0,-1
1532063496530,-3,-1,-2,18,4,0,-1,1
1532063496535,-3,-4,-9,-26,-20,-7,-3,-1
1532063496540,1,-1,2,-7,0,-1,-4,-1
1532063496545,-2,-2,1,33,4,-2,-2,-1
1532063496550,-1,-1,-2,7,10,5,3,-1
1532063496555,-1,-1,3,7,2,1,1,0
1532063496560,0,-2,-5,-4,-3,-6,-3,-3
1532063496565,-1,-1,-1,2,-9,0,0,-2
1532063496570,0,0,0,-10,-18,-6,-3,-2
1532063496575,-1,0,-8,-9,1,-2,-1,0
1532063496580,-3,-3,0,-2,-3,1,-2,-1
1532063496585,0,-1,1,-6,5,0,-2,0
1532063496590,-1,1,5,17,5,-1,-3,1
1532063496595,0,0,0,-18,-5,-2,2,-2
1532063496600,0,-2,1,12,-2,-1,-1,1
1532063496605,0,1,2,11,1,-3,0,-2
1532063496610,-4,-5,-13,-31,-19,1,-2,-1
1532063496615,0,1,4,25,3,0,-3,-3
1532063496620,-2,-1,-3,4,20,2,2,0
1532063496625,-1,-4,-8,-16,-5,2,2,-1
1532063496630,1,2,5,0,1,0,2,-4
1532063496635,1,-1,-2,5,-11,-5,-1,4
1532063496640,-1,-3,-3,-2,2,1,-1,-1
1532063496645,1,1,-1,-13,57,-2,-2,-2
1532063496650,0,-1,-5,6,-3,13,5,-1
1532063496655,-1,-3,0,-2,-3,-8,-4,-4
1532063496660,-3,-2,-4,2,3,5,3,-2
1532063496665,0,-4,-16,-67,-10,-3,-3,6
1532063496670,2,1,2,8,0,-1,-1,1
1532063496675,-2,1,1,-16,13,1,-1,-3
1532063496680,-2,-1,-5,15,-20,-5,-4,-1
1532063496685,0,-1,4,15,-1,1,0,-4
1532063496690,-3,-2,-1,-2,10,-7,-3,0
1532063496695,0,1,1,7,-6,6,0,0
1532063496700,-1,0,-4,-35,4,1,4,1
1532063496705,-2,0,2,6,-13,1,0,-1
1532063496710,-1,-1,-1,-7,-7,-8,-3,1
1532063496715,1,1,6,11,6,4,1,1
1532063496720,0,2,3,-1,3,1,3,-2
1532063496725,-2,-1,-5,-1,-30,-5,0,1
1532063496730,2,0,1,-4,3,-2,0,-3
1532063496735,0,-1,2,1,-2,-1,-3,0
1532063496740,0,0,-2,-24,-1,0,-2,-2
1532063496745,-1,0,0,26,15,2,-1,0
1532063496750,-1,-2,1,-19,-16,0,-4,0
1532063496755,-2,0,-5,-9,-15,-4,1,-1
1532063496760,1,0,0,16,4,1,0,-1
1532063496765,-1,-1,4,15,-11,-3,-1,0
1532063496770,-1,-2,-2,-8,24,1,4,-1
1532063496775,-1,0,2,21,6,-1,-3,-2
1532063496780,0,0,4,8,-9,-2,-2,-1
1532063496785,-2,-4,-11,-35,-7,-3,-5,-1
1532063496790,-2,-1,0,6,2,-3,-3,-1
1532063496795,-1,-1,-2,-12,-2,-1,0,0
1532063496800,-1,-1,2,10,-5,-5,0,-1
1532063496805,-2,0,1,10,3,0,1,-1
1532063496810,0,0,1,-6,-2,-1,-1,-1
1532063496815,-1,-3,-5,-2,2,-1,-2,2
1532063496820,1,-1,1,-5,1,-2,-3,0
1532063496825,0,0,2,2,0,0,0,-1
1532063496830,-1,-2,-1,6,-12,-6,-2,-1
1532063496835,1,-1,-1,2,14,4,4,3
1532063496840,1,-1,-2,-2,-1,0,2,0
1532063496845,-4,-1,0,-4,-5,-1,-6,-7
1532063496850,-1,-3,-4,9,8,4,2,-2
1532063496855,1,-2,-1,-5,0,0,0,-2
1532063496860,-1,0,1,-5,-5,-1,-5,-1
1532063496865,2,-1,2,6,-3,-1,3,3
1532063496870,-1,-2,-2,0,-3,-3,1,-2
1532063496875,0,1,0,0,0,0,-3,-5
1532063496880,-3,-1,-2,0,-2,-2,-1,0
1532063496885,0,1,-1,7,2,-1,1,-2
1532063496890,-1,0,3,-8,-11,-4,-6,0
1532063496895,-2,0,2,-1,0,0,1,0
1532063496900,0,-1,-3,-9,-10,-5,-1,-1
1532063496905,0,0,2,-3,2,1,-1,-1
1532063496910,1,3,1,16,7,-2,-5,0
1532063496915,-4,-8,-17,-52,-16,-5,-4,-1
1532063496920,-1,0,0,-1,3,0,-3,-2
1532063496925,-2,0,5,3,-5,-1,0,1
1532063496930,0,0,-1,4,1,0,0,1
1532063496935,1,2,3,14,2,2,1,0
1532063496940,-1,-2,-3,3,4,2,1,0
1532063496945,-2,-1,-1,-11,-2,0,-1,1
1532063496950,-1,-1,7,1,-4,-1,-3,-2
1532063496955,-2,-2,-2,6,1,-1,-2,1
1532063496960,-1,0,-5,-3,-2,-3,0,-2
1532063496965,-1,-1,-3,3,-1,1,0,0
1532063496970,-1,-2,-2,-4,0,-1,1,-1
1532063496975,-2,-1,-2,6,-2,0,-2,0
1532063496980,0,1,9,1,-2,0,-3,-2
1532063496985,-1,-3,-5,-4,-4,-3,-3,-3
1532063496990,-1,-1,-7,-2,-1,-2,1,0
1532063496995,-1,0,8,-4,1,1,0,1
1532063497000,0,0,-6,1,-3,0,1,0
1532063497005,-1,0,1,2,3,3,1,-2
1532063497010,1,1,1,29,0,-1,0,1
1532063497015,-3,-7,-17,-38,-14,-5,-2,-6
1532063497020,-1,1,8,11,0,0,0,1
1532063497025,-1,-3,-5,-15,-3,-3,-1,-2
1532063497030,0,2,6,5,2,-1,0,-1
1532063497035,1,3,10,24,7,1,-1,1
1532063497040,-3,-4,-2,-8,-2,-2,-3,0
1532063497045,0,-4,-13,-1,-3,-1,0,0
1532063497050,0,2,17,-5,0,0,1,-2
1532063497055,0,0,-9,6,-1,-1,0,-3
1532063497060,7,0,9,-10,0,0,-5,0
1532063497065,-5,3,1,1,-4,-1,-3,-1
1532063497070,-3,-4,-6,-7,0,-1,-6,1
1532063497075,2,1,9,7,3,2,5,1
1532063497080,0,3,-19,15,-1,-1,3,-2
1532063497085,3,3,7,-25,2,0,-2,3
1532063497090,-35,-14,-7,-5,-7,-2,-3,-9
1532063497095,-3,2,9,23,6,0,-4,-3
1532063497100,-2,-2,-9,-28,1,1,6,0
1532063497105,8,2,0,24,-4,-2,2,0
1532063497110,8,2,-12,-18,1,1,-1,2
1532063497115,-1,-1,7,-7,-4,-1,0,0
1532063497120,-6,-4,1,13,1,0,0,-1
1532063497125,-4,-2,1,5,1,0,-1,-1
1532063497130,6,0,0,-6,-1,0,0,0
1532063497135,-1,-1,-5,5,1,-1,-2,-2
1532063497140,4,1,5,9,2,-2,-2,0
1532063497145,-1,-3,1,-10,3,0,1,-2
1532063497150,4,-1,-9,-10,-8,-3,-3,1
1532063497155,0,0,-4,5,-2,-1,-1,-2
1532063497160,-4,-4,-1,-9,-4,-3,-7,0
1532063497165,-1,0,3,6,2,2,8,-1
1532063497170,1,2,-1,4,5,0,3,0
1532063497175,-3,-1,0,-1,3,-1,-4,1
1532063497180,-3,-3,2,13,-11,-3,-6,1
1532063497185,0,0,0,20,4,-1,1,0
1532063497190,4,-1,-3,-26,-6,0,-3,1
1532063497195,-1,-1,0,-11,1,1,0,-1
1532063497200,1,-1,-1,-10,1,-1,0,-3
1532063497205,2,0,-1,6,-1,-1,-3,-1
1532063497210,2,-1,-1,-14,1,0,1,-3
1532063497215,-3,-3,-6,10,-5,-1,0,-1
1532063497220,-3,-1,1,1,-1,1,0,-2
1532063497225,-2,1,1,14,4,-2,-3,0
1532063497230,0,-1,-3,-18,0,-1,0,-1
1532063497235,-1,0,-2,-9,-3,-1,1,-1
1532063497240,-2,-3,-1,18,-2,-1,-1,-1
1532063497245,-2,-1,-2,-8,-4,-1,1,0
1532063497250,1,0,0,11,5,1,-1,-2
1532063497255,0,0,-1,-8,2,-2,-1,0
1532063497260,-2,0,0,-17,-2,-2,1,0
1532063497265,1,0,3,43,6,1,-1,0
1532063497270,-2,-5,-14,-41,-9,-3,1,2
1532063497275,-1,-1,7,-4,-3,-1,-1,-3
1532063497280,-1,0,-2,-2,0,-2,-2,-1
1532063497285,-3,-2,1,-1,-1,0,-2,0
1532063497290,3,3,5,25,2,1,-1,0
1532063497295,-1,-1,-4,-4,-2,0,0,-1
1532063497300,-1,0,-1,-11,2,-1,-2,-1
1532063497305,0,0,-2,-22,-4,-2,-2,-1
1532063497310,0,-1,-1,15,-2,-3,-3,-1
1532063497315,0,-1,3,21,0,-2,0,-2
1532063497320,-1,3,0,-1,5,2,-1,1
1532063497325,-2,-5,-7,-30,-17,-2,-2,-3
1532063497330,-1,1,5,12,2,-1,-2,0
1532063497335,0,0,-2,7,2,0,1,0
1532063497340,1,0,0,0,3,2,4,0
1532063497345,0,0,1,7,3,0,-2,0
1532063497350,0,-3,-12,-7,-4,-2,-4,-1
1532063497355,0,-3,0,-3,0,0,-2,-1
1532063497360,-1,-1,-4,0,-4,-3,-1,-2
1532063497365,-2,1,-3,-6,0,0,0,-1
1532063497370,0,2,10,19,1,-1,0,-2
1532063497375,0,0,-5,-9,0,1,1,-1
1532063497380,0,-1,3,-4,7,0,0,1
1532063497385,-1,-4,-6,-3,-19,-3,-4,-2
1532063497390,-1,-2,0,1,-1,0,4,-2
1532063497395,0,-1,-1,-2,-1,-2,-2,-1
1532063497400,0,-1,2,8,-1,0,0,-1
1532063497405,-2,-1,-5,-25,3,1,-1,1
1532063497410,-2,-3,-1,8,0,-2,0,0
1532063497415,0,-1,-3,-25,-7,-3,-2,-1
1532063497420,0,0,4,6,3,1,1,0
1532063497425,-2,-5,-9,3,-3,-2,-3,0
1532063497430,-1,0,-1,-10,-1,0,0,-1
1532063497435,-1,1,0,10,3,0,-3,0
1532063497440,0,1,2,3,-3,-2,1,-1
1532063497445,0,0,-1,-6,3,1,1,0
1532063497450,-1,0,3,-4,2,1,-3,0
1532063497455,-1,-2,0,18,-6,-2,-3,-2
1532063497460,-2,-2,-8,-21,-3,0,0,-2
1532063497465,-1,1,5,27,7,-1,-1,0
1532063497470,1,1,-1,-4,2,0,5,1
1532063497475,0,0,1,12,3,2,1,1
1532063497480,0,-1,2,22,0,0,-3,-1
1532063497485,-2,-3,-9,-48,-10,-5,0,-2
1532063497490,1,-2,5,13,3,-1,-2,-2
1532063497495,-1,0,-1,-1,0,-2,0,-1
1532063497500,0,-1,-3,-8,-1,-1,0,-2
1532063497505,-1,1,8,20,7,0,-2,-2
1532063497510,-2,-1,-5,-1,-3,-1,-1,0
1532063497515,-2,-3,-3,-15,-3,1,-1,-3
1532063497520,1,0,0,-1,1,0,1,-1
1532063497525,0,0,1,3,-2,0,-2,-1
1532063497530,-1,-1,0,-2,-1,-1,0,-1
1532063497535,-1,-1,3,13,5,0,0,1
1532063497540,-2,-2,7,13,-1,0,-2,0
1532063497545,1,-1,1,-5,-1,1,1,1
1532063497550,0,-1,0,-13,1,2,1,1
1532063497555,-2,-2,-5,4,-1,-3,1,0
1532063497560,3,2,2,-32,-5,2,3,1
1532063497565,-8,-8,1,88,-1,-6,-13,0
1532063497570,1,3,3,17,4,-1,2,1
1532063497575,2,1,3,-5,9,5,3,-1
1532063497580,-3,-3,-4,-19,-5,-2,-1,-3
1532063497585,5,3,0,-37,-2,4,8,-4
1532063497590,-4,-3,-4,4,8,-6,-4,-3
1532063497595,-3,-3,0,1,-9,-4,-5,0
1532063497600,1,-1,-2,0,-7,-3,1,0
1532063497605,2,1,-2,-29,-5,-1,-1,-1
1532063497610,-2,-2,-2,17,8,3,0,-1
1532063497615,1,-1,-2,-12,0,1,0,-1
1532063497620,-2,-1,0,6,3,-1,-6,1
1532063497625,-2,0,-1,0,10,2,2,0
1532063497630,0,0,-3,-33,-35,-1,1,0
1532063497635,0,-1,2,2,1,-3,-3,-3
1532063497640,-2,0,-4,30,28,6,-2,0
1532063497645,-1,0,9,-9,-5,-2,5,-2
1532063497650,-1,-1,-4,-5,-10,0,2,-2
1532063497655,-1,0,1,-12,0,-4,0,0
1532063497660,0,0,0,-6,-15,-3,0,0
1532063497665,-3,-2,-5,29,8,-7,-6,3
1532063497670,-1,-3,-5,-46,0,-5,-11,-3
1532063497675,0,1,2,7,-5,11,4,0
1532063497680,-2,0,-1,2,10,-4,2,-4
1532063497685,0,0,-3,-30,-2,-2,-4,-3
1532063497690,1,1,0,22,-10,3,1,3
1532063497695,-1,-2,-4,-8,-2,-3,-4,-2
1532063497700,-1,1,3,12,2,-2,-1,-1
1532063497705,-1,-3,-6,-4,-6,3,-2,0
1532063497710,-1,1,2,22,9,-1,5,0
1532063497715,0,1,-1,-9,-2,-5,-4,-2
1532063497720,0,0,0,11,8,3,0,0
1532063497725,1,-2,0,-1,4,-2,5,-2
1532063497730,-3,-5,-8,-23,-29,-5,-2,0
1532063497735,-1,0,-2,4,9,3,-1,3
1532063497740,-2,-1,2,0,-2,-5,-2,-2
1532063497745,0,1,-2,21,2,0,-3,1
1532063497750,1,1,-3,-20,3,-1,0,-4
1532063497755,-2,0,2,-6,-21,-10,-2,0
1532063497760,0,-2,-4,3,0,0,-2,1
1532063497765,-1,1,2,-2,3,2,1,-1
1532063497770,0,0,3,12,14,3,4,1
1532063497775,-1,-2,-3,9,-6,-4,-2,-2
1532063497780,-1,-1,-4,-8,0,1,-2,-2
1532063497785,-3,-2,2,-6,1,-7,-4,1
1532063497790,0,1,1,8,5,-2,6,-2
1532063497795,-2,-5,-3,16,-6,0,-7,0
1532063497800,0,0,-2,-4,-13,-2,2,-1
1532063497805,-1,-2,-5,-12,3,1,3,-1
1532063497810,2,1,7,-4,11,2,-5,0
1532063497815,-1,0,-5,15,4,-2,0,0
1532063497820,0,-1,-1,0,-4,-3,0,-1
1532063497825,0,1,0,-13,-10,-1,1,-2
1532063497830,-6,-7,-4,37,1,-2,-8,1
1532063497835,2,-1,2,8,0,-1,2,-1
1532063497840,-2,-2,-1,-6,-4,-2,-3,-2
1532063497845,-1,1,-1,-10,4,3,4,3
1532063497850,1,2,1,2,1,0,0,0
1532063497855,-2,-3,-10,-8,-6,-1,-2,-1
1532063497860,-1,0,4,17,3,1,0,1
1532063497865,-2,-4,-4,-32,-7,-3,-1,-3
1532063497870,1,-1,1,-2,-4,-2,0,-3
1532063497875,-1,1,1,-1,3,1,-3,-1
1532063497880,-4,-5,-4,16,6,-1,0,-1
1532063497885,-1,-3,-10,-19,-15,-4,-2,-2
1532063497890,-1,1,4,0,0,-2,-3,0
1532063497895,1,0,0,-15,4,0,2,0
1532063497900,3,3,4,23,-1,0,2,0
1532063497905,-2,-5,-8,-18,7,1,0,1
1532063497910,1,4,16,16,-5,-1,-2,-1
1532063497915,-1,-3,10,3,8,2,-2,-1
1532063497920,-1,-4,-9,-5,-5,-1,-6,2
1532063497925,1,0,5,-9,-4,-2,0,0
1532063497930,1,2,2,2,5,2,0,-2
1532063497935,-1,0,-7,-8,-1,-1,2,-2
1532063497940,0,0,1,-6,-1,-1,-10,-2
1532063497945,2,0,-2,-2,5,3,11,6
1532063497950,-6,-8,-16,-29,-11,-2,-4,-1
1532063497955,1,3,10,7,1,0,0,-1
1532063497960,-2,1,-2,-12,3,-1,-1,1
1532063497965,0,0,0,15,-5,-1,-4,-3
1532063497970,-1,-2,2,10,2,-1,1,-5
1532063497975,-1,-3,-8,-18,-4,-2,3,3
1532063497980,1,2,5,20,-1,2,4,-2
1532063497985,-1,-1,0,7,-4,-1,-6,-3
1532063497990,0,0,-4,-3,4,1,0,-1
1532063497995,0,-2,-1,-3,-2,0,-4,0
1532063498000,-1,-3,2,6,1,-2,0,0
1532063498005,0,1,2,15,2,1,-1,-2
1532063498010,0,1,-2,-9,-1,-1,2,0
1532063498015,0,-2,-9,-6,-3,-1,-1,-1
1532063498020,1,-1,1,-14,10,1,-1,0
1532063498025,-1,0,0,-4,-11,-3,-11,0
1532063498030,0,0,-1,2,20,2,7,2
1532063498035,-2,-2,0,-21,-29,-6,1,0
1532063498040,-1,-1,-3,-14,4,0,3,0
1532063498045,-2,-1,-6,-8,-15,-3,-6,-1
1532063498050,1,2,0,13,6,-1,-4,0
1532063498055,0,1,2,6,11,1,1,-1
1532063498060,-2,-2,-3,-21,-4,-2,2,-1
1532063498065,-3,1,2,3,-6,-1,1,-2
1532063498070,-3,-1,-2,-2,-2,-1,-1,-2
1532063498075,5,1,1,17,14,4,2,-2
1532063498080,6,2,-1,-14,-18,-4,-4,2
1532063498085,-18,-15,0,17,7,0,1,-2
1532063498090,12,1,-5,-9,-7,-1,-3,1
1532063498095,-22,-2,-2,5,12,-3,-4,-7
1532063498100,6,2,1,12,-5,0,17,-4
1532063498105,4,3,1,5,5,0,-21,0
1532063498110,-3,-3,-3,-10,-10,-2,1,0
1532063498115,6,2,2,20,2,0,0,1
1532063498120,-5,-3,3,-7,-5,-3,-4,-3
1532063498125,0,3,-4,4,0,-1,7,1
1532063498130,-5,-2,3,25,4,1,2,-3
1532063498135,5,1,-3,-23,-7,0,-5,0
1532063498140,-7,-4,-1,7,-3,-1,-2,0
1532063498145,4,-1,-1,-28,10,1,-2,-2
1532063498150,1,-2,-6,-5,-11,-4,-5,-1
1532063498155,-2,-1,-2,-5,-5,-1,-2,-2
1532063498160,-2,-1,1,1,2,3,-2,1
1532063498165,2,3,5,-2,1,0,2,-2
1532063498170,-2,-1,-6,-4,-1,0,0,0
1532063498175,-3,0,4,-3,-3,0,-2,-2
1532063498180,-1,1,0,-1,0,-1,-6,-1
1532063498185,5,5,2,26,2,1,6,-1
1532063498190,-2,-1,1,-3,-1,-1,-4,-2
1532063498195,1,-2,-4,19,8,-1,2,-2
1532063498200,0,3,8,-3,-6,0,-1,-2
1532063498205,0,-1,-2,6,2,0,3,0
1532063498210,-2,-3,-6,-14,1,0,-2,-1
1532063498215,0,2,13,4,-2,-2,-2,0
1532063498220,-2,-3,-10,-15,3,0,1,0
1532063498225,-1,-1,-5,0,5,-2,0,-1
1532063498230,-2,-1,15,2,-5,-2,1,-1
1532063498235,1,0,0,7,5,-6,-2,-1
1532063498240,-3,-3,-8,-8,16,6,0,-1
1532063498245,-2,-2,-3,-13,-14,1,-2,0
1532063498250,-2,-3,-7,-3,-8,-5,0,-2
1532063498255,0,1,5,-4,-22,-4,2,-1
1532063498260,-1,-3,-9,-2,3,-3,-2,0
1532063498265,0,-1,-8,-1,16,-3,-2,0
1532063498270,-1,-1,0,-1,-5,6,-5,3
1532063498275,1,0,2,1,29,1,6,-2
1532063498280,0,2,-2,7,-25,1,-3,3
1532063498285,0,-1,2,-6,17,-2,4,0
1532063498290,1,1,2,-1,-15,-2,-3,-3
1532063498295,-1,-2,-6,-3,-3,-3,-1,3
1532063498300,2,0,3,3,7,0,0,0
1532063498305,-1,0,-2,2,2,-2,0,-2
1532063498310,-1,0,0,4,8,3,0,0
1532063498315,0,-2,-4,1,-15,2,-5,-4
1532063498320,-1,-1,3,13,11,-1,0,0
1532063498325,2,1,-5,-25,-13,3,-1,0
1532063498330,0,0,5,15,9,-2,0,1
1532063498335,0,-1,-2,-7,-2,0,-2,0
1532063498340,0,-1,-2,-6,-7,-5,-3,-3
1532063498345,-2,0,7,10,-13,-2,2,-1
1532063498350,0,2,-3,-13,8,5,2,-2
1532063498355,1,-3,-6,-11,-6,-2,-3,0
1532063498360,1,-1,4,5,22,1,2,-2
1532063498365,-1,1,1,-4,-25,-3,-2,0
1532063498370,-1,-2,-4,-6,-3,-3,2,-1
1532063498375,-1,0,-5,7,-2,-1,0,-2
1532063498380,0,-1,2,-9,-1,-2,-1,-3
1532063498385,-2,-3,-2,4,-6,-2,-2,-2
1532063498390,0,-2,1,10,7,2,2,1
1532063498395,0,0,3,2,-5,-1,-4,-1
1532063498400,-2,-2,-4,-15,-6,-2,-1,-1
1532063498405,-2,0,0,7,4,0,0,-2
1532063498410,-1,0,-1,10,-5,-4,-4,-1
1532063498415,-2,0,3,-6,7,1,-2,2
1532063498420,-2,-3,-6,17,-5,-3,0,1
1532063498425,-1,-1,1,-17,2,-1,-6,-2
1532063498430,2,-2,-7,-5,2,-3,-1,0
1532063498435,-1,0,1,-6,2,2,0,-5
1532063498440,-3,0,-1,9,-5,1,-1,0
1532063498445,0,-1,-3,-18,-14,-3,-3,-3
1532063498450,-1,0,-5,-6,6,-2,1,-1
1532063498455,0,0,2,1,4,-1,2,0
1532063498460,-2,0,-3,10,-6,-2,-4,-2
1532063498465,0,-2,2,8,5,0,1,1
1532063498470,-3,-2,2,-8,-5,-1,-5,-1
1532063498475,0,-3,0,-1,-7,0,1,-2
1532063498480,0,-2,-9,-7,1,2,-1,0
1532063498485,-1,-1,1,15,4,1,2,0
1532063498490,-3,-1,8,-17,-5,-2,1,-4
1532063498495,0,0,0,5,4,0,-2,-1
1532063498500,0,2,5,-7,-4,-2,-2,-2
1532063498505,0,0,-2,15,4,-1,1,-1
1532063498510,0,0,1,-5,5,1,-1,-1
1532063498515,-2,-2,-10,-6,-6,-1,-5,4
1532063498520,-1,-1,5,-7,-7,0,1,-1
1532063498525,0,0,0,0,4,-1,0,1
1532063498530,0,-1,-3,10,-5,-4,-6,0
1532063498535,-1,1,0,2,-3,-2,3,-1
1532063498540,1,0,-3,-6,5,2,-1,-1
1532063498545,-3,0,-3,-7,-7,-5,-3,-3
1532063498550,-1,1,6,19,-2,-1,-4,0
1532063498555,-2,-3,-8,-11,-2,-2,1,-3
1532063498560,1,-1,3,3,0,-3,-2,0
1532063498565,0,0,-5,-11,-20,-2,1,2
1532063498570,-1,-1,1,3,-1,0,0,-1
1532063498575,-2,-1,-2,-8,-4,0,-2,-1
1532063498580,0,1,6,20,9,-3,1,-1
1532063498585,-1,-2,-6,-35,2,0,-1,-2
1532063498590,1,-1,-5,2,-4,0,1,0
1532063498595,0,0,7,10,3,0,1,-1
1532063498600,-1,-2,-5,-8,-3,-1,-2,-3
1532063498605,0,1,0,10,7,0,0,-1
1532063498610,-1,1,0,-7,-1,-1,-1,-1
1532063498615,0,-3,-2,-6,3,0,-1,-2
1532063498620,-1,-2,-1,2,-7,-4,-6,0
1532063498625,0,0,3,-4,11,5,2,1
1532063498630,-2,-2,-6,-3,-4,-4,2,-2
1532063498635,-1,1,1,11,-2,0,-1,-1
1532063498640,-2,-1,1,-3,-7,-1,-2,-3
1532063498645,1,1,3,14,15,0,0,-1
1532063498650,-1,-2,-6,-2,17,3,3,2
1532063498655,0,0,5,-12,-13,0,-1,1
1532063498660,0,-2,-12,-31,-12,-6,-3,0
1532063498665,-1,-1,0,-25,-4,-1,6,-1
1532063498670,-1,0,5,66,14,2,-1,0
1532063498675,-1,1,9,24,23,1,-1,3
1532063498680,0,-3,-10,-25,-11,-1,-1,1
1532063498685,1,0,2,3,-5,4,-3,-1
1532063498690,0,-1,-2,-14,8,3,8,-1
1532063498695,0,-1,-5,-17,-2,-2,2,-1
1532063498700,1,1,1,10,4,1,4,-1
1532063498705,2,1,-1,1,0,-2,-3,-2
1532063498710,0,-3,-3,-34,-16,-4,-4,-2
1532063498715,-1,-3,-5,10,-2,-2,-4,-1
1532063498720,0,0,5,8,8,0,2,0
1532063498725,-3,-4,-3,-2,-10,-3,-4,-2
1532063498730,-1,-1,-3,2,-9,-2,-1,3
1532063498735,-1,-1,-4,-6,-2,-3,-1,0
1532063498740,-1,1,-1,-3,-3,-1,-1,-1
1532063498745,-3,0,4,21,7,-1,0,-2
1532063498750,-2,-1,-1,0,-4,0,-3,-1
1532063498755,1,-2,-4,3,-6,-3,-7,-3
1532063498760,-1,0,1,-18,0,0,1,0
1532063498765,-2,-1,0,13,2,-2,1,2
1532063498770,0,0,0,-3,2,1,-6,-3
1532063498775,-1,-2,-6,-16,-1,0,2,1
1532063498780,0,-2,6,14,-2,1,-1,-2
1532063498785,-3,-3,-6,5,0,-2,-3,2
1532063498790,0,-2,0,-17,-10,-5,-5,-2
1532063498795,-1,-1,3,17,9,2,0,-3
1532063498800,1,-2,-5,19,4,1,-1,-2
1532063498805,-1,2,6,-36,-10,-2,-2,0
1532063498810,-1,-1,4,3,-4,-1,1,0
1532063498815,-2,0,1,10,1,0,0,0
1532063498820,-1,-3,-10,-28,-4,-1,-2,-1
1532063498825,1,-1,-7,12,3,1,0,-3
1532063498830,-1,-1,5,-6,-4,-3,-2,-1
1532063498835,1,1,12,-7,3,3,7,-1
1532063498840,-2,-2,-10,6,-2,-1,9,4
1532063498845,0,-5,-10,-5,-8,-3,-18,-6
1532063498850,-3,-1,12,-7,-5,-3,1,0
1532063498855,3,0,-19,-13,-1,2,-6,-2
1532063498860,-3,4,14,-4,-4,-3,1,5
1532063498865,-1,-2,-2,38,5,1,5,-2
1532063498870,0,1,-6,-25,5,2,-2,0
1532063498875,-2,-4,-5,-12,-7,-2,5,1
1532063498880,11,3,11,-6,5,3,-5,-1
1532063498885,-4,1,9,39,-2,-3,1,-1
1532063498890,-2,-5,-13,25,4,1,-3,-4
1532063498895,-4,-1,-7,-9,-5,-3,6,-1
1532063498900,-2,-3,-9,-19,-15,-4,-5,-2
1532063498905,0,-1,6,-18,0,-1,-1,0
1532063498910,2,4,7,0,8,2,4,0
1532063498915,1,-1,-5,14,-3,0,-7,1
1532063498920,-4,-1,5,28,6,-2,2,-3
1532063498925,3,2,3,-42,3,0,0,2
1532063498930,-1,-1,-9,15,-7,0,0,-1
1532063498935,0,-4,-4,-50,-6,-2,-1,-2
1532063498940,-4,0,-3,22,5,-1,-10,-1
1532063498945,-3,-3,-3,3,-12,-3,5,-1
1532063498950,2,-1,-5,-12,0,-2,1,-1
1532063498955,0,2,5,7,3,-1,-3,0
1532063498960,-3,-1,9,10,6,1,6,-1
1532063498965,-2,-3,-6,15,-4,-3,-4,-1
1532063498970,-2,-2,-4,-13,-2,-2,-3,-2
1532063498975,-1,0,7,18,0,0,-1,0
1532063498980,-3,-1,-3,-20,-4,0,-1,0
1532063498985,0,-1,-5,-3,6,1,2,1
1532063498990,-1,-2,1,-5,-6,-2,-4,-3
1532063498995,-3,-2,0,-1,-6,-2,0,-2
1532063499000,0,-2,-5,2,1,0,0,-1
1532063499005,0,1,2,1,4,0,1,0
1532063499010,2,2,11,41,10,2,3,-1
1532063499015,-3,-4,-14,-28,-11,-3,-4,0
1532063499020,-1,0,5,21,2,1,-1,-1
1532063499025,-1,-4,-11,-19,-7,-2,-2,-1
1532063499030,-1,1,6,22,2,0,3,3
1532063499035,1,1,5,22,5,-3,-4,-6
1532063499040,-2,-2,-3,-15,-2,-2,-1,-3
1532063499045,-1,1,-1,25,6,4,11,2
1532063499050,0,-1,-5,-33,-4,-3,-20,-1
1532063499055,0,-1,2,29,4,0,4,1
1532063499060,-1,-1,-1,-22,-4,-3,-3,-4
1532063499065,1,1,6,8,7,1,3,-3
1532063499070,0,-3,-8,-21,-10,-1,0,-1
1532063499075,-1,0,1,-2,4,1,3,2
1532063499080,0,0,-1,23,0,1,-2,0
1532063499085,2,2,5,4,1,0,-3,-2
1532063499090,-4,-1,-8,-32,-3,-1,4,0
1532063499095,0,-2,-4,-2,2,0,-5,2
1532063499100,1,2,2,-22,5,1,16,0
1532063499105,-4,-5,-2,8,-17,-5,-24,-2
1532063499110,-1,-2,-4,-9,-1,-3,9,0
1532063499115,-1,1,7,22,6,2,3,-3
1532063499120,-2,-2,-7,-15,-1,-1,-2,0
1532063499125,3,0,-1,-43,-1,1,3,-2
1532063499130,-1,0,-1,24,2,0,20,3
1532063499135,1,0,4,-22,-4,-1,25,7
1532063499140,9,-3,-7,15,-9,-3,-28,-7
1532063499145,-11,0,-1,-1,3,-2,-11,-9
1532063499150,-1,-1,1,4,0,-1,-4,1
1532063499155,-2,1,2,-6,3,1,8,-5
1532063499160,-1,0,0,14,-7,0,8,4
1532063499165,1,1,1,-13,2,-1,1,2
1532063499170,-1,-1,-3,25,0,2,27,16
1532063499175,-2,-1,3,-22,-8,-5,-54,-27
1532063499180,-14,-2,-2,14,8,-3,2,-3
1532063499185,2,-4,-13,-39,-11,-1,16,10
1532063499190,-1,0,3,-17,5,1,11,-10
1532063499195,0,-1,-4,9,-5,-1,-25,-3
1532063499200,7,2,1,-17,-4,1,-8,-2
1532063499205,-6,1,-2,13,6,-4,-5,22
1532063499210,2,-1,1,0,-1,0,-8,-13
1532063499215,8,0,3,-1,6,7,30,18
1532063499220,-14,-3,-3,0,2,-4,-32,-15
1532063499225,4,2,3,13,-4,2,18,3
1532063499230,10,3,-3,3,-4,-5,-23,-9
1532063499235,-17,-9,11,22,3,0,10,-2
1532063499240,0,-1,0,-1,2,1,11,9
1532063499245,2,-4,6,10,2,0,3,-8
1532063499250,-1,0,-1,14,2,1,-12,-1
1532063499255,5,2,-9,-21,-5,-1,-3,1
1532063499260,-1,-1,5,-6,-3,0,6,-1
1532063499265,-4,-1,1,2,-1,-3,-11,-4
1532063499270,-3,-1,0,-9,-2,-1,-1,0
1532063499275,-2,0,-1,11,-3,-4,-5,4
1532063499280,0,-2,-7,-5,2,3,11,3
1532063499285,4,3,0,5,-1,-1,-4,-4
1532063499290,-3,-2,5,-5,-1,0,-6,3
1532063499295,1,2,-3,4,-1,-4,2,1
1532063499300,1,-1,-2,-16,-7,0,4,-2
1532063499305,1,-1,0,10,3,1,-4,-3
1532063499310,-3,-2,-9,-6,-4,-3,-1,1
1532063499315,0,-2,-6,-13,-3,-3,-4,1
1532063499320,3,1,4,2,2,-2,5,-1
1532063499325,-2,-1,0,2,-9,-3,-3,-3
1532063499330,-5,-6,-5,-3,0,2,-4,-1
1532063499335,2,1,-3,1,8,-4,-3,-4
1532063499340,2,2,-5,11,1,7,6,4
1532063499345,-3,-6,3,9,-6,-3,-1,-2
1532063499350,-1,0,-1,-45,-8,-4,-4,-1
1532063499355,-1,-2,-4,4,-2,1,-4,-3
1532063499360,0,0,1,3,4,-10,-3,-3
1532063499365,1,2,2,9,16,13,0,-3
1532063499370,1,2,4,9,26,-4,-7,-2
1532063499375,-3,-1,-2,3,-13,4,7,0
1532063499380,0,-1,-2,-13,-10,1,-4,-1
1532063499385,1,-1,1,19,15,3,2,-2
1532063499390,-4,-5,-4,-17,-20,5,-2,2
1532063499395,1,2,-7,10,-11,-7,-5,-1
1532063499400,0,-2,6,16,13,-4,4,-3
1532063499405,0,-1,0,-27,-7,-2,-3,1
1532063499410,0,-1,-7,-1,14,-2,-4,-1
1532063499415,-3,1,3,18,-4,-4,0,-2
1532063499420,0,-1,2,29,12,7,3,-1
1532063499425,0,1,-7,-14,-2,-1,2,0
1532063499430,0,-1,-10,-18,-7,0,0,-1
1532063499435,2,3,17,16,9,1,-1,-2
1532063499440,-2,-1,-6,0,29,-3,-4,-3
1532063499445,0,-1,0,9,-38,10,2,-2
1532063499450,-5,-6,-4,6,-26,-9,-8,2
1532063499455,2,0,-5,-21,-5,0,2,2
1532063499460,-1,0,-2,7,3,-2,0,1
1532063499465,3,2,7,4,25,-3,1,-4
1532063499470,-2,0,-1,-27,-3,-3,0,-3
1532063499475,-2,-2,-2,16,-11,1,-2,-1
1532063499480,0,-2,0,-37,-11,-1,-9,-4
1532063499485,-4,-2,-5,-6,1,-3,-3,2
1532063499490,-1,1,3,11,4,2,2,1
1532063499495,0,-2,-1,-7,3,-2,-1,-3
1532063499500,2,2,3,23,-1,2,0,1
1532063499505,0,-2,-6,18,-6,-4,-1,-4
1532063499510,-5,-1,12,-11,2,-1,-1,2
1532063499515,-1,0,-10,-5,-8,-2,-4,-1
1532063499520,0,1,3,7,-3,-1,3,2
1532063499525,-2,-5,-5,6,16,0,-2,0
1532063499530,1,-1,-5,0,-11,-2,2,-4
1532063499535,-3,-3,5,19,14,1,3,-2
1532063499540,-3,0,-6,-25,-34,-3,-1,1
1532063499545,-2,-1,-1,-10,1,-5,-5,1
1532063499550,0,1,6,20,18,6,0,1
1532063499555,0,1,-5,-5,-17,-4,0,-2
1532063499560,1,-2,-4,-17,-3,0,12,1
1532063499565,1,-1,4,-7,-6,0,-4,0
1532063499570,1,0,-5,15,7,0,3,0
1532063499575,-1,0,-2,1,1,1,1,0
1532063499580,0,2,15,9,8,1,-1,-3
1532063499585,-1,-1,-3,-7,-5,1,-1,0
1532063499590,2,1,2,1,3,-2,-3,-2
1532063499595,-2,-2,-5,8,-2,0,3,1
1532063499600,-1,-2,1,-3,10,-1,-3,-1
1532063499605,1,1,8,-1,1,4,4,0
1532063499610,-1,-3,-7,-1,2,-4,0,-3
1532063499615,-1,2,8,-8,-5,0,-2,1
1532063499620,0,-3,-7,-12,-12,-3,-3,-3
1532063499625,-2,1,2,5,1,-4,4,-2
1532063499630,-1,-2,0,7,18,7,0,1
1532063499635,-2,-5,-10,-15,-26,-5,-5,-1
1532063499640,-3,-2,-6,-3,-1,-4,-1,-2
1532063499645,-1,0,1,7,9,2,-9,-1
1532063499650,1,-1,4,-2,-5,-2,2,0
1532063499655,-2,-3,6,6,6,0,0,-1
1532063499660,0,-2,-13,10,3,1,-3,0
1532063499665,-1,-1,2,0,-1,-3,-2,1
1532063499670,0,1,-1,9,-4,-3,0,-1
1532063499675,3,1,3,16,7,3,-3,-4
1532063499680,-2,0,-1,-28,-4,-1,-1,-1
1532063499685,-1,1,0,2,-6,-1,1,0
1532063499690,-1,0,0,0,6,1,1,1
1532063499695,-2,-5,-8,-19,-14,-5,-4,-2
1532063499700,-2,-3,2,8,-1,-2,-6,-1
1532063499705,0,1,-5,-1,-2,-3,2,-2
1532063499710,1,1,3,-5,-2,1,-2,-4
1532063499715,3,1,5,20,8,6,1,2
1532063499720,-2,-3,-6,2,4,0,6,0
1532063499725,-2,-2,-5,-15,-14,-2,-2,-1
1532063499730,-1,-4,-2,-10,-3,-3,-2,0
1532063499735,-1,1,-2,-21,0,-2,-2,-1
1532063499740,-1,0,4,33,6,2,5,-2
1532063499745,2,2,1,-4,7,2,6,-2
1532063499750,-3,-4,-5,-14,-21,-4,11,-4
1532063499755,9,0,-5,2,6,2,9,5
1532063499760,2,4,16,4,5,0,-25,-1
1532063499765,-9,-2,-2,9,1,-2,11,5
1532063499770,1,4,-2,1,-7,-1,0,0
1532063499775,8,1,-11,-17,6,-1,14,2
1532063499780,19,3,5,15,-8,-2,-16,0
1532063499785,10,2,4,4,6,0,-2,1
1532063499790,16,-1,1,14,-2,0,2,4
1532063499795,-12,-2,2,17,-1,0,20,7
1532063499800,12,9,-11,-4,-8,-4,-22,1
1532063499805,4,-2,2,-2,-2,0,7,-1
1532063499810,-5,-3,-8,-14,-2,-4,-23,-3
1532063499815,6,1,5,-1,4,0,11,0
1532063499820,-12,-5,-1,-4,-4,0,12,2
1532063499825,-3,0,2,17,0,-1,-14,-1
1532063499830,-4,-4,-6,-16,-3,-2,14,-3
1532063499835,-6,-3,1,0,-3,-2,-28,-7
1532063499840,-11,-4,-4,4,5,1,14,3
1532063499845,-4,-3,-8,-44,-12,-4,-9,-19
1532063499850,0,3,4,0,10,4,12,0
1532063499855,-2,1,2,-7,3,2,8,2
1532063499860,-7,-7,-9,10,-13,-7,-21,-3
1532063499865,3,0,1,1,-1,4,24,2
1532063499870,-11,-5,-1,-3,-1,-6,-60,-21
1532063499875,-1,1,6,42,13,-1,8,9
1532063499880,-4,-2,-8,-71,-4,3,27,-5
1532063499885,1,-1,-5,-5,-10,-4,-9,8
1532063499890,-3,-3,-3,-21,-15,-5,-8,-19
1532063499895,-2,1,-1,14,0,-2,-11,0
1532063499900,1,0,6,21,10,1,26,3
1532063499905,-4,-4,-9,8,-5,-3,-12,-2
1532063499910,-1,-2,1,-13,4,1,0,7
1532063499915,1,1,-2,-26,-3,-1,-6,-7
1532063499920,-3,0,3,-1,1,-1,-5,-1
1532063499925,-1,-2,-2,-6,-4,-1,-3,-7
1532063499930,-2,1,-2,16,3,1,5,8
1532063499935,-3,-2,0,3,-3,-1,-2,-4
1532063499940,0,-1,-2,-11,0,1,-1,0
1532063499945,-2,0,1,14,2,-3,-9,1
1532063499950,1,1,3,11,-2,-1,12,8
1532063499955,-2,-2,-4,-14,-1,1,-6,-3
1532063499960,-3,0,0,26,2,-1,-5,-3
1532063499965,-2,-2,-2,-19,-2,0,7,-1
1532063499970,2,3,4,0,4,0,2,2
1532063499975,0,-2,-4,10,-6,-3,-7,-6
1532063499980,-2,-3,-1,10,-2,-1,4,-1
1532063499985,0,0,3,17,6,0,5,2
1532063499990,0,-2,-3,-12,-2,3,3,0
1532063499995,0,1,1,2,6,1,-2,1
1532063500000,0,-1,2,0,0,0,0,1
1532063500005,-2,-2,-4,-4,-1,0,-3,0
1532063500010,-1,-1,2,7,-2,-2,5,0
1532063500015,0,0,-1,-10,3,0,-1,0
1532063500020,-1,-2,0,2,11,0,-8,-1
1532063500025,-1,-2,-2,-17,-12,-2,4,-2
1532063500030,0,0,0,9,2,-1,-1,-2
1532063500035,0,-1,-1,-7,-4,2,0,-2
1532063500040,0,1,4,9,-12,-4,-3,1
1532063500045,-2,-1,-8,-50,5,0,-1,-1
1532063500050,0,1,2,17,2,-1,4,0
1532063500055,-3,-2,-1,-14,-3,-4,-3,-1
1532063500060,-1,1,-3,7,4,-2,-2,-2
1532063500065,-1,2,7,25,-2,-6,-9,-2
1532063500070,0,-2,-5,-9,-5,6,7,0
1532063500075,-1,-1,0,-7,-1,-4,-4,-2
1532063500080,1,-2,1,-12,-4,-1,2,0
1532063500085,-3,-2,-3,9,4,1,-2,3
1532063500090,-1,0,0,10,0,-3,6,-3
1532063500095,-1,0,-1,4,1,0,0,-1
1532063500100,-3,-5,-6,-9,-8,-4,-5,0
1532063500105,1,1,2,10,-2,1,-1,0
1532063500110,0,-1,-2,3,2,0,-2,2
1532063500115,1,-1,0,9,-1,-1,-1,-2
1532063500120,-2,2,0,19,2,-1,1,-1
1532063500125,1,-1,-5,-31,5,2,0,-2
1532063500130,-2,0,8,-13,-5,-1,-4,3
1532063500135,0,-1,0,28,0,0,0,-1
1532063500140,-4,-5,-6,-25,-3,1,-2,-2
1532063500145,-1,-1,-1,47,0,-1,-1,-1
1532063500150,0,2,5,-19,-2,-1,2,-3
1532063500155,3,7,9,-3,-4,-2,-1,4
1532063500160,3,-9,-4,5,-1,-1,-3,-5
1532063500165,-4,-6,2,22,5,0,-1,-2
1532063500170,1,9,-6,-30,1,-1,5,-5
1532063500175,-11,-10,-8,3,-12,-4,-5,-2
1532063500180,17,8,3,9,2,2,-1,4
1532063500185,-32,-2,-1,-5,-6,-3,2,-2
1532063500190,-2,-4,-2,14,6,0,-3,-2
1532063500195,7,1,-3,-8,-2,1,2,-3
1532063500200,1,0,3,-15,8,1,4,0
1532063500205,6,-5,-2,12,-22,-7,-6,2
1532063500210,-3,-3,-1,29,10,0,-9,2
1532063500215,-5,-2,-6,-29,-3,-2,2,-1
1532063500220,-3,-2,0,-10,-6,1,-3,1
1532063500225,6,3,9,13,8,3,-1,-2
1532063500230,-2,-2,-2,-7,-1,-2,-2,-2
1532063500235,3,-2,-8,15,4,0,-5,-2
1532063500240,-5,-1,4,-17,-4,-1,-1,-2
1532063500245,8,3,-4,-6,1,0,4,2
1532063500250,0,-4,-7,8,-11,-3,-2,1
1532063500255,-4,-4,4,20,3,-1,-3,0
1532063500260,-2,2,-3,6,5,0,0,-2
1532063500265,1,1,6,-11,0,-1,2,-1
1532063500270,-1,-6,-7,5,-9,-4,-1,0
1532063500275,-3,0,1,-18,0,0,0,-7
1532063500280,0,3,2,6,2,1,3,6
1532063500285,2,-2,-2,0,-4,-2,-12,0
1532063500290,1,2,7,15,4,2,5,0
1532063500295,1,-2,-5,-59,-6,-3,-2,-1
1532063500300,-6,-2,-5,-22,-10,2,0,0
1532063500305,2,-1,-1,5,5,1,2,-1
1532063500310,2,2,0,-3,2,-1,0,8
1532063500315,0,0,2,24,1,-4,0,-4
1532063500320,-11,-3,3,0,3,-1,-3,-13
1532063500325,9,8,-1,7,8,10,18,18
1532063500330,-14,-7,-1,2,0,-2,-9,-15
1532063500335,11,-5,-4,-8,-6,-2,-8,23
1532063500340,5,3,-4,4,-7,-7,-1,-4
1532063500345,-3,-4,-4,-4,-1,-2,-8,-9
1532063500350,3,2,2,-36,6,3,6,-1
1532063500355,-13,-7,-4,15,-9,-1,-6,-8
1532063500360,-1,-2,-3,19,8,0,-3,1
1532063500365,3,2,10,-25,-9,-5,0,0
1532063500370,-4,-3,-16,-77,-5,-3,-3,-5
1532063500375,-2,-4,4,15,-1,-2,-2,-3
1532063500380,-1,-1,0,3,4,1,7,2
1532063500385,2,-1,-5,4,1,-1,-2,-4
1532063500390,-3,1,9,16,2,1,0,1
1532063500395,-1,5,1,-1,1,0,0,-4
1532063500400,1,0,0,1,3,1,1,3
1532063500405,-2,-6,-12,-34,-11,-3,-4,-3
1532063500410,2,-1,1,13,-2,-1,-4,3
1532063500415,0,0,-2,11,2,0,-8,-4
