1532544041397,-25,-5,-2,-6,1,-1,17,4
1532544041402,-25,6,0,-6,-4,0,-4,-12
1532544041407,7,-2,-1,4,3,5,-7,-6
1532544041412,9,5,1,-1,-1,1,-10,2
1532544041417,-46,-12,1,1,-3,-3,-1,1
1532544041422,25,4,1,2,1,-2,-2,1
1532544041427,25,-4,-4,-6,-6,-5,5,3
1532544041432,-71,-4,0,1,2,30,-8,-7
1532544041437,5,4,1,-1,0,-18,2,-4
1532544041442,10,-1,2,-4,2,9,11,-1
1532544041447,21,2,-5,-5,-10,3,-3,6
1532544041452,-4,-9,-3,-9,-1,-19,21,-4
1532544041457,0,-3,-1,5,-4,0,-12,-12
1532544041462,0,4,2,7,2,9,11,-1
1532544041467,-8,2,2,6,3,7,-7,-2
1532544041472,9,3,-4,-12,-4,-13,9,5
1532544041477,-24,-9,-2,0,-3,7,-4,2
1532544041482,26,-2,1,-2,3,-2,0,-11
1532544041487,-14,-3,0,0,3,2,-2,1
1532544041492,6,1,0,7,0,-5,-9,1
1532544041497,3,1,0,3,0,20,14,-2
1532544041502,11,-2,-2,-2,-4,-3,-17,0
1532544041507,4,3,1,1,5,2,13,-2
1532544041512,-5,-1,-2,-6,-3,-11,-7,-3
1532544041517,-23,1,-3,-11,-10,4,2,4
1532544041522,3,0,0,2,2,1,2,4
1532544041527,-10,-5,-1,-2,1,6,7,-5
1532544041532,31,5,2,4,-1,-2,-3,2
1532544041537,0,-4,1,6,0,-9,-11,-5
1532544041542,2,-2,-3,-2,0,1,6,3
1532544041547,-20,2,-1,-4,-1,-1,0,-4
1532544041552,15,1,-1,-8,-11,-1,-7,0
1532544041557,12,3,0,-1,5,-5,2,1
1532544041562,31,5,-2,-2,-2,2,0,9
1532544041567,-6,0,-2,-2,-2,1,19,-2
1532544041572,-10,-2,1,5,-2,-3,-20,-3
1532544041577,12,5,2,8,12,-1,3,3
1532544041582,-13,-6,-3,0,7,-3,6,-3
1532544041587,12,2,-2,-11,-19,0,3,1
1532544041592,-5,-2,0,-5,-1,-3,-9,-6
1532544041597,-20,-1,2,9,-1,-4,19,-4
1532544041602,-1,-2,-1,-5,-4,-2,-15,-1
1532544041607,-2,-3,-6,-5,0,-2,0,0
1532544041612,7,-5,-1,0,7,2,-9,-4
1532544041617,12,4,2,3,0,1,-19,-2
1532544041622,-7,-1,1,9,1,2,1,-1
1532544041627,3,-4,-5,-13,-5,-3,-12,0
1532544041632,-2,0,2,5,4,1,-8,4
1532544041637,4,3,-2,-3,-4,-4,-18,-3
1532544041642,-14,0,-1,-6,-1,-3,-10,-6
1532544041647,3,-4,0,2,4,1,-8,-2
1532544041652,31,-11,0,4,-3,-5,-17,5
1532544041657,-34,1,-5,-7,1,3,2,-3
1532544041662,3,-7,-2,-8,-6,-6,-15,-5
1532544041667,19,0,0,0,1,1,-3,5
1532544041672,-30,-3,-2,-4,3,0,-6,-3
1532544041677,21,2,3,4,-1,-4,-6,1
1532544041682,-6,-1,2,5,4,3,0,-1
1532544041687,-2,-5,-4,-4,0,-1,-5,-3
1532544041692,-15,8,-1,-3,-5,-7,-10,2
1532544041697,2,-6,-3,-6,-6,8,3,0
1532544041702,-8,1,-2,0,0,2,3,-6
1532544041707,-5,0,4,8,4,1,-5,-4
1532544041712,4,6,2,-1,-4,-1,10,-2
1532544041717,12,-2,-3,-3,9,-5,-13,3
1532544041722,0,-2,-1,-5,-13,1,5,-4
1532544041727,2,-5,-1,1,2,-3,7,6
1532544041732,-14,-7,-3,1,2,-2,9,-8
1532544041737,11,-2,1,2,1,0,-3,11
1532544041742,7,3,0,-5,-4,-4,7,-7
1532544041747,-1,-2,-3,-1,-4,-6,-6,4
1532544041752,-35,1,-2,4,2,7,6,-10
1532544041757,-2,-3,0,3,2,-1,10,-7
1532544041762,-2,-1,-2,1,2,-3,-13,3
1532544041767,2,2,-2,1,-5,0,-3,-2
1532544041772,25,-2,-5,-14,-7,-11,6,3
1532544041777,-19,-8,-3,0,0,2,9,-5
1532544041782,-19,2,3,3,-5,1,-2,-1
1532544041787,4,-1,-1,3,12,5,-10,-5
1532544041792,3,2,0,0,-2,-1,6,3
1532544041797,6,3,-3,-10,-6,-6,-6,1
1532544041802,3,-2,1,5,3,3,4,5
1532544041807,-9,1,1,7,-2,-2,4,-4
1532544041812,12,1,0,-2,6,0,7,3
1532544041817,24,3,-4,-10,-6,-3,-15,2
1532544041822,-50,-6,-2,5,2,-5,21,-10
1532544041827,-5,-1,1,2,3,13,-16,3
1532544041832,9,11,3,3,7,4,12,-1
1532544041837,-1,1,-2,-1,-8,-4,2,1
1532544041842,23,0,-3,-5,3,-1,-1,12
1532544041847,-14,1,1,3,-4,-3,6,-2
1532544041852,-5,-5,-3,-8,-8,-4,-12,-4
1532544041857,7,3,1,-5,-7,0,-1,3
1532544041862,-3,2,-3,1,11,1,21,-5
1532544041867,1,-4,1,-6,-7,-9,-15,-3
1532544041872,-4,3,4,15,13,17,-5,-8
1532544041877,-6,-4,-4,-14,-12,-8,4,-3
1532544041882,6,0,-4,-6,-6,1,-9,-1
1532544041887,1,2,1,-2,2,-4,5,-1
1532544041892,0,-3,0,3,-2,-5,2,4
1532544041897,10,0,0,8,7,3,-2,2
1532544041902,19,1,2,-1,-1,-3,-4,-1
1532544041907,-33,0,-2,3,4,-1,2,0
1532544041912,-5,-6,-6,-17,-14,-2,-4,-4
1532544041917,-3,-3,1,7,8,0,10,-2
1532544041922,12,0,0,1,-4,3,-6,5
1532544041927,1,-1,0,0,1,0,0,-3
1532544041932,-2,-1,-1,3,3,0,9,-1
1532544041937,-5,7,0,3,3,-20,-19,2
1532544041942,1,-8,-4,-11,-7,22,7,-7
1532544041947,-2,-1,-2,2,1,4,2,-4
1532544041952,-4,-6,-2,-8,-5,-2,8,-1
1532544041957,18,0,-3,4,8,1,7,0
1532544041962,-32,2,3,4,-3,-9,-3,0
1532544041967,-1,-2,-4,-6,-1,-1,-10,2
1532544041972,15,-1,0,4,1,0,2,3
1532544041977,-1,5,3,7,3,3,-5,-3
1532544041982,18,0,-2,-4,-3,-6,-10,1
1532544041987,-24,-10,-2,-8,-8,0,-1,-4
1532544041992,18,3,1,-2,1,-3,-13,3
1532544041997,-6,-6,-2,2,2,3,-9,4
1532544042002,5,-5,-2,2,-1,1,-9,-5
1532544042007,12,5,0,5,11,-2,-14,0
1532544042012,-3,-5,0,-1,-8,1,-10,-1
1532544042017,-10,3,-3,-9,-6,-2,-8,-5
1532544042022,2,-1,1,6,3,7,-4,3
1532544042027,3,1,-2,-11,-7,-5,-5,-5
1532544042032,-7,1,-1,-7,-3,-3,5,-1
1532544042037,1,-10,-1,0,-3,4,-4,2
1532544042042,-36,-1,0,1,5,-7,-9,-1
1532544042047,3,1,4,9,-4,-3,3,-1
1532544042052,-1,-1,-3,1,5,2,-2,-1
1532544042057,-8,-5,-4,-8,-1,-5,-15,-2
1532544042062,21,-1,-2,-2,-8,1,-1,1
1532544042067,17,4,3,10,7,-2,3,-1
1532544042072,-23,-5,-3,-12,-12,5,6,-7
1532544042077,-6,-1,1,2,3,3,16,0
1532544042082,19,2,-2,2,2,-5,-9,2
1532544042087,-18,-2,-2,1,-3,-1,10,-5
1532544042092,21,-4,-1,4,1,-4,-1,6
1532544042097,-13,0,-2,-7,-4,7,-13,-1
1532544042102,7,1,0,-8,-3,-6,5,-4
1532544042107,-7,-4,-2,2,-2,3,2,-2
1532544042112,-6,0,1,1,8,1,1,-4
1532544042117,-6,-1,-1,1,-7,0,13,1
1532544042122,14,2,-1,5,0,-12,-10,2
1532544042127,10,1,2,-3,-1,9,0,3
1532544042132,-2,-4,-4,-3,-3,-6,1,0
1532544042137,-6,-9,-3,-11,-2,-8,2,-7
1532544042142,5,7,3,13,4,-2,2,-5
1532544042147,11,1,-4,-15,-8,3,7,0
1532544042152,4,-3,-1,0,-4,-3,-2,-3
1532544042157,17,3,1,6,6,0,1,14
1532544042162,-2,-6,-2,0,4,-2,0,-2
1532544042167,7,-2,-2,-4,-6,-2,-3,-4
1532544042172,-20,-2,1,3,3,1,9,4
1532544042177,-6,2,-1,1,0,1,12,-3
1532544042182,-6,-3,-1,-3,0,1,-2,-1
1532544042187,-3,-1,-1,7,10,-2,-2,0
1532544042192,4,2,-1,-1,-9,-2,-4,-7
1532544042197,2,4,1,-1,4,1,-2,4
1532544042202,-14,-8,-1,-6,-8,-2,6,-3
1532544042207,2,-1,-1,-3,-2,-4,1,2
1532544042212,5,3,3,14,10,18,-2,2
1532544042217,-3,-4,-5,-8,-5,-5,-3,-7
1532544042222,23,1,-4,-12,-13,0,5,-3
1532544042227,11,5,-3,-9,-5,-7,-10,3
1532544042232,-12,-3,1,3,3,-3,6,2
1532544042237,-5,0,4,10,3,5,-2,-2
1532544042242,20,7,1,3,1,-2,-3,7
1532544042247,-26,-13,0,0,2,-3,11,0
1532544042252,-9,4,-1,-1,0,0,-13,-12
1532544042257,-4,-3,0,5,-6,-1,8,-4
1532544042262,-3,0,0,-10,3,0,-4,0
1532544042267,5,5,-2,-3,-8,-2,-1,2
1532544042272,-15,-5,0,-2,0,-2,13,5
1532544042277,-2,-3,-1,5,4,0,3,-8
1532544042282,-21,-4,3,6,6,-5,0,-1
1532544042287,-7,-4,-1,-2,0,10,-9,-1
1532544042292,-2,0,-5,-18,-8,-5,-4,0
1532544042297,-5,-3,-4,-4,-8,-8,-3,-7
1532544042302,-4,0,1,5,2,3,7,5
1532544042307,8,-3,2,4,2,-4,-3,0
1532544042312,-25,4,2,6,3,-1,5,0
1532544042317,-3,-1,0,-2,4,1,-11,2
1532544042322,11,-3,-3,-12,-11,-1,-7,0
1532544042327,-9,9,-2,-4,-3,-1,-5,-7
1532544042332,11,-3,0,3,-1,2,-6,-1
1532544042337,-9,-4,-1,-1,4,-1,1,-2
1532544042342,1,-1,-2,-2,1,-1,-3,3
1532544042347,4,-2,1,1,1,0,2,0
1532544042352,13,3,0,1,0,1,-19,-2
1532544042357,-2,-1,2,8,4,-13,-3,-1
1532544042362,10,-1,-8,-8,-2,12,-13,-1
1532544042367,-23,-8,-4,-9,-9,-4,9,-5
1532544042372,22,4,1,2,1,-5,-14,3
1532544042377,-12,-4,0,1,4,3,-5,-2
1532544042382,7,7,1,1,-6,-2,-4,2
1532544042387,12,-4,-2,5,2,-2,-9,2
1532544042392,-25,-8,-3,-3,1,1,5,3
1532544042397,-9,4,0,-4,-6,-4,-6,-6
1532544042402,12,-2,-4,-3,-4,2,6,3
1532544042407,-29,-4,-1,2,1,2,-9,-11
1532544042412,10,-1,1,3,-2,-5,-2,1
1532544042417,2,-1,-3,-1,1,7,2,2
1532544042422,2,0,1,8,6,-2,0,-2
1532544042427,11,-1,-1,-2,1,-3,0,6
1532544042432,0,3,-2,-8,-5,-1,0,-6
1532544042437,2,-2,-2,-10,-7,12,-2,3
1532544042442,-19,-2,1,2,-1,0,11,-5
1532544042447,11,2,3,4,-1,-3,-23,-5
1532544042452,8,-3,-8,-9,3,-2,19,1
1532544042457,5,-2,-2,-11,-5,-3,0,0
1532544042462,-4,0,-1,-1,-6,-6,10,-2
1532544042467,-10,1,3,3,4,5,-7,4
1532544042472,5,1,2,12,4,1,-3,-1
1532544042477,-10,3,0,-2,-6,-3,4,-2
1532544042482,7,-4,0,4,6,0,6,-2
1532544042487,1,3,-3,-6,-7,-3,6,4
1532544042492,2,2,-2,-7,-7,-2,-5,-9
1532544042497,5,-8,-2,3,0,1,7,1
1532544042502,-8,0,1,-5,5,1,-12,-1
1532544042507,3,-2,-4,-1,-6,-2,10,-1
1532544042512,19,-9,-2,-2,3,2,-3,3
1532544042517,18,11,1,10,-1,-3,0,-4
1532544042522,-36,-8,-6,-14,2,-1,3,-6
1532544042527,22,3,-1,-4,-5,1,5,4
1532544042532,6,-5,1,2,-3,-4,6,3
1532544042537,7,1,4,6,5,-5,-2,7
1532544042542,2,0,1,7,-2,11,-12,-8
1532544042547,0,-3,-4,-3,6,-4,13,-2
1532544042552,-7,4,0,-2,-11,-9,1,0
1532544042557,1,1,1,2,4,14,-11,1
1532544042562,22,3,-2,0,-3,-5,1,6
1532544042567,-31,-10,-4,-7,5,-1,5,-12
1532544042572,0,2,-1,1,-13,-3,-6,0
1532544042577,-7,-3,0,9,5,-5,4,1
1532544042582,20,1,-2,-14,-6,-1,-9,2
1532544042587,2,-5,-1,-1,-1,0,0,-3
1532544042592,-15,-7,-3,-2,-1,-1,2,-3
1532544042597,-5,-1,-1,-2,-4,-4,1,-2
1532544042602,-3,2,2,4,5,1,-1,0
1532544042607,26,4,2,3,-3,-1,-4,2
1532544042612,-34,-1,1,-4,8,4,-1,1
1532544042617,6,-3,-5,-9,-11,-3,-3,1
1532544042622,-34,1,1,1,-1,-4,2,-9
1532544042627,-5,1,2,0,-2,-1,-5,-1
1532544042632,16,0,2,10,4,-3,5,2
1532544042637,1,0,2,3,11,7,-12,-3
1532544042642,-6,-10,-5,-13,-9,-7,35,1
1532544042647,3,2,-3,-5,-11,1,-48,1
1532544042652,19,0,2,4,6,2,3,-4
1532544042657,-9,0,1,4,-2,-6,3,2
1532544042662,9,-3,-2,3,3,-3,-9,4
1532544042667,-17,-6,-3,-3,4,1,15,-4
1532544042672,7,3,-2,-5,-3,0,-6,-5
1532544042677,0,-8,-3,-6,-3,1,7,-5
1532544042682,16,5,3,10,2,1,-13,4
1532544042687,15,3,-1,-2,0,-3,8,9
1532544042692,-15,-3,-1,-2,-1,0,-12,-10
1532544042697,-9,0,0,4,2,0,2,-3
1532544042702,-3,1,-2,-4,2,-1,-6,-2
1532544042707,4,-4,-3,-6,-6,-5,-5,-3
1532544042712,4,1,-1,-2,0,-1,3,5
1532544042717,-8,3,5,10,3,-7,-10,-6
1532544042722,2,-3,2,2,0,18,-8,3
1532544042727,-8,1,-2,-9,9,-2,-7,-2
1532544042732,3,-4,-5,-10,-12,-2,-3,-2
1532544042737,0,2,-2,-4,-3,-2,2,0
1532544042742,-1,1,3,8,3,-9,-11,-1
1532544042747,3,-3,3,16,6,4,-8,1
1532544042752,-11,12,-5,-14,-12,0,-3,4
1532544042757,-1,1,-3,-10,-2,-6,1,-2
1532544042762,-3,-14,-3,-2,-8,0,-21,-2
1532544042767,-14,6,2,6,2,6,6,-7
1532544042772,12,-5,3,7,7,-2,-5,1
1532544042777,-1,-2,-6,-6,-6,0,-1,-1
1532544042782,7,6,0,1,5,0,-6,-3
1532544042787,-29,-3,-1,-4,-7,-5,3,3
1532544042792,5,-1,-3,-10,-3,-1,-4,0
1532544042797,3,-2,2,4,1,-2,-3,0
1532544042802,-5,-6,-6,-12,-6,-6,1,0
1532544042807,4,2,2,9,-1,4,3,-4
1532544042812,8,1,1,6,5,-1,5,0
1532544042817,-11,-3,2,-1,-3,7,0,-1
1532544042822,9,5,1,10,8,2,5,0
1532544042827,-9,-5,-1,-6,-13,-4,6,4
1532544042832,-18,-6,-5,-8,5,-2,3,-3
1532544042837,9,-3,-5,-12,-12,-3,-4,2
1532544042842,6,1,2,8,-1,-4,1,-2
1532544042847,-7,-4,0,3,0,1,18,-10
1532544042852,-6,-8,0,6,10,2,1,1
1532544042857,3,1,0,5,10,0,4,2
1532544042862,0,2,0,-6,-9,-3,4,-3
1532544042867,0,2,-4,-12,-4,-4,-13,2
1532544042872,13,-1,-3,3,-1,-2,-1,1
1532544042877,0,-1,-1,0,2,8,0,-2
1532544042882,13,5,1,6,2,-6,-5,2
1532544042887,-25,-2,4,8,6,3,11,-3
1532544042892,-5,-2,-5,-11,-1,-4,4,1
1532544042897,2,1,-3,-1,-6,-4,-23,-2
1532544042902,-9,-1,-2,-4,-5,-14,13,-3
1532544042907,19,2,-3,2,4,9,-10,1
1532544042912,-7,-1,2,8,-2,2,10,-5
1532544042917,-4,-4,-2,-2,-7,-4,8,-2
1532544042922,-12,-4,-4,-3,0,4,-3,-4
1532544042927,40,7,-2,1,2,-7,-3,7
1532544042932,-8,-5,4,11,7,5,-8,4
1532544042937,3,-3,-2,-15,-7,-3,3,-5
1532544042942,-8,0,0,-2,-8,1,-2,-2
1532544042947,-6,-2,-1,1,3,-10,5,0
1532544042952,8,4,4,8,-1,10,3,-2
1532544042957,39,10,0,-1,5,-2,-14,0
1532544042962,-50,-8,-6,-10,-3,4,8,-7
1532544042967,-9,0,-1,-1,4,-1,-1,-2
1532544042972,8,4,-1,-4,-7,-2,0,2
1532544042977,-2,-3,2,7,-1,-2,3,-2
1532544042982,16,0,1,-3,6,4,-4,6
1532544042987,-2,-3,-1,7,-2,0,0,1
1532544042992,-23,-6,-6,-11,2,-8,-12,-17
1532544042997,-19,-6,-1,-2,-1,3,15,4
1532544043002,13,11,3,5,2,1,-2,1
1532544043007,-15,-5,0,-1,-7,-2,-8,-1
1532544043012,16,1,0,-8,-4,1,0,6
1532544043017,-6,-1,-4,-6,-5,-1,-11,2
1532544043022,3,-2,-1,4,3,0,4,-2
1532544043027,14,5,-1,3,4,-1,-10,1
1532544043032,-21,-9,-4,-5,-7,-2,6,-1
1532544043037,-1,3,-2,-1,0,-14,2,-3
1532544043042,18,-3,0,-1,-5,19,-13,2
1532544043047,-24,-1,-3,-2,1,-6,18,-4
1532544043052,15,5,2,5,2,3,-12,6
1532544043057,-4,-6,0,-2,0,-2,3,2
1532544043062,-7,-3,-1,4,2,-7,-9,-5
1532544043067,16,-1,-3,-13,-12,-4,1,-2
1532544043072,-11,0,2,5,0,-4,4,-12
1532544043077,8,-3,4,16,12,7,5,2
1532544043082,-38,-5,-4,-11,-2,-6,-27,-3
1532544043087,37,-2,-5,-6,-8,3,-1,7
1532544043092,-5,2,-2,-7,-4,-8,-6,2
1532544043097,-13,-2,1,-2,-6,3,-10,1
1532544043102,14,5,2,12,15,14,-6,0
1532544043107,5,3,-2,0,0,-3,-9,0
1532544043112,-31,-10,-5,-13,-8,-8,5,1
1532544043117,3,8,-1,2,0,-1,1,-5
1532544043122,1,-6,-2,-3,-4,-5,-5,2
1532544043127,-18,-5,2,7,1,6,-3,-3
1532544043132,22,3,0,-2,4,1,14,3
1532544043137,-7,-5,0,0,-2,-2,-23,0
1532544043142,-8,-1,0,-5,0,-3,1,-1
1532544043147,8,-1,-3,-2,-2,-5,-1,9
1532544043152,-27,2,1,-4,0,1,-1,-6
1532544043157,-6,-2,-3,-1,-5,2,6,-5
1532544043162,2,0,0,5,2,-6,1,3
1532544043167,-1,-2,0,-9,-10,10,-1,-4
1532544043172,17,7,-4,4,5,-2,5,-1
1532544043177,-3,-8,1,-4,3,-1,10,4
1532544043182,-12,-2,-2,-3,-3,-3,1,-1
1532544043187,15,2,-2,6,-2,-13,5,-5
1532544043192,-23,-1,4,3,4,10,6,-3
1532544043197,-2,-5,-4,-7,-10,-4,1,-4
1532544043202,7,-1,-5,-10,-4,2,9,0
1532544043207,-4,-2,0,-2,0,-1,-8,2
1532544043212,9,-4,-1,10,3,-5,-6,-4
1532544043217,-5,5,2,1,2,-4,9,2
1532544043222,8,-5,-1,0,-3,0,3,1
1532544043227,-16,-3,-5,-5,8,5,-1,-11
1532544043232,5,-1,1,1,-5,1,0,-7
1532544043237,-9,-5,-1,-1,-1,2,0,1
1532544043242,19,3,-2,-4,-5,-5,3,3
1532544043247,-1,2,3,-1,-4,4,4,0
1532544043252,5,-3,-4,7,7,-3,5,2
1532544043257,8,5,-1,3,-1,2,-11,-4
1532544043262,6,-7,-4,-18,-6,-5,7,-2
1532544043267,-2,3,-2,-3,-2,-3,5,-4
1532544043272,-20,-10,-2,-6,2,2,-1,-4
1532544043277,7,3,2,8,4,-2,-4,2
1532544043282,-10,-4,-2,9,1,-1,2,-2
1532544043287,-3,6,-1,-2,0,8,5,4
1532544043292,19,0,-2,1,3,-2,13,0
1532544043297,15,2,-2,-10,3,5,0,-2
1532544043302,-2,3,-1,0,-5,-6,-4,5
1532544043307,-9,-9,-6,-13,-5,-3,12,-8
1532544043312,17,1,3,7,3,2,-22,-2
1532544043317,-7,1,3,6,3,-5,2,-2
1532544043322,13,0,-1,-7,-3,7,-4,-1
1532544043327,4,7,3,7,1,-4,6,1
1532544043332,-6,-2,-4,-6,3,8,3,0
1532544043337,1,-3,-1,-5,-5,-7,-9,-4
1532544043342,4,-3,-2,-7,-9,-9,1,-2
1532544043347,1,-3,2,3,4,1,2,0
1532544043352,-5,1,1,9,-2,1,8,1
1532544043357,13,-5,-4,-12,-3,-3,-4,0
1532544043362,-25,1,-2,-5,-10,0,-3,-4
1532544043367,2,-2,-2,-3,-3,0,2,0
1532544043372,12,-1,2,10,10,-14,9,2
1532544043377,-13,1,-4,-10,-10,21,10,-1
1532544043382,-6,-8,0,7,6,-36,-17,4
1532544043387,20,0,-4,1,2,6,-5,4
1532544043392,-7,-1,-2,3,-1,10,-2,-7
1532544043397,-10,9,0,6,3,25,1,2
1532544043402,-18,4,-4,-12,-5,-54,0,-3
1532544043407,-5,1,0,-4,-7,21,-16,-4
1532544043412,10,1,-1,0,2,-24,3,-4
1532544043417,-40,-13,0,2,4,-10,-12,-7
1532544043422,15,3,0,4,6,40,-14,-1
1532544043427,-7,-2,-1,6,0,-32,-11,2
1532544043432,7,8,0,-14,-8,10,14,9
1532544043437,6,-9,-1,1,1,44,-15,-3
1532544043442,38,1,1,3,4,25,-7,2
1532544043447,-41,-4,-2,3,0,-8,-16,-9
1532544043452,-7,1,-2,-11,-8,-3,-17,-2
1532544043457,17,0,0,3,-2,-53,-11,2
1532544043462,-12,-1,4,3,-4,11,-5,-8
1532544043467,10,1,-3,-7,-9,-33,4,0
1532544043472,-8,-2,-2,-1,-2,74,-24,4
1532544043477,-1,7,0,2,19,4,-29,4
1532544043482,19,-18,-3,1,6,-16,17,4
1532544043487,-6,-1,1,-3,-8,35,-6,-6
1532544043492,11,-8,0,11,6,-71,24,0
1532544043497,14,10,-2,-8,-15,-19,-3,4
1532544043502,-4,2,-2,-6,-2,19,0,4
1532544043507,-1,2,2,-2,0,-26,22,0
1532544043512,0,-4,-6,-9,-1,3,-27,-8
1532544043517,-3,2,3,8,-1,8,22,0
1532544043522,-12,4,1,0,1,-29,-4,-3
1532544043527,15,-7,-2,-1,-4,-48,4,1
1532544043532,-5,4,7,11,15,61,-13,1
1532544043537,-11,-1,-1,3,4,-7,-3,5
1532544043542,-2,-3,-3,-7,-11,7,7,-2
1532544043547,15,-4,-3,-2,0,21,-7,3
1532544043552,-30,8,-1,3,0,-40,-2,-2
1532544043557,1,-1,2,4,13,14,-7,-8
1532544043562,-3,-1,0,6,3,-17,-16,3
1532544043567,4,-8,-9,-8,3,1,8,-1
1532544043572,30,8,3,-3,-8,-19,-13,9
1532544043577,-63,-2,0,2,-4,18,25,4
1532544043582,19,6,5,3,-5,-51,20,2
1532544043587,1,-8,0,2,4,37,-10,0
1532544043592,-38,-5,-10,-12,-1,-13,4,-9
1532544043597,33,8,6,8,-4,-13,3,10
1532544043602,3,-3,-4,-6,0,-3,-1,-7
1532544043607,-11,1,4,7,-3,-47,11,-1
1532544043612,20,9,2,5,5,25,-13,4
1532544043617,9,-12,-4,1,4,72,-7,-1
1532544043622,-50,3,2,-8,0,-26,-3,-3
1532544043627,13,-5,-3,0,-6,-45,11,-5
1532544043632,-24,-5,-6,1,1,19,-3,4
1532544043637,16,13,-1,-9,-7,-20,-11,-1
1532544043642,13,-5,-3,0,0,14,-1,2
1532544043647,-23,0,13,10,-2,16,-2,-8
1532544043652,20,0,50,10,2,-43,-5,0
1532544043657,20,7,-76,-11,3,9,10,8
1532544043662,-10,-5,-34,-9,-7,-18,8,-5
1532544043667,28,6,-17,-2,3,-6,-4,5
1532544043672,-34,-9,-13,1,2,6,-9,-6
1532544043677,-11,-5,43,5,-3,15,4,-2
1532544043682,25,-3,2,-4,1,-4,-1,0
1532544043687,-39,-4,-2,7,0,-10,3,-1
1532544043692,23,15,9,7,5,11,7,2
1532544043697,7,-2,5,-10,-4,-18,-13,-2
1532544043702,-30,-11,-7,-11,-9,11,2,-7
1532544043707,-32,-6,9,0,1,-37,1,-6
1532544043712,65,9,-8,-4,3,75,13,6
1532544043717,11,-4,3,5,-4,-35,-9,3
1532544043722,27,27,9,6,4,-27,-6,2
1532544043727,-6,-6,2,-4,-6,59,-18,-4
1532544043732,-7,-1,-9,9,7,-20,-13,-7
1532544043737,-11,-9,-11,-15,-17,-35,-10,-6
1532544043742,-2,-3,10,-7,-4,54,-10,-1
1532544043747,14,-1,12,5,9,-17,-1,5
1532544043752,-10,0,-36,-7,-4,-6,-15,-2
1532544043757,-23,0,5,-1,4,20,-5,3
1532544043762,-9,-9,19,13,5,0,-14,0
1532544043767,11,8,-23,0,2,17,-12,-2
1532544043772,10,0,18,-4,-3,-15,-9,1
1532544043777,14,-3,-20,7,2,-14,-16,-1
1532544043782,-6,0,-39,-11,3,-16,-1,3
1532544043787,2,0,19,-4,-16,40,-9,-4
1532544043792,2,-7,-1,-10,-1,-28,-19,1
1532544043797,-10,-4,17,5,-2,-11,-9,-2
1532544043802,3,-7,14,9,2,8,-17,-3
1532544043807,1,-22,-11,-5,4,2,-3,4
1532544043812,-6,28,3,-3,-12,-22,15,-1
1532544043817,6,2,10,4,9,28,-5,-5
1532544043822,17,11,6,7,-1,-9,-1,2
1532544043827,-24,-15,-4,-1,1,-27,9,-4
1532544043832,-1,-17,-12,-12,-4,11,-13,-1
1532544043837,2,17,6,0,3,13,10,-3
1532544043842,0,-10,16,-2,2,25,8,5
1532544043847,3,15,10,11,6,-36,1,-1
1532544043852,5,-23,-85,-29,-13,-11,15,0
1532544043857,-21,-4,6,5,0,9,-1,-5
1532544043862,-6,-2,-4,-7,-4,0,-1,-4
1532544043867,6,5,28,6,2,4,1,-1
1532544043872,3,-2,21,14,4,0,2,1
1532544043877,52,10,51,-4,-2,-8,-21,5
1532544043882,-77,-30,-92,-11,-6,-1,22,-4
1532544043887,12,2,16,-2,4,-8,1,-1
1532544043892,-10,-3,2,-6,-10,0,-2,-9
1532544043897,-15,-4,-2,-8,-4,-1,-5,2
1532544043902,29,7,34,11,4,24,4,4
1532544043907,2,3,-25,-8,-4,-23,0,0
1532544043912,-2,6,15,9,5,8,4,0
1532544043917,1,-8,25,4,1,7,14,-5
1532544043922,12,-1,-30,0,-4,-19,1,3
1532544043927,-11,-3,-9,6,7,-25,5,-6
1532544043932,10,4,11,-1,4,39,-21,3
1532544043937,-44,-7,5,-13,-8,-15,3,-4
1532544043942,38,4,2,-4,-6,50,-7,-1
1532544043947,-5,2,-7,-1,-3,-35,-2,0
1532544043952,4,-3,23,16,7,1,3,-1
1532544043957,33,6,-19,1,3,13,6,11
1532544043962,-21,-2,21,-2,-9,-42,1,-11
1532544043967,-13,-3,-14,-3,-1,33,-8,3
1532544043972,-3,-9,-19,-7,0,-6,8,-1
1532544043977,-22,6,22,2,-2,-6,2,-7
1532544043982,13,0,-20,0,6,-1,2,-12
1532544043987,24,12,42,-4,-13,-10,-6,16
1532544043992,-19,-10,-49,-5,7,-12,8,1
1532544043997,8,-5,-32,0,-4,-57,-8,-12
1532544044002,-12,1,32,3,-6,91,1,26
1532544044007,-13,3,13,-2,-1,-4,26,-13
1532544044012,1,5,20,4,1,-10,18,-1
1532544044017,14,1,-8,-5,-5,-21,3,-7
1532544044022,15,1,23,7,2,-5,-13,-2
1532544044027,34,2,-14,-5,0,16,10,7
1532544044032,-23,-12,-28,-4,-1,-3,-15,1
1532544044037,29,10,-10,-1,-1,14,4,11
1532544044042,-4,3,30,-5,-7,-28,14,-10
1532544044047,-6,3,-25,-5,4,28,-13,-9
1532544044052,2,-5,32,6,4,-8,12,10
1532544044057,-20,-3,-25,8,7,10,10,9
1532544044062,4,4,-6,-3,-3,-45,9,-2
1532544044067,-38,1,44,5,-2,-18,-7,-1
1532544044072,19,5,-65,-13,7,72,-29,2
1532544044077,-33,-29,26,-1,-10,-48,28,-5
1532544044082,50,1,-24,-1,9,54,-16,-7
1532544044087,-18,-7,-39,-5,-3,-21,9,-6
1532544044092,38,7,31,1,-4,-31,10,5
1532544044097,-56,1,-7,-3,0,15,-5,-2
1532544044102,0,-8,25,-4,-5,75,-13,1
1532544044107,3,4,1,11,11,-84,20,-2
1532544044112,5,13,14,2,0,20,11,6
1532544044117,15,-7,-20,-9,-2,4,12,-4
1532544044122,-14,1,30,-5,-13,-67,-8,-11
1532544044127,19,0,-66,-8,0,34,25,14
1532544044132,-51,-11,30,15,8,22,13,-5
1532544044137,27,9,5,2,4,13,18,-3
1532544044142,0,-3,-25,-5,-4,-66,1,-3
1532544044147,-4,-9,-21,-16,-17,5,-6,-8
1532544044152,0,-3,20,-5,-5,55,13,6
1532544044157,10,2,0,3,9,3,-6,4
1532544044162,-25,-1,-5,2,-9,-74,6,-5
1532544044167,-22,-7,8,6,14,67,-28,-9
1532544044172,10,5,0,6,2,16,-9,5
1532544044177,19,3,-23,-4,2,20,-1,3
1532544044182,0,-6,6,-1,-1,-14,14,6
1532544044187,16,-9,8,-15,-15,-33,-20,-11
1532544044192,21,8,6,-3,4,0,-14,20
1532544044197,20,5,4,2,-2,32,-19,-3
1532544044202,-42,-1,0,10,12,-32,-3,-2
1532544044207,-12,0,3,3,-13,-2,8,0
1532544044212,15,3,24,-1,-1,-28,-36,-1
1532544044217,-8,-10,-51,-3,2,4,-11,0
1532544044222,9,-6,10,-6,-7,-7,6,-1
1532544044227,12,10,11,2,3,14,7,-1
1532544044232,0,4,-18,4,-3,-39,3,-1
1532544044237,-34,-28,0,4,-6,-15,31,-7
1532544044242,14,3,-13,-5,13,97,15,-5
1532544044247,-17,8,24,5,-2,-54,1,2
1532544044252,11,-6,-7,-4,-6,-8,26,1
1532544044257,-7,-6,-9,-20,-4,69,-7,-4
1532544044262,16,4,-6,-4,-13,-8,13,5
1532544044267,-7,-8,9,1,6,-32,8,-3
1532544044272,-17,4,23,2,0,80,-10,-6
1532544044277,6,1,9,13,20,-57,13,8
1532544044282,3,3,-4,-2,-3,45,-5,-5
1532544044287,4,3,-1,-1,-9,-32,12,0
1532544044292,-17,-5,-9,-4,-5,-63,-33,-6
1532544044297,7,2,-5,-6,-3,-37,-29,1
1532544044302,0,0,-1,3,-5,-9,3,4
1532544044307,0,-7,0,13,19,-9,-20,-4
1532544044312,-30,3,-9,-11,-9,19,1,-2
1532544044317,8,-1,6,-1,1,52,-27,-6
1532544044322,16,5,23,0,1,-57,-33,14
1532544044327,12,10,-2,8,2,91,11,-1
1532544044332,-31,6,21,3,-2,-83,15,-6
1532544044337,6,-26,-37,1,8,78,7,-6
1532544044342,36,27,15,-4,-7,-15,14,-1
1532544044347,-25,-25,32,-1,0,15,-44,2
1532544044352,14,-1,-56,-2,1,-14,-35,-1
1532544044357,-9,22,41,2,-9,57,-15,-1
1532544044362,-19,-24,-10,7,10,-33,-10,7
1532544044367,42,7,-14,-23,-3,51,12,-1
1532544044372,-16,-5,-25,5,-4,-28,13,-3
1532544044377,11,0,1,4,7,-23,6,3
1532544044382,7,-5,-18,-7,-6,-6,7,-6
1532544044387,-27,-4,8,-25,-7,-31,2,-5
1532544044392,-25,12,16,6,0,-82,4,-5
1532544044397,10,6,-10,6,-12,-63,2,1
1532544044402,-16,1,6,6,11,25,-5,-2
1532544044407,12,-7,49,5,-13,-128,-3,-1
1532544044412,3,-15,-85,-11,11,127,2,-6
1532544044417,-22,9,25,23,21,-54,1,9
1532544044422,5,-2,4,-7,-21,-24,-5,-2
1532544044427,-10,-3,-25,-17,-3,-2,-2,-3
1532544044432,15,-7,18,0,-7,-6,8,-1
1532544044437,-9,7,15,11,5,27,-2,-1
1532544044442,0,-10,-9,-11,-5,-33,-5,-3
1532544044447,1,12,-2,8,11,74,-1,1
1532544044452,-17,-7,18,-2,-3,9,-1,-4
1532544044457,-12,0,-19,4,-5,-10,1,1
1532544044462,12,-1,12,-6,1,-73,0,-5
1532544044467,-11,-4,7,-2,-6,-43,-6,-1
1532544044472,-4,-4,-16,-5,12,91,1,-1
1532544044477,-7,-4,-12,-2,-11,29,-1,-15
1532544044482,13,-2,21,16,18,-8,-2,-18
1532544044487,-26,2,-9,-13,-21,-53,7,25
1532544044492,14,-1,-4,-6,-2,-40,-6,3
1532544044497,-7,1,-15,6,-9,-44,1,11
1532544044502,33,8,28,11,18,35,-1,9
1532544044507,-28,-7,-23,-24,-25,-61,-22,-21
1532544044512,4,-1,-4,-1,5,-4,-113,-2
1532544044517,-7,-6,-6,3,-2,-54,-119,-3
1532544044522,8,-6,5,8,-4,12,-52,-4
1532544044527,-3,8,-2,-4,1,11,8,6
1532544044532,-11,-6,-5,-2,-7,-78,49,3
1532544044537,9,0,1,-3,2,111,93,-4
1532544044542,9,-2,-9,-6,-3,-46,68,6
1532544044547,15,-1,8,1,-6,-14,21,0
1532544044552,-3,-2,0,-1,11,65,23,-4
1532544044557,-3,0,-2,6,-11,-117,5,-2
1532544044562,-8,3,9,4,-1,-52,25,5
1532544044567,11,5,1,3,10,31,11,-7
1532544044572,-4,0,-4,9,12,17,3,1
1532544044577,7,-3,-5,-10,7,-41,9,-7
1532544044582,-16,0,-4,-18,-23,-15,-4,8
1532544044587,37,1,14,6,4,15,-41,-22
1532544044592,-34,-7,-10,10,1,-45,-19,13
1532544044597,0,-5,-8,-4,5,72,2,52
1532544044602,0,6,4,0,2,36,12,-14
1532544044607,32,9,6,0,-5,-33,17,8
1532544044612,-29,-6,17,13,15,85,20,-17
1532544044617,26,-9,-21,-4,-4,-4,22,-8
1532544044622,-64,7,13,0,1,-22,-7,6
1532544044627,-19,7,2,12,-10,-35,-2,-11
1532544044632,69,-2,-26,-25,-2,69,19,1
1532544044637,-27,6,4,-5,-3,9,-5,-5
1532544044642,-20,-10,7,3,7,12,-14,-4
1532544044647,-4,-10,-7,1,1,-5,-12,-10
1532544044652,12,-7,5,3,0,-13,-10,2
1532544044657,-25,6,4,12,7,-48,6,-4
1532544044662,27,3,-13,-10,-10,80,0,4
1532544044667,-12,-5,5,-7,1,-7,17,1
1532544044672,-33,3,0,13,-1,-42,22,-1
1532544044677,34,4,-8,-15,-12,58,15,-6
1532544044682,14,-1,37,-1,3,5,-39,1
1532544044687,-6,-12,-68,-9,7,10,-14,3
1532544044692,1,7,3,-3,0,-15,-26,-7
1532544044697,-27,-4,-7,2,1,19,-30,-11
1532544044702,21,-13,8,4,-9,-18,5,0
1532544044707,47,16,19,-6,6,76,16,23
1532544044712,6,4,-10,1,-5,-109,32,-5
1532544044717,-2,1,36,15,10,13,23,-3
1532544044722,-7,-2,-62,-17,-9,-16,15,-11
1532544044727,11,-9,5,-6,-3,15,22,-2
1532544044732,-2,1,6,1,-5,40,-6,4
1532544044737,0,1,6,5,11,-34,-9,-4
1532544044742,1,-7,3,2,8,33,4,5
1532544044747,-8,-3,6,7,-8,-6,9,-5
1532544044752,-2,2,-2,-15,-6,0,-12,1
1532544044757,-8,-1,-6,4,-1,25,0,-1
1532544044762,9,4,5,-3,2,-12,13,-1
1532544044767,-9,-6,9,-2,-2,-27,-45,2
1532544044772,13,2,4,-5,-7,-9,-2,-7
1532544044777,-53,-6,-14,1,-8,-30,-11,-5
1532544044782,55,0,-13,-5,7,-26,-12,4
1532544044787,-15,-7,-14,-9,-8,28,3,1
1532544044792,21,4,12,12,5,36,-15,4
1532544044797,38,1,4,-3,-1,-74,-12,6
1532544044802,-14,0,0,4,-5,56,0,-1
1532544044807,-7,1,29,4,2,-29,-11,-4
1532544044812,-8,-4,-17,0,-3,27,-13,-2
1532544044817,25,0,-25,-15,-4,-10,2,-3
1532544044822,-51,-6,10,5,-8,-27,-4,5
1532544044827,12,3,-8,-6,5,60,1,2
1532544044832,-13,0,15,-3,-5,-44,15,0
1532544044837,3,4,2,-4,-4,-1,-9,0
1532544044842,8,-2,-6,5,1,1,-2,1
1532544044847,8,-3,0,-8,-15,-22,-17,-4
1532544044852,-47,-1,6,4,5,10,1,-1
1532544044857,15,3,-9,6,-1,6,0,2
1532544044862,8,4,3,-4,4,-21,-2,-2
1532544044867,-11,0,-1,-2,1,-2,2,-2
1532544044872,29,1,-3,-1,2,2,13,-2
1532544044877,12,-1,-2,-4,-2,10,6,0
1532544044882,-10,-2,-2,-7,-6,-4,5,-5
1532544044887,-3,2,4,5,7,3,3,3
1532544044892,16,-3,-4,0,3,-30,2,2
1532544044897,-43,-3,7,0,4,60,3,-4
1532544044902,1,-1,-11,-9,2,-30,-8,-6
1532544044907,2,-2,13,8,-3,37,-9,7
1532544044912,-2,3,-1,-3,2,34,-10,2
1532544044917,2,-3,-10,10,5,1,-3,-2
1532544044922,5,-2,-14,3,-3,-9,-7,0
1532544044927,-11,-3,-4,-3,1,-9,-10,-6
1532544044932,-3,0,-9,-1,-5,-12,-13,-1
1532544044937,1,-1,18,3,1,12,-8,0
1532544044942,4,1,21,4,-4,-9,-6,0
1532544044947,-10,-6,-37,-6,-3,17,7,-2
1532544044952,-4,-1,9,-6,8,-12,-12,-5
1532544044957,4,-5,-9,-16,-3,-4,-14,-3
1532544044962,-2,-3,-13,-2,-9,-11,-3,0
1532544044967,-2,8,12,5,3,-15,-3,0
1532544044972,5,-1,-4,3,1,6,-8,-1
1532544044977,-4,-2,18,5,-5,-6,-7,0
1532544044982,-8,5,5,6,15,13,-15,-1
1532544044987,-1,0,-1,-4,-6,-8,-13,-3
1532544044992,17,-1,-10,-5,-7,-7,-28,-2
1532544044997,-16,-10,9,-6,-3,0,-37,-2
1532544045002,-3,-3,0,-3,-6,-3,-10,-2
1532544045007,2,-1,-13,-5,1,-10,23,-3
1532544045012,-1,8,63,17,5,6,17,-3
1532544045017,14,-9,-89,-3,-1,1,37,3
1532544045022,2,-3,6,2,2,-2,21,0
1532544045027,-9,-2,14,-8,-6,-8,14,-2
1532544045032,4,-5,-10,3,1,-2,23,4
1532544045037,6,8,29,2,-3,4,11,0
1532544045042,-4,3,2,5,4,1,-7,-5
1532544045047,3,-4,-12,11,4,1,7,0
1532544045052,-12,-2,4,-22,-15,15,17,0
1532544045057,1,2,12,0,-5,-17,7,-3
1532544045062,4,1,-18,9,17,33,6,4
1532544045067,5,1,27,1,-5,-19,2,-2
1532544045072,-18,-11,-42,-7,-7,2,7,-6
1532544045077,-7,2,12,-4,2,1,-17,4
1532544045082,11,-5,13,6,-8,-14,6,-1
1532544045087,6,1,-3,-1,8,3,-6,-2
1532544045092,3,2,6,-1,4,-9,14,-4
1532544045097,4,-3,-47,0,-2,12,7,3
1532544045102,-9,-8,19,-10,-7,-6,-7,2
1532544045107,-9,3,-11,-1,2,3,-1,-8
1532544045112,9,-1,0,5,5,-2,3,2
1532544045117,-3,1,20,-7,-9,0,-1,-2
1532544045122,9,2,-3,-4,1,1,-7,2
1532544045127,-3,-2,-4,-5,-7,-13,-4,0
1532544045132,-8,-1,2,11,14,7,-11,3
1532544045137,10,2,9,3,-5,-2,-14,-5
1532544045142,-5,0,-18,-12,-4,-2,-1,1
1532544045147,-6,-3,6,-7,-5,2,-3,1
1532544045152,3,5,10,17,5,3,-8,5
1532544045157,4,1,4,11,-2,-5,3,-2
1532544045162,-8,-4,-18,6,5,5,-5,-2
1532544045167,-29,2,39,-2,-1,-2,-10,-3
1532544045172,-5,-8,-73,-21,-10,-3,6,-4
1532544045177,1,5,30,2,-3,-6,1,1
1532544045182,-7,-5,3,-7,-6,-4,0,-1
1532544045187,8,-3,-39,5,5,7,10,2
1532544045192,-4,0,21,-2,-1,-1,0,-2
1532544045197,-5,-3,-16,-1,2,2,-6,-2
1532544045202,6,5,20,1,1,2,2,1
1532544045207,4,0,10,0,-5,-1,-3,0
1532544045212,-4,1,11,4,1,-4,0,-1
1532544045217,3,0,-2,14,9,1,-11,0
1532544045222,-5,-4,-18,-13,-16,2,2,-1
1532544045227,6,4,18,-10,-1,-3,5,-1
1532544045232,-11,-4,-52,-9,-8,-5,-6,-5
1532544045237,0,0,30,2,-4,0,10,2
1532544045242,-2,3,0,4,6,-2,2,-1
1532544045247,-2,1,-6,1,-5,4,6,-1
1532544045252,2,-1,6,2,12,-3,2,1
1532544045257,4,-1,17,0,0,-2,-7,1
1532544045262,-6,-3,-54,3,-8,0,-2,-2
1532544045267,2,-1,10,-11,-11,-4,0,-1
1532544045272,3,4,26,5,1,3,0,2
1532544045277,-4,-5,-14,6,4,-1,-6,-1
1532544045282,-4,5,8,-11,-4,-2,1,-2
1532544045287,1,-5,18,1,2,2,-3,-2
1532544045292,0,3,-36,10,0,-2,2,-3
1532544045297,-2,0,31,0,3,8,1,-3
1532544045302,-1,-7,-7,-13,-8,-2,7,1
1532544045307,-2,-3,-32,6,14,-7,-2,-1
1532544045312,-1,1,21,-9,-13,13,4,-2
1532544045317,0,-1,0,3,3,-12,-9,1
1532544045322,-1,1,10,1,-4,-6,2,-2
1532544045327,-1,1,24,4,0,3,-5,0
1532544045332,1,2,14,4,0,-1,2,0
1532544045337,-1,-4,-40,-4,2,1,3,-1
1532544045342,-4,-5,15,-17,-5,-1,-6,-2
1532544045347,-1,-2,-11,6,1,2,2,-4
1532544045352,2,2,2,1,-6,-2,-5,2
1532544045357,-1,-2,-14,-3,3,0,0,-2
1532544045362,0,3,-11,2,4,2,0,-1
1532544045367,1,1,35,-5,-6,-4,-7,-1
1532544045372,0,-3,6,12,6,1,3,0
1532544045377,-3,-3,-35,-19,-12,-2,-4,-2
1532544045382,1,2,21,9,8,-1,2,0
1532544045387,1,4,-3,-8,-1,3,9,1
1532544045392,-1,-5,-8,3,-1,-1,0,0
1532544045397,-3,-1,0,-2,1,-4,-3,-1
1532544045402,0,0,0,10,-1,2,1,0
1532544045407,2,2,-20,-2,-2,-7,-2,0
1532544045412,-4,-1,22,-13,-8,6,3,-2
1532544045417,-2,-1,7,3,-1,-2,2,1
1532544045422,0,2,11,7,0,0,-1,-1
1532544045427,1,2,-18,14,12,0,-1,3
1532544045432,-2,-2,4,-20,-5,-6,-5,-3
1532544045437,-1,-2,-18,-7,-8,-1,3,-2
1532544045442,-2,-2,-2,3,0,1,3,-2
1532544045447,1,3,25,13,6,4,-3,1
1532544045452,-3,-5,-22,-14,-10,-7,-4,-3
1532544045457,0,3,39,-2,-11,-2,2,-1
1532544045462,-2,-3,-19,4,6,-2,-7,-1
1532544045467,-3,-7,0,-2,2,1,-1,0
1532544045472,2,1,-36,4,-3,-3,-7,2
1532544045477,-2,-2,14,0,1,-1,-4,-1
1532544045482,2,3,-1,6,3,2,-6,0
1532544045487,-4,1,16,3,6,4,2,-2
1532544045492,1,0,25,5,5,0,-10,1
1532544045497,-2,-5,-22,-17,-10,-6,-7,-4
1532544045502,1,2,-18,-2,-4,-1,-10,2
1532544045507,-3,-3,19,-6,-3,4,-5,-1
1532544045512,-2,-2,-57,-9,-4,-4,-2,-1
1532544045517,1,0,7,10,6,0,-5,-1
1532544045522,-1,0,20,-8,-2,-3,-6,-1
1532544045527,2,1,-5,-2,-11,-1,-7,-1
1532544045532,-6,-3,17,12,14,2,2,-1
1532544045537,2,6,23,3,-8,0,-5,1
1532544045542,-3,-12,-53,-21,-10,-5,7,-2
1532544045547,0,-3,-23,-7,-4,0,-5,-1
1532544045552,-1,3,25,10,8,4,0,-1
1532544045557,-1,1,13,9,2,-1,-5,1
1532544045562,1,-4,-20,-14,-5,-3,-1,-2
1532544045567,-1,-4,-11,-7,0,-3,4,-2
1532544045572,2,1,-34,-3,-3,-1,0,1
1532544045577,-4,-4,6,-2,4,1,-1,-2
1532544045582,0,4,34,10,0,0,-3,0
1532544045587,-5,-9,-48,-18,-3,-4,2,-2
1532544045592,-1,3,75,6,-8,-3,-1,1
1532544045597,3,0,-40,-7,2,0,12,0
1532544045602,-1,-8,-68,-4,2,2,8,0
1532544045607,-1,2,19,6,2,0,0,-2
1532544045612,0,0,24,2,2,-2,2,-1
1532544045617,0,1,-16,9,8,-1,-4,-3
1532544045622,0,2,79,1,-6,-2,-11,0
1532544045627,-1,-4,-74,-9,-3,-1,9,0
1532544045632,-1,-1,2,-4,-3,0,-2,2
1532544045637,0,1,15,15,6,3,-2,0
1532544045642,-2,1,17,-17,-12,-6,-2,-2
1532544045647,1,-2,-6,-2,-1,0,6,-1
1532544045652,2,0,1,4,3,0,4,0
1532544045657,-1,-3,-21,-4,-9,0,0,-1
1532544045662,-1,6,44,11,2,0,7,-1
1532544045667,-3,0,-7,-5,-5,-3,0,-1
1532544045672,0,-3,-19,-11,1,-1,0,-1
1532544045677,-1,-1,36,6,16,3,-2,0
1532544045682,-2,-3,-25,1,-11,-3,-6,-2
1532544045687,-2,-3,-9,-29,-15,-7,-3,-3
1532544045692,0,3,-12,6,0,2,0,-2
1532544045697,0,2,33,10,1,1,-1,0
1532544045702,0,-2,20,9,11,2,4,0
1532544045707,0,1,-36,-6,-1,1,2,1
1532544045712,-3,-3,-7,-12,-2,-1,5,-3
1532544045717,0,2,20,8,-4,-3,-7,1
1532544045722,-2,-3,-2,-16,-10,-2,-5,-2
1532544045727,-1,1,14,7,3,0,3,0
1532544045732,0,-2,-34,2,3,2,-7,0
1532544045737,-2,5,20,3,8,1,1,-1
1532544045742,-3,-9,-35,-6,-3,-2,9,-1
1532544045747,-2,2,33,3,-3,-1,-6,-1
1532544045752,2,1,-50,-2,-4,-2,-1,0
1532544045757,-2,-4,21,-7,-9,-2,0,-2
1532544045762,2,6,24,-3,-2,-2,-6,1
1532544045767,-1,-6,-15,-8,-2,0,-3,-1
1532544045772,1,1,14,18,13,3,6,1
1532544045777,-2,1,-6,7,1,2,-5,0
1532544045782,-1,2,13,2,-3,-3,-3,-1
1532544045787,-2,2,21,-1,-3,-2,-5,0
1532544045792,-1,-3,-36,-7,2,-2,0,0
1532544045797,-1,-5,-18,-9,-10,0,4,-3
1532544045802,0,5,16,22,12,5,-6,0
1532544045807,-4,-9,-27,-11,1,-4,-2,-2
1532544045812,-2,1,35,-18,-17,-2,-15,-3
1532544045817,1,1,-48,6,6,3,-4,1
1532544045822,0,0,23,5,-7,-1,-12,-2
1532544045827,1,-2,9,-2,-4,-1,-7,-1
1532544045832,-2,-2,8,0,2,-2,-15,-1
1532544045837,0,-3,-6,8,-5,-2,-11,-1
1532544045842,0,1,2,-3,5,-1,-12,0
1532544045847,-1,-1,-4,-6,-3,-2,-6,-1
1532544045852,-1,-5,-28,-6,-4,-3,3,0
1532544045857,1,5,56,13,0,1,-22,1
1532544045862,-2,-5,-72,-8,3,-1,6,0
1532544045867,-1,0,36,-1,-4,-3,-10,-1
1532544045872,0,-1,-26,-14,-6,0,-4,-1
1532544045877,-1,2,30,8,-5,0,-5,1
1532544045882,0,0,11,-13,-11,-5,-7,-1
1532544045887,-1,-2,-20,2,6,3,4,-2
1532544045892,-2,0,17,12,1,1,-5,-1
1532544045897,-2,-4,-19,-20,3,-3,1,-5
1532544045902,0,1,14,8,0,2,0,-1
1532544045907,0,4,21,14,1,0,-7,-1
1532544045912,4,-2,-18,4,7,0,-4,2
1532544045917,-6,-13,-33,-20,1,-5,15,-4
1532544045922,-1,0,45,3,-11,-2,0,1
1532544045927,2,2,-73,10,11,2,10,3
1532544045932,-4,-1,47,-2,-4,0,-2,-2
1532544045937,1,-1,-5,1,-7,-5,-1,1
1532544045942,-2,-3,-4,-1,13,1,3,-4
1532544045947,-1,1,30,-3,-2,1,-1,1
1532544045952,0,-2,-9,4,2,-1,-3,0
1532544045957,1,-2,-19,-5,-1,-1,-1,0
1532544045962,0,3,14,14,1,1,-5,0
1532544045967,0,3,47,-6,-5,-1,-4,-3
1532544045972,-2,-10,-76,-10,1,0,14,-2
1532544045977,-1,1,-12,5,-4,0,-2,1
1532544045982,0,0,47,14,14,2,-2,-1
1532544045987,-1,-2,-68,-16,-9,-4,4,-3
1532544045992,-3,0,36,-11,-8,-1,4,1
1532544045997,0,1,7,2,-1,-2,2,0
1532544046002,-1,-3,-15,0,5,3,4,0
1532544046007,0,0,11,3,3,1,0,0
1532544046012,-1,0,18,-1,3,-1,-3,-2
1532544046017,-1,3,14,2,3,2,6,0
1532544046022,0,-3,-20,0,-1,-1,0,-1
1532544046027,-1,-3,23,0,-3,0,4,0
1532544046032,0,0,-1,7,-3,-2,-5,-1
1532544046037,-1,-5,-4,-9,0,0,-2,-1
1532544046042,-1,-4,-62,-9,-5,-2,12,-1
1532544046047,-1,-6,-18,4,11,2,-2,0
1532544046052,-1,2,22,-11,-10,-2,2,-4
1532544046057,1,2,20,8,5,1,0,-2
1532544046062,0,0,26,-9,-13,-4,1,1
1532544046067,0,-2,-26,6,-1,1,7,-1
1532544046072,0,2,22,-2,-5,-2,-2,0
1532544046077,-2,-2,0,-2,0,-1,1,-4
1532544046082,1,0,-13,4,-5,0,1,1
1532544046087,-3,-5,-28,-9,5,0,7,0
1532544046092,0,2,14,11,7,0,-6,1
1532544046097,1,-3,43,-1,-6,-1,1,2
1532544046102,-1,-2,-73,-10,-6,-4,6,-1
1532544046107,-1,2,25,2,-1,0,-3,0
1532544046112,1,2,34,12,7,0,-1,1
1532544046117,-1,0,-66,-9,-6,0,4,0
1532544046122,-3,-1,39,-10,0,-1,-3,-3
1532544046127,-1,0,19,1,-5,0,2,-1
1532544046132,1,0,-9,0,-2,0,13,-2
1532544046137,0,4,18,15,3,0,-10,1
1532544046142,-1,-9,-35,-12,-1,0,1,-1
1532544046147,-1,0,10,-8,-6,-1,-3,-1
1532544046152,-2,-6,-22,1,3,-1,4,-1
1532544046157,-1,-1,32,0,0,0,-5,-1
1532544046162,0,3,-14,0,-1,0,4,-1
1532544046167,0,-5,-3,3,5,-1,-2,-4
1532544046172,-1,1,23,7,4,2,-2,-1
1532544046177,-2,-5,-39,-16,-11,-3,-6,-3
1532544046182,-2,3,36,6,2,-1,-11,-2
1532544046187,-2,-2,-15,-5,-4,-2,-7,-1
1532544046192,1,-1,1,-3,-6,-2,-7,0
1532544046197,-1,2,-12,1,5,0,-4,1
1532544046202,0,-3,19,6,1,-1,-16,-3
1532544046207,1,-1,-19,-14,-11,-5,-11,-2
1532544046212,-3,-4,1,-9,1,1,-14,-1
1532544046217,1,-1,-44,5,-3,0,-6,0
1532544046222,0,3,25,-2,2,2,-5,1
1532544046227,0,0,25,19,10,-1,-16,2
1532544046232,-1,-2,-7,-4,-2,-3,-14,-1
1532544046237,0,-1,1,-9,1,-1,-7,0
1532544046242,-2,-4,-11,-3,-8,-2,-11,-1
1532544046247,1,-1,-18,-4,-1,-2,1,0
1532544046252,-1,-1,-3,2,-6,-1,-5,-1
1532544046257,-1,4,55,3,6,1,-2,-2
1532544046262,1,-3,-61,-2,-1,-2,-3,0
1532544046267,-5,-2,21,-1,-2,2,2,-3
1532544046272,1,1,8,11,9,0,-7,-2
1532544046277,-4,-8,-54,-17,-4,0,7,-2
1532544046282,1,5,35,4,-4,-1,-4,0
1532544046287,1,1,-1,8,-5,3,-1,1
1532544046292,1,1,7,0,3,0,5,-1
1532544046297,0,3,17,3,0,-2,-1,1
1532544046302,-2,-2,-5,-11,-7,-3,2,-2
1532544046307,2,0,23,3,6,2,2,2
1532544046312,-3,-1,8,-4,-10,-1,-4,-3
1532544046317,0,-5,-70,-4,-2,1,7,-2
1532544046322,-2,-4,4,4,-4,-1,-1,0
1532544046327,2,2,6,5,10,1,5,0
1532544046332,1,3,15,2,2,-1,3,0
1532544046337,-1,-1,4,-7,-15,-4,0,-2
1532544046342,-1,1,37,5,6,1,4,-1
1532544046347,0,1,-59,-2,-6,0,3,-1
1532544046352,-2,-3,5,-4,2,-3,4,-1
1532544046357,0,2,39,3,3,-1,2,-1
1532544046362,2,1,-27,7,-2,-1,-1,-1
1532544046367,0,-1,5,-12,-5,0,2,-1
1532544046372,0,0,-8,1,-5,-1,4,1
1532544046377,-2,1,12,-6,0,-2,-10,-3
1532544046382,-3,-6,-4,-1,0,-1,1,0
1532544046387,-2,0,-9,3,6,-1,3,-1
1532544046392,-1,-7,-27,-2,5,2,-5,-1
1532544046397,0,-3,11,-5,-13,-2,5,0
1532544046402,0,1,1,1,8,1,11,1
1532544046407,-1,0,13,0,-8,-2,-1,-1
1532544046412,0,0,-16,-4,-3,0,-3,-1
1532544046417,2,2,11,17,18,2,4,-2
1532544046422,-1,1,37,4,-1,1,-3,1
1532544046427,-2,-4,-29,-14,-9,-3,4,0
1532544046432,0,-2,-28,-5,-1,-1,4,-1
1532544046437,-1,0,31,10,1,1,-2,-2
1532544046442,0,1,-47,-6,-1,-1,4,-1
1532544046447,-1,0,37,3,0,0,-1,0
1532544046452,-1,0,13,8,-5,1,-2,0
1532544046457,0,-1,-64,-9,3,-4,5,1
1532544046462,-1,1,43,1,-3,1,0,0
1532544046467,-1,-1,1,1,-7,-2,-3,-1
1532544046472,0,1,-12,0,2,0,1,0
1532544046477,0,1,27,-5,-11,0,0,1
1532544046482,1,3,16,10,10,0,-12,-1
1532544046487,-1,1,0,-5,-4,-2,6,-1
1532544046492,-1,-7,-66,-11,1,0,16,0
1532544046497,-3,-3,9,-6,-3,-2,2,0
1532544046502,-1,-1,-9,0,0,2,-1,-3
1532544046507,0,2,36,13,-1,-2,-10,-3
1532544046512,0,1,12,-1,-1,-1,-1,-1
1532544046517,-1,-2,-34,1,2,0,-8,-1
1532544046522,-1,-6,-27,-19,-10,-2,9,-1
1532544046527,0,-1,22,7,9,0,-1,0
1532544046532,1,4,5,12,1,0,-3,0
1532544046537,-5,-9,-6,-17,-3,-5,8,-3
1532544046542,0,-1,17,-1,-10,-1,-3,0
1532544046547,-1,-2,-23,-5,-4,-3,2,-2
1532544046552,-1,4,53,1,6,2,-6,-2
1532544046557,4,3,-8,20,11,2,-3,2
1532544046562,-1,-2,-17,-15,-8,-3,-8,-1
1532544046567,-1,-2,-20,-5,-2,-2,-10,0
1532544046572,0,0,-37,-9,-5,1,-4,1
1532544046577,-2,0,25,2,0,2,-7,-1
1532544046582,-1,2,0,12,7,1,-11,1
1532544046587,0,-1,5,-10,-8,-1,-7,1
1532544046592,0,2,33,2,2,-1,-14,-1
1532544046597,1,-2,-18,10,5,0,-10,0
1532544046602,-4,-2,18,-24,-11,-4,-13,-4
1532544046607,-3,-7,-22,-6,-4,0,-5,-3
1532544046612,0,-3,-11,0,0,0,-6,0
1532544046617,-2,2,37,11,3,1,-8,-2
1532544046622,0,-3,8,5,1,-1,-11,0
1532544046627,1,2,-59,-8,-1,0,2,-2
1532544046632,-3,0,35,-4,-5,-2,-3,-2
1532544046637,-2,-5,-19,-1,-2,0,0,0
1532544046642,0,1,19,11,9,1,-4,-1
1532544046647,-1,0,16,4,0,2,-5,0
1532544046652,-1,0,-34,0,2,0,3,-3
1532544046657,-2,4,29,-6,-6,-1,-1,-1
1532544046662,-1,-7,-56,-16,2,1,11,-2
1532544046667,-2,0,32,1,-8,-4,-2,0
1532544046672,0,-2,-8,-2,-2,-2,-4,-1
1532544046677,0,-4,-5,2,8,1,2,0
1532544046682,0,2,4,8,-1,1,1,0
1532544046687,0,0,-13,-8,-3,-3,3,-2
1532544046692,-3,-8,-4,-13,2,-4,5,-2
1532544046697,1,-3,7,4,-4,3,1,1
1532544046702,1,1,-9,4,-1,1,-1,1
1532544046707,0,-1,3,-3,-4,-2,3,2
1532544046712,0,3,2,3,-2,-1,-4,2
1532544046717,-2,0,13,-6,1,-2,1,-2
1532544046722,-2,-3,-16,2,0,0,3,-1
1532544046727,0,4,14,9,7,1,-2,-1
1532544046732,-2,-4,-9,-7,-4,-1,6,-2
1532544046737,1,4,0,-3,0,-3,-3,-2
1532544046742,-2,2,23,-3,-4,0,0,-4
1532544046747,1,-4,-49,-3,1,-3,3,-2
1532544046752,-2,-4,-2,-7,1,-3,0,0
1532544046757,-1,2,13,-5,-11,0,0,0
1532544046762,-1,-4,-21,-5,-1,-2,11,0
1532544046767,2,4,2,11,9,3,-2,2
1532544046772,0,3,27,3,-6,-1,3,0
1532544046777,-1,-2,-9,-7,7,0,-4,-1
1532544046782,1,2,23,3,-4,0,-5,0
1532544046787,-2,-5,-10,1,0,-1,9,-1
1532544046792,-2,-2,4,-5,-9,-1,5,-2
1532544046797,1,-1,-14,1,4,0,1,-1
1532544046802,1,-1,40,5,10,-1,-5,-1
1532544046807,-1,3,-38,4,1,3,-1,0
1532544046812,-3,-7,17,-5,-7,-4,-1,0
1532544046817,-2,-4,-36,-18,-14,-5,1,-2
1532544046822,0,1,25,7,6,0,-2,-1
1532544046827,0,-4,13,0,-1,-1,-3,0
1532544046832,0,-1,-43,1,5,2,4,-2
1532544046837,0,2,30,12,-1,3,5,0
1532544046842,0,-1,-36,-9,-9,-4,0,1
1532544046847,-7,-1,45,-22,-15,-7,-3,-4
1532544046852,-2,-3,-11,1,-3,-1,-9,1
1532544046857,1,-1,-4,3,10,1,-1,-2
1532544046862,1,1,-8,5,-3,1,3,0
1532544046867,3,-3,52,1,2,0,-9,-1
1532544046872,-1,5,-28,12,13,4,3,-1
1532544046877,1,3,33,3,-7,-3,-8,0
1532544046882,-2,-10,-67,-18,0,-2,3,-1
1532544046887,-2,-4,-16,-4,-3,1,3,-2
1532544046892,1,0,17,0,-2,1,-2,-1
1532544046897,-1,0,-2,11,4,2,0,0
1532544046902,-2,-2,-10,3,-1,-2,-4,-1
1532544046907,-1,-1,9,-10,-5,-1,-2,1
1532544046912,0,1,-10,0,-1,0,5,0
1532544046917,-1,1,44,0,-3,-1,-5,1
1532544046922,-1,2,-43,-1,1,-4,2,-2
1532544046927,-2,-5,-45,-5,6,-1,-6,-1
1532544046932,-2,-2,26,1,-3,3,-7,0
1532544046937,0,2,-7,5,7,0,-10,1
1532544046942,-1,-6,-6,-5,1,0,-9,-1
1532544046947,0,-3,-18,-7,-13,-3,-13,-2
1532544046952,-3,-3,8,-2,4,-1,-8,-4
1532544046957,0,-3,-22,4,2,0,-9,0
1532544046962,1,4,47,7,-2,-1,-9,-1
1532544046967,-2,-1,21,2,15,3,-11,0
1532544046972,3,1,-46,-10,-18,-6,-7,0
1532544046977,-4,-1,34,-4,2,0,-2,-1
1532544046982,0,-5,-51,-3,-2,1,-10,-1
1532544046987,2,1,8,7,-1,-1,-9,1
1532544046992,1,6,58,12,6,2,-5,1
1532544046997,1,-5,-60,-4,-2,1,2,-2
1532544047002,-1,-3,-2,-6,5,-3,-4,0
1532544047007,-5,-6,-20,-8,-12,-3,2,-2
1532544047012,0,5,50,3,-2,-1,-1,1
1532544047017,0,-1,-26,10,4,-2,0,-1
1532544047022,-2,-2,4,-12,-5,-1,1,-2
1532544047027,-1,-2,49,-2,-4,-1,1,-3
1532544047032,1,3,-66,3,4,1,6,0
1532544047037,-1,-2,45,-6,-3,-1,3,-2
1532544047042,1,-4,-10,7,-3,-2,2,1
1532544047047,-3,-2,4,-13,-3,-3,2,-2
1532544047052,-1,-2,7,-9,-6,-1,-2,0
1532544047057,-2,1,-5,6,3,2,0,1
1532544047062,0,4,44,18,4,0,-9,1
1532544047067,0,-3,-62,-8,4,-1,4,-2
1532544047072,-2,-7,-28,-9,-9,-1,1,-1
1532544047077,-3,0,6,-10,-5,-3,-5,-2
1532544047082,0,1,-17,-9,-6,-2,12,0
1532544047087,-1,-3,-3,12,8,1,11,1
1532544047092,-1,-2,30,7,10,3,-5,-2
1532544047097,2,0,-10,5,0,-1,-5,0
1532544047102,-2,-2,15,-8,-4,0,-1,-2
1532544047107,0,4,11,-3,-1,-1,-7,-1
1532544047112,-1,-1,-18,1,-2,0,3,-1
1532544047117,1,-5,17,3,2,1,-3,1
1532544047122,-9,-2,-21,0,0,-1,5,-6
1532544047127,1,1,-24,7,5,1,4,0
1532544047132,-3,-1,34,-8,-2,-1,1,-2
1532544047137,2,1,6,13,5,-2,0,-1
1532544047142,-2,-4,2,-11,-2,-3,-3,0
1532544047147,-2,-1,-3,-11,-7,-1,7,0
1532544047152,1,0,-6,5,-4,-1,-4,1
1532544047157,-2,-1,1,2,2,1,2,-2
1532544047162,0,-1,55,-4,-3,-3,-3,-2
1532544047167,1,5,-55,10,3,4,-1,-1
1532544047172,-1,-5,3,-7,3,-1,5,-3
1532544047177,-3,3,47,-1,-5,1,-2,0
1532544047182,3,-2,-58,2,3,1,5,2
1532544047187,-1,1,37,0,-5,-5,-10,-2
1532544047192,-1,-3,-22,2,0,1,-1,-2
1532544047197,0,-2,9,2,-1,0,-13,0
1532544047202,-2,-3,-21,-12,-4,-3,3,-2
1532544047207,-2,-4,-12,-5,0,3,0,0
1532544047212,0,1,4,8,2,-2,-3,0
1532544047217,-1,-4,25,2,0,0,-4,0
1532544047222,0,5,-13,8,2,-2,-2,2
1532544047227,-1,-3,-26,-8,-6,-3,-1,-1
1532544047232,-1,2,69,-7,-3,0,-2,-2
1532544047237,-2,3,-45,-8,-3,-1,-4,-4
1532544047242,2,-1,-10,-5,1,0,-6,-1
1532544047247,0,-6,-10,12,4,1,1,-1
1532544047252,0,4,20,2,4,0,-5,0
1532544047257,2,1,-12,1,-5,-3,2,-1
1532544047262,1,-1,-8,-4,4,2,4,0
1532544047267,-1,-1,26,3,-6,-2,-8,-1
1532544047272,-1,-2,-2,-11,-4,-3,-3,0
1532544047277,0,0,8,1,2,0,-2,-1
1532544047282,1,-3,-9,3,-2,1,-1,-1
1532544047287,2,5,6,0,-1,-1,13,1
1532544047292,-4,-4,-60,3,-1,0,-4,1
1532544047297,-6,-3,36,-17,-2,-6,-2,-2
1532544047302,2,-2,-58,-5,-4,0,-2,0
1532544047307,-3,1,41,5,-3,1,-6,2
1532544047312,1,2,10,-3,6,-1,-4,-1
1532544047317,-1,-2,-23,-5,-4,2,1,-1
1532544047322,0,2,42,8,-4,-3,-12,0
1532544047327,-2,-3,-20,-15,-6,-3,-11,-3
1532544047332,1,-1,-11,4,-1,0,-8,0
1532544047337,0,-6,-20,6,5,0,-1,0
1532544047342,-3,-4,21,7,7,2,-14,0
1532544047347,-1,3,25,9,-3,-2,-8,1
1532544047352,0,1,-17,-8,0,-1,-13,-1
1532544047357,-1,-5,-17,-18,-9,-3,2,0
1532544047362,-2,0,4,-3,-5,-1,2,-1
1532544047367,2,0,12,-2,-4,-2,-9,-2
1532544047372,-2,-2,5,4,9,2,-2,-1
1532544047377,2,3,-12,2,3,-1,-4,3
1532544047382,-2,-1,12,2,-3,1,2,-1
1532544047387,-4,-5,-10,-18,-9,-8,8,1
1532544047392,-9,-1,-11,0,-1,4,9,-7
1532544047397,10,-3,12,8,3,-2,-6,1
1532544047402,-2,2,-2,-1,5,-5,2,1
1532544047407,7,0,2,3,-1,9,-9,2
1532544047412,5,0,13,-4,-6,-6,2,0
1532544047417,-2,4,23,-5,-4,5,-5,-3
1532544047422,5,-6,-81,20,14,-8,5,-1
1532544047427,-4,-1,3,-8,-1,3,-13,-1
1532544047432,-1,-10,-20,-23,-8,-8,10,-3
1532544047437,0,0,24,-5,-5,-2,-4,-2
1532544047442,-10,-2,21,6,4,-2,-5,-3
1532544047447,18,2,-1,7,3,-3,2,-1
1532544047452,2,0,15,0,1,2,3,1
1532544047457,0,-1,7,-3,-6,-4,-8,-1
1532544047462,-4,0,10,-4,-4,-1,8,-2
1532544047467,-18,-3,16,2,-1,-1,4,-5
1532544047472,3,0,21,5,8,-1,1,3
1532544047477,0,3,43,3,-1,-4,-12,-2
1532544047482,-1,-5,-75,-1,-3,-1,-5,0
1532544047487,3,-2,-31,-1,-8,-3,-2,0
1532544047492,-2,-5,-8,-3,-1,-4,8,0
1532544047497,5,8,12,8,-3,3,2,0
1532544047502,3,-2,-16,-11,0,-7,-3,2
1532544047507,-3,-1,17,-1,-3,-1,1,-1
1532544047512,2,1,-5,-6,-2,-2,0,-1
1532544047517,2,3,-6,1,-3,0,0,1
1532544047522,-5,-1,-11,3,8,-1,6,-4
1532544047527,-5,2,3,2,-3,10,-3,0
1532544047532,2,-1,-7,-7,-1,-4,-9,1
1532544047537,-4,5,59,13,0,-4,-14,-1
1532544047542,4,1,-25,-6,10,-6,-5,0
1532544047547,-3,-1,-26,-6,-12,2,7,-2
1532544047552,-6,0,-9,1,0,-2,-6,-2
1532544047557,6,-3,8,-3,-3,-3,7,1
1532544047562,-14,1,13,8,-2,16,-7,-1
1532544047567,3,3,5,-6,0,-4,6,1
1532544047572,2,1,22,-2,-1,-13,5,0
1532544047577,-16,-7,-19,0,-1,23,-4,-2
1532544047582,16,0,-24,-4,-1,-10,5,-2
1532544047587,-2,-3,18,-3,0,-17,1,-2
1532544047592,4,3,-10,7,3,27,9,5
1532544047597,-3,-2,-26,-8,-4,-22,-2,-3
1532544047602,-2,-1,16,-2,-2,-6,-4,-2
1532544047607,1,-1,9,3,-1,18,-1,1
1532544047612,0,-3,-1,1,1,-9,-2,-3
1532544047617,2,-1,-7,-8,-5,0,8,0
1532544047622,1,1,3,-5,0,-11,-1,1
1532544047627,0,1,-5,0,0,-5,1,1
1532544047632,0,3,5,4,4,3,-6,-3
1532544047637,-1,-5,6,6,3,4,4,0
1532544047642,-7,-1,22,9,-4,-2,3,0
1532544047647,4,0,-18,-5,9,0,6,1
1532544047652,-4,-8,-32,-10,-6,-4,-1,0
1532544047657,-2,-5,-16,-26,-23,-13,-1,-4
1532544047662,-3,9,-24,4,2,6,11,-1
1532544047667,2,3,59,12,1,-6,-6,-1
1532544047672,0,2,-7,2,3,-9,2,1
1532544047677,15,3,13,6,3,-1,4,1
1532544047682,-9,-4,7,0,-1,5,5,2
1532544047687,23,11,-6,0,11,18,-19,6
1532544047692,-1,-1,74,3,0,-12,8,-1
1532544047697,-20,-8,-97,2,-4,-10,-1,-5
1532544047702,0,-4,22,-8,-6,-7,3,-2
1532544047707,5,0,7,3,2,-15,9,0
1532544047712,0,-1,-9,-2,3,10,-3,-3
1532544047717,1,2,42,1,-2,-19,-3,1
1532544047722,2,4,-22,-1,2,5,-2,-3
1532544047727,-4,3,19,7,0,9,11,-3
1532544047732,-1,-10,-22,-7,-2,-5,-6,-3
1532544047737,-18,0,-7,-8,-1,1,17,3
1532544047742,5,-1,7,10,6,6,-8,-1
1532544047747,-4,4,16,5,0,6,2,2
1532544047752,13,2,12,5,-1,0,-2,0
1532544047757,-8,-4,11,3,-3,-9,2,-1
1532544047762,-13,-2,-6,5,4,4,3,-1
1532544047767,18,-1,-4,-9,-4,-6,5,0
1532544047772,-56,-15,-45,-9,2,8,32,-6
1532544047777,-49,0,21,3,0,-18,21,6
1532544047782,23,-9,-21,-8,-3,2,-27,-2
1532544047787,-16,-5,-6,4,1,-2,4,-7
1532544047792,11,-2,3,-2,3,7,10,2
1532544047797,-18,-5,-2,10,1,-9,-2,-6
1532544047802,13,-7,-5,-4,8,-13,-1,-16
1532544047807,-4,1,0,-4,6,0,-1,-1
1532544047812,2,3,-2,-8,-8,1,-1,-2
1532544047817,-1,-1,3,13,7,7,4,1
1532544047822,0,-2,-6,-13,-8,-8,-1,-4
1532544047827,0,-4,-3,-3,4,-2,-1,-2
1532544047832,1,-5,-7,-19,-24,-4,-1,20
1532544047837,0,2,2,3,9,0,0,-3
1532544047842,4,4,1,9,6,2,-2,7
1532544047847,-1,-4,0,-2,-2,-3,1,0
1532544047852,-8,-8,-3,-4,-7,-1,-3,-10
1532544047857,-1,-2,-2,-10,-5,0,-3,3
1532544047862,3,3,2,-2,-2,-1,-2,-1
1532544047867,-3,-3,-1,6,5,1,-1,5
1532544047872,1,-2,-2,-4,-4,0,-1,-6
1532544047877,-8,-5,-4,-4,-3,-1,0,-6
1532544047882,0,2,1,1,0,-1,-3,7
1532544047887,2,5,3,7,5,3,0,-4
1532544047892,3,0,1,-1,2,-2,3,5
1532544047897,2,-2,0,-9,-6,0,0,14
1532544047902,-8,3,-1,-4,-1,-1,-2,-15
1532544047907,4,2,-3,0,1,-2,-2,-1
1532544047912,-3,-5,-1,1,3,-2,-2,-6
1532544047917,-1,1,0,6,2,0,1,-1
1532544047922,5,-1,-3,-8,-7,-1,-3,3
1532544047927,-3,-5,-2,6,0,-1,-1,-1
1532544047932,0,2,-2,-8,-3,0,0,1
1532544047937,-1,0,-1,2,10,0,-2,1
1532544047942,3,-4,1,6,-4,-2,-7,-2
1532544047947,-4,-1,-2,-3,-2,-3,-1,-1
1532544047952,3,-2,-1,-9,-8,-3,-6,-2
1532544047957,-1,1,1,2,1,0,-9,-5
1532544047962,-1,-1,0,-2,-3,-2,-5,4
1532544047967,3,1,2,10,6,4,-6,1
1532544047972,-6,-1,-2,-5,2,-3,-5,0
1532544047977,-5,-1,-3,-7,-9,-5,-4,-4
1532544047982,-4,-1,0,2,2,3,0,-4
1532544047987,0,-1,-2,-3,-8,-2,3,0
1532544047992,26,-7,-4,-4,10,-4,4,-1
1532544047997,-56,8,3,8,-6,7,4,-4
1532544048002,19,6,3,8,5,8,-2,-5
1532544048007,11,1,1,6,5,1,2,13
1532544048012,1,3,-3,-18,-16,-5,1,-1
1532544048017,2,-5,-2,-5,-5,-8,-2,-4
1532544048022,-24,-6,-1,-3,5,-4,4,-8
1532544048027,42,-1,-5,-4,-9,0,-3,-5
1532544048032,-27,-1,-2,2,3,-2,-1,10
1532544048037,9,-4,-1,-4,-3,6,2,11
1532544048042,-10,2,3,8,1,-1,-6,5
1532544048047,-5,-5,3,6,6,0,0,-6
1532544048052,13,-1,-3,-8,-6,-4,1,-9
1532544048057,-6,-7,-5,-11,-8,-7,-1,-3
1532544048062,0,2,-2,-1,-1,2,-2,1
1532544048067,-1,-8,-1,5,4,5,-2,4
1532544048072,3,7,2,6,7,1,-6,2
1532544048077,13,2,-2,-11,-6,-1,-5,0
1532544048082,-41,-6,-2,-2,-3,2,-2,-7
1532544048087,14,6,0,-4,-9,2,-4,-3
1532544048092,17,-8,0,-2,9,-24,-3,-2
1532544048097,-41,-5,3,6,-3,6,-7,-10
1532544048102,12,3,3,10,12,21,-27,6
1532544048107,-7,-2,1,0,11,15,15,-13
1532544048112,-1,-5,-5,0,-2,-4,3,3
1532544048117,2,5,9,-1,-2,-25,-12,4
1532544048122,-2,-2,-9,-9,-2,3,9,-8
1532544048127,6,13,11,-4,-3,-6,-12,-8
1532544048132,-5,-23,-17,0,-4,1,-2,5
1532544048137,-3,-12,1,5,9,12,17,3
1532544048142,7,8,2,-1,0,-1,2,16
1532544048147,-2,-5,-2,2,-1,-1,-5,-7
1532544048152,1,3,2,-7,-10,-9,-4,10
1532544048157,-7,-1,0,-4,0,3,2,-14
1532544048162,-2,6,-1,-4,-3,-8,-11,-9
1532544048167,-1,-1,-4,10,6,6,2,2
1532544048172,-3,-6,6,0,8,-1,-3,1
1532544048177,3,5,-3,0,-1,-3,-3,-1
1532544048182,0,0,-2,-13,-13,-2,-4,-10
1532544048187,-12,-2,3,-3,-7,-3,0,6
1532544048192,9,1,-9,7,5,0,1,-5
1532544048197,-8,-7,-1,3,-3,2,4,5
1532544048202,-2,0,18,4,10,1,-6,-4
1532544048207,11,0,-15,-12,-5,-3,-7,-4
1532544048212,12,1,-11,3,0,2,24,1
1532544048217,10,5,35,-8,-2,4,3,3
1532544048222,7,3,-31,11,5,-5,-6,9
1532544048227,-2,-13,-22,0,-4,-5,0,-4
1532544048232,-6,3,-5,0,3,8,6,-1
1532544048237,-6,3,41,9,6,1,-5,4
1532544048242,-2,-3,-22,-4,-11,-4,1,-10
1532544048247,6,2,8,-11,-4,-3,1,-1
1532544048252,-5,-3,8,8,2,-7,0,5
1532544048257,-4,0,-9,-5,-1,2,1,-3
1532544048262,-1,0,80,21,8,6,1,-1
1532544048267,-5,2,-12,-9,-13,-1,2,0
1532544048272,-5,-3,-11,9,4,3,4,-2
1532544048277,13,0,32,5,7,5,6,0
1532544048282,-23,0,11,-1,1,-7,-14,-4
1532544048287,26,3,-17,5,3,3,2,5
1532544048292,-3,3,-11,-1,-9,-2,5,-1
1532544048297,-4,-4,9,-23,-12,0,-8,-7
1532544048302,6,1,4,6,4,-5,-8,9
1532544048307,-1,-6,-6,8,7,3,3,-2
1532544048312,-6,-2,-8,-8,4,2,-7,-3
1532544048317,-7,-4,7,6,3,-5,-3,0
1532544048322,4,4,0,-13,-14,0,-9,0
1532544048327,-4,-7,0,11,4,0,4,-5
1532544048332,3,6,8,3,7,-1,-20,4
1532544048337,-1,0,-6,-11,-22,-4,-17,-7
1532544048342,-10,-2,-5,-1,2,1,2,-2
1532544048347,-1,2,18,5,6,-13,-14,-3
1532544048352,0,-2,-11,8,-6,1,-1,1
1532544048357,-6,-6,14,-9,0,-3,-4,-4
1532544048362,7,4,0,-10,-2,2,-7,4
1532544048367,4,-3,-35,5,-2,2,-1,6
1532544048372,-4,-11,0,-6,-1,7,12,3
1532544048377,-5,4,-5,9,3,-21,-21,-9
1532544048382,0,-2,3,-7,-4,-4,-4,-4
1532544048387,3,6,17,3,0,6,-2,6
1532544048392,6,2,-1,-2,-3,-2,-4,-9
1532544048397,-5,-6,-11,-5,-2,13,16,7
1532544048402,-3,2,2,1,1,-4,5,-5
1532544048407,0,0,-2,-9,-8,-2,4,6
1532544048412,-4,0,-4,1,-2,1,1,-7
1532544048417,-3,0,6,2,3,4,14,-2
1532544048422,-2,-3,-9,3,8,-16,-11,-10
1532544048427,5,-2,0,-4,1,0,1,-4
1532544048432,-5,-14,-21,-4,-7,3,2,-3
1532544048437,-4,-1,8,0,9,11,11,-6
1532544048442,-2,-2,-4,8,-6,-11,-10,-13
1532544048447,1,-7,-2,2,11,0,-6,10
1532544048452,4,16,2,-18,-17,-3,5,2
1532544048457,-5,-2,1,4,6,3,6,4
1532544048462,1,-2,3,5,2,3,-1,-3
1532544048467,-3,-4,-5,4,-1,2,4,-7
1532544048472,-2,-4,5,5,1,-2,0,-3
1532544048477,2,-2,-4,-3,6,-3,-13,11
1532544048482,2,0,1,-5,-9,3,4,4
1532544048487,2,2,-3,-6,-4,-6,-12,1
1532544048492,2,0,-1,7,-3,3,1,1
1532544048497,-3,22,3,-12,-8,-6,-2,-8
1532544048502,6,4,2,-4,-5,-4,-12,1
1532544048507,-13,-16,-2,5,2,9,19,-5
1532544048512,9,0,7,8,5,9,15,3
1532544048517,-1,32,2,-5,-15,-3,1,-7
1532544048522,1,-30,11,-5,14,-15,-24,-5
1532544048527,10,-3,-41,-12,-20,-18,-10,3
1532544048532,-15,-26,5,4,9,33,19,-1
1532544048537,-13,-6,5,3,5,6,0,-3
1532544048542,-1,4,-4,12,5,-7,-1,1
1532544048547,2,-12,4,-12,3,-3,3,-3
1532544048552,-4,-11,12,9,3,-3,-1,-3
1532544048557,10,12,-36,-5,-4,6,1,1
1532544048562,-9,-7,19,-21,-19,-8,-17,-3
1532544048567,19,-9,-33,12,4,-6,5,-2
1532544048572,-32,6,47,10,-1,1,-11,-2
1532544048577,3,-3,-73,-10,3,1,7,3
1532544048582,6,11,21,8,5,0,-6,6
1532544048587,-11,-20,18,4,-5,-8,-3,-1
1532544048592,1,6,-41,-8,4,0,0,-2
1532544048597,-2,0,56,6,-3,8,-4,-2
1532544048602,-21,-9,-35,-15,-8,-8,-9,-7
1532544048607,9,3,48,3,-2,-3,-6,2
1532544048612,9,-2,-38,1,0,4,-4,4
1532544048617,-2,9,43,12,7,3,-14,-9
1532544048622,8,-1,-49,-15,-2,-5,-12,3
1532544048627,-8,-4,10,-3,-15,-9,-5,-2
1532544048632,7,1,3,16,18,12,-2,2
1532544048637,-3,-2,-8,-4,-1,-3,-11,-2
1532544048642,5,0,17,-19,-20,-6,-12,-3
1532544048647,-4,3,-11,2,4,0,-5,0
1532544048652,-4,-10,-13,-3,-7,-5,-9,-5
1532544048657,6,0,16,4,7,-8,-10,1
1532544048662,-3,8,38,14,4,3,-7,0
1532544048667,8,-20,-87,-18,-6,-5,-1,-6
1532544048672,15,1,-5,-10,-5,5,7,10
1532544048677,-30,-10,27,7,1,2,3,5
1532544048682,4,-3,-22,2,6,-3,-4,-3
1532544048687,20,6,43,7,0,-2,4,-1
1532544048692,-2,-5,-47,6,3,3,4,-2
1532544048697,-7,-2,3,2,5,-1,-4,-1
1532544048702,-10,-1,19,-7,-4,-3,6,-5
1532544048707,16,-1,-25,0,-4,0,-5,0
1532544048712,-9,-1,37,2,-2,-1,1,-2
1532544048717,11,1,-33,-1,4,0,3,2
1532544048722,-11,-8,2,4,3,4,3,-5
1532544048727,6,-1,-11,-2,-2,-1,7,-1
1532544048732,4,7,-2,-17,-4,-1,-1,6
1532544048737,4,4,16,-1,-6,-4,-1,2
1532544048742,-12,-5,30,5,6,3,3,-6
1532544048747,0,3,22,8,18,15,-12,6
1532544048752,-1,-15,-40,-2,-9,-3,5,0
1532544048757,-1,5,20,-4,-3,2,6,-2
1532544048762,6,-3,-16,0,-1,-2,-21,0
1532544048767,-5,-1,6,-3,-4,-5,3,-1
1532544048772,6,2,-17,2,1,-5,-3,-1
1532544048777,-1,0,-5,-18,-7,3,0,0
1532544048782,-4,-6,11,9,-1,-5,13,-5
1532544048787,2,3,8,2,9,0,-27,2
1532544048792,7,8,-20,8,0,0,1,3
1532544048797,10,-4,0,-5,1,0,3,-1
1532544048802,-17,4,3,-12,-10,0,9,-5
1532544048807,16,-2,14,-3,-11,-5,7,-1
1532544048812,-31,-1,-7,-5,6,-1,-7,1
1532544048817,-6,-1,16,-3,10,0,-8,-1
1532544048822,5,-7,-31,-4,-13,-3,-9,0
1532544048827,-12,-5,17,5,13,0,3,-2
1532544048832,11,4,42,6,-5,-1,-1,1
1532544048837,1,1,-29,10,8,8,0,1
1532544048842,-1,-3,-12,2,1,-5,-7,0
1532544048847,-9,-1,17,-31,-12,-4,3,-11
1532544048852,1,2,12,2,-5,-1,-5,0
1532544048857,2,0,-33,-5,-4,0,-5,0
1532544048862,1,-5,-14,14,10,4,1,-1
1532544048867,-2,5,22,12,-5,-2,-6,-1
1532544048872,3,-5,30,-11,0,-3,-5,2
1532544048877,-2,-1,1,1,2,1,1,-1
1532544048882,1,0,-10,0,-10,-1,-3,2
1532544048887,5,-1,20,-4,-2,0,2,-2
1532544048892,-10,0,-22,-6,1,-5,-6,-2
1532544048897,-1,-2,26,4,-3,3,6,-1
1532544048902,4,6,-26,2,8,0,-2,0
1532544048907,-7,-2,-6,-4,-1,-2,2,-3
1532544048912,-4,-2,-5,-7,-12,-3,-3,-3
1532544048917,-1,3,82,10,3,-3,-11,1
1532544048922,2,2,-86,17,13,3,12,2
1532544048927,4,-2,6,-15,-1,0,2,-2
1532544048932,0,-3,-20,-12,-3,-4,-1,-3
1532544048937,-6,1,21,-5,-8,-1,4,-4
1532544048942,2,1,28,6,0,-1,-4,2
1532544048947,-2,4,0,12,9,3,-6,1
1532544048952,-6,-3,-3,-4,-2,-1,6,-1
1532544048957,3,-8,-30,-5,-9,-3,-1,-1
1532544048962,-12,-2,10,-7,-2,-2,-7,-2
1532544048967,7,-6,-18,5,0,0,0,2
1532544048972,-7,1,52,-6,-5,-1,-2,-5
1532544048977,-3,3,-6,-4,-5,-1,0,1
1532544048982,10,1,-9,1,4,-1,-6,1
1532544048987,-9,-1,-9,-8,-11,-1,5,-5
1532544048992,2,-3,20,9,7,1,-8,1
1532544048997,-2,-3,-15,-9,-10,-3,-4,1
1532544049002,-2,-4,-28,-6,-3,-4,-4,-1
1532544049007,13,11,17,3,2,1,-7,2
1532544049012,-11,-8,0,5,6,2,2,1
1532544049017,-2,-1,3,4,-1,1,2,-4
1532544049022,3,-5,-5,-6,1,0,-2,4
1532544049027,-2,-6,-8,-7,-4,0,8,2
1532544049032,-6,5,4,-4,-6,-2,-7,-3
1532544049037,5,-2,36,13,3,1,-11,2
1532544049042,-15,-7,-81,-7,1,1,9,-2
1532544049047,9,1,29,-2,1,-1,-8,0
1532544049052,-1,3,-9,-11,-12,-2,-10,-1
1532544049057,4,-2,20,4,10,-3,-1,-2
1532544049062,3,2,16,-1,-14,-1,-8,-4
1532544049067,-3,-2,-9,4,-3,0,-6,-2
1532544049072,2,-1,8,2,6,1,-4,-2
1532544049077,3,-1,-8,3,0,0,-5,0
1532544049082,-1,-6,0,-11,-12,-5,-12,-1
1532544049087,11,-3,7,13,7,19,-4,-4
1532544049092,-22,0,-1,8,6,-12,-15,0
1532544049097,-6,-1,-6,-10,-16,-13,-5,-3
1532544049102,11,7,10,1,11,7,-2,12
1532544049107,-3,-3,17,11,0,-6,-5,-2
1532544049112,10,3,5,-13,-12,5,4,0
1532544049117,-5,-11,-54,-8,0,9,15,-5
1532544049122,0,2,0,8,0,-7,-20,-6
1532544049127,2,-15,-35,-6,-2,6,2,0
1532544049132,20,1,27,4,4,-15,-9,-1
1532544049137,20,0,-1,0,0,14,8,3
1532544049142,-10,0,1,4,11,-6,-2,-11
1532544049147,-2,1,-1,13,14,-19,-7,0
1532544049152,-3,-11,-21,-25,-23,19,9,-13
1532544049157,-5,6,10,5,3,-23,-10,5
1532544049162,13,14,4,-4,7,21,-2,3
1532544049167,-17,-18,4,16,11,15,21,0
1532544049172,9,6,-9,-10,-3,-7,-2,-4
1532544049177,-8,-32,-29,-4,-4,-41,22,-5
1532544049182,-3,7,6,1,-6,12,-2,1
1532544049187,6,4,26,3,14,75,-9,12
1532544049192,7,-17,-24,-3,-2,-37,1,-4
1532544049197,-18,-13,11,12,0,9,0,-2
1532544049202,5,12,-4,-1,7,-28,-9,13
1532544049207,0,2,8,-15,-16,-7,9,-4
1532544049212,5,0,-8,-2,-5,-54,9,1
1532544049217,-2,36,22,2,4,45,12,-6
1532544049222,1,-59,-10,9,4,29,0,2
1532544049227,-5,17,-4,-1,-2,-94,7,-3
1532544049232,-3,-7,-3,-6,2,31,17,0
1532544049237,-1,7,-13,-8,-6,-19,2,-2
1532544049242,-4,19,29,13,3,4,2,-1
1532544049247,-3,-5,-62,2,8,23,3,-6
1532544049252,2,-13,4,-8,-9,-23,-1,9
1532544049257,-17,-5,22,-8,-8,-14,11,-4
1532544049262,-3,-18,-39,-5,9,21,1,-9
1532544049267,0,20,28,16,3,-21,-2,6
1532544049272,3,9,7,-13,-7,-2,-26,-7
1532544049277,3,44,10,-9,-16,1,-6,1
1532544049282,-6,-61,-37,2,6,24,25,4
1532544049287,4,2,9,-3,4,-17,-20,-2
1532544049292,-3,9,-1,4,1,46,-28,-4
1532544049297,5,0,4,12,12,-15,1,-1
1532544049302,-2,33,17,-3,-14,-78,-33,-4
1532544049307,-3,-51,1,-3,-2,39,5,-5
1532544049312,-6,-9,-27,-5,-7,-84,-12,6
1532544049317,2,2,3,4,4,30,-13,-3
1532544049322,4,6,-13,-18,-14,-39,-17,-1
1532544049327,1,11,-2,1,-2,64,-20,-8
1532544049332,-15,-26,48,1,0,-6,-18,-7
1532544049337,9,-30,-61,0,4,-25,5,4
1532544049342,-3,-19,-2,1,4,0,19,11
1532544049347,-11,25,25,-5,-13,-13,-19,-14
1532544049352,4,6,4,1,7,38,-10,2
1532544049357,8,-20,-3,5,4,-19,23,13
1532544049362,1,29,-4,1,0,-16,-14,-4
1532544049367,-1,10,19,6,0,-36,8,5
1532544049372,0,-7,24,2,1,-25,6,0
1532544049377,-6,-15,-44,-14,-3,37,2,-1
1532544049382,10,7,-1,4,-5,-51,-7,5
1532544049387,-5,-31,-14,-8,-1,12,8,0
1532544049392,-4,31,6,6,2,12,-4,-7
1532544049397,3,13,19,6,-7,-20,6,7
1532544049402,3,-1,3,-4,6,29,15,10
1532544049407,1,27,12,-4,-15,-85,1,-7
1532544049412,-2,-24,-30,10,13,67,-1,1
1532544049417,-3,-3,8,-11,-6,-23,-5,-12
1532544049422,9,10,14,-8,-9,3,2,14
1532544049427,-11,-23,-23,2,9,16,8,-3
1532544049432,6,-4,14,10,8,31,-1,4
1532544049437,-7,-25,-9,-10,-18,-52,-7,-10
1532544049442,3,29,23,-1,-1,18,1,0
1532544049447,6,18,3,2,7,46,-12,0
1532544049452,-3,-25,-27,-8,-4,14,4,-3
1532544049457,8,-8,0,8,2,95,13,12
1532544049462,8,-27,-16,-2,8,5,-8,-3
1532544049467,9,80,94,6,1,9,-23,-3
1532544049472,-20,-89,-113,-3,-5,-25,29,-11
1532544049477,-2,9,13,4,5,65,-10,-6
1532544049482,5,11,-20,-12,-10,-53,16,11
1532544049487,-2,2,25,7,6,41,-14,4
1532544049492,14,20,-10,-1,-1,-3,-6,-5
1532544049497,-11,6,17,0,-9,-60,10,-1
1532544049502,4,10,8,-3,11,88,17,0
1532544049507,-12,-52,-22,3,-1,-10,12,0
1532544049512,-4,5,14,-10,-4,-13,-17,-4
1532544049517,4,2,11,-4,0,-32,-1,-3
1532544049522,-7,-19,-54,-18,-21,-36,5,-4
1532544049527,3,1,-15,15,13,34,-5,3
1532544049532,-2,-2,17,-2,4,15,3,4
1532544049537,1,20,9,-2,2,50,-23,-10
1532544049542,-2,-2,26,13,-2,-47,3,-1
1532544049547,-2,-10,-18,-4,3,9,-1,-16
1532544049552,11,90,78,3,-6,54,-32,17
1532544049557,4,-107,-92,-5,4,2,47,7
1532544049562,-5,8,12,-1,2,1,0,-6
1532544049567,-1,-14,-16,-1,-1,18,4,1
1532544049572,-10,-5,16,1,-6,-60,-1,-16
1532544049577,2,50,28,-4,6,41,-22,3
1532544049582,-2,-28,-2,3,-4,-8,7,2
1532544049587,4,-7,-17,-3,-4,-10,-16,-7
1532544049592,-10,4,4,9,5,-58,4,-3
1532544049597,4,-5,9,-13,-8,-15,-12,18
1532544049602,1,9,-30,1,0,4,-17,-3
1532544049607,-4,-19,-12,0,1,7,-1,-7
1532544049612,4,26,25,6,-1,-4,-21,3
1532544049617,3,-7,-7,2,5,-2,-12,7
1532544049622,-4,-1,-10,-6,-11,-5,1,-8
1532544049627,0,19,35,-8,-4,-14,-32,-8
1532544049632,2,3,-53,1,1,-12,5,-1
1532544049637,2,15,9,3,-2,-4,-1,4
1532544049642,-1,51,31,-5,-9,17,-27,-5
1532544049647,-9,-72,-74,-5,3,-7,21,3
1532544049652,3,1,34,9,-6,-37,-14,-1
1532544049657,-1,-7,-14,-16,-3,7,23,7
1532544049662,-3,0,-9,1,1,-2,-2,-2
1532544049667,2,21,31,13,5,-4,-11,-5
1532544049672,-2,4,4,-8,-2,-2,5,-8
1532544049677,3,2,5,8,-1,7,-7,13
1532544049682,-8,-34,-5,-4,4,13,14,-6
1532544049687,4,35,-5,-9,-3,-5,1,-7
1532544049692,-11,-19,-1,1,-6,-20,-5,-5
1532544049697,5,9,21,4,-5,-7,4,-2
1532544049702,2,4,-5,0,17,36,4,1
1532544049707,-7,-46,-29,9,3,-11,22,3
1532544049712,3,21,16,-7,-12,-20,-7,9
1532544049717,0,-10,23,3,3,-12,-2,-1
1532544049722,0,4,2,-4,-2,-13,3,-5
1532544049727,-2,1,-9,2,1,13,-16,-2
1532544049732,-3,-6,18,14,9,-20,1,-7
1532544049737,-6,11,-4,-4,-3,-7,-13,7
1532544049742,13,-10,-5,1,4,50,17,-1
1532544049747,-3,58,4,-16,-5,-41,0,-7
1532544049752,-6,-50,-22,5,-8,-26,8,-3
1532544049757,-6,13,11,-2,-1,58,-11,-11
1532544049762,2,2,37,6,1,-43,1,11
1532544049767,3,7,-35,-4,9,73,2,-4
1532544049772,0,-1,-4,10,7,-1,-2,3
1532544049777,-15,-31,5,10,16,-8,2,0
1532544049782,5,-4,-24,-9,-5,-13,6,4
1532544049787,4,25,29,6,1,-5,4,0
1532544049792,-1,-3,-15,-4,-2,2,-2,-4
1532544049797,-3,-2,4,-4,-8,9,-12,-2
1532544049802,2,21,13,-2,1,-25,2,1
1532544049807,-1,2,-20,5,2,2,1,-6
1532544049812,0,-13,5,-5,-2,-5,-5,2
1532544049817,5,-10,-16,3,1,5,4,2
1532544049822,1,34,11,-1,-4,0,2,2
1532544049827,-8,-36,5,-9,-7,-16,4,-5
1532544049832,0,-15,-15,7,5,-4,-2,0
1532544049837,2,14,-7,-3,0,17,-3,0
1532544049842,-4,-2,34,1,-4,-16,-3,-1
1532544049847,5,10,-8,8,16,-1,6,0
1532544049852,-4,-16,32,-1,-13,-10,-15,-4
1532544049857,2,21,-5,2,3,0,-3,0
1532544049862,-3,-9,-58,-6,-1,25,-23,2
1532544049867,-5,-3,-10,-10,-9,-60,-9,-1
1532544049872,3,-12,-6,8,13,45,-8,7
1532544049877,1,8,15,-5,-6,-10,-9,-3
1532544049882,2,4,23,5,2,6,-7,-4
1532544049887,-2,0,3,5,-3,-1,-3,1
1532544049892,2,-3,-14,-2,2,-34,-19,-3
1532544049897,0,14,3,-4,-4,22,-32,5
1532544049902,-8,-16,-23,-2,6,0,-4,-5
1532544049907,1,-1,25,-2,-7,0,-9,-1
1532544049912,-4,-10,-17,-10,-3,32,7,-3
1532544049917,8,2,-24,-1,4,-1,-9,-3
1532544049922,-17,12,40,19,-4,-36,-34,-1
1532544049927,2,-4,-26,-13,-1,35,8,2
1532544049932,-6,-16,-11,-2,1,12,-11,-5
1532544049937,-1,-2,-3,-3,2,3,-4,2
1532544049942,8,14,35,1,2,-3,6,-3
1532544049947,-4,-3,-9,1,-12,-3,-5,-2
1532544049952,5,-4,-25,5,1,-24,13,3
1532544049957,-12,-23,-9,-16,-12,6,6,-9
1532544049962,7,-1,26,6,9,3,12,15
1532544049967,-3,10,0,3,3,34,-12,-11
1532544049972,2,10,12,-1,-4,0,-1,0
1532544049977,3,18,7,4,0,-40,-12,3
1532544049982,-7,-45,-6,10,-2,37,11,-3
1532544049987,6,-1,-22,2,2,7,15,10
1532544049992,-8,-23,-30,-8,-4,-16,5,-8
1532544049997,-6,-13,-9,-2,8,12,8,0
1532544050002,0,17,9,-6,-16,-10,4,4
1532544050007,-1,-12,15,-2,-6,-23,13,-4
1532544050012,13,15,-10,3,10,39,-15,2
1532544050017,-2,2,14,4,-2,-10,13,1
1532544050022,-7,-5,1,5,8,-2,-3,-4
1532544050027,4,15,16,8,2,13,-8,0
1532544050032,-1,8,-27,-5,1,22,4,1
1532544050037,-2,-38,1,-4,0,12,12,-5
1532544050042,3,6,-5,-8,-4,-10,-6,6
1532544050047,-13,-26,-2,4,-5,7,14,2
1532544050052,-11,-12,0,-4,2,-19,-5,-8
1532544050057,-2,17,7,-5,5,3,-13,-2
1532544050062,4,9,5,-7,-13,1,-1,-2
1532544050067,3,-6,21,-3,1,-2,7,-2
1532544050072,4,6,-42,0,-1,9,-4,0
1532544050077,-2,-2,-5,11,8,-61,5,6
1532544050082,0,4,15,8,-2,36,-1,-2
1532544050087,1,6,-10,-20,-9,2,-15,0
1532544050092,-5,-9,12,-1,-1,-2,6,-1
1532544050097,0,3,-5,-2,0,7,1,-4
1532544050102,-6,-14,5,3,0,-15,9,-1
1532544050107,0,18,-10,8,-3,-36,-12,-5
1532544050112,5,8,5,-6,1,29,-4,1
1532544050117,-17,-24,2,-3,-6,23,-3,-4
1532544050122,6,5,-2,-1,1,-37,-13,0
1532544050127,1,5,-12,3,-1,32,4,-1
1532544050132,1,7,12,1,-4,-39,-26,0
1532544050137,4,-18,6,0,0,26,8,4
1532544050142,-6,-4,-3,1,4,-1,0,-5
1532544050147,-2,15,48,9,0,0,-5,-2
1532544050152,2,-16,-60,-28,-17,-29,14,-2
1532544050157,3,-14,6,-1,-4,-8,-11,1
1532544050162,-4,-15,-8,-2,8,8,3,2
1532544050167,4,9,-2,1,-4,16,-5,0
1532544050172,-6,-10,31,8,6,3,0,0
1532544050177,6,18,-21,-10,-8,-3,-18,-1
1532544050182,-7,-10,7,-6,-7,19,-1,0
1532544050187,1,1,-3,10,7,-18,-9,-2
1532544050192,0,1,7,6,4,8,-15,2
1532544050197,-3,0,14,-4,-5,27,2,2
1532544050202,3,1,-19,5,3,-19,-8,0
1532544050207,-1,0,12,4,5,13,-8,0
1532544050212,-7,4,-18,-12,-5,4,2,-2
1532544050217,2,-5,-8,-10,-5,2,-11,1
1532544050222,3,0,23,6,0,-17,2,-1
1532544050227,-12,6,-5,4,8,38,9,0
1532544050232,12,3,1,6,-3,-24,5,0
1532544050237,-14,-6,-17,-2,0,-1,14,8
1532544050242,-6,0,10,-8,-7,-1,11,-17
1532544050247,6,0,-8,-1,-4,-7,-1,1
1532544050252,11,-3,18,7,10,-4,-2,0
1532544050257,-7,2,-29,-5,-1,8,20,-6
1532544050262,29,1,3,-4,-8,-4,-1,8
1532544050267,-35,-2,21,3,-3,-1,12,-2
1532544050272,2,0,-21,10,9,-3,3,3
1532544050277,6,-1,-3,-1,-2,-6,-10,-1
1532544050282,-14,-4,2,-10,0,5,7,-3
1532544050287,10,1,5,0,-4,6,-14,-7
1532544050292,-6,-4,-7,-5,-5,-5,-15,1
1532544050297,14,15,45,6,5,-5,25,7
1532544050302,51,5,-42,-2,2,6,-24,9
1532544050307,-68,-10,-14,-8,-10,-2,23,-4
1532544050312,-17,-2,10,5,3,-6,-21,-3
1532544050317,-7,-4,-12,-1,2,-3,-51,-4
1532544050322,-18,-6,12,4,1,-11,7,-5
1532544050327,7,-3,-11,-7,-9,-15,18,2
1532544050332,-3,-3,1,-2,4,6,-36,5
1532544050337,-1,6,3,7,4,1,2,-3
1532544050342,18,-3,0,2,3,-8,81,-11
1532544050347,-4,9,-2,1,2,-8,-81,18
1532544050352,-20,-2,7,4,-1,3,45,-8
1532544050357,10,5,-5,-10,-6,-11,18,-3
1532544050362,5,0,4,0,1,11,30,-5
1532544050367,22,-1,-13,-3,-8,-7,24,-4
1532544050372,-61,-6,3,0,-11,-12,63,-5
1532544050377,-1,-1,-4,4,1,4,39,10
1532544050382,0,1,-3,-12,-1,-13,4,8
1532544050387,-4,-3,2,6,2,-9,-8,-3
1532544050392,3,0,1,3,-3,-21,42,-1
1532544050397,-9,5,4,8,7,9,-43,1
1532544050402,7,-1,0,-1,-4,-10,-46,-6
1532544050407,-8,-2,-1,-2,-4,-5,25,1
1532544050412,12,-1,-2,-1,-2,5,115,5
1532544050417,-46,-5,-5,-6,-3,-3,127,-8
1532544050422,1,1,1,-2,-3,-4,-124,-24
1532544050427,1,2,1,-1,-7,4,-112,4
1532544050432,-7,-2,-2,5,7,11,-111,-2
1532544050437,-8,5,-2,5,2,2,-3,-3
1532544050442,12,1,4,17,-1,2,0,6
1532544050447,16,2,2,7,7,6,4,3
1532544050452,-33,-3,-23,-22,-12,6,2,-5
1532544050457,5,7,22,1,-3,-1,105,4
1532544050462,6,6,-26,-11,-7,-6,114,4
1532544050467,-4,-18,-8,-6,-3,49,14,3
1532544050472,11,5,59,11,12,-37,-19,-4
1532544050477,7,16,19,-4,-3,5,-13,10
1532544050482,-14,-1,1,-6,-3,-4,41,-3
1532544050487,-8,4,1,8,0,-7,-11,1
1532544050492,7,-10,1,-10,-7,0,10,7
1532544050497,-11,6,12,6,-1,2,-2,-6
1532544050502,-2,-5,8,3,1,-18,-4,0
1532544050507,-3,3,4,1,5,-6,4,-3
1532544050512,15,-2,3,8,-1,13,-1,2
1532544050517,-4,1,0,1,3,-13,-2,-9
1532544050522,-7,-5,-1,-6,-1,3,-1,3
1532544050527,0,6,0,6,4,2,-2,-6
1532544050532,-5,-10,-2,5,3,0,0,-4
1532544050537,7,11,-9,-11,-7,-1,-1,2
1532544050542,5,5,13,1,-1,-2,-3,-11
1532544050547,1,-3,-4,-7,1,-1,-1,3
1532544050552,-4,-7,-1,4,2,7,0,-2
1532544050557,4,9,1,8,1,-8,1,-2
1532544050562,3,-2,-5,-9,0,1,-1,-12
1532544050567,-1,8,0,-2,2,-3,0,0
1532544050572,0,0,1,7,0,0,-1,-6
1532544050577,6,-4,-4,-2,4,-2,3,-8
1532544050582,-13,0,1,9,-1,6,0,2
1532544050587,-45,0,14,-7,-14,-3,-3,-2
1532544050592,-12,-6,-31,-7,-3,-5,0,-2
1532544050597,-8,-2,-2,-3,1,0,-98,0
1532544050602,-8,0,3,8,-5,3,-119,-6
1532544050607,2,-2,-52,9,5,2,74,5
1532544050612,-2,0,5,-12,2,6,55,-2
1532544050617,-3,-9,-36,-10,-2,68,10,-1
1532544050622,4,12,22,5,1,-24,-7,0
1532544050627,-3,3,-7,5,6,1,-10,-6
1532544050632,1,1,1,2,-2,5,-1,0
1532544050637,-5,1,25,-12,-11,-15,-13,-6
1532544050642,-1,-8,-7,-3,6,-7,-4,1
1532544050647,-8,-2,-5,-1,-2,8,2,-2
1532544050652,2,-7,-29,-4,-6,8,-1,2
1532544050657,3,9,35,17,8,-8,-8,4
1532544050662,-2,-5,-8,-15,4,1,6,-8
1532544050667,0,0,-15,-5,-13,-3,-4,-3
1532544050672,-2,-1,1,-5,6,10,4,2
1532544050677,1,3,18,4,-3,-1,-1,3
1532544050682,-1,0,-2,19,9,-12,-7,-3
1532544050687,-1,-4,13,-1,2,9,-7,3
1532544050692,-2,-1,-29,-20,-14,-7,-14,-5
1532544050697,1,0,-23,-5,1,3,10,8
1532544050702,-4,-2,32,5,0,1,-6,-5
1532544050707,-3,-8,-44,1,3,2,0,-2
1532544050712,4,2,17,11,4,-2,-4,2
1532544050717,-3,-6,6,10,8,5,0,-4
1532544050722,-1,-1,6,-4,-1,-1,1,1
1532544050727,2,6,1,-7,-9,-2,5,2
1532544050732,-2,-3,-3,-7,-8,-3,-2,-2
1532544050737,-2,2,26,0,3,-1,-10,-2
1532544050742,2,-1,-34,7,-2,2,7,5
1532544050747,-1,-2,-2,2,4,-3,-2,-4
1532544050752,-4,-1,0,-3,2,-5,-4,-2
1532544050757,1,-3,-2,-6,-1,11,1,1
1532544050762,-1,2,25,8,3,-5,-10,2
1532544050767,2,6,-8,-9,-10,0,3,-1
1532544050772,-2,-2,15,-1,1,-3,-9,0
1532544050777,-1,-2,-2,-8,-9,-2,3,-7
1532544050782,3,3,25,-8,0,-1,-5,11
1532544050787,2,-3,-2,-4,-11,-2,-4,-1
1532544050792,-3,-3,-37,-11,-7,-1,13,-5
1532544050797,-6,-8,5,10,4,6,0,-3
1532544050802,4,6,-12,-10,-3,-3,1,-4
1532544050807,0,4,24,12,6,2,2,1
1532544050812,1,-4,10,6,-2,-1,-4,3
1532544050817,-3,-2,-24,-18,-7,-4,1,-4
1532544050822,-5,-4,10,-5,-4,0,1,-3
1532544050827,1,-2,-1,8,0,2,-2,0
1532544050832,0,3,2,4,2,-2,-2,1
1532544050837,0,-2,-4,-1,1,-3,-3,-1
1532544050842,0,-4,-10,1,2,6,3,0
1532544050847,1,2,13,16,8,-12,-3,-1
1532544050852,-4,-6,-20,-22,-16,-1,4,-3
1532544050857,1,2,3,-17,-13,-8,0,4
1532544050862,-3,1,8,10,7,3,3,-2
1532544050867,-3,-5,30,-1,-5,4,4,-2
1532544050872,1,0,-42,7,8,-2,1,1
1532544050877,2,9,15,10,7,0,2,2
1532544050882,-3,-2,0,-2,-1,0,-1,-4
1532544050887,-5,-3,-4,-4,1,-1,1,-7
1532544050892,0,0,11,8,3,-1,-2,10
1532544050897,-2,-3,-11,-5,4,4,5,-4
1532544050902,0,0,-4,4,-1,-4,-5,-4
1532544050907,1,-2,1,-4,-3,1,6,3
1532544050912,-1,-2,-10,-17,-4,-3,-2,-4
1532544050917,1,2,0,5,-2,-1,1,-2
1532544050922,-4,0,6,-1,-1,-2,0,-5
1532544050927,1,-4,-16,-1,-5,0,0,0
1532544050932,4,6,39,16,6,2,-3,4
1532544050937,0,0,7,4,3,-2,-2,2
1532544050942,0,-4,-39,-14,-7,-4,1,-2
1532544050947,-1,2,-7,-3,-2,2,-4,-2
1532544050952,1,-3,-9,-1,1,0,0,1
1532544050957,-1,0,7,11,13,1,-8,-2
1532544050962,2,1,44,10,-8,-1,-4,0
1532544050967,-4,-1,-53,-19,-5,-1,-2,-3
1532544050972,-3,-4,6,-8,-5,-2,4,-3
1532544050977,0,2,-1,2,-1,1,-1,1
1532544050982,-1,-1,8,4,4,-3,-5,-4
1532544050987,2,-4,-4,5,5,-1,0,8
1532544050992,1,3,16,12,12,1,-7,3
1532544050997,-2,-6,-18,-19,-14,-5,-4,-2
1532544051002,-1,-1,5,-6,-1,2,3,4
1532544051007,-1,-2,3,2,-1,1,-5,-7
1532544051012,-3,2,11,1,-2,1,-2,-8
1532544051017,1,0,-3,17,4,-2,-3,2
1532544051022,-4,-3,-4,-10,5,0,5,1
1532544051027,-1,-1,-44,-4,6,5,12,-6
1532544051032,3,-3,36,-6,-15,-10,7,4
1532544051037,-5,8,5,11,10,3,7,-3
1532544051042,3,-1,-6,-8,-3,6,-1,4
1532544051047,-3,-1,14,6,1,-5,-4,-1
1532544051052,-1,-4,-10,-9,-1,2,-7,-5
1532544051057,0,-4,-2,-7,-4,-2,6,0
1532544051062,0,1,-24,12,4,0,4,3
1532544051067,-3,-2,7,-10,-4,-1,-6,-5
1532544051072,-2,-3,21,-6,-8,3,-2,-1
1532544051077,2,2,-19,9,5,-2,3,1
1532544051082,-5,0,2,-6,12,2,-1,-1
1532544051087,1,3,33,0,1,6,-1,1
1532544051092,-2,-2,-8,2,0,-6,-7,0
1532544051097,-2,-2,1,-14,-8,3,5,-3
1532544051102,-3,-3,25,3,2,-9,-8,-1
1532544051107,-3,-5,-31,0,3,-5,-2,-1
1532544051112,4,6,2,11,2,14,2,4
1532544051117,1,2,5,-1,9,-6,-3,-1
1532544051122,-3,0,10,-11,-17,2,-3,-7
1532544051127,-1,-2,4,0,3,-1,-7,-1
1532544051132,-3,-6,-18,2,-1,-3,-9,-1
1532544051137,1,-2,-3,-1,-2,5,-5,-1
1532544051142,0,2,20,2,5,4,-8,-2
1532544051147,-3,-2,19,2,7,-10,-3,1
1532544051152,3,1,24,11,3,18,-5,-1
1532544051157,0,-2,-32,-15,-10,-23,-4,1
1532544051162,-10,-4,-1,-9,-6,5,5,-10
1532544051167,-3,-5,-6,11,11,-2,1,-6
1532544051172,8,11,11,-1,-2,-2,-3,8
1532544051177,0,1,21,6,4,-3,5,-3
1532544051182,-5,-2,21,-5,-5,5,1,-1
1532544051187,1,-1,-46,1,-4,-5,10,-2
1532544051192,3,0,6,3,4,1,6,-3
1532544051197,-15,-3,9,8,4,3,3,0
1532544051202,-2,-2,-4,-27,-20,11,11,-3
1532544051207,8,1,5,15,-1,8,2,3
1532544051212,-8,-9,-20,-18,-12,-3,6,-2
1532544051217,-2,1,13,11,3,-5,3,0
1532544051222,1,-4,-29,-4,3,-3,-6,-1
1532544051227,0,-4,-28,5,2,-5,-1,-2
1532544051232,-4,-2,-2,0,15,1,3,-1
1532544051237,5,4,2,9,-6,1,1,2
1532544051242,-1,-1,5,-24,-14,5,1,-2
1532544051247,-1,-1,0,1,-2,-5,-1,-2
1532544051252,1,1,1,-5,-8,-7,-6,-1
1532544051257,0,-1,1,7,10,9,9,1
1532544051262,-2,1,-10,4,-1,-4,-6,0
1532544051267,-1,3,-3,3,2,-1,9,0
1532544051272,-4,-6,15,0,-2,-3,3,-4
1532544051277,1,0,-14,-4,-2,2,3,0
1532544051282,0,-1,24,8,-1,12,-2,-1
1532544051287,-2,-1,1,-10,-5,-24,-7,-1
1532544051292,0,1,-17,0,-2,1,-1,2
1532544051297,0,0,2,9,7,3,-3,0
1532544051302,-2,-2,4,-13,-10,-7,-5,-4
1532544051307,0,-1,12,-2,2,13,4,0
1532544051312,-4,-1,9,-2,-6,-7,0,-2
1532544051317,0,-1,-20,5,1,-4,1,0
1532544051322,1,3,35,7,4,-4,-1,1
1532544051327,0,3,-44,-15,-4,0,7,0
1532544051332,-2,-3,12,-4,-7,-5,7,-3
1532544051337,4,6,-6,3,-1,5,2,0
1532544051342,-1,-2,4,0,-1,-12,-3,0
1532544051347,0,-4,24,-6,-7,4,-2,-2
1532544051352,1,-3,-30,-13,-12,14,4,-3
1532544051357,-8,-4,8,8,2,-27,-16,-4
1532544051362,-3,-3,-24,-11,-4,6,2,-3
1532544051367,2,0,17,5,1,0,-8,-1
1532544051372,1,0,13,3,1,6,-1,1
1532544051377,-2,-1,11,11,7,12,9,3
1532544051382,5,4,3,6,1,-4,-11,-2
1532544051387,-3,-4,-23,-9,-6,-7,1,0
1532544051392,-6,-10,-10,-12,-2,-7,-7,-3
1532544051397,1,7,-8,9,-4,-2,-5,-1
1532544051402,1,-1,19,-11,-9,-2,-8,0
1532544051407,-6,-7,-19,-4,3,6,-2,8
1532544051412,-3,8,26,3,5,-3,0,2
1532544051417,2,-4,-32,1,0,-4,-10,-2
1532544051422,6,7,15,2,-1,-3,-6,-2
1532544051427,-3,-7,8,-1,-2,0,-3,-9
1532544051432,-2,-5,-19,-9,-1,0,-1,-4
1532544051437,-6,-2,14,1,-2,-8,-7,3
1532544051442,-1,-4,0,4,4,2,-7,-7
1532544051447,0,8,-4,-2,-4,12,7,1
1532544051452,6,-3,3,4,0,-15,17,10
1532544051457,8,7,-5,-3,1,-14,-6,1
1532544051462,-8,-10,-6,-1,1,5,1,3
1532544051467,0,0,19,8,5,1,-3,-1
1532544051472,-4,-3,13,-12,0,17,0,-6
1532544051477,0,-2,-59,-15,-14,-8,-4,-2
1532544051482,18,-6,11,1,-1,-1,12,2
1532544051487,-38,3,39,6,2,4,6,-2
1532544051492,4,0,-31,-11,-9,-8,11,-5
1532544051497,-7,-1,14,13,12,38,-13,-4
1532544051502,6,2,0,1,-2,-20,-32,8
1532544051507,17,-2,0,-7,-2,2,23,-5
1532544051512,1,-7,-10,-2,-1,-1,0,-1
1532544051517,-1,0,16,-4,0,-8,13,-3
1532544051522,-3,-1,9,3,-2,7,5,-5
1532544051527,8,4,5,1,-3,-3,-15,1
1532544051532,-9,-3,-12,-2,0,-7,-9,-4
1532544051537,2,-6,-2,-3,-5,4,12,-5
1532544051542,-7,8,1,2,3,-3,7,7
1532544051547,4,-13,-14,-10,-6,-12,0,2
1532544051552,7,3,-7,-1,-4,-12,9,-4
1532544051557,-5,-8,-1,7,9,60,-6,7
1532544051562,-14,1,1,-1,-6,-12,22,-5
1532544051567,24,8,-8,-7,-4,22,-26,-7
1532544051572,-28,-10,6,2,-3,-39,-21,-1
1532544051577,-8,12,20,6,5,-33,9,-2
1532544051582,-4,-5,7,-1,6,31,8,6
1532544051587,-15,4,-64,-7,-2,5,13,1
1532544051592,25,-4,34,2,3,3,8,0
1532544051597,4,-7,-42,-5,-4,-8,-5,11
1532544051602,-19,-1,5,1,-3,-19,11,-5
1532544051607,-2,7,25,4,6,30,7,10
1532544051612,-9,-1,-3,1,7,9,-3,-28
1532544051617,18,4,10,-5,-15,-16,8,12
1532544051622,-11,0,-2,-5,-6,-1,42,45
1532544051627,-1,-5,3,2,-1,-22,16,-16
1532544051632,3,0,8,6,1,-32,-42,3
1532544051637,-15,3,-21,6,11,4,13,-20
1532544051642,-31,-9,-11,-7,1,15,-18,-3
1532544051647,5,-4,6,-3,-5,2,-2,-8
1532544051652,7,12,-15,-2,-6,12,0,-6
1532544051657,19,-4,-8,-9,-3,-42,-29,-6
1532544051662,-57,-8,28,13,5,15,-11,1
1532544051667,60,-7,-43,-1,-1,-6,4,0
1532544051672,-10,-2,3,-18,-10,31,7,-4
1532544051677,21,-1,-16,-2,-3,-18,10,5
1532544051682,15,-1,-1,5,8,27,-13,-6
1532544051687,-30,8,44,6,1,18,-11,4
1532544051692,-2,-1,-11,6,3,19,9,3
1532544051697,6,-2,4,3,3,1,-1,-2
1532544051702,8,1,-6,-23,-21,-51,-16,-24
1532544051707,-38,-14,-7,-1,9,-20,-14,-2
1532544051712,3,3,-23,-13,-5,68,7,13
1532544051717,8,-13,14,2,-9,-23,-13,-8
1532544051722,19,8,-10,-2,-1,-3,-7,-16
1532544051727,46,7,13,3,2,-8,-5,24
1532544051732,-45,1,2,5,-1,-21,2,-11
1532544051737,-25,-16,6,5,8,6,1,-14
1532544051742,25,11,-7,-1,-4,20,-5,8
1532544051747,30,13,10,1,1,-14,22,15
1532544051752,41,-5,18,4,1,5,-47,17
1532544051757,66,19,-13,-2,-2,-1,7,19
1532544051762,-29,-10,-46,-4,5,24,2,-13
1532544051767,-35,-3,9,3,4,13,4,-8
1532544051772,-12,-3,3,-2,-2,-18,-16,-6
1532544051777,-37,-4,22,3,3,0,-7,-5
1532544051782,20,9,-1,-4,-13,-69,-11,-11
1532544051787,-3,-6,0,-3,-4,9,-24,-5
1532544051792,13,-3,-6,15,25,82,75,24
1532544051797,16,8,0,-1,2,-27,-16,17
1532544051802,11,-5,4,-16,-13,-4,17,-2
1532544051807,-7,0,30,-5,-12,9,-13,-13
1532544051812,-23,-12,-53,7,-1,-82,16,-10
1532544051817,3,4,18,-3,2,45,28,5
1532544051822,-5,6,32,-9,-8,-44,-12,-8
1532544051827,-6,-24,-66,-8,5,38,19,9
1532544051832,-20,3,3,-9,-9,-13,-23,4
1532544051837,44,-1,12,11,1,-6,-13,-5
1532544051842,-60,-3,-13,6,-2,-50,0,-2
1532544051847,50,9,33,-3,-1,53,-5,2
1532544051852,-10,-5,-26,-3,1,-23,-10,-8
1532544051857,-31,-12,-2,1,0,21,-2,6
1532544051862,5,3,11,2,-9,-29,-28,-9
1532544051867,34,-4,-5,0,11,40,-25,21
1532544051872,-65,7,5,0,2,23,21,-15
1532544051877,-28,2,12,-2,-1,-30,2,-10
1532544051882,18,-3,20,16,2,19,19,-2
1532544051887,22,8,-32,-7,0,-53,10,-3
1532544051892,-8,-14,-9,-29,-22,1,-11,-8
1532544051897,-25,4,-10,-5,8,48,-25,2
1532544051902,-5,-7,5,11,11,18,-9,-4
1532544051907,65,9,7,14,-2,-51,21,-4
1532544051912,-5,5,28,4,5,30,23,8
1532544051917,-26,-9,-32,-11,-10,-38,61,-5
1532544051922,-8,4,-5,12,12,50,4,2
1532544051927,-40,-3,5,-2,-1,15,24,2
1532544051932,51,7,-4,-3,0,-21,20,9
1532544051937,-34,-6,9,-6,-8,-16,8,-14
1532544051942,21,2,-13,1,9,38,-2,18
1532544051947,-44,-1,7,-5,-7,-4,1,-18
1532544051952,16,0,9,4,-4,-39,0,4
1532544051957,35,-1,-5,2,5,47,65,3
1532544051962,-9,-1,3,-3,0,-21,53,-11
1532544051967,-30,-4,-5,1,-2,-5,10,-10
1532544051972,45,0,-3,4,0,-12,103,6
1532544051977,8,3,-1,-16,-20,-59,-114,-6
1532544051982,-25,0,9,-7,-4,97,-75,7
1532544051987,-35,-2,-17,11,16,-35,-57,6
1532544051992,5,1,9,-3,7,94,-35,0
1532544051997,7,0,2,7,5,-28,13,-3
1532544052002,25,0,-8,-4,-1,-45,10,2
1532544052007,-4,-7,-3,-16,-21,-36,6,2
1532544052012,3,3,7,4,-3,-4,-14,-2
1532544052017,16,-7,-7,6,-1,5,19,3
1532544052022,-59,6,1,-3,-1,-49,-10,-8
1532544052027,17,-1,5,-4,-4,57,19,-7
1532544052032,1,-3,-3,3,-2,-36,-10,-2
1532544052037,3,1,4,0,-1,20,-9,-7
1532544052042,32,-3,-15,2,6,-24,19,5
1532544052047,-19,-7,-1,-11,-9,-9,5,-2
1532544052052,9,4,-7,-11,-9,15,-19,1
1532544052057,-65,-8,2,-3,-3,12,-6,-8
1532544052062,63,2,2,9,17,19,6,9
1532544052067,-18,1,5,4,-4,-17,3,-9
1532544052072,6,-1,1,4,3,-21,-24,-8
1532544052077,2,-3,1,-4,-5,4,3,-2
1532544052082,-5,-9,-16,-19,-12,23,9,-7
1532544052087,-4,-6,0,0,3,5,-1,4
1532544052092,40,0,2,13,13,9,-6,-2
1532544052097,-17,10,-2,-9,-8,-13,2,-1
1532544052102,21,3,-3,-9,-14,0,-3,6
1532544052107,-11,1,2,3,9,15,-1,-5
1532544052112,-11,-4,0,2,-3,-27,-5,-3
1532544052117,-5,-3,0,6,3,-20,1,-4
1532544052122,23,-3,-3,3,8,34,-5,0
1532544052127,-4,4,2,0,-10,-30,3,-3
1532544052132,-13,-7,1,0,0,-38,-2,3
1532544052137,8,12,3,0,6,86,-1,18
1532544052142,11,-5,2,12,5,-53,4,0
1532544052147,-10,-4,-5,-6,-7,-41,0,-4
1532544052152,-43,-4,-5,-16,-7,53,-5,-4
1532544052157,10,-6,-2,-4,1,-5,-7,-6
1532544052162,-1,-12,-5,-5,-9,11,-3,-4
1532544052167,-10,7,12,10,5,-64,-6,-6
1532544052172,42,8,-5,12,5,45,-7,12
1532544052177,-65,-6,2,1,2,7,5,-3
1532544052182,-26,-3,-6,-9,4,12,1,-4
1532544052187,37,0,13,0,-8,-42,-1,3
1532544052192,-6,-3,-5,-5,-8,-2,-1,-6
1532544052197,8,0,-6,-5,-2,54,0,-6
1532544052202,10,10,13,9,0,-62,-1,-1
1532544052207,-30,-1,-24,-10,2,71,3,8
1532544052212,32,0,5,-5,-8,-54,-3,-5
1532544052217,17,5,7,15,18,46,-2,17
1532544052222,-3,0,0,-1,-6,-30,-3,-2
1532544052227,0,2,5,-2,3,71,-1,-6
1532544052232,-2,5,3,7,5,-11,-3,3
1532544052237,-18,-19,24,-3,-6,-54,2,-5
1532544052242,2,8,-44,-6,-5,24,0,-2
1532544052247,-6,-6,8,4,0,-13,-5,-3
1532544052252,-5,-2,-7,-11,-8,-10,-5,-2
1532544052257,14,6,2,-1,-4,-10,0,-3
1532544052262,3,-2,17,12,6,13,-1,4
1532544052267,0,-1,-8,8,9,-6,2,1
1532544052272,0,-3,-10,-17,-6,5,-5,-4
1532544052277,13,0,-2,-6,-13,-25,0,-9
1532544052282,-20,-5,-9,-20,-11,18,-1,0
1532544052287,3,2,-1,3,5,37,2,-1
1532544052292,-2,-1,35,11,9,-31,1,5
1532544052297,-25,3,-43,5,5,-36,-4,-2
1532544052302,16,-7,4,-2,2,66,-1,-3
1532544052307,4,-5,6,-11,-15,-78,-1,-4
1532544052312,-6,0,-5,-2,0,8,1,2
1532544052317,-32,-11,-7,-2,-3,24,-5,-14
1532544052322,6,-6,-21,-8,-1,7,3,8
1532544052327,-30,-4,2,6,4,2,1,-16
1532544052332,11,5,6,8,3,-10,-3,2
1532544052337,15,2,3,-7,-8,-3,2,8
1532544052342,4,-2,16,-1,7,5,-2,0
1532544052347,8,-2,-10,-1,1,18,-3,6
1532544052352,-21,-4,-8,-3,-4,-47,-2,-4
1532544052357,15,-2,6,-2,0,72,-3,-6
1532544052362,-7,3,3,-2,-5,-31,2,-4
1532544052367,5,4,1,0,-7,-32,-4,2
1532544052372,10,1,-2,3,11,21,1,-2
1532544052377,-17,-4,2,7,-2,-34,-2,1
1532544052382,4,-1,11,1,-7,36,-3,-5
1532544052387,-6,-2,-4,-2,0,-3,-4,1
1532544052392,16,-3,-7,1,1,15,-6,10
1532544052397,9,7,8,-6,-2,-27,1,-7
1532544052402,-3,2,-15,2,6,-16,-5,-5
1532544052407,2,-13,7,4,-1,11,1,-1
1532544052412,-22,-9,-22,-20,-7,25,0,-5
1532544052417,17,0,-6,-10,-9,-38,0,6
1532544052422,-6,5,7,7,0,-30,-3,-3
1532544052427,23,5,-2,8,4,56,0,3
1532544052432,-9,3,52,8,0,-3,1,-3
1532544052437,2,-1,-38,1,5,-17,-1,7
1532544052442,11,4,-5,-3,-5,-16,1,1
1532544052447,-18,-4,-9,-6,-5,33,-3,-5
1532544052452,-8,-5,0,10,4,15,0,0
1532544052457,3,2,16,-1,13,-12,-3,-3
1532544052462,9,-3,-1,-7,-22,-22,-1,-1
1532544052467,10,8,-4,-3,1,-11,-1,7
1532544052472,-20,-7,-3,-6,-7,3,-5,-4
1532544052477,19,7,25,11,8,1,2,2
1532544052482,-9,-6,-28,-7,8,-5,-4,4
1532544052487,-13,-4,4,-3,-2,17,2,-6
1532544052492,15,3,-11,5,1,-12,-1,-4
1532544052497,2,0,1,0,-6,15,-3,0
1532544052502,-11,-4,14,2,2,-5,-5,-1
1532544052507,-7,0,-2,-2,-3,-12,-1,-4
1532544052512,-2,-1,-10,-4,-2,5,1,-1
1532544052517,5,1,4,2,-1,-12,-3,-1
1532544052522,-6,3,7,1,3,18,0,-3
1532544052527,8,-10,-6,-6,1,-29,-2,-1
1532544052532,-9,6,1,5,0,27,-1,2
1532544052537,-6,5,15,10,0,-19,-1,-6
1532544052542,28,-2,-6,-11,-10,-27,1,5
1532544052547,32,13,-1,-9,0,25,-1,6
1532544052552,-32,-22,-44,-24,-7,-9,5,2
1532544052557,-19,-9,-10,0,-4,28,-3,-15
1532544052562,-44,7,24,15,2,-18,1,-10
1532544052567,-11,5,39,21,13,-8,-3,4
1532544052572,28,6,-25,3,1,51,-3,5
1532544052577,36,-1,2,-11,-1,-16,-12,4
1532544052582,-13,-3,0,-2,-4,14,-67,-4
1532544052587,-11,-2,-8,-3,-4,-27,-95,-4
1532544052592,7,7,16,10,3,-20,-44,0
1532544052597,-13,-12,-7,-1,-2,6,15,-3
1532544052602,10,-2,-4,-12,-8,5,74,-1
1532544052607,-1,5,12,5,-3,-11,66,0
1532544052612,-2,-6,-18,-7,0,5,45,3
1532544052617,-6,3,-14,-2,-3,-38,16,-1
1532544052622,44,6,34,6,18,74,14,8
1532544052627,-9,4,-16,0,-2,-5,-10,-3
1532544052632,21,1,4,1,-1,-26,-3,-1
1532544052637,53,0,14,1,-2,26,6,-2
1532544052642,-27,-11,-20,1,-2,-35,9,-1
1532544052647,-23,-3,27,11,10,29,-8,4
1532544052652,-11,1,-17,-14,-3,-8,-4,-6
1532544052657,36,0,-11,-8,-11,-19,-2,-4
1532544052662,-57,0,2,-3,1,18,-5,-1
1532544052667,19,1,-19,6,4,19,-7,5
1532544052672,-14,-12,-7,-6,-3,17,-1,-1
1532544052677,-12,-10,-1,-13,-1,-22,-1,-6
1532544052682,29,15,-2,12,-4,-64,-8,5
1532544052687,-55,6,-2,2,6,76,2,-6
1532544052692,30,-13,-10,2,4,-5,3,0
1532544052697,64,8,33,-5,-6,11,0,0
1532544052702,-4,-1,-66,-14,-11,-50,10,-9
1532544052707,-17,-20,-21,-12,-14,-33,11,13
1532544052712,-23,3,-2,15,8,42,-2,-6
1532544052717,-42,-9,2,1,0,-7,11,-7
1532544052722,10,5,6,-1,2,24,-7,3
1532544052727,31,10,34,-2,-6,-44,-5,3
1532544052732,22,-6,-8,-2,-1,87,2,-3
1532544052737,-50,-2,-7,5,1,-53,-44,-4
1532544052742,-2,0,45,5,1,6,-26,-6
1532544052747,12,4,12,8,7,16,-13,4
1532544052752,23,1,-5,-16,-10,-64,-3,3
1532544052757,-34,-7,-44,1,1,44,11,4
1532544052762,5,-3,6,-5,-8,-35,1,7
1532544052767,56,7,16,10,21,-15,-2,3
1532544052772,-24,-13,-1,8,-14,-97,0,-1
1532544052777,13,12,19,13,29,76,6,3
1532544052782,-11,-11,-39,-24,-13,-37,-1,0
1532544052787,20,11,3,-6,-10,-62,2,2
1532544052792,-8,-1,7,2,-1,3,-7,-3
1532544052797,-16,-14,-5,0,-10,7,1,5
1532544052802,18,9,35,13,11,10,2,2
1532544052807,-11,-42,-12,1,0,0,-1,-5
1532544052812,-17,25,-22,-5,7,50,-5,-8
1532544052817,6,11,14,-7,-16,-18,2,8
1532544052822,8,13,11,-1,1,59,0,-2
1532544052827,5,16,-5,-5,-11,-28,-3,0
1532544052832,-20,-10,-5,-1,0,-90,-5,-4
1532544052837,16,-3,8,4,-5,6,3,0
1532544052842,-9,-13,-7,-3,18,60,0,1
1532544052847,-21,-12,15,-5,-10,-56,-6,-10
1532544052852,3,-3,5,18,-6,7,-7,3
1532544052857,6,-5,1,-21,-12,-30,-108,-8
1532544052862,-16,-6,-52,-6,-4,-3,-120,-7
1532544052867,-5,-2,-10,-1,5,44,-128,-17
1532544052872,-7,-7,18,7,2,-29,-29,31
1532544052877,16,19,2,7,8,-16,66,34
1532544052882,0,-3,12,7,-13,11,100,-30
1532544052887,0,-5,-2,1,10,-6,106,1
1532544052892,9,16,35,-2,-6,-13,83,3
1532544052897,-3,-4,-36,-3,-8,-36,84,-14
1532544052902,0,1,24,1,16,82,74,13
1532544052907,36,7,-35,4,-1,-21,70,-2
1532544052912,-67,-20,-45,-7,4,34,68,-13
1532544052917,-4,-4,0,-7,-9,-4,88,-8
1532544052922,4,-3,8,-19,-16,-12,80,-8
1532544052927,-3,5,22,7,-6,1,78,1
1532544052932,13,3,13,-3,-2,-7,50,6
1532544052937,4,1,-4,-1,2,-36,27,-12
1532544052942,-1,2,9,12,16,21,26,9
1532544052947,-8,2,6,-7,-9,-10,31,3
1532544052952,17,5,11,1,0,18,13,3
1532544052957,-13,-2,9,13,3,15,6,-7
1532544052962,-1,-5,-46,-3,1,-12,14,0
1532544052967,-8,-4,-11,-19,-12,-60,16,4
1532544052972,-3,3,29,-5,-7,-44,-1,-13
1532544052977,2,-4,-40,-3,-8,47,-2,-5
1532544052982,6,5,47,6,14,-33,-13,13
1532544052987,-25,-23,-85,-26,-11,-4,11,-14
1532544052992,5,2,7,-3,-23,-102,0,2
1532544052997,-4,-3,14,12,29,-1,1,-3
1532544053002,15,0,4,5,-5,-36,24,0
1532544053007,0,5,21,6,16,51,-9,3
1532544053012,4,-6,-6,-3,-4,-32,-20,-7
1532544053017,5,8,3,-5,-7,-30,-11,0
1532544053022,-3,-2,-4,0,-2,18,-5,8
1532544053027,3,5,22,8,1,2,-11,1
1532544053032,-9,-1,-15,2,13,55,-9,-6
1532544053037,18,3,7,-7,0,15,1,0
1532544053042,7,2,0,-5,-7,19,-25,-3
1532544053047,-21,-4,2,12,5,-20,-19,-4
1532544053052,7,-6,14,-7,-1,75,-32,-12
1532544053057,-5,-2,-35,-1,1,-4,-26,14
1532544053062,-15,-10,7,2,-1,-59,-15,-6
1532544053067,25,12,11,0,-11,-38,-10,11
1532544053072,24,9,24,7,11,27,-27,15
1532544053077,-18,-3,-7,-4,-16,-15,6,-20
1532544053082,15,0,-8,-11,-3,-48,-19,-2
1532544053087,-36,-11,24,1,5,33,10,4
1532544053092,-11,-9,-70,-11,2,15,0,-6
1532544053097,14,6,24,10,15,33,-11,12
1532544053102,-5,-5,-15,3,-8,-15,6,-5
1532544053107,20,-1,11,-2,1,35,-10,-16
1532544053112,-2,13,20,5,-1,-44,15,17
1532544053117,0,-2,-1,2,-5,-9,12,2
1532544053122,-13,-4,-3,-7,-2,5,-13,-16
1532544053127,-4,3,-3,-2,0,22,-5,3
1532544053132,-5,-4,-3,8,8,24,3,-5
1532544053137,3,0,-5,-11,-10,-29,-3,-3
1532544053142,-1,-1,7,3,1,15,12,1
1532544053147,8,5,-2,3,0,-6,-15,-1
1532544053152,-10,-6,47,13,6,4,-4,-4
1532544053157,-4,-4,-55,-16,-5,-18,0,-26
1532544053162,-10,-5,-4,-6,-5,6,-7,3
1532544053167,12,4,-10,-17,-16,8,27,39
1532544053172,13,5,5,2,4,20,-3,-3
1532544053177,-9,-4,29,16,20,13,-21,-31
1532544053182,-8,3,-10,11,1,25,6,25
1532544053187,7,-1,-4,0,5,-10,-4,0
1532544053192,1,-3,-9,-2,-10,-36,3,1
1532544053197,-16,-11,13,-2,-5,32,-14,-14
1532544053202,-3,2,34,7,6,-10,-10,-11
1532544053207,15,4,-37,-11,-6,39,7,13
1532544053212,-27,2,-17,-12,-11,-31,-10,-75
1532544053217,7,-21,-1,-7,-2,-6,-10,86
1532544053222,13,14,12,-1,-4,-20,11,14
1532544053227,0,35,22,17,1,-16,-24,-2
1532544053232,6,-44,-7,-9,5,49,-6,-17
1532544053237,-12,1,-19,-13,-10,-27,-15,-45
1532544053242,11,-7,-12,-6,-8,14,-7,25
1532544053247,-14,-9,2,1,-4,-50,-4,-12
1532544053252,-2,17,-5,8,5,42,-25,-12
1532544053257,2,2,30,10,3,-25,-16,8
1532544053262,-3,-9,-19,1,7,-13,0,-10
1532544053267,18,41,25,-4,-17,-3,-26,-8
1532544053272,6,75,-14,-18,-11,-47,20,26
1532544053277,-17,-89,-27,0,8,99,16,10
1532544053282,1,2,-12,16,13,-13,-36,-24
1532544053287,-14,-30,16,2,6,9,-6,-22
1532544053292,-2,7,4,4,-4,-22,-3,26
1532544053297,11,45,13,-8,-6,-1,5,14
1532544053302,-12,-17,-3,-6,-12,-7,0,-71
1532544053307,-4,-12,-6,3,11,53,-3,53
1532544053312,15,-7,3,2,-1,16,18,47
1532544053317,12,27,8,5,-2,-44,-9,-7
1532544053322,-5,-28,-9,-8,-3,-9,2,5
1532544053327,-6,11,-2,0,6,10,-3,-32
1532544053332,-4,-15,-15,0,-9,-37,-13,-9
1532544053337,2,64,26,7,8,-7,19,-7
1532544053342,1,87,34,-6,-4,-1,-18,14
1532544053347,-19,-112,-79,-13,-21,-33,12,-7
1532544053352,5,20,1,-5,4,-23,3,6
1532544053357,0,-6,-3,5,-12,14,7,-9
1532544053362,-1,20,1,6,12,70,4,5
1532544053367,3,19,13,-3,6,0,7,1
1532544053372,-10,-13,1,4,6,44,-11,-23
1532544053377,-2,-41,-3,-4,-7,-66,-7,7
1532544053382,13,21,-5,-11,-15,8,18,31
1532544053387,1,5,11,7,11,24,-2,-13
1532544053392,-5,-17,-6,4,5,22,-4,-40
1532544053397,5,10,3,-5,-4,-26,9,64
1532544053402,0,-15,-4,0,-7,-28,-5,-11
1532544053407,5,10,2,9,12,55,9,9
1532544053412,-2,0,2,-1,4,48,-6,-9
1532544053417,-3,0,-5,-6,-1,26,0,-22
1532544053422,-12,-19,-10,-7,-6,-10,7,-14
1532544053427,-3,19,10,-3,-1,-22,-3,-1
1532544053432,10,-28,-9,-1,5,9,21,45
1532544053437,10,24,7,14,6,-9,-9,-11
1532544053442,-1,-29,-7,10,10,17,15,21
1532544053447,-6,19,7,-8,-14,-19,-12,-27
1532544053452,-5,-15,-6,-5,-2,-16,8,4
1532544053457,-2,-3,-2,0,-4,-16,-5,-7
1532544053462,-4,1,-1,-8,0,-12,-6,-12
1532544053467,1,4,2,4,-3,4,-1,3
1532544053472,1,-10,3,9,-4,36,0,14
1532544053477,-3,23,0,-8,2,-22,0,-23
1532544053482,-2,-11,1,9,1,-22,-1,-4
1532544053487,-5,-23,-2,-14,-11,-21,1,1
1532544053492,3,11,-13,-20,-11,-8,-4,-7
1532544053497,2,-18,9,24,15,30,16,18
1532544053502,0,3,-5,-6,-14,-8,0,0
1532544053507,-5,13,-4,-9,-2,-5,1,-12
1532544053512,13,-31,-2,-2,-4,-49,-1,-3
1532544053517,-20,-6,-7,0,3,31,-3,-6
1532544053522,-3,13,13,10,8,-21,3,0
1532544053527,9,11,7,-3,4,27,-1,-3
1532544053532,-12,-17,-17,0,-15,-14,6,-7
1532544053537,14,58,84,-6,5,15,-21,3
1532544053542,11,-78,-92,1,-6,14,-5,6
1532544053547,-53,6,-55,4,11,-27,6,4
1532544053552,19,15,10,-1,-1,-15,4,-12
1532544053557,1,-1,-2,-6,-11,-7,7,-4
1532544053562,-2,28,50,2,4,-8,-15,-12
1532544053567,20,16,22,13,-3,15,0,11
1532544053572,-7,29,-14,-11,-4,6,-16,14
1532544053577,-9,-50,-23,-15,-8,-33,8,-12
1532544053582,-9,8,14,2,8,31,-8,-20
1532544053587,9,-42,-15,4,-2,-32,-2,21
1532544053592,-7,18,22,3,2,17,-7,12
1532544053597,3,8,-5,12,5,25,-16,-16
1532544053602,5,-10,-9,-11,3,-13,-9,9
1532544053607,4,12,9,0,-5,8,-12,-13
1532544053612,-4,-12,8,9,11,43,-12,-1
1532544053617,0,-9,-23,-13,-9,-39,-4,3
1532544053622,-5,-4,-10,-8,-7,-2,-5,-3
1532544053627,5,16,27,12,10,21,-17,11
1532544053632,-1,25,8,-2,3,-44,-9,-12
1532544053637,-5,-42,-29,3,0,9,-6,4
1532544053642,-3,15,10,4,8,20,4,-15
1532544053647,6,-12,4,-13,-12,-6,1,33
1532544053652,1,-4,-15,0,-5,-23,-2,6
1532544053657,8,13,6,5,5,-3,5,-7
1532544053662,0,19,13,3,0,5,-20,6
1532544053667,1,-5,-2,-1,1,-22,8,-20
1532544053672,-9,-22,-1,-3,-1,20,-2,-7
1532544053677,-6,9,-3,-9,-10,-4,7,3
1532544053682,1,6,-5,7,1,-14,6,3
1532544053687,0,-25,21,5,5,-9,5,-12
1532544053692,2,14,-35,-5,2,-1,-2,6
1532544053697,-1,-14,-15,-12,-6,12,9,-5
1532544053702,0,3,-1,-9,-8,-21,2,8
1532544053707,-2,8,9,11,1,-13,-9,-16
1532544053712,-2,-33,12,9,2,-20,19,1
1532544053717,2,1,-7,-4,4,23,-11,36
1532544053722,-1,-2,0,2,-2,0,5,-7
1532544053727,3,10,-1,-4,0,0,-1,-1
1532544053732,-5,7,9,-1,2,3,-1,-18
1532544053737,-4,1,-5,2,-6,-25,-3,-13
1532544053742,0,8,10,5,8,65,13,19
1532544053747,-4,-21,-16,-15,-10,-53,0,-9
1532544053752,-2,0,8,10,7,66,-2,3
1532544053757,2,15,2,-2,3,-15,5,-4
1532544053762,-2,-17,-17,-9,0,-19,4,5
1532544053767,-1,19,-8,-5,-4,27,-4,-7
1532544053772,-2,-2,3,-8,-8,-57,5,-2
1532544053777,-4,-9,11,6,-3,27,-6,-15
1532544053782,0,-19,-13,-4,7,-8,13,5
1532544053787,6,14,4,6,6,7,5,5
1532544053792,2,16,8,-2,-11,-26,-7,-1
1532544053797,-6,-14,-21,-11,1,-8,8,-7
1532544053802,-2,-10,1,-2,-1,26,-6,-1
1532544053807,3,1,1,-1,0,-1,10,7
1532544053812,2,10,4,5,0,34,3,5
1532544053817,3,8,8,4,4,-30,1,-6
1532544053822,-3,0,-1,-9,-20,-10,-5,-5
1532544053827,-1,-3,-6,1,5,20,-1,8
1532544053832,-2,-3,8,7,13,-4,-8,-20
1532544053837,-4,11,0,-15,-16,-3,3,2
1532544053842,4,-1,3,10,7,-9,5,17
1532544053847,-3,-29,-17,-4,-6,13,5,-5
1532544053852,0,19,-8,-15,-8,-10,-9,2
1532544053857,-1,-27,-3,10,12,14,1,-6
1532544053862,-3,14,17,2,-7,-23,-7,4
1532544053867,-5,3,10,-3,-3,31,1,-12
1532544053872,-1,-15,-9,5,7,1,2,4
1532544053877,3,11,-4,-7,-5,4,-1,9
1532544053882,-2,26,6,1,-5,-26,-3,-21
1532544053887,0,-17,1,12,6,7,-6,4
1532544053892,-1,-23,-20,-12,-7,-1,4,6
1532544053897,-5,14,11,-2,-5,-25,-6,-19
1532544053902,-6,-20,-6,4,0,17,-12,8
1532544053907,12,18,2,-7,-4,-10,12,23
1532544053912,2,12,25,6,13,1,0,6
1532544053917,2,5,-12,-1,-12,-16,-2,-2
1532544053922,-4,-12,-16,-20,-9,24,3,-13
1532544053927,-7,3,1,1,-3,-46,-7,-8
1532544053932,-2,-3,2,3,2,49,0,3
1532544053937,3,7,9,15,12,1,-5,12
1532544053942,0,10,3,-3,-6,-30,1,-5
1532544053947,-3,-24,-14,-10,0,32,-3,-7
1532544053952,-1,17,3,0,0,-28,-14,-2
1532544053957,-5,-25,-1,0,-1,6,-7,-6
1532544053962,-3,-8,-10,4,2,-7,-4,0
1532544053967,-3,14,2,3,3,-7,-13,-11
1532544053972,-2,7,9,-12,-12,-16,-4,17
1532544053977,5,-17,-20,-1,-7,-6,14,4
1532544053982,2,1,7,4,8,28,-7,2
1532544053987,-4,3,-1,-6,-7,-25,-13,-12
1532544053992,2,-32,-10,-1,-10,28,2,12
1532544053997,0,16,13,4,16,18,-13,-9
1532544054002,-1,1,2,0,-4,-25,-3,5
1532544054007,-4,22,-3,-1,-2,5,-15,-12
1532544054012,-2,-16,0,4,1,-9,8,-3
1532544054017,3,2,2,-2,-5,0,-11,4
1532544054022,-1,-18,-14,-1,0,-11,5,-10
1532544054027,-6,6,4,1,6,40,-8,1
1532544054032,1,3,-7,-17,-9,-20,3,8
1532544054037,-3,4,7,3,4,17,-3,-9
1532544054042,-2,-1,-14,-3,4,4,0,-3
1532544054047,0,-12,7,11,3,-4,2,8
1532544054052,-2,-10,-2,5,3,-10,2,-14
1532544054057,-5,-8,-11,-16,-19,-4,-6,-7
1532544054062,1,6,12,5,-6,-5,-3,13
1532544054067,8,3,-5,-9,4,-11,9,0
1532544054072,2,10,-3,-11,-14,-17,10,-9
1532544054077,-6,-2,-1,8,2,11,-4,10
1532544054082,2,18,10,-7,-6,-19,-2,-14
1532544054087,2,-35,-10,8,7,-12,14,14
1532544054092,-2,-3,2,4,10,34,-9,-9
1532544054097,-2,1,1,-6,-10,-43,6,-4
1532544054102,-2,9,11,-2,0,28,6,0
1532544054107,1,2,-20,-4,-2,-17,2,3
1532544054112,-3,3,2,4,2,-10,5,-4
1532544054117,-4,0,-2,-5,-2,14,12,-13
1532544054122,-3,-9,0,2,10,1,-6,27
1532544054127,0,13,10,-6,-4,-16,-3,-20
1532544054132,8,49,7,6,0,11,-12,7
1532544054137,1,-41,-13,-3,0,23,10,11
1532544054142,-5,-10,-1,-5,-5,-1,-1,-15
1532544054147,-4,-1,2,-15,-11,-27,-8,4
1532544054152,-3,8,-3,1,2,30,-2,-7
1532544054157,1,22,8,5,1,-19,-3,4
1532544054162,-1,-29,-3,10,5,2,6,-1
1532544054167,-4,-10,-7,5,-1,22,2,-6
1532544054172,-1,0,2,10,11,-1,-6,4
1532544054177,9,-9,-1,-12,-5,2,11,8
1532544054182,-3,1,-18,-18,-13,-13,-1,-19
1532544054187,0,-1,7,5,0,-6,6,15
1532544054192,-5,-29,3,1,2,-24,8,-12
1532544054197,2,20,-8,16,15,49,-8,13
1532544054202,-3,5,1,-7,4,7,-13,-5
1532544054207,5,-4,3,-2,-5,0,4,-11
1532544054212,-1,-2,0,3,1,-7,-7,7
1532544054217,1,15,17,4,2,-7,-4,-2
1532544054222,-1,-16,-20,-5,-13,-33,0,0
1532544054227,-2,9,3,-3,0,43,7,5
1532544054232,-5,-24,-3,-3,2,34,-3,-5
1532544054237,-6,6,-3,-11,0,-23,3,-10
1532544054242,5,4,8,11,2,23,-3,3
1532544054247,2,5,4,-11,-9,-33,1,7
1532544054252,3,17,0,8,-2,4,-6,0
1532544054257,-5,-31,-11,1,8,2,-9,-15
1532544054262,-2,1,4,-6,-6,-14,-1,14
1532544054267,0,8,-1,6,-1,-7,-14,-11
1532544054272,2,14,-1,-8,-7,-12,4,5
1532544054277,0,-1,0,0,-5,-15,3,-3
1532544054282,8,33,14,0,-1,0,-7,3
1532544054287,-3,-18,-5,0,7,18,-2,-5
1532544054292,-5,-1,-5,-2,-1,-31,-6,-6
1532544054297,-7,-9,-6,1,-6,-6,-2,1
1532544054302,0,4,-6,1,3,39,-6,-8
1532544054307,1,-7,1,-8,-8,0,6,3
1532544054312,-2,0,5,8,6,3,0,2
1532544054317,-1,1,-6,-5,2,9,-5,-13
1532544054322,2,6,6,3,2,4,0,13
1532544054327,-5,-7,-5,3,5,-17,-4,3
1532544054332,2,5,-6,-13,-15,-7,-7,1
1532544054337,3,-11,1,16,11,3,-4,-6
1532544054342,-5,-8,1,-3,-7,-19,-4,-3
1532544054347,-1,26,4,-7,-6,21,-6,-1
1532544054352,-1,-19,-10,-13,-3,-33,-1,-4
1532544054357,-2,10,-1,-3,-2,32,-11,-9
1532544054362,0,6,7,10,13,0,-11,9
1532544054367,-1,-12,-16,11,6,27,-1,5
1532544054372,2,-1,2,-6,-7,-13,-8,-1
1532544054377,-2,6,2,0,-6,-8,-7,-7
1532544054382,-2,-2,-3,-5,1,0,0,12
1532544054387,-1,-9,5,-9,-9,-5,5,-14
1532544054392,3,39,-4,0,8,8,-14,-10
1532544054397,-6,-41,-6,0,-6,-15,4,4
1532544054402,1,3,1,-5,7,-4,-1,-7
1532544054407,-3,-7,-3,7,-10,1,-13,6
1532544054412,-4,-6,-1,-11,-8,-23,0,-3
1532544054417,1,15,-2,-4,0,29,-4,0
1532544054422,1,-12,-4,5,-2,5,5,-1
1532544054427,1,20,8,5,12,-9,-5,-10
1532544054432,1,-30,-4,-8,-12,-10,16,14
1532544054437,5,14,-16,-3,-5,5,5,10
1532544054442,-7,-27,-4,-4,6,2,5,-7
1532544054447,3,4,-4,-5,-9,-17,-2,11
1532544054452,-2,7,4,0,-4,18,1,-8
1532544054457,-5,-21,-4,1,3,-4,5,7
1532544054462,2,6,0,13,7,2,0,4
1532544054467,3,12,5,-7,-2,-19,-1,-8
1532544054472,-3,-4,-9,-13,-2,10,-9,3
1532544054477,2,34,13,1,4,-7,1,-4
1532544054482,-3,-39,-7,-4,-10,-6,5,7
1532544054487,-3,-34,-8,17,15,16,15,2
1532544054492,-4,5,-5,5,-7,-16,-4,-12
1532544054497,-1,-10,-4,-18,-6,-22,0,-3
1532544054502,-2,29,9,1,2,3,-13,-9
1532544054507,-4,10,1,-3,-6,3,0,2
1532544054512,0,-7,-7,-8,-5,-15,3,-3
1532544054517,1,-12,5,12,5,23,11,-6
1532544054522,6,16,6,8,10,-6,-9,6
1532544054527,-4,-21,1,-9,-8,5,1,-3
1532544054532,0,-18,-19,-7,4,-38,7,0
1532544054537,-1,10,9,-3,-8,14,-11,-1
1532544054542,-3,-9,-14,-4,-7,-5,3,0
1532544054547,3,4,0,1,2,22,3,13
1532544054552,1,17,10,14,4,-4,-7,-9
1532544054557,-2,-3,7,-7,3,-9,1,-6
1532544054562,-2,25,6,-9,-8,-18,-12,-5
1532544054567,-2,-36,-16,-1,3,22,9,2
1532544054572,0,-3,0,-3,-7,-6,-3,-2
1532544054577,4,2,-5,-2,-1,-1,-12,10
1532544054582,0,22,10,4,1,-10,-1,-2
1532544054587,3,6,3,11,0,16,-4,2
1532544054592,-1,-5,-7,-11,-2,-1,-3,1
1532544054597,-3,5,-9,-6,-8,29,-3,-6
1532544054602,-1,8,1,-7,-2,5,-8,-4
1532544054607,2,-1,1,2,-2,-21,-1,2
1532544054612,-5,-1,1,6,3,6,2,-12
1532544054617,4,12,21,8,4,-28,-7,17
1532544054622,0,-2,-10,12,3,14,-2,2
1532544054627,5,2,-18,-21,-1,2,-4,2
1532544054632,-4,32,5,-9,-7,-14,-16,-2
1532544054637,-3,-47,1,-5,-2,-6,10,-11
1532544054642,-4,-45,-21,-1,-2,4,9,-2
1532544054647,0,11,11,11,12,25,11,11
1532544054652,2,-1,7,-1,2,23,1,3
1532544054657,-1,-1,1,1,-3,1,-6,0
1532544054662,-5,-11,-24,-12,-4,11,7,-4
1532544054667,-3,15,-2,-4,-2,-24,-11,-10
1532544054672,1,1,-2,0,1,0,-3,3
1532544054677,-1,4,13,11,2,-4,-3,1
1532544054682,4,-15,-9,8,15,23,0,1
1532544054687,-1,7,-3,-17,-13,-40,-17,-5
1532544054692,-4,-1,-1,-14,-11,1,-3,2
1532544054697,0,1,4,0,-7,-8,-8,-2
1532544054702,1,1,-7,-7,-10,-27,-5,0
1532544054707,-3,-21,19,9,10,53,-1,-1
1532544054712,6,2,-11,14,8,-19,-8,3
1532544054717,-8,-1,-11,-7,-5,8,-7,-3
1532544054722,2,0,-3,-16,-11,-19,-5,1
1532544054727,-1,1,5,2,3,22,-3,-4
1532544054732,0,-11,-4,2,-5,-11,2,-1
1532544054737,2,17,-3,5,6,-8,-1,-1
1532544054742,1,6,41,15,10,9,-7,-1
1532544054747,-9,7,-41,-18,-10,-22,-7,-4
1532544054752,2,0,0,0,7,-9,-3,-3
1532544054757,10,10,-8,-2,-3,-13,-4,5
1532544054762,-15,-3,11,4,1,25,2,-2
1532544054767,0,12,58,10,-7,-22,-7,-4
1532544054772,18,0,-40,-7,-5,24,7,0
1532544054777,-44,-7,-43,-16,0,-17,-1,-10
1532544054782,10,-29,3,-1,-2,22,14,-1
1532544054787,1,13,-14,6,2,-6,0,-5
1532544054792,-9,19,36,10,3,0,-6,5
1532544054797,21,-11,12,-4,-10,-21,3,7
1532544054802,3,6,-5,-4,-7,-9,-1,-5
1532544054807,-9,-2,-14,-8,-2,-8,10,-4
1532544054812,4,-7,31,5,-2,-3,-6,-2
1532544054817,-1,-5,-24,-3,4,21,10,0
1532544054822,-3,7,54,17,12,-10,-3,-1
1532544054827,4,-3,-47,-3,-8,-6,-5,0
1532544054832,-7,2,-3,-14,-7,-36,-2,-12
1532544054837,1,-12,1,10,9,39,0,5
1532544054842,-3,9,-3,11,6,9,2,1
1532544054847,1,12,34,-20,-12,-15,-12,-13
1532544054852,-4,-36,-28,-5,2,56,11,14
1532544054857,-1,11,2,-2,-4,-37,-4,-9
1532544054862,5,3,-2,10,2,-2,-13,5
1532544054867,1,1,15,18,19,27,-5,0
1532544054872,-5,-5,-9,-4,-12,-30,-1,-7
1532544054877,1,6,12,-5,0,19,-6,7
1532544054882,6,0,-26,-11,-7,3,5,1
1532544054887,-9,-2,-7,1,0,-17,-10,-2
1532544054892,-4,6,17,5,10,-1,9,-3
1532544054897,1,-6,11,11,-4,2,-5,-17
1532544054902,2,23,-22,-20,-12,-14,-8,20
1532544054907,0,-66,-14,-7,0,12,16,14
1532544054912,5,2,-5,2,6,3,5,1
1532544054917,3,6,15,26,20,10,-1,-2
1532544054922,-4,-6,3,-14,-11,-19,-2,-14
1532544054927,-2,12,1,-9,-9,-7,-4,0
1532544054932,-4,-8,4,7,3,3,-7,5
1532544054937,5,-5,-1,-9,-3,5,-4,-5
1532544054942,-6,6,5,10,5,-16,-6,-6
1532544054947,1,5,0,12,11,34,-8,3
1532544054952,-2,-2,0,-5,-5,11,0,-5
1532544054957,-2,4,-5,-2,-3,-11,4,5
1532544054962,-3,25,-6,-7,-5,-34,-1,-4
1532544054967,1,-26,-7,-6,0,49,12,0
1532544054972,-6,-1,1,-1,-3,-19,-9,-3
1532544054977,0,-5,-11,-3,-2,-3,-1,1
1532544054982,-1,-9,12,-3,0,12,-5,1
1532544054987,0,10,-30,-6,-8,-36,4,-5
1532544054992,-2,-2,-3,0,-1,-5,-7,-5
1532544054997,2,4,2,-6,0,-14,-10,2
1532544055002,5,-2,7,1,-5,34,2,-5
1532544055007,-1,-16,10,13,6,-6,3,2
1532544055012,-8,-6,28,-3,-9,-12,-6,-5
1532544055017,10,14,-28,-4,0,-15,1,3
1532544055022,-14,-28,-4,-6,-1,19,-3,-7
1532544055027,-5,34,3,-1,-7,-9,-8,-3
1532544055032,-2,1,-26,-5,-4,-11,12,0
1532544055037,0,-11,9,9,4,5,-10,-1
1532544055042,4,14,19,2,0,38,-4,4
1532544055047,31,-6,12,2,-3,-55,-26,3
1532544055052,-17,-4,-13,-1,6,36,-3,5
1532544055057,-9,-3,7,2,1,-29,-13,-8
1532544055062,3,3,-13,0,-5,-8,-14,0
1532544055067,-11,-6,8,-12,-18,-37,-4,-5
1532544055072,15,5,0,-1,5,11,-9,0
1532544055077,0,-4,-9,-7,-2,46,-16,3
1532544055082,-9,-4,14,9,5,-28,-8,-2
1532544055087,9,8,-13,4,7,-4,-6,2
1532544055092,-1,-5,-12,-17,-26,-23,-13,-2
1532544055097,-11,-7,-3,-4,3,21,2,-6
1532544055102,5,-7,-9,-1,0,-2,-7,-2
1532544055107,-1,14,24,5,4,41,-4,1
1532544055112,-2,0,-10,6,5,-21,-6,-3
1532544055117,-4,-7,-14,-13,-14,-14,4,0
1532544055122,1,-4,-11,2,5,38,-10,0
1532544055127,0,3,-14,2,2,-20,-8,-2
1532544055132,0,4,8,-1,-3,4,-4,0
1532544055137,6,7,18,15,8,-3,-1,3
1532544055142,-3,-9,-8,-13,-6,-27,7,-2
1532544055147,-7,-2,3,-9,-5,27,4,-2
1532544055152,5,7,6,3,8,56,-6,0
1532544055157,0,-1,-2,-3,-5,-33,8,-1
1532544055162,-1,-3,-4,16,11,43,9,0
1532544055167,-4,7,11,6,2,-28,-5,0
1532544055172,5,4,4,-3,-5,42,1,2
1532544055177,1,-10,-1,-16,-3,-18,2,0
1532544055182,-4,-2,-13,-1,-1,-20,-2,-2
1532544055187,6,8,4,2,1,15,3,0
1532544055192,-2,-5,-1,11,2,-37,2,0
1532544055197,0,-5,3,3,-1,-14,7,2
1532544055202,-26,0,1,-2,1,20,-4,1
1532544055207,13,4,-3,4,6,18,1,-5
1532544055212,-30,-15,-5,-10,-9,-63,1,-4
1532544055217,0,-3,17,-3,-9,23,2,-2
1532544055222,-3,-2,-31,-11,-2,-7,8,-2
1532544055227,5,-2,-2,-1,-5,-4,5,0
1532544055232,6,6,1,12,11,-8,5,0
1532544055237,-2,-2,8,3,4,28,-2,0
1532544055242,13,2,13,2,-2,8,-6,0
1532544055247,-20,-4,3,-5,0,-3,-1,-2
1532544055252,11,-3,-32,-19,-8,-15,7,-1
1532544055257,-6,-3,-5,0,-2,-5,3,-1
1532544055262,9,3,6,10,0,-19,6,0
1532544055267,-1,4,4,-5,-6,-34,-5,0
1532544055272,-3,-3,15,16,18,50,0,2
1532544055277,2,1,-3,-9,-11,12,11,-6
1532544055282,-11,-3,-15,-11,-11,-10,-9,-2
1532544055287,-3,-4,-13,-8,-10,-27,-1,-1
1532544055292,4,3,-1,4,4,56,-1,-2
1532544055297,6,5,1,13,21,-19,-10,18
1532544055302,9,-5,16,-4,-2,14,10,-1
1532544055307,-3,1,7,3,-3,-39,2,3
1532544055312,39,2,-22,0,1,-14,-1,-7
1532544055317,-98,-10,26,2,3,27,0,-4
1532544055322,-9,-8,-30,-5,-4,-18,15,-2
1532544055327,6,-4,-11,-2,6,36,3,-1
1532544055332,10,3,16,0,-8,-43,1,3
1532544055337,18,4,-17,-1,-2,23,-10,-3
1532544055342,-5,-2,16,-13,-7,-7,0,0
1532544055347,-12,-1,-5,0,-5,13,-3,-7
1532544055352,-2,-2,12,9,6,9,12,8
1532544055357,10,1,-17,-9,-2,22,-5,-3
1532544055362,-3,0,-2,-6,-5,-4,0,-4
1532544055367,9,0,2,15,12,-5,6,-2
1532544055372,-5,6,14,-7,-9,-43,-15,4
1532544055377,7,-5,-7,-6,-5,-37,-3,-3
1532544055382,9,1,0,5,13,103,-4,-3
1532544055387,-8,-4,5,-4,0,-20,-1,2
1532544055392,11,6,-4,6,7,-20,0,2
1532544055397,-45,-9,3,2,-5,-10,16,-10
1532544055402,29,-10,12,-1,-22,-68,1,-5
1532544055407,16,12,-21,-5,27,69,-31,16
1532544055412,-48,-19,-4,-12,-21,-27,2,-6
1532544055417,71,10,-3,7,11,17,-11,1
1532544055422,5,-1,10,2,-5,-29,6,-3
1532544055427,1,-1,38,4,-3,13,-22,-16
1532544055432,9,6,-40,3,17,61,-7,19
1532544055437,5,-3,-12,-10,-11,-25,4,2
1532544055442,-29,0,1,3,1,-21,-21,-4
1532544055447,4,0,8,4,-9,-28,5,2
1532544055452,-13,-1,7,-8,0,-2,-21,-9
1532544055457,2,-3,2,2,0,4,-7,-9
1532544055462,-3,6,-14,2,7,12,-5,3
1532544055467,-13,-1,-5,-17,-17,-30,0,-3
1532544055472,25,-6,14,7,13,78,-11,1
1532544055477,-12,7,-3,1,-12,-39,-8,1
1532544055482,15,-1,0,1,7,-58,-10,4
1532544055487,-29,-3,-3,11,24,57,-1,-3
1532544055492,-8,4,4,-6,-16,-51,-4,-3
1532544055497,7,-1,-8,-16,-16,-101,-9,0
1532544055502,-3,1,3,8,20,68,-3,2
1532544055507,20,-4,1,-8,-8,42,11,6
1532544055512,8,1,-11,-4,-3,-18,7,-11
1532544055517,-21,-14,-13,-3,-8,68,-23,-3
1532544055522,-58,-9,1,-2,2,-75,-5,-5
1532544055527,64,-2,-1,18,11,31,-32,12
1532544055532,-22,2,5,-21,-25,-51,-19,-3
1532544055537,-45,-1,-3,-16,-10,-69,50,-2
1532544055542,6,-10,-6,-6,-10,12,-7,-5
1532544055547,1,-1,-3,-4,-2,-14,14,-3
1532544055552,9,1,2,-4,1,30,6,0
1532544055557,4,-2,-6,4,-10,-41,-3,0
1532544055562,0,-3,0,-2,-6,-18,11,-5
1532544055567,-1,2,7,9,14,43,3,4
1532544055572,13,2,0,-4,-7,-33,-12,1
1532544055577,-6,1,-3,11,10,17,-2,-3
1532544055582,-12,3,0,-15,-7,12,-2,-5
1532544055587,0,-5,-2,-5,-11,-59,-5,-4
1532544055592,-3,-4,-7,-12,-2,60,8,-1
1532544055597,-9,-2,-5,-6,-13,-52,2,-5
1532544055602,8,3,6,22,9,3,2,-2
1532544055607,8,1,4,6,14,24,-15,2
1532544055612,-4,1,-5,-9,-7,-13,5,1
1532544055617,-7,-3,-6,-13,-14,-19,-5,-5
1532544055622,13,1,5,16,13,25,-3,1
1532544055627,20,1,-1,-7,-4,-20,-8,5
1532544055632,-29,-7,-2,0,7,7,-5,-14
1532544055637,29,5,-2,-5,-17,-27,-13,3
1532544055642,-3,-1,1,-4,-4,-10,6,-1
1532544055647,13,-1,0,8,5,39,6,6
1532544055652,21,5,2,10,9,-31,4,2
1532544055657,-41,-11,-3,-16,-9,33,22,-1
1532544055662,-3,-1,-1,3,7,3,18,-5
1532544055667,-6,1,0,-4,-12,-9,9,-2
1532544055672,1,-4,-4,-7,-5,-15,18,-3
1532544055677,14,7,2,0,3,0,1,-2
1532544055682,-20,-7,0,0,0,5,7,3
1532544055687,-11,0,3,14,10,-9,-6,-1
1532544055692,0,1,1,0,-6,-3,-3,2
1532544055697,15,-9,-9,-13,-5,-19,-1,0
1532544055702,-35,12,-3,-1,-1,28,-2,-3
1532544055707,-1,-6,0,3,4,-3,10,-7
1532544055712,0,-1,2,2,-9,-34,8,2
1532544055717,-2,1,2,11,7,40,-15,-3
1532544055722,19,-4,0,-1,16,25,7,1
1532544055727,-6,-2,-2,-8,-1,11,-2,0
1532544055732,-2,1,-3,-8,-11,-4,7,1
1532544055737,-4,-2,0,6,-2,-23,-1,-1
1532544055742,17,0,3,20,14,-12,-10,3
1532544055747,-1,1,-4,-17,-7,6,-5,-1
1532544055752,-26,-11,-6,-2,0,0,-5,-7
1532544055757,22,3,-2,-2,-11,-7,3,0
1532544055762,-13,-11,-4,-5,-7,-31,6,-4
1532544055767,7,3,4,4,3,-3,-16,2
1532544055772,2,-2,0,0,-1,-5,-1,2
1532544055777,2,1,1,1,3,-6,-10,-3
1532544055782,19,5,0,-3,-8,-14,-5,-2
1532544055787,6,-8,-3,3,2,-9,-4,2
1532544055792,9,6,-2,-4,0,7,-15,-2
1532544055797,-19,-10,-2,-2,-5,-59,-1,-3
1532544055802,7,-3,0,-4,-1,84,-12,-3
1532544055807,-8,0,-1,-1,-1,-6,-10,0
1532544055812,5,1,0,-2,-9,-13,-10,2
1532544055817,5,2,4,20,27,37,-11,4
1532544055822,12,-2,-6,-23,-26,-45,-8,1
1532544055827,-36,-7,-5,-7,1,18,1,-6
1532544055832,9,3,5,18,10,35,-4,1
1532544055837,-17,2,-3,-18,-12,-36,3,0
1532544055842,-23,-7,1,4,-1,-23,-4,-1
1532544055847,14,3,1,4,3,17,6,-1
1532544055852,-7,-2,-3,-1,-5,-34,1,-1
1532544055857,1,4,1,3,3,92,-18,-2
1532544055862,4,-3,-1,3,6,38,-5,1
1532544055867,-2,-2,-5,-12,-9,-19,-7,-2
1532544055872,6,-2,3,3,12,40,5,1
1532544055877,6,4,3,0,-2,-17,1,-6
1532544055882,-3,-3,3,2,-1,-19,-19,7
1532544055887,15,6,-2,-3,-8,27,-7,-8
1532544055892,-21,-5,-6,-13,-4,-14,8,0
1532544055897,-23,0,-1,3,-3,-4,18,-4
1532544055902,20,-1,1,-3,2,-2,10,3
1532544055907,-7,5,2,2,0,-47,4,-2
1532544055912,28,-9,5,4,3,-19,-11,7
1532544055917,-30,3,-3,-2,3,20,4,-14
1532544055922,41,0,16,4,-8,-3,-5,0
1532544055927,20,-7,-41,-7,4,-27,-3,6
1532544055932,-35,0,1,-11,-11,-35,4,-16
1532544055937,-27,-12,-5,-3,0,23,14,6
1532544055942,20,13,0,1,2,2,-19,-8
1532544055947,-4,-6,17,10,-3,1,15,2
1532544055952,8,2,-1,6,11,38,-1,5
1532544055957,-5,0,-4,-5,-5,-31,1,0
1532544055962,-21,-4,-7,-18,-8,38,11,-4
1532544055967,-2,1,4,3,6,-26,1,1
1532544055972,-1,3,-2,-1,-16,-1,2,-1
1532544055977,20,-2,8,15,1,-48,-3,2
1532544055982,2,-2,-9,-8,2,52,12,2
1532544055987,-1,2,-1,-10,-6,-22,2,-2
1532544055992,-11,-4,5,7,11,47,1,-3
1532544055997,31,0,0,2,0,-18,-8,4
1532544056002,-23,-2,-17,0,0,-37,9,-2
1532544056007,-19,2,5,-6,-7,-11,3,-3
1532544056012,29,3,-4,-9,-6,28,0,3
1532544056017,3,-11,-8,-14,-6,-3,3,-1
1532544056022,-18,-5,4,9,3,-29,8,-1
1532544056027,-6,3,27,23,9,28,1,2
1532544056032,3,0,1,-9,2,-18,-1,-2
1532544056037,22,6,-3,-10,-12,12,-6,5
1532544056042,-29,-5,-37,3,4,-30,8,-9
1532544056047,1,-4,2,5,9,-9,6,-2
1532544056052,4,-1,12,0,-7,22,2,1
1532544056057,-11,1,2,-3,1,-21,-8,-2
1532544056062,36,-2,12,5,4,-17,9,5
1532544056067,-2,3,2,-5,-8,12,-6,-11
1532544056072,-5,-2,-8,10,9,-25,-1,-1
1532544056077,-19,-1,10,-5,-2,24,-7,-1
1532544056082,39,-5,-14,-5,-7,-14,9,8
1532544056087,16,3,-1,0,4,19,-2,-2
1532544056092,-11,-5,-12,-12,-5,-11,1,-2
1532544056097,-2,5,0,6,9,7,1,-4
1532544056102,-16,2,13,-5,-13,-6,-4,-4
1532544056107,11,-2,-9,3,-3,-40,4,4
1532544056112,-8,2,3,11,11,65,1,-2
1532544056117,1,-3,2,-5,-8,3,7,-1
1532544056122,-15,1,1,-18,-11,4,12,-4
1532544056127,4,1,7,7,8,26,-10,1
1532544056132,-2,-8,-23,-9,-6,-24,-2,-4
1532544056137,11,6,-8,8,4,2,4,10
1532544056142,-21,-5,4,-5,-1,-1,-6,-5
1532544056147,4,-6,1,-12,-13,1,8,3
1532544056152,-15,0,12,10,3,-18,-8,-10
1532544056157,25,-2,-7,-17,-10,1,-4,-1
1532544056162,-37,0,-1,0,1,2,-4,0
1532544056167,1,2,2,6,-3,-44,-3,5
1532544056172,11,-4,-7,13,17,24,-4,4
1532544056177,-1,4,-1,3,-5,-3,-4,-4
1532544056182,8,-2,-7,-9,-12,-23,2,0
1532544056187,-24,-5,-5,-15,-5,52,-4,-7
1532544056192,4,3,11,3,0,-53,-9,1
1532544056197,-31,-7,-8,1,-5,19,-10,-6
1532544056202,46,5,15,16,26,-8,1,8
1532544056207,-13,-3,-29,0,-1,8,8,0
1532544056212,12,7,3,-13,-16,0,0,2
1532544056217,-14,-8,13,1,3,-16,-1,0
1532544056222,-13,7,-2,9,5,28,-4,-2
1532544056227,19,-8,10,-3,1,10,0,-1
1532544056232,14,9,-6,-8,-2,-16,0,0
1532544056237,7,-2,3,0,-1,-35,1,-1
1532544056242,-17,-3,3,16,3,0,-13,-4
1532544056247,12,2,3,-7,-3,-7,-4,0
1532544056252,-21,-8,37,-7,-6,3,0,1
1532544056257,16,3,-58,4,9,21,12,1
1532544056262,9,1,9,-5,-3,-7,-7,1
1532544056267,-21,0,-5,-1,-1,-5,0,1
1532544056272,11,-5,4,-1,-7,7,-2,-1
1532544056277,1,8,16,0,-4,-28,7,0
1532544056282,-13,-8,6,8,8,20,-8,-3
1532544056287,-7,-2,-13,0,-1,10,-2,-3
1532544056292,-1,2,-11,-5,0,4,5,2
1532544056297,4,-4,11,4,-1,-9,8,6
1532544056302,-24,7,-10,-3,2,0,8,-10
1532544056307,-7,2,19,2,-6,-3,3,-3
1532544056312,-1,-1,-8,1,1,21,6,-1
1532544056317,23,-1,19,-11,-7,2,0,1
1532544056322,-50,-7,-15,1,-1,-16,-2,-5
1532544056327,-9,0,9,6,11,44,5,0
1532544056332,1,1,-34,-4,-6,-55,8,0
1532544056337,-19,-1,22,5,0,6,10,-3
1532544056342,19,2,-6,-5,-4,-5,2,1
1532544056347,10,4,8,5,5,13,-2,0
1532544056352,-14,-8,-2,4,4,28,7,0
1532544056357,6,4,4,3,6,12,-7,-1
1532544056362,-8,-2,7,-3,-11,-16,1,2
1532544056367,1,-4,-19,-9,-8,-53,5,0
1532544056372,10,4,5,5,1,1,-2,2
1532544056377,-4,-6,-8,-4,0,-7,8,-6
1532544056382,7,1,3,-1,6,17,0,-6
1532544056387,-1,-1,0,-2,-15,1,8,-5
1532544056392,-8,0,-6,-4,0,3,1,-1
1532544056397,-3,-6,3,17,11,17,2,2
1532544056402,15,2,-1,-3,-2,-27,2,3
1532544056407,11,-1,5,-9,-2,64,-7,2
1532544056412,-5,-4,1,-4,-2,-12,10,0
1532544056417,-30,3,-16,-9,-5,-14,-1,-7
1532544056422,16,-4,15,7,2,8,2,2
1532544056427,-9,-1,-15,0,-5,-63,6,-2
1532544056432,6,-2,11,-8,0,81,-8,-2
1532544056437,13,4,-10,4,0,15,-7,-2
1532544056442,-3,-2,-12,-5,3,5,3,1
1532544056447,-5,-1,0,-10,3,-14,6,2
1532544056452,-1,5,3,7,-10,-37,-4,0
1532544056457,-1,-3,2,-5,4,18,11,-3
1532544056462,4,3,4,1,2,51,-9,0
1532544056467,-2,0,4,21,8,-6,3,-1
1532544056472,2,-2,-10,-22,-7,-25,6,-2
1532544056477,-19,-1,0,-3,-7,1,0,-3
1532544056482,25,3,0,0,-4,-48,1,2
1532544056487,-51,-12,3,7,1,40,8,-4
1532544056492,10,-2,2,12,13,19,3,2
1532544056497,-29,-4,21,-2,-1,15,2,-4
1532544056502,10,0,-48,-13,-8,2,5,-1
1532544056507,2,-2,6,-1,-1,-30,-4,-2
1532544056512,-3,-2,2,1,-5,-15,5,-7
1532544056517,2,0,-7,4,-3,-9,-2,2
1532544056522,11,-6,18,-9,-10,9,-4,-2
1532544056527,10,5,4,10,15,14,-6,4
1532544056532,3,0,12,-4,-6,-6,-7,2
1532544056537,21,-4,-51,-10,-10,-19,-2,1
1532544056542,-38,0,12,4,10,34,-1,-6
1532544056547,-1,-3,-13,-16,-9,-29,-2,-3
1532544056552,-6,3,1,4,7,44,-1,1
1532544056557,7,1,-4,6,9,9,1,-2
1532544056562,14,-4,-10,6,-4,-12,-6,-1
1532544056567,5,0,-7,-14,-13,-5,-7,-3
1532544056572,12,-1,-4,6,4,-9,2,-1
1532544056577,9,4,11,-3,-4,-6,4,2
1532544056582,-13,-1,-2,-5,-4,-5,1,0
1532544056587,8,2,-1,-2,1,-13,-2,-2
1532544056592,-3,-4,-6,-1,-4,10,3,0
1532544056597,-7,1,5,1,18,24,-3,2
1532544056602,-14,0,-3,6,-7,4,14,-1
1532544056607,10,3,3,-1,4,4,-2,1
1532544056612,-10,-3,4,-10,-8,-17,3,-5
1532544056617,0,-3,-6,-4,-3,42,1,1
1532544056622,23,0,-11,-5,-1,-5,-7,-2
1532544056627,-9,-14,9,5,4,-4,6,4
1532544056632,-2,-1,2,13,5,6,7,0
1532544056637,6,-1,7,-6,-7,-21,-3,-2
1532544056642,-3,2,-1,9,12,20,4,-3
1532544056647,6,-1,-9,-11,-4,1,-1,2
1532544056652,-10,-6,-13,-15,-9,-11,1,-3
1532544056657,18,6,-1,3,-10,-26,9,2
1532544056662,-27,-1,10,8,13,15,4,-8
1532544056667,-7,-2,11,-1,-14,4,9,1
1532544056672,-9,1,3,5,3,-25,4,-1
1532544056677,-2,-1,0,-8,-4,19,-1,-2
1532544056682,5,0,-15,3,-3,-9,3,3
1532544056687,-6,-1,3,-1,-1,4,3,-3
1532544056692,-3,2,6,-4,1,13,-3,-5
1532544056697,18,-4,-11,3,-2,-18,3,2
1532544056702,-43,-4,2,1,2,-34,7,0
1532544056707,14,3,1,2,-1,74,-2,1
1532544056712,7,-2,0,0,-3,9,-1,2
1532544056717,-17,-8,-1,-4,5,-18,5,-4
1532544056722,19,3,-2,7,4,-25,-3,2
1532544056727,4,-7,-9,-20,-10,12,1,-3
1532544056732,-8,2,5,-1,7,6,-1,-2
1532544056737,2,3,-3,-7,-11,-1,5,0
1532544056742,10,2,2,7,-1,6,1,1
1532544056747,-13,-3,4,9,6,-28,-1,-4
1532544056752,-1,-2,9,1,-1,8,-1,0
1532544056757,-5,-5,-27,-2,3,16,8,-6
1532544056762,-13,-2,7,-3,1,9,-2,3
1532544056767,2,9,-14,1,-3,-22,-1,-1
1532544056772,7,-4,-2,-4,-7,3,4,-1
1532544056777,-7,-2,2,1,5,-5,-2,-3
1532544056782,1,-2,13,-11,-10,4,8,-3
1532544056787,9,2,-1,8,6,-4,-2,1
1532544056792,-8,4,-2,-1,2,-4,-3,-2
1532544056797,-9,-4,6,-6,-7,-52,4,-1
1532544056802,15,1,-14,-7,-2,76,1,0
1532544056807,-5,0,6,2,1,-6,1,1
1532544056812,3,-2,-10,-6,6,-1,-1,-1
1532544056817,1,1,7,3,-11,-6,-5,0
1532544056822,-5,3,-2,10,10,-18,-1,-2
1532544056827,2,3,-1,-6,-7,-6,-1,-2
1532544056832,2,0,-3,-7,-8,7,-3,-1
1532544056837,-3,-7,2,1,4,6,0,0
1532544056842,19,-3,-15,-10,-7,-16,-2,0
1532544056847,-42,8,30,18,6,4,0,-2
1532544056852,27,-4,-28,-9,-7,-8,1,4
1532544056857,-37,-7,5,4,0,6,-2,-4
1532544056862,0,-4,-29,-10,-2,-13,5,0
1532544056867,3,2,-2,-13,-4,-4,6,-3
1532544056872,11,-4,-1,2,5,-9,-8,1
1532544056877,6,-7,3,6,6,22,-3,-2
1532544056882,-8,2,11,12,5,3,5,-4
1532544056887,4,0,14,-11,-9,-25,-8,0
1532544056892,-10,3,7,7,0,18,0,1
1532544056897,28,4,-31,-6,-3,-20,5,2
1532544056902,-33,-9,-2,-8,5,6,-3,-6
1532544056907,5,-3,-2,-2,-9,-20,4,-4
1532544056912,2,1,10,22,6,8,0,-6
1532544056917,-1,7,5,-3,5,29,7,10
1532544056922,11,2,-6,-10,-15,-23,-2,-2
1532544056927,0,-7,-4,3,6,23,1,-1
1532544056932,-11,-2,2,-6,-2,5,0,-1
1532544056937,1,5,4,2,6,5,0,-1
1532544056942,2,0,5,3,-1,-20,4,3
1532544056947,3,-3,5,5,2,6,1,0
1532544056952,3,-2,-17,-7,-4,-4,1,2
1532544056957,-6,1,-1,-7,2,4,0,-2
1532544056962,-2,-1,6,-4,-10,-16,-3,-1
1532544056967,7,-3,-8,1,4,9,-4,-1
1532544056972,-2,3,2,-1,1,17,8,-1
1532544056977,-10,-3,8,3,-3,-22,4,-1
1532544056982,20,-4,25,7,-1,-2,-2,3
1532544056987,-2,-3,-50,-20,-9,7,7,0
1532544056992,5,6,4,-1,-7,-40,4,0
1532544056997,-7,-6,0,0,11,30,-3,-6
1532544057002,3,2,8,6,-7,-1,4,0
1532544057007,11,-4,5,-1,6,5,6,2
1532544057012,1,1,3,3,2,-11,4,0
1532544057017,3,4,-1,-25,-21,-3,1,-1
1532544057022,-2,-6,-1,2,10,37,-2,2
1532544057027,19,-10,-11,3,0,-15,-3,-2
1532544057032,-43,-2,3,7,3,11,11,3
1532544057037,-2,4,20,16,5,-9,4,0
1532544057042,-14,-1,-23,-9,-5,-15,0,-6
1532544057047,-4,6,14,-9,-4,9,5,3
1532544057052,-7,-9,-3,5,1,-25,2,-6
1532544057057,8,0,-13,0,0,33,-2,1
1532544057062,-5,-3,-4,-5,-4,-13,13,2
1532544057067,-10,4,7,7,2,-10,-6,-1
1532544057072,10,0,4,-6,0,3,3,-2
1532544057077,-4,-2,2,-4,-10,-14,7,0
1532544057082,2,-1,-13,-1,15,18,-3,-4
1532544057087,-5,-2,12,-8,-20,-25,-2,-1
1532544057092,-7,-3,-13,-17,-10,-4,7,-1
1532544057097,10,-3,10,5,1,12,-2,0
1532544057102,11,3,-13,8,5,3,6,2
1532544057107,-24,-10,5,-8,2,-2,6,-4
1532544057112,26,5,-2,-1,-2,-8,-4,5
1532544057117,-20,-1,-3,2,-4,-11,3,-4
1532544057122,4,-4,15,9,3,-1,-2,2
1532544057127,-15,6,3,14,15,3,14,-5
1532544057132,1,-1,19,-6,-5,1,-6,-1
1532544057137,4,2,-46,-7,-4,-13,2,0
1532544057142,0,-10,6,-7,-12,-21,3,-2
1532544057147,9,3,-8,-6,-1,11,1,3
1532544057152,-10,-2,6,7,10,29,7,-2
1532544057157,13,4,29,12,5,-5,-1,0
1532544057162,-4,4,-18,-2,1,-21,-9,-2
1532544057167,3,-5,-7,-21,-20,-17,4,-2
1532544057172,3,-3,-1,1,-4,-23,1,-2
1532544057177,2,0,4,-5,7,56,-3,2
1532544057182,7,-7,-4,12,5,-6,-1,1
1532544057187,-7,9,10,15,10,5,-1,0
1532544057192,0,-3,-2,0,1,20,-3,-1
1532544057197,-7,-7,-3,-13,-5,-36,-3,-2
1532544057202,2,-2,1,-6,-4,11,-5,0
1532544057207,-2,-1,-5,8,9,4,5,2
1532544057212,3,2,0,-1,-6,-21,-2,0
1532544057217,-2,5,-4,9,5,-13,-3,-2
1532544057222,4,-1,10,-16,-8,8,-1,-2
1532544057227,14,-3,-1,7,4,-8,-3,1
1532544057232,-24,-2,-20,-2,-5,-2,-2,-3
1532544057237,-7,-6,4,-10,-3,-17,6,-4
1532544057242,-2,2,2,-1,3,18,-4,0
1532544057247,2,10,3,4,-4,-3,-4,-1
1532544057252,-9,-10,1,-2,0,1,5,-2
1532544057257,6,1,-2,6,0,2,-6,1
1532544057262,-9,4,20,-3,-4,6,4,-3
1532544057267,22,-4,-43,1,1,-13,0,4
1532544057272,-15,3,15,3,7,10,-3,-7
1532544057277,10,-1,-13,-12,-10,-9,2,1
1532544057282,-9,-9,-1,-4,-11,-3,12,-1
1532544057287,-7,0,2,-5,6,44,-4,-3
1532544057292,16,-1,19,6,0,2,3,5
1532544057297,-4,1,-17,1,7,-2,-1,-1
1532544057302,8,7,5,10,1,-2,7,1
1532544057307,-3,-8,6,-7,-8,-11,-4,-1
1532544057312,-3,0,-15,-16,-7,-6,7,0
1532544057317,2,9,23,-2,-3,17,-8,1
1532544057322,7,-3,-19,8,11,1,4,1
1532544057327,-16,-6,1,-9,-9,-6,7,-5
1532544057332,12,2,-15,-2,-3,-3,6,4
1532544057337,1,-1,7,-1,-8,-10,6,0
1532544057342,3,5,4,2,-1,-14,-2,0
1532544057347,-11,0,2,8,10,10,4,-5
1532544057352,6,0,2,2,4,6,2,3
1532544057357,5,-2,-7,-8,-8,-22,4,-2
1532544057362,-12,0,-3,-9,2,40,-5,-2
1532544057367,8,-5,42,7,-1,-7,5,2
1532544057372,-3,-1,-36,-1,1,8,0,-1
1532544057377,-6,-9,1,4,3,-24,9,-2
1532544057382,11,5,-20,-7,-1,12,0,-2
1532544057387,-27,-1,9,-2,-11,-6,8,1
1532544057392,1,0,6,-5,5,3,-6,-2
1532544057397,8,-2,3,7,-1,-10,1,0
1532544057402,-4,0,8,4,-2,-26,9,0
1532544057407,12,2,-7,9,7,18,-4,2
1532544057412,0,-11,11,-12,-13,-10,-8,-2
1532544057417,-1,-2,-12,-5,-5,5,3,-1
1532544057422,4,-7,-15,0,0,-5,3,-1
1532544057427,13,6,-3,1,7,6,9,6
1532544057432,-37,1,-2,-3,-6,-6,8,-1
1532544057437,-3,-3,13,2,2,8,4,1
1532544057442,17,1,9,8,4,-1,4,6
1532544057447,2,-3,-16,-6,-13,-17,-10,-2
1532544057452,7,-3,7,-2,6,9,1,-3
1532544057457,4,1,-4,0,-8,-11,2,-1
1532544057462,-21,3,1,-4,1,6,5,-3
1532544057467,16,-6,-5,0,7,-6,4,0
1532544057472,-23,-3,12,14,7,9,4,-4
1532544057477,2,-3,-22,-2,4,-27,-1,0
1532544057482,-6,-5,1,-12,-11,27,4,-2
1532544057487,9,-1,3,-8,0,-6,-4,-1
1532544057492,7,2,3,0,-5,-5,3,-2
1532544057497,-5,3,50,10,12,18,3,2
1532544057502,1,4,-60,-2,3,5,4,1
1532544057507,-6,-4,-3,7,9,-4,5,-2
1532544057512,10,10,-2,-11,-10,2,4,-1
1532544057517,-6,4,-4,-11,-10,10,3,-3
1532544057522,-2,-4,19,1,-7,-29,-12,-2
1532544057527,-5,1,-2,-2,0,8,5,-2
1532544057532,7,-1,-7,9,2,-14,1,2
1532544057537,4,0,-1,4,2,5,-1,0
1532544057542,-6,4,14,-8,-5,15,-3,-3
1532544057547,-3,-9,-26,-2,4,-15,-1,1
1532544057552,-16,-6,8,-2,-1,3,-3,-5
1532544057557,13,7,-12,-7,-3,-17,-1,2
1532544057562,-26,2,0,12,8,8,4,-6
1532544057567,1,-11,9,-9,-9,-3,-5,-1
1532544057572,9,-1,-4,-4,-5,2,-1,3
1532544057577,1,-6,-16,-7,-6,-5,-6,0
1532544057582,-2,4,15,4,0,-7,-2,-2
1532544057587,-3,8,1,8,8,17,3,1
1532544057592,13,-1,-7,-10,-7,-15,-5,0
1532544057597,2,-11,-6,-4,-3,8,-1,0
1532544057602,6,0,5,-6,-2,-14,0,-1
1532544057607,0,2,4,5,1,1,1,-4
1532544057612,-11,3,1,9,3,17,-3,1
1532544057617,4,6,5,-11,-4,-5,2,0
1532544057622,10,-7,-6,-4,-6,-38,-4,0
1532544057627,-12,0,-17,-4,2,65,1,-5
1532544057632,26,6,18,16,2,-23,-12,-3
1532544057637,-8,-12,-14,-5,-2,11,3,2
1532544057642,-5,-4,4,-2,0,-6,-3,-5
1532544057647,2,6,3,-1,-9,-13,6,3
1532544057652,8,-2,-5,3,0,0,-9,-1
1532544057657,-7,-1,8,-2,2,10,-5,-5
1532544057662,1,-5,0,0,0,-5,5,1
1532544057667,3,-3,2,1,-4,-1,3,-1
1532544057672,-13,2,-2,-8,2,14,0,-1
1532544057677,-1,2,7,4,-9,-27,-2,-6
1532544057682,-8,-12,-20,-1,5,38,9,5
1532544057687,0,3,6,-4,-2,-20,1,-1
1532544057692,1,-3,6,2,-1,-18,12,3
1532544057697,-9,-4,-10,1,1,28,-2,-2
1532544057702,27,-1,7,0,0,-2,0,-1
1532544057707,-31,3,3,1,-1,-31,-15,-1
1532544057712,3,0,-5,-4,8,10,7,1
1532544057717,-2,0,4,12,7,-4,6,1
1532544057722,-1,2,0,-9,-5,10,-2,-1
1532544057727,15,-3,8,-1,1,9,4,1
1532544057732,-6,11,-19,-2,8,20,-6,1
1532544057737,-17,-20,-6,5,4,11,11,-6
1532544057742,-12,4,18,6,-7,-22,6,-8
1532544057747,8,0,-12,-5,-9,-22,3,0
1532544057752,-1,0,19,8,8,23,7,-2
1532544057757,3,8,-19,-2,-1,4,3,0
1532544057762,-32,-18,-12,-1,-1,0,10,3
1532544057767,8,2,-3,-12,-15,-37,6,-6
1532544057772,-7,0,0,6,0,0,0,-1
1532544057777,-4,-2,2,7,3,-3,-3,-1
1532544057782,6,2,1,-11,2,-3,3,2
1532544057787,2,8,-3,-7,-2,13,5,-4
1532544057792,1,-15,-8,2,5,2,10,1
1532544057797,8,9,18,8,-8,-8,-4,-2
1532544057802,-11,21,-9,-6,-9,-57,-3,4
1532544057807,-1,-33,-21,2,15,92,18,-1
1532544057812,38,1,4,-7,-2,2,6,-1
1532544057817,-12,4,6,3,0,-29,2,-4
1532544057822,16,6,21,12,5,12,-3,0
1532544057827,-12,3,-17,-23,-19,-40,-2,0
1532544057832,1,-10,-7,-3,-7,-9,6,0
1532544057837,7,-2,3,-5,5,19,7,-1
1532544057842,-3,0,0,-2,-3,-12,0,-2
1532544057847,5,8,5,8,1,-7,2,-1
1532544057852,-8,3,0,-2,7,30,3,3
1532544057857,-1,-3,-1,6,3,-9,-1,1
1532544057862,12,9,-4,-10,0,13,2,-2
1532544057867,-21,-15,4,4,0,-26,5,-5
1532544057872,1,2,-8,-3,-3,-24,4,-3
1532544057877,14,-3,1,-2,-4,6,4,5
1532544057882,-9,-13,10,2,-1,-12,-2,-2
1532544057887,-13,-1,-34,-6,0,19,6,-6
1532544057892,-5,0,1,-1,1,-9,-1,-2
1532544057897,-4,17,0,-3,-4,1,-7,-1
1532544057902,14,-14,-1,7,2,4,9,3
1532544057907,4,4,19,-4,-7,-12,-2,1
1532544057912,-12,8,-10,-19,-10,0,-1,-1
1532544057917,3,19,-1,2,4,6,-4,-1
1532544057922,-1,-55,-17,0,1,10,18,-1
1532544057927,-17,10,17,17,7,-2,-7,3
1532544057932,2,8,1,-12,-7,-15,-3,-2
1532544057937,-12,-9,-4,-5,4,36,1,-3
1532544057942,6,-2,-6,-6,-5,4,-4,-5
1532544057947,31,3,8,8,10,-12,-11,3
1532544057952,-50,-12,-11,0,-13,-15,4,-3
1532544057957,-8,4,-1,-1,2,-15,7,-1
1532544057962,-9,10,0,2,-5,38,-6,-2
1532544057967,18,-3,4,-1,8,1,-5,-2
1532544057972,11,22,9,-6,-9,9,-13,-2
1532544057977,-9,-25,-8,6,-2,-56,-5,-1
1532544057982,-1,10,-4,-4,5,8,-11,-2
1532544057987,4,7,6,-4,-6,57,-1,0
1532544057992,18,-3,0,7,13,47,-6,6
1532544057997,-1,-14,-8,-8,-5,-34,5,-1
1532544058002,8,11,2,6,5,9,-14,1
1532544058007,-7,-1,3,8,1,-17,-6,-1
1532544058012,-7,-14,-4,0,2,-8,5,-3
