1532406350238,-2,0,-1,-1,0,-1,-1,-2
1532406350243,-1,-1,-1,-1,-1,0,-1,0
1532406350248,-1,-1,-2,1,0,-1,-3,-2
1532406350253,-1,-2,1,0,0,-3,0,-1
1532406350258,-1,-1,1,-2,0,-1,0,0
1532406350263,0,1,1,0,1,0,1,0
1532406350268,-1,0,0,-2,0,0,-1,-1
1532406350273,0,0,-2,-1,0,0,-2,-3
1532406350278,0,-1,-1,-2,0,-1,0,-3
1532406350283,0,0,-1,-1,0,-3,-2,-3
1532406350288,0,-1,-1,-2,-1,2,1,-2
1532406350293,-1,0,-1,0,-2,-1,-1,-2
1532406350298,-1,1,0,-1,0,0,-1,0
1532406350303,0,-2,-3,0,-2,0,0,1
1532406350308,-1,-1,-1,0,1,-3,-2,-2
1532406350313,-1,0,-1,1,-1,0,-3,-3
1532406350318,0,0,-1,-1,-2,-1,-1,0
1532406350323,0,1,1,-2,-1,0,-1,-2
1532406350328,-1,-1,0,-1,-1,1,2,1
1532406350333,1,1,-2,-1,1,0,0,0
1532406350338,-1,-2,-1,0,0,-2,-2,-1
1532406350343,-1,-1,-1,0,0,-1,-2,2
1532406350348,0,0,-1,-1,0,-1,-1,-1
1532406350353,-1,-1,-1,-1,-1,-2,-1,-3
1532406350358,-1,-1,-1,-1,-3,-1,-1,-2
1532406350363,-1,-1,-1,-1,-1,-1,1,-3
1532406350368,-1,-1,0,1,-1,1,-1,0
1532406350373,1,-1,0,-1,-1,-1,1,0
1532406350378,-1,0,-1,0,-1,-1,-2,-1
1532406350383,-1,0,0,0,-1,-1,-3,0
1532406350388,-1,-1,-2,-2,-2,-1,0,-1
1532406350393,-1,-1,-2,-1,-1,-2,0,-6
1532406350398,1,-1,0,0,-1,-2,-1,1
1532406350403,-2,-1,-1,-1,-1,4,-3,-4
1532406350408,0,0,-1,1,-2,-1,0,-1
1532406350413,0,1,-2,-1,-2,-1,-1,4
1532406350418,0,0,0,0,0,-1,0,0
1532406350423,-2,-1,-1,-1,0,-2,-1,1
1532406350428,0,1,-1,-1,0,-1,0,-1
1532406350433,-1,-1,0,-1,-2,-1,-2,-1
1532406350438,0,-1,1,-1,-1,0,-2,-3
1532406350443,-1,0,-1,0,-1,-2,-2,-2
1532406350448,-1,-1,-2,-1,1,1,-3,-3
1532406350453,0,-1,-1,-1,-1,-2,1,-2
1532406350458,-1,-1,-1,-4,0,0,-1,0
1532406350463,1,-1,-1,-1,0,-2,0,0
1532406350468,0,0,-2,0,-1,0,-2,-2
1532406350473,0,0,0,-1,-3,1,-2,-2
1532406350478,-1,-1,-1,-1,-1,-2,-1,0
1532406350483,-1,-2,0,0,0,0,-1,-1
1532406350488,0,-1,-2,-1,-1,-2,0,-2
1532406350493,-1,-1,-1,1,1,0,-2,-1
1532406350498,-3,-1,0,-1,-1,-2,-2,-2
1532406350503,-1,0,-2,-1,1,0,-1,1
1532406350508,1,0,-2,-1,0,0,-2,-2
1532406350513,-2,-1,0,-1,2,-1,-1,-2
1532406350518,0,-1,-1,-2,1,0,0,-2
1532406350523,-1,0,0,-1,-3,0,-1,2
1532406350528,-4,-1,0,-2,-1,-2,-3,0
1532406350533,0,0,-2,-1,-2,0,-3,-1
1532406350538,-1,-2,0,-2,-3,0,0,-1
1532406350543,0,0,0,-1,-1,0,0,-3
1532406350548,1,0,0,0,-2,-1,0,-2
1532406350553,-2,-2,-2,-1,-3,-1,-2,-2
1532406350558,0,0,-1,0,-1,2,1,-3
1532406350563,1,0,-2,-2,0,-2,0,-2
1532406350568,0,-1,-1,-1,-1,-1,1,1
1532406350573,0,1,-1,-2,-1,-1,-2,-1
1532406350578,1,-1,-3,-1,-1,0,-1,0
1532406350583,0,-1,-2,-1,-1,-1,0,0
1532406350588,-1,0,0,0,-1,0,-2,-2
1532406350593,-1,-2,0,-1,1,0,0,1
1532406350598,0,-1,-2,0,-2,-2,-2,0
1532406350603,0,0,0,0,1,1,-1,-2
1532406350608,-2,-1,-3,0,0,-2,-1,-1
1532406350613,-1,-1,-1,0,-2,-2,1,0
1532406350618,-2,-1,0,-1,0,0,-2,1
1532406350623,0,-1,-1,-2,-4,-2,0,0
1532406350628,0,0,-1,-2,-1,0,-1,-3
1532406350633,-1,-2,0,-1,0,0,-2,0
1532406350638,0,0,-3,-2,0,0,-2,-2
1532406350643,-3,0,-1,0,-1,-1,-2,-1
1532406350648,1,1,-1,-1,1,0,0,-2
1532406350653,-1,0,-1,-1,0,0,0,-1
1532406350658,-2,-1,0,1,-1,-2,-1,0
1532406350663,2,-2,-2,0,-1,-2,-3,-2
1532406350668,-2,-1,0,-1,-2,-1,-1,-2
1532406350673,0,-1,-1,0,1,0,0,-1
1532406350678,0,0,0,-1,-1,-2,-2,-2
1532406350683,-2,-1,0,-1,-2,-1,-1,0
1532406350688,-1,0,-1,-1,0,-1,-3,0
1532406350693,0,0,-2,-1,0,-2,-2,-2
1532406350698,0,0,-1,-2,-1,0,0,-2
1532406350703,-1,-1,-1,-1,1,0,0,-1
1532406350708,-2,-2,0,-2,-3,-1,-1,1
1532406350713,-2,0,-1,-1,0,0,-3,0
1532406350718,-1,-1,-2,0,-1,0,-2,-1
1532406350723,-1,0,0,-2,0,-1,-1,-4
1532406350728,-1,0,-1,-1,-2,-1,-1,-2
1532406350733,0,0,0,-1,-1,0,1,-1
1532406350738,-2,-2,-1,1,0,-1,-1,1
1532406350743,-2,-2,-1,-1,-1,-1,-1,0
1532406350748,0,-1,-1,-1,1,1,0,-3
1532406350753,-2,-2,0,-1,-1,-1,-2,-4
1532406350758,-2,0,-2,-1,-1,-2,-1,-2
1532406350763,1,-1,-1,-1,0,-1,-2,1
1532406350768,-1,-2,0,0,-1,0,-2,2
1532406350773,-1,-1,-2,0,-2,-2,-1,-2
1532406350778,1,-3,-1,-2,-1,0,-2,0
1532406350783,-1,-2,-1,-2,0,-2,-1,-1
1532406350788,0,0,1,0,-2,0,-1,0
1532406350793,0,-3,0,-1,0,-1,2,1
1532406350798,0,0,0,-2,-1,0,0,-4
1532406350803,-1,0,-1,0,-3,0,-2,-2
1532406350808,0,-1,0,1,1,-1,0,-1
1532406350813,-2,0,-2,-2,-2,0,0,-1
1532406350818,1,1,0,0,-1,-1,-1,-2
1532406350823,-2,0,0,-1,-2,0,0,-2
1532406350828,-1,-2,-2,-1,-1,0,-1,-3
1532406350833,1,1,0,1,-1,-1,-2,0
1532406350838,-1,-2,0,-1,0,0,0,1
1532406350843,1,0,-1,0,1,-2,0,-1
1532406350848,-1,-1,-3,-1,-1,-2,-1,-1
1532406350853,-2,-1,0,1,0,-1,-2,-1
1532406350858,-2,0,-1,-3,-2,2,-2,-2
1532406350863,0,-2,-1,-2,0,1,0,0
1532406350868,0,0,0,0,-2,1,-1,0
1532406350873,0,-3,0,0,-2,0,-2,0
1532406350878,-1,0,0,-1,0,0,-1,-4
1532406350883,-1,-2,-1,-1,-1,-1,0,-2
1532406350888,-2,1,-2,-1,-2,-2,-3,-1
1532406350893,0,0,-2,-1,0,-1,-2,0
1532406350898,-1,-2,-2,0,0,-2,0,1
1532406350903,-1,0,-2,-1,-1,2,-1,-3
1532406350908,0,-2,0,0,-1,-1,0,0
1532406350913,-1,0,0,-2,-2,-1,-1,0
1532406350918,0,-2,0,0,-2,-1,-3,1
1532406350923,-1,-1,-1,-1,0,-1,-1,0
1532406350928,-2,-3,-1,-2,-1,-2,0,1
1532406350933,1,0,-1,0,0,1,-3,-3
1532406350938,-1,0,-1,-1,-2,0,-3,-1
1532406350943,0,-2,0,-1,-1,-2,-2,-2
1532406350948,-1,0,-1,0,1,0,-1,-3
1532406350953,-1,1,-2,-2,-1,-1,0,0
1532406350958,0,1,-1,0,1,0,0,-3
1532406350963,-2,-1,-2,0,0,0,-2,-1
1532406350968,1,0,1,-1,-3,-2,-2,-1
1532406350973,-3,0,-1,0,0,-2,1,-1
1532406350978,-1,-2,-1,-1,-1,-1,-1,1
1532406350983,-1,0,1,0,1,0,-1,0
1532406350988,0,-1,-1,0,1,1,1,-2
1532406350993,-1,0,-2,-1,0,-1,-2,-3
1532406350998,0,-1,-1,1,1,-1,0,-1
1532406351003,0,0,-2,-1,0,-1,0,0
1532406351008,-2,0,0,-1,0,0,-2,0
1532406351013,1,-1,0,-1,-2,0,-2,0
1532406351018,-2,-1,-1,0,-2,1,1,1
1532406351023,-2,-1,0,-2,-2,0,-2,-1
1532406351028,-1,-1,-2,-1,-1,-1,-1,-2
1532406351033,-1,-2,1,-2,-2,-1,-2,0
1532406351038,1,-1,-1,-2,-1,-2,-2,-1
1532406351043,0,-2,-2,0,-2,-1,-1,0
1532406351048,-1,0,0,-2,-1,0,-2,-1
1532406351053,-2,-2,-2,-1,-1,0,0,0
1532406351058,-1,0,0,-1,0,-1,-2,-2
1532406351063,-2,0,0,0,2,0,0,2
1532406351068,-1,0,-2,-1,1,0,-2,-3
1532406351073,0,-1,-1,0,-1,-1,-1,-2
1532406351078,-1,0,-1,-1,0,0,0,-2
1532406351083,0,-1,-1,-1,-3,-2,0,-1
1532406351088,-1,-1,-3,0,0,-1,-1,0
1532406351093,-1,-2,0,-1,0,0,-1,-1
1532406351098,-1,-1,-1,-1,-2,-2,-1,0
1532406351103,-1,-1,0,1,1,-1,-1,-2
1532406351108,0,-2,-1,-1,-2,0,-2,-1
1532406351113,-3,0,-3,-2,-1,0,-2,-3
1532406351118,0,-1,-1,0,1,0,-2,-2
1532406351123,-1,-1,0,0,0,0,-3,-2
1532406351128,-1,0,0,-1,-1,-2,-1,0
1532406351133,0,-1,-1,0,-1,-1,-2,-3
1532406351138,-1,-1,0,-2,-1,-1,-1,-1
1532406351143,0,-1,-1,-2,0,-2,-1,0
1532406351148,-2,-1,-2,-1,-2,-1,-1,-1
1532406351153,-1,0,-1,0,-2,-2,-2,-2
1532406351158,0,-1,-2,0,-1,0,-1,1
1532406351163,-1,-1,0,0,0,-1,-2,-4
1532406351168,-1,0,0,-1,0,-1,1,-3
1532406351173,0,-1,-2,-2,-1,-1,0,1
1532406351178,-2,-2,-1,-2,1,0,-1,-1
1532406351183,0,-1,1,0,0,0,0,0
1532406351188,0,-2,-1,-1,0,-1,1,0
1532406351193,0,-1,-3,-1,-2,-3,-2,-3
1532406351198,0,0,1,1,-2,-1,-1,2
1532406351203,1,0,0,-1,0,-1,-1,-1
1532406351208,-1,-1,-1,-2,1,-1,-1,0
1532406351213,-1,0,-1,-1,-2,0,0,-2
1532406351218,-1,-1,0,0,-1,2,-1,-3
1532406351223,-3,1,-2,0,-1,1,-1,0
1532406351228,-2,0,1,0,-2,-1,-1,-1
1532406351233,0,0,1,-2,0,0,-1,1
1532406351238,-2,-1,-1,-2,-2,-1,-1,-3
1532406351243,-1,0,1,-1,-1,-2,-1,-2
1532406351248,-1,-1,-1,-2,0,-2,-3,-4
1532406351253,-1,-1,0,-1,1,-1,-1,-1
1532406351258,1,-1,0,1,2,-2,0,0
1532406351263,-1,-2,-2,1,0,-1,0,2
1532406351268,-1,-3,-1,0,-2,-2,-2,0
1532406351273,0,-1,-3,-2,-2,0,-1,-4
1532406351278,-1,0,0,-3,0,0,0,-1
1532406351283,-1,-1,-1,-2,0,1,-2,-2
1532406351288,0,0,1,1,1,2,-1,-1
1532406351293,0,-1,-3,0,-1,-2,-1,-4
1532406351298,0,0,-1,0,-3,-2,-2,-2
1532406351303,-1,-1,0,-1,-2,0,-1,-1
1532406351308,0,-2,0,-2,1,-1,-3,-1
1532406351313,-1,0,0,-1,-1,-1,-2,0
1532406351318,0,-1,-3,0,0,-1,-2,-1
1532406351323,-2,-1,-1,-2,-1,-1,1,0
1532406351328,0,-1,-1,-3,-1,-1,0,0
1532406351333,0,-1,1,0,0,-2,-1,-2
1532406351338,-1,-1,-2,0,0,-1,-2,-1
1532406351343,1,1,0,-1,0,-1,-1,-1
1532406351348,-1,-1,-2,1,-1,-1,0,-1
1532406351353,-2,-1,0,0,0,1,1,0
1532406351358,0,0,0,0,-2,0,0,-1
1532406351363,-1,-2,-1,0,-2,-2,-4,-2
1532406351368,-1,0,-1,-1,-1,-1,0,-2
1532406351373,-1,0,-1,-2,0,1,-2,-1
1532406351378,0,-1,-3,0,-1,-2,-2,-2
1532406351383,0,-1,-1,0,-1,0,0,-2
1532406351388,-1,-1,-1,-1,0,-2,-2,0
1532406351393,-2,-1,-1,-1,0,-2,-2,0
1532406351398,-2,-1,0,-2,0,1,-1,-1
1532406351403,1,-2,-1,-1,0,-1,-2,-1
1532406351408,-1,-1,-1,-1,-1,-2,0,0
1532406351413,-2,-1,-1,-1,-2,-1,-3,1
1532406351418,0,0,-1,-2,-2,-1,-2,-1
1532406351423,-1,0,-1,0,0,1,-2,-3
1532406351428,-1,0,0,-2,-1,1,-1,-2
1532406351433,-1,-2,-1,-2,-3,0,-1,1
1532406351438,-1,-1,1,0,-1,0,-1,-1
1532406351443,-1,-1,-1,0,-2,-1,-1,2
1532406351448,0,-2,0,0,0,0,-1,1
1532406351453,-2,0,0,-1,0,-1,-2,-3
1532406351458,-1,-2,-1,-1,0,-1,0,0
1532406351463,0,0,0,0,-2,0,-2,-2
1532406351468,-1,-1,0,0,0,-1,-1,1
1532406351473,-1,-2,0,0,-2,-1,-1,-1
1532406351478,-2,-2,1,-1,0,-3,-1,0
1532406351483,-2,0,-1,-3,1,-2,0,1
1532406351488,0,0,-2,-1,0,1,-1,-2
1532406351493,0,0,-1,0,1,0,-1,-3
1532406351498,0,-2,1,-1,0,0,-1,0
1532406351503,-2,0,-2,1,-2,1,-2,-2
1532406351508,-1,-1,-1,1,-3,-1,-1,-1
1532406351513,-1,0,0,-1,1,0,0,2
1532406351518,1,0,-1,-1,-2,0,-1,-2
1532406351523,-2,0,-2,0,-1,-2,-1,1
1532406351528,1,-1,-1,-3,-2,-2,0,0
1532406351533,0,-2,0,-1,-2,0,-1,-2
1532406351538,0,0,-2,-1,-2,1,-1,0
1532406351543,-1,-3,1,-2,1,1,-1,-2
1532406351548,-1,1,-1,1,1,-1,-1,-1
1532406351553,-1,0,-1,-1,-3,0,0,-1
1532406351558,0,-1,-2,-2,-1,1,0,-5
1532406351563,-1,0,-2,-3,-1,-2,-2,-2
1532406351568,-1,2,-2,-2,0,0,-1,1
1532406351573,-1,-2,-1,-1,0,-2,-1,-2
1532406351578,-2,2,1,-1,0,-1,-1,-1
1532406351583,-1,-1,-1,0,1,-1,-2,-3
1532406351588,-2,-1,0,-1,-3,-1,-2,-3
1532406351593,1,-1,0,0,-2,-2,-1,-1
1532406351598,-1,0,0,0,-1,0,-1,0
1532406351603,0,-2,0,-3,-1,0,-1,-2
1532406351608,-1,-1,1,2,-2,-1,-1,-1
1532406351613,0,-1,-1,-1,0,-2,0,-1
1532406351618,-2,-2,-2,1,1,-1,-1,-1
1532406351623,0,0,-1,-3,0,-2,-2,1
1532406351628,-2,0,0,-3,0,-1,-1,0
1532406351633,-2,-2,-3,-1,-3,-1,-2,-1
1532406351638,0,-1,-1,-2,-1,-1,-1,0
1532406351643,0,-2,0,0,1,-1,0,-1
1532406351648,0,-2,-2,0,-1,0,-2,-1
1532406351653,0,0,-1,-3,0,-1,-1,-1
1532406351658,-2,-1,-1,-2,0,-3,-2,-1
1532406351663,-2,-1,-2,0,-3,-1,-1,-1
1532406351668,-1,-2,0,0,-3,0,-2,-1
1532406351673,-3,0,0,-1,-1,0,0,-2
1532406351678,-1,-1,1,1,-1,-1,0,-1
1532406351683,1,0,0,-1,0,-1,0,0
1532406351688,0,0,0,-2,1,-2,-2,-3
1532406351693,0,-1,-1,-1,-1,1,-1,-3
1532406351698,0,1,-3,-1,0,0,-2,-2
1532406351703,-1,-1,-1,0,-1,0,-1,1
1532406351708,1,0,-1,-2,0,-2,-1,-2
1532406351713,-1,-1,-1,2,1,-1,0,0
1532406351718,0,-2,-1,-1,-2,-1,-1,0
1532406351723,-2,-1,0,0,-4,-1,-1,-1
1532406351728,-1,-1,0,-2,-1,-3,-2,-1
1532406351733,-1,0,0,-1,1,-1,-2,-1
1532406351738,-1,0,-3,0,0,-1,0,-1
1532406351743,-1,-1,-1,0,-1,-2,-1,-1
1532406351748,-1,-3,-1,0,1,0,0,1
1532406351753,-1,0,-1,-1,0,0,-3,0
1532406351758,-1,0,-1,-1,0,-1,-1,0
1532406351763,-1,0,-1,0,-2,0,-1,-2
1532406351768,-2,0,0,0,0,1,2,-2
1532406351773,0,-1,-3,-2,-1,-1,-1,-2
1532406351778,-1,0,1,-2,-1,-3,-4,-3
1532406351783,0,0,0,0,1,0,-2,-2
1532406351788,1,-1,-2,-2,-3,-1,-2,0
1532406351793,-1,1,0,-1,-1,-1,1,-1
1532406351798,-1,-1,0,-1,-1,-1,0,-2
1532406351803,1,-1,-1,-1,0,0,-1,0
1532406351808,0,-1,-2,0,-2,0,-2,-2
1532406351813,1,-2,-1,-1,0,0,-1,0
1532406351818,0,-1,-1,0,-1,-2,-2,-1
1532406351823,-1,0,0,-3,-1,0,-3,-1
1532406351828,-1,1,-2,0,1,-1,0,-2
1532406351833,1,2,-1,-1,-2,-1,-2,0
1532406351838,-1,-1,-2,-1,-1,0,-2,-1
1532406351843,1,-2,-1,0,-1,0,0,0
1532406351848,-1,0,-2,-1,-1,-2,-2,-1
1532406351853,1,-1,0,1,0,0,-1,-2
1532406351858,0,0,1,-1,-1,-1,-1,-2
1532406351863,-2,-1,-1,-1,-1,-3,-1,-2
1532406351868,0,-1,0,-3,-2,-1,0,1
1532406351873,0,-1,-1,-1,0,-2,-1,-2
1532406351878,0,-2,0,-1,0,0,-3,1
1532406351883,0,-2,-2,-1,-2,0,-1,-1
1532406351888,0,0,0,-1,0,-1,-1,-1
1532406351893,-1,0,0,-1,0,0,-1,0
1532406351898,-1,-2,0,-1,0,0,-1,-3
1532406351903,-2,0,-1,-2,0,0,-1,-1
1532406351908,-1,-1,-1,0,1,-1,-2,0
1532406351913,-1,-2,-1,-1,0,0,-1,-1
1532406351918,-1,0,0,0,-1,0,-2,-2
1532406351923,0,-1,-2,1,0,-2,0,1
1532406351928,0,-1,-1,0,-1,0,0,-2
1532406351933,-2,0,0,-1,-1,-1,-2,2
1532406351938,-1,-1,-1,0,-1,-1,-1,-2
1532406351943,-1,0,-2,-1,-2,-1,0,0
1532406351948,0,-1,0,-1,-1,-2,-1,-2
1532406351953,-1,-1,-1,1,-3,-2,-2,-2
1532406351958,1,0,-2,-1,-2,-2,-1,0
1532406351963,-2,-1,0,-1,0,-1,-1,-1
1532406351968,-2,-2,-1,0,1,1,-1,-1
1532406351973,-1,-1,1,1,0,-1,-1,-2
1532406351978,0,0,-2,-1,-1,-2,-2,1
1532406351983,-1,-2,-1,0,-1,0,-3,-1
1532406351988,0,-1,-1,-2,-3,0,0,-1
1532406351993,-1,-2,1,-2,-1,-1,0,1
1532406351998,0,0,0,-1,0,-1,0,-3
1532406352003,1,-1,-1,0,0,0,1,-1
1532406352008,1,-1,-1,0,-1,0,-2,-2
1532406352013,-1,-2,-2,-1,-1,1,-1,-3
1532406352018,-1,0,-2,0,0,-2,0,0
1532406352023,1,0,0,0,1,0,-1,2
1532406352028,-2,-2,-2,0,-3,-1,-1,-2
1532406352033,0,-1,0,-2,-2,1,-2,2
1532406352038,-1,-2,-1,-1,0,-1,-1,1
1532406352043,-2,1,1,-2,0,0,-1,-3
1532406352048,-1,-2,-1,1,0,0,-2,-1
1532406352053,-1,-1,-1,-2,2,-1,-2,-3
1532406352058,-2,-2,-1,-1,0,1,-1,0
1532406352063,0,-2,0,-1,1,-1,0,-1
1532406352068,-1,0,0,-1,-1,-1,-3,-1
1532406352073,0,0,0,0,0,-1,0,-2
1532406352078,0,-1,0,0,-3,-1,0,0
1532406352083,1,-1,0,-3,0,-1,-1,-2
1532406352088,0,0,-1,-1,-2,-1,-1,-1
1532406352093,1,0,-2,-2,-2,0,-2,-1
1532406352098,-2,-2,0,-1,1,0,-1,0
1532406352103,0,-1,1,1,0,-1,-2,-1
1532406352108,-1,0,0,-2,0,-1,0,0
1532406352113,0,0,-2,-1,-1,-2,-1,1
1532406352118,0,0,-2,-2,-2,0,-1,0
1532406352123,-2,-1,-1,-1,-1,-2,-3,0
1532406352128,-1,0,-1,-2,-1,0,-1,-2
1532406352133,-1,-1,-2,1,-2,-1,-1,-4
1532406352138,1,0,-1,-2,1,0,0,-1
1532406352143,-1,-1,-1,0,-2,-1,-1,-1
1532406352148,0,-1,1,-2,1,-1,-1,-1
1532406352153,0,-1,0,-1,-2,-1,0,1
1532406352158,-1,-1,-1,0,-2,-1,-1,-1
1532406352163,-1,0,-2,0,-1,-1,-1,-3
1532406352168,0,-1,-1,0,-1,-2,-2,-3
1532406352173,0,-1,-1,0,0,1,-1,-2
1532406352178,-1,-1,0,-2,-1,-1,-3,-2
1532406352183,-1,-1,-1,0,-1,-2,-2,1
1532406352188,1,1,-1,-1,0,-2,-1,-1
1532406352193,-1,-1,0,-1,1,-2,-1,-2
1532406352198,-1,0,0,-1,-2,0,-1,1
1532406352203,-2,-1,0,-1,-1,1,0,0
1532406352208,0,-2,-2,-1,-2,-1,-1,0
1532406352213,-1,0,-1,0,-1,-1,-1,-2
1532406352218,0,0,-1,1,0,0,-1,-3
1532406352223,-1,-2,0,0,0,0,-2,-1
1532406352228,-3,1,0,-1,0,0,-3,0
1532406352233,0,-2,0,0,-1,-2,-2,1
1532406352238,0,-1,-1,-1,-2,-1,-2,-2
1532406352243,0,0,-1,0,-3,-1,-2,-2
1532406352248,0,-1,0,0,-1,0,0,-1
1532406352253,-1,0,-1,-2,0,0,-1,0
1532406352258,-1,-2,0,-2,0,0,-2,-2
1532406352263,-1,-1,-2,-1,0,-1,0,-2
1532406352268,-1,1,-1,-1,-2,0,-2,-1
1532406352273,-1,-1,-1,1,-1,-1,-1,0
1532406352278,-1,0,-2,-1,-1,-1,0,-1
1532406352283,-1,-1,-1,-1,0,-1,1,-3
1532406352288,-1,-1,-1,0,0,-2,-1,-1
1532406352293,0,1,0,-1,0,0,0,-3
1532406352298,-1,-2,-1,1,-2,0,-1,0
1532406352303,0,-1,0,-3,0,-1,-1,0
1532406352308,0,-1,-3,0,-2,-1,-2,-1
1532406352313,-1,-1,0,0,0,0,-2,-3
1532406352318,-2,1,-1,1,-1,-2,-2,-1
1532406352323,1,0,-1,0,-1,-1,-1,0
1532406352328,-1,-2,0,-1,0,0,-1,-2
1532406352333,0,-1,-1,-3,0,1,0,-2
1532406352338,-1,0,-2,0,0,0,-1,0
1532406352343,-1,0,0,-1,-2,0,0,1
1532406352348,0,0,-1,-1,-2,0,0,1
1532406352353,-1,1,-1,0,-4,-2,-2,2
1532406352358,-1,-1,0,0,0,-1,-1,-3
1532406352363,-1,0,-1,-2,2,-1,-2,-1
1532406352368,0,0,-2,0,1,-1,-1,-2
1532406352373,-1,-2,-2,-1,1,-2,-2,-3
1532406352378,-1,-1,-1,-1,0,-3,0,1
1532406352383,-1,0,0,0,0,-2,0,0
1532406352388,-1,0,-1,-1,0,1,-1,-1
1532406352393,-1,-1,-1,0,-3,-1,-1,-1
1532406352398,0,1,-1,-1,1,-1,1,-1
1532406352403,-1,-2,-2,-1,-1,-1,-3,-3
1532406352408,0,-2,0,-1,0,1,-1,-4
1532406352413,-1,0,0,-2,0,-1,0,0
1532406352418,-1,0,-1,-1,-2,-1,-2,-5
1532406352423,1,-1,0,1,-1,0,-1,1
1532406352428,0,-1,-1,-1,-3,-2,-1,2
1532406352433,0,-3,-4,0,1,-1,-2,0
1532406352438,0,-1,0,-2,-1,-1,-3,0
1532406352443,0,-1,-1,-1,-1,-1,1,-1
1532406352448,-1,0,-1,-3,-2,0,-1,-2
1532406352453,0,-1,-1,1,-1,-2,-2,-5
1532406352458,0,-1,-2,-1,0,0,-2,1
1532406352463,-1,-1,0,1,-1,-1,-2,-4
1532406352468,-1,-2,0,-3,0,-2,-2,0
1532406352473,0,-1,-1,0,-2,-1,-1,0
1532406352478,1,-1,-1,1,0,-1,-3,-2
1532406352483,-1,-1,-1,0,-2,-1,-1,-1
1532406352488,0,-1,-1,1,-1,0,-1,1
1532406352493,-1,1,0,-1,-1,0,-1,-1
1532406352498,-1,1,-2,-1,-2,-1,-2,-2
1532406352503,-1,-1,-1,-2,-1,0,-2,0
1532406352508,0,-1,-2,-1,0,-2,-1,-2
1532406352513,-1,1,-1,-1,-1,-2,-1,-1
1532406352518,0,-2,-1,0,0,-1,-1,-1
1532406352523,-1,-2,-1,0,-1,-2,0,-2
1532406352528,0,-1,-2,1,0,-1,-2,0
1532406352533,0,0,-1,-2,0,-1,-1,1
1532406352538,-1,0,-1,-2,-2,-2,0,-2
1532406352543,0,-2,-1,-1,1,-1,0,-1
1532406352548,0,-1,-1,-2,0,0,0,-2
1532406352553,-1,0,0,0,-3,0,-2,-3
1532406352558,0,-1,0,-2,-1,-1,-2,-1
1532406352563,0,-1,-1,1,-2,-1,-1,0
1532406352568,-1,0,0,-1,0,0,-1,-2
1532406352573,-1,-2,-1,-2,-1,-1,0,-2
1532406352578,0,-2,-1,0,0,0,1,1
1532406352583,-2,1,-3,-3,-1,-1,-1,-2
1532406352588,-1,-2,-2,0,0,-1,-1,-1
1532406352593,0,-1,-1,0,2,-1,-2,-1
1532406352598,-2,-2,-1,1,-1,0,-1,-1
1532406352603,0,0,-3,-1,-1,0,-1,-1
1532406352608,-1,-1,-1,-1,-1,-1,0,-2
1532406352613,1,-1,-1,-1,1,-1,-1,-1
1532406352618,0,-2,0,1,-2,-1,-1,-1
1532406352623,0,-2,-1,0,-1,-1,0,-2
1532406352628,-2,-1,0,-1,-2,-1,-3,-2
1532406352633,-1,-2,0,0,0,0,1,-3
1532406352638,-3,-1,-2,-2,-2,0,-2,-1
1532406352643,-1,-2,-1,-1,-3,-1,-3,0
1532406352648,-1,-2,0,1,-3,-1,-1,-2
1532406352653,-3,-1,0,-1,-3,-2,0,0
1532406352658,0,1,0,-1,0,0,2,1
1532406352663,0,0,0,-1,0,-1,-1,-2
1532406352668,-1,-1,0,0,1,-3,0,0
1532406352673,-2,-2,-2,-1,0,-1,-3,-2
1532406352678,0,-2,-2,-1,0,0,-1,-4
1532406352683,0,0,-1,-2,0,0,-1,0
1532406352688,0,-1,-1,-1,1,-1,1,-1
1532406352693,-1,-1,0,1,0,1,-1,-1
1532406352698,-1,0,1,-2,-1,1,-3,0
1532406352703,-1,1,0,-2,-2,-1,0,-1
1532406352708,0,-2,0,-1,-2,0,-2,-3
1532406352713,0,-1,-1,-3,0,-1,-1,-1
1532406352718,-1,0,-2,-2,2,0,-1,-4
1532406352723,-1,-2,0,0,-2,-2,0,-2
1532406352728,0,0,0,0,0,-1,-1,1
1532406352733,0,-2,-1,0,-2,-2,-1,0
1532406352738,0,-1,1,-2,-3,-1,0,1
1532406352743,0,-1,-1,0,-2,-2,-2,-1
1532406352748,-1,1,-2,-2,0,0,1,-2
1532406352753,-2,-1,-1,-2,1,0,-1,-1
1532406352758,-2,-1,-2,0,-1,-3,-1,0
1532406352763,1,-1,0,-2,-1,0,-2,-2
1532406352768,-1,-1,0,0,1,-2,-2,0
1532406352773,0,1,-1,-1,-1,0,-1,-3
1532406352778,-2,-3,-1,-1,-1,0,-1,-2
1532406352783,-1,-1,-1,-1,-1,-1,-1,-1
1532406352788,0,0,0,-1,0,0,-1,-1
1532406352793,0,-2,1,-1,0,-1,-1,0
1532406352798,-1,-1,-1,0,0,-2,-2,-2
1532406352803,-1,-1,-1,1,-1,1,1,0
1532406352808,-1,-1,-1,-2,-1,-2,-2,0
1532406352813,0,-1,-2,-2,-3,-2,-1,-3
1532406352818,0,1,-2,0,-2,0,-1,0
1532406352823,-1,-2,1,-1,-1,0,-2,-3
1532406352828,-1,-2,-1,1,0,0,-2,0
1532406352833,-1,-1,-1,-1,-2,-1,2,2
1532406352838,0,0,0,0,0,0,-1,-3
1532406352843,-3,1,-2,-1,-2,-2,-2,-1
1532406352848,0,0,-2,-2,0,0,0,-1
1532406352853,0,-1,-2,0,-2,0,-3,0
1532406352858,-1,-1,-1,0,0,-2,0,2
1532406352863,-2,-1,0,-1,0,0,-2,-2
1532406352868,0,0,0,-2,0,-1,-1,-1
1532406352873,-2,-1,0,-1,0,-1,-1,-2
1532406352878,-2,-2,0,-1,0,-1,-2,0
1532406352883,0,-1,-2,-2,1,-2,0,0
1532406352888,0,-2,-1,0,-3,0,-1,2
1532406352893,0,-1,-2,0,-1,-1,1,0
1532406352898,-2,0,-1,-2,-1,-2,-3,0
1532406352903,0,0,0,0,1,-1,-1,-2
1532406352908,0,-2,-1,1,0,0,-2,-3
1532406352913,-1,-1,-1,-1,1,0,-1,1
1532406352918,1,0,-2,-1,0,-2,0,1
1532406352923,-1,-2,-1,-1,-1,-1,-1,0
1532406352928,-1,0,-2,-2,-1,-1,-1,-1
1532406352933,0,0,2,-1,-1,-2,-1,-2
1532406352938,-1,-1,0,1,0,1,0,-2
1532406352943,0,0,0,1,-1,1,-1,-2
1532406352948,-1,-2,-1,-2,-1,-2,-2,-2
1532406352953,0,0,-2,-1,1,-1,-2,-3
1532406352958,0,1,0,-1,-1,-2,-1,-4
1532406352963,-1,-1,0,1,-1,0,-1,0
1532406352968,1,0,0,-2,-2,-1,0,-2
1532406352973,-2,-2,-1,-2,-3,-1,0,-2
1532406352978,0,0,-1,-2,-2,-1,-2,1
1532406352983,-1,-3,-2,-1,0,-1,-2,0
1532406352988,0,-2,0,0,0,-2,-1,-1
1532406352993,0,-1,0,0,2,0,-2,-2
1532406352998,0,1,-2,-1,-1,-1,0,-2
1532406353003,0,-1,-1,-2,-1,-1,-1,-1
1532406353008,-1,-1,-1,0,-2,1,-2,1
1532406353013,-1,0,-1,-1,-1,-1,-2,-2
1532406353018,-1,-3,-1,0,-1,-1,-4,0
1532406353023,-1,1,0,-1,-1,0,-1,-2
1532406353028,-1,-1,-1,-1,-2,-1,1,2
1532406353033,0,-1,-1,-2,-2,-2,-3,-3
1532406353038,0,-1,-1,-1,-3,-1,0,-5
1532406353043,-2,1,-3,0,0,-1,-3,-2
1532406353048,-2,1,0,-2,-1,0,-2,0
1532406353053,-1,0,-2,-3,0,2,0,1
1532406353058,-1,-1,0,-1,0,0,-2,-1
1532406353063,-2,-3,-3,-2,-1,-2,0,-1
1532406353068,0,-2,-1,0,-3,0,0,-1
1532406353073,0,1,-1,1,-3,0,0,1
1532406353078,-2,-1,1,-2,-3,-3,-2,-2
1532406353083,-1,-1,-1,-2,0,0,-1,-2
1532406353088,-3,-2,-2,0,1,0,-3,-2
1532406353093,0,-2,-1,-1,0,0,-2,0
1532406353098,-1,0,-1,-1,1,0,-1,2
1532406353103,-2,-1,-1,0,-1,-2,-2,-2
1532406353108,0,0,-1,-1,0,1,-1,-2
1532406353113,-1,-2,0,0,-1,-2,-1,0
1532406353118,0,0,-2,0,-2,0,1,1
1532406353123,0,0,0,-1,-1,-1,0,0
1532406353128,0,0,-1,-2,0,-1,-2,-1
1532406353133,-1,1,0,-1,-1,-1,-2,-3
1532406353138,0,-1,-1,-1,-3,-1,-1,-1
1532406353143,-1,-1,0,-1,-1,-2,1,-1
1532406353148,0,-1,0,0,-1,-1,-1,-1
1532406353153,1,0,0,0,-1,-2,-1,-2
1532406353158,-2,-1,-2,-1,-1,-1,-2,-2
1532406353163,2,0,0,-1,0,0,1,1
1532406353168,-2,1,-1,-1,-2,-1,0,-2
1532406353173,0,-2,0,-1,-1,0,-2,1
1532406353178,-2,-1,0,0,0,-1,0,-2
1532406353183,0,0,-1,0,-1,0,0,0
1532406353188,-2,-1,-1,0,-1,0,-1,-2
1532406353193,-2,-2,-1,0,0,-2,-1,-2
1532406353198,0,-1,0,-1,-1,-2,-1,-2
1532406353203,-1,-1,0,-1,-1,0,0,0
1532406353208,0,-1,-1,-1,0,-1,-1,1
1532406353213,1,-1,-1,0,0,-1,-1,-3
1532406353218,0,-2,0,0,2,1,-1,-1
1532406353223,0,-1,-1,-2,1,-3,-2,0
1532406353228,1,-1,0,-2,0,-1,-2,-3
1532406353233,-1,0,0,-1,0,0,0,-2
1532406353238,0,0,-2,0,-1,-1,0,-2
1532406353243,-1,0,-2,-1,-4,-2,-1,-4
1532406353248,0,-1,-1,0,-2,0,1,0
1532406353253,-1,-2,-1,0,0,-1,-1,1
1532406353258,-1,0,-1,-2,-1,-1,-3,0
1532406353263,0,0,-1,0,-1,1,-1,-1
1532406353268,0,-1,0,-1,1,-1,-1,-3
1532406353273,-1,-1,-1,1,-1,1,-1,0
1532406353278,0,-1,0,-2,1,1,-1,0
1532406353283,1,-1,-1,-2,1,1,-1,0
1532406353288,-1,0,0,0,-1,-2,-2,-3
1532406353293,0,-1,-1,0,-1,1,-1,-3
1532406353298,-1,0,-1,-1,-1,-1,-1,-1
1532406353303,1,-3,-1,-2,-2,-1,-3,-1
1532406353308,-1,1,-2,-2,-1,-1,1,1
1532406353313,-2,0,0,-1,0,-2,-3,1
1532406353318,0,-3,-2,0,-1,0,0,0
1532406353323,-2,0,-1,-1,0,1,1,-3
1532406353328,0,-1,-2,0,-1,-2,-3,-3
1532406353333,-2,-1,-1,-1,-2,-3,-4,0
1532406353338,-1,0,-1,-1,0,-1,-3,-2
1532406353343,1,-1,0,2,-1,-1,-2,1
1532406353348,-2,-2,0,0,-3,-2,1,1
1532406353353,1,-2,-1,-3,0,-2,-1,-3
1532406353358,0,-1,-1,-2,0,-1,-1,-2
1532406353363,-1,-1,-1,0,0,-2,-1,-1
1532406353368,-2,0,0,-1,-1,-1,-4,-3
1532406353373,-1,-1,0,-3,-1,0,-1,-3
1532406353378,-2,-1,-1,1,-1,1,-1,-3
1532406353383,-2,0,-3,-2,-1,0,-1,-1
1532406353388,1,-1,-3,-1,-2,0,-2,-1
1532406353393,0,-1,-2,-1,-2,0,-1,-1
1532406353398,-2,-2,0,-2,-1,-1,0,-1
1532406353403,-5,-1,0,1,-1,-1,0,-1
1532406353408,3,0,0,-2,-1,-2,-1,-2
1532406353413,-1,1,1,-2,-2,-2,-1,-3
1532406353418,0,-1,0,-1,-1,0,-2,-4
1532406353423,-3,-2,-1,0,0,-1,-2,-1
1532406353428,-2,-1,-1,-1,-1,-1,-1,-1
1532406353433,-1,-1,0,-1,1,0,-1,0
1532406353438,-2,-1,-1,0,0,1,-2,-1
1532406353443,0,0,-1,-2,-1,0,0,0
1532406353448,0,0,-1,-2,-2,-1,-1,0
1532406353453,1,-2,1,0,0,-1,-1,-1
1532406353458,-1,0,0,-1,-1,-1,0,2
1532406353463,1,-1,-1,1,0,-1,-3,-3
1532406353468,0,-2,-1,-1,0,-1,-1,1
1532406353473,-3,-1,0,0,-2,-2,-2,-3
1532406353478,-1,0,-1,-1,0,-1,-1,0
1532406353483,0,0,0,-1,0,0,-1,-2
1532406353488,-9,-2,-1,-2,-2,-2,-1,-3
1532406353493,5,0,-1,0,-1,0,-2,1
1532406353498,-1,-1,-2,-1,-1,-2,-1,-1
1532406353503,1,0,-1,0,-1,-1,0,-4
1532406353508,-4,-1,0,0,0,-1,-1,-2
1532406353513,-2,-1,0,-1,1,-2,-2,-2
1532406353518,0,-1,-2,1,1,-1,-3,0
1532406353523,-1,-1,-1,-2,0,-1,0,-2
1532406353528,1,-1,0,-2,-2,0,-2,-2
1532406353533,-2,0,-1,-1,-2,0,-1,2
1532406353538,0,0,0,-1,0,0,0,1
1532406353543,-1,0,-1,0,0,-1,0,-2
1532406353548,2,-1,0,0,0,-2,-1,0
1532406353553,-1,0,0,0,0,0,-1,-3
1532406353558,-2,-1,1,-2,-2,-1,-1,-1
1532406353563,0,0,1,-1,-2,-2,-1,1
1532406353568,1,-1,-1,1,1,-2,-1,0
1532406353573,-1,0,-3,-1,-3,-1,-1,-3
1532406353578,-1,-2,0,1,1,-1,1,-1
1532406353583,0,-3,-1,-1,-2,-2,-3,-1
1532406353588,1,2,-1,-1,0,1,-3,1
1532406353593,-2,-2,1,-2,0,-2,0,-1
1532406353598,0,1,-1,0,-1,-1,-1,-3
1532406353603,-1,-1,0,-1,-3,-1,1,1
1532406353608,0,0,-1,-2,-1,1,-1,1
1532406353613,-1,-2,-2,-1,0,-2,-1,-1
1532406353618,1,0,-1,-1,-1,0,-2,-1
1532406353623,-2,0,-1,-1,0,0,0,-2
1532406353628,-7,-2,-1,-1,-2,-1,1,-3
1532406353633,-3,-1,0,0,-1,0,-1,-2
1532406353638,13,1,1,-2,0,-1,-2,0
1532406353643,1,0,-2,0,0,1,-4,-1
1532406353648,-2,-1,0,0,-2,0,-1,-1
1532406353653,0,-2,-3,0,-1,-1,-1,0
1532406353658,-3,-1,-1,-2,-1,0,0,-1
1532406353663,-1,-2,0,1,0,-1,-1,0
1532406353668,4,-1,-1,0,0,-2,-1,-2
1532406353673,-3,-3,-2,0,1,-1,-1,-1
1532406353678,-2,1,-1,-1,-2,-1,-1,-3
1532406353683,-1,-3,-1,-1,-3,-1,-2,-1
1532406353688,0,-2,-3,-1,-1,0,-3,-3
1532406353693,2,-1,-2,-1,-1,-2,-1,-2
1532406353698,-4,-3,-3,-1,1,1,-2,-1
1532406353703,-2,0,-2,-1,-1,-1,0,-2
1532406353708,-1,-1,0,-1,-2,-1,-2,-2
1532406353713,-1,-1,-1,0,-1,0,-2,1
1532406353718,-2,-1,0,1,-1,-1,-1,1
1532406353723,-2,0,-1,-1,1,-1,-1,0
1532406353728,1,-2,0,-1,0,-1,-3,-2
1532406353733,0,0,0,-1,-2,-1,-1,-1
1532406353738,-2,-2,-1,-2,0,-1,1,-3
1532406353743,0,-1,-1,0,-1,1,1,-2
1532406353748,-1,0,-1,-3,-1,-1,1,-1
1532406353753,-1,-2,0,0,-1,0,-1,0
1532406353758,-1,-1,-3,0,-3,-1,-1,-1
1532406353763,-1,-1,1,-1,0,0,-1,0
1532406353768,0,-1,0,0,1,1,0,-3
1532406353773,-2,-1,0,-1,1,0,0,-1
1532406353778,-1,0,1,-1,-1,-2,-3,0
1532406353783,-1,0,-3,0,-1,-1,-1,-2
1532406353788,-2,0,-2,-3,0,-2,-2,1
1532406353793,0,-2,-1,-1,-1,0,-1,1
1532406353798,-2,-2,0,1,0,1,-2,-3
1532406353803,0,0,-2,0,0,-1,-1,-2
1532406353808,2,-1,-2,0,-1,-1,-1,0
1532406353813,-1,0,-2,1,-1,1,0,-2
1532406353818,-1,-2,0,-1,-1,-2,-1,1
1532406353823,0,0,0,-1,0,-1,-1,0
1532406353828,-1,-1,0,0,-1,0,-1,-1
1532406353833,0,0,-1,-1,1,-1,0,-2
1532406353838,-1,-1,-1,-1,-1,-2,-1,-1
1532406353843,0,-2,-1,0,-1,0,-2,-3
1532406353848,-1,-2,-1,0,-2,0,-2,0
1532406353853,-1,-3,0,1,-1,-1,-1,0
1532406353858,0,-2,-1,-2,-1,-2,-3,-1
1532406353863,-2,-1,-1,-1,-2,-2,-2,0
1532406353868,0,0,1,-1,-1,-1,0,-1
1532406353873,-2,1,-1,-1,-1,-1,-2,-3
1532406353878,-1,-1,-1,-1,0,1,0,-2
1532406353883,-1,-1,0,-1,-2,-2,-1,0
1532406353888,0,-2,-2,0,-1,-2,0,-1
1532406353893,-2,-1,0,-3,-1,-1,0,-1
1532406353898,1,-3,0,0,-2,1,0,-1
1532406353903,-2,-1,-2,-1,-1,0,0,0
1532406353908,0,-1,-1,0,-1,-1,-1,-1
1532406353913,0,-2,0,-1,-1,-2,-1,-3
1532406353918,-1,-1,-2,-1,0,-1,-1,-1
1532406353923,0,0,1,1,0,0,1,0
1532406353928,-1,0,-2,0,-1,0,-1,-1
1532406353933,-2,0,0,-2,-1,0,-3,-1
1532406353938,1,-1,-1,1,-2,0,0,0
1532406353943,-2,0,0,0,0,-2,-2,-2
1532406353948,-2,-1,-1,1,0,-2,-3,-2
1532406353953,0,0,-3,-1,-1,-2,-4,-2
1532406353958,-1,-1,-1,0,1,-1,-2,-3
1532406353963,0,0,-1,0,-1,-1,-2,-3
1532406353968,0,0,0,-1,0,-2,-1,-1
1532406353973,-1,-1,0,1,-1,0,0,-2
1532406353978,-1,-1,-2,-3,-1,-3,1,-2
1532406353983,0,0,-1,0,0,1,0,2
1532406353988,0,-2,1,-1,-1,0,-1,0
1532406353993,-1,-1,0,-2,-1,0,0,0
1532406353998,0,-1,0,0,-2,0,-1,-1
1532406354003,0,-1,0,-1,0,-1,0,-1
1532406354008,-1,0,-2,-1,-1,0,1,-2
1532406354013,1,-1,-1,-1,-1,-3,1,0
1532406354018,-1,-1,-1,-1,-2,0,-1,-3
1532406354023,-1,-2,0,-1,-3,-2,0,-1
1532406354028,0,-1,-1,-1,-1,0,0,-2
1532406354033,0,-1,-2,-1,1,-2,0,-1
1532406354038,-3,0,-2,0,2,-1,0,1
1532406354043,-1,-1,0,-2,0,-1,0,-2
1532406354048,0,0,-2,-2,-1,-2,-4,-2
1532406354053,-3,-2,-1,-1,1,-1,0,-1
1532406354058,0,0,1,0,-1,0,0,3
1532406354063,-2,1,-1,-1,-1,-2,-3,0
1532406354068,-1,0,-1,-1,-1,0,-1,0
1532406354073,-1,0,-2,0,-2,-1,-2,-1
1532406354078,-1,0,-3,-2,-1,1,-1,-1
1532406354083,0,-2,-1,0,-1,-1,-2,-1
1532406354088,0,-1,0,-2,-1,0,0,-1
1532406354093,-1,-2,1,0,0,-1,-1,2
1532406354098,-1,0,0,-1,-1,-2,-1,-1
1532406354103,0,-2,0,-1,0,0,-2,-2
1532406354108,-1,-1,-1,0,-1,-2,-2,-2
1532406354113,-1,0,-1,0,-1,-1,-2,-1
1532406354118,0,0,0,-1,-1,0,-1,0
1532406354123,0,-1,-1,-2,-3,-1,1,-1
1532406354128,0,-2,-1,-1,-1,-1,-1,1
1532406354133,0,-1,0,-3,0,0,-1,-1
1532406354138,-1,-1,-4,-1,1,-1,-1,1
1532406354143,0,0,0,0,0,-1,0,-2
1532406354148,-2,-2,-2,-1,0,0,-3,-4
1532406354153,0,1,-1,0,-1,-1,0,1
1532406354158,-1,0,-1,-1,-2,-1,-2,-2
1532406354163,-1,-1,-2,0,0,1,-1,2
1532406354168,0,-1,-1,-1,-1,-1,0,1
1532406354173,-2,0,-1,-2,0,0,-2,-2
1532406354178,0,-1,-1,0,-2,-1,-2,-1
1532406354183,1,-1,-2,-1,-1,-1,0,-2
1532406354188,-1,-1,0,-1,1,0,0,0
1532406354193,0,0,0,0,0,-2,-2,0
1532406354198,-2,-3,0,0,-1,-1,-2,-2
1532406354203,-2,-3,-2,-2,0,-1,-1,1
1532406354208,0,0,-1,-1,1,-1,-2,-3
1532406354213,0,0,-1,-2,0,-2,-1,-1
1532406354218,-2,0,0,-1,1,0,0,0
1532406354223,0,0,0,0,-1,-1,-3,-3
1532406354228,-1,0,-1,0,-1,-1,-2,0
1532406354233,-1,-4,-1,1,-2,0,0,1
1532406354238,0,-1,0,0,0,0,0,-1
1532406354243,-2,-1,-1,-1,-1,0,-3,-4
1532406354248,0,0,0,-1,-1,0,-2,-1
1532406354253,-1,-2,-1,0,-1,-2,-1,-3
1532406354258,0,0,-1,0,-3,-2,-1,-2
1532406354263,-1,-1,0,-2,-1,-1,-1,-4
1532406354268,-2,1,0,-2,-2,-1,0,0
1532406354273,0,-1,-1,-1,-1,-2,-1,0
1532406354278,1,-1,-2,-1,1,0,-1,0
1532406354283,-1,0,-1,1,-2,-1,-1,-2
1532406354288,-1,-3,-2,-1,-1,-2,-2,-1
1532406354293,-1,-1,0,0,-1,0,-1,-2
1532406354298,-1,-1,-1,-2,1,-1,-1,0
1532406354303,0,0,1,-1,1,1,0,2
1532406354308,0,-2,-2,-2,1,-1,-1,-2
1532406354313,0,-2,-2,-2,1,-1,0,-2
1532406354318,-1,-2,-2,-2,-2,-1,-3,-2
1532406354323,-2,-1,-2,-2,-1,-1,1,0
1532406354328,0,-1,0,-1,-2,-2,0,0
1532406354333,0,-1,-1,-1,-1,-1,-1,0
1532406354338,0,-3,-1,-1,-2,-1,-1,-4
1532406354343,-2,0,-2,0,0,0,-2,-1
1532406354348,-1,0,-1,0,-2,1,-1,-1
1532406354353,-1,0,-1,1,-1,-1,0,-1
1532406354358,0,0,-1,-1,-1,-1,0,0
1532406354363,-2,-2,0,0,-1,-2,-1,-1
1532406354368,1,0,-1,1,0,-2,0,0
1532406354373,-1,-1,-1,-2,-1,-3,-4,1
1532406354378,-1,1,-1,0,-1,-1,-2,-1
1532406354383,0,0,-1,1,-1,-1,0,0
1532406354388,-2,-1,-1,-2,-1,-1,0,-3
1532406354393,-1,0,-1,0,-2,0,2,-2
1532406354398,-2,-1,0,1,-2,-1,-2,-3
1532406354403,0,-1,-3,-2,0,0,-2,-1
1532406354408,0,1,1,-2,-2,-1,-1,-1
1532406354413,0,-1,0,-2,-3,-1,0,0
1532406354418,-1,-1,-1,-3,-2,-2,-1,-1
1532406354423,-2,-2,-1,-2,-1,-1,-1,-1
1532406354428,-3,-2,0,-1,0,-2,0,0
1532406354433,0,0,-1,-1,0,-1,-1,-3
1532406354438,-2,-1,-1,-1,0,0,0,0
1532406354443,0,-2,1,-3,-3,-2,-2,-1
1532406354448,0,0,-1,0,-1,-3,-2,-2
1532406354453,-2,0,0,-1,-1,0,-1,0
1532406354458,-1,-1,0,0,1,-1,-1,1
1532406354463,0,0,1,0,0,-1,-1,-2
1532406354468,-2,-1,-1,0,1,0,-2,-2
1532406354473,0,-1,0,-2,-1,0,-1,-1
1532406354478,0,0,0,0,0,-1,-2,-2
1532406354483,-1,-2,0,0,0,-3,-2,1
1532406354488,-1,-2,-1,0,-1,0,0,-1
1532406354493,-1,0,0,-1,1,0,0,-3
1532406354498,-1,-1,0,-2,0,-1,-1,-3
1532406354503,1,-1,0,-1,-1,-2,1,-1
1532406354508,0,0,-1,-3,-2,-1,-4,-3
1532406354513,-1,-3,0,0,0,-1,-2,-2
1532406354518,-1,0,0,0,-3,1,-1,1
1532406354523,-1,1,-1,2,1,2,0,1
1532406354528,0,-2,-1,0,0,-1,0,2
1532406354533,-1,-2,-1,-3,-1,-1,-3,-2
1532406354538,-1,-1,-2,-2,-1,-2,-1,-2
1532406354543,-2,-2,0,-1,-2,-1,-3,-2
1532406354548,0,0,-1,-2,0,0,1,0
1532406354553,0,-1,-1,0,-3,-1,-2,0
1532406354558,-1,-2,-1,0,-1,-1,-1,0
1532406354563,0,-1,-2,-3,-1,-2,-1,-2
1532406354568,0,-1,0,-1,-1,-2,-2,-2
1532406354573,-1,-1,-1,-1,0,-1,-2,-1
1532406354578,1,2,-1,-1,-1,0,-2,1
1532406354583,0,0,0,-1,-2,0,0,-2
1532406354588,0,1,-1,0,0,2,0,-2
1532406354593,-2,0,-1,0,-2,-2,3,1
1532406354598,0,-1,0,0,-2,-1,-1,-2
1532406354603,-2,-2,-1,-1,0,-1,-1,-3
1532406354608,-1,-1,0,-1,1,1,-1,-2
1532406354613,-1,0,0,-1,-1,-1,-1,-5
1532406354618,-1,0,-2,-1,1,0,0,-1
1532406354623,-1,-1,-2,0,-2,-1,0,1
1532406354628,0,0,0,-2,0,1,-3,-1
1532406354633,0,-1,-1,1,0,0,-2,0
1532406354638,-2,-1,0,-2,-1,-1,-1,-2
1532406354643,0,1,-1,0,1,0,-4,0
1532406354648,-1,-2,-1,0,-2,-1,-1,-2
1532406354653,0,0,-1,1,0,0,-1,-2
1532406354658,0,-3,-1,-1,1,-1,1,-2
1532406354663,-1,1,0,-1,-2,-2,0,-1
1532406354668,0,2,0,0,-1,-1,1,1
1532406354673,0,1,-1,-1,-1,-2,0,0
1532406354678,0,-1,-1,-1,0,0,-1,-2
1532406354683,-1,-2,-1,-1,1,-2,0,2
1532406354688,-1,1,0,-2,0,-2,-3,-2
1532406354693,-1,0,-1,-1,-2,-1,0,-4
1532406354698,0,0,1,0,0,-1,-2,0
1532406354703,-1,0,-2,-1,-1,1,-2,-1
1532406354708,0,-2,0,0,-3,-1,0,-2
1532406354713,0,0,-1,-1,0,0,0,1
1532406354718,-1,1,-1,0,0,0,-1,-1
1532406354723,-1,-1,-1,-1,-1,-1,-2,-3
1532406354728,-1,-1,-1,-1,0,0,-1,0
1532406354733,-1,-1,-2,0,0,-1,-2,-3
1532406354738,-1,-1,0,0,-1,0,-2,-1
1532406354743,0,-1,-1,-2,-1,-1,-1,0
1532406354748,0,0,-1,-1,-1,-2,0,0
1532406354753,-1,-1,-1,-2,1,-1,-2,-2
1532406354758,-2,-2,-1,0,0,0,0,0
1532406354763,-1,-1,0,-2,-1,0,-1,3
1532406354768,1,-1,-2,-2,-1,-2,-2,-3
1532406354773,0,0,1,-1,0,-1,-1,-2
1532406354778,0,-1,0,0,-3,-2,-2,-4
1532406354783,0,-1,0,-1,-3,-1,-1,-2
1532406354788,-1,-1,-1,0,1,-1,-2,-1
1532406354793,0,-2,-1,-1,-1,1,-1,-1
1532406354798,-2,-1,-2,0,-1,-1,-1,-2
1532406354803,0,-2,-1,-1,-2,-1,-1,1
1532406354808,-1,-4,1,-1,-3,-1,2,2
1532406354813,-1,-1,-3,-2,0,-1,-3,-3
1532406354818,-1,-1,1,0,1,1,-3,-4
1532406354823,-1,-1,0,-1,-1,-2,-3,1
1532406354828,0,-1,-1,-1,-1,0,-1,-1
1532406354833,-1,0,0,0,-1,-1,0,-2
1532406354838,0,-2,-1,-1,-2,-1,0,-1
1532406354843,0,-1,0,-2,-1,-1,0,-1
1532406354848,-1,0,-2,-1,-1,0,-2,-1
1532406354853,-1,-2,0,-1,-1,0,-1,1
1532406354858,-1,-1,-2,1,0,-1,-3,1
1532406354863,-2,-2,1,-1,0,1,-2,0
1532406354868,1,-1,1,-1,1,-1,-2,1
1532406354873,-1,-1,-1,-1,0,-1,0,-1
1532406354878,-1,-1,-1,-2,-1,0,0,-1
1532406354883,-1,1,-1,-1,-1,-1,-1,-2
1532406354888,-3,0,0,-2,-1,-1,-1,-1
1532406354893,-1,-1,2,0,-1,0,-2,-2
1532406354898,1,-2,-1,-2,-1,1,1,1
1532406354903,-1,-1,-3,0,-1,0,-1,-3
1532406354908,-1,-2,-2,0,0,0,-3,-4
1532406354913,-1,0,-1,0,0,-2,-1,-2
1532406354918,0,0,1,-1,0,-1,-3,-2
1532406354923,0,0,-2,0,0,-1,-2,0
1532406354928,0,0,-2,-1,-2,-1,2,-1
1532406354933,-1,-2,-2,0,-2,-2,-2,0
1532406354938,0,0,-1,-2,0,1,-1,1
1532406354943,-1,-1,0,1,0,1,1,1
1532406354948,0,0,0,-1,-1,0,-3,1
1532406354953,0,-1,0,0,-1,-2,-1,0
1532406354958,-2,-1,-1,-1,-2,-1,-3,-2
1532406354963,0,-1,-1,-2,0,-1,0,0
1532406354968,0,0,-2,-1,-1,-2,-1,-5
1532406354973,-2,-1,-2,-2,-1,2,-1,-2
1532406354978,0,0,-3,0,0,-1,-1,1
1532406354983,-1,0,0,-2,0,1,-1,0
1532406354988,1,-1,0,-1,0,0,1,2
1532406354993,-1,0,-3,-2,0,-2,-1,1
1532406354998,-1,-2,-1,1,-1,-1,1,-1
1532406355003,-2,-1,-2,-1,-1,-2,-3,-3
1532406355008,0,-1,0,1,-2,-1,-2,-2
1532406355013,1,0,0,0,-2,-1,-1,-1
1532406355018,-1,-2,-1,0,0,-2,-2,0
1532406355023,-1,-1,-1,0,-1,-2,-1,-1
1532406355028,0,-2,-1,0,-2,-1,-1,-1
1532406355033,-1,0,-1,-2,0,0,-1,-2
1532406355038,-1,0,-1,0,-1,-2,-3,-3
1532406355043,1,-1,1,0,-2,-1,-1,-3
1532406355048,-2,-1,-1,0,-4,-2,-2,1
1532406355053,-1,-2,0,-1,-2,-1,-1,0
1532406355058,-1,-2,1,-1,-2,0,-2,1
1532406355063,-1,-1,-1,-2,-2,-1,-1,-2
1532406355068,-1,-2,-2,0,0,-1,-1,0
1532406355073,1,-2,-1,0,-2,-3,-2,-1
1532406355078,0,0,0,-3,0,-1,-2,-2
1532406355083,0,-1,0,1,0,-3,-2,-2
1532406355088,0,-1,-1,1,0,1,-1,-2
1532406355093,-2,0,-3,-1,0,0,-1,2
1532406355098,-2,0,0,0,-1,1,-2,-4
1532406355103,0,0,-1,0,-1,-1,-1,-2
1532406355108,0,-1,0,-1,-1,-1,-1,-2
1532406355113,-1,-2,-1,-1,-1,-2,-1,-1
1532406355118,-1,1,-1,-3,-1,-2,-1,1
1532406355123,-1,-2,-1,0,-1,1,-1,0
1532406355128,0,0,-2,0,-1,-1,1,-2
1532406355133,-1,-1,0,0,-1,-2,1,-2
1532406355138,-1,-1,-2,-1,0,-1,0,-1
1532406355143,-2,-1,1,-1,0,-1,-2,-2
1532406355148,-2,-1,-2,-2,-2,-1,-1,-1
1532406355153,1,-1,-2,0,0,-2,-4,0
1532406355158,0,-1,-1,-1,-1,-1,1,1
1532406355163,0,-1,-1,-3,-1,-1,0,1
1532406355168,-1,-2,1,-2,-1,-1,-2,-2
1532406355173,0,0,-1,-1,-2,-2,0,-2
1532406355178,1,-3,-1,-1,-1,-1,-1,-2
1532406355183,-1,-1,-1,0,-2,0,-1,0
1532406355188,-2,1,0,0,0,0,-1,-2
1532406355193,-2,-1,0,-2,-2,1,1,-3
1532406355198,-3,-2,0,-1,-1,-2,-4,-3
1532406355203,-2,0,-2,-2,0,1,0,-2
1532406355208,0,-1,0,-1,0,-1,-2,-3
1532406355213,-1,0,-1,-1,0,0,-1,-2
1532406355218,0,0,-1,0,0,1,-1,0
1532406355223,0,0,-1,0,0,-1,0,2
1532406355228,0,-1,-2,0,-2,-1,0,1
1532406355233,1,-3,-2,0,-1,-1,-1,-1
1532406355238,-1,-2,-1,0,-2,-2,-1,-2
1532406355243,-2,-1,-1,-2,-2,0,-3,-3
1532406355248,-1,0,0,-2,0,-1,0,-2
1532406355253,-1,-2,-1,0,0,-2,-1,-2
1532406355258,0,0,-1,0,-2,-1,1,-3
1532406355263,0,-1,-1,1,1,-2,-2,-2
1532406355268,-2,-1,-2,1,-3,0,-2,0
1532406355273,-2,-1,0,0,0,1,-2,1
1532406355278,-2,0,-1,-1,0,-1,-3,-2
1532406355283,-1,-2,-1,0,-1,-1,-1,-3
1532406355288,0,-2,-2,-2,-2,-1,-2,-1
1532406355293,1,-1,-1,0,0,-2,-1,1
1532406355298,0,0,-1,-1,-1,-1,0,0
1532406355303,0,-1,-2,-1,-2,-2,-2,0
1532406355308,-2,-1,0,-1,0,-1,-2,-2
1532406355313,-1,0,-2,-1,-2,0,-1,0
1532406355318,0,-1,-1,0,-2,0,-1,-1
1532406355323,-1,0,-2,-2,-2,-1,-2,-1
1532406355328,1,0,0,-1,-1,-1,0,1
1532406355333,1,-1,-1,0,-1,-1,-1,-2
1532406355338,-1,-1,0,-1,0,-1,-2,-2
1532406355343,-1,-2,0,0,-1,-1,0,-2
1532406355348,-1,0,-1,-1,0,0,-1,-1
1532406355353,0,-1,0,0,-1,-1,-2,0
1532406355358,1,-2,-1,-1,0,-1,1,2
1532406355363,1,-2,2,0,1,0,0,1
1532406355368,1,-1,-1,-1,-2,-1,-2,-2
1532406355373,0,-1,0,-2,0,-1,-1,-1
1532406355378,1,-1,0,-1,-1,1,-3,1
1532406355383,-1,-1,2,-2,-2,-1,-1,-2
1532406355388,-2,-2,-2,0,-2,-1,-1,2
1532406355393,0,-2,0,0,-2,0,-3,0
1532406355398,-1,-1,1,-1,-1,-1,-2,-1
1532406355403,-1,2,-2,-2,0,-2,0,-1
1532406355408,0,-1,-2,-1,-1,-2,-3,-1
1532406355413,0,0,0,-1,0,-2,-2,-2
1532406355418,0,-1,-1,0,0,1,-1,-1
1532406355423,-2,-1,-2,-1,-3,-2,-1,-1
1532406355428,0,-1,-1,-1,1,0,-1,-3
1532406355433,-1,0,-1,1,-1,-1,-1,0
1532406355438,0,-2,-2,0,0,-1,-2,-2
1532406355443,-1,-1,0,-1,0,-2,-1,-2
1532406355448,-1,-2,-1,0,-2,-1,0,-2
1532406355453,-1,-1,-1,-3,-1,1,-1,-2
1532406355458,-1,0,-2,-2,0,-1,-1,-6
1532406355463,0,-1,0,0,-2,1,-2,0
1532406355468,0,-1,0,0,1,0,-2,-1
1532406355473,-1,0,-2,0,1,0,-1,-1
1532406355478,-2,0,-1,-2,-2,-3,0,1
1532406355483,1,-1,-2,0,0,1,-2,0
1532406355488,-2,-1,2,0,-2,-3,0,0
1532406355493,0,-2,-2,-3,-1,0,-1,0
1532406355498,-1,0,0,-2,0,-1,-1,0
1532406355503,-1,-1,-2,-1,0,-2,-1,-3
1532406355508,1,0,-2,-1,-1,-1,-2,-1
1532406355513,-2,-1,0,0,-1,-2,-3,0
1532406355518,0,-1,0,0,-2,-2,-2,-2
1532406355523,-1,-1,-3,0,-1,0,-3,0
1532406355528,-2,-3,0,0,-2,1,1,-2
1532406355533,0,0,0,0,-1,-2,1,-3
1532406355538,0,-1,-2,0,-1,-1,-1,1
1532406355543,0,0,0,0,0,0,-1,2
1532406355548,-2,0,-1,-1,0,-2,-1,0
1532406355553,-1,-1,-2,-1,-1,0,-1,-3
1532406355558,0,0,-1,1,-1,0,-1,-2
1532406355563,-1,-1,-1,0,-1,-3,-1,-4
1532406355568,0,0,-1,0,0,0,-1,1
1532406355573,-2,-1,-1,0,-2,-1,-2,0
1532406355578,-2,0,0,0,-2,0,-1,-2
1532406355583,-1,-1,0,-1,-1,0,2,1
1532406355588,0,-1,-1,-1,2,0,-1,-1
1532406355593,-1,-2,1,-2,0,-2,-1,-2
1532406355598,-2,-1,-1,-2,0,0,0,-2
1532406355603,-1,1,0,-1,-1,-2,-3,-2
1532406355608,0,0,-1,-2,-2,-1,1,1
1532406355613,-1,0,-2,0,-2,1,-2,0
1532406355618,1,-1,0,0,0,-1,-1,1
1532406355623,-1,-2,-1,0,-2,0,0,-3
1532406355628,0,0,-2,-1,0,-1,-1,1
1532406355633,0,-1,-1,-1,-1,1,-2,0
1532406355638,-1,0,-2,-2,-1,-1,-2,0
1532406355643,-2,0,0,-1,-1,1,-2,-1
1532406355648,0,-1,0,1,-2,0,-2,-3
1532406355653,0,0,-2,-1,-1,-1,1,-3
1532406355658,-1,-2,1,-1,1,0,0,-1
1532406355663,-1,-1,-2,0,0,-1,-2,-1
1532406355668,-1,-2,-1,-1,0,-1,-2,-4
1532406355673,-2,0,0,0,-2,0,1,-1
1532406355678,-2,-1,-2,-1,-1,0,0,-3
1532406355683,-1,0,0,-1,-1,-2,-1,-2
1532406355688,-3,-1,0,-1,-3,-1,-1,1
1532406355693,0,-1,-1,0,1,0,-2,1
1532406355698,-1,-1,-2,1,0,-1,-1,0
1532406355703,1,-1,0,-1,-1,1,0,-1
1532406355708,-1,0,-1,0,-2,-1,-1,-4
1532406355713,1,-1,0,-3,-1,-1,0,0
1532406355718,-1,-1,-2,0,0,-2,0,-2
1532406355723,-1,-2,-1,0,0,-2,-1,-1
1532406355728,1,0,-1,-1,1,0,0,-1
1532406355733,-1,-2,-1,-1,-1,-1,0,-2
1532406355738,0,-2,-1,-1,-2,0,-2,-2
1532406355743,1,-2,-1,-2,1,0,2,1
1532406355748,-1,-1,-1,-2,-2,-2,-3,1
1532406355753,-1,-2,-1,-1,-2,0,-1,-3
1532406355758,-1,-1,-2,0,-3,-1,-3,-3
1532406355763,-2,0,1,-1,1,0,-1,0
1532406355768,0,-1,-1,1,0,-1,0,0
1532406355773,-1,-2,-2,-1,-3,-3,-1,-1
1532406355778,-1,0,0,-2,-1,-1,-1,0
1532406355783,0,0,0,-2,-2,0,-1,-2
1532406355788,-1,1,-1,-2,-2,-1,-2,-2
1532406355793,0,0,-1,-1,0,-1,-2,-2
1532406355798,0,-1,0,0,-2,0,-1,-1
1532406355803,0,0,-2,1,0,-1,0,0
1532406355808,0,-1,-1,-2,1,-1,0,1
1532406355813,0,-1,-1,0,-1,-1,-2,1
1532406355818,0,1,1,0,0,1,-1,0
1532406355823,-1,-1,-2,-3,0,-2,-3,-2
1532406355828,1,0,-1,0,0,0,0,-1
1532406355833,-1,-1,-1,0,-1,0,-1,0
1532406355838,-1,-2,1,-2,1,-2,1,-2
1532406355843,-1,-1,0,1,0,-2,-1,-1
1532406355848,1,-2,0,1,-1,-1,-2,-3
1532406355853,-2,0,-1,-1,-1,-1,-2,-1
1532406355858,-1,0,1,-1,-1,0,-1,-2
1532406355863,0,-2,-2,0,-1,-1,-1,-2
1532406355868,0,-1,-2,0,0,0,-1,-2
1532406355873,1,0,0,-1,-2,-1,-1,-2
1532406355878,-1,-2,-1,-1,-1,-1,0,-2
1532406355883,-3,-3,-1,-2,-2,0,-1,-2
1532406355888,0,-3,-2,-1,1,-1,-2,1
1532406355893,-1,1,0,0,0,-1,-2,-2
1532406355898,-1,-1,-2,0,0,1,-1,-1
1532406355903,0,0,0,-1,-1,-1,0,-3
1532406355908,-1,-1,1,-2,-2,-2,-1,-1
1532406355913,0,-2,-1,-1,1,-1,-1,0
1532406355918,1,-1,0,-2,0,-1,0,1
1532406355923,0,1,-2,0,0,-1,-1,-1
1532406355928,-2,1,-1,-2,-1,0,0,0
1532406355933,-1,-2,0,-1,1,0,-2,-3
1532406355938,1,1,-1,0,-1,-1,-2,0
1532406355943,-1,-2,-1,-1,0,-3,-2,0
1532406355948,0,0,0,0,-1,1,-3,-1
1532406355953,-2,-1,0,-1,-2,-2,-2,-2
1532406355958,-2,-1,0,0,-1,1,-1,-5
1532406355963,1,0,-1,0,-1,0,0,-1
1532406355968,-1,-1,-1,-1,-1,-2,1,-2
1532406355973,0,0,-2,-2,-1,-1,-1,2
1532406355978,-1,-1,0,-1,-1,-2,-2,3
1532406355983,-1,-1,1,-2,-2,-2,-2,1
1532406355988,-3,0,-1,-2,2,1,0,-1
1532406355993,1,0,0,0,0,1,-1,-2
1532406355998,-1,-2,-1,-1,-1,0,-1,-2
1532406356003,-1,-1,0,2,1,-1,-1,-1
1532406356008,-1,-2,-1,-1,-1,0,-1,-1
1532406356013,-1,1,0,0,-2,0,2,1
1532406356018,-1,0,-2,-2,-3,-1,-1,1
1532406356023,-2,0,0,0,1,-1,-2,-1
1532406356028,-1,-2,1,0,0,0,0,0
1532406356033,-1,-1,1,-1,-1,-2,0,-1
1532406356038,-1,-1,-2,-2,-2,0,-1,-1
1532406356043,-1,-1,-2,0,0,0,-1,-2
1532406356048,0,-2,-1,-1,-4,-2,-1,-2
1532406356053,-2,-1,-1,0,-1,1,1,0
1532406356058,0,-1,0,-1,1,-3,-1,-1
1532406356063,-1,-2,0,-2,-2,-1,0,-1
1532406356068,-2,-2,-1,-3,-1,-1,-2,-1
1532406356073,0,-1,-1,-1,0,0,0,-2
1532406356078,-1,-1,1,0,1,-1,-1,-1
1532406356083,-2,-1,-3,0,-1,1,-2,-2
1532406356088,0,-1,-2,1,0,0,-1,-3
1532406356093,-1,-1,0,-2,-1,-1,0,-1
1532406356098,-1,-1,-1,-1,1,-1,0,-1
1532406356103,0,0,-1,-2,0,0,-1,0
1532406356108,-2,1,1,-1,0,-1,-2,0
1532406356113,-1,-1,0,0,0,0,-1,-2
1532406356118,-1,-1,0,-2,0,-1,-1,-1
1532406356123,0,-2,-2,-1,-1,0,2,-1
1532406356128,-2,0,0,0,0,0,-2,-1
1532406356133,1,-1,-1,0,-1,-1,-3,-1
1532406356138,-2,-1,-1,-1,-1,1,-1,-1
1532406356143,-2,0,-1,-1,-3,-1,-2,-1
1532406356148,1,-1,-1,-1,-1,-2,0,0
1532406356153,0,-2,-1,-1,-1,-2,0,-2
1532406356158,-2,-1,-2,-1,-1,-2,0,-3
1532406356163,-1,0,0,-1,-1,-1,-1,-1
1532406356168,-1,-1,-1,-1,-4,-1,0,-1
1532406356173,1,-2,0,-1,0,0,-2,0
1532406356178,-1,-2,0,0,-1,0,-2,0
1532406356183,0,-1,0,-2,1,0,-1,0
1532406356188,-1,-1,0,0,0,-3,-1,-1
1532406356193,-1,-2,0,-1,-2,-1,-2,-1
1532406356198,0,0,0,-1,-1,0,1,-1
1532406356203,1,-1,1,1,-1,0,0,-3
1532406356208,0,0,-1,-1,0,1,-1,-3
1532406356213,-2,-2,-1,0,0,-2,-1,-1
1532406356218,-1,-1,-2,-1,0,-2,-2,0
1532406356223,0,-2,-1,-2,0,-2,-1,0
1532406356228,-2,0,-1,0,-3,-1,0,1
1532406356233,-2,0,-1,1,0,1,-1,0
1532406356238,0,-1,-1,-1,-3,0,-2,-2
1532406356243,0,-2,-2,-1,1,0,-2,-4
1532406356248,-1,-3,-1,-1,0,0,-2,-3
1532406356253,-1,-1,-2,-1,0,-1,-2,-1
1532406356258,-2,-1,0,1,1,-3,0,0
1532406356263,-1,0,0,-1,-2,-1,-3,-1
1532406356268,-1,-1,1,-1,0,-1,-1,1
1532406356273,-1,-1,-1,-1,-1,-2,-1,-2
1532406356278,2,-1,-1,-2,-1,1,-2,0
1532406356283,-1,0,-1,-1,-2,-2,-3,0
1532406356288,0,-3,-1,0,0,0,-1,0
1532406356293,0,1,-1,0,-1,-1,-1,-3
1532406356298,-1,0,-2,-2,-1,-2,0,-2
1532406356303,0,0,-1,-1,-1,-1,1,0
1532406356308,0,-1,-1,0,0,-2,-2,-1
1532406356313,1,-1,-1,-1,-1,-1,-1,-1
1532406356318,-1,0,-1,0,1,-2,0,-2
1532406356323,-1,0,0,-1,-1,2,1,-1
1532406356328,-2,0,0,0,-1,0,0,2
1532406356333,0,-2,-2,-2,-1,-1,-1,1
1532406356338,-1,0,-2,1,-2,1,-3,-2
1532406356343,0,0,0,0,1,-3,-2,-1
1532406356348,-1,-1,0,-2,-1,1,0,0
1532406356353,0,2,-1,0,-3,-2,-1,-1
1532406356358,-1,-1,-2,-1,-1,0,1,-2
1532406356363,-1,0,-1,0,-1,0,0,-1
1532406356368,-2,-2,-1,-1,0,0,-3,-3
1532406356373,-2,0,0,-1,-2,-2,-2,0
1532406356378,0,1,0,0,0,0,-1,0
1532406356383,0,-1,0,0,-2,-2,-1,1
1532406356388,-1,-1,-2,-1,-1,0,-1,-2
1532406356393,-2,-1,-3,-1,1,-2,-1,-1
1532406356398,-1,-2,0,0,-1,-2,-4,-2
1532406356403,0,-2,-1,-2,0,-1,-2,-2
1532406356408,1,0,0,0,-1,-1,-2,-1
1532406356413,-2,-1,1,-2,-3,0,-1,-1
1532406356418,0,-1,0,0,0,0,0,0
1532406356423,-1,-1,-1,-2,0,-1,-2,-1
1532406356428,-1,0,-2,-1,-2,-3,-1,-2
1532406356433,0,-1,1,0,0,0,-2,-2
1532406356438,0,-2,-1,-1,-2,-1,0,1
1532406356443,-1,-2,1,0,-1,-1,-2,-1
1532406356448,0,0,-1,-1,2,-1,0,-2
1532406356453,-1,0,-1,1,-1,-1,0,-2
1532406356458,-2,0,-1,-2,-1,-2,-3,0
1532406356463,-1,-1,-1,-1,-1,-1,1,0
1532406356468,0,0,0,0,-1,3,-2,-1
1532406356473,0,-1,-2,-2,0,-1,-2,0
1532406356478,-1,-2,-1,-1,-2,-2,-1,-2
1532406356483,1,-1,-1,-1,-1,0,0,-1
1532406356488,-2,0,1,-1,0,-1,-1,-2
1532406356493,-1,0,-1,-1,-2,-1,0,-1
1532406356498,-1,-1,-1,-1,0,1,-1,-2
1532406356503,-2,-1,-2,-1,-3,-2,-1,-2
1532406356508,2,-1,-3,1,-1,-2,0,-1
1532406356513,1,0,0,-1,0,-1,1,-1
1532406356518,-1,0,-2,-2,-3,-3,-1,-3
1532406356523,-1,0,-1,-2,0,1,-1,0
1532406356528,0,-2,0,0,0,-3,0,-2
1532406356533,0,-1,-1,-1,0,-1,-2,0
1532406356538,-1,-1,-1,-1,0,-1,-3,1
1532406356543,0,-2,-1,-2,1,1,-1,1
1532406356548,-1,-1,-1,-1,-2,-2,-2,-1
1532406356553,-2,0,0,0,0,-2,-1,-3
1532406356558,0,-2,-1,-1,-2,-2,0,-4
1532406356563,-1,-1,-2,-1,0,-1,-1,-1
1532406356568,-1,-1,0,-2,-2,0,-1,2
1532406356573,-2,-1,-1,-2,-1,-2,1,1
1532406356578,1,0,-1,-2,1,-1,-2,-1
1532406356583,-1,0,0,0,0,-2,-2,-2
1532406356588,-1,0,-1,-1,1,-1,-1,-1
1532406356593,-1,-2,-1,-2,-1,2,0,0
1532406356598,0,-2,0,0,-1,-1,0,0
1532406356603,-2,-1,-2,0,-3,-2,0,-1
1532406356608,-1,0,-1,0,-2,-2,-1,0
1532406356613,0,-1,-1,0,-1,-1,-1,-1
1532406356618,-1,0,-1,-1,-2,-1,0,-1
1532406356623,0,-1,0,0,1,-1,-3,-4
1532406356628,-2,0,-2,-1,-1,-1,-2,-2
1532406356633,0,-2,-1,1,0,-3,-1,-3
1532406356638,-1,-1,0,-1,-1,-1,-1,1
1532406356643,-1,-1,-1,1,-1,-2,-2,-1
1532406356648,-1,-2,1,-1,-1,-1,0,-4
1532406356653,0,1,-1,1,-1,0,0,0
1532406356658,-1,-1,-1,-3,0,0,-2,-1
1532406356663,-2,-1,-1,-1,-1,-1,2,-1
1532406356668,-2,0,-2,-1,-1,-1,-1,0
1532406356673,-1,-1,1,-2,-3,-1,-3,-2
1532406356678,-2,-1,-1,3,0,-1,-1,-1
1532406356683,0,-1,0,-1,-2,1,-2,1
1532406356688,1,-1,0,0,1,-2,-1,-1
1532406356693,0,2,-1,0,1,0,-1,0
1532406356698,-1,-1,-1,0,-1,0,0,-1
1532406356703,-2,-1,-1,-1,0,0,-2,-1
1532406356708,-1,-1,-1,-1,-1,0,2,-1
1532406356713,-1,-1,-1,-1,0,0,-3,-2
1532406356718,0,-1,0,-1,-2,-1,-5,-2
1532406356723,1,0,-1,-1,-2,-2,0,-1
1532406356728,0,-3,0,0,-2,-2,-1,-2
1532406356733,-1,-2,-2,-2,0,0,0,0
1532406356738,-1,-1,-1,0,0,1,0,-3
1532406356743,-1,0,0,0,-1,-1,0,-1
1532406356748,-1,-2,0,-2,0,1,-3,1
1532406356753,0,-1,0,0,0,-1,0,1
1532406356758,-2,-2,-1,1,-1,-1,-2,-1
1532406356763,-1,0,0,0,-1,-1,-1,-1
1532406356768,0,0,-2,-1,-3,0,-1,-1
1532406356773,-2,-1,0,-1,-2,-3,-2,-4
1532406356778,-2,-2,0,-1,0,-1,0,-3
1532406356783,-1,0,0,-2,2,-2,-1,-2
1532406356788,-1,-1,-2,-1,1,0,-1,1
1532406356793,-2,-2,-1,0,-3,0,-1,1
1532406356798,0,1,0,-3,-3,-1,0,1
1532406356803,-1,0,-2,0,0,0,-1,-2
1532406356808,0,0,0,0,0,-2,0,-1
1532406356813,1,1,-1,-2,0,-1,-3,-2
1532406356818,1,-1,0,-1,0,-1,-1,-2
1532406356823,0,0,-1,-1,-2,0,0,0
1532406356828,-1,0,-1,1,0,0,0,0
1532406356833,0,-2,-1,0,-3,0,1,-3
1532406356838,-1,0,-1,-1,1,-2,-2,-3
1532406356843,-1,-1,0,0,-2,1,-1,1
1532406356848,-1,0,0,-1,-2,-1,-1,0
1532406356853,-1,-2,0,-1,-1,-1,-1,0
1532406356858,0,-2,-2,-1,-1,-1,-2,-1
1532406356863,-1,-1,-1,1,0,0,-2,0
1532406356868,0,-1,0,0,0,-1,-1,-2
1532406356873,1,-1,-2,0,1,-2,-2,-4
1532406356878,0,-2,-2,-1,-2,-2,-1,0
1532406356883,0,-2,0,-1,0,-2,-3,-2
1532406356888,-1,-1,-1,-2,-2,-1,-1,-1
1532406356893,-1,-1,-1,-1,0,-2,-1,-1
1532406356898,-1,1,-1,0,-1,-1,0,0
1532406356903,-2,-2,-2,-2,0,-2,-1,-1
1532406356908,0,-1,0,-1,1,0,0,-3
1532406356913,-1,1,0,-2,-2,1,-3,-3
1532406356918,1,-1,0,-1,-2,0,-2,-1
1532406356923,-1,-1,0,-1,-2,0,0,1
1532406356928,0,-2,0,0,-1,0,0,0
1532406356933,-1,-1,0,-1,1,0,0,-3
1532406356938,-1,0,-1,-1,0,-2,-1,1
1532406356943,1,-1,1,-1,1,-1,-1,-2
1532406356948,-1,-2,-1,-1,-3,-2,-1,-1
1532406356953,-1,-1,-1,-1,-4,-2,-1,-1
1532406356958,0,1,1,0,-2,-1,1,1
1532406356963,0,-3,-1,-1,-2,0,0,-2
1532406356968,0,-1,-1,-1,-1,-2,-1,-2
1532406356973,-1,-1,-1,-1,-1,-2,-1,-1
1532406356978,-2,-1,-2,0,-1,0,0,-3
1532406356983,0,1,-2,-1,-2,-2,1,-1
1532406356988,-2,1,-1,-1,-1,-1,-3,-5
1532406356993,-1,-2,0,0,-1,0,-1,0
1532406356998,0,-1,-1,-1,0,0,0,-1
1532406357003,-3,-2,1,-1,0,0,-1,1
1532406357008,-1,-2,-2,-1,-1,-2,-1,-1
1532406357013,0,0,-2,-2,-1,-1,-2,-1
1532406357018,-1,0,-2,0,1,0,0,0
1532406357023,0,-3,0,-1,0,-1,-2,1
1532406357028,0,-2,-2,-1,1,1,-1,0
1532406357033,-3,0,-2,0,-1,-2,1,0
1532406357038,-1,-2,-1,-2,-3,-1,-2,0
1532406357043,1,0,-2,0,-3,-1,-2,-2
1532406357048,0,-1,-1,-2,-1,0,0,0
1532406357053,-1,-1,-1,1,-1,-1,-1,0
1532406357058,0,0,0,-1,1,0,-2,-1
1532406357063,-1,-1,-1,-1,-1,0,-2,-4
1532406357068,-2,-1,-3,-1,0,1,-1,-1
1532406357073,0,-1,-1,-1,1,0,1,-1
1532406357078,-2,-2,0,-2,-1,-1,-1,-1
1532406357083,-1,-1,0,-1,0,0,-1,-2
1532406357088,-1,-1,-1,0,-1,-2,-2,-2
1532406357093,1,0,0,-2,-1,-1,-2,0
1532406357098,-2,1,-2,-1,-1,-1,-2,-1
1532406357103,-1,-1,-2,-1,-3,-1,1,-1
1532406357108,-2,-1,-1,-1,-1,-1,0,1
1532406357113,-1,0,0,-1,-2,0,-2,0
1532406357118,0,-2,-2,0,-3,-2,-1,-3
1532406357123,-1,0,-1,-1,0,0,0,-1
1532406357128,0,0,-1,0,-2,1,-1,-1
1532406357133,-1,-2,0,0,2,-1,-1,-3
1532406357138,1,-1,0,-2,1,-2,-1,-1
1532406357143,-1,-1,-1,-2,0,-1,-3,-2
1532406357148,-1,0,-1,-1,0,-2,-1,1
1532406357153,-1,-1,0,-2,1,-2,-2,-1
1532406357158,-1,0,-1,-2,1,-1,-1,-1
1532406357163,-1,-1,-2,1,0,-2,0,-3
1532406357168,-1,0,2,0,-5,-1,-1,0
1532406357173,0,-2,-1,0,-1,0,0,-1
1532406357178,-2,-1,-1,-2,-1,-1,-1,0
1532406357183,0,-1,0,0,-1,-1,-1,-1
1532406357188,0,0,-1,-2,-1,-2,0,-4
1532406357193,0,-1,-1,-1,-1,-1,-1,-1
1532406357198,-1,-1,-1,-2,-1,-2,-1,-1
1532406357203,1,1,-2,-1,-1,-1,-2,-1
1532406357208,-2,-1,-1,-1,1,0,0,-2
1532406357213,0,-1,0,-1,-1,0,0,0
1532406357218,-1,-1,-1,0,-1,1,0,0
1532406357223,-2,-2,0,-1,0,-1,-2,-2
1532406357228,-1,-2,0,0,-1,-1,-1,0
1532406357233,0,0,0,-1,-1,0,-1,0
1532406357238,0,1,-1,-1,0,-1,-2,-1
1532406357243,0,0,0,0,-2,0,-1,-1
1532406357248,1,-1,0,-2,-2,-1,-2,-1
1532406357253,-1,1,-1,-2,-4,-2,-1,-2
1532406357258,0,-2,-1,1,-1,0,1,-1
1532406357263,-1,-1,-1,-1,0,0,-3,1
1532406357268,-1,0,-1,0,2,-1,-2,-1
1532406357273,-2,-1,-1,-1,-2,0,0,-1
1532406357278,0,1,0,-1,2,-1,-2,-2
1532406357283,-1,0,-2,0,0,-1,-2,-3
1532406357288,-1,-1,-2,-1,1,0,-1,-1
1532406357293,0,-2,-1,0,0,0,-1,-1
1532406357298,-1,-1,-2,-1,-1,-2,-1,-3
1532406357303,0,-1,0,-2,-2,-2,-1,0
1532406357308,1,-1,-1,-1,-2,-1,0,-3
1532406357313,0,0,-2,-1,-1,-1,0,0
1532406357318,-1,-1,0,-1,0,0,-1,0
1532406357323,0,-1,0,-1,-2,1,-1,-4
1532406357328,-2,1,-2,-1,-2,-2,-3,-1
1532406357333,-1,-1,0,-1,-2,-1,-2,-2
1532406357338,0,-2,0,0,-3,-1,-2,-1
1532406357343,-1,-1,-1,-2,-1,-2,1,0
1532406357348,0,0,0,-1,0,-1,-2,-3
1532406357353,-1,-2,-2,0,-1,-2,-1,-1
1532406357358,-1,-1,-1,1,-3,1,-1,1
1532406357363,-1,0,-1,0,-2,-1,0,1
1532406357368,0,-2,0,0,-2,-3,-2,1
1532406357373,-2,0,0,-1,0,-1,-1,0
1532406357378,0,-2,-1,-2,0,-1,-2,-3
1532406357383,-1,-1,-2,0,1,0,-1,-1
1532406357388,1,-1,0,1,0,0,0,-1
1532406357393,0,-1,-2,-1,-1,-2,-2,-1
1532406357398,-1,0,-1,1,0,-1,1,1
1532406357403,-1,1,-1,-2,2,0,0,-1
1532406357408,-3,-2,-3,-1,0,-1,-2,-3
1532406357413,-1,-1,-1,-1,3,-1,-2,-1
1532406357418,-1,-2,0,0,-2,-2,0,-1
1532406357423,0,-2,0,-2,-1,-1,-1,2
1532406357428,0,-1,0,0,-1,-1,1,-1
1532406357433,0,-2,0,-1,-3,0,0,-1
1532406357438,0,0,-2,-2,-2,0,-2,0
1532406357443,1,0,-2,-1,-4,0,-1,-3
1532406357448,-1,-1,-1,-2,-2,-1,-1,0
1532406357453,-1,-1,-1,0,-2,-2,-1,0
1532406357458,0,-2,0,-2,-1,0,0,-2
1532406357463,-1,0,-1,-2,-2,-1,-2,-1
1532406357468,-1,-2,-2,-1,0,0,-1,0
1532406357473,0,0,-1,0,-1,0,-2,-1
1532406357478,-1,-1,0,-1,-1,0,-1,-1
1532406357483,-1,-1,1,0,0,0,-1,1
1532406357488,0,0,-1,0,0,-2,-2,-1
1532406357493,0,0,0,0,-1,0,-2,0
1532406357498,-2,-1,0,-1,-2,-1,-2,-3
1532406357503,0,-2,-1,0,1,-1,0,-1
1532406357508,0,0,-2,0,0,-1,1,-1
1532406357513,-2,0,-2,-1,-1,-1,-2,-1
1532406357518,-2,-1,-2,-1,0,1,0,1
1532406357523,0,-1,-1,0,-1,-1,0,-2
1532406357528,0,0,0,-1,-1,-1,-2,-2
1532406357533,0,-1,-1,-1,-2,-2,-1,-3
1532406357538,1,1,-1,-1,1,-2,-1,0
1532406357543,0,-2,-1,-1,0,1,-3,1
1532406357548,-1,0,0,1,1,0,0,-2
1532406357553,-1,-1,-1,0,-1,0,-2,-3
1532406357558,0,0,-2,0,0,-3,-1,-3
1532406357563,-1,-2,0,-1,0,-2,0,0
1532406357568,0,0,0,-2,-3,0,-1,-2
1532406357573,-1,-1,0,-3,-1,-1,0,1
1532406357578,-1,-2,-2,0,-2,-2,-1,2
1532406357583,-2,0,-1,-2,-2,-2,-2,-1
1532406357588,-1,-2,-2,0,-1,-2,0,1
1532406357593,0,-2,0,-2,1,0,-2,-3
1532406357598,-1,-1,1,2,-1,-2,-2,-3
1532406357603,-1,-1,0,0,-1,-1,-1,-2
1532406357608,1,-2,-1,-1,-1,1,-2,-1
1532406357613,0,-1,-1,0,0,0,0,0
1532406357618,-1,-2,-1,-1,-1,0,-1,-3
1532406357623,-1,0,0,0,-1,-1,0,-1
1532406357628,-1,0,-1,-1,0,-1,0,1
1532406357633,-1,0,-1,-1,1,0,-2,-2
1532406357638,0,0,0,-1,2,-1,0,0
1532406357643,0,-2,-1,-1,-1,-1,-1,0
1532406357648,0,-2,-2,-1,-1,-1,-1,-1
1532406357653,-1,-1,-2,-1,0,0,-2,-1
1532406357658,0,0,-1,-2,0,0,-2,-4
1532406357663,-1,-2,0,-1,-3,1,-2,-4
1532406357668,0,1,0,0,0,-1,0,-1
1532406357673,1,-2,-2,-2,-1,0,-1,-1
1532406357678,-1,0,-1,1,-1,0,-2,-1
1532406357683,0,-1,-1,-1,-1,-1,0,0
1532406357688,-2,-1,-1,0,1,0,0,-1
1532406357693,0,-1,-1,0,0,0,-1,-2
1532406357698,0,-1,0,-1,-1,-2,0,-2
1532406357703,0,-1,-1,1,1,-1,-1,-1
1532406357708,-2,-2,-2,-1,-1,0,-2,-1
1532406357713,-1,1,0,-1,-3,-2,0,-1
1532406357718,-1,-2,-2,0,-1,1,-3,-1
1532406357723,0,-1,0,-1,-1,-2,-1,0
1532406357728,0,0,-2,0,-3,0,0,-2
1532406357733,-1,0,1,0,0,0,-1,-1
1532406357738,0,0,1,-1,0,-1,-2,-2
1532406357743,-3,0,-1,-1,0,-2,-2,-1
1532406357748,-1,-2,0,-1,-3,-3,-1,-2
1532406357753,-1,-1,1,-2,-3,1,-1,0
1532406357758,-1,0,-2,-2,-3,-2,-2,-2
1532406357763,-2,-2,0,-1,-1,0,1,0
1532406357768,0,1,1,-1,2,0,-2,-1
1532406357773,0,-1,-2,0,-2,0,-1,-1
1532406357778,-1,0,0,0,3,-1,0,-1
1532406357783,2,1,0,-1,0,0,-2,-1
1532406357788,0,-1,1,-1,0,-2,-1,-3
1532406357793,-1,-1,-2,-3,0,-1,-1,-2
1532406357798,-1,-1,-1,-1,0,-1,0,-1
1532406357803,-2,0,-2,-1,1,-1,-1,-1
1532406357808,0,-1,0,-1,0,-2,-1,0
1532406357813,0,0,-1,0,0,-1,-2,-1
1532406357818,0,0,-1,-1,-3,0,0,0
1532406357823,1,-1,-2,0,-2,0,0,2
1532406357828,1,-1,-2,-2,-2,-2,-3,-2
1532406357833,0,-1,-1,-1,1,-2,-1,1
1532406357838,-3,0,0,1,-2,0,-2,0
1532406357843,-1,0,0,0,0,-1,-1,-3
1532406357848,-1,-1,0,0,-1,0,0,0
1532406357853,-2,0,-1,-1,0,0,0,-2
1532406357858,0,0,-1,-1,-1,-1,-2,-1
1532406357863,-1,0,-2,0,-2,-2,-1,-1
1532406357868,0,-3,-3,-1,-2,-1,-1,-1
1532406357873,0,-2,0,-1,-2,-1,-2,-1
1532406357878,-1,-1,-2,-1,2,0,1,0
1532406357883,-1,-1,-1,-2,-2,0,-4,-1
1532406357888,0,1,0,0,-2,-1,-2,-1
1532406357893,-1,0,-2,-1,-1,-1,0,-1
1532406357898,0,-2,0,-2,-2,0,0,0
1532406357903,-1,-2,0,-1,0,-1,0,0
1532406357908,0,1,-1,0,-2,0,0,-1
1532406357913,1,-2,1,0,0,1,-1,0
1532406357918,-2,-1,0,0,1,-3,-1,-2
1532406357923,0,-1,0,-1,0,-1,-3,-2
1532406357928,-3,-2,1,-1,-1,0,-2,-2
1532406357933,-1,-1,-3,0,-1,0,-1,-2
1532406357938,-1,-2,0,0,2,0,0,-1
1532406357943,0,-1,0,-1,-1,-1,0,1
1532406357948,0,0,-1,-1,0,0,-1,0
1532406357953,-1,-2,-1,0,1,0,-2,0
1532406357958,-2,-1,-1,-1,-1,-1,-1,1
1532406357963,-1,-1,-1,0,-2,0,0,-1
1532406357968,-2,-1,-2,-2,-3,0,0,-1
1532406357973,-1,0,-1,-3,-1,0,0,-2
1532406357978,1,-3,-2,-1,-1,-1,-2,-1
1532406357983,-1,-2,-1,-1,0,-1,0,0
1532406357988,-1,1,0,0,1,-2,0,0
1532406357993,-2,-1,-1,-1,-1,0,-2,-2
1532406357998,-1,-1,-1,0,-1,-3,-2,-5
1532406358003,0,-1,-2,-1,0,-1,-1,-1
1532406358008,-2,-1,-1,-2,-3,-3,-2,0
1532406358013,-1,-1,-2,-1,-1,0,1,1
1532406358018,-1,0,-2,-1,-2,-2,-2,-1
1532406358023,0,0,-1,0,-1,0,-2,-1
1532406358028,-1,0,-1,-1,4,0,0,-2
1532406358033,-1,-1,0,-2,0,-2,-3,-4
1532406358038,0,-1,-3,-1,0,1,0,-2
1532406358043,-1,-1,1,0,-2,0,-1,-1
1532406358048,0,-2,-2,-1,-1,1,0,0
1532406358053,0,0,1,0,-7,-7,-3,0
1532406358058,1,-1,-2,-2,-1,2,0,0
1532406358063,-1,-1,-1,1,-2,-1,-1,-2
1532406358068,-1,0,-1,0,0,1,0,-1
1532406358073,0,-1,-2,-1,0,0,0,-1
1532406358078,0,1,0,-1,0,-3,0,-2
1532406358083,-1,-1,-1,-2,1,-4,-3,-5
1532406358088,-1,0,-2,-2,-2,0,-1,0
1532406358093,1,0,-1,1,-1,-2,0,0
1532406358098,-2,-1,-2,-1,-4,-3,-3,-1
1532406358103,-2,0,-2,-1,-2,0,-1,1
1532406358108,0,-2,0,0,2,0,-2,-1
1532406358113,-2,-1,0,0,2,2,0,-2
1532406358118,0,0,-1,-2,-1,0,-2,0
1532406358123,-1,-1,-1,1,2,2,-1,-2
1532406358128,1,0,-2,0,0,-2,-3,-1
1532406358133,1,-1,0,0,-2,-3,-3,-2
1532406358138,-2,-1,-1,-1,1,1,2,1
1532406358143,-1,1,-1,-3,-6,-3,-3,-1
1532406358148,-1,-1,0,1,2,2,-2,-1
1532406358153,-1,-1,0,-1,2,0,0,1
1532406358158,0,-1,0,0,1,-2,0,-1
1532406358163,-1,-1,0,0,1,0,-1,-1
1532406358168,-1,-2,0,-1,-4,-5,-3,-1
1532406358173,-2,1,-1,-1,-2,-2,-2,-1
1532406358178,-1,-1,1,1,4,2,-1,-2
1532406358183,-3,-1,-2,-3,-9,2,3,0
1532406358188,0,-1,-1,-1,-1,-3,-1,-2
1532406358193,-2,-1,-1,0,0,-2,2,-2
1532406358198,0,-1,-1,-1,0,0,1,-1
1532406358203,-1,-2,-1,0,2,-4,-1,-2
1532406358208,-1,0,-1,-2,-2,-1,0,0
1532406358213,-1,-1,-2,0,1,0,-4,1
1532406358218,-3,-2,-1,0,-3,-3,-3,0
1532406358223,0,-1,-2,-1,1,3,0,-4
1532406358228,0,-2,-1,0,3,-1,-1,1
1532406358233,1,0,0,-1,4,1,0,-2
1532406358238,0,0,-1,-4,-15,-1,-3,-1
1532406358243,-1,-1,0,1,6,-6,-4,-1
1532406358248,1,-1,-2,-2,-5,8,-2,0
1532406358253,-2,1,-2,-1,5,-2,2,-2
1532406358258,0,-1,0,1,5,-1,-10,2
1532406358263,1,1,0,2,-5,-13,-2,-1
1532406358268,-2,1,-2,-3,-5,5,7,-3
1532406358273,-1,-2,-1,-3,-1,2,-1,1
1532406358278,-1,0,-1,-1,-2,4,1,-3
1532406358283,-1,0,-2,0,10,1,-2,-2
1532406358288,-2,-1,1,2,-3,-5,-3,0
1532406358293,-1,-2,-2,-1,-4,-1,-1,-3
1532406358298,-2,-1,-1,1,3,-7,3,0
1532406358303,-1,-1,-1,0,-3,2,-3,0
1532406358308,-1,-1,0,-1,-3,-3,-4,-2
1532406358313,-1,-1,-1,-1,-2,1,-4,-3
1532406358318,-1,-1,0,0,1,0,3,1
1532406358323,-1,-1,-1,-2,-3,2,1,-1
1532406358328,-2,-1,-3,-2,0,-1,-1,-3
1532406358333,-1,-1,0,-1,-2,-2,-4,0
1532406358338,0,-2,0,0,0,-2,0,0
1532406358343,-2,0,-1,-2,-1,3,2,-1
1532406358348,0,-1,-1,-1,4,-1,0,0
1532406358353,0,-1,1,1,-4,1,0,-1
1532406358358,-1,0,-2,1,-5,0,-3,-2
1532406358363,1,-2,1,-4,-3,0,2,0
1532406358368,-2,1,-1,-1,-2,0,-2,-2
1532406358373,0,-2,-1,-3,0,-1,-4,-1
1532406358378,-1,0,-2,-2,0,1,-5,-2
1532406358383,0,-1,0,0,1,-1,-5,0
1532406358388,0,-1,0,1,2,0,-2,0
1532406358393,-1,-1,-1,-1,-3,-1,-1,-2
1532406358398,-1,-1,0,-1,2,0,0,-3
1532406358403,0,-1,-2,0,-6,-6,2,-3
1532406358408,0,-1,0,0,5,6,0,-2
1532406358413,-1,0,-2,-3,-9,-4,1,-1
1532406358418,0,-1,-1,-3,-1,2,-7,-1
1532406358423,-1,0,-3,1,-10,-4,10,-1
1532406358428,0,0,0,1,-1,-23,-2,-1
1532406358433,0,-1,0,-1,-1,12,0,-2
1532406358438,-2,1,0,1,11,6,-1,-2
1532406358443,0,-1,1,1,7,8,-4,1
1532406358448,-1,-2,-3,-3,-9,0,1,-1
1532406358453,-1,0,-1,-2,-4,-11,-4,-3
1532406358458,-1,-3,0,1,-4,0,-4,-3
1532406358463,0,0,-3,-5,-4,-12,-2,-1
1532406358468,0,-1,-2,0,5,4,2,-2
1532406358473,-1,-1,0,2,2,-4,-6,0
1532406358478,0,-1,0,-1,-1,3,3,1
1532406358483,-1,-2,-1,0,-2,0,2,-4
1532406358488,-2,-1,-3,-5,-14,1,0,2
1532406358493,-1,-1,-2,-1,-5,-8,-4,-1
1532406358498,-2,0,-1,-1,9,-1,4,1
1532406358503,1,0,1,2,-1,11,-5,1
1532406358508,-1,-1,-1,0,8,-24,-3,-2
1532406358513,0,0,2,3,-13,-25,-1,-3
1532406358518,-2,0,-1,1,6,22,4,-2
1532406358523,0,0,-1,-4,3,10,-1,-2
1532406358528,-1,-1,1,0,1,16,-6,5
1532406358533,-1,-3,-2,2,8,6,5,1
1532406358538,0,0,0,1,3,-11,-8,-3
1532406358543,-1,-2,-1,-1,-5,-12,1,-2
1532406358548,3,2,-1,-2,-3,1,1,-1
1532406358553,0,-1,0,-2,-3,-13,-7,-5
1532406358558,-3,-2,-3,-1,1,22,3,-3
1532406358563,-3,-2,1,0,2,0,-11,-2
1532406358568,-1,-3,3,1,-13,-4,0,-3
1532406358573,-3,-2,-4,2,14,2,0,1
1532406358578,0,3,1,-6,-10,-11,-3,-1
1532406358583,1,9,-1,-2,-4,-4,-1,0
1532406358588,-3,-10,-10,-2,5,1,-1,-2
1532406358593,-2,-57,-15,-7,-11,4,1,-1
1532406358598,1,4,2,2,-8,-11,-6,-3
1532406358603,0,2,-2,1,8,1,-3,0
1532406358608,1,14,2,0,-2,-1,0,-3
1532406358613,1,8,1,1,13,10,0,0
1532406358618,-1,-7,-3,-3,-18,-8,-5,-3
1532406358623,-2,-7,0,3,3,3,0,-1
1532406358628,-1,-1,3,2,11,9,-3,-1
1532406358633,0,43,27,-1,-4,-3,-1,3
1532406358638,-2,-42,-31,-1,3,-2,6,0
1532406358643,0,7,-2,-1,-2,-2,-5,0
1532406358648,1,8,8,-4,-3,0,1,0
1532406358653,-2,-10,-11,-2,5,8,4,-1
1532406358658,-4,5,6,2,-2,-11,-2,0
1532406358663,-6,-5,3,0,-1,0,0,-3
1532406358668,-3,-3,-2,-2,1,-4,-3,-2
1532406358673,2,5,-2,-1,-2,0,-3,-1
1532406358678,1,11,6,-1,1,-5,2,1
1532406358683,1,-10,0,-3,-3,-3,0,-2
1532406358688,-2,-1,0,-3,-2,0,1,-3
1532406358693,-3,3,-5,-6,-9,0,-5,-3
1532406358698,5,8,-6,0,1,1,4,3
1532406358703,-5,13,5,-1,2,2,2,4
1532406358708,0,-21,-11,2,0,2,-3,2
1532406358713,-2,-26,1,-3,-3,1,2,-2
1532406358718,-4,39,15,-4,-3,-6,0,-6
1532406358723,-3,-13,-16,-5,-6,1,-1,-2
1532406358728,1,11,1,0,-2,-2,-2,-2
1532406358733,-3,-7,-3,2,2,2,0,0
1532406358738,2,1,5,-1,-2,-6,-3,1
1532406358743,2,0,1,-2,2,2,1,-2
1532406358748,-5,-6,-2,-2,-4,-14,-7,-2
1532406358753,2,10,0,-1,-1,-10,0,-1
1532406358758,-1,-9,-1,3,3,10,0,-1
1532406358763,2,3,-1,-2,-4,-1,-3,-3
1532406358768,3,-7,-1,2,7,9,4,-1
1532406358773,-1,5,1,-1,-2,-10,-3,-1
1532406358778,-1,-3,-4,-2,-7,-11,-6,-1
1532406358783,-1,-9,-2,4,7,8,2,-1
1532406358788,-1,0,-2,-8,-3,-5,-2,1
1532406358793,-1,6,-1,1,4,-1,-5,-1
1532406358798,-3,-5,0,0,9,13,3,-1
1532406358803,0,-2,-1,-6,-25,-23,-6,-2
1532406358808,0,-2,-3,5,11,32,-2,0
1532406358813,-1,5,-3,-4,0,13,13,0
1532406358818,2,-8,-3,-5,-19,-18,-8,-2
1532406358823,-3,-2,2,1,6,-22,-13,-3
1532406358828,-1,0,-1,-2,-3,7,10,1
1532406358833,-1,-1,-3,-1,-3,-1,-7,-2
1532406358838,0,0,2,3,8,11,-3,-1
1532406358843,-1,1,2,3,2,1,6,-1
1532406358848,1,2,1,2,-8,-18,-4,0
1532406358853,1,0,4,1,10,7,-1,-2
1532406358858,-1,-4,0,-1,-6,1,1,-2
1532406358863,0,1,-1,0,11,4,-6,-2
1532406358868,0,-2,-1,-6,-28,-19,-4,-4
1532406358873,-2,4,0,4,8,13,5,-1
1532406358878,-3,-3,-2,-2,5,3,1,1
1532406358883,0,-3,-1,-2,-6,-4,3,-2
1532406358888,0,-10,-4,-3,8,0,-4,-2
1532406358893,2,6,1,-1,-8,-5,-8,-5
1532406358898,-1,-3,-1,-3,-8,-8,-3,-4
1532406358903,2,0,1,2,3,1,6,3
1532406358908,-2,-1,-1,3,17,16,-1,0
1532406358913,-2,0,0,-1,-6,-3,1,-4
1532406358918,0,-1,0,3,12,5,1,2
1532406358923,-1,-1,-2,2,-4,-11,-2,0
1532406358928,0,6,3,-6,-8,-5,-7,-5
1532406358933,-3,-1,-2,-4,-17,-13,3,0
1532406358938,0,-3,-2,-4,3,-8,-5,-1
1532406358943,0,0,-4,-3,-11,2,-1,-1
1532406358948,-2,-1,1,3,14,-1,2,-1
1532406358953,0,1,-2,-5,1,2,-5,0
1532406358958,-1,-3,0,0,-8,-2,-1,-4
1532406358963,-1,9,0,0,7,3,-4,2
1532406358968,-1,1,0,0,-2,0,4,-4
1532406358973,1,0,0,1,-3,-1,-3,-2
1532406358978,2,0,0,3,11,2,3,1
1532406358983,-5,-10,-4,-3,-3,6,5,2
1532406358988,-4,-7,-3,-1,-8,-8,-8,-8
1532406358993,1,2,-1,3,13,13,5,10
1532406358998,1,0,-1,-2,-17,3,-3,-4
1532406359003,-2,-4,1,1,19,10,-1,-3
1532406359008,-2,2,2,5,0,11,0,1
1532406359013,-3,-4,-6,-6,-10,-10,1,2
1532406359018,0,0,-2,-9,-6,1,0,1
1532406359023,1,2,1,-6,-15,-4,-1,0
1532406359028,-1,3,1,7,8,-4,-1,0
1532406359033,0,-3,2,5,7,10,-4,-2
1532406359038,-1,4,0,5,7,-7,-1,2
1532406359043,-1,-2,-1,-5,-14,-4,-6,-1
1532406359048,1,1,-4,-8,-4,-4,3,2
1532406359053,0,4,-2,-2,0,1,0,-4
1532406359058,-2,-6,1,1,-6,-13,-12,-2
1532406359063,-1,-2,1,3,6,3,-2,-6
1532406359068,2,-1,0,3,10,9,4,8
1532406359073,0,1,1,1,-2,-12,-10,-4
1532406359078,-6,-5,-8,-11,-14,4,10,-7
1532406359083,4,3,2,2,10,-6,-9,10
1532406359088,-1,0,-2,-1,-5,-8,-7,-4
1532406359093,-1,-4,-1,4,9,2,-2,-3
1532406359098,0,0,0,1,2,-2,0,1
1532406359103,-2,-4,-2,-4,-3,1,1,-9
1532406359108,0,-2,-2,0,4,6,4,-1
1532406359113,0,-1,0,-5,-5,-2,-2,4
1532406359118,-2,-1,-2,-2,3,7,7,-1
1532406359123,-1,-1,-1,-4,0,2,5,3
1532406359128,0,1,-1,-4,2,-4,-5,1
1532406359133,-2,-2,1,3,1,4,-2,-3
1532406359138,1,1,1,7,6,-1,-2,-1
1532406359143,-2,0,0,0,1,5,-1,-4
1532406359148,2,-1,0,0,-13,-9,0,7
1532406359153,-2,-4,-4,-2,8,9,6,-1
1532406359158,-1,-4,0,-13,-26,-5,4,2
1532406359163,-1,-3,-3,0,-4,-15,-26,-6
1532406359168,-2,-1,-1,4,8,-5,-3,-9
1532406359173,-1,1,0,0,-14,15,-1,-3
1532406359178,0,0,-1,2,8,8,-5,2
1532406359183,0,-2,1,8,26,24,24,-2
1532406359188,-1,-1,-1,-6,-1,-5,-11,-3
1532406359193,-2,-4,-2,-6,-10,-13,-1,0
1532406359198,1,0,4,7,19,16,2,1
1532406359203,-3,-2,-6,-15,-39,-45,-7,-3
1532406359208,-1,-1,-2,-6,-3,24,17,-2
1532406359213,2,1,3,12,26,-19,2,2
1532406359218,0,-1,0,1,-20,33,-6,-3
1532406359223,0,1,2,6,9,0,2,0
1532406359228,-2,1,1,4,-3,-42,-19,0
1532406359233,-1,-4,-5,-4,0,10,-1,-1
1532406359238,-2,0,-3,-8,-7,-25,-7,-3
1532406359243,0,-3,-2,-2,-3,-12,3,-1
1532406359248,0,-1,-1,-3,-3,38,14,-1
1532406359253,-2,-4,-2,1,-3,-29,-11,-2
1532406359258,0,3,-2,4,22,38,4,2
1532406359263,1,-2,-2,-4,-18,-6,4,3
1532406359268,0,-2,1,-1,16,44,24,1
1532406359273,-2,2,-2,0,-7,-2,-4,-2
1532406359278,-1,0,2,0,1,-33,-6,-2
1532406359283,-2,1,-1,5,16,16,-4,2
1532406359288,-1,2,-2,-8,-19,-32,-21,-3
1532406359293,0,2,1,-4,-7,-13,20,3
1532406359298,-2,-2,-4,-9,-16,8,-11,-5
1532406359303,0,2,3,7,14,88,16,-1
1532406359308,-2,-3,-1,3,4,-7,-2,0
1532406359313,-3,-1,7,-3,-8,-24,-18,-3
1532406359318,1,-4,-6,2,2,-11,0,0
1532406359323,0,16,7,-1,-3,-27,-12,-1
1532406359328,0,-26,-5,2,5,24,7,-3
1532406359333,-4,-5,-5,-9,-37,-12,-1,-4
1532406359338,1,10,10,6,2,-30,8,-1
1532406359343,-3,-25,-6,-4,0,31,5,-6
1532406359348,-2,13,-10,-4,-7,-20,-14,0
1532406359353,0,1,5,1,11,9,4,1
1532406359358,-1,-7,-1,5,13,3,3,0
1532406359363,0,7,3,0,2,6,7,0
1532406359368,-3,3,-2,-8,-24,-43,-19,1
1532406359373,0,-5,-8,-7,-18,-18,-6,1
1532406359378,-1,2,1,-2,0,15,13,0
1532406359383,0,0,1,9,19,-10,-14,-4
1532406359388,1,2,2,4,24,23,5,1
1532406359393,-1,0,-4,-11,-21,22,2,2
1532406359398,-1,-1,0,1,-5,-26,1,-1
1532406359403,-1,0,0,-3,-9,-13,-2,1
1532406359408,0,2,2,9,27,17,-2,-4
1532406359413,0,2,0,3,1,-3,-1,-5
1532406359418,-1,-1,-1,-1,15,-1,-2,-5
1532406359423,-1,-3,-7,-7,-14,-29,-16,-1
1532406359428,1,3,4,3,-5,-3,5,0
1532406359433,0,-2,-1,0,8,4,-3,-2
1532406359438,0,-1,-5,-2,-5,1,3,2
1532406359443,-3,-6,-3,-5,0,12,1,-4
1532406359448,0,-1,1,1,-4,-17,-4,-3
1532406359453,1,-1,1,4,4,25,6,-1
1532406359458,0,-2,-6,-10,-38,-36,-17,-4
1532406359463,0,2,1,-1,12,-12,-16,-2
1532406359468,-2,-1,0,-2,5,13,20,0
1532406359473,-2,-3,-6,4,6,-11,-14,-3
1532406359478,-1,1,3,3,18,7,-3,-1
1532406359483,0,0,-2,0,-19,-27,9,3
1532406359488,-3,-3,-1,-3,1,35,0,-2
1532406359493,0,1,-1,1,11,-6,-6,-3
1532406359498,0,1,0,5,26,19,5,1
1532406359503,0,-1,-1,-3,-2,2,3,-3
1532406359508,-2,-3,-3,-2,-13,-33,-14,-3
1532406359513,0,0,5,14,24,19,1,1
1532406359518,-3,-3,-5,-19,-51,-1,-13,-7
1532406359523,-1,-1,-4,-10,-38,25,14,6
1532406359528,1,2,-2,-3,-9,-11,-2,-1
1532406359533,2,0,-1,-4,1,3,5,-3
1532406359538,-1,-2,5,15,21,-2,4,0
1532406359543,1,5,5,16,53,15,-14,-4
1532406359548,0,-1,-5,-5,-12,-4,9,3
1532406359553,-1,0,3,1,14,10,-2,0
1532406359558,0,-3,-4,1,6,-31,-15,-7
1532406359563,3,1,2,3,17,37,41,7
1532406359568,0,2,2,6,18,1,-13,-4
1532406359573,0,1,1,4,22,-10,-2,-6
1532406359578,-4,-2,-8,-20,-44,0,-9,-2
1532406359583,1,0,1,7,21,0,-2,9
1532406359588,4,1,1,5,0,4,-2,0
1532406359593,-2,-3,0,-4,-4,14,6,3
1532406359598,-1,-2,3,12,74,52,13,-6
1532406359603,-5,-2,-1,-6,-58,-50,-23,-3
1532406359608,-1,0,2,-12,-36,2,3,0
1532406359613,0,0,-5,-15,-71,-12,-1,0
1532406359618,0,2,8,11,22,3,-1,8
1532406359623,-2,-4,-5,-1,31,11,3,-5
1532406359628,-1,-1,2,5,-17,-4,-15,-5
1532406359633,-1,-2,0,-3,-1,-15,-7,-6
1532406359638,-1,-1,-6,-23,-80,9,2,4
1532406359643,-1,-2,-4,-7,-32,-30,-10,-2
1532406359648,-1,-1,-1,-2,26,35,22,1
1532406359653,2,-1,0,21,73,45,-14,0
1532406359658,3,0,-6,-23,-33,-36,11,-2
1532406359663,-2,-4,-2,-13,-10,-29,-5,-2
1532406359668,-3,-7,-4,-3,13,-29,-9,-5
1532406359673,-3,-5,-7,-15,-31,-17,7,-3
1532406359678,4,0,10,24,63,52,19,4
1532406359683,2,-3,7,44,94,-15,-44,-17
1532406359688,-6,-4,-8,-32,-37,-35,20,5
1532406359693,3,-3,2,1,36,11,7,2
1532406359698,-2,0,2,9,16,-44,-10,1
1532406359703,1,-2,0,6,21,55,7,0
1532406359708,1,2,-1,12,6,-13,-15,1
1532406359713,0,5,-1,-15,-53,13,4,2
1532406359718,-1,4,0,6,15,0,-4,-1
1532406359723,-2,-2,-6,-23,-62,-29,3,-2
1532406359728,1,2,1,10,34,28,8,1
1532406359733,-4,3,-4,0,-22,-23,-6,-2
1532406359738,1,0,7,16,90,42,-3,-4
1532406359743,-4,1,-8,-13,-11,-19,4,-1
1532406359748,1,0,-2,-2,35,-2,-14,-6
1532406359753,-3,-2,-2,-5,-36,1,11,6
1532406359758,-2,-3,-4,-1,-24,-41,-16,-5
1532406359763,0,-2,0,5,0,13,-6,-1
1532406359768,1,-1,-1,-5,-14,-12,-10,-3
1532406359773,-1,-2,-1,11,46,-8,-5,-4
1532406359778,-3,-2,-7,-24,-102,-3,7,-1
1532406359783,0,4,1,-13,-64,-28,-12,3
1532406359788,-2,-1,-3,-2,-20,-14,-8,-1
1532406359793,-1,6,2,-1,13,0,-7,2
1532406359798,-2,-4,-3,-4,-14,-12,1,1
1532406359803,1,-5,2,8,59,29,7,1
1532406359808,1,-3,8,11,24,52,1,3
1532406359813,-2,-4,-3,-7,-30,-38,4,-3
1532406359818,-1,1,-4,-7,-3,7,-8,3
1532406359823,0,5,0,1,2,-10,-2,-2
1532406359828,3,-2,2,3,8,-6,-2,1
1532406359833,-2,1,-2,-1,32,32,1,-2
1532406359838,-1,-2,-1,0,-2,-28,-16,-3
1532406359843,-2,-2,-2,-1,-3,20,7,-1
1532406359848,0,-1,3,-6,-30,-11,4,-2
1532406359853,0,-2,0,1,4,3,16,4
1532406359858,0,12,-1,2,4,20,2,1
1532406359863,-3,-20,-10,-14,-24,-21,-13,-6
1532406359868,-2,-9,-2,1,18,32,5,-1
1532406359873,0,-2,0,0,11,-12,0,-3
1532406359878,-4,-4,-2,-2,-49,-16,-2,-3
1532406359883,2,5,4,13,43,22,-5,3
1532406359888,0,-2,-4,-9,-4,16,-6,-3
1532406359893,-2,-2,-4,-4,-16,-28,-6,-2
1532406359898,2,-3,-1,4,32,10,-5,-2
1532406359903,1,3,4,1,-4,6,6,0
1532406359908,2,-7,-4,10,63,17,-9,-4
1532406359913,-4,2,-4,-3,-13,23,-3,1
1532406359918,1,-2,0,-1,-8,-22,3,3
1532406359923,-2,-3,-3,-1,-4,5,3,-3
1532406359928,-2,-1,0,1,-1,4,7,-1
1532406359933,0,4,-1,-6,-14,-6,0,-3
1532406359938,-2,0,-1,-2,8,11,19,-2
1532406359943,0,0,1,4,19,2,3,2
1532406359948,-1,-2,-1,-12,-35,18,3,2
1532406359953,0,1,1,6,-4,-43,-18,-1
1532406359958,-3,-1,-1,4,19,6,-4,-4
1532406359963,-1,-1,-4,-14,-46,-13,1,2
1532406359968,-2,-1,-4,-6,3,-1,-5,2
1532406359973,0,0,-4,-8,-20,-6,11,0
1532406359978,0,-4,-1,-2,5,4,-21,-2
1532406359983,2,-1,4,18,54,22,17,1
1532406359988,0,-1,-1,4,24,7,3,0
1532406359993,0,-2,-1,2,2,-9,2,-3
1532406359998,-2,1,-5,-8,-13,-5,-8,-5
1532406360003,5,4,4,-3,-8,-7,-1,6
1532406360008,-1,-4,-3,0,14,0,-1,-1
1532406360013,1,-4,-1,-3,0,8,2,1
1532406360018,0,-4,0,10,30,14,-3,-3
1532406360023,-2,2,-2,-8,-32,-7,-2,3
1532406360028,1,-3,0,-2,1,-6,-4,-1
1532406360033,-2,-1,-1,-1,-6,1,10,3
1532406360038,-2,-4,0,-1,-2,-19,-17,-11
1532406360043,-2,-4,-1,-4,-2,14,9,-2
1532406360048,-2,-1,0,6,13,-9,-8,0
1532406360053,-1,0,-2,-7,-4,0,-1,3
1532406360058,-1,2,1,-4,-11,3,3,6
1532406360063,-4,-4,1,4,10,2,-8,-8
1532406360068,0,2,-3,-1,5,3,2,1
1532406360073,2,0,-1,-3,3,5,-6,6
1532406360078,1,4,-1,2,-4,-13,5,-5
1532406360083,-1,-1,-2,0,-4,-3,-11,-9
1532406360088,-5,-2,-2,-1,-7,0,-1,-9
1532406360093,0,3,0,-1,-8,-3,-3,-4
1532406360098,1,-3,0,1,2,3,3,2
1532406360103,-2,1,-2,-1,-4,-7,8,-1
1532406360108,-1,3,-1,1,3,-5,-6,-3
1532406360113,-1,-5,-1,-3,1,5,2,-1
1532406360118,1,7,-1,-2,-4,-3,5,7
1532406360123,-2,25,-1,0,2,34,4,-3
1532406360128,0,24,1,1,-4,-19,-12,0
1532406360133,-1,26,-2,-2,-10,-13,-6,-10
1532406360138,-3,12,-2,-3,-7,-3,-3,-5
1532406360143,0,-6,-2,-1,-5,-9,-8,3
1532406360148,1,-11,1,3,-2,2,1,-8
1532406360153,5,-9,0,-6,3,17,8,17
1532406360158,-1,-17,-1,0,1,-9,-7,-4
1532406360163,0,-8,-2,-2,3,-4,-11,-2
1532406360168,-2,-15,-2,-4,2,9,4,-1
1532406360173,0,-21,2,5,9,9,-7,-3
1532406360178,-1,-19,2,0,3,15,4,-1
1532406360183,0,-18,1,-4,-2,-15,-6,2
1532406360188,1,-4,-1,-3,-7,-8,1,0
1532406360193,-4,-15,-6,-3,1,2,9,-3
1532406360198,1,-6,-1,1,0,5,2,2
1532406360203,-3,-20,4,6,3,10,2,-1
1532406360208,0,-14,2,2,8,-6,0,7
1532406360213,-1,-9,0,-3,-5,-4,-2,-9
1532406360218,-1,-10,-2,0,-2,9,-2,3
1532406360223,0,1,-3,-4,-1,-15,-6,-1
1532406360228,-2,14,1,6,4,13,3,-3
1532406360233,0,21,-3,2,3,-10,8,3
1532406360238,-2,17,-2,-8,-16,-16,-4,-5
1532406360243,2,13,0,-3,0,29,7,1
1532406360248,0,7,0,-1,1,-28,-7,0
1532406360253,-3,4,3,5,1,-5,-7,-2
1532406360258,-1,5,-1,6,20,15,4,4
1532406360263,-2,-4,-8,-6,-8,-9,-4,-1
1532406360268,2,6,3,0,-1,-7,-2,3
1532406360273,1,4,2,5,0,-10,-10,-3
1532406360278,-3,-2,-1,2,7,-13,-10,-8
1532406360283,-1,0,-4,-11,-23,-12,-3,4
1532406360288,0,-5,-1,-2,-4,1,-2,-3
1532406360293,-2,-7,-1,-1,-6,-7,-2,1
1532406360298,0,-4,1,5,13,16,5,4
1532406360303,2,-1,2,1,-3,-1,-6,-3
1532406360308,-1,-4,-4,-5,-12,-13,-4,-2
1532406360313,1,-1,-2,1,5,1,3,0
1532406360318,-4,-3,-4,-3,-3,4,0,-4
1532406360323,-4,-4,-4,4,10,1,2,-5
1532406360328,0,0,-2,-6,-6,2,2,2
1532406360333,0,1,-2,-1,2,-4,-2,0
1532406360338,-2,-5,-3,-5,-4,7,-8,-3
1532406360343,0,3,-2,-1,-5,-9,1,-2
1532406360348,-3,-6,-2,1,-1,-4,2,3
1532406360353,-1,-1,1,-2,-1,4,-2,2
1532406360358,1,-1,-2,-3,-4,-2,1,-4
1532406360363,-4,-3,1,2,-3,-10,-15,-1
1532406360368,-1,1,0,2,6,-3,-3,-4
1532406360373,-1,0,-2,-4,-5,-5,0,-1
1532406360378,-1,-2,-3,-8,-10,12,7,-6
1532406360383,0,-3,-1,2,6,9,22,4
1532406360388,-1,4,-1,4,-2,-7,-12,-8
1532406360393,-4,-1,-2,-3,0,-12,-6,-5
1532406360398,2,2,-2,-3,-1,6,5,6
1532406360403,2,-1,3,0,2,3,-7,0
1532406360408,-1,0,-2,-4,4,-4,-3,3
1532406360413,1,0,2,7,2,-1,23,-5
1532406360418,-3,-5,-8,-8,-9,5,-7,-6
1532406360423,1,-2,0,1,0,0,-5,0
1532406360428,-2,-2,1,1,-1,-4,-10,-8
1532406360433,1,-1,2,7,14,6,-3,3
1532406360438,2,0,1,2,17,10,21,16
1532406360443,-5,-6,-7,-28,-58,-24,-44,-10
1532406360448,-2,-1,-3,-1,3,-1,16,1
1532406360453,-1,0,-1,-5,-5,-1,7,2
1532406360458,-2,-3,3,5,-4,-6,-6,-2
1532406360463,-1,-1,2,5,19,11,15,1
1532406360468,1,3,0,4,8,-4,-10,-2
1532406360473,-1,-2,-1,-4,-14,-5,-8,-6
1532406360478,-1,-1,-1,5,8,-9,-7,0
1532406360483,1,0,-1,0,17,10,11,0
1532406360488,1,2,-1,-5,-18,-16,-11,2
1532406360493,1,0,-2,-2,-2,3,7,3
1532406360498,3,1,2,5,7,-5,16,2
1532406360503,-4,-2,-2,-5,-10,-13,-20,-6
1532406360508,0,-1,-3,-2,-1,15,21,3
1532406360513,2,1,-1,7,35,20,8,1
1532406360518,1,-5,-2,-10,-52,-33,-1,3
1532406360523,2,-1,2,5,8,-5,-4,2
1532406360528,1,0,1,-3,-5,12,8,4
1532406360533,-5,0,-3,-4,-4,-7,-15,-10
1532406360538,-1,-5,-4,-3,11,9,-10,4
1532406360543,1,-2,0,3,2,4,11,5
1532406360548,-1,0,5,5,19,20,5,-3
1532406360553,-1,-4,-3,-7,-33,-20,-19,-5
1532406360558,0,2,0,0,-3,7,7,2
1532406360563,-2,-1,-3,1,0,4,7,-3
1532406360568,2,-3,2,-1,5,3,-5,5
1532406360573,1,3,-4,2,2,0,1,4
1532406360578,-4,1,2,-1,2,-4,-18,-7
1532406360583,-4,-6,-2,-3,4,2,3,-5
1532406360588,1,3,1,-1,-4,-4,0,4
1532406360593,-3,-5,-2,1,0,-6,-7,-7
1532406360598,2,-1,-3,0,7,-6,-2,1
1532406360603,0,1,-3,-2,8,17,-5,-1
1532406360608,-7,-6,-6,-7,-30,-18,3,-15
1532406360613,1,1,3,-1,13,4,-14,-3
1532406360618,-1,0,0,1,-14,-15,1,2
1532406360623,0,-1,1,4,12,5,5,-1
1532406360628,0,-1,-4,-9,-22,-23,-6,1
1532406360633,-1,-2,-1,-1,6,14,12,2
1532406360638,-1,1,1,-1,2,1,-14,-10
1532406360643,2,2,1,4,0,-6,8,3
1532406360648,-1,-1,-2,1,11,14,8,1
1532406360653,0,1,0,-2,-6,-7,1,-1
1532406360658,-1,-1,0,-1,-3,6,8,-1
1532406360663,-1,2,1,0,-11,-7,-13,-3
1532406360668,-2,-4,-1,1,9,7,5,-8
1532406360673,0,-1,0,-2,-7,-2,0,8
1532406360678,-1,0,-3,-3,4,7,-6,-4
1532406360683,-3,4,-2,-5,-5,-4,-8,-3
1532406360688,-1,-14,-6,-2,1,-1,-2,-3
1532406360693,-1,-1,0,4,11,5,2,-1
1532406360698,2,-2,-2,0,-10,-1,4,1
1532406360703,-2,0,-3,-4,-10,-19,-15,-5
1532406360708,1,2,0,-3,-2,2,5,5
1532406360713,-3,-3,2,-3,-7,-2,-2,-4
1532406360718,-1,-5,-4,9,19,15,-5,-1
1532406360723,3,1,-2,-6,-6,-1,16,9
1532406360728,-1,1,-1,-2,-4,-3,-6,-1
1532406360733,3,-1,0,-2,-4,-2,-4,2
1532406360738,-3,2,1,-2,-6,-3,-2,-12
1532406360743,-2,-4,0,9,21,7,1,-4
1532406360748,1,2,0,-7,-29,-12,-8,3
1532406360753,1,0,-3,-4,-8,-4,9,1
1532406360758,-3,-3,0,-4,-2,-7,-6,-3
1532406360763,1,3,2,9,11,12,6,3
1532406360768,0,2,0,0,6,-1,-4,-2
1532406360773,-2,1,-5,0,0,-3,-8,-6
1532406360778,-1,-3,-1,-2,0,-2,-2,2
1532406360783,0,-1,0,-2,-1,1,6,-1
1532406360788,-1,1,0,3,10,5,-1,-1
1532406360793,-4,-3,-2,-5,-5,-4,-6,-4
1532406360798,1,-1,-3,-1,8,-2,-5,3
1532406360803,2,0,1,2,-7,-1,2,8
1532406360808,-1,5,2,1,8,10,9,-5
1532406360813,0,-4,-1,2,3,-2,-11,4
1532406360818,1,-1,1,2,3,6,7,0
1532406360823,-3,-5,-3,-4,-8,-7,-10,-8
1532406360828,-2,-4,-4,-7,4,-2,-4,-4
1532406360833,-2,2,0,-4,-12,-3,0,1
1532406360838,0,0,2,2,10,13,10,-3
1532406360843,2,0,1,4,3,4,6,11
1532406360848,-2,3,-1,0,4,-3,-8,-1
1532406360853,-1,-4,-1,-1,-3,-10,-3,-2
1532406360858,0,-1,-1,-4,-3,-1,3,2
1532406360863,0,1,0,3,3,6,9,-4
1532406360868,-2,-3,2,6,10,-2,-6,-5
1532406360873,1,-1,0,3,5,7,1,7
1532406360878,-4,1,-5,-8,-13,-11,-8,-12
1532406360883,-4,-8,-5,-12,-9,-7,2,-2
1532406360888,-1,-2,-2,-9,-16,-1,2,5
1532406360893,-2,-3,-1,2,0,-6,-13,-10
1532406360898,-3,-4,-2,-2,-1,2,-6,-4
1532406360903,3,5,4,4,5,12,27,-1
1532406360908,2,0,0,7,9,1,0,6
1532406360913,-2,-2,-4,-3,-3,-5,-7,-8
1532406360918,1,-1,-2,-7,-10,-5,2,0
1532406360923,3,4,1,-1,4,3,-5,8
1532406360928,-1,-2,2,4,3,5,7,-2
1532406360933,2,1,2,3,1,0,3,5
1532406360938,0,1,1,4,9,3,-1,2
1532406360943,-1,-3,-2,-3,-8,-6,-9,-7
1532406360948,-4,-3,-3,-8,-15,-14,-9,-7
1532406360953,1,1,4,2,14,11,-3,6
1532406360958,2,-2,-2,-1,-5,-7,-7,-3
1532406360963,-2,-5,-1,-2,-3,-7,-15,-3
1532406360968,0,-2,-3,-1,-1,-2,18,6
1532406360973,-3,-1,-2,-2,-2,-3,-6,-4
1532406360978,1,1,1,6,11,8,4,3
1532406360983,-1,-1,-3,-2,-4,-2,-3,-2
1532406360988,-1,-2,1,3,-1,-5,-14,-4
1532406360993,0,-2,-2,-2,1,-4,-6,-1
1532406360998,0,-2,-1,-1,-2,-1,8,1
1532406361003,-2,-3,-3,-6,-12,-6,-2,-4
1532406361008,-2,-2,-2,-4,3,2,-16,-10
1532406361013,0,1,1,6,9,5,24,0
1532406361018,0,-3,-5,-7,-17,-9,-7,8
1532406361023,-1,-1,0,1,1,2,9,1
1532406361028,3,4,-1,-1,6,-1,-9,4
1532406361033,-1,0,-2,-6,-10,-10,-8,-7
1532406361038,-2,-1,1,3,6,0,-12,-9
1532406361043,-1,0,2,2,6,3,10,-8
1532406361048,0,-1,-3,1,0,1,-11,0
1532406361053,0,0,-2,-5,-11,-6,-10,8
1532406361058,2,1,0,-2,1,0,18,5
1532406361063,-2,0,-4,-5,-4,-6,-7,-6
1532406361068,-2,0,7,11,9,3,-3,-10
1532406361073,-2,-3,-10,-13,-21,-13,-7,-9
1532406361078,-5,-1,-4,-6,-7,-13,-9,3
1532406361083,1,-1,-2,-2,0,0,-12,7
1532406361088,-2,-2,0,0,3,6,13,4
1532406361093,2,0,2,4,8,2,3,1
1532406361098,-1,-3,-1,1,4,2,-2,-10
1532406361103,0,0,-2,-4,-2,2,-1,-2
1532406361108,1,1,1,0,-1,2,12,5
1532406361113,-5,-1,1,0,-5,-8,-14,-25
1532406361118,2,2,2,9,7,-1,-2,-11
1532406361123,2,0,1,0,-3,8,3,-1
1532406361128,0,-2,-5,-8,-9,-9,-7,10
1532406361133,0,0,4,6,1,4,-2,8
1532406361138,2,1,-4,-7,0,7,4,4
1532406361143,-2,0,-3,-4,-9,-23,-23,-29
1532406361148,2,-1,0,0,1,7,10,-34
1532406361153,-2,-3,-1,-3,3,5,-2,-41
1532406361158,-3,-1,3,3,5,2,-4,-42
1532406361163,2,2,0,0,5,5,7,-45
1532406361168,-2,-2,-4,-4,-14,-13,-19,-51
1532406361173,0,-4,-1,-5,-8,-4,9,36
1532406361178,-3,-3,-4,-4,-4,-4,-9,47
1532406361183,-1,-2,-1,1,5,6,14,76
1532406361188,-1,1,5,8,11,6,16,41
1532406361193,-3,-1,-3,-2,-4,-9,-14,-2
1532406361198,-2,-2,-4,-11,-11,-9,-1,-31
1532406361203,-3,-2,-1,-3,-1,-4,2,-7
1532406361208,0,1,3,4,8,7,-2,-7
1532406361213,-4,-1,-2,2,1,3,6,14
1532406361218,-5,-1,0,3,-1,-14,-9,17
1532406361223,-2,-2,-6,-6,-7,4,-4,0
1532406361228,-3,0,-3,-5,-4,-3,-12,16
1532406361233,-1,3,1,1,6,1,3,0
1532406361238,-1,0,0,-4,1,-4,-2,17
1532406361243,0,0,-3,-6,-7,-1,-2,10
1532406361248,-2,-1,-4,2,2,2,-2,-11
1532406361253,-1,0,4,9,10,0,-7,-6
1532406361258,-2,-1,0,0,-1,-1,-1,1
1532406361263,-3,-2,-3,-6,-7,-5,-5,5
1532406361268,0,0,-1,-3,-3,2,-4,12
1532406361273,0,2,-1,-2,-2,1,5,-5
1532406361278,-1,0,0,1,0,4,1,-1
1532406361283,1,0,2,3,7,1,-8,-19
1532406361288,-2,-1,-6,-8,-19,-16,-5,14
1532406361293,-1,-4,-3,-3,-3,-2,4,-5
1532406361298,-1,-1,-2,-4,-1,-1,0,-6
1532406361303,0,-2,2,1,4,8,7,2
1532406361308,1,0,-1,-2,2,-1,3,3
1532406361313,0,-2,4,4,8,17,6,3
1532406361318,1,1,-1,0,1,-4,-4,-1
1532406361323,-1,-1,-1,-1,-2,-2,-6,-1
1532406361328,0,-2,-2,0,2,-3,2,-6
1532406361333,1,-1,2,5,22,-2,0,-8
1532406361338,-4,-3,-3,-5,-51,-25,0,12
1532406361343,2,1,-7,-11,-7,-14,3,7
1532406361348,-2,-2,1,-3,-8,-7,-6,-16
1532406361353,-1,0,-2,1,3,15,-3,7
1532406361358,2,-3,-1,-1,6,0,-7,-19
1532406361363,-1,-2,1,4,-5,-10,-1,-7
1532406361368,-2,0,1,1,3,5,2,2
1532406361373,-2,0,0,2,-1,-4,-2,-4
1532406361378,0,-2,0,0,9,7,1,-4
1532406361383,-2,-1,-2,0,2,9,1,-2
1532406361388,0,-1,-1,1,1,-2,-2,-7
1532406361393,-3,-1,1,0,10,5,-5,-7
1532406361398,0,1,-1,2,4,6,-1,0
1532406361403,-2,-1,-2,-6,-10,-9,-2,11
1532406361408,-1,-2,-3,-2,0,1,0,3
1532406361413,0,0,1,-1,-2,5,-2,1
1532406361418,0,0,1,2,1,6,1,107
1532406361423,0,-1,2,2,0,-4,-3,49
1532406361428,-1,1,-1,-3,-1,-3,0,1
1532406361433,2,-1,0,2,0,1,7,-41
1532406361438,-1,1,0,-2,0,-4,-7,-89
1532406361443,0,1,1,-3,-5,-5,2,-46
1532406361448,-1,2,1,-3,1,0,2,5
1532406361453,0,-3,4,6,1,4,-2,1
1532406361458,-2,-6,-4,-5,-5,-2,0,12
1532406361463,-3,-2,-8,-7,-2,-4,-6,8
1532406361468,-1,-2,-2,2,4,5,0,-7
1532406361473,-3,0,-2,-3,-1,0,-1,12
1532406361478,1,3,5,7,4,2,-2,5
1532406361483,-1,0,1,-3,-4,-2,-2,7
1532406361488,-1,-2,-1,-2,-4,-6,-8,1
1532406361493,0,2,-1,-2,-2,1,2,1
1532406361498,-3,-3,-2,-5,-5,-4,1,-12
1532406361503,-1,-2,0,2,0,5,2,-26
1532406361508,0,1,-1,3,6,0,8,-12
1532406361513,1,0,1,0,-2,-2,0,-5
1532406361518,0,-2,-4,0,-1,-1,4,-28
1532406361523,1,-1,5,-3,-2,-1,-2,-15
1532406361528,-1,-3,1,-3,-3,2,-3,-16
1532406361533,-1,2,-2,0,0,-1,-1,-9
1532406361538,1,-7,-12,0,2,1,-5,-19
1532406361543,0,1,4,7,3,3,1,-12
1532406361548,-1,2,11,10,-2,1,-4,3
1532406361553,0,-3,-2,-8,2,2,2,-12
1532406361558,-1,-1,7,-2,-6,-3,-1,-5
1532406361563,-1,-3,-9,-2,1,-4,-4,-5
1532406361568,0,-3,4,4,3,-1,1,-11
1532406361573,-2,-3,-16,-7,-8,-9,-11,5
1532406361578,-1,1,5,0,-2,4,1,4
1532406361583,-1,-1,-5,0,-2,-4,-10,8
1532406361588,-1,-1,1,-4,-2,4,12,2
1532406361593,0,2,13,3,-1,2,-1,1
1532406361598,0,-2,-4,-5,-2,-1,-5,-6
1532406361603,-1,1,4,1,0,-6,-6,-9
1532406361608,1,-1,-9,-4,-1,1,-4,5
1532406361613,0,-1,4,1,2,4,1,-1
1532406361618,-2,1,-10,-2,1,-4,-5,-7
1532406361623,0,0,3,0,-2,-1,-6,-9
1532406361628,-1,0,-4,-2,1,1,-5,0
1532406361633,-1,-3,-5,-3,1,-1,-2,-10
1532406361638,0,0,8,2,3,4,-1,-12
1532406361643,0,-2,-3,0,0,-2,-4,-12
1532406361648,-1,-3,-6,-3,-3,-12,-13,-10
1532406361653,1,-1,2,1,-7,-4,11,-4
1532406361658,-1,4,-1,4,8,16,8,-4
1532406361663,0,-8,-4,-3,-2,9,1,1
1532406361668,-1,0,-1,2,1,-2,-10,-3
1532406361673,-1,-3,1,2,3,-10,-10,1
1532406361678,0,-1,-2,-5,-7,1,3,7
1532406361683,-3,-1,-3,-1,-7,-5,1,2
1532406361688,-1,0,1,-2,-1,0,-12,4
1532406361693,1,1,-3,1,0,4,-5,2
1532406361698,-2,-2,1,0,-1,-7,-7,-1
1532406361703,0,0,3,0,-1,3,9,1
1532406361708,-1,-1,-6,-7,-6,-3,-2,0
1532406361713,-3,-6,-15,-2,2,-1,-11,5
1532406361718,0,1,6,1,-1,-6,-7,7
1532406361723,1,0,0,1,2,1,0,-2
1532406361728,-2,-2,4,0,1,-5,-16,-2
1532406361733,0,0,-2,1,6,17,8,3
1532406361738,0,-1,-3,-3,-4,-7,-17,0
1532406361743,-2,-3,-1,-1,-4,-4,-8,3
1532406361748,2,5,2,1,7,-1,8,3
1532406361753,-1,0,0,-1,-10,-9,-19,-2
1532406361758,0,-4,0,-2,-3,-3,0,2
1532406361763,-2,1,-1,1,2,-1,6,2
1532406361768,-1,-3,-4,-1,-2,19,24,5
1532406361773,-1,1,3,2,-1,0,12,4
1532406361778,-1,1,4,3,2,-3,4,0
1532406361783,-1,-1,-5,-5,-2,-7,3,-2
1532406361788,-1,1,-3,-6,-2,15,9,-1
1532406361793,1,0,-1,0,4,0,2,0
1532406361798,-2,-2,-3,0,-7,-13,0,-3
1532406361803,1,3,1,0,2,2,5,-2
1532406361808,-1,-2,-1,1,0,-9,0,-3
1532406361813,0,-2,3,-1,-2,15,9,0
1532406361818,-1,-1,-3,-1,2,-16,-10,-1
1532406361823,1,-1,-2,2,-1,-10,-2,-1
1532406361828,-1,0,1,-1,-1,7,9,2
1532406361833,-2,-2,-2,1,-5,-10,2,2
1532406361838,0,-1,1,-2,1,2,6,3
1532406361843,0,1,0,-3,-1,1,0,3
1532406361848,0,-7,-3,-2,-7,-11,-3,1
1532406361853,-1,3,2,-1,8,23,8,1
1532406361858,1,-2,-2,2,6,-9,-5,1
1532406361863,-1,2,2,0,-3,6,2,-2
1532406361868,-2,-4,-3,-3,-6,-7,-2,-12
1532406361873,-1,2,2,-3,-6,-13,-3,-9
1532406361878,-1,-6,-2,-2,-1,10,3,-11
1532406361883,-4,-7,-5,0,1,0,-5,-6
1532406361888,1,0,-1,-1,-1,-7,-11,7
1532406361893,0,0,0,4,1,-3,-6,7
1532406361898,-2,1,-2,-1,0,5,1,6
1532406361903,0,1,0,-2,0,3,1,6
1532406361908,0,-1,0,0,0,-16,-2,5
1532406361913,-3,-1,-4,-2,-2,0,-8,1
1532406361918,1,0,1,-2,-1,27,13,2
1532406361923,1,0,0,-3,-3,-17,-13,0
1532406361928,0,0,1,-1,0,3,2,1
1532406361933,0,-4,0,0,-1,-10,-5,-4
1532406361938,-3,0,0,2,7,2,-4,-3
1532406361943,0,-2,0,-4,-5,6,2,0
1532406361948,0,-1,-3,-4,-4,-1,2,-2
1532406361953,-1,2,1,-2,-3,-12,-10,-4
1532406361958,2,-4,-4,3,3,11,3,1
1532406361963,1,-3,0,2,13,13,-3,-4
1532406361968,-3,-2,-3,-7,-19,-17,-3,-5
1532406361973,-2,-1,0,0,-3,-1,-2,-3
1532406361978,0,2,-2,-5,-6,-12,-6,0
1532406361983,-1,1,1,2,-3,5,1,1
1532406361988,-2,-1,0,1,10,3,-2,-2
1532406361993,1,-3,-3,-3,0,0,1,1
1532406361998,0,-2,-1,-1,-8,-8,0,1
1532406362003,1,0,-2,0,0,-6,-1,1
1532406362008,0,-1,-1,2,5,10,-4,0
1532406362013,-1,1,0,-1,-2,1,3,0
1532406362018,-1,1,-1,-3,-1,1,0,0
1532406362023,-2,-2,0,0,-2,-2,-2,-3
1532406362028,-2,0,-1,3,3,5,0,-3
1532406362033,0,-4,0,3,2,-5,-10,-2
1532406362038,0,0,-2,-5,-10,-15,-7,-6
1532406362043,0,-2,-2,-3,-4,4,3,2
1532406362048,-2,-3,2,2,3,4,-1,-5
1532406362053,1,-1,0,1,6,7,2,1
1532406362058,-1,-1,-1,-7,-9,-8,-4,-2
1532406362063,-1,-1,-3,-4,-8,-2,0,0
1532406362068,-3,-1,-1,1,4,-3,-4,-3
1532406362073,-1,-2,-2,-3,-1,0,1,-3
1532406362078,-1,-1,1,5,6,8,2,-1
1532406362083,-1,0,0,-1,-2,-3,0,0
1532406362088,2,3,1,-2,-2,-2,-2,2
1532406362093,-2,-4,-3,-1,-1,-1,1,-1
1532406362098,-1,3,0,0,1,3,2,-1
1532406362103,-1,-2,0,0,-2,-3,-5,-6
1532406362108,0,2,-3,-3,1,-2,-1,0
1532406362113,-2,-1,0,-6,-5,-5,-1,0
1532406362118,-1,-1,-2,-1,-4,-2,-4,-3
1532406362123,-2,-1,-2,-1,2,1,-2,-3
1532406362128,-1,-1,-1,3,3,12,6,-6
1532406362133,2,0,2,0,4,-19,-4,2
1532406362138,0,-3,-2,-4,-2,5,-5,1
1532406362143,-1,1,1,2,0,-2,-2,-4
1532406362148,-1,-3,1,1,8,-2,-4,0
1532406362153,-3,-1,-3,-5,-15,6,5,-2
1532406362158,-1,1,-1,0,-3,-1,-1,-2
1532406362163,0,0,2,-1,-1,-2,0,2
1532406362168,1,-1,1,3,-1,2,-1,-3
1532406362173,-2,1,1,3,4,2,-1,-5
1532406362178,-1,-1,-2,-4,0,-5,-1,-7
1532406362183,4,1,-1,-4,-4,-2,1,13
1532406362188,0,0,-1,-1,-2,-1,0,0
1532406362193,-1,-1,1,1,-2,-4,-5,0
1532406362198,-3,-3,1,1,4,-3,-2,1
1532406362203,-4,-1,-1,-1,0,-4,-3,-7
1532406362208,-1,1,-1,-2,-1,2,-1,1
1532406362213,-2,-4,-2,-3,-6,1,-5,-6
1532406362218,3,1,4,4,7,0,6,1
1532406362223,0,-1,-1,0,1,-4,-1,-3
1532406362228,2,0,-4,-7,-11,4,-4,2
1532406362233,-2,0,0,-2,-1,-8,1,-3
1532406362238,-2,0,-1,0,0,-4,-3,-4
1532406362243,0,-2,-1,2,3,2,0,5
1532406362248,-2,-1,3,0,-4,1,0,-3
1532406362253,-2,0,-2,-1,2,9,8,1
1532406362258,-1,-2,-2,1,0,-9,-10,3
1532406362263,-2,-2,-1,-2,-1,-3,-2,-6
1532406362268,0,1,0,-1,-1,-5,-4,-2
1532406362273,1,0,2,1,2,4,0,2
1532406362278,0,0,1,1,0,0,0,0
1532406362283,-1,-1,-2,-2,-5,-7,-5,-5
1532406362288,-2,-3,-2,-2,1,-2,0,2
1532406362293,3,-2,0,0,2,-1,-1,-2
1532406362298,1,0,-1,-3,1,4,1,0
1532406362303,-1,0,-1,0,0,-2,-5,-3
1532406362308,-3,-3,-3,1,-2,-10,-7,-6
1532406362313,-1,2,-3,-4,2,1,3,0
1532406362318,0,0,-2,-7,-12,5,-1,2
1532406362323,0,0,-1,-2,-2,-4,1,2
1532406362328,-1,-1,-1,-1,1,-1,-2,-3
1532406362333,0,1,-2,1,0,-6,-10,1
1532406362338,-2,0,0,0,2,8,11,-2
1532406362343,0,-1,-1,-2,1,11,10,0
1532406362348,-1,-1,-1,0,0,-19,-21,-3
1532406362353,1,-2,-1,-1,4,-3,9,1
1532406362358,-4,0,1,1,-5,1,-16,-7
1532406362363,-2,-3,-2,1,0,2,1,-2
1532406362368,-1,0,0,2,4,7,8,2
1532406362373,-2,-1,-1,2,1,-2,-4,-3
1532406362378,0,-1,-2,-3,-4,-4,1,4
1532406362383,-2,-2,-3,-3,2,3,-1,-5
1532406362388,-2,0,-2,-2,-5,3,0,2
1532406362393,-1,0,0,-3,-3,-7,-8,-1
1532406362398,-2,0,0,2,6,8,16,3
1532406362403,-1,0,0,-5,-18,-23,-20,-2
1532406362408,0,-2,-2,-2,0,-5,4,-1
1532406362413,-1,0,2,1,-2,6,-1,-1
1532406362418,-1,-2,-1,1,5,-12,-3,-4
1532406362423,-1,0,1,0,5,20,0,-5
1532406362428,0,0,1,5,4,-2,0,4
1532406362433,0,0,-2,-2,-5,-2,-1,-3
1532406362438,1,-1,-1,-3,-4,-10,-11,3
1532406362443,0,0,-3,-4,-3,0,4,1
1532406362448,0,1,-1,-1,1,7,5,2
1532406362453,-2,-2,-1,0,3,11,13,1
1532406362458,-1,-1,1,-2,-2,-3,0,-1
1532406362463,0,0,2,3,8,1,-5,-3
1532406362468,-2,-2,-2,-4,-6,-12,-5,-2
1532406362473,-1,0,-1,-3,-8,-4,-6,-2
1532406362478,0,-3,-2,1,0,-6,-11,-5
1532406362483,-2,-1,1,0,2,2,1,0
1532406362488,-1,-1,0,-1,1,6,2,-3
1532406362493,1,-1,-1,0,2,-5,-7,2
1532406362498,-1,-1,0,-3,-2,3,1,1
1532406362503,-3,-2,0,0,-2,-8,-11,-2
1532406362508,0,1,0,-3,-1,6,8,4
1532406362513,-2,-1,-2,-1,-4,-6,-4,-1
1532406362518,-1,0,-1,-1,-2,2,-2,-3
1532406362523,1,-2,1,3,2,-1,7,0
1532406362528,0,-2,0,0,2,2,0,-3
1532406362533,0,0,-3,0,1,-5,-11,-4
1532406362538,-1,-3,-2,-5,-4,-1,8,0
1532406362543,-2,0,-2,0,0,-5,-3,0
1532406362548,0,0,-1,1,1,3,0,0
1532406362553,-1,0,0,-5,-3,4,1,-1
1532406362558,-2,-1,0,2,-1,-12,-10,-5
1532406362563,1,1,-1,1,1,-8,-4,-1
1532406362568,0,0,0,0,0,2,-4,1
1532406362573,0,-1,0,-1,5,7,1,-2
1532406362578,-2,-1,-2,-4,-12,-6,2,-2
1532406362583,0,1,-1,0,3,0,5,0
1532406362588,-2,-2,0,-2,-4,-5,-5,-1
1532406362593,-1,-2,0,2,4,3,4,1
1532406362598,0,1,0,-1,0,2,1,2
1532406362603,0,-1,-1,2,0,0,-5,-1
1532406362608,-2,-2,-3,-1,-1,-7,-5,-7
1532406362613,-1,-1,-1,-2,-5,-3,-4,-1
1532406362618,-2,-2,-2,-2,4,2,-7,-2
1532406362623,-1,-2,1,-2,-2,-2,0,-1
1532406362628,0,0,-1,-2,-3,-2,-5,-1
1532406362633,-1,-1,1,3,-2,-2,0,-1
1532406362638,-1,1,-3,0,1,-1,-4,0
1532406362643,-2,-2,-2,-1,2,4,6,-1
1532406362648,-2,0,1,1,-1,1,-1,-3
1532406362653,-1,1,0,-2,-1,-9,-11,-2
1532406362658,0,0,-2,-2,3,-2,-1,0
1532406362663,0,-1,-1,-2,-4,-1,1,1
1532406362668,1,-2,1,4,4,1,-1,-2
1532406362673,0,-2,-2,-1,4,1,0,-3
1532406362678,0,-1,-1,-7,-9,2,3,-2
1532406362683,-1,0,-3,0,-1,-4,-2,-1
1532406362688,-1,-2,0,1,0,-5,-2,-1
1532406362693,-1,-2,0,2,3,1,-1,0
1532406362698,0,-1,-1,0,2,-3,-3,0
1532406362703,-2,-3,-4,-6,-3,1,3,-1
1532406362708,0,-1,-2,-3,-7,-1,-1,-1
1532406362713,-1,1,0,3,2,-1,-2,-2
1532406362718,1,-1,-4,-4,-1,0,1,-2
1532406362723,1,1,1,-1,-2,0,2,-1
1532406362728,-1,-1,0,-3,-1,-2,-6,-2
1532406362733,-1,-1,-1,2,-1,-4,-2,-1
1532406362738,0,-1,1,4,4,1,-1,-3
1532406362743,-2,-1,2,0,0,0,0,-4
1532406362748,0,0,-1,-5,-1,0,4,0
1532406362753,2,0,0,-3,2,4,2,1
1532406362758,-1,0,1,1,-5,-4,-7,0
1532406362763,-1,-2,-4,1,1,-1,-1,0
1532406362768,0,0,0,0,3,1,-4,-3
1532406362773,-2,-2,-3,-2,-7,0,3,-1
1532406362778,0,-1,-1,-2,-2,-1,-5,-5
1532406362783,-1,-1,1,0,-1,-3,-3,-1
1532406362788,0,-2,0,2,-1,-4,-4,0
1532406362793,-1,-1,-1,0,-1,0,-1,-1
1532406362798,-1,0,-1,-3,-1,-3,-1,0
1532406362803,-1,-2,-1,-1,0,-1,-3,-2
1532406362808,-1,-2,-2,-1,-1,-2,-2,-2
1532406362813,-1,-1,-3,-2,-3,-1,-3,-2
1532406362818,0,-2,0,1,-1,2,3,0
1532406362823,0,0,0,1,3,4,1,0
1532406362828,0,0,1,4,0,-6,-8,-2
1532406362833,-2,0,-1,-2,-1,0,0,-1
1532406362838,-2,0,-3,-7,-5,-1,-3,-1
1532406362843,0,-2,0,-2,-4,4,7,-1
1532406362848,-2,-2,-2,-1,-2,-1,-9,-1
1532406362853,0,1,2,3,2,0,0,-1
1532406362858,-1,-1,-1,2,4,1,-1,0
1532406362863,-1,0,0,-1,1,-2,-3,-2
1532406362868,-1,-1,-2,-3,-4,3,0,-3
1532406362873,0,0,1,-1,0,-1,-2,-2
1532406362878,-1,-1,-2,-3,-3,-3,-4,0
1532406362883,0,-1,1,0,4,1,0,-2
1532406362888,0,-1,-2,-1,-2,2,2,1
1532406362893,0,-2,-2,-1,2,-2,-3,0
1532406362898,-1,-1,-2,-2,-1,0,4,-2
1532406362903,-1,-1,-1,0,-3,-3,-4,2
1532406362908,0,1,-1,2,3,2,1,-1
1532406362913,-1,0,0,-3,-3,0,1,0
1532406362918,-1,-1,-2,2,0,1,-1,0
1532406362923,-2,-1,-4,-4,-2,-4,-2,-1
1532406362928,1,-1,-1,-4,-5,0,-1,-1
1532406362933,-2,-1,1,2,3,0,-2,-3
1532406362938,-1,-2,1,2,0,2,1,-4
1532406362943,-1,1,1,1,0,-3,-5,-3
1532406362948,-1,-1,-2,-3,1,0,2,-1
1532406362953,-2,-1,-1,-3,-2,-9,-7,-3
1532406362958,1,0,1,-1,2,-2,-2,1
1532406362963,1,-1,-1,-1,0,4,8,0
1532406362968,-2,-1,-2,0,-2,-6,-12,-1
1532406362973,-1,-1,-3,-1,-8,0,0,-3
1532406362978,0,-2,2,1,5,0,-3,-2
1532406362983,0,0,0,-1,-2,2,-1,1
1532406362988,1,0,0,-1,-1,-1,-1,-1
1532406362993,0,0,0,-1,5,4,2,0
1532406362998,-2,-1,-1,-2,-8,-6,-2,0
1532406363003,-1,-1,0,-1,-2,0,-1,0
1532406363008,0,0,0,1,1,2,3,2
1532406363013,0,1,-1,-1,0,-1,-5,2
1532406363018,0,0,0,1,2,0,3,-1
1532406363023,0,-2,-1,2,1,-2,-4,-1
1532406363028,-1,-2,-2,-3,-4,-3,-3,-4
1532406363033,0,0,-2,-2,-1,2,3,-2
1532406363038,1,-1,-1,-2,-2,-1,-3,-2
1532406363043,-1,0,-2,-1,-3,-4,-1,-3
1532406363048,-1,-1,1,2,8,1,1,2
1532406363053,-2,-2,-1,0,-4,-2,-2,0
1532406363058,-1,-2,-2,-2,-1,0,-1,0
1532406363063,-1,1,0,1,-1,-2,-1,-3
1532406363068,-1,-2,0,-1,-1,1,1,-3
1532406363073,0,-2,-1,-2,-2,-3,-1,-4
1532406363078,0,-1,0,0,0,2,0,2
1532406363083,0,1,0,1,1,-3,-4,-4
1532406363088,-2,1,-3,-1,-2,-2,-3,1
1532406363093,1,-2,-1,0,0,-3,-2,2
1532406363098,-2,-1,-2,-3,-4,2,5,-1
1532406363103,-1,-1,-3,-3,-2,2,-1,1
1532406363108,-1,0,0,-2,-3,-7,-3,-2
1532406363113,0,-1,1,2,5,5,-2,-3
1532406363118,-1,-3,-2,-1,-1,-2,1,-3
1532406363123,0,-2,-1,-1,1,-3,0,-1
1532406363128,0,-2,-1,-1,-3,-2,1,-1
1532406363133,0,0,-1,-1,-2,-1,-3,-2
1532406363138,-1,0,-1,-1,2,-7,-2,-1
1532406363143,-1,-2,-1,-3,-3,9,5,0
1532406363148,-1,-2,-1,1,1,0,2,-3
1532406363153,-1,-2,0,-1,-2,-5,0,0
1532406363158,-1,-1,-1,3,4,2,-2,-4
1532406363163,0,-2,-3,-5,-3,-7,-5,-2
1532406363168,0,1,1,-2,-2,-3,7,0
1532406363173,0,-2,-1,-1,-2,5,3,1
1532406363178,-1,0,0,-3,-4,-10,-9,-2
1532406363183,0,0,1,4,8,6,-1,-1
1532406363188,-2,-1,-4,-4,-5,3,-6,-1
1532406363193,0,0,0,-1,-2,-7,-3,-1
1532406363198,0,-1,0,0,-1,-6,-7,0
1532406363203,-1,-1,1,0,3,9,-3,-2
1532406363208,0,0,0,1,2,2,0,-1
1532406363213,0,-1,-2,-3,0,1,-1,-1
1532406363218,-1,0,0,1,-3,2,0,-2
1532406363223,-1,-2,-2,-2,-2,-6,0,0
1532406363228,-1,-1,-4,-3,-2,1,3,0
1532406363233,-2,1,1,3,2,-3,-6,-4
1532406363238,0,-1,-2,-1,0,4,-2,-1
1532406363243,-1,-1,-3,-2,-4,-12,0,-2
1532406363248,-2,-1,0,1,-1,-4,-7,0
1532406363253,0,-2,-1,1,0,5,-4,-2
1532406363258,-1,-1,-1,-4,-2,2,-3,1
1532406363263,-1,-1,0,-2,-4,-11,-5,-2
1532406363268,-1,-1,0,-2,1,12,0,0
1532406363273,0,-2,-1,0,3,2,2,1
1532406363278,-1,0,0,0,1,-1,-5,-1
1532406363283,-2,-2,-1,2,1,0,-5,-2
1532406363288,1,-1,-2,-1,-3,-15,3,1
1532406363293,0,1,0,2,4,14,1,-2
1532406363298,-2,-2,-3,-5,-3,-1,0,-3
1532406363303,-1,-1,-2,-4,-5,2,2,0
1532406363308,0,-1,1,1,-3,-5,-6,-2
1532406363313,-1,-1,-2,2,2,18,1,0
1532406363318,1,0,-1,1,3,2,8,1
1532406363323,0,-1,-2,-4,-2,-5,-5,-2
1532406363328,0,-1,-1,1,-3,-2,-4,-1
1532406363333,-1,0,-2,-2,-5,-9,-2,1
1532406363338,1,3,0,0,0,5,2,-1
1532406363343,0,-3,4,2,1,-1,-1,-1
1532406363348,-2,-1,-7,0,2,2,-2,-4
1532406363353,-1,-1,-1,-5,-3,-10,0,-6
1532406363358,0,-1,-1,-1,-1,3,1,-1
1532406363363,0,0,-1,0,2,-3,-1,-1
1532406363368,1,1,2,-1,-1,3,-1,1
1532406363373,-1,-1,-1,-1,-3,-4,-2,0
1532406363378,0,-2,1,-2,-3,-5,0,-2
1532406363383,-1,-1,0,0,2,9,1,0
1532406363388,-3,-1,2,-2,1,1,1,-3
1532406363393,-2,-1,-1,-4,-6,-12,-8,-2
1532406363398,0,-1,-1,2,3,9,9,2
1532406363403,-1,0,-2,-2,-1,2,7,0
1532406363408,-2,-1,-1,-2,-4,-10,-18,-4
1532406363413,-1,-2,0,-2,-1,-2,6,-2
1532406363418,-1,0,-1,2,0,-4,-2,-3
1532406363423,-2,0,-2,-3,-4,-3,-5,2
1532406363428,0,-2,-2,0,1,2,5,0
1532406363433,-1,-1,-1,0,-1,-1,-2,0
1532406363438,-2,-2,-4,-6,-7,-5,-6,-1
1532406363443,0,0,0,2,-1,4,3,-3
1532406363448,0,0,1,0,4,0,-3,-3
1532406363453,-1,0,0,-1,2,0,3,-2
1532406363458,1,-1,-4,2,2,3,1,-1
1532406363463,-2,-2,-1,-4,-5,-4,-3,-1
1532406363468,-1,-2,-2,-3,-2,-4,0,0
1532406363473,1,0,2,5,6,3,3,0
1532406363478,-2,-1,-1,-2,-6,-1,1,-3
1532406363483,-1,-2,-2,-2,-1,-1,-7,-2
1532406363488,2,0,1,2,3,0,8,1
1532406363493,-1,-1,-4,-4,-6,-6,-5,-3
1532406363498,-1,-1,0,-3,0,2,-2,0
1532406363503,-1,0,-2,-3,-1,-2,-6,-2
1532406363508,-1,0,-1,1,3,6,8,0
1532406363513,-1,-1,-2,-3,-5,0,5,-1
1532406363518,0,0,0,-1,-2,-4,-7,-3
1532406363523,0,-1,0,3,2,0,1,-3
1532406363528,-2,-1,-1,0,4,-2,-4,-4
1532406363533,0,0,-1,-4,-10,-7,-5,0
1532406363538,-1,-1,0,-4,0,1,1,3
1532406363543,-1,0,-2,1,0,-1,0,1
1532406363548,0,-2,1,-1,0,2,-2,0
1532406363553,1,-1,-1,1,1,1,-5,0
1532406363558,-1,-1,-1,-3,-3,-3,-3,0
1532406363563,-1,-4,1,0,-2,-5,-6,-4
1532406363568,-2,-1,-2,0,-2,0,2,-3
1532406363573,-2,-1,-1,-4,-1,0,-1,-1
1532406363578,0,-1,0,3,4,1,-1,0
1532406363583,-1,-1,0,2,0,0,-4,-1
1532406363588,-1,-2,0,-2,-5,-8,-11,-3
1532406363593,1,0,0,1,1,0,6,1
1532406363598,1,1,1,2,6,-1,1,4
1532406363603,0,-1,-2,-3,-2,2,5,0
1532406363608,1,0,-1,-4,-3,1,-2,0
1532406363613,-3,-3,-4,-6,-10,-10,-7,0
1532406363618,0,-2,-1,0,-2,-5,-4,-2
1532406363623,0,0,0,4,7,0,2,0
1532406363628,-1,-2,-2,0,1,2,1,0
1532406363633,-1,0,1,0,0,-2,1,-2
1532406363638,-1,-3,-1,-2,0,1,-1,-3
1532406363643,-1,-1,-2,-3,-7,0,4,-1
1532406363648,-1,0,0,4,4,-2,-2,0
1532406363653,1,1,-1,2,1,6,2,-2
1532406363658,-2,-2,0,-2,-2,-3,-4,-4
1532406363663,0,-1,0,-2,2,1,-1,0
1532406363668,-2,-3,0,-3,-2,0,4,-1
1532406363673,0,0,0,0,-1,0,-2,0
1532406363678,1,0,0,-2,-3,1,1,1
1532406363683,0,-1,-3,-4,-2,-3,-1,1
1532406363688,-3,-2,-3,-2,-2,0,0,-1
1532406363693,-2,-1,-1,0,3,0,-4,1
1532406363698,-1,-1,-1,-1,-3,-1,3,-4
1532406363703,-2,-1,-3,-2,-2,-1,2,-4
1532406363708,-1,0,-2,0,-4,-6,-5,0
1532406363713,0,-1,1,2,3,-1,3,-2
1532406363718,1,-1,-3,-3,-2,-2,0,-1
1532406363723,0,0,0,2,4,2,3,-1
1532406363728,-1,-1,0,-3,-1,-3,0,0
1532406363733,-1,-2,-1,-1,-3,-1,-8,-3
1532406363738,-2,-1,-1,1,0,-2,-6,-1
1532406363743,-1,-2,0,-2,-3,3,-2,-1
1532406363748,0,0,-1,-2,-5,-7,-18,2
1532406363753,0,0,-2,-3,-1,0,0,-3
1532406363758,-1,-1,-1,1,3,-2,2,0
1532406363763,-2,-1,-1,-3,-1,-1,-3,-8
1532406363768,-2,-1,-1,-1,0,-1,-2,-4
1532406363773,0,0,0,0,-1,-3,-4,1
1532406363778,-2,0,-1,-1,0,6,8,1
1532406363783,-1,1,-2,0,-1,-4,-10,-2
1532406363788,-3,0,-1,1,0,1,-8,-5
1532406363793,0,0,0,-1,-2,-7,0,2
1532406363798,1,-2,0,-3,0,1,1,-5
1532406363803,0,-3,-1,-1,0,3,8,-1
1532406363808,-1,0,-1,1,-1,-1,-3,4
1532406363813,-1,-2,-3,-3,-1,-4,-8,0
1532406363818,-1,1,0,1,-1,-1,6,1
1532406363823,1,0,1,2,5,4,6,2
1532406363828,1,-1,0,-1,-1,0,1,-2
1532406363833,-2,-2,-2,-6,-1,1,3,-3
1532406363838,0,0,-2,-4,-10,0,0,-2
1532406363843,-4,-2,-3,-1,-2,-11,-16,-8
1532406363848,2,1,3,6,3,4,2,3
1532406363853,-1,1,0,1,2,2,1,4
1532406363858,0,-2,-1,-1,0,-1,-1,-2
1532406363863,-2,0,-2,-4,-3,-2,3,-1
1532406363868,-2,0,-1,1,-2,-3,-2,-3
1532406363873,-2,0,0,3,6,5,0,0
1532406363878,-2,-3,-1,-3,-14,-10,-6,-4
1532406363883,-1,0,1,-1,2,1,-1,5
1532406363888,0,-2,-2,-1,2,0,-7,-2
1532406363893,1,3,3,4,-3,-2,5,-5
1532406363898,-2,-4,-4,-2,2,0,-4,-8
1532406363903,1,-2,0,1,1,3,0,4
1532406363908,-1,-2,-2,-4,-7,-3,4,3
1532406363913,-2,-1,-2,0,-3,-4,-8,-2
1532406363918,-2,0,-1,0,4,-3,-8,-5
1532406363923,-1,1,1,1,0,4,1,-2
1532406363928,-3,1,1,4,7,0,-2,-3
1532406363933,0,-2,-3,-7,-6,-2,-2,1
1532406363938,0,0,0,2,1,-1,-1,0
1532406363943,-1,-2,0,1,-2,6,6,1
1532406363948,-1,0,2,-1,-2,2,-6,2
1532406363953,-1,-1,-2,-4,-1,-4,-6,0
1532406363958,-1,-1,-1,2,-1,-1,-2,-1
1532406363963,0,1,0,1,2,4,3,1
1532406363968,0,-1,-1,1,2,2,2,0
1532406363973,-1,-1,-2,-5,-6,2,-1,-2
1532406363978,-3,0,2,2,5,2,-2,-2
1532406363983,0,0,-3,-2,0,-1,1,1
1532406363988,-2,-2,-2,-5,-7,-3,1,-1
1532406363993,1,1,1,4,6,0,-7,0
1532406363998,0,0,-1,3,2,1,2,1
1532406364003,-1,-1,0,-2,-9,-6,-11,-4
1532406364008,0,-1,0,-3,1,0,-4,0
1532406364013,-2,0,-1,0,-3,-2,-1,-3
1532406364018,1,1,0,3,1,-1,-3,-5
1532406364023,-1,-1,-1,-5,-3,-4,-1,-5
1532406364028,0,0,-3,0,3,-3,-3,-6
1532406364033,-1,-2,-1,4,-4,3,3,1
1532406364038,2,3,2,5,11,6,11,-1
1532406364043,-2,-1,-1,-4,-16,-8,-19,-5
1532406364048,-2,-3,-4,-6,-12,-6,-1,0
1532406364053,0,0,0,4,4,-5,-5,1
1532406364058,-2,0,-1,0,3,2,0,4
1532406364063,-3,-4,-1,4,0,-5,-6,-10
1532406364068,0,-2,-2,-8,-8,2,5,2
1532406364073,-1,-3,-1,0,0,-2,-8,-2
1532406364078,2,-1,0,-3,-1,2,6,16
1532406364083,-1,0,1,5,5,2,2,3
1532406364088,0,0,2,5,5,-2,-2,4
1532406364093,0,0,-2,-5,-2,0,-2,-3
1532406364098,-2,-2,-3,-6,-7,-3,-5,-5
1532406364103,2,0,0,1,8,5,12,-4
1532406364108,0,0,-1,2,-1,-4,-7,-9
1532406364113,0,-2,-1,-1,-3,2,8,-3
1532406364118,0,0,-1,-2,-3,-1,-4,-7
1532406364123,3,3,2,6,11,-2,4,0
1532406364128,-1,-2,-2,-9,-5,5,9,-5
1532406364133,0,-1,-1,1,2,1,1,7
1532406364138,-3,-4,-3,-6,-10,-4,-6,-11
1532406364143,2,1,2,0,1,3,4,-1
1532406364148,-2,0,1,5,6,7,7,-14
1532406364153,0,2,1,2,5,-3,-10,-17
1532406364158,-1,-2,-1,0,-6,-6,-1,-9
1532406364163,-2,-4,-2,-3,-4,1,-7,-22
1532406364168,1,-2,-1,0,0,-3,-1,-14
1532406364173,-1,-2,2,-1,-2,-1,0,-19
1532406364178,1,2,1,6,11,11,11,-29
1532406364183,-3,-2,-3,-3,-11,0,-1,-16
1532406364188,0,-1,-3,-7,-6,-3,-11,17
1532406364193,-1,-1,-2,-2,0,-7,2,30
1532406364198,-1,0,7,9,9,4,-1,27
1532406364203,-2,-2,-8,-10,-13,-12,-7,26
1532406364208,0,-1,0,3,3,3,1,13
1532406364213,-2,-2,-2,-4,-5,0,4,19
1532406364218,1,-1,-1,-3,-4,-2,0,10
1532406364223,-1,2,4,7,7,3,5,5
1532406364228,0,-1,1,7,2,-7,-8,-3
1532406364233,-1,-3,-5,-13,-10,0,3,-83
1532406364238,-2,-1,-3,-3,-2,-1,-6,-31
1532406364243,-2,-4,-3,-6,-4,-1,-3,-15
1532406364248,0,2,5,3,6,1,-2,19
1532406364253,-2,-1,0,8,12,4,10,50
1532406364258,-3,-4,-8,-15,-18,-12,-3,26
1532406364263,-1,-2,-1,-2,0,-6,-12,29
1532406364268,-1,-2,-4,-7,-7,-7,1,17
1532406364273,1,0,1,1,1,6,0,14
1532406364278,0,1,0,3,5,3,-4,3
1532406364283,-3,0,-3,-1,-2,-3,-9,7
1532406364288,0,0,0,0,0,0,6,-9
1532406364293,0,0,0,1,4,5,-3,-1
1532406364298,-1,-1,-3,-4,-6,-8,-5,11
1532406364303,1,1,1,2,4,14,10,-2
1532406364308,-2,0,-5,-4,-16,-13,-4,-7
1532406364313,1,-1,2,6,17,8,4,6
1532406364318,-2,-1,1,-1,-6,-10,-11,0
1532406364323,-1,-4,-1,0,12,3,-8,-10
1532406364328,-1,1,0,1,6,12,-1,-2
1532406364333,-3,-2,-3,-8,-28,-13,0,12
1532406364338,-2,-3,0,0,-2,3,-1,-3
1532406364343,-2,1,0,-1,-5,-9,-2,-5
1532406364348,0,-1,2,4,17,14,-3,-12
1532406364353,-1,1,-2,-3,0,-4,-5,-11
1532406364358,-1,-2,0,-1,-6,-3,-3,-7
1532406364363,1,-1,1,-2,3,5,-1,-1
1532406364368,-2,-1,-6,-11,-13,-7,0,1
1532406364373,0,-1,1,1,-3,-8,-8,-6
1532406364378,0,0,-1,-1,2,4,5,0
1532406364383,0,0,0,3,2,-1,6,110
1532406364388,1,-1,-1,0,-1,-2,-2,7
1532406364393,0,0,-2,-1,-5,-2,0,-23
1532406364398,-1,-1,-1,-2,2,4,-7,-56
1532406364403,1,0,1,0,1,7,6,-53
1532406364408,1,-2,-3,-2,-5,-7,-6,-10
1532406364413,-1,-2,0,0,4,3,-3,-11
1532406364418,-2,0,1,1,2,1,-1,1
1532406364423,-1,-2,-2,4,-3,-5,-3,-19
1532406364428,-2,-2,-2,-3,-2,-2,-2,-9
1532406364433,1,-1,-1,-5,-2,0,0,-4
1532406364438,1,3,4,3,1,-2,3,11
1532406364443,0,-3,26,1,-6,-5,-6,-7
1532406364448,-2,9,-22,-15,0,1,2,-14
1532406364453,-3,-15,-8,3,1,1,-5,-8
1532406364458,-1,-4,2,3,-2,0,2,5
1532406364463,-1,1,-4,-5,-4,-2,-1,6
1532406364468,0,-4,3,5,6,1,-1,-5
1532406364473,-2,-1,-7,-10,-8,-4,-2,-9
1532406364478,-2,-5,-7,1,0,-1,0,-5
1532406364483,1,-1,8,3,3,0,0,0
1532406364488,0,1,1,0,2,0,1,9
1532406364493,-1,-2,-5,-2,-5,-6,-8,24
1532406364498,-3,-3,-4,-4,-2,-2,0,10
1532406364503,-1,2,-7,-3,-3,1,2,-10
1532406364508,-1,-2,5,-1,-1,-9,-11,-15
1532406364513,0,1,-4,3,3,0,1,-13
1532406364518,-1,-2,4,-1,-2,0,4,-13
1532406364523,0,1,-1,0,-1,-1,-11,-4
1532406364528,-1,-3,-2,-3,-1,1,0,-2
1532406364533,-2,-1,-6,-2,-2,-3,0,-15
1532406364538,1,0,5,1,0,-4,-5,6
1532406364543,0,1,1,-1,1,2,3,20
1532406364548,-1,-3,-5,-3,1,2,2,9
1532406364553,0,0,-1,-1,-2,-4,-7,-7
1532406364558,-2,-3,1,-1,-3,1,-1,-6
1532406364563,0,0,-2,0,-5,-3,-3,-15
1532406364568,0,-1,-1,-1,1,0,-4,-13
1532406364573,-2,0,-3,-3,-2,1,5,-20
1532406364578,0,-2,0,-1,0,-1,-8,-10
1532406364583,-2,-2,-4,-6,-3,-4,-8,-5
1532406364588,0,1,1,1,-2,-6,-2,-1
1532406364593,-1,-1,-4,0,-1,12,-10,-6
1532406364598,0,-3,-2,-2,0,-5,-12,-5
1532406364603,-1,0,0,1,1,6,6,-3
1532406364608,1,0,-3,0,-4,-3,-28,-6
1532406364613,0,-5,1,-4,1,-6,-28,-2
1532406364618,-1,0,4,5,0,-7,-19,-4
1532406364623,-1,0,-2,-1,-1,0,-6,-3
1532406364628,-1,-3,-1,-1,0,2,18,3
1532406364633,-2,1,1,1,4,-2,6,2
1532406364638,-2,0,-2,-6,-4,1,-6,1
1532406364643,-3,-3,6,1,-3,-8,-2,-4
1532406364648,-1,1,-16,-4,1,-3,3,4
1532406364653,-1,-6,-2,1,6,13,16,5
1532406364658,0,2,1,-1,4,-4,10,0
1532406364663,1,2,1,3,-3,-5,-3,1
1532406364668,0,-3,0,-2,1,8,15,4
1532406364673,-1,-1,-1,0,-3,-17,-9,1
1532406364678,-1,-3,-3,-2,-4,-9,3,2
1532406364683,0,3,1,5,3,-2,6,3
1532406364688,-3,-1,-2,-1,-1,-4,3,-3
1532406364693,-3,-6,-10,-7,-6,5,19,-4
1532406364698,-1,1,6,2,0,4,12,-6
1532406364703,-1,0,0,0,0,-4,1,-1
1532406364708,-2,1,4,1,2,6,0,0
1532406364713,-2,1,0,-2,-1,-5,1,1
1532406364718,-1,-4,-5,-2,-4,-16,-5,3
1532406364723,1,-2,-3,0,5,9,5,0
1532406364728,-2,-4,-2,-4,-8,4,2,-3
1532406364733,1,4,2,2,1,0,6,3
1532406364738,-1,-2,-1,4,3,3,4,0
1532406364743,-1,-2,-2,-2,-2,-4,-3,2
1532406364748,-1,-1,-2,-2,-1,-7,-4,1
1532406364753,1,0,-2,0,0,1,3,0
1532406364758,0,-3,6,-2,0,7,3,-6
1532406364763,-1,-4,3,1,1,3,7,-3
1532406364768,-1,2,0,3,-2,-5,-7,-10
1532406364773,0,0,-1,-4,-3,-6,-8,-5
1532406364778,-1,2,-2,-2,0,12,8,7
1532406364783,0,0,-2,0,-3,-5,-6,4
1532406364788,0,0,3,-4,-5,-8,-2,10
1532406364793,0,1,1,-1,1,2,8,10
1532406364798,0,2,-4,-3,-6,-11,-13,2
1532406364803,0,2,1,-3,-1,1,-2,2
1532406364808,-1,-3,1,2,6,7,0,3
1532406364813,-1,-2,-1,-2,0,3,-1,-2
1532406364818,0,-1,-2,-3,1,2,-2,0
1532406364823,-2,0,-1,-1,-3,5,5,0
1532406364828,0,0,-2,2,0,-10,-12,-2
1532406364833,-1,11,1,-5,-7,-1,-3,-1
1532406364838,-2,-20,-8,0,0,16,5,-3
1532406364843,-2,-3,-3,-1,0,-6,-6,-2
1532406364848,-1,0,3,0,2,11,16,1
1532406364853,0,-1,0,0,3,-10,-19,-5
1532406364858,0,0,-2,1,-3,-6,-1,-5
1532406364863,-1,-2,-4,3,3,10,-5,-5
1532406364868,0,-1,0,-6,-4,-8,-4,-1
1532406364873,-2,-4,0,-3,-1,6,4,-3
1532406364878,0,3,0,0,3,0,0,-1
1532406364883,0,-2,-3,-1,0,1,-2,-2
1532406364888,0,2,3,3,5,4,1,1
1532406364893,1,-4,-2,1,1,1,-2,2
1532406364898,-2,3,-1,-3,-6,-4,-4,0
1532406364903,-2,1,-2,-3,-4,-1,4,1
1532406364908,-1,-3,-3,-3,1,-3,-7,2
1532406364913,0,-2,1,-3,-2,-3,2,-3
1532406364918,1,2,2,3,5,6,3,-1
1532406364923,-2,0,0,0,3,-3,-3,-2
1532406364928,-4,-3,-3,-4,-8,-8,1,-3
1532406364933,-1,-2,-2,-1,-5,0,-4,3
1532406364938,0,2,1,0,-2,-4,3,-3
1532406364943,0,-2,-1,0,-5,-3,-7,-2
1532406364948,0,0,-1,3,2,5,0,0
1532406364953,-1,-2,-2,-2,-1,-2,-1,0
1532406364958,0,-1,0,-2,-1,14,3,-1
1532406364963,1,0,1,-3,-3,-2,3,1
1532406364968,-1,-1,1,1,1,-17,-16,-3
1532406364973,0,-2,-1,-2,-5,-2,-2,-2
1532406364978,-1,1,-2,1,4,-3,-3,-2
1532406364983,-1,1,-1,-3,-1,0,2,-2
1532406364988,-1,-2,0,4,4,10,3,1
1532406364993,-1,1,-2,-3,-7,-8,-1,-1
1532406364998,1,-1,0,-5,-4,-2,-1,1
1532406365003,1,1,0,-1,-2,-2,-1,-2
1532406365008,-1,2,-3,-3,-3,-1,-3,-3
1532406365013,-2,-8,0,6,7,0,-1,-3
1532406365018,-1,0,2,5,5,0,-2,2
1532406365023,-1,-4,-2,-3,2,3,1,0
1532406365028,1,1,-1,-2,-7,-7,-10,-3
1532406365033,-1,0,0,-1,-2,-5,-2,-2
1532406365038,-1,0,-1,-1,-1,-5,-4,0
1532406365043,-1,-4,-2,2,5,0,1,0
1532406365048,-2,-1,1,-4,2,6,-3,-2
1532406365053,0,2,-1,-3,-1,1,7,-2
1532406365058,-2,-2,-1,-2,-4,-2,-2,0
1532406365063,1,1,-1,1,-4,-6,-4,3
1532406365068,-2,-3,-1,-1,1,2,5,-1
1532406365073,-2,0,1,0,0,1,-4,-2
1532406365078,0,-2,-2,1,-2,-1,-2,-2
1532406365083,-1,-1,-2,-7,-4,0,1,0
1532406365088,0,-2,-2,-3,-1,0,0,-2
1532406365093,-1,0,1,5,4,0,-1,-1
1532406365098,-5,-2,0,1,4,1,0,-11
1532406365103,1,0,0,-1,-1,-4,-4,4
1532406365108,2,1,-1,1,2,5,4,7
1532406365113,-1,-1,-1,-4,-2,4,2,-1
1532406365118,-1,0,0,-2,0,-2,-8,2
1532406365123,-4,-2,0,-1,-1,-10,-6,-6
1532406365128,0,-2,-1,0,-2,3,2,1
1532406365133,-2,1,-2,0,-1,3,-1,2
1532406365138,0,1,-1,0,0,-3,-7,-2
1532406365143,-1,-1,-2,-6,-6,-5,1,-4
1532406365148,-1,0,0,0,1,-5,6,-1
1532406365153,0,-2,-2,-4,2,9,-2,4
1532406365158,-1,1,-1,-4,-14,-6,7,1
1532406365163,-1,-1,-2,0,3,-4,-20,-5
1532406365168,-1,-1,-4,-5,-5,-4,-1,2
1532406365173,-2,-1,1,1,2,-1,-3,-2
1532406365178,-1,-2,-2,-2,2,2,10,-1
1532406365183,2,-1,0,1,3,6,7,2
1532406365188,0,2,-2,0,-4,-4,-11,-5
1532406365193,-3,-2,-1,-2,-3,-4,0,-2
1532406365198,-4,-1,0,-1,2,0,-12,-9
1532406365203,-2,0,-2,2,-1,-1,12,5
1532406365208,3,-1,0,0,1,7,7,0
1532406365213,1,1,-1,-1,0,7,-4,0
1532406365218,-1,-1,0,-1,-3,-6,-5,-2
1532406365223,-3,-3,-1,-3,-3,-14,-28,-9
1532406365228,4,4,2,7,11,21,50,18
1532406365233,-1,-5,-10,-5,0,6,-1,-8
1532406365238,2,15,25,6,5,6,11,10
1532406365243,-2,-5,-6,-3,0,-1,-8,-14
1532406365248,-2,-9,-8,-8,-15,-12,-19,7
1532406365253,0,6,9,6,8,0,-9,-10
1532406365258,0,-2,-18,-7,-8,-3,-9,0
1532406365263,3,2,3,3,4,-4,12,0
1532406365268,-1,1,5,6,4,15,-15,-12
1532406365273,-3,-1,-2,-3,0,-19,-3,-2
1532406365278,-2,-1,0,-2,-15,-10,-6,-2
1532406365283,0,0,2,10,35,12,4,2
1532406365288,-1,1,-3,-5,-22,-6,-5,-1
1532406365293,0,-3,-3,-13,-14,3,-9,-2
1532406365298,-2,-5,-4,1,11,5,-7,-2
1532406365303,-2,-1,-4,-7,-25,-19,-1,-3
1532406365308,1,0,2,10,21,16,20,1
1532406365313,-1,-4,-1,5,6,0,4,0
1532406365318,-2,-3,-2,-1,-4,-5,-7,-4
1532406365323,0,1,0,-3,2,6,-4,0
1532406365328,-2,0,-1,-3,0,-12,-17,0
1532406365333,-2,-3,-2,1,-3,3,33,3
1532406365338,0,-1,-3,2,12,9,-3,0
1532406365343,-1,-4,0,-4,-14,-13,-10,-2
1532406365348,-1,-1,-1,-1,-2,-4,-11,-7
1532406365353,0,-2,0,-1,-1,-9,-6,7
1532406365358,-1,-2,-4,-3,-1,5,-2,-7
1532406365363,-3,-3,-4,-5,-16,-10,0,-2
1532406365368,1,0,-1,-5,-2,-8,1,0
1532406365373,0,5,4,5,-2,9,8,6
1532406365378,-2,-12,-6,7,15,3,-13,-6
1532406365383,-1,-4,-3,-9,-26,-11,-4,0
1532406365388,-4,-1,-4,-2,-1,-6,-3,-4
1532406365393,-2,-4,-2,-1,1,-4,-13,-2
1532406365398,-3,3,-1,-3,-3,-4,4,1
1532406365403,0,2,0,0,4,11,13,1
1532406365408,1,-3,-2,-1,0,-4,-12,-3
1532406365413,0,0,0,2,-1,0,7,-5
1532406365418,0,0,-1,-5,-5,-1,-4,1
1532406365423,4,-1,0,4,8,5,7,2
1532406365428,-3,0,0,-1,7,-1,-8,-5
1532406365433,0,-3,-3,-6,-2,-2,-3,-2
1532406365438,-1,-1,0,-1,-12,-13,3,-2
1532406365443,-2,0,-2,-3,-4,2,3,0
1532406365448,-1,-2,-1,-1,0,-5,-3,1
1532406365453,-1,-3,1,7,6,-1,-7,-2
1532406365458,-1,0,0,2,2,8,2,-2
1532406365463,0,1,0,1,9,2,-1,1
1532406365468,-2,-1,-3,-8,-10,1,-1,-2
1532406365473,-3,-2,0,-3,-4,-4,1,-2
1532406365478,2,0,-1,-1,-3,-4,-1,-2
1532406365483,0,1,1,1,6,7,-5,2
1532406365488,0,0,-2,0,0,-3,6,-1
1532406365493,0,0,0,-1,-4,-4,-7,2
1532406365498,1,-1,1,1,4,-1,-7,-2
1532406365503,0,-3,-1,-1,1,-3,7,-4
1532406365508,1,0,-1,-3,1,0,-5,2
1532406365513,1,-2,-2,-3,-7,-5,-4,-2
1532406365518,1,0,0,0,-3,-2,1,-5
1532406365523,-1,0,-2,2,2,1,-2,0
1532406365528,-1,0,-2,1,-1,-1,6,1
1532406365533,0,-1,1,-1,1,4,1,0
1532406365538,-3,0,-1,-3,-4,-3,-1,0
1532406365543,0,-1,0,1,1,-1,-4,-2
1532406365548,-1,0,0,-2,-4,0,5,3
1532406365553,-1,-2,-4,-1,3,6,0,0
1532406365558,0,0,-2,-3,-1,-4,-4,-2
1532406365563,0,0,0,4,11,9,-5,0
1532406365568,0,0,-1,-5,-20,-12,4,0
1532406365573,0,-1,-1,0,2,-2,4,-1
1532406365578,-1,-2,-1,-2,-4,2,1,0
1532406365583,-1,0,-1,-2,0,-8,-5,-3
1532406365588,1,-1,-2,-2,5,3,1,-2
1532406365593,-2,0,-2,0,-4,2,-4,1
1532406365598,1,1,1,2,2,1,2,1
1532406365603,-2,-3,-1,-4,-8,1,4,0
1532406365608,0,1,0,-1,7,-6,-15,-1
1532406365613,-1,-3,-2,-6,-9,0,7,1
1532406365618,0,-1,0,4,6,1,2,-3
1532406365623,0,-2,-1,0,-1,-2,-5,-5
1532406365628,-1,0,0,-3,1,-1,-1,-2
1532406365633,-2,-4,-3,-3,4,4,-4,0
1532406365638,-2,-1,-1,1,-8,-8,-5,0
1532406365643,0,-1,0,0,0,1,3,1
1532406365648,-1,0,-2,-2,-6,-3,-3,-2
1532406365653,0,-2,1,2,3,0,2,-1
1532406365658,0,-1,-1,1,6,4,-3,0
1532406365663,-1,0,-1,-1,1,1,-3,-3
1532406365668,-2,-2,1,-2,-6,-8,1,-4
1532406365673,0,2,1,0,0,-1,-7,0
1532406365678,-1,-2,-1,2,6,7,3,-2
1532406365683,0,-3,-2,-7,-9,-15,-2,-1
1532406365688,0,-1,-1,1,2,11,3,2
1532406365693,0,0,1,4,2,-6,-8,-1
1532406365698,0,-2,0,0,-1,-3,0,-1
1532406365703,-2,-1,-2,0,11,9,5,0
1532406365708,1,-2,-2,-5,-11,-3,-4,-1
1532406365713,-2,-1,-1,0,-1,-4,0,-1
1532406365718,-1,-1,-1,-1,1,1,-1,-2
1532406365723,1,1,1,2,2,0,-5,-1
1532406365728,-2,-1,-1,-1,-1,-4,-3,-3
1532406365733,0,1,1,1,1,2,3,0
1532406365738,0,1,0,-4,-5,-4,-3,0
1532406365743,-1,-2,-2,-1,-2,3,-2,1
1532406365748,0,-1,-1,2,10,3,-1,1
1532406365753,-2,-3,-1,-4,-7,-2,-3,-3
1532406365758,0,-3,-2,-2,1,-3,3,1
1532406365763,-1,0,-1,-2,-6,-1,0,-1
1532406365768,0,-2,-1,-1,3,6,0,-1
1532406365773,1,0,0,0,2,-7,-10,-3
1532406365778,-1,0,-3,-3,-3,-6,2,-3
1532406365783,-3,-2,1,-1,-3,-1,2,0
1532406365788,-2,-2,-1,2,7,-2,2,-3
1532406365793,-1,-2,-2,-4,2,7,2,1
1532406365798,-1,-2,-1,-3,-6,-5,-14,-3
1532406365803,1,1,-1,-1,-2,-2,9,3
1532406365808,-1,-2,-1,-1,-3,0,-3,-1
1532406365813,0,0,-1,1,4,1,1,0
1532406365818,-1,0,-1,-2,-4,1,-3,-1
1532406365823,-1,-1,0,0,0,1,3,-4
1532406365828,0,-1,-1,0,2,-1,-3,1
1532406365833,-1,0,-3,-2,-5,-1,-1,-3
1532406365838,-1,0,0,-2,-1,1,-2,2
1532406365843,0,-1,-1,-1,-2,-1,-5,-1
1532406365848,0,-1,0,0,0,-1,0,-2
1532406365853,-1,-1,-1,0,-4,-2,-1,2
1532406365858,-1,-1,-1,-1,1,0,1,-2
1532406365863,0,-2,1,-1,3,-1,-5,-1
1532406365868,-1,1,0,4,1,-1,1,0
1532406365873,0,-1,-1,-5,1,-1,-2,-1
1532406365878,0,-1,-3,-4,-8,-1,-1,-2
1532406365883,0,0,-1,-1,1,0,-1,-1
1532406365888,-3,-3,-3,-1,-3,-3,-2,-2
1532406365893,0,0,3,6,4,0,1,-3
1532406365898,-1,0,2,0,2,1,2,-1
1532406365903,-4,-3,-5,-3,-2,0,-4,0
1532406365908,-1,0,2,0,-4,-3,-4,-1
1532406365913,0,-2,-4,-3,-2,1,1,-3
1532406365918,-1,1,0,0,6,2,1,-1
1532406365923,-2,0,-1,-2,-4,-9,-7,-2
1532406365928,-2,-1,1,1,6,-1,5,1
1532406365933,0,-2,0,-2,-6,3,-1,-2
1532406365938,-1,-2,-2,2,-3,-1,-1,-2
1532406365943,0,-1,-2,-1,-2,1,-1,-2
1532406365948,-1,-2,-2,-5,-5,0,-4,-3
1532406365953,-2,-1,0,2,1,0,1,2
1532406365958,-2,-3,-2,0,4,1,-3,0
1532406365963,-2,0,-1,-1,0,4,4,0
1532406365968,1,-2,-1,-2,-3,-5,-8,-3
1532406365973,-2,-1,-1,-6,-12,-10,-5,-1
1532406365978,-1,0,1,0,1,1,1,-2
1532406365983,0,-2,1,4,5,2,-2,1
1532406365988,1,0,0,1,2,2,2,0
1532406365993,0,-1,-2,-1,-2,-1,-1,-1
1532406365998,-1,-1,-1,-4,-2,0,-4,-1
1532406366003,1,-1,-1,0,1,-1,1,-4
1532406366008,0,0,0,0,-2,-2,-3,-2
1532406366013,0,-2,0,3,0,0,6,3
1532406366018,0,-3,-2,1,3,3,1,2
1532406366023,-1,-2,-1,-1,-8,-2,-1,1
1532406366028,-2,-3,-2,-1,-2,2,4,-1
1532406366033,0,2,0,-2,-1,-2,-4,-2
1532406366038,-2,-2,-2,-2,-3,-6,-4,-2
1532406366043,-1,-1,1,1,9,6,-5,-1
1532406366048,-1,0,-1,-6,-1,1,2,-3
1532406366053,1,-2,-1,-1,0,2,-2,-4
1532406366058,-1,-1,1,2,0,-1,4,-1
1532406366063,0,0,1,-1,1,-3,-5,-2
1532406366068,-1,-3,-2,-1,2,0,-3,-2
1532406366073,-1,-1,-1,-1,0,-1,-1,-1
1532406366078,0,0,0,3,-2,0,-2,-2
1532406366083,-1,0,-1,-1,3,-1,-3,1
1532406366088,0,-2,-3,-3,-5,-5,-1,3
1532406366093,0,-1,-2,0,-1,3,3,-1
1532406366098,-1,-1,-1,0,-6,-10,-4,-2
1532406366103,0,0,0,-1,-3,0,-3,-6
1532406366108,-1,-2,-1,-1,-4,2,-3,-3
1532406366113,-3,-3,-2,-2,0,-1,-1,-1
1532406366118,1,1,2,2,4,-2,-1,0
1532406366123,-2,-1,-4,-5,-6,-4,-3,0
1532406366128,-2,0,1,1,1,1,2,-1
1532406366133,0,-1,-1,-2,0,-1,-9,-1
1532406366138,0,0,0,-1,-5,-2,8,0
1532406366143,0,0,0,0,2,-2,-2,1
1532406366148,0,0,-1,0,3,-2,-2,-2
1532406366153,-1,-2,-1,-5,-10,-4,0,-2
1532406366158,-1,0,0,-3,1,2,-4,-3
1532406366163,-1,-3,-2,-3,-4,-1,1,-3
1532406366168,-2,0,0,0,1,-1,-2,0
1532406366173,-1,0,0,1,0,-4,-1,0
1532406366178,-2,0,1,-3,1,-1,-4,-1
1532406366183,-1,-1,-2,1,-3,0,2,-2
1532406366188,-1,1,-1,0,-1,0,-2,-2
1532406366193,-1,-1,0,0,5,0,-1,-2
1532406366198,-1,0,-1,-1,-8,3,-4,-2
1532406366203,-1,0,-3,-4,1,2,-1,-1
1532406366208,0,0,-1,-3,-6,-1,-3,-2
1532406366213,1,0,0,-1,-3,-2,2,0
1532406366218,-2,-1,1,0,1,0,2,-1
1532406366223,0,0,-1,1,3,2,-2,0
1532406366228,-2,-2,-2,-3,-1,-1,1,-1
1532406366233,-2,0,-1,-3,-1,0,-2,1
1532406366238,-1,-1,-2,-1,-4,-1,4,0
1532406366243,0,-1,-1,-4,2,-4,-4,-3
1532406366248,-2,-4,-1,-2,3,3,-1,-3
1532406366253,1,1,0,0,-9,-5,0,-2
1532406366258,0,-1,-1,-3,-3,-7,-4,-3
1532406366263,-2,0,-1,0,-1,-3,2,-3
1532406366268,1,2,0,3,3,1,-4,2
1532406366273,-1,-3,-2,-4,3,3,-2,-1
1532406366278,0,1,1,1,-5,-3,-1,1
1532406366283,0,-1,-1,0,-2,-1,0,-1
1532406366288,1,-1,-3,-6,-6,-5,-2,-2
1532406366293,-1,-1,-2,0,-3,-3,-3,-4
1532406366298,-1,-1,-2,-2,3,0,-3,0
1532406366303,0,-1,3,3,-1,-2,-1,-1
1532406366308,-2,-1,0,1,0,3,-4,0
1532406366313,-1,0,-1,0,2,-3,-3,-2
1532406366318,1,-1,-2,-2,-3,-1,0,-2
1532406366323,0,-1,0,1,1,1,1,-1
1532406366328,-1,-2,-2,-1,-2,-3,-1,-2
1532406366333,0,0,-2,-3,-5,4,8,0
1532406366338,-3,-1,0,4,7,1,-6,0
1532406366343,-1,-2,-2,-4,-7,-2,-2,-1
1532406366348,0,-1,-1,-1,-1,-2,1,-1
1532406366353,-1,0,1,3,2,0,2,0
1532406366358,-1,0,-1,0,2,0,-2,-2
1532406366363,-1,0,0,-2,-5,-3,-4,-1
1532406366368,-1,-2,-1,0,-2,-1,-2,-2
1532406366373,1,-1,-3,-2,2,-4,-5,-2
1532406366378,0,-1,-1,0,2,3,1,-2
1532406366383,-1,-2,0,0,-1,1,0,0
1532406366388,0,-1,-1,0,-1,1,-5,-2
1532406366393,-1,0,1,-2,-4,-5,-2,-2
1532406366398,-1,-3,-1,-3,2,1,1,0
1532406366403,-1,0,-1,-3,-2,-1,-1,-1
1532406366408,0,-1,-1,0,-2,0,1,1
1532406366413,-1,0,0,-1,-1,-1,-4,-4
1532406366418,-1,-1,0,3,1,-4,-3,-1
1532406366423,-2,0,0,-2,-6,-2,-1,-1
1532406366428,-1,-1,-2,-1,0,-1,-3,0
1532406366433,-1,-3,0,1,0,0,2,-1
1532406366438,0,0,0,-1,-5,3,2,-3
1532406366443,0,-1,0,3,14,2,-1,0
1532406366448,0,-1,0,-5,-14,-4,-3,-2
1532406366453,-1,0,-1,-2,-4,-4,-4,0
1532406366458,0,-1,0,1,3,-1,1,-1
1532406366463,1,1,-2,-5,-3,-3,-2,-2
1532406366468,-1,0,0,1,12,0,2,-3
1532406366473,0,0,-2,-1,-7,2,-2,-1
1532406366478,-2,-1,0,3,1,-2,1,2
1532406366483,-3,-1,-1,1,-2,3,-1,-1
1532406366488,1,0,0,-1,0,-1,-2,-2
1532406366493,-2,0,-2,-2,-2,-1,2,-3
1532406366498,-1,-1,-1,-1,1,-1,-7,-1
1532406366503,-3,-2,-2,0,-1,1,-2,0
1532406366508,-1,1,0,1,2,1,6,-1
1532406366513,0,-1,-1,3,0,0,0,1
1532406366518,-2,-2,-1,-2,1,1,3,0
1532406366523,-1,0,0,0,1,-3,-7,-2
1532406366528,-1,-1,-1,-1,-5,-2,0,0
1532406366533,-1,-1,-2,-2,9,1,-3,-1
1532406366538,-1,-1,-2,-3,-4,2,1,-1
1532406366543,0,0,0,-1,-5,-1,2,-1
1532406366548,-1,-1,0,4,5,0,-4,-1
1532406366553,0,-2,-3,-3,1,-3,-3,-2
1532406366558,-1,0,-2,-6,-8,-2,-3,-2
1532406366563,0,-2,1,1,4,3,3,0
1532406366568,-3,-1,-1,0,4,-2,-2,-1
1532406366573,0,-1,-1,2,3,2,1,-1
1532406366578,0,-1,-2,1,-2,-1,-1,-3
1532406366583,1,-1,0,-2,3,-2,-3,0
1532406366588,-2,-1,-3,-3,-1,0,-1,-2
1532406366593,-2,-1,0,1,-6,-4,-2,-1
1532406366598,0,-1,-1,3,0,0,0,0
1532406366603,-1,-1,-1,3,0,-1,-3,-3
1532406366608,1,-2,-3,-6,0,-2,-2,-1
1532406366613,0,0,1,-3,-8,-3,-3,0
1532406366618,-2,0,1,-2,4,1,-1,1
1532406366623,-1,-1,-2,1,-3,0,-1,-1
1532406366628,0,-2,-1,1,-1,-1,-1,-1
1532406366633,0,-2,0,-4,1,-1,-1,-1
1532406366638,0,-1,0,-3,-3,-3,-2,-3
1532406366643,-1,-1,-1,-3,-5,-1,0,1
1532406366648,-2,-2,0,-2,-1,-1,-2,-1
1532406366653,-1,-1,-1,2,6,8,-1,0
1532406366658,-1,1,-2,0,-8,-16,-3,-2
1532406366663,-1,0,-1,1,2,7,4,-2
1532406366668,-1,0,-1,-1,-1,1,-3,0
1532406366673,-1,-1,1,-1,-2,1,-2,-2
1532406366678,0,-1,-2,0,-2,0,-2,0
1532406366683,-1,-1,0,-2,-1,-5,0,-1
1532406366688,0,-2,0,0,-3,-3,0,0
1532406366693,-1,0,0,1,4,2,0,0
1532406366698,1,-2,0,0,6,3,-4,-3
1532406366703,-1,0,0,-6,-4,-4,-1,1
1532406366708,-1,-3,1,0,-2,2,0,-2
1532406366713,0,0,-2,1,-2,-5,-2,-1
1532406366718,0,2,0,2,4,0,-1,-2
1532406366723,0,-2,-2,1,0,-1,-2,-1
1532406366728,-2,-1,-1,-3,-5,-4,0,-1
1532406366733,0,-1,-2,-3,-3,-1,-1,-2
1532406366738,-1,-1,0,1,3,3,0,0
1532406366743,1,0,0,-1,-6,-4,-2,1
1532406366748,-1,1,-1,-1,-2,-2,-1,0
1532406366753,-2,-2,0,1,2,-1,0,-2
1532406366758,-1,-2,-1,1,2,3,-2,-3
1532406366763,0,0,-1,0,-1,0,-2,-2
1532406366768,0,0,-3,-3,-5,-3,-2,0
1532406366773,0,0,-2,-1,1,-1,-2,-1
1532406366778,0,0,1,0,0,2,0,1
1532406366783,-1,-2,0,0,-1,-1,0,-1
1532406366788,-1,0,-1,1,0,-1,-2,-2
1532406366793,-1,1,-1,0,3,-1,1,-2
1532406366798,-1,-3,-3,-6,-10,-5,-3,-1
1532406366803,0,1,-1,0,4,5,0,-2
1532406366808,1,-1,-1,1,3,5,-1,-2
1532406366813,-2,0,-1,-1,-6,-5,-1,0
1532406366818,0,-2,-1,0,4,-3,-1,0
1532406366823,-2,-1,-2,-1,-2,-3,1,2
1532406366828,0,-1,-1,-1,2,1,0,1
1532406366833,0,0,1,2,-1,-2,0,0
1532406366838,0,-1,0,1,2,-1,-1,0
1532406366843,0,-2,-1,0,3,4,-2,-4
1532406366848,0,-1,-1,-2,-2,-6,0,-3
1532406366853,2,0,0,-3,-5,1,-2,-3
1532406366858,-1,-2,-2,-1,-1,0,-1,1
1532406366863,-1,-1,-1,1,-7,-4,-2,0
1532406366868,0,2,0,2,2,-4,1,1
1532406366873,-1,-1,-1,-2,-2,0,-2,-1
1532406366878,0,0,-2,0,-6,-1,1,-1
1532406366883,-2,-1,-1,-2,2,-3,-1,0
1532406366888,-1,-1,-2,-3,-1,-1,-3,-2
1532406366893,-1,-1,-2,-3,-2,-5,-3,0
1532406366898,1,0,-1,1,-1,3,-1,-1
1532406366903,-1,-1,-1,0,0,-2,0,-2
1532406366908,-2,-2,-2,-2,-1,0,0,-3
1532406366913,0,-3,-1,0,4,1,0,1
1532406366918,-3,-1,-1,-1,-4,-5,-3,-2
1532406366923,-1,0,-2,-2,-1,-1,-2,-1
1532406366928,-1,-2,1,-1,-1,2,-3,0
1532406366933,0,-1,-1,1,-2,-1,0,-1
1532406366938,0,0,-1,-1,5,-1,-2,-2
1532406366943,0,0,-1,-1,-2,-1,0,-1
1532406366948,0,0,0,1,1,-2,-2,-1
1532406366953,0,0,0,-3,-4,-2,-2,-3
1532406366958,0,0,0,0,-2,0,2,0
1532406366963,-1,0,-1,-1,0,-1,-1,0
1532406366968,0,-2,0,-1,-1,-2,-3,-1
1532406366973,-1,-1,0,1,2,2,-1,0
1532406366978,0,0,0,-1,2,2,1,0
1532406366983,0,-1,0,-3,-4,1,-1,-2
1532406366988,0,-1,-1,0,0,-2,-3,0
1532406366993,-1,0,-1,3,8,0,-1,-2
1532406366998,-1,-2,-2,-3,0,-1,-4,-2
1532406367003,0,0,-1,1,-4,-7,0,-1
1532406367008,-1,-2,-1,-4,-2,1,-1,-3
1532406367013,0,0,-2,-3,-4,-2,5,1
1532406367018,-1,-1,0,1,2,2,-6,0
1532406367023,0,0,0,2,4,2,1,1
1532406367028,0,0,-1,1,1,1,0,-4
1532406367033,0,0,-2,-5,-2,-1,-1,1
1532406367038,0,-1,0,-4,-6,-4,2,-1
1532406367043,0,-1,-1,-2,1,-1,-2,-4
1532406367048,-1,-1,0,2,2,-2,-1,0
1532406367053,-1,0,0,2,1,1,1,0
1532406367058,-1,2,0,1,-2,-4,-2,-1
1532406367063,-2,0,-2,-2,1,1,-2,2
1532406367068,0,-1,1,-1,1,-1,1,-1
1532406367073,0,0,0,2,-3,-5,-3,-5
1532406367078,-1,-2,-3,-5,-7,-2,-3,0
1532406367083,0,-1,-1,-2,-2,0,-3,-3
1532406367088,-3,0,-1,-4,-3,-1,-2,2
1532406367093,1,-2,-1,0,2,0,-4,1
1532406367098,-1,-2,2,3,1,-2,-4,-1
1532406367103,0,0,-2,-2,-1,-1,1,0
1532406367108,-1,0,-1,-2,-6,0,0,-2
1532406367113,-2,-1,-2,-4,0,-3,-2,-2
1532406367118,-1,-1,0,2,2,7,1,-3
1532406367123,-1,-2,0,2,2,3,-3,-1
1532406367128,0,0,0,0,-1,-7,-1,-1
1532406367133,-1,0,-1,-2,-1,0,0,1
1532406367138,1,0,-3,-3,-5,-3,2,1
1532406367143,1,-1,1,-2,-1,-2,0,-3
1532406367148,-1,0,-1,6,4,4,-1,-1
1532406367153,0,-1,0,-3,-3,-3,-4,-2
1532406367158,0,0,-2,-2,-1,-7,0,-1
1532406367163,-1,-2,0,-1,-2,1,-1,-2
1532406367168,-1,-1,-2,-2,-6,-2,0,-1
1532406367173,-1,-1,-1,2,3,4,-2,-4
1532406367178,-1,1,1,-1,0,0,1,-1
1532406367183,0,0,-1,0,-3,-3,-5,-1
1532406367188,-2,-2,-1,-2,-2,-2,2,-3
1532406367193,1,-1,-1,0,0,8,0,-1
1532406367198,-2,-1,-1,2,-4,-2,-1,-1
1532406367203,-2,1,-1,-2,-2,-3,1,0
1532406367208,0,0,-1,-1,0,0,-4,-1
1532406367213,0,-2,-2,-1,-2,-9,-1,-1
1532406367218,-1,-1,1,3,4,7,3,-1
1532406367223,0,-1,-2,-5,1,-5,-1,-1
1532406367228,-1,-1,-1,-1,-3,2,-3,-1
1532406367233,-1,-2,-1,-4,-6,-12,0,1
1532406367238,0,-1,-1,-2,-1,-7,-4,-3
1532406367243,-1,1,0,3,1,-5,-3,-3
1532406367248,1,0,0,1,9,22,4,0
1532406367253,-1,-2,-1,-2,-5,-4,-2,-2
1532406367258,0,0,1,3,2,11,2,-2
1532406367263,-1,0,1,-2,-2,-10,-3,0
1532406367268,-1,0,0,-4,-4,20,5,-2
1532406367273,0,0,-1,1,-3,-3,-4,0
1532406367278,-1,-1,-5,-1,0,-7,0,-1
1532406367283,-1,0,3,-4,0,3,-1,0
1532406367288,-2,-2,-7,-2,0,-14,-11,-3
1532406367293,-1,-1,2,-3,-6,-10,-1,-1
1532406367298,-1,-2,-1,0,1,-1,-4,-1
1532406367303,1,-2,-1,0,1,5,4,-2
1532406367308,-1,0,-1,-2,-2,-9,-12,-1
1532406367313,1,-2,-1,-2,2,6,11,0
1532406367318,0,0,-1,-1,-1,-5,-5,-2
1532406367323,0,0,1,4,2,8,3,0
1532406367328,0,-1,-1,0,2,-3,-1,0
1532406367333,-2,-3,-3,-6,-3,6,-1,1
1532406367338,-2,0,4,-4,-2,-3,-5,0
1532406367343,-1,-2,-7,-2,-2,3,-4,-1
1532406367348,0,-1,3,0,2,1,5,-1
1532406367353,-1,-1,0,4,4,-4,-6,0
1532406367358,0,-1,-1,-4,-7,-11,-1,-2
1532406367363,-1,-1,0,-2,-3,8,0,-3
1532406367368,1,0,-2,-2,2,-2,0,-2
1532406367373,0,0,-3,0,-4,2,2,0
