1532061680113,-2,-1,-15,-9,-2,1,-2,-2
1532061680118,1,7,16,3,-1,-2,1,-1
1532061680123,-10,-7,-15,0,2,5,2,-3
1532061680128,4,5,3,2,2,-1,-2,-1
1532061680133,9,-4,-10,-4,-5,-4,-5,0
1532061680138,-8,3,8,2,-1,-2,-1,-1
1532061680143,-6,-11,-13,0,5,8,4,1
1532061680148,13,3,1,4,6,12,4,4
1532061680153,-4,-1,-3,-6,-6,-11,-3,-3
1532061680158,-5,1,6,1,-4,-2,-3,-4
1532061680163,-3,1,-4,-2,3,2,0,-1
1532061680168,5,5,4,1,2,-2,-1,1
1532061680173,-4,-10,-4,-5,2,0,-3,-4
1532061680178,-6,-2,-2,-3,-4,-6,-3,-4
1532061680183,4,1,2,2,-2,2,-2,-1
1532061680188,3,7,0,-2,-9,-9,-5,-6
1532061680193,-6,0,1,-4,0,8,5,5
1532061680198,3,0,1,4,9,14,6,3
1532061680203,-2,1,6,-2,0,-3,-1,2
1532061680208,6,-1,-2,2,-2,-5,-3,1
1532061680213,-5,6,4,0,-3,-3,-5,-5
1532061680218,4,6,-3,-3,-5,-2,-1,-1
1532061680223,-6,-5,-6,-4,-7,-9,-4,-3
1532061680228,-2,-5,-4,-2,0,1,2,-1
1532061680233,20,5,0,2,6,4,1,3
1532061680238,-19,-14,0,-3,-8,-9,-6,-2
1532061680243,-1,1,2,2,3,4,-2,-2
1532061680248,3,-1,-2,1,4,6,5,4
1532061680253,-6,-3,-4,2,2,3,1,0
1532061680258,4,3,7,2,0,-5,0,1
1532061680263,-4,1,-1,-5,-8,-12,-3,-4
1532061680268,-2,-3,-3,1,-3,-5,-5,-3
1532061680273,2,0,5,0,-3,4,1,0
1532061680278,1,4,1,1,7,0,0,0
1532061680283,-2,-6,3,-2,-6,-7,-3,-4
1532061680288,-4,-1,3,4,9,18,6,3
1532061680293,7,7,-2,-1,1,-3,-1,-3
1532061680298,2,-5,0,-4,-3,-3,-2,0
1532061680303,5,0,-2,-1,-2,2,-1,0
1532061680308,-8,-2,-3,-2,1,-2,-3,-4
1532061680313,-1,2,0,1,-3,0,-1,0
1532061680318,-2,-2,-3,-2,-2,1,1,-2
1532061680323,-1,7,-2,-3,-2,-8,-1,2
1532061680328,0,-5,1,-3,-7,-6,-5,-2
1532061680333,-2,-3,-5,-1,2,1,2,0
1532061680338,5,0,1,2,0,5,-1,-2
1532061680343,-9,-3,-2,-2,7,5,0,-3
1532061680348,0,-1,-2,-1,-1,-5,0,-3
1532061680353,-2,-2,-2,-1,-3,-6,-5,1
1532061680358,8,2,-2,3,2,1,1,2
1532061680363,-1,3,3,4,0,5,3,-2
1532061680368,-1,-6,-1,-1,2,0,-2,2
1532061680373,-6,-1,0,-1,-2,-5,-2,-9
1532061680378,1,0,-2,-2,-2,-4,-2,-1
1532061680383,-1,-3,-6,-1,-5,-6,-1,-2
1532061680388,3,1,0,1,-4,-2,-3,0
1532061680393,-3,-2,-3,-1,5,4,1,1
1532061680398,-1,-1,-4,-1,-5,-9,-8,0
1532061680403,3,1,7,2,9,18,8,1
1532061680408,0,0,3,0,1,0,2,1
1532061680413,-2,-2,5,-1,-6,-3,-1,-1
1532061680418,-3,-1,4,2,0,-4,1,-3
1532061680423,0,-2,-5,-3,-9,-8,-4,0
1532061680428,-5,-1,-4,-7,-5,-5,-2,1
1532061680433,3,2,-1,1,-1,-2,-2,-2
1532061680438,-1,-2,2,-5,-1,3,0,-1
1532061680443,-3,-3,7,2,1,-6,-2,2
1532061680448,8,0,0,-2,1,3,0,-3
1532061680453,-9,-1,2,-2,1,-2,-1,0
1532061680458,-6,2,4,2,-2,-4,-4,-6
1532061680463,0,-1,-1,-3,1,2,0,1
1532061680468,-2,2,-6,0,-2,1,-1,-1
1532061680473,-4,-2,-13,0,0,1,-2,0
1532061680478,2,0,-17,3,6,6,1,4
1532061680483,-2,2,-11,-1,1,-1,2,4
1532061680488,-2,-2,-5,-4,-6,-3,0,-4
1532061680493,-1,-1,-6,6,4,-4,0,-2
1532061680498,-5,-5,-4,-4,-4,-9,-3,-1
1532061680503,2,0,-2,-3,-6,3,-7,0
1532061680508,1,4,1,0,2,7,9,8
1532061680513,-1,-1,3,3,-3,-10,-3,-2
1532061680518,13,4,0,4,5,4,3,6
1532061680523,-2,-2,-1,-2,1,1,-3,3
1532061680528,-9,-7,1,1,-2,-2,-8,-19
1532061680533,-1,2,2,-5,-2,-2,2,1
1532061680538,-1,-2,1,2,4,11,-1,-1
1532061680543,2,0,-1,-4,-2,-4,0,0
1532061680548,3,0,5,0,-1,-8,-4,5
1532061680553,-1,-3,-2,2,4,7,2,0
1532061680558,-5,-1,-1,-3,-3,-3,-4,-7
1532061680563,4,-1,-1,0,-1,4,4,-1
1532061680568,-3,-1,-2,-2,-4,-8,2,-2
1532061680573,9,1,3,2,1,2,-5,2
1532061680578,-20,-3,-4,-3,0,4,4,-2
1532061680583,1,1,-3,-4,-1,-2,0,-2
1532061680588,-4,2,-4,4,6,-5,-4,1
1532061680593,5,-1,0,-13,-8,-1,7,4
1532061680598,-2,-4,2,9,-4,-3,-7,-6
1532061680603,-7,-5,0,2,-4,-6,-1,-4
1532061680608,3,6,0,-13,-10,-8,2,2
1532061680613,5,8,1,1,10,17,-1,1
1532061680618,-1,-11,-3,-4,4,13,11,7
1532061680623,1,-4,-1,-2,-3,-11,-9,-8
1532061680628,-4,-3,-2,2,2,-2,-15,-10
1532061680633,-3,2,-1,-4,2,6,9,4
1532061680638,7,7,4,-1,-5,-9,-3,-4
1532061680643,-7,-4,-2,3,4,2,5,5
1532061680648,6,1,2,-2,-6,-3,-7,3
1532061680653,-7,-1,3,0,-5,-6,-6,-7
1532061680658,2,7,3,1,2,1,4,2
1532061680663,0,-15,-6,-6,-3,-5,-3,-3
1532061680668,-6,-6,-3,-1,-4,-5,1,-1
1532061680673,-1,-2,1,3,2,-3,-2,-1
1532061680678,3,1,-2,-13,-8,3,0,0
1532061680683,1,9,2,5,2,-4,2,-1
1532061680688,2,5,-1,-2,10,10,6,3
1532061680693,6,-10,-2,0,-4,0,-1,1
1532061680698,-19,-14,-6,3,5,0,1,-4
1532061680703,9,9,4,3,7,5,-1,-3
1532061680708,-22,-12,-2,-4,-11,-10,0,-3
1532061680713,8,8,0,-1,-4,-7,-10,-5
1532061680718,5,-5,1,-4,0,1,-3,1
1532061680723,6,0,1,10,5,-1,1,3
1532061680728,23,8,2,-5,2,12,20,18
1532061680733,-24,-1,-1,1,-7,-15,-8,-14
1532061680738,12,31,4,-4,-5,-6,-10,-3
1532061680743,-23,-29,-4,-5,6,10,-3,-1
1532061680748,6,-21,-10,9,7,2,-5,-4
1532061680753,0,-5,-1,9,1,6,3,2
1532061680758,11,28,1,13,3,-7,-19,-3
1532061680763,-5,29,2,-24,-5,1,18,9
1532061680768,-4,-44,-11,-5,2,3,0,-5
1532061680773,12,-6,1,12,-13,-6,-5,1
1532061680778,-13,-11,2,17,-2,-5,4,4
1532061680783,3,18,3,-8,-4,-1,-11,-18
1532061680788,-1,11,1,8,5,1,-6,-1
1532061680793,2,-7,-1,-17,3,-1,-25,1
1532061680798,-20,-14,-5,-26,-7,-3,43,-2
1532061680803,28,7,-1,11,-4,-6,-15,6
1532061680808,-11,6,3,-13,-4,-2,-1,-5
1532061680813,12,5,2,5,11,5,0,7
1532061680818,0,0,0,3,9,4,-3,-2
1532061680823,-2,-5,4,7,-2,-1,1,-2
1532061680828,-8,26,9,-1,4,-1,-5,2
1532061680833,-7,1,-2,-2,1,-1,5,-3
1532061680838,-1,-34,-11,1,-3,3,-5,-5
1532061680843,0,-2,-5,-7,-2,-6,-3,-10
1532061680848,11,9,2,0,-10,-8,-6,6
1532061680853,-10,0,0,6,6,1,7,-5
1532061680858,-7,-2,-5,-7,6,5,2,3
1532061680863,-6,-3,-1,-14,-5,0,-3,1
1532061680868,-13,3,1,25,3,-1,2,-5
1532061680873,12,-1,0,-23,-5,5,8,11
1532061680878,26,-8,-1,4,-1,-1,-16,-10
1532061680883,-9,2,2,-7,-5,-5,-1,-8
1532061680888,-17,-2,-4,7,4,5,-1,-8
1532061680893,-17,-6,-4,-10,-6,-3,4,-8
1532061680898,20,10,9,20,6,3,0,8
1532061680903,-16,-14,-2,-10,-5,-1,2,8
1532061680908,13,12,9,10,-2,-1,-3,-4
1532061680913,0,0,2,-4,-11,-7,-1,-1
1532061680918,0,1,19,8,1,-2,-5,4
1532061680923,12,5,26,15,12,4,2,0
1532061680928,-12,-23,2,-33,-14,-7,3,5
1532061680933,-3,-1,-11,4,3,5,3,2
1532061680938,-9,-2,-18,-7,2,3,-1,-5
1532061680943,4,2,-3,42,1,0,-1,3
1532061680948,8,3,-13,-43,-3,0,-4,-3
1532061680953,7,1,-1,14,-2,-7,-3,-2
1532061680958,-10,-1,-11,-12,-10,-3,-1,0
1532061680963,15,-1,-13,-5,4,1,-2,-1
1532061680968,-8,1,-3,11,4,-1,-1,0
1532061680973,-3,-1,-5,-8,-1,-3,1,-4
1532061680978,-17,-3,2,-1,-6,-5,1,2
1532061680983,22,-1,2,20,10,8,3,4
1532061680988,-19,3,2,19,6,5,0,-4
1532061680993,-3,3,-7,-27,-7,-6,-8,-4
1532061680998,-4,-8,-8,-31,-19,-10,-3,-3
1532061681003,3,2,-5,-4,7,7,8,5
1532061681008,4,-2,-1,-1,-2,4,3,0
1532061681013,-10,-5,5,25,14,2,0,-3
1532061681018,23,6,-6,-11,-5,-9,-4,5
1532061681023,-30,-5,-10,-18,-18,-17,-9,-11
1532061681028,9,2,-2,10,2,7,2,2
1532061681033,18,4,4,4,2,-2,1,4
1532061681038,-31,-11,-1,10,-3,-6,-3,-3
1532061681043,20,0,-6,-15,1,6,1,4
1532061681048,-33,-11,-3,1,-1,-7,-5,-15
1532061681053,15,6,-4,1,-2,-1,2,4
1532061681058,-1,3,2,-9,5,8,3,2
1532061681063,-6,-1,-1,-7,-3,0,-1,0
1532061681068,22,1,1,10,9,2,0,2
1532061681073,-1,0,3,33,0,-4,0,1
1532061681078,-3,3,1,-20,-7,-2,1,-7
1532061681083,14,-4,-3,14,4,0,-1,2
1532061681088,-24,-5,-6,-51,-25,-11,-5,-5
1532061681093,-6,1,2,11,1,-1,0,-3
1532061681098,14,6,5,13,15,10,2,-1
1532061681103,-29,-9,2,17,5,8,-1,-3
1532061681108,24,2,0,20,-5,-2,-2,3
1532061681113,-2,-5,1,3,6,1,0,-1
1532061681118,-4,-8,-6,-25,0,3,-1,0
1532061681123,1,-3,-1,-19,-1,1,3,-3
1532061681128,27,10,-2,-45,-9,-4,-1,3
1532061681133,-7,-3,-1,0,-4,-3,-1,-5
1532061681138,21,2,6,60,2,-6,-2,5
1532061681143,-32,-4,0,0,1,1,-5,-11
1532061681148,9,0,2,16,6,-1,1,4
1532061681153,-4,-2,-1,-32,-5,5,1,-3
1532061681158,3,1,3,11,2,-2,-2,0
1532061681163,4,2,-9,-55,-17,-8,-1,1
1532061681168,26,7,1,1,4,3,1,4
1532061681173,-44,-13,-3,14,-1,-6,-6,-9
1532061681178,-3,-2,1,-18,-6,-1,0,-3
1532061681183,1,2,3,23,-3,1,-1,1
1532061681188,3,-3,2,18,9,3,-1,-2
1532061681193,13,-1,-1,-14,-3,-5,-2,5
1532061681198,-14,-4,-2,-9,-1,2,0,-3
1532061681203,-7,4,-1,2,1,-10,-3,1
1532061681208,-1,-1,-3,2,-2,6,1,-4
1532061681213,2,-4,-1,12,1,16,6,2
1532061681218,-6,5,1,-2,7,2,0,-1
1532061681223,5,-6,-7,-5,-4,-7,-4,-2
1532061681228,-12,-7,0,15,3,-7,-5,-1
1532061681233,36,7,-3,-20,-15,-9,-2,2
1532061681238,-68,-18,-3,-32,0,-7,-4,-8
1532061681243,-2,4,1,24,2,3,-7,-3
1532061681248,-2,0,0,-3,1,0,11,4
1532061681253,-1,-2,-1,-6,7,8,4,5
1532061681258,38,15,-2,5,2,0,-3,-2
1532061681263,0,-7,1,16,-5,-11,-5,-2
1532061681268,-32,-11,1,-14,-4,-3,-7,-7
1532061681273,29,13,3,3,2,2,2,4
1532061681278,7,1,3,11,1,-3,2,3
1532061681283,-15,-5,1,-1,4,14,5,0
1532061681288,22,3,0,5,5,0,2,5
1532061681293,-17,-7,-2,-7,-1,-1,-1,-5
1532061681298,3,-3,0,2,-3,-1,-4,-2
1532061681303,1,-8,1,-6,-11,-9,-2,0
1532061681308,15,4,1,5,-4,-4,-3,2
1532061681313,-32,-4,-1,-5,-2,-2,0,-7
1532061681318,0,15,3,3,-1,-5,-2,0
1532061681323,13,-15,-3,1,-3,-14,-8,-1
1532061681328,-11,-13,-3,-27,-7,6,2,-4
1532061681333,-7,2,-3,27,10,12,6,0
1532061681338,19,23,5,4,6,3,-2,3
1532061681343,3,34,10,-2,1,2,7,3
1532061681348,-20,-54,-19,-1,1,-5,-6,-9
1532061681353,9,-2,1,-7,-7,-12,-8,-4
1532061681358,-30,-13,-3,-7,-2,2,-1,-3
1532061681363,36,24,2,-23,1,7,7,7
1532061681368,-12,15,8,32,0,-8,-3,0
1532061681373,2,-4,-3,-12,-4,2,-5,0
1532061681378,-8,-1,-2,15,3,5,1,-6
1532061681383,-10,-8,0,9,0,-9,-4,-3
1532061681388,6,12,0,-24,-10,1,1,-2
1532061681393,-2,-7,-4,-3,4,-3,2,3
1532061681398,7,-11,-1,1,1,9,2,5
1532061681403,-13,-16,-5,3,-1,-1,-2,-9
1532061681408,1,2,-3,7,6,4,0,1
1532061681413,18,16,1,-9,-14,-14,-7,1
1532061681418,-48,-19,-5,-4,-5,-7,-6,-7
1532061681423,-12,1,-2,7,3,1,-1,-3
1532061681428,11,18,5,-3,3,10,5,5
1532061681433,-15,-8,1,-3,3,4,4,3
1532061681438,16,-17,-4,8,1,1,1,-1
1532061681443,-6,-18,-5,-3,-9,-11,-7,-5
1532061681448,-12,3,-1,3,-2,-5,-5,-3
1532061681453,7,5,0,-6,3,9,5,1
1532061681458,12,7,2,4,-3,-3,-2,2
1532061681463,-9,4,-1,0,0,-1,-2,-2
1532061681468,11,4,2,-2,-3,-1,0,-1
1532061681473,-4,-4,-3,-1,1,0,0,0
1532061681478,14,5,-1,1,-8,-13,-4,-3
1532061681483,-12,-8,0,-1,5,9,4,3
1532061681488,-12,-2,-3,-5,-5,-10,-4,-5
1532061681493,-2,-4,-1,10,-9,-21,-12,-7
1532061681498,2,2,1,4,0,20,12,2
1532061681503,3,0,0,-4,22,25,15,6
1532061681508,6,-2,-3,11,4,-4,-3,0
1532061681513,-14,-7,1,-5,-4,-5,-6,-4
1532061681518,12,1,-3,-8,-15,-23,-7,-2
1532061681523,11,5,1,-3,-4,-1,-3,2
1532061681528,-7,-2,5,8,2,8,5,-2
1532061681533,2,5,-1,-2,0,1,-17,-6
1532061681538,14,2,1,-3,2,-1,13,9
1532061681543,0,-3,-4,-2,-7,-5,4,-3
1532061681548,13,8,2,-2,-1,-5,-3,0
1532061681553,-19,-11,-1,0,-5,-2,1,-7
1532061681558,10,8,-1,-5,-2,2,-3,1
1532061681563,0,1,0,-3,0,-3,-1,0
1532061681568,0,3,-2,3,2,7,2,-1
1532061681573,9,5,0,-2,5,4,6,4
1532061681578,-6,-8,-5,-2,2,-1,-4,-2
1532061681583,-1,-3,-2,-3,-8,-12,-6,-5
1532061681588,-9,-5,-2,-2,-5,-5,-6,-2
1532061681593,0,0,-1,1,4,6,2,1
1532061681598,-9,-7,-3,-7,-1,-1,-4,-3
1532061681603,6,-4,-2,-3,-8,-10,-5,-1
1532061681608,-2,0,1,1,3,8,-2,2
1532061681613,-5,-1,-1,-1,1,-2,6,-1
1532061681618,4,1,2,1,1,-2,-7,2
1532061681623,-4,3,-4,-1,6,15,2,-4
1532061681628,3,-3,1,2,6,1,-2,-1
1532061681633,-2,0,1,-1,4,9,14,4
1532061681638,-1,-2,2,0,-1,2,-4,-2
1532061681643,5,3,2,3,0,-5,-3,-2
1532061681648,0,6,-2,-10,-9,-9,-13,0
1532061681653,12,4,1,-1,-4,-2,2,-1
1532061681658,-19,1,0,-1,1,1,4,-2
1532061681663,-7,-7,-1,1,1,-2,-6,0
1532061681668,-2,1,0,1,-3,-7,-4,-3
1532061681673,13,0,1,1,-2,4,-3,3
1532061681678,-6,-9,-2,-1,2,0,4,-2
1532061681683,14,-1,2,-1,-5,-5,0,4
1532061681688,-7,-18,-5,-1,6,7,3,1
1532061681693,-8,7,-3,2,3,4,1,-2
1532061681698,5,-1,0,0,1,-1,-5,-6
1532061681703,0,11,-2,-2,-5,-5,-2,1
1532061681708,-7,-1,-1,-8,-9,-12,0,-1
1532061681713,-9,-10,-3,-2,-6,-5,-7,-5
1532061681718,7,1,1,4,9,8,3,3
1532061681723,-3,-1,-1,-8,-2,-1,2,3
1532061681728,3,5,2,3,3,0,1,-1
1532061681733,3,2,-1,-2,-9,-8,-6,-1
1532061681738,-4,1,0,-4,-7,-6,-6,-2
1532061681743,-2,-1,2,5,14,19,10,2
1532061681748,4,0,-1,5,5,6,5,0
1532061681753,-8,-10,-2,-1,-2,-13,-3,-3
1532061681758,9,16,0,-2,-9,-4,-3,-2
1532061681763,-7,-2,0,-2,-3,-4,-4,-2
1532061681768,2,-14,-9,0,-5,-6,-1,0
1532061681773,8,8,0,-3,0,5,4,3
1532061681778,-12,-26,-7,-2,3,1,-6,-5
1532061681783,0,11,0,-2,-2,-5,-5,-2
1532061681788,3,14,4,1,0,5,7,2
1532061681793,4,46,7,0,-2,-3,-3,2
1532061681798,-2,-48,-1,-2,0,-2,4,1
1532061681803,-20,-20,-11,-4,-7,0,-6,-13
1532061681808,0,-12,0,0,-3,-4,-2,-1
1532061681813,-2,-1,-4,0,1,-1,-5,-4
1532061681818,9,32,6,2,-3,-4,-3,4
1532061681823,5,-3,0,-1,1,3,5,2
1532061681828,1,3,1,-1,6,1,0,0
1532061681833,0,-1,-1,0,2,8,5,3
1532061681838,-1,2,-3,0,-3,-8,-5,-1
1532061681843,-1,-8,-1,3,-4,2,1,-1
1532061681848,1,11,0,2,4,4,4,3
1532061681853,-3,-15,-4,-7,-6,-3,-8,-5
1532061681858,1,-3,-3,-4,-5,-8,-3,1
1532061681863,1,4,1,6,1,2,10,11
1532061681868,0,1,-1,1,2,8,10,-11
1532061681873,-3,-10,-2,7,9,1,-22,-6
1532061681878,0,2,-2,-2,-10,-3,22,0
1532061681883,3,6,-2,-10,-3,-9,-18,3
1532061681888,0,-1,0,-3,-9,-5,-6,0
1532061681893,-5,-19,-3,0,0,0,6,-1
1532061681898,-4,-6,-1,5,4,3,-8,-3
1532061681903,4,7,1,3,4,5,2,-3
1532061681908,5,1,1,-6,-6,-6,1,6
1532061681913,-2,2,0,-8,-7,-8,-2,-2
1532061681918,-3,-28,-5,-4,4,5,-2,1
1532061681923,-1,-16,-2,2,-5,-3,5,-2
1532061681928,-13,-12,-5,-6,-5,-3,-11,-7
1532061681933,-2,-4,4,0,9,0,2,2
1532061681938,-4,7,3,13,-11,2,4,6
1532061681943,-6,-30,-7,-30,-13,-3,-2,0
1532061681948,-3,7,2,-5,8,9,4,-3
1532061681953,3,14,2,-1,-2,5,8,5
1532061681958,3,18,9,5,7,4,0,-5
1532061681963,-3,-27,-2,9,-3,-10,-4,0
1532061681968,-2,-9,-5,-8,-6,-3,-8,-7
1532061681973,-5,-11,-5,-4,7,6,1,-5
1532061681978,1,18,1,-3,-6,-1,-7,2
1532061681983,11,6,2,8,9,11,11,7
1532061681988,-1,-3,-2,-4,-4,-7,0,-1
1532061681993,2,-2,1,2,-2,-4,-1,2
1532061681998,-1,-2,-2,-7,3,4,3,2
1532061682003,-7,8,3,15,-11,-12,-10,-6
1532061682008,3,9,5,6,3,1,3,4
1532061682013,-4,-4,-1,-13,-1,0,-4,-2
1532061682018,-2,0,-2,-4,3,6,1,0
1532061682023,-1,-14,-2,-8,2,3,0,0
1532061682028,2,-2,-2,3,5,2,3,-1
1532061682033,-3,-12,-4,-1,-8,-7,-4,-3
1532061682038,2,10,1,-6,-2,3,5,0
1532061682043,1,9,2,7,5,-1,0,-1
1532061682048,1,-13,-2,17,-5,-3,-8,-3
1532061682053,-11,-7,-4,-12,1,5,3,-5
1532061682058,-1,-11,-4,8,-3,-5,-5,-2
1532061682063,-5,12,-5,-10,-8,-5,-1,-3
1532061682068,3,10,2,-6,-4,-5,-4,1
1532061682073,6,6,2,8,-8,-10,-3,3
1532061682078,3,13,3,-1,5,0,4,5
1532061682083,-5,-14,-1,11,8,11,5,-1
1532061682088,-6,-26,-11,-20,6,-3,-1,-5
1532061682093,1,8,-1,4,-4,-4,-3,-1
1532061682098,-3,-2,-2,-14,-14,-19,-6,-2
1532061682103,0,9,3,2,-8,-4,-3,-2
1532061682108,6,12,2,-14,14,11,8,2
1532061682113,0,0,0,-1,-4,3,-1,2
1532061682118,-10,-35,-6,10,-7,-4,-4,-2
1532061682123,-12,6,-4,-6,-6,-5,-7,-8
1532061682128,1,7,4,3,1,1,-2,0
1532061682133,3,6,-4,-23,3,3,5,1
1532061682138,2,-4,0,4,-2,-1,-1,2
1532061682143,-3,-10,-3,-12,-1,-1,-1,-4
1532061682148,3,6,-1,5,-5,-4,1,1
1532061682153,1,7,6,0,6,2,-1,-1
1532061682158,-1,-11,-3,-1,3,4,-1,-1
1532061682163,2,23,1,9,3,1,-3,-1
1532061682168,3,-2,2,-7,-4,-3,0,1
1532061682173,-9,-47,-10,-6,-5,-2,-4,-1
1532061682178,-7,-4,-2,11,7,5,0,-5
1532061682183,4,-3,-2,-10,0,2,0,0
1532061682188,-1,18,1,6,-9,-6,-3,-1
1532061682193,6,-1,0,4,0,4,2,3
1532061682198,0,-6,-5,-12,0,-1,0,-2
1532061682203,-4,-3,-4,-1,-2,-8,-6,-4
1532061682208,-3,3,0,-4,-5,-3,-4,-3
1532061682213,0,6,2,5,-2,6,0,-1
1532061682218,6,19,4,3,22,18,12,8
1532061682223,7,-8,-2,-6,4,-2,1,2
1532061682228,-17,-19,-9,4,-5,-10,-7,-7
1532061682233,-10,-41,-10,9,-11,-7,-4,-9
1532061682238,2,34,8,14,1,-1,-1,-4
1532061682243,3,-24,-2,-15,-7,-6,3,3
1532061682248,-3,-13,-4,-14,-7,1,-4,-1
1532061682253,-4,27,4,20,4,1,0,-2
1532061682258,2,-3,-4,2,-7,5,-1,4
1532061682263,-1,11,1,5,1,-7,-5,-4
1532061682268,0,-17,-4,-25,-7,-3,1,-1
1532061682273,-3,-1,2,-3,5,1,0,-4
1532061682278,-1,-6,-3,12,0,-3,0,-2
1532061682283,1,16,6,5,0,-7,-1,4
1532061682288,2,9,5,18,-4,2,-1,2
1532061682293,4,4,-1,-13,14,13,6,1
1532061682298,-6,-26,-7,-32,4,-3,-3,-4
1532061682303,-3,1,0,11,-5,1,-2,-2
1532061682308,1,9,2,12,-3,-5,-1,0
1532061682313,2,11,-2,-3,-9,-10,-4,0
1532061682318,-3,-14,-3,-1,-6,-10,-5,-5
1532061682323,-2,-5,-3,-7,8,12,4,0
1532061682328,4,11,2,-5,3,0,1,0
1532061682333,6,17,3,12,-1,-5,-4,2
1532061682338,-8,4,-3,-21,-6,-2,-1,-4
1532061682343,16,-32,-9,1,-6,0,-1,1
1532061682348,-17,1,-6,6,4,2,10,-3
1532061682353,-13,-5,0,4,0,0,-3,-1
1532061682358,5,13,2,2,-5,1,6,2
1532061682363,-11,18,2,-3,-1,0,-1,-4
1532061682368,16,-3,0,8,-2,2,-1,3
1532061682373,5,-2,-1,-6,4,-3,-1,0
1532061682378,-4,0,-1,6,-4,-7,-8,0
1532061682383,8,10,3,9,4,0,0,3
1532061682388,-13,-23,-7,-2,-8,-4,-1,-5
1532061682393,-9,2,-2,4,3,4,-5,-2
1532061682398,11,8,5,22,10,11,5,-1
1532061682403,7,-5,-3,12,3,1,0,0
1532061682408,-16,7,-3,-17,-4,-8,-4,-4
1532061682413,-2,-3,1,-4,-7,-2,1,0
1532061682418,7,-19,-5,0,10,7,2,3
1532061682423,-7,14,2,-9,-6,-9,-3,-2
1532061682428,8,-3,2,3,6,6,-3,-1
1532061682433,3,-1,0,8,-4,-6,0,0
1532061682438,-13,-3,-3,-14,-10,-13,-9,-7
1532061682443,0,9,3,4,3,9,0,1
1532061682448,10,16,1,-3,1,3,4,5
1532061682453,0,-24,-2,-5,-3,-5,-3,0
1532061682458,-8,-33,-7,-1,-5,-3,-2,-3
1532061682463,-10,-3,-3,-1,-6,-1,-1,-3
1532061682468,-2,19,2,-3,7,2,-1,-4
1532061682473,6,16,1,2,-3,-1,0,1
1532061682478,0,-2,0,-11,-5,-3,-6,2
1532061682483,-3,-5,-1,-7,-7,-4,2,2
1532061682488,-1,-5,0,-1,4,1,-3,3
1532061682493,2,6,1,9,9,6,8,0
1532061682498,-3,2,0,-4,-6,-4,-3,0
1532061682503,1,-16,-6,-13,-8,-9,-9,-3
1532061682508,4,-4,3,10,2,5,2,2
1532061682513,8,7,-4,-5,1,1,-1,-3
1532061682518,2,1,1,-5,1,-1,-2,1
1532061682523,-23,-9,-2,-4,3,6,0,-8
1532061682528,8,4,-1,0,-8,-13,-6,-1
1532061682533,-15,-17,-5,-6,-8,-11,-14,-6
1532061682538,4,3,3,7,6,16,12,1
1532061682543,5,4,-1,-9,2,1,2,2
1532061682548,2,1,-2,4,-3,-3,-1,0
1532061682553,9,38,8,12,3,-1,-1,0
1532061682558,-2,-15,-1,-13,-1,-1,-1,1
1532061682563,-12,-33,-8,13,4,2,-1,-2
1532061682568,-7,-8,-6,-24,-6,-2,2,-2
1532061682573,7,-2,-3,1,-5,-1,-3,3
1532061682578,-7,19,2,8,6,0,0,-1
1532061682583,11,18,6,-8,-8,-4,2,3
1532061682588,-2,-10,0,9,6,6,0,-7
1532061682593,2,3,0,5,3,-2,2,0
1532061682598,-3,1,-1,-2,1,0,1,-1
1532061682603,-12,-1,-4,-32,-10,-1,-5,1
1532061682608,15,11,7,37,-1,-6,-4,0
1532061682613,-15,-16,-10,-11,-5,-2,-2,-1
1532061682618,2,-5,-2,-5,-2,-3,4,-5
1532061682623,0,1,1,16,13,7,1,3
1532061682628,17,8,1,-10,-2,0,-2,7
1532061682633,-59,-37,-5,-39,-5,-5,-6,-16
1532061682638,26,21,3,21,2,-6,1,-1
1532061682643,-3,-38,-6,-17,2,7,-4,-1
1532061682648,0,-7,-2,-11,-5,-1,3,-2
1532061682653,13,-4,0,44,-15,-6,-9,2
1532061682658,-25,-4,2,26,-2,-5,-3,0
1532061682663,6,19,7,-6,-5,-1,3,-1
1532061682668,-12,0,-2,4,14,9,2,-3
1532061682673,14,2,-4,-47,0,3,7,6
1532061682678,4,11,2,38,0,-2,-4,0
1532061682683,26,21,1,34,-1,-4,-2,8
1532061682688,-38,35,4,-48,-7,-1,-1,-6
1532061682693,-37,-70,-9,25,11,3,3,-1
1532061682698,14,-9,-10,6,3,3,-4,-6
1532061682703,5,12,2,-43,-1,-1,1,-7
1532061682708,-1,-3,-4,50,-10,-7,-5,0
1532061682713,25,50,11,-51,-5,-3,0,4
1532061682718,-9,-13,0,6,-3,-1,-1,7
1532061682723,-3,-17,-9,-16,-9,-11,-2,9
1532061682728,4,0,3,-6,-3,-1,-3,-9
1532061682733,20,26,6,62,15,6,7,7
1532061682738,13,-1,0,-25,0,11,8,14
1532061682743,-8,-1,-4,-3,4,-3,1,1
1532061682748,-21,-40,-8,17,1,-9,-16,-52
1532061682753,-7,-4,1,-25,-6,-6,-7,-10
1532061682758,-2,4,-4,-1,1,-3,-9,-8
1532061682763,3,17,4,-6,-8,3,2,2
1532061682768,6,-10,-1,53,9,4,7,23
1532061682773,28,16,1,6,2,6,8,5
1532061682778,20,20,4,-29,-5,-2,10,42
1532061682783,-45,-27,-9,17,-1,-6,-7,-21
1532061682788,3,-1,13,-39,5,2,-12,-23
1532061682793,-6,2,-4,11,-13,-7,-5,-6
1532061682798,27,1,-7,-20,-15,-6,-5,-2
1532061682803,-7,16,4,55,27,19,17,16
1532061682808,-8,-7,2,-67,-1,-8,-1,10
1532061682813,4,2,2,3,-6,1,-5,-10
1532061682818,-26,-12,-3,-6,1,-7,-3,-2
1532061682823,-4,-13,-10,-14,-24,-26,-24,-30
1532061682828,11,6,-2,9,0,12,6,13
1532061682833,2,5,-2,-14,11,14,8,7
1532061682838,-1,-6,-8,-1,9,5,4,-4
1532061682843,6,11,12,-4,7,0,2,-1
1532061682848,5,3,-9,7,-10,-14,-3,4
1532061682853,-3,-2,11,43,9,-1,0,8
1532061682858,-27,-4,0,-26,-19,-5,-6,-22
1532061682863,5,-4,3,24,12,11,0,6
1532061682868,0,6,12,-10,-10,-5,3,3
1532061682873,9,-9,-39,-17,4,0,0,9
1532061682878,4,15,13,28,2,8,-2,8
1532061682883,13,8,-28,-33,7,8,17,17
1532061682888,-18,-22,-10,-17,-14,-7,-10,-16
1532061682893,-9,0,15,7,14,-1,-11,-26
1532061682898,-13,-1,11,-22,-5,-3,-2,-10
1532061682903,38,3,22,21,-1,-5,-6,14
1532061682908,3,3,-8,-6,5,9,10,3
1532061682913,2,-4,-3,-37,-20,-6,-1,9
1532061682918,-6,5,0,6,-4,-6,-5,-17
1532061682923,10,12,17,19,3,5,3,9
1532061682928,-22,-4,2,8,-2,-2,1,-1
1532061682933,8,-8,9,0,-1,-2,-4,-8
1532061682938,15,-4,-17,-15,1,-1,2,12
1532061682943,-18,7,21,54,8,2,4,-15
1532061682948,7,2,-30,14,13,7,11,24
1532061682953,-12,-1,13,-18,-18,-2,10,20
1532061682958,-3,-10,-3,-41,-10,-8,-11,-22
1532061682963,-15,-12,-3,-40,-17,-8,-21,-28
1532061682968,17,4,-2,5,1,2,-2,3
1532061682973,0,8,10,50,9,4,17,26
1532061682978,-2,-2,-6,-8,1,3,11,14
1532061682983,-17,-18,-23,1,2,-4,-20,-33
1532061682988,0,-7,-20,-34,-20,-12,-8,-1
1532061682993,7,8,-8,-9,-6,-1,0,1
1532061682998,-5,-1,-9,40,12,8,4,0
1532061683003,-1,-1,-6,-36,-15,-4,9,3
1532061683008,8,6,10,26,8,3,2,5
1532061683013,-5,0,0,-6,11,2,-5,-12
1532061683018,-5,-6,9,11,3,0,-1,-6
1532061683023,6,4,-11,23,-3,-3,1,6
1532061683028,2,-1,4,-11,3,-3,0,5
1532061683033,-4,-2,-2,-14,-8,-6,-7,-10
1532061683038,-3,-5,-3,-18,-3,-4,-4,-5
1532061683043,6,2,2,1,9,1,2,9
1532061683048,-1,-3,8,12,-11,-5,-4,-3
1532061683053,-4,-3,-12,-25,-9,0,-6,-10
1532061683058,0,-2,1,10,5,3,1,-2
1532061683063,0,4,-1,-41,-4,6,2,4
1532061683068,9,0,9,67,4,-9,-9,-2
1532061683073,-27,-9,-8,9,-7,-13,-9,-8
1532061683078,4,5,2,10,6,10,-9,1
1532061683083,-5,-1,3,25,28,27,10,1
1532061683088,19,8,1,-57,2,18,12,6
1532061683093,28,2,-14,-38,-5,-7,1,1
1532061683098,-36,-12,-4,-40,-20,-21,-4,-9
1532061683103,-7,-5,9,83,-5,-16,-15,-5
1532061683108,-3,3,14,11,4,7,0,2
1532061683113,23,8,10,46,10,0,3,11
1532061683118,3,-5,-2,-37,-3,-1,-1,4
1532061683123,-23,-2,-8,-15,-2,-1,2,-6
1532061683128,5,5,10,57,21,4,1,2
1532061683133,-12,-4,-2,-15,-9,-7,-15,-21
1532061683138,-6,-12,-34,-54,-35,-21,-16,-14
1532061683143,10,1,0,-12,-3,22,13,10
1532061683148,-3,-3,-11,-20,7,7,9,7
1532061683153,7,2,4,-1,0,-4,7,9
1532061683158,-13,2,14,65,18,6,3,-2
1532061683163,6,0,-4,-14,-5,-6,-2,2
1532061683168,0,3,-4,-15,-4,-3,-1,-5
1532061683173,-1,-4,-3,8,4,6,5,-2
1532061683178,14,2,4,17,-2,-7,3,2
1532061683183,14,4,-8,-36,-7,-9,2,6
1532061683188,-25,-14,7,28,1,-1,0,-9
1532061683193,-13,-8,-8,-29,-7,-1,-10,-6
1532061683198,2,-2,7,23,0,-2,13,14
1532061683203,2,5,-4,-17,1,-4,3,4
1532061683208,-12,8,1,-8,4,6,-3,-10
1532061683213,10,-1,-7,-15,1,-3,-2,4
1532061683218,13,-7,-10,-63,-9,5,-3,-1
1532061683223,-19,-8,4,-5,-3,-10,-6,-11
1532061683228,0,-1,-10,-2,-8,-9,-3,-3
1532061683233,-1,-1,-3,21,1,5,6,6
1532061683238,-4,10,4,23,7,0,0,-3
1532061683243,17,1,-2,-10,-6,-4,-4,0
1532061683248,-19,-8,-1,15,8,1,-14,-8
1532061683253,-10,-5,2,-39,-3,-1,-14,-4
1532061683258,8,1,1,10,2,1,-7,6
1532061683263,1,2,-1,5,-4,-6,-9,1
1532061683268,6,-2,1,17,-6,-1,-4,1
1532061683273,1,3,5,4,12,0,1,4
1532061683278,-1,8,20,82,14,8,5,-4
1532061683283,-15,-17,-28,-85,-38,-15,-8,-11
1532061683288,12,1,0,-7,0,-1,5,8
1532061683293,-2,5,4,2,-4,0,6,-4
1532061683298,-2,2,5,18,10,1,-1,-3
1532061683303,5,8,12,35,12,8,9,6
1532061683308,6,0,-9,-20,-6,-4,-1,0
1532061683313,-3,1,9,9,-3,2,6,3
1532061683318,2,-5,-13,47,7,6,-2,-11
1532061683323,-9,-4,14,-51,-9,-8,-5,-3
1532061683328,1,7,-3,-23,-4,-2,-1,0
1532061683333,-2,5,1,1,3,1,-4,-1
1532061683338,5,3,-1,-46,-8,0,1,3
1532061683343,20,65,20,60,14,4,4,10
1532061683348,0,-47,-1,4,-13,-7,0,9
1532061683353,-29,-58,-15,20,-1,-7,-7,-17
1532061683358,-6,4,2,-32,-5,3,2,2
1532061683363,20,15,0,1,14,11,8,2
1532061683368,-16,-52,-19,-22,-5,-5,0,1
1532061683373,-12,32,1,43,5,1,1,-8
1532061683378,-1,-45,5,-24,-4,2,2,2
1532061683383,-17,-18,-6,33,7,1,-3,-8
1532061683388,39,49,10,-23,-1,-3,1,7
1532061683393,1,-30,-11,-23,-5,-3,-1,4
1532061683398,-29,38,-9,8,-6,-8,-3,-8
1532061683403,16,16,17,18,2,0,0,6
1532061683408,-11,-8,-4,-17,-4,-1,2,-2
1532061683413,4,10,1,-14,-5,0,-2,-2
1532061683418,48,34,28,-3,3,-3,-1,3
1532061683423,-20,-20,53,51,1,4,4,7
1532061683428,1,-9,-8,-40,-4,-2,-2,-10
1532061683433,-23,1,-18,26,5,6,2,1
1532061683438,18,11,35,32,10,10,7,11
1532061683443,17,5,-30,-39,-12,-6,-22,-1
1532061683448,-53,-6,-3,2,1,-3,-22,-10
1532061683453,2,3,16,8,3,3,-6,-5
1532061683458,-25,-80,-2,0,-4,-5,0,-6
1532061683463,-7,-1,-35,1,1,3,11,-4
1532061683468,3,76,25,10,-2,-2,10,-6
1532061683473,20,-91,-71,-47,-9,-2,-37,-2
1532061683478,26,49,-59,3,0,-8,31,5
1532061683483,-6,10,57,15,3,4,38,0
1532061683488,35,9,6,15,5,2,40,12
1532061683493,-12,15,21,-9,-12,-8,3,-10
1532061683498,6,2,-26,1,8,3,-14,2
1532061683503,7,-36,-46,-41,-2,0,6,8
1532061683508,13,80,27,22,10,4,7,10
1532061683513,49,-64,30,35,1,1,18,17
1532061683518,-81,-14,15,17,-4,-1,-16,-13
1532061683523,10,55,33,10,3,1,-7,-2
1532061683528,19,57,-1,65,-1,-9,-20,1
1532061683533,-24,-39,-51,-37,-7,5,-2,6
1532061683538,14,-43,-10,-25,0,1,-12,1
1532061683543,-51,-44,0,6,-6,-7,-22,-21
1532061683548,8,16,25,-8,-3,0,-5,-5
1532061683553,42,120,35,-5,5,2,11,13
1532061683558,26,15,-1,20,3,1,5,10
1532061683563,61,63,-12,-27,-4,-4,-2,6
1532061683568,-46,-91,-26,-10,-1,0,-7,2
1532061683573,-40,4,17,42,15,3,4,-12
1532061683578,-18,23,12,-60,-21,-4,-4,-6
1532061683583,-3,-11,-8,25,3,-6,-10,-12
1532061683588,22,-42,8,-17,-4,-1,-1,9
1532061683593,-16,27,20,-5,-2,-2,-4,-13
1532061683598,-6,-19,-12,-3,8,-5,-2,-7
1532061683603,26,18,0,9,0,-1,-4,50
1532061683608,-10,-15,-35,-33,-17,-9,-1,-58
1532061683613,-28,27,14,14,8,4,2,77
1532061683618,14,13,-4,-16,-15,-4,-2,-61
1532061683623,-16,-82,-51,-34,-11,-4,4,91
1532061683628,20,-32,-21,-11,-2,1,-8,-33
1532061683633,47,121,50,1,-8,-11,-5,-63
1532061683638,-8,-99,-71,2,6,1,13,102
1532061683643,74,-18,-1,-20,-2,2,-24,-56
1532061683648,-35,24,16,17,5,10,16,112
1532061683653,-10,3,-10,-34,0,5,-1,-16
1532061683658,2,54,32,-14,-8,-2,4,21
1532061683663,43,99,26,15,4,-3,-9,-49
1532061683668,-30,-35,-13,2,6,1,-8,-38
1532061683673,31,-106,-37,-19,-6,-8,-2,13
1532061683678,-22,62,30,9,3,-2,-17,44
1532061683683,-80,-106,-14,14,-1,-3,-9,-102
1532061683688,-13,80,26,8,4,1,5,76
1532061683693,-5,88,30,23,1,3,6,-38
1532061683698,13,-72,-22,-6,-5,-3,2,-17
1532061683703,-75,-67,-18,-6,-8,-7,-2,-8
1532061683708,14,32,2,12,-1,-1,-4,-6
1532061683713,24,10,-28,-7,-5,-6,3,-18
1532061683718,8,38,12,5,5,4,4,8
1532061683723,8,22,3,3,0,2,6,18
1532061683728,-1,-34,-13,-16,-4,-4,-6,-61
1532061683733,2,0,6,1,1,-2,0,46
1532061683738,39,23,16,3,1,0,-2,-44
1532061683743,-26,-7,-9,7,5,0,14,15
1532061683748,-25,3,-21,-36,-8,-2,-3,-19
1532061683753,-53,-100,-39,2,-3,-1,-6,-20
1532061683758,21,12,-2,-1,-3,1,-11,-48
1532061683763,53,103,35,2,-1,-1,-11,96
1532061683768,11,-56,-51,-9,0,-2,-17,-12
1532061683773,9,13,7,7,6,5,4,-8
1532061683778,-41,-27,-9,11,4,2,8,41
1532061683783,-9,75,27,12,1,0,7,-10
1532061683788,33,-5,-5,-21,-8,0,-3,15
1532061683793,-5,-47,-13,-9,-4,4,9,14
1532061683798,21,37,9,14,3,1,-2,-15
1532061683803,-42,-49,-2,-3,-4,-1,0,19
1532061683808,-18,0,-2,6,3,0,-4,-2
1532061683813,-20,63,28,-1,-13,-9,-13,-36
1532061683818,21,-6,1,7,12,7,9,15
1532061683823,11,25,-16,-13,-7,-4,1,1
1532061683828,-35,-38,32,8,6,-3,3,-9
1532061683833,54,100,22,2,1,-8,-2,27
1532061683838,-44,-41,-5,-7,-1,-5,-7,-48
1532061683843,-17,-27,-26,25,16,-1,0,23
1532061683848,5,38,3,-21,-15,-9,-1,2
1532061683853,14,36,1,-8,-1,-2,2,5
1532061683858,-5,11,12,-4,-4,-3,-4,-6
1532061683863,19,38,24,12,-5,-5,-8,-30
1532061683868,17,-39,-7,0,4,5,11,38
1532061683873,-37,26,-38,-4,3,-2,-7,15
1532061683878,-3,71,11,-9,-4,1,-5,-16
1532061683883,-8,-77,-14,-9,0,4,3,-8
1532061683888,18,55,28,16,2,3,1,15
1532061683893,11,-22,3,2,-6,-6,-3,4
1532061683898,-38,-42,-28,-1,5,5,6,8
1532061683903,-4,19,-3,-4,-2,-1,-1,-24
1532061683908,8,11,1,7,-1,-3,-5,-18
1532061683913,6,-40,-9,-4,7,3,5,-2
1532061683918,2,31,22,1,-6,-10,-19,-89
1532061683923,19,-7,-6,-1,4,7,29,63
1532061683928,-14,-8,-6,16,10,2,9,-48
1532061683933,22,-5,8,-9,-11,-6,-29,8
1532061683938,73,65,23,-4,-8,-4,17,-58
1532061683943,-10,-67,-19,-8,-1,1,-18,52
1532061683948,-54,-10,-21,-1,-6,-11,-25,-68
1532061683953,1,13,1,9,4,0,60,38
1532061683958,-18,9,2,7,11,6,-35,-4
1532061683963,-5,26,-4,-20,-16,-4,6,-38
1532061683968,10,3,-3,-1,-1,-1,-14,9
1532061683973,-1,-19,4,4,3,2,-21,-9
1532061683978,-5,4,6,2,-1,-1,6,40
1532061683983,4,-28,-10,0,2,1,7,-18
1532061683988,-2,-31,1,-2,-2,-2,-18,6
1532061683993,-20,3,0,4,1,2,-5,-28
1532061683998,0,-19,-9,-4,-3,-1,12,40
1532061684003,5,48,8,3,2,2,-9,-12
1532061684008,22,29,12,1,-2,2,14,18
1532061684013,-30,-61,-18,-7,-1,-1,-6,-16
1532061684018,-9,1,1,-1,-4,-3,-4,10
1532061684023,-4,-20,-11,-1,1,-3,-6,-13
1532061684028,13,44,10,-7,-3,2,1,-2
1532061684033,-49,-43,-11,-1,-3,0,22,-9
1532061684038,-5,-23,8,-4,-3,-6,-43,10
1532061684043,-4,7,9,-6,0,-2,31,-24
1532061684048,14,-4,4,-4,3,2,6,12
1532061684053,10,31,10,23,-1,5,-11,4
1532061684058,3,14,-6,-11,-9,-1,11,10
1532061684063,-2,-13,-5,-3,1,-1,-8,-12
1532061684068,6,-19,-2,3,3,1,1,16
1532061684073,4,4,-1,2,7,1,-5,-11
1532061684078,-6,-1,-12,2,0,-7,4,7
1532061684083,5,18,8,-11,-11,-7,-95,-3
1532061684088,0,0,-6,3,7,8,89,-4
1532061684093,20,-7,3,-3,-2,0,-6,6
1532061684098,0,-3,-6,11,5,3,10,10
1532061684103,-5,14,6,4,0,-2,-10,-2
1532061684108,5,-10,0,0,-5,-1,-22,0
1532061684113,-1,3,2,3,-2,-2,-2,-1
1532061684118,-6,10,4,9,4,2,2,8
1532061684123,5,33,0,-17,-11,1,16,-2
1532061684128,11,-53,-5,8,2,-2,-13,1
1532061684133,9,-2,-21,-6,-1,0,-7,-1
1532061684138,-9,-11,1,-3,2,1,-21,13
1532061684143,-14,8,-4,8,2,5,52,-9
1532061684148,-9,21,5,8,3,-4,-15,-9
1532061684153,16,4,-2,-14,-11,-7,-17,4
1532061684158,3,-21,-5,24,10,4,4,-1
1532061684163,-7,-3,-4,-27,-16,-4,1,3
1532061684168,11,51,3,-23,-18,-2,-4,9
1532061684173,-11,-60,-18,-10,2,-2,5,-5
1532061684178,1,12,2,2,0,-3,4,0
1532061684183,4,-20,-3,9,11,4,10,2
1532061684188,-4,18,1,0,-3,-2,-8,4
1532061684193,1,43,15,0,-1,-2,-5,-2
1532061684198,1,-13,3,-9,-2,0,3,7
1532061684203,2,-15,-14,4,5,2,7,-5
1532061684208,-12,-42,-12,-4,0,-2,-8,-1
1532061684213,-2,9,5,5,-1,-1,-41,16
1532061684218,2,0,-7,-1,2,4,32,3
1532061684223,-12,4,11,7,5,0,12,-2
1532061684228,12,24,2,-5,-4,0,4,2
1532061684233,-2,-5,-2,14,8,4,5,6
1532061684238,-2,-3,0,-19,-14,-8,-30,-6
1532061684243,1,5,1,-3,-2,-4,-10,-6
1532061684248,-7,4,0,9,2,-6,-64,-30
1532061684253,9,0,10,-3,-1,-1,-57,22
1532061684258,-50,-14,-14,-2,0,7,103,-60
1532061684263,-25,4,2,2,1,0,-53,5
1532061684268,4,-9,-9,-1,-2,-7,-19,8
1532061684273,1,5,4,0,-1,2,-23,-24
1532061684278,12,-3,-1,-6,-5,-8,-98,1
1532061684283,7,-5,-1,5,1,-8,-79,12
1532061684288,-28,16,-1,-5,-6,-8,103,-45
1532061684293,-7,-55,-18,-8,-6,-1,-103,2
1532061684298,17,12,9,3,-1,1,-31,32
1532061684303,-3,33,3,1,0,2,-50,-18
1532061684308,8,-50,-7,2,-4,-9,-88,10
1532061684313,-14,15,11,3,3,5,73,-1
1532061684318,0,-12,-1,1,-2,-1,34,-18
1532061684323,5,-1,0,5,-5,-9,-39,-24
1532061684328,16,18,6,-1,1,6,-26,19
1532061684333,5,16,13,9,7,2,-11,-21
1532061684338,-1,-14,-53,-13,0,5,84,12
1532061684343,12,24,17,3,0,2,-4,-9
1532061684348,-14,-51,-18,11,12,12,23,10
1532061684353,0,-19,1,-3,0,0,-16,4
1532061684358,8,5,4,-14,-13,-18,-42,-16
1532061684363,17,-27,-17,5,3,1,72,-9
1532061684368,-15,5,-1,2,3,5,86,-15
1532061684373,9,104,20,-7,-8,-7,-4,-18
1532061684378,0,-71,-8,2,2,2,76,16
1532061684383,-7,-114,-42,-5,0,1,-31,-7
1532061684388,-2,8,3,-13,-8,-7,-44,8
1532061684393,-11,36,9,-1,-3,-3,32,17
1532061684398,17,110,55,-4,1,-4,-128,-14
1532061684403,22,4,-13,6,7,14,126,25
1532061684408,-49,-6,-32,-3,-4,-7,-41,-25
1532061684413,7,57,11,3,-5,-3,46,11
1532061684418,-15,-55,-19,-14,-2,1,-10,15
1532061684423,24,87,22,-4,-4,-6,-54,1
1532061684428,12,18,23,27,6,1,-16,15
1532061684433,27,100,0,-3,6,2,24,-1
1532061684438,-39,-82,-72,-9,-7,-9,-107,-41
1532061684443,15,79,58,4,-3,-1,-84,30
1532061684448,-20,-21,-34,-29,-10,4,111,19
1532061684453,-22,-98,-15,6,9,11,-26,24
1532061684458,22,33,-54,-12,4,0,-15,20
1532061684463,2,23,83,56,19,11,-63,-3
1532061684468,21,6,-6,-11,-14,-12,-112,-32
1532061684473,0,-28,-11,-14,-7,-2,48,11
1532061684478,-6,0,11,9,0,1,85,-2
1532061684483,-30,-50,-49,-29,-15,-13,18,-20
1532061684488,37,81,62,21,10,7,-7,18
1532061684493,-7,36,-49,-30,-13,-14,-50,-33
1532061684498,-10,-75,-22,11,11,10,-39,10
1532061684503,6,90,18,-5,-5,-9,0,33
1532061684508,26,-59,-31,6,19,28,22,35
1532061684513,-24,-36,-9,-12,-8,-14,-38,-26
1532061684518,19,40,30,5,4,6,-44,3
1532061684523,-9,-24,-19,-9,-4,-5,-58,5
1532061684528,-10,21,5,-17,-7,-3,43,17
1532061684533,-15,-33,12,12,-2,-8,-105,4
1532061684538,0,21,23,33,12,4,1,6
1532061684543,-2,-12,-19,-38,-8,7,31,-20
1532061684548,-5,-19,-8,8,-5,-9,-73,-7
1532061684553,-3,-10,21,26,5,-1,-63,-48
1532061684558,10,44,30,-10,6,5,28,33
1532061684563,-14,-26,-27,20,-12,-9,51,5
1532061684568,-6,4,10,8,13,1,-34,23
1532061684573,14,-5,-7,-2,5,9,56,-10
1532061684578,0,-22,-1,-33,-16,-2,-38,-61
1532061684583,-2,-2,3,6,20,6,106,32
1532061684588,3,5,-2,-23,-31,-13,-46,-12
1532061684593,6,36,25,23,4,13,41,24
1532061684598,6,-37,4,22,15,-1,-10,23
1532061684603,-2,11,-7,-13,-7,-3,-23,-42
1532061684608,-6,22,-31,0,0,-12,52,-24
1532061684613,-10,-66,13,9,2,5,-46,-13
1532061684618,4,49,28,39,22,6,64,-4
1532061684623,-10,-28,-17,-56,-40,-12,-99,-4
1532061684628,11,-4,-6,6,10,8,60,8
1532061684633,4,27,-3,-13,-13,-7,-31,23
1532061684638,6,-25,8,21,7,3,-44,-13
1532061684643,5,-8,-1,19,15,16,-11,-26
1532061684648,2,-35,2,-5,5,14,32,42
1532061684653,13,10,-14,-1,6,8,-5,6
1532061684658,-10,14,12,-23,-24,-11,-47,5
1532061684663,-2,7,1,11,10,-4,-15,-11
1532061684668,3,19,11,3,0,11,9,-9
1532061684673,-20,-9,-5,-16,8,-3,45,-3
1532061684678,18,-7,5,-17,-21,-8,57,-2
1532061684683,-10,-8,2,0,2,5,111,41
1532061684688,-29,8,-5,21,15,-2,-75,-29
1532061684693,6,-34,-9,8,-1,-5,-6,15
1532061684698,1,127,37,-3,-6,-6,-59,7
1532061684703,-32,-94,-47,-36,-25,-20,-86,-52
1532061684708,20,30,21,30,13,-1,-105,-6
1532061684713,-3,12,-8,-1,-1,2,65,-24
1532061684718,16,80,0,-21,-9,4,-13,26
1532061684723,-8,-17,13,20,7,0,-17,-6
1532061684728,1,89,37,-22,-18,-19,-72,-30
1532061684733,10,-105,-48,3,7,-5,42,21
1532061684738,-37,31,-23,-5,-3,-3,-12,-31
1532061684743,68,122,102,30,16,7,66,49
1532061684748,-68,-128,-69,13,12,-42,-128,-46
1532061684753,8,78,8,-44,-43,2,62,26
1532061684758,18,63,29,19,26,29,10,17
1532061684763,-2,20,-49,-11,33,39,-47,12
1532061684768,24,89,27,12,16,10,4,8
1532061684773,2,30,24,12,-21,-23,-34,-13
1532061684778,-31,-91,-43,-17,-13,-29,63,17
1532061684783,13,85,36,-54,-38,-8,-128,-48
1532061684788,33,-6,-1,-5,15,45,127,86
1532061684793,-10,-95,-44,-4,4,-6,-107,-35
1532061684798,-24,56,39,-1,-19,-10,75,-19
1532061684803,-10,8,-8,19,2,-11,-87,-6
1532061684808,-3,-65,-15,-26,-24,-16,-74,-15
1532061684813,7,53,20,-11,-8,3,-79,2
1532061684818,12,-39,0,23,-4,-8,-64,5
1532061684823,-15,-71,-32,-3,8,1,45,1
1532061684828,-5,18,17,-12,-26,1,31,12
1532061684833,6,10,8,0,16,15,7,22
1532061684838,5,-43,-12,13,22,-7,14,-4
1532061684843,-10,22,-6,8,-11,-15,77,-15
1532061684848,14,48,24,-6,-34,0,-118,-13
1532061684853,-27,-16,1,-7,13,6,104,-25
1532061684858,-10,-59,0,-12,13,25,12,21
1532061684863,11,91,13,21,18,-1,92,12
1532061684868,-5,-39,-23,-21,-7,-8,124,6
1532061684873,-3,64,40,25,12,-12,-1,-5
1532061684878,-7,13,-15,-7,-4,5,-65,8
1532061684883,-2,15,9,8,-4,-3,-78,-1
1532061684888,18,14,29,12,9,-1,-36,21
1532061684893,-25,-23,-43,8,11,-7,59,-54
1532061684898,9,-3,-4,-10,-29,-22,-26,-12
1532061684903,-5,-16,1,10,12,13,-52,12
1532061684908,14,74,17,9,39,29,-83,-11
1532061684913,73,-11,48,22,28,38,40,112
1532061684918,-51,20,-45,-10,-1,-12,-90,-43
1532061684923,-10,61,7,-1,-14,-15,23,-4
1532061684928,-14,2,-13,-7,-19,-20,-76,-8
1532061684933,9,29,28,6,-2,-7,-111,-17
1532061684938,32,16,16,-3,-7,0,-14,25
1532061684943,-9,-72,-28,13,10,3,3,4
1532061684948,-10,-3,-6,-80,-37,-14,45,-10
1532061684953,-3,11,-17,4,-17,-7,-20,13
1532061684958,8,-7,1,14,7,11,41,3
1532061684963,-11,-31,-28,-12,-2,-3,-10,-10
1532061684968,-1,-27,8,25,22,6,41,-4
1532061684973,-14,-2,-6,-3,1,-3,-3,-13
1532061684978,10,15,-14,-50,-26,-4,-28,0
1532061684983,-3,-71,8,54,21,5,-7,-1
1532061684988,2,16,9,-12,-17,-6,30,-1
1532061684993,-8,0,-6,-4,-2,1,-9,-3
1532061684998,6,6,23,7,16,7,9,-2
1532061685003,3,-2,-29,-20,-7,-3,0,8
1532061685008,6,29,13,31,0,3,23,-3
1532061685013,-9,-11,-8,-12,-4,1,-30,-10
1532061685018,2,9,4,26,9,5,-35,-5
1532061685023,-1,-7,-23,-37,-17,-7,-24,3
1532061685028,2,-8,-15,20,14,-1,-2,-13
1532061685033,-12,22,-5,-15,-13,-2,-7,-7
1532061685038,12,-11,-14,-70,1,-4,-20,-11
1532061685043,-7,-1,32,32,-12,1,11,-4
1532061685048,8,-7,-1,31,15,2,-7,0
1532061685053,11,15,9,5,-10,-8,-17,3
1532061685058,10,-9,-14,-6,-2,0,12,9
1532061685063,3,-5,1,-72,0,1,-32,-14
1532061685068,17,-1,0,30,2,-4,-67,-2
1532061685073,-8,-2,2,90,25,10,98,-13
1532061685078,-14,-6,3,-5,-1,-1,-13,0
1532061685083,3,-6,0,-70,-21,-9,-26,-2
1532061685088,-11,-3,-8,-8,-7,0,7,-5
1532061685093,-7,-11,-6,-12,-16,-11,-30,1
1532061685098,9,5,11,19,10,2,3,6
1532061685103,-2,2,6,29,11,1,31,4
1532061685108,-20,-16,-17,-30,-4,-2,24,-6
1532061685113,6,5,-5,-28,-19,1,-27,2
1532061685118,-4,-3,9,9,-7,-3,18,2
1532061685123,0,0,-4,8,-4,-1,-5,5
1532061685128,-1,-2,4,14,14,2,21,3
1532061685133,-4,1,6,2,10,2,-29,-4
1532061685138,3,-1,3,14,0,1,-2,0
1532061685143,-2,-3,-4,20,0,-1,10,-1
1532061685148,-8,-7,-2,-32,-7,0,7,-3
1532061685153,2,1,-6,-19,-3,0,-3,2
1532061685158,-8,-9,-5,-9,-10,-3,-1,-4
1532061685163,2,1,0,17,3,0,2,-1
1532061685168,-5,0,0,3,0,-1,13,0
1532061685173,-1,1,-3,-29,-3,-2,-20,-2
1532061685178,-3,-4,0,10,1,-2,2,-1
1532061685183,2,0,4,15,5,1,-1,4
1532061685188,-3,-2,-1,10,20,-3,1,-1
1532061685193,-8,-2,3,1,4,-4,-10,-6
1532061685198,5,3,-1,-9,-27,9,5,6
1532061685203,-1,-1,4,12,3,-3,11,2
1532061685208,-4,0,-3,-14,-11,5,9,0
1532061685213,5,12,0,-1,9,-4,-3,8
1532061685218,1,3,4,14,12,-1,5,3
1532061685223,-14,-12,-7,-11,-12,-5,-8,-12
1532061685228,8,19,0,2,4,-1,6,4
1532061685233,-6,-18,-1,3,6,0,-3,-1
1532061685238,-1,-13,-3,6,2,-1,2,0
1532061685243,3,8,6,9,4,1,5,2
1532061685248,1,9,15,16,18,-2,-38,-6
1532061685253,5,13,-2,-13,-10,6,33,10
1532061685258,8,4,7,1,-3,-5,4,-9
1532061685263,-18,-7,0,-2,3,-5,-52,14
1532061685268,11,-3,0,-3,-7,11,106,2
1532061685273,16,16,1,-6,-6,-4,-31,0
1532061685278,-50,-27,3,5,4,-10,63,-17
1532061685283,9,3,-21,-9,-1,7,-32,14
1532061685288,-8,-7,-5,-7,-13,-12,-68,-15
1532061685293,-7,-9,-1,-2,-5,-6,-18,-15
1532061685298,9,4,0,5,4,-4,-23,-12
1532061685303,-3,0,11,-2,-12,-2,64,-7
1532061685308,-32,-17,-10,-13,-9,-3,109,-16
1532061685313,11,2,0,-1,1,1,-63,1
1532061685318,8,8,4,7,4,0,-45,15
1532061685323,-7,-6,4,4,4,-1,-30,-20
1532061685328,6,2,-8,-10,-12,-6,-55,3
1532061685333,-9,-10,8,17,10,3,-75,-4
1532061685338,6,-17,-10,-13,-4,5,47,14
1532061685343,-2,-20,-17,-14,-8,0,-10,6
1532061685348,1,1,2,4,10,-7,-44,-5
1532061685353,3,17,9,17,4,5,-16,-2
1532061685358,-11,5,-14,-6,-17,3,30,-44
1532061685363,11,4,2,-13,-9,-10,-19,31
1532061685368,6,-3,-5,-4,-1,4,-70,33
1532061685373,-2,-1,-4,-4,4,0,124,-17
1532061685378,10,20,11,6,11,4,-24,8
1532061685383,-15,-36,-7,9,-1,-4,45,-13
1532061685388,-6,-3,0,3,-4,-11,-46,-21
1532061685393,-5,-10,-1,15,32,-1,47,22
1532061685398,-1,-1,-5,9,1,7,-39,14
1532061685403,11,26,0,-44,-79,-3,-10,-6
1532061685408,3,-7,6,11,16,0,-38,18
1532061685413,13,-6,-2,-24,-23,2,-73,60
1532061685418,-11,-11,-19,-7,14,-2,38,17
1532061685423,6,5,0,20,29,6,49,17
1532061685428,1,2,5,7,-13,-4,-19,-24
1532061685433,-3,3,-1,-2,0,-6,-17,-22
1532061685438,2,-2,7,11,12,-3,-45,-11
1532061685443,-1,5,0,-4,5,-2,-45,-12
1532061685448,2,-4,-6,-12,-7,7,63,19
1532061685453,1,3,12,36,89,-29,-17,-25
1532061685458,3,1,-4,3,-5,46,-10,11
1532061685463,-6,4,-6,-33,-34,-7,1,-25
1532061685468,2,4,-1,-15,-22,2,11,2
1532061685473,-18,-15,-17,-23,-24,-1,11,-7
1532061685478,2,-8,11,13,20,-30,-20,0
1532061685483,-2,4,10,26,8,14,-13,-10
1532061685488,1,8,-11,-1,20,14,25,2
1532061685493,1,11,7,4,1,0,7,2
1532061685498,2,-3,-3,-21,-27,-2,-2,8
1532061685503,10,24,7,10,5,1,-11,3
1532061685508,3,-10,2,-2,-13,-10,1,3
1532061685513,-9,-7,-9,-9,-21,7,9,-16
1532061685518,3,-4,2,-1,-9,-10,-15,-2
1532061685523,-1,-4,-3,8,38,-3,6,0
1532061685528,-1,-2,5,25,9,6,5,-1
1532061685533,8,13,4,-12,-19,-8,-9,4
1532061685538,-7,-6,-13,-15,-16,10,14,-6
1532061685543,-2,1,-1,-6,12,-4,-5,-4
1532061685548,-2,3,-3,3,-9,2,4,2
1532061685553,9,37,7,-10,-11,-2,-5,3
1532061685558,-3,-16,6,-4,-7,-13,-13,-3
1532061685563,-9,-73,-19,7,12,5,3,1
1532061685568,-7,2,3,1,-1,-6,-6,-10
1532061685573,-4,-11,-4,1,-17,1,3,-6
1532061685578,7,31,8,2,8,-5,-8,1
1532061685583,6,20,8,15,7,-1,3,2
1532061685588,2,3,-3,-7,-2,-2,-2,-2
1532061685593,-3,10,2,2,-11,5,-3,-4
1532061685598,-5,-48,-12,-2,6,1,-3,-1
1532061685603,1,-1,0,-5,-5,-3,-3,-1
1532061685608,0,3,-2,-6,-2,-2,-2,-1
1532061685613,-4,-1,-3,-6,-12,0,2,-6
1532061685618,-2,16,2,-4,1,-4,-5,-3
1532061685623,3,8,4,1,0,-4,0,3
1532061685628,-5,-44,-13,1,4,2,-1,-2
1532061685633,-2,-3,-1,-4,2,3,11,4
1532061685638,6,6,4,9,28,-5,-3,2
1532061685643,-2,25,3,3,-13,1,-2,-2
1532061685648,-5,0,-7,-22,-5,11,1,1
1532061685653,-3,-27,-6,-5,-6,0,-4,-1
1532061685658,-2,17,0,-3,-17,-8,-5,-3
1532061685663,5,-28,-6,9,13,-2,2,2
1532061685668,4,9,6,5,7,-3,1,2
1532061685673,11,-14,-3,-5,-10,1,-2,-2
1532061685678,-34,13,4,4,1,-2,-12,-11
1532061685683,20,19,4,3,9,3,11,16
1532061685688,-6,-11,-3,0,-5,-5,-1,-3
1532061685693,4,4,-1,2,4,2,-46,0
1532061685698,5,4,1,0,-8,-3,52,0
1532061685703,-4,-9,0,-1,-1,0,-8,-1
1532061685708,-4,0,-1,0,-4,-6,0,-4
1532061685713,-4,9,-1,3,2,2,9,7
1532061685718,6,-4,-1,-2,-2,0,-12,2
1532061685723,-10,-4,-4,-4,-4,-2,-4,-9
1532061685728,6,14,3,3,3,-1,6,0
1532061685733,-4,-7,-3,-4,-1,-4,5,-9
1532061685738,2,-4,-3,-3,-3,-1,-13,3
1532061685743,-1,5,-2,-5,-1,0,12,-3
1532061685748,1,16,2,0,0,-1,-8,1
1532061685753,0,-33,-8,0,-3,2,0,2
1532061685758,-1,-4,-2,2,0,3,2,-6
1532061685763,-6,4,-4,-6,-5,-6,-11,-3
1532061685768,10,5,2,-1,2,9,5,5
1532061685773,-8,-3,-2,-5,-10,-14,4,-5
1532061685778,4,2,0,1,-5,-8,-12,2
1532061685783,-2,-4,1,0,-1,-5,-4,-6
1532061685788,-5,-5,-1,-1,2,6,0,-4
1532061685793,2,3,1,4,10,11,17,7
1532061685798,4,1,1,1,2,-4,-5,3
1532061685803,-3,5,0,2,-1,-3,-2,-1
1532061685808,-2,-7,-1,-1,-5,-12,-6,-3
1532061685813,-6,0,-1,1,1,-1,1,-2
1532061685818,-2,-3,-4,-5,-4,2,-7,-6
1532061685823,-6,-2,1,1,2,0,-3,-8
1532061685828,1,1,-1,-1,-2,-6,0,3
1532061685833,-8,-3,-2,-1,0,2,-2,-4
1532061685838,3,5,2,10,8,2,-46,-6
1532061685843,-3,-3,-5,-12,-5,4,54,7
1532061685848,-2,-2,0,1,-2,-1,4,4
1532061685853,-6,7,0,-5,-3,-2,11,-5
1532061685858,1,-9,2,0,-6,-4,-5,4
1532061685863,4,-10,3,4,1,1,-15,0
1532061685868,-4,1,0,2,6,5,-3,-8
1532061685873,-1,-1,0,-1,-2,1,-2,4
1532061685878,-2,0,2,-4,-2,0,14,1
1532061685883,2,1,2,1,1,-1,-14,-3
1532061685888,-2,-5,-1,-3,-4,-6,5,1
1532061685893,-3,-4,-1,-1,-2,-2,-7,-5
1532061685898,11,7,3,1,1,1,-64,1
1532061685903,-3,1,-4,-8,-4,0,83,15
1532061685908,2,1,-1,-5,-4,-2,-2,0
1532061685913,0,2,-1,-1,-2,-1,-2,2
1532061685918,0,-2,-4,-3,-5,1,11,4
1532061685923,2,6,2,6,5,1,-36,-1
1532061685928,3,1,-1,0,-1,-3,-4,-1
1532061685933,1,-5,-3,-2,-2,-1,10,2
1532061685938,-1,0,-1,-1,-1,0,17,1
1532061685943,0,4,0,1,1,1,-20,-4
1532061685948,-2,0,-1,-2,-1,-3,11,0
1532061685953,2,1,-1,-3,-1,-2,-6,2
1532061685958,-4,-2,-2,-4,-1,1,11,-1
1532061685963,2,1,2,0,0,2,-6,0
1532061685968,0,-1,0,0,1,0,-4,1
1532061685973,1,0,2,0,-1,-2,-1,-1
1532061685978,-3,-3,-1,-3,0,-1,14,1
1532061685983,-2,-1,0,1,-1,-4,-15,-3
1532061685988,2,-1,0,0,1,-2,-3,0
1532061685993,1,-2,1,1,1,-2,1,2
1532061685998,-1,-2,0,-1,0,-2,5,-2
1532061686003,-2,-2,0,4,0,-3,-10,-6
1532061686008,-2,-2,3,3,-1,1,-1,-2
1532061686013,4,1,0,0,-1,0,2,1
1532061686018,-1,-1,4,0,-1,2,2,0
1532061686023,-2,-2,4,2,1,1,-5,-4
1532061686028,-1,0,0,1,-1,3,0,-2
1532061686033,-2,0,-1,-1,-1,5,-3,-1
1532061686038,4,2,-2,-1,0,1,0,0
1532061686043,0,2,-1,1,0,1,-6,-1
1532061686048,0,2,-3,0,-1,1,-6,-1
1532061686053,-1,1,-3,0,1,3,0,-1
1532061686058,-1,2,-4,-2,2,3,2,0
1532061686063,0,0,0,-3,1,1,-1,-2
1532061686068,0,0,1,-2,3,1,0,-1
1532061686073,0,0,-2,-2,7,2,3,-2
1532061686078,0,2,-2,-3,5,3,4,0
1532061686083,-1,3,-5,-3,1,2,-3,-2
1532061686088,-1,1,-4,-2,0,1,0,0
1532061686093,-4,0,-5,-4,-2,0,0,-2
1532061686098,0,-1,-7,-6,-3,-2,3,2
1532061686103,-1,-1,-3,-3,-5,-3,1,-1
1532061686108,-2,-3,-3,-3,-4,-6,4,-2
1532061686113,-2,-2,-2,-3,-5,-7,4,-6
1532061686118,-2,-3,-1,-2,-4,-6,4,-5
1532061686123,-2,-3,-3,-4,-2,-4,3,-4
1532061686128,-2,-4,-2,-3,-3,-6,3,-1
1532061686133,0,-3,-1,-2,-5,-8,1,1
1532061686138,-3,-1,-1,-2,-6,-8,1,0
1532061686143,-1,0,0,-2,-6,-13,-3,0
1532061686148,-1,-1,-2,-3,-4,-9,-9,1
1532061686153,0,-3,-1,-3,-4,-8,-11,0
1532061686158,-2,-5,-1,-2,-3,-15,-9,-1
1532061686163,-1,-4,-1,0,-2,-18,-7,-1
1532061686168,-2,-3,-2,1,0,-21,1,-1
1532061686173,-2,-1,-1,1,-1,-18,-1,-2
1532061686178,-4,-3,0,4,-1,-9,-1,-1
1532061686183,-4,-2,-1,3,2,3,-1,-3
1532061686188,-3,-1,-2,1,2,4,0,-1
1532061686193,1,-2,-3,1,1,0,0,0
1532061686198,-2,0,-3,1,1,9,2,-2
1532061686203,-2,0,-1,-1,1,10,0,-1
1532061686208,-1,-1,0,2,-3,10,-1,-1
1532061686213,-1,-2,0,2,0,4,1,2
1532061686218,-2,-3,0,2,-2,-1,-4,-3
1532061686223,4,0,2,1,-4,2,-4,2
1532061686228,-2,0,1,0,-3,7,-3,-1
1532061686233,-1,1,1,0,-6,8,-4,-1
1532061686238,0,2,-1,-2,-3,9,-2,-1
1532061686243,0,-3,-2,-1,-3,9,-1,-1
1532061686248,1,-4,1,-1,-3,7,0,-1
1532061686253,0,-3,-1,-3,0,7,-1,0
1532061686258,1,0,0,-1,-1,6,-3,2
1532061686263,-2,-1,-2,-2,-2,3,-2,0
1532061686268,1,-1,-1,-1,-2,0,1,-2
1532061686273,-1,-2,0,-1,-2,4,0,-2
1532061686278,2,-1,0,-2,-1,2,0,-1
1532061686283,0,1,1,-6,-2,1,-1,1
1532061686288,1,0,-1,-2,-1,4,-1,1
1532061686293,1,0,1,-2,-1,5,-1,1
1532061686298,-1,1,0,-1,-1,0,2,0
1532061686303,0,0,0,0,0,2,1,0
1532061686308,0,1,0,-1,-1,3,-1,-2
1532061686313,1,0,0,-3,1,5,0,-3
1532061686318,-1,-1,0,1,0,2,1,-2
1532061686323,-2,0,0,-1,0,-2,-2,-1
1532061686328,-2,-1,-2,0,1,-4,-2,-1
1532061686333,-1,0,-2,1,0,0,-1,-1
1532061686338,0,0,-2,-2,0,-1,-1,0
1532061686343,1,-1,-2,-1,0,-1,0,-1
1532061686348,-2,-1,-1,-1,0,-3,0,-1
1532061686353,-3,-2,-1,1,-1,0,-1,0
1532061686358,-1,-1,2,-1,2,1,0,-1
1532061686363,-2,-1,-2,3,0,1,0,-2
1532061686368,-1,-1,0,-2,-1,-3,-2,-2
1532061686373,-1,1,-1,0,-1,-4,-2,0
1532061686378,-1,-1,-1,-1,-1,-2,-2,-1
1532061686383,-1,-2,-1,0,1,-1,0,0
1532061686388,-1,0,-1,0,0,0,0,0
1532061686393,-1,-1,1,0,1,-5,0,-1
1532061686398,-1,-1,0,-2,0,-2,0,-2
1532061686403,-1,-3,0,-1,2,-5,-2,-1
1532061686408,0,-1,-2,-2,-1,-5,-1,-2
1532061686413,-3,0,-1,-1,0,-6,1,-2
1532061686418,-1,-2,-2,-3,1,-5,0,-2
1532061686423,-3,1,-1,-2,-1,-3,-1,-1
1532061686428,-2,1,0,0,0,-2,-1,-1
1532061686433,2,-2,-2,0,1,-2,0,-1
1532061686438,1,0,0,-2,-1,-3,-2,-3
1532061686443,0,-1,-1,-1,-1,-3,-2,-1
1532061686448,-1,1,0,-1,-1,-3,-2,0
1532061686453,-1,1,0,-1,0,-3,0,1
1532061686458,-2,-1,-1,0,-1,-3,-1,1
1532061686463,0,-1,1,-2,0,-1,-2,1
1532061686468,0,0,1,0,1,1,-2,-2
1532061686473,-1,-2,0,0,-1,0,-3,-2
1532061686478,0,1,-2,1,-3,0,-1,-2
1532061686483,-1,0,-1,-1,-1,0,0,-2
1532061686488,-2,-1,1,-1,-2,0,0,-2
1532061686493,-1,0,1,-1,-1,0,1,-1
1532061686498,-1,0,0,-1,1,-2,2,0
1532061686503,-1,-1,0,0,0,0,3,-1
1532061686508,0,-1,-2,0,0,0,0,0
1532061686513,-2,0,0,-1,1,1,0,-2
1532061686518,-3,0,0,0,1,-1,-2,0
1532061686523,0,-2,-2,0,-1,-3,-2,0
1532061686528,0,-3,-2,-2,0,-1,0,1
1532061686533,0,-2,-2,-1,-1,-2,-2,-1
1532061686538,-1,0,0,0,0,1,-1,1
1532061686543,-3,0,0,-1,0,1,0,1
1532061686548,-2,1,0,-1,0,-1,-2,-1
1532061686553,0,-1,0,-1,-1,-2,0,1
1532061686558,0,-2,-1,0,-2,-1,-1,-1
1532061686563,-1,-2,-2,-1,-1,-1,0,-2
1532061686568,1,-1,-2,-1,0,-3,-3,1
1532061686573,-1,0,1,-1,-1,-1,-1,0
1532061686578,0,0,-1,-2,0,-3,0,1
1532061686583,0,-1,1,0,0,-2,0,-1
1532061686588,-1,0,-1,0,-1,-2,0,-2
1532061686593,0,2,-2,0,-1,-2,0,-2
1532061686598,0,-1,-1,-1,0,1,-1,-1
1532061686603,-1,-1,-2,0,0,0,-1,0
1532061686608,-1,0,0,0,0,-2,1,0
1532061686613,0,-1,0,-1,-2,-2,-1,1
1532061686618,0,1,-1,1,-1,-3,-2,-1
1532061686623,-1,-2,-2,-1,0,-2,-2,-2
1532061686628,-1,-2,0,1,-1,0,0,-1
1532061686633,1,-2,-2,-2,-2,1,-1,-3
1532061686638,-1,-1,-2,0,0,1,-1,-1
1532061686643,-1,1,-1,-1,0,0,0,-2
1532061686648,1,2,-3,-2,0,-1,-1,-1
1532061686653,1,-2,-2,-1,-1,-2,-1,-1
1532061686658,0,-2,0,-1,-2,-1,1,-2
1532061686663,-2,-1,-2,0,-2,-2,-1,-2
1532061686668,-2,0,-2,-2,1,0,1,0
1532061686673,-1,-2,-1,-2,0,-1,1,0
1532061686678,-1,-1,-2,-1,-3,1,0,0
1532061686683,-1,1,-1,-1,-1,-1,0,-2
1532061686688,-1,-1,1,-1,-2,-1,-1,-2
1532061686693,-2,1,0,1,-2,-1,0,0
1532061686698,-1,-2,1,-1,0,0,0,0
1532061686703,-1,0,-1,0,-2,0,0,-2
1532061686708,1,0,-1,-1,-1,0,1,-1
1532061686713,-2,0,0,-1,-1,0,0,-1
1532061686718,-1,0,0,-1,-2,-1,-2,-1
1532061686723,0,0,0,0,-3,1,0,-1
1532061686728,0,-2,-1,-1,-2,1,-2,0
1532061686733,0,-1,-1,0,-2,1,-1,-1
1532061686738,0,-1,-1,-1,-2,0,0,-1
1532061686743,0,-1,-1,-1,2,-2,1,0
1532061686748,0,-2,-1,1,1,0,-2,-3
1532061686753,0,0,0,-1,1,-2,0,0
1532061686758,-1,-1,0,0,0,-2,1,-2
1532061686763,1,-3,-1,-1,-1,0,-1,0
1532061686768,0,-1,0,-1,0,0,-1,1
1532061686773,0,-1,0,-2,1,-3,-2,-2
1532061686778,-2,-3,-1,-1,1,0,-1,-1
1532061686783,1,1,-1,-2,-1,-1,-1,0
1532061686788,-3,-1,-1,-2,-2,-2,-1,0
1532061686793,0,0,-2,-2,0,1,-1,1
1532061686798,0,-1,-2,-2,-1,-3,-2,-1
1532061686803,-2,-2,-1,-1,-1,-2,-3,-1
1532061686808,-2,-1,0,0,-1,-1,-2,-1
1532061686813,-2,-2,-1,0,0,-3,-3,2
1532061686818,-2,-1,-2,1,0,-2,0,-2
1532061686823,-1,1,-2,0,-2,-1,-1,-2
1532061686828,-1,2,-1,-3,0,0,-1,0
1532061686833,-1,0,-1,-1,-1,0,1,0
1532061686838,-1,0,0,-1,-3,0,-2,0
1532061686843,-1,-2,-1,1,0,1,0,0
1532061686848,0,-1,1,1,0,0,0,-1
1532061686853,0,-1,-1,0,-1,1,-2,-1
1532061686858,1,-1,1,-1,-1,1,-1,0
1532061686863,0,0,0,0,-3,0,-2,-2
1532061686868,-2,-2,0,-1,-1,-1,-2,-1
1532061686873,-1,-1,2,1,0,0,-1,-1
1532061686878,-2,-1,-2,-1,-1,0,-2,-3
1532061686883,-2,-1,0,-3,-1,0,-2,-1
1532061686888,0,1,-1,-3,0,-3,0,-3
1532061686893,1,2,0,-1,-1,-1,-1,-2
1532061686898,-2,-1,0,-1,0,-4,0,0
1532061686903,0,-1,2,-2,3,-1,3,2
1532061686908,0,0,0,0,-1,0,0,-1
1532061686913,-1,-2,-1,-1,-1,1,1,0
1532061686918,0,0,-1,-1,0,-1,-1,1
1532061686923,-1,-3,0,-2,-1,0,-2,0
1532061686928,-1,-3,0,-1,-2,-1,1,-2
1532061686933,-2,-3,0,-2,-1,-4,-1,-1
1532061686938,-2,-2,-3,-1,-2,-2,1,-2
1532061686943,-2,-1,-3,-4,-1,-2,-1,-1
1532061686948,-1,1,-4,0,0,-2,-1,-1
1532061686953,-2,0,-4,-2,0,-4,0,-1
1532061686958,0,-1,-2,0,-2,-4,1,-1
1532061686963,0,0,-3,0,0,-5,0,-1
1532061686968,-2,0,-4,-1,0,-2,2,0
1532061686973,0,0,0,0,-1,1,0,-1
1532061686978,-1,1,0,1,-1,-1,0,-1
1532061686983,0,-1,0,0,-3,-1,0,0
1532061686988,-1,-1,-1,-1,-1,-3,-4,-2
1532061686993,0,-3,-2,-1,-2,-2,-1,-2
1532061686998,-1,-2,-1,0,-1,0,-3,-2
1532061687003,-1,-3,-2,-1,-1,4,0,-2
1532061687008,1,-3,0,-1,0,0,-1,0
1532061687013,1,-2,-1,1,-1,-4,1,0
1532061687018,-1,0,-2,-1,0,-8,-2,1
1532061687023,0,0,-3,-1,1,-9,-1,0
1532061687028,0,-2,-1,-1,0,-2,-3,1
1532061687033,1,1,-2,0,1,1,-3,0
1532061687038,1,0,-2,-1,-2,6,0,0
1532061687043,0,1,-2,-1,-2,7,-1,0
1532061687048,1,-1,-1,-3,-3,7,1,2
1532061687053,0,0,-2,-3,-2,5,0,0
1532061687058,0,0,-1,-2,0,6,0,0
1532061687063,0,-2,0,0,-1,0,-2,-2
1532061687068,-1,-1,0,2,-1,0,-3,1
1532061687073,-1,-1,-1,1,-3,1,-5,-1
1532061687078,0,-2,-1,-2,-1,-1,-2,-1
1532061687083,-2,0,1,-1,-3,-1,0,-1
1532061687088,-1,-1,-2,-1,-1,1,1,-2
1532061687093,-3,0,0,0,0,0,1,-1
1532061687098,0,1,1,0,-2,2,-2,-3
1532061687103,-2,1,-1,0,-2,0,0,-1
1532061687108,-2,1,-2,-1,-2,0,1,1
1532061687113,-1,0,-1,0,1,0,2,-2
1532061687118,-1,-1,1,0,0,-1,1,-2
1532061687123,-2,-2,-1,0,0,0,0,-1
1532061687128,-1,-1,1,0,0,-1,-1,-3
1532061687133,-1,0,-1,0,-1,-1,1,-1
1532061687138,-2,-1,-1,-1,-2,-5,1,1
1532061687143,-1,-1,0,-1,-4,-2,-2,1
1532061687148,-1,-1,0,0,0,-1,-1,-3
1532061687153,-2,-1,-1,-2,-1,-3,-2,0
1532061687158,-2,0,0,0,1,-2,-2,0
1532061687163,-1,-1,0,-1,0,0,0,1
1532061687168,0,0,-2,-1,-1,0,-1,-1
1532061687173,0,-2,0,-2,-1,-1,-1,-1
1532061687178,0,-3,-1,-1,-2,-2,-1,-1
1532061687183,2,-1,-2,-1,0,-3,0,-1
1532061687188,1,-1,-1,1,-3,-1,1,-1
1532061687193,-1,-1,-1,-1,-1,1,0,0
1532061687198,-1,-2,-1,-2,-1,-2,0,-3
1532061687203,-1,-1,0,-1,1,1,-2,1
1532061687208,-1,-1,2,0,-2,0,-2,-1
1532061687213,1,-1,1,0,-4,1,1,0
1532061687218,-3,-1,-1,-2,0,2,0,1
1532061687223,0,-2,0,-1,-3,2,-3,0
1532061687228,0,0,0,-1,-1,0,-1,2
1532061687233,-1,0,0,-1,1,6,-1,-1
1532061687238,0,0,2,-1,-1,2,0,-2
1532061687243,-2,0,0,-4,1,-5,-2,-1
1532061687248,-1,-2,1,-2,1,2,-1,1
1532061687253,-1,-2,0,-1,1,12,2,-2
1532061687258,-3,-1,-1,1,1,13,4,0
1532061687263,0,-1,-2,-1,0,8,2,0
1532061687268,0,1,-1,-1,-1,-1,0,-1
1532061687273,1,1,0,0,-2,-6,-3,-2
1532061687278,-1,0,-1,0,-2,-5,-3,-2
1532061687283,0,-1,-1,-2,-2,-8,-1,-4
1532061687288,0,-2,-2,0,-3,-11,-2,-2
1532061687293,0,-2,-1,-1,-2,-10,-2,1
1532061687298,2,-2,0,-2,-2,-9,1,1
1532061687303,-1,0,-1,2,0,-7,-1,2
1532061687308,-2,-2,0,-1,0,-1,-1,-1
1532061687313,0,-2,-1,-1,0,-5,-3,-1
1532061687318,-2,0,-1,1,2,0,-1,-3
1532061687323,-2,0,-1,0,0,3,-2,-3
1532061687328,-2,2,-1,-1,0,-1,1,-2
1532061687333,-1,0,-2,-1,-1,-3,-3,0
1532061687338,0,0,-2,-3,0,-4,0,0
1532061687343,0,-2,-1,0,-1,-3,0,-1
1532061687348,0,0,-1,0,-1,-3,-2,1
1532061687353,0,-1,-2,-1,0,-5,-2,1
1532061687358,-1,0,0,0,-2,-4,-4,1
1532061687363,0,0,1,0,-1,-5,-1,2
1532061687368,-1,-4,0,-1,-1,-3,-2,-1
1532061687373,-1,-2,-1,1,2,-3,2,-1
1532061687378,0,-4,-1,-1,-1,-1,-3,-1
1532061687383,1,-2,-1,-1,0,-1,-1,-1
1532061687388,-1,0,-2,-1,-1,0,0,0
1532061687393,-3,0,-2,0,-1,1,-2,0
1532061687398,1,2,-1,0,0,-1,-1,-1
1532061687403,-2,1,1,0,-1,1,-2,-2
1532061687408,-2,-1,-2,-1,1,-1,2,-1
1532061687413,-1,1,-3,1,-2,-1,0,-1
1532061687418,-3,0,-1,1,0,-3,-1,-2
1532061687423,-2,1,-1,-2,0,-1,0,-2
1532061687428,0,-1,0,-2,1,-2,-2,-1
1532061687433,-2,-2,0,-1,0,0,-1,0
1532061687438,0,1,-3,-3,0,1,-1,-1
1532061687443,1,0,-3,-2,0,1,0,1
1532061687448,0,2,1,0,-1,0,-2,-1
1532061687453,3,0,-1,-2,-2,-2,-1,0
1532061687458,0,-1,-1,-2,-1,1,-1,0
1532061687463,-2,0,-3,0,-2,0,-2,0
1532061687468,-2,-2,-1,-1,0,2,0,-1
1532061687473,-3,-2,1,-2,-2,-1,-1,0
1532061687478,-2,-2,1,0,-1,0,1,-2
1532061687483,0,-2,2,-2,0,-1,1,-1
1532061687488,0,-2,1,-1,-3,0,-1,-1
1532061687493,-1,-2,2,0,-1,-1,1,-3
1532061687498,-1,-1,1,-2,-2,-1,1,1
1532061687503,0,0,0,0,0,1,1,-3
1532061687508,-1,-1,-1,1,0,-2,1,-1
1532061687513,-1,-1,-2,0,-2,-1,0,-1
1532061687518,-1,-3,-1,-1,0,-2,-2,0
1532061687523,-1,-1,-3,-1,-2,-3,-2,0
1532061687528,-2,-2,-3,-1,0,-1,0,1
1532061687533,-2,-2,0,-2,0,0,-1,-1
1532061687538,1,-2,-3,-1,1,-1,-2,-1
1532061687543,-1,-1,-1,-1,-1,0,-3,-1
1532061687548,-3,1,-1,0,-1,0,-4,1
1532061687553,-1,-1,-1,-2,-1,0,-3,0
1532061687558,-1,-1,-1,-1,-1,0,-3,-2
1532061687563,-2,0,-1,0,0,-1,-2,-1
1532061687568,-2,1,-1,-1,1,1,-2,-2
1532061687573,0,-1,-2,0,1,2,0,-2
1532061687578,-1,-1,0,-1,0,-2,-1,0
1532061687583,-3,-2,-2,0,0,-2,0,0
1532061687588,0,-3,-1,-3,1,-1,0,-1
1532061687593,0,-1,-1,-3,1,0,-1,-1
1532061687598,-1,-1,-1,-2,0,1,-4,-1
1532061687603,-2,-1,-1,-3,1,2,-2,-2
1532061687608,0,-2,0,-1,-2,0,-2,-2
1532061687613,-2,2,0,-1,-1,-2,-2,-3
1532061687618,-1,-1,-1,-1,-3,-2,-1,-3
1532061687623,0,-2,-1,-4,-1,-3,2,-2
1532061687628,-1,-1,-2,-2,0,-6,1,0
1532061687633,-2,-2,-1,0,-2,-4,-1,0
1532061687638,-1,-2,1,-1,-2,-5,-4,0
1532061687643,0,-1,0,0,-2,-6,-3,-1
1532061687648,1,-1,-3,0,-2,-7,-1,-2
1532061687653,-1,-1,0,-1,-2,-5,0,1
1532061687658,0,2,0,0,-1,-6,2,-1
1532061687663,0,-1,-1,1,-2,-9,2,0
1532061687668,-1,-1,0,1,-2,-6,1,-3
1532061687673,0,0,1,1,0,-5,1,0
1532061687678,0,-1,-1,-1,0,0,4,-2
1532061687683,0,-2,-1,-1,-2,-5,1,-1
1532061687688,-2,0,-1,-1,-1,3,2,0
1532061687693,-3,-3,-3,-1,-3,7,3,0
1532061687698,-1,-2,1,-1,-1,6,3,1
1532061687703,-2,-1,-2,0,1,9,2,0
1532061687708,-1,1,0,1,1,7,1,0
1532061687713,0,-1,0,-1,1,3,-1,-1
1532061687718,-2,1,-1,2,1,2,-4,-2
1532061687723,0,0,-1,1,-2,1,-5,-4
1532061687728,0,-1,0,-1,-2,3,-4,0
1532061687733,2,1,-3,-2,-2,2,-1,-2
1532061687738,-1,1,0,-3,-3,2,-2,-1
1532061687743,0,-2,0,-3,-4,4,-3,1
1532061687748,-1,0,-1,-1,-2,0,-2,0
1532061687753,-2,0,0,1,-2,1,1,-1
1532061687758,1,-1,-1,0,-4,-1,1,1
1532061687763,-1,1,1,0,-4,1,0,-1
1532061687768,0,2,-1,0,-2,-1,-1,-1
1532061687773,0,-1,-1,0,0,0,0,2
1532061687778,-1,-1,-3,0,-1,1,-2,2
1532061687783,-1,-1,-2,0,1,-1,-2,0
1532061687788,-3,-2,-2,-4,1,0,-3,-1
1532061687793,-1,0,-1,0,1,-2,-1,-2
1532061687798,-2,-2,0,-1,-2,1,0,-2
1532061687803,-2,1,1,0,0,0,-2,0
1532061687808,1,0,0,0,0,1,-2,0
1532061687813,-2,-3,0,0,-1,2,-3,-1
1532061687818,-1,0,0,-2,-2,3,0,0
1532061687823,-2,-1,-1,-1,-2,0,0,-1
1532061687828,-2,-1,-1,-2,-1,3,0,-1
1532061687833,0,-1,-4,-2,-1,3,1,0
1532061687838,0,-4,-1,-2,-2,0,1,-2
1532061687843,0,-3,-2,0,-2,2,4,-2
1532061687848,-1,0,-3,-1,-1,2,1,-1
1532061687853,-1,-2,-2,1,0,1,-1,-1
1532061687858,-2,-2,-3,2,0,1,1,0
1532061687863,0,-1,1,-1,0,-3,-1,0
1532061687868,0,-2,1,0,-2,-2,2,0
1532061687873,0,-2,-2,-3,-1,-5,-1,-1
1532061687878,-1,-2,-1,0,-1,-3,-1,0
1532061687883,2,0,-1,0,0,-2,0,0
1532061687888,0,-1,-3,-1,1,-4,-1,-1
1532061687893,-1,1,0,-1,1,-2,0,0
1532061687898,-1,1,-1,0,0,-3,-1,0
1532061687903,0,0,-2,-2,1,0,0,0
1532061687908,-1,-1,-1,-1,1,-1,-1,-3
1532061687913,-1,-1,0,1,0,0,-2,-1
1532061687918,0,0,-1,0,0,0,0,0
1532061687923,-2,1,0,0,0,-1,-2,-1
1532061687928,-1,-1,-1,-2,-1,-3,-2,0
1532061687933,-3,-2,-1,-1,-1,-2,-1,-2
1532061687938,0,-1,1,-1,1,-1,-1,-1
1532061687943,-2,-2,-1,-1,-1,1,-1,0
1532061687948,0,-1,1,1,-1,0,-2,1
1532061687953,1,1,0,-1,-1,0,-1,-1
1532061687958,0,1,-2,-2,-3,-2,-3,-2
1532061687963,0,0,-1,0,-1,-2,-2,0
1532061687968,2,-3,0,-2,0,-3,0,0
1532061687973,-1,1,-1,-2,-1,-2,1,-2
1532061687978,-1,0,-1,-1,0,-2,0,-2
1532061687983,-1,0,-1,-1,-2,1,-3,-2
1532061687988,-2,0,0,0,0,-1,-1,0
1532061687993,-2,0,0,0,-1,-2,0,0
1532061687998,-1,-2,-1,-2,1,0,-2,-2
1532061688003,1,-2,0,-2,1,-1,-1,0
1532061688008,0,-1,0,-4,-3,1,0,-2
1532061688013,1,-3,-1,-2,1,-3,0,-2
1532061688018,-1,1,-2,-1,-1,-3,-1,-3
1532061688023,0,0,-2,-2,0,-3,1,0
1532061688028,-1,-2,-2,0,-1,1,-1,-1
1532061688033,0,-2,-1,0,-1,0,-2,1
1532061688038,-2,-1,-1,0,-1,-2,1,1
1532061688043,-2,-1,-3,1,0,-2,-1,2
1532061688048,-1,-1,-1,-1,0,-2,-2,0
1532061688053,0,-2,0,-2,-2,-1,0,-1
1532061688058,1,-2,-1,0,-1,0,0,0
1532061688063,-1,-1,1,0,-3,-1,-1,-2
1532061688068,0,0,1,1,-3,-1,-2,-3
1532061688073,-3,-1,0,0,-1,2,-4,0
1532061688078,0,0,-1,-2,0,0,-2,0
1532061688083,0,-1,-1,-1,-1,-1,0,0
1532061688088,-1,0,0,-1,-2,-1,-1,-1
1532061688093,0,0,1,-1,0,0,-2,-1
1532061688098,-2,1,-1,1,1,1,-2,-1
1532061688103,0,1,0,-4,-1,0,-1,-1
1532061688108,-1,0,0,-2,0,-2,0,-2
1532061688113,0,1,-1,0,-1,-1,0,0
1532061688118,-1,-2,-1,0,-2,-2,-1,0
1532061688123,-1,-2,-1,-2,-3,0,0,-1
1532061688128,0,-1,-3,0,-3,1,-2,-1
1532061688133,-1,0,-3,-1,-2,2,-1,-1
1532061688138,1,0,0,-2,0,-1,-1,-1
1532061688143,0,1,0,-1,1,1,-1,-2
1532061688148,-1,-1,0,0,1,1,2,0
1532061688153,-1,-2,2,-1,0,3,-1,0
1532061688158,-2,-2,0,-2,-1,3,0,0
1532061688163,0,-2,-3,1,0,3,-1,-1
1532061688168,0,-1,-1,0,0,0,-2,-1
1532061688173,0,0,-3,0,1,5,0,0
1532061688178,1,-2,-1,-2,0,4,0,0
1532061688183,-1,-3,1,-1,1,-7,0,-1
1532061688188,-3,-3,-1,0,-2,1,-1,-2
1532061688193,-3,0,-1,-2,-3,-1,0,-2
1532061688198,-2,1,-2,-2,-3,1,-3,0
1532061688203,-2,0,-1,-1,-2,11,-2,0
1532061688208,-1,0,0,-1,-3,-1,-2,1
1532061688213,0,-3,1,1,-1,-5,-1,-2
1532061688218,1,-3,1,0,-2,-10,-2,-2
1532061688223,-1,-1,-1,0,0,-5,0,-1
1532061688228,-1,-1,-1,1,1,-4,-2,-1
1532061688233,-1,1,-2,-3,-1,-4,1,0
1532061688238,-3,-2,-1,-3,-1,-7,-1,-1
1532061688243,-3,-1,-2,0,-1,-9,0,-4
1532061688248,-2,-2,-2,-2,0,-7,-1,-1
1532061688253,0,-1,-3,-2,1,-6,-1,-2
1532061688258,0,0,-4,1,2,-4,0,1
1532061688263,-3,-1,-1,-2,-2,-6,-1,-1
1532061688268,-1,-1,1,-2,-2,-1,-1,1
1532061688273,0,1,-2,0,-2,-3,-2,1
1532061688278,0,0,-1,0,-2,-2,0,1
1532061688283,2,0,-3,-1,0,-1,1,0
1532061688288,2,-1,0,0,-1,-2,1,-1
1532061688293,0,0,1,-1,0,-1,-3,0
1532061688298,0,-2,-2,-3,-1,1,-3,-1
1532061688303,0,0,-1,-3,0,-2,0,-2
1532061688308,1,-1,-2,-1,-2,1,-1,-1
1532061688313,-1,-2,0,1,0,0,1,0
1532061688318,-1,0,-1,-1,-2,1,0,-3
1532061688323,0,0,0,0,-2,3,-1,0
1532061688328,0,1,-1,-2,-1,0,0,-1
1532061688333,0,-1,-2,2,-2,-1,-1,-2
1532061688338,-1,-2,-2,1,0,1,-1,1
1532061688343,0,0,0,-2,-2,1,1,2
1532061688348,-1,-2,-1,0,0,1,-1,-2
1532061688353,-1,0,0,-2,-2,1,-2,-1
1532061688358,1,-2,-1,-2,-2,0,-2,-3
1532061688363,1,-1,0,-1,-1,2,0,0
1532061688368,0,-1,1,-1,-2,2,0,1
1532061688373,2,-1,0,-1,-1,0,-2,0
1532061688378,1,-1,1,-2,-1,1,-1,-1
1532061688383,0,-1,-1,-1,-2,0,-2,0
1532061688388,-1,-1,-1,1,-2,-1,0,0
1532061688393,0,-1,-1,-1,0,0,0,0
1532061688398,-3,0,1,1,-1,1,1,-1
1532061688403,0,0,0,-1,0,2,2,-2
1532061688408,0,-3,0,-1,-1,-9,-2,-1
1532061688413,-2,-2,0,-3,-1,1,0,0
1532061688418,-1,-2,-2,0,0,3,2,-1
1532061688423,-2,-2,-1,-1,0,0,2,-1
1532061688428,-1,-1,-4,0,-3,-2,0,-1
1532061688433,-1,1,0,1,-2,0,0,0
1532061688438,-2,0,0,-1,-3,-5,-4,0
1532061688443,-2,-2,0,2,2,2,-5,0
1532061688448,-2,0,-1,1,2,3,-2,0
1532061688453,-2,-2,-3,1,0,0,-2,-1
1532061688458,0,1,1,-1,-2,2,0,1
1532061688463,-1,0,0,-1,-3,-2,-4,0
1532061688468,-2,0,0,-2,-2,-7,-3,1
1532061688473,-2,-2,-1,0,-1,-1,-1,-3
1532061688478,-1,-1,-1,0,0,-4,-2,-1
1532061688483,-1,-2,-2,-3,4,-3,0,-2
1532061688488,-2,0,-1,-3,-1,1,-3,-2
1532061688493,1,-2,-1,0,-2,-3,1,0
1532061688498,0,-1,-1,0,4,5,0,-1
1532061688503,0,-1,-2,1,-4,-3,-3,-2
1532061688508,-1,-2,0,-2,-4,-4,-3,-2
1532061688513,-1,-1,-1,-2,-4,-2,-4,-1
1532061688518,1,-1,-2,-2,-3,-2,0,0
1532061688523,0,-2,0,1,-2,2,2,-1
1532061688528,-1,0,0,1,1,0,-1,-2
1532061688533,-2,0,-1,-1,1,-1,0,1
1532061688538,-1,-2,0,-2,-6,-7,-4,-2
1532061688543,-1,-1,-2,0,0,-1,-4,-2
1532061688548,-1,-2,-1,-2,1,3,1,-2
1532061688553,-2,0,-2,-1,1,-3,0,1
1532061688558,-2,-1,-1,-1,3,4,1,1
1532061688563,1,1,1,-1,-1,2,1,3
1532061688568,0,0,-1,2,2,3,-2,-2
1532061688573,-3,-3,0,-2,-3,-6,-1,-1
1532061688578,-1,-3,0,-1,-1,2,-2,0
1532061688583,-1,-3,0,0,-2,-1,0,-1
1532061688588,0,0,-1,-2,0,1,2,-1
1532061688593,2,-1,-1,0,2,4,1,-3
1532061688598,0,-1,-2,0,-1,-1,-2,-1
1532061688603,-3,-1,-3,-2,-8,-5,-3,0
1532061688608,-1,0,2,1,2,5,-2,4
1532061688613,0,-1,0,1,3,1,1,0
1532061688618,0,0,-1,1,1,2,1,-1
1532061688623,-2,-2,-1,1,1,2,0,-1
1532061688628,-1,-3,-2,0,-3,1,-2,-3
1532061688633,0,-2,-3,-2,-5,-1,0,0
1532061688638,-1,0,0,0,0,1,-2,-2
1532061688643,0,1,-1,-1,1,10,1,-2
1532061688648,-1,0,-2,-1,2,6,3,2
1532061688653,1,0,-1,0,0,4,0,-1
1532061688658,2,-1,-1,-2,-4,-3,-3,-3
1532061688663,-2,-3,0,-1,-4,-10,-5,-1
1532061688668,-1,0,0,1,2,-8,0,-1
1532061688673,-2,2,2,0,1,-5,1,-1
1532061688678,-2,-2,-1,-1,-2,-5,0,1
1532061688683,0,2,0,0,1,-1,-2,-2
1532061688688,1,0,-1,-1,0,-1,1,0
1532061688693,-1,-1,-1,-3,-2,-5,-4,-3
1532061688698,-2,0,1,-2,-1,-1,-1,-2
1532061688703,-1,-1,0,-1,-1,-4,1,1
1532061688708,-1,0,-1,0,-3,-10,0,-1
1532061688713,0,-1,1,0,0,-2,-3,0
1532061688718,-2,-1,0,0,-1,-6,3,-2
1532061688723,-1,-1,-3,-1,-1,-4,0,-1
1532061688728,-2,0,-4,0,-5,-9,-3,-1
1532061688733,-1,0,-3,1,-1,2,-1,-1
1532061688738,-1,-1,-4,0,0,-1,-1,0
1532061688743,0,0,-1,1,-2,-3,1,0
1532061688748,-1,-1,-1,-3,-4,0,-3,1
1532061688753,-1,0,-2,0,2,3,-2,0
1532061688758,0,0,0,0,1,0,3,2
1532061688763,-1,-1,1,-1,0,-4,-3,-2
1532061688768,-1,1,1,-1,-1,5,-1,-4
1532061688773,-2,-2,1,-3,-4,-2,0,-2
1532061688778,-1,-2,2,1,5,5,-1,1
1532061688783,1,-2,-1,0,0,0,6,2
1532061688788,0,-1,-3,-1,0,-1,0,0
1532061688793,-1,0,-1,-3,-5,-7,-1,-4
1532061688798,0,0,-2,-1,-7,-6,-3,-2
1532061688803,1,3,1,1,6,7,0,-1
1532061688808,2,-1,2,2,2,4,4,1
1532061688813,0,-3,0,-1,3,1,1,2
1532061688818,-1,-2,0,-4,-8,-7,-5,-1
1532061688823,-2,-4,-1,-3,-6,-4,-8,-1
1532061688828,-2,-1,0,0,3,7,2,-2
1532061688833,1,1,2,0,0,-4,2,0
1532061688838,-1,0,-1,0,1,7,1,-1
1532061688843,0,-2,2,0,-1,0,1,-1
1532061688848,-1,-2,1,0,-3,-5,0,-2
1532061688853,-2,-2,-3,-3,-1,-1,-2,0
1532061688858,-1,-2,-1,-3,-2,-5,-3,-3
1532061688863,-1,-1,0,-5,-3,-2,-1,-1
1532061688868,0,-2,-1,-2,-4,-5,-2,-1
1532061688873,0,-1,0,2,-1,2,-2,0
1532061688878,-1,0,-2,-1,-2,-1,-2,1
1532061688883,-2,2,-4,-1,1,2,-4,-3
1532061688888,-1,1,-2,0,-3,0,-1,-1
1532061688893,-2,-2,-2,-1,0,1,0,-1
1532061688898,0,-1,-2,0,4,-1,-2,0
1532061688903,0,-1,-1,1,-1,-2,0,1
1532061688908,1,-1,-2,-1,-2,-3,2,-1
1532061688913,-2,0,1,0,-2,1,-1,1
1532061688918,-1,-1,-1,0,2,2,1,-1
1532061688923,0,2,-2,0,-1,-1,-1,0
1532061688928,-1,-2,-2,-2,-1,-3,-4,-2
1532061688933,0,1,-2,-2,-1,-1,-2,1
1532061688938,-1,0,0,0,0,1,0,1
1532061688943,-2,-6,-4,-3,-3,0,0,-3
1532061688948,1,-1,-2,-2,-1,-2,-3,-1
1532061688953,2,-3,-2,-1,-2,-2,-2,-2
1532061688958,0,0,-3,-2,1,0,-1,-1
1532061688963,-1,0,-1,-1,0,-1,1,0
1532061688968,-1,0,0,0,-1,1,-2,1
1532061688973,0,1,-3,-2,0,-1,0,-2
1532061688978,-1,-1,1,0,1,-2,-1,-1
1532061688983,-1,2,0,-1,2,1,-3,1
1532061688988,-3,-2,-1,-2,1,2,-1,-2
1532061688993,0,2,0,-1,-4,-3,0,-2
1532061688998,-1,-3,-1,-2,-9,-6,-1,-4
1532061689003,2,0,0,2,4,5,5,-1
1532061689008,1,0,-1,1,0,0,0,-1
1532061689013,-1,-1,0,-2,-1,-3,1,0
1532061689018,-3,0,-1,-1,1,-1,0,2
1532061689023,-2,-3,0,0,-1,-1,-3,-2
1532061689028,-3,-1,0,-1,-3,-3,-4,1
1532061689033,-1,-2,0,0,0,-2,-2,-1
1532061689038,1,0,-1,-1,-2,1,0,0
1532061689043,0,2,0,0,1,0,-2,-1
1532061689048,-2,-1,-2,-3,1,1,-2,-2
1532061689053,1,0,4,4,-2,-1,1,1
1532061689058,-2,-3,-3,-1,-4,0,1,-2
1532061689063,-2,-2,-2,-4,-6,-3,-1,1
1532061689068,-2,-1,-1,4,3,1,2,0
1532061689073,0,-1,-2,-2,2,-1,-2,0
1532061689078,1,-1,0,0,3,-2,-2,-2
1532061689083,0,-4,-3,2,2,-2,-2,-1
1532061689088,1,-2,0,-2,1,-1,1,0
1532061689093,1,-2,-5,-7,-1,0,0,2
1532061689098,-11,-3,-2,3,1,-1,0,0
1532061689103,14,4,1,0,-3,-3,-2,-1
1532061689108,-19,-4,-1,-3,-2,-3,-4,-4
1532061689113,-5,-6,-1,8,1,3,-2,-1
1532061689118,0,-3,-4,-12,-3,-3,-1,-2
1532061689123,1,1,3,6,-2,-1,-1,0
1532061689128,8,2,-8,-10,-1,1,1,1
1532061689133,-1,3,3,9,7,4,1,0
1532061689138,5,0,-5,-2,1,1,0,-3
1532061689143,-9,-12,-9,-7,-5,-3,-2,-3
1532061689148,0,-1,-3,-7,-5,-3,-2,-2
1532061689153,-2,0,0,-1,-3,-3,1,-2
1532061689158,1,2,0,0,-3,-2,0,0
1532061689163,2,1,7,12,6,2,3,0
1532061689168,-4,-1,-2,0,2,2,1,0
1532061689173,0,-3,-7,-10,-3,-2,-1,-1
1532061689178,2,1,8,18,1,-1,-2,-1
1532061689183,5,1,-3,-39,-7,1,0,5
1532061689188,-10,-1,2,14,-3,-3,-3,-6
1532061689193,-3,-5,3,39,4,0,-3,-1
1532061689198,3,1,-3,-12,6,4,-1,1
1532061689203,-4,-4,-8,-40,-5,-1,-3,-4
1532061689208,5,-3,-3,11,0,-5,-2,2
1532061689213,1,0,-7,-44,-6,-4,-1,-3
1532061689218,1,4,5,40,7,9,4,3
1532061689223,-6,-2,4,11,-7,-8,-3,-3
1532061689228,4,-1,-19,-4,2,-2,0,-1
1532061689233,-6,-4,15,10,-3,-8,-5,-6
1532061689238,0,-3,3,-9,-5,-4,-1,0
1532061689243,-1,2,4,20,6,4,2,-1
1532061689248,4,1,-1,-14,-2,0,1,1
1532061689253,3,2,-5,6,4,1,0,-1
1532061689258,2,6,11,-20,4,-1,-2,-2
1532061689263,-6,-4,-14,-18,-8,-2,-2,0
1532061689268,1,-4,4,3,2,1,-1,1
1532061689273,-4,-6,-15,-21,-7,-1,-3,0
1532061689278,-1,-2,4,-1,-7,-3,-2,-2
1532061689283,-1,1,3,33,7,-1,1,-3
1532061689288,1,2,2,13,8,-2,-2,2
1532061689293,1,-1,-6,-29,-11,-5,-1,1
1532061689298,1,2,-1,10,13,3,1,-1
1532061689303,1,-2,6,6,-2,2,-1,1
1532061689308,3,1,3,3,-10,3,4,1
1532061689313,0,2,1,1,-7,-2,0,0
1532061689318,-2,0,-12,-24,-7,-4,1,1
1532061689323,-1,6,5,17,0,-7,-3,-2
1532061689328,-3,-3,12,5,0,1,-5,0
1532061689333,-2,0,1,2,0,0,0,-4
1532061689338,-5,-7,-6,-13,-8,-4,-6,-2
1532061689343,0,3,6,4,10,4,1,1
1532061689348,0,-3,23,0,0,-2,-3,-2
1532061689353,0,-1,4,4,-1,-4,-4,-4
1532061689358,-1,-1,2,2,-12,-10,-3,-3
1532061689363,-2,0,4,35,-23,-17,-6,-7
1532061689368,-1,-5,-37,-69,-19,25,11,10
1532061689373,2,2,-21,-12,-2,11,3,3
1532061689378,0,-2,-25,17,3,0,-5,0
1532061689383,1,0,-13,-16,-7,-4,-1,1
1532061689388,0,-1,0,20,2,-17,-6,-8
1532061689393,-2,-2,30,8,6,11,2,1
1532061689398,-2,-5,55,-4,2,-1,2,-2
1532061689403,-5,-3,32,-1,13,7,0,-4
1532061689408,1,5,29,4,9,-1,2,-2
1532061689413,-1,-1,-14,11,4,-3,1,0
1532061689418,1,1,-25,-28,-13,-8,-3,-3
1532061689423,0,0,-2,26,14,-3,1,1
1532061689428,0,1,-18,10,-8,0,-2,-2
1532061689433,0,0,-14,0,-4,-2,-1,1
1532061689438,-1,1,-20,-5,0,1,-2,-2
1532061689443,1,-1,-14,-22,-8,1,2,1
1532061689448,-4,-5,-2,4,-3,-12,-6,-5
1532061689453,-2,-2,3,10,6,1,0,-2
1532061689458,1,1,-4,-1,5,10,11,4
1532061689463,3,3,-12,-13,10,10,4,8
1532061689468,-5,-2,-5,5,-6,-11,-9,-2
1532061689473,-2,5,-4,-5,-5,-5,-6,-12
1532061689478,-6,5,-8,5,6,0,-9,-7
1532061689483,-13,-36,-12,-5,-16,-12,-8,-11
1532061689488,0,-6,3,5,18,-9,-5,-4
1532061689493,-2,3,4,-15,-14,12,3,5
1532061689498,18,47,10,13,30,34,14,9
1532061689503,18,58,12,-6,1,4,10,16
1532061689508,9,-34,-10,-5,-6,-12,6,34
1532061689513,-25,-83,-17,4,3,-11,1,-10
1532061689518,-29,-17,-3,1,-14,-19,-30,-61
1532061689523,-1,15,1,-7,1,1,-27,-26
1532061689528,14,45,3,3,-2,8,48,21
1532061689533,30,67,11,6,-1,-13,18,40
1532061689538,6,-25,5,2,-5,6,-5,29
1532061689543,-10,-47,3,-4,3,3,21,-14
1532061689548,0,3,45,1,6,10,-22,-11
1532061689553,-1,1,34,2,7,8,-4,0
1532061689558,4,7,-30,-2,-8,-11,-1,4
1532061689563,-1,3,-106,-4,0,6,15,11
1532061689568,-1,-7,37,-5,-8,3,-33,-11
1532061689573,-8,-7,97,-2,3,-3,28,-1
1532061689578,1,-4,84,-2,-11,-17,-14,-1
1532061689583,-5,-10,10,-9,-8,-4,5,-12
1532061689588,-14,0,-93,3,8,7,45,-1
1532061689593,0,6,-84,2,3,1,-37,-13
1532061689598,0,0,-56,2,-4,-6,-3,2
1532061689603,-2,-3,-72,3,0,-2,-14,14
1532061689608,-3,1,-73,-1,1,-1,-30,-18
1532061689613,0,7,-32,0,-2,-2,2,-6
1532061689618,-1,-12,2,1,4,0,27,17
1532061689623,-1,2,69,-3,1,-2,-13,-3
1532061689628,-3,2,59,-6,-3,0,-3,-12
1532061689633,-1,-8,20,-3,-1,-6,-13,-8
1532061689638,-2,-2,6,-1,-2,1,5,-1
1532061689643,1,2,36,3,1,-4,11,16
1532061689648,4,9,18,0,-4,1,-6,-9
1532061689653,-6,-15,-12,-6,-7,-3,-13,-7
1532061689658,0,-25,2,3,3,0,-20,-7
1532061689663,1,19,19,2,10,8,40,6
1532061689668,1,-5,-9,2,1,-4,-5,4
1532061689673,2,-1,-16,1,0,3,5,-1
1532061689678,-1,-2,-7,-6,-7,-10,-64,-27
1532061689683,-7,-32,11,-2,1,-1,48,19
1532061689688,-2,3,10,-3,-1,-4,5,3
1532061689693,4,13,7,6,3,0,-14,-3
1532061689698,0,3,-4,-10,-2,5,4,-1
1532061689703,2,6,-11,-3,-2,-1,-22,-8
1532061689708,-1,1,-10,-2,-5,-6,-1,0
1532061689713,-1,-1,-5,-3,-1,-1,-20,14
1532061689718,-5,-1,-15,7,0,2,53,-1
1532061689723,-2,3,9,0,-2,-3,-17,-6
1532061689728,-3,-7,12,-2,-1,0,-4,-6
1532061689733,-1,-3,14,0,-1,-4,-6,2
1532061689738,1,7,9,2,2,3,4,10
1532061689743,-2,1,6,1,-2,0,-11,-10
1532061689748,-3,-4,5,0,1,-1,-11,1
1532061689753,0,2,3,-2,0,-2,11,-7
1532061689758,-2,2,6,1,-1,-2,8,7
1532061689763,-2,-6,11,-2,-3,-3,-20,-6
1532061689768,1,3,8,-1,2,4,2,3
1532061689773,4,11,1,1,2,-1,17,2
1532061689778,-1,-13,-2,-5,-3,1,-4,0
1532061689783,14,-3,1,1,4,0,-14,2
1532061689788,-17,15,-1,-6,-10,-4,3,-7
1532061689793,5,-22,-6,1,0,3,8,4
1532061689798,-14,-6,0,1,-3,-6,-3,2
1532061689803,0,3,-3,1,-3,2,5,-4
1532061689808,6,-5,-1,0,5,1,-2,4
1532061689813,-2,8,0,1,0,-2,-3,-7
1532061689818,14,10,2,-8,-5,-2,2,4
1532061689823,-18,0,-5,-2,-6,-5,-7,-1
1532061689828,4,-11,-3,2,0,2,8,3
1532061689833,-2,8,-6,4,3,0,-3,-4
1532061689838,-4,-7,-5,-2,0,-1,9,-3
1532061689843,1,8,-3,-3,-1,1,-9,0
1532061689848,2,-7,-3,-3,-1,-2,1,-2
1532061689853,-4,5,-5,-7,1,-3,-9,-4
1532061689858,5,-2,3,15,2,3,6,3
1532061689863,-1,-2,-2,-5,4,5,-3,0
1532061689868,-5,-13,-4,5,0,1,-9,-7
1532061689873,4,11,2,-1,-6,-4,11,2
1532061689878,-2,-2,-3,-3,-1,-7,-6,3
1532061689883,-1,5,12,1,-4,-1,-8,-7
1532061689888,1,2,9,0,1,3,7,1
1532061689893,-1,-14,3,-11,3,4,-9,-1
1532061689898,-2,0,-6,10,-1,-2,1,-3
1532061689903,0,-2,-11,3,-5,-3,6,4
1532061689908,2,-3,-14,-6,8,6,-7,-5
1532061689913,-2,-2,-10,-6,-7,-5,18,4
1532061689918,-1,1,-7,2,3,1,-10,-2
1532061689923,0,-1,-5,2,-3,-7,-7,5
1532061689928,0,5,-2,1,-9,-4,-36,-11
1532061689933,-6,-7,-4,8,2,2,38,-6
1532061689938,-1,-1,0,-8,-2,-3,-14,-7
1532061689943,-3,1,-1,-2,2,0,15,6
1532061689948,3,-1,5,1,-2,-2,-8,3
1532061689953,-1,2,4,-1,-3,-5,-8,-5
1532061689958,2,13,2,-6,-1,-2,-7,1
1532061689963,0,-1,0,5,-6,-2,7,-6
1532061689968,-9,-29,-4,-4,-2,-6,4,-2
1532061689973,-2,-9,-4,-5,3,5,-11,-1
1532061689978,0,10,0,11,5,3,11,3
1532061689983,0,-1,-2,-7,-1,-5,-13,-3
1532061689988,3,10,0,-4,-2,-6,-30,-2
1532061689993,-2,4,-2,-3,-5,-2,49,7
1532061689998,0,-4,0,15,3,6,-8,-1
1532061690003,0,0,-3,-5,2,-6,-1,-6
1532061690008,1,6,-1,-3,-4,-5,7,5
1532061690013,2,-3,0,-3,-5,-2,-21,-6
1532061690018,-1,-3,-2,-1,6,11,8,8
1532061690023,0,-7,-1,-2,4,1,-3,-7
1532061690028,-2,3,0,-3,-8,-7,10,-2
1532061690033,3,2,2,-6,3,-7,-42,4
1532061690038,-6,-5,-2,1,-4,4,32,-4
1532061690043,0,0,2,8,3,5,-6,3
1532061690048,-5,-14,-2,-12,7,7,17,2
1532061690053,-1,4,1,7,-5,-4,-3,0
1532061690058,-1,9,0,-9,-7,-12,-6,-13
1532061690063,2,-6,-1,-3,-1,-1,-11,-4
1532061690068,4,25,6,18,3,4,12,1
1532061690073,-1,-15,-2,-2,5,5,-12,-7
1532061690078,-4,-9,-6,-10,2,3,15,4
1532061690083,1,0,-4,-6,-4,-4,-7,0
1532061690088,1,0,-1,-4,-4,-8,3,-4
1532061690093,0,9,3,2,-4,3,3,3
1532061690098,2,3,1,-4,10,7,-26,0
1532061690103,-3,-13,-2,-6,-6,-5,12,0
1532061690108,-2,0,-1,1,0,3,5,0
1532061690113,0,2,-2,3,-3,-10,-6,-5
1532061690118,-1,1,2,-3,-5,-3,-3,0
1532061690123,-1,-6,-1,2,2,5,-1,1
1532061690128,-5,-7,-1,10,1,1,1,-2
1532061690133,0,17,1,-2,-3,3,3,1
1532061690138,-2,-4,-4,-3,-4,-1,1,0
1532061690143,-3,5,1,-2,-2,-6,-10,-4
1532061690148,-6,-26,-10,-8,-6,-10,4,8
1532061690153,0,-3,-3,4,2,4,-6,-5
1532061690158,2,11,2,-1,5,5,-1,1
1532061690163,3,30,8,-1,-6,-12,-2,-1
1532061690168,0,-15,-6,1,13,17,-1,5
1532061690173,-7,-16,-7,-2,0,-1,0,-4
1532061690178,0,2,-2,-5,-7,-10,-5,-1
1532061690183,-2,-9,-1,3,-4,-3,-3,-2
1532061690188,4,21,5,-2,-4,-1,4,-1
1532061690193,0,-5,0,-4,5,0,2,2
1532061690198,-2,-18,-6,-1,-8,-3,-4,-3
1532061690203,-3,-1,1,8,6,2,2,1
1532061690208,0,-8,-1,-2,-5,-7,-4,-6
1532061690213,1,5,2,-1,1,5,0,0
1532061690218,-1,-1,2,2,-5,-4,0,1
1532061690223,0,2,-2,-9,-3,3,-3,-4
1532061690228,2,12,1,-2,-14,-20,-10,-4
1532061690233,-7,0,2,0,-7,-8,-11,-11
1532061690238,1,-5,2,7,27,25,7,6
1532061690243,0,-11,-9,-11,0,13,22,2
1532061690248,-2,-6,1,9,24,22,7,-4
1532061690253,2,8,-6,-1,-15,-23,-8,-1
1532061690258,0,6,2,-10,-29,-27,-11,-2
1532061690263,2,-5,-4,12,21,9,-3,-2
1532061690268,-3,0,-3,-16,-16,-5,-4,-2
1532061690273,-2,-6,-4,-6,-1,0,-3,-1
1532061690278,0,3,-2,-2,-2,-1,-3,-2
1532061690283,2,3,3,3,-6,-5,-6,0
1532061690288,0,6,-2,-1,-1,-3,2,0
1532061690293,-1,-1,-1,1,5,7,1,1
1532061690298,-2,-8,-2,-1,-3,-4,-1,-2
1532061690303,0,10,2,-5,-9,-13,-6,-2
1532061690308,-2,-13,2,10,10,9,2,-2
1532061690313,0,-5,-2,0,10,17,9,-1
1532061690318,1,3,1,6,2,-1,2,-1
1532061690323,-3,5,3,9,-2,-4,-4,0
1532061690328,1,15,6,-1,-5,-9,-4,0
1532061690333,2,-28,-7,-5,-5,-1,-1,2
1532061690338,-6,-18,-10,-4,2,1,1,-1
1532061690343,0,-4,1,-2,-1,4,1,0
1532061690348,-1,3,1,0,-2,1,0,-1
1532061690353,1,11,6,3,4,0,1,2
1532061690358,1,3,0,-2,-4,-3,0,1
1532061690363,-1,-6,-4,-6,-4,-6,-3,-3
1532061690368,0,3,1,1,2,1,4,1
1532061690373,-1,8,4,1,-2,-4,1,-1
1532061690378,-2,-6,-1,-1,3,3,1,-2
1532061690383,-3,-12,-3,1,3,4,-3,0
1532061690388,0,5,-1,-2,-6,-1,-2,0
1532061690393,-2,-9,-4,1,3,4,1,-1
1532061690398,6,34,9,2,2,0,5,2
1532061690403,-4,-30,-10,-2,1,3,1,-1
1532061690408,-5,-19,-10,-3,-2,-8,-2,-3
1532061690413,1,7,-1,-4,-6,-6,-6,-3
1532061690418,1,3,0,-2,-4,0,1,3
1532061690423,1,10,1,1,3,2,2,0
1532061690428,0,-1,-1,4,2,-3,1,0
1532061690433,-3,1,1,1,-2,1,-2,-1
1532061690438,0,-1,-1,-1,-2,-2,-2,-2
1532061690443,0,2,-2,1,3,5,1,-1
1532061690448,-1,1,0,1,-2,-2,-3,-3
1532061690453,-1,1,3,-5,-1,0,-2,-2
1532061690458,4,6,-1,3,-3,-3,0,3
1532061690463,-1,-28,-2,-6,-2,-4,-3,1
1532061690468,-3,1,-3,-4,-7,-4,-3,-3
1532061690473,0,2,2,2,-6,-12,-2,-2
1532061690478,-4,-9,-2,2,4,13,-1,-5
1532061690483,2,11,3,3,10,10,7,2
1532061690488,1,1,0,-1,4,3,2,2
1532061690493,-1,-2,-1,1,-1,0,-2,-1
1532061690498,-2,-5,1,-2,-6,-10,-4,-1
1532061690503,0,8,-1,-8,-8,-7,-2,-1
1532061690508,2,2,0,-2,0,3,1,1
1532061690513,-4,-13,-1,4,0,0,-1,-3
1532061690518,-4,-11,0,-5,-1,-6,-5,-3
1532061690523,-2,2,1,4,-5,4,0,-2
1532061690528,3,7,4,-7,2,2,1,1
1532061690533,3,9,1,2,0,0,2,2
1532061690538,-3,-7,-6,-1,0,1,-1,-1
1532061690543,2,-9,-9,-1,-3,-4,0,5
1532061690548,2,0,1,1,-1,-4,-2,-2
1532061690553,-1,4,-5,-1,-2,-1,2,0
1532061690558,-4,-2,-2,-5,0,2,1,-5
1532061690563,1,8,3,2,2,-1,1,7
1532061690568,-2,-3,-3,-3,-5,-3,-3,0
1532061690573,-1,1,-1,-5,2,2,1,-2
1532061690578,-2,-8,-5,4,2,4,4,-2
1532061690583,-1,6,1,-3,-1,1,0,-2
1532061690588,0,-4,0,4,0,-3,-2,0
1532061690593,0,8,4,1,0,-1,-3,1
1532061690598,5,13,16,18,16,2,-4,1
1532061690603,-7,-19,-9,-19,-10,-4,-2,-9
1532061690608,-3,-3,-2,-2,-5,-2,-2,0
1532061690613,0,-2,-1,4,6,3,2,1
1532061690618,-1,6,2,-1,4,0,2,1
1532061690623,0,9,-1,6,0,-3,-2,-2
1532061690628,7,33,2,-1,0,-2,0,-1
1532061690633,-4,-27,-1,-6,-5,-3,-5,-2
1532061690638,-6,-12,-12,-6,-9,-6,-5,-4
1532061690643,-3,-7,-4,-1,0,-1,0,-5
1532061690648,-6,-9,-2,-3,0,4,1,-2
1532061690653,4,21,1,4,1,3,2,2
1532061690658,1,-1,-3,-7,-5,-1,0,2
1532061690663,-1,1,1,0,0,-3,-5,-4
1532061690668,2,8,6,2,1,-2,-1,1
1532061690673,-2,-13,-7,-3,-4,-2,0,-2
1532061690678,0,-11,-4,-9,-3,-3,-3,0
1532061690683,-1,10,2,2,-3,-3,-2,-1
1532061690688,1,-8,-1,3,6,5,1,0
1532061690693,0,15,3,-1,-4,-4,-3,0
1532061690698,-1,-20,-5,-1,-1,-1,-1,0
1532061690703,0,10,2,2,-1,-3,-3,-2
1532061690708,-4,-11,-3,-1,-1,-3,-4,-4
1532061690713,-1,-3,-7,-7,-10,-2,1,0
1532061690718,2,18,2,-12,-21,-2,-3,0
1532061690723,1,1,-1,3,7,10,4,3
1532061690728,-2,-8,-2,3,1,-1,1,-1
1532061690733,-2,3,4,8,8,2,-4,-2
1532061690738,1,4,0,-5,-8,-6,-3,0
1532061690743,-5,-8,-4,-3,-2,-1,-3,-4
1532061690748,-3,-6,-3,-5,-9,-8,-2,-4
1532061690753,1,-1,-1,0,2,-2,-2,0
1532061690758,-1,-2,-2,2,9,6,4,-2
1532061690763,-1,-2,0,1,-1,1,-1,0
1532061690768,1,2,0,1,0,-3,-2,-1
1532061690773,-3,-4,-3,-7,-7,-2,-1,-3
1532061690778,-3,-9,-1,4,9,5,3,1
1532061690783,-4,14,5,0,3,3,3,3
1532061690788,1,-7,-4,4,-1,2,2,0
1532061690793,-4,-4,-2,-2,0,-4,-3,-2
1532061690798,12,6,-2,1,-3,-7,-2,-2
1532061690803,-13,-6,2,4,-3,-6,-1,-3
1532061690808,-5,7,0,-14,-5,4,0,-1
1532061690813,0,-3,0,8,6,1,0,0
1532061690818,-2,-1,1,-9,0,0,-1,-2
1532061690823,7,0,1,1,-2,-6,-10,1
1532061690828,4,0,-2,-1,-10,-14,5,2
1532061690833,-3,-3,-1,1,3,9,-4,-3
1532061690838,-4,2,1,4,9,6,13,0
1532061690843,17,10,-1,-2,0,2,-15,3
1532061690848,11,-2,-1,6,3,2,16,-7
1532061690853,4,6,-2,-11,-5,-7,-4,4
1532061690858,0,3,0,1,-4,-5,-3,0
1532061690863,-3,-6,0,-2,-1,1,-3,0
1532061690868,-3,-4,1,-1,-3,-4,-1,-5
1532061690873,7,5,2,3,-1,3,16,4
1532061690878,-8,2,3,0,-4,-9,-7,-1
1532061690883,2,-22,-9,-4,-1,-6,4,-1
1532061690888,-6,6,1,-1,11,15,-7,1
1532061690893,-10,-44,-8,-1,4,5,7,0
1532061690898,-1,-1,0,-1,0,-1,-3,0
1532061690903,-2,4,3,1,-5,-9,-2,-4
1532061690908,-2,4,-2,-2,-4,-4,-10,-1
1532061690913,-2,12,2,-2,-4,-7,-5,-4
1532061690918,3,0,-2,0,-4,8,-3,-1
1532061690923,0,0,-2,2,2,0,-7,-1
1532061690928,-5,-9,-6,2,7,11,19,-3
1532061690933,10,9,0,-6,0,-3,0,0
1532061690938,-13,-6,-5,-4,-6,-7,-6,-2
1532061690943,-2,2,2,-4,-6,-1,2,-8
1532061690948,-2,-1,-1,0,-4,-6,-6,1
1532061690953,-2,0,1,1,0,-1,-3,-1
1532061690958,6,10,1,1,6,5,2,0
1532061690963,-4,-9,-4,-3,3,7,4,-2
1532061690968,-3,-3,-1,-1,1,-2,-4,1
1532061690973,0,-6,-1,2,-2,-2,-5,-6
1532061690978,5,0,-2,-4,-5,-10,-2,4
1532061690983,2,6,1,-1,-2,2,3,4
1532061690988,3,-1,-2,-1,1,5,-4,-3
1532061690993,-5,14,2,-2,-3,-5,-3,1
1532061690998,3,-3,-1,-1,-3,0,-8,3
1532061691003,-6,-9,-4,1,0,-3,14,3
1532061691008,0,-3,-1,8,10,7,-22,6
1532061691013,-3,-4,-4,-12,-7,0,16,-17
1532061691018,0,2,-1,0,2,-4,-10,-5
1532061691023,2,3,3,5,-6,-7,-2,3
1532061691028,-4,-4,-1,-19,-5,-2,-4,-5
1532061691033,-1,1,1,9,4,5,2,4
1532061691038,-4,-4,-4,-10,-3,-2,5,-1
1532061691043,-2,1,0,1,-1,2,-4,-6
1532061691048,3,7,4,21,3,2,13,6
1532061691053,0,-3,0,-1,3,1,-7,0
1532061691058,-3,-12,-5,1,-4,-8,2,-4
1532061691063,-6,-6,-5,-4,0,-1,-5,-3
1532061691068,-4,-2,-1,4,0,-6,-1,-4
1532061691073,-7,3,-2,-25,-7,-5,-2,2
1532061691078,14,7,1,4,0,9,-3,-1
1532061691083,0,-2,-3,-3,3,0,3,0
1532061691088,0,-2,-1,2,0,-1,1,0
1532061691093,-3,1,0,3,1,5,0,1
1532061691098,-5,0,-4,-8,4,-1,1,-4
1532061691103,5,13,2,2,5,3,3,5
1532061691108,-7,-34,-6,11,-7,-8,0,-1
1532061691113,4,3,3,4,7,4,-3,2
1532061691118,-5,-2,-2,-3,-4,-3,-1,-6
1532061691123,4,10,6,-1,1,-4,2,5
1532061691128,2,20,-1,-16,-11,-7,-3,-1
1532061691133,-1,-16,-4,3,-2,1,-2,-2
1532061691138,-4,-26,-10,2,0,3,1,2
1532061691143,-4,3,0,-3,-3,-2,-1,-6
1532061691148,2,1,1,-4,0,1,-1,2
1532061691153,3,10,1,1,-5,-3,-5,-2
1532061691158,-4,8,2,4,2,0,-3,-1
1532061691163,-4,-10,-3,-1,-1,-2,2,-2
1532061691168,4,0,1,-5,1,1,1,7
1532061691173,-1,4,-1,4,3,2,1,-5
1532061691178,-3,0,3,0,0,-1,-1,-2
1532061691183,-4,-1,-2,-4,-4,-1,-2,-6
1532061691188,7,2,-2,-6,-8,-10,-7,0
1532061691193,0,-3,-1,4,6,4,1,3
1532061691198,-3,2,1,3,0,-2,3,1
1532061691203,1,-2,-2,-2,-4,-4,-2,-3
1532061691208,0,1,-1,-2,3,3,-1,0
1532061691213,-2,-7,-2,-2,-7,-8,-5,-1
1532061691218,-1,1,0,-5,-5,-5,-4,-2
1532061691223,-1,0,1,5,5,7,6,3
1532061691228,-3,10,2,-5,-3,2,1,-1
1532061691233,-5,-24,-5,4,0,-2,-1,-2
1532061691238,2,2,-1,-1,-1,-3,-2,-1
1532061691243,-2,-3,-2,-3,-6,-5,-4,-3
1532061691248,-3,2,1,-2,3,3,4,1
1532061691253,3,11,2,-2,1,-1,-1,1
1532061691258,-2,0,0,1,-1,-1,1,-1
1532061691263,0,5,1,-1,-3,-2,-4,-1
1532061691268,1,-5,-1,-2,-1,-2,1,3
1532061691273,-2,6,-4,-2,-3,-2,-1,0
1532061691278,7,33,7,1,2,4,3,4
1532061691283,-4,-28,-5,3,0,7,2,-2
1532061691288,-7,-9,-3,-3,5,-1,-4,-7
1532061691293,0,1,5,-2,-6,-11,-5,-3
1532061691298,-2,-4,-3,4,-4,0,-2,-1
1532061691303,5,23,3,-3,1,2,2,1
1532061691308,-6,-2,-2,-1,2,0,-2,-10
1532061691313,1,8,0,1,1,-3,-2,1
1532061691318,-1,-14,-5,0,-1,-4,-1,1
1532061691323,-6,-14,2,-1,-12,-11,-8,-4
1532061691328,-5,-11,-3,-3,-3,-1,-4,-5
1532061691333,0,5,0,2,11,5,3,3
1532061691338,1,4,3,9,19,7,2,0
1532061691343,-2,-4,-6,-16,-22,-1,-1,-3
1532061691348,0,-1,-2,9,-4,-4,2,2
1532061691353,11,64,14,-4,-7,2,2,4
1532061691358,-7,-67,-14,2,-1,1,2,2
1532061691363,-7,-11,-3,-3,8,-3,-4,-4
1532061691368,-1,4,1,-4,-2,-4,-5,-5
1532061691373,0,-11,-9,-2,-7,3,0,4
1532061691378,3,21,10,3,13,8,3,0
1532061691383,2,5,0,-1,6,1,1,1
1532061691388,-1,-3,-3,-6,-8,-8,-5,-3
1532061691393,-6,-3,-1,0,-4,-6,-3,-7
1532061691398,-2,3,3,-6,-8,-3,-2,-3
1532061691403,2,1,-6,-2,3,-2,0,3
1532061691408,2,8,11,3,2,1,0,-2
1532061691413,-1,-28,-7,1,3,6,4,7
1532061691418,-5,-8,-3,-4,-8,-6,-5,-4
1532061691423,1,5,-1,-2,-4,-8,-5,-1
1532061691428,1,1,-5,-1,0,4,1,1
1532061691433,0,-4,0,0,9,3,2,-2
1532061691438,2,8,-1,0,-6,-2,0,2
1532061691443,2,9,4,3,9,5,5,5
1532061691448,1,-3,-3,-4,-8,-6,-2,5
1532061691453,-5,-16,-3,-1,-8,-7,-7,-6
1532061691458,1,11,1,-3,-4,1,0,-1
1532061691463,-3,-14,0,-2,1,3,1,-5
1532061691468,1,-1,0,3,12,8,5,0
1532061691473,-1,1,3,-1,-4,-4,-1,-1
1532061691478,-3,1,-3,-7,-9,-8,-3,-2
1532061691483,1,6,2,3,1,5,0,2
1532061691488,0,5,0,-1,0,-2,0,0
1532061691493,-2,-15,-5,5,7,1,-3,-2
1532061691498,-4,-3,-5,-7,-7,-4,-2,-3
1532061691503,1,0,3,2,3,5,-1,0
1532061691508,0,2,6,-2,-8,-6,-3,-1
1532061691513,-1,-3,-1,3,6,1,1,-1
1532061691518,0,-4,3,8,8,-1,2,-3
1532061691523,-2,-6,-7,-2,12,5,-1,-1
1532061691528,-2,-1,0,-8,-18,-5,-3,0
1532061691533,-1,3,2,-2,-2,1,-1,-1
1532061691538,0,1,-2,-5,-2,2,4,-1
1532061691543,2,1,0,3,3,-4,-1,5
1532061691548,-2,-5,-6,-1,3,-2,-3,-3
1532061691553,0,-4,-4,-3,-11,-9,-5,-3
1532061691558,-1,0,-2,-2,1,-1,0,-1
1532061691563,-2,3,0,0,-4,-4,0,-2
1532061691568,0,-1,-1,2,8,7,3,0
1532061691573,-3,-5,-3,-2,-7,-5,-6,-1
1532061691578,-2,-3,-2,0,0,-5,0,1
1532061691583,2,7,5,6,3,7,-2,-2
1532061691588,1,3,-5,3,13,8,6,4
1532061691593,-6,-22,-7,-24,-7,-3,-7,-8
1532061691598,9,10,4,3,-3,-1,1,0
1532061691603,-17,-12,-5,-3,-9,-13,-6,-4
1532061691608,-2,-6,3,5,4,4,1,1
1532061691613,7,11,1,2,0,1,5,2
1532061691618,1,17,2,-1,-4,-4,-9,-5
1532061691623,3,-18,-1,0,5,3,3,0
1532061691628,-10,-19,-10,-6,-1,-1,-7,-7
1532061691633,-4,0,1,0,-2,-2,5,3
1532061691638,-3,0,1,0,-3,-2,-5,-5
1532061691643,3,15,5,1,2,2,5,1
1532061691648,1,3,1,-7,-6,-4,-6,1
1532061691653,9,0,0,4,1,2,2,2
1532061691658,-16,-6,-6,-4,-2,1,3,0
1532061691663,-1,4,-9,-8,-8,-6,-6,-5
1532061691668,3,1,3,2,-9,-14,-7,-2
1532061691673,-2,0,1,1,0,7,-7,0
1532061691678,7,1,-1,-3,9,8,13,2
1532061691683,-10,-5,-3,0,2,2,10,-1
1532061691688,-3,-1,-1,-2,-2,-3,1,0
1532061691693,-2,-6,0,3,-4,-8,8,0
1532061691698,-5,4,4,0,-1,-4,-25,-13
1532061691703,1,-3,0,-2,-8,-7,-7,0
1532061691708,26,6,0,1,1,4,15,6
1532061691713,-41,-8,-3,-1,4,2,-12,-7
1532061691718,12,-7,-3,3,4,3,4,5
1532061691723,-1,0,-2,-4,-4,-5,-4,-3
1532061691728,-3,6,-2,-3,-2,-2,-7,-2
1532061691733,22,6,0,2,1,-2,4,3
1532061691738,-27,-16,-6,-3,-3,-3,-1,-3
1532061691743,2,5,1,1,-1,-4,0,-3
1532061691748,-5,-4,1,3,2,6,-1,0
1532061691753,10,6,1,2,1,1,1,-4
1532061691758,9,4,4,3,0,-1,-1,7
1532061691763,0,-3,-2,0,5,4,-1,0
1532061691768,-1,0,5,4,2,2,4,1
1532061691773,-2,7,1,-2,4,2,1,-5
1532061691778,1,-12,-6,-6,-6,-4,-3,2
1532061691783,-1,-1,-1,-4,-4,-4,-7,-1
1532061691788,0,0,-2,0,-1,0,2,0
1532061691793,-2,-3,-1,2,-4,-1,-1,1
1532061691798,7,5,2,-2,-4,-2,-1,0
1532061691803,7,4,1,2,-2,1,-1,-1
1532061691808,-6,-3,-3,-1,0,1,-2,-2
1532061691813,-1,1,1,-1,-2,-1,-4,0
1532061691818,15,0,-1,2,1,2,3,2
1532061691823,-3,-17,-4,-2,-1,-3,3,2
1532061691828,-11,2,-1,-2,-2,-2,-4,-9
1532061691833,-1,0,-3,-2,0,0,2,1
1532061691838,-6,1,2,-1,-1,0,1,-1
1532061691843,11,3,1,1,-1,-1,0,3
1532061691848,-1,0,2,1,0,-3,-2,0
1532061691853,3,-1,1,1,3,2,1,0
1532061691858,-3,-1,-5,-6,-3,0,2,-5
1532061691863,-2,0,-1,-6,-3,-2,-4,-2
1532061691868,0,-2,-4,-1,-3,0,0,0
1532061691873,-2,-1,-1,2,4,2,2,-2
1532061691878,-4,-1,-1,2,-2,-2,-1,2
1532061691883,-3,2,2,10,4,2,0,-1
1532061691888,-4,-2,-7,-12,-4,0,1,0
1532061691893,2,-4,-4,-3,-5,-4,-2,1
1532061691898,-2,-3,-2,-3,-7,-6,-2,-3
1532061691903,-1,1,0,-1,-3,-1,-1,-2
1532061691908,4,-3,2,7,7,4,1,2
1532061691913,-4,-1,-2,0,0,1,-1,-3
1532061691918,-3,-1,-2,-3,2,0,-1,-3
1532061691923,-2,2,0,1,-4,-4,-2,-2
1532061691928,-2,-1,0,-1,-4,-7,-4,-1
1532061691933,-2,-3,-2,-3,0,1,1,0
1532061691938,-2,-1,0,3,2,1,0,1
1532061691943,2,1,0,-2,3,2,2,-1
1532061691948,-1,-2,0,-2,-2,0,1,0
1532061691953,-3,-1,-1,-5,-5,-5,-4,-1
1532061691958,1,-2,-1,-2,-3,-2,-2,-1
1532061691963,-1,-1,-2,-1,0,2,-1,1
1532061691968,2,0,5,16,12,7,2,0
1532061691973,1,-1,-2,5,-2,-1,-2,-2
1532061691978,-1,-4,-6,-11,-6,-4,-1,-1
1532061691983,0,2,4,10,-1,-3,1,0
1532061691988,-2,-2,-7,-14,-5,-6,-3,-1
1532061691993,1,0,5,13,3,2,1,1
1532061691998,-3,2,2,-3,0,-2,0,-1
1532061692003,-1,0,-3,1,-3,-4,-3,-5
1532061692008,-1,-3,-2,0,-2,8,2,2
1532061692013,-1,-1,-1,-1,3,-1,1,0
1532061692018,0,-1,-3,6,6,3,2,1
1532061692023,-2,1,4,15,-3,-8,-3,-2
1532061692028,-3,-5,-8,-46,-14,-9,-3,-3
1532061692033,0,1,-1,2,3,6,1,0
1532061692038,-3,-5,-12,-23,-7,-4,-3,-4
1532061692043,1,1,2,8,0,-1,0,0
1532061692048,2,-1,-7,-7,-2,-4,-3,0
1532061692053,-4,0,1,7,-4,-4,-1,-1
1532061692058,7,5,8,15,6,3,-4,3
1532061692063,-7,-2,-6,-16,-3,0,9,2
1532061692068,1,1,4,-1,-5,-4,-4,-3
1532061692073,1,-4,-9,-10,-2,-2,-2,-2
1532061692078,8,7,2,21,3,1,-1,-4
1532061692083,32,-6,2,-23,-5,-1,-5,1
1532061692088,-39,-1,7,21,6,3,-3,-4
1532061692093,4,1,1,-9,-2,-2,6,4
1532061692098,-3,-2,-2,5,0,2,1,1
1532061692103,1,0,-7,5,7,3,0,-1
1532061692108,8,-3,-1,-42,-9,-1,-3,0
1532061692113,-3,1,6,3,0,-1,-4,-2
1532061692118,2,8,-27,0,1,-2,5,-1
1532061692123,-12,-10,50,0,-3,0,-8,-2
1532061692128,5,2,7,16,3,1,2,-3
1532061692133,-10,-2,-7,-8,0,-1,2,-3
1532061692138,2,-1,6,-31,-7,-2,-2,-2
1532061692143,-7,-1,-19,37,6,0,-2,-1
1532061692148,4,2,1,12,2,-2,1,3
1532061692153,6,7,14,-2,4,5,-2,-1
1532061692158,-6,-6,8,16,0,-3,-5,-6
1532061692163,-11,-6,-10,22,-12,-5,-2,2
1532061692168,3,-1,1,3,9,0,-4,-2
1532061692173,0,2,-6,-54,-4,-1,-1,-4
1532061692178,-3,-7,4,37,-1,-6,-12,3
1532061692183,-9,-2,-13,-69,-8,4,8,1
1532061692188,4,3,10,31,27,-4,-1,-5
1532061692193,1,-3,-7,-21,-18,-4,-5,0
1532061692198,-8,-2,15,78,-1,8,3,6
1532061692203,8,11,-4,-36,-7,-13,1,3
1532061692208,0,-9,-18,7,-11,10,-1,8
1532061692213,2,2,-1,15,25,-26,-26,-37
1532061692218,-2,-2,-9,-35,18,30,44,10
1532061692223,7,17,17,32,9,2,11,1
1532061692228,-3,-10,-60,-84,-38,-10,1,-1
1532061692233,-17,-29,-15,60,-48,-14,-24,-1
1532061692238,-2,-2,3,33,10,-6,-10,4
1532061692243,-3,0,5,24,14,1,-22,-25
1532061692248,2,1,8,-23,-2,-7,30,-7
1532061692253,7,3,3,-15,6,7,-14,-6
1532061692258,-9,-7,0,-9,-2,-2,67,34
1532061692263,2,8,-9,-27,12,13,-7,9
1532061692268,-3,-2,13,2,3,-9,-27,-15
1532061692273,-2,-2,-1,19,-25,-3,-1,1
1532061692278,4,2,10,-8,22,0,-11,3
1532061692283,-2,-5,-11,-10,19,-5,-11,-3
1532061692288,-2,0,3,12,-42,7,10,5
1532061692293,-2,0,11,17,14,-7,6,12
1532061692298,1,1,-18,-57,-19,5,-19,-13
1532061692303,0,3,18,63,8,3,14,7
1532061692308,-3,-13,-24,-31,-1,-11,-20,-9
1532061692313,3,8,12,10,7,10,22,15
1532061692318,1,-1,-26,-49,-6,-9,-15,-11
1532061692323,-3,-2,5,24,-5,-3,2,-12
1532061692328,-4,-1,5,12,4,3,2,5
1532061692333,5,6,1,-2,6,8,4,4
1532061692338,0,-1,-2,12,8,-14,-11,-11
1532061692343,-1,-8,-13,-17,-11,20,-3,8
1532061692348,6,9,16,25,-5,-3,-1,8
1532061692353,1,0,-9,-1,3,-1,8,6
1532061692358,-2,2,4,3,11,-10,-23,-23
1532061692363,5,-1,-4,-5,12,-6,-3,2
1532061692368,-4,-4,0,11,-5,-6,-5,-7
1532061692373,-8,-8,-4,6,1,-12,-7,-10
1532061692378,-1,-2,4,16,-1,-8,0,2
1532061692383,-9,-4,-2,-8,-11,3,-1,-3
1532061692388,4,-1,2,-2,0,8,-3,4
1532061692393,17,7,-3,3,1,2,13,13
1532061692398,-3,-4,-3,-1,5,1,-4,-7
1532061692403,1,-4,-6,9,3,-6,-1,-1
1532061692408,-2,1,1,-15,-16,-7,-7,-2
1532061692413,-6,-5,-2,12,19,9,-3,-1
1532061692418,0,1,-3,7,-4,2,0,-1
1532061692423,4,3,0,-1,4,7,6,5
1532061692428,-2,2,0,5,-5,-6,3,-1
1532061692433,-2,-1,-1,1,3,-4,-2,-5
1532061692438,2,-1,-1,-33,0,-2,4,-2
1532061692443,-3,0,7,33,-2,-1,0,-3
1532061692448,-3,-3,-2,-8,-4,-6,-3,-6
1532061692453,-4,0,-1,1,-4,-3,0,-4
1532061692458,2,9,2,10,3,6,-3,1
1532061692463,1,-8,0,-20,5,2,5,5
1532061692468,-1,6,2,0,2,4,11,5
1532061692473,-4,-7,0,-9,-11,-7,-23,-18
1532061692478,-4,-8,-4,-1,3,-5,54,16
1532061692483,4,9,-2,-22,-7,-3,-22,-3
1532061692488,10,11,7,18,4,2,22,-3
1532061692493,2,2,-2,3,-1,-1,18,16
1532061692498,-16,-5,5,1,-7,-6,-28,-35
1532061692503,7,43,9,5,7,2,7,-3
1532061692508,-4,-17,-2,10,-1,-2,-17,-3
1532061692513,-18,-56,-21,-25,-10,-2,0,-9
1532061692518,13,50,11,-10,-8,-7,-8,7
1532061692523,-9,-58,-14,-3,16,13,8,0
1532061692528,-12,-32,-20,19,3,-2,-5,-5
1532061692533,5,28,14,15,-3,-6,-3,10
1532061692538,-3,-11,-9,-2,-3,-4,-6,2
1532061692543,11,56,16,-7,-8,0,-5,-2
1532061692548,7,8,-3,-24,8,2,-3,4
1532061692553,-2,-15,-4,15,4,1,-3,-5
1532061692558,3,7,8,20,1,-1,-7,0
1532061692563,-1,-17,0,-11,-16,0,4,1
1532061692568,-1,7,-2,-3,-5,-1,-6,-2
1532061692573,11,106,23,0,-4,-3,0,-2
1532061692578,2,-85,-12,-18,20,5,4,15
1532061692583,-22,-64,-25,39,-12,-19,-6,-9
1532061692588,-8,-7,3,-53,-5,9,-1,-1
1532061692593,2,25,2,-2,-1,2,-5,-6
1532061692598,7,49,15,18,-9,-3,-3,-1
1532061692603,3,1,9,12,6,-3,1,1
1532061692608,0,4,3,78,9,-1,-2,-1
1532061692613,4,2,-1,-20,12,-16,-3,-2
1532061692618,-6,-27,-39,-69,-63,15,0,9
1532061692623,3,-5,7,-19,5,0,0,2
1532061692628,6,31,13,-3,-2,-8,6,7
1532061692633,-10,-36,10,6,-7,-6,-7,-5
1532061692638,-6,-12,-1,29,33,3,-5,-13
1532061692643,0,15,-7,-12,-6,-8,-3,-1
1532061692648,7,26,4,-8,-14,-2,-2,-5
1532061692653,-5,-24,-15,5,-6,-7,-2,-2
1532061692658,-3,10,3,13,16,-4,-5,-5
1532061692663,4,28,48,3,-9,5,-10,6
1532061692668,0,-40,8,34,4,5,10,6
1532061692673,-8,-25,-29,-54,-17,5,-8,-1
1532061692678,-9,-6,8,19,2,-8,-8,-7
1532061692683,6,18,-7,-18,11,2,16,0
1532061692688,0,-4,-8,-7,-7,2,-3,3
1532061692693,2,1,8,18,17,10,6,-1
1532061692698,1,18,23,23,-9,-5,-8,1
1532061692703,-2,-5,-15,-29,-11,-5,-4,-1
1532061692708,-5,6,3,-25,-12,-6,-4,-9
1532061692713,3,-17,-26,10,0,0,5,4
1532061692718,1,24,12,5,63,11,0,-3
1532061692723,-10,-40,-20,-1,-28,-3,-2,-3
1532061692728,-4,1,15,32,11,-6,-7,-9
1532061692733,18,57,4,9,-3,1,6,10
1532061692738,4,11,-29,18,9,-9,-3,0
1532061692743,-18,-84,-27,-24,-32,-4,-11,5
1532061692748,-8,4,11,-5,0,-9,1,-7
1532061692753,-3,-16,4,18,4,17,22,2
1532061692758,9,29,14,-37,-24,-9,-5,2
1532061692763,4,43,-11,5,25,4,7,-18
1532061692768,8,-14,-21,-16,-16,0,0,28
1532061692773,0,5,28,9,16,1,-7,-1
1532061692778,4,-4,-14,6,-14,-3,5,4
1532061692783,-4,4,-4,-16,3,-2,-5,-5
1532061692788,-5,-7,0,1,11,6,-1,-8
1532061692793,-1,6,18,12,-2,-3,-4,2
1532061692798,-7,-16,-6,-9,-14,-2,-3,-2
1532061692803,1,-3,12,21,17,2,3,4
1532061692808,-5,1,3,-6,-3,-1,-2,-7
1532061692813,-3,-7,-19,-29,-7,-5,-2,-6
1532061692818,-6,-20,7,25,28,4,-22,-9
1532061692823,9,47,9,-7,-28,5,20,3
1532061692828,5,20,15,-22,2,-1,-4,3
1532061692833,-24,-101,-27,-8,-14,0,3,-12
1532061692838,-9,-10,-1,-8,-12,-5,-5,-8
1532061692843,2,11,7,22,18,-3,-8,5
1532061692848,3,17,0,-8,-6,-2,-3,-1
1532061692853,5,24,3,7,9,-1,-4,2
1532061692858,1,0,8,-21,-13,-4,6,0
1532061692863,-1,-2,12,18,8,0,-1,2
1532061692868,-15,-10,-21,-9,-3,-4,-8,-24
1532061692873,4,10,6,0,-21,-5,-5,4
1532061692878,2,-4,-15,-16,45,9,14,6
1532061692883,-1,6,3,22,-6,2,-2,1
1532061692888,-6,-19,-50,-10,-7,-6,-6,-5
1532061692893,0,10,1,-35,-13,-7,-13,-1
1532061692898,4,18,37,27,-16,5,24,2
1532061692903,2,7,-20,-15,15,5,0,-1
1532061692908,-2,-30,-29,-26,7,-3,-3,0
1532061692913,-14,-28,0,3,9,-3,-4,-11
1532061692918,-5,-9,-6,13,-56,-14,-11,-7
1532061692923,-1,1,-8,-8,11,-3,-1,-5
1532061692928,15,36,49,11,-3,10,10,20
1532061692933,5,16,-30,7,24,1,-2,-4
1532061692938,-2,-11,10,-2,-12,-5,2,6
1532061692943,-5,10,7,-13,0,-3,-6,-4
1532061692948,-12,-69,-41,0,-1,-5,-8,-12
1532061692953,-1,6,35,38,9,1,-9,3
1532061692958,-4,-16,-11,-19,-6,8,12,-8
1532061692963,5,40,2,18,-11,-2,5,-4
1532061692968,8,11,-15,-7,18,5,5,6
1532061692973,-6,-16,-38,-17,7,-5,-4,-2
1532061692978,3,9,-4,-39,-32,-8,-5,0
1532061692983,-3,-8,10,71,31,7,-4,-5
1532061692988,7,21,19,-11,-10,0,11,16
1532061692993,3,-11,7,5,-1,4,1,3
1532061692998,4,5,8,-13,5,0,1,1
1532061693003,0,6,15,-18,8,-13,-15,-2
1532061693008,-17,-38,10,21,-9,23,5,-14
1532061693013,5,17,-5,-6,-15,1,-3,18
1532061693018,10,-24,-22,-2,20,16,11,17
1532061693023,4,6,13,1,6,-9,-2,0
1532061693028,-5,-28,-8,-30,1,-7,-1,-1
1532061693033,-8,2,4,17,-12,-2,0,-10
1532061693038,-9,3,13,73,19,-7,-10,-6
1532061693043,0,0,-5,-3,-5,-3,-1,-2
1532061693048,4,20,17,-4,-9,-4,0,-1
1532061693053,0,-5,-7,-29,-5,3,5,-6
1532061693058,2,10,9,-10,7,-3,-3,-2
1532061693063,-4,-20,-27,-29,-25,-4,1,-5
1532061693068,1,31,45,43,17,14,-2,-2
1532061693073,3,13,27,22,16,-1,0,10
1532061693078,-7,-15,-20,0,-2,1,-3,-3
1532061693083,3,-17,-11,-27,-6,5,5,8
1532061693088,-1,8,-10,-28,-5,-10,-8,-4
1532061693093,2,7,2,-20,-7,-8,-5,-7
1532061693098,-3,9,-31,21,0,4,-3,-19
1532061693103,2,9,-6,2,-2,3,21,50
1532061693108,-8,-9,-8,4,-4,-15,-14,-41
1532061693113,-12,-37,-28,-37,-17,-12,-5,-24
1532061693118,2,-7,-1,-9,9,20,7,0
1532061693123,-13,-15,6,23,0,-1,-9,-15
1532061693128,6,18,-8,-9,9,2,6,19
1532061693133,-2,15,-9,-17,9,-12,-5,-8
1532061693138,-1,1,38,-8,-22,-6,-2,2
1532061693143,8,20,-18,0,0,1,-2,0
1532061693148,6,24,-2,31,-7,-6,0,0
1532061693153,1,-23,38,26,24,10,2,-1
1532061693158,9,39,5,33,24,9,5,23
1532061693163,-4,-56,11,-14,-5,0,-7,0
1532061693168,-3,29,29,-10,-30,-15,-12,-14
1532061693173,0,-2,-14,-6,22,18,11,3
1532061693178,-21,-44,-12,33,1,0,-9,-27
1532061693183,9,19,-4,-15,4,4,10,9
1532061693188,15,6,-11,-6,-9,2,9,26
1532061693193,8,17,13,16,8,9,10,11
1532061693198,-2,21,19,-3,5,-8,-24,-8
1532061693203,-3,5,1,-7,-5,2,-4,-12
1532061693208,-3,-26,-20,-11,8,4,4,10
1532061693213,9,24,3,5,-15,-8,-12,74
1532061693218,-17,-21,-18,-8,6,-1,-5,-69
1532061693223,11,7,5,-1,2,6,6,13
1532061693228,-18,-39,-9,9,-5,-5,-9,-25
1532061693233,-5,13,9,-7,-5,-3,0,-18
1532061693238,9,36,15,12,1,-15,-8,25
1532061693243,0,-9,-9,-34,-21,1,-6,-3
1532061693248,-18,-90,-25,49,7,2,-6,-19
1532061693253,2,15,4,-12,-11,0,4,-6
1532061693258,13,-1,6,-17,-1,3,11,35
1532061693263,8,38,21,34,11,-1,-7,-11
1532061693268,7,40,-7,-14,6,2,-5,16
1532061693273,2,37,-9,34,14,-13,7,-17
1532061693278,3,-37,-20,-35,-1,19,11,0
1532061693283,-13,3,29,72,0,-4,-2,-7
1532061693288,4,12,63,13,11,7,1,18
1532061693293,-5,-49,2,-11,-3,9,2,-6
1532061693298,7,46,-3,-28,2,-15,5,6
1532061693303,2,-6,0,-27,-7,-4,6,1
1532061693308,-13,-2,17,-12,-11,-5,-1,-4
1532061693313,10,27,-48,-27,-5,-10,-5,-19
1532061693318,-27,-31,-18,4,-18,-9,-7,10
1532061693323,-7,7,2,2,1,2,-5,-10
1532061693328,-4,-34,-31,-41,-2,-3,0,-3
1532061693333,-17,-88,-18,46,-2,-2,-6,-8
1532061693338,-1,-4,-26,-62,-17,-1,13,-6
1532061693343,-10,-4,-2,23,5,-3,-5,-8
1532061693348,15,78,35,-13,5,-1,3,7
1532061693353,-1,3,-2,-14,-13,4,2,2
1532061693358,2,-29,-5,15,-2,-5,-5,-1
1532061693363,6,34,26,-35,5,1,5,2
1532061693368,-1,-14,-29,18,10,6,7,1
1532061693373,-1,13,-7,5,-3,2,-8,-12
1532061693378,16,39,17,11,-2,2,25,7
1532061693383,36,-91,-36,-27,-9,-8,-23,9
1532061693388,-24,-8,-7,-10,-9,-10,-12,9
1532061693393,-20,-11,16,-11,-6,3,1,-15
1532061693398,2,19,1,15,6,-4,-9,-7
1532061693403,-1,13,-23,-17,-3,1,9,-7
1532061693408,22,11,8,19,8,7,11,15
1532061693413,4,-19,9,19,2,-3,-3,2
1532061693418,-7,-16,7,-6,0,0,5,2
1532061693423,-17,-24,-36,-12,-4,-5,-11,-2
1532061693428,3,40,-35,3,2,0,1,-2
1532061693433,-2,22,27,-12,14,15,13,11
1532061693438,-5,-47,-9,-8,-9,-7,-14,-2
1532061693443,-10,-3,-2,-25,-9,-1,1,-8
1532061693448,1,24,9,40,50,-8,-5,-14
1532061693453,16,16,6,-3,-20,18,8,11
1532061693458,-3,-41,-21,27,15,4,-8,2
1532061693463,4,34,6,1,5,7,8,8
1532061693468,0,9,-9,-29,-23,-6,1,-3
1532061693473,-1,-13,-8,14,26,-5,1,2
1532061693478,5,35,21,-3,-17,1,-2,4
1532061693483,-16,-24,-25,-13,-22,-7,6,-2
1532061693488,4,-1,-36,-4,-4,1,4,-8
1532061693493,6,33,58,37,29,-9,10,3
1532061693498,0,3,-9,-15,-22,2,-11,0
1532061693503,-2,5,22,46,-3,5,-1,-4
1532061693508,6,-3,15,2,-20,-4,-7,1
1532061693513,0,13,-2,10,1,8,10,0
1532061693518,-2,2,-28,-48,24,20,28,34
1532061693523,-10,-12,15,33,-16,-8,-8,-16
1532061693528,-14,-47,-31,-21,-9,-1,1,7
1532061693533,3,13,-11,-33,-19,-16,-22,-13
1532061693538,-9,-32,-3,-15,-15,-14,-13,-29
1532061693543,14,15,18,35,41,11,13,32
1532061693548,-7,-35,-1,-26,-17,-6,-7,-3
1532061693553,1,21,-10,26,26,3,3,6
1532061693558,1,27,16,-14,-20,2,-6,-4
1532061693563,-16,-30,2,-9,-2,-8,-2,-11
1532061693568,1,17,18,8,-4,5,-12,-13
1532061693573,-12,-44,-20,-18,9,-7,-9,-4
1532061693578,0,22,18,19,2,14,4,0
1532061693583,-3,9,4,-50,-41,-21,-13,-1
1532061693588,12,57,93,82,55,22,-2,12
1532061693593,-16,-46,-76,-70,-35,11,20,-2
1532061693598,2,-6,6,20,53,-14,2,4
1532061693603,2,6,4,12,-32,34,12,1
1532061693608,2,-6,-17,-33,-34,-9,8,-9
1532061693613,1,13,13,-5,-18,-21,-17,14
1532061693618,0,-10,-19,30,-11,-12,-10,-4
1532061693623,9,0,-9,-14,65,5,14,8
1532061693628,2,10,10,4,-40,-6,1,-1
1532061693633,5,13,-9,-2,26,20,3,-3
1532061693638,3,10,-5,-66,-49,-4,-2,7
1532061693643,0,12,22,31,2,-9,-14,5
1532061693648,-8,-26,-25,-6,32,0,-2,-5
1532061693653,0,-3,7,5,-29,-4,-1,-1
1532061693658,0,11,11,11,25,-3,-8,5
1532061693663,-3,24,6,-16,11,-10,-8,-11
1532061693668,-3,-13,-2,3,4,6,0,7
1532061693673,-6,-4,11,43,25,1,-5,-5
1532061693678,-10,-45,-80,-15,-16,-8,13,-22
1532061693683,-5,-10,-6,-15,-27,2,3,-6
1532061693688,5,8,30,7,7,-8,0,3
1532061693693,4,21,54,5,-4,1,-5,0
1532061693698,0,12,68,34,4,4,-7,-4
1532061693703,-8,-11,-6,-2,18,0,3,-8
1532061693708,10,-5,-6,12,26,14,16,8
1532061693713,-3,-2,-16,0,-8,-7,-6,0
1532061693718,2,4,-2,-18,-18,-6,2,6
1532061693723,-3,-4,-29,3,12,-14,-8,-4
1532061693728,-16,-20,-20,-27,1,-9,-21,-19
1532061693733,0,0,-11,-5,-23,0,-3,2
1532061693738,0,17,36,13,-31,-6,-8,1
1532061693743,0,-8,18,22,3,4,-6,-1
1532061693748,-2,-8,-8,10,0,-4,4,-2
1532061693753,5,4,25,39,13,-6,-3,-4
1532061693758,-2,13,37,79,17,4,0,-4
1532061693763,1,-26,72,47,8,3,6,8
1532061693768,12,30,82,52,-8,0,4,7
1532061693773,22,28,-32,30,5,3,6,3
1532061693778,-38,-36,-101,-19,12,2,-2,1
1532061693783,-20,6,-107,-35,-2,2,-2,-13
1532061693788,-14,-37,-80,-58,-5,-2,1,-2
1532061693793,-7,17,-20,-73,-23,-8,-1,0
1532061693798,77,5,-23,-59,10,-6,-3,7
1532061693803,-2,14,-24,-45,-3,-4,0,-1
1532061693808,7,6,-6,-46,-24,2,-9,3
1532061693813,-36,-8,26,-14,29,8,29,24
1532061693818,17,16,-3,-49,-5,-11,6,-19
1532061693823,-20,-46,14,7,5,-9,0,-1
1532061693828,11,27,-11,-2,-4,4,1,-6
1532061693833,42,-14,11,27,9,21,14,47
1532061693838,-37,23,11,-27,8,1,-10,-47
1532061693843,19,-12,-3,10,-17,0,7,2
1532061693848,0,45,22,-1,-11,-16,-19,-14
1532061693853,-58,-128,-20,15,-17,-26,-25,-29
1532061693858,17,29,49,48,10,0,9,29
1532061693863,74,40,-10,-9,7,23,15,16
1532061693868,-63,3,-9,1,16,11,-1,-11
1532061693873,26,94,27,-5,5,-5,4,-9
1532061693878,-17,-62,-10,-38,-18,-21,-27,-8
1532061693883,-16,-28,-4,-7,-8,-16,-7,1
1532061693888,3,-18,34,17,25,31,25,0
1532061693893,42,64,-27,-23,10,25,20,17
1532061693898,-38,-63,22,-46,-17,-10,-16,-9
1532061693903,5,46,74,39,4,-7,-17,4
1532061693908,22,-10,-44,-13,-1,-20,1,17
1532061693913,-17,-22,-18,12,-14,-13,-21,-12
1532061693918,-9,9,-48,61,15,6,-2,-13
1532061693923,-5,25,-48,-88,-22,-4,0,-8
1532061693928,19,34,30,25,2,2,10,33
1532061693933,-30,-44,-25,4,1,1,-8,-62
1532061693938,20,7,-40,25,9,6,-4,29
1532061693943,-15,-6,14,9,5,-5,-9,3
1532061693948,17,30,22,23,0,8,15,18
1532061693953,6,19,11,-8,-12,-9,-13,10
1532061693958,9,27,81,27,9,12,14,9
1532061693963,-7,-4,90,32,4,5,-4,-10
1532061693968,-12,7,10,-71,-38,-16,-17,-8
1532061693973,-15,-53,20,13,29,9,14,-23
1532061693978,2,-25,69,30,10,9,13,21
1532061693983,-7,-27,-21,18,-9,-18,-29,-13
1532061693988,-14,-75,-5,-14,-10,-4,4,-8
1532061693993,2,31,7,-4,-11,-5,-4,9
1532061693998,-4,23,-20,10,-9,-4,-11,-1
1532061694003,10,77,-8,0,26,25,17,-12
1532061694008,-5,-12,-20,11,-2,-7,-12,-15
1532061694013,-11,-59,-34,-21,-18,-13,-7,-6
1532061694018,7,24,-60,0,4,3,13,7
1532061694023,-5,-27,-43,2,-5,1,7,11
1532061694028,-5,17,-113,-22,-19,-17,-36,-33
1532061694033,24,107,-11,1,3,4,22,2
1532061694038,-3,-96,-38,11,20,14,11,14
1532061694043,-38,-55,-41,-8,7,9,-5,-42
1532061694048,6,16,19,1,1,-8,-1,-2
1532061694053,-5,-14,15,-7,-16,-10,-5,16
1532061694058,12,78,57,0,8,8,12,6
1532061694063,-5,-34,40,-17,2,-2,0,-7
1532061694068,-3,-34,59,32,26,22,39,-4
1532061694073,-4,-22,32,1,-30,-29,-45,1
1532061694078,-9,20,25,4,-12,-14,-8,-9
1532061694083,42,2,-2,3,5,7,21,75
1532061694088,-33,11,12,13,-11,-9,-26,-41
1532061694093,14,12,19,-15,-19,-20,7,3
1532061694098,8,48,5,8,62,1,22,-25
1532061694103,-15,-25,-28,-16,-10,29,60,-3
1532061694108,34,-25,-17,-37,-71,-7,-6,32
1532061694113,-19,21,31,14,0,2,-5,-49
1532061694118,-53,-20,-41,-19,-29,-8,-14,3
1532061694123,-15,66,65,29,27,-5,-19,-23
1532061694128,12,-29,5,27,46,24,28,22
1532061694133,-14,-85,-4,-23,-21,-1,-5,-26
1532061694138,36,56,18,19,9,4,-1,24
1532061694143,-1,-8,-32,-15,9,8,-35,-1
1532061694148,3,-2,-8,9,24,18,15,59
1532061694153,-8,16,-1,13,10,-3,-23,-65
1532061694158,-12,-35,-10,-20,-18,-9,-10,-38
1532061694163,-11,28,6,1,-20,-10,42,14
1532061694168,14,7,3,-7,-14,-2,31,-7
1532061694173,-26,9,-77,-31,8,1,-5,49
1532061694178,-13,-84,-20,4,1,9,-6,-68
1532061694183,2,38,8,3,-8,-17,-23,-35
1532061694188,13,43,-11,-15,-7,-13,-12,9
1532061694193,20,56,18,22,14,2,9,32
1532061694198,5,19,12,-41,-43,-14,2,18
1532061694203,7,21,-38,-23,-8,-3,-16,-4
1532061694208,-24,-109,-41,8,24,3,-16,-21
1532061694213,10,19,43,16,6,17,27,23
1532061694218,2,6,23,8,4,0,-9,12
1532061694223,-3,-13,0,-1,-8,-13,-7,3
1532061694228,-1,29,10,3,-1,-4,-6,1
1532061694233,2,-24,6,6,10,15,15,-5
1532061694238,7,37,-14,-9,1,4,-2,2
1532061694243,-5,-64,-18,1,-5,-5,-8,6
1532061694248,-6,9,7,-5,-3,-4,-1,-15
1532061694253,-2,-22,-13,-5,-1,0,-23,0
1532061694258,5,16,14,10,-3,-2,-8,19
1532061694263,11,21,-11,-6,-2,2,12,5
1532061694268,8,9,13,4,3,-6,-10,-8
1532061694273,5,-21,-11,-7,-4,-5,0,1
1532061694278,2,31,-16,-1,-5,1,18,8
1532061694283,-16,-91,-4,4,-1,-2,-27,-7
1532061694288,-4,10,-5,-1,2,0,11,-3
1532061694293,6,25,0,-10,2,7,8,7
1532061694298,-6,-5,-7,1,3,1,-4,-8
1532061694303,24,52,21,8,-1,-2,18,14
1532061694308,-15,-25,-1,4,4,-13,-14,-19
1532061694313,-5,-11,-10,3,-5,9,4,3
1532061694318,-3,-16,3,0,13,10,-8,2
1532061694323,1,6,-2,2,-1,-2,-11,5
1532061694328,-2,12,10,4,-1,-3,-7,4
1532061694333,3,8,-4,-1,-4,-8,4,-1
1532061694338,0,-18,6,4,33,-7,1,2
1532061694343,-4,13,5,2,-12,1,2,-6
1532061694348,0,21,7,-13,-44,-11,1,3
1532061694353,0,-18,-33,-7,2,0,-6,-2
1532061694358,5,12,-3,-3,-4,-1,-5,4
1532061694363,-3,6,4,3,16,-7,0,-2
1532061694368,-7,-15,-2,4,10,-3,-19,-10
1532061694373,-3,19,-1,-7,-8,-5,-9,-2
1532061694378,-5,-56,2,5,4,-12,-8,8
1532061694383,3,6,-12,1,3,8,18,7
1532061694388,3,8,-2,3,0,12,-3,0
1532061694393,3,9,10,1,7,2,-3,1
1532061694398,-3,19,-5,-2,-6,-2,-7,1
1532061694403,-4,4,-1,-5,-15,-14,-17,-9
1532061694408,2,2,2,12,15,-2,4,0
1532061694413,-1,-12,7,9,39,23,5,3
1532061694418,-1,5,2,-4,-28,-6,1,-2
1532061694423,-7,-24,-1,-16,-23,-14,-5,-4
1532061694428,0,25,2,-5,-14,-1,-2,-1
1532061694433,-3,-15,3,-2,4,-15,-10,-6
1532061694438,5,30,-3,4,-25,-3,0,-2
1532061694443,-12,-59,-26,-25,-56,0,0,-2
1532061694448,5,13,3,10,38,13,5,2
1532061694453,3,4,7,8,13,2,2,2
1532061694458,0,-4,-9,-17,-17,-6,-1,-3
1532061694463,5,31,12,20,52,-6,-1,-2
1532061694468,2,17,2,-1,-35,0,-1,-2
1532061694473,-6,-52,-11,-13,-32,-5,5,2
1532061694478,0,10,-2,8,18,4,-4,0
1532061694483,0,16,1,-6,-21,1,0,-6
1532061694488,0,24,11,7,35,4,-1,1
1532061694493,5,-24,-6,3,19,-3,-6,2
1532061694498,-6,2,8,-1,-37,-3,-3,-5
1532061694503,0,-7,-5,-6,-5,-3,-4,-2
1532061694508,-4,-4,-6,-5,0,-12,0,-5
1532061694513,0,22,8,2,-25,2,4,-1
1532061694518,-2,-20,-5,2,44,22,7,2
1532061694523,3,18,-22,10,16,10,1,-1
1532061694528,-2,-8,-4,-10,10,-5,-4,0
1532061694533,-2,13,5,-6,-50,-8,-5,-1
1532061694538,-1,18,19,-9,-25,-5,2,1
1532061694543,-1,15,0,-1,5,-1,2,-1
1532061694548,-11,-73,-10,-4,-7,-12,-3,-5
1532061694553,-4,-14,-11,2,14,7,-3,-5
1532061694558,2,12,5,11,23,-4,1,-1
1532061694563,0,8,11,-11,-9,-27,-9,-1
1532061694568,-4,-1,-8,4,-27,-8,-7,-4
1532061694573,3,21,13,1,19,20,12,5
1532061694578,0,-17,-5,2,24,29,8,2
1532061694583,0,8,6,7,29,2,-2,-1
1532061694588,-3,-8,-6,-7,-13,-7,-6,-5
1532061694593,-2,5,-3,-8,-15,-22,-10,-6
1532061694598,-5,-13,-7,-1,-6,-9,5,-5
1532061694603,0,-5,2,-6,-13,-3,4,2
1532061694608,1,8,5,7,21,5,5,2
1532061694613,8,20,2,-2,-9,8,4,5
1532061694618,-4,-22,-14,2,26,-2,-6,0
1532061694623,-4,-14,4,8,7,4,-6,-2
1532061694628,3,13,-1,-10,-18,-9,-4,1
1532061694633,2,24,2,3,6,4,1,1
1532061694638,-9,-38,-15,-10,-6,2,1,-2
1532061694643,-3,-15,-9,10,15,-4,-4,-5
1532061694648,4,11,-3,1,14,14,5,2
1532061694653,-1,-8,3,5,0,-7,0,0
1532061694658,3,22,5,-2,-18,-9,-7,-3
1532061694663,-3,-10,2,-4,-4,3,0,-2
1532061694668,1,5,5,11,12,9,3,0
1532061694673,-2,0,-2,-12,-21,-12,-9,-4
1532061694678,-1,-5,-6,-2,-11,-7,-5,-2
1532061694683,1,3,2,-4,-2,15,3,3
1532061694688,-1,11,2,6,17,5,4,-2
1532061694693,3,-16,-10,-7,-10,-16,-2,3
1532061694698,-5,-13,-5,0,-3,7,-1,-1
1532061694703,3,21,4,0,6,4,2,1
1532061694708,-1,-15,-1,-7,-7,2,1,1
1532061694713,-2,24,6,0,-1,-4,-1,-3
1532061694718,-4,-30,-7,-2,-5,-13,-5,-1
1532061694723,3,14,3,-1,-4,2,-2,0
1532061694728,-4,-3,-3,0,2,4,2,-1
1532061694733,-4,-6,-4,0,8,0,2,-1
1532061694738,5,20,2,-1,0,0,-2,0
1532061694743,-1,-4,-1,3,1,5,-1,0
1532061694748,0,-5,-6,-7,-4,-4,-2,-1
1532061694753,-2,0,1,4,7,4,0,-1
1532061694758,2,9,1,-3,6,1,4,1
1532061694763,-4,-2,1,0,-7,-3,-4,0
1532061694768,2,-4,-1,-5,-13,-17,-8,-2
1532061694773,-5,-19,0,2,8,6,-2,-4
1532061694778,-3,8,-1,-1,5,10,3,0
1532061694783,-1,-5,-2,-4,-2,-3,0,-2
1532061694788,1,6,-1,-1,-2,-1,2,1
1532061694793,0,-2,1,0,2,-4,-2,0
1532061694798,0,-1,2,2,-2,-8,-3,-1
1532061694803,0,-2,-3,-1,-3,0,0,-2
1532061694808,-5,-1,-5,-3,-13,-2,0,1
1532061694813,-1,-7,-2,3,7,12,4,2
1532061694818,1,4,2,0,-3,-4,-3,0
1532061694823,0,0,-1,2,2,-6,0,-1
1532061694828,-1,-5,-1,-2,-7,-3,-2,1
1532061694833,2,8,0,-3,-1,2,-1,0
1532061694838,1,5,2,-2,-1,-6,-5,-1
1532061694843,-2,-2,0,0,-8,3,2,1
1532061694848,-4,-23,-7,0,2,0,-2,-2
1532061694853,0,2,2,-1,-4,-9,-5,-3
1532061694858,1,2,1,1,0,7,1,-2
1532061694863,0,6,1,1,0,-1,-3,1
1532061694868,-1,-1,-3,-1,-2,-3,-2,-1
1532061694873,-5,0,1,-2,-3,-9,-2,-2
1532061694878,1,0,2,1,-1,7,1,0
1532061694883,1,-2,-1,-3,5,-3,0,0
1532061694888,-2,-8,1,-1,0,1,2,0
1532061694893,-3,-5,-4,0,-2,-3,-1,-1
1532061694898,-1,0,-3,-2,-8,-6,0,1
1532061694903,-1,-5,-2,1,2,2,0,0
1532061694908,0,5,-1,0,1,2,-1,-1
1532061694913,-1,1,-2,-1,-5,-4,-3,-3
1532061694918,-1,-1,-2,1,-1,0,-1,-2
1532061694923,0,-6,-1,3,-1,7,3,-1
1532061694928,1,6,0,-1,4,3,1,-1
1532061694933,-1,0,1,-4,2,1,-1,-1
1532061694938,0,-2,-1,-4,-5,-10,-4,-1
1532061694943,-3,-7,-4,-3,-4,-9,-4,-1
1532061694948,1,4,-1,-1,1,4,1,0
1532061694953,-1,-3,-1,2,3,2,1,0
1532061694958,-1,2,-1,1,-5,-5,-2,0
1532061694963,3,3,1,-1,-3,-4,0,2
1532061694968,-1,4,-1,-1,-2,0,-3,0
1532061694973,-8,-11,-5,-2,2,-4,-6,-10
1532061694978,-2,-2,-1,0,-5,-1,1,-1
1532061694983,-2,-2,0,-1,5,3,-3,-1
1532061694988,1,2,-2,-2,2,-3,-2,-1
1532061694993,2,0,-2,1,-3,3,2,3
1532061694998,0,0,1,0,3,9,6,0
1532061695003,2,-1,-1,4,16,6,0,0
1532061695008,0,3,0,-4,-7,-6,-1,-1
1532061695013,-1,2,-1,2,3,-3,-3,-1
1532061695018,-4,-1,0,-11,-21,-21,-9,-3
1532061695023,-4,-7,1,8,-7,-3,2,0
1532061695028,0,-1,-1,-1,4,15,3,3
1532061695033,1,6,-1,-4,2,3,3,2
1532061695038,1,-2,-1,-3,-3,-7,-3,0
1532061695043,1,5,-2,-8,-13,-11,-7,-2
1532061695048,0,8,3,5,7,6,2,0
1532061695053,0,-19,-2,-3,11,17,7,3
1532061695058,-3,2,-3,2,-1,-7,-4,-3
1532061695063,-3,-1,-2,-6,-9,-8,-5,-5
1532061695068,-5,-3,0,1,-20,-14,-2,-3
1532061695073,3,7,1,7,34,11,0,2
1532061695078,3,-3,-4,1,-3,3,2,-1
1532061695083,-2,-8,-2,-11,-5,-2,-3,-1
1532061695088,-1,3,3,3,-8,-7,-4,-2
1532061695093,-3,1,4,4,-5,-7,-3,-3
1532061695098,-1,-2,-1,7,16,16,5,2
1532061695103,-1,4,-3,-13,-8,-5,1,-2
1532061695108,1,-2,-1,-7,-1,4,3,0
1532061695113,-3,-1,-3,-3,-10,-12,-5,-1
1532061695118,0,-2,0,0,-7,-6,-2,-1
1532061695123,-2,0,-1,0,0,7,0,-1
1532061695128,-1,-6,-3,-4,5,-3,-1,-2
1532061695133,0,-2,-2,-1,-6,-6,-3,-1
1532061695138,0,3,0,0,4,6,2,0
1532061695143,1,-1,1,2,2,-3,2,-2
1532061695148,0,-3,-1,-5,-2,-2,-5,-1
1532061695153,1,3,0,-2,-12,-1,0,0
1532061695158,-1,-2,0,0,4,4,2,1
1532061695163,-3,-5,-2,3,10,5,-2,0
1532061695168,0,-3,-2,0,2,-3,-2,-1
1532061695173,0,4,-1,-13,-23,-9,1,0
1532061695178,-1,-1,1,8,13,13,2,0
1532061695183,2,-1,-1,5,1,3,1,0
1532061695188,2,1,1,5,7,4,-2,1
1532061695193,-2,0,-2,-10,-5,-8,-4,-3
1532061695198,-4,0,-2,-1,-8,-5,-4,-3
1532061695203,1,1,0,5,9,5,4,2
1532061695208,-1,0,-2,-8,-8,-1,0,0
1532061695213,1,-3,3,9,6,6,2,1
1532061695218,0,-1,-1,-7,-5,-4,0,0
1532061695223,-1,-1,-1,3,-3,-3,-2,-1
1532061695228,-2,-2,0,-2,2,0,-1,0
1532061695233,-1,-2,-1,-2,-6,-5,-1,-2
1532061695238,-1,-1,-1,-1,-5,-5,-1,-2
1532061695243,-3,0,1,-2,3,3,0,-1
1532061695248,-1,-2,0,-1,-3,-1,2,0
1532061695253,-1,2,-1,2,4,-1,-2,0
1532061695258,0,-1,-1,-1,0,-1,-1,-2
1532061695263,0,-4,-1,-1,-5,0,1,0
1532061695268,-2,-2,-1,0,0,-5,-1,1
1532061695273,-2,-1,0,2,5,9,0,-2
1532061695278,-1,-4,-2,-4,3,-6,-3,-2
1532061695283,0,-1,-1,-3,-9,-5,-5,-2
1532061695288,-1,-4,-4,5,11,9,3,1
1532061695293,-1,-1,-3,1,-3,-1,0,0
1532061695298,1,0,-1,0,1,-2,-2,0
1532061695303,0,1,-1,-3,-1,-1,-1,0
1532061695308,-2,2,-1,-1,-8,-6,-3,-4
1532061695313,-1,0,-2,-5,0,-1,-2,-2
1532061695318,-1,-2,0,-2,-4,-1,-2,-2
1532061695323,1,0,0,4,1,-3,0,0
1532061695328,1,-1,-1,5,3,-1,1,0
1532061695333,0,0,0,1,2,5,-1,-1
1532061695338,-1,0,-3,-4,3,2,1,0
1532061695343,-2,-2,-1,-3,-2,-3,0,0
1532061695348,-3,-1,2,1,3,7,1,0
1532061695353,0,1,-2,0,-2,-4,-1,-1
1532061695358,0,0,-1,0,-6,-3,-3,0
1532061695363,-3,-1,-2,-3,-2,-4,-5,-2
1532061695368,1,-1,1,-1,-5,-7,0,0
1532061695373,-1,-1,1,0,2,-2,0,-2
1532061695378,0,1,-1,-1,4,9,2,1
1532061695383,-1,0,2,7,6,-1,1,0
1532061695388,-1,-2,-11,-19,-3,-6,-4,-1
1532061695393,-1,-3,0,0,1,-1,0,-2
1532061695398,0,-3,0,-2,-5,-1,0,-1
1532061695403,0,1,1,5,9,7,2,0
1532061695408,1,1,0,7,-2,0,-1,1
1532061695413,1,2,-1,2,4,-1,0,1
1532061695418,-3,-2,-6,-10,-9,-7,-4,-1
1532061695423,-1,-2,-1,-2,-6,-3,-2,-1
1532061695428,-1,0,2,-2,-7,-3,-4,-3
1532061695433,-1,1,1,7,6,6,6,4
1532061695438,-3,0,1,3,0,-4,-1,-2
1532061695443,-1,-1,-3,1,-2,-4,-2,-2
1532061695448,0,-2,-1,-12,-3,1,-1,-2
1532061695453,0,-4,0,0,-3,0,-3,-3
1532061695458,-2,-1,0,-4,-3,-4,-2,-2
1532061695463,-1,0,0,-4,2,2,0,-1
1532061695468,-1,-2,2,3,2,-1,-1,-2
1532061695473,-1,-3,1,2,-3,-1,-2,0
1532061695478,0,-1,-2,-11,-1,-1,-1,0
1532061695483,-2,-2,-3,-5,-8,-8,-4,-4
1532061695488,0,2,0,4,-1,7,1,0
1532061695493,0,0,-1,-4,2,-2,-1,0
1532061695498,1,-1,0,6,5,2,1,0
1532061695503,-1,0,0,-4,-5,-5,-2,2
1532061695508,-3,-6,-3,1,-3,-6,-2,-1
1532061695513,0,-1,-2,-1,0,0,-1,-1
1532061695518,0,-1,0,1,3,1,1,0
1532061695523,0,1,0,-1,-3,0,-1,-1
1532061695528,0,5,1,2,3,-2,1,-1
1532061695533,-1,-1,0,-3,-7,-5,-2,-1
1532061695538,-1,-3,-1,3,3,-1,-2,-1
1532061695543,-2,-1,-2,-5,-2,3,-1,0
1532061695548,-2,-4,-1,1,0,-1,-2,-4
1532061695553,0,3,0,-4,-7,-8,-4,-2
1532061695558,-1,-2,2,2,-3,-2,-1,-1
1532061695563,-2,-2,-3,-5,13,8,4,2
1532061695568,-1,1,1,11,4,6,1,2
1532061695573,-1,-2,-3,0,-2,-2,-2,-3
1532061695578,-1,0,0,0,-6,-7,-4,-2
1532061695583,1,-1,1,3,-3,-6,-3,-2
1532061695588,0,-2,0,-3,-1,1,-1,-3
1532061695593,0,-4,-2,-6,-2,1,3,1
1532061695598,-1,-1,-2,-1,1,2,0,-1
1532061695603,0,1,1,1,4,2,-2,0
1532061695608,-1,0,-2,-3,0,2,-1,-1
1532061695613,-1,1,-3,-2,-2,0,-2,0
1532061695618,-1,-2,0,0,-2,2,0,0
1532061695623,-2,-2,0,-1,1,-1,3,-2
1532061695628,-3,-2,-2,-3,-3,-7,-1,-1
1532061695633,-1,-2,0,-1,-1,-2,-2,-1
1532061695638,0,0,-1,-1,-1,-1,2,1
1532061695643,-2,-2,-1,1,0,3,1,-3
1532061695648,-2,-1,-4,-4,-4,-1,-2,0
1532061695653,-1,-1,-2,-3,-1,-2,-2,-3
1532061695658,-1,-1,-1,-1,-1,-3,-1,0
1532061695663,-1,-1,0,-2,-5,-4,0,1
1532061695668,1,-1,1,8,8,8,2,0
1532061695673,0,-1,-5,-7,0,1,-1,0
1532061695678,1,1,0,6,2,2,-1,-1
1532061695683,0,-2,-2,-5,-6,-5,-3,-1
1532061695688,1,-1,0,3,3,-2,-2,0
1532061695693,-2,-1,0,-10,-6,-2,0,-1
1532061695698,-1,0,-1,1,3,3,-1,-3
1532061695703,0,1,0,3,0,1,0,-1
1532061695708,1,-1,-1,-5,-1,-3,-2,1
1532061695713,1,-2,0,0,1,-1,0,-1
1532061695718,-1,-1,-7,-4,-4,-4,0,0
1532061695723,-1,-2,-1,-2,-2,-3,0,0
1532061695728,-2,0,1,8,-3,-6,-1,0
1532061695733,-3,0,-1,-2,4,2,1,0
1532061695738,-2,0,-1,-7,-14,0,-1,0
1532061695743,-1,-2,-2,-4,-7,-5,-2,-1
1532061695748,1,-2,-1,11,9,2,1,-3
1532061695753,-2,-2,1,5,0,1,0,1
1532061695758,-1,1,2,-6,9,4,0,-1
1532061695763,-1,1,-2,-1,1,1,-2,0
1532061695768,-1,-1,-3,-14,-5,-4,-2,-1
1532061695773,1,2,-1,-6,0,-3,-1,-1
1532061695778,-1,-4,1,24,0,-2,-3,1
1532061695783,-2,-2,0,5,2,1,-1,0
1532061695788,1,-1,-3,-9,-4,-6,-2,-2
1532061695793,0,-2,-2,3,2,0,-2,-1
1532061695798,1,-3,-1,-7,0,-1,0,0
1532061695803,0,-1,-1,2,4,3,-3,0
1532061695808,-1,-1,1,-4,-3,0,-2,-2
1532061695813,1,0,2,12,-3,-2,0,-1
1532061695818,0,-1,-1,-9,6,-5,-3,-1
1532061695823,-1,-4,-3,2,-5,0,2,0
1532061695828,1,0,1,-10,-13,4,1,2
1532061695833,-1,0,-1,0,4,1,0,0
1532061695838,-2,2,2,2,-2,0,-1,1
1532061695843,-1,1,-3,-8,2,-6,-2,-3
1532061695848,-1,-3,-1,2,-1,-2,-1,-4
1532061695853,0,-3,-2,0,-1,1,1,-1
1532061695858,1,0,0,-3,1,1,-1,-1
1532061695863,0,-1,2,0,-3,-1,0,2
1532061695868,-2,3,0,2,0,-1,-1,-1
1532061695873,0,0,3,6,0,-2,-3,-3
1532061695878,-2,1,-3,-9,0,-3,0,-1
1532061695883,-2,0,-2,2,-5,-2,1,2
1532061695888,1,-2,-1,-2,3,5,2,2
1532061695893,-1,2,-1,-1,4,0,2,-2
1532061695898,-1,-1,0,-1,-8,-2,-5,-4
1532061695903,1,-2,2,-1,-4,-4,2,-2
1532061695908,-2,0,0,7,2,-2,1,0
1532061695913,-1,-1,-1,-3,4,4,-1,2
1532061695918,-3,-3,0,3,-3,-2,-2,-2
1532061695923,-2,0,1,-3,-1,-1,-1,0
1532061695928,-1,1,1,-3,-3,-3,-1,-1
1532061695933,-1,-2,-2,-3,-4,0,2,-1
1532061695938,1,-1,-3,-8,0,1,-1,-1
1532061695943,0,-1,-2,7,2,0,-1,-2
1532061695948,-2,-3,-1,9,-4,-2,-1,-2
1532061695953,-2,-2,-4,-17,-2,-3,-3,-1
1532061695958,0,-3,-1,7,-6,-2,0,0
1532061695963,1,-1,-2,-3,3,1,-1,-2
1532061695968,2,-1,-7,-9,-1,-3,-1,1
1532061695973,-4,0,-2,12,-1,-3,-5,-3
1532061695978,-2,-1,-2,3,4,1,-3,-2
1532061695983,-2,-1,0,-13,-2,-2,1,-1
1532061695988,-3,-4,0,-3,-8,-3,-1,-2
1532061695993,-1,-1,1,2,0,0,1,0
1532061695998,-1,0,1,-10,-5,-2,-1,0
1532061696003,-2,2,0,7,1,-1,-2,-1
1532061696008,0,2,4,-25,-5,0,-1,0
1532061696013,0,-1,3,2,-2,-3,-1,-2
1532061696018,1,-1,-2,4,1,1,3,2
1532061696023,-3,-3,6,8,3,-1,-2,0
1532061696028,-2,1,-1,1,5,1,-3,0
1532061696033,0,-2,-5,-7,-2,-2,-3,-3
1532061696038,2,1,4,-1,1,1,2,0
1532061696043,1,0,2,8,4,0,-1,-3
1532061696048,1,2,-2,14,-2,0,1,-1
1532061696053,-3,-6,-15,-9,-5,-2,-1,0
1532061696058,0,-2,-2,-4,-3,-1,1,0
1532061696063,-3,-3,-11,-25,-7,-2,-5,-3
1532061696068,3,2,4,21,9,5,0,2
1532061696073,-2,-3,13,33,0,-4,-2,-1
1532061696078,0,1,-7,0,0,-2,-1,-1
1532061696083,0,2,12,23,11,4,2,-1
1532061696088,-4,-9,-17,-43,-5,-5,-3,-3
1532061696093,0,2,1,-9,-14,-4,2,-1
1532061696098,-1,-1,-4,13,-1,5,1,2
1532061696103,-1,-1,4,-53,-13,-7,-3,1
1532061696108,-1,-1,-14,-6,-3,1,1,-1
1532061696113,1,-4,1,-20,-6,-2,0,1
1532061696118,1,-1,2,18,19,-6,3,-6
1532061696123,0,1,-3,15,1,10,1,1
1532061696128,-1,1,5,-1,-14,-9,-2,3
1532061696133,0,-1,-2,-2,-5,-2,2,3
1532061696138,-2,4,5,8,60,-3,-7,-5
1532061696143,1,0,-2,-4,-11,5,2,-1
1532061696148,-2,-3,1,12,-4,-2,0,-3
1532061696153,-1,1,-4,-1,-16,-5,1,-1
1532061696158,2,-1,6,23,-3,0,2,-1
1532061696163,-5,-4,-3,-8,-33,-2,-1,-1
1532061696168,-2,0,4,2,11,4,3,-3
1532061696173,0,3,-7,-6,-7,4,0,0
1532061696178,-3,-2,3,5,3,-3,-2,1
1532061696183,0,1,0,14,11,-2,-1,-3
1532061696188,0,1,-3,-7,-11,1,-1,-2
1532061696193,-3,-2,8,7,18,2,-5,-1
1532061696198,1,2,1,-4,-11,3,-6,-2
1532061696203,-1,-7,-31,-13,0,0,-2,1
1532061696208,0,6,24,6,7,1,-1,-1
1532061696213,0,-5,-20,-33,6,-2,-4,-1
1532061696218,1,4,16,4,-12,0,9,1
1532061696223,-3,-9,-21,5,-8,-8,-1,-1
1532061696228,1,-3,-12,-16,-4,-7,-4,-3
1532061696233,1,0,7,25,2,0,-4,1
1532061696238,1,2,-4,-20,-17,3,-3,1
1532061696243,4,11,7,-5,12,-3,2,4
1532061696248,1,-9,2,14,4,2,4,1
1532061696253,1,1,-4,0,-1,2,-8,1
1532061696258,1,5,9,27,-9,-3,-4,2
1532061696263,-3,-13,-22,-39,3,0,1,-7
1532061696268,0,3,11,20,1,-1,-3,0
1532061696273,0,1,-8,-1,-1,1,7,-1
1532061696278,-1,5,8,9,2,0,0,-1
1532061696283,-3,-2,4,-16,1,0,-2,-2
1532061696288,2,13,17,28,4,4,4,4
1532061696293,-10,-18,6,-18,-7,-2,-4,-9
1532061696298,8,4,-16,-45,-17,-6,-11,4
1532061696303,-17,-3,-10,29,11,10,13,-7
1532061696308,-1,6,19,-5,9,2,-5,-1
1532061696313,0,1,-2,18,11,3,1,1
1532061696318,-3,-6,-16,-22,-10,-5,-2,0
1532061696323,26,16,17,14,-1,0,12,7
1532061696328,-40,-24,-5,-5,-11,-13,-22,0
1532061696333,7,7,-17,0,14,10,4,6
1532061696338,-7,-5,6,-5,-5,3,1,-4
1532061696343,2,10,20,20,3,2,-5,-3
1532061696348,3,-13,-33,-1,3,0,-2,-2
1532061696353,3,6,5,-18,-6,-4,-11,2
1532061696358,-12,-9,16,11,-7,-1,6,-3
1532061696363,-2,-8,-9,-36,-4,2,-24,8
1532061696368,7,13,2,-29,-5,4,3,4
1532061696373,-4,-13,16,9,-5,-3,-22,-22
1532061696378,15,10,-11,11,7,1,-15,0
1532061696383,-12,-4,11,13,-2,-9,-3,-5
1532061696388,21,-8,-5,2,5,2,14,5
1532061696393,-33,-11,-16,-4,-5,-8,3,-10
1532061696398,18,4,9,-11,-1,-4,22,10
1532061696403,-16,-15,55,33,-1,-2,7,-9
1532061696408,-5,-13,-57,-23,-2,-5,-14,-8
1532061696413,17,5,0,24,5,7,13,0
1532061696418,5,3,-5,-3,0,2,5,-3
1532061696423,-10,-2,7,-3,-4,0,3,3
1532061696428,-10,5,21,10,3,-3,0,-5
1532061696433,9,-1,28,8,1,-3,-23,6
1532061696438,-15,-9,-15,-4,-4,-4,4,-3
1532061696443,8,0,-11,11,2,-7,-10,0
1532061696448,6,-10,-10,-15,-8,-5,2,-5
1532061696453,-5,11,5,2,0,-3,8,8
1532061696458,3,6,0,2,5,5,6,6
1532061696463,5,8,-1,12,1,0,-19,-9
1532061696468,6,10,28,17,7,3,-9,2
1532061696473,-7,0,-44,-34,-12,-8,2,-4
1532061696478,-1,-11,-7,0,-6,-7,-3,-10
1532061696483,26,-3,-20,-31,-10,-7,-11,14
1532061696488,-11,-5,-24,-9,0,-1,8,3
1532061696493,-12,19,19,17,7,7,45,1
1532061696498,8,8,39,20,4,8,-2,-3
1532061696503,-13,-3,0,-6,-2,-12,-14,-4
1532061696508,11,1,-20,7,-1,-3,-13,-7
1532061696513,-27,-6,21,4,-2,-4,-13,0
1532061696518,50,2,-10,-9,-4,-4,13,19
1532061696523,-87,-24,18,12,0,1,19,-11
1532061696528,-54,-5,6,8,-4,-1,5,-6
1532061696533,7,-6,-7,-1,-1,0,4,-11
1532061696538,1,16,-7,-9,0,0,-12,2
1532061696543,37,-9,-1,0,-3,4,-10,1
1532061696548,-17,-36,-5,-7,-8,-2,-6,-7
1532061696553,17,-3,-47,-30,-6,-2,-10,-1
1532061696558,0,-4,16,-1,-1,1,7,16
1532061696563,14,17,-18,-8,-3,-5,-18,-21
1532061696568,5,22,11,2,5,3,12,-7
1532061696573,51,14,36,10,1,1,-10,4
1532061696578,-81,-23,-17,-9,0,3,-1,-15
1532061696583,56,-16,-30,-8,3,3,36,24
1532061696588,-1,3,-9,-8,-3,-3,0,11
1532061696593,-27,-1,3,10,-2,-6,-9,-36
1532061696598,1,-1,-5,1,0,-10,-12,-12
1532061696603,-1,28,11,2,2,1,7,3
1532061696608,23,17,19,15,2,-2,-1,2
1532061696613,-20,-18,-22,-35,-11,-6,5,14
1532061696618,3,-17,0,-21,-3,-3,-7,-12
1532061696623,-24,-24,-37,-4,-4,-4,-4,-7
1532061696628,35,32,13,17,-1,-1,-12,4
1532061696633,-5,-5,-4,2,2,6,-2,4
1532061696638,1,-7,-34,-12,-4,6,-8,-3
1532061696643,-3,-3,-17,0,6,10,8,3
1532061696648,5,8,-3,-14,2,8,1,5
1532061696653,5,0,8,15,3,6,6,8
1532061696658,-5,25,3,3,2,3,2,0
1532061696663,16,17,5,4,3,6,34,23
1532061696668,9,26,0,-1,0,-1,3,17
1532061696673,-17,-88,-2,5,2,-3,-5,-13
1532061696678,-33,10,-10,1,-9,-16,-27,-48
1532061696683,-16,-27,-27,-8,-5,-13,-11,-40
1532061696688,-16,-12,4,-5,-4,-6,-2,-11
1532061696693,32,51,6,5,2,-2,4,22
1532061696698,13,-13,7,1,1,1,14,28
1532061696703,-4,3,17,3,0,-1,-7,3
1532061696708,-1,-11,-1,-5,1,1,1,-14
1532061696713,-1,1,-10,-2,-3,-5,-8,1
1532061696718,-11,-16,2,3,0,-4,-8,-7
1532061696723,0,13,7,0,0,-3,-8,-8
1532061696728,13,-5,-8,-2,-1,-4,2,12
1532061696733,-3,4,-3,-1,0,-2,9,11
1532061696738,6,-1,-2,3,1,2,15,18
1532061696743,7,14,13,3,0,6,-3,10
1532061696748,-1,-4,1,1,1,5,4,-8
1532061696753,-5,10,33,13,-1,2,-8,-11
1532061696758,4,16,-22,-9,-1,5,-5,7
1532061696763,11,13,18,12,4,6,0,17
1532061696768,-15,-85,-2,-1,-6,-1,-4,-4
1532061696773,-13,-5,-2,0,-1,-2,-4,-19
1532061696778,-21,-16,-1,2,0,1,-8,-9
1532061696783,-7,17,24,6,-1,2,1,-11
1532061696788,9,33,5,1,0,3,6,14
1532061696793,6,10,-3,-1,-3,-1,-3,6
1532061696798,7,-11,4,3,0,2,0,4
1532061696803,-16,5,-15,-4,-4,-3,-9,-14
1532061696808,0,19,3,0,2,0,4,-12
1532061696813,12,3,-9,-3,-1,2,3,28
1532061696818,-15,-7,17,5,-1,-5,-13,-38
1532061696823,0,-8,-4,-5,-2,-3,-7,0
1532061696828,3,-2,5,-6,-3,0,-6,-10
1532061696833,-1,7,-5,-4,0,4,-5,-5
1532061696838,24,19,3,-2,-1,7,2,15
1532061696843,0,-28,1,-3,0,8,-1,5
1532061696848,-3,-20,-2,0,2,4,3,-4
1532061696853,-1,-13,4,0,-3,1,5,-16
1532061696858,10,13,7,0,-1,0,10,8
1532061696863,20,19,-3,0,-1,-5,-1,6
