1532493749168,-3,-1,-2,-1,-3,4,6,-8
1532493749173,5,2,3,1,2,-8,-6,12
1532493749178,10,4,5,6,8,-9,4,12
1532493749183,0,-3,-3,-2,-12,-10,-2,0
1532493749188,-1,-1,-1,-1,2,7,-6,0
1532493749193,-10,-5,-3,-2,2,2,24,-12
1532493749198,-5,1,-4,-3,-5,-4,-6,-15
1532493749203,1,-3,1,0,3,-3,-7,-1
1532493749208,2,1,-1,1,6,14,11,9
1532493749213,5,2,3,-1,-1,8,-4,2
1532493749218,-4,-2,-3,-3,-5,-19,-5,-4
1532493749223,-3,-1,-1,-1,1,-1,9,0
1532493749228,-1,-1,-1,0,1,-3,-10,-4
1532493749233,-6,-5,-3,-3,-3,-2,-1,-5
1532493749238,0,-1,1,1,-2,-11,0,1
1532493749243,3,2,-1,1,1,-3,-22,-1
1532493749248,2,-2,0,-1,0,6,11,5
1532493749253,-2,-3,-2,-3,-3,-1,2,0
1532493749258,-13,-13,-2,1,1,-6,-22,-6
1532493749263,7,10,-3,1,1,0,-1,-4
1532493749268,11,2,1,0,-2,-6,1,4
1532493749273,-13,-2,-3,-2,-4,-3,-4,11
1532493749278,-3,-2,-3,-1,-2,-2,5,-3
1532493749283,-3,-3,1,1,3,2,-1,7
1532493749288,-3,-2,-2,-2,-5,-9,0,-10
1532493749293,-3,-2,-3,-2,-1,-1,-17,-12
1532493749298,-1,2,4,0,1,4,21,15
1532493749303,1,8,2,2,-1,-5,-7,-10
1532493749308,-1,-3,-4,-1,-2,6,11,16
1532493749313,0,-3,2,-1,-2,1,-5,2
1532493749318,-2,-1,-2,-3,-3,-7,-5,-6
1532493749323,-6,-4,0,1,1,-2,5,-3
1532493749328,-7,-1,-1,-1,1,8,14,-2
1532493749333,10,7,-1,3,1,-2,-10,-4
1532493749338,2,1,-4,-4,-7,-13,-5,-3
1532493749343,1,-3,-2,-1,4,2,-9,6
1532493749348,1,1,0,2,0,8,1,-1
1532493749353,5,-5,0,0,-2,3,4,2
1532493749358,-1,2,0,-2,-3,4,3,-3
1532493749363,3,2,2,-1,0,-15,2,1
1532493749368,-4,-2,0,1,-1,-6,-7,-5
1532493749373,-2,3,3,-2,1,7,3,-9
1532493749378,3,-1,-2,-3,-7,-11,1,6
1532493749383,-1,-3,-2,-4,-1,3,0,2
1532493749388,-1,1,0,-2,-6,-5,-3,-6
1532493749393,-4,-2,-1,-1,-1,-16,3,-1
1532493749398,-4,4,0,2,5,13,1,-3
1532493749403,11,-6,0,-3,-2,4,-1,-1
1532493749408,-2,1,0,-3,-1,4,2,0
1532493749413,-1,-1,-2,-1,-2,-23,2,2
1532493749418,3,-1,-2,0,4,16,-9,-4
1532493749423,-6,-2,-1,-1,-2,-12,1,0
1532493749428,-7,2,-2,-2,-3,-15,3,0
1532493749433,-4,-2,0,-1,3,54,10,0
1532493749438,-3,5,-2,-2,-1,-4,-20,-6
1532493749443,10,-9,2,0,-1,-16,1,4
1532493749448,4,-2,0,-1,-1,0,-10,0
1532493749453,4,2,-6,-1,-5,-15,12,3
1532493749458,-1,-5,-2,-1,3,-3,1,-1
1532493749463,-5,3,-1,-2,1,5,0,-3
1532493749468,1,-2,-3,-3,-1,-5,7,-2
1532493749473,-1,-4,0,-1,-5,-14,-14,-1
1532493749478,-2,3,0,4,11,44,23,5
1532493749483,0,2,-4,-1,-6,-19,-19,-4
1532493749488,3,-3,1,-1,-6,17,15,1
1532493749493,-7,0,0,-2,5,4,2,-1
1532493749498,-1,-2,-2,-3,-9,-7,-21,-3
1532493749503,-1,1,1,2,3,0,16,0
1532493749508,0,0,0,-1,-1,-6,-9,-1
1532493749513,-4,0,-2,-2,-4,-32,-11,-5
1532493749518,0,-3,0,-3,-1,20,6,-4
1532493749523,1,1,-4,-1,1,-1,-7,-4
1532493749528,-2,1,0,0,3,-9,-1,3
1532493749533,-5,-8,2,1,-3,7,8,1
1532493749538,-32,2,1,-2,0,-17,8,2
1532493749543,10,0,-2,-2,-2,8,-19,-9
1532493749548,1,-1,-5,-4,-1,1,18,2
1532493749553,2,-1,-1,-1,-5,-23,-14,-4
1532493749558,3,-7,-2,0,3,14,-10,-1
1532493749563,-14,-1,3,-1,0,6,-4,8
1532493749568,1,1,-1,0,1,0,27,-1
1532493749573,-1,1,-1,2,7,15,-16,-5
1532493749578,8,-1,-1,-6,-14,-27,-6,-2
1532493749583,-1,2,1,1,4,10,4,-1
1532493749588,6,-2,-3,-1,-1,-4,-3,1
1532493749593,-5,-3,-3,-1,-3,4,-2,5
1532493749598,4,2,0,-1,3,-4,-1,-4
1532493749603,0,-2,0,1,6,0,-45,3
1532493749608,-6,1,6,1,3,8,62,4
1532493749613,2,0,-5,-4,-5,-3,5,2
1532493749618,4,-1,-1,2,0,-10,-4,-4
1532493749623,-2,0,-4,-3,-3,14,10,-2
1532493749628,1,-3,6,2,1,-2,-3,-6
1532493749633,-3,-1,-7,-6,-8,-3,-20,-2
1532493749638,3,-3,-2,-1,-3,-15,3,1
1532493749643,-3,-1,2,2,2,13,14,-2
1532493749648,0,-1,2,3,0,-26,-25,-2
1532493749653,1,0,0,-1,2,34,-6,-3
1532493749658,-1,-1,-3,-2,1,-2,0,1
1532493749663,-3,0,-4,-3,-4,-11,64,-8
1532493749668,-12,-4,-5,-3,-4,5,-29,1
1532493749673,21,0,6,5,0,-18,8,0
1532493749678,-6,-6,-7,-3,2,12,5,3
1532493749683,3,-5,0,-1,-1,3,-8,-4
1532493749688,3,1,-2,-1,-2,-4,-7,-3
1532493749693,-6,1,2,0,2,2,6,0
1532493749698,1,-2,2,1,2,2,13,-4
1532493749703,-1,0,0,-1,-13,-30,-16,2
1532493749708,-4,0,-4,1,8,23,11,-1
1532493749713,-7,-3,-2,-5,1,-3,-16,-2
1532493749718,3,2,1,2,-3,3,-6,-1
1532493749723,-4,-1,-2,-1,1,-7,-4,2
1532493749728,5,-1,-1,-1,6,7,-1,-1
1532493749733,-3,3,4,5,-20,-10,1,2
1532493749738,1,0,-4,-8,0,6,-5,-2
1532493749743,-1,0,0,-2,-1,-16,12,4
1532493749748,-3,-2,-2,-2,3,24,-27,-9
1532493749753,1,-1,-1,5,-12,-40,4,-4
1532493749758,0,4,2,-2,-7,42,14,4
1532493749763,-3,-1,-5,-1,2,0,-15,-3
1532493749768,2,1,-1,0,7,24,4,1
1532493749773,-3,-1,1,-2,5,-2,1,1
1532493749778,-2,-4,-3,3,5,-37,2,-1
1532493749783,-2,-1,-1,-2,-1,-3,-8,-8
1532493749788,1,1,-1,-3,-7,-4,-21,0
1532493749793,-1,-2,-2,-4,0,-3,31,3
1532493749798,0,0,2,4,-9,-5,-9,-1
1532493749803,2,0,1,-2,10,26,11,2
1532493749808,-4,-3,-4,-2,-8,-23,-30,-1
1532493749813,-2,0,1,-2,5,12,40,2
1532493749818,0,0,-1,1,8,10,6,0
1532493749823,-1,-2,-2,0,-7,-7,-4,-2
1532493749828,1,0,1,-4,-11,-8,16,0
1532493749833,-4,-2,-1,0,14,11,-19,-4
1532493749838,0,1,0,0,2,-7,7,2
1532493749843,0,0,0,3,0,7,0,-1
1532493749848,-1,-2,-4,-1,7,-6,-15,-4
1532493749853,-2,0,1,-4,-6,-5,5,-1
1532493749858,0,0,1,-1,-2,-8,-11,-1
1532493749863,-1,-2,-2,0,0,4,-3,2
1532493749868,-4,-1,0,-2,0,-2,7,2
1532493749873,0,-1,-2,-3,-9,0,-7,-5
1532493749878,0,2,0,-2,-2,1,-5,0
1532493749883,0,-2,1,0,-4,-4,0,3
1532493749888,-2,-3,-3,-1,-1,-14,-5,-4
1532493749893,-2,-2,-3,-1,0,11,0,-1
1532493749898,-1,-2,0,0,-1,-15,-37,-10
1532493749903,1,-1,1,1,3,-1,30,8
1532493749908,0,-1,-4,-3,-8,-8,-57,-5
1532493749913,1,1,2,1,4,12,44,3
1532493749918,-3,-1,-1,-3,-10,-8,2,-6
1532493749923,-3,-2,-3,0,7,5,-11,-8
1532493749928,2,0,-1,-3,-15,-7,10,10
1532493749933,-1,-1,0,2,13,-1,-23,-6
1532493749938,3,2,-1,-2,7,5,-17,-4
1532493749943,1,-1,-2,-3,-5,-2,37,12
1532493749948,1,-1,1,2,-2,-3,9,8
1532493749953,-4,-2,-2,1,0,-4,-31,-5
1532493749958,-4,-3,-5,-1,0,0,14,-5
1532493749963,-1,-1,5,-1,-2,-1,-22,-3
1532493749968,2,-1,-4,-1,1,11,4,-1
1532493749973,-1,-1,-4,-5,-8,-10,6,0
1532493749978,1,0,1,3,5,2,2,3
1532493749983,-7,-2,-4,-4,-7,-5,0,-7
1532493749988,3,1,0,2,2,6,-2,1
1532493749993,-3,1,-1,-2,-2,7,-87,-15
1532493749998,1,-1,2,0,-1,0,34,2
1532493750003,-6,0,-1,0,2,-11,-20,-19
1532493750008,2,-4,-1,-1,-2,-7,14,-9
1532493750013,-39,4,-4,-1,1,3,-2,16
1532493750018,71,4,-1,-4,-1,-5,-30,15
1532493750023,7,0,-1,-1,-2,22,2,8
1532493750028,-17,-4,1,-2,-6,-23,-71,-26
1532493750033,20,2,1,5,8,33,110,8
1532493750038,-25,-6,-2,0,1,-32,-13,7
1532493750043,-6,3,1,2,-5,-21,31,8
1532493750048,3,-4,-2,1,11,12,-40,-18
1532493750053,-1,-1,-1,-3,-13,7,46,4
1532493750058,-13,1,-2,-3,-5,-2,-4,-1
1532493750063,6,-3,0,1,10,28,2,-1
1532493750068,-13,1,0,-2,-11,-25,-5,-2
1532493750073,16,1,0,-2,2,-6,-14,9
1532493750078,-18,-1,2,5,11,15,-5,-6
1532493750083,7,6,-2,-1,-7,-1,-4,-4
1532493750088,5,0,1,-2,0,-3,17,13
1532493750093,-1,-4,-2,-4,-3,-10,-11,-6
1532493750098,-7,-2,-2,-2,-6,7,29,-4
1532493750103,0,-3,-1,1,-11,-18,-36,0
1532493750108,1,3,1,-6,5,26,46,18
1532493750113,4,-4,1,0,-1,-13,-7,-6
1532493750118,-9,-3,-1,0,-8,-14,-4,-1
1532493750123,-3,0,1,0,30,22,-56,-7
1532493750128,2,-1,-3,0,3,-2,40,7
1532493750133,-4,-5,1,-4,1,-13,-35,-8
1532493750138,2,0,-2,2,-10,8,16,1
1532493750143,-5,-1,-1,-1,-1,-9,-2,-2
1532493750148,2,-1,0,2,-3,2,2,-3
1532493750153,-4,-1,-1,2,7,3,21,5
1532493750158,-2,-1,-3,-4,-7,-8,12,-10
1532493750163,-3,-3,-1,-1,-9,-13,-49,-11
1532493750168,-4,-2,-2,0,-13,-6,13,-3
1532493750173,0,-2,-4,-3,2,11,1,-3
1532493750178,-1,1,-1,-2,6,-3,-12,0
1532493750183,-2,-3,-2,-3,0,21,31,1
1532493750188,1,1,1,2,5,3,6,1
1532493750193,-3,1,1,2,-3,-5,-53,-7
1532493750198,1,-1,-1,-1,-2,4,7,1
1532493750203,-3,-1,-2,0,2,3,12,4
1532493750208,-1,1,2,3,-9,-4,0,-1
1532493750213,4,-2,-4,-2,4,25,9,0
1532493750218,-4,1,-1,-3,7,-14,-20,3
1532493750223,-4,-1,-4,-3,-9,-10,8,0
1532493750228,0,-1,0,-2,-3,4,-7,-3
1532493750233,-1,1,-1,-1,-8,-4,19,4
1532493750238,1,-1,-1,3,11,4,32,-6
1532493750243,-2,-1,-2,-3,-10,-9,4,0
1532493750248,-1,-1,-3,-3,-3,-3,-15,-3
1532493750253,0,-4,0,-3,-9,-34,0,-7
1532493750258,0,0,3,2,5,28,5,5
1532493750263,0,0,-1,-1,-4,0,19,3
1532493750268,1,-1,-1,-1,6,6,13,3
1532493750273,0,-1,1,1,-1,-8,-24,-6
1532493750278,-5,-3,-4,-4,-5,-1,-12,-3
1532493750283,1,1,4,1,1,0,4,-1
1532493750288,-1,-1,-2,1,2,-10,-5,3
1532493750293,-2,0,-2,-1,1,-14,-1,-1
1532493750298,-1,-1,-1,-2,-7,-6,-6,1
1532493750303,0,0,-1,1,0,8,10,2
1532493750308,-2,1,-1,1,4,-3,4,0
1532493750313,0,-1,2,0,-1,18,-1,-2
1532493750318,-2,-3,-2,-3,-4,-14,-2,-5
1532493750323,-2,0,-3,-1,-2,-14,-15,-5
1532493750328,-1,-1,-1,1,2,-3,0,-1
1532493750333,-1,0,-3,-1,-7,-25,0,-2
1532493750338,0,0,0,0,3,36,-4,-1
1532493750343,-1,0,1,0,-1,12,-2,2
1532493750348,-1,0,-1,-1,2,-12,19,-5
1532493750353,-1,0,2,-2,-3,5,-11,-4
1532493750358,-2,-2,-1,-2,-4,-24,5,1
1532493750363,0,-1,-1,-1,-3,-33,-18,-6
1532493750368,-1,-1,1,0,4,32,6,7
1532493750373,3,-2,0,2,-2,20,30,7
1532493750378,-3,-1,-2,-5,2,8,-12,-2
1532493750383,-1,-1,-5,-3,-4,-15,4,-1
1532493750388,-1,0,5,1,1,-17,-17,-4
1532493750393,-2,-4,-6,-2,0,2,-11,-1
1532493750398,2,1,2,2,0,-1,5,0
1532493750403,-1,1,-1,-1,1,2,0,-4
1532493750408,-1,-2,2,0,-4,2,-16,-1
1532493750413,0,0,0,0,3,-18,-11,16
1532493750418,-5,-3,-2,-1,-3,16,22,0
1532493750423,3,-1,-3,-4,2,2,-1,2
1532493750428,0,0,-2,1,-1,-12,1,-2
1532493750433,-1,0,-1,-2,-1,7,-18,-2
1532493750438,0,1,1,-1,-3,-27,1,-5
1532493750443,-2,-4,-1,1,5,14,-10,1
1532493750448,-2,0,-2,-5,-8,12,7,-2
1532493750453,0,-2,0,2,6,3,-21,-3
1532493750458,-2,-2,3,3,-3,-4,16,-5
1532493750463,0,-3,-9,-3,-4,10,49,13
1532493750468,-3,-2,0,-1,0,-15,-31,-7
1532493750473,-2,-1,-4,-3,0,14,-1,-5
1532493750478,2,-1,0,0,2,6,-8,2
1532493750483,-1,-2,2,-1,-3,-14,11,-3
1532493750488,-2,-3,-3,-1,-2,-21,-16,-2
1532493750493,-5,-1,0,-2,1,17,66,-10
1532493750498,2,0,-3,2,-1,-8,-23,-12
1532493750503,-1,1,-3,-2,1,8,-11,1
1532493750508,-1,4,-1,-1,0,21,28,5
1532493750513,8,-8,2,0,-3,-28,-9,0
1532493750518,0,-1,-2,-2,0,11,19,1
1532493750523,-1,-1,4,3,1,-6,3,-1
1532493750528,-1,0,-3,0,0,5,-5,-2
1532493750533,-2,-2,-4,-3,-3,-2,24,2
1532493750538,0,1,2,0,1,-1,7,3
1532493750543,0,1,2,1,3,11,-2,0
1532493750548,0,-1,0,1,2,-3,-27,4
1532493750553,-2,-1,-1,-2,-7,-1,-11,-1
1532493750558,-1,-2,3,1,-4,-24,-17,4
1532493750563,-2,-2,-3,-1,4,6,-7,-7
1532493750568,2,-2,-2,-5,-8,21,8,2
1532493750573,-2,1,1,1,-1,-20,1,-1
1532493750578,-3,0,-1,-2,0,-1,-61,-7
1532493750583,3,-1,1,0,0,0,16,-2
1532493750588,1,-1,-3,0,5,5,21,4
1532493750593,-3,-1,-2,-1,1,-2,-12,-3
1532493750598,-2,0,-4,-1,-4,8,15,2
1532493750603,-1,-1,-1,-1,1,-1,-29,1
1532493750608,1,-3,-1,-3,-6,0,2,-1
1532493750613,-2,2,2,1,-1,-11,-10,-1
1532493750618,1,-1,-4,0,1,17,6,3
1532493750623,-3,-1,0,-3,-3,-15,-24,-6
1532493750628,-2,-1,1,-3,-6,-26,28,-2
1532493750633,1,2,4,5,10,30,27,7
1532493750638,2,-1,1,-3,-1,11,-20,0
1532493750643,-2,-1,0,-2,-2,-5,-9,-3
1532493750648,-1,-1,0,-2,0,4,10,-1
1532493750653,-1,-2,-2,-2,-8,-26,-6,-9
1532493750658,0,-1,-1,-3,4,19,-3,4
1532493750663,-2,-2,1,0,-2,-4,35,1
1532493750668,0,-1,-1,0,-2,-6,21,2
1532493750673,-3,-1,-6,-3,-1,4,-39,-6
1532493750678,-1,0,-2,-3,-4,14,25,6
1532493750683,-2,-1,0,-2,-4,-12,-56,-13
1532493750688,-4,-2,1,-1,1,1,6,0
1532493750693,0,0,-1,0,1,-2,-47,-8
1532493750698,2,-1,1,2,1,2,21,7
1532493750703,-1,1,1,-1,-3,-6,3,3
1532493750708,-2,-1,-1,-2,2,-2,1,-11
1532493750713,1,-1,3,-1,1,23,-14,18
1532493750718,-1,2,-2,1,-5,-15,-22,-13
1532493750723,-3,-3,-1,-1,-4,-72,-41,5
1532493750728,5,4,4,6,11,33,27,-6
1532493750733,-6,-4,-4,-7,-17,-18,9,4
1532493750738,0,0,-2,-3,-4,5,3,4
1532493750743,1,1,0,0,2,21,14,-3
1532493750748,0,-3,-6,-3,-3,-7,-23,-2
1532493750753,0,-1,0,0,4,17,24,-3
1532493750758,-2,2,0,0,3,-18,-44,-9
1532493750763,-2,-1,-3,0,-8,-13,-20,-7
1532493750768,-2,0,1,2,8,10,13,7
1532493750773,-3,1,0,-3,-1,-2,13,-27
1532493750778,2,-1,3,-2,-8,10,-33,40
1532493750783,4,1,0,0,5,-35,39,2
1532493750788,-13,0,-2,0,0,11,-47,2
1532493750793,22,5,5,2,2,-5,5,0
1532493750798,-4,2,-1,1,3,14,15,-8
1532493750803,2,-9,-2,-4,-4,34,-6,-12
1532493750808,-6,3,-6,-3,-3,-7,8,3
1532493750813,-8,-3,-2,-2,3,2,25,4
1532493750818,7,0,-1,0,-8,-79,-19,-8
1532493750823,0,0,-2,-2,3,79,24,6
1532493750828,0,-3,2,0,-4,-41,2,5
1532493750833,-3,0,-4,1,2,12,25,2
1532493750838,-8,-2,-1,-2,-1,-18,20,-6
1532493750843,-5,1,-2,0,-2,3,-4,-5
1532493750848,6,-1,3,2,1,20,49,3
1532493750853,-1,-1,-1,-2,-1,25,5,3
1532493750858,-4,-6,-3,1,0,-29,14,-8
1532493750863,-3,0,-3,-3,-3,-16,3,-8
1532493750868,4,-2,-3,-3,-5,41,-54,-7
1532493750873,1,-2,0,-2,-6,-79,-18,3
1532493750878,-1,-3,-2,-1,-1,9,-15,-7
1532493750883,5,0,1,2,0,25,61,16
1532493750888,-2,-2,1,-1,7,21,28,-8
1532493750893,-5,0,-4,0,0,-27,-27,6
1532493750898,-4,-2,-4,-3,7,44,-15,4
1532493750903,-6,0,1,0,-4,-41,-41,-17
1532493750908,2,3,0,-1,-1,-1,-14,0
1532493750913,24,-1,2,5,9,25,15,10
1532493750918,-4,-2,1,0,-2,-4,1,-10
1532493750923,-1,-2,1,-2,-3,-8,49,6
1532493750928,-4,0,-4,-3,-3,-8,-55,6
1532493750933,-7,-1,-3,-3,-3,-10,-53,6
1532493750938,0,2,1,2,3,-4,-26,-20
1532493750943,3,-5,-3,-2,-1,10,-4,6
1532493750948,0,0,-1,-2,-4,-15,7,2
1532493750953,-6,-1,-2,-2,-3,-1,6,-6
1532493750958,1,1,4,1,2,8,11,-6
1532493750963,-7,0,0,8,12,-7,-20,-19
1532493750968,1,-3,-1,-1,-11,-28,-11,13
1532493750973,2,0,-4,-3,-14,-1,20,11
1532493750978,-4,-1,-8,-6,1,3,29,-7
1532493750983,-2,-3,-5,-1,3,-3,20,-3
1532493750988,-3,-5,-1,-1,0,22,-44,-8
1532493750993,-6,0,3,1,0,-12,-6,-12
1532493750998,7,-1,-1,4,-6,-7,-1,23
1532493751003,1,1,-4,-9,-9,-4,-20,3
1532493751008,0,1,0,0,5,-14,12,-2
1532493751013,-5,0,-1,1,0,-2,-4,-13
1532493751018,-3,-2,-1,-5,-13,-14,9,-1
1532493751023,3,3,6,12,1,37,8,0
1532493751028,-2,-1,-8,-17,-28,-32,14,-1
1532493751033,-4,0,-1,-9,10,-5,-33,-7
1532493751038,4,-2,2,0,12,66,32,-2
1532493751043,-3,0,0,-1,9,-55,16,5
1532493751048,-5,-4,0,3,-5,47,15,-9
1532493751053,-7,0,2,2,-5,-37,-51,-26
1532493751058,6,0,-2,-6,8,30,29,10
1532493751063,0,1,2,2,-11,-15,-1,9
1532493751068,3,0,-3,2,4,-11,3,-6
1532493751073,-7,-9,-7,2,2,-16,3,-5
1532493751078,-7,-1,-2,0,-3,26,18,-13
1532493751083,0,-8,-9,-5,-3,5,-26,-4
1532493751088,2,5,1,-2,3,-18,-7,-5
1532493751093,0,-3,0,2,-5,21,33,7
1532493751098,-2,-1,0,4,-1,-21,-27,-2
1532493751103,0,0,-3,-3,3,5,-1,3
1532493751108,0,-1,2,-2,6,17,-5,1
1532493751113,-1,1,0,0,8,22,-14,2
1532493751118,0,-1,1,0,-9,-25,-7,5
1532493751123,1,1,0,-2,-1,18,2,5
1532493751128,-1,-2,-1,1,-2,-17,1,-5
1532493751133,-3,1,-1,-1,-7,8,14,-3
1532493751138,0,-1,0,2,7,-21,-14,4
1532493751143,2,2,-1,-4,-8,22,-36,1
1532493751148,2,3,7,4,8,-1,8,3
1532493751153,-1,-2,-7,-6,-2,4,8,0
1532493751158,-3,-2,-5,-8,-8,-11,-1,-2
1532493751163,3,0,2,1,7,14,5,7
1532493751168,0,-2,1,4,0,-13,6,-1
1532493751173,1,-1,-1,-2,-1,19,14,4
1532493751178,-5,-3,-11,-7,-8,-15,-5,-2
1532493751183,-1,0,2,-4,-2,-2,0,-5
1532493751188,-1,-2,-1,-3,-4,-13,-24,-9
1532493751193,3,2,2,3,7,11,54,5
1532493751198,0,1,-2,0,5,3,53,9
1532493751203,4,7,3,1,5,5,12,1
1532493751208,-2,-1,2,-1,-19,-12,3,14
1532493751213,0,-2,2,3,4,6,-5,-4
1532493751218,-3,-1,-3,-2,-1,-8,-10,-5
1532493751223,-5,-3,-3,-5,1,4,-12,-20
1532493751228,0,-3,-6,-1,6,-2,13,17
1532493751233,2,-1,4,4,3,5,4,2
1532493751238,0,3,11,7,17,-4,-12,2
1532493751243,1,2,5,0,-20,0,10,1
1532493751248,2,1,-2,-4,-4,11,-5,-6
1532493751253,-5,1,0,-2,-4,-7,8,3
1532493751258,-3,1,-5,-2,-3,-4,-4,-5
1532493751263,-2,-5,2,3,4,-1,-7,3
1532493751268,-1,-2,-1,5,5,0,4,-4
1532493751273,2,-9,-10,-10,-7,1,-1,2
1532493751278,-3,-1,-1,-9,-13,-7,-2,-9
1532493751283,3,3,8,0,-3,-5,-5,3
1532493751288,-1,-2,-7,4,3,-1,0,6
1532493751293,2,1,3,7,7,10,10,11
1532493751298,5,6,5,4,11,4,-8,1
1532493751303,-3,-4,-5,-8,-15,-10,-1,-1
1532493751308,-7,-1,-3,-5,-6,-7,1,-39
1532493751313,0,3,8,3,3,2,3,25
1532493751318,-6,-2,-4,-3,-13,-1,-5,-5
1532493751323,2,-1,1,5,23,7,0,6
1532493751328,6,4,-7,-2,4,2,2,-7
1532493751333,-4,-1,-9,-7,-14,-9,2,-15
1532493751338,2,-2,3,0,-10,5,-6,-2
1532493751343,-7,-3,-4,-2,12,-11,0,-1
1532493751348,-4,-3,3,-2,-8,-9,-4,-4
1532493751353,1,0,-5,1,1,13,5,1
1532493751358,0,-1,19,-1,4,-1,-5,2
1532493751363,1,-2,-27,-1,0,9,-2,1
1532493751368,1,-1,-2,-2,-3,-10,-1,2
1532493751373,-1,-5,-5,-2,7,-9,1,2
1532493751378,-5,-3,-5,-4,-4,-19,-1,-16
1532493751383,-1,2,4,-2,2,19,0,-6
1532493751388,3,4,10,7,18,3,0,15
1532493751393,0,1,7,4,-3,-15,-5,-7
1532493751398,-1,-5,-18,-8,-7,11,-3,-11
1532493751403,6,-1,9,1,4,-2,3,30
1532493751408,-10,-6,-2,-4,-9,-3,3,-1
1532493751413,3,4,5,0,-8,10,-2,-1
1532493751418,2,0,-5,0,5,-16,-2,2
1532493751423,-5,2,0,-1,-4,5,-2,-14
1532493751428,2,-5,0,-3,-1,0,-8,8
1532493751433,-11,-2,-3,-1,-3,1,-24,-23
1532493751438,0,-2,-10,-6,-14,-1,0,13
1532493751443,8,1,0,0,-6,6,-5,5
1532493751448,-1,2,5,5,11,-20,10,6
1532493751453,-4,-1,0,1,9,1,-7,-14
1532493751458,0,1,-5,-9,-6,7,2,-5
1532493751463,1,0,2,-4,2,-1,1,7
1532493751468,3,2,4,2,-2,10,0,-7
1532493751473,-2,-3,-7,-7,-7,-10,16,8
1532493751478,0,0,4,5,5,17,-22,-4
1532493751483,-3,-8,1,2,-1,-12,21,-7
1532493751488,-3,0,-6,-5,-9,-3,-9,-6
1532493751493,3,-2,-6,-1,13,24,19,-6
1532493751498,0,-5,7,2,-3,2,-14,13
1532493751503,-4,0,-4,-7,-7,-5,8,-11
1532493751508,0,-20,3,3,1,1,8,-2
1532493751513,-3,16,3,1,2,-10,-11,-7
1532493751518,-4,-8,-9,1,-5,0,4,-31
1532493751523,1,-1,-4,-2,1,4,22,30
1532493751528,3,2,0,3,3,-15,37,11
1532493751533,-5,-1,-1,-4,-8,2,-17,-5
1532493751538,0,2,-8,0,9,10,-6,-5
1532493751543,-9,-44,-8,-1,-5,-26,-9,-24
1532493751548,-1,41,0,-3,-5,1,-8,6
1532493751553,5,2,4,4,11,-5,-3,2
1532493751558,-3,7,-1,5,-8,12,-3,-9
1532493751563,0,6,-3,-2,10,16,-7,21
1532493751568,3,-15,-6,-2,1,15,-1,-3
1532493751573,0,6,2,3,5,78,3,6
1532493751578,-2,-4,0,-2,2,-73,-28,1
1532493751583,-6,-11,0,4,-9,-5,43,-34
1532493751588,0,10,-2,-2,-5,-14,-13,31
1532493751593,0,3,2,-3,-4,-8,9,-12
1532493751598,2,-6,4,3,10,33,19,17
1532493751603,-2,10,8,-4,-12,-10,-56,-12
1532493751608,0,-1,-6,-1,9,-3,13,-11
1532493751613,1,-5,0,1,4,18,73,25
1532493751618,-2,-3,-2,-2,-4,7,3,-5
1532493751623,-2,11,1,6,9,-23,-15,10
1532493751628,-1,-2,3,-1,-1,31,-6,-6
1532493751633,-1,-7,-3,-3,-10,-15,-10,3
1532493751638,-1,4,-4,-4,2,-23,8,-3
1532493751643,0,13,-3,-3,-4,4,4,-4
1532493751648,-3,-9,-4,-2,-2,-23,-5,-4
1532493751653,-3,-6,-2,0,-6,-7,-20,-9
1532493751658,1,-2,-4,3,-4,4,10,10
1532493751663,3,4,-2,-2,-14,26,-6,-1
1532493751668,-6,-8,-6,-11,8,-44,-16,-6
1532493751673,-1,-6,-5,-4,5,-16,-10,5
1532493751678,4,2,6,2,-12,14,8,3
1532493751683,1,-8,-2,5,11,2,1,6
1532493751688,-4,-1,-6,0,-10,31,-8,-16
1532493751693,-3,-5,1,4,5,-28,-5,-9
1532493751698,0,-6,-1,-4,-3,-5,-4,9
1532493751703,0,-4,-4,-5,-9,-1,1,-6
1532493751708,-2,-1,-5,-9,16,88,6,0
1532493751713,0,2,-6,-6,18,-50,2,6
1532493751718,-1,-3,-1,-4,-23,-58,5,-2
1532493751723,-1,1,1,2,8,-26,-14,-4
1532493751728,-1,-2,4,10,11,0,3,0
1532493751733,1,-1,0,1,2,61,0,-1
1532493751738,-2,-3,-2,-2,0,20,2,-2
1532493751743,2,-4,-3,-2,8,-33,-5,1
1532493751748,-1,-4,8,5,-22,18,3,1
1532493751753,-2,-1,-12,-12,-8,4,-20,1
1532493751758,-2,-3,0,1,-1,-3,9,-4
1532493751763,1,1,1,3,0,0,3,5
1532493751768,-1,1,2,-17,-40,-21,7,2
1532493751773,0,4,7,11,26,-57,-10,-13
1532493751778,2,0,6,11,18,65,0,6
1532493751783,-3,-5,-13,-27,-55,-15,-22,-2
1532493751788,1,-1,-2,7,24,23,16,8
1532493751793,-1,0,3,-2,-26,-50,18,-5
1532493751798,0,0,-2,5,66,13,-16,-3
1532493751803,0,3,2,-5,-29,27,-14,-4
1532493751808,-1,-1,-2,5,30,-69,-12,-5
1532493751813,1,0,1,2,9,87,10,8
1532493751818,1,0,4,-4,-36,-53,-12,-5
1532493751823,-2,-3,-4,-8,7,26,33,-4
1532493751828,0,1,-4,-5,-15,-15,8,0
1532493751833,-2,-1,-2,5,20,17,0,-2
1532493751838,-2,-5,-5,-3,-29,1,4,1
1532493751843,1,0,0,5,19,-4,-19,2
1532493751848,-1,3,2,-7,-12,-42,-19,-4
1532493751853,4,2,5,2,3,24,28,4
1532493751858,-4,0,0,-2,-3,-72,-23,-3
1532493751863,-6,-1,-3,5,13,53,2,-1
1532493751868,-10,-7,8,-3,10,45,4,1
1532493751873,6,9,-13,-6,-10,-68,-34,-5
1532493751878,-1,2,3,5,-11,-44,5,-4
1532493751883,6,1,-2,9,12,4,13,2
1532493751888,-11,-3,-3,1,8,16,-1,-5
1532493751893,-7,-5,-2,-19,-20,-23,-18,-2
1532493751898,3,-5,-9,-12,-19,71,11,-5
1532493751903,-8,2,5,6,20,-101,-11,-1
1532493751908,4,3,-2,11,25,43,5,-1
1532493751913,2,0,8,15,31,34,4,2
1532493751918,-1,-4,-7,-11,-29,64,9,2
1532493751923,2,0,-1,-2,-22,-74,-12,2
1532493751928,4,1,-6,-9,-6,-14,1,1
1532493751933,0,-4,2,20,30,-20,3,-7
1532493751938,-4,3,7,8,16,7,3,5
1532493751943,-3,-7,-4,-10,-17,51,1,-1
1532493751948,2,-1,-11,-21,-10,6,15,-1
1532493751953,-5,-2,-3,-10,7,-2,-4,-2
1532493751958,-1,-1,5,8,-12,21,-8,-7
1532493751963,3,3,8,21,9,-1,-5,12
1532493751968,0,0,-5,-5,-31,-103,-8,-3
1532493751973,-6,-3,9,-11,19,65,7,-11
1532493751978,1,-1,-27,-5,-1,-19,0,8
1532493751983,6,-7,13,6,26,30,-4,-1
1532493751988,-1,9,9,18,12,-22,-4,5
1532493751993,1,-1,3,2,-37,55,5,2
1532493751998,-2,7,6,-4,1,-32,0,-8
1532493752003,-3,-6,-11,-10,0,30,12,4
1532493752008,-5,-8,-12,-6,-12,-7,-14,-12
1532493752013,-4,0,3,-9,-23,-20,-5,-1
1532493752018,0,-4,5,2,12,-5,4,-8
1532493752023,-2,3,-4,-1,-10,-35,0,4
1532493752028,2,1,8,10,17,78,7,5
1532493752033,-1,-2,-7,-1,-6,4,4,-1
1532493752038,1,-5,2,2,1,-6,7,5
1532493752043,-3,7,-1,-3,-1,-22,-22,-21
1532493752048,-1,-5,-6,-7,-10,-35,12,-9
1532493752053,-1,-5,-3,1,4,0,0,8
1532493752058,12,4,6,9,-6,23,2,15
1532493752063,-2,1,0,-5,-7,-2,-2,0
1532493752068,-7,-7,1,0,11,34,17,-11
1532493752073,-10,-4,-7,-7,-35,-22,-18,-29
1532493752078,9,-3,2,-7,8,-18,12,35
1532493752083,11,4,0,5,11,16,1,-1
1532493752088,3,-2,5,9,-2,3,-4,7
1532493752093,-6,-6,-8,1,3,-5,0,-13
1532493752098,-11,3,-8,-15,-12,-15,-14,-21
1532493752103,0,-1,2,0,-6,21,21,13
1532493752108,7,3,4,0,14,4,-14,13
1532493752113,1,1,2,1,-4,-13,-5,4
1532493752118,-6,-3,3,0,-3,34,-4,-22
1532493752123,-6,-1,-5,0,6,-53,4,-5
1532493752128,-3,0,-9,-3,-4,-9,-8,7
1532493752133,12,3,3,1,-2,-1,6,20
1532493752138,-1,-9,-28,1,0,2,-5,-5
1532493752143,-14,6,42,-1,9,28,-5,-8
1532493752148,18,7,-18,-8,-20,-11,-16,-9
1532493752153,-3,2,11,1,0,14,20,4
1532493752158,0,-2,-23,-1,2,-12,5,-16
1532493752163,2,-1,-4,0,0,14,2,26
1532493752168,-9,-5,-6,-1,4,-8,-3,8
1532493752173,7,8,5,-7,-9,7,6,13
1532493752178,-2,1,9,2,3,-13,-17,-16
1532493752183,-3,-4,-9,-2,-2,12,9,-4
1532493752188,-5,-2,6,-1,7,0,0,-4
1532493752193,7,-1,-4,3,-4,6,-9,19
1532493752198,-2,1,10,-5,-11,-15,-3,6
1532493752203,1,-1,-9,-2,-3,-10,3,-18
1532493752208,-6,-3,5,1,1,-11,-5,-13
1532493752213,-1,-2,-4,0,8,-4,0,15
1532493752218,1,0,4,-2,4,6,-4,9
1532493752223,5,2,6,3,9,29,12,12
1532493752228,-5,-5,-3,-2,-3,-7,-7,-7
1532493752233,-4,-2,3,6,3,-1,2,-17
1532493752238,1,-1,-5,-2,2,-7,-10,-5
1532493752243,1,1,-6,2,28,12,8,2
1532493752248,0,1,2,-4,-17,-52,-11,4
1532493752253,-5,-4,-4,-7,-7,35,-23,-11
1532493752258,1,3,11,8,11,-1,20,9
1532493752263,-5,-5,-14,-5,-4,-20,-11,-20
1532493752268,0,0,-1,-1,10,31,5,-1
1532493752273,1,0,2,5,18,-19,-4,9
1532493752278,7,5,15,-1,-9,31,-4,17
1532493752283,-4,-7,-5,2,-11,-45,-4,-14
1532493752288,-11,-3,-17,-6,-7,-8,-8,-36
1532493752293,10,-1,-4,1,-7,-5,11,70
1532493752298,7,21,12,5,17,10,-13,-4
1532493752303,3,-22,-7,-7,-12,-4,8,10
1532493752308,3,3,10,3,3,60,-3,4
1532493752313,-11,-6,17,8,17,15,36,-32
1532493752318,-6,-3,-27,-12,-9,-2,-5,-5
1532493752323,-7,-3,-5,-3,-13,3,-10,2
1532493752328,0,12,9,11,-18,0,8,5
1532493752333,-5,-14,-6,-7,-1,3,-11,-25
1532493752338,-5,-12,-12,-13,-3,-12,10,22
1532493752343,3,-1,-12,-5,-4,0,-7,-4
1532493752348,-1,-5,14,2,10,-8,8,-6
1532493752353,-2,4,-8,1,0,26,-11,-1
1532493752358,1,2,12,7,-11,27,11,2
1532493752363,-2,1,-12,-8,-7,-34,-15,-12
1532493752368,-11,-13,-2,0,6,-14,-3,-15
1532493752373,0,8,5,2,3,21,-10,-7
1532493752378,5,-1,6,5,4,0,23,19
1532493752383,-2,-1,-3,-1,32,22,-14,-4
1532493752388,-3,-9,2,-4,-38,-21,6,-1
1532493752393,1,23,-11,-8,-13,-4,5,5
1532493752398,-5,-18,-2,-1,-1,-7,-6,-23
1532493752403,-4,6,13,5,0,-12,-6,-26
1532493752408,3,-33,-2,-2,7,0,3,50
1532493752413,9,6,10,5,2,8,-1,-3
1532493752418,-2,8,3,6,4,-14,-5,1
1532493752423,-11,-9,13,2,-6,9,13,-4
1532493752428,10,10,-27,-8,0,-12,-4,-17
1532493752433,-3,-4,-8,4,4,2,5,11
1532493752438,1,3,11,0,-9,5,0,-7
1532493752443,-2,-4,-2,-6,-14,-59,-32,-2
1532493752448,-6,3,2,3,7,58,5,-9
1532493752453,-2,-30,-2,2,3,-13,-2,7
1532493752458,0,34,-2,3,10,4,-1,-5
1532493752463,0,0,-11,-10,-18,-28,-13,-4
1532493752468,-3,-2,10,3,12,16,16,-5
1532493752473,6,9,9,3,9,5,25,7
1532493752478,-2,-16,-1,4,25,1,-3,4
1532493752483,3,5,-13,-5,-43,-6,-4,8
1532493752488,-3,-2,4,0,9,-14,-18,-17
1532493752493,-3,23,12,1,-1,-7,17,0
1532493752498,2,-31,2,4,11,16,-18,5
1532493752503,-1,3,-11,-2,3,-30,9,-19
1532493752508,-5,1,-9,-5,-15,-25,-2,5
1532493752513,3,14,5,-2,-6,5,-1,6
1532493752518,-2,-30,-6,-7,-14,1,7,10
1532493752523,11,35,3,5,17,41,-2,-10
1532493752528,-7,-10,8,-1,-6,-37,-6,-1
1532493752533,0,-8,-4,-5,-14,-7,5,5
1532493752538,-1,31,5,-1,0,17,-27,-10
1532493752543,-2,-20,-7,1,1,15,7,-5
1532493752548,-9,-14,-9,-2,8,-14,-1,-3
1532493752553,9,15,7,-1,-9,4,3,-2
1532493752558,-3,-15,-10,-12,-7,-6,3,1
1532493752563,-6,-6,-5,-2,-5,-5,4,7
1532493752568,1,8,1,-7,-9,-4,-16,-12
1532493752573,-5,-12,-2,3,6,1,-10,-3
1532493752578,1,4,2,6,4,10,-9,2
1532493752583,-1,-10,-3,-5,-1,25,26,2
1532493752588,-3,13,-2,-4,-17,-30,-4,-4
1532493752593,-2,-16,-9,-5,-4,26,4,-2
1532493752598,3,11,2,4,1,-8,2,4
1532493752603,-1,6,7,8,13,10,9,3
1532493752608,3,-10,-7,-5,-2,9,0,1
1532493752613,-4,-2,-4,-4,0,-1,-5,-4
1532493752618,-5,3,-5,-7,-18,-40,-20,-15
1532493752623,4,-2,1,3,14,13,-35,13
1532493752628,3,2,2,4,2,27,89,8
1532493752633,-4,-3,-3,-2,3,-8,-35,-11
1532493752638,-3,6,1,2,-6,-23,9,-1
1532493752643,2,-8,-1,2,18,9,-2,4
1532493752648,1,2,-3,-1,-5,-10,-22,4
1532493752653,-1,2,1,0,2,3,-3,3
1532493752658,2,-6,-4,-7,3,32,44,10
1532493752663,-2,-1,4,7,1,-11,-26,-6
1532493752668,-3,0,-4,-8,-13,-21,-22,-7
1532493752673,-4,-6,0,0,-8,-32,-9,-14
1532493752678,5,3,-1,6,26,48,8,11
1532493752683,5,-1,6,10,15,6,22,28
1532493752688,-1,2,-1,-8,-30,26,-30,0
1532493752693,3,-3,-1,-4,3,-40,17,4
1532493752698,-8,-4,-6,-10,-19,-12,-7,-17
1532493752703,-5,-2,-4,-5,-4,2,14,-6
1532493752708,-2,-4,1,8,24,-6,-10,-13
1532493752713,3,1,1,5,6,26,2,18
1532493752718,2,2,3,0,-11,4,-9,-3
1532493752723,-1,2,-2,-4,-15,-42,-10,-3
1532493752728,0,-5,3,7,19,-15,-3,2
1532493752733,-3,-2,-1,3,-14,18,-5,-15
1532493752738,0,-1,-3,-4,-4,-8,3,7
1532493752743,-3,-5,-2,-6,-6,9,-1,-5
1532493752748,-2,-1,0,-1,-14,-18,-3,-6
1532493752753,-3,-5,-7,-11,-4,6,1,-1
1532493752758,2,2,3,2,7,3,-2,2
1532493752763,-2,-1,-3,0,-15,-21,8,8
1532493752768,2,11,2,-1,8,11,5,3
1532493752773,0,2,3,9,10,27,-22,-8
1532493752778,-2,11,-2,-3,-11,-21,15,-6
1532493752783,-1,-20,-4,1,5,15,16,0
1532493752788,-3,5,-1,-2,-3,-12,-6,-7
1532493752793,1,2,-3,-4,3,-15,3,3
1532493752798,-7,-18,-5,-14,-12,-18,-19,-6
1532493752803,2,11,-2,-1,7,5,0,-6
1532493752808,5,-5,2,5,-13,28,1,5
1532493752813,-2,7,-2,3,13,0,-3,-4
1532493752818,2,-4,3,-1,-20,-23,1,1
1532493752823,-1,0,-1,2,5,28,14,3
1532493752828,-3,-4,-3,-6,-2,-8,-19,-12
1532493752833,0,-7,3,8,10,-5,-6,10
1532493752838,2,13,2,7,5,-9,12,1
1532493752843,-2,-8,-2,-7,-7,3,1,-5
1532493752848,-1,-1,-4,-1,5,4,-4,-2
1532493752853,0,15,5,2,-4,-10,19,-11
1532493752858,0,-18,-23,-10,-7,1,-14,6
1532493752863,-5,-1,1,-1,-9,-6,-6,-14
1532493752868,1,-5,1,1,9,-7,0,22
1532493752873,-1,2,1,-4,-8,8,-10,3
1532493752878,-1,0,6,6,12,-5,11,-5
1532493752883,0,1,-3,-1,-3,-5,-12,-8
1532493752888,-2,0,0,-2,-1,9,5,-9
1532493752893,-3,1,-4,-14,-13,-5,-2,8
1532493752898,-2,-35,-5,-2,-2,0,-4,2
1532493752903,3,41,4,-2,-1,0,5,-2
1532493752908,0,0,2,3,3,-6,5,-7
1532493752913,1,8,-3,-2,-2,14,4,13
1532493752918,-3,-7,-1,-7,-2,1,-7,-5
1532493752923,-3,-12,-2,0,-2,-6,-18,-3
1532493752928,-1,2,3,7,9,9,30,5
1532493752933,0,-11,-3,-3,10,-16,-8,1
1532493752938,-1,11,2,4,0,2,-6,-5
1532493752943,-1,-7,0,-6,-14,-6,3,6
1532493752948,1,7,0,-1,7,4,-13,1
1532493752953,-3,-10,-3,2,0,2,3,-8
1532493752958,0,11,1,6,13,24,20,4
1532493752963,-1,2,4,5,3,-8,-13,-6
1532493752968,2,-12,-7,-5,-4,0,5,-4
1532493752973,0,-1,10,-4,-1,-6,1,-2
1532493752978,-1,0,-18,-4,-12,-12,-8,2
1532493752983,-1,-2,1,-6,3,7,4,2
1532493752988,-2,1,3,10,3,12,-5,-5
1532493752993,3,-5,-4,4,-17,-6,5,16
1532493752998,-1,11,-6,-13,8,-4,-5,-12
1532493753003,-1,-11,-9,-8,-16,-5,1,-8
1532493753008,-3,3,15,-4,1,0,-10,14
1532493753013,4,-1,5,10,6,0,-8,-9
1532493753018,1,2,3,-1,0,-10,-9,-3
1532493753023,-6,-4,-4,-7,-3,-5,11,-8
1532493753028,-5,-2,-2,-4,-10,-11,-40,-7
1532493753033,3,5,9,16,10,11,56,5
1532493753038,-3,-3,-2,-5,-6,-2,-13,-6
1532493753043,-7,-5,-2,-3,7,11,14,0
1532493753048,3,14,-5,-6,-9,-8,-9,5
1532493753053,-5,-13,-3,-17,-14,-18,-21,-3
1532493753058,1,-1,4,12,9,2,-8,2
1532493753063,1,-1,1,4,3,-8,4,-11
1532493753068,-6,4,8,7,10,15,25,2
1532493753073,-2,-1,-4,-4,-19,-21,-16,-6
1532493753078,5,-3,-5,-5,1,12,7,20
1532493753083,-2,3,-8,-12,-13,-9,-15,-11
1532493753088,4,-4,7,13,16,12,12,18
1532493753093,-8,1,-13,4,7,0,-7,-10
1532493753098,2,-2,-2,-4,3,-4,7,-5
1532493753103,0,2,0,-3,-18,-3,-1,19
1532493753108,0,-3,-2,-9,-6,-5,3,-7
1532493753113,-16,3,3,5,5,1,-14,-3
1532493753118,18,-5,-15,5,7,0,2,-7
1532493753123,-5,7,2,-4,3,2,16,1
1532493753128,7,-1,6,-8,-14,-12,-28,13
1532493753133,-1,1,8,-2,6,10,34,2
1532493753138,-9,-1,1,3,2,3,-7,-2
1532493753143,-4,-2,3,10,11,2,-15,-12
1532493753148,-3,-8,-7,3,-3,-9,-6,-17
1532493753153,11,5,-2,-7,-2,10,0,11
1532493753158,-14,-5,-4,-7,-8,-1,0,-7
1532493753163,3,-6,-2,-3,-7,-8,-5,0
1532493753168,-13,-1,2,6,6,0,0,-10
1532493753173,5,-2,6,2,0,-16,-19,2
1532493753178,9,6,-5,-1,-1,6,2,12
1532493753183,-7,-11,-3,-10,-14,-14,-38,-12
1532493753188,-3,0,1,-2,1,12,69,1
1532493753193,2,2,3,7,8,-2,-22,-12
1532493753198,-6,-1,11,2,1,-3,18,-6
1532493753203,1,1,-4,7,8,-6,-8,-14
1532493753208,5,1,0,6,-4,5,-19,2
1532493753213,1,-3,-6,-14,-12,8,-2,-2
1532493753218,-5,1,3,1,3,-2,14,-3
1532493753223,6,2,3,7,2,3,-4,-6
1532493753228,-2,-2,-15,-18,-10,-8,2,-2
1532493753233,-4,0,3,-1,-3,-2,-13,0
1532493753238,1,-1,0,-3,-11,-11,-16,0
1532493753243,4,0,5,8,14,14,18,2
1532493753248,-8,-4,-3,0,1,-1,20,0
1532493753253,4,4,1,4,-9,-12,0,12
1532493753258,5,0,-8,-8,-1,-1,-12,-5
1532493753263,-3,-2,-1,-1,-4,-6,9,-14
1532493753268,5,2,15,10,7,0,-3,-2
1532493753273,-5,-4,-4,-3,3,1,-7,-17
1532493753278,-3,-6,-11,-7,-6,-3,9,-11
1532493753283,-3,-3,-4,-5,-5,-12,-5,-9
1532493753288,1,2,3,4,8,14,26,-4
1532493753293,1,-3,-1,1,-5,-8,-21,24
1532493753298,3,3,2,4,7,5,-4,13
1532493753303,-1,-1,-7,-17,-16,-7,-29,6
1532493753308,0,-5,-6,-5,-2,-9,-7,3
1532493753313,-1,0,7,7,2,2,15,-13
1532493753318,-2,0,3,3,3,2,15,15
1532493753323,0,1,2,11,10,8,22,-1
1532493753328,0,-3,-11,-18,-9,-14,-8,7
1532493753333,0,0,6,5,1,2,-1,-5
1532493753338,2,1,5,2,0,6,41,17
1532493753343,5,0,1,2,4,7,-3,-5
1532493753348,-5,2,0,4,3,-10,-31,-8
1532493753353,1,-6,-10,-5,0,-2,0,-1
1532493753358,-9,-3,-2,-13,-4,2,-22,-4
1532493753363,1,1,3,2,-4,0,-1,21
1532493753368,4,1,2,5,10,15,-28,0
1532493753373,0,-4,-4,-3,-5,3,12,3
1532493753378,-4,-1,3,3,3,-6,-5,-8
1532493753383,-4,-3,-6,-3,7,0,-25,-1
1532493753388,-2,0,1,0,-12,-3,8,3
1532493753393,-1,2,3,7,5,-8,-44,6
1532493753398,0,-3,-1,2,1,-4,-1,2
1532493753403,-1,-1,-2,-4,-3,1,4,8
1532493753408,-1,-2,-2,-2,0,0,-3,-1
1532493753413,-3,0,1,-4,2,6,23,-14
1532493753418,-2,-2,-3,-3,-9,-4,7,-21
1532493753423,2,-1,-1,-3,0,2,9,11
1532493753428,0,0,0,0,1,-1,1,-5
1532493753433,-2,0,-1,-3,-4,-8,20,-7
1532493753438,5,3,2,4,5,-1,-13,28
1532493753443,-4,-1,-2,0,-2,-2,16,-12
1532493753448,2,-2,-4,-3,-4,1,9,8
1532493753453,-2,-2,-2,-3,-2,-4,-34,-10
1532493753458,0,1,4,4,9,8,19,4
1532493753463,-1,-2,3,12,13,4,-1,1
1532493753468,-4,-3,-7,-14,-21,-17,2,8
1532493753473,-4,-1,-1,-1,-3,2,-11,-6
1532493753478,-1,-6,0,-5,-5,-3,3,-11
1532493753483,3,1,1,-1,7,9,9,7
1532493753488,-1,0,6,8,14,10,-17,-15
1532493753493,1,1,-2,8,2,0,13,8
1532493753498,-3,3,-2,-3,-12,-21,-10,-17
1532493753503,0,7,14,-16,-15,-4,10,4
1532493753508,-1,-19,-1,-3,2,4,6,7
1532493753513,-1,-3,-17,-7,3,2,14,2
1532493753518,0,1,-2,9,9,4,-1,-1
1532493753523,-3,-1,6,2,-9,-7,0,-9
1532493753528,-2,7,1,0,-3,-3,1,-1
1532493753533,2,-11,21,1,0,6,3,9
1532493753538,-1,8,0,-3,-6,-3,-20,-10
1532493753543,1,2,0,-4,0,-2,-2,3
1532493753548,3,4,26,9,9,6,1,-1
1532493753553,-1,-4,-29,-2,-3,-3,-1,1
1532493753558,-3,-1,10,-5,-6,-3,-4,-2
1532493753563,-2,-3,-3,0,-1,5,-3,0
1532493753568,0,-4,-16,-3,-7,-6,5,-6
1532493753573,-2,8,21,3,7,1,-5,2
1532493753578,-2,-4,-2,-3,-14,-5,-1,-4
1532493753583,-4,-5,-20,-7,1,-4,-1,6
1532493753588,-3,1,-1,-1,-4,-4,-5,-6
1532493753593,3,2,-12,-1,0,4,10,7
1532493753598,1,-2,21,5,3,2,2,2
1532493753603,-3,-5,-1,-3,1,4,1,-5
1532493753608,-3,-2,-23,4,-8,-3,0,8
1532493753613,0,-3,2,-5,2,-3,0,13
1532493753618,-3,-8,13,-3,6,-4,-2,3
1532493753623,-2,0,-48,-4,-3,0,-2,3
1532493753628,-1,0,-14,-8,-5,0,-4,4
1532493753633,0,-4,1,0,3,-7,-6,3
1532493753638,-2,-5,-21,-7,-15,-4,-60,-2
1532493753643,1,7,25,4,5,2,-72,4
1532493753648,0,-8,-12,-3,-14,-5,-35,13
1532493753653,-2,-1,-8,1,-5,-4,4,4
1532493753658,-1,3,-6,-2,6,4,32,-3
1532493753663,-1,0,10,4,0,-8,42,2
1532493753668,-1,0,-1,-5,7,19,55,-1
1532493753673,3,1,14,-3,-9,-4,24,20
1532493753678,0,1,-6,1,1,8,25,8
1532493753683,1,-5,-6,-1,-10,-11,22,16
1532493753688,-2,2,10,6,9,-4,14,-17
1532493753693,-3,1,4,-4,-2,1,16,-7
1532493753698,0,0,-6,1,4,4,7,-11
1532493753703,-2,-4,-4,1,0,-3,-3,-27
1532493753708,0,-2,7,-1,3,4,-12,-17
1532493753713,0,3,-2,-4,-5,0,-36,-19
1532493753718,-3,-2,-3,4,4,4,-18,-16
1532493753723,1,-5,-4,0,4,6,2,8
1532493753728,2,1,1,-3,-5,-12,9,4
1532493753733,-1,-3,-5,-3,-5,0,5,7
1532493753738,1,-3,49,7,7,2,10,-14
1532493753743,-1,4,-17,-4,-4,4,4,-17
1532493753748,-1,4,10,1,4,-17,-13,-15
1532493753753,-2,-2,-8,0,4,3,9,-19
1532493753758,-1,0,-2,-1,-4,-6,0,-2
1532493753763,-1,-4,-8,-5,-3,14,13,-10
1532493753768,2,1,-4,-6,-8,-12,-14,6
1532493753773,1,0,12,4,3,5,12,9
1532493753778,0,-3,-20,2,7,14,9,10
1532493753783,1,2,11,7,0,1,-1,2
1532493753788,-1,6,5,-1,3,4,-3,-7
1532493753793,-2,-10,-40,-10,-8,-9,-8,8
1532493753798,-4,0,-8,-2,1,-9,3,-2
1532493753803,2,-1,3,1,-6,4,11,4
1532493753808,0,4,14,4,2,-4,-1,-9
1532493753813,-1,4,3,1,1,-9,2,-23
1532493753818,1,-2,-17,-8,-11,-14,-50,8
1532493753823,-3,-3,4,-9,-3,17,41,-10
1532493753828,-1,0,3,-2,-7,-9,-10,2
1532493753833,-1,-1,3,5,-1,-5,-15,-10
1532493753838,-1,-2,-10,3,-2,-13,-1,1
1532493753843,-3,-1,7,-2,-1,-28,-23,-2
1532493753848,-3,-2,-3,-1,4,14,0,-10
1532493753853,0,1,5,-3,0,18,5,14
1532493753858,2,1,5,1,1,0,1,12
1532493753863,-2,-3,-1,-3,0,-3,-10,2
1532493753868,-2,-2,-8,0,-6,2,7,4
1532493753873,0,0,10,-1,2,-7,-10,-7
1532493753878,-2,0,-5,0,1,15,8,-8
1532493753883,-2,-2,6,3,-6,-15,-11,4
1532493753888,2,-2,-5,0,5,-1,-5,15
1532493753893,-2,0,7,3,-9,-9,28,2
1532493753898,-1,-4,-9,-4,4,26,9,6
1532493753903,-4,0,-6,0,-3,3,-6,-9
1532493753908,0,4,0,-2,0,-14,-6,-4
1532493753913,0,-8,-5,-2,0,18,13,4
1532493753918,1,2,-1,-3,-1,-10,-18,0
1532493753923,-2,2,1,0,4,2,-2,-15
1532493753928,1,-2,-4,5,7,12,3,22
1532493753933,2,3,-4,-2,0,-9,-13,5
1532493753938,-2,-1,-4,-3,-6,5,10,-4
1532493753943,0,-1,5,-2,-1,-7,-6,3
1532493753948,-2,2,2,4,1,4,10,-2
1532493753953,1,-6,-2,1,12,0,-3,-4
1532493753958,-4,-4,-2,-11,-20,-8,-1,-5
1532493753963,2,-1,1,1,-3,-3,3,15
1532493753968,1,-2,-7,-1,4,0,2,-1
1532493753973,-4,8,3,6,1,-3,-10,-11
1532493753978,-2,-13,-3,2,7,-8,2,-5
1532493753983,-1,0,2,-6,-5,0,1,5
1532493753988,4,-1,5,-2,-7,3,-13,-3
1532493753993,0,1,8,0,9,14,13,8
1532493753998,-3,0,-7,0,-9,-20,4,-5
1532493754003,-1,3,2,2,0,1,-9,-8
1532493754008,-4,-2,2,2,4,5,4,-9
1532493754013,-1,-4,-2,-11,-6,-5,-13,5
1532493754018,4,4,0,-9,-18,2,17,2
1532493754023,-1,-4,-2,2,14,1,-6,4
1532493754028,-3,-1,-1,-1,-4,-9,5,-11
1532493754033,-4,-1,-1,4,2,10,-12,-11
1532493754038,-1,2,-4,-2,4,-6,-6,3
1532493754043,-1,0,-3,-2,-3,11,22,-1
1532493754048,3,4,1,1,5,1,-22,6
1532493754053,0,4,-3,-4,-3,-12,-5,-11
1532493754058,-1,-8,-1,2,5,-3,-3,-6
1532493754063,3,0,-1,2,-3,0,-2,23
1532493754068,-1,-4,-6,-9,-4,-3,-3,-3
1532493754073,1,1,4,-1,-6,10,-3,2
1532493754078,0,7,4,2,3,-16,10,-4
1532493754083,-2,-1,6,2,2,4,-6,-8
1532493754088,-2,-8,-12,-1,-3,-3,6,3
1532493754093,-4,-2,0,-5,-5,-2,-7,-13
1532493754098,-1,0,-2,-5,-2,5,-13,4
1532493754103,4,7,-6,3,2,-2,10,5
1532493754108,-2,-2,0,1,2,3,12,-21
1532493754113,0,-5,-4,-1,3,12,1,16
1532493754118,-1,-2,2,-4,-4,-13,-1,-9
1532493754123,-1,-1,5,1,-4,-21,1,2
1532493754128,2,3,-9,6,6,26,6,3
1532493754133,-2,-6,-1,4,1,-12,-12,-15
1532493754138,0,-5,-6,-14,-10,-1,7,1
1532493754143,0,0,2,6,18,6,-7,3
1532493754148,-1,-1,1,-9,-24,-12,3,2
1532493754153,0,-4,-2,3,4,2,-12,-13
1532493754158,-1,1,4,1,0,1,11,-3
1532493754163,6,0,-9,-2,3,7,14,26
1532493754168,0,-2,2,1,5,1,-45,0
1532493754173,3,9,-7,-1,1,9,47,6
1532493754178,-5,-42,-30,5,2,-6,-8,-13
1532493754183,-5,7,57,-8,-13,-6,4,-10
1532493754188,0,31,-14,1,5,1,1,2
1532493754193,0,-45,-11,-2,-5,-8,-12,7
1532493754198,-1,16,-7,3,9,1,-3,9
1532493754203,-2,-2,-6,2,-4,4,4,3
1532493754208,1,-2,2,1,0,-6,0,4
1532493754213,0,32,17,-9,-5,-6,-6,-14
1532493754218,-1,-16,13,1,1,6,7,-2
1532493754223,-2,-8,-19,3,1,-2,-5,3
1532493754228,-1,10,21,3,6,0,13,-13
1532493754233,-4,-22,-18,0,-1,-1,-5,2
1532493754238,3,5,12,-3,-2,11,-7,6
1532493754243,-1,2,-24,0,-6,-12,-7,-5
1532493754248,-2,0,3,-1,1,-13,2,-1
1532493754253,-2,-24,-15,-4,-1,3,-7,-9
1532493754258,-4,8,8,-1,-3,-7,-25,6
1532493754263,2,9,-5,5,3,16,28,2
1532493754268,-1,-16,-6,-1,6,11,3,5
1532493754273,-1,5,-3,-4,-14,-15,-6,0
1532493754278,-1,20,6,-1,-1,3,0,-6
1532493754283,-2,-7,-4,-3,-9,-8,-8,-8
1532493754288,-6,-49,-22,1,8,-1,-2,0
1532493754293,4,42,29,1,0,6,4,-3
1532493754298,-1,2,19,-2,1,21,27,16
1532493754303,5,3,-18,-6,-6,-12,-7,5
1532493754308,-9,13,-1,-3,-10,-4,-7,-6
1532493754313,-6,-17,-4,3,7,10,-14,-7
1532493754318,0,-8,9,1,-5,-21,-16,-9
1532493754323,-2,2,10,-1,3,27,47,8
1532493754328,3,-3,-9,1,0,-28,-4,-1
1532493754333,-2,-7,-10,-4,-3,-12,-18,-6
1532493754338,2,13,0,4,4,11,1,8
1532493754343,-5,-16,-5,-1,-2,3,-19,-13
1532493754348,-1,4,3,-5,-4,0,13,-7
1532493754353,2,2,3,0,1,0,13,14
1532493754358,0,-13,-17,-2,-1,1,4,-8
1532493754363,-2,7,1,3,0,6,-15,-9
1532493754368,6,-2,13,-2,-1,7,-1,27
1532493754373,4,8,1,1,3,4,-13,13
1532493754378,-3,5,-3,-5,-6,8,7,-3
1532493754383,3,-6,5,-1,-1,-23,-16,-7
1532493754388,-6,3,-2,-2,-5,-59,-20,-9
1532493754393,0,-6,6,0,-8,28,30,0
1532493754398,-3,-3,-22,-4,3,-4,-8,-9
1532493754403,-9,-9,3,5,8,33,21,4
1532493754408,14,11,-2,-3,-7,-4,-25,2
1532493754413,-7,-1,-5,-2,-3,-53,-32,-10
1532493754418,8,2,5,1,6,26,23,3
1532493754423,-2,-5,-6,-5,-4,9,-40,1
1532493754428,-5,5,1,0,2,-1,21,-5
1532493754433,2,-13,-3,1,5,-4,7,-2
1532493754438,-5,1,-3,1,-7,-4,-6,-2
1532493754443,1,-1,0,-2,-1,-22,-3,5
1532493754448,0,-4,-1,0,-4,18,-25,-3
1532493754453,0,3,4,-1,2,8,22,-5
1532493754458,-4,-4,-3,0,-2,5,14,4
1532493754463,3,2,-1,-1,-1,-20,-4,3
1532493754468,-1,-4,1,1,-2,2,-13,-11
1532493754473,-4,2,-5,-2,0,-5,14,-1
1532493754478,-2,10,4,-3,-4,-14,-28,-2
1532493754483,0,-10,0,0,-2,3,1,-4
1532493754488,-2,-2,0,1,4,5,11,4
1532493754493,1,-3,-1,3,9,9,-7,-1
1532493754498,0,5,2,-2,-10,-19,19,-2
1532493754503,-1,3,1,-1,4,-3,1,-1
1532493754508,-2,-6,0,0,8,24,2,7
1532493754513,-2,5,-1,-3,-8,-15,-38,-14
1532493754518,1,-3,0,0,-1,13,-1,5
1532493754523,-5,-2,-4,2,-3,-4,4,-18
1532493754528,4,0,0,0,3,21,12,6
1532493754533,0,4,2,1,10,1,-11,5
1532493754538,-2,-5,-2,-2,-7,-6,22,-11
1532493754543,0,-1,-2,-3,6,-34,-24,-3
1532493754548,-2,0,-4,-13,-44,7,25,5
1532493754553,-3,-3,1,0,10,6,10,-11
1532493754558,0,-3,0,2,4,18,-17,1
1532493754563,4,3,0,0,15,15,23,9
1532493754568,-2,-2,2,4,9,-16,-9,-6
1532493754573,3,2,-1,-1,-3,18,14,7
1532493754578,0,-5,-4,0,5,-14,15,0
1532493754583,1,3,1,-1,-1,-12,-47,4
1532493754588,1,0,2,7,44,46,39,-1
1532493754593,0,-1,3,2,-51,-5,-3,-2
1532493754598,-4,-2,-7,-2,5,-4,-22,-2
1532493754603,0,0,-2,-7,-10,-7,0,-6
1532493754608,0,-2,-3,-6,-28,12,5,7
1532493754613,2,1,2,4,7,-36,13,5
1532493754618,1,-1,1,2,18,9,-13,3
1532493754623,-2,-3,-3,1,17,28,23,0
1532493754628,-3,-1,0,2,-2,4,-18,-6
1532493754633,-3,-1,-1,0,-13,-23,13,-13
1532493754638,4,-1,0,-1,3,0,-25,11
1532493754643,1,-1,2,1,10,13,14,10
1532493754648,-1,0,-2,-2,12,-11,-5,0
1532493754653,-1,-1,-4,-4,16,-4,-16,0
1532493754658,-2,-1,2,2,-18,-19,-10,-7
1532493754663,-2,1,3,1,-6,-3,17,-4
1532493754668,-1,-2,-5,-3,-3,7,8,4
1532493754673,-5,-3,-8,-15,-19,-14,-10,-5
1532493754678,-1,0,-5,-3,0,0,19,-6
1532493754683,1,3,1,1,-6,9,23,7
1532493754688,1,-2,2,3,0,-10,-9,-1
1532493754693,1,-2,-1,2,11,25,-9,13
1532493754698,2,-1,5,7,5,0,14,-7
1532493754703,-1,11,-1,-3,-4,-2,-1,-1
1532493754708,-2,-14,-7,-7,-12,-17,-13,-8
1532493754713,-3,-1,-1,-4,7,6,-17,-6
1532493754718,-4,-1,-1,1,-4,0,20,-2
1532493754723,-2,-2,1,4,0,-6,-19,-15
1532493754728,2,5,3,0,6,0,-20,14
1532493754733,0,-1,-4,-3,-13,2,22,-2
1532493754738,-3,-1,-1,-1,0,-25,-6,2
1532493754743,-1,-3,-2,1,-3,11,11,-5
1532493754748,-3,3,-2,-4,-2,-2,12,-2
1532493754753,3,-1,0,-4,-5,-3,-5,8
1532493754758,-1,0,0,-3,7,17,-20,-18
1532493754763,1,1,2,5,-1,-18,-7,14
1532493754768,0,-1,0,4,7,-6,16,-5
1532493754773,-3,0,-2,-1,7,-2,0,-3
1532493754778,-2,-3,-2,-4,-12,-10,-20,-10
1532493754783,3,-2,-1,-3,-9,19,7,27
1532493754788,-1,0,5,4,3,-8,-11,-13
1532493754793,2,2,-3,0,6,6,-8,3
1532493754798,-3,-3,-1,-4,-10,-9,-6,3
1532493754803,-1,-6,-5,-3,-3,-1,-12,-14
1532493754808,-2,1,-1,-1,-6,-18,-15,2
1532493754813,0,-1,2,3,5,14,-9,3
1532493754818,1,0,2,5,9,1,20,0
1532493754823,-4,-3,-6,-9,-1,-4,-28,3
1532493754828,1,-1,0,-4,-7,8,-12,1
1532493754833,5,1,1,-2,-2,28,35,9
1532493754838,0,1,2,1,9,-8,-4,7
1532493754843,-2,-3,1,1,-32,-11,-10,-10
1532493754848,-1,0,-2,3,12,10,8,-5
1532493754853,-4,-2,-2,-1,3,-10,-23,-9
1532493754858,-1,0,-1,-4,-5,14,-7,-5
1532493754863,0,-1,0,0,2,4,16,2
1532493754868,-3,0,0,-1,-3,-8,-2,-11
1532493754873,2,0,1,4,1,1,-4,19
1532493754878,2,-1,-4,-6,-8,-8,-8,1
1532493754883,-1,-1,0,0,5,0,-12,-8
1532493754888,-1,-2,-2,-3,0,3,28,-5
1532493754893,-4,0,0,3,3,-10,-17,-13
1532493754898,0,0,3,6,-2,3,9,5
1532493754903,-1,-2,-1,-5,2,-5,-2,-8
1532493754908,0,-1,3,1,0,-2,-16,-11
1532493754913,2,-2,-7,-8,-13,11,15,9
1532493754918,-2,-1,-2,-5,0,-15,2,1
1532493754923,-1,0,0,2,-3,-1,0,-3
1532493754928,-2,-1,-5,-2,5,0,-6,1
1532493754933,-3,-1,1,0,-4,-1,8,-9
1532493754938,-1,-1,-1,-4,0,-5,-14,-2
1532493754943,0,-2,0,-2,-8,10,13,2
1532493754948,2,1,1,1,4,1,10,9
1532493754953,-2,-2,2,0,2,-8,-9,-4
1532493754958,-1,-2,-5,-3,-6,4,-9,-3
1532493754963,-2,0,2,0,6,-12,-10,-10
1532493754968,0,0,-3,-1,-7,2,-2,4
1532493754973,-1,-1,0,-1,1,-1,-3,-6
1532493754978,2,1,-2,-2,0,10,14,8
1532493754983,0,-2,-2,1,-4,-1,1,2
1532493754988,1,-1,-2,-2,1,-3,-1,4
1532493754993,-3,-3,-4,-6,-3,3,10,-8
1532493754998,-3,-1,0,1,-1,-11,-7,-3
1532493755003,-1,-1,0,1,3,-2,-10,-7
1532493755008,1,0,2,1,-9,-9,14,7
1532493755013,-1,1,-1,-3,-2,8,-9,-3
1532493755018,-1,-3,-5,-3,-1,6,19,1
1532493755023,-1,-2,0,-2,-8,-1,-10,-12
1532493755028,0,1,-1,2,8,-3,13,4
1532493755033,-2,0,0,2,0,-7,-7,-1
1532493755038,-1,-2,-1,-1,0,-15,-21,-12
1532493755043,5,1,-2,-2,3,25,70,15
1532493755048,-1,-1,0,0,-2,-3,-9,-1
1532493755053,-1,0,-1,-1,2,-1,-3,-12
1532493755058,0,1,2,3,-1,3,-5,5
1532493755063,-1,0,1,1,6,-4,17,9
1532493755068,-3,-1,-7,-10,-8,0,-9,-6
1532493755073,0,-1,-1,1,2,0,5,-4
1532493755078,-2,-2,-1,-2,-1,-3,-14,3
1532493755083,2,-2,0,-4,-10,-13,-8,16
1532493755088,-1,-2,0,1,0,2,0,5
1532493755093,-2,-2,-2,-2,1,2,18,-5
1532493755098,0,1,3,6,7,-25,-1,1
1532493755103,-1,-1,-9,-9,-9,14,-23,0
1532493755108,-2,-3,10,-4,-6,6,43,-3
1532493755113,-2,0,-13,-3,2,2,-15,1
1532493755118,-3,-2,2,-1,2,4,-5,-6
1532493755123,1,2,2,7,9,-4,1,4
1532493755128,0,-1,-4,-4,-8,-9,-28,-6
1532493755133,0,-1,5,0,1,2,9,4
1532493755138,0,-2,-1,-3,-5,1,8,5
1532493755143,-3,-1,-1,-1,0,-2,-32,-17
1532493755148,1,3,2,7,8,5,6,6
1532493755153,2,2,4,7,1,-9,-14,6
1532493755158,2,-1,-6,-4,-2,19,21,-17
1532493755163,-2,-3,-4,-7,2,-14,-2,17
1532493755168,-1,-1,-3,-2,-7,1,11,-5
1532493755173,0,1,4,4,7,19,2,0
1532493755178,-2,0,3,4,0,7,20,-1
1532493755183,-2,-2,-3,-4,3,-2,-7,-9
1532493755188,-1,-2,-4,0,-8,-8,-10,3
1532493755193,-1,-3,-4,-8,-12,-21,-13,-4
1532493755198,-3,0,-3,-4,-2,0,-4,-10
1532493755203,0,-1,-1,-3,-7,8,20,2
1532493755208,-1,-1,-3,-5,-4,-1,-8,0
1532493755213,-2,0,-1,2,5,-1,-14,-8
1532493755218,3,1,0,1,-7,10,25,24
1532493755223,0,2,2,3,1,-16,8,-6
1532493755228,-1,-1,0,3,8,10,11,3
1532493755233,-5,-3,-4,-6,-5,-9,5,-18
1532493755238,1,-2,-7,-5,-4,4,9,18
1532493755243,-4,-2,0,-5,-6,7,-1,-9
1532493755248,-2,-2,-2,1,1,-10,-2,-16
1532493755253,2,0,3,-1,-2,-14,-11,1
1532493755258,1,0,-2,2,3,1,-23,-5
1532493755263,-1,-3,-4,-1,-7,-1,12,3
1532493755268,-1,-1,-4,-5,8,16,-19,-13
1532493755273,-3,0,-1,-6,-14,-14,15,-2
1532493755278,1,1,-2,3,1,5,17,-7
1532493755283,0,-1,-1,-1,1,-4,-16,0
1532493755288,1,-1,-2,0,5,1,-17,4
1532493755293,2,3,6,4,-2,6,5,5
1532493755298,-3,-1,-4,-2,-5,-5,-14,-2
1532493755303,-1,-3,-4,-2,-7,-11,-18,-15
1532493755308,1,0,0,1,-5,-4,-15,-2
1532493755313,3,-3,-4,-6,5,8,-9,21
1532493755318,-1,0,-1,-1,-3,1,1,2
1532493755323,-4,0,1,-1,5,8,-15,-10
1532493755328,-1,2,0,0,1,-2,27,11
1532493755333,-1,2,1,2,2,-1,21,-5
1532493755338,2,-2,-1,1,0,3,-3,6
1532493755343,-1,2,1,4,6,7,20,2
1532493755348,1,-4,-1,-4,-2,-20,1,-5
1532493755353,-4,-1,-3,-4,0,6,-1,-7
1532493755358,0,-1,-3,-3,-3,2,3,2
1532493755363,2,1,0,2,5,11,15,7
1532493755368,-4,0,5,9,2,-1,15,-3
1532493755373,0,-5,-12,-13,-17,-8,3,18
1532493755378,0,3,1,0,2,-2,8,-11
1532493755383,1,-1,-1,-3,-4,-29,-51,14
1532493755388,0,0,2,3,1,8,25,2
1532493755393,0,1,0,1,7,13,-9,1
1532493755398,-2,-3,5,-1,0,-1,-18,-1
1532493755403,1,-1,-9,-2,-5,4,13,0
1532493755408,-4,-1,-4,-2,1,1,-16,-6
1532493755413,-2,-2,1,2,1,-7,-7,3
1532493755418,0,1,-1,-1,2,-9,6,-9
1532493755423,3,1,3,2,4,7,12,15
1532493755428,-1,-2,-3,-2,-6,-6,-6,-5
1532493755433,-1,-1,3,2,4,0,3,1
1532493755438,-2,-3,-2,0,3,-1,0,2
1532493755443,-6,-2,-3,-3,-3,-2,-1,-9
1532493755448,1,-2,-4,-2,-1,-1,-10,1
1532493755453,0,2,5,4,3,4,3,12
1532493755458,-2,-3,-4,-3,-3,-10,-19,-11
1532493755463,-1,-1,-5,-4,-1,-4,8,-1
1532493755468,-3,-2,-3,-5,-6,6,-13,-5
1532493755473,4,0,1,3,4,2,10,2
1532493755478,-1,1,-1,4,3,3,-3,6
1532493755483,0,-1,1,-2,-3,0,2,2
1532493755488,-4,-1,-1,-4,-8,-9,8,-8
1532493755493,0,0,1,1,3,1,-2,-4
1532493755498,-1,-1,-4,-1,-2,0,9,3
1532493755503,0,0,7,1,3,5,4,-4
1532493755508,2,2,-12,-1,2,0,4,4
1532493755513,-3,0,6,-2,-6,-5,-3,-12
1532493755518,-2,-1,-9,-7,-2,-2,-7,0
1532493755523,-2,0,27,0,-4,-3,7,-8
1532493755528,4,-3,-40,-1,1,-1,-11,16
1532493755533,-1,1,26,4,4,-5,-9,-4
1532493755538,0,-1,15,2,-6,4,11,-1
1532493755543,0,-2,-24,-2,0,8,14,1
1532493755548,1,4,23,-2,1,5,0,-2
1532493755553,-1,-6,-30,0,4,0,-14,-5
1532493755558,-1,1,13,-2,-2,-8,20,4
1532493755563,1,1,4,4,2,-6,-11,-8
1532493755568,-2,-4,5,0,-7,-2,13,-6
1532493755573,-1,0,2,-1,2,0,-7,-1
1532493755578,-1,-3,7,-2,-6,-13,-14,4
1532493755583,0,-3,-44,-6,-2,3,11,-6
1532493755588,-6,-3,4,-4,1,-5,-1,3
1532493755593,2,0,15,0,-2,-1,-3,4
1532493755598,-1,-3,-16,5,3,5,-8,1
1532493755603,1,2,18,5,3,0,2,23
1532493755608,0,-3,-12,-6,-3,8,-6,22
1532493755613,-4,-3,-10,-9,-11,-6,15,9
1532493755618,-3,-2,2,-4,-6,-5,-14,3
1532493755623,0,-1,-6,1,1,2,13,28
1532493755628,1,3,11,5,9,-15,-8,0
1532493755633,1,-1,-5,1,-13,13,3,13
1532493755638,1,1,-12,-2,4,5,18,-16
1532493755643,-3,-2,6,-6,-5,-12,-38,-23
1532493755648,-1,-1,1,-1,0,7,6,-9
1532493755653,-5,0,-2,1,0,-8,-12,-13
1532493755658,0,-2,4,4,7,1,3,9
1532493755663,-6,-3,-4,-5,-3,5,-8,-14
1532493755668,2,0,5,1,-3,-2,3,16
1532493755673,-1,0,-7,-4,2,0,-24,-6
1532493755678,-2,-1,-1,-1,0,2,-20,-6
1532493755683,1,-1,-3,-2,-1,-4,-5,-1
1532493755688,0,-2,1,6,2,2,-5,-12
1532493755693,-3,-3,15,0,-4,-5,10,-12
1532493755698,1,0,-8,-3,0,-5,9,3
1532493755703,1,2,-1,-4,-8,10,-8,-15
1532493755708,-5,-3,-6,0,-10,-5,18,-22
1532493755713,1,-1,0,1,3,1,1,2
1532493755718,-1,0,5,3,9,7,20,-13
1532493755723,-2,1,10,0,-10,-13,32,-5
1532493755728,-1,-1,-2,-1,1,2,18,-17
1532493755733,-1,-1,-15,-4,-12,6,17,-11
1532493755738,-2,-3,-11,-4,-3,5,7,-3
1532493755743,0,-1,2,5,5,-4,0,3
1532493755748,-1,1,10,-4,-2,-10,-8,2
1532493755753,-3,-1,-1,1,-2,3,31,0
1532493755758,1,1,-10,-5,-11,-7,-9,-9
1532493755763,-1,-4,0,2,-1,4,12,-1
1532493755768,1,1,-2,-9,-4,-3,-12,-11
1532493755773,-2,-1,-19,0,7,1,-11,-2
1532493755778,-1,2,13,0,0,3,-15,8
1532493755783,-1,-2,6,6,4,-5,-5,2
1532493755788,-2,3,-13,1,0,4,6,0
1532493755793,3,2,3,-7,11,-7,-6,33
1532493755798,-2,-2,-2,-3,-14,1,-2,-2
1532493755803,2,1,4,-1,0,-6,-12,-4
1532493755808,0,-1,0,3,3,2,6,-8
1532493755813,0,-2,-4,2,3,2,11,-14
1532493755818,0,-3,-3,-3,1,-14,2,-8
1532493755823,-1,-1,-3,-4,1,-6,0,-1
1532493755828,-1,2,2,1,-2,-2,4,-6
1532493755833,1,-1,-4,2,5,12,13,-6
1532493755838,1,3,6,3,7,4,5,7
1532493755843,0,-1,1,-3,-3,-2,-9,-8
1532493755848,-2,-3,34,0,-3,-1,-1,10
1532493755853,-2,-1,-39,-3,-3,-10,-8,1
1532493755858,-1,-1,-4,3,4,0,-10,-2
1532493755863,0,-2,-5,4,12,15,-4,-3
1532493755868,1,-2,-4,-4,-9,-5,-7,8
1532493755873,0,-2,8,-4,-10,-8,-5,0
1532493755878,-3,2,5,-3,-3,1,0,-8
1532493755883,-2,0,8,3,-2,-4,-4,7
1532493755888,0,0,-4,4,14,6,2,1
1532493755893,0,-1,12,5,-4,2,-9,-7
1532493755898,2,-1,-8,-4,-4,-5,-8,5
1532493755903,0,4,41,4,1,0,1,-5
1532493755908,-2,-2,-48,1,-1,7,9,-2
1532493755913,0,-2,-4,-3,-3,-9,0,-6
1532493755918,-2,-1,-3,-3,-2,-10,-2,7
1532493755923,-3,-1,4,0,7,7,3,-6
1532493755928,1,2,5,-2,-13,-2,-11,7
1532493755933,1,0,1,0,8,-4,3,-3
1532493755938,-1,-1,11,-2,-5,5,-5,-6
1532493755943,-3,-5,-19,-1,2,-5,-8,7
1532493755948,-1,-1,12,0,1,4,1,1
1532493755953,-1,-2,-6,0,-5,-5,14,-3
1532493755958,1,2,6,2,4,10,1,-2
1532493755963,-2,-3,14,5,3,-12,-13,-2
1532493755968,0,3,-25,-2,2,-2,-1,0
1532493755973,-1,-5,6,-2,1,-25,-2,1
1532493755978,-2,-2,-10,-5,-8,8,-6,-1
1532493755983,-4,-1,2,-4,-6,-9,-47,-14
1532493755988,1,0,10,5,12,45,87,13
1532493755993,-2,2,-3,2,0,-2,-10,-4
1532493755998,1,-2,-7,-2,5,-9,-8,1
1532493756003,-4,-2,-11,-5,-7,2,-2,-8
1532493756008,1,-5,10,-5,-7,-19,-29,8
1532493756013,1,1,-7,-6,-4,1,1,-2
1532493756018,-1,-1,-4,7,5,5,11,5
1532493756023,0,-1,-3,1,3,-3,3,-10
1532493756028,-3,1,5,0,0,-3,-18,-7
1532493756033,-1,3,4,0,0,12,23,1
1532493756038,1,-6,-5,-3,-5,-2,-21,-1
1532493756043,-1,-1,-3,0,2,-6,1,17
1532493756048,1,-1,4,0,-1,-18,16,3
1532493756053,-2,-4,3,1,9,27,9,-2
1532493756058,-3,1,-1,-3,-13,4,-2,-10
1532493756063,2,0,-7,-4,-1,-4,4,-3
1532493756068,-1,-3,5,-4,-1,3,-17,-2
1532493756073,-1,-1,-2,-1,-6,-4,4,2
1532493756078,-1,-2,-2,1,4,-7,-4,4
1532493756083,3,1,4,1,1,6,12,3
1532493756088,-1,-1,-1,-3,-2,-6,-15,-7
1532493756093,-1,-1,-5,-3,1,-4,-17,-5
1532493756098,-1,0,-5,1,-3,3,5,-2
1532493756103,1,0,-3,2,5,4,20,2
1532493756108,-3,-3,3,-3,0,-1,-11,0
1532493756113,-1,0,-8,-2,-6,-4,-6,0
1532493756118,-1,-1,4,-1,-1,-10,-28,-2
1532493756123,-1,2,13,-1,2,-5,13,-4
1532493756128,-1,-3,-7,-2,-1,14,2,-9
1532493756133,4,0,10,3,0,-2,6,16
1532493756138,0,-2,-13,-2,2,-2,-1,1
1532493756143,-2,-2,-4,-5,-5,-11,-20,-6
1532493756148,4,1,5,3,3,10,26,6
1532493756153,-3,2,4,-6,-1,-7,-1,-10
1532493756158,-2,-3,2,1,-4,-10,-3,-8
1532493756163,1,-7,-43,1,-2,4,8,13
1532493756168,0,3,34,-5,1,-6,-21,8
1532493756173,2,-2,-2,0,-2,5,5,0
1532493756178,0,2,-1,-2,-2,7,5,-1
1532493756183,-3,-5,5,-2,-7,-17,-11,-11
1532493756188,-3,-1,-13,0,-7,-19,-10,-5
1532493756193,1,1,-4,2,10,17,18,4
1532493756198,-2,-2,4,0,4,-4,-8,-7
1532493756203,-2,3,3,-1,1,17,9,7
1532493756208,-3,-4,-13,-1,-4,13,-12,-4
1532493756213,-1,0,3,-2,-4,-34,3,-1
1532493756218,-2,9,-2,-2,3,-3,8,0
1532493756223,1,-7,4,0,0,-6,-17,2
1532493756228,-2,-8,-7,-1,0,1,12,1
1532493756233,-3,-6,-5,1,-4,13,-4,-15
1532493756238,0,2,2,-2,0,-4,3,14
1532493756243,0,4,1,-1,-3,2,-10,-5
1532493756248,1,2,3,-4,-1,-10,5,1
1532493756253,-1,3,4,0,4,8,-8,-1
1532493756258,-1,-11,-11,1,-1,-5,-14,-7
1532493756263,-1,0,5,-3,-1,15,22,5
1532493756268,0,0,-13,-1,-2,-25,-17,-5
1532493756273,1,-3,-4,0,4,20,25,17
1532493756278,1,2,0,-1,3,6,-13,-2
1532493756283,-1,1,7,0,0,-13,2,-4
1532493756288,-2,-2,1,1,-1,7,3,-5
1532493756293,-1,3,0,0,-6,-18,-6,1
1532493756298,0,-3,-1,-4,-1,-7,4,0
1532493756303,-2,0,-3,-6,-8,2,8,-3
1532493756308,0,6,2,3,1,-1,-3,2
1532493756313,-3,-1,8,-1,-3,-3,-16,-1
1532493756318,-2,-9,-2,3,2,7,11,-15
1532493756323,1,3,6,6,3,2,-2,20
1532493756328,4,0,-8,-3,-3,-13,-18,20
1532493756333,-2,-1,-1,-5,-6,2,4,-8
1532493756338,3,3,5,3,4,11,39,12
1532493756343,-5,1,-3,3,4,9,12,-19
1532493756348,-2,-2,5,3,0,4,-5,-5
1532493756353,-1,-4,-4,-2,-2,-9,-20,3
1532493756358,1,0,-1,-3,-3,14,8,-6
1532493756363,-1,-1,-2,0,-2,-19,-9,-1
1532493756368,-1,4,0,1,-2,-16,-4,-3
1532493756373,-1,-8,-11,-1,-2,12,16,-4
1532493756378,-4,-1,-10,1,0,-25,-34,-4
1532493756383,1,-1,18,-2,5,29,25,0
1532493756388,-3,4,8,-2,-1,15,5,-5
1532493756393,0,-2,0,-1,-1,-11,-12,-1
1532493756398,-1,-3,-4,1,0,-1,-2,-1
1532493756403,-2,-4,-11,-5,-5,-11,-18,6
1532493756408,1,6,-10,-2,-3,-5,1,-15
1532493756413,0,-7,1,2,2,-4,3,3
1532493756418,-1,16,-4,-2,-3,4,4,1
1532493756423,-1,3,9,2,0,3,-1,-3
1532493756428,-1,-7,4,-2,0,12,-8,0
1532493756433,3,17,-15,4,6,20,17,-1
1532493756438,-1,-18,23,-1,-3,-26,4,3
1532493756443,-2,2,-10,1,-2,-1,-8,-10
1532493756448,-1,-2,40,-6,-4,3,5,8
1532493756453,-3,0,-53,0,3,-2,-15,-12
1532493756458,3,-3,-14,-1,-10,-4,2,14
1532493756463,-2,4,21,-4,2,7,-1,2
1532493756468,-4,-5,3,0,0,-3,-4,-16
1532493756473,-2,0,13,0,-1,-7,-5,13
1532493756478,-1,14,-2,-3,0,3,-6,-10
1532493756483,-1,-16,-11,-4,-3,-7,-8,-16
1532493756488,0,0,-12,0,1,10,27,14
1532493756493,-1,-1,12,-2,-9,-6,-5,-7
1532493756498,-2,-10,3,1,6,8,8,2
1532493756503,1,3,-5,1,0,-5,-15,-5
1532493756508,-2,-5,6,-3,-3,9,0,-3
1532493756513,-5,-20,-38,-2,-3,-17,0,2
1532493756518,-2,0,39,0,-4,-23,-8,0
1532493756523,-2,23,-40,-1,-1,8,-14,-2
1532493756528,-1,-1,-1,2,1,8,9,1
1532493756533,4,11,21,1,0,-2,-2,-1
1532493756538,-5,-12,-9,-6,-4,-7,12,-5
1532493756543,-1,-13,-6,-1,1,2,7,8
1532493756548,-1,12,-9,0,-2,-16,-17,-2
1532493756553,2,-26,-6,-4,-4,12,-9,5
1532493756558,-21,-1,-5,-2,1,-4,-10,-14
1532493756563,17,3,16,-1,-4,-11,-1,5
1532493756568,2,-3,-15,0,0,14,10,-2
1532493756573,-1,-4,23,0,-4,-10,1,-7
1532493756578,-12,25,28,-1,1,1,-12,-2
1532493756583,19,-7,7,7,6,17,25,11
1532493756588,-5,0,0,2,-3,-8,-8,-7
1532493756593,-7,-17,0,-4,-5,-1,-22,3
1532493756598,16,31,-12,3,1,29,32,7
1532493756603,-13,-23,5,-5,-3,-18,-5,-5
1532493756608,5,-1,0,3,3,-11,-2,5
1532493756613,-7,-10,47,0,3,6,4,-3
1532493756618,5,7,-57,-5,-3,7,-19,0
1532493756623,-5,0,13,-1,-2,-26,-14,0
1532493756628,1,0,-25,-3,0,11,34,4
1532493756633,-1,11,-1,0,3,-5,-12,-8
1532493756638,0,-22,-22,-1,2,3,11,4
1532493756643,-4,21,0,-1,-2,-17,4,-1
1532493756648,-4,-48,-2,-4,3,15,-3,5
1532493756653,2,31,-15,0,1,23,7,2
1532493756658,3,-5,14,4,-1,-16,-11,-5
1532493756663,-8,-22,-16,-1,-5,-2,-3,-5
1532493756668,2,15,15,3,2,6,-7,2
1532493756673,-3,-8,-1,-2,-2,-4,-2,-3
1532493756678,4,3,8,-2,0,-4,-3,-3
1532493756683,-5,-5,6,-2,0,11,11,-2
1532493756688,-38,-22,-8,-6,-8,-20,-15,-3
1532493756693,49,19,5,3,11,21,16,14
1532493756698,-8,-23,-7,-1,-3,-17,-5,4
1532493756703,2,-18,27,-4,-7,-11,-12,0
1532493756708,-6,50,10,1,2,15,-16,-12
1532493756713,-12,11,-10,-1,-4,2,9,9
1532493756718,3,-10,5,-1,-2,1,-1,5
1532493756723,-3,10,3,3,5,10,-6,-13
1532493756728,15,-1,-6,-3,-2,-17,-4,14
1532493756733,-6,-5,8,1,-2,1,6,5
1532493756738,4,-2,-1,1,2,-5,-18,-7
1532493756743,-6,3,-4,-3,-13,19,13,-1
1532493756748,1,-3,-4,-1,-2,-21,-22,-16
1532493756753,-1,7,-8,-1,-1,-9,18,-3
1532493756758,-6,-7,3,-1,3,17,1,1
1532493756763,-2,12,-16,-3,-3,-29,-17,-6
1532493756768,7,-10,-3,-3,-6,7,10,1
1532493756773,-6,-2,0,0,4,22,0,-5
1532493756778,1,3,1,-2,-3,-8,-2,1
1532493756783,-2,-4,-2,1,4,10,1,-2
1532493756788,5,3,1,2,-2,-3,-13,-2
1532493756793,-4,-6,3,-1,6,16,31,1
1532493756798,-1,2,-1,-4,-10,-34,-21,-5
1532493756803,0,7,-8,1,2,13,34,4
1532493756808,-5,-9,-6,-2,0,3,-13,-4
1532493756813,-6,0,-5,0,-2,-33,-18,-12
1532493756818,4,1,3,-1,-2,56,5,6
1532493756823,2,1,-4,-3,-6,-12,2,6
1532493756828,4,5,-1,1,6,3,9,0
1532493756833,-5,-9,0,-2,-8,9,-2,-12
1532493756838,4,0,3,0,1,-22,2,6
1532493756843,-2,1,0,-1,5,3,5,8
1532493756848,6,3,2,4,6,-16,-3,15
1532493756853,-2,1,-2,3,15,25,-15,-2
1532493756858,-3,-3,0,-3,-14,-10,13,-7
1532493756863,1,0,-4,-3,-3,23,1,8
1532493756868,1,-1,-1,-3,5,-5,17,-1
1532493756873,-4,-3,-2,-2,-9,-42,-22,-6
1532493756878,1,2,2,5,14,37,-12,-6
1532493756883,0,-2,-2,-1,-9,-28,12,4
1532493756888,0,-2,-3,1,-11,-18,-15,-6
1532493756893,0,0,3,1,1,-8,10,2
1532493756898,-5,-4,-4,-4,-11,16,12,-5
1532493756903,1,0,-2,-2,5,31,-16,-2
1532493756908,-1,2,2,11,17,-7,-5,5
1532493756913,-2,0,-8,-12,-10,-27,-12,-12
1532493756918,3,-1,-1,-11,-17,-12,14,20
1532493756923,-1,0,2,2,3,10,7,-10
1532493756928,1,0,0,0,3,21,13,2
1532493756933,-3,-2,-2,-3,5,-17,-21,-5
1532493756938,-3,-2,0,2,-21,-30,-14,-12
1532493756943,-4,-1,-1,3,7,-34,-12,-5
1532493756948,1,-2,-4,-7,-12,25,15,-2
1532493756953,-1,1,0,1,2,5,-15,1
1532493756958,1,0,-2,0,9,0,11,-3
1532493756963,-1,-1,0,-1,1,-15,-10,-2
1532493756968,-2,-1,0,0,-4,4,19,-9
1532493756973,3,1,2,4,0,9,3,16
1532493756978,-1,11,1,4,18,9,5,0
1532493756983,-1,-16,-8,-8,-10,-1,-13,10
1532493756988,-17,-5,-4,-10,-15,-23,-10,-21
1532493756993,17,-1,0,-1,-7,8,7,10
1532493756998,2,0,1,2,8,2,1,-2
1532493757003,0,1,3,5,6,-6,-2,-4
1532493757008,1,-1,-3,-7,-4,9,0,-4
1532493757013,-5,-4,-1,-2,-10,-8,7,1
1532493757018,-2,1,-1,2,3,-9,-32,-5
1532493757023,3,2,-2,-2,-2,18,29,-1
1532493757028,-2,-3,2,7,7,-8,-1,-4
1532493757033,-6,0,-3,-2,-4,3,-1,-1
1532493757038,2,-5,-3,-1,4,16,12,15
1532493757043,-4,3,-1,-2,4,11,-9,-4
1532493757048,5,1,1,4,12,12,5,-4
1532493757053,-4,-1,1,-3,-5,-30,-23,-8
1532493757058,-2,-3,0,2,-4,-7,0,-3
1532493757063,-1,6,2,6,6,-6,13,-18
1532493757068,1,-2,-3,-3,-2,8,0,7
1532493757073,-11,8,-1,-4,-2,3,-7,11
1532493757078,16,-7,2,1,5,10,9,6
1532493757083,-4,7,-1,-3,-3,-2,-12,-9
1532493757088,8,-10,-5,-4,-6,-12,-14,-6
1532493757093,-8,1,-2,0,2,5,17,3
1532493757098,-7,1,2,2,1,4,9,-15
1532493757103,-1,-1,1,1,4,-2,-11,-1
1532493757108,-3,3,-1,-1,-6,-11,-10,13
1532493757113,2,-2,-4,-4,-1,-13,-8,3
1532493757118,-2,-2,-2,-5,-8,22,7,2
1532493757123,0,-2,-1,-3,-4,-7,-16,0
1532493757128,-4,1,0,-1,-5,-11,2,1
1532493757133,1,-4,1,6,5,-3,6,-15
1532493757138,-3,0,-5,-4,7,-15,-7,-4
1532493757143,-2,0,-3,-8,-8,8,6,2
1532493757148,1,-6,2,2,1,5,4,0
1532493757153,2,-2,-1,2,-4,5,-1,-14
1532493757158,-9,-1,-13,-6,-2,3,-28,-11
1532493757163,0,3,16,-1,0,8,22,7
1532493757168,1,1,-7,-3,-1,-20,1,11
1532493757173,-6,0,0,-2,-2,3,-3,-8
1532493757178,10,10,1,5,4,-8,2,2
1532493757183,-11,-19,-4,0,-1,-15,-38,-14
1532493757188,9,4,1,-2,-8,5,6,2
1532493757193,-1,-6,-3,3,6,29,7,8
1532493757198,-13,3,1,-7,-1,-7,-3,-1
1532493757203,5,0,-6,-2,-9,5,4,-6
1532493757208,2,-2,4,0,4,0,3,20
1532493757213,0,1,-2,-3,-7,-7,-18,-3
1532493757218,-3,-4,2,1,3,-6,21,0
1532493757223,-2,3,3,4,-1,1,-3,2
1532493757228,-7,1,1,-3,-2,5,9,-8
1532493757233,0,-3,-12,2,4,4,-3,7
1532493757238,-4,-8,3,-2,-8,-15,-15,2
1532493757243,9,5,-3,-5,-3,-1,4,6
1532493757248,-1,3,-4,2,2,27,20,2
1532493757253,0,0,5,-2,-2,-22,-5,-9
1532493757258,-1,-2,-1,8,3,-3,0,-11
1532493757263,-1,0,-5,1,0,-1,-7,4
1532493757268,-5,0,-7,0,-2,-2,-28,-10
1532493757273,3,-7,-1,-2,-4,4,24,-3
1532493757278,1,-2,4,-7,0,-1,-10,-1
1532493757283,-2,0,-5,1,-2,-2,5,1
1532493757288,-3,0,0,-2,-1,0,0,-8
1532493757293,0,-1,-5,0,-1,-10,-26,5
1532493757298,0,6,-1,-3,-5,-3,18,-3
1532493757303,2,-8,-5,-1,1,-3,-11,11
1532493757308,-6,0,15,-1,4,13,59,-3
1532493757313,2,-3,2,3,2,5,-7,-2
1532493757318,-10,-2,-7,0,-5,-9,-9,9
1532493757323,4,5,6,4,5,15,-6,-1
1532493757328,-2,-2,2,-7,-7,-3,-23,1
1532493757333,-3,-3,-10,-6,-2,-3,24,-3
1532493757338,2,-1,11,0,0,6,-5,-1
1532493757343,-3,-5,-12,2,3,-15,-9,-15
1532493757348,-2,2,-9,-2,-8,-2,22,9
1532493757353,1,1,8,2,4,10,19,7
1532493757358,10,0,-16,-4,-3,0,-9,8
1532493757363,-9,2,12,-1,-2,-4,7,-2
1532493757368,1,-1,-2,3,7,-1,-18,-6
1532493757373,0,-1,5,0,2,-5,-4,-2
1532493757378,-5,-4,-4,-1,-2,-2,4,2
1532493757383,-1,-3,-8,-4,-7,-2,4,-9
1532493757388,2,-1,-2,1,-2,3,11,4
1532493757393,3,1,1,1,4,15,10,19
1532493757398,0,-1,5,6,6,-9,-15,-7
1532493757403,1,1,-3,-3,0,6,5,6
1532493757408,0,-5,-15,-10,-9,-12,-22,-9
1532493757413,-4,3,41,2,-7,-1,2,-5
1532493757418,-2,-5,-55,-6,2,-7,25,-2
1532493757423,2,0,11,1,0,12,-3,5
1532493757428,-4,1,-3,2,4,-10,-6,-5
1532493757433,-2,1,-6,-4,-5,-8,-22,-5
1532493757438,1,-1,18,1,1,4,47,0
1532493757443,-6,-1,-22,13,10,9,8,10
1532493757448,15,11,13,-8,-1,-4,-16,-2
1532493757453,5,-5,-1,-4,-8,-12,1,-4
1532493757458,-1,1,12,-4,-9,-3,-15,-6
1532493757463,-15,-5,-9,-4,2,-2,-7,1
1532493757468,5,0,8,10,7,4,6,14
1532493757473,-5,0,-16,-1,1,-1,2,-6
1532493757478,4,-1,-1,0,-4,1,-8,-4
1532493757483,2,-1,15,-2,-2,-1,-7,-4
1532493757488,-1,3,-6,1,1,2,-22,1
1532493757493,1,-2,-7,-8,-6,2,2,-6
1532493757498,-3,-3,6,2,0,7,-5,0
1532493757503,0,-2,-10,-3,-4,-13,-28,8
1532493757508,-4,-4,6,-1,4,-4,19,-2
1532493757513,0,1,-5,2,-2,3,2,3
1532493757518,-2,0,0,-1,2,7,2,3
1532493757523,0,-1,7,-2,-2,-11,-22,-11
1532493757528,0,-5,-1,0,-3,4,1,-3
1532493757533,-4,-1,17,-4,-3,-8,5,-3
1532493757538,-5,0,-31,-1,0,7,-5,-1
1532493757543,6,0,19,-6,-4,-5,4,4
1532493757548,-4,-4,-11,4,-1,-1,7,-7
1532493757553,-1,-1,8,5,2,-1,-1,5
1532493757558,-3,1,1,-4,-4,-4,-34,-4
1532493757563,7,0,-2,-8,-7,-2,56,-7
1532493757568,-3,-1,-16,2,2,-5,-19,-8
1532493757573,-3,1,4,-6,-5,-5,-13,-6
1532493757578,1,-3,8,2,0,-2,3,4
1532493757583,3,1,-4,0,-3,4,-14,11
1532493757588,0,-3,-2,-4,-1,-2,12,-4
1532493757593,-1,4,-10,2,3,-3,9,-7
1532493757598,-2,-5,14,7,7,-4,-2,-13
1532493757603,-4,-7,-12,-7,-9,-15,-32,-9
1532493757608,-3,-2,2,0,0,4,20,9
1532493757613,-1,-1,-21,-5,-1,3,-16,0
1532493757618,3,3,14,4,0,-2,-2,2
1532493757623,2,1,-1,5,8,9,25,-1
1532493757628,-6,-3,1,-4,-1,-13,-27,-15
1532493757633,1,-4,-9,-14,-11,-2,10,6
1532493757638,-2,-3,2,-4,-1,-2,-8,-8
1532493757643,-4,-5,2,1,-2,1,13,-10
1532493757648,6,9,5,3,-2,7,-1,7
1532493757653,-1,0,6,7,5,10,-4,-8
1532493757658,5,4,-26,-3,-7,-8,-4,3
1532493757663,-7,-8,5,-3,-3,0,1,2
1532493757668,17,3,4,4,4,-2,-7,6
1532493757673,0,1,-7,2,-1,0,-4,-6
1532493757678,2,-1,14,-3,0,9,20,4
1532493757683,0,2,-10,-3,2,2,3,3
1532493757688,-8,-6,-8,-3,-8,-8,-10,-7
1532493757693,1,-1,7,3,7,7,17,-6
1532493757698,-1,2,-1,-2,-2,-8,-11,2
1532493757703,1,1,-4,-2,-2,3,13,4
1532493757708,-4,-6,-1,-7,-8,-16,-19,9
1532493757713,0,0,-3,2,2,-4,-18,7
1532493757718,-5,-3,2,0,1,-1,8,11
1532493757723,-2,-1,-7,-3,0,-5,-26,-10
1532493757728,-4,-2,3,-5,-10,-2,27,3
1532493757733,-5,0,-1,4,3,-8,5,-28
1532493757738,6,-1,2,6,9,26,4,39
1532493757743,3,2,4,4,3,-4,-13,6
1532493757748,0,0,-1,2,11,29,34,0
1532493757753,-1,-2,-8,-6,-6,-3,-10,8
1532493757758,-5,3,5,0,-4,-4,11,-29
1532493757763,-1,-6,-4,-1,-5,-9,-12,10
1532493757768,-3,2,3,-2,-3,-1,-5,-3
1532493757773,-3,-4,-5,-2,3,1,12,2
1532493757778,-6,-4,-2,-8,-6,-8,-18,-20
1532493757783,-3,0,-3,1,0,2,21,-11
1532493757788,1,-1,1,3,0,-8,-10,5
1532493757793,4,-3,2,-1,-1,-2,-7,16
1532493757798,3,3,0,-4,-4,-2,22,10
1532493757803,1,4,-3,-5,-3,-6,-10,-17
1532493757808,-4,-3,0,2,3,0,-7,-8
1532493757813,0,2,6,7,6,7,-18,-9
1532493757818,-2,-10,-16,-6,-3,5,-7,7
1532493757823,3,2,10,-4,-2,5,-1,22
1532493757828,-3,0,3,-1,-2,-6,-20,-11
1532493757833,-1,-2,-2,-1,-4,-15,3,3
1532493757838,-3,-2,0,1,1,-3,-21,-11
1532493757843,-1,1,3,8,4,4,5,0
1532493757848,-2,-3,-4,-2,3,5,33,7
1532493757853,5,2,0,3,2,5,4,9
1532493757858,-1,-2,4,1,-1,1,6,-2
1532493757863,1,0,-4,-3,-5,-7,-9,-9
1532493757868,-2,-2,3,3,0,5,5,-6
1532493757873,-4,0,-5,-3,-1,-5,-7,-8
1532493757878,-3,-1,2,1,0,-4,-6,1
1532493757883,1,-2,-3,-2,-2,2,-4,6
1532493757888,0,-3,-5,-5,-4,-4,-16,-2
1532493757893,-2,-1,-3,0,-2,1,11,-1
1532493757898,-1,-1,0,-3,-3,-21,-14,1
1532493757903,2,0,-2,1,4,17,18,4
1532493757908,-4,-1,-2,-2,-6,-14,-12,-2
1532493757913,1,0,-1,-2,1,9,14,15
1532493757918,-1,0,3,2,6,11,9,-3
1532493757923,-7,-1,-1,2,-5,-10,-4,-10
1532493757928,1,-1,-2,-2,-2,-3,6,-9
1532493757933,-1,-1,0,-1,-2,-1,-9,-3
1532493757938,-3,-3,-4,-2,-8,-1,-8,-5
1532493757943,-1,0,-2,0,3,14,19,-5
1532493757948,-1,-2,-2,-2,0,-2,-13,1
1532493757953,-3,-1,1,0,1,-8,0,-2
1532493757958,5,1,1,3,4,4,-1,6
1532493757963,-2,3,0,1,-2,-4,3,-3
1532493757968,-1,-4,-1,1,6,3,-10,-5
1532493757973,1,-4,-6,-5,-2,-6,-7,-2
1532493757978,-1,0,1,-4,-5,-10,9,-6
1532493757983,-1,-1,3,-2,-2,-4,-8,7
1532493757988,-2,0,-3,2,2,-1,2,-13
1532493757993,0,-6,-15,-8,-9,0,-1,12
1532493757998,-3,12,0,-3,2,0,-2,-18
1532493758003,2,-12,-2,-3,1,-6,-4,13
1532493758008,-3,2,13,1,0,1,5,9
1532493758013,-4,4,4,2,2,3,16,-12
1532493758018,4,-3,18,1,-2,1,3,-3
1532493758023,8,19,-19,5,2,-5,7,-7
1532493758028,-10,-28,-44,-13,-4,-2,-15,10
1532493758033,9,-34,4,0,-2,1,-8,2
1532493758038,1,32,9,2,0,-1,10,-6
1532493758043,2,4,19,9,8,6,3,3
1532493758048,2,12,14,2,-3,-1,3,1
1532493758053,-4,2,-15,-10,-12,-4,-1,-7
1532493758058,2,-14,-15,-3,1,-4,-15,12
1532493758063,0,-2,5,-2,0,16,30,-5
1532493758068,3,3,1,0,-1,0,-6,-4
1532493758073,-4,2,7,3,2,-4,-4,0
1532493758078,-1,-6,0,4,-1,-2,6,4
1532493758083,-5,-2,12,-4,-4,-9,2,-4
1532493758088,-3,-2,-22,0,6,-4,-25,-6
1532493758093,1,9,10,0,-10,3,43,8
1532493758098,0,1,-19,-10,-1,1,-8,-2
1532493758103,-3,-20,6,0,-10,-10,-17,-2
1532493758108,4,4,19,4,0,-2,-14,1
1532493758113,0,3,3,2,1,-4,1,-4
1532493758118,1,0,5,-3,-4,-2,13,0
1532493758123,-4,1,-4,-3,1,6,-9,5
1532493758128,-1,-5,-3,3,1,2,7,10
1532493758133,-3,1,-2,-4,-2,-13,-12,3
1532493758138,1,0,-3,-2,0,-1,9,12
1532493758143,0,-3,-4,-3,0,-2,-14,3
1532493758148,0,-3,7,-2,-7,4,-9,0
1532493758153,-3,0,-2,1,-4,1,20,4
1532493758158,-1,-1,0,-1,-1,-9,1,-1
1532493758163,1,0,-1,2,2,6,-1,7
1532493758168,-2,-3,14,3,1,0,2,-12
1532493758173,2,-1,-32,-4,1,-2,-12,2
1532493758178,1,1,15,4,-2,3,4,-17
1532493758183,0,4,15,-1,3,-4,2,-4
1532493758188,1,-2,-22,-6,-5,-2,-2,-4
1532493758193,-3,-5,4,-3,-3,1,1,-2
1532493758198,2,4,2,-2,0,1,-2,11
1532493758203,-2,-2,-6,4,-1,-1,-7,-4
1532493758208,1,0,7,8,6,-3,2,4
1532493758213,-2,-1,0,-2,4,-5,-12,-13
1532493758218,-1,-4,-10,-9,-12,-2,0,-8
1532493758223,-1,2,-1,-4,-2,-5,1,-6
1532493758228,-2,0,-6,1,-2,0,-4,-4
1532493758233,-2,0,4,2,1,3,-3,-7
1532493758238,-2,-2,2,-1,-2,-6,-6,-8
1532493758243,1,0,-3,1,-3,0,12,-7
1532493758248,-2,-2,1,-1,1,3,1,-7
1532493758253,-1,1,4,2,1,-13,-6,-2
1532493758258,-1,1,-11,0,-2,0,6,0
1532493758263,-2,-4,-12,-1,0,-5,-9,-4
1532493758268,-4,0,8,-1,-5,-1,-3,1
1532493758273,1,-2,3,-1,4,4,-4,5
1532493758278,1,-1,-1,-1,2,3,0,-5
1532493758283,-3,0,-3,-3,-1,-2,-3,-9
1532493758288,0,-1,8,1,1,-1,3,17
1532493758293,-1,-2,0,-2,-2,11,7,8
1532493758298,-2,1,3,3,4,0,-3,6
1532493758303,-1,-1,2,5,2,3,-4,1
1532493758308,1,-3,-6,-6,-3,-6,6,-1
1532493758313,1,1,-2,-5,-9,-2,-9,-13
1532493758318,0,-1,-2,2,2,0,5,-13
1532493758323,-2,0,1,-4,5,1,-3,-9
1532493758328,-1,-2,1,1,2,12,-10,-5
1532493758333,-2,0,10,2,2,-20,-19,-5
1532493758338,1,-2,-16,-3,-4,-4,13,-8
1532493758343,-2,-1,0,2,-3,-1,-7,3
1532493758348,0,-2,-1,-2,0,-5,1,-7
1532493758353,1,1,4,-2,-6,13,5,8
1532493758358,-1,1,4,-2,-3,-6,-11,-3
1532493758363,-1,-5,-1,-3,-4,2,14,6
1532493758368,0,-1,-4,-1,-1,-1,3,-1
1532493758373,0,1,-4,1,2,6,6,-6
1532493758378,-3,-1,3,2,2,-3,-3,11
1532493758383,3,5,-1,-1,0,-1,2,-5
1532493758388,-4,1,-4,-3,-4,-7,-13,1
1532493758393,-2,-4,2,-1,0,-1,24,1
1532493758398,-2,-2,-6,-2,-2,2,5,-1
1532493758403,1,1,6,1,0,-2,-5,3
1532493758408,-1,1,3,5,-2,-10,0,0
1532493758413,-1,-1,-5,0,0,4,-4,1
1532493758418,-3,-3,-2,-6,2,5,1,-3
1532493758423,-2,-2,2,-5,-7,-9,-3,-5
1532493758428,1,0,-1,0,2,6,11,9
1532493758433,0,-2,-8,-2,-3,-12,-6,1
1532493758438,0,-1,5,3,3,10,11,-1
1532493758443,-1,0,-4,-1,0,-1,-19,-2
1532493758448,1,-2,-1,1,-2,-5,11,13
1532493758453,-2,-1,2,0,2,9,-7,-3
1532493758458,-1,0,-1,-2,-7,2,18,5
1532493758463,-2,-1,2,4,1,-11,-2,-2
1532493758468,-2,2,-4,-4,-3,-4,1,-3
1532493758473,7,1,-3,-1,1,-3,-4,7
1532493758478,-4,-2,2,0,1,-1,-8,-7
1532493758483,-2,-2,-4,0,-2,11,9,-2
1532493758488,1,2,5,1,1,1,-2,0
1532493758493,-3,-2,-4,1,2,0,-7,2
1532493758498,-2,-1,-8,-7,-12,-13,-8,-7
1532493758503,-1,-2,-3,-2,-1,12,14,-1
1532493758508,-3,-2,3,-2,3,-1,-25,-5
1532493758513,-3,0,-4,-3,-7,-17,4,-1
1532493758518,0,-1,0,4,5,-4,0,-5
1532493758523,0,0,2,-1,-1,10,-5,9
1532493758528,-4,-3,-3,-2,1,5,2,-17
1532493758533,-3,-1,-3,-1,-8,-1,-1,10
1532493758538,3,2,3,2,3,-3,-11,11
1532493758543,0,-3,-6,-1,0,-4,6,-2
1532493758548,0,-1,-1,0,1,-2,5,2
1532493758553,-1,3,-2,0,0,2,-6,-9
1532493758558,-1,-3,3,3,-3,4,-2,-8
1532493758563,1,1,3,-1,1,-1,-11,2
1532493758568,-2,-4,-8,-6,-9,0,14,1
1532493758573,-1,0,1,-3,-4,0,2,-9
1532493758578,0,0,-4,-4,-5,1,-1,8
1532493758583,-1,0,0,0,-2,-4,-7,-1
1532493758588,-1,0,2,3,4,1,1,-7
1532493758593,-3,-1,-3,3,-1,2,1,-3
1532493758598,-2,1,3,-4,-4,-5,-1,-18
1532493758603,3,-1,3,-3,1,-4,-3,19
1532493758608,3,-1,-8,-1,-2,-2,-5,26
1532493758613,3,-2,1,1,3,6,10,1
1532493758618,-1,-3,1,2,1,4,-6,-7
1532493758623,-3,-2,-6,-3,-4,-7,-9,-5
1532493758628,2,1,5,-1,0,-1,4,-6
1532493758633,1,0,-2,0,2,0,-7,-4
1532493758638,1,0,-1,0,3,2,12,13
1532493758643,-4,0,1,1,0,-3,0,-11
1532493758648,-2,-4,-4,0,0,1,-22,-9
1532493758653,-1,1,-3,-1,4,-5,6,4
1532493758658,-3,-1,7,-1,0,-5,-13,-10
1532493758663,2,0,-5,-2,-2,-3,11,6
1532493758668,1,-1,-1,-1,0,9,-3,-2
1532493758673,-4,1,-2,-5,-5,-6,-2,-10
1532493758678,-5,-4,0,-2,0,-1,-8,10
1532493758683,1,0,2,2,5,8,5,-12
1532493758688,1,1,-1,-5,-6,-18,-10,2
1532493758693,-5,-8,-4,-6,-6,1,8,-13
1532493758698,2,2,-3,0,4,11,18,16
1532493758703,-1,-1,-1,-1,-2,-4,-18,-7
1532493758708,-1,1,2,1,3,12,18,-3
1532493758713,-1,3,0,1,-4,-16,-10,-1
1532493758718,-2,0,-7,-1,-3,-12,-8,0
1532493758723,-3,-4,-4,-3,-4,-4,3,-5
1532493758728,-4,-1,-1,-3,-1,-2,-1,-15
1532493758733,1,1,1,-3,1,5,-3,19
1532493758738,3,-3,1,3,0,5,7,1
1532493758743,0,1,0,0,2,4,-1,-5
1532493758748,0,0,-4,-5,0,-4,-6,7
1532493758753,-3,0,2,-2,-1,3,4,-20
1532493758758,1,-1,-2,-1,-1,4,10,14
1532493758763,-3,0,3,2,-1,-9,-6,2
1532493758768,-3,1,0,1,-1,3,-2,-9
1532493758773,0,-4,1,1,-1,-5,2,1
1532493758778,0,-1,-3,-2,-2,6,-5,-4
1532493758783,-2,-3,1,-1,-4,-3,15,-4
1532493758788,-3,-1,3,2,-1,1,-1,3
1532493758793,4,4,3,2,2,-3,2,9
1532493758798,-1,-1,0,-3,0,16,-4,-5
1532493758803,0,-1,-2,0,4,-16,-1,2
1532493758808,-3,-5,-10,-1,-2,-9,2,-3
1532493758813,-3,-3,3,-1,-1,1,-6,-2
1532493758818,-3,0,-2,-2,-5,2,4,-4
1532493758823,-1,1,-1,1,3,8,-3,1
1532493758828,3,2,2,0,-3,-3,2,9
1532493758833,0,-6,-1,3,4,-3,-7,-2
1532493758838,-1,0,-3,-4,-2,-2,2,-5
1532493758843,-2,0,-1,-3,-5,2,4,1
1532493758848,-1,-2,3,-1,1,5,-9,-1
1532493758853,-2,2,-1,0,0,2,9,-6
1532493758858,2,1,-3,0,-3,-4,-1,8
1532493758863,-2,-1,1,-2,-7,-20,-35,-5
1532493758868,1,0,5,0,1,19,38,1
1532493758873,-2,-4,-9,-3,1,-14,-10,6
1532493758878,1,0,2,1,1,-11,-5,-8
1532493758883,-1,-2,-1,-4,-3,3,4,3
1532493758888,-2,1,0,1,-3,-8,-17,-2
1532493758893,1,0,4,-1,-1,7,3,-1
1532493758898,-1,-4,-9,-1,0,-3,10,-2
1532493758903,-1,-2,-1,3,4,3,-9,-1
1532493758908,-5,-1,-1,-3,-4,-9,-5,-17
1532493758913,1,-1,-2,-7,-5,10,6,23
1532493758918,0,0,0,-2,-2,-13,-26,-6
1532493758923,0,0,-2,0,-1,14,36,-2
1532493758928,1,0,0,2,3,1,-2,3
1532493758933,-2,-1,1,1,-1,1,-4,-9
1532493758938,-2,-1,3,3,2,11,-5,-2
1532493758943,-2,-3,-7,-6,-6,-10,-6,0
1532493758948,1,1,0,3,0,-11,3,-3
1532493758953,-1,0,-3,-3,-1,7,-5,-2
1532493758958,0,4,1,2,5,-2,6,2
1532493758963,1,-4,10,2,2,12,4,0
1532493758968,-2,-5,-17,-2,-4,-8,-3,0
1532493758973,2,2,1,0,0,-1,-4,3
1532493758978,-3,-1,3,-2,-1,-4,-7,-6
1532493758983,1,1,-2,1,2,-1,13,-9
1532493758988,-2,-3,0,-1,-5,-9,-21,13
1532493758993,-1,-4,-1,1,-1,15,17,-5
1532493758998,0,2,2,2,1,10,-21,-1
1532493759003,-2,2,-1,-2,-8,-42,11,-1
1532493759008,0,-1,1,-7,-11,15,-1,-9
1532493759013,-1,-1,-7,-2,5,4,-10,8
1532493759018,-2,-3,-2,-2,-1,6,9,-5
1532493759023,0,2,0,3,4,13,-9,5
1532493759028,0,3,4,0,2,-9,-7,-7
1532493759033,-4,-2,-1,-2,-5,-12,-9,-3
1532493759038,2,-1,2,1,0,9,10,5
1532493759043,-1,-2,-2,0,3,1,-7,2
1532493759048,1,1,1,-1,2,0,8,0
1532493759053,0,-1,-3,-1,-1,4,0,-4
1532493759058,-2,-2,0,1,0,-12,1,-4
1532493759063,-2,-2,-3,-2,-2,0,-11,-2
1532493759068,0,-1,2,0,0,-5,-10,6
1532493759073,0,1,1,1,1,9,30,4
1532493759078,-1,-3,-4,-3,-2,-2,-6,1
1532493759083,0,2,0,1,-1,9,-2,1
1532493759088,-1,-3,-4,0,4,-1,-9,-5
1532493759093,-1,-1,-1,-2,-7,-1,12,-6
1532493759098,-1,-1,-1,-6,-9,-18,-9,-7
1532493759103,-3,-1,-4,-3,-1,-6,-2,0
1532493759108,1,-2,0,-2,0,8,-1,6
1532493759113,1,1,2,2,2,-26,-8,3
1532493759118,-1,-2,-3,0,-4,1,-2,-8
1532493759123,-1,-2,-1,-5,-5,3,3,1
1532493759128,-2,-2,-1,0,-1,7,13,0
1532493759133,1,1,5,2,7,17,-21,-4
1532493759138,-3,-2,-3,1,0,-19,-3,1
1532493759143,-2,-2,-1,-4,-13,10,-9,-7
1532493759148,1,0,-1,-3,2,-10,-5,5
1532493759153,0,3,1,1,6,10,10,-6
1532493759158,-1,1,0,-4,-10,-7,-15,5
1532493759163,3,3,4,11,19,21,18,8
1532493759168,-1,-1,-5,-6,-8,-8,10,-6
1532493759173,-3,-4,-5,-10,-12,-13,-3,0
1532493759178,2,0,1,-1,5,0,-22,-2
1532493759183,-3,-1,-1,4,14,11,12,-12
1532493759188,-1,-1,4,3,-11,8,-28,11
1532493759193,0,1,0,6,12,-28,31,-7
1532493759198,-2,-2,-5,-1,2,-18,2,12
1532493759203,2,-2,-3,-10,-43,13,0,11
1532493759208,-2,-5,-1,-4,19,-1,-8,-17
1532493759213,-3,-3,-1,-6,-9,-7,-32,-6
1532493759218,-1,0,5,6,-1,10,25,-5
1532493759223,-2,-4,-4,-1,16,-8,7,-3
1532493759228,0,-2,-2,-5,-3,13,4,2
1532493759233,-1,-2,0,0,-5,7,3,1
1532493759238,1,1,-1,2,5,28,17,-3
1532493759243,-1,-1,-1,-3,-8,-40,-19,1
1532493759248,-1,2,0,0,-4,0,8,0
1532493759253,0,-1,1,-2,3,-3,-9,-4
1532493759258,1,0,3,4,2,0,6,-6
1532493759263,-1,-1,0,1,6,3,-5,1
1532493759268,-2,1,-2,-2,-6,-4,6,-3
1532493759273,0,0,-3,0,-3,-6,-5,-2
1532493759278,-3,-2,-2,0,2,0,-4,-2
1532493759283,-1,0,1,-3,-4,5,-11,1
1532493759288,-2,-3,-1,2,3,-15,-3,-11
1532493759293,2,1,-1,1,-3,13,2,11
1532493759298,1,-1,-1,-7,-5,4,2,-1
1532493759303,-2,-3,0,-3,7,-8,-1,-1
1532493759308,-1,-1,0,3,0,2,-13,-4
1532493759313,0,-2,0,3,-1,10,15,-2
1532493759318,-4,-1,-1,-2,-1,-23,-3,-4
1532493759323,-1,-1,-2,-2,-3,-2,0,-3
1532493759328,3,1,0,-1,-4,-4,5,10
1532493759333,0,-1,-1,-2,1,7,-10,2
1532493759338,0,-3,-1,1,7,10,5,-1
1532493759343,0,1,-2,3,-2,6,-4,-5
1532493759348,-1,0,-1,-3,3,-16,12,0
1532493759353,-3,-1,-1,1,-3,8,-7,-3
1532493759358,-3,-1,-1,1,-1,-10,-7,-1
1532493759363,0,0,0,-2,-3,6,-5,5
1532493759368,0,-3,0,4,9,7,-6,-5
1532493759373,-1,-2,-1,-4,-6,-8,7,3
1532493759378,-3,1,-3,-6,-12,-20,-7,-13
1532493759383,1,0,-1,-3,1,7,4,3
1532493759388,0,-1,0,3,-5,-4,-9,0
1532493759393,-1,-2,0,-1,1,-2,8,-12
1532493759398,-1,-2,-3,1,-1,-3,-39,8
1532493759403,0,-1,-2,-2,-2,-4,45,-1
1532493759408,-5,0,-1,-3,-1,4,-4,-8
1532493759413,-2,-2,-4,-3,-2,3,-14,-8
1532493759418,4,2,1,-1,2,1,5,20
1532493759423,-2,-1,0,2,1,-2,-15,-1
1532493759428,-2,-1,2,-1,-1,-2,7,0
1532493759433,-3,-1,-3,-2,2,-3,1,-5
1532493759438,-3,-2,0,0,-6,-5,2,-8
1532493759443,-3,-3,-1,-1,0,5,-8,-5
1532493759448,-1,-1,0,-1,-4,-15,4,0
1532493759453,1,-1,0,-3,-3,4,-12,9
1532493759458,3,-1,0,-5,-2,19,22,5
1532493759463,0,-2,0,0,0,-5,-10,-6
1532493759468,-1,-1,-2,1,1,28,2,0
1532493759473,0,2,1,4,0,-30,-14,3
1532493759478,0,1,-3,-7,-6,2,29,1
1532493759483,-3,-2,-2,0,0,-6,-11,-14
1532493759488,-1,0,-2,0,1,-4,0,-2
1532493759493,1,0,0,0,2,8,-17,10
1532493759498,-1,2,2,1,0,8,8,-5
1532493759503,-2,-2,3,1,2,-5,-6,3
1532493759508,-1,2,-3,-2,-2,6,2,-8
1532493759513,0,-6,-2,-1,-1,-3,0,8
1532493759518,-3,-4,8,0,1,-5,-3,-5
1532493759523,3,1,-9,2,4,-7,-4,12
1532493759528,1,0,2,-1,-2,-1,3,-1
1532493759533,-3,2,0,-1,-3,1,10,-5
1532493759538,-1,-1,-2,3,1,1,-9,-7
1532493759543,0,0,1,-1,2,6,4,4
1532493759548,2,-1,-2,-5,-6,-4,6,7
1532493759553,-3,2,2,1,2,-6,2,-8
1532493759558,-1,-3,-5,-2,-1,-2,-6,3
1532493759563,-2,0,-1,-2,2,0,2,-8
1532493759568,-2,-2,-2,0,-3,-6,-1,5
1532493759573,-2,1,0,0,2,5,-15,-8
1532493759578,-1,-2,-1,-2,2,4,25,-5
1532493759583,1,0,2,2,-1,-2,4,11
1532493759588,1,-2,0,5,0,3,-2,0
1532493759593,-2,0,-2,-7,-6,-12,-2,-6
1532493759598,-1,-1,-1,0,1,-1,-14,-6
1532493759603,1,1,2,0,0,-1,-2,8
1532493759608,-3,-5,-7,-7,-7,-11,2,-6
1532493759613,0,0,2,7,3,12,1,-12
1532493759618,0,0,-2,-1,-2,-1,-7,-2
1532493759623,-2,0,1,1,1,-7,-14,-8
1532493759628,3,-4,8,5,4,9,17,11
1532493759633,0,-3,-15,-2,-1,-8,-1,-2
1532493759638,-3,-5,2,-5,-6,0,8,-2
1532493759643,1,0,3,1,0,1,-7,1
1532493759648,0,3,3,1,3,4,-7,-6
1532493759653,-1,-3,-3,-1,-2,-8,-4,-1
1532493759658,1,2,2,0,1,-3,3,3
1532493759663,-3,-3,-3,-3,-3,-5,-2,-11
1532493759668,-2,-3,-8,-7,-5,-5,-14,8
1532493759673,1,2,3,-2,-2,17,41,5
1532493759678,-1,0,-2,5,3,-11,-21,3
1532493759683,-2,0,1,0,-1,2,13,-9
1532493759688,1,-1,-1,0,-6,-8,-1,9
1532493759693,3,0,1,-3,-2,-4,-15,6
1532493759698,0,-1,0,-2,1,6,8,-3
1532493759703,-1,-2,-7,-1,4,2,0,3
1532493759708,-2,-1,0,-3,-3,-5,-14,-8
1532493759713,-2,-1,-7,-2,-3,1,10,3
1532493759718,0,-1,-1,-1,0,-8,-17,2
1532493759723,1,2,1,-3,-3,3,25,-3
1532493759728,0,-2,2,6,7,3,-2,-6
1532493759733,-1,-2,0,7,4,-4,-13,-4
1532493759738,-1,1,-3,-10,-11,-4,-6,0
1532493759743,0,-5,-11,-4,-3,-4,-3,8
1532493759748,-1,4,19,-6,-2,6,21,-2
1532493759753,-2,0,3,-2,3,-3,-12,-3
1532493759758,-2,-1,2,8,3,3,17,-9
1532493759763,1,0,5,0,-5,-1,-5,7
1532493759768,-3,-1,-15,-10,-4,-5,-1,-7
1532493759773,-1,-2,-9,-1,-3,-2,-6,0
1532493759778,1,0,-4,-1,1,4,-7,2
1532493759783,0,-4,5,3,10,-2,3,-6
1532493759788,-2,0,-9,-1,-10,-1,-14,-3
1532493759793,0,1,6,-2,3,15,23,-4
1532493759798,-1,1,-1,-2,-5,5,-9,1
1532493759803,2,0,-4,-4,-1,-3,4,-1
1532493759808,-1,-2,-11,2,6,-3,-15,-2
1532493759813,-2,-2,6,-4,-6,-7,-3,-3
1532493759818,0,-3,1,4,5,2,2,-1
1532493759823,-2,0,3,-4,-7,1,-11,7
1532493759828,0,2,7,2,3,-1,9,-5
1532493759833,6,0,-6,1,1,0,4,5
1532493759838,-2,-2,-3,1,1,-6,-5,-1
1532493759843,0,4,-3,-2,-1,6,7,1
1532493759848,-1,2,8,2,-2,-4,2,2
1532493759853,-2,-3,-5,-1,4,-7,-8,1
1532493759858,-1,-4,2,-7,-9,-1,-20,-1
1532493759863,-2,-2,-2,2,-2,8,32,-3
1532493759868,-2,-1,-5,0,2,4,-3,4
1532493759873,0,0,8,5,0,3,3,-3
1532493759878,0,-2,-6,0,3,5,-1,1
1532493759883,-2,-3,0,-8,-8,-9,-18,-5
1532493759888,0,-1,-1,-1,4,-6,16,2
1532493759893,-3,-2,1,-2,-1,-20,-25,-1
1532493759898,1,1,-9,0,0,-3,14,-1
1532493759903,-1,-3,5,0,-7,0,-8,-3
1532493759908,3,4,-12,1,5,8,1,1
1532493759913,-2,2,8,-7,-8,-2,-16,-1
1532493759918,-3,-6,-1,-6,-6,-1,19,-5
1532493759923,3,0,0,5,2,20,8,20
1532493759928,0,-1,2,8,7,6,-27,-11
1532493759933,2,0,-7,-8,-8,-33,22,17
1532493759938,0,1,-3,-8,-16,-11,-4,-3
1532493759943,-3,-3,-4,0,-1,-8,-12,-6
1532493759948,-1,-2,4,1,-2,9,7,5
1532493759953,0,-2,3,9,3,21,-8,-5
1532493759958,0,1,1,-7,2,-9,5,-3
1532493759963,-4,-4,-7,-6,-10,-16,-5,-6
1532493759968,0,2,2,-1,-2,6,4,-3
1532493759973,-3,-9,-3,-4,-4,2,0,5
1532493759978,-1,0,-4,8,8,11,5,6
1532493759983,-3,1,5,0,6,-1,-17,-9
1532493759988,2,0,-7,-1,-1,-4,-8,-1
1532493759993,-1,0,4,-1,-1,2,20,-5
1532493759998,1,0,-5,-6,2,12,8,9
1532493760003,-1,0,2,-1,-3,1,-6,-2
1532493760008,-3,-2,0,-1,-3,-10,14,-1
1532493760013,2,3,10,3,5,-1,-9,-2
1532493760018,-3,0,-1,7,5,-3,-8,-13
1532493760023,6,3,3,4,4,2,5,14
1532493760028,-2,-3,-5,-10,-8,-6,-1,3
1532493760033,-4,-5,-3,-4,-7,2,-2,-7
1532493760038,0,0,8,5,3,3,-6,-3
1532493760043,0,0,-5,3,2,-16,-18,-2
1532493760048,0,-4,3,3,2,1,30,-1
1532493760053,1,0,-4,3,1,-1,-23,-9
1532493760058,1,0,6,2,6,-2,25,7
1532493760063,-2,-4,-9,-10,-9,0,3,-4
1532493760068,-2,-1,2,5,3,-3,-18,2
1532493760073,-1,0,-6,-5,-2,9,29,-2
1532493760078,0,5,3,1,-2,2,-15,0
1532493760083,1,-4,8,1,3,-7,-7,-10
1532493760088,-2,-2,-11,-6,-9,-25,-7,-8
1532493760093,-2,-3,1,-3,-7,4,-5,5
1532493760098,1,-3,4,-1,2,2,13,10
1532493760103,-2,1,-9,1,4,5,2,-3
1532493760108,-4,-1,5,-2,2,5,-9,-7
1532493760113,-4,-2,-4,-4,-2,-7,-25,-31
1532493760118,1,-5,-4,-4,-9,-15,13,16
1532493760123,3,2,-1,3,1,3,-5,14
1532493760128,-1,-2,-1,1,-3,-1,-1,-2
1532493760133,-1,0,-6,-3,10,-1,-4,-2
1532493760138,-4,-2,-3,-7,-18,-3,-5,-12
1532493760143,-5,-3,-3,-3,-4,-6,4,-14
1532493760148,1,-1,-1,0,0,8,-12,4
1532493760153,0,0,6,5,2,6,7,7
1532493760158,0,1,0,4,7,-5,-18,-10
1532493760163,1,3,-3,-3,-3,4,12,-1
1532493760168,-3,-4,-3,-5,-6,-11,-35,-14
1532493760173,2,1,0,4,2,7,58,11
1532493760178,-3,0,6,7,4,-8,-16,-20
1532493760183,-7,-2,-2,-2,-7,-11,-24,-25
1532493760188,1,0,0,-9,-7,2,8,7
1532493760193,1,2,-4,0,-1,0,-13,5
1532493760198,-4,-1,-1,0,-2,-1,-13,-10
1532493760203,-1,0,3,3,3,10,24,-2
1532493760208,-1,4,3,4,4,-14,-2,-12
1532493760213,-4,-8,-8,-4,-4,0,-3,6
1532493760218,5,0,-4,-8,-6,3,-15,13
1532493760223,-2,-2,2,1,1,4,10,3
1532493760228,2,1,1,0,2,6,10,6
1532493760233,-2,-1,0,2,0,-5,-14,1
1532493760238,-1,-2,-5,-2,1,0,23,1
1532493760243,1,1,2,0,2,0,-13,6
1532493760248,1,-1,0,2,4,13,26,5
1532493760253,4,0,-3,-4,-6,-6,4,4
1532493760258,-6,-6,-1,-4,-2,-1,-11,-9
1532493760263,6,3,-4,-1,0,-11,-22,18
1532493760268,1,-2,2,2,5,14,35,3
1532493760273,-3,-2,1,4,3,-3,-13,-4
1532493760278,-1,1,-1,0,0,1,-6,4
1532493760283,-2,-1,-3,-1,-3,1,12,-3
1532493760288,-5,-2,-1,-3,-3,-9,-23,-11
1532493760293,6,0,-1,-2,-1,8,22,14
1532493760298,0,-1,0,0,-1,-3,-10,4
1532493760303,-2,-2,3,4,6,8,34,6
1532493760308,1,-2,-7,-3,-2,4,1,-3
1532493760313,-1,1,-2,-9,-7,-10,-14,6
1532493760318,2,1,2,4,6,-8,-6,13
1532493760323,-5,-2,-5,-6,-3,2,2,-7
1532493760328,-1,-2,3,2,2,2,-9,2
1532493760333,-3,1,1,4,0,-2,7,-3
1532493760338,-3,-2,-8,-10,-9,0,-21,-4
1532493760343,-2,0,1,1,-2,-2,9,-5
1532493760348,0,0,-1,-4,-1,1,3,1
1532493760353,-5,0,-1,-3,-5,-9,-23,-19
1532493760358,2,1,2,2,5,13,24,13
1532493760363,1,-1,-1,0,1,5,-15,-5
1532493760368,-3,-1,2,0,0,-1,1,-1
1532493760373,-1,-1,-4,-3,-2,1,0,-2
1532493760378,-2,-1,-1,-2,1,-2,11,4
1532493760383,-1,-2,-2,-1,-2,-5,-9,-1
1532493760388,0,0,-3,1,1,-5,-6,6
1532493760393,-2,1,0,-1,-2,0,-2,3
1532493760398,0,-5,-3,-1,-2,0,7,2
1532493760403,-1,-1,-2,-1,4,-6,-11,-1
1532493760408,-1,0,-2,-3,-5,-1,0,5
1532493760413,-3,0,3,0,3,7,8,-10
1532493760418,-1,1,10,3,2,-1,-2,-8
1532493760423,0,-5,-19,2,-7,2,2,0
1532493760428,-1,-1,1,-4,-4,-8,-5,3
1532493760433,-1,-2,-1,-3,-2,-4,-4,-4
1532493760438,-1,3,4,0,-3,2,1,0
1532493760443,-1,0,5,2,3,-4,-3,-8
1532493760448,2,1,-12,3,2,2,3,6
1532493760453,2,0,6,0,-1,-1,-4,4
1532493760458,-2,-6,-6,-3,-2,-2,-5,-7
1532493760463,-1,-1,6,-3,-2,0,3,-6
1532493760468,0,-1,3,-5,-2,-2,0,7
1532493760473,-1,-1,0,4,4,2,1,-5
1532493760478,2,2,-1,1,-1,-1,1,-3
1532493760483,0,-1,-4,-2,-5,-2,-23,6
1532493760488,0,-2,3,6,2,5,30,-3
1532493760493,-1,-2,-1,-1,6,1,-5,3
1532493760498,-3,-3,-10,-8,-7,-2,4,-10
1532493760503,-2,1,2,-4,-8,-6,-8,5
1532493760508,1,-2,-2,-1,0,-4,-12,-6
1532493760513,-2,-1,1,3,-1,8,-2,-1
1532493760518,1,2,3,6,6,-11,-17,-4
1532493760523,0,-2,3,-2,0,1,2,-4
1532493760528,-2,-4,-15,0,-2,-5,-5,-2
1532493760533,1,9,30,4,5,8,17,3
1532493760538,-3,-7,-18,-6,-12,-10,-16,-2
1532493760543,-2,-6,-5,-7,-3,-4,-7,-1
1532493760548,-5,-1,8,0,0,4,16,-8
1532493760553,-2,-4,-2,1,-2,3,-5,-5
1532493760558,3,5,8,6,8,8,7,6
1532493760563,3,1,3,-1,-2,-4,1,7
1532493760568,-3,-1,-16,-5,-6,-4,-9,-7
1532493760573,-2,-2,-12,-7,-5,-8,-1,1
1532493760578,-1,0,6,-1,0,3,8,-9
1532493760583,-1,0,-6,0,0,-5,-25,0
1532493760588,2,1,9,2,2,11,28,8
1532493760593,0,-2,-5,2,6,1,1,8
1532493760598,-3,-2,-6,-4,-7,-2,4,15
1532493760603,0,0,3,0,1,8,-1,11
1532493760608,0,-1,0,-2,-1,-3,-14,14
1532493760613,-1,-3,-6,-1,-2,-10,-1,22
1532493760618,-4,-2,0,-2,2,6,-3,2
1532493760623,-1,-1,4,3,1,1,9,8
1532493760628,4,-2,-3,-5,-4,-6,-14,15
1532493760633,2,-2,-7,-2,-2,2,8,-13
1532493760638,3,1,2,4,5,-17,1,-7
1532493760643,-4,-1,4,1,2,19,5,-14
1532493760648,-4,0,-2,2,5,19,7,-18
1532493760653,-1,0,0,-1,3,-3,-9,-21
1532493760658,-3,-4,-10,-7,-12,-16,-1,-4
1532493760663,1,-1,-3,-1,0,-10,8,14
1532493760668,-1,-1,5,-2,-1,1,12,-12
1532493760673,1,-2,-6,-2,-1,4,-4,0
1532493760678,0,1,7,3,4,10,7,-30
1532493760683,0,2,-3,-1,0,-6,-6,-24
1532493760688,-1,0,4,0,-3,-2,-12,-15
1532493760693,-2,-3,-1,-3,-5,-8,-2,-22
1532493760698,-3,-2,-3,-3,-3,2,-4,-11
1532493760703,0,-1,1,-2,-2,7,5,-5
1532493760708,1,2,2,0,2,-13,-13,-4
1532493760713,1,1,1,1,-5,3,3,8
1532493760718,-1,1,-1,-3,0,-4,-3,5
1532493760723,-2,-2,-2,-1,0,4,7,-1
1532493760728,-1,-2,-6,-9,-10,-13,-8,1
1532493760733,-3,-3,-5,-4,-5,-2,-14,-3
1532493760738,4,2,2,4,9,17,23,19
1532493760743,-2,2,2,3,2,-12,2,-6
1532493760748,-1,-5,3,4,0,2,5,4
1532493760753,-2,1,-6,-5,-1,2,-7,4
1532493760758,-3,1,-2,-7,-10,7,2,1
1532493760763,-1,-1,0,1,2,-11,-3,-4
1532493760768,-3,-3,-2,-1,-4,2,-8,11
1532493760773,-1,1,-3,-1,2,3,7,-1
1532493760778,-2,0,2,-1,1,18,6,-7
1532493760783,-2,-1,0,-2,-5,-18,-8,0
1532493760788,-2,-2,-6,-2,-3,-7,-3,4
1532493760793,1,-1,-1,0,-1,5,1,5
1532493760798,0,0,0,1,2,4,11,-6
1532493760803,1,0,-1,2,0,18,-10,18
1532493760808,-1,0,1,1,4,-16,-5,-4
1532493760813,-1,-1,0,-3,-8,-8,-5,-1
1532493760818,-2,-2,9,1,-3,-10,-3,2
1532493760823,-2,1,-17,-2,1,8,10,-9
1532493760828,0,1,5,1,9,8,-3,-3
1532493760833,0,-1,-1,-3,-5,-4,-8,1
1532493760838,0,-3,-2,-1,-5,-6,-2,4
1532493760843,0,2,6,3,0,2,9,1
1532493760848,-1,1,-2,0,-2,-3,-5,0
1532493760853,-3,3,3,-3,-1,-11,-2,-5
1532493760858,1,1,-2,-1,0,4,-6,0
1532493760863,-1,0,1,-2,-3,-12,-2,-2
1532493760868,-1,-2,0,-3,-3,5,-4,-3
1532493760873,-2,-6,0,4,2,4,5,0
1532493760878,0,-3,-4,2,2,-5,-6,2
1532493760883,-1,-1,-3,-2,-3,10,7,1
1532493760888,-2,-1,-3,1,4,-1,-1,-2
1532493760893,0,-1,1,-1,-15,0,2,0
1532493760898,-2,-2,-5,1,6,11,-9,-7
1532493760903,-1,-3,-4,-3,5,-27,-7,6
1532493760908,-2,-3,-8,-13,-19,-9,-10,1
1532493760913,1,1,3,3,4,14,14,4
1532493760918,-1,0,-5,-3,-6,-5,-14,-3
1532493760923,1,1,6,6,3,-12,2,8
1532493760928,1,0,-1,1,1,9,15,-7
1532493760933,-1,-2,0,1,7,14,6,4
1532493760938,-1,1,3,-2,-3,-3,-7,1
1532493760943,-3,0,-4,-5,-3,0,0,-10
1532493760948,-1,-7,-4,2,-1,-6,-10,0
1532493760953,-1,0,-3,-5,-4,-4,-1,-2
1532493760958,-1,-2,0,0,2,1,-1,-2
1532493760963,0,0,1,-2,-3,1,2,0
1532493760968,-1,2,2,1,2,-6,0,-2
1532493760973,1,-1,-2,1,2,-4,-4,-3
1532493760978,0,0,-2,0,0,5,-1,4
1532493760983,-1,-2,-2,-3,-2,-9,-10,-4
1532493760988,0,0,2,2,4,20,16,1
1532493760993,-1,-1,0,-1,1,-11,-2,0
1532493760998,-2,-1,1,-1,-5,-20,-18,0
1532493761003,-2,-5,-3,-1,-1,14,9,-2
1532493761008,2,2,4,-1,-4,-9,-2,0
1532493761013,-3,-2,-8,-3,0,-6,-15,-19
1532493761018,2,5,1,0,1,5,17,30
1532493761023,1,-4,5,2,-1,9,3,-5
1532493761028,0,0,-9,-1,2,-2,-16,1
1532493761033,1,-2,2,0,-3,-11,-7,4
1532493761038,-1,-1,0,1,3,0,28,-6
1532493761043,-1,2,-5,-2,-4,13,0,0
1532493761048,-4,-1,2,0,0,-5,-18,-6
1532493761053,-2,0,0,-2,-6,-4,22,2
1532493761058,-1,-5,-7,-5,-2,-2,-11,-8
1532493761063,-2,0,1,1,-2,-4,4,2
1532493761068,-1,-1,4,2,-1,-16,-3,-3
1532493761073,0,-3,-4,0,4,-5,-5,1
1532493761078,0,1,2,0,-6,-2,-4,-1
1532493761083,-1,-3,-4,-8,-2,4,0,-3
1532493761088,-2,-1,-1,-6,-5,-2,-23,-4
1532493761093,1,1,3,4,7,14,33,4
1532493761098,-1,0,-2,0,3,2,-8,1
1532493761103,-1,1,4,-1,3,-3,-5,-19
1532493761108,1,0,-5,2,-1,8,11,27
1532493761113,-2,3,1,-1,-1,-5,-18,1
1532493761118,2,-5,2,0,0,-12,-4,6
1532493761123,-1,-4,-5,1,0,4,8,2
1532493761128,-3,-1,-1,-1,-1,0,2,-10
1532493761133,-3,0,-2,-1,1,2,-5,-1
1532493761138,0,1,1,2,-1,3,-5,-2
1532493761143,-2,0,-2,-2,-5,-14,-17,-6
1532493761148,1,-2,0,-4,-2,1,23,3
1532493761153,0,-1,-6,0,-3,-1,-9,-1
1532493761158,0,-1,-1,-1,0,1,0,-3
1532493761163,-1,-2,0,0,1,2,-3,2
1532493761168,0,-1,3,1,0,18,26,-8
1532493761173,-2,-2,-2,-2,-7,-14,-6,0
1532493761178,-1,2,6,0,-3,-11,8,-2
1532493761183,-1,-3,-5,-2,-2,-1,-3,3
1532493761188,-2,2,2,1,3,6,-9,-14
1532493761193,3,-3,0,1,2,3,4,22
1532493761198,-1,-4,-1,-3,-4,-2,-8,-2
1532493761203,1,-1,2,1,3,2,6,2
1532493761208,-2,-3,-7,-5,-2,-7,-2,-1
1532493761213,-2,3,9,2,2,-1,-6,-10
1532493761218,-2,-6,-6,-2,2,2,-2,-3
1532493761223,1,4,15,3,-3,-4,2,3
1532493761228,1,-5,-20,-5,0,4,-4,3
1532493761233,-1,-1,1,-1,2,-3,0,-8
1532493761238,0,1,0,-1,-3,0,0,3
1532493761243,1,-1,0,0,0,-1,2,-2
1532493761248,-1,0,0,0,2,0,-1,-3
1532493761253,-2,0,-3,-4,-6,3,-6,-3
1532493761258,0,1,3,0,4,-13,-8,-4
1532493761263,0,-3,-5,-2,0,7,12,2
1532493761268,-2,0,2,1,-3,-3,-4,-6
1532493761273,-2,-5,-9,-3,-4,-2,-5,2
1532493761278,-2,0,0,0,1,3,-3,-2
1532493761283,1,0,1,1,0,-3,-6,-5
1532493761288,-1,-3,-1,1,1,3,3,5
1532493761293,-1,0,2,-3,-3,3,4,-8
1532493761298,0,-3,-1,-1,-2,-3,2,-1
1532493761303,-1,3,-4,-1,-1,-4,-1,0
1532493761308,0,-5,-6,-3,-1,1,-7,-12
1532493761313,0,-2,4,2,1,-2,3,21
1532493761318,-1,2,-3,0,1,4,1,5
1532493761323,-1,-2,2,-4,-4,-4,-18,-3
1532493761328,-1,4,3,1,0,-19,16,-4
1532493761333,2,5,-12,0,1,9,7,-3
1532493761338,-4,-9,0,-1,-2,3,-3,-4
1532493761343,-2,0,-3,0,-1,-1,-5,-1
1532493761348,-3,-2,3,-1,-6,6,0,2
1532493761353,-3,-4,-9,0,0,-1,-7,-5
1532493761358,0,4,14,4,4,1,-5,-4
1532493761363,-3,-4,1,2,1,0,0,-7
1532493761368,4,6,2,-1,-4,9,-5,-1
1532493761373,-4,-1,-8,-1,-1,-11,6,3
1532493761378,-4,-1,-1,-1,-4,8,5,-8
1532493761383,6,-1,-1,2,1,-11,-16,10
1532493761388,0,4,2,0,-2,0,12,-2
1532493761393,-4,-3,1,2,-1,11,-2,-1
1532493761398,-2,2,-3,-2,-3,-4,-12,1
1532493761403,-15,-6,1,-4,3,5,12,-10
1532493761408,14,8,-3,-3,-1,-19,-7,2
1532493761413,6,-9,-4,-5,-4,6,6,-1
1532493761418,-3,-1,-4,2,1,-8,-9,-10
1532493761423,5,-3,-7,-7,-3,3,-3,5
1532493761428,-7,4,4,-3,-2,6,-2,1
1532493761433,-3,1,-7,-3,0,-9,-3,2
1532493761438,-1,-14,-1,-1,0,1,-10,-5
1532493761443,-14,14,4,4,5,2,-3,0
1532493761448,-4,-1,-6,-1,1,12,4,-5
1532493761453,1,2,3,-4,-1,-8,-12,3
1532493761458,-2,-4,-1,1,-2,-3,-1,2
1532493761463,1,-4,15,0,-3,-6,2,-4
1532493761468,1,1,-16,-1,0,3,-3,-3
1532493761473,-6,-3,4,0,0,2,-6,-2
1532493761478,1,4,1,-1,0,0,10,6
1532493761483,1,-3,2,-1,-3,-11,-2,-8
1532493761488,1,-2,0,1,0,3,-4,-7
1532493761493,-1,-1,1,1,0,6,12,13
1532493761498,0,4,-2,-4,-5,9,6,4
1532493761503,1,-5,-5,-1,-4,-22,-15,-7
1532493761508,-2,0,3,0,1,13,17,-5
1532493761513,-5,0,-2,2,-1,-14,-7,-7
1532493761518,3,0,1,-3,-3,5,6,11
1532493761523,0,-3,-3,1,4,18,-4,-8
1532493761528,-3,2,-1,2,-2,-23,6,4
1532493761533,-1,-2,0,-3,0,-2,-15,-5
1532493761538,-2,-1,1,-1,1,2,1,-2
1532493761543,1,-2,-2,0,-1,9,11,-1
1532493761548,-1,2,1,3,2,-12,-4,-1
1532493761553,-2,0,0,3,-4,15,9,0
1532493761558,-1,-2,-2,-3,4,-30,-11,1
1532493761563,0,-2,-2,0,-1,35,0,0
1532493761568,-1,0,1,0,0,-31,-15,-3
1532493761573,-2,0,-1,0,0,27,-7,-6
1532493761578,-1,-1,0,3,2,-26,19,0
1532493761583,0,-2,-1,-2,0,-3,11,5
1532493761588,0,-3,-3,-5,-1,26,-7,-1
1532493761593,-3,-1,-1,-2,-1,-9,-4,1
1532493761598,0,-1,-1,-2,-3,15,-3,-5
1532493761603,3,-1,2,4,-1,-26,-1,4
1532493761608,-4,-2,1,2,3,19,-15,-7
1532493761613,0,-1,-4,-7,-2,-24,-14,1
1532493761618,-3,1,0,-2,2,13,15,-3
1532493761623,-1,-2,-2,-1,0,-14,-4,-6
1532493761628,0,-2,-1,-2,-3,13,6,3
1532493761633,2,0,3,5,3,-2,2,10
1532493761638,-2,-2,0,0,-6,-3,-2,-7
1532493761643,0,1,1,1,3,19,1,-5
1532493761648,-1,-3,-1,-3,-7,-47,-11,1
1532493761653,-1,-3,-3,-4,3,0,-4,-8
1532493761658,1,-1,1,5,14,18,-6,1
1532493761663,-1,-3,-3,-8,-21,-28,-18,-7
1532493761668,1,2,3,5,6,24,46,6
1532493761673,-2,-3,-2,-6,-12,-23,-7,-5
1532493761678,1,1,-1,0,9,17,16,10
1532493761683,-5,-2,-2,-1,-5,-18,-51,-21
1532493761688,2,-3,-3,-1,4,13,22,13
1532493761693,-1,0,1,5,9,5,7,-4
1532493761698,1,-1,-3,-5,-12,-6,-2,-5
1532493761703,1,-2,-1,-1,-2,11,10,8
1532493761708,-1,0,2,0,-2,9,-4,6
1532493761713,1,2,1,2,1,-13,-2,1
1532493761718,-1,-1,-5,-10,-11,-32,-2,0
1532493761723,-1,-1,-1,1,-5,1,13,-2
1532493761728,2,0,0,0,1,2,-9,-1
1532493761733,1,-2,2,3,3,22,7,-3
1532493761738,1,-4,2,10,-1,-5,-10,2
1532493761743,-2,0,-4,-6,5,-10,6,1
1532493761748,-3,0,-4,-6,0,5,-5,-1
1532493761753,-2,-1,-1,-2,-5,-6,6,-6
1532493761758,-1,1,0,0,2,-3,-2,-6
1532493761763,2,0,0,2,5,20,9,5
1532493761768,-2,-3,-1,-2,-6,-10,-26,-2
1532493761773,-2,-2,0,0,0,5,20,0
1532493761778,0,0,-3,-3,-5,-9,-16,0
1532493761783,-2,-1,-1,2,-1,-12,-4,1
1532493761788,-3,-1,-1,-2,0,6,13,-7
1532493761793,-1,1,0,1,-5,-1,-2,-7
1532493761798,1,2,1,4,3,38,-7,9
1532493761803,0,0,1,-6,-8,-39,3,0
1532493761808,-3,-1,-6,-7,-8,-7,-10,-12
1532493761813,-2,-1,-2,-6,-16,-7,1,3
1532493761818,0,-1,0,-2,-3,-2,17,3
1532493761823,1,4,2,6,11,15,-2,-3
1532493761828,-1,-3,1,3,0,2,-1,2
1532493761833,-2,-2,0,2,5,0,-29,-2
1532493761838,1,-1,-1,2,7,12,43,0
1532493761843,-1,-4,-4,-7,-9,1,1,3
1532493761848,-1,-1,-1,-1,-2,-17,5,0
1532493761853,-3,-1,-2,-1,1,1,-8,-1
1532493761858,0,1,0,1,-2,0,-16,-1
1532493761863,-1,-4,-1,-1,3,4,10,-5
1532493761868,1,-1,-2,-5,-5,5,7,2
1532493761873,-1,-1,-2,-2,0,6,6,1
1532493761878,-1,1,0,-1,-3,-8,-15,-6
1532493761883,-1,2,0,4,2,12,11,3
1532493761888,0,3,-1,2,-1,-7,-23,-6
1532493761893,1,-3,-3,-5,3,-8,9,5
1532493761898,-2,-2,0,-4,-2,3,0,-3
1532493761903,0,1,-2,-2,0,3,-12,-2
1532493761908,-3,2,3,4,-3,-5,8,-3
1532493761913,-1,0,-2,-1,4,6,-16,-3
1532493761918,-3,0,-3,-7,-8,-16,13,-8
1532493761923,0,-2,-1,2,3,14,16,-1
1532493761928,1,-1,0,-2,0,9,1,6
1532493761933,-2,0,-1,-1,-5,2,3,-8
1532493761938,0,-1,1,0,0,-6,-19,6
1532493761943,2,0,1,-1,1,0,2,6
1532493761948,0,0,-1,4,6,-8,15,-7
1532493761953,-1,-1,0,2,-2,6,1,1
1532493761958,-1,-1,0,1,3,7,-2,-6
1532493761963,-3,0,-2,-6,0,-16,-5,1
1532493761968,-1,-2,-3,-3,-5,2,-6,1
1532493761973,1,3,0,-2,-2,-4,-7,-4
1532493761978,0,-6,-1,1,0,1,-3,-2
1532493761983,-2,-1,1,4,-1,3,14,-2
1532493761988,-1,-1,-2,-3,0,-4,-3,-1
1532493761993,0,0,-1,-3,-4,8,1,5
1532493761998,0,1,-3,-7,-1,-8,5,-2
1532493762003,4,-1,4,4,0,-5,-14,19
1532493762008,1,-1,0,-2,-4,-3,2,-3
1532493762013,-1,-1,-2,-2,-1,-4,3,0
1532493762018,-1,2,1,1,3,12,-10,-1
1532493762023,-2,-1,2,1,0,-8,-3,-5
1532493762028,-1,0,-1,1,1,2,15,-4
1532493762033,1,-2,0,2,-1,-6,-3,10
1532493762038,0,0,-1,1,0,1,2,-5
1532493762043,-1,-2,8,-5,-1,1,-12,-9
1532493762048,1,-1,-11,2,-2,-5,-8,2
1532493762053,-1,-3,-1,-5,-4,1,4,-5
1532493762058,-1,-1,1,-1,-3,-7,-5,-2
1532493762063,-1,-3,-4,3,-2,7,0,-1
1532493762068,-1,1,3,-4,0,-7,-6,1
1532493762073,0,1,-2,-2,-1,-1,19,-3
1532493762078,0,-6,-3,-1,-6,-8,-10,6
1532493762083,-1,-2,-3,-1,-1,-4,-3,-11
1532493762088,0,0,4,-1,0,10,1,3
1532493762093,1,-1,-1,5,4,-8,-7,2
1532493762098,-2,3,10,-2,-4,-8,-3,-3
1532493762103,1,-1,-16,3,0,-4,-9,-10
1532493762108,4,-3,1,-4,1,5,14,17
1532493762113,-1,3,0,-4,1,5,6,-3
1532493762118,0,-1,-10,-1,0,-4,-15,8
1532493762123,-1,1,7,2,1,13,22,-3
1532493762128,-1,1,4,7,3,-9,-14,-4
1532493762133,0,-1,2,0,0,1,3,-2
1532493762138,-2,-1,-2,-7,-9,-7,-3,-5
1532493762143,-2,-1,-9,-6,-8,-2,-9,-4
1532493762148,-1,1,-1,4,1,0,-7,-7
1532493762153,1,0,5,1,1,5,14,11
1532493762158,-4,-3,1,-7,-11,-2,-3,-8
1532493762163,-2,-3,5,-4,-5,-5,-13,-4
1532493762168,2,1,-16,3,3,10,13,3
1532493762173,-2,5,8,0,1,-5,-5,-1
1532493762178,-1,-5,-4,1,0,-1,-10,-9
1532493762183,0,-1,0,0,6,3,13,6
1532493762188,0,0,0,-2,-4,1,0,6
1532493762193,-2,-1,-3,-4,-3,-3,3,-2
1532493762198,-3,-2,-8,-6,-3,-4,-13,-11
1532493762203,0,0,1,5,1,4,2,-2
1532493762208,4,0,4,3,4,2,7,12
1532493762213,3,-1,-3,-2,3,1,-5,1
1532493762218,-2,0,2,-4,2,0,-13,-1
1532493762223,-4,-8,-5,-1,-4,-5,1,-10
1532493762228,-2,-1,0,2,1,3,13,0
1532493762233,-1,-1,1,5,-1,1,-5,2
1532493762238,-2,-2,-2,-4,-1,-9,0,3
1532493762243,1,2,-3,-4,-4,5,-4,3
1532493762248,-1,-1,0,-1,-3,-17,-21,-8
1532493762253,-2,-1,-1,-1,2,2,21,2
1532493762258,0,0,-2,0,0,0,-3,1
1532493762263,-1,-1,1,3,0,0,-3,-7
1532493762268,0,0,0,-1,1,2,0,-1
1532493762273,2,-2,-1,-7,-4,3,-2,6
1532493762278,0,1,-2,0,-1,-1,1,-1
1532493762283,-3,0,3,2,-1,-5,-2,1
1532493762288,-1,0,4,-2,-2,-2,-5,-7
1532493762293,0,1,0,3,6,1,9,-1
1532493762298,0,-1,1,0,-3,3,8,1
1532493762303,1,-3,-3,-2,-1,-4,-9,-1
1532493762308,0,0,2,2,4,2,-7,-5
1532493762313,-2,-2,0,-3,-5,-5,-9,-3
1532493762318,0,0,7,-5,0,-1,13,2
1532493762323,-2,0,-18,-3,-3,1,-6,2
1532493762328,-3,-4,2,-2,-3,0,5,-1
1532493762333,0,0,-3,4,1,2,-1,1
1532493762338,-1,0,14,8,8,5,7,0
1532493762343,-3,-5,-10,-7,-7,-11,-9,-6
1532493762348,1,0,-4,-10,-8,2,7,-2
1532493762353,0,0,0,3,-1,1,-37,10
1532493762358,2,3,1,2,1,4,51,0
1532493762363,-2,1,5,3,5,2,2,1
1532493762368,-1,-1,1,4,0,-4,-3,-1
1532493762373,1,-6,-8,-6,-6,1,-4,-6
1532493762378,0,2,-1,1,0,-6,-25,2
1532493762383,0,-1,-1,0,-3,-6,-21,-5
1532493762388,-3,0,-1,-3,-4,3,14,1
1532493762393,-2,0,-3,-2,-1,3,16,1
1532493762398,0,0,-5,-3,-4,0,-13,-3
1532493762403,-1,-3,-6,-3,-2,-2,9,-5
1532493762408,0,-1,1,-4,-5,0,-15,-1
1532493762413,0,0,2,-1,-2,-8,-3,-6
1532493762418,-1,1,-6,2,2,8,-4,0
1532493762423,1,0,8,3,3,-3,16,4
1532493762428,0,0,1,-1,-1,-1,-3,-3
1532493762433,-2,-1,-2,-3,0,-9,-29,-5
1532493762438,-1,-3,-10,-3,-5,4,27,-2
1532493762443,4,3,4,4,1,9,10,21
1532493762448,0,-1,1,3,3,-3,2,-2
1532493762453,-2,-2,0,2,-2,-3,-4,-3
1532493762458,1,-2,-1,-6,-4,-5,-23,4
1532493762463,-3,-1,-3,-4,-2,-3,2,-13
1532493762468,-1,-1,-5,0,0,6,8,2
1532493762473,1,2,4,6,3,-1,4,3
1532493762478,0,-2,-3,-3,-2,1,-1,0
1532493762483,-2,-4,-1,-4,-1,-6,-2,-7
1532493762488,-1,5,-3,-4,-2,1,-5,-3
1532493762493,-2,-6,-4,-3,-8,-4,-11,-5
1532493762498,2,0,0,2,2,3,-4,5
1532493762503,0,-1,-3,-1,-5,-5,15,-4
1532493762508,-4,-4,-6,-1,6,5,8,10
1532493762513,1,1,-1,4,5,0,-3,-3
1532493762518,-1,-3,3,-1,0,4,4,-6
1532493762523,0,0,5,-3,-4,-9,-29,1
1532493762528,-1,-3,-4,-3,-4,-3,-3,-5
1532493762533,-1,1,1,0,1,3,23,-1
1532493762538,-3,-1,1,4,2,-4,-18,-5
1532493762543,0,1,-2,-1,2,-3,-2,3
1532493762548,0,0,-2,0,-4,-5,5,1
1532493762553,-2,-2,1,-10,-4,-1,3,-1
1532493762558,-2,-3,-3,-2,-4,-6,-3,0
1532493762563,0,1,4,8,9,9,1,-2
1532493762568,0,-3,-4,-4,-6,-4,-14,2
1532493762573,-2,0,4,1,0,-2,17,-2
1532493762578,-1,1,-3,0,5,7,11,-8
1532493762583,-2,-2,-2,-3,-4,0,-2,12
1532493762588,0,-2,-1,2,3,-4,-26,-1
1532493762593,-1,-3,-6,-1,2,8,14,2
1532493762598,-1,-1,2,0,-1,-7,-7,-2
1532493762603,0,7,0,-3,-4,-4,-5,-8
1532493762608,-1,-6,4,4,3,-3,2,-3
1532493762613,-1,0,-1,-5,-6,-5,-1,1
1532493762618,-1,1,4,3,3,3,5,3
1532493762623,-1,-5,-2,-4,0,4,-7,-4
1532493762628,-3,3,0,-6,-8,-4,2,-5
1532493762633,-3,1,1,-2,2,3,3,-5
1532493762638,0,-5,-4,-2,-4,-1,3,6
1532493762643,0,-1,-5,1,-1,-4,-5,1
1532493762648,-1,1,7,2,4,-2,-13,-6
1532493762653,2,-2,-5,-1,-1,3,50,-3
1532493762658,0,3,0,1,-1,-3,-13,3
1532493762663,-2,-4,1,-1,0,5,-2,-3
1532493762668,1,-1,-7,0,-4,2,3,1
1532493762673,0,0,7,4,3,3,-16,-2
1532493762678,-2,0,-4,-4,-1,-8,-18,-7
1532493762683,-2,-3,1,-7,-7,3,16,1
1532493762688,-1,1,2,1,0,-4,-2,-2
1532493762693,1,-1,-4,-2,-3,-3,-8,5
1532493762698,-3,-3,4,-2,-1,1,-9,-1
1532493762703,-2,-1,1,7,7,4,3,-7
1532493762708,1,0,-5,-4,-2,1,4,2
1532493762713,-1,0,8,-4,-6,-4,23,1
1532493762718,-2,-5,-2,0,-3,-2,-6,-3
1532493762723,1,1,-3,-2,0,-2,-9,-3
1532493762728,-2,-5,0,-2,-1,-1,10,-1
1532493762733,0,0,3,2,2,1,-19,0
1532493762738,0,1,-16,-7,-1,-5,17,10
1532493762743,-2,-4,2,-1,-4,-6,-10,-14
1532493762748,4,3,6,4,4,3,6,17
1532493762753,-2,-2,-4,2,-1,-4,-21,-4
1532493762758,0,-2,0,-5,-3,2,2,-1
1532493762763,-2,1,-3,-3,1,-7,6,-3
1532493762768,-2,-1,-5,-4,-9,-16,-13,-11
1532493762773,-5,-1,1,2,1,2,22,-2
1532493762778,3,0,3,3,-2,-1,-22,5
1532493762783,0,-3,2,8,5,4,25,1
1532493762788,-3,-5,-7,-12,-3,5,2,-3
1532493762793,0,-1,-2,-9,-10,-9,-22,-3
1532493762798,-3,-1,2,-2,-7,-10,10,-5
1532493762803,0,0,0,0,-2,0,-13,1
1532493762808,2,8,11,11,7,2,6,0
1532493762813,0,-10,-8,3,8,-1,-6,3
1532493762818,-2,0,-7,-5,-1,3,10,3
1532493762823,1,-2,-2,-4,-7,-3,-8,-3
1532493762828,-2,-2,-4,-1,-6,-4,-7,-14
1532493762833,2,4,-5,-2,-5,6,10,3
1532493762838,-2,2,4,5,7,-4,15,-6
1532493762843,-2,0,1,4,7,3,4,5
1532493762848,-3,-2,-11,-7,-7,-15,-9,-9
1532493762853,0,-1,-4,-6,0,4,15,-1
1532493762858,3,-4,2,1,-1,2,-9,10
1532493762863,0,0,-7,-2,1,5,0,1
1532493762868,-1,1,9,5,5,6,14,-4
1532493762873,-2,4,1,0,-8,-24,-42,-5
1532493762878,-3,-3,1,-3,2,12,18,-1
1532493762883,-2,1,-6,-2,-3,-8,-10,1
1532493762888,0,-2,2,4,3,9,1,-3
1532493762893,-1,-1,-1,1,1,4,-9,-5
1532493762898,-1,1,-1,-3,2,-9,-22,-8
1532493762903,2,4,7,-3,-5,7,21,-1
1532493762908,-4,-16,-27,-10,-8,-11,-26,-8
1532493762913,-1,2,3,0,-3,-10,22,6
1532493762918,-1,0,-7,3,-1,3,-12,-2
1532493762923,-3,-4,4,1,-1,-6,-5,-2
1532493762928,1,5,5,5,5,7,-3,14
1532493762933,3,1,-5,0,8,11,13,8
1532493762938,3,3,4,5,1,1,14,8
1532493762943,-3,-2,-10,-6,-2,1,2,-3
1532493762948,0,1,8,1,0,3,3,-5
1532493762953,-1,-2,0,1,3,6,-10,13
1532493762958,-2,0,3,-1,-5,-8,3,-8
1532493762963,-3,-3,-11,-9,-7,-1,-13,3
1532493762968,3,2,6,3,1,5,24,5
1532493762973,0,0,4,-4,-3,-8,-12,-11
1532493762978,-2,-5,-8,1,-4,-3,-2,1
1532493762983,1,0,9,4,-4,-18,-19,-9
1532493762988,-2,-3,-1,-7,-5,-4,21,0
1532493762993,-1,2,7,6,3,0,0,-12
1532493762998,2,0,-4,-5,-7,4,-4,2
1532493763003,0,-5,-1,-5,0,-4,-1,-4
1532493763008,-1,2,5,5,12,14,22,3
1532493763013,1,-2,3,-4,-7,2,-4,-5
1532493763018,-3,0,-8,5,7,0,8,-2
1532493763023,2,3,3,1,-2,4,3,-1
1532493763028,-2,-2,-7,-11,-12,-13,-18,2
1532493763033,0,-3,0,1,1,5,14,-1
1532493763038,-2,0,3,-1,1,0,7,-27
1532493763043,3,3,5,6,4,8,8,15
1532493763048,1,0,1,-1,5,6,-5,3
1532493763053,-3,-3,-13,-4,-4,-7,-31,-11
1532493763058,-1,-2,-1,-2,-4,1,19,7
1532493763063,-4,0,-4,-2,-4,-4,-6,-6
1532493763068,-2,-2,0,0,-1,-4,-10,-4
1532493763073,-4,0,2,4,4,2,-2,8
1532493763078,0,-1,0,-9,-7,-10,-7,10
1532493763083,-4,-4,-9,-10,-8,-3,-2,-1
1532493763088,-1,0,0,-1,-1,-1,-3,-2
1532493763093,-4,0,0,-1,1,-1,-23,-5
1532493763098,0,-1,4,4,2,-1,15,-13
1532493763103,2,-1,2,1,1,4,6,17
1532493763108,1,1,-2,0,-3,-6,-12,-10
1532493763113,0,1,-5,-1,-3,1,3,3
1532493763118,-3,0,5,2,2,-5,-25,-3
1532493763123,1,-1,-7,-6,-2,-2,0,-3
1532493763128,-1,0,-1,-1,-1,0,-6,9
1532493763133,-4,-1,-3,-4,-4,-4,14,-6
1532493763138,-1,0,-1,-2,0,5,-2,-1
1532493763143,4,1,3,3,1,5,3,12
1532493763148,-2,0,1,3,4,1,-7,4
1532493763153,-2,-3,-6,-4,3,-13,-19,1
1532493763158,-1,0,2,-2,-5,17,35,-18
1532493763163,-2,0,1,5,5,-6,-5,-16
1532493763168,2,-3,-4,-3,-4,-1,6,4
1532493763173,0,-1,1,-2,-1,-1,-9,-8
1532493763178,-1,-1,2,7,7,3,-5,8
1532493763183,0,0,-1,0,1,1,-11,5
1532493763188,-3,-3,-4,-11,-12,-3,2,-2
1532493763193,-2,-1,-1,-1,-1,3,4,0
1532493763198,-1,-1,-3,-4,-3,-8,1,5
1532493763203,-7,-1,2,3,-3,-4,-23,-21
1532493763208,8,4,2,7,9,17,39,24
1532493763213,4,0,-1,-5,3,1,5,18
1532493763218,-1,-2,3,3,4,-4,-10,-6
1532493763223,-3,-3,-5,-5,-8,-5,-10,-9
1532493763228,-4,-3,-4,-4,-3,-5,-5,-1
1532493763233,0,0,0,-2,-8,-4,12,-10
1532493763238,-1,-2,-2,-3,0,-1,-15,16
1532493763243,1,0,3,2,5,3,14,3
1532493763248,-2,1,2,7,5,1,-9,-11
1532493763253,-1,-2,-9,-4,-10,-1,8,4
1532493763258,-1,-1,5,-3,-6,-9,-12,-4
1532493763263,-3,1,-16,-6,1,8,18,1
1532493763268,3,-3,7,-1,-2,-6,-5,-3
1532493763273,-4,3,7,7,7,-5,-6,-3
1532493763278,-1,-2,-5,-5,-4,-1,-4,-3
1532493763283,0,3,4,0,-2,-1,1,1
1532493763288,-1,-2,-6,-5,-4,-3,-3,-4
1532493763293,2,-1,2,0,1,9,8,13
1532493763298,1,0,-2,0,-1,-1,-11,3
1532493763303,2,0,9,7,6,4,12,4
1532493763308,-4,2,-3,2,1,-6,-18,-7
1532493763313,3,0,-4,-4,-2,3,16,4
1532493763318,-2,-2,-5,-3,-6,1,-3,1
1532493763323,-1,-2,-1,-4,-2,0,-4,1
1532493763328,-3,0,6,7,1,-2,4,-8
1532493763333,-1,-1,1,1,2,1,-8,-9
1532493763338,1,1,-17,-2,-2,-4,0,0
1532493763343,-1,-4,12,-2,3,-1,14,-8
1532493763348,-1,-1,5,4,-1,-3,-3,3
1532493763353,0,-1,9,-5,-1,3,-5,-1
1532493763358,0,-3,-6,-1,-4,-5,-4,0
1532493763363,-1,-1,-3,0,1,-2,-3,-3
1532493763368,-1,0,-8,0,4,0,1,2
1532493763373,0,1,2,1,0,0,4,-3
1532493763378,0,-2,2,-3,-3,1,-3,1
1532493763383,0,-2,-4,-2,-3,-1,0,5
1532493763388,0,-1,6,-3,-4,0,-4,-1
1532493763393,-2,0,-15,-1,2,8,1,2
1532493763398,-2,0,11,7,7,-2,-4,-1
1532493763403,0,0,-6,0,0,-9,-5,7
1532493763408,1,-2,-6,-11,-8,4,7,13
1532493763413,0,0,-1,-3,-5,-11,-11,6
1532493763418,0,2,0,0,-2,3,4,-3
1532493763423,-3,-1,-5,7,6,5,0,-1
1532493763428,-2,-4,-1,0,3,-5,1,-6
1532493763433,1,-2,1,-1,0,0,-3,-4
1532493763438,-2,1,-5,-1,2,-1,-1,-3
1532493763443,-5,-3,1,-6,-6,-1,2,-1
1532493763448,1,0,1,-4,-2,-2,-6,9
1532493763453,-3,0,-1,2,0,-1,4,5
1532493763458,1,-3,-4,-1,0,-4,-6,9
1532493763463,0,-1,6,2,3,-4,4,0
1532493763468,-1,2,-1,0,-1,5,2,-1
1532493763473,-2,-1,5,5,4,3,-5,7
1532493763478,0,1,-1,-4,-5,1,0,1
1532493763483,-3,-4,-8,-8,-10,-10,-10,-6
1532493763488,0,-1,-2,0,1,-2,-11,-10
1532493763493,3,-2,6,0,-2,-4,-10,-3
1532493763498,-1,1,-18,-2,1,7,4,-11
1532493763503,-1,0,4,1,2,1,-1,-12
1532493763508,-1,-1,-2,-1,-4,-3,7,-17
1532493763513,0,1,0,-2,-2,0,3,1
1532493763518,-2,-2,4,1,0,-5,-2,-10
1532493763523,2,3,1,3,0,7,32,-8
1532493763528,-2,-2,-4,0,3,-1,2,-12
1532493763533,-3,-3,-3,-3,-6,-3,4,-15
1532493763538,0,3,6,-3,-4,-3,-2,10
1532493763543,3,0,-3,-1,-3,1,-4,11
1532493763548,-1,0,6,4,3,-1,3,7
1532493763553,1,-1,-7,-2,0,-2,-3,-7
1532493763558,-3,-2,7,-3,3,3,2,-17
1532493763563,-1,-2,-4,0,-6,-4,-5,-13
1532493763568,-3,-2,-3,2,5,4,-8,-13
1532493763573,-3,-3,-4,-3,-5,2,7,-13
1532493763578,0,-1,2,-6,-8,-15,-2,-4
1532493763583,1,-3,-1,0,4,13,7,9
1532493763588,1,-1,-1,1,-4,-13,-12,0
1532493763593,-1,-3,-2,2,4,0,12,-6
1532493763598,1,1,3,1,4,7,5,-2
1532493763603,-1,-2,-1,1,1,-5,-8,2
1532493763608,-2,-2,-9,-10,-16,5,6,-11
1532493763613,2,0,1,-1,6,4,-7,20
1532493763618,2,-2,1,-2,-1,-10,-25,6
1532493763623,4,2,2,1,1,2,22,12
1532493763628,-1,-1,0,2,7,-2,0,1
1532493763633,-4,0,-2,-2,-7,-2,0,-6
1532493763638,-1,-1,-1,1,1,9,-12,4
1532493763643,-5,0,-3,-4,1,-13,-1,-8
1532493763648,0,2,2,-2,-2,-2,3,4
1532493763653,-3,-3,-1,1,1,-2,-1,9
1532493763658,-3,-2,0,4,5,5,5,-14
1532493763663,2,-1,-1,-6,-11,-9,-26,10
1532493763668,1,1,1,-1,3,-10,13,5
1532493763673,2,2,-1,1,3,9,1,-3
1532493763678,-2,-2,-3,2,-3,-14,-3,3
1532493763683,-3,-1,1,1,3,10,2,-8
1532493763688,-2,-2,1,-3,-8,-1,-6,-11
1532493763693,3,-2,-2,-2,1,-1,-1,34
1532493763698,-1,2,-1,0,2,6,9,-6
1532493763703,0,0,2,4,-8,8,-11,1
1532493763708,-1,-4,-6,-7,7,3,6,3
1532493763713,-4,-4,-5,-5,-17,-14,-5,-2
1532493763718,2,0,0,-3,1,8,9,2
1532493763723,3,-1,-1,1,1,1,-5,4
1532493763728,-1,2,2,4,-2,-4,-11,-2
1532493763733,-1,1,2,8,13,11,-1,-10
1532493763738,-1,0,-3,-6,-14,-11,-10,0
1532493763743,-2,-1,-2,-5,-3,-7,-5,5
1532493763748,1,-3,-2,-3,-5,5,12,-2
1532493763753,0,1,-2,-5,-10,-9,-9,-9
1532493763758,0,-3,3,9,9,0,-9,1
1532493763763,-6,-2,-5,-1,4,0,0,-18
1532493763768,3,0,-5,-3,-2,4,10,26
1532493763773,0,-3,2,4,6,-7,-3,8
1532493763778,1,-1,-2,-1,-4,13,6,0
1532493763783,-2,-1,-3,-2,3,-3,2,-1
1532493763788,-3,-1,0,-2,-1,-9,-8,2
1532493763793,-2,-2,-1,0,-5,5,0,-18
1532493763798,1,0,-1,-2,-4,-2,4,11
1532493763803,0,1,0,0,-2,-5,-5,1
1532493763808,-1,-2,1,5,4,-13,14,-4
1532493763813,3,2,0,0,-7,6,-3,4
1532493763818,0,-3,-3,-1,2,-8,0,0
1532493763823,-2,-2,-1,-4,-2,1,-7,3
1532493763828,-3,0,1,5,1,3,-18,-6
1532493763833,-2,-4,-2,-4,0,2,8,-8
1532493763838,0,1,-5,1,-3,-8,9,4
1532493763843,0,-2,-1,1,7,7,8,-15
1532493763848,0,-1,-1,-1,-4,4,-3,12
1532493763853,-1,1,2,-1,2,-5,-17,-3
1532493763858,-1,-2,-2,-4,-4,13,23,-1
1532493763863,-3,-2,-1,3,2,-9,-3,-11
1532493763868,-1,-1,-3,-3,-5,-8,-4,9
1532493763873,0,1,1,-2,2,0,2,-7
1532493763878,-3,-3,0,-2,-4,-2,-5,1
1532493763883,1,1,1,0,-2,2,1,4
1532493763888,-2,-2,-1,2,4,12,4,-6
1532493763893,-2,-2,-2,-3,2,-5,6,-4
1532493763898,0,2,6,-4,0,-5,5,-6
1532493763903,1,1,10,4,1,-5,-20,1
1532493763908,3,3,-4,-1,1,15,-2,7
1532493763913,-2,-1,-3,1,-3,-1,-6,1
1532493763918,-1,-2,-1,0,2,-12,16,-4
1532493763923,-1,0,1,-4,-5,-4,-2,2
1532493763928,-1,-1,-1,1,4,6,-3,-4
1532493763933,-1,0,2,1,-3,-4,-6,-5
1532493763938,-3,2,-1,-5,-3,-1,6,1
1532493763943,-2,-9,-4,-4,-7,5,-4,-7
1532493763948,1,0,0,0,-2,-8,0,11
1532493763953,0,0,-1,1,2,5,4,0
1532493763958,0,-1,-2,5,4,0,-15,-3
1532493763963,1,-1,-4,-1,0,2,7,5
1532493763968,-1,-4,-1,2,2,14,-11,1
1532493763973,-3,1,1,0,-2,-10,-22,-10
1532493763978,-5,0,-1,0,-1,2,33,-8
1532493763983,-1,0,0,0,2,-5,2,4
1532493763988,-2,-1,2,-3,-10,-8,-15,-16
1532493763993,0,5,-3,-1,-3,3,7,21
1532493763998,4,-5,3,1,2,4,-7,-1
1532493764003,1,0,-1,-3,-6,5,-12,-6
1532493764008,-4,-2,4,1,4,-2,6,-4
1532493764013,2,2,0,4,6,0,28,6
1532493764018,-3,-1,-3,-6,-3,-5,-9,-3
1532493764023,0,-2,0,1,1,6,4,0
1532493764028,2,1,-2,-4,-4,1,-13,-6
1532493764033,-1,0,-4,2,4,0,-4,1
1532493764038,-1,-2,2,0,-4,0,-1,-7
1532493764043,-1,-3,-4,-5,-4,-8,-7,8
1532493764048,0,-1,-1,-2,-1,-1,2,5
1532493764053,-1,0,5,0,-2,-9,-9,-1
1532493764058,0,-1,-1,4,0,2,-7,-9
1532493764063,-1,2,10,1,4,-6,12,-3
1532493764068,-2,-2,-13,-1,2,0,-4,0
1532493764073,-1,-4,3,-4,-8,-7,-6,-5
1532493764078,-2,-1,-1,-2,0,16,13,10
1532493764083,4,3,4,2,1,-18,-15,-4
1532493764088,1,0,6,5,6,7,6,5
1532493764093,-2,-5,-5,-5,-7,2,2,-11
1532493764098,-1,0,-2,-3,-3,-16,-36,-10
1532493764103,-3,-4,-6,-4,0,12,39,8
1532493764108,0,-1,1,-3,-1,9,7,2
1532493764113,-4,-3,0,0,2,-7,-23,-19
1532493764118,1,2,1,1,-4,9,8,20
1532493764123,0,-4,-6,2,1,5,1,-2
1532493764128,0,1,-1,-2,-11,-18,-13,-2
1532493764133,0,-2,-3,-5,1,8,16,12
1532493764138,-3,-1,3,0,4,-8,-33,-17
1532493764143,1,2,-1,-1,1,-4,35,2
1532493764148,-2,0,-2,1,2,18,4,-3
1532493764153,-1,-2,-1,0,0,5,-6,-1
1532493764158,0,0,-1,0,0,-14,6,-5
1532493764163,-5,-3,-7,-4,-7,-12,-38,-6
1532493764168,-1,-2,3,-2,1,3,18,6
1532493764173,1,2,-2,-3,-3,-1,6,-1
1532493764178,2,-2,1,-2,-1,-1,6,19
1532493764183,-3,5,-19,1,1,6,-7,-5
1532493764188,-2,-9,0,1,-2,-14,-12,-1
1532493764193,1,0,1,4,2,1,6,-1
1532493764198,-3,-2,-3,0,0,4,5,-13
1532493764203,-1,-2,5,-4,-7,-4,-11,4
1532493764208,1,4,2,3,9,3,-6,0
1532493764213,1,-1,-5,-3,-10,-6,11,4
1532493764218,0,0,-4,-5,-4,3,8,0
1532493764223,-3,-3,-2,-3,-6,-9,-16,-19
1532493764228,0,0,-3,-4,-4,7,14,9
1532493764233,0,0,-1,2,5,-5,-14,-3
1532493764238,-2,-1,-2,1,1,8,20,-7
1532493764243,-3,-2,0,2,6,-3,-31,-9
1532493764248,1,-2,-1,-1,2,-4,-3,9
1532493764253,-3,-2,-2,-4,-5,1,2,-14
1532493764258,0,-2,2,3,11,1,-6,18
1532493764263,1,-3,-1,-6,-7,7,8,0
1532493764268,1,2,-5,-4,-21,-23,-4,0
1532493764273,1,-1,2,-1,-6,7,3,9
1532493764278,-5,1,-4,-5,2,-1,-3,-23
1532493764283,-2,-1,6,8,8,2,2,8
1532493764288,-1,-1,0,-2,7,1,2,-5
1532493764293,1,-2,0,2,1,-12,-16,3
1532493764298,3,0,-2,2,-7,8,7,8
1532493764303,0,1,-1,-7,-4,17,28,-3
1532493764308,-5,-2,1,2,5,-11,-9,-4
1532493764313,-4,0,-4,1,0,5,3,-8
1532493764318,-3,-1,0,-1,-3,-15,7,-9
1532493764323,4,1,-1,-1,6,-10,-14,12
1532493764328,-5,-3,-6,-8,-13,2,-3,-10
1532493764333,-1,0,3,-1,0,-6,-2,0
1532493764338,2,0,1,-1,-1,2,7,10
1532493764343,1,-1,-1,2,-1,-3,3,11
1532493764348,1,-1,0,1,6,8,-2,-8
1532493764353,-1,-3,0,1,5,4,1,3
1532493764358,-4,0,-6,-2,-7,-2,-5,-11
1532493764363,-3,-1,1,2,1,-7,-5,-11
1532493764368,0,2,0,0,-1,1,6,15
1532493764373,3,-2,-3,0,6,14,4,0
1532493764378,-1,-1,2,-2,-2,-7,-10,-3
1532493764383,0,-3,-2,-4,-17,2,9,-4
1532493764388,-3,-3,4,0,5,-9,-22,-8
1532493764393,0,0,-2,-6,-3,-6,5,4
1532493764398,-1,1,-1,0,1,-2,6,-1
1532493764403,-1,-2,1,1,2,0,-15,-2
1532493764408,0,-1,-5,-2,-6,4,5,1
1532493764413,-2,-1,0,1,-2,1,-23,-4
1532493764418,-1,-2,-2,-1,1,-3,0,1
1532493764423,-2,-2,0,-1,2,-2,7,-4
1532493764428,1,-1,2,1,-1,11,-2,-10
1532493764433,1,0,0,-2,4,-9,13,9
1532493764438,1,-2,-3,-1,-1,5,-15,-4
1532493764443,-3,-2,1,4,0,-27,-13,-5
1532493764448,1,-2,0,2,2,8,19,11
1532493764453,-3,0,0,-3,-5,6,-8,-4
1532493764458,-1,2,-3,-4,-4,-2,-2,-11
1532493764463,0,0,3,-2,0,15,-12,10
1532493764468,2,-2,5,4,3,-3,7,9
1532493764473,2,-1,0,2,0,-2,11,1
1532493764478,-1,-1,1,3,6,-13,-11,1
1532493764483,-3,0,-1,-6,-10,1,-7,-12
1532493764488,-2,2,-1,-3,-6,0,18,2
1532493764493,1,1,-3,-1,1,0,-10,3
1532493764498,-3,-5,-2,-5,0,-4,-2,-7
1532493764503,-2,0,-1,3,1,4,4,-9
1532493764508,-2,-1,-3,-1,-2,2,-7,-5
1532493764513,4,0,2,-5,-5,-14,8,22
1532493764518,0,-1,1,1,0,15,5,-4
1532493764523,0,-2,-6,-1,4,-4,-11,1
1532493764528,-1,-2,4,1,-1,3,1,-11
1532493764533,-5,-3,-12,-2,0,-8,-3,-5
1532493764538,-1,1,0,-4,-8,-6,7,9
1532493764543,4,-1,0,1,4,7,12,8
1532493764548,-1,-1,-1,2,3,-1,-4,-2
1532493764553,-3,0,1,-5,1,13,-48,-17
1532493764558,1,-1,-1,-1,-4,-11,43,3
1532493764563,-1,2,-1,3,4,11,23,1
1532493764568,0,7,-3,-2,2,-6,-4,0
1532493764573,-2,-6,-1,-3,-3,-1,7,-7
1532493764578,-2,-3,4,-2,-1,4,-28,1
1532493764583,2,-2,-9,-6,-6,-7,-15,0
1532493764588,1,2,-2,1,2,8,25,13
1532493764593,-3,0,-1,1,-3,4,13,-19
1532493764598,1,-3,2,-1,-1,2,1,25
1532493764603,-5,0,2,1,0,-17,-13,-8
1532493764608,5,0,6,2,2,5,-15,1
1532493764613,-2,0,-4,-2,-3,7,18,1
1532493764618,1,0,-3,1,0,-9,-3,-7
1532493764623,-1,4,3,-1,1,2,-9,-1
1532493764628,-4,-7,-4,-6,-3,-9,-10,-11
1532493764633,3,0,-3,6,0,-7,5,7
1532493764638,-1,2,-1,-2,3,5,6,-7
1532493764643,-2,-1,-1,-3,-6,3,13,4
1532493764648,-3,-5,-6,-3,-2,-8,-16,-5
1532493764653,-1,0,3,0,3,1,-8,-1
1532493764658,-1,2,1,1,5,14,21,-1
1532493764663,1,0,5,-4,-9,-17,-6,-1
1532493764668,-2,-3,-13,-3,-7,-28,3,-1
1532493764673,-1,-3,4,0,-4,-5,-9,5
1532493764678,-4,2,-1,0,0,-2,-10,-14
1532493764683,4,-6,5,1,5,29,10,7
1532493764688,2,2,4,-1,-1,-3,-3,3
1532493764693,-1,-1,-3,-4,0,-7,-9,1
1532493764698,-2,-2,4,0,-5,-1,-5,1
1532493764703,-1,5,-13,0,3,-5,-2,-12
1532493764708,-3,-10,5,0,-2,0,-7,5
1532493764713,2,4,-6,-2,-2,2,0,3
1532493764718,-2,-3,8,-1,-2,2,1,-6
1532493764723,-19,-4,1,-6,-1,-8,-5,-4
1532493764728,17,4,-34,1,1,9,-11,1
1532493764733,-18,-2,11,1,2,4,4,1
1532493764738,27,5,2,1,-4,-10,-16,3
1532493764743,-5,4,3,0,1,-1,7,0
1532493764748,-8,1,-1,-5,-6,8,10,-6
1532493764753,6,0,1,0,-1,-6,-6,0
1532493764758,-11,4,-9,-2,-2,-3,-6,-4
1532493764763,6,-5,1,3,3,4,2,7
1532493764768,0,-4,7,-1,0,-3,-5,-3
1532493764773,2,-3,-3,-1,-4,-1,-2,-2
1532493764778,-6,-2,3,-3,-1,-12,-11,-1
1532493764783,5,-4,-4,0,3,9,21,4
1532493764788,-2,1,5,1,-2,3,-1,0
1532493764793,-4,1,4,0,-2,-4,3,-3
1532493764798,-2,-2,-11,1,2,-1,-9,-3
1532493764803,4,-4,0,0,0,-9,-5,-3
1532493764808,-3,4,0,-3,0,-3,1,1
1532493764813,0,-2,1,-3,-6,16,9,0
1532493764818,-2,-6,-2,-6,-5,-11,-6,-4
1532493764823,0,2,-2,1,-1,-9,-7,1
1532493764828,-4,-1,6,-1,-1,-1,-5,-3
1532493764833,0,-2,-5,1,0,-13,0,-6
1532493764838,-1,-1,-1,3,2,11,21,5
1532493764843,-2,-1,-2,-1,-7,-1,-3,-2
1532493764848,-1,1,3,0,6,-9,-9,-7
1532493764853,1,-2,-4,-5,-4,30,5,0
1532493764858,-4,-2,-4,0,4,-28,-33,-6
1532493764863,-1,1,2,2,-1,15,28,3
1532493764868,-1,-2,0,1,4,19,10,1
1532493764873,0,-1,-1,-1,0,-23,0,-3
1532493764878,-2,-2,-2,-3,-5,-5,-10,1
1532493764883,-1,-4,-6,-5,3,-5,-6,-3
1532493764888,0,0,4,2,-13,11,-12,-3
1532493764893,0,-1,-3,1,10,8,6,-11
1532493764898,-2,-1,-2,1,7,-6,-1,5
1532493764903,1,0,-1,0,7,-2,-20,5
1532493764908,-1,0,0,-1,-6,-7,19,1
1532493764913,-2,0,-1,1,-3,-7,-5,-4
1532493764918,-2,-3,-2,-3,-7,17,4,-9
1532493764923,1,0,0,0,-3,-9,9,5
1532493764928,-1,-1,2,4,-2,0,-4,0
1532493764933,2,2,-1,1,13,1,-2,6
1532493764938,0,-1,0,1,-3,3,6,-3
1532493764943,0,0,-1,2,-1,4,-11,-5
1532493764948,-4,-2,-7,-10,-6,-7,1,-2
1532493764953,0,0,2,1,-9,-11,1,4
1532493764958,-1,-2,-3,-2,-1,10,7,3
1532493764963,1,0,2,0,2,3,-2,-7
1532493764968,0,0,2,5,6,-5,-2,-1
1532493764973,-1,-2,-4,-1,-4,-4,0,-2
1532493764978,-1,-1,-2,-4,-5,5,5,-8
1532493764983,-2,-1,0,4,-4,-4,0,10
1532493764988,1,5,-1,-4,5,0,2,2
1532493764993,-1,-5,-2,-5,-7,4,-4,-2
1532493764998,-1,0,2,6,6,8,3,7
1532493765003,-3,0,0,-2,-3,-17,-2,-12
1532493765008,0,-1,-1,-5,-8,4,10,4
1532493765013,1,2,0,2,9,13,0,6
1532493765018,-2,-2,-3,-1,-3,-10,-5,3
1532493765023,1,0,-2,-3,-2,15,2,0
1532493765028,-2,0,2,3,5,-7,-5,-1
1532493765033,0,-1,0,1,4,7,3,-4
1532493765038,0,0,-1,-3,-3,-10,-6,-3
1532493765043,-2,-1,-1,0,-2,-3,-1,-3
1532493765048,0,-3,-1,-1,0,-3,-3,-2
1532493765053,0,1,0,0,-4,1,4,6
1532493765058,0,-5,0,3,1,11,13,-2
1532493765063,-2,-1,-2,-4,-6,-4,-9,0
1532493765068,-2,-2,-1,-2,-3,1,17,-3
1532493765073,0,2,1,8,4,-7,-10,3
1532493765078,1,-1,-4,-3,0,-5,-1,-1
1532493765083,0,-2,-1,-2,-4,0,-19,-8
1532493765088,0,1,2,3,8,15,-2,12
1532493765093,-1,-3,-2,-8,-17,-7,23,-4
1532493765098,-1,3,2,3,3,0,-6,-1
1532493765103,0,-4,-1,3,1,4,16,-3
1532493765108,-3,0,0,3,2,0,-11,-7
1532493765113,-2,-2,-6,-8,-8,-16,-9,-1
1532493765118,-2,-1,-2,-4,-1,1,-5,-8
1532493765123,2,0,0,1,2,2,12,9
1532493765128,1,-1,3,1,5,6,2,-3
1532493765133,0,0,2,5,2,-6,-6,3
1532493765138,-2,1,1,1,9,-11,-3,-5
1532493765143,-1,-3,-3,-7,-18,3,-6,-3
1532493765148,-4,-5,-6,-6,-9,-10,-4,-1
1532493765153,0,1,-1,-1,-1,-4,-4,-4
1532493765158,-1,-2,-1,-3,1,1,-18,-3
1532493765163,-2,-1,4,8,6,4,-5,1
1532493765168,1,-2,0,-1,-9,-6,33,0
1532493765173,-2,0,-2,-9,-11,-16,-2,1
1532493765178,0,2,-1,-2,6,17,10,6
1532493765183,0,0,-3,-6,-2,1,1,10
1532493765188,-3,0,-1,-1,-5,-1,-24,-7
1532493765193,-1,2,3,5,10,8,4,-2
1532493765198,0,-5,1,2,-7,1,6,1
1532493765203,0,1,2,0,5,6,-3,-5
1532493765208,-1,-2,-3,-5,1,-5,-6,1
1532493765213,-2,-1,-5,-1,-4,-1,1,-2
1532493765218,-2,-2,-2,-2,-7,-2,2,-3
1532493765223,-1,1,0,4,0,-1,3,-1
1532493765228,-1,1,-2,2,9,1,-1,-1
1532493765233,-1,-1,1,-1,3,3,-5,-3
1532493765238,1,2,-2,-3,-6,3,-1,4
1532493765243,-2,-2,-7,-7,-4,-4,2,-3
1532493765248,-1,1,2,-1,-1,-7,2,1
1532493765253,0,-2,0,0,0,3,-4,-2
1532493765258,-1,-1,2,5,6,-4,4,-1
1532493765263,0,1,0,-2,-1,-3,-5,0
1532493765268,-2,-2,-2,-1,0,3,12,-3
1532493765273,-3,0,-2,-5,-6,-16,-25,-8
1532493765278,0,-2,2,1,2,12,30,4
1532493765283,-1,0,0,2,3,-5,-2,0
1532493765288,1,-1,-1,-1,0,-4,-3,0
1532493765293,-2,-3,-2,-5,-5,6,-5,-6
1532493765298,-1,-2,-2,-3,-7,-2,-6,-3
1532493765303,-2,1,2,-1,-1,-1,4,-4
1532493765308,-1,-2,1,3,-4,-3,-8,4
1532493765313,1,0,1,4,11,8,11,1
1532493765318,-1,0,-4,-2,-5,-9,-14,-4
1532493765323,-3,-3,8,-6,-11,-1,3,3
1532493765328,-2,0,-12,-4,1,-3,2,-11
1532493765333,1,0,1,8,3,2,3,10
1532493765338,0,0,1,4,8,2,0,-5
1532493765343,1,1,4,-1,1,1,-4,2
1532493765348,0,1,5,0,0,-1,2,3
1532493765353,-2,-1,1,-1,1,1,2,-6
1532493765358,-1,-7,5,-4,-6,-2,-2,-4
1532493765363,2,1,-10,3,5,-3,-1,-2
1532493765368,-4,-1,9,3,0,2,-9,2
1532493765373,-2,0,-16,-4,-5,-2,19,0
1532493765378,-3,0,-11,-4,-2,-5,-8,4
1532493765383,1,1,4,-3,4,-1,3,-4
1532493765388,1,2,2,-4,-9,0,-5,1
1532493765393,-3,-5,4,7,6,2,-5,0
1532493765398,-1,-2,-2,0,3,-5,3,-2
1532493765403,-2,0,-4,5,-1,-3,6,-10
1532493765408,2,-2,-12,-4,10,-2,-9,3
1532493765413,-2,-1,11,-5,-16,0,7,0
1532493765418,-2,-2,-4,-8,-3,-2,-11,-5
1532493765423,0,0,6,5,3,1,-3,0
1532493765428,-1,-3,0,6,2,2,-1,-1
1532493765433,-2,-4,-6,-5,-4,-5,1,-2
1532493765438,0,2,-1,-4,-6,0,-2,0
1532493765443,-2,-7,5,-2,-3,0,5,-2
1532493765448,0,-2,-10,2,-2,-7,0,5
1532493765453,1,1,4,9,18,14,-2,0
1532493765458,0,3,0,1,-1,-8,8,1
1532493765463,-2,-3,-6,-11,-12,-1,19,2
1532493765468,-2,-5,-2,-9,-11,-4,-6,-4
1532493765473,0,3,1,-1,-2,1,-9,2
1532493765478,1,1,2,1,8,5,3,-1
1532493765483,-4,0,-2,5,3,-1,-3,-1
1532493765488,-2,0,6,-2,0,-5,1,-1
1532493765493,-3,-1,-9,-7,-5,-5,-13,-5
1532493765498,0,3,18,7,1,6,3,1
1532493765503,2,0,-14,3,3,5,-4,0
1532493765508,0,0,4,5,1,3,7,-2
1532493765513,-2,-3,-6,-6,6,-4,3,-1
1532493765518,-1,-2,0,-6,-11,-3,-13,-1
1532493765523,1,-2,2,1,-1,-2,5,4
1532493765528,-1,2,3,-1,2,0,3,-5
1532493765533,1,0,-3,-5,-11,-12,-10,2
1532493765538,-1,-4,-2,-3,-2,3,-1,-2
1532493765543,-3,-3,-3,-2,0,2,-3,-3
1532493765548,-2,-1,0,7,6,-1,-10,-5
1532493765553,-1,-1,6,-3,-5,-4,-8,-1
1532493765558,-3,-2,-6,-2,-3,-7,7,-2
1532493765563,1,-1,2,-2,-4,-2,-10,-5
1532493765568,1,1,-1,-1,2,18,12,7
1532493765573,0,-4,-1,-1,-3,-6,1,-3
1532493765578,-1,1,-5,1,3,11,-4,2
1532493765583,2,-1,0,1,3,-14,-13,2
1532493765588,1,3,-4,-4,-2,1,24,0
1532493765593,0,0,0,1,-3,6,-11,1
1532493765598,2,-2,-8,2,3,12,14,8
1532493765603,2,-2,-3,-8,-3,7,-1,2
1532493765608,-1,3,3,-5,0,-7,-15,-4
1532493765613,-1,-4,-5,3,-2,-1,6,8
1532493765618,1,0,7,2,1,3,3,4
1532493765623,-1,2,7,1,7,7,-14,-2
1532493765628,-3,-4,4,-4,-10,-4,13,-4
1532493765633,-1,0,0,2,7,5,5,3
1532493765638,0,-2,-6,2,1,-6,5,1
1532493765643,-2,0,-3,-1,3,-1,-3,-3
1532493765648,-2,-4,3,-5,-9,-11,-17,-3
1532493765653,0,0,0,6,4,3,2,-9
1532493765658,-5,1,-6,-4,-6,-21,-8,-10
1532493765663,-1,0,3,-4,-8,0,-2,5
1532493765668,0,-2,-4,-1,0,-3,-5,-3
1532493765673,-1,-1,-3,5,4,6,6,-18
1532493765678,3,-1,-4,-6,-6,-5,-9,27
1532493765683,-1,-2,-5,-2,0,1,10,-18
1532493765688,-3,-4,-4,-1,-6,-17,-16,-6
1532493765693,-2,4,7,2,0,8,14,6
1532493765698,-2,-6,0,-1,5,2,-1,-10
1532493765703,0,-2,5,-7,-7,-6,2,2
1532493765708,-3,-1,-10,5,-1,-2,-15,-15
1532493765713,0,-2,4,1,3,-3,-8,2
1532493765718,0,1,0,1,2,5,8,-5
1532493765723,-2,-2,-3,-5,-6,-5,-8,-1
1532493765728,-1,2,8,5,3,-8,-9,-14
1532493765733,1,-1,-4,0,-2,4,34,-8
1532493765738,1,1,0,-1,-1,0,-34,-2
1532493765743,-2,-2,-6,-3,-3,-5,27,3
1532493765748,2,2,2,2,3,9,5,7
1532493765753,0,0,-2,0,-1,-6,-17,-1
1532493765758,0,-3,-4,-6,-6,4,7,13
1532493765763,0,2,-4,-3,-2,2,-18,0
1532493765768,-2,-4,-3,-4,-2,-4,-4,2
1532493765773,-1,0,3,-1,-3,-3,27,0
1532493765778,-3,-2,-4,-4,2,-1,-5,-9
1532493765783,0,1,0,0,-1,-1,-5,9
1532493765788,-2,-2,-2,0,1,6,-6,-3
1532493765793,-3,-5,-4,-7,-3,-9,17,-7
1532493765798,4,3,7,11,9,8,2,10
1532493765803,0,-2,-10,-5,-12,-4,10,1
1532493765808,-1,0,-4,-10,-7,0,5,7
1532493765813,0,-1,-2,-5,-7,-6,-25,-10
1532493765818,-3,1,2,5,2,-2,0,-20
1532493765823,0,0,5,9,10,3,12,-4
1532493765828,-2,-1,-3,4,5,5,9,-4
1532493765833,1,-2,0,-2,-5,-2,-14,10
1532493765838,-1,-1,-4,-4,-6,0,4,9
1532493765843,-1,0,2,2,4,-4,-3,-10
1532493765848,1,2,1,1,4,3,3,19
1532493765853,-3,1,0,0,3,4,-6,-1
1532493765858,-1,-1,-1,-2,-7,-12,-4,-4
1532493765863,3,1,2,5,5,4,16,8
1532493765868,-2,-2,1,-1,-2,-1,-2,-4
1532493765873,-3,-2,-2,-7,-3,1,-4,5
1532493765878,2,0,-5,0,3,3,16,-4
1532493765883,-1,-4,-3,-7,-5,-5,-13,11
1532493765888,2,0,0,2,1,-1,6,-4
1532493765893,2,-1,0,4,4,2,-4,6
1532493765898,-4,-1,2,0,-2,-7,-17,-9
1532493765903,-3,-1,-7,-2,1,1,19,-3
1532493765908,1,-3,-1,-5,-6,-2,4,12
1532493765913,-1,-2,-1,0,-1,-1,-11,-8
1532493765918,0,0,0,0,4,2,1,-4
1532493765923,0,0,4,2,2,-1,-9,1
1532493765928,-1,-1,0,1,3,1,-3,-4
1532493765933,0,-1,-1,-3,-3,-3,2,-4
1532493765938,-1,-1,-1,-4,-5,-2,8,16
1532493765943,0,-1,-2,0,-1,0,-8,-2
1532493765948,-2,0,-1,-1,0,1,0,-10
1532493765953,1,2,3,4,3,1,-5,-3
1532493765958,-1,-1,0,2,2,9,2,4
1532493765963,-4,-2,2,-1,-5,0,-8,-6
1532493765968,0,2,-3,-2,2,2,1,2
1532493765973,-1,-9,-8,-6,-6,-4,-1,-2
1532493765978,-6,-2,0,-4,-2,-4,-2,-11
1532493765983,1,1,1,4,3,-1,-3,3
1532493765988,2,3,5,-2,0,-1,1,7
1532493765993,0,3,0,0,0,0,0,4
1532493765998,-1,1,11,7,2,-4,0,-12
1532493766003,0,3,3,-4,2,5,7,-2
1532493766008,-3,-14,-41,-13,-15,-8,-10,1
1532493766013,-1,0,-14,-3,1,-6,2,-3
1532493766018,0,2,8,-1,-2,1,-4,-1
1532493766023,-2,5,17,7,2,-5,-1,-2
1532493766028,0,-2,9,5,6,7,3,-3
1532493766033,1,1,-3,-3,-4,0,-1,16
1532493766038,-1,-2,-3,-2,-5,0,1,-11
1532493766043,-1,-2,-4,-4,0,-2,-5,13
1532493766048,-1,0,-5,2,4,-1,4,-16
1532493766053,-1,-2,2,1,0,2,-4,5
1532493766058,-2,2,0,-3,-1,-4,1,-6
1532493766063,0,-7,-7,-4,-4,0,-3,1
1532493766068,3,0,-2,1,1,0,-1,18
1532493766073,0,3,17,3,3,1,2,10
1532493766078,-1,-4,-7,-5,-4,-3,-3,20
1532493766083,-1,1,-9,-2,-3,-5,-7,8
1532493766088,-3,-3,11,1,-1,0,1,9
1532493766093,-1,0,0,3,1,1,0,18
