1532130748736,-2,-7,6,-3,1,-1,2,0
1532130748741,-2,-3,0,2,-11,-2,-3,-2
1532130748746,-2,-14,-2,4,16,2,-2,-2
1532130748751,1,-24,1,-6,-2,-3,-3,-1
1532130748756,-2,-1,1,6,0,-2,1,2
1532130748761,-1,15,3,-1,0,0,0,-1
1532130748766,1,21,1,-3,-5,-2,-2,-1
1532130748771,-2,-37,0,0,-1,-2,-1,1
1532130748776,-3,5,-6,-1,0,-4,-6,-5
1532130748781,-1,1,-8,-2,2,-1,2,-1
1532130748786,-1,10,2,2,-4,-3,-2,1
1532130748791,-2,-5,-8,-6,2,-2,-2,0
1532130748796,1,48,6,5,-4,-1,-1,1
1532130748801,-3,-7,0,6,6,0,-2,-2
1532130748806,1,-6,-3,-8,-6,0,1,4
1532130748811,-1,11,2,4,-1,0,0,-1
1532130748816,0,6,5,-3,-2,1,-1,-2
1532130748821,-1,-11,1,-2,-2,1,-2,0
1532130748826,1,-26,1,3,-1,0,0,-5
1532130748831,-2,-9,-7,-4,-2,1,-1,0
1532130748836,0,-1,1,-1,1,2,0,2
1532130748841,1,-15,-1,-3,-2,0,3,-1
1532130748846,-1,3,1,5,-1,-2,-4,-5
1532130748851,1,2,3,0,2,-1,0,-2
1532130748856,-1,-8,3,-2,3,-1,0,1
1532130748861,0,-5,-2,1,3,-1,-1,-1
1532130748866,2,4,-5,-2,-2,0,1,4
1532130748871,-2,-17,2,4,1,-2,0,-4
1532130748876,-2,15,-2,-2,1,-1,-2,-1
1532130748881,0,12,1,-4,-4,-3,-1,1
1532130748886,-2,7,-1,-2,0,-1,-3,-6
1532130748891,1,12,1,0,-5,0,0,0
1532130748896,1,-23,-3,-4,-1,-1,1,-2
1532130748901,1,2,4,1,-1,-1,-1,0
1532130748906,-3,3,-1,-1,-4,-1,-3,1
1532130748911,-2,-4,-5,-7,-3,-2,-1,-2
1532130748916,-4,1,4,0,-2,-1,1,-2
1532130748921,-1,-1,-2,6,0,0,-3,-1
1532130748926,-2,0,2,-11,-1,-1,-1,-2
1532130748931,7,3,1,-2,-1,2,-1,3
1532130748936,7,-3,-2,-2,-2,-1,-2,1
1532130748941,0,-8,-2,1,0,-2,-2,-2
1532130748946,-1,-13,-8,8,-3,-1,-2,1
1532130748951,-7,2,-1,-4,1,-1,-4,-3
1532130748956,-5,13,0,4,-3,-1,-1,2
1532130748961,-7,4,-3,-7,-2,1,1,2
1532130748966,-4,0,3,1,-3,0,0,2
1532130748971,-5,0,0,2,2,-2,-2,-4
1532130748976,-2,-4,-4,-2,-4,0,-1,2
1532130748981,2,13,0,-3,0,-1,-2,1
1532130748986,-2,6,4,0,2,-4,-2,-4
1532130748991,0,-1,-7,0,-3,-3,0,1
1532130748996,-1,-10,-2,-3,-2,-2,-2,-4
1532130749001,3,-18,-2,-2,-4,1,1,1
1532130749006,2,6,-3,-1,-1,0,1,2
1532130749011,0,-1,1,-4,-3,0,-2,-2
1532130749016,0,3,5,4,-1,-2,0,2
1532130749021,-1,-9,-3,-5,1,-1,-2,-3
1532130749026,2,10,2,11,0,0,-1,-1
1532130749031,1,0,2,-1,-2,0,0,2
1532130749036,2,11,-2,1,0,1,0,0
1532130749041,-2,0,-2,1,-4,0,-3,-4
1532130749046,-1,-6,2,-5,-1,0,-2,1
1532130749051,0,2,0,1,2,0,-2,-2
1532130749056,-2,-12,-3,-1,0,-1,-1,0
1532130749061,0,4,-4,-1,-1,1,-2,-4
1532130749066,0,-2,0,1,1,1,-1,5
1532130749071,1,-3,3,-2,0,-1,-3,-1
1532130749076,6,-20,-4,-7,-2,0,-2,-5
1532130749081,7,-15,-2,-1,-2,-2,0,3
1532130749086,0,-14,1,4,3,-2,-3,-6
1532130749091,-1,28,-1,-4,-2,-1,1,1
1532130749096,-10,-13,0,1,2,0,1,1
1532130749101,-10,11,-8,-2,-3,-2,-3,-3
1532130749106,-5,7,0,-6,-2,-1,1,3
1532130749111,-7,-3,-2,-1,-3,-3,-1,-1
1532130749116,-3,15,-1,3,2,-1,-3,-4
1532130749121,-2,-6,0,-2,2,-1,-1,1
1532130749126,-1,-3,-4,2,1,1,-2,-3
1532130749131,-1,-6,0,-10,-3,-2,0,-1
1532130749136,2,0,-1,-1,-1,0,-2,0
1532130749141,-1,0,5,0,-1,-2,0,-1
1532130749146,3,24,-4,-9,-3,-2,-2,2
1532130749151,-1,-8,0,8,-1,1,-2,-1
1532130749156,-3,3,-2,-5,-2,-2,-3,-3
1532130749161,2,5,-1,1,1,1,0,2
1532130749166,4,-2,-1,-1,-1,0,-1,-3
1532130749171,2,-18,-3,3,0,0,0,1
1532130749176,0,-14,-2,1,0,-3,-1,4
1532130749181,1,0,2,0,0,1,-2,-3
1532130749186,-2,-9,-1,-3,-4,0,1,-1
1532130749191,2,9,1,1,-2,-3,-3,1
1532130749196,1,6,0,-2,-1,2,-2,-1
1532130749201,-4,-23,-4,-4,-3,-1,-2,0
1532130749206,-2,10,-2,-4,0,-1,-1,-3
1532130749211,-1,7,2,3,-2,1,0,-2
1532130749216,-2,13,-3,0,-2,0,-2,-2
1532130749221,-2,10,1,-2,-1,-2,-1,0
1532130749226,-2,-3,1,-1,-1,-2,1,-1
1532130749231,0,10,-5,-7,1,0,-1,0
1532130749236,-3,4,-2,1,-2,1,-2,3
1532130749241,4,19,1,0,0,-2,-2,-3
1532130749246,-2,-1,0,-5,-1,-1,-2,0
1532130749251,0,-20,-3,1,-1,-1,-2,-6
1532130749256,7,-6,5,2,0,-3,-2,-3
1532130749261,0,-3,-5,-3,0,-5,0,2
1532130749266,-3,4,-9,-2,-1,1,-2,-5
1532130749271,-2,-7,4,1,0,0,0,2
1532130749276,-7,4,7,2,1,-2,0,-3
1532130749281,1,-3,4,1,-1,0,-2,3
1532130749286,2,5,2,-1,1,-3,0,2
1532130749291,2,6,-3,-3,-3,-1,-2,-1
1532130749296,-2,-8,-14,-7,0,-1,-2,-3
1532130749301,-5,4,-5,1,-1,0,2,2
1532130749306,0,5,20,11,2,2,2,2
1532130749311,-8,-11,-5,-4,-1,1,-3,-8
1532130749316,-2,-2,-1,-2,0,-3,-1,2
1532130749321,0,-9,-10,-8,-2,1,-1,-2
1532130749326,0,-24,-20,-5,-3,-6,-4,1
1532130749331,2,33,19,3,3,2,-1,1
1532130749336,4,-5,6,5,0,0,1,-1
1532130749341,-3,0,-2,4,4,-1,-2,-3
1532130749346,-3,-12,3,1,-7,-1,-2,-1
1532130749351,0,-11,-13,-10,-3,0,-1,1
1532130749356,-3,14,-1,2,-1,-2,0,-2
1532130749361,-1,-7,7,8,1,-4,-3,-2
1532130749366,-5,-5,1,0,1,4,0,-3
1532130749371,5,7,-1,4,2,4,-2,0
1532130749376,5,3,-8,-13,-6,1,0,2
1532130749381,3,11,8,10,3,5,0,3
1532130749386,-2,-3,-2,-5,-1,-9,-1,-3
1532130749391,-5,-9,-10,4,-1,-5,-1,-1
1532130749396,3,15,15,6,5,3,-2,-2
1532130749401,-2,-9,-9,-9,-7,-2,-2,-3
1532130749406,0,5,7,3,-2,2,-3,-1
1532130749411,-3,-4,2,-3,-1,0,3,2
1532130749416,-1,-6,-12,-5,-4,-2,-3,4
1532130749421,-1,1,4,-2,0,-3,-3,-6
1532130749426,0,0,2,2,1,-2,-3,-3
1532130749431,3,5,3,-1,-2,-2,-2,1
1532130749436,-2,-10,6,1,0,0,1,-2
1532130749441,0,-2,-10,-7,-3,2,-1,1
1532130749446,-1,-3,-8,-7,-1,0,0,0
1532130749451,3,12,10,4,2,-1,-3,1
1532130749456,-2,-12,-8,-1,-3,-4,0,0
1532130749461,0,-7,1,-5,-2,0,-3,-3
1532130749466,1,-2,-4,1,-1,1,0,1
1532130749471,-1,3,3,2,-5,-1,-1,-1
1532130749476,-2,-7,-6,-8,-1,1,-2,0
1532130749481,-1,11,10,4,0,-1,-2,-3
1532130749486,-3,6,0,7,1,-3,-3,-5
1532130749491,-1,-5,-5,-4,0,-1,-1,1
1532130749496,-1,-10,-13,-3,-3,-1,0,-1
1532130749501,-2,-4,0,4,1,-1,-1,0
1532130749506,-1,15,-3,-1,2,3,-3,-1
1532130749511,-3,-14,3,-9,-4,-2,-1,1
1532130749516,-3,-6,2,4,-1,0,-2,-1
1532130749521,-3,-1,-1,-3,0,0,-1,-1
1532130749526,0,6,-1,0,-1,-1,-2,1
1532130749531,-1,-11,-7,-1,0,-2,1,1
1532130749536,1,5,3,-2,1,-1,-3,-3
1532130749541,8,-2,1,4,0,-2,1,0
1532130749546,0,-2,1,-6,-1,0,0,0
1532130749551,-2,0,-4,-2,-1,-1,-4,-3
1532130749556,-2,-6,1,-3,-2,0,0,0
1532130749561,-2,5,12,8,1,1,-1,2
1532130749566,2,-5,-11,-9,0,-4,0,-1
1532130749571,-3,-10,-3,5,-1,0,-2,1
1532130749576,1,12,8,1,4,0,-1,-4
1532130749581,-3,-5,1,-2,-3,2,-2,-2
1532130749586,-3,0,-3,-3,-2,-1,0,-1
1532130749591,0,-2,-10,-1,-1,-2,0,-3
1532130749596,-3,1,15,1,1,0,-1,-1
1532130749601,-2,-4,-9,-6,-3,-2,-1,0
1532130749606,3,-35,-1,2,-1,0,1,3
1532130749611,0,26,7,0,3,2,2,2
1532130749616,0,-4,-5,2,-2,-2,-1,-3
1532130749621,-2,7,-4,-8,-2,-2,-1,0
1532130749626,-5,-11,-1,6,0,0,-2,-5
1532130749631,0,-12,-15,-9,-2,-2,-2,-6
1532130749636,1,6,8,11,-4,0,0,2
1532130749641,0,-9,-3,3,1,-1,-1,1
1532130749646,0,6,-2,-13,-3,1,-1,2
1532130749651,0,-1,-3,5,-2,0,-1,-1
1532130749656,-3,1,-14,-6,-2,-1,-1,-3
1532130749661,1,-4,10,2,3,0,-1,-1
1532130749666,7,7,-5,0,-2,-2,0,-1
1532130749671,4,0,6,3,-3,-1,-3,-1
1532130749676,2,-5,-14,-7,-4,-3,-2,0
1532130749681,-1,28,16,1,1,0,1,2
1532130749686,-13,-15,-11,-5,-1,-1,-2,-5
1532130749691,1,14,12,0,1,-4,0,-2
1532130749696,3,-12,-7,-1,-1,0,-1,1
1532130749701,-1,0,-17,-10,-2,-1,-2,-6
1532130749706,-2,10,19,11,2,0,-2,0
1532130749711,-8,-5,-6,-6,-1,-1,-1,-2
1532130749716,-6,-1,-5,0,0,1,0,1
1532130749721,-4,-6,-9,-7,-2,-2,-1,0
1532130749726,-2,1,9,2,-1,2,-1,1
1532130749731,-5,-11,1,2,-1,0,-3,-9
1532130749736,-1,6,7,-4,0,-2,-2,-2
1532130749741,-1,-10,-17,-7,-2,0,-2,-2
1532130749746,5,6,4,6,2,-5,1,3
1532130749751,1,-4,3,-1,3,1,3,6
1532130749756,1,10,-6,-5,-4,-1,-1,1
1532130749761,-1,12,5,1,-1,-2,-3,-5
1532130749766,1,4,3,-5,-2,0,0,-2
1532130749771,0,-1,-7,-3,0,-2,-4,0
1532130749776,0,-11,3,1,-1,-1,-1,0
1532130749781,2,-17,-11,-3,-2,-2,0,5
1532130749786,0,13,4,3,-1,1,-2,-2
1532130749791,-2,-2,4,0,-2,-2,-1,-2
1532130749796,0,4,-2,-1,1,-2,-2,-1
1532130749801,-2,-1,2,2,-1,-1,-1,-2
1532130749806,-1,-6,2,1,2,-2,-1,-4
1532130749811,0,-1,-2,0,-2,-2,1,0
1532130749816,-1,-7,9,2,-1,1,-2,2
1532130749821,1,4,0,1,-1,-2,0,2
1532130749826,-2,-5,-10,-7,-4,-1,-3,-5
1532130749831,0,4,-7,1,1,-3,-2,-4
1532130749836,-1,-8,-2,-6,0,-1,-1,-1
1532130749841,0,4,9,13,0,1,0,1
1532130749846,3,12,4,4,0,1,0,5
1532130749851,-3,-9,-12,-8,-2,-1,-4,-2
1532130749856,0,-3,13,11,1,0,1,-1
1532130749861,-1,7,-8,-9,-1,0,-2,0
1532130749866,0,-8,-2,2,-1,-1,-2,-2
1532130749871,2,3,2,1,-2,1,0,2
1532130749876,-4,-5,-8,-2,-2,-2,-2,-2
1532130749881,1,-1,-1,-4,-3,0,-1,-3
1532130749886,1,-6,-9,-3,2,-2,-1,-2
1532130749891,11,3,0,3,-2,1,-1,1
1532130749896,5,5,11,0,2,-2,-1,1
1532130749901,-1,-6,-1,-6,-1,-2,0,-3
1532130749906,-5,0,-8,5,1,-1,0,1
1532130749911,-6,-3,-2,-1,0,0,0,3
1532130749916,-6,4,6,7,2,-2,-1,-3
1532130749921,-6,-5,2,-2,-1,-2,-4,0
1532130749926,-2,6,7,1,-1,-4,-3,-1
1532130749931,-5,-9,-2,-4,-4,-1,2,-2
1532130749936,3,19,-6,-2,-1,2,0,2
1532130749941,-3,-14,-6,-3,-1,-1,-1,-2
1532130749946,-3,-4,-12,-8,-4,-3,-1,-1
1532130749951,-2,25,30,11,2,1,-1,2
1532130749956,1,-12,-13,-8,-3,-2,-1,-1
1532130749961,1,2,3,7,2,-1,2,4
1532130749966,-1,-1,-1,1,1,1,-2,-4
1532130749971,-5,-8,-2,-3,0,-3,-1,-4
1532130749976,-3,3,-10,-1,0,-1,-1,0
1532130749981,-4,2,7,2,-2,-1,-2,0
1532130749986,-1,-6,-5,-4,-4,-2,-2,-4
1532130749991,0,-6,-4,0,2,0,-1,1
1532130749996,-4,-4,-9,-9,-3,-2,-2,-3
1532130750001,2,5,8,1,-1,-1,0,0
1532130750006,0,-3,7,2,0,0,0,2
1532130750011,1,1,0,-9,-1,-1,-1,-4
1532130750016,1,20,0,9,0,0,-1,1
1532130750021,1,-6,-22,-8,-2,-1,-2,-1
1532130750026,-1,3,32,10,1,-2,0,1
1532130750031,1,5,-10,-1,-2,0,0,1
1532130750036,-3,-5,-1,-5,-2,-1,0,-3
1532130750041,-3,-9,0,1,-1,-2,-2,-3
1532130750046,1,3,-9,-1,-1,1,-3,-4
1532130750051,-1,-1,5,3,0,0,-1,1
1532130750056,-1,-15,-9,-4,-2,-3,-3,1
1532130750061,-2,2,10,10,0,0,-1,-5
1532130750066,-1,-7,-5,-3,0,0,0,3
1532130750071,-1,-3,1,1,2,0,-1,0
1532130750076,0,-2,0,-4,-2,-1,-3,-5
1532130750081,0,-1,-7,-7,-1,-1,-1,1
1532130750086,1,-11,3,4,-1,1,-1,0
1532130750091,-1,19,0,-1,0,-1,-1,-7
1532130750096,1,0,-1,-2,0,-1,-1,0
1532130750101,1,-12,-3,-3,0,0,0,-1
1532130750106,1,-2,-21,-10,-2,-1,1,1
1532130750111,-2,-7,7,5,0,-2,-1,-2
1532130750116,0,5,-7,-5,-2,-3,-2,-1
1532130750121,-4,-16,8,3,3,-1,-1,-3
1532130750126,-3,4,2,2,-2,-1,-2,-1
1532130750131,3,-3,-17,-7,-1,-1,-1,1
1532130750136,0,20,6,-1,0,0,-1,-2
1532130750141,1,-7,2,0,0,2,1,1
1532130750146,1,-10,-2,-1,1,0,1,1
1532130750151,-1,8,-5,-2,0,0,-4,-8
1532130750156,1,5,-11,-6,-5,0,-3,0
1532130750161,0,-1,4,5,-1,1,-2,-2
1532130750166,-2,-7,6,2,-1,0,-1,1
1532130750171,-1,2,7,-1,1,0,-2,-2
1532130750176,-2,-9,-6,-2,1,0,-2,0
1532130750181,0,6,-8,-4,-5,-1,-2,0
1532130750186,-1,-7,-6,0,0,0,0,-1
1532130750191,-1,-7,-2,-3,-3,1,0,1
1532130750196,0,0,-2,-6,-5,-2,-1,0
1532130750201,-1,-4,-7,8,-1,-1,-3,-2
1532130750206,-4,14,16,4,2,2,0,-4
1532130750211,-2,-3,8,-3,0,-2,1,1
1532130750216,1,2,1,4,0,-1,1,2
1532130750221,1,9,-1,1,-1,-2,-2,0
1532130750226,-1,-3,-4,-4,-1,-1,-4,-4
1532130750231,-4,31,-3,7,2,-2,-2,-1
1532130750236,-1,-51,-22,-9,-10,0,-1,-1
1532130750241,-2,-7,3,-7,1,0,1,1
1532130750246,2,12,2,1,-2,0,1,3
1532130750251,-2,10,-19,-10,6,-2,-3,1
1532130750256,-3,-10,5,9,2,-2,-2,-3
1532130750261,0,12,7,-3,-1,1,1,2
1532130750266,-1,1,20,15,1,-1,-3,-2
1532130750271,0,-19,-10,-6,-4,-1,-1,-3
1532130750276,1,8,1,-1,1,-1,-1,1
1532130750281,-1,-6,-3,-4,-2,-2,-2,-5
1532130750286,0,10,-6,-2,0,0,0,2
1532130750291,1,-15,2,-5,-12,0,0,-1
1532130750296,6,20,2,7,15,1,0,-2
1532130750301,-2,-6,-6,-7,1,-2,1,0
1532130750306,1,-26,-25,-13,-6,-1,-2,1
1532130750311,-1,10,38,17,5,0,-1,1
1532130750316,-3,-8,-4,-6,-4,0,1,0
1532130750321,-1,2,-5,2,-2,0,-4,-4
1532130750326,0,-4,-7,-2,8,-2,-2,-1
1532130750331,0,-46,-8,-1,-8,-1,-1,1
1532130750336,-2,39,-6,-26,-5,-2,1,-1
1532130750341,0,-15,6,40,1,-1,-1,0
1532130750346,-4,-7,5,-4,-6,-2,-1,0
1532130750351,-1,-15,-7,2,-1,-3,-2,1
1532130750356,-2,-20,11,5,0,-2,-3,-4
1532130750361,-1,6,-18,-15,-6,0,-1,-1
1532130750366,4,8,6,4,-3,0,-1,-1
1532130750371,2,4,-9,-3,3,0,1,1
1532130750376,-1,1,5,4,1,0,-3,-2
1532130750381,0,-16,3,-13,-3,0,-2,-2
1532130750386,0,3,11,-1,0,0,0,0
1532130750391,1,16,-5,1,1,-1,-1,2
1532130750396,-2,-18,-14,-18,-8,-4,-2,-2
1532130750401,0,17,5,3,-5,-3,-4,-2
1532130750406,1,4,-5,-3,5,-3,-2,-1
1532130750411,-3,-4,-2,-4,-6,0,-1,0
1532130750416,0,3,-3,3,7,1,-1,3
1532130750421,0,10,-1,-1,0,-2,2,1
1532130750426,5,-5,-3,-2,-2,0,-1,-4
1532130750431,5,9,7,4,-3,-1,-2,-1
1532130750436,4,3,2,6,-1,1,1,-2
1532130750441,-1,-5,-8,-11,-1,-1,-3,1
1532130750446,-9,18,-5,0,-2,0,-2,-2
1532130750451,-10,-11,-6,-3,3,-1,-3,-3
1532130750456,-8,-11,7,2,-4,-2,-1,1
1532130750461,-6,-1,6,0,2,0,1,1
1532130750466,-6,-12,-5,-1,3,-2,-2,-3
1532130750471,2,21,3,-3,-6,-1,0,-1
1532130750476,2,20,0,0,-3,-2,1,-1
1532130750481,1,-9,-10,-1,-1,1,2,1
1532130750486,-1,27,12,-9,-4,-2,-2,1
1532130750491,-2,-6,2,2,-2,1,-1,-1
1532130750496,-4,-8,1,5,0,-1,-4,-3
1532130750501,-2,-4,-6,-7,-2,-1,-2,-4
1532130750506,0,-15,-3,3,-7,3,-1,-1
1532130750511,-2,-1,-1,3,5,-2,1,0
1532130750516,-1,10,-1,-11,-1,0,-2,2
1532130750521,0,-5,-1,8,2,-1,-2,1
1532130750526,1,-25,-9,-1,-2,0,1,-2
1532130750531,1,5,3,1,0,1,-2,-6
1532130750536,1,-16,-1,-7,-13,0,0,0
1532130750541,0,-10,-6,-3,10,-1,-2,-1
1532130750546,-1,1,1,3,1,-3,-2,-2
1532130750551,-1,-17,-10,-7,0,0,-2,1
1532130750556,1,18,4,10,1,-2,-2,-2
1532130750561,1,9,7,-13,-4,0,-3,-2
1532130750566,1,-1,1,4,-4,0,1,-1
1532130750571,5,-4,0,-5,-1,1,-1,-3
1532130750576,1,-5,-3,4,0,-2,-2,2
1532130750581,0,-2,1,2,-2,-1,-2,-1
1532130750586,-3,-9,-9,-4,3,-2,-1,1
1532130750591,-4,60,8,-1,-2,-2,-1,-1
1532130750596,-6,-34,-7,4,2,-1,0,-3
1532130750601,-3,5,3,-6,-6,0,-1,1
1532130750606,-4,-38,-5,0,8,-1,-2,-3
1532130750611,0,78,3,-11,-1,-1,0,0
1532130750616,-3,-15,-1,19,-1,1,0,-2
1532130750621,0,-6,0,1,3,0,-2,-1
1532130750626,3,-1,-5,-5,-3,1,0,1
1532130750631,0,-19,3,5,2,-1,-2,3
1532130750636,1,13,6,-3,2,-2,-4,-7
1532130750641,3,14,9,2,-2,-2,0,2
1532130750646,1,-6,0,0,-10,-2,-3,-4
1532130750651,0,-25,-6,0,6,-2,1,2
1532130750656,-3,-15,1,-6,-4,1,3,1
1532130750661,-3,-11,-4,-7,-6,2,-1,-2
1532130750666,2,67,17,5,8,-3,0,0
1532130750671,-3,-12,-1,-2,-10,1,-2,-3
1532130750676,1,-25,-2,-1,3,0,2,2
1532130750681,-3,-34,-2,7,-1,-2,-2,-7
1532130750686,1,9,4,-1,1,-1,-2,-4
1532130750691,0,27,-9,-9,0,0,-1,-1
1532130750696,-2,-5,-2,-1,-2,-2,1,3
1532130750701,-4,-11,1,-1,-3,0,-1,-1
1532130750706,0,7,0,1,5,-1,-2,3
1532130750711,0,13,2,-18,-1,-2,-3,0
1532130750716,2,-31,0,44,1,-1,-3,-1
1532130750721,9,60,19,4,1,0,0,1
1532130750726,0,-27,-14,-8,2,-1,-2,-3
1532130750731,1,9,-2,2,3,-2,0,1
1532130750736,-1,21,-17,-11,-4,0,-4,-3
1532130750741,-3,-28,-4,-24,-3,-1,0,0
1532130750746,1,-25,2,19,-2,0,0,3
1532130750751,1,9,0,-3,-8,-1,-2,-2
1532130750756,-6,-45,-27,-11,1,-3,-3,-5
1532130750761,0,-20,-7,-6,-10,1,-2,-2
1532130750766,-1,29,2,-16,7,0,2,3
1532130750771,-6,-49,-9,-1,1,0,-1,-2
1532130750776,0,53,7,-10,-5,-1,-4,0
1532130750781,1,41,8,13,5,-2,-1,3
1532130750786,-1,-24,-13,-1,0,-1,0,2
1532130750791,1,7,-2,0,-4,-1,0,0
1532130750796,-10,26,6,-12,-2,-2,-5,-3
1532130750801,-13,-84,-35,-6,-4,-3,-4,-11
1532130750806,-6,-41,-10,1,-3,-2,-1,-6
1532130750811,3,72,-3,-3,2,0,0,0
1532130750816,-1,-29,2,-6,-2,1,-2,-1
1532130750821,1,-6,9,5,1,-1,-1,5
1532130750826,-3,-44,37,3,-8,-1,-3,-1
1532130750831,-5,-58,-2,-4,-5,-1,-1,-2
1532130750836,1,-24,-3,-2,-1,-1,1,2
1532130750841,10,90,16,9,4,0,0,0
1532130750846,5,17,1,3,6,0,-2,-1
1532130750851,2,17,12,2,2,1,0,3
1532130750856,-2,0,4,3,-2,0,-2,-2
1532130750861,-6,-38,-7,-4,5,-1,-1,0
1532130750866,-2,30,-2,1,-2,-1,-4,-1
1532130750871,-3,18,-3,1,-1,-3,-4,-5
1532130750876,0,-3,-2,-1,3,-1,1,4
1532130750881,-3,-25,2,3,-5,0,0,-4
1532130750886,-5,-55,-4,-4,-4,0,-2,-5
1532130750891,-6,-66,1,7,6,-1,-1,-6
1532130750896,1,-28,11,-3,-1,-2,1,0
1532130750901,1,40,19,-2,1,1,0,7
1532130750906,1,50,10,8,2,-2,-1,3
1532130750911,1,-19,16,3,-3,-1,-1,-1
1532130750916,-2,-14,-4,-3,-4,0,-1,-3
1532130750921,-1,-13,-5,-15,5,-2,-3,-1
1532130750926,2,51,-14,-7,-1,-1,0,-3
1532130750931,-2,16,-15,-6,-2,-3,-1,2
1532130750936,-2,-26,3,2,3,0,0,-4
1532130750941,1,1,11,-1,-2,0,-2,0
1532130750946,1,23,-13,-5,-4,0,1,2
1532130750951,0,43,5,1,0,1,-3,2
1532130750956,1,-31,-11,-5,3,3,1,-2
1532130750961,-1,-13,-1,6,0,0,2,0
1532130750966,0,-7,1,-1,-1,-3,-2,-4
1532130750971,-5,11,1,-2,-3,-1,-2,2
1532130750976,-2,17,15,1,-2,-2,-1,-4
1532130750981,-5,-29,-3,-1,-11,-1,-2,-2
1532130750986,-4,17,1,0,4,0,-1,-3
1532130750991,-4,-6,-14,-7,-4,-2,-1,-3
1532130750996,2,-35,7,7,3,1,-1,-3
1532130751001,1,11,-5,3,5,-1,0,3
1532130751006,1,27,8,-5,-8,-2,-1,1
1532130751011,0,-45,-9,1,1,0,0,-2
1532130751016,0,99,-5,-7,-6,-2,-1,0
1532130751021,-4,-38,-16,2,-1,-1,-1,-6
1532130751026,-2,-41,-12,0,2,1,-2,1
1532130751031,7,31,0,-9,1,-2,1,3
1532130751036,-2,16,0,9,-5,-4,-2,-2
1532130751041,-3,-8,-1,-9,1,-3,-3,-1
1532130751046,-5,-3,-3,5,-2,-3,-3,-9
1532130751051,-4,-26,-1,4,-2,1,-1,-1
1532130751056,1,27,4,-7,-2,-1,-1,3
1532130751061,-2,-46,-18,0,-5,-1,0,3
1532130751066,-3,-50,-2,5,2,1,-2,-3
1532130751071,6,10,7,-5,2,-1,-3,-3
1532130751076,-5,-54,-8,-2,1,0,0,-2
1532130751081,1,11,-6,3,-1,-1,2,1
1532130751086,1,16,-13,-3,1,-1,-1,4
1532130751091,3,-37,10,8,2,-1,-2,-5
1532130751096,1,-36,-6,-1,3,0,-2,3
1532130751101,1,-11,-5,2,1,0,-2,0
1532130751106,-6,-52,7,-3,-2,0,1,0
1532130751111,-2,11,-12,0,1,-2,-3,-1
1532130751116,-4,29,13,-3,-4,-2,-2,-7
1532130751121,-2,-16,6,-6,-1,1,-1,-1
1532130751126,4,85,3,-3,-2,1,2,0
1532130751131,-4,-8,-13,0,1,1,-1,2
1532130751136,0,-27,1,0,-4,-2,-3,3
1532130751141,0,-4,6,2,3,-1,-2,-4
1532130751146,9,12,13,2,0,0,-2,5
1532130751151,3,1,4,-1,-13,-2,0,1
1532130751156,1,9,0,-2,10,0,1,3
1532130751161,2,71,-3,0,0,0,-1,-3
1532130751166,-1,-22,2,-1,-3,-2,-2,0
1532130751171,0,-27,3,2,-3,-3,0,-6
1532130751176,10,3,4,-2,0,0,-2,2
1532130751181,5,-15,8,2,0,0,-1,-2
1532130751186,6,13,4,0,2,2,-1,0
1532130751191,1,9,15,5,5,0,-3,-1
1532130751196,-9,16,4,-3,-5,2,0,0
1532130751201,-5,56,-3,4,4,2,-1,-1
1532130751206,-6,5,-6,-4,-10,0,-2,-1
1532130751211,-3,-10,2,-2,0,-1,-1,0
1532130751216,2,21,-6,-1,0,1,1,-1
1532130751221,-3,16,-5,-4,-5,-3,-1,0
1532130751226,-7,-6,-2,-2,-1,-2,-2,0
1532130751231,-5,15,-4,-1,1,0,-1,0
1532130751236,-4,-6,-7,-4,-4,0,-1,-2
1532130751241,-3,1,-2,-1,-1,0,-2,-1
1532130751246,-3,-45,-12,-3,-1,0,0,-2
1532130751251,-6,-9,2,-2,-1,-2,-2,-5
1532130751256,4,30,-4,-1,-2,-3,-2,-1
1532130751261,-4,-91,-8,-4,-10,-1,-3,-3
1532130751266,0,9,17,6,-2,-2,1,-5
1532130751271,3,36,-4,-3,-1,1,1,4
1532130751276,-3,-40,10,4,-1,-2,-1,-6
1532130751281,0,-10,-1,3,-9,-2,-1,2
1532130751286,-4,-13,-11,-10,17,-2,-2,-1
1532130751291,5,-29,-4,6,-1,-3,1,-1
1532130751296,3,-17,-5,-1,-3,-2,-3,1
1532130751301,1,-1,-3,-3,1,-1,-1,0
1532130751306,1,0,-9,3,-5,-2,-2,1
1532130751311,-5,6,-2,-4,2,0,-2,-5
1532130751316,0,17,5,-1,-2,2,0,2
1532130751321,0,3,-3,-1,1,-1,0,-1
1532130751326,3,20,-3,1,-1,0,-1,5
1532130751331,-4,-3,2,-5,-2,0,1,0
1532130751336,2,-7,-11,-1,-4,-2,-1,3
1532130751341,-5,-49,-16,-9,2,-1,-4,-6
1532130751346,-4,-30,-1,6,-7,-1,0,-7
1532130751351,4,-9,-1,0,-3,0,0,5
1532130751356,-7,-5,-7,0,6,-1,-2,-3
1532130751361,5,42,2,-1,0,0,0,1
1532130751366,4,6,7,2,2,0,0,1
1532130751371,-1,-14,-1,-6,-10,-3,1,1
1532130751376,3,20,-3,7,10,1,1,2
1532130751381,0,13,17,-5,-1,-2,-4,-2
1532130751386,-3,11,1,-4,-1,-1,-2,-2
1532130751391,-7,3,-5,-4,-4,-1,-2,-3
1532130751396,1,3,-10,-5,-3,-1,0,2
1532130751401,2,69,11,7,1,0,-1,1
1532130751406,1,-54,-1,1,0,0,0,-2
1532130751411,4,26,0,3,2,-1,-1,1
1532130751416,-3,1,-11,-3,-3,-2,-1,-1
1532130751421,-1,-18,-2,1,-1,0,-1,-3
1532130751426,-1,10,-6,-5,-4,-3,-2,0
1532130751431,-1,9,2,1,2,0,1,0
1532130751436,2,-17,0,0,-3,2,0,0
1532130751441,1,7,9,0,-3,-2,0,-5
1532130751446,0,30,0,-3,4,-2,-4,-2
1532130751451,-1,-61,-19,-5,1,-3,-2,-3
1532130751456,-2,-25,-2,-11,-6,0,-1,-2
1532130751461,-3,-25,-12,-12,-4,-4,-1,1
1532130751466,0,2,-5,-1,0,0,0,1
1532130751471,0,5,-2,9,3,2,1,0
1532130751476,-4,26,19,1,0,0,-3,-7
1532130751481,-2,-31,-1,10,1,1,0,1
1532130751486,-7,-13,-4,-5,-2,-1,-4,-6
1532130751491,4,23,-3,-13,-2,0,-1,2
1532130751496,0,3,-10,1,-1,-2,-1,0
1532130751501,-2,0,7,5,1,1,0,2
1532130751506,3,23,30,9,2,0,2,3
1532130751511,-2,4,3,-3,-1,1,-1,-4
1532130751516,-3,-8,-15,-5,-4,-3,-3,-4
1532130751521,-2,-25,7,3,2,-1,-3,1
1532130751526,3,26,-4,-1,0,-1,1,3
1532130751531,1,1,6,-4,3,0,-1,-2
1532130751536,1,8,3,1,-6,0,0,-1
1532130751541,1,7,-15,-7,-3,0,-1,0
1532130751546,-1,3,-2,2,4,1,-2,0
1532130751551,-3,-9,0,-2,0,0,-1,-3
1532130751556,-4,1,-10,-1,1,-1,-2,-1
1532130751561,-5,-10,-4,-5,4,-1,-1,-4
1532130751566,-6,-3,-3,1,-5,1,1,0
1532130751571,-3,-4,-6,-1,-1,-1,-1,-2
1532130751576,0,5,19,9,6,-1,-3,1
1532130751581,1,-2,-1,1,-4,-1,-2,-1
1532130751586,1,-14,-6,-2,-3,0,-1,0
1532130751591,-2,-36,-5,-4,-3,-3,-3,-1
1532130751596,3,31,-4,-1,-5,0,0,0
1532130751601,0,21,-5,-1,1,-1,-1,-4
1532130751606,-1,16,-1,-7,-3,-3,-2,-1
1532130751611,-6,-68,2,7,-2,0,-1,-2
1532130751616,-1,18,8,1,1,-1,0,1
1532130751621,1,45,-8,-5,-1,-3,-2,0
1532130751626,4,-11,8,3,-3,-1,-3,-3
1532130751631,-7,13,1,0,0,-1,-1,-4
1532130751636,3,-8,-6,1,0,-2,-1,1
1532130751641,3,5,6,-2,-1,0,1,5
1532130751646,-2,5,-11,-5,-2,0,0,3
1532130751651,-1,26,1,6,0,0,-6,-1
1532130751656,-5,-19,7,-6,0,-1,-3,-7
1532130751661,-4,-11,-21,-6,-5,1,0,1
1532130751666,-7,-42,3,9,3,1,0,-1
1532130751671,6,66,-13,-6,-1,0,-2,3
1532130751676,-7,-41,12,-3,1,-1,-2,1
1532130751681,6,19,-2,8,-3,-1,-4,-3
1532130751686,-8,-6,42,15,6,-1,-2,-8
1532130751691,-7,-27,-2,-2,0,-1,1,4
1532130751696,4,5,-20,-10,-6,-2,0,2
1532130751701,-5,-11,5,-3,-2,0,-1,-2
1532130751706,-3,-16,-1,-2,1,-1,-1,0
1532130751711,0,19,2,1,-1,0,-3,-2
1532130751716,10,-10,-7,-4,-2,-3,-1,-1
1532130751721,-10,1,7,4,-1,2,-1,2
1532130751726,0,9,-6,-5,-3,-1,-2,0
1532130751731,2,11,-14,-10,1,-2,-1,-3
1532130751736,-4,-6,0,4,-8,-3,0,2
1532130751741,-1,15,25,15,5,1,-2,-5
1532130751746,4,9,-19,-8,-4,-2,1,1
1532130751751,-2,0,3,-1,-2,-1,-1,-2
1532130751756,2,16,-5,1,-1,3,0,1
1532130751761,-1,-22,-14,-8,-2,-4,1,2
1532130751766,-2,16,0,-5,-1,1,-3,-4
1532130751771,2,15,3,2,-1,-3,-4,-8
1532130751776,-7,-20,-6,-3,3,1,-2,-1
1532130751781,1,-16,0,-2,-2,-1,0,-1
1532130751786,10,13,-1,0,-2,-1,0,5
1532130751791,-3,-18,3,3,1,0,-1,4
1532130751796,-3,-8,6,5,1,-1,-1,-1
1532130751801,0,-12,-2,-6,-1,0,-1,-5
1532130751806,-11,-20,-13,-5,-5,0,-2,-1
1532130751811,12,13,4,1,-1,1,1,1
1532130751816,-1,-17,3,4,3,-5,-3,-1
1532130751821,2,0,-3,-5,-1,-2,0,-1
1532130751826,1,-14,-8,-2,-9,0,-1,0
1532130751831,-8,-12,7,5,6,0,1,2
1532130751836,-5,-1,-2,-2,-4,0,-2,-4
1532130751841,1,0,-2,-1,3,7,1,1
1532130751846,0,12,-1,0,-7,-10,-3,-5
1532130751851,3,10,2,-4,-2,-8,-1,4
1532130751856,-1,-11,-2,1,1,14,0,-1
1532130751861,-2,11,1,1,-1,-1,-1,-3
1532130751866,3,-2,-2,-3,2,0,1,1
1532130751871,1,-2,-2,2,-3,1,-2,-5
1532130751876,1,4,-1,-3,1,-5,0,2
1532130751881,0,8,2,2,-1,0,-1,4
1532130751886,0,13,-4,-1,2,0,-2,0
1532130751891,-4,1,-1,-2,-1,1,-2,-3
1532130751896,-2,7,-1,1,0,-2,-3,-3
1532130751901,8,56,5,-9,-3,0,0,0
1532130751906,-2,-19,-4,-2,0,-10,-1,2
1532130751911,-1,-18,-3,-1,3,8,1,1
1532130751916,5,48,5,5,7,1,1,5
1532130751921,-6,-22,-3,0,-6,3,-4,-3
1532130751926,-1,14,-1,-4,8,1,-2,-4
1532130751931,3,-2,2,0,-2,-3,2,2
1532130751936,2,-7,-1,-7,-12,0,0,1
1532130751941,-1,-4,0,5,16,-1,-2,-1
1532130751946,0,17,-3,-2,-1,0,-4,-3
1532130751951,-6,-22,0,0,0,2,-2,0
1532130751956,4,5,-1,-3,-2,0,1,-2
1532130751961,-8,-14,0,0,-4,-5,-1,4
1532130751966,1,-20,-1,1,-4,1,-3,-4
1532130751971,3,20,1,-2,0,-14,-1,0
1532130751976,-1,-12,-2,5,2,5,0,1
1532130751981,-1,-5,0,-13,-7,0,-2,0
1532130751986,0,1,-3,-1,2,-2,-2,0
1532130751991,-4,9,-2,1,-6,4,-1,-4
1532130751996,-6,-19,-3,-4,1,-6,-2,-5
1532130752001,3,19,0,2,-1,1,1,2
1532130752006,1,5,-3,-2,-3,1,0,3
1532130752011,3,10,2,-5,-8,1,0,3
1532130752016,-6,-22,-4,2,15,-2,-6,-9
1532130752021,1,17,-1,4,-3,-3,-1,1
1532130752026,-3,-11,-1,-1,-3,-3,-2,-3
1532130752031,-1,-1,0,2,-2,-2,-1,-1
1532130752036,0,7,0,0,-9,7,-2,2
1532130752041,-3,-20,-5,-10,14,-1,-1,-3
1532130752046,-12,8,1,-2,-3,2,2,0
1532130752051,28,-13,-1,3,-1,3,-1,3
1532130752056,1,4,-2,-2,-4,-13,-3,-1
1532130752061,5,-10,-2,-7,-4,-3,-4,-4
1532130752066,5,-3,-3,3,-13,-2,0,-2
1532130752071,1,-4,-2,3,15,-1,-2,-2
1532130752076,9,15,0,-3,-11,0,-1,2
1532130752081,3,-22,-1,-2,12,-2,1,-1
1532130752086,-4,1,-1,-3,1,-12,-2,3
1532130752091,-13,-3,-2,7,-6,5,-1,-1
1532130752096,-8,3,3,-7,12,-1,0,-1
1532130752101,-6,-14,-4,1,-14,-1,-2,-1
1532130752106,4,13,2,2,5,8,-2,0
1532130752111,-8,2,0,-1,-3,-4,-1,-3
1532130752116,-11,-23,-8,0,-4,1,-2,-6
1532130752121,5,-31,4,4,-2,-3,-1,3
1532130752126,-8,-11,-2,0,1,4,-1,2
1532130752131,-5,6,-3,-34,-22,-3,-3,-3
1532130752136,-4,3,4,51,29,-4,1,-1
1532130752141,-8,-15,-4,5,4,-5,-4,-7
1532130752146,2,-7,-1,-2,1,2,1,-3
1532130752151,-3,7,2,5,1,-11,-2,-1
1532130752156,-2,-20,-2,-12,-5,6,0,-2
1532130752161,-2,4,-1,1,-9,-1,1,0
1532130752166,5,7,4,5,2,6,1,4
1532130752171,0,-1,-3,-2,4,-3,-1,-3
1532130752176,3,8,0,-11,-8,-2,-1,-2
1532130752181,-1,6,-1,2,-7,-2,-1,0
1532130752186,3,-3,-1,-13,-13,0,-1,-1
1532130752191,-2,1,2,-5,16,-1,-1,0
1532130752196,3,-4,1,-3,-1,-1,-2,2
1532130752201,-1,28,0,0,-4,0,0,-1
1532130752206,2,-39,-4,3,-4,-4,-3,-4
1532130752211,2,-7,-3,3,-3,3,-1,-3
1532130752216,2,17,2,-1,-1,-3,0,4
1532130752221,5,21,1,-6,-4,-2,-3,1
1532130752226,-6,8,-3,2,6,-1,0,-4
1532130752231,-1,-71,-9,-1,-3,0,-2,-3
1532130752236,10,-18,12,-1,-16,3,-1,5
1532130752241,0,-22,-3,-11,0,8,0,1
1532130752246,-5,-2,0,-4,35,-7,0,-4
1532130752251,-1,4,0,19,5,-9,-3,4
1532130752256,-6,0,-2,-25,-14,8,1,-2
1532130752261,-1,-7,-7,12,6,-6,-2,-1
1532130752266,3,11,0,-11,-12,2,-2,-2
1532130752271,3,0,-10,-9,1,-1,1,-3
1532130752276,-9,-20,-4,4,2,3,-3,-1
1532130752281,4,57,15,9,0,-3,0,-3
1532130752286,1,-12,5,4,-3,-1,-1,1
1532130752291,2,17,-2,-4,-19,6,1,4
1532130752296,-2,27,7,11,26,-6,-2,0
1532130752301,-18,-30,-5,-5,7,5,0,-2
1532130752306,-1,-21,-6,3,-2,-1,-2,0
1532130752311,0,11,5,-3,-5,-23,-1,-1
1532130752316,6,6,-8,-18,-10,-19,-3,-3
1532130752321,-1,-21,-17,-4,4,-16,-2,-3
1532130752326,0,7,19,12,0,-7,0,-2
1532130752331,-2,1,11,5,0,10,-2,0
1532130752336,0,-1,-5,-5,-3,4,-1,-2
1532130752341,2,-11,-2,-10,-7,-3,-3,0
1532130752346,-1,-10,-13,14,-4,11,-3,3
1532130752351,-7,-16,-4,-5,0,5,-4,-5
1532130752356,6,53,21,10,7,7,2,6
1532130752361,1,-22,-1,4,-7,1,0,2
1532130752366,-1,-10,-7,-15,-5,1,-3,-8
1532130752371,-6,1,2,1,2,1,-3,-5
1532130752376,4,11,-9,-2,-2,1,-2,1
1532130752381,-1,-1,-4,-3,-4,3,1,2
1532130752386,0,10,3,-3,1,-6,-1,5
1532130752391,-1,-10,-4,-4,4,3,-1,0
1532130752396,-2,-18,-18,-12,-9,0,0,-6
1532130752401,6,20,8,5,3,10,-1,4
1532130752406,-4,-19,16,4,0,-5,-2,-4
1532130752411,-1,8,-6,1,-5,4,-1,2
1532130752416,-6,-18,-5,1,-2,-11,-2,-2
1532130752421,-2,-6,-10,-14,-1,-1,-2,-6
1532130752426,3,12,-8,-1,-2,1,2,1
1532130752431,2,8,6,-3,-6,3,0,3
1532130752436,-8,-31,-5,6,13,-2,-1,1
1532130752441,-2,3,2,8,-2,-7,-4,-9
1532130752446,0,7,-5,-7,-7,-1,-2,1
1532130752451,1,3,0,3,5,13,-2,-6
1532130752456,-2,-8,-2,-1,-7,-3,-1,-3
1532130752461,-4,-14,2,3,-1,-3,0,0
1532130752466,1,4,-1,-2,2,5,0,2
1532130752471,1,2,-1,1,-1,-14,0,-1
1532130752476,-3,-7,3,1,-2,2,-1,-2
1532130752481,1,0,2,2,3,2,0,2
1532130752486,-2,4,-5,-2,-2,-4,-3,-2
1532130752491,-2,-2,0,-2,-4,-2,0,1
1532130752496,0,-4,0,-3,2,1,-2,-2
1532130752501,-1,-7,-1,7,-4,0,1,1
1532130752506,0,17,3,0,3,0,0,-1
1532130752511,-3,-22,-1,2,1,-6,-3,0
1532130752516,-1,4,-2,-3,-8,-3,0,-1
1532130752521,0,-17,1,2,13,17,-1,0
1532130752526,1,4,-2,0,-12,-1,-2,-1
1532130752531,2,11,2,4,19,4,0,3
1532130752536,0,-6,1,-4,-4,-8,-3,-6
1532130752541,-1,1,3,2,-3,-6,0,0
1532130752546,-3,0,-2,-2,4,-1,-1,-3
1532130752551,1,5,-2,-4,1,1,1,3
1532130752556,0,-1,-3,0,0,4,0,2
1532130752561,-2,3,1,-4,-2,-2,-2,-3
1532130752566,1,0,-2,-2,-4,2,-3,-4
1532130752571,-4,-18,-2,-4,-4,-9,-2,-1
1532130752576,-3,-10,-1,5,2,8,-1,-4
1532130752581,1,20,0,-17,-8,-1,-1,-1
1532130752586,-2,-22,-2,-2,-1,-2,1,2
1532130752591,1,15,1,5,2,1,-3,1
1532130752596,-1,-4,-1,-6,-9,-3,1,1
1532130752601,-3,-5,-2,0,5,-2,-1,-3
1532130752606,0,-2,-2,-1,-7,-2,-1,0
1532130752611,0,18,-5,4,11,1,-1,-2
1532130752616,2,7,1,-1,2,3,-1,0
1532130752621,2,5,1,3,2,0,-2,-3
1532130752626,2,-2,0,-2,-5,-2,-1,1
1532130752631,0,0,0,-4,-7,0,1,-1
1532130752636,0,5,3,3,0,-2,-1,-1
1532130752641,-2,-6,-7,-1,-2,-9,0,0
1532130752646,-4,-2,1,4,4,12,-2,-2
1532130752651,-1,3,6,-3,-8,-2,1,1
1532130752656,-2,-1,-8,-3,0,-1,-3,-2
1532130752661,2,-5,2,5,-6,0,-4,1
1532130752666,-4,4,9,5,0,-5,-2,-4
1532130752671,0,-5,-2,-6,-1,-1,0,1
1532130752676,-3,-7,0,2,1,-6,-2,-3
1532130752681,-1,19,-8,2,-2,0,0,-3
1532130752686,-3,-13,0,-4,3,-1,-1,3
1532130752691,-2,-5,2,-1,-3,0,-2,-3
1532130752696,1,-4,-1,-4,-2,-5,2,3
1532130752701,-5,-5,-2,3,0,2,-1,0
1532130752706,-1,3,-7,-2,2,-7,0,-6
1532130752711,0,-3,0,-4,-3,5,0,-2
1532130752716,0,0,0,3,5,1,-2,0
1532130752721,0,-4,1,-6,-12,1,-1,1
1532130752726,1,0,-2,-3,-3,2,0,0
1532130752731,-1,-3,-5,-2,-6,-4,-1,-2
1532130752736,1,0,-1,-1,0,2,1,-1
1532130752741,1,-4,3,-4,1,1,-3,1
1532130752746,3,2,-1,3,0,-2,-1,2
1532130752751,-1,2,2,3,-1,-5,-3,-4
1532130752756,-1,-1,6,0,0,-1,-2,-1
1532130752761,3,-1,0,-4,0,-5,1,0
1532130752766,-3,0,-9,-3,-1,1,0,-2
1532130752771,0,2,-3,-2,2,3,0,0
1532130752776,1,-11,7,2,-1,-4,-1,4
1532130752781,-3,1,1,4,3,6,1,-2
1532130752786,1,0,-4,-5,0,-4,-2,-5
1532130752791,1,4,-2,0,0,-4,-2,-4
1532130752796,-3,-2,-3,-5,-4,1,-2,-2
1532130752801,-1,-4,-3,-12,-1,0,-2,2
1532130752806,-4,-9,-2,7,-3,-2,0,-1
1532130752811,-3,10,16,12,4,3,0,-2
1532130752816,-3,7,0,-2,-2,-5,-1,0
1532130752821,-2,-8,-5,3,-1,-4,-1,-2
1532130752826,0,6,-2,-10,2,0,-1,5
1532130752831,-4,-14,-9,-3,-3,-2,-4,-3
1532130752836,0,-2,0,3,6,0,-2,-3
1532130752841,1,8,3,-1,-9,-2,-3,-1
1532130752846,-1,-17,-7,-2,-1,1,-3,1
1532130752851,-1,-3,-4,0,-2,-1,-2,-2
1532130752856,0,4,3,-4,-5,1,-1,-2
1532130752861,-2,-7,2,5,8,-2,-1,-4
1532130752866,0,3,3,-4,-1,-1,-1,-1
1532130752871,1,1,-10,-7,-4,0,-1,2
1532130752876,-3,-3,4,5,0,0,-1,-3
1532130752881,2,-6,-6,-5,-6,-15,-2,-2
1532130752886,1,7,11,10,1,15,0,2
1532130752891,-1,1,-2,-4,4,-1,-1,-2
1532130752896,0,2,-9,-6,-3,-3,-2,1
1532130752901,1,-3,4,1,0,1,0,2
1532130752906,1,-1,-10,-6,-2,-10,-2,-3
1532130752911,1,0,3,0,0,3,1,2
1532130752916,0,-1,2,2,-2,-1,-3,-1
1532130752921,-2,-5,0,-4,0,5,1,-4
1532130752926,0,-4,-1,-1,4,-7,-3,-1
1532130752931,3,14,6,6,-1,3,-1,-2
1532130752936,-1,-8,-9,-5,-4,-8,0,1
1532130752941,1,6,1,4,6,21,-1,1
1532130752946,-3,-3,9,-3,0,-3,0,-1
1532130752951,3,-16,0,7,1,-3,-1,1
1532130752956,0,3,-2,-4,-1,5,0,1
1532130752961,-3,-2,-5,3,-3,-3,-4,-3
1532130752966,-1,-3,-3,-4,-1,0,1,-1
1532130752971,-1,-5,1,-2,-2,1,-4,0
1532130752976,0,12,-5,-4,-3,0,-1,-1
1532130752981,-1,4,4,2,2,-6,-2,-1
1532130752986,-5,-23,-1,-3,-2,-1,-2,-1
1532130752991,3,25,0,-6,-1,-6,-1,0
1532130752996,-4,-24,-4,1,-1,5,0,-2
1532130753001,-5,-2,-1,-1,5,-4,-1,-2
1532130753006,-1,-1,0,3,-4,0,1,1
1532130753011,-3,-5,-4,-20,1,2,0,-3
1532130753016,0,4,-5,-1,-1,-3,-3,0
1532130753021,-1,1,0,3,-1,2,1,1
1532130753026,0,4,9,2,-9,-1,-4,-3
1532130753031,-3,-2,-7,4,12,-5,-3,2
1532130753036,-1,3,4,2,-2,5,-1,-4
1532130753041,0,-4,-4,-2,-4,-7,-1,2
1532130753046,1,6,-1,-2,4,3,1,1
1532130753051,-2,-18,1,5,-7,-6,-1,-8
1532130753056,-1,-7,-3,-3,1,-1,-1,0
1532130753061,7,11,0,-1,-3,0,-1,2
1532130753066,0,5,-4,-1,-1,-2,0,2
1532130753071,-1,-1,1,-2,-3,5,-3,0
1532130753076,-3,7,-3,-2,-2,-7,0,-2
1532130753081,4,-5,4,-1,-5,-1,-1,2
1532130753086,0,10,-4,0,-4,-3,-3,-3
1532130753091,-4,-1,-3,-5,-2,2,0,-5
1532130753096,-3,-12,-3,-3,-6,-2,-3,-1
1532130753101,1,2,-1,3,0,-4,0,0
1532130753106,4,1,0,-8,-2,-2,-1,1
1532130753111,1,-1,-7,-1,-4,-2,0,4
1532130753116,5,-3,1,-2,0,-14,-3,-1
1532130753121,-3,-2,7,2,-1,10,-2,-3
1532130753126,-2,3,1,3,1,-3,0,-1
1532130753131,-3,-8,3,2,-1,0,-2,1
1532130753136,1,5,-6,-2,1,-2,-1,0
1532130753141,-4,-6,-8,-5,-2,-6,-1,-2
1532130753146,-2,3,-7,-1,2,-3,-2,-1
1532130753151,-2,-1,3,-2,-2,-2,0,-1
1532130753156,-1,1,6,2,0,3,-1,0
1532130753161,-5,-2,-2,-3,0,-3,0,-1
1532130753166,-5,0,-2,-2,2,1,-2,-3
1532130753171,2,-12,-3,1,-6,-5,2,4
1532130753176,2,20,0,2,4,3,-3,-7
1532130753181,-3,-2,1,-3,-5,-1,-2,-2
1532130753186,0,-6,3,2,4,-1,-1,0
1532130753191,0,-2,-8,-2,0,-2,-2,-1
1532130753196,1,1,10,0,2,1,1,1
1532130753201,-1,0,-4,-2,1,3,-2,-3
1532130753206,0,7,-4,5,0,0,0,1
1532130753211,1,0,0,-10,-7,4,1,-1
1532130753216,-1,-10,-3,-1,0,2,0,-1
1532130753221,2,4,-5,-3,1,-4,-3,1
1532130753226,-4,1,1,-4,1,3,0,-1
1532130753231,-1,7,1,4,-3,-2,-2,-3
1532130753236,-3,-6,-5,-5,-2,1,-2,-2
1532130753241,-1,-5,4,1,1,2,3,2
1532130753246,4,11,-4,-3,-4,-3,-3,0
1532130753251,-2,2,-1,-1,-6,-1,-5,-6
1532130753256,-3,1,-2,2,9,2,2,-4
1532130753261,-2,-12,-1,1,0,-4,-1,-1
1532130753266,0,-7,-4,-2,-1,-3,-1,-1
1532130753271,1,5,-1,5,3,-5,-1,1
1532130753276,0,-3,2,-14,-8,-17,-1,2
1532130753281,-1,-1,-3,-2,1,17,1,-1
1532130753286,1,6,-1,2,1,-2,-3,-5
1532130753291,-4,-13,0,3,1,0,-2,-1
1532130753296,0,0,-4,1,-7,-2,-4,-2
1532130753301,-2,-3,1,-1,-3,-7,-1,2
1532130753306,4,-11,0,0,-4,2,1,-1
1532130753311,-4,1,0,-2,-1,-2,-1,-1
1532130753316,12,6,0,3,1,6,0,3
1532130753321,-4,2,1,-5,-9,-4,-2,-3
1532130753326,1,14,-2,2,5,1,1,-1
1532130753331,-3,-6,0,-4,-2,-1,-4,0
1532130753336,-14,-58,-6,1,1,0,-2,-6
1532130753341,-2,-19,-3,0,-2,-1,-3,-2
1532130753346,6,61,4,-1,-11,-16,-1,4
1532130753351,-3,0,-2,5,17,7,-1,-2
1532130753356,3,41,2,2,1,3,0,1
1532130753361,-10,-40,-5,0,2,-6,-2,-3
1532130753366,-3,-7,-2,-3,2,2,-2,-3
1532130753371,1,6,1,0,0,-1,1,3
1532130753376,-1,5,0,1,-7,1,-2,-2
1532130753381,-2,-4,-2,-1,5,-7,0,1
1532130753386,7,-4,3,3,1,3,-1,1
1532130753391,-5,-5,-3,-3,-7,-3,-2,-5
1532130753396,-1,3,-1,-3,-5,3,-1,-1
1532130753401,4,25,0,-5,4,-1,-1,-3
1532130753406,-6,-25,-2,-4,-4,2,1,0
1532130753411,0,9,-1,-4,-15,-11,0,2
1532130753416,8,6,-1,2,14,4,-1,1
1532130753421,-3,9,0,4,3,4,-1,0
1532130753426,-11,-28,-5,-16,-6,2,-1,-2
1532130753431,5,4,-10,-3,-5,-3,-2,-4
1532130753436,-4,-2,14,6,-2,-3,1,3
1532130753441,5,19,-4,-3,-4,-2,-3,-2
1532130753446,-2,-10,-11,-1,2,1,-3,-2
1532130753451,0,-21,18,11,4,0,1,1
1532130753456,-3,2,-4,3,1,-2,1,1
1532130753461,0,-3,1,-3,2,-2,0,-2
1532130753466,-1,-9,-1,-1,-4,2,0,2
1532130753471,2,6,-12,-10,6,-2,-3,-1
1532130753476,-5,-11,-4,-3,-2,-1,-1,-1
1532130753481,2,3,11,8,-1,-3,-2,-1
1532130753486,-3,-8,-4,-1,0,0,-2,-3
1532130753491,0,-1,-10,-2,-3,2,0,1
1532130753496,0,4,8,1,1,-1,-1,0
1532130753501,-2,-12,-11,-10,-13,-16,1,3
1532130753506,-1,-3,2,4,11,11,-3,-2
1532130753511,-2,0,4,-2,2,3,-2,-5
1532130753516,-3,-4,-15,-11,-7,-3,-4,-3
1532130753521,1,10,4,1,1,-1,-2,-1
1532130753526,-1,-7,5,7,0,-3,0,2
1532130753531,0,0,-1,-2,-3,-1,1,1
1532130753536,-2,0,1,-1,-1,-3,-1,-2
1532130753541,-1,-7,-13,-5,2,1,-2,-3
1532130753546,0,7,9,-6,-5,-4,-3,-3
1532130753551,2,10,10,5,1,5,0,2
1532130753556,-2,-6,-10,-8,-26,-2,-1,2
1532130753561,-1,7,5,17,39,2,0,-2
1532130753566,-7,-9,-11,-6,-7,-8,-2,-3
1532130753571,-3,14,-3,-3,-2,-5,-3,-5
1532130753576,2,-20,6,4,4,13,0,-1
1532130753581,-2,-2,0,-10,-4,0,0,2
1532130753586,2,-3,7,7,4,0,2,0
1532130753591,-5,-5,-2,-2,0,4,-1,-5
1532130753596,-3,-1,-6,-3,-1,-11,-1,1
1532130753601,5,6,0,-3,-10,3,0,0
1532130753606,1,3,-7,-1,2,-4,-3,-2
1532130753611,-4,-16,-3,-4,-10,-1,-3,-1
1532130753616,-3,-5,-4,-2,-1,0,-2,0
1532130753621,-3,-1,1,4,7,-2,0,-2
1532130753626,2,12,-10,-5,5,-4,-1,0
1532130753631,-1,8,16,-1,-24,6,-1,-1
1532130753636,-3,-9,-10,-1,8,-7,-1,1
1532130753641,0,-4,-3,-5,-3,2,-1,-3
1532130753646,2,0,-8,-2,2,2,1,2
1532130753651,-2,1,10,0,-2,-2,0,-4
1532130753656,5,2,-7,3,-3,-2,-2,-2
1532130753661,5,19,7,3,-5,-2,-1,3
1532130753666,-3,-5,-6,-13,0,10,-1,-5
1532130753671,-4,-1,-9,-5,-8,-2,-3,2
1532130753676,-2,-14,0,1,14,-1,-2,2
1532130753681,3,2,-4,-3,-5,3,0,0
1532130753686,-2,0,1,3,-2,-10,-3,0
1532130753691,-2,-2,3,5,4,1,1,-2
1532130753696,0,6,-2,-8,-7,1,0,-1
1532130753701,-1,-5,-4,2,-5,1,-3,-1
1532130753706,2,6,-1,0,-2,-4,1,0
1532130753711,2,-14,0,3,16,1,-1,0
1532130753716,0,-6,10,3,-10,-5,-1,-2
1532130753721,-1,-3,0,-2,4,6,-1,0
1532130753726,-2,0,4,7,-1,-8,-2,-1
1532130753731,-2,20,-11,-12,-3,3,-3,-7
1532130753736,-4,-24,-2,0,-2,-2,-1,0
1532130753741,9,24,1,2,0,-1,4,5
1532130753746,-6,-13,2,1,2,-2,-4,-1
1532130753751,-2,17,-2,0,-4,-5,-4,-5
1532130753756,-6,-13,-5,-4,-1,2,-2,-3
1532130753761,-3,-3,4,-1,-4,-3,0,-1
1532130753766,-1,-12,-5,0,1,0,-1,2
1532130753771,1,4,2,2,1,-1,-2,-1
1532130753776,1,10,-1,-4,-6,4,-1,-2
1532130753781,-3,-3,-7,-1,10,-4,0,-1
1532130753786,1,9,2,0,2,-1,-1,2
1532130753791,-4,-25,-1,-1,-7,-8,-3,-3
1532130753796,1,21,-5,-1,-3,14,-1,-2
1532130753801,-2,-13,12,8,8,-2,-2,1
1532130753806,-1,7,4,2,2,2,-1,-3
1532130753811,-1,-5,-3,-3,-3,-3,1,2
1532130753816,2,3,-4,-5,-5,-5,-1,2
1532130753821,-6,-9,-5,1,1,2,1,-2
1532130753826,-2,-3,-2,-2,-1,0,-1,-2
1532130753831,-2,-4,2,2,2,1,0,0
1532130753836,2,7,-2,-2,-4,-6,-1,2
1532130753841,-5,-8,-7,-7,-5,3,-2,-1
1532130753846,0,1,13,11,4,1,-1,-2
1532130753851,-2,-1,-4,-3,-13,1,-2,-6
1532130753856,-2,-8,3,2,8,-3,-2,-2
1532130753861,3,9,-4,-6,-9,-6,0,-1
1532130753866,-1,1,-4,-1,4,14,-1,1
1532130753871,-1,-3,-5,0,-1,-2,-2,1
1532130753876,2,20,-1,-2,0,-2,0,0
1532130753881,-1,-4,-2,-2,0,-5,-4,-1
1532130753886,1,3,-2,-3,-2,-3,0,-2
1532130753891,-1,-1,16,11,2,-3,-2,2
1532130753896,0,5,-2,0,-1,-2,-2,-2
1532130753901,-2,-4,-4,-1,-3,-1,-1,0
1532130753906,1,-2,2,-5,-3,-4,-1,0
1532130753911,-2,-1,-9,-2,-1,-1,-2,0
1532130753916,-1,-1,-2,0,3,-4,-2,-3
1532130753921,1,1,2,3,-7,6,-2,-2
1532130753926,-1,3,-4,-3,-4,-3,-2,0
1532130753931,0,-9,-4,-3,1,-5,2,3
1532130753936,10,28,0,5,0,2,-1,0
1532130753941,-2,-8,6,-2,-1,-2,0,0
1532130753946,-3,-2,-2,3,-3,1,-2,-5
1532130753951,0,-3,-1,-3,4,4,0,2
1532130753956,-4,-5,-5,-4,-1,-4,-3,-1
1532130753961,-2,-8,2,6,6,3,-2,-2
1532130753966,0,13,-2,-2,-10,-2,0,-2
1532130753971,2,-2,0,-5,1,1,-2,0
1532130753976,-4,-19,0,-2,-2,-1,-1,1
1532130753981,-5,3,-6,-2,0,0,-1,-4
1532130753986,3,4,14,3,5,-3,-2,3
1532130753991,1,3,-7,-4,-6,-3,-1,-1
1532130753996,-2,-4,1,2,0,7,0,0
1532130754001,-6,-22,-3,-6,-2,-8,-2,-4
1532130754006,2,18,-7,-1,-9,-1,0,1
1532130754011,-4,-4,2,-1,4,3,1,-2
1532130754016,-1,-7,-2,-1,-3,-4,-1,1
1532130754021,0,3,-9,-6,-8,0,-1,1
1532130754026,0,-8,9,4,6,1,-1,1
1532130754031,-3,1,2,-1,-2,-2,-3,-6
1532130754036,1,3,2,1,-1,-2,1,1
1532130754041,0,-2,1,2,2,2,-4,-4
1532130754046,-3,-10,-8,-7,-3,-2,0,-1
1532130754051,1,4,-2,-2,-1,2,-1,2
1532130754056,3,-19,-2,0,2,-2,0,0
1532130754061,3,24,-1,-3,-4,1,-3,-1
1532130754066,-3,-11,-1,0,0,-6,-1,0
1532130754071,-1,-11,8,0,-7,-2,-2,1
1532130754076,-1,-5,-4,-3,0,2,-2,0
1532130754081,0,2,-5,-1,-1,-1,-1,1
1532130754086,-3,-4,4,-1,2,-6,-2,-3
1532130754091,-3,5,-2,-1,-3,6,0,1
1532130754096,0,-5,-1,2,-1,-6,0,2
1532130754101,0,-14,-1,-14,-2,0,-1,-2
1532130754106,-1,1,-6,-2,-4,-1,-1,-2
1532130754111,3,11,1,1,8,0,0,2
1532130754116,-2,3,-3,-2,-5,-6,-3,-5
1532130754121,0,-1,8,6,6,-1,1,4
1532130754126,-4,-5,-2,-1,1,16,0,-3
1532130754131,2,3,-3,-3,1,-7,-5,-4
1532130754136,-3,-4,-4,0,-4,-2,-1,0
1532130754141,0,0,-3,2,-1,-3,-2,-2
1532130754146,1,-9,1,-1,2,-6,0,0
1532130754151,-1,4,-1,6,4,-2,-2,0
1532130754156,-2,-1,1,-7,-5,11,-1,1
1532130754161,-1,-5,-2,0,-2,-7,-2,-3
1532130754166,-5,-9,-2,-4,-12,-5,0,-1
1532130754171,-4,-1,-2,-1,0,-1,-1,-5
1532130754176,-4,3,1,-1,1,-2,1,-2
1532130754181,4,16,3,2,0,-3,-2,1
1532130754186,-1,3,-4,-3,1,-1,1,-1
1532130754191,2,1,-3,2,3,2,-3,-1
1532130754196,0,-6,-2,-4,-6,-6,-3,1
1532130754201,-4,-1,1,-3,0,1,0,-2
1532130754206,3,-12,-9,-2,-1,-14,-1,3
1532130754211,1,12,14,9,-1,7,0,0
1532130754216,-3,-2,-1,2,4,0,-2,0
1532130754221,-1,-6,-1,-1,2,3,0,-1
1532130754226,-2,-5,-2,2,2,-13,-2,-1
1532130754231,-2,-9,-4,-10,1,-2,0,-2
1532130754236,-1,-8,-1,-1,0,0,-1,1
1532130754241,-1,7,-1,-2,1,6,-1,0
1532130754246,6,21,3,1,-1,1,-2,0
1532130754251,3,-4,-7,0,0,-10,0,2
1532130754256,0,-1,6,3,0,0,-1,-1
1532130754261,-1,1,-2,-1,-1,-3,-2,-5
1532130754266,-5,-6,-1,-1,-1,6,1,-2
1532130754271,0,8,1,-1,-3,4,-1,1
1532130754276,0,-6,-5,-2,0,-3,-3,-2
1532130754281,-1,2,-6,0,-5,-2,-2,-5
1532130754286,-2,-10,9,-2,-2,8,0,0
1532130754291,-5,-17,-5,-1,-3,-4,-1,-1
1532130754296,2,14,0,-5,1,-1,1,4
1532130754301,-3,12,11,8,1,2,-2,-1
1532130754306,-2,2,-3,-3,0,-5,-5,-2
1532130754311,-1,0,-4,-1,-4,-4,2,0
1532130754316,-5,-10,0,-2,-1,1,-1,-3
1532130754321,1,-1,-2,-1,1,-6,0,1
1532130754326,-1,3,-1,-5,-11,3,0,-1
1532130754331,0,4,0,2,1,-8,-3,-2
1532130754336,-2,1,-4,2,-4,-3,-1,-3
1532130754341,1,-7,-4,0,1,1,-2,1
1532130754346,0,9,3,-4,1,-2,0,1
1532130754351,-1,-3,-3,-1,-2,4,0,-1
1532130754356,0,-11,0,2,0,10,1,-4
1532130754361,-3,1,-1,2,-2,-8,-3,-2
1532130754366,-7,-25,-6,-1,3,0,-2,-2
1532130754371,11,27,4,-1,-1,-4,-1,1
1532130754376,-4,-4,1,0,1,3,0,-3
1532130754381,-1,-4,-2,-5,-2,1,-1,1
1532130754386,0,-3,-2,2,1,0,-2,-2
1532130754391,-1,-8,-2,-3,-2,-6,-1,1
1532130754396,-1,0,-1,-1,-3,-7,-2,-1
1532130754401,0,-4,-6,-6,-2,2,2,-2
1532130754406,2,5,4,8,2,-1,-1,-1
1532130754411,0,-2,10,2,1,1,1,1
1532130754416,1,5,-3,-2,-2,0,-2,1
1532130754421,0,0,1,-4,-1,5,0,0
1532130754426,-2,4,-9,-3,1,-8,-1,-3
1532130754431,-4,-19,0,3,3,-4,-2,-3
1532130754436,-4,-1,0,4,0,5,-1,-2
1532130754441,3,2,-4,-1,-3,-4,-1,2
1532130754446,-4,0,2,2,3,3,1,0
1532130754451,-4,-4,-1,-7,-5,-2,-3,0
1532130754456,1,7,-2,-4,-2,-7,-2,-1
1532130754461,-1,-5,0,4,-1,-1,-1,0
1532130754466,1,8,2,-3,-3,-1,-2,0
1532130754471,-2,2,-6,-2,-1,3,0,-2
1532130754476,-3,5,3,0,4,0,1,1
1532130754481,-2,-2,-3,-2,0,0,-3,-1
1532130754486,-2,-13,4,-1,-2,-1,-2,-2
1532130754491,2,15,-8,-4,-2,0,0,0
1532130754496,2,-9,4,-3,-2,-1,-3,2
1532130754501,-1,8,3,3,4,-5,-2,-2
1532130754506,-3,-7,0,-1,0,2,-2,2
1532130754511,-1,-4,-1,0,-2,-5,-2,-3
1532130754516,-1,-6,-6,0,0,14,0,0
1532130754521,0,4,-1,-2,-3,0,0,0
1532130754526,4,-11,-4,-1,0,-1,-2,1
1532130754531,-3,-7,-2,1,1,1,-2,-2
1532130754536,5,10,0,-4,-1,-6,0,2
1532130754541,-2,-4,1,-1,-3,2,-2,0
1532130754546,-2,1,-8,-2,0,-3,-3,-7
1532130754551,3,9,5,0,-2,-1,0,0
1532130754556,-2,-11,4,3,-2,-6,-3,0
1532130754561,0,-5,-2,-4,-3,-4,-4,0
1532130754566,-4,-7,-2,1,-2,2,0,2
1532130754571,-3,-2,-5,-5,-3,1,-3,-5
1532130754576,0,8,-7,0,-7,-5,-1,-1
1532130754581,-1,-8,2,3,4,1,1,-1
1532130754586,1,1,2,-4,-4,-3,-3,0
1532130754591,-4,-14,0,-5,0,3,-4,-4
1532130754596,1,8,6,2,1,3,1,-1
1532130754601,0,3,-1,5,1,-1,-2,-2
1532130754606,-1,1,-2,-1,-3,-2,1,-4
1532130754611,0,0,-1,0,-1,2,-1,0
1532130754616,1,13,-1,-5,0,-5,-1,0
1532130754621,1,-23,-1,-3,-1,-1,0,1
1532130754626,-1,0,-1,-1,2,-1,-3,-5
1532130754631,-1,-5,-2,-1,-2,-5,0,0
1532130754636,0,3,-4,-2,1,-1,-2,-2
1532130754641,-3,8,-6,-5,0,-4,-2,-2
1532130754646,0,-1,2,0,0,2,0,-2
1532130754651,-1,0,-4,-1,3,3,3,4
1532130754656,-2,-6,2,-4,-7,-6,-3,-3
1532130754661,0,2,-2,-2,0,-2,-1,-1
1532130754666,-2,0,-1,1,0,1,-2,4
1532130754671,-1,-3,-5,-3,-3,-3,-2,-3
1532130754676,-2,4,0,5,4,0,0,1
1532130754681,-3,-36,2,-7,-1,3,1,-3
1532130754686,5,13,0,-2,-2,-2,-1,1
1532130754691,-1,11,1,0,-1,3,0,2
1532130754696,-3,-8,-5,0,1,-2,0,-2
1532130754701,-3,4,-1,1,-2,-1,-2,-2
1532130754706,3,6,0,0,2,2,0,1
1532130754711,-1,-7,-5,-1,-4,0,-1,-1
1532130754716,-3,-9,1,-3,-1,-1,-1,-4
1532130754721,0,18,1,1,0,-3,0,0
1532130754726,-2,-4,-4,-3,-2,-1,-1,-1
1532130754731,0,7,-5,-3,-1,1,-1,2
1532130754736,0,-8,-5,-2,0,3,-3,-3
1532130754741,-2,1,9,6,1,-6,-2,1
1532130754746,-1,0,-3,0,-1,-2,0,-3
1532130754751,-2,2,-2,-2,1,-1,-1,2
1532130754756,3,-5,0,-3,-1,-3,-2,-1
1532130754761,0,-2,-5,1,-2,-1,-1,0
1532130754766,4,16,2,1,0,0,0,2
1532130754771,0,-2,-1,-1,1,0,-2,-1
1532130754776,-2,-7,-2,-2,2,1,-1,-1
1532130754781,-1,5,-2,-6,-7,-14,-1,-4
1532130754786,-5,-1,0,8,3,10,-4,-4
1532130754791,0,-11,5,-11,-6,0,0,0
1532130754796,-1,19,-3,-1,1,0,-2,2
1532130754801,-1,-2,1,-2,2,-1,-4,-4
1532130754806,-1,-9,1,-1,-1,-6,-1,2
1532130754811,-4,-2,-1,0,0,0,-3,-3
1532130754816,-1,5,-2,-1,-2,1,0,1
1532130754821,3,3,-2,0,-1,3,-1,-1
1532130754826,6,-3,-2,-2,0,-3,-2,0
1532130754831,7,-7,-3,1,-3,0,-2,-3
1532130754836,-2,-10,0,0,-3,0,-1,1
1532130754841,2,9,5,6,4,3,0,1
1532130754846,-8,-3,3,-1,-1,-2,-2,-1
1532130754851,-3,-5,0,0,0,-1,-1,0
1532130754856,-1,6,-5,-3,-2,1,-2,-3
1532130754861,-6,-17,-2,0,-1,-2,0,-2
1532130754866,0,11,2,1,7,2,0,0
1532130754871,-6,-13,-2,1,1,1,-4,1
1532130754876,-2,-1,5,2,0,-3,0,-5
1532130754881,-2,3,0,-7,-6,-2,-1,2
1532130754886,-1,-3,-1,0,-2,-2,-2,-3
1532130754891,1,6,-1,-3,-3,1,-1,0
1532130754896,3,2,-6,0,3,0,0,3
1532130754901,-1,4,0,0,-3,-1,-2,-1
1532130754906,-2,-1,-6,-1,-3,2,-2,0
1532130754911,-2,-9,5,0,-1,1,1,0
1532130754916,-4,0,-2,4,-2,1,-2,-1
1532130754921,8,-3,5,6,2,-2,-2,0
1532130754926,-2,1,-2,-3,-3,-2,-2,-3
1532130754931,-3,4,-4,-1,-1,2,0,-2
1532130754936,-2,-6,-3,-3,-3,-5,-1,0
1532130754941,-2,6,-1,-2,0,-1,-1,-3
1532130754946,0,-4,0,2,1,-7,-1,-1
1532130754951,-1,2,-1,3,2,15,0,-1
1532130754956,-1,-2,-1,-4,-2,0,0,-1
1532130754961,-1,10,-5,-1,-1,3,-1,-3
1532130754966,0,-2,-2,-1,-5,-5,-2,-1
1532130754971,0,4,7,1,-1,-7,0,3
1532130754976,-1,-10,0,-4,-1,0,-1,-1
1532130754981,-1,-7,-2,2,3,1,-3,-5
1532130754986,0,1,-5,1,-7,0,-2,0
1532130754991,1,10,0,-7,-3,-5,1,2
1532130754996,-1,-8,-1,2,1,0,0,0
1532130755001,-1,2,-6,-4,-4,-2,-2,2
1532130755006,-2,-4,7,6,1,-2,-1,-6
1532130755011,0,2,-8,-3,0,-2,-3,-2
1532130755016,-2,-13,-1,-2,-1,1,-2,2
1532130755021,2,9,5,3,-1,-4,-1,0
1532130755026,0,0,-3,-3,2,13,2,-2
1532130755031,-1,0,-4,0,3,2,-1,-1
1532130755036,1,0,-1,-6,-6,-2,1,-3
1532130755041,1,0,-2,-2,-3,-2,-1,-2
1532130755046,-2,-10,4,1,0,-2,-4,4
1532130755051,-5,8,-1,-3,-1,-4,-2,-2
1532130755056,0,6,-5,1,0,2,-3,0
1532130755061,-1,-11,-3,1,3,2,1,0
1532130755066,-1,6,7,-2,0,0,0,-1
1532130755071,-1,-9,-15,-4,-4,-1,-1,-2
1532130755076,-3,-1,11,4,0,-4,-3,-4
1532130755081,0,6,8,2,2,0,-1,2
1532130755086,2,5,-2,0,3,-1,-2,-3
1532130755091,1,-10,-4,-2,-2,-2,0,0
1532130755096,2,1,-7,-9,-2,3,0,-1
1532130755101,-1,-1,4,4,0,0,-1,0
1532130755106,0,-4,3,1,0,1,1,2
1532130755111,2,-3,-1,-2,-2,-2,-1,2
1532130755116,1,1,1,3,0,-2,-3,-1
1532130755121,-1,-4,-2,-3,-1,-3,0,-1
1532130755126,0,-2,-9,-6,-1,-3,-1,1
1532130755131,1,-1,-2,-5,-3,0,-3,-3
1532130755136,0,0,13,3,0,-3,-1,-4
1532130755141,-1,-3,0,3,2,2,-1,0
1532130755146,3,14,10,1,2,0,0,4
1532130755151,-2,-12,-8,-3,-1,0,-1,-4
1532130755156,-1,-1,-7,-3,-3,-1,0,7
1532130755161,-4,0,-1,-1,1,-2,-2,-4
1532130755166,1,0,-1,0,0,-2,-2,-3
1532130755171,3,-3,0,1,-1,1,0,5
1532130755176,2,6,-6,3,-1,0,-1,-3
1532130755181,-3,0,5,0,1,0,-1,-3
1532130755186,-2,-6,-6,-6,-6,-2,-2,0
1532130755191,-2,-2,5,2,4,0,-1,0
1532130755196,-3,-2,-6,-6,-2,-3,-2,1
1532130755201,0,-2,-16,-8,-2,-1,-1,3
1532130755206,-1,-1,17,9,3,0,0,1
1532130755211,-1,3,6,1,-2,-1,-1,-5
1532130755216,0,6,-1,-4,1,-1,0,0
1532130755221,2,-2,-4,-4,-2,-1,-3,-4
1532130755226,2,-5,-6,-6,-2,0,-1,0
1532130755231,0,5,4,3,0,-1,-1,1
1532130755236,-2,-11,-4,0,1,-1,0,-3
1532130755241,-2,0,5,7,0,-2,-2,2
1532130755246,-3,-1,-9,-3,1,-1,0,-3
1532130755251,-2,-2,6,2,0,-1,0,-1
1532130755256,-4,-3,-9,-6,-3,0,-3,-1
1532130755261,-2,4,9,0,2,1,0,-1
1532130755266,2,21,-11,-1,1,-1,-1,-1
1532130755271,-4,-27,1,-7,-4,-3,-2,-3
1532130755276,1,2,-4,0,-2,1,-1,0
1532130755281,1,-2,3,3,3,-1,0,0
1532130755286,-1,-2,-4,-4,0,-1,-4,1
1532130755291,0,4,0,9,0,-1,-2,-3
1532130755296,0,3,-1,-3,-1,0,-2,0
1532130755301,-2,-5,-5,-6,3,-1,-1,-2
1532130755306,-4,-8,2,1,1,0,-2,1
1532130755311,2,12,-9,-6,-5,1,1,1
1532130755316,-8,-24,5,0,-11,1,0,-1
1532130755321,-1,19,1,-2,8,-2,-2,-3
1532130755326,-4,1,-5,-4,-4,-3,-3,-4
1532130755331,3,-5,-5,0,2,-1,0,6
1532130755336,1,2,8,2,-2,-4,-2,1
1532130755341,-7,-6,4,2,-6,4,-2,-11
1532130755346,-3,-4,-1,-3,-2,-2,-1,0
1532130755351,-3,7,0,0,2,-8,-1,-4
1532130755356,1,2,-6,2,3,7,1,4
1532130755361,0,-8,-4,-1,-4,2,-2,0
1532130755366,0,-6,-5,-2,-2,-1,0,3
1532130755371,-1,7,5,2,5,-2,-3,-3
1532130755376,-1,-4,0,-1,1,-4,-1,-2
1532130755381,-1,-1,-9,-3,-1,-2,1,1
1532130755386,1,4,8,-2,-5,2,3,-2
1532130755391,0,-11,-13,-4,-4,2,-2,4
1532130755396,-1,1,8,0,6,-1,-1,-4
1532130755401,0,-4,-9,-6,-6,-1,0,-3
1532130755406,-1,0,5,2,-2,-4,-2,-1
1532130755411,-1,-1,-2,-1,1,1,-2,0
1532130755416,2,6,0,-2,-2,0,-1,-3
1532130755421,4,-4,-1,-3,-2,2,-1,8
1532130755426,-4,-2,-3,1,-3,-6,-4,-3
1532130755431,2,-12,3,-3,-1,2,-1,1
1532130755436,-3,21,2,1,-19,0,-4,-2
1532130755441,-2,2,3,0,20,-15,2,0
1532130755446,5,9,-4,3,11,21,-1,-1
1532130755451,-2,11,13,-1,4,2,-1,-1
1532130755456,-2,-14,-8,3,-2,-1,0,-1
1532130755461,1,-14,-1,-32,-28,0,-1,2
1532130755466,-2,-4,-3,42,22,-7,0,0
1532130755471,-5,-8,-7,-11,-14,-3,-2,-4
1532130755476,3,35,1,0,10,4,0,-2
1532130755481,0,-21,1,-3,-14,-7,-2,1
1532130755486,-3,-12,-2,-21,-1,2,0,-4
1532130755491,-1,15,-2,6,-4,2,-2,-3
1532130755496,-1,-7,1,-3,8,0,-1,1
1532130755501,0,13,-1,7,-8,8,-3,-3
1532130755506,-1,-1,1,-9,-11,-6,-2,-1
1532130755511,-2,-14,-2,5,6,3,1,0
1532130755516,3,0,2,-5,-5,-7,-3,-1
1532130755521,3,-1,-8,6,4,1,-1,-1
1532130755526,3,-2,2,-1,-4,-2,0,-3
1532130755531,2,4,6,-7,0,-4,-2,1
1532130755536,4,-7,0,2,0,4,3,3
1532130755541,-6,1,-1,10,-2,-5,-4,0
1532130755546,-8,-3,-3,-2,1,-1,-2,-5
1532130755551,-1,-1,-4,-15,-7,-17,-2,-3
1532130755556,-5,-9,-2,1,0,6,0,-1
1532130755561,1,12,4,6,5,2,0,2
1532130755566,-1,-10,-4,-9,-9,-1,-2,2
1532130755571,0,-4,-3,5,4,-3,0,-2
1532130755576,0,3,3,-1,-8,3,0,-2
1532130755581,10,2,4,1,15,2,0,-1
1532130755586,9,1,-1,0,0,-14,-2,0
1532130755591,7,-3,-5,3,-6,13,0,5
1532130755596,0,-2,-6,-2,3,-10,-4,-7
1532130755601,-7,-21,-4,1,-2,1,-1,-1
1532130755606,-8,6,-1,-6,-10,-12,-1,0
1532130755611,-13,-3,1,5,16,6,0,-2
1532130755616,-8,-2,-7,-2,-1,-5,-3,2
1532130755621,-9,-2,0,2,-4,5,-1,-2
1532130755626,-4,-1,3,-2,-7,-3,-1,-1
1532130755631,3,-5,-1,2,2,-6,-2,1
1532130755636,4,4,-5,-4,9,-4,-2,1
1532130755641,-4,-7,1,11,1,3,-2,-7
1532130755646,-2,6,0,-7,-4,2,-2,-2
1532130755651,-4,-5,0,1,-2,0,-2,-2
1532130755656,-1,-9,-2,-3,-4,-1,1,-1
1532130755661,7,7,-4,-5,1,-1,-1,3
1532130755666,8,-4,2,0,-3,7,4,1
1532130755671,4,0,0,0,-3,8,1,-2
1532130755676,-2,-10,-1,1,3,-8,-3,-2
1532130755681,-6,-3,-4,-6,-5,1,-1,-1
1532130755686,-2,8,-1,0,2,-1,-2,-2
1532130755691,-3,-1,7,5,2,-2,0,-2
1532130755696,0,2,-3,-1,-4,4,1,1
1532130755701,2,-4,4,2,-1,-15,1,3
1532130755706,-1,-6,-4,-4,-2,9,-2,-3
1532130755711,1,-6,-4,4,11,-8,-4,-2
1532130755716,0,-4,-4,2,3,1,-1,-1
1532130755721,11,18,7,-2,0,0,-3,-1
1532130755726,-2,-7,-4,1,-4,-3,-1,1
1532130755731,-3,2,-1,-5,-9,3,-1,-3
1532130755736,-1,3,4,1,-1,-2,1,2
1532130755741,-6,1,-7,-2,4,3,-1,-2
1532130755746,-4,-3,0,2,2,-3,-2,-1
1532130755751,0,5,3,-3,-7,-1,0,-2
1532130755756,-3,-7,-1,-1,-2,0,-2,-3
1532130755761,-1,3,1,-1,-2,-2,1,4
1532130755766,1,-5,-2,-1,2,2,-2,-1
1532130755771,4,16,-1,-3,0,-3,-2,-1
1532130755776,3,0,-1,1,5,2,0,-1
1532130755781,-1,0,6,-1,-3,-6,-1,-2
1532130755786,-4,-10,-2,2,2,5,-3,-1
1532130755791,-5,1,-5,-2,-4,-2,-2,-2
1532130755796,0,-12,-4,0,-3,-2,0,-1
1532130755801,-3,7,-2,-15,-16,0,-1,-2
1532130755806,-3,-9,2,8,28,-3,2,2
1532130755811,4,10,-3,-4,-6,3,-4,0
1532130755816,-4,2,5,1,-1,2,-3,-3
1532130755821,-4,-6,-14,0,3,-1,-1,-4
1532130755826,6,8,9,-1,-6,3,-2,1
1532130755831,-3,-10,1,3,-2,-4,0,-1
1532130755836,3,-4,0,-3,0,-1,-3,-1
1532130755841,3,3,-2,0,-7,-6,-1,2
1532130755846,-3,-1,-4,-3,-1,6,-2,-4
1532130755851,-5,4,-3,-1,1,-2,1,-5
1532130755856,-4,-4,-1,-3,-4,-2,0,1
1532130755861,-4,-7,-7,-1,0,-2,-3,-4
1532130755866,0,8,7,1,-4,-4,-1,5
1532130755871,-3,0,5,-1,-2,-2,-2,-4
1532130755876,-7,-16,-3,2,1,1,-1,-1
1532130755881,7,31,7,3,2,1,-1,-1
1532130755886,0,-10,-11,-6,-5,-4,-2,0
1532130755891,1,11,1,-1,-2,1,-2,0
1532130755896,1,0,4,0,1,-7,2,1
1532130755901,-1,-14,-3,2,-3,1,-2,-2
1532130755906,1,4,-4,-13,-6,-6,-4,-1
1532130755911,-1,-14,-1,-2,-4,-2,0,3
1532130755916,-2,14,-4,-2,0,-2,-4,-9
1532130755921,-3,-9,-2,-1,4,0,-1,0
1532130755926,2,3,-5,5,-1,-2,0,1
1532130755931,-1,-8,6,-2,-3,-1,-2,1
1532130755936,0,1,-3,-2,-3,-6,-2,1
1532130755941,-4,-3,10,7,5,1,-1,-5
1532130755946,-4,0,-2,-2,-7,1,-3,-7
1532130755951,-2,-11,-7,-2,8,-1,0,3
1532130755956,2,6,-3,-2,0,4,-3,-3
1532130755961,5,1,-4,-4,1,-1,0,3
1532130755966,-3,-4,5,5,2,-1,1,0
1532130755971,-2,-1,-4,3,-1,4,2,-3
1532130755976,1,-5,0,3,-1,0,0,1
1532130755981,-4,-1,-1,-5,2,1,-2,1
1532130755986,2,3,-2,-2,-1,-3,0,1
1532130755991,-3,-4,-3,-1,0,1,-4,-1
1532130755996,-4,-6,-6,-3,-3,-3,-2,-4
1532130756001,-2,3,9,2,0,3,-3,-4
1532130756006,0,-9,-3,0,4,0,-1,2
1532130756011,-2,4,-4,-5,-2,-2,0,1
1532130756016,1,-1,7,7,0,1,0,3
1532130756021,-2,-3,-2,-1,3,-1,-1,-3
1532130756026,0,2,3,0,-4,-16,-2,-2
1532130756031,-3,-15,-12,-2,4,7,-1,1
1532130756036,3,28,1,0,-10,-11,-1,-2
1532130756041,1,-14,4,-9,-11,12,-1,1
1532130756046,-3,3,-1,-2,3,0,-2,0
1532130756051,1,2,-1,-3,-14,-3,-3,-2
1532130756056,-3,-21,0,2,21,2,0,-2
1532130756061,2,29,0,1,-1,-2,-2,2
1532130756066,-3,-16,-3,0,-3,2,-1,0
1532130756071,4,1,1,-1,-2,-4,-3,-2
1532130756076,-4,-4,-3,-3,-3,3,1,1
1532130756081,-3,-6,2,-1,-6,-16,0,-2
1532130756086,2,9,0,4,-2,19,1,-1
1532130756091,2,6,-4,3,18,0,0,-1
1532130756096,-3,-9,0,0,-3,-2,-2,1
1532130756101,-6,-2,-12,-2,5,0,-4,1
1532130756106,-6,-6,4,-2,-7,-8,-4,-7
1532130756111,-2,11,19,11,-5,-1,0,-1
1532130756116,-1,-7,3,-3,-3,-1,0,-1
1532130756121,2,7,-3,-1,1,-1,1,3
1532130756126,5,1,-5,-2,-3,4,-1,-2
1532130756131,0,2,-6,-1,-3,-1,0,1
1532130756136,1,4,2,-2,0,2,-2,0
1532130756141,-4,-10,-3,-1,-2,-1,-3,-5
1532130756146,2,-8,-3,-4,0,-3,-1,0
1532130756151,2,-9,-2,-2,-1,1,-1,1
1532130756156,2,13,1,2,-7,-4,-3,0
1532130756161,-6,-9,-3,-2,-1,2,0,-4
1532130756166,-4,5,0,-1,3,1,1,-2
1532130756171,-4,-6,-1,-1,-2,-3,1,1
1532130756176,-3,3,-3,-3,-3,4,-1,2
1532130756181,1,0,-3,1,1,-2,-1,-1
1532130756186,-2,-9,-5,-4,1,-3,1,0
1532130756191,1,14,-1,-4,-11,2,-1,2
1532130756196,0,0,15,9,2,-2,0,-6
1532130756201,1,1,3,4,5,1,0,3
1532130756206,-1,-12,-2,-4,-6,-1,-2,-3
1532130756211,4,2,-6,0,0,-6,-1,2
1532130756216,0,1,-12,-17,-12,3,-1,2
1532130756221,1,5,1,2,4,-2,-3,-7
1532130756226,1,0,3,0,0,1,-3,-3
1532130756231,1,-10,0,-1,0,-3,-2,-1
1532130756236,0,0,-2,1,0,-1,-1,-1
1532130756241,0,-5,0,1,0,3,0,3
1532130756246,-3,9,-3,-3,-1,-6,-3,1
1532130756251,-4,1,0,-1,-1,-1,-1,-3
1532130756256,-4,-6,-5,-4,3,1,-1,-3
1532130756261,-2,-7,-5,0,-3,-2,0,2
1532130756266,-2,1,7,4,3,-1,-1,-1
1532130756271,5,8,-1,0,-2,-4,1,-1
1532130756276,7,-3,-2,-1,-2,0,-1,2
1532130756281,6,1,-6,-5,-1,0,-1,-1
1532130756286,1,1,5,1,-2,-5,1,-1
1532130756291,-8,-7,-2,-2,-1,1,-3,-2
1532130756296,-7,0,-5,-9,0,2,-3,-3
1532130756301,-5,-9,-3,1,0,-3,0,0
1532130756306,-2,15,5,2,-4,-1,-3,0
1532130756311,-3,-24,-1,-1,0,4,1,1
1532130756316,-3,-1,-4,-1,1,2,-3,-1
1532130756321,-1,-1,5,0,0,-2,-2,-4
1532130756326,0,2,-6,-2,1,1,1,4
1532130756331,0,6,0,-2,-1,-3,-3,-5
1532130756336,0,0,5,3,-1,-4,-1,1
1532130756341,2,-1,-2,-2,-2,0,-1,-1
1532130756346,5,5,2,2,-2,0,0,2
1532130756351,2,-4,-3,-1,0,5,-3,-5
1532130756356,1,-2,-4,4,5,-4,1,1
1532130756361,-5,2,0,-1,-5,2,-2,2
1532130756366,-5,-2,-11,-2,-1,-5,-1,-4
1532130756371,-4,4,11,3,0,-2,0,1
1532130756376,-2,-9,0,-3,-2,1,-2,-1
1532130756381,1,-4,0,0,0,2,2,1
1532130756386,-2,4,-2,2,-1,-4,-1,1
1532130756391,0,4,2,3,0,-4,-3,-2
1532130756396,-4,-4,-3,-1,1,1,-3,-8
1532130756401,1,8,-1,0,0,-1,-3,0
1532130756406,-1,-15,-2,-2,1,3,-2,-2
1532130756411,2,8,-8,-7,-1,0,0,1
1532130756416,4,10,8,5,-1,-1,0,3
1532130756421,-1,-8,-3,-1,-1,-2,-1,-3
1532130756426,0,-8,2,-4,2,2,1,0
1532130756431,-2,4,-2,-3,0,-3,0,5
1532130756436,-3,-4,-4,-3,-1,-1,-3,-5
1532130756441,2,7,2,2,0,-1,-2,4
1532130756446,0,1,1,-1,0,-1,-2,-3
1532130756451,-2,-9,-7,-4,0,1,-4,-8
1532130756456,1,-4,-3,-3,-1,-3,0,2
1532130756461,-1,2,4,0,3,5,0,-2
1532130756466,0,1,0,-1,-2,-2,-2,-5
1532130756471,4,-4,3,3,3,3,0,0
1532130756476,3,4,1,3,-6,-4,-2,-1
1532130756481,-1,-6,-1,-1,3,-5,3,0
1532130756486,-3,0,-1,-4,-7,1,-2,3
1532130756491,-4,0,-6,0,-2,-3,-1,-4
1532130756496,-4,-1,0,-13,-4,2,-1,0
1532130756501,-1,3,-2,-3,-1,-1,-1,-6
1532130756506,1,-4,-4,0,-1,1,-1,0
1532130756511,-2,-3,5,-1,-3,-1,0,-1
1532130756516,1,-2,-3,0,0,-2,1,3
1532130756521,1,0,-1,2,-1,2,-3,-1
1532130756526,2,3,-3,-1,3,-3,-1,0
1532130756531,0,-2,1,-1,-1,0,-2,0
1532130756536,-2,-1,-4,3,0,0,-3,-4
1532130756541,-3,-7,7,-4,-1,-3,-2,-3
1532130756546,4,9,-4,0,0,1,-1,1
1532130756551,4,1,-4,-5,-3,-2,0,3
1532130756556,2,-9,-1,4,-3,-1,2,1
1532130756561,-1,-7,-4,0,-2,-1,-4,-5
1532130756566,-5,-7,2,-1,0,0,-2,1
1532130756571,0,7,2,0,-2,-2,-1,-2
1532130756576,-4,4,-3,-2,0,1,0,0
1532130756581,-1,0,-2,-2,-1,-8,-4,4
1532130756586,-5,-8,1,7,3,7,-2,-5
1532130756591,-1,-4,-5,-2,0,3,-1,-1
1532130756596,-3,11,5,0,0,0,-3,-1
1532130756601,0,-15,-4,-3,-10,3,0,1
1532130756606,5,14,2,0,3,-1,1,2
1532130756611,-1,-13,-1,3,6,-4,-2,0
1532130756616,-1,17,0,1,5,-9,-2,-6
1532130756621,-3,3,-4,-4,-1,1,-2,0
1532130756626,3,-1,-3,-1,-14,-17,-1,1
1532130756631,-3,1,2,1,-1,9,-1,-2
1532130756636,-3,-22,0,-2,0,-2,0,-1
1532130756641,1,18,-2,1,1,2,-1,1
1532130756646,4,13,1,-1,-1,-4,-1,1
1532130756651,-1,2,-1,-4,-9,-6,-2,-2
1532130756656,-2,-3,-6,1,15,-1,-3,-1
1532130756661,2,-9,0,1,0,3,1,0
1532130756666,-1,-11,-2,-2,-3,0,0,-1
1532130756671,-2,-4,-9,-4,5,-3,0,3
1532130756676,7,6,13,6,-10,5,-3,-1
1532130756681,-6,-4,2,3,11,-4,-2,-2
1532130756686,0,6,-2,-4,1,5,-2,0
1532130756691,-7,-8,-1,-1,-7,-1,-3,-6
1532130756696,-5,-14,-9,-5,-6,4,0,-1
1532130756701,4,5,0,1,1,-5,1,-1
1532130756706,0,-2,2,-5,-6,1,-2,-1
1532130756711,4,3,-6,-2,-3,-6,-1,-4
1532130756716,4,1,0,1,-2,6,0,1
1532130756721,0,2,-5,-17,-8,-5,-2,-1
1532130756726,-8,-6,6,15,6,4,-1,-3
1532130756731,-3,6,4,2,-3,-2,0,1
1532130756736,-3,-5,-3,0,1,1,2,2
1532130756741,5,0,1,3,-6,-8,-2,0
1532130756746,-5,-10,-9,-10,1,7,-1,-3
1532130756751,1,-2,6,4,4,1,1,1
1532130756756,1,2,-3,-1,-2,-3,-3,2
1532130756761,2,2,-12,-6,-2,-1,0,-5
1532130756766,-1,-2,5,3,1,1,0,1
1532130756771,-5,-12,4,0,2,-6,-2,-2
1532130756776,-5,13,-7,2,-1,-1,-2,2
1532130756781,-5,-7,11,2,-2,2,-3,-1
1532130756786,3,3,-9,-5,-2,0,-1,1
1532130756791,-4,1,-5,0,2,-2,-2,-2
1532130756796,-2,-6,8,-1,-1,-4,0,-4
1532130756801,-3,-3,-4,-1,-6,2,-2,-4
1532130756806,6,1,-4,-2,-2,-1,-2,-2
1532130756811,7,1,-3,-2,-4,-2,0,2
1532130756816,1,-5,-10,-5,-2,1,-2,-5
1532130756821,1,12,3,2,1,2,0,3
1532130756826,-6,-22,9,4,2,-2,1,2
1532130756831,-2,-3,-2,-1,-1,1,-2,-6
1532130756836,-7,-14,0,-1,-4,-6,0,-2
1532130756841,-4,6,-7,-4,0,13,0,-1
1532130756846,-1,6,-4,-5,0,-3,-1,0
1532130756851,2,4,-6,-1,-5,-7,-3,-1
1532130756856,1,-1,5,3,6,4,-4,0
1532130756861,-3,-4,-3,-5,3,-5,0,-2
1532130756866,-3,-1,-3,1,0,-3,-2,-3
1532130756871,-1,-1,-2,1,-3,4,-2,0
1532130756876,-2,0,3,-13,-5,-4,-2,-1
1532130756881,3,3,-5,3,-1,-4,-2,1
1532130756886,2,5,-5,-3,-1,-3,-2,-2
1532130756891,-5,-4,2,1,-1,2,-1,-1
1532130756896,5,11,5,4,3,-5,-1,0
1532130756901,2,-12,3,2,1,1,1,2
1532130756906,2,-1,-1,-3,-2,-1,-1,0
1532130756911,-2,-4,0,-3,-1,-1,0,0
1532130756916,0,16,-5,-1,-2,3,-2,0
1532130756921,-4,-1,-1,2,-1,-1,0,-2
1532130756926,4,2,-2,2,0,-6,0,0
1532130756931,1,-19,5,0,3,18,0,1
1532130756936,-3,3,-6,-3,-4,-5,-3,-4
1532130756941,-3,3,4,-2,1,1,-2,1
1532130756946,-4,2,0,1,-1,0,0,0
1532130756951,0,7,1,0,2,-7,-3,0
1532130756956,1,-6,3,0,-3,1,-1,0
1532130756961,1,1,-4,1,2,-1,-2,-2
1532130756966,4,-7,-8,-10,-3,-2,-2,0
1532130756971,7,7,0,7,6,-2,-1,1
1532130756976,2,-11,3,-3,-4,3,0,1
1532130756981,-2,4,8,2,-2,-3,-2,-1
1532130756986,-8,-3,0,3,1,2,-2,-1
1532130756991,-7,-3,-8,-6,-3,-6,-1,0
1532130756996,1,-6,-7,2,1,0,-2,0
1532130757001,-3,2,-4,0,-1,-2,0,0
1532130757006,1,-11,0,2,-2,-23,-2,0
1532130757011,-6,0,-2,-2,1,27,2,-5
1532130757016,-4,-11,-6,-2,-2,-1,-1,0
1532130757021,3,11,6,0,-1,-2,0,1
1532130757026,-2,3,-1,-2,-6,2,-2,-4
1532130757031,3,-2,-3,-2,4,-10,-2,2
1532130757036,-3,7,4,2,-3,-1,-1,-2
1532130757041,0,-8,-1,1,-1,1,-2,-1
1532130757046,-1,-3,4,4,-1,4,-1,-2
1532130757051,0,8,2,-3,-2,-6,1,2
1532130757056,1,5,-5,-1,1,3,0,1
1532130757061,0,-15,-6,-2,-2,-5,-2,-4
1532130757066,-2,2,3,-1,1,4,-2,-4
1532130757071,-1,-4,-4,-3,-7,-5,-4,-2
1532130757076,2,1,-2,-1,2,-7,0,3
1532130757081,-1,4,2,-1,0,-3,-1,0
1532130757086,-3,-6,-5,-1,2,12,0,-1
1532130757091,0,3,0,-3,-2,-8,-3,1
1532130757096,-2,-1,0,0,-1,5,-2,-7
1532130757101,-1,-7,-4,2,0,3,0,1
1532130757106,0,-1,2,-1,3,0,1,-1
1532130757111,4,9,2,0,-3,-6,0,0
1532130757116,2,-8,-4,2,-6,0,-2,0
1532130757121,-3,-3,1,-13,-3,-4,-1,0
1532130757126,-3,4,-10,-3,0,-4,-3,-2
1532130757131,-5,-1,11,-4,-2,-1,-2,-1
1532130757136,1,-5,-3,0,-5,0,0,-1
1532130757141,3,6,-11,4,5,2,-2,2
1532130757146,0,10,17,4,2,-1,2,1
1532130757151,-1,-6,-9,-7,-6,-1,-1,0
1532130757156,-5,0,3,4,9,0,-3,-3
1532130757161,-4,-8,-2,-3,-3,-1,-2,-2
1532130757166,0,4,-7,-4,-1,4,-1,-1
1532130757171,0,-6,-4,1,-2,-4,-1,-2
1532130757176,-2,3,3,-1,-2,-1,-1,2
1532130757181,-4,-9,0,1,-3,2,-1,-3
1532130757186,5,9,-2,-1,0,-4,-2,0
1532130757191,1,-2,-2,2,2,6,0,1
1532130757196,-3,-2,-4,-5,-13,-16,-1,-1
1532130757201,-3,7,-2,-8,10,0,-1,-3
1532130757206,0,-22,-6,-5,-7,3,-2,-3
1532130757211,4,6,12,5,2,-12,0,0
1532130757216,1,-5,-2,-2,-7,8,1,-2
1532130757221,5,6,0,1,-3,-4,-2,0
1532130757226,-5,2,-7,-5,-2,3,-1,0
1532130757231,-5,-3,-8,1,0,-4,-3,-3
1532130757236,-8,-4,9,1,0,-4,-2,-3
1532130757241,1,5,-2,0,-3,0,1,0
1532130757246,-3,-3,0,-2,-2,-4,-1,0
1532130757251,2,10,-4,-1,-1,0,-1,-1
1532130757256,3,-12,1,1,-2,-5,0,2
1532130757261,-3,-2,4,9,5,2,-1,-2
1532130757266,-1,-7,1,-3,-6,-3,-4,-3
1532130757271,-1,-1,1,-3,1,2,0,-2
1532130757276,2,5,-7,-6,5,4,-3,0
1532130757281,3,2,-6,0,-3,0,0,0
1532130757286,-6,3,14,4,4,-11,0,2
1532130757291,5,8,-1,0,-6,6,-2,-2
1532130757296,0,-10,-5,-6,2,-3,2,1
1532130757301,-1,0,3,6,-3,0,-2,1
1532130757306,-1,-1,-11,-3,0,-2,-1,-4
1532130757311,0,6,8,-3,-3,0,1,2
1532130757316,3,2,0,1,2,-1,-1,3
1532130757321,-1,2,-4,-3,-1,-3,-3,-1
1532130757326,2,12,8,1,-3,6,0,-2
1532130757331,-4,-14,-7,-7,-3,-3,-1,1
1532130757336,-1,-1,-1,5,1,0,-1,-1
1532130757341,-5,-14,4,-1,-1,-6,0,-3
1532130757346,2,-7,-2,1,0,5,-1,1
1532130757351,-5,-13,-3,0,2,2,0,-5
1532130757356,8,21,0,-3,0,-3,0,4
1532130757361,0,7,-3,-3,-3,3,-1,0
1532130757366,-1,-11,-2,-1,-1,-4,-4,-4
1532130757371,-5,-10,-4,-1,1,1,-1,-3
1532130757376,-10,-1,4,1,3,16,1,-2
1532130757381,3,-4,-1,-2,-1,-2,-1,2
1532130757386,3,4,1,2,2,-2,-2,3
1532130757391,1,11,0,-5,-1,-3,-2,-1
1532130757396,0,-4,-5,0,-5,-2,-1,-4
1532130757401,-3,-10,-9,-17,-7,0,-2,-4
1532130757406,-1,-1,4,2,4,1,2,2
1532130757411,0,-3,7,3,-1,-3,-2,-1
1532130757416,2,13,-1,-2,-1,-1,0,0
1532130757421,2,-4,7,3,1,0,1,1
1532130757426,4,-8,-10,-4,-2,-2,-2,-1
1532130757431,3,8,1,3,-1,-1,-2,-1
1532130757436,-6,-14,-6,-5,3,-3,-3,-5
1532130757441,0,-2,-1,4,-4,-1,1,6
1532130757446,-5,-4,-2,2,1,0,-1,0
1532130757451,1,13,1,1,1,2,-1,-1
1532130757456,-1,2,0,0,1,0,-3,-5
1532130757461,-1,-11,-5,-4,-1,-2,-3,-4
1532130757466,3,11,1,-1,-3,-4,0,-1
1532130757471,-2,-6,1,2,2,-12,-3,1
1532130757476,-3,-5,-2,-5,-4,3,-2,-2
1532130757481,-3,4,3,0,-1,-1,-1,0
1532130757486,-3,-1,0,-2,0,3,-1,0
1532130757491,-2,-8,-5,-3,0,0,-1,-4
1532130757496,1,-3,-3,0,2,-4,-3,2
1532130757501,1,4,4,3,-2,0,-3,-5
1532130757506,3,2,-4,0,1,-2,-3,1
1532130757511,0,-7,1,-1,-1,2,2,2
1532130757516,-1,2,1,1,0,-1,1,0
1532130757521,-3,-4,0,2,1,0,-1,1
1532130757526,-3,-5,-4,0,-1,0,-1,4
1532130757531,-3,3,-3,-2,-3,1,-2,-4
1532130757536,0,-2,-1,-3,-3,-1,-1,-3
1532130757541,0,1,-5,-1,1,-3,1,-1
1532130757546,-1,-1,0,-2,-1,-2,-1,-4
1532130757551,-2,-1,-5,1,6,3,-1,1
1532130757556,2,3,7,5,2,-2,1,2
1532130757561,0,-4,2,-7,-3,1,-2,-3
1532130757566,2,3,0,0,1,-1,0,-1
1532130757571,-1,-2,-3,-3,-3,3,-1,2
1532130757576,-1,-2,0,3,-1,-1,-1,-1
1532130757581,0,1,1,0,1,3,-2,-1
1532130757586,0,-1,-4,-3,-2,1,0,0
1532130757591,-5,-17,-6,2,0,0,-1,0
1532130757596,5,19,4,-4,-1,1,0,1
1532130757601,1,7,-3,2,1,-7,-1,-4
1532130757606,1,-18,1,-3,-3,6,-1,-3
1532130757611,1,-5,0,-1,-1,0,0,-2
1532130757616,-3,-14,-1,-1,-1,-2,-2,2
1532130757621,1,10,0,0,1,-1,-1,1
1532130757626,-5,2,-6,-2,-2,-2,0,0
1532130757631,1,13,13,8,2,-1,-2,0
1532130757636,-3,5,-2,-2,-2,1,-2,-1
1532130757641,1,2,-2,0,-7,-2,-2,-2
1532130757646,0,2,2,0,-2,-8,0,0
1532130757651,1,-12,-5,-1,1,3,-1,-2
1532130757656,1,8,-4,-4,-11,-15,-2,-1
1532130757661,-1,-3,5,5,16,9,-1,0
1532130757666,-5,-13,-2,0,3,1,-2,-1
1532130757671,0,14,-4,0,-6,-6,2,-5
1532130757676,1,-10,1,1,1,-1,-3,0
1532130757681,-3,-3,-3,-6,-8,-2,-2,-3
1532130757686,0,5,-2,-3,-1,-1,-1,0
1532130757691,0,-4,-2,-3,0,-3,-2,1
1532130757696,0,6,-4,1,2,4,0,-1
1532130757701,2,12,2,-10,-20,-5,-1,2
1532130757706,1,-11,7,7,17,1,0,-1
1532130757711,-2,7,-7,-7,-5,7,-2,-2
1532130757716,-1,-5,6,1,2,-3,0,-1
1532130757721,-7,-10,-11,-4,-4,0,-1,-2
1532130757726,3,12,6,5,-5,-13,-4,1
1532130757731,-2,-25,-3,-2,-1,14,-2,-2
1532130757736,2,29,-5,-2,0,3,-1,0
1532130757741,-1,-9,6,5,5,-2,1,-1
1532130757746,-1,5,-3,-7,-11,2,-2,-2
1532130757751,-2,-2,1,-1,3,-12,-1,-6
1532130757756,-1,-5,-2,-1,0,2,0,1
1532130757761,-3,-7,-2,-1,3,1,2,-1
1532130757766,3,8,-2,-1,-3,0,-1,1
1532130757771,-1,1,0,-3,-4,1,0,3
1532130757776,0,-14,-1,0,5,1,-4,-5
1532130757781,3,3,1,2,4,1,-2,1
1532130757786,-3,3,-1,-10,-8,-2,0,-3
1532130757791,2,10,-1,3,6,-7,-2,1
1532130757796,-3,-10,2,1,2,1,-1,-2
1532130757801,-1,-9,-4,-5,-12,1,-1,2
1532130757806,0,5,-6,1,6,-1,0,-2
1532130757811,4,0,3,-6,-7,-1,1,0
1532130757816,-1,0,0,4,7,-4,-1,-1
1532130757821,2,-10,-1,0,-7,-2,-2,0
1532130757826,-4,3,-11,-1,1,-1,-2,-1
1532130757831,-3,3,7,-2,-2,-6,0,-1
1532130757836,1,-10,-2,3,-2,2,0,2
1532130757841,-4,-10,1,0,3,0,-2,-1
1532130757846,2,2,-3,1,3,1,-1,-1
1532130757851,0,-6,-7,-3,-2,5,0,2
1532130757856,1,7,-2,-1,-14,-11,-1,1
1532130757861,-2,-1,0,2,12,4,-1,-4
1532130757866,-3,-6,-6,1,-1,-1,-1,0
1532130757871,-2,-2,5,5,0,1,-2,-1
1532130757876,-3,10,-5,-7,-7,-4,-3,-2
1532130757881,2,4,-6,0,2,0,0,3
1532130757886,-1,5,5,-4,-5,-1,-2,1
1532130757891,0,-16,-1,4,0,0,-2,-1
1532130757896,4,3,-5,2,3,3,1,0
1532130757901,5,2,5,3,0,-3,-2,0
1532130757906,-3,-8,5,-1,1,1,0,-2
1532130757911,3,20,2,1,-2,-3,-2,-2
1532130757916,-5,-19,-4,-3,-2,1,0,1
1532130757921,-1,-3,-3,0,0,-2,-2,1
1532130757926,-7,-10,-3,-1,-2,-2,-2,-4
1532130757931,3,9,-3,-6,0,-9,-2,2
1532130757936,-2,2,4,4,4,17,-2,-1
1532130757941,-1,10,1,-2,-1,-2,1,2
1532130757946,0,-7,7,5,-1,-6,-1,-2
1532130757951,0,1,-7,-7,-6,0,-2,-3
1532130757956,-4,-20,-7,-1,1,-5,-2,-1
1532130757961,6,11,10,-11,-3,-2,0,-2
1532130757966,1,7,-1,-3,-2,5,-2,1
1532130757971,-5,-15,2,5,2,1,0,-2
1532130757976,-1,15,3,-4,-13,-1,0,-2
1532130757981,-1,-22,-11,4,16,0,-1,0
1532130757986,-1,-7,6,1,-1,0,2,0
1532130757991,0,9,-3,-2,3,-2,-1,1
1532130757996,-2,1,1,-3,4,-2,-3,-1
1532130758001,-4,-3,-4,-1,-3,-9,-1,-3
1532130758006,1,16,-2,-2,3,5,0,-2
1532130758011,-1,-9,-4,0,1,2,0,0
1532130758016,-2,-1,-2,-1,4,2,0,1
1532130758021,0,-1,-2,0,-7,-5,-2,-3
1532130758026,4,10,13,5,1,-1,-1,0
1532130758031,-8,-30,-5,-3,-3,1,-2,-3
1532130758036,10,19,-2,-5,-2,-4,1,4
1532130758041,-4,1,2,5,-6,2,-3,-4
1532130758046,-1,6,-5,-12,-2,0,-1,-3
1532130758051,1,10,1,-2,1,3,0,-1
1532130758056,-2,-13,2,-1,0,-1,-1,-1
1532130758061,2,5,-9,-2,-6,-3,-3,-3
1532130758066,4,3,1,0,-10,-1,-2,2
1532130758071,4,-10,3,6,16,-3,-3,0
1532130758076,0,-6,0,1,3,-1,0,-4
1532130758081,4,6,1,-1,-5,-6,-3,2
1532130758086,5,10,-1,1,10,1,-1,-2
1532130758091,4,-2,-4,-4,-4,-3,-2,1
1532130758096,-4,-13,-3,1,-1,2,-1,-2
1532130758101,-2,8,4,0,2,0,-1,0
1532130758106,-12,-3,-5,-1,0,-7,-1,-2
1532130758111,-5,2,4,3,-4,1,-1,1
1532130758116,-7,-6,-1,-4,2,-5,-1,-2
1532130758121,0,6,-2,-5,-4,1,1,-2
1532130758126,-4,-18,-7,0,-3,3,-3,-2
1532130758131,-2,6,1,-1,-3,-3,0,2
1532130758136,0,-3,-6,-4,-2,-2,-3,1
1532130758141,0,10,0,2,3,1,-1,1
1532130758146,3,-6,-3,0,-3,-1,-1,1
1532130758151,-4,-7,2,-4,-1,-3,-2,-4
1532130758156,0,3,3,3,0,-1,-2,-3
1532130758161,-5,-10,2,4,-1,-1,-2,2
1532130758166,-3,-3,3,1,3,-2,0,1
1532130758171,-7,-6,-4,-6,-4,0,-2,-1
1532130758176,4,6,1,4,1,-2,-3,-4
1532130758181,-1,-7,0,0,1,3,-2,0
1532130758186,-1,-11,-4,1,-2,-1,-1,0
1532130758191,0,3,-4,-3,-3,0,-1,0
1532130758196,1,9,7,-3,1,-5,-1,-1
1532130758201,-2,3,-2,0,-2,14,0,-2
1532130758206,3,1,-3,-2,-3,2,-1,2
1532130758211,3,3,-8,-3,-1,-8,0,0
1532130758216,0,-5,0,5,-2,3,-5,0
1532130758221,-4,-12,4,-1,0,-3,-2,-5
1532130758226,3,15,-6,-3,-1,-1,-1,1
1532130758231,-3,-13,3,4,0,1,-1,-1
1532130758236,-4,0,0,0,-1,0,0,-1
1532130758241,3,11,1,5,-1,-6,-3,-4
1532130758246,-8,-17,-3,-12,-3,1,-1,-6
1532130758251,-1,13,-4,-2,-1,-1,-2,0
1532130758256,-3,-8,-3,-3,-5,0,2,3
1532130758261,-2,-9,-1,-3,2,-1,0,2
1532130758266,2,8,-9,-2,-1,-2,-2,-2
1532130758271,2,0,13,3,-3,2,-1,-1
1532130758276,1,-3,3,0,-3,-3,-2,-1
1532130758281,1,0,-2,-2,3,0,-1,0
1532130758286,0,-4,-3,1,-2,-1,-1,2
1532130758291,0,11,-4,-1,2,0,-1,-2
1532130758296,-1,-7,-7,-4,-5,0,-1,1
1532130758301,-3,-8,4,0,-3,-3,0,2
1532130758306,1,1,4,-1,0,-1,-2,-4
1532130758311,-4,-11,-5,1,-1,0,-2,-3
1532130758316,3,9,4,1,5,-1,0,-1
1532130758321,1,3,-5,-3,-5,-4,-2,-1
1532130758326,0,-15,-2,2,-1,1,-1,1
1532130758331,1,4,-1,-3,-3,0,-1,-1
1532130758336,0,4,-6,-2,0,0,1,1
1532130758341,-7,-16,-8,-7,-4,1,-3,-3
1532130758346,1,13,15,10,2,-3,0,2
1532130758351,0,4,-4,-1,-5,-1,-1,-2
1532130758356,-1,-5,-1,-2,1,-2,-3,-4
1532130758361,-2,0,2,-4,-5,5,0,1
1532130758366,-1,3,-8,-2,-1,4,-2,1
1532130758371,1,-9,-3,-1,1,-3,-1,1
1532130758376,0,5,1,3,1,-1,0,1
1532130758381,0,1,-3,-2,0,-4,0,-4
1532130758386,-2,3,2,4,-1,0,-1,0
1532130758391,-1,1,5,-1,-1,1,1,0
1532130758396,2,-13,-4,-2,-3,-2,-1,-3
1532130758401,-1,-2,-6,-2,7,-3,-3,-2
1532130758406,2,17,6,-1,1,0,-2,1
1532130758411,0,-10,-3,-1,2,3,-1,3
1532130758416,-5,1,0,3,1,0,-2,-5
1532130758421,2,6,0,-9,-5,0,0,2
1532130758426,-5,-4,-1,-3,-2,-3,-3,-4
1532130758431,3,9,5,1,0,-3,0,2
1532130758436,-4,-10,-3,-4,-1,2,1,-3
1532130758441,3,7,-2,4,0,-6,-2,2
1532130758446,-1,-5,-4,-3,0,12,-1,-1
1532130758451,1,4,-2,-2,-3,-1,0,-2
1532130758456,2,-2,-2,-2,-1,-2,-2,1
1532130758461,-5,-9,2,2,2,1,2,-2
1532130758466,2,1,-6,-4,-1,-6,-2,1
1532130758471,0,5,5,3,0,0,-1,1
1532130758476,-2,-15,-2,-4,-1,3,-2,-5
1532130758481,5,19,2,1,-3,-2,-2,1
1532130758486,3,-23,-1,3,-1,-2,0,1
1532130758491,3,9,-5,-5,-2,1,0,-5
1532130758496,-2,2,-2,-6,-1,2,-1,-1
1532130758501,3,-7,-2,6,-1,1,2,-1
1532130758506,-4,0,8,3,0,0,4,3
1532130758511,-1,3,-3,-1,-1,-5,-1,1
1532130758516,0,7,-4,-2,-1,9,-3,-2
1532130758521,-4,-15,-4,-1,-3,-2,-3,-2
1532130758526,1,8,3,1,1,-3,-1,0
1532130758531,-3,-11,1,-1,1,1,-1,-2
1532130758536,1,9,1,-1,-1,-3,1,4
1532130758541,-1,1,-6,-5,0,-1,-1,-2
1532130758546,0,-1,0,-1,0,-2,-2,-2
1532130758551,-4,-7,3,-1,-7,-4,-1,-2
1532130758556,2,0,3,3,4,-4,-3,1
1532130758561,-1,1,1,-1,0,-1,-1,-1
1532130758566,1,0,-3,-4,-6,-1,-1,-3
1532130758571,-1,-5,-2,-3,1,1,-2,-2
1532130758576,9,3,-4,0,-3,0,-2,1
1532130758581,1,8,6,0,-1,1,-1,0
1532130758586,-4,-12,-1,-1,0,-4,0,0
1532130758591,-4,-9,-2,-1,2,-4,-2,0
1532130758596,-3,14,-2,0,0,-2,1,-3
1532130758601,2,-6,1,2,2,11,-1,0
1532130758606,-4,-3,-7,-6,-5,-2,-3,-1
1532130758611,0,-1,13,6,1,1,-2,-2
1532130758616,-4,-11,-4,-2,0,-4,0,2
1532130758621,7,9,-1,-1,-2,-6,-2,0
1532130758626,7,6,-4,-1,0,-1,0,1
1532130758631,6,0,1,0,-1,4,-3,-6
1532130758636,-3,-12,-1,-2,-3,-5,1,2
1532130758641,-1,15,0,0,0,-2,-2,-4
1532130758646,-4,-10,-1,0,1,6,1,-1
1532130758651,-5,5,-5,-1,1,-5,-2,-1
1532130758656,-6,-15,0,-2,-6,1,-4,-1
1532130758661,-6,17,-4,-3,2,-5,0,-1
1532130758666,-4,-5,0,0,-2,1,-2,0
1532130758671,-4,-3,-5,0,-2,0,-3,1
1532130758676,-8,-3,4,0,1,2,-2,-5
1532130758681,-2,6,-2,-2,0,-11,1,2
1532130758686,-1,4,-2,0,0,14,0,0
1532130758691,6,14,-1,-3,-3,-3,-2,-2
1532130758696,4,-5,-6,0,0,0,-1,0
1532130758701,-2,-14,12,1,-7,1,-2,-3
1532130758706,-6,1,-10,-2,2,-7,-3,-7
1532130758711,0,-8,2,-7,-2,2,1,5
1532130758716,1,7,4,4,2,1,-1,-3
1532130758721,-2,5,8,8,4,0,-2,0
1532130758726,9,-20,1,0,-1,-6,1,5
1532130758731,-3,1,-8,-3,-3,1,-3,-6
1532130758736,3,3,-1,-2,0,-2,-2,0
1532130758741,-4,-17,0,-14,-4,0,-3,0
1532130758746,4,7,3,3,1,-1,-2,-1
1532130758751,1,1,-2,0,0,-4,-1,0
1532130758756,0,1,-2,-4,-2,0,0,2
1532130758761,-2,-12,-7,1,-1,0,0,-1
1532130758766,-2,9,2,-2,0,0,-4,-1
1532130758771,1,-12,-1,-1,-2,-10,-1,-1
1532130758776,2,4,1,1,-1,9,-1,2
1532130758781,-1,-8,-1,0,-1,-6,0,-2
1532130758786,-2,3,5,0,0,-1,-3,-4
1532130758791,0,-2,-1,3,-2,-2,-2,1
1532130758796,-4,2,1,-1,1,-2,0,-1
1532130758801,6,6,-6,-1,0,2,1,2
1532130758806,-4,-1,-4,-2,-1,-3,0,0
1532130758811,-5,0,-2,1,1,2,0,-3
1532130758816,-1,1,6,-4,-2,-2,-1,1
1532130758821,-1,-2,-10,-2,-1,2,-2,0
1532130758826,-7,-12,13,6,0,-3,-2,-2
1532130758831,1,17,-4,-1,-1,0,-2,-1
1532130758836,1,-12,-6,1,2,-2,1,1
1532130758841,-2,-11,-5,-5,-8,1,-2,0
1532130758846,-4,1,0,-4,2,3,-3,-8
1532130758851,2,-6,-2,-1,2,3,2,2
1532130758856,3,11,6,2,-2,-3,0,1
1532130758861,1,1,-3,0,1,1,1,2
1532130758866,-1,-1,-7,-2,-3,-4,-2,-1
1532130758871,-4,-1,5,-2,-4,2,-1,-1
1532130758876,-5,-7,-5,-3,-1,-2,-2,-2
1532130758881,2,-13,-2,1,2,-3,-2,1
1532130758886,0,3,8,4,-2,1,0,1
1532130758891,2,0,-1,1,1,2,-1,-1
1532130758896,2,4,-3,-1,-1,-1,-1,-1
1532130758901,-2,0,2,-2,-2,-1,0,-1
1532130758906,5,6,-10,-5,-3,-8,-1,-1
1532130758911,0,-5,1,-1,0,4,-1,-2
1532130758916,2,1,2,0,1,-1,-3,-1
1532130758921,-2,10,2,1,0,5,-1,-1
1532130758926,-2,-1,-6,-1,-2,-7,-3,0
1532130758931,-6,-8,-1,0,-1,1,-1,1
1532130758936,-7,-11,-3,-5,-3,1,-2,-5
1532130758941,0,-4,8,2,2,-1,-2,0
1532130758946,-3,7,1,1,-1,-2,0,2
1532130758951,5,-3,-1,-2,-3,-3,-1,0
1532130758956,3,0,-3,-2,1,-1,-3,-3
1532130758961,1,-11,-3,0,0,0,-3,-2
1532130758966,0,-13,-6,-3,-6,-12,0,1
1532130758971,-1,25,3,-1,8,17,0,-3
1532130758976,-5,-9,3,5,-1,-2,-1,0
1532130758981,-7,-8,-12,-4,-1,-2,-2,0
1532130758986,0,7,9,0,-1,0,-3,-1
1532130758991,-3,-4,-2,1,-3,-18,-2,-2
1532130758996,3,8,2,2,4,3,0,1
1532130759001,2,2,0,1,-6,4,1,0
1532130759006,4,-15,-3,-4,2,2,0,2
1532130759011,1,-8,0,4,-1,-16,-1,3
1532130759016,-5,-3,-4,-15,-3,6,-3,-4
1532130759021,2,7,2,-1,-3,-6,-3,-2
1532130759026,-9,0,-8,-2,0,7,0,2
1532130759031,6,-7,4,2,-1,3,-1,1
1532130759036,-3,-6,-5,2,0,-6,1,-2
1532130759041,2,0,3,1,0,2,-2,0
1532130759046,-1,0,-8,-1,-2,0,-2,-4
1532130759051,-4,10,5,-4,0,0,-2,-2
1532130759056,-1,-11,1,4,-3,-4,0,3
1532130759061,0,26,1,-1,9,1,-1,0
1532130759066,-1,-23,-4,0,-1,-3,-3,-4
1532130759071,-3,-11,-12,-5,-4,0,-1,-1
1532130759076,0,8,14,4,1,4,-3,-3
1532130759081,-2,1,-1,-1,-2,-3,0,0
1532130759086,1,3,-3,-2,-1,3,-2,1
1532130759091,-1,1,-5,-7,-1,1,2,2
1532130759096,2,-8,2,6,-2,-2,-1,0
1532130759101,-3,0,-2,-2,0,-14,-2,-6
1532130759106,-1,-6,-7,-3,-4,1,0,2
1532130759111,-4,3,6,5,2,-8,-3,-5
1532130759116,4,8,-2,-4,0,-9,1,0
1532130759121,-1,-9,3,1,1,14,0,4
1532130759126,-2,5,-4,-6,-4,-2,-3,-1
1532130759131,-2,-9,-4,1,-2,0,0,-2
1532130759136,-1,-13,0,-1,1,1,-2,-2
1532130759141,-3,-2,-4,-4,-3,-3,-1,-2
1532130759146,1,1,-4,-1,-3,-5,1,2
1532130759151,2,22,-5,0,-2,2,0,-3
1532130759156,2,3,5,0,-1,-4,-2,0
1532130759161,-2,-7,7,5,3,-2,-1,0
1532130759166,-2,-3,5,2,-5,-2,-1,-3
1532130759171,-1,7,-7,-6,-2,-2,-2,3
1532130759176,3,-6,-7,-3,2,2,-2,-2
1532130759181,-2,-4,-2,0,-6,-2,-1,0
1532130759186,2,-2,0,-8,-2,-4,0,2
1532130759191,0,-2,-3,0,-5,12,-3,-2
1532130759196,-1,10,6,0,-2,3,-3,-4
1532130759201,-5,-5,-6,2,-1,-4,-2,-2
1532130759206,-2,-12,-5,1,1,1,1,1
1532130759211,-2,7,10,-1,-4,-9,-4,-1
1532130759216,-3,-1,-6,-4,-4,-1,-1,0
1532130759221,-4,-1,-6,2,0,2,-2,-3
1532130759226,5,11,8,-1,-1,-2,-2,-3
1532130759231,-3,-15,4,1,-11,-4,-1,-1
1532130759236,0,10,-8,-4,2,2,-3,0
1532130759241,0,-16,-3,-6,-1,-3,1,1
1532130759246,-4,18,-1,-1,-2,-1,-2,0
1532130759251,5,1,-5,0,1,-1,-1,0
1532130759256,-2,-15,2,0,0,-2,-2,0
1532130759261,-1,4,1,-1,-2,-4,0,1
1532130759266,4,22,0,1,0,-15,-3,-1
1532130759271,-1,-11,-7,-2,1,8,-2,-7
1532130759276,3,4,-4,2,1,-3,0,1
1532130759281,-1,-17,-1,-3,0,4,0,-3
1532130759286,6,5,4,9,5,-1,-1,1
1532130759291,2,13,4,-10,0,-7,-2,2
1532130759296,-2,-11,-4,-3,-4,0,0,-2
1532130759301,1,10,2,1,-1,-1,0,1
1532130759306,-7,-9,6,1,0,3,-1,3
1532130759311,-13,-8,-11,-6,0,-4,-5,-12
1532130759316,-3,-1,3,1,2,1,-3,0
1532130759321,2,2,4,-1,-2,-4,-1,-1
1532130759326,0,-9,-5,1,-1,0,0,-2
1532130759331,0,7,1,1,1,0,1,5
1532130759336,-4,6,-3,-3,-3,-1,-1,-2
1532130759341,-5,-7,-2,-2,0,-2,-1,-2
1532130759346,3,-1,-9,0,10,-3,0,2
1532130759351,2,-3,12,3,-7,12,0,3
1532130759356,0,1,0,-1,2,-3,-1,1
1532130759361,1,4,-3,2,-2,-2,-2,-1
1532130759366,-5,-2,5,-4,0,5,-1,-5
1532130759371,0,-9,-9,-3,-1,-10,2,3
1532130759376,-1,-6,0,1,-2,1,0,0
1532130759381,-1,6,3,-2,-1,2,-3,-2
1532130759386,-1,-9,-7,-6,-2,0,-1,0
1532130759391,6,8,4,7,2,-6,-2,0
1532130759396,-7,-18,-3,-2,-4,-4,2,1
1532130759401,6,11,-4,4,1,-6,-3,-2
1532130759406,-6,-2,3,-12,-7,3,0,-5
1532130759411,-2,-7,-2,3,2,-1,-2,0
1532130759416,2,7,1,-3,1,3,1,-1
1532130759421,-1,-2,-2,-1,0,1,-2,2
1532130759426,-2,-7,-4,-1,-4,10,-2,0
1532130759431,0,2,-11,-5,-5,4,0,1
1532130759436,0,2,10,5,5,-5,-3,-3
1532130759441,0,3,3,-1,-2,2,-2,-4
1532130759446,0,-13,-1,2,-1,-2,-1,-2
1532130759451,0,3,0,-2,-1,-3,-1,1
1532130759456,0,2,-10,-4,-5,1,-1,0
1532130759461,-2,-10,0,-2,3,-1,-1,5
1532130759466,0,21,-4,-3,1,-5,-2,-3
1532130759471,3,-16,-2,2,-1,-1,0,-1
1532130759476,-2,1,-2,1,0,-1,2,1
1532130759481,2,7,9,0,-1,0,-4,-3
1532130759486,-4,-6,-3,0,-1,-2,-1,-1
1532130759491,-1,6,-1,-1,-1,-2,-1,0
1532130759496,0,-6,2,0,-1,1,-2,-3
1532130759501,-3,5,-1,-2,-3,-3,0,-3
1532130759506,3,-21,-3,0,0,0,0,2
1532130759511,0,7,4,1,0,-2,-1,1
1532130759516,0,-5,-3,-1,0,-1,0,2
1532130759521,-2,3,-5,-3,-1,1,1,-4
1532130759526,0,-1,-3,0,-2,-3,-2,-2
1532130759531,-2,0,8,1,1,-2,0,1
1532130759536,-2,1,-8,-3,-2,-1,-3,-1
1532130759541,-3,-18,5,-1,-2,-14,-1,-4
1532130759546,5,28,1,6,-3,9,-1,1
1532130759551,5,-15,-7,2,1,0,-2,0
1532130759556,-1,6,7,4,0,1,-2,0
1532130759561,-2,3,-3,-17,-5,-5,0,2
1532130759566,-4,-10,1,5,2,-5,-1,-2
1532130759571,-7,-3,-3,-3,3,-2,-2,-5
1532130759576,4,-1,-2,-3,-2,-2,-3,-1
1532130759581,0,-10,-1,3,1,3,-2,2
1532130759586,-1,1,-4,-6,-2,-2,0,-4
1532130759591,-1,9,-2,-1,1,1,-1,1
1532130759596,-1,-7,0,-2,-1,-5,-2,-2
1532130759601,-2,0,-9,0,2,4,3,1
1532130759606,-1,-2,4,-4,-2,-1,0,2
1532130759611,-1,3,0,-2,-1,-1,-2,-2
1532130759616,-1,8,4,2,-1,0,-2,-1
1532130759621,2,-9,-1,3,-1,2,-1,-4
1532130759626,6,7,-3,1,-1,-1,0,-1
1532130759631,-2,-9,-2,-4,0,1,0,2
1532130759636,3,8,8,1,-1,1,0,0
1532130759641,-1,0,0,7,0,1,-2,1
1532130759646,-2,-5,0,0,0,-2,-2,-2
1532130759651,-3,5,-2,-5,-2,-3,-1,-4
1532130759656,-2,-6,-9,-4,-1,0,1,-1
1532130759661,-1,8,-1,-2,-2,-3,-1,-1
1532130759666,-1,-14,-3,0,-1,2,1,3
1532130759671,-3,-1,-5,1,-1,-2,-2,-2
1532130759676,1,8,4,-1,-1,-1,-3,-1
1532130759681,2,4,1,6,-2,1,-2,0
1532130759686,-1,-4,5,1,1,-2,0,0
1532130759691,0,0,-4,4,6,-2,-2,1
1532130759696,1,-9,-8,-19,-8,0,1,1
1532130759701,1,1,-6,-4,-1,-1,-2,-6
1532130759706,1,-2,0,0,-3,-1,-5,0
1532130759711,0,1,7,4,-2,0,-1,-1
1532130759716,-1,1,2,7,2,-2,-3,-1
1532130759721,0,2,-2,-4,-1,-1,1,3
1532130759726,-5,-6,-11,-7,-1,-3,1,-1
1532130759731,-3,2,0,6,-1,1,0,-1
1532130759736,-3,0,14,8,1,-1,-2,0
1532130759741,-3,-3,-3,-1,-1,-1,0,0
1532130759746,-1,3,0,-2,-5,-2,1,-3
1532130759751,1,0,-5,-3,1,-2,-3,-1
1532130759756,0,-6,-9,-3,-5,-7,-1,-3
1532130759761,1,-2,-3,0,0,15,-1,0
1532130759766,-5,0,2,-2,-1,-3,-2,-5
1532130759771,-1,-1,-5,-3,-4,1,-1,0
1532130759776,-3,-2,4,5,1,1,-1,0
1532130759781,0,2,1,-1,3,-5,-4,-2
1532130759786,1,-2,-13,-4,-2,-2,-2,1
1532130759791,3,1,10,6,0,0,-1,-1
1532130759796,0,-4,6,1,5,0,-1,-1
1532130759801,-1,-3,-1,0,-6,-2,0,2
1532130759806,-2,-5,-4,-2,1,3,-2,0
1532130759811,-2,1,-2,-4,-2,-2,0,-2
1532130759816,-2,1,-6,0,0,2,0,3
1532130759821,-1,1,-2,-1,0,-2,-1,0
1532130759826,2,6,0,0,-1,-2,-1,1
1532130759831,-2,-5,5,2,-1,-2,-2,-5
1532130759836,0,0,-8,4,1,2,2,2
1532130759841,-3,-3,1,-14,-5,-3,-2,-3
1532130759846,-5,-2,2,1,0,-3,-2,-7
1532130759851,3,0,-10,-5,-1,-1,-1,1
1532130759856,1,-8,6,1,3,0,-2,-1
1532130759861,0,12,5,6,-9,-3,0,-2
1532130759866,2,-8,2,-2,0,0,1,2
1532130759871,-1,3,-1,-2,-1,-2,-1,0
1532130759876,-2,-6,-9,-5,0,-1,-2,-1
1532130759881,-3,-3,-4,-1,-4,-2,-1,-4
1532130759886,-4,2,5,4,2,-2,-3,-1
1532130759891,-2,1,-4,-1,-2,-1,0,-1
1532130759896,-1,0,-8,-3,-3,-8,-2,0
1532130759901,1,-4,2,3,4,13,1,4
1532130759906,-3,1,-3,3,4,-4,-2,-7
1532130759911,-3,-22,0,-1,-3,2,-2,-2
1532130759916,3,19,-5,-3,-3,4,0,-2
1532130759921,1,-1,-8,-4,1,-4,-1,0
1532130759926,1,8,13,7,-6,1,3,4
1532130759931,1,-2,2,-1,3,3,1,4
1532130759936,-6,-6,0,1,-1,-4,-4,-8
1532130759941,0,-4,2,-2,1,-3,-2,-1
1532130759946,-2,2,-9,-5,1,2,-1,4
1532130759951,-3,4,6,-4,-11,-11,-2,2
1532130759956,-1,-6,-2,3,2,13,-1,3
1532130759961,-1,1,2,1,1,-2,-1,-1
1532130759966,2,-12,-5,-4,-2,-1,-3,-4
1532130759971,0,1,5,-2,2,1,-1,-5
1532130759976,-2,0,-9,-6,-2,-5,-2,0
1532130759981,-2,-4,3,6,1,0,0,0
1532130759986,1,0,1,-1,1,4,1,5
1532130759991,0,4,-6,-4,-1,-3,-1,-1
1532130759996,-1,-1,3,4,-1,-3,0,1
1532130760001,0,-1,11,8,2,2,-1,-1
1532130760006,0,0,-3,1,0,1,-2,0
1532130760011,-2,2,0,0,1,1,-3,-2
1532130760016,-1,-1,-6,-6,-1,-1,-4,-5
1532130760021,0,-1,-1,-1,0,-1,-2,2
1532130760026,0,4,1,0,0,0,0,0
1532130760031,1,-9,-4,-1,0,1,-1,4
1532130760036,-3,-1,-3,-4,-3,-3,-3,-9
1532130760041,-1,0,-2,0,1,-1,-3,-3
1532130760046,-2,-2,1,-3,1,1,-2,1
1532130760051,2,4,-1,-1,0,1,0,4
1532130760056,1,-3,-5,-3,0,0,0,3
1532130760061,0,-6,-3,-2,-1,-1,-2,-1
1532130760066,1,-3,5,-1,-2,0,-3,-2
1532130760071,1,10,9,7,3,2,-1,-2
1532130760076,2,-4,2,-8,-4,-1,-1,0
1532130760081,-1,1,-6,-3,-2,-3,0,1
1532130760086,-5,-6,-14,-7,2,-3,-1,-2
1532130760091,3,31,18,7,1,0,-1,0
1532130760096,-3,-19,-6,-1,2,0,-2,-1
1532130760101,-2,3,1,-2,-3,0,-2,-4
1532130760106,1,-3,-4,1,1,0,-2,0
1532130760111,-1,-4,-4,-2,1,-1,-1,-3
1532130760116,0,6,3,3,1,-2,-2,2
1532130760121,0,-10,-11,-3,-2,-2,-1,0
1532130760126,0,20,15,2,0,0,-2,0
1532130760131,-4,-7,-6,-3,-4,-1,1,-4
1532130760136,-2,5,1,1,0,-1,2,-1
1532130760141,-3,-6,-10,-4,-1,-3,-2,0
1532130760146,-1,-2,4,4,-1,-3,-2,0
1532130760151,-2,-6,-3,-5,-2,1,-2,-3
1532130760156,1,-2,-3,-1,-1,0,0,3
1532130760161,0,2,-3,4,1,0,-2,-2
1532130760166,1,0,-4,3,-1,0,0,-2
1532130760171,1,-5,-1,-1,-3,-2,2,2
1532130760176,-1,-1,-2,-1,-1,-2,1,0
1532130760181,-1,1,-2,-3,-1,-2,-2,-1
1532130760186,1,-3,1,0,-5,-2,-2,-2
1532130760191,-5,-10,-4,-1,-1,-1,-4,-4
1532130760196,-2,6,4,-1,2,0,-2,-2
1532130760201,-2,5,5,1,-1,2,-1,1
1532130760206,-3,-5,-4,-2,-3,-3,0,-2
1532130760211,-1,-1,-1,-8,-4,-1,-3,1
1532130760216,-1,-4,0,0,-1,0,-3,-1
1532130760221,-1,-1,3,1,-1,-3,2,1
1532130760226,-1,3,-1,-6,1,-9,-3,-4
1532130760231,2,-6,-5,0,-1,10,2,1
1532130760236,-2,-6,2,5,1,2,-4,-5
1532130760241,5,-6,6,-4,3,-3,0,0
1532130760246,0,5,-9,-5,-3,3,-1,1
1532130760251,1,-4,-8,2,-1,-8,-2,-2
1532130760256,-1,4,9,7,-3,-4,0,2
1532130760261,-2,-2,-6,-3,-1,2,-1,-2
1532130760266,-3,-5,2,-2,-10,0,0,0
1532130760271,0,11,-1,0,11,-4,-1,0
1532130760276,-1,-1,-5,1,-7,3,0,-2
1532130760281,1,6,-1,-4,-1,-5,-2,0
1532130760286,-1,-7,-2,1,1,-4,-2,-4
1532130760291,3,4,1,0,-5,3,-1,0
1532130760296,-2,-7,-4,-4,1,2,0,1
1532130760301,-1,5,1,-1,-5,-9,-1,2
1532130760306,-3,-5,0,0,2,9,-2,-3
1532130760311,2,1,1,2,0,-6,-1,-1
1532130760316,0,8,-2,-3,2,-2,0,0
1532130760321,-3,-13,0,-2,-1,-5,-3,-3
1532130760326,-1,5,-2,6,4,5,1,4
1532130760331,-6,-8,0,-3,-2,0,-2,-4
1532130760336,5,-11,0,-2,-3,-4,-3,1
1532130760341,-1,12,-2,0,2,4,-2,2
1532130760346,7,20,1,6,2,1,-2,-2
1532130760351,-4,-13,5,2,-1,1,-1,1
1532130760356,-1,4,4,-4,-5,-2,-1,-2
1532130760361,-3,-6,-5,5,5,5,-2,-1
1532130760366,-6,-4,-2,-8,-4,-2,0,1
1532130760371,-1,1,-7,-5,-2,-2,-3,-4
1532130760376,-3,-13,0,2,0,-4,-2,3
1532130760381,-1,1,2,-1,1,-10,-1,-2
1532130760386,0,-9,-4,-3,0,3,-2,-2
1532130760391,-1,13,-1,-3,-2,5,-2,-4
1532130760396,-2,-15,-2,-1,-2,-1,-2,0
1532130760401,5,7,0,0,-2,0,2,0
1532130760406,2,-11,4,6,-1,-4,-3,-1
1532130760411,1,16,1,-11,0,0,-1,-1
1532130760416,-1,-2,-5,-3,2,4,1,-2
1532130760421,-4,-2,-1,-3,-5,4,-1,-1
1532130760426,-1,0,4,1,-1,-4,0,2
1532130760431,-1,-9,-4,0,0,2,-2,2
1532130760436,-2,7,-4,-2,-2,-2,-3,-5
1532130760441,2,-5,7,-1,0,0,0,0
1532130760446,1,1,-11,-7,-1,-3,0,0
1532130760451,0,-10,13,9,-1,-4,-1,1
1532130760456,2,16,3,4,5,-2,-1,0
1532130760461,-3,-3,-3,1,0,2,-1,-2
1532130760466,-4,-3,1,-3,0,1,-1,-3
1532130760471,-2,0,-6,-4,-6,-1,0,2
1532130760476,-7,-15,-4,-1,4,-1,-2,0
1532130760481,6,16,1,1,3,1,-3,-3
1532130760486,3,-1,2,-1,-2,-1,0,-1
1532130760491,1,-5,-4,2,1,-6,2,3
1532130760496,0,3,-3,-1,-6,-2,-1,-3
1532130760501,-9,-3,5,1,-2,5,-5,-6
1532130760506,-4,-1,-3,-3,1,3,-2,-2
1532130760511,0,6,0,4,-1,2,-2,-1
1532130760516,-2,1,3,-3,-1,-1,0,-1
1532130760521,0,-9,-4,-5,-1,-2,0,0
1532130760526,3,3,3,5,1,-1,0,2
1532130760531,1,-10,-4,0,0,1,-2,-1
1532130760536,2,3,-3,-1,-4,-1,-3,0
1532130760541,-3,-3,-2,-6,-11,0,-3,-1
1532130760546,-2,2,-3,-1,1,-4,-2,0
1532130760551,-5,-4,6,0,4,-1,-1,1
1532130760556,1,2,-2,-4,-2,-5,-1,0
1532130760561,-3,-8,-4,4,-1,2,-2,-3
1532130760566,2,7,-5,-4,0,0,0,1
1532130760571,1,-7,-6,-4,-4,-13,-2,-2
1532130760576,3,-2,4,5,3,6,2,0
1532130760581,1,18,2,1,2,0,0,1
1532130760586,4,-10,2,1,-2,-4,-2,2
1532130760591,-4,-1,-1,-2,-3,-1,-4,-6
1532130760596,-2,2,-5,-5,-3,-4,-3,-2
1532130760601,-5,-10,-5,2,4,-2,0,2
1532130760606,-5,3,0,-3,-2,-3,0,-3
1532130760611,1,-3,-2,-3,-1,4,0,0
1532130760616,4,14,0,0,0,0,1,2
1532130760621,3,-4,-2,2,2,-5,-2,0
1532130760626,-2,1,7,-5,1,-1,-2,-3
1532130760631,-1,-2,-4,-3,-2,3,-1,0
1532130760636,4,-11,-3,-1,3,-8,-2,-1
1532130760641,-2,15,3,-2,-1,6,-2,-2
1532130760646,-1,-1,-4,-13,-13,-3,-1,0
1532130760651,-5,-13,2,-1,5,0,-1,1
1532130760656,-3,5,-2,-2,1,-1,0,0
1532130760661,-3,-17,-1,-2,-1,-6,-1,0
1532130760666,1,-8,-2,3,-1,-1,-1,1
1532130760671,-1,6,-1,-2,-2,0,0,0
1532130760676,3,14,0,-1,0,1,-1,-2
1532130760681,1,-5,0,-3,-4,0,-1,0
1532130760686,-2,-1,2,2,1,1,-4,-8
1532130760691,5,-12,1,2,0,-1,0,2
1532130760696,-3,-2,-2,1,-1,0,0,1
1532130760701,-3,0,-3,-1,2,2,0,-5
1532130760706,0,0,1,-2,1,-3,0,2
1532130760711,-2,8,2,4,0,2,-2,-2
1532130760716,-1,-6,-2,-8,-11,0,0,0
1532130760721,-1,-3,0,0,-3,-3,-2,0
1532130760726,0,0,0,5,6,-11,0,-1
1532130760731,1,-2,-2,-1,1,13,-2,-1
1532130760736,0,-2,0,0,1,2,-3,-2
1532130760741,4,5,-3,-1,0,-1,2,3
1532130760746,0,-7,0,-1,1,4,0,1
1532130760751,-5,1,-2,0,-5,-7,-4,-5
1532130760756,0,-3,-5,0,0,-1,-2,-3
1532130760761,-2,3,9,0,0,1,-1,-1
1532130760766,1,-10,-6,3,0,1,0,2
1532130760771,-2,15,2,-1,-1,-3,0,-1
1532130760776,-4,-1,-3,-4,1,0,-2,-2
1532130760781,0,-2,-4,-3,-2,-2,0,-1
1532130760786,-2,-2,-1,-2,-1,3,-1,-2
1532130760791,2,-2,-4,-4,0,-1,0,2
1532130760796,-3,-8,1,1,-4,-1,0,2
1532130760801,0,5,1,0,-3,-1,-1,-4
1532130760806,-1,2,-1,1,1,0,-2,-2
1532130760811,-1,-3,-3,-5,-5,-2,-1,-4
1532130760816,-2,-7,3,2,-1,-1,-1,0
1532130760821,3,4,-4,-6,-1,0,-1,3
1532130760826,-2,-5,-13,-1,2,0,-1,-4
1532130760831,3,11,12,8,6,2,1,-1
1532130760836,1,-20,0,-16,-4,0,0,1
1532130760841,-1,-8,1,6,0,-1,0,-2
1532130760846,1,8,7,0,-1,2,-2,-1
1532130760851,1,-2,-8,1,-2,-1,-1,1
1532130760856,-3,2,1,1,0,-1,-2,-2
1532130760861,0,3,-1,-1,3,2,-2,2
1532130760866,-3,-5,-3,-2,-3,-1,-2,0
1532130760871,-5,-4,1,-1,-3,-3,-1,-2
1532130760876,-1,6,3,3,1,0,-1,-1
1532130760881,-2,1,-2,-3,-4,-2,-2,-5
1532130760886,0,-11,-3,0,-1,-1,0,-1
1532130760891,-2,-5,-8,-3,-1,-1,0,1
1532130760896,0,8,7,0,-1,0,0,-1
1532130760901,-1,-4,2,-1,3,0,2,2
1532130760906,0,0,-6,-1,-2,0,1,1
1532130760911,-1,-5,1,-6,-4,-4,-4,-4
1532130760916,-1,-1,-3,4,-3,-1,-1,-1
1532130760921,-1,-7,-4,-2,-3,-3,-1,1
1532130760926,1,6,7,0,0,3,0,3
1532130760931,0,6,-6,-4,-1,-2,-2,1
1532130760936,-3,-2,-6,5,-5,0,-2,-4
1532130760941,1,1,10,-12,0,0,-1,-5
1532130760946,1,-10,-4,-1,-5,-1,-1,-1
1532130760951,-4,-4,-1,0,-1,-2,-1,2
1532130760956,2,7,-6,-4,-1,2,-2,-2
1532130760961,-1,-6,-3,4,-1,0,0,2
1532130760966,-3,2,-4,-5,-3,-2,-5,-7
1532130760971,0,0,7,0,0,0,-1,-1
1532130760976,-1,-1,-1,6,3,0,-1,1
1532130760981,0,-2,-2,-1,0,0,-2,0
1532130760986,1,1,2,-1,-1,-1,-1,0
1532130760991,-1,-4,-3,2,1,-2,-1,0
1532130760996,-1,12,-5,-8,-1,-3,-2,-2
1532130761001,-1,-12,-1,5,-4,-2,-1,2
1532130761006,-1,-6,9,2,1,0,-1,1
1532130761011,0,8,1,-1,0,0,-3,-4
1532130761016,-1,-8,0,1,0,-1,-1,-2
1532130761021,-1,7,-2,-1,-2,-1,-4,-4
1532130761026,-1,0,-7,-3,-1,1,-2,1
1532130761031,2,-4,-6,0,1,-1,-1,2
1532130761036,1,2,11,1,1,-2,-1,0
1532130761041,-2,-5,-3,2,-3,-1,-3,-7
1532130761046,2,3,1,-5,-2,-1,0,2
1532130761051,-1,-3,-9,0,3,-1,-3,-4
1532130761056,-1,-1,4,3,0,-3,0,3
1532130761061,-2,-4,-1,-2,0,-4,-2,-1
1532130761066,-3,7,1,2,1,-1,0,0
1532130761071,1,-8,-3,-1,1,0,-1,-1
1532130761076,-2,-2,-3,-8,-9,1,-1,1
1532130761081,-1,-9,0,3,2,1,0,2
1532130761086,0,11,-4,-2,-1,-1,-1,-4
1532130761091,1,5,3,0,0,0,-1,-1
1532130761096,0,-4,1,3,1,0,-3,0
1532130761101,0,3,-3,-3,-2,1,1,2
1532130761106,2,-7,1,-1,-5,0,-2,0
1532130761111,-2,-13,1,0,-12,0,-1,-1
1532130761116,-4,-1,-6,-4,6,-1,1,-4
1532130761121,0,12,6,3,0,-2,-1,1
1532130761126,-3,-3,-2,-12,-1,-2,-2,-1
1532130761131,-1,3,5,-1,-3,-2,0,0
1532130761136,0,-6,-6,0,-3,1,-1,-2
1532130761141,0,-1,-5,-2,-4,-2,-1,-1
1532130761146,0,-6,1,3,0,-2,-1,-1
1532130761151,0,1,0,0,-1,0,1,-1
1532130761156,2,3,-1,-4,-3,-1,-2,1
1532130761161,0,0,1,0,2,1,0,-1
1532130761166,-1,-1,0,0,0,1,0,-2
1532130761171,-2,-8,-4,-3,1,-2,-1,-2
1532130761176,-1,8,0,0,0,-2,-1,0
1532130761181,-2,-3,2,1,-2,-2,-1,2
1532130761186,-2,3,-5,2,8,-1,-1,1
1532130761191,-1,-13,-1,-1,4,0,-1,-4
1532130761196,0,7,-7,-3,-1,0,0,1
1532130761201,-1,-3,0,-1,-1,-1,-2,-1
1532130761206,-3,1,6,1,-1,0,0,0
1532130761211,-4,-9,-4,-4,-2,-2,-3,-3
1532130761216,1,14,3,5,-1,0,-2,-4
1532130761221,3,-8,-5,-9,-1,1,1,1
1532130761226,-1,3,0,1,-7,0,0,1
1532130761231,0,4,3,-1,1,-1,1,0
1532130761236,-4,-8,-1,-1,0,0,0,1
1532130761241,-1,1,-4,-3,-10,-3,-3,-5
1532130761246,1,-7,-7,4,9,-1,-2,-2
1532130761251,0,7,12,1,-1,0,2,4
1532130761256,-2,-13,-8,-2,0,-1,2,2
1532130761261,0,5,8,4,-8,0,-1,1
1532130761266,-4,-2,-6,-1,16,0,-4,-10
1532130761271,0,-2,-9,0,1,-2,-3,1
1532130761276,3,3,8,3,-1,-1,0,-2
1532130761281,0,-4,-4,-1,3,0,1,3
1532130761286,-2,0,-1,-6,-16,-6,-1,1
1532130761291,-6,-4,-7,-13,4,10,0,-4
1532130761296,2,10,15,31,4,0,0,-2
1532130761301,1,-17,-8,-16,-19,-13,-2,2
1532130761306,1,18,3,12,20,13,-1,-3
1532130761311,4,-2,-1,-3,1,-5,-2,4
1532130761316,-5,-24,-8,-10,4,-1,-3,-4
1532130761321,-2,8,0,7,11,5,-1,-2
1532130761326,-4,-3,-2,-6,-16,-6,0,2
1532130761331,2,-14,1,2,-5,-3,0,3
1532130761336,0,-2,-2,-2,2,0,-2,-1
1532130761341,-1,5,2,4,1,-2,-1,-3
1532130761346,0,-7,-2,-4,-11,-3,0,1
1532130761351,-4,7,5,1,4,1,-2,-2
1532130761356,2,-3,-1,-6,-6,-2,0,-1
1532130761361,1,-2,-4,-3,5,-1,0,1
1532130761366,0,-3,-2,-4,-23,-2,-2,-2
1532130761371,2,9,-4,12,19,-10,-1,1
1532130761376,1,-3,3,0,2,12,2,5
1532130761381,-1,10,0,1,5,4,-2,-1
1532130761386,-3,3,2,0,1,-1,1,-4
1532130761391,3,-11,-1,-2,-11,-5,-3,-1
1532130761396,0,-1,-4,-9,0,-4,-2,-1
1532130761401,2,3,0,3,4,0,1,2
1532130761406,-3,-8,2,-2,0,-1,-2,1
1532130761411,-4,13,-2,-4,-14,-17,-3,-3
1532130761416,-3,-4,-12,-5,3,12,-1,-3
1532130761421,-4,-4,7,-1,-9,2,-1,-4
1532130761426,4,6,7,-11,10,0,0,2
1532130761431,-5,-9,-4,13,0,2,0,-3
1532130761436,7,6,2,-6,-4,-7,-3,-2
1532130761441,-1,-1,-1,-1,3,0,-3,-2
1532130761446,0,-4,-4,0,-8,0,-2,-1
1532130761451,2,7,1,-4,9,6,1,4
1532130761456,-6,4,-3,-3,-3,-2,-1,-3
1532130761461,-5,3,-2,0,-2,2,-1,-3
1532130761466,6,-3,-1,-4,-7,-4,-1,1
1532130761471,-1,5,1,-3,-5,2,-1,-2
1532130761476,-3,-1,0,-7,-5,-3,-2,-1
1532130761481,-4,-25,-5,0,5,-5,-3,-3
1532130761486,-2,6,6,6,5,-5,0,0
1532130761491,0,7,-2,-2,-5,11,-1,-1
1532130761496,-3,-5,-4,1,-1,-18,-3,2
1532130761501,-2,1,0,2,1,9,-1,0
1532130761506,-2,-1,-6,0,1,3,-2,-4
1532130761511,2,1,1,-2,-5,4,0,0
1532130761516,0,3,1,-2,0,-1,-2,2
1532130761521,-3,-14,-4,-3,0,-7,0,-3
1532130761526,-4,-6,-4,2,1,-2,-1,1
1532130761531,4,22,0,-1,-1,-2,-3,-2
1532130761536,0,-6,0,2,-4,1,0,2
1532130761541,-1,-2,-1,0,0,-4,-1,1
1532130761546,1,-1,-1,-1,5,1,0,-1
1532130761551,-4,-9,-2,-7,-5,-2,1,-1
1532130761556,-1,15,1,-1,-1,1,-2,-2
1532130761561,1,-8,6,5,1,-3,-1,1
1532130761566,2,2,0,-6,-10,3,1,-1
1532130761571,-2,-10,-8,1,-1,4,-1,-1
1532130761576,0,12,6,-3,3,1,-2,-1
1532130761581,-1,-1,-1,-7,-3,1,1,1
1532130761586,1,0,-5,-1,-4,-4,-2,2
1532130761591,0,-1,7,3,1,1,-2,3
1532130761596,-4,-12,-3,3,1,2,-1,-6
1532130761601,3,8,-2,-2,-5,-6,-3,0
1532130761606,0,-1,1,1,3,-3,-2,-2
1532130761611,-8,-15,-6,-1,-3,-2,0,-4
1532130761616,3,7,-1,-1,-1,-2,0,0
1532130761621,2,17,-1,-2,-3,1,-2,2
1532130761626,-1,-17,-7,-1,-10,-2,-3,0
1532130761631,-3,0,7,1,11,-1,-2,-2
1532130761636,-2,-5,-1,1,-3,-10,-1,-3
1532130761641,4,14,-6,-2,-2,-9,0,0
1532130761646,-3,-15,1,1,11,13,-1,-3
1532130761651,-1,-1,-5,-2,-8,-4,-3,-4
1532130761656,-2,-15,2,7,1,1,-1,0
1532130761661,-2,5,-1,-5,-7,0,-3,-1
1532130761666,-2,4,-1,0,0,-7,-2,1
1532130761671,0,-7,-3,-2,-3,-1,-1,1
1532130761676,0,5,2,-1,1,3,0,-1
1532130761681,-2,-11,-5,0,1,2,1,1
1532130761686,0,8,3,0,3,-1,0,-4
1532130761691,1,-12,6,-1,-5,0,0,-2
1532130761696,7,4,-4,-2,-4,-3,0,1
1532130761701,-3,-8,1,-1,1,2,1,-2
1532130761706,0,16,-4,-4,1,-6,-2,2
1532130761711,0,-4,-1,2,0,-2,0,0
1532130761716,-4,-1,2,-1,-4,0,0,1
1532130761721,0,-10,2,1,5,0,-1,-1
1532130761726,0,-3,-2,0,-1,-5,-1,0
1532130761731,0,7,-6,-5,-1,2,-1,-2
1532130761736,3,-2,-2,-4,-4,-7,-3,0
1532130761741,-1,1,-2,2,8,5,-3,-4
1532130761746,-2,-2,5,10,5,-2,1,1
1532130761751,-3,3,3,-12,-2,0,-2,-1
1532130761756,0,-10,-8,-6,-2,-3,-1,-2
1532130761761,-2,19,1,-5,-5,-1,-1,-1
1532130761766,-2,-20,-3,0,-1,-2,-1,-2
1532130761771,0,19,1,1,-3,-4,0,1
1532130761776,-3,7,-11,1,-1,5,1,2
1532130761781,1,-11,13,1,-1,-3,-1,-2
1532130761786,0,-3,0,-7,-13,2,-1,2
1532130761791,2,3,-5,4,9,-2,-1,-1
1532130761796,-2,-4,6,1,0,1,-2,0
1532130761801,2,-1,-4,0,1,5,-1,-1
1532130761806,-2,0,-4,-5,-5,-3,-2,-1
1532130761811,5,9,-3,-4,-3,-2,-2,0
1532130761816,4,4,7,9,-3,1,-1,1
1532130761821,-6,-11,1,3,10,-4,-2,-4
1532130761826,1,7,-1,3,0,-11,-2,-1
1532130761831,-7,-3,-8,-7,-4,13,-2,-2
1532130761836,-1,-7,-2,-3,3,-1,-1,-1
1532130761841,1,9,-8,-5,-8,-2,-2,1
1532130761846,0,1,4,2,-1,1,-2,-1
1532130761851,2,-1,7,6,7,-5,-3,-1
1532130761856,2,-2,1,-3,-9,-2,0,0
1532130761861,-7,-14,-6,2,7,4,-1,-4
1532130761866,3,8,-10,-2,0,1,-1,-1
1532130761871,-3,0,4,2,-5,0,-1,1
1532130761876,-2,0,1,0,5,-1,1,2
1532130761881,0,3,-3,-3,-10,-7,-2,1
1532130761886,-5,-6,-2,2,15,1,-5,-6
1532130761891,1,2,-2,0,1,-7,-1,-5
1532130761896,-3,-10,-9,-6,-8,-4,-3,-4
1532130761901,3,4,7,6,0,-3,0,4
1532130761906,-1,-1,4,3,-3,0,1,1
1532130761911,-5,-5,-1,-9,-5,0,-1,2
1532130761916,9,-2,0,2,5,2,-1,-1
1532130761921,-4,-13,-6,-6,-12,-13,-3,-4
1532130761926,0,8,-5,-4,4,10,0,-1
1532130761931,-1,-15,-1,4,1,-4,-1,-2
1532130761936,-6,2,3,-1,2,1,0,1
1532130761941,-1,-7,-2,-1,-1,1,-2,1
1532130761946,2,9,1,0,-3,-3,-1,2
1532130761951,0,-3,-6,-2,-7,-5,0,0
1532130761956,-4,-2,-1,1,6,4,-3,-5
1532130761961,-2,-2,-3,0,4,1,-1,0
1532130761966,4,24,7,-1,-3,2,1,1
1532130761971,1,-22,-3,3,-2,8,2,3
1532130761976,-3,8,-3,-5,-12,-3,-3,-6
1532130761981,-3,-10,-5,-2,7,2,-2,-5
1532130761986,-3,-14,-4,0,-1,1,-2,0
1532130761991,0,6,1,-4,-1,-7,-2,4
1532130761996,-1,-3,-6,-3,4,2,1,3
1532130762001,1,-7,8,4,-5,-10,-3,1
1532130762006,-2,3,1,-1,1,11,-2,-11
1532130762011,2,8,0,1,2,-1,-1,-1
1532130762016,-5,-10,-3,-3,-1,0,-1,-2
1532130762021,3,20,-4,-5,-2,0,0,2
1532130762026,4,-3,1,2,3,1,-1,2
1532130762031,3,10,4,1,3,2,-1,-5
1532130762036,3,-1,-2,-1,-3,-3,-1,2
1532130762041,-1,-3,-6,-1,1,0,-2,-5
1532130762046,-3,-1,2,0,2,1,-1,1
1532130762051,-4,-11,-9,-1,-5,4,0,-1
1532130762056,0,7,-1,-13,8,0,-3,-2
1532130762061,-4,-9,3,3,-1,1,-1,3
1532130762066,-2,0,4,1,0,-4,-2,-5
1532130762071,-4,3,-4,-4,-2,-2,1,-1
1532130762076,-3,-2,-2,4,-2,-1,1,3
1532130762081,0,-1,-1,-5,-2,-3,-1,0
1532130762086,-1,-3,-3,-2,-3,-5,-4,-7
1532130762091,-1,6,2,1,3,3,-1,1
1532130762096,0,-2,0,0,-2,-5,-2,-1
1532130762101,1,-3,0,0,-1,-1,0,-1
1532130762106,0,-18,-3,0,-4,-2,-1,4
1532130762111,4,4,-10,-8,0,1,-2,-1
1532130762116,-2,-1,6,6,-4,0,-1,1
1532130762121,1,16,8,0,-15,-1,-2,0
1532130762126,-1,11,0,-1,2,8,0,-2
1532130762131,0,-4,0,5,12,0,1,0
1532130762136,3,-11,-5,-15,-7,0,-1,2
1532130762141,-3,-3,-6,-2,1,3,-4,-4
1532130762146,-3,-2,-7,-8,-8,-6,-2,0
1532130762151,-1,5,12,9,-2,1,-2,0
1532130762156,-3,2,0,3,-2,2,0,0
1532130762161,2,-2,2,2,6,-6,-1,1
1532130762166,-3,0,-2,-4,5,1,-3,-1
1532130762171,1,-5,-5,-1,-6,-7,0,1
1532130762176,-1,-3,-2,2,1,-5,-3,-5
1532130762181,1,10,1,-1,1,-1,-1,-3
1532130762186,-3,-16,-3,1,4,1,-1,1
1532130762191,4,8,0,-3,-3,0,0,3
1532130762196,2,7,1,1,0,-1,0,4
1532130762201,1,-6,-4,-3,1,-2,0,-2
1532130762206,-1,-2,-4,1,-2,0,-2,-7
1532130762211,0,1,14,0,-1,2,-1,-2
1532130762216,-4,-4,-7,2,-2,-1,-2,-2
1532130762221,-3,6,1,-4,0,0,-3,-3
1532130762226,0,0,-1,0,1,-1,0,6
1532130762231,-3,-10,-3,-4,-2,-2,-2,-4
1532130762236,-1,2,-1,1,0,15,0,-2
1532130762241,-2,-1,0,3,0,-2,-3,0
1532130762246,0,-6,2,0,-1,-6,0,1
1532130762251,2,1,-9,-7,-4,-4,-3,-7
1532130762256,2,-1,0,1,0,-6,-3,0
1532130762261,1,-2,0,0,2,-2,3,1
1532130762266,-1,10,6,0,-1,0,-3,2
1532130762271,-5,-1,-8,-5,-1,2,-2,-8
1532130762276,-2,-8,4,-1,-3,-2,0,-2
1532130762281,-2,-7,-6,-3,6,0,-2,-1
1532130762286,1,9,-3,-1,-1,-3,0,0
1532130762291,-2,-9,12,5,5,-1,-2,0
1532130762296,-2,8,-5,-19,-12,-4,-2,-2
1532130762301,2,3,-3,-1,-2,-2,-1,0
1532130762306,1,-1,6,7,1,-1,-3,-3
1532130762311,-2,-6,-14,-7,-7,0,-1,3
1532130762316,-3,-3,6,5,5,-1,-1,1
1532130762321,-2,1,-3,-1,-3,0,-1,-1
1532130762326,-3,-4,14,4,2,-3,-3,-6
1532130762331,-3,-16,-2,-3,-3,1,-2,-2
1532130762336,-1,26,5,0,0,0,0,-2
1532130762341,1,-6,-12,-8,-2,0,-2,0
1532130762346,-1,-5,2,6,1,-1,0,1
1532130762351,-1,-4,-2,-1,1,-4,-2,-6
1532130762356,1,-4,7,0,0,-1,-2,-3
1532130762361,2,8,3,-2,-2,-1,0,2
1532130762366,2,-5,-12,-4,0,-2,1,-1
1532130762371,-2,-3,0,2,0,2,0,0
1532130762376,-2,-4,6,0,-1,-1,0,-2
1532130762381,-4,6,2,-2,1,0,-1,-2
1532130762386,-1,-7,-5,3,1,-1,-3,0
1532130762391,1,1,4,-1,-2,-2,-2,-1
1532130762396,0,3,-10,1,2,0,1,3
1532130762401,-1,-7,2,-3,4,-1,-2,1
1532130762406,-1,-12,-5,-10,-17,-3,0,-3
1532130762411,1,15,3,10,19,-3,0,-2
1532130762416,-1,-4,-1,0,-3,-2,-2,-4
1532130762421,0,8,2,-1,-5,-1,-1,0
1532130762426,-3,-5,-8,0,4,1,-2,1
1532130762431,-4,-8,4,-3,-10,-2,-1,3
1532130762436,-1,6,-2,-4,-2,-3,-4,-3
1532130762441,0,-2,-2,-1,0,0,-3,1
1532130762446,0,-2,-2,-2,1,-3,-2,-1
1532130762451,1,5,4,2,-4,2,-2,-1
1532130762456,-3,-7,-5,-1,0,1,-2,-2
1532130762461,-3,-2,-5,-2,-1,0,0,-2
1532130762466,1,4,1,-1,0,-1,-2,1
1532130762471,-1,-4,0,2,-1,2,0,0
1532130762476,0,-5,2,-5,-2,1,1,0
1532130762481,3,4,-8,1,-1,0,-1,2
1532130762486,1,0,11,3,2,-1,-1,-5
1532130762491,0,-2,-2,-3,-2,-2,-1,-6
1532130762496,0,-3,-3,4,7,0,-1,1
1532130762501,-3,-2,2,-10,-10,-1,1,-1
1532130762506,-2,-5,-3,-2,2,-1,1,5
1532130762511,-4,6,-1,2,-2,0,-1,-2
1532130762516,-2,-2,-5,-1,-2,-2,-3,-2
1532130762521,-2,7,11,4,-1,-1,-3,0
1532130762526,1,-6,5,4,2,-1,-3,-2
1532130762531,0,8,-8,-2,3,-2,-1,1
1532130762536,0,-10,5,-2,-5,-1,0,0
1532130762541,2,-5,-7,1,0,-2,-1,0
1532130762546,-3,3,2,-1,0,-1,-2,-3
1532130762551,0,0,-2,-3,-1,1,0,0
1532130762556,-2,3,0,-2,-12,-2,0,2
1532130762561,-7,-4,-4,-1,-3,1,-2,-3
1532130762566,7,3,-2,-3,10,-2,1,0
1532130762571,-1,-5,-3,-7,-5,3,-1,2
1532130762576,1,-3,-3,0,-3,-1,-2,-3
1532130762581,-2,-9,-1,-1,-3,-4,-1,-4
1532130762586,-5,-7,-5,-13,-9,8,-2,1
1532130762591,-2,7,-1,18,2,-4,-1,-2
1532130762596,1,3,5,2,7,1,0,3
1532130762601,0,-2,-2,4,-5,-1,0,3
1532130762606,0,2,1,-3,-4,-4,-2,-6
1532130762611,3,-1,-2,-10,-7,0,-1,-2
1532130762616,-3,-8,-4,0,-3,2,-1,-2
1532130762621,-2,2,-1,2,5,-6,-3,-4
1532130762626,-1,3,-7,-5,-2,-3,-1,4
1532130762631,-1,-10,6,-2,-4,-1,0,2
1532130762636,-1,6,3,3,0,-2,1,-2
1532130762641,3,1,-1,-4,1,0,-1,0
1532130762646,-3,-15,3,5,2,-4,-3,-1
1532130762651,4,8,-6,-3,-4,-1,0,0
1532130762656,0,7,-3,-6,0,2,-3,-2
1532130762661,-3,-12,-3,2,2,-1,-1,0
1532130762666,-6,14,5,3,-2,-1,-3,-7
1532130762671,-2,-6,-4,-6,0,-3,-1,2
1532130762676,-4,-3,-3,-2,-4,-9,-3,-3
1532130762681,0,2,5,3,10,13,-1,0
1532130762686,-1,1,-4,2,-8,0,2,2
1532130762691,-1,-1,6,-1,1,3,0,2
1532130762696,-1,-4,-8,-2,1,0,-4,-7
1532130762701,1,2,2,-1,-1,-3,-2,0
1532130762706,2,0,-2,-2,0,3,1,2
1532130762711,3,-8,0,3,2,-2,-2,2
1532130762716,-1,-3,-2,-14,-2,0,-2,-2
1532130762721,-2,0,-5,0,-2,-4,-2,-2
1532130762726,-3,5,12,3,2,0,-2,-3
1532130762731,2,1,-7,-3,-4,-1,-1,3
1532130762736,0,-4,7,6,7,1,-1,2
1532130762741,-1,-4,-2,-6,-3,-1,-1,0
1532130762746,4,18,-11,-1,2,-1,0,2
1532130762751,-5,-7,0,-1,-1,-2,-3,-4
1532130762756,-1,4,2,-3,-9,3,0,1
1532130762761,1,0,0,-2,4,2,1,-2
1532130762766,-5,-8,-7,1,1,-2,0,0
1532130762771,-2,-2,0,-2,-1,3,-3,-2
1532130762776,-1,-10,-5,0,2,-8,1,3
1532130762781,-2,4,0,-2,-3,-3,-1,-5
1532130762786,4,5,3,1,0,-1,-1,4
1532130762791,-1,-5,-1,-1,-2,-6,-3,-7
1532130762796,1,-7,-3,-14,-4,0,1,1
1532130762801,0,2,-1,2,-3,-1,0,0
1532130762806,0,-4,6,1,1,-1,-2,-3
1532130762811,0,5,-2,0,1,2,0,1
1532130762816,-1,1,-1,6,0,-4,-3,0
1532130762821,2,3,4,-1,0,0,-1,-1
1532130762826,-1,-4,-9,-4,-3,-2,0,-3
1532130762831,0,-5,-1,-3,3,0,0,2
1532130762836,-2,5,-4,0,-1,0,-2,-5
1532130762841,-1,-4,2,-1,1,-2,-1,-1
1532130762846,-2,-7,-2,1,0,-1,-2,1
1532130762851,-5,-2,9,0,-1,-1,0,2
1532130762856,1,7,-6,1,1,-14,-2,-2
1532130762861,-1,-5,0,1,-3,9,1,2
1532130762866,-1,1,-1,-2,-5,2,0,-1
1532130762871,-4,-3,-6,-4,-2,-2,-2,-3
1532130762876,2,-8,2,1,-2,-5,-2,2
1532130762881,0,-5,-1,1,2,-2,-3,-5
1532130762886,0,6,-3,-3,-2,-2,-4,-7
1532130762891,1,2,-2,-1,1,2,0,0
1532130762896,-1,-2,-2,5,2,1,-1,0
1532130762901,-1,5,7,-12,-9,-4,0,1
1532130762906,-1,-9,-5,0,0,-2,-1,3
1532130762911,-1,-5,-1,-1,-4,4,0,-3
1532130762916,-2,2,0,0,2,3,-2,-2
1532130762921,-2,7,-1,1,1,-2,-2,-4
1532130762926,-1,-1,-1,-1,-2,0,-2,0
1532130762931,-2,-18,-1,-1,-1,-6,-1,-2
1532130762936,4,11,0,-2,-3,2,1,1
1532130762941,-2,-3,-7,2,-6,0,-3,-1
1532130762946,-2,-1,8,4,5,-4,-1,-2
1532130762951,0,3,0,0,0,-2,-3,-1
1532130762956,0,-4,-1,-2,-2,3,-1,-1
1532130762961,1,2,1,-1,0,-4,1,1
1532130762966,1,5,-6,-3,-3,0,0,0
1532130762971,-1,1,-2,0,3,-1,-3,-3
1532130762976,-4,-13,2,-1,-3,3,-1,-2
1532130762981,1,-1,-2,0,1,-14,-4,-4
1532130762986,-1,1,-1,1,0,8,0,-1
1532130762991,4,11,1,1,-4,2,0,3
1532130762996,-7,0,1,0,12,-4,1,1
1532130763001,1,0,-1,5,1,-2,-3,-2
1532130763006,-4,-7,-1,-3,-3,-1,0,-1
1532130763011,-3,-2,-1,-1,-1,-3,-4,-2
1532130763016,1,-5,-1,1,-4,1,-2,1
1532130763021,-4,-6,-1,-3,-2,2,-1,1
1532130763026,-1,-1,-1,-4,1,-1,-4,-1
1532130763031,4,5,-16,-3,0,-2,0,1
1532130763036,-1,0,12,6,0,6,0,-2
1532130763041,-1,-2,4,1,5,-1,1,2
1532130763046,1,1,-4,-3,-1,3,-2,-1
1532130763051,2,11,6,2,-3,-10,-1,-4
1532130763056,-1,-4,-6,-6,-1,10,-1,-1
1532130763061,1,2,-3,-4,-5,-1,-3,2
1532130763066,1,1,-1,3,1,2,0,2
1532130763071,-4,-24,-3,-2,-5,0,-1,-5
1532130763076,3,20,2,1,0,-6,-1,1
1532130763081,-1,-11,1,-7,-2,7,2,0
1532130763086,-2,-15,-6,-2,-2,-4,-2,1
1532130763091,1,5,-1,-3,0,1,0,-1
1532130763096,-1,-11,-2,2,-2,-5,-2,-3
1532130763101,1,15,-4,-2,0,-1,-2,-1
1532130763106,-2,1,4,1,-1,-5,-2,-4
1532130763111,-4,-9,-1,-2,0,2,-1,0
1532130763116,2,9,0,-1,1,-2,-1,-1
1532130763121,1,-1,-3,-1,-7,-1,-2,1
1532130763126,1,-4,-3,4,6,-1,1,0
1532130763131,-6,-9,1,-5,3,1,0,1
1532130763136,2,9,-2,3,0,4,0,0
1532130763141,-3,-6,11,2,0,0,-2,-4
1532130763146,-1,-3,-1,-3,-4,-6,-3,1
1532130763151,-2,-5,1,-3,-2,-1,0,-1
1532130763156,0,3,-10,-6,1,-2,-2,1
1532130763161,0,-1,-9,-4,-1,-4,-2,-4
1532130763166,1,0,9,6,-1,0,-1,0
1532130763171,1,4,-2,-8,0,1,-3,0
1532130763176,-3,-8,-1,-2,-4,0,-1,-3
1532130763181,-1,4,-2,3,0,-1,0,-2
1532130763186,-3,-1,-2,-7,-2,-1,1,1
1532130763191,0,7,-2,2,0,0,-3,-2
1532130763196,-6,1,3,-1,4,-2,0,0
1532130763201,0,-7,0,-1,-4,-4,-2,-1
1532130763206,-3,-3,-5,0,2,-1,2,-1
1532130763211,-2,-4,8,0,-5,1,-1,0
1532130763216,-2,4,-6,-2,7,-13,-1,2
1532130763221,-8,-4,2,-2,1,3,-4,-3
1532130763226,-1,4,-1,-2,1,-1,-3,-5
1532130763231,1,5,-2,-1,-2,1,-2,2
1532130763236,-3,-6,1,1,0,-1,1,-1
1532130763241,-1,-6,-5,-3,-7,-1,0,1
1532130763246,2,7,-5,-4,-2,-2,-4,-3
1532130763251,-2,12,4,4,0,0,0,0
1532130763256,2,-5,1,-14,-5,-1,-3,-1
1532130763261,-1,3,0,0,0,-7,-2,-2
1532130763266,2,-14,-4,-1,-8,3,0,1
1532130763271,-2,-1,0,2,12,-2,-1,-1
1532130763276,-1,1,-1,3,-1,0,-1,-2
1532130763281,-3,2,0,0,-1,-2,0,2
1532130763286,-3,8,1,-3,-2,-2,-2,-2
1532130763291,-1,-7,-4,-2,-7,-2,-3,-4
1532130763296,3,6,2,2,4,3,0,0
1532130763301,0,-5,0,-4,-5,-4,0,0
1532130763306,-2,-7,0,2,12,4,1,0
1532130763311,-4,-13,-3,-3,-4,-4,-2,-2
1532130763316,6,20,3,1,1,2,1,1
1532130763321,-2,-6,-1,0,-4,-1,-2,-1
1532130763326,1,2,0,-1,-2,-12,-2,2
1532130763331,0,10,-2,1,2,13,1,-2
1532130763336,-2,-12,0,-7,-7,-1,-4,-1
1532130763341,-1,3,-1,6,2,1,-1,-1
1532130763346,-2,-2,1,-8,-2,-2,-1,2
1532130763351,-3,1,-3,-2,-1,0,0,1
1532130763356,-5,-4,-2,4,-3,1,-2,-3
1532130763361,1,-2,1,0,-7,1,-2,-1
1532130763366,2,-3,0,5,15,2,-1,2
1532130763371,1,1,0,-2,-6,-1,-1,-4
1532130763376,2,3,-1,3,3,0,1,-1
1532130763381,0,-3,0,-2,6,2,-1,-1
1532130763386,-2,-2,-1,0,-8,3,0,-1
1532130763391,-2,-2,1,-2,-3,-3,-2,-3
1532130763396,-3,3,0,2,2,-2,-1,-2
1532130763401,0,-9,0,-1,2,0,1,0
1532130763406,3,9,-5,-1,-3,-2,-1,-1
1532130763411,0,4,-7,-4,0,1,0,2
1532130763416,-1,-34,3,7,-1,-2,-3,-1
1532130763421,1,16,5,-13,-2,-1,1,-2
1532130763426,-1,0,-2,0,-3,4,0,-1
1532130763431,-4,-6,-8,-8,-10,-4,-2,2
1532130763436,-3,-1,-4,5,12,0,-1,-1
1532130763441,-5,-10,11,7,1,-1,-2,0
1532130763446,4,11,1,0,2,0,0,-1
1532130763451,0,1,-3,-5,-1,-3,-3,-1
1532130763456,-5,-15,-4,-4,-4,-1,-1,-1
1532130763461,9,10,-8,2,3,-2,-1,0
1532130763466,-1,0,-2,-2,-4,-3,0,-1
1532130763471,0,-1,8,6,2,1,-1,0
1532130763476,1,-5,3,3,-3,-2,-4,0
1532130763481,-5,1,-5,-7,-4,2,-2,-2
1532130763486,0,-6,-11,-7,-4,2,-1,0
1532130763491,-1,6,9,8,1,-2,-1,2
1532130763496,1,14,8,-3,4,5,1,-3
1532130763501,-4,-8,-3,7,-4,-3,-5,-8
1532130763506,5,9,5,-1,-11,-2,-3,-2
1532130763511,0,-17,-8,-3,7,2,0,1
1532130763516,1,14,2,-1,-3,0,-1,-1
1532130763521,-3,2,-8,-1,2,0,-1,2
1532130763526,0,-14,-2,-3,1,0,-2,-1
1532130763531,1,5,7,2,-7,1,-2,-1
1532130763536,-4,-2,-4,1,-5,-4,-2,0
1532130763541,5,4,-3,-4,0,-1,1,1
1532130763546,-8,-3,2,-1,8,-8,-5,-3
1532130763551,15,5,-12,2,0,11,-1,0
1532130763556,-5,-29,0,-6,-4,1,0,-4
1532130763561,5,39,0,-1,-2,-11,0,0
1532130763566,-1,-10,-3,0,-1,-1,-3,0
1532130763571,-3,-3,-5,-1,-4,-8,-2,1
1532130763576,-1,6,-1,-6,2,-4,-1,1
1532130763581,-6,-15,1,0,-12,6,-1,-4
1532130763586,-5,0,0,7,26,-1,-1,-6
1532130763591,-1,3,5,0,0,-5,1,-6
1532130763596,5,6,-8,-4,-3,-2,0,0
1532130763601,-2,-12,-1,0,3,8,1,3
1532130763606,-2,3,2,-1,-9,-1,-1,-3
1532130763611,-5,-11,0,4,4,2,-2,1
1532130763616,-2,8,4,1,-1,0,0,0
1532130763621,3,10,-1,-4,3,-3,0,1
1532130763626,-2,-19,0,2,-4,2,-1,0
1532130763631,-3,-5,-3,-8,-1,-1,-1,-4
1532130763636,2,5,-6,-6,-7,-5,-1,0
1532130763641,-5,-18,-8,-1,0,-5,-3,-4
1532130763646,5,17,10,-9,-5,1,0,-1
1532130763651,1,4,-2,-6,-20,-5,-2,0
1532130763656,-7,-2,-3,1,10,9,-2,-4
1532130763661,-3,-12,-1,-2,1,4,-2,-1
1532130763666,0,-10,-3,4,-6,-7,0,2
1532130763671,-1,9,5,0,5,0,-1,-2
1532130763676,0,15,-4,-3,-7,-7,-3,0
1532130763681,-1,-36,0,2,3,1,0,-1
1532130763686,0,19,-3,-2,-11,-1,0,0
1532130763691,3,12,1,0,7,-3,0,-1
1532130763696,2,-3,-2,3,0,-4,-4,-2
1532130763701,1,17,3,-5,0,-3,-2,0
1532130763706,-2,-15,-2,2,-1,-2,-4,0
1532130763711,-1,-9,3,7,3,-1,0,0
1532130763716,-3,10,-2,-11,-2,1,0,-2
1532130763721,2,-5,-3,2,-3,-2,-1,1
1532130763726,-3,3,7,1,1,3,-2,0
1532130763731,0,-6,-4,-3,4,2,-1,0
1532130763736,1,-6,2,0,-3,1,2,-3
1532130763741,1,2,-1,4,1,-3,-1,3
1532130763746,0,6,-3,-2,2,-1,-2,-8
1532130763751,-3,1,0,-3,-1,-4,-2,-3
1532130763756,0,-17,-7,-1,-5,-2,-1,0
1532130763761,-1,10,1,-4,-3,0,-2,-5
1532130763766,-6,-10,5,5,2,3,-2,2
1532130763771,3,11,-2,-3,-3,-3,-3,1
1532130763776,-2,1,0,0,0,1,-2,1
1532130763781,-1,-3,-1,-3,-3,3,0,-1
1532130763786,-2,1,-6,-2,-2,-2,-1,-3
1532130763791,-6,-19,-2,-3,1,-2,-2,-2
1532130763796,6,1,-5,0,-2,-6,-2,1
1532130763801,-1,5,5,2,5,-3,-2,-2
1532130763806,0,-2,-6,-3,-1,-1,0,0
1532130763811,-3,-1,10,3,-2,-2,-1,1
1532130763816,-3,-4,-2,3,3,1,0,1
1532130763821,-1,12,-3,-1,-2,-1,-4,0
1532130763826,-2,-9,-11,-5,-12,-6,0,-4
1532130763831,-5,-2,5,0,13,0,-2,-3
1532130763836,-2,-4,9,5,0,0,-3,-2
1532130763841,0,1,-1,-2,-1,0,-2,-1
1532130763846,1,5,-4,-3,1,-1,0,2
1532130763851,4,0,-8,-4,-6,2,-1,-1
1532130763856,0,1,0,-1,-1,-1,-1,-1
1532130763861,-1,-8,-3,-2,-2,-3,0,-3
1532130763866,1,0,2,1,2,3,0,-1
1532130763871,2,0,-2,-1,-5,-1,0,2
1532130763876,-1,1,0,-3,3,-2,-1,0
1532130763881,2,-5,-6,-1,0,-2,1,-2
1532130763886,2,-4,5,4,3,1,-2,2
1532130763891,-2,4,2,-11,-3,0,-2,-3
1532130763896,-8,-14,-2,2,1,-1,1,1
1532130763901,7,14,9,2,0,0,0,1
1532130763906,-2,-1,-5,-3,-6,1,-1,0
1532130763911,1,-8,-4,-3,-1,-1,1,1
1532130763916,4,6,4,-1,-3,-5,-1,-2
1532130763921,0,-3,1,6,5,-3,0,2
1532130763926,1,-1,0,1,0,5,-3,-2
1532130763931,-2,7,-4,1,-2,0,1,0
1532130763936,-2,-10,0,-1,0,3,-3,-1
1532130763941,2,2,-5,-1,1,-3,0,0
1532130763946,0,5,2,0,4,-4,-3,-4
1532130763951,-2,-6,3,-2,-5,1,-1,-5
1532130763956,0,-9,1,7,7,-1,1,7
1532130763961,-4,1,-4,1,-5,-1,-3,1
1532130763966,-2,10,3,-14,-5,-5,-2,-4
1532130763971,-2,-8,-2,13,12,-10,-2,1
1532130763976,1,13,-6,-5,-1,13,-2,0
1532130763981,0,-11,0,5,8,2,-1,-1
1532130763986,-4,-4,-3,-3,-8,0,-1,-4
1532130763991,5,12,-2,-7,1,0,-2,2
1532130763996,-4,0,-1,-2,-2,-4,1,1
1532130764001,-1,-2,-4,-3,-13,1,-1,-3
1532130764006,-1,-1,6,3,19,-1,0,0
1532130764011,-4,-11,4,2,0,-1,-1,0
1532130764016,3,15,1,-2,-1,-6,-3,-1
1532130764021,0,-4,-3,-2,-5,1,0,0
1532130764026,-3,-9,-5,6,3,2,1,-2
1532130764031,1,-8,-2,-9,-7,-2,-1,0
1532130764036,1,3,-4,-2,3,11,-2,0
1532130764041,-3,-3,4,0,1,-3,-2,-3
1532130764046,8,-2,0,0,-3,-1,0,5
1532130764051,-1,6,-3,-2,-5,3,-3,-3
1532130764056,-4,-3,-6,-8,-8,-5,-1,-6
1532130764061,-1,-1,5,1,2,-1,0,3
1532130764066,-3,5,2,5,-3,-4,-4,-6
1532130764071,-2,2,4,-13,-6,4,1,2
1532130764076,-5,-26,-2,0,0,-5,0,-2
1532130764081,3,11,-5,-3,1,0,-1,-1
1532130764086,-1,-8,2,1,-1,-1,0,7
1532130764091,0,-3,-3,-3,-3,-4,-1,-1
1532130764096,1,0,-1,3,-5,-2,-1,-1
1532130764101,1,1,6,0,6,-5,0,0
1532130764106,-5,-6,-6,-7,-9,2,-2,-3
1532130764111,1,9,0,3,7,-1,-2,-1
1532130764116,-4,4,-5,-4,-10,3,-2,0
1532130764121,-2,-7,2,0,-4,-2,-2,-1
1532130764126,0,5,-1,-1,3,0,1,0
1532130764131,-3,-9,2,0,-4,1,-2,-1
1532130764136,3,-5,-2,-1,11,-9,-4,0
1532130764141,2,10,-3,-1,-1,-1,-2,-1
1532130764146,0,-8,-4,-3,-6,0,0,-3
1532130764151,1,1,3,3,2,2,-1,0
1532130764156,0,7,0,-1,-5,-5,-2,-3
1532130764161,-2,-9,-1,-1,1,2,-1,-2
1532130764166,-3,7,-5,-2,-1,1,-3,-4
1532130764171,-5,-4,-7,-1,0,-2,-3,-3
1532130764176,0,-3,6,0,-2,0,-2,1
1532130764181,-3,3,-1,2,-1,2,1,-1
1532130764186,-3,2,-4,-2,-3,-2,0,1
1532130764191,1,1,1,-1,-3,0,-1,0
1532130764196,-4,-1,3,3,0,0,-1,-1
1532130764201,1,-4,-8,-4,0,1,0,2
1532130764206,1,0,-1,-3,-6,-2,-2,0
1532130764211,-2,-2,8,3,3,-2,-3,-5
1532130764216,0,3,-2,-3,-1,1,0,-3
1532130764221,-2,-2,-11,-5,-2,0,0,-1
1532130764226,-3,-5,4,7,-1,0,-1,3
1532130764231,-4,3,-4,-1,-2,-2,-2,-7
1532130764236,-1,3,9,1,0,0,0,1
1532130764241,1,-4,-3,-5,1,-2,-2,-1
1532130764246,-1,0,-7,-3,-1,-2,-2,-1
1532130764251,2,-6,5,4,0,1,1,1
1532130764256,1,-3,-3,-3,1,-1,0,0
1532130764261,-6,-11,-3,-3,-2,0,-2,-4
1532130764266,7,5,0,0,-1,0,1,3
1532130764271,-2,-4,2,0,3,-3,-1,0
1532130764276,-3,1,-8,-6,-7,2,-1,-2
1532130764281,1,2,8,4,0,-2,-1,1
1532130764286,0,1,4,4,2,0,-2,-1
1532130764291,-1,1,-10,-3,4,1,-2,-2
1532130764296,0,-4,-3,0,2,-1,1,2
1532130764301,-3,0,-3,2,-2,-2,-2,-2
1532130764306,-4,-4,-1,-9,-2,-2,-1,-5
1532130764311,3,9,1,1,-6,0,0,3
1532130764316,-1,-3,-3,-4,-5,-3,-2,-1
1532130764321,0,-2,-4,6,10,-4,-1,-2
1532130764326,-2,-6,5,0,-2,5,-1,0
1532130764331,3,18,0,-2,-3,2,-1,-1
1532130764336,2,-7,2,3,-1,-1,-1,1
1532130764341,-3,0,1,-3,-2,-3,-2,-5
1532130764346,-2,-3,-3,0,2,-2,-1,0
1532130764351,-8,-5,1,0,-5,1,-2,-4
1532130764356,-5,4,-2,0,-1,-4,-3,-4
1532130764361,0,-1,4,-2,0,1,0,0
1532130764366,-2,2,-4,0,-1,-3,-1,-1
1532130764371,2,-10,-4,-3,-3,-12,0,3
1532130764376,1,9,1,-3,2,13,-1,-2
1532130764381,4,-13,-1,6,4,-2,-1,1
1532130764386,0,8,6,0,-1,2,0,0
1532130764391,-3,-5,-4,-2,-5,-2,0,-1
1532130764396,-4,-5,-1,4,-6,-6,-1,2
1532130764401,-3,4,-2,-3,-2,-3,-2,-3
1532130764406,2,-2,-2,1,3,1,-3,-2
1532130764411,2,-12,4,-2,1,5,-1,0
1532130764416,2,9,-5,4,0,-6,-1,-1
1532130764421,0,-8,3,0,-5,4,3,2
1532130764426,1,10,-3,-2,-1,-4,-4,-5
1532130764431,-6,-9,-4,-1,0,0,-2,-3
1532130764436,-1,-1,-6,-5,0,2,0,4
1532130764441,0,8,4,-1,-1,-12,-4,-4
1532130764446,-3,-6,0,1,0,11,0,0
1532130764451,2,-2,-5,-1,1,-1,-2,-1
1532130764456,1,3,5,-1,0,1,0,-2
1532130764461,-3,-1,-2,0,-1,-2,0,3
1532130764466,-3,-9,-4,-1,-2,-4,0,2
1532130764471,-4,11,2,-2,0,1,-2,-4
1532130764476,0,-6,-2,0,0,0,-2,1
1532130764481,-1,1,-1,1,-2,4,0,0
1532130764486,4,0,4,0,-1,-3,-1,2
1532130764491,-2,-8,-5,-2,1,1,0,0
1532130764496,0,3,1,-5,0,-3,-3,-5
1532130764501,-2,-5,-3,-2,-3,1,-3,-5
1532130764506,-1,2,-5,0,-2,-2,-1,-2
1532130764511,-4,-7,-3,-3,-1,-1,-1,2
1532130764516,-2,0,3,0,1,1,0,4
1532130764521,-1,0,0,0,0,2,-4,-5
1532130764526,-1,3,-4,-1,-1,-1,0,1
1532130764531,-1,-15,4,-3,-3,-1,0,0
1532130764536,4,6,-11,5,0,-3,-4,-3
1532130764541,5,19,11,-7,-2,2,1,2
1532130764546,0,-5,2,8,1,-3,-2,-3
1532130764551,0,0,1,-1,1,0,0,0
1532130764556,-4,-5,-5,-1,0,-1,0,-1
1532130764561,-3,-5,-7,-4,0,1,-1,3
1532130764566,1,3,2,-4,-3,1,-1,-3
1532130764571,0,6,6,2,0,-1,-2,2
1532130764576,-2,-11,-6,-5,-2,-1,-2,-5
1532130764581,-1,-12,6,6,-1,-3,-2,-5
1532130764586,1,1,4,-7,-1,-1,-1,-3
1532130764591,4,-6,-2,6,0,0,0,4
1532130764596,0,-6,3,-7,-1,-2,-1,-2
1532130764601,0,-5,-16,-4,0,0,-1,4
1532130764606,-3,-7,1,4,-1,-2,-2,-4
1532130764611,-1,0,-2,-2,0,-1,-2,-1
1532130764616,-1,8,-2,-2,-3,-1,-1,0
1532130764621,-2,-25,3,0,0,-1,-1,-1
1532130764626,-3,26,-7,-5,-7,-3,1,2
1532130764631,3,8,3,7,13,-2,-1,-3
1532130764636,-4,-13,2,2,3,2,0,1
1532130764641,5,-3,-9,-3,-2,1,-1,0
1532130764646,-1,-4,-3,-1,1,0,1,5
1532130764651,-5,-3,13,2,-6,1,-2,-4
1532130764656,-1,-5,-3,-2,-6,-1,-2,-4
1532130764661,-6,-7,1,-1,9,-1,-1,-2
1532130764666,5,7,-1,0,0,-1,1,3
1532130764671,-2,0,-8,-7,-14,-1,-1,-1
1532130764676,-3,-7,5,2,14,0,0,2
1532130764681,4,13,1,-3,-6,-3,0,0
1532130764686,-2,-4,-10,-6,-1,-3,-3,-3
1532130764691,1,-7,4,2,1,-1,-1,-2
1532130764696,1,0,4,2,-2,-1,-4,-4
1532130764701,-4,9,-7,-3,-9,0,-4,-2
1532130764706,-4,-8,7,-1,6,0,-1,1
1532130764711,-2,5,-3,2,2,-2,-2,-1
1532130764716,-2,2,-1,-2,-6,-1,-2,-1
1532130764721,-1,0,2,4,5,2,1,2
1532130764726,3,2,1,-1,-8,1,-2,-4
1532130764731,1,-5,-6,-2,0,1,0,1
1532130764736,5,5,2,0,0,-2,3,1
1532130764741,-1,13,-2,0,2,3,-2,-5
1532130764746,0,-7,0,3,1,0,-1,0
1532130764751,-5,6,-6,-8,-2,-1,-1,-2
1532130764756,-2,-8,-4,1,0,-2,-3,-1
1532130764761,-3,2,14,0,-11,-9,-1,2
1532130764766,-2,-6,-2,2,6,8,-2,-5
1532130764771,0,-1,-5,2,9,-1,-2,-4
1532130764776,3,3,-1,-5,-6,0,-1,1
1532130764781,3,4,-12,-5,1,0,0,1
1532130764786,0,-9,18,9,-2,-7,0,0
1532130764791,-2,-6,-7,-3,-4,-10,0,-2
1532130764796,1,16,2,1,-2,18,0,0
1532130764801,-2,0,0,1,0,0,-3,-1
1532130764806,2,-4,-12,-8,-12,-2,0,-1
1532130764811,-1,-1,2,5,-2,0,-1,0
1532130764816,-5,-14,10,-1,0,-6,0,-5
1532130764821,1,4,-10,0,1,2,1,0
1532130764826,-1,-1,5,-2,-3,0,-1,-1
1532130764831,-3,-11,-1,-1,-1,-2,0,-3
1532130764836,7,14,-1,2,0,-2,0,2
1532130764841,-3,-1,1,-1,-1,-1,-1,1
1532130764846,-5,-4,-8,-7,-3,-2,-2,-3
1532130764851,1,-4,-6,-6,-2,2,0,3
1532130764856,-2,-12,8,9,1,-5,-1,1
1532130764861,-4,-12,1,-11,0,4,1,-2
1532130764866,5,10,-1,0,2,-1,1,3
1532130764871,0,10,-1,-3,-7,3,-2,-1
1532130764876,-2,-3,-8,-2,8,-2,0,-1
1532130764881,-1,0,1,4,0,-8,-1,-2
1532130764886,-4,-7,-2,-3,-1,-1,-1,1
1532130764891,2,1,3,-1,-1,5,-3,1
1532130764896,-2,-1,-8,-8,-6,-1,-2,-3
1532130764901,-3,0,-2,4,-4,-5,-1,-1
1532130764906,5,0,2,3,6,8,0,-1
1532130764911,2,12,6,3,-4,-1,-1,2
1532130764916,0,-18,-3,-7,-2,-5,-2,0
1532130764921,2,-3,-3,1,2,4,-2,-3
1532130764926,-1,2,5,7,0,-3,-3,-2
1532130764931,5,12,-5,-7,-9,1,1,2
1532130764936,-2,0,7,-1,7,0,-1,0
1532130764941,3,-2,-5,-4,-2,-3,-1,-1
1532130764946,0,-4,-5,-3,-2,-6,-1,0
1532130764951,-3,0,3,1,7,4,-2,-1
1532130764956,-2,3,-6,-4,-4,-3,-1,1
1532130764961,-8,-19,2,3,0,0,-1,3
1532130764966,-1,20,-1,-4,-3,-13,-1,-6
1532130764971,-8,-5,0,5,2,4,-1,-3
1532130764976,-1,2,-1,-1,-8,6,-1,-1
1532130764981,4,4,-1,3,5,2,-2,2
1532130764986,-5,-1,3,-2,-9,-3,-2,0
1532130764991,-2,-18,2,-13,1,-4,1,-1
1532130764996,-2,14,1,4,1,-1,-3,-1
1532130765001,-1,14,6,-1,-3,0,-1,1
1532130765006,-3,-12,-4,0,4,3,-1,-2
1532130765011,2,6,-5,1,-1,-4,0,-1
1532130765016,0,-2,4,0,-3,0,-1,-1
1532130765021,-2,-10,-2,-6,-13,-2,-3,-2
1532130765026,5,18,-3,6,21,5,-2,-2
1532130765031,2,-17,3,2,-1,1,-3,2
1532130765036,-3,-7,-3,-2,-1,-1,-2,-3
1532130765041,2,13,1,2,0,-1,1,1
1532130765046,-5,-4,-2,-5,-8,-1,0,0
1532130765051,-5,1,-3,-1,-2,-4,-2,-1
1532130765056,5,7,1,1,-2,-1,-1,-3
1532130765061,0,-1,0,0,3,1,-2,-1
1532130765066,0,-5,-1,0,-8,2,-2,0
1532130765071,1,5,-1,-12,0,-3,-2,-4
1532130765076,-2,-3,-4,-1,-5,-5,-2,-1
1532130765081,-1,0,2,2,1,0,0,-1
1532130765086,-4,-6,-1,2,3,1,-1,-1
1532130765091,-4,-7,-4,2,-8,0,-1,-2
1532130765096,3,-1,1,4,15,-10,-1,1
1532130765101,-2,-7,0,0,5,4,-1,-3
1532130765106,1,0,-3,-3,-3,-2,-3,-3
1532130765111,1,1,-2,2,-1,1,0,-1
1532130765116,-3,0,0,-2,-1,1,0,1
1532130765121,-1,0,0,2,1,0,0,-1
1532130765126,2,-7,0,-1,0,2,2,6
1532130765131,0,16,0,2,-3,-3,-3,-5
1532130765136,-2,-7,-3,6,-3,-1,-3,-3
1532130765141,-1,8,0,-11,-8,2,-2,-5
1532130765146,1,-5,-1,2,10,5,2,-1
1532130765151,3,-4,-7,-4,3,-4,-1,3
1532130765156,2,15,-9,-4,-5,2,-1,2
1532130765161,-1,-2,17,10,3,1,0,-2
1532130765166,-9,-16,-4,-8,-16,-6,-4,-6
1532130765171,4,16,4,9,12,-1,-1,1
1532130765176,-5,-5,-4,-3,1,1,-2,-2
1532130765181,-1,1,-11,-5,-2,-2,-2,-1
1532130765186,-2,-6,-2,-9,-8,-5,-1,1
1532130765191,-4,-10,-28,-10,-4,-1,0,-3
1532130765196,1,17,37,15,-2,6,0,1
1532130765201,4,12,7,3,2,2,1,2
1532130765206,0,10,-3,0,3,-2,-1,1
1532130765211,-6,-30,-7,-6,-5,-4,0,-4
1532130765216,4,7,-12,-4,-3,-3,-1,1
1532130765221,-5,-2,-1,-11,-5,0,-2,-2
1532130765226,-1,-8,-2,0,-1,-3,-1,2
1532130765231,-2,4,5,5,2,0,-1,3
1532130765236,-3,-8,-7,-10,-1,1,3,-5
1532130765241,-3,-15,-13,-1,0,-3,-3,-4
1532130765246,10,18,13,7,0,1,-2,-2
1532130765251,4,4,11,-1,-17,0,-3,1
1532130765256,-8,-2,7,3,11,1,0,0
1532130765261,7,-1,-14,-7,5,-3,-2,-2
1532130765266,-6,-8,-6,-3,1,1,-1,0
1532130765271,2,5,1,1,-3,0,-2,-1
1532130765276,-7,6,-3,-3,-6,2,-1,-3
1532130765281,-6,-20,-8,-2,-3,-6,-1,0
1532130765286,3,4,-3,2,2,1,-1,0
1532130765291,-1,-1,-4,-4,0,4,-1,0
1532130765296,2,-1,11,18,1,-9,-2,1
1532130765301,-2,3,-4,-12,-8,4,-3,-3
1532130765306,-2,9,14,7,1,0,0,-1
1532130765311,2,6,-4,-4,2,-1,1,-1
1532130765316,1,-10,-7,-5,-1,-3,-3,-3
1532130765321,1,-7,1,5,-7,-6,1,3
1532130765326,-6,-5,-3,-3,-2,2,-2,-4
1532130765331,-8,-10,0,-5,1,-5,-4,-6
1532130765336,0,0,-7,-10,3,3,-2,0
1532130765341,0,6,-3,5,4,0,0,1
1532130765346,0,1,8,1,-3,1,-2,-2
1532130765351,-6,13,9,3,0,-5,-2,-4
1532130765356,8,-3,-6,-1,-8,0,-2,3
1532130765361,-1,1,3,3,1,1,2,1
1532130765366,6,-22,-13,-3,0,-3,0,2
1532130765371,-2,2,-1,4,2,-1,-2,-1
1532130765376,-4,-9,1,-2,-5,4,-1,1
1532130765381,1,-1,-5,1,3,0,-2,2
1532130765386,-7,-5,-4,-3,-3,2,-3,-5
1532130765391,4,10,-2,0,-1,-4,2,2
1532130765396,-5,-12,-6,-6,3,-1,-1,-2
1532130765401,-1,4,20,8,4,-6,-1,-7
1532130765406,-2,-12,6,6,3,3,-2,-1
1532130765411,10,21,-1,-4,-6,0,0,4
1532130765416,2,-4,-10,-5,-5,-2,-1,-2
1532130765421,2,11,-8,-4,-2,0,-3,1
1532130765426,-4,-6,1,-5,-2,0,-2,0
1532130765431,-7,-34,-7,-3,-2,-8,-2,-5
1532130765436,4,10,-3,6,5,13,-1,0
1532130765441,-2,-7,18,8,-4,0,1,1
1532130765446,1,21,-4,-11,-4,-3,-1,-1
1532130765451,0,19,9,3,4,3,0,4
1532130765456,3,8,-6,-6,-4,-4,3,0
1532130765461,-1,-12,-9,-3,0,-2,1,0
1532130765466,2,19,-10,-2,-2,-2,-3,-4
1532130765471,-6,-17,7,-9,-11,1,-4,-3
1532130765476,0,9,2,8,3,-2,-1,0
1532130765481,-1,7,-8,-4,-1,-1,-3,-6
1532130765486,3,-9,7,1,-2,-1,2,7
1532130765491,-1,-4,-13,5,-1,-7,-1,0
1532130765496,-7,-12,25,6,-2,-3,-1,-6
1532130765501,4,21,1,-5,6,0,-1,3
1532130765506,-1,-3,-6,4,-8,3,1,0
1532130765511,3,1,-7,2,17,0,-2,3
1532130765516,-1,0,-7,-14,-6,-3,-2,1
1532130765521,-5,-19,-6,0,-1,0,-2,-5
1532130765526,-1,13,1,-5,1,-6,-1,-1
1532130765531,3,8,9,9,3,6,-1,1
1532130765536,-8,-21,-8,-7,-5,-5,1,0
1532130765541,-3,-7,-1,0,-12,-1,-3,0
1532130765546,-1,-8,-2,1,10,4,1,4
1532130765551,-3,-5,1,0,7,3,-1,-4
1532130765556,-3,-4,5,8,0,1,-2,-3
1532130765561,5,-4,4,-7,-5,-16,-2,-1
1532130765566,-3,-12,-4,0,0,11,-2,-2
1532130765571,2,6,5,2,-2,2,1,2
1532130765576,-3,-18,-13,-9,-3,-4,-1,-2
1532130765581,1,8,-3,-1,1,-1,0,1
1532130765586,6,3,-1,-5,2,-7,2,3
1532130765591,-3,-6,-3,3,-1,-5,-3,-6
1532130765596,-5,-7,-3,-5,-7,4,0,-3
1532130765601,-5,1,8,3,1,5,-2,0
1532130765606,7,15,-2,-4,-2,1,-2,-1
1532130765611,3,3,-22,-6,-2,0,-1,2
1532130765616,2,16,24,10,2,-7,-2,1
1532130765621,0,1,-3,1,2,-11,-2,4
1532130765626,-9,-9,-6,-5,-3,6,-2,-4
1532130765631,-3,-7,-6,-8,-6,-1,-1,-3
1532130765636,4,5,2,5,3,-3,-1,1
1532130765641,-1,1,-8,-1,17,2,-1,-4
1532130765646,-2,-17,1,-1,-4,-8,-5,-1
1532130765651,2,16,7,9,3,-4,-1,0
1532130765656,-4,-18,-13,-2,-1,2,-2,1
1532130765661,4,4,1,-11,-8,-1,-3,-4
1532130765666,-3,-1,2,-1,-2,-3,-1,-1
1532130765671,-6,-10,-5,-4,0,4,0,-1
1532130765676,4,-6,10,6,0,-6,1,2
1532130765681,-8,-3,-14,-3,-4,4,-1,-2
1532130765686,-1,18,-5,0,0,-3,-1,-6
1532130765691,2,-9,14,0,0,4,0,4
1532130765696,-2,-2,-20,-9,-3,-3,-5,-4
1532130765701,1,-9,24,6,2,-2,1,2
1532130765706,-1,14,4,5,2,-2,0,-1
1532130765711,-1,-3,-1,-2,0,-2,0,1
1532130765716,2,6,-3,0,-2,-4,-2,-2
1532130765721,-2,-11,4,4,-1,4,-1,-3
1532130765726,-1,-4,5,1,-4,-4,-2,-1
1532130765731,-6,-18,-4,-5,2,-4,-1,-2
1532130765736,2,5,-7,-6,-2,4,-2,0
1532130765741,-2,4,-2,0,-1,3,-1,5
1532130765746,0,3,-8,-5,1,-1,-1,0
1532130765751,4,-3,7,3,-5,-2,-1,-5
1532130765756,1,6,8,4,-13,-2,-1,3
1532130765761,5,-4,-9,7,7,9,-1,-2
1532130765766,1,29,1,-1,-4,-1,-1,1
1532130765771,-3,-3,-1,-10,-1,-1,-3,-1
1532130765776,3,3,-11,-3,0,2,2,1
1532130765781,-7,-4,9,1,-4,-2,-1,-3
1532130765786,-2,-20,-3,-1,-2,-1,-2,-2
1532130765791,6,-3,-4,-6,-4,2,-4,-6
1532130765796,-2,4,-3,-1,4,-2,-2,-5
1532130765801,-1,1,-5,-2,-4,-1,0,2
1532130765806,-1,-19,-3,-2,2,0,0,1
1532130765811,-7,-9,-2,-1,-5,-3,-2,2
1532130765816,2,5,5,0,6,2,-1,-4
1532130765821,3,2,-8,-1,-3,-3,-1,0
1532130765826,0,-16,-1,-5,-3,1,-1,1
1532130765831,-3,-5,-7,0,-1,0,-1,-2
1532130765836,2,14,25,6,7,2,-2,-2
1532130765841,1,2,-17,-7,-4,1,-1,0
1532130765846,1,10,15,3,1,-5,-1,-1
1532130765851,-9,-7,1,8,0,2,-1,-1
1532130765856,3,-12,-7,-7,0,0,-3,0
1532130765861,-15,-8,-12,-8,-3,-3,-2,-5
1532130765866,10,30,2,6,5,0,2,4
1532130765871,-2,-2,2,-4,-4,0,0,-1
1532130765876,-7,-8,-5,-2,-7,-2,-4,-4
