1532381850506,-1,2,0,1,-2,22,-1,1
1532381850511,-1,2,-1,-3,-3,-21,-4,4
1532381850516,-3,-4,-3,2,-1,5,-9,-6
1532381850521,-1,1,-2,0,-3,7,-7,0
1532381850526,2,0,-2,-3,-1,-4,-5,1
1532381850531,-2,-2,-1,-1,0,-1,13,-4
1532381850536,-2,-2,-2,-2,-5,-13,3,-1
1532381850541,0,3,0,-4,-6,0,-1,-3
1532381850546,-1,3,1,7,16,13,5,0
1532381850551,0,-3,0,1,4,5,0,1
1532381850556,-2,-1,0,-4,0,14,-1,-4
1532381850561,3,4,0,2,2,3,-3,2
1532381850566,1,-3,-1,-3,-7,12,3,-1
1532381850571,0,2,0,-2,1,-8,4,-3
1532381850576,-5,-2,-1,2,10,0,-8,-2
1532381850581,-1,-3,1,-3,-5,4,-1,-1
1532381850586,4,2,2,2,-2,0,-10,3
1532381850591,-4,-5,-4,-6,-9,-6,-4,-7
1532381850596,-1,-1,-2,1,2,14,-8,-1
1532381850601,1,1,0,1,2,-14,8,1
1532381850606,2,-1,-1,1,5,0,1,-1
1532381850611,1,-1,-3,-8,-16,-6,0,-2
1532381850616,-1,0,0,-2,14,39,1,3
1532381850621,0,1,-1,1,7,-1,-5,0
1532381850626,-4,-9,-2,-2,-13,-32,6,-3
1532381850631,0,5,-2,4,10,7,-9,-1
1532381850636,-2,-1,-1,5,-2,-10,1,1
1532381850641,0,-2,0,-3,2,7,-4,0
1532381850646,-3,0,-2,-5,-10,-4,4,-3
1532381850651,1,-2,3,2,-4,-3,-2,1
1532381850656,2,2,1,5,11,6,7,2
1532381850661,-3,-3,-2,2,-5,3,-2,3
1532381850666,-1,-3,-3,-5,-7,-13,1,-5
1532381850671,-1,-1,0,3,8,17,2,6
1532381850676,1,1,-1,-12,-10,-5,-5,-6
1532381850681,0,-3,-1,-2,-6,-20,2,-5
1532381850686,-1,1,1,0,-1,18,-1,3
1532381850691,0,0,-2,0,12,14,2,-1
1532381850696,0,1,-1,-4,-26,12,-1,1
1532381850701,-6,-5,0,-1,-2,-19,-1,-1
1532381850706,1,-1,-2,-3,0,15,2,-3
1532381850711,0,-1,-2,0,2,24,0,1
1532381850716,3,-1,1,3,-2,-47,2,1
1532381850721,0,1,-1,-1,5,33,0,0
1532381850726,0,0,1,1,0,-12,-2,-1
1532381850731,-4,-1,-2,3,1,5,-10,-2
1532381850736,-2,-2,-1,-1,8,15,4,-3
1532381850741,1,-1,-3,-3,-9,-17,1,1
1532381850746,-2,2,-1,1,-11,5,3,-3
1532381850751,0,-3,-5,-5,8,-22,10,-3
1532381850756,-4,-3,-1,1,-3,0,-3,5
1532381850761,1,2,-1,-3,-3,-1,-24,-7
1532381850766,-2,1,-4,-3,-8,-8,-8,-3
1532381850771,-2,-6,1,-1,1,8,-6,-5
1532381850776,-3,2,2,15,36,30,7,2
1532381850781,0,0,-1,-16,-49,-10,5,2
1532381850786,2,3,-1,-4,9,-11,4,3
1532381850791,-3,-5,-2,-2,-6,-20,4,-2
1532381850796,-3,-6,-3,-5,-1,12,-2,-4
1532381850801,0,1,-2,6,9,-6,-5,-4
1532381850806,-1,-2,-1,-1,4,-13,-9,-2
1532381850811,1,1,1,-1,-8,14,-1,-1
1532381850816,2,-1,-2,0,-1,-1,4,-2
1532381850821,-2,-1,0,4,7,-5,-4,-6
1532381850826,-1,-4,1,-2,-8,-3,4,-1
1532381850831,2,3,-1,2,2,-9,0,3
1532381850836,-4,-3,-2,-2,-5,-13,-12,1
1532381850841,0,-3,-3,-2,1,6,-2,-5
1532381850846,-1,-1,2,-2,10,24,-7,-7
1532381850851,-2,-1,0,-2,-4,12,8,1
1532381850856,-1,0,-3,-2,-3,-6,9,-3
1532381850861,1,0,2,2,-2,-4,2,5
1532381850866,-2,-1,-1,-3,17,-6,2,2
1532381850871,3,4,2,6,12,-5,-2,-3
1532381850876,-5,-7,-5,-10,-34,11,7,-3
1532381850881,-2,0,1,3,13,-9,3,4
1532381850886,2,2,0,3,-6,-14,1,0
1532381850891,-2,-3,-2,-7,-6,11,-5,-2
1532381850896,1,3,1,3,4,-65,-11,-3
1532381850901,-1,-1,-3,-1,-7,29,3,2
1532381850906,-3,-2,-5,-14,-14,-1,-8,-4
1532381850911,2,2,-1,3,-2,-30,-10,2
1532381850916,0,-2,-2,-6,-3,13,-6,3
1532381850921,-2,-1,-5,-1,-1,-18,-3,-9
1532381850926,1,1,2,7,11,21,1,-1
1532381850931,-1,1,2,0,-5,5,11,-2
1532381850936,0,-1,-1,-7,-4,4,-12,0
1532381850941,-1,-1,-2,2,8,10,-6,3
1532381850946,0,0,-2,1,2,5,-1,4
1532381850951,-1,2,3,3,-6,-11,3,-3
1532381850956,2,1,0,1,0,-2,8,-2
1532381850961,-4,-2,-1,1,7,-10,12,0
1532381850966,-1,-4,-4,2,-9,19,-5,-2
1532381850971,-2,2,0,-4,-2,-23,1,4
1532381850976,-1,1,-2,3,7,2,4,-3
1532381850981,-1,-3,-3,-8,-6,-2,-4,1
1532381850986,-2,2,0,0,-1,-15,1,-6
1532381850991,-1,-2,-1,3,-6,-10,10,3
1532381850996,2,-1,0,0,-1,23,1,-4
1532381851001,3,3,5,6,2,-36,4,-7
1532381851006,-2,-5,-4,-4,8,6,-3,1
1532381851011,-2,-3,-3,-8,-12,2,-10,-4
1532381851016,-2,-1,-2,0,4,-1,2,2
1532381851021,2,0,-3,-2,-4,4,-12,2
1532381851026,3,2,0,1,-4,4,10,2
1532381851031,-3,-4,0,0,4,-11,2,-2
1532381851036,0,1,0,-3,-2,20,6,0
1532381851041,-1,1,1,4,7,13,-3,1
1532381851046,-2,-2,-1,-5,-2,-4,-5,1
1532381851051,0,-2,-4,-2,-4,-3,-8,-1
1532381851056,0,-1,-2,-4,-5,3,4,-1
1532381851061,2,1,1,4,20,1,-5,-2
1532381851066,-1,0,-1,-1,-30,-43,-6,4
1532381851071,1,0,-3,-4,18,22,3,2
1532381851076,-2,0,0,0,0,-9,-9,-8
1532381851081,-4,-3,-1,-4,-1,1,4,-4
1532381851086,0,0,-2,-4,2,-9,3,1
1532381851091,-2,-2,0,3,-8,-14,-2,1
1532381851096,-1,0,-1,-3,-4,15,8,-1
1532381851101,-1,-1,0,-4,5,-17,-2,2
1532381851106,0,0,1,5,0,23,-8,-3
1532381851111,-1,-2,-2,-5,-5,9,-6,-2
1532381851116,1,1,2,8,5,-15,-5,1
1532381851121,-2,-1,-3,-13,-17,5,-6,-1
1532381851126,0,-3,-1,-2,5,-7,6,0
1532381851131,1,-2,-1,-1,-4,2,-2,-4
1532381851136,1,-1,1,5,11,3,11,1
1532381851141,1,0,-2,4,-2,3,14,1
1532381851146,-4,-3,-2,-5,-2,-1,0,0
1532381851151,-2,-2,-2,-1,-1,3,2,1
1532381851156,-1,3,-1,-3,-9,-31,-8,-3
1532381851161,2,0,0,0,2,27,-6,5
1532381851166,0,1,2,4,6,16,-2,-2
1532381851171,-3,1,-2,-1,-11,-43,-7,-4
1532381851176,0,-1,0,5,24,67,-6,1
1532381851181,-2,-1,-4,-8,-21,-14,-3,0
1532381851186,1,3,0,0,4,-13,0,-1
1532381851191,-1,-3,-2,-2,-12,10,10,-2
1532381851196,-2,0,0,3,12,-21,3,-2
1532381851201,-2,-2,-1,-2,-7,36,7,-3
1532381851206,2,0,-1,-4,5,0,3,3
1532381851211,-1,-7,-2,-1,-2,-5,-3,-2
1532381851216,-1,-1,-2,0,-7,-4,-2,-3
1532381851221,-3,-2,2,-3,-4,-8,-2,-3
1532381851226,-6,-3,-2,-2,-10,-9,2,3
1532381851231,-2,-1,0,1,7,4,2,1
1532381851236,0,-1,1,-6,-11,-10,4,-3
1532381851241,1,-1,1,8,11,3,-3,-2
1532381851246,2,3,1,1,-1,0,-6,0
1532381851251,-1,-5,0,2,1,-15,-3,4
1532381851256,-1,-2,-3,-1,3,16,-3,-2
1532381851261,1,2,0,-5,-8,-23,6,-1
1532381851266,-2,-3,-1,4,4,7,-8,-1
1532381851271,-2,0,0,7,22,8,-3,0
1532381851276,-2,-1,-2,-7,-33,-32,-3,1
1532381851281,-1,-2,-1,0,4,20,-1,0
1532381851286,0,-2,-1,-3,-1,0,-2,-2
1532381851291,1,2,1,-2,-3,-8,-10,-1
1532381851296,-2,-6,-3,1,9,13,2,0
1532381851301,-2,1,-1,3,-2,-3,-3,-4
1532381851306,1,0,-2,-6,11,-21,7,1
1532381851311,-4,3,1,-2,-7,14,3,0
1532381851316,-3,-6,-1,-11,-5,6,0,-2
1532381851321,-1,-1,-1,1,-1,-33,-4,-1
1532381851326,0,-1,1,3,3,49,13,-2
1532381851331,2,1,-1,1,-4,-28,9,-6
1532381851336,1,0,-4,-8,-4,-7,-2,2
1532381851341,-1,-3,0,2,-4,8,3,-4
1532381851346,-1,-2,-2,-1,-2,0,-8,0
1532381851351,-1,1,-2,-5,-6,-5,-4,-1
1532381851356,-1,0,-2,3,9,-7,-13,-8
1532381851361,2,3,-3,-11,-24,11,-3,2
1532381851366,-1,-3,0,-1,-4,-22,-6,-3
1532381851371,0,1,2,1,5,19,1,3
1532381851376,-2,-3,2,6,1,9,2,-4
1532381851381,1,0,-2,0,7,21,-2,2
1532381851386,0,5,0,0,-3,-17,-11,-3
1532381851391,-2,-4,0,0,-18,10,-16,-2
1532381851396,0,1,-4,-6,11,17,11,5
1532381851401,-1,0,3,3,2,-10,11,-6
1532381851406,-3,-1,0,0,5,33,9,-1
1532381851411,-1,-2,1,4,8,2,5,0
1532381851416,0,-1,-1,4,-3,10,-1,-3
1532381851421,1,0,0,-3,-6,1,3,4
1532381851426,0,-1,-1,2,2,-10,0,2
1532381851431,-1,0,-1,-2,-1,-20,-3,-1
1532381851436,-1,0,0,-3,-5,9,4,2
1532381851441,0,-2,-1,-2,8,16,-1,-4
1532381851446,1,0,0,1,-2,-15,0,-1
1532381851451,0,0,1,2,5,-11,9,2
1532381851456,-5,-8,-2,-7,-14,-34,-6,-4
1532381851461,0,0,4,13,20,4,1,1
1532381851466,-2,2,-3,-7,-16,20,0,1
1532381851471,0,-2,1,-5,4,-4,2,-1
1532381851476,-1,1,-1,5,-7,-27,-2,-4
1532381851481,1,3,-1,-2,13,68,-9,-2
1532381851486,0,-9,-2,-1,1,-28,-7,0
1532381851491,1,1,1,0,0,5,6,2
1532381851496,0,-1,-1,-2,-1,-6,0,-3
1532381851501,-5,-3,-2,-4,-7,-23,-3,-4
1532381851506,-1,1,0,-2,-1,-15,-4,1
1532381851511,0,-1,-2,-2,4,20,-3,-2
1532381851516,-2,-1,-1,3,-8,-13,-1,2
1532381851521,1,1,-1,-3,-4,-32,2,-1
1532381851526,1,-1,1,0,2,8,2,-1
1532381851531,-2,-1,-3,2,-2,-9,3,-1
1532381851536,2,1,2,1,8,26,2,-2
1532381851541,-3,-1,-2,-2,6,-5,-5,-4
1532381851546,0,-1,-1,3,-20,-10,-3,3
1532381851551,1,1,1,6,5,-12,-3,0
1532381851556,-1,-2,-2,-7,-10,-23,-4,-2
1532381851561,0,-2,-1,-3,3,10,-9,1
1532381851566,-1,-1,3,2,11,15,-1,2
1532381851571,1,1,-2,-4,-5,-5,2,-7
1532381851576,-1,1,1,3,0,-3,-8,0
1532381851581,-2,-3,0,2,-6,-2,5,-1
1532381851586,0,0,-3,0,7,7,4,1
1532381851591,0,0,0,-6,-5,-21,4,3
1532381851596,-3,-5,0,1,0,4,0,-1
1532381851601,0,0,-3,-4,-9,1,3,-1
1532381851606,0,1,2,5,-7,25,-4,-1
1532381851611,-3,-6,-5,-11,15,-7,-4,0
1532381851616,2,2,-1,0,2,31,3,0
1532381851621,0,-2,0,1,-4,-12,3,2
1532381851626,-1,-1,-3,0,2,-9,5,-4
1532381851631,-1,2,0,-2,2,1,-5,1
1532381851636,-2,-5,-1,-1,-19,-13,1,2
1532381851641,0,-3,-3,-1,-5,-11,9,-1
1532381851646,-3,1,0,-1,11,28,-6,-1
1532381851651,0,0,-1,1,-5,7,7,3
1532381851656,-1,0,-1,1,5,-17,-6,-6
1532381851661,-1,-1,0,1,-8,-21,-12,0
1532381851666,-1,-1,0,1,4,-6,-1,0
1532381851671,1,1,-2,7,9,-18,-9,1
1532381851676,1,0,-3,-11,-7,17,-2,2
1532381851681,-1,-5,-3,-11,-4,18,-11,-5
1532381851686,-2,2,-2,-6,-5,-26,2,-1
1532381851691,-4,-6,-1,-2,-4,15,-3,-3
1532381851696,2,2,3,5,6,-14,4,0
1532381851701,0,1,0,-1,1,-15,11,1
1532381851706,1,1,-2,0,8,38,-2,-9
1532381851711,0,-2,-2,-5,-14,-9,14,3
1532381851716,2,1,1,-1,14,-17,3,0
1532381851721,-3,-1,0,7,16,18,-4,0
1532381851726,-1,1,-1,-12,-23,-20,-7,-2
1532381851731,0,-1,2,2,5,-25,-14,-3
1532381851736,-1,-2,-1,0,-5,37,-2,1
1532381851741,2,2,1,2,8,9,10,-3
1532381851746,-1,-4,0,-2,-2,-29,3,-2
1532381851751,1,0,-2,-4,-10,11,0,-5
1532381851756,0,5,1,-1,7,12,9,1
1532381851761,-1,-4,-2,-3,-10,-16,2,1
1532381851766,-2,-1,0,2,-1,-10,0,0
1532381851771,-4,1,-1,-2,-3,9,1,-4
1532381851776,0,0,-2,0,0,-13,2,0
1532381851781,1,4,0,-1,-5,-3,-18,-2
1532381851786,-4,-5,-1,3,8,1,-5,0
1532381851791,-1,-1,0,-3,-3,3,-19,-2
1532381851796,-1,-2,-1,-1,-4,-15,14,2
1532381851801,0,0,-1,-1,6,21,4,1
1532381851806,1,0,0,6,-1,-36,2,4
1532381851811,-1,-2,1,-5,5,45,11,-2
1532381851816,-5,-4,-3,0,-6,8,4,-3
1532381851821,0,0,0,-4,5,-4,2,-2
1532381851826,3,2,-1,2,1,2,5,1
1532381851831,-3,-5,-1,1,-10,1,1,0
1532381851836,-1,0,-3,-12,-13,-21,-5,-4
1532381851841,-2,0,0,1,-9,15,-7,3
1532381851846,-5,-1,-4,-1,10,4,-11,-3
1532381851851,1,3,-1,1,2,0,-2,0
1532381851856,-3,-5,1,3,-3,0,-7,-3
1532381851861,-2,-1,-3,-5,-7,-27,0,-2
1532381851866,0,2,1,-2,8,11,2,0
1532381851871,0,-1,-1,0,-1,1,3,2
1532381851876,-1,1,0,5,6,17,-4,-2
1532381851881,1,-1,-1,-2,-5,-18,2,-1
1532381851886,0,-2,-2,-2,-6,-16,0,-5
1532381851891,0,1,-3,-3,1,30,13,4
1532381851896,0,0,1,1,4,-8,0,0
1532381851901,-1,-1,-3,0,0,18,-4,-6
1532381851906,1,0,0,-2,-6,-1,-1,0
1532381851911,-4,-4,0,2,3,-20,-9,-3
1532381851916,1,-2,-2,0,4,-15,-11,0
1532381851921,0,-1,0,-2,-16,5,6,3
1532381851926,1,1,0,-4,-2,-21,10,0
1532381851931,-1,1,2,3,5,51,9,-2
1532381851936,-2,-6,0,0,4,16,3,1
1532381851941,0,0,0,1,6,-5,5,1
1532381851946,0,-1,-1,1,0,-3,-12,1
1532381851951,-4,-1,-3,-10,-33,-34,-5,-2
1532381851956,0,-2,-1,3,24,22,-1,-2
1532381851961,-1,-3,-2,-1,-5,-8,3,0
1532381851966,-2,-3,0,-2,0,18,2,-2
1532381851971,1,0,-1,6,-1,-31,10,5
1532381851976,-1,-1,-1,-3,-2,9,3,-7
1532381851981,2,1,-4,-3,-1,-8,-8,-4
1532381851986,-3,-5,-1,-1,-7,15,4,4
1532381851991,1,0,-1,3,12,-22,-5,-5
1532381851996,0,-1,-2,-4,-11,-9,0,3
1532381852001,0,-2,-1,1,6,19,-3,-1
1532381852006,1,4,-2,-2,-3,-21,-4,-2
1532381852011,-2,-7,-1,1,6,-2,-10,2
1532381852016,-2,-1,-1,-3,-4,-6,-3,-2
1532381852021,1,0,0,-3,-10,-1,-1,0
1532381852026,-2,-3,-2,-3,0,5,5,-3
1532381852031,0,2,0,1,6,1,1,1
1532381852036,2,4,1,4,12,-4,-8,0
1532381852041,-6,-3,-1,-5,-22,8,4,0
1532381852046,-1,0,-1,-1,5,-5,1,-2
1532381852051,2,0,1,-7,-10,4,-7,3
1532381852056,-4,-5,-2,1,-5,-20,0,-4
1532381852061,0,-1,-1,9,21,46,-4,-1
1532381852066,-2,-4,-2,-7,-3,-48,-4,3
1532381852071,0,-1,-4,-1,-6,14,5,-2
1532381852076,-1,2,-1,-4,-14,-33,-6,-2
1532381852081,0,0,2,6,8,-5,1,-1
1532381852086,0,-5,-2,5,-1,32,2,-3
1532381852091,0,-1,2,-4,4,-9,-5,4
1532381852096,0,0,-1,-6,-9,11,-7,4
1532381852101,2,2,-2,1,4,-4,6,-1
1532381852106,-2,0,0,2,-1,5,1,0
1532381852111,0,0,1,2,0,-41,-1,-3
1532381852116,1,1,0,-2,3,24,4,-1
1532381852121,-3,-2,-1,-2,-8,-6,-3,-4
1532381852126,1,-1,-4,-7,-4,-7,5,-6
1532381852131,-2,-1,0,3,15,35,2,2
1532381852136,1,1,0,0,-1,-12,6,2
1532381852141,0,0,0,-2,-12,-18,5,2
1532381852146,0,-2,1,-2,-7,-6,-5,-3
1532381852151,-1,-1,-3,0,2,10,-10,-4
1532381852156,0,-2,-1,-2,-7,-3,0,0
1532381852161,-2,-1,2,-1,-2,-6,7,4
1532381852166,2,2,-1,0,9,1,-9,0
1532381852171,-3,-1,-3,-4,-8,-3,5,-7
1532381852176,-2,1,1,5,6,13,6,0
1532381852181,1,-3,-2,-3,-4,-6,-10,-4
1532381852186,1,2,0,2,-5,10,-12,3
1532381852191,3,0,0,2,4,25,4,3
1532381852196,-1,-3,-2,-6,-11,-24,-3,-2
1532381852201,2,-1,-3,-10,1,-9,-5,-3
1532381852206,-6,-2,-1,-3,-3,-6,2,0
1532381852211,-1,-4,0,3,1,-13,2,-5
1532381852216,-2,2,-1,-4,-6,1,15,0
1532381852221,1,-2,1,0,-2,-22,8,1
1532381852226,-1,-2,-2,-3,2,-5,10,0
1532381852231,-2,0,0,1,2,3,-10,0
1532381852236,-2,-1,1,2,2,-24,-9,0
1532381852241,-2,0,-3,-7,-5,21,-5,1
1532381852246,2,0,-1,0,-9,13,-1,-4
1532381852251,-3,-2,-3,-6,-1,10,-1,-2
1532381852256,0,0,0,-3,-6,15,1,0
1532381852261,0,0,4,6,9,-12,-8,-4
1532381852266,0,1,-2,-1,4,-1,5,-1
1532381852271,-1,-3,-4,-5,-6,-10,2,-2
1532381852276,0,0,0,-6,-1,10,-9,0
1532381852281,2,1,2,3,12,20,8,5
1532381852286,-7,-9,1,2,2,-9,-5,1
1532381852291,0,-4,-4,-3,-3,-8,-2,-7
1532381852296,1,2,-1,-6,-7,-7,-6,3
1532381852301,-5,-7,-4,1,-6,-11,1,-6
1532381852306,2,4,-1,0,10,22,-7,-4
1532381852311,0,3,0,-6,-19,-15,3,1
1532381852316,-2,-5,0,8,14,14,14,2
1532381852321,-4,0,-3,-11,-10,11,-7,-2
1532381852326,1,1,0,4,6,-1,7,-2
1532381852331,0,1,2,4,-3,12,-6,-1
1532381852336,0,1,-1,0,5,-7,-2,-2
1532381852341,1,1,-2,4,7,-5,-6,-3
1532381852346,-1,-1,-2,-4,-7,-17,-3,2
1532381852351,3,3,2,3,3,-27,7,1
1532381852356,-3,-3,-2,-1,-5,0,4,1
1532381852361,-1,-6,0,3,12,52,0,0
1532381852366,-6,-3,-1,-3,-7,-15,-2,-3
1532381852371,3,3,0,1,-2,-10,-8,2
1532381852376,-2,2,-2,-3,-2,-8,-13,-2
1532381852381,-2,-3,-1,-4,-11,-21,-6,-1
1532381852386,2,1,-1,-4,9,1,-1,-3
1532381852391,-3,-1,-2,0,9,27,0,-1
1532381852396,0,-3,-2,-6,-10,-8,-2,-3
1532381852401,0,0,-3,-2,2,-16,-10,2
1532381852406,4,3,0,-1,0,21,7,6
1532381852411,-5,-5,0,-2,-6,-5,2,-5
1532381852416,1,-2,-1,2,8,4,11,-5
1532381852421,1,6,3,6,-2,-10,19,-2
1532381852426,-2,-9,0,0,-11,-7,-2,1
1532381852431,0,-1,-3,-1,5,-4,-2,-1
1532381852436,-1,0,0,4,-4,7,-5,-3
1532381852441,-1,-2,-1,-2,-1,-20,-5,1
1532381852446,1,4,1,5,7,10,2,1
1532381852451,-1,-2,-2,-5,-2,3,8,2
1532381852456,-2,-4,1,8,8,-2,5,-1
1532381852461,-2,0,-3,-5,-3,-10,-14,-3
1532381852466,2,2,0,-2,-5,-4,-20,-2
1532381852471,-1,-1,0,-1,1,-3,-5,5
1532381852476,1,1,0,1,0,6,-1,-2
1532381852481,-1,-2,0,-2,-3,-1,6,0
1532381852486,-3,-3,-1,-3,-4,8,3,-2
1532381852491,-1,2,0,2,0,-13,-1,-2
1532381852496,-1,-2,-1,-2,-3,-4,-4,-2
1532381852501,-1,0,0,0,-4,-10,3,2
1532381852506,-1,-1,-1,1,7,38,4,1
1532381852511,-1,-1,-1,-1,0,0,2,0
1532381852516,-1,-1,-1,-3,-5,-22,5,0
1532381852521,0,0,-3,0,4,4,5,1
1532381852526,0,3,1,1,-3,-1,-2,0
1532381852531,-1,-1,-2,-4,-3,3,-1,0
1532381852536,0,-1,0,-2,-2,8,-4,-1
1532381852541,-2,-2,2,5,9,3,-8,-1
1532381852546,1,3,0,-1,-3,-7,-7,-1
1532381852551,-2,-2,-1,-2,0,9,-2,0
1532381852556,1,-3,-1,-2,-3,1,-8,-3
1532381852561,0,-1,-2,-3,-4,2,7,-1
1532381852566,-1,0,-1,-2,-5,-29,9,0
1532381852571,-2,-1,-1,0,-1,7,1,-1
1532381852576,-1,3,-1,1,-18,11,-1,0
1532381852581,-2,-1,0,-5,18,5,3,1
1532381852586,-1,0,-1,1,9,-8,-3,-1
1532381852591,0,-2,0,-3,-23,-44,-5,-2
1532381852596,-1,-1,-1,1,3,-34,-5,1
1532381852601,0,0,-3,2,-13,27,-10,-1
1532381852606,1,-1,-2,-5,10,41,0,-2
1532381852611,-1,-5,-5,-3,5,9,-11,-4
1532381852616,-1,-1,2,0,7,-12,-3,0
1532381852621,0,1,1,-4,-5,-36,4,-1
1532381852626,-3,-3,1,8,-1,-42,7,-1
1532381852631,1,2,3,3,3,20,7,0
1532381852636,-1,-1,-3,-6,-4,15,3,0
1532381852641,-2,-4,-2,3,0,24,5,-1
1532381852646,2,-1,-1,1,-6,2,1,-2
1532381852651,-1,-1,-2,-3,1,6,9,1
1532381852656,-4,-3,-1,-1,3,15,-6,-2
1532381852661,0,-1,1,0,0,-9,-14,-1
1532381852666,-3,0,-2,-2,-4,0,-1,-3
1532381852671,-3,-1,0,0,-2,-10,-3,4
1532381852676,0,-2,-2,-5,7,-3,3,-1
1532381852681,0,0,-2,-4,-10,-3,3,1
1532381852686,1,-4,1,-1,10,14,2,-1
1532381852691,3,3,2,-2,-21,-25,-9,-4
1532381852696,-1,-1,-4,-1,10,9,-6,-2
1532381852701,1,0,-1,-2,-11,-8,-17,-1
1532381852706,0,2,-2,-2,-6,-2,-3,1
1532381852711,0,0,0,1,15,-1,0,-1
1532381852716,0,-1,2,3,-3,12,-12,2
1532381852721,-3,-3,-4,0,0,-2,-2,-6
1532381852726,0,0,-1,-4,-4,0,10,-3
1532381852731,2,2,3,1,3,-1,-3,-1
1532381852736,1,-3,-3,-2,-8,-1,10,3
1532381852741,-2,-2,-1,-1,7,5,-4,-2
1532381852746,-1,-1,0,1,-2,0,-2,1
1532381852751,-2,0,-2,0,1,15,4,-1
1532381852756,1,-1,1,-1,-3,-8,2,-1
1532381852761,-1,0,0,-2,-1,8,-2,-1
1532381852766,-2,-4,-1,-2,-4,-11,0,-1
1532381852771,-1,-4,-3,0,0,0,0,0
1532381852776,-1,2,1,10,18,0,6,-1
1532381852781,-1,-2,-4,-9,-19,-8,12,-1
1532381852786,1,2,0,-4,1,1,1,-4
1532381852791,-2,-4,-1,-3,-2,-10,0,-2
1532381852796,-1,1,0,-3,1,2,-3,-1
1532381852801,-1,0,3,7,8,-2,-1,1
1532381852806,-2,0,-1,6,0,-18,-2,2
1532381852811,0,-2,-5,-11,-11,7,6,-9
1532381852816,-1,2,0,2,4,-4,0,5
1532381852821,0,0,-1,1,3,8,7,-1
1532381852826,0,-3,0,1,-3,3,0,3
1532381852831,1,0,1,4,6,0,-4,-1
1532381852836,1,0,-2,-1,-7,-2,-5,-1
1532381852841,3,4,0,2,5,-3,-3,2
1532381852846,-5,-7,-4,-4,-7,-7,-5,-2
1532381852851,0,1,-1,5,6,1,-3,0
1532381852856,-1,0,-2,-6,-5,-2,-6,-4
1532381852861,-2,-2,3,2,7,6,-3,3
1532381852866,-1,1,-5,-3,-3,-21,-7,-3
1532381852871,0,1,0,-2,-6,-4,1,2
1532381852876,-1,0,-1,-1,1,5,-1,-3
1532381852881,0,-4,0,0,-3,6,-9,-2
1532381852886,-2,1,-1,0,3,1,-5,0
1532381852891,0,2,2,5,-7,18,-2,-1
1532381852896,-1,-4,-3,-7,17,6,5,-1
1532381852901,-1,-1,-5,-4,-10,-1,-2,-6
1532381852906,-2,-2,0,0,-6,14,3,2
1532381852911,0,0,-1,3,-7,1,-2,-4
1532381852916,0,-1,3,-2,-13,-3,-2,-2
1532381852921,-1,-1,-3,-5,-16,-7,0,-2
1532381852926,0,-1,-3,-2,-12,-4,2,-1
1532381852931,-1,-1,-3,-3,-13,-5,9,-1
1532381852936,2,0,0,4,-6,3,7,0
1532381852941,-3,-1,-1,1,14,-4,11,2
1532381852946,2,0,1,0,9,-3,3,1
1532381852951,-1,1,-1,0,23,-1,1,1
1532381852956,-2,-3,-6,-4,-11,-11,-11,-5
1532381852961,-1,2,0,0,6,-4,-3,0
1532381852966,0,0,5,5,13,26,-1,0
1532381852971,-2,-3,1,-3,-5,-29,-4,1
1532381852976,0,-3,-2,1,-2,35,1,2
1532381852981,0,-1,1,-1,-6,2,-4,-3
1532381852986,-1,0,-1,-3,12,-5,1,-3
1532381852991,0,1,0,-1,7,4,5,0
1532381852996,-3,-1,0,0,2,-17,0,-3
1532381853001,1,0,3,3,-7,-9,0,2
1532381853006,1,2,-1,0,14,3,-4,-2
1532381853011,-3,-4,-4,-15,-17,-3,-11,-5
1532381853016,-1,0,-2,0,0,-14,1,1
1532381853021,1,-1,-1,1,14,19,-5,-2
1532381853026,0,-1,-1,-2,-1,2,2,-1
1532381853031,0,2,3,5,17,-31,2,4
1532381853036,-3,0,0,-3,-8,1,-6,-2
1532381853041,1,1,-2,-5,1,-8,1,0
1532381853046,-1,0,0,1,-7,5,-3,0
1532381853051,-4,-8,-5,0,7,14,-9,-8
1532381853056,0,2,2,1,-2,6,6,1
1532381853061,3,1,1,3,-9,-24,5,2
1532381853066,1,-1,-1,-2,-3,21,-5,1
1532381853071,0,0,2,3,9,30,4,4
1532381853076,-1,0,-6,-2,-4,-23,1,-3
1532381853081,-2,0,-3,-4,1,10,3,-2
1532381853086,-4,-5,0,-3,-5,-11,-1,0
1532381853091,1,-1,0,1,3,12,-18,-1
1532381853096,-1,0,-1,-1,9,-11,-18,-1
1532381853101,-3,-2,-2,-1,10,3,6,-2
1532381853106,-2,0,-3,3,-18,-20,4,-5
1532381853111,0,2,0,-3,18,-16,0,-5
1532381853116,1,-1,-2,0,-31,-10,-1,1
1532381853121,-2,0,-5,-8,-9,-2,-1,-2
1532381853126,-3,-2,-3,-3,0,2,6,-6
1532381853131,-1,-2,-1,-1,-16,7,15,5
1532381853136,-1,-3,3,4,1,6,15,-5
1532381853141,-2,-2,0,2,-2,-11,-16,-1
1532381853146,1,2,-1,-5,-12,0,-13,2
1532381853151,-2,-2,-3,5,-6,-8,-12,-2
1532381853156,0,1,0,-3,-2,-3,4,0
1532381853161,-2,0,3,5,-9,-4,5,1
1532381853166,-3,3,2,-2,25,0,-4,-2
1532381853171,0,3,-2,1,36,-14,-5,-2
1532381853176,-1,-1,0,-6,5,42,3,3
1532381853181,1,-1,2,5,-7,-4,-5,-2
1532381853186,0,0,0,0,14,5,2,-2
1532381853191,0,2,-1,5,-5,-4,0,-5
1532381853196,2,5,-3,-10,-1,-14,1,0
1532381853201,1,3,-1,-2,-12,9,-1,1
1532381853206,-2,-1,5,5,-14,1,1,2
1532381853211,0,-2,1,1,-16,19,8,-4
1532381853216,0,-4,2,5,-32,-20,3,-1
1532381853221,-1,-2,-2,-15,-6,9,3,-2
1532381853226,-3,0,-5,-2,5,-3,-6,-1
1532381853231,1,5,1,16,55,-10,-1,1
1532381853236,0,6,-3,-26,-24,-7,-15,-7
1532381853241,-4,4,2,4,-2,30,2,5
1532381853246,-1,3,-5,-2,10,-9,-1,-4
1532381853251,-1,5,-1,-7,-6,21,-3,4
1532381853256,-2,0,0,8,47,-25,7,-1
1532381853261,1,-11,0,10,10,5,2,-4
1532381853266,-5,-10,-1,-8,-42,-32,-2,-2
1532381853271,0,0,0,4,-13,36,-3,0
1532381853276,-3,0,-2,-7,-23,-1,-6,3
1532381853281,2,7,-2,8,-8,-4,17,7
1532381853286,-2,-10,-3,-5,9,2,-6,-2
1532381853291,5,-1,0,-6,1,-7,-6,-3
1532381853296,-2,-5,-3,-4,2,-29,-12,3
1532381853301,-2,3,1,7,16,9,-8,-4
1532381853306,7,8,4,3,10,-3,6,5
1532381853311,-1,-1,-3,-10,-4,-15,11,0
1532381853316,-3,-6,-3,-5,3,38,6,-2
1532381853321,-3,-8,-3,6,19,-38,1,-1
1532381853326,1,-6,0,2,11,-2,-6,-1
1532381853331,-2,-5,-3,-11,-29,3,-7,-1
1532381853336,0,1,-1,7,-1,-6,0,-1
1532381853341,1,-4,-2,-13,12,-11,4,1
1532381853346,0,3,-2,0,-4,23,0,-1
1532381853351,-2,0,0,0,-3,-7,-1,-3
1532381853356,-1,4,1,4,-14,-17,-1,-2
1532381853361,1,1,-1,-2,-11,12,4,-2
1532381853366,2,4,-2,-3,-14,-8,7,-1
1532381853371,0,1,1,3,3,6,-4,1
1532381853376,-5,-5,-2,1,5,6,-6,-2
1532381853381,-3,0,0,0,3,12,-6,-1
1532381853386,-3,2,0,-2,5,-21,-1,-3
1532381853391,-1,-5,-2,0,4,-3,6,0
1532381853396,1,-5,-2,-6,-4,-2,6,-2
1532381853401,0,-4,-1,1,-3,5,-2,-2
1532381853406,0,-3,0,1,4,-9,-12,-1
1532381853411,0,0,0,-2,3,16,4,3
1532381853416,0,-3,-5,-1,-5,-13,3,-3
1532381853421,1,1,-3,7,24,11,3,2
1532381853426,-1,3,-2,-4,-30,3,3,-1
1532381853431,-1,1,-3,-10,2,6,-2,1
1532381853436,1,5,3,0,2,-2,-9,-1
1532381853441,0,-1,1,15,-21,-19,-7,-4
1532381853446,-3,-3,-5,-21,8,4,1,-1
1532381853451,-1,0,3,5,-6,-10,-2,-3
1532381853456,-4,-8,-1,-3,3,14,-5,0
1532381853461,-1,-3,-2,-4,-3,-13,-6,-4
1532381853466,1,-1,5,13,7,-1,-4,0
1532381853471,0,-5,-4,-6,-12,-5,-3,-4
1532381853476,1,-2,-1,-8,12,8,6,1
1532381853481,1,0,-1,-2,-9,2,11,1
1532381853486,0,0,1,3,-9,2,4,-3
1532381853491,-2,1,-4,-9,-6,-6,1,-3
1532381853496,-1,1,-2,3,2,-1,-13,-3
1532381853501,-3,3,-1,-1,7,8,-4,-2
1532381853506,-2,4,-2,5,13,-4,1,1
1532381853511,2,3,3,6,9,18,3,1
1532381853516,1,-2,1,5,3,-8,5,-2
1532381853521,-1,-2,-2,-14,0,-1,-11,-1
1532381853526,-3,-3,-1,-1,10,-3,-8,-1
1532381853531,-1,-5,-3,6,-3,-2,-11,-1
1532381853536,-3,-2,-2,-13,-22,-5,-4,-1
1532381853541,0,-1,1,-6,-12,6,-3,-1
1532381853546,0,0,0,2,-5,-7,0,-1
1532381853551,0,0,0,3,7,0,-3,-1
1532381853556,4,2,2,9,0,17,10,7
1532381853561,-2,-3,-3,1,-2,-10,6,-4
1532381853566,2,0,-1,-1,0,4,0,10
1532381853571,-3,0,0,2,-11,-8,6,-2
1532381853576,2,3,0,-8,10,-10,3,-2
1532381853581,-2,2,0,-1,-3,-13,4,0
1532381853586,-2,-3,-1,4,7,28,6,-5
1532381853591,-3,-7,-3,-5,-2,-2,3,1
1532381853596,0,1,-2,-1,-10,-6,-1,0
1532381853601,-1,-1,1,2,6,-1,2,-1
1532381853606,0,-1,-3,0,-3,-1,1,-3
1532381853611,-4,0,0,1,-2,2,-9,0
1532381853616,0,-1,-2,-10,0,-4,-13,-4
1532381853621,-2,-2,-3,0,5,3,-6,-1
1532381853626,-2,-2,1,1,-22,-5,-2,-4
1532381853631,-1,3,1,1,2,3,15,2
1532381853636,0,-1,1,8,-1,-1,13,2
1532381853641,1,1,-1,-12,-12,2,6,-1
1532381853646,1,-2,-3,-3,-1,3,5,-2
1532381853651,1,2,2,1,4,-3,3,-2
1532381853656,-3,-1,-2,2,-3,-22,0,-1
1532381853661,0,-1,-1,4,1,6,-3,1
1532381853666,2,1,-2,-6,0,3,8,6
1532381853671,1,-2,2,3,1,-7,-9,-4
1532381853676,-1,-3,-4,0,3,11,-9,2
1532381853681,0,-1,-1,0,-3,-5,-9,0
1532381853686,-1,-1,0,-3,-4,-1,-10,-4
1532381853691,1,-4,-3,-7,-13,-4,-3,-1
1532381853696,-1,1,0,1,3,17,-1,-1
1532381853701,-1,-1,1,3,8,-2,1,-2
1532381853706,0,-1,-2,-2,6,-2,-2,2
1532381853711,1,-1,-3,-5,5,-2,3,-2
1532381853716,1,0,1,3,0,-6,8,-2
1532381853721,1,3,-1,0,1,10,10,2
1532381853726,-2,-1,1,3,-1,-1,-7,-3
1532381853731,0,-1,-3,-9,-22,-15,-7,3
1532381853736,0,-1,-2,-4,-10,0,-2,-1
1532381853741,-5,-6,-1,-2,-15,-3,-8,-3
1532381853746,-3,1,0,1,-2,1,-5,-4
1532381853751,0,-2,1,2,-2,-3,-15,-2
1532381853756,0,-2,-1,-4,-14,2,-6,-2
1532381853761,2,2,1,0,-9,7,-3,1
1532381853766,-1,-1,-2,2,13,2,3,-1
1532381853771,-2,-1,-2,-6,-17,-12,7,-6
1532381853776,-1,-3,-2,-7,29,25,8,5
1532381853781,-1,-3,-6,-4,17,-11,-6,-2
1532381853786,-2,-2,-2,-10,4,-2,-2,-4
1532381853791,0,0,-1,5,15,-6,13,1
1532381853796,0,2,3,9,-2,-7,11,-4
1532381853801,5,4,7,8,-10,-1,-3,-7
1532381853806,-7,-9,-7,-2,-24,-3,10,0
1532381853811,-1,-2,-1,0,1,13,-14,-1
1532381853816,-1,2,-3,-7,-2,-1,-7,1
1532381853821,0,-3,2,1,-30,-8,-7,-1
1532381853826,0,5,1,-5,-17,-13,-4,-3
1532381853831,-3,-5,3,6,17,14,13,0
1532381853836,-3,-2,0,-2,-5,-20,-3,-4
1532381853841,-3,-2,-1,-1,24,9,0,4
1532381853846,1,2,0,-1,-1,-30,1,-1
1532381853851,0,-3,-4,-2,18,16,-1,1
1532381853856,1,1,-3,2,29,10,-5,2
1532381853861,0,-1,-2,-4,-4,4,8,-7
1532381853866,0,-3,-3,-6,2,3,3,0
1532381853871,1,5,-1,5,6,-29,3,-2
1532381853876,-4,-9,0,-14,-23,5,5,4
1532381853881,-3,-3,-4,3,10,-2,-4,1
1532381853886,4,0,-2,-6,25,13,12,2
1532381853891,-6,-4,-2,9,2,-12,0,-1
1532381853896,-2,1,-1,-15,-6,5,-2,-1
1532381853901,0,1,-3,-4,-15,-14,-5,6
1532381853906,0,-4,0,5,10,8,-31,-1
1532381853911,0,1,2,1,6,10,-40,-3
1532381853916,3,4,2,11,0,-5,-39,-5
1532381853921,-3,-1,2,5,10,7,-12,1
1532381853926,3,4,4,3,3,-3,-3,2
1532381853931,-2,-4,-8,-14,-1,14,11,8
1532381853936,-1,0,1,7,-4,-19,-2,-5
1532381853941,-3,-5,-4,-11,4,-3,0,0
1532381853946,0,-1,0,10,-1,6,6,-2
1532381853951,0,2,3,-6,-1,2,18,-2
1532381853956,2,2,-2,11,6,-2,-11,5
1532381853961,-3,-2,-3,-5,9,-11,38,-6
1532381853966,-3,0,-4,-4,6,-8,16,1
1532381853971,1,0,7,18,-4,7,12,1
1532381853976,-2,0,4,-15,-2,1,22,-6
1532381853981,0,-2,-5,2,-20,-13,-4,-4
1532381853986,-5,-2,-8,-22,-4,5,22,2
1532381853991,0,-1,-2,15,23,1,9,-6
1532381853996,-2,-3,-5,4,-26,3,24,-2
1532381854001,3,4,5,10,-20,-1,-15,2
1532381854006,-3,-1,4,-8,-42,-3,-17,-15
1532381854011,1,0,0,21,-24,4,-15,11
1532381854016,2,1,6,0,-19,1,-6,-3
1532381854021,-3,-1,-6,-14,-6,-4,15,-1
1532381854026,0,-1,-4,3,-3,14,31,3
1532381854031,1,3,1,-10,-9,-29,12,-7
1532381854036,-3,-2,-1,17,8,9,23,-5
1532381854041,1,2,0,-13,12,17,9,8
1532381854046,-2,-3,-4,-5,19,-15,-6,5
1532381854051,-4,-2,-4,-14,3,2,-5,-8
1532381854056,-3,-1,1,3,18,4,2,-3
1532381854061,1,0,-2,7,21,-37,-15,0
1532381854066,0,1,5,18,17,16,-24,3
1532381854071,0,-2,-8,-26,6,3,-16,1
1532381854076,2,-1,-6,-4,19,-11,-19,-2
1532381854081,-3,0,6,8,15,-12,-27,-12
1532381854086,1,1,0,2,14,29,-13,0
1532381854091,-1,-1,-4,1,-4,-21,7,7
1532381854096,-3,-8,-6,-13,-1,21,25,3
1532381854101,-1,0,-3,-12,5,9,16,0
1532381854106,0,1,6,8,-14,-23,-16,-11
1532381854111,0,1,11,29,-3,12,19,5
1532381854116,-3,-7,-20,-53,-19,2,15,5
1532381854121,-2,-2,-3,5,-8,13,33,1
1532381854126,1,2,2,-4,-12,-9,12,0
1532381854131,-3,0,0,-1,-9,-4,-1,-5
1532381854136,0,3,5,15,1,7,-15,7
1532381854141,0,0,5,3,-3,13,0,-1
1532381854146,-2,-3,-5,-2,-7,9,13,-3
1532381854151,-1,-2,-5,-14,-11,-36,2,0
1532381854156,2,3,2,9,-7,-11,-16,-10
1532381854161,3,5,3,-1,-2,19,-9,4
1532381854166,-1,-1,-1,10,-1,7,16,5
1532381854171,3,1,1,-7,-8,3,-26,-4
1532381854176,-5,0,5,8,-3,-44,-35,-8
1532381854181,0,0,0,-3,-7,18,-10,-4
1532381854186,-1,-5,-7,-10,-13,-13,-8,-1
1532381854191,-2,-4,-3,-6,1,6,-18,-3
1532381854196,0,-1,0,7,-5,-6,-5,-6
1532381854201,1,2,7,9,1,-10,-3,-5
1532381854206,0,-4,-4,-7,-7,3,11,1
1532381854211,0,0,-3,-10,-11,9,-11,-1
1532381854216,1,-1,-1,6,3,9,-15,3
1532381854221,-5,-6,-3,-5,-4,4,4,-3
1532381854226,0,0,3,-4,0,-2,-12,-10
1532381854231,-3,-5,-4,-3,5,5,32,22
1532381854236,2,1,3,5,6,8,22,4
1532381854241,1,-1,-4,-5,-2,3,3,2
1532381854246,-2,-3,-2,0,-4,-7,-6,-4
1532381854251,1,2,2,-1,2,-4,-14,-9
1532381854256,-3,-3,-4,-3,2,7,1,6
1532381854261,0,-1,-2,3,4,15,17,5
1532381854266,-1,-1,-3,-12,7,40,2,0
1532381854271,1,4,8,15,4,-22,19,-11
1532381854276,-3,-5,0,16,-12,5,8,0
1532381854281,-5,-7,-12,-26,2,0,17,2
1532381854286,-3,-5,-7,-8,-5,-19,-4,5
1532381854291,0,-3,-4,-2,0,0,27,0
1532381854296,3,4,1,1,6,3,1,-9
1532381854301,3,8,15,29,15,-3,6,-8
1532381854306,0,-2,2,-7,-15,1,6,5
1532381854311,-2,-2,-4,-14,-8,-9,-4,6
1532381854316,-2,-1,-4,-4,1,-1,-24,-6
1532381854321,3,1,3,3,2,-3,-33,6
1532381854326,0,1,4,4,7,8,-8,-4
1532381854331,1,-2,2,8,5,5,-19,-5
1532381854336,0,-1,0,-2,-3,-30,-13,0
1532381854341,-3,-5,-7,-5,19,25,-12,-2
1532381854346,-3,-1,0,1,-30,-6,5,-1
1532381854351,0,0,-1,-4,-6,13,-7,-1
1532381854356,-2,0,-1,-4,-8,-9,12,-1
1532381854361,-1,-1,-5,-1,-2,-4,6,1
1532381854366,-3,-3,-2,1,4,-18,-9,-2
1532381854371,0,1,1,4,11,15,-1,-1
1532381854376,0,1,3,2,3,5,-1,-4
1532381854381,-2,-4,-4,0,7,-9,1,4
1532381854386,-2,1,0,7,31,4,5,1
1532381854391,-3,-6,-7,-8,-60,-22,-14,-10
1532381854396,-1,-2,-3,-6,6,-21,-1,-2
1532381854401,0,2,3,4,-8,-6,-16,2
1532381854406,0,4,3,9,34,6,-14,5
1532381854411,0,-1,-1,4,-16,-1,-28,-4
1532381854416,0,-1,2,-7,-10,6,-9,3
1532381854421,-1,-5,-11,-9,-16,0,-18,2
1532381854426,-2,0,0,-7,-3,-18,6,-4
1532381854431,1,3,5,11,31,-5,21,1
1532381854436,1,-1,-2,-1,1,9,-13,-2
1532381854441,-1,-3,4,-4,-10,-10,12,-1
1532381854446,1,0,-2,-1,3,-2,23,-4
1532381854451,0,-1,-2,-1,10,1,3,-1
1532381854456,0,0,0,3,1,9,-6,3
1532381854461,-1,0,1,1,-1,-5,8,0
1532381854466,1,6,-2,-3,-8,1,-19,-3
1532381854471,-4,-11,0,-4,3,-5,11,-3
1532381854476,-3,-2,-3,-3,1,5,-11,0
1532381854481,0,2,2,3,3,9,7,1
1532381854486,-1,-5,1,5,12,0,8,-9
1532381854491,-1,3,-5,-24,-39,-12,17,3
1532381854496,-2,-2,-2,2,7,7,-1,1
1532381854501,-1,-3,-3,-3,-10,0,-19,-1
1532381854506,-3,0,-1,-1,-4,8,-30,5
1532381854511,-2,0,-1,2,14,-13,-45,-3
1532381854516,-1,-2,-1,0,-4,1,17,2
1532381854521,-1,1,-3,-5,-11,-5,-12,-3
1532381854526,-1,-2,0,-1,-11,-2,-23,3
1532381854531,-3,1,0,2,3,5,-45,3
1532381854536,-2,-1,-3,0,-8,4,-20,4
1532381854541,-1,-2,-3,-3,-3,-10,-28,-2
1532381854546,-1,0,11,1,8,-2,-7,-6
1532381854551,2,16,22,8,13,20,-12,-2
1532381854556,-4,-12,-35,0,3,9,-22,4
1532381854561,-5,-9,-6,-12,6,-10,4,-1
1532381854566,-1,3,-7,-13,0,1,-25,1
1532381854571,-5,-7,-4,-3,-1,-19,-42,0
1532381854576,-1,13,22,5,6,6,-58,2
1532381854581,1,7,5,42,19,-9,-20,1
1532381854586,0,-14,1,-31,9,0,-12,3
1532381854591,-2,-8,-20,-9,-1,2,47,-4
1532381854596,2,-4,-8,-18,1,7,54,-4
1532381854601,2,1,-2,1,-1,-20,28,-5
1532381854606,2,6,11,28,3,25,21,1
1532381854611,1,-1,6,2,-3,-9,20,-2
1532381854616,1,-3,-2,-11,-10,-12,31,-1
1532381854621,0,-2,1,0,6,49,1,-1
1532381854626,-2,7,-5,11,-4,0,7,-2
1532381854631,2,-12,7,-2,-2,10,12,0
1532381854636,-1,-4,-8,-4,-13,-27,6,-1
1532381854641,-1,-1,1,-12,-3,14,19,-1
1532381854646,1,-3,-9,13,0,-9,3,0
1532381854651,2,3,-1,-8,-2,-1,7,0
1532381854656,2,-1,9,-6,6,9,3,-3
1532381854661,1,-1,9,2,-11,-36,-27,-1
1532381854666,-1,-1,-12,-21,-19,-2,-9,-2
1532381854671,-2,1,-5,4,3,11,18,-1
1532381854676,-4,-2,3,3,2,8,-5,2
1532381854681,-2,2,-2,6,13,9,25,3
1532381854686,-3,1,7,15,5,-29,6,1
1532381854691,-3,-4,-6,-28,-10,4,-6,-3
1532381854696,-3,0,-13,-26,-10,-14,17,0
1532381854701,-1,-7,-2,1,3,9,-18,-2
1532381854706,0,2,0,-2,-1,-1,31,-1
1532381854711,-1,3,10,52,11,-13,105,0
1532381854716,-1,-1,12,-5,-2,-14,115,3
1532381854721,-3,-9,-22,-50,-16,19,120,-5
1532381854726,-2,-3,-10,-3,-10,-26,113,6
1532381854731,-2,0,-4,3,5,12,13,1
1532381854736,0,3,9,28,4,-6,-13,0
1532381854741,0,4,7,9,-5,3,-46,0
1532381854746,-1,-3,-4,-5,-2,-35,-110,-3
1532381854751,0,1,-2,-3,-8,-8,-128,-3
1532381854756,2,-2,1,4,-10,-10,-128,-1
1532381854761,-2,-3,-1,-6,-7,-29,-117,-1
1532381854766,2,-1,0,12,14,77,-81,-3
1532381854771,0,-3,8,38,-18,-25,-63,-2
1532381854776,-3,-1,-5,-61,-44,-30,-26,-3
1532381854781,-4,-2,-10,13,-11,-3,-2,-3
1532381854786,0,-3,3,16,-22,13,13,0
1532381854791,-1,1,-6,-35,-19,21,21,-2
1532381854796,2,-1,-3,14,-19,40,16,0
1532381854801,-2,-1,5,3,-38,-4,5,1
1532381854806,-1,1,2,12,-67,4,20,0
1532381854811,2,2,5,-2,-109,2,-2,0
1532381854816,1,1,2,15,-95,-6,-10,-3
1532381854821,4,4,2,-6,-85,-6,-29,1
1532381854826,1,2,-1,-3,5,4,-19,-1
1532381854831,-3,-8,-4,-13,44,-6,-6,0
1532381854836,-3,-1,-4,2,71,-26,-2,-1
1532381854841,-1,4,1,10,98,2,15,2
1532381854846,-6,-3,-3,-14,70,1,13,0
1532381854851,-2,0,-4,-11,63,-17,2,-2
1532381854856,-4,-1,-2,14,72,15,0,-1
1532381854861,-1,-1,6,29,68,18,-1,1
1532381854866,0,-2,-4,-44,15,-12,-8,-1
1532381854871,-3,-3,-8,-2,31,31,4,-1
1532381854876,3,-1,1,12,0,5,6,1
1532381854881,-2,4,-2,-6,-5,-12,16,-3
1532381854886,-1,-1,7,10,-4,-8,10,2
1532381854891,-1,0,-7,-3,8,13,-11,-1
1532381854896,-1,1,0,-1,46,16,-10,-4
1532381854901,-1,-2,-2,-12,2,-28,-16,2
1532381854906,-4,-2,-4,1,88,-31,-4,0
1532381854911,1,0,0,-3,52,6,0,2
1532381854916,0,0,-2,12,40,21,6,-2
1532381854921,2,-1,-3,-25,-53,-13,13,-1
1532381854926,0,-2,-4,-1,-38,0,14,-4
1532381854931,2,1,6,6,-22,-7,11,2
1532381854936,0,-1,-1,1,-22,19,2,0
1532381854941,-2,-1,1,5,-24,14,-22,1
1532381854946,2,-2,-4,-5,-54,15,-9,-3
1532381854951,2,1,2,2,-107,-17,5,-4
1532381854956,-1,-4,-1,4,-43,1,3,-1
1532381854961,-2,-3,-1,-6,-55,2,15,-3
1532381854966,-1,0,-2,2,-9,7,-8,1
1532381854971,-4,-1,-2,-2,64,-3,-11,-1
1532381854976,-4,2,1,-5,55,-34,-16,0
1532381854981,2,-1,-2,1,20,-7,4,-2
1532381854986,1,-2,-4,-8,0,-19,1,-3
1532381854991,1,0,2,1,31,48,16,-3
1532381854996,-1,-1,-2,-10,2,-55,2,1
1532381855001,-3,1,0,8,80,48,6,0
1532381855006,-2,-5,0,0,-15,-6,10,-2
1532381855011,-1,-2,-5,-5,-55,-23,-3,-2
1532381855016,0,3,3,3,-49,12,6,-3
1532381855021,2,0,0,-3,-10,5,9,0
1532381855026,-2,2,2,3,13,-6,-2,-4
1532381855031,-1,0,-1,-1,27,-3,-9,4
1532381855036,-1,1,-1,1,45,11,-4,-6
1532381855041,-5,-4,-4,-5,75,-18,-4,6
1532381855046,-2,1,-4,0,78,16,3,-1
1532381855051,1,-3,-1,-2,57,-17,0,1
1532381855056,1,-1,-2,-1,-6,2,-2,-6
1532381855061,1,1,-1,-4,-15,-9,1,2
1532381855066,2,-5,-6,-3,-16,9,-2,-3
1532381855071,-2,2,0,-4,-33,-5,-6,3
1532381855076,-1,-2,-1,-2,-65,-9,6,2
1532381855081,-1,0,-1,-2,-14,2,1,-10
1532381855086,-3,-1,-1,-2,-2,-18,-4,2
1532381855091,1,-2,-1,6,37,17,-4,-3
1532381855096,-2,0,1,-1,-7,-5,-11,-2
1532381855101,0,1,-3,-5,13,27,6,4
1532381855106,0,-1,2,3,4,-6,5,-1
1532381855111,-3,-1,-3,-2,20,-13,12,-3
1532381855116,-1,-1,1,4,33,5,11,5
1532381855121,-1,3,-1,1,11,-4,3,-3
1532381855126,0,1,1,-3,-46,-12,-12,-1
1532381855131,3,4,-2,-6,-76,2,-13,-3
1532381855136,-1,-4,-2,-2,-5,4,-8,1
1532381855141,0,-3,-2,-2,-2,-15,-3,4
1532381855146,1,-2,-1,4,16,22,6,-1
1532381855151,-3,-3,0,-6,-41,-19,3,1
1532381855156,0,-1,-1,-2,-37,19,1,0
1532381855161,0,-2,-1,-1,-26,-2,4,-6
1532381855166,1,0,2,7,18,11,-4,2
1532381855171,-6,-3,-1,0,37,-3,-1,-2
1532381855176,-3,-2,-2,-2,39,1,-3,3
1532381855181,-3,-2,0,1,58,-26,-5,-5
1532381855186,-1,3,2,-2,46,0,3,-1
1532381855191,0,-1,-2,-4,62,-17,-1,-2
1532381855196,0,3,0,1,60,-5,1,1
1532381855201,-4,-5,-4,-1,-9,-17,-2,0
1532381855206,0,4,-3,-4,-3,4,-2,-4
1532381855211,-1,-2,-1,2,-10,19,-2,7
1532381855216,0,-2,0,3,-51,-28,-3,-3
1532381855221,1,-1,0,4,-44,3,-7,-2
1532381855226,-2,-5,-5,-14,-78,-16,3,-1
1532381855231,1,-1,2,3,-28,16,6,-4
1532381855236,2,2,2,-4,-66,11,9,-1
1532381855241,-1,-5,1,2,-29,12,-2,-2
1532381855246,-1,4,1,5,-34,-1,-5,0
1532381855251,1,1,0,0,-28,5,3,1
1532381855256,-1,-5,-3,-4,-33,-8,9,-3
1532381855261,0,2,3,1,-6,17,-1,-1
1532381855266,0,1,-3,0,-21,-12,0,-3
1532381855271,-4,-5,0,-2,-1,5,1,-5
1532381855276,1,3,-1,-1,-10,-13,-2,2
1532381855281,0,-4,-3,-9,-15,0,1,-4
1532381855286,-2,1,5,12,17,10,-8,-4
1532381855291,-2,1,-4,-10,-8,-18,-6,-1
1532381855296,-3,-5,-2,3,41,33,2,0
1532381855301,0,1,0,3,10,-14,6,1
1532381855306,0,-2,-4,-14,9,-6,0,-4
1532381855311,3,-1,1,18,22,-4,9,0
1532381855316,-4,-4,-6,-20,-12,3,3,-2
1532381855321,0,0,0,3,-20,-15,2,-2
1532381855326,-2,-4,-4,-21,-7,7,-3,3
1532381855331,2,2,6,21,15,-6,-2,-3
1532381855336,-3,-2,-4,-16,-44,6,-13,1
1532381855341,-1,-1,1,13,-37,-7,-6,-3
1532381855346,0,-2,-3,-10,-3,6,4,0
1532381855351,-2,0,0,-2,4,-12,6,-1
1532381855356,-1,0,-1,10,30,-7,3,-5
1532381855361,-3,2,-1,2,29,8,0,2
1532381855366,1,-2,0,10,-3,-12,-2,0
1532381855371,0,0,0,-4,-4,-2,-5,1
1532381855376,1,1,1,5,14,-6,-5,-3
1532381855381,-1,-4,0,-9,-10,1,10,-2
1532381855386,-1,-1,-1,2,-12,0,-11,1
1532381855391,0,0,-2,-6,-48,-6,-1,-3
1532381855396,1,-1,-2,-6,-43,22,0,-3
1532381855401,1,1,0,-2,-42,-21,1,1
1532381855406,1,3,3,4,-32,7,6,-1
1532381855411,-2,-3,-3,-6,-20,23,-3,-2
1532381855416,-1,0,1,4,-12,-9,5,1
1532381855421,1,0,-1,3,-7,16,6,2
1532381855426,2,0,4,8,-64,16,3,-2
1532381855431,0,0,-1,-10,-18,-1,-4,-1
1532381855436,-3,-1,0,4,68,1,-7,-1
1532381855441,-1,2,0,-5,90,-4,-7,1
1532381855446,-4,-2,-3,1,73,-9,2,-4
1532381855451,0,7,-1,-2,69,1,5,-1
1532381855456,1,9,-1,4,48,-24,-6,1
1532381855461,-12,-17,-1,-12,56,44,-5,-4
1532381855466,-4,-2,-1,1,30,-36,-9,2
1532381855471,2,0,1,-4,7,6,-1,2
1532381855476,1,-8,-1,2,5,-4,5,1
1532381855481,2,11,-1,0,-25,-14,-9,-3
1532381855486,2,2,-3,-1,-7,30,6,4
1532381855491,-3,-8,-2,-2,-31,-22,-4,-1
1532381855496,0,6,-1,0,-28,15,3,-1
1532381855501,1,3,1,2,-24,-3,-1,-2
1532381855506,-2,-21,-3,-3,-7,4,3,-3
1532381855511,0,12,1,0,-13,-39,0,0
1532381855516,0,-9,-1,-4,6,11,-3,-1
1532381855521,5,35,-2,0,4,0,-1,1
1532381855526,12,-68,0,-1,-1,-4,2,-8
1532381855531,-13,-4,-11,-8,-7,-1,-7,0
1532381855536,0,17,0,1,-26,19,-3,-4
1532381855541,5,-13,-1,-4,-17,5,-1,5
1532381855546,-7,39,0,-1,13,-3,0,0
1532381855551,4,-6,1,-2,-19,-41,1,-4
1532381855556,1,-31,-1,1,0,5,3,1
1532381855561,-5,12,0,3,23,-6,2,-2
1532381855566,-3,8,-1,4,50,10,2,3
1532381855571,-2,-8,1,14,47,6,-6,0
1532381855576,-6,7,-2,-12,-8,-9,-7,-1
1532381855581,0,-12,-3,-6,15,0,-4,-3
1532381855586,-2,12,0,0,4,2,-6,0
1532381855591,2,-8,-2,1,-18,-28,7,-2
1532381855596,-2,7,1,5,14,44,11,-1
1532381855601,0,-10,-4,-3,-35,-2,-2,-3
1532381855606,2,-3,-2,-6,-21,-22,2,0
1532381855611,0,7,1,5,13,24,-7,3
1532381855616,-1,-5,1,-12,-53,-23,-9,-2
1532381855621,-2,-10,0,3,5,-21,-1,-3
1532381855626,-4,8,0,4,-7,25,-1,2
1532381855631,2,1,0,1,-22,14,-5,-2
1532381855636,0,1,-4,-1,5,-13,0,0
1532381855641,0,-9,1,-3,2,9,-14,0
1532381855646,-2,5,-1,-4,-18,-4,3,-4
1532381855651,-3,-7,-4,-1,0,-1,9,-1
1532381855656,0,-3,0,6,20,-3,11,0
1532381855661,-2,6,-1,-7,-18,-51,7,-3
1532381855666,1,8,-3,0,32,68,-1,3
1532381855671,0,3,3,-1,1,2,-1,-1
1532381855676,1,4,-2,-10,-8,-12,-5,-2
1532381855681,-8,-7,-6,9,-7,-2,0,-1
1532381855686,-1,-4,0,-3,2,-15,-7,-8
1532381855691,3,-1,-1,10,8,21,6,1
1532381855696,-3,-3,-1,-19,8,5,-3,3
1532381855701,0,0,4,-3,-40,-4,-2,1
1532381855706,0,-4,-5,-1,-4,-6,0,-2
1532381855711,-2,2,0,-4,-7,1,-2,-2
1532381855716,2,-2,4,21,27,-16,-3,0
1532381855721,2,0,-2,-8,-10,26,-3,3
1532381855726,-4,-1,1,-9,-27,-18,-1,-1
1532381855731,2,2,-2,-14,-11,-20,-2,-1
1532381855736,-3,-2,0,5,2,22,-6,-3
1532381855741,0,-1,-1,2,23,20,-3,0
1532381855746,-1,-4,0,7,5,-13,4,1
1532381855751,-1,-3,-7,-9,8,6,5,-3
1532381855756,-1,-3,0,1,-13,2,6,1
1532381855761,-1,-3,3,7,-5,-4,-3,-1
1532381855766,1,-1,-3,-4,-6,-1,4,1
1532381855771,-1,-1,0,1,47,22,-1,0
1532381855776,-2,-3,-3,-7,-22,-19,4,-4
1532381855781,-2,-2,-5,0,15,-7,-5,1
1532381855786,0,4,2,6,-6,-10,-1,3
1532381855791,0,0,2,6,14,10,-3,-2
1532381855796,-2,-1,-4,-11,-20,-1,-6,-1
1532381855801,1,0,1,-1,9,14,11,-2
1532381855806,-2,0,2,7,0,-8,-2,-1
1532381855811,1,2,-1,-7,-13,-10,-8,0
1532381855816,0,-3,0,16,28,12,-1,-3
1532381855821,-2,2,1,-5,1,-4,2,0
1532381855826,2,1,-3,-13,-11,-14,-3,3
1532381855831,-2,-3,-3,-16,-65,-6,-7,-1
1532381855836,0,3,0,1,5,17,-4,1
1532381855841,1,-2,-6,-4,0,-40,-8,0
1532381855846,0,-4,3,12,14,33,8,2
1532381855851,-3,-4,-1,-9,8,12,5,0
1532381855856,0,2,-1,5,-5,-49,-11,-7
1532381855861,-1,5,2,3,-3,19,12,0
1532381855866,-1,4,0,-9,-15,-15,5,-3
1532381855871,-3,1,-3,-10,-28,5,-1,0
1532381855876,-3,0,0,11,10,1,-7,0
1532381855881,2,-3,0,3,4,2,-2,-2
1532381855886,-1,-3,-1,-2,-5,-13,-17,-5
1532381855891,-2,-3,-2,-6,13,6,-3,-2
1532381855896,-2,-3,1,-9,3,7,8,1
1532381855901,0,-2,-2,0,26,15,2,-2
1532381855906,-3,-1,0,-12,-13,-5,5,-1
1532381855911,1,2,4,20,29,-7,9,-2
1532381855916,-2,4,2,-9,-8,-18,-5,0
1532381855921,0,-2,-6,1,-2,61,10,0
1532381855926,-1,4,1,6,-21,-42,-8,-2
1532381855931,1,-2,-3,6,-34,-6,-4,-1
1532381855936,1,-4,3,-5,41,12,4,2
1532381855941,-1,-2,3,-1,-5,-20,-5,-1
1532381855946,0,-1,-6,2,20,32,7,1
1532381855951,-4,-2,1,8,21,-22,-13,0
1532381855956,1,-1,-5,-18,-59,-5,4,-4
1532381855961,-2,-2,-1,-7,-26,-23,-9,-1
1532381855966,1,2,-1,0,12,-13,2,1
1532381855971,-2,-3,7,8,7,8,-1,-2
1532381855976,1,4,-3,23,60,3,8,0
1532381855981,-3,-4,-6,-21,-32,-3,0,1
1532381855986,-2,-3,1,4,8,-10,-3,-1
1532381855991,-1,0,-7,-11,5,-7,-3,-1
1532381855996,-2,-3,1,1,11,3,6,1
1532381856001,-2,-4,-8,0,3,0,2,-6
1532381856006,-3,-4,-1,-4,-8,12,-2,-2
1532381856011,0,-2,-6,0,-7,-8,-8,-1
1532381856016,1,-1,1,6,-24,-13,-9,0
1532381856021,1,-2,1,-5,-38,23,2,2
1532381856026,-1,0,-4,-7,-24,-2,13,-2
1532381856031,0,-3,0,-3,-30,6,5,-2
1532381856036,-2,-1,-1,-1,1,14,9,-1
1532381856041,2,1,3,7,0,11,5,-1
1532381856046,-2,-1,2,11,28,-7,-11,-1
1532381856051,2,2,7,21,22,-12,-12,5
1532381856056,-7,-5,-19,-63,-52,17,1,-10
1532381856061,-4,-3,-3,-1,5,-4,1,-3
1532381856066,-6,-5,-4,-4,-18,-41,-11,-6
1532381856071,-4,-6,-2,1,-44,11,-4,1
1532381856076,-2,0,2,19,43,1,11,-2
1532381856081,1,4,-10,-8,31,-24,17,-3
1532381856086,-2,3,2,2,58,5,0,5
1532381856091,-5,0,2,-5,31,-42,-17,-11
1532381856096,-3,-6,3,6,46,10,-7,3
1532381856101,-1,-1,5,1,28,-5,4,-2
1532381856106,-1,2,-3,11,26,6,13,2
1532381856111,1,2,3,-1,31,-1,5,3
1532381856116,2,0,-1,-4,-9,4,-15,-1
1532381856121,1,-4,3,4,-12,12,-1,-5
1532381856126,-1,0,9,20,-40,-2,14,1
1532381856131,1,-7,-18,-42,-30,8,15,-1
1532381856136,4,4,-4,-19,-46,-21,-1,1
1532381856141,0,2,2,5,-22,3,5,1
1532381856146,0,-1,-6,-14,-30,34,-15,0
1532381856151,-9,-2,-1,22,16,-60,-11,-8
1532381856156,-10,-4,-3,-1,-35,-21,16,-4
1532381856161,1,7,10,-5,-32,-1,12,4
1532381856166,0,-7,4,3,-24,63,14,3
1532381856171,-2,2,3,5,-48,-16,-19,-2
1532381856176,-7,0,-2,7,22,45,-8,-2
1532381856181,-4,-2,12,43,-10,-14,-10,4
1532381856186,-2,1,-21,-53,-33,-17,-11,-3
1532381856191,1,3,-1,10,-12,5,7,1
1532381856196,3,-2,-4,-2,9,-7,-21,4
1532381856201,-1,1,6,15,29,48,2,-4
1532381856206,0,-3,-3,-16,-59,-60,-20,-4
1532381856211,0,-1,0,-5,16,24,-3,-2
1532381856216,4,1,1,15,-12,-17,32,7
1532381856221,6,-2,-18,-19,1,24,13,-2
1532381856226,1,-7,-4,-1,-7,-11,-7,4
1532381856231,2,4,0,2,-2,65,1,-7
1532381856236,5,1,6,8,8,-48,-31,0
1532381856241,-1,1,-1,-7,6,23,11,-1
1532381856246,-8,-10,-8,-8,-5,-6,-6,-4
1532381856251,-3,-4,-10,0,16,-8,7,0
1532381856256,3,1,7,6,-17,20,12,-2
1532381856261,-3,-1,-2,-12,27,-9,-8,2
1532381856266,0,0,1,4,15,-24,4,-2
1532381856271,-2,4,8,10,2,-48,-11,2
1532381856276,-2,-6,3,-5,17,28,-6,-2
1532381856281,-1,-6,-9,-17,-31,-22,-4,-4
1532381856286,-1,0,1,-2,-14,19,7,2
1532381856291,3,-1,1,8,38,15,8,1
1532381856296,3,3,7,14,21,3,0,-2
1532381856301,3,0,-2,-10,-43,-7,8,3
1532381856306,2,1,10,18,55,1,-3,-6
1532381856311,5,4,0,-8,-26,-16,14,0
1532381856316,0,0,-2,-3,-16,13,-2,-6
1532381856321,1,0,0,3,4,57,-14,4
1532381856326,2,-1,-3,-5,7,-48,1,-3
1532381856331,2,1,-1,-4,6,20,4,1
1532381856336,-2,-3,-3,-5,-13,-17,-9,-1
1532381856341,1,3,3,16,21,-9,4,-1
1532381856346,1,-1,5,27,14,13,2,-6
1532381856351,-3,-2,-3,-17,-31,-10,-3,-4
1532381856356,-1,-1,-5,1,26,-15,16,9
1532381856361,-2,-7,-6,-5,-8,-11,1,-1
1532381856366,3,3,2,12,2,-5,7,-4
1532381856371,-4,-3,-6,-12,9,12,-6,-3
1532381856376,-3,-1,-4,0,-5,2,-6,-2
1532381856381,-4,-3,-1,-2,4,-29,-1,1
1532381856386,-2,0,3,24,15,10,-1,0
1532381856391,0,-2,-7,-32,-30,5,-5,-1
1532381856396,-2,-1,-7,-13,-1,1,-1,0
1532381856401,-1,-2,7,8,-12,-30,-8,0
1532381856406,-4,0,-5,-4,12,-24,3,-1
1532381856411,-1,2,-7,3,-15,5,5,0
1532381856416,1,-1,-1,11,15,0,7,0
1532381856421,1,-1,1,10,-4,-10,3,-7
1532381856426,-4,-2,-5,-33,10,13,0,1
1532381856431,3,1,3,10,15,-9,11,3
1532381856436,0,3,1,-6,-18,-32,-3,-1
1532381856441,2,2,2,18,20,-15,-33,-5
1532381856446,3,3,2,6,-11,29,-19,2
1532381856451,-2,-2,-2,0,-9,14,-7,-1
1532381856456,-2,-1,-5,-31,-16,6,-5,-1
1532381856461,-5,-1,5,4,14,30,19,1
1532381856466,0,-1,6,8,-11,-19,20,1
1532381856471,-6,-2,2,2,22,6,12,-1
1532381856476,-6,-3,3,10,-16,-30,-9,-2
1532381856481,-6,-3,-3,-17,-14,-18,-2,-1
1532381856486,0,1,0,-5,1,53,-8,3
1532381856491,-2,-4,4,22,31,-12,-4,-1
1532381856496,2,-2,-2,2,12,7,4,-4
1532381856501,-1,-6,-8,-25,-31,-52,-12,-4
1532381856506,1,2,-3,-11,-33,21,0,3
1532381856511,2,1,1,-2,-1,6,9,0
1532381856516,0,3,9,23,-1,11,16,-4
1532381856521,2,0,-2,10,76,33,21,-4
1532381856526,-3,-5,-19,-71,-99,-107,-4,-3
1532381856531,1,1,-4,-11,76,65,-15,7
1532381856536,1,3,-2,2,22,0,-5,-1
1532381856541,1,2,4,10,15,-8,3,-2
1532381856546,3,3,7,32,26,38,4,-6
1532381856551,-2,-1,-1,-8,-28,-58,8,1
1532381856556,3,1,1,-9,-8,55,2,1
1532381856561,3,2,-4,1,-16,9,2,0
1532381856566,2,0,2,7,30,17,9,0
1532381856571,3,-1,2,7,-24,-22,-3,-1
1532381856576,-2,-3,-5,4,46,-1,-5,0
1532381856581,-1,2,-5,-19,-56,-10,-6,0
1532381856586,-7,-8,-3,-1,6,2,-8,-3
1532381856591,-1,-1,-1,7,8,-4,-2,0
1532381856596,-6,-4,1,-1,-16,-16,-5,-3
1532381856601,-6,-6,-5,28,14,30,2,2
1532381856606,-10,-3,-4,-36,-12,-11,6,1
1532381856611,-8,-3,-7,-7,-14,12,6,-4
1532381856616,-3,-1,0,-5,-2,-34,-2,2
1532381856621,-2,0,3,-5,-12,2,-6,0
1532381856626,-1,-2,2,18,11,0,-6,-5
1532381856631,2,1,0,2,13,17,-7,-2
1532381856636,1,0,-4,-11,-19,-39,-12,1
1532381856641,1,1,-2,-13,-24,8,-8,-1
1532381856646,3,-1,0,2,5,-1,-10,0
1532381856651,2,-3,-1,1,16,16,3,-1
1532381856656,3,0,-2,2,14,-9,3,-2
1532381856661,4,3,7,9,-51,-32,11,1
1532381856666,2,-1,-3,-2,19,71,2,4
1532381856671,2,4,7,8,10,-10,13,1
1532381856676,-1,-6,-9,-17,-26,-8,-6,-15
1532381856681,0,-3,0,1,27,18,23,7
1532381856686,3,3,5,14,-5,-10,11,4
1532381856691,0,-4,-6,-9,-27,-22,-3,-2
1532381856696,-4,-2,2,5,11,9,-6,0
1532381856701,-5,0,1,-9,3,9,-12,-2
1532381856706,-3,-2,0,5,9,-6,-7,0
1532381856711,-1,-2,3,15,38,-14,-7,-2
1532381856716,1,-2,-3,-16,-38,17,-2,2
1532381856721,2,-2,-2,10,38,-6,1,-2
1532381856726,4,0,0,-4,2,11,7,1
1532381856731,4,2,1,9,-22,-24,-1,-5
1532381856736,-2,-3,0,8,7,16,-5,-2
1532381856741,-2,-2,-1,-4,-8,-10,-2,3
1532381856746,-5,-2,-1,-15,24,-1,-5,-6
1532381856751,-1,-2,0,1,2,8,-1,3
1532381856756,0,-4,-3,-5,-6,7,22,5
1532381856761,1,-4,-6,-3,12,-5,-19,-11
1532381856766,4,4,5,17,-8,-40,13,2
1532381856771,0,1,-4,-23,-47,26,-6,-4
1532381856776,6,7,3,36,69,-11,9,14
1532381856781,-2,0,-9,-25,0,-3,-5,1
1532381856786,-1,-1,-1,5,-2,-16,-13,-5
1532381856791,-3,-2,-2,-2,20,9,3,0
1532381856796,-3,0,0,1,-3,3,-9,-9
1532381856801,-1,-1,2,-1,-10,-7,-5,-3
1532381856806,-3,-2,-3,3,3,31,4,1
1532381856811,-1,-5,1,2,-2,-13,5,-3
1532381856816,0,-4,0,-9,-15,13,-2,-4
1532381856821,2,2,5,-1,-3,-15,-2,-1
1532381856826,-2,-24,-5,-7,-18,3,-3,-6
1532381856831,0,-13,-1,-8,-19,-35,-11,-1
1532381856836,-1,-2,-2,-4,-12,9,3,-6
1532381856841,4,8,-1,0,10,11,-1,5
1532381856846,5,15,1,9,13,1,-7,7
1532381856851,3,10,-3,-3,-4,1,-4,-2
1532381856856,1,4,2,-3,-6,-10,-11,-1
1532381856861,-4,0,-5,-6,-16,-7,-8,-7
1532381856866,8,2,-3,-3,-4,-4,-2,1
1532381856871,5,6,2,0,7,0,1,-2
1532381856876,7,7,-2,-4,0,2,10,-1
1532381856881,0,1,0,-1,-18,0,24,-2
1532381856886,4,-2,-3,-3,-3,-7,5,1
1532381856891,5,1,1,-1,3,3,13,0
1532381856896,3,-5,-3,-2,5,8,3,2
1532381856901,10,0,1,0,-9,-4,5,3
1532381856906,7,1,4,2,5,5,3,-5
1532381856911,1,-4,-3,0,0,-4,-4,3
1532381856916,5,1,0,-4,-9,1,-20,1
1532381856921,0,-4,-4,-4,4,1,-11,-1
1532381856926,-4,0,0,-1,-9,-8,-10,-2
1532381856931,-3,-1,0,3,8,11,3,-2
1532381856936,-10,-1,2,0,-6,-4,1,-3
1532381856941,-7,-5,-3,0,3,3,21,2
1532381856946,-10,-8,-1,-5,-4,-10,-1,-3
1532381856951,-6,-8,-1,4,4,5,-11,3
1532381856956,-9,-4,-2,-6,-5,-9,-5,-6
1532381856961,-1,0,1,-1,-8,3,-5,4
1532381856966,-5,2,-3,6,16,-2,0,-8
1532381856971,-6,-2,0,-12,-11,-1,-9,2
1532381856976,-9,-1,-4,-7,-31,-24,-4,-5
1532381856981,-6,7,2,20,29,59,-2,-6
1532381856986,-2,-6,-12,-38,-32,-35,-15,-4
1532381856991,-2,-2,1,8,25,29,3,8
1532381856996,9,0,1,4,18,10,-13,12
1532381857001,-7,-9,-1,0,-3,-2,-4,-8
1532381857006,3,-9,0,9,3,18,10,0
1532381857011,4,-3,-4,-6,-16,-5,-21,-10
1532381857016,-11,-11,-7,-15,7,-2,-3,8
1532381857021,5,5,6,9,13,12,20,6
1532381857026,-13,22,3,8,-3,-17,23,6
1532381857031,-11,9,0,-6,6,11,10,0
1532381857036,-11,11,1,9,-8,-11,13,-4
1532381857041,-2,10,-7,-11,-8,-25,-25,-8
1532381857046,-14,5,-3,9,1,-14,6,3
1532381857051,-4,3,3,8,21,10,20,-3
1532381857056,0,7,3,15,9,7,22,-5
1532381857061,-7,-7,-9,-26,-60,-1,-8,2
1532381857066,0,1,2,-14,18,18,-14,-2
1532381857071,-1,7,2,10,13,-22,-10,0
1532381857076,-1,-5,-4,6,-1,10,3,-2
1532381857081,0,-7,1,11,15,-48,-16,-6
1532381857086,2,-5,-7,-8,-22,25,1,-1
1532381857091,-1,-3,-1,-2,-15,2,-4,-7
1532381857096,5,-3,0,-4,9,-10,13,4
1532381857101,0,-4,1,-1,19,18,7,1
1532381857106,-1,-6,0,7,-12,-31,0,-4
1532381857111,-1,0,-4,1,4,11,8,0
1532381857116,2,1,3,3,3,6,-18,-8
1532381857121,-6,-3,-3,-6,-17,-5,11,0
1532381857126,6,22,5,2,33,10,-3,-3
1532381857131,-1,-12,3,0,-28,-20,-7,4
1532381857136,-6,-3,-8,-10,-8,8,-11,0
1532381857141,3,-1,6,2,15,-9,-4,1
1532381857146,3,0,7,1,-2,6,4,8
1532381857151,3,-13,3,-7,-11,-18,2,-7
1532381857156,-4,-2,-9,-3,-3,2,0,-2
1532381857161,-1,4,4,-3,-3,-1,-13,-2
1532381857166,-1,-9,4,6,-4,6,0,-4
1532381857171,-3,7,-4,0,1,-20,-2,2
1532381857176,2,2,5,1,-1,30,23,2
1532381857181,0,-5,-4,-2,7,-13,5,-1
1532381857186,-1,-3,-1,-1,-4,34,13,1
1532381857191,-2,1,-4,-3,-6,-11,-2,-3
1532381857196,1,0,1,-1,-7,-9,-4,0
1532381857201,-2,-2,-6,-2,1,2,-1,-1
1532381857206,-3,-4,3,3,7,4,-3,0
1532381857211,-2,0,-2,0,-8,-14,2,0
1532381857216,-1,-4,0,-3,-5,-1,2,-3
1532381857221,-4,-1,-3,-3,5,5,8,0
1532381857226,0,-1,1,-1,3,-4,-10,-2
1532381857231,-1,0,-2,-1,5,14,-6,-1
1532381857236,0,1,-5,-7,-8,-32,-19,-4
1532381857241,2,0,-2,4,10,35,-7,12
1532381857246,-2,-6,0,-6,-19,-22,-8,-11
1532381857251,-2,1,1,4,-1,0,-11,-1
1532381857256,3,0,-1,2,9,32,-2,-2
1532381857261,-3,-3,-6,-7,-9,-19,9,-6
1532381857266,0,-3,0,2,3,-8,-4,3
1532381857271,2,-1,-4,-3,-9,7,-4,-6
1532381857276,-5,-4,1,2,6,-8,13,-2
1532381857281,1,-1,-1,1,-5,-9,7,-2
1532381857286,0,-2,3,15,5,5,-10,7
1532381857291,-1,-2,0,-21,-2,-8,8,1
1532381857296,0,-5,-4,-8,14,26,-4,1
1532381857301,2,1,1,1,-12,-29,9,2
1532381857306,0,-4,-4,-4,-18,-1,-8,-4
1532381857311,4,5,6,45,39,-6,-3,4
1532381857316,-3,3,0,-36,-45,4,7,1
1532381857321,-3,-8,-10,-14,1,-18,-7,-7
1532381857326,3,7,8,13,-30,2,20,1
1532381857331,-2,0,-4,-5,30,-11,-6,-4
1532381857336,4,0,3,28,34,26,8,2
1532381857341,0,1,1,-12,-22,12,9,-8
1532381857346,0,1,-3,0,4,-24,3,3
1532381857351,-3,-4,-6,-14,-1,-7,-10,-2
1532381857356,-4,0,-2,-19,-37,5,-2,0
1532381857361,7,6,5,7,12,15,3,2
1532381857366,-12,-9,-2,-1,17,5,1,-3
1532381857371,1,1,-2,-7,-15,-13,13,1
1532381857376,3,2,3,10,17,-6,-4,-3
1532381857381,-2,5,3,13,8,5,-7,0
1532381857386,-1,-2,-3,-11,12,-5,-3,-1
1532381857391,-1,-1,-6,-10,-47,24,11,0
1532381857396,-1,-1,-2,0,3,-12,-3,0
1532381857401,-1,-3,0,9,15,15,0,2
1532381857406,0,-1,-2,-11,13,-1,1,7
1532381857411,-3,-4,0,2,2,6,3,-3
1532381857416,2,3,8,6,9,-6,-8,1
1532381857421,-1,-6,-11,-6,-9,-9,-2,-4
1532381857426,0,-4,22,3,8,1,6,-6
1532381857431,4,13,-18,5,3,11,0,2
1532381857436,-3,1,44,-1,-9,-19,0,-4
1532381857441,-2,4,-32,-1,7,3,-10,1
1532381857446,-1,-1,-30,-6,-9,-3,-4,-1
1532381857451,-3,-19,2,-3,-1,3,2,-1
1532381857456,1,6,4,8,2,-14,0,1
1532381857461,-2,-4,16,-2,-3,-1,-7,-2
1532381857466,2,-2,10,-4,1,8,2,-1
1532381857471,-1,-2,-9,-3,-5,-9,4,-1
1532381857476,0,3,-8,3,-3,-14,-4,0
1532381857481,-2,-5,11,4,2,-4,2,0
1532381857486,2,2,-5,5,13,-5,0,-4
1532381857491,-2,-1,6,-13,-33,-40,-17,2
1532381857496,1,-8,-15,-2,2,53,17,5
1532381857501,-2,0,2,-2,1,10,5,-4
1532381857506,-3,-6,-6,-2,-5,-32,-5,-9
1532381857511,1,4,5,7,15,3,16,8
1532381857516,1,0,-5,1,-2,-12,-10,0
1532381857521,-3,-3,-2,-1,-4,10,-14,0
1532381857526,1,1,1,1,-2,5,1,1
1532381857531,-4,-3,2,1,2,9,-22,-10
1532381857536,2,0,-9,-3,-5,-3,-1,3
1532381857541,-5,-3,5,4,13,11,6,1
1532381857546,-1,-3,0,-1,-4,-5,12,-8
1532381857551,0,3,4,0,4,17,27,9
1532381857556,-1,-5,-9,-1,-5,-6,27,-8
1532381857561,2,2,1,-1,-3,-23,-17,-3
1532381857566,5,7,10,0,3,2,4,10
1532381857571,-2,-2,1,4,-29,13,4,-6
1532381857576,0,1,-1,20,63,-19,-10,-3
1532381857581,1,-6,-5,-19,-50,-31,6,-2
1532381857586,-7,0,-9,-14,15,62,-12,7
1532381857591,-3,-7,-3,1,25,18,-3,-2
1532381857596,-3,-3,-1,-4,-11,-2,-5,0
1532381857601,7,7,2,20,22,7,0,-1
1532381857606,-2,-5,-4,4,-6,-31,-22,0
1532381857611,3,2,0,-6,-8,15,18,3
1532381857616,-4,-3,-6,3,-11,-15,-13,-12
1532381857621,2,1,1,-2,9,0,2,5
1532381857626,1,1,-2,0,-8,3,-8,2
1532381857631,-5,-5,0,-1,6,-4,-10,-6
1532381857636,2,-1,-5,-11,-17,-19,1,1
1532381857641,-3,-4,-2,-2,-1,24,3,-3
1532381857646,-2,1,-1,-5,-6,2,13,2
1532381857651,0,-1,-2,3,5,-17,-8,-3
1532381857656,-2,1,0,-5,-12,5,-12,3
1532381857661,2,2,8,41,33,9,-2,-2
1532381857666,-6,-6,-16,-52,-41,0,5,-7
1532381857671,0,6,1,-13,-14,-47,-6,1
1532381857676,-3,-1,-5,-11,-12,11,12,-2
1532381857681,-2,-3,-1,5,13,-2,10,0
1532381857686,4,-1,5,34,41,24,-8,1
1532381857691,6,4,5,38,49,-22,6,-3
1532381857696,-6,-3,-7,-66,-84,13,-19,-2
1532381857701,-3,-3,-6,-12,11,-11,8,0
1532381857706,0,-6,-2,-4,-35,-12,14,-1
1532381857711,0,-1,3,3,30,39,6,4
1532381857716,0,-3,2,31,15,-12,-9,-3
1532381857721,0,0,1,5,-8,6,-7,2
1532381857726,-4,-2,-3,-17,-25,-21,-13,-8
1532381857731,3,-1,4,1,-12,1,13,7
1532381857736,-1,17,9,11,29,-11,1,-4
1532381857741,-4,-21,-16,-16,-7,5,0,3
1532381857746,1,7,10,18,30,0,6,0
1532381857751,-3,-4,4,-6,-12,-1,-10,-9
1532381857756,3,-1,8,4,-2,-1,-6,1
1532381857761,-5,-8,-18,-11,-10,-12,-11,2
1532381857766,2,10,32,8,0,-11,-2,-4
1532381857771,0,20,-11,-10,-7,7,-5,-6
1532381857776,-3,-26,-30,-3,12,-7,10,7
1532381857781,4,12,11,2,11,5,18,10
1532381857786,0,-10,-10,1,10,1,-5,0
1532381857791,1,9,61,2,-6,6,-4,-3
1532381857796,-1,-12,-29,7,10,-1,1,-2
1532381857801,-2,-14,-24,-10,-24,-10,-7,-3
1532381857806,-1,-2,-12,-2,9,8,-12,2
1532381857811,-1,1,-2,-4,5,6,-4,-3
1532381857816,-6,-13,-28,5,-10,-11,-11,-6
1532381857821,-3,21,62,-2,-10,-15,-13,-1
1532381857826,3,-11,-49,4,-2,1,-1,-6
1532381857831,-3,-21,77,0,-10,7,12,1
1532381857836,-5,-31,-71,-10,-10,-18,13,-5
1532381857841,3,12,12,5,-9,11,10,-1
1532381857846,-3,9,20,-11,-1,4,7,-2
1532381857851,-2,-1,-11,-3,-3,-2,1,-3
1532381857856,3,8,25,13,5,-28,0,0
1532381857861,1,-2,-3,-1,3,7,-2,6
1532381857866,-1,-9,1,5,12,-19,-15,4
1532381857871,0,-12,-41,-3,4,29,-11,4
1532381857876,1,14,24,-1,16,-13,3,-2
1532381857881,0,2,-16,-7,-12,-12,7,-5
1532381857886,-4,-4,7,-4,-17,-1,0,-3
1532381857891,0,3,-23,17,22,-1,0,-1
1532381857896,2,9,13,-18,-37,-1,0,0
1532381857901,-1,-3,7,10,42,6,-4,-4
1532381857906,3,-3,-9,7,-11,27,1,-11
1532381857911,-7,-5,-23,-38,-6,-73,1,7
1532381857916,1,5,22,14,12,17,3,6
1532381857921,-2,-5,-3,-12,-23,-3,-5,-13
1532381857926,-1,-3,-7,20,49,17,2,-1
1532381857931,2,4,-12,26,17,-3,3,-8
1532381857936,-5,8,16,-18,-24,23,-7,3
1532381857941,0,1,-8,-16,26,23,3,4
1532381857946,-9,-6,0,-11,-36,-25,-4,-2
1532381857951,0,-2,-4,0,18,15,3,0
1532381857956,1,2,8,20,37,4,4,-2
1532381857961,2,0,2,8,-46,10,-28,-6
1532381857966,-3,3,-1,-32,-74,-43,5,-6
1532381857971,-7,-10,-18,-29,-7,-12,-7,2
1532381857976,0,1,6,8,10,6,-1,-1
1532381857981,0,-1,1,41,87,14,7,0
1532381857986,14,9,13,-15,-39,-9,5,8
1532381857991,-11,-1,-6,26,51,22,-11,-7
1532381857996,-4,1,-2,-52,-111,-1,-15,4
1532381858001,-7,-6,-10,-6,40,-14,2,-1
1532381858006,3,3,6,42,69,17,15,4
1532381858011,8,2,0,-13,-23,-1,22,1
1532381858016,1,-1,4,1,18,-7,-1,-2
1532381858021,-6,-3,-3,-1,-44,-12,-10,-2
1532381858026,-1,0,0,-7,7,-22,-6,-2
1532381858031,0,-1,-5,5,-43,9,-8,-6
1532381858036,-1,-1,3,19,49,17,0,-7
1532381858041,0,1,-5,-25,-37,-11,8,6
1532381858046,-4,1,0,10,13,16,-8,1
1532381858051,1,0,0,-4,-2,7,-3,-2
1532381858056,2,2,3,5,7,1,11,-3
1532381858061,0,5,18,-5,-13,-17,-1,-4
1532381858066,-4,3,-2,-11,-3,1,-8,-3
1532381858071,5,13,19,6,-1,8,4,2
1532381858076,-2,5,-52,3,21,-2,-4,3
1532381858081,0,-12,-21,-9,-14,-6,-9,0
1532381858086,-5,-11,1,1,8,6,3,0
1532381858091,0,5,3,-10,-25,-12,-13,2
1532381858096,2,14,39,9,18,0,6,0
1532381858101,7,12,24,1,14,4,2,-1
1532381858106,-4,-17,-38,-3,1,13,9,6
1532381858111,-10,-10,-1,-1,-12,-11,-7,-23
1532381858116,3,-8,-7,-1,-5,-1,4,1
1532381858121,-1,-1,0,4,7,-6,5,-3
1532381858126,1,4,15,-6,2,10,-2,3
1532381858131,2,-2,-6,3,1,6,5,9
1532381858136,-4,-9,-3,2,-1,-12,-7,-2
1532381858141,0,-3,-10,-7,-14,-6,-12,-5
1532381858146,-1,3,12,1,6,-6,13,3
1532381858151,-1,-5,-16,-7,-12,2,-12,-2
1532381858156,-1,0,9,5,18,27,4,0
1532381858161,-3,-2,-2,-6,-6,-20,5,2
1532381858166,-2,0,-2,0,11,22,-2,-5
1532381858171,2,-3,-3,-1,5,-11,3,0
1532381858176,1,-2,5,-4,-13,-9,-15,-3
1532381858181,-2,-2,0,5,-12,20,1,0
1532381858186,-2,1,-5,-13,-2,-32,-6,-6
1532381858191,1,-1,-2,14,11,27,-4,1
1532381858196,2,2,6,-1,-9,-14,7,-1
1532381858201,-3,-5,-8,11,18,-8,-22,3
1532381858206,8,8,9,27,52,18,16,-1
1532381858211,-3,-2,-6,-59,-88,-22,-11,8
1532381858216,-3,-5,1,26,61,-7,-17,-9
1532381858221,3,-5,-7,-41,-1,4,23,-8
1532381858226,-3,4,1,-13,-11,-20,2,7
1532381858231,2,-2,0,25,21,3,11,-6
1532381858236,-2,-3,-2,-25,-31,-17,-12,2
1532381858241,4,4,1,24,23,27,23,2
1532381858246,-1,-5,2,-9,-51,3,-7,-6
1532381858251,-2,-2,-5,-15,-1,-10,-3,2
1532381858256,0,-1,6,21,20,-18,10,-2
1532381858261,-1,-2,-2,-5,-20,3,-9,-4
1532381858266,0,-2,1,5,7,8,6,0
1532381858271,-1,1,-1,9,-20,1,-1,4
1532381858276,-1,-2,-5,-15,17,25,7,-2
1532381858281,-3,0,2,6,1,-9,6,-7
1532381858286,-1,-1,-5,-9,-33,0,-14,-5
1532381858291,3,7,4,4,26,-3,6,-1
1532381858296,0,-4,6,4,-4,18,-4,7
1532381858301,-1,5,-11,-1,3,7,0,5
1532381858306,-2,-2,-2,2,-9,-19,-7,-6
1532381858311,-2,-7,0,20,34,21,8,-4
1532381858316,1,-4,12,-31,-33,-17,21,-2
1532381858321,-2,7,-10,4,5,2,-1,2
1532381858326,0,4,-3,10,9,32,-3,0
1532381858331,1,2,1,6,30,-13,-8,0
1532381858336,-2,0,-2,-18,-41,3,-13,2
1532381858341,-1,-6,6,-2,0,-9,-4,-2
1532381858346,-1,-3,0,-3,5,-16,-6,1
1532381858351,1,-2,-2,5,12,6,4,3
1532381858356,-1,4,1,16,-13,-19,1,-4
1532381858361,1,2,4,-11,-14,-3,-4,0
1532381858366,4,1,-8,-1,-5,9,2,0
1532381858371,-7,-2,5,-4,-10,5,-1,-3
1532381858376,0,-13,-21,2,10,8,3,-2
1532381858381,-1,-2,0,-3,-4,6,4,1
1532381858386,-1,6,4,10,15,-14,0,-1
1532381858391,0,-4,0,-1,17,-3,-2,-3
1532381858396,-3,3,3,3,-2,27,-2,-1
1532381858401,-3,-1,-3,3,-2,-43,3,0
1532381858406,0,-1,3,-7,-5,-11,6,-2
1532381858411,1,3,1,-2,-12,15,-4,-4
1532381858416,-1,-1,-6,-4,6,11,-6,1
1532381858421,0,-7,0,0,-8,2,-2,-2
1532381858426,0,-2,3,1,1,-7,-3,1
1532381858431,-1,-5,-6,-4,-13,-6,8,1
1532381858436,1,2,-1,3,4,2,7,-1
1532381858441,0,-1,3,-3,-20,12,3,0
1532381858446,-1,-2,0,2,-6,-2,-5,-1
1532381858451,0,-1,-7,-2,-26,3,-10,-2
1532381858456,0,-1,6,14,22,-17,-2,-1
1532381858461,-2,-2,-2,-9,8,2,-7,0
1532381858466,-3,0,1,-1,3,10,-9,0
1532381858471,-1,-2,2,4,0,-7,-13,2
1532381858476,2,2,-2,-7,8,8,5,-2
1532381858481,-4,-2,-1,-12,-33,-25,7,-2
1532381858486,-3,-3,-3,2,17,-12,13,-1
1532381858491,0,-2,-2,-3,4,30,5,-1
1532381858496,-1,-3,-1,10,13,-18,2,-1
1532381858501,-1,1,3,-6,2,29,1,1
1532381858506,2,0,1,-5,-14,-4,4,0
1532381858511,-2,-1,-2,-6,13,-12,4,-4
1532381858516,-1,0,1,5,-4,4,-7,1
1532381858521,1,-2,-2,8,16,-4,-12,-1
1532381858526,-1,-2,-1,-1,10,26,2,1
1532381858531,0,3,1,-2,-1,-15,1,-3
1532381858536,2,4,0,1,2,-12,-11,-2
1532381858541,-7,-3,-2,6,3,2,-12,-1
1532381858546,-4,-3,-6,-10,-11,1,-10,0
1532381858551,1,4,-1,0,3,5,6,0
1532381858556,1,2,0,-7,-16,-12,11,-1
1532381858561,3,3,2,6,-3,-4,10,2
1532381858566,-2,-2,1,4,2,-5,1,-3
1532381858571,-1,0,-2,-8,-11,2,4,1
1532381858576,-3,0,-3,-6,-1,10,-8,-2
1532381858581,0,-1,-3,6,12,-12,-4,-2
1532381858586,-1,-3,-1,1,-8,29,-8,-2
1532381858591,-2,2,2,-2,0,-27,0,1
1532381858596,-1,-2,3,17,-16,5,8,-4
1532381858601,-3,-7,-13,-36,-4,-2,-9,-2
1532381858606,1,-1,0,-2,-1,-23,10,0
1532381858611,1,-1,1,4,-1,11,-3,-3
1532381858616,-7,-6,-5,-4,-7,-10,-17,0
1532381858621,4,2,5,10,14,14,2,1
1532381858626,-2,-5,-3,0,-5,-14,-8,-4
1532381858631,-1,-1,-1,-4,-17,-7,8,-4
1532381858636,0,0,-3,-10,0,4,15,-1
1532381858641,1,4,5,11,1,9,12,-1
1532381858646,1,0,-4,-5,7,0,-8,-2
1532381858651,-3,-2,-2,1,-2,15,-1,-3
1532381858656,-3,-2,-3,-3,2,-46,4,6
1532381858661,-2,-4,-1,2,1,25,3,0
1532381858666,1,2,4,2,0,14,-1,0
1532381858671,-2,-4,-3,-1,-2,-46,11,-5
1532381858676,0,1,2,-9,-17,15,-8,5
1532381858681,1,0,-1,0,3,16,2,1
1532381858686,-2,-1,-2,1,0,1,-2,3
1532381858691,1,0,1,9,14,14,-5,-2
1532381858696,-1,-2,-3,-9,0,-2,-17,-7
1532381858701,-1,-1,-1,5,-4,-27,1,0
1532381858706,-3,-1,-1,-3,3,1,-8,-3
1532381858711,0,0,0,0,5,-3,7,3
1532381858716,2,1,1,12,19,10,0,-1
1532381858721,0,-1,2,7,-9,23,-15,0
1532381858726,0,3,-1,-2,23,-4,1,-1
1532381858731,-6,-5,-3,-7,-12,2,-10,-3
1532381858736,-1,0,0,-4,-7,-2,12,-7
1532381858741,-2,0,-1,5,-3,-16,2,-4
1532381858746,2,1,2,6,7,5,9,4
1532381858751,2,-1,1,-1,-20,-6,1,4
1532381858756,-2,-4,-4,-13,-22,1,5,-2
1532381858761,0,0,-4,-3,4,0,6,2
1532381858766,-2,0,-1,-2,-8,-2,8,-2
1532381858771,-1,0,1,2,13,34,-7,-3
1532381858776,0,0,2,5,1,-30,3,0
1532381858781,1,-2,-1,-6,-8,-22,-7,-2
1532381858786,-2,-5,-2,-3,-5,1,-4,-1
1532381858791,0,-2,-5,-4,0,0,-12,-2
1532381858796,1,-1,1,1,5,13,3,5
1532381858801,0,-3,0,-3,-2,-3,5,-5
1532381858806,0,1,-1,5,3,-3,17,0
1532381858811,0,0,0,-2,-10,-19,-5,-4
1532381858816,-6,-3,-3,-3,-1,8,-14,-2
1532381858821,-1,-2,0,-1,2,-6,-18,1
1532381858826,2,3,-1,0,-4,2,-15,-1
1532381858831,-3,-8,-3,-3,-6,-8,-10,1
1532381858836,-2,-1,-2,1,-1,7,4,-2
1532381858841,1,2,0,3,8,5,1,4
1532381858846,-2,-2,-2,-12,-21,-8,7,-7
1532381858851,-1,3,-1,-1,0,-3,6,-4
1532381858856,0,1,-2,-1,7,1,10,0
1532381858861,-2,-1,0,1,-8,1,5,-2
1532381858866,0,-1,-1,-6,4,8,-6,-1
1532381858871,-1,1,-1,-3,1,-15,-4,1
1532381858876,-1,-1,3,5,9,20,-2,-2
1532381858881,0,-1,-1,-2,-6,6,-6,2
1532381858886,1,0,0,2,-3,7,-1,-2
1532381858891,-2,0,-1,-1,-8,-17,-2,-4
1532381858896,1,-1,0,-2,6,-5,-1,2
1532381858901,0,1,0,-2,-9,-6,6,0
1532381858906,-1,-1,0,0,0,-24,-2,-1
1532381858911,-1,-2,-1,-2,2,20,-1,-3
1532381858916,-2,3,1,5,6,-18,6,0
1532381858921,-1,-2,-2,-7,-12,13,4,-2
1532381858926,-2,-3,-4,-3,-5,-37,-3,-4
1532381858931,-1,-1,-1,0,4,23,3,-1
1532381858936,0,-2,-2,-1,-5,-14,5,-2
1532381858941,0,2,6,4,8,6,3,-2
1532381858946,3,-1,-1,6,-6,7,8,7
1532381858951,-2,-3,-4,-8,0,1,-8,-4
1532381858956,-1,1,0,-8,-1,4,-11,1
1532381858961,-1,1,-2,-7,-13,-9,-15,-3
1532381858966,0,0,1,4,7,11,-12,-4
1532381858971,0,3,4,5,10,3,2,4
1532381858976,-1,2,4,8,4,6,-1,-3
1532381858981,-2,-11,-9,-5,-5,-8,5,2
1532381858986,0,0,1,3,0,-1,8,0
1532381858991,-2,-1,-1,-2,-6,3,7,-8
1532381858996,-1,2,2,-1,-7,-6,-1,-5
1532381859001,-2,-2,-8,-2,3,-1,-5,1
1532381859006,0,0,0,-5,7,41,-7,1
1532381859011,1,-1,-3,4,-6,-20,-2,2
1532381859016,-2,-7,-3,-2,-9,-5,-6,-3
1532381859021,-2,1,-3,0,11,-2,1,1
1532381859026,-1,0,-2,3,1,0,7,-8
1532381859031,-1,0,0,-7,-6,2,0,0
1532381859036,4,2,4,23,21,16,12,11
1532381859041,-2,1,-1,-21,-18,-5,-1,-6
1532381859046,-1,-2,-4,1,11,23,-2,6
1532381859051,-2,-3,0,0,-5,-14,-5,-2
1532381859056,-2,-2,-6,-1,1,-7,-9,-2
1532381859061,1,-2,1,2,-4,6,-2,0
1532381859066,1,1,2,-1,0,1,6,-2
1532381859071,0,3,9,1,4,-5,-9,-4
1532381859076,0,-7,-10,-12,-3,5,-4,1
1532381859081,-2,0,30,5,2,-9,-10,-2
1532381859086,-2,-20,-64,-11,-2,-9,3,-3
1532381859091,-1,-2,1,1,-4,-5,9,2
1532381859096,-2,5,3,-5,-6,0,8,-1
1532381859101,1,1,5,0,-3,2,9,3
1532381859106,-3,4,17,3,8,-1,1,-5
1532381859111,0,0,-1,-2,-2,-4,7,0
1532381859116,0,-7,-5,0,1,0,15,1
1532381859121,-1,1,-2,4,-5,-11,6,-3
1532381859126,0,5,9,-10,-5,13,-6,0
1532381859131,1,0,-9,1,-7,-42,-2,-2
1532381859136,-3,-1,6,2,13,-15,-24,-5
1532381859141,0,1,-11,-15,-29,-31,-8,2
1532381859146,0,5,5,5,10,26,-19,0
1532381859151,-2,-3,-1,-4,11,32,13,-4
1532381859156,0,-2,0,3,-7,-32,7,-2
1532381859161,-2,-2,-5,5,11,-8,14,1
1532381859166,-1,-1,6,-1,-2,-7,0,-1
1532381859171,1,-5,-4,-8,2,-1,-6,3
1532381859176,-2,2,-4,-11,-9,30,-26,-2
1532381859181,0,1,-5,2,8,36,-21,-2
1532381859186,0,1,14,11,0,-42,5,-2
1532381859191,1,0,-4,3,-3,10,7,0
1532381859196,-5,-5,-5,-5,0,-3,13,-4
1532381859201,-1,0,0,3,-1,9,-2,-1
1532381859206,0,2,4,6,-2,1,6,-3
1532381859211,0,-1,-3,-4,-13,-6,-6,3
1532381859216,2,-1,-1,-2,13,-2,-1,-5
1532381859221,-2,-2,-2,4,-2,-9,-1,-1
1532381859226,-2,-3,-1,-4,19,-14,-1,1
1532381859231,-1,1,-1,-5,-20,22,-20,-5
1532381859236,-3,-2,0,-4,-4,4,-8,7
1532381859241,-1,-1,1,8,10,3,-4,-1
1532381859246,1,0,-1,-2,-8,-6,2,-4
1532381859251,0,-2,0,7,2,-6,1,-2
1532381859256,-1,0,-2,-5,-5,32,17,0
1532381859261,1,1,-2,-3,-10,-29,12,1
1532381859266,-5,-2,-3,-7,-14,-2,-9,-5
1532381859271,0,-1,0,-2,7,-12,6,-1
1532381859276,-1,1,0,4,7,-2,3,0
1532381859281,-1,-1,0,4,4,-38,30,1
1532381859286,1,-1,-3,-12,-12,35,-8,-3
1532381859291,-3,2,0,5,11,9,1,1
1532381859296,-2,-2,-3,1,1,-9,-6,-5
1532381859301,0,-1,-4,-6,-19,-21,-13,-6
1532381859306,1,1,1,6,11,-26,14,3
1532381859311,-1,1,-3,-10,-9,-15,-4,-2
1532381859316,0,-4,-4,-1,-2,20,0,-1
1532381859321,-1,-1,-1,-1,3,27,-1,0
1532381859326,0,-2,3,6,6,-4,-7,-1
1532381859331,-2,-2,-2,0,-12,47,5,-3
1532381859336,0,1,2,1,-3,-11,14,1
1532381859341,1,-1,-2,3,4,26,-2,1
1532381859346,0,0,4,2,-3,-31,1,4
1532381859351,0,-3,1,0,8,-8,-17,-2
1532381859356,-1,-1,-4,-5,-2,-24,0,-5
1532381859361,-1,-2,-1,0,9,-5,10,3
1532381859366,-2,1,-1,0,-7,26,7,-5
1532381859371,2,1,2,5,6,-8,5,6
1532381859376,0,-4,-5,-6,-16,-6,12,5
1532381859381,-2,-4,-4,-4,7,8,-18,3
1532381859386,1,-1,0,-5,-3,-3,-21,-1
1532381859391,-2,0,0,2,1,4,-2,-7
1532381859396,-2,0,2,3,0,13,-11,-3
1532381859401,1,0,-3,6,16,40,-5,1
1532381859406,-5,-4,-4,-11,-25,-31,-18,-3
1532381859411,-1,-2,-3,-5,-2,10,14,-2
1532381859416,-1,0,4,4,0,-2,3,-2
1532381859421,-1,2,2,3,0,-7,-27,-2
1532381859426,0,-1,-1,2,6,21,-13,-1
1532381859431,-2,-1,-4,-4,-1,-10,0,-3
1532381859436,-3,-3,-6,-7,6,-4,-30,-1
1532381859441,-2,-1,1,-8,-13,-6,27,-6
1532381859446,-1,-1,2,2,4,13,-21,-1
1532381859451,-1,0,0,-1,-1,-4,-25,-3
1532381859456,0,0,-3,-4,-4,-2,-20,9
1532381859461,0,-2,-3,-5,-6,-12,29,0
1532381859466,0,4,0,5,11,48,33,5
1532381859471,0,-2,0,6,7,-5,33,0
1532381859476,-1,0,0,-1,1,-2,13,-4
1532381859481,-3,-3,-1,-7,-1,3,-2,-2
1532381859486,2,1,0,0,-6,-63,37,6
1532381859491,-3,-2,-2,-2,-1,29,-17,1
1532381859496,-2,2,4,6,-5,3,-27,-10
1532381859501,-2,-1,-4,5,20,-13,-22,4
1532381859506,-2,-4,-7,-12,-20,-2,6,1
1532381859511,1,-1,1,-1,8,-17,-7,-4
1532381859516,-1,0,2,2,5,-14,16,4
1532381859521,-1,1,1,1,6,17,20,-3
1532381859526,-2,0,2,6,8,-20,1,-3
1532381859531,-2,-1,-2,-4,0,-34,25,0
1532381859536,-1,0,-3,-5,5,16,-7,5
1532381859541,-1,2,3,4,7,43,2,-4
1532381859546,0,1,-2,2,11,7,-19,0
1532381859551,-1,-1,0,-1,-13,0,-6,0
1532381859556,3,-2,-1,2,4,-14,-1,-5
1532381859561,1,-4,-4,0,-6,-9,31,1
1532381859566,-3,0,1,-1,0,21,-29,-7
1532381859571,-2,-2,-3,-6,-35,-7,41,0
1532381859576,0,1,2,7,6,6,28,1
1532381859581,-3,-6,-5,-15,-29,-33,-9,-2
1532381859586,-1,-3,-1,-7,5,-3,-4,6
1532381859591,0,0,0,0,4,-19,-15,-1
1532381859596,0,-1,-1,1,3,20,-32,-3
1532381859601,-1,1,3,6,-2,-12,-36,-5
1532381859606,1,-1,-2,3,2,34,31,5
1532381859611,-1,-1,-2,1,9,44,-14,-3
1532381859616,-1,-4,-3,-8,-25,-26,53,-6
1532381859621,0,0,-1,3,44,9,-4,1
1532381859626,-2,-3,-3,-16,-63,-17,-11,-3
1532381859631,-1,-1,2,8,28,5,-7,1
1532381859636,-2,-2,-1,-2,30,21,16,-7
1532381859641,0,-1,-4,-12,-38,-9,28,0
1532381859646,-1,0,-1,11,9,-20,3,-5
1532381859651,1,2,1,4,3,3,-50,9
1532381859656,2,0,0,8,37,-9,-34,-9
1532381859661,-8,-4,-6,-28,-56,9,-56,1
1532381859666,0,-1,-2,4,25,-1,1,1
1532381859671,2,1,5,5,-6,2,14,3
1532381859676,-1,0,1,7,-7,-34,18,-4
1532381859681,1,-3,-3,7,21,73,38,0
1532381859686,1,-2,-3,-4,-13,-8,17,-4
1532381859691,-3,-1,-3,-5,11,0,20,0
1532381859696,-2,-1,-4,-9,-29,-15,4,7
1532381859701,6,2,5,16,45,14,-30,-2
1532381859706,-4,-3,0,-13,-41,-4,7,-1
1532381859711,-2,0,-2,-4,-7,-16,-48,-7
1532381859716,0,-2,-2,-9,-22,16,-19,2
1532381859721,-3,-1,-2,2,-11,-36,-8,-5
1532381859726,2,0,0,9,35,7,12,-1
1532381859731,0,0,1,3,6,-18,4,1
1532381859736,-2,1,1,-2,-11,3,12,1
1532381859741,2,3,2,2,-1,-28,-17,0
1532381859746,0,0,0,1,4,15,-17,4
1532381859751,0,5,4,-1,-23,4,8,-6
1532381859756,-4,-14,-4,-6,-13,-3,-7,0
1532381859761,-3,-7,-9,-6,-9,-9,29,1
1532381859766,1,1,1,1,0,0,-12,1
1532381859771,-1,-3,-4,-4,-4,-12,0,2
1532381859776,0,5,5,6,12,5,14,1
1532381859781,0,3,2,3,5,-17,-10,-3
1532381859786,-2,-4,-4,-5,3,-16,-10,-3
1532381859791,0,0,2,-10,2,-17,-2,-3
1532381859796,0,-1,-2,2,4,22,-29,0
1532381859801,-1,-2,-10,-3,-12,-20,-4,1
1532381859806,-1,2,1,2,1,5,4,-2
1532381859811,-1,1,-3,2,10,6,7,0
1532381859816,-2,-3,3,-3,-2,-10,24,-1
1532381859821,0,1,3,1,10,-7,-10,0
1532381859826,-1,-2,0,2,23,9,-22,-3
1532381859831,-3,-4,-3,-6,2,-9,7,1
1532381859836,1,1,-3,-3,3,-4,-4,0
1532381859841,1,-1,2,2,-17,4,3,-3
1532381859846,0,1,6,6,-12,-12,2,-7
1532381859851,2,-5,-10,-8,0,13,4,6
1532381859856,1,-1,-3,-4,15,20,-5,-3
1532381859861,-3,1,1,3,28,-6,4,0
1532381859866,0,-1,-1,-10,4,-21,0,-1
1532381859871,0,1,4,2,15,-10,13,-2
1532381859876,-1,3,-1,6,14,30,4,1
1532381859881,-2,-3,-2,-10,-8,11,1,2
1532381859886,-2,2,2,1,7,-16,19,-1
1532381859891,-4,-3,-2,-2,-16,-16,20,-2
1532381859896,-2,0,-3,-1,-9,1,-14,-1
1532381859901,-2,0,2,-2,-11,-4,-26,0
1532381859906,-2,-3,-4,3,-5,10,-14,0
1532381859911,0,-2,-1,0,-8,13,-14,-2
1532381859916,-2,-2,-5,-5,-21,-18,-8,-2
1532381859921,1,1,3,1,-12,9,47,0
1532381859926,0,-5,-8,-2,-9,3,-18,0
1532381859931,1,0,1,-1,-8,5,50,-2
1532381859936,-1,0,1,0,-13,-19,10,-1
1532381859941,0,-1,-2,0,-1,12,109,-2
1532381859946,-2,3,3,8,-9,7,127,2
1532381859951,-7,-9,-6,-14,-20,-26,119,-4
1532381859956,0,3,-1,-3,1,10,39,3
1532381859961,-1,-3,0,2,-8,41,-85,0
1532381859966,0,-1,-2,-6,7,23,-114,-1
1532381859971,3,2,0,9,16,81,-128,1
1532381859976,0,0,3,0,-3,-35,-115,-1
1532381859981,-1,-1,0,-4,-3,-26,-78,-1
1532381859986,2,1,-2,-2,-9,-24,-50,0
1532381859991,-2,-1,-4,1,0,-26,-52,-2
1532381859996,0,0,-1,0,5,-26,-10,0
1532381860001,2,0,4,5,11,11,-11,-1
1532381860006,1,2,0,2,-6,9,25,0
1532381860011,1,-1,13,2,3,15,10,-1
1532381860016,-3,1,-17,-2,1,2,17,1
1532381860021,1,0,-3,-2,-3,-29,22,-3
1532381860026,-8,-9,-7,-3,14,31,10,-1
1532381860031,-1,0,2,5,23,12,9,-1
1532381860036,0,-1,5,-5,5,-3,12,-2
1532381860041,-2,0,-3,-3,7,-9,2,0
1532381860046,1,-1,-6,-5,-23,9,-6,-1
1532381860051,1,1,2,18,14,-11,-8,-2
1532381860056,-1,1,-5,-20,-17,38,-7,2
1532381860061,0,3,-5,-1,6,-18,-4,0
1532381860066,-1,0,2,3,-19,-32,-11,-3
1532381860071,-1,3,2,-2,12,14,5,1
1532381860076,0,-1,0,6,8,-1,2,0
1532381860081,-1,-1,-1,0,9,17,-1,-2
1532381860086,-1,-1,3,3,10,-9,28,0
1532381860091,-1,-3,-2,-6,-5,12,45,-3
1532381860096,0,-2,2,2,0,-38,44,-1
1532381860101,-1,-3,-4,-4,-2,10,19,-1
1532381860106,0,-3,0,5,3,29,-3,0
1532381860111,0,-2,-3,-10,-29,-22,-31,2
1532381860116,0,1,-2,0,-13,-2,-36,-2
1532381860121,1,-1,2,3,-3,-10,-28,1
1532381860126,2,3,4,1,-3,19,-24,-1
1532381860131,-2,1,-2,-9,-2,3,-18,-6
1532381860136,-1,0,3,9,29,19,-11,1
1532381860141,2,1,-6,-8,1,8,2,0
1532381860146,-1,3,0,3,9,-31,-7,1
1532381860151,-1,0,5,10,33,28,0,-1
1532381860156,-3,1,-4,-19,-27,12,-2,-1
1532381860161,0,-1,-6,-3,-1,-12,-5,-2
1532381860166,-2,-1,4,1,1,-15,4,0
1532381860171,0,0,2,5,4,-21,3,-1
1532381860176,-1,-4,1,5,4,-15,10,-1
1532381860181,0,0,-1,-2,11,-4,6,-1
1532381860186,0,-5,-5,-8,5,6,16,-1
1532381860191,0,0,1,1,1,8,2,-2
1532381860196,0,-4,-2,-6,30,-1,-2,-1
1532381860201,-2,1,0,-2,-7,6,8,-2
1532381860206,-2,-2,-3,5,13,0,1,-1
1532381860211,-1,-3,-2,-4,-8,10,-6,-1
1532381860216,0,-1,-2,1,-7,1,-1,-2
1532381860221,1,2,-1,3,-8,-12,-8,-1
1532381860226,-2,-4,-1,-3,-15,17,-4,-3
1532381860231,1,1,6,-1,-16,-7,-5,-1
1532381860236,0,-2,-6,-5,-6,39,-11,0
1532381860241,1,2,-2,-7,-28,-39,-11,-1
1532381860246,-1,2,1,-2,-16,0,9,-1
1532381860251,-1,-2,1,-3,-20,-38,10,0
1532381860256,0,1,3,5,-16,-4,15,-2
1532381860261,-3,-1,1,3,-6,2,-1,-4
1532381860266,-1,1,-1,-1,-10,6,-3,1
1532381860271,0,-1,-2,0,-7,22,-6,0
1532381860276,0,0,-1,1,-31,-22,-4,-1
1532381860281,-1,-5,-1,-2,-34,16,8,1
1532381860286,-1,-2,0,1,-24,-14,0,-3
1532381860291,-1,0,-1,2,48,-14,0,2
1532381860296,-1,1,3,0,36,7,-10,3
1532381860301,-3,-5,-6,-5,39,-4,-15,1
1532381860306,0,-2,-5,-11,43,15,-7,-3
1532381860311,-2,-2,-2,4,37,0,-8,-1
1532381860316,0,-1,-2,-7,7,-6,-1,-1
1532381860321,-1,2,4,2,-4,14,14,1
1532381860326,0,0,-2,1,-16,-4,6,0
1532381860331,2,0,2,17,-8,22,6,-4
1532381860336,-1,-2,-5,-23,-18,-4,10,-3
1532381860341,-1,2,8,-7,16,-10,-2,-4
1532381860346,-1,-2,-3,-3,-11,3,6,3
1532381860351,-1,-1,-2,-8,-38,-7,-4,-2
1532381860356,2,1,2,16,5,6,19,2
1532381860361,0,1,2,5,1,7,-6,0
1532381860366,0,2,2,7,38,42,3,2
1532381860371,1,-1,-3,-3,-1,-14,4,4
1532381860376,-1,-2,-3,-7,-18,-5,3,-1
1532381860381,-2,-6,-5,0,40,12,3,-2
1532381860386,-1,-1,-4,-19,-31,-39,-4,-1
1532381860391,1,-1,-7,-6,-13,17,-3,0
1532381860396,1,2,0,10,-6,3,-11,-3
1532381860401,1,1,1,4,0,57,0,4
1532381860406,-1,-1,-2,5,-20,-57,-10,-4
1532381860411,-3,-1,-1,-5,-9,9,-5,0
1532381860416,0,1,0,-1,4,-3,-11,-1
1532381860421,-1,-2,-4,1,-9,-14,-3,-1
1532381860426,-1,-3,1,21,-8,-16,4,-3
1532381860431,-1,1,-1,-27,-4,14,9,6
1532381860436,-4,-3,-2,4,11,-8,3,-1
1532381860441,-2,-2,-1,0,1,-5,10,-3
1532381860446,0,-2,1,4,9,11,7,-2
1532381860451,2,0,2,8,14,-12,2,-5
1532381860456,0,0,1,1,18,-15,-7,0
1532381860461,-1,1,2,4,-11,-12,9,5
1532381860466,-1,1,2,-6,10,0,-1,-5
1532381860471,-4,-3,-7,-9,-6,-15,-2,1
1532381860476,-1,1,-1,-5,-2,17,1,-3
1532381860481,2,1,-2,-5,-12,-18,2,5
1532381860486,1,0,-2,4,1,1,-3,0
1532381860491,0,1,-1,-2,-7,30,-13,-6
1532381860496,-1,1,2,10,-1,8,-2,4
1532381860501,-2,-2,0,6,-12,-57,-15,-4
1532381860506,1,-1,-3,-8,9,29,-6,3
1532381860511,-2,-1,-1,6,-14,-23,-6,-5
1532381860516,-2,-3,-6,-1,-14,-17,5,-1
1532381860521,0,-1,-2,3,-18,32,8,-6
1532381860526,-4,-2,0,5,14,-36,6,0
1532381860531,0,-2,1,0,-16,44,-5,2
1532381860536,0,1,3,-2,12,-10,0,0
1532381860541,-1,-6,0,14,35,-5,5,-1
1532381860546,-2,-3,-7,-13,-16,32,-3,0
1532381860551,-3,-2,-1,-1,11,-22,3,-1
1532381860556,-2,-2,4,7,4,10,-6,-2
1532381860561,-4,0,-9,-23,-14,-4,-10,-8
1532381860566,-1,-1,1,2,6,7,4,2
1532381860571,-2,0,0,-7,-17,-34,2,-2
1532381860576,0,-6,-6,-9,-14,10,-3,-2
1532381860581,-1,0,-2,-5,-13,-5,0,-3
1532381860586,0,2,4,8,-16,11,-2,-4
1532381860591,-2,-1,-1,-10,-11,13,-1,0
1532381860596,5,6,6,20,3,-28,8,-1
1532381860601,0,-1,-2,-15,-80,5,0,3
1532381860606,1,-1,-4,-22,-28,4,0,-1
1532381860611,2,-1,0,7,3,19,8,-4
1532381860616,-3,-1,-3,-7,38,-1,-1,-2
1532381860621,-2,0,3,21,35,6,-5,4
1532381860626,-2,1,-1,-6,-35,-13,-6,-4
1532381860631,2,-2,1,2,11,28,-9,-1
1532381860636,-1,-1,-2,-2,15,-19,-1,1
1532381860641,-2,0,0,-7,24,3,-1,3
1532381860646,0,-1,2,8,14,9,-2,-1
1532381860651,0,0,-3,-7,13,7,12,-1
1532381860656,0,-4,-3,-13,-5,-14,8,-1
1532381860661,-1,-1,1,24,29,17,10,-2
1532381860666,-2,-3,-9,-20,-18,-33,11,-1
1532381860671,2,1,1,-4,-11,2,8,1
1532381860676,1,1,1,9,9,11,1,0
1532381860681,1,0,0,3,-7,-14,-15,0
1532381860686,2,0,1,7,-16,6,-19,-4
1532381860691,0,-2,1,-9,-64,10,-5,-1
1532381860696,-2,-4,-5,-8,10,-32,-5,0
1532381860701,-1,3,5,4,12,49,3,1
1532381860706,-2,-1,-4,-5,-18,-20,-5,0
1532381860711,0,-1,1,1,-1,16,-7,-6
1532381860716,1,2,7,24,23,-6,-3,3
1532381860721,0,0,-5,-24,-65,-47,6,1
1532381860726,1,-1,-3,-6,0,33,7,-3
1532381860731,1,1,0,-4,19,-8,12,-2
1532381860736,-1,-1,2,10,24,21,15,4
1532381860741,0,-3,-2,10,45,1,4,-2
1532381860746,-2,-3,0,-3,4,-9,0,0
1532381860751,-1,-3,-6,-19,3,2,0,0
1532381860756,1,-1,-1,-6,0,17,-4,-4
1532381860761,-1,-2,-1,-1,16,-11,-1,1
1532381860766,0,-1,0,-4,-31,-1,-9,1
1532381860771,1,0,-2,8,-9,-8,-5,-2
1532381860776,-3,-1,-4,-3,-15,-2,-6,-1
1532381860781,-2,-1,-1,-3,-5,-1,-5,1
1532381860786,-1,5,2,2,7,7,15,-1
1532381860791,-2,-5,-2,2,-6,-6,-7,-1
1532381860796,0,0,1,3,-8,-4,-2,0
1532381860801,-2,-3,-5,-2,2,1,-8,-2
1532381860806,-2,-2,0,0,16,-4,-2,-2
1532381860811,-2,-3,-5,-3,-23,5,-2,-5
1532381860816,0,1,3,3,-11,-15,3,2
1532381860821,0,-1,-2,-3,-5,3,5,1
1532381860826,-3,-3,1,0,13,1,-3,-2
1532381860831,-3,-4,-7,3,14,4,5,0
1532381860836,-2,0,0,0,0,-14,-10,-3
1532381860841,2,0,0,11,21,7,11,8
1532381860846,1,0,0,-14,-39,1,6,4
1532381860851,4,3,4,3,2,0,5,-3
1532381860856,-5,-5,-2,3,12,3,-5,-6
1532381860861,1,0,5,7,19,0,-6,-2
1532381860866,-2,1,3,19,39,-3,-3,-2
1532381860871,1,0,-5,-27,45,-9,4,1
1532381860876,-1,-1,-4,-8,26,0,3,1
1532381860881,0,-2,-2,-5,14,7,-10,0
1532381860886,0,-2,1,14,12,-5,-17,-2
1532381860891,-1,-1,5,19,-9,-19,-13,-2
1532381860896,2,-5,-9,-37,-84,-1,-4,-7
1532381860901,-3,-2,-4,-14,-43,-13,0,-2
1532381860906,-2,-2,-1,9,7,41,12,-1
1532381860911,0,-1,3,8,-14,7,8,1
1532381860916,1,-1,-1,4,1,-4,8,-3
1532381860921,-3,-1,5,9,-15,-4,-2,-3
1532381860926,0,-1,-2,-12,-11,-3,5,-1
1532381860931,1,-4,1,2,-15,-32,2,0
1532381860936,-5,-3,5,8,18,10,7,0
1532381860941,3,18,15,-4,-8,-8,10,-2
1532381860946,-10,-21,-25,-3,-4,3,-13,1
1532381860951,4,11,-10,-5,-11,6,-10,-1
1532381860956,-6,5,8,13,17,-2,-7,0
1532381860961,-2,-18,-18,-5,-13,-10,-15,-1
1532381860966,-1,-15,33,-8,-6,4,-2,-3
1532381860971,7,18,-23,4,6,5,-1,5
1532381860976,2,10,-8,2,-1,1,-1,-1
1532381860981,2,12,5,-4,-3,10,20,-4
1532381860986,5,7,-7,-2,0,-9,14,1
1532381860991,-8,4,19,0,-2,5,7,-1
1532381860996,4,3,9,4,9,7,1,0
1532381861001,0,-7,-13,-3,-5,-3,-5,-3
1532381861006,0,8,4,-6,-4,-8,-8,-3
1532381861011,-3,-9,5,4,3,0,-2,2
1532381861016,1,-2,-11,-1,4,6,-3,-1
1532381861021,-3,-10,0,-3,-9,-22,-3,-4
1532381861026,2,6,-6,-4,-4,0,6,3
1532381861031,-3,-5,1,-2,3,3,1,-4
1532381861036,-1,-8,-3,1,1,-3,3,0
1532381861041,-1,-3,2,0,0,7,-5,3
1532381861046,0,1,-2,2,7,-1,2,0
1532381861051,-3,-8,-7,-2,-10,-4,-10,1
1532381861056,3,-1,6,5,8,14,-6,-3
1532381861061,-3,-1,-1,-5,0,7,0,-2
1532381861066,-2,1,0,1,-1,-13,-6,0
1532381861071,-2,-8,0,-1,2,25,-9,-1
1532381861076,-3,-2,0,-5,-11,-33,-21,-1
1532381861081,2,0,0,5,5,31,-9,2
1532381861086,1,-4,-5,0,-1,-9,1,2
1532381861091,-3,1,5,1,7,-4,9,1
1532381861096,3,-1,-2,-4,-2,7,16,2
1532381861101,-5,-6,-5,-4,-3,-6,13,-2
1532381861106,2,5,2,-1,-3,-3,-7,-2
1532381861111,0,-1,2,-3,-3,-14,10,-3
1532381861116,-2,1,-4,0,11,26,8,3
1532381861121,-2,-3,-3,-4,0,9,-6,-6
1532381861126,-1,-5,0,0,-8,-32,-9,-2
1532381861131,-1,-1,2,4,12,43,5,6
1532381861136,-2,-1,-2,1,1,-16,-1,-3
1532381861141,-2,-6,-5,-3,-2,0,2,1
1532381861146,-2,-2,-2,-2,2,12,8,-1
1532381861151,1,2,1,-2,8,7,-4,-3
1532381861156,1,3,2,-1,-10,-25,-11,1
1532381861161,-1,-3,4,4,-3,4,-7,-2
1532381861166,2,2,-3,0,0,0,0,0
1532381861171,-4,-8,-2,-3,-3,-9,-10,-7
1532381861176,-2,-1,-1,0,5,15,8,3
1532381861181,1,3,1,1,0,-8,-7,-2
1532381861186,-1,1,-1,-6,-4,-14,-21,0
1532381861191,1,3,0,-2,-1,-1,2,3
1532381861196,-1,0,0,2,-4,-16,-5,-6
1532381861201,-1,-7,-8,-6,-10,7,9,-3
1532381861206,-1,-1,-2,4,8,-9,21,5
1532381861211,3,0,-1,0,10,30,7,9
1532381861216,0,0,1,-3,-1,1,2,1
1532381861221,0,3,4,0,-9,-17,-6,-1
1532381861226,-4,-4,1,2,0,7,-10,-5
1532381861231,-2,1,-1,0,-1,-15,-6,-8
1532381861236,-2,-1,-1,-2,-4,-20,-6,-3
1532381861241,0,-1,-2,-4,3,16,1,2
1532381861246,1,0,2,-1,6,6,14,0
1532381861251,0,2,0,-1,-7,-15,5,0
1532381861256,-1,-1,1,3,3,-8,4,-1
1532381861261,-2,0,-1,6,10,-6,-10,-2
1532381861266,-2,-1,-3,-16,-6,-24,-14,-1
1532381861271,1,0,2,15,14,44,-3,1
1532381861276,-1,1,-5,-12,-7,5,-8,-3
1532381861281,1,2,2,0,9,0,5,4
1532381861286,0,-3,-1,24,12,19,1,-6
1532381861291,-6,-2,-3,-18,-36,-54,-11,-4
1532381861296,0,-2,-3,1,11,12,1,5
1532381861301,-1,-1,-4,-3,-2,0,2,-1
1532381861306,5,4,5,14,18,21,1,0
1532381861311,-3,0,-3,0,-3,-17,0,-5
1532381861316,-3,-9,-5,4,0,5,2,-3
1532381861321,1,1,5,2,-10,-6,4,2
1532381861326,-3,2,1,0,-2,-9,-2,0
1532381861331,-1,-3,-1,1,6,-10,-11,-4
1532381861336,1,1,-2,2,2,8,2,3
1532381861341,0,-4,-2,0,6,0,-3,-3
1532381861346,4,-2,-2,-3,3,-3,2,-2
1532381861351,-1,0,1,-7,-13,-3,-5,-1
1532381861356,1,2,1,14,6,7,-6,1
1532381861361,-5,-3,-7,-25,-20,-25,-7,-2
1532381861366,-5,-1,-1,-6,2,19,0,2
1532381861371,1,2,3,21,36,19,5,-1
1532381861376,0,-2,-4,-18,-34,-14,-4,-2
1532381861381,1,1,1,3,20,23,9,2
1532381861386,-5,-5,-2,-14,-33,-22,0,-3
1532381861391,1,-4,-2,6,11,-11,14,0
1532381861396,-1,-2,-6,-13,-28,-29,-3,-1
1532381861401,-1,1,1,4,-1,25,-8,-7
1532381861406,-2,2,-6,-41,-8,-23,-6,1
1532381861411,-1,3,4,10,13,0,9,-4
1532381861416,1,3,1,-6,-20,5,2,1
1532381861421,0,0,-2,0,7,-1,-7,3
1532381861426,0,0,2,19,26,-5,-8,-4
1532381861431,5,4,0,-13,-85,-26,-3,-2
1532381861436,-7,-6,-5,-5,44,16,2,-1
1532381861441,0,4,1,5,3,-2,21,3
1532381861446,-2,-4,-1,-1,2,46,9,-4
1532381861451,1,0,-1,-7,-14,-38,5,-3
1532381861456,1,3,1,5,-8,-12,-1,-3
1532381861461,0,-2,-4,-15,-15,5,-7,2
1532381861466,-1,0,0,6,9,0,-4,-4
1532381861471,-1,-5,0,15,33,20,-3,-3
1532381861476,1,-1,-2,-20,-33,6,14,2
1532381861481,-1,1,-2,-2,3,-17,-1,-2
1532381861486,0,3,0,6,-5,-4,-2,2
1532381861491,-4,-7,-7,-20,7,9,-13,-2
1532381861496,-1,-2,1,8,11,-8,-10,-2
1532381861501,3,3,2,6,-3,4,9,4
1532381861506,-1,0,2,2,-7,-8,11,-3
1532381861511,0,0,-2,7,13,3,3,0
1532381861516,0,1,0,2,0,-6,7,1
1532381861521,0,-3,-1,-6,-11,3,-10,-6
1532381861526,2,1,-1,2,10,-3,-2,7
1532381861531,0,1,-1,3,3,7,1,0
1532381861536,0,-2,-2,-1,3,-1,-6,-2
1532381861541,-2,0,-1,-6,-15,-12,1,-4
1532381861546,-1,-1,0,7,3,-4,3,-1
1532381861551,1,-2,-5,-10,24,-8,3,0
1532381861556,-3,0,0,-11,-34,15,-6,1
1532381861561,0,0,2,4,13,-8,5,-4
1532381861566,1,0,2,12,13,16,1,0
1532381861571,-1,-4,-7,-22,-23,-11,-2,-1
1532381861576,-2,-2,-1,0,10,9,-15,-2
1532381861581,0,-2,-2,-5,-10,-13,-7,-1
1532381861586,0,-2,-4,-11,-12,-33,4,-4
1532381861591,-2,0,3,16,-20,2,1,-4
1532381861596,-1,-3,-5,-16,18,10,-1,2
1532381861601,-3,1,3,11,4,2,-23,-1
1532381861606,-1,-3,0,13,15,7,-7,1
1532381861611,0,-1,-1,1,5,4,4,0
1532381861616,1,1,0,-1,-35,-16,5,-3
1532381861621,-1,0,-1,-1,20,14,9,1
1532381861626,-3,-1,-3,-4,3,1,-2,-2
1532381861631,0,-1,5,11,19,1,-2,1
1532381861636,0,-1,-2,-7,-12,-5,7,-2
1532381861641,1,0,-2,0,4,-16,3,2
1532381861646,-1,0,-1,-9,-7,5,-6,-5
1532381861651,-3,-6,-1,-4,-10,-3,1,2
1532381861656,0,-2,-1,11,18,4,3,2
1532381861661,-2,-2,0,-4,-15,2,5,-1
1532381861666,0,0,1,-7,2,4,-6,-1
1532381861671,2,6,2,3,-6,8,-8,-1
1532381861676,-4,-5,-4,1,13,1,-8,-5
1532381861681,-1,-4,-3,-1,-8,-3,1,4
1532381861686,0,0,0,-6,-18,-5,2,-3
1532381861691,0,2,0,6,10,-10,-1,1
1532381861696,1,0,1,6,11,15,3,2
1532381861701,-2,-1,-2,-3,-2,-16,-6,-7
1532381861706,-2,-1,-1,-1,12,18,5,-1
1532381861711,-5,-3,0,2,-19,7,-5,-6
1532381861716,0,1,2,4,8,-17,-6,3
1532381861721,1,0,0,-7,-11,0,6,-2
1532381861726,2,1,0,8,-5,-6,2,1
1532381861731,-4,-7,-5,-1,6,4,0,-1
1532381861736,0,-1,-1,-4,-2,5,10,1
1532381861741,-1,0,3,1,2,7,-1,-2
1532381861746,1,1,-1,-2,21,-33,-3,-5
1532381861751,0,-2,-1,-20,-34,-5,5,0
1532381861756,0,-1,4,13,7,29,1,2
1532381861761,2,-4,-6,-16,-17,-9,-2,2
1532381861766,-2,-4,-2,-3,-4,18,-10,2
1532381861771,3,5,4,13,29,-28,-1,0
1532381861776,-5,-4,-6,-18,-22,-3,-1,-9
1532381861781,-1,1,2,-3,-19,-12,-4,3
1532381861786,-2,-3,-2,1,-9,2,5,-3
1532381861791,2,-1,1,6,2,-4,-1,1
1532381861796,1,2,6,25,54,32,-1,3
1532381861801,-1,-2,-4,-8,1,-15,-3,1
1532381861806,-2,-1,5,7,-49,21,-3,-1
1532381861811,-3,-1,-6,2,30,16,18,-3
1532381861816,1,-2,-1,16,-7,-39,-17,0
1532381861821,-2,-4,-5,-20,-8,3,-8,-2
1532381861826,1,-2,2,6,22,21,13,4
1532381861831,1,4,5,-2,-25,-18,1,-3
1532381861836,-3,-4,-1,6,5,3,4,-2
1532381861841,1,2,2,10,11,9,-3,-3
1532381861846,-6,-5,-5,-20,-18,-31,-16,-6
1532381861851,-2,0,-2,-2,1,29,-3,0
1532381861856,3,7,3,3,9,-12,2,8
1532381861861,-6,-5,-5,-2,-12,-5,14,-5
1532381861866,0,4,-1,-12,-13,-9,-1,-5
1532381861871,1,-3,-2,-2,-1,-2,0,-2
1532381861876,-1,-3,-5,-7,-1,-6,5,-2
1532381861881,-1,1,4,23,22,7,-8,-4
1532381861886,0,-1,-8,-10,-9,-21,-5,4
1532381861891,-3,-2,2,14,14,16,-16,-3
1532381861896,-1,0,-1,-26,-19,-29,0,5
1532381861901,-3,2,-1,2,6,15,18,-5
1532381861906,-1,-2,-1,0,1,4,0,1
1532381861911,2,1,1,-1,20,-7,-7,1
1532381861916,-1,-5,-5,-2,-24,-15,-6,-12
1532381861921,2,-1,1,7,15,-1,2,1
1532381861926,2,0,1,1,24,2,13,4
1532381861931,0,0,-7,-15,-28,-15,11,5
1532381861936,-2,0,5,13,18,22,5,0
1532381861941,2,0,-2,-9,-17,-11,-10,-1
1532381861946,1,-2,-3,3,6,13,11,6
1532381861951,-2,-3,-3,-10,-18,-3,-2,-4
1532381861956,-2,-1,-2,-2,1,5,-11,-4
1532381861961,1,2,2,3,13,10,-5,9
1532381861966,-3,-2,-1,-3,-15,-16,-18,-10
1532381861971,0,-1,-2,-3,3,10,-3,0
1532381861976,-1,0,0,0,-3,13,8,-2
1532381861981,-3,-2,1,4,-26,-5,7,-2
1532381861986,-1,-1,-3,-2,20,2,2,-2
1532381861991,-1,-1,0,-6,-15,-13,-2,-1
1532381861996,-1,0,-1,-13,-2,2,-9,-3
1532381862001,0,-2,1,8,14,7,-2,1
1532381862006,0,3,4,-6,-27,28,14,0
1532381862011,-3,-3,0,3,19,7,7,3
1532381862016,-2,-3,-3,-2,-14,-11,-10,-4
1532381862021,0,1,-1,-3,0,4,-10,2
1532381862026,1,1,0,7,23,-7,4,-1
1532381862031,-1,-5,-3,-6,-3,0,3,-3
1532381862036,4,0,1,-6,0,-1,9,4
1532381862041,8,0,-1,-1,10,-2,3,1
1532381862046,1,0,-2,4,9,6,-16,-4
1532381862051,1,3,4,6,-3,5,0,1
1532381862056,1,0,-2,6,7,-14,6,-2
1532381862061,-2,-3,-6,-8,-17,-2,0,-4
1532381862066,-7,-5,-4,-3,-10,-24,-1,-1
1532381862071,-5,2,-1,-1,-3,16,-10,0
1532381862076,-4,-1,-2,-3,3,7,-1,1
1532381862081,-4,0,1,-1,-2,-3,-8,2
1532381862086,-1,0,1,1,-12,-10,-9,-3
1532381862091,-1,-1,-1,-1,-3,-8,-11,-4
1532381862096,-2,0,-1,3,1,-6,-7,3
1532381862101,-2,0,-2,0,2,12,24,-3
1532381862106,-1,1,1,-1,-3,-6,-9,-3
1532381862111,1,-1,0,2,-4,17,0,-2
1532381862116,0,-3,-4,2,-3,1,5,-3
1532381862121,-1,-3,-2,0,13,4,13,0
1532381862126,6,4,0,-5,8,8,-5,-2
1532381862131,3,8,10,32,-6,-16,14,2
1532381862136,1,-4,-13,-49,-30,-14,-27,-8
1532381862141,5,-1,-2,-2,11,30,6,10
1532381862146,3,-2,-1,-1,6,-9,-3,1
1532381862151,6,4,5,20,21,23,27,1
1532381862156,-1,1,1,20,-1,-20,-24,-3
1532381862161,-5,2,1,3,-14,-24,4,-9
1532381862166,-4,2,-1,-16,-11,24,15,3
1532381862171,-6,-6,-2,20,17,-36,-4,-10
1532381862176,-7,-2,-4,-25,-26,16,26,10
1532381862181,-8,-3,-2,-12,44,3,-26,-2
1532381862186,-4,-1,3,25,10,-13,8,-5
1532381862191,-2,-3,-4,-7,-6,-9,-5,0
1532381862196,-1,-1,2,6,-1,17,7,-2
1532381862201,2,2,0,10,-10,-1,-20,-4
1532381862206,-2,0,-4,-9,2,-20,-6,4
1532381862211,1,3,-2,-11,4,5,-7,5
1532381862216,2,4,0,9,5,11,0,-3
1532381862221,-3,1,-2,-3,-11,-9,-7,0
1532381862226,0,-3,-1,4,0,-6,-1,-2
1532381862231,-2,-4,-6,-23,-25,-4,-13,-6
1532381862236,0,-3,1,10,7,-6,21,3
1532381862241,-1,-6,-3,-1,2,-11,12,-2
1532381862246,-1,-4,0,2,-4,15,3,2
1532381862251,-3,-4,-3,-16,-25,4,-11,-3
1532381862256,-2,-4,-1,-11,-7,-16,-3,-4
1532381862261,-1,-1,-1,1,-3,19,-13,-1
1532381862266,0,-2,-1,1,-2,-3,-3,-2
1532381862271,-1,0,-2,-4,7,8,-9,-5
1532381862276,1,0,0,12,9,6,4,8
1532381862281,1,-1,1,0,-14,-18,-21,-3
1532381862286,-1,-1,-5,-6,-7,-4,0,-5
1532381862291,5,7,3,3,11,-4,10,3
1532381862296,-1,-2,-1,-3,0,6,13,-5
1532381862301,0,1,-1,-1,-5,-1,11,-2
1532381862306,0,1,2,1,0,0,9,4
1532381862311,-1,-7,0,-3,2,2,8,2
1532381862316,2,3,1,5,6,5,5,-2
1532381862321,0,0,1,-4,-4,8,11,0
1532381862326,2,1,0,4,-8,-10,3,0
1532381862331,-3,-4,-8,-10,-7,-7,-10,2
1532381862336,0,-1,1,4,9,15,-8,-2
1532381862341,-1,-2,0,1,-5,-13,-6,-3
1532381862346,0,0,-1,-2,-1,8,-5,-3
1532381862351,-1,-2,1,1,0,-11,-4,0
1532381862356,-1,1,2,0,-1,10,-2,-2
1532381862361,0,2,-4,-5,9,-2,-2,-2
1532381862366,-2,-4,0,1,2,7,-15,2
1532381862371,-2,-4,-1,-3,-1,-16,-13,-1
1532381862376,1,0,0,9,7,0,-5,-2
1532381862381,0,-1,4,-2,-2,-13,1,-1
1532381862386,-4,-4,-9,-19,-30,-22,7,-2
1532381862391,-2,-2,-8,-20,1,36,3,-6
1532381862396,3,0,4,8,5,-9,10,4
1532381862401,-1,0,1,2,-13,9,-8,-3
1532381862406,2,-2,1,7,0,6,7,1
1532381862411,-3,-1,-1,2,-1,-5,-6,-3
1532381862416,-2,-2,-4,-3,-7,-8,-14,-1
1532381862421,1,-3,-4,-3,9,6,7,2
1532381862426,0,2,6,11,19,0,1,-4
1532381862431,0,0,-1,-4,-17,-8,3,1
1532381862436,0,1,0,0,9,-5,-8,1
1532381862441,-1,-3,-1,-3,-5,-4,14,4
1532381862446,-2,1,-1,1,-4,-5,-15,-6
1532381862451,-2,-6,-3,-9,17,1,3,5
1532381862456,-1,2,1,0,-1,-2,9,-1
1532381862461,1,-2,-1,-2,-16,-7,-6,-8
1532381862466,-2,1,2,-7,8,-2,12,7
1532381862471,0,0,2,4,-6,-12,7,-6
1532381862476,-1,3,1,2,0,-7,-2,-2
1532381862481,-3,-1,-2,14,16,-7,1,-3
1532381862486,-3,-5,-5,-3,-19,7,-18,-11
1532381862491,3,6,5,16,19,0,18,12
1532381862496,0,-4,-7,-25,-22,0,-10,-6
1532381862501,-1,2,2,6,7,4,13,-1
1532381862506,0,-2,-1,-5,-3,-12,9,-5
1532381862511,-2,2,0,2,2,20,-9,-5
1532381862516,-5,-7,-1,8,6,-13,-11,-2
1532381862521,3,3,1,-4,-10,-14,1,2
1532381862526,-2,-4,-5,-14,-8,17,-2,3
1532381862531,-1,-1,1,-3,-4,-1,-5,0
1532381862536,2,2,2,10,21,15,3,2
1532381862541,1,-1,-3,-9,-41,-18,-13,-1
1532381862546,0,1,2,6,35,32,1,3
1532381862551,-3,1,-3,-10,-5,-3,-1,5
1532381862556,0,-1,-1,0,-5,5,-1,-6
1532381862561,0,-2,-4,-2,11,6,-1,-1
1532381862566,4,2,0,6,-4,-20,10,0
1532381862571,-3,-3,-3,-2,-10,-21,-15,-4
1532381862576,1,5,2,3,17,8,32,-2
1532381862581,-1,0,0,-2,-12,-10,-5,4
1532381862586,1,0,1,2,-7,-17,-5,4
1532381862591,0,-3,-2,-1,9,10,0,2
1532381862596,0,-1,-1,1,-9,-5,-6,-7
1532381862601,-1,1,1,4,18,6,-1,0
1532381862606,1,-2,-1,-6,-5,3,10,0
1532381862611,-1,-1,0,2,-6,-17,-5,2
1532381862616,-3,-4,-3,-2,-6,-2,3,0
1532381862621,0,-2,0,-7,-1,11,2,4
1532381862626,-2,0,1,-2,4,0,-15,-7
1532381862631,2,-1,1,2,-5,12,23,-6
1532381862636,0,-1,0,4,9,-8,-5,-1
1532381862641,-5,-4,0,-9,-9,0,-6,-4
1532381862646,-1,-1,-5,-2,-4,-9,-1,10
1532381862651,-2,-3,-2,-7,-1,-5,-10,0
1532381862656,0,2,1,0,1,-9,-12,0
1532381862661,1,1,0,3,14,39,10,0
1532381862666,-3,1,6,14,-5,-28,-15,-9
1532381862671,2,-1,-3,-2,-1,29,14,2
1532381862676,-6,-4,-6,-13,-7,-42,-3,-1
1532381862681,-1,1,0,-4,-1,-6,1,1
1532381862686,-1,0,-1,6,22,52,2,-4
1532381862691,1,1,3,11,1,6,2,2
1532381862696,-1,1,0,0,-12,-10,13,-1
1532381862701,-1,-1,-2,13,10,-1,-2,-6
1532381862706,1,-4,-5,-21,1,-18,12,3
1532381862711,-6,-3,-6,-11,-32,-16,-12,-6
1532381862716,1,-1,1,1,5,35,2,1
1532381862721,-2,-1,0,4,-10,-33,18,0
1532381862726,1,0,2,11,2,-14,-11,1
1532381862731,1,0,2,-2,-1,-1,8,-7
1532381862736,0,-2,-3,-7,3,5,-3,3
1532381862741,-3,-2,-1,-4,-5,0,-14,-3
1532381862746,-3,-1,-2,-5,3,9,-21,-9
1532381862751,2,2,-2,2,8,-9,-19,5
1532381862756,-4,-1,2,19,4,18,-13,-7
1532381862761,1,1,-1,-19,-7,-2,-10,3
1532381862766,1,2,1,-2,-7,-17,6,-2
1532381862771,-2,0,2,-2,1,-8,3,-1
1532381862776,3,2,2,-3,3,3,-1,4
1532381862781,-2,3,0,4,7,6,-1,0
1532381862786,-2,-6,-1,-2,-2,-10,-5,0
1532381862791,0,-2,2,0,0,14,1,-2
1532381862796,0,0,-5,-6,-3,3,4,1
1532381862801,-2,-1,-4,-2,-1,2,2,-4
1532381862806,1,4,3,9,11,1,3,2
1532381862811,-1,2,-2,-5,8,12,7,-3
1532381862816,-2,0,0,-15,-28,-13,-5,5
1532381862821,-2,0,-2,0,-9,-14,4,-8
1532381862826,-4,-1,-1,-1,-7,1,-6,-6
1532381862831,4,0,2,9,30,9,-3,-1
1532381862836,-1,-2,-6,-17,-10,12,-4,-2
1532381862841,-3,-3,-3,-7,-19,-42,-12,-2
1532381862846,0,0,2,7,8,35,0,0
1532381862851,-2,-2,1,0,1,-5,2,1
1532381862856,-2,0,0,3,7,7,5,2
1532381862861,-3,-1,-5,-8,-15,-18,4,0
1532381862866,-1,-3,-3,-11,0,-13,3,0
1532381862871,0,1,0,4,2,11,11,-4
1532381862876,1,0,0,0,-1,-1,8,0
1532381862881,1,1,-2,-4,-3,4,2,-3
1532381862886,0,-4,0,8,3,-9,-9,-3
1532381862891,0,-3,-1,-4,-1,0,-10,1
1532381862896,-3,-1,1,-1,2,-5,7,5
1532381862901,-2,-2,-3,1,3,7,2,-1
1532381862906,1,0,0,2,5,11,2,-1
1532381862911,-1,0,1,-1,-4,-5,3,-2
1532381862916,-1,0,0,3,3,5,-5,-2
1532381862921,-1,-2,-1,1,-5,-6,-7,-3
1532381862926,0,-1,-2,-2,-1,-7,-2,2
1532381862931,1,1,2,10,14,1,3,-3
1532381862936,0,-3,-5,-19,-23,0,1,-1
1532381862941,1,-1,2,-2,6,14,3,-1
1532381862946,-2,0,-1,1,0,-7,0,-1
1532381862951,0,1,2,3,-1,-4,3,-2
1532381862956,-1,-2,0,14,10,9,0,0
1532381862961,-2,-2,-7,-20,-14,-8,-8,-2
1532381862966,-1,-1,-4,-10,1,-7,-5,-2
1532381862971,-1,-1,0,9,-3,4,2,0
1532381862976,-1,0,2,5,4,0,4,-2
1532381862981,2,0,0,4,-1,-1,5,0
1532381862986,-2,-1,-1,1,2,-3,-5,-3
1532381862991,-1,-3,-2,-5,-5,6,-12,-2
1532381862996,1,0,-1,1,-5,-43,-8,1
1532381863001,-1,0,2,8,9,32,-11,-2
1532381863006,-4,-4,-1,2,3,5,-1,2
1532381863011,0,0,1,2,0,0,6,-3
1532381863016,0,0,0,-2,2,5,-3,0
1532381863021,-2,-4,-3,-5,-4,-14,6,-1
1532381863026,0,3,3,2,-3,-14,8,-4
1532381863031,-2,-2,-3,-10,-3,6,9,1
1532381863036,-1,0,-2,4,7,18,13,1
1532381863041,-1,1,-2,-2,-6,-8,-2,-1
1532381863046,-2,-3,0,1,2,2,-5,-2
1532381863051,0,0,-2,-5,-3,-3,-8,0
1532381863056,-1,-1,-2,-3,0,3,-5,-3
1532381863061,-1,0,1,5,0,-3,3,2
1532381863066,1,0,0,0,1,-2,0,1
1532381863071,0,0,-2,-6,-1,6,4,2
1532381863076,-2,-1,-1,2,-6,-10,0,-2
1532381863081,0,-1,0,1,0,-4,3,-1
1532381863086,-1,0,1,-1,-3,5,2,-3
1532381863091,-2,-2,-2,0,0,-2,-1,1
1532381863096,0,-4,-2,-2,-2,10,-9,-2
1532381863101,0,-3,-1,-2,-4,-3,-3,-1
1532381863106,-1,1,-2,-1,-5,-2,0,-1
1532381863111,-2,0,1,-3,1,6,3,1
1532381863116,-2,-2,0,-1,-1,-9,5,-2
1532381863121,-3,0,-3,-1,-3,-4,6,-3
1532381863126,1,-2,-3,-3,-4,-2,2,1
1532381863131,1,-1,-1,0,2,-6,3,-3
1532381863136,-1,0,1,0,-1,-2,-2,0
1532381863141,-2,-1,0,-4,-3,1,-7,0
1532381863146,1,1,-1,0,9,3,2,2
1532381863151,1,1,-2,-2,-13,-26,-8,0
1532381863156,0,0,0,1,10,56,-1,0
1532381863161,0,-2,0,0,1,-3,-2,-2
1532381863166,-1,-3,-1,1,2,3,-4,-3
1532381863171,-1,-2,-2,-3,2,9,-8,-3
1532381863176,1,-10,8,-5,0,-9,-16,0
1532381863181,0,5,-20,0,-1,-7,-6,1
1532381863186,0,-1,-1,-1,1,11,4,-2
1532381863191,-3,-1,-2,1,2,-5,8,0
1532381863196,-2,0,-1,0,-4,-7,3,-1
1532381863201,-1,0,4,-3,-2,-7,5,-1
1532381863206,-2,-1,0,0,-6,-18,-2,-2
1532381863211,0,2,3,2,1,2,-1,0
1532381863216,-3,-2,-6,-4,0,-1,4,0
1532381863221,0,-1,4,3,0,17,2,-1
1532381863226,1,2,1,2,-1,-20,-4,0
1532381863231,-2,-2,0,-4,-2,4,1,0
1532381863236,-1,3,-3,1,0,-12,-2,-1
1532381863241,-1,-2,-3,-4,-2,12,-15,-3
1532381863246,-2,-2,0,-2,-9,-15,-13,-1
1532381863251,1,0,1,3,0,0,-5,-1
1532381863256,-2,-1,-3,-2,1,2,3,-1
1532381863261,0,-2,3,3,0,-7,14,-2
1532381863266,-1,1,0,0,1,6,16,0
1532381863271,0,-2,-2,-4,-2,-3,11,0
1532381863276,1,1,-3,-1,-1,-3,4,-1
1532381863281,-2,-1,3,-2,-4,-5,-6,1
1532381863286,-1,-2,0,0,2,11,-3,0
1532381863291,0,-5,3,2,-1,-5,-7,-2
1532381863296,-1,-2,-11,-5,-4,-3,0,0
1532381863301,-2,2,2,-2,4,0,-3,1
1532381863306,0,-3,-2,-3,-4,-2,0,-1
1532381863311,0,-1,1,-1,0,-3,7,0
1532381863316,-1,1,2,-2,-3,-3,-6,0
1532381863321,-1,0,0,-1,-3,-6,-3,-3
1532381863326,0,-1,0,-3,-1,6,-3,-2
1532381863331,-2,1,-2,0,2,-2,-1,1
1532381863336,2,2,1,0,2,0,6,1
1532381863341,0,-1,-2,-1,0,-2,13,-2
1532381863346,-2,-2,1,0,-2,-1,0,-2
1532381863351,0,0,-4,-1,1,-2,-4,-3
1532381863356,1,-2,-2,1,-2,0,-4,-2
1532381863361,-2,-1,3,2,2,1,-10,-2
1532381863366,-1,-1,-2,-2,0,2,2,0
1532381863371,0,-2,-2,-2,1,3,0,0
1532381863376,-1,0,0,-1,-4,-6,-3,-2
1532381863381,1,-1,-1,0,1,1,3,-1
1532381863386,-1,-1,-1,3,1,-5,-3,-2
1532381863391,-1,-1,-4,-5,-3,8,-14,0
1532381863396,1,-3,1,-5,-1,3,0,1
1532381863401,-1,-3,-1,0,-5,-25,-1,0
1532381863406,-1,1,0,2,3,2,4,0
1532381863411,-2,-2,-2,-4,-2,-4,-6,0
1532381863416,0,-2,1,0,2,2,-17,0
1532381863421,-2,-1,-1,1,-1,7,-12,1
1532381863426,0,-1,0,-2,-1,-2,3,1
1532381863431,0,-1,0,1,-3,-3,17,-3
1532381863436,-2,2,3,2,3,4,21,-1
1532381863441,1,-4,-3,-3,1,1,18,-2
1532381863446,-2,-1,-1,-2,-1,1,21,-1
1532381863451,-2,-1,-1,0,1,0,14,-1
1532381863456,-2,1,0,0,-2,-7,0,-3
1532381863461,0,-1,0,2,1,10,-4,-1
1532381863466,-1,-2,0,0,-2,-4,-15,0
1532381863471,-1,-1,-4,-6,2,2,-13,-1
1532381863476,-1,0,0,0,2,0,-5,-2
1532381863481,-1,-1,0,0,0,-1,-1,1
1532381863486,0,1,-1,-3,-1,6,0,0
1532381863491,0,-1,6,3,0,-5,1,1
1532381863496,-3,-4,-8,-1,2,11,-8,0
1532381863501,-2,-2,-2,-3,-5,-22,-19,-4
1532381863506,1,2,-1,0,-1,4,6,0
1532381863511,1,-1,0,1,-2,-4,4,-1
1532381863516,0,2,5,1,0,2,9,0
1532381863521,-1,-4,-2,0,-1,3,6,-1
1532381863526,-3,-4,-3,-1,-1,-5,-4,-2
1532381863531,0,1,5,-2,-1,0,5,-2
1532381863536,-1,0,-4,-1,2,-2,-4,-1
1532381863541,-2,1,-8,-2,0,4,-13,0
1532381863546,-1,0,0,-1,1,-3,-7,-1
1532381863551,0,-1,-4,1,-1,1,-16,0
1532381863556,0,0,3,-1,-3,0,-2,-5
1532381863561,-1,0,3,0,-1,-13,-2,0
1532381863566,-1,-1,-2,-1,1,11,-6,-2
1532381863571,0,2,-4,-3,-2,5,4,1
1532381863576,-1,-3,0,-2,-3,-8,24,-1
1532381863581,-1,-3,-1,-1,2,4,13,-3
1532381863586,-1,1,0,-1,-3,-6,10,-2
1532381863591,-3,4,0,2,1,-1,5,-1
1532381863596,-2,-6,-4,-4,-2,-7,-11,-2
1532381863601,1,-3,-2,-1,-2,1,1,2
1532381863606,0,-2,-1,-1,1,-4,-7,-1
1532381863611,1,-2,-1,-3,-1,-2,4,-2
1532381863616,1,1,0,3,-1,-5,10,1
1532381863621,-1,2,3,-1,0,3,2,-1
1532381863626,0,-8,5,-1,-4,0,2,0
1532381863631,1,3,-11,0,-1,2,-13,-1
1532381863636,0,1,2,2,0,3,5,-1
1532381863641,0,1,1,-3,-1,1,13,0
1532381863646,-1,-3,-4,-1,0,2,0,-1
1532381863651,-2,-4,1,-1,-2,-8,-3,-2
1532381863656,-2,-1,1,0,1,2,-16,-1
1532381863661,-1,3,0,0,-3,-5,-14,-3
1532381863666,-1,4,-1,-4,0,4,1,-3
1532381863671,-3,-2,4,-1,0,0,16,1
1532381863676,-1,-5,-13,-2,-3,-4,-5,0
1532381863681,-1,-4,5,-1,1,6,17,2
1532381863686,1,1,0,4,0,-5,-2,-2
1532381863691,-1,-1,-2,1,0,-3,-12,-2
1532381863696,-1,0,3,-2,0,1,-7,-1
1532381863701,0,2,3,2,1,-1,-25,-1
1532381863706,1,1,0,-1,-1,-2,-20,0
1532381863711,-1,-5,-15,-4,-3,-6,-5,0
1532381863716,-1,1,4,0,-3,2,-1,-3
1532381863721,0,-4,-8,-4,-1,8,10,-1
1532381863726,0,1,4,-1,-2,3,9,-2
1532381863731,0,-2,5,2,2,3,9,-1
1532381863736,-1,-1,-4,-4,-3,-9,15,-3
1532381863741,-2,-2,3,0,0,-3,7,1
1532381863746,0,3,-2,3,2,-3,4,0
1532381863751,-1,-1,-3,-7,-5,-5,6,-1
1532381863756,-1,-2,2,1,0,-1,-5,1
1532381863761,0,2,0,-1,-3,-1,-12,-1
1532381863766,0,0,-3,-1,0,-1,-16,-1
1532381863771,6,14,1,0,2,1,-12,5
1532381863776,-24,19,4,1,5,2,-5,7
1532381863781,-1,-44,-4,-1,-4,-3,7,-17
1532381863786,-2,53,0,0,-1,-3,16,-4
1532381863791,-13,-106,-3,0,-2,-1,7,-6
1532381863796,7,32,-4,-1,-4,-11,0,4
1532381863801,-2,10,-2,1,5,9,-5,6
1532381863806,4,-12,-3,-4,-5,-10,10,2
1532381863811,2,41,4,2,3,7,5,0
1532381863816,0,-14,0,-2,-2,-7,-4,2
1532381863821,-1,-3,-2,-3,-2,10,-7,2
1532381863826,-1,-2,0,0,4,17,-1,-3
1532381863831,-2,14,0,-2,-2,-7,-1,0
1532381863836,2,-21,-2,0,-1,-3,4,-4
1532381863841,1,14,0,1,0,-35,10,1
1532381863846,-2,-7,-1,-4,0,15,-2,0
1532381863851,-1,1,2,3,-1,-7,-13,0
1532381863856,3,-9,-3,-2,-4,9,3,-6
1532381863861,2,12,-1,0,2,7,12,1
1532381863866,-5,-14,-4,1,-1,-11,2,2
1532381863871,1,1,0,1,1,2,3,-3
1532381863876,2,4,1,-1,-1,-1,-6,-2
1532381863881,0,3,1,0,-1,2,1,2
1532381863886,-2,-11,-3,-2,-1,-8,-5,-2
1532381863891,0,11,-1,0,1,4,-15,-1
1532381863896,3,0,1,0,0,5,8,-2
1532381863901,-4,-1,0,-1,-3,-5,0,-2
1532381863906,3,-3,-1,3,2,1,0,-2
1532381863911,-1,5,-4,-8,-4,-1,-3,-3
1532381863916,0,-2,-4,-3,2,-2,-3,0
1532381863921,-1,-3,-4,-2,-2,0,-6,0
1532381863926,0,-2,0,-2,-6,-4,-18,-1
1532381863931,2,5,2,3,3,2,8,2
1532381863936,1,-2,0,2,-1,0,5,-1
1532381863941,0,0,0,1,0,0,5,-1
1532381863946,-2,-6,-1,-5,-4,-6,20,0
1532381863951,1,0,-2,-2,-2,0,8,-1
1532381863956,-1,-2,0,1,-1,-1,-1,-2
1532381863961,0,1,-2,1,4,3,-4,0
1532381863966,-2,-3,-3,-1,-1,0,-5,-2
1532381863971,-1,1,2,2,-1,0,-7,-1
1532381863976,1,-2,-3,-1,-3,-2,-10,-1
1532381863981,-2,-2,-3,-4,-5,-3,0,0
1532381863986,-2,-3,0,-2,1,2,-3,-1
1532381863991,0,2,-1,-3,3,4,0,0
1532381863996,-1,-4,0,-1,-2,-3,2,-1
1532381864001,-1,-1,-2,1,-1,4,1,2
1532381864006,0,-1,0,2,1,-2,3,0
1532381864011,-1,0,2,-1,-2,-1,8,0
1532381864016,0,0,-1,1,2,2,2,-2
1532381864021,1,0,-1,-1,1,3,-12,-1
1532381864026,-1,-1,0,-1,-1,-2,-18,-1
1532381864031,-2,0,-2,-1,-3,-4,-7,-2
1532381864036,0,-1,0,-1,-1,-4,-10,-1
1532381864041,-1,0,2,4,3,2,7,-4
1532381864046,-2,0,0,-3,-2,-2,1,-1
1532381864051,-1,-3,-5,-5,-4,-1,-8,-1
1532381864056,0,0,-1,-3,0,1,33,3
1532381864061,-2,-2,-3,-3,-2,-3,15,-2
1532381864066,-2,-2,0,0,-3,-2,-5,-1
1532381864071,-1,2,2,3,0,1,2,-1
1532381864076,-1,-1,0,3,1,1,-14,0
1532381864081,0,-2,-1,-2,-4,-6,-3,-1
1532381864086,1,-1,0,4,3,1,0,1
1532381864091,0,-1,-2,-2,-1,-2,-15,-2
1532381864096,-1,0,0,-4,0,6,-6,1
1532381864101,-2,1,2,2,-2,-5,14,-2
1532381864106,0,-2,-2,1,3,8,13,1
1532381864111,0,-1,-1,2,-3,-4,6,-2
1532381864116,1,-1,-1,-4,-1,-3,-6,1
1532381864121,0,0,0,2,0,5,9,-3
1532381864126,1,-2,-4,-9,-3,-3,8,-3
1532381864131,-2,-1,0,0,2,9,1,1
1532381864136,-3,0,0,1,-7,-14,-7,-5
1532381864141,1,2,3,0,-5,-4,-7,0
1532381864146,0,1,-3,-2,-6,-18,-4,3
1532381864151,-2,-4,-4,-4,-1,-6,-2,0
1532381864156,-1,0,-2,-1,1,8,-6,-1
1532381864161,-3,-2,-1,-1,-1,2,-12,-3
1532381864166,0,-1,1,1,-2,2,-7,-4
1532381864171,8,0,-1,-1,-3,10,4,2
1532381864176,-6,-1,-2,-2,-4,-5,6,3
1532381864181,0,-2,0,0,0,-13,-2,-2
1532381864186,1,0,-1,-1,-3,4,14,3
1532381864191,-4,1,-1,-1,2,-4,-3,-9
1532381864196,1,-3,-2,-3,0,6,-5,-1
1532381864201,0,-2,-3,1,3,2,1,1
1532381864206,-2,-2,3,2,-3,-8,-28,-3
1532381864211,0,-1,3,4,1,0,-21,-5
1532381864216,0,-1,-1,-3,-8,-13,-4,-1
1532381864221,-2,-3,-4,-7,-2,-4,-2,2
1532381864226,-2,-5,-3,-3,0,-2,10,0
1532381864231,-3,0,1,3,3,-1,9,3
1532381864236,1,-1,0,1,1,0,-8,-3
1532381864241,-1,0,-1,-4,-3,7,1,4
1532381864246,3,0,0,3,2,3,5,3
1532381864251,-4,2,-1,-3,-1,1,10,-5
1532381864256,0,-1,-1,2,0,-11,11,-1
1532381864261,0,0,1,-2,-1,0,-10,-1
1532381864266,-3,-2,-1,3,-3,-7,-4,-4
1532381864271,0,0,-1,-1,-2,2,3,5
1532381864276,-1,0,2,8,6,4,16,-6
1532381864281,-1,-2,-4,-7,-3,0,4,0
1532381864286,-1,-1,-5,-4,4,24,18,-1
1532381864291,-1,-1,-2,-1,-4,-10,22,1
1532381864296,1,-1,-3,-1,-1,-1,9,0
1532381864301,-1,-2,-2,0,2,-1,3,1
1532381864306,-1,-1,0,0,2,4,-13,-2
1532381864311,2,0,1,1,0,3,-35,0
1532381864316,-2,-2,-1,-5,-3,-1,-16,-3
1532381864321,2,0,1,2,3,5,1,2
1532381864326,2,-1,0,0,-3,-1,-1,-4
1532381864331,-1,-2,-1,2,-2,-9,-11,2
1532381864336,-2,0,-2,-5,-2,2,-4,0
1532381864341,1,-1,-2,0,0,8,-11,-1
1532381864346,-3,0,-1,-3,-8,3,-2,1
1532381864351,0,0,-1,-1,2,-2,-22,-4
1532381864356,-1,-1,0,1,4,21,16,1
1532381864361,0,0,-2,-3,-5,-38,-56,-2
1532381864366,-3,-1,-4,-6,2,3,-2,-3
1532381864371,-1,0,-1,3,-4,-3,0,-3
1532381864376,0,-2,-1,-1,-3,0,15,-3
1532381864381,-2,-1,1,1,1,6,32,0
1532381864386,-3,0,0,0,-2,-9,37,-6
1532381864391,-2,-1,-1,0,2,3,32,1
1532381864396,-1,-2,-3,-4,0,-14,-30,-1
1532381864401,-3,1,0,0,-8,-15,-32,-5
1532381864406,1,-1,0,2,0,5,14,-3
1532381864411,-2,-4,-3,-6,-1,19,54,1
1532381864416,0,1,0,1,-2,-9,30,0
1532381864421,-1,-1,-1,1,6,10,9,2
1532381864426,0,1,2,3,2,-10,-29,2
1532381864431,2,1,1,6,5,21,-20,-2
1532381864436,-3,-4,-3,-7,-7,-14,-51,3
1532381864441,-3,-2,-3,-7,-9,-10,-3,-3
1532381864446,-1,1,1,0,-3,-18,-15,-3
1532381864451,3,0,1,0,-2,-9,-14,-1
1532381864456,-4,-3,0,2,2,11,3,-2
1532381864461,0,1,-1,-1,0,-1,35,-2
1532381864466,-2,-3,2,-1,1,11,6,2
1532381864471,0,1,-1,-5,-4,-18,2,-2
1532381864476,1,1,1,3,-3,-5,4,0
1532381864481,-2,-2,-2,-2,3,12,26,-2
1532381864486,-1,-2,-6,-7,-5,-14,-4,-2
1532381864491,-3,-3,-1,-4,1,0,2,0
1532381864496,1,-2,-4,-2,8,28,11,0
1532381864501,0,0,2,4,-8,-36,-5,-2
1532381864506,-1,2,2,3,6,18,-17,-2
1532381864511,-2,-5,-7,-12,-9,-17,-3,1
1532381864516,-1,-1,1,1,3,9,4,2
1532381864521,1,-2,-2,-2,-2,11,13,-6
1532381864526,0,1,3,0,-1,-16,25,1
1532381864531,1,0,1,6,0,3,-23,-1
1532381864536,-2,0,0,-2,0,-3,-1,-2
1532381864541,-1,-4,-7,-8,-2,13,-12,0
1532381864546,-1,-2,-2,-2,-4,-5,-1,1
1532381864551,-2,0,-2,1,5,14,7,5
1532381864556,2,1,0,2,-2,-15,-22,3
1532381864561,1,-1,2,3,2,-7,-17,0
1532381864566,0,0,-3,-4,-2,19,1,2
1532381864571,0,1,2,1,3,3,9,-3
1532381864576,-1,-2,-3,-5,-6,0,30,-3
1532381864581,-1,-2,0,0,2,3,40,1
1532381864586,2,0,2,6,6,7,0,4
1532381864591,-4,-2,0,-6,-21,-25,27,-8
1532381864596,1,0,-1,-3,-3,14,3,5
1532381864601,-1,-2,-3,-2,2,5,-32,-3
1532381864606,0,0,0,-1,-2,-7,-32,2
1532381864611,-1,0,-2,3,8,-1,-2,-1
1532381864616,0,2,2,1,-1,-8,-2,-4
1532381864621,0,0,0,1,-9,1,24,-3
1532381864626,-1,-5,-5,-5,5,1,-9,-2
1532381864631,-1,-2,-1,-2,0,6,23,0
1532381864636,0,-2,-3,0,0,1,29,-4
1532381864641,-1,3,4,9,11,-2,-18,1
1532381864646,1,0,2,1,-3,-10,-16,-2
1532381864651,-1,-5,-6,-6,0,7,-22,0
1532381864656,2,-2,-1,-2,-1,-8,-38,1
1532381864661,1,-2,0,-1,4,11,11,-2
1532381864666,1,3,2,5,0,-12,-4,2
1532381864671,2,1,-2,-5,3,8,-14,0
1532381864676,1,2,5,16,5,-11,1,-1
1532381864681,-3,-2,-5,-13,-19,3,6,1
1532381864686,-2,-2,0,0,0,-5,14,-1
1532381864691,0,-1,0,0,-3,11,20,-2
1532381864696,-3,-2,0,2,10,-4,9,-1
1532381864701,0,0,-3,2,1,-1,-19,-1
1532381864706,-3,-3,-2,-4,-8,5,15,-1
1532381864711,-2,-3,-1,0,4,-11,-8,-2
1532381864716,-1,-2,-1,-4,-4,3,2,0
1532381864721,0,-1,1,4,1,1,15,1
1532381864726,-1,-1,-2,-3,1,2,-7,-3
1532381864731,-1,3,-2,1,0,-7,4,-2
1532381864736,-2,-3,-2,-5,-9,-14,-12,-2
1532381864741,-3,-5,-5,-7,-5,2,-57,1
1532381864746,0,-2,-2,0,4,6,-17,0
1532381864751,0,-3,0,0,-1,-10,-43,-1
1532381864756,-1,5,2,0,-1,5,-23,-2
1532381864761,-2,-3,-3,1,4,2,14,-2
1532381864766,-3,-1,7,-2,-4,-1,-19,-3
1532381864771,-1,8,-10,1,-3,-6,-3,0
1532381864776,-1,-3,0,-5,-1,6,9,-1
1532381864781,0,1,1,0,2,-3,3,-1
1532381864786,0,2,-1,-1,1,1,2,0
1532381864791,-2,-4,7,2,-2,0,-1,0
1532381864796,0,-2,-2,-2,-3,-17,-25,-1
1532381864801,-1,1,1,3,2,-1,-3,-2
1532381864806,-1,-2,-4,-4,-1,-1,6,2
1532381864811,-1,-2,0,1,0,-10,-17,0
1532381864816,1,-1,-5,-3,2,5,13,-1
1532381864821,1,0,2,1,-1,15,-29,0
1532381864826,0,0,-1,-1,1,4,-8,-4
1532381864831,0,-2,1,-1,0,-3,5,1
1532381864836,-1,-3,-4,-2,3,19,12,-3
1532381864841,1,1,1,-2,-8,-38,11,-1
1532381864846,-1,0,-2,1,0,-1,21,-1
1532381864851,-2,-4,-1,-1,-6,9,-5,-1
1532381864856,-3,-3,-3,-5,-4,-7,-3,4
1532381864861,-1,-1,-2,-1,3,6,-42,-1
1532381864866,-1,0,-3,0,-7,-16,-23,-2
1532381864871,-1,0,3,0,-1,-1,-20,-1
1532381864876,3,4,-4,0,2,-9,6,0
1532381864881,-1,-3,1,0,6,12,36,0
1532381864886,3,-3,-2,-3,4,2,39,-3
1532381864891,2,5,2,4,9,8,15,-3
1532381864896,0,-5,-4,-6,4,4,-53,-3
1532381864901,-1,2,3,9,2,-33,23,-1
1532381864906,-2,-4,1,3,4,-11,63,-4
1532381864911,-3,-1,-7,-12,-5,4,76,3
1532381864916,-1,-5,-4,-5,3,12,-107,0
1532381864921,-2,-9,-4,0,-5,-10,-71,-1
1532381864926,-1,5,2,-2,-8,0,-33,1
1532381864931,0,2,2,4,7,13,3,1
1532381864936,-3,-4,-5,-8,-14,6,-9,-4
1532381864941,-2,2,1,4,8,3,5,1
1532381864946,0,0,-1,2,8,16,13,-3
1532381864951,-1,-1,-1,-4,-5,-5,44,0
1532381864956,-1,2,0,-1,-12,-33,18,-2
1532381864961,-1,-1,-1,-6,-3,-1,-13,-2
1532381864966,-1,-2,-1,3,3,3,18,0
1532381864971,-1,-2,-1,0,4,1,21,0
1532381864976,-1,-4,-5,-3,-1,-1,2,0
1532381864981,2,3,2,-2,2,-3,-8,-2
1532381864986,2,0,-1,4,15,12,-5,3
1532381864991,-1,1,-3,-9,-21,-16,4,-6
1532381864996,1,1,-1,2,31,-5,-4,-3
1532381865001,0,2,-3,-17,-48,-7,-9,3
1532381865006,-3,-1,-1,-9,-10,-37,-7,-5
1532381865011,-1,1,2,12,17,85,11,0
1532381865016,3,3,5,23,27,37,10,1
1532381865021,-4,-1,-8,-29,-30,-93,-9,-2
1532381865026,2,-2,-1,-1,-6,54,-14,0
1532381865031,-2,-3,-3,-7,9,-39,4,2
1532381865036,-1,3,3,5,2,13,-6,-1
1532381865041,-2,-1,0,12,12,7,11,-5
1532381865046,-3,-4,-7,-10,-13,-31,14,-4
1532381865051,0,-2,2,-1,10,-5,17,-1
1532381865056,-1,-5,0,-10,-25,-5,13,1
1532381865061,2,-1,-1,9,12,5,-20,-2
1532381865066,-1,1,0,-11,-17,-23,-17,-5
1532381865071,2,0,-3,6,4,-4,9,1
1532381865076,-1,0,1,-2,3,-6,4,1
1532381865081,1,-2,1,11,2,17,3,1
1532381865086,0,-3,-9,3,22,-10,-8,1
1532381865091,0,-1,-1,-9,-25,-9,-14,1
1532381865096,-3,-1,-1,-2,-7,-26,-3,-1
1532381865101,-1,2,2,-1,10,31,11,0
1532381865106,3,1,4,2,14,52,20,0
1532381865111,0,0,0,17,6,-3,2,-1
1532381865116,-2,-5,-4,-16,0,63,0,0
1532381865121,-1,-4,-1,2,-4,-30,4,-4
1532381865126,-1,-3,1,4,0,-20,9,2
1532381865131,0,-1,-1,-1,-1,6,14,-3
1532381865136,-2,-1,2,6,8,1,-1,1
1532381865141,-1,-1,-4,-9,-3,-16,-14,-4
1532381865146,-1,1,2,-5,-5,6,-6,2
1532381865151,-2,-7,-2,-1,-5,-33,-12,-2
1532381865156,0,0,-1,-2,-5,-3,7,1
1532381865161,0,0,-2,-7,-8,-12,4,-3
1532381865166,-2,2,1,4,3,1,3,-2
1532381865171,1,2,-3,-5,-6,3,-8,-1
1532381865176,1,3,2,0,4,1,-4,1
1532381865181,0,0,-3,4,1,18,-4,-2
1532381865186,1,1,1,1,5,2,4,-2
1532381865191,-2,-1,3,-6,-7,-18,1,-1
1532381865196,0,0,-6,-1,-12,-16,1,-3
1532381865201,0,-1,0,4,6,29,-3,0
1532381865206,-3,-3,-2,-1,-1,-38,-4,-2
1532381865211,0,0,-4,-5,-6,-6,4,0
1532381865216,-1,-3,1,0,11,5,-5,2
1532381865221,-1,-2,1,5,2,3,-1,-1
1532381865226,-3,0,1,0,-9,-12,-6,0
1532381865231,-2,-1,-3,-6,0,5,-4,-4
1532381865236,0,-3,-2,7,7,-3,3,-2
1532381865241,0,0,-2,-12,-6,-16,0,0
1532381865246,0,-2,1,-1,-5,7,-9,-2
1532381865251,0,-1,-1,1,1,7,-8,1
1532381865256,0,-1,-4,-1,-7,-25,-8,-3
1532381865261,0,-1,2,5,5,3,6,-1
1532381865266,1,-1,0,4,5,10,-3,2
1532381865271,-3,-1,-1,-1,9,4,3,-1
1532381865276,-3,-6,-3,-7,-14,-26,5,-1
1532381865281,-1,3,1,4,2,2,3,0
1532381865286,-1,3,4,0,-2,7,3,-1
1532381865291,0,-3,-4,-1,-6,-6,0,-1
1532381865296,0,-1,-1,-4,-1,32,-5,-4
1532381865301,0,0,-2,-1,-2,-8,2,2
1532381865306,1,-4,-1,1,14,22,-14,2
1532381865311,-1,0,-1,-5,-30,-70,-1,-2
1532381865316,-1,2,5,3,7,24,13,0
1532381865321,1,-1,1,1,4,22,-1,-1
1532381865326,1,-1,-4,-1,1,-1,2,0
1532381865331,-1,0,-2,0,12,9,1,0
1532381865336,-1,1,0,-2,-16,-31,0,-1
1532381865341,-1,2,3,2,4,0,-5,1
1532381865346,-2,-3,1,1,-7,-10,1,-3
1532381865351,0,-2,-4,-2,-4,11,-3,-2
1532381865356,-3,0,1,-2,10,-9,3,-1
1532381865361,-1,-4,0,8,8,14,6,-2
1532381865366,0,-1,-5,-9,-5,0,3,-1
1532381865371,-4,-1,0,-4,-6,-6,1,0
1532381865376,-1,-4,-7,-1,-2,4,-4,-2
1532381865381,-1,-1,-2,-7,-6,-4,-10,-1
1532381865386,-2,-1,2,5,8,10,0,-1
1532381865391,0,-2,5,2,5,10,3,0
1532381865396,-1,0,-6,-6,-10,-6,-9,-2
1532381865401,1,-4,-1,1,2,-4,3,1
1532381865406,-2,-2,-2,-1,-2,12,-1,0
1532381865411,1,2,2,-4,3,6,-8,-3
1532381865416,0,1,-2,2,11,17,3,1
1532381865421,0,2,-1,-3,-27,-54,0,0
1532381865426,1,2,-2,-1,-1,2,2,1
1532381865431,-1,2,-2,1,4,5,-2,-4
1532381865436,-1,1,1,-2,1,4,5,-3
1532381865441,-2,1,-3,2,10,-5,-1,-3
1532381865446,-2,-1,-1,-1,-12,-10,6,0
1532381865451,-1,0,-2,2,9,20,4,2
1532381865456,1,0,-1,-2,-13,-22,-1,-1
1532381865461,0,0,0,-2,9,20,6,2
1532381865466,-1,5,0,-1,-6,-19,0,-2
1532381865471,1,-4,-1,1,-1,11,1,1
1532381865476,-1,0,1,0,2,4,-1,-2
1532381865481,0,-1,1,-1,-7,-6,1,-1
1532381865486,0,-2,0,-3,-1,4,-5,-1
1532381865491,0,-1,-8,-1,-1,-10,-3,-3
1532381865496,-1,1,1,0,-2,-20,-5,-2
1532381865501,0,1,0,0,1,19,-1,-2
1532381865506,-2,-1,-1,2,-2,-17,-1,2
1532381865511,-3,-2,0,-1,2,20,-5,-2
1532381865516,0,0,2,-1,5,21,-5,3
1532381865521,0,-2,-2,-1,2,-9,-7,-1
1532381865526,0,0,1,-1,-1,21,-4,-2
1532381865531,0,-2,-1,2,3,1,-8,0
1532381865536,-3,-2,-1,1,-2,1,-6,-2
1532381865541,0,-2,-5,-2,-1,6,-3,-2
1532381865546,0,-2,-2,-5,-6,-20,6,-4
1532381865551,1,1,2,0,5,10,14,3
1532381865556,-1,-1,-1,-2,-2,-1,11,1
1532381865561,-3,-2,-1,3,12,4,9,1
1532381865566,-1,-1,0,-2,-6,-18,4,-4
1532381865571,1,0,-4,-3,-6,-25,-2,1
1532381865576,1,-1,2,2,3,7,-9,1
1532381865581,-1,0,-2,-3,-5,-5,-14,-1
1532381865586,1,2,-1,2,9,22,-3,-4
1532381865591,-2,-3,0,-3,-11,-9,-3,-1
1532381865596,0,0,-1,-3,-5,-18,8,-2
1532381865601,0,0,0,-3,1,3,5,-3
1532381865606,-3,-3,-2,6,8,18,9,-1
1532381865611,0,2,0,-8,-7,-3,-5,1
1532381865616,0,-1,-1,1,1,17,-4,-1
1532381865621,-2,-2,-1,0,-4,12,-3,-3
1532381865626,1,-1,-2,3,10,-9,-6,-2
1532381865631,-2,0,1,2,5,-9,5,6
1532381865636,-1,0,3,2,-7,-9,4,2
1532381865641,0,-1,-1,-1,5,26,2,-2
1532381865646,0,1,0,-5,-18,-22,-2,1
1532381865651,-1,-2,0,1,6,6,4,-3
1532381865656,-1,-1,-1,-2,-7,-12,1,-4
1532381865661,-1,-3,-2,-1,3,-5,-5,-2
1532381865666,0,1,1,2,0,1,-4,1
1532381865671,-1,0,-4,-4,4,14,-3,-2
1532381865676,-2,3,-4,-2,-1,-8,-7,0
1532381865681,-3,-4,1,1,-3,-7,-3,0
1532381865686,1,-2,-6,-8,-6,0,0,1
1532381865691,2,-1,0,0,-3,-1,5,-3
1532381865696,-1,-3,0,8,9,12,-1,1
1532381865701,-3,-4,-6,2,3,-5,-6,-5
1532381865706,0,-2,-2,-5,-2,-8,-4,-3
1532381865711,0,-2,-1,-7,-9,-17,1,-2
1532381865716,-2,-3,-1,-2,-1,-1,3,1
1532381865721,-2,1,3,-3,-4,0,-1,-3
1532381865726,-1,-1,1,-2,-1,-3,-1,4
1532381865731,-1,0,2,6,-5,-5,-1,-4
1532381865736,-1,1,-1,-1,3,5,3,2
1532381865741,-1,-1,2,3,2,8,-4,-1
1532381865746,-2,-3,-2,-1,12,12,3,0
1532381865751,-1,-1,1,-2,-16,-18,-6,-2
1532381865756,0,-1,-2,-2,-4,16,-4,0
1532381865761,1,1,1,3,2,2,0,-2
1532381865766,-2,-3,-1,-3,-6,-3,0,-1
1532381865771,0,-4,-1,0,3,8,11,0
1532381865776,0,1,1,5,13,-21,0,-4
1532381865781,-2,1,0,-11,-23,10,-5,2
1532381865786,-1,0,-1,-2,-5,-14,-3,-1
1532381865791,0,0,-2,2,5,11,9,-4
1532381865796,-1,-2,-1,-4,-1,3,-4,0
1532381865801,-1,-2,-4,0,11,5,1,1
1532381865806,1,0,-2,0,-5,-18,1,-2
1532381865811,-1,-2,-3,-6,0,30,-10,2
1532381865816,-1,0,-1,-2,-7,-16,4,-7
1532381865821,0,0,2,3,3,-9,-2,4
1532381865826,1,1,1,0,2,13,4,2
1532381865831,0,-1,0,5,9,-6,-2,-3
1532381865836,0,-3,-2,0,-2,0,-1,-1
1532381865841,-1,0,-1,-3,-3,-35,0,-4
1532381865846,-2,-2,0,-2,-1,35,-6,-1
1532381865851,2,1,0,0,-2,0,4,2
1532381865856,0,1,2,2,0,-14,-4,2
1532381865861,0,1,-1,0,-3,3,-6,-1
1532381865866,-1,-1,-1,4,12,-12,-9,-1
1532381865871,-1,-1,0,-2,-20,-12,3,-2
1532381865876,-3,0,-2,-8,-7,-7,1,-2
1532381865881,-1,-2,-2,1,-2,19,12,-2
1532381865886,-2,-3,-1,-1,0,19,7,2
1532381865891,0,-2,-1,0,3,-38,-8,-2
1532381865896,-1,0,-1,1,2,2,2,-1
1532381865901,-1,0,1,0,-3,5,2,1
1532381865906,0,0,0,0,2,-4,2,1
1532381865911,-1,0,-4,-9,-2,-2,-7,0
1532381865916,0,-1,-1,-3,-6,1,-2,0
1532381865921,0,-1,-1,1,0,-2,-3,-1
1532381865926,1,-1,-1,-5,-10,-12,6,-1
1532381865931,0,2,1,4,6,-1,1,0
1532381865936,-1,0,0,-3,-6,2,1,-1
1532381865941,0,-2,-1,-3,-3,8,1,-2
1532381865946,0,-2,-1,2,7,-20,-8,0
1532381865951,0,-6,-2,1,3,21,4,-1
1532381865956,-1,-2,-3,-2,-5,-16,-7,0
1532381865961,-1,1,0,0,6,11,-10,-1
1532381865966,-2,3,-2,-6,-17,-27,-13,-5
1532381865971,0,1,-1,-2,3,0,-7,-2
1532381865976,-1,4,-1,2,6,4,0,2
1532381865981,0,0,-1,1,7,0,-2,-2
1532381865986,0,2,0,-2,-5,-5,2,-2
1532381865991,-2,2,1,-1,-5,-9,5,1
1532381865996,-1,-3,-1,0,11,25,7,1
1532381866001,-2,-2,0,-4,-12,-18,4,-1
1532381866006,-1,-6,0,1,7,19,3,0
1532381866011,0,-2,-1,0,1,4,0,-5
1532381866016,-3,-6,0,2,-1,-9,-3,3
1532381866021,-1,0,-3,-3,-1,0,-1,-3
1532381866026,-1,-3,-1,3,2,0,-2,-2
1532381866031,-1,-3,-6,-7,-7,-20,4,-1
1532381866036,-3,-3,1,-2,3,2,1,-1
1532381866041,-1,-5,-4,-3,-4,-5,1,-1
1532381866046,0,1,0,2,-1,-6,4,-1
1532381866051,-1,0,0,-3,-12,-25,-2,-2
1532381866056,0,3,2,3,11,25,5,1
1532381866061,-2,-1,3,3,1,-3,5,1
1532381866066,-1,0,-2,0,4,11,-3,-2
1532381866071,-3,-1,-3,-5,-14,-7,-6,-2
1532381866076,1,0,-1,0,10,3,1,-2
1532381866081,1,2,2,-7,-16,-26,-5,-2
1532381866086,-1,-4,-5,6,2,3,-3,-1
1532381866091,-1,-4,-1,-1,6,9,-5,2
1532381866096,-2,-7,-3,0,-6,6,-9,-3
1532381866101,6,5,-2,-1,10,9,4,3
1532381866106,-2,-2,7,1,-11,-10,7,0
1532381866111,-1,-1,0,0,1,3,3,2
1532381866116,0,4,-5,-7,-8,2,2,-3
1532381866121,0,1,1,0,3,-1,-6,-1
1532381866126,-4,0,0,-4,-2,-3,5,1
1532381866131,2,6,0,4,6,4,3,2
1532381866136,1,1,2,-1,-4,-2,0,-2
1532381866141,-2,-3,-3,3,2,4,-5,-1
1532381866146,0,1,-2,-1,-1,11,-6,0
1532381866151,-4,-1,1,1,5,-17,-4,-2
1532381866156,1,1,-1,-4,-5,-4,-2,2
1532381866161,-1,-1,0,0,2,3,-2,-3
1532381866166,1,-3,-2,-1,1,2,-8,3
1532381866171,-1,-1,0,2,-8,-5,1,-3
1532381866176,1,1,-1,4,10,-6,6,-2
1532381866181,-2,-4,-3,-3,-49,14,7,0
1532381866186,-2,-1,-9,-7,-15,-36,2,-2
1532381866191,-1,-2,2,-8,44,54,-3,-3
1532381866196,-5,-7,-3,-20,-9,-25,-4,4
1532381866201,-4,-5,-6,6,2,12,2,-3
1532381866206,3,1,2,6,8,4,0,-2
1532381866211,-1,-4,2,6,-4,-7,1,-1
1532381866216,2,1,2,9,-1,0,-11,-2
1532381866221,0,-1,3,3,27,5,-4,-1
1532381866226,0,2,-1,-3,-1,6,-6,-2
1532381866231,-2,1,-1,1,-4,-8,-3,2
1532381866236,0,0,-1,-2,-1,13,1,1
1532381866241,0,-1,0,-3,2,-21,0,0
1532381866246,1,1,-1,-3,-5,-5,11,-3
1532381866251,-1,-2,-3,0,-9,3,2,-4
1532381866256,0,-1,-1,1,-7,0,6,0
1532381866261,-1,-1,-2,-2,1,-5,-9,-1
1532381866266,0,3,3,3,9,28,-1,3
1532381866271,-2,-4,-2,2,7,1,-7,-1
1532381866276,-2,0,-6,-4,-6,-3,0,-6
1532381866281,0,1,0,-2,4,5,1,3
1532381866286,0,1,1,-1,-1,-11,4,0
1532381866291,-1,2,-1,-1,-8,-17,-1,-1
1532381866296,-1,-2,0,1,1,33,-2,-2
1532381866301,-2,-2,1,1,3,5,4,-2
1532381866306,-2,-1,0,-2,-2,10,-4,-4
1532381866311,1,1,0,4,2,-8,-4,-3
1532381866316,0,-3,-2,-2,2,2,-5,3
1532381866321,-1,-1,0,-5,-6,-7,4,-1
1532381866326,3,0,3,5,3,5,-8,4
1532381866331,-1,-2,0,-1,-4,-2,6,-3
1532381866336,1,0,-1,2,-1,-7,6,-1
1532381866341,0,-1,-3,-4,2,-5,-9,-2
1532381866346,-4,-3,-3,3,5,-5,3,-3
1532381866351,1,2,0,3,4,3,2,-2
1532381866356,1,-2,-2,-5,-17,-4,-6,2
1532381866361,1,0,0,-3,-7,-15,10,3
1532381866366,-1,0,-1,-3,-2,-3,-1,-2
1532381866371,-1,-3,0,-4,-5,1,3,6
1532381866376,-3,-2,1,5,13,-5,-4,-9
1532381866381,0,-2,-1,2,8,8,4,7
1532381866386,-1,-1,-3,1,3,8,11,1
1532381866391,-1,0,-1,0,-4,-17,-1,1
1532381866396,0,0,0,0,-7,-1,15,0
1532381866401,-3,-4,-2,-3,-6,1,-11,-6
1532381866406,-1,-3,-1,-1,-1,-3,7,-2
1532381866411,0,0,-3,-1,-3,4,1,-3
1532381866416,-2,-2,2,10,3,-14,-7,-2
1532381866421,-2,-2,-2,-5,3,1,-7,0
1532381866426,0,-1,-3,-2,17,12,-5,-1
1532381866431,1,3,3,9,-3,-2,-5,2
1532381866436,-1,-3,-6,-21,-21,-11,-6,-1
1532381866441,-1,-5,2,7,7,8,-1,-4
1532381866446,0,1,2,-1,-6,-28,2,1
1532381866451,1,1,-3,-4,10,19,-4,-2
1532381866456,-1,3,1,7,2,-6,-11,0
1532381866461,1,1,-4,1,3,11,-4,0
1532381866466,-1,-5,0,1,3,4,-8,0
1532381866471,0,-2,0,-1,-2,2,5,0
1532381866476,0,2,3,11,11,-4,20,-2
1532381866481,-1,2,-4,-20,-13,-9,7,-4
1532381866486,-4,1,-4,-9,-9,-5,4,-2
1532381866491,-2,1,-3,-6,-7,-4,6,-2
1532381866496,1,4,3,5,5,8,-3,-4
1532381866501,0,0,2,9,5,-4,-4,-2
1532381866506,0,-4,-3,-5,-5,-4,-6,-3
1532381866511,0,-3,1,9,5,0,-2,0
1532381866516,-2,1,-9,-18,-14,-4,0,2
1532381866521,0,0,1,2,3,5,5,-3
1532381866526,0,1,0,-5,-16,-18,-6,0
1532381866531,1,0,-2,2,10,36,-5,2
1532381866536,0,0,-1,4,6,10,-9,0
1532381866541,-3,0,-1,-1,-4,-3,-3,-1
1532381866546,-1,3,-1,2,3,0,-11,-2
1532381866551,-2,-1,-2,-5,-4,-6,-1,-2
1532381866556,-2,-2,-2,-4,-4,-10,-5,1
1532381866561,-2,-2,0,-1,-3,-3,2,-2
1532381866566,0,-3,4,5,-3,1,1,-1
1532381866571,-3,-3,-5,-7,-7,-7,5,-2
1532381866576,0,-3,3,-1,-3,1,-2,-1
1532381866581,2,-3,-4,-3,2,-11,-1,0
1532381866586,0,2,1,-2,-1,6,8,-1
1532381866591,-1,-1,-2,-4,-8,-8,2,-1
1532381866596,-2,-1,-1,1,2,2,3,0
1532381866601,-1,1,-1,4,-5,0,-9,-1
1532381866606,3,3,3,2,2,9,0,1
1532381866611,0,-2,1,-1,3,-7,-6,-1
1532381866616,-4,1,0,0,0,-1,0,1
1532381866621,0,-3,-3,-3,1,7,6,0
1532381866626,-2,-6,-5,-6,-12,-3,8,-3
1532381866631,1,-3,0,3,3,-15,4,-1
1532381866636,4,0,-1,2,8,14,1,-1
1532381866641,0,0,1,1,-12,-46,-11,-3
1532381866646,0,0,-3,0,9,18,-11,-3
1532381866651,-3,-3,-3,-2,-3,-14,-7,-4
1532381866656,0,0,2,4,9,35,18,2
1532381866661,0,0,-2,-5,0,8,4,2
1532381866666,-1,-3,-3,-5,-5,-21,2,-2
1532381866671,1,0,2,1,3,-1,-13,0
1532381866676,-2,-3,-3,-7,-7,-7,-2,-2
1532381866681,-2,0,3,9,10,8,0,1
1532381866686,-1,-1,-1,1,-16,-17,-11,-2
1532381866691,-4,0,0,-1,15,29,0,-1
1532381866696,0,-1,1,-2,-30,14,-6,1
1532381866701,4,0,3,5,-7,7,4,3
1532381866706,0,-1,-2,-5,-22,-3,1,-1
1532381866711,2,-1,-1,-3,-31,-9,10,0
1532381866716,4,0,1,-1,-31,3,15,0
1532381866721,2,1,3,16,-93,-8,11,-4
1532381866726,2,1,-4,-24,-34,3,4,2
1532381866731,0,1,-2,-7,-11,7,2,3
1532381866736,-3,0,-2,-1,16,9,-16,-4
1532381866741,1,-2,0,2,19,2,-8,0
1532381866746,-1,0,1,10,36,-9,-11,-3
1532381866751,-3,0,-1,-3,29,-2,0,-2
1532381866756,-3,-4,-4,-4,32,-23,-10,0
1532381866761,1,0,-1,-9,75,18,12,5
1532381866766,-1,-1,0,10,67,14,5,3
1532381866771,0,-2,-3,-8,18,8,-3,-2
1532381866776,-3,-2,-2,0,46,-37,-6,-1
1532381866781,-6,-3,-1,-5,46,-12,-7,-4
1532381866786,-3,-2,0,4,54,12,2,6
1532381866791,-5,-1,1,5,35,-20,0,-5
1532381866796,5,-1,0,-2,-40,3,10,0
1532381866801,0,0,2,24,-9,3,5,-1
1532381866806,-3,-5,-3,-5,-21,-24,-3,-6
1532381866811,-3,0,-3,-3,-51,-10,-4,0
1532381866816,-2,-2,-1,-4,7,10,7,-2
1532381866821,-1,0,-2,2,7,2,2,1
1532381866826,-3,0,1,3,-11,1,8,-3
1532381866831,0,-2,-1,4,5,-2,6,-1
1532381866836,2,0,2,8,1,-11,-2,1
1532381866841,-2,-9,-4,-12,-38,-1,-10,-7
1532381866846,0,-2,1,4,-23,22,15,4
1532381866851,-2,0,-1,-3,-1,14,-1,0
1532381866856,-1,1,-1,-3,-19,-8,5,-3
1532381866861,0,1,0,-1,1,2,-1,0
1532381866866,1,2,-6,-20,-24,-9,-8,-5
1532381866871,-1,-1,1,9,9,-5,1,3
1532381866876,-1,0,-2,-3,17,-9,-8,-5
1532381866881,-5,0,-4,-6,-37,4,7,2
1532381866886,3,-1,1,7,-15,5,19,1
1532381866891,0,3,3,0,-22,-11,1,0
1532381866896,0,-1,2,8,21,29,4,-2
1532381866901,-2,0,-5,-33,-63,-21,-20,-3
1532381866906,-1,-1,-2,2,-10,16,5,2
1532381866911,-1,-2,-2,-6,0,1,5,-2
1532381866916,-3,0,1,8,5,-4,-7,-1
1532381866921,1,0,1,-1,40,13,0,0
1532381866926,-1,-1,0,2,6,-20,-23,-3
1532381866931,2,-1,-1,0,17,-3,10,0
1532381866936,0,0,-3,-6,-3,-23,-6,-4
1532381866941,-1,-1,1,10,22,27,3,0
1532381866946,-2,-1,-2,-8,-3,-11,-8,3
1532381866951,-2,-1,1,1,3,-2,-7,-7
1532381866956,-2,0,0,-1,-14,-10,-12,4
1532381866961,0,0,-3,-1,7,-5,-2,-2
1532381866966,1,0,0,10,11,9,0,-3
1532381866971,-2,-2,-2,-13,-22,-12,6,4
1532381866976,-2,1,3,-2,-10,3,4,-1
1532381866981,-1,-2,0,13,8,-8,4,-2
1532381866986,-2,-4,-5,-12,-9,-3,-4,-1
1532381866991,1,0,1,5,-8,5,2,-1
1532381866996,0,-2,-2,-7,-18,-15,6,-4
1532381867001,0,-1,-1,5,19,24,-18,2
1532381867006,-2,0,1,0,-9,-12,16,-2
1532381867011,0,0,0,-3,8,-1,-6,3
1532381867016,-1,-1,1,0,-3,10,-5,-2
1532381867021,0,0,0,5,8,-4,5,-1
1532381867026,0,0,0,1,-14,17,7,0
1532381867031,0,-3,-5,-3,8,-10,-1,1
1532381867036,-1,-1,-2,3,1,-7,11,3
1532381867041,0,-1,0,-6,6,-11,0,-3
1532381867046,-1,1,1,5,-19,-4,-12,-4
1532381867051,1,0,-1,-6,-7,-3,-2,0
1532381867056,1,-1,0,2,-4,6,-3,-4
1532381867061,-2,-2,-3,-9,-3,-12,-13,1
1532381867066,-1,-1,-2,4,12,-7,-4,-4
1532381867071,-1,-3,-4,-4,3,3,0,-3
1532381867076,0,0,-2,-4,3,-4,4,4
1532381867081,1,2,2,-4,-10,8,-1,-2
1532381867086,0,0,1,13,16,-11,0,1
1532381867091,-1,1,0,2,0,9,5,2
1532381867096,-3,-5,-7,-4,-6,0,4,-2
1532381867101,-2,0,0,-6,-8,-21,0,-2
1532381867106,-1,0,-1,4,10,-5,-3,-1
1532381867111,1,-1,1,-1,-5,15,9,0
1532381867116,-1,-1,-2,5,3,-6,-8,-3
1532381867121,0,-2,-3,-8,-12,9,-5,-3
1532381867126,-1,-1,-2,-10,-7,8,4,3
1532381867131,2,1,3,11,3,-10,4,-2
1532381867136,-1,-1,-2,-11,-22,7,5,1
1532381867141,-1,0,-2,-4,12,-7,1,-1
1532381867146,-2,0,0,-3,-7,-9,-16,-2
1532381867151,-1,-2,-1,3,9,5,-24,-1
1532381867156,-1,-4,1,2,7,-2,-10,-3
1532381867161,0,-2,-1,-1,-4,-4,14,3
1532381867166,-2,-2,-1,-2,6,1,14,-3
1532381867171,1,1,1,-2,3,-6,-2,-3
1532381867176,2,1,0,1,2,12,-3,0
1532381867181,-2,-1,1,3,-8,-10,0,-2
1532381867186,1,-1,-1,1,4,7,7,1
1532381867191,-3,0,-2,-1,-13,-6,6,-6
1532381867196,1,1,-2,-4,2,0,8,4
1532381867201,0,-1,-1,3,0,0,3,-1
1532381867206,1,-1,1,-2,8,6,5,0
1532381867211,-1,1,-1,11,15,4,-6,-4
1532381867216,-5,-4,-6,-23,-47,-30,-8,-5
1532381867221,-3,1,-1,-2,8,27,-6,1
1532381867226,-2,-1,-1,4,2,-6,-7,0
1532381867231,-1,0,-1,-7,-3,3,-4,-1
1532381867236,1,1,2,10,12,6,0,-4
1532381867241,1,2,0,-2,1,-11,-7,-1
1532381867246,-2,-2,-3,-4,-10,16,-7,-2
1532381867251,1,2,-1,-2,3,3,2,3
1532381867256,-4,-6,0,4,4,-6,4,-2
1532381867261,0,-3,0,-1,-12,0,7,0
1532381867266,-2,-1,0,1,6,0,11,1
1532381867271,-2,-4,-1,-5,-5,-3,14,0
1532381867276,0,2,-1,5,5,4,7,-2
1532381867281,-2,-2,-1,-1,0,-3,0,-1
1532381867286,-1,1,-2,-1,-2,-4,-8,-3
1532381867291,0,-1,0,0,-6,1,-7,1
1532381867296,-2,-2,-1,-5,0,-2,-10,-3
1532381867301,0,-2,1,7,3,-2,-3,4
1532381867306,0,1,1,-6,-4,2,2,2
1532381867311,-1,-1,-2,4,10,-3,-2,-2
1532381867316,1,1,-2,0,-13,4,-7,-4
1532381867321,-1,-3,-6,-11,1,4,5,-2
1532381867326,0,-1,1,1,1,-7,3,-1
1532381867331,-2,-1,3,-3,-1,-5,-2,-1
1532381867336,2,2,2,7,31,12,11,3
1532381867341,0,-1,2,2,-7,-2,-8,-5
1532381867346,1,-1,-1,-2,-9,-11,-8,3
1532381867351,-1,-3,-4,-4,2,17,-5,-2
1532381867356,-2,0,-1,3,5,-12,3,-1
1532381867361,0,0,0,-3,-9,7,5,-2
1532381867366,0,0,2,1,8,-1,-4,-1
1532381867371,-2,-1,-5,-4,-9,-2,-1,1
1532381867376,-3,-1,1,-3,-2,3,-7,0
1532381867381,-1,2,-1,3,-2,-8,0,-2
1532381867386,-1,-3,-3,-5,-8,-1,-4,0
1532381867391,1,0,1,5,2,-2,-12,-1
1532381867396,0,-1,-2,-7,-11,4,-9,0
1532381867401,2,0,1,-5,-1,-7,12,-1
