1532467051781,2,1,-1,0,-3,0,-6,1
1532467051786,1,-3,0,1,0,0,-17,2
1532467051791,-7,-1,-2,-2,-3,-7,2,-7
1532467051796,1,-1,0,2,1,4,-1,0
1532467051801,-1,0,-1,-1,1,0,2,1
1532467051806,1,0,0,-2,0,-1,2,-2
1532467051811,0,-2,-3,-1,-2,-2,-8,0
1532467051816,4,3,1,1,1,2,5,2
1532467051821,-11,1,3,0,-1,-1,-4,-4
1532467051826,6,-3,-9,-4,-1,1,1,0
1532467051831,-6,-1,0,-1,-2,-4,-6,-3
1532467051836,0,1,0,-1,-3,-2,1,-2
1532467051841,3,1,4,-1,-2,-4,4,0
1532467051846,1,-13,-6,0,0,1,1,1
1532467051851,-11,2,-1,1,0,-4,-11,4
1532467051856,0,0,-1,-2,-1,6,13,1
1532467051861,0,0,1,0,-1,-1,-5,-3
1532467051866,-2,10,1,-2,1,5,7,4
1532467051871,8,-1,-3,-3,-1,-2,-9,0
1532467051876,-4,5,2,0,-1,-7,-1,-5
1532467051881,-3,-2,0,0,3,9,15,3
1532467051886,-2,-1,-3,-2,-4,-4,2,-1
1532467051891,2,-1,-1,0,0,0,-1,-4
1532467051896,2,-4,-3,1,2,-1,-6,1
1532467051901,-4,-4,-6,-3,-4,-4,-6,-4
1532467051906,-4,2,7,1,-1,-5,-2,-3
1532467051911,0,-3,-6,-1,2,1,-2,-1
1532467051916,-1,-3,1,-2,-3,-4,-6,-2
1532467051921,1,-5,-5,0,0,-1,-1,-2
1532467051926,0,0,2,0,-2,-2,-9,2
1532467051931,1,-2,2,-2,-2,0,7,-3
1532467051936,-3,5,0,1,1,1,2,-3
1532467051941,1,-2,-4,-1,1,1,1,2
1532467051946,-1,4,1,1,-2,-2,-10,-1
1532467051951,1,-1,0,-1,-4,-5,7,-1
1532467051956,-3,3,-1,-1,2,5,9,1
1532467051961,-1,2,0,0,-3,-4,-6,1
1532467051966,-4,-5,-1,-2,-1,0,2,-1
1532467051971,1,1,-1,0,1,0,-10,-2
1532467051976,-2,-2,-2,-2,-2,-2,5,-2
1532467051981,-1,-2,0,0,1,1,0,1
1532467051986,-2,-1,0,0,-2,-3,-7,-3
1532467051991,2,0,0,0,-2,-1,-3,-3
1532467051996,-2,-3,-3,-1,-2,-1,1,-1
1532467052001,-2,-2,0,-1,1,2,1,-2
1532467052006,1,-1,-3,0,-2,1,9,1
1532467052011,1,-4,-2,-2,0,-2,-7,-4
1532467052016,0,1,0,-1,-1,-1,-1,0
1532467052021,0,1,1,-1,-1,-3,-1,0
1532467052026,0,-1,-1,-2,2,-2,-1,2
1532467052031,-2,-9,-3,-4,-2,1,0,-2
1532467052036,-2,-1,-2,-2,-1,-3,-6,-3
1532467052041,-1,2,-1,0,-1,0,-2,0
1532467052046,1,-4,-2,0,-4,-1,-3,1
1532467052051,0,2,1,0,0,-2,-3,2
1532467052056,-1,-2,2,-1,-1,0,-2,-3
1532467052061,-1,-3,-5,0,-1,0,6,0
1532467052066,-1,3,1,-1,1,0,0,-1
1532467052071,-6,-15,-2,-1,-1,-3,-4,-1
1532467052076,-1,-2,-2,1,-1,-1,-5,-2
1532467052081,1,0,0,1,-2,-3,5,-1
1532467052086,-3,-1,-3,-4,-4,-1,-2,0
1532467052091,0,5,-1,-1,-1,4,4,3
1532467052096,1,-2,0,2,0,1,4,0
1532467052101,-1,-3,-1,0,1,-4,-9,-3
1532467052106,-1,-2,1,0,0,-2,2,-1
1532467052111,0,1,-3,-1,0,1,1,-1
1532467052116,-1,-1,0,0,-1,-1,-7,-1
1532467052121,0,1,-2,-1,0,3,9,-2
1532467052126,0,-2,-1,-1,0,-1,-5,-2
1532467052131,0,3,0,-2,-2,-3,-2,-1
1532467052136,-2,-1,-1,-2,1,-3,-12,-2
1532467052141,-1,-1,0,-2,-1,-2,10,1
1532467052146,-3,-1,0,-1,-1,-5,-4,-2
1532467052151,2,3,1,-2,-1,0,6,2
1532467052156,-5,-5,-3,0,-1,1,0,-1
1532467052161,1,-3,1,0,-2,1,3,-1
1532467052166,1,-2,-1,0,-2,-1,-1,-1
1532467052171,0,1,-1,-1,-3,-2,-6,0
1532467052176,-1,-3,0,0,-2,-4,6,-2
1532467052181,4,0,4,-1,2,4,-6,-1
1532467052186,-9,-4,-9,-3,-1,-1,0,0
1532467052191,0,0,-1,1,3,-2,1,-2
1532467052196,-1,-3,-2,0,-1,1,3,-1
1532467052201,1,0,-1,1,-3,-5,-16,-1
1532467052206,5,1,1,-2,-1,5,15,2
1532467052211,-2,-2,-1,0,-1,-1,-3,-1
1532467052216,0,4,-1,-2,1,1,4,-1
1532467052221,-2,1,1,1,0,-1,-3,2
1532467052226,1,0,0,1,-1,-3,-2,0
1532467052231,-3,0,-3,-2,0,0,2,-1
1532467052236,1,0,2,0,0,3,7,1
1532467052241,-1,-1,-3,-1,-2,-4,-7,-2
1532467052246,0,-3,-1,0,-1,-1,-4,-1
1532467052251,0,0,-1,-2,0,-3,-3,0
1532467052256,0,-1,-2,-1,-1,-4,-3,-3
1532467052261,-1,-2,-1,-3,-2,0,1,1
1532467052266,1,1,-2,0,0,-1,-1,-3
1532467052271,0,-1,2,0,-2,-1,-4,-3
1532467052276,-1,0,-1,-2,0,0,0,-1
1532467052281,-3,-4,-3,0,-2,-1,2,-2
1532467052286,1,0,-1,-1,2,0,-1,0
1532467052291,-1,-1,1,-1,2,3,-2,-2
1532467052296,0,3,-1,-1,-3,3,7,1
1532467052301,-1,-1,-2,-1,4,-3,4,-1
1532467052306,-2,-2,0,-1,-6,-3,-5,-2
1532467052311,-1,-1,-3,0,-2,-6,-1,-2
1532467052316,-1,0,0,0,1,0,-1,-1
1532467052321,-2,-1,-3,-2,-2,0,-3,0
1532467052326,0,-1,-1,-1,0,1,-3,-5
1532467052331,4,1,-2,0,-2,0,0,9
1532467052336,0,-1,-2,1,-1,-2,-1,-2
1532467052341,-1,1,0,1,-1,1,-2,-2
1532467052346,-2,-1,-3,-1,0,-2,-2,-2
1532467052351,-2,-2,-1,0,0,-2,3,-4
1532467052356,-1,-2,-1,-2,1,-1,1,0
1532467052361,-1,-1,0,-4,-1,0,-3,0
1532467052366,-1,1,1,0,1,1,1,2
1532467052371,-1,0,0,-1,0,-3,-5,-1
1532467052376,0,-1,-2,0,-1,-4,-15,-4
1532467052381,-1,-1,-1,-1,-1,2,21,-1
1532467052386,-1,-2,-1,0,2,-2,-13,0
1532467052391,0,-2,-1,-2,-4,-4,9,-3
1532467052396,-1,0,1,-1,0,0,-1,-1
1532467052401,3,-4,0,0,-2,1,3,2
1532467052406,-4,0,3,2,-1,-1,-5,-1
1532467052411,-1,-1,0,2,1,1,-4,-1
1532467052416,3,5,-1,-3,-5,-9,-5,0
1532467052421,-7,-13,3,-1,1,-3,1,-1
1532467052426,10,-2,-5,-1,2,3,-6,-5
1532467052431,-16,0,-1,-4,-1,3,30,4
1532467052436,1,-3,-2,-1,2,5,-4,3
1532467052441,-1,5,-2,1,0,-7,-7,-5
1532467052446,2,-1,0,-2,-6,0,8,8
1532467052451,3,1,0,2,6,5,-27,-16
1532467052456,-2,-1,-1,1,0,-5,23,0
1532467052461,0,4,-1,-1,-2,-2,-24,-3
1532467052466,-6,-2,-1,-1,-2,-6,-9,-9
1532467052471,3,1,1,-2,-5,-20,0,3
1532467052476,-2,-2,-1,-3,-4,38,3,0
1532467052481,-2,-1,-1,1,3,-1,2,-4
1532467052486,0,0,-1,-3,-3,8,2,2
1532467052491,1,-1,-1,0,-1,-12,-17,3
1532467052496,2,-1,2,1,4,-3,22,3
1532467052501,-1,-1,-2,-3,-2,7,-53,-10
1532467052506,-6,-3,-1,-3,-1,-18,-22,2
1532467052511,-2,-5,-4,-1,-4,-2,79,0
1532467052516,-2,0,-1,0,-1,-4,-1,7
1532467052521,0,1,-1,1,-4,0,-46,-1
1532467052526,1,0,0,0,7,26,58,-2
1532467052531,0,-3,-3,-2,-11,-14,-28,-1
1532467052536,0,-1,-2,-1,0,29,-18,7
1532467052541,-3,1,-2,0,6,-14,70,-10
1532467052546,0,2,0,-1,-5,0,-28,5
1532467052551,1,-3,-1,-1,5,-9,9,0
1532467052556,-3,-3,0,-3,-8,-17,-39,-8
1532467052561,-1,-1,2,-2,-3,18,-76,-2
1532467052566,-5,-3,-1,-3,-5,-17,21,-17
1532467052571,4,0,-1,-2,3,34,79,17
1532467052576,1,0,0,2,3,9,4,-1
1532467052581,-1,1,-1,3,7,14,5,5
1532467052586,-4,-1,0,2,2,-17,-19,-5
1532467052591,-2,1,0,-2,-4,6,-81,-7
1532467052596,1,-1,1,-3,-5,-8,40,-2
1532467052601,-1,-3,-2,-4,-6,-13,16,4
1532467052606,-1,0,2,1,1,13,-13,-4
1532467052611,3,2,-3,-2,-3,-10,-9,5
1532467052616,-5,-7,0,0,0,-28,-15,-19
1532467052621,-1,1,-2,-1,-6,-1,28,12
1532467052626,0,-1,-3,-1,-3,-2,-16,0
1532467052631,-5,-4,0,3,4,1,6,-9
1532467052636,-3,1,0,-3,2,-10,-28,-5
1532467052641,4,-2,-3,-4,-6,4,41,5
1532467052646,8,4,1,-1,-1,4,12,7
1532467052651,-3,-1,-1,-1,-1,-8,-32,-11
1532467052656,0,-4,-2,1,-1,5,26,6
1532467052661,-11,-3,2,0,2,-5,5,-7
1532467052666,1,-1,-2,0,3,-6,-2,6
1532467052671,2,0,-1,-3,-1,7,-4,2
1532467052676,0,-1,-1,-3,-3,-8,-8,-10
1532467052681,2,0,-3,1,2,-6,-4,7
1532467052686,-4,0,0,2,-1,-1,12,-2
1532467052691,-1,-1,0,-1,-1,9,4,-3
1532467052696,-3,2,2,1,1,-6,-26,-4
1532467052701,1,-2,-7,-4,-3,-5,7,-5
1532467052706,-3,-1,-1,-2,-3,3,-2,0
1532467052711,-2,-3,-3,-4,-4,-1,5,2
1532467052716,1,1,-1,1,0,-5,-22,-2
1532467052721,-1,1,1,1,2,-1,6,-2
1532467052726,-2,-2,1,-2,0,-2,3,1
1532467052731,-2,-1,-3,-3,-1,-2,13,-5
1532467052736,0,1,0,1,2,2,20,9
1532467052741,0,0,0,0,0,1,-12,0
1532467052746,-2,-3,-2,-1,-3,0,4,-2
1532467052751,0,0,1,1,-5,-1,-6,3
1532467052756,-3,0,-1,2,6,1,2,-1
1532467052761,0,-1,-1,-3,2,-5,-2,-5
1532467052766,1,0,-1,-1,-11,-2,7,2
1532467052771,0,-1,-1,1,0,-2,-34,-7
1532467052776,-2,-2,-3,-2,-4,0,21,11
1532467052781,2,2,2,2,-1,1,-33,-3
1532467052786,-4,3,1,-1,2,0,24,-5
1532467052791,-7,-9,-6,1,3,-3,-19,4
1532467052796,-3,-1,-2,-2,-3,-7,10,-19
1532467052801,-2,-2,0,-4,-8,-4,-21,8
1532467052806,-3,-7,-2,-7,-9,-10,-32,-4
1532467052811,-2,3,0,-1,4,5,-1,-18
1532467052816,0,-2,-3,0,-1,-3,34,15
1532467052821,1,6,2,1,-1,-3,-7,-8
1532467052826,-2,-9,-4,-1,-1,-2,-27,-1
1532467052831,0,-1,4,2,-2,-3,33,11
1532467052836,-4,0,-4,0,8,7,4,-6
1532467052841,-4,5,2,-1,-9,-3,2,-10
1532467052846,4,2,-2,1,-1,-7,31,7
1532467052851,-1,1,-1,4,9,9,-43,14
1532467052856,9,-7,-4,-7,-14,-12,-18,-39
1532467052861,-7,7,3,3,7,12,57,46
1532467052866,-1,-9,-16,-5,-3,-9,-47,-20
1532467052871,-2,5,0,-1,-2,-4,3,-10
1532467052876,2,-2,-1,0,-2,2,-5,25
1532467052881,1,-10,3,-3,-1,2,12,8
1532467052886,-2,5,2,1,0,8,21,-11
1532467052891,-5,-9,-5,-5,-14,-50,-17,-22
1532467052896,-4,-2,2,1,-3,34,-18,10
1532467052901,0,-5,-5,-3,5,-13,-19,-16
1532467052906,0,2,5,5,8,15,10,13
1532467052911,2,1,0,1,3,9,25,3
1532467052916,-4,-1,1,-3,-12,-17,-29,6
1532467052921,-2,2,-2,-3,-3,2,37,-15
1532467052926,-4,-1,-1,-2,-3,-1,-44,-34
1532467052931,-1,1,2,-2,-1,0,-23,-6
1532467052936,1,0,1,0,0,-16,8,15
1532467052941,2,-4,-2,1,3,10,-4,10
1532467052946,-2,-2,0,-1,0,-5,-16,10
1532467052951,2,1,2,-2,4,17,32,3
1532467052956,-2,2,0,4,4,-7,-2,3
1532467052961,-1,-4,-2,-2,-3,-7,-7,-9
1532467052966,3,2,3,-1,2,2,-11,1
1532467052971,-1,1,0,4,1,10,3,16
1532467052976,1,-1,-3,-3,4,-26,10,-6
1532467052981,-1,-3,-2,-4,-8,40,16,-16
1532467052986,-2,1,0,1,1,-6,-6,2
1532467052991,-1,-3,-3,-2,-5,10,10,-1
1532467052996,1,0,0,-1,0,-2,-21,10
1532467053001,0,-1,0,3,0,-28,-8,-6
1532467053006,0,-1,-1,-6,-3,12,13,9
1532467053011,4,0,-2,-2,2,-12,5,11
1532467053016,-2,3,1,2,0,14,8,-12
1532467053021,2,0,-1,2,5,-6,-18,0
1532467053026,4,3,2,1,1,2,10,2
1532467053031,0,1,2,-2,-4,-3,15,-7
1532467053036,-6,-3,-1,-3,-3,6,-20,-9
1532467053041,-2,-2,-1,2,2,-2,-14,-4
1532467053046,0,0,0,2,2,-17,-27,8
1532467053051,3,0,0,1,-3,8,-4,-1
1532467053056,1,-1,-2,-1,1,6,4,7
1532467053061,2,0,-1,-3,-2,-10,12,-4
1532467053066,-3,-1,-2,-5,-6,-5,7,2
1532467053071,0,0,-1,-2,-3,-26,-11,5
1532467053076,-2,-2,-1,-1,-5,17,4,-9
1532467053081,1,-1,-1,1,8,22,22,8
1532467053086,-3,0,0,2,0,-25,17,-8
1532467053091,0,-1,-1,-3,-6,11,-32,-3
1532467053096,-3,-2,-2,-2,3,-17,30,-11
1532467053101,-2,-3,-5,-6,-11,-4,-3,3
1532467053106,0,-1,0,1,4,18,3,6
1532467053111,-1,0,-1,0,1,-4,-10,0
1532467053116,0,2,1,0,-4,-6,-13,-9
1532467053121,0,1,0,-1,0,-4,-32,0
1532467053126,0,-2,-1,-2,-1,1,-14,-1
1532467053131,-1,-1,0,1,3,0,-3,7
1532467053136,1,-2,-4,-1,-1,10,7,4
1532467053141,-2,0,2,3,4,-4,-5,-6
1532467053146,1,-1,-1,0,3,3,20,3
1532467053151,-1,0,-1,-5,-7,-1,19,-3
1532467053156,0,0,0,-4,1,-2,-29,-8
1532467053161,-3,-1,-2,-2,-2,-3,14,-18
1532467053166,-1,-2,-1,-1,-5,-4,-1,3
1532467053171,-5,-4,-3,-1,1,-1,7,-4
1532467053176,0,-1,1,0,-3,-5,7,17
1532467053181,-2,-3,-1,1,1,-1,12,-3
1532467053186,-5,0,1,0,-3,-30,-28,-27
1532467053191,-4,-1,-2,-4,-2,9,26,-4
1532467053196,1,0,-2,-3,-4,2,3,-2
1532467053201,1,0,-1,-2,-4,-4,-28,1
1532467053206,3,2,2,0,0,7,11,10
1532467053211,-2,-1,2,3,3,-18,-25,-11
1532467053216,3,0,0,2,2,4,-30,-3
1532467053221,5,-1,3,6,11,31,90,37
1532467053226,1,0,-1,-1,1,6,16,14
1532467053231,-3,-4,-3,-3,-11,-10,20,0
1532467053236,-9,-4,-2,-2,0,-11,-47,-37
1532467053241,1,-1,-4,-2,-12,-14,-36,2
1532467053246,2,-2,-2,-1,2,10,22,9
1532467053251,0,1,-2,1,3,10,71,21
1532467053256,-1,-2,0,-1,-2,0,17,3
1532467053261,-6,-3,-1,-4,-3,-7,-38,-6
1532467053266,-4,-4,-2,-1,1,9,16,-8
1532467053271,2,-2,0,-3,-8,-8,-27,-13
1532467053276,-2,-2,-1,-2,-3,-1,26,16
1532467053281,2,0,-1,-1,5,-12,-50,22
1532467053286,0,0,1,-2,-5,-9,-45,4
1532467053291,-1,1,1,5,8,52,5,2
1532467053296,0,1,-2,-2,-3,2,18,-1
1532467053301,1,0,-3,-1,0,-33,-11,-5
1532467053306,2,0,0,-2,-1,26,-8,-2
1532467053311,4,1,1,0,2,-24,37,11
1532467053316,-1,-1,2,6,6,20,15,-1
1532467053321,-4,-2,-1,0,-3,-5,27,-5
1532467053326,1,0,3,-1,-1,4,-83,4
1532467053331,-1,-2,-2,-3,0,-5,-4,-13
1532467053336,1,-1,-3,-1,0,-11,30,16
1532467053341,-1,1,0,-2,-4,-1,-14,-10
1532467053346,-1,0,-1,3,7,31,35,6
1532467053351,-2,-2,0,-6,-7,-7,-35,-3
1532467053356,-1,-2,-3,-2,-3,-18,11,-10
1532467053361,-1,-4,-2,-2,-2,-6,-11,-10
1532467053366,-3,-1,-3,1,-2,-3,39,1
1532467053371,3,0,2,2,5,2,-2,11
1532467053376,-1,0,0,-1,-2,7,0,8
1532467053381,-3,-3,-1,-1,-2,-2,-3,-7
1532467053386,2,-1,-2,-5,0,-11,17,-1
1532467053391,-2,1,-3,0,2,-7,-96,-10
1532467053396,6,3,5,3,1,6,4,35
1532467053401,0,0,-1,-1,1,16,62,0
1532467053406,-5,-2,-1,-3,-7,-13,-3,-28
1532467053411,1,0,-4,-3,1,-8,55,18
1532467053416,2,1,3,3,3,9,11,12
1532467053421,0,1,-3,-4,-7,-4,-29,3
1532467053426,-2,-2,-2,1,-2,-7,47,1
1532467053431,-2,1,3,3,-1,8,-23,-10
1532467053436,-3,1,-2,0,1,-3,-11,-44
1532467053441,-1,-1,1,1,-2,1,-22,21
1532467053446,1,1,1,0,5,-12,-5,7
1532467053451,-3,-4,-1,-1,-7,5,-81,-3
1532467053456,-3,-2,-4,-4,0,-11,3,3
1532467053461,-3,-3,-1,0,-3,1,-48,-26
1532467053466,1,1,0,0,0,4,-4,-9
1532467053471,-1,0,-2,-2,0,-5,-23,-1
1532467053476,2,0,-1,-4,-3,-4,-70,-11
1532467053481,1,0,-1,-1,-2,1,18,1
1532467053486,0,-2,-1,-1,-1,0,-9,-11
1532467053491,2,0,0,-1,-2,2,68,29
1532467053496,-2,-2,-2,-1,-3,-5,-4,-6
1532467053501,-1,-1,0,-1,-1,4,39,-4
1532467053506,-4,-2,-1,0,2,-3,1,9
1532467053511,-3,-3,-2,0,-2,-7,-12,-21
1532467053516,5,5,4,2,-2,6,23,27
1532467053521,1,-4,0,1,2,4,18,-15
1532467053526,3,0,1,4,3,-3,52,15
1532467053531,0,0,-2,-1,-1,5,-12,-16
1532467053536,-8,-6,-6,-7,-5,-3,19,-9
1532467053541,-1,1,0,-3,-4,-9,-3,2
1532467053546,-2,1,0,-1,-10,-5,-6,5
1532467053551,2,-1,0,1,1,2,-12,7
1532467053556,-2,1,3,4,8,0,22,-12
1532467053561,1,0,-1,0,0,-1,7,-2
1532467053566,-1,2,0,-1,6,-2,-33,1
1532467053571,-2,-4,-2,0,-2,-7,24,9
1532467053576,1,-1,1,0,-3,2,41,-10
1532467053581,-2,-1,0,1,3,2,10,1
1532467053586,-3,-1,-1,-1,-1,0,-25,-15
1532467053591,-2,4,3,2,8,5,-43,-24
1532467053596,-3,-4,-2,-1,-5,-3,-24,-20
1532467053601,1,1,-1,-1,8,3,-3,9
1532467053606,-3,-6,-6,-4,-8,-6,5,-3
1532467053611,-3,-3,-2,-5,-4,2,24,-2
1532467053616,-5,-1,-2,-2,-4,-11,-26,-20
1532467053621,-10,-5,-3,-7,-11,-10,77,-38
1532467053626,-1,-4,-6,-5,-2,-7,-9,15
1532467053631,-1,-2,-3,-3,-1,0,16,-5
1532467053636,4,2,0,1,6,1,-8,6
1532467053641,0,1,-1,-1,-3,-1,6,5
1532467053646,2,1,1,1,1,4,8,7
1532467053651,0,-2,-1,-1,-6,-3,25,-11
1532467053656,-5,-4,-4,-3,-6,-6,18,-7
1532467053661,5,10,10,8,12,-1,-119,-5
1532467053666,1,2,-1,0,-1,9,30,-5
1532467053671,5,4,2,6,12,3,0,17
1532467053676,-2,-4,-5,-5,-3,-3,-15,3
1532467053681,5,0,2,2,-4,9,28,9
1532467053686,2,2,4,3,3,4,12,4
1532467053691,0,-1,1,-1,-2,-2,11,-10
1532467053696,3,2,3,2,5,6,-62,5
1532467053701,-1,-7,-7,-7,-3,-2,16,-8
1532467053706,-5,-3,-3,-7,-11,-4,54,-9
1532467053711,-10,-2,-5,-4,-3,-22,-9,-26
1532467053716,2,0,1,1,-2,0,8,16
1532467053721,0,-2,-1,-1,0,3,1,7
1532467053726,-1,-1,-3,-1,-1,-3,3,4
1532467053731,-4,-3,-2,-4,-4,-1,36,9
1532467053736,-6,-1,-2,-4,-2,-6,2,-12
1532467053741,-3,0,-5,-3,-3,-5,-9,-31
1532467053746,3,-1,1,4,4,2,10,3
1532467053751,4,2,2,4,6,7,-18,9
1532467053756,5,-1,1,1,1,2,14,31
1532467053761,-8,-4,-4,-2,-4,-5,-67,-50
1532467053766,-1,-4,-4,-3,-2,-7,-13,-4
1532467053771,-3,-2,-1,-3,-6,0,-7,-14
1532467053776,-6,-4,-3,-4,-5,-1,2,-13
1532467053781,4,2,5,2,5,15,109,26
1532467053786,-1,-1,-4,1,2,-1,-25,0
1532467053791,-3,-4,-6,-2,-6,-5,19,-10
1532467053796,1,0,1,1,6,-1,8,-4
1532467053801,-4,-2,-2,-1,-7,-1,-27,0
1532467053806,-4,1,3,0,1,-1,-43,-9
1532467053811,-3,-4,-6,-4,-2,-14,24,10
1532467053816,2,0,3,0,-9,11,3,-14
1532467053821,-3,0,1,-1,3,-10,-86,-8
1532467053826,-5,-1,0,0,-1,5,-17,8
1532467053831,2,-2,-5,-4,-3,-1,-13,6
1532467053836,-8,-7,-3,-3,-8,-7,57,13
1532467053841,-4,0,-3,-3,0,-18,-62,-23
1532467053846,7,4,-2,-2,1,10,3,13
1532467053851,0,-1,1,0,1,5,15,-2
1532467053856,4,0,-2,0,-1,9,55,12
1532467053861,-2,0,0,-1,-1,-2,28,-22
1532467053866,4,-1,2,2,-3,0,1,44
1532467053871,-5,-4,-1,-3,-2,-3,22,-21
1532467053876,10,5,8,6,7,4,16,35
1532467053881,3,-1,-2,-3,-4,2,-16,-4
1532467053886,1,0,-1,-1,5,10,50,-5
1532467053891,7,3,4,4,4,14,0,32
1532467053896,-2,-1,-1,1,-3,-5,-40,14
1532467053901,2,1,0,3,21,14,11,20
1532467053906,7,4,5,6,-9,15,66,32
1532467053911,-8,-2,-6,-9,-19,-24,-35,-40
1532467053916,-2,0,-3,-7,-4,-16,-23,1
1532467053921,0,-3,-3,-1,-6,-8,-8,15
1532467053926,-5,-5,-4,0,8,4,28,-3
1532467053931,-2,-3,-3,-3,-5,6,26,14
1532467053936,-1,-4,-7,-5,-9,-16,-25,-9
1532467053941,0,0,0,0,-3,4,21,13
1532467053946,-3,1,0,0,0,-6,-31,-6
1532467053951,-2,-2,0,0,1,-3,7,6
1532467053956,-1,-1,0,-2,2,4,-34,1
1532467053961,-1,2,-3,-1,-2,-1,2,-2
1532467053966,-1,-4,-1,-3,-5,-8,-33,-8
1532467053971,-5,2,-2,-2,3,8,56,31
1532467053976,-6,2,-4,-2,4,-3,-37,-9
1532467053981,15,-1,0,-2,-4,-39,39,-9
1532467053986,-23,-15,-4,1,-5,39,-21,-11
1532467053991,-7,4,-3,-5,-7,-63,14,-14
1532467053996,-10,0,7,6,13,47,-50,-20
1532467054001,7,2,-5,-5,-11,-8,39,7
1532467054006,4,0,1,2,9,21,-7,-4
1532467054011,5,-3,2,5,6,-27,-23,9
1532467054016,3,6,1,3,1,-8,31,19
1532467054021,-6,0,0,1,0,22,-22,6
1532467054026,9,3,2,2,-1,-24,-37,22
1532467054031,3,-2,1,2,8,39,-16,0
1532467054036,5,0,0,2,2,-12,-2,-6
1532467054041,-3,-3,0,-4,-4,11,-19,0
1532467054046,-3,-1,-5,-11,-15,-30,1,-2
1532467054051,-7,-4,0,2,1,24,7,-18
1532467054056,0,-2,-3,-1,0,-5,-24,7
1532467054061,1,1,1,6,4,5,-2,9
1532467054066,-2,2,2,-2,0,-14,20,-14
1532467054071,1,-1,0,-1,5,26,4,-3
1532467054076,-8,-6,-4,-3,-8,-21,20,-23
1532467054081,-3,0,1,-1,-4,-14,-11,17
1532467054086,1,1,-2,-2,3,-28,-3,6
1532467054091,-4,-7,0,0,-4,-1,-27,-17
1532467054096,3,2,-3,-2,0,56,3,-1
1532467054101,-4,-2,1,1,2,8,3,-1
1532467054106,3,0,0,2,3,-8,-4,8
1532467054111,-3,-2,-3,-4,-6,-12,19,-5
1532467054116,-1,-6,-4,-6,-8,-32,9,-1
1532467054121,2,14,5,-1,1,-21,-59,-5
1532467054126,-5,-1,-4,-2,-1,37,7,-15
1532467054131,1,-5,0,0,-1,7,-2,3
1532467054136,3,-1,-1,0,0,-44,-14,-13
1532467054141,-13,-6,-2,-1,0,54,18,-10
1532467054146,1,-1,0,-1,-2,-35,20,-6
1532467054151,-2,5,1,1,6,19,16,-14
1532467054156,8,-2,2,-4,-6,-41,4,18
1532467054161,0,-1,0,1,5,50,-34,15
1532467054166,-5,0,-3,-1,-3,-5,7,-6
1532467054171,0,-1,0,-2,-1,-2,2,3
1532467054176,-5,-3,-3,-2,0,3,-7,-16
1532467054181,0,-3,-1,-2,-4,-3,29,-3
1532467054186,0,-3,-1,-1,-5,-19,-1,11
1532467054191,2,3,1,-1,5,1,-45,4
1532467054196,-7,-1,1,1,-1,16,-6,-6
1532467054201,-6,-1,-3,-4,-3,-20,-2,-10
1532467054206,0,-2,-3,-3,-1,-11,-35,15
1532467054211,2,-7,-4,-6,-7,2,-4,-12
1532467054216,5,5,0,-1,-1,33,19,4
1532467054221,10,2,-4,0,1,-7,2,4
1532467054226,-6,-12,4,1,3,-7,-22,-20
1532467054231,-25,-10,-10,0,-5,-8,0,-9
1532467054236,-3,0,3,0,1,-6,-20,-5
1532467054241,0,0,2,3,2,38,45,29
1532467054246,7,4,-2,-3,-1,-11,-12,-5
1532467054251,12,1,7,4,1,-16,12,13
1532467054256,-8,-4,-5,-1,7,-11,15,-13
1532467054261,-6,-7,-7,-8,-12,14,0,-21
1532467054266,5,5,5,1,7,81,-2,15
1532467054271,8,4,-6,1,-8,-25,35,1
1532467054276,-9,4,-1,1,0,0,5,-14
1532467054281,0,-3,-1,-1,1,-2,5,3
1532467054286,-2,-2,-5,-3,-2,-1,18,-4
1532467054291,9,9,4,1,1,-16,-33,1
1532467054296,-32,-6,-3,2,0,18,-5,5
1532467054301,-2,-4,9,2,2,-15,15,1
1532467054306,16,-10,-11,-3,-6,-14,-40,1
1532467054311,4,7,4,1,-2,-11,-15,-15
1532467054316,8,3,-3,-2,3,2,5,8
1532467054321,-8,-4,-3,-5,-3,0,15,3
1532467054326,0,5,0,-2,-4,-27,-1,-16
1532467054331,1,-6,-4,-3,-1,-3,16,3
1532467054336,10,2,2,2,7,30,-18,4
1532467054341,-29,-7,-1,-4,-11,-13,-16,-10
1532467054346,23,5,0,1,2,-7,44,15
1532467054351,-17,-4,-2,-2,1,24,-1,10
1532467054356,11,2,-2,-1,-3,-13,3,-16
1532467054361,21,3,-1,3,1,-35,6,2
1532467054366,-12,5,1,-3,-3,15,-16,24
1532467054371,-2,-4,-6,2,7,5,-31,1
1532467054376,7,-2,14,5,3,11,25,20
1532467054381,27,7,-21,-8,-5,13,0,-13
1532467054386,-20,-5,-5,-6,-5,-4,-5,-17
1532467054391,-4,-7,-2,-2,3,17,19,3
1532467054396,-4,-5,4,1,-1,-16,-4,-34
1532467054401,-2,0,-7,-2,-5,-26,-12,0
1532467054406,3,0,2,-2,-7,16,17,-3
1532467054411,-2,-2,-3,-4,-5,-9,45,-1
1532467054416,-2,-5,-3,-1,-4,10,-1,-4
1532467054421,-5,-1,6,5,10,-18,-5,7
1532467054426,-4,3,-1,4,4,-18,7,-10
1532467054431,-3,1,1,-2,-8,1,8,-2
1532467054436,-3,0,-4,0,-2,0,-6,8
1532467054441,7,2,6,0,-4,-35,5,1
1532467054446,-12,-4,0,1,2,53,-25,10
1532467054451,4,3,4,-3,-6,-10,-32,-3
1532467054456,6,-2,-14,-7,-9,-4,-72,10
1532467054461,-1,3,7,5,10,15,4,34
1532467054466,-2,-4,-2,-2,-6,-7,1,-5
1532467054471,-1,0,4,5,2,-3,33,-1
1532467054476,2,3,-6,-6,7,4,-14,1
1532467054481,-3,-8,-5,-3,-8,5,1,-7
1532467054486,-4,5,2,-1,-1,-31,-1,-2
1532467054491,3,2,0,-5,-10,8,-24,-2
1532467054496,-8,-5,2,2,0,22,24,-2
1532467054501,-5,-2,0,3,4,-26,-3,-24
1532467054506,8,-1,2,5,12,13,20,27
1532467054511,4,0,-5,-3,-2,-8,-3,12
1532467054516,1,1,2,-3,-9,21,38,-10
1532467054521,-4,1,1,1,0,-36,18,-7
1532467054526,0,-1,-1,3,0,12,51,-9
1532467054531,-1,1,-2,-1,1,-15,3,-5
1532467054536,-2,-3,-4,-3,3,8,79,12
1532467054541,-5,-3,1,-2,-7,15,10,0
1532467054546,-4,-3,0,0,0,-7,17,-20
1532467054551,4,-1,-6,1,5,-31,-1,7
1532467054556,1,0,-2,-4,-9,18,-5,7
1532467054561,4,4,4,6,36,6,-23,-28
1532467054566,-46,-15,2,-10,-58,-19,13,-27
1532467054571,42,10,-9,0,20,25,31,44
1532467054576,11,-5,2,1,-7,-30,-26,4
1532467054581,-2,0,-2,1,3,10,-93,9
1532467054586,12,3,1,0,10,22,-26,-13
1532467054591,-22,-3,2,3,-1,-10,-5,-25
1532467054596,-1,1,1,1,1,-27,0,7
1532467054601,5,0,1,4,13,28,-8,3
1532467054606,-1,3,-3,0,-12,-8,10,-3
1532467054611,-11,-6,2,-4,8,19,-59,-12
1532467054616,3,-3,-4,1,-2,22,-35,5
1532467054621,-16,-2,-6,-17,-25,-96,3,-17
1532467054626,4,4,-1,-1,12,52,-14,11
1532467054631,3,2,5,4,1,-5,-8,8
1532467054636,-4,2,2,4,5,-10,-7,-15
1532467054641,-2,-5,0,4,-1,24,36,7
1532467054646,13,1,0,3,14,-3,-53,16
1532467054651,-4,-2,-4,-3,-14,-12,33,-24
1532467054656,-8,-7,-7,-9,-4,-16,-19,-8
1532467054661,4,1,-4,0,-1,-5,-21,12
1532467054666,4,3,-1,-1,-12,24,34,2
1532467054671,-5,4,10,-4,6,38,37,-23
1532467054676,-10,-1,-1,-4,-13,-57,5,-4
1532467054681,5,-5,-4,-6,-8,22,38,13
1532467054686,-4,1,-2,3,11,-37,-6,-10
1532467054691,-5,-5,-3,-1,-2,35,2,7
1532467054696,-2,5,5,6,5,-4,-39,-6
1532467054701,3,1,0,-2,1,9,15,-10
1532467054706,-14,-7,-1,2,8,23,-15,5
1532467054711,4,-2,-3,0,-2,-21,-33,-8
1532467054716,11,4,1,2,-3,-18,-11,-6
1532467054721,-3,-1,-4,-3,-32,6,18,3
1532467054726,7,0,-4,-11,6,15,-18,0
1532467054731,-15,-1,-3,-14,-26,-59,-93,-14
1532467054736,-3,0,2,6,13,16,15,-9
1532467054741,7,2,2,1,7,11,4,10
1532467054746,0,2,2,5,-14,-24,14,-1
1532467054751,-2,-1,3,19,40,35,9,3
1532467054756,-2,-4,-9,-19,-27,-28,-8,1
1532467054761,-6,-6,0,-7,-27,32,-3,-3
1532467054766,3,1,1,1,23,-26,-39,7
1532467054771,2,-2,-2,7,18,21,21,3
1532467054776,6,4,4,4,-7,21,10,6
1532467054781,-6,-2,-4,-6,9,4,30,0
1532467054786,-2,-2,-6,-3,-3,-40,100,1
1532467054791,-1,-5,-1,-3,-13,-14,-33,8
1532467054796,-1,0,-3,-4,13,35,22,-5
1532467054801,4,5,5,4,22,0,10,4
1532467054806,-12,-3,-3,3,-28,36,3,-11
1532467054811,3,-3,2,-1,7,-37,-7,3
1532467054816,-1,2,-4,-3,-9,-17,-3,6
1532467054821,-8,-1,-6,0,-5,1,-5,-5
1532467054826,7,0,3,5,25,-48,-10,-2
1532467054831,-8,-3,-3,3,0,41,20,-7
1532467054836,3,1,3,1,-4,19,-4,1
1532467054841,-2,-3,-1,0,5,-27,-6,2
1532467054846,3,1,-2,1,7,-25,-11,-3
1532467054851,1,2,-6,-11,-24,-7,15,-1
1532467054856,0,-5,-1,2,-4,-4,5,2
1532467054861,-1,2,4,5,12,-31,-5,-1
1532467054866,-7,-1,3,0,10,36,-3,-3
1532467054871,8,-4,-1,-6,-34,11,0,3
1532467054876,6,2,-6,-5,9,12,-29,-4
1532467054881,-3,0,-2,1,-6,-10,11,-3
1532467054886,1,7,3,-1,-14,-69,-27,6
1532467054891,3,-6,-4,2,21,28,22,10
1532467054896,-4,-1,-2,1,-8,-26,-30,1
1532467054901,-1,1,2,-2,-6,-8,-28,0
1532467054906,4,-1,-3,0,10,77,18,5
1532467054911,-9,0,-1,-9,7,-37,18,6
1532467054916,7,0,-3,-6,-42,-25,12,12
1532467054921,-6,-1,-6,0,18,38,18,2
1532467054926,-3,-4,-3,0,-2,-24,-19,-8
1532467054931,-12,-4,-2,3,4,-20,-13,-7
1532467054936,1,-4,1,7,23,27,24,4
1532467054941,7,1,0,-3,-11,5,2,2
1532467054946,4,-4,-1,-6,-7,-5,-6,0
1532467054951,4,1,-4,-2,-7,36,4,2
1532467054956,-3,4,3,0,11,0,15,1
1532467054961,-11,-3,2,5,-11,0,-15,1
1532467054966,5,1,-6,-4,4,-5,4,-5
1532467054971,1,1,0,-1,-1,10,-4,-2
1532467054976,-8,-5,1,2,6,-7,3,-2
1532467054981,2,-1,1,2,8,49,13,-5
1532467054986,-2,-4,-1,1,10,-16,7,1
1532467054991,2,2,0,-1,-13,36,8,-3
1532467054996,-6,-4,-6,-4,-11,-90,8,1
1532467055001,1,1,0,0,11,-8,-2,-2
1532467055006,2,0,-1,-1,-15,5,-1,-1
1532467055011,-1,0,2,1,-1,-60,10,-4
1532467055016,-4,-1,1,0,21,78,46,1
1532467055021,0,0,-4,-1,-7,1,-6,-6
1532467055026,6,9,5,7,20,33,3,6
1532467055031,0,-5,-6,-9,-18,-68,-12,4
1532467055036,0,3,4,0,-12,0,-6,-1
1532467055041,-2,-5,2,8,51,23,-6,-10
1532467055046,0,-1,-7,-26,-101,-36,-9,7
1532467055051,3,6,-1,3,12,-7,42,7
1532467055056,-5,-7,-4,-4,4,-4,-13,-3
1532467055061,7,0,1,3,-18,-87,30,-8
1532467055066,-10,-9,-2,-2,13,103,19,-12
1532467055071,4,3,2,9,11,28,-9,7
1532467055076,-1,0,-4,-5,-3,3,-14,-5
1532467055081,0,0,-2,-2,-7,13,12,-3
1532467055086,0,0,0,-3,-3,-54,-21,9
1532467055091,-4,-4,-1,0,1,-25,1,-20
1532467055096,-3,1,-2,4,16,55,5,6
1532467055101,0,-4,0,2,3,0,3,6
1532467055106,5,2,4,6,-3,53,-22,-4
1532467055111,-10,-7,-4,-13,-9,-42,-35,-1
1532467055116,3,2,2,4,12,-18,25,-6
1532467055121,2,1,-4,-11,-26,29,-6,-4
1532467055126,-1,-5,-5,-1,29,-26,10,-13
1532467055131,1,3,5,10,8,66,-13,11
1532467055136,-2,0,3,-4,-11,-30,-45,-13
1532467055141,-2,0,2,10,42,12,-12,6
1532467055146,-5,-5,-4,-7,-50,-39,1,-3
1532467055151,-3,-2,0,-6,-13,-90,-1,-9
1532467055156,-10,-7,1,5,10,30,2,-16
1532467055161,-3,1,-1,-4,11,12,-34,12
1532467055166,2,3,1,5,28,-53,-19,-4
1532467055171,3,0,0,1,-1,50,11,3
1532467055176,2,0,-4,-6,-27,-5,-21,7
1532467055181,-3,1,2,0,-8,-4,-9,-10
1532467055186,-2,-4,1,-3,1,-31,-1,6
1532467055191,0,0,-1,-4,7,18,3,4
1532467055196,10,-2,-3,0,19,15,15,-4
1532467055201,-9,-2,-1,-7,-34,-60,-14,-4
1532467055206,-5,-4,-8,-12,-24,-21,-6,15
1532467055211,5,3,3,10,10,41,-34,-9
1532467055216,-5,0,0,2,6,27,43,0
1532467055221,-1,-7,-7,-5,-3,-62,-9,-7
1532467055226,1,6,4,2,4,42,36,-1
1532467055231,-1,-2,-4,-2,-11,-10,-12,1
1532467055236,-1,2,-6,-5,8,-10,5,3
1532467055241,0,1,-2,-4,-6,9,-16,-3
1532467055246,-1,-2,1,7,23,-15,-1,-2
1532467055251,-3,-2,3,7,30,57,3,-6
1532467055256,4,2,4,-7,-66,-7,5,11
1532467055261,-2,1,-4,-1,0,-15,1,6
1532467055266,3,-1,1,0,10,40,-17,-3
1532467055271,2,1,-3,-1,23,10,8,5
1532467055276,-6,4,-3,3,21,-53,-31,-11
1532467055281,4,2,6,2,-30,51,-42,-3
1532467055286,0,2,3,1,-3,-12,-1,-1
1532467055291,-2,-2,-1,-1,11,-42,-3,1
1532467055296,7,0,6,22,98,22,0,-2
1532467055301,-6,-13,-8,-29,-114,-18,-5,-7
1532467055306,-8,5,-9,-14,50,36,8,-4
1532467055311,0,0,-2,-1,-4,-42,2,7
1532467055316,0,-4,1,-1,13,18,1,12
1532467055321,2,5,5,17,53,-14,24,-4
1532467055326,8,-5,0,5,-19,-8,-8,-12
1532467055331,-3,0,-4,-10,-29,26,0,-9
1532467055336,-6,0,3,-1,-7,-12,-14,-4
1532467055341,8,-3,2,6,7,-8,29,1
1532467055346,-18,-7,-6,-5,-16,-6,0,2
1532467055351,8,4,0,-4,-10,-5,4,0
1532467055356,8,-5,-1,-4,-18,-11,-5,-1
1532467055361,-14,1,0,-7,-2,21,5,-2
1532467055366,6,0,2,5,15,1,8,7
1532467055371,-6,-3,-3,5,6,-2,2,-8
1532467055376,0,-2,-4,-11,-28,-19,-8,-1
1532467055381,9,1,-1,0,4,-57,-5,9
1532467055386,5,4,3,8,21,86,-29,-3
1532467055391,-5,-1,0,-4,-11,11,20,-3
1532467055396,-7,-3,-1,-4,-16,-11,19,5
1532467055401,-1,2,-1,1,16,6,-3,-1
1532467055406,-2,-1,2,5,0,-34,2,1
1532467055411,2,-1,0,-4,-15,7,-2,-6
1532467055416,7,4,-2,1,7,33,15,13
1532467055421,-6,-2,-1,5,12,12,0,-3
1532467055426,-10,-2,-3,-4,-3,-6,30,-6
1532467055431,0,-1,0,-3,-5,-4,-25,-1
1532467055436,-3,-2,2,3,4,15,36,-1
1532467055441,4,-1,-2,-2,1,39,-2,-3
1532467055446,1,-1,0,2,8,-35,-22,-4
1532467055451,-2,0,3,-4,-11,-42,8,10
1532467055456,-2,-1,1,1,-5,-2,-20,-5
1532467055461,-1,-1,-5,-5,-10,-40,-16,1
1532467055466,-4,-2,0,0,9,65,23,-4
1532467055471,-4,0,1,5,20,34,1,-1
1532467055476,2,2,0,2,-9,-3,-15,-7
1532467055481,0,-3,-4,-13,-16,12,20,11
1532467055486,1,-1,0,-2,-19,-42,-20,-6
1532467055491,-5,-5,-4,-4,-5,-40,2,-11
1532467055496,-4,-1,-2,-1,3,46,20,-1
1532467055501,-2,0,1,7,13,24,4,-4
1532467055506,2,-1,-3,-2,-14,5,-1,-1
1532467055511,-2,-1,-1,-1,9,27,-11,0
1532467055516,0,-3,1,-3,-5,-43,-13,-1
1532467055521,5,2,3,7,18,49,8,4
1532467055526,-2,0,-1,-1,-6,-51,6,1
1532467055531,-1,-2,0,1,-6,15,7,-1
1532467055536,-5,-2,-3,0,0,-16,-4,-1
1532467055541,3,1,2,2,23,10,17,1
1532467055546,3,4,2,-4,-31,0,-48,-2
1532467055551,-3,-4,-6,-7,-6,-52,55,5
1532467055556,-2,-1,-2,-2,-2,-1,-19,-8
1532467055561,-4,0,-1,2,0,29,6,-5
1532467055566,1,-1,-2,1,10,-12,8,2
1532467055571,-1,-2,1,2,4,39,-44,0
1532467055576,-1,-1,-3,-5,-19,-47,3,-1
1532467055581,-4,-1,-2,-4,-10,-15,4,3
1532467055586,0,0,-1,1,8,-3,4,1
1532467055591,3,0,0,-2,-1,29,1,1
1532467055596,3,0,1,2,12,-2,0,3
1532467055601,-3,-2,0,-3,-25,-16,-12,-3
1532467055606,1,1,1,4,9,14,13,7
1532467055611,-2,0,0,0,-6,-16,-12,-4
1532467055616,-5,-1,0,1,5,-23,-6,1
1532467055621,-2,-2,-4,-4,-11,19,19,3
1532467055626,-1,-2,-3,-4,7,-16,-30,-14
1532467055631,5,4,4,8,21,-30,-28,-2
1532467055636,3,0,0,4,14,56,13,-7
1532467055641,11,4,2,0,-14,15,35,18
1532467055646,-21,-10,-7,-9,-17,-49,-27,-4
1532467055651,-7,-2,-1,1,-1,-21,-8,1
1532467055656,3,-1,-2,-3,-1,5,-4,-2
1532467055661,3,2,3,6,19,-10,-6,-5
1532467055666,11,1,3,5,11,46,13,9
1532467055671,-11,19,16,3,-11,-17,19,3
1532467055676,25,-18,-22,-6,0,9,1,3
1532467055681,-21,-9,19,-1,4,-21,-23,-11
1532467055686,-58,-9,-4,1,-6,-8,11,2
1532467055691,51,-9,-29,-6,-4,14,0,3
1532467055696,-26,-9,65,10,-3,-13,6,3
1532467055701,20,38,-82,-8,4,-13,-30,2
1532467055706,29,-5,71,6,-1,-7,29,-4
1532467055711,-6,-11,-20,-2,-1,22,-36,-9
1532467055716,9,-2,-12,-9,-5,0,-19,5
1532467055721,-13,-11,-5,3,2,-17,7,-5
1532467055726,-5,9,0,-5,2,6,0,0
1532467055731,-12,0,16,-2,-2,8,-6,-1
1532467055736,-12,4,-2,-3,-11,-45,-30,5
1532467055741,-22,-3,98,30,7,0,-56,-14
1532467055746,1,-6,-102,-35,10,43,25,25
1532467055751,39,-5,34,-6,-7,-1,-33,2
1532467055756,1,2,-16,-10,-8,1,14,-14
1532467055761,-5,-3,0,-6,-12,1,-74,-8
1532467055766,4,-3,28,6,-4,-26,40,-5
1532467055771,-18,0,-15,0,-9,1,-6,-4
1532467055776,-8,5,-13,5,-1,-17,26,7
1532467055781,12,-4,9,-4,6,-3,56,13
1532467055786,8,2,-3,7,-1,-23,44,5
1532467055791,-11,-6,-15,-2,10,62,21,-6
1532467055796,6,4,11,4,-1,-4,-13,-5
1532467055801,3,-10,-8,-4,23,1,6,-2
1532467055806,7,1,-12,-1,-34,16,-7,1
1532467055811,-12,3,0,2,18,-40,15,-1
1532467055816,-3,0,3,-6,-38,-25,-23,-3
1532467055821,0,-2,-15,-9,-3,23,51,2
1532467055826,-1,2,0,3,18,12,-45,-5
1532467055831,-3,1,13,2,-12,-1,7,0
1532467055836,-3,-1,-7,2,20,32,-10,0
1532467055841,3,-2,-10,-4,-7,-25,-5,-1
1532467055846,8,3,12,4,-3,-5,-30,-7
1532467055851,-6,-2,-5,-2,-1,10,13,4
1532467055856,-2,0,-8,-2,-2,-6,8,-1
1532467055861,0,-2,-3,-4,-10,-3,-8,-1
1532467055866,1,-2,7,5,13,8,0,-3
1532467055871,-3,-2,-3,3,-13,-5,2,0
1532467055876,-6,-1,-5,-6,-8,-7,-3,2
1532467055881,1,0,4,-2,-2,0,-3,-2
1532467055886,1,-1,1,-1,3,4,-11,-5
1532467055891,-4,-1,-3,-4,3,-11,-4,-1
1532467055896,2,1,4,5,13,16,10,0
1532467055901,1,-4,-4,-5,-25,-1,-11,-2
1532467055906,0,-1,-2,-3,12,-16,-10,0
1532467055911,-4,1,1,1,-6,10,4,3
1532467055916,-1,-2,0,0,2,17,11,-5
1532467055921,-1,-2,-3,0,12,-11,-16,-3
1532467055926,2,2,3,5,13,-5,2,-2
1532467055931,-2,-3,-3,-5,-30,-6,-30,-3
1532467055936,-1,0,-2,2,21,15,52,3
1532467055941,0,0,-1,6,4,-14,-12,-3
1532467055946,-1,0,1,-4,-8,2,-9,-4
1532467055951,-2,-1,1,0,11,4,15,4
1532467055956,0,0,-5,-2,-3,-6,-18,-2
1532467055961,-1,0,-1,-3,-5,0,4,1
1532467055966,-1,0,3,5,5,6,1,-1
1532467055971,-1,1,1,1,4,-9,4,-3
1532467055976,-1,-1,-1,-7,-17,-8,-18,-1
1532467055981,-1,-1,-1,0,3,0,6,2
1532467055986,0,-2,-4,-2,-7,-4,-9,-2
1532467055991,-2,-2,-1,0,8,7,2,-3
1532467055996,0,2,2,-1,-9,-7,-4,1
1532467056001,0,-1,0,-1,2,10,1,-1
1532467056006,-1,0,-1,-1,-6,-8,3,0
1532467056011,-1,1,1,-1,0,9,21,1
1532467056016,-1,-1,-1,2,3,1,-3,8
1532467056021,-4,-2,-3,-4,0,-4,-15,-11
1532467056026,1,-1,0,-1,-20,10,0,1
1532467056031,-1,-3,0,0,10,-11,6,1
1532467056036,1,2,0,1,7,-3,5,0
1532467056041,0,-1,-1,0,-4,21,11,3
1532467056046,1,0,0,5,12,2,-14,0
1532467056051,1,1,2,2,-11,3,10,2
1532467056056,-3,-2,-6,-12,-14,-8,-14,-1
1532467056061,-1,-2,-5,-10,-3,-9,2,5
1532467056066,0,0,-2,6,10,2,-4,-3
1532467056071,1,0,2,-1,0,1,5,-1
1532467056076,-1,-2,1,1,-1,0,-13,-6
1532467056081,0,-2,-2,-9,-12,-3,6,-4
1532467056086,-2,-4,-5,-12,-8,-4,2,-1
1532467056091,-1,0,-3,2,3,-12,-17,-7
1532467056096,1,0,4,10,14,27,15,1
1532467056101,2,2,3,7,8,2,2,3
1532467056106,-2,0,1,6,4,-4,6,1
1532467056111,-1,1,0,3,0,-19,-15,1
1532467056116,-1,0,-1,-13,-18,-3,-4,-8
1532467056121,-1,-3,-3,0,2,21,-10,-1
1532467056126,1,2,0,-3,-1,35,16,-1
1532467056131,-4,-3,-6,-3,-5,-17,-13,-5
1532467056136,1,3,2,18,36,13,25,7
1532467056141,-1,-2,0,-2,-8,20,-1,1
1532467056146,-4,-3,-5,-17,-5,-43,-17,-4
1532467056151,0,-3,-5,-12,-34,0,9,4
1532467056156,-2,-2,-5,-6,-4,-10,-13,-2
1532467056161,0,1,0,9,5,-8,8,1
1532467056166,1,2,4,12,19,1,-2,1
1532467056171,-2,1,2,-3,-3,31,19,-2
1532467056176,-2,-4,-5,-6,-7,-28,-44,-9
1532467056181,1,0,0,1,4,5,39,3
1532467056186,-1,1,1,3,-5,-36,-22,-5
1532467056191,0,0,-2,2,8,-23,3,-1
1532467056196,0,0,-2,-3,-11,3,0,-1
1532467056201,1,-2,0,-3,3,4,-11,-2
1532467056206,-2,-2,-1,0,-11,-11,-5,-4
1532467056211,1,-1,0,2,10,18,30,1
1532467056216,-2,-2,-2,-3,-6,-24,-21,-1
1532467056221,-1,1,-1,0,7,11,36,1
1532467056226,1,1,-1,2,4,0,-5,2
1532467056231,1,-1,2,4,7,62,-3,0
1532467056236,-3,1,-3,-8,-14,-34,1,1
1532467056241,-4,-3,-4,-6,-4,1,-15,-8
1532467056246,-1,-2,0,-2,-6,-3,0,5
1532467056251,-2,-2,-1,-2,4,-20,-9,-3
1532467056256,3,0,7,12,16,47,-4,-1
1532467056261,2,1,3,6,0,-14,-9,3
1532467056266,-4,-3,-8,-16,-6,10,15,-2
1532467056271,-1,-3,-3,-5,-9,-8,-13,-2
1532467056276,0,1,4,5,10,-10,-1,0
1532467056281,0,-3,-3,2,-15,-16,-2,-2
1532467056286,-2,-3,-3,-6,-4,14,-6,-6
1532467056291,1,-7,-1,-4,-3,-23,-17,4
1532467056296,-4,0,-1,0,-3,1,12,5
1532467056301,1,-6,2,1,3,7,12,0
1532467056306,-4,-4,-3,-1,-5,-13,-19,-12
1532467056311,-1,0,-2,-4,-2,-7,7,-4
1532467056316,5,1,2,-1,-4,-1,-7,10
1532467056321,1,-3,1,4,7,0,13,2
1532467056326,12,6,-2,-3,-10,2,-10,-2
1532467056331,-23,-11,-4,-5,1,-14,-13,-8
1532467056336,7,0,1,-1,0,14,14,-5
1532467056341,-4,-1,-3,-3,-5,-3,4,2
1532467056346,4,1,0,0,3,-2,-11,-3
1532467056351,2,3,2,4,2,-11,-3,-1
1532467056356,0,-6,-1,2,-6,1,3,1
1532467056361,9,9,-2,-7,-3,1,13,20
1532467056366,-12,-4,-5,-7,-12,19,27,-24
1532467056371,-3,-1,1,2,8,-22,0,5
1532467056376,-7,-1,0,3,-2,-34,-79,-3
1532467056381,6,4,2,4,8,60,87,8
1532467056386,-5,-4,-5,-2,-2,-14,-32,0
1532467056391,0,4,-1,-3,-1,13,3,4
1532467056396,-2,-4,-3,0,-4,0,12,-4
1532467056401,-7,-5,-2,-1,-7,-24,-38,-11
1532467056406,9,-2,2,-1,1,4,2,7
1532467056411,1,0,0,-4,-2,5,-2,1
1532467056416,3,1,-1,-1,4,9,11,-3
1532467056421,-25,-4,-1,0,0,-12,-12,-4
1532467056426,8,-12,2,7,4,4,9,3
1532467056431,33,-2,-14,-7,-2,-9,-15,-2
1532467056436,-9,6,8,2,2,3,5,-10
1532467056441,0,-6,-15,-8,-6,-8,-12,10
1532467056446,-8,3,20,-2,-5,-21,6,-2
1532467056451,-24,1,4,1,-1,28,7,2
1532467056456,-3,-5,-4,-2,-3,-9,-37,-6
1532467056461,-21,-15,18,7,8,-5,8,-5
1532467056466,8,13,-26,-2,0,-9,-41,-3
1532467056471,-2,-14,2,0,-1,4,25,2
1532467056476,2,5,3,-4,-1,13,28,4
1532467056481,11,2,3,1,-3,-12,-21,-10
1532467056486,-8,-3,2,-1,1,4,-5,-1
1532467056491,6,5,-1,-3,-5,-11,-8,-8
1532467056496,-2,-5,-7,2,1,6,-8,2
1532467056501,3,1,0,0,-3,-11,4,2
1532467056506,-7,0,3,1,2,40,7,9
1532467056511,4,15,-6,-4,-4,-60,-14,-8
1532467056516,-2,-8,2,0,-2,25,-10,0
1532467056521,3,12,-1,0,3,-10,21,1
1532467056526,-9,-6,-7,-6,-2,2,-4,-5
1532467056531,-4,-5,2,4,2,19,-2,4
1532467056536,-3,0,0,-1,-2,5,-4,0
1532467056541,-32,14,10,3,0,14,30,-10
1532467056546,54,-17,-76,-17,-1,-18,-20,5
1532467056551,-5,2,0,-4,-2,-8,-3,4
1532467056556,11,-1,2,-4,-3,-14,17,-4
1532467056561,11,-3,-18,-4,-1,6,-27,-6
1532467056566,-23,0,27,5,0,-6,8,-9
1532467056571,-6,0,-3,0,2,9,-9,5
1532467056576,-3,3,-2,0,1,6,-15,9
1532467056581,-1,-9,6,0,4,16,45,47
1532467056586,-7,2,4,0,-7,-31,-18,-43
1532467056591,-2,-4,7,-5,-6,38,6,6
1532467056596,-12,16,24,8,1,-43,22,-8
1532467056601,21,-10,-59,-11,6,8,-24,2
1532467056606,6,1,11,0,-4,-25,-13,14
1532467056611,-13,5,3,4,-4,5,13,-19
1532467056616,5,-10,5,-5,-2,-1,13,-30
1532467056621,-7,-4,16,-3,-10,-8,-1,13
1532467056626,6,6,8,5,3,18,11,14
1532467056631,5,-9,-3,2,-1,-26,-22,-18
1532467056636,-18,4,-3,0,3,32,35,3
1532467056641,3,-14,-8,-3,-5,-25,-21,-35
1532467056646,-3,9,26,1,0,0,-2,7
1532467056651,23,7,-23,-1,0,-17,-9,25
1532467056656,17,-4,6,0,1,-15,-8,44
1532467056661,-4,0,-3,-2,5,26,3,-17
1532467056666,-7,-14,-22,-6,2,-6,-26,-15
1532467056671,-18,-7,30,5,-1,18,33,25
1532467056676,-26,4,-11,-2,-8,-15,5,-104
1532467056681,28,5,10,-5,-2,24,11,92
1532467056686,21,23,22,7,9,17,14,91
1532467056691,-4,-12,-11,-2,3,-11,-2,-18
1532467056696,6,8,-14,1,6,41,-10,1
1532467056701,-18,7,59,2,-10,-39,-32,-64
1532467056706,-26,-12,-60,-4,-3,-3,31,-61
1532467056711,-2,-10,-1,6,18,-28,-11,0
1532467056716,-15,0,33,1,-10,-9,0,-17
1532467056721,10,-17,-34,-3,1,18,15,2
1532467056726,0,7,0,-9,-1,-4,3,16
1532467056731,-3,7,-3,1,-5,-1,-14,-10
1532467056736,5,3,-3,-3,2,-2,4,-9
1532467056741,-17,-1,1,2,2,15,23,-8
1532467056746,-7,1,28,9,2,-10,-6,18
1532467056751,26,6,-16,-2,-2,7,-14,-11
1532467056756,-25,-13,-8,-6,-2,-6,1,-16
1532467056761,13,18,7,1,3,3,-9,10
1532467056766,5,5,-19,-2,0,-14,-6,-14
1532467056771,-6,-4,1,-4,-6,-5,-9,19
1532467056776,-1,-7,14,1,-1,9,7,-9
1532467056781,0,4,-12,-9,0,9,-5,10
1532467056786,2,-11,4,2,0,-26,1,-6
1532467056791,-8,6,-5,-3,-9,9,9,-17
1532467056796,-2,0,-8,3,7,7,2,12
1532467056801,8,-3,-10,4,1,-8,-11,-5
1532467056806,-7,-13,-7,-4,-3,-1,-2,-2
1532467056811,2,-4,-7,-3,2,14,10,-2
1532467056816,8,10,19,2,-4,-19,-9,7
1532467056821,-23,-9,1,0,6,-6,-7,-4
1532467056826,4,2,-28,0,5,11,18,-2
1532467056831,-4,-5,6,2,-20,-16,1,4
1532467056836,-14,-11,40,-1,0,12,-4,-45
1532467056841,10,0,-35,0,-1,-2,-7,32
1532467056846,0,8,7,1,2,4,5,-15
1532467056851,-2,-37,-8,-4,15,-5,-3,-9
1532467056856,19,22,-2,-7,-16,-43,-13,37
1532467056861,0,-5,12,-1,-13,8,2,3
1532467056866,-26,-6,-15,-1,-1,-8,1,-2
1532467056871,1,7,-3,2,-2,20,16,-14
1532467056876,2,-25,-9,-1,8,4,-30,-20
1532467056881,-16,16,11,-1,-2,-3,16,-17
1532467056886,-15,-10,2,1,-7,-26,-12,9
1532467056891,13,9,-3,-2,1,24,10,-4
1532467056896,11,2,-8,-4,-4,-41,-15,7
1532467056901,-10,-3,-17,-2,-4,14,4,5
1532467056906,10,5,15,-1,-1,24,9,-16
1532467056911,-35,-19,-22,-3,5,-7,6,-20
1532467056916,23,3,-25,-8,-7,23,-2,100
1532467056921,19,18,28,8,4,-7,-11,-24
1532467056926,14,-5,9,1,-5,-17,-18,10
1532467056931,-6,5,-21,-3,-1,55,15,-19
1532467056936,-16,-7,-5,3,-1,-35,4,-30
1532467056941,-4,-1,12,-4,-6,-19,-2,-1
1532467056946,3,10,-3,-2,2,48,-7,1
1532467056951,1,-2,26,8,17,-49,-3,2
1532467056956,-14,-1,-27,-8,-2,55,12,-33
1532467056961,15,2,21,2,-2,-13,6,48
1532467056966,0,5,-2,-4,-5,-18,2,-2
1532467056971,0,-13,-4,-1,-10,-21,-11,18
1532467056976,9,9,6,5,14,0,16,3
1532467056981,-79,-16,-3,-2,6,56,-12,-98
1532467056986,50,-3,1,4,-4,-46,-17,44
1532467056991,25,13,14,0,6,-9,-20,-17
1532467056996,1,-4,13,-5,-6,16,2,-27
1532467057001,4,-13,-40,-5,-4,-4,-2,-1
1532467057006,-38,-8,3,2,11,-11,8,-24
1532467057011,3,7,3,6,-3,9,-8,4
1532467057016,-1,-8,1,-8,3,-19,2,6
1532467057021,-8,1,18,-8,-15,-7,-5,-17
1532467057026,-4,5,-19,-6,-10,4,-1,5
1532467057031,18,6,7,6,-6,-4,27,33
1532467057036,-15,-7,-8,6,13,20,3,-12
1532467057041,15,-1,6,-2,1,-17,-28,7
1532467057046,8,9,5,-3,-9,-6,50,-4
1532467057051,-30,1,-3,-4,-6,28,-25,5
1532467057056,9,1,-7,2,-1,-11,-11,-2
1532467057061,14,0,5,1,11,1,34,10
1532467057066,-13,-12,-12,1,-1,-3,-3,-4
1532467057071,20,3,-5,-4,-6,-32,-29,-9
1532467057076,-14,-7,2,4,-4,20,6,-2
1532467057081,22,3,-5,4,31,-4,-10,10
1532467057086,4,3,12,1,-37,-5,-10,-5
1532467057091,-21,-1,-10,4,33,-2,7,1
1532467057096,4,-3,-4,-9,2,-9,-5,-6
1532467057101,8,-10,2,-7,-24,0,9,12
1532467057106,-4,-6,8,2,15,54,-19,-7
1532467057111,-6,-4,-15,-5,-10,-30,-21,3
1532467057116,6,13,12,8,12,1,9,-7
1532467057121,-14,1,1,-3,-10,-10,-12,-11
1532467057126,-3,-9,-10,-5,-2,-27,-6,2
1532467057131,-6,-5,4,0,-5,18,-7,-4
1532467057136,-2,-3,-9,4,6,17,6,8
1532467057141,22,11,3,2,-2,-9,3,4
1532467057146,-15,-2,23,4,9,17,-4,-5
1532467057151,4,8,-28,-6,1,-15,19,-8
1532467057156,-5,-6,-2,-4,-13,15,7,-3
1532467057161,-1,7,4,2,-8,-18,-4,3
1532467057166,27,-3,-18,-3,17,-4,-2,1
1532467057171,-2,-5,5,-7,-10,0,10,-2
1532467057176,-3,-2,-5,3,-5,-24,0,11
1532467057181,0,-1,-7,-9,-17,32,-7,-6
1532467057186,6,11,15,7,5,-25,-6,7
1532467057191,-3,-4,6,12,24,13,-10,-6
1532467057196,-6,4,-5,-3,-37,-14,33,0
1532467057201,-3,-3,3,-3,27,19,0,0
1532467057206,-4,-4,-7,-8,-13,-1,21,1
1532467057211,4,3,2,-1,-15,-6,2,3
1532467057216,-9,-6,5,2,19,0,-16,-9
1532467057221,-14,-7,25,8,2,-6,1,-5
1532467057226,9,-7,-56,-5,0,4,-9,0
1532467057231,0,2,2,1,3,1,2,-7
1532467057236,9,-1,-2,-9,-10,17,-5,11
1532467057241,-31,-6,-8,-8,-13,-9,8,-22
1532467057246,22,1,19,-1,1,-13,-13,13
1532467057251,5,5,-2,-3,-17,-2,2,1
1532467057256,-1,-4,9,7,11,-9,13,-4
1532467057261,-7,-11,-20,-4,11,5,-7,3
1532467057266,-17,3,14,-2,1,4,-8,-9
1532467057271,-1,-4,0,-4,-13,7,13,-15
1532467057276,5,8,5,-6,-4,-22,-14,5
1532467057281,-1,-8,-5,5,1,14,-19,6
1532467057286,-1,9,16,11,18,-6,14,-5
1532467057291,-11,-4,-30,-5,13,21,23,4
1532467057296,-2,0,0,-6,-17,-8,-20,-16
1532467057301,9,-1,3,2,-10,-17,6,0
1532467057306,-3,-4,-2,-1,2,18,-12,1
1532467057311,10,5,29,0,-9,-11,-2,23
1532467057316,-13,4,-20,-1,9,6,3,-2
1532467057321,11,17,-17,-5,-4,-20,-12,-14
1532467057326,-10,-10,26,2,0,7,4,-4
1532467057331,-16,6,14,1,-6,-15,3,-7
1532467057336,6,-8,-21,-3,15,9,0,1
1532467057341,-8,-4,-1,6,-29,-6,14,3
1532467057346,-4,4,-22,-6,22,-13,-16,-4
1532467057351,3,-3,24,1,-38,-3,-7,-2
1532467057356,2,-9,-26,0,18,24,39,-1
1532467057361,10,3,9,3,19,-20,-5,0
1532467057366,-36,-3,2,-6,-4,23,3,-11
1532467057371,8,-10,-8,-5,-8,-12,-23,5
1532467057376,-8,-7,5,-2,-18,12,14,-13
1532467057381,20,1,-2,10,8,12,6,8
1532467057386,7,-1,-10,2,5,-2,7,4
1532467057391,-18,3,3,-6,19,-6,-4,-5
1532467057396,20,5,5,4,-15,-16,-14,-3
1532467057401,-2,-3,-1,-4,5,3,-13,0
1532467057406,3,6,16,0,-17,-14,-23,-5
1532467057411,-8,-7,-15,-5,2,11,4,-5
1532467057416,-2,0,8,5,7,1,5,17
1532467057421,8,2,-2,5,4,9,-4,11
1532467057426,-7,-6,-2,-3,-6,-9,1,-5
1532467057431,15,-2,-9,0,0,-49,-21,-12
1532467057436,1,4,15,0,1,32,25,-1
1532467057441,-29,-8,-2,-1,-2,-20,-43,-1
1532467057446,0,-8,-13,-8,-14,15,26,7
1532467057451,-13,5,5,3,8,15,6,-15
1532467057456,8,6,6,10,3,-24,-31,3
1532467057461,-10,2,23,7,19,18,10,-2
1532467057466,40,-3,-14,-12,-15,-9,7,-4
1532467057471,11,-12,-22,-13,-14,-11,-12,1
1532467057476,-5,5,13,-2,-3,16,-6,-5
1532467057481,13,9,8,3,-4,-26,-1,-1
1532467057486,-15,3,8,6,-10,26,-2,-3
1532467057491,-9,0,9,6,6,-2,3,7
1532467057496,-12,-2,-5,-2,-3,-13,-15,-10
1532467057501,10,-9,-12,1,9,16,6,5
1532467057506,-11,-6,-4,-1,4,-10,-10,-3
1532467057511,-2,-3,0,2,7,27,6,14
1532467057516,11,-3,-3,0,1,0,-3,1
1532467057521,-11,-2,-9,-7,-13,-20,-21,-18
1532467057526,-4,4,-7,-6,-4,-3,-11,-2
1532467057531,12,-5,6,4,-5,13,46,10
1532467057536,-9,-4,-1,3,13,-16,-27,-5
1532467057541,12,0,0,-3,-7,38,68,4
1532467057546,5,3,2,3,-3,-16,-1,7
1532467057551,7,5,7,-5,20,1,-15,-7
1532467057556,-37,-4,-14,-10,-25,-23,-11,-15
1532467057561,22,-9,-2,-5,-7,-9,37,9
1532467057566,-4,1,6,8,2,2,-15,8
1532467057571,23,7,-4,6,3,4,0,2
1532467057576,4,-2,2,3,18,10,1,6
1532467057581,-10,0,1,-6,-2,9,-20,-19
1532467057586,1,-7,-2,1,7,-8,3,16
1532467057591,-45,-9,-1,-2,-1,11,-47,-8
1532467057596,14,-2,1,-1,-2,-13,41,5
1532467057601,-2,0,-4,0,2,-7,-13,3
1532467057606,-15,11,1,-4,-6,-1,19,-8
1532467057611,15,0,-4,0,8,0,-3,-1
1532467057616,-6,-3,0,-1,-2,5,2,1
1532467057621,-14,-2,-1,-3,-15,-1,-5,6
1532467057626,3,-9,-3,-3,11,0,-1,-6
1532467057631,6,5,-4,-4,-22,-9,11,0
1532467057636,6,5,2,-5,3,5,-5,-2
1532467057641,8,0,1,1,-7,-11,4,13
1532467057646,6,-4,-5,4,-1,2,16,-4
1532467057651,-27,-9,0,0,13,3,-1,-11
1532467057656,5,-12,4,-1,-8,-9,-33,0
1532467057661,-14,4,-3,3,9,7,-9,-8
1532467057666,17,-7,-2,-3,-10,-15,-4,14
1532467057671,-3,2,3,5,5,11,50,12
1532467057676,-21,-3,-1,2,3,-4,-16,4
1532467057681,-13,-3,-2,-6,2,-7,-2,-11
1532467057686,-6,1,-2,-1,-2,7,-13,-3
1532467057691,19,1,5,3,-10,-34,-27,-10
1532467057696,-7,-1,1,4,-2,13,14,-35
1532467057701,-2,-4,-21,-13,-15,0,-41,-12
1532467057706,-6,7,2,-8,-17,-11,-38,1
1532467057711,-4,1,0,2,12,19,104,29
1532467057716,29,-7,0,0,-2,-4,-27,16
1532467057721,-11,0,6,7,6,-1,3,-1
1532467057726,5,1,1,3,9,0,5,7
1532467057731,7,-1,-7,-8,-13,-10,-3,5
1532467057736,-16,-8,-9,-3,-4,0,44,-4
1532467057741,4,-2,8,2,0,-8,-25,8
1532467057746,10,17,8,4,11,1,-6,18
1532467057751,0,-8,-1,0,16,16,43,-13
1532467057756,5,-3,-5,-13,-28,-7,6,-12
1532467057761,-4,6,-6,2,-3,-10,-4,6
1532467057766,18,7,5,4,-1,3,3,6
1532467057771,-15,1,4,8,8,7,-85,4
1532467057776,-20,-12,-6,2,21,15,21,-13
1532467057781,19,-6,1,-11,-16,-3,-24,-3
1532467057786,2,9,1,1,-7,0,-20,1
1532467057791,8,-4,-4,-3,-10,-22,-35,6
1532467057796,1,13,9,18,21,24,67,26
1532467057801,-2,-11,-4,-3,0,-4,-24,-1
1532467057806,19,3,0,-6,-17,-4,22,-1
1532467057811,-16,-3,-6,-3,24,-3,22,-19
1532467057816,-15,-10,-10,-16,-25,-28,-65,-18
1532467057821,5,-8,2,2,-17,-10,3,0
1532467057826,-12,4,1,4,0,21,23,-6
1532467057831,2,-7,-2,1,5,12,36,10
1532467057836,-7,-2,-2,-4,-2,-10,-23,-15
1532467057841,-1,5,1,-1,1,16,-8,-2
1532467057846,-10,-4,1,4,7,-31,8,-17
1532467057851,15,15,0,1,-2,7,6,11
1532467057856,5,-17,-4,-4,5,2,-19,-10
1532467057861,-6,2,2,2,0,-9,-12,0
1532467057866,-9,-4,-4,-4,-4,9,-17,-3
1532467057871,6,-1,3,8,3,1,21,19
1532467057876,7,2,2,7,17,9,-13,1
1532467057881,-9,-4,-7,-16,-6,-32,-4,-7
1532467057886,2,2,0,-10,-14,1,5,6
1532467057891,9,3,4,3,4,15,7,15
1532467057896,1,-7,-5,-4,-35,-2,-21,-1
1532467057901,-3,6,3,13,19,-7,3,-10
1532467057906,9,2,2,7,33,14,-64,17
1532467057911,-8,3,-1,-11,-31,3,-71,10
1532467057916,0,4,1,0,12,-6,22,-11
1532467057921,-3,-1,4,6,19,35,29,-5
1532467057926,-14,1,0,6,-5,-24,85,6
1532467057931,-10,-8,-6,-9,-1,-31,80,-22
1532467057936,-6,-2,-4,-7,-16,8,38,12
1532467057941,-5,1,1,2,4,-2,30,-7
1532467057946,14,8,-3,3,13,6,4,4
1532467057951,5,1,-3,-7,-4,6,3,-6
1532467057956,-7,2,-1,-1,-5,-20,6,-9
1532467057961,4,0,-5,-5,-7,25,-12,32
1532467057966,-6,-4,0,-1,-5,-3,-3,-8
1532467057971,13,4,3,8,10,1,-2,8
1532467057976,7,6,-1,6,12,3,12,10
1532467057981,2,-5,-1,-2,-2,5,-19,13
1532467057986,-7,-4,-5,-10,-15,-4,-10,1
1532467057991,13,8,0,-8,-15,-9,10,10
1532467057996,-10,-10,-7,-5,-5,8,-3,0
1532467058001,0,-6,-3,-4,-14,-19,-7,-3
1532467058006,-27,-6,-1,-2,0,0,-5,1
1532467058011,3,-4,-3,-14,6,10,-1,-3
1532467058016,-17,-6,0,-11,-36,18,7,-7
1532467058021,-7,2,5,5,-5,-18,-1,7
1532467058026,29,11,-4,-1,-6,7,-2,-2
1532467058031,-45,-7,-1,4,7,-16,3,-3
1532467058036,49,3,1,4,14,-4,0,1
1532467058041,5,0,0,3,1,6,1,-6
1532467058046,-14,-6,-3,-3,-2,-14,2,-10
1532467058051,-4,3,-2,-3,1,23,3,5
1532467058056,3,0,-1,-2,-3,3,-3,2
1532467058061,0,-2,0,3,0,-4,-6,-11
1532467058066,7,-2,1,5,4,3,0,-3
1532467058071,5,-1,-1,-4,-14,-19,-2,-8
1532467058076,-15,-6,-3,-6,-3,-9,-1,-17
1532467058081,1,-2,-4,-10,-14,-1,1,6
1532467058086,-11,-4,-3,-2,5,3,-1,-12
1532467058091,7,1,-1,1,-7,-1,3,-2
1532467058096,-11,-1,2,9,6,-4,-2,4
1532467058101,10,4,0,2,12,-2,0,4
1532467058106,-2,0,3,0,1,23,-1,-2
1532467058111,3,-6,-3,0,4,-13,0,-1
1532467058116,-2,1,1,2,-5,-13,2,-6
1532467058121,-5,-5,-4,-7,9,-7,-1,-19
1532467058126,-9,-5,-2,-9,-29,-4,0,-3
1532467058131,8,2,2,5,4,2,2,-13
1532467058136,-5,-4,2,7,4,-3,1,21
1532467058141,-3,-3,-2,-3,17,2,-5,-13
1532467058146,-2,4,-4,-9,-13,4,3,-11
1532467058151,4,2,0,-4,-1,-9,1,1
1532467058156,-10,5,2,1,-1,-2,3,11
1532467058161,-3,-5,-1,-4,-6,-1,4,1
1532467058166,7,0,6,7,16,1,0,8
1532467058171,-9,0,-1,-2,-11,-5,1,0
1532467058176,6,1,0,3,-1,1,0,-12
1532467058181,-4,-4,-4,1,-1,4,-2,-2
1532467058186,-5,-2,-5,-8,1,7,2,13
1532467058191,5,-4,2,7,0,5,0,-1
1532467058196,0,-3,-5,-11,-2,-6,1,-7
1532467058201,3,3,5,0,-29,2,3,20
1532467058206,2,0,2,14,32,7,-3,-2
1532467058211,2,-8,-6,-16,-9,2,-1,-2
1532467058216,0,-3,-4,-3,-1,-1,-3,-6
1532467058221,-2,6,2,0,-5,6,0,-7
1532467058226,-2,-5,0,5,-8,-21,0,-3
1532467058231,8,3,0,-2,10,8,-1,11
1532467058236,-9,-16,-3,-6,-5,17,1,4
1532467058241,6,11,-1,2,3,-7,-1,-1
1532467058246,-3,-14,-1,3,2,7,-5,1
1532467058251,8,5,-2,0,1,-17,-12,-10
1532467058256,-9,1,0,1,3,0,-5,10
1532467058261,6,-4,1,1,2,0,-1,-11
1532467058266,-4,-1,0,1,-3,0,7,-1
1532467058271,-3,0,-1,3,20,-2,5,-11
1532467058276,3,-1,-5,-22,-40,-2,7,6
1532467058281,-8,-5,-2,-5,-7,-14,-4,-2
1532467058286,-3,6,-1,-3,-2,-2,-5,8
1532467058291,-6,-6,3,5,-7,-10,-25,-12
1532467058296,-1,2,1,14,26,4,-8,-2
1532467058301,-7,-3,-3,-3,2,-12,-25,-1
1532467058306,6,6,-4,-13,-32,-2,-6,-4
1532467058311,-7,-9,1,4,1,11,-1,9
1532467058316,13,4,0,0,6,-6,-21,15
1532467058321,-9,3,1,2,1,10,8,-3
1532467058326,-5,-6,-1,6,15,-2,-15,0
1532467058331,13,8,-4,-10,-5,0,-9,16
1532467058336,-30,3,2,-1,-9,-1,17,-11
1532467058341,5,-6,-1,1,4,3,12,2
1532467058346,1,4,2,1,-7,5,20,0
1532467058351,-5,-1,3,5,5,-6,81,1
1532467058356,4,-2,-4,-4,-3,0,22,-10
1532467058361,15,4,0,-5,-1,8,118,7
1532467058366,-19,-10,-8,-16,-18,-23,23,-16
1532467058371,6,-2,-1,3,-4,1,-33,1
1532467058376,11,1,0,5,9,-3,-33,-3
1532467058381,-21,3,2,9,6,1,-66,-3
1532467058386,18,-5,2,8,24,17,-18,10
1532467058391,-3,-5,-4,-15,-15,-12,-29,-6
1532467058396,7,0,-3,-5,-14,-21,-19,-5
1532467058401,1,-1,-1,1,-1,28,3,5
1532467058406,6,3,2,2,14,9,4,3
1532467058411,-9,-1,-3,-3,-4,-13,-3,-7
1532467058416,-6,5,4,2,7,8,-18,0
1532467058421,3,-16,-3,-6,-15,-12,-25,-11
1532467058426,-7,1,4,10,12,4,-11,-3
1532467058431,1,-2,-1,4,1,4,-4,-2
1532467058436,5,0,-3,-9,-2,-14,4,-7
1532467058441,-14,-11,-3,-3,-5,-13,-13,-1
1532467058446,0,5,-2,-3,-5,5,2,-1
1532467058451,4,-6,0,4,3,-2,-7,-1
1532467058456,-15,4,1,8,7,11,40,1
1532467058461,1,-8,-11,-6,3,-2,5,12
1532467058466,-4,1,3,0,1,-3,-38,-11
1532467058471,2,1,-1,-6,-10,10,13,-9
1532467058476,-4,-1,1,0,4,4,10,6
1532467058481,6,6,3,0,0,-5,-5,-3
1532467058486,-2,-6,-5,-4,-6,-6,6,2
1532467058491,-4,2,-3,-2,-2,-6,17,1
1532467058496,6,0,3,2,7,16,13,-2
1532467058501,6,-14,-1,-2,1,-3,-25,2
1532467058506,-2,2,-4,-3,-3,4,10,-5
1532467058511,7,3,-1,-1,-2,-4,-11,13
1532467058516,3,0,1,0,-4,-7,2,-2
1532467058521,-11,-2,8,4,8,1,12,-11
1532467058526,2,2,-1,-1,13,-1,22,3
1532467058531,-10,-1,-2,0,-17,0,3,-4
1532467058536,8,-7,0,4,15,2,10,-1
1532467058541,3,8,1,-9,-15,-11,-3,0
1532467058546,-2,6,-12,-8,-7,-2,-9,0
1532467058551,-12,-7,3,1,6,3,-2,5
1532467058556,6,-1,0,4,4,0,-12,0
1532467058561,-4,6,7,4,2,-2,-4,-6
1532467058566,-12,-7,-3,-7,-11,-3,1,-4
1532467058571,4,-3,-2,1,0,-6,-7,1
1532467058576,-6,-18,6,-4,-3,4,-1,-7
1532467058581,3,13,-4,2,6,-1,-1,1
1532467058586,3,-4,-9,-5,-6,-5,-8,-1
1532467058591,-2,2,4,5,-2,-2,-14,0
1532467058596,-5,0,5,2,0,-4,-12,1
1532467058601,8,8,-7,1,-1,5,9,5
1532467058606,2,-12,1,3,4,-2,0,1
1532467058611,0,2,1,-4,12,-5,-4,-3
1532467058616,-1,-3,-9,-6,-18,-2,3,-1
1532467058621,0,-2,-2,-1,-2,5,0,0
1532467058626,9,5,12,5,-5,0,-4,1
1532467058631,-10,2,-6,3,12,6,15,0
1532467058636,-4,-1,-10,-6,1,-11,4,-3
1532467058641,3,2,3,-9,-6,-11,-3,-2
1532467058646,-3,-5,-3,-2,-17,1,1,-3
1532467058651,10,1,3,-1,-9,4,9,1
1532467058656,-2,7,-1,6,-1,5,19,-2
1532467058661,4,-1,-6,3,6,-1,-13,-3
1532467058666,1,3,6,1,7,5,6,0
1532467058671,0,0,-3,-2,-7,-8,-9,-4
1532467058676,5,5,0,0,0,-3,3,6
1532467058681,3,-4,-4,1,20,12,28,2
1532467058686,3,1,0,-1,5,3,21,4
1532467058691,-18,-7,-14,-1,-7,-4,-9,-2
1532467058696,3,-9,-4,-7,3,-4,-19,-6
1532467058701,-4,-2,22,2,-14,-9,-15,-3
1532467058706,-2,-10,-15,-7,1,0,-2,-1
1532467058711,1,4,2,-1,3,2,19,-1
1532467058716,2,2,1,3,4,-3,3,4
1532467058721,-12,0,-5,-4,-5,0,1,-5
1532467058726,6,18,8,2,-2,3,-5,1
1532467058731,-4,-19,1,-4,-2,4,-21,0
1532467058736,-4,1,-4,-1,-4,2,-17,-1
1532467058741,-2,-3,-1,0,-3,-8,-1,-1
1532467058746,-1,1,1,5,0,-23,-1,4
1532467058751,4,0,0,2,17,3,11,-1
1532467058756,-4,-3,-1,-8,-9,8,35,-4
1532467058761,22,-3,-9,-3,3,21,-2,6
1532467058766,-24,-1,-1,-3,-7,19,-2,-6
1532467058771,1,0,-1,1,-1,-9,2,0
1532467058776,-7,2,5,2,-4,-44,-32,-6
1532467058781,13,-9,-8,-2,-4,-12,2,1
1532467058786,5,9,-4,-6,-2,-11,-6,0
1532467058791,-3,-12,5,-3,-4,14,-9,-10
1532467058796,4,-7,-3,-2,3,15,-9,-3
1532467058801,-19,5,-4,-3,-4,-9,10,5
1532467058806,0,-15,1,2,5,13,5,2
1532467058811,-1,6,3,2,-7,-26,-15,-1
1532467058816,15,5,-2,2,1,-11,41,3
1532467058821,-14,-6,-2,-2,-6,41,-4,-6
1532467058826,3,-2,2,-6,11,-12,-5,-3
1532467058831,9,8,1,-2,-12,8,13,4
1532467058836,-11,-5,-3,5,1,18,-1,1
1532467058841,11,1,-4,8,9,-11,-16,-4
1532467058846,-22,-9,-1,-4,5,-45,9,-6
1532467058851,7,1,10,-11,-22,-27,-17,8
1532467058856,-4,-3,2,-5,-3,13,-54,-10
1532467058861,14,-4,5,6,6,26,35,19
1532467058866,9,5,2,10,6,24,-16,1
1532467058871,-14,-3,-9,4,9,-8,10,-5
1532467058876,-10,-3,2,-10,-18,-18,-39,-8
1532467058881,19,8,-9,-6,1,-4,-5,-1
1532467058886,-2,-5,-3,1,-3,-6,0,-2
1532467058891,-20,2,0,-3,-3,9,-12,-14
1532467058896,-6,-4,-3,3,6,14,15,9
1532467058901,-17,-7,2,-2,-5,-18,20,-11
1532467058906,20,10,2,2,-4,15,6,8
1532467058911,9,-1,-6,-2,3,12,9,3
1532467058916,-34,-13,1,3,0,3,8,-4
1532467058921,14,-15,-4,-5,9,-20,-19,-1
1532467058926,9,0,-12,-14,-25,20,-7,-5
1532467058931,18,16,13,5,4,-11,3,3
1532467058936,11,19,14,5,2,-31,-6,2
1532467058941,-8,-4,-2,-1,-7,-6,2,-2
1532467058946,-8,-7,3,4,13,23,-10,-1
1532467058951,-1,-7,-2,-3,-6,-2,-1,2
1532467058956,11,-5,-14,0,4,-7,3,-4
1532467058961,-16,10,1,-5,-6,-11,-15,-14
1532467058966,2,-8,-3,-4,0,1,1,2
1532467058971,4,3,-4,4,5,17,15,8
1532467058976,3,-2,2,-1,-3,-1,-23,2
1532467058981,-32,-14,0,1,-3,-15,-13,4
1532467058986,-4,0,1,7,7,15,11,2
1532467058991,5,-7,-4,-2,-2,-5,-1,-2
1532467058996,-4,7,-1,-1,-1,16,30,-3
1532467059001,2,3,2,2,4,7,-6,-2
1532467059006,3,-1,0,-5,-8,-11,1,3
1532467059011,-4,2,2,-1,1,-10,0,-2
1532467059016,10,-8,-12,-4,-1,17,14,2
1532467059021,-8,6,0,-4,-11,-18,-35,-10
1532467059026,0,-7,3,8,7,22,21,4
1532467059031,3,1,-4,2,12,-12,-18,-4
1532467059036,2,0,-6,-9,-18,-3,1,-7
1532467059041,13,2,2,3,3,4,15,10
1532467059046,-1,-12,-3,-5,-8,-11,0,-6
1532467059051,-22,-6,-4,4,5,14,0,-8
1532467059056,2,-1,6,0,4,-7,1,-3
1532467059061,5,0,0,1,-1,8,13,6
1532467059066,1,9,4,8,15,-9,-15,-3
1532467059071,24,1,1,-10,-18,11,18,10
1532467059076,-11,-18,-9,-2,5,-6,0,0
1532467059081,-13,1,-3,1,-1,1,-2,-20
1532467059086,26,8,-1,7,-7,-11,10,17
1532467059091,-9,-1,7,-5,20,11,-20,-7
1532467059096,9,7,-1,-7,-22,-3,28,-3
1532467059101,0,-4,0,2,3,0,-17,0
1532467059106,-7,-3,0,1,-2,-9,-9,-11
1532467059111,0,-2,-4,4,4,-2,7,0
1532467059116,-15,-8,-4,-4,4,0,-14,3
1532467059121,1,7,-4,-7,-13,1,7,-5
1532467059126,-17,6,10,-1,-2,-14,7,-24
1532467059131,7,0,2,-1,0,8,9,23
1532467059136,-1,5,5,4,1,5,7,5
1532467059141,-9,4,-8,3,9,-4,-6,-4
1532467059146,7,-4,-10,-16,-7,-4,-18,-4
1532467059151,-8,-11,-3,-2,-20,-1,-6,-14
1532467059156,-2,4,-8,0,5,-9,-6,-3
1532467059161,14,5,9,6,-1,5,15,6
1532467059166,-7,5,13,3,2,-8,-25,-9
1532467059171,5,-5,-2,2,7,-6,-13,7
1532467059176,31,17,11,6,6,11,-3,18
1532467059181,4,-2,1,-5,-7,-8,-10,4
1532467059186,-2,-12,-8,1,-2,2,11,-2
1532467059191,-4,11,-14,-2,11,22,-2,-7
1532467059196,-2,-4,15,2,-7,-21,-1,2
1532467059201,9,-5,-3,-2,-1,-10,4,-1
1532467059206,-12,-12,-5,-5,-8,-3,4,0
1532467059211,-14,-7,-8,-1,-9,-2,13,-6
1532467059216,7,5,-1,2,10,15,9,2
1532467059221,4,-2,-1,-1,0,-1,-17,-3
1532467059226,-4,0,-4,2,0,-4,-4,6
1532467059231,3,1,3,-2,-8,-5,26,-2
1532467059236,-5,-16,-10,-9,1,6,-6,-2
1532467059241,-19,3,5,-1,-3,0,6,3
1532467059246,1,0,-4,1,-4,1,-13,1
1532467059251,-8,-13,-16,9,8,-7,-2,3
1532467059256,11,32,24,-2,14,-8,-3,-5
1532467059261,-1,-15,-14,-11,-29,1,-4,-7
1532467059266,-18,13,12,2,0,-9,10,-2
1532467059271,25,9,9,2,-6,0,13,8
1532467059276,-10,-13,-14,2,14,12,4,0
1532467059281,-8,0,5,0,11,9,8,-4
1532467059286,2,-4,-12,-9,-13,-18,-4,-6
1532467059291,4,-4,2,3,6,31,-26,23
1532467059296,-8,-1,-4,1,-4,-7,-9,-7
1532467059301,0,-1,-3,2,6,-4,4,2
1532467059306,2,-4,-5,-1,3,-8,-30,-2
1532467059311,-6,3,2,-5,-6,-7,15,-9
1532467059316,-13,-1,-1,1,-6,2,-1,2
1532467059321,-1,1,1,4,13,22,0,0
1532467059326,16,3,-4,-12,-4,-11,42,14
1532467059331,-17,5,2,-6,-12,-2,1,-6
1532467059336,-11,-32,-4,0,-2,2,-3,0
1532467059341,-9,2,-1,0,-5,-3,19,-2
1532467059346,-5,6,2,5,9,6,-27,-11
1532467059351,5,3,1,1,13,-4,-2,-5
1532467059356,10,1,-5,-8,-20,-6,3,1
1532467059361,-1,-11,-10,-2,3,-4,-4,9
1532467059366,1,9,-9,1,0,11,15,2
1532467059371,13,7,16,1,-7,-7,-2,12
1532467059376,-10,3,-3,4,6,-4,-15,-8
1532467059381,10,2,7,-4,-3,-4,2,6
1532467059386,-2,-2,-4,0,-3,12,13,-8
1532467059391,-2,-10,-10,-1,-4,-18,3,-8
1532467059396,3,5,-2,-3,0,-4,-23,2
1532467059401,0,-2,-6,-3,1,10,25,1
1532467059406,1,1,-2,-7,-10,3,2,2
1532467059411,-9,-5,0,1,2,-7,16,-8
1532467059416,4,0,2,4,1,-8,41,-1
1532467059421,-1,-2,-1,4,14,6,-11,3
1532467059426,25,16,7,-1,-11,-2,-7,1
1532467059431,-81,-20,-5,-8,-4,1,-5,-12
1532467059436,-5,-4,-6,-2,-5,-1,-12,-6
1532467059441,25,2,2,2,1,-3,11,8
1532467059446,-8,6,5,5,8,2,6,-4
1532467059451,21,4,-3,-3,-1,-4,5,-1
1532467059456,-1,-3,-2,2,-1,0,-20,-4
1532467059461,-7,0,3,0,-3,-11,-20,-7
1532467059466,-4,-14,-1,-1,-1,2,17,11
1532467059471,13,10,0,2,2,-4,-12,-19
1532467059476,1,3,-3,1,1,4,-11,5
1532467059481,3,-7,-1,-2,-5,-15,-9,-6
1532467059486,-6,-6,-3,-1,1,12,5,2
1532467059491,2,1,1,-1,-3,-12,-27,-5
1532467059496,14,-2,5,2,4,13,25,1
1532467059501,-18,6,-8,-6,-6,-9,-11,-5
1532467059506,-10,-7,-5,-4,-1,-7,5,1
1532467059511,6,1,0,-2,0,0,-2,4
1532467059516,3,-2,0,0,-1,2,-7,-6
1532467059521,3,-3,4,4,-1,3,3,0
1532467059526,-15,0,0,0,1,-5,-7,-12
1532467059531,22,5,-1,-4,-3,4,27,3
1532467059536,-12,-2,0,-1,4,-1,4,2
1532467059541,-5,-1,-2,-2,-8,1,4,-6
1532467059546,1,-3,1,2,3,0,-3,2
1532467059551,9,-1,-1,-2,-3,-5,-15,-4
1532467059556,-2,-3,-3,-3,-2,8,21,4
1532467059561,-4,7,3,2,2,-5,-33,-1
1532467059566,3,-15,-1,0,3,3,-28,-8
1532467059571,-4,0,-6,1,0,-8,8,2
1532467059576,10,0,1,-2,-3,-4,9,5
1532467059581,-5,5,1,-1,2,0,-1,-5
1532467059586,2,2,-1,-3,-6,-7,-5,-2
1532467059591,-5,-6,-1,-1,-1,4,-6,-3
1532467059596,-6,1,-4,0,-1,-2,-4,-6
1532467059601,6,-1,2,2,0,-1,-9,2
1532467059606,4,1,-3,-4,-4,-7,5,6
1532467059611,-3,-6,-3,-2,0,5,-6,-7
1532467059616,-7,12,-4,-4,-4,-3,-8,-1
1532467059621,-4,-2,1,-2,-1,1,26,-1
1532467059626,-3,-4,2,3,2,1,-5,-10
1532467059631,1,3,1,0,1,2,-12,11
1532467059636,-1,-3,1,-1,-2,-4,-13,-6
1532467059641,0,-1,-6,-1,-1,0,0,-3
1532467059646,-1,2,2,0,-1,0,10,6
1532467059651,0,-2,-3,-2,-1,-2,7,-1
1532467059656,1,-1,-2,0,-4,-2,-3,-3
1532467059661,1,-2,0,-2,-1,3,42,17
1532467059666,-4,-8,-1,2,1,-2,-29,-19
1532467059671,3,0,0,1,-1,0,18,4
1532467059676,-2,3,-1,-2,-1,-2,-24,1
1532467059681,-3,-1,0,-2,-6,-3,19,-4
1532467059686,12,0,1,0,0,3,7,6
1532467059691,-26,-3,-1,1,3,6,25,11
1532467059696,-2,1,2,2,4,3,-6,-9
1532467059701,2,-2,-5,-3,-5,-6,-14,-3
1532467059706,-12,2,0,-4,-2,-5,-4,8
1532467059711,9,0,0,0,2,0,-17,-4
1532467059716,-8,1,-2,-1,-4,-3,9,-4
1532467059721,-7,-3,-2,-4,-1,-2,-3,-2
1532467059726,6,1,0,1,-1,4,13,1
1532467059731,1,-1,-4,-2,-3,0,2,-2
1532467059736,-1,-4,1,-1,-1,-5,9,0
1532467059741,4,0,0,-1,0,14,-8,-6
1532467059746,1,2,2,4,5,-6,-4,4
1532467059751,1,-1,0,-2,-2,-9,-3,-3
1532467059756,-2,-3,-2,0,-1,-3,2,-5
1532467059761,-3,0,0,1,-1,0,-4,3
1532467059766,1,-2,-4,-2,-3,4,1,1
1532467059771,-2,2,0,-1,-1,4,0,-6
1532467059776,3,-3,0,0,-1,-4,0,1
1532467059781,1,0,-2,-2,1,2,4,2
1532467059786,-5,-1,0,-2,-2,0,-3,2
1532467059791,6,2,1,1,1,-2,1,-2
1532467059796,-5,-3,-4,-6,-6,-5,-32,-7
1532467059801,1,2,2,3,2,-7,-30,11
1532467059806,-1,1,-1,-2,-6,-19,-60,-2
1532467059811,2,-1,-1,0,1,20,-1,6
1532467059816,5,2,2,3,3,4,-7,0
1532467059821,-3,-2,1,-1,-1,-6,-4,-4
1532467059826,-4,-1,-3,-2,2,0,16,-3
1532467059831,-3,0,1,-4,0,-8,4,-1
1532467059836,2,-1,-1,-2,-6,6,47,2
1532467059841,1,0,-2,0,0,-11,11,-3
1532467059846,-2,-2,-2,0,-4,-5,33,-5
1532467059851,5,0,-3,1,0,1,8,1
1532467059856,0,0,0,0,4,7,14,8
1532467059861,-12,-7,-3,0,-1,0,4,-10
1532467059866,-2,3,-2,-1,0,-3,10,-10
1532467059871,-34,-9,-3,-2,-6,-11,-12,-10
1532467059876,59,7,2,2,4,18,26,30
1532467059881,7,2,0,-1,-1,-6,-4,17
1532467059886,-19,-8,-2,-3,-4,-7,-4,-11
1532467059891,15,8,3,4,4,15,11,17
1532467059896,-28,-10,-4,-1,-3,-14,-28,-46
1532467059901,14,8,1,-2,2,6,3,33
1532467059906,18,7,1,-2,-2,-1,7,3
1532467059911,-40,-15,-5,-1,-1,-15,-29,-37
1532467059916,16,3,1,0,-1,8,-12,5
1532467059921,-5,0,-2,-1,-3,-4,-21,-31
1532467059926,-4,-3,0,0,1,10,35,35
1532467059931,12,9,0,-1,-3,-5,-3,-9
1532467059936,-24,-10,-3,-2,0,7,-9,-8
1532467059941,-11,2,-2,-1,-1,-1,-5,2
1532467059946,24,0,-1,-2,-2,0,-4,5
1532467059951,9,3,1,-1,-2,-3,-11,1
1532467059956,-5,-2,0,-1,-2,-4,17,12
1532467059961,1,-5,-1,0,2,6,41,-3
1532467059966,-10,0,-1,1,3,3,-49,-14
1532467059971,7,0,0,-1,-1,3,50,22
1532467059976,-25,-3,-1,-2,-2,-16,-17,-17
1532467059981,16,-5,-2,-1,-3,0,0,4
1532467059986,-6,0,-3,-3,-4,-18,-33,-22
1532467059991,0,-6,-2,-3,0,21,24,12
1532467059996,3,2,-2,1,0,-11,-43,10
1532467060001,-11,-1,-1,-2,-3,-6,47,-19
1532467060006,-1,-4,-2,-1,-3,-11,-81,-3
1532467060011,16,0,3,2,3,24,69,22
1532467060016,-4,2,-3,0,1,-1,-18,3
1532467060021,-10,-3,-1,-2,-1,-7,-78,-5
1532467060026,4,-1,-1,-2,1,8,47,-5
1532467060031,-4,-3,-3,-4,-6,-23,-6,-10
1532467060036,-11,-2,0,-2,-3,-1,17,0
1532467060041,17,0,0,4,6,10,-73,-3
1532467060046,2,3,2,2,5,15,73,19
1532467060051,-4,-2,-2,-1,-4,-1,21,-8
1532467060056,-5,-3,-1,1,1,-5,-60,4
1532467060061,15,4,1,-1,1,5,74,3
1532467060066,-5,-2,-2,-2,-2,8,-6,1
1532467060071,-4,-6,-2,1,0,-6,-38,-4
1532467060076,13,1,-1,1,-2,-6,2,4
1532467060081,-21,-3,-2,-2,-3,-8,-23,-16
1532467060086,10,3,3,1,0,13,6,8
1532467060091,2,6,3,0,0,-4,-14,2
1532467060096,4,5,22,5,-5,-5,27,-9
1532467060101,-7,-32,-48,-16,3,4,-7,0
1532467060106,-15,-5,-1,1,-2,-3,21,-1
1532467060111,20,-3,-6,-2,-2,-10,-51,-6
1532467060116,-7,2,3,-1,-1,4,22,-10
1532467060121,-21,-2,8,3,0,3,1,23
1532467060126,8,5,-1,0,1,-5,-6,-9
1532467060131,-2,-4,-1,0,0,-1,-5,-9
1532467060136,2,5,-4,-1,-3,0,2,10
1532467060141,0,5,10,3,-1,-3,10,-8
1532467060146,-6,-4,-5,-2,-5,-7,-29,-4
1532467060151,-3,6,5,2,6,4,-2,5
1532467060156,-2,-5,-8,-3,7,-1,4,-8
1532467060161,1,4,2,1,-11,12,-4,2
1532467060166,-7,-4,-2,-2,-4,-6,2,3
1532467060171,3,3,3,7,8,-9,-8,-7
1532467060176,0,-3,-6,-1,9,6,-1,4
1532467060181,5,-1,4,-3,-7,-5,8,-2
1532467060186,-2,3,2,-1,-1,-3,4,-4
1532467060191,-7,-3,-3,-3,-9,1,-5,-1
1532467060196,-2,-2,-4,3,5,0,7,0
1532467060201,1,5,7,5,11,-3,-1,-6
1532467060206,-1,-2,-1,-1,2,-1,24,0
1532467060211,-6,-2,-2,-2,-10,-11,-13,-2
1532467060216,3,1,8,-5,-8,1,4,2
1532467060221,-1,1,0,0,-3,0,3,-9
1532467060226,-1,-2,2,3,1,3,-8,8
1532467060231,1,-2,-3,1,6,1,-11,1
1532467060236,-2,3,0,3,-3,0,1,-3
1532467060241,1,0,1,-1,-7,-7,-4,2
1532467060246,-2,-3,-2,-2,3,0,-6,-1
1532467060251,0,0,1,-3,-11,0,-8,-1
1532467060256,1,-2,-7,-3,-4,-4,7,1
1532467060261,-1,-1,2,0,6,0,-1,-2
1532467060266,-1,0,2,2,-2,5,0,-1
1532467060271,-2,-1,-4,-3,9,-6,1,-2
1532467060276,-4,-3,-10,-9,-6,-3,4,-1
1532467060281,3,2,0,1,-3,-1,3,0
1532467060286,2,1,-1,2,1,4,2,0
1532467060291,-2,-4,-2,0,-6,-4,1,-1
1532467060296,-2,-4,-4,2,3,0,5,-1
1532467060301,0,-1,6,1,-7,-13,1,-3
1532467060306,-1,-2,-5,-4,2,9,3,-3
1532467060311,-2,-1,-1,-5,-7,1,-11,-1
1532467060316,0,0,1,3,10,7,-5,3
1532467060321,0,1,2,6,13,-3,-5,-4
1532467060326,-2,-2,6,-9,-14,-7,-4,-2
1532467060331,-1,-1,-16,-1,15,5,2,-1
1532467060336,4,1,2,6,-6,3,5,1
1532467060341,-6,-2,-5,-14,-42,-23,7,-1
1532467060346,1,3,3,-5,10,-3,-4,0
1532467060351,0,-1,4,-4,-36,-2,-8,-1
1532467060356,2,0,0,-3,21,10,-4,0
1532467060361,1,2,2,3,-13,18,-5,-2
1532467060366,-1,-1,1,8,23,12,0,0
1532467060371,-1,0,3,1,4,-6,2,-3
1532467060376,-1,-1,-4,1,-7,-20,0,2
1532467060381,0,0,-1,-1,-21,-32,8,0
1532467060386,3,-2,0,0,4,45,14,1
1532467060391,-1,-3,-4,-4,12,14,-4,-3
1532467060396,1,-1,3,8,7,-24,4,1
1532467060401,-3,2,0,3,-2,-13,-8,1
1532467060406,-1,-2,-7,1,1,-23,-5,-4
1532467060411,-1,-7,-6,-17,17,-13,-3,-4
1532467060416,-3,-4,-6,-21,-64,12,-7,-1
1532467060421,0,0,0,-3,4,-13,-5,1
1532467060426,1,3,4,15,-3,54,-2,1
1532467060431,-2,1,0,9,3,-6,2,1
1532467060436,0,-3,-4,-13,37,-29,-13,-6
1532467060441,0,-3,-6,1,39,13,-18,-6
1532467060446,-2,-3,-4,-8,-60,-54,-4,-1
1532467060451,2,3,7,5,-1,1,7,1
1532467060456,0,2,2,7,7,25,10,0
1532467060461,-1,-3,3,3,7,37,11,3
1532467060466,0,1,-1,2,11,-53,-6,-1
1532467060471,-2,-1,3,10,33,-36,-10,-2
1532467060476,0,-2,-3,-13,-78,54,18,2
1532467060481,0,-1,0,-4,8,-52,-17,0
1532467060486,-1,0,0,1,14,1,-1,-3
1532467060491,-3,-1,-1,-4,-21,-27,-2,0
1532467060496,-1,-2,1,7,48,58,10,2
1532467060501,1,0,2,10,33,45,30,4
1532467060506,-2,-5,-2,-4,-5,-20,-27,-3
1532467060511,-1,0,-3,-3,-25,-20,-2,-2
1532467060516,-1,1,1,2,-8,-57,5,-2
1532467060521,-1,-3,-2,-4,32,85,-2,-3
1532467060526,0,0,-2,-6,-43,-21,17,1
1532467060531,-1,-2,2,5,17,50,-9,-3
1532467060536,0,-2,-1,0,-15,-17,-9,-1
1532467060541,2,0,0,7,22,-25,5,0
1532467060546,-4,-1,-5,-9,-11,46,-9,3
1532467060551,-3,-2,-4,-16,-33,-33,-13,-8
1532467060556,-2,-1,1,-7,-19,-53,1,2
1532467060561,-1,-1,-3,6,18,-2,14,-3
1532467060566,-1,-4,1,5,4,9,17,-1
1532467060571,2,-3,-2,1,9,44,-4,3
1532467060576,-2,2,0,5,31,4,-5,-3
1532467060581,-4,4,0,-11,-36,-5,-22,-4
1532467060586,2,-5,-4,1,31,35,18,1
1532467060591,-3,-2,-1,-3,-25,-1,11,2
1532467060596,1,-4,-9,4,10,-17,-12,-3
1532467060601,0,6,10,7,27,24,-3,-1
1532467060606,-1,2,2,-5,-56,-60,-13,2
1532467060611,-1,0,-4,1,20,-4,-2,-1
1532467060616,1,0,2,-3,-5,60,10,0
1532467060621,-1,-2,-5,-3,-14,-13,-4,-3
1532467060626,-3,-4,-9,-5,26,28,-3,-1
1532467060631,-2,-2,6,9,-10,-28,-1,1
1532467060636,3,1,-1,5,27,2,-1,-3
1532467060641,-3,-3,-1,4,-17,27,0,0
1532467060646,-1,-1,-2,-4,45,29,1,0
1532467060651,0,-5,-9,-15,-55,-44,-6,-2
1532467060656,3,3,3,9,12,39,55,6
1532467060661,-2,-2,-7,-13,-21,-36,-33,-3
1532467060666,1,-3,2,12,35,51,22,1
1532467060671,-3,-3,-7,-24,-92,-70,-3,-5
1532467060676,4,3,7,-5,20,3,0,10
1532467060681,2,6,5,-2,-44,-26,12,12
1532467060686,-7,0,-1,0,24,35,-5,-6
1532467060691,3,2,0,-4,25,33,-14,-2
1532467060696,-4,-1,-1,0,0,-61,-8,0
1532467060701,5,5,6,8,45,63,24,4
1532467060706,-2,1,2,-12,-42,10,-22,-1
1532467060711,1,-5,-2,3,-2,-38,43,8
1532467060716,-2,0,3,11,60,12,-19,-8
1532467060721,-3,-2,-4,-12,-90,25,12,-1
1532467060726,1,3,2,6,42,-30,-39,-1
1532467060731,2,8,7,4,-41,19,52,-1
1532467060736,-4,-1,-4,2,-6,18,-1,-5
1532467060741,1,-1,2,4,53,-11,4,2
1532467060746,-2,-5,-6,3,-9,-21,-19,-12
1532467060751,-2,-5,0,4,88,55,-23,-3
1532467060756,-1,-4,-3,-4,-36,2,-14,-5
1532467060761,-4,-2,2,-25,-63,-36,6,-5
1532467060766,3,4,4,13,53,-32,-7,-2
1532467060771,-5,-2,-5,-3,83,103,-19,-1
1532467060776,-4,-1,-4,11,30,-29,-8,2
1532467060781,-1,-5,-5,-14,-42,-13,-14,-6
1532467060786,-1,-7,-5,-3,-4,31,28,3
1532467060791,-3,-1,4,1,-34,-31,-22,-4
1532467060796,1,0,-5,0,-24,18,11,4
1532467060801,-1,0,0,6,5,-14,3,3
1532467060806,-2,1,-3,-1,-6,23,-9,-9
1532467060811,1,0,1,0,-43,4,25,3
1532467060816,-2,-5,-1,-9,-1,2,-14,-4
1532467060821,-4,-4,-2,14,97,35,-3,-11
1532467060826,-3,-3,-6,-32,-47,-26,-14,-2
1532467060831,-1,-3,-7,-10,-35,-37,-21,3
1532467060836,1,0,6,15,58,-22,-1,-4
1532467060841,0,4,-2,-3,-5,2,-50,3
1532467060846,-2,-1,1,10,61,18,54,-1
1532467060851,-3,-4,-3,-5,-64,-25,13,1
1532467060856,-1,-4,-4,-8,-35,-30,-36,-3
1532467060861,-1,-5,-4,6,14,17,18,-2
1532467060866,4,3,6,9,11,17,-3,6
1532467060871,0,0,0,6,63,-22,-4,-2
1532467060876,-1,-2,0,0,21,24,12,1
1532467060881,-1,-6,-6,-10,-62,-24,6,-3
1532467060886,1,2,4,10,-6,-19,-5,7
1532467060891,0,-5,-3,-10,-22,16,4,-1
1532467060896,-3,-2,-1,-4,-24,18,4,1
1532467060901,1,-1,3,7,10,-15,2,-1
1532467060906,-2,0,-2,-12,-35,-15,-1,-1
1532467060911,-1,4,-1,7,6,-13,-16,-2
1532467060916,-2,2,-3,-4,23,27,7,-2
1532467060921,2,3,1,9,18,-10,7,2
1532467060926,0,-2,-5,7,12,-24,-34,-6
1532467060931,1,4,-2,-3,8,0,26,1
1532467060936,1,1,-2,-7,-6,-5,13,2
1532467060941,1,0,-2,-2,3,12,9,-1
1532467060946,-3,-2,-1,3,-2,-18,-10,-5
1532467060951,1,-3,1,6,15,9,-12,-2
1532467060956,-1,-5,-2,-4,-28,-50,3,-2
1532467060961,-1,-2,-2,-6,17,20,0,1
1532467060966,0,-2,-3,-4,-3,14,55,13
1532467060971,-6,-3,-3,-4,2,8,-46,-19
1532467060976,-1,1,-3,-8,-18,-23,4,-1
1532467060981,0,1,-1,3,18,-44,-11,-2
1532467060986,0,-3,-7,-12,-35,46,-20,1
1532467060991,0,3,4,0,-26,17,46,8
1532467060996,-1,2,1,7,19,23,-10,-3
1532467061001,-1,1,-1,8,57,38,21,-4
1532467061006,-4,-1,-4,-7,-14,-43,-35,-5
1532467061011,3,-2,-1,5,41,47,31,12
1532467061016,-2,2,0,-1,-23,-30,-21,-2
1532467061021,-1,-2,-1,3,34,-16,-6,-2
1532467061026,0,0,0,0,20,-3,6,-1
1532467061031,-1,-1,-4,-2,-11,42,-6,0
1532467061036,0,-2,1,2,-10,-7,12,0
1532467061041,0,0,3,22,73,-20,-1,-2
1532467061046,-2,-4,-6,-22,-87,-20,3,0
1532467061051,-4,-4,-5,-1,-25,-19,-10,0
1532467061056,-1,0,0,-9,-24,-32,-4,-4
1532467061061,0,3,3,-2,-37,-17,6,1
1532467061066,2,-2,9,13,32,25,4,1
1532467061071,-2,-4,-8,-15,-8,-11,-7,-3
1532467061076,-2,-2,-2,-1,-16,6,3,1
1532467061081,0,-1,2,-4,-42,-3,-1,3
1532467061086,-1,6,3,3,4,-10,5,0
1532467061091,0,-5,1,5,28,-10,-6,-1
1532467061096,-1,-2,0,5,13,34,-2,1
1532467061101,-2,-3,-6,-13,-22,-5,-7,-5
1532467061106,-3,-1,-7,-24,-56,-8,6,3
1532467061111,-1,2,1,-1,17,-44,-25,-4
1532467061116,-3,-3,-4,-4,-25,-22,-11,-3
1532467061121,-1,-1,0,3,-4,19,10,1
1532467061126,3,4,0,20,40,-11,-4,2
1532467061131,0,-1,-5,-10,-18,-16,-5,-2
1532467061136,0,-1,-3,-7,8,15,-2,0
1532467061141,-3,-2,-2,-1,-4,4,-3,-2
1532467061146,0,1,3,5,32,11,0,-1
1532467061151,-1,4,5,3,-3,-3,11,1
1532467061156,4,-1,0,6,42,23,5,3
1532467061161,-1,-2,0,2,-7,-25,-7,-2
1532467061166,0,1,-2,-8,-48,-13,3,-1
1532467061171,0,0,-1,-14,-86,-19,-10,1
1532467061176,-1,0,-1,-1,7,-25,-1,-1
1532467061181,-1,1,0,-4,-35,27,3,1
1532467061186,-2,-2,-2,4,19,11,0,-2
1532467061191,-1,0,-1,4,17,-4,2,-5
1532467061196,-1,2,0,0,1,-1,6,0
1532467061201,-1,0,0,-7,2,12,-3,-1
1532467061206,-2,-1,-1,10,56,9,6,0
1532467061211,-5,-7,-4,2,19,-9,-13,-6
1532467061216,-2,-1,-6,-6,-17,37,8,0
1532467061221,-2,-2,0,5,2,-41,0,0
1532467061226,0,2,1,-5,-5,8,-8,-4
1532467061231,2,-1,2,7,32,18,19,3
1532467061236,-2,-2,1,3,6,-6,-5,-5
1532467061241,0,-1,-1,-3,0,-14,-2,-3
1532467061246,-2,-5,-3,-3,-5,10,-5,3
1532467061251,1,5,2,-2,-36,-38,-8,-5
1532467061256,5,2,0,1,16,12,5,7
1532467061261,2,3,2,-2,-30,19,0,0
1532467061266,-3,-4,-1,0,12,-2,-23,-9
1532467061271,3,-2,-2,3,30,0,4,8
1532467061276,-3,2,2,-2,-20,-10,8,5
1532467061281,0,-2,-5,-5,18,17,-18,-7
1532467061286,3,1,2,-5,-64,-30,13,11
1532467061291,4,1,-1,-14,-44,-63,-13,-1
1532467061296,-3,1,-2,-4,28,24,-23,-4
1532467061301,0,-1,-1,2,11,18,14,6
1532467061306,0,0,4,-5,-16,-22,16,-1
1532467061311,-3,-2,1,8,32,55,2,5
1532467061316,1,2,3,5,12,-23,0,-4
1532467061321,2,2,4,2,34,-18,-16,-1
1532467061326,-2,-1,1,5,22,36,9,0
1532467061331,2,-1,0,-7,-32,-17,-8,14
1532467061336,2,5,5,7,11,13,-5,-12
1532467061341,-8,-10,-5,-3,-2,-15,-5,-4
1532467061346,1,-1,-1,6,39,29,-28,3
1532467061351,-2,0,-1,5,29,-21,27,-14
1532467061356,-1,-4,-4,-9,-11,9,-17,1
1532467061361,2,-2,-1,-7,-6,-7,32,15
1532467061366,-2,1,-2,-3,-11,-11,-17,6
1532467061371,-1,-1,1,3,23,27,8,-7
1532467061376,0,-3,-7,6,11,5,13,-6
1532467061381,1,3,-2,-5,-13,-10,1,-5
1532467061386,-3,-11,-8,1,25,16,15,0
1532467061391,0,-1,3,4,16,-1,-13,2
1532467061396,-3,-3,0,-2,-7,-7,3,-4
1532467061401,0,2,-4,-12,-49,-7,30,3
1532467061406,1,2,1,3,1,-12,-2,-6
1532467061411,-3,-3,-2,0,5,-16,-21,-8
1532467061416,1,1,0,-5,-37,-30,15,3
1532467061421,-1,1,1,5,43,50,-8,0
1532467061426,1,3,3,3,4,-33,9,0
1532467061431,0,0,-3,-5,-41,-15,-9,3
1532467061436,-2,-4,-3,0,24,7,5,2
1532467061441,-2,0,2,5,-5,-12,-12,-4
1532467061446,-3,-1,-1,-1,4,11,12,-8
1532467061451,-7,-1,-1,1,20,4,-24,-8
1532467061456,-1,-4,2,1,6,-11,21,2
1532467061461,-1,-1,-3,-2,-15,11,-30,-6
1532467061466,0,2,2,-6,-15,-4,10,1
1532467061471,0,-6,-9,2,0,1,-8,1
1532467061476,0,0,-3,-1,11,20,11,7
1532467061481,-1,0,5,12,49,13,0,7
1532467061486,0,-2,-5,-6,-27,-14,-11,3
1532467061491,-1,2,1,-10,-24,20,13,1
1532467061496,-2,-4,-4,0,11,10,-17,-7
1532467061501,-2,-2,-1,5,3,-4,1,-3
1532467061506,-1,-1,0,4,10,2,-2,0
1532467061511,-2,4,1,2,3,2,0,-4
1532467061516,-4,3,-5,-5,-11,1,-9,-10
1532467061521,2,0,0,-1,-11,-18,2,7
1532467061526,-1,0,2,1,8,17,28,-3
1532467061531,0,-3,-1,2,0,12,3,-1
1532467061536,2,-3,2,5,17,-6,2,5
1532467061541,0,-7,-1,-5,-23,-19,-14,-2
1532467061546,-2,-4,-5,-9,-26,-9,-18,-5
1532467061551,1,-1,0,-2,12,14,19,4
1532467061556,-4,-1,1,1,-8,-9,-16,-4
1532467061561,-3,-1,-3,-3,-13,-5,17,-3
1532467061566,-1,-3,-1,2,-1,3,14,3
1532467061571,2,4,0,1,-2,2,-11,-5
1532467061576,2,5,3,4,0,11,9,5
1532467061581,-3,3,-3,-2,14,-16,-13,-18
1532467061586,1,2,-1,-3,1,11,0,17
1532467061591,-4,-5,-2,2,26,6,-30,-8
1532467061596,-1,-7,-2,-7,-25,-15,57,8
1532467061601,-5,-4,-2,0,16,-1,-7,-6
1532467061606,1,1,-2,6,29,10,11,-7
1532467061611,-4,-5,-2,-4,-15,-7,-11,6
1532467061616,-2,-3,-7,-5,-1,-3,-5,-8
1532467061621,0,4,2,-2,-19,-11,4,-4
1532467061626,3,-10,-3,-2,13,9,-34,-5
1532467061631,0,-5,1,0,21,17,19,-4
1532467061636,-9,-5,1,0,9,-13,22,-4
1532467061641,0,0,0,-6,-50,4,14,0
1532467061646,4,9,0,5,6,-26,-45,5
1532467061651,1,4,-1,1,-7,1,-2,-7
1532467061656,-1,2,-2,-5,1,19,-7,-12
1532467061661,4,5,0,1,15,19,34,13
1532467061666,0,2,6,7,34,-21,-30,-10
1532467061671,3,1,-4,-1,-10,-5,30,14
1532467061676,-2,4,3,5,42,-10,22,-4
1532467061681,-1,-1,-3,-4,-43,5,-2,-4
1532467061686,-3,-2,1,2,-7,-15,-53,-5
1532467061691,-3,-2,2,11,56,-16,29,-4
1532467061696,2,0,-3,-9,-46,-6,-42,8
1532467061701,-2,-3,-2,1,31,20,24,-9
1532467061706,2,0,2,-2,-6,39,7,6
1532467061711,1,6,-2,0,-1,-1,7,2
1532467061716,-1,-4,0,3,-5,-4,-4,-6
1532467061721,-2,-6,-3,-9,-24,-61,-73,0
1532467061726,3,8,6,12,-1,21,59,-2
1532467061731,0,2,1,-7,-36,-39,-34,-14
1532467061736,2,0,0,-5,-20,30,-17,0
1532467061741,-3,-1,1,2,-2,-31,-16,0
1532467061746,1,-1,-1,0,20,4,-19,5
1532467061751,5,7,6,4,19,39,10,2
1532467061756,-3,-3,-4,-3,14,9,16,1
1532467061761,-1,-9,-6,-9,-52,-19,1,4
1532467061766,-1,-8,-2,-3,0,10,-22,-5
1532467061771,-1,-5,0,-1,7,-7,21,7
1532467061776,-3,3,1,-4,-23,-27,-10,-12
1532467061781,3,11,3,-1,2,22,-4,2
1532467061786,-2,-11,2,8,16,-3,-3,-1
1532467061791,-1,3,-2,0,-5,-11,4,-1
1532467061796,-4,-4,-2,-10,-61,8,2,-3
1532467061801,-1,-6,-15,-2,11,0,-4,-6
1532467061806,3,10,10,1,-3,-5,3,9
1532467061811,-1,-1,5,14,68,-13,-21,-6
1532467061816,-7,-3,-3,-10,-35,-2,33,-4
1532467061821,-1,-8,-1,-6,-20,-24,-19,1
1532467061826,2,4,-2,-7,-29,-3,20,3
1532467061831,-3,-4,-5,-2,24,13,-6,0
1532467061836,1,-8,-1,0,-4,-47,-46,-5
1532467061841,-1,0,3,1,24,26,41,3
1532467061846,-3,0,-4,-1,-27,-22,-1,-1
1532467061851,-1,-1,-2,-3,-23,-20,-1,-1
1532467061856,2,-1,-3,0,33,22,14,3
1532467061861,-2,-2,3,0,11,76,-3,0
1532467061866,0,0,-5,-1,11,1,1,1
1532467061871,1,4,5,-3,-34,22,16,0
1532467061876,1,1,1,3,15,-22,-28,-6
1532467061881,-3,1,3,8,26,27,41,4
1532467061886,1,-1,0,-7,-47,-12,-15,-2
1532467061891,-1,-1,-3,0,8,-7,-3,-1
1532467061896,0,0,0,-5,-22,-1,-9,2
1532467061901,1,0,4,-2,-20,-3,16,2
1532467061906,-2,-2,-3,0,8,19,-1,0
1532467061911,1,-4,-3,-1,11,-60,2,0
1532467061916,-2,-2,-1,0,-11,47,5,-2
1532467061921,1,1,1,4,14,-22,-8,0
1532467061926,-1,2,1,-3,-4,-40,-19,-3
1532467061931,-1,-3,-7,-8,-6,33,-2,0
1532467061936,0,0,-2,3,23,0,15,-1
1532467061941,0,2,1,-2,3,-27,-21,-2
1532467061946,0,1,-1,-6,5,26,3,0
1532467061951,0,-1,4,7,21,6,-10,0
1532467061956,-1,0,-1,-5,-28,11,22,-6
1532467061961,1,-2,-1,2,-1,-4,-9,-1
1532467061966,2,3,4,-7,-33,10,-9,3
1532467061971,3,-2,-5,-3,4,7,48,11
1532467061976,-3,-1,1,2,28,-2,-51,-16
1532467061981,0,0,3,-9,-7,-14,1,-2
1532467061986,-1,-3,-5,-2,-2,-6,-6,-5
1532467061991,-2,-6,-2,3,15,-9,-4,-2
1532467061996,-1,-4,-5,-18,-5,29,33,11
1532467062001,0,0,2,10,-11,-13,-29,-7
1532467062006,0,-1,3,14,75,39,17,1
1532467062011,0,5,2,0,-16,14,-4,-6
1532467062016,-2,-4,-9,-14,-61,-35,-4,3
1532467062021,-1,-1,-5,-11,-32,33,-13,1
1532467062026,-1,3,4,2,3,-9,7,-4
1532467062031,-1,0,-2,6,0,-3,-26,-4
1532467062036,1,0,-2,-7,-56,3,25,6
1532467062041,3,-1,-8,-19,-38,-45,6,0
1532467062046,-5,0,1,1,48,-8,-34,-1
1532467062051,-2,0,3,-1,45,-20,5,-4
1532467062056,0,2,0,16,48,39,10,-1
1532467062061,-1,0,2,5,58,13,10,0
1532467062066,2,-1,1,15,-4,-7,3,-1
1532467062071,-1,-1,-8,-16,-49,-17,-3,-5
1532467062076,1,1,0,16,78,12,11,-2
1532467062081,0,-5,-1,8,-12,18,2,4
1532467062086,4,-1,-2,11,37,-16,16,-1
1532467062091,-6,-3,-7,-35,-117,-91,-18,6
1532467062096,-2,-1,4,2,49,3,-6,0
1532467062101,-3,4,-2,-2,7,10,-7,-1
1532467062106,-2,-7,-1,2,74,-35,-4,-1
1532467062111,1,6,9,13,-1,74,4,-10
1532467062116,-1,0,-3,-4,-18,-71,20,7
1532467062121,-2,-1,-1,5,18,-11,3,-4
1532467062126,0,-2,-3,4,-5,19,-2,-1
1532467062131,2,-6,-4,-1,46,36,-3,0
1532467062136,5,-5,-1,0,-26,-26,-14,-2
1532467062141,-17,-2,2,8,40,-18,-1,-6
1532467062146,-3,0,1,-11,-57,5,-2,3
1532467062151,-2,-4,-7,-7,-34,37,21,5
1532467062156,3,0,2,-4,41,49,-9,0
1532467062161,1,0,-1,1,-24,-66,-13,1
1532467062166,1,-4,-7,-15,-55,-56,-9,2
1532467062171,-2,2,3,2,-30,13,4,3
1532467062176,-1,2,2,12,35,6,7,-4
1532467062181,3,-1,-1,-5,-9,53,-1,1
1532467062186,0,5,-1,4,11,7,2,-1
1532467062191,2,-5,-8,5,21,-8,-6,-4
1532467062196,-1,-2,1,13,69,38,-12,-7
1532467062201,-6,-4,-2,-18,-19,-29,-13,-2
1532467062206,1,2,2,3,47,40,10,-3
1532467062211,-4,-2,2,-9,-60,-49,1,2
1532467062216,-4,-2,-3,-4,-16,-11,-20,-5
1532467062221,1,-1,-2,0,21,23,-1,-1
1532467062226,-3,-4,-5,-8,-40,-6,-24,-2
1532467062231,-1,-2,0,9,17,31,21,1
1532467062236,4,6,12,11,48,-4,4,2
1532467062241,4,-2,-1,-8,-58,44,-3,1
1532467062246,4,-1,-2,-12,-83,-81,13,2
1532467062251,-2,-1,-11,-15,-39,28,-12,-3
1532467062256,-4,-2,-2,-5,-27,-29,-14,2
1532467062261,1,-1,1,5,6,-14,0,-3
1532467062266,-3,-5,-5,3,18,56,2,-4
1532467062271,2,2,6,12,75,20,-5,-4
1532467062276,-5,-3,-7,-16,-72,-43,4,1
1532467062281,-2,-2,-3,-14,-35,-18,-9,0
1532467062286,-1,-3,1,-4,-4,6,7,-2
1532467062291,-1,-1,1,10,37,-10,-6,-2
1532467062296,0,-1,-1,1,17,17,0,4
1532467062301,2,-1,3,24,83,-4,10,-4
1532467062306,-4,1,-5,-12,-56,6,1,2
1532467062311,-1,1,4,6,23,-49,-14,-2
1532467062316,0,-2,-4,-3,-18,28,16,-2
1532467062321,3,4,2,1,-30,-26,-3,3
1532467062326,0,0,-2,8,47,6,6,0
1532467062331,2,3,1,5,54,-30,-2,-2
1532467062336,-5,-6,-6,-14,-16,-24,-8,-1
1532467062341,-2,-2,0,5,43,19,6,-4
1532467062346,2,3,5,0,14,17,13,4
1532467062351,-2,1,1,-4,-15,-30,-20,-5
1532467062356,1,-2,-1,12,65,18,4,-4
1532467062361,-6,-6,0,-1,-7,28,-37,-7
1532467062366,0,7,2,-7,-59,-9,26,8
1532467062371,-8,-10,-10,-5,10,17,9,-3
1532467062376,2,2,6,0,0,-5,-13,-6
1532467062381,0,0,-3,4,25,-18,-18,12
1532467062386,-1,-6,-1,-3,1,45,0,6
1532467062391,0,1,0,-1,12,33,-2,-1
1532467062396,-2,-6,-2,1,-14,44,4,-4
1532467062401,1,-4,-1,-3,8,0,20,4
1532467062406,-3,0,0,-3,-2,-20,-31,-4
1532467062411,-5,-3,1,6,6,-18,1,-12
1532467062416,-1,-1,-4,4,10,-5,0,-4
1532467062421,-2,0,-2,-1,3,11,1,-1
1532467062426,1,0,-1,-5,6,-3,6,0
1532467062431,1,-2,3,3,19,-8,8,8
1532467062436,-2,-1,3,3,-13,26,-3,-5
1532467062441,-3,-1,-6,-21,-98,-64,-3,5
1532467062446,-2,-4,-3,-3,17,6,1,-5
1532467062451,3,2,-1,1,4,-18,-4,4
1532467062456,0,0,0,5,31,24,9,-1
1532467062461,-1,-1,-1,1,24,26,2,0
1532467062466,-1,1,1,4,19,5,-5,0
1532467062471,-1,1,-4,-9,-46,-31,0,2
1532467062476,3,1,2,-3,12,-12,4,-3
1532467062481,1,-1,0,1,13,-7,-12,3
1532467062486,0,-2,1,5,10,13,-1,-2
1532467062491,-1,-1,0,2,7,35,8,4
1532467062496,-4,-18,-9,-4,-14,-24,-9,-1
1532467062501,0,9,-1,4,4,1,-5,0
1532467062506,1,-1,-3,-2,-1,-15,-7,-7
1532467062511,-1,-3,2,5,32,9,6,0
1532467062516,1,2,0,-4,-28,-19,-1,-1
1532467062521,0,0,-1,-2,-1,22,10,1
1532467062526,0,-6,0,3,7,-6,-7,-2
1532467062531,-2,-2,-1,-1,-4,10,-8,-1
1532467062536,-1,2,-1,1,-2,-19,21,0
1532467062541,-2,2,2,1,15,20,4,-4
1532467062546,-1,-5,-4,2,4,8,1,0
1532467062551,-2,-4,-3,-6,-13,14,-5,-1
1532467062556,0,-1,-12,-13,-41,-29,9,1
1532467062561,1,-3,-6,0,-3,-3,6,2
1532467062566,-1,1,0,-2,-6,-4,0,-2
1532467062571,1,-1,2,6,13,-1,0,0
1532467062576,1,2,3,6,39,9,-6,-3
1532467062581,0,-4,-1,3,13,32,4,2
1532467062586,0,0,-4,-9,-27,-34,0,-2
1532467062591,0,-5,0,-1,6,-9,-21,-2
1532467062596,1,2,5,3,15,34,18,1
1532467062601,0,1,5,3,5,-4,-2,-2
1532467062606,0,6,7,3,9,2,-10,-4
1532467062611,2,-10,-4,-1,3,8,8,1
1532467062616,-3,6,-4,1,-9,-15,-16,-3
1532467062621,-1,-2,1,0,-4,0,-4,-2
1532467062626,0,2,-1,14,43,32,5,-3
1532467062631,-1,9,0,-11,-39,-30,8,3
1532467062636,-1,-1,2,6,25,-6,-3,-1
1532467062641,0,-7,-9,-17,-83,-6,-16,2
1532467062646,-1,7,4,0,0,-23,28,1
1532467062651,-3,0,-3,-1,3,39,-2,-3
1532467062656,1,0,2,0,-4,-10,-8,2
1532467062661,-3,0,0,1,21,23,7,1
1532467062666,0,-2,1,1,13,0,-2,-1
1532467062671,-2,-3,-6,-3,-17,5,-3,-2
1532467062676,1,-1,1,-7,-15,-7,3,3
1532467062681,2,-1,8,15,75,34,21,0
1532467062686,-3,-3,-5,-22,-113,-23,-19,-1
1532467062691,1,3,-5,-8,19,4,18,-3
1532467062696,-4,-4,-4,-3,20,-17,-15,-6
1532467062701,-3,-5,-4,-6,-12,20,7,-2
1532467062706,1,0,3,8,55,9,-10,4
1532467062711,-3,-2,-1,-1,-25,26,24,4
1532467062716,-2,-1,-2,-9,-63,-21,-10,1
1532467062721,1,0,-4,-5,2,-6,3,1
1532467062726,0,0,-2,0,26,9,-10,-3
1532467062731,3,6,4,3,1,-14,-2,3
1532467062736,5,-2,4,10,79,32,10,-1
1532467062741,-4,-1,1,2,-12,-27,14,-1
1532467062746,-2,1,0,-8,-46,-2,-27,2
1532467062751,-3,-3,-4,2,31,-27,20,-3
1532467062756,-2,4,2,3,-13,2,-49,-14
1532467062761,-1,0,2,17,68,20,8,-7
1532467062766,1,-3,-5,-16,-54,-23,14,9
1532467062771,-3,-3,0,-7,-36,5,33,6
1532467062776,-1,-2,-3,-8,-21,-10,-52,-2
1532467062781,0,1,-3,5,24,13,-24,5
1532467062786,-10,-11,-17,-12,-47,-34,-31,-21
1532467062791,1,-1,1,1,-4,12,21,9
1532467062796,4,4,5,17,68,50,35,10
1532467062801,-5,-5,-15,-37,-112,-23,-16,-4
1532467062806,5,3,9,7,50,25,-3,8
1532467062811,-3,3,-4,-2,22,-18,-13,-10
1532467062816,-1,-3,-1,-1,-53,7,-25,-8
1532467062821,-1,-5,-6,-11,-54,-26,22,2
1532467062826,-1,1,2,2,48,-19,-8,-10
1532467062831,-4,1,10,8,-1,64,34,-13
1532467062836,-1,2,5,6,12,-33,9,1
1532467062841,-2,-4,-6,-5,-8,-10,-3,1
1532467062846,2,0,-3,-3,-29,-10,13,3
1532467062851,3,2,4,-4,-22,-25,-41,4
1532467062856,3,-3,-2,-6,-16,10,41,2
1532467062861,-1,0,7,7,21,-17,7,1
1532467062866,-1,-1,-1,14,46,32,14,-3
1532467062871,-1,0,-1,6,31,11,-27,-11
1532467062876,-3,-4,-7,-13,-25,1,6,5
1532467062881,-1,2,1,8,-10,-6,-14,-6
1532467062886,0,-2,0,-16,-78,-2,9,14
1532467062891,-3,-5,2,20,75,-56,-34,-5
1532467062896,-7,-2,-6,-11,-14,-13,35,-4
1532467062901,1,0,-1,-1,43,19,-53,-10
1532467062906,-2,4,3,22,108,10,43,-7
1532467062911,-4,-3,-13,-17,-63,-17,-32,5
1532467062916,0,2,-2,-3,15,-4,-16,0
1532467062921,2,3,6,6,52,-20,20,0
1532467062926,-2,3,8,5,13,34,11,-3
1532467062931,0,-5,-5,-2,17,39,3,-1
1532467062936,-2,1,1,3,-25,-45,-8,1
1532467062941,-2,1,-1,-16,-46,-21,-3,2
1532467062946,0,-2,-2,-3,-14,18,-12,-1
1532467062951,0,0,2,12,74,16,-1,-1
1532467062956,-4,-1,-5,-12,-80,-48,-12,0
1532467062961,2,1,1,7,35,69,14,0
1532467062966,-5,-6,-10,-10,-67,-53,3,-1
1532467062971,1,-2,-2,-21,-91,-44,-8,3
1532467062976,-1,-1,4,10,33,55,23,-8
1532467062981,3,1,3,2,0,-29,13,4
1532467062986,2,-3,-4,-11,-28,47,-6,3
1532467062991,1,0,-2,5,34,10,6,-2
1532467062996,2,1,0,-10,-40,-64,-10,2
1532467063001,-2,-5,-5,-5,0,29,17,2
1532467063006,1,3,5,13,107,30,4,-2
1532467063011,-4,-4,-2,-10,-63,-17,-3,0
1532467063016,0,-2,1,12,92,4,-7,-4
1532467063021,-5,0,-2,-1,13,43,-7,-3
1532467063026,2,5,4,-6,47,3,-12,-2
1532467063031,2,1,1,-7,-7,-9,9,2
1532467063036,-4,-3,-4,0,16,39,8,0
1532467063041,-1,-3,1,8,17,-21,-12,-3
1532467063046,1,-3,0,9,28,-51,-10,-3
1532467063051,-2,1,-3,-7,-6,28,-19,-2
1532467063056,2,0,0,-4,-15,14,6,2
1532467063061,-3,-4,-1,3,11,8,-9,-4
1532467063066,-2,-3,-1,7,-30,-15,13,2
1532467063071,1,2,0,-11,-47,-33,-31,-1
1532467063076,0,0,1,4,16,21,5,1
1532467063081,-1,-2,-3,-5,-59,-15,17,3
1532467063086,-2,1,-1,-2,-15,-46,-24,-2
1532467063091,0,-1,-3,8,32,1,23,-1
1532467063096,-5,-3,-4,7,47,33,-19,-7
1532467063101,1,3,1,-9,-53,-35,15,3
1532467063106,-2,0,-7,-8,-32,2,-9,-1
1532467063111,0,0,-2,-17,-67,-9,14,2
1532467063116,-1,-2,0,3,46,8,8,2
1532467063121,0,-1,0,11,50,42,-19,-3
1532467063126,-5,-5,-9,2,-2,10,-5,-6
1532467063131,2,0,-2,-9,12,-8,21,7
1532467063136,3,1,2,-5,28,-11,1,-5
1532467063141,-2,-1,2,5,24,5,4,-3
1532467063146,-1,0,-4,-8,-24,-3,-3,3
1532467063151,1,5,9,26,67,15,-11,-7
1532467063156,-3,-7,-14,-20,-59,21,-11,2
1532467063161,1,-2,1,-5,25,-11,-3,-2
1532467063166,2,2,7,10,29,24,31,3
1532467063171,0,-3,-1,14,100,36,-10,-5
1532467063176,2,2,10,23,58,0,3,-3
1532467063181,-5,2,-2,-4,-42,-8,-13,-2
1532467063186,-3,-8,-4,7,64,-17,-17,-9
1532467063191,-3,-1,-3,-15,-43,40,7,0
1532467063196,0,-1,-2,1,38,3,-8,-2
1532467063201,1,1,4,6,-24,-25,6,3
1532467063206,4,0,2,6,41,-1,7,-4
1532467063211,-3,-2,1,7,23,-54,-9,-2
1532467063216,-2,1,-7,-14,-86,-49,6,0
1532467063221,1,1,0,-2,16,30,0,5
1532467063226,-2,-2,-1,-1,16,38,-3,-1
1532467063231,-1,-1,-4,-1,-64,-39,-8,-1
1532467063236,-1,1,3,-2,-28,-3,6,-1
1532467063241,-2,-1,-1,7,45,-27,1,-12
1532467063246,4,4,-1,-24,-112,18,1,11
1532467063251,1,0,-2,-1,23,0,-5,1
1532467063256,0,0,2,-1,-40,-1,3,-3
1532467063261,2,0,-6,-6,-16,-22,-8,6
1532467063266,-2,-3,0,2,16,1,-1,-6
1532467063271,-1,1,2,3,-9,3,-2,-3
1532467063276,0,-4,-4,-1,8,-16,-12,-3
1532467063281,-1,1,0,-2,26,40,17,7
1532467063286,2,1,-4,-3,-18,-18,-3,-3
1532467063291,0,-5,4,0,19,17,13,5
1532467063296,-1,1,-6,3,22,34,3,6
1532467063301,-5,-5,-1,-1,-2,-11,-10,-6
1532467063306,-2,-2,1,-2,-1,3,14,2
1532467063311,-3,0,-6,-9,-24,-14,-12,-6
1532467063316,0,0,-8,2,30,26,-11,1
1532467063321,2,-2,-6,-12,-72,-55,15,3
1532467063326,2,6,3,-2,-17,-12,9,10
1532467063331,-4,-6,-3,-1,24,-6,-24,0
1532467063336,-1,3,5,-2,-19,7,15,-4
1532467063341,-2,0,-1,5,22,-13,-15,2
1532467063346,-3,-1,4,9,45,28,-7,-2
1532467063351,-4,-2,-9,-24,-100,-41,-53,1
1532467063356,8,2,4,5,24,22,70,6
1532467063361,-3,-5,-5,-2,15,0,6,-6
1532467063366,-4,-2,-1,-3,3,-4,-8,-6
1532467063371,-3,1,4,8,31,22,-4,-10
1532467063376,-1,0,3,4,8,-11,-16,2
1532467063381,2,4,0,-6,-34,-13,2,-2
1532467063386,-3,-6,-5,-7,-24,-29,6,8
1532467063391,3,6,1,3,5,11,36,-7
1532467063396,-4,-6,-8,-10,-15,-14,-36,-3
1532467063401,5,-6,9,14,52,6,5,-3
1532467063406,-7,-3,-15,-13,-32,-10,3,-12
1532467063411,-1,1,4,2,6,46,3,5
1532467063416,-2,0,2,-1,-36,-42,-15,-3
1532467063421,0,4,5,8,43,62,8,-5
1532467063426,-4,-4,-3,-5,-11,-35,-10,-9
1532467063431,0,0,3,4,8,-13,0,0
1532467063436,1,-1,-1,-14,-62,-11,46,15
1532467063441,-6,0,1,-1,-20,-29,-46,5
1532467063446,3,0,1,4,-10,1,-22,-22
1532467063451,1,-4,-5,2,19,-7,17,2
1532467063456,-1,5,6,8,27,6,-4,-1
1532467063461,-5,-9,-12,-12,-17,-16,-19,0
1532467063466,0,2,6,7,8,12,2,1
1532467063471,5,1,-1,1,21,3,15,20
1532467063476,-3,-2,-2,-6,-7,-17,-29,-13
1532467063481,-2,0,1,4,27,23,14,-4
1532467063486,-1,1,0,10,77,5,-2,2
1532467063491,-2,-11,-3,-4,-20,1,-2,-6
1532467063496,2,-6,2,1,1,25,-2,2
1532467063501,2,5,2,-1,-5,-20,-3,-1
1532467063506,-4,1,-1,0,-6,3,-1,-5
1532467063511,-1,4,-5,0,5,-7,5,5
1532467063516,0,6,-4,-6,-26,4,-23,-1
1532467063521,-5,3,-9,-4,-2,-22,26,-7
1532467063526,0,-5,-4,3,13,3,7,-1
1532467063531,2,-1,-1,1,6,3,8,-1
1532467063536,-3,-7,-1,-3,2,30,2,2
1532467063541,0,-4,1,2,-7,-37,-1,13
1532467063546,-2,-10,-9,-10,-22,1,-31,-8
1532467063551,-2,-4,-4,-7,-19,-41,-11,-12
1532467063556,4,3,5,10,19,13,26,6
1532467063561,1,3,0,1,22,10,-13,4
1532467063566,0,11,5,3,4,10,18,4
1532467063571,4,10,5,3,-1,18,-2,12
1532467063576,-7,4,-5,-8,8,12,-10,-3
1532467063581,-2,3,-1,0,-7,0,1,-15
1532467063586,-2,1,-3,0,1,-9,-17,-22
1532467063591,-1,6,1,1,0,6,1,3
1532467063596,4,5,5,4,1,2,13,11
1532467063601,-6,3,-2,-4,-10,19,-3,-5
1532467063606,0,-1,0,-1,9,-13,17,5
1532467063611,-2,-3,-2,-1,-4,3,-14,-15
1532467063616,-1,-2,-2,-3,-23,-17,-23,-1
1532467063621,1,1,3,-5,-30,-8,30,5
1532467063626,-4,2,-2,2,-10,-27,-21,4
1532467063631,3,2,1,-2,-3,41,-5,-3
1532467063636,-3,-2,-2,-9,-26,27,45,0
1532467063641,-1,-4,1,5,29,3,-27,-4
1532467063646,3,2,2,0,7,26,30,11
1532467063651,1,-4,-2,-2,-6,-25,-21,1
1532467063656,2,-2,4,1,5,0,3,1
1532467063661,-1,0,-2,-4,5,9,6,-5
1532467063666,1,7,0,-1,7,4,9,6
1532467063671,-7,-3,-1,-3,-7,-24,-69,-5
1532467063676,2,9,5,5,7,3,80,-13
1532467063681,2,-4,3,5,10,6,-14,8
1532467063686,3,-3,1,0,10,-5,-38,12
1532467063691,2,-7,-3,-3,9,30,61,0
1532467063696,-4,-6,-3,4,27,-20,-34,-1
1532467063701,1,-3,0,-7,-52,-8,-16,18
1532467063706,-1,1,2,-2,6,-21,-23,-32
1532467063711,-5,-6,-4,-3,17,-31,-63,-5
1532467063716,1,-1,-1,2,10,43,58,13
1532467063721,-4,-1,0,-2,-36,15,38,-13
1532467063726,-2,-8,-1,1,21,4,-16,9
1532467063731,-5,0,-3,-3,-7,8,26,-10
1532467063736,3,0,5,9,40,-41,-46,2
1532467063741,-3,1,-10,-26,-67,-52,-10,-6
1532467063746,0,0,2,-2,8,29,-4,5
1532467063751,0,1,-1,-4,-3,3,26,-3
1532467063756,1,2,0,-3,1,2,17,18
1532467063761,-1,0,3,10,50,36,-5,-16
1532467063766,-4,-2,-6,-1,3,-25,12,0
1532467063771,7,5,1,-2,-24,-5,9,11
1532467063776,-2,9,1,-7,-16,1,-26,-10
1532467063781,1,-2,-2,3,29,-29,-5,6
1532467063786,-5,-13,-4,3,28,13,-11,-11
1532467063791,-6,-4,1,4,3,29,48,5
1532467063796,-6,-5,-6,-16,-111,-90,-30,-8
1532467063801,-1,5,-4,-3,13,-9,-12,-5
1532467063806,-2,-1,-3,-1,26,34,11,1
1532467063811,-1,0,0,2,-6,-23,2,4
1532467063816,0,-4,3,1,-6,36,-23,-9
1532467063821,-1,2,-5,-2,-1,17,16,4
1532467063826,-3,-27,5,0,-16,-18,2,1
1532467063831,6,18,-2,0,21,23,1,1
1532467063836,-8,-10,-12,-4,-10,-18,-18,-15
1532467063841,1,1,2,8,26,6,-19,0
1532467063846,2,1,2,8,34,14,32,2
1532467063851,-3,-9,-2,-9,-61,-51,-19,-2
1532467063856,-1,0,-3,1,19,-5,-3,-1
1532467063861,-2,-5,1,3,7,18,-8,-5
1532467063866,2,5,-1,-4,-10,-47,7,-1
1532467063871,-1,1,6,3,16,37,19,0
1532467063876,1,4,-12,-2,-5,-5,-13,3
1532467063881,-1,-7,1,2,12,-20,0,-3
1532467063886,-2,12,1,-4,-25,31,9,-10
1532467063891,5,-3,-4,1,9,-21,11,9
1532467063896,-1,-7,3,2,12,34,16,2
1532467063901,-2,-1,1,5,8,-16,4,-5
1532467063906,0,-1,-7,-15,-46,-20,0,-4
1532467063911,-3,-1,1,5,7,-2,-17,1
1532467063916,0,-5,3,-3,17,4,-10,-1
1532467063921,1,-2,-2,0,-23,-23,-3,-1
1532467063926,0,6,0,-4,1,16,-8,4
1532467063931,-3,-7,-8,-4,4,-9,-15,-6
1532467063936,2,-1,-1,1,-5,9,5,5
1532467063941,-2,4,0,2,7,3,-10,0
1532467063946,-2,0,-2,1,3,27,2,-1
1532467063951,-1,-18,9,-1,0,-11,-11,-2
1532467063956,0,29,-2,9,51,13,-4,-4
1532467063961,-2,-5,-1,-9,-38,-3,-1,3
1532467063966,-1,2,-1,3,2,-34,-18,-1
1532467063971,-1,-1,2,3,15,4,12,-1
1532467063976,-1,-8,-1,-5,-7,13,0,1
1532467063981,0,-1,-1,2,20,11,-2,-1
1532467063986,1,4,-3,0,16,4,16,2
1532467063991,-1,2,-6,-2,-11,0,0,0
1532467063996,-2,-6,0,-4,-36,-33,2,-1
1532467064001,4,12,2,2,4,3,9,2
1532467064006,-4,-14,1,-3,-13,-1,-10,-2
1532467064011,-2,0,-10,5,8,21,9,0
1532467064016,0,-2,0,-3,22,1,10,0
1532467064021,-3,-3,-1,-8,-64,-34,-15,-3
1532467064026,1,10,2,1,12,4,-9,-2
1532467064031,0,4,-1,-2,-14,-9,-4,0
1532467064036,-1,-3,-5,-6,-17,-4,-11,0
1532467064041,0,0,2,3,49,28,6,0
1532467064046,0,2,0,0,0,-7,5,7
1532467064051,0,1,4,4,44,12,-5,-5
1532467064056,0,-4,1,4,8,-5,-6,0
1532467064061,2,-5,-2,-4,1,50,7,14
1532467064066,-4,-1,-6,-4,-2,16,-10,-8
1532467064071,-2,1,2,-10,-71,-42,21,4
1532467064076,-1,-3,2,12,50,20,-12,-6
1532467064081,-1,-4,-6,-20,-69,-81,4,-1
1532467064086,0,0,-4,-14,7,52,8,-3
1532467064091,1,6,10,3,7,-7,13,5
1532467064096,-2,-1,2,-6,-17,26,-26,-1
1532467064101,-2,-2,-5,3,15,8,5,-8
1532467064106,3,4,4,12,10,-26,1,6
1532467064111,-1,1,-5,-6,-4,29,-4,-10
1532467064116,0,-1,-3,-7,-47,-4,2,2
1532467064121,1,-4,1,13,61,-19,4,0
1532467064126,-4,-3,-12,-3,-9,4,13,-2
1532467064131,4,0,-6,-2,-34,5,-18,4
1532467064136,-3,2,-1,-11,-26,-8,12,-8
1532467064141,-1,-4,-1,6,18,8,-17,-4
1532467064146,6,0,5,2,20,2,7,4
1532467064151,-5,-4,0,0,12,-41,-9,-3
1532467064156,1,0,-4,9,61,25,11,3
1532467064161,0,1,-2,-18,-66,-20,6,1
1532467064166,-2,4,0,8,-5,-15,-37,0
1532467064171,1,4,0,-2,11,19,40,0
1532467064176,1,1,5,5,-34,-23,-9,1
1532467064181,-3,-3,2,16,125,64,-7,-5
1532467064186,-2,-6,-6,-18,-85,-31,-6,-2
1532467064191,1,-1,0,11,52,20,-9,-5
1532467064196,-1,-6,-6,-20,-95,-71,-13,2
1532467064201,-2,1,2,6,6,3,-2,-3
1532467064206,6,1,7,17,53,4,30,2
1532467064211,-6,4,0,-5,47,-17,-26,-8
1532467064216,0,1,-3,0,39,43,34,4
1532467064221,-2,0,4,0,9,-18,-21,1
1532467064226,-1,0,1,-7,-8,-16,-4,-6
1532467064231,1,-5,0,3,25,20,2,5
1532467064236,-2,-7,-1,-12,-46,-23,-23,-10
1532467064241,-1,-7,-5,-5,-44,-52,-32,-4
1532467064246,0,2,1,9,-25,15,36,7
1532467064251,-3,-7,-7,-11,-26,20,-21,-5
1532467064256,1,-2,-2,4,30,-18,6,1
1532467064261,2,4,5,9,42,42,21,1
1532467064266,-4,-1,-1,-8,-47,-1,-15,1
1532467064271,0,-3,-4,-3,-27,11,13,2
1532467064276,4,-1,2,11,70,32,-23,5
1532467064281,-2,0,-3,-18,-57,-19,-7,-3
1532467064286,-2,-2,1,11,64,17,18,-1
1532467064291,-3,-4,-3,-4,-39,-22,-19,-5
1532467064296,-3,-2,5,7,33,16,31,0
1532467064301,1,2,0,10,38,11,2,-3
1532467064306,-3,-3,-7,-7,-14,-30,-12,1
1532467064311,-1,-4,-6,0,17,-20,8,0
1532467064316,-3,0,2,-5,53,-4,-26,-9
1532467064321,0,-2,2,1,-14,0,0,8
1532467064326,-2,0,0,-4,21,-1,15,-14
1532467064331,-1,0,4,10,38,-11,-5,-5
1532467064336,3,-1,1,2,-6,-32,-24,-2
1532467064341,0,-2,-5,-7,-25,46,41,15
1532467064346,-1,2,8,11,63,31,3,-7
1532467064351,-2,1,5,-4,-60,-20,-3,-1
1532467064356,-1,-2,-4,-3,7,17,40,-4
1532467064361,-2,-2,4,6,11,2,-21,-1
1532467064366,5,-1,-2,11,74,8,19,10
1532467064371,-2,2,-4,-13,-25,-15,-18,-2
1532467064376,-3,-7,-6,-3,-26,-14,-28,4
1532467064381,-2,-2,-4,5,33,-9,8,-17
1532467064386,-3,-1,-5,7,-29,17,18,-6
1532467064391,2,-2,-5,-4,-7,-7,1,23
1532467064396,3,3,9,-8,-60,-36,-3,0
1532467064401,0,0,-4,-9,-17,10,2,1
1532467064406,0,-3,-7,-5,-15,-15,-8,18
1532467064411,-2,3,5,-1,-19,3,-5,-17
1532467064416,-3,0,-2,1,5,30,1,-3
1532467064421,-1,-1,-4,3,-3,-22,36,3
1532467064426,-2,1,4,-7,-6,14,-16,-12
1532467064431,-1,-2,0,-4,-9,22,23,4
1532467064436,-6,0,-1,8,16,-30,-39,-9
1532467064441,0,1,1,0,0,24,7,-5
1532467064446,0,-4,-5,2,-24,-53,3,0
1532467064451,-2,-4,-7,-11,-12,17,8,2
1532467064456,0,2,3,-12,-8,24,19,-1
1532467064461,-1,-1,3,-2,31,9,-19,-9
1532467064466,-4,2,4,-9,-67,-32,-24,-7
1532467064471,1,-1,-1,12,56,-12,-4,-3
1532467064476,0,1,-10,-5,-22,-19,18,1
1532467064481,-1,-3,1,3,29,23,10,3
1532467064486,-1,0,-2,-11,5,13,-23,-11
1532467064491,2,4,4,7,-8,-11,-17,-3
1532467064496,-2,-1,-2,5,0,19,31,4
1532467064501,0,0,-1,-6,-8,-29,-26,-6
1532467064506,1,-2,2,9,64,31,3,1
1532467064511,-3,-2,-4,-9,-96,-80,-17,5
1532467064516,-1,-3,-2,3,53,30,12,-6
1532467064521,-8,-1,-6,-7,-36,-31,-15,-5
1532467064526,1,-2,-3,-3,-6,11,-21,-2
1532467064531,4,3,8,2,63,34,-4,0
1532467064536,3,0,-4,-10,-40,-4,-5,6
1532467064541,-5,-2,-4,-1,-13,-17,8,-3
1532467064546,2,2,0,1,-5,15,-18,-3
1532467064551,1,-2,-1,-14,19,4,-40,5
1532467064556,2,-7,2,15,44,22,5,9
1532467064561,2,3,-8,-7,-70,-57,4,-6
1532467064566,-7,0,-1,1,-8,-28,-32,-17
1532467064571,4,0,-4,7,26,24,25,-4
1532467064576,-5,0,1,8,11,3,-62,-14
1532467064581,4,-3,-2,2,79,14,42,1
1532467064586,3,3,6,-4,-29,-9,11,-8
1532467064591,5,10,14,16,99,57,32,4
1532467064596,-5,-3,-9,-28,-71,-4,5,12
1532467064601,-1,3,11,20,-17,14,-52,-2
1532467064606,1,0,0,-3,67,15,-13,-4
1532467064611,-9,-2,-7,-4,5,-21,-10,-14
1532467064616,10,8,23,17,1,-8,33,14
1532467064621,-6,-4,2,-27,-28,22,-8,-22
1532467064626,-3,4,4,6,11,-22,-68,20
1532467064631,0,-7,13,23,18,10,25,8
1532467064636,-3,3,2,-30,-20,7,-8,0
1532467064641,-1,-3,-3,-16,-73,-51,9,15
1532467064646,-1,-2,-4,-9,-2,22,32,6
1532467064651,-3,5,6,-3,-61,6,-20,5
1532467064656,-7,-3,-5,11,17,-10,-28,-20
1532467064661,4,4,4,6,-4,30,11,14
1532467064666,0,-2,-2,2,41,8,-21,-2
1532467064671,0,-4,-2,8,-76,-33,70,15
1532467064676,-4,4,-3,9,56,-36,-52,-37
1532467064681,3,1,3,29,118,81,3,8
1532467064686,-10,-8,-4,-19,-103,-55,22,-3
1532467064691,-1,-1,-4,-9,8,-15,-20,2
1532467064696,2,4,10,-5,5,-6,19,6
1532467064701,4,1,7,11,16,-18,-19,12
1532467064706,1,-2,0,18,41,59,21,2
1532467064711,-4,-5,-13,-19,-40,-21,-8,0
1532467064716,-2,-3,-6,3,-11,-20,-50,-9
1532467064721,2,2,-3,-3,-8,22,65,8
1532467064726,-1,-2,-10,-7,-20,-25,-21,8
1532467064731,2,3,2,-5,11,21,7,0
1532467064736,1,-3,0,-6,-6,-7,-54,14
1532467064741,-2,-2,3,18,18,3,36,-4
1532467064746,-1,-4,-11,-16,-79,-57,-32,0
1532467064751,-5,-3,-11,-36,-82,-32,22,7
1532467064756,-3,-2,-5,-2,36,1,-53,-1
1532467064761,3,0,0,-4,5,0,-11,1
1532467064766,-2,0,5,5,14,14,17,10
1532467064771,2,2,3,23,47,-5,-23,-19
1532467064776,1,-1,-2,0,-14,17,16,9
1532467064781,-3,1,-2,-12,-25,-13,-2,-8
1532467064786,2,2,4,-1,-13,-2,-19,1
1532467064791,2,2,2,12,54,67,23,8
1532467064796,-2,0,-7,-16,-85,-56,-13,1
1532467064801,-2,1,7,2,18,50,35,-2
1532467064806,1,-2,-5,-26,-87,-20,-7,-1
1532467064811,-1,-2,2,12,62,-10,-11,-3
1532467064816,-3,0,2,4,-2,8,38,0
1532467064821,-3,-2,-5,-7,-11,-39,-29,-3
1532467064826,3,-1,-1,0,26,-15,22,-3
1532467064831,-2,0,-7,-3,6,35,15,-1
1532467064836,0,-7,-2,-5,33,13,20,1
1532467064841,-2,-3,-9,-17,-37,-34,-21,0
1532467064846,-1,1,6,18,75,34,32,5
1532467064851,-2,-3,-10,-6,-47,-20,-49,-12
1532467064856,2,-2,-7,9,8,20,34,0
1532467064861,1,1,2,10,31,-52,-48,-6
1532467064866,-2,-7,-3,-22,-71,-12,28,5
1532467064871,1,-1,1,-5,11,-40,-21,3
1532467064876,-1,3,3,3,-2,-3,9,9
1532467064881,-1,2,1,-2,-14,21,1,-3
1532467064886,4,4,0,-1,22,34,-6,3
1532467064891,-1,-1,0,-1,15,-28,-22,-1
1532467064896,-1,-1,-2,-8,-37,14,29,1
1532467064901,1,0,3,-1,7,20,21,6
1532467064906,0,2,-4,3,56,20,0,-5
1532467064911,-2,-2,0,-4,-55,-39,-1,-4
1532467064916,3,0,2,26,105,34,-4,-8
1532467064921,0,0,-4,-17,-42,-5,58,13
1532467064926,-3,-3,-4,-10,-50,-31,-7,-13
1532467064931,-1,0,3,-2,1,-18,-11,-1
1532467064936,-1,0,3,8,33,5,-5,-5
1532467064941,1,-2,-4,3,18,51,25,1
1532467064946,-1,-1,0,13,-24,-13,20,7
1532467064951,-1,-3,-6,-4,10,44,-25,1
1532467064956,0,2,6,3,12,-10,53,9
1532467064961,-2,-3,-6,2,0,-15,-26,-7
1532467064966,-1,-2,-1,1,5,-7,-15,-3
1532467064971,2,-1,-2,-10,-31,13,11,-4
1532467064976,0,-1,1,-12,-41,-26,4,-5
1532467064981,0,-3,-1,-6,-3,23,-38,-2
1532467064986,-1,6,4,12,16,-54,-24,-5
1532467064991,-3,-3,-1,6,27,38,23,-4
1532467064996,-3,-1,-5,-3,0,8,-6,-8
1532467065001,0,0,1,15,57,5,18,-2
1532467065006,-4,-4,-4,-7,22,35,-3,-3
1532467065011,0,3,6,2,37,7,-9,0
1532467065016,0,-1,-2,0,-5,-5,1,1
1532467065021,-1,-2,-5,2,12,4,1,2
1532467065026,2,-3,-2,4,28,23,-7,-1
1532467065031,-2,1,-4,-3,-27,-28,4,-1
1532467065036,-4,-2,-5,-3,-11,16,-1,-6
1532467065041,1,-1,1,-4,-10,-38,-28,-2
1532467065046,-2,1,-1,-4,-8,59,25,3
1532467065051,1,1,-1,0,-4,3,15,1
1532467065056,-1,-2,-2,-4,-21,-20,-7,0
1532467065061,-1,1,0,3,17,-1,-10,3
1532467065066,0,0,-1,-1,-9,-19,1,17
1532467065071,-1,-2,-1,2,25,11,0,12
1532467065076,-3,-3,-5,-3,-12,9,7,7
1532467065081,-1,-1,-3,-6,-30,-20,7,3
1532467065086,1,-1,4,3,6,3,-2,-9
1532467065091,0,-2,-1,2,27,60,15,-10
1532467065096,-2,-1,-3,-8,-53,-58,-25,-16
1532467065101,-5,-4,-4,-6,-20,-7,1,-9
1532467065106,-2,1,1,5,2,-5,-21,-2
1532467065111,-1,0,5,7,24,6,-4,-7
1532467065116,4,2,3,19,80,22,9,16
1532467065121,-1,-1,6,-1,3,8,10,5
1532467065126,-2,-2,-1,-4,-12,-16,-3,4
1532467065131,1,0,1,7,55,-7,-28,12
1532467065136,-7,-5,3,2,-6,30,13,8
1532467065141,-4,2,-1,-5,-19,5,-3,-8
1532467065146,0,-2,-2,-4,-23,-36,-8,-16
1532467065151,-4,-2,-4,-3,-3,9,-9,-13
1532467065156,2,2,2,-1,2,20,24,-4
1532467065161,-1,-2,-3,0,7,-5,3,-5
1532467065166,-2,0,0,-2,5,23,-13,-1
1532467065171,-3,-1,-3,-5,-10,-23,4,11
1532467065176,2,-1,-2,-9,-35,-35,-30,0
1532467065181,5,-2,-1,-3,0,42,39,4
1532467065186,-2,1,3,-2,-26,-21,-11,5
1532467065191,1,-3,0,2,8,-38,9,2
1532467065196,-7,-1,-2,-1,-2,44,23,0
1532467065201,-3,-2,2,8,19,-33,-26,-11
1532467065206,-4,-5,-7,1,39,17,0,-5
1532467065211,0,-2,-3,-11,-28,-17,0,8
1532467065216,0,3,2,-3,7,-10,-13,-10
1532467065221,1,1,0,2,1,3,-6,-4
1532467065226,-2,0,0,3,23,29,22,-12
1532467065231,-2,1,2,0,-28,-36,-14,-21
1532467065236,3,-2,-4,-4,1,-9,-1,-7
1532467065241,-1,1,-1,-3,-2,16,-5,7
1532467065246,-1,-5,-2,-3,-16,-17,-2,5
1532467065251,1,3,0,2,4,5,8,4
1532467065256,-2,-3,-3,-8,-26,-21,-7,-8
1532467065261,-1,0,-1,0,-1,-9,5,-2
1532467065266,2,1,3,6,52,6,-4,3
1532467065271,-3,-2,-4,-6,-22,24,-3,-8
1532467065276,0,5,0,-2,-2,-4,-3,-4
1532467065281,-4,-8,-5,-5,-12,-11,-10,-8
1532467065286,0,0,0,4,13,11,2,-5
1532467065291,0,-1,1,-3,-29,-30,-4,-4
1532467065296,0,3,2,-1,-4,5,-6,-5
1532467065301,0,2,-1,-1,2,12,-5,-6
1532467065306,-1,0,3,-2,-23,-37,-6,0
1532467065311,-1,-2,-2,2,15,10,7,-4
1532467065316,-1,-4,-4,-3,-14,-14,-14,-2
1532467065321,-1,1,-1,0,2,-9,-1,0
1532467065326,0,-1,1,0,0,20,-1,-1
1532467065331,0,-2,0,4,21,22,3,2
1532467065336,0,-5,-3,-7,-21,-37,13,4
1532467065341,0,1,-2,0,-12,-14,0,3
1532467065346,-3,0,-3,-5,-12,-3,1,-1
1532467065351,-2,-3,0,-5,-2,-3,-11,-4
1532467065356,0,-4,0,3,32,38,22,2
1532467065361,-1,2,-4,6,-12,-21,0,3
1532467065366,0,1,-7,-6,-9,-6,5,3
1532467065371,0,1,-6,-1,-1,7,-6,0
1532467065376,-1,-5,4,3,14,0,-3,2
1532467065381,0,0,1,-2,-2,11,0,5
1532467065386,-2,0,0,-2,4,-7,-6,-2
1532467065391,1,-2,-3,-1,9,5,7,0
1532467065396,-2,-1,-3,-4,-8,4,-2,0
1532467065401,1,2,-1,-7,-5,2,-1,0
1532467065406,-1,-4,1,5,31,29,-1,0
1532467065411,-1,-2,-8,-8,-53,-29,0,3
1532467065416,-3,0,1,2,-16,-17,-17,-3
1532467065421,2,0,2,4,16,19,27,2
1532467065426,-1,-1,0,-3,-3,2,5,3
1532467065431,0,0,-4,-4,31,10,-6,2
1532467065436,-3,-2,-2,-3,-5,-7,-19,0
1532467065441,-2,-2,-1,2,-7,5,14,4
1532467065446,0,1,-2,-5,-29,-5,0,-3
1532467065451,-3,0,3,3,7,-5,-12,-5
1532467065456,-2,-1,-3,-1,-8,0,9,2
1532467065461,-1,-2,-1,-4,3,-13,-18,-5
1532467065466,0,0,1,4,17,6,4,-1
1532467065471,-3,-2,-1,0,-4,9,-5,-6
1532467065476,2,11,6,-3,0,2,2,6
1532467065481,-3,-13,-4,0,4,-3,-3,-2
1532467065486,0,-2,-4,-4,-14,-1,3,0
1532467065491,-2,0,3,-3,-14,-5,0,-1
1532467065496,-2,-8,-5,6,32,-4,2,-3
1532467065501,0,-1,3,-5,13,24,5,-1
1532467065506,-2,13,-2,-4,-32,-22,-12,-1
1532467065511,1,-16,4,-1,14,8,13,1
1532467065516,0,26,1,5,23,5,-2,0
1532467065521,1,3,-2,-6,-18,-30,-24,-1
1532467065526,-1,-9,-3,-2,-8,-1,5,-1
1532467065531,2,16,2,4,12,-10,-5,3
1532467065536,1,-6,11,1,12,33,18,0
1532467065541,-3,-16,-15,-10,-20,-8,-9,-1
1532467065546,1,-7,2,4,6,-2,-4,-1
1532467065551,-2,9,-6,-1,-10,-5,4,0
1532467065556,-1,-12,-5,-10,-15,-10,-8,-6
1532467065561,-2,0,6,12,77,46,5,-1
1532467065566,-2,2,1,-8,-96,-65,2,4
1532467065571,1,-4,-2,2,0,31,0,1
1532467065576,-3,-32,-4,2,-3,-6,5,-2
1532467065581,2,24,9,3,18,-6,-16,-2
1532467065586,0,2,3,4,45,22,-5,-6
1532467065591,3,-6,-2,-8,-44,17,16,10
1532467065596,0,6,-7,-12,-25,39,13,-2
1532467065601,2,9,13,8,4,-25,7,7
1532467065606,-6,-10,-9,2,26,-4,-14,-11
1532467065611,0,2,0,-2,-18,-23,-4,-1
1532467065616,0,4,0,-2,13,12,-9,-2
1532467065621,-2,-4,-3,1,-2,-2,6,-3
1532467065626,3,-1,2,-14,-83,28,8,5
1532467065631,-4,-4,-2,2,30,-12,-5,-5
1532467065636,-1,-1,-5,-4,-5,-6,-6,-4
1532467065641,-2,-6,-4,-1,-7,8,6,5
1532467065646,0,3,1,7,38,0,3,-1
1532467065651,-1,-3,-1,-2,-13,15,0,-2
1532467065656,0,4,1,0,-9,-13,-8,-1
1532467065661,-1,-3,-4,-3,-13,-1,4,-6
1532467065666,-3,0,0,0,17,-14,-6,-5
1532467065671,2,0,2,-2,10,1,8,7
1532467065676,0,2,-3,11,55,9,12,-2
1532467065681,-2,-3,-2,-5,-5,21,1,0
1532467065686,0,0,2,-1,34,30,7,4
1532467065691,-3,-4,-7,-4,11,-42,-17,-10
1532467065696,0,-2,6,5,8,11,15,6
1532467065701,0,2,0,1,-8,-15,-11,1
1532467065706,1,-3,-5,-4,-18,29,7,-3
1532467065711,-1,1,4,4,23,2,-3,-3
1532467065716,2,1,1,-2,-16,-5,-8,3
1532467065721,-3,-3,-6,-9,-32,-39,-1,-4
1532467065726,0,2,0,0,12,15,-5,-3
1532467065731,0,-3,1,6,54,39,3,6
1532467065736,-3,1,-2,0,-23,-14,-4,-1
1532467065741,-2,-1,-3,-7,-15,-1,-8,-4
1532467065746,2,0,3,0,-16,-43,-1,2
1532467065751,0,-4,-2,-1,11,31,10,-1
1532467065756,0,0,-2,-2,1,-18,-6,-1
1532467065761,-1,-2,1,-1,-40,-12,-7,-3
1532467065766,-1,3,3,3,44,29,6,3
1532467065771,2,1,-2,-6,-21,-15,-10,0
1532467065776,-5,-4,-5,-9,-29,-6,3,-3
1532467065781,2,-3,0,1,17,-9,-4,-2
1532467065786,0,-1,4,10,58,24,0,1
1532467065791,0,3,2,-4,-67,-39,-5,-1
1532467065796,-1,-5,-7,-3,24,11,-5,-4
1532467065801,-1,1,0,4,20,3,10,-1
1532467065806,2,3,0,-4,-20,1,8,3
1532467065811,1,6,4,2,-15,-19,-6,-11
1532467065816,-2,-2,2,1,5,5,-12,5
1532467065821,1,-2,-1,-3,-10,10,0,9
1532467065826,-1,-1,-2,0,-8,-11,4,1
1532467065831,-1,-1,0,4,20,-17,-17,-4
1532467065836,0,3,-4,-10,-53,-1,8,-3
1532467065841,-1,-1,-1,-2,5,-5,1,1
1532467065846,-1,-3,-2,3,3,-17,-10,-3
1532467065851,-3,-1,-3,-3,5,23,5,-5
1532467065856,2,1,1,2,7,-9,-3,6
1532467065861,-1,-1,1,2,5,5,-4,-3
1532467065866,-1,-5,-7,-6,-12,-12,-3,-2
1532467065871,3,-1,0,0,-2,-20,2,0
1532467065876,0,-4,-13,-8,-42,-5,2,4
1532467065881,-12,-1,-2,-8,-51,-51,2,-8
1532467065886,-4,-1,1,-2,-21,9,0,-9
1532467065891,-2,-3,-1,1,25,-12,4,1
1532467065896,-1,-1,3,-2,-4,-7,-38,-5
1532467065901,10,4,-1,6,22,65,21,11
1532467065906,-3,-4,-2,-1,16,-2,-31,-2
1532467065911,1,-4,-3,-4,-44,-15,42,5
1532467065916,1,0,3,2,22,-7,-8,-6
1532467065921,-4,-3,-4,-6,-13,-33,-5,-7
1532467065926,-2,1,4,5,13,-2,6,3
1532467065931,1,-2,3,-4,-6,49,-15,1
1532467065936,0,1,0,-1,5,-8,10,-2
1532467065941,-1,1,2,-2,2,7,-3,-3
1532467065946,1,0,0,2,16,20,15,1
1532467065951,-2,1,-6,-8,-28,-48,-11,1
1532467065956,-4,0,-2,0,1,2,14,-1
1532467065961,2,-3,5,6,16,-6,-4,-2
1532467065966,1,-5,-2,-6,-13,10,0,0
1532467065971,-5,-2,-2,-1,12,25,-8,-3
1532467065976,-4,-5,0,1,-2,-2,-1,-3
1532467065981,2,-8,-3,-1,3,-5,2,-1
1532467065986,-2,-7,-2,3,8,-7,-1,1
1532467065991,-2,-8,0,3,9,5,-8,0
1532467065996,0,-2,1,0,4,11,14,2
1532467066001,3,7,0,-1,2,8,-2,-5
1532467066006,-1,7,-4,-5,-16,-16,-5,-3
1532467066011,-2,4,0,1,7,8,-15,-8
1532467066016,1,5,-1,1,6,-7,12,8
1532467066021,-3,1,-5,0,0,5,-1,-1
1532467066026,5,6,2,1,-4,-14,5,2
1532467066031,-2,-3,0,2,7,3,8,-1
1532467066036,-15,-11,-1,0,15,-8,-32,-27
1532467066041,-1,-6,-1,-2,-10,-7,2,7
1532467066046,5,-5,-1,1,4,1,9,10
1532467066051,2,-2,-3,-4,1,2,-12,11
1532467066056,1,3,0,-3,2,6,-1,-20
1532467066061,-10,3,-4,-3,-1,-5,-7,-7
1532467066066,-3,6,-2,0,0,0,6,-6
1532467066071,2,-1,0,4,11,-1,12,6
1532467066076,1,-2,2,-6,-21,-12,-11,9
1532467066081,1,1,1,-1,1,8,15,-2
1532467066086,-5,-5,-3,-3,-3,-29,-18,-17
1532467066091,3,1,1,4,6,22,-13,7
1532467066096,-1,3,-5,1,17,2,-33,-16
1532467066101,3,1,-2,-4,-21,11,40,12
1532467066106,-1,-1,-4,-7,-22,-25,-24,7
1532467066111,-3,4,-2,-3,8,4,-5,-12
1532467066116,3,2,0,0,-16,4,37,19
1532467066121,-2,2,0,-1,17,0,-13,-7
1532467066126,-3,-1,-5,-4,-11,-3,-21,5
1532467066131,-3,4,5,7,6,6,42,-23
1532467066136,5,2,2,1,11,-13,-35,38
1532467066141,6,3,4,3,25,72,58,5
1532467066146,-5,-5,-1,-2,-29,-79,-30,-14
1532467066151,-9,-4,-8,-13,-37,2,-10,-2
1532467066156,3,7,-1,-1,-7,-2,43,-6
1532467066161,-3,0,4,7,67,13,-27,-15
1532467066166,4,2,-1,-10,-71,-23,-25,30
1532467066171,5,3,5,12,38,-2,-5,-7
1532467066176,-3,-6,-7,-9,-20,-19,-17,-7
1532467066181,-3,-5,-8,-6,-11,19,-27,5
1532467066186,1,-1,0,6,42,28,-4,-27
1532467066191,-4,5,7,-1,-2,-15,-34,11
1532467066196,-5,-10,0,1,4,-6,-4,-5
1532467066201,3,-1,0,2,-17,-29,-47,-4
1532467066206,2,0,3,5,34,60,29,7
1532467066211,2,1,4,-6,-12,-31,37,9
1532467066216,-4,2,0,-4,-23,-12,-53,-13
1532467066221,0,0,-2,-4,-18,-20,12,5
1532467066226,-1,0,1,1,24,12,3,-6
1532467066231,-1,-5,-3,1,7,8,-1,1
1532467066236,2,-2,-3,1,13,2,10,-2
1532467066241,-2,-3,-3,-8,-16,-26,-9,-6
1532467066246,-1,0,2,3,14,-4,22,3
1532467066251,-1,-6,-5,-1,18,20,-15,-3
1532467066256,1,-2,2,1,-5,40,15,8
1532467066261,-1,-2,-2,-2,-19,-7,1,-4
1532467066266,1,0,-1,4,16,7,12,1
1532467066271,0,-2,-2,-3,-21,-13,8,1
1532467066276,2,1,0,2,-3,-14,5,3
1532467066281,0,1,3,1,8,6,4,7
1532467066286,0,-2,-1,1,7,17,1,-3
1532467066291,-1,8,-2,-5,0,-3,-10,-5
1532467066296,4,-11,0,1,15,20,18,10
1532467066301,5,2,6,14,28,-41,-15,1
1532467066306,-5,-5,-6,-8,-31,47,20,3
1532467066311,-2,-2,-8,-13,-33,-29,21,5
1532467066316,-2,1,-1,-4,-7,5,28,-5
1532467066321,-1,0,3,7,46,35,-2,-1
1532467066326,-2,-2,-2,-3,-22,-37,0,-6
1532467066331,0,-2,-1,0,5,24,-14,0
1532467066336,-3,0,-6,-5,-4,-9,-14,-6
1532467066341,-1,-2,0,-6,-29,-11,31,-1
1532467066346,7,5,3,1,15,1,6,3
1532467066351,0,-3,-3,1,3,10,-7,-2
1532467066356,-2,1,2,4,27,-11,-4,-5
1532467066361,-3,-3,-3,-8,-43,-14,-11,-1
1532467066366,-3,-2,-5,-12,-38,-25,-8,-6
1532467066371,0,-2,1,0,-1,-1,25,2
1532467066376,0,2,5,3,5,3,-1,-1
1532467066381,1,-3,-2,1,18,4,-4,2
1532467066386,-2,0,3,-1,-20,-9,4,-1
1532467066391,-1,-3,-2,1,-3,0,-13,-3
1532467066396,1,2,0,3,8,13,6,0
1532467066401,0,-2,-4,7,47,13,-10,-3
1532467066406,-4,-1,-2,-10,-58,-45,1,-2
1532467066411,-3,-3,-11,-11,-3,-23,-27,-3
1532467066416,-1,-1,0,-2,-5,10,5,1
1532467066421,0,-2,-3,-7,-29,-4,4,-2
1532467066426,-2,0,-1,-2,5,-33,-20,-2
1532467066431,3,2,5,13,51,12,30,9
1532467066436,-5,3,0,-5,-19,14,-32,-20
1532467066441,-2,-3,-3,-9,-52,-10,-5,1
1532467066446,-2,-1,-3,-5,18,-2,0,-6
1532467066451,-2,2,2,0,-8,4,2,0
1532467066456,2,-6,-2,5,26,15,27,9
1532467066461,1,0,0,2,-12,19,-8,0
1532467066466,0,-1,-4,8,40,16,3,-4
1532467066471,-2,-4,-10,-22,-81,-52,-10,4
1532467066476,2,0,-2,-3,-3,-32,-9,-5
1532467066481,-5,-2,0,-5,-26,6,1,-4
1532467066486,3,-1,5,11,68,3,1,1
1532467066491,-5,-2,0,-3,-30,-19,-5,-3
1532467066496,2,4,6,10,13,0,-2,-2
1532467066501,1,-1,4,7,43,0,9,0
1532467066506,-2,1,-2,-12,-30,8,2,2
1532467066511,-1,-3,-3,0,52,6,-10,-7
1532467066516,-2,0,-4,0,-21,-11,-3,2
1532467066521,1,0,-5,-8,17,29,-2,1
1532467066526,-2,2,4,5,-14,-10,-5,-4
1532467066531,0,3,1,16,42,20,-6,-4
1532467066536,1,2,-2,-4,1,-20,14,6
1532467066541,2,2,2,-11,-57,31,5,2
1532467066546,0,1,2,0,8,23,3,-2
1532467066551,-1,1,2,-9,-31,-47,-8,-2
1532467066556,1,0,3,10,48,28,16,1
1532467066561,-2,3,1,8,9,-26,-12,-4
1532467066566,-4,-4,-7,-17,-81,16,-1,0
1532467066571,0,2,1,-5,-14,38,-7,-1
1532467066576,-2,-6,-6,-10,8,22,9,2
1532467066581,-4,-5,-4,1,28,0,-7,-3
1532467066586,-2,-2,-1,1,-20,-48,-11,2
1532467066591,-1,-2,2,10,41,45,21,3
1532467066596,0,-1,-2,2,18,30,-13,-3
1532467066601,1,1,-4,-6,-30,-7,8,2
1532467066606,-1,3,1,0,-10,-1,-11,-2
1532467066611,-2,3,-2,1,-8,-5,-5,-5
1532467066616,1,1,-5,-6,-28,-34,15,2
1532467066621,1,-1,0,-1,4,17,-8,-2
1532467066626,1,-2,1,5,63,18,10,2
1532467066631,-2,0,-4,-10,-38,0,-14,-1
1532467066636,-2,-6,3,4,-5,-1,-1,-1
1532467066641,0,-1,-1,2,0,-22,-12,0
1532467066646,1,0,-1,-2,11,-16,20,3
1532467066651,0,2,-3,-2,4,53,9,0
1532467066656,-4,0,0,1,-9,-33,-24,-2
1532467066661,-2,-6,-6,-25,-92,27,21,3
1532467066666,-2,-2,-1,10,38,16,-9,-1
1532467066671,1,-7,-3,2,25,-41,-38,-4
1532467066676,2,0,0,0,39,87,71,6
1532467066681,-1,-1,6,12,28,-28,-19,-7
1532467066686,1,-1,-4,1,-17,-26,1,3
1532467066691,-3,-4,-2,-13,-78,-2,-2,-5
1532467066696,0,-4,-3,-7,-30,-15,2,-5
1532467066701,1,1,-2,9,38,10,-4,2
1532467066706,-3,-3,-6,-13,-89,-54,-4,-2
1532467066711,1,-4,3,18,89,36,-2,-4
1532467066716,-3,-4,-3,-3,-21,-30,-14,0
1532467066721,-1,-1,0,-1,16,33,14,7
1532467066726,1,0,5,14,54,28,8,-8
1532467066731,-2,-2,-2,-26,-69,-47,-3,5
1532467066736,0,-2,-3,0,10,-54,-11,-4
1532467066741,-3,-4,-5,-6,-7,-1,5,-2
1532467066746,-2,-2,2,8,51,-5,-9,0
1532467066751,-1,3,1,1,-47,-38,0,0
1532467066756,1,3,1,2,23,33,17,4
1532467066761,-2,-1,-1,-8,-17,-32,-11,-2
1532467066766,2,0,-5,-7,-53,-1,-3,1
1532467066771,-1,-2,-4,5,39,34,7,-3
1532467066776,-4,2,-3,-12,-78,-8,-6,-1
1532467066781,-1,-2,1,13,23,0,-1,-3
1532467066786,0,-1,2,2,-1,19,4,0
1532467066791,0,0,-1,-3,-41,-21,6,2
1532467066796,0,-3,-5,-12,-36,24,-4,3
1532467066801,2,0,-1,-2,26,-1,2,-3
1532467066806,0,-1,2,-3,-44,-14,-4,1
1532467066811,-1,-2,2,10,29,-6,-2,-4
1532467066816,-1,0,3,7,14,-38,-6,-5
1532467066821,1,0,-1,-5,-4,-12,8,3
1532467066826,-2,-2,-4,-8,15,-6,-4,-2
1532467066831,0,-3,-1,0,27,12,2,-1
1532467066836,-2,2,4,10,6,8,-1,0
1532467066841,-1,-1,-2,4,-10,2,2,1
1532467066846,0,3,1,4,8,-22,-14,-3
1532467066851,1,-2,-7,-5,22,16,13,2
1532467066856,-2,-3,-4,-8,19,0,-14,-3
1532467066861,-1,2,0,-1,-22,-13,-6,-1
1532467066866,-2,-4,-1,-2,9,5,5,3
1532467066871,0,3,2,4,5,5,2,0
1532467066876,2,-2,-1,0,14,-2,-4,-2
1532467066881,-2,-1,-2,-1,1,4,3,-1
1532467066886,-1,1,-2,-3,1,3,2,-1
1532467066891,1,0,0,0,-3,-6,-2,3
1532467066896,0,0,-1,9,35,36,0,-1
1532467066901,-2,-1,-1,-1,-22,-44,-10,-4
1532467066906,0,-3,-1,-2,2,20,0,5
1532467066911,-2,-2,-1,7,66,-25,-2,-2
1532467066916,-3,-2,-5,-11,-44,22,-11,-1
1532467066921,-1,-1,-1,-4,-11,14,4,-4
1532467066926,0,1,1,1,2,-12,-11,3
1532467066931,-2,-2,-1,6,24,19,16,2
1532467066936,1,3,2,1,6,12,-16,-5
1532467066941,-2,-1,-1,-3,-13,-23,1,-4
1532467066946,-5,-2,-5,-10,-11,20,-6,0
1532467066951,1,0,1,1,-7,-1,-23,8
1532467066956,3,1,3,8,10,3,16,-9
1532467066961,5,-1,-2,-2,-7,18,34,12
1532467066966,1,2,-1,-4,3,-20,2,-2
1532467066971,-3,0,-2,-2,-20,-3,-8,-5
1532467066976,-1,-5,-6,2,47,13,-24,2
1532467066981,-3,2,2,-1,-4,-18,32,-5
1532467066986,-3,-4,-2,-6,-25,-11,4,-9
1532467066991,1,6,-4,-4,-16,-7,3,2
1532467066996,0,-7,-1,3,13,-5,12,5
1532467067001,3,-1,1,4,19,17,-14,6
1532467067006,1,-2,2,5,14,7,-16,-2
1532467067011,-3,-1,-3,-5,-28,-12,42,-14
1532467067016,-5,0,-1,-3,-22,-33,-51,-9
1532467067021,-3,-4,-5,-2,18,29,7,0
1532467067026,0,1,-2,-4,-7,-27,-6,1
1532467067031,3,0,1,-5,-25,-2,-30,-5
1532467067036,2,1,2,0,15,-10,43,8
1532467067041,-4,0,0,3,-12,-10,5,2
1532467067046,2,-1,-3,-4,-4,12,16,-5
1532467067051,-1,-1,-2,-1,0,-3,-17,3
1532467067056,0,1,3,3,10,-5,20,6
1532467067061,-2,-4,0,-3,-4,15,-21,-10
1532467067066,5,-1,11,3,-4,-13,13,8
1532467067071,0,-7,-3,4,2,0,6,4
1532467067076,-2,0,1,-3,-26,0,-6,-4
1532467067081,3,5,3,10,14,-5,-2,4
1532467067086,-4,0,-5,-6,21,19,-5,-7
1532467067091,-1,3,-1,-1,10,9,5,-4
1532467067096,0,5,2,0,-18,-15,1,2
1532467067101,-3,-1,-4,-5,3,3,-6,-7
1532467067106,-6,-5,-5,-5,-1,5,-9,-13
1532467067111,2,2,2,2,1,0,-11,0
1532467067116,-1,-1,-2,2,7,29,21,2
1532467067121,-2,-1,-3,1,4,-44,-5,-2
1532467067126,-1,-2,-2,-1,-5,-16,-8,0
1532467067131,-1,2,5,-3,-10,35,-5,-3
1532467067136,-3,1,-1,1,-2,-3,12,2
1532467067141,-2,-6,-7,-7,-24,-9,-3,-6
1532467067146,1,0,-1,-4,5,6,14,5
1532467067151,1,-4,-1,-2,-35,-3,-12,0
1532467067156,0,-1,-4,-4,-8,-7,-10,-4
1532467067161,1,2,1,-2,10,16,-19,-2
1532467067166,-3,3,1,9,10,8,8,4
1532467067171,1,3,4,3,8,-4,2,-4
1532467067176,-3,-2,-3,-10,-14,-18,-18,-6
1532467067181,1,3,-1,-4,-3,11,12,3
1532467067186,-1,-4,-4,-1,2,7,-17,-1
1532467067191,-3,-2,-3,2,17,6,21,3
1532467067196,-3,1,-2,2,-1,1,3,2
1532467067201,0,-1,3,1,6,-21,-25,-6
1532467067206,0,0,-5,7,8,-3,0,-1
1532467067211,-1,0,-3,-8,-10,-21,9,-1
1532467067216,-2,-10,-2,-1,5,2,-5,-2
1532467067221,1,11,1,-2,-5,10,13,2
1532467067226,0,-1,-2,-1,1,8,-8,-4
1532467067231,-2,0,-1,4,19,-33,-11,-1
1532467067236,1,4,-1,-4,-1,13,8,2
1532467067241,-2,-6,-1,3,2,4,-12,-2
1532467067246,-1,2,-1,-3,-19,2,-2,-3
1532467067251,1,-6,-3,-2,22,0,3,-3
1532467067256,-2,-2,0,1,2,-1,-3,0
1532467067261,0,-3,-3,-1,-7,2,-7,-1
1532467067266,-2,3,2,-3,-6,-16,9,3
1532467067271,-1,-4,-4,1,1,-2,-12,-4
1532467067276,3,2,2,7,19,13,8,2
1532467067281,-4,-5,-1,-3,10,12,-4,-4
1532467067286,0,-1,1,0,-7,9,-31,-2
1532467067291,-1,1,3,1,-10,-28,3,-10
1532467067296,1,0,0,6,28,7,-3,6
1532467067301,2,0,-2,-4,-9,-9,13,0
1532467067306,0,-5,-2,2,6,-6,5,-4
1532467067311,-2,-2,0,-8,-10,-12,10,6
1532467067316,-1,0,-4,1,-13,3,-22,-6
1532467067321,0,0,1,5,6,-2,-11,1
1532467067326,1,-2,-2,13,21,6,23,2
1532467067331,-2,-2,-6,-2,51,35,-13,-6
1532467067336,-1,-1,0,-9,-58,-16,17,5
1532467067341,0,-1,0,-10,-14,-10,-23,1
1532467067346,3,8,6,5,14,7,22,7
1532467067351,-2,-3,2,7,14,9,-7,-1
1532467067356,-1,-2,-4,3,14,0,-4,-2
1532467067361,0,-1,3,2,-4,-13,-30,-6
1532467067366,-3,-1,-2,-19,-39,30,20,-4
1532467067371,0,0,-3,0,-11,0,-14,6
1532467067376,-4,-1,-5,-16,1,-19,-6,-12
1532467067381,1,2,5,10,34,27,27,11
1532467067386,0,-4,-3,6,57,-3,-22,-9
1532467067391,-3,1,-6,-16,-105,-25,27,5
1532467067396,0,-2,-2,-4,12,6,-13,-5
1532467067401,0,2,1,-7,-3,21,15,-1
1532467067406,-3,-4,-2,-6,-22,-39,-13,4
1532467067411,-1,2,3,13,69,58,5,-2
1532467067416,0,1,4,1,-34,-25,1,1
1532467067421,-2,-3,-3,-2,3,15,5,-3
1532467067426,-1,-2,0,-9,-16,5,9,2
1532467067431,-1,0,6,5,9,-10,-6,-3
1532467067436,-1,-2,-4,-11,-39,-14,-1,0
1532467067441,-1,-3,1,2,19,24,7,0
1532467067446,-2,-2,-3,2,-34,-10,-5,-1
1532467067451,2,-1,-1,3,32,-27,-13,-3
1532467067456,-2,-1,-4,-16,-44,43,3,4
1532467067461,-2,0,-5,-4,-19,-24,5,1
1532467067466,0,0,2,8,38,-2,-2,-5
1532467067471,-1,-1,-5,-9,-32,14,-12,-1
1532467067476,-1,0,2,9,40,-9,10,-3
1532467067481,-2,-5,-2,-3,-9,-7,-5,-2
1532467067486,0,0,2,2,-4,-4,3,1
1532467067491,1,-2,-4,-7,-9,32,-1,-4
1532467067496,-2,-2,2,8,28,-71,-11,-3
1532467067501,-2,1,-3,-11,-60,-23,8,2
1532467067506,-3,-2,-1,1,26,6,-4,-2
1532467067511,-2,-4,-2,0,-3,-5,16,1
1532467067516,2,1,1,6,31,56,12,1
1532467067521,-2,-2,-3,-12,-58,-41,-9,-3
1532467067526,0,-2,-1,12,50,13,-1,-1
1532467067531,-1,0,-1,-7,-12,4,-18,-2
1532467067536,-4,-2,-4,-12,-65,-35,24,3
1532467067541,-3,-2,-1,13,50,10,-24,-7
1532467067546,1,2,1,-11,-56,-17,-1,0
1532467067551,-1,-1,-1,1,8,-28,-4,1
1532467067556,2,0,2,4,2,9,-26,-4
1532467067561,-2,-3,-6,1,44,22,15,3
1532467067566,-2,2,1,-7,-81,-22,-10,-1
1532467067571,2,0,0,3,3,26,15,2
1532467067576,1,1,0,1,8,-44,-21,-3
1532467067581,-2,0,-6,-5,5,0,1,-2
1532467067586,-2,-1,-3,-3,-13,10,-1,2
1532467067591,-2,1,-2,-3,-8,-10,2,2
1532467067596,1,-3,3,6,38,18,-3,0
1532467067601,1,1,2,-4,-6,24,2,-1
1532467067606,0,0,-4,3,32,19,-1,1
1532467067611,-1,-1,-3,-15,-44,-14,6,-1
1532467067616,2,2,-2,3,19,2,-1,0
1532467067621,-1,-1,1,-1,-16,-20,1,-2
1532467067626,0,-1,-6,8,81,12,1,-5
1532467067631,-2,-2,-3,-7,-39,-2,0,6
1532467067636,0,-2,-1,0,14,19,2,-1
1532467067641,1,3,2,-3,-13,-12,0,-3
1532467067646,-1,4,1,-1,-7,0,4,6
1532467067651,-5,-7,-1,4,24,-5,-10,-15
1532467067656,0,-1,0,-2,-7,-2,11,7
1532467067661,2,0,1,7,14,-1,-4,1
1532467067666,-1,-1,2,-2,-10,-16,3,-4
1532467067671,1,1,1,-1,9,6,6,3
1532467067676,-4,-2,1,0,-13,15,5,-5
1532467067681,-2,-1,-1,4,10,-6,-1,-2
1532467067686,3,-2,-2,-12,-14,-5,-2,0
1532467067691,-2,0,-2,-9,-23,-13,-1,3
1532467067696,2,1,0,3,29,7,0,-1
1532467067701,-2,0,-1,4,13,10,6,3
1532467067706,-3,-5,-3,-6,-32,-9,-6,-1
1532467067711,0,0,0,3,-5,4,-1,0
1532467067716,0,-2,0,-3,3,7,-3,0
1532467067721,1,-3,-1,2,44,-10,5,-1
1532467067726,-3,2,0,10,45,25,-18,-4
1532467067731,-3,-4,-3,-16,-86,0,27,3
1532467067736,-3,3,1,6,23,11,-2,-3
1532467067741,-3,-3,-5,-9,-15,-9,8,-6
1532467067746,1,-2,2,4,35,13,-44,2
1532467067751,1,4,4,5,18,-5,34,4
1532467067756,-2,-3,-3,0,-9,-4,9,0
1532467067761,-1,-2,-5,-11,-41,1,-3,8
1532467067766,1,1,-2,-3,-16,-11,9,-6
1532467067771,0,-1,1,5,24,7,-3,-5
1532467067776,0,-1,1,3,13,2,-2,-1
1532467067781,1,-2,5,2,37,-1,-5,-9
1532467067786,-1,1,-4,-5,-7,-1,-19,-2
1532467067791,-2,0,0,-2,19,-4,2,-2
1532467067796,1,-1,-3,-5,-3,-1,-13,-8
1532467067801,-1,-4,-1,1,1,-3,17,0
1532467067806,2,1,5,6,-2,8,-24,5
1532467067811,-3,-1,-1,-2,-9,1,-14,4
1532467067816,-2,0,4,9,27,-2,-16,-8
1532467067821,-1,-2,-2,-5,-59,-16,11,-2
1532467067826,-1,2,1,-5,-29,-11,9,-1
1532467067831,-1,-3,-3,1,13,3,8,1
1532467067836,0,2,2,5,33,9,-11,-3
1532467067841,3,-5,-1,-19,-96,-6,-4,21
1532467067846,-6,-13,-7,-3,0,-9,21,-20
1532467067851,3,-4,0,6,31,4,11,2
1532467067856,-4,-2,-4,-13,-47,-17,-4,-3
1532467067861,0,4,0,1,18,-5,-15,-4
1532467067866,0,1,0,1,15,8,22,6
1532467067871,-1,2,0,1,11,19,-14,-2
1532467067876,-1,-1,-3,-12,-84,-61,4,3
1532467067881,-2,3,0,4,14,11,-1,1
1532467067886,3,5,4,6,51,14,13,10
1532467067891,-3,1,-6,-10,-23,-24,-18,-9
1532467067896,0,1,2,5,16,20,14,5
1532467067901,-3,1,-2,3,15,-2,-5,-7
1532467067906,-1,-1,0,-1,-12,4,10,-2
1532467067911,0,0,2,4,-20,-32,-19,-5
1532467067916,0,-1,-2,1,32,41,12,4
1532467067921,-4,-1,-6,-13,-42,-13,-10,-4
1532467067926,-1,-1,-1,2,1,5,-10,-1
1532467067931,0,-1,0,4,-2,-6,0,-1
1532467067936,-1,-2,-1,-2,0,5,-9,-2
1532467067941,0,-1,5,11,69,-2,1,-8
1532467067946,-2,-2,-4,-4,-36,-7,12,0
1532467067951,-1,-3,-2,-2,7,-8,-9,-1
1532467067956,0,-4,0,-1,-3,3,-5,0
1532467067961,3,-3,0,3,28,-13,16,2
1532467067966,-1,-6,-4,-4,-8,-3,1,0
1532467067971,-1,-3,-1,0,-3,-9,-2,-2
1532467067976,2,-3,1,10,90,42,7,-3
1532467067981,-5,4,-5,-4,-42,-28,-33,1
1532467067986,-3,3,-1,0,-2,-12,13,-3
1532467067991,1,3,0,1,4,20,3,8
1532467067996,1,1,-2,-4,-5,-25,-6,-5
1532467068001,1,2,0,3,26,26,-3,-2
1532467068006,1,3,5,-4,-46,-30,4,0
1532467068011,-1,2,-4,3,25,9,-11,1
1532467068016,1,-2,-2,1,10,0,10,5
1532467068021,0,-1,2,-2,-16,18,-5,-1
1532467068026,-3,-1,-1,-4,-25,-8,5,1
1532467068031,-1,-1,-1,-1,4,-2,-3,-2
1532467068036,-1,2,-1,-2,-22,-8,1,2
1532467068041,-1,-3,-4,-3,-3,-12,-4,-2
1532467068046,2,-6,-1,2,21,21,4,-3
1532467068051,0,-1,1,2,2,-5,3,-1
1532467068056,-3,-2,-2,-8,-21,-7,-14,-2
1532467068061,0,-4,0,4,17,9,31,-1
1532467068066,0,1,0,-1,18,6,1,10
1532467068071,-3,0,0,-11,-72,-29,-43,-12
1532467068076,-3,-4,-5,1,-4,14,25,-2
1532467068081,3,1,4,4,35,36,-10,-5
1532467068086,-1,-2,-1,-8,-72,-24,-21,-2
1532467068091,2,1,-1,1,9,27,40,11
1532467068096,-5,-4,-2,-1,2,4,-22,-1
1532467068101,0,0,1,2,-7,-24,15,2
1532467068106,0,0,-4,1,32,14,-9,-2
1532467068111,-1,0,1,-5,7,-15,-5,0
1532467068116,-2,-1,-6,-4,-37,17,-4,-4
1532467068121,0,0,-3,0,0,-1,-1,4
1532467068126,-1,-1,2,1,6,-21,-6,-4
1532467068131,-3,0,1,3,0,-14,-11,-5
1532467068136,2,2,2,-3,1,9,20,3
1532467068141,-3,-2,-2,-2,-16,-16,-15,0
1532467068146,1,2,1,13,61,34,2,-2
1532467068151,-3,-2,-7,-16,-27,-36,-8,-4
1532467068156,-1,-2,-1,-5,-54,-33,7,1
1532467068161,-4,-2,-7,-10,-11,0,-11,-3
1532467068166,-2,-3,-1,7,33,13,7,-3
1532467068171,2,0,-6,-10,-28,-20,13,4
1532467068176,-1,2,3,2,25,-5,-8,-1
1532467068181,-3,0,-4,-4,-26,-16,-4,-3
1532467068186,2,0,-2,-6,-13,-7,-2,-2
1532467068191,0,0,5,10,38,39,10,3
1532467068196,-1,2,1,4,22,-21,-8,-3
1532467068201,-4,-1,-2,0,5,-22,-11,-3
1532467068206,-2,0,2,-1,5,18,2,0
1532467068211,1,1,0,4,7,11,6,-1
1532467068216,2,-2,-7,-6,-21,-25,-3,0
1532467068221,-1,-6,-3,1,25,1,2,-2
1532467068226,0,-1,1,5,26,14,0,0
1532467068231,-3,-2,0,-4,-32,-10,-2,0
1532467068236,-1,-3,-1,-4,6,19,7,4
1532467068241,2,2,4,9,33,15,-6,-3
1532467068246,1,2,-3,-15,-92,-35,17,4
1532467068251,2,0,3,2,41,35,-2,2
1532467068256,0,-1,0,1,-4,29,-4,-1
1532467068261,-1,-2,0,-3,-26,0,2,3
1532467068266,-1,-3,-1,7,65,26,-6,-5
1532467068271,-1,2,2,0,-35,2,4,-1
1532467068276,-1,-2,6,-2,-3,-13,4,-2
1532467068281,0,-2,-2,-2,-15,-6,-5,-5
1532467068286,0,1,-1,2,13,6,7,2
1532467068291,-1,-2,-2,2,20,-9,3,-4
1532467068296,2,1,0,-1,1,-10,-5,3
1532467068301,-2,0,-2,-3,-18,-6,4,1
1532467068306,-1,-1,-1,-1,4,1,-2,-2
1532467068311,-1,-1,-1,2,-8,-10,-6,-3
1532467068316,-1,-2,-4,3,25,-13,-2,-2
1532467068321,-1,2,4,4,24,30,2,0
1532467068326,1,1,-3,-8,-57,-29,-2,3
1532467068331,-1,-3,-2,-2,3,18,0,-3
1532467068336,2,4,2,8,16,9,3,1
1532467068341,-2,-3,-10,-24,-73,3,10,-1
1532467068346,-2,-2,-2,-1,23,-13,-6,-5
1532467068351,0,-2,-1,2,5,-6,6,3
1532467068356,0,1,0,-8,-33,-1,-14,-3
1532467068361,3,3,5,8,7,5,10,1
1532467068366,0,-2,-2,-8,9,-5,-7,-2
1532467068371,-3,-2,-4,2,27,29,-4,0
1532467068376,-3,-2,-2,0,4,7,8,-1
1532467068381,2,3,0,1,-10,-56,15,1
