1532413327706,-3,-2,-1,1,-2,-5,3,8
1532413327711,0,-3,1,-2,2,-1,8,6
1532413327716,10,5,-3,1,2,-3,0,-12
1532413327721,-9,-3,-2,-2,-3,2,0,7
1532413327726,-3,-3,-3,-4,-4,1,0,3
1532413327731,8,2,-5,-2,-3,-6,-11,-8
1532413327736,1,8,12,4,6,4,4,5
1532413327741,-4,-4,0,-3,-1,-1,0,-2
1532413327746,6,1,-2,2,3,-1,1,0
1532413327751,5,-2,-1,1,2,1,-2,6
1532413327756,-4,-2,-10,-6,-5,-2,-3,-8
1532413327761,1,3,6,-1,-2,-1,-1,1
1532413327766,6,5,2,2,1,0,-4,2
1532413327771,-3,-2,2,-1,-2,0,-9,-6
1532413327776,-4,-5,-5,-1,-1,-1,10,8
1532413327781,1,2,1,2,-2,-2,0,-1
1532413327786,1,-3,-4,-2,-1,-1,1,2
1532413327791,-3,-1,2,-1,-1,-1,-1,1
1532413327796,-1,-2,-3,0,0,-1,-6,-10
1532413327801,3,-3,-4,-1,-2,-3,-6,2
1532413327806,-6,4,5,1,2,2,2,-2
1532413327811,7,-2,0,-3,1,2,-6,-5
1532413327816,4,0,-6,0,1,1,0,2
1532413327821,-2,-1,0,-1,1,1,1,-3
1532413327826,-3,-1,2,-1,0,-3,-4,-11
1532413327831,-1,1,0,-1,-2,-1,1,10
1532413327836,-2,1,-4,-1,-1,2,-1,6
1532413327841,-1,-3,-2,1,1,-2,1,-7
1532413327846,4,-1,-2,-2,0,0,-5,2
1532413327851,-4,3,3,-1,1,0,1,-5
1532413327856,-4,-3,-5,-3,2,-1,2,1
1532413327861,0,0,5,-3,-5,-3,-3,-4
1532413327866,2,1,0,2,0,1,-3,-8
1532413327871,4,-3,-2,-3,0,-1,2,10
1532413327876,-1,-3,2,-3,-4,0,5,-2
1532413327881,-2,-4,-7,-2,1,-3,-10,-9
1532413327886,4,11,3,3,4,-3,-6,-6
1532413327891,-2,4,3,-2,-3,-1,-5,-3
1532413327896,-16,-17,-11,-7,-7,0,-2,-6
1532413327901,-3,-4,-3,-3,0,0,-2,-5
1532413327906,-3,-6,3,3,-4,1,-1,7
1532413327911,4,1,-4,0,3,2,5,-6
1532413327916,6,-1,-2,2,0,-1,-4,2
1532413327921,-3,2,2,1,2,1,4,4
1532413327926,-1,4,5,-2,-4,-3,-5,-5
1532413327931,-11,-4,1,3,2,-3,-5,-7
1532413327936,19,10,4,1,1,1,-1,2
1532413327941,1,0,-2,2,2,3,0,12
1532413327946,0,-3,-3,1,0,1,-1,-4
1532413327951,2,-5,-4,-4,-3,-3,2,3
1532413327956,-6,0,2,-1,-3,-4,-6,-16
1532413327961,0,2,-1,0,-1,-3,-3,3
1532413327966,6,0,-9,-5,-3,1,1,7
1532413327971,-4,-3,2,1,1,0,0,-7
1532413327976,-5,0,2,2,2,0,-4,4
1532413327981,1,1,2,-1,-2,-3,-3,-6
1532413327986,-4,-9,-6,-2,-3,-2,-3,-7
1532413327991,1,3,0,-1,-5,-1,11,9
1532413327996,-4,4,4,2,3,0,1,-5
1532413328001,2,-1,-4,-1,-3,0,4,17
1532413328006,1,-3,-6,-5,-2,-5,-4,-21
1532413328011,2,4,2,5,5,2,-1,8
1532413328016,2,9,3,-3,-2,0,-3,-7
1532413328021,5,-9,-4,-3,-1,0,1,3
1532413328026,-12,-9,0,0,-2,-2,-1,2
1532413328031,-1,-5,-7,-3,-3,0,-10,-14
1532413328036,3,6,5,-2,-1,-1,-1,1
1532413328041,-1,5,10,6,2,0,-2,6
1532413328046,5,3,1,7,1,1,-4,-1
1532413328051,1,-5,-10,-2,0,-1,-4,-1
1532413328056,-6,-4,-6,-4,1,-2,-2,0
1532413328061,-6,-3,-7,-5,-5,-1,-3,-12
1532413328066,-1,-1,7,-3,-6,-2,-5,5
1532413328071,-3,3,5,4,-2,-1,-6,-7
1532413328076,2,-1,0,2,4,1,-4,-2
1532413328081,4,0,-3,0,4,3,4,12
1532413328086,-3,-1,-5,-1,-2,-1,0,-12
1532413328091,1,0,-1,-5,-3,0,5,8
1532413328096,0,-3,1,0,-3,-2,-3,5
1532413328101,-1,1,-4,-4,-3,-2,1,-3
1532413328106,1,-3,-7,-3,2,3,4,9
1532413328111,-1,-2,1,-4,-6,-5,-6,-6
1532413328116,-2,-6,1,3,-3,-1,0,2
1532413328121,-5,2,2,1,-2,-1,-1,-6
1532413328126,1,1,-1,-2,2,-1,-4,-3
1532413328131,0,1,-4,-3,-2,0,2,2
1532413328136,-2,-2,0,4,-1,-2,0,-5
1532413328141,-1,-4,-3,-7,-2,-2,-9,-15
1532413328146,-2,2,0,-1,3,2,3,4
1532413328151,1,3,1,4,2,0,-4,-1
1532413328156,6,-3,-5,-5,-5,-3,-1,4
1532413328161,-1,-4,-7,-5,-4,-1,0,-1
1532413328166,1,4,0,-1,0,-3,-5,-3
1532413328171,-5,-5,4,0,1,2,-2,-1
1532413328176,-7,-2,1,2,1,0,0,1
1532413328181,-1,-4,0,0,1,-2,1,4
1532413328186,5,5,3,-1,-1,0,1,6
1532413328191,-2,2,-2,2,0,-1,-3,-2
1532413328196,-1,0,1,0,1,2,6,4
1532413328201,0,-2,-2,-1,-1,-2,-7,-9
1532413328206,-3,-2,-3,-1,-2,1,0,-2
1532413328211,0,-1,0,-1,1,-2,-3,-2
1532413328216,-2,-3,-2,-2,-2,0,1,3
1532413328221,-3,0,-6,1,2,-1,4,5
1532413328226,-2,-4,-1,-2,-3,-2,-1,-5
1532413328231,0,2,0,-4,-2,0,-1,0
1532413328236,0,-1,2,0,-3,1,-1,1
1532413328241,0,-1,-3,3,1,-1,-1,2
1532413328246,-7,-4,-1,-3,0,0,2,3
1532413328251,2,-2,2,-1,0,-4,-3,-10
1532413328256,-3,0,-1,-2,-2,-3,1,-2
1532413328261,1,1,2,0,-2,-2,-4,-5
1532413328266,-1,-2,-2,1,0,0,2,2
1532413328271,0,-2,-3,-1,-4,1,4,3
1532413328276,-3,1,4,-1,-3,-3,-7,-7
1532413328281,4,0,0,1,1,-4,-5,-6
1532413328286,1,-2,-1,-2,2,-1,-2,3
1532413328291,-6,-1,-1,-1,0,1,3,-2
1532413328296,1,1,-3,0,-1,-1,-3,4
1532413328301,-3,0,-1,-1,-5,-3,-5,-13
1532413328306,-2,-1,0,0,-3,-1,-4,-3
1532413328311,0,-3,-1,-1,1,-1,-4,1
1532413328316,0,-1,-3,-1,1,-1,1,-4
1532413328321,-2,1,9,2,2,2,-2,-2
1532413328326,2,2,0,0,-1,1,0,2
1532413328331,-1,-3,-2,0,0,-3,-2,-2
1532413328336,-5,-7,-7,-1,3,1,-5,-8
1532413328341,-1,3,-2,-7,-10,-2,4,5
1532413328346,3,-4,-1,3,-1,-1,-6,0
1532413328351,1,3,1,1,4,1,-8,1
1532413328356,3,0,-2,-4,-4,-2,0,3
1532413328361,-4,-3,4,1,3,-1,-4,-6
1532413328366,-1,7,0,-1,0,0,1,6
1532413328371,-3,-6,-6,4,2,-1,-3,-9
1532413328376,-2,-1,-2,-6,-1,-2,-1,-3
1532413328381,3,1,3,-3,-4,2,2,6
1532413328386,-2,-6,0,1,-1,-1,-2,-2
1532413328391,-1,-1,-2,2,3,2,-2,1
1532413328396,1,3,0,-2,-5,-4,-2,-14
1532413328401,1,-2,-5,-1,2,2,-3,7
1532413328406,0,-3,0,-3,-2,-3,-3,-11
1532413328411,0,-2,-1,-3,-5,-3,2,3
1532413328416,1,-2,1,1,-2,1,-6,2
1532413328421,1,-6,-3,3,5,0,-1,-4
1532413328426,-9,4,-9,-2,2,-2,-2,-2
1532413328431,0,0,6,-3,-6,-2,-1,-1
1532413328436,0,4,-4,-2,2,-3,-3,-4
1532413328441,-1,3,12,5,4,-1,-3,2
1532413328446,-3,-5,-4,-1,0,0,-2,-6
1532413328451,0,-2,-1,-2,-3,1,2,8
1532413328456,-1,0,3,5,3,2,0,-2
1532413328461,-3,-3,-8,-6,-3,-2,1,-1
1532413328466,1,-2,4,-5,-4,-3,-2,-1
1532413328471,1,-4,-1,-2,-1,0,-2,-3
1532413328476,-1,1,-1,0,0,2,3,2
1532413328481,0,13,1,3,1,0,-4,-4
1532413328486,1,-9,2,2,-2,1,8,12
1532413328491,-2,-3,-4,-2,0,-3,-7,-13
1532413328496,-1,-2,-1,0,2,0,-1,3
1532413328501,-2,-2,-2,-2,-5,-1,-1,-2
1532413328506,0,2,1,0,1,0,-3,-1
1532413328511,-3,-3,-6,0,2,0,8,6
1532413328516,-13,0,-4,1,1,-2,-11,-12
1532413328521,9,3,3,-3,-2,-1,2,12
1532413328526,2,-1,3,2,1,2,1,0
1532413328531,0,2,0,-5,-6,-2,-3,-8
1532413328536,0,-4,-4,-9,-2,-3,-3,-4
1532413328541,-2,-3,-7,0,-1,-1,-2,-3
1532413328546,-1,-2,-2,-3,-5,-2,5,1
1532413328551,0,3,-3,-4,-1,0,-7,-7
1532413328556,-3,-1,1,2,1,1,2,-3
1532413328561,7,-2,-3,0,-1,0,-3,0
1532413328566,-2,3,-1,2,3,0,-2,0
1532413328571,-1,0,4,0,-3,-3,-5,-3
1532413328576,1,-3,-3,-2,-3,-1,1,3
1532413328581,-2,-2,-3,-1,1,1,-1,-11
1532413328586,-2,-5,-7,-4,-5,-3,0,3
1532413328591,0,-5,-3,1,-2,-1,0,-2
1532413328596,-2,6,4,-1,-6,-4,-3,-1
1532413328601,-5,-2,2,0,3,0,0,-2
1532413328606,1,2,0,0,-2,3,1,8
1532413328611,0,-2,-2,5,0,-3,-10,-17
1532413328616,1,-6,-1,-4,1,0,1,3
1532413328621,0,4,2,-2,-1,-2,0,5
1532413328626,-2,0,0,-3,-2,-1,-1,5
1532413328631,1,1,2,1,2,0,1,-3
1532413328636,1,-3,-2,-1,-1,1,1,5
1532413328641,-3,-2,-2,-2,-3,-2,-1,-3
1532413328646,1,0,0,-1,-1,1,-8,-9
1532413328651,-5,-5,-5,-4,-1,1,3,5
1532413328656,3,3,0,3,2,0,3,8
1532413328661,-10,-5,0,-1,-2,-2,-3,-9
1532413328666,4,0,0,-2,-2,-3,-2,5
1532413328671,-1,0,-1,1,0,0,-1,2
1532413328676,-1,-4,-8,-1,0,0,-9,-9
1532413328681,0,1,-1,0,-1,-1,0,1
1532413328686,1,1,-2,-1,0,-1,3,1
1532413328691,-4,-4,-2,-3,1,-2,-6,-14
1532413328696,0,-5,-2,1,3,-1,0,10
1532413328701,-1,0,0,-3,-5,-2,-4,-10
1532413328706,-5,1,6,-1,-1,-3,1,-2
1532413328711,5,3,1,1,0,1,4,10
1532413328716,0,-1,5,1,-3,-1,0,-3
1532413328721,2,-1,-3,1,-1,-2,-5,4
1532413328726,-1,7,-4,-9,-2,0,-1,-5
1532413328731,5,-6,-5,0,1,-2,-8,1
1532413328736,-6,-5,3,-1,-1,-2,-2,-9
1532413328741,-1,1,3,0,4,0,-3,1
1532413328746,-2,-4,-7,-3,-6,-2,-5,-3
1532413328751,-14,1,4,0,-1,-3,0,-6
1532413328756,6,2,2,0,3,5,4,10
1532413328761,0,4,8,2,4,-2,0,-1
1532413328766,0,0,-1,1,1,-2,-8,-5
1532413328771,2,0,-2,-3,-3,-1,7,2
1532413328776,-1,-4,-7,-1,-3,-2,-1,-3
1532413328781,-2,-1,0,1,0,0,2,9
1532413328786,2,1,3,0,8,2,-3,-19
1532413328791,-1,-4,-6,-2,-8,-4,3,3
1532413328796,-2,5,3,-1,-4,-3,-1,-2
1532413328801,1,-4,-6,-3,1,1,1,0
1532413328806,-2,0,-5,-3,-1,-2,-1,1
1532413328811,4,4,7,3,8,3,0,9
1532413328816,4,2,0,-2,-6,0,-5,-10
1532413328821,-10,-4,-2,-4,-7,0,-2,0
1532413328826,0,-9,-6,-5,-6,-4,-3,-9
1532413328831,0,1,-4,4,8,1,-4,-2
1532413328836,-1,4,2,-3,-5,-3,-4,1
1532413328841,3,-5,-7,-3,0,0,0,0
1532413328846,-3,-2,-5,3,2,-1,1,0
1532413328851,2,5,6,-1,-3,1,0,4
1532413328856,-3,-16,-4,0,-1,0,0,5
1532413328861,-1,4,-3,1,5,-1,-9,-29
1532413328866,-1,4,-1,1,-3,-1,4,10
1532413328871,-1,-4,-3,-5,-3,1,0,3
1532413328876,1,0,-6,-1,0,0,6,0
1532413328881,1,-4,5,-5,-3,-2,-3,3
1532413328886,2,2,2,6,7,3,4,10
1532413328891,0,3,2,-6,-10,-4,-13,-16
1532413328896,1,0,1,-2,-4,-2,0,4
1532413328901,-2,-3,-5,-2,-1,3,4,6
1532413328906,-1,2,4,5,3,0,-2,-4
1532413328911,-4,-3,-2,-4,-3,-2,0,11
1532413328916,-7,-4,-5,-2,2,-1,-2,-13
1532413328921,3,-1,-2,-1,-4,0,1,3
1532413328926,-9,-3,2,0,-1,2,-2,0
1532413328931,-1,1,-1,5,2,0,-1,-11
1532413328936,1,4,2,2,1,0,-3,-1
1532413328941,-1,-2,-2,1,1,-1,1,2
1532413328946,-2,-5,-1,-4,-3,-2,-3,-4
1532413328951,0,-5,-7,-1,1,0,4,0
1532413328956,-2,2,-2,-2,0,-3,-7,0
1532413328961,0,0,2,-1,-3,-2,-4,-8
1532413328966,3,-3,-1,0,-1,0,3,7
1532413328971,-4,-3,-7,-1,1,0,0,-5
1532413328976,2,1,0,-3,1,0,-6,-4
1532413328981,-7,5,0,-1,-3,-2,1,5
1532413328986,7,-2,2,0,-3,-2,2,4
1532413328991,0,1,1,1,4,3,1,1
1532413328996,1,0,-5,0,3,0,2,1
1532413329001,0,-4,-2,-1,-2,-1,-4,-7
1532413329006,-5,-3,1,-4,-6,-2,-3,-6
1532413329011,-3,-1,-1,-5,-4,-3,5,9
1532413329016,-4,2,1,1,2,2,0,8
1532413329021,4,0,0,0,4,0,-4,-10
1532413329026,1,-2,-2,-3,-3,1,5,8
1532413329031,5,1,1,2,3,-2,-3,7
1532413329036,-1,-4,1,-2,-1,-1,-1,-12
1532413329041,3,-2,-5,-1,-1,-2,-1,3
1532413329046,-2,2,0,-4,-4,0,3,6
1532413329051,1,2,0,1,4,-1,-16,-26
1532413329056,-2,-1,5,4,-1,-2,0,-8
1532413329061,0,-6,-3,-3,0,3,4,2
1532413329066,-1,-5,-6,-2,-4,-4,-9,-16
1532413329071,1,1,-1,-1,-2,0,6,6
1532413329076,4,4,1,-2,1,-3,-4,-1
1532413329081,1,2,2,0,-1,-2,-4,-7
1532413329086,-2,-2,-5,2,0,-1,-1,-6
1532413329091,-7,-5,-4,-4,2,1,1,-7
1532413329096,-2,0,4,0,1,1,0,0
1532413329101,-1,1,3,1,-1,-1,1,12
1532413329106,3,-2,-7,0,3,-3,-8,-11
1532413329111,-1,0,0,-1,-9,1,1,6
1532413329116,0,-1,3,2,2,-2,1,1
1532413329121,-4,0,2,0,0,1,-3,-6
1532413329126,2,-3,-5,1,3,1,-2,-1
1532413329131,-1,0,-1,-3,-5,-2,-2,-2
1532413329136,-7,-1,0,1,-1,-1,-3,-8
1532413329141,5,0,-3,4,0,1,0,16
1532413329146,-4,-2,6,-2,0,-1,-4,-3
1532413329151,-2,-4,-16,1,4,0,-4,1
1532413329156,-5,3,2,-3,-6,-1,-1,-2
1532413329161,-2,1,1,2,0,-2,0,1
1532413329166,-1,0,-2,-3,1,1,0,0
1532413329171,0,-1,6,-1,-2,-1,-1,8
1532413329176,0,-4,-12,1,1,0,-2,-2
1532413329181,-2,-6,-4,0,-2,0,-6,-2
1532413329186,3,6,9,-2,-6,-1,-1,-1
1532413329191,-6,-1,0,-1,1,-2,3,-2
1532413329196,1,-2,-4,-3,-4,0,8,8
1532413329201,-2,-2,-2,-1,0,-4,-13,-17
1532413329206,0,-2,-2,0,3,-1,-1,2
1532413329211,4,-1,5,-2,-3,-2,-3,-2
1532413329216,6,-1,-5,-6,-3,-2,-3,0
1532413329221,-2,-1,0,-5,-5,-1,4,2
1532413329226,-2,1,2,1,3,1,-1,-2
1532413329231,-1,-2,2,5,3,1,-3,-3
1532413329236,0,-2,0,-3,-1,1,-5,1
1532413329241,-14,0,-9,-3,-4,-2,-1,1
1532413329246,-3,0,2,1,1,1,-1,-5
1532413329251,2,-3,0,3,0,1,2,8
1532413329256,-4,1,1,-3,-1,-2,-5,-15
1532413329261,15,3,2,0,-1,-1,-2,12
1532413329266,-1,-6,-5,-2,-2,0,1,8
1532413329271,1,10,4,1,-3,0,-2,-5
1532413329276,0,-2,0,0,-3,0,-3,-5
1532413329281,-2,0,5,1,1,-3,4,-4
1532413329286,-3,-1,-1,-3,-4,-3,-2,-6
1532413329291,0,-6,-3,-4,-4,-1,0,-5
1532413329296,2,1,-5,-1,4,1,0,7
1532413329301,-2,-3,-2,-1,-2,0,11,8
1532413329306,2,4,1,2,2,-5,-14,-14
1532413329311,-4,-3,1,-2,-2,0,3,1
1532413329316,-7,-3,-5,2,2,1,-3,-5
1532413329321,-6,-2,11,-1,0,-1,-3,-2
1532413329326,9,-4,-10,-3,-2,0,1,8
1532413329331,-1,6,10,0,3,-1,-4,-2
1532413329336,1,1,4,2,-2,-1,-4,-2
1532413329341,-1,-2,-5,0,1,0,-3,6
1532413329346,-6,-5,-3,-2,-6,-3,-3,-18
1532413329351,1,-2,-2,-3,-3,-2,-4,-3
1532413329356,1,1,1,-4,-2,-1,6,14
1532413329361,1,0,0,1,4,1,-6,-18
1532413329366,-3,0,2,3,-2,-1,0,4
1532413329371,1,-3,-5,2,0,-1,-2,0
1532413329376,0,1,0,1,4,-3,-5,-3
1532413329381,1,1,0,0,-1,2,-2,3
1532413329386,-1,0,4,-1,0,1,0,4
1532413329391,-3,0,1,0,-2,0,-6,-12
1532413329396,1,-3,-13,1,-1,1,-2,6
1532413329401,1,-1,3,-2,1,-3,-2,-6
1532413329406,-2,4,9,-1,0,0,-2,-7
1532413329411,0,0,5,0,1,-3,-8,3
1532413329416,-3,-5,-1,-4,-9,-3,1,-5
1532413329421,0,-3,-9,-1,-2,-1,0,3
1532413329426,-2,-4,-6,-2,1,-1,1,10
1532413329431,0,0,-2,-1,2,0,0,-8
1532413329436,-1,-5,-5,-4,-7,-4,-1,-5
1532413329441,-2,-2,-1,-4,-5,0,1,1
1532413329446,0,1,4,0,1,0,1,-1
1532413329451,0,-3,-9,0,0,0,0,4
1532413329456,3,8,10,3,4,0,-1,3
1532413329461,-3,-1,-7,0,1,-3,-2,-4
1532413329466,-4,1,3,0,3,4,-1,0
1532413329471,-2,-4,-2,0,-6,-3,0,-3
1532413329476,-1,-1,-4,-3,-2,-1,-1,0
1532413329481,2,-1,-2,-3,5,-1,-4,-2
1532413329486,0,2,-3,2,-1,-3,-1,0
1532413329491,-2,-3,0,-3,-2,-3,1,-2
1532413329496,-1,-3,-1,-1,-1,-1,0,1
1532413329501,0,1,0,-1,-4,0,-5,-4
1532413329506,-2,-3,-3,0,1,1,-3,-3
1532413329511,11,3,0,-2,-1,0,8,21
1532413329516,-4,-1,2,1,0,-2,-7,-9
1532413329521,-3,-4,-5,-2,-1,-4,1,-5
1532413329526,-4,1,-7,-5,-5,-3,-1,-4
1532413329531,-1,-1,5,-1,-3,0,1,8
1532413329536,-1,0,-9,2,0,2,2,-1
1532413329541,-1,1,1,2,3,1,-4,-2
1532413329546,1,0,5,1,-6,-3,2,2
1532413329551,-2,0,-8,-3,-1,3,-3,-3
1532413329556,2,0,13,3,4,1,-8,3
1532413329561,-2,-8,-11,-2,-4,2,-3,-10
1532413329566,3,8,10,1,-3,-3,-1,3
1532413329571,-6,1,5,0,0,-2,0,-7
1532413329576,-4,-1,-4,-2,-3,-2,-1,-6
1532413329581,-1,-1,3,1,1,0,1,4
1532413329586,0,-5,-6,-1,3,1,-1,3
1532413329591,1,-2,-2,0,-1,-1,1,-3
1532413329596,-7,-2,-1,0,1,-1,-5,-10
1532413329601,5,1,1,0,-5,-3,-1,0
1532413329606,0,-2,-5,-3,2,0,1,4
1532413329611,-3,4,6,-1,1,-3,-3,-12
1532413329616,-1,-6,-8,-2,-2,-2,0,5
1532413329621,-2,2,4,-2,-5,-1,-2,-2
1532413329626,-1,0,-1,3,2,1,-1,-2
1532413329631,0,0,0,0,1,-2,-5,-1
1532413329636,0,-2,-1,-3,-2,-2,-4,0
1532413329641,0,-1,3,2,1,-2,-1,3
1532413329646,-2,-5,-1,-3,1,0,1,2
1532413329651,-2,-2,-8,1,-3,0,-2,0
1532413329656,3,3,1,2,1,0,6,4
1532413329661,-4,-2,-3,-4,-6,-1,-7,-7
1532413329666,2,-1,0,-1,-2,-2,-2,2
1532413329671,0,-1,-6,-2,-1,1,0,-1
1532413329676,0,-2,0,-1,-2,0,0,2
1532413329681,-3,1,0,1,0,0,4,-4
1532413329686,8,-2,-4,1,1,0,-3,1
1532413329691,-2,-5,-1,-1,5,-3,-4,-5
1532413329696,1,0,2,-3,-7,-1,-1,-2
1532413329701,-1,-1,3,-3,-3,-2,-2,5
1532413329706,-2,0,1,2,-1,0,-1,-3
1532413329711,-2,0,-1,-3,-3,-3,-2,-10
1532413329716,1,0,-3,-1,3,0,-1,8
1532413329721,-5,-5,-4,-4,-2,0,-1,-12
1532413329726,-2,-3,0,-1,-2,-2,-5,-2
1532413329731,1,-3,-7,0,3,4,-3,6
1532413329736,-3,0,11,0,-4,-1,-2,-2
1532413329741,0,1,-3,0,-2,-1,3,2
1532413329746,-3,-8,-7,-2,-2,-2,-5,-5
1532413329751,-4,0,6,-1,-3,-2,-2,-3
1532413329756,-1,4,2,-1,2,2,-1,-1
1532413329761,2,2,3,3,2,-1,-1,5
1532413329766,-1,2,0,-5,-3,0,-3,-9
1532413329771,-2,-5,-9,-6,-7,-2,-1,0
1532413329776,-1,-2,-4,0,0,1,-6,-6
1532413329781,1,5,5,1,2,1,-1,3
1532413329786,-2,2,-2,2,3,0,0,0
1532413329791,0,-4,-4,2,2,-2,-5,3
1532413329796,1,2,1,-3,-1,-1,-2,-9
1532413329801,-1,-3,1,0,-2,1,3,-1
1532413329806,-2,-1,1,-2,-6,-4,-5,-5
1532413329811,2,1,-2,-1,2,0,1,0
1532413329816,-4,-1,-3,1,0,-2,-1,5
1532413329821,-1,-3,-10,-3,-2,-2,-2,8
1532413329826,0,2,5,-1,4,0,0,-15
1532413329831,2,2,5,-1,-6,-1,-3,3
1532413329836,0,-4,-5,0,4,-1,-1,-14
1532413329841,0,-2,0,1,-1,-2,-1,-2
1532413329846,0,-1,-6,-4,-5,-1,-1,7
1532413329851,-3,-3,1,1,3,0,1,-3
1532413329856,0,-2,-4,-4,-3,0,-2,3
1532413329861,-3,-8,-5,0,0,0,2,-5
1532413329866,-1,5,-1,2,3,1,0,-6
1532413329871,3,4,8,1,-3,-1,2,4
1532413329876,2,0,-1,-2,-3,2,5,6
1532413329881,-1,0,1,2,3,0,-5,-2
1532413329886,-5,-7,-7,-6,-5,-3,3,1
1532413329891,-3,-1,-1,-2,-4,-2,-4,-4
1532413329896,0,1,2,3,0,-3,-7,-6
1532413329901,-4,-3,-6,-4,-1,-2,-5,-1
1532413329906,0,5,12,3,3,2,-2,2
1532413329911,-1,0,-2,2,0,1,0,-2
1532413329916,0,-2,-3,-5,-3,-1,1,6
1532413329921,1,-1,0,0,2,0,-4,-5
1532413329926,1,1,3,1,-1,-1,-2,0
1532413329931,-8,-2,-2,0,-1,-1,2,1
1532413329936,0,0,-4,-1,0,-3,-1,-3
1532413329941,0,-2,-5,-1,3,0,1,-3
1532413329946,4,1,3,-1,-4,-1,0,2
1532413329951,2,-2,1,-3,-2,-3,-2,-2
1532413329956,1,0,-2,0,0,-1,0,-1
1532413329961,2,3,1,-1,-1,0,-1,-1
1532413329966,-1,-5,-5,-4,0,1,-2,2
1532413329971,0,-1,-7,-1,-3,-2,-2,-3
1532413329976,-4,4,6,1,0,0,-2,-3
1532413329981,1,3,6,5,-1,0,0,3
1532413329986,-3,0,-1,1,-1,-1,-2,-4
1532413329991,1,-4,-5,-3,0,2,-4,-1
1532413329996,2,-6,-12,-1,0,-2,-2,0
1532413330001,-1,5,15,0,-1,0,7,0
1532413330006,-3,-4,-3,5,1,-1,1,-2
1532413330011,-1,-1,2,-1,-4,-2,1,-3
1532413330016,0,0,-1,-6,-6,0,-1,6
1532413330021,1,1,0,0,3,1,-6,-4
1532413330026,-1,0,-1,1,0,-1,-3,1
1532413330031,0,0,2,-1,-2,-1,1,2
1532413330036,-2,0,2,3,5,2,-5,-2
1532413330041,-1,-1,-4,-4,-8,-1,-5,2
1532413330046,0,-1,-1,-1,0,-1,-2,0
1532413330051,0,0,-1,-1,1,-1,-4,0
1532413330056,1,-2,0,0,0,0,0,-3
1532413330061,0,1,-3,1,5,0,-1,0
1532413330066,-2,1,-2,0,-3,-1,0,-2
1532413330071,-1,-1,1,-4,-4,-3,-3,-4
1532413330076,-1,-1,-1,-3,-1,-1,2,-2
1532413330081,0,-1,-1,-1,-2,-1,-5,-1
1532413330086,-1,-1,0,1,2,0,-2,-1
1532413330091,0,1,-3,1,1,0,-3,-5
1532413330096,-2,0,2,-1,-4,-2,-2,-2
1532413330101,-1,-3,-3,-1,2,0,-2,3
1532413330106,0,0,-4,-5,-5,-2,-2,0
1532413330111,-2,-2,-3,-3,0,-1,-2,-2
1532413330116,2,2,1,0,-3,-3,-1,-1
1532413330121,0,1,4,-4,-7,-2,-1,0
1532413330126,-6,-10,-5,-1,4,3,-4,-2
1532413330131,-7,-4,-2,1,3,-1,-3,-7
1532413330136,6,5,-4,-4,-7,-1,0,10
1532413330141,0,-1,2,2,-2,-3,-2,0
1532413330146,3,0,-2,-4,-4,-3,-2,3
1532413330151,-4,-3,-3,3,4,1,-5,-2
1532413330156,-7,-4,0,0,2,0,-3,-5
1532413330161,0,3,-2,-2,-4,0,1,3
1532413330166,-1,-5,-6,-5,-1,-1,0,-2
1532413330171,0,1,-1,2,3,3,2,-2
1532413330176,-1,0,2,6,4,-2,-2,-4
1532413330181,1,0,-1,-4,-7,-2,-1,-2
1532413330186,-1,1,6,2,1,0,-2,0
1532413330191,1,-3,-1,-5,-7,-2,0,1
1532413330196,-1,1,4,2,3,3,0,-3
1532413330201,-4,-8,-10,1,3,-2,-1,-5
1532413330206,-1,3,2,1,-5,0,1,-1
1532413330211,-3,0,1,0,-1,1,-1,-3
1532413330216,11,-1,-5,-5,-1,1,-1,8
1532413330221,-3,-2,0,2,2,0,0,-4
1532413330226,1,-1,0,-3,0,-3,-2,-1
1532413330231,-1,-1,-1,2,-5,-2,0,0
1532413330236,-4,-2,0,0,1,-1,-2,-7
1532413330241,1,-1,3,1,1,-2,-2,1
1532413330246,-1,0,0,0,-4,0,0,-1
1532413330251,3,3,6,-2,0,-1,-1,3
1532413330256,-1,-3,-7,1,0,0,-4,-3
1532413330261,-6,0,4,-4,-1,0,-2,-5
1532413330266,4,1,8,4,5,0,0,-2
1532413330271,0,-4,-2,-1,-2,-1,-1,-1
1532413330276,-2,-2,-4,-8,-10,-4,-2,0
1532413330281,-6,-3,-11,-2,-3,-1,-1,-8
1532413330286,10,5,10,4,3,3,0,12
1532413330291,0,8,2,2,1,-2,-2,-2
1532413330296,-3,-5,-1,1,0,-4,-1,-1
1532413330301,-2,-4,-2,-4,-3,0,-2,-6
1532413330306,-6,-3,-7,-4,0,0,-2,-6
1532413330311,2,-3,0,-3,0,-1,-2,5
1532413330316,-5,2,1,0,-1,-1,1,-4
1532413330321,10,5,-1,0,2,1,1,9
1532413330326,0,-1,-1,1,1,-1,-3,-3
1532413330331,1,-1,0,-3,-3,0,-1,0
1532413330336,-5,2,1,1,1,1,-2,-5
1532413330341,0,-3,-3,-2,-6,-1,0,0
1532413330346,0,-2,-5,-5,-2,-2,-4,-3
1532413330351,1,0,-1,0,-1,-1,0,-2
1532413330356,1,-3,1,1,2,0,0,1
1532413330361,2,1,1,5,5,0,-6,2
1532413330366,-2,-1,-9,2,-4,-2,-2,3
1532413330371,-3,2,12,4,1,1,0,-5
1532413330376,1,0,3,0,1,0,-1,4
1532413330381,1,-2,-7,-5,2,0,-1,0
1532413330386,-4,-1,-1,-4,-3,-3,-1,-2
1532413330391,1,3,-4,-2,2,-1,-2,1
1532413330396,0,-1,-3,-2,-3,-2,-1,-2
1532413330401,-2,-4,0,-4,-2,-2,-2,1
1532413330406,-2,-8,-9,-6,-3,1,-3,-5
1532413330411,-3,-4,1,0,0,0,-2,-3
1532413330416,-5,-3,1,-2,-7,-2,-3,-5
1532413330421,-4,-3,-5,-8,-8,-3,-5,-5
1532413330426,-1,-1,0,0,-1,0,0,0
1532413330431,1,-3,-2,2,1,-2,-3,2
1532413330436,-3,-3,-2,-2,-1,1,-2,-8
1532413330441,0,0,1,3,3,-2,0,1
1532413330446,1,2,0,-4,-3,-5,1,2
1532413330451,-1,1,0,3,-3,-2,0,0
1532413330456,2,3,0,0,1,-4,2,1
1532413330461,3,1,-1,-2,-8,-23,-3,1
1532413330466,-10,-13,1,3,2,15,1,0
1532413330471,-2,-4,-13,-9,-2,-3,0,3
1532413330476,-1,-5,0,0,-5,-1,-2,-1
1532413330481,3,5,6,-3,-4,4,0,-3
1532413330486,-3,0,1,-8,-3,-9,-2,-3
1532413330491,-1,3,9,9,5,9,1,-3
1532413330496,-2,-3,-1,1,-2,-5,1,-1
1532413330501,11,11,-1,1,5,17,0,3
1532413330506,2,-1,-2,-2,-2,-4,-2,0
1532413330511,-12,-11,1,-3,-6,-19,-5,-9
1532413330516,-6,-3,-1,5,14,32,7,1
1532413330521,9,-1,4,1,-6,-3,1,6
1532413330526,3,8,-7,3,2,-8,-2,-2
1532413330531,2,17,0,-5,-5,-5,7,-2
1532413330536,-17,-15,-5,0,4,2,-4,-4
1532413330541,9,-12,-7,-13,-8,-14,-6,-7
1532413330546,-6,-16,-8,-4,4,13,1,1
1532413330551,-10,24,11,0,-6,-10,-6,-4
1532413330556,2,-1,5,-1,-16,-22,-2,-11
1532413330561,2,-6,2,5,1,-13,1,6
1532413330566,-4,4,-1,-1,13,43,6,5
1532413330571,7,-14,2,11,6,3,1,7
1532413330576,15,10,-3,-2,-2,0,7,5
1532413330581,-7,10,14,0,-1,-20,-2,-4
1532413330586,-8,-11,-16,-3,4,32,-3,-3
1532413330591,-6,-10,0,5,4,-4,-3,7
1532413330596,0,4,-1,-2,-1,1,-5,3
1532413330601,3,4,-3,-4,-7,-4,-1,-11
1532413330606,6,-4,8,-2,-9,-21,-7,7
1532413330611,-10,-8,-4,-4,2,14,0,-6
1532413330616,2,-11,-8,-9,-6,-15,-6,0
1532413330621,-16,1,2,4,7,12,4,0
1532413330626,14,13,1,-8,-16,-26,-1,-2
1532413330631,22,-18,-3,5,-1,-2,-6,-4
1532413330636,-25,8,5,-3,9,29,-3,-2
1532413330641,3,0,-17,-3,-3,0,-6,-1
1532413330646,-12,1,-1,-3,0,-2,4,3
1532413330651,28,2,3,2,0,-5,-1,22
1532413330656,2,1,2,8,-1,-9,-3,-7
1532413330661,-13,12,4,3,2,12,2,20
1532413330666,1,5,-1,-1,-5,-15,-4,-15
1532413330671,-8,-22,-4,5,1,7,5,-2
1532413330676,7,7,6,2,3,-8,-10,-8
1532413330681,8,24,2,-1,4,8,-5,-2
1532413330686,6,-10,3,4,-6,-8,0,0
1532413330691,-9,4,3,-4,-1,4,-1,-11
1532413330696,11,10,-1,-1,-2,-10,-3,7
1532413330701,-13,-14,-3,-4,-2,1,-1,4
1532413330706,-11,-8,1,1,4,6,11,6
1532413330711,26,-1,0,0,-2,-2,8,5
1532413330716,-11,-3,-2,6,1,2,8,0
1532413330721,-4,-6,-4,-10,-4,-7,2,-14
1532413330726,-3,-9,-7,-1,-4,-5,3,0
1532413330731,-6,9,14,11,9,1,8,-27
1532413330736,-4,-2,15,4,1,20,5,0
1532413330741,-4,3,-15,-8,-4,-9,1,1
1532413330746,2,-1,-7,-1,-4,-3,-8,-10
1532413330751,-1,-13,-10,-2,1,10,-5,6
1532413330756,-2,1,-3,-3,-7,-10,-8,-7
1532413330761,-4,1,9,6,2,0,2,1
1532413330766,-3,-10,-5,-1,2,-3,-2,-2
1532413330771,3,7,1,3,2,3,0,-1
1532413330776,-10,1,-4,-11,-6,-12,-5,-6
1532413330781,-8,-15,-4,-6,-9,2,1,-11
1532413330786,8,12,4,6,5,-4,4,11
1532413330791,-19,-6,3,0,-5,-4,-6,-9
1532413330796,41,5,-2,0,15,18,12,21
1532413330801,5,0,-1,1,0,-3,-1,6
1532413330806,-13,5,7,5,-13,-24,-10,0
1532413330811,-12,-5,2,-2,-9,15,4,-1
1532413330816,12,-3,-4,-3,4,-6,-7,7
1532413330821,-12,-1,1,4,-4,-12,-19,-1
1532413330826,12,-2,8,-2,4,16,9,8
1532413330831,-11,-41,-3,-4,-4,-20,-9,2
1532413330836,-5,15,-8,8,2,1,0,-1
1532413330841,5,-2,-1,-4,-2,11,2,0
1532413330846,-4,5,7,4,-3,-16,-2,6
1532413330851,-8,3,-5,-6,-7,-11,-8,-9
1532413330856,4,-5,2,3,3,-1,7,-2
1532413330861,11,18,4,2,5,-6,-11,-5
1532413330866,-13,0,-7,-7,-10,1,4,-2
1532413330871,21,-11,-5,-3,2,7,-3,2
1532413330876,-10,3,-1,-1,-7,-22,-20,-5
1532413330881,12,8,-1,4,5,30,25,4
1532413330886,-1,0,-1,-2,-2,-6,-9,3
1532413330891,-18,9,1,3,11,17,22,7
1532413330896,-35,-15,-1,-9,-18,-22,-23,-13
1532413330901,-22,-5,2,4,10,21,29,10
1532413330906,-15,-8,-6,-4,-2,-2,-6,-6
1532413330911,9,13,1,-4,1,-15,-4,5
1532413330916,24,2,-2,2,8,34,8,17
1532413330921,2,0,1,-2,-3,-14,-11,1
1532413330926,14,1,2,1,-3,12,4,7
1532413330931,16,-4,-8,-6,-1,-14,-6,5
1532413330936,-8,-21,-2,-7,-12,-22,8,-23
1532413330941,-3,10,0,1,7,16,-2,-5
1532413330946,7,4,-1,-1,1,1,-1,-17
1532413330951,0,-4,-2,-5,-9,-10,-6,-11
1532413330956,0,10,3,3,9,19,7,-1
1532413330961,-8,-14,-4,3,-3,0,-4,-13
1532413330966,27,9,-3,-7,2,-8,-4,3
1532413330971,0,-1,0,1,-1,2,-7,-4
1532413330976,14,14,-1,0,0,5,25,9
1532413330981,6,-23,-3,-6,-2,-2,-13,-8
1532413330986,-5,1,0,2,5,2,6,-3
1532413330991,-1,-3,-1,-1,1,13,2,-9
1532413330996,-4,-1,0,-4,-8,-8,-11,-9
1532413331001,2,13,1,-2,2,-1,0,10
1532413331006,0,-9,-1,-1,-1,-2,-2,-2
1532413331011,1,6,5,11,4,4,4,3
1532413331016,-9,-1,-9,-15,-8,-14,-6,-1
1532413331021,0,7,1,1,-8,-14,-6,2
1532413331026,7,5,1,4,7,13,16,19
1532413331031,-1,4,0,0,4,4,4,3
1532413331036,2,-2,2,4,1,1,-2,0
1532413331041,1,-6,-3,-5,-6,-5,-1,-3
1532413331046,-9,-6,-2,-1,-6,-6,-6,-4
1532413331051,-2,2,-1,0,-1,-10,-4,-1
1532413331056,-1,-3,1,4,0,4,0,1
1532413331061,1,-3,1,1,-1,-4,0,1
1532413331066,-5,-3,-2,-1,0,-2,-7,-3
1532413331071,-2,5,0,-2,-2,-7,-5,-2
1532413331076,-6,-20,-7,2,7,14,-5,-6
1532413331081,2,14,-2,-6,-12,-19,-4,2
1532413331086,-11,-9,-2,-2,-4,-1,-3,-9
1532413331091,-2,3,1,-1,2,5,0,1
1532413331096,-2,-4,1,1,0,-7,-1,0
1532413331101,4,2,1,1,2,2,-2,4
1532413331106,0,-5,-2,-2,1,2,0,-5
1532413331111,-2,-5,-3,-7,-2,2,-1,-2
1532413331116,-3,3,3,2,-1,-6,-2,6
1532413331121,-1,-6,0,0,-1,0,-4,-2
1532413331126,1,5,2,0,-3,-2,-9,-2
1532413331131,-4,-6,3,7,-2,-3,-4,-7
1532413331136,-11,3,-9,-11,-1,3,-5,-1
1532413331141,-3,1,-2,-5,-4,-5,-8,0
1532413331146,-14,-2,3,0,0,-1,-11,-5
1532413331151,-1,-8,-10,-4,-3,3,-3,-1
1532413331156,4,8,6,12,7,0,-3,12
1532413331161,-16,-16,0,2,2,-1,2,-3
1532413331166,7,4,1,1,-5,3,-4,2
1532413331171,4,8,-1,-5,-5,3,-3,2
1532413331176,-6,-5,2,-3,0,0,1,-4
1532413331181,-8,-2,-4,-3,-4,-6,-3,-6
1532413331186,-1,-3,-1,1,-1,-2,-2,-10
1532413331191,-10,0,0,-3,1,4,1,-4
1532413331196,5,4,-3,1,-3,-4,-2,1
1532413331201,6,0,-1,2,5,6,-1,-3
1532413331206,2,-2,0,1,2,1,7,6
1532413331211,15,4,-2,1,2,2,0,3
1532413331216,17,-2,5,7,0,1,0,-2
1532413331221,12,-4,-2,-6,-2,-1,-1,-6
1532413331226,6,-6,-14,-10,-4,-4,-1,-3
1532413331231,7,5,0,-3,-4,-4,0,-2
1532413331236,0,10,-1,-3,-2,-1,-3,-9
1532413331241,-3,-6,6,5,3,1,1,6
1532413331246,-3,-9,-3,1,4,2,1,-17
1532413331251,-15,-2,0,0,1,-1,3,-8
1532413331256,6,-4,9,3,1,-2,1,8
1532413331261,-11,8,7,5,-4,-2,-5,-5
1532413331266,-2,-5,-24,-19,-6,-6,-4,0
1532413331271,-3,3,6,5,2,6,-1,6
1532413331276,-4,-9,-7,-4,-2,1,0,3
1532413331281,6,1,-3,-3,-1,-6,-2,1
1532413331286,-4,-5,6,4,-1,1,-1,4
1532413331291,-5,-3,-3,-1,-5,-4,-5,-10
1532413331296,-5,-2,-2,1,-4,-3,-2,1
1532413331301,1,1,-1,0,2,2,-1,7
1532413331306,0,-4,5,4,1,-2,-2,-2
1532413331311,4,12,-2,-1,0,-4,1,9
1532413331316,-2,-3,1,-2,1,0,-1,-4
1532413331321,-6,-2,-3,-3,-4,-4,1,-2
1532413331326,2,20,5,2,0,1,-3,-1
1532413331331,-10,-28,-1,1,2,0,1,2
1532413331336,-11,8,-3,-4,-3,1,0,-3
1532413331341,19,3,1,0,-2,-6,-3,-4
1532413331346,-6,0,2,0,-2,1,-2,-4
1532413331351,4,6,1,-1,-6,-5,-4,-3
1532413331356,-3,-2,-2,0,6,7,1,6
1532413331361,0,-5,0,8,4,1,-1,-1
1532413331366,-4,-3,3,-5,-1,-2,-1,-1
1532413331371,-11,-2,-7,-2,-4,-8,-4,-5
1532413331376,2,1,12,2,-2,4,-1,-4
1532413331381,-5,-1,-16,-3,0,-1,-3,1
1532413331386,4,-2,0,-4,-1,0,-1,1
1532413331391,2,5,-3,-3,2,2,1,2
1532413331396,4,-11,-2,1,-1,-2,-2,3
1532413331401,-4,1,5,0,4,2,-2,-5
1532413331406,-3,-4,1,-5,-10,-2,-5,-5
1532413331411,-1,-4,-3,-4,-3,2,2,0
1532413331416,1,9,1,2,0,-6,-2,-6
1532413331421,-2,-7,3,1,1,0,-5,-2
1532413331426,1,-2,-5,2,1,2,1,4
1532413331431,20,8,4,3,4,4,-1,4
1532413331436,-4,-3,-3,-2,-2,-4,-4,-5
1532413331441,5,5,3,1,-4,0,1,2
1532413331446,-11,-6,-11,-13,-7,-4,-3,-2
1532413331451,-3,-6,3,3,0,-1,-5,-1
1532413331456,-7,-5,-6,-1,0,-1,-3,-10
1532413331461,2,2,1,3,0,-1,-2,-3
1532413331466,-1,9,9,9,7,-4,-2,5
1532413331471,6,-1,-2,-5,-6,-5,-5,2
1532413331476,4,-2,-1,4,1,-1,-4,0
1532413331481,-5,-10,-3,-12,-2,3,3,-2
1532413331486,10,6,3,-1,-4,0,-1,-3
1532413331491,-31,-19,0,-1,-1,-3,-2,-13
1532413331496,13,10,-9,-3,0,3,0,1
1532413331501,3,-9,1,-4,-9,-8,-8,2
1532413331506,2,3,1,1,2,1,0,2
1532413331511,1,5,-2,-3,1,2,1,-5
1532413331516,-10,-16,6,7,-2,-3,7,2
1532413331521,5,2,-6,1,1,2,-3,-4
1532413331526,-13,23,4,2,0,0,-3,-1
1532413331531,-13,-8,6,0,-1,4,2,-5
1532413331536,-14,-44,-11,-7,-11,-5,-9,-21
1532413331541,-2,21,7,3,0,-3,1,16
1532413331546,-13,-13,3,5,5,6,9,-6
1532413331551,1,8,-8,-7,-4,-2,-4,5
1532413331556,-5,-8,1,-3,-5,-5,-4,2
1532413331561,5,9,-3,-3,-3,-1,-3,-2
1532413331566,-11,-11,2,6,2,1,-8,8
1532413331571,11,-1,-6,-2,4,-1,-2,6
1532413331576,-9,-3,0,1,-1,-3,-4,-2
1532413331581,-11,-1,-3,0,-3,1,4,-8
1532413331586,21,5,-1,-3,1,-7,1,2
1532413331591,-2,5,4,-4,-4,-4,-5,-7
1532413331596,-2,4,2,-7,-4,-4,-1,-4
1532413331601,-2,0,-3,-3,7,5,-2,-2
1532413331606,2,-12,-1,2,-1,3,2,-4
1532413331611,-4,-4,-2,3,-2,-3,2,0
1532413331616,5,20,-2,-5,3,1,1,5
1532413331621,1,-19,-4,0,-1,1,-2,-2
1532413331626,-4,0,-3,-3,-8,-4,-6,-6
1532413331631,0,-3,-5,0,0,2,1,-1
1532413331636,1,6,6,0,-2,2,3,4
1532413331641,-4,3,0,1,-2,-1,-4,-5
1532413331646,6,3,3,7,7,3,-1,-5
1532413331651,-1,1,-3,-5,-6,-4,-2,-2
1532413331656,-3,-3,1,1,1,-1,-5,-2
1532413331661,-3,-1,-6,2,3,0,-1,1
1532413331666,-1,-10,1,0,1,1,3,-5
1532413331671,-2,1,0,0,-1,-3,-1,4
1532413331676,2,1,-2,0,-5,-2,-4,-2
1532413331681,2,8,9,0,-3,2,-2,-2
1532413331686,1,-9,-12,-14,-2,-4,-5,4
1532413331691,-4,-2,-10,-2,3,4,3,-10
1532413331696,-7,-4,2,0,-1,2,1,0
1532413331701,4,12,16,13,-2,-5,-5,0
1532413331706,2,-4,-15,-18,-4,-1,-1,1
1532413331711,1,0,1,4,5,-3,-4,0
1532413331716,-6,-5,-2,-3,-3,11,15,-2
1532413331721,-7,1,2,1,-4,-6,-4,-4
1532413331726,-2,0,0,-1,0,2,0,3
1532413331731,3,-1,-1,-3,-3,4,2,-3
1532413331736,9,3,-3,5,8,3,-3,-2
1532413331741,10,4,0,-3,3,4,2,2
1532413331746,6,1,1,0,-6,-3,-3,-3
1532413331751,-2,-2,-3,-2,-3,-5,-6,4
1532413331756,-5,-3,4,0,0,1,-1,-2
1532413331761,-18,1,-4,0,5,-2,0,0
1532413331766,-3,0,2,8,1,-4,-1,-1
1532413331771,-2,-6,-2,-4,-2,-2,-1,-3
1532413331776,17,5,17,3,-3,-4,-5,4
1532413331781,7,-7,-38,-16,-4,0,1,-3
1532413331786,11,-4,0,3,-2,3,-1,-4
1532413331791,1,-2,2,3,-4,-1,5,6
1532413331796,-3,10,-4,0,3,-10,-19,-2
1532413331801,1,-6,5,3,0,1,-5,6
1532413331806,0,3,7,2,-6,-1,1,-1
1532413331811,-6,-2,-2,-6,-3,2,-1,-7
1532413331816,-4,-4,-4,-2,0,3,3,-2
1532413331821,-3,5,3,-1,-2,-1,-3,-5
1532413331826,2,0,1,6,5,0,-3,1
1532413331831,-2,-2,5,3,3,2,-4,-1
1532413331836,-7,-4,-6,-2,-1,-6,-6,-7
1532413331841,0,2,-1,-3,-4,2,0,3
1532413331846,-1,1,1,4,6,8,3,4
1532413331851,-7,0,-4,-6,-17,-16,-5,-4
1532413331856,2,-2,-2,1,7,11,7,6
1532413331861,-6,-4,-2,-6,-12,-13,-3,-7
1532413331866,8,0,0,2,1,-3,-4,4
1532413331871,-3,-1,1,5,11,11,5,1
1532413331876,2,-4,-6,-2,-11,-22,-24,-2
1532413331881,3,4,6,0,0,3,6,4
1532413331886,-5,-1,0,1,-6,-7,-5,-6
1532413331891,-7,-4,-2,-2,5,7,2,-8
1532413331896,-2,-4,-3,-5,-6,-7,-2,0
1532413331901,2,5,-1,-1,7,6,2,3
1532413331906,-5,0,1,0,-1,-5,-6,-5
1532413331911,8,-1,-4,-1,-2,0,0,4
1532413331916,-4,-4,-2,-3,1,3,1,-3
1532413331921,5,-2,0,-4,-3,1,-6,0
1532413331926,-1,0,2,2,8,-2,0,-1
1532413331931,-6,-4,-3,-4,-12,-9,2,-4
1532413331936,0,0,-1,7,17,12,4,2
1532413331941,-4,-2,-2,-2,-11,-23,-14,-9
1532413331946,-3,0,1,1,3,4,3,2
1532413331951,1,1,-1,3,20,9,-9,-5
1532413331956,-3,-3,-1,-5,-17,4,18,3
1532413331961,-3,-7,-6,-8,-10,-4,-4,-5
1532413331966,-7,0,0,-2,-12,-6,18,0
1532413331971,-1,2,0,5,-4,-7,-1,0
1532413331976,2,-1,-3,2,15,9,6,1
1532413331981,-8,-2,-1,0,6,4,-6,-10
1532413331986,10,0,0,-4,-12,-4,-8,10
1532413331991,6,3,3,3,10,4,1,-1
1532413331996,1,-4,-2,-1,-7,-8,-11,0
1532413332001,3,2,0,2,7,1,-6,-4
1532413332006,-4,-6,0,3,8,6,-5,-3
1532413332011,-4,-4,-2,-8,-21,-10,4,-4
1532413332016,-10,-3,2,-1,-1,-1,-3,-4
1532413332021,2,-1,1,-2,-5,-8,-1,-3
1532413332026,-3,-1,-3,0,15,23,0,-4
1532413332031,4,4,0,2,-16,-22,-16,2
1532413332036,0,-4,-2,1,9,5,-4,-4
1532413332041,1,-4,-1,-2,-2,-6,0,0
1532413332046,0,-3,-4,-3,-19,-5,-5,-2
1532413332051,-7,-1,-4,-6,4,3,-7,0
1532413332056,-1,1,0,-1,-2,8,6,0
1532413332061,3,3,1,9,20,11,3,3
1532413332066,-1,-1,-1,-7,-15,-21,-15,-6
1532413332071,-2,-5,-2,-2,-4,13,11,-1
1532413332076,-3,0,1,0,4,-10,-21,-7
1532413332081,-2,-7,-3,-3,-8,3,10,-1
1532413332086,1,5,1,-1,-5,-6,-1,2
1532413332091,0,-2,1,0,6,-1,-6,-3
1532413332096,-1,-1,-4,-4,-6,-3,0,1
1532413332101,0,2,-1,-3,-1,4,6,-1
1532413332106,-2,0,-3,-1,2,-12,-8,-4
1532413332111,-1,0,-2,-1,-1,-5,-1,-2
1532413332116,1,-1,-1,0,4,10,5,1
1532413332121,1,-1,0,0,-5,-3,-13,-1
1532413332126,0,-1,0,-2,0,4,-1,0
1532413332131,6,4,4,10,36,22,-5,0
1532413332136,-5,-3,-4,0,3,-30,-7,-5
1532413332141,1,-3,-4,-8,-31,6,18,6
1532413332146,4,-1,1,1,9,-8,0,0
1532413332151,2,-1,-3,-6,-16,-4,3,0
1532413332156,0,2,1,6,23,21,2,-1
1532413332161,1,-1,1,2,15,14,5,0
1532413332166,-2,-5,-7,-6,-6,-2,3,-3
1532413332171,-6,-4,-4,-7,-1,-8,-6,-11
1532413332176,2,-3,-1,-2,-13,0,3,5
1532413332181,0,0,1,0,1,-10,3,0
1532413332186,-4,-4,0,4,0,8,18,1
1532413332191,0,1,-2,1,-1,-6,8,1
1532413332196,6,2,0,-1,-4,1,7,1
1532413332201,-1,12,-1,1,-1,0,-2,0
1532413332206,7,-6,2,4,10,8,-8,4
1532413332211,-27,-2,-2,-2,-6,-3,-10,-3
1532413332216,23,2,8,0,-14,-7,0,-3
1532413332221,-18,0,-1,0,12,1,-10,-2
1532413332226,2,11,-1,-3,2,-1,-5,-1
1532413332231,-3,0,5,1,-3,-9,-14,-1
1532413332236,-16,-8,-13,-5,-2,2,-6,0
1532413332241,9,-1,2,1,3,1,-5,-3
1532413332246,-3,-13,-11,-5,-4,1,-7,-1
1532413332251,-10,5,4,3,4,3,-9,-3
1532413332256,14,2,4,2,0,-4,-7,0
1532413332261,5,11,6,4,-4,-7,-13,7
1532413332266,-4,-8,-12,-12,-4,3,-19,-4
1532413332271,-4,6,6,6,2,1,-22,-5
1532413332276,-15,-2,-5,1,4,1,-19,-7
1532413332281,-28,-14,-20,-18,-3,-2,-6,-7
1532413332286,31,18,0,-4,-4,-3,11,23
1532413332291,6,-14,-5,-3,-4,-4,16,-2
1532413332296,-6,19,2,5,3,9,13,-2
1532413332301,10,0,7,10,0,-5,12,4
1532413332306,-13,-11,-1,-3,-3,-5,11,-5
1532413332311,5,0,-10,-13,-9,-24,16,2
1532413332316,-3,-9,9,1,-1,11,-3,-4
1532413332321,6,5,1,-2,-2,4,1,-1
1532413332326,8,-3,-1,-5,-1,4,-1,-2
1532413332331,3,0,3,4,7,6,-2,8
1532413332336,-8,-3,-2,-3,-8,-20,5,-11
1532413332341,7,5,0,1,1,-1,2,-2
1532413332346,2,1,0,0,-3,-7,-6,-1
1532413332351,-15,-10,-1,-1,-8,-16,-3,-21
1532413332356,-7,-7,-3,0,8,29,-5,16
1532413332361,4,5,0,-1,-2,1,9,0
1532413332366,-13,-10,0,6,3,-3,-5,-9
1532413332371,15,2,-5,-4,-3,6,3,-5
1532413332376,-5,-5,7,-3,-5,-25,-7,-3
1532413332381,1,11,12,7,5,1,-3,-8
1532413332386,5,-7,-12,-2,-8,-5,3,-2
1532413332391,-15,7,17,3,0,11,-6,-6
1532413332396,1,-37,-23,-6,-2,8,3,7
1532413332401,-9,28,4,6,9,5,-4,9
1532413332406,-7,9,9,-1,-3,-10,-2,-4
1532413332411,0,-14,-9,1,10,12,-2,2
1532413332416,-5,-20,-32,-4,-7,-15,-2,-10
1532413332421,-3,-17,16,-5,-6,0,-6,2
1532413332426,6,49,19,7,7,5,1,4
1532413332431,-1,26,33,3,4,-1,1,7
1532413332436,0,2,3,-1,0,-4,2,1
1532413332441,6,-34,-27,-5,-1,1,-5,3
1532413332446,-10,-21,-19,-5,-8,4,-5,-7
1532413332451,8,2,-7,-6,0,-6,-10,5
1532413332456,-1,10,2,-1,3,1,6,-6
1532413332461,-1,1,-1,0,-8,-4,-7,-8
1532413332466,-7,-22,-4,-7,-4,-5,-1,-4
1532413332471,2,6,-9,1,-4,-1,3,5
1532413332476,0,7,4,2,2,-2,-6,2
1532413332481,-4,9,-2,-12,-4,-10,3,-3
1532413332486,2,-6,15,5,0,-6,-6,-1
1532413332491,-3,-18,-15,-1,3,8,1,3
1532413332496,1,4,3,4,3,-2,0,-2
1532413332501,-2,6,-12,1,-5,6,-6,-10
1532413332506,2,-10,-9,-7,-2,0,0,16
1532413332511,3,4,22,-3,-3,-5,-6,-4
1532413332516,3,9,23,6,-3,-1,2,1
1532413332521,-4,-30,-31,-4,-3,-12,2,-2
1532413332526,-5,-9,-37,-3,6,9,-9,-12
1532413332531,2,55,48,8,6,12,8,3
1532413332536,2,24,27,0,-6,-7,-2,2
1532413332541,3,10,21,2,-7,-14,0,1
1532413332546,-3,-18,-17,-3,2,2,-1,-1
1532413332551,-3,-47,-40,-8,-11,-22,-4,-3
1532413332556,0,25,8,5,19,48,-4,-3
1532413332561,-3,-2,5,-4,-3,-11,-4,3
1532413332566,-2,-1,6,-2,-8,19,-3,-9
1532413332571,-1,-13,-20,-4,-2,-22,0,-1
1532413332576,-4,-13,-16,8,9,16,-4,0
1532413332581,-3,-7,3,1,5,6,-3,-1
1532413332586,2,23,12,3,-2,-2,-1,4
1532413332591,4,25,14,-3,-3,5,2,7
1532413332596,-6,-4,-2,-7,-16,-29,-7,-9
1532413332601,11,8,0,4,14,25,-2,7
1532413332606,-5,1,4,-4,-7,-16,-4,-7
1532413332611,-4,-22,-21,-4,-11,-7,0,-7
1532413332616,7,3,4,8,9,0,10,22
1532413332621,-4,-53,-16,-3,-12,-47,-13,-12
1532413332626,7,18,12,3,13,69,-7,-8
1532413332631,1,-2,2,-7,-9,-19,-4,-3
1532413332636,-6,-5,-3,-6,-3,-1,-6,-12
1532413332641,-3,6,5,3,-7,-9,-53,3
1532413332646,-2,-9,-10,-7,-2,-13,-22,3
1532413332651,-5,-8,-4,2,6,26,0,-3
1532413332656,2,-1,1,-6,-5,-12,16,3
1532413332661,0,10,-1,-6,-14,15,26,-7
1532413332666,2,8,13,13,8,-26,13,2
1532413332671,0,-3,-4,1,4,21,11,1
1532413332676,-2,-7,-1,-3,-15,-17,-8,-7
1532413332681,1,10,-4,5,19,26,9,8
1532413332686,-2,5,7,-3,-14,-36,-6,0
1532413332691,2,-6,-6,-4,5,26,2,0
1532413332696,-1,-3,-9,-6,1,-6,-7,-9
1532413332701,-1,7,6,11,1,-2,-4,3
1532413332706,1,-2,4,1,2,7,-39,-2
1532413332711,0,2,4,-6,-12,-43,-59,3
1532413332716,-1,1,-7,-12,11,43,-19,1
1532413332721,-4,-1,-6,14,0,-10,20,2
1532413332726,-4,-13,-2,4,1,-4,47,3
1532413332731,2,-3,-5,1,-2,-5,36,3
1532413332736,2,6,2,-3,-9,-31,11,-3
1532413332741,-3,8,5,-3,18,44,27,2
1532413332746,-2,1,0,-3,-12,-8,8,-2
1532413332751,0,-4,-7,-5,0,5,-3,-6
1532413332756,2,1,0,-4,4,-25,7,4
1532413332761,2,0,2,5,21,16,1,-2
1532413332766,1,-5,0,-2,-13,-18,-4,-2
1532413332771,5,-2,1,9,19,17,-12,3
1532413332776,2,-2,3,6,-24,-17,-4,-2
1532413332781,-2,2,3,-10,-15,-18,-10,-8
1532413332786,3,8,2,-2,3,3,7,6
1532413332791,-5,-16,-5,-2,4,-8,2,1
1532413332796,-3,1,3,-3,6,3,-1,11
1532413332801,2,2,-2,-10,-9,-18,-14,-13
1532413332806,-8,-7,-13,5,2,24,19,8
1532413332811,1,4,-1,3,-5,-13,-11,-3
1532413332816,-6,-2,-3,0,10,-33,-16,-21
1532413332821,1,7,6,-5,7,79,12,6
1532413332826,4,5,5,-6,-3,-22,-20,2
1532413332831,-4,-4,-8,-3,-12,-11,2,4
1532413332836,2,-3,-3,1,7,21,-5,10
1532413332841,5,3,4,-6,25,-5,6,5
1532413332846,0,-5,-5,-24,-45,-35,-5,-4
1532413332851,-1,0,0,-6,1,15,5,-5
1532413332856,-1,-3,-1,-2,-14,-10,-4,-11
1532413332861,-3,-4,-4,1,2,11,6,-4
1532413332866,0,-1,2,-4,-1,-4,-1,5
1532413332871,-4,-1,-5,9,17,12,-5,-12
1532413332876,-5,-4,-1,7,4,9,12,-1
1532413332881,-1,1,2,12,-1,-18,-12,-3
1532413332886,-4,0,5,6,1,-2,-2,-12
1532413332891,4,2,-3,-14,-21,-10,3,4
1532413332896,4,-1,-5,6,3,6,-14,-7
1532413332901,-1,-2,-2,7,-7,-13,-7,5
1532413332906,1,3,1,16,11,12,14,3
1532413332911,-2,3,4,21,15,17,-3,0
1532413332916,0,0,0,-2,1,24,7,2
1532413332921,-3,-3,-2,-24,-29,-31,-14,1
1532413332926,2,0,-2,-3,18,-4,-21,-18
1532413332931,-2,0,-1,-9,-17,-20,-19,3
1532413332936,4,2,0,-12,11,13,24,13
1532413332941,1,-3,-4,-11,-20,-20,-10,-1
1532413332946,-2,-1,-2,-5,6,0,-4,2
1532413332951,-1,-4,-2,13,24,47,11,6
1532413332956,-3,-1,5,21,1,-11,-16,3
1532413332961,-1,-3,-1,-10,-22,-27,-13,-7
1532413332966,-1,1,0,-14,3,-2,-6,-2
1532413332971,0,-2,-3,-19,-17,-15,6,-4
1532413332976,-2,-3,0,-21,1,2,-9,-4
1532413332981,2,0,1,-6,11,12,19,2
1532413332986,3,0,1,-4,7,16,7,-5
1532413332991,0,-1,-2,-9,-2,-4,-2,-6
1532413332996,-3,2,-2,-5,-4,-7,-1,-6
1532413333001,-1,4,3,-2,-8,-25,-14,-7
1532413333006,2,-5,-6,-4,2,4,0,-6
1532413333011,-3,1,-1,-2,0,-4,13,-5
1532413333016,-2,3,-2,1,8,6,12,5
1532413333021,-1,3,-1,-1,-2,-18,-12,0
1532413333026,-4,-1,-2,1,0,2,-2,3
1532413333031,-3,-5,-2,-6,-4,-1,-3,-1
1532413333036,-3,-4,-1,-4,-1,-2,-6,-5
1532413333041,-4,-1,-5,10,1,10,10,11
1532413333046,-5,-6,-6,8,-5,-3,-1,2
1532413333051,2,12,4,10,-5,-1,-7,-1
1532413333056,-4,-7,2,4,-10,3,-9,-5
1532413333061,-5,-8,-3,13,15,15,3,-3
1532413333066,-2,-9,-4,4,8,5,-5,-1
1532413333071,-7,-13,-8,0,-14,-11,-1,-14
1532413333076,4,17,6,2,-5,-2,3,9
1532413333081,-5,-9,-4,-1,4,0,2,-7
1532413333086,3,13,3,5,-2,-3,-4,7
1532413333091,3,3,9,-1,-1,-3,-3,1
1532413333096,4,3,0,3,-1,-3,-5,-2
1532413333101,-3,-28,-9,-1,-10,-6,-4,-3
1532413333106,-14,-11,-13,6,13,5,2,-11
1532413333111,9,18,12,6,1,-15,1,5
1532413333116,-1,-4,1,2,-11,1,1,-3
1532413333121,-12,-11,-3,-5,-14,-5,-6,-7
1532413333126,5,0,-7,7,16,9,2,11
1532413333131,-9,-2,1,-1,-20,-15,-5,-2
1532413333136,-4,-21,-15,5,8,4,-1,0
1532413333141,16,7,0,11,20,8,-9,-1
1532413333146,3,13,9,0,-32,-5,3,-1
1532413333151,-5,48,18,10,13,7,-1,-7
1532413333156,-2,-15,-6,5,-3,-2,10,2
1532413333161,-7,1,-10,6,-4,2,6,-1
1532413333166,-2,-15,8,19,8,5,-3,-3
1532413333171,5,-17,-12,10,6,5,-7,8
1532413333176,-6,6,0,1,-11,-6,-7,-11
1532413333181,0,3,1,1,8,6,3,-6
1532413333186,10,-6,2,-8,1,-1,2,10
1532413333191,-14,-53,-17,-7,-2,5,12,4
1532413333196,21,46,14,2,4,3,0,7
1532413333201,-21,-6,12,42,0,-3,-2,1
1532413333206,13,-12,1,21,-6,-10,-9,-4
1532413333211,19,7,-3,8,4,4,-15,16
1532413333216,-6,-21,3,-11,-1,-4,-6,-25
1532413333221,14,23,10,-32,0,3,-2,6
1532413333226,-4,0,1,5,-7,-11,-7,-3
1532413333231,-17,-22,-6,30,13,17,9,-2
1532413333236,12,26,7,-7,-2,-3,-14,5
1532413333241,9,14,5,-27,-2,-2,11,11
1532413333246,-23,-20,-4,-51,2,7,-4,-6
1532413333251,10,2,-7,-40,-4,-12,-8,-9
1532413333256,-30,0,-5,-18,-7,-3,1,-1
1532413333261,-8,22,-3,-15,-5,-4,2,-20
1532413333266,-14,-23,-4,-6,14,28,2,30
1532413333271,9,-1,4,-14,-7,-6,3,-32
1532413333276,5,-5,-9,-14,-4,-2,16,33
1532413333281,-17,-28,-2,-5,2,-5,-8,-52
1532413333286,10,21,-3,-13,-23,-43,8,0
1532413333291,-25,-36,-13,3,28,50,1,20
1532413333296,-6,3,1,-3,-5,-9,6,-9
1532413333301,-11,14,7,3,0,4,3,-2
1532413333306,21,43,6,2,-8,-15,10,35
1532413333311,-1,-11,2,0,1,-2,-7,-45
1532413333316,-7,-48,-16,2,6,1,-22,-17
1532413333321,16,0,-5,4,-4,-4,-18,22
1532413333326,-2,-2,2,6,4,14,-13,-21
1532413333331,-3,22,1,-3,-8,-20,-6,39
1532413333336,21,3,4,9,10,20,-8,21
1532413333341,-2,-22,-7,-2,-7,8,-15,-4
1532413333346,-8,11,-10,-2,1,-9,-13,-31
1532413333351,3,23,16,-1,-4,-5,7,35
1532413333356,-7,-5,4,1,0,-3,2,-27
1532413333361,23,27,0,1,-3,-12,1,-14
1532413333366,2,-8,3,7,7,18,15,27
1532413333371,-19,-21,-14,-4,-1,2,-1,-10
1532413333376,2,-21,-8,-1,-12,-15,-5,11
1532413333381,21,8,2,6,3,12,1,3
1532413333386,2,-9,0,0,-5,-20,-12,-3
1532413333391,15,21,4,0,0,-3,-6,-7
1532413333396,-9,-16,-5,0,-2,-3,1,12
1532413333401,-14,-2,-4,0,1,10,2,2
1532413333406,-3,-6,-6,2,2,-10,1,-20
1532413333411,-3,24,9,-4,-9,1,2,10
1532413333416,-7,-13,-8,5,3,5,-6,-11
1532413333421,-3,6,-3,-1,6,-3,-12,6
1532413333426,7,-13,5,0,6,13,15,19
1532413333431,16,6,-4,1,-2,-4,0,-9
1532413333436,-8,-15,-7,3,-7,-12,-22,-18
1532413333441,-59,-4,6,-4,-14,-34,24,-9
1532413333446,20,16,4,7,19,56,3,-6
1532413333451,-13,-23,-7,-7,-11,-27,-6,-24
1532413333456,37,14,0,-2,-3,-3,-6,16
1532413333461,5,-16,-14,-1,-6,-15,-29,-19
1532413333466,-38,13,6,0,-2,-5,20,11
1532413333471,22,7,7,0,-2,-10,12,6
1532413333476,-5,-4,0,-1,-5,-4,6,4
1532413333481,19,7,1,1,14,22,-3,8
1532413333486,-19,-4,-6,-3,-15,-28,-39,-12
1532413333491,-13,-9,1,6,12,26,1,-42
1532413333496,-36,-5,2,-4,-8,-18,-13,-28
1532413333501,54,-3,5,8,14,25,82,42
1532413333506,-13,-5,-3,-3,1,9,-22,-9
1532413333511,-12,4,0,-1,1,-7,-7,3
1532413333516,13,16,3,-1,1,9,-15,10
1532413333521,-15,-15,0,1,-4,-3,-13,-1
1532413333526,5,3,0,0,-1,2,6,-33
1532413333531,-13,-4,-2,0,-2,-4,0,18
1532413333536,8,14,2,0,4,12,-4,11
1532413333541,-6,-9,-3,-8,-12,-17,-12,3
1532413333546,-5,2,1,1,1,9,22,7
1532413333551,29,8,-3,2,4,9,-39,18
1532413333556,-43,-45,-4,0,-2,2,21,-26
1532413333561,36,15,-3,1,0,6,2,34
1532413333566,0,-25,1,-3,-4,-14,-6,-10
1532413333571,4,8,2,0,-3,3,10,14
1532413333576,-27,26,4,0,3,6,-17,-25
1532413333581,0,-14,0,0,-8,-4,-25,16
1532413333586,-27,-39,-10,-12,-10,8,68,20
1532413333591,-15,3,-9,-10,-12,-16,-27,-19
1532413333596,55,3,1,2,5,6,21,10
1532413333601,-69,24,1,-6,-10,-8,-25,-86
1532413333606,43,16,7,10,13,12,-44,64
1532413333611,11,-11,0,-4,-2,-7,-19,29
1532413333616,32,37,9,5,14,12,40,-12
1532413333621,16,-15,-5,-8,-8,-11,-11,17
1532413333626,-12,-16,-5,-1,6,2,5,2
1532413333631,12,7,-2,-4,-8,-15,-9,9
1532413333636,-40,-10,-1,3,1,-5,-5,-46
1532413333641,8,-26,0,6,6,1,13,16
1532413333646,43,-22,-5,-5,-14,-24,-41,40
1532413333651,-80,-2,-1,3,0,3,25,-85
1532413333656,38,36,6,-3,-2,0,25,50
1532413333661,-4,1,-3,-4,-1,-2,-2,5
1532413333666,-18,9,-7,-1,-8,-13,-26,-33
1532413333671,7,-1,-4,4,3,6,10,28
1532413333676,46,-1,9,-5,-7,-9,-5,50
1532413333681,-44,5,2,0,-4,0,3,-98
1532413333686,26,15,1,4,9,10,-1,67
1532413333691,-12,-36,0,4,8,1,28,-104
1532413333696,24,52,10,2,2,4,4,41
1532413333701,10,-69,-9,0,-1,-1,0,33
1532413333706,-8,92,3,0,-14,-18,-40,-83
1532413333711,27,-8,2,0,7,14,33,56
1532413333716,-8,-28,-18,-12,-9,-12,-6,-30
1532413333721,45,-30,-1,-1,5,3,-21,51
1532413333726,-23,2,-5,-6,-12,-10,-31,-111
1532413333731,20,-20,1,11,15,22,24,84
1532413333736,-17,38,2,-11,-6,-10,-23,-18
1532413333741,-17,10,-1,-1,-3,2,3,46
1532413333746,4,7,-2,6,3,-4,-9,43
1532413333751,10,-42,-5,-11,-4,-10,26,-75
1532413333756,0,-18,7,10,12,11,-4,20
1532413333761,-26,33,4,2,-3,-10,7,-27
1532413333766,45,36,11,1,5,6,6,94
1532413333771,22,18,4,7,2,0,-25,-11
1532413333776,-41,-25,-14,-5,1,2,-10,-43
1532413333781,105,53,-3,-12,-25,-28,-56,67
1532413333786,-104,-67,-1,13,35,51,87,-36
1532413333791,-21,18,-10,-16,-25,-42,-24,59
1532413333796,-20,-30,-15,1,2,5,-13,12
1532413333801,-10,26,22,1,-3,-6,24,-29
1532413333806,15,-2,1,-2,-11,-16,-27,13
1532413333811,-11,27,4,12,22,24,-19,0
1532413333816,-54,-40,-12,-2,-4,-5,-28,-47
1532413333821,-5,-13,-15,-4,-1,-1,-20,6
1532413333826,-10,7,-1,-4,-4,-2,-3,-65
1532413333831,20,27,7,-6,-21,-20,1,63
1532413333836,16,-11,15,16,14,5,28,14
1532413333841,-5,-26,-10,-4,-3,-5,44,-2
1532413333846,-2,-4,5,-4,-1,2,10,-1
1532413333851,20,-7,-10,-7,-5,8,-18,17
1532413333856,14,4,-1,1,0,7,-32,-5
1532413333861,-42,-20,-4,-4,0,11,25,-11
1532413333866,12,-7,-4,-2,0,-9,6,-33
1532413333871,-14,6,2,-4,-9,-11,-21,-48
1532413333876,8,8,2,-3,-12,-14,9,29
1532413333881,-19,14,1,6,20,19,-9,-12
1532413333886,40,-5,-3,-7,-21,-34,18,45
1532413333891,-4,8,8,10,28,39,-22,29
1532413333896,-1,-7,-5,-11,-18,-18,31,-16
1532413333901,16,1,-13,5,22,28,-45,8
1532413333906,16,-1,-1,-14,-16,-8,-8,44
1532413333911,13,-17,10,3,0,-6,64,-4
1532413333916,0,18,1,-7,-5,-18,-27,-53
1532413333921,-33,-23,-5,1,0,0,-10,-47
1532413333926,-20,-11,-2,11,20,25,-1,-13
1532413333931,-14,-3,-14,-8,-5,8,-26,-15
1532413333936,10,7,3,10,7,6,-13,68
1532413333941,25,16,4,-10,-14,-8,1,20
1532413333946,-39,-19,-2,-2,7,7,34,-88
1532413333951,-5,2,4,6,1,-18,-12,-7
1532413333956,-8,-10,-22,-7,-3,16,-8,23
1532413333961,3,-16,-2,5,27,13,-12,2
1532413333966,-39,25,42,7,6,-6,-30,-45
1532413333971,36,7,-3,6,4,16,39,62
1532413333976,2,2,1,-11,-19,-16,7,-3
1532413333981,-8,5,-13,0,13,-11,0,3
1532413333986,-7,-29,-15,11,17,7,-33,-26
1532413333991,11,28,44,-5,-76,-51,-7,-7
1532413333996,0,17,16,6,15,16,-18,-27
1532413334001,8,4,4,6,13,-5,5,7
1532413334006,0,-12,-15,-10,-7,5,2,-32
1532413334011,8,2,-16,2,24,-3,-23,-3
1532413334016,-4,-31,-1,-3,15,17,20,16
1532413334021,9,0,7,-6,-71,-37,34,28
1532413334026,27,12,-1,-1,7,0,11,34
1532413334031,-16,-22,-20,-13,-10,-3,-19,-43
1532413334036,1,18,-10,-4,-5,-15,-4,19
1532413334041,-17,2,5,9,45,33,-2,-29
1532413334046,-8,0,4,-5,-24,-8,-8,16
1532413334051,7,-17,-14,-7,10,6,-4,-6
1532413334056,18,14,8,1,7,5,-12,28
1532413334061,-64,-3,7,-1,-18,-10,1,-83
1532413334066,60,-8,-6,0,-8,-9,26,109
1532413334071,-16,16,15,21,24,-11,-20,-26
1532413334076,-9,-12,-20,-15,0,17,6,-12
1532413334081,6,6,8,22,68,49,-14,16
1532413334086,-5,1,-4,-6,-41,-19,-12,-16
1532413334091,-11,-10,-4,-7,33,15,14,7
1532413334096,7,-5,1,10,26,-1,-17,-4
1532413334101,1,19,1,-13,-40,-24,-53,3
1532413334106,-7,-34,-22,2,40,23,-17,-37
1532413334111,-10,-3,5,-1,-15,-9,9,-16
1532413334116,3,2,-2,1,-27,-18,22,-31
1532413334121,-10,-15,7,3,5,2,28,21
1532413334126,17,17,-5,-8,-10,-17,14,-26
1532413334131,-6,2,3,-13,-25,-9,14,-4
1532413334136,3,-10,-13,-8,8,15,9,0
1532413334141,14,11,20,4,11,8,14,-7
1532413334146,-6,-1,2,-5,-24,-22,-1,10
1532413334151,-6,3,1,1,9,16,0,-6
1532413334156,-4,-3,-1,1,-1,-10,-9,-12
1532413334161,4,-8,-19,-2,7,3,5,3
1532413334166,-9,3,8,6,61,16,-4,3
1532413334171,-11,-3,-13,-13,-55,-2,-12,-17
1532413334176,6,7,4,4,-35,-16,-8,23
1532413334181,4,-12,-14,-17,-56,-51,3,-24
1532413334186,-8,15,10,1,23,13,-4,-8
1532413334191,-21,-21,-7,9,33,13,-2,3
1532413334196,-2,6,4,1,11,8,-1,1
1532413334201,6,5,2,-6,1,5,-18,3
1532413334206,1,-1,-11,-1,-12,-12,-18,8
1532413334211,2,-9,-6,0,1,10,-12,0
1532413334216,-17,4,10,4,-10,-10,0,-21
1532413334221,19,7,-2,7,17,8,2,36
1532413334226,6,3,1,0,-5,-6,-3,-2
1532413334231,4,7,-5,-4,1,5,5,1
1532413334236,-4,-1,-7,-4,4,-8,-2,-26
1532413334241,-9,-11,-2,2,-1,4,13,19
1532413334246,0,-14,-7,-7,-7,0,7,23
1532413334251,1,2,-12,6,7,-10,1,-15
1532413334256,4,14,17,4,3,2,0,7
1532413334261,-2,3,-3,-6,1,1,-1,-20
1532413334266,-7,-2,-2,-4,-30,-12,5,-2
1532413334271,10,-9,-14,-4,5,-4,-4,5
1532413334276,-18,11,10,0,-1,5,-3,-12
1532413334281,12,-7,-6,1,22,26,5,22
1532413334286,-2,-1,3,4,13,-4,-2,-10
1532413334291,11,11,-9,-21,-86,-48,-9,11
1532413334296,-11,-22,5,5,24,35,4,-17
1532413334301,5,10,14,6,-2,-23,-6,0
1532413334306,5,-16,-23,-2,17,11,7,5
1532413334311,2,33,31,17,29,37,10,5
1532413334316,6,-5,-3,3,6,5,8,2
1532413334321,-4,4,-4,-3,-5,-11,-3,-17
1532413334326,11,3,-3,-11,-53,-27,-8,19
1532413334331,-10,-9,-13,-6,11,-17,-13,-5
1532413334336,-1,3,-2,1,-8,-7,2,-20
1532413334341,-12,-8,-6,-2,24,19,-9,-27
1532413334346,-17,3,-1,-6,-17,-12,-1,-9
1532413334351,-9,-20,-7,1,21,14,-3,-11
1532413334356,16,-19,8,-1,-1,-11,0,43
1532413334361,-9,-24,-10,-12,-59,-38,3,-14
1532413334366,-2,3,-2,-4,1,3,-5,-11
1532413334371,1,9,1,4,13,11,-10,-7
1532413334376,-1,18,3,13,30,11,8,4
1532413334381,6,22,10,11,59,40,2,14
1532413334386,-5,6,3,-9,-69,-28,-3,-4
1532413334391,0,-11,-13,-17,-24,-29,-3,0
1532413334396,2,12,3,1,19,11,-15,-3
1532413334401,3,2,-4,-11,-56,-20,2,9
1532413334406,6,9,11,13,59,47,-3,3
1532413334411,-6,-4,4,6,30,18,-1,-11
1532413334416,11,-6,-13,-16,-60,-58,-11,13
1532413334421,-7,1,-1,10,44,77,7,-4
1532413334426,-4,3,9,7,13,-10,5,-7
1532413334431,4,-4,4,-3,-18,-5,9,14
1532413334436,-3,-7,0,4,17,15,1,-8
1532413334441,6,-2,-2,-2,-4,-21,7,-3
1532413334446,3,-5,-2,3,8,10,-10,-2
1532413334451,7,7,6,-4,-16,-7,-10,10
1532413334456,-7,0,8,9,14,-3,1,-10
1532413334461,-5,0,-2,-8,6,6,-7,-10
1532413334466,-5,-4,-10,-7,-14,-5,-2,-6
1532413334471,1,6,-4,-3,-2,-10,0,5
1532413334476,-3,5,3,-2,2,-2,-7,1
1532413334481,-11,-13,-3,0,0,-2,-6,-12
1532413334486,-4,-1,-8,-7,-9,3,7,8
1532413334491,-7,6,2,-1,-4,-18,-12,-12
1532413334496,-8,-17,-6,-3,12,15,0,3
1532413334501,-3,-5,1,4,2,0,7,3
1532413334506,-5,-15,-5,-10,-21,-6,-1,8
1532413334511,0,5,-2,1,-4,-23,-25,-5
1532413334516,4,8,-1,-3,-11,-12,-9,-4
1532413334521,-3,4,25,16,14,24,7,0
1532413334526,-1,-14,-35,-14,-1,-18,0,-2
1532413334531,-3,-2,3,3,-9,-5,9,6
1532413334536,3,5,-11,-8,2,-7,-6,0
1532413334541,-6,5,11,5,2,3,-2,-16
1532413334546,3,-4,-5,1,3,6,1,-11
1532413334551,-7,3,-4,-2,-5,2,4,-5
1532413334556,1,-3,-2,2,6,-1,0,-5
1532413334561,-1,-4,-9,-9,-5,1,-3,-6
1532413334566,0,6,6,2,4,4,-5,-1
1532413334571,1,-4,-2,-2,2,-3,-1,3
1532413334576,1,5,10,2,-3,2,-1,10
1532413334581,-2,-12,-4,-6,-4,0,-3,7
1532413334586,-4,3,7,-1,-1,-1,-2,5
1532413334591,4,-5,0,-4,-2,3,4,-6
1532413334596,-3,-14,-4,1,-1,-2,-3,-5
1532413334601,10,3,-9,-3,-4,-4,-2,-9
1532413334606,4,2,3,8,4,-2,1,-5
1532413334611,-8,-3,-3,-17,-4,3,-1,0
1532413334616,23,14,-6,2,0,3,5,5
1532413334621,-2,6,0,0,-1,-1,-7,-2
1532413334626,1,5,12,10,3,2,7,1
1532413334631,-1,-1,-12,-5,-2,-2,-2,-2
1532413334636,0,4,8,2,-1,-1,-4,-3
1532413334641,-9,-14,-12,-3,1,-6,-4,-8
1532413334646,7,-7,-7,-1,2,10,-1,5
1532413334651,-8,13,15,5,-1,-6,2,-14
1532413334656,-13,3,5,-3,1,5,0,-3
1532413334661,6,10,0,-1,-5,-6,-1,-1
1532413334666,-6,-17,-2,-3,-3,-4,-1,6
1532413334671,2,-5,-7,6,2,1,0,6
1532413334676,12,-9,-10,-8,-3,-3,-2,-8
1532413334681,1,7,-3,-4,-1,-1,-6,0
1532413334686,8,2,10,3,1,-1,-1,-7
1532413334691,5,-12,-11,-5,-2,6,-1,5
1532413334696,-10,-3,2,5,0,-1,-4,-1
1532413334701,-3,-4,7,1,-1,-1,0,3
1532413334706,-1,11,-4,-7,-4,-5,-5,-1
1532413334711,2,-7,-6,-2,2,2,3,0
1532413334716,-3,4,4,1,1,3,1,4
1532413334721,-3,0,-7,-2,0,-3,-6,0
1532413334726,-3,3,6,2,-1,-2,-4,-9
1532413334731,3,3,3,1,-2,-1,0,4
1532413334736,-9,-3,-4,-1,0,-1,0,3
1532413334741,-1,-1,-2,0,-2,0,1,-5
1532413334746,-3,-1,-2,-2,0,-1,-1,4
1532413334751,4,-1,0,2,2,1,0,5
1532413334756,1,3,-1,-1,-2,-7,-7,-10
1532413334761,-6,-12,0,2,2,-1,0,-9
1532413334766,-3,1,-1,-3,-3,-3,-1,0
1532413334771,3,6,1,0,1,-2,-1,1
1532413334776,0,-8,-3,-4,-3,0,-3,4
1532413334781,-2,3,-2,-1,-2,-3,-2,-3
1532413334786,-4,1,-1,-1,0,0,-2,-2
1532413334791,6,2,4,2,0,1,0,-5
1532413334796,-12,-7,-4,-4,-2,0,2,8
1532413334801,-1,0,-3,-2,-1,0,0,-1
1532413334806,20,5,-1,0,-1,-3,-2,5
1532413334811,-7,-1,2,2,-4,-1,-5,-1
1532413334816,7,-1,-6,-9,-12,-8,-10,-7
1532413334821,10,6,-2,-1,1,0,-1,5
1532413334826,-9,-9,-6,-3,-1,-1,-3,-5
1532413334831,1,-5,-3,0,2,0,2,5
1532413334836,-8,-4,1,0,1,2,-4,-6
1532413334841,-1,0,0,-1,-2,-3,0,0
1532413334846,2,4,1,1,-1,-2,-5,-4
1532413334851,-2,5,2,2,2,3,2,2
1532413334856,2,-8,-1,3,2,3,-3,-2
1532413334861,-2,2,-3,-1,-2,0,-3,1
1532413334866,2,-5,-1,4,4,3,4,4
1532413334871,-3,-1,-6,-3,-4,-3,-6,2
1532413334876,9,-14,-2,-1,1,-1,1,1
1532413334881,0,17,8,0,0,1,2,4
1532413334886,-18,4,1,-4,-1,-1,-5,-22
1532413334891,-1,-5,-1,-5,-4,-3,-3,-2
1532413334896,-4,-5,-4,-2,-3,-1,-1,-5
1532413334901,3,-5,-3,-1,1,-1,-7,1
1532413334906,-4,4,1,-1,-2,-1,4,2
1532413334911,-2,-16,-7,1,2,2,-2,2
1532413334916,-7,-9,-3,1,3,1,4,-5
1532413334921,-12,18,14,0,-3,-1,-3,-9
1532413334926,4,3,0,-6,-5,-5,3,20
1532413334931,0,1,1,-2,0,-2,1,-25
1532413334936,-1,-2,-4,-1,0,-1,2,2
1532413334941,1,-5,-5,-1,0,1,-1,-8
1532413334946,-6,-3,3,5,0,1,-9,-10
1532413334951,2,7,0,-1,-4,-3,-2,2
1532413334956,-1,-7,-1,1,1,0,1,4
1532413334961,0,-5,-1,3,1,1,0,-9
1532413334966,-38,-17,-1,2,2,1,8,13
1532413334971,42,20,0,-3,-5,-6,-5,-15
1532413334976,1,10,4,3,3,-1,-7,-3
1532413334981,6,-8,-8,-6,-4,-3,-3,9
1532413334986,12,13,1,-1,1,-1,2,-1
1532413334991,-11,11,0,-2,-2,0,-4,-10
1532413334996,-4,-18,-1,-1,0,-1,-1,2
1532413335001,5,-7,-2,-2,-2,-1,2,-1
1532413335006,2,-3,-3,0,1,0,-7,-6
1532413335011,-10,-6,-3,-3,-4,1,3,10
1532413335016,17,16,5,3,1,-1,-9,-11
1532413335021,-4,-15,-4,-2,-2,-1,-7,3
1532413335026,-20,-9,0,-4,-3,-2,0,-13
1532413335031,-4,0,0,1,3,1,-4,5
1532413335036,-11,1,-2,-3,-3,-1,2,6
1532413335041,-4,-7,-3,0,2,1,6,0
1532413335046,13,9,-2,-1,0,-1,-6,-6
1532413335051,-5,-11,-2,-1,-1,1,4,6
1532413335056,-10,0,-1,-7,-5,-3,-3,0
1532413335061,1,4,-2,-1,-1,-3,-8,-2
1532413335066,7,1,2,-2,-1,1,9,17
1532413335071,-15,-8,-2,0,1,0,-2,-18
1532413335076,3,7,0,-1,-1,-1,4,2
1532413335081,5,4,1,2,1,1,0,2
1532413335086,5,2,-3,-1,-2,-1,-2,-2
1532413335091,4,-13,0,-1,-1,-1,-2,15
1532413335096,2,17,3,1,-1,0,2,-10
1532413335101,-3,2,-3,-3,-5,-2,6,4
1532413335106,-2,0,-1,0,-3,-2,-16,-18
1532413335111,-2,-11,-1,3,0,1,4,1
1532413335116,1,-1,0,2,1,1,-4,2
1532413335121,1,-2,0,0,0,0,2,4
1532413335126,1,-1,0,0,1,-1,-2,-3
1532413335131,2,6,1,-2,-1,-2,-4,-3
1532413335136,-3,1,-2,0,0,-1,-3,-3
1532413335141,-2,-3,-2,1,0,1,-4,1
1532413335146,8,1,-1,-3,-5,-1,-2,3
1532413335151,3,2,0,1,1,1,-4,8
1532413335156,-9,-5,-4,-1,-2,-2,-3,-6
1532413335161,-5,6,-1,-1,0,0,-4,-10
1532413335166,1,-9,1,1,0,-2,0,9
1532413335171,-3,-3,-2,-2,-1,-3,-3,13
1532413335176,5,4,0,-2,-1,0,-2,7
1532413335181,0,1,0,-1,-3,-2,-5,-4
1532413335186,3,4,0,-1,-1,0,-1,1
1532413335191,-4,-1,0,-3,-2,-3,0,-7
1532413335196,1,-2,1,-2,-2,-3,-2,1
1532413335201,1,2,-2,-1,0,0,-1,-1
1532413335206,2,-1,-1,0,-1,-2,1,6
1532413335211,0,-1,-1,2,-1,-1,2,0
1532413335216,-3,1,-3,-2,-7,-7,0,-4
1532413335221,-3,-2,0,-2,3,0,-2,-2
1532413335226,0,-3,1,-1,-2,1,-1,0
1532413335231,1,-1,0,-3,-7,-18,-1,6
1532413335236,-2,-5,-1,1,1,8,1,-5
1532413335241,-3,-1,2,4,8,21,2,-4
1532413335246,3,2,-1,-3,-2,-3,2,0
1532413335251,-6,-2,0,0,2,2,0,-4
1532413335256,3,6,1,-2,-2,-5,0,4
1532413335261,-2,-3,-4,-4,-17,-19,-3,2
1532413335266,-4,-3,-2,2,2,1,0,-1
1532413335271,0,-3,-2,-2,-2,0,-1,-7
1532413335276,0,-14,-6,0,-1,-2,-2,-9
1532413335281,1,17,7,0,-1,2,-1,-6
1532413335286,-1,1,-3,-1,0,-8,-1,-8
1532413335291,0,1,0,-3,-6,-1,1,5
1532413335296,-2,-2,-3,2,7,8,-2,4
1532413335301,1,-1,-4,-2,2,-2,-4,2
1532413335306,-2,-3,1,-2,-3,-2,-2,4
1532413335311,-2,2,-1,1,5,3,-1,-2
1532413335316,-1,-5,-3,-3,-4,-4,2,5
1532413335321,-4,-1,0,-2,0,-1,-3,-8
1532413335326,0,3,2,-3,-2,-4,4,9
1532413335331,2,-1,0,1,10,15,-9,2
1532413335336,2,3,0,7,38,9,3,-5
1532413335341,-6,-5,-4,-16,-96,-52,2,-4
1532413335346,-1,-3,1,2,4,-12,2,-4
1532413335351,-6,-4,-1,-3,-5,5,-7,-15
1532413335356,2,6,2,2,20,25,-1,6
1532413335361,2,-2,-1,4,22,7,-5,4
1532413335366,2,2,0,-3,-9,2,-4,0
1532413335371,-1,-1,0,0,-10,-10,1,6
1532413335376,1,1,1,-1,-5,-7,-5,-4
1532413335381,-2,-3,-2,4,23,12,-1,-3
1532413335386,-1,-2,-2,-2,-19,-6,-7,1
1532413335391,1,2,1,3,21,12,-2,-7
1532413335396,-1,-3,-2,-4,-13,-11,0,2
1532413335401,0,-3,2,10,41,21,7,31
1532413335406,-6,-2,-1,-9,-53,-15,-26,-53
1532413335411,6,2,-7,-6,-17,-16,-5,10
1532413335416,-2,1,-3,-3,-11,-6,5,9
1532413335421,-2,-10,-2,4,27,11,-9,-19
1532413335426,1,6,7,4,21,10,9,24
1532413335431,-1,-2,0,-4,1,3,2,3
1532413335436,-1,0,-3,-2,-9,-1,-7,-3
1532413335441,2,-6,-2,0,1,-4,3,1
1532413335446,-2,-2,-2,4,18,10,3,1
1532413335451,4,1,0,-2,-11,-5,0,-2
1532413335456,-2,2,2,7,24,15,3,4
1532413335461,-2,5,-2,-7,-16,-14,-6,14
1532413335466,4,2,2,7,30,20,-17,-25
1532413335471,-3,-6,-5,-5,2,12,6,-3
1532413335476,1,1,0,-4,-20,-23,-6,10
1532413335481,-4,2,0,-3,-5,6,-5,-2
1532413335486,6,6,3,8,9,2,13,4
1532413335491,-3,6,20,-4,-10,1,-1,5
1532413335496,3,18,-8,16,60,14,-17,-49
1532413335501,3,13,24,-18,-89,-33,7,12
1532413335506,-7,-73,-48,2,64,27,3,10
1532413335511,0,1,3,-1,-21,-21,4,1
1532413335516,-1,-7,2,-6,-34,-44,-9,-7
1532413335521,-12,9,3,-7,-28,-12,-3,-9
1532413335526,8,22,20,3,-1,-7,2,15
1532413335531,-3,-18,-9,0,-8,1,-12,0
1532413335536,0,7,4,-3,0,3,6,11
1532413335541,5,2,-6,8,50,33,-4,-6
1532413335546,-3,9,6,-5,-17,-7,5,-14
1532413335551,1,0,-13,-4,-4,-17,3,10
1532413335556,0,3,0,-10,-52,-19,-1,1
1532413335561,-1,-6,-6,3,18,8,-7,-9
1532413335566,-2,-3,-4,0,17,3,2,-8
1532413335571,-1,8,3,4,14,0,-5,-8
1532413335576,-5,-3,6,-6,0,20,-2,-4
1532413335581,-4,-21,-27,-4,5,-13,-5,-20
1532413335586,0,23,5,-3,-23,-8,11,16
1532413335591,-1,-13,-2,7,13,8,-9,-4
1532413335596,6,39,50,1,-6,6,-9,4
1532413335601,-5,-54,-63,0,13,-4,2,10
1532413335606,-5,-10,-8,-5,-18,-4,-4,6
1532413335611,-2,-9,-1,-1,0,4,13,0
1532413335616,-1,6,4,5,10,1,-10,5
1532413335621,8,27,26,3,-2,-6,8,1
1532413335626,-2,-5,1,-2,-6,12,-5,2
1532413335631,-3,8,1,2,5,2,-6,-1
1532413335636,-4,-12,-12,0,-5,-13,-8,3
1532413335641,2,12,10,3,3,-1,-7,-2
1532413335646,3,0,-4,-4,-10,-6,-2,2
1532413335651,2,13,8,2,5,5,2,1
1532413335656,-3,-2,-17,-4,-7,-13,10,-6
1532413335661,-6,-46,-1,5,5,7,-14,-7
1532413335666,-8,13,6,-1,2,-1,4,-1
1532413335671,-3,1,-5,-6,0,-3,-6,-5
1532413335676,-1,-9,-13,-1,-5,-3,3,-5
1532413335681,-4,8,4,-1,14,13,7,-11
1532413335686,-1,-1,2,1,-4,-9,-11,-3
1532413335691,-1,-3,-6,-9,-24,-25,-4,-9
1532413335696,-6,-15,-10,-3,3,9,7,-2
1532413335701,2,9,9,1,0,2,6,-3
1532413335706,0,-3,0,1,1,-5,0,-6
1532413335711,2,-1,-3,3,10,5,-8,-10
1532413335716,2,-9,-3,-3,-3,-3,-7,3
1532413335721,4,7,2,1,1,2,-4,8
1532413335726,2,0,-2,-3,-2,0,-2,1
1532413335731,0,2,-1,-1,-6,-15,-3,-1
1532413335736,3,-5,-3,-1,3,26,0,4
1532413335741,-2,9,5,7,16,5,-7,2
1532413335746,-1,-1,1,-4,-7,2,1,-1
1532413335751,0,-1,1,0,3,5,-4,6
1532413335756,-4,-11,-6,-6,-10,-21,-6,2
1532413335761,-1,1,-3,-6,-6,-5,-1,6
1532413335766,-1,-6,-3,-5,-4,1,-9,2
1532413335771,-3,-5,-4,-3,-2,-21,-5,0
1532413335776,-1,-7,-2,-1,3,10,0,4
1532413335781,-1,5,-2,-3,1,2,-6,2
1532413335786,-3,-11,1,-1,-12,11,0,1
1532413335791,2,15,6,5,19,22,-5,4
1532413335796,-5,-21,-3,9,-1,-7,-4,-5
1532413335801,7,2,-20,-22,-10,-8,-4,-6
1532413335806,1,5,-1,-5,-11,-23,-6,-3
1532413335811,2,0,0,1,4,12,-1,-7
1532413335816,-1,4,6,3,-1,0,0,-4
1532413335821,-1,5,8,9,2,1,-1,-8
1532413335826,-2,0,-2,1,-1,-14,-12,-4
1532413335831,-5,-7,1,-3,-5,9,9,-6
1532413335836,14,7,6,5,1,-6,-4,2
1532413335841,-3,2,-7,4,0,6,1,-8
1532413335846,-3,-4,-12,-19,3,3,0,0
1532413335851,-5,-4,6,5,-7,-13,-3,0
1532413335856,-1,-5,-10,-4,-5,9,2,0
1532413335861,-1,0,-1,0,-2,-8,-7,-2
1532413335866,-4,-2,2,7,1,-3,-7,-11
1532413335871,2,6,-2,0,1,-3,2,-5
1532413335876,-3,-1,-1,-1,1,4,2,-4
1532413335881,3,8,19,19,-2,-6,-5,6
1532413335886,-6,-22,-31,-11,1,-9,-15,-4
1532413335891,-6,-23,-37,-33,-1,17,-9,-6
1532413335896,-2,36,39,4,-5,-14,0,0
1532413335901,-5,-2,6,-11,0,9,-3,2
1532413335906,9,9,5,9,-8,-7,3,4
1532413335911,0,-15,-5,13,14,-1,-11,3
1532413335916,-1,-8,-11,-7,-21,-19,-3,4
1532413335921,-3,11,7,16,37,57,-12,0
1532413335926,-3,-8,9,-1,-12,-23,-1,-5
1532413335931,2,2,-1,-2,-3,5,-3,1
1532413335936,-2,-3,-9,-11,-4,-18,-1,6
1532413335941,-5,-4,-2,-6,-13,-28,5,-15
1532413335946,2,6,4,-1,9,23,3,2
1532413335951,-1,-1,3,13,5,-7,2,3
1532413335956,-1,-13,-5,5,3,6,-1,-8
1532413335961,7,9,4,-25,-16,-16,5,3
1532413335966,3,11,-15,5,2,-3,-1,0
1532413335971,-2,-9,-6,-3,1,14,2,-5
1532413335976,5,21,9,-8,7,11,6,1
1532413335981,-3,-14,0,-1,-7,-10,14,19
1532413335986,0,3,13,-4,-21,-37,9,-9
1532413335991,6,6,4,10,13,34,-6,11
1532413335996,-2,-33,-34,-1,15,22,-13,0
1532413336001,-15,3,-17,-2,-10,-8,-7,-18
1532413336006,-3,40,42,1,2,7,18,-4
1532413336011,-2,5,2,-3,-13,-19,8,-4
1532413336016,1,-18,-5,-4,-2,-11,-8,-3
1532413336021,4,-28,-46,-8,8,16,-19,-5
1532413336026,-7,0,-2,-3,-3,-4,-4,0
1532413336031,1,19,60,16,3,-2,18,3
1532413336036,-2,5,14,0,-3,3,5,-2
1532413336041,2,-21,-18,4,-1,-13,-5,1
1532413336046,-4,-58,-71,-15,-7,9,-28,-6
1532413336051,3,53,12,-2,-1,-6,5,1
1532413336056,-5,-17,-5,2,-1,0,5,-2
1532413336061,13,49,48,5,-8,-11,3,-1
1532413336066,1,0,12,9,18,21,-9,4
1532413336071,-4,-19,-25,-10,-9,-16,-15,-5
1532413336076,1,0,-8,1,-1,0,-4,-2
1532413336081,1,-18,-28,-9,-2,4,-10,-4
1532413336086,6,12,17,5,-1,-22,3,6
1532413336091,-2,-25,-23,-2,1,32,4,-2
1532413336096,1,0,-37,-5,-3,-3,-17,3
1532413336101,-1,-2,28,-10,-13,-8,-5,-1
1532413336106,5,19,28,15,25,17,13,13
1532413336111,-1,42,77,27,0,-21,11,3
1532413336116,-4,4,-6,-15,0,7,6,-1
1532413336121,3,-24,-30,3,-1,-1,-3,0
1532413336126,-1,-8,-28,-8,-14,-36,-8,2
1532413336131,-8,-14,-27,-16,-5,40,-16,-7
1532413336136,-6,-33,-12,4,5,-10,-29,-8
1532413336141,6,5,9,4,0,-14,-9,-2
1532413336146,0,20,31,-4,-1,9,7,-2
1532413336151,-2,-20,-16,-5,-2,-22,5,-6
1532413336156,-5,10,14,-1,4,2,13,-6
1532413336161,-11,-22,-15,-2,0,4,11,-4
1532413336166,-4,-5,2,7,18,5,8,-4
1532413336171,4,-2,-20,-26,-91,-53,5,19
1532413336176,-9,-8,-1,-1,11,7,-11,-40
1532413336181,-3,-5,-9,4,-2,-4,4,0
1532413336186,-4,-8,5,8,20,31,7,1
1532413336191,1,40,68,16,24,5,6,0
1532413336196,5,7,0,-4,-14,-7,3,8
1532413336201,0,12,9,5,3,2,5,-2
1532413336206,-1,-25,-45,-11,-12,-3,-13,-8
1532413336211,6,-18,-39,-7,12,10,-18,-8
1532413336216,0,9,30,0,-18,-50,10,9
1532413336221,0,30,33,9,36,60,6,0
1532413336226,-1,-5,-1,-3,-11,-11,-1,3
1532413336231,-2,-8,-12,-2,3,-4,-2,-7
1532413336236,3,6,-15,-4,1,10,2,1
1532413336241,-5,-61,-26,4,-10,-15,-2,-2
1532413336246,2,73,62,1,-5,2,2,6
1532413336251,0,-22,-17,-1,14,1,-10,-8
1532413336256,-10,2,5,2,-1,4,-5,4
1532413336261,13,-5,-35,-18,-11,-12,-11,2
1532413336266,-2,-2,18,1,0,11,-6,-4
1532413336271,-23,-7,15,-3,5,-6,-6,-6
1532413336276,15,15,17,12,6,12,6,11
1532413336281,0,11,14,-4,-9,-14,1,2
1532413336286,8,-15,-18,2,3,7,-10,4
1532413336291,8,4,-24,-12,1,-4,-17,-1
1532413336296,-7,-12,-10,-6,7,8,-3,-2
1532413336301,-10,21,49,7,-28,-11,6,1
1532413336306,6,-9,-16,3,31,19,-11,-4
1532413336311,5,-9,2,-1,-17,-11,-1,-1
1532413336316,-3,2,-10,4,35,38,-1,-1
1532413336321,0,4,0,-5,-27,-37,-6,-1
1532413336326,-2,-5,-6,-4,-10,-2,-3,-6
1532413336331,-2,-9,-2,3,13,3,-95,5
1532413336336,-1,-1,2,-2,-10,-1,-26,4
1532413336341,-2,7,1,-2,20,12,-27,-5
1532413336346,-8,-19,-17,3,9,-3,-7,2
1532413336351,-8,14,-7,-8,-19,-15,17,-9
1532413336356,2,-22,-10,2,-2,-14,21,12
1532413336361,-5,20,17,10,10,-6,8,-22
1532413336366,0,7,-12,-27,-17,2,48,28
1532413336371,-2,-4,-7,5,22,14,50,-6
1532413336376,8,18,10,-3,-15,-13,12,-4
1532413336381,-20,2,-7,2,1,7,27,-22
1532413336386,-10,-23,-9,0,-11,1,2,-35
1532413336391,22,2,2,3,16,9,20,20
1532413336396,-5,-2,0,1,-8,0,17,9
1532413336401,6,-10,-5,3,25,38,10,23
1532413336406,-4,5,5,8,-5,-21,-22,-4
1532413336411,-7,-10,-4,-3,-12,-9,-3,-3
1532413336416,0,1,-3,-2,-7,-3,-5,-6
1532413336421,-3,1,5,5,3,4,-3,5
1532413336426,0,7,8,8,1,-5,7,8
1532413336431,-5,-8,-13,-9,1,17,17,-6
1532413336436,-3,7,11,7,9,9,4,-1
1532413336441,-1,-8,-34,-32,-15,-9,23,0
1532413336446,0,-3,7,9,6,4,40,1
1532413336451,5,3,1,8,-12,-23,14,-5
1532413336456,0,9,3,8,-15,-28,37,-14
1532413336461,7,2,-4,-16,17,38,39,13
1532413336466,5,-3,-9,-9,-13,-16,-10,-4
1532413336471,0,0,1,-3,-2,5,-13,-7
1532413336476,1,3,5,8,19,10,-59,-2
1532413336481,-1,0,9,12,-5,-19,-56,-2
1532413336486,0,-3,-4,-6,-8,-3,-37,0
1532413336491,-3,-1,5,2,5,6,-31,1
1532413336496,-2,-2,-2,-7,-11,-3,-22,-1
1532413336501,1,0,0,2,-3,-11,-11,3
1532413336506,-2,2,1,-3,2,7,-15,-5
1532413336511,-1,-3,-3,4,1,-1,-4,-4
1532413336516,-3,-2,-3,-8,-2,5,1,-4
1532413336521,-2,6,6,-3,-7,-7,-5,-5
1532413336526,-1,-2,-3,-3,-6,2,-11,-2
1532413336531,-3,-1,0,11,9,3,13,1
1532413336536,0,1,-1,-9,-1,3,2,-2
1532413336541,0,1,3,2,0,-3,-10,-3
1532413336546,-1,-1,2,1,-2,-4,-6,-3
1532413336551,2,-4,-4,-4,-2,-3,6,3
1532413336556,0,0,-7,-8,1,4,0,-2
1532413336561,0,1,14,16,6,-1,-7,5
1532413336566,1,-2,0,1,-5,0,-1,-4
1532413336571,-2,1,-12,-18,-6,-2,1,-5
1532413336576,2,2,14,16,14,7,1,5
1532413336581,0,-4,-6,-6,-18,-16,-1,1
1532413336586,1,-2,-2,-3,-24,-13,-3,6
1532413336591,0,-3,0,5,11,-6,-3,4
1532413336596,0,-1,-6,-10,-12,8,-13,-3
1532413336601,1,1,0,5,30,13,-15,-6
1532413336606,0,-4,-1,-1,0,4,-93,-1
1532413336611,-2,-4,0,-4,-13,-2,-32,-5
1532413336616,-2,-1,-1,-4,-4,-2,-27,0
1532413336621,1,1,3,-1,-1,-1,12,-1
1532413336626,0,3,1,1,9,8,43,-2
1532413336631,-1,0,1,4,11,6,58,-4
1532413336636,1,3,-2,2,4,-7,56,5
1532413336641,1,1,-3,-1,-9,-3,26,-1
1532413336646,0,-3,-3,-2,7,-7,26,-8
1532413336651,4,3,0,-1,-7,-8,4,7
1532413336656,0,2,-1,-1,-4,1,21,-1
1532413336661,2,-12,-9,-8,-7,-7,-9,-1
1532413336666,-1,-3,0,2,4,7,7,4
1532413336671,-6,-6,-2,-1,-4,1,-72,-4
1532413336676,-4,-6,-3,-4,-3,2,-28,-2
1532413336681,-5,-2,0,0,-3,-2,3,-1
1532413336686,-4,-6,-3,-2,-2,0,6,-3
1532413336691,-4,-3,-1,0,-1,1,22,-4
1532413336696,-6,-6,-6,-3,4,0,-18,-3
1532413336701,-2,-1,3,-1,-14,-1,-15,-3
1532413336706,-3,1,-1,-5,-3,-3,23,0
1532413336711,-2,1,-2,0,2,2,-3,0
1532413336716,-1,-2,0,-1,6,6,-7,-2
1532413336721,-1,0,-1,1,3,-1,12,-4
1532413336726,2,2,3,8,18,10,10,3
1532413336731,3,3,3,-4,-27,-17,17,4
1532413336736,0,-1,2,5,4,-3,8,-10
1532413336741,1,3,2,2,9,6,7,4
1532413336746,1,5,3,-1,-9,-2,-1,0
1532413336751,0,2,6,4,19,15,15,1
1532413336756,0,1,2,-3,-5,-5,19,4
1532413336761,2,3,0,3,4,2,1,1
1532413336766,-2,0,-2,1,-3,-3,-14,2
1532413336771,1,-2,-1,1,2,-4,10,-2
1532413336776,2,1,-4,-3,-10,-5,-8,3
1532413336781,1,0,-2,-8,-9,-5,-14,2
1532413336786,0,-2,-2,2,-2,-13,-20,-11
1532413336791,-2,-3,-4,-5,-6,-8,-23,-4
1532413336796,-1,-4,-4,-5,-5,-7,-23,-4
1532413336801,-1,-4,-4,-4,-3,-11,-28,-2
1532413336806,-1,-1,-3,1,25,21,1,-1
1532413336811,0,1,-3,-11,-49,-27,-17,-4
1532413336816,0,0,0,2,4,8,-8,0
1532413336821,-1,0,-3,-3,-10,-5,-24,-3
1532413336826,-2,-4,-1,-2,-1,5,-12,-4
1532413336831,-1,-2,-2,6,27,20,-13,1
1532413336836,-2,-4,0,2,10,7,-5,-6
1532413336841,-3,-3,-3,-8,-23,-7,-5,-4
1532413336846,-2,-1,-4,-3,1,0,-3,-5
1532413336851,-3,-4,-1,2,12,-6,3,-1
1532413336856,-3,-4,-2,-5,-20,-5,23,1
1532413336861,-1,-3,0,2,17,16,29,4
1532413336866,-2,-2,-1,-5,-16,-7,12,2
1532413336871,-4,-2,0,-1,8,6,18,0
1532413336876,-2,1,0,0,7,3,2,1
1532413336881,-2,1,2,5,6,-1,11,-2
1532413336886,0,1,1,-4,-21,-20,7,0
1532413336891,2,2,4,2,8,11,0,-3
1532413336896,2,3,1,3,-2,-2,10,-4
1532413336901,2,3,3,2,3,4,6,2
1532413336906,1,2,3,3,8,6,0,2
1532413336911,1,2,4,4,-5,1,2,3
1532413336916,1,-1,-4,-3,2,-3,1,2
1532413336921,-3,-3,-3,-5,5,-2,-4,-1
1532413336926,-1,-3,0,0,-8,-8,-13,-4
1532413336931,-2,-4,-2,-3,5,3,1,2
1532413336936,-1,-3,-3,0,-5,-2,13,3
1532413336941,-2,-2,-1,3,1,-2,-10,-3
1532413336946,-2,-2,-4,-3,-1,-4,-15,-2
1532413336951,-3,-2,-1,-1,-2,-3,-3,-4
1532413336956,-1,-3,-1,0,-6,-6,-8,-3
1532413336961,-3,-5,-4,-6,-2,-6,4,-5
1532413336966,-1,-3,-1,-1,1,-1,-1,-7
1532413336971,-1,-3,-5,-4,-1,1,6,-7
1532413336976,-2,-4,1,-2,-3,-3,7,-1
1532413336981,1,-3,-2,0,-4,-2,11,-3
1532413336986,0,-1,1,-2,-10,-1,2,-9
1532413336991,1,-1,-2,4,2,-3,-4,-1
1532413336996,0,-3,-1,0,3,-1,-17,-3
1532413337001,-1,-3,4,5,-1,3,-3,-1
1532413337006,-1,-1,-4,-4,4,-8,-10,5
1532413337011,-4,-2,3,3,-4,2,-15,-1
1532413337016,-4,0,5,-3,-7,-3,-17,3
1532413337021,-3,2,-3,8,4,-4,-12,7
1532413337026,-4,0,-1,-3,4,6,30,6
1532413337031,-5,-3,4,-3,-1,-1,0,-4
1532413337036,-5,-1,-4,-4,-9,-4,2,-2
1532413337041,-5,0,-5,-8,-11,-9,-11,-8
1532413337046,-1,5,5,7,11,8,12,8
1532413337051,-1,1,-10,-9,-4,0,8,-4
1532413337056,1,3,4,1,1,3,-9,0
1532413337061,3,4,12,0,-2,-1,-2,-2
1532413337066,0,-3,-11,-4,-4,-1,-5,-6
1532413337071,4,-1,-2,-4,1,-3,-5,-1
1532413337076,6,3,-8,-6,-2,-5,-16,1
1532413337081,3,2,1,-2,-2,-2,-5,-5
1532413337086,4,3,3,0,-2,0,-8,7
1532413337091,2,1,-6,-6,-2,-2,-4,5
1532413337096,-2,-1,-6,-3,-4,-5,-7,-3
1532413337101,-2,0,-7,-5,-3,-1,-4,5
1532413337106,-1,-4,-2,0,-1,0,-7,-4
1532413337111,3,4,4,5,4,-2,-3,5
1532413337116,-2,-4,-3,-4,-1,1,4,0
1532413337121,0,-1,1,2,0,2,-1,-3
1532413337126,-2,-4,-2,-1,-2,-2,-5,-4
1532413337131,-2,-6,-7,-3,-1,2,2,-4
1532413337136,-1,-3,4,6,3,-2,2,-4
1532413337141,0,-2,-2,2,3,2,2,-4
1532413337146,0,-3,-1,-3,-4,-2,-1,-6
1532413337151,2,-4,0,2,0,-4,-7,2
1532413337156,0,2,1,0,6,4,7,-1
1532413337161,1,2,2,-3,-1,0,-1,4
1532413337166,-3,-13,1,2,0,-1,-6,-1
1532413337171,-8,-23,-23,-8,-3,-2,2,-3
1532413337176,-2,3,-6,-4,-3,-1,4,2
1532413337181,-1,22,13,3,3,3,9,3
1532413337186,6,17,20,3,1,0,-4,-2
1532413337191,9,14,19,2,2,1,0,0
1532413337196,7,-12,-4,3,2,0,1,-5
1532413337201,4,-39,-48,-5,-2,-2,0,-6
1532413337206,10,34,16,-3,0,-1,4,8
1532413337211,0,-1,14,4,0,-1,7,-3
1532413337216,5,23,-6,0,1,-2,5,3
1532413337221,-4,45,46,5,-1,2,4,0
1532413337226,11,-30,-31,-7,-3,-7,3,15
1532413337231,-3,-2,-21,-8,-2,2,0,4
1532413337236,-14,-20,-7,4,0,2,-6,-15
1532413337241,-7,-27,-33,-7,-3,-5,-11,0
1532413337246,-2,24,51,9,1,0,-10,-1
1532413337251,2,9,-1,1,-2,-6,-8,19
1532413337256,-1,33,9,-4,0,1,-7,-2
1532413337261,-9,-13,-2,-5,-6,-2,-2,-23
1532413337266,10,-8,-12,-2,-2,1,-3,5
1532413337271,8,-19,-1,9,-6,-4,-9,-2
1532413337276,-19,-37,-37,-17,-4,0,-7,4
1532413337281,5,26,6,2,3,3,3,3
1532413337286,-12,-1,-4,-1,2,-2,-4,-9
1532413337291,0,18,4,2,3,0,-23,-16
1532413337296,3,19,53,11,-1,-3,-8,-5
1532413337301,-2,-23,7,10,-2,-2,-4,-5
1532413337306,-4,-23,-52,-35,-6,-3,8,7
1532413337311,-8,-4,-10,-2,-1,1,9,-7
1532413337316,4,-5,1,-1,-2,-1,6,-3
1532413337321,-2,-1,6,0,0,-2,0,-4
1532413337326,-24,-14,10,17,3,-1,0,-24
1532413337331,14,1,-6,-9,-7,-2,0,8
1532413337336,-1,9,-6,-1,-2,1,-2,10
1532413337341,1,-5,-5,0,-2,-3,-1,-10
1532413337346,13,12,12,10,4,5,4,12
1532413337351,-10,-14,-12,-9,-2,0,-3,-1
1532413337356,-7,-4,6,6,4,5,3,-2
1532413337361,-1,2,-5,-4,-7,-5,-4,0
1532413337366,3,4,-2,0,-3,-2,-1,4
1532413337371,10,-14,-4,5,38,16,3,9
1532413337376,1,3,6,-5,-37,-32,-2,-3
1532413337381,-4,-6,-6,-2,10,6,7,2
1532413337386,-2,-4,2,-1,-17,-12,3,-5
1532413337391,1,4,4,-1,0,7,1,4
1532413337396,3,2,3,6,17,9,3,-3
1532413337401,-10,-9,-12,-6,-3,0,-1,-7
1532413337406,7,1,6,6,8,4,-4,3
1532413337411,5,-1,-2,0,-4,-5,-1,6
1532413337416,0,2,3,4,0,8,-3,1
1532413337421,-18,-10,-13,-8,-1,-2,-5,-14
1532413337426,19,7,6,11,9,-4,-7,18
1532413337431,-2,-3,-5,-4,-14,-18,-10,-7
1532413337436,-7,0,-2,0,0,4,0,-6
1532413337441,-16,-14,-7,-5,-8,-3,-1,-5
1532413337446,4,-2,2,2,4,5,3,11
1532413337451,0,6,-2,-4,-11,-3,-2,1
1532413337456,-3,3,0,-1,0,-1,-5,-5
1532413337461,9,0,1,4,7,12,4,6
1532413337466,-4,-2,-3,-4,-8,-4,-1,-4
1532413337471,10,6,4,6,19,12,3,10
1532413337476,-15,-6,-5,-2,19,-8,-8,-20
1532413337481,4,6,-3,-15,-78,-45,-3,5
1532413337486,4,-1,-2,3,11,8,0,5
1532413337491,0,3,-1,3,-3,1,-1,2
1532413337496,4,-1,1,8,33,20,10,2
1532413337501,-4,-5,-4,1,19,5,-2,-5
1532413337506,-2,-6,-5,-2,-4,3,9,-3
1532413337511,-1,2,1,2,-1,5,-1,3
1532413337516,3,0,5,4,-3,-2,-9,-1
1532413337521,3,1,0,-2,4,-14,-16,-7
1532413337526,1,1,1,-5,-18,-7,-4,-1
1532413337531,-12,-4,0,-2,1,2,3,-9
1532413337536,5,-2,-4,-5,-15,1,4,12
1532413337541,0,-1,-8,-6,11,16,2,0
1532413337546,-4,-1,2,2,11,9,-1,-3
1532413337551,1,-4,-5,-7,-5,-11,-5,-6
1532413337556,-2,-8,-10,-2,-12,6,4,-1
1532413337561,1,14,12,5,15,10,3,0
1532413337566,-5,-26,-20,-3,4,-2,-5,-5
1532413337571,7,29,-2,-5,-17,-12,-5,7
1532413337576,-3,8,35,8,17,-1,2,-7
1532413337581,-1,-8,-2,-2,-29,-13,6,9
1532413337586,-3,14,1,-5,-12,-17,-8,-1
1532413337591,-7,-17,-7,2,-13,-1,-4,-16
1532413337596,7,5,-14,0,3,-7,-5,2
1532413337601,1,-2,2,7,14,19,2,1
1532413337606,-3,1,5,1,3,-1,-1,-4
1532413337611,2,-6,-2,0,-5,1,-2,3
1532413337616,0,2,3,2,-2,-4,-5,-2
1532413337621,0,-7,-2,1,10,6,0,-3
1532413337626,4,2,1,-2,-10,-5,1,0
1532413337631,-2,-1,3,-1,2,-11,-6,-2
1532413337636,-6,-8,-10,-5,-12,-4,0,-5
1532413337641,1,-5,-7,-2,6,-6,-2,3
1532413337646,-3,-3,-3,1,9,19,0,-6
1532413337651,-3,-3,1,-3,-1,-9,-3,-1
1532413337656,-2,-8,-4,-5,-5,0,-3,0
1532413337661,0,-3,-5,-1,0,-4,-2,-1
1532413337666,0,4,5,1,0,-1,-2,-3
1532413337671,-3,-3,-1,-4,-3,-12,-2,-1
1532413337676,-1,-1,-5,-4,-14,-17,-5,3
1532413337681,0,2,2,2,14,27,4,-4
1532413337686,-1,-1,2,2,-4,-8,-2,-4
1532413337691,1,-2,-8,-5,-3,2,-2,3
1532413337696,0,3,0,2,7,20,4,1
1532413337701,0,1,2,1,-1,-5,-4,-4
1532413337706,-1,-8,-1,-5,0,-3,-2,0
1532413337711,1,17,5,-3,-6,-5,-1,-1
1532413337716,-4,-4,-3,5,-1,-3,0,-2
1532413337721,-2,3,4,1,-2,-13,-8,-2
1532413337726,1,-2,-9,-9,10,29,4,-8
1532413337731,-3,-16,-3,0,-2,-2,1,-1
1532413337736,-3,-2,-2,-3,-7,-2,0,-5
1532413337741,1,0,-1,0,1,-4,4,6
1532413337746,-1,3,2,3,1,-5,-3,-1
1532413337751,0,2,2,0,-1,8,1,-4
1532413337756,7,4,0,-1,0,-5,-5,5
1532413337761,-6,-3,-3,1,-1,0,3,-5
1532413337766,-8,-1,3,1,-2,-4,-2,-2
1532413337771,3,-5,-1,4,5,6,-1,-7
1532413337776,0,0,0,-3,-7,-4,-2,12
1532413337781,-1,2,-3,-6,-3,-2,-5,-2
1532413337786,-2,-1,-1,2,3,4,2,0
1532413337791,-6,-8,0,1,0,0,0,-1
1532413337796,10,-3,-3,-5,-3,-8,-13,-9
1532413337801,-4,5,1,1,0,3,6,3
1532413337806,-9,-5,-1,1,-1,-1,-5,-6
1532413337811,9,1,-3,-2,2,4,1,11
1532413337816,-4,-4,-3,-3,-3,0,0,-5
1532413337821,1,3,11,13,4,5,41,-1
1532413337826,4,0,-13,-9,-4,-18,6,1
1532413337831,0,4,3,-3,-1,4,2,-4
1532413337836,-5,-3,-1,-3,-2,8,-2,4
1532413337841,0,-13,-7,-1,1,-8,-16,-9
1532413337846,1,4,8,6,-7,-4,-6,1
1532413337851,-3,-7,1,2,7,-7,-14,-5
1532413337856,-2,4,-5,-3,0,4,2,1
1532413337861,-1,-1,-1,-4,1,3,-11,2
1532413337866,2,1,7,6,13,12,5,1
1532413337871,-2,2,-2,-9,-21,-14,-8,1
1532413337876,-6,-1,6,8,5,4,0,-5
1532413337881,-2,-3,-5,-3,15,13,-1,0
1532413337886,4,-1,3,-2,-16,-16,-7,3
1532413337891,-1,0,-6,1,8,9,1,1
1532413337896,-2,1,8,7,17,0,-2,1
1532413337901,-4,-4,-6,-10,-26,-10,-8,-10
1532413337906,11,3,1,5,31,23,-2,9
1532413337911,-2,3,6,3,6,7,-5,-7
1532413337916,-4,-7,-8,-10,-35,-21,3,-1
1532413337921,1,-1,5,2,17,4,-11,5
1532413337926,-4,1,-6,0,-6,-3,2,-6
1532413337931,1,0,-4,-3,37,24,4,-3
1532413337936,2,2,15,15,33,16,2,-2
1532413337941,-6,-6,-26,-24,-52,-40,-3,-3
1532413337946,-1,2,6,9,29,17,-2,8
1532413337951,-1,2,1,2,-23,-9,8,-3
1532413337956,-4,2,-5,3,35,19,-5,-6
1532413337961,1,0,5,9,11,15,-1,0
1532413337966,-5,-3,12,0,-21,-17,-9,-5
1532413337971,-3,-4,-15,-9,1,14,0,0
1532413337976,-2,0,2,3,-11,-7,4,0
1532413337981,1,-1,1,-3,-6,-6,-8,-2
1532413337986,-3,0,-4,-8,-17,-5,1,1
1532413337991,-2,-1,9,3,-6,-2,-5,-4
1532413337996,4,2,-1,5,30,21,3,5
1532413338001,-1,-2,-5,-12,-55,-37,-7,-2
1532413338006,-7,-3,-2,6,22,20,-2,-7
1532413338011,5,3,3,-5,-28,-14,-2,2
1532413338016,1,0,-15,-19,-29,-47,-5,-4
1532413338021,3,1,7,3,17,36,5,3
1532413338026,0,0,0,4,-11,-14,-4,-3
1532413338031,-5,-3,-10,-8,-10,-1,-3,-1
1532413338036,1,-1,3,-2,-1,5,1,1
1532413338041,4,5,5,4,5,4,3,3
1532413338046,-6,0,-7,-9,3,-4,-3,-14
1532413338051,-12,-4,3,11,28,-2,0,-14
1532413338056,8,-8,-9,-12,-37,-17,1,5
1532413338061,0,0,4,7,27,12,-7,-1
1532413338066,7,2,-1,0,-16,1,2,8
1532413338071,4,1,1,-1,-15,-17,-3,2
1532413338076,-14,-2,0,0,31,21,-7,-9
1532413338081,1,-5,-6,-6,-56,-43,2,2
1532413338086,2,-3,-7,-6,-15,-13,-6,4
1532413338091,1,-1,-2,1,6,9,0,2
1532413338096,-1,0,1,-2,4,3,-5,-4
1532413338101,3,3,0,8,43,25,0,2
1532413338106,0,1,2,-2,-1,-21,5,2
1532413338111,0,-5,-3,-5,-10,9,-4,4
1532413338116,-4,-5,-4,-2,-16,-15,1,-5
1532413338121,-5,-1,0,-3,-1,6,-9,-14
1532413338126,3,-1,0,0,-11,-25,-5,-1
1532413338131,0,2,8,5,3,-3,0,-1
1532413338136,-3,3,-2,-5,-44,-22,-7,-7
1532413338141,4,2,6,11,23,12,3,17
1532413338146,-4,-5,-7,-9,11,12,-2,-7
1532413338151,5,4,7,5,30,28,1,13
1532413338156,-2,-1,-4,-2,-39,-42,-7,-1
1532413338161,-4,0,-8,-14,-11,2,-7,-3
1532413338166,0,0,6,8,30,5,-4,-9
1532413338171,0,0,-10,-3,-1,-27,-6,4
1532413338176,-1,0,2,-2,16,34,3,-2
1532413338181,-1,-1,0,2,5,-12,0,-2
1532413338186,-2,-1,-2,3,46,43,-3,-6
1532413338191,-5,-2,-2,-7,-59,-37,12,-9
1532413338196,6,4,-3,-4,9,8,22,9
1532413338201,-3,1,-1,-6,-25,-11,5,-1
1532413338206,-6,-2,-5,-3,-17,-9,-7,-5
1532413338211,3,2,3,0,15,1,-10,4
1532413338216,-4,-2,2,8,36,33,-26,-18
1532413338221,-1,2,4,1,-11,-2,-1,8
1532413338226,-5,-3,-6,-5,7,13,-3,5
1532413338231,-8,-4,-4,-5,-18,-8,-12,-7
1532413338236,0,2,-2,-10,14,24,2,2
1532413338241,4,3,5,13,45,13,-15,-5
1532413338246,2,-2,0,-3,-38,-18,6,1
1532413338251,1,0,0,7,36,20,2,3
1532413338256,-2,-6,-2,6,16,-1,-2,-2
1532413338261,2,-3,-4,-8,-16,-9,0,4
1532413338266,-1,-5,5,5,-6,3,1,6
1532413338271,0,-7,-13,-2,41,13,-2,-4
1532413338276,1,1,7,-5,-65,-41,1,6
1532413338281,-2,-4,-5,0,18,3,-3,-3
1532413338286,1,-2,-1,-1,2,17,3,-2
1532413338291,0,-3,-2,-6,-15,-27,-9,0
1532413338296,2,-1,-1,8,58,58,-4,4
1532413338301,-5,-3,-4,-12,-74,-54,-2,-6
1532413338306,1,2,-2,-4,-15,16,8,4
1532413338311,-1,0,3,-2,-17,-60,0,-2
1532413338316,0,2,5,6,16,40,5,5
1532413338321,-1,1,-4,-2,-2,-20,-2,-2
1532413338326,0,0,2,3,15,13,-7,1
1532413338331,1,1,3,1,3,23,6,-2
1532413338336,-2,-5,-3,-7,-32,-49,-5,-5
1532413338341,2,6,10,5,19,30,3,4
1532413338346,1,-1,0,-2,-8,-29,-7,-8
1532413338351,-2,-1,-1,-2,2,-3,-9,-3
1532413338356,2,0,0,6,14,20,-9,-2
1532413338361,-6,-9,-8,1,65,32,-7,-14
1532413338366,2,2,0,0,36,34,-7,4
1532413338371,3,4,3,7,14,33,3,13
1532413338376,-5,-3,-4,-7,-37,-47,-1,-16
1532413338381,2,-7,0,7,25,29,1,-1
1532413338386,-1,-1,1,2,-7,-24,-1,-3
1532413338391,-1,-3,-13,-4,-5,12,-7,-5
1532413338396,2,7,9,9,22,14,7,7
1532413338401,-2,0,3,1,-2,2,-8,-1
1532413338406,-2,-5,-7,-4,24,17,-4,-3
1532413338411,-6,-4,-1,-18,-87,-55,20,11
1532413338416,2,0,0,4,8,7,-14,-2
1532413338421,-2,0,-1,1,4,8,3,-1
1532413338426,-1,2,5,4,5,2,-1,2
1532413338431,2,1,4,6,20,17,0,-10
1532413338436,-3,-2,-2,-1,7,28,-7,-3
1532413338441,-3,1,3,0,2,-4,-4,-4
1532413338446,-2,-1,-3,-1,6,9,-2,-5
1532413338451,1,-3,0,2,34,14,-8,0
1532413338456,-4,-3,-3,-7,-24,-31,-1,-11
1532413338461,4,5,5,7,21,37,-3,2
1532413338466,-3,-4,-10,-11,-37,-13,-2,3
1532413338471,2,0,3,2,5,-1,-4,-5
1532413338476,-9,-8,-1,0,-5,-8,4,-12
1532413338481,0,-3,-1,1,14,9,-14,-5
1532413338486,1,2,3,-1,1,-11,2,8
1532413338491,-2,1,-3,-2,-2,3,-4,0
1532413338496,4,3,2,-2,-3,-3,-2,7
1532413338501,1,0,-1,6,7,-9,-6,-5
1532413338506,-4,-1,-9,-13,-34,-15,-9,1
1532413338511,-1,1,1,6,13,16,2,1
1532413338516,2,3,7,8,24,10,-8,1
1532413338521,-4,-5,-5,-12,-51,-36,5,3
1532413338526,0,-1,0,3,11,9,-4,1
1532413338531,2,-3,-2,2,10,11,3,-6
1532413338536,-2,-2,-5,-1,10,10,4,0
1532413338541,1,-2,-1,2,4,2,-5,1
1532413338546,-1,2,5,1,8,6,3,-7
1532413338551,-1,-1,2,1,11,7,5,0
1532413338556,1,1,-4,-8,-46,-15,-7,3
1532413338561,-1,4,0,1,8,5,-2,-4
1532413338566,2,-8,-6,-4,5,-8,-3,2
1532413338571,0,0,-1,3,-4,14,6,4
1532413338576,-1,-3,1,-5,-57,-60,4,6
1532413338581,-11,-5,-2,0,22,28,-1,-3
1532413338586,-2,-1,-3,-3,-31,-48,-7,-4
1532413338591,0,1,2,5,23,6,-4,-6
1532413338596,1,1,-3,-10,-36,-17,2,11
1532413338601,2,-1,-6,-5,0,15,-3,0
1532413338606,1,1,4,5,20,12,-2,-9
1532413338611,-6,-3,1,1,25,14,-5,-7
1532413338616,2,2,-2,1,-17,-29,-2,5
1532413338621,1,0,3,4,17,12,1,-3
1532413338626,-1,2,-1,-7,-38,10,2,5
1532413338631,0,3,-3,-4,-7,-7,-11,-4
1532413338636,-8,-5,-7,-3,18,13,-6,-17
1532413338641,7,2,4,3,13,-5,2,8
1532413338646,-6,-5,1,3,16,-1,1,-1
1532413338651,0,2,-2,-5,2,26,1,5
1532413338656,-13,-6,-4,-10,-44,-49,-7,-22
1532413338661,-6,-3,-2,1,2,5,-5,-11
1532413338666,6,6,5,3,13,8,5,12
1532413338671,-5,-3,0,1,3,7,6,3
1532413338676,9,4,0,0,12,9,-5,-11
1532413338681,-1,-1,3,-1,-11,-8,-2,4
1532413338686,0,1,-1,6,30,7,-13,-6
1532413338691,2,-3,-5,-8,-51,-42,-6,-1
1532413338696,-5,-2,-1,-3,-11,5,2,9
1532413338701,-3,-2,1,-1,2,13,2,-11
1532413338706,1,0,-4,-1,23,14,-1,0
1532413338711,-5,0,-1,-3,-24,-24,2,-5
1532413338716,-1,-5,-3,-3,-1,-9,0,-5
1532413338721,1,2,-1,-1,3,5,-8,-2
1532413338726,-2,1,1,0,-10,-1,5,1
1532413338731,-7,-11,-8,-7,-12,-4,-3,-1
1532413338736,5,6,5,7,11,7,1,15
1532413338741,-2,-2,0,-1,8,9,9,-3
1532413338746,-2,-8,-6,1,20,9,9,-6
1532413338751,0,0,-3,-16,-72,-45,-7,0
1532413338756,1,1,-1,2,26,15,2,2
1532413338761,1,-4,0,0,-7,-11,0,9
1532413338766,-2,1,2,-2,-13,0,-2,-1
1532413338771,-3,-2,0,0,12,2,-7,-17
1532413338776,0,-4,-3,-5,3,2,-2,5
1532413338781,1,3,-1,0,-5,-5,-2,-3
1532413338786,-4,-4,-1,0,-8,0,0,-2
1532413338791,2,2,-7,-4,15,-3,-2,4
1532413338796,4,8,12,7,2,-6,-9,-2
1532413338801,-3,-5,-9,-5,14,18,-6,-5
1532413338806,2,1,5,5,3,1,-6,0
1532413338811,3,1,3,4,15,13,-4,0
1532413338816,-2,-2,-3,-2,6,6,3,-2
1532413338821,-1,1,-2,0,-9,-8,-7,1
1532413338826,-4,-2,-1,-1,10,-5,-7,-1
1532413338831,1,-3,1,1,4,8,-4,-3
1532413338836,2,-1,-1,-3,-3,-5,-3,0
1532413338841,1,1,1,-2,-2,0,1,-2
1532413338846,-1,-3,-2,-2,1,-7,-4,-6
1532413338851,-2,3,1,0,-8,-6,-13,0
1532413338856,0,1,-1,3,7,35,-6,2
1532413338861,-1,1,5,4,6,-7,-4,3
1532413338866,-1,0,0,-2,-15,-11,-2,1
1532413338871,-2,0,0,2,6,-13,-1,1
1532413338876,-1,-2,-3,2,14,13,-2,3
1532413338881,0,-3,-3,2,4,22,-13,0
1532413338886,11,3,1,-3,-7,-6,2,2
1532413338891,-9,-3,1,3,6,0,4,5
1532413338896,-17,2,-1,-2,6,4,-5,-9
1532413338901,-12,-24,-6,-7,-5,-28,11,-7
1532413338906,-6,-6,-5,1,-2,4,-14,-3
1532413338911,1,-3,-1,0,-2,11,7,-5
1532413338916,1,0,-5,-10,-18,-13,15,-6
1532413338921,4,7,-1,-4,-15,-27,-10,-1
1532413338926,-10,-2,-2,0,5,5,-6,-6
1532413338931,5,0,0,-1,-5,7,-3,5
1532413338936,1,-2,-3,2,14,18,6,6
1532413338941,-1,3,1,0,6,-13,3,1
1532413338946,0,-3,0,-5,-31,-21,9,4
1532413338951,1,6,1,1,13,9,-7,-3
1532413338956,0,-1,1,4,3,3,-1,-3
1532413338961,1,4,9,7,6,11,3,-6
1532413338966,1,4,10,2,1,-8,-7,-4
1532413338971,-5,-2,-7,8,1,0,2,0
1532413338976,0,-12,-22,-26,-2,-4,2,4
1532413338981,2,1,5,0,-5,-2,1,6
1532413338986,0,2,1,4,4,11,2,1
1532413338991,-2,4,8,3,-7,-10,-4,2
1532413338996,4,0,6,15,5,3,-5,-1
1532413339001,-1,3,-2,2,1,-2,-10,-2
1532413339006,-2,0,-2,-7,-3,-1,-3,-3
1532413339011,-1,-3,5,3,6,4,-4,-5
1532413339016,0,0,-3,-6,-7,-7,-3,-4
1532413339021,-2,-2,-2,-1,-2,-3,8,-3
1532413339026,-2,-5,-6,-4,7,3,-13,-7
1532413339031,1,-1,-5,-9,-16,-9,-2,-3
1532413339036,-1,0,1,4,3,0,-2,1
1532413339041,1,-1,-2,-1,-10,-3,-4,-4
1532413339046,-1,-4,-5,0,4,1,3,-4
1532413339051,0,-3,-2,-2,1,2,2,-1
1532413339056,2,0,2,1,-5,-6,-6,-3
1532413339061,2,1,-1,-1,-1,3,-1,0
1532413339066,0,2,-1,-3,-4,-3,2,0
1532413339071,0,0,1,-1,4,1,1,-2
1532413339076,1,1,4,3,-1,-5,0,2
1532413339081,0,1,-3,-5,-2,-2,-11,-2
1532413339086,-2,0,-2,-1,0,3,-5,-1
1532413339091,0,0,0,-2,-1,-1,0,-1
1532413339096,-1,1,0,3,4,2,-8,-2
1532413339101,-1,-1,-7,-9,-6,-4,-2,1
1532413339106,1,-1,-1,2,-1,-1,3,7
1532413339111,-3,-1,0,-1,4,3,-2,9
1532413339116,1,-1,3,4,0,-3,-6,2
1532413339121,0,0,2,-2,-4,0,-2,-1
1532413339126,-1,0,-2,0,-4,-3,0,-3
1532413339131,1,-1,-2,-2,1,1,-3,-4
1532413339136,0,1,1,-3,0,2,-1,-7
1532413339141,0,2,1,1,4,0,-4,-2
1532413339146,-2,0,-1,-6,-5,-5,-5,-7
1532413339151,-1,1,1,-1,-1,1,-3,-3
1532413339156,-2,0,1,-1,0,-3,-8,-2
1532413339161,-2,-1,1,2,2,3,2,1
1532413339166,0,0,-1,3,2,0,-5,-2
1532413339171,-2,-2,-4,1,5,13,7,-1
1532413339176,-1,-2,-4,-8,-9,-22,-11,-4
1532413339181,0,1,3,6,-6,-6,2,0
1532413339186,0,-1,-3,1,2,7,1,1
1532413339191,0,-2,-2,3,28,16,-2,-5
1532413339196,-2,-4,-2,-9,-42,-18,8,-4
1532413339201,2,2,3,6,-2,-6,-4,5
1532413339206,-3,-5,-1,-5,2,0,-2,-3
1532413339211,5,5,-8,-5,-14,-12,-16,0
1532413339216,0,-1,4,2,8,-3,-2,-5
1532413339221,1,2,1,5,11,17,-8,4
1532413339226,-2,-3,1,3,11,19,-2,-11
1532413339231,-5,-7,-6,-7,-20,-39,1,15
1532413339236,2,-1,-2,-2,-3,1,-12,-16
1532413339241,-4,-3,-7,-9,-23,-14,-9,-6
1532413339246,4,4,-11,-8,0,3,4,8
1532413339251,0,-1,7,11,27,24,3,2
1532413339256,-1,2,4,7,2,-6,1,1
1532413339261,-5,-4,-2,-4,-9,-8,2,-8
1532413339266,2,3,-6,-3,-6,-9,2,4
1532413339271,-2,-4,-6,-10,4,10,0,7
1532413339276,-1,-1,3,8,17,16,4,2
1532413339281,1,-3,-4,7,55,-1,-2,-10
1532413339286,-4,-2,-5,-11,-25,-6,3,5
1532413339291,-3,-2,-7,-7,2,-2,3,-14
1532413339296,5,4,5,7,17,29,-6,20
1532413339301,1,1,2,3,34,24,-11,-6
1532413339306,-3,-5,3,5,1,-6,4,-6
1532413339311,12,7,11,20,-6,1,-4,12
1532413339316,-5,-5,-9,-4,-9,-29,-12,-5
1532413339321,-1,-3,-3,-10,-22,-24,3,-3
1532413339326,-3,-2,-3,3,8,23,-5,-1
1532413339331,-3,-1,3,-4,12,17,4,-15
1532413339336,-4,-5,-15,-11,-5,3,11,-4
1532413339341,-1,3,3,-9,-27,-20,7,11
1532413339346,0,1,5,2,-10,-10,-5,-5
1532413339351,0,-5,1,3,24,5,1,2
1532413339356,1,1,4,5,0,6,-3,-4
1532413339361,-6,-5,-10,-5,-4,-2,4,-3
1532413339366,5,3,11,5,-9,-1,3,12
1532413339371,-4,1,-2,-5,-18,-7,-7,-3
1532413339376,0,3,-1,-5,3,-17,-8,5
1532413339381,1,-4,-2,5,3,29,1,-7
1532413339386,0,-4,3,9,79,19,-8,-4
1532413339391,0,5,1,-14,-68,-7,6,16
1532413339396,0,-1,1,-1,38,44,2,-8
1532413339401,-1,1,-1,-11,-43,-24,-5,-3
1532413339406,1,0,2,12,23,3,11,4
1532413339411,-3,-7,-5,-4,3,-1,-18,-25
1532413339416,-1,0,-5,-7,-12,-10,-1,-2
1532413339421,0,-1,5,5,21,22,4,1
1532413339426,1,0,1,-2,-27,-18,3,3
1532413339431,-3,-2,-1,-2,-6,-22,-5,2
1532413339436,-2,-3,1,3,-6,-1,2,0
1532413339441,1,-3,-4,-1,-3,-3,-1,3
1532413339446,-4,-1,-7,-9,-15,-3,-17,-2
1532413339451,-3,-2,-1,-4,7,-14,-2,-4
1532413339456,4,4,11,15,18,7,3,6
1532413339461,-3,-3,-5,-4,2,7,-11,-5
1532413339466,-1,-4,-4,-10,-28,-17,-6,1
1532413339471,2,1,0,1,3,9,-1,-8
1532413339476,-3,-3,-6,-5,12,-3,3,-3
1532413339481,-2,1,5,3,1,8,6,-1
1532413339486,-1,0,-3,-5,-15,-19,-3,-3
1532413339491,-2,1,3,2,4,-2,-6,-2
1532413339496,-3,-1,-2,-5,-2,3,-3,-5
1532413339501,-2,-2,-7,-2,2,5,1,-4
1532413339506,4,6,9,12,14,6,-19,-6
1532413339511,0,1,1,0,2,-3,4,4
1532413339516,-2,-1,0,0,-7,-8,-7,-3
1532413339521,3,0,2,2,9,5,-4,3
1532413339526,-3,-3,-6,-7,-8,-4,3,2
1532413339531,1,-2,2,6,6,6,-3,6
1532413339536,0,-1,3,3,-6,-1,-1,6
1532413339541,-2,-2,-7,-12,-10,-10,-2,1
1532413339546,-1,-2,-1,1,3,2,4,2
1532413339551,0,-3,0,2,8,4,-1,-2
1532413339556,-2,-1,-4,-1,-6,4,2,1
1532413339561,1,0,4,7,15,-6,-3,2
1532413339566,-2,1,-1,-3,-2,-1,0,-3
1532413339571,0,-3,-9,-6,3,3,0,0
1532413339576,-2,-1,-2,-1,-5,-2,1,-4
1532413339581,3,2,5,7,8,5,1,3
1532413339586,0,-3,-1,-3,-2,3,-2,-7
1532413339591,-1,-1,-2,0,-4,-6,-5,-6
1532413339596,0,-3,-4,-4,3,1,0,6
1532413339601,-2,1,3,2,-1,0,2,-2
1532413339606,-3,-4,-5,-7,-4,-4,1,-10
1532413339611,-2,-2,1,3,-8,-8,-3,-3
1532413339616,0,0,-4,-1,1,-2,-15,-1
1532413339621,1,0,-3,-4,-17,-2,1,7
1532413339626,-1,-4,-1,-1,0,3,-2,-3
1532413339631,-1,0,-2,-1,23,11,2,-5
1532413339636,-4,-2,-3,-7,-28,-13,-3,-5
1532413339641,0,1,-1,-1,12,8,-8,-5
1532413339646,-2,-1,-2,-7,-20,-18,-6,-5
1532413339651,2,2,4,5,5,4,0,6
1532413339656,2,0,-1,2,2,-4,-6,0
1532413339661,-2,-2,2,-2,-1,-9,5,-1
1532413339666,0,1,-3,1,14,10,-2,-1
1532413339671,-3,-2,-2,-8,-8,11,5,-5
1532413339676,0,1,2,1,-22,-13,-5,-1
1532413339681,1,0,2,2,-3,6,6,13
1532413339686,2,2,7,10,27,29,0,-11
1532413339691,-1,-1,-5,-4,-33,-45,-7,2
1532413339696,-1,-2,-5,-10,-13,-6,1,-3
1532413339701,-3,-2,2,4,12,16,-13,-6
1532413339706,4,7,6,9,10,6,8,9
1532413339711,0,-1,3,5,34,39,4,1
1532413339716,-4,-3,-5,-13,-38,-13,1,1
1532413339721,2,0,2,5,-11,-56,3,-3
1532413339726,-5,-6,-5,-16,-67,-38,-23,-1
1532413339731,-2,0,-5,-6,-6,0,-2,-2
1532413339736,-2,-3,3,5,19,3,9,2
1532413339741,-2,-7,-10,-3,24,24,-3,-5
1532413339746,4,4,3,3,5,8,6,1
1532413339751,0,1,2,-1,-15,-45,-13,-5
1532413339756,2,-3,-15,-4,36,43,-8,0
1532413339761,-1,4,5,-7,-35,-27,-1,-7
1532413339766,-2,3,-2,1,7,2,4,4
1532413339771,-4,-8,-7,-6,1,15,-6,-1
1532413339776,3,2,14,18,33,14,13,-6
1532413339781,-3,-1,-14,-14,-52,-58,-13,0
1532413339786,-2,-2,-8,-11,11,12,-9,-1
1532413339791,1,4,7,3,-5,-13,7,-3
1532413339796,-2,-3,-1,-4,-26,-3,-8,-2
1532413339801,0,-1,-1,-3,9,6,1,-2
1532413339806,-4,-7,-4,8,20,13,-13,-7
1532413339811,0,0,-2,-8,-8,-12,-5,-5
1532413339816,-2,1,2,2,20,20,-4,-9
1532413339821,2,0,1,4,5,8,-5,2
1532413339826,-3,1,1,-3,-11,-22,10,4
1532413339831,1,1,1,7,17,29,-4,0
1532413339836,-1,-3,0,-5,14,-3,3,-5
1532413339841,-1,1,7,4,-39,-44,-5,5
1532413339846,-1,-3,-3,-4,7,10,-11,-4
1532413339851,-1,2,-6,-6,-21,-4,4,6
1532413339856,-1,4,2,2,8,-14,0,-3
1532413339861,1,0,-2,-4,-11,8,5,0
1532413339866,-4,-5,0,-4,23,5,-6,-18
1532413339871,4,4,-1,6,-9,-2,7,8
1532413339876,-1,-4,-4,1,45,12,-13,-10
1532413339881,2,2,-6,7,2,39,3,3
1532413339886,-5,-4,-5,-8,-25,-30,1,-6
1532413339891,1,0,8,1,1,0,0,6
1532413339896,-4,-3,-4,-1,11,10,2,-5
1532413339901,-2,-4,-2,-3,25,41,-2,-6
1532413339906,2,0,-2,-9,-60,-58,2,19
1532413339911,0,0,-1,3,18,18,-11,-11
1532413339916,-1,0,-11,-19,-44,-27,-5,14
1532413339921,-6,-1,-1,-5,15,8,-7,-7
1532413339926,3,4,7,12,14,0,7,1
1532413339931,0,-5,-3,-7,-29,-3,16,30
1532413339936,-2,-1,-2,4,-9,-14,-17,-36
1532413339941,0,1,4,2,21,19,-2,2
1532413339946,2,2,-1,-5,-33,-48,-9,-5
1532413339951,-4,-4,-15,-16,2,14,-5,11
1532413339956,0,-1,0,-4,1,-2,3,5
1532413339961,5,9,15,20,8,15,4,-8
1532413339966,-4,-4,0,1,-22,-29,1,-2
1532413339971,-2,-4,-1,-3,3,2,-18,-17
1532413339976,3,2,5,3,-27,-24,10,18
1532413339981,-6,-5,-8,-6,20,-2,-15,-12
1532413339986,3,-1,-13,-8,16,26,-4,15
1532413339991,-6,-3,4,2,-7,-18,8,-10
1532413339996,-1,2,0,0,9,18,-9,-3
1532413340001,2,3,-1,-2,-4,-18,-28,-6
1532413340006,-1,-2,2,4,13,23,6,-7
1532413340011,-2,-2,-2,-4,5,9,-12,-12
1532413340016,4,3,7,8,0,-5,12,0
1532413340021,-8,-12,-9,-9,-17,-8,30,-10
1532413340026,5,13,14,14,16,16,-52,11
1532413340031,2,-10,-1,2,25,8,-51,8
1532413340036,-8,-6,1,-2,-8,-7,-4,11
1532413340041,1,-3,-2,-4,-11,-9,5,15
1532413340046,-11,-10,-18,-14,-1,5,47,-15
1532413340051,12,11,8,7,15,15,7,7
1532413340056,0,-2,-3,-6,-10,-1,27,7
1532413340061,-2,1,0,0,1,-6,-14,9
1532413340066,-5,-5,5,7,14,10,31,1
1532413340071,7,8,10,14,15,12,-12,8
1532413340076,-5,-9,-12,-14,-12,-2,1,8
1532413340081,-4,-2,7,0,-6,0,33,21
1532413340086,9,6,4,11,33,22,15,43
1532413340091,-10,-3,-3,0,-12,-13,27,8
1532413340096,3,0,0,6,22,14,-7,8
1532413340101,-4,-1,2,-15,-22,-18,9,-14
1532413340106,-1,-9,-13,-11,-15,3,-17,-30
1532413340111,-8,-2,-1,-3,-17,-21,-8,-28
1532413340116,7,17,13,18,12,8,-5,-11
1532413340121,1,-17,-23,-22,1,-9,-30,-20
1532413340126,-2,-12,-47,-37,1,9,-23,-3
1532413340131,-5,4,3,-6,-2,-3,1,-14
1532413340136,-2,5,1,-7,-15,0,-14,-6
1532413340141,10,10,20,20,11,0,-16,12
1532413340146,-1,4,14,12,1,5,-6,-18
1532413340151,4,-9,-16,-12,-13,-7,2,0
1532413340156,-16,0,8,6,-6,-20,-14,-1
1532413340161,36,24,8,27,54,48,-9,27
1532413340166,-4,-3,0,-4,-3,6,-4,-12
1532413340171,-3,-3,-1,5,1,-12,-10,-1
1532413340176,-5,-8,-7,-11,-16,1,-10,-10
1532413340181,-7,-4,-3,-7,-9,-3,-3,-14
1532413340186,1,-1,4,7,-1,-19,-11,8
1532413340191,1,2,-2,5,16,28,1,-3
1532413340196,7,-4,4,-4,-10,-13,-11,5
1532413340201,-11,-9,-7,-1,5,23,-5,-4
1532413340206,2,6,14,8,-4,-9,-8,9
1532413340211,-4,-3,2,2,-9,-15,-1,-16
1532413340216,3,-4,-9,0,5,11,0,-9
1532413340221,-6,-4,-5,-3,-9,-22,-5,-12
1532413340226,-2,1,8,6,4,26,-2,17
1532413340231,-3,-2,-7,-2,8,4,1,-14
1532413340236,3,1,6,7,-4,-12,0,-10
1532413340241,-5,6,-7,-9,-17,-11,-5,-17
1532413340246,-3,-5,-3,-3,-13,-22,-5,1
1532413340251,-7,1,-1,-2,-1,6,1,2
1532413340256,0,-9,-6,-5,9,26,-7,-1
1532413340261,-6,-17,-3,-6,-9,4,-6,13
1532413340266,9,10,5,16,15,-28,-7,12
1532413340271,-12,-5,-5,-5,1,18,-2,0
1532413340276,-1,5,-1,-3,5,7,-4,-9
1532413340281,0,8,13,3,-12,-12,-3,10
1532413340286,-1,5,-6,-11,1,28,-2,-2
1532413340291,0,-12,1,-2,-2,-3,-6,-14
1532413340296,16,27,4,5,3,-2,4,7
1532413340301,-17,-24,-1,1,-2,-11,-6,-8
1532413340306,14,2,-1,0,1,9,-4,12
1532413340311,3,1,-4,-1,2,-7,-7,15
1532413340316,-8,-8,-5,-8,-18,-12,-2,-7
1532413340321,-4,1,-5,-8,0,22,0,1
1532413340326,9,8,0,8,5,2,3,-11
1532413340331,-7,-10,-10,-13,-7,1,-2,-9
1532413340336,0,-1,11,4,-5,1,-5,-4
1532413340341,2,3,-7,-5,-6,-15,1,-2
1532413340346,-11,-12,-3,-1,-3,10,-6,9
1532413340351,4,6,1,6,-10,-34,-2,-4
1532413340356,-2,-1,2,1,25,8,-3,-6
1532413340361,-2,0,-4,-16,-55,-27,0,-9
1532413340366,-9,-8,-6,-12,-10,7,2,-6
1532413340371,8,2,3,8,26,33,-1,16
1532413340376,-10,-9,-14,-14,-23,-44,-2,-4
1532413340381,5,6,1,2,8,26,-3,-8
1532413340386,6,3,-1,0,15,3,2,4
1532413340391,-5,-4,-3,-6,-29,-23,-6,-7
1532413340396,4,1,4,8,9,-14,-4,-10
1532413340401,3,2,2,5,24,62,-1,7
1532413340406,-11,-9,-4,-11,-27,-38,-2,-11
1532413340411,1,1,-1,2,35,34,-4,-17
1532413340416,-5,-9,-1,2,-1,-2,-2,23
1532413340421,2,-2,9,17,37,9,2,-16
1532413340426,-8,-7,-14,-28,-89,-86,-2,-5
1532413340431,4,5,4,6,20,19,2,7
1532413340436,2,9,6,-6,12,-13,-4,-1
1532413340441,7,20,7,11,81,78,-3,5
1532413340446,9,9,8,0,-38,-44,-6,-6
1532413340451,-2,-8,-12,-16,45,13,-2,16
1532413340456,4,2,6,11,29,-5,-2,-1
1532413340461,-5,-10,-9,-14,-38,-18,-3,1
1532413340466,-4,1,-3,10,59,52,-3,-8
1532413340471,-2,-8,-3,-6,-45,-39,-5,-8
1532413340476,3,0,-2,8,2,23,-8,-6
1532413340481,0,0,7,8,-1,-35,-17,-5
1532413340486,0,-3,-1,-2,-7,5,-6,1
1532413340491,-7,-3,4,3,-7,8,-2,-3
1532413340496,-4,-4,-1,3,24,23,-100,2
1532413340501,-5,1,-8,-16,-43,-52,-21,1
1532413340506,1,-2,1,3,-12,-7,5,1
1532413340511,1,5,3,8,63,49,44,2
1532413340516,-4,-3,-14,-27,-89,-60,69,-3
1532413340521,3,-1,-2,4,0,-19,3,4
1532413340526,-1,2,-15,-10,16,7,29,-3
1532413340531,6,9,17,20,4,9,-12,6
1532413340536,-2,-4,1,-3,6,29,52,-9
1532413340541,2,1,1,1,2,-20,-17,3
1532413340546,0,3,8,12,28,37,26,5
1532413340551,-1,-1,-4,-5,-27,-56,-45,-10
1532413340556,-3,-2,-2,8,20,42,-20,-2
1532413340561,-10,-12,-19,-25,-14,-16,32,2
1532413340566,9,4,10,10,32,30,7,4
1532413340571,-4,-3,-4,-5,-8,-12,4,2
1532413340576,-2,-3,5,0,-5,-7,5,-3
1532413340581,-2,1,3,5,6,7,75,-11
1532413340586,-6,-4,1,-6,-3,-9,49,-7
1532413340591,2,1,-7,0,-15,-7,40,2
1532413340596,-3,-7,-13,-18,1,6,8,-6
1532413340601,7,6,14,29,63,11,-42,-2
1532413340606,-7,-6,-9,-12,-33,-12,-53,14
1532413340611,-3,-1,6,-3,-7,-14,-25,-9
1532413340616,1,4,-2,3,8,15,-40,3
1532413340621,3,0,-2,1,15,17,-37,1
1532413340626,1,-1,5,4,20,13,-35,2
1532413340631,-5,-3,-3,-1,-21,-4,-23,4
1532413340636,0,0,0,2,7,6,-12,-1
1532413340641,-1,2,-5,-9,-28,-15,-4,3
1532413340646,0,1,3,3,8,3,-14,-4
1532413340651,2,-1,-1,-6,-6,-3,-9,4
1532413340656,-2,1,2,6,3,0,4,-11
1532413340661,-4,-2,6,-1,-2,5,0,4
1532413340666,-1,0,-3,2,-6,-5,-19,-5
1532413340671,-2,-6,-3,3,1,-6,-2,-2
1532413340676,7,9,15,13,30,26,4,20
1532413340681,-5,-4,-28,-25,-9,-23,-6,-8
1532413340686,-6,-5,-5,-7,0,11,-13,-10
1532413340691,2,0,6,14,8,-13,1,-3
1532413340696,-7,-7,2,0,-24,5,3,-8
1532413340701,1,-3,-5,4,8,3,-4,2
1532413340706,3,1,10,9,22,11,-6,8
1532413340711,-4,-3,-13,-16,-3,4,2,-11
1532413340716,-3,1,2,8,9,-1,-6,-6
1532413340721,9,1,-1,-1,-9,-3,-6,-4
1532413340726,-3,-5,5,-10,-19,-21,-5,-13
1532413340731,-3,5,-3,12,22,20,-4,8
1532413340736,-1,-2,-6,-1,-3,-12,0,5
1532413340741,-5,-5,1,-4,-15,3,0,-4
1532413340746,4,-5,-1,8,16,9,-4,7
1532413340751,4,15,17,2,-4,-3,-6,-5
1532413340756,-2,-1,1,-12,-13,-9,-8,-5
1532413340761,-2,-7,-11,4,7,2,-6,-10
1532413340766,-8,-8,-9,0,-7,-7,-6,-11
1532413340771,3,14,11,-4,-7,-5,1,14
1532413340776,10,6,7,3,-7,-21,3,2
1532413340781,-3,1,8,-7,-11,-2,1,-4
1532413340786,0,-2,-7,4,13,1,1,-1
1532413340791,-10,-16,-20,-16,-16,-10,1,-6
1532413340796,-3,-1,-1,-3,-1,-3,-8,-4
1532413340801,-3,-4,-2,-1,-2,6,-4,-1
1532413340806,-5,-4,-5,-5,1,3,-3,-6
1532413340811,1,0,4,2,-13,-16,2,-2
1532413340816,6,3,1,5,22,12,-1,12
1532413340821,1,-2,4,4,-2,-1,-3,-3
1532413340826,1,1,-7,-2,2,1,1,11
1532413340831,1,-4,2,3,26,29,1,0
1532413340836,-3,-5,-8,-3,9,8,1,-6
1532413340841,-6,1,2,-7,-73,-51,-2,2
1532413340846,2,5,4,-3,-10,-3,-4,-1
1532413340851,-1,-2,-7,-11,-13,-12,-8,-12
1532413340856,1,-1,-4,2,17,21,-3,7
1532413340861,2,1,8,8,21,10,-3,-3
1532413340866,6,1,0,6,-4,-8,-5,3
1532413340871,-2,4,6,6,1,4,-5,3
1532413340876,-9,-3,-2,-6,-18,-11,-1,-14
1532413340881,-2,2,-1,-3,4,1,-3,-4
1532413340886,1,3,3,-2,-3,-4,-7,-2
1532413340891,-2,-10,-10,-11,2,6,-6,-8
1532413340896,-1,-5,-10,4,10,13,-6,2
1532413340901,-3,-1,3,-4,-16,-24,-2,10
1532413340906,1,0,1,2,12,9,-1,-2
1532413340911,0,-5,0,0,14,3,-4,2
1532413340916,-2,-3,-1,-11,-39,-20,-3,0
1532413340921,0,-2,-4,0,12,14,-4,-4
1532413340926,-5,-1,-2,-5,-3,-4,-4,-4
1532413340931,2,4,-1,1,0,7,-5,1
1532413340936,4,1,3,3,19,-2,-2,3
1532413340941,-2,1,0,3,-11,-9,-6,-3
1532413340946,-2,2,2,-2,5,8,-5,2
1532413340951,0,-2,0,-3,-4,6,-4,-1
1532413340956,-3,-3,-7,-2,3,-6,-3,-4
1532413340961,4,5,12,9,4,6,-1,9
1532413340966,-3,-3,-4,-5,2,-9,-3,-1
1532413340971,-2,-7,-7,-7,-11,3,-6,-1
1532413340976,0,0,2,1,-9,-9,-4,-1
1532413340981,-4,0,-2,-2,7,8,-5,-6
1532413340986,0,-1,-1,3,7,11,-4,-1
1532413340991,0,-4,-3,-3,25,16,-4,-3
1532413340996,-1,0,3,0,-16,-16,-3,1
1532413341001,1,0,-4,-5,-34,-22,1,3
1532413341006,3,3,5,7,14,12,-3,0
1532413341011,0,-1,-3,-4,-20,-19,-7,2
1532413341016,-4,-3,-2,-9,-12,-2,-6,-10
1532413341021,1,0,0,2,14,15,-6,-5
1532413341026,-2,-2,-1,-3,-5,-5,-4,-7
1532413341031,-1,-1,1,6,-9,-7,-4,1
1532413341036,-1,-1,0,0,7,0,-2,-4
1532413341041,2,1,1,4,19,9,-2,9
1532413341046,-2,-1,-1,-6,-27,-14,-4,-3
1532413341051,-3,-2,-3,0,5,5,-3,5
1532413341056,3,2,6,9,6,5,-2,4
1532413341061,-1,-4,-4,-5,17,9,-2,-3
1532413341066,2,4,5,7,6,3,-4,4
1532413341071,1,-2,-5,-2,0,-10,-1,-1
1532413341076,-1,3,4,4,3,5,-5,0
1532413341081,-2,-2,-1,-3,-6,-2,-3,-2
1532413341086,0,-1,-6,-4,-5,-4,-3,1
1532413341091,-1,-2,0,-5,-5,3,-3,-8
1532413341096,-3,-3,-6,0,24,19,-2,-7
1532413341101,-1,1,2,-1,-28,-27,-1,-8
1532413341106,1,-1,1,4,12,12,-5,3
1532413341111,1,0,2,-1,-5,-11,-5,-1
1532413341116,-2,-4,-13,-11,-13,-8,-3,-3
1532413341121,-2,-3,1,3,17,14,-3,1
1532413341126,-2,0,-2,2,5,-5,-1,-3
1532413341131,1,3,7,8,1,8,-4,0
1532413341136,-3,-1,-1,-6,-12,-6,-3,-1
1532413341141,-2,-3,-6,-2,10,-1,-2,-3
1532413341146,2,-1,1,-1,-6,-4,-1,3
1532413341151,-1,1,2,3,1,-15,-4,-4
1532413341156,-2,-2,-2,-8,-14,-9,-4,-4
1532413341161,0,-2,-5,-5,12,11,-3,1
1532413341166,-1,0,3,9,15,9,-3,-1
1532413341171,-3,-2,-3,-11,-44,-43,-2,-4
1532413341176,-3,-5,-5,-7,0,19,-1,3
1532413341181,3,4,4,6,4,-1,-5,4
1532413341186,-7,-6,-1,-8,-6,-3,-2,-12
1532413341191,1,-2,-3,2,32,29,0,-6
1532413341196,-3,-1,1,1,-29,-36,-3,7
1532413341201,2,-1,-4,-6,-11,-4,-7,-6
1532413341206,-4,-3,-4,-3,3,-1,-4,-6
1532413341211,-2,0,0,2,-4,-3,-5,-1
1532413341216,-2,-3,-1,0,17,17,-3,-3
1532413341221,-3,-1,0,-5,-2,-2,-2,-3
1532413341226,0,0,-1,-2,-21,-11,-4,-1
1532413341231,1,-3,-6,-1,7,7,-4,3
1532413341236,0,2,4,3,0,4,2,3
1532413341241,-3,-2,-2,-3,-5,-8,-7,-6
1532413341246,0,-1,-1,0,-6,-5,-5,-2
1532413341251,-1,-1,-1,-1,2,2,-2,2
1532413341256,-1,-1,-3,0,-3,-10,-6,-4
1532413341261,1,-3,0,0,6,6,-1,2
1532413341266,0,-2,-2,-4,-15,-11,-2,-4
1532413341271,0,1,3,3,12,12,-3,3
1532413341276,2,2,2,5,9,-5,-6,0
1532413341281,-1,0,0,0,6,4,-1,4
1532413341286,0,-2,-3,-1,11,14,-4,0
1532413341291,0,2,2,2,-7,-20,-1,-2
1532413341296,2,-2,-3,-6,-14,0,-2,2
1532413341301,0,2,1,2,2,-1,-5,-3
1532413341306,-2,-3,-3,-6,-9,-6,-5,0
1532413341311,0,-1,-1,-2,-2,1,-3,-3
1532413341316,3,1,2,2,2,1,-5,3
1532413341321,-1,-1,-5,-4,0,7,-3,7
1532413341326,-3,-3,-4,0,14,-2,0,-6
1532413341331,-3,-1,-2,-8,-35,-13,-8,-7
1532413341336,0,2,-2,2,-2,-5,-3,-4
1532413341341,1,-1,2,4,11,10,-3,5
1532413341346,-2,0,1,6,16,5,-4,-3
1532413341351,-2,-3,-3,-4,-9,-3,-1,-3
1532413341356,0,-2,-1,-4,12,6,-3,1
1532413341361,-2,0,0,2,-5,-6,-5,-3
1532413341366,-2,-2,-2,-6,-21,-16,-1,8
1532413341371,-1,-1,0,-2,-5,1,-2,-8
1532413341376,1,0,0,5,32,18,-6,-14
1532413341381,0,-2,-4,-11,-53,-30,-3,1
1532413341386,-1,-1,-1,-1,-1,7,-3,1
1532413341391,1,-1,1,3,10,3,-1,4
1532413341396,0,-2,2,1,16,1,-8,-4
1532413341401,0,-1,-3,-5,-9,3,-5,2
1532413341406,-1,-1,-2,1,7,6,-5,0
1532413341411,3,-2,4,-1,-9,-2,-3,7
1532413341416,-3,-5,-9,-5,0,1,-2,-3
1532413341421,1,0,3,4,15,-1,-7,-4
1532413341426,1,2,1,0,-21,-13,-5,1
1532413341431,0,1,0,2,26,14,-6,1
1532413341436,-3,-3,-1,-5,-27,-12,-5,-2
1532413341441,-1,-1,-1,0,8,3,-12,0
1532413341446,0,-3,-3,7,30,19,-4,-3
1532413341451,-2,-1,-2,-6,-31,-19,-2,-1
1532413341456,4,1,4,3,-2,-13,7,6
1532413341461,-4,-2,-1,0,4,7,16,-2
1532413341466,-1,-1,0,-1,4,2,2,-2
1532413341471,-3,-1,-3,-1,6,1,-1,-5
1532413341476,-2,-2,-1,-2,3,6,-4,2
1532413341481,1,2,2,7,53,63,-4,6
1532413341486,1,-1,1,-14,-68,-66,-2,11
1532413341491,-3,-2,-4,-4,-20,-3,-8,-9
1532413341496,1,2,-1,3,7,10,-7,6
1532413341501,-2,-2,-3,-3,-16,-26,-8,-12
1532413341506,0,-2,-2,-2,15,16,-18,-3
1532413341511,-1,0,0,3,14,7,-31,1
1532413341516,-2,1,1,-1,-12,-8,-116,9
1532413341521,0,2,0,0,-5,-8,-40,-1
1532413341526,0,1,3,4,18,17,22,-5
1532413341531,-1,0,1,4,3,-4,58,-2
1532413341536,1,-2,-2,0,-6,-1,79,-7
1532413341541,-1,-3,-2,1,2,-3,50,-6
1532413341546,2,1,2,0,1,2,30,5
1532413341551,0,-2,-3,-6,-7,-2,36,11
1532413341556,-4,-1,-6,-5,-4,0,26,-9
1532413341561,-3,-3,-2,-1,-2,-5,1,-6
1532413341566,0,2,-2,-6,-6,-2,12,1
1532413341571,-2,-1,2,4,23,17,-2,4
1532413341576,0,-1,-2,-7,-33,-26,14,-1
1532413341581,-3,-2,-2,-2,-8,-14,13,-2
1532413341586,1,0,-3,1,10,11,-5,-11
1532413341591,0,-1,-1,0,5,4,-7,-2
1532413341596,-3,-2,-2,-6,14,-6,0,-4
1532413341601,3,5,5,5,-1,10,-1,12
1532413341606,-4,1,1,1,-6,-4,-11,4
1532413341611,2,-1,1,5,8,-2,-4,7
1532413341616,2,1,4,4,17,16,11,-6
1532413341621,-7,-6,-5,-4,-1,-8,-11,-19
1532413341626,2,2,4,8,13,8,3,11
1532413341631,0,0,-1,-1,-6,-2,3,0
1532413341636,2,3,-1,1,-2,2,-18,13
1532413341641,-1,-1,0,0,0,-5,-7,1
1532413341646,2,-1,-1,-2,5,6,-4,8
1532413341651,0,-1,2,0,-3,-6,-5,-6
1532413341656,-3,-3,-8,-5,-10,-5,9,-8
1532413341661,3,0,5,3,3,6,12,1
1532413341666,-1,1,1,2,-5,-6,-6,-4
1532413341671,0,0,0,-3,-1,3,-5,5
1532413341676,1,-2,1,1,-2,-10,5,2
1532413341681,-2,-1,-4,-4,4,6,1,-7
1532413341686,-3,-5,-5,-6,-6,-1,-1,-14
1532413341691,4,2,4,5,5,0,-5,-7
1532413341696,-5,-3,1,-2,-9,-2,23,-6
1532413341701,1,0,0,2,4,-2,-20,-3
1532413341706,4,1,2,1,7,10,1,7
1532413341711,-4,-2,-3,-8,-13,-14,-9,-9
1532413341716,0,-2,-6,-7,0,8,7,9
1532413341721,-8,-4,1,-3,-13,-16,5,-12
1532413341726,1,-1,0,0,-1,-5,-35,5
1532413341731,2,1,-2,1,4,2,-7,16
1532413341736,-1,-1,5,6,25,15,4,-24
1532413341741,0,-2,-7,-10,-47,-37,5,1
1532413341746,-4,-4,-3,-3,0,2,-5,-7
1532413341751,-3,-1,-3,-3,1,1,3,-3
1532413341756,1,2,4,8,9,7,-6,4
1532413341761,1,-1,1,-2,1,2,-1,-2
1532413341766,-2,-1,2,6,31,0,11,-13
1532413341771,-3,-3,-7,-4,-18,-1,-18,-5
1532413341776,-2,-4,-2,-6,-21,-18,0,-8
1532413341781,0,0,-2,-3,1,1,-4,1
1532413341786,3,2,0,4,11,16,18,3
1532413341791,-2,-2,-1,-2,4,-1,2,-9
1532413341796,-3,0,-3,-3,-10,-5,-17,7
1532413341801,3,0,4,5,12,11,-4,3
1532413341806,0,-4,-2,-4,-21,-13,-7,3
1532413341811,-1,0,-1,2,6,7,-16,-18
1532413341816,1,1,1,2,-3,-6,-23,-13
1532413341821,-1,0,-1,-1,0,9,3,-12
1532413341826,0,4,1,3,1,2,-5,-18
1532413341831,0,-1,1,-2,-6,-3,-11,-8
1532413341836,2,2,5,5,15,10,-3,-7
1532413341841,2,-1,-1,1,11,6,-3,-13
1532413341846,-2,-3,-4,-9,-23,-22,-22,3
1532413341851,-2,-3,-1,-1,5,7,-2,2
1532413341856,-3,-2,-4,-6,-6,-1,-5,2
1532413341861,-2,-1,-3,-5,-6,-6,-5,10
1532413341866,-3,-3,-1,-1,1,9,16,8
1532413341871,-1,0,0,0,6,-2,4,8
1532413341876,-3,-3,-3,-3,-4,-2,-8,6
1532413341881,-4,-3,-2,-2,-4,-4,-10,-10
1532413341886,-4,-1,-1,-5,-14,-13,3,6
1532413341891,-2,-1,1,3,4,4,2,2
1532413341896,1,2,0,-2,-5,-5,0,2
1532413341901,3,1,0,2,9,8,5,10
1532413341906,-1,-1,3,2,7,6,0,-18
1532413341911,2,1,2,1,-8,-5,5,-12
1532413341916,0,2,2,3,1,-4,-6,-24
1532413341921,0,-1,-1,-1,-3,-6,-6,-4
1532413341926,0,-1,-3,-8,-5,1,-1,15
1532413341931,0,0,-4,-4,-7,-7,2,16
1532413341936,2,1,1,4,9,8,-8,22
1532413341941,-1,0,1,-3,0,-5,-15,5
1532413341946,0,-3,-2,1,-1,-1,6,1
1532413341951,-3,-4,-5,-8,-9,-3,-8,-3
1532413341956,0,-1,0,-2,-1,3,5,3
1532413341961,-2,-1,-2,-1,-12,-13,10,4
1532413341966,2,2,1,5,7,6,-22,-15
1532413341971,-1,1,0,-1,0,-5,-6,-7
1532413341976,-2,-4,-2,-7,-10,-4,4,-10
1532413341981,3,0,0,2,5,9,5,1
1532413341986,0,-1,-3,-4,-6,-10,-2,7
1532413341991,-4,-1,-2,-1,-9,-10,-5,0
1532413341996,0,0,1,3,1,4,-3,7
1532413342001,0,0,-3,-2,0,4,4,16
1532413342006,-3,-4,-3,-5,-6,0,-3,4
1532413342011,-1,2,2,3,8,5,-7,9
1532413342016,-3,-1,0,-2,-6,-3,4,11
1532413342021,-2,-3,0,0,6,3,-2,-2
1532413342026,-3,0,-1,0,0,-1,-3,-7
1532413342031,2,0,-1,-3,-4,-1,1,-12
1532413342036,1,0,-3,-2,0,1,-2,-9
1532413342041,-1,-3,-5,-3,-4,1,-2,-7
1532413342046,0,-1,2,3,0,-5,5,-2
1532413342051,2,0,2,2,4,7,-3,-5
1532413342056,0,1,1,4,-1,-3,-4,0
1532413342061,1,1,0,-1,1,-2,-4,-9
1532413342066,-2,-1,-5,-4,-2,-1,5,0
1532413342071,-5,-3,-1,-2,-4,-6,-4,0
1532413342076,-3,-3,-1,-3,-1,-2,0,4
1532413342081,0,2,0,-4,-10,-6,6,5
1532413342086,2,-1,1,0,1,2,-2,2
1532413342091,1,0,0,0,2,-1,3,4
1532413342096,-1,-2,-2,1,1,0,-4,0
1532413342101,0,0,0,4,1,-2,-5,-3
1532413342106,-1,0,-1,-1,0,-1,-3,-7
1532413342111,-1,-2,-4,-2,-1,1,-1,1
1532413342116,-2,-3,-2,-2,-4,-4,2,-5
1532413342121,-2,-4,0,-1,2,0,-8,-105
1532413342126,-2,-3,-1,-1,-1,0,-3,-98
1532413342131,1,-1,1,3,-1,-4,3,-26
1532413342136,-1,-2,0,1,0,-3,-3,19
1532413342141,0,0,-2,0,-2,-2,-8,83
1532413342146,0,3,3,-2,-5,1,-12,75
1532413342151,0,-2,-4,-3,-1,-2,-8,38
1532413342156,-1,-2,-2,-1,-3,-6,-16,50
1532413342161,2,0,1,4,7,7,-6,41
1532413342166,0,0,-1,0,-3,-3,-8,37
1532413342171,0,-1,0,-2,-1,-1,-8,24
1532413342176,0,1,0,-2,-3,-2,4,-3
1532413342181,-2,0,0,2,2,1,0,9
1532413342186,-2,1,0,3,1,0,1,9
1532413342191,2,2,0,-3,1,2,13,9
1532413342196,2,-2,-1,1,2,-1,-4,-14
1532413342201,-4,0,1,-4,-4,-4,7,-4
1532413342206,1,-2,2,0,2,1,4,1
1532413342211,1,-3,-3,0,0,0,-5,-5
1532413342216,0,2,0,-1,-1,-3,6,-5
1532413342221,-10,2,0,0,0,4,3,10
1532413342226,0,-4,-3,-4,-5,-5,-1,4
1532413342231,-6,-5,0,-1,0,0,0,-8
1532413342236,4,10,3,-3,-2,2,4,-7
1532413342241,-4,-6,-3,2,-1,-3,-1,-6
1532413342246,-19,-10,-3,4,6,1,-5,-1
1532413342251,23,4,-1,-2,-2,-9,-7,5
1532413342256,3,-3,-1,-3,0,15,4,3
1532413342261,14,11,2,1,-2,-7,1,5
1532413342266,-10,-4,5,3,4,7,-1,-2
1532413342271,-12,-1,-5,-9,0,2,5,-5
1532413342276,0,0,0,-3,-6,-14,-8,7
1532413342281,13,0,2,3,-1,-11,-5,-5
1532413342286,6,2,-6,-5,-8,-6,3,-3
1532413342291,3,-4,3,9,15,21,7,6
1532413342296,-6,4,0,3,9,8,-5,-6
1532413342301,-15,7,2,0,1,7,5,0
1532413342306,21,-13,-2,-5,-8,-23,-8,2
1532413342311,-9,9,2,-6,-6,-7,1,-3
1532413342316,7,-8,-3,0,4,10,8,-3
1532413342321,1,-5,-2,4,-6,-22,-6,-3
1532413342326,0,7,4,2,5,30,5,-5
1532413342331,-3,-1,-1,0,-3,-10,-1,-5
1532413342336,3,-2,2,1,-3,-6,-1,-6
1532413342341,-2,-3,-6,-11,-11,-12,-11,-5
1532413342346,4,2,-7,-2,3,2,-2,6
1532413342351,-5,-10,-5,-1,0,4,-2,-6
1532413342356,-5,2,11,5,-7,-14,6,-1
1532413342361,0,-3,2,2,15,30,1,10
1532413342366,-3,2,3,5,3,-1,0,-4
1532413342371,2,0,0,3,0,2,-3,-3
1532413342376,-1,-5,-10,-5,-3,-12,-1,-9
1532413342381,6,8,-3,-12,-8,-7,-15,-9
1532413342386,-14,-9,-3,-2,-1,3,3,-7
1532413342391,-1,3,3,5,2,3,-1,-2
1532413342396,-5,-5,3,-1,-3,-1,6,-2
1532413342401,3,-5,-4,-1,2,8,0,-4
1532413342406,6,5,-3,-4,-3,-13,-10,-3
1532413342411,3,1,10,8,6,15,5,-2
1532413342416,-1,0,-4,-3,-7,-34,-20,-3
1532413342421,-13,-9,6,25,17,49,7,0
1532413342426,-1,0,-38,-42,-5,-12,-5,2
1532413342431,-8,-11,-3,-5,-9,-12,-5,1
1532413342436,28,6,5,6,4,13,1,-2
1532413342441,0,-5,2,-4,-5,-14,-1,0
1532413342446,8,8,5,9,-2,-4,-2,-8
1532413342451,-20,-14,2,-2,-3,3,4,-5
1532413342456,-31,-1,-7,-7,0,1,-12,-6
1532413342461,2,1,2,-2,-8,-14,-1,0
1532413342466,-2,0,5,6,3,5,0,-4
1532413342471,5,5,7,-10,-3,-3,1,-4
1532413342476,-2,-7,-12,3,2,10,-3,9
1532413342481,-1,-2,-3,-4,3,0,3,-1
1532413342486,2,0,7,7,3,-3,0,15
1532413342491,1,2,-8,-7,-6,-4,-3,-1
1532413342496,1,1,4,1,3,5,-2,-3
1532413342501,-20,-13,-8,-8,4,17,12,8
1532413342506,2,0,5,0,-9,-12,-27,-9
1532413342511,-3,9,8,13,-4,-20,-17,15
1532413342516,-2,-4,-14,-17,-2,9,2,12
1532413342521,-2,5,-3,-7,0,-9,-7,15
1532413342526,-9,-6,9,8,4,16,16,10
1532413342531,0,-1,-9,-5,1,5,9,81
1532413342536,-6,0,0,2,-5,-15,0,98
1532413342541,7,0,7,5,-2,0,15,-24
1532413342546,-2,-2,-7,-4,-6,-10,-1,-91
1532413342551,1,-1,-8,-8,-1,5,-2,-128
1532413342556,1,-1,2,3,4,5,1,-128
1532413342561,3,1,5,7,0,-6,-15,-115
1532413342566,1,5,14,11,5,13,-9,-111
1532413342571,-1,-4,-5,-4,-1,-9,-14,-97
1532413342576,0,-3,-2,-6,-4,3,-5,-74
1532413342581,-1,-7,-2,6,-3,-11,-12,-27
1532413342586,0,10,-15,-12,-4,0,-4,-8
1532413342591,-3,-4,1,7,0,-1,-6,-9
1532413342596,-1,-7,0,2,-2,-1,1,-8
1532413342601,1,2,-6,-5,-5,-5,-5,-10
1532413342606,-1,-8,9,12,6,7,-2,20
1532413342611,0,-2,-4,-2,3,5,-5,5
1532413342616,-8,0,1,0,-3,-1,-9,-25
1532413342621,7,5,-2,-3,0,0,6,38
1532413342626,-6,-3,-3,-4,-1,-3,-1,23
1532413342631,3,8,2,0,-3,-7,1,28
1532413342636,0,-9,2,-2,1,7,1,7
1532413342641,-3,12,-5,-9,-3,-4,-14,7
1532413342646,-3,-14,8,-2,-7,-10,8,21
1532413342651,5,2,-6,8,4,5,-2,7
1532413342656,0,1,-10,-11,0,1,-3,-8
1532413342661,1,0,9,6,0,-5,-4,14
1532413342666,1,6,-5,0,3,0,1,16
1532413342671,0,-1,0,-6,-3,-3,2,0
1532413342676,-1,1,0,0,1,1,4,17
1532413342681,1,-2,-5,-7,-3,-1,-6,12
1532413342686,0,3,16,15,3,3,-6,17
1532413342691,0,-3,-1,4,1,0,-4,3
1532413342696,3,2,-2,-8,-1,-2,2,-17
1532413342701,2,-2,2,1,0,-1,-1,-30
1532413342706,-4,-4,-6,-5,-4,-1,1,-27
1532413342711,-4,1,2,3,-2,-1,-3,-24
1532413342716,-2,2,4,-1,-3,-12,0,-12
1532413342721,-3,-1,-5,-1,2,6,0,-14
1532413342726,-2,1,-1,-2,-8,-17,1,-3
1532413342731,2,3,13,13,10,37,-12,-2
1532413342736,-2,6,-21,-20,-4,-8,0,-2
1532413342741,-14,-13,3,0,-3,-6,5,-6
1532413342746,-7,-13,-6,-6,1,-1,6,-7
1532413342751,-5,-6,4,2,-5,-21,-13,-1
1532413342756,5,-4,-6,-1,-11,-28,3,0
1532413342761,3,2,-2,-3,0,38,-11,-5
1532413342766,5,7,-4,0,6,8,3,4
1532413342771,-9,-4,-4,-1,-4,-11,5,-3
1532413342776,-9,2,19,7,2,-5,-9,6
1532413342781,3,-2,-17,-3,-11,-53,8,3
1532413342786,-5,0,-1,1,10,58,-10,-2
1532413342791,12,3,6,10,4,3,1,5
1532413342796,4,-2,-14,-18,-6,-7,1,1
1532413342801,2,-5,-8,-13,-2,-3,2,0
1532413342806,1,-1,-3,0,-10,-17,3,-1
1532413342811,2,1,-8,-7,4,2,0,-3
1532413342816,3,0,10,14,9,25,2,0
1532413342821,5,-2,8,7,-5,-11,-11,-2
1532413342826,1,0,-6,-5,0,-5,0,6
1532413342831,1,-4,-2,-12,-13,-18,3,4
1532413342836,-1,-3,5,12,6,13,-4,5
1532413342841,-3,0,-3,-3,4,5,4,7
1532413342846,3,2,4,2,-6,-21,-12,6
1532413342851,-4,0,10,4,8,37,1,6
1532413342856,-2,-3,-12,-5,-3,3,-1,4
1532413342861,-2,-2,-1,-5,0,-1,-4,-1
1532413342866,2,2,8,0,-6,-9,0,3
1532413342871,1,1,-13,-5,2,-8,-2,3
1532413342876,-4,-5,7,0,1,2,2,4
1532413342881,-3,0,-4,-10,-9,-6,1,1
1532413342886,2,1,-2,0,10,-8,10,2
1532413342891,0,-2,6,3,12,36,-11,0
1532413342896,-3,4,11,18,4,0,-9,-3
1532413342901,1,-3,-16,-18,-4,-7,1,-2
1532413342906,-4,-1,-1,-7,-9,-11,-6,-6
1532413342911,-2,-4,-4,1,-2,-13,5,-7
1532413342916,4,1,18,12,3,-3,-5,3
1532413342921,5,2,5,4,7,7,-5,1
1532413342926,-1,-1,-8,-1,0,3,-3,1
1532413342931,0,-1,-9,-15,-8,-13,-5,0
1532413342936,-4,1,-1,1,-3,0,-4,-7
1532413342941,-2,-1,8,9,3,-1,-7,-2
1532413342946,-4,-1,-3,-4,4,2,-3,-1
1532413342951,-5,-2,-5,-4,-14,-6,-7,-1
1532413342956,10,2,3,7,2,1,-4,6
1532413342961,-8,3,3,11,53,24,-5,-19
1532413342966,-5,-8,-12,-26,-64,-50,4,23
1532413342971,0,1,3,2,11,-7,0,0
1532413342976,-3,-2,-8,-7,-7,-2,-4,-4
1532413342981,2,1,3,9,13,27,11,0
1532413342986,1,-1,0,1,12,12,-8,0
1532413342991,1,-4,-8,-6,-11,-14,-3,5
1532413342996,-2,-2,6,8,5,10,-2,8
1532413343001,-4,1,-2,-4,-17,-12,-6,2
1532413343006,0,2,21,15,8,7,-6,-5
1532413343011,-2,-4,-24,-24,-6,-3,7,16
1532413343016,-2,-1,-5,1,9,4,-1,-3
1532413343021,-1,0,15,11,-11,-8,-7,11
1532413343026,-1,0,-12,-7,7,3,-3,-3
1532413343031,4,2,1,-1,6,4,-2,-5
1532413343036,2,5,0,-5,-2,0,-2,0
1532413343041,-18,-9,-1,-5,-9,1,2,-6
1532413343046,7,3,3,13,26,5,-7,-8
1532413343051,-3,2,8,2,-48,-35,4,2
1532413343056,4,2,-4,-3,6,11,4,22
1532413343061,5,1,-4,-3,-11,-8,-5,15
1532413343066,-4,1,-2,0,5,8,0,-4
1532413343071,-3,-1,0,-3,1,5,-6,-9
1532413343076,0,0,0,0,-6,-8,0,-15
1532413343081,-2,-3,-7,-4,-3,1,-2,-8
1532413343086,-2,-4,-1,-1,5,8,5,2
1532413343091,0,1,3,4,9,2,0,-2
1532413343096,-5,-2,-3,-3,-6,-3,-3,3
1532413343101,2,-1,5,4,3,1,-2,11
1532413343106,-1,-3,3,-2,-1,0,2,38
1532413343111,-6,1,-1,5,4,-2,3,18
1532413343116,-3,-1,-7,2,0,0,-3,-5
1532413343121,2,-1,-12,-18,-7,-6,0,-10
1532413343126,0,1,8,7,-3,4,-1,-1
1532413343131,-1,1,5,9,11,7,-1,2
1532413343136,0,-6,-12,-15,-4,-2,-4,-2
1532413343141,6,-2,4,3,-5,-2,-1,-5
1532413343146,3,0,-7,-5,-1,0,-2,-17
1532413343151,-2,-2,7,5,2,-5,-5,-14
1532413343156,0,1,5,9,7,3,2,-12
1532413343161,2,-2,-14,-18,-8,1,-3,-12
1532413343166,-3,1,2,2,1,2,-4,-23
1532413343171,2,1,-1,0,2,1,-1,-19
1532413343176,1,-1,-5,-5,-3,-1,0,-6
1532413343181,3,-1,1,4,2,-1,-2,-1
1532413343186,0,1,-1,0,1,13,5,4
1532413343191,-1,-1,-3,0,30,26,-8,-2
1532413343196,-3,-1,2,0,-15,-13,-14,-10
1532413343201,2,5,3,1,-23,-46,-1,1
1532413343206,-5,-2,-4,-6,0,12,-2,-2
1532413343211,0,0,-1,4,-10,-12,1,4
1532413343216,-2,-3,-1,0,21,24,4,0
1532413343221,0,-2,-4,-7,9,19,4,6
1532413343226,0,1,6,3,-25,-31,-10,8
1532413343231,1,-1,-2,3,26,28,-1,-9
1532413343236,2,2,-1,-2,-4,-9,0,0
1532413343241,-2,-5,-2,0,28,27,0,-2
1532413343246,1,-1,1,0,-19,-17,-4,8
1532413343251,-1,4,3,10,13,-18,7,1
1532413343256,-3,-1,-1,-4,-17,14,3,-2
1532413343261,2,2,-2,1,-29,-21,0,2
1532413343266,-1,-3,-5,-4,6,14,-1,4
1532413343271,2,0,0,4,21,16,-13,7
1532413343276,-1,-2,-3,0,6,-2,-4,-12
1532413343281,-2,-4,-1,-2,-5,-4,0,-2
1532413343286,1,-2,-5,0,23,20,2,-12
1532413343291,-3,-4,-6,-9,-35,-27,-3,4
1532413343296,3,-1,0,-1,15,-5,2,0
1532413343301,-5,-4,-4,-6,-6,6,-10,0
1532413343306,1,3,4,4,-4,-10,0,4
1532413343311,-4,-4,-3,-3,-13,1,8,1
1532413343316,-1,-1,-2,2,-2,-16,-14,7
1532413343321,-1,1,0,1,17,11,-3,-3
1532413343326,-3,-3,1,-3,6,12,1,-3
1532413343331,3,2,4,0,6,-10,-4,1
1532413343336,-2,0,1,-1,-1,8,7,1
1532413343341,0,-4,-6,-7,-8,-15,-3,2
1532413343346,-2,4,0,2,-11,5,4,3
1532413343351,-3,-1,-3,-1,24,24,0,-14
1532413343356,0,1,-3,-1,-5,2,1,5
1532413343361,2,3,5,-4,-16,-35,-5,2
1532413343366,-1,-7,-5,4,7,24,8,-7
1532413343371,2,3,7,5,-3,-17,-23,2
1532413343376,0,1,0,-1,19,20,5,-2
1532413343381,-1,-1,-5,-2,1,2,-7,1
1532413343386,-1,-2,-3,-7,-6,-19,-5,-3
1532413343391,0,-2,-2,-5,-8,3,6,3
1532413343396,-1,-3,2,5,17,20,-2,1
1532413343401,0,3,6,9,-14,-21,-3,-3
1532413343406,-1,-1,1,-2,3,-4,-6,-8
1532413343411,-2,-1,4,5,17,17,2,-3
1532413343416,0,-1,-4,-4,-16,-28,4,5
1532413343421,-2,-4,-6,-7,1,27,9,4
1532413343426,-4,-4,-5,-7,-7,-17,-11,-10
1532413343431,-2,0,1,6,-15,-5,5,-3
1532413343436,6,1,-1,-1,14,27,1,-6
1532413343441,-3,-1,1,-3,-22,-32,-9,1
1532413343446,2,2,1,3,-14,-22,-4,5
1532413343451,-3,-3,-5,-10,-10,6,-1,-1
1532413343456,-6,-7,-6,-5,-25,-13,1,7
1532413343461,4,4,4,0,15,9,-4,-6
1532413343466,-1,3,4,6,1,12,0,-2
1532413343471,-4,-2,-4,-8,-34,-48,-5,-6
1532413343476,-4,-1,2,10,48,17,3,-8
1532413343481,-3,-6,-6,-11,-59,-41,6,8
1532413343486,-1,-2,-6,-6,-24,-5,2,8
1532413343491,1,-1,-3,-2,2,11,-6,-4
1532413343496,4,1,3,-1,45,7,-13,6
1532413343501,-9,-4,0,2,-3,6,11,2
1532413343506,-2,-3,-5,2,29,-7,-19,-33
1532413343511,0,1,0,3,-1,32,6,1
1532413343516,1,-2,-6,-7,-6,-15,0,-2
1532413343521,0,2,5,10,31,26,-3,-7
1532413343526,1,2,0,1,-24,-17,7,19
1532413343531,1,0,2,7,29,26,10,7
1532413343536,1,1,4,4,-1,7,-7,-3
1532413343541,0,-3,-2,-4,-6,-44,0,7
1532413343546,0,-5,-5,-6,8,21,-9,-10
1532413343551,-1,0,0,0,8,0,-7,-4
1532413343556,2,-1,-2,-7,-47,-23,1,6
1532413343561,-4,-4,-3,1,38,34,-9,-13
1532413343566,-1,-4,-1,-8,0,-5,-1,9
1532413343571,0,1,2,-3,-37,-33,-4,6
1532413343576,-4,-4,-3,-6,-29,-16,0,-8
1532413343581,6,5,5,7,48,57,-8,5
1532413343586,1,1,2,3,-25,-47,5,8
1532413343591,-3,-2,0,0,0,0,-12,-8
1532413343596,-3,0,-6,-1,11,-9,-3,-6
1532413343601,1,1,4,0,-18,16,0,-10
1532413343606,-2,-1,-3,-3,-8,12,3,4
1532413343611,-2,-2,-4,-1,23,-10,-3,-2
1532413343616,-2,-1,-1,-3,-31,-6,-3,-1
1532413343621,-2,-4,-8,0,40,16,-6,1
1532413343626,4,4,6,5,5,30,4,7
1532413343631,-2,-2,-5,-8,-26,-27,7,10
1532413343636,-2,2,4,4,15,5,-10,-12
1532413343641,-3,-2,-2,1,-8,12,9,3
1532413343646,-5,-6,-4,-3,55,34,-4,-4
1532413343651,1,3,2,7,-17,-21,-13,0
1532413343656,4,-3,-5,-4,-33,-11,2,17
1532413343661,1,-2,0,-2,-17,0,2,-3
1532413343666,-2,0,-2,-3,26,26,-4,-13
1532413343671,-3,-1,-7,-8,-30,-31,-6,3
1532413343676,-4,-1,2,-2,-7,-8,5,2
1532413343681,-2,-2,-5,0,20,5,-18,-10
1532413343686,4,4,7,11,-13,-6,3,1
1532413343691,-3,-4,-5,-2,26,-3,-8,-10
1532413343696,-3,-1,-1,2,8,18,-8,-8
1532413343701,-1,2,-3,-4,-15,-8,1,-7
1532413343706,-1,-2,-2,-12,-51,-40,-4,2
1532413343711,-1,-2,-2,-2,13,14,-3,-7
1532413343716,3,2,5,5,21,0,-4,0
1532413343721,-4,-1,0,5,23,6,2,-4
1532413343726,-6,-6,-8,-4,6,-2,-9,-8
1532413343731,0,-2,2,0,-7,-6,3,0
1532413343736,3,3,4,4,-10,-4,8,4
1532413343741,1,-1,1,2,-19,-2,-9,-8
1532413343746,-1,3,10,13,10,3,-3,-13
1532413343751,0,-3,-10,-8,-3,10,9,4
1532413343756,-5,-6,-20,-19,-1,-3,-14,-4
1532413343761,2,0,1,-3,-9,2,7,3
1532413343766,-4,-5,-9,-18,-36,-18,0,0
1532413343771,5,2,12,11,-4,-4,-7,1
1532413343776,2,-1,3,5,-11,-12,6,5
1532413343781,-3,1,0,0,-4,0,2,-5
1532413343786,-2,-2,1,2,17,14,-3,-1
1532413343791,0,2,-3,-3,10,15,0,7
1532413343796,-3,-1,0,2,27,21,0,-16
1532413343801,-1,-2,-5,-8,-29,-43,-5,2
1532413343806,4,3,1,6,14,13,10,6
1532413343811,-2,-3,-2,5,16,26,4,-6
1532413343816,-1,-1,0,-5,-32,-30,-16,-13
1532413343821,5,2,4,7,26,16,-4,6
1532413343826,-5,-6,-6,-5,-2,-5,8,20
1532413343831,4,5,3,1,7,24,-20,-24
1532413343836,-8,-4,-1,8,72,31,-3,-9
1532413343841,-1,0,-2,-27,-84,-73,2,18
1532413343846,4,6,0,-1,6,-10,-19,-26
1532413343851,4,1,4,6,27,16,7,15
1532413343856,-2,-2,-1,3,12,6,0,0
1532413343861,-4,-3,-1,1,8,10,6,-2
1532413343866,1,1,3,3,18,23,1,6
1532413343871,-3,0,0,1,-8,-4,6,-1
1532413343876,0,0,1,-2,-25,-10,-4,5
1532413343881,2,-1,7,18,57,74,18,2
1532413343886,1,3,0,-8,-110,-97,-20,-11
1532413343891,-5,-2,-3,-1,23,14,-7,-12
1532413343896,-1,-1,-3,-11,-22,-5,-4,5
1532413343901,2,-1,2,10,50,45,7,-4
1532413343906,-5,-5,-7,-6,-25,-10,0,3
1532413343911,-4,-3,-4,-6,-32,-36,-1,-2
1532413343916,6,2,5,8,28,47,8,14
1532413343921,-2,0,-2,-6,-39,-44,-18,-26
1532413343926,2,-4,-3,-4,4,26,7,15
1532413343931,1,-2,-3,5,44,5,-10,-13
1532413343936,-11,-8,-9,-20,-68,-31,6,-2
1532413343941,6,6,5,13,25,15,-6,11
1532413343946,-6,-6,-3,7,82,33,7,-5
1532413343951,1,1,0,-11,-43,-4,18,21
1532413343956,0,3,3,9,23,2,-13,-15
1532413343961,-6,-4,-5,-7,-4,-15,-16,-22
1532413343966,0,2,-4,0,36,50,-2,0
1532413343971,4,1,6,-5,-83,-82,1,22
1532413343976,-2,2,6,5,0,-7,9,18
1532413343981,-1,0,-5,0,8,5,-16,-32
1532413343986,0,2,4,-2,-51,-56,-7,-3
1532413343991,-6,-4,-8,-3,22,34,1,-9
1532413343996,2,1,1,0,4,-18,-16,-3
1532413344001,-1,1,-2,-5,-42,-11,13,15
1532413344006,3,-2,4,0,31,11,-11,-6
1532413344011,-1,-2,-2,1,27,22,-5,-5
1532413344016,2,0,4,3,-13,-50,-8,-5
1532413344021,-1,-5,-6,0,47,50,1,10
1532413344026,-1,-2,-7,-10,-30,-28,-5,6
1532413344031,-3,-3,0,2,-3,2,2,1
1532413344036,-1,-3,-7,-4,20,23,-6,-16
1532413344041,-9,-8,-9,-12,-13,-21,-5,5
1532413344046,0,1,2,4,15,15,0,-4
1532413344051,-2,-5,-1,0,17,-7,-6,-5
1532413344056,-2,-4,-10,-13,-43,10,-2,5
1532413344061,7,7,13,11,21,5,6,2
1532413344066,-3,-3,-2,2,-4,4,12,25
1532413344071,3,2,2,0,-9,-9,-25,-38
1532413344076,-3,-4,-7,-5,8,21,0,-13
1532413344081,2,1,4,0,-40,-80,-8,4
1532413344086,-2,-1,-2,-1,1,20,4,-9
1532413344091,-1,0,0,6,23,22,5,10
1532413344096,0,2,4,4,-5,-15,3,-1
1532413344101,-1,-2,-6,-8,-5,15,-2,2
1532413344106,-1,3,2,0,16,-3,-2,2
1532413344111,-4,-2,-6,-10,-32,-14,5,6
1532413344116,4,4,9,5,9,11,-4,9
1532413344121,-1,-2,-8,-5,10,6,-7,-17
1532413344126,3,1,5,7,8,-4,-2,-6
1532413344131,-2,-1,-2,-4,1,12,-2,-2
1532413344136,-1,-2,-2,-3,14,6,6,7
1532413344141,-2,-1,2,2,27,19,0,9
1532413344146,-2,0,2,1,-27,-12,-6,-11
1532413344151,-1,-3,-2,1,26,24,1,-1
1532413344156,3,-2,-1,6,12,7,11,14
1532413344161,0,-2,0,-3,-36,-11,-5,-5
1532413344166,-4,-4,-6,-9,-20,-18,-2,0
1532413344171,5,5,6,7,20,9,-1,10
1532413344176,-4,1,0,0,4,2,-7,-8
1532413344181,-2,-3,-4,1,19,19,3,-5
1532413344186,-3,-1,-3,-4,-28,-28,-16,-5
1532413344191,4,0,-2,-7,-13,-4,2,2
1532413344196,-2,-4,-4,2,41,30,0,2
1532413344201,-7,0,-1,-10,-89,-74,4,4
1532413344206,0,-2,-4,-5,15,17,5,0
1532413344211,-7,-2,-3,-4,-11,-20,-7,-10
1532413344216,1,-1,-6,-6,26,30,-10,-10
1532413344221,-2,-1,6,6,7,-8,-8,7
1532413344226,-4,-2,-6,-8,0,8,2,6
1532413344231,-1,-3,1,-1,-18,-16,4,15
1532413344236,1,-1,2,2,5,-8,-5,3
1532413344241,-2,2,-2,-5,-33,-16,0,-4
1532413344246,4,4,3,8,41,29,2,-5
1532413344251,-1,-2,-2,-3,-15,-21,-10,4
1532413344256,1,1,1,1,-3,-2,2,-2
1532413344261,2,-1,-1,-1,34,20,-8,-5
1532413344266,0,-3,-6,-1,1,-26,-10,-13
1532413344271,0,3,4,10,52,75,12,-8
1532413344276,-3,-1,0,-1,-18,-11,-5,-14
1532413344281,0,2,0,3,-17,-9,-10,-3
1532413344286,-4,-3,1,-5,-24,-4,-1,3
1532413344291,-3,-3,-6,-8,-13,-14,-4,7
1532413344296,-2,2,5,4,0,14,3,13
1532413344301,-3,-6,-7,-5,15,15,-8,8
1532413344306,0,1,-1,0,-43,-41,-3,17
1532413344311,4,2,9,5,8,19,8,-3
1532413344316,1,-3,-4,-9,-52,-47,-1,-1
1532413344321,4,-2,1,1,48,29,-9,-9
1532413344326,2,1,3,3,8,12,-2,5
1532413344331,-5,-1,0,5,24,15,-3,-23
1532413344336,5,2,0,-2,-13,-12,3,4
1532413344341,-3,0,6,3,2,14,7,1
1532413344346,-2,1,-1,-1,-12,-31,0,-6
1532413344351,3,2,1,1,-26,-20,-17,-2
1532413344356,-1,-6,-14,-9,15,0,-7,-8
1532413344361,4,4,9,10,3,2,4,3
1532413344366,0,-1,3,7,40,52,3,-8
1532413344371,2,5,0,-4,-34,-52,-4,2
1532413344376,-6,-3,-5,-9,-32,-20,5,-6
1532413344381,-1,0,-4,-7,5,20,-2,-4
1532413344386,-1,1,5,10,13,-11,-2,-5
1532413344391,-4,-7,-8,-14,-58,-39,-3,12
1532413344396,-4,0,0,0,5,15,-7,-1
1532413344401,-1,-2,-5,-9,-49,-68,-1,8
1532413344406,-1,1,3,4,23,20,3,5
1532413344411,-1,-3,-6,-4,8,15,-12,9
1532413344416,2,0,1,-1,-8,11,-7,5
1532413344421,0,0,1,-1,1,-5,3,-2
1532413344426,1,1,-2,-1,10,11,-16,-14
1532413344431,1,-1,-1,1,28,20,-1,-5
1532413344436,-2,1,3,3,8,11,-3,-13
1532413344441,-2,-1,-4,-2,-3,2,0,2
1532413344446,-1,-4,-6,-2,-3,-21,-2,17
1532413344451,-3,-4,-2,-2,20,23,-27,-27
1532413344456,3,0,5,3,-2,-2,0,-8
1532413344461,0,-2,1,7,36,43,-7,-10
1532413344466,-2,-1,-3,-8,-53,-44,-7,-3
1532413344471,-2,-2,-7,-3,15,12,12,-3
1532413344476,-3,-3,-1,0,-8,-29,-1,-3
1532413344481,-2,-1,-2,-2,-3,-8,-3,-1
1532413344486,-3,-3,-2,2,10,13,1,-14
1532413344491,4,4,7,10,20,25,4,6
1532413344496,0,-1,-3,-4,-11,-9,-3,-2
1532413344501,-2,-5,-2,0,-1,-4,0,8
1532413344506,-5,-2,-7,-8,-1,-4,-4,-6
1532413344511,-1,0,3,0,8,3,9,12
1532413344516,3,0,2,7,19,4,2,11
1532413344521,3,2,4,6,20,11,-6,2
1532413344526,0,0,1,-2,-3,14,-1,-3
