1532233384729,6,1,-3,-5,-2,-2,0,0
1532233384734,-1,-5,0,1,0,0,0,0
1532233384739,-2,-6,3,3,-3,-1,0,-2
1532233384744,-3,11,-2,-1,-3,-3,-1,0
1532233384749,0,-7,-2,-3,0,-1,-1,0
1532233384754,2,0,3,0,-1,-2,-1,0
1532233384759,-1,1,1,-2,-1,-1,1,-1
1532233384764,1,-8,-6,-2,-1,-2,-2,1
1532233384769,-2,12,11,0,-1,-1,-2,-1
1532233384774,-2,-10,-3,-1,1,0,0,0
1532233384779,1,-4,-6,-2,-2,1,-3,-1
1532233384784,2,3,1,-1,1,-2,0,-2
1532233384789,-1,2,5,4,2,2,1,-1
1532233384794,-2,1,4,-1,-2,-1,-1,-3
1532233384799,0,6,11,3,1,1,0,0
1532233384804,-2,-10,-19,-4,-4,0,-1,-1
1532233384809,-1,1,-2,-6,-1,-1,-1,-2
1532233384814,-4,5,7,-1,1,-2,-1,0
1532233384819,-2,-4,-12,-1,-1,-2,-1,1
1532233384824,2,1,7,0,-1,-1,-2,0
1532233384829,-5,-6,-3,0,-3,-3,0,-1
1532233384834,-1,2,-5,-4,-2,0,-1,-1
1532233384839,1,5,4,-2,-2,0,-1,0
1532233384844,-3,-8,-3,-2,0,-1,-1,-1
1532233384849,1,-2,-1,0,-1,1,-3,-1
1532233384854,4,-1,-4,-1,-1,-2,0,-3
1532233384859,1,-3,-3,-1,0,-2,0,-1
1532233384864,-4,1,1,-1,0,0,0,-1
1532233384869,-4,-7,3,-1,-1,-1,0,-1
1532233384874,0,6,3,-1,-1,-1,0,-1
1532233384879,-3,-1,2,-2,-1,-2,0,-1
1532233384884,0,-4,-15,-2,-1,-1,1,-1
1532233384889,1,0,3,-1,-1,-1,-1,-1
1532233384894,-5,-11,-4,-3,-1,1,0,-2
1532233384899,1,2,-5,-2,-2,1,-1,1
1532233384904,-5,12,10,2,-1,-2,-1,-1
1532233384909,-3,3,0,0,0,-1,-1,-1
1532233384914,0,-7,-7,-1,-1,-2,0,-1
1532233384919,-2,-1,-3,-3,0,0,1,-1
1532233384924,1,0,4,1,0,0,0,0
1532233384929,-5,-8,-3,3,-1,-1,-1,-3
1532233384934,-5,8,-5,-2,-3,-1,-2,-1
1532233384939,-2,-1,4,2,0,1,-1,-1
1532233384944,0,-3,1,-1,-1,0,-1,-1
1532233384949,-4,2,-2,-2,0,-2,0,-1
1532233384954,4,1,1,2,1,0,0,1
1532233384959,-1,2,-2,-2,-3,-2,-1,-1
1532233384964,-2,5,3,1,0,-1,-1,-3
1532233384969,2,-7,4,0,0,0,-1,-1
1532233384974,-4,-14,-15,-4,-2,-1,-3,-1
1532233384979,-4,5,1,0,2,2,0,-1
1532233384984,2,-9,7,0,1,-1,-1,0
1532233384989,-16,-7,-13,-7,-5,-2,-2,-6
1532233384994,-2,3,2,-1,0,-2,-2,-1
1532233384999,-1,12,2,0,0,-2,-1,1
1532233385004,-6,-1,-1,1,1,1,1,0
1532233385009,3,-58,-2,-2,-1,-1,-1,-1
1532233385014,-2,-37,2,-2,-1,-1,0,0
1532233385019,4,37,-2,-1,-1,-2,1,-2
1532233385024,-2,-31,1,-1,0,-1,-2,-2
1532233385029,0,28,8,2,2,1,0,1
1532233385034,3,12,0,4,1,0,0,2
1532233385039,5,-29,8,-1,-1,-1,1,1
1532233385044,4,8,-4,-2,0,0,2,1
1532233385049,6,30,8,2,0,0,-3,1
1532233385054,2,-17,-12,-2,-3,-2,0,1
1532233385059,-2,7,-3,1,-1,1,2,3
1532233385064,-5,-10,-10,-5,-2,-3,2,-22
1532233385069,4,24,2,0,-1,1,-21,2
1532233385074,2,-37,-1,2,2,-1,8,0
1532233385079,13,10,-6,0,1,3,19,11
1532233385084,-6,-11,3,-1,-3,-4,-9,1
1532233385089,-4,-101,-17,-5,-3,1,6,12
1532233385094,-7,21,4,-4,-4,-3,-21,-24
1532233385099,8,-14,9,-1,2,1,0,6
1532233385104,0,6,-12,-4,-3,-4,-3,12
1532233385109,-12,51,-1,-3,-1,-1,7,-4
1532233385114,-10,-32,-4,-2,0,2,12,2
1532233385119,-8,-27,-6,-6,-5,-5,-30,-10
1532233385124,0,13,3,1,1,2,2,5
1532233385129,11,-8,-4,1,0,-2,9,3
1532233385134,14,96,13,5,4,2,14,14
1532233385139,-33,-58,-27,-10,-5,-5,-33,-68
1532233385144,2,31,-2,-3,-4,-4,-37,4
1532233385149,0,18,-10,1,0,2,30,19
1532233385154,7,70,19,3,1,-3,-16,5
1532233385159,-1,-44,-2,2,-3,-5,7,22
1532233385164,2,14,16,3,2,0,-3,-8
1532233385169,5,-18,-21,-2,1,4,5,9
1532233385174,12,-22,7,-1,-5,4,-13,-12
1532233385179,-40,-25,-13,-1,-4,-3,0,24
1532233385184,24,-6,8,-3,-2,-4,-3,-50
1532233385189,-32,58,28,3,0,-3,-11,-21
1532233385194,24,-36,-10,-4,-3,-2,12,20
1532233385199,7,63,16,3,3,4,4,-3
1532233385204,0,-17,-1,-1,-3,0,11,23
1532233385209,32,-9,-17,-9,-6,-4,-4,4
1532233385214,-14,-19,-5,6,4,2,0,-3
1532233385219,-1,7,-1,3,0,2,2,-1
1532233385224,6,13,-1,1,0,2,12,15
1532233385229,16,22,8,-4,-4,-2,13,-4
1532233385234,-15,-2,-10,-3,-2,-5,-36,-26
1532233385239,1,55,6,11,7,1,6,-1
1532233385244,-6,-30,5,-4,0,4,7,21
1532233385249,56,6,-7,1,2,6,7,93
1532233385254,20,9,9,-6,-2,3,9,-78
1532233385259,-86,-8,-12,-6,-6,-17,-9,-91
1532233385264,57,13,-11,-1,-5,-8,-33,20
1532233385269,21,-6,13,7,1,-4,-2,-9
1532233385274,-4,6,-12,-7,-3,-7,-2,41
1532233385279,32,-6,6,0,-1,6,8,20
1532233385284,-34,-5,-10,2,7,6,14,0
1532233385289,-13,-9,-7,-5,-1,0,-9,1
1532233385294,0,6,5,-1,1,2,8,19
1532233385299,5,10,9,-3,-1,-1,1,-1
1532233385304,40,22,-5,-4,-5,-4,7,13
1532233385309,-10,0,5,12,9,10,44,-5
1532233385314,-20,19,10,-1,-5,-8,-41,-24
1532233385319,11,-32,-8,-5,2,-1,1,27
1532233385324,19,5,8,3,-1,4,10,11
1532233385329,-13,-5,-6,-7,-4,-6,-16,-41
1532233385334,-25,10,1,0,-3,-3,11,6
1532233385339,29,20,13,1,-2,-1,9,30
1532233385344,-13,-12,-11,2,4,6,-1,12
1532233385349,-27,-28,-1,6,3,3,-8,-8
1532233385354,4,8,3,4,2,4,14,2
1532233385359,25,10,-24,-2,-2,-5,-16,-3
1532233385364,-74,-40,-5,-6,-5,-7,-1,-57
1532233385369,-1,10,-9,-1,-4,-4,-13,3
1532233385374,33,-19,-4,-2,1,3,10,21
1532233385379,6,33,3,3,0,5,8,10
1532233385384,-24,-42,-22,-9,-2,-3,0,-1
1532233385389,-7,-12,6,3,2,0,-11,-13
1532233385394,-11,-14,-10,-11,-4,-3,9,4
1532233385399,8,0,0,-1,0,1,-2,-8
1532233385404,-21,34,10,4,-1,-2,-17,2
1532233385409,2,23,2,-4,-2,-6,-17,-19
1532233385414,33,16,-9,2,1,-1,14,24
1532233385419,-2,-70,-10,-4,-1,-1,0,2
1532233385424,41,63,7,7,4,4,7,0
1532233385429,-47,-46,-14,-12,-8,-9,-11,-33
1532233385434,8,-16,-6,2,0,-1,-4,2
1532233385439,7,4,0,-1,0,2,6,14
1532233385444,-11,-19,5,-5,-1,1,-1,-3
1532233385449,8,6,-1,5,0,3,11,11
1532233385454,-26,-45,-21,1,0,-1,-2,-18
1532233385459,-12,31,8,-5,-4,-5,-8,7
1532233385464,17,-7,15,4,1,-2,3,-20
1532233385469,15,37,12,2,-1,-1,-2,0
1532233385474,-40,-9,2,2,0,0,-3,-5
1532233385479,21,-86,-26,-3,-1,1,4,26
1532233385484,-5,16,-10,-2,-2,0,2,-11
1532233385489,-31,51,22,-5,-3,-5,-12,-23
1532233385494,16,-1,-7,3,3,0,-12,28
1532233385499,8,32,15,-1,3,4,1,-23
1532233385504,44,-20,13,1,-3,-5,-2,1
1532233385509,-14,-46,-28,-3,-2,-4,-3,0
1532233385514,15,1,10,2,0,2,7,23
1532233385519,13,19,14,4,-1,1,17,11
1532233385524,0,7,7,1,1,2,-23,-8
1532233385529,-4,-11,6,0,3,4,-4,15
1532233385534,3,11,2,-2,-4,1,11,15
1532233385539,20,-5,11,0,0,0,-2,8
1532233385544,-35,13,-7,-6,-5,-3,0,-4
1532233385549,-12,-19,-4,-4,-2,-1,-5,-15
1532233385554,-13,-1,-21,-4,-3,1,0,0
1532233385559,3,-17,-9,-2,-2,1,16,-2
1532233385564,9,-30,0,3,0,-2,-27,-1
1532233385569,30,36,13,9,6,4,7,21
1532233385574,-72,-3,3,-5,-5,-9,14,-22
1532233385579,46,72,-1,-1,-5,6,-14,-21
1532233385584,-1,-28,7,-3,-5,-15,13,-16
1532233385589,41,37,-1,-2,-7,-25,-13,9
1532233385594,-43,73,-16,3,25,24,-2,12
1532233385599,-15,-17,-10,-7,-9,-4,3,5
1532233385604,13,75,19,5,-9,24,0,-8
1532233385609,6,-13,-28,-11,-1,-16,15,25
1532233385614,-26,-16,0,-9,-16,-25,-25,-15
1532233385619,18,-16,21,2,16,10,-13,-34
1532233385624,6,-57,-61,-8,-8,3,0,-1
1532233385629,8,76,10,4,0,7,3,13
1532233385634,41,-73,-3,-1,-3,-6,14,-8
1532233385639,3,-11,-3,-2,-2,-4,-5,17
1532233385644,-17,-41,1,-6,-4,-9,-22,-16
1532233385649,1,-1,-2,-2,0,3,13,-26
1532233385654,34,28,6,4,3,-1,-2,13
1532233385659,31,-1,-8,-2,-4,-3,-30,19
1532233385664,13,23,17,0,7,-2,23,8
1532233385669,-28,-17,-9,-5,-3,0,-28,-31
1532233385674,-1,20,13,7,-2,13,17,7
1532233385679,10,2,-3,-2,2,-15,-23,40
1532233385684,-7,89,20,6,9,-1,3,-8
1532233385689,-14,-126,-6,4,0,9,-12,-2
1532233385694,-20,22,-2,1,-3,-4,-3,6
1532233385699,38,1,3,3,3,5,23,46
1532233385704,59,12,16,1,-5,5,13,16
1532233385709,-105,38,5,-4,-3,-9,8,-106
1532233385714,75,-30,-13,-4,-7,-8,-9,-16
1532233385719,1,-44,-4,-3,-4,-6,-44,-17
1532233385724,0,74,10,6,8,5,-2,34
1532233385729,23,-93,-19,-3,-2,2,7,36
1532233385734,4,29,8,4,2,3,16,-1
1532233385739,-22,18,11,1,0,4,22,8
1532233385744,2,-30,-16,-5,-2,-4,-12,-7
1532233385749,30,35,16,8,5,3,0,12
1532233385754,-26,-4,-5,0,2,0,-3,-6
1532233385759,16,-10,-6,-5,-6,-3,-5,-3
1532233385764,-17,-13,6,-4,2,-1,-12,-2
1532233385769,-1,14,1,-1,-2,2,6,-3
1532233385774,-7,39,-15,-7,-4,0,6,27
1532233385779,-3,15,8,6,6,6,3,5
1532233385784,-34,-38,-20,-8,-5,-6,-25,-48
1532233385789,-4,36,3,1,1,0,20,23
1532233385794,7,2,8,1,0,-7,-9,10
1532233385799,24,1,-9,2,2,5,30,15
1532233385804,-9,-42,-9,-4,4,5,-18,3
1532233385809,17,24,10,2,1,3,-14,9
1532233385814,-14,77,-8,-4,-5,-4,6,0
1532233385819,-13,-31,6,0,-3,-2,11,-22
1532233385824,3,-69,-20,-6,-7,-8,18,5
1532233385829,2,26,-2,-3,-3,1,-6,-2
1532233385834,3,-30,4,2,2,5,-3,-1
1532233385839,-5,29,5,3,1,0,-4,-8
1532233385844,-1,7,4,2,-2,-2,10,-4
1532233385849,-5,11,4,3,-1,2,18,-6
1532233385854,-1,-21,-3,-3,-2,-5,-40,2
1532233385859,-3,7,4,0,0,-3,-2,2
1532233385864,-11,-12,-11,0,3,0,13,-7
1532233385869,-3,0,-2,-2,-1,2,3,-3
1532233385874,5,-31,2,-1,-3,0,1,-7
1532233385879,-14,-4,-14,-4,-1,-2,8,-2
1532233385884,4,20,9,2,1,1,-6,-6
1532233385889,2,23,3,-2,-2,-5,-16,-1
1532233385894,-13,-11,3,-1,-1,2,5,2
1532233385899,0,2,-13,-1,-2,1,9,-6
1532233385904,-4,20,20,5,4,1,6,8
1532233385909,-5,-23,-34,-6,-3,-2,-17,-10
1532233385914,1,-22,6,1,-2,-3,-1,4
1532233385919,-9,3,-2,0,-2,-1,11,-16
1532233385924,-3,2,7,-1,-1,0,25,9
1532233385929,-9,3,1,-2,-1,-3,-34,10
1532233385934,-18,-16,-1,0,2,2,-9,-44
1532233385939,-32,3,6,-8,-7,-12,-47,8
1532233385944,-16,4,-23,0,-1,-5,10,-1
1532233385949,-22,19,13,-2,-1,-2,0,-7
1532233385954,0,-9,-6,3,0,2,12,11
1532233385959,4,35,5,-2,0,4,11,4
1532233385964,-9,-42,1,-1,-1,-7,-9,-25
1532233385969,11,-1,9,0,1,1,-5,1
1532233385974,9,-21,-11,2,2,-2,-11,1
1532233385979,10,-12,-4,-2,-5,0,8,13
1532233385984,9,15,6,-2,-2,-3,-16,-18
1532233385989,9,0,0,-1,-4,0,6,6
1532233385994,12,-12,-6,-1,1,2,47,6
1532233385999,9,-13,-9,0,2,2,1,2
1532233386004,1,0,3,0,-1,3,2,14
1532233386009,-13,-10,-7,-3,0,-2,-3,-16
1532233386014,6,4,-3,-3,-3,4,37,27
1532233386019,-9,-1,2,-1,-3,-9,-98,-50
1532233386024,-3,10,0,1,1,1,29,-11
1532233386029,8,-3,1,2,4,8,22,1
1532233386034,-8,-11,-5,-4,-2,-9,-17,11
1532233386039,5,-1,1,2,-3,3,33,11
1532233386044,-4,-5,5,-4,8,13,-13,8
1532233386049,4,-5,-3,0,-1,-18,-46,-11
1532233386054,3,11,2,-1,1,8,16,18
1532233386059,4,-9,11,2,1,-4,15,3
1532233386064,2,5,-6,-2,-3,6,12,9
1532233386069,7,-10,9,-3,-11,1,9,7
1532233386074,-4,-8,-3,-10,0,-23,-87,-58
1532233386079,-2,17,2,5,8,-1,9,-2
1532233386084,1,-16,-4,0,-3,-4,14,5
1532233386089,6,4,-4,1,1,0,3,8
1532233386094,3,-4,6,-2,-10,-2,2,-10
1532233386099,5,10,2,2,2,6,9,-4
1532233386104,5,2,4,-2,-5,-11,-19,6
1532233386109,1,2,-2,1,-8,6,3,-4
1532233386114,1,2,9,2,15,12,13,5
1532233386119,-2,-10,-23,-2,-1,6,11,2
1532233386124,1,5,2,-1,0,0,-9,3
1532233386129,1,-3,-1,-2,-5,-2,8,4
1532233386134,2,6,-1,1,-6,-7,9,3
1532233386139,-4,-10,2,-2,-2,11,65,17
1532233386144,-6,-5,-1,-3,-21,0,-69,-40
1532233386149,-2,2,-8,0,39,26,0,-11
1532233386154,-8,1,2,1,4,7,-8,-6
1532233386159,3,-6,3,-3,-7,12,37,16
1532233386164,-3,0,1,0,5,-11,-18,-12
1532233386169,-3,-8,-2,3,-5,-13,7,11
1532233386174,3,-2,-3,3,2,-4,29,5
1532233386179,-2,-4,0,-2,-16,-12,-27,-23
1532233386184,4,5,4,-1,4,2,25,5
1532233386189,7,1,-2,-3,2,-5,-26,-7
1532233386194,0,-1,-3,-2,-1,10,14,14
1532233386199,-7,1,-1,-2,-5,-10,-11,-15
1532233386204,-3,-3,-4,-2,-1,-16,-2,10
1532233386209,0,-3,-1,-1,-8,0,15,4
1532233386214,2,0,0,0,-33,-14,-7,-2
1532233386219,2,-1,12,2,39,5,-26,8
1532233386224,-1,-3,-20,0,0,-1,13,10
1532233386229,-2,-3,-6,-2,-2,4,8,1
1532233386234,-7,4,4,-2,-5,-6,-10,-5
1532233386239,3,-14,-1,4,-3,-3,-1,4
1532233386244,-1,-1,12,0,-2,3,14,8
1532233386249,0,6,-6,-3,-5,-7,-4,-2
1532233386254,1,17,-1,-2,7,3,-10,-3
1532233386259,1,2,1,-1,-1,-5,1,0
1532233386264,8,-15,-9,0,3,5,0,0
1532233386269,10,-18,5,-1,-6,-4,5,2
1532233386274,-11,21,-6,-6,3,-2,-5,-4
1532233386279,1,1,6,-2,-4,1,-2,-2
1532233386284,-2,-7,-15,0,0,-2,-4,-7
1532233386289,-7,-18,-3,4,-1,-1,0,-1
1532233386294,8,11,5,-1,4,0,0,-2
1532233386299,0,-7,-2,-3,-4,-5,-5,4
1532233386304,2,3,15,-1,1,2,-1,5
1532233386309,-12,-51,-24,2,-3,-3,1,-3
1532233386314,-1,23,7,-2,3,2,-5,-4
1532233386319,-4,10,-6,-6,-4,-4,-4,-5
1532233386324,3,15,10,-3,1,1,4,4
1532233386329,-9,0,-12,-3,-2,0,-2,-4
1532233386334,4,-34,-15,2,1,1,2,3
1532233386339,1,10,1,-1,0,-1,0,0
1532233386344,-6,19,14,-4,-3,0,5,1
1532233386349,-9,1,-43,10,-4,-6,-2,-6
1532233386354,-13,0,-21,-17,3,2,-10,-2
1532233386359,-4,-13,2,-6,-2,-2,1,-1
1532233386364,12,39,8,3,2,0,3,7
1532233386369,7,61,58,-8,-3,-2,-4,0
1532233386374,7,-12,-8,3,-1,0,1,7
1532233386379,-3,1,-6,8,3,4,1,-3
1532233386384,-8,-36,-11,-8,-5,-3,0,-3
1532233386389,4,10,7,-4,-1,-1,-1,1
1532233386394,-1,-12,-1,4,-1,2,1,-1
1532233386399,6,3,18,0,-1,-3,-1,-2
1532233386404,1,-12,-10,-3,-1,-2,1,-3
1532233386409,-14,-4,12,1,3,0,0,-3
1532233386414,-4,-10,1,9,1,0,-1,-3
1532233386419,3,-9,1,-1,-3,0,6,1
1532233386424,-1,30,7,3,0,-3,-25,-4
1532233386429,-5,-30,-26,-14,-4,-4,-4,-4
1532233386434,-8,-7,-9,-6,1,-3,0,-2
1532233386439,2,3,10,6,2,0,-1,2
1532233386444,-1,-6,-22,-3,1,3,6,3
1532233386449,4,2,17,3,2,-1,3,2
1532233386454,-1,13,26,0,-3,-3,-7,-4
1532233386459,0,5,2,-3,-2,-3,-1,-1
1532233386464,-16,-5,-41,-1,0,2,2,-4
1532233386469,0,0,2,-2,1,-1,0,1
1532233386474,9,-10,-5,3,1,0,5,2
1532233386479,-4,11,26,0,-2,-2,-1,0
1532233386484,-10,-57,-16,-2,-3,-2,6,3
1532233386489,12,48,11,4,-1,0,1,1
1532233386494,-1,52,-2,-8,-3,-4,-7,0
1532233386499,-7,-17,5,1,-1,-1,3,2
1532233386504,7,9,22,3,1,-2,14,-3
1532233386509,1,-28,-28,-3,-1,-2,-4,0
1532233386514,2,-12,11,4,1,2,4,-1
1532233386519,-4,-18,-25,0,2,2,-2,1
1532233386524,4,1,-11,-4,-1,-3,3,-1
1532233386529,-1,-8,-2,6,2,2,-1,0
1532233386534,-2,-10,5,2,-2,1,2,1
1532233386539,1,40,-10,-3,-1,-1,-3,0
1532233386544,-1,-20,18,0,0,0,-5,-5
1532233386549,11,24,23,0,-1,1,0,2
1532233386554,-23,-27,-21,-4,-1,-2,-4,-2
1532233386559,7,-29,-31,0,-1,-1,0,-2
1532233386564,1,13,17,4,2,-1,-5,-1
1532233386569,-21,14,29,-1,-2,-2,-1,-4
1532233386574,19,36,-14,-4,-1,-2,1,1
1532233386579,-2,11,8,-6,-2,0,-4,0
1532233386584,3,-4,-1,0,-1,1,1,3
1532233386589,-6,-23,0,1,0,-1,-5,-1
1532233386594,1,-28,-4,5,-1,0,9,3
1532233386599,-3,6,-7,-3,-3,-2,-13,-9
1532233386604,0,4,-9,-5,-2,-1,-3,1
1532233386609,6,-2,7,-1,-1,-1,4,0
1532233386614,0,4,-4,3,-1,-2,-6,-1
1532233386619,1,-7,-11,-2,1,0,0,0
1532233386624,7,8,26,0,-2,1,0,3
1532233386629,-20,-15,-13,1,-2,-1,-5,-6
1532233386634,1,13,12,-6,-1,-1,1,0
1532233386639,10,10,42,3,-3,-1,5,11
1532233386644,-2,2,-54,0,1,2,-5,-10
1532233386649,-9,-4,18,-9,1,-1,0,-5
1532233386654,0,-33,4,2,1,0,-3,-1
1532233386659,-6,-4,-21,-4,-3,-2,0,0
1532233386664,0,3,29,1,-2,-2,-1,3
1532233386669,8,27,-13,-1,-1,0,-1,-5
1532233386674,-2,-5,4,1,0,-2,-1,0
1532233386679,6,-8,-32,2,-1,-1,1,-1
1532233386684,-3,-1,21,-2,0,3,0,3
1532233386689,5,8,-13,-3,-2,-1,0,2
1532233386694,-4,-39,12,1,-1,-1,0,3
1532233386699,-9,2,3,-5,-4,0,-3,-4
1532233386704,1,-5,-15,0,-2,-3,-4,-4
1532233386709,3,-5,-2,0,2,2,1,4
1532233386714,6,18,20,-1,-3,-2,-2,0
1532233386719,-4,-3,-1,0,-3,-3,2,-4
1532233386724,-16,-25,-71,-10,1,0,-2,-3
1532233386729,7,-4,11,3,0,-1,-1,1
1532233386734,-2,7,0,5,0,0,-2,-3
1532233386739,-7,38,33,-1,-1,0,0,-2
1532233386744,8,4,-13,6,2,0,1,2
1532233386749,1,10,-9,-3,0,-1,2,4
1532233386754,1,-6,15,0,-1,0,-1,-3
1532233386759,-1,-26,-40,-2,1,1,-2,-2
1532233386764,13,28,44,2,-2,-1,2,4
1532233386769,-4,-16,-8,2,-1,0,0,-1
1532233386774,-1,8,9,-2,0,0,-2,-1
1532233386779,-3,-11,-8,-3,-2,0,-1,-2
1532233386784,-4,-12,-1,2,-3,-2,1,-1
1532233386789,0,6,-8,-1,-1,1,2,1
1532233386794,-1,5,-3,4,0,0,-1,0
1532233386799,-2,-8,7,0,-1,-1,0,-1
1532233386804,-3,-26,-23,-9,-3,-3,-4,-3
1532233386809,2,5,7,-1,-1,-2,-3,-1
1532233386814,7,13,0,0,2,2,1,1
1532233386819,-1,-28,-12,2,3,0,-2,2
1532233386824,-16,16,38,0,-3,-3,-2,-6
1532233386829,2,-13,-36,3,0,1,1,0
1532233386834,-1,18,-1,-2,1,0,-1,-2
1532233386839,-6,-20,0,-5,-1,-2,-1,0
1532233386844,1,10,3,-1,0,0,0,0
1532233386849,1,3,21,-2,-1,-1,-1,-1
1532233386854,-3,0,-13,-3,-2,-3,-2,-2
1532233386859,2,17,-1,-1,0,-2,0,-1
1532233386864,2,-1,18,2,1,-1,-1,0
1532233386869,11,-2,-8,0,-1,1,0,0
1532233386874,-4,-9,-12,-2,-2,-2,-1,-1
1532233386879,-1,-5,3,0,0,-1,-1,-1
1532233386884,1,-7,-1,-2,-1,0,-1,0
1532233386889,-1,2,8,0,1,-1,-2,0
1532233386894,-4,-11,-7,-5,-4,-4,-2,-2
1532233386899,6,8,6,4,0,-1,-1,-1
1532233386904,3,14,0,2,2,2,0,-1
1532233386909,-4,10,-1,-2,-2,-3,-2,-3
1532233386914,-3,-4,5,2,2,3,-2,-1
1532233386919,-2,-1,-1,-1,-2,-1,1,-4
1532233386924,-1,-31,-2,-2,-2,-2,0,0
1532233386929,4,13,1,-3,0,2,0,-1
1532233386934,-4,-30,-8,-2,-1,-2,-1,-1
1532233386939,6,20,4,0,-1,-1,0,-1
1532233386944,2,5,-2,2,0,0,-1,2
1532233386949,-15,-66,-2,-7,-5,-4,-3,-5
1532233386954,3,1,2,2,0,1,2,2
1532233386959,-6,1,-16,-8,-3,-2,-1,-1
1532233386964,3,4,7,4,0,-2,-2,-1
1532233386969,-3,13,5,1,-1,0,-2,0
1532233386974,1,-10,-5,-1,-2,0,0,0
1532233386979,-2,-29,-4,-2,-1,-1,-1,-2
1532233386984,-1,-5,-3,2,0,2,1,2
1532233386989,-1,29,-2,3,0,-3,-1,-3
1532233386994,-6,16,-4,-5,-2,-3,-4,-4
1532233386999,2,26,15,1,0,-1,0,1
1532233387004,-2,11,12,-3,-1,-1,0,-1
1532233387009,-1,-36,-1,-1,-1,-1,0,1
1532233387014,-1,5,-24,-2,-1,-1,-1,0
1532233387019,-2,4,12,1,-1,-2,-3,-4
1532233387024,2,27,6,1,0,0,-1,-2
1532233387029,-2,8,-2,-1,-2,0,-1,-1
1532233387034,1,-5,0,0,-3,0,1,2
1532233387039,0,-13,-7,1,6,3,-2,0
1532233387044,-2,-6,-7,0,-1,-2,1,1
1532233387049,4,-2,0,-2,-2,-1,-1,1
1532233387054,-2,-3,7,0,-2,-3,-1,-1
1532233387059,-7,-26,-7,1,-1,0,2,-1
1532233387064,4,17,0,0,1,0,2,1
1532233387069,2,47,3,2,0,-1,1,2
1532233387074,-7,-47,-6,-3,-1,-1,-3,-4
1532233387079,4,41,12,2,0,-2,-2,1
1532233387084,-6,-25,-10,-8,-3,5,-3,-4
1532233387089,-7,12,-1,1,0,-1,2,0
1532233387094,14,68,17,4,-1,0,0,4
1532233387099,-9,48,-2,4,5,3,0,-2
1532233387104,-4,-5,-17,-3,-7,-4,-6,-4
1532233387109,10,20,3,0,2,0,0,0
1532233387114,-10,-2,1,-2,-1,0,0,-5
1532233387119,5,7,-4,-1,-4,-2,-1,2
1532233387124,-1,10,6,3,1,-5,1,1
1532233387129,-1,-11,-3,-2,-2,3,0,0
1532233387134,2,39,-1,2,1,-2,0,0
1532233387139,-2,-59,-13,-3,-4,-2,-1,-2
1532233387144,-1,2,6,-1,1,0,-1,0
1532233387149,-2,-14,-4,-4,-5,-5,-5,-3
1532233387154,2,11,-1,3,2,2,1,-1
1532233387159,4,18,6,1,-1,3,-1,-1
1532233387164,-13,-72,-20,-5,3,2,-2,-4
1532233387169,2,7,1,6,-4,-1,1,6
1532233387174,-4,-3,1,-2,1,0,-2,-6
1532233387179,-4,3,10,-1,-2,-5,1,-1
1532233387184,15,5,-10,0,-1,2,1,9
1532233387189,-9,59,1,-1,4,1,-3,-17
1532233387194,-10,0,-9,-6,-8,-6,-7,-5
1532233387199,5,25,4,3,1,4,0,2
1532233387204,2,-16,3,2,-3,-7,1,4
1532233387209,8,-31,0,-2,1,8,2,5
1532233387214,-4,17,6,4,1,1,5,7
1532233387219,-2,-18,-16,-8,-2,-4,-1,9
1532233387224,-5,29,8,2,-1,-1,-1,-22
1532233387229,-13,12,-3,0,-4,-8,-5,-9
1532233387234,14,22,11,4,3,0,0,0
1532233387239,-10,-71,-11,-5,-3,-1,-2,-1
1532233387244,11,18,-1,-3,-2,-4,-5,12
1532233387249,8,25,2,1,1,1,12,8
1532233387254,-25,-89,-1,-5,0,1,-6,-12
1532233387259,13,69,7,0,1,1,0,4
1532233387264,-4,15,8,0,-3,-2,-1,6
1532233387269,3,-20,-6,-3,-2,-1,0,4
1532233387274,7,10,-3,1,-1,-2,-3,4
1532233387279,-9,-38,-4,0,-2,0,-4,-15
1532233387284,4,-18,-11,-3,1,-1,-1,2
1532233387289,7,6,13,0,-1,-3,-2,-2
1532233387294,-13,29,-2,0,0,-1,4,3
1532233387299,9,55,-2,1,0,0,0,-2
1532233387304,-38,-49,-7,-4,0,-3,-4,-5
1532233387309,20,3,-5,-1,1,-1,3,3
1532233387314,-12,-7,-1,-3,-2,1,-2,-13
1532233387319,3,-44,-10,-1,1,-1,-1,-7
1532233387324,12,-11,8,0,0,3,3,10
1532233387329,-18,-17,-2,-5,-6,-9,-2,-5
1532233387334,3,-11,-10,-7,0,2,1,0
1532233387339,-22,-36,-19,-5,-2,7,-4,3
1532233387344,8,-26,10,3,5,-11,-1,-18
1532233387349,0,0,-5,2,-4,-6,6,22
1532233387354,25,34,1,-2,1,9,-6,-9
1532233387359,-51,57,13,5,2,4,-1,-16
1532233387364,14,-57,-25,-2,0,2,0,19
1532233387369,-7,27,1,-4,-1,-1,1,-14
1532233387374,-3,-8,1,0,-3,-5,-2,1
1532233387379,23,0,-8,-3,0,-3,0,13
1532233387384,-4,28,0,2,1,2,0,-2
1532233387389,-12,55,11,1,-2,-4,-8,-5
1532233387394,2,68,4,-2,-2,1,7,5
1532233387399,-10,-102,-37,-7,1,-3,-5,-11
1532233387404,-8,20,7,-2,-5,-1,1,6
1532233387409,20,-9,7,2,0,3,20,9
1532233387414,3,59,15,4,0,-1,-5,1
1532233387419,15,-27,-3,-2,-8,-9,-2,19
1532233387424,-12,38,-3,-11,3,3,-1,-4
1532233387429,20,-7,9,8,-3,1,0,-9
1532233387434,-26,5,-19,-5,-2,0,-3,8
1532233387439,-5,55,0,-3,0,1,1,-34
1532233387444,33,88,22,3,1,1,-3,5
1532233387449,-13,-90,-33,-13,-5,-5,7,-25
1532233387454,-10,-10,1,3,3,-4,-9,7
1532233387459,27,-11,13,2,-2,7,3,17
1532233387464,-1,29,0,-2,-1,3,0,7
1532233387469,-8,12,3,1,4,-3,-2,-12
1532233387474,11,-9,-13,-4,-3,0,6,-2
1532233387479,-2,-94,-17,-9,-3,-2,-3,20
1532233387484,-17,-28,2,-2,-1,3,0,2
1532233387489,11,15,1,-2,-4,3,-3,-8
1532233387494,-39,-77,-5,-3,3,-18,-7,-29
1532233387499,36,68,14,3,-3,0,-1,9
1532233387504,-1,75,10,8,2,1,3,14
1532233387509,-2,-30,-8,-6,0,1,-5,15
1532233387514,23,112,23,6,0,4,4,1
1532233387519,-59,-5,-9,-1,2,-1,-4,-41
1532233387524,13,11,-5,-7,-7,-10,-7,0
1532233387529,5,33,1,3,4,5,0,21
1532233387534,-6,-56,-14,-8,-6,0,0,0
1532233387539,25,88,44,12,5,1,5,5
1532233387544,-23,-128,-47,-8,-4,-3,-7,0
1532233387549,-13,1,-1,-3,-1,-2,-9,-25
1532233387554,-21,19,5,2,-1,-8,-2,-28
1532233387559,16,-47,-6,0,-1,3,1,22
1532233387564,-4,-26,-1,-4,-2,-1,3,-7
1532233387569,-15,-12,-1,0,2,3,2,26
1532233387574,35,91,16,7,2,3,3,-3
1532233387579,-39,-70,-23,-6,2,-4,-8,-20
1532233387584,5,-27,-6,-2,-6,-2,-2,0
1532233387589,2,-11,5,-1,-1,5,1,8
1532233387594,0,0,0,-4,-5,1,1,2
1532233387599,16,16,5,7,8,4,3,8
1532233387604,5,-55,-10,-3,-3,-5,2,-2
1532233387609,0,-3,7,1,0,0,-2,-2
1532233387614,4,-3,-16,1,-1,0,3,6
1532233387619,-27,82,4,-7,0,4,-5,-22
1532233387624,13,22,11,2,0,1,0,1
1532233387629,5,28,4,1,-1,-5,-3,-5
1532233387634,12,-43,-5,1,0,-2,1,27
1532233387639,-6,-94,-23,-8,-2,-7,-1,-4
1532233387644,-17,41,14,0,-2,2,-1,-18
1532233387649,18,80,10,3,-1,-4,-2,5
1532233387654,-25,-53,-25,-10,-6,-2,-4,-4
1532233387659,14,21,3,-1,1,-2,1,21
1532233387664,8,8,12,4,2,13,10,-13
1532233387669,-2,-17,-18,0,-1,-6,-21,-6
1532233387674,-14,-49,-14,-4,0,1,1,0
1532233387679,8,34,1,-6,-5,-1,-10,-7
1532233387684,-25,19,1,0,1,3,3,0
1532233387689,10,-35,-2,0,-1,-2,3,11
1532233387694,-29,45,11,2,4,-3,-2,-19
1532233387699,6,63,5,4,0,3,1,-26
1532233387704,2,-56,-13,-6,-6,-12,-11,0
1532233387709,-5,-21,-8,-4,5,2,3,-8
1532233387714,-6,1,2,-3,-12,-2,-3,-8
1532233387719,6,13,13,3,16,-1,3,24
1532233387724,8,8,-15,0,-3,0,1,2
1532233387729,-7,86,25,3,-5,-5,0,-9
1532233387734,20,-55,-1,1,1,7,1,6
1532233387739,-36,-39,-14,-9,-8,-1,-2,-6
1532233387744,37,90,19,6,6,6,4,35
1532233387749,-66,-26,-14,-5,-5,-1,-6,-42
1532233387754,24,48,22,5,0,4,4,6
1532233387759,-8,-27,-15,-2,-6,-7,-2,-9
1532233387764,20,39,24,7,5,-1,9,13
1532233387769,-10,-87,-45,-12,-34,-3,-8,6
1532233387774,2,60,7,-6,49,-4,-5,-6
1532233387779,3,2,4,9,-15,5,7,13
1532233387784,-6,36,6,0,-4,9,4,1
1532233387789,31,-18,8,-1,8,3,10,22
1532233387794,-33,-10,-1,0,-20,-14,-16,-42
1532233387799,34,5,-5,-3,2,-4,3,22
1532233387804,-2,-8,-17,-4,1,0,-11,-29
1532233387809,-38,0,5,2,-8,-16,-3,-21
1532233387814,36,42,-7,-2,5,17,9,31
1532233387819,-1,13,9,0,4,-3,-4,-10
1532233387824,-29,-68,-16,-7,-10,9,-5,3
1532233387829,21,-32,-12,-3,3,-27,-2,8
1532233387834,2,19,-3,-1,5,28,4,0
1532233387839,0,24,13,1,-3,-8,8,6
1532233387844,15,-23,-1,-1,-3,-11,-17,1
1532233387849,-35,13,20,0,8,11,-1,-17
1532233387854,4,0,-13,1,-4,4,3,0
1532233387859,-10,-31,4,-4,-6,0,-2,1
1532233387864,-1,-15,-8,1,2,-7,5,-1
1532233387869,31,50,16,5,2,6,4,33
1532233387874,-20,-98,-9,-6,-4,-12,-5,-19
1532233387879,-6,20,-14,-6,-2,9,-8,-6
1532233387884,-12,70,8,2,-1,-8,0,-2
1532233387889,8,-3,3,-1,-4,10,-1,-1
1532233387894,-24,-25,-32,-9,-15,-20,-5,-28
1532233387899,15,0,15,2,3,-3,0,4
1532233387904,-1,-13,-8,-1,8,3,0,-4
1532233387909,20,41,2,5,8,14,6,22
1532233387914,0,9,0,-2,-8,-8,5,-7
1532233387919,-15,-16,-4,-1,4,5,-6,-9
1532233387924,3,4,-2,-1,-3,-7,2,-2
1532233387929,8,-4,-7,-3,-1,0,-1,4
1532233387934,10,14,17,3,-4,-9,-1,12
1532233387939,-2,10,-10,0,-2,-1,-2,-10
1532233387944,1,-15,9,1,3,1,2,7
1532233387949,-2,-55,-19,-1,-2,-5,-1,-9
1532233387954,2,49,14,2,1,1,-3,7
1532233387959,-1,-5,2,2,5,-1,-1,0
1532233387964,-14,-64,-17,-3,-6,16,0,-5
1532233387969,-5,-15,-1,-5,-3,-5,-2,-8
1532233387974,3,2,6,3,-2,-9,-2,9
1532233387979,2,12,-1,0,-1,-7,1,3
1532233387984,-1,73,10,-1,8,14,-1,-7
1532233387989,-7,-25,-7,2,4,-1,-1,-5
1532233387994,-3,-5,9,-5,-7,1,-2,11
1532233387999,1,-26,-6,-4,-3,-7,-2,-1
1532233388004,-1,-14,3,-3,-1,-11,-2,-6
1532233388009,5,-6,3,3,0,3,1,1
1532233388014,2,-19,-6,-2,2,13,-1,6
1532233388019,8,10,2,3,0,-16,-2,5
1532233388024,-2,-43,-5,-6,3,-6,-2,-11
1532233388029,3,0,1,0,-1,1,1,4
1532233388034,-3,7,5,1,-10,-10,1,-6
1532233388039,17,8,4,0,4,9,1,26
1532233388044,5,57,2,4,6,0,-2,-17
1532233388049,-24,20,-4,-1,2,2,-3,-5
1532233388054,-2,-8,3,-6,-9,-12,-3,3
1532233388059,-3,-7,4,-2,4,0,-1,-8
1532233388064,11,2,-3,-2,-8,1,0,15
1532233388069,1,-8,0,-1,2,-2,-1,-3
1532233388074,-3,33,12,4,0,-2,-1,-5
1532233388079,-6,-38,-2,0,-5,-3,0,0
1532233388084,-3,10,2,3,1,-1,0,-1
1532233388089,-3,-84,-16,-6,-5,4,-1,0
1532233388094,-11,15,-8,-1,-4,-24,-3,-5
1532233388099,6,15,1,-2,5,9,0,-11
1532233388104,-5,-9,-10,1,-2,-2,-1,3
1532233388109,-3,-54,1,-3,0,-6,-2,-2
1532233388114,5,4,-5,3,-7,4,-1,3
1532233388119,-4,-10,-3,-6,4,2,-1,-2
1532233388124,4,23,7,1,2,4,-2,1
1532233388129,8,31,5,1,-5,3,-1,1
1532233388134,-3,-52,-9,-3,8,5,-1,-2
1532233388139,-2,9,0,3,-3,-6,0,6
1532233388144,-3,-3,-13,-2,-1,2,0,-12
1532233388149,-14,14,2,0,-2,-2,-1,-6
1532233388154,21,14,4,-2,1,-1,2,10
1532233388159,-3,-55,-16,-4,-1,16,-1,-9
1532233388164,-10,-13,18,-2,6,-12,-5,-2
1532233388169,-2,-1,-13,0,-13,-5,1,5
1532233388174,-4,26,2,2,11,16,1,-14
1532233388179,-2,19,-2,1,-4,-12,-2,12
1532233388184,5,29,9,3,-1,1,2,4
1532233388189,9,-7,1,-2,-2,-4,-3,-4
1532233388194,-12,27,2,0,4,5,-2,1
1532233388199,7,12,-3,-1,1,-2,0,-3
1532233388204,0,-15,-5,3,0,4,-1,2
1532233388209,-4,45,6,0,-1,-8,-2,-2
1532233388214,2,-13,-8,-1,-4,-5,1,4
1532233388219,-10,5,-4,-6,2,12,-4,-6
1532233388224,0,-17,-8,-2,-1,-6,-1,-1
1532233388229,1,10,11,-3,0,6,0,1
1532233388234,6,14,9,4,2,3,1,-1
1532233388239,-12,-38,-7,-4,-5,-9,-1,-7
1532233388244,4,-12,-4,-1,-3,3,2,12
1532233388249,2,-13,-6,-1,-2,-2,-1,0
1532233388254,1,9,2,0,9,-1,-2,-2
1532233388259,-4,-11,2,0,-5,-3,0,-13
1532233388264,-4,-6,-2,-2,-1,0,-1,3
1532233388269,4,-12,2,1,0,0,1,2
1532233388274,0,18,-5,-1,-6,-12,0,2
1532233388279,7,-6,-1,1,4,3,0,7
1532233388284,1,24,4,3,2,1,0,-9
1532233388289,-3,-4,-4,-3,2,-1,-1,4
1532233388294,4,-1,-1,-1,-8,-1,0,0
1532233388299,1,44,13,2,2,-2,-2,-2
1532233388304,1,-47,-7,-4,-3,-3,0,-1
1532233388309,3,16,4,2,0,2,-1,3
1532233388314,-6,-7,-6,-2,-6,-2,-2,-5
1532233388319,-1,-10,5,4,8,2,1,4
1532233388324,-10,9,-5,-4,0,-2,-3,-2
1532233388329,8,3,-3,-2,3,1,0,3
1532233388334,-9,-39,-3,-3,-7,-3,-3,-3
1532233388339,-2,-4,0,-2,-4,-7,-2,-4
1532233388344,3,20,3,2,1,0,1,1
1532233388349,-6,-34,-15,-4,-3,-1,-4,-5
1532233388354,5,0,0,-1,2,6,0,4
1532233388359,-5,18,3,1,-2,-2,-1,-4
1532233388364,9,33,1,-2,0,-2,-1,0
1532233388369,-4,-18,-7,-1,-1,-1,0,-2
1532233388374,-4,4,1,-2,-2,-1,1,0
1532233388379,8,3,0,0,-1,-2,0,6
1532233388384,2,18,1,0,-1,0,2,5
1532233388389,-10,-31,-6,-1,-8,0,-3,-10
1532233388394,-5,-15,0,-3,7,4,-2,-10
1532233388399,2,9,0,1,3,-4,-1,1
1532233388404,0,-11,-3,-3,-10,-13,-2,7
1532233388409,-10,14,-4,-3,8,12,-3,-3
1532233388414,6,26,1,1,-5,1,2,10
1532233388419,-11,13,-11,-5,-10,-3,2,-16
1532233388424,4,-29,3,0,7,3,-2,4
1532233388429,-10,-17,-7,-3,-6,-10,-1,-6
1532233388434,6,27,1,-1,6,2,-5,-9
1532233388439,6,-47,3,2,1,0,0,11
1532233388444,1,7,0,-2,-3,2,-2,0
1532233388449,4,16,11,6,1,-1,3,0
1532233388454,3,21,4,2,-9,-12,2,7
1532233388459,4,14,2,-3,7,5,0,-5
1532233388464,-4,-38,-6,-2,-1,1,0,0
1532233388469,-3,0,0,-1,2,0,-3,1
1532233388474,6,23,-1,-2,-1,-4,-1,-1
1532233388479,11,23,3,2,0,-2,2,13
1532233388484,1,11,-1,2,-9,5,0,-10
1532233388489,-23,5,3,-3,10,-9,-1,-6
1532233388494,6,-1,7,3,-3,-1,0,-2
1532233388499,-11,-75,-18,-6,-7,-2,-3,-5
1532233388504,12,42,12,5,6,3,3,22
1532233388509,17,16,0,0,-1,1,3,-2
1532233388514,-31,-7,6,-1,0,-1,-6,-17
1532233388519,4,-29,-9,-3,-7,-7,-2,1
1532233388524,-3,-22,-11,-3,-4,-4,-3,-6
1532233388529,10,20,6,1,3,3,1,7
1532233388534,-7,-81,-18,-3,6,1,-1,5
1532233388539,8,59,23,6,-9,-11,2,0
1532233388544,-11,-38,-14,-8,3,14,-2,-7
1532233388549,0,10,-6,-1,-9,6,0,-2
1532233388554,23,76,11,4,8,1,4,20
1532233388559,-29,-10,-7,-4,3,5,-5,-22
1532233388564,-15,-47,-23,-7,-9,-5,-3,-7
1532233388569,5,-4,2,0,2,-5,-3,2
1532233388574,6,14,5,-1,-1,8,-1,6
1532233388579,9,22,6,3,0,0,1,-2
1532233388584,-8,-54,-9,-1,4,2,0,4
1532233388589,-6,-25,0,-6,-10,-13,-3,-11
1532233388594,-10,5,-10,-4,6,12,-1,-5
1532233388599,9,-26,-4,-3,2,4,-1,7
1532233388604,3,44,7,1,-1,-5,0,1
1532233388609,3,10,2,2,-1,-2,1,2
1532233388614,-7,-5,1,1,-6,-11,-3,-10
1532233388619,-9,-6,-8,-7,-3,-1,-4,-9
1532233388624,8,32,10,2,3,-8,-1,-2
1532233388629,-3,-33,-3,-3,-1,3,-1,8
1532233388634,4,18,5,2,-3,0,1,1
1532233388639,-6,-11,-2,-3,5,1,-2,-1
1532233388644,2,-5,7,3,0,-2,2,-1
1532233388649,-3,0,-11,1,-2,4,-1,-1
1532233388654,-1,1,0,-2,-2,-5,0,-5
1532233388659,4,26,2,2,0,-1,0,3
1532233388664,3,-3,6,-1,-2,0,1,-1
1532233388669,2,20,4,8,10,3,0,2
1532233388674,-8,-32,-5,-2,-7,-2,-1,-5
1532233388679,4,53,-2,0,-1,9,0,5
1532233388684,3,53,8,4,1,-7,-1,-2
1532233388689,2,6,-6,-4,-3,0,-1,-3
1532233388694,-4,-24,-9,-5,-4,-4,-1,-2
1532233388699,6,2,4,0,-2,-6,2,2
1532233388704,-3,20,8,0,-9,-2,-1,0
1532233388709,-3,-11,2,2,9,4,0,-4
1532233388714,6,0,-2,-3,-6,-11,0,-1
1532233388719,3,-7,-3,-1,-1,3,-3,0
1532233388724,-3,7,-7,-2,-1,2,-2,-4
1532233388729,-2,-17,-1,-1,0,-5,0,4
1532233388734,2,-6,0,-2,-5,-6,0,0
1532233388739,-2,-4,2,0,7,17,1,-1
1532233388744,-3,-13,-1,3,3,-2,-2,1
1532233388749,2,23,4,0,-5,0,1,4
1532233388754,-5,-20,-1,-2,2,-10,-3,-2
1532233388759,-10,6,3,1,-8,-2,1,-8
1532233388764,7,1,-1,0,-1,0,-1,-1
1532233388769,-4,30,2,0,-3,0,-1,-1
1532233388774,-1,67,3,3,10,9,0,-1
1532233388779,0,-23,-9,-6,-6,-7,-3,0
1532233388784,-2,12,0,-2,1,-1,0,-1
1532233388789,-6,-41,-4,1,-7,-9,-3,-2
1532233388794,11,12,3,-2,-5,2,0,6
1532233388799,1,9,3,0,2,-4,1,-2
1532233388804,-2,1,-4,-2,-7,-7,2,21
1532233388809,12,12,1,1,6,11,2,-14
1532233388814,-30,-10,8,-2,-2,-2,-7,-21
1532233388819,17,-13,-15,-2,1,-5,-1,-1
1532233388824,3,-27,4,-1,-3,3,-1,1
1532233388829,8,-2,-2,-3,1,-2,1,18
1532233388834,10,-28,-7,5,0,11,5,7
1532233388839,-25,-28,-11,-5,-3,-10,-6,-14
1532233388844,-1,5,1,-1,-6,4,0,0
1532233388849,12,41,11,1,8,-14,-1,14
1532233388854,-5,-35,-8,-1,-4,-1,-1,-13
1532233388859,-2,8,19,0,-3,-2,-1,1
1532233388864,-1,-37,-22,0,-8,0,1,-5
1532233388869,-11,36,3,-10,-2,7,-8,-9
1532233388874,8,4,2,0,8,1,0,15
1532233388879,7,-22,16,7,0,0,5,5
1532233388884,-6,29,-42,-8,3,-6,-6,-6
1532233388889,-15,21,9,3,-10,-2,-3,-10
1532233388894,-9,22,-3,-7,-3,-8,-5,-15
1532233388899,-6,-73,-22,-1,3,8,1,13
1532233388904,3,20,24,0,-9,2,2,-10
1532233388909,-6,-15,-10,-2,16,-21,-9,-1
1532233388914,7,-24,-9,-5,-8,3,5,15
1532233388919,11,49,4,2,0,7,2,13
1532233388924,3,23,2,2,9,4,0,-20
1532233388929,-19,-24,2,0,-7,1,1,-3
1532233388934,10,23,15,3,-2,-5,0,9
1532233388939,-16,-66,-24,-4,-8,-10,-5,-20
1532233388944,17,49,36,3,17,-3,3,29
1532233388949,-9,-4,10,0,-9,2,0,-21
1532233388954,17,-80,-16,1,3,3,0,8
1532233388959,1,95,17,1,-5,-11,6,-1
1532233388964,-16,-75,-14,-6,0,31,-9,-14
1532233388969,20,-10,0,3,1,-18,4,15
1532233388974,-8,14,-3,0,2,-4,-1,-8
1532233388979,18,49,16,-3,-4,-3,-5,7
1532233388984,-22,-25,5,2,1,-4,0,4
1532233388989,11,18,-10,-2,-2,-2,-1,-15
1532233388994,-32,-16,-10,-2,-5,6,-6,-12
1532233388999,15,41,-4,-1,-3,-8,-3,5
1532233389004,-10,-13,8,-2,1,-4,0,12
1532233389009,7,-63,-23,-3,-2,6,2,-6
1532233389014,-3,15,-6,-2,0,-9,-2,0
1532233389019,-6,23,2,-5,2,5,-1,-8
1532233389024,8,-10,6,2,-1,-9,0,3
1532233389029,0,24,3,-4,-20,15,1,8
1532233389034,2,4,12,2,32,-10,-2,-4
1532233389039,-3,-40,-16,-5,-4,1,-4,-6
1532233389044,4,13,-5,0,-8,-4,0,-12
1532233389049,-5,-13,-3,1,1,-3,-2,6
1532233389054,6,54,2,-3,-9,10,-1,4
1532233389059,-8,-8,-17,-1,2,6,-1,1
1532233389064,-2,-15,-9,-2,5,-18,-5,0
1532233389069,0,-21,1,-4,-2,5,0,-4
1532233389074,-8,25,15,2,-8,-3,0,-8
1532233389079,9,4,-4,-2,1,-5,-1,-1
1532233389084,0,-40,-14,-4,-6,-19,-9,-7
1532233389089,4,49,6,0,5,46,20,8
1532233389094,7,-52,2,0,-10,-79,-3,7
1532233389099,-8,-54,-2,-5,2,83,-1,-10
1532233389104,-6,9,-2,0,4,-2,-7,-3
1532233389109,2,4,12,2,2,-6,0,11
1532233389114,-3,5,4,2,-3,13,2,2
1532233389119,-6,10,-16,-2,-7,-33,-1,-6
1532233389124,8,36,23,2,3,11,3,2
1532233389129,-22,-31,-20,-7,-3,0,-8,-9
1532233389134,6,31,7,-3,-8,-10,1,-4
1532233389139,13,67,24,6,5,-13,0,6
1532233389144,-14,-13,-6,2,0,15,2,-3
1532233389149,-1,-5,-31,1,-4,-22,-4,-3
1532233389154,-3,-45,-17,-7,-3,7,-3,-1
1532233389159,-5,-10,3,0,3,-3,0,3
1532233389164,5,42,3,2,-1,2,4,-2
1532233389169,-8,-27,3,3,3,-8,-6,-4
1532233389174,-1,-13,-9,-4,-3,16,-2,-3
1532233389179,8,5,6,0,3,2,2,13
1532233389184,-9,-79,-7,-4,-3,-8,-1,-14
1532233389189,-10,-22,1,0,-2,-12,-4,-4
1532233389194,9,18,-9,-4,3,17,0,0
1532233389199,-9,-34,3,-1,-6,-17,0,-3
1532233389204,10,33,4,0,-1,-6,1,3
1532233389209,1,-3,3,1,2,3,1,4
1532233389214,-3,12,9,2,0,9,-1,2
1532233389219,3,-7,-29,-2,1,-7,-1,-7
1532233389224,-5,5,0,-1,-3,2,-1,-2
1532233389229,8,10,2,-3,-2,-1,-2,-1
1532233389234,-1,3,8,-3,-1,2,-1,-2
1532233389239,9,22,13,6,-1,-6,0,0
1532233389244,-6,-93,-9,1,0,5,1,1
1532233389249,5,71,5,0,-22,-10,0,-1
1532233389254,-1,-20,-8,-1,19,12,0,6
1532233389259,-4,-3,5,-2,-3,-5,0,3
1532233389264,-2,26,3,0,2,1,0,-8
1532233389269,-9,24,11,1,0,-4,-4,-20
1532233389274,3,-37,-12,-5,-11,-1,-1,2
1532233389279,1,18,14,2,2,3,0,2
1532233389284,6,12,-16,-3,-3,-3,1,9
1532233389289,-5,-67,-9,-3,1,-3,-2,1
1532233389294,5,47,0,2,-2,2,-1,-6
1532233389299,-17,-34,-2,0,1,-3,-1,-5
1532233389304,15,26,8,-2,-6,-5,-1,8
1532233389309,-6,-68,-8,-2,6,3,-2,-6
1532233389314,-3,-19,-6,0,-1,2,1,0
1532233389319,5,8,-1,-3,-5,-5,-2,0
1532233389324,-9,3,11,2,-3,-6,-2,-7
1532233389329,3,55,13,4,2,-3,-1,7
1532233389334,-17,-78,-16,-4,-8,-3,-2,-15
1532233389339,7,-4,1,-1,-4,0,-1,3
1532233389344,-1,-37,-9,-1,5,-2,-2,-4
1532233389349,-5,4,11,2,-2,0,0,-3
1532233389354,1,-6,-19,-2,-6,0,-2,0
1532233389359,-4,8,3,-6,1,0,0,1
1532233389364,7,29,5,3,2,-6,1,6
1532233389369,-2,-7,4,-1,-5,4,-2,-2
1532233389374,7,-6,6,-1,-1,2,1,-4
1532233389379,-7,35,3,1,5,-2,-3,-5
1532233389384,3,-41,-8,-1,2,0,-1,0
1532233389389,5,-9,-1,1,-5,-5,1,2
1532233389394,3,21,12,2,0,1,0,22
1532233389399,-1,-73,-14,-5,0,-3,-5,-32
1532233389404,-23,66,13,0,-1,0,-3,-2
1532233389409,11,-75,-8,-6,-2,-3,-1,4
1532233389414,-3,12,1,2,3,1,0,-4
1532233389419,9,-18,-4,0,-2,-1,1,14
1532233389424,0,5,3,-1,-7,0,0,-2
1532233389429,-6,8,3,-1,10,2,-2,-5
1532233389434,6,58,7,2,0,2,0,1
1532233389439,-8,-28,-9,-3,-4,-2,1,0
1532233389444,7,47,15,2,3,1,0,-4
1532233389449,-11,0,-20,-4,-6,-5,-5,0
1532233389454,2,16,9,0,-1,-3,-2,-7
1532233389459,-11,-36,-17,-7,-6,-8,-3,-4
1532233389464,-2,0,-3,0,7,6,1,1
1532233389469,2,9,-1,-2,-14,-4,-1,2
1532233389474,-3,-5,4,0,18,4,-3,-5
1532233389479,6,51,2,4,-13,-5,1,3
1532233389484,2,-30,-11,-4,9,2,0,3
1532233389489,-6,-9,-4,-4,-5,-3,-1,-4
1532233389494,-7,2,3,0,-3,-1,0,-6
1532233389499,3,-3,7,2,3,1,1,5
1532233389504,1,3,16,-3,-2,-4,0,0
1532233389509,1,-14,-28,-2,0,1,-2,-3
1532233389514,1,0,-1,-2,-5,-2,-2,-1
1532233389519,5,19,5,1,4,2,-1,2
1532233389524,-9,5,-6,0,-1,-1,-2,-6
1532233389529,8,7,4,2,-1,-6,0,1
1532233389534,-5,-14,-4,-1,0,3,-1,-3
1532233389539,-4,-16,-3,-3,-1,-1,-2,2
1532233389544,7,18,2,2,-3,-1,0,2
1532233389549,-6,-15,5,-3,-3,-2,0,-1
1532233389554,12,2,-9,0,-1,-2,0,4
1532233389559,-5,16,12,-1,-1,1,1,-1
1532233389564,3,2,0,5,1,1,0,0
1532233389569,-2,5,-3,-4,1,1,-2,-1
1532233389574,0,-8,-1,-2,-4,-6,-1,-2
1532233389579,1,24,-3,2,3,4,1,0
1532233389584,2,8,0,-4,-3,-4,-2,0
1532233389589,0,0,8,2,1,0,0,1
1532233389594,-6,-4,3,-4,-3,-3,-1,-4
1532233389599,0,7,-1,0,-8,-1,0,1
1532233389604,2,2,-8,1,10,-2,0,1
1532233389609,1,15,6,2,0,3,1,1
1532233389614,0,10,-2,-2,-1,-2,-2,-2
1532233389619,1,-17,-4,-3,-1,-3,0,0
1532233389624,1,9,5,1,-3,1,0,0
1532233389629,2,2,-3,0,1,2,0,1
1532233389634,-5,-10,-5,-2,-2,0,-3,0
1532233389639,-2,6,-2,2,3,1,-1,-2
1532233389644,-3,-6,6,-2,-5,0,-1,-2
1532233389649,-8,-62,-9,-1,1,-3,-2,-3
1532233389654,1,-8,6,-2,-5,-1,1,0
1532233389659,-7,-9,-4,-4,1,-1,-2,-3
1532233389664,2,-12,-2,1,-2,0,0,-2
1532233389669,1,11,1,1,-1,-1,0,1
1532233389674,-1,5,-2,1,-2,1,0,0
1532233389679,0,-31,-3,-2,0,-2,1,0
1532233389684,1,1,-3,0,0,-1,0,1
1532233389689,-4,22,1,0,-1,0,-2,-2
1532233389694,-1,-20,-6,0,-2,-2,-1,-5
1532233389699,2,10,7,-3,0,-1,-1,1
1532233389704,0,2,-2,0,-3,-1,-2,-1
1532233389709,-4,6,-6,-3,-4,-2,-2,-2
1532233389714,-4,-1,4,-3,0,1,0,0
1532233389719,5,16,1,4,1,1,1,0
1532233389724,0,-7,4,-1,-1,0,0,2
1532233389729,-3,-4,6,-1,0,-2,0,-11
1532233389734,-2,-6,1,1,-1,-3,0,-4
1532233389739,0,-21,-11,-2,1,-2,-3,1
1532233389744,2,13,-7,0,0,1,0,3
1532233389749,2,-5,11,-3,0,1,0,5
1532233389754,1,27,-3,1,-2,-1,0,-1
1532233389759,-4,-14,3,2,1,-1,-3,-3
1532233389764,-3,-23,-5,-2,-2,-4,-2,-4
1532233389769,-6,23,-4,-1,-1,0,-1,0
1532233389774,1,-12,-12,0,-1,-1,2,-2
1532233389779,12,22,12,2,1,-2,0,4
1532233389784,-2,-5,-3,-1,1,1,0,-2
1532233389789,4,4,4,2,-1,1,0,-1
1532233389794,-7,-10,3,-3,-1,-1,-3,-1
1532233389799,1,16,0,2,-1,1,0,-1
1532233389804,-3,-1,-4,-1,-1,-1,0,-1
1532233389809,2,11,0,0,-1,-1,1,0
1532233389814,0,-2,-1,-4,-1,-1,-2,-1
1532233389819,-2,1,2,3,0,1,1,0
1532233389824,-5,-2,-6,-4,0,-3,-1,-3
1532233389829,0,-7,-1,2,-1,0,0,1
1532233389834,-6,-11,2,0,-1,-2,-1,-1
1532233389839,0,8,-5,-1,0,1,0,-2
1532233389844,0,11,4,-1,-2,-1,-1,0
1532233389849,0,-11,-4,-3,-3,-1,-2,-2
1532233389854,-6,0,0,1,0,-1,1,1
1532233389859,-6,5,6,-2,-1,-1,0,0
1532233389864,3,2,-2,-2,-2,-1,0,2
1532233389869,-4,-9,1,0,0,1,-1,-2
1532233389874,3,6,4,0,0,0,-1,-1
1532233389879,-1,-8,6,-2,-2,-1,0,-1
1532233389884,0,16,2,-2,-2,0,1,0
1532233389889,0,2,-6,0,0,-2,-1,2
1532233389894,3,0,3,-2,-1,-1,-3,-2
1532233389899,-2,-1,-7,-1,-1,0,0,0
1532233389904,-1,0,5,0,-1,-1,-1,-2
1532233389909,-3,7,-2,0,0,0,-2,-1
1532233389914,-2,-14,-2,2,0,1,0,1
1532233389919,-3,8,0,-3,-3,-2,-1,-2
1532233389924,-3,5,0,0,0,-2,0,0
1532233389929,2,-3,-4,0,2,-1,-1,1
1532233389934,-1,-6,-1,-1,-3,0,-1,-1
1532233389939,0,4,0,1,0,0,-2,-1
1532233389944,-7,-9,-8,-3,-3,-2,-2,-4
1532233389949,0,-11,-8,-1,-1,0,-1,-2
1532233389954,0,2,-2,0,1,-3,0,-1
1532233389959,0,6,4,-1,-1,-2,-1,0
1532233389964,2,-11,3,1,1,0,0,-2
1532233389969,-1,0,-3,-4,-2,0,-2,-2
1532233389974,2,5,8,-1,-1,2,1,1
1532233389979,0,-3,-14,-3,-1,1,0,-2
1532233389984,-1,-4,3,-1,0,-2,-2,0
1532233389989,0,3,5,2,1,0,2,2
1532233389994,1,1,-6,-2,-2,-2,-1,-1
1532233389999,4,0,-1,2,1,-1,-3,-1
1532233390004,0,-4,-1,-2,-4,0,-1,-1
1532233390009,7,-1,-2,-3,-1,-1,2,0
1532233390014,0,5,-3,2,0,1,0,0
1532233390019,1,1,4,0,-1,0,-1,-1
1532233390024,-3,-6,-8,-2,1,0,-3,-1
1532233390029,3,9,6,0,-1,1,0,0
1532233390034,-2,-6,-6,-4,-1,-1,-1,-1
1532233390039,1,-1,4,-1,0,-2,0,0
1532233390044,2,-1,3,3,1,1,-1,1
1532233390049,-1,4,-1,-2,0,-3,-1,-1
1532233390054,-2,3,7,1,-1,-1,-1,-3
1532233390059,-2,-8,-15,-2,-1,0,-1,0
1532233390064,-4,19,-1,-1,-3,1,0,0
1532233390069,-6,-32,-4,-3,-2,-2,-1,-2
1532233390074,-2,3,-2,-3,-2,-2,-2,0
1532233390079,-5,6,-3,1,-1,0,-1,-4
1532233390084,5,-1,5,0,0,-1,0,-1
1532233390089,-1,13,-4,-2,-3,0,-2,-2
1532233390094,-2,-21,-4,-1,-1,0,0,2
1532233390099,0,-1,2,-2,1,-1,-2,-1
1532233390104,-3,-3,-4,-3,-1,-2,-2,-2
1532233390109,-2,1,-2,-1,0,-4,-2,-1
1532233390114,2,1,5,1,0,0,0,0
1532233390119,5,-9,-2,1,-1,-1,1,1
1532233390124,-1,9,8,-2,-1,0,0,1
1532233390129,3,-8,-20,0,1,-1,-2,0
1532233390134,-2,7,8,1,-1,-1,-1,-1
1532233390139,-3,-8,-1,0,-3,-1,-1,-3
1532233390144,2,-1,1,-1,0,-1,0,0
1532233390149,-3,-7,5,0,-1,1,0,-1
1532233390154,2,3,-9,0,2,-1,-1,0
1532233390159,-1,23,4,1,0,-1,1,2
1532233390164,-1,-37,-7,-1,-2,0,-1,1
1532233390169,0,33,5,-1,0,0,-1,1
1532233390174,-6,-10,-3,-3,-1,-2,-3,-3
1532233390179,2,0,2,-1,0,-2,-1,0
1532233390184,-3,7,-3,1,-1,-1,0,-1
1532233390189,-2,-6,1,-1,-3,-2,-2,-1
1532233390194,3,11,1,1,-2,0,-2,0
1532233390199,-16,-64,-12,-5,-3,-3,-2,-4
1532233390204,2,8,1,-3,-2,0,0,-1
1532233390209,1,3,3,0,1,1,-1,0
1532233390214,-1,-1,-5,-2,-2,-1,1,0
1532233390219,-4,5,0,-3,0,0,-3,-2
1532233390224,-1,0,-5,3,1,-1,1,-2
1532233390229,-3,-6,3,0,-1,1,1,0
1532233390234,2,0,1,-1,-1,0,1,-2
1532233390239,2,-10,-4,-3,-2,0,0,0
1532233390244,1,3,2,-1,0,0,-1,-2
1532233390249,-1,6,0,-1,-1,1,-1,-2
1532233390254,-9,-25,-5,-2,0,-2,-2,-5
1532233390259,1,12,-2,-2,-2,-1,-2,-2
1532233390264,0,12,-1,0,-1,-2,-1,-2
1532233390269,-3,-8,3,-1,-2,-2,-1,0
1532233390274,0,5,2,0,0,0,-2,2
1532233390279,5,23,6,0,-1,0,1,1
1532233390284,-6,-15,-4,-2,-1,0,-1,-3
1532233390289,3,-1,1,4,-1,0,0,0
1532233390294,-5,-1,-4,-2,-2,-2,-2,-1
1532233390299,6,12,3,-2,-2,1,0,2
1532233390304,-2,-3,-2,0,-1,-1,-1,-1
1532233390309,-1,-10,-5,-1,0,-2,-1,-1
1532233390314,2,5,1,-1,1,1,-1,-1
1532233390319,0,-15,-4,0,-1,-1,0,1
1532233390324,0,-5,-1,0,-2,0,-2,-1
1532233390329,-3,-5,-4,-1,1,2,-2,-1
1532233390334,4,14,-2,-1,-1,-2,-1,0
1532233390339,-2,-7,9,1,-3,-1,0,0
1532233390344,3,5,-1,1,-1,-1,1,0
1532233390349,-5,-1,-1,-2,0,-3,-2,-1
1532233390354,3,23,0,-1,1,1,1,3
1532233390359,-2,4,0,3,0,-2,-2,0
1532233390364,-1,1,-2,0,-1,-2,0,-1
1532233390369,2,-9,1,-2,-2,-1,0,0
1532233390374,-5,-4,0,1,-1,-1,-1,0
1532233390379,-2,6,-2,-4,-1,-2,-2,-4
1532233390384,0,-8,1,1,1,0,-1,1
1532233390389,1,35,1,0,-2,-1,-1,-1
1532233390394,0,-12,-1,-1,-2,-1,1,-1
1532233390399,4,7,1,0,1,0,1,0
1532233390404,-2,-5,1,-1,-2,-1,-2,0
1532233390409,0,-4,-3,-3,0,0,-1,-1
1532233390414,0,-3,1,0,-1,0,0,-1
1532233390419,-2,7,-7,-2,-1,0,-2,-2
1532233390424,1,-17,0,-2,-1,0,-1,0
1532233390429,-1,-10,-1,-3,-2,0,-1,-3
1532233390434,0,-4,0,1,0,0,-1,-2
1532233390439,-2,-5,-2,0,-1,-2,0,0
1532233390444,3,10,1,0,3,1,-2,1
1532233390449,-1,0,0,-1,-2,-2,-1,-1
1532233390454,4,-6,4,-1,1,-1,0,-1
1532233390459,2,22,2,4,2,0,1,-1
1532233390464,-3,-3,-2,-5,-1,-1,-1,0
1532233390469,1,-7,1,0,-3,-1,-1,-2
1532233390474,-2,-3,-4,-3,-4,-2,-1,-2
1532233390479,2,8,3,0,1,0,1,2
1532233390484,1,4,-3,1,-1,-1,-1,-2
1532233390489,2,-1,1,1,2,-1,0,0
1532233390494,-3,-7,-4,-3,-1,-2,0,-1
1532233390499,-5,-16,-4,-2,-2,-1,-1,-2
1532233390504,2,4,-1,-2,0,-1,1,0
1532233390509,-6,-6,-1,-1,0,0,-2,-2
1532233390514,2,-2,-2,1,-3,-1,0,-1
1532233390519,-2,-9,-1,0,-1,0,-1,-1
1532233390524,0,3,0,-1,0,-1,-1,-1
1532233390529,4,3,0,0,-1,1,0,1
1532233390534,0,-3,2,-4,-1,1,-2,-1
1532233390539,-6,-8,-5,-2,0,-2,-2,-2
1532233390544,-1,-2,-1,2,-1,0,-1,1
1532233390549,7,-4,-2,0,0,-1,-1,2
1532233390554,-5,4,1,1,1,-1,-1,0
1532233390559,-1,-16,-1,-1,-1,-2,-1,0
1532233390564,-4,5,-4,-2,-2,-1,-2,-1
1532233390569,0,5,-1,0,-1,-2,2,-2
1532233390574,-3,-10,-5,-1,0,-2,-1,-3
1532233390579,5,-8,-13,-1,0,-1,-1,0
1532233390584,-4,9,4,1,-1,0,0,-2
1532233390589,-4,-18,-8,-1,2,-1,0,0
1532233390594,3,28,3,1,1,-2,-1,-1
1532233390599,-1,-15,4,-1,1,0,-1,-2
1532233390604,-2,-9,-4,-2,0,-2,-2,-3
1532233390609,0,13,-1,0,-1,0,0,0
1532233390614,-3,-8,0,0,0,-1,-2,1
1532233390619,-2,15,0,-1,-2,1,-1,0
1532233390624,-1,11,-3,-1,-2,-1,-1,-1
1532233390629,-1,0,2,-1,-2,-1,0,-1
1532233390634,2,0,-1,0,-1,-1,-1,0
1532233390639,-2,0,-2,-3,0,-1,-2,-2
1532233390644,2,-2,1,-2,-2,-2,-1,0
1532233390649,0,4,0,-2,-2,0,-1,0
1532233390654,2,1,-3,2,-1,1,1,-1
1532233390659,0,3,5,1,-1,0,0,1
1532233390664,-7,-11,-2,-3,-2,-2,-4,-3
1532233390669,-5,-10,-5,-3,-3,0,-2,-4
1532233390674,-1,-19,-6,-2,-2,-1,-1,-1
1532233390679,1,22,10,1,-1,0,1,1
1532233390684,-3,-9,-6,-3,-3,-1,-1,-2
1532233390689,2,8,0,-1,1,0,1,-1
1532233390694,-4,-7,-3,1,-1,1,1,-3
1532233390699,-1,17,2,0,2,0,0,-2
1532233390704,-2,-9,-2,-1,-1,0,-1,-2
1532233390709,2,-7,-1,-1,1,1,0,-1
1532233390714,2,5,0,-2,0,-2,-1,1
1532233390719,3,-28,0,2,-1,0,0,1
1532233390724,0,-6,-3,-3,-3,-1,-1,-1
1532233390729,-6,-8,0,0,-1,-2,-3,-3
1532233390734,0,-2,-2,-1,0,1,-1,-1
1532233390739,9,2,-2,-1,0,-3,1,1
1532233390744,0,1,3,3,-2,-1,-1,-1
1532233390749,1,9,0,0,0,2,2,2
1532233390754,-5,-37,-1,-3,-2,-1,-1,-1
1532233390759,-2,-3,-4,-4,-1,-1,-1,-1
1532233390764,1,8,2,-1,1,1,0,1
1532233390769,-3,1,-2,-3,-1,-2,0,-1
1532233390774,2,15,3,3,2,-1,-1,-1
1532233390779,-6,-6,-1,-2,-2,-2,-1,-2
1532233390784,2,-8,-1,-2,-1,-2,2,0
1532233390789,-4,0,-1,-1,0,-1,-2,-3
1532233390794,-1,6,2,-1,0,0,-1,0
1532233390799,-3,-11,-7,1,0,0,-2,-3
1532233390804,1,8,-2,-1,0,1,0,0
1532233390809,2,-5,1,0,-3,-4,-1,-1
1532233390814,-2,23,-2,-1,-2,0,0,-3
1532233390819,-3,-11,-2,-3,-4,-2,0,-3
1532233390824,0,-2,3,2,1,-1,0,0
1532233390829,1,0,-1,-1,-1,-1,-1,-2
1532233390834,1,-2,-1,-3,-2,-3,-3,-2
1532233390839,0,11,1,0,-2,0,-1,0
1532233390844,-1,0,0,-2,1,-1,-1,-1
1532233390849,0,-7,2,1,1,-1,-1,0
1532233390854,-1,5,-2,-1,-2,0,-1,-1
1532233390859,1,-6,0,-2,0,0,-1,1
1532233390864,-2,7,2,3,-1,-1,1,-1
1532233390869,0,-3,0,1,0,1,0,0
1532233390874,-4,-2,-1,-2,-2,0,0,-1
1532233390879,-3,11,2,1,-1,0,-1,0
1532233390884,2,16,2,-2,-1,-2,0,1
1532233390889,-2,-47,-8,1,0,-2,-1,0
1532233390894,1,-4,1,-1,-2,0,1,0
1532233390899,2,0,0,-2,0,-1,0,0
1532233390904,-2,18,1,-3,-1,0,-2,-1
1532233390909,-4,13,-2,-4,-2,-3,-2,-3
1532233390914,3,-1,-1,0,0,-1,1,1
1532233390919,-4,-5,0,-1,-1,0,-1,-2
1532233390924,-3,-14,-6,-2,0,0,-1,-2
1532233390929,2,12,0,-2,-3,0,0,2
1532233390934,1,-3,-1,0,0,-1,0,0
1532233390939,-5,11,-2,0,-2,0,-3,-5
1532233390944,5,-13,-8,0,2,0,-1,0
1532233390949,-6,-8,-1,-3,0,-2,-1,-1
1532233390954,2,3,-1,-1,-1,0,-2,-2
1532233390959,2,6,-1,0,-2,0,-1,0
1532233390964,-1,-13,-2,-2,1,1,-2,0
1532233390969,-1,9,3,1,-1,-1,-1,-1
1532233390974,-1,-4,-2,-2,-3,0,-1,1
1532233390979,1,-3,-2,-2,1,0,-1,1
1532233390984,0,4,1,1,-1,0,0,-1
1532233390989,-4,5,-1,2,0,1,-1,-2
1532233390994,-3,1,-3,-1,-2,0,-1,-2
1532233390999,-4,1,1,-5,-2,-2,-1,-3
1532233391004,-1,-2,-1,-3,-2,-2,-1,0
1532233391009,3,13,4,0,0,-1,-2,0
1532233391014,-5,-46,-10,-1,0,-1,0,-1
1532233391019,-1,-3,0,-1,-1,0,-1,-1
1532233391024,2,13,4,1,-1,-1,1,0
1532233391029,3,-9,-4,-1,0,0,0,-2
1532233391034,0,14,0,1,0,0,1,0
1532233391039,-2,-2,-3,0,0,-1,0,0
1532233391044,0,-10,2,0,0,1,0,-2
1532233391049,-5,-4,1,-3,-1,0,-2,0
1532233391054,-2,1,0,-2,-2,-3,-2,-2
1532233391059,-3,-5,-2,0,-1,0,-1,0
1532233391064,1,5,4,2,-1,-1,-2,-1
1532233391069,1,1,-3,-3,-2,0,1,1
1532233391074,1,2,1,-3,1,0,-2,-1
1532233391079,-1,-4,2,1,0,-1,0,-2
1532233391084,-2,2,-4,0,-2,0,-2,-2
1532233391089,0,4,4,1,0,-2,0,-1
1532233391094,-3,-5,-3,-1,-1,-3,-1,-2
1532233391099,0,5,-2,0,0,-1,-1,-2
1532233391104,0,-11,-2,-1,-1,1,0,0
1532233391109,2,26,-1,-2,0,-1,1,0
1532233391114,0,3,5,0,-1,-2,-1,0
1532233391119,3,1,-2,-2,-2,-1,-2,0
1532233391124,-3,-2,-1,-2,-1,0,-3,-1
1532233391129,-1,-10,-1,0,0,0,0,1
1532233391134,-2,13,-3,0,0,2,0,1
1532233391139,1,15,0,0,-2,-3,-2,-2
1532233391144,-7,-12,0,0,-1,-3,1,-1
1532233391149,3,-6,-2,1,0,2,0,-1
1532233391154,2,7,0,-3,-2,-2,-1,0
1532233391159,-1,-12,-2,0,-1,-1,0,-1
1532233391164,4,1,0,-1,-1,-1,1,0
1532233391169,-4,0,-1,-2,-1,-1,1,-1
1532233391174,0,-2,2,1,2,0,1,1
1532233391179,4,-1,0,-4,-2,-1,1,0
1532233391184,-5,-4,-3,-1,-1,-2,-2,-2
1532233391189,3,1,1,-1,-2,-1,-2,1
1532233391194,-2,-8,-1,-2,-3,-1,-2,-2
1532233391199,-1,-3,1,0,0,1,-1,-1
1532233391204,0,-2,0,1,0,0,0,0
1532233391209,-1,-9,-2,-1,-1,-2,-2,-2
1532233391214,-1,-5,-4,-2,-1,-2,-1,-2
1532233391219,-2,2,-2,0,1,-1,0,-2
1532233391224,-3,0,-1,1,-1,-1,0,-2
1532233391229,-1,-2,0,0,1,1,-1,0
1532233391234,3,32,2,-2,1,0,-1,1
1532233391239,1,-6,-2,1,-1,0,0,-2
1532233391244,-6,-17,1,-3,-3,-1,-2,-1
1532233391249,4,5,-3,1,2,1,0,0
1532233391254,-4,6,-5,1,-3,0,1,-3
1532233391259,-3,-7,-5,-2,-1,1,-1,-2
1532233391264,3,12,0,0,0,0,-1,0
1532233391269,0,-2,3,0,-1,0,0,0
1532233391274,-1,-2,3,1,0,0,-2,-1
1532233391279,-6,-4,-5,0,0,1,0,-1
1532233391284,1,-5,1,-2,-2,-1,-1,-2
1532233391289,-2,-2,-1,2,1,0,-1,0
1532233391294,-3,-8,-1,-2,-1,-1,-1,-3
1532233391299,0,4,2,0,1,0,-1,-1
1532233391304,-1,-10,-5,-1,3,-2,0,0
1532233391309,-2,0,-2,-1,-1,1,1,-3
1532233391314,1,-11,-1,-1,-1,-2,0,-1
1532233391319,1,-1,1,-2,-1,-2,-1,0
1532233391324,0,25,1,-2,-2,0,-1,-1
1532233391329,-2,1,-1,0,1,0,0,0
1532233391334,-3,-14,-2,-3,-3,1,-2,1
1532233391339,1,12,3,-1,0,2,-1,1
1532233391344,-7,-24,-1,-1,-3,-1,-1,-4
1532233391349,-3,-12,-7,-2,-3,-4,-2,-2
1532233391354,2,9,2,0,1,0,0,-1
1532233391359,-2,-7,2,0,-2,-2,0,-2
1532233391364,1,25,0,-1,-1,0,0,0
1532233391369,2,-6,-5,-2,-1,0,-1,-2
1532233391374,1,-5,0,1,1,0,-2,1
1532233391379,0,-4,-1,-1,-1,-1,-2,-1
1532233391384,1,6,-1,0,0,-1,0,0
1532233391389,-2,-4,1,-3,-3,-1,-3,0
1532233391394,6,12,7,3,-1,0,0,1
1532233391399,-11,-18,-9,-2,0,-3,-1,-3
1532233391404,1,4,1,3,0,-1,0,-3
1532233391409,-5,-14,-7,-2,1,0,-3,-2
1532233391414,0,-4,-1,0,-1,-1,-2,0
1532233391419,4,8,1,0,0,0,0,0
1532233391424,1,-10,0,-3,0,0,0,-2
1532233391429,1,2,-1,-1,-1,-1,1,0
1532233391434,0,3,1,-1,-1,0,0,0
1532233391439,-2,-1,-1,-2,-1,-1,0,0
1532233391444,0,-2,-1,-1,-2,-2,2,1
1532233391449,-4,1,0,2,0,-1,0,-1
1532233391454,-3,-24,-5,-2,0,-1,-1,-1
1532233391459,3,35,4,1,-1,0,-1,2
1532233391464,-10,-15,-3,-3,0,0,-1,-4
1532233391469,-2,-9,-1,-1,-1,-1,-2,0
1532233391474,0,4,-2,-4,-1,-1,1,1
1532233391479,-2,-12,-1,-1,0,-1,0,0
1532233391484,9,5,-1,-1,-1,2,-1,2
1532233391489,-3,4,2,-1,-4,-2,-1,-2
1532233391494,0,0,-2,0,1,-1,-2,-1
1532233391499,-1,2,1,-2,-3,0,-1,-1
1532233391504,0,-13,-3,-3,-1,-1,0,-1
1532233391509,0,0,-1,1,0,-1,1,0
1532233391514,-1,6,0,-1,-2,1,0,1
1532233391519,-3,-12,-8,-5,-1,0,-1,-2
1532233391524,0,-5,4,1,1,-1,0,1
1532233391529,3,18,-1,-2,0,-1,-1,-1
1532233391534,-5,-17,-3,-3,-3,-2,0,-2
1532233391539,-1,-2,-2,1,0,0,0,-2
1532233391544,1,5,0,-2,-1,-1,-2,0
1532233391549,0,-4,1,0,1,-1,-1,0
1532233391554,-1,17,-1,-1,1,-2,-1,0
1532233391559,-2,-27,-2,-2,-1,0,-1,-2
1532233391564,0,4,-2,0,0,0,-1,1
1532233391569,2,7,2,1,-3,-1,0,-1
1532233391574,4,8,3,2,1,1,-1,-1
1532233391579,-2,-2,0,1,0,0,0,0
1532233391584,0,9,2,0,0,-1,-1,-1
1532233391589,-3,-11,-1,-4,-2,-1,0,-1
1532233391594,0,-5,-2,-2,-1,0,-1,-1
1532233391599,1,15,4,3,-1,-1,0,-2
1532233391604,1,-18,-3,1,2,0,-1,-1
1532233391609,1,8,2,0,1,0,-1,1
1532233391614,-1,2,-1,0,-1,-1,-1,0
1532233391619,-4,-19,-4,-4,0,-2,-2,-2
1532233391624,-8,-1,1,1,-1,-1,0,-1
1532233391629,0,-15,-6,-2,0,1,0,-1
1532233391634,-6,-15,1,0,-2,-1,-2,-2
1532233391639,1,13,2,0,0,-1,-1,1
1532233391644,9,-2,-2,0,-1,-1,-2,0
1532233391649,0,-3,0,0,0,0,-2,1
1532233391654,-2,5,-1,-2,-2,-2,-2,-3
1532233391659,2,3,0,1,-1,-1,-2,1
1532233391664,-6,2,-1,0,0,-1,-1,-2
1532233391669,4,9,1,-2,-1,0,0,1
1532233391674,1,0,-1,3,1,0,0,1
1532233391679,-3,-2,1,-1,-3,0,-3,0
1532233391684,-2,2,-5,-1,-3,0,0,-2
1532233391689,-6,4,2,1,-1,1,-1,-2
1532233391694,-1,2,-1,0,-1,-1,-1,-1
1532233391699,3,-3,1,-1,0,1,0,0
1532233391704,0,3,-1,1,0,-1,-1,-1
1532233391709,-8,-4,-1,-2,-3,0,-2,-4
1532233391714,-1,-1,-5,-4,-1,-1,-1,0
1532233391719,-2,2,-2,-1,0,-2,-1,-1
1532233391724,3,2,0,0,1,0,-1,-1
1532233391729,3,2,1,-2,-2,-3,0,0
1532233391734,1,7,1,2,-1,0,1,1
1532233391739,-2,-17,-4,-2,-1,-2,-2,-2
1532233391744,-1,-3,0,-2,-1,-1,-2,0
1532233391749,-6,-4,-2,-1,0,0,-1,-1
1532233391754,-4,-2,0,-2,-3,-1,-1,-2
1532233391759,0,2,-1,1,-2,1,1,0
1532233391764,-2,1,3,-3,-1,0,-1,-1
1532233391769,2,-6,-3,1,1,0,0,0
1532233391774,0,-2,2,-2,0,-2,-1,-2
1532233391779,-2,1,-3,-2,-1,-1,-1,-2
1532233391784,-1,2,0,-1,1,-2,1,1
1532233391789,-1,-18,-11,-2,-3,-2,-1,0
1532233391794,-4,0,-2,0,0,0,0,-4
1532233391799,0,-1,0,-1,0,-1,-1,-2
1532233391804,6,4,0,-1,-2,-2,1,-1
1532233391809,-2,7,3,1,1,-2,0,0
1532233391814,-3,-8,-4,-1,-1,0,-2,1
1532233391819,-1,2,-2,0,0,-2,-2,-2
1532233391824,-1,10,-1,1,-2,1,-1,1
1532233391829,0,-3,4,0,0,0,-1,-2
1532233391834,-3,-8,-3,-3,-2,0,-2,-1
1532233391839,4,8,2,1,-1,0,0,1
1532233391844,-3,-6,-4,-2,-1,-1,-1,1
1532233391849,0,11,2,0,-1,0,0,-1
1532233391854,0,-2,0,-3,0,1,0,-1
1532233391859,1,15,1,1,-1,-1,0,1
1532233391864,-1,-20,-6,2,-1,0,0,-1
1532233391869,0,-5,0,-3,-3,1,-3,-1
1532233391874,3,2,-2,0,1,0,-1,-1
1532233391879,0,6,3,0,0,0,-2,-1
1532233391884,-1,-6,-2,-1,-1,0,-2,-2
1532233391889,0,9,0,2,-2,-2,0,-1
1532233391894,-5,-21,-4,0,0,-2,-1,0
1532233391899,0,16,0,-2,0,2,-1,-1
1532233391904,-7,-17,-2,-4,-2,-2,-2,-2
1532233391909,-1,-7,-1,-4,-2,-1,-1,0
1532233391914,-3,4,-3,-2,-3,-2,0,-3
1532233391919,0,5,2,2,1,-1,0,0
1532233391924,-2,-17,-3,-1,1,0,-2,-1
1532233391929,4,33,3,-1,-1,0,-1,-1
1532233391934,-2,-27,-3,-1,-2,-2,-1,-1
1532233391939,0,0,-2,-2,-2,-1,-1,-1
1532233391944,1,2,3,1,0,1,1,2
1532233391949,-5,-7,-6,-1,-1,-2,-3,-6
1532233391954,2,14,-1,-1,-2,1,0,4
1532233391959,7,12,2,2,1,-2,-1,-5
1532233391964,-11,-9,-2,0,-1,-1,-1,-1
1532233391969,6,5,-1,1,0,0,0,2
1532233391974,2,3,4,-1,-1,0,-2,-2
1532233391979,-2,-13,-5,0,-1,-1,0,2
1532233391984,1,6,12,-3,0,1,-1,2
1532233391989,0,-4,-2,-1,1,-1,0,2
1532233391994,-8,-6,-3,0,-1,-2,-1,-3
1532233391999,8,4,0,-4,-1,0,-2,0
1532233392004,-1,16,-1,1,-1,0,-1,-5
1532233392009,-8,-19,-2,-2,-3,-1,-1,1
1532233392014,3,12,3,1,0,0,1,-3
1532233392019,-12,-9,-2,-3,-2,-2,-1,-2
1532233392024,0,-1,-4,-2,-2,-2,0,1
1532233392029,5,-2,0,-1,0,-2,0,2
1532233392034,4,10,0,1,-1,0,0,-3
1532233392039,-6,-12,-2,2,1,1,0,-1
1532233392044,-1,-2,1,-2,-2,-2,-1,-2
1532233392049,-2,5,-2,0,-1,-5,-1,-1
1532233392054,0,-3,2,-3,-2,3,-1,0
1532233392059,-4,-13,-1,-1,-1,1,-1,-3
1532233392064,5,12,2,1,0,1,-2,1
1532233392069,2,3,0,0,0,1,-1,0
1532233392074,-3,-12,0,0,0,-2,-2,-1
1532233392079,4,6,-5,-3,-2,-2,-2,0
1532233392084,-3,-7,0,-3,-1,-1,-1,1
1532233392089,-7,-13,-2,-2,-2,-1,-2,-5
1532233392094,2,11,1,-2,0,-2,-1,0
1532233392099,1,2,1,0,1,1,2,0
1532233392104,-1,6,-1,-1,-2,-3,0,-2
1532233392109,1,-2,0,0,1,2,0,0
1532233392114,-3,7,-3,-3,-3,-2,-2,-1
1532233392119,1,-4,2,0,-1,0,-1,3
1532233392124,3,10,-2,0,1,-1,1,-1
1532233392129,-1,-10,-5,0,-2,0,-3,-3
1532233392134,0,-6,-4,0,0,-1,-1,2
1532233392139,-5,-7,-1,-3,-3,-1,-1,-1
1532233392144,7,16,1,0,-4,-6,0,0
1532233392149,-1,-14,-2,0,4,4,0,-3
1532233392154,2,5,3,1,-1,-1,0,-1
1532233392159,-10,-17,-5,-3,-3,0,0,-4
1532233392164,3,-4,2,4,1,0,0,-1
1532233392169,-6,14,5,0,-1,-1,-1,-1
1532233392174,4,-6,-8,-1,-2,-1,1,-1
1532233392179,0,6,3,1,-2,1,1,0
1532233392184,0,-3,-2,0,1,2,-1,0
1532233392189,-2,3,-1,-2,-2,-3,-1,-3
1532233392194,-6,3,7,-2,0,0,-2,0
1532233392199,0,-8,-5,-2,-1,-1,-1,-2
1532233392204,-4,-1,-4,-2,1,0,-1,1
1532233392209,4,2,0,1,1,0,-1,3
1532233392214,-3,-1,2,1,1,0,-2,-6
1532233392219,2,7,0,-2,1,-2,-3,-1
1532233392224,-3,-5,-2,-1,-1,-1,0,-1
1532233392229,-3,-8,-1,-1,-1,-3,1,-1
1532233392234,-1,2,-3,3,-2,-2,0,1
1532233392239,2,0,-6,0,2,-1,0,1
1532233392244,-2,-10,2,-2,-2,1,-1,0
1532233392249,4,8,1,1,-2,-1,-1,4
1532233392254,0,0,1,0,0,0,0,-6
1532233392259,-5,0,1,0,0,-1,-1,-3
1532233392264,-1,4,-1,1,1,0,-1,1
1532233392269,2,-9,1,-3,-1,-2,0,-2
1532233392274,1,-2,0,0,2,2,0,9
1532233392279,5,8,3,1,-1,-1,1,-2
1532233392284,-18,-12,-5,-1,-1,-1,-1,-5
1532233392289,-6,6,0,-1,-2,-2,-1,-1
1532233392294,0,11,0,-3,-3,-2,1,2
1532233392299,-4,-29,-1,0,-1,-1,0,-2
1532233392304,-3,5,-5,-1,-2,-2,-2,-4
1532233392309,-1,-11,-4,-3,0,2,-1,-3
1532233392314,0,3,-1,0,-1,-2,-1,-1
1532233392319,2,7,0,3,-1,0,-1,3
1532233392324,3,0,1,-2,4,2,-1,1
1532233392329,-3,-4,1,-2,-2,0,-1,-2
1532233392334,0,4,-4,-2,-1,-2,0,-1
1532233392339,-2,-11,-6,-2,-2,-2,-1,-3
1532233392344,2,0,-2,0,0,-1,-1,-1
1532233392349,2,1,2,2,1,-1,0,1
1532233392354,-3,-9,-2,-2,-1,-1,-1,1
1532233392359,-5,5,2,1,-2,-2,-1,-3
1532233392364,-1,0,-2,-2,-4,-3,-2,-3
1532233392369,4,8,0,-2,0,1,0,0
1532233392374,-5,-20,-3,-1,-2,-1,-1,-1
1532233392379,6,5,-4,-4,-1,0,-2,1
1532233392384,4,1,1,-1,2,3,0,-6
1532233392389,-9,6,-1,0,-1,0,0,3
1532233392394,2,-1,0,1,1,0,-1,-8
1532233392399,-9,-2,-2,-3,-3,-2,-1,-1
1532233392404,8,1,1,3,-1,1,0,2
1532233392409,-1,-1,-2,-2,-1,-2,0,-1
1532233392414,8,3,1,0,1,-1,2,4
1532233392419,-9,-11,-2,-1,-1,-2,-1,-3
1532233392424,1,6,-2,-1,-2,-2,-1,2
1532233392429,-4,-17,-5,-1,-3,-3,-1,-2
1532233392434,1,6,2,-2,-2,-1,-3,-3
1532233392439,4,16,3,-2,2,-1,-1,-3
1532233392444,-11,-25,-7,-2,-3,-3,-1,-1
1532233392449,1,-1,-4,-2,-2,-1,-3,-9
1532233392454,1,1,1,1,0,-2,0,3
1532233392459,-2,2,0,-2,0,1,0,3
1532233392464,-3,-3,1,-2,-2,-3,-1,-2
1532233392469,3,10,1,-1,-1,1,0,1
1532233392474,-6,-3,-2,-2,-2,0,0,-4
1532233392479,7,7,0,1,-1,-1,-1,1
1532233392484,5,-1,2,2,0,-3,1,2
1532233392489,-1,0,-3,-2,-1,-1,-2,-1
1532233392494,0,5,0,-1,-4,-8,0,2
1532233392499,-4,-4,0,2,6,5,2,-3
1532233392504,4,7,-1,-2,-1,-1,-1,-1
1532233392509,3,-1,2,4,2,-1,0,0
1532233392514,-4,-2,-3,2,-1,-2,0,0
1532233392519,2,-5,-2,-2,-3,-4,-2,0
1532233392524,0,3,1,-1,-1,0,-1,0
1532233392529,-4,-4,-4,0,0,-2,-1,-3
1532233392534,1,5,-2,-2,0,2,0,2
1532233392539,-5,-11,-4,-3,-3,-3,-3,-4
1532233392544,-8,-4,0,-1,-1,-2,-1,-3
1532233392549,3,3,2,1,-1,-2,-1,0
1532233392554,0,-1,-3,-2,2,-1,-2,1
1532233392559,0,6,0,-1,-9,-3,-1,-2
1532233392564,1,10,3,2,10,3,0,1
1532233392569,3,-17,-1,0,3,2,-1,0
1532233392574,-1,53,-2,-1,-1,-2,0,-2
1532233392579,0,-24,1,0,2,3,2,1
1532233392584,4,14,1,-2,-4,0,0,0
1532233392589,6,10,6,0,-2,0,0,4
1532233392594,-9,4,-2,-2,-2,3,-2,-5
1532233392599,-1,24,-4,-3,0,0,-1,-1
1532233392604,0,2,-1,-1,1,0,0,0
1532233392609,6,4,-1,-1,1,0,-1,2
1532233392614,-6,-26,-4,-3,-8,-3,-2,-4
1532233392619,8,16,1,0,2,2,-1,2
1532233392624,-4,-20,-5,-1,0,-1,-2,-1
1532233392629,-2,26,1,0,-3,0,0,-1
1532233392634,2,-25,0,-1,0,-2,-2,0
1532233392639,-1,-14,-3,-2,-1,-1,0,-1
1532233392644,-4,5,-3,-4,-4,-1,-1,-3
1532233392649,0,-12,-1,-2,0,-2,-1,-1
1532233392654,-8,-25,-6,0,0,0,-2,-1
1532233392659,0,-2,-2,-2,0,-3,0,0
1532233392664,0,0,0,-2,-6,0,-3,-1
1532233392669,-2,2,-3,-1,0,-2,0,0
1532233392674,6,-2,3,-1,3,0,2,0
1532233392679,-5,-11,-2,-1,-2,-1,-2,-1
1532233392684,1,-2,-2,1,-2,-2,0,2
1532233392689,-7,1,-2,-2,-2,0,-1,-8
1532233392694,2,-4,-2,-2,0,-1,0,-1
1532233392699,6,15,5,2,0,-4,-1,1
1532233392704,-2,-16,-8,-3,-2,-1,-2,0
1532233392709,-5,-1,-3,-3,-2,-4,-2,0
1532233392714,5,15,7,3,3,8,1,2
1532233392719,-12,-18,-3,-2,-1,-1,-1,-4
1532233392724,1,-15,0,0,0,-2,-1,-3
1532233392729,-1,8,1,1,-4,1,1,0
1532233392734,-3,11,0,-2,2,2,-1,0
1532233392739,4,-14,-5,-4,-1,-7,-2,-4
1532233392744,2,5,0,-3,-1,-2,-1,-1
1532233392749,1,-5,-4,-1,-1,-3,1,-2
1532233392754,5,10,0,1,-2,-1,1,-1
1532233392759,5,10,8,3,3,3,0,3
1532233392764,-7,-10,-7,-2,-2,-1,-1,-4
1532233392769,-1,-3,-3,-2,-1,0,-1,-2
1532233392774,-1,-17,-2,-1,0,-2,-3,2
1532233392779,0,6,0,0,-3,0,-1,0
1532233392784,2,-1,4,1,-1,-1,1,-1
1532233392789,-9,-25,-4,-1,0,1,-3,-4
1532233392794,-6,4,-1,-2,-7,-10,-3,-1
1532233392799,-2,-12,-2,0,2,6,0,0
1532233392804,3,21,5,-2,-2,1,-2,2
1532233392809,-11,-15,-4,-1,1,0,0,-4
1532233392814,-3,2,-2,-2,0,-4,-2,-4
1532233392819,2,3,-3,-1,-4,-3,-1,-1
1532233392824,1,16,2,4,1,0,-2,0
1532233392829,5,-6,-1,-2,-1,0,-1,2
1532233392834,0,-10,0,1,-1,-1,-1,-1
1532233392839,-7,0,-1,-2,0,-1,-1,-3
1532233392844,2,1,-3,-1,-1,2,-1,-2
1532233392849,-3,2,2,-2,3,-3,-2,-1
1532233392854,-1,-10,-1,0,2,4,0,-1
1532233392859,4,7,1,-1,-1,0,0,0
1532233392864,-10,6,-5,-2,-1,-3,-2,-2
1532233392869,3,-6,2,0,-3,-2,1,-1
1532233392874,-8,-34,-5,-3,0,0,-2,-4
1532233392879,-5,11,1,-2,0,-3,-2,0
1532233392884,-5,1,-2,-1,0,0,-2,-2
1532233392889,2,7,3,1,-2,-6,1,0
1532233392894,4,17,-1,0,2,6,-2,-1
1532233392899,1,-4,-1,1,0,-1,-1,0
1532233392904,-3,-16,0,-2,-2,-1,-1,-1
1532233392909,0,9,-8,-4,0,2,0,0
1532233392914,1,-1,1,1,-2,-4,1,2
1532233392919,-2,0,1,-1,-1,0,1,-1
1532233392924,-3,-2,-5,-1,-1,1,-1,0
1532233392929,6,4,5,3,1,4,-1,2
1532233392934,1,9,2,-2,-3,-4,0,-2
1532233392939,-8,-22,-3,1,3,-1,-2,-2
1532233392944,0,-6,0,0,-3,0,-1,-1
1532233392949,1,25,-1,-3,-5,1,-1,-1
1532233392954,4,-5,-3,0,2,-5,-2,1
1532233392959,-2,-7,-3,-2,0,0,0,-3
1532233392964,4,3,3,-1,-1,-2,0,-2
1532233392969,0,5,4,-2,1,2,-1,1
1532233392974,-3,-7,-3,-1,-2,0,-1,-2
1532233392979,4,8,2,-1,-2,-4,0,3
1532233392984,-10,6,-3,1,2,-2,0,-6
1532233392989,5,-8,-3,-2,0,0,-1,-1
1532233392994,-2,5,0,2,1,1,-1,-1
1532233392999,4,2,0,1,-1,0,0,1
1532233393004,-6,-20,-6,-4,-2,-1,-2,-2
1532233393009,-2,6,2,1,1,-1,0,-1
1532233393014,-1,-2,0,-3,1,1,-1,-1
1532233393019,0,19,1,1,-1,2,0,0
1532233393024,0,-15,-3,-3,0,-3,-2,-1
1532233393029,-7,-13,-5,-2,-3,-1,-3,-4
1532233393034,0,-5,-2,-2,-3,2,-2,-1
1532233393039,2,-21,-4,-1,3,2,1,-1
1532233393044,6,15,7,1,-2,-1,1,3
1532233393049,-5,-1,-6,0,3,-1,1,0
1532233393054,-2,1,-2,-1,-2,-2,-1,-2
1532233393059,1,9,1,-3,-4,-1,-1,-2
1532233393064,0,-6,-5,-2,-2,-1,-1,-1
1532233393069,1,-2,1,0,-2,-3,-1,1
1532233393074,-7,-24,-5,-2,-3,-2,-3,-3
1532233393079,0,10,-5,-6,-6,-2,-1,-2
1532233393084,1,12,2,3,7,3,1,1
1532233393089,0,10,0,-1,-3,0,0,-3
1532233393094,3,-6,5,4,-1,-6,1,1
1532233393099,-2,19,-2,0,1,3,-2,0
1532233393104,-2,-9,-4,-3,-2,0,0,-1
1532233393109,0,-2,0,0,-2,-3,-1,0
1532233393114,3,5,3,0,2,1,0,2
1532233393119,-6,-16,-1,-1,-7,-5,-1,-4
1532233393124,8,27,3,1,3,-3,-1,0
1532233393129,-4,7,3,2,3,1,0,0
1532233393134,-5,-10,-7,-4,-5,0,-1,-3
1532233393139,6,4,0,0,1,-3,-1,2
1532233393144,-4,-13,0,0,-1,0,-1,0
1532233393149,-3,-8,-1,-1,-1,-2,-1,-2
1532233393154,3,20,5,0,2,0,0,1
1532233393159,-6,-14,6,-2,-5,-6,-1,-2
1532233393164,1,13,-17,1,5,3,0,-1
1532233393169,2,-29,0,0,0,0,-1,0
1532233393174,-3,7,3,-2,-1,2,-1,-1
1532233393179,-1,3,1,-1,-2,-4,-2,-4
1532233393184,-5,-15,4,-2,-7,1,1,0
1532233393189,2,15,4,-2,4,-1,-1,0
1532233393194,-3,-17,-5,-2,0,0,0,-2
1532233393199,0,8,-6,1,1,-3,-3,-2
1532233393204,1,0,8,-1,-4,-3,0,2
1532233393209,-2,-32,-10,-1,2,2,1,3
1532233393214,4,7,-9,-4,-5,-2,-1,-1
1532233393219,-15,-7,6,-4,-2,0,-4,-8
1532233393224,4,10,0,-2,-2,-2,-2,-2
1532233393229,-1,26,12,0,-3,-3,-2,-3
1532233393234,2,-10,3,4,2,-2,3,5
1532233393239,-2,-29,-28,-7,1,1,-2,2
1532233393244,-4,-14,-8,-3,0,-5,-4,0
1532233393249,-1,-5,0,0,0,5,3,-8
1532233393254,5,5,-3,-1,-6,-1,-1,0
1532233393259,4,24,17,3,7,1,-3,-4
1532233393264,-3,-22,5,0,0,-1,1,0
1532233393269,-2,2,-15,-2,-3,-3,0,4
1532233393274,-9,-1,-10,-7,-5,-2,-3,-4
1532233393279,-2,-1,3,2,-1,2,8,0
1532233393284,-1,-47,-6,0,1,-1,-16,-1
1532233393289,1,62,11,2,0,-1,0,-1
1532233393294,-2,-22,0,0,0,0,-2,-3
1532233393299,7,6,7,3,1,0,3,4
1532233393304,-3,15,7,-2,-3,-2,3,-1
1532233393309,-3,-53,-22,-4,-3,0,5,2
1532233393314,-7,15,3,-1,-1,-4,1,-2
1532233393319,5,8,1,-2,-1,2,-1,1
1532233393324,-1,5,3,3,2,1,-1,-3
1532233393329,-1,-6,-3,-3,-5,-4,-7,-5
1532233393334,2,18,5,2,5,2,4,5
1532233393339,-1,-7,3,1,0,-2,-3,-3
1532233393344,0,2,-8,0,0,1,5,1
1532233393349,1,7,1,0,0,0,-4,-1
1532233393354,4,-1,-2,-2,-4,-2,-4,5
1532233393359,2,-10,-2,0,-2,-1,0,-2
1532233393364,-6,50,8,-2,-2,-3,-3,-8
1532233393369,-7,-22,-10,-2,-1,-2,-3,-4
1532233393374,6,-12,-11,-1,2,0,1,0
1532233393379,-6,-17,3,-3,0,0,0,3
1532233393384,5,12,-6,-4,-4,-4,5,5
1532233393389,-3,17,14,-3,-2,-2,-9,-6
1532233393394,-8,7,4,0,0,2,3,-6
1532233393399,4,5,-8,0,-1,0,0,2
1532233393404,2,-8,3,1,0,1,2,5
1532233393409,-1,-4,-2,0,-5,-1,-1,-7
1532233393414,-3,-2,5,0,8,4,-3,-3
1532233393419,1,8,-3,0,-2,-3,-2,4
1532233393424,-3,-20,-3,1,-1,1,1,0
1532233393429,0,-5,3,-1,0,-3,1,0
1532233393434,-6,22,3,-1,-4,-2,-4,-12
1532233393439,-12,-79,-14,-4,-4,-2,-2,-3
1532233393444,5,7,-2,-1,3,-2,0,4
1532233393449,11,13,7,5,1,0,1,10
1532233393454,-10,-11,-6,-2,-1,-4,1,2
1532233393459,1,51,7,-3,-1,2,0,-6
1532233393464,-3,-30,1,0,-8,-8,-2,-2
1532233393469,-8,-20,-8,-5,-3,3,-1,-3
1532233393474,12,2,4,2,12,2,-1,3
1532233393479,1,12,9,1,-6,-3,1,7
1532233393484,-2,-3,-10,-2,3,2,2,-9
1532233393489,-2,18,6,3,-3,-1,0,2
1532233393494,5,6,4,2,-5,6,1,1
1532233393499,-4,-56,-7,-1,8,-10,22,-3
1532233393504,1,33,9,0,-4,-3,-9,-2
1532233393509,-4,-44,-13,-5,2,-4,1,0
1532233393514,-8,5,0,-1,-9,-7,-13,-5
1532233393519,6,8,1,-1,6,12,10,7
1532233393524,-1,-34,-2,0,-2,2,2,3
1532233393529,-3,37,1,0,2,-1,1,-9
1532233393534,1,7,0,-2,-5,-6,2,0
1532233393539,0,7,-5,-1,-3,-2,-13,-3
1532233393544,-1,-7,-3,0,0,2,2,-1
1532233393549,-4,13,5,-1,0,-1,-7,3
1532233393554,7,-2,10,3,2,4,3,3
1532233393559,-8,-26,-18,2,-1,-1,-7,-2
1532233393564,-2,-24,-4,-4,-3,-4,-5,-4
1532233393569,6,-6,4,4,0,-2,3,-2
1532233393574,-5,-12,-4,-4,-4,-3,-2,1
1532233393579,4,72,7,0,1,3,-1,4
1532233393584,-1,-38,-3,-1,0,1,2,1
1532233393589,-3,-19,2,2,3,1,-1,-3
1532233393594,-4,-6,-7,-2,-2,-2,1,0
1532233393599,0,28,4,-3,-4,-4,-8,3
1532233393604,-1,31,1,2,1,1,2,-9
1532233393609,1,75,10,-2,2,1,-2,0
1532233393614,-3,-39,-28,-5,-2,-2,-3,-2
1532233393619,-6,4,-2,-1,-2,-2,0,-3
1532233393624,-6,19,-8,-5,-4,-2,-2,-2
1532233393629,11,28,5,0,0,-2,0,6
1532233393634,1,-15,11,4,1,2,2,-1
1532233393639,3,-5,4,4,0,1,0,0
1532233393644,-4,19,8,-2,-1,-2,-1,-2
1532233393649,-4,-37,-23,-1,0,1,-2,5
1532233393654,2,-22,-2,-2,0,1,-2,-5
1532233393659,-15,-52,-4,-2,-1,-1,-2,-6
1532233393664,5,27,6,-4,-2,-2,-1,4
1532233393669,-4,-9,-2,1,-1,-3,1,0
1532233393674,6,22,10,3,2,-1,3,9
1532233393679,6,-38,-2,0,2,1,-7,-3
1532233393684,2,8,-2,-1,-3,1,5,-5
1532233393689,-8,-17,0,-4,-3,-4,-4,0
1532233393694,-1,23,10,0,0,-1,0,6
1532233393699,-1,-9,-23,0,-2,-1,-4,-10
1532233393704,-1,12,5,5,3,0,1,12
1532233393709,-6,-15,1,-4,-2,-1,-1,-7
1532233393714,-2,-7,-15,-2,-1,-1,1,-6
1532233393719,0,14,1,-4,-1,-5,-1,0
1532233393724,9,6,6,4,2,3,2,9
1532233393729,-1,23,2,-1,-2,0,-1,-15
1532233393734,-1,45,6,1,-1,-2,-5,-1
1532233393739,8,-19,-4,-2,-3,-1,-2,9
1532233393744,-2,-25,-9,0,2,4,2,-15
1532233393749,-11,-26,10,0,-1,-4,3,-3
1532233393754,-3,6,-12,-5,-4,-4,-1,-6
1532233393759,-3,12,-3,-2,-3,-1,-2,-2
1532233393764,1,1,6,2,0,-2,-2,8
1532233393769,2,-32,-5,5,2,3,1,-1
1532233393774,-7,-13,7,-2,-3,-2,-4,-2
1532233393779,0,8,3,1,0,1,1,-6
1532233393784,-6,15,-5,-4,-2,-2,-4,-3
1532233393789,6,-7,-8,-1,-2,0,0,7
1532233393794,0,4,4,0,-2,1,-3,-5
1532233393799,-4,8,10,-1,-2,-2,1,-2
1532233393804,-1,-2,-12,-3,-3,-1,-1,3
1532233393809,3,23,-1,-1,1,0,0,1
1532233393814,0,-17,0,-3,-2,2,-1,-3
1532233393819,0,9,3,-1,0,-1,0,3
1532233393824,0,-23,0,2,0,0,-1,-3
1532233393829,2,22,1,-1,-2,0,0,0
1532233393834,5,50,9,2,1,1,0,4
1532233393839,-16,-53,-15,-5,-2,-1,-5,-6
1532233393844,-2,23,6,-1,0,-1,-2,-3
1532233393849,1,-15,-5,0,0,-1,-1,1
1532233393854,3,-7,13,0,1,-1,0,-1
1532233393859,5,15,-28,1,-1,1,0,1
1532233393864,-6,-9,2,-1,-1,0,-1,-1
1532233393869,-2,-1,0,-3,-2,-2,-2,-3
1532233393874,0,-2,0,-2,-3,-1,1,0
1532233393879,-1,19,4,0,-1,-2,-1,-1
1532233393884,2,4,10,-1,-2,-1,-1,0
1532233393889,8,24,-2,0,-1,1,1,2
1532233393894,-9,-42,-6,0,3,0,-1,-2
1532233393899,-2,-17,-3,-1,-2,-3,-2,-2
1532233393904,-2,-7,-4,-1,-1,-2,-2,-1
1532233393909,0,15,13,1,0,0,0,-1
1532233393914,5,8,-16,-2,-5,-3,-5,-2
1532233393919,3,12,6,-1,0,1,0,1
1532233393924,2,4,4,1,0,1,-2,0
1532233393929,-4,5,-5,-2,0,0,1,-1
1532233393934,-3,-22,-3,1,-1,-1,1,0
1532233393939,3,35,2,0,-1,-1,-2,0
1532233393944,4,21,9,-2,-2,-2,-1,-1
1532233393949,-2,-20,-2,0,-1,0,-1,0
1532233393954,-2,2,-2,1,0,-2,-1,-3
1532233393959,-1,-18,0,3,2,1,-1,-2
1532233393964,-2,-13,-2,2,1,1,0,1
1532233393969,-1,-21,-10,-2,-3,-2,-2,-2
1532233393974,-4,28,5,-1,1,-1,0,-2
1532233393979,1,11,8,-2,-2,-2,-2,-1
1532233393984,-1,0,1,0,-1,0,0,0
1532233393989,2,-4,-2,-1,0,-3,-1,-3
1532233393994,-1,-25,-6,-1,1,1,2,1
1532233393999,0,6,3,3,1,0,1,-1
1532233394004,-1,6,0,0,-1,-2,0,-1
1532233394009,-1,1,-5,-3,-3,-2,-3,-1
1532233394014,0,-4,1,-4,-1,-2,-2,-2
1532233394019,-2,22,5,1,-1,2,0,-1
1532233394024,0,-15,-6,0,-1,0,0,-1
1532233394029,2,-1,6,3,0,0,1,0
1532233394034,-2,12,1,0,-2,0,-3,-2
1532233394039,0,-2,-1,-2,0,0,0,-2
1532233394044,-2,3,-4,-3,-3,-1,0,0
1532233394049,-7,-19,-6,-1,-1,0,0,-4
1532233394054,-2,5,1,1,1,-1,-2,-1
1532233394059,0,-5,-2,-2,1,0,0,-2
1532233394064,0,21,4,-2,-1,-1,-4,0
1532233394069,3,5,9,-1,0,-2,-1,1
1532233394074,-4,-5,-5,0,-2,-1,0,-2
1532233394079,0,-8,1,0,0,-1,-2,1
1532233394084,-2,-8,-3,-3,-1,0,0,-2
1532233394089,-1,7,-1,-3,0,-1,0,0
1532233394094,1,2,-1,2,1,0,1,0
1532233394099,-3,-11,-2,-2,-2,0,0,-2
1532233394104,-4,2,2,1,-3,-1,0,-1
1532233394109,1,-2,-4,-2,-1,-2,-1,-1
1532233394114,-1,3,2,4,1,-2,-2,-1
1532233394119,-1,-13,-4,-1,-2,-2,-3,-1
1532233394124,1,0,-3,0,2,0,-1,0
1532233394129,0,0,-1,2,-1,0,-1,0
1532233394134,0,1,-4,-6,-3,-2,-2,-3
1532233394139,-2,-5,1,0,-1,-3,-2,-2
1532233394144,-1,19,1,-2,-1,-2,-1,-1
1532233394149,-3,-1,-4,-3,-1,0,-1,-2
1532233394154,-1,3,-1,-2,0,2,0,-2
1532233394159,3,-1,5,0,2,-1,1,1
1532233394164,-1,-11,-2,-1,-2,-3,0,0
1532233394169,-5,-8,-8,-5,-5,-2,-2,-1
1532233394174,1,4,-3,-2,0,-1,-2,-2
1532233394179,0,-2,0,-1,0,0,-1,0
1532233394184,1,4,0,-1,1,0,0,2
1532233394189,0,-3,-4,-2,-1,-2,-2,-2
1532233394194,-1,-10,0,-2,-1,-2,0,-1
1532233394199,1,4,-1,-4,-1,0,-1,0
1532233394204,-1,-3,1,0,1,-2,0,0
1532233394209,-2,-2,-1,0,-2,-1,1,-1
1532233394214,0,-4,-1,1,-1,1,0,-3
1532233394219,0,1,0,-1,-1,-1,0,-1
1532233394224,-1,1,2,-1,-2,-1,-2,0
1532233394229,2,2,-2,0,-1,1,0,0
1532233394234,1,-6,1,-1,0,-1,-2,0
1532233394239,-6,-2,-3,-1,0,-2,-1,-2
1532233394244,-1,1,0,0,-1,0,0,-1
1532233394249,-1,5,3,0,-1,-1,0,1
1532233394254,1,-5,-2,-2,-1,-2,0,0
1532233394259,0,-3,-2,-1,1,-1,-1,0
1532233394264,0,-6,-1,0,-1,-2,0,-1
1532233394269,-1,0,1,-1,1,0,1,-1
1532233394274,1,3,-3,-1,-2,-1,-1,-1
1532233394279,-2,-2,-1,-3,-2,0,0,-2
1532233394284,0,-1,0,-1,-2,-2,0,0
1532233394289,0,2,1,0,-1,1,-2,-3
1532233394294,-2,-2,3,3,0,-1,-2,1
1532233394299,0,4,-1,1,0,-1,-2,-1
1532233394304,0,-1,-1,1,0,1,-2,0
1532233394309,1,-2,-3,-1,-2,-1,0,0
1532233394314,-2,2,1,-1,0,-1,1,-1
1532233394319,-2,0,0,2,-1,-2,-2,-2
1532233394324,-2,-1,0,-1,-1,-1,1,-3
1532233394329,-3,-7,-7,-3,-1,-1,-2,0
1532233394334,2,2,-3,-3,0,-1,1,-1
1532233394339,0,1,2,1,0,-1,1,1
1532233394344,4,2,1,-2,-2,-2,-1,1
1532233394349,-2,2,-4,0,-1,0,0,1
1532233394354,-3,-1,1,-1,-1,-1,-2,0
1532233394359,4,-2,-2,-2,-2,-2,0,-1
1532233394364,-2,-2,-3,-1,0,1,-1,-1
1532233394369,-1,-3,0,0,0,-1,-2,-2
1532233394374,5,1,0,-1,2,-1,-2,-1
1532233394379,1,0,-1,0,-1,0,0,0
1532233394384,-6,2,0,-3,-2,-1,-3,-1
1532233394389,-4,-19,-1,-1,-1,-1,1,-1
1532233394394,0,21,-2,-3,-3,-1,-3,-2
1532233394399,-5,-3,-1,1,1,-1,-2,0
1532233394404,1,-2,0,1,1,0,1,1
1532233394409,2,6,0,-1,0,-1,-2,0
1532233394414,-3,-15,-1,3,1,1,1,0
1532233394419,2,15,2,-2,-4,-1,-2,-4
1532233394424,-4,12,-1,0,-1,0,-3,-2
1532233394429,-1,-15,-4,-3,-2,-1,-1,0
1532233394434,-3,9,2,-2,0,-1,-1,0
1532233394439,-2,-7,-1,1,-1,1,1,0
1532233394444,2,1,-5,0,0,-2,-1,0
1532233394449,7,8,10,-1,0,-1,1,1
1532233394454,-5,-42,-14,0,-2,0,-2,-1
1532233394459,0,13,-3,0,-2,1,-3,1
1532233394464,-2,2,3,-3,-2,-2,-3,1
1532233394469,0,6,3,1,1,-1,0,1
1532233394474,-4,-19,-6,-4,-2,-2,0,-2
1532233394479,3,1,-9,-3,1,-3,-1,-2
1532233394484,2,-14,-4,1,0,-1,0,-1
1532233394489,-1,15,-4,-4,-1,-2,0,-2
1532233394494,3,11,11,5,0,0,1,0
1532233394499,-1,-22,-5,1,0,0,0,1
1532233394504,-2,29,4,-4,-3,-2,0,-3
1532233394509,-1,-2,6,0,-1,-1,-2,-2
1532233394514,-2,-16,-6,-4,-2,-1,0,1
1532233394519,-7,19,2,-4,1,-2,-3,-4
1532233394524,3,-12,1,2,1,0,0,2
1532233394529,0,1,-3,1,0,1,0,0
1532233394534,-1,30,11,-1,-1,-1,-1,-2
1532233394539,-3,-21,-14,-4,-4,-3,-4,-3
1532233394544,0,-9,-1,0,-1,-1,0,-1
1532233394549,-2,-11,-6,-1,-2,-2,-1,0
1532233394554,-1,-10,-6,2,-1,-1,0,2
1532233394559,4,24,19,-2,-3,-2,-2,-1
1532233394564,-3,-5,2,0,2,0,0,-3
1532233394569,-6,0,-7,-1,0,1,3,0
1532233394574,-2,-23,-5,1,-1,0,-1,-1
1532233394579,6,25,7,-1,-1,-1,2,0
1532233394584,-4,-22,-26,-5,-4,-1,5,-2
1532233394589,2,34,11,1,1,-1,-3,0
1532233394594,-3,-43,-15,1,0,2,2,1
1532233394599,-3,7,4,-1,-1,-3,-3,-2
1532233394604,1,-5,2,1,-1,-1,4,0
1532233394609,-1,9,0,-1,-1,-1,-1,-3
1532233394614,7,23,5,-2,0,-1,0,0
1532233394619,-1,-28,-5,1,1,1,2,2
1532233394624,0,1,8,-1,-1,0,-4,0
1532233394629,-2,-31,-13,-2,1,-1,0,-2
1532233394634,1,38,13,-3,-1,-3,-4,-3
1532233394639,-2,-9,-6,0,0,2,1,-1
1532233394644,3,7,5,-2,-2,-2,-3,-1
1532233394649,-3,-14,-6,-1,-2,-2,-2,-2
1532233394654,-3,5,-3,0,1,-1,0,-1
1532233394659,-2,-4,0,1,0,0,0,-1
1532233394664,3,10,2,-3,-2,0,-3,0
1532233394669,0,-15,-1,1,-1,-2,-1,-1
1532233394674,0,21,-2,-3,-3,-1,-2,-2
1532233394679,-1,-3,3,0,1,0,2,1
1532233394684,-4,-64,-6,-1,1,-1,-2,-4
1532233394689,-2,-16,-8,-4,-1,-2,-5,-4
1532233394694,0,-6,3,-2,-2,-1,-1,1
1532233394699,-2,-5,-4,-1,-2,-4,-1,-1
1532233394704,1,17,3,1,-1,-2,0,1
1532233394709,-3,8,6,-1,-2,1,0,-1
1532233394714,0,-11,-6,0,1,-2,-2,0
1532233394719,7,13,1,-2,-2,0,-1,-2
1532233394724,-6,-7,1,3,0,1,0,-2
1532233394729,2,36,0,-2,-3,-4,-2,-2
1532233394734,-5,-15,-3,-3,-1,1,0,0
1532233394739,0,-2,1,1,-2,0,0,0
1532233394744,0,-11,-5,1,3,0,-1,1
1532233394749,3,-9,-3,1,0,0,1,-1
1532233394754,4,10,15,3,1,0,3,2
1532233394759,-5,12,-27,-1,-1,-1,-2,-2
1532233394764,-10,-43,-15,-4,-3,-3,-7,-6
1532233394769,0,-3,8,-1,0,-2,3,1
1532233394774,0,-12,-3,0,-4,0,-2,0
1532233394779,2,66,6,0,0,2,0,1
1532233394784,2,5,13,3,3,1,1,0
1532233394789,2,11,4,-4,-1,-1,-2,0
1532233394794,1,-1,-8,4,-1,2,1,-1
1532233394799,-5,-20,-11,-5,-4,-3,-3,1
1532233394804,0,42,-1,0,-1,0,0,-4
1532233394809,0,-10,5,0,0,0,1,3
1532233394814,3,-14,3,-2,0,-2,1,5
1532233394819,-2,9,-7,-4,-1,-2,-3,-13
1532233394824,1,-5,-19,1,0,0,4,6
1532233394829,-7,27,9,-4,-1,-3,-5,-1
1532233394834,-7,-8,5,1,2,0,-1,-3
1532233394839,6,-20,-4,-3,-3,-3,-1,-1
1532233394844,3,29,9,-2,0,-1,-1,-2
1532233394849,3,1,-3,4,-1,3,0,-2
1532233394854,-3,-14,-8,-3,0,-1,-1,-2
1532233394859,-8,-39,-2,-5,-3,-2,-1,1
1532233394864,-4,20,-2,-1,-2,-3,-2,-5
1532233394869,3,-10,-6,4,1,0,1,3
1532233394874,-2,4,0,1,0,0,-1,-5
1532233394879,-3,1,12,-2,0,-1,-4,-2
1532233394884,8,9,-31,-10,-1,0,1,3
1532233394889,-6,-16,7,5,0,1,-4,-5
1532233394894,-3,-5,4,0,-1,0,1,5
1532233394899,5,12,40,9,0,0,-1,-11
1532233394904,-1,2,-61,-14,-5,-3,-3,1
1532233394909,-2,35,25,8,1,-1,-2,-4
1532233394914,1,-52,-8,-1,-2,-2,2,-2
1532233394919,-7,-20,-9,-8,-2,-2,-4,5
1532233394924,-2,30,31,3,2,1,2,-1
1532233394929,3,-25,-10,-9,-3,-1,3,5
1532233394934,5,55,-38,25,4,-1,0,-9
1532233394939,-23,-58,-43,-16,-5,-1,-3,0
1532233394944,4,-6,23,1,-2,0,-1,0
1532233394949,1,-26,-14,0,3,3,0,5
1532233394954,9,31,41,-10,-5,-1,1,-2
1532233394959,-8,40,-4,2,-1,-4,2,1
1532233394964,-10,-11,-9,6,0,0,0,-2
1532233394969,12,12,6,-7,-3,-3,1,-2
1532233394974,-7,-40,-10,-6,-3,-3,-3,-2
1532233394979,16,45,7,8,8,4,-1,3
1532233394984,0,41,30,-3,-2,-3,0,-3
1532233394989,1,2,-12,7,0,-1,0,-4
1532233394994,-8,-8,16,-4,-2,0,-2,-2
1532233394999,2,-23,-19,3,2,1,3,6
1532233395004,5,-21,-7,-3,-1,-1,-3,-1
1532233395009,-3,32,-9,-5,-5,-3,-1,-4
1532233395014,-3,-50,-24,-5,-1,-1,-3,4
1532233395019,0,16,27,3,0,2,2,-5
1532233395024,-5,-6,8,-1,-1,-3,-4,0
1532233395029,-2,9,-5,-4,-1,-2,-2,-3
1532233395034,-6,-2,19,-11,-5,-2,0,-1
1532233395039,6,34,-18,14,2,0,-2,-1
1532233395044,3,-22,13,1,-2,1,0,-3
1532233395049,-8,-18,5,3,1,0,-1,2
1532233395054,7,14,8,-4,-1,-1,1,3
1532233395059,5,-2,12,-4,-1,-1,4,3
1532233395064,-4,-29,1,5,-1,0,-2,-1
1532233395069,-1,-18,-7,-4,0,-1,-1,-3
1532233395074,0,12,-7,-2,0,1,-1,-2
1532233395079,-3,-22,-11,-4,-1,-4,-3,-3
1532233395084,-2,-4,4,-2,-3,-4,-1,-1
1532233395089,1,-2,7,-2,-2,-1,1,0
1532233395094,-3,9,-7,2,1,0,-1,-2
1532233395099,0,-26,6,-1,-1,1,2,0
1532233395104,-3,3,0,-2,0,0,0,-4
1532233395109,2,-31,-11,1,2,0,0,-1
1532233395114,-5,-25,-9,0,-1,-1,-1,-2
1532233395119,-3,-5,7,-2,-2,0,0,-1
1532233395124,0,5,0,-2,-1,-1,1,2
1532233395129,-4,-11,-8,-1,-1,-1,-2,-1
1532233395134,1,34,5,1,-1,-1,-1,-2
1532233395139,0,-20,5,0,0,0,-1,0
1532233395144,0,-11,-3,-1,0,-2,-2,-1
1532233395149,-2,17,-1,-1,-2,0,-1,-2
1532233395154,0,18,-1,1,1,1,1,-1
1532233395159,-3,-20,-2,-2,-1,-2,0,-1
1532233395164,1,7,0,1,1,0,1,0
1532233395169,-3,-1,-2,-3,-3,-2,-2,0
1532233395174,1,15,0,-2,-1,-1,-1,-2
1532233395179,0,-2,-1,0,-2,-1,-1,-1
1532233395184,1,3,0,1,0,0,0,2
1532233395189,-2,-2,-1,0,-1,1,0,-1
1532233395194,2,1,-2,1,0,-1,0,1
1532233395199,-3,1,-2,-3,0,-1,-2,0
1532233395204,-1,3,2,-2,-1,-2,-1,-3
1532233395209,-3,-8,-3,1,-1,0,-1,-1
1532233395214,-1,4,1,1,-2,-1,-2,-1
1532233395219,1,7,1,1,0,1,0,0
1532233395224,1,3,-1,0,-1,0,1,0
1532233395229,1,-27,-2,1,0,-2,-1,-2
1532233395234,-4,-22,-4,-2,-1,-1,-1,-1
1532233395239,-1,-1,2,-3,-1,0,-1,-1
1532233395244,-1,-1,0,1,0,0,-1,-1
1532233395249,-1,2,0,-1,2,0,-1,-1
1532233395254,-1,7,-2,-3,-2,0,-1,0
1532233395259,1,-7,1,0,-1,-1,-1,1
1532233395264,1,1,-1,1,0,0,-1,-2
1532233395269,-3,1,-3,-2,-4,-4,-2,-3
1532233395274,0,8,-2,-2,0,1,-1,-3
1532233395279,-4,0,-1,0,-2,-1,0,-3
1532233395284,-2,0,-2,-1,-1,0,-1,1
1532233395289,-1,9,2,-1,-2,-3,0,-1
1532233395294,-1,4,0,-1,-1,-1,-2,0
1532233395299,1,-5,-2,0,-3,-2,-1,-2
1532233395304,1,-9,-4,-1,0,1,-1,1
1532233395309,-1,-3,3,0,-2,1,-2,-1
1532233395314,1,4,-4,0,0,-1,2,0
1532233395319,1,-2,0,1,0,-1,2,0
1532233395324,-2,-11,-2,-1,-1,0,-1,-2
1532233395329,0,0,-1,-1,0,-1,0,0
1532233395334,-3,17,1,-1,-2,-3,-4,-1
1532233395339,-2,1,0,-2,-2,0,-1,-3
1532233395344,-1,-4,0,0,-1,-1,-1,0
1532233395349,2,52,2,2,2,2,1,-1
1532233395354,2,-2,4,3,0,-1,2,1
1532233395359,-1,24,-2,-3,-2,-2,0,-2
1532233395364,-4,-18,-2,-1,-2,-2,-1,-2
1532233395369,-6,-11,-6,-4,0,-1,-3,-2
1532233395374,0,1,1,-2,-1,0,0,0
1532233395379,-8,-1,-4,-1,-1,0,-2,-3
1532233395384,-8,-6,2,1,-1,0,3,0
1532233395389,4,40,7,-1,0,-2,-1,-2
1532233395394,-5,-48,-9,-1,-2,-2,-1,-3
1532233395399,3,5,14,0,0,0,-1,3
1532233395404,-1,-16,-27,-4,-2,-3,-2,-3
1532233395409,4,10,3,-1,-2,-2,-1,0
1532233395414,-8,3,-1,-1,0,0,2,-4
1532233395419,3,12,-3,0,0,1,-1,3
1532233395424,5,-2,6,0,-1,-2,-4,0
1532233395429,-6,-38,-7,-2,-1,1,-2,-7
1532233395434,2,16,4,2,0,0,2,-5
1532233395439,0,-15,-6,-4,-2,-4,1,2
1532233395444,4,11,1,-1,-1,0,-1,19
1532233395449,3,-11,-5,-2,-1,1,-2,9
1532233395454,-7,5,4,1,0,1,2,-41
1532233395459,-9,-11,-7,1,-3,-5,-1,15
1532233395464,20,16,1,0,-1,1,3,26
1532233395469,-12,-8,0,-1,0,-1,0,-21
1532233395474,-19,0,-7,-3,-3,-4,-6,-14
1532233395479,3,-4,2,0,1,1,-2,-3
1532233395484,-11,3,1,0,-1,-2,-3,-6
1532233395489,18,-9,-2,0,-2,2,2,17
1532233395494,8,6,2,-1,-1,0,1,14
1532233395499,-4,-9,-3,-2,-2,-3,0,-6
1532233395504,-10,2,1,-1,0,-1,-2,-4
1532233395509,3,1,5,1,-1,1,2,-5
1532233395514,-5,-6,-7,-2,1,-5,-4,1
1532233395519,4,-8,-3,-3,-3,-1,-3,12
1532233395524,8,4,3,0,1,2,1,-19
1532233395529,-24,-5,-3,-2,-3,-7,-2,0
1532233395534,17,7,2,-1,-2,-3,-4,14
1532233395539,15,-2,1,2,3,1,2,-4
1532233395544,-14,0,-2,-1,1,1,-3,12
1532233395549,-10,-7,-3,-1,-4,-1,1,-40
1532233395554,-4,0,1,-1,-1,-6,-1,20
1532233395559,-2,-7,-2,-2,-1,-2,-5,-14
1532233395564,-4,-2,2,0,0,0,-1,-4
1532233395569,14,-12,-2,-1,0,0,-3,11
1532233395574,1,-2,2,-1,0,3,1,5
1532233395579,0,4,2,2,-1,1,2,-11
1532233395584,-6,2,0,-2,-2,-3,-1,-7
1532233395589,3,4,-4,-1,-1,1,0,16
1532233395594,-1,7,-2,-1,-1,2,-2,-19
1532233395599,-1,5,0,-2,1,-1,-2,6
1532233395604,6,10,2,-2,-3,-1,-1,-3
1532233395609,15,3,0,2,0,1,0,20
1532233395614,-26,5,2,-1,-2,0,-2,-38
1532233395619,-8,2,-6,-3,-2,-9,-4,-7
1532233395624,4,2,-3,3,2,-1,-2,-6
1532233395629,-9,-3,-1,-2,-2,4,-1,-11
1532233395634,3,-2,-2,-3,-5,0,-1,5
1532233395639,13,-1,1,-1,0,2,3,10
1532233395644,-11,0,-1,-4,-4,-3,0,-10
1532233395649,0,-5,-4,0,-1,-4,-5,-4
1532233395654,10,-2,-2,0,1,1,1,12
1532233395659,-8,-4,0,1,-1,1,-2,-9
1532233395664,5,-5,-2,1,0,-2,-1,4
1532233395669,-12,-2,1,0,0,-1,1,0
1532233395674,-7,-1,-2,-1,-1,-2,-4,-1
1532233395679,-1,-3,-2,1,0,1,4,1
1532233395684,8,0,1,2,2,2,1,1
1532233395689,-2,2,2,-1,2,2,0,-8
1532233395694,-12,-2,-4,-1,-2,-3,3,14
1532233395699,11,3,-2,-1,-1,-5,-5,3
1532233395704,-19,1,-1,-3,-5,-2,-1,-31
1532233395709,8,0,-6,-4,-5,-6,-6,33
1532233395714,6,4,4,4,2,2,0,1
1532233395719,-13,-8,-6,-4,-3,2,0,-3
1532233395724,-3,-2,1,-3,-1,-1,0,11
1532233395729,-4,-4,-4,1,1,-1,0,-7
1532233395734,10,-3,-2,-1,0,-1,1,8
1532233395739,-13,-3,1,0,-3,1,-5,-2
1532233395744,6,-2,-2,1,1,-1,0,-5
1532233395749,1,2,-1,1,1,2,5,1
1532233395754,-3,2,-3,-2,-4,-2,-2,5
1532233395759,-1,2,1,0,-1,-2,0,-9
1532233395764,7,-1,-1,-2,0,0,-2,-1
1532233395769,0,3,3,2,1,0,3,-16
1532233395774,7,1,0,-1,0,-2,-1,0
1532233395779,-2,1,0,-2,-2,-3,3,-2
1532233395784,-4,1,0,1,-3,-2,2,-1
1532233395789,-6,-1,2,-1,1,7,-2,-2
1532233395794,5,-3,1,0,0,1,1,-2
1532233395799,3,3,3,0,-1,-1,-1,9
1532233395804,5,-3,-1,1,0,-2,-1,4
1532233395809,5,-2,-1,-1,-3,-4,-2,-5
1532233395814,5,0,1,0,2,2,1,5
1532233395819,-1,-4,0,0,3,3,0,1
1532233395824,2,1,-2,0,-1,2,-3,-1
1532233395829,3,-3,-2,-3,-3,-3,-3,2
1532233395834,2,-2,-2,-1,1,3,-1,-1
1532233395839,-2,-1,-1,2,-3,-4,4,6
1532233395844,-3,-3,-3,-3,-3,-2,-4,-1
1532233395849,-3,-3,-2,1,2,-2,0,-1
1532233395854,2,-5,-1,-2,-2,-1,-3,-2
1532233395859,4,-3,-2,0,1,4,-1,-7
1532233395864,-1,1,1,1,1,-1,2,3
1532233395869,-1,3,1,-3,-3,-1,0,3
1532233395874,1,4,-1,-1,-2,-2,1,-2
1532233395879,1,3,1,1,2,1,1,0
1532233395884,3,1,0,4,4,-5,-1,0
1532233395889,0,-2,-1,-2,-2,-1,-2,-1
1532233395894,-3,1,-2,-7,-11,2,-3,1
1532233395899,-2,-1,-2,-4,-4,0,-1,-3
1532233395904,-2,-4,-3,-4,-4,1,0,-1
1532233395909,-1,-3,2,3,3,-4,-2,-1
1532233395914,-1,-3,0,1,3,-3,-1,-1
1532233395919,-4,0,1,0,3,3,-1,-1
1532233395924,-5,-2,-2,-3,-3,-5,-2,-2
1532233395929,-1,0,-3,-1,-3,-2,0,0
1532233395934,2,2,-1,0,-3,-2,-1,1
1532233395939,2,1,0,0,0,0,-2,-1
1532233395944,2,1,0,1,2,3,1,0
1532233395949,-3,1,-1,-2,0,-3,-1,1
1532233395954,0,1,-2,0,1,-3,0,1
1532233395959,1,2,0,0,2,3,-2,-4
1532233395964,0,-1,-2,-1,-1,1,-2,0
1532233395969,-3,0,0,-3,-6,-4,-1,0
1532233395974,-1,-1,-2,1,1,-2,-1,0
1532233395979,1,-1,-1,1,1,-4,0,0
1532233395984,0,0,2,-2,-1,1,-2,-1
1532233395989,0,0,-2,1,0,1,-1,-2
1532233395994,0,-2,-2,0,1,0,-1,0
1532233395999,-4,-3,-1,-4,-3,-1,0,-1
1532233396004,-2,2,-1,-2,-1,0,-1,1
1532233396009,-1,0,-1,0,0,-1,-1,-1
1532233396014,-4,-4,-2,-1,-3,0,0,-1
1532233396019,0,-2,0,-1,-1,0,-3,-3
1532233396024,0,-2,-2,1,-1,0,-1,0
1532233396029,0,0,2,1,0,-1,0,0
1532233396034,-1,-1,1,0,2,0,0,0
1532233396039,-5,1,-1,-2,-1,-2,-2,-2
1532233396044,-5,-1,0,-3,-2,0,0,-1
1532233396049,-5,-3,-2,-1,1,0,-1,1
1532233396054,-2,0,0,-1,-1,-1,-2,-1
1532233396059,0,2,3,0,0,-2,1,-2
1532233396064,-6,-11,-21,-1,0,-1,-3,0
1532233396069,1,-4,2,-3,-3,-1,-1,0
1532233396074,4,-1,-2,0,0,0,-2,1
1532233396079,6,1,3,-2,0,-2,-1,1
1532233396084,2,1,5,0,0,-1,1,-1
1532233396089,2,0,-5,1,-2,1,0,0
1532233396094,1,0,1,-4,-1,-2,0,-3
1532233396099,-3,-1,-2,0,-3,-2,-1,1
1532233396104,2,1,4,-1,-1,-1,1,-1
1532233396109,-1,-3,-6,-1,0,0,-2,-2
1532233396114,0,-1,3,0,0,-1,0,-1
1532233396119,0,-2,-4,0,-1,-1,-2,-5
1532233396124,0,-1,-5,-2,0,0,1,3
1532233396129,-4,1,11,-1,0,-1,-2,-8
1532233396134,-3,-3,-4,-2,-1,-2,-1,5
1532233396139,0,-2,-3,0,-1,1,0,0
1532233396144,1,-1,2,-1,0,1,-1,-3
1532233396149,2,0,-8,-3,-1,2,2,0
1532233396154,2,12,45,8,-2,-2,0,-4
1532233396159,-6,-12,-42,1,-1,0,-2,-2
1532233396164,0,-5,-2,-5,-3,-1,0,2
1532233396169,-1,-1,-2,-1,0,0,-1,1
1532233396174,-2,-3,-3,-2,-1,0,-2,0
1532233396179,3,5,20,3,0,-2,0,1
1532233396184,0,0,0,-1,-2,-1,-1,-2
1532233396189,-1,-3,-3,-3,-1,-1,0,1
1532233396194,-2,-2,-4,-1,-2,0,0,-3
1532233396199,-1,2,5,1,-1,1,1,-1
1532233396204,-1,-2,-5,1,0,0,-1,-3
1532233396209,0,1,3,0,0,-1,-1,0
1532233396214,-2,-1,-12,0,-1,0,-2,-1
1532233396219,-2,0,-1,-1,0,0,-2,0
1532233396224,-1,1,4,-1,-2,-1,-1,-1
1532233396229,1,4,5,0,-1,-3,1,0
1532233396234,-2,1,-8,-3,-1,-1,0,-2
1532233396239,-3,-2,-4,-5,-3,-1,-2,0
1532233396244,0,4,9,-1,-2,0,-2,-1
1532233396249,0,-1,6,0,0,0,-1,-2
1532233396254,-6,-10,-29,-2,1,-1,-2,0
1532233396259,2,3,8,-6,-2,-1,0,0
1532233396264,7,13,34,14,1,-1,3,-2
1532233396269,-14,-24,-76,-13,-3,0,-6,-1
1532233396274,-4,-3,12,-7,0,1,-1,0
1532233396279,-2,-1,0,-3,0,-2,0,1
1532233396284,-2,-2,15,-5,-3,-2,-1,-2
1532233396289,1,2,13,2,0,-2,-1,-3
1532233396294,-2,-4,-16,-2,-1,-1,-3,-1
1532233396299,-1,-1,3,0,-1,0,1,0
1532233396304,-1,0,9,-2,-1,-1,-2,1
1532233396309,-1,-1,-5,2,-1,0,1,0
1532233396314,-3,-3,-9,-3,-2,-2,-2,-1
1532233396319,-1,1,7,-2,-3,-2,1,1
1532233396324,0,2,2,1,0,-1,0,-2
1532233396329,0,0,6,0,-1,0,0,0
1532233396334,-4,-10,-35,-6,0,-1,-3,1
1532233396339,0,3,16,1,-1,-1,-3,0
1532233396344,-1,-3,-9,0,0,-1,0,-1
1532233396349,0,-2,6,1,1,1,-3,-1
1532233396354,0,1,0,-4,-1,-1,-1,-1
1532233396359,0,2,11,3,-3,-2,-1,-2
1532233396364,-2,-3,-5,0,-1,1,-3,-1
1532233396369,-1,-4,-3,-2,-1,-1,-1,0
1532233396374,1,-1,4,0,0,-1,0,-2
1532233396379,0,-1,0,-2,0,0,0,0
1532233396384,2,-1,4,-1,-2,0,-1,0
1532233396389,-1,-1,-4,0,-1,0,0,0
1532233396394,-2,0,-1,-1,-1,-1,0,0
1532233396399,0,1,2,0,0,-2,-1,0
1532233396404,0,-1,4,-1,-1,0,1,-1
1532233396409,0,0,-4,0,-1,0,-1,-2
1532233396414,1,2,11,3,-1,0,1,-1
1532233396419,-1,-7,-30,-6,-1,-1,1,-1
1532233396424,0,3,16,4,-1,-2,-2,-1
1532233396429,-3,-6,-16,-4,0,-1,-2,-1
1532233396434,-3,-1,2,-3,0,0,0,-1
1532233396439,3,4,20,4,-1,-1,1,-1
1532233396444,-4,-10,-39,-7,-2,0,-2,-1
1532233396449,0,1,13,-4,-1,0,1,-2
1532233396454,-1,0,5,4,0,1,1,1
1532233396459,-1,-2,-6,-2,0,-1,0,1
1532233396464,3,3,9,1,-2,-1,1,0
1532233396469,0,1,1,1,-2,-2,-1,-1
1532233396474,0,-2,-5,-1,-1,0,-1,-1
1532233396479,-3,-6,-20,-3,-2,0,-2,-1
1532233396484,-1,2,14,2,0,0,-1,0
1532233396489,-1,-3,-12,0,0,-1,0,0
1532233396494,1,1,0,-2,1,-1,0,0
1532233396499,-1,0,10,0,-1,-1,1,-2
1532233396504,0,0,-7,-1,0,0,-1,0
1532233396509,0,-1,-3,-2,-2,-2,-1,-1
1532233396514,-1,-3,0,0,-1,-1,-1,0
1532233396519,0,1,5,1,0,-1,-1,-3
1532233396524,0,-1,-10,-3,1,0,1,-1
1532233396529,0,4,18,6,1,-1,-2,-1
1532233396534,-1,0,-4,-1,-2,-1,-3,1
1532233396539,-1,-3,-3,0,0,1,0,0
1532233396544,0,2,6,-1,-2,-1,-1,0
1532233396549,0,-2,-9,-3,-1,-1,0,-2
1532233396554,0,2,4,0,1,-2,0,-2
1532233396559,-4,-6,-13,-8,-2,0,-3,-2
1532233396564,0,-1,3,-2,-2,-2,-1,-2
1532233396569,0,-3,-2,0,-1,1,1,-1
1532233396574,-2,-2,-2,-3,-2,-1,-2,-1
1532233396579,1,4,9,4,-1,-1,1,2
1532233396584,-3,-2,-6,-2,-2,-1,0,0
1532233396589,-1,1,1,-2,0,-2,0,1
1532233396594,-1,-2,-3,0,0,-1,-1,-2
1532233396599,1,0,2,-2,0,0,-1,-1
1532233396604,-1,-1,1,2,-1,-1,0,-1
1532233396609,0,-1,-4,0,-1,-1,-1,1
1532233396614,-2,-4,5,2,0,1,-3,-1
1532233396619,0,1,3,-1,-1,-1,-1,-1
1532233396624,-2,1,0,1,-1,-1,0,-1
1532233396629,0,0,2,0,-1,0,-3,-2
1532233396634,0,-2,-4,-1,-1,-2,1,0
1532233396639,2,2,5,1,0,-2,-3,-1
1532233396644,-1,-3,-14,-4,0,-1,-2,-1
1532233396649,1,1,3,0,-1,0,1,-1
1532233396654,0,-3,-11,-4,-2,-1,0,-1
1532233396659,-5,-1,13,0,0,-1,-2,0
1532233396664,0,-1,1,0,-1,0,-1,0
1532233396669,0,2,7,-1,-1,-3,-1,0
1532233396674,2,4,-3,4,0,0,1,-3
1532233396679,-5,-11,-16,-2,0,0,-1,-1
1532233396684,-2,-1,4,-2,0,0,-1,0
1532233396689,-1,-2,-7,-2,-1,2,1,-1
1532233396694,2,3,11,-3,-3,-2,-1,1
1532233396699,1,1,-1,0,-2,-2,-1,-2
1532233396704,-2,-1,-7,-2,-1,-1,-1,-2
1532233396709,-2,-1,1,-2,0,-2,-1,-2
1532233396714,0,-1,-8,-3,0,-1,-1,0
1532233396719,0,4,12,9,1,-1,2,-1
1532233396724,-3,-4,-7,-6,-2,-1,-1,1
1532233396729,1,3,7,2,0,0,1,1
1532233396734,-2,-4,9,-1,-1,-1,-2,-1
1532233396739,0,-2,-21,-3,-1,-2,-1,-2
1532233396744,-1,0,3,0,-2,0,-1,1
1532233396749,-1,0,-1,0,1,-3,0,-1
1532233396754,1,-2,-3,0,1,-1,0,-1
1532233396759,0,0,9,-1,-2,-2,-1,0
1532233396764,2,1,-5,-4,-1,-2,0,-2
1532233396769,-4,-4,-8,1,-1,-2,-4,-2
1532233396774,0,-2,7,3,0,0,-2,-2
1532233396779,2,1,3,-3,-2,0,0,-1
1532233396784,-2,-4,-5,2,-1,1,-1,-2
1532233396789,0,-1,-2,-3,-1,-1,0,-1
1532233396794,-2,-2,2,-1,-2,-2,0,0
1532233396799,-2,1,3,0,-1,1,0,1
1532233396804,1,-6,-19,-5,-1,-2,-2,-1
1532233396809,1,-1,1,0,0,-1,1,-1
1532233396814,-1,0,0,2,-1,-2,-1,-1
1532233396819,-1,-1,4,-4,-1,-1,0,0
1532233396824,0,4,18,4,-1,0,1,-1
1532233396829,-2,-2,-16,-2,-2,1,-1,0
1532233396834,-2,0,6,-2,-2,-1,-1,-2
1532233396839,1,0,-3,0,-1,0,0,1
1532233396844,-1,-4,-12,-5,-1,-1,-1,1
1532233396849,0,0,-1,1,-1,-1,-1,2
1532233396854,0,-3,-7,-2,0,-1,0,-1
1532233396859,1,1,11,-1,-1,-2,-1,0
1532233396864,-2,-1,-1,-1,1,-1,0,-2
1532233396869,2,1,8,1,-1,-2,0,-3
1532233396874,-1,-1,1,-1,0,0,-3,0
1532233396879,-3,-2,-5,-2,-1,0,0,-3
1532233396884,1,2,6,0,-2,0,0,0
1532233396889,-1,-2,-7,-1,0,-1,-1,-1
1532233396894,0,0,-2,0,0,-1,0,1
1532233396899,-2,0,-2,1,0,-2,-2,-1
1532233396904,0,-1,4,2,-1,-1,0,-1
1532233396909,0,2,1,0,0,1,-3,0
1532233396914,1,-2,3,-2,-1,-1,1,-2
1532233396919,-1,-5,-22,-2,-1,0,-3,0
1532233396924,0,1,10,-1,-1,-1,0,-1
1532233396929,0,1,-5,-3,-2,0,-1,-1
1532233396934,-3,-7,-10,1,1,-1,-3,-3
1532233396939,0,1,10,0,0,0,-1,0
1532233396944,0,1,-4,-2,-1,1,-1,0
1532233396949,-1,-1,1,0,-2,-1,-1,-1
1532233396954,-1,2,5,2,-1,0,0,0
1532233396959,0,-1,8,1,-1,-1,-1,-1
1532233396964,-1,2,23,1,-3,-2,-1,-2
1532233396969,2,4,-17,3,0,-3,1,-1
1532233396974,-4,-9,-38,-10,-1,0,-2,0
1532233396979,0,1,8,-4,0,-3,-2,-1
1532233396984,-1,-1,-9,-2,1,0,-1,0
1532233396989,1,3,21,4,-2,-1,0,-1
1532233396994,-1,3,9,3,0,0,-1,-2
1532233396999,-1,-3,-15,-5,-1,0,0,-1
1532233397004,1,0,1,-1,-2,0,-1,-1
1532233397009,-1,-5,5,2,1,1,1,-1
1532233397014,0,-1,0,0,-2,0,-1,0
1532233397019,-2,0,4,-1,0,-2,0,0
1532233397024,1,-1,-3,-1,-2,-2,-1,-2
1532233397029,-2,-7,-19,-5,-1,-1,-3,-2
1532233397034,1,1,4,-2,-1,-1,0,-1
1532233397039,-1,0,11,2,0,-1,-1,1
1532233397044,-2,0,9,2,-1,-1,-1,0
1532233397049,-2,-1,-4,-1,-1,0,-2,-2
1532233397054,-1,0,-4,1,1,-1,0,-1
1532233397059,1,-2,-3,-2,-1,-1,0,0
1532233397064,1,1,6,-1,-2,0,0,0
1532233397069,-1,-1,-9,-2,-2,-1,0,-2
1532233397074,-1,-1,-3,-2,0,0,-3,1
1532233397079,2,3,4,-2,-1,-1,-1,-1
1532233397084,-3,-4,-8,-2,0,0,-1,-1
1532233397089,-1,-1,9,0,-1,-1,-2,-1
1532233397094,2,2,13,-2,-1,-1,0,0
1532233397099,0,1,-12,7,1,1,-1,-1
1532233397104,-2,0,3,-7,-1,-2,-1,0
1532233397109,1,0,0,0,0,-1,-1,-1
1532233397114,-2,-4,-8,0,0,-1,-1,-2
1532233397119,0,3,26,0,-2,0,-2,-1
1532233397124,-1,-6,-35,-5,0,0,-1,-2
1532233397129,-3,-3,-4,-2,-2,1,0,0
1532233397134,-1,1,1,-1,1,-1,1,-1
1532233397139,0,-1,3,-3,-1,-2,-1,-3
1532233397144,1,2,8,3,-1,-1,0,-1
1532233397149,-2,-5,-8,0,0,0,-2,1
1532233397154,-1,-2,2,2,-1,1,-1,1
1532233397159,-3,-5,-13,-3,-2,0,-1,-1
1532233397164,1,1,1,2,1,-1,0,-1
1532233397169,-2,0,6,-1,-1,-1,-1,0
1532233397174,1,3,5,1,-2,0,-1,-1
1532233397179,-1,-4,6,1,2,0,-1,-1
1532233397184,0,-4,-21,-2,-4,0,-1,-1
1532233397189,-1,0,3,-5,-2,0,2,0
1532233397194,-1,0,-8,0,-1,1,0,0
1532233397199,-3,0,5,-5,-1,-1,-1,-1
1532233397204,0,1,9,3,0,-2,2,-1
1532233397209,1,-1,1,1,1,-2,-2,-2
1532233397214,0,-2,-10,1,0,0,-2,-1
1532233397219,-3,-3,-5,-2,-1,0,-1,2
1532233397224,0,2,9,0,0,0,0,-1
1532233397229,-1,0,-7,-4,-2,-1,-1,-1
1532233397234,0,4,7,-1,-1,-2,1,-1
1532233397239,-4,-4,-9,-1,0,0,-1,-2
1532233397244,0,1,8,-1,-2,1,-1,-2
1532233397249,0,-1,10,4,1,-1,0,0
1532233397254,0,-7,-56,-1,-1,-1,0,0
1532233397259,-5,-4,0,-6,-4,-1,-2,-1
1532233397264,0,0,8,0,0,1,-2,0
1532233397269,-1,-1,1,-2,-1,0,0,0
1532233397274,-1,0,19,2,0,-1,-1,-1
1532233397279,1,-2,-13,-3,1,-2,0,0
1532233397284,-1,0,4,1,-1,-2,-2,-1
1532233397289,2,1,-1,-2,-1,0,0,0
1532233397294,-2,-4,3,-3,-1,-1,-1,-2
1532233397299,1,-1,-7,2,-1,-1,0,0
1532233397304,-2,-1,8,-3,-1,0,-1,1
1532233397309,0,1,6,1,-1,1,0,-1
1532233397314,-2,-2,-8,-3,-1,-1,-2,-1
1532233397319,0,2,6,-2,-1,-1,-1,-1
1532233397324,-1,-3,-8,-3,-2,0,-1,0
1532233397329,-2,-2,-1,2,-1,-2,0,0
1532233397334,0,-2,2,-3,-2,1,1,-2
1532233397339,0,2,14,7,0,-1,0,-2
1532233397344,-2,-5,-21,-5,0,-2,-1,-2
1532233397349,0,2,7,-3,-1,-1,0,0
1532233397354,0,-3,-7,-5,0,-3,-1,-1
1532233397359,-1,0,10,5,0,-1,-1,0
1532233397364,0,3,17,-2,-2,-2,1,1
1532233397369,-3,-8,-37,-2,0,-2,-3,-1
1532233397374,0,4,19,-1,0,-1,-1,-1
1532233397379,0,-5,-15,-5,-3,-1,-2,-3
1532233397384,-1,0,5,1,0,-1,-1,0
1532233397389,-1,-1,4,1,-1,0,2,0
1532233397394,1,1,2,0,-1,-1,-1,-1
1532233397399,0,-2,-4,-3,-1,0,1,-1
1532233397404,-1,0,-3,4,0,0,0,-1
1532233397409,0,1,7,-3,-3,0,-1,-1
1532233397414,-1,0,10,5,2,-1,-2,0
1532233397419,-1,-6,-35,-6,1,-1,-2,0
1532233397424,2,2,13,-5,-2,-3,0,-1
1532233397429,0,-5,-31,-2,0,0,-2,0
1532233397434,-3,3,33,0,-3,-1,-1,-1
1532233397439,0,2,6,-1,-2,0,0,0
1532233397444,-1,-3,-10,1,1,0,-1,-1
1532233397449,0,0,8,2,-1,-2,0,-1
1532233397454,-1,-1,-15,-4,-1,0,0,-2
1532233397459,-1,0,3,0,-1,-1,-1,-1
1532233397464,-1,-1,-2,1,0,-1,-1,-3
1532233397469,-1,1,12,0,-1,-2,-1,-2
1532233397474,-2,-9,-25,-8,-1,-1,-3,0
1532233397479,-2,-1,12,2,-1,2,-1,0
1532233397484,0,2,14,1,-1,0,0,-1
1532233397489,0,0,-17,-4,-3,-1,-1,-3
1532233397494,2,2,24,6,1,-1,0,1
1532233397499,-3,-6,-29,-8,-1,-1,-1,0
1532233397504,-2,-2,-4,-2,-2,-1,-1,0
1532233397509,-2,-2,6,2,0,0,-1,0
1532233397514,-1,0,3,-1,-2,-1,-1,0
1532233397519,2,3,4,2,1,-3,1,0
1532233397524,-1,-4,-10,-2,1,-1,0,-2
1532233397529,-3,-3,6,1,-1,0,-3,-1
1532233397534,-1,0,-1,-2,-1,0,0,-1
1532233397539,-1,1,0,1,0,-2,-1,-1
1532233397544,-1,-1,-4,-1,-1,-1,-1,-1
1532233397549,1,4,4,2,0,-2,0,-2
1532233397554,-3,-5,-13,-2,0,0,-1,-1
1532233397559,-1,0,7,-2,-1,0,-1,-1
1532233397564,0,0,-1,-1,-2,-1,0,0
1532233397569,1,1,10,-2,-1,0,-1,0
1532233397574,4,2,-6,2,-1,-1,0,1
1532233397579,-3,-5,-6,-2,-1,-2,-1,-2
1532233397584,-1,-2,-3,-2,0,-1,-1,-1
1532233397589,-2,-2,-4,-4,-2,0,-1,0
1532233397594,-1,1,8,0,0,-1,-2,-1
1532233397599,-1,1,5,0,-2,-1,-1,-1
1532233397604,2,1,-7,0,-1,2,-1,1
1532233397609,-3,-1,2,0,0,-1,-1,-1
1532233397614,-2,-3,-7,-3,-2,0,0,-2
1532233397619,1,1,5,1,-1,1,-1,-1
1532233397624,-1,-1,-4,-1,-1,-1,-2,0
1532233397629,-1,0,-8,-4,-1,-2,-1,-2
1532233397634,-1,2,8,5,-1,0,0,-1
1532233397639,-2,-5,-19,-5,0,-1,-1,0
1532233397644,-1,-1,5,1,-2,0,0,-1
1532233397649,0,-2,-6,-1,0,-2,-1,2
1532233397654,-2,0,5,-1,0,-3,0,0
1532233397659,2,3,1,0,-1,0,0,0
1532233397664,-2,-8,-10,0,1,-1,-3,-2
1532233397669,-3,-4,3,-3,-1,-1,0,-2
1532233397674,-1,-3,-2,-1,1,-1,0,-2
1532233397679,1,2,3,-1,-4,-2,0,-1
1532233397684,-2,1,-3,2,0,-2,0,1
1532233397689,0,1,15,3,-1,-1,0,0
1532233397694,-2,0,-18,-1,-1,0,-1,0
1532233397699,-1,-1,9,-1,0,0,-1,-2
1532233397704,0,0,2,-1,0,0,0,-1
1532233397709,-2,1,3,0,1,0,-2,-2
1532233397714,-2,-3,-7,-4,-3,0,-1,0
1532233397719,1,1,5,0,0,-1,1,1
1532233397724,-1,1,-6,-4,-2,-2,1,0
1532233397729,0,-2,-3,3,1,1,-1,0
1532233397734,-2,-2,4,0,-1,-2,0,-2
1532233397739,-2,-1,-4,-1,1,-1,0,0
1532233397744,-1,-3,3,-3,-1,-2,-1,-1
1532233397749,0,1,-4,-2,0,0,1,0
1532233397754,2,0,0,0,-1,0,-1,-1
1532233397759,-1,-1,2,1,-1,-2,0,-1
1532233397764,2,0,-10,-5,-2,-1,-1,-1
1532233397769,-1,1,28,1,1,0,-1,-2
1532233397774,-1,-9,-46,-5,0,-1,-4,-1
1532233397779,-1,3,10,-2,-1,-2,-2,0
1532233397784,0,0,-4,-1,0,0,0,-1
1532233397789,-1,-1,-10,-4,-3,-2,0,-1
1532233397794,0,3,16,3,1,1,-1,-1
1532233397799,-2,-1,4,2,0,-1,-1,0
1532233397804,-1,-2,-2,0,-1,-1,-3,-1
1532233397809,2,3,0,0,-3,-1,2,-1
1532233397814,-6,-5,-21,-7,-2,-1,-1,1
1532233397819,0,-1,-3,-2,-1,-1,0,-2
1532233397824,-1,2,0,1,-1,-1,1,-2
1532233397829,-2,-2,3,-2,-2,-1,-3,0
1532233397834,1,2,8,1,-1,0,0,-1
1532233397839,0,0,-3,0,-1,-1,0,0
1532233397844,-1,-1,5,-1,-1,-1,-1,-1
1532233397849,-1,-5,-14,-2,0,0,-1,-2
1532233397854,-1,1,12,1,-2,-1,-1,0
1532233397859,0,0,-7,0,0,0,0,-2
1532233397864,-3,-1,6,1,0,-1,-1,-1
1532233397869,-2,1,-4,-2,1,-1,0,0
1532233397874,0,-5,2,2,0,-2,-1,-1
1532233397879,1,4,19,-1,-1,-1,0,-3
1532233397884,-1,2,-4,3,0,-1,-2,1
1532233397889,1,-1,-17,-2,1,-2,-1,0
1532233397894,-2,1,21,0,1,-3,1,-3
1532233397899,0,-6,-13,-3,-3,0,-1,-1
1532233397904,-1,-1,5,1,-1,1,0,-1
1532233397909,0,-3,-5,1,-1,1,1,-1
1532233397914,-1,1,0,0,-2,-1,-1,0
1532233397919,-2,0,0,-1,-1,-1,-1,0
1532233397924,-1,0,4,-1,-1,-1,-3,-1
1532233397929,0,1,25,6,-1,0,0,0
1532233397934,0,-4,-51,-5,0,0,0,-2
1532233397939,-2,-2,3,-2,-2,1,-1,-1
1532233397944,-1,3,15,1,-1,1,1,0
1532233397949,-2,-6,-21,-4,-1,-2,-2,-1
1532233397954,1,3,18,1,-1,-1,1,0
1532233397959,-1,-4,-14,-3,-2,-1,-4,-2
1532233397964,0,2,3,1,0,-3,0,-2
1532233397969,1,4,8,0,-1,-2,2,-2
1532233397974,-1,-2,-5,-1,1,0,0,-2
1532233397979,-2,1,0,-2,-2,-1,0,-1
1532233397984,0,-4,-5,1,-2,0,-1,-1
1532233397989,0,-1,-6,0,-1,1,1,-1
1532233397994,-2,1,10,0,-2,-1,0,0
1532233397999,-3,-4,-4,0,1,-1,-1,-1
1532233398004,0,2,11,1,0,-1,0,0
1532233398009,-2,-6,-38,-8,0,0,-1,0
1532233398014,1,3,23,4,-1,1,2,0
1532233398019,1,-2,1,2,-1,-1,0,1
1532233398024,0,-1,1,-4,-2,-1,-2,0
1532233398029,0,2,-6,4,-1,-1,0,-2
1532233398034,1,-2,7,-2,-3,-2,-1,-1
1532233398039,-1,0,2,-1,-1,0,0,1
1532233398044,-1,-1,-6,-3,0,0,-2,-2
1532233398049,-1,-1,10,2,0,0,-2,-1
1532233398054,-3,-2,2,2,1,0,-1,-1
1532233398059,0,0,-6,1,1,-1,-2,0
1532233398064,0,1,-1,-3,0,-2,1,-2
1532233398069,-2,-3,3,-4,-1,-1,-2,-1
1532233398074,0,2,8,1,-1,0,-1,-2
1532233398079,-2,-8,-31,-3,0,0,-1,0
1532233398084,-2,-4,-1,-1,-2,1,0,0
1532233398089,-1,0,5,-1,0,-1,-1,0
1532233398094,0,-1,2,-3,-3,-2,-1,-1
1532233398099,0,2,10,1,1,0,-1,-2
1532233398104,-1,-2,-12,-2,-1,1,0,-1
1532233398109,-2,-4,0,-3,-2,0,-1,-1
1532233398114,1,0,3,-2,0,-1,-1,-1
1532233398119,-2,3,4,-1,0,0,-1,0
1532233398124,-2,-3,-9,1,0,-2,-2,-2
1532233398129,3,1,5,-1,-2,1,-1,0
1532233398134,-2,-2,-6,-1,0,-1,-1,0
1532233398139,0,0,3,-1,-1,-3,0,-2
1532233398144,0,-3,-2,-1,2,0,-2,0
1532233398149,-2,-1,4,1,0,1,0,-2
1532233398154,0,1,-4,-2,-2,0,-1,-1
1532233398159,0,-1,1,0,0,0,-2,-1
1532233398164,-2,-2,-7,-2,1,0,-1,0
1532233398169,-1,1,16,2,0,-1,-1,0
1532233398174,0,-5,-22,-4,-1,0,0,-1
1532233398179,-2,1,-1,-4,-1,0,-1,-1
1532233398184,-1,0,-3,0,-1,0,-1,-1
1532233398189,4,-2,2,-4,-2,-1,-1,-1
1532233398194,-3,0,12,9,2,0,-1,0
1532233398199,-1,0,-1,-1,-2,-2,-1,-1
1532233398204,-1,0,0,1,0,0,1,0
1532233398209,0,-1,-7,-2,-2,-1,0,-2
1532233398214,2,0,1,-3,-3,0,0,1
1532233398219,0,-1,0,-1,-1,-1,-1,0
1532233398224,-1,-1,-3,-2,-2,0,-1,0
1532233398229,0,0,-1,0,0,-1,-1,-1
1532233398234,-1,-2,-7,-5,-2,-2,0,1
1532233398239,-1,2,13,4,1,0,-2,-3
1532233398244,-1,-1,-2,-2,-2,-1,0,-1
1532233398249,-1,1,7,2,0,-1,0,-2
1532233398254,-2,-6,-26,-5,0,-2,-1,0
1532233398259,0,0,2,-3,-2,-1,-2,-1
1532233398264,-1,-3,-5,-4,0,-1,-2,-1
1532233398269,-1,0,-2,-1,-1,1,0,0
1532233398274,-2,2,20,5,2,0,-1,-1
1532233398279,-2,-2,-4,0,-2,-2,0,-1
1532233398284,0,0,0,-1,-2,-1,-1,-2
1532233398289,-2,-2,-5,-4,-1,-2,0,-1
1532233398294,-1,7,16,6,0,-1,-1,-1
1532233398299,-4,-11,-28,-7,-2,-1,-1,-2
1532233398304,-2,1,6,1,0,-2,-2,0
1532233398309,-1,-1,0,0,-1,-2,0,0
1532233398314,1,2,1,-1,-1,-2,0,-1
1532233398319,-1,0,-6,1,0,0,1,-2
1532233398324,2,0,5,0,0,0,0,-3
1532233398329,-2,-4,-6,-3,-1,1,-2,0
1532233398334,0,2,9,-3,-1,-1,-2,0
1532233398339,-1,-2,3,4,0,-1,-2,-1
1532233398344,0,-1,-5,-1,-2,-2,0,1
1532233398349,0,1,0,0,1,-1,-1,-1
1532233398354,0,-1,1,-2,-2,-1,-1,-2
1532233398359,1,4,0,-1,-1,1,1,1
1532233398364,-4,-4,-5,-1,-1,-2,0,-3
1532233398369,-2,-3,-2,-2,-1,0,-1,-2
1532233398374,-3,1,12,0,-1,0,-1,-2
1532233398379,0,-1,-20,-3,-1,0,0,1
1532233398384,0,-1,9,1,0,0,-3,-1
1532233398389,0,0,0,1,0,-1,-1,0
1532233398394,0,-3,-5,-4,-2,-2,-1,-3
1532233398399,1,3,12,0,-1,-1,-1,-1
1532233398404,-1,-3,-10,0,0,0,0,-1
1532233398409,-1,-1,-1,-1,-1,-1,-1,-1
1532233398414,-1,0,-1,3,0,-1,0,-1
1532233398419,-1,1,12,2,-2,-2,-2,-1
1532233398424,1,-1,-10,-2,0,-1,-1,2
1532233398429,0,-1,3,1,-1,-1,-2,-1
1532233398434,0,-3,-7,-4,-2,1,1,0
1532233398439,-3,0,6,1,-1,-1,-1,-2
1532233398444,1,5,19,2,-1,-1,-1,0
1532233398449,-5,-11,-37,-6,-2,0,0,-1
1532233398454,-1,-2,-6,-5,-1,-1,1,0
1532233398459,0,-2,-1,-2,0,-1,-1,-1
1532233398464,0,1,5,0,-1,-1,-1,-1
1532233398469,0,3,8,1,-1,-1,-1,0
1532233398474,-2,0,0,0,0,0,-1,-2
1532233398479,-1,-4,-6,-2,-2,-1,0,0
1532233398484,-1,0,-1,-1,-1,0,-1,0
1532233398489,1,0,4,1,-1,-2,0,-2
1532233398494,-1,-4,-8,-1,0,1,-1,-1
1532233398499,1,0,7,-1,0,-1,0,0
1532233398504,-2,-2,-6,-3,-1,0,-2,0
1532233398509,1,1,3,-1,-1,-2,0,-1
1532233398514,-1,0,-2,-1,-1,0,-2,-1
1532233398519,-1,0,-2,0,-1,0,-2,0
1532233398524,0,-1,-5,0,-1,1,-2,-1
1532233398529,-2,0,5,1,1,-1,0,0
1532233398534,-1,-1,-2,-2,-1,-2,-1,0
1532233398539,0,-1,1,-1,-3,-1,0,-2
1532233398544,1,-1,3,1,0,-2,1,-2
1532233398549,-2,-6,-19,-2,-2,-1,-2,-1
1532233398554,0,-3,3,2,-2,-1,0,-2
1532233398559,0,1,-2,-3,0,-1,-1,-1
1532233398564,1,-1,-2,-3,-2,0,0,0
1532233398569,-1,3,7,2,0,1,-1,-1
1532233398574,1,-2,-10,-5,-1,-2,0,0
1532233398579,-1,0,5,1,1,0,-1,-1
1532233398584,0,0,0,0,-3,-1,-1,-2
1532233398589,-1,-1,1,-2,0,0,-1,1
1532233398594,-1,-3,-2,1,0,0,-3,0
1532233398599,1,1,-2,-2,0,0,-1,0
1532233398604,-2,-1,-2,0,0,-2,-2,-1
1532233398609,-1,2,5,-1,0,-2,-2,-2
1532233398614,-1,-1,-1,0,-1,0,-1,0
1532233398619,-1,-2,-5,-1,0,0,0,-1
1532233398624,-2,0,-4,-3,0,-2,-2,-1
1532233398629,-1,-1,2,0,-1,-1,-2,-1
1532233398634,0,1,0,-1,0,0,-1,-1
1532233398639,-1,-1,1,1,-1,0,-1,-1
1532233398644,0,0,8,-4,-1,0,0,0
1532233398649,0,-1,-14,-1,-1,-1,0,0
1532233398654,0,-2,-5,-6,-2,-2,-1,0
1532233398659,1,1,4,3,-1,0,2,0
1532233398664,-1,-1,3,1,0,0,0,-2
1532233398669,2,4,14,0,0,-2,0,-1
1532233398674,-3,-6,-13,0,0,0,-2,0
1532233398679,-3,-1,-7,-4,-2,0,-2,0
1532233398684,-1,0,-5,-2,-1,0,1,1
1532233398689,1,2,10,3,0,-1,-1,0
1532233398694,-2,-1,-3,1,-1,0,-1,-1
1532233398699,0,-2,0,-1,0,-1,-2,-2
1532233398704,-2,-3,-6,-2,-1,0,-1,0
1532233398709,0,3,14,-2,0,0,-2,0
1532233398714,-1,0,-15,1,-1,-1,-3,-2
1532233398719,-2,-2,-3,-3,-1,-2,-1,0
1532233398724,-1,-2,5,-2,-2,-1,-2,-2
1532233398729,-2,-2,-6,-1,-1,0,-1,1
1532233398734,1,5,12,-1,0,-1,1,-1
1532233398739,-1,1,3,1,-2,-1,0,-1
1532233398744,-2,-2,-14,-1,0,-1,1,-2
1532233398749,1,0,3,0,1,-1,0,0
1532233398754,-2,-2,-2,-4,-1,-2,-1,0
1532233398759,-2,-1,1,1,0,0,0,0
1532233398764,-1,1,7,0,-2,-2,0,1
1532233398769,-1,-4,-8,0,-1,0,-2,-2
1532233398774,-1,-1,-2,-4,-1,0,0,0
1532233398779,1,3,26,4,-2,-1,-1,-1
1532233398784,-4,-11,-46,-9,-3,0,-3,-1
1532233398789,-3,-2,2,-3,-1,-2,-1,-3
1532233398794,0,0,8,2,1,0,0,-1
1532233398799,0,0,1,-3,-1,-2,-1,-1
1532233398804,-1,2,9,2,2,0,0,0
1532233398809,-1,-1,-9,0,-1,-1,-1,0
1532233398814,1,1,-1,3,-1,0,1,0
1532233398819,0,0,-1,-1,-2,0,-2,-1
1532233398824,0,2,-1,0,0,-1,1,-1
1532233398829,-2,-2,-2,-3,-3,1,0,-3
1532233398834,-1,0,4,3,1,-1,0,-1
1532233398839,0,-1,-10,-1,-2,-2,0,1
1532233398844,-2,-2,5,2,-2,-1,0,-2
1532233398849,2,0,6,-1,-1,-2,-1,0
1532233398854,1,1,7,2,-1,-2,-1,-1
1532233398859,-2,-7,-33,-6,0,1,-1,-1
1532233398864,1,1,4,-2,-2,-1,-1,0
1532233398869,-1,0,1,1,-1,-1,-1,-1
1532233398874,0,1,11,0,-1,-1,-2,-1
1532233398879,-1,-1,-3,0,-1,-2,-1,-2
1532233398884,1,2,1,0,-1,-2,-1,-1
1532233398889,1,-2,1,5,2,0,-1,-1
1532233398894,-1,-1,-5,-3,0,-1,-1,0
1532233398899,-1,0,3,-1,1,-2,0,0
1532233398904,-1,-2,0,0,-1,1,0,0
1532233398909,0,0,-5,-4,-2,-2,1,2
1532233398914,0,-1,-5,-1,-1,0,-1,-1
1532233398919,0,1,13,1,-1,-2,-1,-2
1532233398924,-1,-2,-6,-5,-1,-1,-2,-1
1532233398929,-3,-3,-10,-3,-1,-1,-2,-1
1532233398934,1,-2,-4,0,-2,0,1,-1
1532233398939,-1,1,5,-1,-1,1,1,0
1532233398944,0,-2,-5,0,-1,0,-1,0
1532233398949,-2,-1,-1,0,0,-2,-1,0
1532233398954,-2,1,2,-2,-2,-2,-3,0
1532233398959,-2,-4,-11,-1,-2,-2,-1,0
1532233398964,-2,0,7,1,-1,1,-1,-2
1532233398969,0,1,5,2,0,-2,-2,-2
1532233398974,-1,-2,-2,-1,0,-2,-1,-1
1532233398979,1,-2,-3,-2,-1,-1,-3,0
1532233398984,-1,0,3,0,-1,-1,-2,0
1532233398989,-1,0,2,-3,-2,-1,-1,-1
1532233398994,-1,-3,-1,0,-2,0,-1,-1
1532233398999,-1,-1,-4,-1,0,0,-2,-1
1532233399004,2,2,5,2,1,-3,0,-2
1532233399009,-1,-4,-12,-6,-1,-1,0,0
1532233399014,-1,1,6,1,-2,-1,0,-1
1532233399019,-2,-3,-7,0,-2,-1,0,0
1532233399024,-1,1,10,0,-1,-1,0,-1
1532233399029,-2,-1,0,2,0,1,0,-1
1532233399034,2,-1,-5,-2,-1,-1,-1,1
1532233399039,2,1,6,1,0,-1,0,-1
1532233399044,-2,-2,-8,2,-1,-2,-1,-1
1532233399049,0,-3,-9,-2,-1,1,0,-1
1532233399054,-3,-1,-4,-5,-2,-1,-1,-1
1532233399059,0,3,8,0,1,2,-1,1
1532233399064,1,-1,-4,-3,1,0,1,0
1532233399069,0,2,15,2,-1,0,-1,-1
1532233399074,0,-1,-13,-1,-1,-1,-2,-2
1532233399079,-2,-1,2,-4,0,-3,-1,-2
1532233399084,-1,-2,-2,0,-1,0,-2,-2
1532233399089,1,0,-1,-1,-1,-2,0,-1
1532233399094,-2,-1,10,1,-1,0,0,-1
1532233399099,0,-1,-9,-3,-2,-2,-1,-1
1532233399104,-1,0,8,3,0,-1,-1,-1
1532233399109,-1,-4,-12,-2,-2,-1,-2,-3
1532233399114,1,-1,0,-5,0,-1,0,-1
1532233399119,-3,-2,-7,-1,0,-1,-2,-2
1532233399124,0,1,3,-1,-2,-1,-2,0
1532233399129,-1,1,2,0,-1,-2,-1,1
1532233399134,0,1,-2,2,-1,0,0,-2
1532233399139,-3,-5,1,-1,-2,0,-2,-1
1532233399144,0,3,-2,-3,-1,0,0,0
1532233399149,0,-5,-13,-4,1,-1,-1,-1
1532233399154,-2,-1,2,0,-3,-1,-2,-1
1532233399159,0,0,2,0,-1,-2,-1,0
1532233399164,0,2,5,1,-2,-1,-2,0
1532233399169,-2,1,0,-3,-2,-1,-1,-3
1532233399174,-1,-5,-10,-4,1,0,-2,0
1532233399179,0,2,1,-4,-2,0,0,-2
1532233399184,-5,-5,-4,2,1,1,-2,-1
1532233399189,0,1,8,1,-1,0,0,0
1532233399194,1,0,3,2,0,-1,-1,-1
1532233399199,0,-1,-2,0,-1,-1,-1,0
1532233399204,0,-3,-4,-5,-3,-2,0,-3
1532233399209,-1,4,6,-1,-1,-3,0,-1
1532233399214,-1,-5,-16,-6,-2,0,-2,-2
1532233399219,-2,0,4,1,1,0,-1,1
1532233399224,1,-1,1,-1,-1,-1,-1,0
1532233399229,-3,-2,2,0,-1,1,-2,-1
1532233399234,0,1,1,-3,-2,-2,-1,1
1532233399239,0,-1,1,3,0,-1,0,-1
1532233399244,0,-1,-4,-4,-1,-1,0,0
1532233399249,1,-1,6,2,-2,1,-1,0
1532233399254,-4,-1,-1,2,0,0,0,-3
1532233399259,-2,0,-2,-3,-3,0,-2,-1
1532233399264,-1,1,4,0,1,-4,-1,0
1532233399269,1,-1,-7,-2,0,-2,-1,-1
1532233399274,1,-1,0,0,0,-2,-1,-2
1532233399279,1,1,15,4,-1,2,0,0
1532233399284,-4,-10,-40,-8,-1,-2,-3,-1
1532233399289,-1,1,8,1,-1,0,0,-1
1532233399294,-1,-4,-2,2,0,1,-2,-1
1532233399299,-1,-1,0,-4,-2,0,-2,0
1532233399304,1,1,4,1,-2,0,0,-1
1532233399309,-1,0,-2,0,-2,1,-1,-1
1532233399314,-1,3,7,-1,-3,-2,1,0
1532233399319,-1,-5,-13,-1,-1,-2,-2,-3
1532233399324,-1,1,5,2,-2,-1,0,-1
1532233399329,-1,-4,-8,-4,-1,-1,-1,0
1532233399334,-2,1,12,1,-2,1,-2,0
1532233399339,0,-2,-4,-1,-1,-2,1,-2
1532233399344,0,1,-2,-1,-1,-2,0,-1
1532233399349,0,1,16,-1,-1,-2,0,-2
1532233399354,-1,-7,-37,-3,0,-1,-1,0
1532233399359,-4,-1,8,0,-1,-1,-2,-1
1532233399364,0,2,8,-2,-2,0,0,0
1532233399369,0,-1,-9,2,0,0,-1,-1
1532233399374,-1,1,9,0,1,0,1,1
1532233399379,-1,1,-2,0,0,-2,-2,0
1532233399384,-2,-2,1,-2,0,-1,0,1
1532233399389,-1,1,1,0,-1,0,1,0
1532233399394,1,-3,-4,-2,-1,-1,-2,-1
1532233399399,0,-1,-5,-3,-1,0,0,-1
1532233399404,-2,0,-1,0,1,-1,-1,-1
1532233399409,-1,-1,3,4,1,0,0,0
1532233399414,-2,0,1,0,-1,-1,-3,-2
1532233399419,0,1,22,1,-1,-1,-1,-1
1532233399424,0,-4,-19,-3,0,-1,0,-2
1532233399429,0,-1,-1,-3,-1,-1,-1,0
1532233399434,3,1,-2,-5,-2,-1,2,0
1532233399439,-2,-4,-6,1,1,-2,-2,0
1532233399444,0,-1,10,1,-2,-1,0,-3
1532233399449,-1,-2,-7,-2,-1,0,0,0
1532233399454,0,0,3,-2,-3,-2,-1,-1
1532233399459,1,2,-6,-1,-2,0,0,-1
1532233399464,0,0,0,-2,-2,-1,-1,1
1532233399469,-3,-5,-3,-1,3,0,-4,0
1532233399474,-1,-1,8,2,-1,0,0,-1
1532233399479,1,0,-12,-3,-1,-1,0,0
1532233399484,1,-1,0,1,0,1,0,-1
1532233399489,-1,1,0,-3,-3,-2,-2,2
1532233399494,-1,0,7,0,0,-1,-1,0
1532233399499,-1,2,1,-1,-1,1,0,0
1532233399504,1,-3,-15,-5,0,-2,0,0
1532233399509,-1,-3,5,0,-1,-1,0,-2
1532233399514,0,0,4,-1,-1,-2,0,-1
1532233399519,-1,-1,4,1,0,0,0,-1
1532233399524,-1,3,2,-1,-1,-1,0,-2
1532233399529,0,-1,-8,0,-1,-1,1,-2
1532233399534,0,-1,3,-1,-3,-3,0,0
1532233399539,0,-3,-8,-1,-1,0,0,-1
1532233399544,-2,-2,1,0,0,1,-2,0
1532233399549,0,2,3,-4,-1,-1,-2,-1
1532233399554,-1,0,-6,2,1,-1,0,-1
1532233399559,-2,-4,-3,-2,-1,0,0,-1
1532233399564,-1,0,20,1,-2,-1,0,-2
1532233399569,-1,0,-16,-2,-3,-1,0,-3
1532233399574,-2,1,6,-2,-3,-1,0,0
1532233399579,2,-2,-9,-3,-1,-3,0,-1
1532233399584,0,-2,7,4,1,-1,-1,-1
1532233399589,-1,0,10,-4,-2,-1,-2,-1
1532233399594,-1,0,-3,1,0,0,-1,-2
1532233399599,-2,-1,-9,-2,-2,-1,-1,-2
1532233399604,0,-1,5,3,0,-1,-1,0
1532233399609,-1,-2,-8,0,0,0,1,-1
1532233399614,-1,-3,-3,-2,-1,0,-2,0
1532233399619,0,3,5,-2,-1,-2,1,0
1532233399624,-3,-4,-11,-2,0,-1,0,-3
1532233399629,-2,0,4,3,1,0,0,-1
1532233399634,0,-2,1,-2,-1,-1,-1,-1
1532233399639,-1,3,13,1,-3,0,-1,-1
1532233399644,0,-1,-21,0,0,1,0,-1
1532233399649,-2,-3,-3,-5,-1,-1,-1,0
1532233399654,-3,-1,8,1,1,-1,-1,-1
1532233399659,-1,-3,-3,-1,1,-1,-1,-1
1532233399664,0,2,3,-2,-2,-1,-1,1
1532233399669,0,-2,2,2,-1,0,0,-1
1532233399674,-1,2,1,-1,0,0,0,1
1532233399679,-1,-2,-14,-3,-1,-1,0,-1
1532233399684,-2,-2,8,1,1,-1,-1,-2
1532233399689,2,0,-1,0,-2,-2,-1,1
1532233399694,1,-2,-6,-2,-1,-1,0,-1
1532233399699,-1,0,11,-1,0,-1,-2,-2
1532233399704,1,0,-8,-1,-1,-1,-1,-1
1532233399709,0,-2,-12,-5,-1,-2,-2,-2
1532233399714,0,2,5,3,1,0,-1,-1
1532233399719,-2,-2,4,1,0,0,-1,0
1532233399724,-1,2,9,1,0,-2,-1,-2
1532233399729,0,0,-2,-2,1,1,-2,0
1532233399734,0,-2,-15,-4,-3,-1,0,0
1532233399739,0,-3,-3,-2,0,-1,0,-1
1532233399744,-4,-2,6,-1,-1,0,-2,0
1532233399749,-2,1,-1,4,0,-2,-1,0
1532233399754,-2,-3,-5,-4,-1,-1,1,-2
1532233399759,1,1,3,0,-1,0,-1,0
1532233399764,-1,-6,-20,-5,-2,0,1,0
1532233399769,1,1,12,2,0,0,1,-1
1532233399774,-1,-4,-20,-3,-1,-2,-4,0
1532233399779,-1,-1,2,0,-2,-3,-1,-2
1532233399784,-1,-1,4,1,0,0,-2,-2
1532233399789,-1,-2,1,-2,-2,0,0,0
1532233399794,-1,1,9,0,-1,-2,0,-1
1532233399799,-3,-5,-13,-2,-1,0,0,1
1532233399804,-1,0,7,0,-1,0,0,0
1532233399809,-2,-2,1,-1,-2,-1,-2,-2
1532233399814,0,0,6,0,-2,0,-1,0
1532233399819,0,-2,-9,-1,0,-1,-1,0
1532233399824,1,-3,-1,-3,-3,-1,0,-1
1532233399829,-2,-2,-4,-1,-1,1,0,-2
1532233399834,-3,0,5,1,-2,0,1,0
1532233399839,-1,2,16,2,-2,-1,-1,-1
1532233399844,-1,-2,-14,-3,0,-4,0,-2
1532233399849,-1,-4,-7,-1,0,0,0,0
1532233399854,0,1,2,1,-1,1,0,-1
1532233399859,-2,-3,-5,-1,-1,0,0,1
1532233399864,1,3,6,0,0,-1,0,-1
1532233399869,1,1,-3,-1,-1,-2,0,-1
1532233399874,0,-3,-10,-3,0,-1,-1,0
1532233399879,-1,2,2,1,-1,2,-2,-3
1532233399884,-2,-1,3,1,-1,0,-2,0
1532233399889,0,1,5,-1,-1,-2,0,-1
1532233399894,1,-5,-13,-4,0,-2,-1,-1
1532233399899,0,-2,-4,-2,-2,-1,0,1
1532233399904,-3,-2,1,0,-2,0,-1,0
1532233399909,1,2,15,0,-1,1,-1,-1
1532233399914,-3,-3,-19,-3,-1,-2,-1,-2
1532233399919,0,-1,2,3,2,-1,0,-1
1532233399924,0,-2,-2,-3,-1,-1,-1,-1
1532233399929,-2,1,2,-1,-1,-2,-1,1
1532233399934,1,1,6,-1,-1,-2,-1,-1
1532233399939,0,-1,-4,0,0,-2,1,-2
1532233399944,0,1,-3,-1,-1,2,0,-2
1532233399949,-1,-3,-3,1,1,-1,-3,-2
1532233399954,1,2,10,0,-1,1,-1,-2
1532233399959,-4,-3,-14,-4,0,-1,0,0
1532233399964,0,1,1,-3,-1,-1,1,1
1532233399969,0,-1,-6,-1,0,0,0,-1
1532233399974,-1,-1,2,2,0,-1,0,0
1532233399979,0,3,11,-2,-2,-1,-2,-2
1532233399984,-3,-7,-16,-4,-1,0,-1,0
1532233399989,-1,-3,-3,2,-1,0,0,0
1532233399994,-1,0,7,0,0,1,-1,-2
1532233399999,0,1,0,0,0,0,0,0
1532233400004,-1,1,1,0,1,-1,-1,0
1532233400009,-1,-2,-7,-1,-1,-1,-2,-1
1532233400014,1,1,5,3,0,0,0,0
1532233400019,-2,1,4,2,0,0,-1,0
1532233400024,-1,-3,0,2,-2,2,0,-1
1532233400029,0,3,-1,-1,0,-1,0,0
1532233400034,-2,-4,-8,-3,-1,-1,0,-1
1532233400039,0,-4,-6,-3,-2,-2,1,-1
1532233400044,-1,1,16,3,0,-1,0,0
1532233400049,-3,-4,-31,-4,0,0,-1,-5
1532233400054,-3,3,12,1,-1,-1,-1,-2
1532233400059,0,-2,-9,-3,-1,-2,0,0
1532233400064,0,-2,2,-5,-2,-1,0,-2
1532233400069,-2,-4,12,3,-1,-2,-2,-2
1532233400074,0,-1,-5,-3,0,-2,-1,-1
1532233400079,-1,-1,-7,-1,0,-1,0,0
1532233400084,-1,0,8,-1,-2,-1,-2,-1
1532233400089,0,-5,-9,0,0,-1,0,0
1532233400094,-1,0,-1,-1,0,0,-1,0
1532233400099,-2,-1,3,-1,-2,0,0,0
1532233400104,2,0,-7,-3,-1,0,-1,0
1532233400109,0,1,10,2,-1,0,-1,-2
1532233400114,-1,-2,-3,-2,-2,-4,-2,-1
1532233400119,-1,2,9,-1,-1,0,0,-1
1532233400124,-2,-4,-26,-2,-1,0,-1,-1
1532233400129,-2,-2,1,-3,0,1,-1,-1
1532233400134,1,0,3,-1,-1,2,1,0
1532233400139,0,0,1,0,1,-1,0,-1
1532233400144,-2,-1,3,-1,-2,-1,-2,0
1532233400149,0,3,9,3,0,-2,-2,0
1532233400154,-2,-4,-11,-2,-1,0,-2,0
1532233400159,0,0,-1,2,0,0,-2,-1
1532233400164,-3,-1,2,-1,0,0,1,-1
1532233400169,0,1,-1,0,0,-2,-1,0
1532233400174,2,1,7,2,1,0,0,0
1532233400179,-1,-1,-10,-3,0,-4,-3,-2
1532233400184,0,0,19,2,-2,-1,-2,-1
1532233400189,-3,-4,-26,-3,-1,0,-1,1
1532233400194,0,1,1,-1,-2,-2,0,-2
1532233400199,0,0,3,-1,-1,-1,0,0
1532233400204,-4,-2,-5,-2,-1,-1,1,1
1532233400209,0,0,9,-2,-1,-1,-1,0
1532233400214,-3,-3,-6,3,0,0,-2,-2
1532233400219,0,-3,-7,-1,-1,0,-2,-1
1532233400224,-2,1,9,1,0,-1,-1,-3
1532233400229,-1,0,2,0,-1,-1,0,-1
1532233400234,1,-1,-2,0,0,-1,0,-1
1532233400239,-2,-1,0,-1,-2,-1,0,0
1532233400244,1,-1,-8,-2,-2,0,0,-1
1532233400249,-2,3,15,1,-1,-1,-2,-1
1532233400254,-2,-3,-2,-2,0,-1,0,-2
1532233400259,-2,-5,-15,-5,1,0,-1,0
1532233400264,-1,-3,0,-1,0,-1,-2,-1
1532233400269,-1,-1,4,-1,-1,-1,0,1
1532233400274,2,2,11,0,-2,-1,1,1
1532233400279,0,0,-5,-3,-1,1,-2,-1
1532233400284,0,2,3,3,1,0,1,0
1532233400289,-1,-4,0,3,0,0,0,-1
1532233400294,-3,-1,-2,-1,-1,0,-2,1
1532233400299,-1,0,-3,-2,1,0,-2,-2
1532233400304,1,0,-2,-1,-1,0,-2,0
1532233400309,0,0,1,0,0,-1,-1,-2
1532233400314,-1,0,-3,-1,-1,-1,-1,-1
1532233400319,-3,-3,-6,-1,-1,0,-2,-2
1532233400324,0,4,25,2,-1,0,-2,-1
1532233400329,0,-2,-5,-1,-1,-3,0,-1
1532233400334,0,-2,-4,-1,-1,0,0,-2
1532233400339,-1,0,2,-2,0,0,0,0
1532233400344,-3,-1,-6,0,0,0,-2,-1
1532233400349,-1,2,6,-2,-1,-2,1,1
1532233400354,0,0,2,-1,-1,-1,-1,0
1532233400359,0,-4,-16,-2,-3,-1,-1,-3
1532233400364,0,-4,-8,-1,0,-1,-3,0
1532233400369,-3,1,12,-2,-3,0,-1,0
1532233400374,-2,0,6,1,-1,-2,-2,-2
1532233400379,-1,2,5,1,0,0,0,-1
1532233400384,0,-2,-8,-2,0,0,1,-1
1532233400389,0,0,2,0,-1,-2,0,-1
1532233400394,-1,-4,-6,-1,0,-1,0,1
1532233400399,0,-1,0,1,-1,0,1,0
1532233400404,-2,0,2,-2,-1,-3,0,-1
1532233400409,-2,1,1,1,0,1,-1,-2
1532233400414,-1,-1,-2,-2,-1,1,-1,0
1532233400419,0,-1,-4,0,0,-1,-2,0
1532233400424,0,0,5,0,-1,0,1,-1
1532233400429,1,-1,-7,-2,-2,-1,-2,-1
1532233400434,-3,-9,-24,0,0,-2,-3,-1
1532233400439,-4,2,16,2,-3,-3,-1,-1
1532233400444,-1,-1,-3,0,-1,-2,-1,0
1532233400449,2,1,10,-1,-1,0,-1,-2
1532233400454,2,-2,-6,-1,0,-1,1,0
1532233400459,0,-2,-1,-3,-2,-1,0,0
1532233400464,-1,-1,-1,2,1,-1,-3,0
1532233400469,0,-3,-10,-5,-2,-1,0,0
1532233400474,0,1,14,4,1,-2,-1,-2
1532233400479,1,0,-4,-3,-2,-2,0,-1
1532233400484,-2,-3,1,-1,-1,-1,0,-3
1532233400489,1,1,1,1,0,2,2,0
1532233400494,-1,-3,-10,-4,-1,-1,-1,-1
1532233400499,0,2,14,2,-1,-1,1,-1
1532233400504,-2,-6,-40,-4,-2,-3,-2,-1
1532233400509,-2,0,16,3,0,0,-1,-1
1532233400514,0,1,0,-1,-1,-3,0,0
1532233400519,-1,0,2,1,-1,-1,0,1
1532233400524,1,2,9,1,0,-1,0,0
1532233400529,-2,-3,-15,-1,0,-2,0,-1
1532233400534,0,0,7,-1,-1,-1,0,0
1532233400539,0,-2,-5,-4,0,-1,-2,0
1532233400544,2,0,6,1,-1,1,-2,0
1532233400549,-1,0,0,0,-1,-1,-2,-1
1532233400554,-1,1,4,0,-2,0,0,-1
1532233400559,1,0,-7,0,0,-2,-2,1
1532233400564,0,0,4,-3,-2,-1,0,0
1532233400569,-1,-4,0,-2,0,-2,0,-1
1532233400574,1,3,-5,-1,-2,0,-1,0
1532233400579,-2,-5,-13,0,1,1,0,-1
1532233400584,-1,0,4,-1,-2,-1,-2,-2
1532233400589,1,0,-1,1,1,-1,-1,-1
1532233400594,-1,0,12,1,0,0,-1,0
1532233400599,0,1,-1,-2,-2,1,-1,-2
1532233400604,-1,-2,-10,-3,0,0,1,-1
1532233400609,0,3,3,-1,-2,-2,3,1
1532233400614,-3,-5,-9,-1,-1,0,-2,-2
1532233400619,1,0,4,-1,-1,-1,-2,0
1532233400624,-2,0,0,0,-1,-1,-1,-1
1532233400629,-3,0,-2,-4,-2,-1,-2,-2
1532233400634,1,-1,2,0,0,1,1,-1
1532233400639,-1,0,0,-1,0,-1,-1,0
1532233400644,-1,0,16,3,0,-1,-2,-1
1532233400649,-1,-7,-33,-3,-2,-1,-1,-2
1532233400654,-2,-1,1,-3,-2,0,-2,-1
1532233400659,0,0,7,2,0,-2,0,-1
1532233400664,0,-2,1,-1,0,-2,-1,2
1532233400669,-1,-2,5,1,-1,-2,-2,-1
1532233400674,-1,-2,-10,0,-1,0,-3,0
1532233400679,0,-1,-3,-1,-1,-2,0,0
1532233400684,-2,2,-2,0,0,-1,-1,-1
1532233400689,0,1,0,-2,-1,-1,1,1
1532233400694,0,0,4,2,-1,-1,-1,0
1532233400699,-2,-4,0,0,0,-1,-1,-1
1532233400704,0,0,-2,-2,-1,-1,0,0
1532233400709,-2,-2,-2,-2,0,-1,-1,0
1532233400714,1,0,1,-3,-1,-2,1,-1
1532233400719,0,-2,-5,-2,0,0,1,-2
1532233400724,1,2,15,0,-1,-1,0,-1
1532233400729,0,-3,-16,2,1,0,-1,-1
1532233400734,-2,1,5,-1,-1,0,1,-2
1532233400739,-1,-1,6,0,-1,-1,-2,-1
1532233400744,1,-3,-12,-7,-2,0,0,-1
1532233400749,-1,4,21,8,0,0,1,-2
1532233400754,-2,-1,-7,-3,-1,-2,-1,0
1532233400759,0,-1,-7,-3,-1,-1,-2,0
1532233400764,-1,0,-1,-1,-1,0,-1,-1
1532233400769,0,-2,3,-1,-1,-1,-2,-1
1532233400774,1,-1,-5,-1,-2,-1,0,-2
1532233400779,-2,0,4,1,-1,1,0,-2
1532233400784,-1,-2,-6,-1,-1,1,-2,-1
1532233400789,-2,-1,2,-1,-2,-1,0,0
1532233400794,0,1,1,1,0,0,-2,-1
1532233400799,-1,-1,-6,-2,-1,0,1,-1
1532233400804,1,-1,-1,2,0,-1,1,-2
1532233400809,-3,-7,-27,-11,-1,-1,0,0
1532233400814,1,5,22,11,0,0,-1,0
1532233400819,-1,-3,-8,0,-3,-2,1,0
1532233400824,-2,-1,1,1,1,-1,-1,-1
1532233400829,0,2,8,0,-2,0,0,-1
1532233400834,1,0,-2,-2,-1,-2,0,0
1532233400839,-3,-3,-7,-2,-1,0,-1,0
1532233400844,0,-1,-5,0,0,0,0,0
1532233400849,1,0,5,0,2,0,0,-2
1532233400854,0,-3,-6,-2,0,-1,-2,-1
1532233400859,1,1,6,2,1,0,-1,-1
1532233400864,-1,-1,-4,-3,-2,-2,0,0
1532233400869,-1,0,5,-1,0,-1,-1,1
1532233400874,-3,-1,-3,-2,-1,-1,-1,-1
1532233400879,1,0,5,-1,-1,-2,0,-2
1532233400884,1,2,-1,2,-2,-1,-1,-2
1532233400889,-1,-6,-4,-2,-1,0,-2,-1
1532233400894,-2,-2,-1,-2,-1,-2,0,0
1532233400899,-1,-1,0,-1,-1,-2,-1,-1
1532233400904,-2,-3,-2,-2,-1,-1,-1,-2
1532233400909,-1,1,10,6,0,0,-2,0
1532233400914,0,-1,-10,-2,0,-1,0,-1
1532233400919,0,1,2,-1,-1,-1,-1,-3
1532233400924,-2,0,-2,-2,0,-1,-1,-1
1532233400929,-1,1,6,-2,-2,1,0,-1
1532233400934,0,-3,-13,-4,-1,0,-1,-1
1532233400939,-1,0,7,0,0,-2,0,0
1532233400944,-1,-6,-35,-6,0,-2,0,1
1532233400949,-2,-2,7,-3,1,-2,-1,-2
1532233400954,1,0,-1,-3,-2,1,2,1
1532233400959,-2,0,0,-1,0,-1,-1,0
1532233400964,1,1,10,4,2,-1,1,-2
1532233400969,0,2,-8,-4,-1,-2,0,0
1532233400974,-1,0,0,1,-1,0,-1,0
1532233400979,-1,-2,-4,-2,-1,-1,0,-1
1532233400984,1,0,-2,-4,-2,0,-1,1
1532233400989,-3,0,6,3,-1,-2,-2,-1
1532233400994,-1,1,5,-3,-2,0,-1,-1
1532233400999,0,2,-7,-3,0,0,0,-1
1532233401004,0,0,4,2,1,0,-1,-1
1532233401009,-3,-6,-24,-4,0,-1,-3,-1
1532233401014,-3,-3,-2,-2,0,0,0,-2
1532233401019,-1,0,-4,-1,1,-2,0,1
1532233401024,-1,1,13,1,-1,-1,-1,-1
1532233401029,2,2,4,3,0,-1,0,-1
1532233401034,0,-2,1,1,0,0,-1,-2
1532233401039,0,-2,-8,-2,-1,-3,-2,0
1532233401044,0,1,6,5,0,1,-2,1
1532233401049,1,-1,-3,-3,-2,0,-1,0
1532233401054,-1,0,-2,0,0,0,1,0
1532233401059,1,1,3,0,0,0,-1,0
1532233401064,-3,-2,1,-3,-1,0,-1,-1
1532233401069,-1,-1,-5,1,1,0,-1,0
1532233401074,0,1,7,1,-1,0,-1,0
1532233401079,1,-1,-2,2,-1,0,0,-2
1532233401084,-3,-8,-22,-9,-2,-1,-3,0
1532233401089,-1,1,8,0,-1,-2,0,0
1532233401094,-2,0,-3,-1,0,-1,0,-1
1532233401099,0,0,5,0,0,-2,0,-3
1532233401104,-2,1,3,1,-1,-1,0,-2
1532233401109,-1,-3,-2,0,0,-1,-2,-3
1532233401114,-1,1,-4,-3,-1,0,-1,0
1532233401119,-1,0,-2,-1,-1,1,-1,-1
1532233401124,0,2,4,2,1,0,0,-1
1532233401129,1,-1,2,-1,-1,-2,-1,-2
1532233401134,-1,-1,3,-2,0,-1,0,-1
1532233401139,-1,-2,-11,-1,-1,1,-2,0
1532233401144,-1,0,1,1,-1,-1,-1,-2
1532233401149,0,4,10,1,-1,-1,0,-2
1532233401154,-2,-2,-2,-1,-2,-2,-2,0
1532233401159,-2,-7,-29,-6,0,-1,-1,0
1532233401164,0,1,12,1,0,-1,0,-1
1532233401169,-1,-5,-12,-1,-2,0,0,-1
1532233401174,1,1,6,0,0,1,0,-1
1532233401179,-2,-1,5,0,-2,-1,0,-1
1532233401184,-1,0,-4,-1,-2,1,-3,-2
1532233401189,-1,-3,2,0,0,0,-1,0
1532233401194,1,-5,-12,-4,0,-1,0,0
1532233401199,0,0,11,3,-1,-2,-1,0
1532233401204,-1,-1,-1,1,0,-1,1,0
1532233401209,-1,1,2,0,-1,0,0,0
1532233401214,-3,-2,-8,-3,-2,-2,-1,-1
1532233401219,1,1,-2,1,1,0,-1,-1
1532233401224,0,2,27,0,-1,-1,0,0
1532233401229,-1,-5,-37,-3,-1,0,0,1
1532233401234,-2,-5,-1,1,0,-1,-3,-2
1532233401239,0,-2,5,-1,-1,-1,-3,-1
1532233401244,-1,-1,-5,-3,-1,-2,0,-2
1532233401249,1,5,16,-1,-1,-1,-1,-1
1532233401254,0,-1,-9,1,1,-1,-1,-1
1532233401259,0,0,3,0,-1,-3,-1,0
1532233401264,-2,-4,-5,2,0,1,-2,-1
1532233401269,-2,-1,2,2,-2,-3,0,0
1532233401274,0,-1,-4,-3,-1,-1,0,0
1532233401279,-1,1,6,2,-2,2,1,-1
1532233401284,2,0,-8,0,-1,1,0,-1
1532233401289,0,-1,1,-2,-1,0,1,0
1532233401294,0,2,6,-1,0,0,1,-2
1532233401299,0,0,14,-1,-1,-2,0,0
1532233401304,-2,-3,-27,-3,-1,1,0,-2
1532233401309,0,1,5,-4,0,-1,-1,-1
1532233401314,-2,-1,4,1,0,0,-2,-1
1532233401319,-2,-2,-3,-3,0,-1,0,-1
1532233401324,0,0,1,-1,-1,-2,-1,0
1532233401329,-2,-1,2,-1,0,-1,-3,-2
1532233401334,1,3,6,1,-1,0,-1,0
1532233401339,-2,-2,-8,-1,-2,0,-2,-1
1532233401344,-1,-3,0,0,-2,-1,-1,0
1532233401349,-1,-1,-3,0,0,-1,0,-1
1532233401354,0,-1,1,-3,-1,0,0,1
1532233401359,0,-1,-1,1,1,1,-2,0
1532233401364,-3,-1,-5,-5,0,0,0,0
1532233401369,0,-2,-5,0,0,0,-1,-1
1532233401374,-1,1,10,3,-1,-1,0,-2
1532233401379,-1,1,-4,-4,-3,0,1,-1
1532233401384,0,-2,-6,-3,-1,-2,-2,-1
1532233401389,0,1,16,0,1,-2,-1,-2
1532233401394,1,-3,-26,0,0,-2,0,-1
1532233401399,-2,-2,3,-1,-2,-2,-1,-2
1532233401404,-1,-1,2,-1,-1,-1,-1,0
1532233401409,0,-1,-1,-1,-1,1,-2,0
1532233401414,-1,-1,4,0,-1,-1,0,-1
1532233401419,0,2,-3,-1,0,-2,0,-1
1532233401424,-1,-2,-2,1,0,0,-2,0
1532233401429,-1,-1,-1,-1,-1,0,1,-1
1532233401434,0,0,-3,-3,-1,-1,1,-1
1532233401439,-1,-3,-1,0,-1,-1,-2,-1
1532233401444,0,-1,8,1,0,-2,0,-1
1532233401449,-2,0,-3,1,-1,-1,-1,0
1532233401454,-1,0,2,-1,-2,-1,-3,-1
1532233401459,0,1,-2,-1,-2,0,-1,-1
1532233401464,-1,-1,-4,1,1,-1,-2,-1
1532233401469,-1,1,12,-2,-2,0,0,-1
1532233401474,-1,-8,-33,-5,-1,-1,-1,0
1532233401479,0,-1,9,0,-1,-2,-1,0
1532233401484,-1,-1,-2,-1,0,0,-1,0
1532233401489,-2,1,3,-1,-1,-2,-1,-1
1532233401494,0,0,4,3,-1,0,-1,-1
1532233401499,0,-3,-8,-5,-3,1,0,0
1532233401504,-1,-1,3,1,-1,0,-1,-2
1532233401509,-2,-1,-5,1,1,-1,0,0
1532233401514,0,1,5,-2,-1,-2,-1,-2
1532233401519,0,-2,-4,4,0,-1,0,0
1532233401524,-1,1,4,-1,-2,-1,1,-3
1532233401529,-2,-1,-4,-4,0,1,-2,0
1532233401534,-1,-2,6,-1,-1,-1,-2,-2
1532233401539,-4,-3,7,-1,0,0,-1,-1
1532233401544,1,-1,-14,-3,-1,0,0,0
1532233401549,1,-2,-1,2,0,-2,1,0
1532233401554,-1,-1,3,-1,-2,0,0,1
1532233401559,-2,0,-3,-2,0,-1,-1,-1
1532233401564,1,1,11,2,-3,0,1,0
1532233401569,-1,-4,-10,-2,-1,-1,-1,-1
1532233401574,-3,0,4,-1,0,-1,0,-1
1532233401579,1,1,0,0,0,0,0,0
1532233401584,-3,-2,-2,-2,0,-1,-2,1
1532233401589,1,-1,-8,-2,-2,-2,-1,-1
1532233401594,0,0,2,0,-1,0,-1,-1
1532233401599,-1,0,-1,0,1,-1,0,1
1532233401604,0,1,0,1,1,-2,-1,-2
1532233401609,-1,-2,-3,-3,-2,0,0,1
1532233401614,-2,0,1,2,0,-3,-2,0
1532233401619,-1,0,13,-1,-2,-2,1,-1
1532233401624,1,1,-15,-3,-3,0,1,0
1532233401629,0,-1,3,2,0,-1,-2,-2
1532233401634,-1,-2,-1,-1,0,0,0,-2
1532233401639,-2,0,0,-2,1,-1,-1,0
1532233401644,0,-1,7,1,-2,-1,-2,-1
1532233401649,0,-1,-2,0,-1,-1,-2,-1
1532233401654,-2,-2,-1,-3,-1,0,-1,-1
1532233401659,0,-1,-5,0,-2,-1,-1,-3
1532233401664,-2,-1,1,-3,0,-2,2,0
1532233401669,0,-1,-11,-4,-1,0,0,0
1532233401674,-1,0,15,4,0,1,-1,0
1532233401679,-1,-4,-16,-4,-2,-2,-1,0
1532233401684,-1,-1,6,1,0,0,-1,-2
1532233401689,0,1,4,1,0,-1,0,-2
1532233401694,1,3,-3,2,1,0,1,1
1532233401699,-1,-4,-13,-6,1,0,-3,-1
1532233401704,0,-4,-3,-2,-4,0,-1,0
1532233401709,-2,-1,0,-3,0,-2,-3,-1
1532233401714,0,3,16,3,-1,-2,-2,-2
1532233401719,0,-3,-8,0,-1,-1,-1,0
1532233401724,-2,-2,-7,-4,0,-1,0,-1
1532233401729,-1,1,6,2,-1,-1,0,-2
1532233401734,0,-2,-5,-4,-3,0,0,-2
1532233401739,-1,1,0,2,-2,1,-2,0
1532233401744,-1,-1,-2,-1,0,0,0,0
1532233401749,-1,-2,0,-1,0,0,0,0
1532233401754,0,-1,-7,-3,-1,-2,1,-1
1532233401759,-1,-1,5,1,0,-1,0,-1
1532233401764,-1,0,6,1,0,0,-2,-1
1532233401769,-1,0,-4,0,0,-1,-1,-1
1532233401774,0,-1,-2,-1,-2,-1,0,-1
1532233401779,0,1,0,0,1,0,1,-2
1532233401784,0,-4,-16,-3,-2,-1,0,-1
1532233401789,0,-2,3,-2,-1,-1,-1,0
1532233401794,-2,-2,-1,-1,1,0,-1,-1
1532233401799,-1,3,6,2,0,1,0,-1
1532233401804,-1,1,2,-2,-2,-1,1,0
1532233401809,0,0,-8,-2,-2,-1,-1,0
1532233401814,0,1,13,5,1,0,-1,-1
1532233401819,0,-5,-17,-4,-1,0,-1,0
