1532373683981,5,7,0,8,1,-1,-3,14
1532373683986,-9,-1,-8,-11,-10,-6,4,-15
1532373683991,0,-4,-2,-15,-9,-16,0,-8
1532373683996,13,2,0,0,-2,2,-30,16
1532373684001,-29,-4,1,1,-1,-6,-2,-9
1532373684006,6,5,0,1,5,14,38,-1
1532373684011,-4,-7,-2,3,-7,-14,-42,1
1532373684016,0,-3,-2,-3,-2,-6,0,-8
1532373684021,7,3,1,2,3,2,-6,3
1532373684026,-14,2,0,4,2,6,8,-7
1532373684031,27,-2,-2,-9,2,1,18,8
1532373684036,-11,-5,-6,-4,-3,-5,-2,-5
1532373684041,9,4,0,1,-2,3,-10,-2
1532373684046,-2,0,1,-2,-8,-15,-4,-1
1532373684051,-4,-2,0,7,11,8,-14,-2
1532373684056,1,0,3,-3,-7,-10,-4,-1
1532373684061,3,-4,-1,6,-1,-1,0,0
1532373684066,10,10,-5,-11,3,1,-15,0
1532373684071,-26,-15,-3,-2,-4,5,3,-3
1532373684076,-4,-1,0,1,0,-7,11,1
1532373684081,-5,4,1,0,-2,-1,-10,3
1532373684086,0,-4,4,6,0,5,-9,-13
1532373684091,1,1,-2,3,0,1,-2,1
1532373684096,-3,1,0,0,1,-6,-26,1
1532373684101,7,1,-1,-5,0,9,5,-3
1532373684106,3,3,-2,3,-2,-2,-5,18
1532373684111,-9,1,-4,-6,-5,-5,-2,-27
1532373684116,-6,-7,2,4,6,13,1,4
1532373684121,5,3,1,4,5,0,0,-3
1532373684126,-1,-2,-1,2,-2,-5,-8,-1
1532373684131,1,2,-3,2,-3,3,3,5
1532373684136,0,-3,-8,-12,-10,-9,-10,-3
1532373684141,-5,0,1,-2,1,3,-10,2
1532373684146,0,0,0,-3,-4,-9,-7,-4
1532373684151,9,-2,2,8,-4,0,0,10
1532373684156,-11,0,-2,-7,3,2,3,-4
1532373684161,6,0,-3,-8,-2,-8,-5,-5
1532373684166,-6,-7,-1,1,-2,-6,17,0
1532373684171,3,1,-2,0,-1,4,-9,-3
1532373684176,3,3,-1,-1,-2,1,-13,1
1532373684181,2,2,1,0,0,-4,-19,7
1532373684186,-1,-1,-3,-4,-2,-5,-9,-9
1532373684191,-1,-4,-2,-2,1,-1,5,4
1532373684196,8,1,0,3,-2,-2,5,3
1532373684201,-17,0,2,0,8,11,0,-1
1532373684206,22,-2,0,1,1,-1,-10,7
1532373684211,0,-1,1,2,0,0,12,-8
1532373684216,-7,-2,0,-3,-4,-10,14,-5
1532373684221,-1,-2,1,4,-5,-5,6,-3
1532373684226,-1,0,-2,-1,-1,4,15,4
1532373684231,-2,0,0,-9,0,0,5,4
1532373684236,-1,-4,-2,1,-3,-4,7,-7
1532373684241,11,1,-3,-2,-3,0,1,7
1532373684246,-8,0,4,-1,-2,-1,-3,-2
1532373684251,2,0,1,10,2,2,-4,-3
1532373684256,-9,-2,-2,-5,0,0,6,-4
1532373684261,1,-2,1,-3,-2,-4,-11,-3
1532373684266,-1,0,1,-1,1,2,4,-2
1532373684271,-2,-1,-2,-7,-4,-9,2,-1
1532373684276,4,3,-1,4,0,-6,-14,-2
1532373684281,-1,-1,-1,7,4,5,13,3
1532373684286,3,-1,0,-3,-2,-2,-3,0
1532373684291,1,0,-5,-3,-1,2,9,3
1532373684296,-16,-4,-2,-4,-3,-7,-15,-6
1532373684301,23,2,-2,-5,-5,3,17,-2
1532373684306,-3,-4,0,8,0,-4,-8,-4
1532373684311,0,-1,1,-3,-1,-1,-12,2
1532373684316,1,1,2,-3,0,5,-1,6
1532373684321,-8,0,-1,5,-1,4,-3,-1
1532373684326,-3,-1,-4,-4,-5,-1,0,-2
1532373684331,5,-3,-1,-7,-2,3,-11,8
1532373684336,9,2,1,5,1,0,-4,-6
1532373684341,-8,-3,-2,-5,0,-3,-13,-4
1532373684346,7,1,1,4,2,6,8,-7
1532373684351,-7,-5,0,-2,-4,-5,-11,3
1532373684356,-1,1,-3,4,0,1,0,-3
1532373684361,-2,-1,-1,0,-1,-1,-17,6
1532373684366,-2,5,-4,-7,-3,0,17,-12
1532373684371,-7,-2,1,0,-2,3,19,-4
1532373684376,0,0,0,4,-1,5,16,1
1532373684381,8,1,-2,-2,0,-1,18,1
1532373684386,2,-3,0,1,1,-2,0,7
1532373684391,1,2,1,0,-2,-1,15,-6
1532373684396,-6,-1,-2,0,-2,2,7,-4
1532373684401,0,1,3,0,0,-5,0,4
1532373684406,-2,-2,-4,-2,1,-4,-11,2
1532373684411,3,0,-2,6,-1,0,-3,-4
1532373684416,3,-2,-4,-16,-2,-3,0,4
1532373684421,-6,-5,0,3,-2,1,9,-2
1532373684426,-5,-1,-2,0,-1,-13,-10,2
1532373684431,-3,-2,-2,-4,-1,-1,-7,0
1532373684436,-1,-1,2,2,-2,2,4,-6
1532373684441,-6,-1,0,0,0,2,-5,-5
1532373684446,-5,-1,0,3,-2,-3,-8,0
1532373684451,1,-3,-6,-6,-1,-1,-9,1
1532373684456,7,-1,-3,-3,-2,-6,-6,7
1532373684461,8,1,1,-2,2,4,-3,-7
1532373684466,-11,-5,3,3,-2,-1,-2,1
1532373684471,-11,3,-1,-5,-1,-2,-6,1
1532373684476,1,0,0,-3,-3,-3,9,-5
1532373684481,-11,-9,-3,0,5,5,-9,-2
1532373684486,5,0,-3,4,0,6,-4,4
1532373684491,0,-1,5,8,2,-1,-11,5
1532373684496,-3,-2,-8,-15,-4,0,-5,4
1532373684501,8,2,-4,-6,-4,-4,-2,3
1532373684506,2,0,-1,-6,-1,0,-24,-9
1532373684511,-6,-1,2,5,1,-3,7,-10
1532373684516,-2,0,5,11,5,4,-6,1
1532373684521,-3,-2,-1,0,-4,-7,16,-2
1532373684526,2,-4,-4,-4,-1,0,-5,-7
1532373684531,3,-1,-1,0,-2,1,1,11
1532373684536,-2,2,-1,1,0,-6,-25,-3
1532373684541,5,-1,-4,-6,-2,-6,2,-3
1532373684546,-7,-1,-1,2,1,0,6,-9
1532373684551,1,-1,4,-2,-2,0,-7,-10
1532373684556,6,1,-5,-1,-2,-2,1,1
1532373684561,-9,-5,1,0,-4,-8,-83,6
1532373684566,11,1,-2,0,-8,-6,-110,3
1532373684571,4,-1,-6,-5,-7,-7,-41,-1
1532373684576,-3,-4,4,3,-1,-2,84,-1
1532373684581,0,2,1,-4,-2,-4,127,-4
1532373684586,-3,0,0,5,1,4,127,2
1532373684591,1,-1,-2,-7,-1,0,69,3
1532373684596,11,2,1,2,0,-1,-6,-8
1532373684601,-21,-4,-3,3,1,-2,-73,-11
1532373684606,-3,-3,-1,-2,3,-2,-63,5
1532373684611,2,2,-3,2,-2,-6,-9,0
1532373684616,2,-5,5,2,2,10,37,5
1532373684621,-7,-1,-11,-2,-6,-6,34,3
1532373684626,-2,4,-1,-9,-2,1,35,-8
1532373684631,-1,-3,-1,-1,2,1,28,-8
1532373684636,1,1,0,7,7,5,19,2
1532373684641,0,1,1,-3,-8,-11,18,3
1532373684646,0,2,1,4,9,10,14,2
1532373684651,-4,0,4,2,0,-2,-24,1
1532373684656,-5,-4,-12,-6,-6,-6,-128,-4
1532373684661,6,5,-2,-2,-4,-4,-123,6
1532373684666,-5,-6,-1,-2,-3,-7,-119,-8
1532373684671,3,1,1,-1,0,-6,-41,2
1532373684676,0,-1,1,4,-3,-6,4,-4
1532373684681,0,-1,4,0,-4,-7,53,4
1532373684686,4,0,2,2,-3,1,70,8
1532373684691,-5,-4,-8,-6,-5,-2,39,-16
1532373684696,-3,-4,-2,-1,-6,-18,38,4
1532373684701,13,-1,0,-2,0,-5,47,-7
1532373684706,-5,-3,0,5,5,-1,36,6
1532373684711,-7,-4,-2,0,-2,2,20,5
1532373684716,18,0,-3,-8,-2,6,19,6
1532373684721,2,-1,1,0,-3,6,18,-13
1532373684726,-11,0,1,6,0,2,14,0
1532373684731,-2,0,-2,0,3,0,11,-1
1532373684736,-6,0,-2,-4,3,7,8,2
1532373684741,-3,-1,1,2,3,3,3,2
1532373684746,18,5,-1,-5,0,8,10,10
1532373684751,-5,0,-1,4,3,-1,6,-2
1532373684756,-12,2,4,1,-3,-7,-1,-9
1532373684761,-1,0,-1,-4,0,3,1,-3
1532373684766,-2,-1,1,2,-1,-1,7,0
1532373684771,9,0,-2,-5,2,12,1,5
1532373684776,-8,1,-1,3,-1,1,-3,-3
1532373684781,2,0,-1,0,11,9,2,0
1532373684786,-3,2,0,-13,-3,1,5,-5
1532373684791,-3,1,3,-1,7,5,-2,6
1532373684796,-2,2,-1,2,-6,-5,-1,-21
1532373684801,-5,0,-5,-4,1,-1,2,1
1532373684806,-3,-1,-1,3,-1,-3,1,1
1532373684811,-12,-2,0,2,-3,0,-1,-4
1532373684816,18,1,-2,-8,-1,5,0,9
1532373684821,-5,0,2,4,-2,-2,0,-3
1532373684826,9,0,-1,-4,-4,3,0,4
1532373684831,-9,1,1,3,1,-3,19,-8
1532373684836,-3,1,-1,3,-1,-5,32,1
1532373684841,-18,-4,-5,-1,3,1,51,2
1532373684846,7,-3,-7,-6,-5,-4,47,-3
1532373684851,7,1,3,-2,1,-2,24,6
1532373684856,-2,-2,3,5,4,3,17,5
1532373684861,4,-3,3,-10,-8,-20,17,-9
1532373684866,-5,3,0,11,22,35,0,3
1532373684871,7,-3,-8,-4,-8,-11,-10,1
1532373684876,5,0,3,6,7,8,-9,-5
1532373684881,-6,-1,1,-3,-4,-4,-39,0
1532373684886,-3,-7,-5,-6,-11,-20,-108,-6
1532373684891,13,1,1,-3,-5,-4,-80,3
1532373684896,-10,-3,-2,1,-1,-2,-36,4
1532373684901,3,1,-1,2,-8,-5,27,1
1532373684906,-6,-2,1,-5,-1,-3,60,-4
1532373684911,-1,-1,-2,3,-6,-6,33,0
1532373684916,-11,1,-1,-1,-2,-3,12,-3
1532373684921,2,-1,-1,4,-3,-10,8,-7
1532373684926,2,1,-1,-11,-9,-1,22,2
1532373684931,-10,-6,-1,1,-2,-3,28,-6
1532373684936,-9,-3,-2,-2,4,-1,20,-1
1532373684941,4,-2,6,4,-2,1,-3,2
1532373684946,-2,-2,-8,-4,1,-2,10,-1
1532373684951,2,0,1,6,3,-2,18,5
1532373684956,10,-1,6,-4,-6,2,4,-7
1532373684961,1,-3,-11,0,4,7,48,3
1532373684966,-5,0,0,-6,-8,-15,0,-1
1532373684971,0,0,0,-1,1,4,-9,-3
1532373684976,-1,3,0,3,3,2,-62,5
1532373684981,3,-2,-1,4,-2,-1,-37,2
1532373684986,-4,0,2,2,6,-2,-7,-3
1532373684991,-4,1,5,6,6,5,11,-1
1532373684996,-4,-2,-2,-1,-7,-6,16,1
1532373685001,-1,-1,-5,-6,-2,-6,2,4
1532373685006,4,1,-2,-3,-2,-7,4,1
1532373685011,-7,-2,0,2,-2,-4,-8,-2
1532373685016,7,-1,-3,-3,0,5,2,1
1532373685021,-18,-5,-2,-1,0,-4,-15,-12
1532373685026,-4,3,-1,-1,-9,-7,-18,-18
1532373685031,5,1,1,3,8,1,-4,-2
1532373685036,3,2,2,0,5,1,5,4
1532373685041,-7,-2,-11,0,3,4,-19,11
1532373685046,5,0,3,1,-5,-8,-4,-17
1532373685051,-6,-5,-2,-4,-7,-6,-7,-6
1532373685056,-2,-4,3,-5,-7,-12,2,3
1532373685061,5,-2,1,-7,6,14,-19,3
1532373685066,-1,0,0,5,6,2,-25,8
1532373685071,0,0,0,-7,-9,2,-4,-1
1532373685076,0,-2,-6,3,2,-2,-4,1
1532373685081,-6,-2,-2,-4,-11,-13,10,-10
1532373685086,-4,-4,0,-1,0,4,9,5
1532373685091,-6,-2,0,-2,-5,-5,1,-12
1532373685096,-1,0,-1,1,1,4,-1,6
1532373685101,14,2,3,-2,-2,-1,-9,1
1532373685106,-21,-1,1,2,0,-6,-5,-6
1532373685111,4,-1,-1,4,-2,12,0,4
1532373685116,-24,-3,-3,-5,-4,-6,-2,-4
1532373685121,29,5,16,7,6,7,-6,2
1532373685126,5,-4,-18,-7,-2,-6,-7,-1
1532373685131,-3,-4,-1,1,-3,-23,0,-9
1532373685136,-3,-3,-1,-2,6,20,0,-4
1532373685141,-6,-1,3,3,-7,2,-11,1
1532373685146,7,2,6,2,-14,-45,-6,10
1532373685151,7,1,-8,-3,8,41,-4,3
1532373685156,10,0,1,-6,-5,1,1,11
1532373685161,-11,-2,1,7,5,3,-4,-8
1532373685166,1,-4,2,1,2,8,-1,-4
1532373685171,-7,0,-9,-12,-10,-52,-4,6
1532373685176,-6,0,3,7,14,83,7,-1
1532373685181,3,1,-1,-1,-8,-16,-5,2
1532373685186,-6,-1,1,-3,-1,20,-6,-2
1532373685191,5,0,2,1,4,-6,-3,3
1532373685196,4,-3,-3,-3,-5,-20,-5,6
1532373685201,-2,-1,-3,4,3,0,1,2
1532373685206,-6,-4,1,2,-2,-3,-3,-5
1532373685211,-2,1,-2,-5,7,19,-2,2
1532373685216,-2,-3,0,7,-11,-33,1,-6
1532373685221,17,1,-4,-2,10,10,-8,9
1532373685226,-27,-4,0,-8,2,27,-3,-6
1532373685231,10,-1,-6,3,-4,-20,-4,9
1532373685236,0,0,0,-2,-1,44,-1,-11
1532373685241,-2,1,-3,0,1,0,2,-1
1532373685246,15,1,0,-6,-8,-10,-1,13
1532373685251,-8,-3,1,3,-2,6,-22,-6
1532373685256,-6,-1,-3,-2,-3,-17,-10,-2
1532373685261,2,-4,1,-3,-7,-3,-19,-7
1532373685266,34,5,-3,2,6,2,3,8
1532373685271,-12,-6,-5,-2,-7,-9,13,-6
1532373685276,5,0,-6,0,1,-33,11,-7
1532373685281,-10,5,7,-6,-1,6,9,13
1532373685286,-1,5,11,-1,8,19,12,-26
1532373685291,13,2,6,7,2,1,1,2
1532373685296,-11,-5,-6,-7,2,-4,-6,-7
1532373685301,-9,-6,-11,2,-1,-8,-1,-7
1532373685306,-1,-1,-4,-4,-10,0,0,-2
1532373685311,5,2,4,6,9,27,12,2
1532373685316,4,2,6,-4,-7,-14,6,5
1532373685321,-7,-4,-9,1,9,9,0,-14
1532373685326,1,-4,0,3,6,2,-8,1
1532373685331,-40,-3,4,-8,-6,-6,-1,4
1532373685336,3,-1,-4,4,-1,-47,-11,-21
1532373685341,3,0,9,0,-3,-8,2,-21
1532373685346,9,1,-3,-5,-1,1,5,41
1532373685351,36,3,2,-5,-4,0,-1,8
1532373685356,-53,-1,1,0,-1,-5,2,-19
1532373685361,-13,-13,-33,0,8,8,19,-3
1532373685366,-6,2,1,9,7,21,8,-2
1532373685371,1,-4,-11,-5,-9,-13,20,-4
1532373685376,14,2,11,-6,-10,-11,-3,15
1532373685381,15,4,16,-4,-8,-36,72,5
1532373685386,-15,0,3,6,2,62,16,25
1532373685391,16,-6,-14,-2,4,1,-21,1
1532373685396,10,0,-5,-10,-1,14,-55,-10
1532373685401,-7,-2,3,-6,-9,3,-74,-1
1532373685406,10,1,1,-6,-7,-20,-34,16
1532373685411,-19,3,7,2,-11,-6,-38,-17
1532373685416,-4,1,-4,4,9,10,-11,-5
1532373685421,-3,3,1,-7,-14,-38,-54,19
1532373685426,12,-1,2,4,3,7,-33,-15
1532373685431,-29,-12,-2,0,-3,-20,80,-34
1532373685436,17,2,-5,5,-10,7,121,12
1532373685441,3,6,6,-3,1,8,114,-3
1532373685446,-13,4,-5,-1,-5,-16,45,-15
1532373685451,15,6,3,8,4,19,-7,32
1532373685456,7,-9,-3,-14,-12,-20,-16,12
1532373685461,-4,-3,-2,2,1,12,-19,-3
1532373685466,-6,-5,-12,4,-6,-67,-13,-8
1532373685471,-6,-3,-1,-10,2,57,-9,-3
1532373685476,-2,-3,0,2,-2,-24,-17,0
1532373685481,-1,-4,-10,-7,2,17,-23,-2
1532373685486,-13,-4,-1,-1,-7,-17,1,-18
1532373685491,0,0,2,2,4,-30,-17,-36
1532373685496,10,1,2,3,12,33,-15,27
1532373685501,-3,2,5,7,0,-7,-12,4
1532373685506,1,-1,4,0,-6,-17,-22,-5
1532373685511,19,0,2,-1,-5,-10,-19,12
1532373685516,-36,-4,-12,-3,2,9,-36,-28
1532373685521,5,0,6,0,-13,2,-20,6
1532373685526,-5,-4,2,-1,15,12,-1,10
1532373685531,17,1,-12,0,1,5,-27,-24
1532373685536,-13,-3,-1,7,4,7,8,23
1532373685541,1,-1,-5,-8,2,-11,2,27
1532373685546,-2,-6,3,-6,-23,-39,-2,-7
1532373685551,7,8,11,10,3,6,0,-11
1532373685556,33,-1,1,3,4,-25,-17,-27
1532373685561,-21,-9,-8,-10,7,4,-15,0
1532373685566,7,7,4,-4,-1,-3,2,23
1532373685571,-34,-3,-1,-2,-8,-40,-23,-4
1532373685576,33,9,-1,3,-4,-6,-11,-11
1532373685581,-11,-2,7,11,2,8,-16,-4
1532373685586,2,0,-6,-5,6,23,-16,-37
1532373685591,-2,-4,-3,0,-1,-6,-12,26
1532373685596,-6,-1,12,-8,-6,6,-19,-10
1532373685601,16,2,-19,1,4,24,-23,7
1532373685606,-13,0,1,1,-10,-31,-7,-4
1532373685611,-7,-1,3,-4,10,29,-13,15
1532373685616,2,1,1,6,14,93,-9,-21
1532373685621,29,0,1,-3,-10,-55,-21,-20
1532373685626,-40,0,6,-4,0,33,15,-14
1532373685631,27,1,-4,-6,-18,-17,-37,6
1532373685636,-1,0,5,-3,-5,-22,-21,37
1532373685641,3,2,3,16,37,45,-20,0
1532373685646,19,-3,0,0,7,-18,-1,8
1532373685651,5,6,9,-9,-29,-11,22,-2
1532373685656,-9,-3,-31,-3,21,7,31,0
1532373685661,-9,5,11,6,-1,15,37,2
1532373685666,0,-5,-5,-3,5,-19,-18,-17
1532373685671,-12,-4,-1,-2,2,5,-86,5
1532373685676,3,4,9,6,-4,-18,93,7
1532373685681,-2,-1,2,3,-10,-11,107,-10
1532373685686,5,-2,6,-9,-13,10,127,14
1532373685691,-13,0,-5,0,5,-19,127,3
1532373685696,2,0,-9,-4,9,36,29,-27
1532373685701,5,-4,1,0,-4,3,6,10
1532373685706,-12,1,-2,4,-9,-35,-43,-2
1532373685711,33,-1,-4,-3,12,78,-24,24
1532373685716,-29,-1,3,-6,-23,-98,-89,-11
1532373685721,-21,-4,12,2,5,10,-104,-16
1532373685726,2,1,-18,8,7,23,-34,6
1532373685731,-10,0,2,1,-10,-42,108,-5
1532373685736,12,-3,8,1,25,1,75,8
1532373685741,-11,1,-4,-6,-12,29,18,-6
1532373685746,-9,-7,-2,12,3,2,-49,3
1532373685751,-6,-7,-10,-18,-9,-38,-49,-15
1532373685756,2,2,-1,-1,-17,-2,-43,7
1532373685761,-11,2,12,-6,-16,-37,-53,-2
1532373685766,39,6,-23,3,17,31,-42,21
1532373685771,-1,-2,9,4,-2,-5,-40,10
1532373685776,0,-6,-17,-5,-20,-50,-53,0
1532373685781,-12,-2,6,2,27,45,-25,12
1532373685786,2,-3,-2,-5,-13,-9,-3,17
1532373685791,-12,-1,9,8,16,17,-18,-71
1532373685796,-10,0,-9,-1,-7,-4,-21,9
1532373685801,12,0,-4,4,-7,-35,4,-3
1532373685806,-6,-5,0,-6,7,61,4,-10
1532373685811,3,-3,-2,-4,0,-12,-30,14
1532373685816,-18,3,19,-11,-15,-7,-29,-5
1532373685821,66,6,-13,27,19,15,13,8
1532373685826,-50,-11,2,-10,-4,15,-18,-4
1532373685831,-11,0,-13,-13,-10,9,-19,5
1532373685836,2,-3,4,-3,-10,-30,-13,1
1532373685841,-1,-2,-4,-12,-20,-9,-18,-8
1532373685846,10,8,12,15,1,-23,-4,-4
1532373685851,2,-8,-3,8,4,7,5,8
1532373685856,-3,-4,-1,-14,-2,1,5,-3
1532373685861,-14,-4,-6,-16,-18,-34,-4,-3
1532373685866,13,0,18,4,0,-15,-8,-3
1532373685871,-8,2,-9,8,16,11,-3,6
1532373685876,19,3,-5,0,-9,0,-6,10
1532373685881,-4,-1,3,-3,0,2,-2,-43
1532373685886,2,-2,-7,-9,0,4,0,-3
1532373685891,6,2,11,0,6,5,-8,5
1532373685896,-1,3,6,16,-8,-21,2,9
1532373685901,-7,-2,-6,-2,-11,-21,1,9
1532373685906,11,-5,-3,-20,-15,-2,-4,-9
1532373685911,-13,0,-2,3,8,10,-1,2
1532373685916,1,-5,-3,3,8,7,-9,2
1532373685921,-8,3,1,-3,4,8,-3,-8
1532373685926,5,1,-3,2,-4,-16,-9,-9
1532373685931,-4,-5,0,6,-10,-20,-5,11
1532373685936,-6,0,-4,3,30,53,5,-1
1532373685941,28,-1,0,-2,-10,-13,4,24
1532373685946,-17,4,-2,0,9,12,-7,-19
1532373685951,4,-1,-1,-3,-10,-29,0,1
1532373685956,-9,-4,3,-1,-9,-7,2,-7
1532373685961,0,-1,9,-1,9,8,-11,-10
1532373685966,1,-3,-5,16,16,12,0,-8
1532373685971,-2,-5,-5,-15,-14,-11,-2,-2
1532373685976,19,5,7,-9,3,19,5,51
1532373685981,-1,-2,-23,-5,-1,0,-8,9
1532373685986,-14,-1,8,8,-4,-5,1,-4
1532373685991,-3,0,3,1,8,19,-10,-2
1532373685996,4,-2,-6,4,5,7,-1,-1
1532373686001,-14,2,5,-7,-1,2,6,1
1532373686006,-2,-7,-2,-3,-10,-25,-3,2
1532373686011,6,3,-1,9,15,34,5,-5
1532373686016,-8,-2,-3,-4,-6,-7,-7,-20
1532373686021,2,5,2,8,13,22,5,7
1532373686026,1,-3,1,2,-2,3,-7,-1
1532373686031,-5,-4,-13,-11,-1,-2,9,1
1532373686036,3,-6,0,1,-4,-7,-11,-24
1532373686041,-4,-1,-3,1,-3,-15,9,14
1532373686046,13,6,0,-7,-1,7,0,49
1532373686051,2,1,6,-3,-7,-19,7,10
1532373686056,1,3,3,8,8,40,0,-5
1532373686061,-6,-5,-3,2,-8,-23,-4,-19
1532373686066,1,-2,-4,-5,1,-8,2,-4
1532373686071,9,1,-3,-6,-6,6,-6,-6
1532373686076,20,3,20,5,1,-5,10,0
1532373686081,-38,-8,-27,-1,-4,6,-3,-6
1532373686086,-8,1,6,-11,2,5,1,-8
1532373686091,-6,-1,-12,5,-1,-6,-1,-2
1532373686096,-9,-3,-16,-9,-1,-5,3,-13
1532373686101,6,1,4,0,-2,-1,1,8
1532373686106,-13,-5,-1,0,2,-3,0,-4
1532373686111,14,3,6,1,2,-1,3,9
1532373686116,-14,1,4,-1,-8,-31,-4,-5
1532373686121,-2,-1,1,-6,-3,7,7,8
1532373686126,7,0,-9,8,5,-6,-4,-6
1532373686131,5,3,8,6,-1,9,-3,0
1532373686136,-3,-5,-4,-12,2,10,-3,1
1532373686141,-14,0,-2,-1,-6,-10,-2,-4
1532373686146,6,1,-2,-6,-6,-12,4,-2
1532373686151,-9,-3,-1,-1,1,-1,7,0
1532373686156,3,0,-4,4,0,0,-6,1
1532373686161,1,-1,10,-3,3,-1,-4,-5
1532373686166,-4,1,4,6,-2,0,6,7
1532373686171,24,3,-2,4,2,-2,-5,-3
1532373686176,-29,-4,-4,-4,-4,-5,-1,-4
1532373686181,21,-1,4,-2,2,4,-3,-4
1532373686186,0,1,-4,2,-3,-3,0,1
1532373686191,-7,-1,-1,-3,0,-6,1,-1
1532373686196,23,2,0,8,2,9,4,2
1532373686201,-36,-2,19,-10,-3,-6,-1,-6
1532373686206,6,0,-16,-7,-4,-7,-1,-16
1532373686211,9,-2,-7,4,-2,-6,13,12
1532373686216,1,5,9,11,5,14,-1,1
1532373686221,-6,-3,-9,-12,-7,-8,-6,14
1532373686226,5,1,13,-3,-1,0,-4,-18
1532373686231,-12,-1,6,0,2,3,-4,-7
1532373686236,3,-4,-13,-5,0,-3,4,10
1532373686241,3,1,7,6,-1,-3,2,-6
1532373686246,-8,-1,-2,-2,0,4,8,4
1532373686251,17,1,-1,4,0,-1,-3,0
1532373686256,-16,-2,2,7,-2,-8,3,-3
1532373686261,-5,-1,-3,-7,0,8,-4,-12
1532373686266,2,-2,-6,0,-4,-7,-4,3
1532373686271,-4,-2,-2,-4,-5,-2,-5,-4
1532373686276,3,0,3,3,3,2,-4,2
1532373686281,2,-5,-9,-5,0,-2,-5,-13
1532373686286,16,-1,-2,5,1,3,1,20
1532373686291,-41,-4,9,-9,-7,-11,-6,-12
1532373686296,6,1,-10,-7,-8,-6,-3,-11
1532373686301,8,1,-2,11,6,2,10,3
1532373686306,-4,-5,-1,-9,-8,-1,-8,-5
1532373686311,3,1,0,-1,0,-3,-8,7
1532373686316,11,0,4,0,6,10,-2,-6
1532373686321,10,2,-2,1,-1,0,-3,-2
1532373686326,-6,1,1,3,-4,-7,0,7
1532373686331,-17,-2,2,2,2,8,-3,-13
1532373686336,2,-3,7,-2,-3,-5,6,14
1532373686341,15,-3,-13,-8,-9,7,4,10
1532373686346,-3,-2,1,-4,11,2,14,-12
1532373686351,-12,-4,-14,-2,-6,4,-4,-4
1532373686356,-6,0,3,0,-5,-17,-10,-3
1532373686361,9,2,4,7,0,7,-6,6
1532373686366,1,-1,2,3,-2,-8,-5,-3
1532373686371,-1,0,-1,-3,5,4,6,0
1532373686376,2,-4,-12,-9,-9,-13,1,-2
1532373686381,-1,-2,4,2,2,-9,-2,3
1532373686386,-4,-1,-3,6,4,10,-6,0
1532373686391,5,-1,1,-1,-1,5,6,-2
1532373686396,-3,2,1,-7,-4,-3,2,2
1532373686401,-5,0,-1,9,0,-15,-5,-5
1532373686406,1,-1,0,5,1,6,-4,0
1532373686411,6,-3,-5,-9,-1,-5,-12,0
1532373686416,2,-2,-3,-1,-7,-4,-15,8
1532373686421,11,0,-1,-1,2,7,-19,14
1532373686426,-20,-4,-2,-2,-6,-12,-32,-28
1532373686431,-2,-1,0,0,-1,4,-15,12
1532373686436,-7,-2,-4,-8,3,13,7,-1
1532373686441,-15,-5,1,4,0,-6,16,3
1532373686446,21,8,2,-2,-1,1,20,7
1532373686451,6,1,-2,-5,-8,-3,11,18
1532373686456,-4,-1,-5,2,15,16,1,-5
1532373686461,0,1,-1,-5,-11,-14,-7,16
1532373686466,-3,-3,1,10,8,10,-15,-4
1532373686471,-2,-3,0,1,-1,-7,-73,-17
1532373686476,2,-4,-4,-11,-9,-24,-93,29
1532373686481,-6,-5,-2,2,-7,-13,-128,7
1532373686486,-2,-2,-4,-18,-12,-11,-127,30
1532373686491,3,1,-1,8,1,-4,-30,18
1532373686496,2,2,3,14,8,21,-19,17
1532373686501,0,1,-2,-5,-2,2,2,6
1532373686506,0,1,-1,-4,-6,-6,11,7
1532373686511,4,0,1,2,2,4,49,39
1532373686516,-3,-1,1,-2,0,4,90,-20
1532373686521,-1,1,-1,2,-2,-5,127,21
1532373686526,-3,-1,0,2,1,7,127,11
1532373686531,-9,-2,-3,-7,4,12,99,-25
1532373686536,-1,0,0,4,1,-9,101,-20
1532373686541,3,2,0,-2,1,2,76,-35
1532373686546,3,3,3,7,12,3,52,-17
1532373686551,-1,-3,-5,-13,-19,-8,27,-41
1532373686556,-7,-3,-1,3,1,2,1,-29
1532373686561,0,-1,1,3,23,26,-8,-23
1532373686566,4,-2,-11,-49,-78,-37,7,-13
1532373686571,1,2,4,16,12,-26,-8,-27
1532373686576,-1,0,-1,8,6,17,-18,-5
1532373686581,-7,-5,-4,-4,-9,-7,-29,-36
1532373686586,5,1,3,10,35,25,-6,18
1532373686591,-3,-1,-2,0,-14,-12,-15,-15
1532373686596,3,1,-1,-6,-4,-29,-9,-8
1532373686601,-4,-1,4,3,8,-1,-3,-23
1532373686606,-1,0,-2,16,41,-5,5,14
1532373686611,8,1,-7,-20,-44,5,1,10
1532373686616,-8,-4,3,13,28,23,16,-4
1532373686621,-11,-3,-2,-1,-9,-14,-2,-25
1532373686626,0,1,0,1,-10,-49,-8,-7
1532373686631,2,-4,-5,-3,17,5,17,1
1532373686636,6,2,3,-16,-57,11,16,7
1532373686641,6,1,-1,-4,20,5,-8,10
1532373686646,-2,-2,4,30,77,37,-28,-8
1532373686651,-4,-3,-4,-21,-41,-13,-94,7
1532373686656,0,-2,-3,-11,-11,-14,-93,-3
1532373686661,0,0,-2,1,13,20,-22,9
1532373686666,1,-1,-2,-6,-25,-25,3,3
1532373686671,-4,-1,5,30,53,12,31,-3
1532373686676,-7,-1,-5,-6,-13,14,119,-18
1532373686681,4,5,0,-11,-10,-8,117,37
1532373686686,-2,0,2,5,-5,39,104,-6
1532373686691,0,1,2,-5,14,10,83,-1
1532373686696,-3,0,2,19,6,3,16,-26
1532373686701,-3,-2,0,0,-11,-18,-5,0
1532373686706,2,-2,-9,-26,-22,0,10,4
1532373686711,-6,-3,-4,-2,8,36,-5,0
1532373686716,2,1,2,9,3,-7,-22,15
1532373686721,0,0,1,1,3,-3,-41,-3
1532373686726,-3,-3,-7,-10,-11,-4,-26,-2
1532373686731,-1,-2,0,-4,-8,-6,-14,3
1532373686736,10,0,-5,-1,11,-11,-49,20
1532373686741,1,-3,2,7,-4,2,-63,12
1532373686746,-9,-1,2,2,-13,-12,-69,-28
1532373686751,0,1,3,-1,2,-12,-25,0
1532373686756,-2,-3,-5,1,8,0,-15,10
1532373686761,16,2,0,-1,-5,4,-8,-1
1532373686766,-1,-5,-5,-6,-9,1,-18,5
1532373686771,-4,-1,1,0,-1,-14,-17,-12
1532373686776,21,5,10,-2,2,1,-26,30
1532373686781,-6,1,7,-2,-8,4,-34,4
1532373686786,6,-6,-11,7,0,-8,-25,-23
1532373686791,-18,-2,-3,3,6,-1,-9,21
1532373686796,-9,-5,-13,-8,-2,-7,-12,-14
1532373686801,1,-1,0,-3,-6,-12,-17,-8
1532373686806,0,2,8,-1,5,12,-3,4
1532373686811,8,0,4,9,2,-14,-13,8
1532373686816,-3,0,6,-1,0,-5,-13,-5
1532373686821,-14,-5,-3,-17,-6,-2,-1,1
1532373686826,4,-1,-6,-2,-6,-11,-7,0
1532373686831,0,-4,-10,6,-5,1,-11,-12
1532373686836,16,4,-10,-1,1,-8,-16,23
1532373686841,-21,7,17,6,15,19,-36,-15
1532373686846,23,3,-13,-4,-20,-5,55,12
1532373686851,-15,-1,11,4,14,4,44,13
1532373686856,-12,-1,-7,-1,-3,-12,36,-6
1532373686861,-4,-2,-3,1,-4,-5,14,8
1532373686866,8,4,7,-7,-2,-18,-21,-2
1532373686871,4,1,4,1,7,29,-19,6
1532373686876,16,-12,-4,-8,-3,-4,-16,-13
1532373686881,-21,-2,-14,6,-9,-13,11,-8
1532373686886,-8,-2,3,0,3,0,-16,0
1532373686891,16,5,29,5,-4,-8,-22,-5
1532373686896,-21,-5,-40,-8,5,7,-10,0
1532373686901,5,-6,-11,-2,-5,-2,1,-9
1532373686906,10,1,-3,0,-2,-7,-11,10
1532373686911,0,-1,7,2,-2,-10,-12,-6
1532373686916,-5,1,18,5,-1,-4,-13,7
1532373686921,4,-4,-13,-22,-14,-20,0,1
1532373686926,-17,-3,-1,4,19,31,-32,1
1532373686931,7,2,-6,1,-7,-7,-45,-1
1532373686936,-3,1,7,0,6,19,-30,-4
1532373686941,7,-2,-6,5,-3,-9,-17,0
1532373686946,-5,-1,10,3,-3,-5,-31,-1
1532373686951,0,-1,-11,-2,-1,0,-26,-6
1532373686956,-6,1,1,1,-4,-8,-39,-5
1532373686961,6,0,4,1,1,11,-71,1
1532373686966,-7,-1,-1,1,-3,3,-91,0
1532373686971,-2,-1,-9,-1,-3,-1,-36,-1
1532373686976,-4,-2,4,-2,-5,-3,33,2
1532373686981,6,1,2,3,4,8,47,-3
1532373686986,-7,-3,0,3,3,16,10,5
1532373686991,1,1,-8,-5,-5,-17,25,4
1532373686996,4,4,10,1,-2,1,-23,-2
1532373687001,20,3,18,18,5,3,-9,8
1532373687006,8,-2,15,-2,-1,-3,14,-2
1532373687011,-41,-12,-37,-29,-8,3,6,-15
1532373687016,2,-1,-4,-12,-1,13,34,-2
1532373687021,9,-1,-4,24,11,-6,41,10
1532373687026,-21,5,14,-5,-9,-11,65,-9
1532373687031,20,6,14,18,1,2,32,-2
1532373687036,-4,7,5,-16,-8,-16,25,-3
1532373687041,-23,-12,-8,-9,1,17,30,-17
1532373687046,15,-2,-4,-6,1,-17,50,42
1532373687051,1,-2,-6,-8,-17,-33,17,-9
1532373687056,3,-2,-4,13,-2,-2,16,-1
1532373687061,7,7,5,-6,9,24,53,7
1532373687066,-14,-2,-7,-4,-14,-37,19,-5
1532373687071,-7,-1,21,4,12,37,-6,-8
1532373687076,-4,-2,-34,2,-2,-8,-18,8
1532373687081,-3,-5,-1,-7,3,10,-17,-15
1532373687086,1,-1,9,2,-4,-9,-16,-6
1532373687091,21,30,11,-2,-11,-29,-9,19
1532373687096,-7,-13,8,-3,14,51,-9,-15
1532373687101,-22,-4,-33,-8,-25,-42,-21,-46
1532373687106,4,-3,-20,4,11,25,-5,8
1532373687111,3,-1,13,-19,-11,-21,1,-5
1532373687116,-7,-2,14,-9,-2,9,2,12
1532373687121,9,5,3,-3,-27,-32,-5,1
1532373687126,27,4,1,20,25,36,-14,9
1532373687131,-15,-9,1,14,8,0,4,9
1532373687136,9,-1,3,-10,-3,-15,31,-10
1532373687141,-8,-7,-8,-7,-16,-26,28,16
1532373687146,4,1,-1,6,11,7,14,-2
1532373687151,-8,-3,-10,-5,5,19,15,14
1532373687156,-24,-29,-12,0,-2,-24,-21,-14
1532373687161,-24,-72,23,-1,3,6,-15,-14
1532373687166,29,86,21,23,-5,-7,3,45
1532373687171,15,45,-26,-16,3,17,3,1
1532373687176,-27,-29,5,5,2,-9,-6,-7
1532373687181,11,-45,-32,-9,4,8,-8,26
1532373687186,30,57,22,6,5,16,-2,-2
1532373687191,7,2,15,6,-2,-3,-13,0
1532373687196,-6,10,-10,-2,-22,-30,7,10
1532373687201,-26,-40,-1,1,37,54,-31,-7
1532373687206,-14,-43,-16,-6,-1,7,17,-23
1532373687211,-11,-11,-3,6,-6,-21,-24,-11
1532373687216,3,-32,2,-4,3,2,-32,-5
1532373687221,20,50,14,2,-2,-22,-47,10
1532373687226,1,-17,-16,-8,-4,12,-52,3
1532373687231,26,53,9,-1,-9,-8,-75,3
1532373687236,-6,2,15,10,11,1,-38,6
1532373687241,-42,-60,-43,-8,-2,3,3,3
1532373687246,18,14,2,-5,6,14,6,-11
1532373687251,13,26,13,1,-13,-16,52,-2
1532373687256,1,21,19,25,6,6,39,-3
1532373687261,14,30,13,-19,-6,1,32,14
1532373687266,-43,-56,-25,-24,-23,-33,2,-19
1532373687271,-17,-59,-15,7,12,35,9,-7
1532373687276,24,35,12,2,5,-7,0,8
1532373687281,-15,-13,-4,5,-7,-2,19,-9
1532373687286,-13,-26,-13,-6,-9,-13,7,-9
1532373687291,2,-2,4,-1,19,20,28,-4
1532373687296,8,15,-4,-2,-1,-7,-4,-2
1532373687301,14,23,5,2,3,14,-8,2
1532373687306,-1,7,4,-4,-3,13,-21,-5
1532373687311,-8,-25,-1,4,-15,-51,-9,-1
1532373687316,-2,-10,-9,-4,0,15,1,4
1532373687321,16,21,7,4,17,27,-27,3
1532373687326,-5,14,12,-2,-13,-20,-2,-8
1532373687331,-19,-35,-10,1,-5,-1,23,-4
1532373687336,-20,-36,-19,-9,4,6,-11,-6
1532373687341,6,-13,5,4,-12,-21,-3,14
1532373687346,52,93,24,7,22,42,-83,22
1532373687351,-5,-6,-5,-5,-41,-91,-125,-10
1532373687356,5,-10,-4,-5,10,45,-128,-2
1532373687361,0,18,2,2,-8,-22,-128,-1
1532373687366,-27,-33,-10,-3,-12,-17,-44,6
1532373687371,17,-11,3,9,-2,-12,36,22
1532373687376,-3,1,-5,-18,1,22,83,1
1532373687381,-5,-28,-22,-9,5,3,107,-11
1532373687386,-3,2,22,28,8,-5,96,-14
1532373687391,13,26,19,-53,-8,8,77,-8
1532373687396,-3,-3,-25,-9,-18,-25,79,-14
1532373687401,1,6,-2,-1,22,11,62,-7
1532373687406,-12,-35,-24,-4,-54,-56,50,-10
1532373687411,-1,-1,7,38,47,93,42,0
1532373687416,4,-5,3,2,-16,-35,30,-2
1532373687421,13,22,13,4,10,7,23,0
1532373687426,-15,-13,12,6,6,0,23,-11
1532373687431,-8,-14,-9,0,-6,-37,14,-8
1532373687436,1,13,-2,-35,-5,33,8,-2
1532373687441,10,34,16,50,6,-6,8,4
1532373687446,-19,-20,6,-31,8,32,13,-9
1532373687451,-9,-11,6,-3,-19,-5,2,-6
1532373687456,1,2,-7,-21,-12,1,1,-6
1532373687461,7,19,6,-10,4,1,7,7
1532373687466,-8,-17,6,20,11,-5,4,-3
1532373687471,-2,-1,9,-4,10,-1,-1,-4
1532373687476,0,16,15,12,20,67,1,2
1532373687481,0,2,0,12,-21,-36,3,-5
1532373687486,-2,-12,-9,-38,13,50,1,10
1532373687491,-8,-4,-13,34,7,8,-1,-19
1532373687496,-2,2,4,-25,-28,-79,2,0
1532373687501,-4,2,3,-5,-9,-11,1,-3
1532373687506,-1,-6,-9,5,19,59,0,-1
1532373687511,2,-4,-17,-19,-1,-1,0,4
1532373687516,2,-1,-9,14,1,-7,0,3
1532373687521,6,4,-20,5,-14,-59,3,-4
1532373687526,-6,-1,-18,7,22,-33,45,1
1532373687531,-2,-1,-17,-12,-2,-8,29,4
1532373687536,1,1,-26,11,6,-32,26,-1
1532373687541,1,-2,-19,-15,-6,-16,20,1
1532373687546,-6,-8,-8,5,-14,-6,10,-7
1532373687551,0,-3,14,5,7,33,16,4
1532373687556,7,9,23,21,9,-4,23,2
1532373687561,-3,3,18,-27,3,29,14,-3
1532373687566,-4,-10,-9,-12,-35,-8,11,2
1532373687571,1,-4,-12,1,6,10,6,-12
1532373687576,-2,2,16,8,3,-1,12,12
1532373687581,-19,-2,7,-8,-5,19,28,-6
1532373687586,4,3,8,15,16,-17,-9,13
1532373687591,9,3,-1,-8,-6,3,-6,20
1532373687596,0,-5,5,2,-6,-4,-17,-36
1532373687601,20,0,14,0,6,12,-13,22
1532373687606,1,0,13,4,1,-7,4,12
1532373687611,1,0,10,3,-3,-7,-13,-13
1532373687616,1,4,11,5,6,-8,-11,10
1532373687621,-8,0,-4,-15,-13,-20,-25,-17
1532373687626,-7,-6,-19,-19,-19,-37,-22,-9
1532373687631,4,0,-15,17,21,12,-12,1
1532373687636,-8,-6,-13,-13,-20,-1,0,12
1532373687641,7,-11,-1,11,-34,9,-14,-7
1532373687646,4,19,-6,-16,-18,-8,-7,2
1532373687651,-20,-13,-15,-10,12,-7,-16,-21
1532373687656,5,-12,4,7,4,2,-12,23
1532373687661,3,19,4,13,27,37,-9,13
1532373687666,-18,-19,-6,8,13,1,-8,-66
1532373687671,5,9,-1,-2,-17,9,-9,-24
1532373687676,19,28,-4,0,-1,-5,-12,10
1532373687681,3,1,-8,-7,-1,13,-20,-10
1532373687686,-8,-8,-9,9,13,12,-20,8
1532373687691,6,-5,-6,11,-7,-9,-11,-38
1532373687696,-13,-7,-7,-10,-14,-25,-16,-15
1532373687701,9,5,4,2,22,33,20,0
1532373687706,-4,0,1,-6,-4,-3,107,-13
1532373687711,-17,-18,4,-7,7,20,89,24
1532373687716,-7,2,1,7,6,-2,60,5
1532373687721,19,6,-5,-23,-12,-17,14,-3
1532373687726,-7,-11,-2,4,-6,-25,-24,8
1532373687731,9,7,5,0,-7,2,-10,-19
1532373687736,-3,3,12,26,19,30,14,56
1532373687741,4,5,4,7,5,-4,4,-44
1532373687746,-24,-8,35,-6,-9,-1,18,7
1532373687751,12,7,16,-6,-7,-22,20,31
1532373687756,-19,-13,5,-8,0,-3,-28,-51
1532373687761,-25,-11,-15,7,-27,-4,-13,-22
1532373687766,62,43,-4,-13,-10,-3,-28,47
1532373687771,-11,16,-17,-4,13,3,-61,6
1532373687776,-11,-11,-17,-8,-7,-16,-41,-14
1532373687781,-13,-14,8,0,-21,-93,-55,-24
1532373687786,-8,-22,-11,6,13,-43,-108,0
1532373687791,-4,-6,-4,-5,-9,-24,-121,22
1532373687796,8,0,-5,7,18,14,-43,53
1532373687801,24,5,-3,-16,-18,-10,-52,27
1532373687806,4,2,-4,4,-3,29,-26,-15
1532373687811,1,6,2,20,18,24,-42,-15
1532373687816,-20,-22,-8,-25,-25,37,-106,-31
1532373687821,-18,1,-2,-3,-2,31,-57,6
1532373687826,40,21,3,-10,-7,35,-29,33
1532373687831,-5,3,-1,-2,4,13,-39,19
1532373687836,12,5,6,9,1,-4,10,-4
1532373687841,-51,-53,2,8,19,-4,23,26
1532373687846,46,51,0,-1,17,29,-48,0
1532373687851,-7,0,3,1,-6,-19,38,8
1532373687856,5,11,2,-1,-11,-20,49,-53
1532373687861,5,-4,-4,-5,-2,5,68,-15
1532373687866,-52,-34,-6,2,7,2,123,-57
1532373687871,36,1,7,-3,0,28,126,19
1532373687876,-6,-2,2,1,-6,-22,109,7
1532373687881,-18,9,0,0,20,21,97,5
1532373687886,2,-10,-1,3,-15,-19,57,17
1532373687891,-2,-1,-7,-10,-8,-20,30,-13
1532373687896,8,-4,1,4,19,22,98,30
1532373687901,26,34,5,2,9,3,65,12
1532373687906,-20,-9,-3,-2,0,-5,56,-24
1532373687911,-19,-25,-5,-7,-6,-1,18,-15
1532373687916,7,11,-1,3,7,20,6,16
1532373687921,7,4,4,-2,-11,-28,-57,2
1532373687926,1,5,3,7,6,1,-25,8
1532373687931,27,8,0,0,7,21,41,5
1532373687936,-81,-19,-7,-5,-11,-18,37,-1
1532373687941,35,4,0,0,-3,8,1,21
1532373687946,21,-4,-4,-3,-9,-23,-57,-8
1532373687951,-25,-5,-4,-8,-9,8,47,9
1532373687956,59,7,12,19,33,46,57,18
1532373687961,54,6,-2,-7,-9,5,-48,-28
1532373687966,-88,-9,-4,-6,-15,-21,17,-33
1532373687971,-6,-16,-8,-5,-2,-22,63,2
1532373687976,3,-13,-5,-4,9,-2,42,26
1532373687981,28,15,3,-5,-2,15,127,-13
1532373687986,-23,13,11,8,10,12,-38,37
1532373687991,-55,-12,-10,-16,-28,-52,-1,-41
1532373687996,42,1,-7,-10,-9,-3,13,12
1532373688001,-61,-19,-4,5,18,23,22,-30
1532373688006,22,-1,-1,-5,-15,0,8,36
1532373688011,-22,-13,3,7,19,43,-31,27
1532373688016,-43,-11,-3,-8,-22,-26,-94,-33
1532373688021,30,32,2,-1,5,-4,-79,18
1532373688026,14,5,1,3,-2,-19,-115,-8
1532373688031,-5,-5,-4,-1,-2,-7,-81,5
1532373688036,-5,-11,-1,6,9,13,-92,8
1532373688041,-16,-17,-3,-4,-2,-23,-15,-29
1532373688046,16,-4,0,1,-3,-23,57,-21
1532373688051,54,28,9,3,3,0,54,22
1532373688056,1,9,-5,-6,-9,-6,57,-34
1532373688061,-37,-10,-3,-1,0,-5,35,-6
1532373688066,-12,-8,-2,-4,-1,10,56,18
1532373688071,12,-20,-8,-3,-2,3,58,16
1532373688076,-68,11,6,5,-11,0,21,-53
1532373688081,90,6,0,3,6,1,72,53
1532373688086,44,31,4,-10,-13,-9,-19,-5
1532373688091,-2,7,6,5,6,15,-37,15
1532373688096,-12,-10,-4,2,8,2,-112,-18
1532373688101,-41,-27,4,10,9,15,-55,-10
1532373688106,39,-20,-1,-3,-10,-18,-39,14
1532373688111,3,-15,-7,-7,-3,11,-48,-29
1532373688116,30,42,11,11,-1,-17,-73,-7
1532373688121,-18,-14,-7,-4,2,4,-65,32
1532373688126,35,-1,-1,5,15,18,-66,39
1532373688131,-31,21,8,4,-5,-6,-61,-29
1532373688136,-19,-23,-4,-3,-3,3,-9,29
1532373688141,-25,8,0,-5,-5,1,12,-11
1532373688146,-38,-6,-7,-6,-1,-1,3,-32
1532373688151,12,4,6,14,9,2,-22,14
1532373688156,15,-14,-4,2,6,-6,-41,22
1532373688161,28,12,-4,-11,-13,16,-83,15
1532373688166,2,-8,-6,10,6,-27,-118,-27
1532373688171,15,-1,0,-27,-60,1,-128,-26
1532373688176,28,-1,-9,-17,10,3,-115,24
1532373688181,-5,-6,2,7,4,-13,-124,8
1532373688186,-13,-13,-2,4,16,14,-38,35
1532373688191,32,10,-5,10,9,-21,81,-42
1532373688196,73,11,6,5,-19,-17,122,20
1532373688201,-4,-8,-8,-11,-20,-18,127,13
1532373688206,-45,0,2,5,-12,-14,127,-54
1532373688211,-14,-6,-3,5,10,13,112,19
1532373688216,-8,-8,3,8,36,56,92,59
1532373688221,4,6,0,-2,-15,-9,86,-25
1532373688226,26,10,5,5,13,9,72,-10
1532373688231,27,-4,-4,-16,-11,3,49,16
1532373688236,-15,-4,-2,-3,6,4,34,-37
1532373688241,-2,5,2,6,16,3,45,-34
1532373688246,-10,3,0,-2,2,4,28,2
1532373688251,0,3,1,-2,10,5,14,5
1532373688256,-27,-5,-2,-4,-16,-13,10,-1
1532373688261,4,3,1,4,15,8,21,8
1532373688266,-6,-3,-9,-12,-20,-15,10,-28
1532373688271,17,3,0,3,6,-16,-1,7
1532373688276,-15,-2,0,5,1,10,4,0
1532373688281,19,10,1,4,7,13,9,15
1532373688286,-23,-7,-3,-5,6,8,2,11
1532373688291,-60,-6,-4,-2,2,-8,1,6
1532373688296,-26,-2,0,-2,-19,-28,1,-31
1532373688301,-15,10,-1,0,4,6,5,39
1532373688306,3,1,-2,3,1,10,2,-21
1532373688311,-5,2,4,3,-19,-15,4,14
1532373688316,-15,-7,-3,-18,-5,12,66,9
1532373688321,-23,-9,2,9,22,3,88,-37
1532373688326,4,5,14,-1,-3,1,70,5
1532373688331,-16,3,-6,7,8,-3,71,-8
1532373688336,11,3,-4,-1,-8,-2,31,-22
1532373688341,-10,-1,-1,-8,-12,-7,8,-14
1532373688346,3,0,11,1,6,2,-3,19
1532373688351,-45,-26,0,-3,-10,-15,-1,18
1532373688356,17,22,3,17,8,-9,-40,-2
1532373688361,5,1,1,-30,-38,15,-27,7
1532373688366,10,0,-10,1,-1,-5,-42,4
1532373688371,-4,0,6,-8,-5,-11,-28,-14
1532373688376,-2,-8,-8,-1,11,6,-11,19
1532373688381,7,-6,5,10,15,-10,-24,-43
1532373688386,-13,7,6,1,-9,-4,7,41
1532373688391,2,4,1,5,5,-1,-17,-48
1532373688396,-3,0,-6,-4,-7,18,11,14
1532373688401,11,-4,0,4,8,4,5,19
1532373688406,-2,-3,24,-7,9,5,-4,-2
1532373688411,-10,4,4,18,25,10,-15,22
1532373688416,4,3,3,-21,-53,-9,-6,-13
1532373688421,-5,-7,-1,-1,-13,-32,-31,-1
1532373688426,0,-2,-11,-14,-32,3,-8,0
1532373688431,2,4,6,13,41,7,-28,-10
1532373688436,2,13,1,8,15,5,-17,-1
1532373688441,4,-5,4,2,8,2,-15,-10
1532373688446,-5,-11,-8,-4,-10,-19,12,-3
1532373688451,0,7,4,-7,-29,-15,-5,10
1532373688456,4,13,4,16,46,39,-5,-6
1532373688461,-9,-22,-10,-4,-2,4,-1,5
1532373688466,11,4,1,6,13,6,-18,-18
1532373688471,-5,8,2,-11,-29,-16,19,19
1532373688476,-7,-5,-11,-5,-11,-12,8,-9
1532373688481,0,4,-24,-5,5,2,-4,4
1532373688486,-3,9,29,5,-10,-11,2,-39
1532373688491,7,7,6,-3,3,9,13,21
1532373688496,-8,-11,-1,-5,-11,-20,-11,-9
1532373688501,-22,-8,55,15,11,16,25,-4
1532373688506,7,-6,-81,-10,-4,0,12,28
1532373688511,-5,-9,-21,-13,7,21,-8,-7
1532373688516,-8,0,-12,-1,12,10,3,-19
1532373688521,16,16,25,7,-4,-11,42,-4
1532373688526,0,6,23,3,0,-5,17,54
1532373688531,-45,-45,-2,-2,0,5,-5,0
1532373688536,50,6,-13,1,-7,-9,17,-36
1532373688541,26,4,-8,-4,-3,-1,-46,-3
1532373688546,9,64,30,5,-1,-10,-48,-6
1532373688551,1,17,0,0,-5,0,-101,16
1532373688556,-3,-11,2,0,7,17,-12,100
1532373688561,-48,-20,-18,-17,-7,5,17,-97
1532373688566,11,-27,-4,3,0,1,72,44
1532373688571,19,19,16,3,-8,-14,66,-21
1532373688576,-15,-1,3,3,-1,-5,14,9
1532373688581,23,-8,-12,1,5,9,31,39
1532373688586,-30,-23,-16,-9,6,10,10,-21
1532373688591,-46,-12,-3,-4,-4,-18,-39,-5
1532373688596,-3,0,1,-1,-8,-14,-16,-29
1532373688601,-13,-8,-2,2,3,16,92,24
1532373688606,-7,-4,-1,5,10,-11,70,-16
1532373688611,-11,4,3,3,13,8,63,-5
1532373688616,25,-5,-6,-19,-31,-8,42,-2
1532373688621,-21,-1,-10,5,34,11,32,2
1532373688626,-6,-15,-1,-3,-9,0,30,14
1532373688631,-3,14,2,-4,-3,-13,26,-24
1532373688636,-18,-12,3,14,15,8,17,-26
1532373688641,9,7,-4,-6,-11,-1,1,-14
1532373688646,3,6,1,4,2,-7,13,30
1532373688651,-9,21,38,7,-8,11,20,3
1532373688656,9,-49,-49,-11,7,13,-2,36
1532373688661,-26,-61,4,-10,-9,-8,-1,-43
1532373688666,62,98,33,6,6,8,8,55
1532373688671,19,26,-38,1,2,4,7,-5
1532373688676,3,9,13,4,-6,-15,-2,19
1532373688681,-20,-19,-7,1,0,-8,-2,-25
1532373688686,14,-30,88,3,0,14,6,-10
1532373688691,-93,-25,-77,-20,-5,5,17,-30
1532373688696,40,3,-9,-3,-2,-9,67,71
1532373688701,-19,-5,-3,3,4,0,-33,7
1532373688706,-3,-9,-21,-2,-4,2,73,-11
1532373688711,30,20,38,2,-7,3,54,6
1532373688716,14,0,9,12,28,27,57,-27
1532373688721,-19,15,-9,-4,-10,-18,49,16
1532373688726,-14,10,1,-7,-23,-6,-95,-3
1532373688731,-16,-17,7,3,25,8,-120,2
1532373688736,-12,-16,-10,-1,-21,-5,-101,-13
1532373688741,35,25,24,5,18,22,-33,16
1532373688746,4,-14,-21,-3,1,-7,-9,13
1532373688751,-9,-6,-7,-4,5,3,29,-29
1532373688756,-15,13,15,-4,-35,-25,3,-9
1532373688761,17,5,-7,6,18,4,-11,3
1532373688766,-15,-21,-22,-5,-7,-5,2,23
1532373688771,7,1,1,-18,2,-1,6,2
1532373688776,-6,-4,35,6,12,-12,62,-24
1532373688781,-70,-1,14,-3,-22,-14,43,49
1532373688786,7,0,-76,1,3,-5,42,11
1532373688791,7,3,16,7,-2,6,29,24
1532373688796,-3,2,-1,1,10,8,-5,-5
1532373688801,-1,3,6,0,-6,-6,11,-15
1532373688806,-23,-13,10,-6,-16,-23,-3,-18
1532373688811,14,24,7,-4,-21,12,25,11
1532373688816,-21,-3,-7,13,54,26,3,-8
1532373688821,10,-2,-2,14,-28,-5,-10,-1
1532373688826,-1,-8,-2,-30,-18,3,10,-22
1532373688831,17,-6,-2,-2,-1,-14,13,23
1532373688836,3,8,0,-6,-8,-13,14,-30
1532373688841,-48,-7,-2,-5,-1,-29,19,32
1532373688846,4,5,1,3,3,16,-24,-35
1532373688851,14,-1,-5,-5,-4,-4,-49,0
1532373688856,-2,-2,2,5,14,66,-46,0
1532373688861,50,1,0,1,-7,0,-59,-5
1532373688866,-57,-4,-2,-5,-2,-1,-52,-30
1532373688871,0,-3,-3,-1,-2,-55,-32,8
1532373688876,-5,1,0,-1,-9,-9,-14,-6
1532373688881,26,-1,1,2,8,34,-15,-11
1532373688886,-8,-3,-3,-4,-19,-30,-34,3
1532373688891,6,-1,-4,-7,6,27,-19,-5
1532373688896,-5,-1,-1,6,4,-52,-23,-6
1532373688901,2,2,3,6,15,33,-50,-4
1532373688906,24,-1,-2,-6,-13,-16,-93,11
1532373688911,-16,-6,-2,-6,-2,20,-128,10
1532373688916,17,-2,-1,-1,-1,-15,-88,0
1532373688921,-9,-1,2,6,1,-17,-47,-2
1532373688926,-14,-7,-3,-1,-1,9,45,37
1532373688931,22,4,-2,-5,-15,-22,49,8
1532373688936,-1,5,1,1,3,3,75,-3
1532373688941,0,-3,-2,-3,-4,-5,97,-6
1532373688946,-27,3,2,3,3,0,80,11
1532373688951,-14,-6,-3,0,-5,-2,62,-15
1532373688956,-20,-1,3,1,6,27,56,-5
1532373688961,-11,-4,-1,0,5,13,33,1
1532373688966,14,1,0,0,-3,-14,11,4
1532373688971,1,3,2,3,-1,-12,9,-1
1532373688976,-9,1,-2,-4,-9,-15,-13,-11
1532373688981,-15,-5,-5,-1,9,8,-6,0
1532373688986,20,5,1,-1,0,14,1,-14
1532373688991,-1,-3,-4,-2,-4,6,-4,-12
1532373688996,9,2,-2,-5,4,10,10,10
1532373689001,-5,-3,-1,-1,3,-13,-3,-5
1532373689006,-4,-7,-2,4,17,16,-4,-5
1532373689011,6,-7,-3,-3,-4,6,-9,20
1532373689016,10,2,1,1,-2,-3,4,-47
1532373689021,-6,6,1,-1,-2,-15,2,-5
1532373689026,8,5,-2,-3,-7,-6,3,-32
1532373689031,-13,-7,-2,-2,0,5,-6,10
1532373689036,3,-4,-3,-1,-3,-2,30,48
1532373689041,-5,-2,0,0,-4,-9,0,-9
1532373689046,45,2,-3,-2,-4,-2,15,12
1532373689051,-29,0,1,0,3,5,0,-20
1532373689056,-11,-2,-2,0,-4,-5,-11,-8
1532373689061,2,0,1,1,2,-3,-8,-4
1532373689066,-6,-2,-5,-2,-5,-2,-13,14
1532373689071,29,-1,-4,-2,2,3,1,12
1532373689076,-18,1,3,0,0,-2,-2,-10
1532373689081,2,4,0,-2,-24,-12,6,5
1532373689086,2,-1,-2,-4,-26,-24,-12,-8
1532373689091,-1,-3,1,4,25,21,5,6
1532373689096,-1,1,2,1,0,7,7,11
1532373689101,-15,-1,0,-1,4,-10,0,-10
1532373689106,1,-4,-2,-2,-6,-4,-8,-5
1532373689111,3,3,-2,-4,-8,-11,-12,-3
1532373689116,43,4,4,1,-4,-1,4,5
1532373689121,-38,-8,9,1,2,-7,-19,0
1532373689126,-38,3,-15,3,13,15,-10,-56
1532373689131,13,2,-3,-3,-6,-8,-6,36
1532373689136,-16,0,7,1,-1,1,-8,-8
1532373689141,22,2,-6,-1,6,4,17,41
1532373689146,9,-2,-25,-3,1,1,-4,-12
1532373689151,-7,-6,-2,0,-4,-1,0,-20
1532373689156,2,1,-3,-2,-4,-6,1,-11
1532373689161,12,3,7,3,8,5,-8,4
1532373689166,-3,2,11,1,4,2,35,23
1532373689171,4,0,-3,0,-5,-7,8,-1
1532373689176,-9,-4,-1,-1,0,5,14,13
1532373689181,-15,-3,-3,-3,-3,-5,-16,-52
1532373689186,16,2,1,1,9,8,15,19
1532373689191,-1,5,2,-1,-6,-12,5,-31
1532373689196,-7,1,8,-1,-4,0,16,18
1532373689201,10,1,-21,-2,2,5,35,-12
1532373689206,-7,-8,-2,-3,-5,-5,-8,5
1532373689211,-4,-6,1,1,-2,-1,0,16
1532373689216,-14,1,-2,2,-3,-2,-19,-5
1532373689221,10,6,5,2,3,-3,-14,19
1532373689226,6,1,7,1,1,1,-27,-9
1532373689231,-14,-9,26,-1,-1,1,-6,9
1532373689236,0,-10,-56,-10,-3,-1,-18,-16
1532373689241,6,8,5,5,5,8,-11,10
1532373689246,2,0,-5,-5,-6,-5,-40,-6
1532373689251,3,4,12,5,3,1,-14,-10
1532373689256,-9,-5,10,3,-4,-6,-29,-9
1532373689261,2,3,13,1,6,-2,-12,-17
1532373689266,8,2,-19,-1,0,-11,4,35
1532373689271,-6,-2,-7,-6,-4,12,-19,-9
1532373689276,2,6,-2,1,-2,0,-21,18
1532373689281,-1,-15,-19,-9,1,8,-5,9
1532373689286,2,2,26,9,9,10,22,-2
1532373689291,-7,-4,-4,-5,-3,-15,113,-5
1532373689296,-3,24,112,7,-9,-65,97,7
1532373689301,-14,-46,-89,-23,-4,77,90,-16
1532373689306,3,1,29,13,11,9,-19,5
1532373689311,-5,-11,-17,-5,-8,-33,-44,-1
1532373689316,-4,1,6,3,-2,22,-31,-12
1532373689321,8,21,38,7,1,-18,-60,4
1532373689326,-8,-1,-23,-19,-18,-59,-100,-23
1532373689331,7,-1,-26,1,13,90,-114,29
1532373689336,6,-19,4,8,7,-21,-128,41
1532373689341,-1,11,26,15,11,-10,-70,-50
1532373689346,6,-3,-13,0,-26,4,26,20
1532373689351,3,16,8,-14,-9,-36,-26,-8
1532373689356,-7,-5,-40,-16,-7,-9,28,-5
1532373689361,3,-4,-9,-4,2,49,15,10
1532373689366,1,-10,26,21,24,5,28,-2
1532373689371,-6,2,6,2,-5,-9,23,-10
1532373689376,4,-7,-10,4,7,41,33,5
1532373689381,1,7,4,0,-7,-38,9,9
1532373689386,-5,23,48,-5,-2,0,-3,-20
1532373689391,-3,-17,-31,-3,5,61,3,-8
1532373689396,-21,-23,-37,3,-3,-2,8,-23
1532373689401,36,24,22,6,-1,-7,44,41
1532373689406,-2,-8,-22,-13,-6,21,18,12
1532373689411,11,17,32,3,0,-12,23,11
1532373689416,-3,17,8,-3,-17,-37,-8,-17
1532373689421,-15,-1,2,10,6,-31,-28,-32
1532373689426,-7,-9,10,21,17,13,-7,8
1532373689431,2,-16,-12,-36,11,70,38,9
1532373689436,13,4,-8,5,-5,-88,-28,37
1532373689441,2,3,12,14,39,26,-109,10
1532373689446,6,10,-5,6,13,-17,-63,-8
1532373689451,-9,-3,2,25,-22,-59,-46,-20
1532373689456,-1,-11,-1,-23,-7,58,40,2
1532373689461,-7,8,12,-15,-7,0,81,-8
1532373689466,-5,-6,-8,-4,-1,10,41,-13
1532373689471,-3,-7,-43,-9,7,0,75,-5
1532373689476,-4,8,-16,9,-10,-7,87,-2
1532373689481,-3,-5,0,-2,-15,-29,77,12
1532373689486,-8,-1,20,12,34,35,59,-3
1532373689491,-3,0,2,-37,-61,-42,43,-10
1532373689496,5,2,-1,16,26,0,20,-9
1532373689501,-2,-2,11,7,14,-10,22,4
1532373689506,2,-13,-28,-18,-26,11,35,7
1532373689511,-5,1,13,15,12,-61,1,-3
1532373689516,6,3,9,10,0,-44,-36,0
1532373689521,-6,-5,0,-10,-30,11,-24,-12
1532373689526,-3,-1,2,12,52,-5,-16,-16
1532373689531,-2,1,-2,-6,-32,-21,-23,8
1532373689536,-4,-3,3,-18,5,102,12,-5
1532373689541,0,-6,-7,5,-5,-6,1,3
1532373689546,-7,0,-10,-10,-11,66,-1,19
1532373689551,2,10,22,23,-4,-72,8,10
1532373689556,7,1,-5,-32,-55,-42,-27,3
1532373689561,-2,-11,-11,-27,-15,71,33,-10
1532373689566,-4,-5,-11,-7,-6,2,109,-2
1532373689571,4,4,10,28,31,-36,124,-20
1532373689576,-5,1,6,16,10,0,127,26
1532373689581,-3,3,-2,7,16,6,62,-12
1532373689586,-4,-1,-4,-16,4,60,15,-11
1532373689591,-1,0,1,7,12,-9,-48,2
1532373689596,-1,0,-3,1,-5,-28,-56,-16
1532373689601,-4,-6,-6,-5,-3,4,-57,0
1532373689606,8,-2,-3,-3,-17,-55,-38,7
1532373689611,1,3,0,1,15,46,-111,-4
1532373689616,-2,0,1,10,-4,8,-109,-9
1532373689621,2,-4,-4,-17,-8,-6,-93,15
1532373689626,9,3,6,34,44,-22,-84,1
1532373689631,1,-1,-4,-29,-28,26,-125,-1
1532373689636,-1,-3,-2,-5,14,52,-114,3
1532373689641,-6,-3,1,10,-4,-47,-82,-9
1532373689646,-4,3,-2,-10,-34,-70,-71,0
1532373689651,-2,-3,4,17,54,94,0,9
1532373689656,1,-2,-4,0,15,17,-21,-6
1532373689661,0,0,1,-3,-21,-46,-84,5
1532373689666,7,0,-2,-2,-22,-66,-94,0
1532373689671,1,-2,1,-2,-4,7,-61,-2
1532373689676,-2,1,-1,-5,9,33,-3,-2
1532373689681,-11,-2,-1,3,-15,-48,43,-4
1532373689686,-8,-4,-7,-10,-10,10,47,-9
1532373689691,-5,1,-2,4,0,-6,80,0
1532373689696,9,-4,-2,-3,5,28,99,9
1532373689701,3,2,-3,1,12,-1,83,-6
1532373689706,3,31,-2,-4,-9,22,82,5
1532373689711,38,53,3,-2,-8,1,43,6
1532373689716,-3,106,17,0,12,-14,16,-9
1532373689721,-74,-93,39,6,-3,-3,38,-37
1532373689726,-32,-121,-77,-7,-7,-7,20,33
1532373689731,-18,0,-15,-4,-15,-26,-105,-7
1532373689736,3,5,-9,0,3,-9,-112,9
1532373689741,25,62,11,7,8,-7,-48,2
1532373689746,25,64,33,-8,10,12,-9,-6
1532373689751,-7,-25,0,6,-23,-20,31,1
1532373689756,-7,-22,-2,-2,5,-35,16,-9
1532373689761,20,18,-5,-17,-45,14,-43,12
1532373689766,5,-12,5,3,19,22,-8,-14
1532373689771,6,-2,-4,1,13,13,52,10
1532373689776,-14,-28,7,8,8,2,56,-53
1532373689781,4,6,-12,6,23,24,127,42
1532373689786,5,14,3,-2,-16,-6,113,6
1532373689791,3,8,8,-5,-6,-8,106,1
1532373689796,9,7,-3,0,-4,18,87,33
1532373689801,-43,-52,-26,-8,7,1,44,-27
1532373689806,-15,19,11,2,-12,-2,97,-38
1532373689811,35,32,13,5,11,23,108,12
1532373689816,-4,-14,-3,2,7,30,32,-10
1532373689821,29,23,-14,-10,-7,-2,10,36
1532373689826,-11,-10,5,-2,-8,-5,-48,5
1532373689831,-21,-25,-7,-2,8,6,-15,-16
1532373689836,29,-11,-7,-2,1,-10,-15,14
1532373689841,-8,11,3,4,-4,-30,-30,-8
1532373689846,13,16,6,-2,-5,-10,-56,-10
1532373689851,-34,0,-6,-2,5,-1,-40,29
1532373689856,-6,-73,-8,-7,-16,-24,-69,-34
1532373689861,22,79,6,5,6,-4,-37,16
1532373689866,33,-52,3,-4,3,4,-70,-18
1532373689871,-25,8,-1,-3,-6,-15,-73,-26
1532373689876,-56,-9,0,-2,-5,-9,-54,-29
1532373689881,15,-2,1,4,9,15,-93,9
1532373689886,17,27,1,-2,-11,-4,-52,-4
1532373689891,-1,-2,1,-1,-2,-15,-53,1
1532373689896,-10,-10,-2,-4,-5,-8,10,-11
1532373689901,-13,-26,-7,-2,6,6,-14,-8
1532373689906,-6,48,-3,0,0,4,19,2
1532373689911,19,-38,9,5,2,-2,-10,-9
1532373689916,4,33,5,0,-5,1,29,15
1532373689921,15,8,-9,-3,-2,10,25,-1
1532373689926,-5,84,15,3,1,16,-6,14
1532373689931,-13,-31,-15,-1,-3,-2,5,-7
1532373689936,3,-67,-3,6,5,15,21,17
1532373689941,-7,-4,3,0,-1,0,13,-2
1532373689946,-5,-47,-6,-5,-3,-4,4,-13
1532373689951,10,39,0,-5,-3,0,4,-2
1532373689956,57,80,18,-1,-2,-8,-5,29
1532373689961,-78,-74,-18,-5,-14,-67,14,-41
1532373689966,37,25,18,2,7,68,13,46
1532373689971,22,1,-34,0,14,24,9,-12
1532373689976,14,19,-7,-5,-5,54,-9,-13
1532373689981,-7,7,6,1,3,54,5,-1
1532373689986,-17,-8,1,-3,-14,-26,-10,-23
1532373689991,10,-2,5,-8,-8,52,80,32
1532373689996,-24,-22,-5,-4,-3,-20,30,-2
1532373690001,35,17,5,6,-2,-26,-1,-5
1532373690006,-27,-25,-9,-5,-7,-9,-55,0
1532373690011,-9,-22,4,2,3,-14,-48,-2
1532373690016,4,16,6,0,-4,-40,-23,9
1532373690021,11,9,6,-2,-5,-14,-35,0
1532373690026,-5,-7,-8,-2,0,-38,-21,-2
1532373690031,-19,-10,-5,-8,-17,-56,-42,-18
1532373690036,-4,2,-4,1,9,9,-1,4
1532373690041,6,12,4,5,18,43,-28,-9
1532373690046,-9,-21,-6,-4,-9,21,3,6
1532373690051,3,3,2,-2,0,-8,-48,5
1532373690056,-13,-7,-4,-6,-13,-30,-43,-3
1532373690061,9,2,0,6,0,-13,-2,-2
1532373690066,-8,-4,-2,15,30,-35,4,-6
1532373690071,-3,5,11,-12,-25,78,9,4
1532373690076,4,-6,-8,4,12,-22,-5,7
1532373690081,10,1,-2,-2,22,75,18,7
1532373690086,0,-5,-1,-1,-7,-36,1,-4
1532373690091,1,6,8,17,18,19,-14,3
1532373690096,-1,-1,1,1,-3,-6,-23,-1
1532373690101,6,-3,-3,-10,-20,-38,-79,3
1532373690106,0,-7,0,19,39,-32,-113,9
1532373690111,-6,-4,-6,-35,-58,-24,-57,-8
1532373690116,-3,7,-2,-2,-4,14,-8,-2
1532373690121,-2,-2,-1,-2,-14,-24,50,-3
1532373690126,1,-3,0,-2,9,17,86,5
1532373690131,-6,-3,2,10,20,-39,67,-2
1532373690136,-3,-2,-1,-1,-4,-9,99,-6
1532373690141,0,3,-1,0,-2,-23,91,-4
1532373690146,-2,-2,-1,-7,-12,7,68,-4
1532373690151,2,2,2,6,10,-20,46,-4
1532373690156,-5,-1,1,0,0,6,40,0
1532373690161,3,1,0,-1,5,-8,45,3
1532373690166,-1,-1,-4,-7,-18,15,61,-3
1532373690171,-1,-1,1,5,11,-3,54,-2
1532373690176,-3,-1,-1,0,5,14,55,0
1532373690181,-1,1,-2,-3,-3,-2,87,1
1532373690186,-5,0,-1,-4,-14,-4,72,-4
1532373690191,-6,1,-1,2,7,-2,84,-5
1532373690196,-1,0,1,0,6,15,115,1
1532373690201,1,-1,-1,-2,-5,-9,79,0
1532373690206,-1,-1,-3,-5,-8,-6,39,-2
1532373690211,-1,-1,-2,3,9,-16,-14,-3
1532373690216,-4,0,-5,0,-6,-9,-80,-4
1532373690221,2,-1,1,3,0,-17,-92,2
1532373690226,0,0,1,-3,-7,-6,-103,0
1532373690231,2,-2,1,2,2,-4,-126,2
1532373690236,-1,-2,-3,-3,-3,-31,-125,-3
1532373690241,-2,-2,-5,-2,0,-15,-57,1
1532373690246,-2,-3,-2,-2,-3,-17,97,-2
1532373690251,-1,0,1,1,0,-43,54,-2
1532373690256,0,0,2,0,0,-10,-29,3
1532373690261,1,1,-2,1,-1,8,-123,-1
1532373690266,0,0,-2,-3,-6,3,-128,-1
1532373690271,-2,-3,-3,-1,0,27,-92,-2
1532373690276,3,-3,-2,2,2,21,-103,3
1532373690281,4,0,0,-1,-4,10,-120,5
1532373690286,1,0,-1,-3,-8,19,-112,1
1532373690291,1,0,0,1,-1,21,-116,-2
1532373690296,0,-2,-1,0,-1,23,-128,-3
1532373690301,0,-2,-6,0,-1,19,-87,-2
1532373690306,1,0,-1,0,-4,5,-90,-1
1532373690311,-4,-1,-1,0,0,-7,-6,2
1532373690316,-2,0,-1,-2,-2,-18,94,0
1532373690321,-2,-2,2,-1,0,-5,127,0
1532373690326,-1,-3,-1,-3,-1,-12,127,-2
1532373690331,2,1,2,1,4,14,111,0
1532373690336,-2,0,-1,-1,2,21,109,-1
1532373690341,1,0,1,-3,0,20,106,-3
1532373690346,-1,0,-3,-3,0,16,65,-2
1532373690351,-1,0,-1,3,2,10,58,-2
1532373690356,-2,1,-1,-2,-1,11,84,-3
1532373690361,-3,0,0,-1,2,4,87,-2
1532373690366,5,0,1,1,1,3,76,2
1532373690371,6,0,0,-1,-3,-3,33,-2
1532373690376,4,-1,-1,0,-1,3,42,-1
1532373690381,0,-3,-3,-2,1,-2,35,-2
1532373690386,-4,-2,-2,-2,-2,2,46,-1
1532373690391,-5,-2,0,-1,1,-3,48,0
1532373690396,-3,-1,-2,-2,-2,-2,11,-2
1532373690401,-5,-3,0,0,1,-1,13,1
1532373690406,-1,-3,0,0,-2,-9,3,-2
1532373690411,-1,-2,1,-1,3,-8,-17,-1
1532373690416,-3,-3,0,-2,1,-2,-9,0
1532373690421,0,1,0,1,-2,-5,3,1
1532373690426,-1,-1,-1,-1,1,-2,1,0
1532373690431,-2,-1,0,-2,-3,-2,3,-1
1532373690436,-3,-1,-1,-1,0,0,-11,-4
1532373690441,-1,-1,-2,-1,-2,0,-1,-1
1532373690446,1,-1,-3,-1,-2,-2,-3,0
1532373690451,2,-2,-2,-2,-2,-1,-4,-3
1532373690456,-3,-3,-2,-2,0,0,-7,-1
1532373690461,2,-1,1,-1,1,-1,-9,0
1532373690466,0,1,0,-1,1,-4,-8,0
1532373690471,1,-1,-2,-2,-1,-2,-7,0
1532373690476,1,-1,-1,1,-2,-4,-3,-2
1532373690481,0,-2,0,-2,-2,-1,-4,0
1532373690486,0,0,-2,0,-1,-2,0,0
1532373690491,-2,1,-1,0,1,-1,2,1
1532373690496,-2,-2,-2,-2,0,-2,2,-2
1532373690501,0,-1,1,0,0,-1,9,1
1532373690506,1,-1,0,0,-2,0,9,-1
1532373690511,-1,0,-1,1,-1,-4,14,0
1532373690516,-1,-2,0,-1,-3,-2,41,0
1532373690521,-2,0,-1,1,0,4,82,-3
1532373690526,0,-1,0,0,0,3,72,-1
1532373690531,1,-1,-2,-1,-1,-2,-69,-1
1532373690536,0,-4,-1,-1,-3,-3,-64,0
1532373690541,0,0,-1,-1,1,-3,-52,0
1532373690546,-1,-1,0,0,-2,-5,-113,1
1532373690551,-1,-2,-3,0,-2,-4,-123,0
1532373690556,0,-1,1,0,-2,-3,-102,-2
1532373690561,0,-2,0,-1,-2,-3,-57,2
1532373690566,2,0,1,-1,-3,-3,-105,-1
1532373690571,1,0,0,0,-3,-3,-107,0
1532373690576,0,0,-2,-1,-2,-4,-104,0
1532373690581,-1,-1,-1,-1,-4,-1,3,1
1532373690586,-2,0,-4,-2,1,1,125,-3
1532373690591,-2,-3,-1,1,-1,2,127,-2
1532373690596,-2,1,0,0,0,1,127,0
1532373690601,-3,-1,-2,-1,2,1,115,-2
1532373690606,-1,-1,2,1,0,0,111,-1
1532373690611,-1,0,-1,-2,1,1,93,-1
1532373690616,-2,1,-1,0,-1,-1,78,-2
1532373690621,0,-1,-2,2,0,0,22,-2
1532373690626,0,0,1,-3,0,0,13,0
1532373690631,0,0,-1,-2,-1,-3,1,-2
1532373690636,0,-1,1,-1,-1,-1,-3,-2
1532373690641,0,0,0,-1,0,-3,-19,-2
1532373690646,-1,-2,-2,1,-2,-2,-16,-1
1532373690651,-1,0,0,-2,-2,-2,-5,-1
1532373690656,-1,1,-1,-2,0,-1,-2,1
1532373690661,-2,0,-2,-1,-2,-1,-10,-1
1532373690666,-3,1,1,-1,-1,-3,-5,0
1532373690671,-1,1,-1,-2,0,-1,-4,1
1532373690676,-3,-1,-3,-1,0,1,-2,0
1532373690681,-2,-3,0,-1,1,-1,-13,-2
1532373690686,-1,-1,-3,-2,-2,-1,-10,-1
1532373690691,1,-1,0,1,0,-1,15,-2
1532373690696,1,-1,-2,-1,-2,-2,8,-2
1532373690701,1,-1,-2,-1,-3,-2,-3,1
1532373690706,1,-1,-1,-1,-2,-1,-9,-2
1532373690711,-3,-2,0,-1,-1,-2,-2,1
1532373690716,-1,-1,-1,-2,0,-2,-11,-3
1532373690721,-3,-2,-1,-1,0,-1,-15,-1
1532373690726,-1,-1,-1,-2,2,-2,-10,-1
1532373690731,-1,-1,-1,0,-2,0,-8,-2
1532373690736,-2,0,-3,0,-2,0,0,0
1532373690741,0,0,-1,-1,0,-1,-2,-2
1532373690746,-2,0,-1,-1,-1,0,-10,0
1532373690751,0,-2,0,-2,-3,1,-12,1
1532373690756,0,-2,-1,-1,-1,0,-5,-1
1532373690761,1,0,0,0,-3,-4,-18,-1
1532373690766,0,1,-2,0,-1,0,-6,-4
1532373690771,-1,0,-1,-3,-1,-3,-10,-2
1532373690776,-1,-1,0,-2,0,-3,-10,-1
1532373690781,1,-1,0,-1,-1,0,-9,0
1532373690786,-1,-2,0,0,-2,-1,15,0
1532373690791,-2,-2,0,0,-1,-2,30,-2
1532373690796,-1,0,0,0,0,1,17,0
1532373690801,-1,-1,-2,-2,0,2,11,-2
1532373690806,1,-1,-1,-2,1,2,-7,0
1532373690811,0,-2,-2,1,0,-1,-17,-2
1532373690816,-2,-2,-1,-2,-1,-1,-13,-1
1532373690821,-1,-1,-1,0,-1,-2,-19,1
1532373690826,1,-1,0,-2,-3,-2,-10,1
1532373690831,-1,2,-1,-3,1,1,-4,0
1532373690836,-1,0,0,1,0,2,-7,-1
1532373690841,0,0,1,0,-1,-1,-3,0
1532373690846,0,-1,0,0,1,-2,-2,-2
1532373690851,-1,-2,-2,-1,0,-1,-15,0
1532373690856,2,-2,-1,-1,-1,-3,-16,-2
1532373690861,-1,-1,-2,-1,-1,0,-8,-1
1532373690866,-2,-1,-2,0,-2,-1,-1,-1
1532373690871,0,0,-3,-2,-1,-1,7,-1
1532373690876,-3,0,-3,-1,1,-2,22,-3
1532373690881,0,0,-3,0,-1,-4,-3,0
1532373690886,-1,-1,0,-1,-2,0,-3,0
1532373690891,0,-1,-1,0,-1,0,-18,1
1532373690896,-1,0,-3,0,-3,-1,-20,1
1532373690901,-1,-1,0,-1,0,0,-9,-3
1532373690906,0,1,0,-1,-2,-1,-17,0
1532373690911,-2,-2,0,0,-3,1,-20,-1
1532373690916,-1,-2,0,-3,2,-3,-23,-1
1532373690921,1,-1,-1,0,-2,-5,-30,-3
1532373690926,0,-1,-2,1,-1,-8,-26,-1
1532373690931,0,0,-1,1,-1,7,-6,-1
1532373690936,0,-2,-2,-1,-2,9,3,-1
1532373690941,-1,-2,0,-2,-1,8,1,-1
1532373690946,0,1,-1,-1,-1,0,-5,0
1532373690951,1,-2,-1,-1,-1,-8,-2,-1
1532373690956,0,0,-1,1,-2,-5,6,1
1532373690961,-1,0,0,0,-3,-1,10,0
1532373690966,-1,-1,-1,-1,-1,-5,16,-2
1532373690971,-1,0,0,-1,1,-5,2,-1
1532373690976,-2,-1,1,-2,-1,-4,0,-1
1532373690981,-1,-2,0,-1,0,-3,10,0
1532373690986,-2,-2,-1,0,0,-1,1,-2
1532373690991,0,0,-2,-1,0,-3,-13,0
1532373690996,1,-1,-1,0,0,-6,-12,-1
1532373691001,-1,0,0,1,-2,-2,4,0
1532373691006,1,-1,0,1,0,2,-2,-2
1532373691011,1,-1,0,-1,-2,-2,1,-1
1532373691016,-1,0,-1,-1,0,-1,4,-1
1532373691021,-2,0,-2,-1,0,-2,12,-1
1532373691026,-2,-1,-2,-1,-2,0,21,-1
1532373691031,-2,-1,0,0,-3,-1,5,0
1532373691036,-2,-1,0,0,2,-1,16,-1
1532373691041,0,0,1,1,0,-1,18,0
1532373691046,-2,-1,-1,-1,-1,0,11,0
1532373691051,0,0,0,-1,0,-2,15,-1
1532373691056,-1,-2,-1,0,-3,-2,9,-1
1532373691061,0,0,1,-2,-3,0,-6,0
1532373691066,1,0,0,-1,0,-3,1,-1
1532373691071,0,0,-1,0,-2,0,12,0
1532373691076,0,-1,-2,-1,-2,-1,3,-3
1532373691081,1,0,-2,-2,-3,-6,1,-1
1532373691086,0,0,-2,-3,-2,-1,-8,-2
1532373691091,-1,-1,-2,-3,1,-5,-2,-2
1532373691096,-2,-2,-1,-1,-2,0,-3,0
1532373691101,-3,-1,-2,-1,1,-1,4,0
1532373691106,-2,-2,-1,-2,0,-1,-5,-2
1532373691111,0,0,-1,-2,-2,1,5,-1
1532373691116,-1,0,1,1,-1,-1,3,-2
1532373691121,0,-1,-1,-2,0,0,-19,-3
1532373691126,1,-1,0,1,-2,-3,-22,-1
1532373691131,1,-2,0,0,-2,-2,-12,-3
1532373691136,-3,0,-2,0,-1,1,-11,1
1532373691141,-3,0,-1,0,-2,0,7,-2
1532373691146,0,-3,0,0,0,-3,10,-2
1532373691151,-2,0,0,-1,-1,-1,4,-1
1532373691156,0,0,1,-1,-2,-3,8,1
1532373691161,0,-1,-1,-2,0,-2,16,-1
1532373691166,-1,0,-3,0,-1,2,0,-1
1532373691171,-1,-1,-2,0,-3,-2,-1,0
1532373691176,-2,0,-1,0,0,0,-7,-1
1532373691181,-1,1,-1,0,0,-3,-7,1
1532373691186,0,-3,-1,-1,-1,-2,-7,0
1532373691191,-1,-4,-2,-2,0,1,-3,-1
1532373691196,-1,0,-2,0,0,-1,-3,0
1532373691201,-1,-3,-1,0,-1,-2,-16,-2
1532373691206,-1,0,-1,-2,0,-1,1,0
1532373691211,-1,0,0,2,0,-2,-8,-1
1532373691216,1,-1,-1,0,-1,-1,0,-2
1532373691221,0,0,0,0,-3,-1,-2,-1
1532373691226,-2,-2,-1,0,-1,-3,3,0
1532373691231,-2,0,-2,-1,-2,-1,-1,-1
1532373691236,1,0,-2,-1,-2,-1,3,0
1532373691241,0,-1,-1,-2,0,1,5,0
1532373691246,-1,0,0,0,0,0,2,1
1532373691251,-2,-1,0,-1,0,-2,6,-1
1532373691256,0,-1,-1,-2,-2,0,-4,0
1532373691261,-2,-1,-2,1,0,1,-7,-1
1532373691266,-1,0,0,0,-2,-1,-4,0
1532373691271,0,0,-2,-2,0,-2,-8,0
1532373691276,-1,-1,1,-1,-3,-1,-34,-1
1532373691281,0,-3,1,0,0,-3,-19,0
1532373691286,2,-1,-2,0,-1,-1,-6,-2
1532373691291,-1,-3,0,0,-1,0,-4,1
1532373691296,0,-2,1,-2,1,-2,24,-3
1532373691301,-1,-2,-2,-2,-1,0,7,-1
1532373691306,0,0,1,0,0,1,39,-1
1532373691311,0,-1,-1,-1,0,0,31,2
1532373691316,0,-2,-2,0,0,-1,8,-1
1532373691321,-2,-1,0,0,-1,-2,-7,-1
1532373691326,-2,1,-1,-1,-2,-2,-21,-2
1532373691331,0,-2,0,-3,-4,-1,-21,-1
1532373691336,2,0,0,0,-1,-2,-20,2
1532373691341,1,-1,-2,-1,0,-3,-18,1
1532373691346,1,-1,-2,0,-1,-5,-105,-1
1532373691351,-6,0,-1,0,-3,-6,-120,-2
1532373691356,-3,-1,-4,-1,-3,-8,-128,1
1532373691361,-1,-1,-2,-1,-3,-3,-57,1
1532373691366,-1,-3,0,-2,-2,0,21,1
1532373691371,4,0,-2,-1,0,1,38,-1
1532373691376,1,-2,1,-1,-1,-1,-23,-1
1532373691381,1,0,-1,-1,0,0,-19,-4
1532373691386,-5,0,0,-1,1,-3,-56,-1
1532373691391,0,-1,-2,2,-1,-1,-90,-1
1532373691396,0,-1,-1,-1,-3,-6,-101,0
1532373691401,4,-1,0,-1,-7,-23,-25,1
1532373691406,5,-4,-2,0,-7,-15,42,2
1532373691411,2,-3,-2,-1,-6,-8,96,0
1532373691416,0,-2,0,0,-1,2,118,-1
1532373691421,-2,-2,0,-2,1,3,77,0
1532373691426,-2,0,1,0,2,1,78,-2
1532373691431,-3,1,2,-2,2,-1,63,-1
1532373691436,-3,0,0,1,1,6,69,-2
1532373691441,-2,2,-2,-1,3,14,48,-2
1532373691446,-2,1,1,0,2,10,33,-2
1532373691451,-2,1,-1,-1,0,10,19,-2
1532373691456,-1,-1,-1,-3,0,0,34,-2
1532373691461,-1,0,-1,-1,0,3,21,0
1532373691466,-3,0,0,-1,1,3,3,-1
1532373691471,-1,1,2,-1,2,-2,1,-2
1532373691476,1,1,0,-1,0,-3,23,-1
1532373691481,-1,-2,0,1,-1,-2,6,0
1532373691486,-1,-1,-4,-1,-1,-4,-5,-2
1532373691491,-2,-1,0,0,-1,-4,3,0
1532373691496,-2,0,-1,-3,0,-3,14,0
1532373691501,-1,-1,0,1,1,-1,-1,-1
1532373691506,0,-1,0,-2,1,2,-4,-2
1532373691511,1,-4,0,-2,1,-1,2,0
1532373691516,0,0,-2,-3,-1,3,5,-3
1532373691521,-2,0,-1,-1,-1,-2,-3,-3
1532373691526,-2,-1,-2,0,-4,-1,0,-2
1532373691531,-1,0,0,0,-2,0,-1,0
1532373691536,0,-1,1,0,0,1,3,0
1532373691541,1,-1,-1,-3,-4,3,0,-2
1532373691546,-1,0,-1,-1,1,-1,-1,1
1532373691551,0,-1,-1,-2,-1,-1,-3,0
1532373691556,-1,-1,-3,0,-1,-2,2,0
1532373691561,-1,-2,-2,-1,0,0,19,-2
1532373691566,-1,-1,0,-2,-2,2,35,-1
1532373691571,-1,0,-2,1,0,0,30,-1
1532373691576,1,0,0,-1,-2,-3,22,0
1532373691581,-2,0,-1,0,-1,1,21,0
1532373691586,-1,-1,-1,-2,-1,0,18,-1
1532373691591,0,-1,0,-2,1,-1,12,0
1532373691596,-1,1,-1,0,0,0,7,-2
1532373691601,-1,0,0,-1,0,1,-10,0
1532373691606,-1,0,-1,0,-4,-2,-18,-1
1532373691611,0,0,-2,-2,-1,-3,-8,-1
1532373691616,0,-1,-1,0,1,-2,-6,-2
1532373691621,-1,0,-1,-3,1,0,-3,0
1532373691626,-1,0,0,-1,0,-1,2,-1
1532373691631,0,0,0,-3,-1,1,5,-1
1532373691636,-2,-2,0,-1,1,-2,14,-1
1532373691641,-1,-1,0,-2,-1,1,-1,-2
1532373691646,-2,0,0,-1,-1,-2,-13,0
1532373691651,-1,0,1,0,-1,0,-5,-3
1532373691656,1,0,-1,-2,-1,0,-2,-1
1532373691661,-1,-2,1,1,-2,-4,-4,0
1532373691666,0,-1,-2,-2,-2,-3,-10,0
1532373691671,0,-1,-3,0,0,-3,-7,-1
1532373691676,0,-2,-2,-1,0,-2,-4,-1
1532373691681,-1,1,-2,0,-2,-4,3,0
1532373691686,0,1,-2,1,-1,0,-3,-2
1532373691691,-1,0,-1,0,0,0,-6,1
1532373691696,-1,-1,-1,0,0,0,-6,0
1532373691701,-1,0,-1,-1,-1,-3,-10,0
1532373691706,0,-1,-2,0,-1,-3,-5,-1
1532373691711,0,0,-1,-2,-2,0,-8,-3
1532373691716,-1,0,2,0,-2,-1,-1,-1
1532373691721,-1,-1,-2,-1,-1,0,-2,1
1532373691726,-2,1,0,-2,-2,-1,0,0
1532373691731,-1,-1,-3,-1,-1,-1,-9,1
1532373691736,0,-1,-1,-2,-2,0,-8,0
1532373691741,-2,-3,-1,-1,-2,-3,-4,0
1532373691746,-1,-4,1,-1,1,-1,-4,0
1532373691751,-1,-1,1,1,0,-1,-1,-2
1532373691756,-1,1,0,1,-2,-1,0,0
1532373691761,1,0,-2,-1,-1,0,-4,-1
1532373691766,-1,-1,-3,-1,-1,0,-10,-2
1532373691771,-1,-3,-1,-2,-1,-2,-4,0
1532373691776,-1,-1,-1,-2,-2,-3,-10,-1
1532373691781,-1,0,-1,-2,-1,0,-10,-1
1532373691786,-2,0,0,0,-2,0,-6,-1
1532373691791,1,-2,-2,0,0,-3,-4,-2
1532373691796,-1,-1,-2,-1,-1,-1,-3,1
1532373691801,1,0,-2,0,-1,0,2,0
1532373691806,1,0,-1,-3,-2,0,-3,-1
1532373691811,-2,-1,1,-1,-2,-2,0,0
1532373691816,0,-1,-2,-1,0,-4,5,-2
1532373691821,0,0,-1,-1,0,-3,-2,-2
1532373691826,-2,-2,-1,-2,-1,-1,-4,0
1532373691831,-1,0,-2,-1,-2,-1,-5,0
1532373691836,0,-2,-1,1,-2,-2,-3,-1
1532373691841,-1,-1,0,-1,-1,0,-4,0
1532373691846,0,0,0,0,-2,-2,-4,0
1532373691851,-1,-2,-1,-2,-1,-2,-2,-1
1532373691856,0,0,-1,-2,-1,-1,0,-2
1532373691861,0,-1,-1,0,-3,-3,0,-1
1532373691866,0,-2,-1,-1,-1,0,-4,-1
1532373691871,-1,0,-1,-1,-1,-2,-6,0
1532373691876,-1,-1,-1,-1,0,-2,-13,-1
1532373691881,-2,-1,-2,-1,0,-1,-14,-1
1532373691886,1,-1,-1,-1,0,-2,-9,-1
1532373691891,0,0,-3,-1,-2,-1,-9,-1
1532373691896,-3,-1,-3,-1,-2,-1,-3,1
1532373691901,0,-2,0,-2,-1,-2,-2,-2
1532373691906,-4,0,-1,0,1,0,4,0
1532373691911,0,-1,0,0,-2,0,0,-1
1532373691916,0,0,-1,-2,-1,0,0,-1
1532373691921,1,0,-1,-1,-3,1,-1,-1
1532373691926,0,-2,-1,0,-2,-2,-4,-1
1532373691931,-2,0,-2,-2,-1,-1,-3,0
1532373691936,-1,0,-2,1,1,0,-3,1
1532373691941,-2,0,-2,-1,1,-1,1,0
1532373691946,-1,-2,0,0,0,-1,4,-1
1532373691951,1,0,1,-1,0,0,9,0
1532373691956,-2,-1,1,-1,-1,-1,1,-1
1532373691961,0,-2,-1,0,-1,-1,-2,-1
1532373691966,1,-1,-1,-2,-1,0,-4,0
1532373691971,-1,-1,0,-2,-1,-1,2,-1
1532373691976,-1,-2,-1,1,-1,-2,3,-2
1532373691981,-2,1,-1,-1,0,-3,5,-1
1532373691986,-2,-1,-2,0,-3,1,2,0
1532373691991,-1,-1,-1,0,-1,-1,-1,0
1532373691996,0,0,-1,1,-3,-1,3,0
1532373692001,0,-2,-1,-3,0,-3,-26,0
1532373692006,0,0,0,-2,-1,-3,-20,-3
1532373692011,-1,-1,0,-1,0,0,-16,0
1532373692016,-1,-1,0,-1,0,1,-7,-1
1532373692021,0,0,-1,1,0,1,4,0
1532373692026,-1,0,-3,-1,0,-2,3,-1
1532373692031,-2,0,-2,-1,-1,0,5,-2
1532373692036,-1,-2,-1,0,0,-2,7,1
1532373692041,0,-1,0,1,-2,2,15,1
1532373692046,1,-2,2,0,0,0,7,-1
1532373692051,0,-2,-2,2,-1,-2,13,-1
1532373692056,-2,-2,-1,0,-2,-2,3,-1
1532373692061,-2,-1,-1,-2,0,-1,10,-1
1532373692066,-1,1,-1,-3,0,-1,-18,0
1532373692071,-1,0,-1,-4,-1,0,37,-1
1532373692076,-1,2,3,-1,2,2,109,-1
1532373692081,-2,-1,-1,2,-2,-1,99,-3
1532373692086,-1,0,0,2,1,-1,118,0
1532373692091,-1,-1,-1,0,1,-2,33,-1
1532373692096,0,1,-2,0,-1,-1,-19,-2
1532373692101,-3,0,-1,0,-1,-2,-43,1
1532373692106,-1,-2,-2,0,-2,-2,-63,-1
1532373692111,1,0,0,1,0,-4,-61,0
1532373692116,1,-2,-1,-1,1,-3,-72,-2
1532373692121,0,0,1,-2,-2,-2,-63,-1
1532373692126,1,-1,-2,-3,-3,-3,-53,-1
1532373692131,-1,-2,-1,-2,-4,-2,-32,0
1532373692136,-1,-2,-2,-2,-1,-1,-37,0
1532373692141,2,-1,-1,0,0,-2,-29,0
1532373692146,-2,-2,-2,0,-2,-3,-12,-1
1532373692151,0,-2,-1,1,0,-1,-11,-1
1532373692156,-2,-2,-1,0,-2,-2,-18,-1
1532373692161,-1,-2,-1,-1,-1,0,-9,1
1532373692166,0,-1,-1,-2,-3,1,-6,0
1532373692171,-1,0,0,-1,-2,1,-3,-2
1532373692176,-2,-1,-2,-1,-2,0,-2,-2
1532373692181,-1,0,-1,-2,-1,-2,-6,-1
1532373692186,-1,-1,0,-1,0,-2,-2,0
1532373692191,-1,-1,-1,0,0,0,-6,0
1532373692196,0,-2,1,-1,-1,-2,-1,-1
1532373692201,0,-1,1,-1,-2,0,2,-1
1532373692206,0,-1,0,0,-1,-3,2,0
1532373692211,-1,-1,-3,-2,-1,-2,-3,-1
1532373692216,-2,-2,-1,-1,0,-1,-2,-2
1532373692221,0,0,-2,-1,-3,-3,3,-2
1532373692226,-1,-1,0,0,-3,-1,-1,-1
1532373692231,0,0,-2,-1,1,-2,0,-1
1532373692236,0,0,-1,-1,-1,-1,-4,0
1532373692241,0,1,-2,-2,1,0,-1,0
1532373692246,-2,0,-1,-1,-1,0,3,-2
1532373692251,-1,-1,1,-1,-1,-3,-12,-1
1532373692256,2,0,-2,0,-1,-3,-7,0
1532373692261,1,-1,0,0,-1,-3,1,0
1532373692266,0,-3,-1,0,0,-2,4,-1
1532373692271,-1,-1,1,0,0,0,3,0
1532373692276,-1,0,-2,-2,-1,-1,-3,-1
1532373692281,0,-1,1,0,-1,-1,-3,0
1532373692286,-1,-2,-2,-1,-1,-1,-3,-1
1532373692291,0,0,-1,-1,0,-3,-6,0
1532373692296,0,-1,-1,0,-1,0,-11,0
1532373692301,-1,-1,1,-2,-2,-1,-11,-1
1532373692306,-1,-1,1,-1,-3,1,-17,-1
1532373692311,-2,-2,-1,0,-2,-2,-8,0
1532373692316,-1,0,1,-1,0,-2,0,-1
1532373692321,-1,0,-2,1,0,-6,-107,0
1532373692326,-2,1,-3,0,1,-5,-71,0
1532373692331,0,-1,-1,0,-2,-2,-79,0
1532373692336,0,-2,-2,-1,-2,0,-20,-1
1532373692341,-1,-3,0,-1,-1,-1,-21,0
1532373692346,0,0,0,-2,-1,-3,-102,-2
1532373692351,-1,-1,0,2,-1,-5,-27,0
1532373692356,1,-2,-2,-1,-1,-4,27,-1
1532373692361,-1,0,-2,0,-1,2,70,-1
1532373692366,0,-1,-1,1,0,0,77,-2
1532373692371,0,-3,0,-2,-1,4,69,0
1532373692376,0,-2,-1,-2,-1,1,41,-1
1532373692381,-1,0,-2,0,1,1,64,-2
1532373692386,-2,1,-2,-2,0,0,51,-2
1532373692391,-1,-1,-1,-1,-1,0,32,-3
1532373692396,-2,1,-1,0,0,1,-3,-1
1532373692401,0,-1,-2,-1,-1,-2,6,-1
1532373692406,-1,-1,0,-2,1,1,22,0
1532373692411,0,0,-2,-1,-1,-1,13,-1
1532373692416,-1,1,-1,0,1,-2,4,-1
1532373692421,0,0,-1,-1,-2,0,18,-2
1532373692426,0,-1,0,1,0,1,24,-1
1532373692431,0,0,-1,-1,0,0,30,0
1532373692436,-1,-1,0,0,-2,0,15,0
1532373692441,-2,0,0,-2,0,-2,23,0
1532373692446,-1,0,-3,-2,-2,-2,23,1
1532373692451,-2,0,1,-3,0,0,5,-1
1532373692456,0,-1,-2,-2,-1,-1,-2,0
1532373692461,1,-1,-2,1,1,1,1,0
1532373692466,1,0,0,-2,0,0,8,0
1532373692471,-1,-1,-2,0,-1,-2,4,-1
1532373692476,-1,-2,0,-2,-2,-1,19,-3
1532373692481,-2,-1,0,-1,-2,-1,14,1
1532373692486,-1,-2,-2,0,1,0,6,0
1532373692491,-1,2,-2,1,-1,0,2,-2
1532373692496,-1,2,1,0,2,0,-8,-1
1532373692501,-2,-2,-1,-1,2,0,-10,-2
1532373692506,0,-2,-1,-2,-1,0,-1,-3
1532373692511,1,-1,0,-1,-1,-2,-6,0
1532373692516,0,-1,-1,-1,0,-1,-18,0
1532373692521,0,-1,0,0,-3,0,-14,0
1532373692526,-2,-2,-2,-1,-1,-3,-10,-1
1532373692531,1,0,-2,-1,0,0,-7,-3
1532373692536,1,-1,-1,0,-4,-2,-13,-1
1532373692541,0,-1,-1,-2,-1,-1,-12,1
1532373692546,-2,-1,-1,1,-1,1,-7,0
1532373692551,1,-1,-1,-1,-3,0,-9,1
1532373692556,-1,0,1,-1,-2,-1,-11,1
1532373692561,-2,-1,-3,-2,-1,-1,-7,-3
1532373692566,1,-1,0,-1,-2,-2,-4,1
1532373692571,-3,-2,-3,-2,-1,-2,-2,1
1532373692576,-3,-1,-1,0,0,-1,-4,-2
1532373692581,0,1,0,-1,3,0,-2,0
1532373692586,1,1,0,-1,3,0,-1,-1
1532373692591,-2,-2,1,0,1,0,-3,2
1532373692596,-10,-2,-1,-2,0,-5,-5,6
1532373692601,1,0,-1,1,0,1,-3,-7
1532373692606,1,0,0,-1,-2,-2,1,-2
1532373692611,-3,-1,-2,-3,-4,-4,-2,-4
1532373692616,-1,-3,0,-1,-3,1,-3,7
1532373692621,-4,-1,0,-1,-4,-1,-2,-9
1532373692626,-1,-1,0,-3,-2,-3,-4,-4
1532373692631,-3,-2,-1,-1,-2,-3,-3,-1
1532373692636,3,0,0,1,0,1,-4,1
1532373692641,2,0,0,0,-3,-2,-8,-1
1532373692646,0,-2,-1,1,-2,1,-5,0
1532373692651,2,-1,0,0,-1,0,-2,-2
1532373692656,0,-1,-1,-1,0,-1,-2,-1
1532373692661,-1,-1,-2,-2,0,-3,-1,3
1532373692666,-4,-1,-2,-1,-2,-2,1,-2
1532373692671,2,0,0,-2,0,0,-2,9
1532373692676,-1,0,-1,0,-3,0,-5,-2
1532373692681,1,-1,1,-1,0,-3,-3,6
1532373692686,-4,-2,1,-1,-1,-1,-6,-7
1532373692691,1,-1,-1,0,0,-2,-3,2
1532373692696,8,0,1,-1,1,1,-3,0
1532373692701,-14,-2,-3,-1,-2,-2,-5,-6
1532373692706,-3,0,-1,0,-1,-1,0,3
1532373692711,2,0,-1,0,-1,0,4,-6
1532373692716,0,-1,-2,1,-1,-1,-1,1
1532373692721,3,-2,0,-2,-3,-1,-6,2
1532373692726,-1,-2,-1,0,-3,-1,0,0
1532373692731,1,0,-1,0,0,0,0,-2
1532373692736,-1,1,-2,-2,0,-2,-1,-3
1532373692741,2,0,0,-3,0,-3,-3,2
1532373692746,-1,0,-2,-1,-2,0,-4,0
1532373692751,1,0,0,1,0,-1,-3,-1
1532373692756,-1,-3,-1,-1,0,-1,2,-5
1532373692761,-1,0,-1,1,0,1,0,-2
1532373692766,2,0,-2,-3,1,-2,-4,5
1532373692771,-8,-2,0,1,-3,-2,-3,-5
1532373692776,0,0,0,-1,-1,-3,-3,1
1532373692781,1,0,0,0,2,-3,0,0
1532373692786,-1,-1,1,-1,1,1,-3,-1
1532373692791,-1,0,-2,0,2,1,-4,-1
1532373692796,-2,-1,0,0,0,-1,-8,-4
1532373692801,2,0,0,-1,-2,-2,1,1
1532373692806,2,-2,-1,0,-1,-3,-2,-2
1532373692811,-3,-2,1,-2,-1,-1,-2,-1
1532373692816,-1,-2,0,-3,0,0,1,-1
1532373692821,1,-2,-3,0,-1,-1,3,-1
1532373692826,-1,1,-1,0,0,-2,11,-3
1532373692831,0,1,0,-1,-1,-2,11,-1
1532373692836,0,0,-1,-3,0,-1,15,-3
1532373692841,-1,0,-1,0,1,0,20,-2
1532373692846,-1,-1,1,-1,-1,0,8,1
1532373692851,-1,-3,-1,0,0,1,68,-2
1532373692856,0,-1,0,0,0,0,91,-2
1532373692861,-1,-2,-1,-1,-1,-1,92,0
1532373692866,1,-1,-1,-3,0,2,53,1
1532373692871,1,-1,-3,-1,-1,-1,-14,0
1532373692876,-1,-1,-1,-1,-3,-5,-60,-2
1532373692881,2,-1,-2,-1,-3,-1,-65,-1
1532373692886,0,1,-1,1,-1,-4,-63,-1
1532373692891,0,-1,-1,-2,-2,-4,-56,0
1532373692896,-1,0,0,-1,-2,-2,-45,-1
1532373692901,-1,1,1,1,-3,-1,-77,1
1532373692906,-1,-2,-1,-1,-4,-1,-58,-2
1532373692911,-1,-3,0,-2,-2,-1,-36,-2
1532373692916,-2,1,0,0,1,1,-7,0
1532373692921,-1,-1,-1,-1,0,1,11,-1
1532373692926,0,0,0,1,1,0,22,-1
1532373692931,0,0,0,-1,-2,0,13,0
1532373692936,0,-1,-1,-2,-3,3,13,-1
1532373692941,1,0,-2,-1,-2,-1,9,-1
1532373692946,-2,-1,-2,-2,-2,-1,12,0
1532373692951,-2,-2,-1,-3,-2,-1,8,0
1532373692956,-1,0,-1,0,-1,-1,-1,-1
1532373692961,-3,-1,0,-1,-2,1,-1,-2
1532373692966,-2,0,0,0,-1,1,1,-2
1532373692971,-1,0,0,0,1,-2,-4,-3
1532373692976,0,-1,-1,0,-2,0,-11,0
1532373692981,0,-1,-2,-1,0,-1,-1,-1
1532373692986,0,0,-2,-1,0,0,-3,0
1532373692991,0,-1,0,1,0,-4,-7,-1
1532373692996,-1,-1,-1,1,-2,-4,-8,-1
1532373693001,0,-3,0,-1,0,-3,-8,0
1532373693006,-1,-2,0,0,0,-2,-2,-2
1532373693011,1,0,-1,-1,-1,-1,-4,-2
1532373693016,-2,-2,-1,-3,-2,-2,-11,-2
1532373693021,-2,0,0,-1,-1,-3,-13,0
1532373693026,-2,0,-1,0,-3,-1,-8,1
1532373693031,-2,-2,1,-1,0,-1,-9,-1
1532373693036,-1,0,1,1,-2,-1,-3,-2
1532373693041,0,-2,-2,-1,-1,0,6,0
1532373693046,-1,-1,0,-2,2,-1,9,-1
1532373693051,1,-1,-2,0,-1,-1,11,1
1532373693056,0,-1,-2,-2,0,2,8,0
1532373693061,-1,0,-2,-2,2,-2,7,-2
1532373693066,-1,-1,0,1,0,0,8,0
1532373693071,0,1,-1,0,1,-1,10,-5
1532373693076,-1,-1,0,0,1,1,0,0
1532373693081,1,-1,1,0,-2,1,0,0
1532373693086,1,-1,-2,-2,-2,-2,-3,-1
1532373693091,-3,0,-1,-1,-2,1,-5,1
1532373693096,0,-1,-2,0,0,-3,-5,-5
1532373693101,-1,-1,0,-2,-1,1,-4,-2
1532373693106,-2,-1,-2,-2,0,-1,-6,0
1532373693111,-1,0,-1,-1,-3,0,-5,1
1532373693116,2,0,-2,-3,1,0,3,5
1532373693121,-7,-3,0,0,-4,-4,-1,0
1532373693126,0,-1,1,-1,-1,-2,-4,-1
1532373693131,-2,1,-1,0,-2,-1,-2,-7
1532373693136,-4,-1,-2,-2,-2,-3,-4,-2
1532373693141,1,0,-1,-1,1,-1,-4,3
1532373693146,-1,-1,-1,-2,0,0,-3,0
1532373693151,-1,-1,-1,-2,0,-1,-19,1
1532373693156,0,-1,-2,0,-3,-1,-87,2
1532373693161,1,-3,-2,-1,-2,-1,-54,-1
1532373693166,0,-1,0,0,-2,-2,-127,-1
1532373693171,1,0,-1,-1,-3,-6,-66,0
1532373693176,-1,-1,-1,-2,-3,-1,-10,-2
1532373693181,1,-2,1,-1,0,-2,26,0
1532373693186,-1,-2,-1,2,-3,-3,56,-6
1532373693191,-1,-2,-1,-1,-1,-5,-3,1
1532373693196,-1,-1,0,0,-2,-3,7,-2
1532373693201,-2,2,-1,1,0,3,4,-3
1532373693206,2,1,0,-1,1,-4,46,3
1532373693211,1,0,0,0,-2,-2,36,-1
1532373693216,0,-2,-1,0,-1,7,53,-1
1532373693221,0,-2,-1,-2,1,-1,25,-2
1532373693226,-3,-1,0,-1,-1,3,32,1
1532373693231,-1,-1,0,0,0,-1,41,-1
1532373693236,-1,0,-1,0,1,-2,30,0
1532373693241,-1,-1,0,0,0,0,18,-2
1532373693246,0,0,-3,0,-1,-4,15,-2
1532373693251,-1,-1,1,0,0,-1,24,2
1532373693256,-1,-3,-2,1,0,-2,19,0
1532373693261,-3,1,-2,0,-2,0,2,-1
1532373693266,-1,1,-3,0,-2,1,-2,-2
1532373693271,-1,-2,-1,-2,-2,-6,0,-2
1532373693276,1,1,1,-2,-1,-2,-8,-1
1532373693281,1,-1,-2,0,-2,-1,-2,-2
1532373693286,0,-3,-2,-1,0,8,7,-2
1532373693291,-1,1,-1,-2,-1,5,7,0
1532373693296,-1,0,-2,0,0,-5,3,-2
1532373693301,-1,-1,-2,-2,-1,-2,-13,-1
1532373693306,-1,-1,0,-1,0,-5,-10,-3
1532373693311,0,-1,-1,-1,-2,-3,-10,-2
1532373693316,0,-2,0,-3,0,5,-3,-1
1532373693321,0,2,-1,1,0,-21,0,1
1532373693326,1,0,0,0,-1,-1,-2,0
1532373693331,-1,0,-2,0,-3,-3,-4,0
1532373693336,-2,0,-2,1,-2,-3,2,0
1532373693341,0,-1,0,-1,-3,-2,8,-2
1532373693346,-1,-2,0,2,2,11,2,-1
1532373693351,-2,0,-2,0,1,1,-3,0
1532373693356,0,0,0,-1,0,-3,-2,-1
1532373693361,0,0,-1,0,0,0,-12,-2
1532373693366,-1,-1,-1,-4,-2,-8,-14,2
1532373693371,-2,-2,-1,-2,0,0,-6,-1
1532373693376,-1,-3,-1,-1,-3,-6,1,1
1532373693381,-1,-1,-1,0,0,-8,-7,-1
1532373693386,0,2,1,-2,-1,6,-18,-1
1532373693391,0,-1,-1,-1,0,0,-28,0
1532373693396,-1,-1,-1,-4,-1,-7,-22,-1
1532373693401,-1,-1,0,0,-2,6,5,-1
1532373693406,1,-1,-2,-1,-1,-4,6,-1
1532373693411,0,0,-1,-1,-4,1,18,-2
1532373693416,-1,-1,2,3,-3,-6,13,-2
1532373693421,-1,-1,0,-3,-1,7,3,-1
1532373693426,-1,-1,-1,0,-2,0,1,-1
1532373693431,2,-1,-2,-1,1,4,-22,0
1532373693436,-1,1,-1,-1,1,4,-16,0
1532373693441,-3,-1,0,-1,1,2,-1,-1
1532373693446,0,-1,-2,0,-1,-3,-3,-1
1532373693451,-1,-2,0,-2,-2,4,-12,-1
1532373693456,-1,-2,-2,-1,-3,-2,-10,-1
1532373693461,-2,0,-1,-1,-1,-1,-10,-1
1532373693466,0,1,-1,0,0,3,-12,-1
1532373693471,0,0,-3,-2,0,-4,-5,-1
1532373693476,-1,2,0,0,1,-2,-3,-3
1532373693481,0,-2,-1,-1,1,2,-5,0
1532373693486,-1,-1,-2,0,2,-1,-5,1
1532373693491,-1,0,-1,0,-1,-1,-3,-1
1532373693496,0,-2,-2,0,-2,-1,-9,0
1532373693501,0,-1,0,0,-2,0,-2,-1
1532373693506,1,-1,-1,0,-1,0,-1,-1
1532373693511,0,0,-1,0,-4,-2,-5,1
1532373693516,-1,-1,-1,0,-1,-1,-3,-3
1532373693521,-1,-1,-4,1,-1,-3,3,-1
1532373693526,-1,0,0,-1,0,-1,0,-1
1532373693531,0,-1,-2,-1,-1,0,3,-1
1532373693536,-1,0,1,-2,-1,-4,11,-1
1532373693541,0,-2,-1,-1,-1,-1,4,1
1532373693546,-1,-1,0,0,-2,1,6,-2
1532373693551,-2,2,0,-1,-1,-1,1,-1
1532373693556,0,-1,0,-1,-1,-2,-7,1
1532373693561,0,0,-1,-1,1,-1,-5,1
1532373693566,0,-2,-1,-1,1,-1,0,-2
1532373693571,-2,-3,-2,-2,-2,-3,3,0
1532373693576,0,-1,-3,-3,-1,-2,8,0
1532373693581,-1,0,-1,0,0,-1,6,0
1532373693586,0,-1,-1,-1,-3,0,-3,-1
1532373693591,-2,0,-1,1,-2,2,-1,0
1532373693596,-2,-1,0,-2,-1,2,0,-2
1532373693601,-2,-2,-3,3,-4,-2,3,-2
1532373693606,-2,-1,3,-2,2,-1,2,0
1532373693611,0,-1,-4,-7,-2,-4,2,-3
1532373693616,-1,0,-3,-5,-3,-3,1,-2
1532373693621,1,-1,0,0,-2,0,15,-1
1532373693626,0,1,0,-1,-2,-4,17,0
1532373693631,-1,0,-1,3,1,3,13,-1
1532373693636,0,0,1,1,2,1,8,0
1532373693641,-1,-1,1,0,-1,-1,1,-2
1532373693646,1,1,0,1,1,1,-4,-1
1532373693651,-1,-2,-2,-4,-4,-5,-7,1
1532373693656,0,-1,-2,-1,-3,-2,-13,0
1532373693661,-1,-2,0,-1,-5,-6,-12,0
1532373693666,-1,-2,-1,1,3,1,-12,0
1532373693671,-1,0,2,2,-2,1,-8,0
1532373693676,0,-2,-2,0,-1,-3,-17,-1
1532373693681,1,-2,-2,-3,-4,-5,-18,-1
1532373693686,-2,-2,-3,-3,-6,-7,-23,0
1532373693691,0,-1,0,2,10,8,-20,-1
1532373693696,-2,0,1,0,-2,-3,-17,-1
1532373693701,-2,1,0,0,-1,0,-20,-2
1532373693706,-1,0,-1,-1,-6,-5,-21,-2
1532373693711,-1,0,0,-1,0,-3,-15,-1
1532373693716,2,-1,-2,-2,2,0,2,1
1532373693721,-2,-1,-3,-2,2,-2,-2,-1
1532373693726,-1,-1,-2,0,-8,-3,4,0
1532373693731,-1,0,-1,-1,-3,0,5,-1
1532373693736,-1,0,0,0,1,-1,4,-1
1532373693741,0,0,-3,-4,-4,-3,-15,0
1532373693746,-1,0,1,7,25,18,-8,-2
1532373693751,-1,-1,-3,-4,-26,-20,-2,0
1532373693756,0,-2,-2,4,17,17,11,-3
1532373693761,1,-1,-1,-1,-3,-7,15,-4
1532373693766,-2,-2,0,-4,-1,0,19,0
1532373693771,0,-2,0,1,4,0,9,-2
1532373693776,-1,-1,-1,-3,-10,-8,5,-1
1532373693781,-2,0,1,1,0,5,10,0
1532373693786,-1,0,-1,0,-1,-5,7,0
1532373693791,-2,-1,0,-3,2,0,10,-1
1532373693796,-1,-1,1,-1,-7,-9,-19,-1
1532373693801,0,1,0,1,6,8,25,-8
1532373693806,-1,0,0,-2,-4,-4,20,-2
1532373693811,-1,0,-1,0,-1,4,32,13
1532373693816,-2,0,-1,-1,0,-1,8,7
1532373693821,-1,-1,0,0,2,1,5,-2
1532373693826,0,-1,-4,-3,-9,-5,0,-2
1532373693831,0,-1,0,0,3,-1,-13,-3
1532373693836,-2,-1,-2,-2,-7,-14,0,3
1532373693841,-3,-2,0,1,10,28,-3,-3
1532373693846,-2,0,-1,0,-1,-13,-7,1
1532373693851,0,0,-1,-1,-5,-3,-17,-7
1532373693856,-2,-1,1,-1,-4,-6,-6,1
1532373693861,1,-1,-1,-1,1,-5,-11,4
1532373693866,-1,-1,-3,-1,0,5,-20,-13
1532373693871,2,-1,-2,-1,5,0,5,19
1532373693876,-2,0,0,-1,-6,-9,-32,-9
1532373693881,-2,1,0,-2,-6,-10,-18,-1
1532373693886,-1,-2,1,-1,-1,1,-12,-9
1532373693891,-3,-2,0,-1,-1,2,1,-5
1532373693896,-1,-3,0,0,-2,5,0,-6
1532373693901,0,-1,-1,-1,1,-3,-9,14
1532373693906,3,-1,0,0,-2,0,4,11
1532373693911,1,-1,-1,0,-1,0,13,-6
1532373693916,0,-1,-2,0,0,5,23,4
1532373693921,-2,-2,-1,0,-5,-7,3,-5
1532373693926,-3,0,0,-4,-3,-4,12,-1
1532373693931,-2,0,-3,-1,-2,-3,-3,-4
1532373693936,1,-3,0,2,6,7,3,-4
1532373693941,1,0,0,-1,-4,-4,8,-1
1532373693946,-3,-1,-1,-3,1,1,-2,1
1532373693951,-1,-1,-2,-2,-8,-8,-12,-4
1532373693956,-1,0,-1,1,-3,-4,3,1
1532373693961,0,0,0,0,6,6,-1,3
1532373693966,1,1,1,1,0,0,-10,1
1532373693971,-1,0,0,0,4,1,-6,-7
1532373693976,-1,0,-2,-1,1,0,-13,4
1532373693981,-2,-1,0,-3,-13,-4,4,-1
1532373693986,0,-1,2,1,0,0,-3,-4
1532373693991,-1,-3,-1,-1,2,3,0,2
1532373693996,0,1,1,-1,-6,-8,-20,-3
1532373694001,-1,-1,0,1,6,1,0,-4
1532373694006,0,-1,-1,-4,-10,1,6,1
1532373694011,-2,0,0,1,5,1,-7,-2
1532373694016,0,-2,-1,-2,3,3,4,-4
1532373694021,-3,-1,-3,-3,-2,-7,4,-7
1532373694026,0,-1,-2,0,-5,-6,7,8
1532373694031,1,-1,1,3,5,0,3,6
1532373694036,-2,-1,-3,-5,-3,0,0,-15
1532373694041,0,-2,-1,-1,-1,-8,-11,8
1532373694046,2,0,-1,0,0,0,-1,-4
1532373694051,-1,0,-3,-3,-6,-4,-16,-2
1532373694056,-1,0,1,4,12,3,1,1
1532373694061,-1,-1,0,-4,-5,0,-1,-8
1532373694066,-2,0,-1,-1,4,0,-4,4
1532373694071,-3,-2,0,-3,-2,1,-7,0
1532373694076,-1,0,0,-2,-4,-2,6,7
1532373694081,0,-1,-1,0,1,2,-2,-1
1532373694086,1,-1,-2,1,-1,-3,-11,-2
1532373694091,-2,0,0,0,-4,-1,-7,-5
1532373694096,-3,-1,-2,-3,-4,-2,-5,-6
1532373694101,1,0,-1,-1,-3,-2,-9,4
1532373694106,-1,-1,-1,0,-1,-1,-5,2
1532373694111,-1,-1,-2,-1,0,-2,2,-5
1532373694116,-3,-1,0,0,-2,-3,-5,0
1532373694121,-1,-1,0,-2,-4,-1,0,-5
1532373694126,-3,-2,-2,-4,-4,-1,2,3
1532373694131,-2,-1,0,0,-2,1,5,7
1532373694136,1,0,-1,-3,-3,-1,-1,-3
1532373694141,-1,-1,-2,-1,-1,-3,-4,0
1532373694146,-1,0,-1,1,3,0,-13,-6
1532373694151,-1,-2,-2,-1,1,-3,-2,-1
1532373694156,1,0,-2,-1,-5,-3,-4,5
1532373694161,-1,0,-2,-3,-5,-1,-10,-1
1532373694166,-2,-1,0,1,1,3,-1,-3
1532373694171,1,-1,0,0,0,-1,-2,5
1532373694176,-1,-2,-1,0,1,-2,-1,-4
1532373694181,-1,0,0,-1,-2,-6,-9,-4
1532373694186,-2,-3,-2,0,-4,-3,-4,2
1532373694191,-2,-1,0,1,1,0,10,3
1532373694196,2,0,-1,-1,-7,0,-9,-4
1532373694201,-1,0,-1,-3,-6,-11,-10,-2
1532373694206,1,-2,-2,1,10,12,6,-1
1532373694211,-1,0,0,-1,-6,0,-2,0
1532373694216,-2,0,-1,-1,2,0,2,-2
1532373694221,-1,-2,-2,0,-1,-3,5,-6
1532373694226,0,-1,0,-1,-6,-5,-7,1
1532373694231,0,-1,0,-1,0,1,18,1
1532373694236,0,-2,0,0,3,-1,0,0
1532373694241,-1,0,-1,-2,6,0,-9,-8
1532373694246,-4,-3,-4,-5,-12,-8,-2,0
1532373694251,2,0,0,2,-3,0,-8,8
1532373694256,-1,-2,-2,-3,1,-4,-5,-2
1532373694261,0,-1,0,2,0,-1,-6,-2
1532373694266,-1,-1,2,1,-2,-2,-1,-1
1532373694271,0,-2,-1,-3,2,2,3,-5
1532373694276,1,-1,3,1,-5,-2,5,0
1532373694281,-1,-4,-1,1,2,5,8,-1
1532373694286,0,-1,0,2,2,-3,6,-6
1532373694291,-3,-1,-2,-3,-7,-2,-2,0
1532373694296,-1,-2,-3,-2,-2,-3,-5,5
1532373694301,0,0,-1,2,4,3,3,0
1532373694306,1,-1,-1,-2,-5,-2,-15,3
1532373694311,1,0,1,2,5,-3,-11,-6
1532373694316,-4,-2,-2,-3,-2,-1,-12,-6
1532373694321,-1,0,-1,1,-1,-2,-15,-3
1532373694326,-3,-1,-1,2,6,2,-7,0
1532373694331,-2,0,-1,1,-6,-7,-18,-3
1532373694336,-1,0,-2,-7,-10,5,-24,3
1532373694341,1,-1,-3,-3,1,1,-17,-2
1532373694346,1,2,1,2,10,8,19,9
1532373694351,0,-1,-1,2,-2,-11,0,-4
1532373694356,-4,-1,-1,-3,0,-6,16,-3
1532373694361,-2,-1,0,-3,-6,0,26,2
1532373694366,1,1,-2,-4,3,-1,34,-3
1532373694371,-2,-2,-2,1,-1,0,-4,-6
1532373694376,-1,-2,-2,-3,0,0,-7,4
1532373694381,0,0,0,0,-1,2,-36,-9
1532373694386,-1,-1,-3,-1,-4,-2,-29,9
1532373694391,-1,0,-1,-2,3,4,-23,-1
1532373694396,-1,-1,-1,1,1,-3,-33,2
1532373694401,-1,-1,1,2,2,-1,15,0
1532373694406,-1,0,-3,-11,-18,-6,7,-6
1532373694411,-2,0,-2,1,4,3,22,-1
1532373694416,-2,-1,1,0,-2,0,22,-2
1532373694421,-1,-2,1,2,5,-4,4,-1
1532373694426,0,0,1,0,0,-1,6,-3
1532373694431,3,0,0,-1,-4,4,13,3
1532373694436,1,2,-1,1,1,-2,10,0
1532373694441,-1,-2,-2,-3,-3,-3,-1,1
1532373694446,-1,-2,-1,-2,-3,-9,8,1
1532373694451,1,-1,-1,-1,3,9,5,-4
1532373694456,-2,-1,-2,1,0,-3,2,-2
1532373694461,0,0,-2,-2,-2,4,12,2
1532373694466,-2,-1,-1,2,2,3,2,-4
1532373694471,-3,-2,2,1,0,-3,-5,0
1532373694476,2,0,1,-2,-3,-3,-1,-4
1532373694481,0,0,-4,-2,-3,2,-5,-1
1532373694486,5,0,0,1,1,0,-4,3
1532373694491,-10,-1,-3,-2,-4,-4,-9,-9
1532373694496,-5,-1,0,-1,1,3,-3,-3
1532373694501,6,1,2,1,0,0,-2,6
1532373694506,0,-2,-2,3,1,-6,-18,-3
1532373694511,2,0,-3,-4,-3,5,-11,8
1532373694516,-1,0,-2,-5,-4,-1,-15,-15
1532373694521,-2,-1,-1,-1,0,3,-18,-3
1532373694526,-1,1,-1,-1,3,-3,-8,4
1532373694531,-3,-4,0,7,-2,-7,-16,-11
1532373694536,-2,-1,2,-4,-2,2,-9,-1
1532373694541,2,4,-3,-8,0,-6,-2,5
1532373694546,-3,-2,-6,-3,-2,-5,0,-3
1532373694551,3,1,-2,-5,2,5,14,1
1532373694556,0,-4,-1,2,-6,-31,2,2
1532373694561,-3,-5,2,4,2,-6,4,-4
1532373694566,1,-2,1,-8,-11,39,16,3
1532373694571,1,-2,-2,3,5,-2,10,2
1532373694576,0,-2,-2,0,-11,-4,9,4
1532373694581,-4,-3,-2,-5,1,-19,-9,1
1532373694586,-1,1,3,9,20,-12,26,-2
1532373694591,-1,-1,-1,-9,-27,-56,12,-6
1532373694596,1,-1,-1,-1,13,41,32,1
1532373694601,-2,0,1,5,11,28,10,0
1532373694606,-1,-1,5,8,1,-16,-11,-1
1532373694611,-11,-11,-2,-1,-2,15,0,-5
1532373694616,2,-8,2,2,11,19,7,-4
1532373694621,-3,1,1,13,11,-19,24,-7
1532373694626,-4,-3,-15,-44,-43,4,21,-4
1532373694631,10,-1,-6,3,2,6,19,23
1532373694636,-5,13,4,2,-1,2,32,11
1532373694641,-3,-13,6,2,-18,-25,10,1
1532373694646,16,0,-2,8,-1,35,27,4
1532373694651,-5,-7,-9,-14,-28,-44,21,-8
1532373694656,3,-2,9,13,-19,40,11,-3
1532373694661,-10,22,17,-10,-26,-43,-10,-13
1532373694666,-9,3,12,-16,-17,-12,34,14
1532373694671,-5,8,0,21,28,-72,3,-9
1532373694676,-7,-21,8,5,-86,-128,-1,-11
1532373694681,-22,9,-22,6,63,127,54,0
1532373694686,-22,-19,7,2,33,110,-28,-5
1532373694691,-7,9,1,0,-38,-56,-29,-6
1532373694696,26,-13,-17,-43,-69,-54,-18,13
1532373694701,14,-7,-17,16,62,62,-49,-13
1532373694706,18,18,10,7,28,52,-20,12
1532373694711,4,7,15,24,22,-37,-48,10
1532373694716,20,-3,-14,-13,-60,-1,-12,1
1532373694721,16,16,-15,-17,-36,-56,-46,-1
1532373694726,6,2,20,1,1,0,-8,9
1532373694731,-20,-10,-3,0,104,127,3,7
1532373694736,3,-28,-5,28,4,-89,-31,-4
1532373694741,-24,0,1,-1,-45,-64,-28,-13
1532373694746,-13,-17,1,1,33,11,17,9
1532373694751,-9,-18,-14,-35,-19,11,-15,-2
1532373694756,-14,-14,-12,-11,-44,-56,-18,-5
1532373694761,11,37,76,23,117,112,-52,5
1532373694766,74,-10,-69,1,11,23,-26,6
1532373694771,-24,7,-10,3,15,-55,-21,-6
1532373694776,-41,-5,-19,-51,-66,-41,-27,4
1532373694781,-71,-3,11,-5,18,-26,-103,9
1532373694786,-64,3,25,3,-11,-17,-83,-18
1532373694791,29,7,-2,-8,-48,-48,-41,-31
1532373694796,-14,-7,5,-5,5,-34,-2,-9
1532373694801,13,-6,-9,15,-15,-9,32,-11
1532373694806,4,11,16,6,-18,42,61,44
1532373694811,-26,-12,-4,-10,-22,-15,-37,-27
1532373694816,-44,3,12,1,8,29,67,-17
1532373694821,-43,-7,9,1,25,-8,30,23
1532373694826,-89,1,-39,10,14,1,23,-15
1532373694831,105,10,38,-14,-31,-24,52,11
1532373694836,127,1,-38,-1,45,46,35,21
1532373694841,127,-30,-12,-4,28,2,33,11
1532373694846,-78,1,48,9,-45,-106,-3,-21
1532373694851,-128,32,-37,-4,-15,10,5,-26
1532373694856,-36,5,9,-4,10,-40,-12,-21
1532373694861,54,-22,-7,-7,4,-26,6,-4
1532373694866,113,-4,45,-2,40,41,8,28
1532373694871,22,18,-29,12,32,28,24,5
1532373694876,-27,-21,-6,3,-2,-18,-23,-26
1532373694881,-21,-15,-2,-2,12,19,-5,-9
1532373694886,-13,0,2,6,-10,-18,-15,6
1532373694891,-62,3,40,-3,-20,1,-28,-6
1532373694896,27,6,-36,1,-1,-9,-16,7
1532373694901,-26,-15,-9,-6,26,12,-19,-6
1532373694906,-23,-6,1,-2,5,4,-16,-4
1532373694911,-11,10,1,3,2,-1,14,-1
1532373694916,-23,10,9,3,-20,42,11,11
1532373694921,-57,-2,19,1,-4,2,10,12
1532373694926,26,-4,-36,-7,-4,-25,-5,43
1532373694931,-30,4,-2,1,31,27,37,17
1532373694936,-23,-5,2,4,-28,-32,0,14
1532373694941,-26,-10,4,14,50,12,22,-9
1532373694946,40,1,-1,-8,-28,4,18,4
1532373694951,46,-1,-18,-16,-18,-18,-24,-22
1532373694956,28,-4,8,1,3,-8,-10,-14
1532373694961,11,-9,-11,-8,-19,-15,-24,-24
1532373694966,-21,20,26,63,99,11,73,1
1532373694971,-14,1,-4,-24,-97,-2,55,-3
1532373694976,17,2,-7,-4,36,-1,31,-17
1532373694981,15,-9,-5,9,21,-11,32,3
1532373694986,19,-9,-15,-8,-19,-27,-18,-22
1532373694991,-17,5,6,19,21,-13,-14,-6
1532373694996,12,36,73,0,-37,-68,-17,-5
1532373695001,19,-22,-59,-10,-3,-7,-19,8
1532373695006,15,3,7,30,47,-29,-18,-2
1532373695011,-5,2,-3,-11,-42,-36,-2,-1
1532373695016,-21,-6,18,0,14,40,5,2
1532373695021,-25,8,-20,-9,-11,10,-25,6
1532373695026,-28,-4,-6,-28,-19,112,-29,-11
1532373695031,86,83,81,-2,20,64,-51,8
1532373695036,-64,-82,-107,8,14,9,-20,9
1532373695041,-88,44,38,1,17,54,-10,-10
1532373695046,49,21,-18,-17,-43,-16,-48,-12
1532373695051,97,0,18,3,4,-9,-61,-25
1532373695056,-29,27,-3,7,-11,-30,-14,-22
1532373695061,38,-29,1,-8,-20,-21,9,39
1532373695066,-11,-16,-9,-31,-31,-15,23,15
1532373695071,30,-1,-5,14,24,-3,74,3
1532373695076,47,9,13,-18,-29,-14,30,2
1532373695081,-1,-6,1,33,39,48,55,3
1532373695086,3,18,23,34,70,-11,3,-5
1532373695091,-29,-54,-33,-4,-40,9,-22,-3
1532373695096,16,-9,-22,-15,0,7,20,10
1532373695101,-37,0,11,-6,-49,-52,-20,7
1532373695106,11,7,21,-13,4,16,-44,-11
1532373695111,-33,-3,-13,46,74,31,-12,4
1532373695116,-11,-15,-6,40,15,-29,-51,-11
1532373695121,-18,3,-6,-34,51,-13,-53,-17
1532373695126,-22,-3,-14,-65,-99,-1,-53,17
1532373695131,-61,-18,-32,-25,-30,-18,-42,2
1532373695136,13,17,21,-10,38,31,-22,5
1532373695141,10,8,22,31,-4,-13,3,-3
1532373695146,-35,-8,-10,11,-8,-6,26,-15
1532373695151,-27,-15,-10,-9,16,15,20,-13
1532373695156,-8,16,16,1,-24,17,37,9
1532373695161,-22,8,11,12,12,-8,31,-2
1532373695166,-49,-12,-6,-9,-3,-16,18,-3
1532373695171,-20,-10,-1,-15,-17,23,2,-10
1532373695176,-40,14,42,22,44,53,-13,-1
1532373695181,-28,9,-46,11,9,37,8,20
1532373695186,-67,3,16,-19,-40,-39,-1,-5
1532373695191,28,69,31,4,0,-43,13,-8
1532373695196,42,-62,-49,-15,-22,-18,-2,-35
1532373695201,-20,-5,109,11,56,44,10,-40
1532373695206,104,16,-1,35,51,19,-5,34
1532373695211,60,-16,-51,-17,34,-2,34,18
1532373695216,37,-1,-44,-31,-54,-81,35,-31
1532373695221,27,-28,28,-28,-128,-109,-6,5
1532373695226,-48,2,26,33,78,-3,37,-53
1532373695231,21,12,36,13,-18,-15,-38,8
1532373695236,104,24,37,15,5,63,-5,59
1532373695241,17,4,-14,-12,-11,2,-1,-18
1532373695246,4,-8,-26,-13,-52,-39,-11,5
1532373695251,-41,-15,-8,2,13,46,37,12
1532373695256,5,7,-9,-12,-34,-38,11,-1
1532373695261,28,5,37,4,-19,43,-29,9
1532373695266,101,80,119,11,-81,-17,-2,10
1532373695271,10,19,-110,0,-7,-38,16,63
1532373695276,-125,-21,127,9,45,-21,35,-28
1532373695281,-76,10,42,-11,7,-11,25,55
1532373695286,-67,-5,50,-22,-82,-20,-21,-7
1532373695291,52,19,74,29,67,56,-50,-12
1532373695296,39,8,-46,-16,-28,-17,-39,28
1532373695301,36,5,-36,8,36,33,-13,7
1532373695306,-22,-19,-47,-15,13,52,-13,0
1532373695311,-54,-26,-14,6,5,-11,10,-1
1532373695316,4,5,-28,-1,-29,-21,-38,-11
1532373695321,16,-4,-7,55,14,-4,-75,-37
1532373695326,40,-15,-58,-69,-11,-26,17,5
1532373695331,-18,-21,-12,-3,10,-31,7,-23
1532373695336,-19,11,13,38,36,2,-18,-11
1532373695341,24,-3,-25,-53,-91,-11,20,0
1532373695346,19,-24,-22,43,50,43,30,10
1532373695351,-17,3,18,-9,-27,-30,-28,-8
1532373695356,-11,4,7,-3,12,38,25,-1
1532373695361,-2,5,-2,22,17,2,14,7
1532373695366,-72,-14,-9,29,76,15,-13,-11
1532373695371,-82,-4,14,-78,-64,23,-5,-16
1532373695376,-77,12,-7,13,35,41,3,11
1532373695381,73,3,4,14,7,-11,37,-3
1532373695386,-23,-12,4,41,85,-19,-29,-9
1532373695391,-24,-16,-6,-35,-95,-6,-74,-14
1532373695396,16,2,-10,-24,-25,-30,-9,-4
1532373695401,23,-10,4,17,33,-38,-57,-2
1532373695406,-10,-9,-5,-10,50,58,-48,-7
1532373695411,31,-3,0,0,30,-40,-38,16
1532373695416,34,5,-1,1,-72,-39,-127,-21
1532373695421,93,-8,-9,-30,-17,15,-128,1
1532373695426,13,2,9,17,-11,9,-82,-1
1532373695431,-41,-6,0,29,48,14,-30,1
1532373695436,-71,-15,-5,-2,4,26,-2,0
1532373695441,-55,10,-8,19,57,-17,-15,-7
1532373695446,-47,0,-1,18,4,1,50,0
1532373695451,7,-5,3,-6,7,0,65,3
1532373695456,-9,0,-1,17,48,-15,-14,-1
1532373695461,7,6,2,20,60,15,1,-6
1532373695466,-16,4,4,14,23,20,-4,11
1532373695471,7,0,-5,9,9,47,23,-7
1532373695476,1,13,4,-7,-15,-12,61,10
1532373695481,-1,2,4,37,11,25,4,-3
1532373695486,0,2,16,13,7,-2,-8,-5
1532373695491,12,-5,-2,14,3,-3,43,16
1532373695496,-7,-6,5,-1,-4,-10,41,-18
1532373695501,3,0,-1,-3,5,11,6,1
1532373695506,-1,-1,7,9,1,2,-6,6
1532373695511,-10,0,-2,-17,-4,0,-8,-4
1532373695516,0,9,-1,1,-1,9,-13,-3
1532373695521,-5,9,5,8,8,15,-11,10
1532373695526,-12,3,5,0,-4,-9,-62,-18
1532373695531,7,-5,-8,-21,-7,7,-77,9
1532373695536,-10,-17,-10,-9,2,9,-67,-1
1532373695541,-5,-9,-7,-17,-8,-1,33,-12
1532373695546,6,-10,-3,9,-1,-9,61,-5
1532373695551,10,-5,4,-3,8,9,68,8
1532373695556,-2,-1,6,16,14,0,40,8
1532373695561,-2,-3,-3,-7,-16,-12,19,1
1532373695566,0,-2,-1,2,-5,-12,53,1
1532373695571,6,1,2,-11,-1,3,31,7
1532373695576,-10,-1,1,10,7,-11,5,-2
1532373695581,-3,-3,-3,-10,-12,-5,17,2
1532373695586,-1,-7,-5,0,-5,1,8,1
1532373695591,6,-2,-2,-9,4,-5,8,-1
1532373695596,-27,-56,-17,2,18,4,9,-10
1532373695601,-2,-28,-13,-14,-50,-3,-12,12
1532373695606,38,88,30,16,12,-11,-49,19
1532373695611,24,49,15,-10,57,11,11,16
1532373695616,4,30,8,-25,-86,-21,-28,3
1532373695621,-18,-27,-4,6,81,6,-8,-15
1532373695626,-9,-41,-17,-4,-24,2,-13,-3
1532373695631,-1,-11,-6,0,9,3,-10,-5
1532373695636,-2,-1,0,11,28,-1,7,-8
1532373695641,-1,-2,-9,-76,-86,44,53,5
1532373695646,0,0,-1,-1,16,29,58,-5
1532373695651,-1,2,3,12,50,9,94,1
1532373695656,-3,-1,-3,-13,-39,21,69,-2
1532373695661,2,4,3,22,32,51,53,-8
1532373695666,4,1,-2,0,-2,-29,85,0
1532373695671,-3,0,-1,-3,-11,-41,59,0
1532373695676,0,7,4,12,50,5,16,-1
1532373695681,-4,3,-2,-24,-67,-16,-41,-4
1532373695686,-2,3,0,0,17,-23,-110,0
1532373695691,-3,-7,-1,11,20,2,-123,-4
1532373695696,-1,-2,4,26,37,-37,-121,-3
1532373695701,1,-6,-17,-54,-38,-74,-110,-3
1532373695706,3,-4,-2,14,70,75,-92,3
1532373695711,5,0,0,0,1,-21,-82,4
1532373695716,0,-5,-5,-17,-9,-33,-58,0
1532373695721,0,1,7,34,41,-30,-28,0
1532373695726,-4,-2,0,2,-26,-43,-2,-6
1532373695731,-4,-3,-4,-7,-1,-3,9,-8
1532373695736,1,-3,-8,-39,-90,-10,51,2
1532373695741,2,2,6,37,47,0,55,1
1532373695746,-3,-5,0,-9,-24,12,55,3
1532373695751,-2,-1,2,8,10,38,27,-1
1532373695756,-3,-3,-4,-13,-35,16,33,-3
1532373695761,-1,0,2,22,54,38,12,-2
1532373695766,1,-1,-4,-5,-28,-26,40,6
1532373695771,-4,-3,-7,-30,-37,-17,93,-4
1532373695776,-2,0,-4,-14,11,37,90,1
1532373695781,0,2,3,19,54,-25,41,0
1532373695786,-1,-1,2,0,-1,8,15,-4
1532373695791,0,3,5,32,86,-31,-6,-1
1532373695796,0,5,0,-18,-59,-67,8,-3
1532373695801,-3,-5,-10,-23,-57,37,27,-1
1532373695806,-1,1,4,12,36,-29,64,-2
1532373695811,-2,-2,-4,-11,-32,-15,25,0
1532373695816,-2,-1,2,9,26,-18,15,-3
1532373695821,-2,2,5,20,48,13,-8,-1
1532373695826,-1,1,0,-8,-25,9,11,-4
1532373695831,0,0,-2,-3,-5,19,-11,-1
1532373695836,-2,-4,0,-1,-10,21,-34,-4
1532373695841,1,1,1,0,-7,-28,-77,0
1532373695846,2,-2,-8,-18,-49,-9,-102,0
1532373695851,3,1,5,16,43,-17,-101,0
1532373695856,-3,1,0,4,12,-7,-89,-3
1532373695861,1,1,-2,0,4,10,-24,2
1532373695866,-1,0,-3,-7,-23,-3,30,2
1532373695871,2,1,1,9,27,-6,50,2
1532373695876,-4,-1,1,5,-1,9,40,-4
1532373695881,2,-1,-1,-3,-3,-10,39,-1
1532373695886,-1,-2,1,1,-6,15,39,1
1532373695891,-3,-2,0,2,13,0,24,-1
1532373695896,-4,0,1,-3,-13,-8,22,-2
1532373695901,-3,-1,4,15,-9,-33,2,2
1532373695906,1,1,-1,0,2,-14,-76,-1
1532373695911,-4,-5,-7,-26,-51,0,-54,-6
1532373695916,-1,-2,-3,-6,-16,6,-45,1
1532373695921,1,-1,1,9,41,5,-3,0
1532373695926,0,0,0,4,2,-1,30,4
1532373695931,-1,0,2,4,6,-4,49,-2
1532373695936,-3,0,1,5,5,10,57,-4
1532373695941,0,2,-2,-7,-8,-35,37,-1
1532373695946,-1,1,-3,-1,-2,28,38,1
1532373695951,1,2,-1,-2,1,7,30,5
1532373695956,-1,0,-3,-5,-21,-19,18,-2
1532373695961,-2,-5,-2,-4,2,10,0,-4
1532373695966,-2,-2,-1,-4,-7,-2,9,-1
1532373695971,-2,-2,2,8,13,2,-1,-3
1532373695976,0,0,-3,-4,-9,18,14,1
1532373695981,-1,-2,-1,-6,-2,-14,4,-3
1532373695986,0,-3,1,7,17,-3,6,-2
1532373695991,1,-1,-1,-2,-16,-1,-1,3
1532373695996,4,1,0,1,-4,-2,-7,4
1532373696001,-2,-1,-2,-1,4,24,-19,-6
1532373696006,-2,1,1,0,-1,-2,-3,-7
1532373696011,-2,0,-1,2,3,-49,-2,-4
1532373696016,0,-1,-1,0,12,19,0,3
1532373696021,2,2,-2,-9,-31,14,-24,-1
1532373696026,1,-3,-3,-1,3,-15,-25,0
1532373696031,-2,-1,-2,-2,-10,3,-27,17
1532373696036,-5,-4,-2,0,10,-21,-17,18
1532373696041,1,3,1,4,18,-11,-51,15
1532373696046,1,-1,-2,-4,-12,-4,-31,0
1532373696051,-1,-2,0,2,11,5,-15,-13
1532373696056,-2,-2,0,-4,-12,-4,-16,-21
1532373696061,-1,-3,0,-3,-2,-3,31,-2
1532373696066,0,-2,0,-2,-6,28,13,-7
1532373696071,-1,-3,0,3,6,1,17,-7
1532373696076,15,1,-1,-2,-4,4,1,-3
1532373696081,-32,-3,0,-2,-3,-9,10,-7
1532373696086,0,0,-1,2,5,-8,1,-8
1532373696091,2,1,-2,0,2,9,-38,-2
1532373696096,4,1,0,-3,-1,9,2,-4
1532373696101,4,-3,-3,-2,-2,10,28,5
1532373696106,1,0,0,-1,0,7,47,-3
1532373696111,0,1,0,-1,-1,22,54,4
1532373696116,1,1,-2,-1,-3,20,33,2
1532373696121,-3,-1,-1,0,1,15,29,-7
1532373696126,-2,-1,0,0,0,9,23,3
1532373696131,1,-1,0,-1,1,-5,-44,-1
1532373696136,-1,-1,0,-2,0,-3,4,5
1532373696141,-1,-1,-3,-3,2,-14,8,-11
1532373696146,-2,-1,-2,2,-2,-17,37,3
1532373696151,4,0,-1,-2,0,6,-12,1
1532373696156,0,-1,-2,-2,-4,-9,-41,-1
1532373696161,-5,-2,-1,0,0,-1,-35,13
1532373696166,-5,-2,-2,-1,-5,-8,-29,23
1532373696171,-3,0,0,-2,-3,-5,-42,15
1532373696176,-4,0,-1,0,0,-1,-13,1
1532373696181,-1,0,-1,-3,-2,-2,13,-17
1532373696186,0,0,0,0,-2,-4,7,-17
1532373696191,-1,-2,0,-1,0,-5,43,-12
1532373696196,0,-3,-2,1,-1,-3,33,-10
1532373696201,4,0,-2,0,0,1,23,-10
1532373696206,1,-2,0,-2,-1,-7,27,-7
1532373696211,0,-2,2,-1,-3,-2,-38,-1
1532373696216,0,-1,-1,0,-2,-6,-53,1
1532373696221,-2,-3,0,-1,-4,0,-1,0
1532373696226,-1,-1,0,4,3,2,-1,1
1532373696231,0,2,-1,-6,-3,-2,-4,1
1532373696236,-3,-3,-5,-1,-5,-4,-2,-2
1532373696241,1,1,0,-3,-1,-3,-1,-1
1532373696246,0,0,1,-1,2,-4,0,-2
1532373696251,0,-1,-2,1,1,0,-1,1
1532373696256,1,0,-2,-4,-1,-1,-2,3
1532373696261,0,0,-2,4,2,-2,0,-2
1532373696266,-1,0,-2,2,-1,-2,-1,2
1532373696271,0,-1,4,2,1,-9,-1,-2
1532373696276,0,0,-4,-1,-2,4,-2,1
1532373696281,2,0,2,-1,0,2,-1,3
1532373696286,0,1,-1,0,-1,1,-1,0
1532373696291,0,-1,-3,-3,-3,-4,0,-3
1532373696296,0,-1,0,0,2,-1,-1,0
1532373696301,-1,1,1,3,3,1,0,0
1532373696306,-2,-2,1,-1,-2,-4,-6,-2
1532373696311,0,-2,-3,0,0,3,-33,3
1532373696316,-2,-2,-2,-4,-3,-5,-32,-5
1532373696321,-1,1,-2,0,-2,-4,-29,-3
1532373696326,0,0,1,2,3,2,-36,1
1532373696331,-2,0,1,0,-1,2,-22,-2
1532373696336,-1,0,0,-7,-2,-2,0,0
1532373696341,0,-2,-2,-1,-3,-5,-31,-2
1532373696346,-1,-2,-2,5,0,0,-7,-1
1532373696351,0,-2,-1,-2,-3,-2,-8,-2
1532373696356,-1,1,0,-7,0,0,-7,-1
1532373696361,-1,-1,-3,-6,-1,-4,13,2
1532373696366,-2,-2,-3,-3,-3,-5,-3,-3
1532373696371,0,-2,-1,0,-2,-5,7,-1
1532373696376,0,-1,2,6,2,2,9,0
1532373696381,0,-1,0,1,-2,-3,22,-3
1532373696386,-2,-1,-5,-5,-1,1,11,-1
1532373696391,0,-2,-1,-7,-1,-1,9,-2
1532373696396,0,0,1,2,-2,0,-7,0
1532373696401,0,1,-1,4,-2,-1,-14,-1
1532373696406,-1,-1,1,-1,0,0,-4,0
1532373696411,0,1,-1,3,0,0,-7,-1
1532373696416,2,1,-2,1,1,2,-3,4
1532373696421,-4,-3,-2,-5,-3,1,-8,-2
1532373696426,0,0,2,0,0,-2,0,0
1532373696431,-1,0,1,-1,-4,0,-10,-1
1532373696436,-2,0,-3,2,0,-3,-11,-2
1532373696441,0,-3,-5,-7,0,0,-9,-2
1532373696446,-1,-3,0,-5,-3,-3,-3,-1
1532373696451,1,0,1,-3,-3,-3,3,0
1532373696456,1,2,3,5,3,4,-2,1
1532373696461,1,2,0,6,1,-3,-3,-2
1532373696466,-3,0,-4,-5,0,-2,-1,-2
1532373696471,0,1,-2,-4,0,-2,11,-1
1532373696476,-2,-2,-3,-3,-4,-3,-12,-1
1532373696481,-1,-1,1,5,5,-1,-8,1
1532373696486,-1,1,3,1,-1,-2,-6,1
1532373696491,-1,0,0,6,3,-6,-16,-2
1532373696496,-3,-3,-2,-1,-5,-7,-26,-1
1532373696501,1,1,1,-3,-5,-4,-45,-1
1532373696506,-2,-3,-3,5,1,-3,-52,-2
1532373696511,0,-4,4,-2,-2,-1,-45,0
1532373696516,0,-1,-8,-9,-4,-5,-26,0
1532373696521,-1,1,0,1,-1,-1,39,0
1532373696526,3,0,-1,-4,-3,2,62,1
1532373696531,-2,-4,0,3,2,1,38,-2
1532373696536,1,6,0,-1,2,0,17,-1
1532373696541,2,-3,2,6,0,-1,12,0
1532373696546,0,-4,-3,2,0,-4,4,1
1532373696551,-1,1,-4,-9,-2,-2,2,0
1532373696556,-1,0,-2,0,-1,0,-3,-1
1532373696561,-1,-2,2,-1,-2,-3,5,-1
1532373696566,1,2,3,5,-3,-2,-3,-1
1532373696571,-2,-6,-3,5,0,-2,-11,-1
1532373696576,-1,0,-3,-15,-5,-2,-15,-2
1532373696581,15,-10,-23,4,13,-5,45,7
1532373696586,-14,8,4,-3,2,3,41,2
1532373696591,-6,-5,-34,-3,1,23,26,-1
1532373696596,11,-10,-6,-7,-11,-41,24,-15
1532373696601,-22,0,32,-5,-1,3,30,-4
1532373696606,-7,15,32,13,12,13,11,-10
1532373696611,30,2,6,4,-5,4,7,31
1532373696616,-24,-2,23,1,-2,-17,15,-44
1532373696621,-12,11,-94,8,29,38,7,-4
1532373696626,41,4,-5,4,2,6,0,5
1532373696631,1,2,-19,-6,-13,-16,0,-19
1532373696636,12,10,60,1,8,11,8,18
1532373696641,-1,-4,-9,-12,-19,-7,1,3
1532373696646,-27,-8,48,2,3,-25,-2,-19
1532373696651,-11,7,-54,6,16,59,6,8
1532373696656,3,-4,-7,-1,-14,-16,2,13
1532373696661,-10,-7,0,-10,-22,-58,-1,-7
1532373696666,10,3,61,6,25,65,1,-19
1532373696671,8,5,-27,-1,-5,-56,0,-2
1532373696676,-11,1,-15,-2,4,83,0,0
1532373696681,-7,-12,-25,2,15,0,0,5
1532373696686,14,-1,12,-7,-28,-60,1,12
1532373696691,3,1,53,4,14,42,-1,-2
1532373696696,-1,5,-60,-4,-5,-25,0,7
1532373696701,14,4,87,4,3,3,2,-2
1532373696706,-13,-13,-93,-2,2,20,-1,-1
1532373696711,-27,16,-2,3,1,-12,-1,-18
1532373696716,1,-9,2,-2,3,-12,1,10
1532373696721,-1,-2,13,-4,-11,2,-1,-5
1532373696726,3,8,37,3,-4,-17,-1,4
1532373696731,0,-12,-30,-2,5,10,-1,1
1532373696736,-6,-10,2,-5,4,-7,1,-2
1532373696741,7,9,-5,3,-8,-25,0,0
1532373696746,-3,-4,3,-10,-1,30,-1,3
1532373696751,4,-5,-12,0,-10,-16,0,-1
1532373696756,13,-3,15,6,11,-4,0,5
1532373696761,5,-2,-13,-3,-6,-13,-1,-5
1532373696766,7,6,-3,3,-4,-3,-1,10
1532373696771,-1,-13,15,-3,3,17,-1,4
1532373696776,-7,-4,-15,1,-2,-20,-1,-3
1532373696781,-1,4,2,0,-21,-1,-6,-7
1532373696786,5,9,3,13,25,3,10,-3
1532373696791,-4,-8,-10,-19,-22,-4,9,1
1532373696796,-4,-4,-2,-1,6,3,-82,6
1532373696801,-6,-5,6,4,-7,2,-56,-7
1532373696806,-9,-2,-4,7,-6,-20,-31,-54
1532373696811,15,-5,-6,-3,8,16,43,71
1532373696816,20,10,-1,-12,0,7,72,36
1532373696821,2,14,40,-9,-22,-21,38,2
1532373696826,-10,-6,-36,2,12,1,19,-35
1532373696831,-10,25,12,6,-7,4,20,-23
1532373696836,-31,-43,5,1,8,10,28,-87
1532373696841,44,-27,-67,-6,-9,6,39,68
1532373696846,0,65,62,6,8,-13,48,56
1532373696851,-11,32,-21,6,-2,-6,-39,-14
1532373696856,-15,-43,-4,-7,-7,-3,-9,-17
1532373696861,-58,-8,4,-2,1,-7,-5,-52
1532373696866,-12,-39,-5,-10,5,18,35,6
1532373696871,15,8,27,1,2,-4,-1,8
1532373696876,7,18,9,5,0,-26,-18,-9
1532373696881,39,-6,-10,4,-3,6,-25,-18
1532373696886,19,-7,-7,-2,9,10,-9,57
1532373696891,32,-6,2,-12,-8,5,-24,-2
1532373696896,22,8,-16,4,2,-5,-37,4
1532373696901,-3,3,10,-3,-4,3,-27,-6
1532373696906,5,0,0,-1,-2,-6,-37,-15
1532373696911,-16,-9,-10,4,3,13,-33,-13
1532373696916,-8,-13,-12,-2,-3,-15,14,14
1532373696921,-5,11,9,4,-2,-3,14,9
1532373696926,-10,-6,-4,-8,1,-9,-6,-12
1532373696931,1,-17,-13,0,-6,20,14,9
1532373696936,8,27,10,-1,-7,-19,17,19
1532373696941,-13,-1,1,-2,-2,-11,10,-11
1532373696946,-7,-18,-16,-7,-9,1,-5,-9
1532373696951,-9,-6,3,4,8,26,-9,-4
1532373696956,-1,12,6,-7,-7,15,-6,5
1532373696961,-6,2,-5,10,2,-11,-8,-1
1532373696966,0,-8,-8,-13,-9,-76,-35,-15
1532373696971,1,0,3,-5,-1,80,-84,6
1532373696976,-5,5,3,8,1,-5,-86,7
1532373696981,6,-1,-2,-1,1,20,-58,-4
1532373696986,8,1,5,7,4,22,59,2
1532373696991,-3,-2,-2,5,-2,-25,89,-5
1532373696996,0,-2,-2,1,11,34,127,6
1532373697001,1,2,2,-1,-10,13,124,-7
1532373697006,1,3,5,9,8,-9,57,-9
1532373697011,-9,-7,-1,-6,-15,-35,23,-9
1532373697016,7,3,-2,9,6,23,-16,13
1532373697021,8,2,-2,-15,3,-9,-27,5
1532373697026,6,-4,-1,6,6,-2,19,1
1532373697031,6,-5,-1,-8,-9,-41,51,-3
1532373697036,0,4,5,9,1,-13,13,5
1532373697041,21,2,2,0,7,34,20,8
1532373697046,-17,-3,-4,0,6,21,-22,4
1532373697051,-20,-4,2,-1,-10,-29,4,-10
1532373697056,-18,0,-5,-2,-1,5,-16,-2
1532373697061,-25,-5,-3,-4,4,-5,48,-10
1532373697066,4,0,-1,-5,-2,26,31,-1
1532373697071,-7,4,30,-8,-7,-13,-52,1
1532373697076,-13,-4,-12,-5,0,-57,33,-1
1532373697081,5,27,33,-1,-11,46,47,14
1532373697086,-11,-43,-101,-12,-8,-54,117,-11
1532373697091,5,18,99,11,9,35,127,6
1532373697096,0,13,-67,6,-2,-28,92,5
1532373697101,-25,-22,4,-10,-2,-24,40,-15
1532373697106,10,9,39,9,20,76,-19,24
1532373697111,-8,4,-13,-3,-7,-2,-64,-10
1532373697116,-1,0,22,-2,2,41,-92,3
1532373697121,-8,8,-3,6,2,41,-90,18
1532373697126,84,3,47,-7,-9,6,-83,56
1532373697131,-26,-35,-35,-11,-12,-14,-1,-35
1532373697136,-8,-4,28,3,20,44,-3,-2
1532373697141,5,21,65,10,-6,-24,-1,3
1532373697146,-8,-9,-78,-3,9,6,-1,7
1532373697151,0,17,16,-3,-6,4,-1,-17
1532373697156,-22,-10,-6,-5,-19,-16,-1,-6
1532373697161,-15,-10,-33,-6,10,9,-1,5
1532373697166,-2,-1,15,0,-6,3,-1,3
1532373697171,-14,-5,-1,0,11,55,-1,-4
1532373697176,-1,19,62,7,-7,-17,-1,16
1532373697181,38,-40,-88,-13,8,3,-1,10
1532373697186,-31,7,-13,0,-7,-1,-1,3
1532373697191,1,-4,15,-1,-1,-22,-1,0
1532373697196,-27,-1,-35,-12,-5,-24,-1,-11
1532373697201,42,29,106,15,4,-33,-1,47
1532373697206,-56,-17,-73,7,10,40,-1,-1
1532373697211,1,-9,-14,-2,31,36,-1,-15
1532373697216,-14,11,31,6,-1,7,-1,-11
1532373697221,-33,-1,6,-1,-20,-12,-1,-12
1532373697226,15,-1,-5,-1,-10,-53,-1,-3
1532373697231,15,7,18,2,6,5,-49,8
1532373697236,-6,-3,-12,-6,10,12,-41,-6
1532373697241,1,-1,-23,-1,9,12,-26,3
1532373697246,10,2,26,-5,-20,-16,-33,-10
1532373697251,-24,6,18,1,2,9,6,-34
1532373697256,21,-15,-38,-2,0,-31,20,44
1532373697261,-1,-1,-6,0,-5,-2,-5,5
1532373697266,2,1,33,1,2,7,4,-39
1532373697271,-4,-13,-23,-3,-2,-39,10,35
1532373697276,29,18,52,6,-24,-49,4,40
1532373697281,-30,1,-50,1,19,-3,-6,-53
1532373697286,-4,-60,-31,-13,-1,-29,22,11
1532373697291,6,22,-5,-2,-11,-79,-1,-18
1532373697296,-1,0,-3,3,8,-14,21,9
1532373697301,-8,9,31,-2,0,-1,5,-17
1532373697306,14,8,16,2,-7,-29,-12,0
1532373697311,-1,-12,-33,-4,-5,5,6,-3
1532373697316,-10,-4,4,-5,-4,5,-7,-58
1532373697321,-7,-4,14,-2,-4,-35,3,54
1532373697326,29,17,-16,8,13,77,2,42
1532373697331,1,-1,7,3,-12,16,-3,18
1532373697336,-3,0,-2,-1,3,36,-24,-19
1532373697341,-4,-6,37,0,1,53,-19,-27
1532373697346,4,12,-45,-9,-10,-4,-9,2
1532373697351,-6,-10,9,-4,-8,-30,-16,-16
1532373697356,3,3,-17,1,3,-24,-11,-20
1532373697361,-4,-5,-3,-8,-3,-51,-8,-2
1532373697366,-5,-1,4,1,3,-24,-6,6
1532373697371,-5,1,11,10,-4,-47,-11,-8
1532373697376,-6,12,22,-14,0,43,3,4
1532373697381,-12,-23,-75,-1,-1,26,-10,5
1532373697386,-3,2,6,0,0,26,-5,0
1532373697391,-2,2,13,3,4,3,-5,-6
1532373697396,4,10,17,6,1,6,-2,-6
1532373697401,-3,-11,-26,-7,-5,-14,-35,-3
1532373697406,-3,-7,-1,-3,-5,-4,-22,-10
1532373697411,4,4,5,7,2,3,-4,8
1532373697416,-3,-8,-7,-7,-5,-13,-4,-12
1532373697421,-1,4,4,-1,-6,2,10,2
1532373697426,-1,-3,-6,1,6,2,9,0
1532373697431,2,4,-4,-3,-5,-9,9,3
1532373697436,-2,1,6,3,5,2,14,0
1532373697441,5,-4,2,1,2,-13,5,-7
1532373697446,11,-5,-4,2,-10,2,5,-2
1532373697451,6,2,7,-6,0,0,-1,-10
1532373697456,-1,-11,-11,-2,-4,-6,-9,-12
1532373697461,-3,0,-7,-1,0,6,1,15
1532373697466,-2,9,10,2,2,-6,-1,-11
1532373697471,-1,10,21,13,2,-9,13,33
1532373697476,2,-10,-18,-1,6,10,-4,7
1532373697481,-4,-2,-12,-9,-11,-21,3,-7
1532373697486,-8,-3,-2,-3,0,3,7,-6
1532373697491,-4,2,5,-2,-5,1,-1,-14
1532373697496,-4,-3,-1,7,3,2,3,3
1532373697501,-1,-1,-2,0,4,24,-33,-4
1532373697506,-1,1,-1,-4,-2,-33,-41,-5
1532373697511,-1,-1,1,4,5,27,-27,1
1532373697516,-3,-3,-5,-4,-20,-12,-27,-1
1532373697521,2,2,1,4,24,23,3,2
1532373697526,-3,-1,-1,-7,-2,13,-3,-1
1532373697531,-2,-1,1,1,-7,-11,-2,-1
1532373697536,-3,-2,-3,-6,-5,30,-57,0
1532373697541,0,-1,0,2,-6,-38,-112,2
1532373697546,0,-2,-1,-1,-2,8,-128,3
1532373697551,3,-2,-2,3,3,-21,-86,0
1532373697556,1,-2,-1,-1,-5,-25,-122,1
1532373697561,-12,-18,-37,-6,11,-6,-43,-2
1532373697566,21,11,15,1,0,7,-28,-3
1532373697571,-34,-6,-4,0,-3,-2,-14,-7
1532373697576,15,0,1,3,-5,-29,11,8
1532373697581,0,0,13,2,0,18,-2,12
1532373697586,-2,-3,-4,-4,1,-35,-13,-10
1532373697591,18,2,4,8,6,40,3,-8
1532373697596,19,5,-4,-9,-28,-14,6,0
1532373697601,0,-1,6,4,10,-20,-9,-1
1532373697606,-8,-1,4,10,14,-5,-10,-9
1532373697611,6,5,-4,-7,2,30,-12,6
1532373697616,-7,0,-2,-3,-21,-13,-19,13
1532373697621,-14,-3,-6,0,27,2,-76,-1
1532373697626,1,5,11,-1,-1,-5,-123,2
1532373697631,-13,-3,-2,1,5,37,-38,10
1532373697636,-10,-2,-5,-1,-4,3,-56,-16
1532373697641,-12,-2,-1,6,4,61,-8,7
1532373697646,-9,-2,-3,-3,12,-27,-109,8
1532373697651,-5,1,-1,1,-4,9,-124,-1
1532373697656,-4,-3,-1,-2,-12,-90,-128,6
1532373697661,-3,-4,-2,-3,-10,-34,-45,6
1532373697666,30,-6,-8,0,-14,-43,51,4
1532373697671,40,-6,-2,0,-8,-26,88,14
1532373697676,-2,-6,-2,-2,-13,0,105,-6
1532373697681,-3,-4,-2,0,-3,-38,84,5
1532373697686,-27,-4,-2,1,5,71,86,-2
1532373697691,-17,4,6,5,-1,34,70,8
1532373697696,-24,1,1,-3,5,35,61,17
1532373697701,-1,-3,-3,-1,-8,-33,8,-2
1532373697706,2,-3,1,4,-7,25,8,7
1532373697711,2,1,1,-6,-12,-21,-7,-7
1532373697716,13,2,1,0,5,9,2,3
1532373697721,-11,-2,1,0,-4,4,-1,8
1532373697726,-12,-2,0,3,8,-17,-9,-14
1532373697731,-3,-2,-3,-7,-16,-6,-11,6
1532373697736,-5,-3,0,0,10,4,-16,-3
1532373697741,6,0,-4,-4,-4,-14,-22,-2
1532373697746,0,4,2,8,10,12,7,19
1532373697751,1,-2,-3,1,-1,14,-20,7
1532373697756,12,0,1,-6,-13,-20,-20,-1
1532373697761,3,2,4,0,6,35,7,6
1532373697766,-2,2,2,1,-2,-5,0,6
1532373697771,7,2,3,4,0,-20,-9,2
1532373697776,-3,-2,-4,-4,-1,0,-9,3
1532373697781,1,-3,0,-2,-9,-4,-2,3
1532373697786,-2,-1,-2,2,1,0,-10,-3
1532373697791,-1,0,1,0,1,10,-6,5
1532373697796,-3,-1,-2,1,-2,5,-4,-6
1532373697801,-1,0,-3,1,3,11,-12,-9
1532373697806,-4,-3,-2,-6,-7,0,-12,1
1532373697811,0,-3,-2,-4,0,-4,-6,1
1532373697816,-1,0,1,-2,-1,-31,-13,3
1532373697821,1,-3,0,1,-7,1,-11,-2
1532373697826,0,1,2,4,13,77,9,0
1532373697831,-1,-2,-1,-2,-7,-22,-11,-4
1532373697836,4,-1,-1,0,7,-2,-13,6
1532373697841,-2,-3,-2,-3,-6,-16,-27,-11
1532373697846,-1,0,-1,3,-2,-2,-23,-6
1532373697851,-2,-1,-2,-5,-3,0,-17,4
1532373697856,4,0,3,1,4,8,-5,0
1532373697861,1,2,2,4,2,-4,-7,4
1532373697866,-5,-2,-2,-3,-7,-21,-23,-8
1532373697871,-5,0,-1,-4,-10,-1,-77,-4
1532373697876,-1,-3,-2,5,8,33,-94,0
1532373697881,6,1,-6,3,9,24,-2,1
1532373697886,-1,0,-3,-5,-19,-36,-13,-10
1532373697891,-1,1,3,-1,7,44,-4,10
1532373697896,8,3,7,0,-6,4,-2,8
1532373697901,5,3,-2,2,12,4,-4,5
1532373697906,-12,-6,-4,-6,-12,-8,-9,-12
1532373697911,-2,1,4,-2,-10,-17,-3,1
1532373697916,-4,-3,-3,-3,5,31,-8,-1
1532373697921,7,1,-1,3,5,7,5,14
1532373697926,3,2,1,-2,-5,1,-3,-1
1532373697931,-5,0,3,5,11,35,-10,-5
1532373697936,-6,-2,-1,-2,-9,-28,-13,2
1532373697941,-1,-2,-2,-1,3,15,-37,-6
1532373697946,3,-1,0,3,-1,-20,-15,8
1532373697951,-2,-5,-6,-2,0,-2,0,4
1532373697956,7,-1,-2,-2,-3,-1,11,-4
1532373697961,-20,3,1,2,-3,-23,19,-13
1532373697966,-6,-3,-3,-2,-10,-16,18,-4
1532373697971,-6,-2,-1,-2,-3,-12,9,-3
1532373697976,0,-3,2,0,8,8,8,0
1532373697981,4,0,0,0,3,5,-19,0
1532373697986,-9,-4,-4,-3,-9,-9,-32,-5
1532373697991,1,2,-1,1,0,-1,-113,4
1532373697996,8,-1,-1,0,-3,-5,-116,1
1532373698001,3,-4,-3,-2,-8,-16,-35,4
1532373698006,2,-2,-2,-3,-8,-6,28,0
1532373698011,-3,-4,-1,0,-2,9,92,-1
1532373698016,1,1,1,2,-2,-14,92,2
1532373698021,3,-2,-1,-3,6,34,66,2
1532373698026,-6,-2,-1,-1,0,-6,59,-2
1532373698031,6,-3,1,2,8,17,63,-1
1532373698036,-27,-1,1,0,-1,-3,52,-4
1532373698041,-3,1,-1,1,1,8,7,-3
1532373698046,8,3,-2,0,4,15,17,2
1532373698051,-4,-1,-2,-3,-2,-9,5,-2
1532373698056,4,2,-1,-3,2,2,-7,-4
1532373698061,1,0,-1,-3,2,4,8,-5
1532373698066,-4,-2,-2,-4,-4,-10,10,-1
1532373698071,0,0,-2,-1,1,-3,-1,4
1532373698076,-16,0,0,2,2,-13,-3,-8
1532373698081,3,-1,0,-2,-3,-20,5,-2
1532373698086,5,0,2,2,2,-1,3,3
1532373698091,2,0,1,2,1,1,-2,-1
1532373698096,-5,-1,-2,-2,-3,-24,-1,0
1532373698101,-4,0,-2,2,4,33,1,2
1532373698106,9,1,-1,-1,0,-7,1,-6
1532373698111,3,-4,-1,-11,-11,-5,-6,1
1532373698116,0,-2,1,9,14,3,-6,1
1532373698121,0,0,-1,1,0,-11,-2,0
1532373698126,3,-2,-3,-4,-3,-16,-6,-2
1532373698131,-4,1,-4,3,5,2,-3,1
1532373698136,-3,-1,-2,-4,-4,-4,-10,0
1532373698141,1,-1,1,-3,-3,-1,-9,-3
1532373698146,0,-2,1,0,1,-2,-2,0
1532373698151,8,-2,2,0,-2,-19,-3,1
1532373698156,5,-1,0,-1,-6,-4,-10,-1
1532373698161,-1,0,-2,-1,0,-27,-1,-1
1532373698166,-1,0,-2,2,4,-27,-3,1
1532373698171,-5,0,-1,-3,-8,7,-8,0
1532373698176,-1,0,-3,-3,0,11,-5,2
1532373698181,1,-1,-2,-3,-2,-25,-87,-1
1532373698186,2,-3,-2,-1,-4,30,-29,-6
1532373698191,-10,-3,-1,-1,-5,-8,9,-8
1532373698196,-16,0,0,1,5,1,28,0
1532373698201,18,-2,-1,-3,-1,-8,15,-1
1532373698206,4,1,0,2,0,-22,20,-2
1532373698211,0,0,-2,0,0,1,9,-3
1532373698216,-1,-2,-3,-1,-4,-10,-41,-5
1532373698221,-4,-1,-3,-1,-3,2,-110,-4
1532373698226,-3,-1,-2,-1,-1,-14,-121,-2
1532373698231,3,-1,0,2,-4,-8,-38,1
1532373698236,3,0,-1,-4,-10,-42,29,-2
1532373698241,-4,-2,-2,1,10,56,61,1
1532373698246,2,0,-1,-1,-2,-11,59,-1
1532373698251,-3,0,-1,-2,-4,-23,57,-1
1532373698256,5,-2,-2,1,-1,12,42,0
1532373698261,-3,-1,0,-1,-8,-36,37,-3
1532373698266,-6,-1,0,0,-5,1,39,-2
1532373698271,6,-1,1,3,7,24,30,2
1532373698276,0,0,-1,-1,2,-10,13,-1
1532373698281,-3,-2,-1,0,-2,-3,11,-5
1532373698286,-2,1,-1,1,4,17,21,1
1532373698291,-1,1,-1,-1,-3,-5,9,-2
1532373698296,1,0,0,0,0,25,-2,-2
1532373698301,-4,1,-2,2,1,-4,36,-1
1532373698306,1,1,0,-1,0,-27,39,-2
1532373698311,-1,1,-1,-2,4,43,30,-1
1532373698316,0,2,0,0,10,24,44,2
1532373698321,-2,-1,-2,-1,-3,-11,37,1
1532373698326,0,1,1,0,4,29,36,0
1532373698331,0,2,-3,-2,-3,-17,25,1
1532373698336,0,-2,-1,0,-3,1,15,0
1532373698341,-5,1,-2,0,3,-2,-25,1
1532373698346,3,0,-1,1,-8,-38,-19,1
1532373698351,1,2,-1,1,1,-7,6,0
1532373698356,1,-1,1,4,5,23,6,4
1532373698361,-4,0,0,0,-2,7,-1,-2
1532373698366,-1,-3,-2,-2,-4,6,-5,1
1532373698371,-1,1,-1,1,0,2,9,0
1532373698376,0,0,1,1,0,-1,-1,-2
1532373698381,0,-2,0,-1,-3,-16,0,1
1532373698386,-1,-2,0,-2,4,12,8,-1
1532373698391,1,-2,-1,-1,2,-3,3,-2
1532373698396,0,-1,-1,-2,-3,-2,0,0
1532373698401,0,-1,1,2,2,-2,4,2
1532373698406,-2,-2,0,0,-2,-10,-3,-3
1532373698411,-2,0,1,2,0,8,8,0
1532373698416,0,-1,-1,-1,-1,-4,2,-6
1532373698421,-1,-1,-1,-1,0,1,-3,0
1532373698426,0,-1,-4,-6,-3,-11,-9,-2
1532373698431,-1,-2,-2,-3,1,29,-2,-2
1532373698436,-1,-1,0,0,1,-34,2,2
1532373698441,0,-1,-3,-4,5,-28,-6,-1
1532373698446,0,-1,-2,-2,-1,8,-3,-1
1532373698451,1,-1,1,0,-1,10,6,2
1532373698456,-1,0,0,1,5,1,3,-1
1532373698461,0,1,-2,0,4,-12,-4,-2
1532373698466,-2,-2,-3,1,3,34,2,-1
1532373698471,-1,-1,-2,-6,-1,21,0,-2
1532373698476,1,0,1,0,1,4,3,1
1532373698481,0,0,-1,-3,-7,-11,-2,1
1532373698486,0,-2,1,-3,-3,-12,-4,-1
1532373698491,-2,-1,-1,0,0,-2,-8,-2
1532373698496,-2,-1,-1,1,-4,-8,-3,-4
1532373698501,1,-1,-2,-2,-2,0,-2,-2
1532373698506,-1,-1,0,-1,-2,-10,-4,-1
1532373698511,-1,-1,-2,1,-1,5,2,2
1532373698516,-2,0,-1,0,5,0,1,-1
1532373698521,0,-1,-1,0,-1,1,3,0
1532373698526,-2,-1,-1,-1,0,-11,-3,-3
1532373698531,-2,-2,1,1,-3,-5,-1,-1
1532373698536,0,3,-1,-5,-4,-16,-3,-1
1532373698541,-2,-4,1,-1,1,34,5,0
1532373698546,0,0,-1,-2,-8,-26,-2,0
1532373698551,-2,-1,0,0,7,-7,-7,0
1532373698556,1,1,0,3,0,8,7,2
1532373698561,-1,0,-2,-4,-1,3,-7,-1
1532373698566,0,-1,-2,-2,-6,0,-4,1
1532373698571,0,-1,1,1,-7,-6,-4,-4
1532373698576,-3,-3,-2,-3,-7,-1,-19,-5
1532373698581,0,0,1,2,11,28,17,2
1532373698586,-1,-3,0,1,1,3,-2,-1
1532373698591,0,1,-2,0,-4,-11,-48,-1
1532373698596,1,-4,0,0,-4,-12,-36,-1
1532373698601,-2,-1,-1,-3,-7,-4,-23,-5
1532373698606,-2,1,2,3,7,7,3,0
1532373698611,-3,-2,0,0,-5,8,25,0
1532373698616,-3,-1,-1,2,16,2,12,-1
1532373698621,0,-1,-2,-6,-9,-10,5,-2
1532373698626,0,-2,-3,-2,-2,-1,7,-1
1532373698631,0,-3,-2,-4,-6,-16,8,-3
1532373698636,-2,-1,-2,-2,-5,-24,6,-2
1532373698641,-2,3,2,0,3,29,13,1
1532373698646,0,-1,-1,-1,-6,-25,-3,0
1532373698651,-2,1,0,2,5,42,9,-2
1532373698656,0,-2,0,-2,0,-5,7,0
1532373698661,0,1,0,-1,2,21,27,-1
1532373698666,1,0,1,-3,-10,-21,12,-2
1532373698671,-1,-1,-2,4,5,-3,7,-1
1532373698676,0,0,-1,-3,-8,-9,6,-1
1532373698681,0,-1,-3,-1,12,6,11,0
1532373698686,-1,1,-1,-1,1,-10,-6,-1
1532373698691,-1,-1,-4,-4,-7,-25,-12,-2
1532373698696,-1,0,1,0,3,25,13,-1
1532373698701,-2,-1,0,1,-7,-25,-3,1
1532373698706,-1,1,0,-5,0,27,-9,-2
1532373698711,0,1,0,1,5,-22,3,1
1532373698716,-3,1,-3,0,-3,4,2,0
1532373698721,0,-2,-1,-4,-12,-31,-12,-3
1532373698726,-2,-2,-1,0,13,52,-8,-2
1532373698731,1,-1,1,3,-2,-7,2,2
1532373698736,0,-2,0,-4,-7,-2,-6,-1
1532373698741,-2,1,1,0,1,-13,-6,-2
1532373698746,-1,-2,-4,0,-9,-10,-2,1
1532373698751,-1,0,-1,-2,0,24,-7,-3
1532373698756,-1,-1,0,1,10,-2,-1,-1
1532373698761,1,1,1,2,-2,5,-3,-1
1532373698766,0,-1,1,1,-1,-10,-5,0
1532373698771,-2,0,-1,-2,-4,18,-3,-1
1532373698776,-2,0,-1,-3,-6,-21,-3,-1
1532373698781,-2,-2,-1,-2,8,20,5,0
1532373698786,-1,-1,0,0,-2,-25,-1,0
1532373698791,-1,0,-1,-2,-4,-3,-2,-2
1532373698796,-1,-1,-2,-3,-1,0,-2,0
1532373698801,-1,-2,-3,-2,-1,19,7,1
1532373698806,3,2,1,1,1,-18,-5,1
1532373698811,0,-3,0,-3,-10,-12,-3,-3
1532373698816,0,0,-2,0,-4,-1,-1,-1
1532373698821,-1,-1,-2,-1,0,0,2,0
1532373698826,2,1,-3,-2,-2,-34,0,-1
1532373698831,-3,-2,-2,-3,-6,-21,-6,-1
1532373698836,-1,-1,0,1,-10,2,-1,-1
1532373698841,0,0,1,0,5,-12,-2,-2
1532373698846,-2,-1,-2,0,-3,-15,-4,-4
1532373698851,-1,-3,1,1,-2,33,4,0
1532373698856,-1,-1,-2,-1,-2,-20,1,-1
1532373698861,-1,-1,-2,-5,-2,2,-1,0
1532373698866,0,0,0,2,0,14,3,2
1532373698871,-1,-1,-2,-2,7,-12,0,-1
1532373698876,-1,-1,0,1,0,6,0,0
1532373698881,0,0,-1,1,6,16,3,1
1532373698886,1,-1,-2,-3,-6,-18,-3,-1
1532373698891,0,0,0,2,0,-5,1,-2
1532373698896,-1,-2,-1,-1,-2,-17,0,-1
1532373698901,0,-1,-3,-1,0,5,0,-4
1532373698906,0,-2,-1,-2,-1,2,-8,-2
1532373698911,0,0,0,-2,-7,-18,-1,1
1532373698916,-1,-2,-1,1,4,18,2,-3
1532373698921,-2,0,-1,-3,-8,-11,-5,1
1532373698926,1,-1,-2,-2,0,-3,-4,0
1532373698931,-2,-1,-1,-2,-4,-1,-5,-3
1532373698936,-1,-2,0,0,4,3,-3,1
1532373698941,-1,0,0,-2,-4,-21,-7,-2
1532373698946,-1,-1,1,4,12,30,5,0
1532373698951,0,2,1,0,3,-3,-1,-1
1532373698956,-2,-1,-1,-1,-9,16,-4,-4
