1532466841527,-2,-5,0,-1,-1,-3,-15,-8
1532466841532,4,0,-1,-2,-3,1,19,9
1532466841537,-7,-1,-3,-1,4,-1,-23,-11
1532466841542,2,2,-2,1,-1,1,2,4
1532466841547,9,-1,0,-1,-1,2,-5,1
1532466841552,-10,-4,0,0,-3,-4,6,-5
1532466841557,1,8,0,1,2,-4,0,0
1532466841562,0,-3,-1,-1,-2,-1,0,2
1532466841567,0,7,-1,0,0,5,5,1
1532466841572,-1,-2,-2,-1,0,-5,-17,-3
1532466841577,-2,-3,-2,-5,0,1,10,2
1532466841582,3,-1,0,-3,-5,-3,0,-1
1532466841587,1,2,-1,0,1,-3,-3,1
1532466841592,3,-10,-4,-2,-2,1,-4,-4
1532466841597,-10,2,1,1,-1,-10,0,-2
1532466841602,-1,-2,-2,-1,-3,2,4,-1
1532466841607,9,-3,-1,-1,0,1,-4,1
1532466841612,-17,4,-1,0,-2,0,0,-3
1532466841617,1,-4,0,-2,1,3,5,2
1532466841622,0,-3,1,1,2,3,0,-2
1532466841627,-3,7,-1,0,0,-4,22,-3
1532466841632,-6,-3,-2,-2,-2,1,24,-1
1532466841637,4,0,0,1,1,3,-2,1
1532466841642,-6,-2,-2,-1,-1,-4,-10,-3
1532466841647,-5,-3,-1,-2,-1,-6,-13,0
1532466841652,-3,-2,-2,-4,-6,2,-5,0
1532466841657,12,0,0,-1,-1,-8,-11,-1
1532466841662,-3,-4,0,0,2,4,-33,-3
1532466841667,-1,-1,-1,1,1,-1,-23,0
1532466841672,-2,2,0,1,1,-1,-12,-2
1532466841677,1,-1,-1,-1,-2,4,11,1
1532466841682,4,1,-1,-1,-2,-3,10,-3
1532466841687,-4,-5,-1,-1,0,2,8,-1
1532466841692,-1,1,-2,-3,-2,2,3,-1
1532466841697,1,-4,-1,1,2,-6,7,-1
1532466841702,1,-1,-3,2,-2,1,28,-1
1532466841707,-2,6,0,1,-2,-3,-10,0
1532466841712,4,0,-1,5,13,1,-6,2
1532466841717,-6,-2,-2,-8,-16,1,-8,-2
1532466841722,0,1,0,2,-2,-1,-41,0
1532466841727,1,-4,2,4,12,1,-9,-1
1532466841732,2,-1,-2,-16,-10,-7,-5,-2
1532466841737,-3,0,3,10,-3,0,16,0
1532466841742,0,-3,-7,-16,-7,-8,30,4
1532466841747,-5,-3,-3,-11,-14,-1,19,-2
1532466841752,3,1,1,5,1,-3,0,-1
1532466841757,-4,5,-3,0,4,3,-2,0
1532466841762,-3,-4,2,4,2,1,3,-1
1532466841767,-5,-2,0,5,8,0,15,-4
1532466841772,2,1,-2,0,-2,-1,16,0
1532466841777,-1,0,-7,0,-3,1,4,1
1532466841782,0,7,11,1,5,0,-8,-4
1532466841787,9,-5,-2,-7,-2,4,-11,0
1532466841792,-12,-1,2,4,-4,-5,-5,0
1532466841797,-6,-2,0,0,-1,-2,-6,-1
1532466841802,-2,4,-3,3,5,0,-11,-2
1532466841807,-6,-6,-3,1,-4,-3,-8,0
1532466841812,4,-1,-1,-5,-3,2,-4,-2
1532466841817,-4,-11,1,-6,1,1,-5,-2
1532466841822,-1,4,-3,-3,-4,-4,7,2
1532466841827,1,6,0,0,-4,-2,-2,1
1532466841832,1,-2,-3,5,4,-6,-8,-3
1532466841837,12,1,-2,-2,8,1,-1,1
1532466841842,-29,-2,0,-1,1,-2,-2,-5
1532466841847,7,9,-3,1,-2,7,7,0
1532466841852,-9,-6,10,3,-3,2,-2,2
1532466841857,4,3,-10,-10,-4,1,-2,-3
1532466841862,4,-14,8,0,-5,2,3,3
1532466841867,-8,-5,-10,-5,-7,-12,-12,-6
1532466841872,11,4,-12,-9,-2,2,3,3
1532466841877,-8,2,-2,2,2,1,-1,-5
1532466841882,5,8,-7,0,-3,1,0,1
1532466841887,-3,-4,5,4,4,8,8,5
1532466841892,9,0,-1,2,0,2,1,-2
1532466841897,0,-15,1,3,-2,-2,-1,4
1532466841902,5,1,1,-1,0,-4,-3,-7
1532466841907,-4,3,1,-4,-4,-9,-3,-5
1532466841912,0,-4,6,1,-1,-2,-2,0
1532466841917,0,-5,-3,-1,1,-1,0,2
1532466841922,-26,0,-1,3,4,5,4,0
1532466841927,-4,-4,-4,-2,-1,0,7,-3
1532466841932,0,4,10,2,0,2,2,-1
1532466841937,3,2,5,-3,-4,-1,-5,-3
1532466841942,12,-4,-5,-1,0,-2,-2,2
1532466841947,8,1,-1,0,-3,-1,-13,0
1532466841952,-16,1,-3,3,2,0,-11,0
1532466841957,1,2,-1,0,0,-3,2,-3
1532466841962,2,-3,2,-5,-5,-4,-3,-3
1532466841967,3,-1,2,2,3,2,9,6
1532466841972,5,-1,-6,0,-1,0,8,-3
1532466841977,-7,-2,1,2,2,3,2,1
1532466841982,7,2,-3,-3,-1,0,1,-1
1532466841987,1,0,1,-3,0,-5,-2,-2
1532466841992,2,-6,-1,-2,-4,-3,-5,-1
1532466841997,-1,4,1,1,2,-1,-2,-1
1532466842002,5,-5,-3,0,1,0,5,0
1532466842007,-3,-1,1,0,-2,3,1,-1
1532466842012,0,-4,0,0,2,4,3,-2
1532466842017,-10,-4,-1,-3,-3,0,0,-2
1532466842022,4,-2,-3,-1,-1,-2,2,-3
1532466842027,-3,1,1,-1,-2,-5,-1,0
1532466842032,-1,-2,-2,0,0,-3,-2,-1
1532466842037,1,3,4,3,0,1,3,-1
1532466842042,3,-4,-2,0,2,2,-1,0
1532466842047,-4,-4,-5,-9,-3,-4,-3,-4
1532466842052,-1,-4,-2,-1,-3,1,2,0
1532466842057,-1,2,0,-4,-10,-7,-1,-1
1532466842062,1,3,-1,-1,-4,-1,1,1
1532466842067,-2,-6,0,2,1,-3,1,-1
1532466842072,1,8,1,0,3,0,-1,-4
1532466842077,-2,-8,-2,-2,-2,0,-3,0
1532466842082,-4,-4,-2,0,0,1,-2,-1
1532466842087,0,-2,0,2,1,2,2,4
1532466842092,-2,0,-2,-4,-9,-6,-3,1
1532466842097,-1,3,2,3,9,-4,-1,-3
1532466842102,-1,-7,-3,-5,-5,0,3,5
1532466842107,3,2,-1,1,-2,8,-5,-5
1532466842112,3,2,-3,-5,-6,-7,-4,1
1532466842117,3,14,3,2,0,-2,0,1
1532466842122,-2,-2,-1,1,2,-3,-1,-3
1532466842127,-6,-3,-2,-4,-1,-1,2,0
1532466842132,-4,-5,0,0,0,-3,-5,-7
1532466842137,-1,-2,-1,-1,-4,1,-1,-2
1532466842142,-4,-3,-1,-1,0,-3,-2,-2
1532466842147,5,-4,1,-1,3,0,6,2
1532466842152,2,9,1,-1,-2,4,-1,0
1532466842157,-2,-19,-3,-3,-2,-1,-4,3
1532466842162,-8,5,0,0,-2,-3,-1,-6
1532466842167,15,1,0,1,2,1,-4,3
1532466842172,-27,1,6,1,5,0,9,0
1532466842177,5,4,-6,-5,-3,-1,-8,5
1532466842182,-6,-8,-1,-1,0,-4,-5,-8
1532466842187,0,2,1,3,-3,-5,-3,-2
1532466842192,4,-3,-1,-1,-3,6,-5,-2
1532466842197,3,1,-1,1,1,-15,3,2
1532466842202,2,2,0,-4,-2,0,-1,1
1532466842207,-13,1,0,-2,-3,-4,-9,-7
1532466842212,9,-3,-1,3,2,3,10,6
1532466842217,-4,-5,1,0,2,6,-6,0
1532466842222,7,0,-2,-2,-1,10,13,4
1532466842227,-9,-3,-2,-3,3,-8,-22,-16
1532466842232,4,-3,-2,-1,-4,-5,-10,0
1532466842237,-4,0,-1,-3,0,-1,-1,-7
1532466842242,0,2,3,0,-4,5,-4,1
1532466842247,-2,-2,-1,0,-5,3,5,3
1532466842252,-1,-1,-1,5,6,4,1,0
1532466842257,-1,-2,-3,-4,9,-8,-6,-3
1532466842262,5,2,-2,-4,-11,5,11,-3
1532466842267,-4,-2,1,1,1,-3,8,1
1532466842272,2,0,-3,-1,-1,-4,7,2
1532466842277,-3,-1,4,5,-1,8,-4,1
1532466842282,0,0,0,-2,2,-16,-5,-9
1532466842287,-3,-6,-4,-3,-2,-10,10,-1
1532466842292,-3,1,0,-3,-3,-4,1,-6
1532466842297,0,-2,0,-1,3,4,11,-1
1532466842302,1,1,1,3,-1,-5,-17,1
1532466842307,0,1,0,-2,0,2,8,6
1532466842312,-1,-2,-4,-7,-6,-5,-9,-3
1532466842317,-1,-3,-1,0,-2,7,5,4
1532466842322,2,0,-2,-1,2,2,-6,1
1532466842327,1,4,2,3,-2,-6,-13,-5
1532466842332,-2,-9,-1,0,0,-2,-4,1
1532466842337,0,8,-3,-5,-5,4,-19,-5
1532466842342,-3,1,1,2,0,-2,-1,-7
1532466842347,0,0,-1,0,-1,8,14,9
1532466842352,3,3,2,-2,0,-4,-13,-2
1532466842357,0,0,0,0,-2,-2,27,0
1532466842362,1,-6,-4,0,5,2,-15,4
1532466842367,-1,0,1,-1,-3,1,11,2
1532466842372,-1,0,1,3,3,2,13,-11
1532466842377,1,-4,-1,-1,-2,0,0,11
1532466842382,3,2,1,0,0,2,6,3
1532466842387,-2,-1,-1,0,0,1,-2,-1
1532466842392,0,-4,-3,-1,1,-5,7,2
1532466842397,-2,0,1,2,-1,-3,4,-3
1532466842402,-4,-1,-1,-3,-4,-5,-19,-5
1532466842407,2,-3,0,-2,0,4,-3,6
1532466842412,0,1,0,-2,0,-3,3,-6
1532466842417,-1,0,-2,-3,-1,-1,-11,-1
1532466842422,-3,-4,-4,-1,-3,0,5,-1
1532466842427,1,-2,0,0,4,0,-22,-3
1532466842432,-1,0,-1,-2,0,1,16,-4
1532466842437,0,-1,0,-1,-4,-4,-29,-1
1532466842442,-2,-3,-2,-3,-5,0,47,10
1532466842447,-7,-3,-4,-2,-4,-18,-48,-32
1532466842452,-1,-2,1,-1,1,-3,-33,-1
1532466842457,1,0,-1,2,-1,8,14,11
1532466842462,0,-2,1,0,1,5,11,1
1532466842467,0,0,-1,-2,-1,4,11,16
1532466842472,-4,-1,-3,0,-1,-4,-26,-9
1532466842477,-5,-3,-2,-1,-2,-5,27,-14
1532466842482,2,3,0,1,3,-2,-43,-5
1532466842487,0,0,0,-2,-4,2,51,0
1532466842492,3,-2,-4,-1,0,-2,-4,8
1532466842497,-1,0,-1,0,0,-3,-8,-8
1532466842502,1,3,0,0,2,1,15,7
1532466842507,-2,-7,-2,2,8,2,-22,-8
1532466842512,1,0,0,-1,-10,5,27,0
1532466842517,-2,0,1,-1,-1,0,-7,-1
1532466842522,0,-2,2,1,3,-3,-5,-5
1532466842527,-2,-1,-2,-3,-6,-5,0,10
1532466842532,0,1,1,-1,3,5,6,0
1532466842537,-1,-2,-2,0,-8,-9,-10,-1
1532466842542,1,0,0,-2,-5,-4,21,-4
1532466842547,2,2,1,1,6,4,-11,7
1532466842552,-3,3,-1,-1,-1,-3,-27,-2
1532466842557,-1,-8,0,-1,1,1,2,-1
1532466842562,-2,-1,0,2,2,-2,-10,-3
1532466842567,3,2,1,-1,0,9,30,5
1532466842572,-1,-4,-2,0,-2,-1,-12,-1
1532466842577,0,0,-1,0,5,-8,-10,-9
1532466842582,-2,-1,-1,-3,-10,0,-1,4
1532466842587,-2,-1,-3,-3,1,2,9,-4
1532466842592,1,0,0,6,21,5,10,14
1532466842597,-1,0,-4,-10,-48,-29,23,5
1532466842602,-2,-3,-3,-7,-2,9,-16,-20
1532466842607,1,1,0,0,4,-1,-26,-3
1532466842612,-3,-2,-2,-1,1,2,5,-5
1532466842617,1,1,0,3,12,6,10,4
1532466842622,1,1,-1,2,8,5,-2,9
1532466842627,-3,0,-3,-1,-15,-15,-29,-6
1532466842632,-2,-3,-4,-4,-5,-3,10,4
1532466842637,-2,-4,0,-1,13,13,-13,-7
1532466842642,-1,1,-1,-1,-10,-10,-1,5
1532466842647,-2,1,-1,1,8,1,29,1
1532466842652,1,-2,0,-2,-9,-4,3,3
1532466842657,-2,1,1,-1,6,2,-6,-2
1532466842662,-2,1,1,2,4,0,0,0
1532466842667,0,-1,0,1,-5,-2,4,3
1532466842672,0,-5,-2,-2,-2,0,5,-2
1532466842677,0,-1,0,-2,0,3,-2,-3
1532466842682,1,-2,-2,1,1,0,3,2
1532466842687,0,0,0,0,-1,0,4,2
1532466842692,-1,-1,-3,-1,0,4,6,2
1532466842697,1,4,-3,-3,-7,-13,-17,-5
1532466842702,3,-4,2,4,7,13,28,4
1532466842707,-5,-6,-3,-2,-4,-6,-33,-6
1532466842712,-1,3,0,2,1,-3,25,5
1532466842717,-11,-2,-1,-1,-6,-7,-5,-8
1532466842722,11,0,-1,0,8,14,9,8
1532466842727,-10,-9,0,1,3,10,9,-3
1532466842732,-11,2,1,1,-2,-9,-21,-2
1532466842737,-2,-2,-4,-1,-2,-14,-4,-3
1532466842742,-1,2,-1,-3,-7,-9,1,-6
1532466842747,1,1,0,0,3,7,-4,-2
1532466842752,3,-3,-2,-4,-6,-3,-6,2
1532466842757,3,4,2,5,4,5,11,5
1532466842762,-8,-2,-3,-4,-1,-11,-20,-4
1532466842767,6,2,-1,-1,-2,2,13,0
1532466842772,-1,-1,-2,-5,-8,-1,-1,-4
1532466842777,4,4,1,1,5,10,3,1
1532466842782,-4,-4,0,1,2,-1,-1,-1
1532466842787,-3,-1,-1,-4,-5,-2,0,-3
1532466842792,0,-1,-3,-1,-1,-4,-4,-2
1532466842797,-9,0,-1,0,3,-1,-3,0
1532466842802,12,5,0,0,-4,-9,-5,1
1532466842807,1,6,-1,-3,-2,-4,4,-3
1532466842812,3,-2,1,0,2,6,-1,4
1532466842817,-1,-1,-2,-1,1,5,5,-1
1532466842822,-3,-4,0,-2,-4,-5,-5,-2
1532466842827,3,-1,-1,-1,1,-3,-2,-1
1532466842832,-1,0,0,1,0,0,-5,-4
1532466842837,2,-5,0,-4,0,0,-2,3
1532466842842,-4,0,1,2,2,2,9,0
1532466842847,0,-3,-2,-1,1,-3,-5,-1
1532466842852,-3,-2,-2,-4,2,-2,2,-3
1532466842857,3,-1,3,2,1,5,4,1
1532466842862,-4,-1,-2,1,-1,-3,-9,-4
1532466842867,-2,0,-1,-1,-2,-6,-5,-2
1532466842872,1,0,1,2,-3,-1,-19,-1
1532466842877,2,-3,-3,-3,2,0,-17,0
1532466842882,-4,0,-2,-4,-1,-3,-15,-2
1532466842887,-1,0,-2,-2,-3,-4,-10,0
1532466842892,4,7,-2,-2,-3,-2,1,-2
1532466842897,-7,-10,-2,2,0,4,7,-1
1532466842902,-1,0,0,1,1,-3,4,-1
1532466842907,2,-1,1,0,2,2,18,1
1532466842912,-5,-5,-1,-1,-1,1,-13,-3
1532466842917,6,1,-2,-4,-2,2,-3,-1
1532466842922,-3,3,-2,-2,-1,0,-3,-1
1532466842927,-1,0,0,-1,0,0,14,-2
1532466842932,2,0,-2,1,-2,-1,19,-1
1532466842937,0,0,0,1,0,0,12,1
1532466842942,-1,-3,0,1,-3,1,5,-1
1532466842947,0,1,-2,0,3,-1,0,1
1532466842952,-1,0,-1,-3,-3,0,7,0
1532466842957,0,-1,-2,-2,-3,-2,4,-2
1532466842962,0,0,-2,-3,-3,-3,7,-2
1532466842967,-3,-1,-1,0,-3,-2,-7,-4
1532466842972,0,-3,-1,-1,2,0,0,0
1532466842977,0,0,-1,-3,-1,-2,-1,0
1532466842982,-1,-1,1,-1,-1,-1,-3,-8
1532466842987,1,-2,0,-3,-1,1,-3,8
1532466842992,-1,-2,0,1,1,1,-13,-2
1532466842997,0,1,0,1,0,1,1,0
1532466843002,-2,-1,-1,2,-1,-2,5,4
1532466843007,-3,-3,0,-1,0,-3,0,-8
1532466843012,2,-1,-2,-3,-3,-2,2,-1
1532466843017,0,0,0,-2,-3,-3,-4,-2
1532466843022,-2,-3,-1,-1,-2,1,-1,-1
1532466843027,1,0,-1,0,0,-2,0,0
1532466843032,-2,0,1,1,6,5,8,-2
1532466843037,-1,0,-1,-2,2,-1,-6,3
1532466843042,-2,-3,-4,-4,-4,-5,-3,-1
1532466843047,-1,1,-1,-3,-6,-1,-3,-2
1532466843052,0,0,0,3,-1,-10,0,0
1532466843057,0,0,0,0,2,9,-3,-3
1532466843062,-1,-2,-1,2,2,0,0,-1
1532466843067,-1,-1,-2,-3,-4,-1,-7,4
1532466843072,1,0,-1,-3,-4,1,12,6
1532466843077,-2,1,-4,0,-2,-5,-2,-7
1532466843082,3,1,0,0,-1,-5,12,-3
1532466843087,-1,5,0,1,-1,0,11,-5
1532466843092,-7,-7,-2,-1,-1,-1,13,-2
1532466843097,2,5,-1,1,0,1,2,0
1532466843102,9,-8,-3,-2,-2,-3,-11,-1
1532466843107,-31,4,1,1,2,6,2,8
1532466843112,10,2,1,-2,-5,-3,-65,-1
1532466843117,-23,-7,0,2,1,1,4,4
1532466843122,5,16,2,0,-1,-2,-20,-8
1532466843127,16,-4,-1,0,1,7,40,2
1532466843132,-4,-1,-1,-2,-1,4,38,-3
1532466843137,4,0,0,0,0,-11,5,2
1532466843142,-4,-5,-1,-2,-1,-6,4,-2
1532466843147,2,-2,0,1,0,-3,-5,0
1532466843152,-1,2,0,-2,-1,5,-5,-3
1532466843157,7,-2,-1,-1,-2,9,-21,-2
1532466843162,-5,-1,1,2,5,1,-29,3
1532466843167,4,-1,1,-1,-5,-1,-28,0
1532466843172,-2,-2,-1,0,2,-6,-10,-2
1532466843177,0,-3,-2,-2,-3,-2,6,-1
1532466843182,-5,-4,0,-3,-2,2,9,2
1532466843187,-2,-4,-2,-2,-1,-1,13,-3
1532466843192,1,-2,-1,2,1,0,32,-3
1532466843197,0,-1,-3,-5,-1,2,23,-2
1532466843202,-1,1,1,2,-1,0,4,0
1532466843207,2,-2,-2,1,1,-6,-16,-3
1532466843212,0,0,-2,-1,0,-1,-11,0
1532466843217,1,8,1,-1,0,-3,-10,-2
1532466843222,-8,-17,-4,-6,-1,5,-35,3
1532466843227,3,0,0,-6,-7,-3,-25,-5
1532466843232,-1,0,0,3,-3,-2,-10,1
1532466843237,-3,-1,0,2,3,3,4,-2
1532466843242,2,1,1,0,-4,-2,19,0
1532466843247,-1,-1,-2,1,-3,-5,5,-3
1532466843252,-2,-2,-2,-2,-1,-2,6,-1
1532466843257,5,7,0,0,0,-5,1,-1
1532466843262,-3,1,-3,-1,-1,2,11,0
1532466843267,4,-4,-1,0,2,-2,5,2
1532466843272,-18,-3,0,1,0,5,0,-5
1532466843277,0,-6,0,-1,0,-2,0,-1
1532466843282,-1,2,0,1,2,5,5,1
1532466843287,-4,-1,-3,-4,-1,-12,-3,-3
1532466843292,1,0,-3,-5,-2,-5,-4,-1
1532466843297,5,2,-1,-2,-8,-2,-6,2
1532466843302,-7,-9,1,1,-1,4,3,-3
1532466843307,4,0,1,0,4,0,-4,-2
1532466843312,-1,1,-1,-3,-2,0,-4,0
1532466843317,2,-3,-2,-2,-1,-1,-7,1
1532466843322,1,6,0,1,-3,0,4,0
1532466843327,-3,-2,0,1,1,7,0,-2
1532466843332,2,0,-3,-3,-2,-3,2,-1
1532466843337,0,0,0,0,-1,-1,6,1
1532466843342,1,-8,-1,-1,-1,-8,6,0
1532466843347,-5,2,3,-1,1,0,-3,-2
1532466843352,0,-3,-8,-2,0,-4,-13,-1
1532466843357,-1,-3,-1,2,0,5,0,-2
1532466843362,2,3,-1,-2,-1,-1,-7,1
1532466843367,-1,4,0,1,0,-1,-4,-3
1532466843372,1,-9,-1,-2,-3,5,1,-2
1532466843377,-17,8,3,-4,-2,-6,-9,-3
1532466843382,1,-7,-8,-2,1,-4,-1,2
1532466843387,15,-2,3,1,-3,0,0,0
1532466843392,-36,5,12,7,1,-1,1,-3
1532466843397,7,-5,-17,-8,0,-2,3,-2
1532466843402,-11,-4,1,-2,-1,-2,2,-2
1532466843407,-4,7,10,3,-1,0,1,-3
1532466843412,-4,7,-18,-7,0,0,4,6
1532466843417,15,-9,15,4,2,0,-1,6
1532466843422,-31,-12,10,-2,-1,1,7,-10
1532466843427,34,1,-29,-5,-1,-2,-6,4
1532466843432,9,-6,2,4,-2,-6,25,-2
1532466843437,-2,-2,-9,-8,1,1,16,-5
1532466843442,20,15,28,13,-1,0,12,4
1532466843447,-17,-13,-38,-17,-1,4,0,-8
1532466843452,10,-4,3,0,2,-1,-27,-1
1532466843457,-20,4,-7,-1,-2,-1,-13,-7
1532466843462,9,-1,4,-3,1,-1,-8,6
1532466843467,-14,9,21,8,-2,-1,-1,-3
1532466843472,6,-7,-2,-1,0,0,-7,-1
1532466843477,9,-5,2,0,0,5,-13,0
1532466843482,7,7,-10,0,-1,0,-31,-2
1532466843487,-7,0,2,1,3,1,7,12
1532466843492,3,4,1,0,-1,-3,24,-6
1532466843497,1,-5,3,6,1,1,32,6
1532466843502,-8,19,29,5,-2,-2,22,-7
1532466843507,2,0,-36,-18,-4,-1,19,0
1532466843512,-10,-9,1,1,1,1,-9,4
1532466843517,-1,3,13,3,-1,-2,-18,-2
1532466843522,7,3,-2,-2,-2,-3,-9,-1
1532466843527,-28,-1,15,3,-4,-4,-40,-6
1532466843532,60,12,37,10,2,2,-11,4
1532466843537,-61,-14,-58,-12,-4,-1,-19,-4
1532466843542,3,-5,-8,-4,-3,-3,39,-2
1532466843547,12,-5,1,0,0,-2,23,3
1532466843552,6,-1,-3,-3,-4,-1,4,-6
1532466843557,-2,-2,12,4,4,0,22,2
1532466843562,-1,2,-10,2,2,1,-18,10
1532466843567,-28,7,37,4,2,-2,-41,-13
1532466843572,65,10,-24,-8,-3,-1,-23,6
1532466843577,14,-3,12,-1,-3,-5,-20,-4
1532466843582,4,6,-19,-5,-1,3,5,-1
1532466843587,-7,-4,17,4,-6,-2,-3,7
1532466843592,-20,-15,7,2,-1,-1,30,-6
1532466843597,12,15,-4,0,0,0,-4,9
1532466843602,-9,-20,-11,-6,-2,-13,-2,-4
1532466843607,15,1,-17,2,4,14,12,0
1532466843612,-20,-9,-3,-3,-5,1,-9,-2
1532466843617,1,-8,3,5,-3,-1,13,-5
1532466843622,-30,20,-4,-8,-2,-2,4,5
1532466843627,11,-34,13,8,7,-1,-12,-5
1532466843632,-14,16,-10,-2,-2,-3,3,-2
1532466843637,23,-3,14,-4,0,-4,-1,-4
1532466843642,-8,0,-11,-4,-5,2,-6,-3
1532466843647,13,3,-4,-2,-3,-2,9,3
1532466843652,-49,8,3,1,3,2,-2,6
1532466843657,-13,-13,2,3,-1,-3,-3,0
1532466843662,2,-31,-8,-1,3,5,-5,-8
1532466843667,15,28,-7,-1,-2,5,9,1
1532466843672,3,-1,5,-1,-1,-6,-1,-2
1532466843677,13,3,-10,-2,0,4,0,9
1532466843682,3,20,4,-2,-2,-7,-13,1
1532466843687,-6,-11,7,-3,-6,-13,-1,-10
1532466843692,-46,-67,-22,-4,2,26,-1,-47
1532466843697,41,64,4,-2,-1,-5,-1,52
1532466843702,21,21,17,6,8,15,-9,6
1532466843707,14,15,11,4,-4,-11,6,-6
1532466843712,-30,-6,-35,-10,-4,-11,1,10
1532466843717,-35,-46,-15,-6,-5,0,3,-42
1532466843722,28,-12,1,0,-3,-5,2,2
1532466843727,-5,6,-9,-1,-2,-1,3,4
1532466843732,11,3,21,4,9,-3,-3,-7
1532466843737,-5,-3,3,-2,-5,1,-11,-3
1532466843742,-5,7,-12,0,0,-7,-8,-3
1532466843747,-15,-19,3,-3,-5,-1,-18,6
1532466843752,13,10,0,-3,-4,-6,-27,9
1532466843757,0,3,3,4,5,5,0,-4
1532466843762,3,-3,2,-1,-2,0,6,-21
1532466843767,-13,-17,-10,-1,1,1,13,18
1532466843772,8,17,3,-3,-2,14,13,4
1532466843777,14,7,-1,1,0,-4,8,47
1532466843782,-6,-12,-1,-1,-2,6,-2,-8
1532466843787,-24,-9,-8,-3,0,-12,10,-61
1532466843792,12,10,0,-2,-2,-8,5,48
1532466843797,21,4,16,5,6,10,-7,5
1532466843802,-6,-9,-10,-1,1,1,3,5
1532466843807,5,5,-3,-3,0,3,-2,10
1532466843812,-2,0,5,2,-5,-6,-3,-26
1532466843817,-14,-8,4,-3,0,-1,-5,-25
1532466843822,-6,-10,-11,-2,-1,-6,-29,14
1532466843827,-8,-7,-7,-3,0,0,-4,-18
1532466843832,2,2,1,1,0,3,1,-6
1532466843837,8,13,7,1,-1,-8,4,13
1532466843842,0,2,-2,-1,1,2,7,-6
1532466843847,2,-2,3,-1,-1,9,8,14
1532466843852,-2,-3,0,0,1,-7,12,-2
1532466843857,-10,-3,-5,-3,-6,-35,2,-7
1532466843862,-2,-6,1,-2,-2,31,4,-8
1532466843867,3,0,-1,3,5,-8,-8,8
1532466843872,6,5,2,-2,0,14,0,-2
1532466843877,-9,-2,-2,-2,-1,5,9,-16
1532466843882,-1,-2,-4,-4,-1,-21,6,3
1532466843887,7,3,2,1,-2,-10,6,14
1532466843892,-1,5,-5,2,-1,-2,-4,-7
1532466843897,-3,-7,-2,1,0,3,-8,-8
1532466843902,-6,-3,0,-1,5,-16,-5,-7
1532466843907,2,3,-2,-7,-15,4,-4,8
1532466843912,9,3,1,-1,0,-4,-11,2
1532466843917,-8,-7,-2,0,0,16,-1,-11
1532466843922,1,1,0,2,-3,-3,4,16
1532466843927,3,5,1,2,6,9,2,-2
1532466843932,-5,-1,1,-4,2,-10,4,-6
1532466843937,-2,-5,-6,-5,-13,-15,-3,9
1532466843942,2,0,-1,-1,1,6,3,-5
1532466843947,1,-1,-1,-1,-2,-4,-3,-2
1532466843952,-1,1,3,1,-3,-7,-5,-1
1532466843957,-6,-1,-2,1,0,10,-6,-28
1532466843962,1,-2,-2,-2,1,-43,-3,21
1532466843967,0,0,0,-1,-1,10,-4,-10
1532466843972,-1,-1,1,4,11,27,1,11
1532466843977,-2,0,-4,-2,-3,-5,-6,-14
1532466843982,1,0,1,0,-5,18,4,1
1532466843987,-1,-1,-3,-2,-4,-33,-6,2
1532466843992,-3,1,1,-1,-6,-15,2,-15
1532466843997,1,-5,-1,-2,0,-27,-2,10
1532466844002,1,1,0,1,2,38,3,4
1532466844007,-1,-3,-3,-1,2,10,-1,-2
1532466844012,-1,2,0,0,-2,-10,-1,0
1532466844017,-1,-1,-2,-1,3,19,2,-1
1532466844022,-2,1,-1,-3,-5,-8,-4,-8
1532466844027,-1,1,-2,1,3,16,6,-5
1532466844032,1,-1,-1,-2,-3,0,-1,17
1532466844037,2,2,0,-1,-1,-16,-2,4
1532466844042,-1,2,-1,0,-1,1,4,-6
1532466844047,2,1,-1,0,2,15,0,4
1532466844052,-2,-1,-3,-3,-8,-59,-5,0
1532466844057,-1,0,0,3,9,87,9,-1
1532466844062,1,2,1,0,-3,-22,-6,-5
1532466844067,-6,-7,-3,-2,1,2,-3,0
1532466844072,-1,-3,-2,-1,-1,0,2,0
1532466844077,-4,-4,-3,-4,-7,-18,-6,-7
1532466844082,3,1,4,1,0,-11,0,-1
1532466844087,0,1,-5,-4,-2,-10,1,4
1532466844092,-2,-9,-1,-3,-3,10,-3,3
1532466844097,-9,-7,-1,0,0,1,2,2
1532466844102,-3,-2,2,1,2,-6,-1,-8
1532466844107,1,-3,-1,-1,0,-8,-1,-2
1532466844112,12,1,1,-1,-3,13,-3,-3
1532466844117,-11,3,6,-1,1,-14,-3,-4
1532466844122,-2,-3,-12,0,2,6,5,3
1532466844127,1,1,-1,0,-1,7,-2,-2
1532466844132,-2,1,0,3,2,4,2,1
1532466844137,0,1,2,2,-1,-14,2,1
1532466844142,1,-2,0,-2,-2,3,-3,4
1532466844147,-3,3,-3,-2,0,4,4,-5
1532466844152,-5,-1,1,-1,-1,9,10,-7
1532466844157,8,-2,0,-1,-2,-14,-10,7
1532466844162,-4,0,2,0,-1,10,1,-10
1532466844167,3,-2,-2,1,-1,-6,-1,9
1532466844172,-2,2,-1,-3,-3,-64,-7,-7
1532466844177,0,-2,-4,0,2,72,1,-5
1532466844182,-1,0,-5,-2,-1,-30,-5,5
1532466844187,1,-2,-2,3,1,-11,-3,-3
1532466844192,0,-2,-2,-3,-3,13,2,7
1532466844197,-6,1,-4,-2,-4,-24,3,-11
1532466844202,-6,-8,8,2,-3,4,2,-1
1532466844207,11,17,3,-2,2,11,0,20
1532466844212,-7,-7,-2,0,1,11,-4,-8
1532466844217,2,1,-1,-1,-1,-15,-2,-1
1532466844222,1,-2,-4,-1,0,12,9,-6
1532466844227,-13,-5,2,1,-1,-13,2,-1
1532466844232,9,10,0,0,4,20,4,3
1532466844237,-9,-1,-3,-1,1,-7,0,-2
1532466844242,19,0,-3,-3,-2,-2,1,-8
1532466844247,-1,-3,0,-3,-4,-3,-11,5
1532466844252,-6,1,-1,1,0,3,-10,-6
1532466844257,1,1,-1,-1,-2,5,-3,-1
1532466844262,-1,1,0,0,0,-8,-3,-1
1532466844267,-3,-1,-1,-3,-3,-3,7,-10
1532466844272,5,-5,1,4,0,11,-11,2
1532466844277,3,2,3,2,0,-21,3,6
1532466844282,-6,2,-2,-1,-1,6,-3,0
1532466844287,-2,-6,2,1,1,4,-1,-7
1532466844292,3,3,-1,-1,-2,-4,4,5
1532466844297,4,-2,-4,-3,1,-3,0,3
1532466844302,-5,-1,-1,-2,-1,1,-2,1
1532466844307,-1,-1,-1,1,-1,-1,-1,-4
1532466844312,-1,-2,3,-1,0,5,5,-2
1532466844317,-2,-4,-13,-5,-3,-5,-3,-6
1532466844322,-3,-1,5,-1,-2,1,-2,4
1532466844327,-1,0,-5,-1,-2,-4,0,-2
1532466844332,-1,1,2,-2,-3,3,-1,0
1532466844337,-1,-2,4,-1,0,-1,2,0
1532466844342,-4,0,-2,0,-1,1,0,7
1532466844347,3,2,-3,-2,0,3,-3,-10
1532466844352,-2,-1,-4,-1,0,-2,0,2
1532466844357,1,2,1,1,0,-5,-3,-1
1532466844362,0,-1,5,2,0,1,0,-3
1532466844367,-4,-4,-5,-4,-1,0,-2,1
1532466844372,-1,0,-3,-2,-1,1,1,0
1532466844377,-1,-1,3,-2,0,-7,-2,0
1532466844382,-2,1,-4,0,-1,2,0,-7
1532466844387,1,0,5,4,2,2,1,3
1532466844392,-3,-1,-3,-5,-2,-1,-2,-5
1532466844397,1,-3,-3,-1,-1,-2,3,0
1532466844402,1,0,-1,0,0,-1,-1,3
1532466844407,-2,-2,-1,0,-2,-3,1,1
1532466844412,-1,-1,-3,-1,-2,-2,-1,-2
1532466844417,-2,1,0,1,0,0,0,-2
1532466844422,-2,1,0,-2,-5,0,0,-4
1532466844427,-2,-7,-10,-4,3,-3,-2,1
1532466844432,0,5,10,0,-2,1,-4,-2
1532466844437,2,0,-5,0,-2,-1,-2,4
1532466844442,1,1,-2,1,4,0,-3,3
1532466844447,-3,-2,-8,4,-4,0,0,-9
1532466844452,-1,1,3,-8,0,0,-1,1
1532466844457,-2,-4,3,0,-4,-2,0,-1
1532466844462,-2,-2,4,-2,-1,0,-4,-6
1532466844467,1,0,-2,0,0,1,-1,8
1532466844472,-1,-2,-7,2,1,0,2,-6
1532466844477,-1,1,2,0,0,-1,1,-1
1532466844482,-2,-1,-1,-1,-1,-1,-2,-2
1532466844487,2,3,6,-2,-1,-2,1,3
1532466844492,-1,-2,1,1,0,-1,0,0
1532466844497,-1,-1,-6,-2,-1,1,1,-2
1532466844502,0,-2,-3,-1,0,-1,-1,3
1532466844507,1,1,5,1,-1,0,-1,-2
1532466844512,1,-2,-3,1,-1,0,-2,3
1532466844517,-1,-1,1,0,-1,-4,0,-4
1532466844522,0,-1,-4,-3,-1,-1,-3,0
1532466844527,-1,-1,1,1,1,0,1,2
1532466844532,-4,-1,-1,-1,-3,-1,2,-9
1532466844537,1,0,1,1,-2,-1,-2,4
1532466844542,-2,0,4,2,-2,0,-1,0
1532466844547,0,-1,-6,-8,-2,-4,-4,-3
1532466844552,0,-2,-1,1,1,1,1,1
1532466844557,-2,-1,1,0,1,-1,-1,2
1532466844562,-2,-2,3,-2,-2,-1,-1,-4
1532466844567,2,2,-6,0,-1,-2,-2,-6
1532466844572,-5,-3,-2,0,-3,-1,-1,0
1532466844577,-2,-2,0,-2,1,0,-1,-2
1532466844582,-6,-3,-5,-3,-2,-2,-1,-7
1532466844587,7,8,6,2,2,4,2,9
1532466844592,2,1,-1,1,0,-1,-3,-1
1532466844597,-2,-1,-2,-4,-1,-1,-2,0
1532466844602,3,0,-4,0,1,-1,-1,-4
1532466844607,-4,-3,1,-1,-2,-1,0,-8
1532466844612,0,-2,-5,-2,0,1,1,1
1532466844617,-1,3,1,0,-2,-1,-2,-5
1532466844622,-1,-3,-4,-1,1,0,0,7
1532466844627,-1,-2,-1,0,-3,-2,-4,1
1532466844632,0,-1,4,1,-3,1,-1,2
1532466844637,1,-1,-5,-2,4,-1,0,-3
1532466844642,-1,0,1,-2,-1,-1,0,1
1532466844647,-2,-1,-2,0,-3,-1,0,-4
1532466844652,0,1,0,-2,-1,-2,-2,-3
1532466844657,2,1,2,0,-2,0,-1,0
1532466844662,0,0,-4,0,1,0,-2,-1
1532466844667,-5,-3,-2,-2,-1,0,-1,-5
1532466844672,3,3,-4,-1,-1,-1,1,5
1532466844677,-4,-4,0,2,-1,-1,0,-1
1532466844682,1,0,-2,-2,-4,-1,-1,7
1532466844687,-1,3,3,0,-1,0,-3,-11
1532466844692,-4,-5,-8,-2,1,-2,0,6
1532466844697,0,-4,0,0,-2,-1,-1,-4
1532466844702,2,0,-1,-1,0,2,2,0
1532466844707,-3,-1,0,-2,-2,-2,3,2
1532466844712,0,0,1,-1,-1,-3,1,-4
1532466844717,2,1,-3,-3,-2,2,1,1
1532466844722,-2,-2,0,0,2,-1,-2,0
1532466844727,-1,-2,1,-2,-1,-2,-3,-3
1532466844732,-3,-1,1,-1,-1,-2,-1,-3
1532466844737,-1,-2,-5,-2,-3,-1,-1,-1
1532466844742,0,1,4,1,0,2,3,-3
1532466844747,-1,-1,0,-1,-1,-2,-1,5
1532466844752,0,1,-3,1,1,0,-1,-1
1532466844757,-2,0,4,0,-1,-2,0,-3
1532466844762,0,-3,-3,0,-4,-2,-3,0
1532466844767,0,-4,-9,-4,1,-3,0,-3
1532466844772,1,-2,0,1,-3,2,0,6
1532466844777,2,4,-1,0,0,1,0,-7
1532466844782,-5,0,3,1,-1,-3,-1,-4
1532466844787,-1,-1,-3,-2,-1,2,0,2
1532466844792,-3,-6,-6,-2,0,-2,-3,-5
1532466844797,0,-1,-1,0,1,-2,-3,-3
1532466844802,1,-1,1,-2,1,0,-1,3
1532466844807,-2,-1,2,-1,-2,-5,-2,0
1532466844812,-3,-2,-1,-3,-1,0,3,0
1532466844817,0,-3,0,-1,-1,-1,-2,6
1532466844822,-2,1,-2,-3,-4,-5,-3,-2
1532466844827,0,-2,4,1,1,6,3,2
1532466844832,-2,-1,-8,-2,-2,-2,-3,-3
1532466844837,0,-1,2,0,-3,-3,-5,-7
1532466844842,1,-3,-5,-2,-2,-1,-1,7
1532466844847,2,1,1,0,0,-2,-2,0
1532466844852,2,-1,2,0,0,1,3,-1
1532466844857,-2,-1,-3,-2,0,1,7,-2
1532466844862,-2,-2,-3,-1,-2,0,1,-4
1532466844867,0,-1,0,0,0,-2,0,2
1532466844872,4,6,5,1,-2,-2,2,-4
1532466844877,-4,-8,-15,-6,-1,2,0,3
1532466844882,-2,1,12,0,-1,1,3,-3
1532466844887,1,-3,-13,-2,-4,-8,-4,-4
1532466844892,3,2,10,1,2,-4,0,2
1532466844897,-3,-3,-5,-2,0,-7,-2,-1
1532466844902,2,0,-2,2,2,6,2,-2
1532466844907,1,-2,3,-1,-3,4,5,0
1532466844912,-5,-3,3,5,-3,-2,0,-6
1532466844917,3,3,-2,-7,-4,-5,-2,6
1532466844922,-2,-2,-4,-2,-2,-2,-4,-2
1532466844927,-3,0,6,2,-1,2,3,-5
1532466844932,5,5,-1,-2,-2,3,2,5
1532466844937,-2,-3,6,-1,-1,-4,-4,-2
1532466844942,-3,-1,-11,4,1,-8,4,-4
1532466844947,1,1,2,-1,1,-2,-4,0
1532466844952,-4,-1,-3,-1,-1,2,4,-1
1532466844957,-1,2,5,4,2,7,1,-6
1532466844962,10,3,-2,-3,0,3,1,8
1532466844967,-5,-6,7,7,-2,-13,-12,-7
1532466844972,-3,-4,-15,-8,0,2,5,2
1532466844977,-2,1,1,2,-2,-6,0,0
1532466844982,-5,-2,2,0,-2,0,-1,-12
1532466844987,-1,0,-9,-7,0,4,-3,7
1532466844992,1,-2,4,-2,-2,-1,-4,-1
1532466844997,0,-1,4,2,0,9,2,2
1532466845002,-6,-3,-3,-5,-4,-13,-11,-8
1532466845007,5,3,3,2,0,10,11,12
1532466845012,-9,-7,-4,-2,-1,-7,-9,-13
1532466845017,1,2,5,0,-3,-4,-2,0
1532466845022,4,1,-6,-2,-2,1,-4,-6
1532466845027,-1,2,5,2,1,6,2,4
1532466845032,-4,-4,-7,-2,-1,3,-2,-3
1532466845037,-1,-1,-5,1,7,2,1,-4
1532466845042,1,1,8,3,-4,-14,-1,3
1532466845047,-3,1,-5,-6,-1,-3,0,-5
1532466845052,1,1,-3,-1,5,0,3,0
1532466845057,0,1,4,-3,-4,1,0,5
1532466845062,-2,-2,-9,-1,2,7,1,-3
1532466845067,-3,-4,-5,0,0,-4,-3,-8
1532466845072,0,-1,5,-1,1,-3,-5,7
1532466845077,-2,-2,0,0,-8,-6,0,-8
1532466845082,-3,-4,-9,-6,2,0,2,12
1532466845087,7,8,3,3,3,2,1,-8
1532466845092,-1,-1,-2,-1,-4,9,-6,3
1532466845097,-4,-1,-3,-1,2,-20,-7,-7
1532466845102,-2,-4,2,0,-1,9,8,10
1532466845107,-4,-3,-3,-3,-4,-9,-5,-5
1532466845112,1,1,3,3,1,0,1,-8
1532466845117,0,-2,-6,0,2,8,4,8
1532466845122,0,-1,2,-5,-1,-2,-4,-5
1532466845127,-2,-2,1,0,0,-3,3,14
1532466845132,2,1,-1,-3,-3,2,-1,-17
1532466845137,1,2,-2,0,-3,-5,-2,4
1532466845142,-1,1,2,-1,3,1,0,2
1532466845147,-2,-4,1,-1,1,3,-1,0
1532466845152,0,1,0,-1,-1,-3,2,4
1532466845157,-3,-2,-2,-4,0,0,-1,-9
1532466845162,1,-1,0,2,-1,-1,-3,1
1532466845167,1,0,-3,-3,-1,1,1,6
1532466845172,-5,-2,2,5,-3,-5,-1,-1
1532466845177,0,-2,-1,-4,-1,1,-4,0
1532466845182,-2,1,0,3,1,6,3,-5
1532466845187,-2,-3,-1,0,0,-1,0,-1
1532466845192,2,-3,-5,-4,-2,-4,-3,0
1532466845197,2,1,3,4,3,6,5,1
1532466845202,-3,-4,-3,-5,-4,2,0,-7
1532466845207,-1,1,-1,-3,-5,-8,-4,-3
1532466845212,1,2,0,2,5,-6,-1,7
1532466845217,3,2,1,-2,-2,0,-5,-8
1532466845222,-10,-4,-8,-3,-4,-2,19,0
1532466845227,4,-2,-2,0,5,6,-17,2
1532466845232,0,-1,0,-1,-5,-10,-3,10
1532466845237,3,1,-2,1,1,6,4,-9
1532466845242,-1,2,0,-1,-2,-8,-5,-13
1532466845247,-5,-3,-2,-3,0,2,-5,-7
1532466845252,0,0,0,1,-6,-7,4,-4
1532466845257,-4,-5,-3,-1,2,-7,-42,5
1532466845262,6,5,3,1,-1,1,40,13
1532466845267,1,0,-1,1,1,6,7,3
1532466845272,-3,-2,-1,-2,0,-2,-2,-10
1532466845277,-5,-2,-4,-3,-3,1,3,5
1532466845282,1,2,2,-2,-4,-6,-20,-9
1532466845287,1,1,2,1,0,7,-4,-3
1532466845292,0,-1,-1,0,0,4,1,1
1532466845297,-1,-5,-3,-2,-4,-6,2,-2
1532466845302,-4,-4,-1,-2,0,-7,-14,2
1532466845307,0,-2,-3,-4,-3,-6,7,-4
1532466845312,0,-1,-2,-5,-6,2,-15,0
1532466845317,-1,1,1,1,3,6,1,6
1532466845322,1,-1,1,1,1,2,12,-4
1532466845327,-4,0,-2,-1,-2,-2,-3,-3
1532466845332,0,-1,-3,-1,2,-5,-2,3
1532466845337,1,1,0,-2,-5,-5,3,2
1532466845342,0,1,3,-1,0,3,-9,0
1532466845347,-1,-3,-5,-1,0,-3,2,-2
1532466845352,-4,0,-2,-3,-1,-5,2,0
1532466845357,-1,0,-1,1,1,5,13,-4
1532466845362,0,0,1,0,2,-1,-8,4
1532466845367,0,1,1,-1,-5,-7,3,0
1532466845372,-1,0,0,1,2,3,2,-4
1532466845377,0,-1,-3,0,-1,0,5,0
1532466845382,1,-1,-1,1,2,0,-4,-10
1532466845387,-4,0,-1,0,-1,-4,-1,0
1532466845392,3,-1,1,0,1,1,4,6
1532466845397,-2,-1,0,-2,-3,-3,-1,-2
1532466845402,0,0,-2,-1,0,-2,-4,-3
1532466845407,1,5,3,0,1,4,0,-10
1532466845412,1,0,-2,0,0,3,0,1
1532466845417,1,1,1,0,-1,-2,3,2
1532466845422,0,-5,-4,-3,-3,-4,-8,3
1532466845427,-1,1,-1,0,-1,-2,-1,1
1532466845432,-1,1,1,0,3,3,2,-4
1532466845437,0,0,-3,-2,-3,-3,1,0
1532466845442,-1,-3,1,0,2,2,0,0
1532466845447,-1,-4,0,-3,-8,-6,1,-2
1532466845452,-1,-3,-2,-2,-4,-1,-2,-1
1532466845457,0,1,0,2,2,4,4,-1
1532466845462,0,-2,-4,-1,-2,1,-4,-2
1532466845467,0,-2,-2,0,1,-2,-2,0
1532466845472,2,1,0,-1,-2,-2,0,1
1532466845477,0,0,-1,-1,-3,-2,1,-5
1532466845482,-1,-1,-3,-2,-4,-3,-4,3
1532466845487,-1,-2,0,-2,1,-1,1,1
1532466845492,-1,-1,-1,0,2,0,-1,-9
1532466845497,0,-1,-1,0,0,1,-3,4
1532466845502,-1,2,-1,0,-1,-2,-4,-1
1532466845507,-1,-3,-2,-1,-1,-1,-1,-3
1532466845512,-1,-2,-2,0,-1,1,3,4
1532466845517,2,1,1,-2,1,-1,3,-4
1532466845522,-1,-2,0,1,-1,0,-1,-1
1532466845527,0,1,-1,-1,-2,-1,-2,2
1532466845532,-2,-3,0,-1,1,0,-2,-2
1532466845537,-1,-3,0,-2,-1,-1,-7,-1
1532466845542,2,1,-1,-2,0,-1,-1,-1
1532466845547,-2,1,-1,1,2,0,-2,-2
1532466845552,-1,-1,-1,0,-1,-2,1,-1
1532466845557,-1,-1,0,-2,-2,-1,3,-2
1532466845562,-3,-2,-1,1,0,1,3,0
1532466845567,1,-1,0,1,-3,-1,2,0
1532466845572,0,0,-1,0,0,1,0,-1
1532466845577,1,0,1,0,-1,-1,0,7
1532466845582,-2,-2,0,-2,2,-1,-2,-2
1532466845587,0,-2,-1,-1,-3,-2,3,1
1532466845592,-2,0,-2,-2,-1,-3,-3,-5
1532466845597,-3,-1,-4,-1,2,1,-1,0
1532466845602,1,1,0,0,-7,-1,-4,-4
1532466845607,-2,0,-3,-2,1,0,-3,-5
1532466845612,-1,-2,0,-1,-3,-1,-1,3
1532466845617,0,0,-1,-1,-1,-1,0,0
1532466845622,2,-1,0,-1,1,-3,-2,-1
1532466845627,1,-2,-1,-1,-1,-2,-2,-2
1532466845632,0,1,-1,0,-1,0,2,-1
1532466845637,-2,-1,-2,-1,-1,-2,-1,-3
1532466845642,-3,-1,-1,-1,-5,1,-1,1
1532466845647,-1,1,1,-1,-3,-4,-2,-1
1532466845652,-1,0,-1,-1,2,0,1,2
1532466845657,0,0,-2,0,-2,-1,1,-1
1532466845662,-1,1,-2,-1,-1,-2,-1,2
1532466845667,-2,-1,-1,0,0,3,0,-1
1532466845672,-2,-1,-2,1,0,0,-1,-5
1532466845677,-2,-1,-2,-3,1,-2,2,3
1532466845682,-3,-1,-2,-1,-1,2,-1,-4
1532466845687,-2,-2,-2,-1,-2,-2,-2,-4
1532466845692,1,0,-1,1,1,0,0,9
1532466845697,-1,0,-1,-1,-1,0,1,-2
1532466845702,-4,-1,-1,-2,0,-2,-2,-8
1532466845707,-1,-1,0,-2,1,-1,-2,4
1532466845712,2,0,1,0,-1,-1,-3,-10
1532466845717,-1,-1,0,-2,-3,-1,-2,1
1532466845722,-1,1,0,-1,-1,-2,-1,-5
1532466845727,2,0,-2,0,-2,0,0,16
1532466845732,0,1,1,0,0,-1,-2,-8
1532466845737,-1,0,-1,1,0,1,0,-5
1532466845742,0,1,2,-1,3,-2,1,1
1532466845747,-1,-1,-1,-1,-3,-3,-2,-4
1532466845752,-1,-1,0,-1,-1,0,-2,3
1532466845757,0,-1,-1,-2,-2,0,-1,-3
1532466845762,-1,-4,-1,-1,-1,-1,-1,3
1532466845767,-1,1,0,0,3,0,0,3
1532466845772,-2,-2,-4,-4,-6,-5,-1,1
1532466845777,-1,0,0,0,-2,-2,-5,-10
1532466845782,0,1,0,0,2,-1,1,3
1532466845787,0,0,-1,-1,1,0,1,-7
1532466845792,-2,0,0,-2,-1,0,1,2
1532466845797,1,0,-2,1,-2,-1,1,-1
1532466845802,1,-2,0,-1,0,1,0,1
1532466845807,0,-3,-2,-1,0,1,-1,-1
1532466845812,-3,0,0,-1,0,-1,-1,0
1532466845817,-1,0,0,-2,-3,-3,2,3
1532466845822,1,-3,-3,-1,-3,-1,0,-1
1532466845827,-1,0,1,0,3,0,-2,-1
1532466845832,-3,0,-2,0,-1,-1,0,-1
1532466845837,-1,-1,-1,0,1,-1,1,2
1532466845842,0,0,-1,-1,0,-2,-2,-3
1532466845847,-2,-2,-2,-2,-5,-2,0,0
1532466845852,0,0,2,0,1,1,0,-2
1532466845857,-1,0,0,-1,1,-2,-1,-1
1532466845862,0,1,-1,0,-1,1,0,4
1532466845867,-2,-1,0,-1,1,-1,1,-2
1532466845872,1,-1,-3,-3,1,-1,-4,-2
1532466845877,-1,-1,-1,-1,-2,0,1,0
1532466845882,-1,-1,-1,0,0,-1,-1,-9
1532466845887,1,3,1,1,-3,-1,-2,8
1532466845892,-2,-3,-2,-2,-1,-1,2,0
1532466845897,-1,-2,-1,-2,2,-3,-3,-3
1532466845902,-2,1,-1,0,-3,2,0,-1
1532466845907,-1,1,1,0,0,0,2,2
1532466845912,-1,-2,-1,0,0,-1,-2,-5
1532466845917,-1,-2,-1,-1,-2,-1,-3,-2
1532466845922,0,-1,-1,0,0,-4,-2,-1
1532466845927,1,-3,-1,-1,1,1,2,3
1532466845932,-3,0,0,-1,-3,-3,-1,-17
1532466845937,1,-1,0,0,3,-1,0,13
1532466845942,0,0,-2,-1,-2,0,-4,-2
1532466845947,-1,-2,-1,0,-4,0,0,-5
1532466845952,2,-2,-2,-1,-2,-2,-1,9
1532466845957,-3,-2,0,-1,-2,-1,0,-13
1532466845962,0,1,0,-3,2,-1,0,1
1532466845967,-2,-1,-1,0,-1,0,0,-6
1532466845972,0,0,1,0,0,-1,-2,10
1532466845977,-3,-2,-1,-2,-2,-3,-3,-9
1532466845982,-1,-1,0,0,-1,-2,2,8
1532466845987,-1,-1,-2,-1,-1,-1,-3,-6
1532466845992,-2,-2,0,0,-1,0,1,5
1532466845997,-2,0,1,1,1,2,1,-4
1532466846002,-2,-1,0,-2,-1,-1,0,2
1532466846007,-1,0,-1,-3,0,-1,-1,-2
1532466846012,-1,0,-2,1,0,2,-3,-8
1532466846017,3,0,-1,-2,2,-2,-3,15
1532466846022,-2,-2,-2,0,-2,-2,-2,-8
1532466846027,-1,0,1,-1,0,-2,-1,-2
1532466846032,-2,-1,-2,0,-1,-3,1,2
1532466846037,0,-1,-1,-4,-6,-2,-1,-2
1532466846042,0,1,0,1,2,0,2,4
1532466846047,-2,-4,-3,-2,0,-3,-2,-3
1532466846052,1,-1,0,0,2,3,3,2
1532466846057,-1,0,-1,-2,-1,-2,-1,-5
1532466846062,-3,-2,-1,-2,0,-1,-2,4
1532466846067,0,0,-2,0,-2,1,0,-5
1532466846072,-1,0,-2,-2,-2,-3,2,2
1532466846077,1,0,-2,0,-1,0,-1,1
1532466846082,-1,0,-1,-1,0,0,-1,2
1532466846087,1,1,-1,-1,2,-3,-2,-5
1532466846092,-3,-1,1,-1,-2,-1,-2,7
1532466846097,-1,-1,1,0,0,1,0,-8
1532466846102,0,0,-1,0,0,0,1,-3
1532466846107,-1,0,-1,-3,-4,0,-2,1
1532466846112,-3,-1,0,-2,-1,-1,-1,-10
1532466846117,0,0,-1,1,-1,0,0,7
1532466846122,3,0,1,0,4,0,-3,-3
1532466846127,-2,-1,-2,-1,-1,-2,0,1
1532466846132,0,-1,-1,0,-1,-3,-1,-1
1532466846137,-2,-2,0,1,-1,0,0,-5
1532466846142,0,-1,-4,-2,-2,3,1,0
1532466846147,0,1,1,4,1,1,0,1
1532466846152,-1,-2,-1,-3,-1,-2,-1,-7
1532466846157,0,-1,-1,-1,0,0,-1,5
1532466846162,0,0,-2,-1,-3,-3,-2,0
1532466846167,1,1,0,0,0,1,-1,-1
1532466846172,0,0,-1,-1,-3,0,2,0
1532466846177,0,-2,0,-3,1,-4,-1,0
1532466846182,-2,-1,-1,0,-1,-1,-3,-14
1532466846187,0,0,0,1,0,1,-2,-4
1532466846192,1,0,1,1,2,1,-2,0
1532466846197,0,1,-2,-2,-5,-2,0,1
1532466846202,0,-1,-1,0,-3,-1,-1,4
1532466846207,-3,-2,0,-1,-1,-1,0,-5
1532466846212,1,-1,-3,1,2,-3,-1,1
1532466846217,1,1,-2,1,-1,0,-1,6
1532466846222,-1,-2,0,0,-1,0,-1,-2
1532466846227,-1,-2,-3,-3,-2,-1,-1,1
1532466846232,-2,0,1,-1,-3,-2,-2,-6
1532466846237,0,-1,0,0,3,0,-1,1
1532466846242,-1,-1,-1,-3,-1,-3,0,3
1532466846247,1,-2,-1,0,1,0,0,2
1532466846252,-2,-2,-2,-1,0,0,0,-5
1532466846257,-3,0,-1,0,-1,1,-2,-5
1532466846262,-1,0,-2,-1,-2,-1,-2,-3
1532466846267,-1,-2,-2,-2,-1,-2,1,5
1532466846272,0,0,1,-1,-3,-1,-2,1
1532466846277,-2,-2,0,0,3,1,2,-12
1532466846282,0,0,0,0,-1,0,-2,1
1532466846287,-1,0,1,0,-1,-2,-1,-1
1532466846292,2,0,-2,-2,0,1,0,3
1532466846297,0,0,-1,-1,-3,-2,-3,0
1532466846302,1,-2,-1,-1,0,-1,-1,-3
1532466846307,0,-2,-1,-1,-2,-3,2,4
1532466846312,-1,-2,-2,-2,3,0,-1,-5
1532466846317,0,0,0,0,0,0,-1,4
1532466846322,-1,0,0,-2,-1,-1,-1,-8
1532466846327,-2,1,0,1,0,0,-2,-3
1532466846332,1,-1,-1,0,-1,0,1,-1
1532466846337,-2,-2,-2,-2,3,-1,-1,-1
1532466846342,-2,-1,-2,-1,-2,-3,1,6
1532466846347,0,2,0,0,1,0,-2,-4
1532466846352,0,-3,0,0,-1,1,0,-3
1532466846357,0,-2,-1,0,-3,-3,-2,2
1532466846362,2,1,0,0,0,0,1,0
1532466846367,-2,-3,0,-1,-1,-2,0,-2
1532466846372,0,0,-1,0,-3,-1,-2,4
1532466846377,-1,0,-2,1,-2,-2,-1,0
1532466846382,-2,-4,-1,-2,-3,-3,0,1
1532466846387,1,0,0,-1,-3,0,-1,5
1532466846392,0,-1,-1,-1,1,0,-2,-5
1532466846397,-1,-2,0,0,0,1,0,-4
1532466846402,-1,0,0,0,0,-1,0,2
1532466846407,0,-1,-3,-1,1,1,0,-3
1532466846412,-2,-1,-1,0,-1,-3,0,5
1532466846417,-2,1,-1,-2,-3,-2,-2,-6
1532466846422,-1,-1,0,1,-1,-2,0,0
1532466846427,-2,-5,0,-3,-3,-4,0,0
1532466846432,-1,-2,-1,-1,-1,1,-1,-3
1532466846437,1,-2,-1,0,0,-1,-1,4
1532466846442,-4,-1,-1,-1,0,0,-2,-9
1532466846447,0,1,-1,0,0,-1,-2,-5
1532466846452,-1,0,-1,0,-1,-1,-1,5
1532466846457,-4,-1,1,-2,-4,-1,0,-2
1532466846462,1,1,-2,-1,-1,1,-1,5
1532466846467,0,0,-1,-1,1,0,0,-1
1532466846472,0,0,-1,-1,-1,-1,1,-4
1532466846477,0,-2,-1,-1,-9,-3,-1,-1
1532466846482,-2,0,1,0,-1,-3,0,-3
1532466846487,-1,0,0,-1,-3,1,-2,-2
1532466846492,1,0,0,2,0,0,0,1
1532466846497,0,-1,-2,0,3,1,0,0
1532466846502,0,0,-1,-2,0,0,1,0
1532466846507,-1,-1,-1,0,-1,0,-1,-5
1532466846512,-2,-2,0,-2,0,-1,-1,-2
1532466846517,1,0,0,-1,1,1,-2,-1
1532466846522,2,0,0,0,0,0,0,2
1532466846527,0,-1,-2,-1,2,2,-1,2
1532466846532,1,-2,-1,1,-1,-1,-1,-1
1532466846537,-1,2,-2,0,0,-1,-1,-8
1532466846542,1,-1,-3,-2,-3,-5,-1,2
1532466846547,-1,-1,1,0,0,5,1,0
1532466846552,-1,0,-2,-1,-2,-4,-1,0
1532466846557,0,-1,1,1,1,8,0,0
1532466846562,0,-2,0,-1,-2,-8,-2,-3
1532466846567,-3,0,-1,0,-1,3,0,-2
1532466846572,0,0,-2,0,-1,-6,-2,-1
1532466846577,-1,-1,-3,-1,-3,-5,4,1
1532466846582,-1,0,0,0,2,3,-4,-6
1532466846587,2,0,0,1,0,-3,-3,-4
1532466846592,-1,-1,0,-4,-8,0,1,2
1532466846597,0,-3,-3,-2,-1,-3,0,3
1532466846602,-1,-2,-1,-1,0,0,0,-10
1532466846607,-2,-2,-3,-2,-2,-3,1,8
1532466846612,1,1,-2,1,4,3,-2,-4
1532466846617,-1,-1,0,-1,-1,-4,0,-2
1532466846622,-1,0,-1,0,-3,3,2,0
1532466846627,-2,-1,-1,0,-1,-3,0,1
1532466846632,-2,-1,0,-2,1,-2,-1,3
1532466846637,-1,-1,-1,-2,-2,0,-2,-6
1532466846642,0,0,1,-1,0,0,-3,-2
1532466846647,1,-1,0,1,-2,-1,0,0
1532466846652,-2,0,-1,-1,1,1,-3,-2
1532466846657,-2,0,-1,-1,-2,-1,-1,-6
1532466846662,-2,-2,-2,0,-2,0,0,1
1532466846667,1,-1,-1,-3,0,-3,-1,-3
1532466846672,1,-3,-3,0,-1,1,0,8
1532466846677,1,1,1,-2,2,1,-1,0
1532466846682,-2,-4,-1,-1,-2,0,-1,0
1532466846687,-2,0,-1,-1,-4,-1,-3,-7
1532466846692,0,0,-1,1,-1,0,0,-4
1532466846697,0,-1,-1,0,0,0,-1,1
1532466846702,0,-1,-2,-1,-1,0,-1,8
1532466846707,-4,0,0,0,0,-3,-1,-8
1532466846712,-1,0,0,0,1,1,0,-8
1532466846717,1,-1,-1,0,-2,-1,-2,-1
1532466846722,0,-1,-1,-1,-3,0,-1,0
1532466846727,1,-2,-2,0,-2,0,-1,7
1532466846732,-1,-1,-1,-3,2,-4,-2,0
1532466846737,0,0,0,1,2,1,0,-5
1532466846742,-2,1,0,-1,-1,-1,0,2
1532466846747,0,-2,0,-3,-1,0,0,-2
1532466846752,1,0,0,-2,-3,0,-2,-2
1532466846757,1,-2,-1,-1,-1,-1,1,1
1532466846762,0,0,0,-1,1,-1,0,-5
1532466846767,-2,-1,-2,-1,1,-1,-1,2
1532466846772,-3,0,-1,1,-2,0,1,-3
1532466846777,0,0,0,-1,-2,-1,-2,3
1532466846782,1,-1,-1,-2,-1,-1,0,3
1532466846787,-2,-1,-1,-2,0,-1,-1,-12
1532466846792,0,0,-2,0,0,1,1,3
1532466846797,1,1,-1,0,-2,-1,-2,-2
1532466846802,-2,-1,-2,0,0,-3,-1,-3
1532466846807,1,0,0,0,-1,-1,0,2
1532466846812,-2,-1,-1,-1,0,-2,0,3
1532466846817,-2,-1,-2,-1,-4,-1,1,1
1532466846822,0,0,-1,0,0,0,-1,-3
1532466846827,-1,-4,-1,0,-2,-2,-2,-2
1532466846832,0,0,0,-1,-4,-1,-1,2
1532466846837,-1,-2,-2,0,0,-1,-3,-1
1532466846842,-1,-1,0,0,6,-1,0,0
1532466846847,-1,-1,-2,-1,-1,0,1,-1
1532466846852,-2,-1,0,-1,-1,-1,-1,-6
1532466846857,1,0,0,0,1,-1,-1,2
1532466846862,-1,-2,1,-1,-2,-1,1,3
1532466846867,-1,-1,-4,-3,0,-2,-1,-1
1532466846872,-2,-1,-2,-1,0,1,0,-1
1532466846877,-2,-1,-1,-1,-1,-3,0,-1
1532466846882,1,1,-1,1,-1,1,-2,-3
1532466846887,-2,-1,1,-1,-1,-2,0,-2
1532466846892,2,-2,0,1,0,-1,0,2
1532466846897,-2,-1,-1,-2,-4,-1,-2,-1
1532466846902,0,0,0,-1,-1,0,-1,-3
1532466846907,0,-1,-1,0,-2,0,-1,7
1532466846912,-2,0,0,-1,-2,0,-4,-4
1532466846917,-1,-1,0,0,0,-1,1,-6
1532466846922,0,0,-2,-1,-2,-2,-2,0
1532466846927,0,0,1,0,-2,0,-1,-2
1532466846932,-1,0,0,-1,0,-2,-1,-3
1532466846937,-2,-2,-2,-1,-1,0,1,3
1532466846942,-2,-3,-2,-1,1,0,0,-3
1532466846947,1,-1,0,0,0,0,0,2
1532466846952,1,-1,-1,-2,0,0,0,-2
1532466846957,-3,-2,-1,-1,-1,-1,-2,-6
1532466846962,2,0,-2,-2,-2,-1,0,8
1532466846967,-2,0,-1,0,-1,-2,-3,-5
1532466846972,-1,-1,-2,-1,1,-2,-1,-5
1532466846977,1,-1,0,-2,1,-2,0,1
1532466846982,0,-1,1,-1,-1,-1,-2,-3
1532466846987,1,-2,-1,0,-2,-2,-1,2
1532466846992,0,0,0,0,-1,1,-2,-4
1532466846997,-1,-1,-1,1,0,0,-1,0
1532466847002,-1,-2,-1,-1,-2,-1,0,-5
1532466847007,1,0,-1,0,1,-1,1,7
1532466847012,-1,0,1,-2,-3,-3,-2,1
1532466847017,-1,0,-1,-3,-1,0,-1,1
1532466847022,-1,-2,1,1,0,1,1,-4
1532466847027,2,2,0,-1,2,0,-3,-2
1532466847032,-1,-2,0,0,-1,0,1,3
1532466847037,0,-1,-1,-1,-1,-2,1,3
1532466847042,-2,-1,0,-2,-1,-2,-1,-3
1532466847047,-2,-1,-1,-2,1,1,3,-2
1532466847052,0,0,-2,0,-3,2,-3,-6
1532466847057,1,0,-1,-1,-2,-1,-2,-1
1532466847062,1,-2,0,1,-4,-2,-1,6
1532466847067,0,-2,-2,1,2,-3,-1,-3
1532466847072,-1,-1,-1,-2,-2,0,0,-4
1532466847077,-1,-1,-1,-1,0,1,-1,3
1532466847082,0,0,-2,-1,-1,-1,-1,0
1532466847087,-1,0,-1,-3,-3,1,-1,2
1532466847092,0,-3,-3,0,-1,0,1,1
1532466847097,-1,1,-1,-2,0,0,0,-8
1532466847102,-1,-2,0,0,-2,-1,0,3
1532466847107,0,0,-1,-1,-2,-2,-2,-6
1532466847112,-1,-1,0,0,0,-1,-1,-1
1532466847117,2,0,0,1,0,-2,0,-1
1532466847122,-1,0,-2,-2,0,-2,-1,-4
1532466847127,-3,-3,-1,-1,-2,0,0,1
1532466847132,-2,-1,0,-2,-3,-2,-5,0
1532466847137,-1,0,-1,0,3,0,0,5
1532466847142,-4,0,-3,-1,1,-2,-1,-6
1532466847147,2,0,1,0,-4,0,-2,2
1532466847152,-1,-1,-2,-2,-2,0,-1,0
1532466847157,0,0,-1,-1,-2,-2,-1,4
1532466847162,-2,1,1,-1,0,0,-1,-4
1532466847167,-2,1,0,1,-2,-1,0,-4
1532466847172,-1,-3,-2,-1,-2,0,0,3
1532466847177,-1,-2,-2,-2,-1,-2,-2,-2
1532466847182,1,0,-2,-1,-2,-1,-1,3
1532466847187,-1,-1,0,0,-1,-1,0,0
1532466847192,0,1,-1,0,1,-1,-1,-1
1532466847197,-2,0,-2,0,-1,-1,-1,-3
1532466847202,-1,-2,1,0,1,0,-3,-2
1532466847207,-2,-3,-2,-2,-1,-1,-1,1
1532466847212,1,0,-1,-1,0,-2,0,1
1532466847217,-2,-2,-1,-2,-3,0,0,-1
1532466847222,-1,1,-1,-1,1,-1,-3,-2
1532466847227,0,-1,-1,0,1,0,-2,-7
1532466847232,-1,0,-1,-2,0,-2,-3,0
1532466847237,-1,-4,0,-2,-2,-1,-1,-8
1532466847242,0,-2,-3,-1,-3,0,0,7
1532466847247,-1,0,-2,-2,-1,-2,0,4
1532466847252,-1,-2,-2,-1,1,-3,0,-1
1532466847257,-1,1,0,1,-1,0,-3,-1
1532466847262,-1,0,-1,-2,-3,-2,0,-4
1532466847267,-1,-1,0,0,1,-1,-1,-1
1532466847272,-2,1,-1,0,0,-2,1,1
1532466847277,1,-2,1,-1,-1,0,0,-1
1532466847282,-4,-3,-3,-3,-1,-2,0,-6
1532466847287,2,2,-3,-1,-1,-1,-4,-1
1532466847292,0,0,2,-2,-2,1,-1,-1
1532466847297,-2,-1,0,-1,0,0,-2,-10
1532466847302,0,-1,-1,0,-1,1,0,5
1532466847307,-4,0,0,-1,-2,0,1,-1
1532466847312,-1,-1,0,0,0,-1,-1,-3
1532466847317,1,0,-2,0,0,-1,1,5
1532466847322,1,-1,1,1,0,-3,0,-3
1532466847327,-1,-2,-1,-1,-2,0,1,4
1532466847332,-1,0,0,-1,-2,-2,-1,-1
1532466847337,-2,-1,-2,-2,0,1,0,1
1532466847342,-2,1,0,-1,0,-1,0,-3
1532466847347,-2,-2,-1,-2,-1,-1,-3,4
1532466847352,-1,-2,-1,0,-1,0,0,-2
1532466847357,0,-1,-1,-1,-1,0,-1,0
1532466847362,-1,0,-1,0,-2,-3,-1,-2
1532466847367,1,-1,0,0,0,2,-1,0
1532466847372,-1,1,0,-2,-1,-1,1,-1
1532466847377,0,-1,-1,0,-2,-1,-3,5
1532466847382,-3,-2,0,-2,-4,0,-3,-5
1532466847387,-3,-3,-1,-1,-1,-3,-1,-9
1532466847392,0,-4,-1,0,2,1,0,9
1532466847397,0,-1,-2,-1,-1,-1,-2,-3
1532466847402,0,1,0,-2,0,0,-2,4
1532466847407,1,-1,0,-1,1,-2,1,0
1532466847412,-5,1,-2,-2,-5,-2,1,-9
1532466847417,0,-1,-1,0,-1,-2,-1,12
1532466847422,0,-2,-1,0,0,0,-2,-12
1532466847427,1,1,1,0,-1,0,-1,-4
1532466847432,0,-2,-3,-1,-1,-1,2,2
1532466847437,-3,-2,-1,-3,0,-3,-1,-8
1532466847442,0,-1,-1,0,-2,-1,1,10
1532466847447,-2,-1,1,-1,0,-1,1,0
1532466847452,0,0,-1,0,-2,-2,-2,-2
1532466847457,2,0,-1,-2,-1,1,-1,-3
1532466847462,-1,-2,-3,0,0,0,1,5
1532466847467,-2,0,-1,0,0,2,-1,-7
1532466847472,0,-1,1,0,1,0,-2,1
1532466847477,-2,-1,1,1,0,-2,-1,-2
1532466847482,1,0,-1,-1,-1,-1,-2,0
1532466847487,-1,-3,-2,-1,-2,-1,1,3
1532466847492,0,-2,-2,0,-3,0,0,5
1532466847497,-2,1,0,1,-1,-2,-1,-14
1532466847502,0,-2,-1,-2,-4,0,-1,-3
1532466847507,-1,-1,0,0,-1,-1,0,-5
1532466847512,0,0,-2,0,1,-2,-1,8
1532466847517,-1,-1,0,0,0,0,0,1
1532466847522,0,-1,-1,-1,2,-1,-1,3
1532466847527,-3,-2,0,0,2,-1,-3,-4
1532466847532,3,1,1,0,-1,-2,0,5
1532466847537,-1,-1,-2,-1,-1,0,0,-2
1532466847542,0,0,-1,0,1,0,-2,-8
1532466847547,1,-1,-2,0,-2,0,-2,4
1532466847552,-1,-1,0,-1,-3,-1,0,-4
1532466847557,-1,-1,-3,-1,-1,-3,-1,0
1532466847562,-3,-2,0,-2,-2,-4,0,7
1532466847567,2,1,-1,-2,0,1,-2,-5
1532466847572,-1,0,0,-2,-1,1,-1,-3
1532466847577,1,0,-3,-2,-2,-2,0,6
1532466847582,-1,-1,1,2,0,2,0,-8
1532466847587,0,-1,-2,-1,-1,-2,-2,1
1532466847592,-2,0,0,-3,-1,-1,0,-3
1532466847597,0,-1,1,-1,-1,-1,-1,4
1532466847602,1,2,0,1,1,1,0,-1
1532466847607,-1,-3,-1,-1,-2,-1,-3,-6
1532466847612,0,-2,-1,1,0,-2,0,1
1532466847617,-1,-2,-1,-1,1,0,2,2
1532466847622,0,-2,-1,-2,-3,-3,0,-4
1532466847627,1,-1,0,0,-2,-1,0,8
1532466847632,-4,-2,-3,-2,0,-2,-2,-12
1532466847637,2,1,0,0,-1,1,0,6
1532466847642,-2,-1,-1,0,0,-1,-1,-3
1532466847647,-1,-1,0,-1,-3,0,0,-7
1532466847652,1,0,0,0,1,0,-2,5
1532466847657,-2,0,-1,-2,-1,0,-2,-6
1532466847662,-1,-2,0,1,-2,-1,0,4
1532466847667,-1,1,-2,-3,1,-1,0,1
1532466847672,-1,0,-1,-1,-1,0,-1,-6
1532466847677,-2,-1,-3,0,-1,-2,-1,0
1532466847682,-3,1,1,0,0,-1,-1,-1
1532466847687,-2,1,-3,0,0,0,0,4
1532466847692,0,-1,0,1,-2,-2,-3,-8
1532466847697,3,0,-1,0,0,2,2,3
1532466847702,1,-2,-2,-2,1,1,-1,-2
1532466847707,-2,-1,-1,-2,-2,0,0,-3
1532466847712,0,-1,-2,-1,1,0,0,1
1532466847717,-4,-4,0,-2,-1,-3,0,-8
1532466847722,-1,-2,-4,-1,0,1,-2,7
1532466847727,-1,0,0,1,1,0,-1,-4
1532466847732,0,-2,-1,1,1,-1,1,-8
1532466847737,0,-1,-1,-1,-1,-2,-1,0
1532466847742,-2,0,1,-2,-1,-4,-2,-2
1532466847747,0,-2,-2,-2,-1,-1,-2,5
1532466847752,-3,-1,0,-2,-2,-1,-1,-2
1532466847757,0,-1,0,1,-1,0,-1,-4
1532466847762,-1,-2,-1,-2,-1,-1,0,-1
1532466847767,3,-1,1,-1,-2,-3,0,9
1532466847772,0,0,-2,-1,-2,2,-1,-7
1532466847777,1,-1,0,-1,-1,0,1,11
1532466847782,-1,0,0,-1,-1,-2,-2,-7
1532466847787,-2,2,2,0,-2,-2,-1,1
1532466847792,-2,-2,-2,-1,1,1,2,7
1532466847797,-2,0,0,-2,-2,1,-3,-3
1532466847802,-1,-1,-1,-1,-1,-2,2,-1
1532466847807,0,0,1,1,0,-1,0,-3
1532466847812,0,1,0,-1,-1,0,1,6
1532466847817,-1,-1,-1,0,0,1,2,-5
1532466847822,-1,-5,0,0,0,2,-1,-4
1532466847827,5,3,-2,-2,-1,0,-2,5
1532466847832,2,-1,-2,-2,0,-3,-4,0
1532466847837,-7,0,1,1,0,0,0,-11
1532466847842,2,-2,-4,-1,0,-2,-1,-1
1532466847847,-5,-3,-2,0,-2,-3,1,-4
1532466847852,2,8,-1,0,0,3,1,4
1532466847857,5,-5,0,-3,-3,-7,-3,1
1532466847862,0,3,3,1,-1,2,0,6
1532466847867,-6,-8,-3,-2,2,6,-1,-16
1532466847872,-2,-2,2,0,2,-1,2,6
1532466847877,5,2,-2,-1,0,-6,-1,6
1532466847882,-8,-1,0,-1,-2,-1,1,-2
1532466847887,1,1,1,0,-2,-1,0,-6
1532466847892,-2,3,-1,-1,-3,-2,-3,0
1532466847897,5,-1,0,-1,1,3,0,-12
1532466847902,-4,2,-2,-1,-2,-2,-4,10
1532466847907,0,-3,-1,-1,0,2,1,-1
1532466847912,-6,-4,-1,0,0,-4,-1,-10
1532466847917,-6,1,-4,0,-3,-6,-11,-8
1532466847922,3,-8,0,-1,0,1,7,3
1532466847927,-3,5,0,2,5,-8,4,2
1532466847932,-5,-7,0,-2,-4,-3,3,8
1532466847937,2,0,-5,-3,-2,1,0,2
1532466847942,6,3,1,-1,0,7,2,-10
1532466847947,-6,-3,0,-3,-3,-1,-7,0
1532466847952,2,-4,0,1,2,2,2,-3
1532466847957,-6,1,1,0,-1,1,2,8
1532466847962,1,0,-2,-1,-2,-8,-7,0
1532466847967,1,-1,-4,0,-1,3,6,-3
1532466847972,1,1,0,-1,-3,3,-4,-4
1532466847977,-3,-2,-2,0,-2,-6,-3,-4
1532466847982,-5,-1,-3,-2,0,3,4,-2
1532466847987,12,8,6,0,0,-7,0,10
1532466847992,-2,-6,-11,-2,-2,2,-4,0
1532466847997,-6,-2,0,0,0,3,2,-14
1532466848002,0,1,-3,-1,-2,-5,-2,8
1532466848007,-1,0,-2,-2,-1,1,0,3
1532466848012,0,-1,0,-1,-2,-3,-1,-6
1532466848017,0,-1,0,-1,1,1,1,3
1532466848022,-1,-1,0,-1,-1,4,-1,-9
1532466848027,-3,-2,-2,0,-3,-5,-6,-2
1532466848032,-2,1,0,0,1,-4,2,-6
1532466848037,3,-1,-3,-2,-1,-4,-1,11
1532466848042,1,1,0,1,0,0,1,-3
1532466848047,-3,-4,-3,-1,1,2,3,7
1532466848052,-3,-1,1,-2,0,-1,-1,-11
1532466848057,0,2,0,1,1,6,3,3
1532466848062,2,4,-1,-1,-3,-4,-1,-6
1532466848067,-3,-5,0,-1,-2,-3,-1,12
1532466848072,-6,-3,-1,-3,-2,-4,-3,-6
1532466848077,-2,0,-1,0,0,-1,0,-7
1532466848082,2,-2,-1,-1,-1,-1,-3,6
1532466848087,1,2,-2,0,-1,-1,-4,-4
1532466848092,-2,-2,1,-1,-1,-2,2,-1
1532466848097,-1,-4,-2,-1,-2,3,-2,3
1532466848102,0,-2,-1,-1,-2,-3,-3,-4
1532466848107,-1,-1,-2,-2,-2,0,1,-3
1532466848112,-1,-2,-1,-1,-1,0,-1,5
1532466848117,-2,0,0,2,2,0,-1,-12
1532466848122,-4,-3,-3,-2,-5,-4,0,2
1532466848127,0,0,-1,-2,1,2,-2,-4
1532466848132,1,-3,-1,1,-1,1,-2,7
1532466848137,1,0,0,0,2,-3,-2,-4
1532466848142,-3,-1,-2,0,1,-6,1,-10
1532466848147,-2,-1,0,-2,-7,3,-1,-2
1532466848152,2,3,-2,-2,-2,-1,0,3
1532466848157,1,1,1,-1,-2,1,0,8
1532466848162,0,-2,-1,0,3,2,-1,8
1532466848167,-4,-1,-3,0,-1,-5,-1,-8
1532466848172,0,1,1,-1,0,-1,0,-9
1532466848177,0,-4,-1,-1,-2,-1,-2,3
1532466848182,-2,-2,1,0,-1,0,2,1
1532466848187,-3,-1,-1,0,-2,0,0,3
1532466848192,1,-1,0,0,0,-1,-2,0
1532466848197,-3,-2,-2,-1,-2,-1,-1,-2
1532466848202,2,0,0,-2,-1,1,0,2
1532466848207,-2,-3,-1,-1,-2,-3,-2,-2
1532466848212,-1,0,0,0,-1,-2,-1,-2
1532466848217,-1,2,0,-2,-1,-1,1,-1
1532466848222,-2,-5,-3,-2,-2,10,1,4
1532466848227,4,3,0,1,5,-5,0,-14
1532466848232,0,-6,0,2,3,-6,-1,9
1532466848237,-1,-1,-1,-1,-2,-2,-2,-7
1532466848242,3,-1,-4,-2,-4,-2,1,6
1532466848247,-1,0,0,0,-1,5,-8,3
1532466848252,0,-2,2,2,2,-1,15,-1
1532466848257,3,-2,0,1,1,2,1,1
1532466848262,0,0,1,-1,-1,4,-5,2
1532466848267,0,-2,-2,-1,-3,-7,8,-1
1532466848272,1,3,-1,-1,-2,-5,-8,-10
1532466848277,-3,-2,-2,-2,-1,5,0,13
1532466848282,-4,2,1,-1,1,-9,-2,-1
1532466848287,-3,-2,-2,-2,-1,1,-2,-4
1532466848292,0,-2,-1,-2,-2,4,2,0
1532466848297,-1,-2,-1,1,-1,0,3,1
1532466848302,-2,1,-2,-1,-1,-2,-2,-13
1532466848307,0,-3,-1,0,0,-2,3,7
1532466848312,3,3,0,1,-2,1,-2,10
1532466848317,-2,0,0,-2,-2,-1,-2,-3
1532466848322,0,-1,0,0,1,0,0,0
1532466848327,-3,-1,-1,-3,-3,-3,0,-7
1532466848332,-1,1,-2,-2,0,2,-3,-4
1532466848337,-3,1,0,-2,-2,-4,-2,-3
1532466848342,-1,0,-2,-2,0,-5,-3,8
1532466848347,0,-2,0,0,1,-1,0,-8
1532466848352,-1,0,-1,0,0,4,-1,-2
1532466848357,2,0,0,0,0,-2,-4,-10
1532466848362,-1,-1,0,0,0,0,2,1
1532466848367,1,0,-1,0,-1,0,-2,2
1532466848372,-1,-3,-2,-2,-1,-2,-1,1
1532466848377,-3,-1,-2,-3,-1,-4,-1,-7
1532466848382,-1,1,0,1,0,3,3,4
1532466848387,-3,-1,-1,-2,0,1,-3,4
1532466848392,-2,-1,-2,-1,-2,-4,-2,-7
1532466848397,2,0,-1,-1,0,-3,-1,-5
1532466848402,1,0,-1,1,-3,-3,-1,-3
1532466848407,1,-1,0,0,0,3,-1,5
1532466848412,0,1,0,-1,-1,-1,1,2
1532466848417,-5,-2,-2,-1,0,0,-1,-6
1532466848422,-2,0,-1,2,-1,-2,0,-3
1532466848427,1,-3,-2,-1,0,-1,-2,-5
1532466848432,2,0,0,0,0,-1,-2,0
1532466848437,1,-1,0,0,-1,-1,1,7
1532466848442,-2,0,-1,0,-1,-1,-1,-3
1532466848447,-3,-4,-3,-3,-2,-1,0,-1
1532466848452,0,0,-1,0,-2,0,1,3
1532466848457,-1,-1,-1,0,-2,1,0,-1
1532466848462,1,-2,0,-1,0,-2,-2,-5
1532466848467,-1,-1,-1,-1,-3,-1,-1,-2
1532466848472,0,0,-1,-1,-1,-3,0,6
1532466848477,1,1,-1,0,1,-1,-1,4
1532466848482,-2,-2,-1,-1,-1,-1,-1,-9
1532466848487,0,0,-1,-1,0,-2,0,-3
1532466848492,-3,-2,0,-2,0,-1,-1,-2
1532466848497,-1,0,-1,-2,1,1,0,-1
1532466848502,1,0,-2,-2,-1,-1,-4,1
1532466848507,1,-3,-1,0,-1,-2,0,-1
1532466848512,-2,-1,-2,0,0,3,0,1
1532466848517,-2,-1,0,-2,-2,-5,-2,-2
1532466848522,-1,-2,-2,0,-1,0,-1,1
1532466848527,0,2,0,-2,-2,0,0,-4
1532466848532,-1,-2,0,-1,-2,-3,-4,-2
1532466848537,-2,-3,0,-1,-1,1,0,0
1532466848542,0,-1,1,0,2,-1,0,5
1532466848547,-2,1,0,1,-1,0,1,-1
1532466848552,-1,0,0,0,0,-2,1,-3
1532466848557,-2,2,0,1,-1,-2,0,-4
1532466848562,-1,-4,-1,-1,-1,-1,-4,1
1532466848567,1,1,1,0,-1,0,0,3
1532466848572,-3,0,-1,-3,-1,-1,-2,-3
1532466848577,0,-1,-2,-2,-1,-1,-2,1
1532466848582,5,3,3,0,1,2,-2,4
1532466848587,-5,-1,-2,-1,0,-2,-1,0
1532466848592,-1,-1,-2,0,-2,-1,-2,-1
1532466848597,-2,-3,0,-1,-2,-2,0,3
1532466848602,-5,-3,-2,-2,-2,2,-2,-8
1532466848607,-1,0,0,1,-1,1,0,-6
1532466848612,-1,-2,-3,-2,1,-3,-3,2
1532466848617,-5,-1,-2,0,-1,2,2,-3
1532466848622,0,1,-1,-2,-2,3,-1,-7
1532466848627,2,-1,-1,1,-1,-6,-4,9
1532466848632,-2,-2,0,0,0,2,2,-6
1532466848637,0,-1,-1,-1,0,-2,-2,-10
1532466848642,0,1,-2,-1,-3,-8,-1,6
1532466848647,-5,-1,-1,-1,-1,1,-1,-13
1532466848652,-1,-2,0,0,-1,-2,0,17
1532466848657,4,1,2,-1,0,2,-3,-5
1532466848662,-1,-1,0,1,1,3,2,1
1532466848667,-2,-3,-1,-1,-2,-2,0,0
1532466848672,0,0,1,-1,-1,-1,-2,-5
1532466848677,-1,0,-1,0,-2,0,-1,-6
1532466848682,-2,-1,-1,1,0,1,0,7
1532466848687,-1,0,-1,0,-1,0,1,-3
1532466848692,3,1,0,-1,-1,5,3,0
1532466848697,0,-1,-1,-1,1,3,0,3
1532466848702,-4,-1,-1,-3,-4,-15,-5,-9
1532466848707,0,-1,0,0,-2,-9,-2,4
1532466848712,-1,6,1,-2,-4,-1,1,2
1532466848717,-4,-8,-3,-1,-2,0,-1,1
1532466848722,3,-2,-1,-3,3,6,4,6
1532466848727,-1,0,-1,-2,-1,0,-2,2
1532466848732,0,-1,-2,0,-2,-2,-2,-1
1532466848737,2,2,0,-2,0,-2,-1,-1
1532466848742,-1,0,-1,0,1,7,2,-5
1532466848747,-1,-2,0,-1,1,-2,-2,-5
1532466848752,1,-2,-2,-1,-1,-1,0,3
1532466848757,-5,1,-1,-1,0,-5,0,1
1532466848762,0,-3,-2,-2,-3,-3,-2,1
1532466848767,1,1,-1,-1,1,8,3,-9
1532466848772,-1,-3,-1,0,-1,0,-4,-6
1532466848777,0,0,0,0,0,-3,1,9
1532466848782,-1,-1,0,0,-1,-3,-4,-12
1532466848787,3,-1,0,0,0,-2,0,1
1532466848792,-7,-4,-1,-2,0,-1,0,-5
1532466848797,1,-1,1,-1,-3,-1,-1,-2
1532466848802,-2,-2,-1,-1,0,-1,1,4
1532466848807,3,-1,0,-1,0,-1,0,14
1532466848812,-2,0,-2,-1,0,-6,-4,-9
1532466848817,-2,1,0,-2,-2,1,2,-1
1532466848822,0,0,-1,0,-2,0,-1,-8
1532466848827,0,3,0,1,-2,1,0,-3
1532466848832,-1,-3,0,-1,-1,2,-1,4
1532466848837,0,-2,-1,-1,-1,-2,0,2
1532466848842,-1,0,-1,-1,0,0,-1,-6
1532466848847,0,-3,-1,-3,-1,1,-1,10
1532466848852,1,0,-2,0,1,-5,-2,-9
1532466848857,2,2,-1,1,0,3,0,-5
1532466848862,-2,-2,-1,-1,-2,-2,0,0
1532466848867,-1,-2,0,-3,-2,-2,-1,-1
1532466848872,-2,-2,-1,-1,1,-1,0,-2
1532466848877,-1,0,1,1,0,1,1,4
1532466848882,2,0,-3,0,-1,-1,1,5
1532466848887,-2,0,-1,0,-1,-2,-4,-4
1532466848892,-4,-1,-2,-3,-3,-1,0,-4
1532466848897,1,1,-1,-1,0,-1,-1,2
1532466848902,-1,1,1,-2,-1,-3,-3,-2
1532466848907,1,-2,-1,-1,-1,-1,0,-3
1532466848912,-1,-3,0,1,-1,0,-2,0
1532466848917,-2,1,-1,-1,0,0,-1,1
1532466848922,-3,-3,-2,0,-1,-1,2,-4
1532466848927,1,2,-3,-3,-2,-2,-2,-4
1532466848932,0,0,0,0,1,-1,1,-4
1532466848937,2,-2,-1,-2,-2,-2,-1,5
1532466848942,0,1,0,-2,-2,-1,-1,1
1532466848947,-5,-2,-1,0,-1,-2,0,-1
1532466848952,1,-1,1,0,-2,-1,0,3
1532466848957,-1,-1,0,-2,-2,-1,-3,-1
1532466848962,-3,0,1,1,0,0,0,-3
1532466848967,5,2,-2,-1,0,0,-3,2
1532466848972,-3,-3,-2,-1,-1,-2,0,-2
1532466848977,2,-1,-1,0,-3,-1,-2,0
1532466848982,-1,-4,-2,-2,0,-1,-2,-3
1532466848987,-8,0,1,1,1,-1,1,-3
1532466848992,2,-3,-1,-2,-1,-2,1,4
1532466848997,-2,0,-2,-2,0,0,0,-1
1532466849002,-4,1,-1,0,-1,1,-1,-17
1532466849007,2,-2,-2,0,-2,1,1,11
1532466849012,2,0,0,0,0,0,1,4
1532466849017,-2,-4,-1,-2,0,-3,-1,3
1532466849022,2,-2,-1,-1,-1,0,1,2
1532466849027,-5,-3,0,-2,-2,0,0,-9
1532466849032,0,3,-1,-1,0,0,-1,4
1532466849037,-2,0,0,-1,-1,-1,-2,-8
1532466849042,-2,0,-1,1,-3,-2,0,10
1532466849047,0,-2,-1,-1,-2,-1,-3,-6
1532466849052,1,0,0,0,0,2,0,-2
1532466849057,-1,-3,-1,0,-1,-1,-1,-1
1532466849062,-1,-1,-2,-2,1,0,-1,6
1532466849067,-4,-3,0,-2,-2,-2,0,-9
1532466849072,2,1,-1,-2,-2,0,-4,-4
1532466849077,-3,-1,-1,0,-1,-2,0,-1
1532466849082,-2,-1,-1,-1,1,0,-1,-5
1532466849087,1,-2,-1,-3,-1,-1,1,-1
1532466849092,-3,-1,-3,-2,0,0,2,-4
1532466849097,0,0,-2,-2,-2,-1,0,1
1532466849102,1,0,1,0,1,0,-2,2
1532466849107,-1,-1,-2,-2,-1,-1,-1,2
1532466849112,-2,-1,1,-1,-2,0,2,-3
1532466849117,-1,0,0,-1,-2,-1,-2,-3
1532466849122,2,-1,-2,0,-1,-1,0,4
1532466849127,-2,-2,-1,0,0,-1,-4,-1
1532466849132,-1,-1,-2,-1,-1,-1,-1,-3
1532466849137,0,-1,0,-2,0,0,1,6
1532466849142,-2,1,0,-1,-2,-1,-1,0
1532466849147,1,-3,0,1,1,1,2,-6
1532466849152,-2,-1,-1,0,-2,-3,-2,3
1532466849157,-1,0,-1,-2,-1,-6,-4,-10
1532466849162,1,-1,0,-1,-2,0,-2,0
1532466849167,-1,0,0,-1,-2,2,1,-3
1532466849172,-1,-3,-1,-2,0,-6,-3,14
1532466849177,0,-1,-1,0,1,0,1,-3
1532466849182,3,-1,-1,0,0,0,0,6
1532466849187,1,0,-1,-1,0,2,-4,1
1532466849192,-1,1,0,-1,-2,-1,-3,-7
1532466849197,-1,-1,-2,1,-1,-5,1,5
1532466849202,-3,-1,0,-2,-1,-1,-1,-11
1532466849207,-1,2,-1,-1,-1,0,0,7
1532466849212,2,-1,-1,-2,2,5,0,-4
1532466849217,-1,-1,-1,0,-2,-2,-1,4
1532466849222,-3,-1,-2,-1,0,-1,1,-9
1532466849227,-2,0,-1,1,-2,-1,-3,-8
1532466849232,1,-1,-1,0,-1,-1,0,-4
1532466849237,0,-2,0,0,-1,2,2,8
1532466849242,-3,-3,-2,-2,-2,-2,-1,-3
1532466849247,-3,-1,-1,-1,-3,1,0,8
1532466849252,0,0,0,-3,-1,-7,-2,-13
1532466849257,-1,0,0,-3,-2,0,-3,-5
1532466849262,2,0,-1,-2,-1,-2,-3,10
1532466849267,-2,-1,-2,-1,1,0,2,-6
1532466849272,-3,-1,-1,-1,-2,1,-1,-7
1532466849277,0,-1,-1,-1,-1,2,-2,1
1532466849282,4,3,1,0,0,2,2,-4
1532466849287,-3,-1,-2,-2,0,-2,-2,0
1532466849292,0,-1,-1,0,0,-5,1,3
1532466849297,-3,0,-2,-2,-1,4,1,-4
1532466849302,-1,-1,-1,-1,-1,2,-3,6
1532466849307,2,-2,0,1,-1,-19,-1,1
1532466849312,0,-2,-1,-1,0,1,1,8
1532466849317,-1,1,0,-2,2,0,-1,-4
1532466849322,-3,-2,0,-1,1,3,1,-12
1532466849327,1,-1,-1,-2,0,4,0,12
1532466849332,1,1,0,0,0,2,-1,-4
1532466849337,-2,1,0,-1,0,0,1,-4
1532466849342,-3,-2,0,-2,-4,-4,-3,2
1532466849347,2,1,1,-2,-1,0,-1,-2
1532466849352,2,-1,0,-1,-1,-2,-2,5
1532466849357,-8,-4,-1,-4,-1,3,-3,-7
1532466849362,-2,-1,0,0,0,-2,2,0
1532466849367,3,-2,-1,-2,1,1,-3,10
1532466849372,-5,-1,-2,0,0,0,1,2
1532466849377,7,3,0,2,0,-1,-2,-2
1532466849382,-4,-2,-1,-1,-4,-12,-5,-8
1532466849387,-6,-1,-1,0,-1,1,4,-1
1532466849392,2,4,-2,-1,0,2,-7,-11
1532466849397,-3,-4,-3,0,-1,1,1,-9
1532466849402,1,-1,-1,0,-1,-4,-1,6
1532466849407,2,1,-1,1,0,-1,1,0
1532466849412,-1,-3,0,-2,-1,-1,3,9
1532466849417,-1,0,-1,-2,-1,0,1,-2
1532466849422,2,0,-1,-2,0,3,0,3
1532466849427,-4,-1,0,-1,-1,3,0,-10
1532466849432,-3,-2,-2,0,0,-4,0,-6
1532466849437,4,0,-2,0,-1,-6,-2,6
1532466849442,-2,0,0,-1,-2,2,1,-4
1532466849447,-1,-1,0,-1,1,2,0,1
1532466849452,1,0,-1,-1,0,0,-3,-8
1532466849457,0,-1,0,-3,-3,-2,5,7
1532466849462,-2,-2,-2,-2,-1,3,-9,2
1532466849467,2,1,0,-1,0,7,-2,-2
1532466849472,-2,-1,-1,1,-3,-20,-3,-4
1532466849477,-3,-4,-2,-1,-1,-9,-14,-4
1532466849482,0,-1,-2,-1,0,4,8,-15
1532466849487,0,0,0,-2,-5,-34,7,8
1532466849492,0,0,2,-1,0,47,-3,-5
1532466849497,4,1,1,1,0,-7,12,2
1532466849502,0,-1,-2,0,-1,1,-11,19
1532466849507,2,-1,-2,0,0,3,8,-3
1532466849512,-6,-2,-3,-1,-4,-18,-12,3
1532466849517,-3,-3,-1,1,-2,6,9,-5
1532466849522,4,0,0,-1,2,4,-6,-10
1532466849527,-1,-3,-2,-1,0,-1,-6,-9
1532466849532,1,-1,-1,-1,-3,-10,5,18
1532466849537,-3,0,0,-1,0,-7,3,-8
1532466849542,-1,0,0,1,0,-3,-6,-6
1532466849547,-4,-1,-1,-1,-2,-3,-8,4
1532466849552,6,2,1,1,0,16,21,8
1532466849557,-3,-4,-1,0,-3,-5,-30,-6
1532466849562,-1,-2,0,-2,-2,-4,-8,1
1532466849567,-6,-2,-3,0,1,12,-1,-16
1532466849572,-3,-1,-1,1,-3,-18,-58,-27
1532466849577,9,1,0,-1,3,10,44,51
1532466849582,-6,-1,0,1,3,-7,13,-11
1532466849587,0,-2,-2,-3,-13,2,-1,-1
1532466849592,-2,0,2,-1,10,23,39,11
1532466849597,5,-1,-1,0,-3,4,-14,0
1532466849602,-1,-2,-2,-1,-7,3,-3,11
1532466849607,-3,-1,0,0,2,-13,5,-6
1532466849612,-1,-3,0,-2,-1,-5,0,-3
1532466849617,1,1,-1,0,-4,1,-12,-17
1532466849622,0,-2,-2,-2,1,-3,27,10
1532466849627,2,3,2,2,2,9,-35,-5
1532466849632,-1,-2,-3,-2,-1,-8,20,21
1532466849637,-3,-1,0,-2,2,1,-9,-11
1532466849642,-2,3,-2,-1,-2,-4,-13,-1
1532466849647,1,-3,-2,-1,4,11,16,2
1532466849652,-1,1,0,-1,2,0,-24,-19
1532466849657,-1,-3,-3,-3,-1,-10,21,11
1532466849662,-4,2,0,1,-1,-3,-34,-24
1532466849667,6,-1,-1,-3,2,3,26,8
1532466849672,-2,-3,-3,-2,-14,-17,5,11
1532466849677,1,3,0,-3,-6,1,6,2
1532466849682,3,-1,1,2,8,4,3,5
1532466849687,2,-2,-4,-6,-20,-11,0,10
1532466849692,-5,-9,-2,4,8,10,6,-19
1532466849697,-1,5,1,1,0,-14,-29,-4
1532466849702,-5,-1,-3,-12,-34,0,2,-5
1532466849707,6,5,2,2,4,-3,-15,-10
1532466849712,-7,-2,0,-1,2,1,18,-18
1532466849717,3,-3,-3,-2,-1,3,-3,15
1532466849722,2,-3,1,5,9,-2,17,19
1532466849727,-5,-2,-1,0,2,0,5,-9
1532466849732,1,2,-5,-3,-3,-8,-27,9
1532466849737,-6,-2,1,1,4,6,1,-12
1532466849742,5,1,-2,-2,0,-6,-9,-2
1532466849747,-2,-1,0,1,-1,0,-8,2
1532466849752,2,-1,0,0,4,4,8,10
1532466849757,-3,-5,-1,-3,-7,-4,-16,-14
1532466849762,2,3,-2,-3,-1,-1,10,8
1532466849767,-5,-6,0,3,7,1,-21,-16
1532466849772,3,3,0,-1,-5,-5,-2,2
1532466849777,-4,-1,-3,-3,3,5,-27,-13
1532466849782,0,1,0,1,2,1,4,8
1532466849787,0,-6,-2,-3,-3,-7,9,5
1532466849792,11,6,2,2,5,8,2,2
1532466849797,-10,-10,-4,1,-4,-5,1,2
1532466849802,-1,0,1,2,2,5,11,-6
1532466849807,-11,-3,-2,2,2,11,8,-5
1532466849812,10,2,0,-1,-2,-4,4,22
1532466849817,2,3,1,1,3,11,14,-11
1532466849822,-6,-5,-3,0,3,-12,-5,1
1532466849827,-1,-2,-4,-2,-6,-4,-5,1
1532466849832,-1,-2,-1,1,-4,4,15,2
1532466849837,-6,0,0,-1,1,-1,-4,-3
1532466849842,-3,-4,-1,-3,-4,-1,-4,-11
1532466849847,3,2,1,-1,-1,-4,-6,-5
1532466849852,-4,0,-1,0,0,4,-7,5
1532466849857,2,-1,-2,-1,0,-3,10,1
1532466849862,2,-1,-2,0,1,-2,5,-5
1532466849867,1,1,2,0,2,2,-5,5
1532466849872,-3,-5,-2,-3,-5,-11,-6,-7
1532466849877,-3,-3,0,1,1,1,11,7
1532466849882,-1,-2,-1,0,0,2,-13,-18
1532466849887,4,2,0,-1,-1,-6,4,3
1532466849892,-8,1,0,-3,-1,4,7,4
1532466849897,1,-2,-2,-2,0,-4,-8,-21
1532466849902,-1,-3,-2,-1,1,-2,2,0
1532466849907,1,1,-1,-2,-1,-2,1,10
1532466849912,-6,-3,-2,-2,-1,-3,0,-17
1532466849917,1,1,0,-1,0,4,3,13
1532466849922,2,-1,0,-2,-2,0,-3,-1
1532466849927,-7,0,0,1,0,-5,-2,-1
1532466849932,-1,-1,-1,-2,-4,-2,-7,-3
1532466849937,1,4,-2,-2,-2,1,3,4
1532466849942,0,-1,-1,0,2,-2,3,-3
1532466849947,0,-2,-3,1,-1,-1,-4,0
1532466849952,-1,-1,1,2,0,-5,-5,-2
1532466849957,0,1,1,0,0,5,5,-3
1532466849962,3,0,1,-1,0,1,7,10
1532466849967,1,1,0,-1,1,4,2,-3
1532466849972,0,-2,-1,-2,-4,-12,-5,-7
1532466849977,4,2,-1,-1,-1,-2,-7,4
1532466849982,-5,-3,-1,-2,-1,0,-8,-4
1532466849987,-2,-1,-2,-3,-2,-4,-8,9
1532466849992,2,-3,-3,-2,2,4,-16,-5
1532466849997,-3,-1,0,0,-1,-4,-4,2
1532466850002,1,0,-2,-2,-3,-2,-1,-3
1532466850007,-1,0,0,1,2,7,1,2
1532466850012,-7,0,1,-1,-2,0,6,-6
1532466850017,4,-1,-2,1,-1,-8,21,-5
1532466850022,-3,-2,-1,-1,-2,0,4,-10
1532466850027,1,4,0,-1,-1,0,-18,16
1532466850032,-2,-3,-1,0,0,0,-28,-3
1532466850037,0,2,0,-1,1,-5,-8,5
1532466850042,-2,-2,0,1,0,3,7,-5
1532466850047,0,-2,-3,-1,-1,-5,6,-7
1532466850052,1,-2,-1,-3,-2,-9,12,5
1532466850057,-7,-2,-2,-2,-2,1,19,-5
1532466850062,1,-1,0,-2,-1,-2,15,10
1532466850067,0,0,1,-1,-1,2,5,-1
1532466850072,1,-3,0,-1,-1,1,5,9
1532466850077,-5,-3,-3,1,-2,-2,-4,-11
1532466850082,1,3,0,1,0,0,-10,4
1532466850087,-3,-4,0,-2,-2,1,4,0
1532466850092,1,1,1,0,1,2,5,-2
1532466850097,3,0,1,-3,0,-1,7,6
1532466850102,-6,-4,-2,-2,-2,-2,1,-9
1532466850107,2,-2,-2,0,-4,1,7,5
1532466850112,-4,1,0,0,-6,-1,-3,-14
1532466850117,0,-1,-1,1,-4,-2,-11,2
1532466850122,2,0,0,2,0,1,-10,10
1532466850127,-4,-3,-1,0,2,-3,-2,-8
1532466850132,1,0,-3,-1,2,2,-3,0
1532466850137,0,0,0,-1,1,-1,-9,1
1532466850142,-2,-4,-1,-2,2,-2,-6,1
1532466850147,-2,-3,0,-1,-3,-1,2,-6
1532466850152,-1,1,-1,0,2,3,2,6
1532466850157,-6,-1,1,1,2,0,-7,-15
1532466850162,0,0,-2,-1,-1,-5,-5,-12
1532466850167,0,1,-2,0,2,0,-2,4
1532466850172,2,-2,-1,-4,-2,0,-2,-1
1532466850177,-2,-2,-4,-4,0,0,2,14
1532466850182,-4,0,0,0,0,3,3,-12
1532466850187,1,1,0,0,0,-4,0,-8
1532466850192,-1,-1,-1,-2,-3,-3,2,3
1532466850197,2,0,0,0,-2,2,1,2
1532466850202,0,-1,0,-2,0,1,-3,7
1532466850207,-1,-1,0,-2,-1,-2,-3,-10
1532466850212,-2,0,1,1,2,-1,-1,0
1532466850217,5,1,-1,1,1,-1,-7,1
1532466850222,3,0,0,-2,-2,-1,-3,4
1532466850227,-3,-1,1,1,-1,0,-1,0
1532466850232,-2,-2,-1,0,-3,-7,0,-16
1532466850237,-3,-1,0,-1,-1,0,0,2
1532466850242,3,1,-1,-1,0,3,-1,8
1532466850247,-3,-1,-1,0,1,4,2,-9
1532466850252,1,0,-1,-1,-3,-2,-1,4
1532466850257,0,0,-1,0,-2,-3,-4,-2
1532466850262,0,0,0,1,0,-6,0,2
1532466850267,-2,-2,-1,-2,-2,-1,1,-3
1532466850272,-1,-2,0,-1,1,1,3,-3
1532466850277,-2,-1,-1,-2,-1,5,4,10
1532466850282,-4,0,0,1,-1,-9,-7,-12
1532466850287,-3,-2,0,-1,-2,-2,1,2
1532466850292,7,5,-1,-1,0,4,0,1
1532466850297,2,8,-3,-2,-4,-6,-2,8
1532466850302,-6,-1,0,0,-4,-3,-2,-8
1532466850307,-1,0,-1,0,1,1,-11,-8
1532466850312,1,-2,-1,-3,-2,0,-2,3
1532466850317,2,-2,-2,-3,0,3,6,10
1532466850322,-4,-3,-2,-3,-2,-1,-6,-9
1532466850327,4,0,0,-1,-1,-10,12,14
1532466850332,-2,-1,0,1,-1,4,-8,-13
1532466850337,0,-2,0,0,-1,-3,-10,4
1532466850342,-3,-3,-2,0,-1,0,3,-5
1532466850347,-5,-2,0,-2,-1,8,0,-4
1532466850352,1,-1,-1,-1,-1,-4,3,-1
1532466850357,2,0,-1,0,1,2,0,-2
1532466850362,-1,-3,0,1,0,-3,-1,6
1532466850367,0,0,0,0,-2,1,-2,-5
1532466850372,0,-1,-2,-1,0,0,1,8
1532466850377,-3,-2,-2,-1,-6,0,2,1
1532466850382,1,1,-1,-2,-1,-5,3,-1
1532466850387,-1,-1,0,0,5,1,1,-3
1532466850392,-1,0,-1,-4,-6,0,-6,-2
1532466850397,3,-2,0,-1,-1,-1,-4,0
1532466850402,-2,0,-2,-1,-2,-1,17,8
1532466850407,-2,0,0,2,3,-4,-8,-10
1532466850412,-2,-1,-4,-1,3,3,-2,-6
1532466850417,7,1,1,-1,0,6,5,10
1532466850422,3,-1,-3,-2,-1,-6,2,-4
1532466850427,-9,-6,-1,-2,-2,-5,-19,-6
1532466850432,-2,-1,1,1,1,-5,5,-3
1532466850437,-5,2,0,0,1,-4,-5,5
1532466850442,-2,1,2,2,4,12,11,-2
1532466850447,5,-4,-3,-4,-4,-4,-4,-3
1532466850452,0,0,0,3,1,7,-1,8
1532466850457,-2,-2,-1,-1,1,1,8,-14
1532466850462,-1,1,1,-1,-4,-8,-10,-1
1532466850467,-3,0,-2,-2,-1,-2,6,-5
1532466850472,-1,-2,-3,-3,0,1,-5,14
1532466850477,0,2,0,0,-1,0,8,2
1532466850482,-1,-2,-1,-2,0,-1,-7,-5
1532466850487,6,5,0,0,-3,0,2,2
1532466850492,-1,-1,-2,-1,-3,-2,7,0
1532466850497,-6,-2,0,0,1,-2,-4,-5
1532466850502,1,-1,-2,-2,-1,0,-9,1
1532466850507,-2,0,0,0,-4,-1,3,-3
1532466850512,2,1,1,-2,-2,-4,1,5
1532466850517,2,-3,-2,0,0,5,-2,-1
1532466850522,2,-1,-1,1,0,-2,-2,6
1532466850527,-1,-2,-1,0,0,1,6,7
1532466850532,-4,4,-1,-1,-1,-3,-5,-14
1532466850537,-2,-4,-2,-1,0,-2,-6,-9
1532466850542,0,1,-2,0,-1,4,0,-5
1532466850547,2,-1,0,2,0,2,-4,10
1532466850552,-2,-2,-1,0,0,-4,-2,-7
1532466850557,2,1,-1,-2,0,-2,0,6
1532466850562,-1,-2,-1,-1,-1,-4,-4,-5
1532466850567,-3,0,0,0,1,3,4,2
1532466850572,1,-2,-2,-1,-1,4,-1,-7
1532466850577,-2,-2,-1,-1,-1,-5,6,3
1532466850582,-5,-6,0,-1,-3,-5,-2,-11
1532466850587,-2,1,1,-4,0,-1,2,3
1532466850592,-1,-1,1,-2,1,5,0,-3
1532466850597,0,0,-1,-2,0,-4,-3,-2
1532466850602,0,-1,-2,0,-1,-9,-4,-3
1532466850607,-5,-4,-2,0,0,1,2,3
1532466850612,-2,-1,1,2,-2,0,6,6
1532466850617,-3,0,-2,-1,-2,9,1,-14
1532466850622,3,0,-1,-2,-1,-8,1,11
1532466850627,-2,-2,-1,-1,-1,2,7,-5
1532466850632,1,-1,1,0,0,0,-3,6
1532466850637,-2,-2,-1,-1,-1,-3,-2,2
1532466850642,-3,0,1,0,1,1,-5,-4
1532466850647,2,-1,-1,-1,0,-1,2,1
1532466850652,-3,-3,-2,-4,-3,-2,1,-7
1532466850657,0,-3,-1,-1,-1,0,1,1
1532466850662,-1,0,-1,-1,-1,1,-2,0
1532466850667,0,-1,-1,0,-1,-2,-3,-2
1532466850672,-2,-1,-1,-1,-1,-3,-2,1
1532466850677,-1,-1,-1,-1,0,-3,-4,-10
1532466850682,0,1,0,0,2,3,-7,8
1532466850687,0,-1,-1,1,-2,0,-5,-1
1532466850692,0,1,-2,0,-2,-4,-2,1
1532466850697,-1,0,-2,-2,-3,-6,1,2
1532466850702,-2,-2,-1,-2,-3,3,2,-8
1532466850707,2,0,0,-2,-1,-5,2,3
1532466850712,-5,-1,-2,-2,1,0,1,-5
1532466850717,-1,0,0,1,0,-1,0,-4
1532466850722,-1,-1,-2,-1,-1,1,2,2
1532466850727,1,-1,-1,1,-1,0,-4,-3
1532466850732,3,-1,0,1,-1,0,0,4
1532466850737,0,-1,1,0,-1,-1,-4,2
1532466850742,0,1,-1,-1,2,-1,-1,2
1532466850747,-3,-1,-2,-3,1,-1,-1,1
1532466850752,-3,-2,-2,-2,-3,1,3,-5
1532466850757,-2,-2,0,-1,0,-2,-3,3
1532466850762,5,4,0,0,0,1,-1,-9
1532466850767,3,3,0,0,-1,-3,-3,1
1532466850772,-1,-3,0,-2,1,-1,-2,-7
1532466850777,2,0,-1,0,-1,1,-1,6
1532466850782,0,1,-1,-2,-2,-1,1,7
1532466850787,-3,-2,-1,-2,0,0,0,-9
1532466850792,0,-1,-1,0,0,0,-2,0
1532466850797,0,0,1,0,0,0,-2,-4
1532466850802,-2,-2,0,-1,-2,-2,0,2
1532466850807,-1,1,-1,0,0,3,0,1
1532466850812,1,-2,-1,1,1,2,2,1
1532466850817,2,0,-2,0,-2,-5,1,16
1532466850822,-5,-3,-2,-2,-1,0,-1,-16
1532466850827,-2,-1,-1,0,0,5,0,-8
1532466850832,-1,-2,-1,-1,-3,-4,-3,-1
1532466850837,0,-1,0,0,-1,-3,0,-3
1532466850842,-4,0,-1,0,-1,-3,-1,7
1532466850847,3,-2,0,-1,0,-2,0,2
1532466850852,-3,1,-1,-1,0,0,-2,-6
1532466850857,3,1,-1,-3,1,1,0,-3
1532466850862,-6,-4,-1,-2,-1,-3,1,1
1532466850867,-2,-2,-2,-1,-2,-1,-1,-5
1532466850872,-1,0,-1,1,0,-1,3,-2
1532466850877,-5,-3,0,-3,-2,-3,1,0
1532466850882,4,3,0,0,-1,1,1,-4
1532466850887,2,1,-2,0,-2,-2,0,8
1532466850892,3,-1,1,0,-1,-1,0,3
1532466850897,-4,-1,-2,-2,-2,0,-2,-6
1532466850902,-2,-2,-1,-2,-2,-2,-1,-6
1532466850907,-4,-1,-1,0,0,0,0,-4
1532466850912,-1,0,-1,0,-2,-4,-3,-1
1532466850917,0,0,-1,-1,0,2,-1,6
1532466850922,0,-2,-1,-2,0,1,-2,0
1532466850927,-1,0,-1,-1,-2,-2,-4,-1
1532466850932,-2,-2,0,-1,1,1,-1,0
1532466850937,-1,0,-1,-2,0,-1,-4,-6
1532466850942,0,-1,1,2,0,-1,-1,3
1532466850947,0,-2,-2,-3,-1,-1,3,-8
1532466850952,-3,0,0,-1,-2,-1,2,6
1532466850957,-2,-2,-2,-1,0,1,2,-6
1532466850962,4,0,0,-2,-1,0,-2,1
1532466850967,-2,-1,0,1,0,-1,-1,-4
1532466850972,-2,-2,-3,0,-2,-3,-1,-4
1532466850977,-2,0,-1,0,0,7,2,-2
1532466850982,-1,-1,-2,-1,-1,-4,-1,2
1532466850987,-3,-1,0,-2,-2,-3,2,-5
1532466850992,5,0,-1,-3,-1,0,0,13
1532466850997,-1,-1,-1,1,0,-2,-4,-7
1532466851002,1,-1,-1,1,3,3,3,-3
1532466851007,-1,-3,-2,0,-1,-2,-1,8
1532466851012,-3,-1,-1,0,-1,-1,-4,-12
1532466851017,-4,-1,0,0,1,2,2,-1
1532466851022,0,0,0,1,0,2,0,-2
1532466851027,-4,-2,-2,-3,-3,-5,-1,-20
1532466851032,-1,-3,0,-1,-1,2,4,24
1532466851037,4,2,0,1,-3,-1,-5,-7
1532466851042,-3,-1,-3,0,-2,-2,-3,-2
1532466851047,2,0,0,-1,0,1,1,2
1532466851052,-2,-2,-3,-2,0,-2,-5,-7
1532466851057,-2,-2,-1,-2,-1,-4,-2,0
1532466851062,2,1,0,-3,-4,-2,-3,12
1532466851067,-1,-4,-2,0,2,4,-1,1
1532466851072,-1,0,2,1,0,-4,-3,-7
1532466851077,-1,-2,-2,-2,-2,-2,1,4
1532466851082,-2,-1,-1,0,-2,-2,-1,-8
1532466851087,2,1,1,-2,-1,-2,-1,7
1532466851092,-1,-2,1,-1,0,1,1,-7
1532466851097,-3,-2,-1,-2,2,-1,-1,-4
1532466851102,0,-3,-1,0,0,1,3,11
1532466851107,-1,0,-2,0,0,-1,0,1
1532466851112,-2,0,-2,-1,-2,-2,0,-11
1532466851117,-2,-1,-1,-1,-2,-1,-2,9
1532466851122,-1,-2,-1,-1,0,-2,-4,-8
1532466851127,-1,-1,0,1,-2,-3,-1,6
1532466851132,3,-2,-1,-1,-1,-2,-3,0
1532466851137,-1,-2,0,1,-1,-2,1,-4
1532466851142,-1,0,-1,0,-1,-1,1,-3
1532466851147,-2,-1,-2,1,1,0,-3,-3
1532466851152,0,0,-1,0,-2,0,0,-2
1532466851157,-1,-1,-1,-1,-2,-1,0,4
1532466851162,1,-2,-1,0,-1,2,-1,1
1532466851167,2,2,1,1,-1,-1,-4,-2
1532466851172,-3,1,0,-1,0,0,-2,-7
1532466851177,4,1,0,-1,0,-7,0,14
1532466851182,-4,-1,-1,-2,1,-3,-3,-10
1532466851187,1,-2,-2,-1,0,0,0,10
1532466851192,0,-1,-4,-2,1,-1,-2,-9
1532466851197,-3,0,-1,0,1,2,0,-6
1532466851202,-5,-4,-1,-1,-3,-1,0,1
1532466851207,-1,0,1,-1,-2,-2,-1,-1
1532466851212,0,-2,1,1,0,3,2,4
1532466851217,1,2,-1,-3,-3,-3,0,-2
1532466851222,-3,-2,-2,-2,1,2,0,1
1532466851227,-2,0,0,-3,0,-1,-1,-6
1532466851232,0,-1,-2,0,-2,-3,-1,3
1532466851237,0,-1,-2,-1,-1,0,-2,-3
1532466851242,0,0,-1,-2,1,-3,1,2
1532466851247,-1,0,0,2,1,4,3,-4
1532466851252,-1,0,-2,-1,-4,-1,0,0
1532466851257,-1,-2,-1,0,0,-1,-2,-1
1532466851262,0,1,-2,-2,0,-1,0,-4
1532466851267,0,-1,-1,-2,0,-1,0,4
1532466851272,-2,1,-1,0,2,2,0,-3
1532466851277,-1,-1,2,2,-3,0,0,2
1532466851282,-1,-2,0,-1,-1,1,0,-8
1532466851287,-2,-1,-3,0,-2,-4,-2,-2
1532466851292,0,0,-1,0,-1,-1,1,2
1532466851297,-1,0,-1,-4,-2,-2,0,0
1532466851302,1,-1,1,1,-1,-1,0,8
1532466851307,1,-1,-2,-2,-2,-3,-1,-7
1532466851312,-7,-2,-2,-2,0,0,3,4
1532466851317,1,-1,-1,0,-2,-1,0,-13
1532466851322,0,-1,0,0,-1,2,-1,12
1532466851327,-2,0,0,-2,-1,-3,-1,-4
1532466851332,-2,-3,-2,-1,-2,-2,-3,2
1532466851337,-4,-1,-2,-1,1,-1,1,-2
1532466851342,0,-1,-2,-1,-2,-3,-2,-2
1532466851347,-1,-2,-1,0,1,-1,0,5
1532466851352,1,0,1,-2,-1,-3,-1,0
1532466851357,-2,-2,0,-1,-1,-1,-3,-4
1532466851362,-1,-1,0,-2,-3,-1,0,-4
1532466851367,-1,-2,-2,0,-3,0,-1,1
1532466851372,1,-1,-3,-2,-1,0,0,1
1532466851377,0,-1,-2,-1,0,0,-1,6
1532466851382,1,-1,-1,-1,0,-1,-1,-2
1532466851387,0,1,-1,0,-1,0,0,-2
1532466851392,0,-1,0,-1,-1,-1,-1,-5
1532466851397,-1,-3,-2,-2,-1,-2,1,6
1532466851402,0,0,-2,-2,0,0,-2,2
1532466851407,4,0,0,-1,-2,0,3,13
1532466851412,-9,-3,-2,-3,-1,-1,-2,-8
1532466851417,0,-3,0,-1,0,1,2,-3
1532466851422,0,-1,-1,-1,0,-1,-1,-2
1532466851427,2,4,0,1,-2,-1,5,-5
1532466851432,3,1,0,1,-2,-2,-11,-3
1532466851437,1,4,0,0,0,-1,-2,-5
1532466851442,-6,-3,0,0,-1,0,3,7
1532466851447,-1,-3,-2,0,1,1,-7,-9
1532466851452,3,-1,-2,0,-1,1,5,12
1532466851457,-1,-3,0,0,-2,-2,-7,-3
1532466851462,1,0,-1,-2,-1,-1,0,3
1532466851467,-1,0,0,0,0,-3,0,0
1532466851472,-1,-1,-1,-2,-2,0,0,-3
1532466851477,1,0,1,-1,0,1,-2,4
1532466851482,-2,-2,-2,-1,-1,-1,-1,-6
1532466851487,-2,-2,-1,2,0,0,-4,-2
1532466851492,3,0,1,-2,-1,-3,2,0
1532466851497,-8,-2,-1,-2,0,1,5,3
1532466851502,6,1,1,-2,-2,-3,-4,0
1532466851507,-2,-2,-1,-1,1,1,0,-4
1532466851512,-1,-1,-1,0,0,-2,1,-2
1532466851517,6,3,-1,0,0,-1,-2,-6
1532466851522,-3,-6,-2,-2,-1,-3,-1,9
1532466851527,2,0,1,-1,-1,1,-3,0
1532466851532,-3,-2,-3,0,0,2,3,-5
1532466851537,0,-1,-1,0,-1,-1,-2,8
1532466851542,4,0,-1,-1,-2,1,0,-10
1532466851547,-2,0,0,-2,-1,-2,0,0
1532466851552,-2,0,-1,-1,-1,-2,-2,0
1532466851557,-1,2,-2,-2,-1,-2,0,-2
1532466851562,4,2,0,0,-1,-1,-1,0
1532466851567,-4,-3,-3,-2,-2,-3,0,10
1532466851572,-4,0,-1,0,0,-3,0,-9
1532466851577,2,-4,-2,0,1,3,1,-2
1532466851582,-5,1,1,-2,-1,0,-4,-10
1532466851587,1,-3,-1,-1,-2,-3,0,6
1532466851592,1,1,0,0,-2,0,-1,-1
1532466851597,-2,-1,-3,-1,-2,-4,0,8
1532466851602,-3,-1,-1,0,-1,-1,-1,-9
1532466851607,-1,-1,-2,-2,0,0,-3,-3
1532466851612,-1,-1,0,0,0,-1,0,-2
1532466851617,-1,-1,1,-1,-1,-1,1,5
1532466851622,0,-1,-1,1,1,0,0,0
1532466851627,-8,-5,-2,-3,-2,-2,-2,-11
1532466851632,3,-2,-2,-2,-1,-2,-2,9
1532466851637,-6,-2,-1,-4,-1,-3,-2,-16
1532466851642,-2,0,-1,-1,0,1,2,1
1532466851647,1,-1,0,1,-1,-1,-2,-2
1532466851652,-1,0,-2,-1,1,3,1,-1
1532466851657,-1,-2,-2,-1,-2,-2,0,-4
1532466851662,-2,-3,0,-2,-2,-5,-2,5
1532466851667,1,0,0,1,1,3,1,-1
1532466851672,-3,-2,-1,-3,-4,0,-2,-6
1532466851677,-2,-2,-1,-1,-2,-3,0,-8
1532466851682,0,0,1,-1,1,1,-1,11
1532466851687,1,1,-2,-1,1,4,1,-10
1532466851692,2,-1,-1,0,0,-5,-4,2
1532466851697,-1,-4,-2,-4,-2,1,-2,2
1532466851702,-2,0,-3,-2,-3,0,0,-2
1532466851707,-3,-1,-1,-3,-3,-2,-3,-1
1532466851712,1,0,-1,-1,0,1,0,0
1532466851717,-2,0,0,0,-1,-1,0,2
1532466851722,-1,-2,-1,0,-1,-2,-1,-6
1532466851727,4,1,2,1,2,0,-2,-1
1532466851732,-6,-1,-3,-2,0,1,3,-1
1532466851737,2,1,-2,0,-1,0,-1,0
1532466851742,0,-3,-2,0,0,-1,-1,3
1532466851747,-2,-1,0,-2,-3,-3,3,-4
1532466851752,0,-1,-1,0,-1,-3,-6,0
1532466851757,-1,-2,-1,-1,-4,-1,0,-13
1532466851762,1,1,0,-1,0,0,2,12
1532466851767,2,1,-1,1,-2,-2,-2,6
1532466851772,-3,0,1,-1,0,0,2,-6
1532466851777,-2,0,-1,-1,0,-3,-5,-3
1532466851782,1,-1,-2,-2,-1,-2,-1,-7
1532466851787,-1,-1,-2,-2,-1,0,2,1
1532466851792,2,0,0,0,1,2,2,2
1532466851797,-1,-2,-2,-1,0,-1,-6,3
1532466851802,-1,0,-1,0,0,-1,4,1
1532466851807,-1,-1,-3,0,-2,-4,-4,-5
1532466851812,-5,-3,0,-1,-3,-1,3,-5
1532466851817,0,-1,2,-2,0,0,-9,2
1532466851822,2,0,-1,-2,-2,-1,1,6
1532466851827,-2,2,0,-1,2,0,1,-5
1532466851832,0,0,1,1,0,-1,-2,-1
1532466851837,0,-2,-1,0,-1,0,7,0
1532466851842,-3,-1,-1,-1,-1,1,1,7
1532466851847,0,1,-1,-2,0,-1,-3,-1
1532466851852,0,0,0,-2,-1,-5,1,-3
1532466851857,1,-1,0,2,3,3,4,3
1532466851862,-3,0,-1,0,0,-1,-3,-14
1532466851867,0,-3,0,0,-1,-1,-3,0
1532466851872,-1,0,-1,-1,-2,1,-1,3
1532466851877,-1,-1,-1,-2,-1,-6,-2,1
1532466851882,-3,-2,-1,1,-2,0,-2,-4
1532466851887,-1,0,-1,-1,-3,-1,-1,0
1532466851892,-1,-1,-2,-2,-2,-2,-5,4
1532466851897,0,1,0,0,0,4,3,-2
1532466851902,0,0,-1,0,-2,0,-2,-6
1532466851907,-2,1,0,0,1,-1,1,-1
1532466851912,1,-1,0,-2,-2,-1,1,2
1532466851917,1,-1,-3,-2,-2,-2,0,6
1532466851922,-3,0,-1,-2,-1,-2,-2,-14
1532466851927,-1,-2,-1,0,-1,0,-1,1
1532466851932,2,1,1,1,2,3,0,1
1532466851937,-2,-1,-3,-1,-2,-2,0,1
1532466851942,2,0,0,-3,-3,-4,-4,1
1532466851947,-4,-3,-1,1,2,0,1,-5
1532466851952,-2,-1,-1,0,-1,1,2,-6
1532466851957,0,0,0,-1,-1,-1,0,8
1532466851962,-2,-3,0,0,-1,1,0,-5
1532466851967,2,0,1,-1,-2,0,1,-3
1532466851972,1,0,-1,-1,0,-3,0,7
1532466851977,-3,0,-1,0,-2,0,-1,-7
1532466851982,-3,-4,-3,-2,0,-1,-2,4
1532466851987,0,0,-2,-1,-1,-2,1,1
1532466851992,0,0,0,-1,1,3,1,-14
1532466851997,-1,-2,-3,-2,0,-2,0,-2
1532466852002,3,1,0,-1,0,0,-1,-2
1532466852007,-4,-2,-1,-2,-1,-2,0,9
1532466852012,-2,-2,-3,-1,-2,-2,-2,9
1532466852017,1,-1,-1,1,0,1,0,-7
1532466852022,1,1,-1,-1,-1,-1,-4,2
1532466852027,-2,-3,-2,-1,-2,0,-2,-5
1532466852032,1,1,1,-2,0,-2,1,5
1532466852037,-1,-1,-1,-2,-2,0,-4,4
1532466852042,-1,-2,-1,-1,1,0,0,1
1532466852047,0,-1,-1,-2,0,-1,-2,-4
1532466852052,-2,-3,-2,-1,-1,-1,-2,-10
1532466852057,1,1,-1,0,-1,0,1,11
1532466852062,-1,-6,1,-1,-1,-1,-1,5
1532466852067,2,1,0,-1,-2,0,-1,-13
1532466852072,-5,-2,-1,0,0,-1,-3,-11
1532466852077,-1,-1,-1,0,-1,-3,-1,-1
1532466852082,2,0,-2,-1,-1,-2,1,6
1532466852087,1,-2,-1,-1,0,3,2,8
1532466852092,0,0,1,1,-2,-1,0,6
1532466852097,-1,-2,-1,-2,-1,-1,-2,-8
1532466852102,-3,0,0,0,2,1,2,-1
1532466852107,2,1,-2,0,0,1,-2,-3
1532466852112,1,0,0,-3,-2,0,-3,3
1532466852117,-1,0,-1,-1,-1,-2,-2,-2
1532466852122,-3,0,-2,-3,-1,-1,-1,-3
1532466852127,0,-1,1,-1,-2,0,2,-1
1532466852132,-2,-3,-3,-1,-1,-2,-9,5
1532466852137,2,0,2,1,0,1,-2,-8
1532466852142,-2,-1,0,-1,0,-1,-1,-12
1532466852147,-2,0,0,0,-1,-1,1,2
1532466852152,1,-1,-2,-1,-2,-3,-2,6
1532466852157,0,-1,0,0,0,-3,0,4
1532466852162,-1,-1,-1,-1,0,1,-2,0
1532466852167,0,0,-1,-2,1,-3,-2,0
1532466852172,-1,-2,1,-2,-1,0,4,0
1532466852177,-3,-1,-1,1,0,0,-1,-5
1532466852182,2,0,-1,0,-1,1,1,6
1532466852187,0,0,0,-2,-1,-3,-3,-6
1532466852192,-5,-1,0,0,0,0,1,-5
1532466852197,0,0,-1,-3,-2,0,2,14
1532466852202,-2,-2,-1,-2,-2,-2,-2,1
1532466852207,-1,-1,-1,-2,-3,-2,-2,-10
1532466852212,1,1,-1,0,-1,0,-3,-5
1532466852217,0,0,0,0,0,0,2,2
1532466852222,-1,-2,-2,0,-1,-1,0,0
1532466852227,2,-1,-2,-1,1,-2,-1,14
1532466852232,1,0,0,0,0,0,-1,-3
1532466852237,0,-2,-1,-1,-1,-2,0,7
1532466852242,-1,1,-1,-1,-2,1,-1,-7
1532466852247,-4,-3,0,1,-1,1,-1,-4
1532466852252,0,-1,-2,0,-1,-1,0,-2
1532466852257,-1,0,0,-1,2,1,-1,1
1532466852262,-2,0,0,-3,-1,-1,1,1
1532466852267,0,-2,-1,0,0,-2,-3,2
1532466852272,1,-2,-1,-1,-1,0,2,8
1532466852277,-2,-2,-1,-1,-1,-1,-2,-17
1532466852282,-1,1,1,0,1,0,1,-3
1532466852287,-1,-2,0,-1,0,-1,-3,-1
1532466852292,0,-2,-2,-2,0,-2,1,2
1532466852297,-1,0,0,0,0,-1,0,3
1532466852302,-1,-2,0,-2,0,-2,-1,-10
1532466852307,0,-2,-2,0,1,2,0,4
1532466852312,-2,1,-1,-2,0,0,-3,-1
1532466852317,-1,-4,-1,-2,-3,-1,0,-5
1532466852322,1,-2,0,2,0,-2,0,3
1532466852327,-4,0,1,-1,-3,-3,-1,-1
1532466852332,1,-1,0,1,1,1,3,-7
1532466852337,-5,-2,-2,-2,-2,-1,-2,-12
1532466852342,2,-1,-1,1,1,0,-2,22
1532466852347,-2,-1,-2,0,0,1,0,-7
1532466852352,-2,-2,-2,0,0,0,0,5
1532466852357,3,-1,-3,-3,-1,-1,-3,-8
1532466852362,-1,0,0,0,-1,0,-1,-4
1532466852367,-2,-2,-1,-2,-2,-3,0,3
1532466852372,1,0,1,0,-1,-1,0,-4
1532466852377,-1,-2,0,0,-1,0,-1,4
1532466852382,0,0,-2,-2,0,0,1,-6
1532466852387,0,-2,-1,-4,-1,-2,-1,0
1532466852392,-1,-2,2,0,-1,-3,-3,0
1532466852397,0,1,-1,0,-1,0,0,-5
1532466852402,-1,1,0,0,-1,2,1,-1
1532466852407,-1,1,0,0,-2,0,-1,-4
1532466852412,0,-3,-2,-2,-1,-2,-1,0
1532466852417,1,-2,-1,0,0,0,-2,6
1532466852422,-1,-2,-2,-1,-3,-2,-1,-1
1532466852427,0,0,-1,1,1,0,-2,-11
1532466852432,-1,-2,-1,-1,-1,0,-2,-4
1532466852437,-1,-1,-1,-1,0,1,0,0
1532466852442,1,0,-2,-2,0,-1,-3,2
1532466852447,-2,-2,-3,-2,0,0,1,3
1532466852452,1,-1,0,-2,-2,-1,-1,-1
1532466852457,-6,1,1,-1,-1,-4,0,-8
1532466852462,4,0,1,-1,0,-2,1,1
1532466852467,-5,-1,0,1,0,0,0,4
1532466852472,0,0,-1,-1,-2,-2,1,-2
1532466852477,-2,-1,-1,-1,-1,-2,1,-15
1532466852482,-1,-1,-2,0,-1,-1,0,13
1532466852487,3,0,0,0,-1,0,-1,-5
1532466852492,-3,-1,-1,-2,0,-3,-2,-3
1532466852497,2,-2,-2,0,-2,0,-1,8
1532466852502,-1,-1,1,-1,0,0,-4,-6
1532466852507,-1,-1,-1,-2,-1,0,1,-1
1532466852512,-2,-2,-1,1,-1,-1,-2,6
1532466852517,0,0,0,-1,-1,-1,-2,6
1532466852522,-2,-3,-1,-1,0,-2,0,-12
1532466852527,-3,0,-2,-2,1,-1,1,7
1532466852532,-2,0,-2,-2,0,0,0,-19
1532466852537,-1,-2,0,-3,1,-2,-1,13
1532466852542,3,1,2,-1,-2,1,-4,-5
1532466852547,-2,-2,-1,0,-1,-2,2,3
1532466852552,0,-1,-1,0,-2,-2,-1,-2
1532466852557,-2,-2,-2,-1,0,0,-1,-1
1532466852562,-3,-1,-4,-1,-1,-3,0,-7
1532466852567,3,-2,-2,-2,-1,-2,0,2
1532466852572,0,3,1,3,1,3,0,1
1532466852577,1,-2,-1,-1,-1,-2,-1,10
1532466852582,-3,0,-1,-1,-2,-2,-2,-11
1532466852587,-1,1,-1,-1,-1,-3,-1,-7
1532466852592,-1,-2,-2,-1,-3,-1,0,0
1532466852597,-1,0,-1,0,0,-2,-3,-1
1532466852602,-2,1,-1,0,-1,0,2,-1
1532466852607,3,2,-1,0,-2,1,-4,5
1532466852612,-1,-1,-1,-2,-2,0,2,3
1532466852617,1,0,1,0,0,1,0,-1
1532466852622,-1,-1,-1,-3,0,-1,0,2
1532466852627,-3,-2,0,-1,-1,0,-1,-8
1532466852632,2,0,-1,-1,-2,-5,-3,4
1532466852637,0,1,-1,0,-1,-1,-1,-7
1532466852642,1,-1,0,0,0,-1,-1,-1
1532466852647,-5,-2,-3,-3,-1,-2,-2,8
1532466852652,-2,-2,-2,-2,-1,0,0,-7
1532466852657,-2,-1,1,1,0,1,0,-9
1532466852662,3,0,1,0,0,-1,0,4
1532466852667,2,-3,-1,0,0,1,-1,2
1532466852672,-1,-2,-1,-3,0,-3,-1,-2
1532466852677,0,0,-1,0,-1,-2,-1,7
1532466852682,-1,-2,-1,0,-1,1,1,-5
1532466852687,1,-1,0,-1,-2,-1,1,12
1532466852692,-2,-1,-1,0,-1,1,-4,-10
1532466852697,0,-2,1,-2,2,0,-1,-9
1532466852702,-3,-1,-3,-2,-3,-3,-3,4
1532466852707,0,2,1,1,0,0,4,-3
1532466852712,-1,0,0,-1,-2,-3,-4,-2
1532466852717,0,1,1,-1,-2,1,1,11
1532466852722,-4,-5,-1,0,0,-2,-2,-3
1532466852727,3,1,-2,0,0,0,-1,-8
1532466852732,2,0,0,0,1,-1,1,2
1532466852737,1,0,-2,-1,-3,1,-2,-3
1532466852742,0,-1,-1,-1,0,-1,0,3
1532466852747,-2,-2,-1,-1,-1,-3,-4,-6
1532466852752,0,-1,-3,0,0,1,5,6
1532466852757,-1,0,-2,-2,-1,-2,-3,-5
1532466852762,1,-2,-2,-1,-1,-1,1,5
1532466852767,-1,2,0,-2,-1,-2,0,-9
1532466852772,1,0,0,-2,0,0,2,10
1532466852777,-1,0,-1,-2,-1,0,1,-2
1532466852782,-1,-1,-1,-1,-3,-1,-1,-1
1532466852787,1,-2,-1,-2,-1,0,-1,6
1532466852792,0,0,0,-1,1,0,0,-3
1532466852797,-1,-1,-2,0,0,-1,0,-7
1532466852802,1,0,0,0,0,1,-5,-3
1532466852807,0,-1,-1,-1,-3,0,-1,2
1532466852812,2,1,1,-1,-1,-1,-1,5
1532466852817,-5,-4,-1,0,-1,-1,-3,-3
1532466852822,-2,1,0,0,0,1,1,-3
1532466852827,-2,-2,-1,-1,1,0,-2,2
1532466852832,1,0,-1,-1,-1,0,-2,-8
1532466852837,-2,1,1,0,0,-2,1,-3
1532466852842,-4,-2,-2,-3,-3,-2,-1,-3
1532466852847,1,-1,-1,1,1,0,1,1
1532466852852,-1,0,-1,-1,-1,-1,-4,-5
1532466852857,1,-1,0,-1,-2,-1,0,10
1532466852862,-1,0,-1,-1,0,-2,-1,-6
1532466852867,-1,0,-1,0,0,0,-1,-12
1532466852872,0,-2,-2,0,-1,-3,-1,5
1532466852877,1,-2,0,-3,-2,-1,0,5
1532466852882,-2,-1,0,-2,0,0,-2,-4
1532466852887,-1,0,-1,0,-1,-3,0,-2
1532466852892,0,-2,0,0,-2,-1,-2,-6
1532466852897,1,-1,-1,-1,-1,0,1,5
1532466852902,0,-1,0,-1,-2,1,0,10
1532466852907,-3,-2,0,-1,-2,-4,-4,-9
1532466852912,-3,-2,-1,-2,0,0,0,0
1532466852917,1,0,-2,1,1,0,0,4
1532466852922,1,-3,1,-2,-1,-1,1,8
1532466852927,-5,-1,0,-1,-1,0,0,-13
1532466852932,0,-1,-2,0,0,0,-1,-3
1532466852937,1,1,-1,-2,-1,0,-1,-5
1532466852942,-1,-2,-1,-2,-1,0,3,3
1532466852947,1,-2,-1,0,0,-1,0,2
1532466852952,-2,-1,-1,-1,-2,-3,0,11
1532466852957,1,-1,-1,1,1,0,0,-9
1532466852962,1,1,1,1,-2,-2,-3,-2
1532466852967,2,0,-1,-4,-3,-1,0,22
1532466852972,-2,-2,-2,-2,-1,-1,-1,-25
1532466852977,-2,-1,0,0,0,-1,-1,-4
1532466852982,0,-1,-1,0,1,-1,0,-6
1532466852987,0,0,-1,-1,-2,-2,-2,7
1532466852992,-1,0,1,-1,-3,-2,-3,3
1532466852997,-1,0,-2,-1,-1,0,-1,3
1532466853002,-1,1,-3,-2,1,-1,-1,-7
1532466853007,-2,-4,0,2,-1,0,-1,-8
1532466853012,-2,-1,-1,-1,-1,-2,0,15
1532466853017,-3,0,-1,0,-2,-2,-1,-11
1532466853022,-2,-1,-1,-1,-1,-2,-2,-3
1532466853027,2,-1,-2,-1,-1,1,2,4
1532466853032,0,0,0,1,0,-1,0,10
1532466853037,-1,-2,0,-1,-3,-1,-2,-6
1532466853042,0,1,0,-1,-1,-1,-2,0
1532466853047,-2,0,-2,-2,0,0,0,-8
1532466853052,-6,-1,-2,0,1,0,1,-8
1532466853057,4,1,-1,-1,0,0,-2,10
1532466853062,1,0,-1,1,1,1,0,-4
1532466853067,0,-1,-1,-1,-1,-2,-5,-1
1532466853072,0,-1,1,0,-1,2,0,-5
1532466853077,-4,-1,-1,-1,1,-1,1,1
1532466853082,0,-1,-1,-1,-2,0,-1,1
1532466853087,1,-1,-1,-1,2,1,-1,-2
1532466853092,0,-2,-1,-2,-2,-1,-1,-4
1532466853097,1,-1,0,-2,-1,-2,2,10
1532466853102,-2,-1,-1,0,0,-1,-2,-6
1532466853107,2,1,-1,-1,-1,-2,3,10
1532466853112,0,1,-2,-1,0,1,-3,-2
1532466853117,0,-3,-1,-2,-4,-2,-1,-2
1532466853122,-2,-1,-1,0,-1,0,0,3
1532466853127,-2,-2,-1,1,-2,0,0,-5
1532466853132,1,1,-2,-3,0,1,-1,-2
1532466853137,-1,-1,-1,-1,0,-3,-3,5
1532466853142,0,0,1,0,-1,-1,1,0
1532466853147,-4,0,0,-1,1,0,-4,-7
1532466853152,0,-1,-1,-1,-1,-2,1,-2
1532466853157,-3,-3,-1,0,-2,-2,-3,-3
1532466853162,-1,-3,-2,-1,0,-1,0,-8
1532466853167,-1,1,1,-1,-2,-2,-2,3
1532466853172,-2,0,-1,-2,-1,-2,-1,-3
1532466853177,-1,-2,-1,0,1,1,3,3
1532466853182,2,1,0,2,0,-3,-1,2
1532466853187,-3,-1,-1,-1,-1,-1,-2,-6
1532466853192,1,-1,0,0,0,-1,0,1
1532466853197,1,0,-1,-1,-2,-3,-1,3
1532466853202,1,0,0,-1,-1,0,1,0
1532466853207,-4,-2,0,0,-1,0,1,-9
1532466853212,-2,0,-1,-2,1,-1,-1,0
1532466853217,0,-1,0,-1,1,2,1,-8
1532466853222,3,0,-2,-1,-1,-1,-3,8
1532466853227,-1,0,-1,-1,-2,1,-1,4
1532466853232,-2,-1,-2,0,-1,-1,-2,-2
1532466853237,2,-1,2,1,1,1,-3,-4
1532466853242,-4,-3,-2,-1,-2,-2,0,-3
1532466853247,1,-1,1,-2,-1,-2,-2,-9
1532466853252,0,-2,-4,-2,0,1,2,9
1532466853257,-2,-1,0,-2,-3,-1,-1,-3
1532466853262,2,0,0,3,0,1,0,-1
1532466853267,-1,-2,0,-1,-1,-1,0,-6
1532466853272,-1,-2,0,-3,-2,-2,-1,-2
1532466853277,-1,-1,-2,-1,-1,-1,1,3
1532466853282,-2,-2,-1,-3,0,-1,-1,-5
1532466853287,-2,-1,0,0,1,4,2,-8
1532466853292,2,0,-1,-1,0,-1,0,3
1532466853297,-3,-2,0,0,-1,-1,1,4
1532466853302,-4,-2,-3,-1,-3,-2,-2,-1
1532466853307,-2,-1,0,1,-1,-1,0,-5
1532466853312,-3,-1,0,-1,-1,-1,-1,-7
1532466853317,4,1,0,-2,0,0,0,4
1532466853322,0,-1,0,1,-1,0,0,-1
1532466853327,-1,0,-2,-1,-2,-1,1,4
1532466853332,1,-1,-2,0,-2,-2,-1,-7
1532466853337,0,-1,-2,1,-2,-3,0,9
1532466853342,-2,-1,1,-1,-2,0,-2,-8
1532466853347,2,1,0,0,-2,0,-2,2
1532466853352,-3,-2,0,1,-1,0,-3,-6
1532466853357,-1,-1,-1,-1,1,1,0,-3
1532466853362,0,-1,-2,-3,-1,-1,0,-2
1532466853367,-3,-1,-1,-1,-3,-3,-1,1
1532466853372,1,-1,1,-2,-2,-3,1,2
1532466853377,0,-1,0,-1,0,1,-1,0
1532466853382,-4,-1,1,0,0,0,0,-2
1532466853387,3,0,-2,-2,-1,-1,-3,-3
1532466853392,-2,-1,-1,0,-1,0,-2,-3
1532466853397,-1,-2,-2,-1,-2,-2,-1,2
1532466853402,1,-2,-1,0,0,0,0,3
1532466853407,-2,0,-2,0,1,0,-1,-2
1532466853412,0,0,-1,0,-1,1,0,-4
1532466853417,0,0,-1,-1,0,0,-4,4
1532466853422,-2,-1,-2,-1,-2,-1,-2,-13
1532466853427,0,0,-1,0,-1,0,1,7
1532466853432,0,0,0,-2,-2,0,0,-1
1532466853437,-1,0,-3,-1,-1,-1,0,3
1532466853442,1,-1,1,0,-1,0,0,2
1532466853447,0,-2,-1,-3,1,-3,1,3
1532466853452,-4,0,-1,0,-1,0,-1,1
1532466853457,1,-1,-1,-1,0,-1,-2,-3
1532466853462,0,0,0,1,0,0,-1,3
1532466853467,-1,-3,-1,-1,-3,-2,-1,-12
1532466853472,2,-2,0,-1,-1,-1,-1,2
1532466853477,-4,-2,-1,-1,-2,0,0,-9
1532466853482,-1,-1,-2,0,-2,0,-1,-6
1532466853487,1,-1,0,0,0,1,-1,4
1532466853492,-1,-1,-2,-2,1,0,-1,-2
1532466853497,0,0,-2,-2,-1,0,0,-4
1532466853502,1,1,-1,1,-1,-2,0,9
1532466853507,-3,0,0,-1,0,0,1,-10
1532466853512,-1,1,-1,-1,-1,-2,-4,0
1532466853517,1,0,-1,1,0,-1,0,10
1532466853522,0,-1,-2,-2,-1,-2,-3,-6
1532466853527,0,1,-3,-1,-1,1,0,6
1532466853532,-2,-1,0,-1,2,-1,2,-5
1532466853537,-2,-1,0,-2,0,-3,-1,-4
1532466853542,5,1,0,0,0,-2,-1,2
1532466853547,-5,-2,-2,-1,-3,-3,-4,-7
1532466853552,-1,-1,-2,0,-1,2,0,9
1532466853557,-3,-3,-2,-2,-2,-3,-1,-13
1532466853562,-1,1,-1,1,0,0,1,-7
1532466853567,0,-1,-2,-1,1,-1,-1,-1
1532466853572,1,0,1,-1,-1,0,0,4
1532466853577,0,-1,1,-2,-1,0,-1,10
1532466853582,-3,-1,-2,-3,-1,-1,-1,-2
1532466853587,-1,-1,0,-1,0,0,1,-2
1532466853592,4,0,0,0,-1,-3,0,6
1532466853597,-1,-2,-1,-1,-1,-1,-1,-10
1532466853602,-2,-1,-1,-1,0,-1,-1,4
1532466853607,-3,0,-1,-2,-3,-1,1,-2
1532466853612,3,-1,0,-1,-1,-2,-3,4
1532466853617,0,0,-1,-1,-1,0,1,1
1532466853622,-3,-1,-1,-1,-1,-1,-1,-2
1532466853627,0,-3,-1,-1,1,0,-1,-4
1532466853632,-4,0,-2,0,-2,2,2,-4
1532466853637,1,-2,-3,1,-1,-3,-2,10
1532466853642,-2,-2,-1,-1,0,-3,-1,-9
1532466853647,3,0,1,0,-1,0,0,7
1532466853652,-2,-2,-2,0,1,1,-4,-10
1532466853657,3,2,2,0,-1,0,1,14
1532466853662,-3,-1,-1,-1,1,1,0,-13
1532466853667,1,-2,-1,-3,-2,-3,-4,5
1532466853672,-1,1,-1,-2,-1,0,2,-3
1532466853677,0,0,-1,0,-1,-1,-4,-4
1532466853682,1,-1,-1,-1,-1,-1,1,18
1532466853687,-1,-1,-2,-1,0,-3,-2,-8
1532466853692,0,-2,0,0,-1,-2,0,0
1532466853697,-2,1,-1,0,0,-2,0,-10
1532466853702,-2,-1,0,-2,-1,0,0,-4
1532466853707,-1,-1,-1,-2,-2,-1,-1,4
1532466853712,-1,-1,0,-1,0,-2,-2,-6
1532466853717,0,1,-1,-1,1,3,1,-3
1532466853722,1,0,1,-1,-1,0,-2,8
1532466853727,-2,-1,0,-1,0,0,1,1
1532466853732,-1,0,0,-1,0,-2,-2,-4
1532466853737,0,-2,0,-2,-2,0,1,-1
1532466853742,0,-1,-2,1,-1,0,2,2
1532466853747,0,-1,2,0,1,-1,-3,-5
1532466853752,5,-1,-1,0,-2,0,-4,5
1532466853757,-4,-1,-2,0,-1,0,-2,-11
1532466853762,2,-2,-2,-1,-2,-2,0,8
1532466853767,-4,0,0,0,0,-1,0,-6
1532466853772,-2,-2,0,-2,-1,0,2,16
1532466853777,-2,-2,-3,-4,-3,-4,-3,-16
1532466853782,0,0,2,0,2,1,-2,-3
1532466853787,2,1,-1,-1,2,-1,-2,-2
1532466853792,-3,0,-1,-2,0,0,0,-5
1532466853797,0,-1,-2,-1,-1,0,3,13
1532466853802,-4,-1,0,-3,-2,-2,-1,-3
1532466853807,-1,-1,-2,1,-1,-1,-2,-3
1532466853812,-2,-2,-2,-2,-1,-1,-3,-12
1532466853817,-4,0,0,-1,-1,-1,1,8
1532466853822,5,-1,-1,-2,-1,-1,-3,-3
1532466853827,0,-1,0,-1,-1,-2,1,2
1532466853832,-1,-1,-2,-1,-2,0,1,-2
1532466853837,-1,-1,0,1,0,0,-1,-2
1532466853842,0,-2,-1,-1,-1,-1,2,-3
1532466853847,0,-2,-1,0,-1,1,0,-1
1532466853852,0,-3,-2,0,0,-3,-2,3
1532466853857,-3,-1,1,-2,1,0,0,-3
1532466853862,-1,-1,-2,1,0,0,-2,-1
1532466853867,1,-1,-2,-3,-1,-2,-2,-5
1532466853872,-4,-1,0,2,1,0,1,4
1532466853877,0,-1,-1,0,-1,-1,-1,1
1532466853882,-1,0,-2,0,0,1,-1,2
1532466853887,-1,-2,0,-2,-2,-3,2,-3
1532466853892,-1,1,2,-1,-2,-3,-5,-6
1532466853897,1,-1,0,-2,-1,-1,-4,-5
1532466853902,-1,0,-2,-1,-1,0,0,-9
1532466853907,1,-1,-2,2,-1,1,4,10
1532466853912,-3,-1,-3,-2,-2,-2,1,2
1532466853917,1,2,0,0,1,1,-1,4
1532466853922,-2,0,-1,-2,0,-2,-1,5
1532466853927,-3,-1,0,-2,-1,1,-1,-14
1532466853932,1,-2,-1,2,1,2,3,0
1532466853937,0,-1,-2,-1,-1,-2,0,-3
1532466853942,-2,-2,-1,-2,-3,-2,-1,7
1532466853947,1,-1,0,-1,-1,-2,-1,0
1532466853952,-2,1,-1,-2,-3,-1,2,-1
1532466853957,-1,2,0,1,-1,-1,-2,0
1532466853962,-1,-4,-2,-1,-1,-2,-2,-9
1532466853967,3,0,0,-1,1,2,-2,3
1532466853972,1,-1,0,0,-2,-2,-1,1
1532466853977,-3,0,-2,-2,-2,-3,0,-7
1532466853982,0,2,0,-1,0,0,-1,4
1532466853987,2,-5,0,0,1,-1,-2,4
1532466853992,-2,-1,-1,-1,1,1,1,-9
1532466853997,-1,-2,-2,-2,-1,0,-2,-1
1532466854002,1,3,2,-1,-2,-1,-3,-19
1532466854007,-7,-1,-2,1,0,0,0,14
1532466854012,1,1,-1,0,0,-1,-2,-1
1532466854017,0,-3,0,-3,-1,0,2,-1
1532466854022,-2,0,-1,-1,2,-1,0,-2
1532466854027,0,2,-3,-3,-2,-1,-2,-3
1532466854032,-2,0,-1,-1,-2,-1,-1,0
1532466854037,0,-1,-1,1,-1,0,2,7
1532466854042,-1,-1,0,0,-3,0,-1,-4
1532466854047,0,0,-1,0,-1,-1,-1,8
1532466854052,-2,-1,-3,-2,2,1,-2,-8
1532466854057,-2,-1,0,-1,0,-1,1,-6
1532466854062,0,-2,-1,-1,-1,-1,0,13
1532466854067,0,-2,0,-2,-2,1,0,0
1532466854072,0,-1,1,1,-1,0,-2,-1
1532466854077,0,-2,-1,-1,0,-1,-3,-5
1532466854082,-1,0,-3,-1,-2,-1,-1,-9
1532466854087,1,0,-1,1,0,-3,1,14
1532466854092,-1,-1,-2,-1,-1,-1,-1,-5
1532466854097,0,-2,0,1,0,0,-2,0
1532466854102,0,0,2,1,-1,1,3,4
1532466854107,-1,1,0,-3,-2,0,-2,-11
1532466854112,0,-1,-2,-2,-2,-1,1,1
1532466854117,1,0,-2,0,0,1,0,1
1532466854122,0,-3,-3,-1,1,-1,1,3
1532466854127,0,-1,0,-1,0,-1,-2,-7
1532466854132,0,1,0,0,0,0,-3,-3
1532466854137,1,-1,0,-1,-1,-1,0,-3
1532466854142,-1,-2,-1,-2,-1,-2,-3,2
1532466854147,-4,3,-1,-1,0,-1,1,-8
1532466854152,-1,-6,-2,-1,-1,-3,-2,-8
1532466854157,0,0,0,0,0,-1,0,4
1532466854162,-4,-1,0,0,1,-2,0,-6
1532466854167,1,2,-1,0,2,0,-1,6
1532466854172,0,0,-1,-2,-2,-1,-1,4
1532466854177,0,-2,-2,-1,-1,-2,-3,1
1532466854182,-1,-1,2,0,1,1,1,-7
1532466854187,-1,-1,-1,-1,-1,-2,-2,-9
1532466854192,-1,-1,0,0,2,-1,-2,1
1532466854197,0,0,-2,1,-1,-1,-1,4
1532466854202,-2,-2,-2,-1,-2,-2,0,-2
1532466854207,-1,0,-1,2,-1,-1,2,-7
1532466854212,2,0,-1,-1,-1,-1,1,11
1532466854217,0,-1,-1,0,0,-2,-2,-5
1532466854222,-1,0,-2,-1,-1,1,-2,0
1532466854227,-1,-2,-3,-2,-2,0,-2,4
1532466854232,-1,2,0,0,-1,0,-3,-9
1532466854237,-3,0,-1,-2,-1,1,0,-4
1532466854242,1,-1,0,-1,-1,0,-1,9
1532466854247,-1,-2,-3,-1,-1,-1,1,2
1532466854252,-2,-1,-2,-2,-3,-2,2,-2
1532466854257,-3,-1,-1,-3,-1,-2,0,-9
1532466854262,0,1,-1,1,0,0,-4,1
1532466854267,0,0,0,-1,-1,-1,-2,-2
1532466854272,0,0,0,-1,1,0,0,2
1532466854277,-2,0,-2,-1,-2,0,2,-1
1532466854282,-2,-3,-1,-2,-1,-1,0,1
1532466854287,1,-3,1,-1,-1,-1,-3,-3
1532466854292,-1,3,-1,-1,-2,0,-3,-6
1532466854297,-1,-5,-1,-1,-2,-1,0,-2
1532466854302,3,2,0,2,2,0,-3,0
1532466854307,2,1,0,-3,-1,0,2,1
1532466854312,-3,-3,-2,-1,1,0,-3,-6
1532466854317,-2,-1,-2,-2,-1,1,0,-3
1532466854322,0,0,-1,1,0,-1,0,-2
1532466854327,1,-5,-1,0,-2,-1,-3,8
1532466854332,-1,0,-2,0,-1,-2,0,-13
1532466854337,0,4,0,-1,-1,-2,0,5
1532466854342,-2,-3,-1,-1,0,2,-1,-4
1532466854347,0,0,-1,-1,2,-1,-2,-9
1532466854352,3,-1,1,-1,-2,-1,-1,10
1532466854357,-6,-3,-3,-2,-1,-4,-4,-10
1532466854362,3,-1,0,0,2,3,3,6
1532466854367,-1,-1,-2,-1,0,1,-2,-1
1532466854372,-2,3,-5,-3,-1,0,1,6
1532466854377,0,-4,2,-1,-1,0,2,-8
1532466854382,-4,-1,-2,0,-2,-1,0,-4
1532466854387,-2,-4,-1,-1,-2,-4,-3,-6
1532466854392,0,-1,0,-1,-2,0,-1,2
1532466854397,0,1,-1,-1,-1,0,-3,4
1532466854402,-2,-3,-1,-2,-2,-3,-1,-4
1532466854407,-2,1,2,1,0,2,-1,-6
1532466854412,0,-2,-1,1,-1,-2,1,1
1532466854417,0,0,-1,0,-1,-2,0,-9
1532466854422,0,-5,-1,-2,0,-1,0,13
1532466854427,2,0,-3,-2,-2,-4,-2,6
1532466854432,-1,-3,0,-1,0,2,0,-7
1532466854437,0,-1,-1,0,1,1,-1,1
1532466854442,-1,1,0,0,-1,-3,-1,-1
1532466854447,1,1,-3,0,-2,-1,-1,-3
1532466854452,1,-2,-2,0,-1,-3,-1,4
1532466854457,-2,0,0,-1,0,0,0,-12
1532466854462,-2,0,-1,-1,0,1,-4,0
1532466854467,-1,-1,0,-1,0,-1,-1,0
1532466854472,1,2,0,-1,-2,-1,0,-4
1532466854477,0,2,-2,-1,-2,-1,-1,5
1532466854482,-4,-4,-2,-2,-4,-3,0,-8
1532466854487,0,1,-1,-1,1,2,1,10
1532466854492,-2,-2,-2,-1,-1,-2,-4,-8
1532466854497,-1,-1,-2,0,1,0,2,3
1532466854502,-1,3,-1,-3,-2,-1,0,-10
1532466854507,-1,-5,-3,0,-2,-1,1,9
1532466854512,1,-1,0,-1,-2,-1,-1,7
1532466854517,-3,-5,-3,-2,0,-2,-2,-15
1532466854522,0,1,0,1,-1,-1,-1,-5
1532466854527,-3,-1,-1,-1,-1,0,-1,1
1532466854532,-2,0,-1,-2,-1,0,0,-4
1532466854537,2,-1,0,0,-2,0,0,6
1532466854542,-1,0,-1,0,0,1,-1,-1
1532466854547,-1,-4,-1,0,-1,-1,0,-3
1532466854552,-1,-2,-1,-2,1,0,-1,3
1532466854557,0,-1,1,-2,-1,-1,-1,-3
1532466854562,-1,-1,0,-2,-2,0,-1,2
1532466854567,0,0,0,0,-1,1,1,6
1532466854572,-1,0,0,1,0,-1,-2,-9
1532466854577,1,-4,-2,-1,0,-1,1,21
1532466854582,-4,-1,-1,0,1,-1,-1,-20
1532466854587,-1,0,0,-1,-2,-1,-3,0
1532466854592,1,-1,0,-1,0,0,-4,-2
1532466854597,-1,1,-2,-2,-1,0,-1,1
1532466854602,4,-1,-2,-1,-2,-3,1,14
1532466854607,-2,-1,-1,-2,0,-1,0,2
1532466854612,-2,-2,-1,0,-1,1,-1,-9
1532466854617,-1,-1,0,0,0,0,-2,-1
1532466854622,0,0,1,-2,-1,-1,-3,-7
1532466854627,2,1,0,-1,1,-2,-3,-6
1532466854632,-1,0,-2,0,-1,-1,0,7
1532466854637,0,-1,-1,-2,-2,-3,-1,3
1532466854642,0,0,0,1,-1,0,1,0
1532466854647,-1,-1,-1,-1,-1,-1,1,-10
1532466854652,0,1,0,0,-3,-1,-1,14
1532466854657,-3,-6,0,-1,0,1,0,-13
1532466854662,-1,0,-1,-2,2,-1,-1,5
1532466854667,-2,0,-1,-2,0,-2,-3,-4
1532466854672,3,1,-1,0,0,0,0,1
1532466854677,-1,0,0,-1,0,-1,1,0
1532466854682,3,-1,-2,0,-1,0,0,14
1532466854687,-1,-1,-3,-1,1,0,1,-2
1532466854692,-3,-3,2,-1,-1,-2,-3,-9
1532466854697,0,6,0,0,0,0,-2,4
1532466854702,-3,-2,0,-1,0,0,-1,-19
1532466854707,0,-2,-1,0,-1,-2,1,18
1532466854712,0,4,-3,-1,-2,-4,-2,-11
1532466854717,0,-5,-2,1,-1,0,-1,-7
1532466854722,2,13,4,-1,-2,0,-5,8
1532466854727,-1,2,-2,0,-1,-1,-4,-5
1532466854732,-1,-8,-8,-2,0,-2,4,3
1532466854737,-2,-4,2,0,-2,-1,0,7
1532466854742,-2,-3,-3,-2,0,0,-1,-8
1532466854747,0,19,8,0,-1,-2,-1,-5
1532466854752,-3,-1,5,-2,-1,-1,-2,1
1532466854757,2,-15,-9,2,-1,-2,1,-3
1532466854762,-2,-14,-5,-1,-1,-1,1,-1
1532466854767,-2,1,1,-3,-1,0,0,5
1532466854772,0,5,1,0,0,1,1,-8
1532466854777,-2,8,0,-3,-3,1,-1,-6
1532466854782,0,-4,-1,0,-2,-3,1,12
1532466854787,0,-11,-3,-1,-1,0,-3,-4
1532466854792,0,16,5,-1,-3,-3,2,3
1532466854797,-2,1,2,0,0,-1,0,-4
1532466854802,-1,-25,-8,-1,-2,0,-1,10
1532466854807,0,5,0,0,1,0,-2,-7
1532466854812,-3,-2,2,2,-1,2,0,-4
1532466854817,-1,4,-3,-1,-1,-1,-2,1
1532466854822,-2,0,1,0,-1,-3,0,-15
1532466854827,2,7,5,1,-2,0,2,14
1532466854832,-1,-10,-5,-1,-2,-1,-2,-2
1532466854837,0,1,0,0,0,0,-4,-6
1532466854842,-2,9,4,0,-1,-2,-2,-7
1532466854847,0,-16,-6,1,2,2,2,6
1532466854852,0,-5,-4,-2,-1,-3,-2,-5
1532466854857,0,4,2,-1,-3,-1,2,10
1532466854862,0,-1,-5,-1,1,0,-3,-4
1532466854867,-4,-6,-1,0,-3,-3,0,-11
1532466854872,-2,-3,-2,0,0,1,1,3
1532466854877,4,-5,0,0,-1,-2,-1,5
1532466854882,-5,5,1,0,1,-1,-1,-11
1532466854887,-1,-6,-7,-1,-1,-1,-2,-4
1532466854892,2,9,1,-1,0,2,-2,1
1532466854897,-2,6,2,-1,0,-2,0,6
1532466854902,-1,1,0,-3,-1,0,1,3
1532466854907,-2,-2,-1,-2,0,-2,1,-12
1532466854912,-1,-1,0,0,-2,0,-2,2
1532466854917,3,-2,-2,-1,0,0,-1,8
1532466854922,-3,5,2,-1,-2,1,1,-1
1532466854927,1,8,-1,0,-1,-1,-2,-2
1532466854932,-2,-12,-3,-1,0,-1,0,-4
1532466854937,-1,-5,-1,0,-1,-1,-2,1
1532466854942,0,-1,1,0,-1,-1,2,5
1532466854947,-1,-1,1,-1,-2,-1,-4,-15
1532466854952,-2,-9,-3,-4,-1,-2,-2,0
1532466854957,-3,2,2,-2,-1,-2,0,-2
1532466854962,2,11,6,2,0,-1,2,6
1532466854967,-1,-11,-7,-3,-1,-1,0,0
1532466854972,-2,0,-2,0,0,-2,-2,-2
1532466854977,-1,-5,-2,-1,-1,-1,-5,-15
1532466854982,2,0,-4,-1,-2,-1,4,12
1532466854987,-2,10,5,-2,0,1,-1,-7
1532466854992,0,-2,-3,1,-1,-1,0,6
1532466854997,-3,1,-3,-1,-2,0,2,-7
1532466855002,0,-2,-2,-1,-2,-2,-2,-6
1532466855007,-3,-6,-2,-1,0,-2,0,5
1532466855012,3,1,0,0,-1,0,-2,3
1532466855017,-3,-4,2,0,0,0,1,3
1532466855022,0,-3,0,-2,-1,-1,-6,-7
1532466855027,-1,-5,-4,1,0,-2,-1,-2
1532466855032,-1,-3,0,-1,-2,0,-1,-8
1532466855037,1,-6,-5,1,-1,-1,2,5
1532466855042,0,-4,-2,-2,0,1,1,1
1532466855047,-1,-2,0,-3,0,0,-3,-3
1532466855052,-1,-3,-1,-2,0,2,2,-1
1532466855057,3,8,1,0,-2,-2,-3,2
1532466855062,-2,-1,-1,0,0,-1,-1,-5
1532466855067,2,1,0,-1,-4,-3,0,7
1532466855072,3,0,1,2,2,6,3,0
1532466855077,0,3,3,-2,2,4,0,3
1532466855082,-2,-14,-3,-1,0,-3,-3,-2
1532466855087,-1,-6,-4,-3,-3,-3,3,-7
1532466855092,-2,0,0,-2,-2,-2,-3,-3
1532466855097,-5,-2,-1,-1,-2,-2,-2,-9
1532466855102,1,1,-3,0,0,1,-3,8
1532466855107,-1,-7,0,-1,1,1,-1,-3
1532466855112,-2,18,4,-2,-2,-2,-3,-10
1532466855117,0,0,-3,0,0,-1,1,13
1532466855122,0,-20,-7,1,-1,0,-1,-3
1532466855127,-3,1,1,-1,-1,0,-4,-7
1532466855132,-1,-1,1,-1,1,-2,0,7
1532466855137,0,-1,0,1,-1,0,1,4
1532466855142,-2,3,-3,-2,-1,-2,-4,-10
1532466855147,0,-2,-2,1,0,2,4,3
1532466855152,0,-5,-1,-2,0,1,1,4
1532466855157,0,-9,-4,-2,-3,-2,-4,-8
1532466855162,-1,8,2,-2,-1,0,0,11
1532466855167,2,-3,-5,-1,-3,-2,-1,3
1532466855172,-5,-6,-3,-2,-1,-2,-2,-10
1532466855177,-1,-3,-2,0,2,1,2,0
1532466855182,-1,22,0,-2,-1,-1,0,3
1532466855187,1,-32,-9,-2,0,0,-2,-1
1532466855192,1,0,-2,0,-1,-1,-2,-1
1532466855197,-1,1,0,0,-1,-2,-1,3
1532466855202,-2,0,0,0,-1,-3,0,-8
1532466855207,-1,7,-1,0,1,2,0,4
1532466855212,-1,6,2,1,0,-2,1,0
1532466855217,6,-23,-5,-1,-2,-1,-1,-5
1532466855222,-12,-3,-4,-1,0,1,-4,-4
1532466855227,1,18,3,-1,0,-3,2,-4
1532466855232,-1,-28,-5,-1,-1,-1,-1,0
1532466855237,-10,14,7,0,-1,-3,-4,-4
1532466855242,9,7,6,-2,-4,-2,-1,3
1532466855247,-2,1,-7,-2,-3,-2,0,3
1532466855252,-3,8,4,2,1,2,-3,-7
1532466855257,8,8,-2,-2,1,4,4,10
1532466855262,0,-11,-3,0,-1,-5,-1,-4
1532466855267,-1,6,4,0,-1,-1,-2,-1
1532466855272,-1,-1,-1,-2,-4,-2,3,10
1532466855277,3,-3,-2,-1,-1,-2,-3,-4
1532466855282,2,-3,0,0,2,-1,0,-3
1532466855287,-3,4,2,-3,-4,-1,-2,-5
1532466855292,2,-1,-3,-1,0,-6,-1,-1
1532466855297,-13,-5,-1,0,1,-6,0,-8
1532466855302,-5,20,5,0,-1,2,1,9
1532466855307,18,-7,-5,-2,0,1,-7,-5
1532466855312,-4,1,-5,-2,-3,-2,-1,5
1532466855317,1,-8,1,-3,-2,-1,0,-2
1532466855322,-7,0,1,2,3,2,0,-15
1532466855327,15,0,4,-1,-1,-2,4,5
1532466855332,-26,-1,-1,-1,1,2,-4,5
1532466855337,1,0,-8,1,-1,2,0,-7
1532466855342,-12,-3,-2,-2,-2,13,5,-2
1532466855347,5,4,1,-2,-2,-11,-4,-19
1532466855352,4,-8,-5,-1,-3,0,0,-4
1532466855357,7,6,2,-2,-2,-6,-5,7
1532466855362,-3,-4,0,0,-1,-2,-4,9
1532466855367,-11,6,6,0,0,5,-1,0
1532466855372,6,-7,-3,-1,-1,7,3,2
1532466855377,-2,-2,-4,-5,0,9,-1,-6
1532466855382,14,-2,-1,0,0,-16,-8,-2
1532466855387,-12,2,1,0,-4,-19,2,5
1532466855392,7,4,2,1,1,-1,0,-10
1532466855397,-6,-5,-1,-1,-1,4,-1,-5
1532466855402,14,-2,-3,-3,-3,1,3,-3
1532466855407,-17,-26,-5,-4,0,13,-2,-4
1532466855412,4,2,-1,-1,0,7,-5,15
1532466855417,-8,8,1,0,-3,-9,-8,-19
1532466855422,7,-19,-1,3,1,-10,4,14
1532466855427,3,10,3,2,-1,-7,3,-2
1532466855432,7,0,-2,-1,0,19,6,15
1532466855437,-12,-2,3,1,3,2,2,-4
1532466855442,-11,0,-2,-4,-4,-11,-7,-23
1532466855447,5,-1,-1,-1,-1,8,1,18
1532466855452,-5,2,3,0,0,-8,-14,-9
1532466855457,3,-11,-7,-2,-1,-1,14,-5
1532466855462,-3,-11,0,1,0,7,6,9
1532466855467,-9,1,-2,-2,0,11,-4,-11
1532466855472,8,1,2,-1,0,-11,7,-7
1532466855477,2,-7,-3,1,-2,-3,-12,17
1532466855482,-8,1,-3,-1,0,-22,-5,-25
1532466855487,8,3,-1,-1,-3,7,-5,18
1532466855492,17,4,0,1,3,4,9,-3
1532466855497,-33,-6,-2,-2,-1,5,-3,4
1532466855502,0,-4,-4,-2,-1,2,-7,-1
1532466855507,-8,-5,-2,0,1,-9,-3,-7
1532466855512,-5,7,3,-2,-4,-13,-7,-13
1532466855517,12,7,0,-1,-2,-1,-1,12
1532466855522,-7,1,1,-1,-1,-7,0,-5
1532466855527,10,14,3,3,5,4,0,6
1532466855532,-30,-24,-5,-1,-1,4,15,-7
1532466855537,9,0,-1,-1,1,13,-4,-2
1532466855542,0,3,-1,0,-5,-15,-4,20
1532466855547,-8,4,-3,0,0,-3,16,-13
1532466855552,8,3,-3,1,3,0,-9,15
1532466855557,6,3,1,1,-2,-5,-7,7
1532466855562,-6,-12,-6,-3,-2,3,-6,-22
1532466855567,-1,-1,0,-1,-3,7,-7,-1
1532466855572,4,-3,-1,-1,-4,-19,-5,11
1532466855577,0,0,-1,-2,0,-5,2,-4
1532466855582,9,7,1,0,0,-3,8,21
1532466855587,-11,-6,-3,-2,-2,-2,10,-19
1532466855592,-3,-4,0,0,-1,5,19,0
1532466855597,8,5,0,-1,-3,-12,-5,-4
1532466855602,-4,-3,0,3,3,21,6,-8
1532466855607,-2,-3,-1,-1,0,4,-1,11
1532466855612,-1,0,-1,-1,-3,-12,-8,12
1532466855617,-5,1,-2,0,-1,-6,-4,-24
1532466855622,6,0,-2,-2,2,9,-5,0
1532466855627,-3,-4,-2,-1,-6,-11,-9,3
1532466855632,4,3,-1,-1,0,2,-15,-13
1532466855637,-1,1,0,0,0,-1,4,2
1532466855642,2,-5,-1,-3,-7,2,0,11
1532466855647,4,-2,-3,-1,0,-2,-2,5
1532466855652,-5,-4,0,0,-1,0,-1,-9
1532466855657,-1,-3,0,0,15,-4,1,-8
1532466855662,0,5,2,-2,-14,11,-5,-12
1532466855667,4,-2,-1,0,4,-3,0,18
1532466855672,1,0,-2,-1,-3,2,-3,-7
1532466855677,-2,-1,-1,-1,2,1,3,2
1532466855682,-5,-4,-2,0,2,-2,5,4
1532466855687,-2,0,0,-3,-3,-2,-1,-16
1532466855692,1,3,1,0,3,3,-2,-1
1532466855697,1,0,0,0,-4,-1,-3,1
1532466855702,-1,3,-1,-1,3,-3,3,-2
1532466855707,1,-2,-1,1,-3,0,-4,5
1532466855712,-2,-2,-2,-3,-3,-4,-3,-4
1532466855717,4,0,1,-1,-2,6,7,9
1532466855722,0,-1,-1,-1,1,4,-5,-6
1532466855727,0,-1,-3,0,0,4,-2,0
1532466855732,0,1,0,-1,-1,-6,-1,-6
1532466855737,0,-2,-2,-3,-5,2,-1,0
1532466855742,-3,-4,-2,-2,2,4,0,1
1532466855747,3,2,1,-2,1,-3,-2,11
1532466855752,-2,-3,-4,-1,-4,-5,-3,-3
1532466855757,2,-2,-2,2,2,-2,4,-20
1532466855762,0,-9,-1,-1,1,1,-6,1
1532466855767,-7,2,-1,-1,-2,2,-2,2
1532466855772,3,2,-1,-4,-4,20,-11,-6
1532466855777,-4,0,-1,-1,-2,-18,3,5
1532466855782,1,6,-2,-1,-1,-11,-23,1
1532466855787,-13,-10,-2,-2,-2,7,6,-19
1532466855792,-1,1,-1,-1,0,-12,13,1
1532466855797,2,-4,1,1,-1,7,2,-12
1532466855802,1,6,0,-2,-4,10,9,29
1532466855807,-1,-1,2,2,8,-16,-5,1
1532466855812,-5,-3,-2,0,-6,0,-5,5
1532466855817,0,0,-1,-2,5,1,-3,-8
1532466855822,0,2,2,3,-3,1,3,0
1532466855827,5,2,-2,-5,-13,0,-12,-8
1532466855832,20,3,0,1,-3,-8,8,8
1532466855837,-40,-6,-2,2,10,3,1,-1
1532466855842,-5,5,1,-3,-5,-5,-2,-4
1532466855847,3,-3,-3,2,6,7,-3,-14
1532466855852,-3,0,1,-2,-7,-14,-1,15
1532466855857,9,0,-1,-3,-4,29,-6,15
1532466855862,0,0,2,2,8,-9,13,2
1532466855867,-1,3,-1,-2,-3,-2,9,-8
1532466855872,-3,-7,-2,1,5,7,-2,-7
1532466855877,8,1,1,1,-2,-10,-15,7
1532466855882,-2,-3,-1,-1,1,1,7,-15
1532466855887,10,2,-1,1,3,-5,-4,16
1532466855892,-6,7,0,0,2,5,7,-6
1532466855897,-2,-4,-4,-5,-12,-4,-24,0
1532466855902,0,-1,-1,1,1,-8,14,-3
1532466855907,-1,0,-1,0,0,5,5,-6
1532466855912,-1,1,1,-1,0,-8,-7,8
1532466855917,-4,-2,-2,-4,-5,-4,2,11
1532466855922,6,-2,0,-1,8,6,-5,6
1532466855927,-3,0,0,-3,-12,-5,3,2
1532466855932,-3,-3,-2,1,11,10,-14,-13
1532466855937,7,5,0,-4,-16,-31,12,-2
1532466855942,-1,-5,-2,-3,-16,-4,-13,17
1532466855947,-6,-2,-1,0,9,-1,12,-13
1532466855952,-5,-2,1,0,-4,18,-4,-4
1532466855957,4,1,-1,0,11,8,15,17
1532466855962,-1,1,-3,-2,0,-12,-12,-21
1532466855967,-2,0,1,3,10,7,3,-8
1532466855972,-2,-1,-2,-7,-20,8,-4,26
1532466855977,4,0,0,0,3,-6,-4,-8
1532466855982,2,-1,0,0,-2,-10,-4,10
1532466855987,0,-1,-2,1,8,-6,3,-7
1532466855992,-1,-1,1,-3,-5,-11,-6,-5
1532466855997,-3,-1,0,2,2,22,20,-10
1532466856002,1,2,-1,1,7,-8,-3,-10
1532466856007,-1,-3,-2,-2,-8,-2,-16,-11
1532466856012,0,0,3,6,15,13,10,2
1532466856017,-4,-3,-5,-10,-29,-9,-11,-9
1532466856022,0,-2,-2,-1,4,10,1,-6
1532466856027,1,1,-2,0,2,-22,-1,10
1532466856032,-2,-2,-3,-3,8,18,0,8
1532466856037,4,1,1,2,2,-13,-3,-13
1532466856042,-3,0,0,1,-13,8,6,2
1532466856047,0,4,1,-2,2,-1,-7,1
1532466856052,0,-4,-3,1,-7,-22,13,2
1532466856057,-2,-1,1,-1,9,24,3,8
1532466856062,-2,-2,-1,-3,1,0,-6,-2
1532466856067,2,-1,1,0,17,11,1,17
1532466856072,-2,-1,-2,-4,-24,-35,-13,-24
1532466856077,1,-2,0,0,5,7,-3,6
1532466856082,-4,-1,-2,-1,3,-6,-1,-7
1532466856087,-5,-3,-1,-1,-13,2,-16,5
1532466856092,0,0,-4,-3,6,0,21,0
1532466856097,-2,-1,2,2,-2,-8,9,0
1532466856102,-3,0,-1,0,5,-2,-14,2
1532466856107,4,-1,0,-1,-6,3,7,-5
1532466856112,-7,-2,-2,-3,-1,2,3,-8
1532466856117,0,0,1,-1,-3,3,-3,4
1532466856122,1,-5,-4,-1,6,3,12,3
1532466856127,-1,-1,1,1,-4,-14,-6,-7
1532466856132,1,2,-1,0,-1,9,-27,-10
1532466856137,1,-1,-2,0,6,-18,24,6
1532466856142,-8,-2,-1,-4,-5,1,-9,-2
1532466856147,4,1,-2,-4,-7,2,8,5
1532466856152,-5,1,-2,-1,10,4,9,-1
1532466856157,-7,-1,0,0,-1,-2,-16,-24
1532466856162,8,-1,-2,-1,1,14,11,24
1532466856167,-3,0,1,0,-5,-2,-7,-3
1532466856172,1,2,-3,0,1,-15,1,-4
1532466856177,0,-7,-1,-2,3,4,3,13
1532466856182,-5,2,1,-1,-4,-8,-8,-16
1532466856187,2,-1,-1,-3,-11,-1,5,-8
1532466856192,4,2,2,3,16,14,4,14
1532466856197,2,1,-2,-2,-4,-7,-14,-1
1532466856202,-1,0,-1,-3,-7,-9,10,5
1532466856207,-3,-3,0,2,2,-24,-3,7
1532466856212,-5,-4,-2,-4,-11,2,-7,-30
1532466856217,-4,0,-1,0,0,13,14,-13
1532466856222,3,1,2,0,8,5,-3,10
1532466856227,1,-2,-2,-4,-19,-1,6,2
1532466856232,2,0,1,2,-2,-12,-6,1
1532466856237,1,-2,-1,0,5,-1,-4,2
1532466856242,2,1,-1,0,-1,16,10,-3
1532466856247,-3,-1,1,3,6,13,-5,-8
1532466856252,1,-2,-1,-3,-7,-17,10,6
1532466856257,1,1,-1,-1,-5,-22,4,-12
1532466856262,3,1,1,2,4,-1,-5,-9
1532466856267,-3,-4,-2,-2,16,13,-5,15
1532466856272,3,-1,0,-2,-13,7,1,3
1532466856277,-7,2,1,1,4,0,-15,-7
1532466856282,-1,-2,-2,-4,-15,-10,4,-1
1532466856287,-2,-1,-2,2,6,4,0,-8
1532466856292,2,0,0,0,7,1,-12,-5
1532466856297,1,-4,-1,-4,-11,4,-3,11
1532466856302,-7,-1,0,0,1,-3,-5,-5
1532466856307,-2,1,-1,-2,-3,0,-6,-8
1532466856312,1,-1,1,4,13,17,-2,1
1532466856317,0,-1,-2,-3,-15,-28,-9,1
1532466856322,3,0,0,2,7,2,-4,3
1532466856327,-3,-2,-4,-3,-11,0,-1,-2
1532466856332,-1,-1,-1,-1,-5,-11,1,-3
1532466856337,2,-2,0,2,6,7,2,-4
1532466856342,0,-1,-1,-4,-3,-1,-13,-4
1532466856347,0,-1,-1,-1,0,-1,-5,3
1532466856352,-5,-2,0,1,3,9,-4,-16
1532466856357,5,0,-2,0,-1,2,-6,5
1532466856362,-5,-2,-1,-1,8,5,5,0
1532466856367,1,-1,-1,-1,-11,2,-8,1
1532466856372,0,1,-1,-5,2,-5,24,3
1532466856377,-1,-1,1,1,5,-12,-2,1
1532466856382,-3,0,-2,0,0,4,10,-8
1532466856387,2,-1,-1,0,-4,-3,0,10
1532466856392,1,-3,-1,1,3,5,-4,0
1532466856397,0,-1,-4,-2,-1,11,-4,-7
1532466856402,1,-2,-1,-3,-8,1,-1,6
1532466856407,-2,-2,0,1,3,-14,1,-6
1532466856412,0,-2,-3,0,1,-3,0,7
1532466856417,-3,0,0,0,4,8,6,1
1532466856422,0,-1,-1,-2,-10,6,-1,-7
1532466856427,-2,4,0,1,6,-5,5,-5
1532466856432,-1,-3,-2,-1,-2,-6,8,-7
1532466856437,-2,-3,-2,-1,-4,-5,5,10
1532466856442,6,-2,-1,3,3,7,8,0
1532466856447,-3,-2,-2,-2,3,2,10,-1
1532466856452,0,-2,0,-1,-8,-5,-11,12
1532466856457,-1,2,0,-3,-13,-8,-6,-3
1532466856462,-3,0,0,-1,-1,-7,-4,3
1532466856467,4,-2,-2,-1,4,2,-1,-11
1532466856472,-7,0,-1,1,4,10,-6,-19
1532466856477,1,-1,-2,-2,0,3,-6,5
1532466856482,1,2,-1,2,-1,-12,-2,-3
1532466856487,-2,-2,-5,-4,-17,-3,1,5
1532466856492,-2,-2,-2,-1,1,2,-7,2
1532466856497,-1,-2,0,1,4,1,4,-10
1532466856502,-2,0,0,-3,-4,-12,-3,-2
1532466856507,-3,-1,-1,1,3,8,1,-6
1532466856512,-1,-2,-1,0,7,0,-1,5
1532466856517,-1,0,-1,-4,-16,-1,-1,1
1532466856522,-1,-4,-1,0,4,2,-2,0
1532466856527,0,-1,0,-3,-7,-5,-1,0
1532466856532,0,0,0,-1,-4,-5,0,0
1532466856537,1,1,-3,0,8,23,-1,2
1532466856542,-3,2,-1,-1,-1,-18,-2,-7
1532466856547,-1,-4,-1,-2,-4,-6,-1,3
1532466856552,1,0,0,0,-1,5,-3,0
1532466856557,-7,-3,0,1,4,4,0,-9
1532466856562,0,-1,-1,-1,-4,0,-2,14
1532466856567,0,-1,0,0,5,0,-3,-2
1532466856572,-3,-1,-2,-2,-4,-4,-2,-3
1532466856577,5,1,0,1,1,5,3,3
1532466856582,-12,-4,-2,-3,-2,2,-1,-8
1532466856587,2,1,2,1,2,-4,2,3
1532466856592,-1,0,0,-1,-1,-23,-5,0
1532466856597,0,0,-2,-3,-2,-3,-4,1
1532466856602,0,-1,0,-1,0,1,1,3
1532466856607,-3,0,0,-1,5,9,-3,-11
1532466856612,2,0,0,-1,-7,5,5,-2
1532466856617,-5,-3,-1,-1,-5,-20,-5,-6
1532466856622,4,0,-1,-1,-4,2,3,2
1532466856627,-2,0,-3,-2,1,-2,2,3
1532466856632,4,-1,1,0,2,-4,-2,0
1532466856637,-1,1,0,-1,4,14,8,-1
1532466856642,1,0,-1,-3,-4,-8,-10,-4
1532466856647,1,-4,-2,-1,-2,7,1,11
1532466856652,0,-1,-1,0,2,-11,2,-1
1532466856657,1,-1,0,1,2,-3,8,2
1532466856662,-5,0,-1,-1,-2,-2,-15,-12
1532466856667,3,0,1,1,2,-5,-13,1
1532466856672,-6,-2,-1,-2,-3,11,4,-4
1532466856677,-2,-2,-2,-2,0,-18,-2,-6
1532466856682,4,-1,-2,-2,1,2,10,3
1532466856687,-1,-3,-2,-2,1,7,15,-1
1532466856692,-4,-3,-1,-2,-7,-8,-10,0
1532466856697,14,2,1,0,1,-4,-5,1
1532466856702,-12,-5,0,1,7,51,26,-1
1532466856707,-4,4,1,1,1,-11,-6,7
1532466856712,-1,1,-1,0,0,1,-4,-11
1532466856717,0,0,-1,1,1,3,-3,7
1532466856722,6,2,-1,-3,-7,-14,-12,1
1532466856727,-6,-3,-3,-1,-2,-11,2,-12
1532466856732,2,0,1,-3,-6,5,0,-3
1532466856737,-2,1,0,0,-1,7,6,-5
1532466856742,1,-3,-2,0,-1,-15,-4,0
1532466856747,0,3,3,0,1,21,9,5
1532466856752,-5,-1,-2,1,5,-4,-4,3
1532466856757,-2,-4,5,0,-3,-17,-17,-9
1532466856762,0,-2,-8,-3,-3,-2,-5,-3
1532466856767,-1,-2,-3,-1,1,-30,-14,-2
1532466856772,4,-2,1,4,1,27,18,8
1532466856777,-1,-3,-2,-3,4,30,5,-10
1532466856782,-1,-1,1,-1,-6,-2,22,4
1532466856787,1,2,1,-1,-6,-17,5,-4
1532466856792,0,0,-3,-3,1,-1,0,-1
1532466856797,-6,-6,-2,-1,-2,-18,-16,5
1532466856802,2,1,2,5,10,29,5,2
1532466856807,0,1,-2,-2,-3,-6,4,-3
1532466856812,-3,-3,-1,-1,-3,-3,-2,4
1532466856817,-3,0,-4,0,4,-18,-3,2
1532466856822,1,0,1,-3,-1,2,-11,-7
1532466856827,0,2,-1,0,5,15,3,3
1532466856832,-1,1,2,-3,-3,-5,6,-2
1532466856837,-3,-2,-2,2,11,4,-3,-8
1532466856842,-1,0,1,1,-11,-3,-6,2
1532466856847,1,-1,-1,-1,-6,-4,1,4
1532466856852,1,1,1,2,19,2,-2,-6
1532466856857,3,-1,0,-3,-9,-5,-11,3
1532466856862,-2,-2,-2,-2,5,8,-1,-4
1532466856867,1,1,0,3,2,12,0,18
1532466856872,-7,-3,-2,-2,-7,-17,-10,-22
1532466856877,-3,-1,-3,0,6,3,-1,-15
1532466856882,2,0,0,-1,2,0,6,13
1532466856887,-4,-2,-2,-3,-9,-1,-1,-10
1532466856892,2,0,-1,1,0,-11,-8,12
1532466856897,2,-1,-1,0,-2,-12,4,-2
1532466856902,-5,-1,-2,-3,-4,-8,2,-2
1532466856907,-2,-1,-1,-1,1,-2,-2,-6
1532466856912,4,-2,-2,-2,-6,-14,-6,5
1532466856917,-1,0,-1,4,5,22,8,4
1532466856922,-2,-2,-2,-3,-6,-12,-6,-6
1532466856927,-4,-2,-3,-3,0,3,11,-7
1532466856932,0,-3,-3,-1,-2,1,-17,-16
1532466856937,6,3,3,-2,-8,-7,-7,26
1532466856942,-2,-2,-4,-2,1,-26,0,-8
1532466856947,0,1,1,0,1,19,15,11
1532466856952,-4,-2,-1,-1,1,-1,4,-2
1532466856957,-1,0,-1,-1,-1,10,11,-11
1532466856962,4,0,1,1,0,7,-14,9
1532466856967,-4,-3,-3,-1,4,-6,-13,-6
1532466856972,-1,0,-1,-1,-9,-12,-1,4
1532466856977,-4,-1,-1,1,-2,9,-7,15
1532466856982,-2,-1,0,0,0,10,-1,-15
1532466856987,4,0,0,-2,-5,-2,-17,-11
1532466856992,1,1,2,2,3,6,-5,11
1532466856997,-5,-4,-2,-4,-4,1,-6,-15
1532466857002,1,0,0,-1,2,0,9,6
1532466857007,-1,-2,0,-1,-3,5,7,-2
1532466857012,2,1,0,-1,3,4,2,1
1532466857017,0,-2,0,-1,-4,-6,19,7
1532466857022,-1,0,1,-3,-13,-2,-2,-7
1532466857027,3,0,-1,1,0,-6,3,5
1532466857032,-2,-2,-3,-4,-1,-2,2,5
1532466857037,-1,0,0,2,5,2,-16,-12
1532466857042,-1,0,-2,0,-1,-1,-2,-2
1532466857047,-3,0,-1,-1,-6,-3,0,1
1532466857052,-1,-2,-1,-1,-3,-4,1,3
1532466857057,1,-2,-2,-1,1,6,-3,-6
1532466857062,-1,-2,-2,-1,2,1,-6,3
1532466857067,-4,-1,-1,-1,-3,0,-4,-6
1532466857072,-2,-1,-1,0,0,5,-2,-7
1532466857077,0,1,0,-4,-6,-6,-4,7
1532466857082,3,0,0,2,8,1,-4,1
1532466857087,-2,-1,-1,-2,-5,-13,-5,1
1532466857092,-1,-3,-2,1,0,-2,2,-5
1532466857097,-1,-2,-1,-2,-1,-2,-1,0
1532466857102,-3,-1,-1,-2,-3,-6,-2,-10
1532466857107,1,1,2,3,4,1,3,1
1532466857112,1,1,0,-3,-8,-7,-6,-2
1532466857117,0,-1,0,-1,0,-1,-4,-1
1532466857122,-1,-2,0,-2,-1,4,2,4
1532466857127,0,-2,0,-1,-2,3,-1,-3
1532466857132,-2,-2,-1,2,3,5,-3,-1
1532466857137,0,-1,-2,1,1,-3,1,-1
1532466857142,-1,1,1,-3,-4,1,-3,1
1532466857147,-1,1,-2,1,5,5,-5,1
1532466857152,-1,-2,-3,-2,-8,-7,-6,2
1532466857157,-1,-1,-3,-3,-2,-4,-7,-1
1532466857162,-2,-1,-1,1,3,8,-2,0
1532466857167,-1,-2,0,1,4,0,7,1
1532466857172,-2,-2,-1,-3,-10,-1,22,-5
1532466857177,0,-1,-1,0,2,-6,19,6
1532466857182,0,-2,-3,-1,0,-3,14,-10
1532466857187,0,0,-1,-1,-2,0,11,-1
1532466857192,3,-1,1,1,2,-2,4,3
1532466857197,-5,-2,1,0,1,2,5,-8
1532466857202,-1,0,-1,-1,-7,-2,5,-2
1532466857207,-3,-1,1,-1,2,-2,4,1
1532466857212,0,0,-2,0,-1,0,6,3
1532466857217,0,0,0,-2,-4,0,8,3
1532466857222,0,0,-1,-1,1,-1,2,-3
1532466857227,0,1,0,-2,0,0,0,-2
1532466857232,-3,-1,-2,-2,-7,-2,3,-7
1532466857237,3,-2,-2,0,4,-2,2,-2
1532466857242,-3,1,0,0,-1,-5,-5,-2
1532466857247,-2,0,-2,-4,-10,4,-1,2
1532466857252,2,1,-1,1,8,1,-3,-2
1532466857257,-2,-2,-1,-3,-3,4,1,-1
1532466857262,1,-1,0,-2,-1,-3,-1,1
1532466857267,-4,-2,0,0,-6,-5,-1,-9
1532466857272,-2,-2,-1,0,0,-1,1,-2
1532466857277,-1,-1,-1,-1,0,-4,-1,-8
1532466857282,2,0,-2,2,-3,8,5,4
1532466857287,0,1,1,-2,4,-1,3,7
1532466857292,-1,-2,-1,-1,-3,-6,-2,1
1532466857297,-5,-3,0,1,0,-1,-5,-9
1532466857302,1,1,2,1,-1,-1,-2,8
1532466857307,-3,-2,-1,-1,2,-1,-4,-13
1532466857312,-1,0,-1,-1,-1,1,-2,1
1532466857317,0,1,1,0,-1,2,-1,5
1532466857322,-2,-2,-2,-1,5,0,0,-2
1532466857327,-2,-1,-3,-1,-10,-9,-3,3
1532466857332,3,0,0,-1,6,2,-1,3
1532466857337,-1,0,0,0,-3,2,0,-4
1532466857342,-5,-1,1,-1,-2,-1,-1,-5
1532466857347,1,0,1,1,1,-1,-3,-7
1532466857352,-1,0,-1,0,0,1,0,8
1532466857357,1,0,0,-1,-2,-2,-3,2
1532466857362,-1,-2,-1,-3,0,-1,-1,-1
1532466857367,0,-2,-1,3,8,6,-1,11
1532466857372,-1,-1,-1,-3,-12,-11,-5,-17
1532466857377,0,0,-1,0,2,2,0,-2
1532466857382,-1,0,-1,0,-1,-3,-1,5
1532466857387,0,-1,-2,1,2,-1,-1,-1
1532466857392,-1,0,1,2,7,5,1,3
1532466857397,2,0,0,-2,-3,-2,0,5
1532466857402,-3,-3,-1,-2,-2,-4,-2,-8
1532466857407,1,0,0,-1,-1,1,-2,-2
1532466857412,-2,-2,-2,-1,0,3,-1,3
1532466857417,1,-1,-1,-1,-5,-3,-1,-2
1532466857422,-2,-1,-1,0,-1,1,-1,-5
1532466857427,1,-2,0,-3,-4,-2,0,6
1532466857432,0,-1,0,-1,0,-2,-1,3
1532466857437,-1,-1,-3,-3,1,-1,0,6
1532466857442,-4,3,-1,-1,0,1,-1,-11
1532466857447,4,0,0,-1,-2,-1,-2,-2
1532466857452,-2,-1,0,-1,3,-1,0,-4
1532466857457,0,0,-2,-1,-1,-1,-3,-1
1532466857462,1,-3,1,-1,-1,5,3,6
1532466857467,-3,0,-1,1,-3,-4,-1,-8
1532466857472,2,-2,-2,0,-2,-6,-4,1
1532466857477,2,1,0,0,2,0,4,0
1532466857482,1,-1,-1,-2,-2,-4,-4,2
1532466857487,-1,-1,1,1,2,6,4,-4
1532466857492,-1,-3,-3,-2,-2,-1,-2,-5
1532466857497,-4,-1,2,2,5,-2,-4,-11
1532466857502,0,0,-2,-1,-3,3,2,11
1532466857507,0,0,-2,-1,-7,-13,-7,-7
1532466857512,-3,1,0,-1,0,4,3,-3
1532466857517,0,-1,0,-2,-1,1,0,2
1532466857522,-1,0,-2,-1,-5,1,0,2
1532466857527,-1,0,-1,-2,1,2,0,1
1532466857532,0,-1,1,-1,-1,1,-1,-11
1532466857537,-2,-1,-2,-2,-4,3,0,12
1532466857542,4,-1,-1,0,1,-5,-1,1
1532466857547,2,-1,-2,-2,0,-1,0,5
1532466857552,-4,-2,0,1,-1,1,-2,0
1532466857557,0,-1,-3,-1,-1,1,-2,-9
1532466857562,-1,-2,-2,-1,-3,-2,1,3
1532466857567,-1,0,0,-2,2,-1,-2,-5
1532466857572,1,0,1,0,4,2,1,7
1532466857577,-3,-2,-1,-1,-1,-2,0,-10
1532466857582,-3,0,0,-3,-5,-4,1,-10
1532466857587,3,0,-1,-1,-5,-2,-1,8
1532466857592,-2,0,-1,0,0,0,2,-1
1532466857597,-1,1,-1,-1,-3,-3,-1,5
1532466857602,0,0,-1,0,2,-1,-3,-3
1532466857607,-2,-2,-1,1,0,3,4,-5
1532466857612,-1,-3,-1,-3,-3,-2,-1,-7
1532466857617,-1,-1,-1,-1,0,-2,-1,4
1532466857622,1,0,0,-1,3,-3,-5,3
1532466857627,2,-1,-1,-2,-2,-1,0,1
1532466857632,-5,-1,-3,0,1,-4,0,-4
1532466857637,0,3,0,-1,-3,-4,-2,-3
1532466857642,-2,-6,-3,-1,-1,-1,-2,-4
1532466857647,1,0,-1,1,3,-1,-1,12
1532466857652,-1,-1,-1,-2,-8,-1,0,-11
1532466857657,-4,-2,-1,-1,1,1,10,-7
1532466857662,1,0,-2,-1,2,1,2,-3
1532466857667,-1,-4,-1,-2,-2,-2,0,-2
1532466857672,2,-1,-2,-2,-1,0,-7,5
1532466857677,3,-2,0,-1,-3,-3,-8,15
1532466857682,-2,0,1,1,4,4,-3,-12
1532466857687,-3,-2,-2,0,-7,-2,-4,-4
1532466857692,0,2,-1,0,1,-2,-4,-3
1532466857697,1,0,-1,-1,-2,-1,-3,-4
1532466857702,-2,1,0,0,1,-2,0,10
1532466857707,-3,-4,-2,0,1,3,-3,-3
1532466857712,-3,-2,-1,1,-1,2,0,4
1532466857717,5,1,0,0,1,-8,-3,1
1532466857722,-6,-3,-1,-2,-3,-7,-6,-9
1532466857727,-1,-2,-1,-1,-1,2,1,-6
1532466857732,2,-2,-2,-1,-1,-1,-2,1
1532466857737,-1,-3,-1,0,-2,0,0,-2
1532466857742,1,0,-1,-1,-2,-1,2,4
1532466857747,-1,-1,-2,-4,-2,-4,0,-1
1532466857752,4,0,3,-1,0,8,2,0
1532466857757,-3,3,-1,0,-5,-3,-3,0
1532466857762,0,-4,-3,0,3,-8,1,-3
1532466857767,-4,0,-1,-2,-2,1,-1,2
1532466857772,0,0,-1,0,3,5,1,1
1532466857777,-1,-2,-1,-1,0,-1,-1,-4
1532466857782,-1,-2,-1,-4,-7,3,1,-4
1532466857787,2,0,0,-2,0,-3,1,9
1532466857792,-1,2,-1,0,1,-4,2,9
1532466857797,-1,-10,-1,-2,-2,3,-3,-12
1532466857802,-1,2,0,1,2,-1,1,-1
1532466857807,2,0,-1,1,-1,-2,-5,-4
1532466857812,0,1,1,0,0,-3,-1,-3
1532466857817,-1,-3,-3,-2,0,5,10,16
1532466857822,-5,-3,0,1,-1,2,-3,-3
1532466857827,5,3,0,0,-1,-3,-1,2
1532466857832,-3,-2,-1,0,-1,2,-1,-4
1532466857837,1,0,-1,-1,0,-3,-4,-6
1532466857842,3,-1,-1,-3,-4,-5,0,1
1532466857847,-6,2,-1,1,-2,-13,-3,-2
1532466857852,-7,-6,-2,0,-3,-11,-1,-5
1532466857857,-2,0,-1,0,1,1,2,5
1532466857862,4,0,-3,-2,-1,-2,-4,-5
1532466857867,9,-2,-1,0,1,12,5,-2
1532466857872,-18,-2,-1,-3,0,-14,0,6
1532466857877,-6,-2,-2,0,0,5,-1,-20
1532466857882,4,-3,0,-1,0,4,-4,13
1532466857887,-7,2,0,0,-1,-5,2,-1
1532466857892,12,-17,-3,-1,-2,0,-3,-5
1532466857897,-25,-1,-1,0,-4,-15,-12,8
1532466857902,0,2,0,1,5,25,19,-3
1532466857907,-1,-1,-1,0,1,4,-6,-3
1532466857912,8,5,-2,-1,-3,-5,5,4
1532466857917,2,0,0,-1,-1,-3,-3,-7
1532466857922,-5,5,1,0,0,7,-1,-2
1532466857927,12,-5,-2,-1,-1,16,3,-5
1532466857932,-5,0,1,1,-1,-20,-9,4
1532466857937,-1,-3,0,0,0,5,3,-3
1532466857942,2,2,-1,0,-1,-3,-5,1
1532466857947,4,1,0,-2,-2,-3,-2,0
1532466857952,0,6,1,2,1,21,7,7
1532466857957,-7,-8,-2,-1,-2,-9,-4,-20
1532466857962,1,-3,-2,-1,-2,14,3,14
1532466857967,-2,1,-1,0,-2,-12,-4,0
1532466857972,1,-1,-2,-2,-1,2,2,0
1532466857977,-4,-2,-1,-1,0,-5,-4,-9
1532466857982,0,2,-1,0,-3,-12,-8,-1
1532466857987,3,-1,-1,2,2,16,4,-4
1532466857992,-3,-4,-3,-2,-5,0,-5,-7
1532466857997,-4,1,-2,-1,1,-8,6,3
1532466858002,1,-1,-1,-1,-1,-3,-1,5
1532466858007,3,0,2,1,0,-1,-1,1
1532466858012,-1,-2,0,0,-1,7,-1,-2
1532466858017,1,-2,-1,-1,1,3,-2,8
1532466858022,2,4,0,0,1,-1,4,-9
1532466858027,-1,-6,-3,-4,-6,-4,0,5
1532466858032,0,-1,0,0,2,2,0,3
1532466858037,-2,-2,-4,-2,-3,2,-4,-5
1532466858042,-6,0,-1,-1,-2,-1,1,-3
1532466858047,3,2,-1,0,1,8,11,10
1532466858052,1,0,0,-1,-2,-20,-3,-9
1532466858057,-1,-1,2,0,-1,3,8,-2
1532466858062,-2,-2,-1,-2,2,7,-1,1
1532466858067,-4,1,0,-2,0,0,-8,-5
1532466858072,0,-5,-2,-4,-3,-9,-5,0
1532466858077,2,2,0,-1,0,3,7,-4
1532466858082,-1,-1,-1,-1,0,14,1,-5
1532466858087,-4,-1,-2,-1,-1,-14,-1,-7
1532466858092,3,-4,-2,0,-1,-1,2,5
1532466858097,-3,-2,-1,-1,-1,1,-3,-2
1532466858102,1,2,1,0,0,-5,-3,0
1532466858107,2,0,-2,-1,-1,8,-3,-3
1532466858112,1,1,-1,1,-1,-4,1,2
1532466858117,-1,2,0,-1,1,6,0,9
1532466858122,-2,-4,-2,0,1,-10,-5,-10
1532466858127,1,-2,-1,0,0,-2,-1,5
1532466858132,2,0,0,-2,-4,-6,-3,6
1532466858137,0,-1,-2,-4,-1,6,1,-1
1532466858142,2,-2,-1,-2,0,-7,-2,-6
1532466858147,-2,2,0,2,2,3,0,-6
1532466858152,-2,0,-2,-2,0,-4,-2,-4
1532466858157,5,0,-1,-1,-3,10,5,16
1532466858162,-2,1,0,0,-1,-7,-2,-2
1532466858167,2,0,-2,-1,-3,-6,1,-2
1532466858172,-3,0,-1,0,0,0,-2,-1
1532466858177,1,-1,-1,1,-2,9,-5,-8
1532466858182,-3,1,-2,-3,-4,-12,0,-5
1532466858187,0,-8,1,-1,2,5,5,0
1532466858192,-6,4,0,1,0,1,7,-6
1532466858197,1,-2,-3,-2,-2,-6,-4,-2
1532466858202,3,-3,-1,0,0,6,-3,7
1532466858207,-3,-1,0,-3,0,-2,-2,-2
1532466858212,0,-2,1,0,0,0,-5,-11
1532466858217,-2,-2,0,0,1,-5,-2,0
1532466858222,1,0,-2,-2,-3,1,1,7
1532466858227,0,0,-1,-3,-5,-4,-3,-7
1532466858232,7,2,1,-2,-2,12,3,22
1532466858237,-5,0,-1,-1,1,-23,-9,-7
1532466858242,-2,-3,-1,-1,1,5,2,-6
1532466858247,-2,2,-1,-1,-2,3,0,3
1532466858252,-5,-3,-4,-4,0,-1,1,-11
1532466858257,3,-1,0,2,-2,1,-3,-3
1532466858262,0,1,0,0,-1,-1,-1,-2
1532466858267,-1,-4,-1,-1,-3,-2,-3,0
1532466858272,-1,-3,-3,-3,-4,-3,0,-2
1532466858277,0,0,0,-1,1,-3,-1,4
1532466858282,0,-1,-1,-3,-7,-5,1,-2
1532466858287,1,2,-1,2,1,6,0,-1
1532466858292,-5,-5,-1,0,-1,-5,-2,9
1532466858297,-1,-1,-1,-1,-1,0,1,-4
1532466858302,0,2,0,1,2,3,-3,-2
1532466858307,-1,-1,-2,-3,0,-4,-1,-2
1532466858312,-3,-1,1,0,-1,-13,-5,-2
1532466858317,-3,0,0,-1,-2,0,-2,-10
1532466858322,1,-1,-3,-1,-3,-9,-2,19
1532466858327,0,1,2,1,4,10,-1,-4
1532466858332,-3,-2,-2,-3,0,-6,-7,-14
1532466858337,-1,0,1,1,1,7,11,2
1532466858342,5,1,2,-1,-1,3,-5,-4
1532466858347,2,0,-1,0,-1,2,-9,-5
1532466858352,-3,1,1,0,-2,-6,3,4
1532466858357,4,2,-1,1,0,4,0,6
1532466858362,-6,-6,-1,-4,-3,3,6,1
1532466858367,0,1,-1,0,3,-1,-4,-2
1532466858372,0,-1,-1,-1,-1,12,0,-2
1532466858377,1,1,-3,-1,-1,-5,6,4
1532466858382,-3,-2,-1,-2,-3,-16,-1,-3
1532466858387,-2,0,1,0,-1,-8,-9,1
1532466858392,1,1,-1,2,3,10,-11,-8
1532466858397,2,-1,0,1,-2,0,15,21
1532466858402,0,0,0,3,5,12,3,-8
1532466858407,-3,0,-2,-3,-4,7,-3,-18
1532466858412,1,0,0,1,2,-18,-4,7
1532466858417,-2,-3,-1,-2,-5,3,-1,-4
1532466858422,-2,-1,-1,-1,0,-6,-3,1
1532466858427,1,-2,-1,-2,-1,-1,8,6
1532466858432,2,-2,0,-1,-4,3,-1,-11
1532466858437,-5,-1,-2,-2,-1,-8,-4,-12
1532466858442,0,-1,-2,-1,-1,4,0,9
1532466858447,-2,-2,0,-2,0,2,6,-10
1532466858452,2,0,-2,0,2,2,5,0
1532466858457,-9,-4,-2,-3,-4,-15,-7,-6
1532466858462,-2,-1,-1,-1,1,-3,-8,-11
1532466858467,1,0,-1,1,2,5,10,11
1532466858472,-3,-2,-1,-2,-7,-4,1,-2
1532466858477,3,0,-1,-2,-1,7,-10,9
1532466858482,2,-1,0,1,4,-10,2,7
1532466858487,-5,0,-3,-1,-5,-9,-9,-5
1532466858492,2,0,-1,2,5,5,2,4
1532466858497,1,-2,-1,-2,0,1,0,-1
1532466858502,-3,0,-1,-3,-2,3,-1,-11
1532466858507,1,-2,1,0,1,-1,10,6
1532466858512,1,0,1,-1,-1,0,12,1
1532466858517,-4,-2,-1,-1,0,-2,-9,4
1532466858522,-1,2,-1,0,2,3,4,-14
1532466858527,1,-3,-3,-6,-15,-13,-15,8
1532466858532,1,-1,0,1,3,4,6,7
1532466858537,-2,-2,-1,-1,4,9,-6,-15
1532466858542,6,-1,-1,-4,-12,2,6,31
1532466858547,-2,-1,-2,0,0,-10,-1,-4
1532466858552,1,0,-1,1,-1,-1,-15,-1
1532466858557,1,-1,0,1,3,4,18,-9
1532466858562,-4,-3,-2,-1,0,-6,-12,-7
1532466858567,4,0,-1,1,-2,-4,13,22
1532466858572,-5,-1,-1,-4,-5,-6,-1,-5
1532466858577,0,1,-1,2,9,4,-8,0
1532466858582,-4,-1,1,0,-3,7,5,-16
1532466858587,2,-2,-3,0,10,-8,-6,12
1532466858592,-3,-3,-2,-5,-26,-21,10,-5
1532466858597,0,0,0,2,2,-2,-2,9
1532466858602,-3,2,-1,-2,3,4,7,-9
1532466858607,-3,-3,0,0,-4,4,-2,-11
1532466858612,-3,0,1,0,5,0,-1,-4
1532466858617,-3,0,-1,0,-4,-3,1,-16
1532466858622,7,1,1,1,1,13,9,39
1532466858627,-5,-2,0,-2,-6,-2,-8,-15
1532466858632,2,1,1,0,0,-2,2,-8
1532466858637,-1,-3,-1,-4,-4,4,6,-4
1532466858642,-3,-3,-4,1,3,-9,-4,-10
1532466858647,0,1,2,-1,-8,-3,-10,14
1532466858652,0,-1,-1,3,9,9,24,-12
1532466858657,2,0,3,1,1,11,1,6
1532466858662,-3,2,-1,-4,-6,-16,-1,-3
1532466858667,1,3,-4,-2,-5,0,-24,1
1532466858672,2,-3,1,1,5,1,9,-1
1532466858677,-3,-7,-2,0,1,12,14,-1
1532466858682,2,0,1,0,3,0,-3,16
1532466858687,-2,3,-3,-2,-6,8,4,-7
1532466858692,0,-1,-3,-1,4,-9,-11,-4
1532466858697,0,0,1,0,0,-4,-9,4
1532466858702,-3,0,-2,-4,-4,0,-3,-6
1532466858707,-2,-11,3,3,0,-2,2,-2
1532466858712,-4,-2,-1,1,0,1,-21,-1
1532466858717,1,0,0,-2,-1,3,13,5
1532466858722,-2,0,-2,1,2,-2,9,-7
1532466858727,1,0,-1,-2,-4,0,-2,-11
1532466858732,-2,2,0,-1,-1,-9,-1,-7
1532466858737,-1,-2,-5,-1,-1,0,-14,2
