1532234394901,2,-6,-2,-6,0,-1,-1,0
1532234394906,-8,-5,0,4,-1,-1,-1,-3
1532234394911,1,7,-1,-1,-1,-2,-2,-4
1532234394916,1,0,0,-2,-2,-2,-3,1
1532234394921,0,0,1,-1,-1,0,-2,1
1532234394926,0,-12,-3,-4,0,2,0,-1
1532234394931,-2,8,3,1,-1,-2,-1,-1
1532234394936,-1,-8,-2,-2,-3,-1,0,0
1532234394941,-1,19,-1,-3,-1,0,-2,-1
1532234394946,3,-3,-1,-2,0,0,1,4
1532234394951,-2,0,-3,3,-1,-2,0,-7
1532234394956,-2,-6,-3,1,-2,-1,-1,0
1532234394961,1,-16,1,1,1,1,2,-1
1532234394966,-3,3,-2,-5,-3,-4,-1,-3
1532234394971,1,8,-1,-9,-3,0,1,2
1532234394976,2,-10,3,7,2,-1,0,5
1532234394981,-5,-4,0,6,1,-1,0,-3
1532234394986,3,-21,-3,2,-2,1,-1,1
1532234394991,-6,11,4,-4,-1,-1,-2,0
1532234394996,7,10,-3,-2,-2,-1,-1,-3
1532234395001,-8,-3,0,-4,-2,-1,0,-2
1532234395006,3,-9,-2,3,2,0,-1,-2
1532234395011,-4,-9,-2,4,1,0,-2,-1
1532234395016,-2,1,-3,-3,0,-1,-1,0
1532234395021,2,-6,-2,-2,-1,-2,-1,-1
1532234395026,-2,10,1,-2,0,0,0,0
1532234395031,-2,-24,-5,0,0,0,-1,-1
1532234395036,-1,26,1,-2,-1,-1,-2,-3
1532234395041,0,-2,-2,-2,-2,-3,-4,0
1532234395046,-4,0,2,-2,-2,-1,0,-1
1532234395051,-2,0,-5,-5,-4,-1,-1,-3
1532234395056,-3,-9,0,2,3,1,0,-2
1532234395061,0,0,0,5,3,1,2,-1
1532234395066,4,3,-3,1,-2,-1,-3,-1
1532234395071,3,-1,-1,0,-1,-1,0,3
1532234395076,-10,-9,1,-2,-1,-1,-1,-4
1532234395081,4,3,1,-5,-1,1,-2,0
1532234395086,-1,-4,-1,-4,-3,-1,-1,0
1532234395091,2,-1,1,0,1,1,2,-3
1532234395096,1,8,-3,-2,0,0,0,1
1532234395101,-3,-2,1,4,2,1,0,0
1532234395106,-2,-14,-3,-2,2,2,-4,0
1532234395111,-4,17,2,0,-3,-3,-3,-2
1532234395116,1,-12,-3,-6,-2,2,1,0
1532234395121,1,25,1,-3,-2,-1,-4,-3
1532234395126,-1,5,0,1,-2,-3,1,-3
1532234395131,-3,-4,-2,8,-1,2,1,-2
1532234395136,-1,4,-1,2,-2,-4,0,0
1532234395141,0,-13,-4,-3,-3,-3,1,1
1532234395146,-5,3,3,2,2,2,-1,-1
1532234395151,-3,1,2,-3,-4,-1,-3,0
1532234395156,4,-1,-4,-3,1,1,0,0
1532234395161,5,-18,-2,3,-2,3,1,3
1532234395166,-9,2,-2,-1,-2,-2,-3,-6
1532234395171,5,-6,-2,-1,1,1,0,-3
1532234395176,-1,9,0,1,-1,-3,-3,0
1532234395181,-1,4,-1,-2,-2,-2,1,2
1532234395186,-1,-5,-1,-5,0,-1,-2,-5
1532234395191,-2,-2,-3,2,-1,-2,-1,1
1532234395196,2,9,1,-3,-5,1,0,-1
1532234395201,1,4,-1,-4,0,-1,-3,-3
1532234395206,1,-5,0,1,0,-1,0,2
1532234395211,-3,-14,-2,-4,0,0,0,-1
1532234395216,1,17,5,2,1,-1,-2,0
1532234395221,-2,-11,1,2,1,-1,1,-2
1532234395226,2,15,-4,-5,-5,1,1,1
1532234395231,-2,-18,-4,-3,1,-1,-1,-4
1532234395236,-2,-3,-4,-3,-2,-2,-2,-1
1532234395241,-2,-2,1,0,-1,-1,-1,-2
1532234395246,0,4,2,4,5,2,1,-1
1532234395251,7,23,-1,-4,-3,-2,-1,5
1532234395256,-10,-9,-2,-1,-1,-1,1,-3
1532234395261,3,-3,0,0,-1,-2,-3,-2
1532234395266,1,-8,-3,-3,-3,-1,1,-2
1532234395271,-3,-13,-2,-1,-2,1,-1,-1
1532234395276,3,9,0,0,0,-2,0,0
1532234395281,-6,-7,-2,-1,-1,0,2,1
1532234395286,-2,5,-2,-2,-3,-2,-3,-1
1532234395291,0,-11,-1,-1,1,-2,-2,0
1532234395296,-1,-18,-4,-1,-3,0,-1,3
1532234395301,-5,8,0,-1,-1,-1,-1,-5
1532234395306,5,16,2,-3,-1,1,-2,0
1532234395311,-2,-3,0,0,1,-1,-1,-3
1532234395316,-1,-10,-4,6,1,0,-2,-2
1532234395321,-2,-9,-4,-2,-3,-2,-1,2
1532234395326,-2,-17,0,-2,-3,-2,-1,-1
1532234395331,5,31,0,0,-1,-5,-1,-2
1532234395336,-2,-9,1,-7,-2,2,2,6
1532234395341,1,2,-2,-2,1,2,-2,-8
1532234395346,-3,-1,-1,0,0,1,1,-3
1532234395351,2,-6,2,9,2,1,2,3
1532234395356,3,3,1,-2,-2,-1,1,-1
1532234395361,-5,-13,0,-1,-2,-3,-1,3
1532234395366,-2,16,1,-1,-1,-5,-3,-3
1532234395371,-5,9,-1,-1,-2,0,-2,-1
1532234395376,-2,-7,-1,-4,-3,-3,-4,-4
1532234395381,3,8,1,-1,-2,0,-2,1
1532234395386,-5,-3,-1,1,-1,1,0,-3
1532234395391,5,7,-3,-1,-1,-2,-2,1
1532234395396,-4,3,2,-1,1,-2,-1,-2
1532234395401,-2,-1,0,-3,-3,-4,-3,0
1532234395406,0,0,-2,-3,-1,0,0,0
1532234395411,1,-10,-1,5,1,0,-1,0
1532234395416,5,0,-1,-2,0,-1,0,0
1532234395421,1,8,1,3,-1,-1,1,-1
1532234395426,-2,-16,-2,-1,-1,-2,0,0
1532234395431,1,9,1,-2,1,-1,0,1
1532234395436,-2,-3,-1,3,0,-2,-1,-4
1532234395441,-4,-7,-2,-8,-3,0,1,-3
1532234395446,-3,7,-3,-1,-2,0,-2,-3
1532234395451,6,-15,2,4,1,-1,2,2
1532234395456,-4,-1,-2,-4,0,-1,-2,-1
1532234395461,1,2,-2,5,0,-1,0,3
1532234395466,-4,3,-5,-3,1,1,-3,-6
1532234395471,3,2,2,-5,-5,0,2,1
1532234395476,-2,2,3,-1,-2,2,-2,-3
1532234395481,-1,-6,2,5,2,-2,-2,-1
1532234395486,0,1,-2,-1,-1,-3,1,1
1532234395491,-3,-10,-2,-2,0,0,-3,2
1532234395496,-3,1,-2,4,2,0,1,-5
1532234395501,2,-5,-4,-2,-2,0,0,1
1532234395506,-3,-9,-2,0,1,0,1,3
1532234395511,-7,26,1,-5,-3,0,-1,-5
1532234395516,4,-3,-1,-7,-3,-2,-1,4
1532234395521,-5,1,-2,1,0,0,0,-3
1532234395526,0,-8,-1,-3,-1,-2,-2,-1
1532234395531,-2,-12,-2,0,-1,0,0,0
1532234395536,-5,1,3,5,0,0,-1,1
1532234395541,1,-1,-2,-2,-2,-1,-1,-2
1532234395546,0,7,2,-2,-2,-2,0,-1
1532234395551,1,0,-4,-3,-1,-1,-1,0
1532234395556,1,1,1,-2,1,0,0,1
1532234395561,1,-10,-1,-1,-1,1,0,1
1532234395566,-3,4,1,-2,-1,-1,-2,-2
1532234395571,-1,-10,0,1,-1,0,1,-3
1532234395576,-1,-14,-6,1,-2,-1,0,0
1532234395581,0,19,0,1,-1,0,-4,-1
1532234395586,1,-2,-1,-2,2,2,0,-2
1532234395591,1,-5,0,-2,-3,-3,-2,1
1532234395596,0,-3,3,-1,0,1,1,-1
1532234395601,-10,1,1,-1,0,-1,0,-4
1532234395606,0,3,-1,-2,-3,-1,-3,1
1532234395611,-2,-6,-1,1,0,0,0,-3
1532234395616,1,-4,-1,4,1,-1,-2,1
1532234395621,-2,-16,1,-2,0,-1,0,-2
1532234395626,-2,35,2,2,-3,0,-3,-5
1532234395631,2,-12,-3,-2,1,3,2,1
1532234395636,-2,-2,-3,-4,-2,-3,-3,0
1532234395641,2,5,-2,-6,-3,0,2,1
1532234395646,1,-10,-1,1,1,-1,0,0
1532234395651,1,-1,-3,-3,0,-3,-2,0
1532234395656,-2,5,1,3,-2,-1,-1,-1
1532234395661,-2,-6,-4,-5,-1,-1,-2,-2
1532234395666,0,-10,2,2,2,-2,0,-2
1532234395671,-2,11,-2,2,0,-1,1,1
1532234395676,-7,-3,0,1,0,-2,-1,-9
1532234395681,0,6,0,-1,0,1,0,-4
1532234395686,-2,-14,-1,-2,-2,0,1,2
1532234395691,1,14,2,-3,-1,-2,-3,-3
1532234395696,3,-5,-1,-1,-3,0,0,6
1532234395701,2,20,-4,1,1,-1,-1,0
1532234395706,-5,-11,-1,2,0,2,0,-5
1532234395711,-2,-8,3,0,-1,-2,-1,-1
1532234395716,-2,-14,-3,-3,-2,-1,-1,0
1532234395721,1,23,1,0,0,0,0,1
1532234395726,1,-8,-2,1,-1,-4,1,2
1532234395731,-2,1,1,1,-3,1,-2,0
1532234395736,1,6,-5,-9,0,3,-1,-2
1532234395741,-1,-9,4,7,0,1,0,-2
1532234395746,0,5,-2,0,-1,-2,-2,-1
1532234395751,3,-7,-3,-1,-4,-2,-1,0
1532234395756,-6,-1,-3,-3,1,-2,-1,-2
1532234395761,4,-7,-2,-1,0,-1,0,1
1532234395766,-1,1,-2,-2,-1,2,0,3
1532234395771,-2,-10,0,-1,2,-1,0,-2
1532234395776,1,7,-1,-2,-2,-3,0,-3
1532234395781,1,-1,2,-2,-3,-1,-1,4
1532234395786,-7,11,-2,-3,-3,-2,-2,-9
1532234395791,-2,-13,0,-3,1,0,-2,2
1532234395796,3,21,1,4,0,-3,-1,1
1532234395801,-6,-1,-1,-3,-1,-1,-1,-1
1532234395806,5,-7,-4,-2,-2,0,0,2
1532234395811,-2,-9,-3,1,-1,-2,-2,0
1532234395816,0,-10,-3,-3,-3,2,0,-2
1532234395821,1,0,-2,2,0,1,-2,-3
1532234395826,0,3,2,1,-1,1,0,1
1532234395831,-3,-7,-3,-3,0,0,1,-2
1532234395836,5,7,5,8,-1,0,-1,0
1532234395841,2,-1,-1,-2,0,-1,-1,1
1532234395846,-4,3,-2,-2,-2,-2,-1,-3
1532234395851,3,-18,-4,-2,0,0,-2,-1
1532234395856,0,-18,0,5,1,1,0,1
1532234395861,1,50,-1,-5,-3,-2,-4,-4
1532234395866,-2,-10,-1,-5,-3,-1,-1,2
1532234395871,-2,5,1,2,1,-2,-1,-5
1532234395876,2,1,-5,-3,-3,-3,-1,1
1532234395881,-3,-14,3,4,2,1,0,-1
1532234395886,-4,-1,-1,1,0,-1,1,-5
1532234395891,2,0,2,0,-1,-5,-3,1
1532234395896,-4,-2,-2,-8,1,0,-2,0
1532234395901,1,0,-1,4,-1,1,0,0
1532234395906,-1,-2,-1,-3,-1,-3,-1,1
1532234395911,-2,-11,-2,-5,-2,0,0,-1
1532234395916,3,5,3,4,3,-2,-1,-3
1532234395921,-2,6,-1,-1,0,1,-1,0
1532234395926,0,-5,0,-3,-1,-2,-3,1
1532234395931,-1,5,-1,1,-2,1,-1,0
1532234395936,-2,-5,-2,1,-1,2,-1,-5
1532234395941,-2,-24,-5,-3,-1,-1,-1,-2
1532234395946,2,37,1,0,0,-1,-3,-1
1532234395951,4,-3,0,-5,-3,-1,0,1
1532234395956,-6,1,0,-2,-2,-1,0,2
1532234395961,-4,-8,-2,-2,0,-1,0,-2
1532234395966,-2,-15,-1,0,-1,2,-1,-3
1532234395971,1,6,0,2,1,-1,-1,-1
1532234395976,-2,-5,-1,-3,-2,1,1,0
1532234395981,0,-5,-1,1,-2,-1,1,2
1532234395986,-2,-7,-3,-1,-2,-2,2,1
1532234395991,-1,10,0,-1,1,0,-2,0
1532234395996,-5,-15,-4,0,0,-2,-1,-5
1532234396001,6,26,9,-1,-2,-1,1,1
1532234396006,3,1,1,-2,2,0,1,1
1532234396011,-3,-9,-1,4,0,-1,1,-2
1532234396016,1,-1,-1,-4,-2,-3,-1,3
1532234396021,-3,-10,-2,-1,0,-2,-2,1
1532234396026,0,-17,2,3,-1,1,1,3
1532234396031,-4,18,0,-4,-3,0,-1,-8
1532234396036,3,5,-3,-3,-1,0,-2,1
1532234396041,1,-7,-1,4,2,-1,0,1
1532234396046,-5,9,2,2,2,-1,-1,-1
1532234396051,6,-11,-2,-1,-4,-1,-1,3
1532234396056,1,6,2,-3,-2,-2,0,0
1532234396061,-2,-5,-4,-5,-3,0,-1,-2
1532234396066,1,-10,-1,4,1,2,-1,0
1532234396071,-5,-6,-2,2,1,0,1,-1
1532234396076,0,-7,-2,0,-2,-2,0,0
1532234396081,1,0,2,-3,-4,-3,-4,-2
1532234396086,0,10,-2,-3,-1,-2,-2,-2
1532234396091,-3,0,1,0,2,-4,-2,0
1532234396096,1,-1,1,4,2,1,1,1
1532234396101,-6,-30,-4,1,-1,-2,2,-1
1532234396106,0,25,-1,-5,-3,-1,-2,-2
1532234396111,0,1,1,-2,-3,-3,-2,-2
1532234396116,1,-1,-1,-1,-3,1,0,2
1532234396121,-4,-1,1,2,1,-1,-1,-7
1532234396126,3,5,2,5,2,1,-2,-2
1532234396131,-4,-2,-5,-5,-3,0,2,1
1532234396136,1,2,-1,0,-3,-4,-1,-2
1532234396141,-4,0,-2,1,1,0,0,1
1532234396146,-2,-14,-6,-6,-2,-2,-1,-3
1532234396151,0,-2,-3,-5,1,1,1,1
1532234396156,0,0,2,6,2,1,-2,2
1532234396161,0,9,1,-1,-1,-1,1,-2
1532234396166,1,-16,0,-3,-1,-2,0,-1
1532234396171,-1,6,0,0,0,-1,-2,-1
1532234396176,-3,3,-5,-9,-2,-2,-2,-3
1532234396181,2,-4,0,1,-1,0,-1,0
1532234396186,-1,8,-2,2,1,1,-1,0
1532234396191,2,3,-3,-2,-2,-1,-1,-3
1532234396196,-6,-3,0,-2,0,0,0,-2
1532234396201,-1,1,0,2,-4,0,0,-2
1532234396206,1,-26,-3,-5,-3,-2,3,2
1532234396211,-4,-1,4,2,0,-3,-3,-2
1532234396216,5,19,0,-7,-2,-3,1,-1
1532234396221,-3,-4,-2,3,2,0,0,2
1532234396226,-4,-12,-5,-1,-1,1,-1,-3
1532234396231,2,1,4,4,-1,2,-1,-2
1532234396236,-1,5,2,-6,-2,-3,-2,-2
1532234396241,-1,8,0,-1,1,-1,-2,-1
1532234396246,1,3,2,1,1,-2,-1,1
1532234396251,-3,-11,-4,-3,-2,-1,0,0
1532234396256,-2,-5,-1,-2,1,0,-2,-2
1532234396261,2,1,-1,-5,-2,-1,1,0
1532234396266,-2,-6,-3,-3,0,0,-1,-1
1532234396271,2,-6,0,2,2,-1,0,2
1532234396276,2,8,0,3,0,0,0,1
1532234396281,2,-3,1,-2,0,0,-2,-1
1532234396286,-3,3,1,4,0,-1,-2,-7
1532234396291,1,-15,-3,-3,-2,0,0,1
1532234396296,5,14,-4,-2,-1,1,0,1
1532234396301,-5,-14,-1,2,-1,-4,-1,-3
1532234396306,4,3,2,-1,-2,0,1,0
1532234396311,0,15,-2,-2,-2,1,0,1
1532234396316,-4,-13,1,2,2,0,1,-1
1532234396321,2,13,1,3,0,-1,-1,-1
1532234396326,-4,-15,-5,-7,-3,-3,-2,0
1532234396331,-2,-2,0,8,1,0,-1,-1
1532234396336,2,-1,-1,-3,-4,1,0,1
1532234396341,-4,-9,-3,-3,1,-1,-1,-1
1532234396346,1,-16,0,1,-1,2,2,2
1532234396351,-2,47,-2,-8,-3,-1,-3,-5
1532234396356,-1,-6,-1,0,-1,-1,-2,-3
1532234396361,1,5,-2,0,-2,-1,-1,0
1532234396366,-1,0,-2,-1,-2,-2,-1,0
1532234396371,4,-13,-3,2,-1,-4,1,3
1532234396376,-9,-6,1,3,3,1,0,-3
1532234396381,3,2,-2,-5,-3,0,-2,0
1532234396386,5,5,1,-2,-3,-4,-1,3
1532234396391,-8,-19,-5,-3,-2,1,1,-6
1532234396396,2,9,1,4,0,-1,0,-1
1532234396401,2,-14,-2,4,2,0,0,1
1532234396406,-2,25,3,3,-1,-1,0,2
1532234396411,4,-14,1,-3,-3,1,-3,2
1532234396416,-3,-7,-1,-2,-3,-1,-2,-3
1532234396421,-4,0,0,-1,-2,-1,-1,0
1532234396426,0,-12,-4,-2,-1,-3,-1,0
1532234396431,-3,-5,1,-1,2,0,0,-2
1532234396436,-4,1,-1,1,-2,0,-2,-2
1532234396441,0,19,-4,-3,-2,-2,-1,-1
1532234396446,-4,0,-1,-2,-2,-1,-1,-1
1532234396451,7,-3,1,-3,0,-1,1,3
1532234396456,-4,-9,0,2,2,-3,-1,-2
1532234396461,2,5,0,-3,0,5,-2,-2
1532234396466,-2,-8,-4,-4,-1,1,-2,-1
1532234396471,-1,-3,-1,-2,-1,1,0,0
1532234396476,6,11,-2,3,0,-2,1,2
1532234396481,0,-1,-1,-4,1,0,0,1
1532234396486,-3,4,1,3,1,1,0,3
1532234396491,-2,-5,-4,-1,-2,-3,-2,-5
1532234396496,-2,-11,-3,-2,-1,0,1,-4
1532234396501,-2,-5,-2,-4,-4,-2,-1,-1
1532234396506,0,5,4,-1,1,0,-2,-3
1532234396511,3,5,1,5,2,2,2,2
1532234396516,-2,-11,0,-2,-4,1,-1,0
1532234396521,-2,25,-2,0,-3,-2,0,-1
1532234396526,-1,-14,0,0,-2,0,-1,-5
1532234396531,-6,0,-1,2,-2,0,0,0
1532234396536,5,-7,-3,2,3,-1,0,3
1532234396541,-7,-15,-1,-1,0,-2,0,-2
1532234396546,2,7,0,-2,-2,0,-2,0
1532234396551,-1,2,0,-3,-2,-2,-1,-2
1532234396556,2,-15,-3,-6,-4,-2,-2,1
1532234396561,-2,-1,1,4,2,-1,1,1
1532234396566,0,20,2,1,1,-1,-2,-4
1532234396571,-1,-3,0,2,-2,-3,-1,-1
1532234396576,4,11,0,-3,-3,0,-1,2
1532234396581,-7,-10,-1,-7,2,0,-2,-3
1532234396586,-2,-25,-3,6,0,-1,0,-3
1532234396591,-1,33,-1,-4,0,-1,-1,0
1532234396596,-1,8,0,1,-1,0,0,-2
1532234396601,1,-5,-2,-2,-3,-4,0,0
1532234396606,-4,-1,-3,-5,-2,-1,-1,0
1532234396611,3,-10,1,3,1,2,1,2
1532234396616,-8,-9,1,2,1,0,0,-11
1532234396621,0,12,-2,-1,-1,0,-4,-3
1532234396626,3,-8,-3,-5,-4,1,3,0
1532234396631,-2,2,-2,-2,1,-3,-3,-4
1532234396636,1,4,0,0,-1,0,0,4
1532234396641,1,-6,0,-1,-1,-2,-4,-1
1532234396646,-4,4,-1,2,1,-1,0,-1
1532234396651,0,-2,1,1,-3,0,-2,1
1532234396656,-1,-9,-2,-2,-3,-1,0,0
1532234396661,1,13,0,0,0,3,0,0
1532234396666,1,10,-3,-3,-2,0,-3,-1
1532234396671,-6,-10,-4,1,-1,0,0,-2
1532234396676,0,11,2,1,1,-2,-3,0
1532234396681,0,-19,-3,0,-4,-2,0,0
1532234396686,-1,19,1,-2,-2,-3,0,0
1532234396691,5,-8,0,4,1,0,0,1
1532234396696,-8,-11,-1,-3,-3,1,0,-3
1532234396701,5,1,-1,-3,-2,-2,-1,-1
1532234396706,-3,-10,0,-1,1,2,-2,-3
1532234396711,-2,-21,-7,-6,-4,-5,-1,-2
1532234396716,1,13,2,6,1,-2,0,2
1532234396721,2,4,2,4,2,2,0,0
1532234396726,3,1,-3,-1,-3,-2,-2,3
1532234396731,-14,-3,-2,0,-1,0,0,-9
1532234396736,1,-11,-3,-3,-1,1,-1,1
1532234396741,0,-6,-5,-4,-1,-2,-2,-1
1532234396746,1,2,1,1,-2,-1,-1,2
1532234396751,0,4,1,-3,1,2,-2,1
1532234396756,0,-11,-7,0,0,-1,-1,-3
1532234396761,1,20,3,3,-1,-2,0,-2
1532234396766,-2,-10,-2,-2,-1,2,-1,-3
1532234396771,4,2,0,0,1,0,-1,1
1532234396776,2,1,-2,-1,-3,-2,-1,0
1532234396781,-5,-19,-1,-2,-1,0,1,1
1532234396786,-2,10,0,4,1,-4,0,-2
1532234396791,0,7,1,1,-3,0,-2,0
1532234396796,0,5,1,-1,-1,-3,-3,0
1532234396801,-1,-6,-3,-3,-3,-1,1,1
1532234396806,-5,-14,-2,-1,-1,0,3,-1
1532234396811,2,-15,0,1,0,1,-1,-1
1532234396816,2,32,1,-3,0,0,-3,0
1532234396821,0,1,3,-1,0,-1,-1,2
1532234396826,-5,-2,0,-4,-1,-1,-1,-6
1532234396831,-1,2,-5,-5,-2,-4,-3,2
1532234396836,-2,5,3,4,0,0,-1,-2
1532234396841,-2,-1,-2,-1,0,2,1,-3
1532234396846,7,-2,-1,3,1,0,-1,6
1532234396851,1,9,0,-3,0,1,-1,-5
1532234396856,-7,-13,-4,-4,-2,-2,-1,-2
1532234396861,5,1,-2,-2,-2,-3,0,-1
1532234396866,-5,7,-3,-2,0,2,-1,-4
1532234396871,0,7,0,3,1,1,1,4
1532234396876,-2,-2,-2,1,-2,0,-1,0
1532234396881,1,-9,2,3,0,0,1,0
1532234396886,0,-6,2,-1,-1,0,-2,0
1532234396891,0,-7,-2,-5,-1,-1,1,-2
1532234396896,1,18,-1,-1,-1,0,-4,-2
1532234396901,-2,-8,-2,-1,-1,-3,-3,0
1532234396906,1,6,0,-1,-2,-4,-3,-3
1532234396911,-2,9,-1,-6,-2,3,2,-1
1532234396916,3,-23,-1,2,0,-1,1,2
1532234396921,-6,2,-1,-2,-2,-2,-2,-6
1532234396926,6,15,1,0,-4,-1,-1,2
1532234396931,-8,-4,1,1,3,-3,-1,-4
1532234396936,3,-8,0,-1,-1,2,2,2
1532234396941,-2,-11,-1,2,0,2,1,3
1532234396946,-6,19,-3,-2,-1,-1,-2,-8
1532234396951,-2,-2,0,-4,-2,-1,-3,-4
1532234396956,-1,-23,-3,3,2,0,1,-1
1532234396961,2,23,-1,-2,-2,-2,-3,-1
1532234396966,-2,-14,-1,-4,-2,-2,-1,0
1532234396971,-6,19,-1,-3,-3,-1,-1,-3
1532234396976,3,-11,0,-1,0,-2,0,0
1532234396981,0,-2,0,2,-1,2,0,0
1532234396986,0,-5,0,-2,0,0,0,2
1532234396991,-4,-6,-3,-4,-2,0,0,-2
1532234396996,-6,2,-3,-3,-2,-1,-3,-3
1532234397001,0,-8,-4,-2,-1,-1,-1,-2
1532234397006,-1,2,0,-4,0,0,-1,-1
1532234397011,4,-14,-1,6,1,-1,-1,1
1532234397016,-3,1,0,-3,-1,-1,0,0
1532234397021,1,-6,1,-2,-1,-5,-1,-1
1532234397026,-2,-6,1,2,0,2,-2,-2
1532234397031,0,4,-1,0,-2,-1,-1,0
1532234397036,0,4,-5,-1,0,1,1,1
1532234397041,-2,4,4,8,-1,1,-1,1
1532234397046,-5,9,0,-4,-2,-3,-4,-10
1532234397051,3,5,-3,-3,-1,-1,0,0
1532234397056,0,-10,0,-2,0,2,0,3
1532234397061,-1,-16,-2,-1,-1,-1,0,-4
1532234397066,0,9,1,1,1,-1,1,2
1532234397071,0,-9,1,1,-1,-2,-4,-2
1532234397076,-1,15,1,-1,-1,-1,1,0
1532234397081,-7,-3,-2,-4,-2,-1,0,-4
1532234397086,0,-10,-3,1,1,-1,0,2
1532234397091,-1,-5,-3,-2,-1,-3,-2,-4
1532234397096,-1,-10,-2,0,3,1,1,1
1532234397101,1,-6,1,4,1,-1,-2,-1
1532234397106,-8,27,-2,-1,-3,-1,-1,-2
1532234397111,5,-2,-1,-4,-1,-2,-1,1
1532234397116,-2,-10,-2,3,-1,-1,-1,-1
1532234397121,-1,-3,0,-3,-2,0,0,-1
1532234397126,1,-6,0,0,0,-1,2,1
1532234397131,-1,3,1,0,2,0,1,1
1532234397136,-2,5,-1,1,-3,-1,1,-2
1532234397141,-1,4,0,-4,-1,1,0,-1
1532234397146,0,-14,-4,-1,-2,-3,-2,0
1532234397151,0,-2,1,1,-1,3,1,2
1532234397156,2,34,6,-5,-4,-3,-3,-6
1532234397161,2,8,0,0,-1,-3,-3,4
1532234397166,-1,-11,-1,-2,-2,4,2,-2
1532234397171,-4,-5,1,-1,-2,0,-1,-3
1532234397176,0,-2,-2,-7,-2,-2,0,0
1532234397181,0,25,3,3,2,1,-1,-1
1532234397186,-3,-24,2,1,-2,-3,-3,0
1532234397191,0,11,0,1,-1,0,0,1
1532234397196,-4,-3,-3,-5,-2,1,0,-3
1532234397201,2,-13,-1,-2,-1,-2,1,7
1532234397206,-5,1,1,6,4,1,-1,-10
1532234397211,-2,-11,-5,1,-2,-2,-2,-1
1532234397216,1,4,1,-3,-1,-2,-2,1
1532234397221,-4,-4,0,1,-2,1,-1,-5
1532234397226,4,-5,0,0,2,-1,1,5
1532234397231,-2,5,-1,-2,-2,-1,-1,-2
1532234397236,-1,-2,0,-3,-1,-2,-2,0
1532234397241,0,3,-5,4,0,0,-1,0
1532234397246,0,4,2,-2,-2,1,-1,2
1532234397251,0,-7,2,1,-1,-2,-1,-2
1532234397256,2,0,1,-3,-2,1,-2,0
1532234397261,-2,-5,-1,-2,-3,-1,0,-1
1532234397266,4,33,-1,-4,0,-3,-5,0
1532234397271,-10,-11,-2,1,0,-1,2,-2
1532234397276,4,7,2,1,-1,-3,-2,-1
1532234397281,-3,-5,2,1,0,0,-1,-1
1532234397286,-2,-23,-4,-2,-1,-1,-3,2
1532234397291,4,4,1,-3,1,1,-1,2
1532234397296,1,6,2,-1,0,-3,-2,-2
1532234397301,-4,0,-2,-3,-2,-3,-1,-4
1532234397306,-3,-8,-2,0,-2,1,0,-1
1532234397311,1,4,0,-1,0,-1,-2,-2
1532234397316,-1,-11,-1,6,0,0,1,4
1532234397321,0,-2,-1,-1,-2,-3,0,-5
1532234397326,-1,11,-4,-5,-2,-1,0,-1
1532234397331,1,3,5,1,2,1,1,-2
1532234397336,-1,-10,-2,-2,-2,-2,0,0
1532234397341,3,19,-1,1,-1,-1,-3,3
1532234397346,-2,-14,5,-1,-1,0,-1,-1
1532234397351,-1,18,1,-1,-1,0,-1,-2
1532234397356,2,-3,-2,1,0,1,-1,2
1532234397361,-7,-11,-1,-4,-1,0,-1,-4
1532234397366,2,-9,-4,-1,-1,2,2,-1
1532234397371,0,-6,-2,5,0,-2,-2,2
1532234397376,-3,3,-2,-1,-2,0,-1,-3
1532234397381,0,-2,-2,0,1,-1,1,2
1532234397386,-8,4,0,-2,-2,-1,0,-2
1532234397391,-2,-4,0,0,-2,-4,-1,-4
1532234397396,1,0,-1,-1,1,-1,-2,-1
1532234397401,1,-5,-5,-8,-4,-1,-1,-2
1532234397406,1,-9,-2,13,3,0,0,1
1532234397411,1,-6,1,1,-1,0,0,2
1532234397416,-4,36,-1,-6,-2,-3,-3,-5
1532234397421,1,-4,1,-1,1,-3,2,0
1532234397426,1,-2,0,-2,-3,-3,0,2
1532234397431,-2,-11,-2,-3,-3,0,1,0
1532234397436,0,-6,1,2,0,1,0,1
1532234397441,-3,10,1,3,0,-3,-2,3
1532234397446,-8,-8,-5,-1,0,2,-1,-8
1532234397451,2,-4,-3,-3,-1,-2,-1,1
1532234397456,1,-8,-2,-1,-2,-2,0,0
1532234397461,-5,-9,-3,0,-2,-1,1,0
1532234397466,3,2,3,-3,-3,-1,-1,3
1532234397471,-1,23,-5,-5,-1,0,-1,-2
1532234397476,0,-13,1,5,2,-2,0,0
1532234397481,0,-8,4,8,4,3,-1,-1
1532234397486,-5,19,-5,0,-3,-2,-2,-3
1532234397491,-3,-4,0,-2,-1,0,1,-3
1532234397496,1,3,2,-3,0,2,0,-1
1532234397501,0,-10,0,0,0,0,0,1
1532234397506,-2,-7,1,-2,2,-1,-1,-1
1532234397511,2,2,-4,-6,-3,-2,-1,0
1532234397516,-2,-6,1,-1,-1,-2,0,0
1532234397521,4,2,1,4,1,1,1,1
1532234397526,-7,-6,-1,-2,-1,0,0,-5
1532234397531,4,8,-2,3,-2,-1,0,-1
1532234397536,-2,-13,-2,-2,-2,0,0,-3
1532234397541,2,9,-4,-7,-2,-1,-2,2
1532234397546,0,-4,1,2,2,-1,0,-2
1532234397551,0,-5,2,1,-1,3,-1,0
1532234397556,0,1,1,0,-2,-1,0,0
1532234397561,-2,-2,-2,-2,-3,-1,-2,-4
1532234397566,1,1,-5,-5,-1,-3,0,1
1532234397571,-8,-5,2,6,0,0,2,-5
1532234397576,1,-9,-5,0,1,1,0,2
1532234397581,-2,-10,5,1,1,-1,1,-1
1532234397586,3,22,3,-2,-2,-2,-2,0
1532234397591,-1,8,3,-4,0,-2,-3,-1
1532234397596,-3,-7,-2,2,-1,-1,1,-1
1532234397601,-1,-7,-3,-5,-4,-5,0,-5
1532234397606,1,-21,-3,-8,2,-1,-2,-1
1532234397611,3,15,-2,7,3,-1,-1,2
1532234397616,-8,-3,-2,1,0,0,-3,-1
1532234397621,2,-6,-4,-2,-1,-1,-2,-1
1532234397626,7,-3,1,-1,-5,-2,-2,4
1532234397631,-10,-10,0,-6,-2,-3,-1,-3
1532234397636,0,3,-1,-1,-1,0,-1,-5
1532234397641,-2,2,-2,-2,0,-3,-2,-2
1532234397646,0,5,-1,-4,-1,0,0,1
1532234397651,3,-8,-2,6,1,1,0,3
1532234397656,-4,5,0,0,-1,0,-1,-1
1532234397661,-3,-3,-1,-2,-1,2,-2,-2
1532234397666,1,2,-1,-2,-2,-3,1,-1
1532234397671,0,-19,-1,-5,-1,0,-1,0
1532234397676,-2,16,0,0,3,0,0,-2
1532234397681,-2,6,1,-3,-2,-1,-2,-1
1532234397686,4,-7,7,7,0,0,0,1
1532234397691,-7,18,-8,-3,0,-1,-2,-4
1532234397696,8,-1,0,-2,1,-1,-2,6
1532234397701,-2,-6,-4,2,0,2,1,3
1532234397706,-3,-9,-3,1,-2,0,1,-8
1532234397711,6,12,4,-5,-5,-1,0,-1
1532234397716,-9,0,-4,-1,-3,-2,-2,-2
1532234397721,1,5,2,-4,0,-2,1,1
1532234397726,0,-4,0,4,0,0,-1,4
1532234397731,-2,-5,1,2,2,-1,-2,-2
1532234397736,2,-2,-3,-4,-2,0,0,-3
1532234397741,3,0,-1,0,0,-1,-2,1
1532234397746,-8,1,-3,1,0,0,-1,-5
1532234397751,-1,-6,-2,-1,0,0,-2,0
1532234397756,0,-1,1,-1,-4,-3,1,2
1532234397761,0,1,-1,-2,-1,-2,0,-1
1532234397766,-2,3,2,6,1,-1,-2,-1
1532234397771,-2,-6,0,-1,0,0,0,-3
1532234397776,6,-7,-2,-2,-3,-2,-2,1
1532234397781,-2,4,-4,-1,-2,2,1,2
1532234397786,2,1,-1,1,-1,-2,0,-3
1532234397791,0,-6,0,-1,-1,-1,-2,1
1532234397796,-3,1,3,3,-2,-1,0,-5
1532234397801,-5,1,-1,-3,-2,1,0,-3
1532234397806,3,1,-3,-6,-2,-3,-1,2
1532234397811,-2,-3,1,3,0,0,-1,-1
1532234397816,2,-1,0,-3,0,-1,2,1
1532234397821,-2,-1,0,1,2,-1,-2,-1
1532234397826,-4,-2,-3,-2,0,0,1,-1
1532234397831,2,-2,-2,0,0,-1,-1,0
1532234397836,0,3,3,-2,0,0,-2,1
1532234397841,-7,-1,-1,1,-1,-1,-2,-5
1532234397846,3,-2,-4,-2,-1,-4,-1,1
1532234397851,1,-1,-2,-3,-2,-1,-2,1
1532234397856,1,-3,-1,-1,-1,1,0,2
1532234397861,-1,-1,0,-4,-2,-2,-1,-4
1532234397866,-1,0,0,2,2,0,-1,0
1532234397871,0,-1,1,4,0,-1,0,3
1532234397876,-7,-4,0,0,-2,1,-1,-7
1532234397881,3,-1,-1,-2,-2,-2,0,1
1532234397886,-1,-2,-2,-7,-2,-1,1,1
1532234397891,-2,-2,-3,0,-1,-2,-1,-2
1532234397896,0,1,-1,-2,0,-2,1,-1
1532234397901,0,-1,1,2,0,0,-2,-2
1532234397906,-2,2,0,0,0,3,-1,-2
1532234397911,2,-2,0,0,-2,-1,1,0
1532234397916,2,-2,-2,-1,-2,0,-1,1
1532234397921,-2,-5,-1,0,-1,0,-2,-5
1532234397926,-2,-5,-2,0,-1,-5,-2,-1
1532234397931,1,3,-2,-5,-4,-2,-2,-1
1532234397936,-2,1,-3,0,0,-2,-2,-3
1532234397941,2,10,1,0,-3,-3,0,2
1532234397946,1,-2,2,1,0,-2,-1,0
1532234397951,-8,-12,-2,-2,-2,1,2,-2
1532234397956,-2,4,-1,1,2,-1,-2,-2
1532234397961,2,-4,-1,2,0,0,1,3
1532234397966,-1,0,1,-2,-1,-1,-2,-2
1532234397971,3,-6,-4,-4,-2,-1,2,2
1532234397976,1,2,3,0,2,-2,-3,0
1532234397981,-3,-10,0,1,0,0,0,4
1532234397986,-2,10,0,4,-3,0,-1,-7
1532234397991,3,10,5,1,1,1,-1,0
1532234397996,-3,-7,-4,-4,-2,-1,-3,-3
1532234398001,3,-4,1,3,1,0,-2,-1
1532234398006,-3,-6,-6,-4,-2,1,0,2
1532234398011,-4,-4,-1,2,-1,-1,-1,-1
1532234398016,6,9,3,-2,-4,-3,-2,-2
1532234398021,-11,-2,0,-4,-1,-1,-1,-3
1532234398026,-1,-8,-3,-4,-2,-1,0,1
1532234398031,-2,-2,-3,1,1,-2,-1,-3
1532234398036,-2,-1,-1,5,-1,0,1,0
1532234398041,4,0,-2,-3,0,-1,0,3
1532234398046,-5,2,0,-2,-2,2,0,-2
1532234398051,-2,0,-3,-7,0,-2,-1,-5
1532234398056,-2,-2,-3,3,3,0,0,-1
1532234398061,1,3,1,-1,-1,-3,-2,-1
1532234398066,0,0,-2,-2,0,-1,-1,0
1532234398071,2,0,1,-1,-1,2,1,1
1532234398076,-5,-10,-2,-5,-2,1,1,1
1532234398081,3,6,-1,2,-2,0,-2,-2
1532234398086,-1,1,3,0,-1,-2,-1,2
1532234398091,-1,-1,0,0,1,-1,-1,1
1532234398096,-2,4,0,-1,0,1,-2,-4
1532234398101,-1,-5,-3,-3,0,-2,0,-1
1532234398106,2,-12,2,3,2,0,0,-1
1532234398111,-3,-6,1,-2,-2,-2,-1,0
1532234398116,4,25,4,-2,-4,-2,-1,6
1532234398121,-3,2,-5,-6,-3,-1,-2,-10
1532234398126,-9,-4,-5,2,-1,-1,-1,-4
1532234398131,-4,-12,-2,-1,2,0,-2,-3
1532234398136,1,-8,-4,1,1,0,1,0
1532234398141,4,3,1,-1,-1,0,-1,2
1532234398146,3,4,0,2,0,-1,0,0
1532234398151,-1,-7,-1,0,-1,0,-1,-3
1532234398156,-3,-4,-1,-2,-2,-4,-4,-3
1532234398161,-3,-5,-1,-2,-2,0,2,3
1532234398166,0,2,-5,-4,-1,1,-1,-1
1532234398171,11,1,1,3,-1,-2,-1,2
1532234398176,-8,11,1,1,0,1,0,-2
1532234398181,3,6,0,-4,-1,-3,-4,-4
1532234398186,-1,-4,-3,-6,-2,-1,0,3
1532234398191,-2,9,-1,0,0,-1,-1,-6
1532234398196,4,-14,-2,2,0,-2,0,3
1532234398201,-10,-7,0,4,-1,2,1,-4
1532234398206,2,3,1,-3,0,1,0,3
1532234398211,-2,5,-3,-4,-4,-1,0,-3
1532234398216,1,-13,0,-1,-1,-2,0,-2
1532234398221,-2,7,-1,-2,-1,-1,-1,7
1532234398226,2,-3,0,0,0,-3,-2,-4
1532234398231,-1,4,-1,-1,-2,2,1,1
1532234398236,-1,-1,-2,0,-3,0,-1,-5
1532234398241,2,2,-2,-2,-2,-3,0,-2
1532234398246,-2,6,4,1,-2,3,0,2
1532234398251,-3,-6,2,0,1,-1,0,-3
1532234398256,0,3,-1,-3,-1,0,-2,0
1532234398261,1,-3,-2,0,0,-1,0,-1
1532234398266,-4,-2,0,1,1,-2,1,1
1532234398271,0,3,-2,-2,0,-1,-1,-1
1532234398276,-1,-7,-4,-1,0,0,0,-2
1532234398281,0,-6,-1,1,1,-2,-2,0
1532234398286,0,-1,-1,-1,-2,-3,-1,-1
1532234398291,-5,0,-1,-1,-1,-1,-2,0
1532234398296,-5,-5,-1,0,1,0,-2,1
1532234398301,-2,2,-1,-1,-1,2,0,1
1532234398306,1,-1,0,0,0,-1,-1,-3
1532234398311,-2,-2,-1,-2,-1,-4,-1,-1
1532234398316,1,3,-2,-2,2,2,-1,-2
1532234398321,1,-9,0,4,1,-1,-1,0
1532234398326,2,3,0,-3,0,2,-2,-2
1532234398331,1,-3,-1,1,0,1,3,1
1532234398336,1,11,-1,-2,-2,-3,0,-1
1532234398341,0,-11,-1,-1,0,-2,-1,-3
1532234398346,2,5,3,-1,-2,-1,0,-3
1532234398351,3,5,2,-1,-2,-1,-2,1
1532234398356,1,-7,-2,-1,0,-1,1,-1
1532234398361,0,-4,0,0,-1,-2,0,-2
1532234398366,-1,-1,-2,-1,-1,-3,-1,-1
1532234398371,-4,-26,-2,0,-1,1,1,-1
1532234398376,-1,4,2,-1,-1,-1,-2,-1
1532234398381,1,24,1,-2,0,1,0,1
1532234398386,2,-1,-1,0,1,-2,-3,-5
1532234398391,4,25,3,-1,-1,-3,-3,-2
1532234398396,0,-19,-3,-1,1,-1,1,0
1532234398401,0,-19,-4,0,-2,-2,0,-1
1532234398406,-4,-11,-2,0,1,2,1,0
1532234398411,-3,22,-7,-6,-2,-1,-4,-4
1532234398416,-2,6,8,1,0,-2,0,-1
1532234398421,-3,2,-3,-4,-2,-1,1,0
1532234398426,-2,-6,-1,1,0,-1,-1,0
1532234398431,-4,-15,-4,-1,-1,-1,-2,0
1532234398436,-4,2,-2,-3,-2,0,-1,-1
1532234398441,-2,2,1,1,-1,1,0,2
1532234398446,-4,-3,-2,-1,-1,-2,-2,-5
1532234398451,-3,-2,2,0,0,-1,-1,2
1532234398456,1,3,-5,-2,-1,0,-1,-1
1532234398461,-3,-6,-1,-1,-1,-1,-1,-3
1532234398466,1,2,0,0,0,-2,0,0
1532234398471,-3,1,-1,-4,-1,2,-1,-2
1532234398476,-1,-4,-1,-1,-1,0,0,1
1532234398481,1,-1,0,3,2,-1,-1,-1
1532234398486,1,6,0,0,-1,-1,-1,1
1532234398491,1,-4,1,0,-1,-1,-1,-1
1532234398496,1,-4,0,0,-1,0,-1,-2
1532234398501,0,2,-2,0,0,0,-2,-3
1532234398506,-1,-6,-1,-2,0,-1,0,0
1532234398511,-1,-2,0,2,0,-1,0,1
1532234398516,0,-2,-2,-1,-1,-3,-2,-1
1532234398521,-2,1,-2,0,0,-3,-2,-1
1532234398526,1,13,2,-1,-1,-3,-2,-2
1532234398531,0,-4,-1,0,0,0,-1,-1
1532234398536,-3,-12,-2,-4,0,0,0,0
1532234398541,1,5,0,1,1,-1,1,0
1532234398546,-1,-7,-1,-1,-4,1,-1,-2
1532234398551,-2,-1,1,1,1,-3,1,-1
1532234398556,0,-21,-2,-1,-3,0,-1,0
1532234398561,0,-2,-1,-5,0,1,-2,0
1532234398566,7,25,-5,-1,-2,0,-2,5
1532234398571,-9,11,2,-1,0,-3,-2,-7
1532234398576,-3,6,1,0,1,0,0,-4
1532234398581,-5,-11,-1,0,-2,-1,2,0
1532234398586,-8,-17,-5,3,2,-2,-1,-3
1532234398591,1,-5,-1,-2,-3,-2,-1,4
1532234398596,-7,29,-1,2,2,0,0,1
1532234398601,0,-16,-6,-6,-4,-2,-2,0
1532234398606,4,-5,-1,-4,-3,0,0,5
1532234398611,-6,6,-3,-3,0,2,0,-5
1532234398616,1,-43,-3,-2,-2,-5,1,-2
1532234398621,-29,35,2,-1,0,5,-3,-3
1532234398626,-15,-47,-8,-3,3,2,1,3
1532234398631,-4,2,4,3,1,3,2,0
1532234398636,-34,3,-2,1,1,0,-3,0
1532234398641,-16,3,0,-1,-1,-5,-4,-2
1532234398646,-5,8,-1,-1,1,-1,1,-2
1532234398651,10,-5,-3,-3,-3,-2,-1,1
1532234398656,23,-13,1,1,-2,0,1,0
1532234398661,-7,0,0,-1,2,-1,1,0
1532234398666,-7,22,1,-2,-4,-3,-4,-3
1532234398671,1,-18,-3,0,-1,0,-1,0
1532234398676,6,29,7,7,1,2,-1,-2
1532234398681,-29,-48,-11,-5,-3,-2,0,-1
1532234398686,-14,16,13,2,1,0,1,-2
1532234398691,-2,12,-7,-3,-2,0,-2,0
1532234398696,-5,-3,2,-2,-2,-5,-1,2
1532234398701,34,5,2,1,2,14,0,-2
1532234398706,23,-13,-4,1,1,-4,0,-1
1532234398711,8,-9,-2,-4,-4,7,-2,-1
1532234398716,-8,2,-6,-5,-4,-16,-2,1
1532234398721,5,0,0,-1,-4,3,-1,-2
1532234398726,4,8,-1,-2,-3,-8,-2,0
1532234398731,10,-2,3,3,4,8,-1,1
1532234398736,9,-10,-2,0,0,5,-1,-2
1532234398741,14,7,1,0,-2,-4,-1,-3
1532234398746,8,4,-2,1,2,14,4,-1
1532234398751,4,1,4,-4,-9,-25,-4,-2
1532234398756,1,-19,-4,-4,2,20,18,0
1532234398761,4,13,4,1,1,0,-15,-1
1532234398766,11,50,7,-2,-2,-6,-6,-1
1532234398771,-15,-88,-18,-5,-2,-3,-2,-4
1532234398776,4,16,-4,-1,-1,-7,-5,-1
1532234398781,3,-49,-4,-2,-2,4,7,-2
1532234398786,2,9,-4,-3,-5,-4,0,-2
1532234398791,6,34,5,2,5,4,2,1
1532234398796,13,-6,4,0,-3,8,0,-2
1532234398801,12,3,-3,2,2,-11,1,1
1532234398806,2,-14,2,0,-2,-3,-1,-1
1532234398811,0,2,4,1,2,-2,1,0
1532234398816,3,11,11,0,-3,0,-3,-1
1532234398821,4,12,-23,0,1,0,2,0
1532234398826,-6,-1,3,0,1,-2,-1,-1
1532234398831,-5,10,1,-1,0,1,1,-1
1532234398836,-2,16,4,-2,-1,2,-3,0
1532234398841,-12,-6,3,0,-1,0,-2,0
1532234398846,-8,-16,4,0,-1,-8,-1,-1
1532234398851,-16,3,-2,-5,-3,2,-6,-2
1532234398856,-7,4,-7,-1,-1,-4,-4,0
1532234398861,6,-6,6,-1,-4,-9,0,-1
1532234398866,8,-11,-2,-1,-1,7,2,-1
1532234398871,11,-9,2,4,1,0,-1,-2
1532234398876,6,23,1,-3,-2,-9,-3,-2
1532234398881,5,-7,-6,2,-1,2,1,0
1532234398886,-2,-11,-9,-1,-1,4,0,-1
1532234398891,3,1,2,4,-1,0,1,0
1532234398896,-4,-18,-3,-4,-2,-5,-2,-1
1532234398901,5,19,6,2,1,-1,1,1
1532234398906,-6,24,13,-3,-1,-2,-5,-2
1532234398911,-1,-13,-34,-6,-2,-3,-1,0
1532234398916,-2,-18,-6,0,1,2,1,-1
1532234398921,1,26,11,-1,1,-2,-3,-1
1532234398926,-3,-6,-5,2,1,-9,-1,-2
1532234398931,-5,-2,5,2,-3,8,2,2
1532234398936,-4,10,1,0,0,0,-2,-2
1532234398941,-5,-4,-4,-2,-1,-3,-1,-2
1532234398946,-3,1,-4,1,0,0,0,0
1532234398951,-1,43,12,-1,-1,1,-2,1
1532234398956,-1,-11,-1,-3,-1,-3,1,0
1532234398961,1,17,5,-3,0,0,1,0
1532234398966,2,4,-1,3,0,2,-1,1
1532234398971,0,-24,-9,-1,0,-3,-1,-1
1532234398976,3,13,1,0,-1,-2,-1,0
1532234398981,-1,-32,-1,-3,-3,1,1,0
1532234398986,3,-11,-3,-4,-3,-2,0,-1
1532234398991,7,3,-1,1,0,-4,1,1
1532234398996,-5,14,4,-3,-1,-2,-3,-4
1532234399001,4,19,11,1,-2,-3,-2,-1
1532234399006,-7,-23,3,0,-2,1,1,-4
1532234399011,8,-4,-16,-1,1,-2,-1,2
1532234399016,-4,-27,-7,0,0,2,2,3
1532234399021,-8,26,2,-1,-1,-2,-3,-9
1532234399026,0,-24,-2,-1,-3,1,0,-1
1532234399031,-3,24,10,-1,-2,-2,1,-1
1532234399036,2,3,-3,0,0,0,-2,3
1532234399041,-3,-8,-4,2,-1,0,-1,2
1532234399046,-2,6,1,-1,-1,1,0,-1
1532234399051,-5,-17,3,-2,0,-1,-3,-2
1532234399056,-2,14,-4,2,1,-3,-2,-1
1532234399061,-2,-1,2,-3,-1,-1,0,0
1532234399066,-1,17,12,-3,-3,-1,-2,-1
1532234399071,-2,4,5,0,3,1,-1,0
1532234399076,0,-7,-9,1,2,-3,-1,-2
1532234399081,-2,-21,-8,-1,-1,-2,0,2
1532234399086,-2,-9,-17,-3,-1,-1,1,1
1532234399091,-2,1,14,2,-3,-3,-2,-2
1532234399096,0,19,12,0,-3,-2,-2,-3
1532234399101,-2,-17,-12,-2,2,0,-1,-2
1532234399106,-2,11,-5,-4,-1,-2,-4,-2
1532234399111,-2,-37,1,-1,-3,-1,1,-1
1532234399116,-3,-10,-10,-4,0,0,0,-1
1532234399121,1,5,2,4,1,1,0,1
1532234399126,0,-1,-1,2,-1,5,-3,0
1532234399131,-4,6,-3,-1,2,6,2,0
1532234399136,-1,-3,-2,-2,-4,-7,-1,0
1532234399141,-2,-10,2,-2,0,5,0,1
1532234399146,0,5,1,6,2,-2,-1,0
1532234399151,-2,5,-1,-2,-2,-1,-1,-3
1532234399156,3,10,6,1,1,0,0,0
1532234399161,-8,-14,-10,-6,-4,-3,0,-1
1532234399166,0,-11,-4,-6,0,-4,-1,-3
1532234399171,-3,27,-2,-2,-2,-3,-2,-2
1532234399176,-1,-5,-1,-2,2,1,0,0
1532234399181,0,7,0,2,1,-1,-3,-5
1532234399186,0,-5,0,1,0,1,0,1
1532234399191,1,-24,-5,-1,-1,-2,-1,3
1532234399196,-5,-7,0,-4,-5,-4,-4,-2
1532234399201,4,0,-3,-2,-1,1,0,0
1532234399206,-6,-5,-5,-3,-5,0,-1,-5
1532234399211,2,18,6,0,7,2,1,-1
1532234399216,2,11,-1,6,0,-3,1,-3
1532234399221,2,2,12,1,1,3,-1,5
1532234399226,-5,-5,-15,-4,-2,-6,-2,-8
1532234399231,-2,9,3,3,-5,-4,1,1
1532234399236,-12,-25,-14,-4,-2,0,-2,-5
1532234399241,0,41,10,0,1,-3,-4,-5
1532234399246,1,-11,4,-4,-6,4,3,2
1532234399251,4,18,-2,2,2,-5,-5,0
1532234399256,10,-29,3,9,3,0,-2,8
1532234399261,-25,-19,-14,-4,-4,-4,-2,-15
1532234399266,6,2,0,-4,2,2,0,-1
1532234399271,-2,9,-7,-8,-7,-2,-2,-2
1532234399276,2,-3,-2,-6,-5,1,2,1
1532234399281,8,-17,3,0,-1,-2,-1,7
1532234399286,-1,5,0,4,2,-3,-2,-2
1532234399291,-5,-38,-4,0,3,0,1,1
1532234399296,-6,70,17,0,1,-1,-7,-8
1532234399301,3,-20,-10,-6,-5,-2,1,1
1532234399306,-5,4,-4,-2,1,-1,1,-1
1532234399311,-3,-24,-6,-5,-2,-3,-3,-4
1532234399316,0,-4,-3,7,0,0,0,2
1532234399321,1,3,4,7,3,0,0,4
1532234399326,-4,-6,-1,1,-6,-9,0,-4
1532234399331,5,18,4,-2,0,6,-1,5
1532234399336,2,-10,-3,-7,-2,-1,-1,-6
1532234399341,-6,10,1,-2,-2,3,0,-1
1532234399346,4,-3,-6,0,3,-1,-3,-1
1532234399351,-3,-4,-1,8,0,1,2,1
1532234399356,-4,-7,-6,-2,-3,2,2,2
1532234399361,-4,-17,1,-6,-3,-4,-3,-3
1532234399366,4,0,1,-1,1,-2,0,1
1532234399371,-9,-2,-8,0,1,-1,-5,-1
1532234399376,1,6,-3,0,0,1,1,-6
1532234399381,1,-26,3,-6,-2,-2,-3,0
1532234399386,-2,15,-4,-3,-4,-3,-5,1
1532234399391,0,10,10,4,1,4,1,-5
1532234399396,-4,-28,-8,3,2,-7,1,3
1532234399401,-2,21,-5,-3,0,1,5,-1
1532234399406,0,-1,3,1,-3,-2,-1,-1
1532234399411,7,-8,-7,-8,-4,-5,-1,-2
1532234399416,-7,-10,-3,-2,-2,-2,-1,1
1532234399421,3,10,6,0,-1,-1,-3,-1
1532234399426,1,22,0,-3,0,1,-1,4
1532234399431,-2,-4,1,7,2,-2,3,1
1532234399436,-5,-12,8,-6,0,4,1,-4
1532234399441,6,12,-12,10,-2,-2,2,6
1532234399446,-6,-13,-7,-8,-1,-5,-4,-4
1532234399451,0,-29,-7,-8,-7,0,0,0
1532234399456,4,11,18,4,5,-1,-3,1
1532234399461,-2,-3,3,9,3,2,0,0
1532234399466,0,-19,-4,-1,-2,0,2,-2
1532234399471,-4,23,-6,-13,-5,-6,-2,-3
1532234399476,2,-13,-4,1,0,-1,-1,3
1532234399481,0,-23,-8,-1,-2,-2,1,-2
1532234399486,-2,33,8,5,2,3,0,-1
1532234399491,-1,7,5,1,-2,-5,-4,-5
1532234399496,-2,-16,-7,-3,-1,2,0,0
1532234399501,4,14,-2,-3,-4,-6,-3,-2
1532234399506,2,-28,1,-2,1,4,1,5
1532234399511,-10,8,5,5,-3,-1,-3,-4
1532234399516,8,44,4,2,-3,-6,-1,-4
1532234399521,2,14,10,-1,2,2,-1,0
1532234399526,-2,-13,-13,-1,-1,3,2,1
1532234399531,4,-3,8,1,-1,-5,-1,4
1532234399536,-9,-9,-7,-2,1,-1,-1,-8
1532234399541,1,24,18,-1,0,0,0,1
1532234399546,0,7,-14,2,2,-1,-1,-2
1532234399551,0,-21,-6,2,2,3,1,3
1532234399556,-5,-3,-3,-7,-7,-2,0,-4
1532234399561,-7,-3,-4,-4,0,0,-2,-4
1532234399566,-1,-5,1,1,-1,-1,0,-2
1532234399571,1,-9,-6,-4,-3,-3,1,0
1532234399576,2,8,-1,-1,-3,-1,-4,2
1532234399581,9,-6,-11,-5,-1,-1,3,3
1532234399586,-20,-4,14,9,-2,1,-2,-4
1532234399591,0,4,-3,-7,-1,-3,-3,-5
1532234399596,7,-1,5,-13,-8,-1,2,2
1532234399601,-2,0,-9,8,5,-2,-2,-2
1532234399606,6,-5,6,-3,0,-1,0,4
1532234399611,0,11,-10,-20,-4,-1,1,-2
1532234399616,-2,-23,9,17,5,2,-3,2
1532234399621,-8,16,-3,-1,-3,-1,-2,-3
1532234399626,3,10,6,-3,-1,3,2,-1
1532234399631,-2,6,2,2,-2,3,0,-1
1532234399636,5,1,-10,-12,0,0,4,3
1532234399641,-1,-33,-18,12,0,-2,1,2
1532234399646,3,23,27,4,-2,2,2,0
1532234399651,0,38,9,7,1,-2,-2,-1
1532234399656,-3,27,-18,-7,-3,-2,-3,-2
1532234399661,-3,-14,-14,-8,-3,-1,-2,-2
1532234399666,1,12,14,-3,-2,-4,-3,0
1532234399671,0,10,2,8,2,0,-1,1
1532234399676,-6,-49,7,2,-1,-2,-2,-4
1532234399681,-1,8,6,-8,0,2,1,-2
1532234399686,3,6,-21,-3,-4,-1,-1,1
1532234399691,0,-22,2,2,0,-3,-2,-1
1532234399696,-1,2,4,0,-2,1,3,-3
1532234399701,-1,4,-1,-8,-3,-2,-1,-1
1532234399706,0,-19,-12,-4,0,0,1,1
1532234399711,0,-3,9,9,1,4,0,-4
1532234399716,-3,16,5,6,3,0,-1,1
1532234399721,7,18,-2,0,-2,-3,-1,0
1532234399726,-7,-73,-5,-1,0,-1,-1,-2
1532234399731,-9,-17,-26,-4,0,-3,1,-3
1532234399736,6,26,33,1,-2,-2,-1,0
1532234399741,-2,-25,-13,3,2,0,-2,2
1532234399746,2,82,-3,1,-1,3,1,1
1532234399751,-5,-58,-5,-2,-3,-3,-2,-2
1532234399756,-3,-9,-5,-5,-1,0,0,-2
1532234399761,3,26,13,0,-4,-3,-3,0
1532234399766,-2,-2,-3,-1,0,-3,-3,-2
1532234399771,2,11,8,11,1,-1,2,1
1532234399776,-3,-29,-20,-3,0,-3,-1,0
1532234399781,1,-5,3,-3,-2,0,0,1
1532234399786,-2,-12,-7,0,0,13,1,-4
1532234399791,0,14,7,-9,-3,-23,-7,-1
1532234399796,2,-10,-5,2,-1,-3,-4,1
1532234399801,-4,-10,-3,1,1,-2,0,-2
1532234399806,-3,2,3,-5,-2,-7,-5,-4
1532234399811,4,21,2,-1,1,2,0,1
1532234399816,-9,32,-2,1,-1,4,3,-4
1532234399821,1,-25,19,-3,-2,-1,-1,1
1532234399826,3,15,-34,-1,-2,-3,-1,-3
1532234399831,-3,15,7,-9,0,4,0,1
1532234399836,6,-1,-3,24,5,-2,-1,4
1532234399841,-18,-35,7,-5,-3,1,-4,-13
1532234399846,3,-2,13,-4,-2,-2,0,2
1532234399851,-5,-28,-16,-9,-2,3,0,0
1532234399856,1,-5,1,0,1,0,-1,0
1532234399861,1,22,-6,-4,-2,-1,-1,-3
1532234399866,0,-13,0,-4,-2,2,1,-1
1532234399871,1,3,-7,-5,-2,-3,-2,1
1532234399876,0,-17,3,2,1,1,0,1
1532234399881,7,29,6,6,0,2,0,3
1532234399886,-9,11,-2,-5,0,5,-2,-9
1532234399891,6,-6,0,-5,-1,-1,1,1
1532234399896,-2,-8,5,-4,-2,-3,1,2
1532234399901,-3,5,6,7,4,6,-2,-6
1532234399906,-2,9,-10,0,1,-3,-2,-1
1532234399911,2,-10,2,0,-2,-3,0,0
1532234399916,-4,-4,3,-2,0,1,-2,0
1532234399921,6,-15,-22,-17,-3,-5,-1,4
1532234399926,1,20,25,5,-2,-1,1,6
1532234399931,-14,20,-4,8,-1,0,-2,-6
1532234399936,-4,-49,2,7,2,-1,-2,-1
1532234399941,-1,25,9,9,3,2,2,1
1532234399946,2,-19,-18,-14,-6,-4,-1,0
1532234399951,1,19,3,-4,-2,2,0,3
1532234399956,0,10,-1,2,-4,-4,-1,-3
1532234399961,-6,2,8,-5,-3,-1,-3,-4
1532234399966,9,-7,-9,5,4,1,1,2
1532234399971,5,13,-5,-3,-2,-2,-1,1
1532234399976,-9,-19,-4,-4,-1,-1,0,-3
1532234399981,-2,-7,-4,0,-1,-3,-2,-1
1532234399986,0,-12,-3,-3,-1,1,1,-1
1532234399991,2,12,3,-3,2,0,0,0
1532234399996,2,5,-3,-1,0,-2,0,1
1532234400001,2,-11,-4,2,-1,2,0,-1
1532234400006,-5,-27,0,-5,-6,-2,-3,0
1532234400011,-3,5,-1,-2,0,2,1,-2
1532234400016,1,54,-11,-1,-2,-1,-2,-2
1532234400021,5,1,44,18,4,-1,-1,1
1532234400026,-6,-27,-14,0,3,0,-1,0
1532234400031,-9,-10,5,2,0,1,-1,-5
1532234400036,3,0,10,-5,-2,-2,-2,-1
1532234400041,0,-10,-35,-8,-4,-3,-2,1
1532234400046,9,17,2,0,-1,0,2,2
1532234400051,-4,19,1,2,1,-1,0,-1
1532234400056,-1,-39,-9,0,-2,-1,0,0
1532234400061,-2,-1,7,1,0,3,-1,-1
1532234400066,3,7,2,-4,-5,0,0,-3
1532234400071,-5,-33,-17,-4,0,-1,1,-1
1532234400076,6,31,-1,3,1,-4,-1,-1
1532234400081,2,60,14,-3,-2,0,1,-2
1532234400086,-11,-67,-2,-2,-2,-3,-3,-5
1532234400091,1,-20,-21,-4,-1,-1,-1,0
1532234400096,-3,-17,-9,-5,0,-1,-1,-1
1532234400101,1,-5,-5,-3,-1,0,1,-1
1532234400106,0,32,-15,5,1,1,0,-1
1532234400111,6,-24,16,2,-2,-4,-4,1
1532234400116,-4,5,-1,-3,-3,-4,-3,-3
1532234400121,-1,-12,-10,-4,-2,-2,-1,-1
1532234400126,2,29,8,0,1,-5,-2,-2
1532234400131,-1,-4,2,0,0,1,-2,-2
1532234400136,0,19,4,3,0,1,1,-2
1532234400141,-3,-29,5,-4,-2,1,0,-2
1532234400146,0,49,10,-2,0,1,-1,-1
1532234400151,4,-18,-25,-1,-2,0,-1,0
1532234400156,2,-10,-1,2,2,2,2,8
1532234400161,-12,-5,3,-2,0,-2,-3,-14
1532234400166,-2,4,6,-4,-2,-1,-1,0
1532234400171,1,14,13,2,3,-6,0,0
1532234400176,5,25,0,1,2,15,3,1
1532234400181,-1,-35,4,2,-1,-6,0,4
1532234400186,-14,-15,-15,-9,-1,-3,-2,-2
1532234400191,-1,3,-14,2,0,-1,0,-1
1532234400196,0,-42,5,1,-1,1,0,0
1532234400201,8,22,7,3,-1,-1,0,2
1532234400206,-2,-7,7,0,0,0,-3,-3
1532234400211,2,-15,2,-1,-1,3,2,2
1532234400216,0,29,4,1,3,14,3,-2
1532234400221,-3,6,-6,1,-2,-27,-6,-1
1532234400226,-1,-45,-14,-3,-4,5,1,0
1532234400231,-2,11,8,1,1,-3,-2,-1
1532234400236,-3,-1,0,1,-3,-9,-3,-2
1532234400241,-1,4,-1,-2,1,8,0,-1
1532234400246,8,-1,1,-1,1,1,1,5
1532234400251,-4,17,6,-4,-3,-9,-5,-1
1532234400256,-9,-9,2,-3,-2,-5,0,-14
1532234400261,3,-21,-15,0,-2,14,6,3
1532234400266,-4,28,4,4,0,-3,0,-1
1532234400271,-7,-37,-7,-12,-11,1,-3,-3
1532234400276,2,3,-1,-2,7,32,4,1
1532234400281,-1,-11,0,9,5,-39,-2,3
1532234400286,1,31,6,3,-2,-2,-1,-3
1532234400291,3,15,10,0,1,-5,1,0
1532234400296,-3,-12,-3,1,-4,-4,-3,1
1532234400301,-3,-8,1,-11,-2,15,1,-2
1532234400306,5,10,-2,0,0,1,-1,0
1532234400311,6,16,6,1,1,-2,-2,4
1532234400316,-8,-8,-2,-4,-4,-11,-3,-4
1532234400321,5,17,2,6,2,10,1,1
1532234400326,-17,-65,-18,-14,-6,-13,-5,-7
1532234400331,4,37,3,0,1,7,0,-4
1532234400336,7,-12,-15,-6,-2,-11,-3,4
1532234400341,1,-5,10,5,-2,3,-1,1
1532234400346,-4,15,19,8,2,5,2,3
1532234400351,-4,-10,13,5,2,2,-2,-3
1532234400356,2,-22,-5,-4,1,-1,1,2
1532234400361,-2,4,-12,-4,-2,-1,-1,2
1532234400366,10,5,0,3,3,2,1,-1
1532234400371,-2,-25,-4,5,0,1,-1,4
1532234400376,4,32,15,-1,-4,-13,-2,-2
1532234400381,-2,-23,-14,1,-2,4,-2,-1
1532234400386,-7,-2,3,2,0,0,-1,-7
1532234400391,1,8,-6,-8,-2,-3,0,3
1532234400396,-5,-6,3,3,-1,-2,0,-3
1532234400401,5,-2,-6,-1,1,2,-2,0
1532234400406,0,3,-1,-4,-3,-1,0,0
1532234400411,1,7,-2,-2,1,-1,-1,-2
1532234400416,-2,-15,1,6,-1,-1,-1,3
1532234400421,-5,-22,-13,-5,0,5,1,-5
1532234400426,2,37,6,3,0,-4,-1,0
1532234400431,4,21,8,-4,-1,-1,-1,-2
1532234400436,0,14,20,5,3,2,3,2
1532234400441,-6,-35,-39,-11,-5,-2,-3,-4
1532234400446,2,-24,-14,-2,-1,4,3,3
1532234400451,-2,16,9,0,-3,-1,2,-3
1532234400456,5,5,-2,0,-1,-1,-3,1
1532234400461,-5,17,18,-2,0,3,0,-6
1532234400466,2,-1,-9,-4,0,-3,0,1
1532234400471,-4,-3,18,-6,-3,1,-1,-3
1532234400476,1,-22,-53,10,0,-2,-1,0
1532234400481,-4,15,16,5,1,0,-1,-1
1532234400486,3,17,-2,-4,-1,0,-3,3
1532234400491,-7,-22,3,0,1,0,0,-1
1532234400496,7,3,6,-8,-3,-3,0,-2
1532234400501,-1,6,0,-2,-2,-1,-1,-2
1532234400506,3,-13,1,-3,-3,-4,-2,-2
1532234400511,-1,0,-11,1,3,9,0,0
1532234400516,-5,-6,-1,-1,-1,-6,-1,1
1532234400521,4,19,-1,2,-1,0,-3,1
1532234400526,3,21,23,-10,-5,-6,-1,0
1532234400531,1,-7,4,0,-2,-1,-1,0
1532234400536,3,24,-28,-1,1,1,-1,0
1532234400541,-6,-11,26,8,2,1,-2,0
1532234400546,-8,-15,-18,-3,1,3,-1,-1
1532234400551,-1,4,2,7,0,-4,1,-1
1532234400556,15,-23,4,-12,-4,-5,0,1
1532234400561,-4,3,-6,-4,0,-2,-2,-5
1532234400566,-5,5,12,-5,-1,-4,-2,-5
1532234400571,10,9,-9,-6,-4,-5,-3,0
1532234400576,1,-10,13,-1,0,3,4,-3
1532234400581,2,-5,-11,1,-4,1,2,1
1532234400586,0,4,1,0,-1,4,-1,-2
1532234400591,-14,-19,-12,-4,-2,-1,0,-2
1532234400596,4,38,18,5,-1,-5,-2,1
1532234400601,-2,-31,-18,-7,0,-3,-1,-2
1532234400606,-2,19,25,10,1,1,2,-2
1532234400611,5,-1,17,0,0,-1,1,3
1532234400616,-8,-20,-33,-1,-1,0,-2,0
1532234400621,6,-19,-17,-9,-5,-2,-2,-7
1532234400626,-2,9,9,-11,-4,-4,-3,-1
1532234400631,1,15,4,9,3,13,-1,-2
1532234400636,0,2,15,1,0,-6,-1,2
1532234400641,3,-11,-4,3,1,1,2,5
1532234400646,-25,-28,-9,-3,-2,-4,-4,-1
1532234400651,20,14,-7,-4,-1,-2,-1,1
1532234400656,-1,4,9,-1,-1,1,-4,-4
1532234400661,-1,-3,-2,6,0,-3,-1,-2
1532234400666,-1,4,2,2,-1,1,-1,-1
1532234400671,-7,-2,-5,-6,-4,-7,-1,1
1532234400676,-5,-15,1,-5,-1,-4,-2,-1
1532234400681,4,21,-1,3,1,-3,-2,-1
1532234400686,-4,-4,6,7,3,1,-1,-3
1532234400691,-6,-44,2,1,-2,-4,-2,-1
1532234400696,-2,-2,-22,-7,-3,-5,-2,-7
1532234400701,-1,21,8,-7,-2,4,-1,1
1532234400706,2,-11,-1,-3,-1,-3,-2,0
1532234400711,-3,6,-1,1,0,0,2,-1
1532234400716,0,-16,8,3,-2,-3,0,2
1532234400721,-6,-17,-10,-3,-2,0,-2,-2
1532234400726,3,39,10,5,4,2,-3,1
1532234400731,4,17,-6,-8,-1,-4,-1,-1
1532234400736,-3,1,8,0,1,1,0,-1
1532234400741,-3,-4,1,10,1,0,0,0
1532234400746,0,-34,-12,-4,-3,-3,0,1
1532234400751,-7,29,-7,-5,0,0,-2,-3
1532234400756,1,4,8,4,1,3,-1,-3
1532234400761,-2,10,0,-4,0,-2,-2,-1
1532234400766,3,-9,2,-3,-2,-1,0,0
1532234400771,-2,4,-1,1,-1,2,0,-1
1532234400776,-9,-16,-10,-5,-3,-1,-1,0
1532234400781,6,-4,6,1,0,-1,0,2
1532234400786,5,19,8,6,4,1,-2,-1
1532234400791,1,3,-7,0,-2,-2,-2,-1
1532234400796,5,7,7,-4,-1,-1,0,0
1532234400801,-6,-7,0,-3,-4,-2,1,-1
1532234400806,9,2,-5,-6,-2,0,3,5
1532234400811,-21,-12,-10,-8,-4,-7,-2,-5
1532234400816,4,-14,12,8,3,2,0,0
1532234400821,0,13,-29,4,1,1,-2,-1
1532234400826,2,-1,11,-2,-4,-4,-4,-3
1532234400831,7,-4,-2,1,0,-2,1,2
1532234400836,11,2,5,-2,0,2,2,0
1532234400841,-31,-15,1,-6,-3,-2,0,-5
1532234400846,2,-11,-13,2,0,-1,0,-5
1532234400851,6,9,4,3,-1,2,-2,1
1532234400856,-6,-17,-6,-5,-2,-4,2,-1
1532234400861,13,16,6,6,2,0,0,2
1532234400866,-6,28,-2,-5,-1,-4,-3,-1
1532234400871,-1,-6,10,0,-4,0,-1,1
1532234400876,6,-9,-19,0,1,0,-1,-1
1532234400881,-5,-8,3,-4,0,0,-1,-1
1532234400886,-3,4,-1,-4,-2,0,-1,0
1532234400891,17,10,-2,0,0,-2,0,8
1532234400896,10,10,-4,-4,-3,-3,-4,-4
1532234400901,-2,-5,7,-4,-1,-5,-3,-4
1532234400906,-6,13,-5,3,3,3,0,1
1532234400911,1,-25,-4,2,1,-2,0,-1
1532234400916,-3,0,-2,-4,-4,1,1,1
1532234400921,-5,-7,5,-5,-4,-3,-1,0
1532234400926,14,28,7,2,2,0,1,2
1532234400931,-8,-9,-5,0,1,1,3,-4
1532234400936,1,20,9,6,2,-1,-1,0
1532234400941,-8,-11,-1,0,2,0,0,2
1532234400946,-1,-5,1,-6,-3,2,1,-3
1532234400951,-3,3,-11,-2,-2,-2,-1,-4
1532234400956,-43,-11,16,8,3,-1,1,1
1532234400961,34,63,1,-3,-5,0,2,6
1532234400966,8,-28,2,-1,-3,-3,-2,-1
1532234400971,9,-5,-20,-17,-3,-1,-1,-1
1532234400976,3,-3,6,19,6,4,1,-1
1532234400981,-1,8,2,7,5,-1,-1,-1
1532234400986,-14,-19,-12,-7,-6,-3,-2,-3
1532234400991,7,37,17,-2,-5,-3,-1,-3
1532234400996,17,-9,-13,-6,0,-3,-1,6
1532234401001,-10,-20,-1,0,1,-3,1,-3
1532234401006,25,-5,-3,-1,-2,-3,-3,-2
1532234401011,5,-16,2,4,3,3,-1,0
1532234401016,1,9,-4,-5,-3,0,-3,-4
1532234401021,30,44,10,-2,-3,-1,0,-1
1532234401026,-38,-8,3,-2,0,-5,-2,-6
1532234401031,13,1,0,1,0,0,1,1
1532234401036,2,-23,-2,-5,-2,-3,-6,-5
1532234401041,5,-19,-14,0,-2,1,-1,-3
1532234401046,-4,7,-7,-3,1,-1,1,1
1532234401051,-19,1,17,7,0,0,-2,-2
1532234401056,1,14,-10,-4,-2,-1,0,-1
1532234401061,-43,-27,0,1,-2,0,-2,-3
1532234401066,-7,-18,0,0,1,2,0,0
1532234401071,0,9,-4,5,0,0,0,1
1532234401076,-8,-21,0,-4,-2,-1,1,-3
1532234401081,24,10,0,-4,-2,-1,-3,-2
1532234401086,-18,-17,-8,1,-2,-2,-1,-1
1532234401091,14,-2,-2,-3,0,1,2,1
1532234401096,23,23,3,2,-2,-2,-3,2
1532234401101,-7,-8,-1,1,2,-1,0,-2
1532234401106,-9,-17,-5,0,2,-2,0,0
1532234401111,-18,2,2,-3,-2,0,0,-2
1532234401116,-11,11,-2,1,1,3,-1,0
1532234401121,-7,-17,-4,-7,-3,-2,-1,0
1532234401126,20,15,9,1,0,0,0,2
1532234401131,-15,-29,-8,7,1,-1,-3,-3
1532234401136,14,-4,-2,-10,-5,-3,2,-2
1532234401141,5,21,1,-7,-3,-3,-2,-2
1532234401146,22,24,10,12,2,0,1,2
1532234401151,1,-8,-2,0,-1,-1,0,1
1532234401156,1,-17,-3,-3,-1,0,0,3
1532234401161,-20,-20,-9,-2,0,-3,-3,-8
1532234401166,-13,-9,-7,-8,-6,-4,-2,-2
1532234401171,-5,-4,-1,-5,0,-1,-3,-2
1532234401176,-7,-32,2,12,4,1,1,1
1532234401181,2,72,7,-6,-3,-2,0,0
1532234401186,0,3,0,-2,1,1,-1,-1
1532234401191,-8,18,0,4,0,-1,-1,-2
1532234401196,-9,-31,-6,-7,-4,-3,0,-2
1532234401201,2,-31,-10,4,0,1,1,-2
1532234401206,-2,1,4,2,2,-2,1,1
1532234401211,17,22,-4,-13,-6,-3,-3,-2
1532234401216,0,23,9,7,0,1,-3,0
1532234401221,-11,-36,-6,-3,-1,1,0,2
1532234401226,-7,1,2,2,-1,-1,1,0
1532234401231,2,0,3,5,0,-1,-2,-2
1532234401236,10,24,0,-5,-7,-2,0,0
1532234401241,4,-14,-4,-6,-2,2,0,-1
1532234401246,8,-5,-1,1,-1,-1,-3,1
1532234401251,-11,-6,-1,-5,1,2,1,-1
1532234401256,-15,5,-1,5,4,1,0,-4
1532234401261,-1,-1,2,1,-3,-3,-1,1
1532234401266,-6,-9,-8,-5,-2,1,-2,-1
1532234401271,-3,-17,1,0,1,-1,0,1
1532234401276,-16,-13,-9,-9,0,-3,0,-7
1532234401281,11,60,14,-2,-2,-3,-2,0
1532234401286,-9,-9,-4,2,2,-1,-3,-5
1532234401291,1,0,1,2,-3,-1,0,2
1532234401296,0,-9,-4,-4,0,-2,0,3
1532234401301,-7,-15,2,12,4,3,2,-1
1532234401306,1,3,-7,-4,-3,0,2,2
1532234401311,-3,-4,-3,-6,-2,-2,-1,-3
1532234401316,-11,-4,-6,-8,-4,-4,-2,-4
1532234401321,4,-9,0,2,-2,-2,-2,3
1532234401326,2,10,5,6,4,5,2,2
1532234401331,-10,-18,-2,4,1,0,-1,-7
1532234401336,2,12,-4,-9,-2,0,0,0
1532234401341,-4,-20,-6,-2,-3,-2,-1,0
1532234401346,2,34,9,-10,-4,-2,-4,-2
1532234401351,2,2,2,8,5,1,-1,-1
1532234401356,8,18,8,11,0,0,1,7
1532234401361,-8,-29,-11,-5,-1,-1,-2,-11
1532234401366,-5,-21,-10,-4,-5,-1,2,-1
1532234401371,-4,19,3,-2,-3,0,0,0
1532234401376,6,14,4,-1,-1,-2,-2,-2
1532234401381,-3,-1,4,1,2,-1,2,1
1532234401386,11,-6,-1,-10,-3,-4,1,1
1532234401391,-7,0,1,7,5,2,2,-2
1532234401396,-9,-18,-1,5,-1,1,1,2
1532234401401,6,11,0,-6,-3,1,-1,1
1532234401406,-5,-5,-2,5,-3,-2,-2,-1
1532234401411,3,-1,-8,-1,0,-2,1,5
1532234401416,6,9,3,4,-3,0,-1,-5
1532234401421,2,6,6,-4,2,-1,-1,-3
1532234401426,2,1,-2,-1,-5,-3,-3,-3
1532234401431,11,6,3,-1,-3,-1,1,1
1532234401436,-3,-18,-9,-6,1,1,0,2
1532234401441,3,-1,2,2,0,1,0,-1
1532234401446,0,33,0,-3,-1,-2,-1,2
1532234401451,-9,-35,0,-1,4,1,-2,-4
1532234401456,-5,29,13,11,2,0,-2,-2
1532234401461,6,3,10,8,0,1,3,8
1532234401466,-2,-12,-3,-3,-3,-1,0,-4
1532234401471,5,1,-8,-14,-5,-4,-3,-3
1532234401476,3,-8,-3,-1,-4,-4,1,1
1532234401481,12,-6,-4,2,2,2,2,2
1532234401486,20,-1,18,22,9,3,1,1
1532234401491,4,-10,-6,-7,-5,-3,1,-1
1532234401496,0,-10,-4,-10,-5,-4,-1,-5
1532234401501,10,11,-4,-4,-3,-4,0,2
1532234401506,0,-15,-7,-8,-1,-2,0,-3
1532234401511,1,3,-1,-2,-2,0,-1,2
1532234401516,17,-7,2,0,1,-1,-1,2
1532234401521,-4,17,-2,0,0,-3,-2,-4
1532234401526,-1,0,3,-1,0,1,0,-2
1532234401531,5,-8,-6,6,1,0,-3,-2
1532234401536,2,23,3,-5,-3,-2,0,-3
1532234401541,4,-25,-3,-5,-1,0,-2,-7
1532234401546,16,-1,-7,-2,-1,0,0,0
1532234401551,4,15,0,-6,-2,-4,1,-2
1532234401556,14,-8,-2,-2,0,0,-1,1
1532234401561,13,5,3,-1,-3,-3,0,2
1532234401566,-20,-29,-11,-1,0,0,-3,0
1532234401571,5,4,1,0,0,1,-2,-9
1532234401576,-2,0,-8,-4,-2,-2,-1,-3
1532234401581,18,3,-4,-3,-4,-3,-2,1
1532234401586,28,7,1,-5,-1,-2,-1,1
1532234401591,-4,10,6,7,2,4,2,3
1532234401596,-2,-10,-1,-2,2,2,1,-1
1532234401601,0,6,2,1,1,1,-1,-4
1532234401606,0,-3,-5,1,-1,-1,1,-3
1532234401611,23,-1,-2,-5,-3,-3,-4,-3
1532234401616,22,5,2,-2,-3,-3,-3,-3
1532234401621,-25,2,8,5,2,1,2,5
1532234401626,-11,-1,-5,-4,-2,-1,-1,-4
1532234401631,-15,-6,11,8,2,4,4,5
1532234401636,-9,7,4,6,2,-1,-1,3
1532234401641,-3,-5,-11,-11,-10,-7,-6,-1
1532234401646,-47,7,-1,-4,-4,-2,-1,-3
1532234401651,-63,-6,-1,2,1,1,-1,4
1532234401656,-24,4,2,2,1,1,-3,-5
1532234401661,0,1,-3,-6,-1,-3,-1,-2
1532234401666,-21,-7,-5,-7,-1,-4,2,-2
1532234401671,-14,-11,-1,8,3,3,0,-2
1532234401676,1,1,10,5,1,-1,-1,1
1532234401681,21,8,-4,-10,-10,-8,-2,-1
1532234401686,-15,-11,-4,-2,0,0,1,-8
1532234401691,7,-14,-7,4,8,3,0,-3
1532234401696,14,3,5,8,2,6,1,-5
1532234401701,20,-21,-6,-1,0,-1,0,-1
1532234401706,25,43,7,-4,-6,-3,-1,6
1532234401711,-16,6,1,-10,-6,-4,0,-2
1532234401716,-23,-44,-9,4,0,-1,-5,-4
1532234401721,-16,23,-6,-2,3,-1,-1,-2
1532234401726,-6,5,5,0,-1,-1,1,1
1532234401731,-6,21,3,2,1,3,-2,2
1532234401736,-13,1,-1,-3,-3,-2,-3,-4
1532234401741,39,22,-21,6,0,-3,-3,1
1532234401746,-4,-21,-6,-6,0,-2,1,1
1532234401751,1,15,8,5,1,1,-1,0
1532234401756,-12,-18,-5,1,1,2,0,-4
1532234401761,-3,-16,4,-10,-4,-2,-1,-2
1532234401766,1,13,-7,1,-1,-1,0,5
1532234401771,16,14,5,-1,1,1,-3,-5
1532234401776,2,-23,-48,-13,-3,-3,-1,1
1532234401781,-18,-3,49,25,3,4,0,-4
1532234401786,14,36,2,-2,-2,-1,-4,-5
1532234401791,-2,6,10,1,1,1,0,-1
1532234401796,6,-6,-5,0,-2,-4,-3,0
1532234401801,-2,-22,-19,-17,-7,-3,0,2
1532234401806,-1,-31,-4,0,3,1,0,-4
1532234401811,2,6,12,16,2,2,0,0
1532234401816,1,22,1,5,0,-1,-2,-2
1532234401821,10,15,-8,-7,-2,-4,-3,2
1532234401826,7,-5,2,-4,-3,-3,-2,1
1532234401831,-8,9,-11,-8,-3,-1,-2,-3
1532234401836,-4,1,4,6,2,0,0,2
1532234401841,-12,-8,-1,-9,-5,-3,-1,-9
1532234401846,2,-14,-5,-2,-3,0,0,8
1532234401851,12,-16,-3,1,-2,0,-2,-10
1532234401856,6,-5,3,0,-3,-3,-1,0
1532234401861,6,7,-7,-5,1,0,-2,2
1532234401866,-8,0,3,2,0,-1,1,-3
1532234401871,2,-9,-5,-4,-3,-2,2,3
1532234401876,4,-1,4,-1,-2,-1,-1,-2
1532234401881,3,3,-4,-2,2,0,0,-2
1532234401886,15,4,-3,-1,-1,1,0,2
1532234401891,-5,-9,-2,-4,-2,-2,-2,-3
1532234401896,10,5,2,1,2,2,1,-2
1532234401901,5,-11,1,0,1,-2,-1,0
1532234401906,2,2,-1,0,0,-2,0,-1
1532234401911,-3,0,1,-1,0,0,1,0
1532234401916,2,1,-2,0,-1,0,-1,-2
1532234401921,1,-2,-4,-6,-2,-1,-3,-2
1532234401926,-4,-2,-2,0,-2,-1,0,-2
1532234401931,-10,-11,-6,-2,-1,-2,-1,3
1532234401936,-4,10,4,1,1,0,-3,-5
1532234401941,-5,1,-9,-2,-1,-1,-1,0
1532234401946,-3,0,-2,-2,-1,-1,1,-4
1532234401951,-3,4,6,-1,-5,3,3,6
1532234401956,-17,-12,-6,-2,-4,-1,2,-1
1532234401961,-21,4,6,3,2,-2,-3,-4
1532234401966,-25,4,-6,-1,0,-1,0,-1
1532234401971,-45,-9,-2,-3,-2,-3,-3,2
1532234401976,-15,-1,1,-1,0,-2,0,-1
1532234401981,-14,-7,-2,0,-2,3,0,-1
1532234401986,-25,-2,-3,1,0,1,-3,-2
1532234401991,-21,5,0,-1,0,-1,0,-3
1532234401996,-12,0,1,0,-1,-2,0,2
1532234402001,10,-2,-8,-4,-3,-2,-1,1
1532234402006,35,0,4,0,-1,-2,0,0
1532234402011,23,2,-3,1,0,-1,-2,-3
1532234402016,27,-4,-4,-2,-4,-1,0,3
1532234402021,34,3,4,2,4,2,-1,-2
1532234402026,14,-9,-4,-5,-4,-4,-2,-1
1532234402031,-17,11,-2,-3,-6,-3,-2,-2
1532234402036,-4,-5,2,2,4,0,0,4
1532234402041,14,17,2,5,3,1,1,-1
1532234402046,-44,19,0,2,-1,-2,-3,-6
1532234402051,-32,-27,-5,0,1,3,-1,-1
1532234402056,-83,-15,2,-4,-1,-1,-4,-4
1532234402061,-98,-17,-8,-8,-6,0,1,6
1532234402066,-67,3,-3,-1,1,-1,-3,-5
1532234402071,-8,12,0,3,2,0,1,0
1532234402076,15,-17,-3,1,2,2,0,0
1532234402081,56,12,7,8,-1,-3,1,-4
1532234402086,56,-6,-6,-5,-3,-2,1,-1
1532234402091,79,4,-2,-8,-7,-7,1,-1
1532234402096,64,21,0,-3,2,7,1,-3
1532234402101,25,-5,-4,1,1,2,-1,-1
1532234402106,12,6,2,-1,-2,0,-2,1
1532234402111,6,-20,-2,0,-1,-4,-2,-2
1532234402116,13,25,-6,-11,-6,-6,-1,1
1532234402121,3,-35,9,-1,0,1,-3,3
1532234402126,-11,-12,7,14,7,5,-1,-9
1532234402131,5,0,-3,-1,-1,-1,-1,-1
1532234402136,7,-4,-2,-1,-2,-2,0,-2
1532234402141,-7,-3,-5,-11,-6,-5,-1,-1
1532234402146,19,-13,-5,-7,-3,-3,2,3
1532234402151,9,3,-1,0,4,1,-1,0
1532234402156,13,10,8,16,2,1,-2,-3
1532234402161,14,10,1,0,0,-3,-1,2
1532234402166,2,-19,-6,-3,-1,1,0,-6
1532234402171,7,-6,7,-1,-1,-4,-2,-1
1532234402176,-8,23,-14,-5,-4,-3,-2,-1
1532234402181,-30,-23,-4,1,0,-1,-1,0
1532234402186,-8,-7,-1,-1,0,-2,1,3
1532234402191,-1,4,2,2,2,-1,-2,5
1532234402196,-12,-20,4,-3,-1,-1,-1,-5
1532234402201,-4,-21,-5,-3,-4,2,-2,-4
1532234402206,4,35,4,2,0,-2,-1,0
1532234402211,-13,2,-3,0,0,2,2,-1
1532234402216,3,-10,4,6,-1,1,0,5
1532234402221,-22,18,-2,-3,-2,-1,0,0
1532234402226,-44,-9,2,0,-1,0,-2,-1
1532234402231,-34,-2,0,-2,-3,-1,0,0
1532234402236,-52,22,-6,-9,-4,-5,-4,-2
1532234402241,-50,7,6,14,7,1,2,-2
1532234402246,5,-3,-3,-2,-3,-1,-1,1
1532234402251,33,-4,1,0,-1,2,1,6
1532234402256,53,-22,2,-3,0,-2,-1,-13
1532234402261,64,19,-1,-4,-4,-4,-1,-2
1532234402266,47,-5,-1,-1,-3,-1,1,2
1532234402271,27,9,-3,-3,-2,1,-2,-4
1532234402276,30,-15,-1,1,1,5,1,6
1532234402281,22,12,2,5,-2,0,-1,-3
1532234402286,14,-7,2,0,0,0,-1,-3
1532234402291,-15,-8,-5,-3,-2,-5,-1,-3
1532234402296,-59,17,3,-1,-4,-2,-2,5
1532234402301,-38,-1,1,-4,0,-1,-2,-2
1532234402306,-23,-13,-6,3,0,1,1,1
1532234402311,20,15,4,-5,-4,-2,0,-5
1532234402316,22,-8,-3,1,2,-1,-4,-1
1532234402321,31,-1,2,2,-3,-1,0,0
1532234402326,41,1,2,-5,-3,0,-1,-2
1532234402331,29,-15,-7,0,3,2,0,-4
1532234402336,24,-12,-1,2,1,-1,2,-1
1532234402341,19,8,-2,-5,-4,-4,-4,-2
1532234402346,17,-42,-2,-3,1,-1,-1,1
1532234402351,3,33,10,7,1,1,-2,-1
1532234402356,8,4,0,1,0,-2,-2,0
1532234402361,5,-22,-2,-5,-3,-2,-2,-3
1532234402366,-8,9,-4,-2,-2,-1,0,2
1532234402371,-15,11,-5,-2,0,-4,-2,-1
1532234402376,0,-7,1,-1,-1,2,0,0
1532234402381,-8,4,-3,-4,-1,-1,1,0
1532234402386,-15,0,4,0,0,1,1,0
1532234402391,-17,10,-4,-3,-1,0,-3,-4
1532234402396,0,2,1,0,-1,-2,-1,0
1532234402401,-5,-26,-5,-2,1,0,0,2
1532234402406,-11,29,0,-6,-1,-1,-3,-10
1532234402411,-6,-21,1,9,2,2,0,2
1532234402416,-5,24,4,2,-2,-2,0,0
1532234402421,-9,22,-4,-2,-1,0,0,2
1532234402426,-2,1,2,4,-1,1,0,1
1532234402431,-1,-9,-2,-2,-2,-1,-2,-3
1532234402436,-9,-32,-5,-5,-1,-1,-1,-1
1532234402441,-7,6,7,5,3,1,1,-2
1532234402446,6,26,-1,-4,-3,-2,-3,0
1532234402451,-32,1,-1,0,-1,-1,1,-2
1532234402456,-8,0,-2,-3,1,1,1,4
1532234402461,-1,9,1,-6,-6,-1,-1,0
1532234402466,-3,-24,-3,-1,0,-4,2,0
1532234402471,-8,21,7,4,3,1,-1,1
1532234402476,-12,-17,-4,1,-2,-3,1,-3
1532234402481,-16,22,-4,0,-2,1,1,-1
1532234402486,-15,-15,-5,-5,-4,-2,-1,-1
1532234402491,11,-6,-2,-3,-2,-1,-2,-1
1532234402496,17,-1,-1,0,-1,0,-1,0
1532234402501,19,-12,-4,-2,-1,0,1,-1
1532234402506,17,21,6,0,-1,-3,0,-2
1532234402511,13,-9,-6,-3,-2,-3,-2,-2
1532234402516,4,9,-3,0,1,-1,-1,-2
1532234402521,10,-10,-2,-3,-1,-1,-1,-2
1532234402526,-1,-25,0,3,-1,3,2,1
1532234402531,0,1,-5,-1,0,-2,-2,-2
1532234402536,-2,18,10,2,1,1,-1,3
1532234402541,2,1,-3,-2,0,-2,0,-2
1532234402546,-1,19,-2,-2,0,-4,-2,-6
1532234402551,-6,-65,-9,0,-2,-2,-1,-1
1532234402556,-4,11,0,0,-1,4,0,1
1532234402561,2,-20,0,-3,-2,-1,1,2
1532234402566,-1,31,1,-2,0,-1,-2,-2
1532234402571,-6,2,3,3,1,-3,-1,-2
1532234402576,0,-9,-2,-1,0,-2,-2,-1
1532234402581,-6,-10,-6,-1,-1,0,0,1
1532234402586,0,3,0,-1,-2,2,1,6
1532234402591,-1,-10,0,-4,0,-1,-1,-4
1532234402596,-3,-6,0,1,-1,-2,-1,-2
1532234402601,-3,-7,-4,-1,-1,-1,-3,-3
1532234402606,1,-3,3,-5,-2,-5,0,-1
1532234402611,-3,-17,-7,-2,-1,3,0,1
1532234402616,-5,-39,-4,3,0,4,1,2
1532234402621,-4,34,-1,-3,-1,0,-1,-4
1532234402626,-1,13,7,3,2,-2,-3,-1
1532234402631,4,26,9,-3,-1,-2,-5,-4
1532234402636,-4,-16,-7,-1,0,1,2,5
1532234402641,-5,2,0,-1,1,-1,-1,1
1532234402646,-5,11,4,0,1,-1,0,-2
1532234402651,4,33,2,-1,-1,0,1,0
1532234402656,3,-17,-3,0,0,1,0,2
1532234402661,-1,7,7,2,1,-1,-1,-6
1532234402666,2,15,-1,-4,-3,-4,-3,-4
1532234402671,3,-19,-2,2,2,2,-1,0
1532234402676,1,-6,-5,-3,-3,-2,4,2
1532234402681,2,-8,-4,-2,3,0,3,-1
1532234402686,3,2,2,0,0,-3,-1,1
1532234402691,0,-7,-1,-1,-1,-2,-1,10
1532234402696,-5,1,0,-2,-2,-2,-3,-2
1532234402701,-8,3,-1,0,-1,0,0,3
1532234402706,-21,2,-1,-2,-1,-1,0,-4
1532234402711,-44,4,-1,1,0,2,-1,-2
1532234402716,-36,-3,-2,-1,0,0,0,-2
1532234402721,-75,-12,-5,0,-1,1,-4,0
1532234402726,-56,43,3,-3,0,-1,-2,-1
1532234402731,-45,-20,-3,-1,-1,0,-5,-6
1532234402736,-19,11,-1,0,-1,1,2,0
1532234402741,23,-8,1,0,-1,-2,2,2
1532234402746,23,-14,-3,0,-1,-2,0,-1
1532234402751,34,2,2,2,-1,0,-2,-3
1532234402756,36,0,-4,-3,-3,-4,-4,-5
1532234402761,27,1,0,-3,-4,-2,-2,2
1532234402766,24,0,0,0,-1,-1,0,4
1532234402771,29,7,3,1,2,2,5,5
1532234402776,23,-3,1,0,-3,-4,-9,-8
1532234402781,24,10,1,2,0,-2,-1,5
1532234402786,11,-9,-3,-3,-1,0,-2,-3
1532234402791,9,-16,-2,0,-2,-1,2,1
1532234402796,-2,17,3,0,0,1,0,-6
1532234402801,3,-3,-2,-1,1,-1,-1,-3
1532234402806,7,-3,0,1,-3,0,7,6
1532234402811,7,-12,-1,-3,1,-2,-15,-18
1532234402816,2,13,-2,-2,-1,-1,1,5
1532234402821,-4,-2,-1,-2,1,0,-2,-4
1532234402826,32,-1,-3,0,1,0,-1,-4
1532234402831,25,-7,-2,-1,-3,-3,1,2
1532234402836,12,1,2,1,0,-1,0,1
1532234402841,7,-6,0,-1,-1,0,0,-2
1532234402846,-5,-8,-3,-3,-1,-2,-2,-1
1532234402851,-2,-5,-1,-1,0,-2,2,1
1532234402856,-6,-3,2,1,-1,2,0,0
1532234402861,0,-5,0,1,0,0,0,3
1532234402866,-7,-1,1,0,1,-1,-1,-4
1532234402871,-2,-9,0,-3,-1,0,1,2
1532234402876,-5,9,-1,1,0,1,4,7
1532234402881,-6,-5,-2,-1,-1,-2,-7,-2
1532234402886,-15,4,1,0,-1,-2,-3,-6
1532234402891,-17,8,-1,-1,0,-1,-1,-4
1532234402896,-14,-11,-2,-1,-1,-2,-1,-2
1532234402901,-7,6,0,-1,-2,-1,-2,2
1532234402906,7,-2,0,0,-2,-1,-2,8
1532234402911,-11,13,-2,-2,-3,-2,-3,2
1532234402916,5,-11,-2,-3,0,-1,1,-3
1532234402921,2,0,-1,-1,-1,-1,-1,-4
1532234402926,1,-2,-1,-3,-2,-1,0,2
1532234402931,2,5,1,0,-1,-3,-6,-10
1532234402936,6,-3,-2,0,-1,-1,-1,5
1532234402941,4,-3,-2,-1,0,-1,0,1
1532234402946,0,-6,-1,-2,-2,0,-1,-1
1532234402951,0,-4,1,-1,-2,-1,-3,2
1532234402956,5,14,0,-2,-1,0,-1,4
1532234402961,12,7,6,2,3,2,3,6
1532234402966,-10,7,2,-1,-2,0,1,-14
1532234402971,8,16,0,-1,-1,-3,2,12
1532234402976,-4,-18,-3,0,0,-2,-1,-7
1532234402981,-3,1,0,-1,-2,1,1,1
1532234402986,-2,-2,0,0,0,1,-4,1
1532234402991,1,-6,-2,-1,0,2,1,-3
1532234402996,-5,-2,-1,-1,1,-1,-2,-3
1532234403001,-3,-2,-3,-3,-3,-3,0,-2
1532234403006,0,5,0,0,1,0,-1,-1
1532234403011,3,0,-1,0,-3,0,1,-2
1532234403016,-3,-2,-1,-1,1,-1,-1,1
1532234403021,-2,-4,-1,-3,-2,-2,-1,-6
1532234403026,-6,0,-2,-1,-1,-2,-1,-1
1532234403031,-2,3,0,1,0,0,2,2
1532234403036,-4,-5,1,-1,-2,0,0,-3
1532234403041,-7,-61,-8,0,-1,0,3,-1
1532234403046,2,80,4,2,2,-1,-2,0
1532234403051,0,1,17,-3,-2,-1,-3,-3
1532234403056,5,-11,-10,-4,-3,0,0,-2
1532234403061,-1,12,2,0,-2,-1,-1,-4
1532234403066,0,-39,-4,1,1,0,0,3
1532234403071,-3,-7,-7,1,0,0,0,-2
1532234403076,-5,4,5,0,-1,-2,0,-2
1532234403081,-3,-4,-2,-1,-1,-1,-2,1
1532234403086,-2,-12,-7,-1,-2,-2,-1,-1
1532234403091,2,5,0,0,1,1,3,1
1532234403096,-10,-6,-3,-2,-3,-3,-3,-3
1532234403101,-8,14,-3,0,0,0,-2,-9
1532234403106,0,-8,0,-4,-2,-2,-1,0
1532234403111,1,2,-3,-4,-2,-4,0,-4
1532234403116,-1,-5,0,1,0,2,2,0
1532234403121,2,11,1,2,-1,-1,-1,4
1532234403126,-1,0,2,0,-2,1,-1,-2
1532234403131,-6,-12,-3,-2,-1,0,4,5
1532234403136,-2,-4,-4,-3,0,-4,-8,-11
1532234403141,-2,13,1,-4,-1,0,1,2
1532234403146,-4,-17,-2,-3,0,-2,-4,-11
1532234403151,-3,-35,-5,2,-1,1,0,-1
1532234403156,4,78,3,-4,-2,-4,-5,-5
1532234403161,6,0,1,1,1,-1,-2,-1
1532234403166,4,-4,-3,-2,-3,-1,0,3
1532234403171,8,-11,-3,-1,0,-2,-2,0
1532234403176,3,-26,1,2,0,3,0,-1
1532234403181,-14,-1,-3,-3,-3,0,3,-5
1532234403186,3,7,0,1,-1,-3,-5,5
1532234403191,-2,4,-3,0,-1,-2,-2,-3
1532234403196,3,-11,0,1,0,-1,1,7
1532234403201,6,9,-1,0,-1,0,0,2
1532234403206,-23,-25,0,1,0,0,2,-2
1532234403211,-2,16,-2,-4,-1,-2,-6,-5
1532234403216,4,-12,0,0,-1,-1,1,1
1532234403221,4,-3,-3,-2,0,-1,-2,0
1532234403226,10,9,2,-1,-1,1,-1,3
1532234403231,-4,4,0,0,-1,0,-1,-1
1532234403236,-5,-14,-4,-2,0,1,6,3
1532234403241,0,-2,2,1,-1,-4,-6,-7
1532234403246,-4,-10,0,2,1,2,4,5
1532234403251,-8,-1,-4,-4,-3,0,17,-1
1532234403256,0,-11,-1,-2,-3,-5,-35,-16
1532234403261,-10,2,-3,-1,2,2,13,15
1532234403266,-9,1,-2,-3,-1,0,5,-2
1532234403271,-4,-1,0,3,0,0,-5,7
1532234403276,-7,-1,-1,1,-1,0,10,11
1532234403281,-5,-11,1,0,0,-1,-7,-5
1532234403286,2,23,-4,-6,-3,-3,-5,-5
1532234403291,1,-4,1,0,0,0,1,4
1532234403296,0,-1,1,-2,-1,0,4,-1
1532234403301,2,-3,-1,0,1,-3,-7,0
1532234403306,10,11,1,-1,0,0,2,2
1532234403311,-3,4,0,-1,2,-3,-6,-12
1532234403316,0,-16,-1,1,1,-1,3,0
1532234403321,2,13,3,0,-1,0,1,-5
1532234403326,-2,-4,-4,-1,0,-2,0,3
1532234403331,-1,2,-1,-2,0,0,-5,-3
1532234403336,2,-4,-1,0,1,1,2,4
1532234403341,-3,-6,-1,-2,-2,0,6,3
1532234403346,-2,-7,-2,-1,-2,-3,-7,-6
1532234403351,7,8,1,0,1,-1,-2,7
1532234403356,-8,-4,-1,0,0,1,7,4
1532234403361,6,4,-2,-1,-3,-2,-2,-2
1532234403366,-1,-3,0,1,-1,0,0,-3
1532234403371,-5,-9,-1,0,0,2,-1,-3
1532234403376,0,8,1,-2,-2,-3,0,1
1532234403381,-2,1,-1,0,-1,1,-1,2
1532234403386,1,-7,-1,-1,0,1,0,-3
1532234403391,3,1,0,-1,-1,-1,0,-3
1532234403396,5,2,-1,-2,1,-1,0,-4
1532234403401,18,0,-2,-1,-1,-1,-3,-4
1532234403406,8,-6,-1,0,-2,-1,0,-2
1532234403411,3,2,-2,0,-3,0,-3,-4
1532234403416,-9,1,-1,-1,-1,0,1,-1
1532234403421,-11,-5,0,-2,-1,-1,-1,-3
1532234403426,-9,-3,0,0,-1,0,-2,-1
1532234403431,-3,5,2,-2,-1,-1,1,1
1532234403436,-10,-2,-2,0,-3,0,0,-4
1532234403441,2,4,-2,-3,-1,-1,-2,1
1532234403446,-7,-1,0,-1,-1,-2,-2,-2
1532234403451,-2,1,0,1,1,-1,-1,-2
1532234403456,1,-4,-3,-1,-1,-2,0,-2
1532234403461,-1,-5,-3,-3,-2,-2,0,-2
1532234403466,4,-1,-2,-2,-1,-2,-2,2
1532234403471,-10,-3,-5,-3,-1,-1,-2,-5
1532234403476,3,1,1,-2,0,0,-2,0
1532234403481,-3,-2,-2,-2,1,-2,-2,-3
1532234403486,2,-4,-1,-1,0,0,1,0
1532234403491,0,0,-2,-2,-1,-1,-2,0
1532234403496,-1,0,-1,0,-1,0,-1,-2
1532234403501,-4,-1,1,-1,-2,-2,-2,-2
1532234403506,0,-3,-1,-2,1,-2,1,-2
1532234403511,3,0,-1,-1,-2,-1,-1,-1
1532234403516,-3,0,1,1,-1,-2,0,-1
1532234403521,0,0,0,0,0,-1,-2,2
1532234403526,0,0,-2,1,-1,-3,0,-1
1532234403531,0,-1,-1,0,1,-2,2,-2
1532234403536,-1,-2,0,0,1,-1,-2,-9
1532234403541,-3,-1,0,-1,-1,0,-1,-2
1532234403546,1,0,1,0,1,0,-2,-2
1532234403551,-1,-1,-2,-2,0,-1,3,4
1532234403556,0,-1,-2,-2,-3,0,0,0
1532234403561,0,-1,2,1,0,-1,-1,0
1532234403566,-4,-2,-2,-3,-2,-1,0,1
1532234403571,-1,2,-1,-1,-1,-1,-3,-10
1532234403576,-1,-1,-2,-2,-1,-1,0,5
1532234403581,1,0,0,-1,-1,-1,0,0
1532234403586,-2,0,2,0,-1,1,0,1
1532234403591,0,-4,-2,-1,-1,-2,-2,0
1532234403596,-1,0,-1,1,-1,-2,1,0
1532234403601,-3,-3,-1,0,-1,-1,-2,-2
1532234403606,-1,0,0,0,-1,-2,0,-1
1532234403611,-3,0,-1,0,-1,1,-3,-2
1532234403616,1,0,0,1,0,-2,0,3
1532234403621,-2,-1,-1,-1,-2,1,2,-3
1532234403626,-2,0,1,-1,-2,0,-4,-7
1532234403631,1,2,2,-1,-1,0,1,2
1532234403636,3,0,1,0,1,-2,-2,1
1532234403641,-3,-4,-3,-2,-2,-2,0,1
1532234403646,3,-1,0,0,-1,0,-3,-2
1532234403651,0,0,0,0,-2,-2,0,2
1532234403656,2,0,0,-1,-2,-1,0,-1
1532234403661,5,6,7,1,-1,2,6,8
1532234403666,-7,-6,-6,1,0,-1,-14,-23
1532234403671,-2,-3,-2,0,0,-2,-1,-1
1532234403676,-3,-1,-2,-4,0,-1,-3,-6
1532234403681,0,2,0,-1,0,-1,2,4
1532234403686,3,2,1,-1,0,-1,3,6
1532234403691,-5,-1,0,0,-3,0,-1,-1
1532234403696,-2,0,0,-1,-2,0,0,2
1532234403701,0,-2,-2,0,-1,-1,-2,-15
1532234403706,-4,-8,-1,-4,-1,-1,2,8
1532234403711,1,9,-1,0,1,-1,-5,-4
1532234403716,0,1,1,2,1,1,-2,-3
1532234403721,6,-2,-1,0,-2,-1,0,0
1532234403726,-2,4,-2,-1,0,-1,-3,-2
1532234403731,1,-4,1,-2,-4,-3,4,1
1532234403736,-3,-1,-2,-2,-2,-3,0,-2
1532234403741,-10,1,-4,-1,0,-2,-4,5
1532234403746,1,-3,-3,1,0,1,2,4
1532234403751,3,-1,-2,-1,-1,0,0,3
1532234403756,5,-1,-2,0,0,1,-2,-2
1532234403761,-2,-7,-3,-2,0,-2,-3,-1
1532234403766,0,1,0,-2,-3,-3,7,5
1532234403771,-4,-1,-1,-1,0,-3,-9,-16
1532234403776,0,-1,0,0,-1,-1,2,5
1532234403781,0,0,-2,0,1,1,2,0
1532234403786,55,-2,-3,0,-2,-2,-10,9
1532234403791,44,-2,0,-3,0,2,7,-5
1532234403796,16,-8,-3,-2,0,-1,-1,5
1532234403801,-1,10,-1,-1,1,0,-4,-9
1532234403806,-30,1,1,1,2,1,4,5
1532234403811,-21,-2,-2,-1,-1,0,0,10
1532234403816,-15,-3,-2,-3,-3,-2,-2,-5
1532234403821,-22,-5,0,-2,0,0,1,4
1532234403826,-17,-2,-1,-1,-2,-1,1,-6
1532234403831,-14,-1,2,-1,1,0,-4,1
1532234403836,-15,4,1,0,-1,0,1,-1
1532234403841,-12,-2,0,-1,1,0,-2,0
1532234403846,-9,0,0,-1,-3,0,1,-5
1532234403851,-10,-2,-3,-3,-1,-1,0,4
1532234403856,3,3,0,0,-1,0,5,10
1532234403861,8,-2,-1,0,-2,-2,-6,-4
1532234403866,6,-1,0,-1,0,-1,5,0
1532234403871,-3,-2,-1,0,-1,-2,-1,9
1532234403876,-1,-1,-1,-3,-1,-1,-10,-18
1532234403881,2,0,-1,-1,-1,-2,-1,1
1532234403886,-4,0,0,1,-1,1,-2,-6
1532234403891,5,2,-1,-1,-1,1,3,4
1532234403896,4,1,1,-1,1,0,1,0
1532234403901,7,-3,-2,-2,-1,-1,-4,0
1532234403906,-1,1,2,1,0,-1,2,8
1532234403911,-5,-3,-2,-1,1,-1,-2,-5
1532234403916,21,0,-2,0,-1,-1,-1,2
1532234403921,15,-6,-1,-2,-1,0,2,-2
1532234403926,0,-4,-1,-2,0,-1,-2,2
1532234403931,-10,-2,0,0,-1,-1,-4,-7
1532234403936,-23,-7,-2,-1,0,-2,1,2
1532234403941,-6,3,-1,-1,-2,0,4,6
1532234403946,-7,0,-2,-3,-1,-2,-7,-12
1532234403951,9,0,-1,0,-2,-2,-3,0
1532234403956,1,3,-1,0,-1,0,-1,-3
1532234403961,0,2,-1,0,0,0,-2,-5
1532234403966,-6,-3,-1,0,-2,-1,-1,3
1532234403971,-5,0,-1,0,0,1,-5,-4
1532234403976,1,-1,-3,-2,-2,-1,-1,-3
1532234403981,-7,-1,-1,-1,-2,-1,-3,-3
1532234403986,-1,2,-1,1,-1,0,1,-2
1532234403991,0,-4,-3,-1,-3,-1,0,0
1532234403996,3,-1,1,2,-1,-2,0,-2
1532234404001,0,-1,-2,-1,-1,0,0,-7
1532234404006,0,3,1,-2,1,-1,1,-4
1532234404011,3,2,0,-2,-2,-1,4,1
1532234404016,-7,-4,-2,-2,0,-1,-2,-2
1532234404021,-2,0,-2,-1,-1,-2,-1,0
1532234404026,2,0,-1,-3,-1,0,0,1
1532234404031,0,-2,0,-1,0,0,-2,-3
1532234404036,35,0,-1,-2,-1,0,2,4
1532234404041,18,-4,-1,-1,0,0,-2,-1
1532234404046,8,0,0,1,-1,-1,-2,2
1532234404051,-11,-1,1,-1,-1,-1,0,-1
1532234404056,-20,-4,0,1,-2,-2,-1,-4
1532234404061,-9,-1,0,0,-2,-1,-1,2
1532234404066,-12,2,-2,-1,-1,-1,-5,-9
1532234404071,-5,2,1,0,1,1,1,-1
1532234404076,-12,-1,0,-1,0,0,-2,-1
1532234404081,-2,2,-1,0,0,0,0,-3
1532234404086,-6,-3,0,-1,-2,0,1,2
1532234404091,5,0,-3,-2,-1,-2,0,2
1532234404096,-5,-1,0,-1,1,-2,0,4
1532234404101,-8,-8,-1,-3,-1,-1,-1,0
1532234404106,3,2,-1,-1,-2,2,-1,0
1532234404111,5,1,0,0,-1,0,-2,-2
1532234404116,19,5,0,0,0,0,3,3
1532234404121,8,2,1,-1,-1,-1,-3,5
1532234404126,5,-1,0,-1,-2,-3,-2,-11
1532234404131,0,-1,-2,0,1,0,1,2
1532234404136,-12,2,0,2,-1,1,-2,-19
1532234404141,-7,-4,-3,-3,-2,-3,-2,-10
1532234404146,-4,-2,-1,-1,-1,0,-1,4
1532234404151,-5,0,-1,-1,-2,-2,-2,-11
1532234404156,-7,-2,1,-2,-1,-1,-2,3
1532234404161,-4,3,-2,-1,0,-2,-1,-2
1532234404166,-1,-1,-2,0,0,0,1,5
1532234404171,-1,-3,-1,-2,-1,-2,-6,-13
1532234404176,-2,4,0,1,0,-1,1,6
1532234404181,4,2,-1,0,-1,0,-2,-4
1532234404186,0,0,-1,0,1,-2,-1,0
1532234404191,2,-2,0,0,0,1,-1,1
1532234404196,-3,-3,-1,0,-2,-1,-2,-4
1532234404201,-2,-1,-1,0,-1,0,1,9
1532234404206,4,-1,-1,0,0,-1,0,6
1532234404211,1,1,-2,0,-1,-1,-2,1
1532234404216,-1,-3,-1,-1,1,0,-1,4
1532234404221,2,0,0,0,0,-2,0,0
1532234404226,5,2,-1,-2,-1,0,0,1
1532234404231,0,-1,-1,-2,-1,-2,-3,3
1532234404236,-1,0,-2,0,-3,-2,-1,-1
1532234404241,-2,1,0,0,-1,1,0,-1
1532234404246,-4,-4,-2,-2,-1,0,1,-2
1532234404251,0,0,0,-1,-1,-2,-2,0
1532234404256,-2,-4,-3,-2,1,-2,-2,-2
1532234404261,0,-4,-2,0,1,-2,0,-1
1532234404266,-2,0,-1,-2,0,-2,-2,-4
1532234404271,-1,0,-2,0,-1,1,2,3
1532234404276,1,-1,-1,-2,-2,0,-1,0
1532234404281,-3,-2,-1,-1,-1,2,0,-3
1532234404286,-5,-1,0,0,-1,-2,0,-2
1532234404291,-9,1,-1,1,1,-1,2,1
1532234404296,-9,0,-1,-2,-2,-1,0,-1
1532234404301,-5,1,1,-1,-1,-2,0,-2
1532234404306,-2,0,-1,-2,-1,3,0,-2
1532234404311,5,-2,-2,-2,0,1,0,-1
1532234404316,5,-2,-1,-1,-3,0,-1,-1
1532234404321,6,-3,-1,0,-1,-1,2,-3
1532234404326,5,-4,0,0,-1,-1,-1,1
1532234404331,7,0,1,1,-1,-2,-1,1
1532234404336,5,-1,-2,0,0,0,2,1
1532234404341,4,-3,-1,0,-1,-3,-4,1
1532234404346,-1,-3,-1,0,0,1,-1,-3
1532234404351,1,-4,-1,-1,-1,-1,-1,1
1532234404356,4,-2,-1,-1,-2,1,-2,2
1532234404361,-8,-1,-1,-1,-1,0,0,-1
1532234404366,0,-2,-2,0,-2,-2,1,-2
1532234404371,-1,-5,-2,-3,0,-1,-1,0
1532234404376,-1,2,-2,-2,-1,1,-1,-3
1532234404381,-1,0,0,0,0,0,-1,0
1532234404386,-1,1,0,0,-1,-1,0,0
1532234404391,-2,-1,0,-1,0,0,1,1
1532234404396,2,-2,0,-1,0,0,3,0
1532234404401,-6,0,-2,-1,-1,-1,-5,-10
1532234404406,4,8,0,-2,0,-1,-1,0
1532234404411,-8,-4,-2,-1,-1,-2,-1,-2
1532234404416,-3,0,-1,0,-1,-4,-3,-1
1532234404421,0,-3,-1,0,1,-1,0,2
1532234404426,-3,-2,-1,-1,-1,0,-1,-1
1532234404431,2,-8,-2,0,0,0,-2,-1
1532234404436,-1,-3,1,-2,-2,1,0,-3
1532234404441,-1,-2,-2,-1,-1,-1,3,7
1532234404446,-3,-6,0,-1,0,0,-1,1
1532234404451,0,3,1,-2,-1,1,0,-1
1532234404456,-3,0,0,0,0,-2,-2,2
1532234404461,1,1,1,-2,-1,0,-3,-2
1532234404466,0,0,-1,0,-2,-2,-1,-3
1532234404471,2,2,-2,-1,-1,-2,1,1
1532234404476,0,2,0,-1,0,1,-2,-6
1532234404481,3,1,-1,-1,-2,-1,2,1
1532234404486,0,-4,0,-1,-1,-2,-1,-8
1532234404491,-1,4,1,-2,-1,0,-3,-2
1532234404496,-4,-4,-3,0,-1,1,-1,-2
1532234404501,1,6,-1,-2,1,-1,-1,-1
1532234404506,2,0,-2,-1,-1,0,0,4
1532234404511,-3,-3,-1,-2,-1,-1,1,-1
1532234404516,1,-3,0,0,1,-2,0,-2
1532234404521,0,0,-1,-1,-1,-1,-2,-2
1532234404526,1,3,0,0,0,0,-1,2
1532234404531,2,0,-1,0,-1,-1,-2,0
1532234404536,-2,-3,0,-2,-1,0,-2,5
1532234404541,1,-3,0,-1,-1,-3,1,-1
1532234404546,-1,-2,-1,-1,0,-2,-1,1
1532234404551,2,2,-2,-2,1,-2,2,-2
1532234404556,-6,-2,-1,-1,-2,-2,0,0
1532234404561,3,-1,-2,0,1,0,1,1
1532234404566,-3,-1,-2,-1,-1,-1,0,-2
1532234404571,-1,-1,-1,-1,-1,-1,-2,-1
1532234404576,0,0,-1,0,0,-2,-2,0
1532234404581,-1,4,-1,0,-3,0,-1,-2
1532234404586,-3,-8,-1,-2,-1,0,-2,-3
1532234404591,-2,-2,-1,0,0,-2,-1,-1
1532234404596,-1,-1,-1,-1,0,-2,0,-2
1532234404601,5,8,1,-2,-1,-1,-2,-1
1532234404606,-1,-3,1,0,-1,-1,-1,0
1532234404611,-1,-2,0,-2,0,1,0,1
1532234404616,1,0,-2,-1,-1,0,-1,0
1532234404621,-8,-7,0,-2,-1,0,-1,-3
1532234404626,-1,-3,-1,-1,-1,0,0,-1
1532234404631,1,2,0,-2,-2,-1,-1,-1
1532234404636,4,2,-1,-3,0,-1,1,0
1532234404641,-2,-1,-1,1,1,-1,-3,0
1532234404646,1,2,-2,0,-1,1,-1,-1
1532234404651,2,-1,0,0,-1,0,-2,-2
1532234404656,6,3,-1,0,0,1,-1,0
1532234404661,9,-4,-1,0,-1,0,-1,-1
1532234404666,10,-2,0,-3,-2,-1,-2,1
1532234404671,7,0,-1,0,-1,0,1,-1
1532234404676,-3,-8,-3,-2,-2,-2,-1,-3
1532234404681,-5,-2,-2,-1,0,0,1,1
1532234404686,-15,-1,-2,1,-2,-1,-1,-2
1532234404691,-8,0,-1,-1,0,1,0,-2
1532234404696,-8,-3,1,0,-1,-1,1,0
1532234404701,1,4,1,-1,-2,-1,-1,-1
1532234404706,2,0,-1,0,-1,-2,1,0
1532234404711,-6,0,0,0,-1,-1,-2,0
1532234404716,-3,2,1,0,-1,0,0,-2
1532234404721,-5,-2,-2,-2,-1,-2,0,-3
1532234404726,-4,-3,-1,-1,1,-2,1,-1
1532234404731,2,4,1,-1,-1,-1,1,0
1532234404736,0,3,0,-1,0,-1,-2,0
1532234404741,-3,-3,-2,-1,1,-1,-1,-2
1532234404746,-8,3,0,-2,-1,-1,0,2
1532234404751,-17,1,-3,-1,-1,-1,-3,3
1532234404756,-13,1,-1,-1,-1,-3,-3,-2
1532234404761,-7,0,-2,0,-1,0,-2,-1
1532234404766,-7,-3,-1,-1,1,0,1,3
1532234404771,-7,0,0,-1,-2,0,1,-1
1532234404776,-19,-1,0,-1,-1,0,-1,-1
1532234404781,-14,-9,0,0,-1,-1,-2,-2
1532234404786,2,0,-2,0,0,0,-1,-2
1532234404791,15,-1,-2,0,1,0,-2,-2
1532234404796,16,3,-2,0,-1,-1,-1,-1
1532234404801,12,1,0,-3,-2,0,-2,-1
1532234404806,11,1,0,-1,-1,-2,-1,1
1532234404811,9,5,1,-1,-1,-2,-2,1
1532234404816,8,8,-1,-2,1,0,-2,2
1532234404821,-2,-9,-2,1,-1,1,0,1
1532234404826,0,3,1,1,0,1,-2,-2
1532234404831,-2,-10,-2,0,-1,0,0,-1
1532234404836,3,-6,1,-1,-2,0,-1,0
1532234404841,9,3,-1,-2,0,-2,-1,-3
1532234404846,4,-1,-2,-1,-1,-2,-2,-4
1532234404851,3,0,0,-1,1,0,-2,-2
1532234404856,5,-3,-2,0,-1,0,-1,-1
1532234404861,1,0,-1,-1,-1,0,-1,1
1532234404866,-2,-3,0,-1,-1,0,0,-1
1532234404871,-2,-2,0,-2,-2,0,-2,0
1532234404876,-3,1,-3,-2,-2,-1,-1,-3
1532234404881,1,-8,0,0,-1,-1,1,3
1532234404886,2,6,-1,-1,-1,-2,-2,-7
1532234404891,1,-2,-1,-2,0,-2,0,1
1532234404896,3,-1,0,0,-1,-1,0,0
1532234404901,0,0,0,-1,0,0,-1,-1
1532234404906,0,-2,0,-2,-2,0,0,1
1532234404911,-3,-4,-3,-1,2,0,0,-3
1532234404916,3,-6,-1,-1,0,-1,0,-2
1532234404921,12,11,0,-1,0,-2,-1,-1
1532234404926,5,-2,-2,0,0,-1,0,0
1532234404931,-2,0,-1,-1,-1,0,1,-3
1532234404936,-7,-2,-2,0,-1,2,-1,0
1532234404941,-13,0,-1,-1,0,0,-1,1
1532234404946,-6,0,0,1,0,-2,-1,-1
1532234404951,-1,-2,-1,0,-2,0,0,2
1532234404956,1,6,1,0,0,0,0,-1
1532234404961,0,4,-1,-2,0,-1,0,-2
1532234404966,-3,-8,-2,-2,-1,0,-2,-1
1532234404971,0,4,-1,0,-1,-1,-2,-1
1532234404976,0,0,0,0,-1,-2,0,-1
1532234404981,-3,-2,0,0,-2,1,0,-1
1532234404986,-6,1,-2,-2,-2,-1,1,2
1532234404991,-1,-8,0,-1,-1,-1,0,-2
1532234404996,-1,-6,-1,-2,-1,-3,-2,-2
1532234405001,-1,-4,-2,-1,-2,-1,0,-2
1532234405006,-1,-2,-1,0,0,-1,-1,-1
1532234405011,0,-2,-1,-1,-3,-1,-1,2
1532234405016,-1,-2,1,-1,0,-2,-2,3
1532234405021,-5,-4,-1,-1,0,0,-1,-2
1532234405026,-2,-3,-1,0,-1,-1,-1,-3
1532234405031,-1,7,-2,-1,-1,-2,-1,1
1532234405036,0,-3,-3,-3,-2,1,0,-1
1532234405041,-3,-2,-2,-1,-2,-3,-1,1
1532234405046,0,1,0,-1,-1,0,0,1
1532234405051,-2,-4,0,-2,0,1,-3,-2
1532234405056,2,6,-2,0,-1,0,-1,-3
1532234405061,1,1,-1,0,-1,0,-1,-2
1532234405066,1,3,0,0,0,0,0,0
1532234405071,1,-10,-1,1,-2,-1,0,-1
1532234405076,0,-5,-3,-2,-1,0,-2,-2
1532234405081,2,-3,-1,-2,-2,-1,-1,3
1532234405086,-2,1,0,0,0,-2,-3,-1
1532234405091,-3,2,-3,-3,-1,-3,-1,-4
1532234405096,-5,1,1,1,1,-1,-1,0
1532234405101,1,1,-1,0,0,0,-2,-2
1532234405106,2,-8,-2,-2,-1,0,0,2
1532234405111,3,1,-1,0,-2,-1,0,-11
1532234405116,2,0,0,-1,0,0,0,0
1532234405121,-3,-1,-1,-2,2,-1,-1,-2
1532234405126,-4,1,-1,0,-1,0,1,-1
1532234405131,-4,1,0,0,0,-2,-2,1
1532234405136,2,0,0,1,0,-1,0,-1
1532234405141,-4,0,0,1,-1,-1,-1,-1
1532234405146,-2,5,-1,-2,-1,-2,-2,-2
1532234405151,-6,1,-2,-3,2,2,1,2
1532234405156,-4,1,-1,0,-1,-1,0,-1
1532234405161,-3,-2,0,-1,-1,-3,-1,-1
1532234405166,0,-1,-2,-1,-2,-2,0,0
1532234405171,-1,0,0,0,-1,-2,0,0
1532234405176,1,-3,-1,-1,-2,-1,0,0
1532234405181,3,-3,-1,-1,-2,-1,-1,0
1532234405186,-2,-2,0,0,-2,-2,0,-3
1532234405191,-1,-1,0,1,0,-1,-4,-1
1532234405196,-2,-1,-1,-1,0,-1,-1,0
1532234405201,-3,1,-1,-1,0,-1,0,-1
1532234405206,-4,-2,-2,-1,-2,0,-2,-2
1532234405211,5,4,-1,-1,-1,-2,-1,2
1532234405216,0,-1,-1,0,-1,0,-2,-7
1532234405221,1,0,-2,-1,0,0,-1,0
1532234405226,2,-1,-1,-1,-1,0,0,0
1532234405231,0,-4,-3,0,-1,-1,0,0
1532234405236,-1,1,-1,-3,0,-1,0,0
1532234405241,0,2,0,-1,-1,-1,1,-1
1532234405246,-3,-6,-2,-2,1,0,-3,-2
1532234405251,2,4,0,-1,-1,-2,0,1
1532234405256,-2,-3,1,-3,0,-2,-1,0
1532234405261,-2,0,0,0,-1,0,-2,-2
1532234405266,0,1,1,-1,0,-1,-1,1
1532234405271,-3,-5,0,-1,-2,0,-1,-1
1532234405276,-6,0,-1,-1,-1,-2,0,-2
1532234405281,-1,-2,-2,-1,1,0,-1,-2
1532234405286,-1,-1,0,-1,-1,0,-2,3
1532234405291,-5,-1,-3,0,-1,0,-1,-9
1532234405296,-2,0,-2,0,0,0,-1,-1
1532234405301,-4,-2,1,-2,-3,1,0,-1
1532234405306,-12,0,-1,0,0,0,0,-1
1532234405311,-7,0,1,-1,1,1,1,1
1532234405316,-5,-8,-2,0,-1,-2,0,0
1532234405321,1,-1,0,-1,0,-2,1,-3
1532234405326,7,2,-1,-1,1,-1,0,-1
1532234405331,5,0,1,-1,-2,0,-1,1
1532234405336,3,-1,-2,0,1,1,-1,-1
1532234405341,3,-3,0,-1,0,-1,-2,2
1532234405346,2,2,-2,0,-2,-2,0,-2
1532234405351,2,-2,-2,0,-2,-1,-1,1
1532234405356,2,1,-2,-1,-1,-2,0,0
1532234405361,-2,-1,-1,-2,-2,0,0,0
1532234405366,-1,1,-1,1,0,-1,-1,-3
1532234405371,1,4,0,0,1,-1,-2,-2
1532234405376,3,2,0,0,-1,-1,-2,0
1532234405381,0,-1,-2,-1,0,-1,-2,3
1532234405386,0,-4,0,-2,0,0,-1,-10
1532234405391,-1,-1,-1,0,-2,-2,0,1
1532234405396,-2,1,0,-2,0,0,-1,0
1532234405401,-1,0,-2,-1,1,0,0,-2
1532234405406,1,3,1,-1,-1,-2,-1,3
1532234405411,1,-1,-2,-3,1,-1,-2,-1
1532234405416,-5,-2,2,1,-2,-1,-1,-3
1532234405421,0,2,-2,0,-1,-1,1,0
1532234405426,-1,-2,-1,-1,-2,0,-1,0
1532234405431,-2,-4,0,0,-1,-1,-2,-3
1532234405436,2,-2,0,-3,0,-1,-2,0
1532234405441,-2,-2,-1,-1,-1,-1,0,-1
1532234405446,-1,6,-1,-1,-1,0,0,-2
1532234405451,0,-4,-1,1,-1,0,-1,0
1532234405456,-3,-3,-2,-1,-2,0,-1,-2
1532234405461,1,1,-1,0,0,-3,-1,-2
1532234405466,-1,1,-2,0,0,-1,0,4
1532234405471,-4,-1,-2,-3,-1,-1,0,-2
1532234405476,2,1,0,-1,-1,-1,0,0
1532234405481,-3,-3,0,-2,0,0,-1,-2
1532234405486,-2,-4,-2,0,0,-2,-2,3
1532234405491,0,2,0,-2,0,-1,1,1
1532234405496,-1,-3,0,-1,-1,-2,-1,3
1532234405501,0,0,0,0,1,-2,-3,-1
1532234405506,2,4,-1,0,-1,0,-1,-4
1532234405511,0,-3,-1,0,-2,-1,-1,0
1532234405516,0,2,-2,1,0,-1,2,-1
1532234405521,0,-2,-1,0,-3,-1,-1,-1
1532234405526,1,1,-1,0,-1,0,-1,-2
1532234405531,-1,-1,-2,-1,1,-1,-2,-3
1532234405536,-1,-4,0,-1,-2,2,-1,-1
1532234405541,3,4,0,0,2,0,0,2
1532234405546,-2,-3,-1,0,-1,-1,0,4
1532234405551,0,1,-2,-1,-1,-3,0,-2
1532234405556,-1,-2,0,-2,0,0,-2,0
1532234405561,-3,3,2,0,-3,0,0,-3
1532234405566,-3,-12,-1,-3,-1,1,-2,-2
1532234405571,-2,-1,-1,-1,0,0,-1,0
1532234405576,3,2,-1,-1,0,-1,0,-3
1532234405581,0,1,-3,-2,-2,-2,-1,-2
1532234405586,0,2,0,-1,1,-2,-1,0
1532234405591,-3,-3,-1,-1,-2,0,0,-3
1532234405596,-3,3,-1,1,-1,-2,-3,-1
1532234405601,-2,-2,-1,1,0,-1,-1,-1
1532234405606,-2,0,0,0,1,-1,-1,-1
1532234405611,0,6,-1,0,-2,1,1,3
1532234405616,-3,-6,-2,-1,-3,1,-2,-9
1532234405621,-2,-3,0,0,-1,0,-1,-1
1532234405626,2,0,-1,-1,-1,0,-1,0
1532234405631,2,0,1,-1,0,1,-1,-1
1532234405636,-2,-4,0,-2,2,-1,-1,1
1532234405641,2,-3,-1,0,0,-2,-1,3
1532234405646,-3,0,0,-1,-1,-1,-1,-1
1532234405651,-3,-2,0,1,0,-2,-1,-1
1532234405656,0,0,1,0,-2,-1,0,2
1532234405661,-5,-1,-1,-1,-1,-2,-1,-3
1532234405666,-1,0,-2,0,-1,-1,-2,0
1532234405671,1,-3,0,-2,0,-1,-1,0
1532234405676,0,-1,-2,-2,-2,-1,-1,-3
1532234405681,0,-2,1,-2,-2,0,0,-1
1532234405686,-1,2,0,-1,-1,-1,0,-1
1532234405691,2,-2,-1,0,-2,-2,0,0
1532234405696,1,-2,0,1,1,0,0,-1
1532234405701,-1,-6,-1,0,-1,0,0,-2
1532234405706,4,0,1,-4,-2,-1,0,0
1532234405711,5,-2,-1,1,0,-1,-1,-6
1532234405716,4,4,1,0,0,-1,1,5
1532234405721,3,4,-1,1,1,0,-1,1
1532234405726,-2,-3,0,-1,1,-1,0,-2
1532234405731,9,1,-1,-1,0,-1,0,0
1532234405736,5,-2,-4,0,-1,-2,-1,-1
1532234405741,2,-2,0,-1,-1,-1,-1,-3
1532234405746,1,-4,-2,-1,-1,0,0,-1
1532234405751,-5,-1,0,0,-2,-2,-1,2
1532234405756,-11,-10,-2,-2,0,-1,-1,-1
1532234405761,-9,1,-2,-2,-2,0,-2,-2
1532234405766,-12,-1,-1,-1,-2,1,0,-1
1532234405771,-14,-3,1,-3,-1,-1,-1,-1
1532234405776,-11,4,1,-1,1,0,-1,-2
1532234405781,-11,-2,-2,1,0,0,-2,-1
1532234405786,-5,-2,-2,-2,0,-2,-2,3
1532234405791,-6,2,-1,0,-2,-1,-2,-4
1532234405796,-2,2,-1,-3,-1,-1,0,3
1532234405801,-8,-2,0,-2,-1,-1,-1,-3
1532234405806,-1,0,1,0,-1,-3,0,0
1532234405811,3,-2,-1,-2,-1,0,1,2
1532234405816,14,-1,-2,-1,-1,1,-1,-1
1532234405821,16,5,-1,0,-2,-1,-1,0
1532234405826,11,-3,-3,-1,-2,-1,0,-2
1532234405831,4,2,-1,-2,0,-3,-1,1
1532234405836,2,-4,0,-1,1,-2,-1,0
1532234405841,3,-3,0,-1,1,-1,-1,-1
1532234405846,3,1,0,-1,0,1,0,-3
1532234405851,5,0,0,0,-1,-2,0,-1
1532234405856,2,0,-1,-1,-1,1,-1,0
1532234405861,10,-2,-2,-2,0,0,0,0
1532234405866,22,-1,-1,1,1,0,0,-5
1532234405871,5,-2,-2,0,0,-1,-1,4
1532234405876,-7,0,0,-1,-3,1,1,-10
1532234405881,-18,-4,0,-1,-1,-2,0,0
1532234405886,-20,-1,-2,-1,-1,-1,-1,-1
1532234405891,-13,6,1,0,0,0,-1,-1
1532234405896,-9,-4,-1,-1,0,-3,0,1
1532234405901,-4,0,-3,0,0,-2,-1,0
1532234405906,-6,0,-1,-1,-1,1,0,1
1532234405911,-4,1,-1,-1,-2,-1,-2,-2
1532234405916,-4,2,-1,0,-1,0,-2,0
1532234405921,-1,-1,1,-1,-1,-1,1,-2
1532234405926,-3,-1,-2,0,-1,0,-2,2
1532234405931,-1,-4,-2,-3,0,0,-2,-1
1532234405936,1,2,0,0,0,-1,-1,2
1532234405941,1,-1,0,0,0,-2,-1,0
1532234405946,1,5,0,-2,1,-2,0,-1
1532234405951,-1,-13,-1,-3,0,-1,0,-3
1532234405956,1,-2,-1,-1,-1,0,-1,-2
1532234405961,0,-2,-3,0,0,1,1,-3
1532234405966,2,1,-1,-1,-1,-1,0,0
1532234405971,-1,3,-1,-1,-1,0,1,0
1532234405976,2,0,1,-2,0,-3,1,0
1532234405981,3,-3,-1,-1,-1,0,0,-3
1532234405986,-1,-3,-2,-2,0,-1,-2,2
1532234405991,-2,1,-2,-1,-1,0,-1,-6
1532234405996,-4,1,-2,0,-1,1,-1,1
1532234406001,-6,1,-3,-1,-2,1,-1,-2
1532234406006,-8,-4,-1,-1,-2,1,0,0
1532234406011,-4,3,-1,-1,-1,0,1,3
1532234406016,-2,1,0,-1,0,-2,0,0
1532234406021,1,5,-2,-1,0,-2,-1,-1
1532234406026,2,-10,-2,-1,0,0,-2,-3
1532234406031,3,0,-2,1,-1,0,-2,-1
1532234406036,2,-1,-1,-2,-2,0,0,0
1532234406041,7,1,-2,-2,-1,-1,0,0
1532234406046,2,1,-1,-1,-1,-1,-1,-2
1532234406051,2,-3,0,-2,0,-1,-1,0
1532234406056,0,0,0,-1,-1,-2,0,-2
1532234406061,0,-4,0,-2,1,0,-2,-1
1532234406066,-1,1,0,0,-1,-2,-1,-1
1532234406071,0,-2,-1,0,-1,-1,0,-3
1532234406076,1,2,-1,-1,-2,-1,-2,0
1532234406081,-1,-4,0,-1,0,0,-2,1
1532234406086,-1,1,-1,-1,-1,-1,-2,0
1532234406091,-3,2,0,-1,-1,-1,0,-3
1532234406096,-3,-7,-2,-1,0,-1,0,0
1532234406101,1,3,-2,0,-1,0,-1,-1
1532234406106,-3,-1,0,0,-1,0,-1,0
1532234406111,-1,-1,-2,0,-1,-1,-1,-9
1532234406116,-1,3,0,0,-1,-2,0,3
1532234406121,0,-2,1,-1,-2,1,-1,-1
1532234406126,-1,-4,-1,0,0,-1,-1,-2
1532234406131,0,3,-1,-1,0,-2,0,1
1532234406136,0,0,-2,-2,-1,-1,-1,0
1532234406141,0,-4,-1,-1,0,0,-1,1
1532234406146,-1,0,0,0,-2,0,-1,0
1532234406151,-1,-2,0,0,-1,-1,0,1
1532234406156,0,1,-1,-1,-2,-1,1,-1
1532234406161,-2,-2,0,-1,-1,-1,0,-1
1532234406166,-1,-1,0,-1,0,-3,1,-2
1532234406171,-5,-4,-3,-1,-2,-1,-2,0
1532234406176,3,-4,-1,-2,-2,0,-1,-1
1532234406181,-2,0,-1,-1,-1,0,0,0
1532234406186,-2,0,-2,0,-1,-1,-1,-2
1532234406191,2,-3,-1,-1,0,0,1,0
1532234406196,1,5,1,-1,-2,0,-1,0
1532234406201,-3,-1,-1,0,-2,-3,-1,-1
1532234406206,0,-2,-2,-2,-1,-1,1,0
1532234406211,2,-3,0,0,-1,-1,-2,1
1532234406216,-1,-3,-1,-1,-3,-1,-1,-1
1532234406221,1,2,-2,1,1,-1,-1,2
1532234406226,-2,2,-1,-1,1,0,-1,-1
1532234406231,0,-1,-1,-2,-1,-2,0,2
1532234406236,-1,-1,0,-1,0,0,0,0
1532234406241,-3,-1,-1,0,0,-3,0,0
1532234406246,-1,-4,-2,-2,-3,-1,-2,-1
1532234406251,0,-2,-3,1,1,-1,-1,0
1532234406256,0,2,-1,-1,1,0,-2,0
1532234406261,-2,-3,-1,-2,-1,-1,-1,-3
1532234406266,1,2,-1,-1,0,0,-2,1
1532234406271,-1,-4,0,0,-2,0,-1,-1
1532234406276,-1,-2,-1,-1,0,-1,-1,0
1532234406281,1,1,-1,0,-1,-1,1,0
1532234406286,-2,-2,0,0,0,-1,0,-3
1532234406291,0,-1,0,-2,-1,-1,-1,1
1532234406296,-3,-3,-1,-1,-1,-1,0,0
1532234406301,3,6,2,-1,-2,0,0,-1
1532234406306,0,1,-1,-1,0,0,-1,1
1532234406311,1,2,-1,-2,-1,-1,-1,-2
1532234406316,-8,2,-2,-1,-1,-2,-1,-1
1532234406321,0,-4,-1,0,-2,-1,-1,2
1532234406326,-1,0,-1,0,-2,-1,0,-4
1532234406331,-1,-3,-1,-1,-1,1,-1,-1
1532234406336,0,0,1,0,0,-1,-1,-1
1532234406341,-1,-5,-1,-1,0,1,0,1
1532234406346,-1,-2,0,0,-1,-2,0,1
1532234406351,-1,0,-1,0,-1,-2,-1,0
1532234406356,0,-2,-1,-1,-2,-1,0,-1
1532234406361,-3,0,0,-1,1,-2,-2,-4
1532234406366,0,-1,-1,0,-2,-1,-2,-1
1532234406371,-1,0,-2,0,-3,-2,1,0
1532234406376,1,-2,0,-1,-1,-2,-1,0
1532234406381,0,-3,-1,1,-1,-1,-2,-2
1532234406386,-4,-6,0,-2,0,1,-1,0
1532234406391,2,2,0,-1,-1,-1,-1,-1
1532234406396,2,5,-1,0,-1,1,-2,0
1532234406401,-2,-3,-2,-2,0,-2,1,-1
1532234406406,0,0,-1,-1,-2,-4,0,0
1532234406411,-1,-2,1,-1,0,-1,-1,-1
1532234406416,0,-3,-1,-1,0,-1,-1,-1
1532234406421,2,0,1,0,-1,-1,0,-2
1532234406426,0,1,-1,-1,-2,0,0,1
1532234406431,-2,-2,-1,-1,-1,-2,0,0
1532234406436,0,1,-2,-1,-1,-2,-1,-2
1532234406441,-2,0,-3,-1,-2,-1,-2,-1
1532234406446,0,1,-1,-2,0,-2,0,0
1532234406451,-2,-2,-1,-1,-1,-1,0,-10
1532234406456,-1,3,-1,0,-1,-2,1,0
1532234406461,-3,-1,-1,-1,-1,1,0,0
1532234406466,1,-2,0,-1,-1,-2,-1,0
1532234406471,0,-1,-1,-2,-1,-1,-1,2
1532234406476,-1,-5,-2,0,0,-1,0,-2
1532234406481,0,1,-1,-1,0,-2,0,-3
1532234406486,0,3,-2,-1,-1,-1,0,-1
1532234406491,1,-1,0,-1,-1,0,-1,1
1532234406496,-3,-1,0,-3,-1,0,0,-1
1532234406501,-3,-2,0,0,-1,-2,-2,1
1532234406506,-3,-3,-1,-2,-2,-2,-1,-1
1532234406511,-1,-1,0,0,1,-1,-1,2
1532234406516,1,-3,-1,-2,0,0,0,-1
1532234406521,-1,0,-2,0,-2,1,0,-1
1532234406526,3,2,-1,0,0,0,-2,-2
1532234406531,-3,-5,-3,-1,-3,-1,-2,-1
1532234406536,0,-2,-1,-1,0,-1,-1,-1
1532234406541,1,-2,-2,-1,-2,-1,-2,0
1532234406546,-1,0,-1,0,0,0,0,-1
1532234406551,-3,2,0,1,0,-1,1,0
1532234406556,-1,1,-2,1,0,1,-1,1
1532234406561,-3,-5,-1,-2,-2,-1,-2,-3
1532234406566,-2,-4,-2,-1,0,-1,0,0
1532234406571,1,1,-1,-1,-1,1,-1,0
1532234406576,-2,-3,0,0,-2,0,0,0
1532234406581,1,1,0,-1,1,1,0,1
1532234406586,-2,-1,0,0,-2,0,-1,-1
1532234406591,-1,0,-2,-1,0,-2,-1,-1
1532234406596,-1,0,-2,0,-1,-1,-2,0
1532234406601,1,-1,-1,-1,1,-1,-1,1
1532234406606,-1,-1,-1,-1,0,0,0,-2
1532234406611,3,-2,1,-2,-1,-2,1,0
1532234406616,-1,2,-1,-1,-3,-2,-2,0
1532234406621,0,-1,0,0,-1,-1,-1,-2
1532234406626,-1,-1,-1,0,1,-2,1,0
1532234406631,-1,0,0,1,0,0,-1,-1
1532234406636,-2,-1,1,-1,-1,-1,0,-2
1532234406641,0,0,-2,-1,-1,0,0,-1
1532234406646,0,-1,-2,0,-1,-1,-1,-2
1532234406651,-1,0,-2,-1,-1,-2,0,1
1532234406656,0,-1,-1,-2,0,0,0,-1
1532234406661,-1,-1,-2,-2,-2,0,0,-1
1532234406666,-2,-2,-1,-2,-2,-1,-3,-1
1532234406671,-1,0,-2,1,-1,-1,-1,-2
1532234406676,-2,0,-1,-3,-1,-2,-1,-1
1532234406681,-2,-1,-1,0,0,-1,-1,-1
1532234406686,-1,0,-1,-1,-2,-1,-1,0
1532234406691,-3,-2,1,-1,-2,-1,-1,-1
1532234406696,-1,-2,-1,-1,-1,-3,-1,-2
1532234406701,1,4,0,0,-1,1,0,-1
1532234406706,-9,-3,-1,-4,-3,0,-2,-1
1532234406711,-7,-2,0,-1,0,0,0,-2
1532234406716,-1,-1,0,0,0,-1,-2,0
1532234406721,-8,-8,0,-1,-1,0,-1,-3
1532234406726,0,5,-1,1,1,0,-2,-1
1532234406731,3,0,0,0,0,0,1,2
1532234406736,1,-2,-1,0,-2,-1,0,-2
1532234406741,4,-1,-1,0,-1,-2,-1,2
1532234406746,6,0,-1,0,-1,-1,-1,1
1532234406751,2,0,-3,-1,0,-1,-2,-1
1532234406756,7,-1,0,0,0,1,-1,1
1532234406761,3,1,0,1,-1,-1,-1,0
1532234406766,1,-1,1,-1,-2,-2,-1,-2
1532234406771,-1,-1,-2,0,-2,-1,-1,-1
1532234406776,0,2,0,-1,-1,-1,0,1
1532234406781,-3,-8,-2,-1,-1,-4,-1,-2
1532234406786,0,1,-1,-1,0,-2,1,-1
1532234406791,0,-1,-1,0,1,0,-1,0
1532234406796,-2,-2,-1,-2,0,0,0,-1
1532234406801,-2,0,-1,-2,-2,0,-1,-3
1532234406806,0,-1,0,-1,0,-1,0,2
1532234406811,-3,-5,-2,-1,-1,0,-1,-2
1532234406816,2,2,-1,-1,-1,-1,1,-3
1532234406821,0,1,-1,-1,-1,-3,-1,1
1532234406826,1,-2,-1,0,-1,-1,0,-3
1532234406831,3,4,-1,-1,-1,-2,0,1
1532234406836,-4,0,-1,-2,-1,-1,-1,-3
1532234406841,1,6,-2,0,-1,1,-1,-1
1532234406846,-2,-8,0,-1,-1,0,-1,-2
1532234406851,-2,0,0,-2,-2,-1,-2,-1
1532234406856,0,0,-1,0,-2,-1,-1,1
1532234406861,1,3,0,-1,1,-2,-1,-1
1532234406866,-1,0,1,-2,-1,1,0,-3
1532234406871,2,0,-2,0,-1,1,-1,2
1532234406876,0,-3,-2,0,1,-2,3,0
1532234406881,-4,-3,-1,-1,1,0,1,-2
1532234406886,1,4,0,-1,0,-1,-1,0
1532234406891,-5,-2,-2,-1,0,-2,-1,-3
1532234406896,-3,0,-1,0,-2,0,-4,-2
1532234406901,0,-2,-1,1,-1,-1,-2,0
1532234406906,-7,-3,-3,0,-1,-1,-1,0
1532234406911,1,1,1,-1,-2,1,2,-1
1532234406916,0,3,-1,0,2,0,0,0
1532234406921,-1,-10,-2,-3,-1,-1,-1,0
1532234406926,-1,-2,-1,-1,-1,-3,-1,0
1532234406931,0,-1,0,-1,-1,-2,-1,-1
1532234406936,-1,-2,-2,-1,-1,-1,-1,0
1532234406941,-3,4,-2,-1,-2,0,0,-2
1532234406946,1,0,-2,0,1,1,-1,0
1532234406951,-1,0,-1,-1,2,-1,-2,-1
1532234406956,-2,-1,-1,-1,0,0,0,-1
1532234406961,0,-1,-1,1,0,0,-2,2
1532234406966,-6,-5,0,-1,-2,-2,-2,-1
1532234406971,1,0,0,0,-1,-2,-1,0
1532234406976,1,7,0,-1,-1,1,0,0
1532234406981,1,-5,-1,-2,-1,-1,-1,-2
1532234406986,-1,-3,-1,-1,-1,0,-1,-1
1532234406991,-2,-1,0,-1,0,-1,-1,-1
1532234406996,0,0,-1,-2,1,-1,-2,-1
1532234407001,-2,0,-1,-1,-2,-1,1,-2
1532234407006,-2,-2,0,-2,-1,0,-1,-2
1532234407011,-1,-4,-2,-1,0,-2,-2,-1
1532234407016,-1,-2,-2,-2,0,0,0,0
1532234407021,-1,0,1,-1,-1,-2,-1,0
1532234407026,0,-2,-1,-1,0,-2,0,1
1532234407031,0,1,0,1,1,0,1,-3
1532234407036,-1,-2,1,-1,-1,0,-1,-1
1532234407041,2,0,-1,-1,0,-2,-2,0
1532234407046,-2,2,-1,-1,0,0,-3,-1
1532234407051,-1,-1,0,-2,-1,0,-1,-1
1532234407056,1,-2,-2,1,-2,-1,2,0
1532234407061,0,4,0,-1,0,-2,0,-3
1532234407066,2,-3,0,-1,0,0,0,0
1532234407071,-1,0,-1,0,1,-1,-1,-1
1532234407076,1,-1,-2,0,-1,-1,-2,0
1532234407081,-4,-3,-2,-1,-2,-2,-3,0
1532234407086,0,0,0,1,1,-1,0,1
1532234407091,2,2,-2,-1,-2,0,-1,0
1532234407096,-2,-2,-1,-2,-2,-2,-2,-1
1532234407101,-3,-4,-1,-1,1,0,0,1
1532234407106,0,2,-2,-1,0,-2,0,0
1532234407111,-1,-1,1,0,-1,-2,0,0
1532234407116,-6,-3,-1,0,1,-3,-1,-1
1532234407121,1,-1,-2,-1,-1,-1,0,-2
1532234407126,0,-2,-2,-1,-2,0,-1,-3
1532234407131,-2,1,0,0,-3,-1,-2,1
1532234407136,0,2,-1,-1,-1,-2,-1,0
1532234407141,0,-2,-1,0,-1,-2,-2,-1
1532234407146,0,-3,-1,0,-2,0,0,0
1532234407151,-2,-2,-2,-2,-1,0,1,-1
1532234407156,-1,-2,0,0,-1,1,-1,-1
1532234407161,-4,-2,-2,0,-2,-2,0,-3
1532234407166,5,5,-2,-1,-2,-1,0,-1
1532234407171,-2,-3,-1,-1,-1,-1,-1,-1
1532234407176,-2,-2,0,-1,0,-2,0,-2
1532234407181,0,3,-1,-2,-2,-1,-1,-1
1532234407186,-1,-1,-1,-1,0,-2,-1,-2
1532234407191,-2,-2,0,0,-1,0,0,0
1532234407196,1,1,-1,-1,0,0,0,-2
1532234407201,1,-6,-2,-2,0,1,-1,0
1532234407206,-3,-1,0,0,-1,-1,-2,-1
1532234407211,-1,-2,-1,-1,0,-1,-2,0
1532234407216,1,0,0,-1,-2,-1,-1,0
1532234407221,-2,0,0,1,-1,-1,-1,2
1532234407226,-2,-2,0,0,-1,-1,-2,-2
1532234407231,0,-3,-1,0,-1,-1,-2,-2
1532234407236,1,-1,-1,-1,-2,0,0,1
1532234407241,3,4,-1,-1,-1,-1,0,0
1532234407246,-1,-2,-1,-3,0,0,1,0
1532234407251,-2,0,0,0,1,0,-1,-1
1532234407256,-3,-1,-1,0,-1,2,-1,-2
1532234407261,-2,2,-1,0,0,-2,0,-4
1532234407266,0,-1,-1,-1,-1,-1,-2,0
1532234407271,-2,4,-1,-1,-2,0,-2,-2
1532234407276,1,-3,-2,-2,-1,-1,-1,-1
1532234407281,0,-4,0,-1,-1,0,-1,-2
1532234407286,-1,3,0,0,-1,-2,-2,-2
1532234407291,-1,-1,0,-1,-1,-2,0,1
1532234407296,-1,0,-1,0,0,-1,-1,-1
1532234407301,-2,0,0,-2,-3,0,-1,-2
1532234407306,1,-4,-1,0,-1,1,-2,0
1532234407311,2,0,-1,-1,-2,0,-1,-1
1532234407316,0,-1,-2,0,0,-3,1,-1
1532234407321,0,-2,1,-1,0,-1,1,0
1532234407326,-2,-1,-3,-1,-1,0,-1,-1
1532234407331,-1,-2,-2,-3,0,-2,0,-1
1532234407336,-1,-2,0,-1,-3,-2,-1,-1
1532234407341,-1,0,-2,-2,-1,-1,0,0
1532234407346,-2,-1,-4,-2,-1,-2,0,-1
1532234407351,-3,5,0,0,0,-2,0,1
1532234407356,-3,-5,-1,0,0,0,-1,-4
1532234407361,1,0,-2,0,-1,0,-1,0
1532234407366,2,2,0,-1,-3,-2,1,-1
1532234407371,1,-3,-2,0,0,-1,-1,0
1532234407376,-1,-1,0,-2,0,0,-1,0
1532234407381,-3,2,1,0,1,-1,-2,0
1532234407386,0,1,0,-1,-1,0,-1,-1
1532234407391,0,-2,-1,-3,-1,-1,0,-1
1532234407396,0,-1,-2,-2,-1,-2,-1,-1
1532234407401,-1,-2,-2,0,-3,0,-1,-2
1532234407406,0,0,0,0,1,-2,-1,-2
1532234407411,-1,-1,0,0,1,0,-1,-1
1532234407416,-1,-1,-1,1,-1,-1,0,-2
1532234407421,1,1,-1,-2,-1,-1,1,0
1532234407426,-1,-1,0,1,-2,-1,0,-2
1532234407431,0,-3,-2,1,0,-1,-2,0
1532234407436,2,6,1,1,-2,-1,0,1
1532234407441,-1,-5,-1,-1,1,0,-2,0
1532234407446,-2,1,0,-2,0,0,1,0
1532234407451,-3,-3,-2,-1,-2,0,0,-3
1532234407456,5,6,1,-1,-1,-1,-1,2
1532234407461,-2,-2,-1,-2,0,-1,-1,-1
1532234407466,0,-4,-1,-2,-1,-1,-1,-1
1532234407471,1,3,-1,1,-1,0,-2,-2
1532234407476,-2,0,-1,-1,-2,-2,0,-1
1532234407481,-2,0,-1,0,-1,-3,-1,-2
1532234407486,-1,-3,-2,0,-1,-2,0,0
1532234407491,-3,-3,-1,-2,-1,-1,-1,-9
1532234407496,-1,-3,0,-2,0,-1,-1,-1
1532234407501,0,1,-1,0,1,-2,-1,-1
1532234407506,-1,5,0,-1,-2,-1,-1,0
1532234407511,3,-2,-2,-1,-1,0,0,0
1532234407516,-2,-4,-1,0,0,-2,-1,0
1532234407521,-2,-1,0,-4,0,-1,1,-1
1532234407526,1,1,-1,-1,-1,-1,0,-3
1532234407531,-2,-2,0,-1,0,-1,0,1
1532234407536,0,-3,0,-2,0,1,-1,-2
1532234407541,0,2,-1,1,0,-3,-1,0
1532234407546,-1,-4,-2,-1,-1,0,-2,-2
1532234407551,0,-1,0,-1,-1,-1,0,0
1532234407556,-2,-1,-2,-1,-1,-1,0,0
1532234407561,-3,-1,0,-1,-1,2,-3,0
1532234407566,0,2,-1,0,-1,1,-1,0
1532234407571,-2,-6,-2,0,0,-1,-1,-1
1532234407576,0,3,-1,-2,-1,1,-2,-1
1532234407581,2,-2,-2,-2,1,-1,0,-1
1532234407586,-6,2,1,0,0,-1,-1,-1
1532234407591,0,-5,-1,-2,0,-1,-1,3
1532234407596,-1,-2,-2,2,0,-1,-1,-1
1532234407601,-1,-3,-2,1,-2,0,-2,-2
1532234407606,1,-1,-1,-1,0,-2,0,0
1532234407611,-2,2,0,-1,-3,-3,-1,0
1532234407616,-2,-3,-1,-2,0,-2,0,0
1532234407621,-2,-2,0,-1,-2,-1,-1,-1
1532234407626,-1,-4,-2,-2,1,-2,-1,-2
1532234407631,-1,0,1,-1,-1,-1,-1,-1
1532234407636,-2,-1,0,-2,-1,0,0,2
1532234407641,0,2,-1,-1,-1,-1,0,-6
1532234407646,0,-3,-1,0,-1,-2,-1,-1
1532234407651,0,-2,-2,0,0,-1,-1,1
1532234407656,-4,8,0,0,-2,-2,-2,-2
1532234407661,1,-5,-2,-1,0,-2,0,0
1532234407666,-2,0,-1,-1,-1,0,0,-1
1532234407671,3,3,-2,-2,1,-2,1,-2
1532234407676,0,-2,-1,0,0,0,0,1
1532234407681,-1,-1,0,0,-3,0,1,0
1532234407686,-1,-3,-1,-1,-1,-3,-2,0
1532234407691,-2,3,-1,-2,1,-1,1,0
1532234407696,1,-1,-1,-1,0,-1,0,-1
1532234407701,0,-1,-2,-2,0,0,-1,-1
1532234407706,1,-2,-2,0,0,1,0,1
1532234407711,-2,0,0,0,-1,-2,-1,-1
1532234407716,-1,-3,-1,-2,-1,0,0,-2
1532234407721,-1,-2,-1,1,0,0,0,-1
1532234407726,-1,-1,-1,-2,0,-1,-1,-1
1532234407731,-1,-2,0,0,-1,1,0,-1
1532234407736,-1,-2,-1,-1,-1,-1,0,0
1532234407741,0,6,0,-1,1,0,0,1
1532234407746,-3,-7,-2,0,-1,0,-1,-1
1532234407751,-2,-1,0,0,-1,0,-1,-1
1532234407756,3,1,-1,0,-1,-1,-1,-2
1532234407761,0,3,1,-1,-1,-2,-1,-1
1532234407766,0,0,1,-2,0,-1,-1,1
1532234407771,-1,-3,0,-2,-2,-2,0,0
1532234407776,-1,-3,-1,-2,-1,-1,-1,0
1532234407781,0,-3,1,-1,-2,-1,-1,-1
1532234407786,1,2,-1,-1,0,-1,2,-2
1532234407791,-1,0,-3,-1,1,-1,-1,0
1532234407796,-1,-1,0,-2,-1,-1,2,-1
1532234407801,-1,-2,-1,0,-1,-1,-1,0
1532234407806,0,0,-2,0,-2,-1,-1,-1
1532234407811,-1,1,-2,0,-2,-1,-1,0
1532234407816,-2,-3,0,0,0,0,1,-3
1532234407821,-1,1,1,0,1,-1,0,-1
1532234407826,-6,-6,0,-1,-1,-1,0,-1
1532234407831,2,0,-2,-1,-1,0,-1,-2
1532234407836,-1,-2,-4,-1,-2,-2,-1,-2
1532234407841,0,1,-1,-2,-3,0,0,2
1532234407846,-3,1,0,0,-1,1,0,-1
1532234407851,-1,-2,-1,0,0,0,-2,-1
1532234407856,-1,1,1,0,-2,0,-1,-1
1532234407861,0,-2,-2,-2,-1,-1,0,-1
1532234407866,2,0,-1,-1,-1,-1,1,-3
1532234407871,-2,-3,-2,-1,0,-1,-1,0
1532234407876,0,0,0,0,0,0,-1,0
1532234407881,-2,-3,0,0,-2,-1,0,-2
1532234407886,1,0,0,-1,-1,0,0,0
1532234407891,1,-1,-2,-1,-2,0,0,1
1532234407896,-2,-3,-1,0,0,0,-2,0
1532234407901,-2,-7,-1,-1,-1,-1,-1,-1
1532234407906,-4,-1,-1,-1,-1,-3,-1,-1
1532234407911,1,0,-1,-1,-1,-2,2,-1
1532234407916,2,-1,-2,0,1,-1,0,2
1532234407921,1,0,0,-1,1,2,-1,0
1532234407926,0,-1,0,1,0,1,-2,0
1532234407931,-2,-2,0,0,-1,-1,0,0
1532234407936,-2,0,-2,-1,-3,-3,1,-2
1532234407941,-2,1,0,0,0,-2,-1,0
1532234407946,0,1,0,-2,0,-1,-2,0
1532234407951,0,1,1,1,-1,-2,-2,-1
1532234407956,-1,-2,0,0,-2,0,-1,-1
1532234407961,-1,2,-1,0,0,-2,1,-1
1532234407966,-2,-4,-1,-2,-1,0,0,0
1532234407971,3,6,-2,0,-2,0,-1,-3
1532234407976,-3,-11,0,-1,-1,-2,-1,0
1532234407981,0,-1,-1,-1,-2,-1,-2,2
1532234407986,-2,1,-2,-1,-1,-1,-1,-1
1532234407991,-2,-5,-2,-1,-1,0,-2,-2
1532234407996,0,2,0,-2,0,-2,-1,-1
1532234408001,-1,-1,-2,-1,0,0,-2,0
1532234408006,0,-1,-2,0,0,0,0,-1
1532234408011,-2,-1,0,-1,-1,0,0,3
1532234408016,-2,1,-1,0,-1,-1,-2,-9
1532234408021,-1,-1,-2,-1,-1,-1,0,-1
1532234408026,0,2,-1,-2,-1,0,0,0
1532234408031,-1,-1,0,-1,-1,-1,0,2
1532234408036,-1,1,-1,-1,0,0,-1,2
1532234408041,-3,-4,0,0,-1,0,-2,-1
1532234408046,3,2,-1,0,1,0,1,-1
1532234408051,-1,3,-1,-1,0,1,0,-2
1532234408056,-5,-2,-1,0,-2,-1,-2,1
1532234408061,2,1,0,-1,-2,-1,0,-1
1532234408066,0,-4,0,-1,-2,-3,-1,-1
1532234408071,-1,-1,0,-3,-1,0,-2,-2
1532234408076,-1,0,0,0,1,1,0,1
1532234408081,-3,-2,-1,-1,-2,-1,0,-1
1532234408086,-1,1,0,0,-1,0,-1,-1
1532234408091,-1,-3,-2,0,-1,-2,-1,-2
1532234408096,-2,0,-2,-1,0,0,-1,0
1532234408101,-1,-2,-1,-1,0,0,-2,0
1532234408106,-1,0,0,-1,-1,-2,1,-1
1532234408111,-1,-2,1,0,-1,-2,-1,-1
1532234408116,0,-4,-2,-1,0,0,0,1
1532234408121,2,3,-3,-1,-1,-1,-1,-2
1532234408126,-1,2,-2,0,-1,1,-1,0
1532234408131,-3,-9,-1,0,-2,-2,-2,0
1532234408136,-2,2,-1,0,-1,-1,1,-1
1532234408141,-5,-2,-1,-1,0,0,0,-2
1532234408146,2,2,1,0,1,0,-2,-1
1532234408151,1,1,0,-2,0,-1,1,0
1532234408156,1,3,0,0,-1,-1,-1,3
1532234408161,-1,-5,-2,0,-1,0,0,-2
1532234408166,-2,-4,-1,-2,0,-2,-2,-1
1532234408171,-3,0,-2,-2,-2,0,-1,-2
1532234408176,2,0,1,-2,-1,-1,0,-1
1532234408181,1,1,0,-2,-2,-1,-2,0
1532234408186,-1,-1,-1,0,-1,-1,-1,-2
1532234408191,-1,0,-1,2,-1,0,-2,1
1532234408196,-3,-3,0,-3,-1,-1,-2,-3
1532234408201,2,2,-1,-1,0,-1,-2,0
1532234408206,-1,3,1,-2,0,0,-2,-1
1532234408211,-1,-3,-3,-1,-1,-2,-2,-1
1532234408216,2,0,-1,0,2,0,0,0
1532234408221,-6,0,-2,-2,-2,-1,-1,-2
1532234408226,0,-1,-1,-1,0,-1,-1,0
1532234408231,1,0,-2,1,0,1,0,-2
1532234408236,0,-3,-2,0,-1,-2,0,-2
1532234408241,2,1,0,-1,-1,-2,-1,0
1532234408246,-1,-4,-2,-1,0,-1,-1,0
1532234408251,-2,0,0,0,-2,0,-1,0
1532234408256,0,0,-1,0,-2,-1,0,-3
1532234408261,0,-4,-1,-1,-1,-1,-1,-1
1532234408266,-2,0,-3,1,-2,-1,-2,0
1532234408271,1,-2,-1,-1,1,0,0,-1
1532234408276,-1,0,0,-3,0,-1,-1,3
1532234408281,-2,-2,0,-1,1,0,-2,-8
1532234408286,0,5,-2,-1,-1,-2,0,-2
1532234408291,1,-3,0,-1,-1,-1,1,1
1532234408296,-6,5,-1,-1,-1,-1,-1,0
1532234408301,-1,-1,1,0,-1,-1,0,1
1532234408306,-1,-2,-3,0,-1,-1,-1,-1
1532234408311,-2,-1,-1,0,-1,0,0,-3
1532234408316,0,-1,0,1,0,1,-1,-1
1532234408321,0,-1,0,0,0,-1,1,1
1532234408326,0,-4,-1,0,-1,1,0,-1
1532234408331,0,-2,0,-2,0,-1,-2,1
1532234408336,0,-1,-1,-1,-1,-2,-1,-1
1532234408341,-1,2,-1,1,-2,0,0,1
1532234408346,-2,-4,0,0,0,-1,-1,-1
1532234408351,-2,1,-1,-2,-1,-3,-1,0
1532234408356,1,-2,-1,-1,0,0,-2,-1
1532234408361,-2,-5,-3,-1,-1,0,-1,0
1532234408366,-2,-2,-2,-1,-1,-1,0,0
1532234408371,0,3,1,1,0,0,-1,-1
1532234408376,0,-1,0,-1,-1,-1,-2,1
1532234408381,0,-1,-1,0,0,-2,2,0
1532234408386,-2,-2,-1,0,-1,-1,1,0
1532234408391,-1,1,-1,0,0,-1,1,-1
1532234408396,1,-1,-1,-2,-1,0,-3,-2
1532234408401,-1,-1,0,-1,-1,1,0,0
1532234408406,1,-1,-1,0,0,-2,-1,0
1532234408411,0,0,-1,0,-1,0,-2,1
1532234408416,1,0,0,1,0,-1,1,1
1532234408421,-3,-2,0,0,-2,0,-1,-2
1532234408426,0,-1,-1,-2,-1,-3,-1,-2
1532234408431,-1,-3,-1,-2,-1,-3,-1,-2
1532234408436,2,2,-1,0,-3,-1,0,1
1532234408441,0,-2,-1,-1,0,-2,-1,0
1532234408446,1,-4,-1,0,-1,0,0,-3
1532234408451,0,0,-4,-1,-1,-1,0,0
1532234408456,-5,-7,-3,-1,-2,0,-2,-4
1532234408461,1,1,0,0,0,1,-1,1
1532234408466,-1,0,0,-1,-1,0,-2,1
1532234408471,-2,-3,-2,-2,-1,-1,-2,-2
1532234408476,0,-1,-1,0,-1,0,1,-1
1532234408481,1,0,-2,0,-2,-2,-1,-2
1532234408486,-2,-3,-2,-1,1,1,0,-1
1532234408491,1,3,-1,-1,-1,0,-1,1
1532234408496,1,0,-1,0,0,-3,-1,-1
1532234408501,0,-2,0,0,-1,1,-1,0
1532234408506,-1,1,-1,-1,0,0,-3,0
1532234408511,-1,-1,0,0,-2,-1,-2,-2
1532234408516,-2,-2,0,-2,1,0,-1,-3
1532234408521,-2,0,-2,-2,0,-1,-1,-2
1532234408526,-1,-1,-1,-2,-2,-1,-1,-1
1532234408531,0,-2,0,0,0,0,0,-2
1532234408536,-1,-1,-2,-3,-2,-2,0,1
1532234408541,-2,0,-1,0,0,-1,-1,-1
1532234408546,-2,1,0,-2,-2,-1,-1,-1
1532234408551,-1,-3,-2,-1,0,0,0,-1
1532234408556,0,1,-1,-1,-1,1,0,-2
1532234408561,-2,0,-2,-1,-2,-1,-2,0
1532234408566,0,-1,0,2,-2,-1,-1,-1
1532234408571,0,2,-1,-1,0,-2,1,0
1532234408576,-2,-3,-2,-1,-1,0,-1,-2
1532234408581,1,-1,-2,-1,-2,-1,0,-2
1532234408586,1,-1,1,-1,-1,-2,0,0
1532234408591,-4,-4,0,-1,0,0,0,-2
1532234408596,0,-3,-1,-1,-1,-2,-2,0
1532234408601,0,-2,0,-2,-2,-2,0,-2
1532234408606,0,-2,-1,-1,-1,1,-1,-2
1532234408611,0,1,1,-1,-1,-1,0,1
1532234408616,1,4,-1,-1,-1,1,-2,-8
1532234408621,0,-2,-2,-1,0,-1,0,0
1532234408626,-1,2,1,-1,-1,-1,-1,0
1532234408631,-5,-3,-1,-3,0,-1,0,-2
1532234408636,-1,-1,0,0,0,0,-1,1
1532234408641,-1,0,0,-1,0,0,0,-1
1532234408646,0,-2,-2,-1,0,0,-2,-1
1532234408651,-4,2,-3,-2,-1,-2,-1,-1
1532234408656,-1,0,1,-1,-1,0,-1,1
1532234408661,-2,-7,-1,1,0,-1,-2,-2
1532234408666,-1,-2,0,1,-1,0,1,1
1532234408671,2,1,-1,-1,-2,1,-2,0
1532234408676,1,-2,-2,-1,-1,0,-2,1
1532234408681,-2,1,-2,-1,-1,-1,-1,0
1532234408686,-3,-4,0,-1,-1,0,-3,0
1532234408691,3,2,0,1,-1,-2,-2,-1
1532234408696,-2,-1,-1,-2,0,-1,1,-2
1532234408701,0,-1,-2,0,0,1,0,0
1532234408706,-3,-2,-1,0,-1,-1,0,0
1532234408711,0,-1,-1,0,-1,1,-1,-1
1532234408716,0,1,-1,-2,-2,-2,-2,2
1532234408721,-2,-1,-2,-1,-1,-1,0,-1
1532234408726,0,0,-1,-1,-1,0,0,-2
1532234408731,-2,-2,-1,0,-2,-2,-1,1
1532234408736,-2,2,0,-1,0,-1,0,-3
1532234408741,0,-10,-1,0,-1,-1,-3,0
1532234408746,0,-1,-1,-1,0,0,0,1
1532234408751,0,-4,-1,-1,0,0,-1,-1
1532234408756,4,0,-2,-2,-1,-1,-1,2
1532234408761,-2,4,-1,-1,1,-1,0,-2
1532234408766,-1,-1,-2,0,-1,-1,0,-1
1532234408771,2,-1,0,0,-1,0,0,1
1532234408776,-1,-2,-2,-1,-2,0,-2,0
1532234408781,0,2,-1,0,0,0,-1,-1
1532234408786,0,0,0,-1,-1,0,0,-2
1532234408791,-4,-3,0,-1,0,0,-1,-1
1532234408796,-2,-1,-1,1,0,-1,-3,-1
1532234408801,-1,1,1,-1,-2,-1,0,-3
1532234408806,-1,-1,-2,2,-1,0,-1,0
1532234408811,0,0,-1,0,-1,0,-1,-3
1532234408816,1,-4,1,-2,-1,0,1,0
1532234408821,-5,-2,-1,0,-2,-1,-1,0
1532234408826,-1,-1,1,-3,-1,1,-1,-1
1532234408831,-1,-1,-2,0,0,0,0,-1
1532234408836,-4,-2,0,1,-1,0,-1,2
1532234408841,2,2,0,-2,-2,-2,-1,-2
1532234408846,1,1,-1,-1,-2,-2,0,-1
1532234408851,-1,0,-1,0,-1,0,1,3
1532234408856,-1,-1,0,-2,-2,-1,-2,-7
1532234408861,0,0,0,-2,-1,0,-1,-1
1532234408866,-3,2,-1,1,-1,0,-1,0
1532234408871,0,1,-1,-1,-2,-1,0,0
1532234408876,-3,-1,0,2,-1,-1,1,0
1532234408881,0,1,-1,-1,-1,-1,-1,-1
1532234408886,-3,-2,0,-2,-2,-1,-2,-1
1532234408891,0,-1,-1,-1,0,-3,-2,-3
1532234408896,-1,-3,-1,-2,0,1,-1,1
1532234408901,-6,3,1,-1,-1,-1,-1,-1
1532234408906,-1,-9,-2,0,-1,-1,-2,-1
1532234408911,3,2,-1,-2,0,-1,-1,-2
1532234408916,-2,-1,-2,-2,-1,0,-2,1
1532234408921,1,-1,-1,0,-2,2,0,1
1532234408926,-2,0,-2,-1,0,1,-1,-1
1532234408931,-2,-2,0,0,1,-1,-1,-2
1532234408936,1,-2,-3,0,0,-1,0,0
1532234408941,1,1,-2,-1,-1,-1,-1,1
1532234408946,0,-1,0,-1,-1,-2,0,-1
1532234408951,-1,0,0,-1,-1,0,2,-1
1532234408956,-1,2,2,0,0,0,0,0
1532234408961,-1,-3,-2,0,0,-1,1,1
1532234408966,-1,3,-2,1,-1,-1,-1,-1
1532234408971,-2,0,-2,-2,0,-1,-2,-1
1532234408976,-1,0,0,-2,-3,-1,-1,-3
1532234408981,-2,-1,2,0,0,-2,-2,2
1532234408986,3,0,0,0,-1,0,-1,-9
1532234408991,-8,-4,-1,-1,-2,0,-1,-1
1532234408996,-2,1,-2,-1,1,-2,0,0
1532234409001,1,-2,-1,-1,0,-2,1,0
1532234409006,1,1,0,0,2,-1,-1,1
1532234409011,2,-2,0,0,-1,-1,-1,-1
1532234409016,-1,-2,0,-2,-2,-1,1,-1
1532234409021,-1,1,0,0,-2,-1,-2,0
1532234409026,-1,-2,-1,-2,0,-1,-1,0
1532234409031,2,1,0,-1,-2,0,1,-1
1532234409036,0,0,-1,0,0,-2,0,1
1532234409041,-1,0,0,-1,-2,-1,-1,-2
1532234409046,-1,-2,-3,-1,-2,-1,0,-1
1532234409051,0,-2,-1,-2,-2,0,0,0
1532234409056,-1,-2,0,-1,0,1,-2,-1
1532234409061,0,-4,-2,-1,0,-1,0,-2
1532234409066,-2,-1,0,-2,-1,-1,-2,-1
1532234409071,1,-1,-1,-1,0,-1,-1,-1
1532234409076,0,0,0,-2,-2,-1,-3,0
1532234409081,0,1,0,-1,1,0,0,-1
1532234409086,-1,1,0,-2,-1,-2,1,1
1532234409091,-1,-2,-1,-2,-2,-2,-1,-2
1532234409096,6,-1,-2,-1,0,-2,-1,-1
1532234409101,-4,-2,-2,-2,-1,0,-1,-2
1532234409106,-1,-2,0,-2,-1,-1,0,1
1532234409111,-1,1,-2,0,0,-3,0,0
1532234409116,0,6,-1,-1,-2,-2,0,-1
1532234409121,1,-6,-1,-1,-1,-1,-2,0
1532234409126,2,2,-1,0,-1,-1,-1,0
1532234409131,-2,-3,0,-1,0,0,-2,-2
1532234409136,-2,-1,-1,0,0,1,1,-1
1532234409141,-1,-1,0,-1,0,-1,-1,-2
1532234409146,-3,-2,-1,-1,-1,0,-3,1
1532234409151,0,1,-1,0,0,-2,-2,1
1532234409156,-2,-3,-1,-2,-1,-1,-2,-2
1532234409161,-1,-3,-1,-1,-1,-2,1,2
1532234409166,0,0,0,-2,-1,1,0,-1
1532234409171,3,0,1,-1,-1,0,1,-1
1532234409176,-3,0,1,-1,0,-2,0,0
1532234409181,0,-2,-2,-1,0,0,-1,1
1532234409186,-4,0,-1,-1,-1,-1,1,-10
1532234409191,-1,5,-1,-1,-1,0,-1,-3
1532234409196,-3,-11,-4,-1,-1,-1,-1,-2
1532234409201,-1,0,-1,0,1,-1,-1,-2
1532234409206,2,5,-2,-1,-2,-3,-1,2
1532234409211,-2,0,-1,-1,0,-2,-1,0
1532234409216,0,1,-2,-1,0,0,-1,-2
1532234409221,-1,-2,-2,1,-2,1,-2,-1
1532234409226,-1,-6,-1,0,-2,-2,-1,0
1532234409231,1,2,-1,-1,0,-1,0,0
1532234409236,-2,1,-2,-1,-2,0,0,1
1532234409241,-1,1,-2,-1,-1,-1,1,-2
1532234409246,-1,0,0,0,-1,-1,-1,0
1532234409251,-6,-4,-2,-1,-1,-1,-2,-1
1532234409256,1,-1,0,1,-2,0,-1,-1
1532234409261,2,1,-1,-1,0,-1,-1,0
1532234409266,-2,-2,-1,-1,0,0,-1,0
1532234409271,-2,2,1,0,0,0,0,0
1532234409276,0,-8,-1,-1,-1,-1,0,-2
1532234409281,-1,-1,-1,-1,-2,-2,-1,-3
1532234409286,1,0,-1,1,0,0,-2,3
1532234409291,1,-1,-1,-1,-4,0,-1,-1
1532234409296,-3,3,0,-1,-1,1,-2,0
1532234409301,-1,-3,-1,-1,-2,0,0,-1
1532234409306,3,2,-1,-2,0,-2,-1,2
1532234409311,-2,-3,-4,-2,-1,-1,-2,-7
1532234409316,0,0,-2,-2,-1,-2,0,-1
1532234409321,-1,-1,0,0,0,-2,-1,-2
1532234409326,1,-2,-1,1,0,-1,1,0
1532234409331,-6,-4,-1,-1,-1,0,0,2
1532234409336,-1,2,-1,0,-1,-1,-1,-1
1532234409341,-3,0,-1,0,-1,0,-1,-2
1532234409346,-2,-1,-1,-1,-1,-2,-1,-3
1532234409351,3,-1,0,0,-1,-1,1,0
1532234409356,0,0,0,-2,-2,-1,-1,-1
1532234409361,-1,-1,-3,-2,-1,-2,0,-1
1532234409366,-3,-4,0,0,0,0,0,-1
1532234409371,-1,0,1,-1,-1,-1,-1,-1
1532234409376,1,-1,-3,1,1,-2,-1,1
1532234409381,0,1,-1,-1,-1,1,1,0
1532234409386,-2,-4,0,-2,-1,0,0,-1
1532234409391,1,-1,-2,0,0,-1,-2,1
1532234409396,-1,1,-1,-1,0,-1,-1,-1
1532234409401,2,0,-1,-1,-2,0,-1,-1
1532234409406,-3,-2,-1,1,-1,1,-2,0
1532234409411,-1,-2,-1,-1,-2,1,-2,0
1532234409416,0,0,-1,-1,-1,-1,-1,-1
1532234409421,0,0,0,-1,-2,-3,-3,2
1532234409426,-1,-1,-2,-1,0,-2,-2,-8
1532234409431,-2,-10,-1,-1,-2,-2,0,0
1532234409436,-2,-3,-1,1,0,-2,-1,1
1532234409441,0,-1,0,-1,0,0,0,0
1532234409446,-1,1,-1,-1,-1,-2,1,1
1532234409451,-2,0,0,0,0,-1,-1,0
1532234409456,-1,1,0,0,1,-1,-1,-2
1532234409461,-2,-1,-1,-2,-1,1,0,0
1532234409466,-1,-2,-2,1,-1,-1,-1,1
1532234409471,1,2,-1,-1,-1,-1,1,-2
1532234409476,0,0,-2,0,-1,-2,-2,2
1532234409481,-1,2,-1,0,0,1,-3,-1
1532234409486,1,1,0,-2,-1,1,0,-1
1532234409491,4,-3,-1,-1,-1,1,0,1
1532234409496,1,-3,1,-1,0,0,2,-2
1532234409501,3,-2,-2,-1,0,-1,0,-1
1532234409506,1,4,-1,-1,-1,-2,-1,-1
1532234409511,-3,-4,-1,-2,0,-2,-2,-2
1532234409516,-2,2,0,-2,0,1,0,-1
1532234409521,-3,-1,-2,1,-1,-1,-1,-3
1532234409526,-4,0,-1,-2,-1,-1,-1,-1
1532234409531,0,0,-1,-1,-1,-1,0,0
1532234409536,2,-2,-1,0,-1,-1,-2,-1
1532234409541,2,1,2,0,0,-2,-3,0
1532234409546,0,-5,-3,-1,-1,0,-1,-2
1532234409551,-2,-1,0,-1,-1,0,1,-1
1532234409556,-1,-2,-1,1,-1,-1,1,2
1532234409561,-7,0,-1,0,-1,0,-2,-10
1532234409566,-2,0,-1,0,0,-1,-1,0
1532234409571,2,2,-1,-1,0,0,-1,0
1532234409576,1,-1,-1,-1,-1,0,-1,1
1532234409581,-3,-12,-2,-1,-1,-1,-1,1
1532234409586,-2,-1,-1,-2,-2,-1,-2,-1
1532234409591,-2,-3,-1,-1,-1,-1,-1,-2
1532234409596,-2,-1,-2,-1,-1,0,0,-2
1532234409601,1,5,1,-1,-1,0,1,0
1532234409606,-2,-1,-2,-1,-2,0,-1,-3
1532234409611,1,-3,1,-1,-1,-1,-1,1
1532234409616,-3,1,0,0,1,-1,-1,-2
1532234409621,0,0,-1,0,-1,-1,-1,1
1532234409626,-1,-2,-2,-3,-1,0,-1,-1
1532234409631,1,1,-1,-1,0,0,-1,-1
1532234409636,4,-1,0,-1,-1,0,0,-2
1532234409641,-2,1,-1,-1,-1,-2,-1,0
1532234409646,1,-2,0,-1,2,0,-2,0
1532234409651,-3,-1,-2,1,-1,0,-1,-1
1532234409656,-1,0,1,-1,-1,0,0,-1
1532234409661,0,2,0,0,-1,1,-1,1
1532234409666,-1,-10,-2,1,-2,-2,1,0
1532234409671,-3,-1,-1,0,-1,-1,-1,0
1532234409676,0,-2,-3,-1,-2,-1,-1,-1
1532234409681,0,-1,-1,0,0,0,-1,-2
1532234409686,1,5,1,-1,-1,0,-2,0
1532234409691,-1,-1,1,-1,0,0,-1,-1
1532234409696,-1,-1,0,-2,-3,-2,-1,1
1532234409701,0,-1,-1,0,-2,-1,1,-1
1532234409706,0,1,1,-1,-1,0,-1,-1
1532234409711,0,-2,0,0,-1,-2,0,-1
1532234409716,-1,0,0,-2,-1,-1,-1,1
1532234409721,-1,-2,0,0,0,0,-1,-2
1532234409726,1,1,0,-1,-2,-1,0,-1
1532234409731,0,-1,-2,-1,-1,0,1,-1
1532234409736,-1,-2,-1,-2,-2,0,0,-1
1532234409741,-3,-1,-2,-1,0,0,0,1
1532234409746,1,1,-1,-1,0,-1,-2,-1
1532234409751,-1,-1,-1,-2,0,-1,0,-1
1532234409756,1,2,-3,-1,-2,-1,-2,0
1532234409761,0,-9,-1,-1,0,-2,0,0
1532234409766,-1,2,0,0,-1,-1,1,2
1532234409771,0,0,0,-2,-1,-2,0,-2
1532234409776,1,-1,-2,-1,0,-1,-1,0
1532234409781,1,3,-2,-1,-1,-2,-1,0
1532234409786,-1,0,-2,1,0,-2,-2,-2
1532234409791,0,-4,-2,0,0,2,-1,0
1532234409796,-2,0,-1,0,-1,-2,-1,-1
1532234409801,-1,-1,1,-2,-1,0,-2,-2
1532234409806,1,-2,-1,-1,-1,0,-1,-1
1532234409811,2,1,-1,-1,-2,-2,-1,-3
1532234409816,-2,-1,-2,0,1,0,-1,-3
1532234409821,1,1,0,0,1,-2,-1,-2
1532234409826,-8,-2,-1,-2,-1,-2,0,-2
1532234409831,2,1,1,0,-1,-1,1,-1
1532234409836,0,-1,1,0,-1,-1,0,-1
1532234409841,-2,1,0,-1,-3,0,-2,-1
1532234409846,-2,2,0,1,-1,-2,0,-2
1532234409851,-3,-9,-1,-2,-1,-1,-2,-1
1532234409856,-2,-3,0,1,1,-3,-1,1
1532234409861,1,1,-2,-2,-1,0,0,4
1532234409866,0,2,-3,-2,-1,-1,-2,-9
1532234409871,-1,2,-1,0,-1,-2,-1,0
1532234409876,1,0,-1,-2,-2,-1,-1,-1
1532234409881,0,0,0,-1,-1,-1,0,-1
1532234409886,1,3,-1,0,0,0,0,2
1532234409891,0,2,-2,0,-1,0,-1,-1
1532234409896,-3,-4,-1,1,-1,0,0,-1
1532234409901,2,-3,-1,-1,2,-2,-1,-1
1532234409906,-2,-5,-1,0,-1,0,-2,0
1532234409911,2,1,1,-1,-1,-1,0,-1
1532234409916,-2,-1,0,0,-1,-2,-2,-1
1532234409921,0,-1,-2,-1,0,-1,1,0
1532234409926,0,-3,-3,0,-1,-1,0,1
1532234409931,-4,-8,-2,-1,0,-1,0,-2
1532234409936,2,-1,1,-1,1,1,-1,0
1532234409941,-2,0,-1,-1,1,-2,-1,-1
1532234409946,-1,-1,0,-2,0,0,-2,-2
1532234409951,-1,2,0,0,-1,0,-1,0
1532234409956,-1,1,1,-1,0,-2,0,-2
1532234409961,-3,-2,-1,0,0,0,0,-2
1532234409966,-1,0,0,-1,-1,-2,0,5
1532234409971,-3,-1,-2,-1,1,0,-3,-7
1532234409976,-1,-3,0,-1,-2,0,0,-2
1532234409981,4,-1,0,-1,0,-1,0,0
1532234409986,-1,3,0,-1,-1,-1,-1,0
1532234409991,-2,0,-1,0,0,0,0,0
1532234409996,-1,-1,-1,0,-1,-1,-2,-1
1532234410001,-3,0,0,-1,-1,-1,0,-2
1532234410006,0,-4,-1,-1,-3,-3,0,-1
1532234410011,0,0,-2,-1,0,-1,-3,0
1532234410016,-2,1,-2,-1,0,1,-1,-2
1532234410021,1,-9,-1,-1,-3,-3,0,-1
1532234410026,1,-3,0,0,-1,1,-1,-1
1532234410031,1,-1,1,-1,-1,-3,-1,2
1532234410036,-2,-1,-2,-2,-1,0,-1,0
1532234410041,-1,0,-2,1,0,0,-1,-1
1532234410046,-2,-1,1,-2,-1,-1,1,-1
1532234410051,-2,-1,-1,2,-1,-1,1,0
1532234410056,0,0,0,-1,0,-1,-1,-1
1532234410061,-1,2,-1,-1,-1,0,-2,-1
1532234410066,1,-2,-2,-1,0,-1,-2,-3
1532234410071,-6,1,-2,-2,-1,0,-1,0
1532234410076,-1,-3,-1,-1,-2,-1,-1,-1
1532234410081,-1,3,0,0,-2,0,-1,-2
1532234410086,-1,0,-2,-1,0,0,-1,1
1532234410091,1,1,1,-2,-1,-1,-1,0
1532234410096,-1,-11,-2,0,-1,0,1,-1
1532234410101,-2,-2,-1,-2,-2,0,0,0
1532234410106,-1,-1,0,0,0,-2,1,3
1532234410111,-1,-2,0,0,-2,0,0,-9
1532234410116,0,2,0,-2,-2,1,-2,-2
1532234410121,0,1,-2,-2,-1,-2,-2,0
1532234410126,-1,0,-1,-3,1,-1,0,-1
1532234410131,0,-1,-2,-3,0,0,-1,2
1532234410136,0,0,0,-1,-1,-2,-1,0
1532234410141,-1,-1,0,0,0,-2,0,-2
1532234410146,0,0,1,-1,-1,0,-1,-2
1532234410151,-3,-3,-1,-1,-1,-2,-1,3
1532234410156,3,2,-2,0,-1,0,0,0
1532234410161,-2,-1,-1,1,0,-2,0,0
1532234410166,-1,-2,-1,0,-2,-1,0,-2
1532234410171,1,-2,0,0,0,-1,-1,-1
1532234410176,-2,3,-1,0,0,-3,-1,0
1532234410181,-1,3,-1,-1,-2,-1,-2,0
1532234410186,0,0,-1,-2,-1,1,0,-2
1532234410191,0,0,-2,0,-1,0,-1,-1
1532234410196,-1,0,0,0,-1,-2,0,-2
1532234410201,-1,-3,0,1,-1,0,0,-2
1532234410206,-1,-2,-1,0,-2,-1,-1,-2
1532234410211,1,-1,-1,-2,-2,0,-1,5
1532234410216,0,-1,-2,-2,-1,-1,-1,-6
1532234410221,1,-3,0,-2,-1,0,0,0
1532234410226,0,-3,-1,0,-1,-2,1,0
1532234410231,-4,-2,-1,-2,0,-1,0,0
1532234410236,1,-1,0,-1,-1,0,-1,1
1532234410241,-1,-2,-1,-2,1,-1,-1,-1
1532234410246,0,-1,-1,0,0,-1,-4,-2
1532234410251,1,-3,-2,0,0,-1,1,-2
1532234410256,-1,-1,1,-2,-1,0,0,-1
1532234410261,-1,6,0,-1,0,-1,0,-2
1532234410266,-1,-7,-1,-2,0,-1,-1,1
1532234410271,-1,-5,0,0,-1,0,-1,-2
1532234410276,-1,6,-1,-1,-1,-1,-2,1
1532234410281,-1,-2,-1,0,0,-1,-2,-2
1532234410286,3,3,1,-1,-1,0,-1,0
1532234410291,0,0,1,-1,0,-1,1,1
1532234410296,-3,-6,-1,0,-1,0,0,0
1532234410301,-1,-1,-1,0,-2,-2,-1,0
1532234410306,0,0,1,-1,-1,-2,-2,-2
1532234410311,1,-1,-1,-3,-1,-2,-1,0
1532234410316,0,0,-1,0,-1,-1,-1,3
1532234410321,-2,-2,-1,-1,0,1,-2,-9
1532234410326,-1,2,-3,-3,-1,-1,-2,-1
1532234410331,0,2,-2,1,-1,-1,-2,-1
1532234410336,-1,0,-1,0,0,-2,0,0
1532234410341,-2,-1,0,-2,-2,-1,0,0
1532234410346,-3,-8,-2,-1,0,-1,-2,-2
1532234410351,-1,-2,0,-1,-2,0,-2,-1
1532234410356,-2,-3,-2,-1,-1,0,-1,-1
1532234410361,1,-1,-2,-1,1,-1,-2,1
1532234410366,0,0,1,0,-2,-2,-2,-1
1532234410371,-1,2,0,0,-1,0,-1,0
1532234410376,-1,-6,0,-1,-1,-3,-1,-2
1532234410381,-1,1,-1,-1,-1,0,-1,0
1532234410386,-5,-5,-1,0,0,-1,0,1
1532234410391,-1,0,-2,-1,1,-1,-1,-1
1532234410396,1,1,1,1,-3,0,-2,-1
1532234410401,0,-2,0,-1,1,-2,-2,-1
1532234410406,0,0,0,-2,-1,1,0,0
1532234410411,-1,0,0,-1,-1,0,-1,-1
1532234410416,-1,0,-2,-1,0,0,-2,-1
1532234410421,1,4,-1,-1,-1,1,0,-1
1532234410426,-1,-4,-1,-1,-2,0,-3,1
1532234410431,-3,1,0,-1,-1,-1,-1,-1
1532234410436,2,2,-1,-1,-1,1,0,1
1532234410441,-3,-5,-1,0,0,-1,1,0
1532234410446,1,6,0,-1,0,-1,0,1
1532234410451,-3,-3,-1,-1,0,0,-2,-3
1532234410456,1,1,0,0,1,-2,0,-2
1532234410461,0,-4,-1,0,-1,0,0,1
1532234410466,-1,0,0,1,0,-1,0,-3
1532234410471,1,-5,-1,0,-2,-1,-1,0
1532234410476,-1,-2,-1,-1,-2,0,-1,-1
1532234410481,0,-1,-2,0,-3,0,-1,-1
1532234410486,0,2,-1,-1,-1,0,-1,-2
1532234410491,1,2,-1,0,-1,-1,0,-1
1532234410496,-1,-2,1,-1,-1,-1,-1,0
1532234410501,1,4,1,-1,-2,-1,1,0
1532234410506,-1,-7,-2,0,-2,-1,-1,-2
1532234410511,0,0,1,-2,0,-1,-1,0
1532234410516,0,2,0,-2,-1,1,0,1
1532234410521,0,-1,0,-2,1,-1,-3,-1
1532234410526,-2,2,-1,0,-1,0,-1,-1
1532234410531,1,-3,-2,0,-1,-1,0,-1
1532234410536,0,2,-1,0,-2,-1,0,-1
1532234410541,-1,-3,-2,0,-1,-2,1,0
1532234410546,1,1,-3,-1,-1,-3,-1,4
1532234410551,-1,-1,-2,0,-1,0,-1,-3
1532234410556,-2,-3,-1,-2,-1,-2,-1,1
1532234410561,-1,0,-1,-4,-2,0,0,-1
1532234410566,0,-1,0,0,1,0,-1,0
1532234410571,0,2,-2,-1,0,-2,0,0
1532234410576,-2,-4,0,0,0,-1,-1,-3
1532234410581,-2,-3,0,0,-2,-1,0,-1
1532234410586,0,-2,-1,-1,-1,-2,0,-3
1532234410591,-1,-2,1,-1,0,0,-1,0
1532234410596,-2,-1,-2,-1,0,1,0,-1
1532234410601,-1,-2,0,0,0,-1,-2,3
1532234410606,-1,1,1,0,-1,0,0,-4
1532234410611,4,1,0,-1,-2,-2,1,0
1532234410616,-4,-2,-2,-1,0,0,-2,0
1532234410621,-1,-2,1,0,-1,0,0,-2
1532234410626,0,0,-2,-1,-1,0,0,-2
1532234410631,-2,4,0,-1,-1,-1,0,1
1532234410636,-1,-2,-1,-2,0,-1,0,-2
1532234410641,1,2,-2,0,-1,-2,-1,-1
1532234410646,-2,-4,-1,-2,1,-1,1,-2
1532234410651,-3,-5,-3,1,0,-1,0,-1
1532234410656,2,2,-2,-2,-2,-1,-2,-2
1532234410661,0,1,1,-1,0,1,-2,2
1532234410666,-1,-1,0,0,1,-2,-3,-6
1532234410671,-2,1,-1,-1,-2,-1,-2,-1
1532234410676,-1,-4,-1,-1,-1,-2,-1,-1
1532234410681,-1,0,-3,0,-1,-2,0,1
1532234410686,-1,1,-1,0,0,0,0,1
1532234410691,3,0,0,-2,-1,-1,-1,1
1532234410696,-5,3,0,0,-2,0,0,-1
1532234410701,-2,-2,-1,-3,-1,-1,-1,-2
1532234410706,-2,1,0,-1,0,-1,0,1
1532234410711,-3,-3,0,0,-1,-1,0,-2
1532234410716,2,3,-2,0,0,-1,-1,0
1532234410721,-2,-3,-2,1,1,-2,-1,-2
1532234410726,-2,-1,-3,0,-1,2,-1,1
1532234410731,0,0,-2,-1,0,0,-1,-2
1532234410736,1,-3,-2,0,-1,-1,-1,0
1532234410741,-2,-1,0,-1,0,-1,-2,-1
1532234410746,-2,-1,-4,1,1,1,-2,2
1532234410751,0,-2,0,-1,-1,-1,-1,-9
1532234410756,-2,-2,-1,-2,0,-1,-1,0
1532234410761,-1,1,0,-1,-2,0,-1,0
1532234410766,0,2,0,-2,1,-1,2,-1
1532234410771,-1,-8,-2,-1,-2,-1,0,-1
1532234410776,0,1,-2,-1,-1,0,-1,-2
1532234410781,0,0,-2,-1,0,-2,0,-1
1532234410786,0,0,0,0,-2,0,0,-1
1532234410791,0,0,-2,-1,-1,0,1,2
1532234410796,-3,1,-2,0,-1,-2,-1,-1
1532234410801,-1,-1,0,-1,0,0,0,0
1532234410806,0,-2,-3,-1,-1,-1,0,-1
1532234410811,-1,0,0,0,0,-2,-1,1
1532234410816,2,-4,-1,-1,-2,0,1,0
1532234410821,-1,-1,-1,-1,0,0,-1,-1
1532234410826,-3,-1,0,0,0,-1,-1,-2
1532234410831,-2,-2,-2,-1,-2,-1,2,-3
1532234410836,0,4,1,-1,-1,-2,-1,0
1532234410841,-1,-7,-2,-1,-1,0,0,-2
1532234410846,-1,-3,-1,-2,-1,-1,-2,-2
1532234410851,-1,-1,-2,1,0,-1,0,1
1532234410856,-1,0,0,-1,-1,-2,-1,1
1532234410861,0,0,0,-1,-2,1,-1,-1
1532234410866,-1,-2,0,0,-2,0,-2,3
1532234410871,-6,-4,-2,-3,-1,-1,-3,-10
1532234410876,-1,-2,-1,0,-1,1,-1,0
1532234410881,-1,-1,-1,-1,0,-2,-1,0
1532234410886,1,0,-3,-1,-2,-2,-1,-1
1532234410891,2,1,0,1,-2,0,-2,2
1532234410896,1,-1,-1,0,-2,0,-1,-1
1532234410901,-1,-1,0,-1,-1,-1,-1,-1
1532234410906,-2,-2,0,-1,-2,0,0,-2
1532234410911,-2,0,0,-1,0,-1,0,2
1532234410916,-1,2,0,-1,-2,0,-1,-2
1532234410921,1,1,0,1,0,-1,-1,1
1532234410926,-3,-1,-1,0,0,-1,0,-1
1532234410931,2,0,-1,-1,0,0,1,0
1532234410936,0,-1,-2,-1,0,0,0,-2
1532234410941,0,-1,-1,-1,-1,-1,0,1
1532234410946,0,-1,-2,-1,-1,1,-2,0
1532234410951,1,0,0,1,0,-1,-1,0
1532234410956,-6,-2,-1,-1,0,-1,-1,0
1532234410961,-3,-1,-2,0,-2,0,0,-2
1532234410966,1,2,0,-1,1,1,1,0
1532234410971,-1,1,0,-1,-2,1,-3,0
1532234410976,0,-2,1,-3,-2,-1,0,0
1532234410981,-1,-1,-1,-1,0,-1,-1,-1
1532234410986,-3,-4,1,1,0,-1,-1,-1
1532234410991,-1,-1,-1,-1,-1,-1,-1,-1
1532234410996,2,-2,0,0,1,-1,-1,-1
1532234411001,-3,-1,0,-2,-2,1,-1,-1
1532234411006,1,0,0,1,-1,-2,-1,-1
1532234411011,-1,-1,-1,-1,-1,-2,0,-1
1532234411016,-2,-3,0,-1,0,1,-1,-2
1532234411021,0,0,-1,0,-2,-2,0,1
1532234411026,1,0,1,-2,1,-2,-1,-1
1532234411031,0,4,-1,0,-1,-2,-1,1
1532234411036,0,-1,-1,-1,0,-2,0,-2
1532234411041,0,-1,0,-1,-2,0,0,-2
1532234411046,-1,0,-2,-1,-1,0,-2,0
1532234411051,-2,1,-1,-1,-1,0,0,-2
1532234411056,0,-1,0,1,-1,-2,-1,1
1532234411061,0,1,0,-1,0,0,1,1
1532234411066,-2,-3,-1,-1,-1,0,-1,-2
1532234411071,-1,-2,0,1,-2,1,1,0
1532234411076,-1,-1,-1,-1,-1,0,-1,0
1532234411081,-3,-2,-1,0,-1,-3,-1,0
1532234411086,-1,6,0,-1,0,-2,-1,-2
1532234411091,0,-7,-1,0,-2,-2,-2,-1
1532234411096,-1,-1,-2,0,-1,0,-1,-2
1532234411101,-1,-1,-2,-1,-1,-2,-2,-3
1532234411106,-1,-2,-1,-1,0,1,0,1
1532234411111,-1,-3,-1,-1,-1,0,-1,1
1532234411116,-1,1,-1,1,-1,0,-1,0
1532234411121,2,3,-1,0,-1,1,0,2
1532234411126,-1,-4,-3,-2,-1,0,1,-2
1532234411131,-2,-1,-1,-2,0,1,0,-1
1532234411136,-2,-4,-2,-2,-1,-1,0,1
1532234411141,0,1,-1,1,-1,1,-1,0
1532234411146,-1,-1,-2,1,-1,-2,0,-2
1532234411151,0,-2,-1,0,-1,-1,0,0
1532234411156,0,0,-1,0,-1,-1,-1,-2
1532234411161,-1,6,-1,-2,0,0,-3,0
1532234411166,-2,-7,-2,-2,-1,0,-1,0
1532234411171,-1,0,-1,-2,0,-1,-1,-2
1532234411176,2,-1,1,0,-2,0,-2,1
1532234411181,-1,0,-2,-1,-2,-1,0,-4
1532234411186,-1,-1,1,1,0,-1,-2,-1
1532234411191,0,0,-1,0,0,-1,0,-2
1532234411196,-1,-3,0,1,0,1,0,-1
1532234411201,-1,-3,-1,-2,0,-1,-2,1
1532234411206,2,1,-1,-1,0,0,-1,-1
1532234411211,-1,-2,-1,-2,0,-1,-1,-1
1532234411216,-2,1,-1,1,-1,-1,0,-2
1532234411221,-4,-3,-2,0,-2,-1,-1,-1
1532234411226,-2,-1,-2,0,-2,-1,0,0
1532234411231,-1,0,1,0,0,-1,-1,1
1532234411236,0,1,0,-2,-1,-1,-1,0
1532234411241,0,-1,0,-1,0,-1,-1,-4
1532234411246,-1,-8,-1,0,-3,-2,1,1
1532234411251,-1,-2,-1,0,1,0,-1,-2
1532234411256,0,0,-3,-2,-2,-1,0,0
1532234411261,2,-3,0,-1,0,-1,0,0
1532234411266,-4,3,1,-3,-2,0,-2,-4
1532234411271,-1,-1,-2,-1,-3,-1,-1,2
1532234411276,-3,-2,-1,-1,-1,1,-3,-3
1532234411281,-1,1,0,0,-1,-1,1,-1
1532234411286,-1,2,1,0,-1,0,0,-1
1532234411291,-2,-12,-3,0,-2,-1,-1,0
1532234411296,2,5,0,0,1,-1,0,1
1532234411301,1,4,-1,-2,0,1,0,-2
1532234411306,-2,-4,-1,-1,1,-2,0,-2
1532234411311,0,2,-1,0,0,0,-1,-1
1532234411316,-2,-1,-2,2,-2,-1,0,-1
1532234411321,-1,-2,-2,1,-1,0,-1,-2
1532234411326,0,-3,0,-1,0,-1,0,-2
1532234411331,-3,0,-2,-1,-1,-3,0,-2
1532234411336,0,-5,0,-2,-2,-1,-1,-2
1532234411341,0,2,1,-1,-2,-1,-1,0
1532234411346,-1,-2,0,0,-1,0,0,0
1532234411351,-1,-4,-1,-3,-1,-1,-2,0
1532234411356,3,5,0,-1,-1,1,0,1
1532234411361,-2,6,-1,0,0,-2,-1,-8
1532234411366,0,-3,-1,0,-1,0,-1,0
1532234411371,0,0,0,0,0,-2,-1,0
1532234411376,2,3,-1,-2,-1,-1,-1,-1
1532234411381,-1,-2,-1,-1,0,0,0,0
1532234411386,-1,3,0,-1,0,-2,0,-1
1532234411391,3,1,0,0,-2,-1,0,-1
1532234411396,-1,-2,0,-1,-2,-1,0,3
1532234411401,0,-3,-2,0,-1,-2,-1,2
1532234411406,-2,-1,-1,-1,-3,-1,-2,0
1532234411411,-3,0,1,-1,-1,0,0,-1
1532234411416,-2,-4,-2,-1,-1,-1,0,-1
1532234411421,-2,-4,-3,0,0,-1,0,-1
1532234411426,-1,-4,-1,-1,-2,-2,0,-2
1532234411431,-2,-2,-1,0,0,-2,-1,-2
1532234411436,4,0,0,0,-1,0,-1,0
1532234411441,-6,-1,-1,-1,-2,-1,0,-2
1532234411446,-1,-2,-2,-1,0,0,-2,0
1532234411451,0,1,0,-1,-1,0,0,-1
1532234411456,-1,-1,-1,-1,0,-3,-1,-1
1532234411461,1,-4,0,-3,0,0,-2,1
1532234411466,2,0,-1,-2,-2,-3,0,0
1532234411471,0,0,-3,0,-1,0,-1,-2
1532234411476,-2,-2,-1,1,1,1,-1,-1
1532234411481,0,1,-1,2,-1,-1,-1,0
1532234411486,-2,-2,-1,-2,-2,-1,-1,1
1532234411491,0,1,-1,0,-1,-1,-1,0
1532234411496,-2,-6,0,-2,-2,-1,-1,0
1532234411501,2,2,0,0,-1,-1,-1,0
1532234411506,-3,-10,-2,-1,0,-1,-2,-2
1532234411511,-1,2,0,0,-1,-2,-1,0
1532234411516,2,0,-1,-2,-2,-1,0,-3
1532234411521,-1,-1,-1,0,0,-1,0,0
1532234411526,-2,1,0,2,0,-1,1,-1
1532234411531,0,1,-2,-3,-1,0,-2,0
1532234411536,-1,-4,-1,-1,0,0,-1,-1
1532234411541,2,1,1,-2,-1,1,-1,-1
1532234411546,-5,1,-1,-1,-1,-1,0,0
1532234411551,-4,-1,0,0,-1,0,0,-2
1532234411556,-2,2,-1,1,0,-1,0,-1
1532234411561,1,-2,-1,-1,-1,-1,-1,1
1532234411566,0,1,-1,-1,1,0,-1,0
1532234411571,-2,-5,-1,0,-1,-2,-1,-1
1532234411576,-1,5,0,0,-1,0,-1,0
1532234411581,-2,-10,-1,-2,-2,0,-1,-1
1532234411586,-2,-1,-2,-2,0,0,-2,0
1532234411591,1,1,0,-1,-2,0,-1,-1
1532234411596,-1,-2,-2,-2,1,0,0,-2
1532234411601,-3,2,0,-3,-2,-2,0,0
1532234411606,-1,-1,-2,-1,-1,-1,-1,0
1532234411611,-1,-1,0,-1,-1,-1,-1,1
1532234411616,-2,-1,1,0,1,-2,-1,1
1532234411621,-1,-2,-2,-1,-1,-2,0,-1
1532234411626,0,-1,1,0,-1,0,-1,-1
1532234411631,0,0,-4,1,-1,-1,0,-1
1532234411636,0,-3,-2,0,-1,-1,0,-1
1532234411641,2,-1,-1,1,1,-1,0,0
1532234411646,1,2,1,-1,0,-2,0,-1
1532234411651,-1,-10,-1,0,-1,1,0,1
1532234411656,-6,-3,-3,1,-1,0,-2,-7
1532234411661,2,4,-1,-1,-1,0,-1,0
1532234411666,-1,1,-1,-1,-2,1,-1,-1
1532234411671,-2,2,-2,-1,0,0,0,1
1532234411676,1,-2,-1,-2,-1,0,-1,0
1532234411681,1,-1,0,-1,0,-1,0,0
1532234411686,1,-1,-1,-1,1,-1,0,-1
1532234411691,0,1,1,0,0,-1,-1,-3
1532234411696,-2,0,-1,-1,-1,-2,-1,-1
1532234411701,-2,1,-1,0,-1,-1,-1,-2
1532234411706,1,-1,-1,-1,-1,-2,-1,-1
1532234411711,-2,0,0,-1,0,0,-2,-1
1532234411716,-2,1,-2,-2,0,-2,1,0
1532234411721,1,-9,-1,-2,-1,-1,-1,-1
1532234411726,0,-3,0,0,-1,0,-1,0
1532234411731,3,3,-2,-2,-1,-2,-1,-2
1532234411736,-1,0,-1,0,0,0,-1,-1
1532234411741,-1,1,-1,-1,1,-1,0,0
1532234411746,-1,-1,-1,-1,0,0,-1,0
1532234411751,0,-1,-1,0,-2,-1,-1,-1
1532234411756,1,0,1,0,-2,-1,0,1
1532234411761,-2,-2,-2,-2,0,-2,-1,-1
1532234411766,-1,-1,-2,2,-1,-1,0,-1
1532234411771,2,0,0,-1,0,-1,-1,-2
1532234411776,0,-2,-1,-1,0,-1,-1,2
1532234411781,0,1,0,-1,-2,0,0,1
1532234411786,0,1,-2,-2,0,0,-1,-1
1532234411791,-3,-1,-1,-1,1,-2,-1,-2
1532234411796,2,2,0,-1,0,-1,-1,-1
1532234411801,-3,-10,-2,-1,-1,-4,-2,-1
1532234411806,0,-1,-1,-2,-2,-1,0,-1
1532234411811,-1,2,1,-1,-1,-1,-1,0
1532234411816,-1,-2,-1,-3,-2,0,-1,0
1532234411821,0,4,-1,0,-1,-2,-2,-1
1532234411826,-4,-2,-2,-2,-1,-2,-1,-1
1532234411831,-3,-4,0,-2,-1,-2,0,0
1532234411836,-1,0,-2,0,-2,-1,0,-5
1532234411841,0,0,-1,-2,-1,1,0,0
1532234411846,0,-3,-1,-1,-1,1,-1,1
1532234411851,0,0,-1,-3,0,-1,-1,1
1532234411856,-2,-3,0,-1,1,-2,0,-1
1532234411861,1,3,-4,0,0,1,-2,-4
1532234411866,-1,1,0,-1,0,-1,0,-2
1532234411871,-1,-10,-1,0,-1,0,-1,-1
1532234411876,-7,-3,0,-1,-1,1,-2,0
1532234411881,-6,-4,2,0,-1,0,-1,-1
1532234411886,-1,3,-1,0,-2,0,0,-1
1532234411891,-1,0,-2,0,-2,1,-1,-2
1532234411896,1,-3,-2,-1,0,-1,-1,-1
1532234411901,2,2,-1,0,1,-1,0,-1
1532234411906,0,-2,-1,0,-1,0,0,-1
1532234411911,-1,1,0,0,0,-2,-2,-1
1532234411916,1,0,-2,-1,-1,-1,-2,-1
1532234411921,-1,0,-1,-2,-3,1,-2,1
1532234411926,0,-1,-1,0,-2,-1,0,-2
1532234411931,0,1,-3,-1,0,-2,0,1
1532234411936,1,0,0,-2,0,-3,0,-1
1532234411941,-1,1,-1,1,-2,-2,0,-2
1532234411946,-5,-12,-1,-3,-2,0,-1,-2
1532234411951,1,3,0,1,-1,0,0,-1
1532234411956,-3,0,-2,0,-3,0,0,0
1532234411961,-2,1,1,-3,-1,-1,-1,1
1532234411966,-2,-1,0,-2,0,0,-1,-1
1532234411971,1,-4,-1,-2,-2,0,-2,-3
1532234411976,0,0,-1,-1,-1,-1,-2,-2
1532234411981,0,-1,-1,0,-1,0,0,-1
1532234411986,1,1,-2,0,0,-1,-1,1
1532234411991,-2,0,-1,-1,0,-2,0,-2
1532234411996,0,-1,-1,0,-2,0,-1,1
1532234412001,0,1,0,-1,-1,-1,-1,-1
1532234412006,1,5,-1,-1,-2,-2,-1,0
1532234412011,-3,-3,-1,-1,-1,0,0,-3
1532234412016,7,4,0,-1,0,0,1,-2
1532234412021,-3,0,0,0,-1,0,0,2
1532234412026,1,1,-1,0,-2,-1,-1,0
1532234412031,-2,-1,-1,0,0,0,-1,0
1532234412036,0,0,-1,0,0,-1,-1,-3
1532234412041,1,-2,-2,0,-1,0,-1,0
1532234412046,-1,1,1,-1,0,-1,1,-2
1532234412051,-1,0,-1,-1,-2,0,0,0
1532234412056,-2,-2,-2,-1,0,-1,-1,0
1532234412061,-1,-3,-2,-1,-1,-2,-2,-4
1532234412066,-2,0,-1,-1,-2,0,-1,-1
1532234412071,-1,1,-1,-2,0,-1,-2,-2
1532234412076,-1,-1,-2,-1,-1,-2,-1,0
