1532063209647,0,1,1,-1,-1,-2,0,-2
1532063209652,-2,-2,-6,-11,-5,-4,-2,-1
1532063209657,-1,4,4,1,-2,-2,-4,0
1532063209662,-2,-1,-1,10,1,3,1,1
1532063209667,0,-12,-8,-1,1,1,0,-1
1532063209672,0,-1,-1,-4,0,0,-3,-1
1532063209677,1,7,7,5,-1,1,2,0
1532063209682,0,8,1,-8,-1,-1,0,-1
1532063209687,0,-8,3,17,1,-4,-2,0
1532063209692,-1,-3,-2,-9,-3,-2,-5,-2
1532063209697,-1,-3,-4,1,2,-1,-3,-2
1532063209702,-1,2,2,-2,-5,-1,-1,-2
1532063209707,-2,2,-3,-9,2,2,-1,-2
1532063209712,0,-2,1,9,0,-1,1,1
1532063209717,-1,1,3,1,-2,-2,-2,-2
1532063209722,0,-2,-3,2,0,0,-1,-3
1532063209727,2,19,5,-9,-3,-1,1,2
1532063209732,-3,-24,-8,24,-1,-1,-3,-3
1532063209737,-2,-1,-2,-23,-3,0,1,0
1532063209742,-1,-3,-3,-2,-2,-1,-3,0
1532063209747,-1,4,3,-1,-1,2,3,1
1532063209752,2,15,2,-6,0,-3,1,1
1532063209757,-1,-8,-2,8,6,2,0,-1
1532063209762,0,-1,3,2,-2,-2,-2,-2
1532063209767,0,3,-3,3,-4,-1,-3,0
1532063209772,-3,-2,-1,-7,-2,-2,-1,-1
1532063209777,-4,-11,-7,7,0,1,-4,-2
1532063209782,1,6,4,-1,0,-1,2,0
1532063209787,-4,-11,-6,-10,1,-1,0,-2
1532063209792,1,14,4,2,-3,-1,-2,1
1532063209797,1,5,5,6,-1,-1,1,2
1532063209802,-4,-30,-14,2,-1,-3,-3,-2
1532063209807,-2,-1,0,-12,0,-3,-2,-2
1532063209812,-2,-4,-4,0,0,-1,-4,0
1532063209817,1,18,5,2,-3,1,0,-1
1532063209822,-1,-3,1,-2,-1,-1,1,0
1532063209827,-1,-3,-2,0,-4,0,-1,-3
1532063209832,0,-4,-7,-4,5,-2,3,-2
1532063209837,0,-5,-2,-3,-2,-1,-2,-2
1532063209842,-1,5,0,1,0,-1,-1,-2
1532063209847,-2,-8,-2,17,-3,-2,-2,-1
1532063209852,-1,9,4,-27,-5,0,0,1
1532063209857,2,7,6,-3,-3,1,3,1
1532063209862,-2,-8,-4,-9,1,-3,-2,-4
1532063209867,-2,-2,-3,14,16,2,0,-1
1532063209872,-3,-3,-3,-5,-12,0,1,0
1532063209877,-2,-1,-3,9,2,-3,1,-2
1532063209882,4,21,8,-15,-12,-2,0,2
1532063209887,-1,-2,-3,0,6,3,0,-1
1532063209892,0,-13,5,15,5,-3,-5,-3
1532063209897,0,-16,-8,3,0,2,0,-2
1532063209902,-1,-6,-7,27,-3,-1,1,1
1532063209907,2,8,-1,-24,4,-1,-1,0
1532063209912,2,17,1,15,4,-1,1,1
1532063209917,-1,-4,0,8,-4,1,-1,0
1532063209922,-2,-26,3,17,21,4,0,-3
1532063209927,0,-5,-7,-36,-24,-6,-3,-3
1532063209932,-3,-9,-10,-20,-1,4,-3,0
1532063209937,-1,15,-6,17,-20,-7,-4,1
1532063209942,6,43,9,-1,1,3,3,4
1532063209947,-4,-43,-5,5,2,0,3,-1
1532063209952,-7,-16,-12,11,16,0,-3,-6
1532063209957,-3,1,0,-8,0,-2,-1,-1
1532063209962,-2,-12,-5,-12,-10,2,-3,-1
1532063209967,6,24,10,32,8,1,2,0
1532063209972,-1,3,0,-26,-8,-3,1,1
1532063209977,-1,-14,-1,-14,11,0,-1,-3
1532063209982,-2,11,-4,1,-13,-5,-3,-1
1532063209987,3,20,11,-4,3,0,-1,1
1532063209992,-4,-20,-6,7,-3,-2,-2,-1
1532063209997,0,6,7,1,7,0,0,-1
1532063210002,0,-4,-4,4,-2,-1,3,-4
1532063210007,-2,0,-5,8,0,1,-3,-1
1532063210012,1,2,5,-16,-3,-1,-1,2
1532063210017,1,1,7,55,3,2,3,2
1532063210022,-5,-7,-9,-48,-17,-5,-3,-1
1532063210027,-4,-20,-17,14,11,2,-3,-1
1532063210032,2,20,12,13,-11,-5,-2,-1
1532063210037,1,-7,3,0,40,-1,0,-1
1532063210042,1,7,8,29,9,10,7,3
1532063210047,-3,-13,-5,-21,-15,-3,-1,-1
1532063210052,1,11,1,-15,-26,-8,-5,-2
1532063210057,2,7,-1,-6,2,1,1,3
1532063210062,-4,-22,-2,-3,6,-5,-5,-3
1532063210067,-1,8,5,-17,-2,-2,-2,-1
1532063210072,1,2,5,33,18,4,1,0
1532063210077,-2,0,-12,-41,-22,-6,-3,-1
1532063210082,0,15,7,17,0,-3,-6,0
1532063210087,-1,-7,-4,3,-9,1,-1,0
1532063210092,1,1,-2,-12,12,2,3,-1
1532063210097,-2,2,0,7,-10,-2,-2,-4
1532063210102,-1,-3,-7,-40,-1,-2,2,-1
1532063210107,-1,-4,2,0,-6,-3,-4,-3
1532063210112,-3,-9,-8,-8,-3,2,3,0
1532063210117,0,-8,4,14,3,2,3,0
1532063210122,1,0,3,6,8,-2,-1,-1
1532063210127,-1,8,-1,6,-16,-6,-2,-2
1532063210132,2,9,9,1,9,2,1,0
1532063210137,-5,-18,-18,-26,-19,-7,-6,-3
1532063210142,-1,1,5,4,0,0,-3,-1
1532063210147,-1,-2,0,-6,7,2,1,-3
1532063210152,-3,-11,-6,7,-1,2,0,1
1532063210157,7,15,7,18,-4,2,-1,2
1532063210162,3,12,0,14,5,0,20,1
1532063210167,1,-26,-8,-29,0,-5,-29,-2
1532063210172,0,-1,-5,1,-15,-3,-1,-2
1532063210177,-8,-11,-4,5,4,4,1,0
1532063210182,6,10,1,-9,1,-1,-6,0
1532063210187,2,12,8,40,2,0,11,0
1532063210192,-2,-2,-2,-27,3,-4,-2,-1
1532063210197,6,6,9,16,7,0,-1,1
1532063210202,-7,-4,-5,10,-8,-1,-7,-5
1532063210207,-3,-11,-4,-21,-6,-1,1,4
1532063210212,2,-11,-3,-13,1,4,0,3
1532063210217,-3,5,-2,-7,-4,-4,4,-1
1532063210222,-2,-9,-5,5,8,0,-1,-1
1532063210227,-1,17,4,-6,-13,0,1,1
1532063210232,3,-3,3,19,11,1,-2,-2
1532063210237,-2,-8,-9,-12,-4,0,-2,-2
1532063210242,-4,-10,-7,1,0,-2,-4,0
1532063210247,1,13,4,17,5,-2,-5,-4
1532063210252,-1,-4,2,-3,-2,-2,2,2
1532063210257,1,16,7,-17,4,2,1,0
1532063210262,-2,-7,-14,-1,-9,-3,-4,-1
1532063210267,-6,-18,-10,-7,-5,0,2,-2
1532063210272,-2,-1,-3,9,0,1,-3,-2
1532063210277,-1,-4,0,5,-2,-3,-3,-1
1532063210282,3,19,7,-21,-1,2,3,1
1532063210287,3,5,10,26,8,0,2,2
1532063210292,-2,-16,-11,-22,-11,-4,-5,-1
1532063210297,-2,-3,-10,-20,3,6,-3,-1
1532063210302,0,-4,9,30,5,0,2,0
1532063210307,-1,11,-2,-33,-3,-1,2,1
1532063210312,0,-2,2,16,2,-3,-1,-3
1532063210317,-1,-10,-1,-8,-5,-2,-2,-1
1532063210322,-1,-3,-1,-21,-5,1,-2,0
1532063210327,2,5,-3,29,-4,0,5,0
1532063210332,0,10,-1,-20,-6,2,4,0
1532063210337,-3,-4,4,-9,-8,-3,-3,0
1532063210342,-4,-16,-12,26,2,-3,-5,-2
1532063210347,1,9,9,-10,6,-1,-3,-2
1532063210352,-3,6,-1,17,-1,0,4,1
1532063210357,0,-2,-1,-9,-2,2,-2,-2
1532063210362,1,-2,5,5,6,-1,-2,1
1532063210367,1,8,1,-4,1,0,0,-2
1532063210372,-2,2,-1,0,-2,-2,-2,-3
1532063210377,-2,-10,-9,-12,-4,-4,-4,-2
1532063210382,0,4,-1,-11,2,2,1,-3
1532063210387,-2,-9,1,2,4,4,4,5
1532063210392,-2,-10,-4,6,-5,-3,-2,-2
1532063210397,1,7,4,7,-1,-2,1,-1
1532063210402,0,10,-2,-25,-6,-4,-6,-2
1532063210407,-2,-16,-8,-6,-1,-2,-1,-4
1532063210412,-2,-21,-7,-3,1,-1,-3,-3
1532063210417,-2,-1,-2,0,6,0,0,-1
1532063210422,-4,0,2,7,-9,1,1,1
1532063210427,-1,7,8,33,6,2,0,0
1532063210432,2,15,3,-31,1,-1,-3,2
1532063210437,0,-12,-9,9,-8,-3,-3,-3
1532063210442,1,-1,4,-33,1,0,2,0
1532063210447,-3,-6,-1,6,2,2,-2,-3
1532063210452,1,4,6,22,-1,-3,-1,-3
1532063210457,0,10,2,0,2,-3,2,0
1532063210462,-1,6,0,-9,-1,-2,-2,0
1532063210467,0,-7,-8,-30,-26,-3,-1,-2
1532063210472,-5,-16,-6,4,3,-2,-1,-1
1532063210477,-1,6,10,9,3,1,-3,2
1532063210482,0,-1,-6,-10,-7,-4,-1,-3
1532063210487,1,13,6,-15,10,2,1,-2
1532063210492,0,1,-5,3,-8,0,-2,0
1532063210497,-2,-4,-2,12,0,0,-1,0
1532063210502,-1,-20,-1,-1,3,-2,-1,0
1532063210507,-1,-4,-4,-1,4,-1,-1,-2
1532063210512,2,12,7,-4,-7,-4,-4,-2
1532063210517,0,13,2,0,3,2,1,1
1532063210522,-3,-23,-8,3,5,3,-1,-2
1532063210527,-2,1,0,1,-2,-2,2,0
1532063210532,0,9,1,12,1,0,1,-1
1532063210537,-2,-9,-3,-25,6,4,-1,-2
1532063210542,0,4,-2,24,-2,0,-2,1
1532063210547,-1,-5,-3,-36,-3,-4,-3,-3
1532063210552,1,0,-2,13,-2,2,-1,1
1532063210557,0,12,6,-7,0,-6,-1,-1
1532063210562,-3,-22,-7,-1,4,0,-1,0
1532063210567,0,-4,-6,-7,-7,0,1,-2
1532063210572,-2,3,6,5,2,-2,-1,0
1532063210577,-1,-6,-13,-12,-6,-1,-1,-1
1532063210582,-1,5,4,11,-2,-2,0,0
1532063210587,2,4,6,21,6,-1,-1,2
1532063210592,-3,-4,-8,-33,-2,-5,-3,-4
1532063210597,-1,-7,2,22,2,1,-1,1
1532063210602,-1,13,5,4,-2,-2,4,-1
1532063210607,-2,-5,1,-13,-2,-2,-4,0
1532063210612,2,9,2,-10,-5,1,0,0
1532063210617,-1,-27,4,8,6,1,-3,1
1532063210622,0,-2,0,-12,-4,0,-3,-5
1532063210627,-1,-2,4,17,11,3,3,1
1532063210632,0,-8,-9,-6,0,-1,-1,0
1532063210637,0,7,0,1,-2,-1,0,-3
1532063210642,0,6,7,8,-2,-1,-2,0
1532063210647,-2,0,-10,-7,-19,-2,-3,-2
1532063210652,2,14,5,-12,-8,-3,-1,0
1532063210657,-3,-25,-11,-24,-6,-2,0,-5
1532063210662,1,3,3,10,1,2,1,3
1532063210667,0,5,0,-11,8,-5,-3,1
1532063210672,1,-3,0,16,7,2,3,0
1532063210677,4,37,7,13,11,8,6,2
1532063210682,-4,-24,1,-20,-14,-5,-4,-1
1532063210687,-2,-13,-19,8,-8,-1,-2,-4
1532063210692,-2,2,1,16,-4,-1,-1,-2
1532063210697,1,-2,-1,1,7,-4,-1,-1
1532063210702,-1,7,-6,-36,-6,-5,-4,-3
1532063210707,0,13,13,2,-7,-2,-4,0
1532063210712,-2,-13,-8,-3,9,3,4,0
1532063210717,-4,-14,-5,11,-6,-2,-1,-5
1532063210722,-1,-14,-3,16,6,3,2,0
1532063210727,-1,-4,5,-3,-5,-5,-5,-1
1532063210732,2,16,7,-1,-2,1,-1,0
1532063210737,0,9,0,-13,-2,2,3,4
1532063210742,-1,-15,2,17,9,2,0,0
1532063210747,-3,-8,-20,-22,-2,-4,1,-5
1532063210752,-2,-8,-14,13,1,-1,-5,2
1532063210757,0,9,3,-28,-17,-7,-6,-2
1532063210762,1,15,-1,14,5,-1,0,1
1532063210767,0,10,7,-16,1,0,0,-1
1532063210772,-5,-39,-10,-1,-2,0,-2,-5
1532063210777,-3,-8,0,2,3,-2,0,-4
1532063210782,-1,7,-4,8,-1,1,0,-2
1532063210787,2,3,12,17,5,0,1,2
1532063210792,4,22,13,-14,-8,-4,-1,0
1532063210797,-2,-11,-30,-14,-9,-4,-6,-3
1532063210802,0,-13,-4,2,11,3,-1,-3
1532063210807,1,21,-1,8,1,2,3,2
1532063210812,-4,-40,3,9,8,1,2,-2
1532063210817,-3,4,1,-16,-10,-5,-3,1
1532063210822,2,23,6,6,-6,-4,-1,0
1532063210827,-4,-28,-22,3,2,-1,1,2
1532063210832,3,20,31,6,3,2,-1,1
1532063210837,1,1,-6,23,3,1,-1,-1
1532063210842,-5,-9,-6,-37,-12,-5,-4,-3
1532063210847,0,-3,7,21,5,3,-2,-2
1532063210852,0,7,-5,-2,-1,-5,-1,-2
1532063210857,-3,-4,8,15,-5,-1,1,-3
1532063210862,1,3,-11,-10,4,2,1,-1
1532063210867,-2,0,-1,-1,4,1,-2,0
1532063210872,0,8,-5,34,-5,-2,-3,-2
1532063210877,3,18,11,-11,-4,-4,-1,1
1532063210882,-2,-18,-5,15,-8,0,2,0
1532063210887,-3,-11,-6,-17,6,2,0,-2
1532063210892,-1,1,-8,-10,3,1,-1,1
1532063210897,1,8,9,15,2,-1,0,-1
1532063210902,2,14,3,1,-4,-4,-2,1
1532063210907,-1,2,12,15,1,0,1,-1
1532063210912,-2,-14,-13,-21,-2,-3,-5,-2
1532063210917,0,1,-4,-8,4,4,2,-1
1532063210922,-4,8,9,1,-2,-1,0,-1
1532063210927,2,15,-12,7,-1,1,1,1
1532063210932,-2,-10,21,-7,-1,-2,-1,1
1532063210937,-5,-29,-25,-17,-5,-2,-4,-4
1532063210942,2,9,18,17,5,1,3,-1
1532063210947,-2,-4,-16,-14,-4,-2,-2,1
1532063210952,2,14,1,-26,-5,0,-2,0
1532063210957,0,-21,-4,3,-3,-1,0,-1
1532063210962,2,6,10,12,5,0,1,0
1532063210967,0,4,17,4,5,1,1,0
1532063210972,-3,-3,-2,-1,-4,-3,-1,-2
1532063210977,1,11,14,-10,3,0,-1,5
1532063210982,3,9,-12,-15,-8,-1,4,-2
1532063210987,-4,-1,32,12,-8,-6,-6,2
1532063210992,-6,-24,-31,13,7,4,0,-1
1532063210997,2,9,11,6,15,8,4,-2
1532063211002,-1,-2,-12,-15,-1,1,-1,7
1532063211007,1,10,-3,0,-9,-6,-2,-2
1532063211012,-4,-9,-5,-12,-6,-4,-1,-5
1532063211017,3,10,28,21,-8,-3,-1,0
1532063211022,5,18,-7,12,11,5,3,1
1532063211027,-11,-47,-6,-10,-7,-4,-8,-7
1532063211032,1,1,-30,8,12,7,6,1
1532063211037,-2,0,16,0,0,-3,-3,1
1532063211042,-7,-15,3,0,-14,-7,-6,-3
1532063211047,9,32,9,-1,0,0,0,17
1532063211052,-7,-29,8,7,-7,-2,-1,-22
1532063211057,-1,-1,-20,-2,6,-1,1,-2
1532063211062,2,8,17,-4,-2,0,2,-2
1532063211067,-5,-13,-30,-14,3,4,0,2
1532063211072,4,27,25,-4,-6,-5,-2,10
1532063211077,4,9,2,7,-1,3,1,1
1532063211082,-5,-16,-6,-9,1,-6,-4,-4
1532063211087,1,-23,-2,22,-1,2,3,-8
1532063211092,0,11,8,17,8,0,0,1
1532063211097,3,6,6,-5,3,4,1,-4
1532063211102,4,2,-1,7,2,-1,0,33
1532063211107,0,-15,-6,-14,-5,-3,2,-10
1532063211112,-4,7,-4,-5,-3,-3,-8,-25
1532063211117,-3,-4,-2,4,-5,-5,-4,2
1532063211122,-2,6,-4,-6,3,-1,-2,-12
1532063211127,1,-5,-4,6,3,3,1,4
1532063211132,-2,-5,-10,5,-3,0,0,9
1532063211137,-1,18,4,-5,-3,-3,-3,-5
1532063211142,-2,-20,-4,5,-2,-2,-1,2
1532063211147,-2,-1,6,-4,4,0,4,0
1532063211152,5,11,-2,-4,-3,1,-1,5
1532063211157,2,-2,-7,4,0,0,1,-1
1532063211162,-2,-11,-13,0,-3,-3,-2,-2
1532063211167,-14,12,11,-11,-7,-6,-5,-13
1532063211172,-1,-4,-13,-21,-8,-1,3,-2
1532063211177,5,10,1,6,1,0,-1,6
1532063211182,-11,-15,-6,5,-1,-4,-3,-1
1532063211187,23,11,4,-7,1,3,2,-3
1532063211192,-31,-2,-10,-26,-6,-2,-2,-1
1532063211197,-24,-15,16,25,2,-1,-2,-5
1532063211202,-8,10,-3,-23,0,2,2,-4
1532063211207,3,4,-5,5,-7,-1,-2,0
1532063211212,8,-3,-13,4,1,-1,1,4
1532063211217,1,-19,-24,-6,-4,1,-1,1
1532063211222,-2,2,10,-2,0,-1,-5,-6
1532063211227,-4,1,-8,-23,-5,-1,-4,4
1532063211232,5,4,9,16,4,1,0,2
1532063211237,-1,-4,-5,-11,7,2,3,-1
1532063211242,12,12,1,-6,-3,-2,-2,2
1532063211247,1,12,1,2,0,0,0,-4
1532063211252,0,-42,-5,13,4,-2,-2,3
1532063211257,6,-4,-7,-7,-4,-2,1,-1
1532063211262,-13,1,7,0,-2,0,0,-7
1532063211267,-1,9,7,7,4,0,0,2
1532063211272,3,15,11,-5,4,2,0,3
1532063211277,11,12,4,8,-3,-3,-1,1
1532063211282,2,-26,-3,-2,-5,1,-1,-6
1532063211287,7,2,-12,-32,-8,-2,-3,2
1532063211292,-5,4,3,3,2,-5,0,-5
1532063211297,4,7,5,-7,2,2,0,-2
1532063211302,2,7,-1,-4,5,5,-2,-1
1532063211307,-6,4,1,22,0,-4,-2,-2
1532063211312,9,-35,-18,-5,1,2,0,2
1532063211317,-7,-3,16,-3,-2,-2,0,-1
1532063211322,-3,3,3,8,-2,-3,-4,-4
1532063211327,2,-4,-14,-30,-2,-1,-2,1
1532063211332,1,20,18,2,-6,-1,0,2
1532063211337,-8,-44,-17,5,-4,-5,0,-2
1532063211342,0,-4,1,2,4,2,-1,-2
1532063211347,-4,1,5,22,5,2,-2,0
1532063211352,0,18,-7,-5,-1,-1,-1,0
1532063211357,-4,4,6,-32,-10,-9,-3,-1
1532063211362,3,9,4,3,-4,1,-2,-2
1532063211367,-3,5,-12,5,11,3,0,2
1532063211372,-6,-35,-18,3,-4,0,-1,-1
1532063211377,26,2,-9,11,-3,-3,-5,-3
1532063211382,3,6,1,-8,-2,-3,0,-1
1532063211387,-2,13,15,12,0,2,2,-2
1532063211392,-5,2,-15,-13,1,1,0,-3
1532063211397,-1,0,17,2,-3,0,-2,2
1532063211402,-2,-5,-16,-21,-3,-4,-2,0
1532063211407,-5,-16,0,17,0,-1,2,-1
1532063211412,11,14,14,5,2,3,0,2
1532063211417,-8,-3,-15,7,4,0,-1,-1
1532063211422,-3,2,4,-9,-3,2,0,-2
1532063211427,-4,-6,-1,0,-1,-2,-2,-3
1532063211432,1,3,6,2,-2,-4,1,-1
1532063211437,-6,10,3,3,1,3,1,-2
1532063211442,-4,-3,-3,2,8,3,2,-1
1532063211447,2,-13,-11,-17,-12,-8,-4,0
1532063211452,0,3,8,-13,-4,-4,-2,-1
1532063211457,-6,9,-9,5,-3,0,2,-1
1532063211462,2,-25,7,2,3,-3,-1,1
1532063211467,-1,-2,-13,11,7,5,3,-1
1532063211472,0,23,16,15,0,-2,0,0
1532063211477,-8,-33,-41,-15,-3,-2,-5,-3
1532063211482,1,2,5,-2,-4,-4,-3,-1
1532063211487,-1,0,8,-2,-1,2,2,0
1532063211492,2,11,16,12,6,0,1,0
1532063211497,0,20,-33,-8,-1,-3,-2,-1
1532063211502,-5,-18,-7,-11,-5,-3,-2,-3
1532063211507,-2,-7,-5,13,-3,-4,-6,-4
1532063211512,3,9,8,-3,-6,2,-1,-1
1532063211517,-2,-1,10,5,3,0,0,0
1532063211522,2,12,9,-1,-1,0,-4,0
1532063211527,2,13,-2,-2,-2,0,4,2
1532063211532,-5,-24,-16,-12,3,-2,-2,-3
1532063211537,-2,-3,21,-7,-3,1,-4,-1
1532063211542,1,13,-7,7,1,0,2,1
1532063211547,1,-11,8,8,3,1,2,0
1532063211552,2,-1,-3,8,0,-1,-2,-1
1532063211557,0,0,7,0,0,-1,2,-1
1532063211562,4,12,-13,-6,-5,-1,0,-4
1532063211567,-6,-4,-8,-25,-7,-3,-6,-2
1532063211572,-2,-12,-3,-23,1,1,-4,3
1532063211577,3,4,0,7,3,0,-1,0
1532063211582,-3,8,-29,-6,-4,-1,0,1
1532063211587,2,17,60,16,-3,-4,-3,-1
1532063211592,-8,-44,-51,-6,1,0,-2,-6
1532063211597,3,16,5,5,4,6,3,0
1532063211602,-3,-11,17,-5,-2,0,2,-2
1532063211607,-2,-21,-37,2,0,0,-1,-4
1532063211612,2,5,43,35,4,0,1,0
1532063211617,-7,-12,-32,-52,-9,-5,-6,-7
1532063211622,2,14,21,10,0,1,-1,1
1532063211627,3,-7,-38,-20,-6,-3,-1,-4
1532063211632,-3,13,47,18,1,-1,-1,12
1532063211637,-1,-8,-3,5,0,0,2,-1
1532063211642,-5,-7,-27,-4,-1,-2,-4,-1
1532063211647,3,12,16,12,4,2,1,-2
1532063211652,3,26,-10,-9,-5,0,2,0
1532063211657,-8,-47,-2,-9,-3,-3,-2,-3
1532063211662,2,-1,8,-3,5,-3,0,1
1532063211667,0,-2,-5,5,2,3,-1,2
1532063211672,4,27,-8,-5,-2,-1,-1,-1
1532063211677,-2,9,-3,9,-1,1,2,3
1532063211682,3,-15,3,23,9,0,6,-5
1532063211687,-1,-1,51,12,3,-3,-5,3
1532063211692,0,22,-4,-38,-20,-5,-4,-1
1532063211697,-4,-10,-1,5,1,-1,-2,-3
1532063211702,-5,-67,-7,8,8,1,1,-3
1532063211707,-7,8,-9,-3,5,2,-1,-1
1532063211712,1,-14,-5,6,-9,-2,-2,0
1532063211717,0,5,-15,-8,-5,-5,-2,-1
1532063211722,1,22,10,3,-2,3,-2,2
1532063211727,0,-3,-21,-7,4,-2,5,2
1532063211732,0,-2,7,7,10,0,-1,-3
1532063211737,1,12,13,3,-17,-1,-2,3
1532063211742,-1,3,0,0,10,0,0,-6
1532063211747,-4,-16,-14,-6,-5,0,-1,1
1532063211752,1,11,-7,-5,1,-2,0,-1
1532063211757,0,-14,4,7,4,-1,-2,1
1532063211762,0,13,1,-5,-11,-5,-5,2
1532063211767,4,20,5,-1,1,1,1,-1
1532063211772,-5,-29,-4,0,0,2,1,-4
1532063211777,3,15,11,6,6,0,-1,0
1532063211782,0,0,-6,7,-5,-2,-4,-2
1532063211787,-5,-12,-4,-14,-7,-5,-1,1
1532063211792,5,0,-22,-4,11,10,6,0
1532063211797,12,16,27,0,4,1,-2,-3
1532063211802,-6,-32,-34,-12,-9,-4,-3,-3
1532063211807,10,20,-7,-5,-2,-5,1,-2
1532063211812,-54,-33,6,4,0,2,0,0
1532063211817,-4,11,19,22,8,4,0,-2
1532063211822,9,13,-17,1,3,0,2,1
1532063211827,12,-15,-6,18,10,1,0,2
1532063211832,7,1,-5,-10,-14,-5,-1,2
1532063211837,-7,6,-10,4,0,-3,-2,-8
1532063211842,-4,8,10,-13,-6,0,1,2
1532063211847,-7,-10,-3,-12,-13,-2,-7,-3
1532063211852,13,15,4,21,7,2,-1,0
1532063211857,-1,-2,3,-2,-1,0,8,4
1532063211862,7,-1,-1,-2,-3,-3,-9,-4
1532063211867,5,-3,4,-1,-3,2,5,1
1532063211872,-19,1,0,-11,2,-4,24,-3
1532063211877,7,-5,-8,-4,-9,-6,-25,-2
1532063211882,9,9,15,3,8,3,25,8
1532063211887,-26,5,1,7,6,-1,-17,-11
1532063211892,18,5,2,15,-8,-4,-16,-3
1532063211897,-29,-22,-11,8,0,-3,2,-6
1532063211902,-2,10,5,-10,1,4,1,3
1532063211907,1,-2,0,-15,1,-1,-1,-1
1532063211912,16,7,2,32,8,2,6,1
1532063211917,5,3,1,2,-2,0,-5,0
1532063211922,2,5,1,-22,-1,1,-5,1
1532063211927,-10,-9,-2,22,-2,-1,8,-4
1532063211932,0,1,-6,-2,0,-2,-6,-3
1532063211937,6,2,-19,8,3,1,5,6
1532063211942,-1,0,-7,3,-9,-4,-7,1
1532063211947,-12,1,-5,-4,8,1,-6,-1
1532063211952,14,4,-7,-46,-5,-1,0,0
1532063211957,-13,-11,17,27,9,0,2,-4
1532063211962,13,7,15,-24,-7,-1,19,11
1532063211967,11,8,1,-11,-5,-2,-24,-7
1532063211972,-24,-38,0,-4,-9,-3,-4,-2
1532063211977,11,16,14,-25,-10,2,22,-16
1532063211982,-11,-3,7,57,12,-4,-56,3
1532063211987,13,10,25,-22,8,1,18,-1
1532063211992,-5,-11,-14,-21,-5,1,3,-5
1532063211997,4,-3,8,-11,2,0,0,2
1532063212002,-2,-2,3,15,-2,2,11,1
1532063212007,-18,8,-3,17,-8,-3,-9,-9
1532063212012,7,19,3,-6,8,2,5,16
1532063212017,-1,-32,-15,-15,4,-5,-3,-3
1532063212022,-13,7,-7,-35,-5,3,2,-7
1532063212027,3,0,-11,18,-9,0,5,2
1532063212032,9,20,16,10,7,0,3,-1
1532063212037,-4,-18,-22,8,-4,-3,-5,4
1532063212042,-8,-4,-4,-22,-14,-5,0,-10
1532063212047,12,-10,-5,-70,1,2,1,3
1532063212052,-15,15,7,46,-7,-2,-7,-4
1532063212057,17,22,7,-11,5,3,-13,16
1532063212062,-8,-16,-14,-4,-3,-3,14,-12
1532063212067,2,1,2,45,-3,-5,8,8
1532063212072,11,-4,-2,-22,-2,-2,-16,-5
1532063212077,-3,4,-1,1,2,0,8,2
1532063212082,13,4,0,5,8,3,9,4
1532063212087,-20,-2,4,-17,17,3,23,-7
1532063212092,6,-6,-3,48,-15,-9,-18,10
1532063212097,-10,-5,2,34,-4,-1,9,-2
1532063212102,4,23,4,9,0,-1,-34,-2
1532063212107,-10,-1,-2,-5,-12,1,33,14
1532063212112,50,-35,-13,-17,11,-5,-47,-10
1532063212117,-5,-14,-21,-106,-9,-2,7,-15
1532063212122,16,13,15,112,-1,-3,-11,-2
1532063212127,-12,24,7,-20,-1,0,4,0
1532063212132,-33,-65,-8,31,-1,1,14,-11
1532063212137,4,1,5,-41,-4,1,-10,10
1532063212142,1,-3,1,-59,3,0,11,-2
1532063212147,9,-8,-5,15,-3,-4,-22,-7
1532063212152,-4,24,-1,2,-7,1,27,8
1532063212157,10,10,1,-14,2,1,-19,4
1532063212162,-10,-18,-7,-3,-5,-1,1,1
1532063212167,3,0,2,18,-3,-1,-4,-4
1532063212172,5,18,6,-17,15,4,6,7
1532063212177,-5,31,16,34,7,2,7,-9
1532063212182,-16,-46,-30,-28,-15,-3,-7,7
1532063212187,-2,-14,1,20,-3,-8,-35,2
1532063212192,2,8,1,-16,-3,1,10,-7
1532063212197,10,26,8,18,3,1,0,6
1532063212202,-24,-2,8,-13,4,3,15,-6
1532063212207,8,-16,-7,7,4,4,19,5
1532063212212,3,3,-2,-20,-8,-5,-26,-1
1532063212217,-11,-2,-6,31,-8,-3,4,-4
1532063212222,8,7,2,-8,4,-1,-5,-1
1532063212227,8,6,-4,-6,0,0,2,-4
1532063212232,-7,1,2,-14,2,-2,4,-6
1532063212237,-8,-28,-7,7,-7,-1,-3,0
1532063212242,-2,4,1,4,2,-1,15,-3
1532063212247,3,7,-2,-9,1,2,-21,-16
1532063212252,-2,20,5,1,5,3,2,11
1532063212257,-1,-12,-2,3,-5,-3,1,-2
1532063212262,-1,3,0,-5,0,0,1,2
1532063212267,5,3,4,-1,-3,-1,7,-1
1532063212272,-7,-5,-5,-8,-8,-4,16,-5
1532063212277,-5,-14,-1,2,3,-3,-1,-6
1532063212282,1,10,4,7,4,1,-26,-4
1532063212287,1,-7,-6,-7,-4,-1,9,12
1532063212292,-4,1,-1,-2,-5,2,-9,-7
1532063212297,0,5,1,0,1,-3,8,12
1532063212302,1,2,0,0,-3,-2,10,-5
1532063212307,2,-12,-5,4,1,-2,-13,-4
1532063212312,3,6,4,-2,5,1,5,5
1532063212317,10,6,-1,-11,-4,2,-5,-3
1532063212322,2,-4,-2,-12,-6,-3,-1,0
1532063212327,2,-4,-5,3,7,2,-4,1
1532063212332,-10,1,0,-2,-7,-4,5,-1
1532063212337,2,3,6,-7,8,0,0,1
1532063212342,19,2,-2,54,-1,-1,-11,2
1532063212347,-10,-7,-4,-16,-6,0,8,-4
1532063212352,-13,0,1,-1,1,-1,2,0
1532063212357,33,1,0,14,0,-1,-4,1
1532063212362,-13,4,3,-1,4,3,11,-1
1532063212367,-5,-3,1,0,-2,-1,-2,2
1532063212372,-3,-3,3,13,5,0,-8,-11
1532063212377,-5,0,6,-5,0,0,0,3
1532063212382,-30,-7,-7,-48,-13,-5,-2,-3
1532063212387,9,4,4,22,6,1,-2,4
1532063212392,5,-2,1,-11,0,-1,4,-1
1532063212397,-2,-4,-2,-35,-10,-2,16,2
1532063212402,22,13,5,7,-1,-1,-16,0
1532063212407,-4,2,-1,-16,0,-2,-2,-2
1532063212412,2,-1,-1,19,9,2,0,-1
1532063212417,-11,-1,-4,15,-6,-3,-2,-3
1532063212422,0,-6,1,-7,-8,-4,-1,2
1532063212427,2,0,6,9,5,5,-4,0
1532063212432,-4,8,-4,17,7,5,2,1
1532063212437,16,-8,-13,-56,-10,-2,-3,0
1532063212442,8,5,-1,-1,0,-2,7,0
1532063212447,-18,-5,-1,13,-2,-4,-5,-4
1532063212452,-2,1,6,10,12,2,2,-2
1532063212457,-6,0,-1,11,3,1,-3,2
1532063212462,8,-8,-3,-9,0,0,-1,-1
1532063212467,1,-8,-16,-76,-20,-6,1,-2
1532063212472,6,-1,-4,-13,-7,-3,0,2
1532063212477,-11,4,4,38,6,0,-8,-6
1532063212482,1,6,6,24,7,-3,0,-3
1532063212487,-36,-10,-2,2,2,1,-2,-3
1532063212492,35,7,-6,-15,-5,2,7,10
1532063212497,-38,-5,-1,38,3,4,-3,-5
1532063212502,-15,0,-6,-45,10,-3,0,-5
1532063212507,5,0,5,16,-7,-3,-1,2
1532063212512,-4,-3,-1,4,-1,-3,-3,-8
1532063212517,13,4,-1,-16,-1,1,-4,8
1532063212522,13,-3,2,41,1,3,0,4
1532063212527,-4,5,-4,-14,0,-5,-1,-8
1532063212532,-14,-13,-1,-47,-26,-6,-10,0
1532063212537,-2,-3,-1,32,-1,3,3,2
1532063212542,-15,-13,-7,-10,-1,0,0,-9
1532063212547,26,3,0,18,0,-1,-6,5
1532063212552,7,5,3,8,-7,-3,6,1
1532063212557,-65,-7,4,-9,0,-3,-7,-9
1532063212562,-21,0,8,33,9,8,9,-2
1532063212567,57,21,-12,-32,6,-3,-2,7
1532063212572,28,5,-6,-12,-11,-6,-3,-2
1532063212577,-29,-6,-9,-6,-14,-7,-7,-6
1532063212582,2,0,7,2,3,8,2,4
1532063212587,7,-3,3,24,16,4,11,0
1532063212592,-30,-3,-2,11,-3,-1,-8,-10
1532063212597,60,5,-2,1,5,-5,2,15
1532063212602,-16,-1,-3,-24,-10,-6,-2,-13
1532063212607,2,-7,-10,37,-6,-1,-3,0
1532063212612,-11,-2,-7,-61,-16,-4,0,4
1532063212617,-20,-5,6,14,23,4,7,-13
1532063212622,21,-2,-4,12,-2,-4,-14,5
1532063212627,42,22,5,-7,-2,1,-1,4
1532063212632,-71,-26,-4,4,6,-2,-2,-13
1532063212637,-7,2,-2,28,-1,1,-8,-5
1532063212642,51,9,-6,-33,-4,-3,11,10
1532063212647,-40,-9,6,-7,8,5,-12,-4
1532063212652,17,-1,-4,-32,13,6,6,2
1532063212657,7,1,1,32,-10,0,3,2
1532063212662,-4,-5,2,-12,0,-4,-2,-1
1532063212667,18,10,7,16,-3,-1,4,4
1532063212672,-17,-6,4,-20,9,5,7,6
1532063212677,-4,-11,-9,8,2,-1,-6,-14
1532063212682,-10,-2,-2,6,-11,-6,-6,-3
1532063212687,-12,6,0,-41,-10,-10,-6,-5
1532063212692,17,7,8,23,-11,-2,-3,1
1532063212697,24,-13,-5,8,6,-2,-1,2
1532063212702,-2,0,-4,-13,-6,1,-5,5
1532063212707,-6,1,2,7,3,1,6,-2
1532063212712,9,12,3,26,7,2,0,-4
1532063212717,-2,-13,-4,-51,-11,-6,-11,0
1532063212722,-15,-4,-1,13,-7,-3,6,-6
1532063212727,15,-5,0,15,-16,-9,-6,-2
1532063212732,17,5,5,17,8,-3,-2,2
1532063212737,4,10,5,18,11,7,-11,-12
1532063212742,3,16,9,17,8,3,1,1
1532063212747,-12,-1,-3,19,-1,-4,3,-5
1532063212752,-1,-7,7,39,-4,-5,-7,-2
1532063212757,5,9,1,-9,-6,-5,3,4
1532063212762,-3,-8,-4,-5,-2,0,4,-3
1532063212767,-5,2,2,20,2,-1,-4,-1
1532063212772,-2,6,2,14,-1,0,-8,3
1532063212777,25,0,-3,-6,-1,2,10,7
1532063212782,-33,14,7,0,2,-4,-1,-5
1532063212787,-9,-33,-11,-24,-18,-3,-19,-9
1532063212792,-9,-19,-6,0,12,7,14,3
1532063212797,3,3,-1,4,14,4,3,1
1532063212802,12,15,0,-8,0,1,0,2
1532063212807,-1,18,12,-6,3,-7,7,6
1532063212812,-7,-10,-16,-21,-25,-8,-11,-5
1532063212817,-11,-1,-8,-43,-5,0,-5,-6
1532063212822,2,-4,1,-1,1,2,2,7
1532063212827,-5,2,-3,-16,-2,-2,-2,-2
1532063212832,3,13,7,21,3,-2,-4,-5
1532063212837,-10,-26,2,16,1,-6,-2,-1
1532063212842,-2,-7,-15,-21,-7,-1,-3,-4
1532063212847,6,-1,-3,-4,5,3,2,0
1532063212852,-2,14,6,-5,4,2,0,-2
1532063212857,-9,-8,-3,1,-10,-3,22,-2
1532063212862,5,-6,-5,-11,-3,-6,-41,-1
1532063212867,12,3,0,6,-2,-1,10,6
1532063212872,-2,3,-1,-11,-2,-4,-2,-9
1532063212877,1,-4,4,15,3,1,-10,-4
1532063212882,-1,-4,3,-2,4,-1,5,-2
1532063212887,1,4,-5,9,2,0,0,0
1532063212892,3,0,3,33,-3,-3,-1,1
1532063212897,-4,-5,-3,-12,-2,-4,-5,-3
1532063212902,5,2,1,11,11,9,8,-1
1532063212907,-2,4,-6,-27,-5,2,-1,4
1532063212912,-15,-4,1,10,3,-3,3,-4
1532063212917,-4,-6,-1,17,-1,-2,-4,-3
1532063212922,0,0,-3,-6,-3,-3,5,0
1532063212927,-9,-1,1,9,-1,-1,1,-3
1532063212932,6,-14,-4,-9,0,-1,-5,4
1532063212937,-5,13,-2,5,-4,-3,-3,1
1532063212942,1,-1,2,-10,0,0,2,-4
1532063212947,-7,-1,-3,16,6,4,6,-2
1532063212952,22,4,1,11,-5,-3,-5,0
1532063212957,13,17,8,4,2,0,7,4
1532063212962,-20,-16,0,11,-1,-2,15,8
1532063212967,6,-6,0,-9,-2,-3,-23,-14
1532063212972,-13,1,3,9,7,4,-6,1
1532063212977,-34,-7,-7,-8,-4,-1,2,1
1532063212982,33,-1,0,-6,-5,-3,-3,-13
1532063212987,6,11,1,-13,-3,-3,3,-2
1532063212992,-11,-4,-3,-7,-2,-1,0,0
1532063212997,0,-3,3,2,0,1,-7,1
1532063213002,-13,-1,3,4,2,2,1,3
1532063213007,-2,-15,-13,-17,-7,-3,-1,3
1532063213012,16,7,0,25,3,0,0,-5
1532063213017,9,5,0,-24,-6,0,0,1
1532063213022,-1,5,3,3,1,-3,2,1
1532063213027,3,-7,2,2,-1,-2,2,1
1532063213032,-5,-1,-8,-15,-5,0,3,3
1532063213037,9,10,2,8,0,-1,-3,-4
1532063213042,5,-1,-2,1,0,1,-2,0
1532063213047,-48,-15,0,-8,-2,-2,-5,-8
1532063213052,-1,-4,-6,-10,-1,-3,-1,-3
1532063213057,7,4,6,7,0,-1,-2,1
1532063213062,8,2,-5,15,-4,0,1,2
1532063213067,3,4,3,3,6,3,5,0
1532063213072,-5,-25,-2,-6,-3,-1,-1,0
1532063213077,-1,12,0,-11,3,0,0,-3
1532063213082,3,5,3,-2,-4,-3,-4,1
1532063213087,4,2,-2,-12,-10,-4,-2,0
1532063213092,3,2,-4,-15,4,3,3,-2
1532063213097,8,-3,0,16,4,0,-1,1
1532063213102,-3,3,-1,-11,-3,-6,-3,0
1532063213107,0,3,4,3,2,-3,1,1
1532063213112,3,6,1,-3,-8,-2,2,3
1532063213117,-7,-16,-5,6,9,2,-1,-2
1532063213122,1,7,1,5,5,2,-1,-1
1532063213127,4,-1,-2,-12,-2,1,1,0
1532063213132,-8,-5,3,23,5,1,0,-1
1532063213137,18,3,-4,-24,-13,-6,-4,3
1532063213142,-22,-1,-6,-21,-10,-2,-4,-6
1532063213147,-2,-8,-1,3,-2,2,3,0
1532063213152,1,5,3,3,6,0,-3,-2
1532063213157,-11,-2,1,7,1,1,-2,-1
1532063213162,16,-4,-4,-18,-2,0,0,7
1532063213167,-5,6,-4,-8,-4,-6,-2,-3
1532063213172,-11,0,-1,5,-14,-3,-1,-2
1532063213177,2,-14,-2,15,18,6,2,-4
1532063213182,0,2,1,7,2,3,2,1
1532063213187,5,-3,0,23,11,1,0,2
1532063213192,-1,-11,-3,-45,-14,-6,-3,-2
1532063213197,-5,-2,-4,6,-7,-6,-5,-3
1532063213202,-1,1,3,5,0,2,2,-1
1532063213207,-7,-11,-5,2,-4,-1,-6,0
1532063213212,0,8,4,8,3,-1,3,-2
1532063213217,6,4,2,-5,-6,-3,1,0
1532063213222,-5,-2,1,9,2,-2,3,-3
1532063213227,11,4,-2,-27,1,0,-1,3
1532063213232,4,1,-4,3,-5,-1,-1,-1
1532063213237,-18,-6,0,-3,-4,-3,-1,-3
1532063213242,0,-4,0,5,-2,-4,-4,0
1532063213247,3,3,-1,7,2,-1,-1,-3
1532063213252,-10,-2,-4,-19,4,-2,-1,1
1532063213257,4,3,-1,13,-7,2,2,-2
1532063213262,-3,-6,0,-8,5,3,2,0
1532063213267,-1,-2,5,3,0,0,2,0
1532063213272,-1,9,-4,-25,5,1,-1,-3
1532063213277,0,-18,-6,10,0,-1,0,1
1532063213282,-1,-1,-1,-8,-9,-5,-1,-2
1532063213287,-8,-3,-1,5,1,-2,0,-1
1532063213292,4,5,4,11,-1,-1,-4,1
1532063213297,0,12,13,-3,0,-1,-4,1
1532063213302,-3,-7,-2,9,8,2,0,-4
1532063213307,3,0,0,-5,-10,1,-3,0
1532063213312,2,-1,-1,9,2,-1,-3,0
1532063213317,-4,2,-1,-8,1,-1,-1,2
1532063213322,-2,-4,-7,11,-3,-2,-2,-1
1532063213327,0,0,0,-10,-4,1,3,-3
1532063213332,0,-5,2,9,6,0,0,-1
1532063213337,9,12,-1,-13,-3,-1,0,0
1532063213342,-21,-17,-2,5,1,-2,-1,-1
1532063213347,-18,-9,-8,-5,0,-1,-3,-1
1532063213352,22,-1,0,0,-2,0,-1,0
1532063213357,0,8,-1,-3,3,-2,2,0
1532063213362,-10,-8,0,5,0,-1,0,-2
1532063213367,1,-2,-6,19,1,-1,-2,-1
1532063213372,-4,-4,0,-4,2,-1,1,0
1532063213377,3,-1,-2,-13,-7,-2,-2,-1
1532063213382,10,6,-4,-18,-4,-2,-1,-1
1532063213387,-1,-2,4,2,-5,-1,0,1
1532063213392,-4,1,-2,-4,2,1,0,-1
1532063213397,-3,-6,-3,12,-2,1,1,-1
1532063213402,-5,0,2,36,5,1,-2,0
1532063213407,4,0,-2,-34,5,0,4,-5
1532063213412,4,4,12,-7,-3,-2,-2,0
1532063213417,-4,-2,-1,2,-3,-3,-1,-2
1532063213422,6,5,2,-16,-5,-3,-3,1
1532063213427,11,4,1,17,0,0,3,4
1532063213432,-23,-9,0,1,1,-1,-2,-11
1532063213437,8,6,0,-5,-1,0,0,-4
1532063213442,8,5,-2,11,2,-2,2,4
1532063213447,-2,-9,-2,-8,-5,-4,-3,1
1532063213452,4,0,-4,8,1,0,2,-3
1532063213457,-7,-1,-4,19,1,-1,-4,-1
1532063213462,-21,-14,-4,-26,-7,-1,0,-4
1532063213467,7,3,-2,-2,3,0,-2,2
1532063213472,-11,1,-5,-9,-3,-1,0,-1
1532063213477,8,1,-3,-4,-2,-2,-2,-1
1532063213482,5,1,-2,-15,-4,-2,1,-1
1532063213487,-8,3,5,32,5,4,-3,1
1532063213492,10,-2,-7,-5,-4,2,0,1
1532063213497,-4,-1,2,2,4,0,2,1
1532063213502,9,8,1,-11,-1,-1,-2,0
1532063213507,-10,-6,-1,3,-6,-4,-3,-6
1532063213512,-15,0,-5,5,5,-1,-2,-1
1532063213517,4,3,3,8,-3,-2,-2,3
1532063213522,7,-5,-7,-7,-2,-2,-2,-5
1532063213527,10,18,8,6,5,1,3,0
1532063213532,-22,-21,-6,-8,-3,-1,-2,-1
1532063213537,-6,-8,-1,-5,-3,-3,0,0
1532063213542,-3,5,8,12,1,-1,0,1
1532063213547,3,-13,-16,-22,-3,-2,-3,-2
1532063213552,7,11,6,12,0,-2,1,3
1532063213557,2,-1,5,-11,-2,-1,-2,-2
1532063213562,-2,7,1,8,1,1,-1,-3
1532063213567,2,-14,-13,-8,-2,1,1,0
1532063213572,21,12,13,1,3,0,-3,2
1532063213577,-18,-15,-15,-6,-1,-4,-2,-5
1532063213582,4,10,4,-9,-5,-1,-1,1
1532063213587,1,18,11,-2,-1,-1,0,-1
1532063213592,-7,-34,-12,6,-1,0,0,-1
1532063213597,-1,20,-3,-1,0,-1,-1,2
1532063213602,-1,-7,-1,-1,-1,0,-1,-1
1532063213607,-7,-34,0,8,1,1,-2,-5
1532063213612,2,18,2,-12,-2,0,-1,0
1532063213617,2,-7,1,3,3,-1,-1,-2
1532063213622,-1,12,-10,-14,-3,-1,0,-1
1532063213627,0,11,-1,-6,0,-2,0,1
1532063213632,4,-4,-2,7,-11,-4,1,0
1532063213637,-5,-16,-2,-3,7,1,-2,0
1532063213642,-2,-7,1,3,2,1,-2,0
1532063213647,3,12,6,2,0,0,2,0
1532063213652,-4,-26,-2,7,2,-1,-1,1
1532063213657,-7,9,-8,-20,-7,-2,-6,-9
1532063213662,0,-5,4,3,-4,-3,0,0
1532063213667,2,6,0,2,2,-2,-1,-1
1532063213672,3,11,5,-3,-4,0,0,2
1532063213677,1,-6,6,7,-3,1,4,3
1532063213682,0,-6,1,8,8,-1,0,-2
1532063213687,-2,2,-8,-21,-6,-3,-4,-2
1532063213692,-1,6,-2,-4,0,-1,-1,-2
1532063213697,0,-5,4,4,-1,1,0,1
1532063213702,0,1,-5,1,-6,-1,0,-2
1532063213707,-1,1,2,0,-2,-1,0,-1
1532063213712,0,-4,2,5,2,0,0,0
1532063213717,1,2,-7,-5,-2,0,0,1
1532063213722,0,0,1,5,1,0,-1,0
1532063213727,-2,-5,1,3,-2,-1,-1,0
1532063213732,1,4,-5,-6,2,1,-1,-3
1532063213737,0,3,4,2,-2,-2,0,-1
1532063213742,0,4,1,3,1,0,0,0
1532063213747,-1,-7,-3,-3,-2,-3,-2,-2
1532063213752,0,12,-2,2,-1,-1,-1,-1
1532063213757,-2,-18,1,5,4,2,1,1
1532063213762,0,7,-3,-5,-4,0,-2,-1
1532063213767,-1,2,7,-2,-2,-2,-1,0
1532063213772,0,5,-3,-2,1,-1,-2,-3
1532063213777,-2,2,3,8,-2,-2,0,-3
1532063213782,-1,-7,1,-13,2,-1,-1,0
1532063213787,1,2,-1,3,-1,-1,-1,1
1532063213792,0,0,0,8,1,0,0,2
1532063213797,0,0,-3,9,0,-1,-4,1
1532063213802,0,-3,2,3,2,0,-1,-2
1532063213807,1,2,-3,-3,0,-2,0,-1
1532063213812,-1,1,1,-3,0,0,-1,-1
1532063213817,0,-4,-3,-11,0,0,0,-2
1532063213822,-5,0,2,18,1,-1,-1,-1
1532063213827,3,0,0,9,4,2,-2,1
1532063213832,-5,-10,-12,-27,-9,-5,-5,-3
1532063213837,-1,6,-3,-3,0,-1,-1,0
1532063213842,1,-4,-6,-11,-4,-2,0,-1
1532063213847,-3,-3,2,7,2,0,1,-3
1532063213852,0,0,3,5,2,1,2,0
1532063213857,-1,3,2,-6,-3,-1,-1,1
1532063213862,0,1,0,0,-1,-1,-1,-2
1532063213867,-1,-9,-3,0,-1,-1,-1,-1
1532063213872,-1,-1,-3,2,-1,-1,0,0
1532063213877,0,-1,-1,-4,-2,0,-1,-3
1532063213882,-1,-3,-2,0,-2,-2,-1,-1
1532063213887,-2,3,2,-4,-3,1,-1,-1
1532063213892,-1,-1,-1,-4,-1,-1,0,-2
1532063213897,0,0,-2,3,-1,0,2,1
1532063213902,0,-2,0,-4,-2,-1,-3,1
1532063213907,0,-1,-1,-4,-1,-2,0,-1
1532063213912,-1,-1,2,4,-1,0,0,1
1532063213917,0,-1,-2,-2,-2,0,-2,-1
1532063213922,-2,-3,-3,-3,-1,-2,-2,-2
1532063213927,-2,0,3,-1,-1,1,-2,-1
1532063213932,-1,0,3,4,0,1,-1,0
1532063213937,0,0,1,-3,-2,0,0,-1
1532063213942,1,-2,3,-3,-2,-1,-1,2
1532063213947,-1,1,-2,1,0,0,-3,-3
1532063213952,-1,-4,-1,1,2,-3,-1,-2
1532063213957,0,-1,-2,-2,0,-1,0,-1
1532063213962,-1,-1,-3,-1,-2,-1,-1,-2
1532063213967,-2,-1,-2,-3,-2,0,-1,-1
1532063213972,1,1,-1,5,3,0,-1,-1
1532063213977,-1,-1,-2,-3,-1,-3,-1,0
1532063213982,-1,-1,1,1,2,1,1,1
1532063213987,0,-1,-1,-2,-3,-1,-1,-1
1532063213992,0,-1,-1,-1,-2,-2,-1,-1
1532063213997,-1,0,4,-1,-1,0,0,1
1532063214002,0,-1,-2,-2,-8,-2,-1,11
1532063214007,-5,-3,-3,2,8,0,-3,-30
1532063214012,-1,-1,2,2,0,0,0,-2
1532063214017,-2,-2,-2,0,1,2,-2,-6
1532063214022,0,1,-1,0,0,0,1,-7
1532063214027,-1,-1,-1,-1,-2,-2,0,7
1532063214032,-1,0,-1,-1,-2,-2,-1,3
1532063214037,-2,-2,-1,-5,-4,-2,-3,-1
1532063214042,-1,-2,-2,-4,-1,0,0,1
1532063214047,-1,-1,-1,-3,-4,-2,-1,3
1532063214052,-1,1,-3,-1,-1,1,-1,-2
1532063214057,1,1,0,1,-1,-1,0,3
1532063214062,-2,0,0,0,2,0,-2,-2
1532063214067,0,-1,0,-2,-3,-2,1,3
1532063214072,0,0,0,-1,0,0,2,0
1532063214077,-2,-2,-1,-1,0,-1,-1,-3
1532063214082,-1,0,0,-2,0,0,-2,-4
1532063214087,-1,1,-1,2,5,1,1,2
1532063214092,0,-3,-4,-4,-3,0,-1,2
1532063214097,0,0,-1,1,3,3,0,-2
1532063214102,1,0,0,-1,1,-2,-1,-3
1532063214107,0,0,-1,-1,-2,0,0,4
1532063214112,-1,0,1,0,-1,-1,-2,-1
1532063214117,-2,0,0,0,0,-1,0,-1
1532063214122,-1,-1,-3,-3,0,-3,0,-2
1532063214127,0,-1,-1,-1,-8,-1,-1,2
1532063214132,0,0,0,2,8,-1,0,-1
1532063214137,-1,-1,-2,1,-4,0,-1,-2
1532063214142,-1,-2,-1,0,4,0,-1,0
1532063214147,-1,-1,-1,-1,-1,-1,0,1
1532063214152,-2,-2,1,-2,-5,0,-2,-1
1532063214157,-2,0,-2,-2,-3,-2,0,0
1532063214162,-1,-2,-3,0,0,0,-1,0
1532063214167,0,-1,0,-1,1,-2,1,0
1532063214172,-1,-1,-1,-1,-6,0,-2,-1
1532063214177,-2,-2,0,-1,3,0,0,-1
1532063214182,-1,-1,1,0,-3,-3,-1,-1
1532063214187,-1,-2,-2,-3,0,0,-1,-1
1532063214192,-1,0,1,1,-3,-1,-1,2
1532063214197,0,-2,0,0,-3,0,0,0
1532063214202,1,0,0,-4,0,-1,-1,-3
1532063214207,0,-1,-2,-1,0,0,-2,0
1532063214212,-2,-2,-1,0,3,-1,-1,-2
1532063214217,0,1,1,2,-3,-1,1,1
1532063214222,-2,-1,0,-3,-2,-2,-2,0
1532063214227,-1,0,0,5,3,-3,-2,-1
1532063214232,0,1,-2,-5,-5,0,1,1
1532063214237,-1,2,-1,0,-2,-1,-3,-1
1532063214242,-4,-6,-5,1,4,0,1,-2
1532063214247,0,-1,2,0,-2,-2,-1,-1
1532063214252,-1,-2,-3,-1,2,-4,-2,-5
1532063214257,1,0,-1,0,-1,-2,2,2
1532063214262,0,2,1,2,0,2,2,2
1532063214267,-1,-2,2,4,3,-1,-1,-2
1532063214272,-1,4,2,-2,-4,1,0,1
1532063214277,1,1,-1,3,-2,0,1,1
1532063214282,-2,-10,-5,3,0,-3,-5,-5
1532063214287,0,3,-3,-15,-3,-1,0,-2
1532063214292,-2,-8,-7,-16,-12,0,-5,-4
1532063214297,0,0,6,-7,10,1,1,-2
1532063214302,-1,-7,-2,12,0,3,1,3
1532063214307,-2,0,1,0,3,-2,0,-2
1532063214312,0,4,3,16,-5,-3,0,-2
1532063214317,3,4,1,-14,6,-1,-1,-2
1532063214322,12,6,-2,27,-7,-1,-1,3
1532063214327,-3,18,4,-6,-9,-4,-3,-5
1532063214332,-4,-35,6,4,2,1,3,-3
1532063214337,-7,-13,-15,19,1,-2,-1,-4
1532063214342,0,0,-1,2,5,1,15,1
1532063214347,6,6,-5,-5,-5,0,-28,4
1532063214352,-18,1,2,-54,-4,-3,-1,0
1532063214357,4,16,11,18,0,0,5,7
1532063214362,-14,-31,-13,-8,-1,-4,-12,-10
1532063214367,11,4,8,7,7,5,16,11
1532063214372,1,10,-2,44,17,6,12,-1
1532063214377,-39,-15,-11,-38,-7,-6,-27,-7
1532063214382,1,27,6,-3,-10,-4,5,-3
1532063214387,-5,-19,3,-12,14,3,9,1
1532063214392,13,3,-11,48,1,-2,-11,4
1532063214397,9,9,1,15,-16,-4,5,5
1532063214402,-1,11,21,14,-6,-1,-4,-3
1532063214407,-18,-46,-32,-3,-3,-1,0,-8
1532063214412,6,1,9,0,20,2,8,-13
1532063214417,17,13,2,19,1,-1,-5,21
1532063214422,-10,16,7,-27,-3,-2,-6,-10
1532063214427,16,36,19,18,5,3,-1,1
1532063214432,-33,-29,-11,-10,1,-2,-2,-2
1532063214437,-5,-3,2,16,-3,-3,-6,-12
1532063214442,3,3,-15,-62,-9,-2,6,7
1532063214447,-3,-26,11,3,-8,-3,10,-2
1532063214452,1,-9,1,21,-5,0,-11,-1
1532063214457,5,-4,7,16,9,5,9,-7
1532063214462,-4,-14,-24,-41,-24,-8,-11,-2
1532063214467,-2,22,0,-14,-4,-5,-4,-1
1532063214472,17,30,6,-38,-13,-5,-1,-9
1532063214477,-15,-6,1,21,8,3,2,29
1532063214482,36,-16,-8,30,33,9,21,116
1532063214487,-37,-13,-28,-88,-43,-16,-34,-83
1532063214492,-1,7,5,32,-4,-4,-12,34
1532063214497,10,18,24,7,13,4,11,-19
1532063214502,16,27,-3,-33,-11,0,9,49
1532063214507,-10,-79,-26,-5,3,-2,10,114
1532063214512,-23,-29,-13,14,3,0,6,-81
1532063214517,-5,15,20,-12,2,-2,-40,29
1532063214522,-19,2,8,3,-13,-2,-6,-62
1532063214527,43,45,0,37,5,2,16,31
1532063214532,0,76,34,-19,40,-1,3,8
1532063214537,-3,-55,-41,5,-22,4,17,17
1532063214542,-23,-83,-54,-48,-26,-4,-15,-50
1532063214547,0,15,8,27,-8,0,-4,6
1532063214552,17,45,9,-10,-3,0,-3,14
1532063214557,-2,0,9,-11,19,-3,2,-24
1532063214562,5,-3,17,75,30,5,-5,7
1532063214567,4,-31,5,-4,-12,-5,7,21
1532063214572,-14,2,-14,-2,33,-1,-13,-34
1532063214577,9,42,6,-39,-67,-4,9,14
1532063214582,-9,-13,1,17,11,-1,-4,-18
1532063214587,-4,-35,15,6,7,4,0,-12
1532063214592,9,-26,-23,-24,-12,-11,-2,38
1532063214597,2,9,-16,14,28,-3,-5,-20
1532063214602,-2,20,32,-6,-22,2,2,-15
1532063214607,-4,22,-24,-2,-27,-2,-3,-10
1532063214612,6,-18,-2,16,7,5,5,21
1532063214617,1,2,-6,-16,8,1,2,-15
1532063214622,3,15,9,27,17,0,-3,10
1532063214627,3,12,7,14,40,2,-1,-13
1532063214632,1,-12,-3,-4,-52,-2,3,3
1532063214637,3,6,-8,-24,11,1,-1,-2
1532063214642,2,27,12,-11,15,0,-1,-4
1532063214647,-7,-14,1,6,-3,-2,-4,-18
1532063214652,-2,-30,-26,-9,-13,-1,-3,-4
1532063214657,1,1,11,-12,0,-1,2,-1
1532063214662,-3,-29,-19,8,5,0,0,-8
1532063214667,6,29,9,45,12,7,-1,-3
1532063214672,2,43,22,16,-8,-4,9,7
1532063214677,-3,-68,-29,-25,0,-2,-7,-10
1532063214682,18,28,3,-72,-3,-4,-11,9
1532063214687,-19,-6,-2,38,-19,-3,8,-6
1532063214692,9,16,9,38,14,4,-4,51
1532063214697,5,-4,-24,13,-17,-8,-4,-75
1532063214702,6,1,10,-24,6,3,-2,-3
1532063214707,-10,-28,-10,26,4,-4,-20,-55
1532063214712,0,6,3,-20,-13,-1,13,19
1532063214717,32,42,26,36,13,3,0,20
1532063214722,0,-18,9,45,-3,-3,4,-9
1532063214727,-9,-1,-13,-55,4,0,4,13
1532063214732,-2,-25,-19,-2,-9,-1,-1,-9
1532063214737,-7,14,22,18,17,4,0,7
1532063214742,3,26,16,-2,1,1,7,-6
1532063214747,3,5,1,-6,-7,-5,-4,13
1532063214752,5,-17,1,34,15,5,0,-18
1532063214757,-6,17,4,-41,10,-5,-1,3
1532063214762,-2,38,14,7,-38,-1,1,8
1532063214767,0,-49,-11,16,22,2,2,-2
1532063214772,-1,70,7,-11,-8,0,-9,-9
1532063214777,-16,-115,-15,-1,0,-1,1,7
1532063214782,-5,25,10,17,32,1,1,11
1532063214787,3,53,-7,0,4,8,4,-48
1532063214792,8,-16,29,29,1,1,-1,4
1532063214797,-3,47,-14,-38,-17,-4,2,15
1532063214802,-24,-128,-47,-7,-4,-2,-4,-20
1532063214807,8,32,34,55,29,5,-3,10
1532063214812,1,3,6,-14,-18,-2,0,3
1532063214817,-1,8,-24,-46,-35,-11,-1,-16
1532063214822,1,19,21,33,1,-1,0,7
1532063214827,6,24,11,0,7,2,5,13
1532063214832,-2,-28,-9,14,15,5,-1,-5
1532063214837,-1,12,18,10,2,2,5,4
1532063214842,0,32,-8,-21,-9,-3,-3,-21
1532063214847,-2,-30,5,-37,-15,-5,-4,23
1532063214852,1,8,-18,0,4,0,-4,-5
1532063214857,-15,-58,-7,-5,-11,-1,-3,-4
1532063214862,-4,-37,-29,8,28,1,-2,-8
1532063214867,3,28,12,-4,-25,-1,0,-2
1532063214872,-7,-5,-12,-96,-43,-11,0,-5
1532063214877,14,33,10,50,20,5,4,20
1532063214882,6,69,27,16,-22,4,2,7
1532063214887,-9,-66,-32,-7,7,-7,-5,-1
1532063214892,-1,-15,-4,6,5,-2,-3,-4
1532063214897,-6,-19,2,3,-7,4,-2,1
1532063214902,1,3,-3,-12,5,-2,-7,1
1532063214907,11,53,-1,-38,-13,-3,1,-4
1532063214912,6,27,16,-6,1,-2,0,5
1532063214917,-12,-52,-24,13,10,-1,-1,-5
1532063214922,-20,-61,-34,26,-2,-2,-4,-12
1532063214927,-2,2,5,14,3,0,-1,0
1532063214932,0,7,-6,5,13,1,-1,-4
1532063214937,8,53,16,-8,-10,-3,1,6
1532063214942,3,-2,4,1,-5,-2,1,8
1532063214947,0,5,2,8,17,0,-1,2
1532063214952,-5,-20,-6,-5,-13,-1,-2,-8
1532063214957,-3,-10,-2,19,-3,0,0,0
1532063214962,0,-1,-3,-14,-14,-5,-1,-3
1532063214967,3,5,0,-7,8,3,1,2
1532063214972,-3,-11,4,27,15,2,0,-4
1532063214977,-1,5,-4,14,1,5,2,3
1532063214982,2,17,3,-9,4,-2,-2,3
1532063214987,0,5,7,1,-11,-3,1,-4
1532063214992,-7,-26,-12,-7,2,-3,-3,0
1532063214997,-2,7,1,-12,-6,-5,-4,-5
1532063215002,4,25,18,9,-1,-2,-1,-1
1532063215007,1,9,-1,-1,-8,-2,0,0
1532063215012,-7,-60,-19,-44,-9,-1,-1,-2
1532063215017,-5,-7,-8,-2,17,-2,-2,-2
1532063215022,3,3,8,18,-10,2,2,4
1532063215027,-7,4,7,24,27,1,-5,-3
1532063215032,-4,-4,-12,-22,-9,-4,-4,-8
1532063215037,6,24,9,-9,-38,-1,0,4
1532063215042,2,-3,2,13,29,1,-1,0
1532063215047,3,15,-2,-45,-21,0,4,3
1532063215052,0,-9,7,26,12,1,1,3
1532063215057,-2,-7,-9,-5,4,-5,-2,-2
1532063215062,-1,3,-1,-26,-11,-5,-6,-3
1532063215067,0,-6,-3,21,-5,0,-1,3
1532063215072,-1,11,0,16,16,1,1,-6
1532063215077,0,9,6,2,-8,0,-1,1
1532063215082,-4,14,-11,-15,-12,-4,-3,0
1532063215087,-2,-27,-2,-17,5,0,3,-3
1532063215092,2,0,-2,17,-4,3,0,3
1532063215097,7,24,-7,-17,-13,-8,-2,-20
1532063215102,-30,-55,1,21,13,2,8,14
1532063215107,12,8,-13,-27,-9,-3,-12,9
1532063215112,1,20,14,13,4,2,4,-2
1532063215117,-3,-19,-15,-64,-14,-5,-8,-2
1532063215122,9,26,1,-10,-4,0,4,-5
1532063215127,4,12,13,25,5,1,3,0
1532063215132,-2,-8,-2,6,-2,-2,-4,4
1532063215137,-8,-24,3,17,-2,-6,-1,-4
1532063215142,5,2,-8,-6,2,-1,-4,-3
1532063215147,-10,3,0,-14,-6,-2,0,-6
1532063215152,8,23,12,1,2,1,-3,-1
1532063215157,-3,-12,-5,28,16,6,3,4
1532063215162,4,6,-8,5,-5,3,-1,-1
1532063215167,-2,-11,0,0,-2,-2,-3,-1
1532063215172,-8,-23,-5,-14,-4,-1,0,-6
1532063215177,3,30,11,21,10,4,2,6
1532063215182,-1,-29,-5,-3,-1,-4,-6,-4
1532063215187,-7,-1,-18,20,3,-1,0,-4
1532063215192,1,17,0,-13,-19,-5,-3,0
1532063215197,0,-8,7,2,11,4,2,8
1532063215202,6,0,2,-6,2,0,-1,-3
1532063215207,-7,-24,-11,11,-3,-1,-2,-7
1532063215212,-3,-9,-6,-11,-12,-1,0,0
1532063215217,4,11,2,3,-10,-5,-3,0
1532063215222,2,30,10,-1,2,0,0,0
1532063215227,3,-4,-4,2,-4,-2,3,-1
1532063215232,-7,-37,-4,9,19,5,3,0
1532063215237,0,20,4,5,1,-3,-3,0
1532063215242,-2,-7,-13,-9,-8,-5,-2,-4
1532063215247,0,-12,6,-15,7,-2,0,3
1532063215252,4,22,6,16,-5,3,-1,-3
1532063215257,-2,-4,-3,1,-12,-4,-2,-1
1532063215262,0,1,4,9,3,-3,1,-3
1532063215267,0,0,5,-6,-3,0,-1,2
1532063215272,0,8,-10,-5,11,-1,2,1
1532063215277,0,-8,8,34,23,5,0,2
1532063215282,-2,3,-10,-56,-25,-5,-1,-3
1532063215287,5,13,3,7,0,-2,-3,-1
1532063215292,-4,-10,8,-2,1,-2,4,0
1532063215297,14,-6,-7,1,8,3,1,1
1532063215302,-7,4,-4,4,-3,0,0,-13
1532063215307,-13,-11,7,21,8,3,13,9
1532063215312,-12,-14,-13,-55,-25,-10,-23,-4
1532063215317,15,6,1,22,7,0,2,3
1532063215322,-4,-4,7,11,8,4,8,-1
1532063215327,1,-5,-7,-13,-2,-3,-10,-2
1532063215332,1,20,15,31,35,3,2,-3
1532063215337,-3,-13,-13,-23,-56,-1,0,1
1532063215342,4,11,9,14,19,-4,-2,4
1532063215347,-3,-4,8,-6,-2,6,2,-3
1532063215352,2,-23,-30,-16,-38,-3,4,3
1532063215357,-5,7,18,-3,26,4,-4,-2
1532063215362,-8,-29,-20,-6,-21,-6,-1,-4
1532063215367,6,18,-4,6,28,2,-3,3
1532063215372,3,-18,5,-8,4,2,0,-3
1532063215377,-4,-2,-7,13,5,-2,3,4
1532063215382,5,13,2,-11,7,3,2,5
1532063215387,-1,0,-6,-21,-30,-9,-6,-12
1532063215392,-2,-4,4,-1,-27,3,3,2
1532063215397,-9,2,-8,-14,-10,0,1,-1
1532063215402,5,5,9,12,10,1,-3,2
1532063215407,-1,4,-5,-10,0,-2,-1,-3
1532063215412,6,18,6,-28,6,-3,1,1
1532063215417,8,6,2,-6,-10,-4,-2,1
1532063215422,-32,-27,-10,16,16,1,-2,-5
1532063215427,-20,1,2,40,-5,1,3,-3
1532063215432,5,-3,-3,-34,3,-6,-3,-1
1532063215437,15,9,2,-17,2,-1,-4,-4
1532063215442,-37,-7,8,-7,-1,3,-3,-2
1532063215447,-3,-12,-3,-14,-10,-4,2,2
1532063215452,2,21,-9,24,6,-1,0,-5
1532063215457,-6,-6,4,5,13,0,-1,-2
1532063215462,17,5,-7,14,-12,-2,-3,-1
1532063215467,24,-2,-4,-7,-6,-3,-4,-2
1532063215472,0,17,10,21,3,-3,0,0
1532063215477,-5,-3,-3,-10,8,2,-1,-3
1532063215482,9,2,1,14,-4,3,2,0
1532063215487,2,-25,-7,-5,13,1,-1,2
1532063215492,0,26,11,1,-6,0,-3,-1
1532063215497,-27,-81,-36,6,-3,-8,-5,-8
1532063215502,17,34,13,-6,-12,-1,-2,6
1532063215507,0,-1,-1,-9,8,1,1,2
1532063215512,-4,-12,-7,21,48,13,3,-5
1532063215517,-1,30,0,-38,-74,-9,-3,2
1532063215522,11,-1,1,5,18,-7,-2,1
1532063215527,-1,14,3,-7,-18,2,-5,-4
1532063215532,-5,0,-6,-2,5,-4,0,-1
1532063215537,-3,-9,0,1,28,1,0,-2
1532063215542,5,-8,-8,-2,-8,-2,-1,0
1532063215547,-1,10,9,37,11,1,1,4
1532063215552,6,-9,-4,-17,-3,-1,1,-1
1532063215557,3,9,6,31,17,3,4,1
1532063215562,17,3,-2,-49,-17,-1,-2,1
1532063215567,4,-10,0,35,15,4,3,-1
1532063215572,-19,-12,-9,-2,-23,-6,-9,-5
1532063215577,6,21,13,7,6,1,5,1
1532063215582,24,-11,-7,6,2,-1,-3,6
1532063215587,6,17,5,7,-2,1,1,-2
1532063215592,1,8,6,-21,-12,-5,1,1
1532063215597,-7,-15,0,9,10,1,-1,-2
1532063215602,-5,-16,-8,11,4,3,-1,-3
1532063215607,-5,1,-5,-24,-16,-3,-2,-3
1532063215612,-2,6,6,18,1,-4,-1,2
1532063215617,10,22,15,15,14,4,1,2
1532063215622,-9,-7,-5,-21,1,3,3,-2
1532063215627,-10,-15,-5,-1,-6,-2,-1,-4
1532063215632,4,4,1,-8,-8,-3,1,1
1532063215637,-3,3,3,4,6,-2,-5,-2
1532063215642,-9,7,-2,-3,-8,-5,-3,2
1532063215647,-4,-11,0,-13,-3,-1,-1,-2
1532063215652,2,-20,3,11,7,3,1,2
1532063215657,-6,-1,-6,-16,-5,-4,-1,-4
1532063215662,-7,3,9,15,-7,-3,-3,-3
1532063215667,5,10,-3,0,9,-1,-3,-1
1532063215672,2,-12,2,11,-3,-2,1,1
1532063215677,-5,6,-3,-24,-1,-1,-4,-2
1532063215682,1,7,7,15,3,-1,4,2
1532063215687,-2,-2,1,-18,-5,-1,-3,0
1532063215692,-3,-11,-14,7,-1,-3,-2,-2
1532063215697,1,17,6,28,10,1,2,4
1532063215702,-7,-17,-26,-87,-31,-9,-5,-8
1532063215707,-9,-41,-17,-9,9,-3,-2,-4
1532063215712,-3,9,3,7,-23,0,0,2
1532063215717,8,1,-2,-4,7,0,-3,-1
1532063215722,1,17,9,33,7,4,3,1
1532063215727,13,11,2,-10,-6,-1,-1,2
1532063215732,-30,-9,2,-2,9,0,-1,-5
1532063215737,0,-3,-2,-6,-6,-3,0,1
1532063215742,-5,-17,0,17,1,0,0,-3
1532063215747,-1,7,0,-7,5,2,1,-1
1532063215752,9,21,8,27,9,0,0,4
1532063215757,-9,-39,-9,-36,-16,-3,-2,-2
1532063215762,1,18,1,33,13,0,-2,1
1532063215767,-1,23,18,24,-16,-4,1,-1
1532063215772,-3,-31,-35,-16,12,3,0,-5
1532063215777,-6,-13,-1,1,-2,0,-2,-1
1532063215782,2,-5,2,4,6,0,-2,2
1532063215787,5,37,9,7,-3,-4,-2,0
1532063215792,7,43,17,-30,-9,-1,0,2
1532063215797,-9,-64,-33,29,-5,-3,-2,-7
1532063215802,0,10,3,8,5,3,2,2
1532063215807,-3,27,0,1,-1,2,0,0
1532063215812,-1,-37,-8,2,-2,-4,0,-4
1532063215817,1,31,5,-14,-2,2,-2,-1
1532063215822,-5,-29,-11,1,1,-2,-3,-3
1532063215827,-1,-8,4,4,4,0,-1,1
1532063215832,13,-9,-6,-7,3,0,1,2
1532063215837,-23,24,3,-16,-7,-6,-1,-6
1532063215842,-2,2,10,15,10,2,0,-2
1532063215847,-3,-6,-6,-2,-13,1,-1,0
1532063215852,4,2,1,-23,2,0,0,1
1532063215857,5,0,1,-4,-6,-1,-2,1
1532063215862,0,12,8,-24,-2,-1,1,-3
1532063215867,-4,-32,-8,7,5,1,0,-1
1532063215872,-3,10,9,35,7,0,-1,-1
1532063215877,11,5,-2,-42,-7,-1,0,-1
1532063215882,1,8,3,24,-6,0,-3,2
1532063215887,-8,-8,-2,5,-2,-4,-2,-1
1532063215892,-2,-22,-14,7,2,-1,0,-4
1532063215897,-1,4,-3,-6,3,-4,0,-1
1532063215902,7,3,-1,-22,-3,0,2,-1
1532063215907,15,2,-4,-15,-3,-1,-1,0
1532063215912,-27,-1,2,-39,-17,-5,-9,-3
1532063215917,3,-2,6,21,10,7,3,1
1532063215922,-15,-7,-6,3,5,0,-3,-3
1532063215927,9,22,8,2,2,-1,0,1
1532063215932,4,-22,-1,-7,-5,0,-1,2
1532063215937,22,6,0,-15,-3,-2,-1,7
1532063215942,-43,-13,-8,-13,-9,-6,-3,-10
1532063215947,4,6,2,-1,-1,0,1,2
1532063215952,-19,-3,6,11,-8,-2,-5,-4
1532063215957,-4,4,4,11,8,4,0,-1
1532063215962,12,-4,-7,-18,-3,-2,2,3
1532063215967,-6,-2,2,17,-2,-6,-3,-2
1532063215972,10,13,6,16,0,1,1,1
1532063215977,2,7,6,-7,1,0,-1,1
1532063215982,9,-31,-15,-15,7,2,-1,-3
1532063215987,-25,-5,-5,1,-7,-4,0,-4
1532063215992,16,9,-4,1,-14,-2,-3,2
1532063215997,-8,9,3,18,7,1,0,0
1532063216002,9,13,12,-2,-8,-1,-1,1
1532063216007,3,-17,-6,-6,0,1,-1,-1
1532063216012,-1,7,0,-15,1,-1,-1,-2
1532063216017,0,0,11,13,4,-1,-1,-1
1532063216022,3,-8,-12,28,-4,-2,-2,-1
1532063216027,18,-8,-7,-54,-4,-3,-2,1
1532063216032,-3,13,3,39,12,3,0,2
1532063216037,10,4,3,-4,-6,-2,-6,1
1532063216042,-12,-6,8,14,-1,-2,0,-4
1532063216047,6,-5,-2,-2,13,1,-1,-2
1532063216052,-11,-3,-12,-11,-4,-3,-1,-4
1532063216057,5,-3,-4,11,-6,-2,2,1
1532063216062,-16,14,4,-1,4,3,2,1
1532063216067,-13,4,6,-6,-1,1,-5,2
1532063216072,21,2,4,7,-2,0,2,0
1532063216077,-5,-2,-8,-5,-8,-1,-1,-2
1532063216082,-4,0,-1,-9,-6,-5,-5,-3
1532063216087,9,-3,-6,-23,-2,0,3,-3
1532063216092,5,6,3,4,7,2,1,1
1532063216097,-8,-3,0,15,1,-1,-2,-1
1532063216102,14,0,2,13,7,4,4,1
1532063216107,4,-6,-1,-44,-10,-2,-3,0
1532063216112,-3,1,0,-10,-2,-4,-1,-4
1532063216117,7,-3,-1,-16,3,-2,1,-2
1532063216122,-18,2,-4,-6,-17,-3,-3,-2
1532063216127,-3,9,14,43,8,3,-3,1
1532063216132,-6,-23,-20,-22,-1,-3,18,6
1532063216137,14,32,9,-7,1,0,-23,-11
1532063216142,15,-24,7,20,15,-1,3,2
1532063216147,-15,-66,-37,-8,-11,-4,-4,-9
1532063216152,2,13,13,14,3,2,11,0
1532063216157,-20,-6,-1,18,2,0,-9,1
1532063216162,18,23,-4,-1,-2,0,1,7
1532063216167,7,27,5,12,-7,-2,1,-1
1532063216172,-16,-22,-2,2,-1,-1,-6,-1
1532063216177,8,-6,-7,-4,2,-2,7,3
1532063216182,-4,-5,7,-6,-4,0,-7,0
1532063216187,-25,-3,-3,-1,-2,-1,0,-6
1532063216192,0,2,-3,-4,1,0,-7,-4
1532063216197,-5,3,0,5,-12,-2,5,2
1532063216202,4,2,3,4,11,2,-2,-2
1532063216207,-5,-5,-7,7,8,6,16,4
1532063216212,12,8,-1,-25,-4,-1,-17,-3
1532063216217,-13,-15,-2,-1,-4,-2,-1,-7
1532063216222,7,9,1,3,-1,-2,4,3
1532063216227,4,4,-2,-6,-8,-3,-3,-1
1532063216232,19,8,6,2,0,1,-1,3
1532063216237,-9,-7,-3,7,7,0,-3,2
1532063216242,1,-4,-7,-12,-10,0,8,9
1532063216247,-4,11,10,6,10,1,-9,-10
1532063216252,9,-1,-3,-3,-1,3,2,0
1532063216257,4,-5,1,-9,-8,0,5,0
1532063216262,-15,0,-2,-9,-2,-3,-3,-2
1532063216267,1,-1,2,-15,-6,-3,-6,1
1532063216272,0,1,1,11,-1,-1,3,1
1532063216277,-10,2,0,5,7,3,2,0
1532063216282,18,3,1,9,-1,-2,-7,-7
1532063216287,4,1,1,-2,-4,-3,-3,5
1532063216292,-6,3,3,8,1,-2,-3,-6
1532063216297,-4,-5,-3,-17,-6,-1,2,2
1532063216302,1,1,1,6,-1,3,2,0
1532063216307,14,5,1,-19,-5,-3,3,3
1532063216312,-15,-1,-2,10,-8,-3,-4,-3
1532063216317,13,4,1,0,1,1,0,-2
1532063216322,-10,-11,0,0,7,1,1,0
1532063216327,4,3,-3,-5,4,-2,-2,-2
1532063216332,-7,-11,-6,5,-21,-8,-6,-1
1532063216337,2,-2,-2,-9,4,1,2,0
1532063216342,4,3,-1,2,2,0,0,-1
1532063216347,-6,1,4,15,7,1,2,-1
1532063216352,-2,2,0,-2,4,1,-2,-1
1532063216357,-8,-6,-5,-14,-2,-4,0,-2
1532063216362,-3,16,8,21,-10,-3,-1,0
1532063216367,-6,7,5,-31,5,2,2,0
1532063216372,9,-33,-15,11,2,-1,-1,-4
1532063216377,-35,-15,-11,7,-3,-4,-9,-4
1532063216382,-1,0,-1,-25,-1,0,0,-3
1532063216387,7,20,5,18,-9,-3,-1,3
1532063216392,1,12,6,-7,7,1,3,0
1532063216397,4,-25,-9,-26,0,2,5,1
1532063216402,-1,0,-3,16,-2,-3,-6,-2
1532063216407,0,0,1,-2,-1,-4,-2,-3
1532063216412,-3,6,-3,3,-7,-2,0,2
1532063216417,4,8,5,19,6,-3,0,-1
1532063216422,-3,-8,-5,-4,-1,3,2,-1
1532063216427,8,-21,-15,-6,-5,0,0,3
1532063216432,13,11,4,-11,2,-1,-1,0
1532063216437,2,12,4,4,-2,-1,-1,-4
1532063216442,-4,18,-1,-7,-2,-3,-1,-1
1532063216447,0,-48,6,5,-2,-1,-2,1
1532063216452,-13,4,-12,-15,3,0,-5,-5
1532063216457,7,8,9,4,-3,-3,1,1
1532063216462,3,-10,-4,-6,3,1,2,-2
1532063216467,-13,12,1,13,9,0,-3,-5
1532063216472,-2,5,6,10,6,2,5,4
1532063216477,20,8,5,-21,0,0,-2,3
1532063216482,-30,2,2,-5,-9,-5,-4,-9
1532063216487,-10,-4,-7,10,-7,-6,-3,-1
1532063216492,18,11,4,11,0,0,-2,1
1532063216497,-28,-15,-7,-2,3,0,2,-3
1532063216502,-12,-7,-8,-14,-3,-1,0,-1
1532063216507,-3,2,4,-7,-3,2,-6,-5
1532063216512,-12,1,-3,-3,9,0,1,-1
1532063216517,10,6,2,-6,-8,-1,9,2
1532063216522,8,-4,2,3,-9,-4,-19,-1
1532063216527,-10,-8,-5,6,2,1,6,-2
1532063216532,11,0,1,-13,-1,-2,0,1
1532063216537,-2,-2,-1,20,3,-1,-3,-2
1532063216542,3,-6,-7,1,-3,-4,3,-3
1532063216547,2,18,3,-10,-1,-3,-1,1
1532063216552,-4,3,-2,-6,-1,4,-1,-3
1532063216557,1,-29,-9,-2,0,2,2,-1
1532063216562,3,4,6,2,6,-1,2,5
1532063216567,0,13,-2,-10,-6,-2,-2,-3
1532063216572,-11,-6,-3,5,2,0,-1,-1
1532063216577,7,4,-8,11,8,-1,-4,0
1532063216582,-1,8,3,-3,-1,1,1,-1
1532063216587,1,-3,-1,-3,1,1,0,3
1532063216592,2,-9,0,-1,-7,-3,-3,-2
1532063216597,-8,12,4,-4,-5,-1,-4,0
1532063216602,16,-11,-1,4,3,-2,-1,0
1532063216607,-9,-14,-19,-6,-8,-2,1,-5
1532063216612,-8,3,7,-3,8,2,1,-1
1532063216617,14,11,-3,-11,-9,-4,-2,3
1532063216622,-2,-18,0,9,8,-1,3,0
1532063216627,-2,3,1,1,-1,2,-3,2
1532063216632,1,3,6,8,4,-1,4,4
1532063216637,-5,-6,0,-2,-3,-3,-4,-5
1532063216642,-1,2,-3,-72,-11,-2,2,-3
1532063216647,1,-6,-5,14,4,-1,-2,-2
1532063216652,3,-4,-2,-6,-3,-2,-3,1
1532063216657,-9,13,7,17,2,-3,0,-2
1532063216662,-1,1,0,7,-3,1,0,1
1532063216667,7,-6,-6,-8,2,2,0,1
1532063216672,-3,5,2,8,1,-3,-1,0
1532063216677,-3,-9,-3,-8,-3,2,-1,-2
1532063216682,7,-3,-4,11,-3,-1,-1,2
1532063216687,-20,2,2,-1,5,-1,0,-4
1532063216692,6,-1,0,-1,0,1,-5,5
1532063216697,-2,-1,1,-22,-5,-1,2,-5
1532063216702,4,0,-1,0,-5,-3,1,-4
1532063216707,14,13,9,-1,-1,1,5,-2
1532063216712,-21,-10,-2,-9,0,-4,0,-4
1532063216717,2,-7,-8,0,-11,-2,-7,-1
1532063216722,-3,3,0,11,6,2,0,2
1532063216727,-1,-5,5,-3,-6,-2,-2,0
1532063216732,-3,1,-1,3,-1,-1,-1,-4
1532063216737,4,3,2,5,4,0,1,1
1532063216742,-3,-2,-3,11,4,1,-3,-1
1532063216747,2,3,2,4,1,-1,-2,4
1532063216752,5,0,-5,-7,-7,-3,-3,-1
1532063216757,0,-5,5,14,4,2,2,0
1532063216762,0,2,-2,-13,-1,-1,1,-1
1532063216767,-1,-8,-9,-16,0,-2,0,-1
1532063216772,-2,-5,-5,8,-8,-2,-1,-2
1532063216777,-3,10,2,-3,-7,-5,-1,-2
1532063216782,-1,-10,4,4,-5,0,-1,-2
1532063216787,-2,-5,-7,9,7,-2,-3,-2
1532063216792,1,1,3,1,3,0,2,-1
1532063216797,-5,1,-3,2,-4,1,0,1
1532063216802,7,8,-1,3,6,-2,-2,0
1532063216807,4,2,1,0,-8,-2,-2,-2
1532063216812,8,-4,-4,-5,0,0,-2,-4
1532063216817,2,-6,-2,10,2,-3,-2,1
1532063216822,-4,-2,-1,-10,-1,2,-1,-2
1532063216827,0,2,1,-12,-6,-1,0,0
1532063216832,-6,6,1,20,-10,-2,-1,2
1532063216837,-6,-6,-1,12,-3,-3,-5,-5
1532063216842,0,-9,-14,-1,0,0,0,-1
1532063216847,-1,-2,-2,3,-5,1,-1,1
1532063216852,-4,0,-2,-16,3,1,4,-1
1532063216857,1,-1,1,-3,1,-1,0,1
1532063216862,-3,1,1,-13,4,1,0,0
1532063216867,-1,5,3,-1,0,0,1,-4
1532063216872,-5,-7,1,13,-7,-1,-3,-1
1532063216877,-3,-3,-3,3,3,-1,-1,0
1532063216882,5,6,1,-16,0,-2,-2,-2
1532063216887,-3,-1,1,8,-7,0,1,0
1532063216892,3,0,1,-6,12,6,3,-1
1532063216897,2,0,1,-11,-2,0,-2,-1
1532063216902,-3,-1,0,5,-1,-2,0,-1
1532063216907,-1,0,0,3,-3,-2,-1,0
1532063216912,4,-1,2,-5,-5,-3,-4,0
1532063216917,-2,1,-2,1,1,1,1,0
1532063216922,-4,-1,2,-2,0,-3,-1,-2
1532063216927,-1,-4,-1,-11,-6,-1,0,-1
1532063216932,2,0,1,16,6,-1,1,0
1532063216937,-13,-5,-3,-7,-2,1,1,-2
1532063216942,2,1,2,20,-2,-1,-3,0
1532063216947,-1,-2,-3,9,0,-3,-2,-1
1532063216952,-4,1,3,-10,-5,-2,-3,0
1532063216957,4,1,-1,-6,2,1,0,-1
1532063216962,2,-2,0,12,2,1,4,3
1532063216967,-19,-1,-3,0,0,0,-2,-5
1532063216972,3,2,-4,-9,-3,0,1,-2
1532063216977,5,-1,0,8,-1,-2,-1,-1
1532063216982,-9,1,-1,-1,-8,1,-2,-2
1532063216987,7,-2,6,2,13,1,1,1
1532063216992,-2,-3,-4,-15,-5,-1,-1,-1
1532063216997,-4,-5,-10,1,-1,0,-1,-1
1532063217002,-1,1,4,7,-1,0,-2,4
1532063217007,4,1,-8,-20,-5,-4,-3,-2
1532063217012,-4,-1,-2,5,-4,-2,-2,-2
1532063217017,3,-3,1,1,2,3,1,2
1532063217022,-3,-1,-5,-2,2,1,1,-3
1532063217027,11,15,5,13,-1,-2,-2,1
1532063217032,-5,-29,-2,-10,-5,-2,-3,0
1532063217037,-2,-5,-6,-4,-2,-7,-5,-6
1532063217042,-6,-5,2,2,3,-1,1,0
1532063217047,-4,2,0,-8,8,5,1,2
1532063217052,5,10,-5,-16,-11,-3,-3,-1
1532063217057,2,3,12,8,1,1,2,3
1532063217062,-2,-4,-2,-10,-3,-3,-1,0
1532063217067,-29,-6,-4,-1,-8,-2,-5,-9
1532063217072,-1,5,1,1,9,1,2,0
1532063217077,3,-1,3,2,5,2,1,-1
1532063217082,2,5,1,4,0,-2,-2,-1
1532063217087,7,-5,0,5,-1,-1,1,3
1532063217092,-3,-2,0,2,-1,1,-1,-1
1532063217097,-3,2,-6,-7,-2,-2,1,-4
1532063217102,3,-2,-4,11,-2,-2,-2,-2
1532063217107,2,-9,-6,-21,-3,-2,-2,-3
1532063217112,-3,1,-2,-14,-5,-3,0,-4
1532063217117,5,6,1,3,-2,0,2,0
1532063217122,-2,-1,0,0,-1,-1,0,0
1532063217127,9,-1,2,6,1,-1,2,5
1532063217132,14,5,-1,8,5,0,-2,-6
1532063217137,0,5,-2,-2,-5,-1,-1,-3
1532063217142,3,7,0,-8,-4,0,-2,0
1532063217147,-6,-24,-6,0,0,1,-2,-3
1532063217152,-5,0,-2,4,1,-2,-1,-2
1532063217157,-3,-2,-2,-2,-3,1,-1,-1
1532063217162,1,2,-6,0,-1,1,1,-2
1532063217167,3,13,7,7,1,-1,2,2
1532063217172,-2,-3,3,2,1,2,2,2
1532063217177,0,-1,-1,-6,-1,-3,-1,2
1532063217182,-2,0,-3,-4,-3,-2,0,1
1532063217187,2,-2,0,4,-2,0,-1,-1
1532063217192,-3,-1,0,1,-1,0,-2,-2
1532063217197,1,1,0,-3,-1,-1,-1,-2
1532063217202,-1,-6,-4,-12,-3,0,-2,1
1532063217207,1,2,0,11,-1,1,1,-1
1532063217212,-1,2,-4,0,3,-3,-1,1
1532063217217,-1,1,4,1,-12,-1,-1,0
1532063217222,-1,-5,-3,-1,8,-1,-2,-3
1532063217227,-2,0,-2,2,-1,0,-2,-3
1532063217232,-2,1,3,4,3,3,0,0
1532063217237,2,-6,-2,-9,-1,-1,1,3
1532063217242,-7,-1,2,1,-4,-1,-1,-4
1532063217247,0,7,6,10,1,-2,-1,-1
1532063217252,-1,2,4,1,0,-2,1,-1
1532063217257,-3,-3,0,-1,1,-1,-1,-2
1532063217262,4,2,2,4,0,1,3,4
1532063217267,-1,-5,-9,-19,-3,-3,-2,-2
1532063217272,-3,-2,-1,2,-2,0,-2,-3
1532063217277,-1,-3,-3,-3,2,-1,-1,-1
1532063217282,2,0,4,5,2,-2,-1,-1
1532063217287,-1,2,5,15,0,0,0,2
1532063217292,1,-2,-8,-16,-5,-3,-2,0
1532063217297,0,0,-2,1,3,2,0,0
1532063217302,0,-2,-2,-3,-3,-2,-2,-4
1532063217307,-1,3,4,2,-3,0,2,-1
1532063217312,-1,-1,2,1,-1,-1,2,1
1532063217317,1,3,5,2,2,-1,-2,-1
1532063217322,-1,-4,-3,1,-3,0,1,-1
1532063217327,0,-1,-3,-2,3,0,1,-2
1532063217332,0,0,1,3,3,0,1,1
1532063217337,0,-3,-2,-1,-1,-1,-1,-1
1532063217342,1,-1,0,-1,-1,-3,-1,-2
1532063217347,-1,0,-1,2,-4,-2,-2,1
1532063217352,1,1,-2,2,-2,2,0,1
1532063217357,-2,-3,-4,-5,0,0,0,-1
1532063217362,-1,-1,-1,-3,-5,-1,1,0
1532063217367,1,-1,-1,-1,4,-1,-2,0
1532063217372,-2,1,2,3,2,0,-1,0
1532063217377,-1,-1,-1,-1,-1,-2,0,-1
1532063217382,-2,-1,0,1,-1,1,-1,-3
1532063217387,1,0,1,0,1,2,2,1
1532063217392,1,2,2,1,1,-2,1,1
1532063217397,-2,-3,-1,1,-9,-2,-3,-3
1532063217402,-1,-2,3,3,9,0,0,-1
1532063217407,-2,-5,-7,-8,-3,-2,-3,-1
1532063217412,-2,-2,-2,-8,1,-2,-2,-1
1532063217417,-2,0,0,2,0,0,0,-2
1532063217422,-1,-1,0,-1,-3,-2,-1,-1
1532063217427,-1,3,1,4,0,0,-2,-1
1532063217432,0,-1,0,3,-3,1,0,0
1532063217437,-1,-2,-2,-5,0,0,0,-2
1532063217442,-1,-2,-1,-2,-3,-1,-2,-1
1532063217447,-1,-2,-2,-1,2,-3,-1,0
1532063217452,-1,-2,-4,-1,-9,-3,-3,-2
1532063217457,2,0,1,2,7,4,1,1
1532063217462,-1,0,1,-3,-5,-3,-1,-1
1532063217467,-1,1,-4,-2,-1,-2,0,0
1532063217472,-1,0,2,3,1,2,1,-2
1532063217477,-1,0,-3,1,-1,-3,-2,-1
1532063217482,0,-2,-2,-2,0,1,-1,1
1532063217487,-2,-1,0,-3,-6,-3,-1,-2
1532063217492,-3,-1,-3,-2,-2,-4,-3,-2
1532063217497,-2,-1,-1,-5,0,0,0,-1
1532063217502,-1,-1,1,0,-2,0,-4,-2
1532063217507,0,-3,-7,-5,-6,0,-2,0
1532063217512,0,-2,-1,1,1,0,0,-3
1532063217517,2,-2,-2,-1,-3,0,-3,-1
1532063217522,1,0,0,0,5,1,0,0
1532063217527,-2,0,1,1,0,0,-1,0
1532063217532,-1,-3,-2,-4,-2,-2,-2,0
1532063217537,-1,-1,-1,1,-1,0,0,0
1532063217542,-1,0,-1,3,-8,0,-1,-1
1532063217547,1,-2,-4,-6,7,1,-1,-1
1532063217552,-1,-1,-1,0,-2,0,-2,-1
1532063217557,-2,0,0,1,-3,-3,-2,0
1532063217562,-1,0,-2,1,-2,-1,-1,1
1532063217567,-1,-3,0,-2,-1,-1,2,-2
1532063217572,-1,1,-1,-1,-2,-2,0,0
1532063217577,0,-1,0,-1,-3,-2,0,0
1532063217582,-1,-4,-4,-4,0,-1,-1,-2
1532063217587,0,0,2,3,0,0,0,0
1532063217592,0,1,3,-1,2,-1,-1,-1
1532063217597,0,0,0,-2,1,0,1,0
1532063217602,-1,-1,-1,-6,-1,-3,-2,0
1532063217607,-1,0,2,1,-2,-3,-1,-2
1532063217612,0,0,-1,1,1,0,-1,-1
1532063217617,0,-2,-1,-2,0,-3,-1,-3
1532063217622,0,2,-1,0,-9,-1,1,1
1532063217627,0,1,1,0,11,1,0,0
1532063217632,0,-1,0,1,-2,-1,-1,-1
1532063217637,-1,-1,-3,-2,-1,-1,0,-1
1532063217642,0,-3,-2,-3,0,-1,0,-1
1532063217647,0,0,1,0,-5,0,-1,0
1532063217652,1,-2,-3,-1,-3,-1,0,0
1532063217657,-1,1,-1,1,1,0,-1,1
1532063217662,-3,-3,0,-3,-1,0,0,-2
1532063217667,-1,-1,0,0,-4,-2,0,0
1532063217672,-1,-2,-1,-1,1,0,0,-1
1532063217677,0,0,-1,-2,-1,0,-1,-1
1532063217682,-1,-1,1,3,1,-2,0,-2
1532063217687,-1,-1,-2,-2,-4,-2,-1,-1
1532063217692,0,0,0,-2,-1,-2,-2,-1
1532063217697,0,-2,0,0,-2,1,0,-1
1532063217702,0,-1,0,-2,2,1,-2,-1
1532063217707,-1,-2,-1,-3,-2,0,-1,-2
1532063217712,-1,-2,-1,1,2,-1,0,-1
1532063217717,-1,-1,-1,-4,0,-1,-1,0
1532063217722,0,0,0,-1,-6,-1,0,-2
1532063217727,0,-1,-1,0,3,-2,-1,-2
1532063217732,0,1,0,1,3,3,1,0
1532063217737,0,0,2,2,3,2,-1,-1
1532063217742,-1,-1,-3,-3,0,-1,-1,-3
1532063217747,0,0,-2,-1,-5,0,0,2
1532063217752,-2,0,1,-1,-2,-3,-1,0
1532063217757,-2,-1,0,0,1,1,-1,0
1532063217762,-1,0,-1,0,2,1,-2,0
1532063217767,0,-1,0,1,-2,1,-2,-1
1532063217772,-2,-1,-2,-2,0,-2,-1,0
1532063217777,-2,-1,-2,-3,-3,-2,0,-2
1532063217782,-1,0,1,-1,2,-2,0,-1
1532063217787,-2,-2,-2,-1,-2,-1,-3,-1
1532063217792,-1,-2,-3,-2,-3,-1,-2,0
1532063217797,1,-1,2,3,0,0,1,-1
1532063217802,0,1,2,-1,7,2,0,-1
1532063217807,-3,-1,-3,-4,-6,-3,-1,-1
1532063217812,1,1,1,-2,1,1,0,-2
1532063217817,0,-2,-3,0,-3,-3,-4,-2
1532063217822,0,-1,0,-1,-1,0,-1,1
1532063217827,-1,0,1,1,1,-1,0,0
1532063217832,-2,-2,-2,-2,-4,-3,-2,-2
1532063217837,0,0,-2,-1,0,-1,0,-3
1532063217842,-4,-4,-1,-2,0,1,-2,0
1532063217847,0,1,0,-1,0,-1,0,-1
1532063217852,-2,-2,-1,-2,-3,-1,-2,-1
1532063217857,0,-1,-1,0,-1,-1,0,0
1532063217862,-1,-1,-2,-1,0,-2,-1,-1
1532063217867,0,1,-1,-1,-2,0,3,0
1532063217872,0,0,3,0,-1,2,-1,1
1532063217877,-3,0,-3,-2,2,1,0,-1
1532063217882,-2,0,-2,0,-5,-3,-1,-2
1532063217887,-1,-2,-1,-4,-2,-2,-1,-1
1532063217892,-1,-1,-1,0,-3,-1,1,-1
1532063217897,-1,-3,1,1,4,1,-2,0
1532063217902,0,-1,-2,-1,0,-1,1,-1
1532063217907,-1,-2,-2,-1,0,0,-1,-1
1532063217912,0,1,-2,-1,1,-1,1,-1
1532063217917,-3,-2,-2,-1,-2,0,-1,0
1532063217922,0,0,0,1,-1,-1,0,-1
1532063217927,0,-1,1,0,0,0,0,-1
1532063217932,-1,-3,-1,0,-1,-4,0,-1
1532063217937,1,1,-7,-3,-3,-1,0,-2
1532063217942,1,10,0,-3,2,-1,-1,-1
1532063217947,-2,-15,-1,0,-1,-2,-1,-1
1532063217952,-2,3,-5,1,2,1,0,-2
1532063217957,-1,0,2,1,-1,-2,-1,1
1532063217962,0,-3,-2,-1,-2,-1,0,-1
1532063217967,0,11,-1,-2,-7,1,-2,-1
1532063217972,0,-10,-1,0,13,1,1,-1
1532063217977,0,-2,1,-2,-7,-2,-1,-2
1532063217982,-2,-2,-2,0,2,0,-2,-1
1532063217987,1,-1,-1,0,0,-2,-1,-1
1532063217992,-1,0,-2,-1,-4,0,-2,-1
1532063217997,-2,0,-1,-1,-2,0,-1,0
1532063218002,0,-4,-3,1,-3,-1,1,-1
1532063218007,-1,-1,-2,1,3,1,1,0
1532063218012,-1,2,-1,-2,-5,-2,-2,-1
1532063218017,-2,1,-2,-2,-1,-3,-1,-1
1532063218022,0,-2,-2,1,-1,-1,0,-1
1532063218027,-2,-2,-3,0,1,-2,-2,0
1532063218032,0,1,0,0,-1,-3,1,2
1532063218037,0,-1,0,1,1,1,0,0
1532063218042,-1,-5,0,1,1,0,1,0
1532063218047,1,0,-2,-4,-1,0,0,0
1532063218052,-1,-1,1,1,-1,-1,-1,0
1532063218057,-1,-2,-2,-1,-1,0,-1,-1
1532063218062,-1,0,0,-4,-2,-2,-2,-1
1532063218067,0,2,1,1,-7,-1,1,-1
1532063218072,-1,0,-2,0,3,2,0,-1
1532063218077,0,-2,2,0,1,0,-1,-1
1532063218082,-1,0,-1,-3,-2,-1,-1,0
1532063218087,-1,0,-1,-2,1,-2,-2,-1
1532063218092,-2,-2,0,0,-7,-1,-2,-1
1532063218097,2,-1,0,0,3,0,-1,-1
1532063218102,0,-1,1,2,3,2,1,-1
1532063218107,-3,0,3,0,-2,-3,-1,-2
1532063218112,-1,1,0,-1,0,0,-1,-1
1532063218117,-1,1,-2,-2,-1,-1,-1,1
1532063218122,-1,0,-1,0,-6,-3,-2,-2
1532063218127,-1,-1,0,-1,-1,0,1,0
1532063218132,1,3,-2,0,-3,-1,-2,-1
1532063218137,-1,-9,-1,-2,-3,-2,-1,0
1532063218142,1,4,-1,1,3,1,-1,-1
1532063218147,0,-1,0,2,4,1,0,-1
1532063218152,0,-1,-2,-2,-2,-2,-1,-1
1532063218157,-2,2,1,-1,1,-1,-2,-1
1532063218162,0,-4,-1,-2,-5,-2,-1,0
1532063218167,0,-1,-2,0,-1,-1,0,0
1532063218172,-1,5,-1,-4,0,-1,-1,0
1532063218177,-1,3,-1,1,-3,0,0,-2
1532063218182,-2,-2,-1,0,-1,-2,0,-2
1532063218187,-1,0,-1,0,3,2,-2,0
1532063218192,1,-1,0,-1,0,-1,-1,-1
1532063218197,0,-1,-3,0,0,0,-1,-1
1532063218202,0,-2,-3,-1,0,-2,-1,-1
1532063218207,0,3,-1,-1,0,-2,-2,-1
1532063218212,-3,-4,-2,-1,-2,-1,-1,0
1532063218217,-1,-1,-1,-2,1,0,1,0
1532063218222,-1,-1,1,-2,-1,0,-1,-1
1532063218227,0,-2,-2,-1,-2,-2,-2,-1
1532063218232,0,-2,0,-1,-3,-1,0,0
1532063218237,0,0,-1,3,1,0,1,0
1532063218242,-2,-3,-1,-4,0,1,-3,-1
1532063218247,-1,-2,-2,0,-1,-1,0,-2
1532063218252,-1,0,-2,0,2,-2,-1,-1
1532063218257,-1,1,-1,0,-2,0,-1,-2
1532063218262,0,1,-2,-1,-3,-2,-1,-1
1532063218267,-1,0,0,-3,0,-2,-2,0
1532063218272,0,4,1,0,-1,0,-1,0
1532063218277,-2,-12,-1,-1,-2,-2,-3,-1
1532063218282,-2,2,0,-1,0,-1,0,-1
1532063218287,-1,-1,-2,-4,1,-2,0,-1
1532063218292,0,1,0,1,0,0,0,-1
1532063218297,0,4,0,-1,0,-2,-2,0
1532063218302,0,-1,-1,3,1,1,-3,1
1532063218307,0,-2,1,4,-2,0,1,0
1532063218312,-1,-5,-6,-13,-1,0,0,-2
1532063218317,0,1,-2,1,-1,-1,1,-2
1532063218322,-1,1,1,4,2,-1,0,0
1532063218327,-1,-1,-1,0,-3,-1,-1,-1
1532063218332,-3,-6,-8,-10,-6,-3,-3,-2
1532063218337,-1,1,0,-3,0,-1,-1,0
1532063218342,1,1,0,4,-1,-2,0,-2
1532063218347,-1,0,2,-1,2,1,0,-1
1532063218352,-1,-3,2,7,0,0,-1,-1
1532063218357,0,-1,0,-3,-2,-1,-2,-1
1532063218362,0,-1,2,2,-2,-1,-1,-1
1532063218367,0,0,0,2,4,-1,-1,-2
1532063218372,-1,-1,3,3,-3,2,1,0
1532063218377,1,-2,1,3,10,1,0,0
1532063218382,-3,-4,-7,-17,-6,-2,-2,-1
1532063218387,-2,-3,0,3,-1,-1,-1,-2
1532063218392,1,1,0,0,-1,-4,-2,-2
1532063218397,-2,-1,-6,-8,-3,-1,0,-2
1532063218402,-2,-2,2,3,-2,-2,0,0
1532063218407,6,4,-1,5,-2,-1,-3,-1
1532063218412,-1,-1,-2,0,1,0,0,1
1532063218417,-1,4,7,-8,1,0,-1,0
1532063218422,-2,-4,-5,-5,0,-3,-2,-3
1532063218427,-4,-6,-8,-7,-9,-3,-3,-2
1532063218432,-2,-2,1,11,0,0,-1,1
1532063218437,12,-3,-4,-12,-6,-4,-1,-2
1532063218442,-21,-2,-2,-9,0,1,3,-2
1532063218447,-4,2,7,15,7,1,-1,-2
1532063218452,2,5,4,-11,-4,0,2,2
1532063218457,-13,-11,-4,4,-1,-1,0,0
1532063218462,-10,-3,3,3,2,1,2,1
1532063218467,-1,-4,-5,9,-3,-1,-2,-1
1532063218472,4,-3,-7,-10,-1,-1,-3,-4
1532063218477,1,6,2,15,0,1,0,1
1532063218482,10,2,2,-1,0,-1,0,2
1532063218487,5,0,2,-26,-1,1,3,2
1532063218492,-3,7,0,19,2,-2,-3,-2
1532063218497,1,-19,-11,9,-7,-6,-5,-3
1532063218502,2,1,-4,-20,-3,-1,-3,-1
1532063218507,5,2,-6,-33,-3,2,2,2
1532063218512,11,4,6,13,2,-2,-1,1
1532063218517,1,11,12,24,1,0,-1,-1
1532063218522,7,-3,-9,3,4,3,1,0
1532063218527,0,-7,-4,29,-7,-2,-5,-1
1532063218532,-13,-7,-1,-36,3,1,0,-4
1532063218537,2,30,13,-4,7,5,5,1
1532063218542,10,-21,-6,6,-12,-6,-5,-1
1532063218547,-12,-18,-14,-14,-2,2,-4,-1
1532063218552,1,0,0,5,-4,-2,-1,1
1532063218557,16,2,-30,-36,-8,-1,-2,-3
1532063218562,18,18,30,11,10,1,2,0
1532063218567,-16,1,-2,22,-11,-4,-1,-4
1532063218572,1,-7,2,-10,-2,-1,-1,2
1532063218577,10,10,10,-2,2,1,2,2
1532063218582,-7,5,-6,-9,-1,0,-1,-1
1532063218587,6,7,7,4,-2,-3,0,1
1532063218592,-4,4,5,8,2,0,1,-2
1532063218597,-14,-24,-13,-17,-3,-1,0,-1
1532063218602,-7,-4,-17,7,-3,2,-1,-1
1532063218607,-1,10,4,-5,7,-1,1,0
1532063218612,7,28,-8,-4,-4,-1,1,0
1532063218617,-8,-3,15,21,3,-2,0,0
1532063218622,-8,-38,0,-17,-11,-3,-7,-3
1532063218627,5,4,0,1,-2,0,1,0
1532063218632,-5,7,-13,-21,-6,-1,-2,-3
1532063218637,-1,14,2,4,-8,0,-2,0
1532063218642,-6,-30,-2,10,9,1,0,-2
1532063218647,-4,17,-5,0,4,1,0,-4
1532063218652,-4,-20,1,6,3,-1,-2,-1
1532063218657,-9,-7,-10,2,-7,-5,-4,-5
1532063218662,5,26,15,19,-1,-1,1,1
1532063218667,1,-11,-7,-23,0,1,0,2
1532063218672,-1,-3,11,10,-1,2,-2,2
1532063218677,0,0,6,8,5,0,0,1
1532063218682,-4,-2,-10,-21,-3,-4,-3,-1
1532063218687,1,-3,7,9,2,0,1,0
1532063218692,1,-1,-2,8,-1,0,1,1
1532063218697,9,4,-1,6,4,1,1,5
1532063218702,-2,10,3,2,-4,-1,-2,-2
1532063218707,-3,-9,-4,0,1,-4,-5,-9
1532063218712,-5,-13,0,-5,0,2,-1,-3
1532063218717,-7,-15,-4,-15,0,-2,-4,-1
1532063218722,4,10,-9,12,-1,-1,1,2
1532063218727,3,7,1,-21,-1,1,1,5
1532063218732,-3,-6,2,18,0,-2,-2,-3
1532063218737,-4,-3,3,4,0,0,1,-1
1532063218742,3,12,-2,-15,0,2,3,6
1532063218747,-6,-6,-2,10,0,-2,-3,-5
1532063218752,-6,-19,-15,-24,-11,-5,-2,-6
1532063218757,1,0,2,9,4,0,0,-1
1532063218762,-1,5,2,-4,-2,1,1,-1
1532063218767,1,3,-2,22,6,0,0,2
1532063218772,0,-2,-12,-23,-3,-2,-1,-3
1532063218777,-8,-5,7,-6,1,-1,-2,0
1532063218782,-3,6,-6,-22,-13,-4,-3,-2
1532063218787,3,-2,3,8,2,2,1,-1
1532063218792,-1,-4,-3,9,7,2,4,0
1532063218797,-3,-4,2,-13,-2,0,1,-1
1532063218802,-6,-8,0,25,5,0,-4,-2
1532063218807,0,9,0,4,0,-1,-1,1
1532063218812,-1,2,-1,-1,0,-4,-2,-1
1532063218817,-1,4,-2,-2,-2,0,-1,-4
1532063218822,1,-5,-6,11,6,1,-2,1
1532063218827,-3,-8,-4,-22,-12,-3,-1,-2
1532063218832,1,12,2,-4,1,0,0,1
1532063218837,-2,-7,-1,-5,-3,-2,1,-3
1532063218842,0,0,-4,-8,0,-2,-1,-4
1532063218847,3,2,2,-7,1,0,1,2
1532063218852,-1,17,10,19,2,1,-1,0
1532063218857,-1,-23,-4,8,3,1,-1,-1
1532063218862,-3,-1,-17,-16,-14,-3,-4,-2
1532063218867,-1,1,9,3,3,0,2,-1
1532063218872,1,2,-2,-11,-1,-2,-2,1
1532063218877,-1,7,1,7,-5,-5,-2,-2
1532063218882,0,2,9,-4,8,0,1,-2
1532063218887,-2,-10,-30,-10,-4,-1,-1,0
1532063218892,1,5,52,21,3,0,-2,2
1532063218897,-2,0,-16,-11,-4,-3,-3,-3
1532063218902,0,-4,5,2,2,2,3,-2
1532063218907,0,7,2,6,-4,0,0,1
1532063218912,0,-8,-10,0,10,2,2,0
1532063218917,-3,-9,-11,2,-14,-2,-2,-1
1532063218922,-3,-4,5,9,-1,-3,-5,-5
1532063218927,1,2,13,6,6,1,-2,0
1532063218932,-2,-5,-10,-4,-7,-2,0,0
1532063218937,4,16,10,-1,-1,-2,-3,1
1532063218942,4,4,-1,6,1,0,1,1
1532063218947,-1,-20,4,7,2,-1,0,-2
1532063218952,-5,-8,-19,-19,-7,-1,-6,-6
1532063218957,0,2,-5,-2,2,0,1,-3
1532063218962,3,7,0,6,0,-1,1,0
1532063218967,-1,4,7,0,2,-2,-3,-1
1532063218972,0,-7,-6,-3,-2,-1,-2,1
1532063218977,0,6,-2,-6,1,-1,0,-1
1532063218982,1,0,2,-5,-9,-1,-1,1
1532063218987,-3,-8,-1,-1,5,0,1,-2
1532063218992,-1,-3,-9,2,4,1,1,-1
1532063218997,-2,-3,-3,-3,1,0,-1,-2
1532063219002,-1,2,5,-9,2,-2,-1,0
1532063219007,2,4,1,-2,-8,-3,1,-1
1532063219012,1,16,-2,-3,-5,-1,1,-1
1532063219017,0,-13,8,3,5,2,-2,0
1532063219022,-3,-9,-8,1,-3,-1,0,-1
1532063219027,-7,-17,-8,0,-2,0,-3,-3
1532063219032,-2,-11,-4,4,1,0,-2,-4
1532063219037,0,11,1,1,-5,-1,0,-1
1532063219042,1,5,2,0,2,0,1,1
1532063219047,2,8,3,-1,-3,-2,1,0
1532063219052,0,0,1,-15,0,-2,1,0
1532063219057,0,-2,-5,23,-1,-1,-2,0
1532063219062,0,-1,-2,-4,-2,0,0,0
1532063219067,-1,1,0,1,0,-2,-1,-1
1532063219072,-2,-7,0,-11,-3,-3,-3,-3
1532063219077,-1,-1,0,-7,-10,0,0,1
1532063219082,-1,-3,0,-4,10,-1,1,-1
1532063219087,0,2,0,-3,-5,-2,0,0
1532063219092,3,0,-2,7,-1,0,1,2
1532063219097,0,0,-1,-12,1,-1,-1,-1
1532063219102,-3,-1,6,44,3,0,-2,-2
1532063219107,-3,-6,-9,-9,-4,-3,-5,-3
1532063219112,1,2,5,16,1,0,2,1
1532063219117,-2,-2,-10,-19,-4,-1,-2,-2
1532063219122,0,6,2,-11,0,2,4,0
1532063219127,0,0,0,2,9,3,-1,0
1532063219132,-6,-16,-8,-22,-13,-5,-4,-6
1532063219137,-3,3,9,3,6,0,0,0
1532063219142,6,-3,-9,-7,-7,-3,0,1
1532063219147,-14,3,2,-21,0,-1,-1,-4
1532063219152,-2,8,1,24,2,1,2,4
1532063219157,9,-12,-1,16,4,-1,-2,-2
1532063219162,-18,3,0,-20,1,0,-1,-4
1532063219167,8,1,-6,3,-4,-3,0,1
1532063219172,-2,0,0,4,-7,-1,-2,0
1532063219177,-5,6,1,-5,0,-2,0,-1
1532063219182,4,-6,-5,3,-1,0,-1,1
1532063219187,4,1,-3,-7,3,0,2,1
1532063219192,0,1,7,-6,3,2,1,-1
1532063219197,2,-1,1,-9,0,-2,-1,-1
1532063219202,4,7,0,2,-9,-1,-3,-2
1532063219207,-1,-1,6,-3,0,0,-1,1
1532063219212,-4,-18,-6,0,2,-3,-1,-4
1532063219217,-1,4,0,20,-2,-1,0,-3
1532063219222,1,-1,3,-5,3,0,1,0
1532063219227,-3,8,3,11,-2,-3,-2,0
1532063219232,3,0,-6,-3,-1,-1,-1,-1
1532063219237,1,5,0,-14,0,1,0,-1
1532063219242,-4,-11,-2,1,1,0,-3,-4
1532063219247,1,5,-1,30,-3,-1,-2,-1
1532063219252,2,4,-5,0,6,2,2,1
1532063219257,-4,-6,6,-14,-4,-2,-2,-2
1532063219262,0,7,2,14,0,0,-2,1
1532063219267,2,-5,-1,-14,-3,-1,-2,2
1532063219272,0,1,6,8,1,0,0,1
1532063219277,-2,1,-7,-7,3,0,0,0
1532063219282,1,-1,3,-20,-8,-2,1,-2
1532063219287,3,3,-2,-11,0,0,-1,1
1532063219292,-2,-5,-5,-9,-4,-3,-3,-1
1532063219297,-5,-11,-4,7,0,-1,-3,-3
1532063219302,-2,0,-1,4,4,1,-3,-3
1532063219307,-1,-3,-2,-4,-1,0,1,-1
1532063219312,3,17,5,5,-5,-1,2,1
1532063219317,1,-7,-4,-1,1,1,2,3
1532063219322,0,-2,-5,1,0,-1,-1,-1
1532063219327,-3,2,2,-7,1,1,0,-2
1532063219332,-3,-14,-7,3,-4,-1,-3,-2
1532063219337,-3,0,-6,-13,-10,-4,-2,-2
1532063219342,1,-1,-2,9,-1,-2,1,1
1532063219347,1,-1,-1,-10,-1,-1,1,0
1532063219352,0,2,5,4,-1,-1,-3,2
1532063219357,0,7,3,8,1,0,0,1
1532063219362,-1,-14,-5,-13,2,1,0,1
1532063219367,-2,3,1,19,0,-2,0,-2
1532063219372,-2,-4,8,-1,1,-1,-3,-4
1532063219377,0,5,-5,0,-6,-2,-2,-1
1532063219382,0,4,6,3,3,0,1,0
1532063219387,-1,-8,-2,6,2,0,-1,0
1532063219392,0,3,0,-3,4,-1,-2,-2
1532063219397,0,-4,8,0,-8,1,1,0
1532063219402,-2,-1,-10,-2,0,-3,-2,-2
1532063219407,-1,-7,-3,-6,-5,0,0,-2
1532063219412,-1,12,-2,-20,1,0,0,1
1532063219417,-1,1,-2,9,2,-1,-4,-3
1532063219422,2,7,1,-3,-7,1,-1,0
1532063219427,-2,-13,2,2,3,-1,0,-2
1532063219432,-4,-5,-6,9,-16,-3,-2,-2
1532063219437,0,1,6,9,12,2,2,1
1532063219442,-2,3,-1,-9,-2,-2,-1,-2
1532063219447,3,17,-5,-19,-5,-2,-2,-1
1532063219452,0,-15,1,0,3,1,0,-1
1532063219457,-1,-2,-5,-5,-2,-1,-1,0
1532063219462,-1,-1,2,0,1,-1,-2,-1
1532063219467,2,0,3,5,1,1,1,0
1532063219472,-2,4,-7,-2,-2,-1,-1,0
1532063219477,3,4,-2,4,0,0,0,-1
1532063219482,-2,-6,-1,-3,0,-2,0,0
1532063219487,-5,-6,0,6,-3,-3,-3,-2
1532063219492,2,9,0,10,4,1,1,-1
1532063219497,1,-8,2,-11,1,2,1,-1
1532063219502,-1,4,-2,7,-2,0,-2,-2
1532063219507,0,3,4,-7,4,1,-1,-1
1532063219512,1,2,2,31,2,0,0,0
1532063219517,0,12,0,-3,-5,-2,1,1
1532063219522,-2,-12,-3,-16,0,-2,0,-3
1532063219527,-4,-8,-4,4,-3,-2,-3,-3
1532063219532,0,1,1,1,-2,-1,-1,-1
1532063219537,-2,-3,0,0,-1,1,-1,-1
1532063219542,2,0,2,5,2,-1,-3,0
1532063219547,-2,1,1,-5,-2,-1,0,0
1532063219552,0,-4,0,-13,0,-1,0,2
1532063219557,-2,-2,-1,5,-1,1,-1,-2
1532063219562,-2,-2,1,9,3,1,-1,-2
1532063219567,0,-8,-6,-9,-3,-1,-1,-1
1532063219572,1,1,2,-10,-2,0,-1,-1
1532063219577,2,6,-1,0,-3,-3,-1,1
1532063219582,-1,-10,-1,-1,-4,-2,-1,0
1532063219587,-2,0,-5,5,-1,-1,-2,-1
1532063219592,2,1,-1,-17,-2,-1,-1,-1
1532063219597,-1,0,0,-2,0,-2,-1,-1
1532063219602,0,-9,5,7,0,-1,-2,-1
1532063219607,1,9,0,14,0,-1,0,-1
1532063219612,-2,-13,3,-5,5,-1,1,0
1532063219617,-2,-1,-8,25,0,-1,0,-1
1532063219622,-1,0,2,-26,-5,-1,-1,1
1532063219627,0,-2,2,2,-14,-4,-3,-1
1532063219632,0,7,-3,3,10,1,1,-1
1532063219637,1,0,4,13,6,1,0,0
1532063219642,0,4,-1,10,-3,-2,2,1
1532063219647,-1,-13,-2,-7,0,-1,-3,-1
1532063219652,-2,6,-4,-3,-4,-1,-2,-2
1532063219657,-4,-14,-1,-14,-1,-1,-1,-1
1532063219662,3,13,-1,2,-1,1,-1,0
1532063219667,2,1,5,-18,1,1,2,1
1532063219672,-4,-11,-3,9,-5,-2,-5,-2
1532063219677,-5,-7,-3,-16,1,-1,-3,-2
1532063219682,-2,4,-3,-9,-10,-4,-5,-2
1532063219687,0,2,2,30,4,3,1,1
1532063219692,2,2,-1,-37,3,1,-1,-1
1532063219697,1,2,0,-5,1,1,0,-2
1532063219702,-2,-3,-1,0,-6,0,1,0
1532063219707,0,-5,-3,2,4,0,1,-1
1532063219712,0,-3,0,-13,-3,-2,1,0
1532063219717,0,5,1,21,-4,-1,0,-1
1532063219722,-2,-10,-6,7,2,-3,-2,0
1532063219727,-1,-8,0,-20,1,-2,-1,-1
1532063219732,-2,0,-6,18,-8,-4,-5,-2
1532063219737,-2,-3,0,-14,0,-1,-1,-1
1532063219742,0,7,3,5,-3,-1,-2,1
1532063219747,0,7,2,21,6,1,1,-2
1532063219752,-3,-4,-2,-15,-1,1,0,0
1532063219757,0,3,-2,0,3,2,-3,-1
1532063219762,-1,-4,-1,-2,3,1,0,-1
1532063219767,-1,2,-1,2,-4,-2,-2,-1
1532063219772,-1,2,1,-1,-2,0,0,-2
1532063219777,0,-1,-2,-17,-3,-2,0,-1
1532063219782,-1,-4,-2,6,-1,0,0,-2
1532063219787,0,5,3,20,4,-1,1,-2
1532063219792,0,-3,1,5,-5,-1,0,0
1532063219797,-2,-7,0,-13,-2,-2,-3,0
1532063219802,-1,-2,-6,-13,-8,-4,-2,-3
1532063219807,2,4,-1,-21,-1,0,0,0
1532063219812,0,1,-1,1,-4,-1,0,-1
1532063219817,-3,-14,-2,0,-2,-2,-3,-2
1532063219822,-1,5,2,-3,1,-1,0,-2
1532063219827,-1,2,-2,-7,7,1,1,-1
1532063219832,-1,1,1,16,1,-1,-2,-1
1532063219837,3,3,0,-10,1,-2,0,1
1532063219842,1,-1,-1,4,-3,1,-1,-1
1532063219847,1,-4,-2,-13,0,0,0,-1
1532063219852,0,0,3,8,5,0,-1,0
1532063219857,0,6,-2,19,-1,-2,0,-1
1532063219862,-2,-6,-2,-51,-17,-2,-4,1
1532063219867,-2,-3,-6,-6,-3,-1,0,-1
1532063219872,-2,-3,2,8,2,1,0,-3
1532063219877,0,-4,-2,-13,-4,-1,-2,-1
1532063219882,0,0,2,9,9,2,1,-2
1532063219887,-2,3,-2,1,-1,0,-1,0
1532063219892,0,6,1,6,-1,0,1,-2
1532063219897,-1,-1,0,0,-3,1,-1,-1
1532063219902,0,-12,-4,-14,1,-1,1,-4
1532063219907,0,5,2,18,-3,0,-3,0
1532063219912,-1,-4,-2,3,-1,0,-1,-1
1532063219917,-3,-1,1,13,4,0,-1,-2
1532063219922,2,13,2,-1,-1,-1,0,2
1532063219927,-2,-16,-3,-13,1,0,-1,1
1532063219932,1,3,0,-11,-1,-1,-1,-2
1532063219937,2,7,-3,10,-2,-2,0,-2
1532063219942,-1,-1,-3,16,3,1,2,2
1532063219947,-2,-5,-4,-3,-9,-4,-2,-1
1532063219952,0,2,1,-5,4,-1,2,1
1532063219957,0,-15,-4,-20,-6,-1,1,1
1532063219962,-3,5,-3,21,4,1,-4,-1
1532063219967,-1,-3,3,-14,-1,0,-3,-3
1532063219972,2,-2,-6,-30,-7,-1,-1,-1
1532063219977,-1,-3,3,40,3,1,-2,-1
1532063219982,1,-2,2,11,-4,-2,0,-1
1532063219987,0,-1,-2,-5,6,0,0,0
1532063219992,-2,-12,-4,-11,-4,-4,-1,0
1532063219997,1,7,5,0,-2,-3,1,0
1532063220002,0,-6,-4,-1,4,0,-1,0
1532063220007,-2,3,1,6,-6,-3,-3,-1
1532063220012,0,1,1,8,1,0,-1,0
1532063220017,0,4,-2,-14,-4,-1,0,-2
1532063220022,1,-10,2,18,4,0,1,-2
1532063220027,-1,-1,-1,-21,-5,-2,-1,-2
1532063220032,-1,-3,-4,-3,-1,-2,-4,-1
1532063220037,-1,-1,1,-4,0,0,-2,-1
1532063220042,1,10,2,10,1,-1,-1,-1
1532063220047,-1,1,-4,2,-11,-2,-5,0
1532063220052,0,-1,2,17,8,-1,2,0
1532063220057,-1,-1,-7,-20,-3,-1,0,-1
1532063220062,2,8,2,-2,3,1,2,-1
1532063220067,0,-7,-2,-3,-1,0,1,-2
1532063220072,-1,7,0,8,-4,-2,-1,0
1532063220077,0,-1,-2,-17,-3,-2,-1,0
1532063220082,-2,-2,0,30,4,1,1,-2
1532063220087,-1,4,-3,-29,-6,-1,-3,-1
1532063220092,-2,-5,1,11,-3,-2,0,1
1532063220097,-2,-12,-1,3,5,2,-2,-1
1532063220102,-2,-1,-1,-3,3,1,0,-1
1532063220107,-1,0,0,4,0,-2,1,-1
1532063220112,-1,4,0,11,-1,-1,-3,-2
1532063220117,0,-2,-4,-11,-6,0,-2,0
1532063220122,0,-4,-4,-15,-2,0,-2,0
1532063220127,1,-3,4,13,0,0,-1,0
1532063220132,0,-4,0,-2,3,0,2,-3
1532063220137,0,5,0,9,2,-1,0,0
1532063220142,-1,0,-2,-13,-3,-2,-3,-1
1532063220147,0,-5,-2,1,3,-1,1,-1
1532063220152,-1,3,1,29,-2,0,-1,-2
1532063220157,-4,-4,-2,7,-2,-1,-1,-3
1532063220162,-2,-1,-1,-38,-3,-2,0,-1
1532063220167,2,-1,-1,17,0,0,1,0
1532063220172,-1,-2,0,-12,0,-3,-3,1
1532063220177,2,0,-1,-2,-2,-2,0,-1
1532063220182,1,2,-1,1,-4,-3,-1,-1
1532063220187,-1,7,1,-4,7,3,1,0
1532063220192,0,-8,-2,-5,-4,2,-2,-1
1532063220197,-1,0,-1,-4,2,-1,-2,0
1532063220202,-2,-5,-2,-8,-3,-1,-4,0
1532063220207,-2,-3,-2,3,-9,-2,-2,-2
1532063220212,-1,3,1,5,11,1,-2,-1
1532063220217,-1,-2,-4,-11,-9,-2,-1,0
1532063220222,-1,-1,1,7,4,1,0,-2
1532063220227,-4,0,-3,4,0,-3,-2,-2
1532063220232,0,-2,0,4,-4,0,0,0
1532063220237,1,6,5,5,2,1,-1,1
1532063220242,0,-12,-4,-2,1,-3,0,-1
1532063220247,1,6,1,8,1,0,0,-2
1532063220252,-1,-8,-1,-19,-3,-2,-2,0
1532063220257,0,-4,-3,0,3,0,-1,0
1532063220262,-3,0,-3,-3,-2,2,1,0
1532063220267,-1,-4,-1,8,2,0,-3,-1
1532063220272,0,3,-3,-8,-4,-1,1,-2
1532063220277,2,9,2,-2,5,0,-1,0
1532063220282,-1,-8,2,20,-10,-2,-2,0
1532063220287,-2,1,-3,-31,8,-2,-2,-1
1532063220292,-2,1,1,11,3,2,0,-2
1532063220297,-2,-2,-2,0,-4,-1,0,-1
1532063220302,2,6,2,16,0,0,-2,0
1532063220307,-1,-1,-1,-17,-4,0,1,0
1532063220312,0,-1,-1,-8,-6,-3,0,-2
1532063220317,0,2,2,2,-1,-3,-2,-2
1532063220322,-1,2,-1,0,1,0,0,0
1532063220327,0,-9,-1,3,-1,1,-1,-1
1532063220332,-1,3,-1,-12,-3,-1,-1,-1
1532063220337,-1,1,-3,8,0,-1,1,-3
1532063220342,-1,6,0,-7,-2,-1,-3,-1
1532063220347,-1,-11,-1,4,0,0,-1,0
1532063220352,0,3,-1,-7,4,-1,0,0
1532063220357,-1,2,1,-4,-12,0,2,0
1532063220362,-3,-7,1,-10,11,-1,-2,-1
1532063220367,-2,0,-2,12,-7,-1,-3,0
1532063220372,0,-4,-4,2,-4,-1,-2,0
1532063220377,0,-9,0,0,-1,-1,-2,0
1532063220382,1,3,0,-15,-4,-2,0,-1
1532063220387,-2,0,1,7,-1,1,1,-1
1532063220392,1,4,1,-1,1,0,0,0
1532063220397,-2,-2,-2,2,-3,-2,-1,0
1532063220402,0,-3,1,14,3,1,1,-2
1532063220407,1,0,1,-18,3,0,-3,-2
1532063220412,-1,-4,-4,-4,-4,-1,0,-1
1532063220417,-2,0,2,2,4,0,-2,-2
1532063220422,-1,-1,0,3,-5,-2,0,0
1532063220427,1,11,0,-1,0,-2,3,-1
1532063220432,-5,-13,-3,18,-6,-3,-7,0
1532063220437,0,-1,0,-11,-8,-1,0,0
1532063220442,0,1,-2,9,11,0,-1,1
1532063220447,-1,1,0,3,3,1,0,-1
1532063220452,-1,-7,0,-6,-1,0,3,-1
1532063220457,1,1,0,0,3,0,-2,-1
1532063220462,0,-1,1,9,-6,-2,-2,-1
1532063220467,0,2,-3,-23,-5,-3,-1,0
1532063220472,1,4,0,22,9,2,0,-1
1532063220477,-4,-23,-1,-10,1,0,-1,-2
1532063220482,-1,6,-4,-21,-3,-1,-1,-3
1532063220487,-2,-1,0,15,-3,-2,-4,0
1532063220492,1,9,2,-4,-3,-1,0,0
1532063220497,1,1,-3,3,1,0,-1,-1
1532063220502,-1,-5,-1,4,-2,-2,-1,0
1532063220507,0,-1,-3,4,-10,-2,-2,0
1532063220512,0,-1,-1,-7,7,2,0,0
1532063220517,-1,3,-2,3,3,1,0,0
1532063220522,-3,-15,-3,-7,-3,-2,-3,-5
1532063220527,0,2,0,-1,-5,-2,-2,-2
1532063220532,0,-1,2,1,-4,-2,0,-1
1532063220537,1,4,2,0,0,-1,1,-1
1532063220542,-3,2,0,-6,0,0,-2,0
1532063220547,-2,-5,-2,-2,1,-1,1,-1
1532063220552,-1,-3,0,-2,-4,-1,-1,-1
1532063220557,1,12,3,19,5,-2,1,0
1532063220562,0,-1,-2,-28,-11,-3,0,0
1532063220567,-1,-17,-5,-11,1,-1,-2,0
1532063220572,-3,4,-3,-2,0,-2,-1,0
1532063220577,-1,-1,-3,-5,-10,-1,-2,-1
1532063220582,0,7,2,16,12,2,0,0
1532063220587,1,2,1,1,4,2,2,-1
1532063220592,0,-2,-2,-18,1,2,0,0
1532063220597,-1,-1,0,-1,0,0,-1,-1
1532063220602,0,-1,-2,6,-5,-3,-2,-3
1532063220607,1,5,1,2,-2,-1,-2,-1
1532063220612,0,-1,1,8,-1,0,-1,-1
1532063220617,-1,-1,-1,-3,0,0,-1,-1
1532063220622,1,4,0,-2,-1,-1,0,0
1532063220627,-1,-1,3,16,3,1,0,-1
1532063220632,1,3,0,1,0,1,3,-3
1532063220637,-3,-1,-3,-26,3,1,-2,1
1532063220642,-4,-16,0,12,-4,-3,-4,0
1532063220647,0,1,-1,4,-2,-2,-1,-2
1532063220652,0,0,-1,-6,-6,0,-1,-1
1532063220657,0,0,-1,-2,7,0,1,-1
1532063220662,-2,5,-2,1,0,-2,-2,0
1532063220667,-3,-7,-1,-7,-6,-3,-1,-2
1532063220672,-1,-2,-1,2,-2,-1,0,-1
1532063220677,0,-2,-2,5,-3,-2,-2,0
1532063220682,0,-9,-2,-4,-5,-2,-2,-1
1532063220687,-1,-1,-2,0,-3,-2,-1,0
1532063220692,0,-3,0,-2,9,3,-1,-1
1532063220697,-1,1,0,2,0,2,-1,0
1532063220702,0,0,2,5,1,0,2,1
1532063220707,-1,2,1,0,-3,-1,0,-1
1532063220712,-1,0,-2,-6,-4,-2,-1,-2
1532063220717,-3,-13,-2,-15,-3,-4,-2,-2
1532063220722,2,8,-2,-2,2,3,-1,0
1532063220727,0,-7,-1,-3,0,-1,-2,-2
1532063220732,-1,4,-2,-4,-7,-3,-3,0
1532063220737,1,0,0,11,1,1,0,-2
1532063220742,0,7,-1,-10,3,0,0,0
1532063220747,-1,-12,-3,-3,-4,0,2,1
1532063220752,-1,2,-1,14,11,0,-3,0
1532063220757,-3,-8,-3,-17,-10,-4,-1,-2
1532063220762,-1,2,-1,-7,1,1,-2,-2
1532063220767,4,12,3,29,8,5,3,1
1532063220772,-3,-14,1,-12,-7,-4,-5,-3
1532063220777,0,6,0,-1,0,-1,1,2
1532063220782,-1,-3,0,1,-5,-1,-3,-3
1532063220787,-2,-2,0,1,1,2,-2,1
1532063220792,-1,-1,1,6,4,1,0,1
1532063220797,0,1,3,16,-2,-1,0,0
1532063220802,0,-4,-3,-25,-8,0,1,0
1532063220807,0,4,0,4,7,-1,-3,-2
1532063220812,-1,0,-2,1,-5,-1,-2,0
1532063220817,-1,0,-1,1,1,1,-1,-2
1532063220822,0,-4,-3,9,0,-3,2,-1
1532063220827,0,2,0,-15,-1,-1,1,-1
1532063220832,-2,0,1,-6,-5,-3,-1,0
1532063220837,-3,-10,-1,12,-1,-3,-1,-2
1532063220842,-1,-2,1,-6,-3,2,0,-1
1532063220847,-2,1,-2,10,1,-2,-2,0
1532063220852,0,0,-1,-10,-6,-2,5,-1
1532063220857,0,1,-1,-2,1,-1,-16,-3
1532063220862,-2,1,-1,6,-5,0,7,-1
1532063220867,3,0,1,2,12,4,4,0
1532063220872,-2,3,-2,6,4,0,-1,-1
1532063220877,1,2,0,0,-2,1,5,-2
1532063220882,0,0,-1,-6,3,-1,-5,-1
1532063220887,-1,-1,-1,0,-8,-5,-7,-2
1532063220892,2,7,1,0,-3,-2,0,-2
1532063220897,-1,-3,0,-8,-2,-1,-1,-2
1532063220902,-4,-10,-2,6,-6,-5,-7,-2
1532063220907,-1,2,-1,2,0,0,4,0
1532063220912,0,-3,-1,-4,6,4,1,1
1532063220917,-3,4,-3,0,2,0,4,3
1532063220922,1,2,2,1,-11,-4,-5,0
1532063220927,-2,-2,-1,-3,-2,-10,-5,0
1532063220932,-3,-11,-4,4,-3,-2,-1,-4
1532063220937,1,0,-2,6,7,6,10,-2
1532063220942,-1,-8,2,0,12,8,-8,0
1532063220947,-1,1,-3,-6,-7,-4,-1,2
1532063220952,1,5,2,-6,-6,-3,-6,-3
1532063220957,1,-5,-1,-11,-5,-7,-2,1
1532063220962,0,-1,-2,7,-5,-2,4,1
1532063220967,-2,1,2,5,1,5,-5,-5
1532063220972,-3,-3,-2,-15,4,2,0,-2
1532063220977,-1,-1,-1,3,0,-3,-1,2
1532063220982,0,1,-2,-3,-9,-3,1,2
1532063220987,0,-1,0,-10,3,-3,-1,1
1532063220992,-1,-8,0,31,0,0,4,0
1532063220997,-1,4,-2,-25,1,0,-7,-4
1532063221002,0,2,2,-1,1,-1,-1,0
1532063221007,-1,-2,-2,-4,-4,0,5,0
1532063221012,-1,1,-4,-3,-2,3,1,0
1532063221017,1,1,2,10,8,5,2,1
1532063221022,-2,1,-4,-9,1,-4,-2,-2
1532063221027,-1,-17,-2,-7,-10,-6,-7,-3
1532063221032,-1,5,0,-7,-14,-5,-3,-2
1532063221037,-2,-5,-4,8,3,0,1,3
1532063221042,0,10,1,11,4,0,1,0
1532063221047,-2,-8,-2,-7,4,4,1,0
1532063221052,0,-5,-1,-13,0,1,-2,1
1532063221057,-2,2,-2,-4,-3,-5,-3,-2
1532063221062,-3,-2,1,15,-4,-3,-1,-1
1532063221067,1,4,-2,-2,-2,-1,-1,1
1532063221072,-1,-5,1,-3,7,4,0,-1
1532063221077,-1,0,-2,-7,-6,0,3,0
1532063221082,-1,1,1,-2,0,-5,1,0
1532063221087,-4,-3,-1,1,-4,-3,-8,-2
1532063221092,0,3,-4,-5,-1,-1,3,2
1532063221097,0,-1,2,3,-6,3,-2,-1
1532063221102,-1,-4,-2,-4,7,-3,-2,0
1532063221107,2,13,0,1,-7,-2,1,-1
1532063221112,-2,-9,1,7,-2,-1,-1,1
1532063221117,1,-2,1,-5,5,5,3,-1
1532063221122,1,6,-1,-8,7,5,2,-1
1532063221127,0,-5,-1,-1,-3,-2,-1,0
1532063221132,1,7,-1,-1,1,-3,-2,-1
1532063221137,-1,-1,0,10,-1,-2,-2,-2
1532063221142,0,-2,0,-5,1,3,0,-1
1532063221147,0,4,-2,-3,1,-2,-1,0
1532063221152,1,2,-1,-4,-7,-4,-3,0
1532063221157,1,-3,0,3,-2,-3,-2,-1
1532063221162,-2,-3,-2,-9,-10,-4,-1,-4
1532063221167,0,-2,1,21,9,1,4,0
1532063221172,-1,0,-1,-36,-2,-2,0,-1
1532063221177,-1,2,1,3,-2,-2,-1,-1
1532063221182,-1,3,-2,-1,5,0,-1,0
1532063221187,-4,-17,-3,3,-9,0,0,-2
1532063221192,-6,-1,9,9,-2,-5,-14,-8
1532063221197,5,12,-2,0,8,4,3,3
1532063221202,2,-10,-10,10,4,3,18,4
1532063221207,-1,12,0,-12,4,2,3,-2
1532063221212,-3,-11,-5,11,-6,-7,-16,-2
1532063221217,-4,-9,-4,-7,-11,-8,-2,-2
1532063221222,0,3,0,-1,-14,-1,-6,0
1532063221227,-2,-6,1,-2,15,3,5,0
1532063221232,3,2,0,6,4,3,5,2
1532063221237,-1,0,0,6,-4,-4,-7,0
1532063221242,0,-1,-2,-6,-5,-2,0,-2
1532063221247,2,3,1,5,-1,3,5,-1
1532063221252,-3,-8,-6,3,6,2,0,-3
1532063221257,-1,0,0,-17,1,-2,-1,-2
1532063221262,-2,-10,-2,-16,1,2,-3,-3
1532063221267,-4,1,-2,-7,-6,-4,-9,-4
1532063221272,3,2,-4,11,1,0,3,3
1532063221277,2,1,-2,-10,-10,-3,0,-2
1532063221282,-1,2,5,-2,2,-6,-2,-1
1532063221287,0,-4,1,2,-13,-3,-3,1
1532063221292,-1,4,-1,-4,19,6,7,0
1532063221297,-2,-2,2,18,1,3,0,-1
1532063221302,-1,0,-2,3,-1,-2,-2,0
1532063221307,-2,-1,-5,-1,1,2,0,0
1532063221312,0,2,2,0,1,-1,0,0
1532063221317,-2,-5,3,17,-5,-4,-4,-1
1532063221322,0,0,2,-1,6,1,-3,-1
1532063221327,0,3,3,-4,-7,-5,-3,-1
1532063221332,1,2,-1,2,-2,-1,3,1
1532063221337,-1,-5,-4,1,2,2,-2,0
1532063221342,-3,3,0,8,-4,-2,0,-2
1532063221347,-4,-1,-4,-10,-3,-2,-4,-2
1532063221352,-2,1,4,-6,-4,-1,-1,-4
1532063221357,0,1,1,-2,6,2,3,-1
1532063221362,-1,1,-4,7,-3,-2,-1,0
1532063221367,2,2,0,6,3,3,2,0
1532063221372,0,-5,-7,1,-3,-3,0,0
1532063221377,-1,1,-4,-10,0,1,0,-1
1532063221382,8,-5,-2,0,-2,0,-3,0
1532063221387,-2,2,-1,-5,-1,-1,-3,-4
1532063221392,-2,-2,0,-8,-5,-2,1,1
1532063221397,-3,-1,1,1,-5,-5,-2,-1
1532063221402,0,1,1,-3,-2,-3,-4,1
1532063221407,0,-7,1,1,-1,-1,0,1
1532063221412,-1,-4,1,-6,-3,3,-2,-1
1532063221417,1,0,-3,-1,0,-2,-2,-1
1532063221422,-4,0,1,-3,0,0,-2,-4
1532063221427,1,3,1,-6,-1,1,1,-3
1532063221432,-1,-3,-4,3,-6,-3,-1,2
1532063221437,-1,-1,-1,7,2,-1,0,-1
1532063221442,4,-3,-1,-10,-4,3,-2,-4
1532063221447,7,2,-5,-2,13,1,2,1
1532063221452,-20,-11,-3,-5,-3,-1,-2,-2
1532063221457,-3,1,-2,-1,-6,-4,-5,-1
1532063221462,0,0,3,8,-1,-4,-2,-1
1532063221467,6,0,-1,-8,3,2,1,-1
1532063221472,5,3,5,-1,-2,2,2,-1
1532063221477,-5,-2,3,12,0,-3,-3,-1
1532063221482,5,-1,2,2,3,2,-3,0
1532063221487,-31,-7,-16,-38,-12,-4,-4,-7
1532063221492,2,3,-1,6,-3,-3,-3,1
1532063221497,1,0,2,-4,-1,1,2,0
1532063221502,-1,-1,1,9,3,0,1,0
1532063221507,3,2,2,2,-1,0,3,3
1532063221512,2,2,-1,0,0,-3,-2,0
1532063221517,1,2,-3,-10,-4,-1,-2,-3
1532063221522,-2,5,2,0,1,1,0,0
1532063221527,0,-18,4,23,3,-3,0,-2
1532063221532,6,9,-2,0,1,0,0,-3
1532063221537,-6,-2,2,-8,-1,0,-1,1
1532063221542,-2,2,-5,-13,-4,-2,-2,0
1532063221547,5,3,4,25,-3,-2,-5,0
1532063221552,-1,-3,1,-20,2,0,1,-2
1532063221557,5,1,-6,6,1,1,3,1
1532063221562,-5,-3,-1,-13,-6,-3,-3,1
1532063221567,-2,-2,-4,-27,3,0,0,-2
1532063221572,7,2,2,17,2,1,-3,-2
1532063221577,4,0,1,-1,-3,-4,-1,0
1532063221582,-8,-2,1,5,-1,-2,1,-3
1532063221587,3,2,-5,-24,-8,1,-1,0
1532063221592,1,4,6,10,12,4,3,0
1532063221597,-4,-4,-10,-34,-2,1,-2,-3
1532063221602,-5,-6,1,12,7,3,1,1
1532063221607,3,13,2,7,-7,-8,-8,-5
1532063221612,-2,-24,-3,3,-3,-6,0,0
1532063221617,-5,5,3,7,-10,2,-1,-4
1532063221622,7,6,2,9,16,7,8,-1
1532063221627,-2,0,5,8,12,4,7,6
1532063221632,-3,2,-3,-12,-9,-5,-2,-2
1532063221637,1,-13,3,-1,-2,-6,-3,-2
1532063221642,-3,3,-4,-1,-9,-7,-6,-2
1532063221647,0,0,0,15,-3,6,2,0
1532063221652,3,6,-1,6,7,1,0,0
1532063221657,-2,-1,0,-3,2,-1,4,0
1532063221662,1,-9,-9,-19,-10,-4,-7,-3
1532063221667,8,1,1,5,0,-3,-3,-1
1532063221672,-7,-2,-5,-10,-11,-5,-1,0
1532063221677,6,4,1,5,-2,1,-2,-3
1532063221682,-4,-2,4,11,8,-2,2,0
1532063221687,-1,-5,-7,-11,-14,-7,-6,-1
1532063221692,-3,1,-1,12,-3,-1,-2,-2
1532063221697,5,5,2,14,5,1,0,-3
1532063221702,-1,-7,-5,-20,-9,-3,-8,0
1532063221707,-8,-7,-1,2,-2,2,6,3
1532063221712,5,12,2,5,3,-1,-1,-2
1532063221717,5,-4,1,-6,-2,-2,-2,-3
1532063221722,-1,0,1,6,5,3,3,0
1532063221727,-3,1,-2,10,-4,-2,-1,-2
1532063221732,2,-2,-3,-17,-8,-4,-6,0
1532063221737,-5,-2,-3,-9,-2,-4,-2,-2
1532063221742,1,2,-2,-1,-6,2,1,-1
1532063221747,4,-2,3,11,11,2,1,0
1532063221752,-2,-3,-2,0,-1,-3,0,0
1532063221757,-2,-2,0,4,-3,-2,-3,-1
1532063221762,-5,-1,-3,0,-3,-3,-2,-3
1532063221767,-1,-1,-1,-1,-8,-2,1,-2
1532063221772,-4,0,0,3,11,4,1,0
1532063221777,-3,-3,-9,-10,-9,-3,-4,1
1532063221782,4,2,-2,0,12,6,6,1
1532063221787,-1,-3,1,-9,1,-1,-2,-2
1532063221792,-1,1,-2,16,-4,-2,-3,-2
1532063221797,-2,-5,0,-8,-8,-4,-4,0
1532063221802,-2,1,1,-3,-4,1,0,-2
1532063221807,7,8,-1,-4,-3,-2,1,-2
1532063221812,-3,-10,0,0,3,1,1,2
1532063221817,0,4,-1,6,-1,4,3,1
1532063221822,-3,1,0,0,-1,-2,-1,-2
1532063221827,3,-1,-2,-6,-1,-3,-3,-1
1532063221832,3,0,1,-1,-2,1,0,-1
1532063221837,-4,1,-1,0,6,0,0,-1
1532063221842,3,-5,0,-1,-8,-6,-3,-3
1532063221847,-3,1,2,3,-3,-3,-2,-1
1532063221852,-1,-5,0,-2,3,4,1,-2
1532063221857,-3,-8,-1,-2,-4,1,0,0
1532063221862,1,4,3,-6,8,0,-1,-1
1532063221867,-2,-5,-3,-5,5,4,0,-2
1532063221872,-2,3,-1,-2,-6,-4,-5,-3
1532063221877,2,1,3,5,1,-3,1,0
1532063221882,-1,-1,-5,-1,-5,-4,-2,0
1532063221887,-3,-2,1,0,-9,1,-1,-1
1532063221892,1,1,0,-5,2,0,1,-1
1532063221897,-1,-1,-1,14,7,1,-1,0
1532063221902,-2,-4,-5,-3,-6,-2,0,-2
1532063221907,-1,-2,1,-1,-1,-2,-1,-3
1532063221912,-3,1,-1,1,-1,2,-3,-1
1532063221917,2,3,5,5,2,-1,-1,-1
1532063221922,-4,-4,-4,-8,-5,-4,-1,0
1532063221927,0,0,-5,-7,-5,-2,-2,2
1532063221932,0,2,2,1,5,0,1,-2
1532063221937,0,2,3,3,-2,-5,-2,-2
1532063221942,-1,-6,0,-1,0,2,1,-3
1532063221947,0,1,0,2,4,4,0,2
1532063221952,0,2,-1,-9,-6,-4,-1,1
1532063221957,-1,-2,-1,-7,-5,-5,-4,-2
1532063221962,-1,1,3,5,6,2,1,-2
1532063221967,0,0,-1,1,-1,-1,-1,0
1532063221972,-2,-3,-3,2,-3,-1,2,-1
1532063221977,0,0,-1,-2,-3,-1,-3,-1
1532063221982,-1,3,1,-1,-4,-1,-3,-1
1532063221987,9,-9,-3,-3,-1,-1,1,-4
1532063221992,-18,-14,0,5,-2,-2,-5,0
1532063221997,0,3,-5,-4,4,0,2,2
1532063222002,-3,-4,1,5,-4,-1,-1,-2
1532063222007,2,5,5,-1,9,5,-2,-3
1532063222012,5,3,-1,-1,1,-4,-1,-1
1532063222017,-2,-6,-4,-12,-7,1,1,-3
1532063222022,-1,0,0,-2,6,-3,-3,-1
1532063222027,-6,1,0,4,-3,-5,-2,-1
1532063222032,3,1,2,-3,-8,-1,0,-1
1532063222037,-3,0,-1,-3,10,9,2,1
1532063222042,3,3,-2,-6,5,2,2,2
1532063222047,-4,-2,-3,8,-6,-6,-3,0
1532063222052,-1,-2,1,3,2,-1,-3,-2
1532063222057,3,-1,2,5,1,1,-2,-2
1532063222062,-2,-3,-2,-4,-5,0,1,1
1532063222067,-1,1,1,2,2,-2,1,-1
1532063222072,2,-2,-3,-6,-8,-5,-5,-3
1532063222077,-2,-1,-1,-2,-2,3,1,-1
1532063222082,0,0,0,3,0,-1,0,1
1532063222087,-3,-1,-2,-8,2,-2,-1,1
1532063222092,5,5,-1,-7,-5,0,1,1
1532063222097,-6,-1,-4,-9,-2,-7,-3,-2
1532063222102,1,-1,0,5,-11,-3,-4,-2
1532063222107,2,-1,-3,-2,5,2,2,-2
1532063222112,-2,-1,0,6,11,3,3,-1
1532063222117,3,2,-4,-7,-3,0,-2,-1
1532063222122,-3,-3,-3,-4,1,0,0,-2
1532063222127,-6,-2,-1,-2,-6,-2,1,4
1532063222132,4,6,2,2,2,5,2,-1
1532063222137,-1,-2,4,7,-1,-4,-4,-1
1532063222142,-2,-5,-1,3,-3,-1,-2,-1
1532063222147,-1,1,0,1,-1,0,-1,-1
1532063222152,0,0,-3,2,-2,-1,1,-1
1532063222157,-1,-3,-2,0,6,1,3,1
1532063222162,-4,-1,-1,1,-5,-4,-5,-4
1532063222167,0,0,0,-2,1,1,-1,-1
1532063222172,-1,-2,-1,9,-5,-2,-3,2
1532063222177,-1,1,-2,-2,-6,-3,-2,-3
1532063222182,0,-3,1,3,3,0,0,-1
1532063222187,-4,1,-1,-1,-13,-4,-1,-2
1532063222192,-2,-1,-2,-1,8,4,2,-2
1532063222197,1,1,0,0,2,0,1,2
1532063222202,-1,-1,-2,-4,3,-1,1,0
1532063222207,-2,-4,-1,0,-3,-3,-4,-3
1532063222212,-2,-1,-3,-6,-4,-3,-2,-1
1532063222217,0,-3,0,0,-5,-5,-4,0
1532063222222,0,2,-2,-3,-4,-1,0,0
1532063222227,0,1,2,2,9,4,5,2
1532063222232,1,-4,-4,-6,-1,2,-1,-2
1532063222237,6,3,-1,2,1,-1,-3,-1
1532063222242,-14,-2,0,-9,-6,-5,-3,-1
1532063222247,4,-1,1,-3,-3,-2,-1,-1
1532063222252,1,1,-1,1,6,0,-1,-1
1532063222257,-5,-3,-3,-8,-7,-3,0,-1
1532063222262,6,2,-1,7,8,2,-1,-2
1532063222267,-2,-5,-4,3,-8,-6,-2,0
1532063222272,-5,-2,-2,-7,1,-3,-2,0
1532063222277,6,5,1,1,1,6,2,-1
1532063222282,2,-6,0,3,9,2,1,1
1532063222287,-1,0,-2,-4,4,3,2,0
1532063222292,2,-1,0,4,-5,-3,-1,2
1532063222297,-4,-1,-1,-4,-6,-5,-3,0
1532063222302,1,1,-1,2,-2,-1,-1,-1
1532063222307,-1,-3,-2,-2,2,0,0,-1
1532063222312,-2,-4,-1,-3,-5,-5,-2,0
1532063222317,-2,0,1,1,-2,-2,-2,-1
1532063222322,0,-1,-1,1,0,2,2,2
1532063222327,1,3,-1,1,5,1,0,-2
1532063222332,-1,1,-2,-4,-3,-1,0,0
1532063222337,-3,-5,-2,-4,-3,-3,-3,-2
1532063222342,2,2,-1,-4,-8,-4,-1,-2
1532063222347,0,0,2,3,-1,-1,-1,0
1532063222352,-1,1,2,0,-1,3,-1,-2
1532063222357,-2,5,-6,-10,-5,-2,-3,-2
1532063222362,-2,-11,0,0,-1,3,3,-1
1532063222367,-1,-2,-1,-5,9,3,0,0
1532063222372,-2,2,0,10,4,-1,-1,0
1532063222377,2,-1,1,2,-5,-4,-1,0
1532063222382,-1,6,-2,-7,-1,-1,-3,0
1532063222387,-1,4,0,14,-6,-2,-2,0
1532063222392,-1,-10,-5,-1,-1,-1,-1,-2
1532063222397,-4,2,-1,-3,1,0,-1,-2
1532063222402,1,0,1,0,-2,-3,-1,1
1532063222407,-2,-2,0,-6,-3,-2,-3,-2
1532063222412,2,4,0,-2,-4,-2,0,-2
1532063222417,-2,-3,2,3,5,-1,3,0
1532063222422,-2,-3,-1,-2,-11,-2,1,2
1532063222427,0,0,1,-1,9,3,-2,-1
1532063222432,-1,0,1,-2,2,-1,1,0
1532063222437,-1,-5,0,2,0,-1,0,-2
1532063222442,-1,1,-5,-10,-7,-5,-4,-1
1532063222447,0,0,-1,0,-3,-3,1,1
1532063222452,0,0,0,-1,3,4,1,1
1532063222457,0,-1,-1,1,9,5,4,2
1532063222462,1,-3,2,3,1,0,-1,-1
1532063222467,-2,0,-2,-6,-7,-4,-5,-4
1532063222472,-4,-5,-2,-4,-3,-5,-2,-1
1532063222477,-1,-3,2,10,0,1,0,-1
1532063222482,-1,4,-1,-14,-1,-2,-2,-1
1532063222487,-2,-10,-2,-2,-1,-1,-2,-1
1532063222492,0,9,2,-3,-5,-1,1,2
1532063222497,-1,-7,-4,-3,1,3,1,0
1532063222502,-2,-2,0,1,-5,-3,-7,-1
1532063222507,-2,-2,0,1,7,1,2,-2
1532063222512,-1,0,-2,-5,-6,-2,1,0
1532063222517,2,0,2,0,4,5,0,0
1532063222522,0,1,0,5,7,2,1,-2
1532063222527,-2,0,-2,-7,-4,-3,-1,0
1532063222532,1,-3,-1,11,-6,-4,-4,-2
1532063222537,-5,-3,-2,0,-6,-3,-4,-2
1532063222542,-1,0,0,6,5,3,7,1
1532063222547,-1,1,0,0,-1,1,-1,-2
1532063222552,13,3,-1,-7,1,1,-2,0
1532063222557,-17,-2,1,2,-1,-2,-3,0
1532063222562,4,3,1,2,2,1,-2,-3
1532063222567,-3,-3,-6,-25,-14,-3,-1,0
1532063222572,-5,-1,0,-1,5,1,0,-1
1532063222577,6,3,-1,-4,-2,-2,-3,1
1532063222582,-2,0,1,8,3,-1,0,1
1532063222587,-2,-2,1,5,-1,2,2,-2
1532063222592,2,0,-1,-6,-2,0,-2,-1
1532063222597,1,0,0,3,-6,-3,-2,-1
1532063222602,-2,-2,-3,0,1,-4,-4,-1
1532063222607,3,1,-1,0,-5,-6,-3,0
1532063222612,-4,-3,-2,-2,-1,3,1,-1
1532063222617,4,0,0,-4,13,8,6,-1
1532063222622,-2,-2,-1,-1,-1,-2,0,-1
1532063222627,-2,-2,-2,1,0,-4,-3,-1
1532063222632,-2,1,1,0,-1,-2,-1,-3
1532063222637,-1,-2,-1,-4,-6,-4,-4,0
1532063222642,3,0,1,8,-4,-1,0,-1
1532063222647,1,3,0,2,2,1,-2,2
1532063222652,-6,-2,-1,4,-1,-3,-4,-3
1532063222657,2,-5,-3,-14,-2,-1,-1,-2
1532063222662,-5,-1,-2,-4,2,1,0,0
1532063222667,-1,0,1,10,3,-1,1,0
1532063222672,0,-6,0,-9,-7,-1,-2,-2
1532063222677,0,5,1,18,1,-1,-1,-1
1532063222682,-2,-5,-2,-13,0,0,0,1
1532063222687,-2,-9,-1,4,0,-1,0,-2
1532063222692,-1,7,0,7,2,-2,-2,0
1532063222697,0,-8,-1,-3,-4,-3,0,-2
1532063222702,-1,-4,0,14,-2,-4,-2,-1
1532063222707,1,2,0,-5,-1,1,0,1
1532063222712,-2,-3,1,1,1,-1,2,0
1532063222717,0,5,-1,-9,-2,-4,-2,-2
1532063222722,-3,-3,-4,-2,-10,-5,-6,0
1532063222727,0,1,1,2,3,2,1,-1
1532063222732,0,1,0,16,12,5,2,0
1532063222737,0,2,2,-15,-3,-3,-1,1
1532063222742,0,0,-2,-15,-1,1,-1,-1
1532063222747,-3,-11,-3,-2,-5,-3,-3,-2
1532063222752,-5,-2,-2,-7,-9,-6,-1,-1
1532063222757,-2,-1,-1,6,6,0,3,-1
1532063222762,2,5,2,6,2,5,-1,0
1532063222767,-1,4,-1,-1,-2,-1,2,1
1532063222772,-1,0,0,4,5,4,3,-1
1532063222777,-1,-3,-2,-4,-6,-5,-3,0
1532063222782,0,-2,-4,-11,-7,-3,-3,-1
1532063222787,-2,-9,0,1,2,1,-3,-2
1532063222792,0,-3,-3,-7,-2,-2,0,0
1532063222797,-3,-2,-2,7,-3,-5,-2,-3
1532063222802,-2,1,0,4,5,4,-3,-1
1532063222807,4,6,0,-9,-1,0,1,-1
1532063222812,-2,0,0,-4,-4,-2,-2,1
1532063222817,1,5,2,-3,-2,0,-1,0
1532063222822,-2,-9,1,-2,5,2,3,-1
1532063222827,-4,3,-3,-1,-2,-2,-4,-3
1532063222832,-2,-2,0,-9,-1,-5,-4,-3
1532063222837,0,1,-2,6,-6,0,2,0
1532063222842,-1,1,0,4,4,0,-2,-1
1532063222847,2,3,0,3,5,-1,3,1
1532063222852,1,-3,-2,-6,-1,2,1,-1
1532063222857,-1,-1,-3,-8,-6,-5,-4,-2
1532063222862,-2,-7,1,7,3,1,2,-1
1532063222867,-1,1,1,1,2,0,0,0
1532063222872,-3,-2,-2,-5,-6,-3,-2,-2
1532063222877,1,-2,-3,1,0,-1,-4,-2
1532063222882,1,0,-3,-2,0,0,0,1
1532063222887,1,1,-3,-3,-2,0,1,0
1532063222892,0,0,1,2,-1,1,0,1
1532063222897,-2,-10,1,9,1,1,0,0
1532063222902,0,7,0,-8,-5,-5,-2,-1
1532063222907,2,2,0,-1,-3,0,0,-1
1532063222912,-1,0,-2,-2,1,-4,-2,-3
1532063222917,-1,-1,0,-7,0,-1,-3,0
1532063222922,-1,-1,-2,6,-2,1,-4,-2
1532063222927,1,1,-1,-7,-5,-6,0,0
1532063222932,-2,-2,-3,-3,-3,2,4,0
1532063222937,-1,1,-4,2,8,6,2,0
1532063222942,-1,-4,-6,1,2,-2,-2,0
1532063222947,14,6,1,3,-3,2,-1,-2
1532063222952,-30,-9,-2,-1,0,-2,-4,-3
1532063222957,1,-1,2,-23,-8,-3,-3,-2
1532063222962,0,2,3,0,-7,-2,0,-3
1532063222967,-6,-6,0,-10,-2,-5,-1,0
1532063222972,3,0,2,4,2,5,2,-1
1532063222977,0,0,3,21,5,-1,-3,0
1532063222982,-2,-2,2,-6,-5,-4,0,-3
1532063222987,-2,1,1,-2,-4,-1,-4,-2
1532063222992,6,2,0,4,-3,-3,-2,1
1532063222997,-3,-4,0,-17,-1,3,2,-1
1532063223002,4,0,0,-13,2,-3,2,1
1532063223007,-7,-3,0,9,9,3,-2,0
1532063223012,1,0,-2,15,-2,2,-1,1
1532063223017,0,0,-2,2,2,-3,-1,-1
1532063223022,-2,2,1,0,-4,0,0,-1
1532063223027,-3,-2,-2,-6,5,0,1,-3
1532063223032,1,-2,-1,-7,-7,-5,-3,-1
1532063223037,2,3,-2,-2,6,1,0,2
1532063223042,-2,-1,0,4,-7,-1,-2,-2
1532063223047,-2,-3,0,3,15,6,4,-1
1532063223052,3,0,-3,-11,-6,-3,-2,-3
1532063223057,-1,-1,2,30,-6,-7,-3,-1
1532063223062,-1,-4,-3,-19,2,-3,2,1
1532063223067,-3,-1,-3,9,-5,4,-1,1
1532063223072,4,1,-2,-7,4,0,0,1
1532063223077,2,2,0,-9,-1,1,-1,-1
1532063223082,-1,0,-1,13,0,-2,-1,-2
1532063223087,0,2,1,-10,-7,-10,-3,-3
1532063223092,0,-5,-3,-10,1,0,2,-2
1532063223097,-3,-1,-1,15,12,8,3,-1
1532063223102,-2,-1,-2,4,-1,0,-3,-1
1532063223107,-2,-2,-5,0,-2,-3,2,2
1532063223112,1,4,1,-1,-7,-4,-2,-1
1532063223117,0,-2,-1,-12,0,0,0,-1
1532063223122,2,3,-1,2,3,2,3,1
1532063223127,-1,-6,1,4,-1,1,-2,-1
1532063223132,-2,-5,-1,10,-1,-4,-4,-3
1532063223137,-3,-3,-2,-22,-10,-3,-1,-2
1532063223142,-1,-1,3,13,3,3,0,-1
1532063223147,-2,0,-1,-2,-6,-5,-5,0
1532063223152,2,7,5,31,5,0,0,3
1532063223157,-1,0,0,-15,-5,1,-1,0
1532063223162,0,-4,0,-14,-4,-2,0,-1
1532063223167,-4,-4,-4,5,-8,-1,-4,-3
1532063223172,1,-2,-2,-8,13,8,0,-1
1532063223177,0,4,-1,8,-5,-8,-2,-1
1532063223182,0,2,-1,-3,-6,2,2,1
1532063223187,1,0,3,3,10,7,3,1
1532063223192,-1,1,-4,-18,-5,-3,0,-1
1532063223197,-2,4,0,8,1,-1,0,1
1532063223202,-3,-8,-2,-1,-3,-3,-3,-1
1532063223207,-1,0,-1,-12,-6,-4,-3,-4
1532063223212,-2,-2,1,-4,0,-1,-2,-1
1532063223217,1,-2,-1,12,0,0,1,-1
1532063223222,0,1,-1,0,7,-3,-4,2
1532063223227,1,1,2,6,-7,-1,2,-1
1532063223232,-1,-1,-2,-14,-1,1,-1,1
1532063223237,-1,0,-1,0,-4,-3,-3,-2
1532063223242,0,1,-1,-2,1,-4,-2,-2
1532063223247,1,0,0,11,6,2,2,1
1532063223252,-2,-2,-2,-15,-13,-2,0,-1
1532063223257,-3,-2,1,10,0,-2,-1,-2
1532063223262,-2,2,-1,-4,0,1,-1,-1
1532063223267,0,-3,-4,-8,5,-5,-5,-2
1532063223272,-1,-1,-2,3,-2,0,0,-1
1532063223277,-1,-3,-2,0,-6,0,0,-1
1532063223282,-1,-1,1,-8,10,2,1,-3
1532063223287,-2,-2,0,26,-6,-5,-5,1
1532063223292,-1,-1,1,-14,-9,0,-4,-1
1532063223297,1,-1,-2,-2,4,3,2,-1
1532063223302,-2,-2,-2,-23,-4,1,1,-1
1532063223307,-1,-2,2,-2,7,3,0,-1
1532063223312,1,0,-1,8,3,0,-3,1
1532063223317,-3,-2,-1,-6,-12,-9,-6,-2
1532063223322,0,0,-2,-2,-3,4,1,1
1532063223327,0,2,1,-7,6,1,2,0
1532063223332,-2,-2,-2,-3,-6,-4,-3,-3
1532063223337,-1,-1,1,13,1,-1,-3,-1
1532063223342,1,4,5,-9,8,-1,-3,-4
1532063223347,-2,-3,-5,4,-10,1,-3,0
1532063223352,-1,-1,2,4,7,3,2,-1
1532063223357,1,3,-1,-7,-2,-4,2,2
1532063223362,-2,-3,0,16,-2,-2,1,0
1532063223367,-1,-4,-1,-4,9,3,-4,-3
1532063223372,1,5,4,3,3,-1,-1,0
1532063223377,-1,-8,0,-18,4,3,4,-1
1532063223382,-2,4,-5,14,-2,-6,-3,1
1532063223387,-1,-1,1,-1,-11,-4,-2,1
1532063223392,0,1,-1,10,2,1,1,0
1532063223397,2,5,-1,-6,0,-2,-4,-1
1532063223402,0,-6,-1,-9,-1,-1,2,0
1532063223407,-7,-19,-5,-6,-14,-4,-4,-3
1532063223412,-1,1,2,3,3,1,1,-1
1532063223417,-4,-2,-2,22,10,4,0,1
1532063223422,1,3,-4,-15,-8,-3,-3,-1
1532063223427,4,4,1,-2,0,2,0,0
1532063223432,0,-3,-1,-16,0,-3,-3,-2
1532063223437,-2,-4,1,21,2,-4,0,-1
1532063223442,1,-2,-2,-21,-4,3,1,0
1532063223447,1,1,-2,3,0,-3,-2,0
1532063223452,-1,-1,-1,26,0,1,-1,0
1532063223457,0,3,2,-38,8,0,1,-1
1532063223462,-1,-8,1,26,-2,-4,-5,-2
1532063223467,1,9,3,-10,-5,1,3,1
1532063223472,-1,-7,-2,-11,13,2,3,-1
1532063223477,-3,-6,-2,-6,-12,-7,-3,-2
1532063223482,-3,1,-3,-2,-6,0,-4,0
1532063223487,-1,2,2,3,4,1,1,1
1532063223492,-1,0,-4,15,-5,-8,-2,0
1532063223497,1,-1,2,15,-2,1,-5,1
1532063223502,0,2,-3,-4,-4,-3,2,1
1532063223507,1,-1,0,-5,10,4,2,-2
1532063223512,0,1,-2,-18,-5,-8,-1,-3
1532063223517,-1,0,-1,37,-10,1,5,1
1532063223522,-2,-7,3,21,20,10,-3,3
1532063223527,1,8,1,-5,-1,-3,1,1
1532063223532,0,-8,-1,2,0,2,0,0
1532063223537,-2,-15,-4,-24,0,-5,-6,-3
1532063223542,-3,6,2,4,-6,-6,-4,-6
1532063223547,-1,0,0,3,-1,-3,-1,-2
1532063223552,0,2,0,-23,6,4,5,0
1532063223557,1,3,0,0,-5,-1,-5,3
1532063223562,-1,-5,0,9,-2,4,5,0
1532063223567,0,-1,-1,-7,4,2,0,0
1532063223572,-2,1,-4,-15,-7,-8,-3,-1
1532063223577,1,3,-2,-10,-5,2,1,-3
1532063223582,-1,-1,-2,3,3,2,1,0
1532063223587,1,1,-4,-5,8,-1,0,-2
1532063223592,3,19,4,5,-3,6,0,0
1532063223597,-6,-20,-4,28,-2,-3,0,-1
1532063223602,-4,-32,-2,-8,-3,3,0,-4
1532063223607,-3,10,-1,-51,0,0,0,-1
1532063223612,-1,3,1,26,1,-1,0,-1
1532063223617,0,3,3,14,1,-1,-6,-1
1532063223622,2,7,-1,-15,-5,-8,1,-3
1532063223627,-8,-15,-6,24,-15,-11,-12,1
1532063223632,0,-2,-2,-9,-6,4,4,0
1532063223637,2,9,-2,-26,14,11,8,4
1532063223642,1,3,-3,11,8,-2,3,1
1532063223647,0,-4,1,-9,-4,0,0,-3
1532063223652,-1,-1,-1,-8,-6,-10,-7,-2
1532063223657,-2,-4,-5,0,-12,-6,-3,-5
1532063223662,-2,-4,-4,16,2,-1,-4,-3
1532063223667,2,10,-2,-39,-3,0,-1,0
1532063223672,-3,-16,0,1,-9,-5,-4,-1
1532063223677,-1,-3,2,-11,6,4,2,0
1532063223682,5,25,1,-7,-2,-2,-1,3
1532063223687,1,-17,3,17,-11,-7,-4,0
1532063223692,-6,-13,-8,17,4,4,3,-4
1532063223697,-3,-9,-4,-33,12,11,-1,-2
1532063223702,-2,-11,0,25,-1,-4,-3,-2
1532063223707,-1,1,-3,8,-3,3,0,0
1532063223712,2,4,3,3,-2,-4,-2,1
1532063223717,1,13,0,1,-5,-8,-2,-1
1532063223722,0,-3,-1,-1,-3,1,0,1
1532063223727,1,-3,4,10,9,8,4,-1
1532063223732,-2,-3,-1,-9,0,-1,-2,2
1532063223737,0,7,1,-3,0,-1,-1,-2
1532063223742,-3,-9,-1,-5,-7,-7,-7,0
1532063223747,0,10,2,1,-4,-8,-5,-1
1532063223752,1,-2,-1,-5,-2,1,0,-2
1532063223757,-1,-12,-6,2,-5,5,3,-1
1532063223762,1,13,1,3,5,3,3,1
1532063223767,-5,-30,-4,-8,2,-4,-1,-6
1532063223772,-1,10,1,13,-3,-3,0,-2
1532063223777,1,0,-2,2,-8,-8,-5,0
1532063223782,-2,-2,-3,-19,-6,-1,0,-2
1532063223787,3,8,0,9,0,8,6,2
1532063223792,0,4,3,1,12,1,-2,-3
1532063223797,-1,0,-1,-5,-3,-5,1,-2
1532063223802,-2,-5,3,17,-2,2,-6,-2
1532063223807,0,7,1,3,1,-7,-1,0
1532063223812,-1,-1,-3,-2,-2,-3,-3,1
1532063223817,-2,2,1,-6,1,1,-2,-2
1532063223822,-1,2,-1,-15,4,2,1,-1
1532063223827,0,0,-1,-12,-2,1,2,-2
1532063223832,-2,-5,1,27,1,1,0,0
1532063223837,-1,5,-4,-43,-5,-2,-2,0
1532063223842,-1,-3,1,10,-1,-4,-2,-1
1532063223847,-2,-3,-4,5,-3,1,1,-3
1532063223852,1,8,-3,-11,-2,6,4,-1
1532063223857,4,3,0,1,6,-1,-2,-1
1532063223862,-1,0,-3,-10,-7,-6,-6,-2
1532063223867,-1,0,-3,11,-4,-3,-1,3
1532063223872,0,-4,1,-1,8,8,1,0
1532063223877,-1,0,-2,8,2,0,4,-1
1532063223882,1,5,-2,-22,-3,0,3,0
1532063223887,0,-6,-1,-1,-1,-2,-1,-1
1532063223892,-3,-7,-4,3,-9,-7,-7,-4
1532063223897,-1,0,1,-24,-1,1,0,1
1532063223902,-1,1,3,5,5,1,-4,1
1532063223907,1,7,-1,1,-3,-3,-3,-4
1532063223912,-1,-4,-4,-2,-4,-5,4,2
1532063223917,0,-7,4,14,7,6,4,-2
1532063223922,1,10,-3,-10,4,1,1,-1
1532063223927,-3,-3,0,6,-5,-2,-7,-1
1532063223932,1,-3,1,-6,10,2,0,-2
1532063223937,1,5,1,-3,-2,-7,-4,-2
1532063223942,3,-1,2,11,0,1,4,8
1532063223947,-2,-3,0,1,5,2,-1,1
1532063223952,-2,-2,-6,-11,-10,-6,-7,-3
1532063223957,-1,4,-2,7,-5,-3,-3,1
1532063223962,-5,-17,-5,-2,-1,-1,0,-5
1532063223967,-2,9,3,-3,6,1,-1,-2
1532063223972,1,0,1,-3,-9,0,0,2
1532063223977,0,-1,-2,8,10,6,4,-2
1532063223982,2,5,1,25,-2,-3,0,-3
1532063223987,-1,-6,-2,-20,-9,-8,-5,0
1532063223992,-2,2,1,-3,5,7,-3,0
1532063223997,-1,4,-1,14,-3,-1,3,1
1532063224002,-3,-17,-2,-3,0,-1,-2,-5
1532063224007,3,14,0,7,1,1,2,0
1532063224012,0,-10,1,-6,-2,-3,-5,-2
1532063224017,-6,-33,-4,0,-4,-2,-3,2
1532063224022,0,22,0,-10,-2,-2,0,-2
1532063224027,1,-6,-3,7,-2,-2,-2,1
1532063224032,2,9,1,2,-3,-2,-2,0
1532063224037,2,10,3,3,0,-3,6,1
1532063224042,-7,-32,-7,-12,-10,-1,-11,-10
1532063224047,0,1,3,24,12,6,4,6
1532063224052,-2,16,-2,-10,-2,-3,-4,-1
1532063224057,2,3,1,-6,-6,-6,-4,-2
1532063224062,1,12,3,17,-3,-4,-1,-1
1532063224067,2,-6,-1,-3,-2,2,3,-3
1532063224072,-1,-10,9,13,9,5,6,0
1532063224077,0,-7,-2,-1,5,2,-2,-4
1532063224082,0,5,-4,-24,-3,-5,-2,-1
1532063224087,0,2,-1,5,-15,-1,0,-2
1532063224092,2,6,1,-7,1,0,1,3
1532063224097,-2,-3,0,10,5,4,3,-2
1532063224102,-1,-2,3,1,2,-1,-1,1
1532063224107,-3,-6,-2,2,-1,-4,-4,-2
1532063224112,0,-1,-2,-18,-9,-5,-5,-3
1532063224117,1,6,-1,10,-3,-2,2,-2
1532063224122,-2,-3,-3,-12,-3,3,1,2
1532063224127,1,7,1,-1,4,-1,5,3
1532063224132,-1,-3,-2,-14,2,2,1,0
1532063224137,-5,-5,-2,20,-3,-3,-5,-2
1532063224142,-6,-16,-3,-15,-1,-2,5,-1
1532063224147,-2,-15,-1,-6,-2,-1,-6,-5
1532063224152,4,21,1,2,0,-3,-2,-1
1532063224157,7,4,5,1,-7,-4,0,3
1532063224162,-4,-6,2,-20,10,5,2,-1
1532063224167,-9,-19,-11,15,-12,-7,-12,-2
1532063224172,2,29,-2,0,2,7,4,0
1532063224177,-1,-13,-1,0,2,1,0,0
1532063224182,0,22,1,3,0,-1,-6,-5
1532063224187,-7,-21,-6,-21,3,-4,0,-6
1532063224192,1,-3,0,7,-3,-3,2,1
1532063224197,2,14,-2,-19,-10,-1,-4,2
1532063224202,4,4,2,3,1,2,4,6
1532063224207,2,14,5,9,6,3,2,-2
1532063224212,-3,-15,-3,12,-9,-7,-5,0
1532063224217,-1,2,-1,-25,4,2,-1,-2
1532063224222,1,-2,1,30,-5,-5,-4,-3
1532063224227,4,9,1,-12,-1,3,3,3
1532063224232,-2,-10,-1,6,13,8,5,1
1532063224237,2,4,-1,-2,-1,-5,-5,-1
1532063224242,-4,-18,-1,11,-2,-1,2,-1
1532063224247,0,-7,-3,-4,-2,5,2,-2
1532063224252,-1,-5,-2,-9,5,1,0,-2
1532063224257,-6,-2,-2,3,-3,-2,-4,-2
1532063224262,1,12,2,5,-4,-3,-2,0
1532063224267,0,17,2,-13,-6,-4,-2,0
1532063224272,-5,-41,-3,-4,-2,-3,-3,-1
1532063224277,-1,-4,-2,10,-4,0,-3,-3
1532063224282,4,12,-2,-4,-2,-2,-3,-1
1532063224287,0,-7,1,1,1,0,5,-6
1532063224292,-2,-2,-2,3,-2,0,-4,6
1532063224297,-1,18,0,-8,1,-2,2,0
1532063224302,-2,-25,-2,-3,-2,-2,2,0
1532063224307,-2,13,1,-3,1,2,-1,-1
1532063224312,3,9,1,-3,-1,-2,0,-1
1532063224317,2,4,2,4,-3,0,6,3
1532063224322,-6,-15,-5,8,4,1,-1,1
1532063224327,-13,-32,-6,-51,-3,-5,-4,-9
1532063224332,-3,1,-1,26,-6,-3,-3,0
1532063224337,1,9,0,-14,-1,-1,-5,-1
1532063224342,8,17,4,4,0,1,2,3
1532063224347,2,-10,1,13,3,3,5,11
1532063224352,-1,9,-1,-12,0,1,0,-5
1532063224357,-3,-21,-3,-26,0,1,1,-3
1532063224362,-3,11,-1,18,-4,-1,-1,-3
1532063224367,9,32,4,16,0,-1,-5,0
1532063224372,-2,-1,-1,-3,-2,-2,2,-1
1532063224377,-9,-33,-5,8,0,-1,-1,-4
1532063224382,1,14,-4,-5,-10,1,1,1
1532063224387,5,5,-1,-11,2,2,2,3
1532063224392,-1,18,-3,12,-2,-3,-9,-1
1532063224397,-3,9,-1,-1,2,-3,-1,-6
1532063224402,1,-5,0,-4,1,1,-1,1
1532063224407,5,16,3,3,-2,2,0,-2
1532063224412,3,10,1,-3,0,0,10,2
1532063224417,-6,-42,-4,-10,-2,-1,-9,3
1532063224422,-2,12,-2,3,-4,-6,-6,-4
1532063224427,3,15,1,12,1,0,-2,2
1532063224432,-1,-23,1,7,3,4,7,-2
1532063224437,3,36,-1,-7,0,-1,-2,-4
1532063224442,-3,-25,-3,-52,-10,1,0,-2
1532063224447,-8,-6,-6,42,-3,-6,-12,-8
1532063224452,-4,-3,0,-13,-4,-1,1,0
1532063224457,0,-4,0,30,4,0,1,0
1532063224462,11,35,6,17,4,1,2,2
1532063224467,-4,-20,-3,-12,-8,-2,1,5
1532063224472,-1,-33,3,32,7,-1,-1,-2
1532063224477,2,20,-7,-32,-5,-1,1,-5
1532063224482,0,-9,3,-6,1,-1,-2,9
1532063224487,-8,-16,-1,-2,-3,-3,3,-10
1532063224492,-7,12,-12,8,-4,-1,-9,-4
1532063224497,5,9,2,9,2,1,-2,3
1532063224502,-1,-25,1,-4,-1,0,2,-7
1532063224507,8,49,2,-8,0,-2,3,8
1532063224512,-3,-34,-2,-26,-7,-6,-2,-6
1532063224517,-2,-12,-2,20,-2,-2,-7,2
1532063224522,3,22,1,45,5,4,8,5
1532063224527,-4,-26,-3,-28,3,1,-2,-1
1532063224532,-8,-7,-10,-1,-1,-5,-10,-11
1532063224537,5,33,3,-17,-12,0,7,8
1532063224542,-7,-13,2,2,1,-2,0,-5
1532063224547,-7,-14,-6,-7,-2,0,-9,-3
1532063224552,4,2,2,-7,-3,-2,-2,-2
1532063224557,6,18,4,11,4,5,2,8
1532063224562,7,15,-1,-6,-1,0,2,7
1532063224567,-10,-41,-2,25,1,0,-1,-1
1532063224572,-5,-15,-6,-35,-2,0,4,-7
1532063224577,-5,9,-1,57,-6,-5,-9,-3
1532063224582,-1,-9,-1,-26,5,1,4,-7
1532063224587,18,32,6,10,6,3,11,16
1532063224592,-16,-16,6,7,-8,-2,31,7
1532063224597,-29,-25,-5,-25,2,-9,-24,-24
1532063224602,-10,-8,-8,9,-1,-1,-36,1
1532063224607,5,-2,6,15,-2,-1,5,-22
1532063224612,14,29,3,-15,-2,0,2,2
1532063224617,2,-39,-3,-4,12,5,18,18
1532063224622,2,9,-2,1,-2,0,8,-2
1532063224627,0,7,2,-21,-5,-5,-10,-11
1532063224632,-6,16,-5,2,-3,-3,-14,4
1532063224637,10,3,3,-12,2,2,3,-3
1532063224642,8,6,3,1,-1,-1,6,0
1532063224647,1,-7,-5,3,3,-1,4,14
1532063224652,-1,-5,-5,5,-3,1,-9,0
1532063224657,-6,5,1,-5,-13,-4,-4,-7
1532063224662,-2,4,0,-20,1,-2,2,-6
1532063224667,-9,-1,-5,-12,0,0,-5,5
1532063224672,1,4,1,7,6,1,-3,-1
1532063224677,3,0,2,6,-2,-2,1,-2
1532063224682,-4,-5,-3,-16,-4,-6,-3,1
1532063224687,0,-1,0,-4,-4,-2,0,-5
1532063224692,6,5,7,9,3,3,-1,2
1532063224697,2,-4,-3,-10,1,0,0,0
1532063224702,-4,-8,-3,-7,-3,0,1,-4
1532063224707,-4,0,1,14,5,2,-2,1
1532063224712,-1,-1,1,3,-3,-2,-3,-2
1532063224717,2,-1,-1,-1,-2,-2,-2,1
1532063224722,-5,-8,-3,-4,-1,2,1,-3
1532063224727,-2,-1,1,1,1,-1,0,-1
1532063224732,2,1,-4,-6,-2,-5,-6,1
1532063224737,0,-3,0,-2,-1,-1,-2,-2
1532063224742,0,-4,0,3,-5,-3,1,-1
1532063224747,-1,-2,-2,5,-2,-2,-1,-1
1532063224752,2,2,0,-1,3,1,-2,-1
1532063224757,-1,-3,0,1,0,4,2,0
1532063224762,-3,-5,-2,-2,3,2,1,-3
1532063224767,1,4,-2,2,1,1,0,1
1532063224772,0,-3,-5,-14,-5,-5,1,-2
1532063224777,-1,-3,-3,-8,-5,-5,-3,-2
1532063224782,-1,0,-1,16,-1,2,-3,0
1532063224787,-1,0,-1,2,3,1,3,-1
1532063224792,1,1,0,1,2,3,1,1
1532063224797,15,4,-2,-5,4,0,1,1
1532063224802,-37,-18,-1,0,-1,-4,-4,-1
1532063224807,-5,-5,-1,1,-8,-2,7,-5
1532063224812,2,0,-5,-15,1,-4,-17,-3
1532063224817,0,0,1,0,-4,0,14,0
1532063224822,5,-2,3,6,-1,-2,-16,3
1532063224827,12,2,-1,-2,3,1,-8,-5
1532063224832,-12,0,5,7,-3,3,15,9
1532063224837,-1,-1,-2,-14,-7,-4,-8,-8
1532063224842,4,0,-1,3,1,-2,6,-1
1532063224847,-6,-1,-1,-1,-1,0,-2,0
1532063224852,10,4,7,2,-6,1,-1,-1
1532063224857,-2,-2,0,32,7,2,1,-1
1532063224862,0,-2,-6,-30,-7,0,4,-1
1532063224867,1,1,-1,-15,10,-3,-8,1
1532063224872,14,6,2,9,-12,-3,1,-1
1532063224877,-10,-4,2,16,7,5,1,2
1532063224882,9,-2,-9,-18,-2,-1,-6,-4
1532063224887,-18,-1,2,21,4,3,10,-2
1532063224892,-1,-1,-3,-41,-9,-3,-9,-3
1532063224897,1,2,2,11,-1,-3,-5,0
1532063224902,9,6,2,-5,-6,-3,-1,-1
1532063224907,-2,1,7,11,-7,0,1,1
1532063224912,-4,-2,-1,6,6,-2,3,-3
1532063224917,5,-1,2,-5,0,0,0,-3
1532063224922,-5,-2,1,-5,2,-1,-6,8
1532063224927,3,-6,-6,-25,-12,-3,-5,-4
1532063224932,-4,-3,-6,-8,10,-3,-8,-3
1532063224937,1,-4,-4,-16,-15,1,-11,0
1532063224942,7,5,3,41,7,6,18,0
1532063224947,-10,1,2,-9,0,-3,0,0
1532063224952,1,-4,-4,21,5,-3,3,0
1532063224957,8,4,-2,-35,-13,2,-4,-1
1532063224962,-29,-11,-9,-37,-8,-4,-2,-7
1532063224967,14,4,-8,-4,-1,1,0,2
1532063224972,-3,0,2,23,7,-3,5,-1
1532063224977,-7,0,2,4,4,-2,1,1
1532063224982,10,3,-5,-11,0,1,1,1
1532063224987,-3,-7,-4,14,-8,-5,-10,-4
1532063224992,-3,-5,0,-11,-5,0,3,-3
1532063224997,-1,-3,-6,0,2,-2,3,1
1532063225002,12,5,3,7,-1,1,-2,1
1532063225007,-1,-2,-5,-13,-4,-5,0,-5
1532063225012,-1,1,1,24,0,2,-2,2
1532063225017,6,-4,-2,-16,-11,4,-12,6
1532063225022,-6,2,-1,1,10,-2,5,-3
1532063225027,-13,0,5,7,3,2,5,1
1532063225032,-2,0,-2,-3,-2,0,-4,1
1532063225037,-3,-1,-5,3,-4,-4,4,-4
1532063225042,10,-4,1,4,0,-5,-2,1
1532063225047,-6,2,0,6,1,3,9,6
1532063225052,-3,0,0,-10,0,-1,-10,-12
1532063225057,-9,-2,0,5,2,-3,1,-3
1532063225062,11,1,1,10,1,0,-2,-2
1532063225067,4,-2,0,-3,-5,0,1,2
1532063225072,-3,-4,-4,-4,0,0,6,4
1532063225077,-5,0,2,6,4,-2,0,-1
1532063225082,-4,-2,-1,6,-1,-2,-6,-5
1532063225087,2,1,2,7,9,5,-1,2
1532063225092,-1,0,-1,-12,-10,-2,2,-1
1532063225097,11,3,-1,2,2,-1,-5,-1
1532063225102,-2,2,3,4,2,-3,6,4
1532063225107,-5,-10,-4,-8,-3,-2,-2,-4
1532063225112,12,1,3,3,1,2,-2,4
1532063225117,-13,-5,-10,-12,-1,-3,0,-6
1532063225122,4,1,0,-13,-11,0,-2,-2
1532063225127,4,4,-3,-17,3,-1,-5,-2
1532063225132,-1,-3,2,14,-1,1,-3,0
1532063225137,1,0,3,7,9,3,11,2
1532063225142,-13,-5,-6,10,-9,-5,-12,-2
1532063225147,17,2,0,-4,0,-4,2,-1
1532063225152,-2,-3,-3,4,-2,-2,-10,8
1532063225157,2,3,1,-12,0,2,2,-8
1532063225162,1,-1,2,11,4,4,2,-2
1532063225167,0,0,-2,-3,-1,-1,-1,-3
1532063225172,-3,-1,-3,-13,-17,-6,2,3
1532063225177,11,4,0,5,5,2,0,2
1532063225182,-32,-16,1,-1,7,3,-1,-5
1532063225187,18,2,-1,15,-1,-3,1,7
1532063225192,-27,-1,-1,-13,6,1,13,-7
1532063225197,-6,-4,-2,-5,-6,-6,-18,-2
1532063225202,4,1,0,2,-2,0,6,-3
1532063225207,-10,-1,-1,-5,1,1,-1,-1
1532063225212,5,-1,2,4,4,1,-3,-1
1532063225217,-5,0,0,7,-2,-1,3,-2
1532063225222,2,3,1,-3,0,-1,-2,4
1532063225227,-2,-2,-3,-3,-3,-3,-9,0
1532063225232,5,-1,-3,14,-2,1,2,-2
1532063225237,-6,-2,2,-20,7,4,17,0
1532063225242,4,-3,-5,-18,-15,-3,-22,0
1532063225247,8,3,2,11,2,-1,0,0
1532063225252,3,0,0,8,0,-2,-2,-4
1532063225257,-5,2,-1,0,-2,-5,-1,-2
1532063225262,1,2,0,7,4,-2,4,-1
1532063225267,-4,-2,-1,-14,-5,1,0,0
1532063225272,0,1,3,15,8,1,1,1
1532063225277,-2,-6,-10,-7,-4,2,-1,2
1532063225282,25,8,0,-15,-3,-2,1,0
1532063225287,-35,-6,-2,11,-4,-3,-6,-6
1532063225292,10,1,-2,0,9,2,-3,1
1532063225297,-7,-3,5,4,-8,-5,5,3
1532063225302,-1,-2,0,10,-1,-2,-10,-6
1532063225307,8,3,0,0,3,0,7,-4
1532063225312,-4,-1,-2,-24,-8,-1,-4,9
1532063225317,-3,-2,0,11,-1,-1,-9,-6
1532063225322,2,2,-1,5,2,0,-1,-1
1532063225327,2,1,0,1,2,-1,-4,-2
1532063225332,-4,-1,-3,2,6,3,6,0
1532063225337,3,0,-2,2,-5,-4,-2,0
1532063225342,-3,-5,-3,1,-3,-4,-11,-2
1532063225347,4,1,0,2,0,0,9,0
1532063225352,-5,-2,-1,-6,-5,-3,-1,4
1532063225357,-1,-3,-3,-1,-6,-2,2,-2
1532063225362,-3,1,3,1,7,1,10,-3
1532063225367,-3,-1,1,14,6,3,8,2
1532063225372,8,-1,-5,-32,-8,-4,-15,-10
1532063225377,-6,-4,-4,16,0,0,-1,0
1532063225382,-1,-2,-1,-24,-4,-2,16,7
1532063225387,7,-1,-2,-3,-5,-2,-29,-12
1532063225392,-17,-2,0,16,7,2,3,6
1532063225397,0,-3,4,0,0,1,-2,-2
1532063225402,1,4,1,5,0,-2,-2,2
1532063225407,11,2,-2,-15,-3,-3,10,3
1532063225412,-16,-7,-8,-18,-5,1,1,-9
1532063225417,7,-2,-2,21,-1,0,-24,9
1532063225422,-7,2,4,-2,6,2,13,0
1532063225427,1,-2,-3,-1,1,0,-9,-4
1532063225432,-1,-3,-5,-28,-12,-8,-6,-15
1532063225437,-2,-1,2,-12,-5,3,16,13
1532063225442,1,-1,-2,1,4,6,-2,-2
1532063225447,5,-1,3,-4,1,-1,-7,-1
1532063225452,-22,1,5,17,1,-1,9,3
1532063225457,3,0,-1,0,1,-4,-5,-5
1532063225462,9,1,-2,-4,-5,-1,-11,5
1532063225467,1,2,-2,-6,-2,2,9,0
1532063225472,10,-1,1,9,3,1,7,0
1532063225477,2,0,0,9,-1,-3,-1,5
1532063225482,-7,-4,1,2,1,0,0,-8
1532063225487,-5,0,0,-9,-1,3,3,-1
1532063225492,12,0,1,30,4,0,-8,1
1532063225497,-5,-2,4,-18,-2,1,9,-6
1532063225502,6,-3,-8,-4,-11,-2,-8,5
1532063225507,-2,-5,-1,1,-3,-3,-4,1
1532063225512,-6,-2,2,15,1,1,1,2
1532063225517,2,-1,-3,-8,4,3,4,-4
1532063225522,-2,-1,0,5,7,-1,-5,-2
1532063225527,-2,-3,-2,-9,-3,0,-1,-4
1532063225532,-5,-3,-2,9,-9,-2,-13,3
1532063225537,11,2,-5,-14,4,-1,-2,-3
1532063225542,0,-1,1,4,-1,0,17,12
1532063225547,-7,-2,-3,-4,2,0,-25,-17
1532063225552,14,3,2,-9,3,3,5,-1
1532063225557,-24,-4,-1,8,-1,-1,4,-8
1532063225562,-1,-2,2,5,-3,0,5,-4
1532063225567,2,1,4,-11,9,4,10,3
1532063225572,5,4,-4,-29,-10,-5,-8,1
1532063225577,-11,-20,-1,24,0,-2,-7,-2
1532063225582,-10,-6,-8,-27,-10,-7,-2,-9
1532063225587,-7,-2,0,15,-3,-1,-4,6
1532063225592,8,3,1,17,13,6,2,-4
1532063225597,6,2,-3,-29,-8,-2,-1,3
1532063225602,1,2,4,19,6,3,3,-4
1532063225607,-3,-3,-7,1,-13,-7,-5,3
1532063225612,-6,-2,2,1,0,-2,3,-1
1532063225617,3,3,4,21,6,4,11,7
1532063225622,-4,-4,-7,-5,5,2,-28,-6
1532063225627,5,0,-3,-33,-2,1,3,1
1532063225632,-1,-1,2,-4,0,0,0,-1
1532063225637,-1,1,0,16,-2,-3,-3,-3
1532063225642,12,2,1,16,3,-2,-3,1
1532063225647,-8,-2,2,20,2,0,-4,0
1532063225652,1,-2,-1,-12,-11,-4,-1,3
1532063225657,1,0,-1,-6,3,1,1,-3
1532063225662,8,2,-1,-20,-6,-1,3,0
1532063225667,8,8,2,3,-4,0,5,4
1532063225672,-33,-21,-4,-18,2,0,5,-2
1532063225677,-6,1,0,12,-1,0,-9,-3
1532063225682,15,-2,3,18,3,-2,2,2
1532063225687,-12,-2,-4,-6,-2,-4,-3,-3
1532063225692,0,3,2,10,1,-1,-4,-2
1532063225697,2,2,0,8,4,1,2,-1
1532063225702,-7,-2,-1,-19,-4,-1,1,-2
1532063225707,2,0,2,17,5,1,1,0
1532063225712,4,-4,-12,-63,-14,-4,-1,-3
1532063225717,2,-1,-2,3,-3,-2,-4,-5
1532063225722,-3,3,1,8,8,-2,-1,0
1532063225727,1,-2,0,20,-4,-2,2,1
1532063225732,-1,3,0,1,-2,1,3,-2
1532063225737,5,0,-2,-4,-2,0,-6,1
1532063225742,-7,-2,0,-9,0,-1,2,-3
1532063225747,1,-2,-1,-17,-1,-4,2,-3
1532063225752,2,1,-1,29,1,-3,-4,0
1532063225757,1,2,-1,-1,-1,-1,-3,-1
1532063225762,-3,1,-1,3,-5,-2,0,-1
1532063225767,0,-5,-2,-5,0,0,-2,-2
1532063225772,2,1,-3,-6,-3,0,4,0
1532063225777,1,0,1,14,5,1,-5,2
1532063225782,-4,-3,0,15,6,-2,-1,-2
1532063225787,0,-1,-1,-31,-24,-2,-2,1
1532063225792,1,1,-1,-4,5,3,1,0
1532063225797,-1,0,1,0,0,0,1,-3
1532063225802,-1,-2,-2,-2,2,-2,-2,1
1532063225807,0,-1,1,7,3,-1,1,-3
1532063225812,3,3,5,25,6,2,2,2
1532063225817,-2,-4,-3,-11,1,-4,-3,0
1532063225822,-5,-4,-2,-22,-11,-5,-3,-2
1532063225827,2,1,3,32,6,3,-1,2
1532063225832,1,2,-1,-36,2,2,3,-3
1532063225837,-1,-4,-3,21,-3,0,-8,2
1532063225842,0,0,-1,-28,-5,1,4,0
1532063225847,0,-2,0,12,1,-1,-2,-1
1532063225852,-1,1,0,28,11,0,0,0
1532063225857,2,1,-1,-24,-10,-1,0,-1
1532063225862,0,1,-2,3,0,-1,-3,-2
1532063225867,-2,-3,-4,-1,-3,-2,-3,-2
1532063225872,0,-1,0,26,2,1,-3,0
1532063225877,0,-1,-3,-18,3,1,0,-1
1532063225882,-3,-1,-1,1,-5,0,1,0
1532063225887,0,-1,-3,-18,-4,-3,-2,1
1532063225892,-2,-2,-1,4,-1,-1,-3,-1
1532063225897,-1,-1,2,-12,0,3,3,0
1532063225902,-2,-2,-2,-1,-5,-1,-2,0
1532063225907,0,1,1,25,10,2,1,-3
1532063225912,-3,-3,1,-32,-13,-6,-6,0
1532063225917,1,1,-1,20,4,2,8,-1
1532063225922,-2,-1,0,15,13,6,5,2
1532063225927,-3,-6,-8,21,-7,-7,-5,1
1532063225932,2,2,1,3,-6,-2,-5,-3
1532063225937,0,1,-3,-12,-7,-6,-6,-1
1532063225942,-2,1,0,-18,-5,0,-3,-2
1532063225947,0,-1,2,10,7,2,2,-2
1532063225952,1,3,4,-4,10,4,6,-2
1532063225957,-2,-4,-1,-1,-14,-1,-3,-1
1532063225962,-1,-1,2,7,7,-2,0,0
1532063225967,0,-1,4,-23,-8,-2,-1,1
1532063225972,1,2,2,17,2,-2,-1,2
1532063225977,1,-2,-3,-32,0,0,2,-1
1532063225982,-2,-3,-1,13,-1,1,-2,0
1532063225987,-2,2,2,0,5,2,0,-1
1532063225992,0,-3,-1,-4,-9,-3,-1,0
1532063225997,0,-2,-1,15,-2,-4,-2,-1
1532063226002,0,3,-1,-12,-4,2,3,-1
1532063226007,0,0,-3,-19,5,-1,0,-1
1532063226012,-1,-1,-3,-3,-11,-6,-4,-1
1532063226017,-2,1,2,-4,-5,-2,-1,-4
1532063226022,0,0,1,-9,1,1,-2,-1
1532063226027,-1,-5,-1,16,-2,-2,-1,2
1532063226032,0,2,2,24,6,5,0,-4
1532063226037,-2,1,-3,-49,0,-2,-1,0
1532063226042,-4,-5,-5,11,-2,-4,0,2
1532063226047,0,-1,0,-12,-5,2,2,-3
1532063226052,-2,1,-2,0,7,0,0,-2
1532063226057,-3,-1,1,23,-6,-5,-6,-1
1532063226062,3,-4,2,10,4,0,1,-3
1532063226067,-2,0,-3,-13,-4,-3,-2,1
1532063226072,0,-1,-1,1,5,4,2,-2
1532063226077,0,-3,1,-10,-6,1,3,-2
1532063226082,-1,2,0,1,-6,-1,-1,1
1532063226087,-2,0,0,2,9,5,-3,1
1532063226092,1,-1,0,-4,-5,-5,-3,0
1532063226097,-1,-1,-1,13,-3,0,-1,-1
1532063226102,-2,-2,-2,3,8,3,-3,0
1532063226107,-1,-2,2,-11,-2,-2,2,-3
1532063226112,-2,3,-4,-43,-11,-2,8,-4
1532063226117,-6,-8,1,46,1,-5,-10,-1
1532063226122,4,1,2,1,1,2,2,1
1532063226127,-2,0,1,2,4,6,4,-2
1532063226132,-2,5,-2,-7,-4,-9,-9,1
1532063226137,2,-9,-3,0,2,2,3,4
1532063226142,-3,3,0,-2,1,2,2,-4
1532063226147,-2,2,-3,-3,2,-3,1,-1
1532063226152,3,-8,-2,7,-1,-4,-4,4
1532063226157,0,7,1,-9,1,-1,-1,-1
1532063226162,-5,4,2,3,-6,-5,0,-4
1532063226167,4,-4,-5,-8,-4,-4,-5,3
1532063226172,-2,-4,1,4,0,2,0,-1
1532063226177,-4,4,0,4,2,2,2,-2
1532063226182,2,-2,-3,-7,3,-2,-1,2
1532063226187,2,3,-1,0,-2,-4,-4,0
1532063226192,-7,-8,1,4,-7,-4,0,-2
1532063226197,-1,3,0,-3,9,3,2,-2
1532063226202,3,-3,-3,-3,-7,0,-9,0
1532063226207,-2,-2,-1,-4,-1,-1,6,-1
1532063226212,-1,1,-1,5,0,-2,0,-3
1532063226217,1,-4,-3,-5,-1,2,-1,3
1532063226222,1,1,2,1,4,-2,-2,-3
1532063226227,-3,-4,1,-1,-6,-1,-1,-7
1532063226232,2,0,-1,4,12,8,4,3
1532063226237,0,-3,-3,-1,3,0,-1,-1
1532063226242,-1,-2,0,-3,-10,-6,1,-4
1532063226247,-2,1,-3,-2,-6,-4,-9,-1
1532063226252,-2,-4,-2,1,-3,-4,-2,-1
1532063226257,3,4,1,-7,-6,-2,-1,0
1532063226262,-2,-1,1,10,5,2,5,0
1532063226267,-2,-3,-3,-11,4,5,-2,3
1532063226272,-2,-4,1,3,5,1,-1,-1
1532063226277,-1,-9,-6,-6,-7,-7,-2,-6
1532063226282,-3,3,-1,-1,-6,-5,-6,2
1532063226287,-2,-3,1,0,4,3,4,2
1532063226292,4,7,0,-2,-1,2,3,-2
1532063226297,-1,2,1,1,1,-2,-1,-2
1532063226302,-2,-4,-3,4,17,0,-2,1
1532063226307,3,8,2,-6,-10,-1,-5,-4
1532063226312,-1,1,5,-1,-2,1,-1,-1
1532063226317,-3,-3,0,0,2,0,-1,0
1532063226322,0,0,2,-5,-10,-1,0,0
1532063226327,2,-1,-6,6,-4,-3,-1,-2
1532063226332,-3,-1,-3,3,8,0,-3,-2
1532063226337,-3,1,4,4,1,-2,-2,0
1532063226342,1,-6,-9,-3,-5,1,1,-2
1532063226347,-2,-2,1,1,5,3,4,0
1532063226352,0,-1,-1,-1,-3,-3,-4,-1
1532063226357,-1,1,-1,14,3,-1,-1,-2
1532063226362,0,5,-1,0,-4,0,-3,0
1532063226367,-2,-4,-2,-3,1,-6,-4,0
1532063226372,-3,-7,-7,-3,-15,0,0,-1
1532063226377,1,4,2,0,3,-1,1,-1
1532063226382,-2,-1,1,2,-3,-3,-1,0
1532063226387,-2,-2,-1,-14,1,3,2,0
1532063226392,1,0,0,7,3,-1,2,-1
1532063226397,0,5,1,-10,2,3,-4,0
1532063226402,-5,-11,-7,1,-5,-3,-1,-4
1532063226407,0,5,13,19,2,-3,-2,0
1532063226412,-1,0,-2,-35,-1,0,-2,1
1532063226417,-2,-7,-4,5,7,-2,-4,1
1532063226422,0,3,-1,4,-3,-2,0,-2
1532063226427,-1,3,2,-12,-13,-4,0,0
1532063226432,-3,-12,-1,13,3,4,5,0
1532063226437,-1,5,-1,-1,-4,0,0,-2
1532063226442,0,-1,1,-2,3,-1,0,-1
1532063226447,-2,-6,-6,1,5,1,0,-2
1532063226452,-1,-3,-1,0,-8,-8,-3,0
1532063226457,-1,-3,-5,-11,-4,-2,0,-1
1532063226462,0,0,3,-2,-3,-5,-4,0
1532063226467,-4,-2,-2,13,-8,1,4,1
1532063226472,2,10,0,-1,13,7,3,1
1532063226477,-1,-11,-2,-1,-3,-1,2,-1
1532063226482,0,3,-2,-7,0,-2,-1,-2
1532063226487,0,1,-3,-2,-4,-6,-4,0
1532063226492,0,4,1,4,-6,-5,-5,-2
1532063226497,-1,-4,-5,3,-1,-1,0,2
1532063226502,-3,-10,0,-7,-1,5,3,1
1532063226507,0,1,-2,-3,1,-3,-1,-1
1532063226512,-1,-1,-1,4,-3,-2,-2,-2
1532063226517,0,2,0,-9,0,-1,-1,-1
1532063226522,1,4,1,-2,-1,1,1,-2
1532063226527,1,-3,-1,4,0,-1,0,0
1532063226532,1,4,-3,-5,-1,-2,-1,0
1532063226537,-2,-9,-1,0,-5,-3,-1,-1
1532063226542,0,5,-1,-2,7,3,0,1
1532063226547,-3,1,3,7,-5,-3,-4,-2
1532063226552,0,0,-3,3,-1,-1,-3,0
1532063226557,-1,1,0,-6,-2,1,1,1
1532063226562,1,0,0,3,-2,0,-1,-1
1532063226567,0,-2,-1,-2,5,0,1,-2
1532063226572,-3,-5,-2,-2,-3,-2,-3,-2
1532063226577,-2,1,-1,-5,-3,2,-1,-1
1532063226582,-1,1,0,-2,0,-1,-1,-1
1532063226587,0,-3,-4,-4,0,0,-1,-1
1532063226592,0,7,1,5,-3,-1,-1,-2
1532063226597,0,2,-2,0,8,-3,0,-4
1532063226602,-2,-5,1,0,-4,1,1,0
1532063226607,2,9,-3,-5,0,0,0,-3
1532063226612,-1,-21,0,1,0,0,0,0
1532063226617,0,6,4,4,-3,-2,-1,-1
1532063226622,-3,-4,0,-2,1,-1,-1,-2
1532063226627,1,3,0,1,1,-1,-2,-2
1532063226632,-2,3,-1,-4,-2,0,-2,1
1532063226637,0,-4,-3,2,0,1,1,-1
1532063226642,1,1,-1,-4,-1,-1,-1,-2
1532063226647,0,0,2,-2,-2,1,2,1
1532063226652,-1,-4,-1,2,0,-1,-2,-1
1532063226657,-1,3,-1,-6,-1,-2,-5,-4
1532063226662,-1,4,-1,-2,-3,-1,1,2
1532063226667,-2,-9,-1,-4,-4,-2,-1,-1
1532063226672,-1,4,0,-1,4,-2,1,-2
1532063226677,0,3,-1,0,-2,1,1,1
1532063226682,0,7,1,-1,-1,0,-1,0
1532063226687,0,-9,3,1,1,-1,-1,1
