1532320778289,-3,-1,1,0,-2,-2,-1,0
1532320778294,0,0,1,1,0,-1,0,-1
1532320778299,1,-1,-3,1,6,1,0,-1
1532320778304,-1,0,-1,-5,-10,-3,-3,0
1532320778309,-1,-1,0,-4,-4,-2,-1,-1
1532320778314,-1,0,-3,-2,-3,-3,-2,0
1532320778319,0,0,1,3,2,-1,0,-1
1532320778324,0,0,-1,-1,3,1,0,1
1532320778329,-1,0,1,3,4,0,-1,-2
1532320778334,-1,-1,-3,-4,-4,-1,-2,-1
1532320778339,0,-1,0,-4,-4,-2,-4,-1
1532320778344,0,-1,1,2,-1,0,-1,-2
1532320778349,-2,-4,-1,-7,-10,-4,-1,0
1532320778354,-1,-2,-3,-2,1,1,0,-2
1532320778359,0,0,-1,1,3,0,-1,0
1532320778364,2,-1,-1,1,0,0,-2,1
1532320778369,-1,0,0,0,2,0,-1,-2
1532320778374,-1,0,-1,-3,-3,-1,-1,-1
1532320778379,-1,-3,-2,-1,4,2,0,0
1532320778384,-2,0,-1,-4,-2,-2,-1,-2
1532320778389,0,0,-1,0,-1,1,0,-1
1532320778394,-2,0,-1,0,1,-3,-1,-2
1532320778399,-1,1,-2,1,-5,-1,-2,1
1532320778404,0,0,0,1,1,0,1,-2
1532320778409,-2,-2,-1,3,1,1,-2,-2
1532320778414,-1,-1,1,-1,1,-1,-1,0
1532320778419,0,-3,-4,-2,-2,-3,-1,0
1532320778424,-1,-1,-2,-1,-2,-2,0,-1
1532320778429,-1,0,-4,-2,0,-2,-1,-1
1532320778434,-1,-1,2,-1,-3,-1,-1,0
1532320778439,-1,-1,-3,-2,-1,-1,-2,0
1532320778444,0,-1,1,-1,-2,0,-1,-1
1532320778449,-1,0,0,0,0,1,1,-2
1532320778454,-2,-1,-1,-2,-1,-3,-3,-2
1532320778459,-1,-1,0,0,1,0,-1,0
1532320778464,1,-2,-1,0,3,0,1,0
1532320778469,-2,0,-2,0,-7,-2,-1,0
1532320778474,-1,0,-2,-1,-1,-3,-2,0
1532320778479,-1,1,1,1,3,1,-1,-2
1532320778484,-2,-2,0,-1,-1,-2,-1,0
1532320778489,-1,-1,-2,-3,-2,0,-1,-1
1532320778494,-1,-1,-2,0,-1,1,0,0
1532320778499,-2,-1,1,-1,-4,-1,-2,-1
1532320778504,0,0,1,1,7,1,0,1
1532320778509,0,0,-2,-2,0,-1,0,1
1532320778514,0,1,0,-4,-3,-1,-1,1
1532320778519,-1,0,1,-1,-1,-3,0,-1
1532320778524,-2,-1,-5,-1,-4,0,-1,-2
1532320778529,0,0,1,0,-2,0,-2,0
1532320778534,-1,-1,-3,0,0,-1,0,0
1532320778539,0,-1,-1,0,1,-1,-1,0
1532320778544,2,2,1,-1,0,0,0,1
1532320778549,-1,-2,0,-1,1,-2,-1,0
1532320778554,-1,-4,-1,0,0,-1,-2,-1
1532320778559,0,1,0,3,2,1,-1,0
1532320778564,-3,-1,-2,-4,-7,-5,-2,-1
1532320778569,-1,-3,-1,-2,-4,-1,-1,-2
1532320778574,0,0,1,2,3,-1,-1,-3
1532320778579,0,-1,-2,-2,0,2,1,-2
1532320778584,-1,-1,1,3,-2,-1,0,-3
1532320778589,0,1,1,-1,1,2,-1,0
1532320778594,0,-1,-2,-1,-1,-1,-1,1
1532320778599,0,-1,-3,-1,-4,-1,-1,0
1532320778604,-1,-1,-3,-4,-3,-1,1,-1
1532320778609,0,0,1,0,1,0,-1,-1
1532320778614,0,-1,1,-3,-1,0,1,0
1532320778619,-1,-2,-2,0,0,-1,-2,0
1532320778624,0,0,-2,-1,0,-1,-1,1
1532320778629,0,-1,-3,0,-2,-1,0,-1
1532320778634,-1,-1,-1,0,-1,0,-1,0
1532320778639,0,-2,-1,1,6,-2,-1,1
1532320778644,-1,0,-1,-2,-6,-3,0,-2
1532320778649,-1,-1,-2,-3,-5,-4,-2,-2
1532320778654,0,-1,-3,-2,-2,-4,-1,-1
1532320778659,-1,0,1,0,1,0,-3,-2
1532320778664,-1,0,-1,1,4,0,-3,-2
1532320778669,-1,-1,1,2,-2,0,1,-1
1532320778674,-1,-2,0,-3,-1,-1,-1,-1
1532320778679,-1,0,-2,-2,-3,-3,0,0
1532320778684,-2,0,-2,-1,2,1,0,0
1532320778689,1,-2,0,1,4,2,0,0
1532320778694,0,0,-2,2,-2,0,2,-3
1532320778699,-2,-3,-3,-3,-1,1,1,-2
1532320778704,0,0,1,-1,3,0,0,-1
1532320778709,0,-2,0,-1,-5,-3,-1,1
1532320778714,0,0,-1,0,0,-1,-2,-1
1532320778719,-1,-1,0,-1,-4,-2,-1,-1
1532320778724,-1,0,-1,-1,2,-1,0,-2
1532320778729,-3,-2,-6,-4,-2,-1,-3,-1
1532320778734,1,-1,-2,0,-2,-1,-3,-1
1532320778739,0,-1,0,0,-3,0,-1,-1
1532320778744,-2,1,1,3,-4,-1,-2,-1
1532320778749,-1,-1,-1,-1,0,-1,-1,0
1532320778754,-2,-2,-1,-1,2,0,0,-1
1532320778759,1,0,0,0,1,-1,0,-1
1532320778764,0,-1,-2,-4,-4,0,-1,-2
1532320778769,-1,1,-1,-2,1,1,1,0
1532320778774,-2,-2,-2,-2,-2,0,0,0
1532320778779,-2,-1,-1,2,4,-1,-2,-1
1532320778784,0,-2,0,-2,-3,-3,-2,-2
1532320778789,1,0,-1,0,-5,-2,1,0
1532320778794,0,0,-1,-2,0,-1,-1,0
1532320778799,0,-1,0,1,0,0,-1,0
1532320778804,0,-3,-1,0,-1,0,-1,-1
1532320778809,-2,-1,-2,-2,1,0,-2,-2
1532320778814,-2,0,0,2,-4,-2,0,1
1532320778819,-2,-2,-2,-2,-2,-2,0,0
1532320778824,-1,-1,-2,-4,-6,-3,-1,-1
1532320778829,-2,-1,2,1,3,1,1,0
1532320778834,-1,-2,-2,0,0,0,-2,-1
1532320778839,-1,-3,-2,-2,-1,-3,-1,-2
1532320778844,-1,2,-1,-5,-5,-2,2,0
1532320778849,-2,0,1,2,-2,-3,-1,-1
1532320778854,-1,-1,-2,3,3,1,0,0
1532320778859,0,-1,2,-2,-1,0,-1,-3
1532320778864,0,0,-3,0,1,-1,1,0
1532320778869,-2,1,-1,-2,-5,-1,-1,-1
1532320778874,-1,-1,-2,-2,0,-1,0,-1
1532320778879,-1,-1,0,1,-2,0,-2,0
1532320778884,1,0,0,3,7,3,-1,1
1532320778889,0,-2,-2,-1,-3,0,-1,-1
1532320778894,-1,-3,-1,-2,-5,-3,-1,0
1532320778899,0,1,1,1,1,1,2,-2
1532320778904,0,-2,-1,-1,-1,0,0,-2
1532320778909,1,0,-2,0,-2,1,-3,0
1532320778914,-2,0,1,-1,-1,-1,-2,-2
1532320778919,0,0,-2,-1,-2,0,-2,-2
1532320778924,-2,-1,0,1,2,-1,0,-2
1532320778929,-1,1,0,0,-2,-1,-1,0
1532320778934,0,-1,0,2,-1,-1,0,-1
1532320778939,-2,0,1,-4,0,1,-2,0
1532320778944,-1,-1,-5,-2,-1,-1,-2,-2
1532320778949,-2,-2,-3,-4,-7,-5,-3,0
1532320778954,0,0,-1,4,1,0,0,-1
1532320778959,-1,-2,1,2,2,-1,1,1
1532320778964,0,-1,2,1,0,-1,-1,2
1532320778969,0,-2,0,-1,0,1,0,-1
1532320778974,0,-1,-2,-1,1,0,1,-1
1532320778979,1,0,0,2,-1,2,0,-1
1532320778984,0,-1,-1,-3,-4,-3,-2,-1
1532320778989,0,-2,-1,-3,-2,0,-1,-1
1532320778994,-2,-1,3,-4,-6,-1,-3,-2
1532320778999,-2,-3,-2,1,1,-1,-1,-2
1532320779004,1,0,1,-1,3,0,0,0
1532320779009,-2,-1,0,1,1,-2,-2,-2
1532320779014,0,0,-2,3,3,0,0,1
1532320779019,-1,-1,-4,-1,4,0,-2,-1
1532320779024,-1,-1,-3,-4,-8,0,0,0
1532320779029,-1,-1,0,-1,-3,-1,0,-2
1532320779034,0,-1,-3,-3,-5,-2,-2,-1
1532320779039,1,0,0,0,-1,-2,1,2
1532320779044,-1,0,2,1,5,0,0,-1
1532320779049,-1,-1,-1,0,2,1,1,0
1532320779054,-2,0,0,0,-2,0,0,0
1532320779059,-1,1,-3,-2,-1,-1,-1,0
1532320779064,-1,-1,-2,-1,-3,-1,1,-2
1532320779069,-1,2,1,0,2,-3,-2,-2
1532320779074,0,-1,-1,-4,0,0,-2,-2
1532320779079,-2,-2,-1,0,-3,-1,-1,-1
1532320779084,0,-2,-2,0,-3,-2,-2,0
1532320779089,0,-2,-2,-2,-1,0,-1,-1
1532320779094,-2,-2,-2,-3,1,0,-1,1
1532320779099,0,1,0,-1,-2,-1,-1,0
1532320779104,-1,0,-2,-2,-4,0,0,-1
1532320779109,-2,0,-1,2,4,1,-1,-2
1532320779114,-2,0,0,1,1,-1,-2,-2
1532320779119,-2,-4,-2,-1,0,0,-1,-1
1532320779124,-1,-1,-3,-1,-5,-3,-2,1
1532320779129,0,-1,2,1,1,-2,-2,-1
1532320779134,1,1,2,-2,7,2,1,-2
1532320779139,-2,-1,-2,-1,-7,0,-2,-1
1532320779144,-1,0,0,2,2,1,-1,-1
1532320779149,0,-1,-3,-2,2,-1,1,0
1532320779154,-1,-1,0,-2,-12,-3,-2,-1
1532320779159,-1,-4,0,1,2,0,0,-2
1532320779164,-1,-1,-1,-2,0,0,1,1
1532320779169,0,0,-3,-5,-4,-3,-1,1
1532320779174,-1,-1,-1,2,0,-2,1,0
1532320779179,0,1,0,-2,2,0,0,-1
1532320779184,-1,-1,-1,2,-3,-1,0,-1
1532320779189,-1,-1,0,-2,3,0,-1,-2
1532320779194,0,-1,-2,-1,-1,0,1,-1
1532320779199,0,0,-1,-2,-4,-3,-3,1
1532320779204,-1,-1,0,-3,0,-2,-2,-1
1532320779209,-1,0,0,-1,-3,-1,-1,0
1532320779214,0,-1,0,-1,-1,-2,-2,0
1532320779219,-1,0,1,0,1,-3,1,-1
1532320779224,0,-2,-2,0,2,1,-1,-1
1532320779229,0,0,-1,1,0,0,0,-1
1532320779234,0,0,-1,-2,-1,-4,-1,-1
1532320779239,-1,-1,-1,-1,-2,0,-1,0
1532320779244,-2,1,-1,-3,-4,-3,0,-1
1532320779249,-1,-2,0,3,1,0,1,1
1532320779254,0,-1,0,1,6,2,1,-3
1532320779259,1,-2,0,-1,-2,-3,-1,-1
1532320779264,0,-3,-4,-2,-7,-1,-1,-1
1532320779269,-1,-2,-3,-2,-4,-1,-2,0
1532320779274,-2,0,-3,-3,-5,-3,-1,-1
1532320779279,0,0,0,2,3,0,0,0
1532320779284,-2,-1,0,1,2,0,-2,-2
1532320779289,0,1,-1,1,0,1,0,0
1532320779294,-1,0,-2,1,2,1,-1,1
1532320779299,-1,-1,0,-1,1,-1,-2,-2
1532320779304,0,-1,-2,-1,-3,-1,-1,0
1532320779309,-1,-1,1,-1,-3,-2,1,-3
1532320779314,0,-2,-1,-1,-2,-1,-1,0
1532320779319,-1,1,-2,-2,-3,-2,0,-1
1532320779324,-2,-1,0,2,1,0,0,-1
1532320779329,0,0,0,-3,-3,-1,-1,-1
1532320779334,-2,0,-1,0,-5,-1,0,-3
1532320779339,-2,-2,-3,-2,-1,-1,0,-1
1532320779344,0,-1,1,-1,5,0,-1,0
1532320779349,-1,-1,0,-1,-6,-2,-1,-1
1532320779354,0,-3,0,0,-2,0,-1,-1
1532320779359,0,0,1,2,3,0,-1,-1
1532320779364,-1,0,0,0,-1,0,0,0
1532320779369,-1,-1,0,-3,0,0,-1,-2
1532320779374,-1,-1,-2,-2,-5,-3,-1,0
1532320779379,1,-2,-2,0,-1,0,-2,-1
1532320779384,-1,0,0,-2,2,2,0,-1
1532320779389,-1,-2,0,1,-4,-5,-1,-1
1532320779394,-3,-1,-2,1,4,1,0,0
1532320779399,0,0,-1,-1,6,2,0,-2
1532320779404,3,0,1,1,-1,-3,-1,0
1532320779409,0,-1,1,-3,-1,-3,-2,1
1532320779414,-1,-1,-2,-1,-5,2,-1,-1
1532320779419,0,0,0,-5,-6,-2,-1,-1
1532320779424,-1,-1,-1,-2,2,-2,2,0
1532320779429,1,1,3,0,5,0,0,0
1532320779434,0,-1,-2,0,0,-5,-2,-1
1532320779439,-1,-2,-1,1,-4,2,2,0
1532320779444,-3,-1,0,0,-3,-1,-1,-3
1532320779449,0,-1,0,0,0,0,0,-1
1532320779454,0,0,-1,-1,-1,0,0,0
1532320779459,-3,0,2,1,-2,-1,-1,0
1532320779464,-1,-2,-3,-3,1,-2,2,-2
1532320779469,-3,-2,-4,0,-1,5,14,0
1532320779474,1,1,1,-2,4,-7,-21,-1
1532320779479,-1,0,-7,-2,-5,-6,-4,1
1532320779484,-1,0,0,1,2,0,-3,0
1532320779489,-1,-2,-5,-1,-1,2,-1,-1
1532320779494,1,0,1,2,1,4,12,0
1532320779499,1,-1,1,0,5,3,-2,1
1532320779504,0,0,-1,-3,-8,-3,2,0
1532320779509,0,-3,-3,-5,-7,1,3,0
1532320779514,-2,-3,-4,-6,-2,1,-3,-2
1532320779519,-1,-1,0,2,-5,-2,17,-1
1532320779524,-1,-1,1,1,3,12,17,3
1532320779529,-2,0,-1,0,1,-7,-24,-1
1532320779534,0,1,5,5,3,-34,-34,-5
1532320779539,-2,-3,-4,-1,-2,23,-1,-2
1532320779544,-1,-2,-3,-3,-2,0,2,-2
1532320779549,-2,0,1,-2,1,8,18,-1
1532320779554,-1,-2,-2,-1,-10,7,6,0
1532320779559,-1,0,-1,-6,-3,-7,-2,-1
1532320779564,-1,-1,0,4,-3,0,2,-1
1532320779569,-1,0,1,3,11,1,-12,-2
1532320779574,0,0,-1,3,-2,4,8,-1
1532320779579,-1,-1,-1,-1,-4,-8,-5,-1
1532320779584,-1,-1,-5,-2,-1,-1,-6,-1
1532320779589,0,-1,-1,-3,0,-7,-4,-1
1532320779594,-2,-1,-1,-2,-1,3,4,-2
1532320779599,1,0,2,2,5,1,5,2
1532320779604,-1,0,3,1,-3,1,-5,-1
1532320779609,-3,-3,-2,-1,-4,-5,-1,-1
1532320779614,-4,-3,-3,-2,-2,-2,-12,-1
1532320779619,-2,-2,-6,-7,3,-11,-30,-4
1532320779624,-2,0,-2,-5,-12,-11,-8,-1
1532320779629,1,-1,-3,0,-9,2,6,1
1532320779634,0,0,2,1,3,8,20,1
1532320779639,0,0,2,6,4,6,-4,1
1532320779644,-1,0,-1,1,6,-3,-3,-2
1532320779649,-1,-1,-3,-1,-5,-1,-1,0
1532320779654,0,0,-3,-2,5,-1,-10,0
1532320779659,-1,1,1,-3,-7,-9,4,-3
1532320779664,-1,0,-1,0,4,-1,-6,-1
1532320779669,-1,0,0,-5,-1,-1,8,-2
1532320779674,-2,-3,-2,-2,-6,5,6,1
1532320779679,2,1,4,3,5,-2,-17,0
1532320779684,-1,-2,0,2,6,-2,-4,-2
1532320779689,1,-1,-1,-1,-5,4,17,1
1532320779694,-1,0,-1,-8,-10,-4,-8,-1
1532320779699,-1,0,-4,0,0,-2,5,-1
1532320779704,-1,-1,0,-1,-1,-3,1,-1
1532320779709,1,1,3,3,8,-4,-26,-3
1532320779714,1,-1,0,-3,-4,6,44,2
1532320779719,0,0,1,0,-5,3,-1,1
1532320779724,-1,1,1,3,3,0,-5,-1
1532320779729,-2,1,-1,2,9,2,-8,-2
1532320779734,0,-2,-3,-5,-9,-2,0,-1
1532320779739,-2,-2,-2,-3,-4,-7,-6,-3
1532320779744,-1,-5,-5,-3,-2,0,7,-1
1532320779749,-1,-1,-4,-1,-7,-3,3,0
1532320779754,-2,0,2,5,7,-1,-11,-1
1532320779759,2,1,0,1,0,0,-1,-1
1532320779764,-2,-1,1,0,-2,1,-8,0
1532320779769,-2,-1,3,1,1,-1,3,-2
1532320779774,1,0,0,-1,0,-3,-3,0
1532320779779,-2,-1,-2,-7,-7,3,11,0
1532320779784,0,-2,-2,1,0,-1,1,-2
1532320779789,-2,-2,-2,-8,-11,-11,-15,-4
1532320779794,0,-1,-5,6,8,4,8,1
1532320779799,-1,-1,0,-2,-1,-3,0,0
1532320779804,0,0,1,-3,-3,-3,-12,-2
1532320779809,-2,-2,-3,2,-5,1,14,-2
1532320779814,0,0,0,2,7,3,-11,0
1532320779819,-2,-1,-4,0,-2,-1,4,-1
1532320779824,1,0,-4,1,-1,0,1,0
1532320779829,0,-2,-1,1,6,-1,-8,-1
1532320779834,-1,1,0,-5,-1,-5,-2,-3
1532320779839,-1,-1,-1,-4,-5,-1,5,0
1532320779844,-1,0,-3,-3,-1,0,-2,1
1532320779849,2,0,1,3,-1,1,-2,-1
1532320779854,-1,-1,5,3,4,0,5,-1
1532320779859,-2,-3,-4,-3,-1,-2,-21,-1
1532320779864,-1,0,3,-1,3,2,19,0
1532320779869,-1,-1,-1,2,-5,0,4,-1
1532320779874,0,-1,-1,-3,3,-1,-7,-1
1532320779879,-2,-2,-3,-1,-11,-5,-7,-2
1532320779884,1,0,0,1,-3,1,-24,-1
1532320779889,0,0,-1,0,4,2,-4,1
1532320779894,0,0,1,2,2,2,-3,2
1532320779899,0,0,0,1,3,-1,10,-2
1532320779904,-2,-1,-1,-1,-1,-2,3,-1
1532320779909,0,-1,-2,-4,-2,-1,0,0
1532320779914,2,2,-5,1,-6,-3,4,-1
1532320779919,0,-2,0,-2,5,6,20,-1
1532320779924,-1,1,-3,-3,-1,-10,-22,-1
1532320779929,0,-1,0,-2,0,-2,-2,0
1532320779934,-2,-3,-3,-4,-1,0,3,0
1532320779939,-1,1,0,4,-1,3,13,1
1532320779944,-1,-2,0,-3,2,11,14,0
1532320779949,0,-1,-4,-6,-10,-15,-5,-2
1532320779954,0,-1,-2,1,-1,-13,-13,-4
1532320779959,-3,-2,-1,0,2,-3,-7,-3
1532320779964,0,0,-1,0,-1,3,18,0
1532320779969,-3,0,2,3,3,9,2,1
1532320779974,2,1,-2,4,8,8,6,0
1532320779979,-2,-2,1,-3,1,-5,-11,-3
1532320779984,-3,-4,0,-9,-18,-19,-8,-5
1532320779989,-1,-2,-2,-2,-2,15,10,-1
1532320779994,-1,0,1,1,-5,-2,-7,-1
1532320779999,1,0,1,4,7,5,-7,0
1532320780004,1,0,-1,2,1,3,6,-2
1532320780009,-1,-2,1,-3,-1,-7,-2,-2
1532320780014,-3,-1,-3,-2,-1,5,9,0
1532320780019,0,1,-1,-2,-8,-9,-15,-1
1532320780024,-1,-1,-1,1,-2,-4,-2,-1
1532320780029,0,-1,-1,2,8,1,2,-1
1532320780034,-2,-1,3,-1,3,2,7,-3
1532320780039,-2,0,-4,-1,-2,7,3,1
1532320780044,-1,-1,-4,0,-4,-5,-2,1
1532320780049,-3,-3,-4,-8,-13,-12,-13,-3
1532320780054,-1,-3,-1,-3,0,-1,-5,0
1532320780059,0,0,1,1,-5,-7,2,-1
1532320780064,-2,-1,-2,2,4,8,11,-1
1532320780069,-1,-2,-4,2,-2,-2,3,-1
1532320780074,-1,0,1,-4,-3,3,3,-1
1532320780079,1,0,-1,2,2,-2,-11,0
1532320780084,-2,-2,-2,0,-2,-3,-3,-1
1532320780089,-1,1,2,-4,1,0,3,0
1532320780094,0,-1,0,-2,2,0,-2,-2
1532320780099,-2,0,0,0,-4,-3,20,1
1532320780104,-2,-1,-2,-3,-6,1,-35,-2
1532320780109,0,-1,3,-1,-2,-7,-7,0
1532320780114,-2,-1,2,-1,0,-1,5,-1
1532320780119,-1,-1,-2,1,3,2,3,-2
1532320780124,0,0,0,4,-1,-11,-4,0
1532320780129,-3,-2,-3,-4,7,10,8,-4
1532320780134,-2,-3,-3,0,-7,-6,-14,-1
1532320780139,1,0,0,-4,2,6,2,-3
1532320780144,-2,-2,-4,0,-5,7,21,0
1532320780149,1,-1,1,-1,-1,-11,-16,-1
1532320780154,-1,1,-2,0,4,-1,-3,1
1532320780159,0,-1,-1,-5,-9,-2,2,0
1532320780164,0,-1,-1,1,3,-2,3,0
1532320780169,2,2,1,0,4,5,13,-1
1532320780174,0,-1,0,1,-3,7,2,-2
1532320780179,-2,-2,-3,2,8,-3,-20,-1
1532320780184,-2,-2,2,-1,-9,-5,-1,0
1532320780189,-2,-2,-3,-2,2,-4,-4,-3
1532320780194,0,0,0,-2,-13,-6,6,0
1532320780199,0,1,1,1,5,12,5,1
1532320780204,1,1,0,0,1,4,7,1
1532320780209,-2,0,-1,5,12,3,-11,-2
1532320780214,0,-1,-7,-7,-21,-12,17,2
1532320780219,-1,2,2,-3,-5,1,-2,0
1532320780224,2,2,0,2,2,-5,-19,1
1532320780229,-2,-2,-3,-2,-7,-15,-13,0
1532320780234,-1,-1,-3,-3,4,3,-5,-1
1532320780239,-2,-2,0,3,0,-2,-1,-1
1532320780244,-1,0,1,0,-4,2,14,-1
1532320780249,1,0,1,1,5,19,11,1
1532320780254,-1,0,3,0,6,-3,-7,-1
1532320780259,-2,-3,-3,2,-1,-13,-8,-1
1532320780264,-2,-1,-2,-3,9,-6,-3,-2
1532320780269,0,-2,-1,-6,-19,10,15,0
1532320780274,0,-3,0,2,4,3,-16,-1
1532320780279,0,-1,1,-1,-3,3,14,1
1532320780284,-1,-1,0,3,3,-5,-22,0
1532320780289,0,1,-1,-4,1,-8,3,-3
1532320780294,0,0,1,3,4,3,3,-1
1532320780299,0,0,-1,4,3,4,-1,0
1532320780304,0,0,-3,-8,-11,-3,8,-1
1532320780309,-1,-2,-2,-3,-8,0,2,0
1532320780314,-1,-1,1,-3,0,-1,-15,-2
1532320780319,-1,0,-2,-2,0,-5,-4,-2
1532320780324,-1,-2,0,-1,-3,0,2,-2
1532320780329,2,-1,1,3,5,2,4,-1
1532320780334,-1,-2,-1,1,5,6,19,-1
1532320780339,0,-1,-1,-4,-5,1,-8,-2
1532320780344,-1,-1,-2,-2,-3,-3,-13,-2
1532320780349,0,1,-1,0,-4,-8,-10,-2
1532320780354,0,-2,-7,-3,1,-11,-6,0
1532320780359,-1,-2,3,-1,0,20,-9,-2
1532320780364,0,0,0,1,-2,7,24,1
1532320780369,-1,0,0,3,5,-3,-3,0
1532320780374,-1,1,1,-1,2,8,7,0
1532320780379,-1,-2,-4,-4,-7,-14,-1,-1
1532320780384,-2,-1,-3,-1,-1,-3,7,-1
1532320780389,1,0,3,-1,1,6,-5,0
1532320780394,-2,-2,2,0,0,-7,5,-2
1532320780399,-1,-2,1,1,-1,-5,-12,1
1532320780404,0,0,-1,1,2,-9,-31,-6
1532320780409,0,0,0,-3,-4,-2,15,0
1532320780414,1,1,3,-3,-1,5,-4,-2
1532320780419,0,0,1,-2,-3,-3,3,1
1532320780424,-2,-1,-1,4,5,-4,4,-2
1532320780429,0,0,-1,-1,-1,-3,2,0
1532320780434,-2,-2,-5,-6,-7,-2,-7,-2
1532320780439,-1,-1,-1,0,1,2,9,-3
1532320780444,0,0,2,0,4,3,3,-2
1532320780449,-2,-1,-3,1,0,-2,-5,-1
1532320780454,0,1,-1,1,2,6,14,1
1532320780459,-1,1,-1,-2,1,-11,-19,-1
1532320780464,-1,-2,-1,-3,-4,-3,0,0
1532320780469,-2,-1,-2,-1,3,3,1,0
1532320780474,-1,-1,-4,0,-3,-13,-10,-1
1532320780479,1,1,0,3,8,16,7,0
1532320780484,1,-1,-3,-7,-8,-1,-12,-2
1532320780489,0,0,1,-1,-4,-1,12,1
1532320780494,0,0,0,0,0,1,-1,1
1532320780499,1,-1,0,0,2,-3,1,-1
1532320780504,-2,-1,-2,3,7,5,-7,0
1532320780509,-1,-1,-2,0,-6,-1,9,-2
1532320780514,-2,0,-1,-2,3,1,-21,-2
1532320780519,1,-1,-2,-2,-8,-13,-4,-1
1532320780524,0,-2,-2,-1,0,0,0,2
1532320780529,-2,-2,1,0,-1,1,3,-1
1532320780534,0,-2,0,2,2,8,15,2
1532320780539,-2,-2,-2,-2,-1,-2,-10,-2
1532320780544,0,1,-2,-3,-4,-5,7,0
1532320780549,-1,-2,-2,1,8,-7,-10,-2
1532320780554,2,-1,2,0,-4,4,2,0
1532320780559,-2,-1,0,-1,-3,-1,8,-1
1532320780564,0,-2,-2,-3,-3,2,12,1
1532320780569,-1,-1,-3,-2,-7,-7,-20,0
1532320780574,-1,0,0,1,0,-1,1,-1
1532320780579,-2,-2,0,-3,1,0,5,-2
1532320780584,1,1,4,1,4,2,-8,-2
1532320780589,-1,-1,-2,2,1,8,2,-1
1532320780594,-1,0,-4,-5,-7,-9,-7,-2
1532320780599,-2,-2,-2,-4,-3,4,5,0
1532320780604,-2,-1,-1,0,-7,-8,-3,-1
1532320780609,-1,0,3,-2,2,-4,-6,0
1532320780614,-1,-1,-3,2,0,10,-1,-1
1532320780619,-1,-2,-3,-2,-6,-5,3,2
1532320780624,-1,-3,-2,-2,0,6,5,-2
1532320780629,0,-3,0,1,-1,0,2,-2
1532320780634,-1,0,0,-1,4,-3,-4,0
1532320780639,-1,1,-2,3,4,-6,-10,-2
1532320780644,-1,1,2,-1,1,-3,-9,0
1532320780649,-1,-1,-3,-3,-7,0,8,0
1532320780654,-3,0,0,4,1,4,5,-2
1532320780659,1,0,-1,-3,-3,1,0,1
1532320780664,0,2,1,4,9,-2,-2,-1
1532320780669,-2,-1,-1,-5,-3,-4,-9,-1
1532320780674,0,-1,-1,-2,-4,-2,-4,-1
1532320780679,-1,-1,-1,0,-4,-8,2,0
1532320780684,-3,0,-1,0,-4,5,11,-1
1532320780689,-2,0,-2,-3,5,6,1,0
1532320780694,-1,1,-2,-2,-4,-12,-23,-2
1532320780699,-2,-2,0,2,2,4,3,-1
1532320780704,0,0,1,1,1,1,-4,0
1532320780709,-1,-2,-2,-1,-7,-1,1,-1
1532320780714,0,-2,1,-1,-3,3,19,-2
1532320780719,-2,-2,-2,-2,1,0,-12,-1
1532320780724,-1,-1,-3,-1,-2,1,-3,-1
1532320780729,-1,0,-2,-3,-11,-10,-7,0
1532320780734,2,1,2,0,5,-8,-2,0
1532320780739,0,2,-2,2,2,18,24,1
1532320780744,0,-1,0,-4,-3,3,-14,0
1532320780749,-3,0,-2,1,5,0,-5,-1
1532320780754,-2,-1,-1,-1,-7,-10,-14,-3
1532320780759,0,-2,-1,0,-2,-7,0,-1
1532320780764,0,-2,-2,-1,-5,3,16,0
1532320780769,-2,-1,-3,-3,-4,6,-3,-1
1532320780774,0,-1,0,0,4,-1,1,-1
1532320780779,0,1,0,-2,-2,-5,-11,-1
1532320780784,-1,-3,-1,-2,-3,-1,-10,-2
1532320780789,0,1,2,4,6,-7,7,-1
1532320780794,-1,1,-4,1,2,9,3,1
1532320780799,0,0,-1,-3,-2,-10,-1,-2
1532320780804,-2,0,0,-2,-6,-3,-2,-1
1532320780809,-1,-1,-1,-2,0,2,5,-2
1532320780814,-1,0,-2,-3,1,5,-1,-1
1532320780819,0,-2,1,3,5,2,0,-1
1532320780824,-3,-4,-2,-4,-6,-1,5,-2
1532320780829,1,2,0,0,-7,-10,-12,3
1532320780834,0,0,0,0,-2,-7,15,-1
1532320780839,0,1,0,0,0,-18,-3,-2
1532320780844,-2,1,-1,0,0,18,11,-1
1532320780849,0,-1,-1,0,1,8,6,0
1532320780854,-2,-2,0,0,0,-6,-38,-2
1532320780859,-1,0,2,-2,-3,8,21,-1
1532320780864,2,0,-2,1,4,-5,21,3
1532320780869,0,0,0,2,3,4,-14,-4
1532320780874,0,-2,-1,-2,-6,-10,-5,1
1532320780879,-2,0,0,2,-1,-3,-6,0
1532320780884,-1,-2,0,-2,3,-6,-21,-2
1532320780889,-1,-1,-3,-5,-4,6,12,0
1532320780894,1,-1,-2,-4,-4,10,12,0
1532320780899,-2,-1,-2,-4,-1,-14,-28,-3
1532320780904,0,0,1,-1,-1,5,16,-1
1532320780909,2,-2,0,4,2,6,31,1
1532320780914,-1,-1,0,1,0,-4,-4,-1
1532320780919,-3,-1,-1,1,1,10,26,1
1532320780924,0,2,-4,-1,2,-13,-41,-3
1532320780929,-2,-3,0,-4,-8,-22,4,-2
1532320780934,1,0,0,1,5,34,-14,2
1532320780939,2,0,-2,-3,-3,-7,15,0
1532320780944,-2,-3,-1,-3,-3,-5,-9,-1
1532320780949,-1,0,5,3,1,3,-4,-1
1532320780954,-1,0,-2,-3,-3,-4,35,2
1532320780959,0,0,-3,3,6,9,-15,1
1532320780964,0,0,0,-2,-4,1,-7,-2
1532320780969,-2,-2,-3,-3,-1,-5,-3,-2
1532320780974,1,0,1,2,4,0,-6,-1
1532320780979,-1,-3,-2,-1,-1,-5,-21,-4
1532320780984,-1,-2,0,0,-3,-1,18,-2
1532320780989,1,1,-2,1,-1,3,-8,-1
1532320780994,-2,-2,0,1,4,0,2,-2
1532320780999,-2,-2,-1,-2,-4,3,-7,1
1532320781004,-1,-1,-2,0,-2,5,41,1
1532320781009,-2,-1,-6,-1,-4,-3,-27,-4
1532320781014,-1,-3,-5,-4,-2,-11,-13,1
1532320781019,0,2,4,-2,-4,-5,-38,-5
1532320781024,-2,-1,-6,2,1,-16,-17,-1
1532320781029,1,0,0,-2,2,4,11,2
1532320781034,-2,0,-1,1,-1,0,13,-1
1532320781039,-4,-3,0,-3,-3,10,9,-2
1532320781044,0,-1,2,1,0,1,-15,-1
1532320781049,0,-1,-1,-1,2,11,49,0
1532320781054,0,-1,0,0,-4,-35,-64,-5
1532320781059,2,0,0,1,6,12,11,2
1532320781064,-1,0,-1,-4,-1,0,-1,0
1532320781069,-1,-1,1,3,-2,-3,-13,-1
1532320781074,-1,0,2,0,4,12,30,0
1532320781079,-1,-2,-4,-4,-12,-5,-5,-2
1532320781084,-2,-2,0,-2,-1,3,9,-1
1532320781089,0,-1,2,0,5,-11,-14,0
1532320781094,-1,0,0,-1,-5,-3,5,-2
1532320781099,4,3,-1,3,6,1,-7,4
1532320781104,0,1,0,-2,0,0,-5,0
1532320781109,0,-3,-1,0,-3,-11,-31,-2
1532320781114,-1,-2,0,-2,-2,9,14,-2
1532320781119,0,0,-1,-1,3,1,23,0
1532320781124,0,-3,-1,1,-7,-1,22,0
1532320781129,-1,2,3,0,0,-1,-10,-1
1532320781134,-3,-2,-5,-3,0,-2,5,0
1532320781139,-3,-5,-5,-8,-6,2,-14,-3
1532320781144,1,0,0,2,1,-4,-11,1
1532320781149,-1,0,-1,-1,2,5,15,-1
1532320781154,-1,2,-1,2,-4,-9,-19,-2
1532320781159,-3,-2,0,2,13,5,0,0
1532320781164,1,0,-1,0,0,8,-9,-1
1532320781169,1,-3,-8,-4,-4,-1,-10,0
1532320781174,-1,-1,1,-3,-5,0,11,-1
1532320781179,-3,-1,-1,1,-4,-6,7,-3
1532320781184,-1,-1,-3,0,1,-3,-5,-2
1532320781189,-2,-2,-2,-3,-2,4,6,-1
1532320781194,1,1,-1,4,7,14,19,1
1532320781199,0,3,3,1,-6,-15,-17,-2
1532320781204,-4,-6,-7,-5,-3,-15,-29,-4
1532320781209,-1,-1,-1,2,-1,-2,-8,1
1532320781214,-2,-1,0,-2,2,5,8,-1
1532320781219,0,-2,1,1,-4,3,18,0
1532320781224,-2,-1,3,3,8,11,11,0
1532320781229,-2,0,0,-5,-4,-6,-24,-3
1532320781234,-1,-2,-2,-2,0,-10,13,-1
1532320781239,0,1,1,-4,-4,-12,-10,-2
1532320781244,-1,0,-3,-6,-13,2,11,2
1532320781249,0,0,1,0,3,-1,0,-1
1532320781254,1,2,1,8,8,2,3,2
1532320781259,-1,-3,-8,1,-7,-6,3,0
1532320781264,1,1,1,-4,-5,-13,-20,-1
1532320781269,-1,-1,0,-4,-4,1,-6,1
1532320781274,-1,-2,1,-4,-2,-4,-32,-2
1532320781279,-1,-1,1,2,5,-1,13,0
1532320781284,-3,-5,-6,-1,2,1,7,-1
1532320781289,-1,2,2,5,0,0,-1,-1
1532320781294,-2,-1,-1,2,0,10,7,-1
1532320781299,-2,-1,0,0,6,3,-6,-2
1532320781304,0,0,0,-2,-6,-5,0,0
1532320781309,-1,-1,-4,-7,-11,-13,-5,-1
1532320781314,-1,-2,0,-4,-7,-1,16,0
1532320781319,-1,-4,-2,2,1,1,-2,0
1532320781324,-1,2,3,5,5,5,9,0
1532320781329,-1,0,0,6,9,8,6,1
1532320781334,-2,-1,-1,-3,-4,-1,10,-1
1532320781339,-1,0,-1,-1,2,-16,-24,-3
1532320781344,0,1,0,-3,2,18,8,-3
1532320781349,-1,1,-1,-4,3,-1,7,-2
1532320781354,-3,-1,-1,-3,-7,-5,-11,-3
1532320781359,0,-1,-3,-1,-1,1,-2,-3
1532320781364,2,0,1,4,4,-6,2,1
1532320781369,0,-3,1,2,9,9,3,-2
1532320781374,4,1,-3,-4,-10,-19,-5,2
1532320781379,0,-1,-3,-3,-3,20,24,2
1532320781384,-1,1,-1,0,5,-6,-32,0
1532320781389,-2,-2,-2,-2,-14,-11,-8,-2
1532320781394,0,-2,-1,1,5,4,11,2
1532320781399,1,1,2,-4,-3,-2,-8,0
1532320781404,-1,-1,1,0,0,0,23,2
1532320781409,0,0,2,3,-4,9,-6,0
1532320781414,0,2,1,-2,-1,-3,-14,0
1532320781419,-2,-5,-8,-6,-11,-1,10,-1
1532320781424,-1,-4,-1,0,2,8,9,-4
1532320781429,0,-1,0,1,11,-17,-2,-1
1532320781434,0,-2,0,2,-9,9,6,1
1532320781439,-2,2,1,-1,14,1,3,-2
1532320781444,2,3,2,-3,-20,-25,-15,0
1532320781449,-1,-4,-8,-6,-4,-8,3,-3
1532320781454,-3,-2,-1,-3,-7,7,17,-1
1532320781459,-1,0,1,5,14,22,21,2
1532320781464,1,3,2,4,6,-10,-32,2
1532320781469,-2,0,3,-2,-2,-19,19,-1
1532320781474,-1,-3,-6,-8,-25,5,-4,-1
1532320781479,0,-2,-3,-4,-12,-19,-39,-3
1532320781484,-3,-3,-2,-2,-1,9,18,-2
1532320781489,2,2,2,4,6,2,-13,3
1532320781494,1,1,1,5,14,15,7,-3
1532320781499,1,1,3,1,9,4,5,1
1532320781504,-1,-2,-6,-8,-18,3,0,-2
1532320781509,-1,-4,-4,-3,4,11,1,-3
1532320781514,-2,-3,0,-2,-1,-12,-5,2
1532320781519,1,2,2,5,-1,-7,17,-2
1532320781524,-1,1,2,3,9,0,14,1
1532320781529,-1,0,1,5,2,10,-1,-1
1532320781534,-2,1,-3,0,8,-2,-15,-1
1532320781539,-2,-4,-4,-5,-15,-6,-7,-1
1532320781544,-1,-2,0,-2,4,12,27,0
1532320781549,-1,-2,-1,-2,-10,-18,-36,-3
1532320781554,1,1,2,5,5,-4,5,-2
1532320781559,0,1,-1,0,4,6,6,0
1532320781564,-2,-4,-5,-4,-4,-6,0,-3
1532320781569,-3,-1,-2,-3,-2,17,1,0
1532320781574,0,1,4,6,13,2,14,2
1532320781579,0,-3,-6,-5,-9,0,-29,-3
1532320781584,1,1,2,4,6,15,15,-1
1532320781589,-3,-2,-2,-3,-1,-8,-1,-1
1532320781594,0,-2,1,-3,-13,-17,7,-2
1532320781599,-1,-1,0,-2,-5,7,22,2
1532320781604,2,3,1,0,-5,-14,-16,-2
1532320781609,2,1,0,3,5,8,-6,2
1532320781614,0,-1,-2,-5,-3,1,-15,-6
1532320781619,0,0,1,2,5,6,9,1
1532320781624,-3,-2,-5,-1,0,-5,-5,-2
1532320781629,0,-2,0,-1,3,10,14,-1
1532320781634,-1,-1,-2,0,-5,-4,-13,-3
1532320781639,0,0,5,0,7,-2,-6,0
1532320781644,0,0,1,1,0,-10,-10,-1
1532320781649,-2,-1,0,3,3,19,12,-1
1532320781654,-1,1,-3,-2,-1,-27,-28,-1
1532320781659,-3,-1,-1,-3,-8,-11,7,-3
1532320781664,1,-1,-1,2,11,1,-1,2
1532320781669,0,-2,2,0,-5,26,10,0
1532320781674,-3,-4,-7,-9,-18,-24,-27,-3
1532320781679,2,1,2,-5,-4,-5,10,1
1532320781684,-3,-1,3,-2,-27,-12,-16,-4
1532320781689,-1,-2,-5,1,8,-8,-12,1
1532320781694,0,0,-7,-5,-4,-4,-14,0
1532320781699,1,-2,-1,-2,-24,-4,18,2
1532320781704,-1,0,-2,-4,16,-11,-24,-2
1532320781709,-1,-1,0,3,6,-5,-15,-5
1532320781714,-3,-2,4,13,51,56,6,-4
1532320781719,-2,-2,-6,-7,-36,-43,6,1
1532320781724,-2,-3,-4,-5,-15,-15,-13,1
1532320781729,-2,0,-1,-6,-11,-11,13,-2
1532320781734,1,0,0,2,9,11,14,2
1532320781739,1,0,-1,5,24,26,-7,-1
1532320781744,-1,0,-1,-1,11,6,14,-1
1532320781749,-3,-1,-5,-10,-36,-21,-7,0
1532320781754,-3,-1,1,-2,-15,-23,4,-3
1532320781759,2,1,1,2,0,4,8,4
1532320781764,-1,-1,-1,1,-4,0,2,-1
1532320781769,2,1,1,4,26,-4,-4,1
1532320781774,-1,-1,-3,-5,-24,16,22,-1
1532320781779,-2,-3,0,2,1,-6,0,-2
1532320781784,1,2,5,9,37,45,-18,0
1532320781789,1,1,1,7,3,5,-3,-1
1532320781794,0,0,-6,-13,-30,-50,-13,0
1532320781799,-1,-2,-2,0,17,-2,-6,-4
1532320781804,0,-3,-2,-9,-28,-2,13,2
1532320781809,1,1,-1,-3,-8,20,26,2
1532320781814,2,2,5,8,17,2,10,0
1532320781819,-3,-1,-1,-2,4,41,-11,-2
1532320781824,1,1,2,6,18,-29,15,-1
1532320781829,-1,-4,-4,-5,19,-9,-25,-2
1532320781834,-2,-2,-4,-4,-2,11,8,1
1532320781839,2,2,2,0,13,-1,-10,-2
1532320781844,-4,-3,0,-6,-5,-77,-21,-8
1532320781849,-1,0,-3,-4,-27,66,17,5
1532320781854,-1,-1,1,5,29,22,-5,-1
1532320781859,-2,-3,2,0,-20,4,-11,-2
1532320781864,1,0,-4,-1,-6,13,17,-1
1532320781869,-1,0,-1,-2,-6,-38,12,-1
1532320781874,-3,-2,-2,-3,3,-28,-12,-2
1532320781879,-1,-3,-3,-2,-2,22,-10,0
1532320781884,0,0,-1,3,13,30,2,0
1532320781889,1,-1,-2,-10,-15,-62,-1,0
1532320781894,1,1,2,0,-3,-11,5,2
1532320781899,0,-1,-1,1,0,-23,0,0
1532320781904,-4,-2,-3,-6,-1,79,23,2
1532320781909,0,-1,-5,0,-10,-69,-26,-4
1532320781914,-1,0,4,7,21,6,-8,-2
1532320781919,1,2,-3,-1,1,29,-14,0
1532320781924,-3,-2,2,5,19,29,7,-2
1532320781929,-2,-2,1,-1,8,32,24,-2
1532320781934,0,0,-2,-5,-13,-7,1,-1
1532320781939,-2,-1,1,7,16,-22,-9,-3
1532320781944,0,-1,-7,-14,-58,-49,26,2
1532320781949,1,3,3,-1,9,-4,-13,-1
1532320781954,-1,-4,-5,-5,27,71,31,-1
1532320781959,-2,-2,-2,-9,-42,-64,-40,-1
1532320781964,0,-1,-2,2,1,0,13,0
1532320781969,-3,0,0,1,2,-6,-11,-6
1532320781974,4,2,3,2,-10,12,-15,2
1532320781979,-1,-1,-1,3,30,25,21,-3
1532320781984,-2,-3,-2,-3,17,-18,-20,-3
1532320781989,0,-1,1,-2,-6,13,4,-1
1532320781994,0,0,1,7,-7,-2,9,1
1532320781999,-3,0,1,-1,-9,-26,0,-3
1532320782004,2,-1,0,0,-8,4,-8,1
1532320782009,0,0,-2,1,27,13,24,0
1532320782014,-2,-2,-3,-4,8,5,-46,-4
1532320782019,0,-1,3,0,-10,-34,21,2
1532320782024,-1,0,0,2,8,-46,-40,-3
1532320782029,-4,-2,0,4,20,45,30,-2
1532320782034,-2,0,2,7,19,-28,-3,-4
1532320782039,2,-1,-2,0,14,-29,14,0
1532320782044,2,-3,-5,-24,-71,46,-6,1
1532320782049,-2,-3,-3,-4,-41,-67,-24,-1
1532320782054,-2,0,-4,-3,-11,-7,2,-1
1532320782059,-3,-1,-1,4,8,25,-1,0
1532320782064,-1,0,5,16,48,31,0,-2
1532320782069,2,0,2,0,1,-16,11,3
1532320782074,-1,-3,-3,-9,-30,-18,-26,-3
1532320782079,-1,-2,-3,-1,-13,-16,1,-1
1532320782084,-2,1,-1,2,8,-43,-7,0
1532320782089,-5,-2,-1,-5,-8,60,29,1
1532320782094,2,1,3,4,-6,-80,-53,-2
1532320782099,2,1,2,-5,-12,0,4,3
1532320782104,0,1,5,3,18,-8,6,2
1532320782109,-2,-1,-3,-1,-12,6,-6,-2
1532320782114,0,-2,-5,-3,-1,44,24,0
1532320782119,-2,0,-1,1,-4,-16,-34,-5
1532320782124,-1,-1,0,2,11,30,44,0
1532320782129,0,0,4,9,40,-4,-28,-3
1532320782134,-1,-4,-5,-15,-40,-19,25,3
1532320782139,-3,0,-3,-2,-4,-12,-20,-6
1532320782144,0,-1,1,1,7,17,4,1
1532320782149,0,-1,-4,0,-1,5,-6,0
1532320782154,-1,1,-1,4,9,10,7,2
1532320782159,-1,-2,-1,-2,4,25,10,-1
1532320782164,-2,-2,-4,-7,-25,-26,-11,-5
1532320782169,-1,-3,-3,-1,-7,-10,-9,-2
1532320782174,-1,1,2,3,-5,4,3,0
1532320782179,-1,0,1,-5,2,9,5,-3
1532320782184,-1,1,0,-5,0,-3,-6,-3
1532320782189,0,-1,0,0,-4,4,-6,1
1532320782194,0,1,0,0,12,10,1,-6
1532320782199,0,-3,-4,-1,24,38,13,5
1532320782204,-2,-2,-4,-1,-22,-20,-21,-1
1532320782209,-1,-1,-2,-2,-1,6,3,-1
1532320782214,-2,-2,-2,-6,-39,-38,18,0
1532320782219,2,1,1,3,7,3,-7,4
1532320782224,-3,-2,-2,4,15,-69,-35,-7
1532320782229,1,0,-7,-13,13,43,56,3
1532320782234,1,1,-2,-2,-1,96,11,8
1532320782239,1,-1,0,-3,-18,-21,-1,-2
1532320782244,-2,-2,-2,1,13,50,48,2
1532320782249,0,0,3,-1,-16,-55,-22,8
1532320782254,-4,-3,-1,-3,-1,26,26,-1
1532320782259,-2,-2,-7,1,10,18,-26,-5
1532320782264,3,2,0,6,21,3,31,4
1532320782269,1,0,2,5,-4,1,-6,-8
1532320782274,1,0,0,0,14,14,-11,0
1532320782279,-2,-2,1,-1,-20,-30,1,2
1532320782284,0,0,-1,-2,2,14,11,-2
1532320782289,-3,-3,-2,-1,3,5,-25,-3
1532320782294,1,1,3,-6,-55,-63,-28,-1
1532320782299,-5,-2,-2,-5,-3,-2,3,-1
1532320782304,-1,-2,-3,-1,-24,9,0,1
1532320782309,-1,0,0,3,-10,-5,-16,-2
1532320782314,-2,-1,1,3,23,-12,-17,-7
1532320782319,1,-1,-1,-2,8,31,21,2
1532320782324,-1,-1,0,1,1,-72,-26,-2
1532320782329,-1,0,-1,-5,-1,47,-4,-1
1532320782334,-1,0,-2,4,15,6,2,-1
1532320782339,-2,-1,-3,-2,-8,9,10,-1
1532320782344,1,1,0,1,9,15,-10,0
1532320782349,0,1,1,-4,-8,-23,3,-1
1532320782354,-2,-2,-1,2,12,21,14,-2
1532320782359,-2,-1,-6,-4,-2,-10,-12,0
1532320782364,0,0,3,-1,-5,1,-8,-2
1532320782369,0,-1,1,2,-4,-7,7,1
1532320782374,-4,-2,-3,-5,9,1,2,-2
1532320782379,-1,0,9,-1,-5,-18,-16,-1
1532320782384,-2,0,-9,-1,-5,9,-2,-3
1532320782389,-3,-4,-7,3,9,4,7,0
1532320782394,0,0,3,4,4,-6,15,1
1532320782399,3,-2,-4,-9,-18,-20,-30,-1
1532320782404,-1,-1,4,-4,-4,17,-3,5
1532320782409,-1,1,0,-2,-3,-10,4,-3
1532320782414,0,-1,0,6,15,3,-4,2
1532320782419,0,1,-2,2,-1,8,1,0
1532320782424,1,-1,0,-9,-22,-22,-16,9
1532320782429,1,2,-1,0,-2,-5,-17,-7
1532320782434,-2,-2,-3,1,2,3,-8,0
1532320782439,1,3,3,10,19,21,24,8
1532320782444,-2,-1,-2,3,11,-2,6,-3
1532320782449,-2,-2,-4,-8,-17,-28,11,6
1532320782454,-5,-1,-2,-1,2,37,-17,-17
1532320782459,-2,-3,-2,-4,-6,-21,-33,2
1532320782464,2,0,0,10,29,58,50,3
1532320782469,-3,-2,-1,-1,-9,-8,6,-5
1532320782474,3,2,-1,-3,9,-53,10,7
1532320782479,-3,-3,-4,-1,16,77,10,-6
1532320782484,-1,-1,-2,0,-2,16,-15,-5
1532320782489,1,-1,0,-8,-14,-7,-10,0
1532320782494,-2,-1,0,2,7,-12,-4,-3
1532320782499,-2,-1,-1,-1,0,-12,9,0
1532320782504,-3,-2,0,-4,-9,-9,13,-2
1532320782509,0,1,4,5,16,-4,-26,0
1532320782514,0,0,-3,-1,-6,5,-24,0
1532320782519,0,-1,0,1,10,1,-3,-6
1532320782524,-2,-4,-6,-10,-25,-35,-1,-3
1532320782529,1,-2,0,3,6,0,0,1
1532320782534,-1,-3,1,1,9,2,3,-1
1532320782539,-2,-1,0,-5,-17,1,-15,-4
1532320782544,-2,0,3,5,17,5,-11,-4
1532320782549,-1,-2,-1,-2,-6,5,5,0
1532320782554,-1,0,-3,-4,-8,-2,5,0
1532320782559,0,1,-1,-4,-2,-16,7,-1
1532320782564,-2,-2,0,-4,-4,-2,-12,-6
1532320782569,0,-2,0,1,2,-2,6,3
1532320782574,-2,-8,-6,1,-2,14,11,-7
1532320782579,1,8,3,0,-6,-17,12,9
1532320782584,-1,0,6,-2,-9,-4,-12,-5
1532320782589,-1,0,-2,1,3,8,0,-3
1532320782594,0,-4,-2,-2,-3,-3,-3,0
1532320782599,-2,-2,-6,1,-1,-3,21,-9
1532320782604,-2,-1,-1,9,4,-6,-28,2
1532320782609,0,-1,-1,1,4,-3,4,1
1532320782614,-1,1,-3,-8,-8,8,-3,0
1532320782619,0,-3,-4,-6,-11,-34,16,-2
1532320782624,-2,1,-1,-6,-8,9,-28,-2
1532320782629,-1,0,0,4,-1,-17,11,-4
1532320782634,0,2,3,4,8,28,19,3
1532320782639,-2,-2,-1,0,-1,-4,-4,0
1532320782644,-1,-2,-2,-4,1,2,15,0
1532320782649,-1,1,0,-1,-2,9,-6,2
1532320782654,-3,0,2,-2,2,-8,15,0
1532320782659,-1,-1,2,2,-3,-13,-42,-10
1532320782664,1,0,-2,1,1,2,10,10
1532320782669,-5,-4,-6,-12,-5,-2,-22,-14
1532320782674,0,2,2,1,-6,3,22,1
1532320782679,3,0,1,4,16,22,2,29
1532320782684,-5,-3,-5,-3,-17,-12,-21,-22
1532320782689,3,5,3,8,20,10,2,3
1532320782694,0,-2,-5,-12,-35,-50,-25,-4
1532320782699,-5,-4,-3,-7,-14,-1,11,-4
1532320782704,-1,-1,1,2,8,11,13,4
1532320782709,0,-1,-1,4,3,29,39,4
1532320782714,-2,0,2,3,10,-7,-16,-2
1532320782719,2,-2,0,1,1,-6,-8,-5
1532320782724,-1,-1,-3,-1,-1,0,20,2
1532320782729,-4,-3,-2,-2,2,-1,-23,-13
1532320782734,0,-1,0,2,5,7,-2,13
1532320782739,-4,-1,-3,-1,5,0,3,-8
1532320782744,1,-1,2,0,5,6,2,1
1532320782749,-3,-2,-4,-7,-10,-9,6,-3
1532320782754,1,0,-1,0,-1,7,1,8
1532320782759,0,2,3,3,1,1,-20,-10
1532320782764,0,-2,2,2,-2,-3,7,1
1532320782769,0,0,1,1,1,-16,-7,0
1532320782774,0,-3,-3,-2,-1,10,6,0
1532320782779,-2,-1,-4,-6,-6,-1,8,1
1532320782784,0,1,2,6,17,5,-8,-3
1532320782789,0,-3,-2,-5,-22,-11,13,16
1532320782794,-2,-1,-2,-1,-2,-5,-40,-10
1532320782799,-1,-3,0,4,6,14,38,-1
1532320782804,1,0,-5,-3,5,-10,-5,2
1532320782809,2,0,-1,-6,-3,-12,-10,1
1532320782814,-1,0,-1,2,1,9,14,0
1532320782819,-2,-1,-1,-2,-1,-1,-23,-6
1532320782824,-1,1,0,1,-1,-3,4,3
1532320782829,-1,2,5,8,22,10,-6,3
1532320782834,-1,-2,-6,-4,-19,-7,7,4
1532320782839,-2,-1,0,-2,-2,-36,-17,-14
1532320782844,1,-1,0,-1,-7,12,-10,5
1532320782849,-3,-3,-3,-5,-1,7,5,-10
1532320782854,2,1,2,2,9,4,-6,1
1532320782859,1,1,2,5,3,8,16,7
1532320782864,-1,0,0,-2,-3,-11,-4,-8
1532320782869,1,1,-1,-4,-16,-4,2,-4
1532320782874,-3,-1,-1,-2,2,-2,-19,-7
1532320782879,1,-2,-4,-6,-6,1,19,12
1532320782884,-2,-2,-1,1,3,0,-1,-8
1532320782889,-2,-1,0,6,14,7,5,-2
1532320782894,-5,-2,-3,-8,-15,-12,3,-8
1532320782899,0,-2,-3,1,-8,-39,-44,6
1532320782904,3,0,-4,-6,-13,37,16,5
1532320782909,0,-2,-2,-1,-6,-4,8,3
1532320782914,-1,0,1,4,14,13,8,-3
1532320782919,-1,0,0,3,5,5,-39,-3
1532320782924,-3,-1,-4,-6,-14,-20,43,3
1532320782929,-1,-1,-3,-4,-2,-2,-14,2
1532320782934,-1,1,0,-2,-1,0,-5,-20
1532320782939,0,1,1,-1,-2,5,20,7
1532320782944,-1,-1,1,5,14,3,-26,-1
1532320782949,-5,-1,-3,-5,-14,-12,-4,-3
1532320782954,1,-1,2,5,6,7,24,11
1532320782959,-2,-1,-4,-7,-12,-8,-27,-5
1532320782964,4,1,0,0,0,-13,5,-2
1532320782969,2,1,1,1,2,15,36,8
1532320782974,0,-1,1,2,8,-2,-28,-9
1532320782979,0,-2,-1,-3,-6,3,-5,-10
1532320782984,-2,-4,-5,-3,-11,0,1,1
1532320782989,-2,-1,-1,2,14,4,23,0
1532320782994,-3,1,3,-1,2,-7,-13,-3
1532320782999,1,-3,-3,1,6,13,-5,3
1532320783004,-3,0,0,-3,-8,-27,-27,-5
1532320783009,1,1,0,3,-20,-21,23,1
1532320783014,-2,-2,-2,-9,-10,-13,4,-2
1532320783019,-5,-4,-5,-9,-17,-11,-19,-12
1532320783024,3,2,-2,-6,5,8,15,12
1532320783029,-3,-2,1,5,14,11,-16,-2
1532320783034,-1,0,-2,0,0,-14,-19,-1
1532320783039,0,-1,2,1,-1,21,42,3
1532320783044,-1,-2,2,2,-2,10,-20,-3
1532320783049,1,0,-2,-3,7,8,-12,-10
1532320783054,-1,0,0,1,5,8,-5,14
1532320783059,-2,1,1,2,4,-21,-30,-7
1532320783064,-3,-2,-2,1,-5,-7,-6,-1
1532320783069,-2,-2,-3,-3,2,1,-7,-4
1532320783074,-1,-1,0,2,7,2,-3,-4
1532320783079,0,2,0,-4,-8,-15,-10,1
1532320783084,1,0,-2,-1,-9,-2,-8,3
1532320783089,-1,-2,-2,-4,-1,-10,5,3
1532320783094,-2,-1,-1,-1,0,9,28,-4
1532320783099,2,-1,2,2,10,7,3,2
1532320783104,-1,1,-2,2,16,9,-7,-5
1532320783109,0,-1,-2,-4,-34,-23,12,3
1532320783114,0,-1,0,-4,-6,0,-20,0
1532320783119,2,-1,-1,3,1,0,-11,2
1532320783124,-1,-1,-2,0,-2,7,28,0
1532320783129,-3,-2,-1,1,11,-3,2,-6
1532320783134,-2,-1,0,4,1,-1,4,-6
1532320783139,-1,-1,-3,-1,-1,-2,-19,7
1532320783144,0,0,0,-2,-4,-14,-4,-4
1532320783149,1,-1,0,0,6,9,18,3
1532320783154,0,0,3,-2,-1,-3,-15,-2
1532320783159,2,-2,-4,1,4,5,23,1
1532320783164,-2,-3,-4,-3,-8,-5,0,2
1532320783169,-2,-1,-2,-3,2,6,4,-7
1532320783174,-2,-3,-1,-2,-3,-5,20,-5
1532320783179,-1,0,0,0,-3,-6,-35,-8
1532320783184,0,-2,-2,-1,-8,-3,0,4
1532320783189,-2,0,-1,2,1,-1,-24,-3
1532320783194,-3,-2,-4,-4,0,-1,13,-3
1532320783199,1,-2,3,4,3,4,4,1
1532320783204,1,1,0,-3,-4,-2,10,1
1532320783209,1,0,0,-4,5,4,10,3
1532320783214,1,-1,0,-1,0,0,-16,1
1532320783219,-4,-4,-4,2,6,7,19,-3
1532320783224,-3,-2,-1,-1,-4,-37,-22,-3
1532320783229,-1,-1,1,0,-2,32,-2,-2
1532320783234,0,0,-2,-4,-5,-3,-2,4
1532320783239,-1,-2,-2,-8,-11,1,9,-1
1532320783244,1,0,0,6,8,11,6,-1
1532320783249,-4,0,0,6,6,-12,-24,-2
1532320783254,0,-2,-1,1,-1,-1,1,2
1532320783259,1,0,4,2,12,12,62,5
1532320783264,-2,-1,-2,-3,-4,4,-15,-4
1532320783269,3,-1,-3,-3,-7,-9,25,10
1532320783274,-1,-1,-2,-2,-4,2,-26,-7
1532320783279,-1,-2,-2,-2,-2,-14,-16,-3
1532320783284,0,1,0,0,1,8,9,-1
1532320783289,-3,0,2,1,4,2,-3,-5
1532320783294,-2,-1,-1,0,-1,-9,2,-1
1532320783299,-2,0,-3,-2,-3,-2,-4,-1
1532320783304,-1,-2,0,-2,-4,-3,-8,-3
1532320783309,-3,-2,-2,-1,3,0,-4,-3
1532320783314,3,1,1,2,1,3,10,6
1532320783319,-1,1,0,-3,-4,-2,-4,1
1532320783324,-3,-1,3,0,-1,4,-19,-8
1532320783329,1,-2,-3,3,6,-8,-3,3
1532320783334,-1,-1,-3,-3,-5,4,26,1
1532320783339,0,0,-1,-2,-8,-5,-17,-2
1532320783344,-2,-2,-2,-2,-5,-2,-1,-2
1532320783349,-1,1,2,1,3,0,0,-1
1532320783354,-4,1,0,1,6,-5,-17,-14
1532320783359,0,0,-1,-1,5,11,20,9
1532320783364,0,-1,-1,1,-1,3,-6,-2
1532320783369,5,-1,0,-1,-1,1,15,13
1532320783374,0,0,0,2,4,0,-6,-5
1532320783379,-2,-2,0,-2,-1,-7,-16,-4
1532320783384,-2,0,-1,-2,-1,-7,15,-1
1532320783389,-3,-1,0,-2,-3,9,8,-4
1532320783394,2,1,0,1,6,2,2,-5
1532320783399,-2,-1,0,2,-1,-2,-18,-3
1532320783404,1,-2,-4,-5,-11,-5,-3,3
1532320783409,-2,-1,-4,-5,-5,-3,1,0
1532320783414,-1,-1,0,-6,-8,-7,-17,8
1532320783419,-2,-1,-2,-1,-1,0,7,11
1532320783424,-2,-1,1,1,-8,-23,-40,-19
1532320783429,1,1,2,4,20,7,-6,0
1532320783434,-2,-2,0,-3,-8,25,4,-7
1532320783439,2,1,0,2,2,13,-4,8
1532320783444,-2,-1,-2,0,-3,-80,0,2
1532320783449,-3,-3,-4,-9,-3,2,0,-2
1532320783454,0,-1,-1,2,-4,6,2,5
1532320783459,0,-1,-2,-4,-4,-8,-9,-6
1532320783464,1,1,2,1,0,30,14,3
1532320783469,1,0,2,4,6,-1,13,-3
1532320783474,-1,-1,0,3,10,-5,7,3
1532320783479,-5,-1,-2,-4,9,12,-1,-10
1532320783484,0,-2,-2,-3,-5,9,0,4
1532320783489,-1,-2,-2,-2,-12,-7,-19,-4
1532320783494,-2,0,-1,-3,-13,-5,25,6
1532320783499,0,-1,1,4,4,-4,2,-1
1532320783504,-4,-2,0,4,16,14,-1,-3
1532320783509,0,1,2,-6,-11,-20,-12,1
1532320783514,-2,-2,-5,0,0,9,-7,-5
1532320783519,0,0,-2,-6,-8,-7,-6,-11
1532320783524,2,-1,-1,-3,-2,17,13,9
1532320783529,-1,-1,-1,2,2,3,10,-3
1532320783534,1,0,0,3,4,-5,-10,1
1532320783539,-2,-1,-1,-2,-6,-11,2,-1
1532320783544,1,2,4,-1,9,20,0,0
1532320783549,-2,-2,-9,1,5,2,9,-1
1532320783554,-2,-3,-3,-9,-11,-15,-1,0
1532320783559,1,-1,0,1,-2,2,-7,-7
1532320783564,-2,0,0,-2,-1,-2,1,1
1532320783569,1,0,0,0,-1,3,0,2
1532320783574,-1,-1,-1,2,3,-3,2,3
1532320783579,-1,0,1,0,-4,-4,-3,-1
1532320783584,2,-1,-5,-4,-2,5,-1,0
1532320783589,0,0,0,1,-3,-8,-1,2
1532320783594,0,0,1,2,4,5,-18,3
1532320783599,0,0,-2,-5,5,6,45,3
1532320783604,-3,0,-1,0,-8,-11,-4,0
1532320783609,-3,-1,-1,-1,4,-2,14,-3
1532320783614,-1,-1,-1,-4,3,-6,-26,-6
1532320783619,-3,-2,-3,-1,1,28,2,-2
1532320783624,4,1,-3,-1,-1,14,17,6
1532320783629,1,-1,3,3,7,-7,-5,0
1532320783634,-2,-1,-3,-7,-48,-26,-6,-2
1532320783639,2,0,1,0,-10,0,-8,-1
1532320783644,-4,-3,-1,-1,4,-6,-21,-5
1532320783649,-1,0,1,2,7,11,7,-1
1532320783654,1,1,2,1,2,3,7,1
1532320783659,-2,-2,-1,0,0,-8,-19,-2
1532320783664,-1,0,-1,-1,-9,4,14,1
1532320783669,0,0,-1,-2,-2,-14,-22,-5
1532320783674,-1,-1,-2,-1,16,14,18,0
1532320783679,0,-2,1,2,-4,-10,-6,1
1532320783684,-2,0,-1,0,5,-2,-7,-4
1532320783689,-4,-3,-3,-6,-8,4,4,-1
1532320783694,0,-2,-4,0,5,3,9,-1
1532320783699,1,0,-1,-1,-5,-5,-8,0
1532320783704,-2,-1,1,-1,4,-3,-5,-4
1532320783709,1,-2,-4,0,-4,9,22,7
1532320783714,3,1,3,0,3,0,-16,2
1532320783719,-6,-3,-1,0,3,-16,-9,-8
1532320783724,-2,-2,-2,-2,0,7,2,-5
1532320783729,5,1,1,-1,-6,0,-9,2
1532320783734,0,1,0,1,3,-8,7,3
1532320783739,-1,0,-1,-3,4,1,2,-3
1532320783744,-4,-1,0,2,1,2,4,1
1532320783749,-7,-2,-2,2,2,11,-7,-13
1532320783754,1,-1,-1,-3,4,6,17,3
1532320783759,-1,-1,-3,3,50,-26,8,-3
1532320783764,1,0,-1,-9,-21,43,-17,-1
1532320783769,-4,-1,-4,2,3,7,-36,-8
1532320783774,0,1,1,7,8,30,55,3
1532320783779,0,1,0,1,16,17,-20,-1
1532320783784,-2,-2,0,2,2,-50,3,0
1532320783789,0,-1,-2,-5,-14,-29,-29,0
1532320783794,-5,-3,-2,0,2,3,18,-8
1532320783799,1,0,1,-1,-19,5,20,6
1532320783804,0,1,-1,0,5,2,8,1
1532320783809,2,-1,-1,-2,-10,2,-5,3
1532320783814,-2,-2,-2,0,2,0,-15,-10
1532320783819,4,0,1,-2,-2,2,25,10
1532320783824,2,0,-1,-2,0,-9,-19,5
1532320783829,-1,-1,0,0,-11,-4,-8,-1
1532320783834,-3,-2,-1,2,13,-8,-2,-1
1532320783839,0,0,1,-6,-24,-9,15,-2
1532320783844,0,0,-1,1,0,-1,-27,-3
1532320783849,0,0,-4,1,-6,4,0,0
1532320783854,-2,-2,-1,1,9,17,8,1
1532320783859,-1,-1,-1,-2,11,-17,-6,-9
1532320783864,-2,-1,-2,-7,-30,-44,-1,6
1532320783869,1,-2,-2,-8,-11,21,-3,1
1532320783874,0,0,-2,0,-4,-2,-10,1
1532320783879,0,-1,0,2,14,27,14,-2
1532320783884,-1,0,4,6,15,16,37,-3
1532320783889,0,1,-1,5,9,-7,-3,0
1532320783894,0,-2,-5,-5,-9,-5,9,2
1532320783899,-2,-1,-3,-5,-14,-5,-15,0
1532320783904,-2,-2,-1,-2,0,-7,-15,-5
1532320783909,-1,0,0,1,-4,-5,2,-2
1532320783914,2,1,1,4,8,7,3,0
1532320783919,-3,2,1,1,-5,-7,-5,-2
1532320783924,0,-2,-3,-1,2,2,-15,-2
1532320783929,2,0,0,0,2,1,8,4
1532320783934,1,1,0,-1,-6,-7,-6,0
1532320783939,-1,0,-1,-1,2,1,4,2
1532320783944,-2,-2,-2,-1,4,6,1,-2
1532320783949,-1,-2,-2,-4,-2,-5,0,-3
1532320783954,-1,-2,0,-2,-5,-6,0,0
1532320783959,0,-2,-1,0,-1,3,3,1
1532320783964,-1,-1,-2,-1,3,6,-5,-1
1532320783969,-2,-3,0,-1,-4,-7,-11,-8
1532320783974,1,-1,0,0,-2,-3,7,12
1532320783979,-1,-1,0,2,7,5,-3,-5
1532320783984,-1,-2,-2,-1,-2,-11,-12,-1
1532320783989,-4,1,1,1,8,25,-6,-4
1532320783994,-3,-2,-1,-4,-22,-23,12,-6
1532320783999,0,0,0,-1,-1,-10,-13,0
1532320784004,0,0,1,-1,5,8,3,12
1532320784009,0,0,0,-1,-3,-5,55,-1
1532320784014,-3,-2,-3,-2,7,7,-6,-6
1532320784019,1,-1,-1,-3,-7,0,6,0
1532320784024,-2,-1,-2,-1,-2,-11,-1,-6
1532320784029,0,-1,1,0,0,-3,-25,2
1532320784034,-2,-4,-1,2,6,6,1,-4
1532320784039,-1,-1,-2,-2,-6,-6,3,2
1532320784044,0,-1,-2,0,4,6,0,-6
1532320784049,3,0,-1,1,-4,-2,0,3
1532320784054,-2,1,0,0,1,4,-3,-7
1532320784059,0,-1,0,2,5,-1,-10,2
1532320784064,0,0,-1,-3,0,-2,-1,1
1532320784069,0,-1,-2,-6,-9,-6,-5,-2
1532320784074,1,1,-1,-2,-4,0,-6,1
1532320784079,-2,-2,0,0,1,-4,-23,-2
1532320784084,0,1,0,3,-2,9,58,1
1532320784089,-1,-1,-2,-1,0,-6,-5,0
1532320784094,1,0,0,0,7,7,-1,2
1532320784099,0,-1,0,-2,-5,-1,5,2
1532320784104,-2,-1,-2,-2,-6,-3,-15,-2
1532320784109,-4,-2,-2,0,-2,-10,-13,-8
1532320784114,1,1,1,0,-3,1,12,5
1532320784119,0,-1,0,3,4,4,-4,0
1532320784124,-1,-1,-1,0,0,-7,-24,-4
1532320784129,-3,-3,-1,-1,-4,-9,-16,-3
1532320784134,-1,-1,0,0,2,4,26,0
1532320784139,-1,1,-2,-1,-1,5,7,1
1532320784144,-1,0,-2,-2,1,4,4,0
1532320784149,1,-2,-1,-1,0,-4,-10,-1
1532320784154,-3,-3,0,1,-1,-5,-15,-2
1532320784159,0,-2,-1,0,2,0,8,-1
1532320784164,0,-2,-2,-3,-6,-3,-9,1
1532320784169,-3,0,0,1,-2,-2,-7,0
1532320784174,0,-1,-4,-6,-4,-7,-6,-3
1532320784179,0,0,-1,0,3,5,11,0
1532320784184,-1,-2,0,-1,-1,0,-13,-1
1532320784189,1,1,1,0,0,-1,0,1
1532320784194,0,-1,-2,-3,-2,-3,-5,0
1532320784199,-2,0,0,0,2,2,1,-3
1532320784204,-2,-2,-2,-2,-7,-6,-20,-7
1532320784209,1,-2,-1,-2,-2,3,24,5
1532320784214,0,1,0,6,4,0,-4,0
1532320784219,0,-1,-4,-5,-4,-11,-30,-2
1532320784224,0,-1,1,0,0,17,72,0
1532320784229,0,1,-2,-3,-3,2,-5,2
1532320784234,0,0,0,-1,-2,-1,26,1
1532320784239,-3,-2,0,2,4,14,4,0
1532320784244,-1,-1,1,3,5,0,-11,1
1532320784249,1,-1,-4,-5,-7,-5,-10,-2
1532320784254,1,-1,-1,0,1,-1,-4,-4
1532320784259,1,0,1,0,-2,-2,0,3
1532320784264,-1,2,0,4,3,-3,-12,0
1532320784269,-1,-3,-3,-2,-1,1,3,-3
1532320784274,-2,0,-3,-4,-6,-5,-26,-2
1532320784279,-1,-2,-2,-2,-3,-4,4,-2
1532320784284,0,-2,0,-2,-1,-2,-19,-2
1532320784289,0,1,0,3,4,1,7,1
1532320784294,-1,-1,-4,-4,-4,1,-4,1
1532320784299,-3,0,-1,-1,-2,0,4,-2
1532320784304,-3,0,0,1,2,0,8,-3
1532320784309,-2,-1,1,0,0,-2,-9,-2
1532320784314,-2,-2,-1,5,9,4,2,-2
1532320784319,-1,-1,0,0,0,5,9,0
1532320784324,-1,-1,-4,-9,-18,-25,-54,-3
1532320784329,0,0,-1,-1,-4,4,18,0
1532320784334,-2,0,2,-2,-6,0,-1,1
1532320784339,-2,-1,-3,-2,-2,-3,-5,-3
1532320784344,-1,-1,1,4,5,2,-8,-2
1532320784349,-2,-1,-2,0,4,0,9,-2
1532320784354,-1,-2,0,-2,-4,1,-6,0
1532320784359,1,0,0,2,0,-2,-1,0
1532320784364,-2,-1,-1,-3,-2,-1,8,0
1532320784369,-2,-2,-3,-1,-1,-2,-8,-1
1532320784374,0,0,-1,0,1,3,2,-5
1532320784379,2,-1,-2,-3,-1,-1,4,2
1532320784384,1,0,-2,0,-1,1,-7,1
1532320784389,0,1,2,2,1,2,2,-1
1532320784394,1,0,2,6,9,-3,-13,0
1532320784399,0,0,-4,-11,-4,-4,-2,-3
1532320784404,-1,-2,0,-3,-2,3,7,1
1532320784409,-1,0,0,0,-4,-1,4,1
1532320784414,0,-1,-1,-1,-9,-2,-5,-1
1532320784419,2,1,-1,1,5,-4,-2,-2
1532320784424,-2,0,-1,3,11,4,-26,-1
1532320784429,1,0,-2,-2,-1,1,8,0
1532320784434,-4,-1,-1,-2,-2,-3,-6,-4
1532320784439,-3,-1,0,0,-6,-1,-5,-6
1532320784444,-1,-1,-1,3,2,-1,20,1
1532320784449,1,-1,-1,-2,4,-2,-17,-4
1532320784454,-1,-2,-3,-5,1,0,10,4
1532320784459,-1,-1,-1,-2,-5,-3,7,0
1532320784464,0,-1,1,0,-1,2,2,2
1532320784469,-1,-2,0,3,1,-2,8,0
1532320784474,-2,-1,1,5,9,3,-40,-3
1532320784479,-1,-2,-1,-2,-1,0,28,2
1532320784484,-1,0,-4,-7,-3,1,-19,0
1532320784489,0,-1,-1,-5,-4,-2,9,1
1532320784494,3,2,0,4,1,-3,-11,3
1532320784499,0,0,1,4,3,3,4,5
1532320784504,-1,0,0,0,2,-4,-11,-5
1532320784509,-1,0,-1,-4,-4,-4,-13,1
1532320784514,1,-1,-1,-2,-2,-2,10,-1
1532320784519,-1,-3,2,2,4,2,-11,-1
1532320784524,-1,0,0,-3,0,0,6,-1
1532320784529,-1,-1,-1,1,1,-2,-5,-4
1532320784534,-2,0,1,1,1,5,16,-2
1532320784539,0,0,-1,-1,-6,-1,-6,1
1532320784544,-1,-2,-3,-9,-6,-8,-4,-4
1532320784549,0,-2,-2,-2,-9,0,13,5
1532320784554,-1,0,-2,-8,1,2,5,-1
1532320784559,-2,-2,1,4,4,2,-3,-3
1532320784564,1,-1,5,11,11,7,10,5
1532320784569,-1,-1,-5,-9,-8,-7,-13,-7
1532320784574,0,-2,-3,-4,-14,-8,-9,0
1532320784579,-3,-1,-1,-2,0,2,16,-9
1532320784584,0,0,2,0,3,5,8,-2
1532320784589,0,0,1,4,2,0,-20,-1
1532320784594,-2,-2,-2,-6,-4,3,53,1
1532320784599,-2,1,-2,-2,0,-3,-16,-3
1532320784604,0,0,-3,-4,-6,-4,-11,-3
1532320784609,-1,-1,1,2,4,5,19,2
1532320784614,0,0,1,3,0,-5,-20,2
1532320784619,0,-2,1,0,1,1,1,1
1532320784624,-2,-1,-2,0,-3,-2,-3,1
1532320784629,-1,-1,-1,-2,0,0,8,0
1532320784634,-1,0,0,2,4,2,-13,1
1532320784639,-2,-1,-1,-3,-1,-2,-19,-4
1532320784644,1,-1,1,-3,-1,3,34,7
1532320784649,-2,-1,0,0,-4,-5,-13,1
1532320784654,-2,-2,-1,-1,-1,2,-1,-7
1532320784659,3,0,1,3,4,5,-2,8
1532320784664,2,1,1,2,5,5,-12,2
1532320784669,-1,-1,-1,-2,-4,-3,1,-6
1532320784674,-1,-1,-1,-2,4,-4,-7,1
1532320784679,1,-1,-4,-5,-6,0,9,2
1532320784684,-3,-4,-2,-2,-6,-4,11,-5
1532320784689,1,-1,1,6,11,9,-8,2
1532320784694,-3,-1,-2,-2,-5,-4,-7,-4
1532320784699,-2,-2,0,2,1,-4,16,-6
1532320784704,-1,0,-1,1,0,-1,-6,-6
1532320784709,1,-2,-2,-1,-1,-3,0,13
1532320784714,-4,-1,-1,2,-2,-11,-42,-7
1532320784719,4,2,-2,-3,1,12,40,2
1532320784724,-1,0,-2,1,-12,-7,-4,-3
1532320784729,-2,-1,-1,-3,-1,-1,-15,-6
1532320784734,-1,0,-1,0,1,10,34,-3
1532320784739,-2,-1,1,2,2,-9,-29,2
1532320784744,1,-1,-1,2,6,5,0,-1
1532320784749,-2,0,-4,-10,-8,-8,-18,-3
1532320784754,0,-1,1,2,1,8,75,5
1532320784759,-1,-1,-2,1,-1,-5,-30,-4
1532320784764,-3,0,0,-1,1,3,8,1
1532320784769,-1,-2,-2,2,-4,-5,-14,-4
1532320784774,-2,-1,-2,-1,-3,-6,-27,-2
1532320784779,0,1,-2,-2,-2,1,6,-1
1532320784784,-1,0,3,4,10,2,-10,7
1532320784789,3,0,-2,-2,-7,-1,42,3
1532320784794,-3,-2,-2,-4,-11,-9,-38,-7
1532320784799,1,1,-1,-5,-6,-5,-5,1
1532320784804,0,-2,-1,-1,1,10,39,-8
1532320784809,0,-1,4,7,11,5,18,3
1532320784814,0,0,-1,3,11,4,19,-2
1532320784819,0,-2,-6,-9,-16,-13,-28,-2
1532320784824,-1,-2,-4,-6,-7,-7,-16,-6
1532320784829,-2,-1,-3,-1,-2,-2,0,2
1532320784834,2,-2,1,5,1,3,2,4
1532320784839,-1,0,1,2,8,4,12,-1
1532320784844,-1,-1,-4,-4,-9,-6,-6,2
1532320784849,0,-2,-1,-2,-2,-3,-5,-7
1532320784854,1,-2,0,-1,4,-1,-29,3
1532320784859,-2,-1,2,5,4,2,6,0
1532320784864,0,-2,-1,-3,1,-1,-4,0
1532320784869,0,-1,-2,-3,-3,-1,-16,-4
1532320784874,-1,1,-3,-1,-3,-4,-23,-2
1532320784879,-1,-1,-1,-4,-2,0,14,-1
1532320784884,-1,-1,2,3,-1,-2,10,2
1532320784889,-1,0,1,2,4,3,-14,-2
1532320784894,0,-1,1,-2,0,0,7,1
1532320784899,-3,-3,-3,-1,-1,-2,-1,-6
1532320784904,-4,-3,-1,-1,4,-2,3,-6
1532320784909,3,2,-1,3,-2,6,27,6
1532320784914,2,0,-2,-3,-4,4,34,1
1532320784919,-2,-1,0,-4,-7,-10,1,1
1532320784924,-2,1,3,5,0,7,14,-10
1532320784929,-4,-2,-1,-3,-2,-6,-20,-5
1532320784934,0,-2,0,2,-1,0,-3,4
1532320784939,-1,0,-1,-2,0,-1,-19,-2
1532320784944,-2,-1,-4,-8,-7,-10,-6,0
1532320784949,0,-2,1,3,2,5,12,-3
1532320784954,-2,0,1,-2,3,3,5,-1
1532320784959,-1,-2,0,5,6,5,5,2
1532320784964,0,0,-5,-4,-3,-8,-39,3
1532320784969,1,0,-3,-5,-4,2,7,0
1532320784974,0,-1,0,0,-1,2,0,4
1532320784979,-1,-1,-1,-5,-2,0,-4,-2
1532320784984,-2,1,1,1,1,-1,-12,-4
1532320784989,-2,0,2,4,10,3,-15,0
1532320784994,-1,0,-4,-4,0,-3,-19,-6
1532320784999,1,-1,0,0,-1,-3,4,0
1532320785004,1,0,-5,-10,-16,-9,-13,2
1532320785009,-3,-4,-2,-5,-6,-6,6,-3
1532320785014,-1,-1,-1,0,1,-1,-5,-4
1532320785019,-1,0,1,3,2,1,3,3
1532320785024,2,2,1,1,5,3,0,9
1532320785029,0,-2,-1,-2,-2,-4,-2,-3
1532320785034,-1,0,-3,-3,-5,1,20,-2
1532320785039,0,-1,-3,-3,-2,-5,-13,-4
1532320785044,-1,-1,-2,0,-1,-2,-35,-1
1532320785049,2,0,1,1,0,3,35,4
1532320785054,-1,-1,1,1,3,0,-11,1
1532320785059,-1,-1,0,2,0,-2,3,-2
1532320785064,0,-1,-4,-4,-4,-4,-7,-2
1532320785069,0,-1,-4,-9,-12,-7,-17,-3
1532320785074,-1,-2,0,0,-3,0,15,-2
1532320785079,-1,-2,-1,2,6,5,5,4
1532320785084,1,1,1,2,2,6,15,3
1532320785089,-1,-2,0,2,7,-3,-19,-4
1532320785094,-1,0,-2,-4,-5,-2,-9,1
1532320785099,1,1,2,2,-3,6,35,8
1532320785104,-1,-1,0,3,4,5,39,0
1532320785109,-1,1,0,0,3,2,-3,-1
1532320785114,-3,-1,0,3,4,-2,-22,-3
1532320785119,-3,0,-3,-5,-5,-4,-10,-4
1532320785124,-1,-2,-3,-5,-6,-5,0,-1
1532320785129,-2,-1,-2,1,2,2,-7,-5
1532320785134,-1,-1,-1,-1,-5,-5,0,-1
1532320785139,-1,-1,0,-2,3,-5,6,0
1532320785144,-2,0,2,2,-1,7,-5,1
1532320785149,2,-1,-1,1,-3,3,-15,2
1532320785154,-2,-4,-4,-6,-5,-12,-20,-4
1532320785159,1,2,4,7,6,11,56,13
1532320785164,1,1,-1,-7,-1,3,38,1
1532320785169,-2,-2,-6,-7,-12,-7,-10,-7
1532320785174,0,0,-2,-1,-6,-2,-1,-2
1532320785179,-2,-1,0,-2,0,-4,-10,-2
1532320785184,1,0,0,7,5,1,-35,-1
1532320785189,-1,1,2,5,8,3,9,-1
1532320785194,-1,-1,0,2,5,4,-3,-3
1532320785199,-2,-1,-5,-5,-7,-4,-9,-3
1532320785204,-3,-1,-3,-6,-6,-7,-4,-7
1532320785209,0,0,-2,-4,-6,-5,0,-2
1532320785214,1,-1,0,-2,0,-2,-14,2
1532320785219,-1,-2,2,6,7,3,2,-1
1532320785224,0,1,-1,4,7,3,-7,-2
1532320785229,-3,-3,-1,2,-7,-7,-20,-3
1532320785234,-2,-1,-1,-7,-10,0,37,-1
1532320785239,1,-1,-3,-5,-3,-4,-16,2
1532320785244,-1,-2,-1,-1,0,3,-8,-2
1532320785249,-1,1,1,4,5,5,-4,-1
1532320785254,-2,-1,2,7,8,3,2,-1
1532320785259,0,-3,-6,-9,-8,-9,-13,-6
1532320785264,-2,0,-5,-5,-10,-8,-11,1
1532320785269,-1,-2,0,-3,-2,-1,9,1
1532320785274,1,-1,-2,0,-2,-5,-22,0
1532320785279,-1,0,4,4,6,1,-13,-2
1532320785284,1,0,3,6,6,1,9,8
1532320785289,-2,0,-4,0,6,2,11,-2
1532320785294,1,-1,-5,-3,-10,-6,-21,1
1532320785299,-1,-1,-4,-4,-4,-2,7,1
1532320785304,1,-1,0,-3,-2,-1,-37,3
1532320785309,0,-1,1,3,3,6,43,3
1532320785314,-3,0,3,3,8,2,6,-1
1532320785319,-1,-1,-2,-4,-6,-8,-20,-6
1532320785324,-2,-1,0,-2,-2,-1,9,0
1532320785329,-1,0,1,4,3,1,-25,1
1532320785334,1,1,-2,-6,-4,-6,-14,-4
1532320785339,1,0,-2,-3,-4,-4,-9,2
1532320785344,1,-1,-1,1,-1,1,53,-1
1532320785349,1,0,0,-2,3,0,-14,3
1532320785354,-2,-3,-3,-3,-3,-1,10,0
1532320785359,-4,-4,2,-2,-1,0,-5,-8
1532320785364,0,0,0,0,-3,2,-18,2
1532320785369,-5,-1,0,0,2,-1,13,-12
1532320785374,-1,-1,-1,-2,-2,0,-18,-1
1532320785379,0,1,-2,2,-3,-2,1,-4
1532320785384,-2,-3,-3,-5,-6,-4,-20,-1
1532320785389,2,-1,0,-1,-2,2,-2,1
1532320785394,-1,-2,0,4,9,3,-4,0
1532320785399,-2,-1,1,3,6,2,-12,2
1532320785404,0,-1,-5,-7,-8,-5,5,-5
1532320785409,-2,-1,-4,-9,-11,-8,-25,-4
1532320785414,-1,-1,-1,-2,-4,-6,14,-3
1532320785419,1,1,2,7,9,14,33,1
1532320785424,-2,0,1,4,6,3,4,-3
1532320785429,-1,-1,-4,-7,-6,-3,0,0
1532320785434,-3,-1,-1,0,-2,-7,-27,-3
1532320785439,0,0,0,0,1,9,72,4
1532320785444,-4,-1,0,0,1,-1,-10,-2
1532320785449,-1,0,0,2,4,0,0,-3
1532320785454,1,0,-1,0,-4,1,9,7
1532320785459,-1,-1,-4,-4,-3,-6,-25,-1
1532320785464,-1,-1,-1,-1,-2,-1,-8,-4
1532320785469,1,-1,0,2,4,0,6,6
1532320785474,1,0,1,4,4,2,9,-5
1532320785479,-1,-1,-2,-6,-9,-7,-8,-4
1532320785484,-2,-4,-4,-7,-9,-8,-21,-8
1532320785489,-1,-2,-1,-2,-5,-5,-5,-3
1532320785494,-1,-1,1,1,10,9,25,-4
1532320785499,-1,-2,2,6,5,-4,-7,-1
1532320785504,-1,0,-3,-3,-6,-2,1,-3
1532320785509,-1,-2,-3,-6,-5,-5,5,-2
1532320785514,-1,0,-1,-2,-1,-1,-9,3
1532320785519,-1,1,2,2,3,3,15,7
1532320785524,0,1,-1,0,1,0,12,4
1532320785529,0,-2,-1,-2,-2,-2,-2,7
1532320785534,0,1,0,1,-1,-1,-13,-1
1532320785539,-3,-2,0,0,2,-2,-11,-1
1532320785544,0,0,1,5,5,-1,3,-1
1532320785549,-1,-2,-2,-5,-5,-1,12,-9
1532320785554,-4,-3,-4,-7,-14,-9,-31,-15
1532320785559,-1,-3,-2,-6,-4,-1,17,-9
1532320785564,-1,-1,1,1,3,1,26,-3
1532320785569,-1,0,2,8,10,11,21,-7
1532320785574,-1,-3,-2,-3,3,-1,-1,-11
1532320785579,0,-2,-3,-5,-11,-5,-18,2
1532320785584,-3,-2,0,-1,-3,-9,-11,0
1532320785589,-1,1,-1,0,-1,-5,-6,11
1532320785594,0,1,1,-1,7,5,1,10
1532320785599,-1,-1,-4,0,-6,-1,37,1
1532320785604,-2,-3,-2,-4,-5,-1,-2,-6
1532320785609,-4,-1,0,-1,-4,-5,-24,-11
1532320785614,-2,-2,-1,5,3,-1,16,-3
1532320785619,3,1,3,4,9,5,-8,0
1532320785624,-2,-2,-4,-5,-1,0,-13,-7
1532320785629,3,-2,-3,-4,-11,-2,5,-9
1532320785634,-2,-1,-2,-4,-2,-4,-22,-16
1532320785639,-2,0,3,0,0,2,31,-24
1532320785644,-1,1,2,6,8,4,1,-8
1532320785649,0,1,-3,-2,0,3,19,0
1532320785654,-2,2,0,1,-5,-9,-14,17
1532320785659,4,1,-1,2,0,4,20,33
1532320785664,-5,-1,1,2,2,5,3,30
1532320785669,1,-2,-2,-3,2,-1,-25,13
1532320785674,4,-3,1,1,-1,4,38,6
1532320785679,-5,2,-6,-10,-11,-16,-62,0
1532320785684,0,-3,-1,-2,1,6,22,-3
1532320785689,3,2,2,6,5,5,14,20
1532320785694,1,-1,-1,-2,4,2,-7,10
1532320785699,-2,-1,-2,-1,2,0,-2,7
1532320785704,-2,-1,-2,-3,-11,-18,-47,0
1532320785709,-1,0,-2,-2,-7,0,16,3
1532320785714,3,1,1,3,3,10,46,3
1532320785719,-4,-1,3,5,8,1,-26,-3
1532320785724,2,0,-5,-4,-4,-3,-8,9
1532320785729,-3,-2,-1,-5,-5,-3,13,0
1532320785734,-3,-1,-2,-3,-1,-3,-23,13
1532320785739,1,-2,4,4,7,9,2,18
1532320785744,0,-1,-1,0,4,0,-5,-7
1532320785749,-2,0,-2,2,-1,-8,-38,-72
1532320785754,2,2,-1,-1,-6,12,79,-80
1532320785759,-1,-3,0,0,-2,-4,-13,-128
1532320785764,1,1,2,2,6,9,38,-62
1532320785769,-3,-1,2,4,8,5,-11,-10
1532320785774,-2,0,1,4,6,-2,-20,28
1532320785779,0,-2,-10,-18,-22,-16,-22,70
1532320785784,-1,-1,-2,-3,-9,4,9,48
1532320785789,1,-1,-2,-4,-4,-5,-2,47
1532320785794,-13,1,2,3,1,-3,-14,33
1532320785799,-4,-1,0,5,5,-7,-13,32
1532320785804,1,-1,0,-1,0,0,-4,16
1532320785809,1,-1,-2,-4,-2,-2,-7,19
1532320785814,0,-3,-1,-5,-4,-8,-16,15
1532320785819,-1,-1,0,-1,-1,-1,-9,12
1532320785824,-1,2,5,6,9,17,51,18
1532320785829,1,0,-4,-1,-1,-2,-3,19
1532320785834,0,-2,-4,-3,-6,-1,-3,-1
1532320785839,0,-1,-2,-4,-7,-6,-40,3
1532320785844,-2,-1,0,1,0,-1,27,-7
1532320785849,-1,0,2,2,5,8,8,0
1532320785854,0,1,-1,-3,0,3,-13,3
1532320785859,2,-1,0,-1,-1,-6,-10,-3
1532320785864,-4,-2,-2,-2,1,-7,-23,-6
1532320785869,-5,-1,0,-1,-2,-2,-1,-10
1532320785874,1,-2,-2,-1,-7,-10,-36,-6
1532320785879,-1,2,5,9,11,15,88,-1
1532320785884,3,1,-1,-1,5,0,10,2
1532320785889,-4,-3,-3,-10,-11,-5,-16,-2
1532320785894,-3,0,0,-2,-2,-2,-6,-16
1532320785899,1,-1,-1,-3,-4,1,0,3
1532320785904,-8,-2,3,5,5,-3,-31,-12
1532320785909,-2,-1,-2,-1,5,1,14,0
1532320785914,2,0,-4,-5,-11,-5,8,1
1532320785919,1,0,-2,-2,-1,0,-14,-4
1532320785924,2,1,0,-1,1,2,-10,1
1532320785929,-3,-1,1,2,8,0,-10,-9
1532320785934,-4,-1,0,2,-1,0,6,-5
1532320785939,5,0,-3,-4,-4,4,21,5
1532320785944,1,-1,-2,-4,-8,-5,-37,7
1532320785949,3,0,2,0,0,3,56,10
1532320785954,-4,-2,1,3,4,0,-2,-3
1532320785959,-4,-1,-3,0,0,-3,-13,-4
1532320785964,-1,0,-2,-4,-7,-8,-15,1
1532320785969,0,-1,-2,0,-4,-1,8,1
1532320785974,3,-3,-2,-3,1,-1,-10,3
1532320785979,-3,-2,2,2,1,-1,-2,-1
1532320785984,-1,0,-2,-1,-2,-2,13,2
1532320785989,0,1,-2,0,-5,-4,-17,-5
1532320785994,-2,0,3,6,8,4,3,-7
1532320785999,-4,-1,-3,-10,-1,-3,-16,-4
1532320786004,-1,-2,-4,-1,-9,-8,1,-2
1532320786009,0,0,1,1,-4,-2,-25,-3
1532320786014,4,0,0,0,4,1,-5,6
1532320786019,-4,-1,1,1,2,3,9,-5
1532320786024,3,0,0,0,3,2,-6,-2
1532320786029,2,-1,-1,1,1,-4,-13,11
1532320786034,-3,-1,-1,-3,-3,4,46,9
1532320786039,-2,0,-1,1,1,-3,-22,-12
1532320786044,-2,0,0,0,-1,-2,-3,-5
1532320786049,0,-2,2,1,2,0,-4,-9
1532320786054,-5,0,0,1,3,-3,-14,-2
1532320786059,-1,0,-3,-3,-6,-4,5,8
1532320786064,-3,-2,-3,-3,-3,0,11,-6
1532320786069,0,1,1,-1,-1,0,5,12
1532320786074,2,-1,1,0,3,-1,-3,-6
1532320786079,-1,-2,2,4,5,2,7,0
1532320786084,1,-2,-4,-2,-10,-5,-8,-7
1532320786089,-4,-1,-2,-6,-7,-1,-3,-13
1532320786094,1,-1,-3,-6,-7,-3,-3,-3
1532320786099,-1,0,1,2,3,1,-10,-2
1532320786104,2,-2,1,3,5,-3,-29,12
1532320786109,-1,0,0,5,5,6,76,7
1532320786114,0,-1,0,-2,-3,-2,-1,8
1532320786119,0,-3,-6,-6,-12,-7,-15,11
1532320786124,-1,-1,0,-2,1,4,23,5
1532320786129,-1,0,0,0,-1,-2,-25,-2
1532320786134,-1,-2,-2,-1,1,-3,-7,-3
1532320786139,3,-1,2,3,3,1,17,2
1532320786144,-2,-1,0,-1,-4,-4,-15,-6
1532320786149,1,-2,-1,-1,-1,-4,-16,-1
1532320786154,1,0,-1,-2,-3,0,2,-5
1532320786159,-1,-1,-2,-3,-2,-2,-14,-1
1532320786164,1,-1,0,-1,2,2,0,-1
1532320786169,-2,-3,-2,-1,-1,0,3,-6
1532320786174,0,0,-2,2,1,0,-5,9
1532320786179,1,-1,-2,-2,-2,1,1,5
1532320786184,-5,0,0,-2,-2,2,9,4
1532320786189,2,0,-4,0,0,-1,-6,2
1532320786194,2,-1,-2,-4,-5,-6,-12,8
1532320786199,0,0,0,1,2,6,7,17
1532320786204,-3,-1,1,2,4,2,3,10
1532320786209,-1,-1,1,4,6,2,-16,5
1532320786214,-5,-2,-1,-5,-8,-6,-5,-6
1532320786219,3,-1,-4,-3,-8,-4,-9,9
1532320786224,0,-1,0,0,-1,-1,0,97
1532320786229,-2,0,-2,0,2,-5,-24,49
1532320786234,1,2,2,2,5,7,17,127
1532320786239,1,2,0,1,3,2,8,-33
1532320786244,-1,-1,-2,-1,-6,-2,0,-99
1532320786249,-2,0,0,1,1,1,-7,-127
1532320786254,-1,0,-1,4,4,2,3,-100
1532320786259,3,-1,-4,-2,-2,3,18,42
1532320786264,-2,-2,-1,-2,1,0,-1,40
1532320786269,-4,-2,0,2,3,-1,0,17
1532320786274,0,1,-3,-2,-2,0,-3,-11
1532320786279,-2,-2,-1,-4,-6,-1,-2,-72
1532320786284,1,0,2,0,-1,-1,2,-112
1532320786289,0,-1,-2,2,4,2,7,-108
1532320786294,-1,-1,1,2,1,-1,-3,-72
1532320786299,-1,-1,1,-5,-4,-4,-5,-28
1532320786304,0,-1,-2,0,2,0,1,-36
1532320786309,-2,-1,0,0,-2,2,-16,-34
1532320786314,4,0,3,2,3,-1,4,-16
1532320786319,-2,-2,-5,-2,3,-2,-5,17
1532320786324,-1,-1,-1,-3,-8,-3,-4,2
1532320786329,-2,0,-4,-5,-10,-4,-1,-9
1532320786334,-1,-1,-1,0,0,0,5,15
1532320786339,0,-1,1,5,5,0,-2,50
1532320786344,-2,-1,-2,-1,2,0,-4,27
1532320786349,-1,-1,1,0,2,2,7,-7
1532320786354,2,-1,-7,-2,-4,-1,-7,-16
1532320786359,7,0,-2,1,1,-2,-21,1
1532320786364,0,-1,-1,2,1,1,-16,-6
1532320786369,0,-1,-1,-1,-1,-1,26,-3
1532320786374,-4,0,0,-3,-3,-2,0,-5
1532320786379,-4,0,-1,-6,-6,-4,-1,2
1532320786384,0,-1,0,-1,-2,-1,-6,-5
1532320786389,1,0,1,0,-1,0,-8,-4
1532320786394,2,0,0,1,7,-3,12,-8
1532320786399,-2,-2,-1,-2,-2,-1,-1,-8
1532320786404,-1,0,0,-1,-3,1,21,-9
1532320786409,0,-2,-6,-11,3,-4,-25,-11
1532320786414,0,-2,1,-1,-13,3,29,-2
1532320786419,-2,2,4,6,11,5,4,-2
1532320786424,0,-2,2,-4,-7,-3,0,8
1532320786429,-2,-1,-5,0,-1,-4,-7,3
1532320786434,-2,-2,-4,-4,-1,-5,-42,-5
1532320786439,0,2,-2,0,3,7,60,0
1532320786444,-2,0,-4,2,2,-1,-10,6
1532320786449,0,0,2,5,-2,3,10,-1
1532320786454,-2,-1,-2,-3,0,0,-7,-4
1532320786459,-1,-2,3,-3,-3,3,16,-9
1532320786464,0,0,-2,-2,1,-3,-9,-8
1532320786469,0,-1,-2,0,-4,-2,6,2
1532320786474,0,0,3,4,4,3,4,6
1532320786479,-2,-2,-1,-1,1,-5,-20,5
1532320786484,-2,1,-3,-6,-6,-1,-8,-4
1532320786489,3,0,0,2,-2,3,4,5
1532320786494,-2,-1,-4,-2,-6,-3,5,6
1532320786499,0,0,-1,4,0,-3,-5,-3
1532320786504,0,-1,-2,-6,-3,-9,-28,-2
1532320786509,-4,-1,1,-3,-3,-4,4,0
1532320786514,0,0,-1,4,6,4,7,4
1532320786519,-2,-1,-2,-4,-6,-4,-5,7
1532320786524,-2,-1,2,4,3,3,12,0
1532320786529,-2,-2,-2,-1,-5,-6,-19,-5
1532320786534,3,1,1,3,5,1,-9,5
1532320786539,-1,-4,-1,-5,0,-2,-15,-2
1532320786544,-2,0,-1,0,-6,-3,-11,-4
1532320786549,-1,0,0,4,6,3,9,2
1532320786554,-3,-1,0,0,-3,-2,3,-3
1532320786559,1,-1,-1,-2,-5,-2,-6,1
1532320786564,-1,-3,-4,-4,-3,-2,2,0
1532320786569,-1,-1,1,0,-4,-3,-2,4
1532320786574,-1,0,7,3,6,4,11,1
1532320786579,-2,-2,-7,2,6,3,2,2
1532320786584,-2,-3,-2,0,-7,-5,-9,3
1532320786589,2,3,-3,-7,-5,-5,-18,6
1532320786594,-3,-3,-2,-4,-8,-5,-7,4
1532320786599,-1,-2,3,1,3,5,2,6
1532320786604,0,-1,-3,2,1,3,12,4
1532320786609,-2,-2,2,4,14,1,-4,-4
1532320786614,0,0,-4,-5,-7,9,35,0
1532320786619,0,0,1,0,-8,-12,-13,-7
1532320786624,-1,-1,0,-3,5,-4,-35,-2
1532320786629,-1,1,3,1,-1,3,6,-2
1532320786634,-1,-1,-2,-3,3,-9,-29,-5
1532320786639,-1,0,-2,1,-2,2,-1,-2
1532320786644,-2,-2,3,0,3,1,16,-2
1532320786649,-1,-1,-4,1,0,-1,7,4
1532320786654,0,0,-3,-2,-3,0,7,1
1532320786659,-3,-1,-1,-6,-12,-5,-20,-4
1532320786664,2,1,0,-2,1,1,4,4
1532320786669,-1,-3,1,3,5,13,2,-3
1532320786674,0,-1,-3,-1,0,-5,4,2
1532320786679,0,-2,0,-1,-4,-5,-8,4
1532320786684,-1,0,-1,-3,-3,-13,13,4
1532320786689,1,-1,-2,-2,-3,-12,-18,5
1532320786694,-1,-2,1,-1,2,-7,-15,-1
1532320786699,-1,0,-2,-4,-1,28,14,2
1532320786704,0,-2,-1,3,0,10,33,-2
1532320786709,-2,-1,3,2,2,-2,-36,-5
1532320786714,1,0,0,3,7,-9,23,-1
1532320786719,-2,-2,-1,0,-1,-9,9,0
1532320786724,0,-3,-2,0,-1,1,-11,-1
1532320786729,-1,0,2,-2,-2,8,26,0
1532320786734,-3,-2,-3,-5,-9,-2,-20,-4
1532320786739,-3,-1,-1,-3,2,0,-2,1
1532320786744,-1,0,9,1,-3,-5,11,0
1532320786749,-1,0,-9,1,-3,-6,0,-3
1532320786754,0,1,-2,4,5,6,3,-1
1532320786759,-1,-2,-1,-2,0,1,5,0
1532320786764,-3,-1,-3,-7,-15,-7,-21,0
1532320786769,0,0,3,-5,-5,-7,-5,0
1532320786774,-2,-1,-1,0,6,8,-7,0
1532320786779,1,0,0,4,3,-6,6,1
1532320786784,1,-1,-1,1,4,6,9,1
1532320786789,-2,-2,-5,-4,-9,-8,9,2
1532320786794,-1,-1,-2,0,-1,-2,-15,-1
1532320786799,3,4,4,4,11,8,-4,-1
1532320786804,-1,-1,-6,-4,-4,-6,-6,-1
1532320786809,-2,0,-2,-3,-2,5,11,0
1532320786814,-2,1,4,-2,-6,-11,-12,-2
1532320786819,0,-1,-4,-2,0,1,8,0
1532320786824,-1,0,1,5,7,9,5,0
1532320786829,-1,-1,0,-4,-4,-3,-2,-2
1532320786834,-2,-3,-1,-1,0,6,4,-2
1532320786839,-1,-1,2,3,-1,-6,-13,8
1532320786844,2,1,-3,-4,2,5,14,-2
1532320786849,-3,-2,-1,-4,-5,-7,-2,-4
1532320786854,-1,-2,-1,3,3,9,6,-2
1532320786859,-1,-1,-2,-4,-12,-7,-1,0
1532320786864,0,0,2,4,6,-4,-29,-2
1532320786869,1,0,1,-3,-10,3,26,-1
1532320786874,-1,-2,-4,-8,-3,-10,-46,-4
1532320786879,-1,0,1,2,10,3,14,-7
1532320786884,1,0,-1,0,-2,-15,-21,2
1532320786889,-1,-2,-1,-1,-5,15,4,-1
1532320786894,1,0,-1,7,3,-38,-17,0
1532320786899,-2,-3,-1,-3,-10,13,10,0
1532320786904,-2,-2,-3,-6,-1,-2,-14,-2
1532320786909,1,-2,0,1,1,21,52,3
1532320786914,0,0,0,0,8,2,-7,0
1532320786919,-1,-2,-1,-4,-6,-19,-18,-2
1532320786924,-2,0,3,1,2,0,20,-3
1532320786929,-3,0,1,-1,-4,-2,-18,0
1532320786934,-1,-1,-4,-4,-6,7,22,-6
1532320786939,0,-1,-1,-1,1,-6,-4,8
1532320786944,-1,-1,-1,0,-3,8,0,-3
1532320786949,0,1,-1,2,7,-8,-8,2
1532320786954,2,2,8,1,1,10,14,0
1532320786959,-1,-2,-7,0,3,-3,-15,-4
1532320786964,-4,-6,5,3,-4,1,12,1
1532320786969,2,2,-32,-3,13,0,-3,1
1532320786974,-3,-7,-2,-4,-14,-1,4,0
1532320786979,-1,7,9,-1,-1,0,-2,-1
1532320786984,-2,0,-18,0,2,-1,5,1
1532320786989,0,-1,30,0,-1,-9,-16,-1
1532320786994,0,3,3,1,-1,6,2,0
1532320786999,-3,-2,-8,1,3,0,2,0
1532320787004,2,-1,4,-3,-2,2,5,-5
1532320787009,-4,-1,-2,4,2,-20,-27,-5
1532320787014,-2,-2,-10,-10,-9,18,11,0
1532320787019,0,-1,7,0,5,15,14,-2
1532320787024,2,0,-4,-1,-11,-20,-19,2
1532320787029,-1,-2,1,0,-1,2,-4,-6
1532320787034,0,1,2,3,1,-9,-8,7
1532320787039,-3,-3,-8,-5,-4,-7,17,-4
1532320787044,0,0,1,-1,10,6,2,1
1532320787049,-4,-2,-3,-3,-4,17,-26,-1
1532320787054,3,3,6,10,14,27,38,5
1532320787059,0,-2,2,3,6,1,-22,-4
1532320787064,-2,-1,-2,-9,-30,-36,6,3
1532320787069,1,-2,1,-6,-11,-21,9,-1
1532320787074,-1,-2,-4,-4,-7,10,3,0
1532320787079,0,0,2,-1,1,8,-2,1
1532320787084,1,-2,3,4,9,17,5,-2
1532320787089,0,-1,0,4,10,1,4,0
1532320787094,-3,0,-1,1,-1,-3,-5,0
1532320787099,0,0,-8,1,-6,-12,5,1
1532320787104,-5,-2,-1,-5,-1,5,-9,-4
1532320787109,-2,0,-9,-2,-3,-6,-3,-1
1532320787114,-1,9,15,4,4,-5,1,0
1532320787119,-1,-15,-7,2,-1,-1,-13,-4
1532320787124,-2,-4,0,0,1,2,6,-2
1532320787129,0,4,5,1,2,3,-1,2
1532320787134,-3,-1,-10,-5,-4,-10,-8,-5
1532320787139,0,4,4,-4,-5,-6,-2,3
1532320787144,1,-1,-5,1,4,7,2,1
1532320787149,0,-3,1,2,2,1,4,1
1532320787154,-2,-4,-2,-1,-1,-3,-7,-5
1532320787159,-2,1,-1,-6,-7,-7,-4,-2
1532320787164,-3,-2,-2,-2,2,3,4,-2
1532320787169,1,1,4,2,11,15,9,4
1532320787174,-4,-3,-2,-3,20,-3,14,-3
1532320787179,-2,-1,-3,-7,-44,-17,-12,-2
1532320787184,-2,2,3,-3,-12,-4,26,2
1532320787189,-1,-1,-2,-1,-1,-5,-20,-3
1532320787194,-3,-4,-4,8,44,70,-17,-3
1532320787199,3,2,3,2,-17,-36,17,1
1532320787204,0,0,2,0,4,-8,-5,0
1532320787209,-1,1,1,-1,-13,-32,-9,-3
1532320787214,4,0,-6,-5,-8,-14,3,4
1532320787219,-3,0,0,5,22,5,-16,-5
1532320787224,-1,1,0,-1,-3,10,-9,-4
1532320787229,0,-2,-4,-1,-4,5,21,3
1532320787234,1,-1,1,-6,-19,-17,-12,2
1532320787239,-1,3,6,0,11,11,-7,-4
1532320787244,0,2,-8,7,3,-1,4,2
1532320787249,0,-3,-26,-6,8,13,-1,-4
1532320787254,-2,-5,35,8,-11,-17,-2,-1
1532320787259,-1,8,5,-6,3,9,4,0
1532320787264,0,1,2,-1,4,5,3,-1
1532320787269,0,-1,-10,3,-2,-2,-5,0
1532320787274,1,-4,-17,-4,-7,-11,-7,0
1532320787279,0,-2,7,1,5,1,9,-3
1532320787284,0,1,5,-2,-1,-4,-10,0
1532320787289,0,1,4,-2,-8,-3,-4,-2
1532320787294,0,-2,-4,-3,-9,-12,2,-1
1532320787299,0,-3,-4,3,11,3,12,0
1532320787304,-1,-1,-1,-1,14,30,7,-3
1532320787309,1,-3,5,-1,-13,-7,4,4
1532320787314,1,3,-2,3,30,-19,-38,-5
1532320787319,0,-1,-5,-8,-42,1,-28,0
1532320787324,-2,-3,-5,2,2,-7,4,4
1532320787329,-2,-2,7,-1,0,-3,71,0
1532320787334,4,3,-1,1,1,26,-20,2
1532320787339,1,-1,-2,-1,6,-28,-21,-2
1532320787344,1,0,1,2,0,-16,-61,-5
1532320787349,-3,-1,4,0,-9,-5,-9,-3
1532320787354,-3,-1,-5,-3,-1,1,20,0
1532320787359,-2,-5,-4,1,13,40,31,-1
1532320787364,2,-1,1,-4,-11,-6,4,7
1532320787369,-1,-2,2,3,15,7,-20,-5
1532320787374,0,4,6,-3,-11,0,19,2
1532320787379,-1,-33,-40,-1,4,4,-2,-1
1532320787384,1,30,5,-2,1,-5,7,-2
1532320787389,0,9,54,9,4,3,-10,1
1532320787394,0,-7,-39,-11,-13,-3,2,-3
1532320787399,-1,7,5,2,-1,-15,-2,0
1532320787404,-2,-11,-11,0,1,0,5,-2
1532320787409,-2,-5,-6,-4,0,8,-5,0
1532320787414,-1,9,7,0,-12,-13,4,-1
1532320787419,-1,-3,3,-6,8,-1,-3,1
1532320787424,-1,-6,-6,-4,-4,7,9,0
1532320787429,-1,4,-6,-2,6,22,14,-1
1532320787434,-2,-5,5,0,-16,-25,-27,-2
1532320787439,-1,3,-4,4,14,-25,-25,-6
1532320787444,2,-4,10,6,4,2,-16,0
1532320787449,-2,-1,-13,3,-1,13,-2,2
1532320787454,1,-3,-8,-13,-32,-14,31,4
1532320787459,-2,3,9,-5,-10,-22,1,-1
1532320787464,-2,-2,-1,0,0,-25,-28,-5
1532320787469,0,-4,-11,4,8,-3,-17,-1
1532320787474,-2,-2,1,2,15,21,17,0
1532320787479,1,4,1,3,4,15,9,3
1532320787484,-2,-6,-4,-5,-7,2,12,-3
1532320787489,2,-2,-7,-5,-7,0,3,0
1532320787494,-2,-7,-3,-1,-1,2,0,-4
1532320787499,-1,4,10,-2,-3,4,4,0
1532320787504,-2,-1,-1,1,4,10,10,-1
1532320787509,-1,-2,-9,-1,-2,-9,-10,-2
1532320787514,0,0,7,0,-4,-10,-6,-1
1532320787519,-2,-1,1,0,6,9,0,-3
1532320787524,-2,-2,0,-1,-1,7,9,2
1532320787529,-1,-1,-1,-6,-2,-12,-11,-1
1532320787534,-2,0,-4,3,4,-3,1,0
1532320787539,1,3,-1,1,10,3,4,-4
1532320787544,-1,-1,3,-3,-6,9,1,6
1532320787549,0,-1,-5,-8,-14,7,32,0
1532320787554,-2,-1,0,-1,2,-18,-51,-4
1532320787559,-1,1,6,4,4,-2,-6,-1
1532320787564,-1,-2,-5,-5,-18,-22,-9,-3
1532320787569,1,1,-1,4,14,2,-3,0
1532320787574,-2,-1,-4,-6,-14,-1,-2,-1
1532320787579,1,0,-4,-6,-13,4,10,1
1532320787584,1,-2,0,0,4,4,4,-4
1532320787589,-2,-2,1,-4,-7,12,31,2
1532320787594,3,4,8,4,8,-13,-37,-2
1532320787599,0,0,-5,0,2,0,-10,0
1532320787604,0,-3,-4,-6,-4,6,12,-1
1532320787609,-2,-2,0,2,2,-4,-6,-4
1532320787614,-2,1,-1,3,6,16,25,2
1532320787619,0,-3,0,0,-6,3,5,0
1532320787624,-1,1,2,1,5,-2,4,0
1532320787629,-2,-3,-4,-7,-8,-13,-29,-1
1532320787634,-2,-2,0,2,1,7,33,2
1532320787639,0,-1,-3,-3,4,8,-3,1
1532320787644,1,0,0,0,-10,-6,4,-2
1532320787649,1,0,-3,-1,6,1,-10,-1
1532320787654,-1,0,-2,-3,-8,4,17,-2
1532320787659,0,0,0,-1,-1,-1,-4,3
1532320787664,-1,-2,-1,-2,2,6,11,-1
1532320787669,-1,1,3,2,-1,-28,-39,-6
1532320787674,0,-3,-1,3,5,2,-5,-1
1532320787679,-1,0,0,-1,1,8,16,-1
1532320787684,-3,-2,-2,-3,-4,7,8,0
1532320787689,-2,-1,0,-2,-8,-4,6,0
1532320787694,0,1,-2,-2,1,-5,6,-1
1532320787699,-1,0,-3,-2,-5,-6,-2,-1
1532320787704,0,0,2,6,8,6,-1,-2
1532320787709,-1,-3,-3,1,3,4,-13,-2
1532320787714,0,-1,-2,-1,-3,-15,-17,-3
1532320787719,-1,-3,-5,-6,-4,1,5,-2
1532320787724,0,-1,-1,4,2,-9,-18,-1
1532320787729,0,0,0,-4,2,3,6,1
1532320787734,0,-3,0,2,5,12,3,0
1532320787739,-3,-3,-1,0,-2,-11,-5,1
1532320787744,1,-2,-1,-4,-12,0,8,-1
1532320787749,2,1,0,-2,-7,-1,-6,1
1532320787754,1,-1,-1,-2,-2,-1,-5,-2
1532320787759,0,-1,2,3,2,2,6,-7
1532320787764,-2,-4,1,1,8,3,0,4
1532320787769,0,-1,-4,3,6,9,12,4
1532320787774,-2,-1,-4,-10,-20,-4,-10,-2
1532320787779,0,1,1,1,-1,-26,-63,-3
1532320787784,1,-1,-3,3,4,3,67,0
1532320787789,-1,0,2,0,-2,-3,-3,-3
1532320787794,-1,0,1,2,11,19,26,3
1532320787799,-2,-2,-2,-2,-3,-4,5,-4
1532320787804,-1,1,0,3,15,27,-22,-2
1532320787809,1,-2,-6,-4,-16,-19,11,2
1532320787814,2,3,1,-5,-11,-4,9,6
1532320787819,-1,0,-1,-3,-8,-4,-10,-1
1532320787824,-1,-2,-1,-1,5,5,8,1
1532320787829,-1,0,1,3,7,-17,-39,-6
1532320787834,-1,-2,0,1,7,-6,-14,-4
1532320787839,0,1,-1,-4,-8,6,13,1
1532320787844,-3,-2,-3,-4,0,-3,-3,-1
1532320787849,-4,-5,0,-1,-7,9,8,-3
1532320787854,0,1,-1,1,-2,-7,-9,0
1532320787859,2,-1,1,5,9,14,12,5
1532320787864,-2,1,-1,-2,-5,-6,-12,-3
1532320787869,0,0,0,-6,-5,-9,-1,-6
1532320787874,-1,0,0,1,0,1,6,4
1532320787879,1,-1,2,1,4,3,11,4
1532320787884,0,-2,-3,-3,0,-14,-14,-1
1532320787889,1,0,0,-3,3,16,12,3
1532320787894,-2,-2,1,3,4,-4,-12,-5
1532320787899,-5,-3,-4,-1,-10,4,-1,-1
1532320787904,2,0,0,0,-2,-21,-4,0
1532320787909,0,-1,0,-1,-4,-4,25,1
1532320787914,-3,-2,-1,2,0,-12,-13,-4
1532320787919,1,0,-1,-2,-7,16,12,3
1532320787924,1,0,0,1,-1,-5,-27,-3
1532320787929,-2,-1,1,0,0,4,-1,0
1532320787934,-3,0,0,0,18,23,5,-7
1532320787939,0,0,-2,-2,15,-26,1,5
1532320787944,0,1,4,-4,-19,16,7,2
1532320787949,1,0,-1,1,9,13,5,3
1532320787954,0,0,-1,-1,-12,-19,-27,0
1532320787959,-4,-1,0,1,9,3,6,-8
1532320787964,-1,1,-1,2,18,10,-2,0
1532320787969,-1,-1,-1,-2,-17,-19,-7,1
1532320787974,-1,-1,0,2,5,10,29,1
1532320787979,0,-1,-1,-6,-9,-3,3,-3
1532320787984,-3,0,-2,-10,-15,7,10,-1
1532320787989,-1,0,0,3,-3,-22,-38,-4
1532320787994,-2,-3,-3,-2,-14,-4,-5,-1
1532320787999,-2,0,0,-2,-12,-1,13,-7
1532320788004,-2,-2,1,1,-2,-16,-13,9
1532320788009,-1,0,1,3,16,18,9,-4
1532320788014,0,0,-1,-1,-1,-3,-5,1
1532320788019,0,0,1,0,-4,-7,-2,0
1532320788024,-4,-2,-3,-2,8,15,0,-7
1532320788029,2,-2,0,-3,-10,-8,6,-1
1532320788034,3,1,0,3,8,-4,6,1
1532320788039,-1,-1,1,2,4,16,14,1
1532320788044,-2,-3,-4,-3,-3,-19,-19,-3
1532320788049,-3,1,0,-3,4,-6,-31,-2
1532320788054,-2,-2,0,-5,-12,3,14,-2
1532320788059,-1,-2,0,1,6,7,-10,0
1532320788064,0,-2,-4,0,-15,-4,21,0
1532320788069,-2,-2,-3,1,-3,-5,-2,-3
1532320788074,-1,-2,-2,-1,9,1,-12,-1
1532320788079,0,1,4,2,2,10,16,-2
1532320788084,1,-1,-2,-4,-7,-4,4,2
1532320788089,0,-1,1,2,9,-1,-10,-1
1532320788094,-1,0,0,-1,-6,-12,-2,-5
1532320788099,-1,0,-1,-2,3,1,2,0
1532320788104,-3,-1,-2,-4,0,-17,-9,-4
1532320788109,-1,-2,-1,-3,0,16,5,1
1532320788114,1,0,-2,-3,-3,-5,17,3
1532320788119,-1,-2,0,1,-2,2,-17,-1
1532320788124,-1,0,0,3,9,8,-1,-2
1532320788129,-1,0,-3,-5,-13,-1,5,0
1532320788134,-1,-1,0,0,0,-5,-8,-1
1532320788139,-1,-3,-3,-4,-4,0,11,-2
1532320788144,1,0,0,3,0,7,0,1
1532320788149,-1,-1,2,2,6,2,-5,-6
1532320788154,0,-1,-1,-1,0,4,4,6
1532320788159,0,-2,-1,-2,-4,-7,-10,-1
1532320788164,0,-2,-2,0,2,3,0,-2
1532320788169,0,0,-3,1,7,5,-6,2
1532320788174,-1,0,1,0,-8,-16,3,-3
1532320788179,-1,-2,0,-1,2,5,16,0
1532320788184,-1,-1,-3,-3,-3,7,-8,5
1532320788189,2,2,0,4,5,-12,1,-2
1532320788194,-4,0,-1,-2,0,-1,-9,-7
1532320788199,-2,0,1,1,3,0,-2,0
1532320788204,0,0,1,-2,-7,-8,19,3
1532320788209,-3,-2,-5,-7,-9,12,-6,2
1532320788214,-1,-1,-1,3,1,-1,-9,-11
1532320788219,-1,0,-1,-5,-5,1,12,7
1532320788224,0,0,1,8,13,10,-16,-5
1532320788229,-2,-2,-2,-2,-6,-17,-2,-2
1532320788234,2,-1,-2,-7,-14,-11,25,10
1532320788239,-2,-1,2,-2,-1,3,-12,-7
1532320788244,0,-1,-2,-2,1,8,5,1
1532320788249,0,0,1,3,11,-10,-13,-2
1532320788254,-2,1,0,1,1,4,-4,-3
1532320788259,0,1,0,1,-6,-14,10,4
1532320788264,-2,-3,-3,0,-3,-11,-19,-8
1532320788269,-2,0,2,-2,1,20,5,-4
1532320788274,4,-1,-1,0,-6,-4,-7,-1
1532320788279,-1,-1,1,4,11,9,6,9
1532320788284,-1,0,-3,-5,-10,-15,-11,-4
1532320788289,-5,-3,-3,-6,-13,6,11,-10
1532320788294,-2,-1,1,-4,-5,-8,-13,2
1532320788299,-1,-3,-5,-4,4,7,-4,-5
1532320788304,-1,0,0,-2,-1,7,8,-1
1532320788309,2,1,0,1,-8,-10,-5,11
1532320788314,1,-1,1,4,10,23,24,0
1532320788319,1,-1,-3,-1,3,-7,-4,-3
1532320788324,-1,1,-1,1,0,-17,-9,-1
1532320788329,2,-3,-2,-1,-2,4,-5,1
1532320788334,-1,-1,-1,0,9,6,-16,-1
1532320788339,-2,-1,-4,-5,-11,4,3,-1
1532320788344,-1,0,-1,4,10,12,8,1
1532320788349,0,-2,-3,4,2,-4,9,3
1532320788354,-1,-2,-4,-5,-2,-3,-9,2
1532320788359,-2,-1,0,1,5,-1,-10,-4
1532320788364,-1,0,-1,-2,-8,-1,-1,0
1532320788369,-2,-2,-2,-3,3,-5,8,0
1532320788374,0,0,0,0,-4,-17,-13,-5
1532320788379,0,0,-3,-5,-7,-5,-2,-1
1532320788384,-2,-2,0,-4,-2,7,-3,0
1532320788389,0,1,1,1,0,-1,3,-2
1532320788394,0,-1,1,4,8,3,6,-1
1532320788399,0,2,0,1,-1,0,-9,-1
1532320788404,0,0,1,-2,-3,6,12,-1
1532320788409,-1,0,-2,-2,-5,-9,-13,-3
1532320788414,-2,-1,-1,-1,1,-2,-6,-2
1532320788419,-2,-2,-3,1,2,-1,15,-1
1532320788424,-1,-1,1,-2,-2,-1,-6,1
1532320788429,0,0,-3,0,2,-9,-14,-1
1532320788434,0,0,-3,-1,-2,-1,-10,-2
1532320788439,-1,-1,1,1,4,7,7,-1
1532320788444,-1,-3,-1,0,5,5,9,2
1532320788449,-1,0,1,-1,-3,-2,-6,1
1532320788454,0,0,0,-2,0,3,11,0
1532320788459,-1,-2,-2,-2,-6,-5,-7,-3
1532320788464,-1,1,0,-2,-2,-6,-7,-1
1532320788469,-1,-1,3,2,4,4,15,0
1532320788474,-1,-2,-1,2,4,-11,2,-1
1532320788479,-2,0,-2,-3,-10,3,5,-2
1532320788484,0,0,-2,-5,-6,2,-5,1
1532320788489,1,0,0,-4,-2,0,-1,0
1532320788494,-2,-1,-2,1,1,2,0,-3
1532320788499,-1,-2,0,6,10,-3,-8,0
1532320788504,-1,-2,0,2,-2,-4,-3,1
1532320788509,-2,-2,-2,-8,-6,-3,12,-6
1532320788514,1,-1,-1,-1,-5,0,-1,4
1532320788519,-1,-1,2,1,3,-3,-21,-4
1532320788524,-2,-1,0,0,2,6,26,-2
1532320788529,1,0,-3,-4,-3,4,7,6
1532320788534,0,-1,1,-2,-5,-19,-34,-6
1532320788539,-1,0,-3,-1,-5,1,2,-1
1532320788544,-2,-1,-1,-2,2,-8,-19,-3
1532320788549,0,-1,0,3,3,27,41,10
1532320788554,1,3,4,2,1,-22,12,-3
1532320788559,-1,0,-1,1,12,13,3,2
1532320788564,-1,-2,-3,-7,-36,-26,-3,0
1532320788569,0,0,-1,0,5,-1,-3,-2
1532320788574,-2,-1,-2,-2,6,13,-2,1
1532320788579,0,-1,-1,-2,-15,2,5,1
1532320788584,0,0,-2,-6,-9,-10,-3,-4
1532320788589,-1,-2,-2,3,2,1,-12,-3
1532320788594,0,0,-2,0,-8,-1,5,-2
1532320788599,-2,0,1,0,1,-16,-20,-2
1532320788604,0,-3,0,5,15,19,-3,-3
1532320788609,-1,-2,-4,1,1,-9,-21,-2
1532320788614,-2,-2,-2,-3,-6,2,7,1
1532320788619,2,0,2,1,-1,3,7,0
1532320788624,0,-2,-2,2,2,6,8,2
1532320788629,-1,-2,-1,-3,-1,-14,-22,-5
1532320788634,0,-1,-2,-3,-2,2,-18,-2
1532320788639,-2,0,-2,-2,-2,-9,-12,-5
1532320788644,-1,0,-2,2,6,11,28,2
1532320788649,-1,1,-1,-2,-5,-9,-13,1
1532320788654,-3,0,0,0,-2,3,-4,-1
1532320788659,1,-2,-6,-2,0,-3,-1,0
1532320788664,1,-7,4,2,8,4,-23,-1
1532320788669,0,9,-1,-1,-4,2,20,-2
1532320788674,-1,-2,0,-2,-3,1,0,0
1532320788679,0,2,0,1,-2,-7,0,-1
1532320788684,-1,0,-2,-3,-2,2,11,1
1532320788689,-1,-2,0,-1,-1,-4,-9,1
1532320788694,-1,-1,0,-4,1,7,1,-2
1532320788699,-2,-1,0,-3,-6,-5,7,-1
1532320788704,-2,1,-1,1,-2,0,-2,-1
1532320788709,-1,-1,2,4,4,-13,-20,-4
1532320788714,0,-1,-2,1,4,1,3,-1
1532320788719,-2,-2,-4,-4,-3,-2,3,-2
1532320788724,-1,-6,-2,-2,1,11,19,1
1532320788729,0,4,2,0,-1,-4,-12,-1
1532320788734,-1,0,2,3,3,-1,-4,0
1532320788739,-1,-1,0,-3,3,14,21,3
1532320788744,-1,3,-6,-2,-2,-2,-21,-2
1532320788749,-2,-2,4,-6,-7,-9,-44,-5
1532320788754,-1,-2,1,1,0,11,79,5
1532320788759,-1,-8,-2,3,0,-9,-22,-2
1532320788764,0,8,6,4,7,0,8,-1
1532320788769,-1,-3,-6,-6,-5,11,25,2
1532320788774,-1,1,-1,0,-3,-4,-40,-2
1532320788779,0,1,1,-1,-2,0,7,0
1532320788784,0,-1,-1,1,2,0,-6,-1
1532320788789,-1,-3,-2,3,1,-2,4,-1
1532320788794,0,4,4,0,6,3,-9,-4
1532320788799,0,-6,-7,0,2,7,23,2
1532320788804,0,-1,-2,-2,-6,-13,-20,-1
1532320788809,-2,-1,1,0,-3,1,0,1
1532320788814,1,-1,-4,-2,-2,-2,-4,0
1532320788819,-1,2,4,5,1,0,-2,-4
1532320788824,0,1,1,2,7,-6,4,-1
1532320788829,-1,-3,-4,-5,3,2,10,0
1532320788834,-2,-4,-5,-5,-12,11,4,2
1532320788839,-1,-1,0,-3,-1,-8,-3,-4
1532320788844,0,0,5,0,-6,-4,-3,0
1532320788849,0,-2,-6,3,2,-4,12,-2
1532320788854,-1,-1,1,0,3,1,-4,0
1532320788859,0,2,0,-1,0,-6,-23,-3
1532320788864,-2,-3,-4,-4,-7,3,1,-3
1532320788869,0,0,2,1,5,-3,2,-1
1532320788874,1,-1,-4,-1,1,3,11,3
1532320788879,0,4,4,0,-2,-3,-7,-2
1532320788884,-2,-8,-8,-5,-2,-6,-2,-3
1532320788889,1,-1,3,1,0,10,1,6
1532320788894,-2,-2,-4,5,2,-2,-1,-3
1532320788899,0,0,2,-5,0,-9,-6,1
1532320788904,-1,1,-2,-4,-4,-5,-8,-3
1532320788909,-3,-2,2,-2,-5,0,-1,-2
1532320788914,-1,0,1,0,7,8,8,-1
1532320788919,2,0,2,2,-3,8,10,6
1532320788924,1,1,-1,-2,-8,-17,-38,0
1532320788929,-1,0,-3,1,-1,-2,5,1
1532320788934,0,0,1,-3,-11,-10,-10,-5
1532320788939,-3,-2,0,-1,0,-3,25,-4
1532320788944,-2,0,0,3,10,32,30,6
1532320788949,-1,-2,-4,-1,-8,-9,-18,-1
1532320788954,0,0,1,-1,0,-10,-5,-4
1532320788959,-5,-3,-3,-4,-7,-3,-21,-10
1532320788964,2,-1,4,4,13,6,11,8
1532320788969,-1,-1,-1,4,15,-1,4,-5
1532320788974,-1,1,-1,-5,-11,-6,-15,1
1532320788979,-2,-2,-2,-3,-9,6,-9,-1
1532320788984,-2,0,-1,1,5,13,35,-3
1532320788989,1,6,4,6,5,-13,-13,2
1532320788994,0,-6,-4,-5,7,3,-9,1
1532320788999,-1,-2,-1,-1,-3,3,8,0
1532320789004,-4,-2,-2,-6,-14,-20,-18,-12
1532320789009,-2,-3,0,-1,6,12,-3,-1
1532320789014,-1,1,0,-2,-5,1,5,0
1532320789019,1,-1,-2,-3,-3,-5,-3,1
1532320789024,1,0,1,0,0,7,-9,2
1532320789029,0,-3,-1,-2,-12,-4,29,0
1532320789034,0,0,0,6,11,7,-2,0
1532320789039,-1,-2,-3,-5,0,-14,-20,-3
1532320789044,1,0,1,2,2,-6,0,-1
1532320789049,-2,0,2,-5,-8,-8,-1,-4
1532320789054,-3,-2,-3,2,-4,5,4,0
1532320789059,-1,-1,-2,1,16,13,-17,-2
1532320789064,-2,-3,-5,-9,-8,-10,-4,4
1532320789069,-3,-3,-1,-2,2,5,10,-4
1532320789074,0,0,0,2,3,-12,-21,-1
1532320789079,-1,1,4,7,13,9,10,2
1532320789084,-1,0,3,4,-8,-17,-1,-5
1532320789089,1,-4,-10,-8,-13,-7,-7,2
1532320789094,-2,-1,-1,-9,-11,-1,3,-2
1532320789099,-1,-1,-1,-1,-6,9,8,-1
1532320789104,-2,-1,3,4,18,20,16,0
1532320789109,-2,-1,-2,0,6,-20,-42,-9
1532320789114,-2,-1,-3,-3,-24,-17,-4,-4
1532320789119,0,2,1,3,0,-1,0,3
1532320789124,0,-3,-3,1,9,21,8,1
1532320789129,1,-1,3,6,-1,3,11,1
1532320789134,2,0,-1,-4,1,-14,-12,4
1532320789139,-2,-4,-2,-7,-3,2,-14,-4
1532320789144,1,-1,-2,-2,-19,-25,10,-1
1532320789149,-1,0,-1,1,7,11,3,1
1532320789154,-2,-1,-2,1,10,7,5,-1
1532320789159,-1,-1,-3,-4,-8,0,4,2
1532320789164,-1,2,2,2,8,10,-18,-3
1532320789169,-2,0,-1,-4,1,-8,11,-1
1532320789174,0,-2,-1,-7,-26,-21,-22,-2
1532320789179,-1,1,-1,1,1,7,1,-1
1532320789184,-1,-1,0,6,15,10,16,1
1532320789189,-1,0,0,2,2,3,7,-3
1532320789194,2,0,-4,-4,-2,-12,0,2
1532320789199,-1,-1,-1,-8,-11,-1,-6,-2
1532320789204,-3,-2,-4,-1,0,0,-4,-4
1532320789209,0,-1,-1,-1,-5,-13,-12,-1
1532320789214,-1,-1,2,3,4,17,20,2
1532320789219,1,0,0,1,5,9,-11,2
1532320789224,-1,0,0,-1,1,11,16,3
1532320789229,2,-1,-1,-1,-7,-10,-4,2
1532320789234,-1,-1,-2,-4,-1,-4,-9,-2
1532320789239,-1,-2,-2,-4,-7,-5,-2,-1
1532320789244,-1,-2,0,3,5,2,2,-4
1532320789249,1,0,2,3,5,6,10,4
1532320789254,-1,0,1,-1,-2,-3,-18,-5
1532320789259,-2,-1,-2,1,17,9,4,-4
1532320789264,3,0,-4,-7,-12,10,22,5
1532320789269,0,1,-1,-5,-6,-3,-20,0
1532320789274,-1,-2,-1,-4,-4,-1,12,-3
1532320789279,-1,0,2,3,-1,5,0,-5
1532320789284,-1,-1,2,5,20,16,7,3
1532320789289,0,-1,-3,-2,-10,-31,-47,-7
1532320789294,-1,0,-3,-3,-2,3,1,0
1532320789299,-1,0,-1,-2,-9,-8,-3,1
1532320789304,1,-1,1,3,6,-2,-3,-1
1532320789309,-2,-2,0,3,7,11,11,3
1532320789314,-4,0,0,2,2,-2,-12,-8
1532320789319,2,0,-5,-5,-4,-11,24,9
1532320789324,-5,-3,-4,-9,-22,-7,-3,-6
1532320789329,1,1,1,-1,1,-17,-19,1
1532320789334,-2,-2,-1,1,2,-6,-4,-5
1532320789339,-2,-1,2,6,10,-5,-14,-3
1532320789344,1,1,1,-2,-2,15,14,1
1532320789349,-4,-2,-4,-6,-5,10,13,-11
1532320789354,2,-1,-4,-10,-15,-14,9,11
1532320789359,1,1,3,6,4,-6,-19,-3
1532320789364,0,1,2,4,6,-8,-8,-1
1532320789369,0,-1,0,-4,-7,2,12,0
1532320789374,-1,0,1,7,10,14,-1,1
1532320789379,-3,-4,-1,-7,-16,-22,-4,-6
1532320789384,0,-1,-1,-4,-12,-13,-6,-3
1532320789389,0,-1,0,4,13,17,22,3
1532320789394,-2,-1,-2,-4,-1,-7,4,-1
1532320789399,1,-1,-2,-1,7,29,-1,-1
1532320789404,-3,-2,3,4,5,-5,-30,-4
1532320789409,-1,-2,-3,3,11,-10,-1,-1
1532320789414,3,0,-1,-2,-10,-11,5,3
1532320789419,-3,0,0,2,-5,11,18,-3
1532320789424,-2,-2,-2,-3,3,8,7,-2
1532320789429,2,1,1,5,8,2,-13,1
1532320789434,-4,-2,1,-3,-9,-6,-3,-3
1532320789439,-2,1,-1,0,7,-8,-2,-2
1532320789444,-1,-1,-1,0,1,-2,-2,-1
1532320789449,-1,-1,0,-1,-7,-7,14,0
1532320789454,-1,-1,-2,1,6,11,-13,-4
1532320789459,3,0,-2,-1,-5,12,16,6
1532320789464,-1,0,0,1,6,-22,6,-2
1532320789469,-1,-1,-2,-4,-3,20,-4,-1
1532320789474,1,0,2,-2,-1,1,-1,-4
1532320789479,-1,-3,-3,-2,-7,-3,-11,0
1532320789484,0,1,2,0,4,-2,5,-1
1532320789489,-1,-2,0,-1,-5,-1,6,-1
1532320789494,-1,1,0,0,-2,1,3,-2
1532320789499,1,0,-3,-2,1,-3,-2,2
1532320789504,0,-2,-2,0,2,4,-5,-4
1532320789509,0,-1,-5,-4,-2,-4,0,1
1532320789514,-2,-2,-2,0,7,8,12,-2
1532320789519,-1,0,3,-1,-8,-6,-26,-3
1532320789524,-1,-1,-3,-1,-4,-4,-4,-1
1532320789529,0,-1,1,0,-1,0,3,2
1532320789534,-1,0,-1,-2,-2,-6,-4,1
1532320789539,0,-2,-2,-2,-3,6,5,0
1532320789544,-1,0,-1,0,-1,3,0,-1
1532320789549,-1,0,-1,-3,-5,-7,-2,-2
1532320789554,0,0,-1,-1,0,0,-15,-1
1532320789559,-3,0,4,3,2,0,-1,-1
1532320789564,-1,-3,-5,-5,-7,4,24,0
1532320789569,1,1,0,-2,-3,-11,-15,1
1532320789574,-1,-2,1,0,-2,-2,-2,-6
1532320789579,0,0,-4,3,6,1,-3,4
1532320789584,0,-1,1,5,6,3,1,0
1532320789589,0,-2,-2,-7,-16,-7,-8,-3
1532320789594,-1,-2,-1,2,7,-1,8,5
1532320789599,-2,-3,0,-4,-4,-3,5,-3
1532320789604,-3,1,2,2,6,7,-20,-5
1532320789609,1,1,-1,-1,2,13,48,8
1532320789614,-3,-2,-2,-4,-13,-15,-35,-6
1532320789619,3,-2,-2,-1,-2,-16,0,2
1532320789624,1,0,0,-1,-6,-14,-8,3
1532320789629,-1,1,-1,0,-5,-15,-47,-9
1532320789634,1,0,1,2,-2,11,44,1
1532320789639,-3,-1,-3,-8,-15,-4,-2,-3
1532320789644,-3,-2,-4,1,10,32,6,0
1532320789649,-2,-1,1,-2,-15,-13,4,0
1532320789654,-1,-1,-4,-5,-22,-29,-6,-6
1532320789659,0,0,-1,2,9,-3,-18,4
1532320789664,2,1,1,0,2,-3,-13,-1
1532320789669,0,0,1,4,9,11,59,3
1532320789674,-2,-3,-2,-2,8,2,-13,-1
1532320789679,0,3,2,-1,-3,1,19,-2
1532320789684,-1,-1,-3,-4,-10,-9,-12,0
1532320789689,-1,0,0,2,9,5,-14,-2
1532320789694,2,0,-1,-4,-1,7,0,-1
1532320789699,0,0,3,2,4,14,7,0
1532320789704,-1,0,1,-4,-4,-24,-15,-2
1532320789709,-1,-2,-5,-2,-7,2,-4,-4
1532320789714,1,2,1,5,4,3,-3,-1
1532320789719,-1,-1,-2,-2,-4,-3,-6,-2
1532320789724,1,-1,2,3,5,6,17,0
1532320789729,-1,-2,-2,0,9,1,-33,-3
1532320789734,-3,-1,-3,-4,-5,-6,26,1
1532320789739,-1,-2,-2,-8,-5,12,7,2
1532320789744,0,-1,-3,0,-11,-10,-5,-4
1532320789749,0,0,0,0,4,4,2,1
1532320789754,2,2,7,5,10,10,0,0
1532320789759,0,-1,-2,2,-1,-11,-14,-4
1532320789764,-2,-1,2,1,-1,0,-1,1
1532320789769,-3,-3,-3,-2,-6,-5,1,-2
1532320789774,0,-1,-3,-2,-12,-4,-16,1
1532320789779,0,-1,1,2,2,6,20,1
1532320789784,1,-1,-2,-3,2,-3,-2,0
1532320789789,-1,0,2,4,-1,0,-28,-2
1532320789794,0,-1,-1,0,2,8,31,1
1532320789799,-3,-3,-4,-6,-2,-13,-48,-5
1532320789804,0,0,-4,-6,-6,6,49,2
1532320789809,-1,1,0,1,3,0,3,0
1532320789814,-2,-2,-3,1,5,3,-6,-2
1532320789819,-2,-2,0,-2,-3,-2,-9,1
1532320789824,-2,0,-2,2,6,-4,-10,-1
1532320789829,0,-2,-1,-3,0,-1,9,4
1532320789834,-1,-1,-1,-1,4,5,-3,-1
1532320789839,0,-1,0,2,1,-2,-2,0
1532320789844,-1,-1,1,-2,-7,-6,-9,-3
1532320789849,-2,-1,-1,0,-3,-5,9,-1
1532320789854,-2,-2,-3,0,-8,-9,-14,-1
1532320789859,-2,1,1,-1,6,7,7,-2
1532320789864,1,1,0,-1,-1,-1,6,3
1532320789869,-3,-3,-2,-3,0,0,0,-4
1532320789874,-3,-1,0,-4,0,6,2,-1
1532320789879,0,0,0,-3,0,-12,-1,-2
1532320789884,-1,-1,-2,3,1,13,-8,-2
1532320789889,0,-2,0,5,4,5,24,1
1532320789894,0,-1,1,-3,5,0,-22,-1
1532320789899,-1,-2,-1,-2,-5,2,15,-2
1532320789904,-1,-1,0,0,2,0,-8,2
1532320789909,-1,0,1,-3,-2,-6,-6,-3
1532320789914,-1,-1,-1,0,14,2,-18,-4
1532320789919,0,-2,-2,-1,-14,-12,-5,0
1532320789924,-1,-1,-2,0,1,-5,12,0
1532320789929,0,0,-2,-1,0,9,14,0
1532320789934,-3,-2,0,-2,-4,-7,0,2
1532320789939,1,-2,0,2,6,11,6,2
1532320789944,-2,-2,-3,-1,-1,3,1,-4
1532320789949,1,-2,-3,-4,-4,1,-10,1
1532320789954,-1,1,-1,1,5,0,-1,-4
1532320789959,-2,0,-4,-1,-2,2,0,-3
1532320789964,-1,1,0,0,-5,-2,4,2
1532320789969,-1,0,-1,3,6,-3,-9,-2
1532320789974,0,-1,-1,-1,0,-6,-7,-1
1532320789979,-1,-2,-3,-4,-6,6,23,0
1532320789984,0,-1,-1,-3,0,-2,-15,0
1532320789989,-1,0,0,-4,-3,-8,-19,-3
1532320789994,1,0,1,4,-2,-1,11,2
1532320789999,0,0,-2,2,3,3,12,3
1532320790004,-1,-1,-2,-2,-3,8,-3,-4
1532320790009,-2,-1,-3,-7,-12,-9,-36,-1
1532320790014,-1,-2,0,-2,-6,-5,17,0
1532320790019,-2,1,-2,0,3,6,0,-3
1532320790024,-2,0,1,1,-4,-22,-2,-2
1532320790029,0,0,2,4,7,20,11,0
1532320790034,-4,-3,-2,-7,-10,1,-4,-3
1532320790039,-2,-2,1,-2,3,-4,-17,-2
1532320790044,-2,-2,-4,-5,-5,3,15,1
1532320790049,1,1,2,4,2,-17,-13,2
1532320790054,0,-2,-1,2,0,3,12,1
1532320790059,-1,-1,-1,0,9,-2,-7,-4
1532320790064,-1,-1,0,0,0,5,-14,-2
1532320790069,-2,0,1,-2,-2,3,6,-1
1532320790074,-2,-1,-3,-5,-6,-4,2,1
1532320790079,-3,-2,0,0,-4,-2,-6,-1
1532320790084,-2,-1,1,1,4,-2,-7,1
1532320790089,-2,-2,-3,1,0,0,1,-3
1532320790094,1,2,0,0,6,2,-4,1
1532320790099,0,1,1,0,-9,-7,5,3
1532320790104,-1,0,1,0,-2,0,23,-1
1532320790109,-2,-1,1,0,6,0,-7,-2
1532320790114,-1,-1,-2,-4,-3,-9,6,-1
1532320790119,1,0,0,0,-2,12,-1,-2
1532320790124,0,-1,-2,0,-2,0,-9,-2
1532320790129,0,0,-4,-7,-15,-12,16,2
1532320790134,0,-1,1,-1,-2,-8,-23,-3
1532320790139,-1,-3,-1,0,0,-1,3,-2
1532320790144,-2,-2,-1,0,1,1,-7,-1
1532320790149,-1,-1,0,2,3,4,8,-1
1532320790154,-2,-1,-3,-1,2,2,-2,0
1532320790159,1,-1,0,-2,-5,-6,15,-1
1532320790164,-2,-1,1,-2,-4,-7,-17,-3
1532320790169,0,-2,-2,-1,-6,4,14,3
1532320790174,0,-1,-3,0,1,-4,-30,0
1532320790179,-1,-1,0,3,8,-4,2,-2
1532320790184,-1,-1,-3,-3,-7,0,1,2
1532320790189,0,1,1,-1,1,-3,-9,-1
1532320790194,-1,-1,0,-3,-7,0,22,-3
1532320790199,0,1,-1,2,2,-2,-30,-2
1532320790204,0,1,0,-1,0,-7,14,0
1532320790209,-1,0,-1,-1,2,20,-7,-1
1532320790214,0,1,-1,-2,-9,-12,2,1
1532320790219,-1,-1,-3,-5,-6,-5,-1,0
1532320790224,-1,-2,0,-1,2,3,2,-2
1532320790229,-1,-2,-2,1,2,-3,-11,-4
1532320790234,-1,-2,-1,6,3,1,-5,-2
1532320790239,-1,-1,1,-3,1,4,10,1
1532320790244,-1,-2,-2,0,1,2,-7,-1
1532320790249,0,0,-1,-1,-2,4,20,1
1532320790254,-1,0,-2,-1,2,-2,-23,2
1532320790259,1,0,-1,-2,-10,-15,-2,2
1532320790264,-2,-3,-3,-2,2,9,6,0
1532320790269,-2,-2,-1,-2,-1,-6,-5,-2
1532320790274,0,-1,-2,-3,-4,-1,4,-3
1532320790279,-2,-1,1,-2,2,-5,-7,-9
1532320790284,0,0,-2,2,2,12,29,6
1532320790289,0,0,0,-2,-3,-4,0,-1
1532320790294,-1,-1,0,3,1,-9,-15,-4
1532320790299,0,0,-2,-3,-4,-7,-4,2
1532320790304,-3,-1,-1,-1,1,1,-4,-4
1532320790309,-3,-1,-3,-9,-8,-4,-4,-3
1532320790314,-1,-1,-1,0,-5,19,16,3
1532320790319,0,0,-1,2,5,12,21,2
1532320790324,-1,0,0,3,-8,-13,-16,-3
1532320790329,-2,-1,-7,-4,1,-4,8,-2
1532320790334,1,1,-4,-4,-3,-15,-11,-1
1532320790339,0,-1,-3,-5,1,1,-5,1
1532320790344,0,0,2,3,6,10,16,1
1532320790349,-1,-1,3,5,5,3,-2,1
1532320790354,1,-1,-2,-4,0,2,1,-2
1532320790359,0,0,0,-1,-3,-4,-3,-1
1532320790364,-1,-1,-1,-5,-7,-3,-4,-2
1532320790369,0,0,3,2,1,-1,1,-2
1532320790374,-2,-4,-2,0,0,0,-1,-3
1532320790379,0,0,0,1,-2,-3,-2,2
1532320790384,1,-1,2,2,2,4,5,0
1532320790389,1,1,-3,0,4,4,-4,0
1532320790394,-2,0,-1,-1,-5,-12,-15,0
1532320790399,-1,-2,-2,-3,-2,3,12,-1
1532320790404,-2,0,-1,-1,0,-20,-43,-8
1532320790409,-1,-1,5,2,10,12,27,6
1532320790414,0,1,-3,2,12,-9,-7,-4
1532320790419,-3,-4,-8,-11,-22,-2,-8,-1
1532320790424,0,-1,-3,-5,-5,9,22,3
1532320790429,0,-3,0,0,2,2,-6,-4
1532320790434,-2,-1,0,-2,1,-4,-5,1
1532320790439,-3,-2,3,5,5,-3,0,-4
1532320790444,0,0,-5,-2,2,1,-4,-2
1532320790449,1,2,2,1,-1,-4,-3,2
1532320790454,-2,-1,0,4,3,6,-4,-3
1532320790459,0,1,1,-5,-2,-6,0,1
1532320790464,-3,-1,-2,0,-6,2,5,-4
1532320790469,0,-1,-2,0,3,0,-3,0
1532320790474,-1,-2,-1,-3,-3,12,25,1
1532320790479,0,0,0,1,-10,-27,-51,-3
1532320790484,-1,-1,-1,-2,5,-2,1,-1
1532320790489,0,0,0,0,-2,-1,-5,-4
1532320790494,-1,-1,0,-3,-8,4,1,1
1532320790499,-1,0,-1,2,4,6,11,1
1532320790504,-1,-1,1,0,7,9,7,-4
1532320790509,0,-1,-1,6,8,-1,-7,5
1532320790514,1,-1,-3,-9,-14,-25,-6,-3
1532320790519,-1,-2,-5,-5,-10,6,11,-2
1532320790524,-1,-1,1,-4,4,-3,-16,-3
1532320790529,-2,0,-1,-1,7,1,4,-1
1532320790534,2,2,1,2,-4,-1,-8,0
1532320790539,0,-2,0,2,2,-3,7,2
1532320790544,-1,-1,1,6,6,10,4,0
1532320790549,-2,-2,-1,-3,-2,3,-1,-3
1532320790554,-1,-2,1,3,14,18,-4,2
1532320790559,1,0,0,-6,-14,-21,8,-1
1532320790564,0,0,1,-8,-20,-10,0,5
1532320790569,-2,1,-3,0,4,5,2,-3
1532320790574,0,-2,-1,-4,-8,-17,-7,-4
1532320790579,-1,-1,0,6,19,19,-1,-1
1532320790584,-1,0,-3,2,1,-3,-4,-1
1532320790589,-2,-2,-4,-7,-13,-14,2,-2
1532320790594,-1,0,0,2,-5,21,12,2
1532320790599,-2,-2,1,-3,-5,-12,-55,-4
1532320790604,2,-1,-1,0,2,-4,53,6
1532320790609,-2,1,-2,3,-11,-4,-14,-2
1532320790614,0,0,-3,0,12,9,20,1
1532320790619,-2,-3,-1,-4,-1,12,7,-2
1532320790624,0,0,0,1,-2,-6,-15,1
1532320790629,-2,-3,-3,-7,-12,-6,-3,-5
1532320790634,-2,-1,2,1,8,7,-6,0
1532320790639,-3,-2,-3,0,-2,-4,10,-3
1532320790644,0,0,-2,0,3,4,-4,3
1532320790649,3,0,1,2,3,-1,-1,5
1532320790654,1,-1,-1,0,1,-1,-13,-5
1532320790659,0,1,-2,2,2,-4,11,1
1532320790664,-2,0,-1,1,21,14,-2,-7
1532320790669,-2,-1,2,-1,-12,-10,4,0
1532320790674,-1,-2,-10,-2,-3,-2,-2,2
1532320790679,1,-1,-3,-1,0,5,2,-2
1532320790684,-1,-2,1,-1,0,-7,-18,-1
1532320790689,-3,0,-1,1,7,3,-5,-2
1532320790694,-2,0,0,-1,-6,-6,-1,0
1532320790699,-1,0,1,-1,10,6,15,-1
1532320790704,-2,-2,-4,-3,-17,2,-2,0
1532320790709,1,0,0,-3,0,3,0,1
1532320790714,-2,-1,-1,-3,-3,-10,-4,0
1532320790719,0,1,-1,3,0,1,4,1
1532320790724,0,0,1,-3,-1,1,-1,-1
1532320790729,0,-1,-1,0,-5,-10,-7,-2
1532320790734,-1,-2,0,-1,-1,1,-3,0
1532320790739,-1,-1,0,1,-1,-1,-1,-1
1532320790744,0,-2,1,0,-1,0,-3,-1
1532320790749,-1,0,-2,-4,2,4,3,-1
1532320790754,0,1,-1,-2,-2,-5,-2,2
1532320790759,-1,-1,-2,1,-3,-1,-6,0
1532320790764,-1,-1,0,-1,-3,-3,-2,0
1532320790769,0,-3,-1,0,4,11,22,-2
1532320790774,-3,1,1,-1,-12,-16,-44,-4
1532320790779,2,1,1,3,4,0,30,7
1532320790784,-1,-1,-3,-3,-8,-9,-14,-3
1532320790789,-1,0,-2,-4,-5,-5,8,1
1532320790794,-2,-1,0,2,5,6,4,-9
1532320790799,-2,1,3,3,7,10,3,7
1532320790804,-1,-2,-3,3,2,4,-2,-2
1532320790809,1,-2,-3,-6,-14,-17,-9,-1
1532320790814,-1,-1,-3,-6,-11,-3,7,-2
1532320790819,-1,-1,-1,-1,-3,-6,-7,-3
1532320790824,-1,-1,0,1,4,6,7,0
1532320790829,0,2,4,3,6,4,-9,1
1532320790834,0,1,2,4,11,9,21,-3
1532320790839,-3,-3,-2,-9,-18,-19,-11,1
1532320790844,-3,-3,-5,-5,-7,-4,-6,2
1532320790849,-3,-2,-1,1,1,-3,-13,-8
1532320790854,-2,0,1,3,4,-10,0,-2
1532320790859,-1,-2,-1,2,6,24,5,3
1532320790864,0,2,-1,-4,-1,6,18,0
1532320790869,0,0,0,-2,-7,-16,-27,0
1532320790874,0,-1,-3,0,4,1,-5,0
1532320790879,-2,0,-3,2,14,9,-1,-8
1532320790884,1,0,1,-1,-12,-9,24,4
1532320790889,0,-1,-2,-1,2,8,6,-1
1532320790894,0,-1,0,1,11,6,-4,1
1532320790899,0,-2,0,-7,-16,-11,14,-2
1532320790904,0,0,1,2,5,-6,-44,-1
1532320790909,-1,-2,1,-3,-8,-13,9,-4
1532320790914,0,-2,-1,-3,-16,-14,-6,3
1532320790919,1,-2,-3,2,13,0,-3,-2
1532320790924,-2,-3,-2,-1,-3,10,2,-4
1532320790929,-3,0,0,0,-3,5,-9,-1
1532320790934,0,1,0,2,15,-1,6,-1
1532320790939,-2,-2,3,2,-2,4,20,-1
1532320790944,-2,-2,-6,-3,-4,-17,-39,-2
1532320790949,0,0,-1,2,6,10,-4,0
1532320790954,-1,0,0,-2,-5,8,14,3
1532320790959,0,-1,0,0,0,5,14,-1
1532320790964,-1,-2,-1,-2,-5,-12,-17,2
1532320790969,-1,-9,-23,1,0,-2,-6,-6
1532320790974,0,8,16,0,0,2,13,2
1532320790979,-3,1,2,-2,4,14,14,2
1532320790984,1,1,2,-1,-10,-7,-7,-3
1532320790989,-1,-1,6,3,4,0,-3,-2
1532320790994,0,-2,-7,-1,1,-3,-14,2
1532320790999,0,-2,-3,-3,-1,1,12,1
1532320791004,0,-3,-2,-4,-7,4,6,4
1532320791009,-2,3,1,-2,-5,2,-6,-2
1532320791014,-1,0,-1,3,4,4,16,-3
1532320791019,-2,1,2,-1,-1,-4,-10,-1
1532320791024,1,-1,-4,4,3,5,0,2
1532320791029,-1,0,0,-3,-5,-11,-12,-9
1532320791034,-2,-3,-2,1,0,4,12,6
1532320791039,0,-2,-4,0,1,1,-9,-1
1532320791044,-3,-1,-1,-1,3,-15,-35,-7
1532320791049,-1,1,1,-2,-9,10,11,-3
1532320791054,-2,-3,-1,-1,3,5,32,2
1532320791059,1,0,-1,-3,-7,-7,-24,-2
1532320791064,1,-3,-3,-5,-2,5,8,4
1532320791069,0,0,4,1,8,-5,-12,0
1532320791074,-1,-2,-2,-2,-2,-4,-7,-5
1532320791079,-1,-1,-1,2,1,11,23,1
1532320791084,-1,1,3,1,4,-7,-20,-3
1532320791089,1,1,2,-1,1,-4,8,2
1532320791094,-1,-1,-3,1,2,0,-5,-3
1532320791099,-1,-2,-1,1,1,-6,3,2
1532320791104,0,0,-2,-7,-8,3,10,-1
1532320791109,1,1,-4,-3,-2,10,16,5
1532320791114,-2,-1,2,3,2,-12,-51,-7
1532320791119,0,-2,-3,3,-1,7,46,4
1532320791124,-2,0,1,-4,-5,-6,-1,-2
1532320791129,-1,1,-2,-7,-6,-1,0,0
1532320791134,-3,-3,-6,-4,-3,-4,-2,-4
1532320791139,-1,0,-2,1,2,-1,-17,-2
1532320791144,0,-1,2,7,7,6,9,3
1532320791149,-2,-2,3,0,3,1,8,1
1532320791154,-1,-1,-3,0,2,4,-5,-2
1532320791159,-1,0,-1,-1,-3,-15,-11,-1
1532320791164,-1,-1,-4,-7,-10,1,17,0
1532320791169,-1,0,-2,-2,-2,-9,-18,-2
1532320791174,0,2,2,2,19,18,8,-1
1532320791179,0,-3,-4,0,-1,-7,2,1
1532320791184,1,0,0,1,-6,-2,-14,-3
1532320791189,0,0,0,-1,-3,-11,-10,3
1532320791194,0,-2,-2,-1,-2,2,15,1
1532320791199,-1,0,-2,-3,0,7,-9,-6
1532320791204,-4,-2,1,-1,6,1,-9,-4
1532320791209,-1,-1,0,2,1,-9,13,-4
1532320791214,-1,0,2,0,-5,-1,4,7
1532320791219,0,1,0,3,0,1,-10,-1
1532320791224,1,0,-2,-1,-4,2,7,-1
1532320791229,-1,-2,0,-2,14,16,-4,1
1532320791234,0,0,-3,-4,-20,-2,-6,-2
1532320791239,-2,-2,-4,-12,-19,-17,-9,0
1532320791244,-1,-1,-1,3,1,0,-1,1
1532320791249,-1,0,1,5,10,9,-1,-3
1532320791254,2,2,-1,-5,-3,-5,5,2
1532320791259,-1,-3,1,2,8,15,0,2
1532320791264,1,0,-3,1,12,-4,4,-1
1532320791269,-2,-1,-6,-8,-22,-27,-13,-3
1532320791274,-2,-2,-2,-5,-14,-3,4,-2
1532320791279,-2,-2,0,3,15,3,-18,-4
1532320791284,-2,-1,-1,-7,-48,-1,24,3
1532320791289,-1,0,5,7,29,16,19,2
1532320791294,-1,-3,-5,-4,-7,-35,-24,-2
1532320791299,0,-1,-2,-11,-15,5,-2,-6
1532320791304,-1,-3,-2,1,14,5,-2,-3
1532320791309,-3,-2,2,1,-6,14,-2,-7
1532320791314,-1,1,4,5,13,12,2,7
1532320791319,1,2,0,2,13,-10,6,-1
1532320791324,-1,-1,-1,-2,4,9,0,-1
1532320791329,-1,0,-4,-5,-23,-17,-13,-5
1532320791334,-2,0,-3,4,10,7,7,-3
1532320791339,-1,0,0,1,-11,-3,2,2
1532320791344,-2,-1,0,4,19,-7,-1,-2
1532320791349,-1,-2,-4,-3,-22,-3,-5,2
1532320791354,-1,-1,-1,-7,-2,-8,1,-4
1532320791359,-2,-2,-2,0,-4,11,-4,0
1532320791364,-1,0,-2,-2,-5,-15,-4,-3
1532320791369,1,1,4,3,5,11,25,2
1532320791374,1,2,6,8,27,-2,-23,-1
1532320791379,-3,-2,-1,4,11,-9,4,-3
1532320791384,-3,-2,-10,-17,-36,-12,-16,-1
1532320791389,-1,-1,-3,-5,-5,-7,0,3
1532320791394,0,0,-1,1,-4,15,52,3
1532320791399,-1,1,4,6,14,-5,-21,-2
1532320791404,1,-1,4,13,47,-1,-4,-1
1532320791409,-1,-4,-7,-10,-22,-3,14,2
1532320791414,-1,-3,-5,-10,-28,-21,-20,-5
1532320791419,-1,0,0,-2,-4,0,-2,0
1532320791424,-2,-1,4,13,21,4,4,1
1532320791429,1,-1,-3,-1,-1,0,-19,-3
1532320791434,0,-2,-4,-6,-7,-1,-1,-2
1532320791439,-2,-3,-4,-3,4,17,1,-1
1532320791444,0,0,2,-1,-8,-9,-5,0
1532320791449,0,1,5,5,8,4,-2,-3
1532320791454,1,-2,3,11,17,-10,-8,-2
1532320791459,-1,-2,-4,-12,-25,-15,0,-8
1532320791464,0,-1,-4,-6,-10,4,1,8
1532320791469,-1,-3,-1,-5,-11,-24,-1,-2
1532320791474,-2,0,-1,2,-3,1,9,-1
1532320791479,1,0,3,5,17,15,-3,3
1532320791484,-1,-1,0,3,0,-26,-4,-3
1532320791489,0,0,-1,0,12,11,-17,-2
1532320791494,-2,1,2,3,10,-5,-27,-4
1532320791499,0,-1,-9,-11,-22,-1,17,-2
1532320791504,-1,-1,-2,-7,-15,15,6,-3
1532320791509,-3,-3,0,1,10,3,-6,-3
1532320791514,-2,-2,-2,-2,-6,10,22,-2
1532320791519,1,2,5,10,30,16,-8,4
1532320791524,2,0,-2,-6,-6,11,-5,3
1532320791529,-1,-1,-3,-4,-14,-49,-10,3
1532320791534,-2,-3,-1,-7,-4,23,-1,-1
1532320791539,-4,-3,-2,-1,-11,-19,-6,-8
1532320791544,1,2,2,8,31,44,19,7
1532320791549,1,-1,0,3,9,13,10,-5
1532320791554,0,0,-2,-5,-33,-25,-4,1
1532320791559,1,-3,-2,-1,-6,12,21,1
1532320791564,-2,0,-2,-2,-8,-31,-50,-10
1532320791569,0,0,-1,-2,-3,5,-8,2
1532320791574,-1,-2,0,1,9,2,0,1
1532320791579,0,0,0,1,8,10,5,0
1532320791584,-1,-3,3,3,18,0,15,0
1532320791589,0,1,1,3,-7,3,-4,1
1532320791594,-2,-2,-1,0,1,4,-4,-2
1532320791599,0,-1,-2,-5,-10,-15,0,1
1532320791604,-1,0,0,-1,0,10,8,-2
1532320791609,-1,-1,1,1,8,1,-2,-6
1532320791614,0,-1,0,-2,4,3,-5,6
1532320791619,-4,0,-1,-3,-4,-3,2,-7
1532320791624,0,-1,-2,-1,-7,-4,5,4
1532320791629,3,1,-2,-2,-4,6,4,-4
1532320791634,3,2,2,3,3,9,-1,8
1532320791639,2,1,3,5,-6,-16,-1,8
1532320791644,1,-1,-6,-15,-25,-13,1,-5
1532320791649,-5,-2,0,-2,-3,-1,-3,-4
1532320791654,-3,-3,-5,-4,4,-8,17,-5
1532320791659,4,1,3,4,-3,23,3,18
1532320791664,-2,-1,1,7,-1,-22,-5,-14
1532320791669,-1,-2,-5,-10,-22,15,-26,5
1532320791674,-1,0,-2,-3,-9,-18,-6,-7
1532320791679,-3,-3,-3,-2,8,3,4,0
1532320791684,-1,-1,-1,2,4,18,16,3
1532320791689,3,2,5,12,20,1,-11,1
1532320791694,-2,-2,3,4,34,56,19,6
1532320791699,-2,-2,-4,-10,-38,-65,5,0
1532320791704,3,-1,-3,-6,-4,9,-27,-4
1532320791709,1,-1,0,3,3,-11,-1,5
1532320791714,0,0,1,5,-3,8,7,-20
1532320791719,-1,1,3,5,14,-8,-60,-9
1532320791724,-1,-2,-1,-2,-7,7,37,2
1532320791729,0,0,-2,-1,27,22,14,0
1532320791734,-1,-3,-5,-12,-19,-8,11,12
1532320791739,-4,-1,-2,0,2,5,-5,-18
1532320791744,1,2,2,4,5,-3,-9,1
1532320791749,-5,-3,-5,-2,-7,-3,-11,-13
1532320791754,6,4,1,2,8,9,16,13
1532320791759,-1,2,0,0,-6,-13,-8,2
1532320791764,-1,-1,1,2,22,50,9,4
1532320791769,1,-1,-6,-10,-43,-64,17,2
1532320791774,-2,-2,0,-2,-17,-26,-38,-5
1532320791779,-2,-4,1,0,4,25,24,-1
1532320791784,-1,-3,0,4,2,-22,-2,-6
1532320791789,2,1,3,3,-3,8,-16,4
1532320791794,-2,0,-1,3,6,-20,-2,-5
1532320791799,0,0,0,-4,-8,9,6,-2
1532320791804,-2,0,-1,-2,-3,-10,1,-1
1532320791809,-3,-3,0,-4,6,1,-4,-7
1532320791814,-2,-3,-1,2,3,4,-6,-5
1532320791819,3,2,0,-2,15,18,5,7
1532320791824,1,2,-1,-4,-5,0,7,3
1532320791829,-5,-1,-4,-1,4,1,-6,-2
1532320791834,1,-1,-1,-1,-6,7,5,-4
1532320791839,-1,-2,-2,-1,4,-5,4,2
1532320791844,-1,-3,-8,-3,-15,-10,-8,-2
1532320791849,3,2,7,3,8,11,4,10
1532320791854,-4,-2,-1,1,-2,-7,-4,-4
1532320791859,-1,-2,-6,0,0,-5,-1,1
1532320791864,-4,0,0,-4,-4,-5,-6,0
1532320791869,-2,0,0,2,8,10,3,-2
1532320791874,-1,-1,0,-4,-9,-10,-3,-1
1532320791879,-2,-1,0,0,0,0,-3,-7
1532320791884,0,-1,1,1,-7,-5,-15,1
1532320791889,0,-4,-3,-2,6,1,4,1
1532320791894,1,0,1,-2,-4,-2,0,-3
1532320791899,-1,0,0,-2,5,13,-6,-4
1532320791904,-3,0,-1,0,-4,-9,21,0
1532320791909,0,-1,2,-1,-12,-10,-15,-2
1532320791914,1,-1,0,-2,6,-17,6,3
1532320791919,0,-3,-3,-4,-2,19,-5,-3
1532320791924,-1,-1,-2,1,1,4,-4,-4
1532320791929,-3,-3,-1,-1,-1,-2,-7,-5
1532320791934,1,3,3,4,12,13,20,0
1532320791939,1,2,4,7,11,-15,-23,-21
1532320791944,1,-1,-7,-8,-17,13,24,7
1532320791949,-1,0,1,-1,-14,-20,-19,-12
1532320791954,-3,-3,-4,-4,-12,-4,4,4
1532320791959,-4,-1,-1,0,11,-45,-22,-2
1532320791964,2,-1,0,0,7,53,38,16
1532320791969,-1,1,-1,3,16,11,10,-1
1532320791974,-1,-2,-2,2,7,12,0,-3
1532320791979,2,-1,-1,-6,-15,-25,7,7
1532320791984,-1,0,-1,-3,-5,-16,-13,-3
1532320791989,-1,-2,-1,-2,-7,3,4,3
1532320791994,-1,0,-1,3,3,-8,-5,0
1532320791999,-1,-2,-1,3,6,20,-11,-3
1532320792004,-1,-2,-3,-6,-6,-14,3,-1
1532320792009,-2,-2,0,0,-8,-9,7,1
1532320792014,-2,0,-3,-5,-4,-25,-29,-12
1532320792019,3,1,1,5,6,39,12,-4
1532320792024,-2,-1,1,3,7,-30,-25,-11
1532320792029,1,0,-3,4,20,36,15,9
1532320792034,2,-3,-5,-10,-10,11,6,8
1532320792039,-2,-1,-3,-3,-2,8,8,4
1532320792044,1,0,4,2,-2,-6,-3,1
1532320792049,-2,-1,-1,-1,-24,-39,-2,-3
1532320792054,0,0,0,2,4,-10,-29,1
1532320792059,-2,-3,-6,-6,-15,-22,1,0
1532320792064,-2,-2,0,5,29,-1,-18,-6
1532320792069,-1,-2,-2,-1,12,16,1,4
1532320792074,0,1,-2,-1,-10,10,-1,7
1532320792079,-2,-1,-2,-4,3,19,1,3
1532320792084,0,0,-2,1,-14,-15,10,1
1532320792089,0,1,-1,2,9,6,-4,-3
1532320792094,-4,-1,-4,-4,-3,-26,-40,-8
1532320792099,0,-3,2,-2,-10,-15,19,2
1532320792104,0,-3,-2,-1,-3,27,-1,1
1532320792109,-2,-5,-3,-1,15,26,5,-7
1532320792114,1,5,4,5,1,6,12,-6
1532320792119,3,6,7,-1,1,-9,-5,2
1532320792124,-1,0,-6,-2,-5,-6,-5,0
1532320792129,-1,4,5,-4,-1,2,-2,-2
1532320792134,-2,-19,-21,-2,3,20,29,2
1532320792139,-1,8,32,2,-1,-12,-10,3
1532320792144,2,7,3,-3,-6,-4,-5,1
1532320792149,-1,-9,-8,2,4,2,-7,-3
1532320792154,-1,-9,-19,-3,1,6,7,-1
1532320792159,0,5,0,-2,-6,-2,2,-1
1532320792164,-3,1,8,1,0,-2,-6,-4
1532320792169,0,6,-2,5,4,-13,-22,1
1532320792174,-1,2,13,-2,-2,9,2,0
1532320792179,-1,-6,-11,0,2,8,17,0
1532320792184,-1,0,4,-1,-12,-24,-33,-3
1532320792189,1,2,-2,-2,-19,-10,24,2
1532320792194,-2,-1,4,-4,-11,-11,-17,-1
1532320792199,-2,-4,-11,-2,5,15,6,2
1532320792204,0,1,1,2,5,10,21,2
1532320792209,2,-5,-5,-6,-14,-61,-14,0
1532320792214,-2,1,6,-7,-6,41,16,-1
1532320792219,0,-8,-12,-5,-6,-5,1,1
1532320792224,-1,2,-5,-1,-3,4,-6,-2
1532320792229,-1,4,4,3,13,26,4,-1
1532320792234,2,6,3,3,7,-16,21,2
1532320792239,-1,-1,-9,-3,-5,-18,-31,0
1532320792244,-1,-9,3,0,4,11,3,-4
1532320792249,-1,-2,0,-2,2,-2,-9,-1
1532320792254,-1,0,7,0,-3,0,1,5
1532320792259,0,-4,-7,-1,0,17,14,-1
1532320792264,-2,-2,-4,-2,0,-14,-12,-3
1532320792269,0,2,4,-2,5,10,-8,-1
1532320792274,-1,0,-2,0,1,-6,-11,-4
1532320792279,-3,0,-1,1,0,5,4,-3
1532320792284,-1,2,2,4,-2,-23,-5,-8
1532320792289,1,0,-1,-4,-1,28,6,9
1532320792294,0,-2,-5,-2,9,-4,-14,1
1532320792299,-2,-1,1,2,-2,-24,-9,-2
1532320792304,2,0,1,-5,-5,27,23,9
1532320792309,-3,-4,-4,5,10,11,-21,-9
1532320792314,0,0,3,7,15,3,26,-1
1532320792319,-3,-1,1,-1,-1,-26,-10,-1
1532320792324,0,1,1,-2,5,-30,-10,0
1532320792329,0,1,1,-1,0,-8,-11,4
1532320792334,-2,-2,0,6,17,1,1,-6
1532320792339,-3,-2,-2,-3,3,-11,-16,-14
1532320792344,-1,-1,-2,-2,-9,15,12,2
1532320792349,1,0,2,2,-2,5,1,4
1532320792354,-4,-2,1,9,33,-6,-3,-3
1532320792359,1,1,1,-6,-36,-12,22,12
1532320792364,-3,-2,-7,-6,-19,-37,-36,-15
1532320792369,-1,-1,-2,-3,-2,-3,6,-9
1532320792374,0,-2,-5,-4,-12,-11,0,5
1532320792379,-5,-1,1,2,18,16,11,0
1532320792384,5,0,6,7,9,20,13,7
1532320792389,1,-1,-3,1,-6,-12,-19,12
1532320792394,1,-1,-5,-3,-5,-4,-1,-11
1532320792399,-1,0,-1,-3,0,1,-3,-5
1532320792404,-9,-4,-3,0,3,-2,-3,-6
1532320792409,-5,-3,-4,-1,1,-3,16,-8
1532320792414,9,2,3,3,-3,12,14,35
1532320792419,-1,-1,-4,-7,-11,1,-9,-14
1532320792424,13,4,4,6,13,12,28,25
1532320792429,-6,-2,1,0,0,2,-22,-20
1532320792434,-2,-2,-7,-8,-12,-14,9,5
1532320792439,-1,1,2,6,16,13,-9,-2
1532320792444,-2,-1,-1,1,16,8,5,-9
1532320792449,2,-1,-4,-7,-28,5,2,9
1532320792454,-1,-1,0,-1,-6,-7,7,2
1532320792459,-1,-3,-1,-1,-1,2,8,10
1532320792464,-7,-1,1,4,13,13,-28,-17
1532320792469,0,1,-2,-1,6,3,-5,22
1532320792474,-9,-3,-4,-7,-16,-13,-10,-45
1532320792479,1,0,0,-1,4,4,-18,1
1532320792484,-4,-1,1,-1,-7,-7,5,0
1532320792489,1,0,2,2,8,4,-10,1
1532320792494,0,-2,-3,-4,-6,-3,3,25
1532320792499,-1,-2,0,1,0,3,-2,-3
1532320792504,0,-2,-1,-6,-12,-13,12,12
1532320792509,-2,-1,-1,-1,-3,-7,-32,-42
1532320792514,1,-1,-1,1,8,18,40,16
1532320792519,0,0,3,6,15,-15,-3,-6
1532320792524,-1,0,-3,-4,-7,25,12,14
1532320792529,-5,-2,-1,-3,-3,-1,-19,-14
1532320792534,4,0,0,1,8,-2,-14,-27
1532320792539,4,0,-2,-3,-5,9,14,12
1532320792544,-1,-2,-3,-2,-5,-9,14,-9
1532320792549,4,0,1,2,-3,-17,-26,24
1532320792554,-5,0,-2,0,-1,0,-1,-13
1532320792559,-6,-2,-3,-1,-2,-7,-2,-7
1532320792564,0,-1,-1,-2,-4,3,14,6
1532320792569,-3,-1,-1,0,2,-3,-24,-7
1532320792574,-2,-3,0,3,5,-1,12,2
1532320792579,2,1,0,-3,-8,2,-4,4
1532320792584,-7,-2,-1,0,0,-6,13,-21
1532320792589,3,1,-2,-4,6,1,39,12
1532320792594,0,-1,-1,-2,-6,1,-28,4
1532320792599,-1,-2,0,-1,2,-3,10,-3
1532320792604,-5,0,-2,0,4,1,-27,-13
1532320792609,-3,-1,0,2,-1,-7,12,-5
1532320792614,1,-1,0,0,-5,-9,-17,3
1532320792619,1,1,3,1,5,5,4,-7
1532320792624,-1,0,-4,-7,-9,-14,-26,3
1532320792629,1,1,-1,-8,-19,-9,35,4
1532320792634,1,0,2,1,3,-26,-26,1
1532320792639,-2,-1,-4,-2,1,28,42,-2
1532320792644,3,-1,-1,6,11,8,-11,5
1532320792649,-2,-2,-1,1,3,6,8,-8
1532320792654,-2,0,1,-7,-8,-1,-10,-7
1532320792659,3,-1,0,2,0,-8,19,19
1532320792664,2,1,1,2,4,-2,-24,3
1532320792669,-3,-2,-3,-6,10,9,20,-2
1532320792674,0,0,-1,0,-2,9,6,7
1532320792679,-2,-2,0,-2,10,-1,-37,-4
1532320792684,-2,-3,-1,-8,-29,-22,-2,3
1532320792689,0,-1,2,10,16,15,-4,5
1532320792694,2,1,-3,-1,-3,-8,13,9
1532320792699,1,1,-2,-1,1,-1,-10,-3
1532320792704,-2,-3,-3,-2,4,7,10,3
1532320792709,-2,0,-1,-3,-6,-4,-3,-6
1532320792714,-2,0,1,-1,-3,-3,0,-8
1532320792719,-3,-1,-1,1,-14,-18,-5,-1
1532320792724,3,1,-2,-4,6,20,-2,-4
1532320792729,0,-2,-3,-7,-6,-14,-4,-2
1532320792734,0,0,-1,-1,0,6,9,-1
1532320792739,1,-1,-4,0,-1,-13,-6,-1
1532320792744,1,-2,0,3,6,-7,-7,-2
1532320792749,-1,-2,-1,0,-2,17,12,0
1532320792754,-1,-1,0,2,4,-2,-11,-1
1532320792759,-4,-1,2,0,0,4,-6,-7
1532320792764,-1,0,1,3,-3,-10,8,-3
1532320792769,0,-1,-7,0,-1,0,-5,-1
1532320792774,-2,1,-2,-8,-9,-6,-5,-3
1532320792779,1,0,-1,-2,-1,-11,-15,-6
1532320792784,2,1,0,-2,-4,8,-6,2
1532320792789,-1,0,3,6,3,-6,-1,0
1532320792794,0,-2,2,6,8,12,-1,-2
1532320792799,-2,-2,-4,-9,19,15,-11,-2
1532320792804,-1,-3,-3,-4,-23,-19,-2,0
1532320792809,0,-2,0,1,-3,-4,0,0
1532320792814,0,-1,-3,1,2,9,10,-2
1532320792819,0,0,4,3,5,2,-2,-1
1532320792824,0,-1,-2,-5,0,-5,-5,-4
1532320792829,1,1,1,0,2,4,8,4
1532320792834,-1,-3,0,2,4,10,-1,-3
1532320792839,0,-1,-2,2,3,-35,-4,3
1532320792844,-2,0,-2,-1,15,36,-5,-2
1532320792849,-2,-3,-3,-8,-15,12,29,1
1532320792854,-1,0,-2,-1,-5,1,-13,-4
1532320792859,0,0,4,6,2,-1,8,-2
1532320792864,1,0,0,6,23,19,21,1
1532320792869,-1,-1,-3,-15,-28,-34,-36,-2
1532320792874,-2,-2,-2,-3,1,1,-3,-3
1532320792879,0,-2,-1,-1,-15,-2,-9,-1
1532320792884,-1,1,2,5,3,-5,8,-1
1532320792889,1,-1,2,5,12,17,12,0
1532320792894,0,-1,-2,-4,-4,-8,-2,2
1532320792899,-1,1,-2,-3,-10,1,-10,-3
1532320792904,0,-2,-1,-1,3,-2,-6,0
1532320792909,-2,1,-1,2,4,-3,-22,-5
1532320792914,-2,0,1,-2,-5,-9,12,-7
1532320792919,2,0,-2,-1,-2,3,12,7
1532320792924,-1,-1,0,-2,-3,-1,-1,-1
1532320792929,-1,-1,0,1,2,1,0,2
1532320792934,0,-1,1,1,1,0,2,0
1532320792939,-1,-1,1,-1,-3,4,-5,-1
1532320792944,-1,-1,-3,0,-6,-12,1,0
1532320792949,0,-2,-4,-1,-1,-2,-4,-7
1532320792954,-1,0,0,-2,1,0,1,-2
1532320792959,2,0,-3,-1,0,6,13,11
1532320792964,-4,-1,3,6,-1,-7,-20,-1
1532320792969,0,-1,0,-1,4,-16,1,-3
1532320792974,-3,-2,-4,-7,-14,1,8,-2
1532320792979,0,1,-1,-8,-9,24,5,-2
1532320792984,-1,-1,-3,-6,-27,-63,-23,-6
1532320792989,-4,-3,-3,-3,2,17,4,-5
1532320792994,3,1,0,-2,-15,-18,-4,6
1532320792999,1,0,0,0,-6,35,4,1
1532320793004,0,-1,1,-3,-3,0,12,1
1532320793009,-3,-1,1,5,9,9,6,-1
1532320793014,0,0,2,5,5,-12,-21,-2
1532320793019,-3,-2,0,1,6,-4,-10,-7
1532320793024,0,-1,0,0,6,4,5,2
1532320793029,1,-1,1,1,-2,-1,11,3
1532320793034,-2,-1,-3,0,10,7,-1,0
1532320793039,-3,-1,-3,-2,-4,-16,-3,-5
1532320793044,0,-1,-1,-4,0,8,-4,-6
1532320793049,1,-9,2,-2,-1,-5,1,4
1532320793054,3,-2,-25,-1,1,9,3,-1
1532320793059,0,6,18,-1,-2,-12,-2,-1
1532320793064,-1,-1,0,0,-4,2,-4,3
1532320793069,-3,1,1,1,1,5,3,-2
1532320793074,2,-3,3,0,0,0,-3,21
1532320793079,-2,-3,-8,-2,0,-9,1,-17
1532320793084,-1,-2,-2,0,3,5,7,8
1532320793089,0,1,1,0,-2,-1,-7,-3
1532320793094,-5,-2,-1,2,3,-1,-23,-12
1532320793099,-1,0,-4,1,-1,-9,7,1
1532320793104,0,0,0,-5,-3,2,12,3
1532320793109,-1,-1,-3,0,1,5,-8,-4
1532320793114,1,4,6,-4,-1,-4,-7,-1
1532320793119,-1,-4,2,4,4,5,15,0
1532320793124,-1,-2,-5,-1,7,7,-17,-7
1532320793129,-3,1,-3,-1,-14,-22,-9,-6
1532320793134,0,-4,1,-9,-8,2,13,4
1532320793139,-3,-1,-1,0,-2,-25,-8,-1
1532320793144,-5,-3,-1,0,-5,14,4,-3
1532320793149,2,2,1,4,13,15,8,5
1532320793154,-1,0,4,6,12,17,0,-4
1532320793159,-2,-4,-5,-9,-3,-3,10,-5
1532320793164,-3,-2,-1,-1,-8,-9,-4,0
1532320793169,2,1,-1,-1,-3,-5,-7,2
1532320793174,0,0,0,3,-3,-2,4,-4
1532320793179,-1,-2,-2,0,2,-2,-7,-1
1532320793184,2,2,1,1,2,-3,2,-1
1532320793189,-1,2,-1,-4,-2,5,5,2
1532320793194,-2,0,2,1,1,-5,2,2
1532320793199,-1,-1,-1,1,-1,-1,-10,1
1532320793204,1,-1,0,-1,0,2,0,-4
1532320793209,0,2,1,1,-3,-3,1,7
1532320793214,-2,-2,0,-1,2,-3,-2,-5
1532320793219,-2,-1,-3,0,-6,-1,-9,-1
1532320793224,1,-2,-1,1,-3,3,3,-1
1532320793229,-4,-1,-2,-3,1,6,3,-2
1532320793234,-2,0,0,-2,-6,-25,-6,-1
1532320793239,-2,0,-4,-3,0,25,11,1
1532320793244,1,0,-2,-3,-13,-23,-23,-3
1532320793249,0,-1,-1,1,9,4,-2,-6
1532320793254,-2,0,2,2,4,5,1,-4
1532320793259,-1,-3,-4,-3,-7,-10,-2,-4
1532320793264,-3,0,-2,1,2,2,9,2
1532320793269,-4,-2,1,0,0,5,0,-6
1532320793274,4,-1,-1,-1,3,2,2,7
1532320793279,2,0,0,-4,-7,-8,-5,4
1532320793284,-1,0,-2,-3,2,6,3,-3
1532320793289,-1,-1,0,0,-4,-9,-5,-2
1532320793294,-2,0,1,3,4,1,-4,-2
1532320793299,3,1,1,1,3,7,7,10
1532320793304,-1,-1,0,-3,-1,2,1,2
1532320793309,0,-2,-1,0,-2,-3,0,0
1532320793314,-4,-1,-3,-3,-9,-4,-4,-8
1532320793319,-2,-1,0,1,-3,-2,-7,-2
1532320793324,-1,0,2,-1,3,-1,2,1
1532320793329,1,-1,0,2,7,2,2,0
1532320793334,1,0,-4,-1,0,1,1,-2
1532320793339,-1,-1,-2,0,4,2,-2,-3
1532320793344,-1,-1,-1,-2,-2,-7,0,-1
1532320793349,0,0,-3,-2,-8,3,-5,1
1532320793354,-1,-1,0,1,0,5,7,-5
1532320793359,-2,-1,-2,-1,-1,-5,-8,6
1532320793364,0,0,1,2,4,1,2,-5
1532320793369,-1,-2,-2,-7,-2,-6,0,-1
1532320793374,-2,0,0,-2,-9,-2,-2,2
1532320793379,1,0,0,2,4,0,4,-2
1532320793384,1,-1,0,0,1,6,6,2
1532320793389,-2,0,-1,1,-1,-5,-3,-1
1532320793394,0,-1,1,1,3,7,-2,-1
1532320793399,-2,-1,0,-2,3,-7,-2,-2
1532320793404,1,-2,-2,-3,3,-1,-3,-1
1532320793409,0,-1,-2,-4,-12,-4,3,0
1532320793414,-4,-4,-2,-4,-4,-3,-3,-4
1532320793419,1,0,0,2,-4,-1,-2,5
1532320793424,0,2,0,2,8,3,2,0
1532320793429,-1,-1,1,1,2,-2,-3,-6
1532320793434,3,0,-1,0,-1,2,0,10
1532320793439,-4,-2,-2,-3,-5,-11,-7,-11
1532320793444,-2,-3,-2,-4,-5,-1,0,-3
1532320793449,0,0,-2,-2,-4,0,-1,1
1532320793454,-3,-2,-1,2,5,2,-3,-3
1532320793459,-1,-1,0,2,1,-1,-1,-4
1532320793464,-2,-2,0,0,-6,1,-1,2
1532320793469,2,1,0,0,1,0,-1,-1
1532320793474,0,0,-1,0,1,-1,2,0
1532320793479,-2,-1,-2,-4,-5,-3,2,0
1532320793484,-4,-3,-2,-3,-6,-2,-3,-1
1532320793489,0,-1,-1,2,2,-7,-1,7
1532320793494,2,2,1,2,-3,2,3,2
1532320793499,0,0,-1,2,8,6,0,-1
1532320793504,1,2,1,4,-6,-1,2,1
1532320793509,-2,-1,-2,-6,-2,-4,-4,-1
1532320793514,1,-2,-1,-6,-6,-7,-3,0
1532320793519,-1,-1,0,-2,2,1,1,-2
1532320793524,-1,-1,-3,0,-3,0,-2,-4
1532320793529,-2,-2,-1,3,2,2,2,-4
1532320793534,-3,0,0,1,2,-2,-2,-4
1532320793539,-1,-2,-3,-5,-7,2,-1,0
1532320793544,0,-1,-1,2,6,2,-2,-5
1532320793549,2,1,2,-1,-5,5,7,7
1532320793554,-1,1,-1,-2,0,3,6,-3
1532320793559,0,0,-1,2,1,-3,-5,-3
1532320793564,1,1,-2,-1,5,0,-2,9
1532320793569,0,-1,0,1,0,0,0,1
1532320793574,-2,-2,-1,0,1,-1,-2,0
1532320793579,1,0,0,-1,-1,-1,2,2
1532320793584,-1,-2,-2,-2,-3,0,11,-2
1532320793589,0,0,0,0,-1,-6,-30,-5
1532320793594,1,-1,-2,0,1,-3,-2,0
1532320793599,-3,-1,-2,-2,-1,0,-3,-3
1532320793604,-2,-1,0,-1,-1,0,1,0
1532320793609,-1,1,-1,0,0,1,9,-2
1532320793614,0,-1,0,0,-2,-2,-4,-3
1532320793619,-1,-1,1,1,1,-1,1,-2
1532320793624,-2,-1,-1,-4,-9,-6,-3,-2
1532320793629,-1,-2,-1,-3,0,3,2,-3
1532320793634,-1,-1,-2,-3,-4,-2,1,-1
1532320793639,-3,-1,-1,-1,0,-2,-3,-1
1532320793644,1,1,0,2,4,-1,-5,-3
1532320793649,-3,-2,-1,-1,-3,-5,1,-3
1532320793654,0,1,0,-1,3,0,0,-1
1532320793659,0,0,-2,1,2,4,3,1
1532320793664,0,0,-2,-2,-5,-6,-6,-3
1532320793669,0,1,0,0,-1,1,-1,-1
1532320793674,-1,-5,-2,-3,-3,2,2,1
1532320793679,-1,0,0,2,2,-1,-2,-5
1532320793684,0,-2,1,1,3,1,-1,-1
1532320793689,-2,-3,-1,-5,-2,-3,1,-1
1532320793694,-2,-1,-1,0,-6,0,-2,-1
1532320793699,0,0,0,-5,-8,-6,-7,-2
1532320793704,-2,0,-6,-1,3,-3,-3,-3
1532320793709,1,-2,0,-1,-4,2,7,4
1532320793714,0,-1,-2,1,1,-2,-1,-3
1532320793719,0,-3,1,1,-3,0,1,-1
1532320793724,-1,-1,3,3,3,3,1,2
1532320793729,0,0,0,1,3,0,-1,2
1532320793734,-1,2,1,0,-3,-2,-3,-2
1532320793739,1,0,-1,0,1,2,5,5
1532320793744,-2,-2,-2,-4,0,-3,-4,-2
1532320793749,-1,-1,0,0,-3,-3,-8,-4
1532320793754,-2,-2,0,-4,-7,-4,-2,0
1532320793759,-1,0,-1,0,-2,1,-1,0
1532320793764,-2,-1,0,5,5,4,-1,-4
1532320793769,1,-2,-3,-3,-1,-5,-2,1
1532320793774,0,-1,-1,-1,3,4,4,-2
1532320793779,-1,0,-1,0,2,-2,-1,0
1532320793784,0,0,2,-1,-3,1,0,3
1532320793789,1,0,0,1,-1,-1,-3,-2
1532320793794,0,-1,-1,0,4,-2,-1,-1
1532320793799,-3,-1,-1,-1,-4,-3,-2,-3
1532320793804,0,-2,-2,-2,-7,-3,-1,0
1532320793809,-2,-2,-2,0,2,-1,1,-2
1532320793814,0,-1,-1,-1,-3,-1,-1,1
1532320793819,0,-2,3,-1,0,0,-1,-1
1532320793824,-2,0,-1,-1,-1,0,-1,-1
1532320793829,-1,0,0,-5,-6,0,2,0
1532320793834,-3,-2,-1,1,2,-3,-4,-3
1532320793839,-1,-1,0,-1,-2,-1,-2,-3
1532320793844,1,-1,-1,-4,2,0,-1,2
1532320793849,-1,-2,-3,-2,-6,-2,-1,-2
1532320793854,-2,1,3,4,6,0,0,1
1532320793859,-1,-2,-1,0,-2,-3,-3,-1
1532320793864,1,-1,-3,-1,-4,2,4,-1
1532320793869,-3,0,-1,2,3,-2,-4,1
1532320793874,0,2,-1,2,2,3,7,2
1532320793879,-1,-1,-2,-1,0,0,0,1
1532320793884,-1,-1,-2,-2,-2,-1,0,-2
1532320793889,2,0,-1,-1,-1,-1,-2,1
1532320793894,-3,-3,-2,-2,1,-3,-6,-5
1532320793899,3,2,-3,-4,-11,-1,7,13
1532320793904,1,0,1,-1,1,2,3,2
1532320793909,-3,-3,-1,4,3,-3,-3,-1
1532320793914,-2,-1,1,1,0,-3,5,-2
1532320793919,-3,-2,-1,0,0,1,-4,-5
1532320793924,0,1,2,3,3,-7,-9,-3
1532320793929,1,-2,-2,0,-1,2,3,2
1532320793934,0,-2,-2,-3,-7,-1,-1,-1
1532320793939,-2,-1,-3,-1,-2,0,12,-2
1532320793944,-1,-1,-3,-2,-5,-1,-6,1
1532320793949,-2,-1,2,9,11,2,3,-3
1532320793954,-2,-1,0,-5,-4,-1,-13,-2
1532320793959,-1,-2,-3,-7,-6,-4,-6,-1
1532320793964,-1,-1,-1,-1,-3,0,-1,-2
1532320793969,0,2,4,0,2,2,6,-1
1532320793974,-2,1,-6,0,1,1,-1,-4
1532320793979,1,0,3,4,5,2,1,0
1532320793984,1,-1,-2,-2,0,3,-3,2
1532320793989,0,-2,0,3,1,4,1,0
1532320793994,2,-1,-1,-3,-2,1,10,1
1532320793999,-1,-2,-2,-4,1,-3,-12,-5
1532320794004,-1,-1,-1,-2,-5,-2,-1,-1
1532320794009,-4,-1,-2,-1,0,0,1,-4
1532320794014,0,0,-1,1,3,-1,-11,0
1532320794019,-2,-2,-2,2,-2,-4,2,-3
1532320794024,0,0,-2,-8,-8,-4,2,1
1532320794029,-1,1,-3,-2,-5,-2,5,-2
1532320794034,-1,-1,0,-2,0,-1,-2,2
1532320794039,-2,0,3,3,10,2,-8,-1
1532320794044,-1,0,-1,0,-3,-3,-5,-3
1532320794049,0,-1,-4,-2,-5,-1,-2,-1
1532320794054,-1,0,-1,-4,-1,-2,6,0
1532320794059,-1,-1,0,-1,-6,-2,-1,-5
1532320794064,-1,-1,-2,2,6,1,2,3
1532320794069,1,0,-2,-3,0,2,5,3
1532320794074,-4,-1,1,2,-3,1,-3,0
1532320794079,1,0,-1,2,4,-8,-8,-2
1532320794084,-2,-1,-1,2,0,1,6,2
1532320794089,-2,1,0,-6,-4,-3,-4,-4
1532320794094,-1,-2,-5,-7,-11,-6,-5,-5
1532320794099,-1,0,-1,-3,0,7,4,0
1532320794104,-2,-2,1,6,6,3,5,-1
1532320794109,0,-1,-1,1,-2,-1,2,2
1532320794114,2,0,0,-3,-2,1,6,5
1532320794119,-2,0,-2,-1,-3,-4,-10,-8
1532320794124,0,-2,1,-2,0,-2,-4,-5
1532320794129,-1,1,-1,0,3,1,-3,-1
1532320794134,0,1,-4,-5,-12,-7,-2,-3
1532320794139,1,1,-1,1,1,0,4,9
1532320794144,1,0,-1,0,3,-2,-2,0
1532320794149,-1,-1,-1,-1,-4,-1,-4,1
1532320794154,0,2,1,-4,-6,-3,6,-1
1532320794159,-1,-4,-3,-3,-6,0,-13,-3
1532320794164,-2,-1,0,0,0,-4,-3,-7
1532320794169,2,-1,-2,-1,3,6,7,6
1532320794174,-1,-2,1,1,6,5,2,0
1532320794179,1,1,-1,-1,-5,-10,3,3
1532320794184,1,1,1,2,0,2,-12,0
1532320794189,-2,-3,-1,-1,-2,-3,3,-5
1532320794194,2,0,1,6,14,6,-4,3
1532320794199,-1,-1,0,-1,-6,2,6,-1
1532320794204,-3,-1,-3,-3,-7,0,5,-1
1532320794209,-2,0,-1,-5,-2,-6,-7,-5
1532320794214,0,-1,-1,-1,-4,0,4,2
1532320794219,2,0,1,4,5,5,7,8
1532320794224,1,-1,-2,1,1,-1,-1,0
1532320794229,0,2,-3,-4,-6,-5,-1,-1
1532320794234,0,-2,-2,-2,-4,-1,3,-2
1532320794239,-2,-1,-1,-1,1,-2,-12,-1
1532320794244,0,-1,0,2,0,3,4,2
1532320794249,-1,-2,0,0,5,6,12,1
1532320794254,0,-1,-2,-1,1,-5,-12,0
1532320794259,0,0,0,0,-1,3,6,-1
1532320794264,-2,-2,-2,-1,0,-1,0,-5
1532320794269,1,-2,-1,2,-1,-1,-4,5
1532320794274,-1,-2,0,-2,-3,1,5,-5
1532320794279,-2,-2,-1,-2,-1,3,1,-4
1532320794284,0,0,0,-4,0,3,10,-2
1532320794289,-1,-2,0,-1,-6,-6,-18,-2
1532320794294,-1,-1,2,6,7,1,-8,-4
1532320794299,-1,-1,-1,-2,2,-2,-2,0
1532320794304,1,1,-3,-2,-8,-3,1,2
1532320794309,-2,-1,-1,0,4,4,9,-2
1532320794314,-3,-2,-1,-4,-6,1,2,0
1532320794319,0,1,-2,-1,-2,-2,-6,-7
1532320794324,-2,-2,-1,-3,-1,-4,-3,7
1532320794329,-1,0,-1,-1,0,1,-22,-2
1532320794334,2,2,3,8,12,4,14,4
1532320794339,-1,-1,-3,-3,-7,0,13,-3
1532320794344,-3,0,-2,-4,-7,-9,-17,-7
1532320794349,2,0,-1,-2,-6,-3,-7,-2
1532320794354,-2,-1,-1,-2,-1,2,5,-2
1532320794359,0,0,3,4,5,-3,-3,5
1532320794364,-1,-1,-1,0,3,-3,-15,-2
1532320794369,-1,-1,0,3,-1,0,12,-2
1532320794374,-1,-1,0,0,0,1,-30,-4
1532320794379,-3,-3,-2,-3,-2,-3,37,-2
1532320794384,-2,-1,-2,-4,-9,-3,-25,-4
1532320794389,0,2,-2,-2,-1,-6,-15,-3
1532320794394,-1,-1,-1,0,-5,-3,6,-1
1532320794399,-4,0,0,1,5,0,-13,-5
1532320794404,0,-3,-3,-3,-3,-4,-3,-4
1532320794409,1,-1,1,-1,5,4,15,2
1532320794414,1,0,-1,4,9,1,-9,5
1532320794419,0,-2,-4,-8,-9,-5,-19,-2
1532320794424,-2,0,0,0,-1,3,23,2
1532320794429,-1,0,-2,-4,-2,2,4,1
1532320794434,0,1,0,0,0,-8,-19,-2
1532320794439,-2,-1,1,7,5,3,1,1
1532320794444,-1,-1,1,2,5,5,19,0
1532320794449,0,-2,-5,-7,-5,-4,2,0
1532320794454,-2,-1,-1,1,0,-6,-22,-5
1532320794459,-1,-1,-3,-5,2,-2,-3,-1
1532320794464,1,1,0,0,-10,-5,-1,2
1532320794469,-3,-1,2,6,4,1,3,-2
1532320794474,0,-2,-3,-3,-7,-1,13,4
1532320794479,3,-3,0,1,2,4,0,2
1532320794484,0,0,-2,-1,2,2,16,2
1532320794489,0,-3,0,-3,0,-1,5,2
1532320794494,-1,1,1,1,1,-4,-26,-5
1532320794499,0,-1,3,9,12,10,15,2
1532320794504,-3,0,-5,-9,-11,-10,-9,-1
1532320794509,0,-1,-3,-4,-9,-5,-6,-1
1532320794514,-1,-3,-2,-2,-3,0,18,-1
1532320794519,0,1,-1,-1,1,0,-9,2
1532320794524,0,-1,4,3,2,5,15,0
1532320794529,-1,0,-2,-3,-2,-1,3,-3
1532320794534,0,1,-3,-7,-6,-3,2,3
1532320794539,-1,-1,0,1,-7,1,25,-3
1532320794544,-1,-3,-5,-4,5,-3,-37,-2
1532320794549,1,1,2,-1,-4,0,-10,0
1532320794554,-2,-1,0,0,3,5,18,-4
1532320794559,-1,0,1,1,5,-2,-8,-1
1532320794564,0,1,-3,-8,-8,-2,14,3
1532320794569,-1,-2,-2,0,-2,-3,-7,-4
1532320794574,1,1,-1,1,0,2,14,1
1532320794579,1,0,1,2,1,3,-7,-3
1532320794584,-1,-1,2,4,10,7,-9,-3
1532320794589,1,-1,-4,-2,-5,-4,10,1
1532320794594,-3,-1,0,-4,-8,-11,-18,-9
1532320794599,0,0,-1,-2,-1,-9,-34,-2
1532320794604,-2,-2,5,10,11,0,-7,-3
1532320794609,2,1,-3,-6,-1,0,3,6
1532320794614,-3,-3,-3,1,-1,4,21,-1
1532320794619,-1,1,-4,-5,-9,-4,-6,-6
1532320794624,0,-2,-1,-3,-1,-4,-3,-3
1532320794629,-3,-1,3,3,-1,4,7,-7
1532320794634,-2,-2,0,-2,2,3,5,-4
1532320794639,-3,2,4,6,7,0,2,-6
1532320794644,0,0,-5,-1,-7,-3,5,3
1532320794649,-4,-1,0,0,0,-2,-2,-8
1532320794654,0,0,-1,-2,3,1,-2,-1
1532320794659,-1,-2,-2,-1,-5,3,11,-6
1532320794664,-1,0,1,2,-1,-2,-1,-1
1532320794669,-2,-1,0,3,4,-5,-29,-8
1532320794674,-2,0,-3,-3,-2,-3,-2,-2
1532320794679,-3,-2,-3,-4,-3,-4,-15,3
1532320794684,0,-1,0,-1,3,7,37,-2
1532320794689,-5,-1,0,0,0,-2,-16,-4
1532320794694,6,1,2,5,6,5,0,11
1532320794699,1,0,-3,-7,-10,-4,-2,4
1532320794704,-1,-5,-3,-4,-6,-3,-26,-1
1532320794709,-1,-1,1,3,4,-1,14,7
1532320794714,-5,-1,3,4,1,-1,-5,-6
1532320794719,1,0,-1,-2,0,9,53,-1
1532320794724,0,1,-2,-6,-4,-9,-49,-11
1532320794729,1,0,-1,-2,-1,0,0,-6
1532320794734,-2,-2,-3,-1,-1,-4,-14,-4
1532320794739,-2,-2,-1,0,0,-2,1,0
1532320794744,-1,-1,0,-1,4,4,18,-5
1532320794749,1,-2,-2,0,-5,-3,-4,1
1532320794754,0,0,-1,-8,-8,-3,3,4
1532320794759,-5,-1,-2,-2,-2,0,-6,-11
1532320794764,1,0,3,6,7,4,8,-2
1532320794769,-1,0,0,1,5,1,1,-2
1532320794774,1,0,-2,-2,-6,-3,4,-3
1532320794779,0,-1,-4,-7,-6,-5,-11,8
1532320794784,-5,-2,-3,-7,-11,-8,-2,0
1532320794789,4,2,2,4,10,8,2,12
1532320794794,-3,-2,0,3,-2,-1,4,-11
1532320794799,2,-1,-1,-1,-1,0,-5,0
1532320794804,-1,3,0,0,1,1,-4,-7
1532320794809,0,-4,-5,-6,-6,-7,-14,-10
1532320794814,0,0,-2,0,2,0,5,-4
1532320794819,2,0,0,0,3,2,34,-7
1532320794824,-1,0,-2,-2,1,3,-7,-8
1532320794829,-7,-2,-2,-3,-8,-14,3,-16
1532320794834,1,0,-3,-9,-11,-3,-21,-3
1532320794839,-2,-2,-3,0,3,3,-15,7
1532320794844,-1,0,2,2,3,1,12,9
1532320794849,0,1,0,1,1,5,24,7
1532320794854,-4,0,-1,0,2,-10,-12,8
1532320794859,-2,0,-3,-7,-12,-3,-4,8
1532320794864,0,-1,-1,0,-3,0,21,18
1532320794869,-1,0,1,4,5,4,-7,13
1532320794874,1,0,0,2,4,3,11,6
1532320794879,1,0,1,-1,3,2,-10,10
1532320794884,2,0,-4,0,1,-4,-4,17
1532320794889,-6,-3,-4,-6,-8,-11,-9,-6
1532320794894,0,-2,-2,-4,-5,-10,-38,24
1532320794899,-1,-1,-1,-4,0,-8,-11,-117
1532320794904,-2,-5,1,3,0,3,2,-119
1532320794909,2,0,-3,-1,-4,-3,3,-93
1532320794914,0,-1,1,-2,-5,2,8,-41
1532320794919,-2,-1,0,1,-2,-8,-7,42
1532320794924,2,2,0,1,2,3,-14,72
1532320794929,0,0,2,3,6,9,-1,73
1532320794934,-2,-3,1,3,2,-3,4,37
1532320794939,-2,0,-5,-5,-9,-6,13,43
1532320794944,-1,1,-2,1,1,-1,-19,20
1532320794949,-1,-1,0,-2,-1,0,-13,32
1532320794954,0,1,3,2,9,4,-3,11
1532320794959,2,0,4,3,2,3,22,3
1532320794964,-1,0,2,4,5,5,-43,4
1532320794969,4,0,-3,-2,0,7,69,13
1532320794974,0,1,-3,0,-1,2,9,-8
1532320794979,-1,-1,0,2,2,-1,-9,3
1532320794984,-3,-2,1,1,4,5,11,-6
1532320794989,-1,-1,0,1,-7,-5,-6,1
1532320794994,1,-3,-5,-8,-8,-6,-38,-4
1532320794999,0,-1,-1,0,-1,5,25,-9
1532320795004,-3,-2,0,-2,-1,-3,10,-42
1532320795009,2,0,7,7,14,1,-35,-17
1532320795014,0,-1,-2,2,5,5,23,3
1532320795019,-2,0,-3,-5,-9,-7,-30,10
1532320795024,1,-1,1,-3,-2,-5,-14,16
1532320795029,-2,-2,-2,-4,-3,6,58,6
1532320795034,-3,-2,-1,-1,0,-5,-18,-3
1532320795039,1,-2,0,5,5,4,-6,7
1532320795044,2,0,-2,1,-2,-8,-36,2
1532320795049,-1,-1,-1,-2,-2,-3,-22,2
1532320795054,1,0,0,1,0,3,13,2
1532320795059,-1,-1,1,1,-2,-1,4,-10
1532320795064,0,-1,-3,-4,-7,-3,28,10
1532320795069,-5,-1,3,0,1,-3,-35,-22
1532320795074,3,1,-3,-4,1,4,33,3
1532320795079,0,0,-4,-4,-10,-10,-41,5
1532320795084,-2,-1,-1,-2,-1,1,8,2
1532320795089,0,1,-2,1,-1,1,6,4
1532320795094,-4,-3,-1,1,-4,3,-17,-6
1532320795099,3,-1,2,1,11,10,75,0
1532320795104,2,0,0,2,5,-2,1,8
1532320795109,0,-2,-2,-2,-3,0,-6,2
1532320795114,-2,0,1,-1,-2,-1,12,-1
1532320795119,-3,-1,1,3,2,1,-18,-5
1532320795124,-1,-1,-4,0,2,4,17,7
1532320795129,1,-1,-3,-1,-2,-2,-1,5
1532320795134,-3,-3,-2,-5,-9,-2,-8,1
1532320795139,-2,-2,1,1,1,-8,-30,-5
1532320795144,-1,0,-3,-1,-3,1,14,-1
1532320795149,0,-1,0,0,1,-4,-17,4
1532320795154,0,-1,-1,0,1,1,15,1
1532320795159,-2,-2,-3,-2,1,0,2,-5
1532320795164,0,-1,-1,2,-3,1,3,3
1532320795169,1,0,-2,-2,1,2,0,3
1532320795174,-1,0,0,-1,-2,0,2,-4
1532320795179,0,0,0,1,-1,-1,1,3
1532320795184,-2,-1,-1,0,2,-4,7,-3
1532320795189,-1,0,0,-2,1,2,-25,-4
1532320795194,0,0,3,10,7,1,-1,-1
1532320795199,3,-2,-7,-9,-12,-4,-2,8
1532320795204,-1,-2,-1,-4,-8,-6,-10,4
1532320795209,-2,-2,-1,-2,-1,1,6,1
1532320795214,1,0,2,3,6,12,15,8
1532320795219,-1,2,2,6,9,-6,-29,-7
1532320795224,-2,-1,-1,-1,1,-3,-4,-4
1532320795229,-3,-2,-3,-3,-4,-8,-12,-7
1532320795234,0,-1,-2,-3,-2,0,-1,4
1532320795239,4,0,1,-2,-3,9,18,5
1532320795244,-2,-2,2,0,2,2,8,-3
1532320795249,-1,0,0,5,4,4,1,2
1532320795254,-2,1,-1,-2,-1,0,0,-2
1532320795259,-3,-4,-4,-6,-7,-4,-8,-1
1532320795264,-2,-1,1,0,1,1,10,-7
1532320795269,3,-1,-2,-2,-2,-4,2,4
1532320795274,3,-2,2,5,8,2,-25,8
1532320795279,1,0,-1,-2,-4,-2,27,-3
1532320795284,0,-1,-3,-1,-3,-1,-5,6
1532320795289,-3,-2,-2,-3,-9,-4,8,-4
1532320795294,-3,-1,0,-1,-4,-2,-1,-11
1532320795299,-1,1,2,5,7,0,-17,6
1532320795304,-2,-2,-2,-1,-1,5,15,0
1532320795309,1,0,-1,-1,-2,-3,-9,-3
1532320795314,0,-1,-2,-2,-1,-5,-6,2
1532320795319,-2,-2,-1,-3,-3,-3,-4,-2
