1532381194720,-1,-2,0,7,5,-3,0,4
1532381194725,-7,-4,-6,-9,-2,-3,6,0
1532381194730,12,2,-3,-2,-2,-5,-1,-1
1532381194735,-4,-2,-2,1,-6,-8,-5,-5
1532381194740,-3,1,2,3,5,6,-2,-1
1532381194745,-9,-3,2,2,-2,-1,0,1
1532381194750,-3,2,-1,-2,5,-3,1,-12
1532381194755,12,-2,0,-4,-4,8,-3,11
1532381194760,-2,1,-1,1,-1,12,-4,1
1532381194765,9,-3,-2,-7,-2,8,-6,-10
1532381194770,-13,-3,-1,-2,-3,-34,0,5
1532381194775,9,2,0,4,1,-8,-5,0
1532381194780,-28,-3,-1,-2,3,38,-9,2
1532381194785,-1,-3,-2,-2,-3,-23,-22,3
1532381194790,-2,2,-1,5,-2,17,-16,4
1532381194795,9,0,-2,-3,-3,-6,-6,3
1532381194800,-12,-2,1,0,-3,-10,6,1
1532381194805,0,-2,-1,-2,-4,2,10,-6
1532381194810,-7,-1,0,4,2,8,4,0
1532381194815,7,-1,5,2,6,0,5,3
1532381194820,7,-5,-17,-4,-5,-4,3,2
1532381194825,-4,-5,-7,4,2,2,-13,-6
1532381194830,-2,-2,-5,-7,-5,2,9,1
1532381194835,-3,2,6,-1,7,11,9,8
1532381194840,9,-1,1,-2,-1,4,16,-9
1532381194845,-7,-2,2,4,6,-4,10,-2
1532381194850,-1,-3,6,9,0,9,6,-1
1532381194855,11,0,-8,-2,-3,-1,12,-17
1532381194860,-5,5,17,-11,0,-5,8,-4
1532381194865,4,-2,-8,-9,-6,-10,7,2
1532381194870,2,-3,2,-1,6,5,5,-4
1532381194875,-7,-2,-9,5,8,10,3,7
1532381194880,-1,-13,-19,4,-7,-14,-8,-12
1532381194885,6,5,16,-2,-4,-1,2,2
1532381194890,-4,-1,-4,-8,-3,-1,-6,-11
1532381194895,-7,-3,0,-2,-2,-4,-4,1
1532381194900,4,4,7,3,-7,-8,-5,7
1532381194905,-6,1,-1,5,8,10,-2,4
1532381194910,-1,-2,0,-2,-11,-11,2,2
1532381194915,1,-3,1,0,1,0,-4,-4
1532381194920,2,0,-3,-1,8,12,-2,7
1532381194925,-8,3,11,2,-9,-17,5,-4
1532381194930,-4,-2,-20,-2,3,10,-3,-3
1532381194935,4,-2,-2,-3,-4,-6,-3,4
1532381194940,-11,4,1,-6,-6,-5,0,3
1532381194945,6,-4,-4,2,2,5,1,3
1532381194950,-2,3,5,-2,-2,-8,-2,5
1532381194955,5,1,1,2,-1,3,-1,9
1532381194960,-5,-2,0,3,2,-4,-1,-17
1532381194965,6,-1,-8,-5,-1,-1,1,0
1532381194970,-14,3,3,3,1,-5,-2,-2
1532381194975,5,-5,-3,-9,-10,9,-1,6
1532381194980,2,2,4,2,4,-7,-4,-8
1532381194985,4,2,2,2,-1,-5,-2,1
1532381194990,4,-2,0,-1,-6,-20,-2,0
1532381194995,-37,-4,-3,-3,4,3,-6,-5
1532381195000,9,3,1,4,-2,11,3,6
1532381195005,2,2,-4,-7,-14,4,2,-4
1532381195010,6,2,3,6,17,21,2,4
1532381195015,-4,0,0,-5,-7,-31,-3,-3
1532381195020,9,-4,0,-3,12,31,-3,4
1532381195025,-4,0,1,4,0,-28,-2,-9
1532381195030,-1,-2,-1,-3,-5,12,0,2
1532381195035,0,1,1,6,-2,3,-4,-5
1532381195040,9,1,-3,3,-3,-16,0,3
1532381195045,6,0,-1,0,0,21,2,4
1532381195050,-3,0,2,-9,-3,-1,2,-2
1532381195055,0,-4,-13,-16,-4,-16,1,-8
1532381195060,-1,-2,0,2,-13,2,-5,4
1532381195065,-10,-5,-1,0,1,-1,-5,-2
1532381195070,-1,1,4,11,1,-8,3,0
1532381195075,4,1,3,8,2,9,4,2
1532381195080,14,0,-3,-6,-14,-12,3,-1
1532381195085,-16,0,-2,8,9,-1,-5,-4
1532381195090,8,0,0,-6,-10,0,-4,-2
1532381195095,2,-1,2,-2,-12,-9,-4,-4
1532381195100,-5,-1,-3,-1,16,2,0,0
1532381195105,2,-1,-2,1,-3,-5,-4,0
1532381195110,-5,-4,0,13,5,1,3,-6
1532381195115,1,-1,-3,-28,-23,1,-5,2
1532381195120,-5,1,1,-1,-4,-11,0,2
1532381195125,6,0,-5,-8,3,5,5,-6
1532381195130,0,1,3,9,9,10,5,9
1532381195135,8,-1,1,6,8,5,-6,-3
1532381195140,-10,-2,-6,-8,-8,-10,9,3
1532381195145,7,-3,-4,-12,-1,0,0,-4
1532381195150,2,0,-1,-5,-17,-19,-8,-3
1532381195155,4,0,4,14,25,16,7,0
1532381195160,-5,-3,-2,-1,4,-7,-12,3
1532381195165,-12,-3,2,8,1,-1,4,4
1532381195170,5,-1,-5,-8,-7,0,0,0
1532381195175,3,3,5,2,7,-12,-2,1
1532381195180,-6,-3,0,-2,2,-4,-7,-9
1532381195185,-2,-2,-5,-3,-7,-8,6,2
1532381195190,-3,-2,-1,-7,5,9,-2,-1
1532381195195,1,1,0,9,0,1,-7,-3
1532381195200,1,0,2,2,-1,-7,5,1
1532381195205,1,-1,-3,-6,-6,7,-4,0
1532381195210,-1,-1,0,-2,7,-4,-1,4
1532381195215,-2,-1,-4,0,-1,3,9,-2
1532381195220,2,0,-1,4,3,1,1,-2
1532381195225,1,-1,1,6,4,5,-7,1
1532381195230,1,3,-1,0,-6,-2,-6,-5
1532381195235,-4,-3,-2,-4,17,-2,5,-2
1532381195240,0,1,3,-8,-11,6,4,0
1532381195245,-1,-2,-6,-7,-1,-3,-5,-1
1532381195250,-3,-2,3,2,7,-10,-13,-2
1532381195255,0,1,2,7,0,9,7,1
1532381195260,2,-1,-5,3,-1,7,16,4
1532381195265,0,-1,1,-10,-3,-6,-3,-5
1532381195270,-1,0,-2,-3,-3,-6,3,-5
1532381195275,-13,-1,-3,-7,-7,-2,-5,-2
1532381195280,5,-1,0,-3,1,1,-2,-2
1532381195285,1,-2,1,3,0,2,5,1
1532381195290,-1,-2,-4,-6,2,11,5,0
1532381195295,3,3,2,2,-5,-5,-1,-4
1532381195300,-6,-1,-1,1,-2,-6,-6,-1
1532381195305,-1,1,1,2,1,1,0,2
1532381195310,3,0,0,1,-1,0,0,3
1532381195315,0,-3,-4,-5,-2,2,-1,-4
1532381195320,-3,1,1,-1,0,-5,-11,-2
1532381195325,2,-1,1,-1,0,1,-2,-1
1532381195330,-2,-2,-4,-4,-1,-2,3,0
1532381195335,-1,1,1,6,-3,-4,2,-1
1532381195340,3,-2,0,-5,3,2,1,-4
1532381195345,-9,-2,-3,3,-2,3,2,-1
1532381195350,7,-1,-2,-11,-4,-10,-2,-3
1532381195355,-2,1,-1,1,-1,8,0,0
1532381195360,11,0,2,5,0,-14,-9,-1
1532381195365,2,0,2,3,4,13,6,0
1532381195370,-4,0,-5,-3,-5,-7,-4,0
1532381195375,4,-2,-3,-2,-3,-1,-2,4
1532381195380,-3,0,-1,2,2,0,0,-7
1532381195385,2,2,2,0,0,-1,1,1
1532381195390,-2,-4,0,3,2,4,0,0
1532381195395,1,-1,1,-1,0,1,0,2
1532381195400,-4,-3,-1,-1,-2,1,0,1
1532381195405,0,-2,0,-1,2,-3,3,0
1532381195410,-1,1,-1,-3,-3,-2,4,-5
1532381195415,-2,-2,-2,-7,-3,-2,0,-1
1532381195420,-3,-1,-3,-2,0,1,2,2
1532381195425,3,0,0,7,0,-2,-2,-1
1532381195430,-4,0,1,-2,-1,3,0,0
1532381195435,-1,0,-1,-1,-1,-2,-4,-1
1532381195440,-3,1,0,0,0,3,-2,0
1532381195445,1,-1,-7,-9,-4,-4,-1,-1
1532381195450,-2,-1,-3,2,1,11,2,1
1532381195455,2,-1,1,0,-2,-10,-2,-4
1532381195460,-9,-2,-4,-2,-3,-2,-1,-1
1532381195465,-1,-5,-2,1,0,-5,-3,-3
1532381195470,-1,1,0,4,3,4,1,1
1532381195475,11,0,1,-2,-1,3,-7,1
1532381195480,2,0,-2,5,1,-2,8,0
1532381195485,-7,-3,-4,-13,-6,0,-2,-1
1532381195490,3,0,-3,-3,-1,-4,-5,-6
1532381195495,-4,1,3,3,1,-11,7,2
1532381195500,-2,1,2,5,1,4,3,-2
1532381195505,-2,1,-1,-2,0,-4,-3,0
1532381195510,-1,-2,1,0,1,0,2,2
1532381195515,-4,0,-2,-2,-2,4,1,-5
1532381195520,-3,-2,-5,-5,-5,-2,-2,1
1532381195525,3,1,3,3,2,-1,5,-4
1532381195530,-2,0,3,0,-2,-4,1,2
1532381195535,-2,-2,-3,0,-2,0,-6,-6
1532381195540,2,-3,-3,-9,0,0,1,0
1532381195545,1,-2,1,3,-1,5,1,0
1532381195550,0,0,0,-1,3,-4,-8,2
1532381195555,-4,0,-1,-2,-2,2,4,-2
1532381195560,-2,-1,2,-2,1,1,3,-1
1532381195565,0,0,-1,7,-2,-7,-4,-2
1532381195570,-1,-1,-4,-8,-4,2,6,1
1532381195575,0,0,1,5,0,-1,4,2
1532381195580,-1,0,-1,-8,-2,2,-5,-3
1532381195585,-1,0,1,2,2,-5,1,2
1532381195590,-4,-3,1,7,1,6,2,-2
1532381195595,5,-1,-4,-5,-4,-5,-3,1
1532381195600,-9,0,-2,-5,-2,4,-6,-4
1532381195605,-3,-4,0,-1,-4,-12,-1,0
1532381195610,-2,-1,-2,1,3,13,9,-2
1532381195615,-1,-1,-2,-7,-5,-5,-10,-2
1532381195620,-2,-1,0,2,-1,-4,5,2
1532381195625,0,1,0,0,2,4,-8,-1
1532381195630,0,-2,-3,-6,-5,-6,-2,-1
1532381195635,-3,1,1,5,0,-4,10,-2
1532381195640,3,0,-2,-6,1,5,-2,2
1532381195645,2,0,-3,-2,2,-5,-1,-1
1532381195650,-4,0,1,-5,-9,-9,-2,-6
1532381195655,2,-1,-2,3,2,17,13,-3
1532381195660,-5,-3,-2,-6,-2,-13,0,5
1532381195665,6,-2,3,3,4,23,-9,-5
1532381195670,7,2,2,4,4,1,10,-1
1532381195675,-24,19,-4,-5,-11,-34,-36,-11
1532381195680,5,-38,-1,0,1,23,35,8
1532381195685,-7,5,0,-3,-7,-18,-9,-1
1532381195690,-1,-3,0,3,4,9,9,9
1532381195695,-4,30,3,9,13,-3,-5,3
1532381195700,-1,-41,-1,-10,-7,-3,-4,-10
1532381195705,1,8,-6,-13,-11,-22,-3,3
1532381195710,0,-2,3,7,14,40,7,-1
1532381195715,-4,-9,-7,-7,-4,-1,20,9
1532381195720,8,24,1,1,-9,-18,-16,-15
1532381195725,1,-11,1,5,-5,3,16,-13
1532381195730,0,2,0,8,12,-19,-39,3
1532381195735,2,-11,2,-3,0,15,27,5
1532381195740,1,14,0,4,-2,-15,-13,1
1532381195745,-4,-4,0,-4,-2,4,0,4
1532381195750,-2,3,0,-2,-12,-35,-1,-2
1532381195755,5,-9,-1,-8,7,31,9,4
1532381195760,-3,6,-1,3,-5,-17,-22,-10
1532381195765,2,6,1,7,6,-6,-3,5
1532381195770,-2,-6,-2,-6,-1,1,-9,-2
1532381195775,5,-10,-1,1,-3,-16,15,2
1532381195780,0,8,-1,-4,-10,-37,4,-1
1532381195785,-5,-2,3,5,5,29,-3,-3
1532381195790,-2,0,0,2,-1,-6,-13,-4
1532381195795,1,-7,-2,-2,-6,-1,-9,-7
1532381195800,0,7,0,7,3,13,4,1
1532381195805,-1,-2,-1,5,3,3,3,3
1532381195810,1,-4,-7,-17,-13,-4,12,-2
1532381195815,-1,-5,-3,-3,-2,-31,-21,-5
1532381195820,-1,4,4,12,9,5,2,5
1532381195825,14,2,4,4,6,15,4,4
1532381195830,-17,-5,-5,-5,-11,-27,-4,-4
1532381195835,5,-3,-2,-12,-6,20,2,0
1532381195840,-1,1,0,3,0,6,1,-2
1532381195845,0,-3,-2,-5,-1,-24,4,-1
1532381195850,3,3,0,5,8,24,-3,-1
1532381195855,-2,-3,-1,3,-2,-8,-6,-3
1532381195860,0,1,-3,-6,0,15,-2,0
1532381195865,-2,1,-1,1,-2,-11,2,0
1532381195870,3,0,1,0,-6,-24,-2,0
1532381195875,1,-2,2,7,7,43,-6,2
1532381195880,-2,-1,-1,-4,3,-15,-3,-2
1532381195885,-5,-3,-6,-3,-1,-7,-12,-4
1532381195890,1,-1,-1,-4,-3,11,8,3
1532381195895,-1,-3,0,2,-1,-9,-6,-6
1532381195900,5,3,-3,4,1,-2,-8,2
1532381195905,-3,-2,-2,-8,-3,13,5,-6
1532381195910,0,-1,-2,-5,0,-14,-12,-1
1532381195915,11,0,2,8,6,15,7,4
1532381195920,3,0,2,-3,2,14,3,2
1532381195925,0,-1,-1,-1,-7,-8,2,-3
1532381195930,-6,-2,0,3,6,14,2,2
1532381195935,-4,-2,-2,-5,-6,-16,-1,-5
1532381195940,-4,-1,-2,-2,-2,5,9,-2
1532381195945,3,-2,-2,-6,-1,8,0,0
1532381195950,2,0,0,0,-3,12,18,-1
1532381195955,-4,-1,3,1,-2,-19,-14,-1
1532381195960,2,1,0,-4,5,19,2,2
1532381195965,-3,-1,-6,-4,-5,7,4,3
1532381195970,-1,-1,-1,-1,-4,-4,-6,-5
1532381195975,-5,0,-1,7,3,-10,11,1
1532381195980,1,-3,3,-3,-2,-23,-22,-2
1532381195985,-6,-2,-2,-1,5,50,4,2
1532381195990,4,-1,-1,-5,-8,-23,-10,-3
1532381195995,0,-2,-2,0,-1,5,9,-2
1532381196000,-6,-3,-2,4,3,4,4,-1
1532381196005,2,2,5,-1,8,-33,-10,11
1532381196010,1,-4,-1,-2,3,27,11,3
1532381196015,-6,-1,-5,-8,-15,1,25,-11
1532381196020,-2,-1,-3,2,-3,5,8,-6
1532381196025,-1,-2,0,0,2,-10,-10,-2
1532381196030,-1,2,-1,7,0,-2,7,0
1532381196035,1,-1,3,-8,3,-9,-26,2
1532381196040,5,0,-6,-8,-6,-4,12,4
1532381196045,-15,-1,-1,-2,-5,2,7,-4
1532381196050,3,-1,0,-1,3,5,-6,-9
1532381196055,-2,0,-2,2,-3,-20,-1,-3
1532381196060,-3,0,-1,10,-2,-9,-13,-2
1532381196065,4,-1,0,-8,0,-1,-20,0
1532381196070,-3,1,1,3,-3,5,10,1
1532381196075,0,-2,0,1,8,24,3,5
1532381196080,6,-1,-2,2,9,43,20,8
1532381196085,-4,-3,-6,-6,-16,-41,-11,-9
1532381196090,-2,-2,0,0,1,7,-1,-1
1532381196095,5,0,-1,-2,3,9,-3,7
1532381196100,-3,0,1,2,-4,-25,12,-5
1532381196105,-1,-4,-1,1,7,23,2,2
1532381196110,1,-1,-4,-4,-4,-29,-12,-1
1532381196115,-1,-3,0,3,0,12,-3,0
1532381196120,-6,1,3,1,-4,-16,-9,-7
1532381196125,-2,-1,-1,-3,-4,-13,6,-4
1532381196130,-1,1,-3,-3,-4,-13,-7,-1
1532381196135,-2,0,-3,-9,-6,-23,-7,-7
1532381196140,3,0,0,-1,4,11,-18,0
1532381196145,0,-1,1,4,4,-1,9,-5
1532381196150,-2,-3,2,1,-1,17,11,1
1532381196155,-4,1,0,-1,-2,2,4,-1
1532381196160,-2,0,0,-5,-4,-3,0,-1
1532381196165,1,0,-3,4,-1,9,8,1
1532381196170,2,-1,1,-5,9,4,5,3
1532381196175,0,1,-1,2,-1,-14,-26,-4
1532381196180,-1,-2,-4,-6,1,-1,10,0
1532381196185,1,0,1,0,2,11,5,1
1532381196190,-2,0,1,0,-5,2,6,0
1532381196195,1,-1,-1,7,2,8,6,1
1532381196200,1,1,-1,-8,-1,-1,-16,3
1532381196205,2,2,4,6,2,5,-7,1
1532381196210,1,1,1,2,2,-1,1,2
1532381196215,-2,0,-3,-7,-2,-5,6,-3
1532381196220,-5,-2,-1,0,-2,3,5,-1
1532381196225,-1,0,-2,-5,1,-5,-5,1
1532381196230,-2,-2,-2,1,-1,8,17,-2
1532381196235,1,-1,0,0,-2,-4,-2,-1
1532381196240,1,-1,-2,-3,2,0,2,-2
1532381196245,-1,2,2,-1,-4,-11,-11,-2
1532381196250,-1,-1,0,3,2,-2,-9,0
1532381196255,3,-2,-4,2,3,4,14,2
1532381196260,-4,-3,-1,-4,-6,0,10,-5
1532381196265,2,-1,-1,3,-1,5,5,0
1532381196270,-2,-3,-5,-8,-2,-4,1,0
1532381196275,-4,-1,-2,-1,-3,-2,-20,-3
1532381196280,-2,-2,3,-2,-3,5,12,1
1532381196285,2,2,-1,5,2,-19,-16,0
1532381196290,-3,-2,-1,-5,-1,2,2,0
1532381196295,-1,-1,2,8,1,-5,-8,-2
1532381196300,-4,0,-3,-3,-8,-32,-3,-2
1532381196305,1,-1,-1,-2,-3,-13,9,-3
1532381196310,-15,1,1,1,1,3,-3,0
1532381196315,3,-2,-8,-10,-3,4,6,-6
1532381196320,3,0,1,3,2,-1,10,0
1532381196325,-4,0,1,2,2,-4,-5,2
1532381196330,13,3,1,1,1,-16,-11,-2
1532381196335,-14,-3,0,1,-3,-18,5,3
1532381196340,0,0,0,1,10,12,2,-4
1532381196345,-5,-2,-4,-4,-11,-26,4,-6
1532381196350,1,-3,-3,-2,0,12,-4,0
1532381196355,-4,-2,-4,-7,-14,-6,12,-10
1532381196360,5,2,2,5,5,19,0,-1
1532381196365,0,-1,1,1,-2,3,-10,1
1532381196370,1,1,-2,-1,-3,-5,9,2
1532381196375,0,-3,0,5,7,17,-26,3
1532381196380,-5,-2,-1,-1,-9,-21,-4,-2
1532381196385,-2,-2,-2,-4,4,-15,-10,0
1532381196390,-2,0,-4,-6,-4,10,-6,-2
1532381196395,6,1,2,3,5,-7,8,5
1532381196400,2,0,0,4,0,2,-16,-1
1532381196405,-1,0,-1,-1,4,36,26,5
1532381196410,-6,-2,-2,5,-9,-23,-8,-9
1532381196415,-2,-2,-5,-9,-5,-1,16,-2
1532381196420,1,-2,-1,-7,-1,-23,-20,-4
1532381196425,-3,-6,-1,-4,4,-12,-15,-2
1532381196430,0,0,-4,-4,-18,7,8,-6
1532381196435,-1,0,-1,5,7,1,0,-4
1532381196440,-2,0,-2,3,-1,-13,2,3
1532381196445,1,-1,-3,-4,-1,8,7,6
1532381196450,0,-1,1,-5,9,5,-2,-1
1532381196455,-1,-1,-1,4,-12,-7,3,-6
1532381196460,-1,-1,-2,-4,-14,-26,2,-2
1532381196465,-1,-2,-3,-2,7,36,-2,-3
1532381196470,3,0,6,9,12,28,21,8
1532381196475,-1,-1,-3,-9,-11,-6,13,1
1532381196480,11,2,0,0,8,9,-6,3
1532381196485,-23,0,0,1,-18,-8,6,-2
1532381196490,4,2,4,12,6,-12,-13,1
1532381196495,0,-1,3,-10,16,24,3,-2
1532381196500,-9,-5,-8,-6,-13,-24,-12,-10
1532381196505,13,2,1,-1,-2,6,4,-3
1532381196510,3,0,-4,-1,-4,-4,-6,-1
1532381196515,-3,-1,2,1,-1,-6,-2,0
1532381196520,1,0,3,4,8,19,-5,9
1532381196525,2,1,-3,1,0,-10,-16,-3
1532381196530,-4,-3,-1,-6,4,-1,2,0
1532381196535,5,-2,-2,-3,8,8,7,3
1532381196540,-3,2,-1,-3,-4,15,4,-1
1532381196545,1,1,4,9,4,8,12,-2
1532381196550,1,-1,1,3,-2,-5,-11,2
1532381196555,-4,-2,-3,-4,-4,-10,-15,-2
1532381196560,2,-3,4,1,10,4,25,2
1532381196565,0,0,-1,0,3,-1,17,4
1532381196570,7,-1,-4,-2,-5,-15,-16,-1
1532381196575,-11,4,5,9,5,19,-18,3
1532381196580,-2,-3,-2,-2,8,38,-8,2
1532381196585,1,-2,-7,-9,-30,-40,8,-16
1532381196590,-5,-2,-4,-8,-1,-4,1,-3
1532381196595,9,0,-2,2,-3,-12,-5,1
1532381196600,1,0,-2,-2,-2,-1,-3,2
1532381196605,-7,-2,1,8,16,5,-13,-7
1532381196610,-1,-1,-2,-4,-3,3,-3,0
1532381196615,-1,1,1,1,-5,-5,7,-6
1532381196620,-3,-2,-1,9,3,-5,-14,-5
1532381196625,3,-3,-7,-3,1,9,-2,7
1532381196630,-2,-3,-3,-14,-4,4,-1,-1
1532381196635,0,-3,-2,-4,5,-22,20,8
1532381196640,-7,-3,-4,-8,-22,-21,13,-19
1532381196645,-1,-3,1,3,-10,17,-5,-2
1532381196650,-3,1,1,6,12,-28,-5,-2
1532381196655,3,-1,-2,1,-17,29,16,4
1532381196660,1,-1,0,-4,14,14,16,6
1532381196665,-5,2,2,-2,2,23,25,-1
1532381196670,2,-2,-1,1,3,-2,-7,4
1532381196675,1,-2,0,6,7,7,-10,4
1532381196680,1,2,-1,-2,-6,2,0,-3
1532381196685,10,5,9,8,23,3,-51,22
1532381196690,-1,-1,1,5,-1,38,9,-6
1532381196695,1,0,-2,0,0,-10,-5,-4
1532381196700,-3,-3,-1,1,-1,1,-6,-2
1532381196705,1,1,0,-2,2,-31,-11,-7
1532381196710,-4,-2,0,-1,0,10,11,3
1532381196715,0,-2,-5,-4,-9,-36,-24,-7
1532381196720,8,-1,-1,3,10,16,11,3
1532381196725,-8,0,-4,-10,-5,-8,-23,-1
1532381196730,-2,-3,-1,2,-1,21,5,-8
1532381196735,-3,-1,-1,-8,-9,-35,-46,-8
1532381196740,-3,5,2,8,-13,-17,-1,-8
1532381196745,3,-2,-2,-7,2,7,-1,-1
1532381196750,-3,-2,-2,-2,7,16,0,0
1532381196755,2,2,3,4,-6,-5,-2,3
1532381196760,-3,1,2,2,16,4,-8,6
1532381196765,-3,-4,-7,-1,0,9,23,-5
1532381196770,-1,-2,-3,-7,-19,-60,-26,1
1532381196775,2,5,6,8,11,68,36,6
1532381196780,-2,-2,-1,-4,-8,-8,2,-3
1532381196785,-1,0,0,-2,-7,2,11,-2
1532381196790,2,-1,0,2,0,-31,-7,-5
1532381196795,-1,0,2,8,19,18,4,2
1532381196800,-2,-5,-4,-2,1,-5,30,13
1532381196805,0,5,2,3,-10,2,-13,-10
1532381196810,-3,-1,1,-1,5,34,-3,-4
1532381196815,2,-2,-3,-6,-13,-13,5,-8
1532381196820,-5,-1,-4,-6,-2,-6,0,-4
1532381196825,6,-1,2,6,13,9,6,15
1532381196830,-5,0,0,-5,-9,2,38,-4
1532381196835,0,-2,0,8,5,6,-19,2
1532381196840,0,-2,-1,-2,-12,-1,-18,-15
1532381196845,-5,-8,-7,-10,-5,-16,34,3
1532381196850,-7,4,-2,10,0,-45,40,-17
1532381196855,-1,-4,-9,-35,-39,15,6,-2
1532381196860,-1,-2,-1,0,6,-3,-4,2
1532381196865,8,-1,-1,1,-4,3,0,0
1532381196870,-4,1,4,10,25,11,-8,11
1532381196875,-2,0,2,4,1,-22,5,-3
1532381196880,1,0,-4,-5,-11,-3,4,-11
1532381196885,-8,-5,-5,-8,0,-7,-1,-1
1532381196890,3,1,0,7,3,-18,-31,-9
1532381196895,6,2,6,8,11,1,0,3
1532381196900,-20,-2,1,6,1,4,4,-3
1532381196905,18,3,13,-18,-48,-35,4,-11
1532381196910,0,3,-12,14,17,35,-10,6
1532381196915,-23,-4,-2,1,23,22,0,1
1532381196920,-2,-2,-2,-6,0,-3,4,5
1532381196925,-5,-1,1,6,5,-21,-26,4
1532381196930,4,-2,2,-18,-21,-5,-7,1
1532381196935,-3,1,0,2,-10,-9,18,-9
1532381196940,5,0,0,5,15,21,-7,5
1532381196945,-8,0,-3,-2,6,3,-9,-6
1532381196950,13,1,4,-1,-15,-1,14,18
1532381196955,-6,-3,-5,7,15,-8,-22,6
1532381196960,12,2,4,-3,0,-6,-19,-9
1532381196965,2,0,-1,8,0,12,-11,-3
1532381196970,-8,-5,-4,-7,-6,-1,-11,-5
1532381196975,4,-4,-3,-4,28,44,11,1
1532381196980,7,4,3,5,-38,-94,11,2
1532381196985,-15,2,2,4,0,3,-23,5
1532381196990,1,-3,-4,-6,5,1,-17,4
1532381196995,1,2,1,-2,-2,-8,-2,-11
1532381197000,3,-2,-2,-1,17,47,0,4
1532381197005,0,2,0,8,7,0,8,3
1532381197010,-1,-3,-2,-2,-15,-52,2,-8
1532381197015,4,-3,-6,-4,0,11,9,-6
1532381197020,-23,-4,-4,-9,10,35,-10,-3
1532381197025,4,-2,-4,-7,-32,-51,-7,-9
1532381197030,-3,-2,0,-1,11,18,24,-1
1532381197035,3,-1,0,2,-16,-11,5,-3
1532381197040,10,2,1,1,11,7,-9,8
1532381197045,-16,-3,4,5,7,14,-6,-6
1532381197050,-2,1,1,-8,-5,-2,1,-5
1532381197055,13,-1,-5,-5,-4,16,-5,0
1532381197060,-11,1,-2,-5,-18,-5,1,-1
1532381197065,-8,-2,-2,3,21,26,13,15
1532381197070,10,4,-1,0,-5,11,-2,3
1532381197075,0,-4,2,2,1,5,10,6
1532381197080,7,-2,-1,0,4,0,17,-2
1532381197085,7,4,0,-1,8,-2,-13,-2
1532381197090,-6,-2,-1,0,-2,18,23,-4
1532381197095,-3,0,-3,-2,-14,-24,0,0
1532381197100,10,-1,-3,-2,11,1,-9,0
1532381197105,-8,2,-2,-2,-12,-9,10,-14
1532381197110,-4,-4,-1,-2,2,-2,-2,10
1532381197115,3,4,-1,0,-7,-18,-3,-15
1532381197120,19,-6,-1,-2,-4,-19,1,-1
1532381197125,-14,-3,-4,-3,4,-2,28,-3
1532381197130,-3,0,0,0,14,23,-19,0
1532381197135,-6,-1,1,-1,-8,-17,-17,-1
1532381197140,-6,0,-3,-1,-6,4,-7,1
1532381197145,10,-3,-1,-2,7,-7,1,6
1532381197150,0,-1,-1,1,-6,-1,-2,-4
1532381197155,-3,0,3,3,-2,-5,6,2
1532381197160,-3,1,1,2,0,-29,-11,1
1532381197165,6,1,-3,-11,2,52,15,6
1532381197170,-2,-2,0,-1,-3,-2,-17,-2
1532381197175,-2,-1,-2,-1,2,-2,4,0
1532381197180,-7,0,0,2,-2,19,-3,-2
1532381197185,5,-1,2,4,-12,-14,-7,-3
1532381197190,1,0,2,2,17,-28,-4,2
1532381197195,-4,-2,-2,-3,-1,12,2,0
1532381197200,-4,1,0,-1,3,-4,7,1
1532381197205,4,-3,-1,1,5,-1,-16,2
1532381197210,-2,0,-2,-5,-13,-4,16,0
1532381197215,-3,0,-2,0,-1,-20,-4,-2
1532381197220,-1,-2,-1,0,-2,11,8,-4
1532381197225,3,0,-2,1,9,13,3,3
1532381197230,1,-2,2,0,-4,-8,-2,-2
1532381197235,-4,-3,-4,-1,6,23,6,3
1532381197240,-3,-1,-4,-5,-12,-8,7,-1
1532381197245,1,0,-2,-1,3,7,0,-3
1532381197250,-3,1,-2,0,1,2,-4,1
1532381197255,1,0,0,-2,-6,-10,5,2
1532381197260,-1,-1,1,0,2,5,-2,0
1532381197265,0,-3,0,1,-4,-1,-4,-2
1532381197270,0,0,0,1,5,5,9,-3
1532381197275,-1,0,0,-2,-5,-16,-2,-2
1532381197280,-1,-2,-1,-1,2,28,0,0
1532381197285,-2,-1,-3,-2,-1,-18,-4,-3
1532381197290,-1,-1,-3,-3,-8,12,6,-4
1532381197295,-1,0,-1,-1,-4,-16,-6,-3
1532381197300,-1,1,1,2,0,-8,-5,0
1532381197305,0,-2,-1,4,3,-5,-1,-3
1532381197310,0,0,-2,-8,-1,20,-7,3
1532381197315,-1,2,0,2,-5,-9,6,1
1532381197320,-2,1,2,3,-5,-8,-1,-2
1532381197325,-2,-2,-1,-4,1,-1,1,-3
1532381197330,0,-3,-5,-7,-8,-8,3,2
1532381197335,1,0,0,1,2,4,-2,0
1532381197340,0,0,-1,1,0,-15,-3,1
1532381197345,1,1,2,4,1,1,2,-2
1532381197350,-1,-2,3,5,2,-15,-19,0
1532381197355,0,-1,-3,-4,1,5,-10,-1
1532381197360,-1,1,1,-1,-3,1,7,0
1532381197365,-2,-1,-4,-3,-2,-11,-9,3
1532381197370,-3,-2,-1,-1,-2,9,5,-8
1532381197375,-3,-3,-1,1,-1,-12,1,-5
1532381197380,3,-1,0,-3,-16,21,-3,2
1532381197385,-2,-1,-1,1,25,-6,-3,1
1532381197390,-4,1,1,1,-1,2,-2,-4
1532381197395,3,-2,0,-1,-4,-41,-5,-1
1532381197400,-2,-1,-1,1,4,13,6,-1
1532381197405,1,-2,-3,-7,-9,20,-1,5
1532381197410,0,2,2,8,-1,-25,-10,-2
1532381197415,-4,1,-2,-7,-1,-20,2,-4
1532381197420,-2,-2,-6,-6,0,-5,-5,-4
1532381197425,-1,0,-3,5,-8,10,6,0
1532381197430,-1,1,14,39,7,-11,1,-4
1532381197435,2,1,9,-18,-2,29,0,4
1532381197440,-3,-7,-31,-51,-5,-7,-4,-2
1532381197445,0,-1,-6,4,-4,6,2,-6
1532381197450,1,0,-1,-10,-6,-1,5,2
1532381197455,1,2,5,16,8,9,4,2
1532381197460,-3,1,6,7,3,4,-1,-2
1532381197465,-6,-4,-5,-8,-8,-14,-13,-5
1532381197470,8,-1,-4,4,4,16,-7,3
1532381197475,-13,0,1,5,2,8,-1,-2
1532381197480,2,1,4,5,0,-9,-6,-5
1532381197485,2,0,1,-1,5,4,4,-1
1532381197490,-2,2,0,2,-10,2,9,1
1532381197495,4,-2,2,15,16,4,-5,1
1532381197500,-2,-1,-6,-27,-8,4,2,-2
1532381197505,-4,1,2,-3,-4,-11,-10,1
1532381197510,-1,-2,-9,-22,-1,24,5,-1
1532381197515,1,-1,-4,10,12,39,1,-1
1532381197520,-3,0,5,20,-4,-66,8,4
1532381197525,3,0,7,5,11,19,9,-1
1532381197530,-1,0,2,8,-8,-20,-17,1
1532381197535,3,-2,-3,-37,1,-3,2,-6
1532381197540,-2,0,-2,13,-16,-6,-7,-3
1532381197545,7,-1,-3,-10,22,15,3,4
1532381197550,-4,-4,-3,2,-1,-9,9,-6
1532381197555,2,2,0,8,-10,-8,0,2
1532381197560,-2,-3,4,-1,-2,11,-4,-4
1532381197565,1,1,0,5,-8,-8,4,3
1532381197570,-17,-4,-4,-7,-8,12,5,19
1532381197575,21,2,-1,-8,-6,-53,4,-18
1532381197580,3,0,-2,-1,4,73,4,-2
1532381197585,-10,1,3,15,-10,-9,-1,-1
1532381197590,6,0,-1,-8,10,6,4,2
1532381197595,-9,-2,-3,1,-12,-1,-3,6
1532381197600,-5,-1,7,-9,7,-2,0,2
1532381197605,7,-2,-11,-12,-28,-13,4,2
1532381197610,0,-1,-1,5,17,4,-23,-6
1532381197615,-4,0,-5,-11,-20,6,15,2
1532381197620,1,3,7,18,10,1,-5,-5
1532381197625,-4,-1,2,0,1,-15,6,0
1532381197630,0,-1,-4,-14,-17,-4,1,-5
1532381197635,-5,0,-4,8,2,-2,-6,3
1532381197640,2,0,2,9,7,-5,6,-3
1532381197645,-4,0,3,-7,9,-5,-6,-8
1532381197650,-1,-2,-3,6,-14,-41,-1,-4
1532381197655,2,1,1,2,-2,18,4,0
1532381197660,-5,-2,1,-9,3,15,-9,-1
1532381197665,1,-1,-6,-7,7,13,-3,0
1532381197670,1,-1,-3,-4,-1,-13,4,-4
1532381197675,-5,0,0,4,-2,18,-8,7
1532381197680,1,-1,-3,5,-6,-47,2,-1
1532381197685,-4,-1,2,4,3,38,4,-6
1532381197690,0,2,1,-2,-1,-3,7,-1
1532381197695,-4,-3,-4,1,-9,1,3,-1
1532381197700,2,1,-1,-3,7,4,0,4
1532381197705,-3,-4,-1,6,17,10,-3,-2
1532381197710,0,-1,4,15,2,16,-1,0
1532381197715,0,0,10,0,-1,-24,0,3
1532381197720,4,1,9,20,4,6,3,14
1532381197725,0,1,2,-11,-7,-17,0,-5
1532381197730,-3,0,-4,1,-3,-4,-2,-4
1532381197735,1,0,3,10,10,23,-5,4
1532381197740,0,0,-1,-10,-4,-7,0,-7
1532381197745,-2,-1,-5,-3,9,0,0,3
1532381197750,-4,-2,-1,9,-1,-14,2,-4
1532381197755,-1,1,3,3,-7,-34,-2,-1
1532381197760,0,-3,-1,-20,-3,22,-2,-2
1532381197765,-1,-2,-5,2,-6,-6,-1,3
1532381197770,1,1,3,18,10,19,-1,3
1532381197775,-2,-1,3,-15,-8,-32,1,-2
1532381197780,0,-5,-9,-2,2,5,3,-4
1532381197785,0,-2,-1,-3,-8,-2,0,2
1532381197790,-2,1,2,16,-8,9,0,-1
1532381197795,2,2,10,-7,33,10,4,4
1532381197800,-1,-5,-8,-12,-38,-16,-1,-5
1532381197805,-1,-1,-6,-3,10,13,-2,3
1532381197810,1,-1,-2,4,9,15,-1,0
1532381197815,-1,3,-1,1,-17,-22,-2,0
1532381197820,1,2,4,6,16,10,3,1
1532381197825,0,0,0,14,18,12,4,-3
1532381197830,-4,-2,1,-20,-38,-3,-4,-1
1532381197835,1,-1,-4,2,3,-23,-1,0
1532381197840,-2,-1,-5,-12,-3,16,3,-1
1532381197845,3,0,3,13,27,-9,-4,0
1532381197850,1,-2,-2,-3,-30,8,-1,-3
1532381197855,-2,1,2,8,18,-20,-2,1
1532381197860,-3,-1,2,-9,0,-15,0,-2
1532381197865,-1,-3,-3,-19,-15,-7,3,4
1532381197870,-1,0,-3,7,20,8,8,0
1532381197875,1,-2,3,20,4,-2,4,-3
1532381197880,3,3,1,-14,-11,-6,7,-3
1532381197885,-2,0,2,9,-11,-4,-6,2
1532381197890,2,-4,1,-14,9,-2,2,-2
1532381197895,-1,-6,-17,-13,-28,-8,-4,1
1532381197900,-3,2,0,18,30,-14,0,-1
1532381197905,3,4,-1,-3,-19,-3,-2,0
1532381197910,0,1,-2,2,14,-8,-2,-1
1532381197915,-11,-11,6,12,-3,0,-4,-2
1532381197920,-3,0,0,-7,-8,8,-3,4
1532381197925,-4,-5,-7,-10,-1,-29,-4,-1
1532381197930,0,0,-2,4,0,19,-3,2
1532381197935,3,1,0,-6,-7,-15,-2,-4
1532381197940,0,-1,2,16,8,11,0,-3
1532381197945,0,5,9,-1,2,6,-4,3
1532381197950,-2,-7,-16,-22,-7,-13,-1,-5
1532381197955,0,2,-8,-11,2,17,-1,6
1532381197960,3,6,2,16,9,8,2,3
1532381197965,0,-1,-4,-11,-15,-13,4,-1
1532381197970,0,2,12,34,38,3,9,-1
1532381197975,-3,-2,-6,-39,-35,5,-3,-1
1532381197980,-2,-2,3,19,20,-10,-3,1
1532381197985,-1,0,-3,-14,-2,18,-6,0
1532381197990,-2,-7,-16,-22,4,-9,-6,-5
1532381197995,-2,0,-1,9,8,-1,-4,-4
1532381198000,5,7,15,47,32,8,-1,1
1532381198005,-4,-6,-4,-18,-24,-7,-4,1
1532381198010,-5,-1,2,-18,-22,-21,1,-2
1532381198015,3,1,-8,2,-11,-7,4,-2
1532381198020,-1,-3,3,-12,4,-7,-2,0
1532381198025,4,0,4,36,15,20,2,-2
1532381198030,1,4,6,-1,53,0,-3,1
1532381198035,-6,-1,-1,-11,-31,1,1,2
1532381198040,-7,-7,-8,-39,-54,0,-4,-1
1532381198045,-2,2,4,17,32,-5,3,2
1532381198050,-1,-4,-1,12,0,8,-1,-2
1532381198055,3,2,3,15,10,-15,3,-4
1532381198060,-6,-5,-6,4,37,8,-6,-4
1532381198065,-1,-6,-14,-56,-26,13,-4,-7
1532381198070,-7,2,5,-1,-63,-44,-1,5
1532381198075,-3,-2,1,1,5,35,3,-3
1532381198080,-3,-1,-2,9,19,-17,-5,0
1532381198085,-2,1,2,8,-67,-11,-10,-6
1532381198090,-4,-2,1,-12,31,52,-22,3
1532381198095,-5,-1,-12,-2,9,5,-2,0
1532381198100,-6,-7,-12,-29,-26,-12,3,-3
1532381198105,-3,-2,-5,1,-2,-19,12,-3
1532381198110,2,-1,3,13,-12,-13,9,-3
1532381198115,4,4,13,27,49,28,4,4
1532381198120,3,4,2,0,0,11,10,1
1532381198125,0,0,0,-3,6,-13,4,3
1532381198130,-3,3,-4,-10,-27,-22,4,-4
1532381198135,-3,1,4,8,34,-11,5,-7
1532381198140,6,1,-2,5,-11,-22,0,-3
1532381198145,-1,-1,1,-1,22,59,-5,5
1532381198150,2,-1,-2,8,21,22,2,1
1532381198155,0,0,-3,-12,-28,-39,-2,0
1532381198160,-1,-2,2,1,-1,9,-2,-3
1532381198165,-7,0,0,-1,-8,-33,1,-4
1532381198170,-9,-3,-1,4,10,16,0,-2
1532381198175,-15,0,1,4,-5,21,-6,2
1532381198180,-15,-4,-5,-14,-13,-4,-10,-1
1532381198185,-12,-3,-5,-1,19,5,-2,-2
1532381198190,-8,4,6,23,10,3,4,2
1532381198195,2,-1,8,-8,-11,-13,3,-1
1532381198200,-2,-3,-8,-16,-12,2,-2,0
1532381198205,-2,0,0,18,14,-4,2,0
1532381198210,-4,0,1,-14,-11,1,3,-3
1532381198215,-3,0,-6,-4,-12,-12,1,-1
1532381198220,-1,-1,1,0,26,15,2,0
1532381198225,4,-2,5,35,39,-3,5,-8
1532381198230,6,1,-3,-18,-56,-34,-1,3
1532381198235,4,-5,-6,-38,-24,14,-10,1
1532381198240,9,-1,6,28,32,-21,8,2
1532381198245,8,0,0,-7,12,34,5,3
1532381198250,2,-1,-2,-19,-22,-6,-4,2
1532381198255,8,-2,1,14,-18,-5,1,-1
1532381198260,6,-2,-9,-25,-17,-3,2,-5
1532381198265,8,4,2,3,-3,-23,1,1
1532381198270,9,0,2,18,13,1,4,-3
1532381198275,6,-3,0,-2,8,23,-6,1
1532381198280,4,-1,2,7,0,38,-4,2
1532381198285,1,-4,0,-1,-9,-6,-3,-2
1532381198290,3,-2,-10,-21,-9,-4,-1,0
1532381198295,3,2,2,10,23,0,3,-2
1532381198300,3,3,25,7,-9,-16,1,0
1532381198305,1,-21,-29,-25,-12,-3,-5,-1
1532381198310,-7,-20,-23,18,20,6,-7,1
1532381198315,-3,0,6,-15,-8,-22,2,-6
1532381198320,-1,-2,45,-8,-14,-2,5,-3
1532381198325,-3,-2,-28,-6,-14,-5,-3,-4
1532381198330,5,40,19,9,18,8,5,-7
1532381198335,-9,-59,-102,-1,-3,-11,-7,2
1532381198340,-9,-63,-54,-10,-18,-11,-13,9
1532381198345,0,9,34,6,-2,-8,7,2
1532381198350,2,-3,57,17,4,11,9,-17
1532381198355,-7,26,54,-1,31,7,-4,15
1532381198360,11,24,-12,-7,-8,6,-2,-4
1532381198365,3,-8,9,-2,3,-1,-4,0
1532381198370,1,13,-15,-3,1,11,-7,-2
1532381198375,7,24,17,24,11,-8,-1,-12
1532381198380,5,-6,-12,13,-5,21,-5,3
1532381198385,3,-9,10,-1,1,-30,4,1
1532381198390,2,0,8,11,6,-6,1,-4
1532381198395,3,-8,-4,-6,-15,-25,4,2
1532381198400,-7,-23,-18,-19,3,-9,-5,0
1532381198405,-8,-11,2,-8,-16,-4,-5,-1
1532381198410,-7,1,9,-6,-13,-5,-3,-4
1532381198415,-10,-2,11,12,25,4,0,-3
1532381198420,-7,-20,-31,2,15,-11,1,2
1532381198425,-3,0,10,6,8,13,-4,-1
1532381198430,-8,2,-8,-8,-22,-7,-5,0
1532381198435,-3,-2,6,12,23,-21,5,-4
1532381198440,-2,2,16,-3,16,9,5,-2
1532381198445,-1,-6,-12,-18,-36,2,3,-3
1532381198450,-1,-5,-3,1,-11,-12,-1,1
1532381198455,0,2,0,6,24,12,2,-1
1532381198460,0,-3,2,4,9,-8,-3,0
1532381198465,5,4,1,4,10,3,2,2
1532381198470,1,3,0,-10,-14,0,3,-2
1532381198475,-1,-4,-5,0,-1,6,-3,2
1532381198480,-1,6,16,7,1,-19,-1,2
1532381198485,3,-3,-4,0,9,18,-2,-5
1532381198490,-1,15,-3,-5,0,11,-4,0
1532381198495,-5,-13,21,-6,2,0,1,2
1532381198500,0,1,-48,-4,-9,-11,-2,0
1532381198505,1,-2,17,4,5,4,0,2
1532381198510,-2,-4,0,-1,-5,-11,6,-2
1532381198515,0,4,-9,-6,-5,0,-2,0
1532381198520,1,5,19,5,6,1,-1,0
1532381198525,-1,3,2,-6,-19,5,10,-6
1532381198530,-1,-3,-5,2,5,7,-4,3
1532381198535,-1,-1,-3,2,25,5,3,-5
1532381198540,1,-1,5,-5,-25,-1,-6,1
1532381198545,-5,0,-6,-7,-11,-27,1,2
1532381198550,-3,-6,2,6,11,18,-1,-2
1532381198555,-1,-2,-8,-3,-1,10,3,0
1532381198560,-2,-5,5,8,12,7,2,-3
1532381198565,3,2,1,2,2,6,1,0
1532381198570,-3,2,-1,-8,-17,-17,-1,-5
1532381198575,-3,-2,-7,1,5,6,-10,-2
1532381198580,-6,-11,-7,-6,3,5,-2,-1
1532381198585,2,3,6,1,-5,-1,-4,-2
1532381198590,-2,-3,-2,-1,10,12,-1,3
1532381198595,-1,6,6,-3,-20,-14,3,-2
1532381198600,2,0,-10,-3,4,-14,-3,-2
1532381198605,-3,-6,-5,-7,-9,4,-4,-3
1532381198610,4,-2,0,2,18,1,-4,-4
1532381198615,-4,-2,-6,-8,-53,-20,-2,1
1532381198620,-3,1,7,4,40,3,-4,-1
1532381198625,-1,1,3,2,-3,4,-4,2
1532381198630,-1,-5,-11,-8,-23,-39,6,-6
1532381198635,-3,1,11,18,25,42,8,6
1532381198640,-1,-3,-3,-14,-17,-26,4,-2
1532381198645,3,13,6,12,16,16,6,7
1532381198650,-5,-9,-5,-7,-30,-13,-3,-3
1532381198655,-3,-2,-7,6,36,22,-3,-3
1532381198660,-4,-7,0,2,-25,-13,0,2
1532381198665,0,0,0,-1,1,20,-2,-3
1532381198670,-5,-3,0,-9,-23,-16,-7,-5
1532381198675,2,10,-1,-4,-10,-9,8,3
1532381198680,-4,-7,-3,2,8,15,-2,-4
1532381198685,-5,-2,0,2,3,-5,-7,-3
1532381198690,-1,3,1,3,2,-1,3,-1
1532381198695,0,-2,-7,-9,-10,-1,-1,-5
1532381198700,4,5,4,5,25,-17,-3,-1
1532381198705,1,-4,-6,-15,-49,-24,3,-3
1532381198710,0,1,3,14,26,46,0,3
1532381198715,-2,-5,-7,-3,12,-22,-7,0
1532381198720,-1,3,4,-1,-4,18,0,4
1532381198725,1,-4,-2,-1,-4,-21,-2,-5
1532381198730,2,5,5,13,2,-2,-1,0
1532381198735,4,-5,-6,-22,-16,-9,-1,1
1532381198740,1,3,5,14,3,10,2,1
1532381198745,-2,-2,1,-8,8,13,3,-3
1532381198750,3,1,1,-10,-4,-8,3,0
1532381198755,-2,-1,0,2,8,-1,0,-2
1532381198760,3,1,1,9,-4,-1,4,-5
1532381198765,2,-1,0,-6,-9,13,-2,1
1532381198770,-5,-4,-5,-21,22,-18,-3,1
1532381198775,0,0,-5,-6,-19,-7,-5,-2
1532381198780,-1,-2,-1,-9,3,-12,6,1
1532381198785,-1,2,2,23,6,2,-4,0
1532381198790,0,4,4,14,60,64,3,10
1532381198795,-1,1,-5,-6,-36,-19,-2,-7
1532381198800,-5,-2,-4,-3,-5,3,1,1
1532381198805,3,2,2,0,-6,-19,6,-2
1532381198810,-1,-3,2,9,-8,-2,0,0
1532381198815,1,-3,1,0,13,-3,5,3
1532381198820,3,1,-1,-5,-3,7,-2,-3
1532381198825,-1,-6,-4,0,1,-9,1,-4
1532381198830,-2,-4,-6,-14,-12,-15,-3,-4
1532381198835,-1,-2,2,2,8,8,1,1
1532381198840,3,-4,-2,16,14,9,3,-3
1532381198845,-2,-2,-5,-9,-12,-29,-9,-3
1532381198850,0,2,-5,-10,-9,-6,1,-1
1532381198855,-2,-1,-2,1,7,4,-2,-2
1532381198860,0,3,2,7,-25,6,-1,0
1532381198865,1,-3,-3,-18,45,7,-1,2
1532381198870,2,2,3,10,-2,-23,0,-3
1532381198875,-1,-2,-6,-15,-32,-8,2,-2
1532381198880,-2,-2,-2,6,11,1,-5,0
1532381198885,0,-1,-2,4,10,4,-2,-1
1532381198890,1,1,1,-3,-1,28,-1,0
1532381198895,-2,-4,2,3,18,-11,-3,0
1532381198900,-2,-1,-1,-3,-14,-3,-1,-1
1532381198905,-3,-5,-3,-2,-6,1,1,-4
1532381198910,1,2,5,27,21,-1,7,1
1532381198915,-1,1,-3,-35,-29,-11,-2,-1
1532381198920,-2,-2,-2,-5,-12,8,0,-2
1532381198925,-3,0,-2,-7,-26,9,0,1
1532381198930,2,1,2,22,68,-23,4,-5
1532381198935,-4,-6,-1,11,-21,-12,2,-4
1532381198940,-4,1,0,-2,-21,-4,1,4
1532381198945,2,0,-5,-3,51,-1,3,-6
1532381198950,-2,-3,-5,-18,-36,19,-2,9
1532381198955,-1,1,3,27,75,22,-5,1
1532381198960,-1,-2,-1,-10,-4,-4,-5,1
1532381198965,-2,-1,3,12,-17,-15,0,1
1532381198970,3,-1,-2,-4,-19,-18,-2,-4
1532381198975,0,-5,-6,-9,-22,-10,1,-5
1532381198980,0,-1,4,20,36,0,0,-3
1532381198985,-2,1,-3,-13,-3,8,-1,3
1532381198990,-5,-2,-1,-8,-16,3,-6,0
1532381198995,-3,1,1,2,-10,5,-2,1
1532381199000,0,1,-3,-9,8,-9,1,-5
1532381199005,-2,-2,1,5,-14,0,0,-2
1532381199010,-2,-1,-1,-6,-9,5,-6,0
1532381199015,0,-4,-1,7,17,10,4,-1
1532381199020,-1,2,-1,-9,-23,-17,-3,0
1532381199025,0,2,0,4,5,6,0,-1
1532381199030,2,-1,-2,-5,-18,-9,3,-2
1532381199035,4,6,5,7,19,2,-3,0
1532381199040,1,1,2,3,4,2,1,-1
1532381199045,1,-3,-5,-15,-23,-35,-7,-3
1532381199050,1,2,4,6,19,43,3,7
1532381199055,2,-2,-7,-5,-15,-8,1,1
1532381199060,-2,-1,-3,-8,-6,-7,-1,-5
1532381199065,0,2,2,9,4,1,2,-1
1532381199070,2,1,1,1,-8,-23,3,-4
1532381199075,-1,-1,-5,-22,-7,8,-2,2
1532381199080,-1,-1,-5,-15,-15,14,-11,2
1532381199085,-2,-3,3,22,47,1,2,1
1532381199090,-4,-3,-5,-27,-50,-10,-4,-6
1532381199095,-1,2,6,15,-15,3,-5,-3
1532381199100,1,-3,-4,-4,32,14,5,1
1532381199105,-4,-1,-5,-21,-65,-19,-5,-1
1532381199110,0,-5,-5,-11,27,3,0,0
1532381199115,2,1,4,6,-15,-14,-1,0
1532381199120,-1,-2,-4,-3,0,18,-7,-5
1532381199125,2,3,4,16,28,18,-5,3
1532381199130,-1,0,2,12,5,-8,5,1
1532381199135,-2,-1,-2,-8,-11,-5,6,-5
1532381199140,2,-2,1,6,2,-12,10,0
1532381199145,1,-4,3,11,31,10,8,1
1532381199150,1,-1,-5,-18,-41,-11,0,-1
1532381199155,1,2,2,7,54,39,-2,7
1532381199160,0,-2,-1,7,19,6,0,-3
1532381199165,0,-3,-2,4,2,7,-2,-2
1532381199170,-2,0,2,9,12,-1,-3,-1
1532381199175,2,1,-6,-18,-23,-15,-1,0
1532381199180,-1,0,-1,5,1,-1,-4,-2
1532381199185,0,0,-1,1,-11,-19,2,-3
1532381199190,-1,2,2,8,8,17,2,2
1532381199195,-2,1,-2,0,1,7,-1,0
1532381199200,0,0,-1,0,6,-1,-1,-1
1532381199205,0,0,3,3,16,5,1,0
1532381199210,1,-1,-2,-15,-15,-7,0,-2
1532381199215,-1,0,1,5,-1,3,-1,1
1532381199220,-2,0,-2,-3,-4,-1,-3,-4
1532381199225,0,-1,-1,5,-8,-1,0,-3
1532381199230,0,0,0,-3,0,5,2,-1
1532381199235,-2,-3,-3,-2,1,14,0,-1
1532381199240,0,-2,0,6,4,-8,3,2
1532381199245,2,-1,0,-2,1,6,1,-1
1532381199250,-2,0,-1,-4,-5,-7,0,-1
1532381199255,-1,-3,-1,-5,-15,-4,-3,-2
1532381199260,-1,-1,-1,2,6,0,-4,0
1532381199265,-2,-4,-3,-3,-4,-2,7,1
1532381199270,1,-2,-2,-6,-5,9,3,-3
1532381199275,-2,4,3,2,5,-10,2,0
1532381199280,-1,-4,-2,-1,-4,-6,-3,-5
1532381199285,-1,-1,-1,-4,0,5,7,2
1532381199290,3,-1,0,4,-1,-10,-11,3
1532381199295,-1,-3,-2,-4,-7,5,9,-4
1532381199300,0,-2,1,0,8,24,-5,-3
1532381199305,-1,2,4,16,14,-50,-13,-3
1532381199310,-2,0,-3,-3,19,4,9,-2
1532381199315,-1,-2,-5,-29,-63,-11,-11,-1
1532381199320,-1,0,-5,-7,17,17,0,1
1532381199325,-2,-1,-3,-2,5,1,-8,3
1532381199330,1,1,10,41,24,6,-1,-4
1532381199335,1,-1,-6,-32,-10,-15,-6,-3
1532381199340,0,-2,-1,-14,-58,0,2,0
1532381199345,2,-2,-3,-12,65,21,-1,-1
1532381199350,-1,1,2,10,12,6,1,7
1532381199355,0,-2,-1,6,10,13,4,0
1532381199360,-2,-3,-3,-5,-34,-13,-5,1
1532381199365,-1,0,-5,-7,-12,4,4,-1
1532381199370,-4,-3,-5,-4,17,0,1,-4
1532381199375,-1,-5,0,2,-2,-1,2,-4
1532381199380,2,3,5,9,20,-5,2,3
1532381199385,0,0,0,-1,-27,4,3,-2
1532381199390,-1,-2,-2,5,8,1,0,0
1532381199395,-3,1,0,5,-5,-10,-3,0
1532381199400,-1,-1,-4,6,9,-18,7,-2
1532381199405,-2,-2,-3,-12,-25,12,-4,-4
1532381199410,-1,-1,-1,-7,-8,7,-3,-1
1532381199415,0,0,1,11,4,-6,-1,-1
1532381199420,-4,-2,0,13,-16,-12,1,-4
1532381199425,-3,0,-6,-16,12,14,-4,-1
1532381199430,0,-2,-2,-10,-15,3,1,1
1532381199435,1,1,0,7,10,-6,2,3
1532381199440,-1,-1,1,12,8,-2,-2,0
1532381199445,0,2,2,3,-7,15,-5,-2
1532381199450,0,-3,-5,-10,-22,-22,0,-3
1532381199455,1,-1,-1,2,3,8,0,0
1532381199460,0,2,1,-1,9,-5,-4,-2
1532381199465,-2,-4,-2,3,-5,-9,1,-3
1532381199470,-1,-2,1,-13,-17,-24,-5,1
1532381199475,-1,0,2,13,36,27,6,-3
1532381199480,-1,-2,-1,-10,-19,-6,-4,1
1532381199485,-1,0,0,3,-5,-7,-2,-2
1532381199490,-2,-2,-2,-4,-6,-4,-5,-3
1532381199495,0,2,1,5,1,-5,2,1
1532381199500,0,-2,-4,-3,15,11,-2,-3
1532381199505,0,0,1,-1,-10,-9,0,1
1532381199510,2,1,2,4,2,-3,-2,2
1532381199515,-1,-2,-1,3,1,2,0,-2
1532381199520,-2,0,-1,-4,10,-2,0,2
1532381199525,1,-1,0,2,-2,-14,-1,-2
1532381199530,2,1,0,-2,-2,7,1,-3
1532381199535,2,0,-4,-17,-16,-12,1,1
1532381199540,1,-5,-2,0,-2,-9,-6,-3
1532381199545,-1,-3,-2,5,-2,9,1,-4
1532381199550,-2,-1,-3,-3,-7,-33,-3,-1
1532381199555,-2,0,0,-1,0,18,-8,-2
1532381199560,0,-1,-2,3,9,3,-3,0
1532381199565,-3,1,0,1,2,7,-3,-5
1532381199570,-1,-5,-2,-7,-9,-2,0,3
1532381199575,-2,-2,-2,4,2,-23,0,-1
1532381199580,1,1,0,-3,2,5,-3,-2
1532381199585,0,0,2,4,-4,-6,-2,-1
1532381199590,-2,1,0,-1,-2,9,1,-3
1532381199595,-2,-1,1,2,3,-2,-6,-2
1532381199600,0,2,-2,0,5,-1,0,0
1532381199605,0,-9,-4,-8,-7,0,5,8
1532381199610,1,2,5,3,0,2,-3,0
1532381199615,0,-2,3,13,11,-3,-1,-2
1532381199620,0,-2,-8,-11,-28,-12,0,-12
1532381199625,-1,1,-7,-3,5,9,-2,-2
1532381199630,1,-2,-2,-2,8,9,-2,0
1532381199635,0,1,2,-19,-13,2,2,2
1532381199640,-3,-3,-3,-10,-2,-20,1,0
1532381199645,1,-3,-4,-5,5,24,2,-4
1532381199650,2,-1,-4,-8,-16,-7,-1,0
1532381199655,0,2,3,8,-3,-18,-1,-1
1532381199660,0,3,7,18,28,9,-1,6
1532381199665,1,-2,0,1,-20,-6,2,-1
1532381199670,-2,-1,-6,-8,6,8,1,-5
1532381199675,-3,-3,-4,-1,4,0,-1,-2
1532381199680,-2,-2,0,-7,-8,-5,3,3
1532381199685,-4,1,3,6,7,-8,-6,1
1532381199690,-2,0,2,6,0,-3,-2,-1
1532381199695,-2,-2,-4,-5,-2,25,0,-2
1532381199700,-1,0,0,2,19,10,5,2
1532381199705,0,-2,1,0,-6,-5,2,-4
1532381199710,1,2,-1,-4,-32,-40,3,-1
1532381199715,-1,-4,1,5,26,18,-3,4
1532381199720,-1,-2,-4,-1,2,8,3,-1
1532381199725,1,-1,-2,0,6,2,2,0
1532381199730,0,-1,0,-1,-2,3,0,-2
1532381199735,0,0,-1,3,-13,-15,3,-3
1532381199740,1,-1,-2,-6,-5,1,0,-4
1532381199745,1,3,3,1,2,-13,-3,3
1532381199750,-4,-5,-6,-6,-1,2,-3,-2
1532381199755,1,-1,0,4,0,-5,-6,-1
1532381199760,-2,-1,1,6,11,10,-2,0
1532381199765,-2,-1,0,10,-7,-23,-5,-2
1532381199770,0,-1,-6,-18,-7,7,0,-5
1532381199775,-3,-5,-2,-2,-16,10,-4,3
1532381199780,0,4,1,0,6,-2,1,2
1532381199785,1,0,-1,4,5,-4,2,1
1532381199790,-1,1,2,10,8,5,-2,0
1532381199795,-1,-4,-5,-4,2,3,4,-4
1532381199800,0,-5,-5,-11,-17,2,1,-6
1532381199805,1,4,1,-5,-7,-5,0,0
1532381199810,-4,-11,-6,-1,4,3,0,-5
1532381199815,-2,3,3,4,6,-5,-2,3
1532381199820,2,1,3,5,0,0,-2,0
1532381199825,2,0,1,-4,0,1,0,1
1532381199830,0,3,-1,3,1,-1,5,2
1532381199835,-1,-1,-4,-2,0,-2,-2,-3
1532381199840,-1,-1,-1,7,5,-1,-3,-2
1532381199845,0,1,5,3,12,-4,-3,-1
1532381199850,3,2,9,23,8,-21,-8,1
1532381199855,-2,-2,-9,-37,-10,7,-8,-3
1532381199860,-2,-1,-1,-33,-75,8,-9,3
1532381199865,-2,-4,-3,19,-6,1,5,-4
1532381199870,-3,-1,1,6,39,0,2,-2
1532381199875,0,-3,-8,-16,-2,-22,10,1
1532381199880,-2,1,2,20,15,-7,-3,-5
1532381199885,-3,3,-2,-27,-36,-5,-6,-1
1532381199890,-3,-3,-1,-1,-4,-2,6,3
1532381199895,-2,0,5,12,13,13,5,0
1532381199900,-3,-3,-2,2,7,-12,0,-7
1532381199905,1,1,1,2,6,12,3,3
1532381199910,-2,0,-1,-5,-3,-9,1,0
1532381199915,0,0,1,0,-9,8,-4,1
1532381199920,0,-5,-5,-4,-1,-3,0,-4
1532381199925,-2,-1,-1,3,14,12,-1,-2
1532381199930,-2,-1,-3,-12,-12,-2,-6,2
1532381199935,-1,-1,2,12,0,-9,-3,0
1532381199940,2,0,-3,1,-1,8,0,0
1532381199945,1,1,2,-6,-9,-6,-2,-4
1532381199950,1,1,-3,-4,2,0,-2,-2
1532381199955,0,0,1,-2,-13,-5,0,0
1532381199960,-1,0,0,7,13,-9,1,-1
1532381199965,2,0,0,0,0,14,-6,-4
1532381199970,1,0,-1,-3,-6,5,8,2
1532381199975,1,0,1,4,7,-9,0,-1
1532381199980,-2,-1,1,-1,8,15,-4,4
1532381199985,0,0,-2,-4,1,0,1,-1
1532381199990,-3,-2,0,-3,-8,-7,-4,-4
1532381199995,1,-1,-3,-2,-2,2,-2,-1
1532381200000,0,-1,0,-2,3,-1,0,-1
1532381200005,0,-2,-1,0,-4,-11,-1,0
1532381200010,-1,0,-1,-3,0,1,1,2
1532381200015,-1,1,0,-3,-9,4,5,-2
1532381200020,-1,-4,-3,-2,6,5,0,0
1532381200025,-2,0,1,2,-6,-18,7,0
1532381200030,-1,0,-1,-2,4,19,1,-3
1532381200035,-1,-1,0,-1,-1,4,-3,-1
1532381200040,0,-1,1,3,6,-3,1,-2
1532381200045,0,-2,-3,-4,0,-15,-4,1
1532381200050,3,-2,0,-2,-13,-9,3,-2
1532381200055,0,-1,-1,1,1,16,1,0
1532381200060,2,-1,2,27,29,11,4,2
1532381200065,-2,1,-5,-31,-17,-23,-11,-5
1532381200070,0,-1,-2,-10,-18,2,0,1
1532381200075,0,-2,-3,-7,-13,-1,1,0
1532381200080,1,-2,0,2,6,-10,-5,-3
1532381200085,7,2,3,21,14,20,5,2
1532381200090,6,3,10,13,10,-1,0,-2
1532381200095,5,1,3,-3,7,-8,-4,-3
1532381200100,1,-4,-16,-31,-32,1,5,-2
1532381200105,-3,-5,-14,-15,5,7,0,0
1532381200110,-2,-7,-10,-13,-20,-8,-1,-7
1532381200115,-4,-2,5,9,3,4,-8,3
1532381200120,-2,4,14,33,-14,-7,1,2
1532381200125,-5,-2,1,14,32,10,0,0
1532381200130,0,4,10,50,52,-10,1,-2
1532381200135,0,-3,-8,-59,-40,23,-2,0
1532381200140,8,2,4,27,0,-8,3,-3
1532381200145,-3,-6,-5,-25,21,2,-3,1
1532381200150,-8,13,-3,-3,5,-2,-6,3
1532381200155,2,-8,-5,-19,-9,-16,5,-6
1532381200160,-7,1,-5,-16,21,17,-7,2
1532381200165,-1,2,5,16,2,11,5,-1
1532381200170,-5,1,-2,-3,-11,-21,-1,-1
1532381200175,-1,2,-1,10,-20,8,1,1
1532381200180,-13,-5,-8,-26,-3,-1,0,-5
1532381200185,2,0,1,15,-11,-24,6,0
1532381200190,-3,-7,-2,-6,-6,26,1,0
1532381200195,-4,2,-1,15,1,2,-4,-3
1532381200200,-2,-17,-3,-6,0,-3,-6,2
1532381200205,1,24,-1,-1,-8,4,5,-2
1532381200210,3,-3,0,-13,-20,-13,-5,-3
1532381200215,-1,-25,0,16,28,-4,-2,-5
1532381200220,0,11,-1,-9,-14,-1,4,2
1532381200225,-4,2,-2,3,-5,10,-1,0
1532381200230,3,-2,4,-1,4,7,0,-3
1532381200235,0,13,0,5,15,-4,-1,-2
1532381200240,4,-1,-1,-11,-11,2,-4,-2
1532381200245,0,6,2,0,-4,-6,5,1
1532381200250,-1,-5,-3,0,1,14,-6,3
1532381200255,2,15,5,-1,4,-25,-2,2
1532381200260,-1,-6,-3,-6,-8,-13,1,-2
1532381200265,-3,-7,-4,-3,-4,1,-3,-2
1532381200270,-3,6,-1,-6,-7,0,1,-2
1532381200275,-3,-3,0,6,2,14,2,-1
1532381200280,-4,-4,2,7,14,0,-5,-3
1532381200285,-6,5,-2,-17,-20,-4,-4,1
1532381200290,0,-5,0,-3,3,-14,0,0
1532381200295,-1,1,1,13,-8,29,8,1
1532381200300,-3,-7,-2,-4,11,-6,-8,-1
1532381200305,-2,3,-1,7,4,1,-5,-3
1532381200310,0,-2,-2,-5,-7,-10,1,-1
1532381200315,-2,-5,-1,4,8,1,0,0
1532381200320,0,6,-2,-1,-8,0,5,-1
1532381200325,-1,-1,0,3,-3,-3,4,1
1532381200330,2,-6,0,7,16,8,2,-2
1532381200335,-2,0,-7,-13,-20,-16,0,-1
1532381200340,-2,-3,-1,4,3,-14,-4,-1
1532381200345,-1,-1,1,-3,0,22,-6,-4
1532381200350,0,-2,3,12,9,7,3,0
1532381200355,-2,-1,-4,-23,-15,0,-1,-2
1532381200360,0,-2,-1,4,8,6,0,-1
1532381200365,0,-1,1,3,-12,-10,-1,3
1532381200370,2,2,1,30,58,2,9,-4
1532381200375,-2,-5,-8,-37,-68,3,-6,0
1532381200380,-2,-1,1,-9,-15,-3,3,3
1532381200385,-1,-2,-5,-8,12,-3,-1,0
1532381200390,-1,-2,0,6,-29,7,0,-1
1532381200395,-2,-1,2,15,55,-7,-3,-3
1532381200400,-1,-4,-5,-21,-23,-3,-1,1
1532381200405,1,2,2,-2,-5,0,0,-1
1532381200410,0,-3,-2,-10,-18,-4,-5,0
1532381200415,-2,-3,0,13,18,-6,2,-1
1532381200420,0,-1,2,10,-1,-3,0,-3
1532381200425,-1,0,3,6,15,8,4,-2
1532381200430,0,-1,0,-8,-14,-14,1,-1
1532381200435,3,-1,1,8,6,1,-1,2
1532381200440,-4,-4,0,-1,6,8,-2,-3
1532381200445,-2,3,0,1,-8,-7,1,-3
1532381200450,-2,-3,-9,-17,-8,-1,-1,-8
1532381200455,0,-5,1,2,-22,-33,3,3
1532381200460,3,2,4,5,5,20,-4,0
1532381200465,0,-1,1,3,5,0,0,3
1532381200470,-2,1,-3,-12,-33,-5,-1,0
1532381200475,-3,3,-1,11,31,3,-2,-6
1532381200480,0,4,7,44,68,5,4,-6
1532381200485,-4,-7,-12,-52,-83,-20,-10,3
1532381200490,-1,-2,-3,-9,10,23,1,2
1532381200495,-2,1,0,-1,-2,-4,-3,-1
1532381200500,-1,5,0,4,5,3,6,2
1532381200505,0,2,1,22,13,-5,-3,-4
1532381200510,3,-1,4,8,41,-7,-3,2
1532381200515,-6,-1,-3,-27,-52,8,-2,1
1532381200520,2,-4,-9,-20,-22,1,-10,-3
1532381200525,3,-1,0,12,15,7,21,3
1532381200530,-2,0,-3,-6,-2,4,-5,-5
1532381200535,1,0,1,13,28,8,6,2
1532381200540,-1,-3,-3,-8,-19,-22,-13,-2
1532381200545,5,-1,0,4,2,-12,13,-2
1532381200550,2,1,3,4,1,37,1,5
1532381200555,0,-3,-2,1,5,-14,-5,-3
1532381200560,-2,-5,-4,-10,-13,-6,-4,0
1532381200565,-1,-2,2,10,18,12,-13,-7
1532381200570,2,-1,-4,-19,-12,-40,10,-2
1532381200575,-2,2,1,6,4,17,4,0
1532381200580,2,-2,-1,-4,-10,6,8,0
1532381200585,-2,0,-1,-4,17,0,-6,-3
1532381200590,-4,-1,-4,-6,-7,2,10,1
1532381200595,2,0,-1,-2,-2,2,-6,-5
1532381200600,4,0,5,4,13,-2,7,1
1532381200605,4,1,-1,5,-15,-9,1,-2
1532381200610,9,1,3,11,14,3,-5,2
1532381200615,15,-2,-4,-17,-34,-23,1,0
1532381200620,13,-1,-5,-15,-3,13,0,-1
1532381200625,22,-3,-4,1,17,5,-2,1
1532381200630,24,0,-1,-6,-10,-8,-5,2
1532381200635,34,3,8,39,31,14,-3,-1
1532381200640,31,1,2,-5,-9,-12,1,-2
1532381200645,41,-4,-9,-31,-20,-2,-3,-2
1532381200650,17,-5,-7,7,7,-25,-8,-3
1532381200655,14,-1,-4,-2,10,22,1,1
1532381200660,-1,-1,1,8,-8,-5,-3,1
1532381200665,-2,2,5,15,17,2,2,-1
1532381200670,41,-2,2,-6,-12,-4,-5,0
1532381200675,46,1,1,2,3,-9,-2,0
1532381200680,22,-2,-5,-10,-4,-3,0,1
1532381200685,-20,0,0,5,1,-3,0,-3
1532381200690,-64,-3,0,-5,-11,3,0,-3
1532381200695,-87,-6,-1,-11,-2,3,-1,-2
1532381200700,-76,-4,-2,4,10,5,5,-2
1532381200705,-60,0,3,6,9,1,3,-2
1532381200710,-37,3,1,-2,-12,10,0,-1
1532381200715,-24,1,-2,1,7,-4,5,-1
1532381200720,-16,0,-1,-5,-7,-10,-5,-4
1532381200725,-10,-1,1,-1,-1,21,6,2
1532381200730,-3,1,-2,1,4,-39,-20,-3
1532381200735,-12,-2,-2,-2,-4,15,13,-3
1532381200740,-3,2,0,-6,-20,0,-3,-4
1532381200745,5,-2,1,5,11,-7,-6,-3
1532381200750,5,0,-1,-3,5,-1,-7,0
1532381200755,4,-2,4,24,56,-9,-1,-1
1532381200760,-2,-5,-8,-25,-89,-9,-5,-4
1532381200765,-7,-1,-1,-2,20,3,5,3
1532381200770,-9,1,1,4,7,19,-3,0
1532381200775,-12,2,1,1,20,-6,1,1
1532381200780,-5,0,2,7,-11,7,7,3
1532381200785,-10,0,-2,3,9,-3,-5,-3
1532381200790,-13,-3,-1,-5,-13,8,6,0
1532381200795,-9,-1,-2,1,6,1,1,-1
1532381200800,-4,-1,-1,3,19,-12,-6,-2
1532381200805,-4,1,1,8,-31,-16,-7,-2
1532381200810,-6,-3,-6,-17,-6,-4,3,0
1532381200815,4,2,1,0,-35,-8,-6,-4
1532381200820,-1,-2,-2,-1,38,-11,-6,0
1532381200825,3,0,0,3,0,-7,1,-1
1532381200830,2,-1,2,10,10,9,3,-2
1532381200835,4,-2,-2,-9,-24,-15,-9,-2
1532381200840,6,2,-1,8,29,33,-1,-2
1532381200845,6,1,0,-1,-26,2,-2,-1
1532381200850,4,-3,-3,-8,1,8,-1,1
1532381200855,3,-1,-3,-13,-10,-3,1,0
1532381200860,4,-4,-1,3,14,1,9,-2
1532381200865,4,-2,-1,2,20,10,1,1
1532381200870,5,1,4,21,16,7,9,-4
1532381200875,2,-1,-5,-41,-87,0,-11,0
1532381200880,3,0,1,5,10,-1,6,4
1532381200885,3,-2,-1,3,15,-14,-3,-1
1532381200890,1,-1,-6,-37,-46,6,1,-1
1532381200895,2,-3,3,11,31,2,1,-1
1532381200900,2,0,1,8,-2,-1,-2,-1
1532381200905,-1,-5,-1,-2,-12,-1,-2,0
1532381200910,2,1,0,11,16,0,1,-2
1532381200915,1,0,0,3,5,1,1,-1
1532381200920,-1,-1,-2,-9,-9,-5,-3,0
1532381200925,3,1,1,-3,1,-3,-1,-1
1532381200930,-1,-3,-3,-1,0,-12,-2,-4
1532381200935,0,0,-3,6,7,-9,0,2
1532381200940,1,2,5,10,4,16,-1,1
1532381200945,-2,-1,-1,2,3,1,2,1
1532381200950,0,-2,-8,-9,-11,-3,2,-1
1532381200955,-2,0,-2,-9,8,-2,-1,-2
1532381200960,4,-2,0,23,46,-10,-4,-2
1532381200965,2,-1,5,5,-8,6,-2,-4
1532381200970,0,-1,2,-16,-27,1,0,1
1532381200975,0,-6,-5,5,4,-24,-1,-2
1532381200980,0,1,-1,-5,19,-21,-2,-1
1532381200985,0,1,-3,-6,-22,17,-7,0
1532381200990,0,1,0,13,27,19,6,2
1532381200995,2,0,2,32,12,13,-9,0
1532381201000,3,0,13,-2,-4,-25,3,-7
1532381201005,1,-4,-8,-46,-43,-11,5,2
1532381201010,-1,-1,-11,-3,13,21,-4,-1
1532381201015,-2,-2,-4,-10,-4,18,1,-2
1532381201020,2,-1,-6,6,1,0,7,5
1532381201025,5,3,7,18,1,-18,-8,-10
1532381201030,-1,-1,6,2,-16,-8,2,-6
1532381201035,3,3,-1,1,35,3,4,11
1532381201040,-2,0,-4,-6,-16,1,-3,0
1532381201045,-1,-1,-4,-6,11,20,3,2
1532381201050,2,-1,-1,7,3,-17,-2,-2
1532381201055,-3,0,1,0,-7,-14,4,-11
1532381201060,0,-2,-4,-11,-19,4,1,-3
1532381201065,-2,-1,-5,-3,0,-6,-1,1
1532381201070,1,0,-1,3,8,1,1,1
1532381201075,0,-2,1,-5,-6,-7,-5,0
1532381201080,0,-1,-3,-11,-16,-6,-1,-2
1532381201085,-2,-1,-2,9,14,17,1,-5
1532381201090,1,3,5,8,30,-8,-7,4
1532381201095,2,-1,-5,-33,-60,6,0,0
1532381201100,-2,-2,-6,-7,-7,9,-6,4
1532381201105,-2,-1,-3,4,16,-8,1,-6
1532381201110,2,0,4,10,-3,-7,-2,-2
1532381201115,0,-1,0,3,4,3,-3,0
1532381201120,-2,-2,-2,1,6,5,0,-1
1532381201125,2,-2,-5,-14,-14,-10,-2,1
1532381201130,-2,1,1,3,-6,-4,0,0
1532381201135,-2,-2,0,-1,7,1,-1,-2
1532381201140,1,-1,0,-1,-10,-6,-1,0
1532381201145,-2,-1,2,3,7,4,6,0
1532381201150,-1,-6,0,-3,-9,0,-7,3
1532381201155,2,-1,-1,5,11,4,5,1
1532381201160,1,5,1,0,10,1,2,-2
1532381201165,-1,-4,0,-4,-31,-5,2,1
1532381201170,-2,-2,-2,1,6,1,2,-3
1532381201175,-1,-1,-1,-4,2,-2,-1,0
1532381201180,0,-3,-3,-6,-5,0,-2,-2
1532381201185,3,1,1,6,13,2,1,-1
1532381201190,-1,2,2,0,-7,-1,-2,1
1532381201195,-4,-1,1,6,5,5,-6,-5
1532381201200,-3,0,-3,-7,-1,1,0,-4
1532381201205,1,-2,-1,-5,-5,-2,-4,-1
1532381201210,-3,1,1,7,9,-1,1,0
1532381201215,-1,-1,2,1,15,-5,2,0
1532381201220,-1,-1,4,-2,-22,-2,-6,1
1532381201225,0,0,-4,-1,8,0,-4,-2
1532381201230,0,-2,-5,-10,-10,2,-4,-1
1532381201235,1,1,1,5,4,-5,-3,-4
1532381201240,-1,-1,4,8,5,7,3,2
1532381201245,0,-1,-3,-3,-1,-4,6,-3
1532381201250,0,-1,3,7,1,0,8,0
1532381201255,-1,-1,-7,-9,-6,0,1,-3
1532381201260,-1,-2,-4,-10,-3,-1,-6,-6
1532381201265,0,-2,1,6,-1,-1,-2,7
1532381201270,-2,-1,-1,-6,-1,-5,-1,-5
1532381201275,1,5,6,4,0,0,-2,2
1532381201280,2,-1,-1,6,0,2,1,1
1532381201285,-1,-4,-5,2,9,1,0,-3
1532381201290,1,2,-2,-8,-4,-2,-1,-2
1532381201295,2,-3,1,9,-1,1,-1,0
1532381201300,-1,-1,-2,-11,-1,-1,6,-1
1532381201305,-2,0,-2,-4,3,-2,1,2
1532381201310,-1,-1,4,9,2,-2,3,-2
1532381201315,0,1,1,8,-6,-7,0,-1
1532381201320,-1,-3,-7,-15,-7,3,-3,-4
1532381201325,-4,-1,-2,-5,-2,-4,-5,-1
1532381201330,-1,-2,-3,-2,-4,3,-2,2
1532381201335,-1,0,3,5,8,10,0,3
1532381201340,-1,-2,-3,7,-1,-8,1,2
1532381201345,0,1,-1,-3,-3,-3,-3,-6
1532381201350,2,0,-3,-2,3,8,-3,4
1532381201355,1,0,1,0,-3,2,-3,-6
1532381201360,0,-1,0,-1,-1,-5,1,2
1532381201365,0,1,-1,6,-1,-17,-3,0
1532381201370,-3,-2,0,1,-1,-3,0,-2
1532381201375,-3,-3,-1,0,-3,-3,6,0
1532381201380,-2,-1,-6,-7,-1,10,3,-3
1532381201385,-4,-3,3,-2,6,5,-1,-3
1532381201390,1,-1,-4,15,5,-4,0,-3
1532381201395,-2,-3,-5,-28,-21,-36,-1,-1
1532381201400,2,1,1,7,12,38,2,-2
1532381201405,-2,1,1,-5,-17,-14,2,2
1532381201410,-1,-1,4,0,0,11,0,-1
1532381201415,-1,-2,-8,4,7,-6,4,0
1532381201420,0,-2,2,6,1,-6,-3,-2
1532381201425,2,2,3,4,9,4,3,0
1532381201430,0,-2,1,-5,-6,1,5,-3
1532381201435,-1,1,-2,-4,0,7,-5,-6
1532381201440,-2,-2,1,-1,-4,-9,1,4
1532381201445,2,-2,-6,-9,-4,5,-2,-3
1532381201450,-3,-1,-2,-7,-5,-13,-1,-3
1532381201455,0,-1,1,6,-3,1,1,0
1532381201460,-3,-2,-1,-7,1,-6,1,-4
1532381201465,-1,0,4,4,5,4,2,3
1532381201470,0,-1,-4,-10,-12,-5,-5,-3
1532381201475,0,-3,-3,0,8,3,4,3
1532381201480,-1,1,2,9,6,18,-2,0
1532381201485,0,-1,0,3,1,-17,0,-1
1532381201490,-2,-1,0,-6,-17,3,5,-1
1532381201495,1,1,1,3,6,8,-2,-3
1532381201500,0,1,1,5,-9,-15,-4,-3
1532381201505,1,-1,0,2,14,20,1,1
1532381201510,0,-3,-5,-5,2,-1,-2,-4
1532381201515,-1,0,0,-4,-5,-4,-1,6
1532381201520,-1,1,-5,-10,1,-9,3,-3
1532381201525,-2,0,2,2,-8,-5,-9,-2
1532381201530,1,2,6,16,3,-1,-1,2
1532381201535,-2,-5,-6,-12,-4,6,11,-1
1532381201540,-1,-2,-6,-9,0,-12,1,0
1532381201545,-3,-3,-8,-13,-5,2,1,1
1532381201550,1,-1,-5,-4,1,8,6,-1
1532381201555,0,0,7,12,7,-7,0,-2
1532381201560,1,3,7,13,0,-3,-2,-1
1532381201565,1,-2,2,10,9,1,-3,-2
1532381201570,-2,-1,-4,-11,-6,-5,2,2
1532381201575,-2,-1,-1,-1,2,9,4,-2
1532381201580,0,-1,0,-1,-12,-22,-3,-2
1532381201585,-1,0,1,3,6,14,4,-3
1532381201590,-1,-1,0,-2,5,-3,-6,-4
1532381201595,-2,-1,-4,-2,-5,2,-2,0
1532381201600,-1,-3,0,-8,2,9,6,-1
1532381201605,-1,1,-2,-4,-6,-8,4,-1
1532381201610,0,-2,-5,-11,-1,-2,-7,-2
1532381201615,-4,-1,-2,-6,1,10,-2,-2
1532381201620,-2,0,3,11,-1,-7,1,1
1532381201625,0,1,0,5,-1,1,0,-1
1532381201630,-1,0,1,-3,-13,-2,-3,0
1532381201635,-2,-1,-2,1,3,-4,2,-1
1532381201640,0,-1,-2,1,2,6,3,-2
1532381201645,-2,-2,-3,2,-2,6,0,-1
1532381201650,0,-1,0,3,19,-15,-2,2
1532381201655,26,0,3,17,-28,-1,-3,-3
1532381201660,24,-1,-2,-24,-2,1,-9,-4
1532381201665,18,-2,-5,-11,-3,-6,-1,0
1532381201670,9,-1,2,0,4,4,8,2
1532381201675,-9,-1,-3,-2,6,2,2,2
1532381201680,-11,0,1,9,-1,-5,-6,1
1532381201685,-9,3,5,8,0,-3,7,1
1532381201690,-13,-2,-3,3,1,20,-4,0
1532381201695,-12,0,-3,-5,0,-21,3,-2
1532381201700,-14,-4,-3,-7,-10,3,3,-1
1532381201705,-11,-2,-2,-8,-3,-1,-4,-1
1532381201710,-6,0,4,12,5,0,-1,-1
1532381201715,-5,-2,2,-6,-13,2,-1,-1
1532381201720,-3,0,-1,7,4,2,0,-1
1532381201725,-5,-2,-7,-11,-4,-1,-1,-5
1532381201730,-3,-2,-2,-8,-5,-1,2,3
1532381201735,-2,-2,-1,8,4,-6,-2,0
1532381201740,-2,-2,2,1,20,3,1,0
1532381201745,-2,0,2,-5,-18,-2,5,-1
1532381201750,-1,-2,-3,-6,-2,6,1,-4
1532381201755,-4,1,-4,-4,-2,-18,-8,0
1532381201760,-3,-3,2,7,4,12,-1,3
1532381201765,1,1,2,15,8,-8,2,-6
1532381201770,2,0,-2,-3,-7,-8,5,-1
1532381201775,0,-3,1,-8,3,11,3,1
1532381201780,-2,-4,-7,-8,-7,-6,9,-2
1532381201785,3,-3,-7,-9,0,7,9,-1
1532381201790,2,3,6,8,1,-10,-2,3
1532381201795,0,1,7,6,0,-3,-6,-2
1532381201800,1,1,-2,-1,-1,11,-15,0
1532381201805,-2,-1,-2,7,-7,-9,-11,2
1532381201810,1,-1,-3,-9,1,-3,7,-2
1532381201815,1,0,-2,0,1,4,2,-3
1532381201820,1,1,1,2,3,2,2,1
1532381201825,2,0,1,6,26,3,-5,-2
1532381201830,-1,-1,-1,-10,-32,-8,1,-1
1532381201835,-2,-1,2,4,8,10,-1,3
1532381201840,0,-4,-7,-15,-12,-16,7,-7
1532381201845,2,1,-1,4,2,9,-3,4
1532381201850,2,0,2,11,6,1,-3,-2
1532381201855,1,-3,-11,-24,-5,4,4,0
1532381201860,0,-3,-1,5,-3,-22,7,-1
1532381201865,-1,0,4,-4,-4,22,3,-1
1532381201870,0,-1,1,4,7,3,2,0
1532381201875,-1,-1,-1,0,-5,-11,2,-1
1532381201880,-1,1,3,5,6,19,0,0
1532381201885,-3,-2,-6,-10,-10,-6,-1,1
1532381201890,-1,0,0,1,4,6,1,-1
1532381201895,0,0,1,-4,3,-5,4,0
1532381201900,-1,0,-1,-10,-5,-3,-2,-4
1532381201905,0,-2,-2,-1,-3,-9,-1,2
1532381201910,1,-2,-1,0,-1,5,6,1
1532381201915,1,0,6,13,3,6,-9,-1
1532381201920,2,-2,-8,-6,13,-15,-3,-1
1532381201925,-1,0,2,-7,-19,3,4,1
1532381201930,-1,0,-2,6,7,-13,-8,-3
1532381201935,0,-3,-1,-9,1,24,-1,-1
1532381201940,0,0,1,6,6,-11,0,3
1532381201945,3,-2,3,8,7,8,3,-3
1532381201950,2,1,0,-5,-5,-21,-13,-2
1532381201955,0,0,3,3,8,5,1,-3
1532381201960,0,-2,0,1,-6,12,-6,-2
1532381201965,0,1,1,6,8,-5,1,3
1532381201970,-2,-4,-5,-18,-11,-1,1,0
1532381201975,-2,1,-3,3,0,-5,-2,-5
1532381201980,-1,0,-2,1,-6,6,-10,-2
1532381201985,-3,-1,-2,-8,-6,-10,-7,2
1532381201990,-2,-1,4,14,9,8,-6,2
1532381201995,-2,-2,-2,-1,-2,-5,-8,-2
1532381202000,-2,0,2,3,-3,14,2,-2
1532381202005,2,1,3,6,24,-11,-13,-2
1532381202010,-5,-1,-8,-11,-40,-7,-12,-1
1532381202015,0,-1,0,2,3,11,-6,2
1532381202020,-2,-1,-5,-6,-8,-8,-4,-2
1532381202025,-1,-1,-1,-1,2,11,-8,-2
1532381202030,0,-2,-3,-1,12,3,4,-2
1532381202035,1,1,4,12,-6,-15,-22,-1
1532381202040,0,1,5,1,2,6,0,-3
1532381202045,-3,-4,-6,-17,-21,-3,2,2
1532381202050,-2,-3,-4,1,6,-3,2,-4
1532381202055,-1,-2,-3,-9,-7,0,10,-1
1532381202060,-1,1,3,7,2,0,-5,0
1532381202065,0,0,-2,2,-1,-7,0,-4
1532381202070,-1,2,4,3,0,-4,1,1
1532381202075,-1,-1,-2,0,2,8,3,0
1532381202080,0,2,0,1,-2,-10,1,3
1532381202085,-2,0,1,3,1,4,-5,-2
1532381202090,-2,-4,-7,-9,-1,3,0,-3
1532381202095,-1,0,-2,-4,2,0,1,-3
1532381202100,0,-2,0,10,0,-1,3,-2
1532381202105,0,1,1,-1,-17,-3,-2,-5
1532381202110,1,-2,0,2,1,3,5,3
1532381202115,-3,-3,-3,-25,-5,-12,2,2
1532381202120,-2,-3,-9,-1,-1,3,1,1
1532381202125,-1,-2,1,6,8,-5,-3,-1
1532381202130,1,1,2,7,3,-34,4,-5
1532381202135,0,2,2,3,-8,20,0,5
1532381202140,-1,0,0,4,4,11,-1,-1
1532381202145,1,-1,1,2,-1,-3,2,-1
1532381202150,-2,-4,-5,-8,-1,0,-2,-1
1532381202155,2,-2,-6,-6,0,2,3,-2
1532381202160,-1,0,1,-6,-7,-25,-8,-1
1532381202165,0,1,-2,4,3,9,0,3
1532381202170,1,-1,3,5,-1,10,2,-4
1532381202175,-2,-2,-4,-5,2,-7,5,1
1532381202180,0,-1,-3,-6,-4,3,6,2
1532381202185,-1,-1,-6,-11,-4,-2,9,-3
1532381202190,-1,1,2,6,6,-2,-3,1
1532381202195,0,3,4,13,1,-5,-8,-4
1532381202200,2,2,6,6,-2,8,3,4
1532381202205,-2,-8,-14,-19,-7,-28,5,2
1532381202210,-1,0,-4,-9,0,14,-3,-3
1532381202215,2,1,0,9,24,-1,3,-4
1532381202220,-2,1,2,-3,-25,-21,-2,-5
1532381202225,0,2,7,17,18,22,-1,2
1532381202230,-3,-4,-7,-17,-2,5,0,6
1532381202235,-4,-5,-8,-9,-4,-11,3,-5
1532381202240,1,0,-1,3,11,18,5,-2
1532381202245,-1,0,1,4,-3,-23,-11,-4
1532381202250,1,5,7,15,1,0,0,-3
1532381202255,-1,0,4,4,-2,3,4,5
1532381202260,-4,-6,-10,-14,-1,-7,4,-1
1532381202265,-2,0,-2,-6,-7,2,-1,0
1532381202270,0,-2,-1,0,8,23,2,-1
1532381202275,1,-2,1,-1,-10,-32,-4,-4
1532381202280,0,3,8,10,4,6,1,-2
1532381202285,-1,-4,1,0,0,3,3,1
1532381202290,-5,-5,-13,-20,-4,-4,1,-1
1532381202295,-1,-1,-1,1,-1,10,4,-3
1532381202300,0,0,2,1,2,-13,-5,-3
1532381202305,2,1,1,9,-1,-1,-7,0
1532381202310,2,3,4,7,7,14,-2,3
1532381202315,-2,-1,2,14,3,4,-5,-3
1532381202320,-2,-4,-9,-27,-4,0,-1,-6
1532381202325,-1,0,-3,-11,-3,14,4,-2
1532381202330,-1,-1,-1,2,-5,-19,-5,-1
1532381202335,-1,-1,0,4,5,-3,-4,3
1532381202340,1,3,5,17,4,-2,3,-2
1532381202345,-1,0,-3,-7,-3,1,-4,0
1532381202350,1,-1,1,5,1,-3,-1,-3
1532381202355,2,0,0,1,-4,4,1,6
1532381202360,-1,-5,-9,-13,-6,3,1,5
1532381202365,-1,-3,-3,-10,-2,0,-9,-1
1532381202370,-2,-2,-1,3,-5,-14,-12,-2
1532381202375,0,2,2,-2,-5,-11,-8,-6
1532381202380,0,0,3,14,3,11,-9,3
1532381202385,0,-4,-8,-15,-6,2,-4,-1
1532381202390,2,1,4,-2,15,-15,-4,3
1532381202395,1,-2,-2,-7,-30,11,-3,0
1532381202400,-1,1,3,-3,-3,-12,-2,2
1532381202405,-2,2,4,16,7,3,-8,-4
1532381202410,0,-1,-1,-2,-6,3,-2,1
1532381202415,-3,-2,-3,-6,3,-9,-9,-5
1532381202420,2,-2,0,3,3,0,-4,3
1532381202425,-1,-1,2,1,-6,-9,7,2
1532381202430,-1,-1,-4,-6,-4,22,-6,-2
1532381202435,-1,-2,0,-1,-5,-43,-9,-6
1532381202440,0,-4,-6,-8,-5,18,-1,1
1532381202445,-3,-3,-3,-2,5,-11,2,2
1532381202450,-2,0,2,4,0,-4,2,1
1532381202455,0,-1,1,3,4,14,8,0
1532381202460,-1,-5,-6,-12,2,4,13,-5
1532381202465,1,1,3,6,-3,-2,-26,-2
1532381202470,-2,2,4,6,-3,5,0,-12
1532381202475,-1,-4,-7,-11,-5,7,0,0
1532381202480,-3,-4,-8,-6,0,-16,3,-3
1532381202485,0,-1,-2,-12,0,9,12,0
1532381202490,2,2,5,15,4,-17,-1,-1
1532381202495,0,2,1,4,8,14,5,-2
1532381202500,1,-1,-1,0,-5,2,-3,2
1532381202505,0,-2,-1,2,1,-7,3,-4
1532381202510,0,-2,-3,-3,-8,-9,5,-3
1532381202515,0,1,0,-2,2,8,0,-3
1532381202520,1,3,4,4,-2,19,5,6
1532381202525,-1,2,5,12,8,37,8,0
1532381202530,-1,-5,-5,-20,-7,2,7,0
1532381202535,-3,-7,-10,-17,1,9,20,1
1532381202540,1,3,4,6,-4,-57,-28,-2
1532381202545,0,-1,-1,0,-3,27,11,-8
1532381202550,-1,1,6,10,4,10,-12,0
1532381202555,-2,-2,-4,-9,-16,-29,2,0
1532381202560,-2,-2,-3,-4,2,7,7,0
1532381202565,1,0,4,12,26,-30,6,3
1532381202570,2,-1,-4,-9,-31,24,1,-3
1532381202575,-3,0,-2,2,10,24,-1,0
1532381202580,-1,-1,0,-2,-5,-29,-9,2
1532381202585,-1,-1,-2,-10,-8,10,-4,-1
1532381202590,0,-2,0,3,8,-2,8,-1
1532381202595,1,3,4,11,10,9,1,-1
1532381202600,-2,1,3,7,3,17,-1,-7
1532381202605,-1,-3,-5,-9,-5,-6,6,3
1532381202610,-2,-1,-1,6,8,-7,4,1
1532381202615,0,-3,-2,-14,-11,-16,-2,1
1532381202620,1,2,1,8,13,24,-5,-1
1532381202625,-1,2,-1,-4,-18,-1,3,-1
1532381202630,0,3,3,4,-1,-10,2,3
1532381202635,0,-3,-7,-9,-7,-14,3,-1
1532381202640,-6,-3,-4,-9,1,18,1,1
1532381202645,1,1,4,8,31,-4,7,-3
1532381202650,-1,-1,-3,-1,-41,-14,-24,-7
1532381202655,-1,0,1,-9,-22,4,-3,-3
1532381202660,-1,-2,0,0,-1,-22,0,5
1532381202665,0,-1,-4,5,1,-5,4,-7
1532381202670,-2,-3,-4,-3,11,1,9,1
1532381202675,2,0,2,11,16,2,-8,-1
1532381202680,0,0,3,6,6,-8,5,-5
1532381202685,-4,-3,-6,0,-11,-22,-2,2
1532381202690,3,-3,-6,-12,8,16,2,1
1532381202695,-1,2,0,8,4,8,-5,1
1532381202700,0,0,4,3,-2,9,1,-2
1532381202705,1,1,5,3,0,-7,0,0
1532381202710,-3,-4,-8,-17,-5,3,0,4
1532381202715,0,-2,-3,1,2,-33,0,-2
1532381202720,2,0,2,8,6,17,-5,-5
1532381202725,1,2,1,4,-1,-20,-5,0
1532381202730,-5,-2,-2,-1,-5,1,-3,-1
1532381202735,0,0,0,-2,7,11,-8,2
1532381202740,0,0,-2,-2,-3,-3,-1,-2
1532381202745,-2,-2,-2,-5,-9,-1,0,1
1532381202750,3,1,-1,2,10,1,0,1
1532381202755,0,-1,2,11,1,5,-3,0
1532381202760,-2,-2,-8,-11,-9,1,2,-3
1532381202765,-2,-2,-3,-7,-10,4,-8,4
1532381202770,1,2,5,6,10,-2,-1,-2
1532381202775,-2,0,2,4,3,9,-3,-1
1532381202780,0,1,5,11,-4,-1,-2,0
1532381202785,-4,-8,-16,-31,-8,3,-10,-3
1532381202790,-2,-2,1,-3,2,-12,1,0
1532381202795,0,-2,-2,0,-1,1,-4,-1
1532381202800,-1,0,-1,3,4,-5,2,0
1532381202805,-1,1,6,9,2,2,-5,-2
1532381202810,-1,0,-2,-2,0,1,-1,-1
1532381202815,-1,-1,-2,-2,-2,4,6,-2
1532381202820,0,0,0,-3,0,-2,-5,-4
1532381202825,-1,1,2,6,-1,-9,-1,1
1532381202830,1,0,1,-2,0,0,-1,-1
1532381202835,1,-1,1,1,-2,4,-1,-2
1532381202840,-1,-4,-7,-13,-5,1,3,1
1532381202845,-1,0,0,-7,-4,1,-4,-3
1532381202850,-1,-2,1,12,6,-2,-1,0
1532381202855,-1,-6,4,-8,-5,-2,-5,-2
1532381202860,-4,-2,-20,-6,-7,-6,-4,1
1532381202865,0,-2,-3,1,0,7,4,1
1532381202870,-3,2,8,4,1,-7,-8,1
1532381202875,-2,-3,-12,9,3,4,-9,2
1532381202880,1,1,11,0,-3,-5,0,1
1532381202885,-3,-3,1,-2,-4,2,-6,-1
1532381202890,2,2,-5,12,5,1,-2,-1
1532381202895,-1,7,7,-16,-1,2,15,-3
1532381202900,0,-7,0,11,0,-6,2,-2
1532381202905,-1,-5,-6,-26,-8,-5,6,-1
1532381202910,3,-5,-6,-14,-4,15,-3,-3
1532381202915,0,3,0,5,-1,-22,-20,3
1532381202920,-4,3,-1,6,-1,8,-16,0
1532381202925,-3,2,14,47,15,31,-14,5
1532381202930,-6,-3,2,-24,0,-30,-16,1
1532381202935,-3,-7,-17,-21,-18,-13,-6,1
1532381202940,-2,-2,-2,-5,3,6,9,0
1532381202945,0,2,3,4,0,-8,17,-3
1532381202950,2,-3,-5,-4,4,7,28,-4
1532381202955,3,0,2,6,3,-10,20,-6
1532381202960,5,1,9,-3,3,-9,12,-5
1532381202965,5,0,-7,-21,-4,-5,10,-7
1532381202970,7,0,1,10,5,8,13,-5
1532381202975,2,-3,2,3,6,11,3,-2
1532381202980,2,-7,8,1,-4,-8,1,-2
1532381202985,1,15,-9,17,8,7,5,1
1532381202990,1,1,-1,-10,-10,-2,-4,2
1532381202995,-2,0,6,-5,-4,0,-1,2
1532381203000,0,1,-7,9,5,-7,-1,0
1532381203005,2,-4,5,-24,-5,25,-3,-2
1532381203010,-2,-1,-5,0,-1,-9,-2,-1
1532381203015,2,3,1,20,9,18,-11,2
1532381203020,-1,2,7,12,1,14,-53,1
1532381203025,0,-7,-5,-27,-11,-43,25,-1
1532381203030,-4,0,-10,-8,-5,23,26,0
1532381203035,-3,-1,0,11,7,17,18,2
1532381203040,-4,2,3,-20,-6,-33,36,2
1532381203045,-3,3,-6,4,-9,-13,-14,-1
1532381203050,-5,-9,-3,-3,-6,-9,-11,-2
1532381203055,-3,-1,-2,-7,0,0,-16,1
1532381203060,-3,-1,1,14,7,22,-13,2
1532381203065,-1,-1,4,1,0,-1,-18,-2
1532381203070,-3,0,-3,10,-5,-4,0,3
1532381203075,-3,-1,-5,-21,-10,-13,-1,-3
1532381203080,1,3,-2,3,0,5,16,-2
1532381203085,-1,-2,15,50,9,-4,2,0
1532381203090,-2,1,-3,-41,-10,-3,-4,-3
1532381203095,-1,-7,-13,-2,29,16,2,-4
1532381203100,-3,-3,-12,-47,-51,15,1,-3
1532381203105,0,1,5,40,17,-12,-6,0
1532381203110,-1,-1,6,-15,-19,8,-10,0
1532381203115,1,4,5,16,14,-4,-1,0
1532381203120,-4,-3,-4,-4,10,9,4,0
1532381203125,-5,-4,-4,-10,-12,0,-12,1
1532381203130,-1,2,4,19,-5,-15,-6,1
1532381203135,1,1,1,-12,1,18,3,0
1532381203140,2,1,5,16,5,3,2,2
1532381203145,-2,-3,-4,-36,-20,3,3,-4
1532381203150,-3,-4,-14,-16,-12,-29,-3,-3
1532381203155,2,-1,0,6,9,-9,-1,1
1532381203160,0,-2,2,-4,0,4,1,-1
1532381203165,-1,0,6,15,11,3,2,1
1532381203170,-2,-1,2,1,6,18,-2,0
1532381203175,-1,-1,-2,-4,-25,-42,2,-2
1532381203180,-2,-3,-2,-1,3,6,0,0
1532381203185,-1,-1,-11,-10,1,8,-1,-2
1532381203190,0,4,5,18,8,17,2,2
1532381203195,-2,2,4,3,-4,-8,-1,0
1532381203200,1,0,-3,-6,-2,2,-2,-1
1532381203205,1,-2,5,0,9,3,-1,0
1532381203210,1,5,-6,4,1,-4,1,1
1532381203215,-2,1,2,-2,-2,6,0,-1
1532381203220,-1,-1,-3,3,-2,-12,2,-4
1532381203225,-1,-1,3,-6,-6,0,1,-1
1532381203230,-2,-4,1,2,10,28,2,0
1532381203235,-3,-4,-11,-25,-30,-41,1,-4
1532381203240,-1,-7,-5,-1,-1,3,-3,-1
1532381203245,-3,-4,-6,-4,4,-2,1,1
1532381203250,-1,0,6,19,5,19,-3,1
1532381203255,-1,2,7,13,9,-4,-4,1
1532381203260,1,1,-3,-11,-5,-33,2,-2
1532381203265,2,1,-2,13,10,16,3,-1
1532381203270,3,-2,-1,-17,8,3,-1,-1
1532381203275,1,-3,-3,-14,-44,2,-5,1
1532381203280,3,3,4,2,8,7,-2,-3
1532381203285,3,-1,-6,-9,-17,-14,0,-2
1532381203290,1,1,2,2,12,-4,-1,-3
1532381203295,-1,-1,3,10,16,1,5,1
1532381203300,-1,-2,-2,-2,-30,18,-2,-4
1532381203305,-5,-2,-3,-5,7,-20,-4,3
1532381203310,-3,1,-1,5,-12,34,-3,0
1532381203315,-3,3,8,-8,-2,-5,2,1
1532381203320,-7,-7,-10,-17,7,8,-3,-3
1532381203325,-5,-1,-3,-2,6,11,2,-3
1532381203330,-4,0,-2,1,-10,-9,0,-2
1532381203335,0,0,5,24,19,16,1,1
1532381203340,-3,-1,1,-3,-3,-10,2,0
1532381203345,1,-4,-7,-18,-13,-10,-5,-5
1532381203350,2,-1,-1,8,13,-15,3,0
1532381203355,3,-1,0,4,-9,4,-2,-3
1532381203360,-1,2,1,0,8,-4,0,3
1532381203365,-2,-3,-4,1,0,-8,0,-1
1532381203370,-2,2,2,-4,-8,-6,4,1
1532381203375,0,-6,-3,-3,-3,11,-1,-1
1532381203380,1,-1,-2,-2,6,-10,0,-2
1532381203385,-1,0,1,3,6,5,0,0
1532381203390,-1,2,0,-2,-9,-20,3,0
1532381203395,-3,-1,-2,-4,3,11,-1,-1
1532381203400,-1,-2,0,15,9,-14,0,-3
1532381203405,-1,-2,2,3,2,10,-1,-2
1532381203410,-2,-4,-6,-11,12,1,-1,0
1532381203415,-4,-1,-5,-13,-20,-13,1,0
1532381203420,-2,1,1,7,3,-5,4,1
1532381203425,3,3,5,11,4,6,-1,-1
1532381203430,1,-5,-1,2,13,-5,-4,-4
1532381203435,-1,3,2,-2,0,19,-3,1
1532381203440,1,-2,-3,-2,-3,4,1,-1
1532381203445,1,0,-3,-14,-17,-23,-4,-1
1532381203450,3,4,2,14,17,-8,1,1
1532381203455,0,-2,1,-1,-17,-3,1,-4
1532381203460,0,2,-1,5,20,6,2,-3
1532381203465,-7,-6,-4,-20,-42,0,-1,-1
1532381203470,-2,-1,-4,-6,-7,-5,-5,-1
1532381203475,-1,-5,2,11,16,-3,-1,2
1532381203480,4,3,9,17,28,8,0,2
1532381203485,4,-3,-5,-15,-36,8,0,-3
1532381203490,-2,-1,2,-3,-8,3,-5,-3
1532381203495,-1,-1,-13,-28,-14,-17,-2,2
1532381203500,-5,-4,-4,-8,-12,11,-5,-4
1532381203505,3,8,7,37,47,14,6,4
1532381203510,0,-1,-3,-22,-47,-37,-5,-3
1532381203515,0,1,1,14,16,-9,0,-2
1532381203520,-1,-1,1,-6,-5,0,-3,2
1532381203525,-1,0,0,16,19,6,-1,-5
1532381203530,-4,-1,3,-6,-39,1,-2,-3
1532381203535,-3,-7,-7,1,55,17,-1,-2
1532381203540,1,0,-5,-17,-14,-15,-2,2
1532381203545,0,-3,2,-2,7,0,-2,-1
1532381203550,0,-1,0,8,12,-2,5,-1
1532381203555,0,2,4,3,-10,9,3,-2
1532381203560,2,-2,-1,2,-1,5,0,-1
1532381203565,3,2,1,21,28,-12,1,-3
1532381203570,2,-3,-3,-11,-10,18,-3,0
1532381203575,1,-2,0,-12,6,-16,-2,-2
1532381203580,1,-4,-9,-20,-46,-5,3,-4
1532381203585,0,-2,-3,-12,-2,-8,-4,4
1532381203590,4,0,6,24,16,11,2,0
1532381203595,1,-1,0,6,2,13,1,-2
1532381203600,1,1,2,-3,-4,-41,-6,-1
1532381203605,0,2,1,-2,5,29,8,1
1532381203610,-2,-4,-5,-11,14,-4,-3,-2
1532381203615,0,0,-6,-15,-30,8,-3,2
1532381203620,-2,0,1,7,3,1,-4,-2
1532381203625,-3,0,-5,-11,-13,-8,-3,-1
1532381203630,0,1,5,17,27,5,3,3
1532381203635,3,1,8,34,39,0,3,-6
1532381203640,-2,-5,-16,-48,-62,-10,-1,-1
1532381203645,-3,-3,-4,-11,2,16,-3,2
1532381203650,-1,2,-3,-6,-6,11,-1,-2
1532381203655,-1,4,8,36,18,-4,1,-1
1532381203660,-5,0,6,-4,-7,9,-4,1
1532381203665,-4,-1,-3,-5,3,-10,3,-1
1532381203670,-3,-3,-1,0,-2,-10,2,-2
1532381203675,-3,1,0,-3,-9,29,3,0
1532381203680,-2,-1,3,15,21,-4,2,-3
1532381203685,-3,0,-1,-4,-12,0,0,-1
1532381203690,-3,-2,1,10,15,-10,-1,0
1532381203695,-7,-3,-7,-23,-28,-5,-7,-2
1532381203700,-7,2,0,3,16,7,8,5
1532381203705,-2,0,0,-4,-13,26,0,-3
1532381203710,1,1,4,13,-30,5,4,1
1532381203715,-1,-6,-8,-27,24,-14,-2,-2
1532381203720,4,-1,2,32,40,43,1,-1
1532381203725,-4,1,-5,-14,-6,-68,-9,2
1532381203730,0,-1,-2,3,10,4,4,3
1532381203735,-2,2,0,-4,-33,4,-1,1
1532381203740,-2,-4,1,5,1,-11,-1,-1
1532381203745,1,-3,-6,10,25,14,4,-6
1532381203750,-1,-3,-2,0,-4,3,-3,-3
1532381203755,-2,-1,1,-1,-2,-16,0,-1
1532381203760,-2,-1,-3,-3,8,0,-4,-4
1532381203765,-4,-2,-1,-1,-10,7,-4,-1
1532381203770,-4,0,-2,-8,-5,-13,-3,1
1532381203775,-3,-2,-3,0,-3,4,2,0
1532381203780,-3,2,2,5,3,-1,2,0
1532381203785,-2,2,-1,-5,-11,-5,-2,0
1532381203790,-4,-2,-1,-3,11,10,2,-1
1532381203795,-3,-3,-1,3,3,7,0,1
1532381203800,-1,3,5,13,23,-2,4,-3
1532381203805,-4,-4,-3,-20,-30,-14,-25,1
1532381203810,-2,0,-1,-4,13,1,3,0
1532381203815,4,3,-2,4,2,-15,-2,-3
1532381203820,-2,-3,-2,-5,-8,-22,0,-1
1532381203825,7,0,4,10,16,-3,-9,5
1532381203830,4,2,6,32,0,45,20,-9
1532381203835,2,-3,-11,-22,-3,-37,-17,1
1532381203840,5,-1,-6,-20,-14,16,-8,-2
1532381203845,6,-2,2,10,16,-12,3,-3
1532381203850,3,-3,-3,-8,-2,15,-8,3
1532381203855,2,0,6,22,-3,-19,6,-6
1532381203860,3,-6,-6,-9,3,0,5,2
1532381203865,2,-1,-7,-6,12,19,8,3
1532381203870,1,1,3,7,-8,-24,0,3
1532381203875,2,-1,-4,-29,-38,14,5,0
1532381203880,2,-2,-6,-8,-10,-14,-1,-2
1532381203885,0,-3,-2,-1,-3,27,11,-1
1532381203890,-2,-2,-5,-9,13,-24,1,-5
1532381203895,2,1,4,7,-43,19,7,1
1532381203900,-1,4,8,9,8,9,-1,3
1532381203905,-1,-3,3,5,13,2,7,-1
1532381203910,2,-3,-1,2,34,-3,-5,-2
1532381203915,-5,-1,-1,-9,-33,-6,-7,0
1532381203920,-3,-1,-1,5,4,12,2,-2
1532381203925,-5,-3,-3,-7,-16,-14,2,-3
1532381203930,-1,1,-2,-8,-4,-8,-9,2
1532381203935,0,0,1,7,41,27,3,-1
1532381203940,0,2,3,14,-6,-11,-1,-2
1532381203945,2,2,0,3,-5,-2,0,-1
1532381203950,0,-2,-8,-42,-45,-5,-5,-1
1532381203955,1,0,0,6,21,-15,4,-2
1532381203960,0,-1,0,-4,-27,6,2,2
1532381203965,0,0,3,8,3,-15,3,-3
1532381203970,-2,-2,0,7,-2,9,0,-1
1532381203975,-1,1,1,-4,11,-5,-1,-1
1532381203980,-3,-2,-1,-5,7,6,-1,1
1532381203985,-3,-2,-4,-5,-29,-16,-1,-7
1532381203990,-3,-1,0,8,50,14,-5,6
1532381203995,-4,0,-4,-16,-31,9,-4,3
1532381204000,0,0,-1,2,-10,4,1,-4
1532381204005,0,0,-1,-3,-2,-13,-1,-3
1532381204010,1,1,-1,-1,-10,6,2,6
1532381204015,0,-3,1,7,5,-19,-3,-2
1532381204020,-2,1,1,3,10,-2,-1,0
1532381204025,-7,-1,-1,-4,1,9,-3,0
1532381204030,-3,-1,-3,-2,-13,-6,2,-5
1532381204035,-2,0,2,9,27,-11,-4,-1
1532381204040,-3,-1,-2,-4,-8,0,2,0
1532381204045,-1,-1,1,-3,5,14,-5,-1
1532381204050,-1,-2,-2,-3,-8,-14,-4,-5
1532381204055,2,-1,-1,3,5,16,3,0
1532381204060,4,-1,-1,0,4,-18,-7,2
1532381204065,3,0,3,1,-2,16,10,3
1532381204070,3,1,0,1,-8,-8,-10,-3
1532381204075,2,-3,-2,7,12,29,-1,1
1532381204080,2,0,-1,-2,3,23,-1,-6
1532381204085,1,-1,0,0,8,0,2,5
1532381204090,4,0,-1,9,-23,-13,-3,-3
1532381204095,5,-1,-4,10,9,-8,10,1
1532381204100,-2,-4,-5,-8,11,2,-5,-2
1532381204105,2,-3,-5,-13,-17,-28,-5,3
1532381204110,1,1,4,16,1,19,2,-4
1532381204115,3,3,5,13,45,-3,3,1
1532381204120,1,2,10,22,-20,-10,-4,-4
1532381204125,0,-1,-7,-28,13,-8,-5,-3
1532381204130,0,-3,-9,-10,0,4,5,2
1532381204135,1,-1,-8,-35,-19,-10,-13,-14
1532381204140,0,1,4,-5,16,14,-1,10
1532381204145,-1,3,8,23,10,4,-1,1
1532381204150,-4,-6,-5,-18,-4,-13,1,-1
1532381204155,-6,-3,-6,-7,0,11,-2,-2
1532381204160,-1,-2,-2,-5,-12,-2,2,-9
1532381204165,-3,-3,-1,5,-8,6,5,6
1532381204170,-2,1,0,3,7,-2,4,1
1532381204175,-4,0,3,13,-5,-1,0,-2
1532381204180,-2,-2,-3,-6,-5,-13,1,0
1532381204185,-1,0,0,6,9,6,0,-1
1532381204190,-3,-1,0,0,1,-14,2,-6
1532381204195,-1,0,1,-1,-6,-10,-5,6
1532381204200,-2,-2,-3,-5,5,7,3,2
1532381204205,-1,-1,-3,-10,2,2,0,-6
1532381204210,-1,-1,0,-3,-4,1,-2,-2
1532381204215,0,-1,2,0,-5,2,3,0
1532381204220,0,-2,-2,-6,11,-2,-1,0
1532381204225,1,-1,-3,6,-1,-3,2,1
1532381204230,2,1,-1,-6,-6,3,-1,0
1532381204235,-2,0,1,2,4,1,0,0
1532381204240,0,0,2,7,3,1,-2,0
1532381204245,-1,0,-1,4,-13,5,-3,-3
1532381204250,-3,-1,-1,-4,5,4,-4,0
1532381204255,-2,-1,1,10,-11,-21,2,1
1532381204260,0,1,-2,-11,-4,-4,5,3
1532381204265,0,-1,0,3,-5,-3,-5,-6
1532381204270,-1,0,-2,-1,2,7,4,4
1532381204275,0,0,0,3,10,13,-1,1
1532381204280,-2,-1,-2,-2,-7,-2,0,-1
1532381204285,-1,-2,0,5,21,5,2,-5
1532381204290,-2,-1,0,-7,-23,-15,4,3
1532381204295,-2,-1,1,-1,-1,-13,2,-2
1532381204300,-1,0,-1,-1,1,20,-1,-2
1532381204305,0,-2,-2,-3,-3,-7,-5,-2
1532381204310,-1,0,1,2,6,5,-8,0
1532381204315,-2,-5,-2,-9,-8,3,0,0
1532381204320,-1,-4,-2,3,5,-1,0,-2
1532381204325,1,1,1,-2,-18,-22,-4,-2
1532381204330,-1,-2,-1,0,4,3,-1,-2
1532381204335,0,0,-1,-2,-1,-10,-4,1
1532381204340,-1,0,0,4,0,3,0,-1
1532381204345,-1,-2,-5,-4,-3,2,0,-3
1532381204350,1,0,1,-4,5,4,-1,0
1532381204355,1,3,3,11,13,-7,3,-1
1532381204360,-2,-1,-3,-31,-32,-11,-1,4
1532381204365,-2,1,4,14,2,-5,2,-1
1532381204370,2,1,-5,-5,-1,4,-5,-2
1532381204375,-2,-6,-4,3,1,7,4,1
1532381204380,2,0,3,7,-1,-14,0,-1
1532381204385,-2,-3,-4,-7,-2,10,-1,-2
1532381204390,-4,-2,2,3,-1,-9,-3,-6
1532381204395,-1,0,-2,-3,-3,6,0,0
1532381204400,0,2,1,7,5,1,0,-2
1532381204405,0,-2,0,-9,-4,8,2,2
1532381204410,-1,1,1,6,-11,-28,-1,-1
1532381204415,-2,-2,-4,-11,-6,4,-2,-3
1532381204420,-1,-2,-3,2,7,-3,10,3
1532381204425,1,1,2,0,2,14,-4,2
1532381204430,2,3,3,6,-1,3,5,-1
1532381204435,-7,-5,-6,-6,-3,3,-4,-3
1532381204440,0,-1,-2,0,-1,-11,-3,0
1532381204445,-1,-2,-2,0,3,-2,3,-1
1532381204450,1,2,1,1,0,8,1,6
1532381204455,2,4,3,1,19,6,-1,0
1532381204460,-1,0,-2,1,-25,-5,-5,-5
1532381204465,-2,-3,-5,-2,1,-8,-3,-4
1532381204470,-1,-3,-5,-6,5,1,-2,-2
1532381204475,-1,2,4,6,6,8,2,-1
1532381204480,2,1,0,-2,-3,-16,10,2
1532381204485,-3,-2,-1,-11,-11,9,-3,-2
1532381204490,-4,-3,-1,9,2,9,8,2
1532381204495,2,1,-2,-6,6,6,-17,3
1532381204500,-2,-1,1,7,7,-24,-10,-5
1532381204505,8,8,7,18,13,22,11,6
1532381204510,-7,-7,-7,-8,5,-6,-3,-6
1532381204515,4,-5,0,-4,-29,-13,-2,-3
1532381204520,-4,-1,0,-6,-3,-9,-11,-4
1532381204525,2,2,2,4,12,-1,7,2
1532381204530,1,-2,-1,1,-3,-4,0,-2
1532381204535,-3,0,0,0,-4,7,6,0
1532381204540,1,-1,-3,5,13,16,-4,-1
1532381204545,-3,-3,1,6,16,-9,-3,-1
1532381204550,0,-1,-2,-17,-42,-4,0,1
1532381204555,1,4,-1,-2,2,4,6,2
1532381204560,-2,-7,-2,-6,-1,1,7,0
1532381204565,-3,-2,0,1,6,2,-4,-3
1532381204570,1,3,4,-4,-3,-4,-8,-3
1532381204575,-1,-3,-3,2,-4,-16,3,2
1532381204580,-1,0,1,0,2,22,-4,-2
1532381204585,-2,1,-4,2,-3,2,9,-1
1532381204590,2,-1,3,-4,2,-2,-13,0
1532381204595,1,2,-1,-7,-18,-13,5,-2
1532381204600,-5,-4,1,10,-22,0,-4,-1
1532381204605,0,-6,-5,-13,17,-16,-5,-2
1532381204610,-1,-3,-4,-4,12,9,-18,-5
1532381204615,0,0,1,0,2,5,9,2
1532381204620,2,-1,-2,-1,0,-2,4,-1
1532381204625,2,-2,-1,-2,-19,-3,-3,0
1532381204630,11,-1,0,4,7,-6,-2,2
1532381204635,3,-2,-2,-3,3,20,1,-4
1532381204640,4,2,-1,2,6,-8,-11,-5
1532381204645,-4,-1,-2,-3,-14,0,15,2
1532381204650,-1,-2,-1,5,13,2,12,2
1532381204655,-1,-2,-2,-6,-11,-12,-9,-7
1532381204660,5,0,1,2,3,-2,8,1
1532381204665,8,-2,-1,-8,-14,-11,-11,-1
1532381204670,12,-3,-3,0,-1,6,14,-1
1532381204675,10,0,1,3,-5,-11,-13,-2
1532381204680,3,-1,-3,-3,14,11,13,4
1532381204685,6,2,2,-2,-2,-1,1,0
1532381204690,6,-1,0,10,1,2,-3,-6
1532381204695,11,1,1,12,3,-4,6,0
1532381204700,4,-1,-5,-25,-34,-4,-6,2
1532381204705,5,-4,-2,7,0,1,2,-6
1532381204710,9,0,-1,-12,-14,-21,3,6
1532381204715,12,-2,0,8,3,9,-7,-2
1532381204720,11,2,0,-8,23,-10,-11,1
1532381204725,24,-2,1,0,-5,-10,-9,-5
1532381204730,41,0,0,11,3,22,7,-1
1532381204735,47,-3,-3,-13,-9,1,-4,-3
1532381204740,23,0,-4,7,0,-2,4,0
1532381204745,-22,1,-1,-8,-11,-14,-4,0
1532381204750,-52,-3,-2,-2,1,-6,2,-6
1532381204755,-65,1,5,4,-3,2,6,-2
1532381204760,-58,-1,1,1,12,6,3,1
1532381204765,-49,-2,-3,-1,3,7,-3,1
1532381204770,-44,-1,2,-1,-9,-10,-4,-2
1532381204775,-36,-2,-5,-3,3,-7,-1,-2
1532381204780,-22,0,1,5,4,0,-2,-3
1532381204785,-10,1,2,6,10,14,6,-1
1532381204790,-7,-4,-8,-7,-26,-47,6,0
1532381204795,-7,-2,-6,-13,1,15,5,-3
1532381204800,12,-1,-2,-3,3,5,-1,-3
1532381204805,16,1,1,4,1,-5,-16,1
1532381204810,20,2,2,2,9,17,4,4
1532381204815,18,1,1,3,-2,-19,-6,-1
1532381204820,16,0,3,23,32,4,11,0
1532381204825,17,0,-2,-29,-52,8,1,-4
1532381204830,3,0,3,15,21,12,-7,3
1532381204835,-2,-2,0,-2,0,-10,-1,1
1532381204840,-8,-2,-5,-16,7,13,0,6
1532381204845,-8,-2,-2,3,6,-8,0,-1
1532381204850,0,-3,-4,-8,0,9,2,-1
1532381204855,1,1,1,2,-7,-8,-6,-3
1532381204860,1,1,7,19,-2,-3,-1,-5
1532381204865,-1,0,4,4,1,-10,4,-2
1532381204870,-9,-6,-16,-22,-10,3,-5,-3
1532381204875,-7,-1,-1,0,7,-2,3,-3
1532381204880,-5,-4,-5,-16,-23,-20,-5,-1
1532381204885,-7,2,1,6,8,3,5,2
1532381204890,-5,-1,5,9,6,5,-5,-1
1532381204895,-4,0,2,2,4,13,4,5
1532381204900,-5,1,-2,0,-6,12,6,-2
1532381204905,-3,-1,0,4,11,8,3,1
1532381204910,-1,3,3,17,23,-25,10,-6
1532381204915,-8,-2,-6,-28,-42,12,-12,3
1532381204920,-6,-4,0,-2,-6,-3,0,-1
1532381204925,-5,-2,-3,-1,4,-4,2,1
1532381204930,-3,2,3,4,-6,-1,-3,-4
1532381204935,2,0,0,12,36,-4,3,4
1532381204940,0,-1,-1,0,-7,-1,-5,-4
1532381204945,1,-3,-6,-6,-10,-15,-8,-2
1532381204950,3,-2,-1,-6,-10,16,-1,0
1532381204955,1,-1,1,3,0,-4,-1,-4
1532381204960,2,1,0,1,-3,-3,-7,-3
1532381204965,3,-1,-3,-2,10,4,-1,0
1532381204970,0,0,1,-5,-5,-1,-6,4
1532381204975,2,-3,-4,-1,-4,4,0,-4
1532381204980,1,0,-4,4,2,0,-4,-3
1532381204985,4,2,1,-6,-5,-5,-1,-2
1532381204990,2,-3,0,3,10,10,5,2
1532381204995,-1,-2,0,-5,-2,0,3,0
1532381205000,3,-1,-3,-6,-8,-10,0,-1
1532381205005,3,2,2,14,24,6,-1,-1
1532381205010,3,1,0,-17,-34,-6,-6,0
1532381205015,2,2,3,14,22,6,4,2
1532381205020,5,0,2,6,-36,12,7,1
1532381205025,-6,-4,0,-6,7,7,2,1
1532381205030,-1,-1,-4,-9,12,-7,2,-4
1532381205035,-1,1,-7,-7,-3,42,-2,-1
1532381205040,1,2,1,5,18,-27,7,5
1532381205045,1,-1,-1,8,-3,-11,-3,-4
1532381205050,0,-1,-1,3,-6,13,1,-1
1532381205055,0,0,2,3,5,-19,3,-3
1532381205060,1,-2,-2,-11,-3,5,-3,0
1532381205065,1,-2,0,1,-4,0,-1,-9
1532381205070,0,-2,1,1,11,-4,0,4
1532381205075,3,1,3,2,-5,-15,-4,-2
1532381205080,0,-1,-2,-4,3,22,11,0
1532381205085,4,1,1,-4,-7,-20,-29,6
1532381205090,-2,2,-3,-1,-1,1,12,-3
1532381205095,0,-5,-3,-2,-5,-11,-4,0
1532381205100,0,-1,-2,-3,2,-3,-5,-2
1532381205105,1,-1,-4,-1,1,13,4,-1
1532381205110,1,1,3,2,6,5,-3,3
1532381205115,-1,1,-1,0,-4,-13,2,1
1532381205120,1,-1,-2,-3,0,-2,0,-2
1532381205125,-2,-2,-3,-2,-1,-21,6,1
1532381205130,0,1,-1,7,16,1,-4,0
1532381205135,-2,-2,-3,-14,-38,-12,2,-4
1532381205140,0,1,1,1,8,16,-7,1
1532381205145,2,0,3,8,7,16,3,2
1532381205150,-2,-1,-7,-8,-7,0,-4,-1
1532381205155,2,-1,-2,-9,2,-7,4,0
1532381205160,-1,2,7,23,-2,-13,-1,-3
1532381205165,-1,-5,-6,-30,-4,7,3,4
1532381205170,0,-2,-2,4,0,-8,-2,-2
1532381205175,0,-1,-1,-4,7,11,1,-1
1532381205180,0,-2,-7,0,-9,-5,-2,-5
1532381205185,-2,2,1,6,6,1,7,1
1532381205190,-1,-3,4,11,3,-5,-2,-1
1532381205195,2,0,3,5,6,-1,-1,-3
1532381205200,-3,-3,0,-10,0,1,1,3
1532381205205,2,0,-2,4,-6,1,2,-4
1532381205210,-1,-2,-3,-8,-6,3,-3,-1
1532381205215,-1,1,2,9,2,2,0,-2
1532381205220,1,1,-1,1,15,-4,2,-2
1532381205225,-3,-2,-5,-10,-26,9,3,-1
1532381205230,-1,-1,1,1,3,-1,1,-2
1532381205235,0,0,1,4,6,-3,3,0
1532381205240,-1,0,-2,-3,1,-19,-1,-1
1532381205245,-1,0,0,2,7,47,3,1
1532381205250,-1,0,0,-3,-3,-3,1,1
1532381205255,-2,-1,-3,-4,-9,-14,-2,1
1532381205260,-1,-2,-1,-6,-4,3,-5,-10
1532381205265,-2,1,-1,5,-1,-21,4,2
1532381205270,1,0,-2,-7,-18,-13,-3,-4
1532381205275,0,-1,-3,0,-1,8,-2,1
1532381205280,-1,-1,-3,-10,-6,-7,2,3
1532381205285,-1,0,0,3,1,-10,-6,-2
1532381205290,-1,1,-2,5,13,9,-1,0
1532381205295,-3,-1,-2,-2,-1,-5,-1,-2
1532381205300,0,-1,3,6,14,9,1,0
1532381205305,0,-2,-4,-14,-28,-15,-1,-4
1532381205310,0,0,-2,1,1,-5,0,-3
1532381205315,1,2,2,2,7,4,0,-3
1532381205320,-1,-1,-1,-3,-3,3,-5,0
1532381205325,-2,1,2,0,14,-3,0,2
1532381205330,-1,-4,-7,-2,-5,-6,-1,-3
1532381205335,1,0,-1,-8,-4,6,-3,-3
1532381205340,0,0,4,6,3,5,0,8
1532381205345,-2,-4,-3,-2,-3,-14,0,-4
1532381205350,0,1,1,-4,-8,-6,-1,-3
1532381205355,-1,-2,-1,3,7,14,1,0
1532381205360,-2,-2,-3,2,2,-3,-1,-3
1532381205365,0,2,3,6,-2,-1,2,0
1532381205370,1,0,0,-2,10,10,7,1
1532381205375,1,-1,-3,-9,-11,-3,4,0
1532381205380,2,2,6,3,23,1,5,-2
1532381205385,0,-2,-4,-16,-17,-5,-8,3
1532381205390,-4,-1,-5,-5,-4,-3,0,1
1532381205395,0,2,1,2,-1,-5,-1,2
1532381205400,-2,-5,-8,-9,-4,-4,-2,-2
1532381205405,2,2,6,12,8,6,1,-1
1532381205410,1,2,4,2,-1,8,-2,0
1532381205415,-2,-2,-4,1,4,-6,-3,-3
1532381205420,1,3,-1,-1,-11,10,2,6
1532381205425,-3,-5,-4,0,4,-8,-3,-4
1532381205430,0,0,1,-1,-5,0,-2,-3
1532381205435,-1,-2,4,12,5,1,0,-1
1532381205440,-1,-3,-6,-10,-10,-3,-1,-1
1532381205445,2,1,-2,-2,0,-3,0,0
1532381205450,-2,2,3,3,9,3,3,2
1532381205455,-3,-3,-5,7,-3,-2,1,1
1532381205460,0,-1,-2,-7,-9,-3,0,-4
1532381205465,-2,-3,-5,-20,-2,1,4,-1
1532381205470,0,-1,-1,-1,-5,-4,-3,0
1532381205475,1,2,3,12,28,6,0,1
1532381205480,-1,0,2,3,-28,-2,-5,-2
1532381205485,-1,-2,-2,5,10,-2,-1,0
1532381205490,-2,1,2,-2,-12,0,-1,0
1532381205495,-2,-1,-7,-13,-3,-5,-4,-2
1532381205500,0,0,-4,3,-12,-2,0,-3
1532381205505,-1,0,5,18,22,2,0,4
1532381205510,0,-1,-2,-4,-17,-3,-3,-5
1532381205515,0,0,-5,-12,13,-2,-3,8
1532381205520,-2,-2,-1,4,10,-3,7,-3
1532381205525,-2,1,1,3,-12,-2,-1,-9
1532381205530,1,0,2,11,3,7,-1,-1
1532381205535,-2,-1,-1,1,-2,-5,1,-2
1532381205540,2,-1,-5,-8,4,11,2,-2
1532381205545,-1,0,-2,-2,5,-7,3,1
1532381205550,1,0,1,0,-3,6,8,1
1532381205555,-2,0,2,-5,-15,-2,-5,-2
1532381205560,-2,0,0,6,5,-2,-1,-2
1532381205565,1,0,2,5,-5,-5,3,0
1532381205570,0,-4,-7,1,11,1,0,0
1532381205575,0,-1,0,-9,-15,1,-1,-5
1532381205580,1,-3,-2,-3,0,-7,-1,7
1532381205585,-1,1,-2,0,4,7,-4,-1
1532381205590,-2,0,-3,-2,2,-6,-2,-2
1532381205595,2,-1,2,4,-2,-4,0,-2
1532381205600,-2,0,3,4,7,23,-3,3
1532381205605,1,-2,-2,-1,-6,7,2,1
1532381205610,-1,0,0,-3,6,-6,-1,1
1532381205615,0,-1,-1,9,-4,3,4,-1
1532381205620,0,-1,-2,-17,-7,-9,1,-4
1532381205625,-2,-1,0,2,0,-2,-2,0
1532381205630,-1,-1,-5,-7,15,1,1,1
1532381205635,-3,-1,0,1,-29,10,-1,1
1532381205640,0,1,2,11,9,-11,-4,2
1532381205645,-1,-3,-4,-11,-3,10,1,3
1532381205650,1,0,3,-3,-3,-6,4,-8
1532381205655,2,-2,2,5,3,-3,0,0
1532381205660,-3,1,0,2,-5,-4,-2,-6
1532381205665,-3,-1,0,-2,-5,10,-6,0
1532381205670,-2,-3,-4,-6,-2,-1,0,-4
1532381205675,-2,-1,-1,1,5,4,-2,3
1532381205680,-1,-1,5,1,-3,-26,6,-1
1532381205685,2,1,-4,-1,4,-1,3,-6
1532381205690,1,-1,3,9,-6,-1,-2,4
1532381205695,-1,-4,-6,-7,9,15,3,-2
1532381205700,0,-2,-1,-9,-3,-18,-11,-1
1532381205705,-4,-2,4,4,-6,5,3,-4
1532381205710,-3,-3,-4,-3,4,13,-3,-3
1532381205715,0,-2,-1,-5,1,-9,1,0
1532381205720,2,2,1,9,3,3,3,-2
1532381205725,-1,-2,-6,-18,-2,3,3,0
1532381205730,0,1,3,13,2,6,-1,0
1532381205735,-2,-2,3,-10,-2,-9,-2,-4
1532381205740,-1,-5,-12,-20,-2,-9,-1,-4
1532381205745,0,0,3,19,13,19,-8,-7
1532381205750,-2,-1,0,-8,-18,-5,4,6
1532381205755,9,4,2,17,14,8,-4,1
1532381205760,7,-1,2,1,-3,2,8,4
1532381205765,6,-2,-2,-4,-7,-19,1,-3
1532381205770,1,-3,-5,-8,3,0,-6,-1
1532381205775,-3,-1,1,0,-10,-1,3,1
1532381205780,0,1,3,0,3,16,-3,-4
1532381205785,-2,-1,-5,-4,-7,-25,-1,0
1532381205790,2,0,6,18,24,-2,13,-3
1532381205795,-3,-2,-6,-17,-16,8,-1,3
1532381205800,-5,0,0,-4,2,5,-1,3
1532381205805,-6,1,4,3,-3,-8,-2,-2
1532381205810,-4,-2,1,-4,5,-8,-4,-5
1532381205815,-5,0,-4,-5,-10,-11,-7,-4
1532381205820,-4,-1,2,12,-6,-4,8,3
1532381205825,0,-2,-1,-3,6,26,-1,3
1532381205830,-3,-2,-5,-13,-17,1,-9,-2
1532381205835,-3,0,-3,1,11,2,-1,-2
1532381205840,-3,-2,-2,4,0,1,-1,-1
1532381205845,-5,-3,-7,-16,-8,-1,3,-2
1532381205850,0,0,0,1,-1,-16,-2,3
1532381205855,0,0,4,17,7,-6,4,-2
1532381205860,0,0,-2,-6,6,-4,-6,-4
1532381205865,-2,-2,-5,-8,-3,0,0,-3
1532381205870,2,1,4,-1,-36,-5,4,-3
1532381205875,1,-1,2,-1,5,-6,-7,2
1532381205880,-3,0,-2,6,6,16,2,3
1532381205885,1,1,6,-2,2,-12,4,-2
1532381205890,0,-1,-6,-9,1,-2,-5,0
1532381205895,0,-3,-4,-2,-5,-6,16,-2
1532381205900,1,-2,-1,-6,-14,-6,0,-2
1532381205905,1,1,6,15,6,-5,1,3
1532381205910,-3,-4,-10,-12,0,11,4,-3
1532381205915,-1,-1,-4,-13,-8,-12,6,-3
1532381205920,1,0,-1,-1,4,9,-7,0
1532381205925,2,1,-2,6,7,-16,-2,-5
1532381205930,1,0,2,7,8,-5,14,2
1532381205935,-1,3,5,16,19,-2,4,-4
1532381205940,-1,-2,-4,-22,-39,2,14,-2
1532381205945,-2,-3,-8,-2,1,2,14,3
1532381205950,2,1,1,0,7,11,-7,2
1532381205955,-1,-1,0,-4,1,-4,-22,-2
1532381205960,1,3,8,26,12,1,-2,-1
1532381205965,0,-1,7,-7,-1,10,1,-3
1532381205970,-1,-3,-15,-9,-14,-14,-5,-3
1532381205975,1,-2,-4,-19,-10,-2,4,-1
1532381205980,1,-1,1,6,5,-5,-1,0
1532381205985,0,-1,1,-1,-10,-23,5,-2
1532381205990,1,-1,3,8,10,31,4,-6
1532381205995,1,0,0,8,4,-2,-2,6
1532381206000,2,0,-3,-3,-3,-2,8,3
1532381206005,0,3,6,12,1,-7,-10,-7
1532381206010,-2,-6,-11,-20,15,-12,-9,0
1532381206015,-1,-3,-8,-25,-65,-10,15,0
1532381206020,-6,-2,-5,-8,11,6,-6,-4
1532381206025,0,-1,-2,5,9,18,2,3
1532381206030,-2,8,13,18,3,-24,-14,-3
1532381206035,-3,-5,-7,-4,11,3,6,-2
1532381206040,-1,-4,-6,-10,7,-2,-3,-1
1532381206045,-1,2,-1,1,-13,3,-3,6
1532381206050,2,-2,-2,-5,-16,2,11,0
1532381206055,-2,-2,4,4,12,-3,-3,-8
1532381206060,2,2,4,10,-9,-15,-2,-3
1532381206065,-1,-3,-2,-3,8,-3,-6,2
1532381206070,0,-2,-4,-1,6,10,-5,-1
1532381206075,-2,1,-1,0,5,-2,-2,2
1532381206080,1,2,7,18,9,0,-2,3
1532381206085,-2,-3,-5,-7,13,1,0,-3
1532381206090,1,0,1,-8,-8,-8,0,3
1532381206095,1,-2,-2,-3,-6,4,-7,0
1532381206100,0,4,7,14,3,8,-10,-5
1532381206105,1,1,0,-1,5,7,0,-5
1532381206110,0,-1,-2,-6,-6,-12,-9,-3
1532381206115,-4,-4,-6,0,2,4,3,2
1532381206120,-1,-1,0,2,30,16,1,3
1532381206125,1,4,8,9,-18,-12,-4,-1
1532381206130,-2,-2,-3,-4,-3,7,5,-2
1532381206135,0,0,1,3,3,-1,-11,-4
1532381206140,-4,-3,-3,-6,8,15,4,6
1532381206145,1,2,3,17,12,-5,-14,2
1532381206150,-3,-2,1,2,0,8,6,-5
1532381206155,2,-1,-4,-9,3,10,-2,-3
1532381206160,-2,-3,-3,5,1,-12,10,-7
1532381206165,3,4,7,4,-5,2,5,-2
1532381206170,-5,-8,-12,-20,-11,-17,6,-5
1532381206175,2,-3,-5,-4,-7,11,11,2
1532381206180,-1,0,4,-2,-11,-26,8,3
1532381206185,-2,-1,2,9,29,6,6,-2
1532381206190,3,4,11,19,8,-37,11,-17
1532381206195,-3,-2,-4,-17,-17,11,12,-2
1532381206200,-4,-5,-9,-18,-12,-12,10,3
1532381206205,-4,-3,-7,-7,-3,4,-2,-3
1532381206210,1,2,3,12,24,7,-14,5
1532381206215,4,1,6,9,-1,-1,-11,11
1532381206220,2,4,5,8,-7,-8,-2,0
1532381206225,0,-2,-4,-9,4,30,-8,7
1532381206230,-2,-4,-6,-5,-5,12,-3,6
1532381206235,1,1,2,5,-2,-24,-4,3
1532381206240,0,2,0,0,-7,-22,-5,-19
1532381206245,1,-2,-1,-4,-2,8,-2,-1
1532381206250,-2,-1,-1,-2,-15,-5,-3,2
1532381206255,-2,-2,-4,-5,-2,5,1,0
1532381206260,2,2,5,8,5,2,-7,6
1532381206265,1,0,-5,-10,3,-12,6,4
1532381206270,1,2,2,2,-30,22,-3,-7
1532381206275,1,4,5,16,17,-27,-2,-3
1532381206280,2,2,4,6,12,24,-1,-5
1532381206285,1,0,1,10,-19,3,4,2
1532381206290,-8,-4,-10,-27,2,-25,2,8
1532381206295,-2,-5,-6,-8,2,13,-1,14
1532381206300,3,3,1,3,5,30,0,-6
1532381206305,0,2,6,15,12,5,-2,-8
1532381206310,2,0,6,5,3,-5,1,1
1532381206315,0,-6,-2,10,61,0,-1,-3
1532381206320,-5,-7,-11,-41,-98,4,2,5
1532381206325,-4,-2,-3,-1,19,30,-4,-4
1532381206330,3,1,1,10,-1,-2,0,-2
1532381206335,-4,2,2,-15,-33,-16,1,-3
1532381206340,0,-1,2,10,36,11,1,6
1532381206345,0,-3,-5,-11,-43,-14,0,-1
1532381206350,-5,0,0,11,62,41,3,5
1532381206355,5,4,3,2,-68,-16,-5,-9
1532381206360,0,-3,-1,-3,19,12,1,9
1532381206365,-3,-1,-3,3,13,-28,-3,3
1532381206370,2,-1,-4,-17,-9,13,3,-7
1532381206375,-2,0,-1,6,-1,-20,4,-6
1532381206380,0,0,2,4,4,-3,0,-4
1532381206385,0,-3,2,0,37,-7,5,0
1532381206390,1,-2,-3,-5,-45,6,1,4
1532381206395,-2,1,2,3,5,15,-2,-4
1532381206400,-2,-3,-3,4,17,-16,0,-12
1532381206405,-3,-1,-4,-9,0,-19,1,6
1532381206410,2,0,-1,-5,-43,-29,0,-14
1532381206415,-3,-2,-3,-10,20,2,-2,2
1532381206420,0,-3,-1,3,-35,-6,-5,3
1532381206425,0,1,2,0,5,-33,-2,-7
1532381206430,0,0,2,4,14,-10,-7,1
1532381206435,-2,-1,-2,4,-2,-10,-11,-4
1532381206440,-2,-2,-4,-14,1,4,-11,-3
1532381206445,5,-1,2,11,-2,14,-11,0
1532381206450,-7,-3,-4,-8,-44,-10,2,8
1532381206455,0,0,0,1,8,-8,-2,-7
1532381206460,0,3,3,4,14,12,-3,1
1532381206465,-3,-5,-9,-18,-16,-10,-6,2
1532381206470,1,-1,-2,3,23,8,-10,-4
1532381206475,-1,-2,-1,1,-9,20,-10,1
1532381206480,-1,1,1,4,12,-10,-4,3
1532381206485,2,-1,1,10,35,6,1,-6
1532381206490,1,-1,2,-3,-6,-12,-3,-1
1532381206495,-1,-2,-5,-2,26,-6,-1,-2
1532381206500,-2,1,-4,-10,-25,-5,2,3
1532381206505,-1,1,1,5,1,14,1,2
1532381206510,1,-1,-1,3,21,1,-5,5
1532381206515,-1,-3,-2,-4,-8,-22,-2,-6
1532381206520,0,-2,2,5,10,3,-2,-5
1532381206525,-3,-3,-3,-8,-25,8,-1,5
1532381206530,1,3,6,10,12,-1,6,-2
1532381206535,2,-2,-1,-9,-12,24,3,0
1532381206540,-4,-4,-10,-20,-13,-46,-3,-3
1532381206545,-1,3,1,5,3,13,5,6
1532381206550,-2,0,-1,-1,5,9,-2,-2
1532381206555,1,0,2,6,0,13,5,-1
1532381206560,0,0,2,6,9,8,2,-2
1532381206565,1,-1,0,-3,-3,2,1,-3
1532381206570,1,1,0,1,-12,4,-3,-2
1532381206575,-2,0,-2,-7,-4,-1,-3,0
1532381206580,-1,-1,0,3,7,2,-2,-2
1532381206585,0,1,2,7,2,-6,2,-4
1532381206590,3,0,-2,-2,8,1,-4,3
1532381206595,-5,-3,-4,-16,-34,-9,-3,3
1532381206600,-1,-2,-5,-5,-5,16,-10,5
1532381206605,-2,1,2,2,-18,-4,-13,-3
1532381206610,-3,0,0,5,27,-1,-10,1
1532381206615,2,1,1,12,7,-7,7,0
1532381206620,-1,0,0,-5,-9,-8,1,0
1532381206625,-1,-2,-3,-6,-9,-8,2,-1
1532381206630,0,-1,-1,-5,-3,6,5,-4
1532381206635,1,-2,-1,-1,-2,3,6,-4
1532381206640,-7,0,-2,-1,-7,2,-36,2
1532381206645,-8,1,-2,-1,-12,3,-28,2
1532381206650,4,1,5,-11,8,-31,64,-2
1532381206655,6,-3,-5,-17,-9,-16,57,-7
1532381206660,5,-2,-2,-8,5,15,39,-7
1532381206665,5,-1,-1,1,10,8,26,-4
1532381206670,4,3,1,11,1,-4,1,-4
1532381206675,2,0,7,1,-4,16,-6,-2
1532381206680,-2,-2,-1,-17,-8,-13,-2,-4
1532381206685,-1,-3,-6,-6,-7,-2,-5,-1
1532381206690,-1,3,2,22,5,9,9,0
1532381206695,2,-1,6,-15,4,9,19,0
1532381206700,3,-1,-10,-3,-5,-2,23,-3
1532381206705,0,0,11,-22,3,31,27,0
1532381206710,1,-5,-8,-6,-1,-24,12,-7
1532381206715,1,0,-3,13,-7,-8,13,-4
1532381206720,3,-2,2,6,18,11,19,-1
1532381206725,3,-4,-13,-13,-2,2,-1,-4
1532381206730,3,-1,8,2,0,22,-2,-3
1532381206735,3,-2,-3,5,5,36,5,-4
1532381206740,2,2,8,11,0,-2,-4,-1
1532381206745,-2,0,2,-3,0,15,-8,-1
1532381206750,-3,-3,-6,-7,-3,16,-8,-2
1532381206755,1,2,-2,-4,-3,4,-10,0
1532381206760,-3,-1,-2,4,-2,-48,-9,2
1532381206765,1,1,5,19,-3,-6,-10,0
1532381206770,-2,-1,3,-16,2,-34,-14,2
1532381206775,-2,-1,-11,-8,2,-32,-4,1
1532381206780,0,0,-6,-2,-10,-15,-8,2
1532381206785,-2,-3,2,-9,7,-22,-13,0
1532381206790,-1,-3,-7,7,4,16,-5,-1
1532381206795,-1,3,11,20,-7,-5,-15,-2
1532381206800,-2,-1,-1,-21,-18,-14,-8,0
1532381206805,-2,-5,-14,-10,-8,-13,-4,-3
1532381206810,0,0,2,-15,5,15,-17,0
1532381206815,-4,-2,-2,-7,2,6,-12,-2
1532381206820,1,-1,2,19,10,7,-10,-3
1532381206825,0,-2,4,4,-3,-8,-5,1
1532381206830,-1,3,2,39,1,6,12,3
1532381206835,1,0,-1,-20,1,-1,8,-1
1532381206840,-2,-2,3,23,4,-4,5,1
1532381206845,-1,-1,-5,-37,-7,8,5,-1
1532381206850,-3,1,1,5,4,-4,2,0
1532381206855,3,10,17,71,31,0,6,2
1532381206860,-5,3,4,-40,-29,-2,-8,-1
1532381206865,-4,-5,-27,-35,-2,2,-6,-4
1532381206870,1,-3,-15,-21,-13,-8,0,-3
1532381206875,-3,-4,-4,2,9,1,0,-1
1532381206880,1,1,10,19,15,26,0,-1
1532381206885,0,0,15,30,-1,7,5,2
1532381206890,-2,-1,2,-8,2,14,-7,-1
1532381206895,-3,-6,-1,-4,-3,-27,-16,-2
1532381206900,1,-2,-6,-1,-7,17,-11,1
1532381206905,0,-5,1,0,8,14,-6,-3
1532381206910,-2,-3,1,-2,-15,8,-5,-1
1532381206915,0,3,10,66,15,-11,-6,2
1532381206920,3,2,1,-72,-19,-38,-2,-4
1532381206925,-9,-5,-29,-49,-42,-6,-6,-3
1532381206930,-1,3,-8,11,37,-4,3,-1
1532381206935,-2,0,-6,-28,-2,-5,8,-1
1532381206940,1,5,4,47,19,44,19,-1
1532381206945,0,6,21,40,16,23,8,1
1532381206950,-2,-1,4,-3,-22,-53,3,-2
1532381206955,0,-4,-10,-25,-7,-9,5,-1
1532381206960,-1,-4,-1,18,19,15,-6,0
1532381206965,1,2,12,23,18,-9,-11,-1
1532381206970,0,-3,1,-26,-41,8,-11,-1
1532381206975,-5,-7,-19,-45,-27,-19,-7,-4
1532381206980,-5,-2,-6,-9,-2,-7,-7,-1
1532381206985,-1,-2,2,16,-14,-16,-3,4
1532381206990,4,1,6,51,61,7,-2,-3
1532381206995,4,2,11,-44,-4,-11,2,2
1532381207000,-4,-7,-14,-30,-88,-4,1,-2
1532381207005,-2,2,-3,14,26,-3,3,-1
1532381207010,-3,-2,-15,-43,-15,-5,5,-2
1532381207015,-1,-1,-3,-4,5,16,6,0
1532381207020,-1,-1,0,9,22,1,4,-1
1532381207025,2,-1,10,23,7,-3,-1,1
1532381207030,2,-1,6,3,-5,5,-1,0
1532381207035,-2,-6,-4,-3,-10,24,-4,-2
1532381207040,-2,-1,1,13,18,-5,0,0
1532381207045,-2,0,0,-3,-6,4,2,0
1532381207050,-2,2,-2,-8,-2,10,-3,1
1532381207055,-1,2,-1,7,3,6,-5,0
1532381207060,2,1,-3,2,3,-19,-1,-2
1532381207065,4,-1,1,-3,12,13,1,1
1532381207070,0,-1,-4,-11,-5,-8,-2,-1
1532381207075,0,-1,0,11,-20,3,6,3
1532381207080,-1,2,-2,-7,32,14,-1,-1
1532381207085,-3,2,-4,-19,-15,-1,-5,-2
1532381207090,-2,3,5,14,5,3,0,2
1532381207095,-2,2,0,4,-9,-15,3,-2
1532381207100,-1,-4,-1,4,28,0,6,-1
1532381207105,-5,0,7,30,-26,8,-1,1
1532381207110,-5,-5,0,-43,-12,-29,2,-4
1532381207115,-6,-6,-10,-11,-2,8,0,-1
1532381207120,1,-2,-4,-7,4,2,-2,0
1532381207125,3,0,-3,11,14,-10,1,-2
1532381207130,-3,-3,-6,0,-3,-1,0,0
1532381207135,-1,0,-4,-8,0,-36,-2,-2
1532381207140,1,-1,-1,5,6,18,5,0
1532381207145,-1,-2,6,17,25,23,0,-1
1532381207150,3,0,-1,10,22,33,3,-3
1532381207155,0,6,0,-16,-42,-48,-3,1
1532381207160,0,-1,-4,-1,24,7,6,-3
1532381207165,0,0,-5,-17,-57,-12,1,-2
1532381207170,-1,2,5,0,7,0,0,4
1532381207175,0,-1,2,9,29,24,1,-1
1532381207180,-2,1,1,4,-7,9,-1,2
1532381207185,-1,-3,0,0,9,11,5,0
1532381207190,-1,-5,-2,-8,-15,-18,-3,-3
1532381207195,0,-4,-6,-18,-7,4,0,-2
1532381207200,-1,-1,2,14,12,1,-1,4
1532381207205,-4,0,2,18,24,-4,-2,-2
1532381207210,-7,-2,4,-5,-19,-39,-4,-2
1532381207215,1,-4,-2,-3,-15,10,-1,-3
1532381207220,-3,0,-1,-1,-13,-24,-6,0
1532381207225,0,4,6,13,40,16,5,2
1532381207230,3,-3,-10,-17,-29,-15,-4,2
1532381207235,-3,5,3,-1,8,-14,-10,1
1532381207240,1,-1,-5,4,21,8,20,-5
1532381207245,0,2,0,-10,-27,-9,-8,-4
1532381207250,0,1,2,5,-1,22,9,-2
1532381207255,1,-4,-1,-1,11,-10,5,-2
1532381207260,0,-6,-3,-9,-9,3,-6,2
1532381207265,3,-1,-1,8,19,14,6,1
1532381207270,0,0,0,4,0,-6,3,2
1532381207275,-1,-3,-1,-3,-1,17,-1,-4
1532381207280,0,-2,0,-9,-5,-7,-3,0
1532381207285,0,-1,7,26,17,2,0,0
1532381207290,-1,-5,-9,-45,-38,-3,-12,-2
1532381207295,-3,-4,-12,-11,-3,-25,0,-3
1532381207300,-7,2,4,1,-2,11,-6,3
1532381207305,-8,-1,-4,5,-10,-24,-1,0
1532381207310,-4,1,0,15,22,-3,2,-2
1532381207315,-1,3,4,2,14,-3,-11,2
1532381207320,0,1,-2,5,-12,-29,-3,-3
1532381207325,4,3,-2,-12,-14,14,-1,-2
1532381207330,2,-1,0,-7,14,-1,-14,0
1532381207335,1,-2,-7,-17,-29,16,17,-1
1532381207340,3,1,0,0,-1,-31,-5,1
1532381207345,3,0,-4,0,-1,3,0,-2
1532381207350,6,1,3,19,15,16,6,4
1532381207355,3,0,2,6,6,16,6,1
1532381207360,4,-4,1,5,14,30,-3,2
1532381207365,2,-3,-2,-16,-19,-31,3,-3
1532381207370,2,0,0,4,-14,28,5,2
1532381207375,-1,-5,-2,9,20,11,0,-3
1532381207380,-2,-3,-2,0,-5,-15,1,-2
1532381207385,1,3,4,24,16,4,2,1
1532381207390,-3,-2,1,1,13,2,-3,-3
1532381207395,-3,-5,-9,-19,-14,11,-1,-3
1532381207400,-1,-1,-5,-12,-12,-23,-2,-3
1532381207405,-3,-2,0,-6,9,48,-1,-1
1532381207410,-1,2,3,13,-8,-50,2,-2
1532381207415,-3,0,9,14,-1,-8,-2,1
1532381207420,-1,-2,-5,-7,4,9,-1,-2
1532381207425,-1,-3,-4,-17,0,32,4,-5
1532381207430,0,-2,-1,2,-9,-21,-3,1
1532381207435,2,2,4,-2,12,10,3,-1
1532381207440,0,-1,5,25,2,5,1,-1
1532381207445,-5,-1,-5,-19,-22,-23,-6,5
1532381207450,-4,1,5,-1,-4,7,3,-3
1532381207455,-1,-4,-10,-20,12,1,0,-1
1532381207460,-7,-2,-4,8,14,-9,-1,0
1532381207465,-2,-1,0,9,15,0,2,-3
1532381207470,-3,-1,0,4,27,-4,-1,-2
1532381207475,0,1,-2,-5,-26,-34,-3,1
1532381207480,1,4,4,1,-13,-8,-4,-4
1532381207485,0,-3,-5,-11,4,21,-1,3
1532381207490,-2,0,-4,-6,-7,-13,1,-2
1532381207495,2,-2,3,7,-1,4,-5,-2
1532381207500,1,-2,-2,-8,-6,-2,-1,-1
1532381207505,-2,-2,2,8,-6,-10,2,-1
1532381207510,4,3,-1,5,3,2,-3,-1
1532381207515,-2,0,1,2,3,2,-4,-7
1532381207520,2,-3,-3,-12,-12,-1,2,5
1532381207525,2,-1,0,7,10,-11,-2,-2
1532381207530,0,-1,-2,-9,-6,18,3,1
1532381207535,-1,0,3,13,19,3,2,1
1532381207540,-1,-2,-1,-15,-24,0,0,-1
1532381207545,-1,0,0,-9,-9,-3,1,-2
1532381207550,-2,0,-3,-7,-14,-28,-2,-2
1532381207555,0,1,0,2,9,60,-1,3
1532381207560,2,0,3,29,2,-41,3,-1
1532381207565,-4,-3,-7,-26,-5,19,0,2
1532381207570,-3,-4,-3,-6,-3,-21,-8,-4
1532381207575,-4,-1,-4,2,7,-7,-5,-2
1532381207580,-3,-1,0,-1,2,14,-6,-1
1532381207585,2,-1,5,25,29,-3,9,-1
1532381207590,-4,-2,-2,-9,-15,-1,-2,0
1532381207595,-1,2,2,8,-16,-9,1,2
1532381207600,-1,-1,-2,-19,-21,22,-2,1
1532381207605,-1,0,0,8,0,-31,-3,0
1532381207610,1,-2,0,8,10,39,1,1
1532381207615,0,1,0,2,5,-9,0,-1
1532381207620,-3,-1,-2,-1,4,-4,-1,-2
1532381207625,3,-3,0,10,20,25,4,-6
1532381207630,-3,1,0,-7,-17,17,2,1
1532381207635,0,-2,2,5,34,-7,1,-1
1532381207640,1,-3,-9,-39,-68,-19,-3,-4
1532381207645,-5,0,0,-3,75,-14,-2,1
1532381207650,-3,0,-1,9,16,-2,3,-1
1532381207655,-2,-2,-4,-7,-10,-1,3,-1
1532381207660,-4,2,3,17,41,28,-2,0
1532381207665,2,-2,-1,-2,-35,-15,-3,-3
1532381207670,-2,0,-1,-15,-46,3,2,-2
1532381207675,-6,-1,0,-3,11,-3,1,1
1532381207680,-5,2,-1,0,5,10,3,-3
1532381207685,-8,-2,-4,-16,-28,-9,-3,-1
1532381207690,-4,-2,2,15,23,9,3,-1
1532381207695,-2,-1,-3,-7,-32,-23,0,-2
1532381207700,-5,-1,-1,-2,17,17,0,2
1532381207705,-2,0,0,-2,-24,9,0,0
1532381207710,-2,0,-1,6,15,2,-2,1
1532381207715,-3,-3,1,0,0,4,-2,-5
1532381207720,-3,-2,-3,-1,-14,-7,-4,0
1532381207725,-4,-2,-3,-2,20,-11,2,-2
1532381207730,-2,-1,-1,0,6,17,4,-1
1532381207735,-4,1,1,1,-5,-3,3,1
1532381207740,-3,-1,0,2,15,16,1,-2
1532381207745,1,2,2,6,-17,-20,-5,0
1532381207750,1,-3,-2,1,10,28,2,-1
1532381207755,1,0,1,-10,-20,-29,-4,-3
1532381207760,1,-2,-2,-2,13,2,-3,1
1532381207765,-1,-3,-4,-7,-20,-24,-8,-14
1532381207770,2,1,-2,7,20,-6,5,4
1532381207775,2,0,-2,-11,-27,-6,-1,1
1532381207780,9,1,6,32,43,34,4,1
1532381207785,5,2,0,-11,-26,-24,-1,4
1532381207790,3,-3,-7,-20,-30,24,-1,-3
1532381207795,4,-1,-2,11,13,2,-4,-5
1532381207800,6,1,6,10,-15,-14,5,0
1532381207805,5,-3,-6,-28,22,9,4,-7
1532381207810,4,0,-2,5,-44,-28,-8,-1
1532381207815,2,0,4,-8,69,7,1,2
1532381207820,2,-4,-10,7,32,28,-1,-2
1532381207825,7,1,-5,-45,-71,-28,-2,6
1532381207830,0,-2,-1,-9,21,-7,2,-4
1532381207835,1,1,2,2,-7,12,0,1
1532381207840,-1,2,4,8,18,1,5,2
1532381207845,-1,-2,1,20,15,10,3,2
1532381207850,2,2,1,7,16,3,2,-1
1532381207855,-1,0,-1,0,-14,21,-1,0
1532381207860,-1,-1,-2,-5,-7,-16,-2,-4
1532381207865,-3,-2,-3,9,-8,8,0,0
1532381207870,-2,-1,-1,-7,-1,-8,-2,-4
1532381207875,0,-2,-2,10,9,2,1,2
1532381207880,-3,0,-3,-21,-27,-17,-4,-2
1532381207885,-3,4,8,14,14,16,1,-6
1532381207890,-4,-4,-4,5,5,-11,-3,-1
1532381207895,-2,-8,-5,-5,-9,-7,0,3
1532381207900,-2,5,0,-13,-4,4,-3,-3
1532381207905,1,-2,-4,5,-6,-11,-3,8
1532381207910,1,2,0,-1,1,-6,0,3
1532381207915,1,1,0,2,-5,8,1,0
1532381207920,-1,-3,-1,4,14,-11,0,0
1532381207925,-4,-3,9,-10,-14,-1,-5,1
1532381207930,0,-1,-5,1,-11,13,2,-1
1532381207935,-1,0,-1,-4,7,10,2,2
1532381207940,0,1,1,-4,-12,-10,0,-2
1532381207945,-2,1,5,11,15,5,7,-2
1532381207950,-2,-11,-5,5,-5,-11,-1,-3
1532381207955,-1,-1,-2,-4,-4,9,3,-2
1532381207960,-1,-3,-3,1,-4,-17,1,-1
1532381207965,-1,-2,-2,4,3,27,0,-2
1532381207970,-2,3,2,-5,1,-2,-2,0
1532381207975,-1,0,-1,5,2,-8,-2,-2
1532381207980,-4,-2,-1,-7,-9,-5,-4,-1
1532381207985,-2,0,-3,4,5,-4,-7,2
1532381207990,-1,3,9,20,18,16,-4,-8
1532381207995,-2,-1,-8,-33,-36,-18,0,-1
1532381208000,-2,-2,-4,-10,-6,-17,2,-4
1532381208005,-1,-1,-3,-4,25,-8,7,7
1532381208010,-2,-4,-3,6,-7,13,-7,-4
1532381208015,2,-2,-4,-23,-76,-14,1,-1
1532381208020,2,2,4,5,13,-8,-5,-3
1532381208025,2,-1,1,9,11,-21,-3,-6
1532381208030,4,1,3,-2,8,-3,0,4
1532381208035,7,3,5,27,25,32,1,-3
1532381208040,4,-1,-6,-10,-8,-8,-2,1
1532381208045,2,0,-1,17,11,-2,3,-2
1532381208050,-1,1,1,-23,-25,2,6,4
1532381208055,-2,1,4,15,35,4,-2,-1
1532381208060,-7,-6,-6,-6,-27,-6,-3,-3
1532381208065,-1,-1,-3,-1,17,25,3,2
1532381208070,-1,-1,1,1,10,-11,3,0
1532381208075,-3,-1,-1,0,8,-9,-2,-1
1532381208080,-1,0,3,-1,2,8,-2,-1
1532381208085,-1,0,-3,1,-11,7,-1,-2
1532381208090,-3,2,-2,-5,-17,-26,1,-5
1532381208095,-2,0,0,-2,7,-4,-6,-3
1532381208100,0,0,1,8,22,10,3,3
1532381208105,-4,0,-6,-13,-38,8,-8,-1
1532381208110,0,-2,-3,-3,7,-22,0,0
1532381208115,-3,-3,-3,2,-1,-8,1,-4
1532381208120,1,0,0,-4,-5,-1,2,2
1532381208125,0,-1,0,-3,9,-7,6,0
1532381208130,-1,-2,0,-1,0,4,-6,3
1532381208135,-2,-1,-1,3,-8,-9,2,1
1532381208140,0,-1,0,-2,-6,4,3,0
1532381208145,0,-1,-1,5,13,26,2,1
1532381208150,0,0,-1,-1,-6,-23,1,-3
1532381208155,-1,-2,0,-1,7,21,1,0
1532381208160,1,1,2,2,-6,-3,1,0
1532381208165,-2,-2,-1,-2,0,-4,-1,-2
1532381208170,0,0,-2,-3,5,10,-1,-1
1532381208175,-1,0,2,4,1,-7,-7,2
1532381208180,-5,-7,-7,-14,-13,-11,-4,-3
1532381208185,0,-6,-6,-2,-11,9,-2,-2
1532381208190,0,0,1,3,0,-1,3,-2
1532381208195,-2,-1,-1,-2,12,31,0,1
1532381208200,1,3,2,4,8,-6,3,-1
1532381208205,0,0,2,4,-21,-20,-3,0
1532381208210,-1,-1,-2,4,17,11,-2,1
1532381208215,1,1,-2,-5,4,-8,2,-1
1532381208220,0,2,3,-2,-5,-3,-5,-1
1532381208225,-4,-1,-4,6,8,-4,-1,1
1532381208230,0,-1,-2,3,2,-8,1,-3
1532381208235,1,-2,-1,0,-9,8,3,-1
1532381208240,-1,0,-1,0,9,18,0,-4
1532381208245,1,2,3,0,-7,-6,2,6
1532381208250,0,0,1,-1,13,6,-4,-2
1532381208255,-6,-4,-3,-6,-5,-29,-1,-3
1532381208260,-2,-3,-3,0,-2,43,1,-1
1532381208265,-2,0,1,-6,5,2,-3,1
1532381208270,-1,2,-1,0,-10,-9,1,1
1532381208275,-1,-3,0,8,-4,5,-1,-2
1532381208280,-1,-2,-1,-4,1,4,-3,-1
1532381208285,-3,-1,0,-6,2,6,-1,-3
1532381208290,0,0,-1,-1,4,-1,4,3
1532381208295,-1,3,3,3,6,10,3,1
1532381208300,2,-2,-1,7,-13,-10,0,-1
1532381208305,-2,-4,-4,4,2,-5,-2,-2
1532381208310,-1,-4,-3,-5,2,1,-4,-1
1532381208315,0,-1,0,-2,-2,-12,-2,-1
1532381208320,1,-1,1,0,-1,3,4,0
1532381208325,0,2,1,-7,-5,-1,0,-2
1532381208330,-1,1,2,5,1,-7,1,-2
1532381208335,-4,-2,-6,-8,-12,7,0,-1
1532381208340,0,1,3,6,30,6,-4,3
1532381208345,-2,-1,-1,0,-14,-23,0,-1
1532381208350,0,1,2,0,9,36,1,5
1532381208355,-1,0,-2,-3,0,-16,-2,-3
1532381208360,-2,0,-2,-5,-11,-32,3,-8
1532381208365,2,-1,-2,-1,1,27,-1,-2
1532381208370,-1,-2,-2,-4,-6,-6,0,-1
1532381208375,1,-2,1,-3,-10,-19,0,0
1532381208380,-1,0,-2,5,2,-4,2,-3
1532381208385,-4,-1,-2,1,14,5,-3,-1
1532381208390,-2,-4,-3,-8,-5,-11,-1,0
1532381208395,0,0,-2,-2,-25,-35,-5,-2
1532381208400,-2,2,-1,-1,0,20,-1,1
1532381208405,0,-3,-1,1,6,-7,3,1
1532381208410,0,0,-1,0,-8,-15,-4,-2
1532381208415,-1,-3,-2,-4,-2,-8,0,-4
1532381208420,0,0,-1,-1,6,3,-2,-1
1532381208425,3,3,3,0,0,26,4,4
1532381208430,-3,-4,-3,1,3,-3,-1,-7
1532381208435,3,1,0,3,-2,-4,1,8
1532381208440,-2,-1,-4,-6,-6,9,-2,-2
1532381208445,-3,-2,0,0,9,-7,-1,-4
1532381208450,1,0,-1,1,-4,2,-1,-2
1532381208455,0,6,5,15,20,-2,0,-4
1532381208460,-7,-11,-7,-22,-9,-1,-4,2
1532381208465,0,-2,-5,1,-17,-25,-1,-6
1532381208470,-5,-2,-3,-2,0,18,-3,3
1532381208475,-1,0,-1,2,24,13,-2,3
1532381208480,-3,0,-2,-4,-12,-21,-1,0
1532381208485,0,3,6,18,22,30,3,-1
1532381208490,-4,-1,0,-10,-13,-8,4,1
1532381208495,-5,-6,-6,-9,-11,9,-1,-2
1532381208500,1,1,0,4,7,-10,2,0
1532381208505,-3,-1,-1,-4,-5,-7,2,3
1532381208510,-1,2,1,1,-5,-1,2,-3
1532381208515,1,4,6,11,10,17,3,1
1532381208520,-8,-2,-2,-3,-9,-5,-3,-1
1532381208525,-5,-5,-5,-8,-2,-11,-5,-4
1532381208530,-2,1,1,4,9,-4,3,2
1532381208535,1,-4,1,18,20,36,4,-4
1532381208540,2,6,3,-7,-29,-12,0,2
1532381208545,-2,-5,-4,-20,-21,-6,-4,-1
1532381208550,2,0,-2,-7,-1,-3,-3,-1
1532381208555,1,-2,-2,-7,1,18,-4,-3
1532381208560,3,-2,4,27,27,-12,3,-2
1532381208565,2,1,0,-4,-5,19,-4,-3
1532381208570,2,0,0,6,-7,-24,1,-1
1532381208575,2,2,2,14,18,22,4,0
1532381208580,-2,-3,-8,-49,-38,-3,-1,0
1532381208585,1,2,-1,9,-8,-20,-2,1
1532381208590,5,-1,-1,0,20,3,0,1
1532381208595,1,1,3,6,8,-12,2,-1
1532381208600,3,-3,-1,-3,1,-7,-1,-3
1532381208605,-1,-2,1,6,5,0,-2,-3
1532381208610,-1,0,0,-7,-11,7,0,-1
1532381208615,1,-2,-2,-6,4,-7,-2,0
1532381208620,3,0,2,13,7,3,2,1
1532381208625,2,0,-1,-11,-16,-12,0,-3
1532381208630,1,-3,-2,19,22,0,-1,0
1532381208635,-3,-6,-4,-17,-40,-10,-5,-1
1532381208640,0,3,-1,5,10,8,-2,-10
1532381208645,1,1,-1,-10,0,-8,1,3
1532381208650,-1,1,0,2,-3,16,2,-2
1532381208655,-1,-2,-6,-2,-14,-45,-13,-4
1532381208660,2,1,-2,-4,10,35,6,-2
1532381208665,-1,-2,-1,7,21,-2,-1,-1
1532381208670,1,-2,-3,-8,-11,-7,-1,1
1532381208675,2,1,1,-5,8,4,0,-1
1532381208680,4,2,3,13,4,-24,0,1
1532381208685,2,-5,-6,7,-6,3,1,-3
1532381208690,-1,-2,-1,-11,-5,5,2,1
1532381208695,1,1,-2,-4,-3,-15,-1,-2
1532381208700,0,0,6,12,-9,3,0,0
1532381208705,0,1,1,2,19,7,-2,1
1532381208710,-2,-1,-1,-2,-9,-12,-3,-4
1532381208715,-3,-3,-2,-5,-4,7,1,-2
1532381208720,-1,0,-1,4,7,2,-2,-1
1532381208725,-3,3,3,-4,1,-2,1,0
1532381208730,0,0,-2,-1,-12,-6,0,-4
1532381208735,-4,0,-1,-4,-2,7,4,2
1532381208740,-4,-5,-1,7,12,-2,-2,0
1532381208745,-3,-2,-3,-10,-18,-6,-3,-7
1532381208750,1,3,1,0,10,9,4,3
1532381208755,2,0,-3,-12,-28,-4,1,0
1532381208760,0,-3,-3,-5,5,-9,-2,0
1532381208765,1,-1,1,3,18,5,-5,-2
1532381208770,0,-2,-2,3,-15,-11,1,-2
1532381208775,1,-4,-4,-4,2,-12,-2,-2
1532381208780,0,-2,-1,1,4,6,-2,1
1532381208785,0,0,-2,-22,-29,-2,0,-2
1532381208790,0,-1,1,5,23,7,0,-3
1532381208795,-1,-2,-3,-6,0,2,0,0
1532381208800,3,3,0,-16,-18,-11,2,1
1532381208805,-1,-1,2,9,2,18,3,2
1532381208810,-1,-2,-2,5,0,-30,-2,-1
1532381208815,-1,1,-3,-11,-33,23,-1,-1
1532381208820,-2,-3,-5,-4,-2,-16,-3,-1
1532381208825,1,3,8,48,48,9,1,-3
1532381208830,-4,0,0,-28,-91,-19,-7,0
1532381208835,-4,-3,0,12,45,-10,-1,-2
1532381208840,-2,-4,-6,-7,-10,-1,-1,-4
1532381208845,-2,1,5,10,28,7,5,1
1532381208850,0,-1,-1,-2,-30,5,-1,-1
1532381208855,1,-3,-3,-3,-8,-11,2,-3
1532381208860,-2,0,0,-12,-1,2,-2,0
1532381208865,-1,-2,-4,-11,-18,-28,-2,-1
1532381208870,-2,-3,0,4,28,19,-3,-4
1532381208875,0,-1,0,-2,4,-6,0,3
1532381208880,0,1,0,4,10,23,5,1
1532381208885,0,-1,-4,-5,-20,-16,-5,0
1532381208890,-2,-1,0,2,33,24,4,1
1532381208895,-3,0,1,-5,-24,-28,-2,-4
1532381208900,0,-1,4,9,1,30,-2,-3
1532381208905,-2,-3,-12,-27,-18,0,1,-3
1532381208910,1,1,1,7,14,-2,2,-4
1532381208915,-2,1,-2,-10,27,16,-2,3
1532381208920,-1,-1,-2,-10,-14,-12,-3,0
1532381208925,0,-3,0,-3,0,4,1,2
1532381208930,0,-3,-1,2,12,6,-4,-1
1532381208935,1,0,0,0,-10,9,2,-1
1532381208940,-5,-3,-4,-5,5,-9,-3,-2
1532381208945,-1,1,5,14,12,5,3,-3
1532381208950,1,0,1,7,-4,0,-1,-1
1532381208955,0,0,1,37,20,-19,4,-3
1532381208960,-3,-3,-8,-28,6,-1,0,4
1532381208965,0,0,1,5,16,-5,-8,0
1532381208970,-3,-1,-4,-3,-13,-32,7,-1
1532381208975,-2,1,4,21,20,-28,-3,-5
1532381208980,1,-2,-1,-4,-5,8,1,1
1532381208985,0,-1,0,15,-18,-1,-6,-2
1532381208990,4,4,9,27,77,18,-2,0
1532381208995,0,-3,-12,-56,-96,-7,-9,-1
1532381209000,3,-2,-4,-12,-11,9,2,1
1532381209005,2,2,4,2,17,-37,-3,0
1532381209010,0,-3,-1,-7,-15,12,0,-1
1532381209015,2,-2,-4,-3,17,21,2,0
1532381209020,-3,-1,-4,-11,-17,-16,-3,-1
1532381209025,-1,0,3,8,-5,25,7,-2
1532381209030,-2,0,0,-8,-3,5,9,2
1532381209035,-3,0,1,-3,6,-11,4,-1
1532381209040,-1,-3,1,10,10,8,2,-3
1532381209045,-7,-1,-2,9,19,-7,2,-1
1532381209050,-3,-2,-6,-32,-56,1,-6,-1
1532381209055,-3,3,2,8,36,9,2,2
1532381209060,0,-1,0,1,-17,6,-6,-4
1532381209065,4,1,0,-2,1,8,4,-1
1532381209070,-1,-2,-3,1,1,1,0,-1
1532381209075,2,-1,1,0,-4,1,1,1
1532381209080,-1,-2,-2,-4,-2,-13,-3,-3
1532381209085,1,-1,-3,-9,-25,3,-1,0
1532381209090,1,-1,-1,-1,3,-9,-3,-3
1532381209095,0,-1,1,-4,7,12,-3,-2
1532381209100,-1,-2,0,9,4,-10,2,1
1532381209105,2,-1,-3,-2,-3,-5,-3,-4
1532381209110,0,1,2,11,17,9,-5,0
1532381209115,0,0,0,-3,-13,-15,-5,-1
1532381209120,-1,-1,-2,1,-25,1,0,0
1532381209125,-2,0,-1,8,20,1,-4,-6
1532381209130,-2,0,-2,-5,2,-33,1,-1
1532381209135,-1,-1,0,-5,-1,23,-1,0
1532381209140,0,2,1,2,-5,-17,3,-2
1532381209145,-2,-2,0,16,28,-3,0,1
1532381209150,-4,0,-2,-13,-5,-6,-3,1
1532381209155,-3,-4,-4,-10,-17,19,1,-2
1532381209160,0,0,0,6,2,-1,2,-1
1532381209165,0,1,-1,-6,6,16,-4,-2
1532381209170,5,-1,-1,2,4,10,1,5
1532381209175,2,0,0,4,-2,2,1,0
1532381209180,2,-2,-1,-3,4,5,2,-3
1532381209185,1,-2,-2,-8,-16,-8,8,-2
1532381209190,0,0,1,8,-15,-4,-4,-9
1532381209195,-1,-1,-3,-5,19,11,-8,9
1532381209200,0,-1,-2,1,4,-14,-6,-1
1532381209205,2,0,2,-1,-7,-9,-7,8
1532381209210,2,-4,-3,2,2,34,14,-6
1532381209215,0,-2,-2,0,-7,-58,-16,-2
1532381209220,2,0,-3,-7,-4,-13,8,-4
1532381209225,1,-3,0,-5,-5,18,-2,-2
1532381209230,1,-1,0,7,6,-9,1,3
1532381209235,3,1,1,-5,7,25,-2,0
1532381209240,13,-4,-5,-8,-13,-5,-6,4
1532381209245,14,-1,-4,-1,6,1,8,-4
1532381209250,18,0,-5,-12,-5,-6,-5,-1
1532381209255,16,-1,4,7,-3,30,21,-4
1532381209260,11,0,3,25,40,0,-2,3
1532381209265,13,-4,-9,-26,-3,-4,1,-8
1532381209270,41,0,-2,-10,-32,-3,-5,5
1532381209275,76,2,2,6,8,3,-1,1
1532381209280,80,2,5,16,30,25,0,4
1532381209285,49,-3,-2,-9,-44,-19,-9,-10
1532381209290,-2,-1,-5,8,25,0,-3,-3
1532381209295,-41,2,4,-16,-10,-18,-2,1
1532381209300,-72,-3,-7,-4,-13,2,0,-3
1532381209305,-79,-1,5,8,15,9,-1,-5
1532381209310,-75,1,-4,-12,-2,21,8,-2
1532381209315,-67,0,0,5,-5,-11,6,-3
1532381209320,-48,4,6,0,5,-8,0,3
1532381209325,-32,0,1,0,-4,-3,0,3
1532381209330,-20,0,1,5,-2,-18,-1,-2
1532381209335,-12,-2,-4,-3,3,-7,-8,-1
1532381209340,-10,-3,-3,-13,-12,4,-1,-1
1532381209345,-3,1,-3,3,6,5,-2,-1
1532381209350,3,-2,5,7,-5,4,2,2
1532381209355,-1,-2,-3,-2,-3,-2,0,-3
1532381209360,3,-2,-2,3,15,13,4,-3
1532381209365,4,1,0,-4,-30,15,7,9
1532381209370,7,-2,-1,3,13,9,3,-2
1532381209375,2,-1,-2,4,0,-3,-3,-3
1532381209380,3,0,-3,-5,-18,-9,6,4
1532381209385,6,3,1,9,1,11,0,-1
1532381209390,3,-3,-5,-13,16,-7,-9,1
1532381209395,3,0,0,5,1,1,1,-1
1532381209400,0,-1,-1,-5,-8,-8,-7,-2
1532381209405,3,-3,1,2,4,-12,-5,1
1532381209410,2,0,1,1,-10,-3,1,0
1532381209415,3,-2,-1,4,5,0,-3,-2
1532381209420,5,0,-3,-9,1,-14,-3,1
1532381209425,4,-1,-1,2,2,9,1,0
1532381209430,4,0,3,5,6,-9,-4,0
1532381209435,4,-3,-1,6,13,11,3,-4
1532381209440,3,0,0,0,-1,-2,-1,-1
1532381209445,5,-1,0,-7,-14,3,17,10
1532381209450,3,0,-2,1,-1,-12,-4,-2
1532381209455,1,-1,-3,0,-3,8,1,-1
1532381209460,-1,-2,1,-1,3,13,-4,-3
1532381209465,4,0,-1,4,11,-8,-10,-6
1532381209470,6,-1,1,5,-1,-1,1,3
1532381209475,4,0,-2,-13,-15,-7,-2,3
1532381209480,-1,-5,-3,-9,-13,-5,-3,-3
1532381209485,3,0,-3,-4,3,-9,-2,2
1532381209490,1,-2,1,1,-5,0,1,-3
1532381209495,-2,1,0,-1,2,-18,2,-3
1532381209500,1,-3,-2,-7,-15,6,-5,1
1532381209505,7,-1,-1,5,12,6,2,-6
1532381209510,1,-1,-1,-7,-12,-2,-9,-1
1532381209515,9,-2,-3,-8,-23,-17,8,0
1532381209520,16,1,3,8,46,24,-10,-4
1532381209525,25,0,0,4,-2,5,8,0
1532381209530,20,-2,-3,-30,-34,-6,-1,-4
1532381209535,18,-5,-2,10,33,18,4,0
1532381209540,22,-2,-5,-15,-46,-6,-1,-3
1532381209545,34,-3,0,1,19,1,-7,2
1532381209550,15,-1,2,11,14,-50,-9,-3
1532381209555,-6,0,-1,1,1,-19,2,-6
1532381209560,-2,0,2,-2,-9,19,5,0
1532381209565,-19,-1,-2,4,14,-1,-8,-1
1532381209570,-25,-2,-3,8,-1,-14,4,-3
1532381209575,-40,-4,-4,-13,-17,29,-1,1
1532381209580,-49,1,0,5,4,-23,6,-2
1532381209585,-51,3,1,-1,0,-14,1,0
1532381209590,-35,3,6,5,-16,28,2,2
1532381209595,-26,-2,0,-5,30,-22,-7,-2
1532381209600,-18,0,-5,-19,-34,2,5,-2
1532381209605,-16,-1,-6,-4,-5,-1,-1,-1
1532381209610,-7,2,1,6,19,19,3,-2
1532381209615,2,3,3,5,-9,-6,-4,-1
1532381209620,5,1,0,3,5,8,1,4
1532381209625,-1,0,0,0,4,-6,-3,-5
1532381209630,3,-1,0,9,11,21,1,0
1532381209635,8,1,-1,-9,-11,-2,-1,1
1532381209640,4,-1,1,4,22,9,0,-2
1532381209645,2,-1,-2,-4,-26,-12,4,-3
1532381209650,4,-1,-1,8,4,-6,5,-1
1532381209655,5,0,0,-4,-7,3,0,2
1532381209660,1,-1,1,8,5,3,-1,-3
1532381209665,0,-3,0,0,1,-4,1,0
1532381209670,2,-2,-2,-7,0,7,0,1
1532381209675,5,-1,-1,3,-1,0,-1,0
1532381209680,2,3,1,-1,-5,-7,0,1
1532381209685,2,0,-2,0,0,-10,-5,-1
1532381209690,4,-2,-5,-9,-1,12,-2,-2
1532381209695,5,0,0,3,-6,7,-2,-1
1532381209700,3,-2,1,5,10,-3,-1,-3
1532381209705,2,0,0,-5,-6,-1,-2,0
1532381209710,0,0,-1,-2,2,1,2,2
1532381209715,3,-2,-1,3,6,15,1,0
1532381209720,1,1,0,-1,-11,-24,1,-1
1532381209725,-2,-1,0,-4,3,5,1,0
1532381209730,1,-1,-1,-3,-18,-5,-4,-6
1532381209735,1,-1,-2,-1,2,0,1,5
1532381209740,0,-3,0,2,10,0,-1,-1
1532381209745,0,0,0,-3,-7,2,-3,-1
1532381209750,0,-1,1,1,8,-7,0,-1
1532381209755,4,1,-1,1,-2,9,-2,-1
1532381209760,1,-3,-1,-3,-2,-3,0,-1
1532381209765,1,1,0,3,5,2,-3,-2
1532381209770,0,-3,-2,-4,-2,2,0,0
1532381209775,1,0,0,2,-3,-8,-4,-2
1532381209780,0,-1,-3,3,5,4,-2,2
1532381209785,-1,0,1,-8,-9,1,0,0
1532381209790,-1,-2,-5,-4,0,0,1,1
1532381209795,0,-1,-2,-4,-13,-22,1,-1
1532381209800,1,-1,2,3,3,18,1,-1
1532381209805,-2,0,-1,5,9,-6,0,0
1532381209810,1,2,-1,1,-31,-44,-2,-1
1532381209815,1,0,2,1,21,59,3,1
1532381209820,-1,-3,-6,-5,-11,-21,0,-1
1532381209825,0,-2,-4,0,8,11,-1,-3
1532381209830,2,0,1,-3,-1,23,1,-1
1532381209835,-1,0,1,5,4,-22,-5,-2
1532381209840,0,0,1,2,-4,-5,-6,1
1532381209845,0,-4,-4,-6,-10,-1,0,2
1532381209850,3,1,1,6,15,5,3,-2
1532381209855,1,0,-2,1,-10,-28,-2,-3
1532381209860,-1,-3,-1,-2,7,17,2,1
1532381209865,0,0,2,-1,0,-8,3,-4
1532381209870,1,-2,0,3,10,13,0,2
1532381209875,-1,-1,2,0,-15,-21,-1,-1
1532381209880,-2,-2,-4,-6,4,16,1,-3
1532381209885,1,-4,-5,-9,-6,-4,1,-3
1532381209890,0,-2,-5,-9,3,3,-1,-1
1532381209895,-2,-1,-1,-2,-5,-4,-1,0
1532381209900,1,4,3,5,3,-7,-3,1
1532381209905,-3,-1,0,3,0,5,-3,-3
1532381209910,-2,1,0,2,8,4,-2,-1
1532381209915,-3,2,2,-6,-8,-1,1,0
1532381209920,-1,2,-1,20,35,17,3,1
1532381209925,-4,-3,-6,-34,-66,-6,-7,-5
1532381209930,-4,-4,-1,0,18,-7,-1,5
1532381209935,-1,-2,-1,0,3,-5,2,-5
1532381209940,0,-2,2,-1,2,-3,3,-2
1532381209945,0,1,2,12,16,-3,6,2
1532381209950,1,-2,-3,-7,-12,-9,0,-2
1532381209955,-1,-2,-3,-4,-1,19,-3,-2
1532381209960,2,0,-2,-3,-5,-22,-3,-1
1532381209965,0,-6,-1,4,10,9,1,4
1532381209970,1,-1,3,-1,-9,-5,2,-2
1532381209975,1,-3,-2,2,0,-3,-2,-4
1532381209980,0,-3,-3,-9,-12,-1,-5,0
1532381209985,0,4,4,7,12,-3,-2,-1
1532381209990,-3,-2,-1,-1,3,2,-3,3
1532381209995,0,0,-2,-3,-3,0,2,1
1532381210000,0,-1,-2,-3,-7,-19,-1,-2
1532381210005,0,-1,0,1,3,-2,-4,-4
1532381210010,0,1,-2,-2,-2,7,3,3
1532381210015,-1,1,-1,0,-1,-12,-3,-4
1532381210020,2,0,0,-4,-2,14,3,-2
1532381210025,1,0,-2,1,-5,-10,8,2
1532381210030,-2,0,-2,-3,-5,4,-1,-3
1532381210035,0,-2,1,9,8,0,2,1
1532381210040,1,-3,-2,-11,-10,6,1,1
1532381210045,-1,1,-2,-2,5,-9,-8,-1
1532381210050,-1,0,-1,3,-3,3,0,-3
1532381210055,0,0,-1,2,13,50,7,3
1532381210060,-2,-1,0,-1,-6,-10,0,3
1532381210065,2,0,4,3,10,-16,1,-5
1532381210070,1,-2,-4,1,-5,26,-6,4
1532381210075,3,-2,1,2,-4,-7,7,3
1532381210080,1,0,2,1,5,-4,0,-4
1532381210085,-2,-2,0,-2,-15,-14,-8,-3
1532381210090,-3,1,0,-2,-2,-2,3,-2
1532381210095,1,0,-1,-3,-5,-2,-9,4
1532381210100,0,1,-4,-5,4,4,2,-6
1532381210105,-5,-3,-2,1,17,-14,-9,-2
1532381210110,-1,-3,-3,-17,-39,-6,5,4
1532381210115,1,0,-1,3,16,1,-4,-1
1532381210120,-1,-4,1,4,1,2,2,1
1532381210125,2,-1,0,-1,7,13,3,-2
1532381210130,-2,-3,-5,-2,-14,-24,-6,-7
1532381210135,-3,-2,-2,1,3,13,11,-2
1532381210140,-3,-3,-1,1,2,5,2,2
1532381210145,3,0,0,-2,-6,-11,-2,3
1532381210150,4,2,5,11,-14,-13,-4,0
1532381210155,-1,-2,-3,-5,7,2,-4,-5
1532381210160,-1,-1,-4,-3,-4,-6,-3,-6
1532381210165,-2,-2,-5,-6,-3,1,-2,0
1532381210170,0,1,4,3,7,5,8,1
1532381210175,-3,-3,0,0,-6,2,-2,0
1532381210180,2,-2,0,-2,1,-5,4,-1
1532381210185,1,-2,2,-1,-6,4,6,8
1532381210190,-3,0,-2,-1,5,0,-4,-5
1532381210195,-2,-1,1,2,-2,-7,3,-4
1532381210200,-2,-1,-1,-1,2,0,-3,0
1532381210205,-2,0,-3,-3,-10,-2,-3,-2
1532381210210,0,0,2,4,12,-1,-4,2
1532381210215,-2,-2,-2,-2,1,11,9,2
1532381210220,2,3,-1,-1,-10,-20,-12,-1
1532381210225,-1,-2,-4,-8,-5,0,-1,-1
1532381210230,-2,-3,-1,-1,9,8,-1,-5
1532381210235,0,0,1,0,-3,-5,-4,-1
1532381210240,2,0,2,2,2,16,3,1
1532381210245,-2,-1,-3,1,-2,-6,0,0
1532381210250,-1,1,0,7,29,4,-3,0
1532381210255,6,-1,0,-10,-21,-5,-1,-3
1532381210260,1,-3,-3,-8,-10,-7,5,1
1532381210265,1,-2,-1,0,0,-11,-28,-7
1532381210270,4,-1,0,-2,6,14,17,10
1532381210275,1,-2,0,8,12,7,5,-3
1532381210280,12,1,1,-1,-13,-16,-1,-3
1532381210285,33,0,-2,-3,-6,-15,-3,2
1532381210290,43,-1,-1,0,1,6,-1,-1
1532381210295,42,-3,-3,0,0,9,-5,-1
1532381210300,24,-5,-1,1,4,5,-7,-1
1532381210305,2,-2,0,0,-4,-4,7,0
1532381210310,-14,-2,-1,-2,0,2,4,-1
1532381210315,-23,1,2,-1,-2,-7,-8,-1
1532381210320,-28,2,-1,-1,1,2,0,-2
1532381210325,-31,0,-1,-1,-3,-2,4,-2
1532381210330,-31,0,1,8,-21,-6,8,-5
1532381210335,-27,-1,-3,-7,37,9,-5,-2
1532381210340,-23,2,1,0,-14,-13,6,5
1532381210345,-16,0,0,-5,-19,-26,3,-1
1532381210350,-20,0,-4,-5,5,58,13,-2
1532381210355,-12,2,1,10,8,-14,1,5
1532381210360,-6,-2,0,-8,-5,14,-26,-5
1532381210365,-7,-1,0,14,26,8,8,1
1532381210370,-1,0,-1,-10,-23,-29,-11,-8
1532381210375,1,1,-3,-2,-17,0,0,2
1532381210380,-1,-1,-2,-4,22,0,1,-2
1532381210385,9,0,1,7,-19,-16,-1,2
1532381210390,9,-1,-4,-13,23,30,-16,0
1532381210395,6,-1,0,-4,-22,10,4,-1
1532381210400,4,-3,-3,-5,-10,-33,-4,-3
1532381210405,3,-3,1,12,39,19,7,2
1532381210410,5,-1,-2,-7,-38,-24,3,-4
1532381210415,-5,-2,-1,-3,19,-17,0,0
1532381210420,-1,3,3,13,20,24,2,1
1532381210425,-6,-1,-5,-22,-17,-4,-4,-5
1532381210430,-6,-2,1,11,15,9,-4,3
1532381210435,-2,0,-2,4,-5,-25,3,-2
1532381210440,-1,-1,0,-1,-14,-9,6,0
1532381210445,0,-2,-1,6,14,6,-2,-5
1532381210450,2,-1,-1,2,2,-4,-1,3
1532381210455,3,-1,2,0,-30,-5,-1,-3
1532381210460,7,-2,-3,2,26,4,0,-4
1532381210465,7,0,-1,-10,-15,2,-2,3
1532381210470,2,-1,-2,-4,1,-13,-10,-4
1532381210475,1,1,1,0,-1,3,3,1
1532381210480,2,1,5,30,0,3,5,-1
1532381210485,-5,-2,-3,-25,-19,8,1,-1
1532381210490,-6,-2,-1,-13,-8,-21,0,-1
1532381210495,-5,-5,-7,-5,6,-10,-5,-4
1532381210500,-4,-1,-1,2,3,21,15,2
1532381210505,-1,1,1,20,40,-22,-13,-4
1532381210510,-3,1,-1,-8,-54,-4,-1,0
1532381210515,0,2,2,4,3,-18,2,-1
1532381210520,-4,0,-1,-13,-2,5,1,1
1532381210525,-4,1,-1,0,0,-1,2,-1
1532381210530,4,0,2,8,27,1,-7,2
1532381210535,7,1,0,4,-1,10,4,-3
1532381210540,5,-3,-1,-6,-13,-6,5,0
1532381210545,4,-3,0,0,-6,20,9,-2
1532381210550,-4,-4,-2,3,11,-9,-11,-1
1532381210555,-1,-2,-1,-6,-12,25,3,-1
1532381210560,-1,-1,-1,-2,6,3,-6,-1
1532381210565,-2,0,0,-6,-9,10,6,-2
1532381210570,-2,0,-2,4,6,-8,8,-1
1532381210575,-2,-2,-1,0,0,-7,-7,-3
1532381210580,-3,2,-1,3,6,11,4,2
1532381210585,-3,0,0,2,9,7,3,1
1532381210590,-1,1,1,4,-29,-10,4,2
1532381210595,-3,-1,-2,-4,24,3,-7,3
1532381210600,-2,0,-3,-6,-5,-13,-5,-1
1532381210605,0,-3,-1,-1,-13,-11,-1,-3
1532381210610,7,2,-1,4,4,-1,3,6
1532381210615,2,0,1,12,49,20,-2,2
1532381210620,4,-2,-2,-13,-56,-13,0,-4
1532381210625,-3,-2,-1,-11,11,1,-12,1
1532381210630,-1,0,-1,8,37,-10,-2,-3
1532381210635,-2,0,0,-7,-33,-33,-1,-2
1532381210640,0,1,1,6,26,9,0,2
1532381210645,2,0,0,6,-1,-4,8,-4
1532381210650,-1,-2,-7,-20,-9,21,4,-2
1532381210655,-2,-1,-1,3,-1,9,8,-3
1532381210660,-4,-1,-2,1,7,9,-1,-2
1532381210665,-2,-2,1,1,-20,-1,4,0
1532381210670,-4,-1,1,7,12,7,7,0
1532381210675,-4,-3,-3,-8,-16,2,-5,-3
1532381210680,0,0,1,-3,-7,-28,-5,0
1532381210685,-2,1,-2,-7,-8,9,-2,-2
1532381210690,-2,0,0,4,13,-7,-3,-3
1532381210695,-1,2,-2,0,-2,-1,-1,0
1532381210700,-1,-1,-5,-5,-6,-4,-2,-2
1532381210705,1,-1,0,3,7,-1,1,0
1532381210710,-1,-1,-1,-1,1,-13,0,0
1532381210715,-1,-1,0,-5,-14,-3,-5,-7
1532381210720,-1,-2,-2,-2,7,0,-1,-2
1532381210725,1,0,-2,0,-4,2,2,3
1532381210730,-1,-1,-2,-2,0,0,-2,-2
1532381210735,1,0,-1,-1,-4,4,-6,-1
1532381210740,-2,-1,-1,3,7,6,3,3
1532381210745,2,1,-2,0,-1,5,-5,1
1532381210750,-4,0,0,-3,-7,-23,-4,-4
1532381210755,2,0,-3,1,5,29,6,5
1532381210760,-1,-3,-1,2,4,-27,-3,-6
1532381210765,0,0,-3,-7,-14,-5,-1,-1
1532381210770,0,-1,0,2,4,-1,-2,-2
1532381210775,0,1,0,0,1,2,3,0
1532381210780,2,-1,-3,-7,-29,-5,3,-2
1532381210785,0,-2,0,13,49,-7,0,0
1532381210790,3,0,1,-9,-48,26,1,1
1532381210795,-5,-3,2,10,19,-8,4,-1
1532381210800,-2,1,-5,-19,-5,14,-1,-1
1532381210805,-2,-5,-6,-20,-22,-13,-4,-5
1532381210810,0,2,0,4,21,0,3,4
1532381210815,2,0,3,12,19,-7,-2,0
1532381210820,2,0,3,-1,-15,-1,1,-3
1532381210825,0,-2,4,9,0,11,3,-2
1532381210830,0,0,0,1,12,0,-3,-7
1532381210835,1,0,-2,-11,-24,-13,1,4
1532381210840,-3,-5,0,11,26,10,-3,-4
1532381210845,-1,-1,-1,-4,-14,0,0,0
1532381210850,-2,0,-1,1,-1,1,1,-1
1532381210855,-1,-2,-2,-4,-3,1,6,0
1532381210860,0,-2,-2,2,2,9,-11,4
1532381210865,-4,1,1,2,-4,-9,5,2
1532381210870,-8,0,0,-3,5,-18,-13,2
1532381210875,6,-3,-6,-6,-15,11,-1,-6
1532381210880,3,18,1,2,10,9,-3,0
1532381210885,0,-4,-1,-4,-11,-5,3,-4
1532381210890,-2,-29,-2,1,6,-3,-1,2
1532381210895,-2,1,-1,-1,-5,-1,-3,-5
1532381210900,-3,-6,1,-1,-1,-4,2,2
1532381210905,6,12,0,4,14,7,-1,6
1532381210910,9,6,1,0,-3,7,6,0
1532381210915,2,-5,-2,-3,2,20,1,-3
1532381210920,1,3,-3,-4,-11,-21,3,0
1532381210925,-4,-1,4,11,2,-7,-1,-1
1532381210930,-5,0,-5,-9,19,9,3,-4
1532381210935,-3,-2,-3,-19,-58,3,-2,2
1532381210940,-2,1,6,43,48,15,7,5
1532381210945,-4,-7,-12,-60,-46,-5,-12,-5
1532381210950,-4,1,0,4,16,6,-3,4
1532381210955,-2,2,1,11,22,-5,1,-2
1532381210960,-2,-5,0,-6,-1,-7,-5,2
1532381210965,2,-1,0,10,-3,-6,-3,-5
1532381210970,4,4,0,5,-6,-3,5,-1
1532381210975,-2,0,0,-8,8,-8,-1,2
1532381210980,1,-5,0,1,-2,27,8,-5
1532381210985,-3,-1,1,8,7,0,1,-4
1532381210990,1,0,-2,-11,-16,-3,-3,-4
1532381210995,0,-2,0,5,7,-6,-1,1
1532381211000,-2,-4,-4,-14,-13,-15,-3,-1
1532381211005,-1,3,1,7,4,-1,-3,5
1532381211010,-3,1,-3,3,1,-1,-2,-2
1532381211015,-1,-2,-1,-1,-3,-11,-1,-1
1532381211020,-1,1,-3,-5,-2,-8,-1,-1
1532381211025,0,1,1,2,9,8,-1,1
1532381211030,1,-1,1,3,-1,2,2,1
1532381211035,-1,0,-2,-1,0,-16,-4,0
1532381211040,-1,0,0,-10,-8,-17,2,-1
1532381211045,-2,-2,1,8,4,-1,7,1
1532381211050,-2,0,0,1,-3,-4,2,-4
1532381211055,-1,-1,-1,5,11,2,1,-3
1532381211060,0,-4,-2,-7,-5,19,2,-1
1532381211065,-2,-1,-4,-17,-36,-38,-4,1
1532381211070,-2,0,-1,0,4,2,2,1
1532381211075,1,-1,0,-2,3,11,-5,-1
1532381211080,-4,-1,-1,4,3,-9,-2,-3
1532381211085,2,1,-1,8,13,23,-8,-3
1532381211090,3,0,0,1,-21,-10,-7,-1
1532381211095,1,4,4,11,17,9,-1,-1
1532381211100,-5,-9,-3,-11,-8,-17,0,-1
1532381211105,0,-2,-3,0,2,-4,1,-1
1532381211110,-1,-3,-1,2,-4,-1,2,-2
1532381211115,0,0,0,2,2,-1,0,2
1532381211120,0,1,-2,-1,-1,-2,-1,0
1532381211125,-1,-1,1,1,1,12,6,-1
1532381211130,0,1,-2,-1,6,-2,5,-3
1532381211135,-2,-2,-2,-7,-12,-18,4,-1
1532381211140,0,-1,0,-2,-5,-6,1,-3
1532381211145,-1,-2,0,3,8,52,4,0
1532381211150,-1,1,0,-4,-2,-16,-4,-2
1532381211155,-1,-2,-3,-3,-4,-1,0,-3
1532381211160,-2,-2,-2,3,4,5,-7,-7
1532381211165,1,-2,0,5,-5,2,2,5
1532381211170,-2,1,-1,-9,-13,-5,-4,-2
1532381211175,-2,-2,-2,-3,-5,-1,8,0
1532381211180,-1,0,-2,-2,-2,0,5,-1
1532381211185,1,-1,1,8,14,-13,-3,-4
1532381211190,1,3,1,-7,-8,-4,-4,-1
1532381211195,-3,-5,-2,-2,-5,-9,-6,-1
1532381211200,2,-1,-3,-2,-2,10,-5,-1
1532381211205,-2,1,-1,-5,-1,-13,-6,0
1532381211210,0,-5,-1,0,0,4,1,0
1532381211215,0,2,0,0,1,3,0,0
1532381211220,1,1,0,2,1,6,-1,1
1532381211225,-1,-2,1,2,3,6,0,1
1532381211230,1,2,0,1,3,1,1,-2
1532381211235,0,-2,-2,0,1,0,-1,-6
1532381211240,1,5,1,0,-1,4,5,3
1532381211245,-5,-7,-5,-7,-7,-10,2,-1
1532381211250,-2,-2,-2,2,4,11,6,-1
1532381211255,1,-2,0,-1,-5,-10,4,1
1532381211260,-2,1,-1,0,-1,-1,3,-2
1532381211265,1,2,0,-2,-1,-7,-3,-3
1532381211270,0,-2,-3,0,4,-4,-6,3
1532381211275,2,2,5,7,1,25,0,-1
1532381211280,1,-4,-1,-17,-2,-7,-12,-7
1532381211285,1,2,-1,3,-16,-18,4,2
1532381211290,-3,-4,-4,-7,-8,-10,-2,-3
1532381211295,-1,-1,-3,-3,2,-4,-1,1
1532381211300,-1,-3,0,2,-1,14,3,-1
1532381211305,2,2,0,3,14,-6,0,-1
1532381211310,1,1,1,2,2,2,1,-2
1532381211315,0,2,-3,-4,-11,-6,-1,0
1532381211320,0,-2,2,6,6,-5,4,-3
1532381211325,-3,-5,-4,-4,-3,4,-6,-6
1532381211330,-1,-2,0,4,-1,6,3,5
1532381211335,0,0,1,-1,4,-4,-7,-3
1532381211340,-5,-6,0,3,1,-9,6,-1
1532381211345,-1,-1,-1,-3,2,12,0,3
1532381211350,1,1,2,1,-2,0,2,2
1532381211355,-2,-1,-1,-2,0,-2,-5,-5
1532381211360,0,1,-2,-1,0,2,2,3
1532381211365,-2,-1,-1,-2,-3,4,5,-2
1532381211370,1,1,0,1,10,1,-1,-1
1532381211375,-2,-1,0,1,4,3,-3,1
1532381211380,-1,0,0,0,-4,7,-5,0
1532381211385,-2,-5,-4,-4,-5,-10,0,-1
1532381211390,3,0,-1,3,-3,-1,1,-1
1532381211395,0,-1,-1,-6,9,-1,2,-1
1532381211400,0,-1,-1,-2,-9,-5,-2,-2
1532381211405,-1,2,1,-2,-9,11,-3,1
1532381211410,0,-1,-1,3,-11,1,1,-3
1532381211415,-4,-3,-3,-5,8,-2,-1,1
1532381211420,0,-2,0,2,9,2,3,1
1532381211425,2,0,0,2,9,-7,-4,-7
1532381211430,-1,-1,-2,-8,-21,-2,4,1
1532381211435,0,0,1,3,-3,2,0,-2
1532381211440,0,-1,-2,-3,-3,-10,-3,-2
1532381211445,-1,0,0,2,-3,-3,-3,-4
1532381211450,-2,0,-1,-3,9,1,2,-2
1532381211455,0,-2,0,1,2,10,7,0
1532381211460,-2,-2,-1,-2,-11,-1,-2,-1
1532381211465,-3,1,1,4,3,-8,-6,0
1532381211470,0,0,0,0,14,0,-1,-2
1532381211475,-3,-1,-3,-7,-3,-1,-2,2
1532381211480,-1,-1,0,2,-1,-8,-2,1
1532381211485,2,0,1,-8,-10,22,3,1
1532381211490,-4,-1,-2,3,3,-21,0,-2
1532381211495,-1,0,-2,-5,-12,-11,3,-1
1532381211500,-1,1,1,1,7,-1,0,1
1532381211505,4,0,-1,-1,-16,-6,4,-2
1532381211510,-4,-1,0,-4,13,1,-10,1
1532381211515,-3,-2,-2,3,-9,8,-3,-1
1532381211520,-1,2,-3,-1,2,-5,-5,0
1532381211525,-4,-3,0,3,6,-8,1,0
1532381211530,4,-1,-1,-1,-6,2,-6,1
1532381211535,1,-1,4,3,3,13,12,-2
1532381211540,0,-2,-2,4,1,-2,2,4
1532381211545,0,-1,-1,-2,1,-4,-5,-7
1532381211550,0,-1,-1,-5,-1,-1,1,-2
1532381211555,1,-1,-1,0,-2,-5,1,-3
1532381211560,-1,-3,2,0,-4,10,-1,-3
1532381211565,-3,-1,-3,-5,2,-11,8,1
1532381211570,-3,-1,-1,3,7,7,-4,-4
1532381211575,1,0,-3,-17,-34,-3,-3,3
1532381211580,-2,1,-1,3,7,-9,-4,-2
1532381211585,-2,-1,-1,-1,5,-6,-1,-1
1532381211590,-1,-2,0,1,1,26,1,-1
1532381211595,0,-1,-2,6,7,-1,-3,-2
1532381211600,2,0,-1,-3,-15,5,12,-4
1532381211605,-2,-2,1,8,-4,-1,-10,3
1532381211610,-3,-2,-2,-5,-3,-6,4,4
1532381211615,-2,-4,-2,-2,7,-5,-8,-4
1532381211620,2,0,-1,0,-6,-3,3,-1
1532381211625,0,-3,-1,7,12,-3,4,0
1532381211630,1,1,0,-1,-7,-2,-6,-5
1532381211635,-1,-4,-2,1,-5,-11,1,3
1532381211640,-2,0,0,-1,5,-4,-3,-2
1532381211645,2,2,0,-7,-2,9,4,0
1532381211650,-1,0,-3,-4,-3,-4,-4,1
1532381211655,-2,0,-2,0,4,-4,-3,-1
1532381211660,1,0,0,-2,2,11,-2,0
1532381211665,-2,-1,-2,-8,-1,8,5,-1
1532381211670,0,-1,1,3,-4,0,3,-1
1532381211675,-1,1,2,7,11,-3,-8,-2
1532381211680,-3,-2,-2,-5,4,19,-3,0
1532381211685,1,4,0,4,1,-6,-2,0
