1532220792051,-3,-4,-5,-5,-1,-1,3,0
1532220792056,0,-4,0,8,5,4,1,6
1532220792061,-3,6,0,3,-1,-6,-2,-10
1532220792066,-1,-14,-6,-6,-5,-2,0,0
1532220792071,-3,0,-1,0,1,-2,0,-5
1532220792076,2,6,2,-3,0,1,1,5
1532220792081,-1,2,0,-1,-2,1,4,1
1532220792086,-3,-14,-5,5,-1,-4,-3,-4
1532220792091,-1,9,0,-3,-2,-1,0,-3
1532220792096,1,4,3,-4,-3,-1,-1,-2
1532220792101,1,5,3,-1,-2,-1,-5,0
1532220792106,0,2,-3,-6,-2,-2,0,-3
1532220792111,0,-1,-3,-1,-2,-4,0,0
1532220792116,-2,-19,1,-1,-1,1,-3,-1
1532220792121,-1,12,-9,-3,1,10,-3,0
1532220792126,-1,1,3,-2,-1,5,-2,3
1532220792131,0,-9,-4,2,0,-9,-2,7
1532220792136,-1,14,-2,3,4,-2,0,-20
1532220792141,2,25,2,-13,-2,-4,0,1
1532220792146,0,-34,2,9,-3,8,4,1
1532220792151,-4,-3,-2,2,2,-4,-4,-10
1532220792156,0,1,-1,-10,-2,2,1,19
1532220792161,-4,-33,-17,8,3,-15,-5,-25
1532220792166,1,22,2,2,1,13,3,-1
1532220792171,4,1,14,-9,-8,11,11,22
1532220792176,-5,-14,-11,0,0,-6,-15,-21
1532220792181,2,8,5,1,2,24,5,13
1532220792186,-5,-2,-4,-1,2,-20,-5,-6
1532220792191,2,-17,-12,-3,-3,14,7,-15
1532220792196,0,20,2,-5,-1,4,-1,20
1532220792201,0,-9,-3,-2,-6,-37,-1,1
1532220792206,-5,10,2,-2,-1,30,-1,-4
1532220792211,-3,7,6,4,3,-3,-5,0
1532220792216,2,-7,-2,-1,0,-3,9,-2
1532220792221,-1,-11,-2,1,-3,0,-3,8
1532220792226,1,2,5,0,3,-12,-1,5
1532220792231,1,8,-7,2,-2,0,2,-12
1532220792236,-1,6,8,-3,-7,-7,-3,-2
1532220792241,-5,-11,3,-2,5,23,12,0
1532220792246,-6,0,-7,-6,-3,-23,-1,-8
1532220792251,-4,8,15,3,2,0,-4,0
1532220792256,1,-18,-33,-3,-8,-20,3,-4
1532220792261,3,5,5,1,0,10,-6,-2
1532220792266,5,-3,-2,-4,-5,-17,-1,2
1532220792271,0,-8,-9,-2,9,55,0,4
1532220792276,-2,-4,6,-1,0,7,-3,-13
1532220792281,4,17,4,-2,-15,-21,0,3
1532220792286,3,-9,-8,2,19,38,0,-2
1532220792291,2,12,4,-1,-6,-21,-4,3
1532220792296,5,32,7,2,2,24,2,7
1532220792301,-6,-57,-8,-3,1,2,-5,-8
1532220792306,-5,-7,-8,-7,-11,-35,0,-1
1532220792311,2,-3,15,5,-8,0,-6,-8
1532220792316,-1,-6,-5,5,12,40,17,0
1532220792321,4,48,-1,-4,-2,-10,-19,18
1532220792326,3,17,8,-4,-5,-2,-5,22
1532220792331,-8,-24,-4,-1,6,4,1,-20
1532220792336,-5,-25,9,-5,-13,-27,-3,-5
1532220792341,-1,-7,-2,9,1,-20,5,-1
1532220792346,7,14,27,-3,3,22,3,9
1532220792351,-7,6,-49,-3,2,6,-9,5
1532220792356,0,-13,36,0,-8,-34,-2,-6
1532220792361,1,1,-37,-4,3,70,-2,-2
1532220792366,-4,11,91,5,-8,-68,-6,-10
1532220792371,-1,-6,-31,-6,-4,20,-3,2
1532220792376,0,8,-10,3,1,-4,14,-4
1532220792381,-6,-62,10,-9,-3,-24,-4,-3
1532220792386,0,0,-7,-1,-8,-8,0,-4
1532220792391,-1,3,28,3,4,-3,4,4
1532220792396,2,14,-10,3,7,-9,-19,3
1532220792401,-1,30,38,12,0,-5,11,10
1532220792406,-1,-18,-45,-6,-1,16,2,-7
1532220792411,3,6,11,-6,0,-11,2,3
1532220792416,-1,1,-20,-4,-7,-5,4,16
1532220792421,-6,5,-27,-7,-7,-21,-1,-28
1532220792426,-4,-1,-17,6,16,56,-3,-6
1532220792431,-1,-6,-2,-1,1,2,5,12
1532220792436,1,26,-6,-15,-7,-1,-1,0
1532220792441,4,0,17,5,5,-9,5,2
1532220792446,-2,-11,5,-4,0,10,-6,5
1532220792451,5,15,39,18,4,-24,-3,-9
1532220792456,-7,-7,-58,-6,-6,-15,-2,-7
1532220792461,0,-24,-5,-7,-6,2,-6,0
1532220792466,2,2,-19,-7,-8,1,7,0
1532220792471,4,42,1,-3,16,43,-4,0
1532220792476,-5,-71,18,-1,5,7,0,8
1532220792481,-1,6,32,1,-8,-14,-4,-5
1532220792486,4,5,-17,-5,-13,-24,3,-4
1532220792491,3,2,6,4,-1,-18,-1,2
1532220792496,9,16,8,11,17,38,4,-2
1532220792501,-10,8,-4,4,-1,-17,3,0
1532220792506,-1,7,15,6,-5,4,-5,0
1532220792511,1,-10,21,2,16,5,4,7
1532220792516,-11,-20,-50,2,-6,-31,-14,-17
1532220792521,3,-8,-1,-2,0,10,5,16
1532220792526,1,1,0,-7,-2,-1,-2,-1
1532220792531,-6,2,19,2,-6,-2,-1,-7
1532220792536,-6,18,15,-10,-12,5,-2,-3
1532220792541,-4,-7,-75,-13,-3,-20,-9,-10
1532220792546,-9,-18,4,8,4,-29,0,-2
1532220792551,6,-16,-12,-6,0,47,5,12
1532220792556,5,54,78,5,9,12,1,3
1532220792561,-4,5,20,4,-9,-9,2,-7
1532220792566,1,2,28,-13,8,10,0,0
1532220792571,-2,-9,-24,3,-9,-28,-1,-4
1532220792576,2,-4,-16,-6,-7,7,3,1
1532220792581,0,-10,-14,-4,6,-17,-4,-2
1532220792586,11,22,13,19,17,16,4,3
1532220792591,-3,-12,6,6,0,-3,-4,-5
1532220792596,1,9,-1,-2,1,2,4,3
1532220792601,0,-11,-55,-25,-17,-21,-4,-2
1532220792606,-3,-9,9,6,5,25,1,1
1532220792611,-4,-8,5,-1,-5,-5,2,-3
1532220792616,-2,-26,-84,-1,-1,-31,10,4
1532220792621,6,31,42,4,-7,6,-21,-4
1532220792626,-3,1,7,-16,1,22,4,4
1532220792631,-5,-11,7,6,21,35,2,-1
1532220792636,-3,2,16,7,-3,-9,1,4
1532220792641,-1,-24,-20,1,0,-4,1,2
1532220792646,-2,-6,-24,-10,-12,-13,-4,-1
1532220792651,2,17,27,-11,-4,-14,-1,1
1532220792656,4,4,18,6,3,-3,-1,12
1532220792661,-1,-7,-12,6,1,10,2,-1
1532220792666,-1,6,10,4,0,-3,-4,-9
1532220792671,0,-20,-35,-6,-9,-14,3,3
1532220792676,2,13,18,-1,-9,-18,-3,-2
1532220792681,3,16,-8,-9,11,34,4,0
1532220792686,3,-12,-7,9,2,0,-10,-2
1532220792691,-4,5,-18,1,-6,-12,1,1
1532220792696,-9,-11,-6,-1,-4,-15,-2,-6
1532220792701,-4,1,9,4,4,6,1,14
1532220792706,0,-5,10,8,-15,-9,-7,-11
1532220792711,3,2,-14,0,16,-8,2,-2
1532220792716,3,4,0,-6,11,21,-10,-3
1532220792721,-4,-10,6,-1,-5,-4,8,2
1532220792726,-2,-2,-20,2,1,4,0,3
1532220792731,1,-1,-1,-5,-12,-15,-6,-4
1532220792736,-2,0,2,-4,-6,-2,0,-8
1532220792741,2,6,5,3,4,-1,-1,-5
1532220792746,-2,-13,-1,-7,-5,-35,-2,2
1532220792751,-3,8,6,-3,-2,40,-4,-8
1532220792756,0,-7,-27,-5,-12,-38,-2,-1
1532220792761,0,5,7,12,23,51,4,-4
1532220792766,-5,-1,3,10,0,-12,3,2
1532220792771,-5,-17,14,1,-6,-7,-3,-3
1532220792776,4,9,8,-14,-2,10,-1,2
1532220792781,4,-2,5,12,-12,-61,0,-4
1532220792786,-3,4,-6,-2,19,55,3,0
1532220792791,0,-6,-4,0,0,-5,-12,0
1532220792796,0,2,-2,-2,-3,15,-2,4
1532220792801,0,-2,0,-8,-10,-29,-3,-6
1532220792806,5,5,3,-6,-2,12,5,-5
1532220792811,-1,7,-7,-2,-8,-12,2,6
1532220792816,2,-3,16,5,-9,4,3,-2
1532220792821,0,-8,-10,-2,15,38,-6,3
1532220792826,-3,-2,-2,3,-3,-9,2,2
1532220792831,1,1,-8,-3,1,11,-4,-12
1532220792836,-4,-3,9,-4,3,4,5,5
1532220792841,-4,-4,7,9,1,-13,1,-4
1532220792846,-5,-4,-10,-4,-5,-15,-4,-2
1532220792851,-3,-7,-5,-7,-4,-2,3,0
1532220792856,-1,1,1,7,1,4,-4,-6
1532220792861,2,5,6,5,7,4,4,1
1532220792866,1,3,-1,-2,0,6,-2,2
1532220792871,8,-5,-7,-6,-11,-27,-2,7
1532220792876,4,0,0,-5,5,3,1,-7
1532220792881,-10,-3,5,-7,-5,21,-1,-4
1532220792886,-9,2,11,2,-5,-8,-3,-9
1532220792891,16,5,-38,4,6,-7,-1,-13
1532220792896,-4,13,-1,-1,-1,-2,1,2
1532220792901,-6,2,13,1,-4,0,4,0
1532220792906,0,41,6,-9,-10,-17,-4,-9
1532220792911,2,-13,-15,-2,2,3,-1,2
1532220792916,11,7,-10,-3,2,5,-2,7
1532220792921,8,-7,37,1,-1,-3,1,0
1532220792926,0,-15,-36,7,0,-3,0,-10
1532220792931,2,7,-7,-9,7,5,2,-2
1532220792936,-9,-7,13,12,2,-28,-3,-9
1532220792941,1,4,18,-11,-5,24,4,3
1532220792946,0,8,-16,11,2,-5,0,9
1532220792951,6,-27,15,0,-2,3,5,16
1532220792956,7,1,7,-8,-4,-7,-6,1
1532220792961,-12,35,50,4,-4,-18,-4,-16
1532220792966,-14,21,-27,-8,4,5,-3,14
1532220792971,-38,-83,-11,-5,-9,-7,-5,-25
1532220792976,2,1,-45,-1,-1,5,-2,-3
1532220792981,12,-12,-10,-8,-17,-40,-3,8
1532220792986,13,-10,7,-8,12,38,-8,-4
1532220792991,3,33,23,14,11,10,7,14
1532220792996,-9,-5,5,7,8,10,8,-2
1532220793001,11,-9,-6,4,1,-4,-4,6
1532220793006,7,14,-29,0,-5,-2,10,7
1532220793011,-3,-55,-6,5,-7,5,-12,3
1532220793016,8,9,-15,-15,-2,1,-1,16
1532220793021,34,-1,-19,9,2,9,0,-3
1532220793026,-90,-32,29,-5,0,-18,-3,-22
1532220793031,21,35,20,5,-4,-5,0,-7
1532220793036,-21,-3,-5,-2,-2,11,-2,-10
1532220793041,9,-17,-17,-7,-9,-27,-2,11
1532220793046,25,2,35,-4,1,24,0,6
1532220793051,-9,21,-13,-4,1,-11,3,3
1532220793056,-4,-3,16,9,8,6,-11,-20
1532220793061,-9,-4,-31,-11,-6,-38,16,15
1532220793066,17,-2,5,-1,4,25,-9,-20
1532220793071,-7,21,8,-2,-3,17,-4,-18
1532220793076,11,-3,-3,0,-7,-10,6,13
1532220793081,-30,12,2,2,3,13,-15,-24
1532220793086,42,-10,-5,-2,0,-23,9,35
1532220793091,-17,1,-4,0,0,-8,1,-3
1532220793096,-23,-23,-3,-3,-1,11,-10,-25
1532220793101,-1,49,5,-5,-11,-22,-4,-6
1532220793106,0,-16,3,6,-5,-10,-7,18
1532220793111,18,32,37,-1,9,12,3,-5
1532220793116,23,-8,-11,19,3,-8,-10,11
1532220793121,-53,-22,-11,-2,6,23,-2,-12
1532220793126,15,-42,-48,-7,-11,-17,0,-3
1532220793131,5,51,50,-5,-9,-31,-23,-27
1532220793136,-3,1,6,-4,4,36,26,8
1532220793141,10,-19,-15,3,4,7,5,4
1532220793146,10,-6,-2,-4,1,-4,0,0
1532220793151,-25,-22,-32,-2,-6,-6,0,7
1532220793156,-10,13,38,-1,-4,-14,-6,-13
1532220793161,13,-8,-67,-1,2,15,-3,14
1532220793166,0,6,19,-3,2,1,16,14
1532220793171,-3,14,-5,1,-4,-4,9,26
1532220793176,14,-21,20,3,-2,-2,-4,15
1532220793181,-8,-8,-4,-6,9,5,4,-26
1532220793186,-24,4,-24,3,-2,-10,-12,-20
1532220793191,48,17,39,-4,-4,-6,9,25
1532220793196,-66,-7,8,-1,2,9,5,-20
1532220793201,5,-14,-19,-5,-9,4,-18,-10
1532220793206,-58,5,14,-1,3,-4,3,-14
1532220793211,15,1,-5,3,5,7,-1,3
1532220793216,18,-12,-50,-7,-9,-5,9,3
1532220793221,13,4,25,4,3,-1,-2,21
1532220793226,15,2,17,1,-5,2,2,-9
1532220793231,-37,3,-28,2,-1,1,-11,-23
1532220793236,9,-15,20,-6,1,-10,-2,9
1532220793241,-3,16,28,5,6,8,12,27
1532220793246,24,-5,-80,-9,-7,-7,-4,-21
1532220793251,-1,-9,-52,-6,-14,-19,-38,-37
1532220793256,2,-1,12,-3,-5,-27,-27,-8
1532220793261,0,-8,4,8,2,1,8,10
1532220793266,23,5,-39,-6,-4,-5,5,19
1532220793271,-3,-9,9,-2,3,19,32,15
1532220793276,6,3,10,3,4,13,11,22
1532220793281,17,-13,-29,-5,0,25,5,-13
1532220793286,-10,10,9,0,-8,-49,-36,-20
1532220793291,8,-18,3,-3,-3,-5,-6,3
1532220793296,-5,6,-2,0,1,-4,-2,5
1532220793301,-7,-2,20,-2,0,8,19,13
1532220793306,-2,10,0,-2,-2,6,-3,3
1532220793311,15,17,12,3,4,2,-2,4
1532220793316,2,19,21,9,7,-1,2,3
1532220793321,-18,-39,-7,-12,-9,-10,-16,-19
1532220793326,9,8,9,-6,0,2,3,4
1532220793331,0,-6,24,7,6,5,10,6
1532220793336,13,20,-77,-2,-4,13,1,-3
1532220793341,-12,-10,-14,-9,-9,-22,-18,-1
1532220793346,21,5,-1,3,3,5,-2,8
1532220793351,15,8,4,-3,1,5,6,-1
1532220793356,6,-3,20,-1,-3,-13,-3,-7
1532220793361,-7,38,4,1,2,5,-4,-2
1532220793366,0,-20,16,6,8,4,8,-1
1532220793371,-12,5,-3,-3,-10,-9,-1,-2
1532220793376,-3,-23,31,0,-1,4,-2,-9
1532220793381,-7,6,-11,-2,-4,-13,-11,-5
1532220793386,10,26,21,2,-3,4,5,7
1532220793391,-15,45,1,0,2,3,-2,-16
1532220793396,-7,-103,-15,-7,-9,-9,-9,0
1532220793401,10,15,3,1,4,8,12,2
1532220793406,-15,-70,-13,1,5,4,-4,-3
1532220793411,13,10,2,-6,-2,-2,-4,-3
1532220793416,1,48,38,7,2,-4,-2,-4
1532220793421,7,-8,-25,-1,1,-3,1,5
1532220793426,5,47,45,6,0,4,-3,-6
1532220793431,-8,-40,-9,3,0,0,-3,-2
1532220793436,14,64,-14,-11,-1,-1,1,1
1532220793441,1,20,27,14,-5,-8,-1,3
1532220793446,-19,-4,-71,-37,-3,-2,-8,-7
1532220793451,-16,-35,8,2,-12,-3,3,-1
1532220793456,1,-42,0,15,5,1,0,-1
1532220793461,17,54,10,9,18,8,4,11
1532220793466,34,99,31,14,9,7,6,8
1532220793471,-54,-47,-21,-19,-11,-8,-10,-17
1532220793476,-7,13,3,-8,-14,-10,-7,-10
1532220793481,-2,-12,15,-1,-3,1,0,15
1532220793486,-3,-6,-12,6,-3,-3,1,-14
1532220793491,14,11,2,3,6,7,6,8
1532220793496,-6,30,8,-11,-7,-4,-4,13
1532220793501,-10,0,2,2,-8,-3,2,-26
1532220793506,-7,-25,-4,6,-10,0,-7,11
1532220793511,9,-11,-2,-14,12,0,1,4
1532220793516,-14,-58,-54,28,22,7,-2,-9
1532220793521,2,-20,-17,-21,-80,-5,-1,5
1532220793526,-8,54,15,-58,52,-13,-10,-7
1532220793531,20,37,47,44,53,11,7,5
1532220793536,2,-9,59,78,56,14,5,9
1532220793541,-5,-12,2,29,12,7,-3,4
1532220793546,-2,-33,5,-14,-46,-8,-3,-3
1532220793551,2,-10,-45,-59,-52,-15,-2,-1
1532220793556,17,5,2,-49,-18,-4,6,9
1532220793561,4,-27,16,12,14,0,0,-5
1532220793566,-49,-21,-25,11,-16,-10,-18,-35
1532220793571,3,4,14,9,10,-2,-10,-10
1532220793576,17,4,16,-12,-15,-1,14,29
1532220793581,21,4,-2,-5,12,6,4,-10
1532220793586,-14,-16,-1,9,-4,5,10,26
1532220793591,-20,5,15,17,0,-6,-20,-84
1532220793596,-5,0,-44,-5,-9,3,-5,-6
1532220793601,16,1,-13,-16,7,-3,3,21
1532220793606,20,-7,13,10,5,2,16,33
1532220793611,-6,4,-8,3,-6,-2,-22,-4
1532220793616,-8,-6,13,-12,-14,-9,-12,42
1532220793621,-7,24,-13,-5,15,4,-21,-51
1532220793626,12,-5,7,14,-1,6,21,2
1532220793631,7,9,-1,5,-2,0,11,24
1532220793636,-3,-13,5,-9,-3,-2,-2,-7
1532220793641,-20,-8,-23,-3,2,-3,-10,6
1532220793646,9,-12,18,11,3,2,-4,-4
1532220793651,12,30,-22,-4,-4,0,6,16
1532220793656,0,-7,-12,-10,-2,0,0,9
1532220793661,-25,4,13,-1,4,-2,3,-21
1532220793666,10,-15,-3,2,-2,-1,-2,-15
1532220793671,3,9,10,1,4,3,8,11
1532220793676,27,7,-1,-1,-1,1,-5,4
1532220793681,-45,5,4,-5,-1,-7,0,45
1532220793686,-2,-14,-5,2,3,2,20,-48
1532220793691,-11,-15,21,-7,-3,0,6,-3
1532220793696,37,18,-27,-3,-5,-3,-15,-6
1532220793701,14,11,36,2,1,1,13,12
1532220793706,-23,5,18,-4,1,-2,10,-15
1532220793711,6,-13,-7,6,-1,-2,10,-4
1532220793716,5,0,7,0,-5,-7,-38,-22
1532220793721,-1,-1,-41,-10,-5,-1,13,5
1532220793726,27,13,8,4,3,0,-5,37
1532220793731,14,-8,-4,-5,4,7,24,-21
1532220793736,-36,-19,-16,-5,-3,-1,1,43
1532220793741,12,11,10,-1,-6,-10,-14,-75
1532220793746,-23,-4,-1,2,-2,-4,-7,-38
1532220793751,10,43,41,7,3,-3,-4,29
1532220793756,-9,-62,-81,-3,-1,-1,43,-9
1532220793761,-5,21,15,1,-4,-1,-26,-12
1532220793766,52,-7,-38,1,1,2,33,31
1532220793771,-82,-22,57,0,0,-1,-35,-54
1532220793776,61,60,40,0,-4,-6,-5,6
1532220793781,-60,1,-24,-5,-6,-8,1,16
1532220793786,93,-6,-9,-6,2,14,10,96
1532220793791,36,3,2,7,9,5,-3,-11
1532220793796,22,-42,59,14,4,0,19,-36
1532220793801,-31,40,-67,-7,-5,-10,-74,-74
1532220793806,54,29,10,3,-2,-4,44,32
1532220793811,-26,8,-32,-14,-7,-2,-9,-25
1532220793816,-21,-9,9,0,3,3,-2,28
1532220793821,10,-26,19,5,4,7,9,16
1532220793826,14,36,38,2,-4,-7,-29,-22
1532220793831,-90,1,-67,-7,-5,-1,2,-30
1532220793836,15,-19,-35,-2,1,3,-8,18
1532220793841,63,54,21,2,1,-3,22,-12
1532220793846,-50,-47,-10,-9,-12,-15,-28,-75
1532220793851,95,-22,29,1,3,10,42,61
1532220793856,-70,-9,-16,2,-1,-7,-22,7
1532220793861,35,-1,-8,-1,1,-1,7,-6
1532220793866,-6,15,20,3,3,11,12,6
1532220793871,-68,2,3,2,-2,2,18,-11
1532220793876,36,18,-21,-7,-10,-9,-48,-45
1532220793881,-28,19,1,-8,-6,-7,-9,-15
1532220793886,-5,25,-11,3,2,0,0,-15
1532220793891,54,-7,13,1,0,0,4,11
1532220793896,4,51,16,2,2,6,7,2
1532220793901,-13,-7,-5,-6,-5,-5,-13,10
1532220793906,73,24,9,-1,1,-1,4,15
1532220793911,-5,-14,-4,1,4,9,6,4
1532220793916,20,4,28,3,-1,-6,-6,11
1532220793921,-83,-30,-17,1,-1,-1,-9,-18
1532220793926,-21,-22,-23,-2,-4,-5,0,-43
1532220793931,47,4,10,1,1,0,1,30
1532220793936,11,-4,-5,-1,2,5,12,-3
1532220793941,20,21,13,1,4,5,14,13
1532220793946,-10,-2,11,-2,1,0,-17,17
1532220793951,-22,-10,-8,0,-5,-6,-17,-37
1532220793956,53,6,7,-6,-1,-3,2,37
1532220793961,-56,-23,-3,2,1,3,30,-42
1532220793966,-59,-12,-10,-6,-2,-2,-30,-20
1532220793971,74,23,-13,-1,3,0,-2,27
1532220793976,-92,-18,-3,-1,-2,-3,-17,-71
1532220793981,85,-8,-4,1,-3,-6,-13,38
1532220793986,1,-5,28,4,9,9,20,18
1532220793991,-75,-45,-29,-5,-11,-17,-29,-72
1532220793996,41,-7,-8,0,3,7,19,27
1532220794001,13,-3,16,1,-1,-4,-6,-17
1532220794006,-8,-20,-6,1,1,4,49,44
1532220794011,16,18,19,2,3,-3,-8,56
1532220794016,-23,-15,-8,-2,0,4,17,-31
1532220794021,26,-2,5,0,5,9,3,20
1532220794026,56,-1,-3,-4,-8,-18,-31,-18
1532220794031,-73,-17,7,-1,-4,0,4,-4
1532220794036,0,1,-4,2,0,-4,1,-1
1532220794041,53,21,1,-1,-4,-2,5,-40
1532220794046,-19,-9,2,5,7,10,7,1
1532220794051,28,3,8,-1,-2,-5,5,4
1532220794056,5,-15,-14,1,2,1,0,6
1532220794061,-2,-4,-2,-3,-1,-6,-6,39
1532220794066,-52,-3,0,-6,-2,3,16,-17
1532220794071,18,-1,10,2,1,2,0,-20
1532220794076,13,5,-21,-1,2,2,-2,5
1532220794081,28,-5,15,3,6,8,30,49
1532220794086,-102,-2,2,-7,-11,-11,-26,-64
1532220794091,116,-10,-23,-6,-7,-13,-10,26
1532220794096,32,1,-3,-6,-4,1,2,-43
1532220794101,-35,-15,-1,1,-5,-4,-2,45
1532220794106,67,-10,-11,1,3,2,-20,-86
1532220794111,-9,17,24,6,-2,9,-12,9
1532220794116,-39,-7,1,-3,2,1,33,58
1532220794121,-20,8,1,-5,2,5,7,-32
1532220794126,36,6,4,12,4,0,-17,22
1532220794131,16,-16,-16,-9,2,6,-1,-5
1532220794136,18,10,-3,-6,-9,-13,-27,-22
1532220794141,-33,9,7,-1,1,13,20,-2
1532220794146,32,3,-12,-6,-6,-6,32,88
1532220794151,-29,-1,-3,1,-1,-7,-8,-80
1532220794156,17,11,8,4,0,8,16,34
1532220794161,-1,-2,3,-2,-3,-8,-23,14
1532220794166,-7,-5,3,-8,-23,-16,-18,-28
1532220794171,-4,0,8,2,20,17,34,25
1532220794176,-43,-40,20,44,9,8,2,-11
1532220794181,16,-4,-52,-8,7,2,-12,-6
1532220794186,-9,14,2,13,13,6,-10,0
1532220794191,38,-13,31,-10,-7,-10,1,43
1532220794196,-88,-9,0,-5,-7,-12,-7,-57
1532220794201,27,-29,-2,6,1,22,-2,-8
1532220794206,11,11,-1,-10,-6,-2,-6,9
1532220794211,44,-13,-23,-3,-20,-26,3,5
1532220794216,-73,44,15,-10,5,-43,-24,-26
1532220794221,3,-3,-5,2,12,36,-5,9
1532220794226,28,17,-2,-12,-6,18,22,31
1532220794231,-56,1,33,5,-25,-59,-24,-81
1532220794236,35,-6,-45,-9,-9,43,-11,14
1532220794241,-23,10,21,-2,-31,-112,-11,21
1532220794246,1,1,2,17,103,127,-16,-48
1532220794251,-29,5,-8,5,3,-20,27,43
1532220794256,26,-12,9,-13,-12,-42,-7,3
1532220794261,2,13,-4,5,-18,-19,3,0
1532220794266,9,-12,14,-7,-42,-71,-13,-6
1532220794271,74,-9,-11,-7,13,16,-1,23
1532220794276,-50,16,13,-8,-1,17,12,18
1532220794281,39,-22,-34,-7,-8,3,1,-29
1532220794286,9,-4,13,6,-9,-31,-9,2
1532220794291,6,45,-1,-1,6,-7,17,-15
1532220794296,67,26,4,1,-24,11,11,22
1532220794301,16,0,30,10,47,29,8,8
1532220794306,63,3,12,-3,-7,-14,2,22
1532220794311,-105,-22,-61,-3,-1,21,-15,-26
1532220794316,10,-11,15,2,-2,-18,-4,-6
1532220794321,20,11,22,-6,-30,-31,5,0
1532220794326,16,-1,-17,-4,26,15,-19,-3
1532220794331,-7,8,14,5,-15,-3,21,38
1532220794336,-21,-13,-8,-2,19,31,-29,-14
1532220794341,-8,-7,-2,-1,0,28,-4,-11
1532220794346,-27,-14,-20,-6,-16,-26,5,-8
1532220794351,13,-4,8,2,-5,9,5,30
1532220794356,14,-9,0,2,8,4,-5,3
1532220794361,-21,12,0,-6,-3,-11,-6,-8
1532220794366,10,-14,-1,-1,-17,-11,2,11
1532220794371,-17,12,1,-1,10,9,-1,-15
1532220794376,4,-11,9,-2,-4,-12,1,-13
1532220794381,10,-7,-26,2,7,2,-11,-11
1532220794386,-70,-10,-11,-6,-13,-8,13,-10
1532220794391,29,-11,-13,-1,8,22,-9,2
1532220794396,29,9,51,-4,3,-11,4,-2
1532220794401,-21,0,-62,-12,-7,0,-1,9
1532220794406,-38,4,0,4,3,3,-2,-9
1532220794411,25,5,10,4,2,-24,-15,-1
1532220794416,-13,2,-14,3,-6,34,3,-6
1532220794421,-2,-2,35,-3,11,17,8,-8
1532220794426,41,-10,-22,-12,-34,-36,-35,77
1532220794431,-50,-10,-6,-1,18,19,-35,-56
1532220794436,38,15,-22,-3,-28,-49,-6,-10
1532220794441,-26,4,18,-1,35,77,-6,-28
1532220794446,-6,-7,-19,-4,-10,-6,-4,-5
1532220794451,12,5,14,-5,-6,-2,3,29
1532220794456,5,-18,-11,-2,15,15,9,19
1532220794461,-28,-7,9,0,-22,-33,-10,-3
1532220794466,-27,20,5,3,0,-11,2,-22
1532220794471,22,-3,-6,-4,4,17,1,4
1532220794476,-1,-8,-12,-1,-2,-10,3,2
1532220794481,20,-11,2,3,-1,-10,14,22
1532220794486,25,20,18,2,4,3,8,-2
1532220794491,-56,2,9,3,-1,-1,3,-17
1532220794496,-8,-7,-11,-2,3,-3,-5,6
1532220794501,10,4,7,0,-7,-11,-1,3
1532220794506,-18,-14,5,0,6,13,6,-18
1532220794511,49,5,-25,-3,-7,-3,7,29
1532220794516,-1,10,8,4,5,1,-11,2
1532220794521,5,-28,-11,-5,-7,-8,-14,-26
1532220794526,-26,31,2,-3,-3,-5,5,-23
1532220794531,48,3,11,3,1,3,7,22
1532220794536,-21,-5,-2,-8,-4,-3,-5,-28
1532220794541,-10,11,8,4,3,-1,13,17
1532220794546,12,-30,-12,-2,-2,-4,-6,10
1532220794551,26,-26,-7,0,2,2,-1,10
1532220794556,-25,44,8,0,6,7,11,5
1532220794561,19,17,19,-1,-7,-8,-1,13
1532220794566,61,10,9,4,9,12,37,42
1532220794571,-92,-36,0,-3,0,3,-31,-45
1532220794576,-9,-58,-33,-11,-12,-24,-11,24
1532220794581,2,-22,-8,3,2,-4,0,-56
1532220794586,23,20,-1,1,0,-4,-8,-22
1532220794591,11,28,23,5,-5,1,8,10
1532220794596,1,-12,-11,-4,2,4,-7,6
1532220794601,50,9,7,1,2,4,-3,47
1532220794606,-102,-40,-3,5,4,3,-1,-42
1532220794611,127,25,1,-1,-1,-2,35,20
1532220794616,-6,18,5,0,0,2,-11,6
1532220794621,33,14,-7,-1,0,-12,14,31
1532220794626,14,3,-17,-24,-12,-5,0,-7
1532220794631,-100,-18,13,6,-3,-3,-8,2
1532220794636,-19,-1,-3,12,9,8,15,-30
1532220794641,-24,7,0,4,3,-4,1,26
1532220794646,47,10,17,9,10,4,-41,4
1532220794651,-58,-10,-22,-20,-24,-30,-19,-88
1532220794656,54,-1,2,-19,-13,-10,3,-4
1532220794661,-37,-7,-16,23,7,9,-7,-22
1532220794666,0,2,-5,-5,-3,-1,14,32
1532220794671,14,-12,3,-4,6,10,-1,31
1532220794676,76,37,22,4,10,15,29,23
1532220794681,-66,2,-1,-7,-14,-22,-34,-48
1532220794686,41,-1,-5,5,-2,0,13,-6
1532220794691,-3,-9,-33,-12,2,3,-5,10
1532220794696,65,-6,3,9,2,3,-2,-7
1532220794701,-43,-9,5,-7,-4,0,-10,14
1532220794706,95,7,2,4,-8,10,18,33
1532220794711,-111,-8,9,1,8,-14,-23,-51
1532220794716,43,-10,-23,-4,-5,1,10,14
1532220794721,28,-2,-24,-4,2,-4,8,6
1532220794726,-48,-7,58,5,-1,13,-16,-38
1532220794731,67,27,10,3,-43,-6,15,40
1532220794736,37,33,44,12,61,78,-2,56
1532220794741,-60,-39,-8,-15,28,95,16,-35
1532220794746,44,-16,-49,-1,-20,-32,-9,-20
1532220794751,44,-3,-6,0,7,-28,7,6
1532220794756,-45,-1,-3,-11,-14,-5,-17,-26
1532220794761,0,14,21,-9,-25,-50,-2,20
1532220794766,-26,-6,-24,-4,31,20,20,5
1532220794771,-47,-3,19,19,0,2,-8,-7
1532220794776,-13,-28,-18,-5,-57,-73,-12,-24
1532220794781,57,8,11,5,11,-88,22,7
1532220794786,-9,18,32,5,46,70,-14,6
1532220794791,8,-4,-25,-3,27,53,8,4
1532220794796,13,-1,42,10,-4,-11,10,0
1532220794801,66,33,43,21,-15,5,1,3
1532220794806,-118,-11,-63,-13,-25,-43,-9,9
1532220794811,127,10,-8,-7,-10,-22,-6,-21
1532220794816,-21,-21,5,-3,-31,-32,9,22
1532220794821,-13,-7,-1,0,74,67,1,-18
1532220794826,-51,8,28,9,0,-28,1,0
1532220794831,23,-4,-6,-2,-6,-60,-9,-5
1532220794836,-43,4,-31,0,-9,56,1,-21
1532220794841,85,6,13,2,-4,-6,-6,32
1532220794846,-70,-17,-19,-1,-12,3,9,-32
1532220794851,-33,-3,23,-41,7,-7,1,5
1532220794856,-9,30,-39,40,11,-17,-6,-11
1532220794861,-6,12,44,21,-2,6,-4,13
1532220794866,20,-7,24,1,11,5,-2,8
1532220794871,-10,-22,-4,-5,-19,-12,-6,-4
1532220794876,9,-7,13,-8,10,-10,6,-18
1532220794881,0,-1,-123,-17,-15,6,-5,3
1532220794886,28,-7,25,-23,-21,-16,-4,0
1532220794891,30,24,-1,28,15,24,10,-3
1532220794896,-75,-10,1,-14,9,9,-6,16
1532220794901,11,-5,5,5,-16,-14,-3,-18
1532220794906,56,9,11,-3,-16,-14,3,-2
1532220794911,43,9,-12,-2,-38,-76,3,33
1532220794916,3,1,10,-4,78,105,18,0
1532220794921,-107,-21,5,-15,-21,-60,-14,16
1532220794926,48,-4,-31,-9,-1,2,-5,-19
1532220794931,6,8,19,31,41,104,51,-10
1532220794936,22,-1,-2,6,-6,53,-4,21
1532220794941,-51,-21,-10,-38,-45,-106,-45,-8
1532220794946,-21,5,13,-9,-13,11,-15,1
1532220794951,-24,-16,-88,6,25,28,-13,9
1532220794956,-17,-23,-10,25,6,-35,13,-16
1532220794961,49,19,34,4,17,71,23,-6
1532220794966,-5,12,-55,22,-23,-41,-5,6
1532220794971,-3,-5,17,-23,-17,-19,-3,4
1532220794976,6,-10,5,-20,-6,-29,-12,-5
1532220794981,31,-12,-18,-16,-17,-11,2,10
1532220794986,12,-6,-2,-2,1,-1,11,8
1532220794991,-69,19,40,6,11,18,-5,-9
1532220794996,69,19,-17,-3,-7,-36,-8,2
1532220795001,-56,-5,5,8,-1,55,-15,-31
1532220795006,12,5,31,-33,-9,-6,19,-12
1532220795011,-55,-22,-7,53,5,44,-5,16
1532220795016,8,-17,9,-22,-18,-67,-23,-10
1532220795021,18,14,0,10,41,63,16,-1
1532220795026,-8,-8,1,-4,-48,-80,2,11
1532220795031,0,1,-2,-17,35,103,-22,-12
1532220795036,-24,-5,-21,-3,28,56,0,-7
1532220795041,26,-3,7,-5,-18,47,-12,-2
1532220795046,-31,9,0,24,59,-60,10,15
1532220795051,56,24,17,-10,-35,-6,-9,17
1532220795056,-23,21,11,8,61,45,2,-33
1532220795061,37,-21,-15,-8,8,3,1,-6
1532220795066,8,2,-5,6,-16,-18,5,11
1532220795071,15,3,2,-11,-33,-91,-12,4
1532220795076,45,15,-13,-15,-46,-39,-11,2
1532220795081,46,5,5,14,6,-18,13,12
1532220795086,-51,-11,-6,9,15,30,-15,-22
1532220795091,32,-17,13,-6,-30,-55,11,10
1532220795096,-15,-4,-12,5,54,76,6,4
1532220795101,23,26,30,1,-42,-59,1,2
1532220795106,-10,-7,10,2,58,-36,8,9
1532220795111,-16,3,16,-3,25,12,1,-6
1532220795116,-15,-23,-12,-8,-51,-65,-3,-9
1532220795121,16,-8,-29,6,62,87,15,18
1532220795126,17,6,28,-4,-9,-1,-7,-15
1532220795131,4,0,-3,-6,-20,-50,-21,3
1532220795136,8,-7,29,1,-30,-58,3,-2
1532220795141,-6,17,27,4,-12,-43,-1,-14
1532220795146,15,6,-63,7,-8,51,1,-10
1532220795151,-9,2,35,3,22,-18,1,7
1532220795156,-18,-4,35,-5,-36,-33,-6,11
1532220795161,-16,-6,-33,-10,30,92,5,-9
1532220795166,16,6,0,-1,-74,-33,-6,-1
1532220795171,25,9,10,4,50,47,19,9
1532220795176,-53,-14,-20,6,-9,-27,3,0
1532220795181,-32,0,37,1,-4,-21,-2,-7
1532220795186,7,-3,-54,-9,-8,-16,-4,3
1532220795191,-23,-7,-14,-15,-12,-12,-5,-9
1532220795196,28,43,15,20,-29,-16,-1,-6
1532220795201,-6,-49,2,-30,-128,-128,4,0
1532220795206,41,8,16,-14,91,127,-7,21
1532220795211,-88,-11,82,15,34,93,34,-34
1532220795216,27,-10,-58,-15,-11,2,-39,-2
1532220795221,3,25,49,23,-26,-77,-12,1
1532220795226,8,-5,5,-5,-69,-91,-6,-2
1532220795231,17,-7,-27,-13,24,64,-5,-1
1532220795236,-6,0,-15,1,16,21,28,6
1532220795241,42,-6,-26,-10,6,52,3,7
1532220795246,-62,-15,35,17,15,-1,-8,-6
1532220795251,-22,14,13,1,-8,-39,-3,0
1532220795256,-10,-30,-1,-5,-7,-48,0,-13
1532220795261,2,-27,-33,-15,-41,-73,-9,6
1532220795266,17,4,7,-3,11,-8,3,6
1532220795271,-26,-13,-12,-7,36,25,4,-7
1532220795276,-3,22,13,12,-29,-24,-9,-14
1532220795281,25,-14,-23,-7,13,-44,6,9
1532220795286,1,15,44,6,40,13,2,11
1532220795291,-18,-8,-16,-8,-3,-65,5,-1
1532220795296,23,1,59,15,42,121,-13,-1
1532220795301,-2,10,-33,-17,-29,-44,-8,-12
1532220795306,44,19,-27,3,-5,6,1,15
1532220795311,-6,49,33,41,-54,-58,8,-14
1532220795316,-10,-43,16,-38,11,111,-11,-16
1532220795321,1,-13,74,-5,27,-55,0,21
1532220795326,-18,-28,-33,-1,79,95,7,-8
1532220795331,21,18,18,9,15,-8,-4,7
1532220795336,4,-2,-14,11,-38,-84,7,-1
1532220795341,-2,26,56,18,-35,-57,2,-6
1532220795346,-15,-72,-86,-33,-29,-44,-18,-5
1532220795351,22,56,92,15,-47,-48,13,4
1532220795356,5,39,5,28,127,118,8,6
1532220795361,-2,5,-72,-15,-66,51,-7,-4
1532220795366,55,35,97,21,25,22,12,39
1532220795371,-91,-108,-81,-26,60,127,2,-5
1532220795376,31,-5,-97,-19,-43,-44,-15,-16
1532220795381,43,14,12,3,-17,-10,-2,9
1532220795386,-3,36,44,11,-39,-40,-1,-15
1532220795391,25,15,23,8,-2,-20,-3,-5
1532220795396,74,-16,7,-7,-51,-60,46,81
1532220795401,-113,-66,-97,-11,52,27,-21,-44
1532220795406,18,-53,-47,-8,-38,-64,-10,-17
1532220795411,-42,72,62,-6,19,3,-13,-18
1532220795416,-21,-56,17,-2,-16,-18,-3,-22
1532220795421,50,18,16,11,-7,-4,7,36
1532220795426,-63,-21,-43,-27,-23,-49,10,8
1532220795431,9,-67,12,4,20,18,26,19
1532220795436,-26,13,18,3,21,26,21,-42
1532220795441,74,112,1,21,7,-16,-54,-15
1532220795446,-32,-22,-13,-4,-43,31,-11,-22
1532220795451,34,4,-18,10,-5,-11,0,21
1532220795456,-3,-5,45,-8,-8,56,0,-4
1532220795461,-32,-63,-24,-6,70,66,28,11
1532220795466,27,22,-67,-15,-49,-119,-25,-58
1532220795471,49,11,-20,-21,9,27,4,10
1532220795476,-41,-22,-25,-16,-17,-42,-11,15
1532220795481,-17,5,22,6,-34,-36,7,-58
1532220795486,7,31,59,12,-14,-41,0,6
1532220795491,23,28,-2,25,30,69,8,-5
1532220795496,-1,11,-1,16,20,-81,-14,13
1532220795501,25,17,89,3,-9,4,5,25
1532220795506,5,-9,-69,-72,-19,-56,16,9
1532220795511,-21,3,43,4,30,97,-26,-26
1532220795516,6,22,1,22,-24,13,1,5
1532220795521,25,5,35,43,50,71,40,47
1532220795526,26,4,30,20,-4,24,-27,3
1532220795531,-62,4,34,-12,-18,-40,21,-22
1532220795536,27,19,-34,2,-4,3,-6,28
1532220795541,-16,-38,-106,-44,-48,-92,-54,-51
1532220795546,-20,-10,25,-9,6,25,-4,-1
1532220795551,0,-24,-26,-8,1,-28,-6,12
1532220795556,13,45,48,14,24,9,28,-15
1532220795561,-22,-60,1,24,32,56,42,46
1532220795566,38,71,-12,-7,3,4,-31,-1
1532220795571,-6,13,-26,-4,-49,-110,-38,-53
1532220795576,-25,-6,-9,-3,1,-2,5,-8
1532220795581,1,-34,-43,-26,13,31,-31,-3
1532220795586,45,7,62,36,9,24,74,68
1532220795591,-21,-22,-17,-3,9,30,1,-32
1532220795596,-88,-37,17,2,26,1,-9,29
1532220795601,19,20,6,-5,-6,-2,-6,-13
1532220795606,-37,-11,-11,5,-6,27,15,0
1532220795611,45,5,-13,-5,-4,25,3,19
1532220795616,-6,-4,29,-7,0,-8,-9,-18
1532220795621,5,17,0,5,-15,-36,13,9
1532220795626,-24,-15,30,18,29,15,-2,-12
1532220795631,-3,1,-34,-17,-9,-8,-10,-9
1532220795636,20,16,-5,5,0,21,-7,-8
1532220795641,-10,-8,4,-10,-15,-15,1,4
1532220795646,38,6,11,-1,6,19,-8,-10
1532220795651,-47,-18,-9,5,7,12,-3,7
1532220795656,30,16,10,0,-3,3,1,3
1532220795661,-25,-2,-44,-21,-52,-61,-13,-23
1532220795666,-26,-19,13,19,48,98,-1,-1
1532220795671,56,17,56,14,-1,-8,21,39
1532220795676,-3,-6,8,-13,15,4,11,-2
1532220795681,-2,-6,-5,-19,-12,23,26,33
1532220795686,-31,-14,-28,5,-12,-40,-62,-28
1532220795691,10,8,30,10,1,-33,7,12
1532220795696,26,20,-47,-7,-18,-27,-15,-23
1532220795701,0,0,-10,0,8,-7,12,13
1532220795706,-16,-6,50,-25,7,11,31,11
1532220795711,9,-18,-29,12,7,4,-17,10
1532220795716,-17,-3,-1,-5,-5,-12,-8,3
1532220795721,-27,-5,9,11,5,2,5,-4
1532220795726,62,52,-10,13,-1,0,11,13
1532220795731,-5,0,11,2,-5,-1,5,5
1532220795736,9,-18,-16,-18,-3,8,-15,-14
1532220795741,4,-1,26,4,6,2,-7,-10
1532220795746,-6,-7,-7,-4,-10,-18,3,-9
1532220795751,17,-8,19,-1,2,5,5,18
1532220795756,33,-1,-70,-2,-3,-21,4,28
1532220795761,-3,43,52,1,2,-57,-8,-41
1532220795766,-16,-2,-21,-5,-14,-95,-6,-9
1532220795771,12,-16,-26,-14,-5,-70,-7,4
1532220795776,-11,9,27,6,-2,-30,3,-14
1532220795781,17,0,3,7,6,-2,-14,-2
1532220795786,-6,-17,-2,1,1,32,7,5
1532220795791,-21,-19,-14,-3,1,56,0,-21
1532220795796,26,-12,8,-4,-4,46,-2,23
1532220795801,-54,-12,-13,3,0,39,-2,-2
1532220795806,-14,-8,22,6,1,44,8,-6
1532220795811,6,24,-24,-5,-4,31,-4,-8
1532220795816,-19,17,-24,-1,-1,28,4,25
1532220795821,-26,32,36,1,2,31,4,-7
1532220795826,-3,-26,-6,1,3,13,-3,0
1532220795831,6,25,1,-2,0,7,-3,1
1532220795836,-1,-30,1,2,3,2,3,-9
1532220795841,10,9,-11,2,2,1,3,1
1532220795846,-3,18,25,0,-1,-10,-22,12
1532220795851,-13,-4,-13,-4,2,4,18,20
1532220795856,14,-11,13,7,4,6,4,-13
1532220795861,-2,-20,-8,-2,-2,-10,-11,2
1532220795866,-6,-12,-13,-2,-3,-7,6,-18
1532220795871,57,13,-4,0,3,6,11,32
1532220795876,-55,-11,6,-5,-13,-18,-60,-42
1532220795881,-35,-5,21,4,4,20,-3,-24
1532220795886,-18,-6,-37,-9,10,4,7,17
1532220795891,2,-5,0,-1,-8,0,-3,1
1532220795896,-13,10,4,-2,9,-24,-16,27
1532220795901,26,-13,-5,-8,5,40,8,-64
1532220795906,10,2,-5,-5,-13,-5,1,-20
1532220795911,-5,1,-6,-8,-2,5,-12,-18
1532220795916,0,9,15,7,-2,-26,20,-10
1532220795921,20,-3,-12,10,8,37,9,44
1532220795926,24,20,16,4,1,-31,-28,19
1532220795931,-12,-55,-34,-19,-15,-19,-24,-37
1532220795936,-73,2,8,-2,-13,-24,-4,-42
1532220795941,43,4,3,-2,-4,-39,6,5
1532220795946,14,-14,-23,-5,3,28,18,-3
1532220795951,38,15,19,11,5,1,-2,45
1532220795956,-27,-26,2,-8,9,19,16,9
1532220795961,-10,-10,-13,-9,-8,-2,-11,-22
1532220795966,4,4,6,-2,-11,-9,14,0
1532220795971,-71,13,-1,4,5,-13,-11,-19
1532220795976,44,-8,-6,-1,1,20,6,11
1532220795981,39,10,12,-5,-1,-14,13,20
1532220795986,-19,-5,-26,7,-5,-14,-13,-6
1532220795991,-22,-29,-3,-7,4,2,6,-1
1532220795996,97,90,15,1,4,17,2,2
1532220796001,43,-20,7,-4,-11,-27,-7,10
1532220796006,-23,32,-5,4,5,5,9,-23
1532220796011,-21,-24,-5,24,10,10,-10,-21
1532220796016,7,-2,4,-3,-13,-18,-16,-18
1532220796021,-6,-17,-26,-10,-2,-19,-11,30
1532220796026,-13,-48,-1,-10,-1,6,-1,-33
1532220796031,53,10,0,2,2,8,23,15
1532220796036,-28,7,6,0,-3,1,7,4
1532220796041,-56,22,0,0,-1,-6,1,-19
1532220796046,34,21,6,0,2,2,9,38
1532220796051,-75,-40,14,3,0,-6,-16,2
1532220796056,-7,-15,-25,3,1,1,4,-28
1532220796061,-5,-27,-16,-13,-1,-3,3,22
1532220796066,-26,29,5,9,1,-1,-11,6
1532220796071,-2,11,8,-9,-6,-7,3,-6
1532220796076,-6,-18,-6,0,2,5,4,13
1532220796081,23,9,5,4,3,0,7,15
1532220796086,-16,-6,22,2,1,-4,-19,-41
1532220796091,5,-26,-24,-17,-11,-10,9,-6
1532220796096,4,-10,0,2,8,8,-4,36
1532220796101,-65,4,1,10,1,-9,12,-26
1532220796106,19,-11,10,-4,-4,21,5,-21
1532220796111,29,20,-2,-2,-3,16,-17,2
1532220796116,23,2,-11,8,-2,-40,11,-7
1532220796121,-32,-4,16,-7,-6,-7,-19,-14
1532220796126,9,7,4,0,3,-15,7,32
1532220796131,15,41,-7,-2,2,8,15,-19
1532220796136,12,-10,0,-20,-6,10,-8,-1
1532220796141,70,12,6,29,7,11,10,29
1532220796146,-61,-23,-7,-11,-10,-10,-1,-11
1532220796151,34,6,10,-1,0,3,-6,2
1532220796156,-19,1,-2,9,0,7,-2,-7
1532220796161,34,7,9,-12,3,-1,-4,13
1532220796166,32,-3,-10,-5,-1,4,4,21
1532220796171,-19,14,8,3,-2,-11,-6,0
1532220796176,-9,-10,-10,-7,-7,0,1,-31
1532220796181,-5,-7,-14,-6,-2,-2,-5,-8
1532220796186,-6,-10,3,6,3,-3,-6,1
1532220796191,21,5,1,-1,5,4,15,17
1532220796196,-51,-4,5,2,0,-4,-7,5
1532220796201,8,3,0,-5,-6,-6,-10,-11
1532220796206,17,0,6,4,-1,-5,5,-11
1532220796211,17,1,-15,-4,-3,-4,5,1
1532220796216,-4,-2,5,-1,-2,4,6,0
1532220796221,3,2,1,2,2,-4,-7,-6
1532220796226,14,1,-1,-1,3,6,17,27
1532220796231,-8,1,0,4,-5,-8,-20,-12
1532220796236,-41,-7,-3,-5,0,5,-1,-20
1532220796241,10,0,-1,1,-1,-2,-2,11
1532220796246,-4,4,-3,-1,-3,-3,1,-2
1532220796251,-1,-1,1,-2,1,-2,-1,3
1532220796256,39,2,10,2,5,6,1,16
1532220796261,-15,22,4,3,0,2,7,0
1532220796266,-34,-5,-5,-5,-4,-7,-5,-10
1532220796271,-22,-22,-7,1,2,-2,-4,-25
1532220796276,47,6,2,2,0,2,3,16
1532220796281,-30,1,0,-3,-2,1,3,-3
1532220796286,11,6,7,0,0,-2,-13,2
1532220796291,6,1,-2,0,1,1,1,6
1532220796296,-4,2,9,-6,-6,-1,2,-11
1532220796301,14,-9,-6,6,1,1,-1,0
1532220796306,1,5,0,0,-2,-2,-4,6
1532220796311,-35,-14,-6,-2,1,0,5,-3
1532220796316,1,2,-5,-2,1,6,-4,3
1532220796321,6,9,20,-2,0,-8,-7,-3
1532220796326,-17,-5,-6,-5,0,-1,-8,-8
1532220796331,7,2,0,2,3,3,6,-5
1532220796336,9,-7,8,1,-3,-2,11,-9
1532220796341,0,-17,-42,-10,-6,5,-4,-10
1532220796346,9,19,4,2,-6,-5,-1,-6
1532220796351,3,-47,-3,-3,2,-3,-6,0
1532220796356,-10,14,4,3,10,0,-2,14
1532220796361,-14,21,21,1,-4,-3,0,-1
1532220796366,-9,-13,-26,-4,-7,-5,-3,3
1532220796371,3,-2,3,-3,-1,1,6,8
1532220796376,-1,0,13,4,5,6,9,10
1532220796381,-14,15,-14,-4,-5,-5,-2,-6
1532220796386,19,0,13,-3,-3,-2,-1,0
1532220796391,2,3,0,-3,-4,-6,-5,0
1532220796396,-10,-9,-14,-4,1,4,0,-5
1532220796401,29,12,7,-2,2,-5,-1,0
1532220796406,18,3,6,3,0,0,1,9
1532220796411,9,-10,-9,-2,-3,-2,8,11
1532220796416,-42,8,17,-3,-1,-11,-18,-11
1532220796421,10,-1,-13,6,-5,4,9,1
1532220796426,4,-2,-45,-19,-2,1,-2,-3
1532220796431,0,-1,32,12,5,0,-6,1
1532220796436,2,-2,3,10,4,2,9,0
1532220796441,8,9,16,-5,-3,-1,-4,7
1532220796446,-37,-9,-7,-4,-5,1,1,-1
1532220796451,-19,7,20,-1,-1,-2,-3,-8
1532220796456,15,-14,-56,-6,-2,1,0,7
1532220796461,-19,16,3,-5,-1,1,-5,1
1532220796466,8,-4,12,13,4,2,7,-6
1532220796471,-12,2,0,-12,-7,-7,-12,-8
1532220796476,6,0,-4,-3,2,9,8,6
1532220796481,8,-3,-8,-3,-5,10,-12,-2
1532220796486,12,3,-1,-3,1,-7,-2,3
1532220796491,7,13,6,12,5,5,8,5
1532220796496,5,-5,16,1,-3,-13,-6,-6
1532220796501,21,4,-10,-1,4,3,8,4
1532220796506,-18,2,12,0,-3,1,-8,2
1532220796511,8,-10,-21,-6,-3,-1,1,-6
1532220796516,-1,-4,8,-2,-1,7,4,1
1532220796521,23,1,2,2,1,-4,5,15
1532220796526,-31,-7,3,0,-4,-1,-6,-15
1532220796531,5,-6,-11,-3,-1,-4,8,4
1532220796536,-6,2,6,-2,-2,-4,-18,-4
1532220796541,-41,4,-1,-1,-1,-19,3,-9
1532220796546,17,2,7,-1,-3,-15,23,5
1532220796551,23,-2,-9,0,9,73,23,18
1532220796556,-49,-3,13,0,0,28,17,-9
1532220796561,-1,-6,-5,-3,-6,-56,-59,-19
1532220796566,19,2,-9,0,6,16,80,11
1532220796571,-8,-2,-12,-1,-5,-26,34,16
1532220796576,29,18,8,1,4,27,-7,-1
1532220796581,-21,-74,-1,-6,-24,-59,31,-26
1532220796586,11,51,4,1,27,81,-80,-27
1532220796591,18,4,12,4,-10,7,27,17
1532220796596,-3,-11,-29,1,10,-23,-32,2
1532220796601,-27,6,1,-2,-10,8,-5,4
1532220796606,25,-21,-1,4,23,49,12,12
1532220796611,-9,-25,-1,-6,-7,0,-16,-18
1532220796616,-17,-11,10,-7,-63,-67,-7,2
1532220796621,-17,23,4,7,76,77,-5,18
1532220796626,-31,-8,-3,1,-11,-9,25,-10
1532220796631,-35,-11,-7,-9,-69,-89,-36,-17
1532220796636,8,-25,-1,7,70,68,37,5
1532220796641,2,19,-11,-6,-18,-21,-10,-10
1532220796646,12,-13,6,-8,-32,-55,18,22
1532220796651,11,10,2,6,36,-8,-24,1
1532220796656,-13,1,7,-5,-46,-44,-18,-3
1532220796661,42,14,-3,-2,17,57,28,-6
1532220796666,-47,-5,-1,3,4,-15,-33,-41
1532220796671,27,15,-8,-4,-12,-7,-11,-4
1532220796676,7,-3,-5,-3,6,-14,11,11
1532220796681,-11,-8,-15,-9,-7,-1,-8,6
1532220796686,46,-7,25,19,-46,-47,1,21
1532220796691,-17,5,-9,-13,-73,-79,-17,-37
1532220796696,-19,13,25,11,112,113,50,32
1532220796701,30,-22,-12,-1,-24,-48,-30,-30
1532220796706,-57,8,6,-2,3,-41,15,19
1532220796711,32,-4,0,-2,9,-14,-21,-16
1532220796716,33,19,-24,0,-16,-7,48,23
1532220796721,-37,6,60,-2,-25,3,-50,-8
1532220796726,33,-14,-55,-8,9,-2,-2,-7
1532220796731,3,4,27,8,29,20,1,4
1532220796736,22,-17,-24,-15,-19,-43,-16,-8
1532220796741,-12,5,-6,16,20,35,30,25
1532220796746,6,3,39,-1,-12,-9,-24,-9
1532220796751,-10,8,-1,-13,29,-14,-2,14
1532220796756,37,14,9,-18,-80,-58,-46,-37
1532220796761,31,12,0,15,32,58,12,77
1532220796766,-31,14,15,16,103,85,35,17
1532220796771,-18,-23,-46,4,-2,91,9,-18
1532220796776,-2,28,97,5,-5,-47,-21,-24
1532220796781,22,6,-19,-13,-49,-102,10,5
1532220796786,19,-14,-38,-18,-15,-24,-48,0
1532220796791,31,13,-1,18,0,-19,35,21
1532220796796,-47,-16,49,0,-8,-15,-6,-8
1532220796801,2,8,9,7,7,15,6,-5
1532220796806,24,-14,-29,-7,-21,-9,-1,0
1532220796811,-18,-3,0,-1,-12,-32,-6,-10
1532220796816,37,0,-2,10,27,72,-3,23
1532220796821,-3,2,-5,-1,-2,-22,10,-36
1532220796826,8,4,7,1,15,55,1,-1
1532220796831,-6,5,11,-1,4,4,-15,7
1532220796836,-29,-10,-46,-5,-3,22,35,1
1532220796841,11,-10,-6,-7,-9,-18,-24,3
1532220796846,-19,13,15,10,25,71,5,-15
1532220796851,-14,-1,-10,-11,0,-53,-18,-24
1532220796856,4,-3,-14,5,-10,28,1,4
1532220796861,1,12,1,3,-13,-29,19,-20
1532220796866,-2,-15,7,-7,-54,-115,-28,2
1532220796871,-31,-2,2,-1,8,-72,5,0
1532220796876,14,17,-11,11,41,54,14,-6
1532220796881,-34,-22,7,1,10,31,2,1
1532220796886,1,3,-4,-3,-12,-12,-1,9
1532220796891,9,10,18,4,-1,11,2,-1
1532220796896,18,2,50,-3,-26,-75,-19,-1
1532220796901,2,-13,-43,-14,6,26,9,6
1532220796906,-21,-7,4,-4,-6,-11,19,8
1532220796911,20,11,18,16,8,13,-34,-3
1532220796916,-16,-16,-25,-7,-2,-16,-8,-7
1532220796921,39,10,3,-4,2,8,5,16
1532220796926,-60,4,21,3,-7,-17,-4,-17
1532220796931,-16,-9,-21,-3,-9,-12,13,4
1532220796936,15,10,-11,9,17,28,1,15
1532220796941,-21,0,37,11,-3,-5,1,-12
1532220796946,52,21,-75,-15,-17,-41,-19,-3
1532220796951,4,-2,62,-3,17,34,-1,7
1532220796956,6,-5,14,-5,-12,-25,-1,2
1532220796961,-33,-8,-2,-4,1,7,26,7
1532220796966,11,-9,5,3,5,-2,-20,-13
1532220796971,-1,-4,-31,-8,-2,16,2,-2
1532220796976,7,6,-17,-3,-12,-29,0,-3
1532220796981,-7,8,9,-1,-1,-19,-4,1
1532220796986,16,-7,11,3,2,-24,1,5
1532220796991,-13,-13,-26,-6,-2,-13,5,1
1532220796996,-13,-29,-21,4,0,-28,-9,-4
1532220797001,8,9,18,7,-4,-18,3,-1
1532220797006,-6,51,12,-5,5,29,-5,0
1532220797011,10,-66,-35,-13,-5,-3,-6,1
1532220797016,-15,45,27,-4,-4,1,4,-3
1532220797021,-2,-8,9,2,-3,1,-9,-16
1532220797026,-4,-33,-9,-1,-4,8,4,0
1532220797031,-3,46,7,6,10,46,7,6
1532220797036,-2,26,5,-8,-15,14,-13,-7
1532220797041,-5,-22,-14,-7,-7,5,-2,-5
1532220797046,7,7,21,3,0,11,0,5
1532220797051,-7,1,12,-6,-23,-14,0,4
1532220797056,-5,-32,-1,7,23,0,5,-3
1532220797061,2,21,6,2,-10,23,-1,7
1532220797066,16,19,-6,2,18,16,-12,11
1532220797071,-23,-65,-20,-4,-4,-5,7,-14
1532220797076,3,12,-11,-5,8,32,-2,-2
1532220797081,3,12,0,-3,3,2,6,0
1532220797086,-9,-16,3,-2,-12,-22,-2,-10
1532220797091,3,37,4,5,6,0,-8,8
1532220797096,1,16,5,-4,-14,-19,-1,1
1532220797101,-5,4,11,1,6,-1,2,-4
1532220797106,-4,-20,-16,-2,-5,-7,3,7
1532220797111,-4,24,-5,-2,4,-10,-12,-8
1532220797116,-5,-2,6,0,-5,-1,2,1
1532220797121,2,9,0,-2,-3,-13,0,4
1532220797126,-8,-8,-7,-3,-6,-9,-8,-8
1532220797131,7,2,-2,0,9,10,1,5
1532220797136,9,-19,5,0,-18,-3,2,2
1532220797141,-19,-1,7,1,6,-57,4,-14
1532220797146,4,-26,-6,-1,-20,-8,-2,-8
1532220797151,-4,-5,-12,-5,18,14,-15,-4
1532220797156,-5,-16,-10,-3,-10,-1,-3,1
1532220797161,10,12,2,1,3,6,3,5
1532220797166,-30,-16,-2,-3,1,-4,-1,8
1532220797171,-1,16,-1,3,-6,-19,-2,-23
1532220797176,0,9,6,0,-1,-41,2,17
1532220797181,31,18,1,2,5,21,-2,18
1532220797186,-66,-81,-17,-10,-11,-17,-20,-51
1532220797191,30,37,8,3,0,-3,-2,5
1532220797196,-6,-10,0,0,6,6,7,5
1532220797201,37,9,8,1,-1,-3,35,44
1532220797206,-76,-17,-7,-2,-3,14,-40,-48
1532220797211,10,-16,-12,-3,3,13,0,7
1532220797216,-5,-6,-3,-3,-8,-4,-10,-24
1532220797221,-1,-5,-2,0,-4,-6,0,2
1532220797226,41,23,4,2,20,10,17,24
1532220797231,-2,-7,3,-1,-11,-11,1,3
1532220797236,1,11,2,0,4,10,-2,-1
1532220797241,-11,-7,-1,0,11,28,0,-10
1532220797246,30,14,-2,1,-2,-14,2,13
1532220797251,-12,3,1,-1,-3,-7,-1,-5
1532220797256,13,-12,-2,0,2,3,5,13
1532220797261,-28,-3,0,-4,-12,-18,-16,-24
1532220797266,16,11,0,2,2,6,6,0
1532220797271,4,-3,1,-1,2,2,6,11
1532220797276,-2,2,3,-1,-1,0,-1,-2
1532220797281,-9,-5,-10,-3,2,1,-8,-11
1532220797286,16,9,1,0,2,0,4,6
1532220797291,-4,-7,1,0,1,6,3,5
1532220797296,-2,-5,0,-2,-1,-2,-1,-3
1532220797301,-5,5,5,1,-1,-6,-5,-8
1532220797306,22,-3,-10,-6,-10,21,2,10
1532220797311,-24,-8,-10,-4,-12,-30,-5,0
1532220797316,28,-2,-1,-1,2,23,-4,-11
1532220797321,-10,2,-3,3,9,12,2,5
1532220797326,2,1,2,1,4,1,4,9
1532220797331,3,0,-3,1,1,-9,-5,-30
1532220797336,-21,1,-18,-6,-15,-12,5,-5
1532220797341,25,-7,25,2,-2,2,14,43
1532220797346,-29,1,-41,-12,-9,-25,-23,-70
1532220797351,8,3,5,1,2,11,4,13
1532220797356,-1,-5,3,3,4,-3,0,5
1532220797361,-3,2,2,-2,1,3,-1,-18
1532220797366,9,10,7,1,4,9,13,18
1532220797371,-12,-9,13,-1,-1,-2,3,33
1532220797376,-17,-1,-11,-1,-6,-5,-9,-35
1532220797381,3,-5,-6,-3,-4,-4,-7,4
1532220797386,12,3,10,2,2,5,0,11
1532220797391,36,2,-6,0,4,9,4,-8
1532220797396,-17,-2,9,2,-1,-9,-1,11
1532220797401,-6,-3,-4,-2,-5,0,-6,-18
1532220797406,16,1,2,2,4,-2,5,17
1532220797411,-13,0,1,0,0,4,-1,-6
1532220797416,9,-1,1,-2,0,-6,-1,7
1532220797421,-7,-1,-9,-4,-4,0,-7,-14
1532220797426,14,5,1,4,1,-4,2,9
1532220797431,-13,-3,-1,0,-1,-3,-3,7
1532220797436,2,0,1,-1,-1,0,-3,-3
1532220797441,-7,1,-5,-2,-2,0,-3,-7
1532220797446,1,1,10,2,0,-6,3,11
1532220797451,-5,-6,-3,-2,0,2,-2,-7
1532220797456,-3,1,2,-1,1,0,0,0
1532220797461,3,0,-2,0,0,-2,-4,-4
1532220797466,-4,-2,2,0,-6,-14,2,2
1532220797471,-4,-1,-4,-3,-4,-12,-2,-4
1532220797476,5,3,1,1,23,42,5,4
1532220797481,3,-5,-5,-5,-13,-59,-5,1
1532220797486,-12,-2,5,3,2,2,-7,-4
1532220797491,0,2,-2,0,3,28,9,-3
1532220797496,1,-2,1,-2,-4,-8,2,2
1532220797501,-7,1,2,4,-3,17,-3,-3
1532220797506,1,-2,1,1,2,-35,-3,0
1532220797511,1,-11,-3,-3,-10,-5,-4,-1
1532220797516,3,15,3,2,9,-8,-1,4
1532220797521,-1,-2,-5,0,2,25,4,-5
1532220797526,1,-1,0,-1,-4,1,-1,3
1532220797531,-3,0,-4,-7,0,4,1,1
1532220797536,-1,-6,-2,-2,-7,-13,-4,-1
1532220797541,-4,2,4,6,0,0,-5,-3
1532220797546,2,-1,3,0,2,14,2,0
1532220797551,14,6,2,2,3,-4,1,5
1532220797556,-11,-4,-3,-6,-10,-2,-4,-1
1532220797561,2,1,-2,-2,3,9,9,-3
1532220797566,-3,-3,-1,-3,-4,0,3,-2
1532220797571,0,2,0,0,4,2,-1,2
1532220797576,6,1,1,3,-3,-7,3,1
1532220797581,-6,-5,-4,-8,-4,2,-3,-1
1532220797586,0,1,-2,1,2,1,-4,-1
1532220797591,-3,2,-1,0,-1,-4,-1,-1
1532220797596,-2,-5,-2,-4,-4,-3,0,1
1532220797601,-4,-1,-6,-7,-3,-5,-1,-3
1532220797606,2,1,3,5,3,9,0,-1
1532220797611,-4,1,3,0,3,-2,-4,-2
1532220797616,0,-4,1,3,-1,-2,1,0
1532220797621,1,0,0,1,-1,4,2,2
1532220797626,2,-5,-6,-7,-2,0,-1,-1
1532220797631,-2,-1,-4,0,-1,0,2,1
1532220797636,-2,10,2,-1,0,-2,-3,-1
1532220797641,-1,-3,0,2,1,0,-1,-2
1532220797646,1,0,0,1,1,4,1,0
1532220797651,-7,-7,-1,1,-3,-4,-6,-5
1532220797656,2,-5,-5,-5,-4,-1,0,-1
1532220797661,0,3,0,-1,0,-1,0,1
1532220797666,-1,-3,-1,-1,0,2,-1,0
1532220797671,-1,-1,-4,-4,-3,-3,-2,-4
1532220797676,0,-3,0,-4,-3,-3,-1,-1
1532220797681,-2,0,2,3,2,1,-5,0
1532220797686,0,0,-1,0,0,0,2,0
1532220797691,-2,2,1,-2,-2,-1,-4,-2
1532220797696,1,3,8,-9,-5,0,0,-1
1532220797701,-3,-6,-25,12,0,-2,-3,-4
1532220797706,3,1,18,9,0,-1,0,1
1532220797711,-3,1,7,-10,-4,-3,-1,2
1532220797716,-1,-4,-6,2,4,-1,-4,0
1532220797721,2,1,-3,0,-1,0,0,-6
1532220797726,-5,-1,-5,1,3,3,4,-6
1532220797731,-1,3,4,5,0,-1,0,1
1532220797736,2,-3,-12,-9,-4,-4,-1,1
1532220797741,1,2,12,9,-3,2,-1,1
1532220797746,-4,-7,13,-14,0,-1,-9,0
1532220797751,-2,-3,-2,9,3,-1,-1,-4
1532220797756,-3,-5,-3,-7,-1,2,0,-1
1532220797761,1,1,6,-4,0,-1,0,0
1532220797766,1,-1,-5,0,-3,-1,0,-1
1532220797771,-1,0,-5,-4,-1,0,-1,-2
1532220797776,-1,-1,0,-3,-4,-1,-1,-2
1532220797781,-2,1,17,7,3,2,2,-2
1532220797786,0,1,-19,0,1,1,2,0
1532220797791,-1,-1,-1,-1,0,-1,-1,-1
1532220797796,1,-3,-2,9,1,-2,-1,-3
1532220797801,-6,-5,-1,-13,-4,-2,-3,0
1532220797806,3,3,3,2,-1,-1,1,-1
1532220797811,1,1,-3,1,1,4,1,-2
1532220797816,1,-3,4,5,0,-1,-10,1
1532220797821,-8,-3,-5,-11,-9,-8,0,-2
1532220797826,2,2,-6,-1,-3,-3,-2,0
1532220797831,-3,0,-2,2,-1,-1,0,-3
1532220797836,-3,1,3,1,-5,-4,-2,-2
1532220797841,2,1,-3,-2,4,4,-2,1
1532220797846,1,1,-4,-2,-1,-1,1,0
1532220797851,-2,-2,0,-4,-2,-2,-3,-1
1532220797856,3,0,1,4,2,0,2,-3
1532220797861,1,-1,-5,-2,-1,0,0,0
1532220797866,-1,-2,-1,-3,-3,-1,2,0
1532220797871,2,1,3,2,0,2,1,0
1532220797876,-3,-3,-2,1,1,-1,1,-1
1532220797881,1,0,-2,-2,0,2,-2,1
1532220797886,-1,-3,1,-3,-2,-12,-11,-2
1532220797891,-1,-1,-2,0,-1,-2,0,-1
1532220797896,-2,-5,-7,-1,-1,0,0,-1
1532220797901,2,1,3,0,2,3,6,1
1532220797906,5,7,9,4,-1,-3,-4,0
1532220797911,-3,-10,-10,-4,-3,-2,13,-1
1532220797916,-9,-4,-5,-4,-6,-2,-23,-4
1532220797921,-4,-4,-3,-3,-1,6,1,-9
1532220797926,0,3,2,0,-1,0,2,2
1532220797931,7,2,-2,-1,-1,-3,-1,1
1532220797936,-17,1,4,1,7,11,8,5
1532220797941,-7,2,3,-5,0,11,-2,-6
1532220797946,-6,-9,-12,-6,-8,-13,-20,-5
1532220797951,-6,-1,-4,-5,-6,-21,-32,-16
1532220797956,10,2,1,4,0,-6,-3,0
1532220797961,-2,-3,-1,-1,2,6,-1,3
1532220797966,4,9,13,5,6,8,15,6
1532220797971,-4,-13,-11,-5,-1,8,9,6
1532220797976,5,0,1,0,3,19,31,25
1532220797981,-3,0,0,1,-2,-2,15,-38
1532220797986,-1,-5,-6,-3,-3,-1,18,-3
1532220797991,3,7,2,4,3,3,-12,-2
1532220797996,3,1,2,3,1,32,-1,4
1532220798001,2,0,0,-5,-7,-61,-24,15
1532220798006,-10,-10,-7,-3,-3,-41,-80,-17
1532220798011,0,3,-1,-2,-3,29,45,8
1532220798016,-2,-5,-1,-1,-2,-93,20,-9
1532220798021,-3,0,-5,6,11,80,48,-1
1532220798026,8,10,14,4,6,34,39,6
1532220798031,-22,-6,-9,-2,-1,11,29,-1
1532220798036,-8,-3,-12,-4,-9,-4,90,-6
1532220798041,10,1,8,2,4,37,-58,1
1532220798046,-1,4,-7,4,9,47,49,15
1532220798051,4,4,6,-1,-4,-5,37,4
1532220798056,-2,11,5,-2,-8,3,-29,-14
1532220798061,1,3,-1,-1,-3,-20,23,9
1532220798066,-4,-9,-8,-7,-3,-9,-17,-7
1532220798071,6,6,3,3,2,-11,-11,-3
1532220798076,-1,1,3,2,2,11,0,12
1532220798081,0,0,-3,-1,-6,-17,-10,0
1532220798086,-1,1,-5,-2,-4,-11,17,1
1532220798091,-2,-2,-1,0,-6,-5,-11,-3
1532220798096,-3,0,-2,0,2,-4,-8,5
1532220798101,-8,1,-1,-3,1,15,24,-1
1532220798106,-4,-1,1,-3,-7,-12,-36,-10
1532220798111,-13,1,2,0,-8,-7,-11,-6
1532220798116,6,-3,-5,-1,-9,0,11,0
1532220798121,11,0,1,3,-2,4,24,8
1532220798126,-3,-1,4,1,4,0,-16,-8
1532220798131,18,-2,-6,-3,0,-4,3,1
1532220798136,0,1,-2,-1,3,-8,-18,-13
1532220798141,8,-4,-1,-2,3,9,76,2
1532220798146,8,-3,1,-1,4,-6,-39,0
1532220798151,-4,-3,2,-1,3,7,3,1
1532220798156,8,-6,-4,-3,0,-5,12,15
1532220798161,2,-3,-1,0,5,18,-4,-5
1532220798166,-4,0,2,1,5,8,35,10
1532220798171,-1,2,0,-1,1,-11,-3,-16
1532220798176,5,3,6,1,3,14,20,4
1532220798181,-12,-7,-9,-5,-11,-10,11,0
1532220798186,-4,-2,-3,-2,-2,-15,-6,-1
1532220798191,1,0,-1,1,1,0,-20,1
1532220798196,2,-2,0,-1,-3,-3,-5,-5
1532220798201,1,2,4,2,2,3,-21,2
1532220798206,-5,-5,-4,-5,-8,0,-7,-3
1532220798211,1,0,1,-2,-1,3,24,6
1532220798216,5,-1,-1,0,3,-3,-7,17
1532220798221,-1,-1,-3,-4,0,15,9,-4
1532220798226,-5,1,-1,-1,0,-17,-40,-8
1532220798231,0,1,-2,1,9,15,-1,9
1532220798236,0,2,2,-1,5,1,-24,-18
1532220798241,-8,-2,-2,-2,4,-9,-2,6
1532220798246,18,-1,-4,0,4,0,2,4
1532220798251,3,0,0,0,5,8,-7,-6
1532220798256,-5,-1,-1,1,1,0,-28,-3
1532220798261,6,-4,0,1,5,-27,-40,7
1532220798266,-4,-2,1,-1,0,8,7,-3
1532220798271,-15,-1,-2,-3,-4,-19,-36,10
1532220798276,-2,3,-3,-2,-3,10,-2,-19
1532220798281,-6,6,-1,2,-7,-32,-31,-14
1532220798286,-5,3,0,1,-1,-1,0,-5
1532220798291,12,-5,0,-2,-4,-16,-4,16
1532220798296,-12,-1,1,0,-3,-2,10,-5
1532220798301,5,-1,-1,1,-3,3,-20,0
1532220798306,-2,-2,1,0,-8,5,25,1
1532220798311,-2,0,-3,-1,-11,-10,11,-4
1532220798316,-10,-2,2,-2,-8,-2,-1,-3
1532220798321,-2,-3,0,-2,-9,-10,-6,10
1532220798326,2,2,2,-1,-12,8,29,16
1532220798331,3,3,1,0,-9,27,25,0
1532220798336,4,-6,-2,-4,-16,-24,24,35
1532220798341,-15,3,-2,-1,-5,-2,-3,-41
1532220798346,3,-3,-4,-3,-1,0,-13,-14
1532220798351,-5,-3,1,1,4,3,14,-4
1532220798356,9,2,-3,-2,0,-11,-51,-5
1532220798361,4,-3,-1,0,7,4,1,2
1532220798366,3,-2,0,-1,7,11,31,11
1532220798371,0,-1,5,1,2,-19,2,-1
1532220798376,-5,-4,-2,-1,2,-3,2,-11
1532220798381,-9,-1,-5,-4,-5,7,10,-49
1532220798386,2,-2,-5,-2,1,-38,-75,-34
1532220798391,-2,-2,0,-2,6,-14,60,72
1532220798396,-6,-5,-7,-4,-2,-4,-66,-27
1532220798401,2,0,-1,-2,3,-4,13,38
1532220798406,2,-2,-1,0,4,6,16,-12
1532220798411,1,1,2,-2,5,29,10,-18
1532220798416,-6,-8,-6,-7,-9,-13,-17,13
1532220798421,7,-1,-2,-3,-2,7,51,-4
1532220798426,-18,-2,-5,-5,-7,-23,23,22
1532220798431,-5,-2,-6,-3,0,2,-18,23
1532220798436,11,5,9,7,13,9,0,-36
1532220798441,-3,-4,-1,-6,-11,-27,-31,15
1532220798446,-1,1,3,4,5,-6,66,-11
1532220798451,3,1,0,2,1,28,34,-3
1532220798456,-17,-1,-1,0,-6,-29,-12,-26
1532220798461,8,-3,0,-1,-3,-12,-39,29
1532220798466,7,2,2,2,1,6,-31,20
1532220798471,-7,-2,-4,-3,-6,-21,-39,-49
1532220798476,9,1,7,1,3,18,72,33
1532220798481,14,1,0,2,4,26,68,28
1532220798486,-14,1,-1,0,-3,-12,-12,3
1532220798491,1,-3,2,0,2,29,-14,-47
1532220798496,-1,1,-4,-3,-6,19,-28,-17
1532220798501,-10,1,0,3,5,12,-13,-24
1532220798506,0,-2,0,-2,0,5,-23,-21
1532220798511,4,-2,-5,0,-2,-8,31,15
1532220798516,4,0,0,0,1,-29,20,15
1532220798521,-14,-4,1,-2,-1,-5,-75,-29
1532220798526,7,4,1,0,1,26,-10,1
1532220798531,-5,-3,-2,-2,-3,-10,-60,-7
1532220798536,-9,-2,-2,-1,-1,20,0,4
1532220798541,5,0,2,1,-2,-7,6,5
1532220798546,12,-7,0,-1,-2,-26,-55,46
1532220798551,-6,-3,-1,1,-2,-6,-16,-69
1532220798556,-3,3,-3,0,2,11,23,1
1532220798561,-1,-3,2,3,10,60,12,17
1532220798566,-17,-3,-2,-6,-13,-66,-38,-62
1532220798571,6,1,-5,2,-1,-20,18,25
1532220798576,-1,-2,-2,-1,-2,19,4,0
1532220798581,-6,0,-2,-2,-4,-10,3,-12
1532220798586,2,2,3,3,6,20,42,31
1532220798591,-8,0,0,-3,-4,-10,-4,-14
1532220798596,-9,2,0,1,-4,-24,-12,-25
1532220798601,-5,0,-2,-2,-3,10,60,-3
1532220798606,13,-1,-2,0,2,-2,-23,4
1532220798611,-10,-1,-1,-2,2,26,6,-11
1532220798616,17,-2,-1,-3,-3,0,16,33
1532220798621,-7,3,1,0,4,-7,-50,-15
1532220798626,-14,-5,-2,-4,-6,-43,-2,-17
1532220798631,25,1,1,0,4,-10,-11,65
1532220798636,-10,-1,-3,-2,0,-5,-3,-62
1532220798641,12,0,-4,-1,0,-8,1,30
1532220798646,8,3,5,5,9,78,74,3
1532220798651,11,2,1,-1,1,5,47,50
1532220798656,-18,-4,-4,-2,-4,-11,-38,-34
1532220798661,3,-1,0,0,0,-8,-23,-17
1532220798666,-5,0,-2,2,2,-4,-29,-2
1532220798671,-4,5,1,-4,-2,-5,42,11
1532220798676,4,-1,-2,1,7,32,30,40
1532220798681,6,-4,1,-3,-5,-15,30,-21
1532220798686,-17,2,-3,-4,-8,-38,-21,-15
1532220798691,15,-2,-3,0,-2,1,-29,2
1532220798696,2,0,-1,0,-1,-18,-26,11
1532220798701,-5,-4,-5,-2,-4,14,24,3
1532220798706,10,-1,-2,-1,-3,28,14,72
1532220798711,-11,-3,-2,-3,-2,-1,14,-57
1532220798716,12,-1,-2,-4,-8,-35,-59,39
1532220798721,-12,0,1,2,4,12,-13,-16
1532220798726,-7,-2,-2,-1,1,25,50,9
1532220798731,-13,1,-1,1,-4,-6,-32,-21
1532220798736,5,-1,1,0,1,18,64,16
1532220798741,-3,3,-1,0,1,-3,-17,22
1532220798746,5,1,-3,-1,1,32,19,-27
1532220798751,2,-4,2,-2,-4,-18,22,25
1532220798756,0,-2,4,2,4,-6,-13,-20
1532220798761,9,-1,-4,-2,-5,-20,-43,14
1532220798766,-13,1,0,-2,0,11,-69,-29
1532220798771,7,0,0,1,4,30,62,2
1532220798776,1,1,0,2,2,1,-10,7
1532220798781,0,1,2,2,-1,-3,36,29
1532220798786,17,-3,1,1,4,3,-43,9
1532220798791,-23,-1,1,-1,-4,2,37,8
1532220798796,-2,-2,-2,0,3,18,-2,-18
1532220798801,7,3,-3,-4,2,-3,22,7
1532220798806,6,1,0,0,-1,28,55,56
1532220798811,-10,0,2,3,3,-14,-78,-18
1532220798816,-6,0,-4,-2,-7,-11,30,14
1532220798821,-5,-1,2,0,0,-1,-34,-21
1532220798826,4,-3,-6,-5,-9,-17,-28,-3
1532220798831,-1,0,0,1,6,20,-35,1
1532220798836,2,0,-1,-4,-4,-25,-33,-16
1532220798841,0,1,1,1,1,16,-5,-7
1532220798846,-12,-1,2,2,4,16,70,-18
1532220798851,3,-1,0,0,1,-7,-21,49
1532220798856,0,6,-1,2,5,17,5,-53
1532220798861,-4,-4,-2,-4,-6,5,20,9
1532220798866,0,3,0,1,-1,-5,20,1
1532220798871,6,0,0,-1,0,26,34,-14
1532220798876,1,-1,5,2,2,-14,-27,26
1532220798881,-3,-3,-4,-2,1,-2,66,8
1532220798886,-5,-4,-7,-8,-11,-25,-64,2
1532220798891,-2,-1,-2,-1,-1,-4,34,-21
1532220798896,5,1,2,1,6,9,40,45
1532220798901,-6,-2,1,0,-1,9,67,-6
1532220798906,-4,-2,-3,-4,-7,-1,1,-47
1532220798911,10,2,-5,-2,-1,-7,-13,24
1532220798916,-3,-4,-1,0,-2,2,35,-1
1532220798921,0,1,1,0,-3,-26,-49,-30
1532220798926,2,0,-2,-1,2,11,72,32
1532220798931,-12,-3,-4,-1,-5,-21,-24,-60
1532220798936,5,3,3,1,3,41,44,6
1532220798941,5,-1,-1,-1,-1,-43,38,31
1532220798946,-16,-2,-2,-4,-7,-3,-77,-52
1532220798951,9,-3,-3,0,-1,-6,18,18
1532220798956,-2,-3,-5,-5,-6,-3,13,-7
1532220798961,9,2,-4,-2,-3,-12,0,29
1532220798966,-5,3,4,6,11,12,-15,1
1532220798971,5,1,0,-1,-4,-14,24,-3
1532220798976,-17,-4,1,0,1,7,11,-26
1532220798981,5,-2,1,0,1,8,-4,12
1532220798986,3,-1,-4,-1,-3,-24,13,28
1532220798991,-3,0,4,0,4,13,-55,-5
1532220798996,-5,3,-4,-2,-6,-29,-34,20
1532220799001,0,0,-1,1,0,-6,40,-24
1532220799006,9,0,2,2,1,4,-9,-3
1532220799011,-4,-1,-1,0,5,28,10,20
1532220799016,5,-3,-2,-5,-3,29,85,29
1532220799021,-12,-2,-2,-2,-6,-28,-67,-26
1532220799026,3,0,-5,-2,0,-16,7,24
1532220799031,3,-2,0,0,0,4,-43,-22
1532220799036,-15,-1,-1,-1,0,12,-44,-54
1532220799041,3,-1,-1,-3,-3,-1,-66,3
1532220799046,-8,-4,-3,-4,-8,-10,7,-17
1532220799051,0,-6,-3,-3,-3,-13,-11,-24
1532220799056,6,6,-5,-4,-4,7,11,34
1532220799061,-3,3,0,1,2,1,-31,2
1532220799066,1,-3,1,0,6,47,20,-18
1532220799071,0,0,-1,0,-5,-39,-13,5
1532220799076,1,-5,-1,-2,-4,-28,-57,5
1532220799081,-2,-3,1,-1,-2,-8,-9,-3
1532220799086,-3,-2,0,-2,-2,-6,-39,-40
1532220799091,-4,1,-6,-1,-1,23,51,23
1532220799096,2,-1,-2,-2,-1,-6,10,-11
1532220799101,0,0,-1,-1,-7,-20,-15,22
1532220799106,1,-3,2,3,1,-14,-1,1
1532220799111,5,0,0,-1,0,7,17,21
1532220799116,2,0,1,1,1,-11,-12,1
1532220799121,3,0,-1,0,3,18,-21,15
1532220799126,-7,-2,0,-2,-4,-27,-57,-13
1532220799131,-3,2,-2,-3,-9,-26,-25,1
1532220799136,4,0,4,5,13,74,58,17
1532220799141,-7,1,1,0,-1,-5,-29,-68
1532220799146,12,1,0,0,2,-14,0,7
1532220799151,-7,0,0,-2,-3,-3,11,12
1532220799156,0,-5,3,0,5,39,43,-25
1532220799161,0,-2,-2,-2,-3,-21,0,11
1532220799166,-3,1,-1,-1,-2,7,3,-1
1532220799171,6,1,-3,0,-2,1,10,36
1532220799176,-13,-1,-1,2,1,-19,-54,-35
1532220799181,6,1,1,4,8,26,49,25
1532220799186,0,-4,-2,-5,-10,-62,-81,-15
1532220799191,-14,-1,-4,-5,-5,3,7,-37
1532220799196,8,-3,3,1,1,26,-32,44
1532220799201,7,1,1,-2,-5,-25,-74,9
1532220799206,-1,-2,-3,1,-4,-11,5,-11
1532220799211,11,-1,3,5,13,35,-37,-12
1532220799216,-8,-2,-3,-3,-9,-1,5,-12
1532220799221,-8,-3,-3,-1,-1,-20,-19,-27
1532220799226,12,-1,-1,-3,0,1,50,46
1532220799231,-13,-1,0,-1,-4,-5,32,-43
1532220799236,8,3,0,1,2,-3,21,47
1532220799241,8,1,0,0,3,10,-3,-39
1532220799246,-13,1,2,1,-1,-19,-6,3
1532220799251,1,1,2,0,4,9,47,3
1532220799256,-7,-1,3,-1,0,-15,-5,-58
1532220799261,-2,-2,-3,-5,-10,-34,21,17
1532220799266,5,5,2,3,6,7,-9,-6
1532220799271,11,-1,2,1,4,25,85,80
1532220799276,-10,-2,-7,-6,-14,-32,-41,-52
1532220799281,-4,-1,-1,2,0,23,12,-17
1532220799286,1,-1,-2,0,-1,-3,-31,2
1532220799291,-8,-1,2,-2,-1,5,8,51
1532220799296,8,2,0,0,0,7,-63,10
1532220799301,-10,0,2,-1,3,8,-29,-64
1532220799306,6,2,-2,0,3,14,28,8
1532220799311,2,1,-2,3,4,-2,6,24
1532220799316,-10,-4,-3,-2,0,1,27,-43
1532220799321,0,-4,-1,-3,-5,-23,-10,36
1532220799326,7,0,-2,0,2,-7,-40,-61
1532220799331,-15,-1,-2,-4,-8,-3,-62,-24
1532220799336,4,-3,-5,-3,-1,-1,47,-8
1532220799341,-13,-6,0,0,3,18,-16,7
1532220799346,6,8,3,3,4,0,37,24
1532220799351,4,-2,0,-2,-3,-2,-5,-4
1532220799356,-6,-6,-2,0,2,-11,9,29
1532220799361,-8,5,-5,-5,-2,12,53,-12
1532220799366,-3,-6,-3,-5,-9,-2,11,27
1532220799371,-6,-5,-3,-1,-4,-12,-34,-68
1532220799376,3,3,1,2,4,14,46,52
1532220799381,2,1,0,-2,-5,-21,-37,-10
1532220799386,-9,-1,-2,-2,-3,4,18,-28
1532220799391,14,1,-3,0,0,-5,-3,7
1532220799396,-9,-6,1,0,0,9,48,0
1532220799401,-5,-3,3,1,-1,1,-25,-35
1532220799406,1,4,0,-1,-4,-8,-21,9
1532220799411,-6,-2,-5,-3,-2,2,6,15
1532220799416,10,2,-3,0,2,10,-10,-4
1532220799421,-1,-4,0,1,2,-6,5,58
1532220799426,6,0,-1,-3,-4,-22,-3,-8
1532220799431,-13,0,-1,-1,-3,13,29,-30
1532220799436,10,2,-1,0,1,12,14,-45
1532220799441,-15,-2,-4,2,1,-10,3,56
1532220799446,-4,-14,-2,-1,0,-1,10,9
1532220799451,12,-3,3,3,7,4,8,69
1532220799456,-2,1,2,-1,-1,6,-6,5
1532220799461,11,2,3,0,-3,-18,-16,-22
1532220799466,-4,1,2,1,3,15,25,11
1532220799471,9,1,-1,-3,-3,-12,-35,16
1532220799476,-9,3,-1,-2,-4,-24,-6,85
1532220799481,2,0,-5,-3,0,5,-38,-20
1532220799486,-8,-2,-8,-4,-4,-8,-25,9
1532220799491,0,3,-1,2,2,-9,6,-21
1532220799496,5,-3,-5,-3,1,-8,-21,20
1532220799501,0,1,0,1,-1,13,21,-78
1532220799506,1,0,-2,-1,0,6,-5,-1
1532220799511,-1,-1,-1,-1,-2,-10,-45,-38
1532220799516,1,4,4,1,0,7,30,14
1532220799521,-10,-4,0,-1,-1,-4,-26,-60
1532220799526,-4,2,1,1,0,-12,-3,-19
1532220799531,-11,-1,-1,-2,-4,3,-42,-36
1532220799536,10,1,3,-1,-2,-1,32,87
1532220799541,4,3,3,2,3,-1,-21,49
1532220799546,9,-3,-1,-2,-2,-4,1,48
1532220799551,-16,-4,-4,-4,-4,3,3,9
1532220799556,-5,-1,2,2,0,-13,-29,-60
1532220799561,-1,-3,-2,-3,-2,1,8,-36
1532220799566,-4,0,-2,-3,-2,7,13,25
1532220799571,10,2,2,3,3,-3,22,20
1532220799576,-9,0,0,2,5,4,7,-32
1532220799581,2,1,0,1,-1,-19,4,67
1532220799586,-3,-2,-1,-3,-6,-18,-23,-76
1532220799591,1,1,0,1,3,14,45,8
1532220799596,-2,-2,-6,-3,-4,3,-28,-13
1532220799601,5,3,4,3,7,13,62,-5
1532220799606,-2,-2,-2,-2,1,-7,-34,23
1532220799611,-3,0,-2,-4,-5,0,15,-5
1532220799616,-5,2,-4,-3,-1,-17,-38,-14
1532220799621,0,-1,-1,-1,3,22,18,-2
1532220799626,6,0,0,2,0,-13,51,8
1532220799631,-7,-4,-6,-7,-10,-5,-9,-33
1532220799636,-3,-3,-3,-1,-2,-4,2,-29
1532220799641,11,-4,-4,-2,0,14,18,55
1532220799646,-2,-1,2,-1,-2,-6,-1,-16
1532220799651,12,1,2,2,1,5,48,75
1532220799656,0,3,6,7,9,35,37,41
1532220799661,-1,-7,-7,-10,-18,-34,-42,-14
1532220799666,-12,-1,-3,1,3,11,3,58
1532220799671,4,2,4,3,5,-16,-34,11
1532220799676,-8,-2,-8,-6,-8,-3,-66,-90
1532220799681,3,3,0,1,4,21,49,-8
1532220799686,3,3,-2,-1,-3,-7,16,45
1532220799691,1,-1,-1,1,-1,15,77,27
1532220799696,-22,-7,-10,-11,-15,-55,-34,15
1532220799701,-11,7,-3,0,-6,-4,-43,-60
1532220799706,0,0,-5,-5,-4,10,33,2
1532220799711,0,4,-1,1,3,5,6,-15
1532220799716,8,-3,5,3,8,13,3,-15
1532220799721,-2,-4,2,-2,-4,-16,-34,28
1532220799726,-7,-4,-1,-2,-2,-13,-3,-16
1532220799731,0,-6,-3,-1,0,1,-37,10
1532220799736,-1,0,4,0,1,13,19,-21
1532220799741,10,-2,2,-2,-2,-5,1,30
1532220799746,-2,0,2,5,5,26,22,-37
1532220799751,3,-1,1,1,0,-24,-3,-55
1532220799756,-1,-6,-12,-3,3,14,11,19
1532220799761,1,4,8,2,5,10,-6,63
1532220799766,-6,4,-7,-3,-5,-17,-76,-63
1532220799771,-2,9,4,0,-3,2,-21,-2
1532220799776,9,10,5,4,2,1,31,30
1532220799781,-2,-1,-2,2,3,15,8,-46
1532220799786,11,-5,1,1,4,13,13,15
1532220799791,-9,-9,-6,-6,-14,-51,-29,42
1532220799796,-10,9,0,3,2,7,-60,-15
1532220799801,-6,2,-8,-3,-3,-45,-59,20
1532220799806,2,6,1,-1,-5,0,8,7
1532220799811,9,-5,-5,-7,-7,6,-25,17
1532220799816,12,-2,1,2,4,16,89,47
1532220799821,-6,-8,-2,-2,1,5,18,39
1532220799826,-2,1,-4,-1,-2,-17,-18,4
1532220799831,-3,10,3,-1,4,13,-6,-32
1532220799836,1,19,4,-2,-6,-5,-12,3
1532220799841,-3,17,0,-5,-4,8,21,-24
1532220799846,1,10,4,0,-2,-1,-3,12
1532220799851,11,-3,2,3,2,11,-2,9
1532220799856,-20,-8,3,0,-3,-4,4,-28
1532220799861,-4,-12,-1,0,-3,-6,16,-18
1532220799866,0,-7,1,2,-2,-1,6,0
1532220799871,-8,-3,-3,2,1,14,3,-18
1532220799876,2,-16,-6,-6,-10,-23,-23,-5
1532220799881,5,-11,1,0,4,30,30,-28
1532220799886,-21,-11,0,-1,2,-3,-34,-52
1532220799891,-5,-9,-7,-6,-2,-18,-28,-8
1532220799896,11,-4,0,0,12,3,7,19
1532220799901,-5,-4,-1,1,10,0,24,38
1532220799906,4,-8,-3,-4,3,3,-11,-16
1532220799911,1,1,1,3,13,7,34,2
1532220799916,-3,-2,0,0,4,-14,-16,-9
1532220799921,4,-6,-3,-3,8,16,22,3
1532220799926,13,6,-2,0,-1,-13,-3,19
1532220799931,0,1,-2,0,-2,-1,39,47
1532220799936,3,-1,2,1,-2,12,55,-8
1532220799941,0,2,0,0,-3,-2,-21,-18
1532220799946,5,-1,3,5,10,17,10,4
1532220799951,4,-4,-5,-5,-1,9,20,5
1532220799956,11,3,-1,1,3,3,22,33
1532220799961,-10,5,2,0,-3,-11,-13,-26
1532220799966,1,0,2,-3,-3,10,6,10
1532220799971,-1,1,7,3,10,0,-16,-21
1532220799976,1,2,7,1,15,6,-18,-6
1532220799981,-7,-11,-10,-2,13,9,-5,-15
1532220799986,-10,14,4,1,6,-25,5,-20
1532220799991,-6,3,-8,-7,8,1,1,7
1532220799996,7,-4,4,-2,14,-11,-26,13
1532220800001,-4,1,5,1,16,-9,-9,-28
1532220800006,8,4,10,2,6,4,-17,21
1532220800011,-22,-17,-19,-1,-11,5,-19,-9
1532220800016,-6,-5,-5,-4,-31,-6,27,-17
1532220800021,-6,1,-1,-1,-31,2,1,2
1532220800026,0,-3,-5,0,-20,8,3,-6
1532220800031,9,19,18,7,-14,-12,-19,15
1532220800036,-28,-12,-21,-8,-13,-3,-19,-9
1532220800041,7,-1,-2,-3,-16,-6,-3,4
1532220800046,-13,-6,-4,-3,-12,1,6,5
1532220800051,13,8,6,3,-9,1,-7,-15
1532220800056,0,5,-2,0,-15,-12,-2,21
1532220800061,-1,7,1,3,-3,12,12,-4
1532220800066,4,-2,-4,-5,-1,22,2,-19
1532220800071,-7,-9,-4,-5,-9,-24,-7,7
1532220800076,11,10,10,5,-1,-7,-13,-11
1532220800081,-7,2,-4,-5,-1,-11,3,-22
1532220800086,6,-6,-4,-4,-4,16,-7,61
1532220800091,-14,-4,-7,-3,7,8,16,-44
1532220800096,14,2,1,2,-1,-5,1,36
1532220800101,5,0,0,6,2,-2,-6,1
1532220800106,0,-10,-4,0,4,-5,-17,-32
1532220800111,-7,9,12,4,0,8,4,11
1532220800116,28,14,12,2,-9,-7,2,-3
1532220800121,-35,-6,-7,-2,2,1,-15,-12
1532220800126,-19,-21,-15,-3,4,-10,2,-2
1532220800131,12,1,-8,-3,4,5,-9,-11
1532220800136,18,26,7,0,1,12,-8,-14
1532220800141,6,6,4,2,2,12,18,20
1532220800146,2,3,9,1,-9,-9,13,26
1532220800151,-3,-8,0,0,4,-3,15,78
1532220800156,-42,-34,-27,-10,2,-8,-22,-12
1532220800161,32,14,5,-1,-6,-5,2,12
1532220800166,-23,-17,-18,-5,1,-2,-2,-2
1532220800171,12,1,1,-2,-10,-9,-15,4
1532220800176,-25,-42,-31,-15,3,-4,-3,-2
1532220800181,7,1,-2,-2,-1,-5,-4,0
1532220800186,9,12,7,2,3,3,42,-41
1532220800191,-31,-26,-17,-7,3,-19,-53,39
1532220800196,-16,11,-3,0,-2,3,-7,-38
1532220800201,6,9,3,2,0,-1,18,8
1532220800206,-30,-25,-23,-10,1,-7,-12,15
1532220800211,-8,4,-7,-6,-2,11,14,-91
1532220800216,28,19,15,6,1,7,-4,-7
1532220800221,-8,-9,-11,-5,-6,-22,-11,23
1532220800226,19,23,17,6,-2,-4,-18,8
1532220800231,13,2,6,3,2,11,21,-2
1532220800236,-26,-10,-6,1,8,-10,-14,3
1532220800241,6,-6,-1,-2,-3,5,12,-13
1532220800246,9,13,5,2,-4,-2,-1,10
1532220800251,13,14,10,5,0,7,-5,2
1532220800256,38,7,7,3,1,0,16,28
1532220800261,-8,-9,-12,-9,-3,-3,-16,-9
1532220800266,25,-9,1,2,6,3,8,53
1532220800271,-39,1,4,-2,-6,-8,-19,-72
1532220800276,24,27,10,5,-2,11,1,5
1532220800281,-12,-4,-10,-1,5,8,-2,3
1532220800286,8,7,1,-2,-4,-22,11,12
1532220800291,19,-2,0,-2,-4,9,-30,-51
1532220800296,-20,-13,-7,-6,-1,-4,6,-15
1532220800301,4,3,6,4,3,10,13,-6
1532220800306,-9,7,-6,2,5,-11,-5,4
1532220800311,5,-2,-4,0,3,-4,19,37
1532220800316,-17,-7,-4,-2,-3,10,10,-2
1532220800321,7,4,-3,-5,-9,-3,1,-15
1532220800326,4,11,20,8,2,12,-1,-16
1532220800331,-5,20,-12,-2,-1,-6,-12,22
1532220800336,0,-5,-2,1,7,15,24,3
1532220800341,22,7,8,3,0,-13,-13,20
1532220800346,7,2,-2,1,-7,0,13,4
1532220800351,15,-15,-5,-2,-1,-12,-21,-11
1532220800356,11,-6,5,1,2,19,30,47
1532220800361,1,-13,0,-5,-7,-17,7,-15
1532220800366,-15,13,-7,-4,0,6,11,19
1532220800371,2,-9,5,0,0,-1,14,-6
1532220800376,-8,11,2,-2,-7,-25,-26,-19
1532220800381,-5,8,6,5,10,13,0,23
1532220800386,22,2,1,-1,-4,-3,7,-15
1532220800391,-73,2,-29,-5,22,10,-15,-22
1532220800396,23,4,4,2,1,11,36,66
1532220800401,-25,2,2,-2,-5,-15,-39,-94
1532220800406,6,10,-3,-3,-3,13,24,14
1532220800411,21,-5,11,3,-12,-17,-10,13
1532220800416,12,-12,2,-5,-7,-1,15,3
1532220800421,-28,16,-9,-1,1,-4,-42,-7
1532220800426,-14,-13,2,-5,-15,-8,3,-18
1532220800431,2,17,7,12,21,26,32,-7
1532220800436,-7,-2,-4,-2,-4,-13,-22,-4
1532220800441,22,4,8,2,0,3,-18,-3
1532220800446,-6,4,-3,-1,0,-7,-16,21
1532220800451,5,-11,-3,-5,-6,7,17,19
1532220800456,-1,13,-1,0,3,-9,-6,39
1532220800461,-5,-14,-6,-3,-2,2,37,4
1532220800466,5,-5,7,4,3,-5,-42,-16
1532220800471,13,0,3,-1,-3,-5,0,-24
1532220800476,-12,-3,-6,-4,-4,-3,-19,-9
1532220800481,18,-4,1,-4,-17,-12,21,29
1532220800486,12,-9,-2,0,-2,-6,-5,-14
1532220800491,8,4,1,-2,-5,11,12,13
1532220800496,30,-6,19,5,-3,-5,1,-19
1532220800501,-4,20,-1,2,8,12,10,24
1532220800506,-13,5,-2,1,11,8,2,-38
1532220800511,-11,12,3,0,-1,-4,-4,1
1532220800516,-17,-20,-9,-6,-4,0,-17,-34
1532220800521,15,-2,6,3,1,15,0,10
1532220800526,-24,15,-14,-4,7,6,5,9
1532220800531,-9,5,1,-3,-11,-37,-23,49
1532220800536,-11,21,-1,2,2,3,28,34
1532220800541,6,-4,3,3,5,-5,-36,-44
1532220800546,-5,-1,-3,-4,-9,-2,-8,6
1532220800551,14,-17,6,-1,-1,17,31,32
1532220800556,-27,36,-1,5,6,-12,-3,-65
1532220800561,0,4,-3,-4,-3,-6,-1,-4
1532220800566,1,2,-5,0,7,-6,1,13
1532220800571,2,7,4,-1,-3,13,15,-14
1532220800576,-26,1,-11,-6,-1,-2,-25,-32
1532220800581,-9,3,-4,-5,-1,-6,11,0
1532220800586,7,-2,5,2,4,17,-3,22
1532220800591,-4,28,-10,-5,-6,-17,-18,-52
1532220800596,18,23,4,3,-1,8,26,15
1532220800601,-8,-5,-2,-2,-5,-20,-31,-12
1532220800606,10,9,1,0,-8,8,6,4
1532220800611,-5,17,-3,0,0,-8,-5,0
1532220800616,10,4,3,1,-2,-3,-70,-70
1532220800621,-11,-4,-6,0,1,4,18,16
1532220800626,7,2,2,0,-1,7,8,15
1532220800631,18,-10,4,3,6,6,-17,-23
1532220800636,-8,-10,3,1,-2,-14,-21,-9
1532220800641,-2,4,4,2,2,11,23,34
1532220800646,-4,-9,-2,-2,-2,-8,-15,-17
1532220800651,17,-17,6,3,-2,5,3,13
1532220800656,-16,17,-4,5,16,9,32,23
1532220800661,-15,41,-6,-4,-4,-2,-26,-9
1532220800666,13,5,7,0,-15,-12,-3,22
1532220800671,5,-10,-1,1,4,-3,6,7
1532220800676,-10,-26,2,-1,0,1,5,-8
1532220800681,1,-21,-2,-2,-2,3,8,-3
1532220800686,-7,4,-1,2,13,16,-9,-17
1532220800691,-16,-7,0,-1,-4,-2,-2,12
1532220800696,5,-14,-6,-3,-2,13,-3,33
1532220800701,32,-8,-2,0,2,-3,3,6
1532220800706,23,-29,6,0,-3,-1,15,-3
1532220800711,9,-34,1,-2,-3,-3,-16,-5
1532220800716,10,-25,6,2,1,-9,-1,24
1532220800721,-36,-12,-9,-1,11,58,59,-7
1532220800726,-20,-23,-5,-3,-6,-31,15,-47
1532220800731,-18,21,-1,0,6,-16,-31,14
1532220800736,-13,-14,-6,-7,-9,8,-2,17
1532220800741,-1,-5,1,-3,-7,-27,-26,-22
1532220800746,-4,-3,-2,-2,-3,2,-4,4
1532220800751,-4,2,0,0,1,22,27,2
1532220800756,15,-30,4,-5,-14,-11,-11,-3
1532220800761,25,3,6,6,5,3,1,34
1532220800766,-15,1,-5,-2,0,0,-20,-19
1532220800771,-4,4,-10,-4,-8,-5,19,7
1532220800776,6,13,1,-1,2,-4,-3,4
1532220800781,1,-6,3,0,0,3,4,-7
1532220800786,7,9,-1,-3,-1,-5,8,0
1532220800791,2,-9,2,-1,-1,-4,-7,11
1532220800796,1,8,-3,0,2,7,15,50
1532220800801,-5,7,-4,-3,-4,-5,1,-33
1532220800806,-6,-2,-3,-1,1,-2,-8,-6
1532220800811,-12,3,1,1,0,-2,-3,-5
1532220800816,4,6,-4,0,-1,0,-1,-13
1532220800821,5,-5,2,2,5,-3,-16,26
1532220800826,-3,14,-2,-1,-3,2,-8,-6
1532220800831,8,6,-3,-1,-3,-1,-2,-2
1532220800836,17,2,9,3,-3,-1,2,-15
1532220800841,-10,-1,3,3,4,-5,-2,7
1532220800846,3,-15,-2,-1,0,-1,-8,-12
1532220800851,-3,22,-3,-4,-1,4,-2,12
1532220800856,1,8,-4,-3,-3,-6,-4,-25
1532220800861,-1,-2,-2,-3,-5,-2,4,5
1532220800866,-5,4,1,0,1,1,0,4
1532220800871,-7,-6,4,1,2,4,2,-13
1532220800876,-10,3,-4,-1,0,-2,-3,-5
1532220800881,-1,9,-3,-3,-4,-4,-3,5
1532220800886,-9,6,-7,-3,-1,2,0,5
1532220800891,6,2,-15,-8,-4,-6,-2,-5
1532220800896,-5,16,13,4,3,2,-4,-13
1532220800901,-6,-6,1,3,0,-3,2,2
1532220800906,-1,8,5,5,0,1,3,2
1532220800911,10,-4,3,3,0,-1,0,-5
1532220800916,0,3,-14,-8,-2,-3,0,-7
1532220800921,7,-1,-5,-9,-3,-9,0,6
1532220800926,-5,9,-14,1,4,3,-4,-4
1532220800931,0,9,7,-8,-1,1,2,-6
1532220800936,0,6,0,-8,10,1,0,-8
1532220800941,4,-3,9,10,19,-1,1,6
1532220800946,-4,0,-6,8,14,-6,8,-3
1532220800951,-2,-7,-11,-9,17,-6,4,0
1532220800956,-5,0,12,3,25,-2,7,0
1532220800961,-9,3,-9,-1,11,-3,8,-3
1532220800966,1,-1,-4,-28,6,-10,-6,4
1532220800971,0,6,47,31,5,9,-6,-6
1532220800976,-2,1,-9,7,-8,1,-1,-3
1532220800981,6,-17,25,0,-29,11,11,7
1532220800986,9,21,6,17,-24,-12,-1,0
1532220800991,-9,11,-42,-24,-19,-13,-11,-3
1532220800996,-9,4,44,-35,-22,-7,-4,-4
1532220801001,-2,1,-55,-28,2,9,3,-4
1532220801006,1,-16,42,19,11,12,3,1
1532220801011,7,-1,17,42,23,-12,0,3
1532220801016,-1,-4,6,12,7,20,-1,-4
1532220801021,22,-2,19,14,-12,1,11,8
1532220801026,-14,7,-11,-21,-17,-9,-6,-10
1532220801031,-4,23,-19,-8,1,5,0,-1
1532220801036,-12,-22,8,0,-9,-7,-1,1
1532220801041,-5,-11,16,-35,-6,-10,2,-1
1532220801046,-7,-30,-22,37,4,4,3,-3
1532220801051,-9,-40,54,-32,12,1,-8,-6
1532220801056,-5,-16,-54,2,5,6,-6,5
1532220801061,-2,-10,67,22,-13,23,2,-1
1532220801066,-10,6,-70,-5,-10,-19,-5,-3
1532220801071,-6,11,6,31,24,-5,-7,1
1532220801076,4,-11,2,-20,-1,-21,3,4
1532220801081,-1,-56,5,-68,-9,22,-5,-6
1532220801086,0,-113,13,7,-23,-2,-1,-4
1532220801091,4,-102,-25,5,0,16,8,3
1532220801096,4,-69,20,-10,1,-20,-5,-1
1532220801101,3,0,-34,29,6,-28,-3,0
1532220801106,7,53,13,-6,-3,6,3,-4
1532220801111,3,50,4,-23,-19,-9,-9,-1
1532220801116,-6,63,4,3,7,3,4,-7
1532220801121,-7,92,-14,23,0,-4,1,2
1532220801126,10,55,9,-16,3,10,-3,5
1532220801131,7,34,-10,12,1,-13,-2,-4
1532220801136,10,35,12,19,6,12,0,0
1532220801141,6,9,-31,-6,7,-2,-3,2
1532220801146,-2,11,11,-15,2,-5,5,0
1532220801151,-2,23,-3,9,-6,10,4,-1
1532220801156,-8,2,-15,-15,-19,18,6,2
1532220801161,-8,8,2,21,34,11,5,0
1532220801166,1,13,4,-2,6,-2,0,2
1532220801171,-9,4,-4,2,-12,-7,-5,2
1532220801176,-3,5,-5,1,-5,9,1,-9
1532220801181,2,-12,-20,-27,-9,-8,-3,-3
1532220801186,-5,-10,-13,13,12,1,-2,-1
1532220801191,2,1,2,5,6,10,-1,2
1532220801196,-1,-5,1,3,8,-9,0,0
1532220801201,2,-15,22,2,-4,-8,-4,2
1532220801206,-7,-4,-2,-13,-4,-3,0,-23
1532220801211,-11,-3,-2,3,-12,-1,2,5
1532220801216,1,-2,-22,-8,2,-5,1,3
1532220801221,1,-8,7,14,1,-2,1,-1
1532220801226,5,-5,-10,-9,4,7,1,4
1532220801231,3,-17,3,4,5,2,2,-6
1532220801236,5,-21,-16,0,0,-2,-2,-3
1532220801241,6,-18,24,2,0,3,0,1
1532220801246,1,-4,-17,-4,-1,-5,-2,6
1532220801251,-4,14,4,-11,-11,-10,-3,-9
1532220801256,0,16,-15,3,5,4,1,3
1532220801261,-7,4,44,12,0,-6,0,-4
1532220801266,1,17,-4,5,2,3,-2,7
1532220801271,-14,10,-12,-4,4,-1,-1,-11
1532220801276,0,10,-5,-8,-2,-3,-1,5
1532220801281,-11,-6,11,3,-8,-13,-8,-5
1532220801286,-6,7,10,3,10,2,4,1
1532220801291,2,7,-9,-5,-4,-3,-2,4
1532220801296,-10,0,12,-2,6,-5,-4,-4
1532220801301,-2,6,-15,14,-1,2,0,0
1532220801306,1,-9,-12,-21,-10,-9,-7,1
1532220801311,8,-3,7,-4,-2,-6,-4,-1
1532220801316,13,10,13,-1,1,0,0,2
1532220801321,8,2,-26,-8,-1,-1,-3,-2
1532220801326,3,8,20,17,3,2,-2,-3
1532220801331,3,-3,-7,-9,0,-3,1,-1
1532220801336,-3,-3,9,-10,-9,2,-2,0
1532220801341,-4,-2,-11,-1,-12,-8,-1,-6
1532220801346,-2,-2,-2,8,3,0,2,2
1532220801351,0,3,2,-2,3,0,2,3
1532220801356,-5,-1,-4,14,4,-3,0,3
1532220801361,-1,-1,-6,-9,1,1,-1,-1
1532220801366,-3,-3,2,0,-8,-6,-1,-7
1532220801371,0,-5,-5,-5,-8,-5,2,1
1532220801376,-8,-4,-9,6,-2,3,3,-4
1532220801381,-2,13,11,-13,-3,3,4,-8
1532220801386,1,8,4,-1,2,0,1,4
1532220801391,-4,16,5,17,9,6,1,-10
1532220801396,-3,4,9,4,0,4,-2,-6
1532220801401,-2,-3,-8,-13,1,-5,-1,6
1532220801406,-4,-5,6,-2,-2,-7,-7,1
1532220801411,3,-2,-9,-1,-3,5,0,0
1532220801416,0,-10,-2,-3,0,-3,-5,1
1532220801421,3,-11,-1,3,2,1,-4,-1
1532220801426,10,-10,-9,-11,-2,-6,-5,2
1532220801431,-10,-10,24,4,-4,-4,-4,-9
1532220801436,3,-3,1,0,-5,2,1,-4
1532220801441,0,-7,-21,-8,11,-1,0,3
1532220801446,-1,-4,2,9,-4,2,1,2
1532220801451,5,-3,3,-15,-6,-2,-1,6
1532220801456,-3,-1,2,4,2,1,1,-2
1532220801461,-2,1,5,-1,2,2,0,-1
1532220801466,-5,-4,2,5,-1,9,0,-2
1532220801471,0,-1,-7,4,-1,-4,-5,0
1532220801476,3,3,0,0,-1,-2,-1,7
1532220801481,2,1,2,0,4,4,4,-1
1532220801486,-7,2,8,-1,-3,-2,-2,-13
1532220801491,2,-2,-4,-6,-3,1,-2,3
1532220801496,1,-4,-29,-12,-3,-1,1,3
1532220801501,6,1,12,5,-3,-2,-2,4
1532220801506,-18,0,6,4,-2,2,-1,-16
1532220801511,2,-5,-7,5,2,-3,-1,-2
1532220801516,-3,0,-3,-3,-1,-1,-1,1
1532220801521,-3,-4,-6,-4,-4,-3,-2,3
1532220801526,-9,-1,-1,-10,-5,0,2,-4
1532220801531,-21,-2,0,6,-1,-1,2,6
1532220801536,-7,1,13,10,5,-1,0,-3
1532220801541,7,2,-21,-1,5,6,1,-2
1532220801546,19,-1,3,6,0,0,3,8
1532220801551,13,2,45,-3,-2,6,2,-8
1532220801556,9,-7,-68,-18,-1,-5,-5,-3
1532220801561,1,-7,-2,-7,-6,-1,-3,-1
1532220801566,8,2,3,2,8,-1,-1,1
1532220801571,3,6,-9,-8,0,-4,-3,3
1532220801576,11,16,11,4,-3,-4,-1,5
1532220801581,6,21,10,4,-7,2,0,-7
1532220801586,6,18,-9,-11,0,1,-4,1
1532220801591,6,18,-8,4,0,-1,-1,-2
1532220801596,-14,6,6,9,3,2,-1,-2
1532220801601,-9,-3,-4,7,5,-2,0,2
1532220801606,6,-3,9,6,1,3,2,7
1532220801611,-11,-11,-12,-5,-2,-6,-2,-8
1532220801616,-11,-11,25,-8,-5,-2,0,-4
1532220801621,-15,-18,-33,-13,-15,-6,-4,1
1532220801626,-8,-11,7,9,20,-3,-2,1
1532220801631,-2,-13,-9,2,-4,5,1,0
1532220801636,1,-12,6,0,0,-6,1,5
1532220801641,-8,-9,11,4,-1,1,-1,-11
1532220801646,0,-9,-9,-12,-13,-4,1,5
1532220801651,1,-8,-11,-1,0,-5,-3,7
1532220801656,-4,-1,12,-6,-2,1,-1,-16
1532220801661,-2,0,6,2,2,-1,1,1
1532220801666,-2,1,-14,-1,-3,0,2,-5
1532220801671,-1,1,3,2,3,1,1,2
1532220801676,-5,1,0,4,0,1,-2,-7
1532220801681,9,-1,13,-2,-4,-1,-2,4
1532220801686,-3,-5,-23,2,-3,-3,-5,9
1532220801691,2,0,-2,1,3,-5,-2,4
1532220801696,-2,0,7,-2,1,-3,-1,-3
1532220801701,2,0,-9,-4,-4,-3,-2,2
1532220801706,2,0,15,2,-1,-1,0,0
1532220801711,1,-2,-3,-4,-6,3,0,0
1532220801716,1,0,6,2,-3,-1,0,2
1532220801721,-3,-4,-9,2,1,-3,0,3
1532220801726,0,1,5,3,3,1,-1,-12
1532220801731,2,0,-2,-4,-1,-5,0,4
1532220801736,-6,-1,-4,-10,-5,2,-3,-7
1532220801741,4,1,0,-2,-4,0,-1,4
1532220801746,7,3,3,13,14,4,1,11
1532220801751,-12,1,5,0,1,-1,1,-7
1532220801756,1,-2,-7,2,1,-1,-2,5
1532220801761,-2,0,-1,-7,-7,0,-3,-5
1532220801766,-1,-3,-4,-8,-9,-2,-2,-1
1532220801771,1,1,8,2,-1,-4,-4,0
1532220801776,-2,1,0,2,-4,0,0,-5
1532220801781,-5,-4,-27,-7,6,1,-1,-7
1532220801786,-1,-1,1,-3,0,0,-1,8
1532220801791,-1,-2,6,-1,-2,-2,0,-1
1532220801796,-1,-1,-5,5,0,-5,-2,-6
1532220801801,3,0,3,-4,3,-2,-2,-1
1532220801806,0,0,-1,13,0,-3,0,-3
1532220801811,1,1,6,0,10,-7,-1,-1
1532220801816,1,0,-1,-1,-4,-2,0,1
1532220801821,-4,-1,8,3,-1,-6,-1,-2
1532220801826,-8,-2,-19,-15,-6,-2,-2,-7
1532220801831,1,2,4,6,-1,3,0,-7
1532220801836,-1,-2,-4,-7,-4,2,0,4
1532220801841,1,4,19,6,3,2,1,-7
1532220801846,2,-3,-11,-1,-4,3,-2,5
1532220801851,6,0,-2,0,-3,2,-1,-5
1532220801856,-11,-1,-9,-12,0,1,2,-5
1532220801861,-4,-1,5,7,0,4,-1,0
1532220801866,5,2,6,0,2,2,1,1
1532220801871,0,-3,-6,0,-8,-5,-2,2
1532220801876,2,-2,3,-2,0,1,-2,-1
1532220801881,-2,-1,-3,2,-2,-5,-2,0
1532220801886,5,1,-1,-6,0,-3,-2,1
1532220801891,0,0,-1,-1,-3,1,1,3
1532220801896,2,0,-1,-3,1,0,-1,3
1532220801901,7,1,2,15,-5,9,4,3
1532220801906,-3,1,2,-2,6,-2,3,0
1532220801911,-5,-3,-8,1,-1,-2,-3,-3
1532220801916,2,-1,1,-4,-5,-7,-3,1
1532220801921,-1,-1,-3,-2,4,2,1,-3
1532220801926,1,-1,7,5,-2,0,1,4
1532220801931,-1,-5,-11,-1,0,1,-1,1
1532220801936,-4,-1,-2,-1,-3,-2,1,-4
1532220801941,-2,-2,-1,-2,0,-5,-3,-2
1532220801946,-1,-1,-6,-7,-3,5,0,2
1532220801951,-2,0,0,-4,-2,-4,-2,-11
1532220801956,4,1,3,10,4,-1,2,1
1532220801961,-9,-1,-5,-2,4,-5,-2,-3
1532220801966,4,3,4,-3,-1,2,0,0
1532220801971,-1,-1,-4,-3,5,9,2,0
1532220801976,2,0,7,14,2,-2,-1,4
1532220801981,1,0,-1,-7,-3,0,-2,-4
1532220801986,-3,-1,-2,-2,-3,-2,-3,-2
1532220801991,4,-1,0,2,2,-1,1,1
1532220801996,-3,-1,-1,-5,-1,1,-1,0
1532220802001,-1,1,-1,-5,-3,-7,-3,-4
1532220802006,1,1,7,8,1,-2,-1,6
1532220802011,-1,1,-14,2,1,0,-3,-5
1532220802016,-1,-1,-8,-5,-2,1,-3,-6
1532220802021,1,0,3,-3,0,-2,-4,9
1532220802026,3,-1,2,3,-3,-5,-1,2
1532220802031,-3,0,8,1,0,-2,-2,-2
1532220802036,-3,0,-5,0,2,-1,-2,-6
1532220802041,5,2,-9,-3,-3,0,0,1
1532220802046,-3,0,3,-3,-1,1,-2,-2
1532220802051,-1,-1,0,-3,0,0,1,2
1532220802056,9,-3,-2,-1,-2,-1,2,13
1532220802061,-18,-2,4,1,1,2,4,-18
1532220802066,0,-5,-6,-4,-4,-6,-4,-3
1532220802071,-6,1,3,-2,-7,1,2,-25
1532220802076,-2,0,-4,-4,2,2,-2,12
1532220802081,7,0,2,6,0,-1,1,7
1532220802086,-2,-2,-6,-3,-1,0,0,-3
1532220802091,1,2,16,10,2,2,-1,-1
1532220802096,-1,-4,-11,-4,-1,-4,-4,-4
1532220802101,5,3,-1,-3,-2,-3,-2,16
1532220802106,-5,1,-5,2,1,2,0,0
1532220802111,1,1,6,-1,-3,-4,-3,0
1532220802116,-2,0,3,1,-3,0,0,-5
1532220802121,2,1,4,2,1,-3,-4,3
1532220802126,-1,-3,-11,-11,-4,-4,-1,-2
1532220802131,2,0,-3,1,-1,0,-1,6
1532220802136,-3,2,4,2,-3,-1,-1,-6
1532220802141,3,-1,-5,-7,-1,-1,2,-5
1532220802146,-4,0,9,3,1,2,-1,-2
1532220802151,-1,-1,-8,-10,-9,-1,-2,1
1532220802156,-3,1,0,-3,9,0,2,-2
1532220802161,4,1,15,6,-1,0,3,5
1532220802166,-1,-8,-17,-8,-3,3,-3,-4
1532220802171,-2,-2,-3,0,-3,-2,-1,-1
1532220802176,-1,0,5,9,7,7,-1,-1
1532220802181,-1,-2,-3,-6,-5,-5,-4,0
1532220802186,2,2,2,-2,2,4,2,-6
1532220802191,-4,-3,-9,-8,-2,-5,-2,1
1532220802196,8,1,4,-3,-5,-10,-5,-1
1532220802201,0,-3,-8,-4,3,-3,-1,1
1532220802206,2,5,0,-2,-3,2,-1,-1
1532220802211,2,1,3,2,0,3,0,3
1532220802216,-4,1,0,2,1,2,1,-3
1532220802221,1,1,0,5,-3,3,0,0
1532220802226,-2,-2,0,-4,-3,-5,-1,-1
1532220802231,-3,0,3,-6,0,-1,0,0
1532220802236,-1,-1,-10,-8,-3,0,-2,-1
1532220802241,-1,-1,-3,-1,1,3,-1,-4
1532220802246,-1,1,3,4,-1,-2,-2,2
1532220802251,-6,-2,-2,-6,-2,3,-1,-11
1532220802256,0,1,-2,-2,0,2,1,1
1532220802261,1,1,-3,5,0,2,0,11
1532220802266,-2,0,4,-1,-7,0,0,-13
1532220802271,0,-3,-5,2,4,5,-1,0
1532220802276,-2,-2,0,-6,-3,-6,-3,-4
1532220802281,-1,-3,1,-1,-2,0,-1,-1
1532220802286,-3,0,2,6,2,2,-1,1
1532220802291,1,-1,-4,1,-2,5,-1,-3
1532220802296,-1,1,11,2,1,-2,-1,0
1532220802301,-2,-2,-18,-14,2,4,0,-8
1532220802306,2,0,3,10,0,1,2,4
1532220802311,0,-1,0,-4,4,2,-2,-2
1532220802316,2,0,4,8,2,-1,-1,2
1532220802321,-1,-1,2,-3,-6,-3,-3,-4
1532220802326,-7,-2,0,-6,-4,-3,-1,-4
1532220802331,5,-1,-2,-6,-6,-5,-3,6
1532220802336,-13,-3,-7,0,-2,4,-1,-12
1532220802341,0,-1,-5,-2,0,3,0,3
1532220802346,1,3,3,3,0,-4,-4,-5
1532220802351,1,-1,0,3,0,-4,-1,-1
1532220802356,5,1,0,4,4,2,1,3
1532220802361,-1,2,0,3,1,1,1,-5
1532220802366,-3,-3,2,-3,1,-3,-2,6
1532220802371,-1,1,-1,-1,-6,-8,-2,-5
1532220802376,0,-2,-2,-8,1,2,2,-1
1532220802381,2,2,0,10,7,4,2,-1
1532220802386,2,0,1,-1,1,-2,-2,6
1532220802391,-2,-3,-1,0,0,3,-1,-3
1532220802396,0,-3,-8,-4,-6,-3,0,3
1532220802401,-1,0,5,-10,-7,1,-1,-4
1532220802406,-2,-4,-9,-6,-5,-2,-2,-3
1532220802411,0,-1,3,0,-5,3,0,3
1532220802416,3,2,13,15,8,2,4,3
1532220802421,-1,0,1,18,3,-5,-1,-2
1532220802426,-6,-3,-1,-9,-4,-2,-2,-13
1532220802431,6,-1,-6,-8,-8,-4,1,4
1532220802436,-10,-4,-5,-4,4,-2,-2,-7
1532220802441,-1,-4,0,-10,-2,1,-1,1
1532220802446,1,2,0,2,5,-4,-3,1
1532220802451,1,2,2,9,5,5,2,-1
1532220802456,5,3,-4,3,-4,0,-3,1
1532220802461,-6,-2,-2,-13,-9,-1,-1,-2
1532220802466,1,2,5,12,3,2,2,3
1532220802471,0,1,1,9,0,-2,9,2
1532220802476,-2,-2,-8,-7,-5,1,4,-5
1532220802481,3,0,-1,0,-2,-7,2,2
1532220802486,-3,-3,-1,-14,-5,-1,6,-10
1532220802491,-4,-1,-5,-6,-2,-5,-3,-3
1532220802496,-2,1,2,-3,-2,-4,3,-7
1532220802501,1,-2,-1,5,-2,-2,11,4
1532220802506,2,1,-2,0,-1,-2,6,5
1532220802511,-5,-4,-10,-3,-1,-1,1,-8
1532220802516,2,-1,-2,-6,-4,1,0,1
1532220802521,-1,-1,3,2,3,1,-17,-5
1532220802526,-8,-1,-1,0,0,2,-10,1
1532220802531,-2,-1,1,-3,0,-3,-6,-1
1532220802536,-2,1,0,-5,-3,3,3,2
1532220802541,1,0,0,5,4,0,1,-3
1532220802546,2,-1,-3,3,0,-5,-4,2
1532220802551,-6,-1,1,-5,-7,-3,-2,-6
1532220802556,0,1,2,8,3,-4,0,4
1532220802561,-4,0,-3,1,-1,-2,0,-1
1532220802566,2,-2,-1,-1,0,-7,-2,1
1532220802571,1,1,5,-5,-1,-1,2,4
1532220802576,-2,-4,-14,2,0,-2,-4,-6
1532220802581,0,0,-2,-5,-6,-2,-2,-1
1532220802586,1,-1,0,-1,2,3,5,2
1532220802591,-1,-3,-6,-3,-3,-1,-1,-1
1532220802596,0,0,8,2,-3,0,-3,5
1532220802601,-3,-2,-1,-6,-2,-8,-2,-7
1532220802606,1,-1,-2,-2,2,-2,-3,4
1532220802611,0,0,2,6,4,4,-1,-1
1532220802616,-1,1,2,4,1,-1,-1,1
1532220802621,0,3,-3,1,-1,-1,-1,-1
1532220802626,-3,3,-3,-3,-3,1,-3,-3
1532220802631,5,2,1,-5,-6,-2,-1,-1
1532220802636,-11,-4,-2,-4,1,0,0,-5
1532220802641,-1,1,3,11,5,2,1,5
1532220802646,-1,-1,0,5,4,1,-2,-8
1532220802651,0,0,-5,-4,-5,-1,-2,-3
1532220802656,2,-2,4,1,-3,-3,0,3
1532220802661,-2,-5,1,-7,0,-1,0,-4
1532220802666,-3,-3,0,3,3,3,1,0
1532220802671,0,2,3,7,2,-2,0,1
1532220802676,1,1,10,1,-2,-2,1,-3
1532220802681,-3,-1,-10,-9,-6,-2,-2,-6
1532220802686,2,0,-2,-7,-3,1,-2,3
1532220802691,-2,1,-4,1,-1,-1,2,-4
1532220802696,9,-1,0,-1,-4,5,2,16
1532220802701,-14,-3,-1,-4,4,0,-3,-7
1532220802706,1,-3,-3,-7,-9,-4,-2,-5
1532220802711,-2,0,1,-10,-1,-3,1,-6
1532220802716,-1,2,4,22,12,10,3,-5
1532220802721,3,1,2,9,2,-1,-1,7
1532220802726,-4,0,-3,-5,-2,-2,1,-3
1532220802731,-3,-4,-9,-8,-10,-5,-2,6
1532220802736,-2,-1,-2,-27,-7,-8,-5,-6
1532220802741,2,1,2,12,4,6,2,-4
1532220802746,0,0,5,17,8,3,2,6
1532220802751,5,1,0,3,7,1,-1,5
1532220802756,-5,-1,-7,-3,-1,-6,-1,1
1532220802761,-4,0,-4,-11,-11,-6,-1,-4
1532220802766,0,1,-4,-9,-3,0,-4,-3
1532220802771,-1,3,2,-2,-2,-4,0,-5
1532220802776,2,2,-3,3,0,3,-1,4
1532220802781,3,1,2,0,-1,-1,1,0
1532220802786,-1,-4,-2,1,-2,-2,0,0
1532220802791,0,-3,-1,0,1,2,-2,1
1532220802796,-1,-3,-1,-5,-4,-3,-3,-5
1532220802801,2,-1,3,4,3,4,0,1
1532220802806,-2,-2,0,-2,-3,-2,-3,-1
1532220802811,-4,-2,0,2,-1,1,1,-10
1532220802816,-2,-2,-3,-5,-1,1,-2,1
1532220802821,7,-3,-3,-1,-2,-2,2,10
1532220802826,-2,-1,1,-1,2,-1,1,-2
1532220802831,-2,-2,-1,1,-2,-1,-1,-2
1532220802836,-2,-2,-2,3,2,-5,-2,-1
1532220802841,3,-1,-3,-4,-4,-3,-2,-1
1532220802846,3,2,1,2,7,0,0,0
1532220802851,-3,0,3,11,8,8,4,4
1532220802856,-5,0,-3,-7,-3,-1,-3,-13
1532220802861,7,-2,-3,-5,-5,-2,-2,7
1532220802866,-7,1,-2,-4,-3,-1,1,-3
1532220802871,0,-2,-2,-1,-5,-5,-4,-7
1532220802876,0,-2,-3,-10,-5,0,1,7
1532220802881,-6,2,0,1,1,-2,1,-1
1532220802886,5,1,4,9,8,2,-1,-3
1532220802891,6,0,-1,2,1,0,0,4
1532220802896,-5,-2,-2,0,-2,2,-4,-4
1532220802901,0,-2,-1,-7,-4,-3,-5,-6
1532220802906,-2,-1,1,8,-1,-2,-4,1
1532220802911,-1,2,1,0,-1,2,0,6
1532220802916,6,3,-1,2,6,-1,1,-2
1532220802921,-3,-2,-2,-2,-4,-3,-3,-5
1532220802926,-1,0,-3,-4,2,-1,1,-1
1532220802931,0,-2,-3,-8,-3,-1,1,1
1532220802936,-2,-1,-1,3,-2,-1,-2,4
1532220802941,-5,1,1,0,0,-1,1,-5
1532220802946,2,2,3,8,2,1,2,-3
1532220802951,-2,-1,-1,-6,-3,-2,1,-1
1532220802956,3,-3,-6,-5,-5,-2,-1,4
1532220802961,-1,-1,-2,-11,-2,-2,-3,-2
1532220802966,0,-3,0,9,3,-1,-3,-2
1532220802971,-5,-1,-2,-3,-5,-2,-5,-12
1532220802976,-9,-1,1,-7,-2,0,-1,6
1532220802981,9,-2,-3,11,2,0,-3,6
1532220802986,-8,0,0,-1,0,-1,-2,-4
1532220802991,0,7,-1,-1,2,2,-3,2
1532220802996,3,4,-2,-6,-3,1,2,-3
1532220803001,-7,-4,-5,-5,-7,-2,0,-4
1532220803006,2,-4,1,-3,-13,-4,-4,2
1532220803011,2,-3,8,26,15,3,4,-2
1532220803016,-2,-1,5,4,15,5,-1,-1
1532220803021,2,0,0,1,2,-1,-1,6
1532220803026,-7,-5,-6,-10,-4,-5,-2,-4
1532220803031,-2,-6,-13,-15,-18,-6,-2,4
1532220803036,1,-1,3,-27,-14,-4,0,12
1532220803041,-2,2,9,20,20,5,3,-14
1532220803046,-2,1,4,22,15,4,0,-2
1532220803051,-6,0,-3,-19,0,-1,2,-3
1532220803056,-3,-4,-8,-7,-16,-7,-10,8
1532220803061,-9,-3,-8,23,-37,-10,-3,-7
1532220803066,7,1,4,-35,16,1,6,9
1532220803071,3,2,5,20,18,6,0,4
1532220803076,13,-1,-1,9,2,-1,1,-3
1532220803081,-5,0,0,-13,-6,1,-2,0
1532220803086,0,-2,-5,3,-10,-5,-3,-14
1532220803091,7,-4,-5,-9,-13,-4,-1,15
1532220803096,1,0,-1,2,7,-1,3,-5
1532220803101,-1,0,-9,-35,-5,-4,-3,-5
1532220803106,5,0,1,15,-7,0,5,19
1532220803111,-9,3,9,-6,19,6,-2,-26
1532220803116,-2,0,2,16,5,2,-2,-9
1532220803121,0,3,2,7,15,5,4,1
1532220803126,-1,-1,-8,-22,-13,-4,0,-2
1532220803131,-1,-5,-4,-5,-17,-4,-3,0
1532220803136,-1,-3,-3,-6,2,-2,-2,-10
1532220803141,0,-2,-3,1,-5,-2,2,8
1532220803146,-6,-2,-2,-3,-7,-4,-3,-14
1532220803151,5,1,8,31,7,2,2,8
1532220803156,-2,1,2,5,8,3,2,-3
1532220803161,0,-3,1,-5,11,0,-5,2
1532220803166,-2,-1,-4,-4,-9,-1,0,-1
1532220803171,-7,-6,-16,-27,5,-6,-4,-8
1532220803176,2,-2,0,-8,-32,-5,2,6
1532220803181,-3,4,11,20,22,7,2,1
1532220803186,5,2,3,12,14,1,0,4
1532220803191,-9,-1,-1,11,-6,-2,-4,-6
1532220803196,1,-2,-7,-10,-4,-2,1,1
1532220803201,-3,-3,-7,-20,-13,-7,-2,-6
1532220803206,2,-1,2,-6,-4,0,0,0
1532220803211,4,2,4,5,4,1,1,10
1532220803216,-2,1,0,4,5,-3,-2,4
1532220803221,0,1,-1,-10,-3,-1,1,-5
1532220803226,-4,1,-1,7,3,-1,-3,-6
1532220803231,1,-2,-4,-5,-8,-1,-3,2
1532220803236,-3,-1,-1,-1,4,0,-4,-17
1532220803241,2,-1,-2,12,-3,-2,-2,4
1532220803246,-1,0,-2,-1,0,-2,-5,-2
1532220803251,0,-1,1,-8,-5,2,8,5
1532220803256,-1,0,-1,2,2,2,-2,-4
1532220803261,-2,-1,0,-2,0,0,-5,1
1532220803266,-1,-2,-1,1,0,0,-1,0
1532220803271,2,-1,-1,-7,-3,-1,-3,3
1532220803276,-3,-2,-3,7,2,0,4,-2
1532220803281,1,-2,0,-3,-6,-3,-2,-2
1532220803286,-2,0,1,-1,1,2,1,2
1532220803291,1,0,0,5,-1,-1,-1,3
1532220803296,5,0,-2,-2,-1,-1,0,7
1532220803301,-11,0,1,0,2,0,-1,-18
1532220803306,2,-2,-1,1,1,-2,-5,3
1532220803311,0,1,-3,-3,-3,-3,-1,-2
1532220803316,-2,0,-1,-1,-2,-1,-1,0
1532220803321,5,0,0,-4,0,1,0,6
1532220803326,-2,1,-1,2,2,-1,-2,-4
1532220803331,-3,-2,0,-1,-2,1,1,-7
1532220803336,0,0,0,0,1,-2,-2,0
1532220803341,4,-2,0,2,-2,2,0,5
1532220803346,0,1,-2,-3,-1,-1,2,2
1532220803351,0,6,-3,2,-2,0,4,-1
1532220803356,-3,3,0,0,2,1,-2,-3
1532220803361,-2,1,-1,-1,0,0,1,-3
1532220803366,-1,-3,-2,-1,-3,-2,0,5
1532220803371,2,-4,0,-1,0,-1,-3,-2
1532220803376,-5,-3,1,2,0,-1,0,-7
1532220803381,6,-4,0,-3,-2,-3,-3,9
1532220803386,-5,-1,-2,-2,1,2,4,0
1532220803391,-1,-3,-1,0,-3,-2,-3,-1
1532220803396,-2,-2,-1,-2,-2,-2,-2,-2
1532220803401,-1,0,-1,1,-1,-1,-5,-4
1532220803406,2,-2,-1,0,-2,-2,2,7
1532220803411,-2,1,0,0,0,-3,-8,-2
1532220803416,-3,-1,-1,0,-1,1,1,-1
1532220803421,-1,0,-2,-1,-1,-3,0,-1
1532220803426,-1,-2,-1,1,-1,1,-2,-4
1532220803431,-3,0,-1,0,0,1,0,-3
1532220803436,-1,-1,1,1,-3,-2,-3,1
1532220803441,0,-1,-3,0,0,-1,2,5
1532220803446,0,2,0,1,-2,0,-1,-3
1532220803451,-1,0,-1,1,0,0,-2,-7
1532220803456,3,-2,-2,-2,-1,-1,0,2
1532220803461,-1,0,-2,-1,-1,-1,3,4
1532220803466,-4,1,-1,-1,1,0,-4,-5
1532220803471,-5,0,1,-2,0,-1,1,-5
1532220803476,4,-1,-3,-1,-2,0,-1,3
1532220803481,-2,-1,-1,-1,-1,0,-3,-1
1532220803486,2,0,0,1,1,-1,0,0
1532220803491,0,-1,-1,-1,-2,-2,-2,1
1532220803496,-2,0,-1,-1,0,-1,-1,0
1532220803501,-1,0,0,-1,1,-1,-2,-4
1532220803506,2,1,-2,0,-1,-3,-1,-4
1532220803511,-2,-2,-1,-1,-2,-1,5,-5
1532220803516,-2,-1,-2,0,-1,-1,-3,2
1532220803521,3,-3,-1,-1,0,1,0,5
1532220803526,-1,0,0,0,-1,0,4,-3
1532220803531,1,1,-1,-1,-1,-1,-1,3
1532220803536,-2,1,0,-1,0,-2,1,-7
1532220803541,-3,1,0,0,-1,-1,0,-4
1532220803546,0,1,-1,-2,-1,-1,-3,2
1532220803551,1,-1,-1,-1,-2,-2,-1,-2
1532220803556,-1,0,-1,0,0,0,-2,-5
1532220803561,-3,1,-1,0,-2,0,-2,-2
1532220803566,2,-2,-2,-2,-1,0,1,7
1532220803571,1,-2,0,-1,-1,-2,-2,0
1532220803576,0,-3,0,0,0,-1,0,0
1532220803581,-1,-2,-1,-2,0,-1,-1,-3
1532220803586,-1,-3,-3,0,-1,0,-3,-3
1532220803591,-1,0,1,0,1,-1,-1,1
1532220803596,2,-1,0,-1,-1,0,-1,-1
1532220803601,1,-2,0,0,-1,-1,0,-2
1532220803606,-1,0,1,-2,-1,-1,-2,-2
1532220803611,-1,-1,0,-2,-1,-2,-1,0
1532220803616,-3,-2,-1,-1,0,-1,-1,2
1532220803621,-2,-2,0,-1,-2,0,0,-2
1532220803626,0,-1,0,1,-1,-1,-2,-2
1532220803631,-1,-1,1,-1,-2,0,-1,-1
1532220803636,1,0,-2,-1,0,-1,1,-1
1532220803641,-1,0,2,0,1,-1,1,-2
1532220803646,-3,-2,0,-1,-1,-1,-1,0
1532220803651,0,-3,-1,1,-1,-1,-1,-2
1532220803656,-1,-3,-1,-1,-1,-1,0,-1
1532220803661,-1,-2,1,-1,0,-2,-2,-1
1532220803666,0,-1,-1,0,0,1,-1,-4
1532220803671,0,0,-2,-2,-1,-2,-2,1
1532220803676,-1,-1,4,1,0,0,-1,-2
1532220803681,-1,-2,-5,0,-1,-1,-2,-1
1532220803686,-1,2,4,-1,1,-1,0,1
1532220803691,-1,-2,0,0,-1,0,0,0
1532220803696,-2,-3,-14,-2,-2,-2,-2,-1
1532220803701,-2,3,-3,0,0,-1,0,1
1532220803706,-1,-2,-3,0,-1,-2,-1,-4
1532220803711,-1,0,-2,-1,0,1,-1,0
1532220803716,-2,0,2,-1,0,0,-1,0
1532220803721,0,0,-3,-2,0,-1,0,0
1532220803726,-1,3,-2,0,0,-2,-1,0
1532220803731,-1,0,0,-1,-1,1,0,-2
1532220803736,-2,-1,-5,-3,-2,-2,-2,1
1532220803741,0,1,0,0,-1,-2,0,1
1532220803746,2,0,2,-1,0,1,1,0
1532220803751,-4,-4,4,-1,-3,-4,-4,-3
1532220803756,0,1,0,-2,-1,0,0,-2
1532220803761,-2,-2,-5,0,-1,0,-2,-2
1532220803766,-2,0,4,-1,0,0,1,0
1532220803771,1,2,-2,1,-2,0,0,-1
1532220803776,-1,-2,-2,-1,-1,1,-1,-2
1532220803781,-1,6,7,-1,-1,-1,0,-1
1532220803786,3,-1,-3,0,-1,0,1,0
1532220803791,2,-5,-4,-2,0,-1,-1,0
1532220803796,-2,-2,3,0,-1,0,0,1
1532220803801,-1,-4,-1,-1,1,2,-2,-1
1532220803806,-4,-16,-2,0,-3,-1,-1,-3
1532220803811,4,23,-5,-2,0,-1,1,0
1532220803816,-3,-14,1,0,0,0,-1,-1
1532220803821,2,6,0,-3,-2,-1,-2,1
1532220803826,-1,-2,-3,-2,0,-1,-2,0
1532220803831,-3,-5,1,0,-1,0,0,-1
1532220803836,-3,2,-2,-1,-4,-3,-1,-3
1532220803841,-1,-5,0,0,0,0,2,-1
1532220803846,-1,3,-3,-1,-1,-1,-2,-1
1532220803851,-1,-2,-1,-1,0,1,-1,2
1532220803856,1,3,2,0,0,-2,-1,2
1532220803861,-1,-3,-2,-2,-1,-3,-1,-1
1532220803866,-1,-1,0,-1,-1,-2,-2,-3
1532220803871,-1,-8,-1,-2,0,-1,-1,0
1532220803876,1,1,0,-1,0,-1,0,-1
1532220803881,-1,-3,-1,0,-1,0,-2,-3
1532220803886,0,4,-1,-1,-1,-2,-2,-1
1532220803891,0,-2,0,0,0,1,-1,0
1532220803896,-1,-1,-1,0,2,1,0,-1
1532220803901,-1,2,0,-1,0,2,-2,1
1532220803906,-1,1,2,-2,0,0,0,-2
1532220803911,-1,-6,-1,0,0,0,-1,-1
1532220803916,0,5,-2,-3,-1,0,-1,0
1532220803921,-2,-1,1,-1,0,-1,-1,-1
1532220803926,-1,0,-3,0,-1,-1,0,-1
1532220803931,-2,-2,1,-2,-1,-2,1,-2
1532220803936,1,2,1,0,0,-1,-2,-1
1532220803941,-1,-2,-2,-2,-2,0,-2,0
1532220803946,-2,0,-3,1,-1,0,-2,-1
1532220803951,0,1,1,1,0,-1,0,0
1532220803956,0,1,0,1,-1,0,-1,-2
1532220803961,-1,-1,0,0,-2,-1,0,-2
1532220803966,1,0,-1,0,-1,-1,-1,1
1532220803971,-2,-2,-3,2,-1,1,-1,0
1532220803976,-1,0,1,-4,-1,0,-2,1
1532220803981,-2,-3,0,2,1,0,-1,-1
1532220803986,-1,1,0,-2,0,-2,0,0
1532220803991,-1,-2,-1,-1,-2,-2,-2,0
1532220803996,-1,-1,-1,0,-2,-1,0,-2
1532220804001,0,0,-2,-1,-1,-2,-1,0
1532220804006,0,0,0,0,-1,-2,-2,-1
1532220804011,1,0,-1,-1,1,0,0,-2
1532220804016,0,0,0,-1,1,-2,-1,1
1532220804021,0,-1,-1,-2,-1,0,0,-2
1532220804026,-1,0,0,-1,-1,-1,0,0
1532220804031,0,-2,-1,-2,-2,0,0,-1
1532220804036,-1,0,-1,1,-1,-1,-2,-1
1532220804041,0,-1,-1,1,-1,-1,0,-1
1532220804046,-2,0,-3,-1,-1,-1,0,-2
1532220804051,-1,0,-1,-1,-1,-1,1,0
1532220804056,-1,0,0,1,-1,-1,-1,-1
1532220804061,0,-2,-1,-1,-1,1,-1,0
1532220804066,0,2,-2,-1,-1,0,1,-1
1532220804071,-1,1,-1,2,0,-3,-1,0
1532220804076,0,-2,2,-2,-1,0,1,0
1532220804081,-2,-1,-3,1,-3,-2,-3,1
1532220804086,-1,-1,-1,-4,-2,0,-2,0
1532220804091,-1,0,-2,2,2,-2,-3,-1
1532220804096,0,1,-1,6,0,-1,0,0
1532220804101,-2,-1,-2,-10,-3,0,0,0
1532220804106,-1,-1,1,5,0,-2,0,-2
1532220804111,-1,-1,0,-5,1,0,0,-1
1532220804116,-1,-2,0,4,-1,0,-1,1
1532220804121,-2,0,1,0,1,-1,-1,-1
1532220804126,-1,0,-3,-4,-1,-1,-1,1
1532220804131,-4,-5,-9,-10,-4,-2,-2,-2
1532220804136,-1,1,0,-4,-17,-3,1,-1
1532220804141,2,1,6,14,6,1,1,-1
1532220804146,1,3,8,10,15,4,2,2
1532220804151,0,1,3,13,6,1,0,0
1532220804156,-2,-1,-7,-17,1,-2,-1,-1
1532220804161,-3,-5,-12,-30,-12,-4,-4,-3
1532220804166,-2,-2,-6,-14,-20,-5,-2,-2
1532220804171,0,0,4,13,1,-2,1,0
1532220804176,3,3,6,9,23,6,0,1
1532220804181,-2,1,1,6,5,3,0,-1
1532220804186,-2,-4,3,4,3,-1,-4,-1
1532220804191,-3,-4,-10,-19,-15,-2,-3,-3
1532220804196,-1,-1,-1,-1,-10,-5,-2,-4
1532220804201,1,2,-2,-9,3,-2,2,-1
1532220804206,1,0,-1,13,4,2,-1,0
1532220804211,2,0,3,1,-1,1,1,2
1532220804216,-3,-2,-1,7,7,-3,-3,0
1532220804221,-1,-1,-1,-9,-3,1,0,-1
1532220804226,0,-2,-4,-9,-9,-4,-1,-1
1532220804231,0,-2,0,-7,3,-2,-3,1
1532220804236,1,-1,0,2,-3,-1,2,0
1532220804241,-1,0,0,5,1,1,-1,0
1532220804246,-1,0,1,-1,-2,-15,-1,-1
1532220804251,-1,1,-1,-2,4,11,-1,-2
1532220804256,-1,-2,-3,-3,-1,0,-1,-1
1532220804261,-1,-1,0,13,-1,-3,-1,-1
1532220804266,0,-2,-2,-7,-6,-5,-1,-1
1532220804271,-2,1,2,5,8,2,-2,-3
1532220804276,-1,-1,-4,-6,-2,-4,0,1
1532220804281,-1,-1,0,8,-1,3,0,-1
1532220804286,1,1,0,1,1,9,0,1
1532220804291,-2,0,0,-5,-2,-7,3,-1
1532220804296,-3,-2,-4,8,-6,4,-3,0
1532220804301,-2,-4,-2,-8,3,-7,-3,-2
1532220804306,-1,-3,-5,-8,-4,0,-2,-2
1532220804311,5,5,8,5,1,2,2,-1
1532220804316,0,1,5,27,19,3,0,1
1532220804321,-5,-5,-7,-13,-7,-4,-9,-2
1532220804326,-1,-1,0,-9,-13,1,1,-2
1532220804331,1,1,0,-3,6,-1,-3,1
1532220804336,-1,0,0,-2,-4,-1,22,0
1532220804341,-1,-2,-2,8,-1,-8,-25,-2
1532220804346,-2,-2,-5,-6,-2,0,-6,-2
1532220804351,-2,-5,-2,-6,-7,-6,-1,-1
1532220804356,-1,-1,2,2,1,11,31,0
1532220804361,0,2,5,4,-2,-13,-21,1
1532220804366,-2,1,8,2,7,6,12,-2
1532220804371,-6,-5,-16,-10,-7,-7,-11,-3
1532220804376,-2,-3,-2,-12,-13,-8,-6,-4
1532220804381,2,1,-4,8,8,12,20,1
1532220804386,4,5,-7,9,1,-5,-13,1
1532220804391,-5,-12,14,-2,1,-1,6,0
1532220804396,0,2,5,-6,6,-14,-50,-3
1532220804401,-2,-2,1,4,-4,10,14,0
1532220804406,0,-1,-2,-8,0,17,24,1
1532220804411,1,3,-4,1,-5,6,5,-1
1532220804416,2,-2,4,6,8,-26,19,2
1532220804421,0,-1,0,1,-2,2,9,-1
1532220804426,2,0,-2,-1,-1,-11,-16,1
1532220804431,-5,-2,-2,-6,-1,-6,-3,-2
1532220804436,-3,-1,-2,-11,-9,5,-5,-3
1532220804441,1,3,10,11,0,4,1,-2
1532220804446,0,-3,-5,-5,7,-5,-1,0
1532220804451,5,-1,6,4,-2,7,-10,-1
1532220804456,-5,-4,-5,3,3,-9,-15,-1
1532220804461,0,0,-4,-1,-3,7,25,1
1532220804466,3,0,-3,-11,-8,4,0,0
1532220804471,2,0,1,11,1,-4,-2,1
1532220804476,-1,3,6,-1,3,0,-6,-1
1532220804481,0,0,2,7,6,0,7,1
1532220804486,-3,-2,0,-5,-4,-2,4,0
1532220804491,-2,-2,-5,-3,-3,-2,8,-2
1532220804496,-5,-3,-2,6,3,-2,-1,-2
1532220804501,-1,1,0,-4,-8,2,12,0
1532220804506,2,-3,2,-9,-1,-3,-9,-2
1532220804511,1,-2,-2,6,5,-1,-1,-1
1532220804516,-3,-3,-3,-6,-11,1,-1,-2
1532220804521,0,-1,1,-2,2,1,1,-2
1532220804526,1,2,-1,11,9,0,0,0
1532220804531,-2,-3,1,0,1,-2,-8,-2
1532220804536,2,5,1,4,0,0,3,0
1532220804541,-1,-16,-9,-16,-8,-2,-5,-1
1532220804546,-6,1,-1,-6,-13,-5,-4,-3
1532220804551,0,1,5,6,11,6,1,0
1532220804556,5,3,0,14,12,4,-1,3
1532220804561,0,1,-3,-3,-4,-3,6,3
1532220804566,-3,-2,-4,-4,-2,0,-4,-3
1532220804571,-1,-2,-4,-15,-12,-6,-7,-3
1532220804576,-2,-7,-5,-1,2,-1,-1,-1
1532220804581,0,6,0,-15,-3,0,-1,0
1532220804586,3,-3,-4,5,-6,-1,2,1
1532220804591,0,4,5,14,7,-1,-4,1
1532220804596,2,1,1,2,3,1,3,-1
1532220804601,-1,0,-3,0,-1,-1,4,-1
1532220804606,-3,0,-3,-9,0,-2,-4,-1
1532220804611,-3,2,1,-7,-11,-2,-2,-2
1532220804616,1,7,1,0,3,2,-1,0
1532220804621,0,0,-4,3,-1,-1,1,-2
1532220804626,-4,-7,-5,-8,-8,-3,-1,-2
1532220804631,0,0,3,15,11,2,-2,2
1532220804636,-4,-3,-9,-33,-21,-6,-1,-1
1532220804641,-3,4,7,24,16,5,-2,-3
1532220804646,4,2,10,17,13,3,-1,3
1532220804651,-2,6,-2,-2,-1,4,4,1
1532220804656,-2,-5,-3,-2,-5,-7,-2,-2
1532220804661,-2,-25,-15,-20,-6,-5,0,0
1532220804666,-2,-2,1,3,-9,-2,-2,-4
1532220804671,1,-3,5,5,6,-1,-1,0
1532220804676,0,1,0,0,2,0,1,-1
1532220804681,-1,5,0,4,-3,-2,0,0
1532220804686,-3,6,-3,-8,-2,-3,-3,-2
1532220804691,-3,-3,-5,-18,-10,-3,-1,-2
1532220804696,-2,2,4,18,8,2,0,0
1532220804701,2,2,4,4,0,1,0,-1
1532220804706,-1,-2,-4,-9,-4,-3,-2,-1
1532220804711,-1,-1,-9,-22,-6,-7,-4,-3
1532220804716,-1,-11,1,1,-9,-1,-4,-1
1532220804721,3,8,14,32,32,13,14,2
1532220804726,0,1,-2,2,-2,0,1,0
1532220804731,-6,-6,-5,-16,-9,-3,-2,-4
1532220804736,1,0,1,2,-2,-5,-5,0
1532220804741,0,2,-3,-6,-11,4,5,-3
1532220804746,0,1,1,6,10,0,3,0
1532220804751,1,5,1,4,1,1,2,1
1532220804756,-3,2,-6,-14,-10,-4,-3,-3
1532220804761,-4,-8,-6,1,-4,-6,-11,-1
1532220804766,-1,4,-1,-4,2,3,-1,1
1532220804771,0,-3,-1,-4,-6,-5,0,0
1532220804776,1,4,6,9,9,5,-2,0
1532220804781,-5,1,-4,-7,-12,-5,-4,-1
1532220804786,-2,-7,-1,-2,0,-2,1,-3
1532220804791,-3,5,3,4,3,0,-3,0
1532220804796,1,8,8,21,13,4,-1,2
1532220804801,1,-9,-4,-7,0,0,-1,2
1532220804806,-1,-8,-11,-13,-14,-8,0,-1
1532220804811,-1,2,-4,-11,-7,-2,1,-4
1532220804816,1,1,2,2,1,2,2,0
1532220804821,-1,-1,0,10,4,1,-2,0
1532220804826,1,-10,-4,-1,-2,-13,-12,-2
1532220804831,0,3,0,-7,-4,10,12,1
1532220804836,-8,-8,-12,-4,-4,-2,-3,-4
1532220804841,-2,-2,1,-3,2,1,-1,-1
1532220804846,0,0,2,9,3,13,2,1
1532220804851,-3,-1,-1,-6,-1,-18,-4,1
1532220804856,2,-7,-5,-7,-11,-6,2,9
1532220804861,-3,25,5,2,2,0,-6,-16
1532220804866,-1,-21,-2,-6,5,3,1,0
1532220804871,1,0,-2,-7,0,2,-3,-1
1532220804876,-1,3,1,7,-3,0,2,3
1532220804881,4,1,5,6,9,0,-8,-1
1532220804886,0,-20,-9,8,-5,1,6,-2
1532220804891,2,23,14,15,14,8,-1,-2
1532220804896,-1,-23,-6,-10,-8,-6,-4,0
1532220804901,-1,-9,-4,-6,-7,0,3,4
1532220804906,1,15,-3,-7,-5,-5,-1,-1
1532220804911,0,-19,-5,-14,-7,-7,-5,-1
1532220804916,-2,10,5,0,5,7,1,-6
1532220804921,0,-3,2,21,12,0,3,4
1532220804926,-3,1,-2,-9,-4,-3,-1,0
1532220804931,1,2,-6,-1,-6,-6,-7,-2
1532220804936,4,13,6,3,7,9,12,-2
1532220804941,-1,-8,-7,0,-4,-3,-2,1
1532220804946,0,7,2,-1,1,0,-1,2
1532220804951,0,-1,-4,-7,-5,31,22,1
1532220804956,-3,0,-3,4,-6,-37,-18,-6
1532220804961,1,-3,3,-5,-5,2,6,-1
1532220804966,-2,4,4,6,6,1,-4,1
1532220804971,-4,-2,-7,-7,-5,-3,-3,-9
1532220804976,1,-4,-5,4,-3,6,4,0
1532220804981,-1,-1,-2,-35,-5,2,2,0
1532220804986,-1,7,-2,5,4,-4,0,1
1532220804991,-2,-2,13,32,10,-1,-5,-2
1532220804996,-2,-2,-4,-30,-8,1,0,0
1532220805001,0,10,-2,11,-6,-6,-3,3
1532220805006,-3,-11,-7,-4,5,6,2,-4
1532220805011,-2,-2,-5,-16,-9,-10,-8,0
1532220805016,3,7,15,40,32,15,6,14
1532220805021,-2,-8,-3,2,-1,1,-2,-26
1532220805026,2,2,-5,-18,-14,-6,1,1
1532220805031,-4,-5,-6,0,-7,-6,-5,-5
1532220805036,-1,-1,-7,-15,-13,-4,-6,-10
1532220805041,0,-4,-3,-13,-1,0,2,16
1532220805046,0,2,4,9,8,1,0,-2
1532220805051,3,-4,-4,0,-4,-8,-7,-2
1532220805056,-1,5,-1,-6,-1,4,-1,0
1532220805061,0,-7,0,4,-3,-1,-2,4
1532220805066,0,2,-2,-4,-7,-3,-1,-9
1532220805071,2,2,4,18,8,2,-1,9
1532220805076,0,-1,4,3,6,0,0,0
1532220805081,-4,-3,-3,0,-3,-1,-4,-8
1532220805086,-1,1,-1,-1,-2,-2,4,3
1532220805091,1,0,1,-4,2,-2,-2,-1
1532220805096,-1,-3,-10,-13,-13,-5,-2,-5
1532220805101,0,-1,2,13,-3,-3,-2,-1
1532220805106,1,0,5,21,9,4,0,1
1532220805111,-1,1,-3,-21,-6,-1,-3,-1
1532220805116,1,6,5,15,6,2,2,-2
1532220805121,0,-3,-2,-1,3,-2,-2,8
1532220805126,-2,5,-5,-37,-15,-4,-6,-2
1532220805131,3,-2,11,44,21,10,11,7
1532220805136,-8,-8,-15,-18,-15,-8,-5,-4
1532220805141,0,-1,0,-5,-8,-5,-2,0
1532220805146,-2,2,0,5,-1,-2,0,-1
1532220805151,-3,6,-1,-4,3,-2,-5,-4
1532220805156,2,1,7,4,4,4,4,1
1532220805161,-2,0,0,11,8,-5,-7,0
1532220805166,-2,-7,-5,-12,-9,5,5,-1
1532220805171,1,-1,-7,-22,-11,-7,-2,-2
1532220805176,0,5,2,7,-1,1,1,0
1532220805181,-5,-23,3,11,9,3,-8,-11
1532220805186,0,-1,-5,-17,-4,-7,2,3
1532220805191,-3,-35,-4,15,5,-1,2,2
1532220805196,2,33,1,-12,-2,-2,-9,-3
1532220805201,3,-3,1,-8,-10,-2,12,5
1532220805206,-3,-7,1,-3,6,2,-5,-5
1532220805211,2,-2,0,14,5,3,4,2
1532220805216,-6,-30,-12,8,1,-4,-8,-1
1532220805221,-2,-16,-7,-14,-11,-2,1,1
1532220805226,-1,15,1,12,-1,11,-1,-3
1532220805231,1,16,7,-11,-6,-6,3,1
1532220805236,2,-3,2,-4,-1,6,1,-1
1532220805241,2,39,7,10,6,3,1,2
1532220805246,1,-13,3,0,-31,-28,2,2
1532220805251,-10,-44,-23,-23,18,30,-15,-7
1532220805256,-5,0,1,3,-4,13,5,-1
1532220805261,-1,-13,-20,-8,-1,-31,2,3
1532220805266,3,55,21,7,2,23,-5,-6
1532220805271,2,41,4,-6,-21,-35,1,-1
1532220805276,-7,-60,-9,16,17,14,4,0
1532220805281,3,28,22,10,6,9,-1,0
1532220805286,-2,-25,-10,-1,-2,-19,-5,-2
1532220805291,13,15,13,-4,-4,-3,6,2
1532220805296,-1,54,-24,-8,-1,-7,-2,-3
1532220805301,2,-58,0,5,-2,0,3,2
1532220805306,0,24,6,4,14,7,-1,1
1532220805311,4,70,19,3,-2,5,-2,1
1532220805316,-2,-86,-4,-17,-12,-10,-4,0
1532220805321,-5,2,9,-15,-3,4,-5,-5
1532220805326,3,2,-20,14,10,4,4,1
1532220805331,-5,-29,-2,9,2,0,1,3
1532220805336,6,44,14,-2,-2,11,3,-2
1532220805341,-2,15,-10,-8,-2,1,-2,-3
1532220805346,5,-34,5,-9,0,-5,-4,1
1532220805351,-5,2,-14,-3,-11,5,2,-1
1532220805356,1,13,8,0,-2,-15,-4,-3
1532220805361,2,-4,3,3,5,5,-2,-1
1532220805366,-8,-12,-6,1,8,6,2,-1
1532220805371,3,-8,-2,4,-1,-12,-3,-3
1532220805376,6,6,4,5,-3,-3,3,4
1532220805381,-8,-4,-3,5,-1,5,2,1
1532220805386,-6,8,1,7,3,-4,2,-1
1532220805391,5,-2,-10,-14,-8,-7,-6,-3
1532220805396,14,6,16,-15,-20,-10,-15,-2
1532220805401,-9,3,0,25,30,35,16,3
1532220805406,2,20,-1,1,-4,-29,28,3
1532220805411,-1,-6,3,-3,-2,3,-32,-2
1532220805416,1,-26,-5,-14,-7,13,7,-2
1532220805421,24,8,-5,2,-8,-17,8,5
1532220805426,-19,-3,3,-3,-1,12,-13,-9
1532220805431,-22,-12,-8,1,-1,-6,5,-13
1532220805436,-4,17,-4,7,3,-11,-5,0
1532220805441,13,8,0,-14,-11,1,0,5
1532220805446,-7,-23,-6,1,3,6,-1,4
1532220805451,-2,-6,-1,-9,-2,-1,0,-1
1532220805456,-3,6,0,3,9,4,-1,0
1532220805461,0,-32,-19,-34,-18,-11,-8,-4
1532220805466,7,46,8,1,-10,-1,-7,1
1532220805471,-6,-32,-1,11,16,4,2,1
1532220805476,1,-2,-1,0,4,-2,6,0
1532220805481,-7,12,9,12,1,-3,-11,-6
1532220805486,2,-15,-6,-17,-7,-7,9,0
1532220805491,-4,-1,-10,4,-17,-10,-8,0
1532220805496,3,-11,6,10,12,10,2,-2
1532220805501,-6,4,-3,0,-4,-5,-8,-3
1532220805506,3,-15,-4,-3,7,6,-7,-4
1532220805511,8,10,7,4,6,3,22,3
1532220805516,-5,7,-2,1,-11,-5,-14,14
1532220805521,-3,2,-4,-9,-9,-13,4,-7
1532220805526,10,-8,-2,11,1,18,-22,-2
1532220805531,5,-13,-2,-12,14,9,17,0
1532220805536,-4,32,5,1,-3,4,-4,-7
1532220805541,-9,3,-7,-14,-1,-5,0,-2
1532220805546,-4,-6,12,35,11,-21,-2,1
1532220805551,-5,-21,-1,-2,-1,17,-10,-3
1532220805556,-14,0,-4,-4,-8,-11,6,-3
1532220805561,1,5,2,7,8,7,-8,2
1532220805566,-6,-16,-8,-17,-4,3,1,-3
1532220805571,5,9,5,0,-14,-10,-7,5
1532220805576,3,-11,-14,-8,1,-14,5,-5
1532220805581,-5,13,7,2,-5,4,-1,-5
1532220805586,15,-4,-3,3,-4,-14,0,0
1532220805591,1,14,0,-26,4,32,6,-1
1532220805596,5,-20,0,17,1,-1,-3,1
1532220805601,-4,3,-4,3,13,17,-4,0
1532220805606,-2,4,3,1,-2,-12,-4,3
1532220805611,-2,4,0,8,-4,-4,10,0
1532220805616,0,21,-1,-18,-7,-1,-18,-6
1532220805621,-5,-19,-5,-2,-3,-12,-1,-3
1532220805626,-1,-1,2,-5,5,4,-1,0
1532220805631,2,5,-4,-4,-11,-5,-3,-1
1532220805636,-7,7,2,-11,-1,-1,8,-2
1532220805641,2,-9,3,15,5,4,2,3
1532220805646,-3,-27,-6,-8,-5,-5,-3,-1
1532220805651,-4,31,12,9,14,7,-1,1
1532220805656,-6,-46,-17,0,4,3,-1,-1
1532220805661,-2,1,6,4,-10,-9,1,-1
1532220805666,1,14,5,7,6,9,6,1
1532220805671,-1,15,-4,-6,-3,-12,-5,0
1532220805676,6,-41,4,5,-3,-6,3,3
1532220805681,-5,27,-2,-13,2,2,0,-1
1532220805686,-11,-3,-7,-10,-9,2,-4,-6
1532220805691,-3,-2,2,16,-2,-8,0,-4
1532220805696,4,24,6,1,5,3,1,0
1532220805701,5,-16,-5,-4,-5,-5,-3,0
1532220805706,5,0,1,-1,1,3,4,-2
1532220805711,-5,-8,-6,-12,-6,18,-3,2
1532220805716,-1,9,-2,-1,-12,15,2,-5
1532220805721,-1,-13,7,26,38,2,3,2
1532220805726,-3,8,-1,6,-4,5,0,0
1532220805731,10,-7,-1,-4,-8,-29,-5,2
1532220805736,-3,5,5,17,18,13,9,-4
1532220805741,-8,9,0,-7,-6,7,-7,-4
1532220805746,4,10,-6,-11,-4,-3,-1,1
1532220805751,-9,-24,-6,-6,-7,-10,0,0
1532220805756,4,14,1,4,-1,-5,-3,-1
1532220805761,3,-9,-8,-18,-12,-9,-3,0
1532220805766,-1,1,5,8,3,2,5,-1
1532220805771,0,-1,-5,-14,-10,-6,-6,-1
1532220805776,-4,-4,5,13,17,3,0,-1
1532220805781,1,6,-5,-19,-9,-2,-2,-1
1532220805786,0,-2,1,23,-2,-1,0,-1
1532220805791,-2,-3,6,5,11,7,-2,1
1532220805796,-1,8,-4,-5,-3,-9,0,-1
1532220805801,1,-28,-5,-3,-11,-12,0,-1
1532220805806,-1,9,4,-10,7,13,0,-2
1532220805811,0,0,-1,-3,-2,-4,-1,3
1532220805816,-2,-11,-1,11,-8,-14,-1,-3
1532220805821,-3,26,1,-9,2,10,-4,-3
1532220805826,-4,-9,-15,-27,-11,-3,-1,0
1532220805831,2,-6,1,-9,10,15,0,-5
1532220805836,-2,12,7,21,15,-4,0,2
1532220805841,3,-1,1,3,-4,-2,-1,1
1532220805846,-3,-18,-13,-10,0,-8,-1,-2
1532220805851,3,45,4,1,-6,-1,2,-2
1532220805856,-5,-25,-15,-29,-17,-6,-4,-2
1532220805861,-2,1,4,28,8,2,3,-1
1532220805866,-1,1,5,4,5,-5,-4,-1
1532220805871,1,7,-4,-3,-9,0,2,-1
1532220805876,-2,27,5,0,8,7,-3,-2
1532220805881,-1,-13,-4,3,-3,-2,0,0
1532220805886,0,23,-3,-11,-5,1,2,-1
1532220805891,-3,-33,-9,4,-1,-10,-2,-1
1532220805896,0,0,-1,-3,-4,-5,-1,-2
1532220805901,-1,-6,1,1,-1,6,2,-1
1532220805906,0,-4,5,2,-2,-3,-1,0
1532220805911,-1,0,0,3,1,-6,-3,-3
1532220805916,1,-12,-7,-20,-8,-1,0,1
1532220805921,2,15,-1,16,11,18,2,1
1532220805926,-3,-5,8,1,-5,-26,-4,1
1532220805931,0,-6,-5,10,10,15,1,-1
1532220805936,-1,-11,-1,-11,-5,-9,-3,1
1532220805941,-1,-4,-3,-16,-10,-5,-10,-1
1532220805946,-2,-1,3,9,4,8,4,-2
1532220805951,-6,-25,-9,1,0,-2,0,0
1532220805956,-3,6,1,-8,-4,-9,-4,2
1532220805961,-8,25,2,-15,-13,-1,0,-7
1532220805966,-2,-25,-2,24,13,2,1,1
1532220805971,-4,0,4,3,0,13,-5,-3
1532220805976,-2,1,-4,-16,-6,-1,2,1
1532220805981,1,-6,1,2,2,-13,2,1
1532220805986,4,1,0,-7,-5,2,1,-1
1532220805991,0,-7,-1,3,0,-7,0,-1
1532220805996,3,6,-1,3,0,15,-1,-2
1532220806001,2,-15,-4,-9,-9,-31,-3,-1
1532220806006,-1,-11,-10,-10,-5,6,1,-1
1532220806011,3,8,2,4,2,-9,-2,1
1532220806016,-1,-19,-5,-14,-10,1,-2,-2
1532220806021,3,16,3,9,7,0,0,3
1532220806026,3,28,4,13,9,8,4,0
1532220806031,-2,-24,-6,-7,-4,-25,1,0
1532220806036,1,15,10,4,0,2,-1,-1
1532220806041,-2,-6,-11,-9,-1,2,-1,-1
1532220806046,-1,-5,2,-5,-2,9,-1,0
1532220806051,-2,9,-4,-7,-9,0,-1,0
1532220806056,0,-2,-3,8,3,-2,4,0
1532220806061,0,1,-2,-1,3,1,1,-1
1532220806066,-4,0,3,-4,-4,-9,-6,-2
1532220806071,1,-24,-8,-1,1,3,3,0
1532220806076,-3,9,15,2,-1,-2,-4,-3
1532220806081,1,-2,4,9,3,4,2,1
1532220806086,2,10,-3,8,4,4,0,2
1532220806091,-1,-1,0,-1,-1,0,-4,-6
1532220806096,1,5,-4,1,0,-7,2,0
1532220806101,-4,-31,-6,-17,-10,5,0,-2
1532220806106,-3,0,1,-16,-3,1,-2,-2
1532220806111,0,7,7,15,6,10,1,1
1532220806116,-1,0,-4,3,-2,-1,0,0
1532220806121,-2,1,-10,-10,-15,-12,-4,-4
1532220806126,0,-7,-1,-10,-1,-39,-14,-4
1532220806131,0,13,3,1,6,33,3,0
1532220806136,-2,-4,-7,3,8,19,0,0
1532220806141,1,4,1,6,2,9,3,2
1532220806146,-1,-7,-3,-4,-8,-4,0,-1
1532220806151,2,18,3,-18,-9,-15,-3,-3
1532220806156,0,-10,5,24,7,-5,0,0
1532220806161,-6,-11,-9,-20,-9,-4,-5,-3
1532220806166,0,8,0,2,0,8,4,-1
1532220806171,-3,0,5,2,6,-8,-2,2
1532220806176,-1,12,5,0,-7,1,0,-4
1532220806181,1,8,6,12,15,2,2,1
1532220806186,-2,-12,-5,-9,-10,6,0,-1
1532220806191,-1,1,-5,8,3,-2,2,0
1532220806196,-1,2,-1,-3,-1,-9,-4,0
1532220806201,-1,3,5,4,-1,3,0,-1
1532220806206,-3,-21,-13,-11,-5,3,0,0
1532220806211,-1,26,12,8,-4,-6,-4,-1
1532220806216,1,4,-2,11,3,0,0,1
1532220806221,0,-6,3,-15,-4,-2,-2,-2
1532220806226,1,13,3,25,11,10,4,0
1532220806231,-2,-18,-2,-8,-4,-7,-1,-1
1532220806236,-2,3,-4,-6,-2,-3,0,-1
1532220806241,0,0,-2,0,0,2,0,0
1532220806246,1,0,6,-6,-3,-3,2,0
1532220806251,-1,-5,-7,1,-2,-3,-2,1
1532220806256,-1,0,2,-21,-2,-1,1,0
1532220806261,1,-5,3,29,7,6,3,0
1532220806266,-1,-3,-5,-12,3,2,0,0
1532220806271,-1,-3,-1,10,-1,-4,-4,-2
1532220806276,-1,-10,-4,-7,0,-3,0,-1
1532220806281,-2,6,0,-2,-5,0,-3,-1
1532220806286,-2,4,4,-1,1,7,-2,0
1532220806291,1,-2,-10,-14,-5,8,3,1
1532220806296,-3,-3,-8,-5,-3,-18,-4,-2
1532220806301,-2,3,2,-17,-4,3,1,-2
1532220806306,2,13,5,21,0,-16,-2,-4
1532220806311,-2,-21,-8,-3,7,22,2,1
1532220806316,2,-21,-2,-15,-6,-4,0,-2
1532220806321,-3,1,-8,-1,4,-1,0,3
1532220806326,-2,-13,0,-7,-14,7,0,6
1532220806331,-6,8,4,2,3,-14,-6,-7
1532220806336,5,15,0,-1,1,8,2,-1
1532220806341,-4,-22,-5,-12,-4,9,-8,-8
1532220806346,-4,-12,-1,8,13,-7,7,4
1532220806351,1,-1,-1,-5,-9,-26,1,-7
1532220806356,-1,-11,-7,13,6,19,-4,-5
1532220806361,-1,11,4,8,3,5,13,10
1532220806366,1,2,-5,-9,-12,-38,-11,-7
1532220806371,-2,-5,-1,0,6,59,-2,-8
1532220806376,-2,3,1,4,-9,-10,3,3
1532220806381,2,8,5,0,8,19,1,2
1532220806386,-2,2,-4,-7,-1,7,3,-1
1532220806391,0,3,10,4,-3,-20,-1,4
1532220806396,0,-16,-7,3,-1,-9,-2,-4
1532220806401,1,-1,-8,-4,-2,-2,-1,-2
1532220806406,0,7,-1,0,0,6,-2,-3
1532220806411,3,4,7,2,-1,-14,-3,1
1532220806416,-5,-4,3,0,0,7,-2,0
1532220806421,-3,-4,-3,3,0,-21,-2,-1
1532220806426,-4,-6,-8,2,0,10,-3,-1
1532220806431,0,-13,-2,-5,-2,-6,1,3
1532220806436,1,39,8,8,3,-4,-1,0
1532220806441,2,-8,2,1,-2,-4,-2,-4
1532220806446,1,0,5,-1,2,3,-2,0
1532220806451,0,-11,-7,-4,-2,0,3,1
1532220806456,4,-3,-7,2,1,3,2,-1
1532220806461,2,4,5,3,1,-2,-4,-3
1532220806466,-1,-4,1,-2,2,9,-2,-1
1532220806471,0,2,-4,-2,-1,-8,2,1
1532220806476,-4,14,11,-2,-6,-5,-2,0
1532220806481,-2,6,-14,0,1,-2,-3,-2
1532220806486,-1,2,4,4,-6,-1,-2,-3
1532220806491,1,5,3,-2,5,9,-1,1
1532220806496,-1,-8,4,5,-1,-22,-2,-2
1532220806501,0,1,-4,12,9,9,2,1
1532220806506,-1,-1,-7,-16,-10,-4,0,-1
1532220806511,-1,1,1,-8,-2,-8,-4,-3
1532220806516,-1,-5,-3,-6,2,11,0,-1
1532220806521,4,8,10,15,7,-3,2,1
1532220806526,1,-1,-2,11,7,8,-1,1
1532220806531,-3,5,8,4,2,-8,-1,0
1532220806536,-4,-5,-4,-7,-5,-3,1,-4
1532220806541,-1,-5,-13,-26,-12,-7,-8,-4
1532220806546,-2,-2,1,-6,-7,-1,-1,-2
1532220806551,0,-3,-5,-1,-4,0,-2,1
1532220806556,0,-3,0,7,6,5,1,2
1532220806561,-2,-3,-3,-16,-12,-13,0,-3
1532220806566,1,0,5,5,6,8,1,-2
1532220806571,-2,2,-8,2,-2,-16,-4,-3
1532220806576,-1,-8,-7,-26,-14,14,-1,-1
1532220806581,2,0,10,26,8,8,5,1
1532220806586,0,-7,-2,21,13,0,2,1
1532220806591,1,20,8,9,-1,3,-1,-1
1532220806596,-3,-30,-6,4,2,-3,-4,0
1532220806601,-3,-1,1,-15,-18,-30,-3,-1
1532220806606,-1,4,1,-11,4,11,-6,-3
1532220806611,-2,-8,-6,0,-2,-3,-1,-1
1532220806616,-1,9,3,8,1,9,-2,0
1532220806621,-3,-9,-2,1,1,-10,-3,-1
1532220806626,-2,-7,-4,-5,-2,6,0,1
1532220806631,0,1,0,2,4,6,0,0
1532220806636,-2,4,-3,-12,-8,-17,-3,-1
1532220806641,-1,5,3,7,2,8,2,0
1532220806646,0,6,0,-3,1,1,-6,-2
1532220806651,-1,-6,-3,-5,-5,9,6,0
1532220806656,-1,6,4,9,4,-10,2,2
1532220806661,-3,-25,-2,-2,-2,-1,-3,-3
1532220806666,-2,7,-3,-9,-10,-13,-3,2
1532220806671,0,-9,-6,-5,3,-4,-2,0
1532220806676,2,4,1,6,-1,8,2,0
1532220806681,-3,4,-3,3,2,10,-2,0
1532220806686,4,3,4,-7,-5,-10,1,-4
1532220806691,-4,3,-3,6,6,6,-3,-8
1532220806696,-1,-7,-5,1,4,0,4,7
1532220806701,1,-8,-2,-4,1,8,0,2
1532220806706,-1,18,0,3,2,4,10,3
1532220806711,-1,-9,-6,-6,-9,-11,-16,-4
1532220806716,1,18,12,0,-6,-11,-5,-6
1532220806721,-2,26,-25,-18,-11,-10,-3,1
1532220806726,2,-3,18,11,10,-1,1,5
1532220806731,-1,1,1,5,2,1,5,-1
1532220806736,-4,-4,10,-2,-2,-18,-1,-4
1532220806741,-2,-24,-18,-8,-8,14,-5,2
1532220806746,-1,0,9,4,8,9,5,1
1532220806751,1,-6,-12,-20,-6,31,-11,6
1532220806756,0,-2,8,18,-5,-84,3,0
1532220806761,2,14,27,12,25,56,5,1
1532220806766,-2,-10,-17,-1,-8,-5,0,24
1532220806771,-5,-3,4,-1,-3,-21,-3,-33
1532220806776,-3,-1,-15,-10,0,24,5,-4
1532220806781,2,-2,4,-15,-20,-31,8,-1
1532220806786,-1,-3,-25,24,15,24,-14,-9
1532220806791,-2,5,35,1,2,-34,1,2
1532220806796,-1,-6,-30,-2,-3,20,-1,-2
1532220806801,0,0,5,0,3,-14,1,3
1532220806806,0,-9,2,-9,-9,0,-2,-14
1532220806811,1,-1,-14,-7,-7,-8,7,7
1532220806816,-1,8,30,-2,1,-7,-13,-12
1532220806821,2,-3,-3,2,5,39,-3,7
1532220806826,-3,-14,-12,-12,-10,1,1,-2
1532220806831,-1,-9,-6,19,14,16,-1,12
1532220806836,4,21,1,-6,0,13,9,5
1532220806841,-2,10,4,-6,-5,-24,-11,2
1532220806846,0,7,19,-3,-9,-28,7,-2
1532220806851,-4,-15,-18,0,-3,6,-2,2
1532220806856,-1,3,3,3,12,7,4,13
1532220806861,1,-2,21,15,-1,-61,-3,5
1532220806866,-6,14,-61,-27,-14,19,8,12
1532220806871,0,7,23,3,-3,10,-5,-24
1532220806876,0,-4,19,10,2,-1,-5,-21
1532220806881,-3,-7,-32,0,13,32,-7,-11
1532220806886,-2,1,13,7,3,-12,1,7
1532220806891,-2,3,-3,-15,-14,-15,11,10
1532220806896,-3,-4,-9,4,6,-3,-16,1
1532220806901,2,9,47,5,-3,-2,16,19
1532220806906,-2,-12,-44,-9,-1,4,-9,-19
1532220806911,-3,11,33,-1,-2,-9,-4,-10
1532220806916,-4,-15,-21,-5,-17,12,19,-10
1532220806921,3,5,11,-3,2,4,-9,-25
1532220806926,3,-15,-29,-6,3,-3,-10,-1
1532220806931,4,-3,-1,6,4,13,1,1
1532220806936,3,-8,26,2,2,5,3,11
1532220806941,0,5,-21,5,-2,5,-6,9
1532220806946,-2,2,-3,-7,-10,-13,7,-23
1532220806951,1,-6,-5,-1,1,-8,-2,0
1532220806956,-1,10,-9,-5,1,31,4,8
1532220806961,4,6,6,-6,-3,-13,5,-3
1532220806966,0,-4,30,4,2,-18,-5,0
1532220806971,2,9,10,7,3,23,6,7
1532220806976,2,-5,-37,-4,0,2,-5,14
1532220806981,-4,-11,6,2,-5,-2,1,-8
1532220806986,-1,8,-15,-20,-4,0,0,1
1532220806991,-1,4,27,15,6,-4,0,-4
1532220806996,1,-8,-67,-3,2,5,-8,-3
1532220807001,-3,-16,-18,-13,-6,-5,2,1
1532220807006,1,5,41,3,4,8,-4,-3
1532220807011,2,-2,-16,-11,-11,-10,-4,11
1532220807016,-2,5,37,8,3,-41,-4,-5
1532220807021,-3,-13,-38,-8,-1,36,-4,-12
1532220807026,2,1,12,2,-7,-11,-3,9
1532220807031,-1,-8,-16,-4,8,-7,-1,4
1532220807036,-2,2,37,-4,-5,35,0,0
1532220807041,-1,1,-15,-6,-10,-21,-3,-1
1532220807046,-3,0,23,15,17,17,7,19
1532220807051,-4,-5,15,6,0,-5,6,-23
1532220807056,-3,5,-51,-9,-5,-1,-13,-1
1532220807061,-3,3,-1,0,-8,-42,-1,-4
1532220807066,1,3,2,-10,-3,49,-5,16
1532220807071,2,-3,4,-1,-3,15,11,-6
1532220807076,-5,-12,1,16,4,28,3,-20
1532220807081,1,8,0,5,10,32,-8,-3
1532220807086,-3,2,2,-8,-2,-49,0,-28
1532220807091,-5,-15,-25,-5,-2,-9,-5,23
1532220807096,2,0,5,-5,-8,-10,3,0
1532220807101,2,6,5,4,5,24,5,7
1532220807106,-2,-7,26,5,-4,-16,-11,-17
1532220807111,4,18,-19,-9,-2,-2,7,12
1532220807116,-4,-11,0,0,2,-5,-16,-17
1532220807121,-2,-14,6,2,-1,-4,6,9
1532220807126,1,28,31,3,-5,-33,-5,5
1532220807131,-1,-3,-48,-13,-6,16,-2,-14
1532220807136,1,-3,18,3,-6,4,8,12
1532220807141,-3,-5,-1,8,17,28,-8,12
1532220807146,-1,-6,10,4,-4,-4,-1,0
1532220807151,-1,2,-5,-9,-4,7,-2,9
1532220807156,6,2,-37,-8,-5,-44,-5,-10
1532220807161,0,1,-8,-7,-5,-15,2,-6
1532220807166,1,-7,14,14,2,18,2,-7
1532220807171,1,0,7,0,9,-8,-1,19
1532220807176,-2,-2,9,7,-4,-12,-16,-10
1532220807181,4,-6,4,-8,-7,-8,3,29
1532220807186,-2,58,2,4,12,12,15,-28
1532220807191,-4,-54,2,0,-12,-78,-3,-16
1532220807196,-2,3,-56,-21,6,49,4,-2
1532220807201,-1,25,57,8,-4,-18,4,5
1532220807206,-3,-30,-32,-2,-1,8,-8,7
1532220807211,2,15,-7,3,-1,-27,-3,4
1532220807216,0,-3,38,1,6,5,11,6
1532220807221,0,0,-2,6,-1,-14,-2,-16
1532220807226,0,-11,-38,-19,-14,6,-17,8
1532220807231,-2,5,0,1,5,27,-3,-5
1532220807236,2,-1,25,9,11,-1,2,16
1532220807241,-2,3,-23,4,5,5,-4,-25
1532220807246,1,18,37,15,2,1,4,8
1532220807251,0,10,-57,-8,-11,-8,-16,16
1532220807256,0,-7,8,-9,-1,40,5,-23
1532220807261,0,1,-11,-1,-1,-1,0,-4
1532220807266,0,-38,3,-2,0,-24,10,24
1532220807271,-2,21,14,13,0,9,8,4
1532220807276,-1,4,5,-3,-4,-23,-27,-15
1532220807281,-6,6,3,-1,0,0,4,-30
1532220807286,-1,-39,-13,-3,2,7,3,1
1532220807291,1,6,7,0,1,11,-25,24
1532220807296,-3,-12,-8,0,-13,-78,26,-6
1532220807301,-2,-10,-1,0,3,81,6,6
1532220807306,2,32,17,3,4,2,-16,6
1532220807311,-2,24,11,-10,0,13,6,5
1532220807316,-2,-17,-13,3,3,-4,-2,-9
1532220807321,2,7,23,7,-5,-33,-6,2
1532220807326,-4,-9,-45,-6,-6,-2,10,-12
1532220807331,2,6,31,6,7,25,0,-1
1532220807336,1,11,8,1,-4,-1,2,20
1532220807341,1,-5,4,-2,6,4,7,1
1532220807346,-2,2,22,5,4,-13,-17,3
1532220807351,-3,-25,-63,-12,-11,-9,11,-25
1532220807356,-2,-4,-21,-10,-6,-14,-7,24
1532220807361,0,-14,32,-4,3,18,7,-15
1532220807366,1,-16,-38,-8,-9,3,-1,3
1532220807371,0,26,43,-10,-7,35,5,-9
1532220807376,-3,-6,-1,14,13,-13,-13,-4
1532220807381,-6,-16,-13,1,-6,-5,-13,4
1532220807386,8,25,24,3,1,-25,8,34
1532220807391,0,-19,-43,-4,2,15,-8,-23
1532220807396,2,-8,7,-10,-7,4,11,16
1532220807401,-3,18,11,1,-3,-36,-3,11
1532220807406,-6,-30,-68,-10,-15,-31,-2,-28
1532220807411,-2,5,42,2,2,-3,-11,-8
1532220807416,4,18,27,19,19,73,13,0
1532220807421,0,-8,-23,1,2,-26,-6,-12
1532220807426,0,3,14,1,1,18,-2,13
1532220807431,1,-2,-5,10,3,-10,15,2
1532220807436,-5,-7,-13,-16,-18,-14,-15,-49
1532220807441,2,13,10,-2,9,7,5,18
1532220807446,-5,-6,17,0,4,6,1,-15
1532220807451,1,-11,-48,-3,-3,-7,0,16
1532220807456,-1,16,42,7,4,-13,4,2
1532220807461,0,-17,-31,-14,-13,28,-10,-4
1532220807466,-2,8,38,-12,-7,-9,-16,-7
1532220807471,2,-14,14,18,2,-15,2,-14
1532220807476,-2,-7,-15,7,19,23,7,8
1532220807481,-3,22,1,0,-5,-24,-6,-6
1532220807486,0,5,-3,-4,-1,10,4,-2
1532220807491,-2,-11,26,-12,-8,8,-3,-18
1532220807496,1,-7,6,-9,-9,-12,-3,10
1532220807501,2,-4,-36,2,1,-14,1,0
1532220807506,8,-15,-1,7,2,30,12,13
1532220807511,-11,24,15,-5,-1,0,-8,-15
1532220807516,-1,10,10,12,5,22,-3,-3
1532220807521,-3,-15,-8,-6,-5,-10,6,6
1532220807526,1,2,-3,-16,-4,-43,6,-3
1532220807531,5,-7,13,1,-1,35,2,2
1532220807536,-1,-2,-8,-1,-2,-22,-1,34
1532220807541,-4,1,9,-2,-1,-1,-18,-46
1532220807546,-2,0,-24,2,7,9,-6,-4
1532220807551,1,3,7,4,0,8,9,-7
1532220807556,-3,3,18,2,-6,5,1,12
1532220807561,1,3,-12,6,7,-8,9,16
1532220807566,-3,-10,4,0,-7,-17,-6,-8
1532220807571,-1,3,7,-15,4,3,2,18
1532220807576,-1,4,19,7,-2,9,4,-31
1532220807581,1,-6,-41,-5,-9,-11,0,9
1532220807586,-2,-1,-17,6,3,7,-10,-23
1532220807591,0,-1,16,-1,1,-13,7,21
1532220807596,-4,0,-22,-5,-4,-33,6,1
1532220807601,3,5,36,2,6,18,-3,-3
1532220807606,9,7,-7,0,-2,-4,0,3
1532220807611,2,-16,-17,-2,-8,-21,1,-10
1532220807616,-30,10,20,-7,8,11,-11,-11
1532220807621,5,0,-12,2,-1,-1,-6,-14
1532220807626,6,2,-17,9,4,16,18,16
1532220807631,4,-3,2,4,-2,-13,-8,-3
1532220807636,2,-7,-17,-14,-5,25,3,1
1532220807641,-8,1,25,15,10,-13,2,36
1532220807646,-9,4,-5,-3,1,2,4,-31
1532220807651,-5,-11,-17,-6,-11,-6,-3,14
1532220807656,11,-1,-4,-4,1,5,-24,-18
1532220807661,9,3,1,-5,-9,2,15,13
1532220807666,3,-5,1,-6,-7,0,2,12
1532220807671,-14,4,4,9,9,-8,-13,-31
1532220807676,10,2,0,2,-5,-7,0,21
1532220807681,-7,-9,-30,-21,-7,7,-5,-44
1532220807686,-1,0,7,18,9,-9,-3,-4
1532220807691,-2,0,4,-2,-1,0,-1,2
1532220807696,5,-1,3,-9,-3,-8,-3,14
1532220807701,2,-5,5,15,2,-4,-2,-6
1532220807706,-4,-1,9,8,13,34,-2,17
1532220807711,-2,4,0,-4,-8,-50,-6,-27
1532220807716,6,-1,-8,-13,-2,13,5,-11
1532220807721,5,-1,-9,-1,6,8,8,22
1532220807726,1,0,-2,-8,-13,-16,9,-16
1532220807731,1,5,14,4,1,0,-5,11
1532220807736,2,1,5,14,12,2,3,-8
1532220807741,-3,-3,-5,1,2,2,11,17
1532220807746,-2,-4,0,1,2,0,-15,3
1532220807751,4,-4,-16,-9,-4,-4,9,20
1532220807756,-2,-6,-4,-18,-16,-5,-17,-40
1532220807761,-2,3,1,10,5,8,-5,-6
1532220807766,0,-3,-3,0,-4,-18,6,6
1532220807771,3,1,4,-1,4,1,-5,-6
1532220807776,-4,1,2,2,-3,-38,0,1
1532220807781,1,-2,-6,0,3,28,1,3
1532220807786,-2,-4,-10,-9,-3,33,-3,-9
1532220807791,4,4,10,3,-4,-5,5,2
1532220807796,2,-1,-6,4,7,13,7,19
1532220807801,-4,-3,11,0,-11,-46,-15,-20
1532220807806,8,-2,-4,5,14,58,13,30
1532220807811,-15,3,-10,-6,3,10,-10,-5
1532220807816,10,-9,13,0,-4,3,7,5
1532220807821,-1,-5,20,-3,-11,-18,-3,-4
1532220807826,-6,-4,-21,2,3,-14,-1,-7
1532220807831,-3,2,8,-1,0,6,8,-2
1532220807836,-5,4,-4,-3,1,28,0,9
1532220807841,10,7,14,1,1,7,0,9
1532220807846,4,1,2,-1,-8,-40,-4,4
1532220807851,-16,-6,-1,1,1,9,2,6
1532220807856,2,7,-2,-15,-10,-14,-13,-9
1532220807861,-2,-4,-5,4,3,4,5,4
1532220807866,2,28,17,15,9,-4,1,17
1532220807871,1,4,-5,3,1,-3,-7,-37
1532220807876,-4,-11,4,-16,-14,19,2,1
1532220807881,-4,-3,5,-16,-8,15,-3,-7
1532220807886,-2,-6,-25,0,5,20,1,1
1532220807891,3,-10,18,19,5,2,-6,13
1532220807896,1,6,-5,9,6,-23,12,35
1532220807901,-5,1,-14,-9,0,26,-7,-39
1532220807906,1,-24,-7,-16,-16,-7,11,27
1532220807911,2,-10,17,-9,-3,-25,-2,-1
1532220807916,1,-1,-9,6,9,0,6,18
1532220807921,-3,-2,-9,6,4,-20,-5,-48
1532220807926,-1,7,13,2,-3,2,-3,-7
1532220807931,13,18,15,1,-1,-15,6,3
1532220807936,-21,-18,-25,-12,-8,-4,-18,-4
1532220807941,9,4,-3,-1,-5,8,4,42
1532220807946,-5,-3,4,-3,12,7,-1,-12
1532220807951,6,10,0,4,1,19,10,68
1532220807956,-6,8,12,0,-8,-60,9,-12
1532220807961,-2,4,-5,1,16,77,1,-34
1532220807966,-2,-4,-12,-1,-10,-31,-11,-11
1532220807971,2,-36,-2,-1,-1,14,-4,-5
1532220807976,-2,8,-2,0,-5,-11,-3,-14
1532220807981,2,1,-5,2,5,-32,13,74
1532220807986,6,6,12,-1,-3,4,7,18
1532220807991,-8,23,-20,2,1,2,-16,-51
1532220807996,8,-14,5,-3,-3,13,3,-8
1532220808001,2,-6,-3,2,-4,-21,-6,12
1532220808006,-5,10,19,2,4,8,20,77
1532220808011,-18,-4,-17,-11,-10,-8,28,-65
1532220808016,-2,3,5,1,-7,1,-33,-77
1532220808021,-4,6,-21,10,7,2,-1,-37
1532220808026,0,-22,5,-8,2,-7,-13,-48
1532220808031,0,-2,-22,3,-3,-23,-1,57
1532220808036,2,47,29,3,1,15,-6,2
1532220808041,3,-62,-54,-13,-1,0,8,67
1532220808046,-2,9,-16,3,-11,-10,-14,-17
1532220808051,-7,-8,4,-10,-6,-46,-5,-58
1532220808056,0,9,9,3,20,64,-13,8
1532220808061,8,32,21,4,2,-10,-2,3
1532220808066,-2,-11,-13,-8,-5,-15,3,0
1532220808071,7,-2,1,8,4,9,-8,18
1532220808076,1,1,-6,3,1,4,21,32
1532220808081,-9,6,26,1,-4,-13,1,-21
1532220808086,3,-13,-35,-7,-1,3,17,4
1532220808091,10,15,10,2,1,12,-19,4
1532220808096,-5,-15,-7,4,-1,-13,6,-3
1532220808101,-9,9,12,-3,-5,2,-8,-18
1532220808106,-4,-17,15,-1,0,-1,0,-7
1532220808111,5,44,-9,4,3,13,-1,15
1532220808116,8,-58,13,4,3,2,9,14
1532220808121,-4,10,-4,-13,-7,-12,-36,-8
1532220808126,-11,20,28,5,-3,-1,-6,-26
1532220808131,0,-4,-39,-16,-5,4,10,23
1532220808136,13,23,5,15,8,3,-13,-2
1532220808141,-1,0,-5,2,3,4,13,16
1532220808146,-32,-3,9,0,-2,-4,-5,-35
1532220808151,-3,-12,1,-8,-4,6,-6,-12
1532220808156,5,26,-8,-7,-5,-6,9,2
1532220808161,4,-60,-19,-2,-2,-3,1,12
1532220808166,14,35,4,0,-1,0,-6,9
1532220808171,-1,-15,3,-2,-1,3,1,1
1532220808176,1,5,1,-2,-1,0,3,11
1532220808181,-10,-31,-10,-5,2,-4,2,-20
1532220808186,18,-6,11,3,0,2,-3,-1
1532220808191,1,-3,-16,7,5,9,6,9
1532220808196,-32,-31,21,-7,-10,-10,-2,-41
1532220808201,1,57,-46,-13,-7,-2,-4,-9
1532220808206,7,9,1,-2,-1,-2,-16,-4
1532220808211,19,-49,21,1,-2,3,3,26
1532220808216,11,7,-18,0,-1,-1,0,18
1532220808221,-12,-16,17,-4,-1,-2,0,-3
1532220808226,4,1,-15,8,6,-1,8,28
1532220808231,5,13,9,8,1,2,-1,-45
1532220808236,-9,-9,2,-12,-1,-1,-22,7
1532220808241,1,3,8,-3,-6,-1,8,-6
1532220808246,7,1,-10,7,5,-2,0,-1
1532220808251,-17,9,11,-9,0,3,-3,18
1532220808256,2,-13,-10,3,0,0,9,1
1532220808261,4,25,17,2,0,0,-4,1
1532220808266,-5,-9,0,-8,-7,-4,-4,-6
1532220808271,-2,5,-2,6,2,-2,-1,-6
1532220808276,4,19,-13,-3,0,2,4,2
1532220808281,10,-4,12,6,4,3,10,13
1532220808286,-9,-5,12,1,-2,-2,-14,-27
1532220808291,-2,10,-2,-10,-5,-3,-1,11
1532220808296,-3,14,8,2,-1,-2,2,-8
1532220808301,1,-5,-7,2,2,0,-2,-5
1532220808306,-5,-15,23,4,1,2,10,1
1532220808311,4,23,-29,-3,0,3,0,10
1532220808316,-3,-5,-4,-4,-4,-2,5,-15
1532220808321,-3,17,14,9,3,1,-2,-20
1532220808326,-1,2,-6,-14,-3,-2,-5,-12
1532220808331,0,-38,-13,6,-5,-3,-5,21
1532220808336,-1,4,-7,-7,-10,-14,3,25
1532220808341,-1,12,21,1,14,29,9,-30
1532220808346,2,-30,-32,-3,6,3,13,11
1532220808351,-10,16,18,10,2,3,-9,-57
1532220808356,2,-29,-5,-1,-3,-3,5,24
1532220808361,-3,-13,4,0,-3,-9,-8,11
1532220808366,0,0,-13,1,-3,0,2,18
1532220808371,-1,-6,22,0,3,-2,3,1
1532220808376,6,11,-24,2,1,3,-3,-2
1532220808381,-4,23,-29,-4,-4,-7,-5,0
1532220808386,5,-7,21,-6,-2,2,10,29
1532220808391,-5,5,14,0,-3,-4,-1,-1
1532220808396,3,-2,4,-4,-1,2,1,-2
1532220808401,4,-3,-1,-4,-4,-4,-15,-7
1532220808406,-12,-9,8,8,0,2,6,25
1532220808411,-11,-5,-23,-8,-4,-1,-6,-44
1532220808416,-1,-15,-10,1,-1,-1,3,4
1532220808421,-3,-5,3,2,-3,-4,-5,-1
1532220808426,9,22,0,1,-4,-2,-10,8
1532220808431,1,11,33,-13,-16,-12,-6,-30
1532220808436,-5,-6,-10,10,17,10,-24,-23
1532220808441,3,-27,-3,12,8,3,7,13
1532220808446,2,21,-20,3,-3,1,2,-12
1532220808451,-3,4,16,0,6,2,-5,10
1532220808456,-1,38,-2,-12,-13,-8,7,11
1532220808461,0,-9,12,-1,-7,-5,3,-2
1532220808466,-4,-21,-6,0,4,3,-3,-9
1532220808471,12,1,7,-1,1,0,-6,48
1532220808476,-7,-8,7,-4,0,5,15,-9
1532220808481,-1,19,22,2,2,1,0,5
1532220808486,0,16,11,0,-4,-6,2,-15
1532220808491,-1,-19,-50,0,2,1,-7,21
1532220808496,10,-8,3,-3,0,3,7,-8
1532220808501,-12,24,15,-2,-3,-4,-9,-3
1532220808506,-11,-75,-32,-9,-2,-7,10,-19
1532220808511,6,32,21,6,-1,4,7,11
1532220808516,-9,-43,-2,10,7,3,-1,4
1532220808521,0,20,-24,-5,-6,-4,1,-19
1532220808526,3,1,8,-2,2,-1,-1,-2
1532220808531,-4,38,-3,-12,0,-3,-3,-10
1532220808536,0,-9,5,0,-5,0,7,17
1532220808541,8,-16,-12,-1,-1,0,-5,19
1532220808546,-1,-8,-8,-3,-3,-2,-7,5
1532220808551,-3,-9,7,-3,2,3,19,-7
1532220808556,1,45,19,2,1,-3,-29,-6
1532220808561,1,-49,-32,-5,-3,-1,9,6
1532220808566,2,28,13,-1,0,-1,-12,-12
1532220808571,0,-24,-13,-3,-3,1,8,-6
1532220808576,-1,6,7,0,1,-2,7,20
1532220808581,3,9,13,1,1,-2,-4,-4
1532220808586,4,4,-8,-2,-4,-1,3,-2
1532220808591,-13,-9,18,9,3,1,-5,2
