1532063668029,-1,1,-1,-2,-1,0,0,-2
1532063668034,-1,-2,-2,0,0,-2,-2,1
1532063668039,0,-1,-1,-1,-1,-1,-2,0
1532063668044,-2,-1,-2,-1,-2,-1,0,-1
1532063668049,-1,-2,1,-1,0,-3,-1,-1
1532063668054,-2,-2,-1,-2,-1,-1,0,0
1532063668059,0,-1,0,-1,-1,-1,1,-1
1532063668064,-2,0,-1,-1,-1,0,-4,-1
1532063668069,1,-1,-1,0,-2,-1,1,0
1532063668074,2,-1,-1,-1,-2,-3,-2,0
1532063668079,0,0,-1,0,0,-1,0,0
1532063668084,-1,-1,0,-2,-1,0,0,-2
1532063668089,0,0,0,0,0,-1,-1,0
1532063668094,0,1,-2,0,0,-1,0,0
1532063668099,-1,-1,0,-2,-2,0,-1,0
1532063668104,-1,-1,-3,1,-1,-2,-1,0
1532063668109,-1,-2,-3,-2,0,-1,1,0
1532063668114,-1,0,1,-2,-1,0,-1,-4
1532063668119,-1,0,0,-1,0,1,1,-1
1532063668124,-1,0,0,-2,0,-2,0,-2
1532063668129,-1,-1,0,-3,-2,-1,-2,-1
1532063668134,-1,0,-2,1,0,0,2,1
1532063668139,0,0,-2,0,-2,-1,-1,1
1532063668144,-1,1,-1,0,-1,1,1,-1
1532063668149,-1,0,-2,-1,-1,-2,-2,0
1532063668154,-1,-2,-1,0,-2,-2,-2,0
1532063668159,-1,-2,0,-2,-2,-2,1,-1
1532063668164,-1,0,-1,0,0,-1,-2,-3
1532063668169,-2,-1,-1,-1,0,-1,-1,-1
1532063668174,-1,-1,-1,-1,-1,0,-1,-1
1532063668179,2,-3,0,-1,0,0,-1,0
1532063668184,0,0,0,0,-2,0,-1,-1
1532063668189,0,-2,0,-1,1,0,0,-1
1532063668194,-2,-1,0,0,0,-1,0,0
1532063668199,-1,0,0,-1,0,-1,-1,0
1532063668204,-1,-1,-1,-1,-2,0,1,-1
1532063668209,-1,-1,-1,-2,-1,-1,0,-1
1532063668214,-1,-1,-1,-1,-1,0,-1,-2
1532063668219,-1,0,-1,0,0,0,0,-1
1532063668224,-1,-1,-2,-1,-1,-1,0,0
1532063668229,2,0,1,1,-2,0,-1,-2
1532063668234,0,-1,-1,-3,0,-1,-1,0
1532063668239,-2,-1,0,0,0,0,-1,-1
1532063668244,0,-1,-2,-1,-2,0,-1,2
1532063668249,0,-1,-1,-1,1,0,-2,-1
1532063668254,0,-1,-1,-1,-2,0,-1,1
1532063668259,-1,0,0,0,0,0,-1,0
1532063668264,0,-2,0,-1,1,0,-2,0
1532063668269,-2,0,-2,1,1,1,2,0
1532063668274,0,-1,0,-1,-1,-2,0,-2
1532063668279,-1,-1,-2,-2,-1,-3,0,-1
1532063668284,-1,1,0,-2,-1,0,-2,-1
1532063668289,0,0,0,-2,-1,-2,-2,0
1532063668294,-1,-2,0,0,0,-2,-1,-1
1532063668299,1,-2,-1,0,-2,0,0,-1
1532063668304,-1,0,-1,-1,0,-1,-2,-1
1532063668309,-2,-1,-2,0,-1,-1,0,-1
1532063668314,-1,1,-1,1,-2,-1,1,-3
1532063668319,-1,0,1,-1,-2,0,-2,-1
1532063668324,-1,-2,-1,-1,0,-1,0,1
1532063668329,0,-1,0,0,-3,-1,-1,-1
1532063668334,-1,-2,-2,0,-1,-1,-3,1
1532063668339,-1,0,-1,0,-1,0,1,0
1532063668344,-1,-2,-1,1,-1,-1,1,0
1532063668349,0,-1,-2,0,-1,-2,-1,2
1532063668354,1,-1,-1,-2,0,0,-2,-1
1532063668359,0,0,-1,0,-1,0,-3,-2
1532063668364,-1,-3,-2,1,0,0,-1,-1
1532063668369,0,-1,-3,0,-1,0,1,-2
1532063668374,-2,-2,0,-1,-1,-1,-3,-1
1532063668379,0,-1,1,-2,-1,-1,-1,0
1532063668384,0,-1,0,-2,-3,-1,0,-1
1532063668389,-3,-1,-1,-1,-1,0,-2,0
1532063668394,-1,-2,-1,-1,0,-2,-1,-1
1532063668399,0,-1,-1,0,-1,0,0,0
1532063668404,-1,-1,0,0,0,-1,-1,-1
1532063668409,-1,-2,-2,-1,-1,0,-2,-1
1532063668414,0,-1,-2,0,0,-1,2,-1
1532063668419,-1,-4,1,1,0,-1,1,0
1532063668424,-1,0,-1,0,1,-1,0,-1
1532063668429,0,-1,0,-1,0,-2,-1,-2
1532063668434,0,0,0,-1,-3,0,0,-2
1532063668439,-2,-1,-2,-1,0,-3,-2,0
1532063668444,0,-1,-1,-1,-1,-2,-1,-2
1532063668449,1,-1,0,-2,0,0,2,-2
1532063668454,0,0,-1,0,-1,0,-2,-1
1532063668459,-2,0,0,0,1,-1,1,-1
1532063668464,0,1,0,-2,0,-1,0,-1
1532063668469,0,0,0,1,-1,-2,-1,1
1532063668474,-1,-1,-2,-3,-2,1,1,-1
1532063668479,-2,-1,-1,-1,-2,-1,-2,-1
1532063668484,-1,0,0,-2,0,0,-1,-1
1532063668489,0,-1,0,-3,-1,-1,0,1
1532063668494,-2,0,1,-2,1,-1,-2,0
1532063668499,-1,-1,-2,0,-1,-1,2,1
1532063668504,0,-1,-2,-1,-1,0,-2,-1
1532063668509,0,-1,2,-1,-2,-1,-2,0
1532063668514,-1,-1,-2,0,-1,0,0,-1
1532063668519,-1,-1,1,-2,-1,-1,-1,0
1532063668524,-1,-1,0,0,-2,-1,0,-3
1532063668529,-1,0,0,0,0,1,-1,-1
1532063668534,-1,-1,1,0,0,-1,0,0
1532063668539,0,-1,1,0,-2,1,0,-1
1532063668544,-1,-1,-1,-1,-2,-2,-1,-1
1532063668549,-1,0,0,-2,-1,-1,-1,0
1532063668554,0,-1,0,0,-1,-1,-1,-2
1532063668559,-2,1,-2,-1,0,0,-2,-2
1532063668564,0,-5,0,-1,0,0,-2,1
1532063668569,-2,-2,-1,0,0,-2,-3,-2
1532063668574,0,0,-1,-1,-1,0,1,-1
1532063668579,1,-1,0,0,1,-1,-1,-1
1532063668584,-1,0,-1,0,-1,-1,-1,0
1532063668589,-1,-1,-1,0,0,-2,1,0
1532063668594,-1,-1,1,-2,0,-2,-1,-2
1532063668599,-1,-2,-1,-1,0,-1,2,0
1532063668604,0,-1,1,-1,-3,0,-2,-1
1532063668609,1,0,0,-2,-1,-1,0,0
1532063668614,0,0,0,0,-1,0,-1,0
1532063668619,-1,-2,-1,1,0,1,-2,-1
1532063668624,-1,1,-1,-1,1,-1,-2,-1
1532063668629,-1,-3,-1,-1,-1,0,-1,-1
1532063668634,-2,0,1,-1,2,-1,0,-1
1532063668639,0,-2,-1,0,-3,-2,-3,-2
1532063668644,-2,1,-1,-1,-1,-2,1,-1
1532063668649,0,0,1,0,-1,0,-3,-1
1532063668654,0,0,0,0,-1,1,-1,0
1532063668659,-2,0,-2,-2,-1,-2,-1,-2
1532063668664,0,1,-1,0,-1,0,0,-3
1532063668669,1,0,0,-2,0,0,-1,-1
1532063668674,0,0,-2,-2,0,-1,-2,0
1532063668679,-1,-1,0,1,0,-1,-1,-2
1532063668684,0,-2,-1,-1,-1,0,0,1
1532063668689,-2,0,-3,-1,-2,-2,-1,-1
1532063668694,-3,-2,0,-2,-1,-1,2,-2
1532063668699,-1,-1,-1,-1,-2,1,-3,-2
1532063668704,-1,-1,0,-1,0,0,1,-1
1532063668709,0,0,-1,-2,-2,0,0,0
1532063668714,-1,-1,0,0,-1,-1,-1,0
1532063668719,0,0,-3,-2,0,0,-1,1
1532063668724,-1,-2,-1,-1,-2,0,-3,-2
1532063668729,-1,-2,-2,0,-1,0,-3,-2
1532063668734,0,-3,-1,0,-2,-1,0,-1
1532063668739,0,0,-1,-1,0,0,-2,-2
1532063668744,0,0,-1,0,-2,1,-1,-1
1532063668749,0,-1,0,0,-1,-1,0,-1
1532063668754,-1,0,-1,-1,-3,1,-1,0
1532063668759,0,-1,0,1,-1,0,2,0
1532063668764,0,-2,-1,0,-1,-2,0,-2
1532063668769,-3,-1,-1,0,0,-1,1,-1
1532063668774,-1,-2,-1,-2,-2,-3,-2,-1
1532063668779,-2,-2,0,-2,-1,-1,-1,-3
1532063668784,1,0,-1,0,0,-1,0,0
1532063668789,-1,-1,-1,0,-1,-2,-1,-2
1532063668794,-2,-1,-1,0,-1,1,-1,0
1532063668799,-1,0,1,-2,-1,-1,-3,-1
1532063668804,-2,0,0,-2,-2,-2,-1,-1
1532063668809,-1,0,0,-1,-2,0,-1,-1
1532063668814,-1,0,-1,1,-1,-1,-1,0
1532063668819,0,0,-1,0,0,-2,-2,1
1532063668824,1,-1,0,0,-1,-1,-2,-3
1532063668829,-1,-1,-1,0,0,0,0,-1
1532063668834,0,-1,0,-1,-1,0,-1,-1
1532063668839,-1,-1,-1,-1,0,-2,0,0
1532063668844,-1,-2,-1,0,-2,-3,-2,-2
1532063668849,0,-2,-1,1,1,0,-2,-1
1532063668854,-2,-1,-2,-1,0,1,-1,-1
1532063668859,0,1,0,-2,-1,-2,0,-1
1532063668864,-1,0,-1,-1,0,1,-1,-1
1532063668869,-1,0,-1,-1,1,0,0,1
1532063668874,-2,0,-2,0,-1,-1,-1,-1
1532063668879,-1,0,-1,-2,-2,0,0,-1
1532063668884,-2,-2,-1,0,-1,-3,0,0
1532063668889,-1,-1,-1,-2,-1,-1,-1,0
1532063668894,-1,0,-1,-1,0,-1,0,-1
1532063668899,-1,-2,0,-1,-1,-1,-1,-1
1532063668904,0,-1,-1,-1,-1,0,0,0
1532063668909,-2,-1,-1,-1,-1,0,-1,-1
1532063668914,-2,-3,-1,0,1,-2,-2,-1
1532063668919,-1,0,-1,0,0,-1,1,-1
1532063668924,-1,-1,-1,0,-2,0,-1,1
1532063668929,1,0,1,-1,-2,-2,-1,-1
1532063668934,0,-2,-2,-1,0,0,-1,-1
1532063668939,0,-1,0,-1,1,-1,-1,-1
1532063668944,-1,-1,-2,-1,0,-2,0,1
1532063668949,-1,0,-2,-1,-2,-2,-1,0
1532063668954,0,0,-1,-2,-2,-1,-1,-3
1532063668959,-1,-2,-2,0,-1,0,0,-2
1532063668964,-2,0,-2,-2,0,-1,-1,0
1532063668969,0,-1,-1,0,0,0,-1,0
1532063668974,1,-2,0,0,0,-1,0,-1
1532063668979,-1,-2,-2,-1,0,-3,-1,-2
1532063668984,-1,-1,-1,-1,0,-1,0,0
1532063668989,-2,-1,-1,-1,0,-2,0,-2
1532063668994,-1,0,0,-1,-1,-1,-1,-1
1532063668999,-2,1,0,0,0,-1,0,0
1532063669004,-1,-1,-1,-3,0,0,-2,-1
1532063669009,-1,-1,-2,-2,-1,-2,1,-1
1532063669014,0,-1,-1,0,-1,-1,0,0
1532063669019,0,-1,-1,-1,-2,1,0,0
1532063669024,-2,0,0,-1,-1,0,0,1
1532063669029,-2,-4,-2,1,-1,0,0,0
1532063669034,-2,0,-1,-1,0,-1,1,0
1532063669039,0,0,-1,0,0,0,0,-2
1532063669044,-1,0,0,1,-2,-1,0,-1
1532063669049,-2,-1,0,-2,-1,-1,-1,-1
1532063669054,0,-2,0,-1,-1,-2,-2,-2
1532063669059,-1,-1,0,-1,-1,-1,-3,1
1532063669064,-2,-1,-1,-1,1,-1,-1,0
1532063669069,-1,0,1,-2,-2,1,0,-1
1532063669074,0,0,-1,-1,-1,-2,0,-1
1532063669079,-1,0,1,0,-1,-1,0,-1
1532063669084,-1,-1,-2,-1,0,0,-2,-1
1532063669089,-3,-2,1,0,0,-1,-1,0
1532063669094,-2,0,-2,-2,0,1,-2,-1
1532063669099,0,-3,-1,0,-1,-1,0,-1
1532063669104,0,-1,0,1,0,1,-1,-2
1532063669109,0,-1,0,-2,0,-1,-1,0
1532063669114,-3,-2,0,-2,-1,-3,-1,-1
1532063669119,-2,-1,-2,-1,-1,-1,0,1
1532063669124,0,0,0,-1,-1,0,1,0
1532063669129,-1,2,0,0,-2,1,0,-2
1532063669134,0,-2,1,-1,2,-1,-2,-1
1532063669139,-1,0,-2,-2,-1,-1,1,-1
1532063669144,0,-1,-2,-1,-1,-2,0,-1
1532063669149,1,0,-1,0,-2,0,-1,-1
1532063669154,-1,1,0,0,0,-1,-2,0
1532063669159,-2,-2,-2,-1,-1,-1,-1,-1
1532063669164,-1,-3,-1,0,-2,-1,-3,0
1532063669169,-1,0,0,0,0,-3,-2,0
1532063669174,-1,0,-1,-1,-1,-1,0,-2
1532063669179,0,-1,1,1,0,-2,-1,-1
1532063669184,-2,1,-1,-1,-1,0,-1,-1
1532063669189,0,-2,-1,-3,0,0,-1,-1
1532063669194,1,-1,-2,1,-1,1,1,0
1532063669199,-2,-1,0,-1,-1,0,0,-1
1532063669204,0,-1,2,0,-2,-1,-3,2
1532063669209,-1,-1,-3,-1,1,-1,2,-2
1532063669214,-1,0,0,0,-2,-1,-1,-1
1532063669219,1,0,-2,-2,-1,-1,0,1
1532063669224,-1,-4,-1,-1,0,-1,1,-2
1532063669229,-1,0,-1,-1,-3,-1,-2,1
1532063669234,-1,-1,0,-2,-3,-1,-1,-2
1532063669239,0,0,-1,-1,-1,0,-2,-1
1532063669244,0,0,0,-1,0,-2,0,1
1532063669249,-1,0,-2,0,0,-2,0,-1
1532063669254,-3,-2,-2,0,0,-1,0,1
1532063669259,-1,-1,1,0,-2,-1,-3,-2
1532063669264,0,0,-2,-1,-1,-1,-1,-1
1532063669269,0,1,-2,-1,0,-1,1,-2
1532063669274,-1,0,-3,-1,1,-1,-1,-1
1532063669279,-1,-2,-1,-2,-2,0,0,1
1532063669284,-2,0,0,0,-2,1,-1,-2
1532063669289,0,-1,0,-2,0,0,-2,1
1532063669294,-1,-1,0,0,-2,0,0,0
1532063669299,0,1,-3,-3,2,-1,-1,0
1532063669304,0,0,-1,0,-1,-2,0,-2
1532063669309,0,-1,0,-1,0,-2,-2,-2
1532063669314,-3,0,0,-1,0,-1,-1,0
1532063669319,-1,0,0,-2,0,0,-1,-1
1532063669324,0,-1,-1,-1,-2,-1,1,0
1532063669329,-1,-2,-1,0,-1,0,-1,-1
1532063669334,0,-1,0,-1,0,-1,-1,0
1532063669339,-3,0,-1,0,0,-1,-2,-1
1532063669344,-1,-2,0,-1,0,-1,2,-1
1532063669349,-1,0,-1,-1,-1,-2,-1,-1
1532063669354,-2,-1,-1,-2,-2,-2,2,0
1532063669359,0,-2,-1,0,-2,-2,-3,-1
1532063669364,-2,-2,-1,-2,-1,0,-1,-1
1532063669369,0,0,-1,-1,-2,-1,-3,1
1532063669374,0,1,-1,-1,0,-2,0,1
1532063669379,-1,0,-1,0,-1,-1,-1,-1
1532063669384,-2,-2,-1,0,-1,-1,0,0
1532063669389,0,-1,0,0,-2,-1,-3,0
1532063669394,0,0,-1,-2,-1,0,1,0
1532063669399,-2,-1,0,-1,-1,1,0,1
1532063669404,0,0,-2,-1,0,0,-2,1
1532063669409,-2,-1,-1,-1,0,0,0,-1
1532063669414,-1,-1,0,-1,-2,-1,-2,-1
1532063669419,0,-1,-2,-1,0,-2,0,-1
1532063669424,-1,0,-1,-1,-1,-1,0,0
1532063669429,-1,-1,-1,-1,0,0,0,0
1532063669434,-1,-2,0,0,-1,0,-2,-1
1532063669439,-1,-1,-2,0,-2,-1,0,-1
1532063669444,-1,0,0,0,-2,-1,-1,0
1532063669449,0,-1,-2,0,0,-1,0,0
1532063669454,0,-2,-2,0,-1,0,-1,-1
1532063669459,0,-1,-1,-2,-4,-3,-2,-4
1532063669464,1,-1,-3,-2,1,0,-1,-1
1532063669469,-1,-1,0,-1,-1,0,-1,-1
1532063669474,-1,-2,0,0,2,-1,-1,-1
1532063669479,0,-1,1,0,1,0,1,2
1532063669484,0,-2,0,0,-1,-2,-1,0
1532063669489,-1,-2,0,1,-2,-2,1,-1
1532063669494,0,1,-1,-2,-2,0,1,1
1532063669499,0,0,0,0,-2,0,-1,-3
1532063669504,-1,-1,0,0,-1,0,-2,-2
1532063669509,-1,-1,-1,-1,-1,-1,0,0
1532063669514,0,1,1,0,-2,-1,-2,0
1532063669519,-1,-4,1,-1,0,-1,-2,-1
1532063669524,-1,-1,0,0,0,-2,-1,-3
1532063669529,-1,-1,-3,-3,-1,-1,0,-2
1532063669534,-2,-2,-1,-1,0,0,-2,-1
1532063669539,-3,-1,-2,0,0,-1,1,-1
1532063669544,-1,0,1,-1,0,0,0,-1
1532063669549,0,0,1,-1,0,0,-1,1
1532063669554,0,1,-1,-2,0,-1,-2,-1
1532063669559,0,-1,-2,0,0,1,2,0
1532063669564,-1,0,0,-2,-1,-1,-1,0
1532063669569,0,-1,0,0,-1,-2,-1,0
1532063669574,-1,-2,-1,-1,-1,-1,-1,0
1532063669579,-1,-2,-2,1,-1,-1,-2,0
1532063669584,-1,-2,-3,-1,1,-3,-3,-1
1532063669589,-1,0,0,0,-1,0,0,-2
1532063669594,0,-1,0,-2,0,-2,-2,0
1532063669599,-1,-1,0,0,-1,-1,-4,-2
1532063669604,0,-2,-2,0,1,-1,0,0
1532063669609,-1,0,-2,-2,-2,0,0,-2
1532063669614,0,-2,-2,-1,-1,-2,-1,-2
1532063669619,0,1,-2,-1,0,-1,-3,-2
1532063669624,0,-1,0,-1,-3,0,-2,0
1532063669629,-1,0,0,-1,-2,-1,0,-1
1532063669634,-2,1,1,1,-1,0,-1,-2
1532063669639,-1,-1,1,-1,-1,-1,0,0
1532063669644,-1,0,-1,0,-1,0,0,-2
1532063669649,-1,-1,-2,1,0,0,-1,-2
1532063669654,-1,-1,-2,0,-2,-1,-1,0
1532063669659,0,-2,-1,-2,-1,-1,1,0
1532063669664,-2,0,-1,-3,-2,-2,-1,-1
1532063669669,0,-1,0,-1,-1,1,0,-1
1532063669674,-2,0,0,0,-3,-1,-2,-2
1532063669679,0,0,-1,1,-1,1,-1,0
1532063669684,-2,-3,1,-1,0,0,0,1
1532063669689,-1,-1,-1,-2,-1,-2,-1,0
1532063669694,-1,-2,-1,-4,0,-1,-1,-2
1532063669699,-1,0,-3,0,0,-1,0,-1
1532063669704,-1,0,-1,1,0,-2,-3,-1
1532063669709,-1,-1,0,-1,0,-2,-2,1
1532063669714,-2,-2,-2,0,0,0,-1,-2
1532063669719,-1,0,-1,-1,-1,-1,-1,-3
1532063669724,-1,-1,0,-1,-1,1,0,1
1532063669729,0,-2,0,-1,-1,0,-3,-1
1532063669734,0,-1,-2,0,0,1,-1,0
1532063669739,-1,0,0,-1,-1,0,1,-1
1532063669744,0,1,0,-1,-2,-1,0,-2
1532063669749,1,-2,0,-1,0,-1,-2,0
1532063669754,0,0,0,-1,-2,0,-2,-1
1532063669759,0,-2,0,-2,-1,-1,0,-1
1532063669764,0,-1,-2,-1,-2,-2,1,-2
1532063669769,-1,1,-2,0,-1,-2,-1,-3
1532063669774,-2,0,0,0,0,-1,2,0
1532063669779,-1,0,-1,-1,-1,0,-3,-1
1532063669784,0,1,-1,-2,-1,0,-2,0
1532063669789,0,1,1,-1,-1,-1,1,2
1532063669794,0,-2,-1,-2,1,1,-2,-2
1532063669799,0,-1,-2,0,1,-1,-1,-2
1532063669804,-1,-1,0,-1,-1,-2,-2,-1
1532063669809,-1,-1,-4,0,-1,0,-1,-2
1532063669814,-1,0,-1,-1,0,-2,0,-3
1532063669819,-1,-1,0,-2,-1,0,0,0
1532063669824,-1,-2,-2,-1,-1,0,-1,-2
1532063669829,-1,0,-2,0,-1,0,-1,1
1532063669834,0,0,-1,0,-2,-2,0,0
1532063669839,-2,-1,-1,-1,-2,-2,0,-1
1532063669844,-1,-1,0,-1,-2,0,0,0
1532063669849,-1,-2,1,-2,0,0,0,-1
1532063669854,0,-2,-2,0,-3,-1,-1,2
1532063669859,0,1,0,0,-1,-1,1,-2
1532063669864,-2,-1,0,0,-1,-1,-1,0
1532063669869,0,-1,-2,0,-1,-1,0,0
1532063669874,-1,-1,-2,-1,0,-2,-2,-1
1532063669879,1,-1,-1,-1,-1,0,-2,1
1532063669884,-2,-1,1,0,-1,-1,1,-1
1532063669889,-1,0,-1,0,0,-1,-1,1
1532063669894,0,0,-2,0,-1,-2,-2,1
1532063669899,-1,0,-1,-1,-2,0,-1,-1
1532063669904,1,0,0,1,0,0,0,-1
1532063669909,0,0,-2,0,-2,-2,-2,-2
1532063669914,0,0,1,-1,0,-1,-1,-3
1532063669919,0,0,-1,-1,0,-1,-3,1
1532063669924,-1,1,-3,-2,-2,-2,-1,-2
1532063669929,-3,-2,-1,1,-2,0,0,-1
1532063669934,-1,-2,-3,-1,-1,-2,0,0
1532063669939,-1,-4,1,0,-2,-1,-2,0
1532063669944,-1,-2,-2,-3,-1,0,-1,-1
1532063669949,-1,-2,-3,-1,0,-1,-1,1
1532063669954,-1,-1,-1,-2,-1,-1,0,-3
1532063669959,-1,-1,-2,-1,0,-1,-1,-2
1532063669964,-1,0,0,-1,0,-1,-1,0
1532063669969,0,0,-2,-2,-1,-1,-2,-1
1532063669974,-1,-2,0,0,-2,0,-1,-1
1532063669979,1,1,-1,0,0,0,1,0
1532063669984,1,1,-1,0,1,-1,-1,-2
1532063669989,-1,-5,-3,-1,-2,-1,-1,-1
1532063669994,0,-1,1,1,-1,-2,-1,-2
1532063669999,-1,-2,0,0,-1,-1,-3,0
1532063670004,-1,-1,0,-1,0,0,1,0
1532063670009,-2,-1,-1,0,0,-1,0,-1
1532063670014,0,-1,0,-1,-2,0,0,0
1532063670019,-2,0,-3,-2,-2,-1,0,1
1532063670024,-1,0,-1,-1,-3,-1,0,-1
1532063670029,-1,0,-1,-1,-1,-2,-2,0
1532063670034,0,1,-3,0,0,-1,-1,-1
1532063670039,0,-1,1,-1,0,-3,-1,-3
1532063670044,0,-1,-1,0,0,0,-1,1
1532063670049,0,1,0,-1,-1,0,1,-1
1532063670054,-1,-2,-2,-2,-1,0,-1,-1
1532063670059,-2,0,0,1,0,-1,0,0
1532063670064,-1,-1,-2,-1,0,0,0,0
1532063670069,0,-1,1,1,-1,-2,-2,1
1532063670074,0,0,-1,-1,-1,0,-1,-1
1532063670079,-1,-2,0,0,-1,-1,-1,-3
1532063670084,-2,0,-1,-1,-4,0,1,1
1532063670089,0,-1,-3,-2,0,0,-2,-1
1532063670094,-1,-1,-1,-1,-1,-2,-1,0
1532063670099,0,-1,-1,-2,1,-1,-1,-1
1532063670104,-1,2,0,-1,-1,0,1,-1
1532063670109,-1,-3,1,-1,-1,-1,0,-1
1532063670114,-2,0,-1,0,-1,-1,-2,-2
1532063670119,-2,-1,0,0,-1,0,0,-1
1532063670124,0,-1,0,-1,0,0,0,0
1532063670129,-1,-1,-1,-3,-1,0,0,-2
1532063670134,-1,-2,-1,-1,0,-1,1,-1
1532063670139,0,-1,-2,-3,0,-1,-1,0
1532063670144,-1,-1,-3,0,-2,0,0,0
1532063670149,-1,0,-1,1,0,-1,-2,1
1532063670154,1,-1,-2,-1,0,-1,0,-2
1532063670159,-1,-2,-1,-1,-1,-2,0,0
1532063670164,-1,-2,-1,0,-2,-1,0,0
1532063670169,-1,-1,-1,-1,0,-1,0,0
1532063670174,-2,-2,0,-1,0,-1,-2,-2
1532063670179,0,-4,-2,-2,0,-1,-1,-3
1532063670184,-3,0,-1,-2,-1,-2,1,-1
1532063670189,0,-1,0,-2,-2,-1,-1,-2
1532063670194,-1,-2,0,0,0,0,0,1
1532063670199,1,1,0,1,-1,-1,0,0
1532063670204,0,-1,0,-1,0,-2,-2,-1
1532063670209,-1,0,-1,-1,-2,-1,0,-1
1532063670214,-1,0,-1,-1,-2,0,-1,0
1532063670219,0,-1,0,-1,-1,0,0,-1
1532063670224,-1,0,-1,-2,-1,0,-1,-1
1532063670229,0,1,0,1,-1,1,0,0
1532063670234,-1,0,1,0,-1,-2,-1,1
1532063670239,-1,-1,-1,-1,0,-2,0,0
1532063670244,0,-1,-1,0,0,0,0,-2
1532063670249,0,-1,0,-1,-1,0,-1,-2
1532063670254,0,-1,-1,-1,-1,0,-1,0
1532063670259,-1,-1,0,-1,-1,1,-3,-1
1532063670264,-1,-1,0,0,-1,0,1,-2
1532063670269,0,-2,-1,-1,-2,1,0,-1
1532063670274,1,-4,-1,-1,0,-2,0,-2
1532063670279,-1,-1,0,-1,-2,-1,-2,0
1532063670284,-1,1,-1,1,-2,-2,-1,-1
1532063670289,-2,-2,-1,0,-1,-2,0,0
1532063670294,-1,0,-1,-1,0,1,-2,-2
1532063670299,0,0,-2,-2,-1,0,-1,-1
1532063670304,-1,0,0,-1,0,-2,-1,1
1532063670309,0,-2,-3,-1,0,-1,-1,-1
1532063670314,0,-1,0,0,-1,-3,0,-2
1532063670319,-2,0,0,0,0,0,1,-1
1532063670324,-1,-1,1,-1,-1,-1,-2,0
1532063670329,-1,-1,-2,0,-1,-1,-2,0
1532063670334,-1,-3,-1,-1,-1,-2,0,-2
1532063670339,-1,-1,-1,1,-1,-1,-1,-2
1532063670344,-1,-3,-3,-1,-1,1,0,-1
1532063670349,-2,-1,1,0,0,-1,-1,-2
1532063670354,1,0,-1,-2,-1,0,-2,1
1532063670359,-2,0,-2,-1,-2,0,1,-3
1532063670364,0,0,0,-2,0,-2,0,0
1532063670369,0,-1,-1,-1,-2,-2,-3,0
1532063670374,-2,0,-1,0,1,1,2,1
1532063670379,-1,0,-1,-2,1,1,-1,-2
1532063670384,-2,-3,-1,-1,-2,-1,-3,-1
1532063670389,-2,1,0,-1,0,-1,1,0
1532063670394,-1,-2,-2,1,-2,0,-2,-2
1532063670399,-1,-2,-2,0,-1,-1,-2,1
1532063670404,0,-1,-1,-1,-1,-1,-1,0
1532063670409,0,-2,-1,0,-1,0,-1,0
1532063670414,0,0,-1,-1,0,-1,-1,-3
1532063670419,0,0,-1,1,0,-2,0,-1
1532063670424,1,0,-1,0,0,-1,-1,0
1532063670429,0,-1,-2,-2,-2,-2,1,1
1532063670434,-2,1,-1,-2,-2,-1,-2,0
1532063670439,1,-2,-1,-1,-1,-3,-1,0
1532063670444,-2,0,-1,-1,0,1,-1,-1
1532063670449,-1,-2,-2,0,2,-1,0,-2
1532063670454,0,0,-1,-1,0,-2,-2,-1
1532063670459,-1,0,1,-1,-1,-2,-1,-1
1532063670464,0,-1,0,-1,-1,0,-3,-4
1532063670469,-2,0,1,-2,0,0,2,1
1532063670474,-1,-2,0,-2,0,-2,-2,-2
1532063670479,1,-1,1,-1,0,0,-2,-1
1532063670484,1,-1,-1,-2,-1,-1,-1,-2
1532063670489,-3,-1,-1,0,0,1,-2,0
1532063670494,-1,-2,0,0,0,-1,1,2
1532063670499,0,0,-1,-2,-2,0,-1,0
1532063670504,-2,-3,-1,0,0,-2,2,0
1532063670509,0,-1,-2,-1,-1,0,-3,-1
1532063670514,-2,-1,-2,-1,0,0,1,-1
1532063670519,-2,0,-2,0,0,0,2,-1
1532063670524,-2,-1,0,0,-1,0,0,-2
1532063670529,-1,-2,1,-1,-3,0,-2,0
1532063670534,0,0,0,0,-2,0,-1,-1
1532063670539,0,-1,-3,-2,-1,-1,-1,0
1532063670544,-1,0,-1,0,0,-3,-2,-2
1532063670549,0,0,0,-2,0,-2,3,-1
1532063670554,-1,-1,-2,0,0,0,1,-2
1532063670559,-1,-3,-1,-2,0,-1,-1,-1
1532063670564,0,-2,0,-2,-3,1,1,1
1532063670569,-1,-1,-1,0,-1,-1,0,-1
1532063670574,0,-1,-1,-1,-1,-1,-3,0
1532063670579,0,-1,0,-2,-2,-1,2,-1
1532063670584,-2,-1,-1,-2,-1,-2,0,0
1532063670589,1,0,1,1,-1,-1,-3,-1
1532063670594,0,-1,-1,-2,0,-1,0,-2
1532063670599,-1,-2,0,0,0,-1,-2,-1
1532063670604,0,0,0,-1,0,-1,-1,1
1532063670609,0,0,0,-2,-1,0,-1,-2
1532063670614,-1,-3,-1,0,0,-1,-2,-2
1532063670619,-1,0,-1,0,-1,1,-1,0
1532063670624,1,-1,-1,0,0,0,-1,1
1532063670629,-1,-1,0,-1,-1,-1,-2,-1
1532063670634,1,0,-2,-1,-2,-1,-2,0
1532063670639,-1,0,-1,-2,-1,-1,-2,0
1532063670644,0,-1,-2,-2,-1,-2,0,0
1532063670649,-1,-2,-2,-1,-1,-2,-2,-3
1532063670654,0,-1,0,0,-2,0,0,-1
1532063670659,-2,-1,0,0,1,0,0,-1
1532063670664,0,-1,-2,1,0,0,1,-2
1532063670669,-1,-2,-1,-1,-1,0,0,-2
1532063670674,0,-2,-1,-1,-2,-1,-1,1
1532063670679,-1,-2,-1,1,-1,-2,0,-1
1532063670684,-1,-2,-1,0,-2,-2,-3,0
1532063670689,0,0,-1,-1,-1,-2,1,-1
1532063670694,0,0,-1,0,0,-1,0,-1
1532063670699,0,-1,0,0,-3,-2,-2,-2
1532063670704,-1,-2,0,-2,0,-2,0,0
1532063670709,-1,-2,-2,-1,-2,-1,-1,0
1532063670714,-2,1,-1,1,-1,-1,-1,-1
1532063670719,-1,-1,-1,1,-1,-1,-1,-1
1532063670724,0,0,0,1,0,1,1,-2
1532063670729,-1,1,0,-1,-1,-1,-1,-3
1532063670734,1,-1,-1,-2,-1,0,0,0
1532063670739,-1,-3,-1,-2,0,-2,-1,-1
1532063670744,1,0,-1,-1,0,-2,0,-1
1532063670749,-2,-1,-1,0,0,-1,-2,-2
1532063670754,-1,-1,-2,0,-1,0,0,-1
1532063670759,0,0,-1,-1,0,-2,-2,0
1532063670764,-1,-2,0,-2,-1,-1,-3,0
1532063670769,0,0,-1,-2,0,-2,1,0
1532063670774,-1,0,-1,-1,-1,0,-3,-1
1532063670779,-1,-1,-2,-2,-1,0,0,-2
1532063670784,-2,-1,1,0,-1,0,-2,0
1532063670789,-1,0,-2,1,-1,-1,-2,-1
1532063670794,0,-2,1,0,-2,-2,-3,-3
1532063670799,-1,-1,-2,0,-2,-1,-1,-1
1532063670804,-1,-1,-2,-1,0,-3,-3,-2
1532063670809,-1,-4,-1,-1,-1,-1,0,0
1532063670814,0,0,-1,-2,0,0,1,-1
1532063670819,0,-1,-2,-1,0,1,-2,0
1532063670824,0,-1,-2,0,0,-1,0,-2
1532063670829,1,-1,0,-1,-2,1,-1,-2
1532063670834,-1,-1,0,-2,-1,-1,0,-1
1532063670839,0,-2,-1,1,0,-3,-2,0
1532063670844,0,0,-2,-1,-1,-1,1,0
1532063670849,-1,-1,-2,-1,0,-1,-2,0
1532063670854,1,-3,0,0,-1,-1,-2,-1
1532063670859,1,2,-1,-2,-2,0,0,0
1532063670864,0,0,-1,-1,-1,2,-1,-2
1532063670869,0,-2,1,0,-1,0,0,2
1532063670874,-1,-2,-2,0,0,-1,0,-1
1532063670879,-1,-2,1,-2,0,0,-2,-2
1532063670884,-2,-2,0,1,-2,-1,0,-1
1532063670889,0,-1,1,-2,0,-1,-1,-1
1532063670894,0,-1,-2,-1,-1,0,0,0
1532063670899,-1,0,-3,1,-2,-2,0,0
1532063670904,0,-1,0,0,1,0,0,-1
1532063670909,-1,-1,-1,-1,1,-1,-1,-1
1532063670914,-1,0,-2,-1,-2,0,1,-1
1532063670919,0,2,-1,0,-1,1,-1,-2
1532063670924,-1,-1,-2,-2,-2,-1,-3,-2
1532063670929,0,1,0,-1,-2,-1,0,1
1532063670934,1,0,-1,-3,0,-1,-1,-4
1532063670939,-1,1,0,-2,-1,-2,0,-2
1532063670944,-1,-2,0,0,0,-1,-2,0
1532063670949,0,-2,-1,1,1,-1,1,0
1532063670954,1,0,1,-1,0,-3,-2,2
1532063670959,0,-1,0,0,-2,-1,0,-2
1532063670964,-1,1,-1,0,-2,0,-1,2
1532063670969,-2,0,-3,0,0,-1,-1,-1
1532063670974,-1,-2,1,0,-2,0,-2,0
1532063670979,0,-1,-1,-1,-1,-2,-1,-1
1532063670984,0,1,0,-2,-1,-2,0,0
1532063670989,-2,0,-1,1,-2,1,0,0
1532063670994,-2,-3,1,-1,-1,1,-1,-2
1532063670999,-1,0,-1,0,-1,0,-1,-1
1532063671004,-1,0,-1,-2,-2,0,-1,-2
1532063671009,0,-2,-2,-3,-1,-2,0,-1
1532063671014,-1,-1,-1,0,-1,-2,-3,-1
1532063671019,-1,-3,1,-1,1,0,1,-1
1532063671024,-2,-1,-1,0,-1,0,1,-1
1532063671029,-2,0,-1,0,-1,0,-2,-2
1532063671034,-1,0,-1,-1,0,0,0,0
1532063671039,-1,0,-1,-1,0,0,0,0
1532063671044,-2,-1,-1,-2,-2,-3,0,1
1532063671049,0,-1,0,0,-1,0,-3,-4
1532063671054,-1,0,-2,-1,0,1,-1,0
1532063671059,-1,-1,-2,0,0,-1,1,-1
1532063671064,0,-2,0,0,-2,0,-1,0
1532063671069,0,-1,1,-1,0,-2,0,0
1532063671074,-1,-3,1,0,-1,-1,-1,-1
1532063671079,0,0,-2,-2,-2,-2,0,-2
1532063671084,0,0,0,-1,-1,-3,-1,-2
1532063671089,0,-1,0,0,-1,-1,1,-1
1532063671094,-2,1,-1,-2,-1,-1,0,1
1532063671099,-1,-3,0,0,0,0,0,0
1532063671104,0,-1,1,-1,-1,-2,-3,-1
1532063671109,0,0,-1,-1,-1,-1,0,-1
1532063671114,0,-1,-1,-2,-1,-1,0,-1
1532063671119,-1,0,1,1,-2,-1,-3,-2
1532063671124,-1,0,-1,0,-1,-1,1,1
1532063671129,-1,-1,-2,1,-2,-1,2,-1
1532063671134,-2,-1,-2,-1,-2,-1,-2,1
1532063671139,-2,0,1,-1,-1,0,-2,0
1532063671144,-2,0,-3,-2,-1,1,1,0
1532063671149,0,0,-2,-2,-1,-3,-2,0
1532063671154,1,0,0,0,-1,-2,0,-1
1532063671159,-1,-1,-1,-1,-1,0,-1,-1
1532063671164,-1,-2,-3,0,1,-1,0,-3
1532063671169,-1,-1,-1,-1,-1,-1,-3,1
1532063671174,-1,-2,-2,-1,-2,-2,-1,-2
1532063671179,-1,-1,-2,0,0,-1,-1,-1
1532063671184,-2,-1,-1,0,-1,-1,0,-2
1532063671189,0,-1,0,-1,-1,0,-2,0
1532063671194,0,0,0,-2,0,-1,-2,1
1532063671199,0,-1,-1,-1,1,0,0,1
1532063671204,1,-3,-1,-2,-2,1,-1,0
1532063671209,-2,1,-1,-1,-1,-1,0,-3
1532063671214,-3,-3,0,0,-1,-2,0,-1
1532063671219,-1,-1,-1,-1,-1,-1,0,0
1532063671224,-1,0,0,0,-1,1,-1,-3
1532063671229,-2,-2,-1,-2,1,-1,-1,1
1532063671234,1,-1,-2,-1,-1,1,-1,0
1532063671239,0,-1,-1,-1,-2,-1,-3,0
1532063671244,-2,-3,-1,-1,-1,-2,1,-1
1532063671249,-1,-1,0,-1,-1,2,-2,0
1532063671254,-1,0,-1,-1,0,-1,-2,-2
1532063671259,-1,-2,-1,-1,-1,0,-2,0
1532063671264,0,0,1,-1,-1,-1,-3,0
1532063671269,0,1,0,-1,-1,0,0,-3
1532063671274,0,1,-2,-1,-3,-2,0,0
1532063671279,-1,1,-1,-1,-2,-1,-1,-2
1532063671284,0,-1,0,-1,0,0,-2,-1
1532063671289,-1,-1,-1,-1,-2,-2,0,0
1532063671294,-1,0,0,1,0,2,0,-1
1532063671299,0,-1,-2,1,-1,0,0,-1
1532063671304,-2,0,-2,-2,-2,-2,1,-1
1532063671309,0,0,-2,-1,-2,-1,-3,0
1532063671314,0,0,0,0,-1,1,0,0
1532063671319,-1,-6,-1,-1,-1,-1,0,-2
1532063671324,-2,0,-1,0,-1,-1,-1,-1
1532063671329,0,-1,-1,-1,-1,-1,-1,-1
1532063671334,-1,-1,-2,0,1,-2,1,-1
1532063671339,-1,1,0,0,0,0,-3,-1
1532063671344,0,-2,0,-1,-1,-1,-2,0
1532063671349,-3,-1,1,1,-1,-2,-1,-1
1532063671354,-3,-1,-1,1,-2,-1,-1,-1
1532063671359,-2,-1,0,-1,0,0,-1,1
1532063671364,-1,0,-2,-2,0,1,0,-2
1532063671369,0,-2,0,-1,-1,0,1,-1
1532063671374,0,1,-2,-2,0,-2,-2,-2
1532063671379,0,-1,0,-1,-1,-2,-1,0
1532063671384,-1,-1,-2,-1,0,0,-2,-1
1532063671389,-1,-1,-2,-2,-1,-2,1,-1
1532063671394,-2,1,1,-1,-1,-2,-1,1
1532063671399,-2,-1,0,-1,-1,-2,1,-1
1532063671404,-1,-1,-1,1,0,0,-3,-1
1532063671409,2,0,-1,-1,0,-1,0,-1
1532063671414,1,-5,0,-1,-2,-1,-1,-2
1532063671419,0,1,-2,-1,0,-2,1,0
1532063671424,0,-1,0,-1,-1,-2,-1,0
1532063671429,-2,-3,-1,0,0,1,-1,-4
1532063671434,0,0,1,-1,0,-1,1,-1
1532063671439,-1,0,-2,-1,-2,-2,-1,0
1532063671444,-2,1,-1,-1,-2,-1,1,-2
1532063671449,-2,0,-2,0,-1,0,-1,-1
1532063671454,0,-1,-1,-2,-2,1,-1,-4
1532063671459,-2,-2,-1,0,-2,1,0,-3
1532063671464,-1,-1,0,1,0,-1,-1,1
1532063671469,-2,0,-1,-1,0,-1,0,0
1532063671474,-1,1,-1,1,-1,-1,-1,-1
1532063671479,-1,-1,0,-2,-1,0,1,-3
1532063671484,0,0,-2,-1,-1,0,-3,-1
1532063671489,-2,0,-1,0,-3,-2,-2,0
1532063671494,1,0,-1,0,0,-1,-1,1
1532063671499,-2,-1,0,-1,-2,0,-2,-1
1532063671504,0,0,0,1,-2,-1,-1,-1
1532063671509,-1,-1,-1,-2,1,-1,1,0
1532063671514,1,-2,-1,0,-2,1,-1,2
1532063671519,0,1,-1,-1,-2,-2,0,-1
1532063671524,1,-2,0,-2,-2,-1,2,0
1532063671529,0,0,-2,-1,0,1,-1,-1
1532063671534,0,-1,0,0,-1,-1,1,-1
1532063671539,0,0,-1,-2,0,-2,-1,-1
1532063671544,0,-2,-1,1,-1,-1,0,-1
1532063671549,-1,0,0,0,1,0,0,-1
1532063671554,-2,1,-1,-1,0,0,-2,-1
1532063671559,-1,-2,-1,0,-1,1,-1,-1
1532063671564,0,0,-1,-1,2,0,-3,-2
1532063671569,-1,0,1,1,-2,-1,-2,0
1532063671574,-1,0,0,-1,-1,-1,1,-1
1532063671579,-1,-2,-1,-1,-1,-1,-2,0
1532063671584,-2,0,-2,-1,-1,-1,1,-1
1532063671589,0,-1,-2,-2,-1,-1,0,1
1532063671594,-1,-1,-2,-1,-2,0,-2,-2
1532063671599,0,0,0,-1,1,-3,1,0
1532063671604,0,0,-2,-1,0,-2,0,1
1532063671609,-1,-3,-2,-1,1,-1,0,0
1532063671614,-2,-2,0,-1,0,-1,-1,0
1532063671619,0,-1,0,1,-1,0,-1,1
1532063671624,-2,-1,-1,-3,-1,0,0,-1
1532063671629,-2,-1,-2,2,0,-1,-1,0
1532063671634,0,0,0,-1,-1,-2,-3,-1
1532063671639,-1,1,-3,-1,-1,-1,1,1
1532063671644,0,1,1,0,-2,-1,-1,1
1532063671649,0,-3,0,0,-1,-2,-2,-2
1532063671654,-1,-1,-1,-1,-1,-2,0,0
1532063671659,-3,-1,0,-1,0,0,-2,-1
1532063671664,0,1,-1,-1,1,0,-1,0
1532063671669,0,-1,-1,-1,-1,0,-2,-3
1532063671674,-2,-2,-2,0,0,1,0,-1
1532063671679,0,0,0,-1,-2,-1,-2,-2
1532063671684,-1,-1,-1,0,0,-1,-2,-2
1532063671689,0,0,0,-2,-2,-1,-2,1
1532063671694,0,-2,1,0,0,-1,0,-1
1532063671699,-1,0,-3,-2,0,-1,-2,0
1532063671704,-1,-1,-1,0,-1,0,0,-2
1532063671709,0,1,0,-1,1,0,-1,-2
1532063671714,-1,0,-1,0,-1,-2,-2,0
1532063671719,0,-1,1,0,-1,0,0,0
1532063671724,-3,-1,-1,0,-2,-1,0,0
1532063671729,-1,0,-1,-2,0,-1,-1,0
1532063671734,0,1,-1,-1,0,0,-1,-1
1532063671739,0,-1,-1,-2,0,0,0,0
1532063671744,0,-1,-1,-1,-2,0,0,-1
1532063671749,1,0,-1,-1,-2,-2,0,-1
1532063671754,-1,0,-1,0,-1,-1,0,1
1532063671759,0,-1,0,-1,0,0,0,-1
1532063671764,1,-2,-1,-2,0,-1,-2,0
1532063671769,-1,3,-1,1,-2,-1,0,-1
1532063671774,-2,-1,-2,0,-1,-1,-2,-1
1532063671779,0,0,-1,0,-1,-1,0,-1
1532063671784,-1,-2,1,-1,0,-1,-1,-1
1532063671789,0,-1,1,0,0,-1,1,-1
1532063671794,-1,0,-1,-2,0,-2,0,-1
1532063671799,0,-2,-1,-2,0,-2,-2,0
1532063671804,-1,-1,-1,0,1,-1,1,-1
1532063671809,-2,-3,0,-2,-3,0,-2,-1
1532063671814,0,0,0,0,-1,0,0,0
1532063671819,-2,0,0,-1,0,0,0,-1
1532063671824,-2,0,-1,-1,-2,-1,0,0
1532063671829,1,-1,-1,-2,-1,-2,-2,-1
1532063671834,-1,0,-1,-3,-2,-2,-1,-1
1532063671839,0,-1,-3,-4,-6,-3,-2,-1
1532063671844,1,0,-1,-3,4,1,-2,-1
1532063671849,-1,-1,0,4,0,0,-3,-1
1532063671854,-2,-2,1,7,0,-1,0,-1
1532063671859,-1,-1,-2,0,0,-2,0,0
1532063671864,-3,-1,-2,-1,-2,-1,-2,1
1532063671869,1,0,1,-9,-1,-1,1,0
1532063671874,1,-1,-4,-5,-1,-1,0,-1
1532063671879,-1,-2,-2,1,-5,-2,-1,0
1532063671884,0,0,0,-1,1,-1,0,-2
1532063671889,0,-1,-2,-1,0,-1,0,0
1532063671894,-2,-2,-1,-4,-1,-2,-2,-2
1532063671899,0,0,1,-3,0,0,-1,-2
1532063671904,-1,-1,0,-4,-2,-2,-1,0
1532063671909,0,-2,-7,-13,-2,-1,0,-1
1532063671914,0,1,0,21,5,0,1,0
1532063671919,-3,-3,-4,-2,-14,-4,-7,-1
1532063671924,1,1,-1,-10,-1,0,-2,0
1532063671929,-3,0,2,11,1,0,1,-1
1532063671934,-3,-2,-1,-19,-11,-1,1,0
1532063671939,1,0,1,0,13,5,6,-3
1532063671944,-1,-1,-2,6,-2,-2,1,-2
1532063671949,-1,0,2,-9,-1,-2,-2,-1
1532063671954,0,0,-1,2,3,-1,-2,-2
1532063671959,1,1,3,11,3,0,-2,0
1532063671964,0,-1,-5,-7,0,0,0,1
1532063671969,-2,2,2,28,0,-2,-3,-1
1532063671974,-1,-1,-3,-36,-12,-1,-1,1
1532063671979,1,-1,1,-3,5,1,0,-3
1532063671984,-1,1,4,9,-5,-2,-2,-2
1532063671989,-4,-5,-4,1,-5,-1,-5,1
1532063671994,0,-1,1,7,3,2,-2,-1
1532063671999,-2,1,-1,-6,-3,-1,-2,1
1532063672004,6,0,1,14,7,1,0,0
1532063672009,1,2,-1,13,9,2,5,-3
1532063672014,0,-4,-3,-39,-12,-1,0,0
1532063672019,-3,-1,-1,8,-5,0,-3,0
1532063672024,-3,1,1,24,2,-1,-1,1
1532063672029,11,5,-1,-15,1,0,2,2
1532063672034,-5,1,-1,5,10,2,-1,-6
1532063672039,3,-3,-2,-5,1,-1,3,-1
1532063672044,-4,-3,-3,-18,-13,-3,-1,0
1532063672049,-5,-2,3,10,0,0,-1,0
1532063672054,3,3,0,8,3,-1,0,-2
1532063672059,-1,0,1,4,-1,-3,-2,-1
1532063672064,-5,-1,0,-2,2,-2,-1,-3
1532063672069,19,1,0,-15,-4,3,4,-2
1532063672074,-11,-1,-1,11,1,-1,-3,7
1532063672079,-7,0,1,-1,0,1,-1,-4
1532063672084,5,-2,0,-2,4,2,2,-2
1532063672089,0,-2,-2,-5,-7,-4,-5,-1
1532063672094,11,0,-4,11,-4,0,2,-1
1532063672099,1,1,0,6,0,-1,0,1
1532063672104,-8,-1,-2,-20,0,-2,-1,-5
1532063672109,-5,-4,-1,-7,5,-1,-2,-1
1532063672114,-6,-2,3,7,-2,-1,-3,-3
1532063672119,9,1,-4,-11,-6,0,1,1
1532063672124,4,-2,-5,-1,-4,0,-2,-2
1532063672129,-12,10,3,-1,-3,-2,-1,0
1532063672134,-2,-3,1,0,2,0,0,1
1532063672139,-7,-23,-11,2,0,-3,-1,-1
1532063672144,2,-2,3,1,-3,-1,-5,1
1532063672149,-3,-3,0,5,4,-2,-3,-1
1532063672154,1,11,3,-6,-3,0,1,2
1532063672159,-3,5,3,1,-4,-1,0,-2
1532063672164,4,-4,-3,2,-1,1,-2,-1
1532063672169,-6,0,1,7,-1,-1,-1,1
1532063672174,-3,-3,-4,-6,2,-3,1,-2
1532063672179,8,3,1,-5,-2,0,-1,4
1532063672184,-3,6,0,0,1,-2,-1,-1
1532063672189,-7,-8,-2,-6,-7,-2,-2,-9
1532063672194,6,-7,0,9,4,2,0,-3
1532063672199,-18,-9,-3,-1,3,-1,0,1
1532063672204,-4,8,2,-4,-6,0,1,-2
1532063672209,0,2,0,-2,-3,3,0,0
1532063672214,15,-1,-6,5,7,-2,-5,-1
1532063672219,3,5,7,-12,-1,-2,-1,-2
1532063672224,-7,-13,-8,13,0,-1,1,-3
1532063672229,-1,-2,-4,-14,-3,-3,-1,0
1532063672234,2,3,1,-4,-8,-2,0,2
1532063672239,18,14,6,7,1,0,0,3
1532063672244,2,7,-3,-4,1,-2,-1,1
1532063672249,0,10,0,-3,-3,-1,0,-2
1532063672254,-7,-7,0,12,4,-1,-2,0
1532063672259,-11,-12,-6,-12,-1,-1,-2,-5
1532063672264,-2,-9,1,-5,-4,0,-5,3
1532063672269,6,-4,-2,6,-1,-2,2,3
1532063672274,0,11,2,-24,-1,-3,-2,-3
1532063672279,-7,3,-4,0,0,0,-1,-6
1532063672284,13,9,1,-6,-3,-2,-3,0
1532063672289,-14,6,0,5,-4,-1,-2,-3
1532063672294,2,23,6,-4,-3,-1,2,4
1532063672299,-4,-24,-3,0,0,1,1,-2
1532063672304,-8,-64,-26,-1,3,-2,1,-4
1532063672309,34,-6,5,20,2,-1,0,4
1532063672314,-15,6,-2,6,0,-1,-7,-11
1532063672319,-6,37,9,3,1,2,3,4
1532063672324,6,-8,3,-3,-4,0,0,-4
1532063672329,2,-1,-3,16,11,-1,-1,0
1532063672334,4,2,1,-5,-3,-2,3,2
1532063672339,2,-1,-1,1,-2,-2,-1,2
1532063672344,0,20,9,14,2,0,4,2
1532063672349,-25,-14,-4,-15,0,-1,-1,-5
1532063672354,2,-12,-5,32,-2,1,7,2
1532063672359,-4,2,0,42,7,-2,-9,-3
1532063672364,-6,14,1,-83,-23,-4,-3,-3
1532063672369,15,20,3,16,8,0,3,2
1532063672374,-25,-42,-10,-47,-7,-2,3,-2
1532063672379,-5,-27,-9,34,-10,-5,-19,-4
1532063672384,2,18,9,21,22,3,7,2
1532063672389,20,13,7,59,-4,2,12,2
1532063672394,-14,-1,-7,-87,-15,-3,-16,-3
1532063672399,4,0,-3,30,-7,-4,-1,-2
1532063672404,5,14,9,-4,2,0,-7,-1
1532063672409,-7,11,1,2,6,1,8,6
1532063672414,7,-22,-12,33,9,4,14,-8
1532063672419,-1,9,4,-41,-6,0,-15,-1
1532063672424,-9,1,0,49,4,0,3,4
1532063672429,0,-15,-5,-43,2,-2,4,-2
1532063672434,4,3,0,29,-2,0,7,-1
1532063672439,-1,-4,-3,-34,-11,-2,0,-3
1532063672444,0,16,5,-8,-1,0,-1,0
1532063672449,-12,-11,-5,1,-4,-1,-12,-5
1532063672454,7,-21,-16,-53,-6,-3,9,2
1532063672459,-19,6,1,-31,0,-2,-7,1
1532063672464,-1,-7,1,40,0,-2,-1,-1
1532063672469,-7,8,1,0,1,-1,-6,-4
1532063672474,3,19,11,22,4,0,-10,1
1532063672479,8,-10,2,50,14,4,39,3
1532063672484,-3,-7,-3,-49,-3,-2,-15,-5
1532063672489,-9,-10,-8,-27,-19,-2,-41,-14
1532063672494,2,23,8,50,12,-2,8,13
1532063672499,4,-7,-1,-5,4,-1,0,-2
1532063672504,-2,-3,0,-3,-6,2,3,8
1532063672509,-2,-2,-5,-10,0,-2,10,-2
1532063672514,0,1,5,2,0,0,-11,-6
1532063672519,2,5,0,-19,-8,-1,-2,3
1532063672524,1,-4,-3,22,7,0,9,-7
1532063672529,-3,-7,2,-9,-4,0,-3,4
1532063672534,-4,2,-4,-23,-9,-4,-17,-1
1532063672539,6,12,6,-23,8,2,9,-3
1532063672544,0,-11,-11,14,3,-1,7,-7
1532063672549,3,-4,-3,8,5,1,-3,-7
1532063672554,-5,-9,-14,-75,-14,-3,-5,-2
1532063672559,0,-6,4,-2,1,1,12,1
1532063672564,2,9,9,41,1,0,2,0
1532063672569,2,10,-1,8,-2,0,-12,1
1532063672574,-4,-6,2,-23,-4,-4,-8,1
1532063672579,-3,-23,-1,3,-5,-1,2,2
1532063672584,2,-2,1,-19,4,-2,6,1
1532063672589,-2,8,3,6,4,0,-4,-6
1532063672594,-1,-5,-5,-16,-16,-3,-3,-3
1532063672599,-6,-5,-6,-2,-4,-4,-12,-3
1532063672604,1,1,5,39,9,4,-2,-4
1532063672609,-2,4,-5,-46,-8,-3,11,5
1532063672614,4,10,9,27,10,1,-2,1
1532063672619,2,0,-3,-35,-9,-2,-1,-1
1532063672624,1,11,1,5,4,3,-8,-3
1532063672629,-6,-8,5,25,-10,-7,-5,-4
1532063672634,-2,-13,-6,0,2,1,-10,-6
1532063672639,1,7,-3,39,11,0,13,1
1532063672644,1,5,3,-20,-5,0,0,-1
1532063672649,-1,-9,-10,-15,-2,-1,0,2
1532063672654,2,19,6,28,1,0,22,2
1532063672659,-3,-3,6,0,3,-2,-24,-2
1532063672664,-2,-21,-15,8,-1,-3,0,-1
1532063672669,0,-4,-6,-8,-7,-1,-1,0
1532063672674,-1,-2,1,4,0,-1,5,0
1532063672679,0,15,1,4,3,2,2,2
1532063672684,2,2,3,-18,6,2,-10,-5
1532063672689,-1,-7,-5,20,1,2,5,2
1532063672694,0,10,2,-5,-4,-1,-5,6
1532063672699,1,1,-7,-16,-5,-1,14,7
1532063672704,-7,-22,-6,22,-3,-2,-4,-1
1532063672709,2,-1,0,-7,5,-1,1,-1
1532063672714,0,12,2,-20,1,-1,-3,-5
1532063672719,0,-2,3,10,1,2,0,-3
1532063672724,-3,-3,-9,-19,-6,-4,4,-2
1532063672729,4,23,11,28,6,2,-10,3
1532063672734,-2,-26,1,20,11,0,-7,-6
1532063672739,-7,-24,-19,-40,-22,-6,1,0
1532063672744,1,5,8,12,3,1,13,4
1532063672749,-2,3,0,-10,0,1,-12,-17
1532063672754,3,14,5,17,7,0,-1,3
1532063672759,2,-5,1,14,-1,2,4,-1
1532063672764,2,16,3,8,-3,-1,1,1
1532063672769,-1,-7,8,3,-1,-1,7,9
1532063672774,-5,-14,-13,-12,-5,-2,-3,-8
1532063672779,-2,-1,0,5,9,1,-1,-2
1532063672784,-2,4,-1,-29,-6,-2,-5,-1
1532063672789,1,2,0,-26,-6,-2,10,4
1532063672794,-2,-3,-1,36,-2,-4,-5,-2
1532063672799,0,0,-3,2,5,-1,-12,2
1532063672804,1,5,3,15,-3,2,-4,-5
1532063672809,-2,-11,-7,-26,4,-1,2,1
1532063672814,1,7,1,-25,-5,-2,2,-1
1532063672819,1,9,-1,5,-1,0,3,-3
1532063672824,-2,-11,-1,-9,-3,-2,-2,-1
1532063672829,-4,-31,-15,8,3,-1,1,-2
1532063672834,-1,6,4,-15,-7,0,-6,-1
1532063672839,0,6,5,1,4,1,5,-3
1532063672844,-1,4,-3,0,-1,-1,0,8
1532063672849,1,5,2,1,-4,0,-2,-10
1532063672854,-2,-2,0,-2,2,0,5,2
1532063672859,-1,-1,-2,0,-1,-2,-16,-2
1532063672864,-1,-5,0,-1,0,0,0,-1
1532063672869,1,1,-1,2,2,-1,3,5
1532063672874,0,0,-3,6,-2,0,1,2
1532063672879,-1,0,2,-5,-2,0,4,-1
1532063672884,-2,-6,0,5,-3,-2,-5,-5
1532063672889,-2,1,-5,-1,2,0,0,2
1532063672894,0,1,-1,-2,0,1,-6,-5
1532063672899,-1,-6,0,-6,-5,0,5,2
1532063672904,-2,-2,-2,0,1,-2,-6,-3
1532063672909,-1,3,0,5,-1,1,2,4
1532063672914,-1,-2,-1,-5,-3,-3,-1,0
1532063672919,-2,-2,-2,-3,1,1,4,-1
1532063672924,-1,-1,-1,5,3,2,-1,-4
1532063672929,-2,0,0,-13,-5,-4,-2,-1
1532063672934,-1,-3,-1,-3,-2,-2,-5,-1
1532063672939,2,-3,-1,-4,-1,-3,0,-1
1532063672944,1,1,-1,0,1,0,-1,-4
1532063672949,-2,0,0,1,-5,-1,1,3
1532063672954,-1,0,-2,-2,4,0,-4,1
1532063672959,0,-4,-2,3,0,-1,1,-2
1532063672964,0,-2,0,-1,1,-1,-1,-1
1532063672969,1,1,1,-3,1,-1,1,1
1532063672974,2,-1,-1,-3,-2,-1,-1,1
1532063672979,-1,-1,0,-2,-3,-1,0,-1
1532063672984,-3,-2,-1,0,0,0,-4,-1
1532063672989,0,0,0,1,1,0,-1,-1
1532063672994,0,-1,0,0,-2,-1,0,-1
1532063672999,0,-2,1,-3,-3,-2,-1,-3
1532063673004,-1,-1,0,-1,-2,-3,-2,0
1532063673009,0,0,-1,1,-2,0,1,1
1532063673014,0,-1,0,-1,3,1,0,0
1532063673019,2,-2,-2,0,2,1,1,-1
1532063673024,-1,-2,-1,0,0,-1,-2,-5
1532063673029,-1,1,0,-2,-2,-1,1,2
1532063673034,0,0,-1,-3,-1,0,-1,-2
1532063673039,0,-1,0,-1,-1,0,1,1
1532063673044,-1,-2,-2,0,-2,-3,-1,-2
1532063673049,2,1,-1,1,4,1,3,1
1532063673054,-1,-3,-2,-1,-7,-2,-2,-1
1532063673059,-1,4,0,-1,3,1,1,-2
1532063673064,1,-4,-2,2,1,1,0,1
1532063673069,-3,-7,-5,-1,-2,-2,-2,-3
1532063673074,-1,-2,-1,-4,-3,-2,-2,-1
1532063673079,-1,1,1,-2,-3,-2,-1,-1
1532063673084,0,3,-1,-1,-3,-2,-1,0
1532063673089,-1,0,1,-1,-2,0,-3,-5
1532063673094,-2,-2,0,1,0,-2,0,0
1532063673099,-1,-1,-1,0,1,-2,2,-2
1532063673104,0,-1,0,2,3,0,5,2
1532063673109,-2,-1,-1,-3,-3,-3,-12,1
1532063673114,0,0,-2,-4,1,1,-3,-3
1532063673119,-2,-1,0,1,-2,-3,0,-1
1532063673124,0,-1,-1,-2,0,-2,-4,-1
1532063673129,0,1,0,-1,-1,0,6,1
1532063673134,-2,1,0,-1,-1,0,2,-1
1532063673139,-1,-3,-2,-3,-1,-1,-3,1
1532063673144,-1,-1,-1,-1,-1,0,2,-2
1532063673149,-1,2,0,0,-1,-2,-4,-7
1532063673154,-1,0,2,0,1,-1,-2,-1
1532063673159,-1,-2,-1,-1,-2,-1,0,-1
1532063673164,-1,1,-4,-2,-3,-1,-1,-1
1532063673169,0,0,0,2,0,0,1,0
1532063673174,-1,-1,-3,1,3,1,-1,1
1532063673179,0,1,0,0,1,1,3,0
1532063673184,-2,-3,2,-1,-3,1,0,0
1532063673189,-1,0,0,0,0,-2,-1,-1
1532063673194,0,-1,-2,0,-3,-1,1,-2
1532063673199,0,-1,-2,0,-2,-2,-3,-1
1532063673204,0,1,-1,-3,-4,-3,-4,-1
1532063673209,-1,0,-1,2,1,-1,1,0
1532063673214,-2,-1,0,1,-8,0,1,-2
1532063673219,-1,0,0,-1,3,1,-1,-2
1532063673224,-1,-1,-2,-2,-1,-1,-1,-2
1532063673229,-1,-1,0,-1,0,-2,-1,-1
1532063673234,0,0,-1,0,0,-1,-1,0
1532063673239,-1,-4,-1,-1,-1,-1,-1,-2
1532063673244,-2,-1,-2,0,1,0,1,-2
1532063673249,-1,0,-1,-1,0,-2,-1,0
1532063673254,-1,0,-1,-1,-1,-2,-1,1
1532063673259,-1,-2,0,-2,-3,-2,-3,-1
1532063673264,-2,-1,1,1,5,1,0,-1
1532063673269,-1,-2,-3,2,-9,-1,0,0
1532063673274,-2,1,-2,-1,4,-1,-2,-1
1532063673279,-1,-3,-2,-1,-2,0,0,0
1532063673284,-2,-1,-2,-1,-4,-3,-1,0
1532063673289,0,-1,-2,-2,1,0,-1,-1
1532063673294,-1,1,2,-1,-1,2,2,-2
1532063673299,0,-1,0,-1,-4,-3,-2,0
1532063673304,0,0,-1,-1,2,1,-1,0
1532063673309,-1,-1,0,0,1,1,-2,0
1532063673314,-1,-3,-2,-2,-1,-3,-2,0
1532063673319,0,0,1,-2,1,0,-1,-1
1532063673324,2,0,-1,-1,-1,-1,-2,-1
1532063673329,-1,0,0,0,-2,-1,1,0
1532063673334,-1,-2,-1,-1,2,1,-1,-1
1532063673339,-1,0,-3,-1,1,-3,-2,1
1532063673344,-2,1,1,-1,-10,1,1,1
1532063673349,-1,0,-1,-1,-2,1,2,-1
1532063673354,-1,0,0,0,0,-2,0,-1
1532063673359,-1,0,0,-2,2,0,1,-2
1532063673364,0,1,-1,-1,-1,0,-1,-1
1532063673369,1,1,-1,0,-1,-1,-2,1
1532063673374,-3,-2,-3,-1,1,-2,-1,0
1532063673379,0,0,-3,-1,0,-1,-1,1
1532063673384,-2,-1,-2,1,-1,-2,-1,-2
1532063673389,-1,-1,0,-2,-2,-1,0,-4
1532063673394,1,0,0,-1,1,-1,0,-3
1532063673399,1,-3,0,1,1,-2,-1,0
1532063673404,0,-1,-1,0,-6,-2,-1,0
1532063673409,0,1,1,-2,6,0,-2,-1
1532063673414,-2,-3,0,1,-2,-1,-2,-2
1532063673419,0,-1,-2,-3,0,-3,0,0
1532063673424,-1,0,-1,-2,-2,-1,-1,-2
1532063673429,-1,-1,0,2,2,0,-1,0
1532063673434,-1,1,0,0,-1,-1,-4,-1
1532063673439,0,-1,2,-1,0,-2,-1,-2
1532063673444,0,-1,0,-2,-2,-2,-2,-1
1532063673449,-2,-1,0,1,-3,-2,-1,-3
1532063673454,-1,-1,-2,-2,1,-2,1,-1
1532063673459,-1,0,-1,1,0,-1,1,-1
1532063673464,0,-1,-1,-3,2,-1,-1,-1
1532063673469,0,-1,0,-1,-4,-2,-2,-2
1532063673474,-2,-1,0,-1,1,-1,-2,0
1532063673479,0,-2,-1,0,1,0,1,1
1532063673484,0,-1,-1,0,4,1,0,-1
1532063673489,0,-1,-1,0,-9,-3,0,1
1532063673494,0,-1,-1,-3,3,0,-4,-2
1532063673499,0,-2,-1,-1,-1,0,-1,-2
1532063673504,-1,-1,-1,-1,0,0,0,-1
1532063673509,-1,-1,0,-1,-1,1,0,-1
1532063673514,-1,-2,-1,0,-3,0,-2,-1
1532063673519,-1,0,0,-2,-2,-3,0,0
1532063673524,0,-2,-2,0,-1,-1,-3,-2
1532063673529,0,0,-1,-1,2,-1,-2,0
1532063673534,-1,0,0,-3,-3,0,2,-2
1532063673539,-3,-2,-1,1,0,1,-2,-2
1532063673544,-3,-1,-1,0,0,-2,-1,0
1532063673549,0,-2,-2,0,0,-1,-2,1
1532063673554,0,-1,-1,0,0,-3,0,0
1532063673559,-2,0,-1,-1,-3,1,0,0
1532063673564,0,0,0,-1,-1,-2,0,-1
1532063673569,-1,-2,0,-1,-1,0,1,-2
1532063673574,-1,-2,-1,0,-1,-1,0,0
1532063673579,1,-2,-1,-1,2,-1,-1,-2
1532063673584,-1,-1,-2,-1,-1,-2,-1,-1
1532063673589,-1,-2,-1,-1,0,0,0,1
1532063673594,2,0,1,0,0,2,2,1
1532063673599,-1,-2,-1,0,-3,0,-1,0
1532063673604,-1,-1,0,-2,-2,0,-2,0
1532063673609,-1,-1,-3,-1,0,0,-1,-1
1532063673614,0,-1,-1,-1,-2,-1,-1,1
1532063673619,-3,-1,-1,1,-1,0,-2,0
1532063673624,0,1,-1,-2,3,-1,0,0
1532063673629,-1,-1,0,-2,-4,-1,0,-1
1532063673634,-2,-2,0,0,2,-1,-1,0
1532063673639,-1,0,-1,-2,-3,-1,-1,-3
1532063673644,-1,0,-2,-1,0,-1,-2,0
1532063673649,-2,-1,-1,-1,-1,1,-1,-1
1532063673654,0,0,0,0,-3,0,1,-3
1532063673659,1,-1,0,-3,0,-3,-1,-1
1532063673664,0,0,-1,0,-3,-1,0,-2
1532063673669,0,-1,-2,-1,1,-3,-3,1
1532063673674,-1,0,1,-1,0,1,-1,1
1532063673679,-2,-1,-1,0,-1,-2,-1,0
1532063673684,-1,-2,0,-2,2,-2,-1,0
1532063673689,-1,-2,0,-1,-1,-1,-1,-1
1532063673694,-1,-1,-1,-1,-1,-2,-1,-1
1532063673699,-1,-1,0,-3,-2,-2,-2,-2
1532063673704,0,-2,1,0,0,1,-1,-1
1532063673709,-1,-2,1,0,-1,-1,0,-2
1532063673714,0,-2,-3,-1,0,-4,-3,-1
1532063673719,1,-1,0,-1,-1,0,2,0
1532063673724,-3,0,-2,0,-1,-1,0,1
1532063673729,-1,0,-1,-1,-2,1,0,0
1532063673734,-1,-1,-2,1,3,-1,-2,-1
1532063673739,-2,-1,0,0,-4,-3,-2,-1
1532063673744,-1,-1,0,0,2,1,0,-1
1532063673749,0,0,0,0,0,-3,-1,-1
1532063673754,-1,0,-1,0,-1,0,1,0
1532063673759,1,-1,-1,-1,0,1,0,-2
1532063673764,0,-1,-1,0,-3,-2,0,-1
1532063673769,0,-1,-1,-1,0,-1,-2,-1
1532063673774,0,-2,0,-2,-3,-1,0,0
1532063673779,-1,0,0,0,2,-1,-4,0
1532063673784,-1,0,0,-1,-2,0,0,-1
1532063673789,0,0,1,-2,0,0,-2,-2
1532063673794,-1,2,-1,0,-1,-1,-1,-1
1532063673799,-1,-1,-2,0,-1,0,-2,-1
1532063673804,-2,-1,-1,-2,-2,-1,0,-2
1532063673809,2,-1,0,0,2,0,0,0
1532063673814,-1,-2,0,-2,-1,2,-1,-2
1532063673819,-1,0,0,-1,0,-1,-4,-2
1532063673824,0,0,-1,-1,-6,-1,2,-1
1532063673829,-1,-1,-1,0,0,-1,0,-1
1532063673834,-1,-1,0,0,-3,-1,-2,0
1532063673839,-3,-1,1,0,0,-1,-2,0
1532063673844,-1,-1,-1,-1,-2,-1,-3,-2
1532063673849,-2,-1,1,-1,-5,-2,1,-1
1532063673854,-1,0,-2,-1,0,-1,0,1
1532063673859,-1,-1,-1,-1,-2,-1,-1,-1
1532063673864,0,-3,1,-1,0,-2,-1,3
1532063673869,-1,-2,-2,-2,0,3,1,-1
1532063673874,0,0,-1,-1,2,-3,0,0
1532063673879,0,-1,-2,0,0,0,2,0
1532063673884,0,0,0,-1,-1,-1,0,-1
1532063673889,-1,-1,-2,-1,0,0,-1,-1
1532063673894,-1,-1,0,-1,-2,0,-1,0
1532063673899,0,-1,0,-1,-1,0,1,0
1532063673904,-1,-1,-1,1,-2,-1,-1,-1
1532063673909,-1,-1,-1,-2,-2,-2,-3,0
1532063673914,1,0,-2,-3,-2,0,-1,-3
1532063673919,-1,-2,-1,0,-1,-2,-3,-1
1532063673924,0,-1,0,0,0,-1,0,0
1532063673929,0,-2,-1,0,0,-1,0,-1
1532063673934,-1,-2,1,0,-6,-1,-1,0
1532063673939,-1,0,-1,-2,0,-1,1,-1
1532063673944,0,0,-1,-1,-2,1,-2,-1
1532063673949,0,0,0,-2,0,-3,-1,-1
1532063673954,-1,-1,-2,-1,3,1,1,-1
1532063673959,0,-1,-1,0,-2,0,0,-1
1532063673964,-2,-2,0,-2,0,-2,-2,-2
1532063673969,-2,-1,-1,-1,-4,-1,-1,-1
1532063673974,-1,0,-2,-1,-1,0,0,-1
1532063673979,0,-1,0,-2,-1,-1,-1,0
1532063673984,0,0,-2,-2,0,-2,1,-1
1532063673989,0,-2,-2,0,1,-3,-2,-2
1532063673994,-2,-2,-1,1,-2,-1,-1,-1
1532063673999,0,-2,-2,0,0,-1,1,-1
1532063674004,0,-2,-1,-1,-2,0,-2,-2
1532063674009,-1,-1,-1,-2,-3,-2,0,0
1532063674014,1,-1,0,-1,1,0,0,-1
1532063674019,-1,-2,-3,-3,-2,0,1,-2
1532063674024,-2,-1,-4,0,-1,-2,1,-1
1532063674029,-2,-5,-1,-2,-4,1,-2,0
1532063674034,-2,-2,1,0,1,-2,-1,-1
1532063674039,1,-1,0,-5,-2,1,1,0
1532063674044,-2,0,5,0,-1,0,0,1
1532063674049,-2,0,-1,1,1,0,-1,0
1532063674054,0,0,-1,-1,-4,-1,-1,-1
1532063674059,-1,-3,1,2,1,0,0,-1
1532063674064,-1,-2,-1,-8,-4,-2,-1,-1
1532063674069,1,1,-2,-2,1,0,0,0
1532063674074,-1,-1,0,0,0,-3,-2,3
1532063674079,-3,1,1,0,-4,1,-1,-2
1532063674084,1,-2,-1,1,10,1,-2,-3
1532063674089,-1,1,-1,-1,3,0,-1,-1
1532063674094,-1,-3,0,0,0,0,-1,-2
1532063674099,0,0,-1,0,2,0,-1,1
1532063674104,0,0,-3,-1,-4,-1,0,1
1532063674109,0,-1,-1,-1,-1,-1,0,0
1532063674114,1,1,0,-1,2,-1,0,1
1532063674119,-1,-2,-3,-2,-3,-3,-1,0
1532063674124,-2,0,0,2,-3,0,-2,-2
1532063674129,1,0,0,-2,1,-2,0,-1
1532063674134,-2,1,-1,-1,-2,0,2,-1
1532063674139,-1,-2,-1,-5,-3,-3,-3,-2
1532063674144,0,-2,-2,2,-1,1,-1,1
1532063674149,-1,-1,-1,-1,2,-2,0,-2
1532063674154,0,-1,0,-1,1,-1,-3,-2
1532063674159,1,-1,-2,1,-1,-1,-8,0
1532063674164,2,2,0,-1,2,1,8,3
1532063674169,-1,-1,0,-1,-3,-2,-3,-1
1532063674174,-3,-1,-1,-5,-3,-3,-1,-3
1532063674179,0,0,1,0,-2,-1,-3,0
1532063674184,-1,0,-2,1,4,2,-2,-1
1532063674189,1,-1,0,0,-5,0,1,-1
1532063674194,2,1,-1,-1,3,1,-2,-1
1532063674199,-2,-2,-1,1,0,-1,2,1
1532063674204,-1,-3,-2,-1,-6,-4,-4,-2
1532063674209,0,-1,0,-1,-1,1,1,-1
1532063674214,2,-3,0,-1,1,0,-1,-1
1532063674219,-1,0,0,-1,-5,-1,2,0
1532063674224,-2,-1,1,-1,7,1,-2,0
1532063674229,-2,-1,-2,0,0,-2,-2,-2
1532063674234,-2,-2,0,0,-4,-1,0,-2
1532063674239,0,0,-2,0,2,1,2,-2
1532063674244,1,-1,0,0,-4,-2,-3,0
1532063674249,-1,0,-1,-3,-3,0,-1,0
1532063674254,-3,2,2,1,2,0,-1,-1
1532063674259,-1,0,-3,3,3,0,2,0
1532063674264,-2,-4,7,-2,-5,-2,-1,-3
1532063674269,2,2,7,3,1,-1,-2,-2
1532063674274,-6,-19,-29,-14,-13,-3,1,0
1532063674279,-1,2,1,0,1,0,0,0
1532063674284,-2,2,-2,2,-3,-1,-4,1
1532063674289,1,-1,-1,-4,-3,0,2,-3
1532063674294,0,4,6,5,1,-1,0,1
1532063674299,-1,0,-2,-2,-1,-3,-2,-1
1532063674304,-1,-4,-5,-3,-3,-1,-1,-2
1532063674309,-1,1,1,0,-2,0,-1,1
1532063674314,0,3,2,1,0,-2,0,1
1532063674319,0,-1,2,-2,1,0,-1,-2
1532063674324,-2,0,1,-1,-3,-2,-2,-6
1532063674329,-2,-3,-4,1,1,-2,-1,0
1532063674334,0,-1,1,-2,0,0,0,-2
1532063674339,0,-3,-1,-2,-1,0,0,0
1532063674344,0,0,0,0,-4,0,0,1
1532063674349,-1,-1,-3,-2,1,1,-2,1
1532063674354,0,0,1,-2,-1,1,-1,0
1532063674359,-1,0,1,0,-1,-1,-1,1
1532063674364,1,1,-3,-3,-2,-2,-1,1
1532063674369,-2,-5,0,-1,-1,0,8,-4
1532063674374,2,3,5,1,1,0,-4,-2
1532063674379,0,-1,-2,0,2,-1,3,1
1532063674384,0,-1,-1,-1,2,-2,-2,-1
1532063674389,-2,-1,-3,-1,-5,-1,0,0
1532063674394,-1,0,1,-1,0,-2,-1,-1
1532063674399,-2,0,-3,-2,0,0,0,-3
1532063674404,-2,-1,-2,-1,-4,0,0,-1
1532063674409,1,0,-1,0,6,-1,-4,-1
1532063674414,-2,0,-2,-2,-3,-1,-3,-2
1532063674419,0,-1,0,-1,-4,-3,-2,-1
1532063674424,-1,-1,0,0,1,0,0,-1
1532063674429,0,0,-1,-1,0,-1,-3,0
1532063674434,-1,-1,0,2,-1,0,2,0
1532063674439,0,-1,-1,-2,-2,0,-2,-3
1532063674444,0,1,0,-2,1,1,-1,2
1532063674449,-2,-1,-1,0,-4,-3,0,0
1532063674454,-1,2,2,1,2,0,-1,0
1532063674459,-1,0,-1,-1,-1,-2,-1,-2
1532063674464,-1,-2,0,1,-1,-1,0,-1
1532063674469,-2,-1,1,-4,-6,-1,-2,-1
1532063674474,0,0,1,1,3,0,-1,-1
1532063674479,-1,-1,-3,-2,-3,-2,-2,0
1532063674484,0,0,-2,2,3,1,0,-1
1532063674489,0,-2,-2,-2,1,-1,-1,-2
1532063674494,-1,-3,-3,-3,-2,-1,-1,1
1532063674499,-1,0,-1,1,1,-1,-1,-1
1532063674504,-2,1,1,-2,0,-2,-2,-1
1532063674509,0,-3,-1,1,1,0,0,-1
1532063674514,0,0,-2,1,-1,-2,1,-3
1532063674519,0,-3,0,-2,0,0,-2,-1
1532063674524,0,-1,0,-4,-2,0,1,-2
1532063674529,0,2,1,0,1,-2,-1,-1
1532063674534,-2,-1,-4,-1,-5,-1,0,-3
1532063674539,-1,-2,0,0,1,-1,0,-1
1532063674544,-1,-1,-2,-2,0,-1,-1,-1
1532063674549,-1,1,0,0,-1,0,0,-1
1532063674554,0,-1,3,-1,-1,-2,-2,-1
1532063674559,-2,-1,-2,1,-5,1,-1,0
1532063674564,-1,-2,0,-1,1,0,0,-1
1532063674569,-1,0,-1,-1,0,-2,-1,-1
1532063674574,1,0,-2,-1,-4,-1,-5,0
1532063674579,-1,0,0,-1,1,-1,1,0
1532063674584,-1,-2,-2,0,1,1,3,0
1532063674589,0,-1,0,-2,-2,1,-1,0
1532063674594,0,-1,0,-1,5,-1,3,0
1532063674599,-1,-1,0,-1,-3,-2,-3,-2
1532063674604,-2,-1,-2,-1,-4,-3,-1,1
1532063674609,-1,-2,-2,-1,-1,-2,-1,0
1532063674614,-2,-1,-2,0,-2,-1,-1,-1
1532063674619,0,-1,-1,-1,-1,-1,0,-2
1532063674624,-1,-1,-1,0,-1,-1,-1,-1
1532063674629,0,2,0,-2,0,1,-1,-2
1532063674634,-1,-1,-1,0,-4,-1,-1,-2
1532063674639,0,-2,0,-1,3,-1,-2,-1
1532063674644,-1,0,-1,-1,0,-1,-3,-1
1532063674649,-1,-2,0,0,-3,-2,-1,-1
1532063674654,-1,-1,-1,-1,0,0,1,-1
1532063674659,0,-1,-1,0,1,0,0,0
1532063674664,-1,0,-1,-1,-1,-2,-3,-4
1532063674669,-1,-2,-1,-1,-2,-1,-1,0
1532063674674,-1,0,0,-1,1,0,1,1
1532063674679,-1,0,-1,-2,-3,-2,-2,-3
1532063674684,0,-1,0,0,-3,-3,-2,0
1532063674689,0,1,1,-1,0,0,-1,-1
1532063674694,1,-2,0,-1,-2,-1,0,0
1532063674699,-1,0,-1,0,-2,-1,0,0
1532063674704,1,-1,-1,-1,-2,-1,1,0
1532063674709,-1,0,-2,0,0,-1,-1,-1
1532063674714,-2,-1,-1,-1,-1,-2,-1,0
1532063674719,-2,-1,-1,-1,-1,0,-1,-2
1532063674724,-2,-1,-1,0,-2,0,-1,-3
1532063674729,-1,-1,-1,0,0,-2,-1,0
1532063674734,-1,0,0,-1,-1,-1,-1,-1
1532063674739,0,1,-3,0,0,-1,-1,-3
1532063674744,0,-1,-2,-1,-1,-1,-1,0
1532063674749,-2,-3,-1,-2,-1,-1,-1,-1
1532063674754,-1,-2,-1,-1,-2,-1,-1,-1
1532063674759,-2,-2,0,-2,0,0,0,0
1532063674764,-1,-1,-2,-1,-2,-1,-2,0
1532063674769,0,-1,-2,0,0,2,-1,-1
1532063674774,-2,-1,-2,-2,0,-3,0,-1
1532063674779,0,-1,-1,-1,-2,-2,-1,0
1532063674784,-1,0,-2,0,-2,0,-1,-2
1532063674789,0,1,-1,-1,-1,0,-2,-1
1532063674794,-1,-3,1,0,-1,-1,-2,-2
1532063674799,-1,1,-1,-2,-1,0,-2,0
1532063674804,-2,-2,1,0,-1,0,2,-2
1532063674809,-1,0,0,-1,-1,-1,-1,-2
1532063674814,0,-1,-1,0,-1,0,-1,-1
1532063674819,-2,0,-2,-2,-1,-2,-3,-1
1532063674824,1,-1,-1,0,0,0,2,1
1532063674829,-2,0,0,0,0,-2,0,-1
1532063674834,0,-3,-1,-1,-1,-1,3,2
1532063674839,0,-2,0,-2,0,0,0,-1
1532063674844,-3,-1,-2,-1,-1,0,-3,1
1532063674849,-1,0,-1,-1,-1,-1,-1,0
1532063674854,-1,2,0,-2,-3,-1,-4,-3
1532063674859,1,-1,-1,1,2,1,-3,1
1532063674864,-2,-1,0,-2,0,-4,0,-2
1532063674869,0,-1,-1,-2,0,-1,-2,-3
1532063674874,-1,0,0,-1,-1,1,0,-1
1532063674879,0,-2,-1,-1,-1,-1,0,-1
1532063674884,-1,0,-1,0,0,-1,-1,-1
1532063674889,-1,-2,0,1,0,-2,-2,-1
1532063674894,-1,-1,-2,-2,-2,0,-2,0
1532063674899,-1,-1,0,0,-2,-1,2,-2
1532063674904,0,-1,-1,0,-1,-1,-2,1
1532063674909,-2,-1,-1,-1,-1,-1,0,-1
1532063674914,0,-2,-1,-1,1,-2,-2,-1
1532063674919,-1,-1,0,-2,-4,-1,0,0
1532063674924,0,0,-1,-2,2,0,-1,-1
1532063674929,-1,-1,-1,0,-2,-1,0,0
1532063674934,-2,1,-1,0,2,0,-1,-1
1532063674939,-1,-1,1,-1,-4,-1,0,0
1532063674944,-1,0,-1,0,-1,0,-1,0
1532063674949,-1,-1,-1,-1,-1,0,-2,-1
1532063674954,0,-3,-1,-2,0,0,0,0
1532063674959,-1,-2,0,1,0,-2,-2,0
1532063674964,0,-1,-3,0,1,2,-2,-1
1532063674969,0,-1,-2,0,-1,0,0,1
1532063674974,0,0,-1,-2,-3,-2,0,-1
1532063674979,-1,0,-2,1,0,-1,0,-1
1532063674984,-1,-1,1,-2,-4,-1,-2,-1
1532063674989,-1,-2,0,0,-3,0,1,0
1532063674994,0,-1,-2,1,0,0,-1,-2
1532063674999,-1,-1,-1,-1,0,1,-2,0
1532063675004,0,-1,1,-1,-1,-1,-1,-1
1532063675009,-1,1,-1,0,-1,-2,-3,1
1532063675014,0,-3,-1,-1,-2,-1,0,-3
1532063675019,-2,2,-1,-1,0,-1,0,-3
1532063675024,0,0,-1,0,1,-1,2,-1
1532063675029,0,0,1,0,1,2,-1,-1
1532063675034,0,-2,-1,-1,-1,-1,-1,0
1532063675039,0,1,-2,0,-2,-1,-2,0
1532063675044,-1,-3,-3,0,-4,-2,-2,0
1532063675049,0,-1,-1,0,1,-1,-1,-2
1532063675054,-1,1,1,0,0,-2,-1,0
1532063675059,-1,-1,-1,-2,0,1,1,0
1532063675064,-1,-1,-1,-2,0,-2,0,-1
1532063675069,-1,-1,-1,-2,0,-3,-1,-1
1532063675074,-1,0,-1,0,-1,0,-2,0
1532063675079,0,-1,-1,-1,0,-2,-1,1
1532063675084,1,0,0,-1,-3,1,0,-2
1532063675089,-1,-1,-1,-2,-2,-2,-1,-1
1532063675094,0,0,-1,-1,0,-1,0,0
1532063675099,-1,1,-1,0,-1,-1,0,1
1532063675104,0,0,1,-2,2,1,0,0
1532063675109,-3,-1,-1,0,-1,-1,0,-1
1532063675114,-1,1,0,-1,-1,1,-3,0
1532063675119,0,-2,-2,-2,-1,-1,0,-1
1532063675124,-1,-1,0,-1,-3,-2,-1,1
1532063675129,0,-1,-1,-1,-2,-2,-1,-1
1532063675134,1,-1,0,1,1,0,1,-1
1532063675139,-1,-1,-1,-1,0,-2,-2,-2
1532063675144,-3,-3,0,-2,-1,0,-2,0
1532063675149,-1,-2,0,-2,0,-1,0,-1
1532063675154,0,-2,0,-1,-2,-2,0,-3
1532063675159,0,0,-2,-2,0,0,-3,-2
1532063675164,-1,-1,-2,1,1,-3,-2,-3
1532063675169,-1,-1,-1,0,-3,-1,-1,1
1532063675174,-1,1,-1,1,1,-1,-1,0
1532063675179,-2,-2,-1,0,0,1,0,0
1532063675184,-2,0,-1,-1,-1,0,0,0
1532063675189,0,0,0,-2,-1,0,0,0
1532063675194,-1,-1,0,-1,-1,-1,-1,-1
1532063675199,0,1,0,0,1,-1,-1,0
1532063675204,-2,-2,-2,-1,-1,-2,0,-1
1532063675209,1,-1,-1,-1,-2,-1,-2,-1
1532063675214,-1,-1,-1,-1,-2,0,1,1
1532063675219,0,-2,0,-2,-1,-2,0,-1
1532063675224,0,0,-1,1,-1,-1,1,-1
1532063675229,0,-1,0,-1,-1,-1,-1,1
1532063675234,-1,-1,0,-2,-1,0,0,1
1532063675239,-1,-1,0,-1,-1,-1,-1,0
1532063675244,0,-2,-1,-1,-2,0,-1,1
1532063675249,-1,-1,-1,-2,-2,-1,0,-2
1532063675254,-1,-3,0,-1,0,2,-1,0
1532063675259,-1,0,0,0,-3,-1,-1,0
1532063675264,0,-2,-1,-2,0,0,-2,-1
1532063675269,-1,0,-1,-1,0,0,2,0
1532063675274,-2,0,-1,-1,-2,-2,-1,-3
1532063675279,1,-1,0,0,1,0,-1,-2
1532063675284,0,-1,-1,0,-1,0,-3,-1
1532063675289,-2,-2,-1,-1,-2,-2,0,-2
1532063675294,-1,-1,-2,-1,-1,-2,0,1
1532063675299,0,-1,1,-1,-1,-1,-2,-1
1532063675304,-2,-2,0,-2,-1,-1,0,-1
1532063675309,1,-1,-1,0,0,-1,-2,-2
1532063675314,-1,-1,-1,-2,-2,0,0,0
1532063675319,-1,-2,-1,-1,-1,-2,-2,-1
1532063675324,-1,-1,0,-1,0,1,1,1
1532063675329,-1,0,0,-1,0,0,-1,-2
1532063675334,-1,-2,-2,0,-3,-3,-2,-4
1532063675339,-1,-2,-1,1,0,1,0,-1
1532063675344,-1,-2,-2,-1,-1,-2,-2,-1
1532063675349,0,-1,-1,-2,0,0,-2,-1
1532063675354,-1,0,-1,0,-1,0,1,0
1532063675359,-1,-2,-1,0,-3,0,0,-2
1532063675364,-1,-1,0,-1,0,0,1,-2
1532063675369,-2,0,-2,0,-1,1,0,-1
1532063675374,0,-1,0,-1,0,-2,-2,1
1532063675379,0,0,-1,-1,-2,0,0,-1
1532063675384,-1,0,-1,0,-1,-1,0,-1
1532063675389,-1,0,-1,0,-1,-2,-2,-1
1532063675394,-1,-1,-1,0,2,0,-2,-2
1532063675399,-2,-2,-1,0,0,-2,0,-3
1532063675404,-1,-1,-1,-2,1,-2,-1,0
1532063675409,0,-1,0,0,-3,-1,0,1
1532063675414,-1,0,0,0,-1,-1,-1,-1
1532063675419,-1,-1,-1,-2,-1,0,-2,0
1532063675424,0,-1,-2,2,0,-1,0,0
1532063675429,0,0,-1,1,-1,-3,-1,0
1532063675434,-2,-1,-2,-2,0,0,-2,-2
1532063675439,0,0,0,0,-2,0,-1,-1
1532063675444,-2,-1,-2,-3,0,-1,-2,-1
1532063675449,-1,-2,-1,0,-1,0,-2,-1
1532063675454,-1,0,0,0,0,-1,2,-2
1532063675459,-1,-1,-2,0,-1,-2,0,1
1532063675464,-1,-1,-1,0,0,-1,-3,-1
1532063675469,0,0,1,1,-4,-1,2,-2
1532063675474,-1,-2,-1,-1,0,-1,-1,0
1532063675479,-1,-1,-1,-1,3,-1,-2,-2
1532063675484,2,0,0,1,-4,-1,1,-2
1532063675489,-1,0,-2,-1,1,0,0,-4
1532063675494,-2,-3,-1,1,1,-1,-3,0
1532063675499,1,-1,-2,-1,-1,-1,1,2
1532063675504,0,2,1,0,-2,1,-1,-1
1532063675509,-2,1,0,1,0,-1,-3,-2
1532063675514,-1,-2,-2,0,0,0,-1,0
1532063675519,0,-1,0,-2,-2,-1,1,-2
1532063675524,-2,-1,-1,0,-1,0,-3,-2
1532063675529,0,-2,-3,0,-1,-1,-2,3
1532063675534,0,2,1,-1,-2,-1,-1,-1
1532063675539,-1,-1,0,-1,0,1,2,-3
1532063675544,-2,-1,0,-1,-1,-2,-1,0
1532063675549,-2,-2,-2,-3,0,0,-1,1
1532063675554,1,-1,1,-1,-4,-3,-3,-2
1532063675559,-1,-1,-1,-2,-1,0,-2,-1
1532063675564,-2,-1,-2,0,3,1,1,-2
1532063675569,0,-1,-1,-2,-2,0,-1,-2
1532063675574,-2,-1,-1,-1,0,-1,1,0
1532063675579,0,0,0,0,-1,0,0,0
1532063675584,-1,-1,-1,-1,-1,0,-1,-1
1532063675589,-1,-1,-1,-1,1,-1,-2,-2
1532063675594,-1,-1,-1,0,0,-1,1,0
1532063675599,-1,-1,-3,-1,-2,-1,-1,-1
1532063675604,0,-1,0,-2,-1,-2,-2,-1
1532063675609,-2,-2,-1,0,-1,2,1,0
1532063675614,-1,1,0,0,-2,-3,-1,-1
1532063675619,-1,-3,0,-2,-1,0,-1,-2
1532063675624,-1,0,0,-1,2,-2,0,0
1532063675629,0,-2,-2,0,-2,1,-2,1
1532063675634,0,-1,-1,1,-1,1,0,-1
1532063675639,-1,-1,-1,1,-1,0,-2,-1
1532063675644,-1,1,-2,-2,-5,-1,-1,-1
1532063675649,-1,-1,0,0,1,-1,-1,0
1532063675654,0,-1,-2,-2,-3,1,-1,-1
1532063675659,-1,-1,-2,0,-3,-2,-1,-2
1532063675664,-1,-3,-2,0,1,0,-1,-2
1532063675669,-1,0,0,-3,2,-1,0,-1
1532063675674,-1,-1,0,-1,-1,0,0,-1
1532063675679,0,-1,0,-2,-1,0,-1,0
1532063675684,0,-1,1,-2,-1,-1,0,-1
1532063675689,-1,-1,-2,-1,-1,-1,0,-2
1532063675694,-2,0,-2,-2,-1,-2,-1,-1
1532063675699,0,1,-1,-1,0,0,-4,-1
1532063675704,0,0,-1,0,-1,-2,0,3
1532063675709,-1,-1,-3,-1,0,-1,-1,-2
1532063675714,-1,-2,1,-1,-1,1,-3,-1
1532063675719,0,-1,0,1,1,0,0,-1
1532063675724,-1,-1,-1,-1,1,1,0,0
1532063675729,0,1,0,-2,-1,-2,1,-4
1532063675734,0,0,-2,-1,0,-1,-1,-1
1532063675739,-1,0,-1,0,-1,-2,-1,-1
1532063675744,-1,-1,-2,0,-2,-1,-1,-2
1532063675749,-1,-1,-1,-1,-2,-1,-1,0
1532063675754,-1,-1,0,-2,1,0,-1,-1
1532063675759,-1,-1,1,1,1,1,-1,0
1532063675764,-2,-2,-1,0,0,-2,0,-1
1532063675769,-1,-3,-2,0,-1,-2,-3,1
1532063675774,0,0,1,-3,-1,-3,-1,-1
1532063675779,-1,-1,-2,-2,-1,-2,0,0
1532063675784,0,-1,1,-2,-1,-1,-1,-1
1532063675789,0,-2,0,-1,-1,-2,-1,-2
1532063675794,-1,0,0,1,1,-2,0,1
1532063675799,-1,-3,-1,-2,-3,-1,0,1
1532063675804,-2,0,-2,-1,2,0,-1,-1
1532063675809,-1,0,0,0,-2,-2,-1,0
1532063675814,-3,-2,1,-2,-2,0,-2,-2
1532063675819,0,0,0,2,0,0,-1,-2
1532063675824,-1,-1,-1,0,-1,-3,-2,0
1532063675829,0,0,-1,0,2,1,0,0
1532063675834,-1,0,-1,1,-2,0,0,-1
1532063675839,-1,0,-1,-2,-1,0,-1,-2
1532063675844,-1,-1,0,0,-2,0,-1,-2
1532063675849,-1,-2,-1,-2,-1,0,0,0
1532063675854,-1,0,-2,0,1,-2,-2,-1
1532063675859,1,-2,-1,-2,0,-1,0,-1
1532063675864,-1,0,-2,-3,-2,-1,-1,-3
1532063675869,0,0,0,1,1,-1,-2,-1
1532063675874,0,-2,-1,0,-1,-1,1,-1
1532063675879,-2,-1,-3,0,-1,0,0,-1
1532063675884,0,-1,0,0,-1,-1,-2,0
1532063675889,1,-2,1,0,-3,-1,-1,0
1532063675894,0,-2,-2,0,-2,0,-2,-3
1532063675899,-2,0,0,-2,2,1,-1,-2
1532063675904,-2,-2,-2,-1,0,-2,-2,0
1532063675909,-1,-2,-2,-1,-3,-1,1,-1
1532063675914,-1,1,0,-1,0,-1,-1,-1
1532063675919,-1,-1,-2,-1,-2,-3,1,-1
1532063675924,-1,1,-1,-1,-2,0,-2,-1
1532063675929,-1,-2,1,-2,1,0,-2,-2
1532063675934,0,0,-1,0,-1,-2,-1,1
1532063675939,-1,0,-2,0,-1,-1,0,-2
1532063675944,-1,-1,-1,0,1,-1,1,0
1532063675949,-1,0,-3,-1,-2,-3,-2,-1
1532063675954,-2,-3,-2,0,-1,0,-1,-1
1532063675959,0,0,0,-1,-2,-2,-2,-2
1532063675964,-1,-2,-2,0,-1,-2,-2,1
1532063675969,-2,0,-2,1,0,-3,-3,0
1532063675974,-2,-1,1,-2,-3,0,0,-3
1532063675979,-1,-1,-1,0,0,-2,0,-2
1532063675984,-1,-1,-1,-1,0,0,-2,0
1532063675989,-1,1,-1,-1,-3,-1,3,-2
1532063675994,0,0,-1,-1,-4,-1,0,-3
1532063675999,-2,-1,-1,-1,0,0,-3,1
1532063676004,0,-1,0,1,-1,0,-1,0
1532063676009,1,1,1,-1,0,-2,-3,-4
1532063676014,-1,-2,-2,-1,0,0,0,1
1532063676019,-1,-2,0,1,1,0,-1,3
1532063676024,1,1,2,0,-1,-1,0,1
1532063676029,-1,-1,-1,-2,0,1,0,0
1532063676034,-2,0,-2,0,1,-2,-2,0
1532063676039,1,0,-1,0,0,1,-1,-1
1532063676044,-1,0,-1,-2,-1,-2,0,-3
1532063676049,-2,-1,0,0,0,-1,-1,-1
1532063676054,0,-1,-1,-1,-2,-1,-2,0
1532063676059,0,0,-1,1,-3,-1,1,-2
1532063676064,-2,-2,-3,-1,1,-1,0,-2
1532063676069,-1,0,-3,-1,-1,1,-1,-1
1532063676074,0,0,0,-1,1,-1,0,-1
1532063676079,-1,-2,0,-2,-4,-3,-3,-2
1532063676084,-1,0,-1,1,-2,1,-2,-1
1532063676089,0,1,-2,-2,-2,-2,0,0
1532063676094,-1,-3,1,-1,0,-2,0,0
1532063676099,-1,-1,-1,-1,1,-1,3,2
1532063676104,-1,-2,1,1,-3,-1,-1,-3
1532063676109,-1,-2,1,-1,1,-1,-1,0
1532063676114,-1,-1,-2,1,1,-1,0,0
1532063676119,-1,-4,-3,-1,0,-1,-2,-1
1532063676124,-1,-2,-1,-2,-3,0,-1,0
1532063676129,-2,0,0,0,-3,-1,-1,-1
1532063676134,-2,-1,-1,-2,-3,-2,0,-1
1532063676139,1,0,0,0,2,-1,0,-1
1532063676144,-1,-1,-2,-2,0,-1,0,-1
1532063676149,-1,-1,-1,0,0,-2,0,0
1532063676154,-1,0,0,-1,-2,-1,-5,-1
1532063676159,-1,0,-1,0,-2,-1,1,0
1532063676164,0,2,-1,-2,0,-1,-1,-1
1532063676169,-2,-1,0,0,0,-2,-1,0
1532063676174,-2,-2,-1,-1,-4,-1,-1,-1
1532063676179,1,0,-2,-1,0,0,-1,-2
1532063676184,0,-2,-1,-1,0,0,0,-1
1532063676189,1,-2,-1,1,-1,-2,-1,-1
1532063676194,-2,0,0,0,-1,1,0,-1
1532063676199,-2,-1,1,-2,-3,-2,-2,0
1532063676204,0,0,-1,1,0,-2,0,-1
1532063676209,0,-2,-1,-3,-1,0,-1,-1
1532063676214,-2,-3,1,0,0,-1,-1,-2
1532063676219,-2,-1,-1,-1,-2,0,0,0
1532063676224,1,0,1,0,0,0,-1,-1
1532063676229,-1,-1,-1,-1,0,0,-1,-1
1532063676234,-1,0,-1,-1,0,1,0,0
1532063676239,-2,-2,-1,-1,0,0,-1,-1
1532063676244,-1,-2,-1,-1,-2,-2,0,0
1532063676249,0,-2,-2,0,2,0,-1,-1
1532063676254,0,0,-2,-1,-2,1,-2,-1
1532063676259,0,0,0,0,-3,0,1,0
1532063676264,0,-1,-1,0,0,0,-1,1
1532063676269,-1,-1,0,-2,0,0,-1,-1
1532063676274,1,0,-2,-1,-2,0,0,-1
1532063676279,1,-1,0,-1,-2,-2,-2,0
1532063676284,-2,0,0,0,0,-2,-1,-2
1532063676289,-2,0,0,0,-1,-2,0,-1
1532063676294,0,-1,0,-2,1,-2,-1,-2
1532063676299,-3,-2,-2,-1,-1,0,-3,-1
1532063676304,-1,-1,-1,-1,0,1,-3,-1
1532063676309,-1,1,0,0,-1,0,1,-2
1532063676314,0,1,-2,0,-1,-2,-1,1
1532063676319,1,0,0,-1,0,0,0,-2
1532063676324,-2,0,-1,-1,-1,-1,1,-1
1532063676329,-2,0,0,-2,-1,1,-2,-2
1532063676334,-1,0,0,0,2,0,-3,-2
1532063676339,0,1,0,-2,-1,1,0,1
1532063676344,-1,-2,-1,1,0,-1,0,-1
1532063676349,-1,0,-1,0,-1,-2,-2,-1
1532063676354,-2,-1,-2,-2,-2,-1,2,-1
1532063676359,-2,-1,0,-2,2,1,-1,-1
1532063676364,-1,-1,-2,-1,-1,0,-1,0
1532063676369,0,-2,-1,0,-3,0,-1,1
1532063676374,1,-2,0,1,0,0,-1,0
1532063676379,0,-1,-2,-2,-1,0,-2,-1
1532063676384,-2,-3,-1,-1,1,-2,0,0
1532063676389,1,-1,1,-1,-1,0,-1,-1
1532063676394,-1,-2,-1,0,-1,-2,0,-1
1532063676399,1,-1,-1,-1,-2,0,-2,0
1532063676404,1,0,-1,-2,-1,0,-1,-1
1532063676409,-1,-2,-2,-1,0,-1,0,-1
1532063676414,-1,0,1,-3,0,0,0,0
1532063676419,-1,-1,-2,0,-1,-1,-1,-2
1532063676424,-1,-1,-1,0,-1,0,0,-1
1532063676429,-2,0,-1,-1,1,0,0,0
1532063676434,1,-1,-1,-1,0,-2,1,0
1532063676439,-1,-1,0,0,0,-2,0,-2
1532063676444,-1,0,0,-1,-1,0,0,-1
1532063676449,0,0,0,-1,-1,1,-1,-1
1532063676454,0,1,-1,1,-1,0,-1,-1
1532063676459,-1,-2,0,-1,-1,-3,-1,-2
1532063676464,-1,-1,0,0,-1,-2,0,0
1532063676469,-1,-2,-3,-1,-1,-1,1,-1
1532063676474,-1,0,0,-2,-1,2,-1,-1
1532063676479,-1,-1,0,-1,-1,-2,-1,1
1532063676484,-1,0,-2,-1,-1,-1,-2,0
1532063676489,-2,-3,0,-2,-1,0,0,0
1532063676494,-1,-2,-3,-1,-1,-2,-2,-3
1532063676499,-1,0,-2,-1,0,-1,0,-1
1532063676504,0,0,-1,-1,0,-2,-1,0
1532063676509,-1,-1,-2,-3,-2,-2,-3,-1
1532063676514,0,-1,-1,-1,1,-1,-1,-1
1532063676519,0,-2,-2,-1,-1,1,-2,-1
1532063676524,0,0,-1,1,1,0,-1,-1
1532063676529,-1,0,0,1,-1,-2,0,0
1532063676534,-2,-1,0,-1,0,-1,0,-1
1532063676539,0,-1,0,0,-1,-2,0,-1
1532063676544,-2,-1,0,-1,0,-2,2,0
1532063676549,1,-1,0,-1,-2,-2,-2,-2
1532063676554,0,-1,-1,0,-1,0,-1,0
1532063676559,0,0,0,-1,0,0,0,-1
1532063676564,0,-3,-2,-2,-2,0,-2,-2
1532063676569,-1,0,0,0,-1,0,-1,0
1532063676574,0,-1,0,-26,-2,0,1,-1
1532063676579,1,-2,-1,6,0,0,0,-3
1532063676584,-1,0,1,38,2,0,-4,1
1532063676589,-1,-2,0,-8,-3,-3,-1,-1
1532063676594,-1,0,0,-6,-6,-3,-2,0
1532063676599,1,-1,-1,-14,3,2,0,-1
1532063676604,-1,0,-1,-7,3,-1,2,-1
1532063676609,1,-2,1,11,-5,0,-1,-3
1532063676614,-1,-1,-3,0,-1,-2,-1,0
1532063676619,-2,1,-2,0,-1,-2,-3,0
1532063676624,1,-3,-2,-10,0,0,1,-1
1532063676629,-1,-1,-1,3,4,-1,0,-1
1532063676634,-1,0,0,5,0,1,-3,0
1532063676639,-1,-1,0,-2,-3,-1,-1,-1
1532063676644,0,-1,1,-1,-1,0,-3,-1
1532063676649,-1,0,-2,-5,1,0,-1,-2
1532063676654,-1,-1,-3,-5,-4,-1,-1,0
1532063676659,-1,1,0,5,-1,-1,0,-1
1532063676664,-2,-2,-1,-5,-3,-1,0,-1
1532063676669,0,-1,-1,-4,-2,0,0,2
1532063676674,-1,-1,0,7,1,-3,-1,-2
1532063676679,-2,-1,-2,2,-1,-1,-2,-1
1532063676684,1,1,0,-8,0,-1,1,-2
1532063676689,-2,-2,-2,0,0,-2,-1,0
1532063676694,-2,-1,-1,6,-1,0,0,-1
1532063676699,-1,0,-2,-1,2,0,1,0
1532063676704,1,0,1,-4,-4,0,0,-1
1532063676709,-2,-3,-2,-2,-2,-1,-3,-1
1532063676714,1,0,0,1,1,-1,-1,0
1532063676719,-2,-1,-1,-1,-3,-1,0,0
1532063676724,0,-1,-1,-1,1,1,-1,0
1532063676729,0,2,-1,-2,-1,-1,-2,-4
1532063676734,-2,-1,0,2,-1,0,-2,0
1532063676739,1,-2,0,1,-2,0,0,-1
1532063676744,0,1,-1,-5,0,-1,0,0
1532063676749,-1,0,0,0,-1,-1,-1,0
1532063676754,-1,-1,-2,6,0,-1,3,0
1532063676759,-1,-1,-1,-1,-2,-2,0,-1
1532063676764,-1,-1,-1,-2,-3,-2,-3,0
1532063676769,-1,-1,-3,-6,-2,-1,0,0
1532063676774,-2,-1,0,4,0,-2,-2,-1
1532063676779,-1,-2,0,1,-2,-4,-2,0
1532063676784,-1,-2,-1,1,-1,-3,2,-4
1532063676789,0,1,0,4,1,0,0,0
1532063676794,0,0,-1,-4,0,2,-1,-2
1532063676799,-1,-1,0,-4,-2,0,-1,-1
1532063676804,-3,0,0,-1,-4,-1,-4,-1
1532063676809,2,-1,1,-2,-3,-2,1,-1
1532063676814,-1,-2,0,0,0,-1,1,-2
1532063676819,-1,-1,-2,-1,-1,-1,-2,0
1532063676824,-1,0,-1,0,-1,-1,1,0
1532063676829,0,-1,0,-1,1,-1,0,0
1532063676834,0,-2,-1,-1,1,1,-2,-1
1532063676839,0,0,1,1,0,1,-2,-3
1532063676844,-2,0,-1,-1,-2,-1,-1,-3
1532063676849,-2,0,-1,-1,2,0,1,1
1532063676854,1,0,1,-1,-2,-1,1,0
1532063676859,-2,-1,-2,-1,-1,-1,0,0
1532063676864,-1,-2,0,-1,0,1,-2,-1
1532063676869,0,-2,0,9,1,-3,-3,-1
1532063676874,0,0,-2,-13,-3,-2,-3,-1
1532063676879,0,-1,0,0,0,-2,-1,-1
1532063676884,0,0,-1,-1,-4,-1,-2,0
1532063676889,-1,-3,-1,0,0,0,-1,0
1532063676894,-1,2,-1,5,1,-1,-1,-2
1532063676899,-1,0,-1,-1,-1,-1,0,-1
1532063676904,0,-13,-1,-2,1,-1,-1,-1
1532063676909,-2,3,-2,-3,0,-1,-1,-3
1532063676914,-3,-3,-1,2,-1,-3,-1,-2
1532063676919,-2,2,0,-2,-2,-2,-1,0
1532063676924,0,2,-2,3,0,0,0,0
1532063676929,2,-3,-1,-2,0,1,1,0
1532063676934,-1,1,-1,1,1,0,-3,0
1532063676939,0,0,1,1,-1,-1,-1,0
1532063676944,0,2,-1,-2,-1,-1,-1,0
1532063676949,-1,-3,-1,-2,-2,-1,0,0
1532063676954,-1,0,0,1,-3,0,0,-1
1532063676959,-1,-3,-1,1,-1,1,-1,0
1532063676964,-2,2,0,-2,-2,-1,-1,-2
1532063676969,-4,-7,0,-1,-3,1,-3,-1
1532063676974,0,2,-2,1,1,-1,1,0
1532063676979,-1,-1,-2,0,1,0,1,0
1532063676984,1,2,-1,-2,-2,-3,-1,0
1532063676989,1,2,-2,-2,0,-2,1,-3
1532063676994,-2,-4,-2,-1,-1,-1,-2,-1
1532063676999,0,-3,-1,-2,-1,-1,0,-2
1532063677004,0,2,-1,-2,0,-1,-3,0
1532063677009,0,-2,2,-1,-1,-1,-1,0
1532063677014,-1,-2,-1,0,0,-1,-1,0
1532063677019,-2,-3,-1,-1,0,-1,0,-2
1532063677024,-1,-2,0,0,-1,-1,-1,-2
1532063677029,-1,2,1,1,0,-1,0,1
1532063677034,0,-6,-1,0,-1,-1,-1,1
1532063677039,-2,0,0,-1,-3,-2,-4,-3
1532063677044,-2,-3,0,-1,-1,-1,2,-2
1532063677049,2,9,0,-1,-1,-1,0,0
1532063677054,2,-5,0,0,-2,-2,1,0
1532063677059,-3,-13,-2,0,3,2,-2,-1
1532063677064,0,0,-1,-1,-1,-1,-1,-1
1532063677069,-2,-2,-3,0,1,-2,-1,-2
1532063677074,0,1,0,0,-2,-2,1,-1
1532063677079,2,1,0,0,-3,0,0,1
1532063677084,-1,6,-2,-1,-1,-2,-3,0
1532063677089,0,-5,0,0,-1,0,-1,0
1532063677094,0,2,-2,-3,-1,-1,0,1
1532063677099,-1,-1,-2,-1,0,-2,-1,-3
1532063677104,-2,-1,0,0,-1,-2,1,-2
1532063677109,-1,0,0,-2,-2,-1,-3,0
1532063677114,-3,1,-2,-3,-1,-1,0,-2
1532063677119,2,-4,-1,0,2,-1,1,0
1532063677124,1,-1,-2,-1,0,0,0,-1
1532063677129,-1,-2,0,-1,-2,0,-2,-2
1532063677134,-1,1,-1,1,0,1,-2,0
1532063677139,0,4,0,-1,-1,-2,0,1
1532063677144,1,-2,1,0,-1,-1,0,2
1532063677149,-2,-3,-2,-2,-2,-4,-2,-3
1532063677154,-1,1,0,-1,-1,1,-4,-3
1532063677159,0,1,1,1,0,-1,4,-2
1532063677164,-1,0,0,-1,1,0,0,1
1532063677169,-1,-4,-4,0,-1,-3,-2,-1
1532063677174,-1,-2,0,-2,-2,-2,-1,-1
1532063677179,-3,-4,0,-2,-1,0,-2,0
1532063677184,1,2,2,1,1,0,0,1
1532063677189,1,1,0,-3,0,0,2,3
1532063677194,0,-1,-1,-2,-2,-1,-3,-3
1532063677199,-2,1,-2,-2,-3,-2,-2,-1
1532063677204,0,-2,0,0,0,-1,-2,-1
1532063677209,0,-1,-1,0,-1,0,0,-1
1532063677214,0,-3,1,0,0,0,2,0
1532063677219,0,4,-1,-3,-2,-1,-1,1
1532063677224,-1,-4,-1,-1,-2,-1,-1,-3
1532063677229,-2,-3,-2,0,0,-2,-2,-1
1532063677234,-2,-1,0,1,-1,-1,0,-1
1532063677239,-1,1,0,1,0,0,-1,0
1532063677244,-1,-2,-1,-1,-1,1,1,0
1532063677249,0,1,-2,-1,-3,-1,2,1
1532063677254,0,0,0,1,1,0,1,0
1532063677259,0,2,0,1,0,1,0,1
1532063677264,0,-3,0,0,-1,-2,-2,-1
1532063677269,-1,-2,2,0,-1,0,1,-1
1532063677274,-3,-1,-1,-1,-2,-1,-2,-1
1532063677279,0,-2,-2,-1,-2,-2,0,-2
1532063677284,0,0,-2,-1,-1,-1,1,0
1532063677289,1,2,-1,0,-1,0,0,-1
1532063677294,-1,-1,1,-1,0,-1,0,0
1532063677299,0,-1,0,-1,-1,0,-1,-1
1532063677304,0,0,-1,0,-2,0,-1,-2
1532063677309,0,-1,-1,1,1,1,-1,-3
1532063677314,-2,0,0,-1,2,-2,-1,-1
1532063677319,0,1,0,-1,-4,-2,-2,2
1532063677324,-2,-5,-3,-1,0,-2,-3,-4
1532063677329,-2,2,0,-2,-3,-1,0,0
1532063677334,0,-2,-1,1,1,0,0,0
1532063677339,-1,1,0,-2,-2,0,-1,-1
1532063677344,-1,1,-2,0,1,-1,0,1
1532063677349,-2,-2,-1,-1,1,-1,-1,-2
1532063677354,-1,1,-2,0,-1,0,-1,-1
1532063677359,-1,0,0,-2,-1,-1,0,-1
1532063677364,-1,-1,0,0,-2,-1,-1,-1
1532063677369,0,2,2,0,1,0,1,2
1532063677374,-4,-8,-8,-4,-5,-4,-4,-5
1532063677379,0,-1,1,2,2,-1,1,-1
1532063677384,-2,-1,1,-5,-3,-2,-1,-1
1532063677389,-2,-3,-2,0,-1,-1,-1,-4
1532063677394,1,2,0,1,0,0,0,1
1532063677399,-1,0,-2,1,-1,-3,0,-1
1532063677404,-2,-1,-2,0,-1,-1,-2,0
1532063677409,0,0,0,2,-1,-1,-2,0
1532063677414,-1,-1,1,2,1,-1,1,0
1532063677419,-2,-1,-1,-8,-4,-4,-4,-1
1532063677424,-1,0,-1,-2,1,-1,2,-1
1532063677429,-2,-1,-2,1,1,0,-2,-2
1532063677434,1,-2,0,-5,-2,0,1,1
1532063677439,1,1,0,0,-1,-1,1,1
1532063677444,-2,-1,-2,-4,-2,-3,-3,-3
1532063677449,-2,-4,-1,0,-1,-3,-1,-1
1532063677454,1,-2,0,2,-1,-1,1,1
1532063677459,0,-1,0,0,0,-1,0,-2
1532063677464,0,-1,1,1,-1,0,-2,1
1532063677469,0,1,-1,1,-2,1,2,-1
1532063677474,-1,-1,-1,-6,-2,-1,-4,-1
1532063677479,-2,-1,-1,5,1,1,0,-3
1532063677484,-1,-1,-1,-5,-1,-3,-1,-2
1532063677489,-1,-1,0,-2,-3,0,0,1
1532063677494,0,3,1,1,-1,-1,1,0
1532063677499,-1,0,0,0,-1,2,0,1
1532063677504,-3,-2,-3,1,-2,-2,-3,-2
1532063677509,-1,-2,-1,-2,-1,-1,-2,-1
1532063677514,1,1,-1,-3,-2,-1,0,0
1532063677519,1,-4,-1,1,-3,0,-1,-1
1532063677524,0,-1,1,6,5,-1,1,0
1532063677529,0,-1,-1,-8,-2,-1,0,0
1532063677534,0,-3,-1,2,1,0,0,-1
1532063677539,-1,-1,-1,-2,-1,-1,-2,-1
1532063677544,-1,0,-1,1,-3,1,0,0
1532063677549,-1,-2,-2,2,0,-2,-1,-3
1532063677554,0,0,-1,0,-1,-1,-1,-1
1532063677559,0,0,-1,-1,-1,-1,0,0
1532063677564,0,0,0,-1,-2,0,0,0
1532063677569,-1,-1,-2,-1,1,-1,-1,0
1532063677574,-1,0,0,0,-1,-1,0,1
1532063677579,-2,-2,-3,-1,0,-2,-2,-1
1532063677584,0,1,0,1,-1,0,0,1
1532063677589,-1,-2,0,-1,-1,-2,0,-3
1532063677594,0,-1,0,-2,0,-2,1,-2
1532063677599,-3,-1,0,0,2,0,0,1
1532063677604,-1,-1,0,-2,-2,-1,-1,-1
1532063677609,0,0,-2,0,-1,-1,0,-1
1532063677614,-1,-2,-2,2,1,-1,1,-1
1532063677619,0,-3,-3,-3,-1,-3,-2,-2
1532063677624,2,-1,0,-1,0,0,1,-2
1532063677629,-1,0,0,-1,-1,1,-3,-1
1532063677634,-2,0,-3,2,-1,-1,0,0
1532063677639,0,1,-2,0,-2,0,1,1
1532063677644,-1,-1,-1,0,-2,-1,0,-1
1532063677649,-2,-3,1,-1,0,-1,-2,0
1532063677654,-2,-2,-1,-2,-1,-1,-1,-3
1532063677659,0,0,-1,-1,-4,0,-1,-1
1532063677664,0,0,0,-1,-3,-1,-2,0
1532063677669,-1,1,-2,-2,-2,-2,0,-1
1532063677674,-2,0,-1,-1,0,0,-2,0
1532063677679,0,-2,-2,0,0,-1,-1,-2
1532063677684,0,-2,0,0,-1,-1,-1,1
1532063677689,1,-1,0,0,-1,-1,0,0
1532063677694,-1,-1,-1,0,1,-1,0,0
1532063677699,-2,-3,-1,0,-1,0,-1,0
1532063677704,-1,0,-1,-1,0,0,-2,0
1532063677709,-1,-1,-1,-3,-4,-1,-2,-1
1532063677714,-1,-4,-2,-1,-1,0,-1,0
1532063677719,0,-2,-1,0,-1,-3,-3,-4
1532063677724,1,1,-1,-1,0,-2,-1,-1
1532063677729,-3,-2,-2,2,2,-1,-1,-1
1532063677734,0,-1,0,-1,2,-1,0,2
1532063677739,-2,1,-2,-2,-2,0,-1,0
1532063677744,0,-1,0,0,-2,0,1,-3
1532063677749,0,-1,-2,-3,-1,-1,-1,1
1532063677754,-1,-1,0,-1,-4,-2,-1,-2
1532063677759,-1,-1,0,1,1,0,-1,1
1532063677764,1,-1,-1,0,1,0,0,-1
1532063677769,-1,0,0,3,1,-1,0,-1
1532063677774,-1,1,-2,-4,-3,0,0,0
1532063677779,0,-2,0,-7,-6,0,-1,-1
1532063677784,-1,-4,-2,4,6,1,1,0
1532063677789,-1,-2,0,-3,1,-3,-2,0
1532063677794,-3,0,-2,-5,-4,0,-1,-1
1532063677799,0,2,0,-1,0,-1,-2,-1
1532063677804,-2,-1,-1,-1,-3,-1,-3,1
1532063677809,0,-1,0,3,2,2,1,1
1532063677814,-2,-1,2,0,1,-1,-1,-1
1532063677819,0,1,-1,-2,-4,0,3,1
1532063677824,-1,-1,0,-1,1,-2,-3,0
1532063677829,0,0,-3,-1,-1,0,1,-2
1532063677834,1,0,0,3,-3,-1,-2,-1
1532063677839,-2,-2,1,-1,1,1,-2,-1
1532063677844,-2,1,0,-1,-1,-2,-1,-2
1532063677849,-2,-1,1,-4,-2,0,-1,1
1532063677854,-1,-2,-2,3,-1,-1,-1,-2
1532063677859,0,-1,-2,7,1,-1,1,-1
1532063677864,-1,0,-2,-13,-2,-2,-1,0
1532063677869,-1,0,0,-1,-2,-1,0,-2
1532063677874,0,-1,0,0,-1,-1,1,-2
1532063677879,0,1,2,3,-2,-1,-1,1
1532063677884,-1,-2,-4,-6,-1,0,-1,0
1532063677889,0,-1,-2,0,0,-1,0,-1
1532063677894,1,4,2,-1,-1,-1,0,2
1532063677899,-2,0,-3,-11,-7,1,-1,0
1532063677904,0,-1,-1,7,0,1,-2,1
1532063677909,-2,-2,-4,-20,4,-6,-3,-2
1532063677914,0,0,0,4,-2,-2,1,1
1532063677919,-2,-2,-2,3,2,1,-1,-3
1532063677924,-1,0,-1,-2,-2,-1,-1,-1
1532063677929,-1,-1,-1,9,0,2,-1,0
1532063677934,-1,-1,-1,-15,-3,-1,0,0
1532063677939,-1,0,-1,-2,-1,-3,-1,0
1532063677944,0,-2,-1,-2,-1,0,1,-1
1532063677949,0,-3,-1,2,-1,1,1,0
1532063677954,-2,2,-1,0,-1,0,1,-1
1532063677959,-2,-1,-1,-7,3,-1,-2,-1
1532063677964,0,-1,-1,-8,-2,-1,-1,0
1532063677969,-2,-3,0,14,-2,-2,-4,1
1532063677974,1,1,-1,1,-1,1,0,-1
1532063677979,0,-1,0,-1,-15,-3,-1,1
1532063677984,0,-4,-1,8,6,-2,-2,0
1532063677989,2,4,0,-25,1,3,5,-3
1532063677994,0,0,1,25,3,0,-2,-1
1532063677999,-4,-7,-4,-8,-2,-3,-9,1
1532063678004,-1,9,-1,-1,0,-1,-2,-1
1532063678009,0,-9,0,2,1,-1,0,1
1532063678014,-1,0,-3,-19,-3,2,0,-4
1532063678019,2,2,-1,-4,12,0,1,-4
1532063678024,-2,-5,-3,-17,-15,-1,4,3
1532063678029,-3,2,-4,1,5,-5,-4,-1
1532063678034,2,-2,0,0,-2,-2,-2,0
1532063678039,1,-4,0,22,5,3,0,-2
1532063678044,-1,1,-1,-21,-6,-1,-3,-4
1532063678049,0,2,2,8,-4,0,0,0
1532063678054,-3,-4,-4,-33,-6,-5,-4,-2
1532063678059,-1,1,1,13,1,0,0,1
1532063678064,0,-2,1,16,8,0,-1,-1
1532063678069,0,-2,-3,-1,-4,0,2,-2
1532063678074,-1,2,3,6,-1,1,-1,-1
1532063678079,1,2,1,8,7,2,3,1
1532063678084,-3,-4,-1,-7,-6,-2,-2,-1
1532063678089,0,-2,-1,3,-7,-1,-3,0
1532063678094,-2,-2,-3,2,-1,-2,-1,1
1532063678099,0,-1,-3,-11,-2,0,0,-1
1532063678104,-1,-2,0,16,7,0,1,-2
1532063678109,0,0,0,-5,1,2,0,-3
1532063678114,1,-2,-1,0,-1,-1,1,0
1532063678119,-1,-1,-1,5,-5,-2,0,-1
1532063678124,-1,-2,-2,-9,3,-1,-3,0
1532063678129,1,3,0,-7,1,0,1,1
1532063678134,1,0,4,14,5,0,2,-1
1532063678139,-5,-4,-5,-10,-16,-3,-11,3
1532063678144,1,-2,-4,-4,-1,-1,-3,0
1532063678149,0,1,0,-16,-2,-1,1,-3
1532063678154,1,2,1,2,1,1,2,0
1532063678159,0,-1,0,3,1,-1,1,-1
1532063678164,-2,-1,-1,2,0,-1,-1,0
1532063678169,-1,0,0,-10,-3,-1,0,-3
1532063678174,-2,-1,0,65,1,0,-1,-3
1532063678179,0,0,0,-68,-1,-1,0,0
1532063678184,-2,-2,-3,15,-7,-3,-4,0
1532063678189,-2,-2,0,2,2,-2,-3,1
1532063678194,0,-1,-2,-17,-3,-1,1,-1
1532063678199,0,1,1,10,1,1,1,-1
1532063678204,2,-2,0,-3,3,2,2,0
1532063678209,-1,-1,-2,-6,-4,-1,-1,-2
1532063678214,-1,-1,3,-7,-2,-1,-3,1
1532063678219,-3,-4,-5,18,-3,-5,-2,-2
1532063678224,-1,1,-1,-12,3,-1,0,-3
1532063678229,-1,-2,-2,15,-1,-1,-2,1
1532063678234,0,-1,-2,-11,-2,-1,-2,0
1532063678239,1,0,2,4,0,0,1,-2
1532063678244,-1,-1,-1,2,-1,-1,1,-1
1532063678249,-1,-1,0,0,1,1,-2,-1
1532063678254,-2,-2,-2,-1,-2,0,-1,1
1532063678259,-1,0,0,4,-1,-1,0,-1
1532063678264,0,-2,-1,-1,1,-2,0,1
1532063678269,-2,0,2,-10,-3,1,2,-3
1532063678274,1,-4,-5,14,4,-2,3,4
1532063678279,-1,-1,1,12,-4,-1,-4,-1
1532063678284,1,0,0,6,1,1,0,0
1532063678289,0,-1,-1,-4,1,-1,0,2
1532063678294,0,-1,-2,-14,-3,-1,-1,-3
1532063678299,-1,1,2,5,4,0,0,-3
1532063678304,-1,-2,3,-2,0,-1,-2,-3
1532063678309,-1,-1,-2,-1,-4,-1,-2,1
1532063678314,0,-1,0,-4,-3,-1,-1,-1
1532063678319,1,1,0,3,1,1,1,-2
1532063678324,-3,-2,-2,-8,-5,-1,-2,-2
1532063678329,-2,-1,-1,9,-1,-2,-1,-1
1532063678334,-1,0,-3,-4,0,-3,-3,-1
1532063678339,0,-2,-3,-5,0,0,2,0
1532063678344,0,1,0,1,-2,0,0,-1
1532063678349,0,-1,-1,4,-3,-2,-1,-2
1532063678354,-2,1,1,-9,0,0,-3,0
1532063678359,-2,-2,-1,-4,-2,-2,-2,0
1532063678364,0,0,-1,11,5,2,0,-1
1532063678369,-1,0,0,1,0,-1,-2,2
1532063678374,-7,-3,-1,5,-4,-2,-5,-11
1532063678379,2,1,0,16,-1,2,7,13
1532063678384,1,0,-2,-5,1,-1,-1,-1
1532063678389,-1,-1,-1,-1,0,-2,-3,-1
1532063678394,0,0,2,-13,-4,1,-1,-2
1532063678399,-5,-3,-2,-10,-3,-2,0,-5
1532063678404,-1,-2,-2,-2,-3,1,-1,0
1532063678409,0,-1,-1,5,4,1,1,-1
1532063678414,1,-2,-1,-16,-4,-1,0,1
1532063678419,-2,-1,1,4,12,-3,-3,-6
1532063678424,1,-3,-3,13,33,2,0,2
1532063678429,-1,-1,0,-21,-33,-1,-6,-3
1532063678434,3,1,0,16,2,0,3,3
1532063678439,-2,0,3,5,-6,-2,-1,-5
1532063678444,-1,-2,-2,-7,-4,-4,-7,3
1532063678449,0,0,-2,0,13,-1,-1,-1
1532063678454,1,0,0,-8,-4,-1,1,-1
1532063678459,0,-1,-2,-18,7,5,-2,-2
1532063678464,-3,0,2,-6,-18,-8,0,-6
1532063678469,2,-1,-1,14,8,-2,5,4
1532063678474,-2,-4,-9,-10,-13,-1,-3,0
1532063678479,0,0,0,1,-2,-2,-4,-5
1532063678484,-5,1,0,-3,-5,2,-1,-3
1532063678489,1,0,2,-2,-2,0,2,4
1532063678494,2,3,2,-11,-3,-3,1,-1
1532063678499,-2,-3,1,9,2,0,-4,-7
1532063678504,-1,-1,-5,-9,0,-3,-2,3
1532063678509,0,-3,-3,2,-2,-2,-2,-2
1532063678514,-2,1,2,-11,-4,0,0,-1
1532063678519,-2,-1,-1,17,2,-1,1,0
1532063678524,-2,-1,2,-4,10,1,-1,-1
1532063678529,-1,0,-3,0,-22,0,-2,0
1532063678534,1,0,-2,9,4,-2,1,0
1532063678539,-1,1,5,-8,-9,0,-2,-1
1532063678544,0,0,-2,2,5,0,0,0
1532063678549,0,0,1,4,3,1,0,0
1532063678554,0,-3,1,-3,-5,-1,0,-2
1532063678559,0,1,-1,4,0,2,0,-1
1532063678564,1,0,-3,-4,2,-1,-2,-2
1532063678569,-1,-4,-1,5,9,-4,-4,-2
1532063678574,-1,0,-2,-10,-3,-2,-1,0
1532063678579,-2,-1,0,3,-1,0,0,0
1532063678584,-1,1,2,6,-8,1,0,1
1532063678589,2,0,1,6,2,3,-1,0
1532063678594,-1,-1,1,-6,1,-3,1,-2
1532063678599,-2,0,-1,3,2,-1,0,-2
1532063678604,0,-1,1,0,-4,-1,-1,0
1532063678609,-1,0,0,-3,-4,-2,0,-1
1532063678614,1,1,1,1,1,1,1,-1
1532063678619,-1,-2,-2,3,-1,-2,-2,0
1532063678624,-3,-2,-2,-3,-3,1,-2,-2
1532063678629,0,0,0,7,2,1,1,0
1532063678634,-1,-1,-1,-2,-3,-1,-1,-1
1532063678639,-2,-1,0,-1,1,-2,0,-3
1532063678644,1,-1,-1,-2,-2,0,1,2
1532063678649,-1,-2,0,2,0,-2,-1,-3
1532063678654,0,0,-1,-8,-2,1,0,-1
1532063678659,0,0,-1,3,3,0,-3,0
1532063678664,-2,-1,-1,0,-5,-3,-4,-4
1532063678669,1,1,0,3,5,2,1,2
1532063678674,2,1,0,0,-1,-1,3,6
1532063678679,-1,0,-1,-4,-1,-1,-2,-1
1532063678684,1,1,0,1,0,0,1,0
1532063678689,-2,-4,-6,1,-5,-4,0,-2
1532063678694,-2,-6,-2,-10,-1,1,-1,-4
1532063678699,-1,-1,-1,-1,0,0,1,1
1532063678704,-1,-1,0,-2,-1,0,0,-1
1532063678709,1,2,1,0,-1,0,0,0
1532063678714,-2,-1,-1,4,1,0,-1,-1
1532063678719,-1,-2,-3,-3,-4,-2,-2,-2
1532063678724,0,-4,-3,1,-2,-1,-1,-1
1532063678729,-1,0,-1,0,-1,-1,-2,-1
1532063678734,-2,-2,-3,0,-1,-1,-2,-2
1532063678739,-2,-1,-2,-4,-2,-1,-1,-1
1532063678744,-1,-1,-1,1,0,-1,-1,-2
1532063678749,-1,-1,-3,-2,-2,-1,-1,0
1532063678754,0,0,-1,1,-2,-1,0,-1
1532063678759,0,-2,-1,-2,1,-1,-2,-1
1532063678764,-2,0,2,-2,0,-1,-2,0
1532063678769,-1,-2,-2,-3,-1,2,1,0
1532063678774,-2,1,-1,1,1,2,1,-1
1532063678779,0,-3,-1,0,-2,-3,-3,-3
1532063678784,-2,1,-1,-3,-1,-2,1,0
1532063678789,-1,1,-1,0,0,-1,-2,-1
1532063678794,-1,-1,0,-3,-2,-3,-2,-1
1532063678799,-1,-3,-4,-2,-3,-1,1,0
1532063678804,-1,-2,-1,-2,0,-1,0,-1
1532063678809,-1,0,0,0,0,-3,-1,-1
1532063678814,0,-1,-1,0,0,0,-2,-2
1532063678819,-1,-2,-1,-1,-1,0,0,0
1532063678824,0,-2,-2,0,-1,0,-1,-1
1532063678829,-1,0,0,-2,0,-1,-1,0
1532063678834,0,0,-1,1,-1,-2,-4,-1
1532063678839,-1,0,-1,-2,0,-1,0,0
1532063678844,-1,-1,-1,1,-1,-1,0,0
1532063678849,-1,-3,-2,-2,-1,-2,-1,-4
1532063678854,0,1,-1,0,0,-1,-2,-1
1532063678859,-1,1,1,-1,1,-3,1,0
1532063678864,-2,-1,-2,-1,-1,-1,-2,-4
1532063678869,-1,-2,0,-1,-3,-1,-2,-1
1532063678874,-3,0,0,-2,0,0,-2,-2
1532063678879,0,0,-1,0,1,-1,2,0
1532063678884,-2,-1,-1,-1,-2,-1,-1,1
1532063678889,-2,0,0,1,-1,-2,0,-1
1532063678894,-1,-3,-1,0,0,-1,-1,-1
1532063678899,1,0,0,-1,1,2,0,0
1532063678904,-1,0,0,-2,0,-2,0,1
1532063678909,-1,-4,-3,0,0,-2,-2,-4
1532063678914,-1,-1,-1,-1,-1,-2,-1,-1
1532063678919,5,3,-2,0,0,1,0,1
1532063678924,0,-2,-3,-2,-2,-1,-4,-2
1532063678929,0,-2,-1,-2,-1,-2,-4,-1
1532063678934,-6,-6,-1,-2,-1,-2,-6,-7
1532063678939,9,5,2,1,1,2,6,8
1532063678944,0,0,0,-1,1,0,0,-1
1532063678949,-2,0,-1,-1,-2,-1,-2,-2
1532063678954,-1,-2,-1,1,-2,-2,0,-2
1532063678959,-5,-2,-1,0,-2,-1,-2,-5
1532063678964,1,0,-1,-1,0,-1,0,0
1532063678969,-1,0,0,1,0,1,1,-1
1532063678974,2,1,0,-1,0,0,2,2
1532063678979,-3,-4,-1,-2,-2,-1,-3,-3
1532063678984,-2,-2,1,-1,-1,1,0,0
1532063678989,-1,-1,-1,-2,-1,0,-1,-1
1532063678994,1,1,0,1,-1,1,1,2
1532063678999,-2,-3,-2,-2,-1,0,-3,-1
1532063679004,-2,-1,0,0,-2,-1,-2,-2
1532063679009,0,0,-1,-2,0,-1,0,1
1532063679014,-1,-2,-1,-1,0,-2,0,0
1532063679019,-4,-3,0,-1,0,-2,-2,-3
1532063679024,2,-1,-2,2,0,1,-1,-2
1532063679029,0,-1,-1,-1,-1,1,-2,-2
1532063679034,0,-2,-1,1,0,0,1,-1
1532063679039,-2,-2,-1,-1,-2,-1,-1,-2
1532063679044,-2,0,0,-2,-1,0,-2,-1
1532063679049,-1,0,0,-1,0,-2,0,-1
1532063679054,0,2,-3,-1,1,0,-1,-1
1532063679059,0,-2,-1,-2,0,-2,-1,-1
1532063679064,0,-1,-2,-1,-1,-2,-1,-1
1532063679069,-2,-1,-1,0,-1,0,0,0
1532063679074,-1,1,0,0,-1,0,-1,-1
1532063679079,-1,-2,-1,1,0,-1,-1,-2
1532063679084,0,-1,-2,-1,0,-1,1,0
1532063679089,0,0,0,1,0,-1,-1,-1
1532063679094,-2,1,1,1,-1,-2,1,0
1532063679099,-2,0,-2,-1,0,-1,0,-1
1532063679104,2,0,-1,-1,1,1,-1,3
1532063679109,-2,-1,0,-1,0,0,0,0
1532063679114,0,-1,1,-1,-2,-1,-2,-2
1532063679119,-1,-1,1,-1,-1,-1,0,-3
1532063679124,-3,0,1,1,-2,-3,-1,-2
1532063679129,-3,-2,-1,0,-1,-1,0,-1
1532063679134,2,0,-2,-1,-1,1,1,1
1532063679139,0,2,-2,0,0,0,-1,2
1532063679144,-2,-9,-2,-1,1,-1,-3,-3
1532063679149,-2,3,-1,1,-1,-1,-6,-11
1532063679154,0,-1,-2,0,-2,-2,-1,-1
1532063679159,0,2,0,0,0,0,1,0
1532063679164,-3,-1,-1,-2,-3,-2,-1,4
1532063679169,1,-3,-1,-1,0,-1,-2,2
1532063679174,-1,0,0,-1,0,0,-1,-2
1532063679179,2,3,-1,-1,0,-1,2,-2
1532063679184,0,1,-1,-1,-2,0,0,3
1532063679189,-7,-5,0,-2,-2,-2,-5,-9
1532063679194,-1,-1,-2,-2,0,-1,-1,-1
1532063679199,-1,-3,0,-1,-2,0,-1,1
1532063679204,1,2,-2,0,1,-1,0,-4
1532063679209,1,-1,-1,0,-1,-1,4,4
1532063679214,-1,-2,-1,0,-1,0,0,0
1532063679219,-2,-1,0,-2,-1,1,-1,-2
1532063679224,0,2,0,-2,-1,0,-1,0
1532063679229,2,2,-2,-1,-1,-1,0,2
1532063679234,-2,-2,-1,-1,-2,-1,-2,-1
1532063679239,-2,-4,-1,-1,-2,-2,-2,-2
1532063679244,-1,-1,0,0,0,1,-2,-2
1532063679249,0,-1,-1,-1,-1,-2,1,0
1532063679254,0,0,0,-2,-2,-3,-1,0
1532063679259,-2,-1,0,-1,-3,0,-3,1
1532063679264,0,-1,1,-2,-1,-1,-1,-2
1532063679269,1,-2,-1,0,-2,0,-1,1
1532063679274,-1,1,0,-1,0,-1,-1,1
1532063679279,-1,-3,0,-2,-1,-2,-1,-2
1532063679284,-1,-1,0,1,-2,-3,0,-2
1532063679289,0,0,0,-2,-1,2,1,1
1532063679294,0,-2,-2,0,-2,1,-1,0
1532063679299,0,0,-1,0,1,-2,0,-2
1532063679304,-1,1,-2,-1,-1,-2,-1,-2
1532063679309,0,-1,-2,-2,-4,-2,2,0
1532063679314,-2,-2,-1,-1,-1,-2,0,0
1532063679319,-1,-1,-1,-1,-2,-1,-2,-3
1532063679324,-1,-1,-2,0,-1,0,-1,-2
1532063679329,-1,1,0,0,-2,0,-1,1
1532063679334,-2,-1,-1,0,0,0,-1,-2
1532063679339,-2,0,0,-1,0,-1,-1,-1
1532063679344,-2,0,-3,-2,0,-1,0,-1
1532063679349,-1,0,0,0,1,0,-1,-1
1532063679354,-2,-3,-2,0,-1,-2,-1,0
1532063679359,-1,-1,-1,0,-2,-2,-1,1
1532063679364,-1,-1,0,-3,0,0,0,-2
1532063679369,0,-1,0,0,0,-1,0,0
1532063679374,-1,-2,0,-1,-2,0,0,-2
1532063679379,-1,0,-1,0,0,0,0,-2
1532063679384,-1,0,-1,1,-2,-1,0,0
1532063679389,-1,-3,-3,-1,-2,-2,-2,-1
1532063679394,0,-1,-1,-2,-1,-2,0,0
1532063679399,-1,0,-1,-1,-2,0,-1,1
1532063679404,1,0,-1,0,-1,0,-3,0
1532063679409,-1,0,-1,-2,0,0,-1,1
1532063679414,0,0,-1,-1,-1,1,0,-2
1532063679419,0,0,-2,-2,0,0,-3,1
1532063679424,-2,-1,0,-1,0,-1,0,0
1532063679429,0,2,0,-1,-1,0,-2,-2
1532063679434,0,0,0,0,0,-2,-1,-3
1532063679439,-2,-1,-1,1,-2,-1,0,0
1532063679444,0,-2,-1,1,-1,0,0,-1
1532063679449,-1,0,-1,-2,-1,0,-1,-1
1532063679454,-1,0,-2,-1,-2,-1,-3,-1
1532063679459,0,-2,-1,0,-1,0,-1,0
1532063679464,0,-1,-1,-1,-1,-2,-1,-1
1532063679469,1,-1,0,1,1,-1,-2,-1
1532063679474,0,0,0,1,-1,0,1,1
1532063679479,-1,-1,-1,-1,0,-2,-1,-2
1532063679484,-1,-2,-1,-2,-3,-2,-2,-1
1532063679489,-2,-2,1,-2,-1,-1,0,1
1532063679494,-1,-1,0,-1,0,1,-1,-1
1532063679499,1,0,-1,-1,-1,0,0,-1
1532063679504,-2,0,0,0,1,-2,0,-1
1532063679509,0,-2,-1,-1,-1,-1,0,-2
1532063679514,0,1,-1,0,-2,-1,2,1
1532063679519,-1,-5,-1,-1,0,-2,-1,0
1532063679524,-1,0,-2,-1,-2,-1,0,-1
1532063679529,-1,-1,-1,0,-2,-1,-1,-2
1532063679534,0,1,-1,-1,0,0,-1,-1
1532063679539,-1,0,0,0,-1,0,-1,-1
1532063679544,-1,0,0,-1,0,-1,-1,-1
1532063679549,0,0,-1,-1,-1,-3,-1,-1
1532063679554,-2,0,-2,1,0,-1,-1,-1
1532063679559,-1,-2,-3,-1,-1,-1,0,-1
1532063679564,0,-3,1,-1,-1,-1,-3,-2
1532063679569,0,0,-3,0,-1,-1,0,-2
1532063679574,-1,-1,0,-1,-1,-1,-1,-1
1532063679579,0,0,-2,-1,0,-1,-2,-2
1532063679584,-1,-1,-1,-1,-1,0,-2,-2
1532063679589,0,3,-1,-3,0,-2,-2,-1
1532063679594,-1,-1,-1,0,-1,0,-1,-3
1532063679599,-1,0,0,-1,-1,0,0,1
1532063679604,-1,-2,0,-1,-2,0,-3,-2
1532063679609,1,-2,0,0,0,-1,0,0
1532063679614,0,-1,-1,2,0,-2,0,1
1532063679619,-1,0,0,0,0,-2,0,-1
1532063679624,-1,-1,-2,0,-1,0,0,-1
1532063679629,-1,-2,0,0,0,-1,1,-1
1532063679634,-1,-1,-1,-1,0,-2,-2,0
1532063679639,0,-1,-1,-1,-1,1,-1,0
1532063679644,-2,-1,0,-1,0,-3,0,0
1532063679649,-1,-1,0,-2,-2,0,-2,0
1532063679654,0,-2,-2,-2,-1,0,-2,-1
1532063679659,-2,-1,-1,-1,0,0,-2,-1
1532063679664,-1,1,-1,-1,0,-2,-2,-1
1532063679669,-1,-1,-2,-1,-1,0,1,-1
1532063679674,-1,1,-1,-2,-1,0,0,-1
1532063679679,-1,0,1,-1,-1,-1,-1,-2
1532063679684,1,-2,-2,-1,0,-2,-1,0
1532063679689,-1,-1,1,0,-2,-1,-2,-1
1532063679694,1,-2,-1,0,-2,1,0,0
1532063679699,1,-1,-2,0,1,-2,0,-1
1532063679704,0,2,0,0,-1,0,0,-2
1532063679709,-2,1,1,-2,-2,0,-1,0
1532063679714,-1,-1,-1,-1,0,1,0,-1
1532063679719,0,-2,0,0,-1,-3,0,-1
1532063679724,0,-1,0,0,-1,-1,0,1
1532063679729,-1,-2,-3,0,-1,-1,1,1
1532063679734,-1,1,0,-3,-2,-2,0,0
1532063679739,-1,-2,-2,0,-3,-1,0,-1
1532063679744,-1,-2,-1,-1,-2,0,-3,-1
1532063679749,-1,1,-2,0,0,0,-1,-3
1532063679754,0,0,0,0,-2,-1,-2,-1
1532063679759,0,1,-2,-1,0,1,0,-1
1532063679764,3,-1,-1,-2,-2,-1,0,-1
1532063679769,0,0,-1,0,0,-1,-2,-2
1532063679774,-2,-2,0,-1,0,-2,-2,0
1532063679779,-1,0,-1,-2,-1,-1,-2,1
1532063679784,-3,0,1,-2,-1,0,0,0
1532063679789,-1,0,0,-1,-1,-2,-1,-2
1532063679794,-1,-3,-3,-1,-1,-1,0,-1
1532063679799,-2,0,-1,-1,-2,1,-1,-1
1532063679804,-1,0,-2,-1,0,0,0,-2
1532063679809,0,-3,-1,0,0,-1,-2,-1
1532063679814,-1,0,-1,-2,-2,-2,-1,0
1532063679819,0,-1,-2,-1,-1,-1,-2,-1
1532063679824,-1,-3,-2,-1,0,0,0,0
1532063679829,0,-1,0,-1,-1,0,-2,1
1532063679834,2,0,0,-1,-1,-1,-1,-2
1532063679839,-1,-2,1,-2,0,-2,0,-1
1532063679844,0,0,-2,0,0,-1,0,-2
1532063679849,0,-2,-2,-1,0,-1,-1,-1
1532063679854,-1,-2,-1,-1,-1,0,-2,0
1532063679859,-1,0,-1,-1,0,-2,-3,2
1532063679864,0,-2,-1,-1,0,0,-2,0
1532063679869,-1,-4,-1,0,-3,-1,1,-1
1532063679874,0,0,0,-2,0,1,-1,-1
1532063679879,-1,0,0,1,-1,0,1,-1
1532063679884,-1,-2,-2,-1,-1,-1,-2,0
1532063679889,-1,1,0,-3,1,-2,0,-1
1532063679894,-2,0,-2,-1,0,-1,0,0
1532063679899,-1,-1,-1,0,-1,0,-2,0
1532063679904,0,-1,0,-1,0,-1,-3,-1
1532063679909,-3,0,1,-1,0,1,-2,0
1532063679914,0,-1,0,0,0,0,-1,0
1532063679919,0,-1,-1,-3,-2,-2,-1,-2
1532063679924,-2,-1,1,-1,-3,-1,0,-2
1532063679929,0,-1,1,-1,-2,0,0,-1
1532063679934,-1,-2,-1,-1,-3,-2,0,-2
1532063679939,0,-1,0,-1,0,0,0,1
1532063679944,-1,1,0,-1,-1,-1,-1,-1
1532063679949,1,-1,-3,-2,-1,-1,-2,-1
1532063679954,0,1,0,-1,-2,0,-1,-3
1532063679959,-1,-4,-2,1,-1,1,1,-1
1532063679964,-1,-1,0,-1,0,-2,0,0
1532063679969,0,-1,-2,0,0,0,-2,-1
1532063679974,-2,0,-2,0,-1,-1,0,-1
1532063679979,0,0,-1,0,-1,-2,0,-1
1532063679984,0,-2,0,-1,0,-1,-2,0
1532063679989,-1,-1,-1,-1,-2,-1,-1,-2
1532063679994,-1,-1,-2,-2,0,-1,0,-1
1532063679999,0,-1,0,0,-1,-1,-1,-2
1532063680004,-1,0,-3,0,0,0,-1,-1
1532063680009,-3,0,-3,0,0,0,-1,-1
1532063680014,-1,-2,-1,-1,0,-1,-1,-1
1532063680019,-1,2,-2,-2,1,-1,-1,-2
1532063680024,-1,-1,-1,0,-1,-1,-1,-1
1532063680029,2,0,-1,-2,-1,-3,-1,1
1532063680034,-1,-1,0,0,-2,1,1,0
1532063680039,-1,-1,1,-1,-1,0,-1,0
1532063680044,0,0,-2,-2,-2,-2,1,-2
1532063680049,-2,0,-1,0,-1,0,0,-1
1532063680054,-2,-1,0,1,-1,-1,-1,-1
1532063680059,-2,-1,-1,-1,0,1,-1,0
1532063680064,-2,-1,-1,-1,-1,-3,-1,0
1532063680069,-1,0,0,0,0,1,-1,-1
1532063680074,-1,-1,-2,-2,0,-1,-1,-1
1532063680079,-1,-1,-1,-1,-2,-1,0,1
1532063680084,-1,0,1,-1,-1,1,-1,-2
1532063680089,1,-1,0,-1,0,-2,1,-2
1532063680094,-1,-2,0,-2,-1,-2,0,-1
1532063680099,-1,-1,-1,-1,-1,0,-1,-1
1532063680104,-1,1,-2,-1,0,-1,-1,-1
1532063680109,-1,-2,0,-1,0,-1,0,-1
1532063680114,-1,-3,0,-2,-1,-1,-2,0
1532063680119,0,-1,-1,-1,-2,-1,-2,-1
1532063680124,-1,0,0,0,-2,0,0,-1
1532063680129,0,0,-1,0,-1,1,-2,-1
1532063680134,-1,-1,-2,1,0,-1,0,-1
1532063680139,1,-2,-2,-2,-2,-2,0,0
1532063680144,-1,0,0,0,0,-1,0,-1
1532063680149,-1,-2,-1,-3,0,-2,0,1
1532063680154,0,0,-1,-1,-2,-1,-1,-1
1532063680159,1,0,-1,0,-1,-1,-1,0
1532063680164,-2,0,0,-1,0,-2,-1,-1
1532063680169,0,-1,0,-1,0,0,0,-2
1532063680174,0,-2,-1,1,1,0,0,-1
1532063680179,-1,0,1,0,0,-1,0,-1
1532063680184,1,-1,-1,0,-1,-3,0,-2
1532063680189,-2,-3,0,0,0,-2,-1,3
1532063680194,0,1,1,-1,0,0,-1,2
1532063680199,-2,0,-1,-1,0,-1,-1,-2
1532063680204,-1,-2,-1,-2,1,0,0,-2
1532063680209,-1,0,0,0,-1,-1,-2,-2
1532063680214,0,-2,-1,-2,-2,-1,-1,-2
1532063680219,-1,0,0,-1,-1,0,-1,0
1532063680224,-2,-3,0,0,0,0,-1,-1
1532063680229,-1,-1,-2,-1,-2,0,-1,0
1532063680234,-2,-1,-2,-1,-2,-1,0,0
1532063680239,-2,-2,0,-1,-2,-2,-1,0
1532063680244,0,0,-1,-2,1,-1,-1,1
1532063680249,-1,-1,-1,-1,1,0,-1,1
1532063680254,0,0,-2,1,-1,0,0,0
1532063680259,-1,-2,-1,0,2,-1,-1,-3
1532063680264,-1,-1,1,0,-3,-2,-1,-1
1532063680269,-1,-1,1,0,-2,0,-1,-2
1532063680274,0,2,-2,-1,0,0,-1,-1
1532063680279,0,0,0,0,-2,0,-1,1
1532063680284,0,-1,0,-1,-1,-1,0,0
1532063680289,-1,-1,-1,1,-2,-2,-1,-1
1532063680294,-1,-2,-2,-2,0,-2,-1,-1
1532063680299,0,-2,-1,0,0,0,-1,-1
1532063680304,-1,0,-2,1,-1,0,-2,0
1532063680309,-2,-1,0,-2,-1,0,-2,0
1532063680314,-1,0,0,0,0,0,1,-2
1532063680319,-2,0,0,-2,0,-1,-2,-1
1532063680324,-1,0,-1,-1,-1,0,0,-2
1532063680329,0,0,-2,0,-1,-1,-1,-1
1532063680334,-1,-1,0,1,-1,0,-2,0
1532063680339,1,-2,1,-2,1,0,-1,-1
1532063680344,0,-1,-1,-1,-1,-2,-2,-1
1532063680349,-1,-3,-2,0,-1,-2,0,-2
1532063680354,-3,-1,0,0,0,-1,1,0
1532063680359,1,-1,-2,-1,-2,-2,0,0
1532063680364,0,-1,-1,-1,0,-1,-1,0
1532063680369,-3,-2,-2,-2,0,1,0,0
1532063680374,-2,-1,-2,-1,-1,-1,-1,-2
1532063680379,0,0,-1,0,1,-1,-2,-2
1532063680384,1,-1,0,-1,-1,-1,-1,-1
1532063680389,1,-1,-1,-1,0,-1,-2,-1
1532063680394,0,0,0,-1,-2,-1,1,-1
1532063680399,-1,-2,0,-1,-3,0,-1,1
1532063680404,0,-1,-1,-2,-3,-2,0,-1
1532063680409,-1,0,-1,-1,1,-2,0,-1
1532063680414,0,-1,1,-1,-1,1,-2,-3
1532063680419,1,0,-2,-1,-1,-1,0,-2
1532063680424,1,-1,-1,0,-1,0,-2,-1
1532063680429,-1,-1,1,-1,-3,0,-1,-1
1532063680434,-2,0,-1,-1,-1,-1,-1,0
1532063680439,-2,-1,-1,0,0,0,-2,-2
1532063680444,-1,1,0,-2,-1,-1,1,-1
1532063680449,0,0,-1,2,2,-2,1,-1
1532063680454,0,-2,0,-2,0,-1,-2,0
1532063680459,-1,-1,0,-1,-1,0,0,-1
1532063680464,-1,-2,0,1,-1,-2,0,-2
1532063680469,1,-1,0,-1,-2,-2,-1,-2
1532063680474,-1,-1,-1,1,-1,1,-1,-2
1532063680479,-2,-1,-1,0,-1,-2,-1,-1
1532063680484,-1,-4,-1,0,-1,-1,-2,-1
1532063680489,0,-1,-1,-1,-3,0,0,-2
1532063680494,-1,-1,-1,-3,-1,1,-2,-2
1532063680499,0,0,-1,-2,0,-1,1,-1
1532063680504,-1,-1,0,0,-1,0,-2,0
1532063680509,0,-1,0,-1,-2,-2,-1,0
1532063680514,-1,-1,-1,-3,-2,-2,-2,-1
1532063680519,-1,-3,-1,-1,-1,-1,0,-1
1532063680524,-2,-2,-3,0,-1,0,1,-1
1532063680529,-1,-1,-2,-1,-1,-2,0,-2
1532063680534,0,0,1,0,-1,-1,-1,0
1532063680539,0,-2,-2,-2,-2,-5,-3,-1
1532063680544,1,0,0,0,-2,-1,-1,-2
1532063680549,-2,-3,-1,-1,1,1,1,0
1532063680554,0,-1,-1,1,-2,-1,0,0
1532063680559,0,0,-1,1,-1,-1,-1,-1
1532063680564,-1,-2,-2,-1,1,0,-2,0
1532063680569,0,-1,0,0,0,0,-2,-1
1532063680574,-1,-1,-1,0,0,-1,0,-1
1532063680579,0,0,0,0,-1,0,0,-3
1532063680584,0,1,-1,-1,-3,-1,1,-1
1532063680589,0,0,0,-3,-1,-2,-1,0
1532063680594,-2,-1,-3,1,-1,1,0,-1
1532063680599,-2,-4,-2,0,0,-1,0,-1
1532063680604,-2,-1,-1,0,0,-2,0,0
1532063680609,-2,1,0,-2,-1,0,0,-1
1532063680614,0,-1,-1,-1,-1,0,0,-1
1532063680619,-2,0,-1,1,0,1,-1,-2
1532063680624,-1,-1,1,-1,-1,0,-1,-2
1532063680629,-1,-2,0,-1,0,-2,0,1
1532063680634,1,0,-1,1,-1,0,0,0
1532063680639,1,0,0,-2,-2,0,-1,-2
1532063680644,0,0,0,-1,0,-1,0,0
1532063680649,0,0,0,0,-1,0,-2,-3
1532063680654,0,-1,0,0,-1,-2,0,0
1532063680659,-1,-1,0,0,-1,-2,0,-1
1532063680664,-2,-2,0,-2,-1,0,0,0
1532063680669,0,-3,0,0,-1,-1,-1,-2
1532063680674,-1,0,-1,-3,0,0,1,-1
1532063680679,0,0,-2,-1,-2,0,0,-1
1532063680684,-1,0,-1,0,0,1,0,0
1532063680689,-2,0,0,0,0,-1,-2,-2
1532063680694,0,-4,0,-1,0,-3,-2,-2
1532063680699,0,0,-1,0,-1,0,-1,1
1532063680704,-1,-1,-1,-2,-1,-1,-1,-2
1532063680709,-2,-1,-1,-3,-1,-1,0,-2
1532063680714,-2,0,0,-1,0,-1,0,0
1532063680719,-2,0,0,-1,-1,0,-1,-2
1532063680724,-1,-1,-1,0,-1,-1,-2,-1
1532063680729,0,-1,-1,-1,-2,1,0,-3
1532063680734,-1,0,-2,0,0,0,-2,-2
1532063680739,-1,-2,0,-1,1,0,0,1
1532063680744,-2,0,0,-2,-1,-1,0,0
1532063680749,-2,-1,1,0,-1,1,-1,0
1532063680754,0,1,0,0,-1,0,-2,0
1532063680759,0,-1,-2,-2,-1,-1,1,-1
1532063680764,0,1,-2,0,1,-1,0,-1
1532063680769,1,1,-1,0,0,0,1,1
1532063680774,-1,-2,-3,0,-1,0,1,-3
1532063680779,-2,-1,-1,-1,-2,0,-1,-3
1532063680784,-1,-2,-1,-4,-1,-1,-1,0
1532063680789,0,0,-2,0,-1,-1,-1,-2
1532063680794,1,0,-1,-2,-1,-1,1,-1
1532063680799,-1,0,0,-1,-1,-1,-1,0
1532063680804,-1,0,-1,-1,0,1,0,0
1532063680809,-1,0,-1,0,-1,-1,0,-1
1532063680814,-2,-1,0,-2,-2,0,-2,-1
1532063680819,-1,-5,-1,0,0,0,-1,0
1532063680824,-1,0,-1,0,-1,0,-3,-1
1532063680829,1,0,-2,0,1,0,-2,-1
1532063680834,0,-1,0,-1,-2,0,0,-1
1532063680839,-1,-1,0,0,0,-2,-1,1
1532063680844,0,2,0,-1,-2,-2,-1,0
1532063680849,-2,1,-2,0,-3,-2,-1,-2
1532063680854,0,0,-2,0,0,-2,-1,-2
1532063680859,0,1,-2,-2,-1,1,-3,-1
1532063680864,-1,-1,-2,-1,0,-1,0,-2
1532063680869,-1,0,0,0,0,0,-2,0
1532063680874,-1,0,-1,-1,-3,-1,-2,-1
1532063680879,-2,1,0,-1,-1,-1,0,0
1532063680884,1,-1,-1,-1,-1,0,-1,0
1532063680889,0,-2,-1,-1,-2,0,1,0
1532063680894,-1,-1,0,-2,-1,-3,-1,-1
1532063680899,0,0,0,0,-2,-1,-1,-2
1532063680904,-1,-1,-2,1,0,0,-2,-1
1532063680909,0,-2,-1,-2,-2,0,-1,0
1532063680914,-1,-2,-2,-1,0,0,-3,-1
1532063680919,-1,0,-1,-1,-1,0,0,-1
1532063680924,1,-2,-1,0,-1,-1,0,1
1532063680929,0,0,-1,-3,0,-3,0,-2
1532063680934,-1,-3,-1,-1,-2,1,0,0
1532063680939,-1,0,-2,1,-1,-2,0,-2
1532063680944,-1,-2,-2,-2,-1,0,-1,-1
1532063680949,-1,-2,-2,0,1,1,0,-1
1532063680954,0,0,1,-1,0,-2,-1,1
1532063680959,0,-1,0,-1,-1,-1,-1,0
1532063680964,-1,0,0,-1,-1,-1,-1,-2
1532063680969,-1,0,-1,0,-1,-1,-2,1
1532063680974,-1,1,0,0,0,0,2,0
1532063680979,0,0,0,-2,-2,-1,1,1
1532063680984,-2,0,0,1,0,-2,0,0
1532063680989,-2,0,0,-1,-1,-2,0,-1
1532063680994,0,0,-1,0,-2,0,-1,-2
1532063680999,-1,-2,-2,-1,0,-1,0,-1
1532063681004,0,-1,-1,-2,-1,-1,-1,-1
1532063681009,0,-2,-2,-1,-1,0,0,0
1532063681014,-1,-1,0,0,0,-2,-1,0
1532063681019,-1,-1,0,-1,-1,0,-1,-1
1532063681024,-1,0,0,0,-2,0,-1,-1
1532063681029,-1,0,0,-2,-1,-1,1,-2
1532063681034,0,-1,-1,0,0,-1,-1,-1
1532063681039,-1,-3,0,0,-1,-1,-2,0
1532063681044,-1,-2,1,-3,-1,-1,-1,-1
1532063681049,-2,-1,-1,0,-2,1,-2,-2
1532063681054,-1,-2,0,-1,-1,-1,0,-1
1532063681059,0,-1,-3,-1,-1,-1,-1,-2
1532063681064,0,-2,-1,-1,0,-1,-2,0
1532063681069,-1,0,-1,-1,0,-1,-1,-1
1532063681074,0,-3,-1,-1,-1,0,-2,0
1532063681079,-1,0,-1,-1,0,-1,-1,-2
1532063681084,0,-1,-2,-2,-1,-1,-1,-1
1532063681089,0,-2,1,0,-2,-2,-2,-2
1532063681094,0,-1,-1,-1,-1,-1,-1,-2
1532063681099,0,-1,0,-2,0,-1,-2,0
1532063681104,-2,-1,-1,-1,-1,0,-1,-2
1532063681109,-1,0,0,-2,0,0,-1,1
1532063681114,0,1,-2,0,-1,-2,-1,1
1532063681119,-1,0,0,0,1,-1,-1,-1
1532063681124,1,-1,-2,-2,0,-1,-1,-1
1532063681129,0,-1,-1,-1,1,0,-1,0
1532063681134,0,-2,-1,0,0,-1,0,-1
1532063681139,-1,-1,0,-1,-1,0,0,-1
1532063681144,-1,0,0,0,0,0,-1,-1
1532063681149,-1,-1,-1,-1,-2,-2,-3,-1
1532063681154,-2,0,0,-1,0,0,-1,-1
1532063681159,-1,-1,-2,-1,-2,-1,-2,1
1532063681164,-1,-2,0,0,-2,-1,0,0
1532063681169,0,-1,-2,-1,-1,-1,0,0
1532063681174,-1,0,1,-1,-1,-2,-1,-1
1532063681179,-1,-1,-1,-1,-1,-1,0,-2
1532063681184,0,0,0,-1,-1,0,-1,1
1532063681189,-1,0,-2,0,1,-1,-1,-1
1532063681194,-2,-2,1,-2,-1,0,-1,-3
1532063681199,0,-4,-1,0,-2,-1,0,0
1532063681204,-1,-2,-3,-1,-1,-1,-1,0
1532063681209,-1,-2,-2,-1,-1,-1,1,-1
1532063681214,-3,0,-1,0,-2,-2,0,0
1532063681219,-2,1,0,0,0,0,-3,-1
1532063681224,0,-1,-2,0,-1,-1,-1,-1
1532063681229,-1,-1,-1,0,-2,0,-1,-1
1532063681234,-2,-1,-1,-2,0,0,0,-2
1532063681239,0,0,-1,-1,-3,-1,-1,0
1532063681244,0,-2,-1,-2,-1,-2,1,-1
1532063681249,-1,0,0,1,-2,-2,-1,-1
1532063681254,1,-1,-1,1,-1,-1,-1,0
1532063681259,1,-2,-2,-1,-1,-2,-1,0
1532063681264,-1,0,0,-2,0,0,-2,-1
1532063681269,-1,-2,0,0,-1,-2,-1,-2
1532063681274,0,-2,-1,-2,-1,-1,-1,-3
1532063681279,0,0,0,-1,0,-1,-2,-3
1532063681284,-2,1,-1,-1,-1,-2,-1,1
1532063681289,-3,-3,-2,-1,0,0,-2,-1
1532063681294,-1,1,0,0,0,-1,-2,1
1532063681299,0,-2,0,-1,-1,1,0,-1
1532063681304,-1,-1,-1,-1,-1,-2,-2,-2
1532063681309,1,-2,0,-1,-2,-1,1,0
1532063681314,-1,-1,-1,-1,-1,0,-1,-2
1532063681319,0,0,-1,0,0,-1,-1,-1
1532063681324,0,-1,0,0,0,-1,-1,-1
1532063681329,-2,-1,-1,0,-1,-1,0,-2
1532063681334,0,-2,0,0,0,0,-1,-2
1532063681339,-2,0,-2,-1,-1,-2,-2,-2
1532063681344,-1,0,-1,1,-1,0,1,-1
1532063681349,0,0,1,-1,-1,-2,-1,-2
1532063681354,-2,1,-2,0,0,-1,-1,1
1532063681359,-2,-1,1,-2,-2,1,-1,-1
1532063681364,-1,-1,-1,-1,0,0,0,0
1532063681369,-1,-1,-2,-1,0,-1,-1,0
1532063681374,1,-2,0,-2,-2,0,1,0
1532063681379,0,-1,-2,0,-1,-1,-2,-1
1532063681384,-1,-1,0,-1,-1,-1,0,0
1532063681389,0,-3,-1,-1,1,0,0,0
1532063681394,-1,-1,0,0,1,-2,-1,1
1532063681399,-1,-1,0,0,0,-1,-1,0
1532063681404,0,-1,-1,-1,0,1,-1,-1
1532063681409,0,0,-2,-3,-2,0,-3,0
1532063681414,0,-2,-2,1,-1,-2,-1,-1
1532063681419,0,0,0,-2,0,0,2,-1
1532063681424,-2,-1,-1,1,-1,-2,0,0
1532063681429,-1,0,-2,-1,-1,0,-1,0
1532063681434,0,-2,1,-2,-1,-1,-1,-1
1532063681439,-2,0,-1,0,0,-1,0,-1
1532063681444,-1,-1,-1,0,-1,-1,-2,-1
1532063681449,0,-1,-1,0,-1,0,-1,1
1532063681454,-1,1,1,-2,-1,0,-1,-1
1532063681459,0,0,-2,-1,-1,-1,2,-1
1532063681464,-1,0,0,-3,-2,-1,-1,-1
1532063681469,0,1,0,0,0,0,0,-1
1532063681474,0,-1,-2,-1,-1,0,-2,0
1532063681479,-1,1,-1,0,-1,-2,0,-1
1532063681484,0,0,0,-1,-2,-1,-2,0
1532063681489,-2,-1,0,-2,0,0,-1,-1
1532063681494,-1,-1,0,1,0,-2,1,-2
1532063681499,1,-1,-1,0,-1,0,-1,-2
1532063681504,0,-1,0,0,-1,0,-1,1
1532063681509,-1,-1,0,1,-2,0,-1,0
1532063681514,0,-1,-2,-1,0,0,-1,0
1532063681519,0,-5,0,-1,-1,0,-2,-3
1532063681524,-1,-1,-1,-1,-2,-1,-1,-1
1532063681529,-1,-1,-1,-1,-1,-1,-1,1
1532063681534,-1,0,-1,0,-2,-1,-2,-1
1532063681539,-1,-1,-1,0,-2,-1,-1,2
1532063681544,-2,0,-3,-2,0,1,-2,-2
1532063681549,-2,-2,1,-1,0,-2,0,-1
1532063681554,-2,-1,-1,-2,-1,0,-1,0
1532063681559,0,0,-1,0,-1,-1,-2,0
1532063681564,1,-2,-1,0,1,-2,0,0
1532063681569,0,-1,-2,-2,-2,0,-1,-1
1532063681574,0,0,0,-1,-1,-1,2,-1
1532063681579,-1,-1,0,-3,-1,0,-1,0
1532063681584,1,1,0,0,0,-1,1,-2
1532063681589,0,-2,-1,0,0,1,0,-2
1532063681594,-2,-2,0,-2,-1,-1,-1,-1
1532063681599,0,-2,-2,-1,0,0,-1,0
1532063681604,-1,-1,0,-1,-2,-3,0,-1
1532063681609,-1,-2,-1,0,0,-3,-1,-1
1532063681614,-1,1,0,0,-2,-1,0,0
1532063681619,-2,-1,-1,1,0,2,-2,-2
1532063681624,-2,-2,-2,-1,1,-1,-2,-2
1532063681629,0,-1,-1,-1,-3,-1,-1,-1
1532063681634,1,-2,-2,-1,-1,-2,-2,-1
1532063681639,-1,0,0,-1,-1,-2,0,0
1532063681644,0,-1,-1,0,-1,0,0,-1
1532063681649,-1,-2,-2,-4,-1,-1,-2,-1
1532063681654,0,-2,1,-2,0,-1,0,-3
1532063681659,-1,-1,0,0,-1,-1,-1,-1
1532063681664,-1,-1,1,1,0,0,-2,0
1532063681669,-1,0,0,0,-1,-1,0,0
1532063681674,-1,0,0,1,-1,0,-3,-1
1532063681679,-1,-3,-3,-7,2,-3,-2,-3
1532063681684,-1,1,0,-2,-7,-2,-1,0
1532063681689,0,-1,-1,0,1,-1,1,1
1532063681694,-1,-1,-1,-1,-2,-2,1,0
1532063681699,-1,0,-2,-4,2,-2,1,-1
1532063681704,-1,-1,0,-3,-1,-1,-1,0
1532063681709,-1,-1,-2,0,2,-2,-1,-1
1532063681714,-1,-2,-1,0,-3,-2,-1,0
1532063681719,-2,0,1,4,-2,0,-1,0
1532063681724,-1,-1,0,1,2,0,-1,-2
1532063681729,-1,0,1,-6,-3,0,-1,-1
1532063681734,-1,0,-1,-1,-2,-2,-2,-1
1532063681739,0,-1,-3,-1,0,-2,-1,-1
1532063681744,-1,-2,-1,-6,0,1,0,0
1532063681749,-2,1,0,1,0,-1,0,1
1532063681754,0,-3,-4,-3,1,0,-1,0
1532063681759,-2,-1,1,10,-4,-1,-2,0
1532063681764,-1,-1,0,7,-4,-1,-4,0
1532063681769,0,-1,-1,-7,-3,-1,-1,-2
1532063681774,-2,-1,-2,-5,-2,-1,-1,-3
1532063681779,0,0,-1,-11,2,0,2,-1
1532063681784,0,-1,-1,-2,2,-1,2,-2
1532063681789,-1,-3,1,1,-11,-3,-4,-2
1532063681794,-2,0,-1,14,1,1,-5,1
1532063681799,0,0,1,9,1,-2,-3,1
1532063681804,0,-2,-1,-11,1,0,1,0
1532063681809,-1,2,2,5,5,-1,3,0
1532063681814,1,0,-2,-18,-5,0,1,-3
1532063681819,1,-2,1,-13,-5,-1,-1,-1
1532063681824,1,1,0,-2,2,1,1,-2
1532063681829,0,0,0,-3,2,0,0,-3
1532063681834,0,2,5,32,2,0,1,0
1532063681839,-1,-1,-1,23,-1,-1,-3,-1
1532063681844,2,0,-1,-6,5,1,0,-1
1532063681849,-4,-6,-9,-12,-20,-4,-6,1
1532063681854,-1,-1,-2,-21,1,1,-1,0
1532063681859,1,1,3,2,2,1,3,-1
1532063681864,-2,-1,-3,-5,-1,-1,0,-1
1532063681869,1,0,3,12,5,0,0,0
1532063681874,1,-1,0,-21,2,0,1,-2
1532063681879,-1,-1,0,18,0,-1,-1,-2
1532063681884,-2,-1,-2,11,4,1,0,2
1532063681889,-2,-1,0,25,-6,0,-3,-2
1532063681894,0,0,-2,-11,-2,-2,-1,-1
1532063681899,1,1,-3,-21,5,2,4,-1
1532063681904,0,1,0,-33,-2,-2,0,-3
1532063681909,-1,-2,-3,1,-2,-2,0,-2
1532063681914,-1,-3,0,30,-1,0,-4,1
1532063681919,-3,-2,-3,2,-6,-5,-5,-2
1532063681924,2,0,-1,-12,-4,-1,-2,0
1532063681929,-1,0,-2,-14,1,1,1,-1
1532063681934,-2,-2,0,17,5,-3,0,-2
1532063681939,-1,-2,-4,-18,-3,-1,0,-1
1532063681944,0,-1,1,14,-6,-1,-3,0
1532063681949,0,0,-1,-14,6,1,3,0
1532063681954,-1,-1,-3,-8,-1,-1,-1,-1
1532063681959,-1,0,1,25,3,-2,-3,0
1532063681964,0,0,-1,-4,-4,0,-1,0
1532063681969,2,-1,-3,-8,1,1,0,-3
1532063681974,0,1,1,-5,3,2,2,-1
1532063681979,1,-1,-1,-17,-2,-1,0,-1
1532063681984,-3,-1,-1,13,-4,-3,-4,-2
1532063681989,1,1,2,8,4,-2,-1,0
1532063681994,0,0,1,1,0,-1,-1,-1
1532063681999,0,-1,-1,-2,0,0,0,1
1532063682004,-2,-2,0,-3,-1,-2,0,-1
1532063682009,-1,-1,-1,0,0,-1,-3,-2
1532063682014,-2,-2,-2,0,-1,-1,-1,-2
1532063682019,0,-2,0,-9,-3,1,0,0
1532063682024,0,0,-1,6,2,-2,-1,-1
1532063682029,-3,-3,-2,11,3,0,1,1
1532063682034,-1,-2,-2,-10,0,0,-1,1
1532063682039,0,-1,0,-1,0,0,-2,-2
1532063682044,-2,-1,-2,2,-2,-1,-1,-3
1532063682049,0,2,1,-13,-4,0,2,2
1532063682054,0,0,-2,-3,-2,-1,0,-1
1532063682059,-2,-3,-2,5,-1,-2,-1,-2
1532063682064,-1,-1,0,5,1,1,-2,-1
1532063682069,-2,0,0,-6,-3,-2,-1,-1
1532063682074,-2,-1,-2,-3,-1,-2,-1,-1
1532063682079,0,-1,-1,-4,0,2,-1,1
1532063682084,-1,-1,-1,2,1,-2,-2,-1
1532063682089,-1,0,0,7,2,0,-1,-1
1532063682094,0,-1,-2,-3,-1,1,-1,-1
1532063682099,-1,0,-3,-3,-4,-1,0,-1
1532063682104,-1,-1,-1,1,-3,-3,-1,-1
1532063682109,0,-2,-3,-11,-2,-2,0,-2
1532063682114,-1,-1,-1,8,-2,-1,-1,-1
1532063682119,0,1,-1,-3,-3,-2,-1,1
1532063682124,-1,-2,-1,5,2,3,1,0
1532063682129,0,0,-1,1,-1,0,-1,2
1532063682134,-4,-7,-4,-7,-3,-6,-8,-9
1532063682139,0,-2,-1,-2,5,3,3,-3
1532063682144,-1,-1,-2,-5,-3,0,-1,0
1532063682149,0,0,0,0,-1,0,-1,1
1532063682154,1,1,-2,4,0,1,1,1
1532063682159,-2,-1,1,-8,-4,-3,-2,0
1532063682164,-1,1,0,-8,-1,0,1,0
1532063682169,-2,-2,0,6,-2,-1,-2,-1
1532063682174,0,0,2,5,-1,-2,1,1
1532063682179,-3,-1,-3,8,1,-1,-3,-2
1532063682184,2,0,1,-3,0,0,1,0
1532063682189,-1,-1,-2,-11,-3,-2,-1,-1
1532063682194,0,-3,-2,-12,-2,-1,0,-1
1532063682199,-1,0,0,-1,0,0,0,-2
1532063682204,-1,-2,0,3,-2,-2,-3,-2
1532063682209,1,-1,0,0,0,-1,-3,-1
1532063682214,-1,1,1,1,0,1,0,-1
1532063682219,0,-1,-1,-2,-3,-1,-2,-1
1532063682224,-1,-1,-2,-1,-1,-2,-2,0
1532063682229,0,-1,0,9,17,-1,-1,-1
1532063682234,0,0,-1,-6,-8,3,2,-1
1532063682239,0,0,0,-1,2,-2,-1,-1
1532063682244,-2,-2,-1,-2,-2,-2,-2,-2
1532063682249,-2,0,0,0,-1,0,0,0
1532063682254,-2,0,0,12,0,-1,0,0
1532063682259,-1,0,-3,-4,-4,-1,-2,0
1532063682264,1,0,-3,6,-7,-2,-1,1
1532063682269,0,1,-1,-10,2,-3,0,-3
1532063682274,-2,-1,-2,-7,-7,1,-2,-3
1532063682279,-2,-1,-2,-5,-17,-1,-2,1
1532063682284,0,-1,1,-1,-2,-1,-1,0
1532063682289,-2,-2,0,-1,-5,-3,-3,-2
1532063682294,-2,-3,-3,-4,8,-1,0,0
1532063682299,-1,2,2,3,3,0,0,-3
1532063682304,-2,-2,-1,6,2,-1,-3,-2
1532063682309,0,-1,-1,8,2,-1,-1,-1
1532063682314,0,-1,0,-2,2,1,-1,-1
1532063682319,0,-3,-2,-6,1,-2,3,-1
1532063682324,0,-2,-2,-2,-1,1,-1,-3
1532063682329,-3,0,-1,0,-3,-2,-2,0
1532063682334,0,-1,0,-7,-6,-3,-3,-1
1532063682339,-1,1,0,-4,5,1,-2,-1
1532063682344,-1,1,1,4,14,-4,0,-1
1532063682349,-1,-4,-2,-5,-17,0,0,-1
1532063682354,0,0,-1,0,1,1,-1,-2
1532063682359,0,-2,0,0,-4,-3,0,0
1532063682364,-1,-2,0,-2,0,1,-2,-1
1532063682369,0,0,1,-8,7,1,0,-1
1532063682374,-1,0,0,1,-1,0,1,-2
1532063682379,-1,-2,0,14,0,-2,-2,-2
1532063682384,-1,-1,-1,0,-1,-1,1,-2
1532063682389,-1,-1,-1,2,2,-2,-1,-1
1532063682394,-1,-1,-1,-2,-2,0,-2,0
1532063682399,-1,0,-1,-10,1,0,-2,-2
1532063682404,-2,-1,-1,-1,0,0,-1,1
1532063682409,0,-2,1,11,2,0,-1,-3
1532063682414,-1,1,-1,6,-1,-2,-3,1
1532063682419,-1,0,-1,-5,1,2,0,-1
1532063682424,0,5,0,-1,-7,1,-1,0
1532063682429,3,1,-1,-18,7,1,3,2
1532063682434,-4,-17,-1,18,-5,-3,-2,-3
1532063682439,-4,-1,0,26,-2,-3,-6,-2
1532063682444,0,-2,0,-10,-2,0,-1,0
1532063682449,-2,4,-1,-3,-2,-1,-2,0
1532063682454,3,3,-1,-22,0,-2,1,-1
1532063682459,-1,-3,-1,-15,-1,-1,0,-2
1532063682464,-1,0,0,15,0,-3,0,0
1532063682469,-1,-3,-1,2,4,0,0,-2
1532063682474,0,1,0,6,4,-1,-1,1
1532063682479,1,-1,-2,-32,-14,-1,1,0
1532063682484,-1,-4,-1,17,5,-1,-2,-1
1532063682489,-2,-1,0,10,-4,-1,-4,0
1532063682494,0,2,0,1,1,-1,-2,1
1532063682499,1,2,0,0,3,1,1,0
1532063682504,1,-2,-2,-22,-4,0,1,0
1532063682509,0,-1,-1,-10,-2,-2,2,-2
1532063682514,1,4,-1,-25,-3,-1,3,-3
1532063682519,-1,-4,1,41,0,1,-2,0
1532063682524,-2,-5,-1,11,4,0,-3,0
1532063682529,-2,-1,-1,29,0,-2,-7,-1
1532063682534,1,4,-2,-9,4,1,3,2
1532063682539,2,0,-6,-85,-5,1,5,-3
1532063682544,-4,-1,-1,52,-7,-2,-2,-2
1532063682549,-1,1,-1,9,2,1,-3,1
1532063682554,-2,0,-1,-3,-4,-3,0,0
1532063682559,1,16,0,8,3,-3,1,2
1532063682564,-1,-22,-1,-27,-1,0,1,-2
1532063682569,0,7,-3,-13,-1,-1,0,-3
1532063682574,-2,0,1,11,-2,-1,-3,-3
1532063682579,-1,-3,-1,12,3,1,0,1
1532063682584,0,9,0,-14,-1,-1,-1,0
1532063682589,0,-5,1,5,-1,-1,1,0
1532063682594,-2,-4,0,-3,0,1,-2,-1
1532063682599,-2,0,-1,6,0,-4,-2,-1
1532063682604,0,1,-2,-15,1,-1,0,1
1532063682609,-2,-5,1,-7,1,-1,0,-1
1532063682614,0,2,1,51,3,-3,0,1
1532063682619,-4,-9,2,12,3,-1,-4,0
1532063682624,-1,2,-1,-10,-5,-2,-2,-1
1532063682629,1,0,-1,-24,1,2,3,1
1532063682634,0,2,-1,-29,-3,1,2,-2
1532063682639,-4,-5,1,57,-7,-4,-5,0
1532063682644,0,-2,-2,5,3,1,-1,1
1532063682649,-1,2,-2,-11,-4,-3,-1,-3
1532063682654,0,-1,-2,-9,-2,0,-1,-2
1532063682659,0,-1,-2,-9,-1,-1,0,-1
1532063682664,0,4,0,-6,-2,0,-1,-1
1532063682669,0,-3,-2,0,-3,-4,0,1
1532063682674,-1,0,-2,0,-3,-2,-3,1
1532063682679,-1,-18,-2,-6,2,-1,-1,-1
1532063682684,0,8,0,-6,-3,-2,-3,-2
1532063682689,0,-1,0,-3,1,0,-1,0
1532063682694,-2,2,2,7,-1,-1,-2,-1
1532063682699,1,3,-1,3,0,-1,-1,-1
1532063682704,-3,-6,0,24,-1,-2,-3,1
1532063682709,1,0,-3,-10,-2,0,-1,-1
1532063682714,-1,-4,-2,-5,1,-3,0,-1
1532063682719,1,2,0,-13,-2,-1,-2,-2
1532063682724,0,0,-1,-14,-1,-1,3,-2
1532063682729,-1,1,1,10,1,-1,-1,0
1532063682734,-3,-1,-3,0,-2,-2,-2,-1
1532063682739,0,0,0,4,2,0,1,0
1532063682744,0,1,0,-4,0,0,0,-1
1532063682749,0,-2,1,5,-1,-1,-3,-1
1532063682754,0,-2,-2,-8,-1,-1,-1,-1
1532063682759,-1,2,-1,-7,0,-1,-1,-1
1532063682764,0,-1,-1,-3,-1,-1,-2,-1
1532063682769,0,-3,-1,2,-3,-1,0,-1
1532063682774,1,-1,-1,-8,-3,1,-1,0
1532063682779,0,2,0,11,2,-1,-1,-1
1532063682784,0,0,0,-6,-2,-1,1,0
1532063682789,-1,-2,-1,-1,0,-1,-2,-3
1532063682794,-1,0,-2,1,1,2,-1,0
1532063682799,-1,0,-2,-5,-2,-1,-1,-1
1532063682804,-1,0,-2,-4,-1,-2,1,-1
1532063682809,-1,0,-1,2,0,-1,-1,2
1532063682814,-1,-1,-2,3,0,-2,-3,-1
1532063682819,-2,-2,-1,-6,-2,-1,-1,-1
1532063682824,-1,0,-1,-1,2,0,0,-1
1532063682829,-1,0,-1,-2,-3,-2,-2,-1
1532063682834,-1,-1,2,8,0,1,-1,0
1532063682839,0,1,-1,-6,-3,0,0,-1
1532063682844,-2,0,-3,-4,-1,0,0,-1
1532063682849,-1,-1,-1,4,-1,2,1,-1
1532063682854,-1,0,1,-2,-2,-1,-1,-1
1532063682859,-1,0,-2,-8,0,-1,-1,-1
1532063682864,-2,0,-1,4,-3,-1,-2,-1
1532063682869,0,0,-1,0,2,-1,-1,-3
1532063682874,-1,-5,-1,-2,0,-1,-1,-1
1532063682879,-2,-1,0,-3,-3,-1,1,-1
1532063682884,1,-1,-2,-10,-4,-2,-1,0
1532063682889,-1,-1,-1,0,3,-1,-1,0
1532063682894,0,-3,-2,5,2,1,0,-2
1532063682899,-1,-2,1,-2,0,-1,0,0
1532063682904,0,0,-1,2,0,-1,-3,-1
1532063682909,-1,-2,1,1,-3,-1,0,1
1532063682914,0,0,0,-4,-1,-1,-1,-1
1532063682919,0,-1,-3,1,0,-1,-1,0
1532063682924,0,-3,-2,-1,0,-1,0,0
1532063682929,-1,0,-1,4,3,-1,-1,0
1532063682934,-2,-2,-3,-11,-17,1,0,1
1532063682939,0,0,1,0,-3,-2,-1,-1
1532063682944,0,0,0,-1,-4,0,-2,-2
1532063682949,-1,-1,-1,-4,-7,-2,-4,-2
1532063682954,-2,-1,-1,0,2,-2,-1,-1
1532063682959,-2,0,-1,0,3,1,1,-2
1532063682964,0,-1,0,-2,-4,-1,0,0
1532063682969,0,2,1,0,-3,-2,-6,-1
1532063682974,0,1,-1,5,16,4,2,0
1532063682979,0,-2,-2,-4,-1,2,-1,1
1532063682984,-3,0,0,-1,-6,-2,0,-4
1532063682989,0,-1,-1,7,39,-1,0,2
1532063682994,-1,-1,-4,-10,-43,0,-4,-1
1532063682999,-3,-1,0,4,1,-6,-4,-1
1532063683004,-2,-1,0,2,-8,-2,-2,0
1532063683009,-1,-2,0,-11,-12,1,1,-1
1532063683014,0,0,-2,0,43,-2,0,-3
1532063683019,-3,-3,-6,-19,-31,-1,2,0
1532063683024,0,0,2,4,10,1,-1,1
1532063683029,-4,-3,1,29,-14,-3,0,-3
1532063683034,-1,1,-1,2,0,-4,-6,1
1532063683039,2,-1,3,21,64,1,0,-4
1532063683044,-1,-1,-5,-24,-21,-4,-3,0
1532063683049,0,-1,-5,-24,13,4,-2,1
1532063683054,1,1,-2,-11,-53,1,2,1
1532063683059,0,1,2,-57,0,-1,2,2
1532063683064,0,0,4,64,15,0,1,-2
1532063683069,-2,-3,-3,-18,3,0,-4,-4
1532063683074,-4,-4,2,34,-3,-9,-20,-1
1532063683079,2,3,4,15,8,2,11,3
1532063683084,-2,-7,-11,-83,-13,-3,6,-1
1532063683089,3,2,5,31,8,5,8,1
1532063683094,-2,-3,-8,-57,-1,-11,-3,-2
1532063683099,-5,-3,-1,38,-14,2,-14,0
1532063683104,4,2,4,5,67,0,7,1
1532063683109,-4,-5,-8,-14,-84,1,-3,3
1532063683114,1,0,2,-15,-19,-4,5,0
1532063683119,0,0,-3,23,6,-2,-4,-2
1532063683124,0,-2,-2,-30,-13,-5,-1,-2
1532063683129,-1,3,5,36,27,-1,3,-5
1532063683134,-7,-9,-13,16,-2,-3,-6,0
1532063683139,1,0,-1,-18,-17,0,9,1
1532063683144,0,2,-4,0,8,1,-20,-4
1532063683149,-3,-3,-7,-5,-3,-3,-5,-1
1532063683154,3,3,5,11,8,6,14,-2
1532063683159,-6,-4,-8,-18,1,-5,-4,-7
1532063683164,-2,-2,3,12,-13,0,0,0
1532063683169,3,2,-2,0,16,-1,1,3
1532063683174,-1,0,2,-9,8,0,2,-3
1532063683179,0,0,3,-10,-11,-3,-9,2
1532063683184,-1,3,14,67,23,9,15,3
1532063683189,-2,0,-4,-7,-18,-3,-6,-5
1532063683194,-3,-3,2,52,7,0,-2,-1
1532063683199,0,0,-2,27,-6,-1,0,-1
1532063683204,0,0,-5,-14,-18,-2,-7,1
1532063683209,-14,-5,2,21,19,-1,-7,-17
1532063683214,10,4,-1,-23,11,5,18,15
1532063683219,2,2,4,-21,-8,-2,-8,-7
1532063683224,2,-2,0,5,-9,-3,3,1
1532063683229,-3,-3,-1,-32,-6,-1,0,-3
1532063683234,-3,-2,0,26,15,0,-5,-8
1532063683239,-1,-3,-4,0,-4,-2,-4,2
1532063683244,-2,0,-3,10,-6,2,-9,-4
1532063683249,5,2,7,39,10,4,9,6
1532063683254,-2,-4,-3,-75,-24,-2,-4,-5
1532063683259,3,2,7,50,6,-3,12,5
1532063683264,-3,0,1,-10,7,1,-2,-3
1532063683269,1,-2,-5,-31,-11,-8,-10,1
1532063683274,-5,1,7,40,8,0,4,-1
1532063683279,-2,0,-4,-15,-7,5,7,-2
1532063683284,0,0,2,-6,-10,-4,-7,-1
1532063683289,2,2,2,34,8,10,15,8
1532063683294,-8,-8,-8,-22,31,-9,-13,-15
1532063683299,3,0,-3,0,-10,-6,-4,1
1532063683304,1,0,-2,35,2,-2,0,3
1532063683309,1,2,3,-15,-18,-4,-8,2
1532063683314,-7,-2,-6,31,22,4,-6,-7
1532063683319,1,-5,-6,-47,-21,0,0,1
1532063683324,2,0,1,18,-1,-1,0,4
1532063683329,-4,-2,-4,4,3,-6,9,-3
1532063683334,5,5,7,23,9,8,6,0
1532063683339,-2,1,-1,14,8,0,-1,-2
1532063683344,-7,-7,-8,-22,-5,-2,0,-5
1532063683349,3,2,3,-14,-8,-1,6,3
1532063683354,-1,-3,0,5,-8,-4,-6,-2
1532063683359,0,0,1,8,-2,-3,-4,-2
1532063683364,-4,-2,-2,0,-3,2,4,-3
1532063683369,1,-2,-3,-6,9,-2,-5,-3
1532063683374,6,2,1,-9,-7,1,0,5
1532063683379,-2,-3,-1,7,3,0,-2,-4
1532063683384,0,-1,0,-34,-6,-2,2,1
1532063683389,-4,-4,0,15,7,-4,-8,-5
1532063683394,1,1,-5,-22,-18,0,3,3
1532063683399,-2,-2,1,34,6,1,2,0
1532063683404,-1,-2,-6,-24,-11,-7,-1,0
1532063683409,1,0,-3,-9,-1,1,-1,-1
1532063683414,0,-1,3,5,6,2,2,1
1532063683419,1,3,2,26,3,1,3,-1
1532063683424,-1,-3,-6,-54,-24,-4,-5,-4
1532063683429,-3,-5,-1,26,16,-2,-6,-2
1532063683434,-1,0,-3,13,-13,-4,-3,3
1532063683439,-1,0,0,-23,4,-1,-2,-1
1532063683444,0,1,3,8,6,-2,1,-1
1532063683449,3,1,-2,-22,-17,4,4,3
1532063683454,0,-2,-3,-18,-6,-2,-2,-1
1532063683459,-1,-2,0,-5,-4,-2,-3,0
1532063683464,-4,1,-2,18,-6,-1,-1,-3
1532063683469,3,1,-2,-11,6,-2,1,8
1532063683474,1,1,4,5,5,0,0,-1
1532063683479,-3,-2,-7,-3,-7,-2,-3,-8
1532063683484,-4,-5,-10,-5,2,-1,-8,-3
1532063683489,-2,-1,4,14,3,0,2,-3
1532063683494,-1,1,4,-3,-6,-3,1,2
1532063683499,5,2,2,-3,4,3,6,11
1532063683504,0,-3,-8,34,11,1,-1,-1
1532063683509,-4,-3,-4,-6,5,1,-8,-10
1532063683514,1,1,4,1,-10,-1,1,-3
1532063683519,-2,-4,-21,14,7,10,0,1
1532063683524,2,1,2,-31,1,-7,2,3
1532063683529,-1,2,6,-3,-19,-3,1,1
1532063683534,-1,-2,-7,18,14,-2,0,-1
1532063683539,-1,0,4,-1,0,-4,-3,-3
1532063683544,2,3,3,10,5,5,5,0
1532063683549,0,-3,-11,-13,1,-1,-3,-1
1532063683554,-2,2,-3,23,4,-6,-6,0
1532063683559,-4,-4,4,-19,8,5,-4,-3
1532063683564,-2,-2,11,5,-18,-2,0,2
1532063683569,0,1,3,-2,-3,-3,-2,-3
1532063683574,0,3,10,20,2,4,1,0
1532063683579,-2,-6,-23,-24,6,-3,0,0
1532063683584,-1,-1,0,-5,-2,0,2,-2
1532063683589,0,0,10,33,0,0,2,2
1532063683594,2,0,-6,-43,-6,0,1,-5
1532063683599,-5,0,63,24,-2,-3,-8,-1
1532063683604,0,3,-2,26,8,0,-3,-1
1532063683609,-1,1,-4,-48,-9,-3,0,2
1532063683614,-2,-4,11,22,-5,-1,-2,0
1532063683619,0,-1,-11,8,-5,-4,0,-2
1532063683624,-2,-3,-5,-24,4,3,2,-1
1532063683629,-1,-2,6,16,3,2,-5,-3
1532063683634,-2,-1,-14,-18,-3,0,3,0
1532063683639,3,1,2,-23,-6,-4,2,6
1532063683644,-2,-5,-22,12,1,2,-1,0
1532063683649,0,-1,-9,-3,2,-1,3,-1
1532063683654,-2,0,-2,-17,-2,0,-4,1
1532063683659,-1,0,0,-7,-6,-2,1,-4
1532063683664,-3,-2,-6,-37,-3,0,-1,-1
1532063683669,1,-1,0,0,4,1,1,-1
1532063683674,-2,-1,-18,-4,-2,4,1,-2
1532063683679,-3,-4,13,-29,-15,-7,-9,-1
1532063683684,1,0,-1,4,8,-2,-5,-1
1532063683689,-4,-3,-6,-12,-7,-3,-1,-4
1532063683694,1,1,4,1,-1,2,0,0
1532063683699,0,0,-13,11,-8,-4,1,-4
1532063683704,-2,-3,0,-21,-13,-2,-4,-2
1532063683709,-1,-3,1,-1,10,-4,-4,-1
1532063683714,0,2,8,13,11,1,1,1
1532063683719,0,0,4,-13,-2,1,-1,2
1532063683724,-2,-1,7,33,-1,0,0,-4
1532063683729,-3,-8,-16,-60,-18,-4,-2,-2
1532063683734,1,-3,-5,-4,-3,-3,-3,-1
1532063683739,1,0,-3,2,2,-2,2,-1
1532063683744,1,3,8,31,6,1,1,0
1532063683749,-1,-3,3,-16,0,1,-6,-1
1532063683754,-1,-2,1,1,-9,-6,-1,0
1532063683759,-1,1,-4,1,21,4,-1,-3
1532063683764,-1,1,-1,21,-17,1,1,-1
1532063683769,-4,-2,-6,-23,-6,-6,-1,-1
1532063683774,1,-1,-2,-7,-4,3,0,3
1532063683779,5,4,1,10,15,-8,4,5
1532063683784,-7,-6,-6,-7,-14,5,-2,-10
1532063683789,-7,-4,3,21,-11,-5,-10,-14
1532063683794,-1,-3,2,-11,17,-4,-11,-6
1532063683799,-4,-3,-8,0,-12,0,0,3
1532063683804,6,3,6,1,11,-1,5,7
1532063683809,1,4,2,8,7,3,5,4
1532063683814,-2,-2,0,27,0,1,0,0
1532063683819,0,0,-2,-35,23,4,2,-5
1532063683824,-2,-1,-7,-30,-33,-3,-1,4
1532063683829,0,0,8,39,3,-1,-2,-1
1532063683834,-1,0,0,23,-19,-1,0,1
1532063683839,-2,-3,-5,-6,-16,-3,-2,0
1532063683844,2,2,3,1,15,-5,1,-6
1532063683849,-1,-1,-1,3,-6,8,2,1
1532063683854,0,0,2,1,13,-4,1,-3
1532063683859,-4,-6,-30,-14,-5,1,-3,-3
1532063683864,0,-2,-2,0,4,-5,-3,0
1532063683869,3,2,4,18,3,0,-1,2
1532063683874,-1,1,1,-14,4,2,3,0
1532063683879,-2,0,2,13,-12,1,-1,-3
1532063683884,-2,-4,-3,-28,7,-1,-6,-1
1532063683889,1,2,-3,10,10,4,2,0
1532063683894,-2,-4,-7,-25,-8,1,1,-2
1532063683899,0,1,9,14,-4,-6,-2,-2
1532063683904,-1,0,2,-4,9,2,-3,-5
1532063683909,1,0,3,1,0,-1,-1,-2
1532063683914,-2,-2,1,-8,6,-2,-1,-1
1532063683919,-1,-2,1,15,-25,-3,-7,0
1532063683924,0,-3,-4,-30,9,-1,9,2
1532063683929,0,-1,-1,-10,-11,-3,1,2
1532063683934,0,0,0,-5,3,2,-4,-2
1532063683939,-2,1,4,35,14,0,3,1
1532063683944,0,2,-2,-17,0,0,-4,-1
1532063683949,-3,-2,-4,-27,2,-4,-3,-3
1532063683954,7,1,-1,-19,-7,1,3,5
1532063683959,-4,-4,-1,-14,1,-2,-7,-8
1532063683964,-1,-2,3,40,-15,-3,-4,2
1532063683969,1,1,0,16,20,3,6,2
1532063683974,-1,0,-1,-1,-6,-2,-3,-1
1532063683979,0,-1,-2,-10,3,1,2,-1
1532063683984,3,1,1,3,6,4,7,-3
1532063683989,-4,-3,0,5,-14,-6,-4,-4
1532063683994,-2,-3,-3,-6,-1,-1,-5,-1
1532063683999,1,1,1,4,-2,1,5,-1
1532063684004,-7,-4,-1,21,1,-4,-11,-10
1532063684009,2,2,0,3,5,2,5,3
1532063684014,-1,1,-2,-9,-20,-2,0,-5
1532063684019,-5,-3,-6,-31,0,-2,-6,-1
1532063684024,1,-1,4,17,12,3,0,5
1532063684029,1,1,3,0,5,3,-2,3
1532063684034,-1,-1,1,39,4,-1,0,0
1532063684039,-3,-3,-7,-44,-16,-3,-3,-5
1532063684044,0,-1,-1,-5,-6,1,1,1
1532063684049,1,0,2,3,3,0,0,3
1532063684054,-1,-1,-1,-11,12,0,3,-3
1532063684059,0,-1,1,8,-12,-1,-4,-2
1532063684064,0,0,1,13,3,-1,1,-2
1532063684069,1,-2,-1,-28,-5,0,-1,-2
1532063684074,-1,-1,2,24,8,-2,-3,-2
1532063684079,3,-2,1,4,-6,3,1,0
1532063684084,0,0,-1,1,0,-1,-1,-1
1532063684089,0,-2,0,9,-2,-2,-5,-3
1532063684094,-2,-2,1,14,0,2,1,2
1532063684099,0,0,2,6,11,2,2,2
1532063684104,1,-1,0,-15,-3,-1,0,4
1532063684109,0,-1,0,5,-2,-1,-2,0
1532063684114,-3,-4,-3,-22,-7,-4,-4,-3
1532063684119,1,2,4,21,11,3,4,8
1532063684124,1,2,0,-4,1,2,3,9
1532063684129,-3,-4,-7,-15,-11,-4,-5,-14
1532063684134,-6,-3,-2,5,1,-4,-9,-10
1532063684139,0,0,2,10,6,-2,0,-2
1532063684144,3,-1,-2,-10,-5,-1,-1,2
1532063684149,1,1,5,50,12,-2,4,8
1532063684154,-3,-4,-13,-45,-10,4,-2,-1
1532063684159,-3,-2,4,29,-2,-2,-4,-2
1532063684164,0,2,5,-4,4,-1,-1,1
1532063684169,-2,-2,-1,9,-8,-3,-1,-1
1532063684174,0,0,-7,-3,1,0,3,5
1532063684179,0,2,-1,2,1,1,2,0
1532063684184,-4,-5,-6,4,14,1,-2,-8
1532063684189,-3,-1,-2,-49,-18,-3,-2,-5
1532063684194,0,-3,-1,3,-10,-3,-1,0
1532063684199,1,0,-1,8,-2,-3,3,4
1532063684204,-3,-2,-3,-33,-7,-2,-2,-4
1532063684209,-2,-1,-3,7,10,3,-3,-4
1532063684214,-1,1,4,-5,6,-9,-6,-6
1532063684219,2,-1,-2,3,1,17,3,4
1532063684224,2,0,-2,-7,-6,-7,-3,3
1532063684229,-2,-1,-3,26,1,5,0,0
1532063684234,2,2,4,15,-4,-2,5,-1
1532063684239,-2,0,-1,-18,0,-6,-6,-6
1532063684244,-1,-1,-4,3,4,0,0,-3
1532063684249,2,-1,1,6,-7,-1,-2,3
1532063684254,0,1,4,-16,-1,1,3,2
1532063684259,0,-3,-4,-16,16,1,-1,-2
1532063684264,-2,-4,-7,-50,-16,-3,-1,-5
1532063684269,0,1,0,3,-9,-4,0,1
1532063684274,1,2,4,29,4,2,0,0
1532063684279,-2,-2,-2,-13,-2,-3,0,-2
1532063684284,-1,-2,-1,7,3,1,-4,0
1532063684289,1,-1,0,1,5,0,-1,-1
1532063684294,2,0,0,-3,1,2,1,0
1532063684299,-1,-1,-2,-24,-7,-3,1,-2
1532063684304,-3,-2,3,25,1,0,-2,-2
1532063684309,1,2,1,-7,0,-1,3,3
1532063684314,-1,-1,0,3,0,0,-1,1
1532063684319,0,0,1,18,2,-4,-2,-2
1532063684324,-3,-2,-2,3,-4,0,0,-3
1532063684329,-2,-1,-2,-7,-3,-1,-1,0
1532063684334,-1,-1,-1,-5,3,-2,0,2
1532063684339,0,-1,1,37,-4,-4,-3,0
1532063684344,0,1,3,11,9,2,3,-1
1532063684349,-5,-3,-10,-44,-1,2,-1,3
1532063684354,1,-2,0,1,-3,-1,0,0
1532063684359,-1,-1,3,25,9,1,-3,-3
1532063684364,0,1,1,-2,-12,-1,-2,-1
1532063684369,0,-2,-2,-1,-2,-4,-3,-4
1532063684374,-1,0,1,6,1,2,0,-1
1532063684379,-2,-2,-5,-8,2,-2,-3,-2
1532063684384,3,0,3,-25,-6,-2,3,1
1532063684389,-1,-5,-2,-1,-1,-1,0,0
1532063684394,-4,-2,-3,-5,2,0,-1,0
1532063684399,-2,0,-3,11,-7,-1,0,-5
1532063684404,-2,-1,4,11,3,0,-3,-1
1532063684409,1,3,-5,-10,-2,0,1,0
1532063684414,2,5,16,31,8,-1,1,1
1532063684419,-5,-9,-43,-39,-7,-6,-4,-2
1532063684424,0,1,-1,17,-4,2,-1,0
1532063684429,0,0,3,3,6,-1,2,1
1532063684434,0,-2,-2,-19,-6,2,-1,-1
1532063684439,0,1,4,-7,-1,1,2,0
1532063684444,-1,-2,-1,5,1,-1,-1,0
1532063684449,2,0,7,11,0,-1,-1,0
1532063684454,-2,-3,-22,-12,-7,1,-2,-5
1532063684459,1,2,24,26,3,-1,-1,-2
1532063684464,-2,-4,-15,-35,-10,-3,-2,0
1532063684469,1,0,6,-5,-1,-1,0,0
1532063684474,0,-1,1,22,1,-2,-1,0
1532063684479,-1,-1,-1,-21,-9,-2,2,0
1532063684484,0,1,7,30,5,-2,1,-1
1532063684489,-1,1,1,13,11,1,-2,-2
1532063684494,-1,-3,-5,-28,-11,-4,0,1
1532063684499,0,-1,11,1,1,0,1,0
1532063684504,-2,-1,1,8,5,-1,-2,1
1532063684509,-2,-4,-11,0,-10,-4,-5,-3
1532063684514,-1,-1,2,-2,1,0,-1,-1
1532063684519,1,2,9,15,5,1,2,1
1532063684524,-1,-2,-9,-12,-13,-6,-3,-4
1532063684529,-2,-2,-3,-23,7,4,2,-1
1532063684534,-2,-2,2,-32,-3,-1,-1,0
1532063684539,1,0,-17,-12,2,0,2,2
1532063684544,-1,-1,9,0,-4,-2,-2,-2
1532063684549,1,1,-3,15,-1,-2,-1,0
1532063684554,-1,0,0,6,-3,-2,1,-3
1532063684559,-2,0,-1,-16,2,3,-1,1
1532063684564,0,0,6,3,10,0,0,-2
1532063684569,0,0,3,5,-13,-1,1,-3
1532063684574,-1,-1,2,5,2,1,-3,0
1532063684579,-1,-3,-8,-12,-12,-2,-2,-2
1532063684584,-1,0,5,4,5,0,-2,2
1532063684589,-1,1,5,33,4,1,2,0
1532063684594,0,-2,-1,9,1,0,0,-2
1532063684599,-1,-1,-2,-31,-6,-1,0,0
1532063684604,0,0,-3,2,0,2,-1,1
1532063684609,-3,-2,-2,10,3,-3,0,1
1532063684614,-1,1,2,6,-4,-5,-2,1
1532063684619,0,1,2,16,9,2,1,-1
1532063684624,-1,-2,-6,-10,-2,-1,0,-3
1532063684629,0,0,-6,-23,1,0,-1,-2
1532063684634,1,0,6,6,-1,-1,-2,2
1532063684639,0,0,3,4,-1,-1,-1,-1
1532063684644,0,2,-2,12,4,1,0,1
1532063684649,0,1,-1,6,4,0,2,1
1532063684654,1,0,-1,-10,0,0,-2,0
1532063684659,-2,-1,-1,11,-3,-1,-2,-4
1532063684664,-2,-4,-7,-11,4,-2,-1,-2
1532063684669,0,-2,2,3,-7,-3,-2,-1
1532063684674,-2,-3,-3,-4,5,-1,1,-3
1532063684679,0,-1,3,-5,-13,-1,1,-1
1532063684684,-2,-1,1,14,3,-1,-1,0
1532063684689,-2,0,-4,-8,5,0,1,1
1532063684694,1,1,1,1,-4,1,0,-1
1532063684699,0,-3,-7,12,-1,-2,-1,-2
1532063684704,-2,-2,-1,-5,-1,-4,0,0
1532063684709,0,0,4,21,2,1,-3,-2
1532063684714,-1,1,4,2,5,0,-2,0
1532063684719,-2,-2,6,-7,-4,0,-2,0
1532063684724,1,1,4,6,5,1,1,3
1532063684729,0,-2,-1,5,-2,-2,1,-1
1532063684734,0,-1,8,0,5,-3,-2,-2
1532063684739,-1,-4,-7,-11,-6,-1,-1,0
1532063684744,-3,-1,-5,7,-2,-3,-3,-2
1532063684749,-2,-2,1,-8,-5,-1,1,0
1532063684754,0,1,-1,7,-1,1,2,2
1532063684759,0,4,8,25,14,3,-1,-1
1532063684764,-1,-2,-5,-9,-5,1,-2,-3
1532063684769,-3,0,3,-39,-8,-3,-6,-1
1532063684774,0,-2,-4,11,-1,-3,-2,-1
1532063684779,1,0,3,-7,5,0,-1,2
1532063684784,1,1,-5,16,1,0,-1,0
1532063684789,1,0,0,27,5,4,1,-2
1532063684794,-3,-3,-1,-26,-2,-2,-3,-1
1532063684799,-2,-2,-2,-47,-14,-4,-1,-1
1532063684804,-1,-2,2,-10,-2,1,-4,2
1532063684809,0,-1,-7,4,-5,-3,0,-1
1532063684814,0,-1,-1,4,0,-1,1,-2
1532063684819,0,0,-6,-8,3,0,0,-3
1532063684824,-2,-3,-3,4,-5,-2,-1,-2
1532063684829,-1,0,4,-11,1,-1,-2,0
1532063684834,0,0,-6,15,4,1,1,1
1532063684839,0,-1,0,-1,1,-1,1,1
1532063684844,0,1,1,-6,-7,-3,2,-4
1532063684849,-5,-1,-3,3,-3,-1,-1,-4
1532063684854,-1,1,-1,7,1,1,1,0
1532063684859,-1,-2,-6,-1,-4,-2,0,-2
1532063684864,0,0,3,-10,2,-1,1,0
1532063684869,-1,0,-3,-4,-1,-2,-2,-1
1532063684874,-1,-1,-1,-3,-5,-1,-1,-1
1532063684879,0,0,4,10,5,2,-2,2
1532063684884,-1,-2,-3,-1,0,0,1,1
1532063684889,-1,-2,1,7,1,-2,-2,-4
1532063684894,-3,-1,-4,-1,-3,2,-6,-3
1532063684899,-1,1,-1,-14,-4,-2,1,-2
1532063684904,-1,-3,-2,3,-1,-1,-2,2
1532063684909,3,2,0,6,1,0,1,4
1532063684914,-3,-2,-4,2,2,-1,-2,-5
1532063684919,0,0,-1,23,4,-2,0,1
1532063684924,-2,1,0,2,-3,0,1,2
1532063684929,0,-2,-1,-5,-2,-1,-1,-1
1532063684934,-2,0,-2,-11,-3,-1,-4,-4
1532063684939,-4,-2,-2,4,0,-2,-6,-7
1532063684944,0,0,3,7,8,0,2,-3
1532063684949,0,-2,-4,-15,-12,-2,0,2
1532063684954,1,-3,-3,-19,-4,-2,0,2
1532063684959,0,1,0,-14,-2,0,1,2
1532063684964,-3,-2,-6,-3,-10,-4,-6,-5
1532063684969,0,1,4,10,4,0,0,1
1532063684974,0,0,-3,5,0,-1,1,0
1532063684979,-1,-1,0,0,-1,-1,0,2
1532063684984,2,1,2,5,5,2,-1,0
1532063684989,-4,-3,-5,-13,-4,-2,-1,-3
1532063684994,-1,-3,1,4,-4,-1,0,2
1532063684999,1,0,0,15,0,-1,-2,0
1532063685004,-2,-1,1,-9,1,-2,-2,-3
1532063685009,-3,-1,-1,0,1,0,0,-3
1532063685014,-1,-1,1,-3,0,-2,-1,0
1532063685019,-1,-1,-2,6,-2,-1,0,0
1532063685024,0,1,2,7,5,2,2,-1
1532063685029,-5,-5,-6,-28,-6,-1,-4,-4
1532063685034,0,3,3,18,-1,0,0,-1
1532063685039,-1,0,-2,7,-1,-2,-2,-2
1532063685044,0,-2,-3,-1,-2,-2,-3,0
1532063685049,1,-1,0,5,4,0,0,2
1532063685054,0,-1,-2,-4,-2,0,0,1
1532063685059,-3,-3,-1,-1,-2,-1,0,0
1532063685064,-1,-1,0,0,2,-1,1,-2
1532063685069,0,1,1,12,3,-1,2,2
1532063685074,0,-2,-5,-20,-3,0,-2,0
1532063685079,-3,-1,-1,0,1,-2,-5,-6
1532063685084,-1,-1,0,9,0,-1,0,0
1532063685089,0,-1,-2,-28,-6,-2,-2,-1
1532063685094,1,1,3,18,0,-1,1,1
1532063685099,0,-1,-4,-19,-6,0,0,2
1532063685104,-2,-1,-2,3,-5,-2,-5,-7
1532063685109,1,-2,-1,4,-1,-1,-1,3
1532063685114,0,0,2,1,3,-1,-4,-3
1532063685119,0,-1,-1,2,1,1,-1,-1
1532063685124,0,1,1,11,4,-1,-1,0
1532063685129,-1,0,-6,-13,-4,-2,-2,-1
1532063685134,-2,-1,0,-4,0,0,3,-2
1532063685139,0,0,1,20,3,0,0,0
1532063685144,1,-2,-3,-50,-10,1,2,2
1532063685149,-2,-1,0,16,-2,-1,-2,-5
1532063685154,-2,-1,-2,0,-1,0,0,-3
1532063685159,-2,0,-1,-7,3,0,1,1
1532063685164,0,-1,-1,5,1,-2,-1,4
1532063685169,-1,-1,1,8,1,0,0,1
1532063685174,-2,-4,0,3,1,-2,-3,-5
1532063685179,0,-2,-7,-47,-5,-1,-1,-1
1532063685184,-1,-2,0,8,-3,-2,0,1
1532063685189,1,0,-1,-2,-1,-1,0,-1
1532063685194,0,-1,-2,-2,-2,0,-1,-1
1532063685199,-1,0,-1,3,0,0,1,1
1532063685204,0,0,0,-3,5,0,-1,-1
1532063685209,-2,0,0,24,-3,0,-2,-5
1532063685214,0,-2,1,4,1,0,0,3
1532063685219,0,0,-1,18,1,-1,3,0
1532063685224,1,-1,-2,-10,-13,-1,1,0
1532063685229,1,2,2,15,4,3,3,0
