1532295187876,-1,-1,-4,-4,1,-5,-6,0
1532295187881,-1,-2,2,1,4,-3,1,-2
1532295187886,0,-1,-2,-1,1,-5,-1,-2
1532295187891,-2,-2,5,2,0,-3,0,-1
1532295187896,0,-1,-5,-2,-3,-3,-4,1
1532295187901,-1,0,-1,1,1,-3,2,0
1532295187906,-2,-1,0,-4,-6,-5,-5,-2
1532295187911,1,0,-1,0,-1,1,1,0
1532295187916,0,-1,-3,-2,-1,0,-7,0
1532295187921,-1,-1,3,2,6,0,1,0
1532295187926,-1,-1,-3,-1,-6,-2,1,-2
1532295187931,-2,-2,-3,-5,-2,0,1,-1
1532295187936,-2,-1,7,0,-1,-1,-9,-3
1532295187941,0,-2,-9,-4,-1,-4,-2,-2
1532295187946,-3,-2,1,-1,-1,1,1,0
1532295187951,0,0,-7,2,4,0,-2,1
1532295187956,-1,-2,1,-5,-3,-1,-3,1
1532295187961,0,-1,7,0,-5,-1,-1,-2
1532295187966,1,-1,-4,1,1,-1,-1,0
1532295187971,-2,-1,3,-1,-3,-1,-3,-2
1532295187976,0,0,-4,2,2,0,2,0
1532295187981,0,-1,0,-2,3,1,3,0
1532295187986,0,-2,-5,0,-3,1,-2,-1
1532295187991,1,0,3,0,0,-2,1,-1
1532295187996,0,-2,-5,-1,-3,-1,0,-1
1532295188001,0,0,-5,-4,-4,-1,-2,2
1532295188006,0,-1,6,2,2,-1,-4,0
1532295188011,0,-2,-5,-2,-3,2,15,0
1532295188016,-1,-1,-4,0,1,-2,-2,-1
1532295188021,-3,-1,5,2,0,0,-2,0
1532295188026,0,0,-4,-5,-1,-2,-1,-2
1532295188031,-2,0,2,2,1,-1,-2,-1
1532295188036,-1,-1,-2,-5,-1,0,-1,0
1532295188041,0,0,-1,5,-2,0,2,0
1532295188046,-2,-4,-13,-6,0,-2,-4,0
1532295188051,-2,0,0,-3,-1,0,-2,0
1532295188056,-1,1,-4,0,1,0,-2,-1
1532295188061,0,0,7,2,3,2,0,-1
1532295188066,1,3,4,3,1,1,0,-1
1532295188071,0,-3,-4,1,0,-1,-4,-2
1532295188076,0,-2,0,-5,-7,1,4,-1
1532295188081,-1,0,0,1,1,-5,-6,-2
1532295188086,-1,-1,-1,-1,0,0,4,-2
1532295188091,-1,-1,1,-6,-7,-1,-3,1
1532295188096,0,0,-1,2,2,0,-5,0
1532295188101,-2,-1,-3,-2,-4,2,14,-1
1532295188106,0,-1,-1,2,-1,0,0,0
1532295188111,0,1,1,0,4,-3,-4,-3
1532295188116,-1,-1,-3,1,-2,-2,-3,-2
1532295188121,-2,1,2,-5,-4,0,-3,0
1532295188126,0,0,-1,3,-1,0,-1,0
1532295188131,0,0,-1,-1,1,1,2,1
1532295188136,2,-1,0,0,1,-1,5,1
1532295188141,-1,-2,0,-1,-5,0,0,0
1532295188146,0,1,4,-2,1,-3,-4,2
1532295188151,-3,-3,0,1,-2,-1,0,0
1532295188156,-2,0,-5,1,5,0,-2,-3
1532295188161,0,-2,0,-2,0,-4,1,0
1532295188166,0,-2,-3,-6,-5,2,-5,0
1532295188171,0,0,2,0,4,0,-7,-1
1532295188176,-2,1,2,1,-2,-3,0,-1
1532295188181,0,-1,-7,-2,-2,-1,-1,-1
1532295188186,-2,0,0,0,-1,-1,-5,-4
1532295188191,-2,-1,0,2,1,0,1,0
1532295188196,0,0,1,0,5,2,5,-2
1532295188201,0,0,-2,-4,-7,-4,-10,-1
1532295188206,-2,0,0,-1,1,-1,4,-2
1532295188211,-1,0,-2,-2,-4,-1,-1,0
1532295188216,-1,0,0,2,0,0,0,2
1532295188221,-1,-1,-3,-2,-1,-1,-1,1
1532295188226,0,0,0,0,-2,-1,1,-1
1532295188231,0,0,3,-2,0,-1,2,-2
1532295188236,-2,-2,-6,-3,-3,-1,-4,-2
1532295188241,1,0,3,-1,3,3,3,0
1532295188246,0,-1,-2,-3,-3,-2,-10,0
1532295188251,-1,-1,1,1,2,1,2,1
1532295188256,0,-1,3,0,-3,0,-1,-1
1532295188261,-2,-2,-3,0,-1,-2,-2,-3
1532295188266,-1,-2,0,-3,-4,-3,0,-1
1532295188271,-1,-1,-2,-2,-3,-1,-3,-1
1532295188276,-1,0,18,0,1,2,1,-1
1532295188281,-1,-2,-18,-1,-2,0,0,-3
1532295188286,0,0,5,3,2,3,2,0
1532295188291,-1,0,-4,-1,0,-2,-5,-1
1532295188296,-2,-2,0,-4,-5,-3,-1,-2
1532295188301,-2,0,4,4,4,1,0,0
1532295188306,-1,0,-2,-2,1,0,1,0
1532295188311,-1,-2,-3,-4,-5,-1,0,-2
1532295188316,1,0,2,-1,-3,-4,0,-1
1532295188321,0,-1,-5,-2,-1,-1,-2,0
1532295188326,0,-2,-3,1,2,0,-6,-2
1532295188331,0,-1,0,-1,-1,-2,3,1
1532295188336,-1,-1,-6,-2,-2,0,-2,0
1532295188341,-1,0,4,0,-1,3,4,1
1532295188346,0,0,2,-2,-3,-5,-9,0
1532295188351,1,-1,-3,-5,-3,-1,2,-1
1532295188356,-1,-1,-5,1,-1,-3,-2,-2
1532295188361,-1,0,4,0,3,1,-1,-1
1532295188366,0,-1,15,-1,-3,1,4,0
1532295188371,1,-2,-21,-2,-2,-1,-5,-1
1532295188376,0,-1,-4,-3,0,-1,4,-1
1532295188381,-2,1,8,3,1,1,-3,0
1532295188386,-2,0,-6,-2,2,-2,3,-1
1532295188391,0,1,3,1,-2,-2,-3,0
1532295188396,0,-2,2,0,4,-2,1,0
1532295188401,0,0,-10,-6,-5,-3,-9,-1
1532295188406,-2,-2,-1,1,0,2,10,0
1532295188411,-2,-1,3,2,2,0,-8,-1
1532295188416,-1,-1,-5,-4,-1,1,-3,-1
1532295188421,0,-1,6,2,4,-2,-5,0
1532295188426,-2,0,-6,-1,-7,-4,0,-3
1532295188431,0,0,1,1,-2,3,6,0
1532295188436,-1,-1,-2,-5,-6,-2,-1,0
1532295188441,0,-1,3,0,-1,-2,-3,0
1532295188446,0,0,5,4,9,-1,1,0
1532295188451,-2,-1,-15,-5,-5,-2,1,0
1532295188456,-1,-2,2,0,-3,-1,-4,0
1532295188461,1,-2,-2,-1,1,1,5,-1
1532295188466,0,0,5,-1,-5,-1,0,1
1532295188471,-1,-1,1,0,-1,0,-1,-1
1532295188476,1,0,-5,-1,-3,-5,-7,-1
1532295188481,-1,-1,2,-2,0,2,10,1
1532295188486,0,-2,-4,-1,3,0,-3,-3
1532295188491,-1,1,6,2,5,0,0,-1
1532295188496,-1,0,-2,1,0,0,-4,-1
1532295188501,-1,0,-2,-2,-5,0,1,0
1532295188506,0,0,-3,0,0,-1,1,-2
1532295188511,-1,0,1,0,1,0,1,-2
1532295188516,-2,0,0,0,1,0,-1,-2
1532295188521,-2,-1,3,-4,-1,-2,-2,0
1532295188526,-1,-2,-7,-4,-5,2,2,0
1532295188531,0,-2,2,0,1,-1,-7,1
1532295188536,0,0,1,2,1,-2,4,1
1532295188541,-1,2,-1,2,-1,-2,-5,-1
1532295188546,-2,-3,-3,-3,-1,-1,4,-1
1532295188551,-1,-1,5,0,-3,-3,-6,-2
1532295188556,-1,-2,-6,-3,-4,0,6,-2
1532295188561,0,-1,-5,-2,-2,-1,-5,-1
1532295188566,-1,0,5,5,5,-2,-2,0
1532295188571,-2,-1,-8,-2,-1,-1,-2,-1
1532295188576,-2,0,1,0,-1,0,-1,1
1532295188581,-2,-2,-1,-4,-4,-2,0,-3
1532295188586,-1,0,0,1,0,-2,0,0
1532295188591,0,0,7,0,1,0,4,-1
1532295188596,-1,-1,-7,2,2,-1,-2,0
1532295188601,0,-1,1,0,-1,0,-1,1
1532295188606,0,-1,-4,-4,1,-2,-6,1
1532295188611,-3,1,2,-1,-8,-3,3,-2
1532295188616,1,0,0,1,3,0,0,0
1532295188621,-1,0,9,4,2,-3,-2,-1
1532295188626,0,-1,-15,-2,-3,2,1,0
1532295188631,0,-1,-3,-5,-3,-2,-1,0
1532295188636,-1,-1,3,-1,-4,0,-3,-1
1532295188641,0,1,-1,3,-1,-2,2,-2
1532295188646,0,-1,1,1,0,1,0,-1
1532295188651,0,-1,1,0,4,0,-3,-1
1532295188656,-2,-3,1,1,-2,-1,-1,-2
1532295188661,0,-1,-5,-6,-6,-3,0,-1
1532295188666,-1,1,-10,0,-4,-2,0,1
1532295188671,0,-1,-5,-2,2,0,-4,-1
1532295188676,-1,0,0,-1,3,0,-1,1
1532295188681,-1,-1,-6,1,-4,0,0,-1
1532295188686,-1,0,7,-1,-3,-1,-2,-1
1532295188691,0,-1,6,2,0,1,1,-2
1532295188696,0,-2,-12,-2,3,-2,-7,-1
1532295188701,-2,-2,4,-2,1,-1,-4,0
1532295188706,-2,-1,-1,-7,-7,-3,-1,1
1532295188711,1,-1,1,-3,-6,2,6,-1
1532295188716,0,-1,1,0,-4,-5,-9,-1
1532295188721,0,0,0,4,8,2,3,-1
1532295188726,-1,-1,-2,-5,-4,-1,-1,-2
1532295188731,-2,-3,-4,-1,-1,-1,4,-2
1532295188736,-1,0,18,-1,-2,2,2,0
1532295188741,0,-3,-18,-3,-2,-2,-3,-2
1532295188746,2,0,1,2,6,0,0,-2
1532295188751,1,0,2,-1,-3,-1,-3,0
1532295188756,-2,1,-4,-3,1,-2,3,-2
1532295188761,-2,0,-2,-1,0,-1,0,-1
1532295188766,1,-1,0,1,-2,1,-5,-3
1532295188771,-1,0,0,1,1,-1,-5,1
1532295188776,0,0,1,3,0,2,3,0
1532295188781,0,1,3,0,1,-3,-3,1
1532295188786,-1,-2,-3,-5,-4,1,15,0
1532295188791,0,0,4,2,-1,-2,-2,1
1532295188796,-1,-1,-6,-7,-1,-4,-3,-3
1532295188801,-1,-2,-3,-4,-4,0,0,0
1532295188806,-2,0,4,4,4,1,-2,-2
1532295188811,0,0,0,2,1,-1,-2,1
1532295188816,0,-2,-2,0,2,0,5,-1
1532295188821,-1,-1,0,-2,-7,-2,-7,-1
1532295188826,0,-1,0,0,0,-3,-1,1
1532295188831,-3,-2,-4,-4,0,0,3,0
1532295188836,-2,-3,-2,3,4,1,-2,-1
1532295188841,-1,0,2,1,-3,0,-1,-2
1532295188846,0,-2,2,-2,-2,-2,-5,-1
1532295188851,-1,-1,-9,-4,0,-1,1,-1
1532295188856,0,-1,-1,-1,-1,-1,-1,1
1532295188861,0,0,0,-1,2,1,-3,0
1532295188866,1,0,3,6,4,3,13,1
1532295188871,0,0,9,-3,-3,-2,0,-1
1532295188876,-1,-2,-18,-8,-7,-3,-5,0
1532295188881,0,0,3,-1,-3,-3,-2,-2
1532295188886,-2,-2,-7,-2,-2,-2,-4,-2
1532295188891,-2,-2,5,2,5,0,0,-1
1532295188896,-2,0,1,1,-3,1,5,0
1532295188901,0,-2,-2,3,2,0,1,0
1532295188906,0,0,1,-2,6,-2,-6,0
1532295188911,1,0,-4,1,-4,-1,-1,-1
1532295188916,0,1,2,-5,-5,0,0,-2
1532295188921,-1,-2,-4,-2,4,-1,-7,0
1532295188926,-2,0,2,0,-5,-2,-3,-1
1532295188931,-1,-1,-2,1,-1,-1,-2,-1
1532295188936,0,-1,-6,1,-1,-1,-3,-1
1532295188941,1,0,4,0,0,0,2,1
1532295188946,0,-2,-3,-6,0,-1,-7,-2
1532295188951,-2,-1,-5,-2,-1,1,-3,1
1532295188956,-1,-1,6,5,0,-1,-4,-2
1532295188961,-2,0,-1,0,-1,0,5,-1
1532295188966,-1,-1,0,3,3,-2,-6,0
1532295188971,0,0,-1,-1,-5,0,1,0
1532295188976,0,-1,10,-3,-1,-1,2,-1
1532295188981,1,0,-22,-4,-3,-1,-4,-2
1532295188986,-1,-1,-2,0,-3,-1,-1,0
1532295188991,-1,-1,-1,-1,2,0,0,-1
1532295188996,0,-2,-1,-2,-4,-1,-3,-1
1532295189001,0,0,9,1,-1,0,0,-1
1532295189006,1,0,-1,-2,-2,-2,-2,2
1532295189011,-2,-1,-9,0,-4,-4,-1,-1
1532295189016,1,0,0,-3,2,0,-3,0
1532295189021,-2,-2,3,0,-1,0,-4,-1
1532295189026,0,1,-4,-3,-4,1,15,-2
1532295189031,0,-1,2,-2,4,0,-3,0
1532295189036,-2,0,-2,1,2,-1,0,0
1532295189041,-2,-1,0,2,2,2,0,1
1532295189046,-1,-2,-1,0,-2,0,1,-1
1532295189051,0,-1,1,-1,-1,0,1,0
1532295189056,0,-1,-3,-1,-1,-1,1,0
1532295189061,-2,-1,-1,-2,-1,-2,4,0
1532295189066,-3,0,0,-1,0,0,-4,-1
1532295189071,-2,-2,-3,3,2,0,-2,-2
1532295189076,0,-1,-3,-4,-5,-2,2,0
1532295189081,-1,0,3,0,-1,-3,2,0
1532295189086,0,-2,-1,-5,-2,-1,-1,-1
1532295189091,-1,-2,-5,-2,0,1,0,-2
1532295189096,-1,0,2,4,2,0,1,1
1532295189101,-1,-2,-2,-3,2,-1,-1,-2
1532295189106,-1,0,2,1,-2,-3,-8,1
1532295189111,0,0,0,0,0,0,1,0
1532295189116,-1,0,-2,-1,-1,-2,-2,1
1532295189121,0,0,1,-2,-2,-1,-1,-3
1532295189126,-2,-2,0,3,4,0,-7,-1
1532295189131,0,-2,0,-3,-4,-3,1,-2
1532295189136,0,0,0,-2,2,0,1,-1
1532295189141,0,-1,-1,0,0,0,-1,-1
1532295189146,0,0,-1,0,0,-3,0,0
1532295189151,0,-1,-1,-2,-5,-2,-2,0
1532295189156,-2,0,-1,-1,-2,-1,0,-1
1532295189161,0,0,-1,-2,1,2,1,0
1532295189166,-4,0,-1,0,2,-4,0,-2
1532295189171,-1,2,5,-1,-4,-1,3,0
1532295189176,-2,-3,-6,-2,0,0,-8,-2
1532295189181,-1,-2,-4,0,-4,2,6,0
1532295189186,1,0,-1,2,2,2,3,1
1532295189191,0,0,0,2,2,-2,-3,-1
1532295189196,0,0,2,-1,-1,-1,-1,-2
1532295189201,0,1,-1,-1,-4,-3,-2,-2
1532295189206,1,-1,-1,-3,-1,-2,-2,-1
1532295189211,-1,-2,-2,-3,0,-1,3,-1
1532295189216,-2,-1,1,1,-2,3,3,-1
1532295189221,-2,-1,0,2,0,-2,-2,-1
1532295189226,0,-2,0,0,-1,1,2,-2
1532295189231,0,-2,0,2,1,-1,-1,-2
1532295189236,0,0,-3,-6,-2,-3,-2,-1
1532295189241,-2,0,2,-3,-6,-2,2,1
1532295189246,0,0,5,-1,0,1,-11,1
1532295189251,-3,-1,-7,-4,1,2,1,-1
1532295189256,0,-1,-3,1,-1,1,-2,-1
1532295189261,0,-1,1,1,0,-1,-1,-1
1532295189266,-1,-4,-3,-5,-7,-2,-3,-1
1532295189271,0,-2,1,0,-1,2,0,-1
1532295189276,-1,-1,5,0,1,-2,2,-1
1532295189281,1,-1,-14,-3,-1,-1,-1,-1
1532295189286,-1,1,-3,2,2,0,1,1
1532295189291,-1,1,-1,-3,-2,-1,-1,0
1532295189296,0,-2,-1,0,-4,-1,2,0
1532295189301,-1,-1,8,1,-1,2,-5,-1
1532295189306,-1,0,-1,0,-1,-3,7,0
1532295189311,-3,0,-6,-3,-2,-2,-3,-1
1532295189316,-1,0,5,3,3,-1,-1,-1
1532295189321,-2,0,1,0,-2,-1,-8,1
1532295189326,-1,0,0,1,-1,2,1,-2
1532295189331,-1,0,6,2,0,-1,-4,-1
1532295189336,-2,0,-6,0,0,1,0,-1
1532295189341,0,-1,-2,-4,-2,-3,-1,0
1532295189346,-1,-1,-1,-2,-4,0,2,0
1532295189351,-1,-1,3,-1,-2,-3,0,0
1532295189356,0,-1,-1,1,-1,-1,-3,0
1532295189361,-2,-1,-2,-3,-2,-1,0,-2
1532295189366,1,-2,1,0,-2,-2,-4,-2
1532295189371,-1,1,0,2,0,-1,2,1
1532295189376,0,-1,0,0,-1,-2,-1,-1
1532295189381,-1,-3,0,-3,-1,-3,2,-1
1532295189386,-2,-1,-2,-5,-8,0,0,0
1532295189391,-1,-1,-1,0,-2,-1,-5,-1
1532295189396,-2,-2,-2,-1,2,0,0,0
1532295189401,-1,-2,2,3,1,-1,-1,-2
1532295189406,0,0,1,5,8,4,13,0
1532295189411,1,-1,-3,-4,-6,-3,-2,-1
1532295189416,-1,-1,3,-3,-4,0,1,-1
1532295189421,2,0,9,0,2,0,0,0
1532295189426,-2,-3,-18,-4,-2,-3,-2,-2
1532295189431,1,0,1,-1,3,0,0,-1
1532295189436,-2,0,-3,0,-2,-2,2,-1
1532295189441,-2,-1,4,4,0,0,-1,-1
1532295189446,-1,-1,2,-4,-5,-3,-6,-1
1532295189451,1,-2,-2,1,0,0,2,0
1532295189456,-2,-2,-2,-5,-5,-2,-2,-4
1532295189461,0,-1,-5,1,0,2,3,-1
1532295189466,0,0,4,0,3,0,-3,0
1532295189471,0,-2,-6,-1,0,-1,0,-2
1532295189476,1,-1,0,-3,0,1,-5,1
1532295189481,0,1,-3,-1,-4,-4,-7,-1
1532295189486,1,-1,-4,1,-1,1,8,0
1532295189491,-1,0,1,-1,1,-2,-7,-2
1532295189496,0,1,-2,0,0,1,4,-3
1532295189501,-1,0,-5,-6,-2,-1,-3,-1
1532295189506,-2,0,7,0,-1,0,-2,0
1532295189511,-1,-2,-7,-1,2,1,3,1
1532295189516,-2,0,1,3,1,-3,-7,0
1532295189521,-2,-3,-3,-3,-2,0,3,-1
1532295189526,-1,-2,3,-1,2,-3,-5,-3
1532295189531,-3,-1,0,-1,-3,0,3,-2
1532295189536,0,-1,-2,-5,-5,0,3,0
1532295189541,-2,-1,4,1,1,0,2,-2
1532295189546,0,-4,-14,-6,-3,-2,-2,-1
1532295189551,0,0,2,1,0,-1,1,0
1532295189556,-2,-1,-4,2,3,-1,-1,0
1532295189561,-1,1,4,-1,-1,1,0,1
1532295189566,-1,-2,3,-1,-1,0,-1,-2
1532295189571,-1,-2,-3,1,-6,0,-2,-1
1532295189576,-3,-2,1,2,3,1,1,0
1532295189581,-1,-2,-3,-2,-1,-2,-1,-1
1532295189586,-1,-2,2,-1,1,-4,0,-1
1532295189591,0,-1,-6,-3,1,1,-2,-1
1532295189596,0,0,2,-1,0,0,1,0
1532295189601,0,1,-4,1,4,-2,-4,-1
1532295189606,-1,0,-1,-2,-3,0,-3,1
1532295189611,-1,-4,3,-2,-4,0,3,-1
1532295189616,-2,0,0,2,3,2,-1,0
1532295189621,0,-1,-7,-2,-2,-2,-2,-1
1532295189626,1,0,2,2,0,-1,2,0
1532295189631,-1,1,0,1,0,1,-1,0
1532295189636,0,-1,-2,-4,-1,-2,-3,-1
1532295189641,-2,-1,-1,-1,-5,0,2,0
1532295189646,-2,1,-1,2,-1,1,6,0
1532295189651,0,-2,0,-1,-3,-1,-4,-1
1532295189656,-1,0,-3,2,-3,-1,-1,0
1532295189661,-1,0,4,1,3,-2,0,0
1532295189666,-2,-1,11,1,0,-2,-4,-1
1532295189671,0,0,-25,0,0,0,-1,-3
1532295189676,-1,-1,-2,-7,-3,0,-1,1
1532295189681,-1,-2,-2,-2,-2,0,-1,-1
1532295189686,-1,-1,-3,-3,-5,-2,0,2
1532295189691,-1,1,12,3,2,-2,0,-2
1532295189696,0,-1,0,2,-1,-1,-1,-2
1532295189701,-1,-3,-8,-3,2,1,1,-1
1532295189706,-1,-1,2,-1,-1,0,-6,-2
1532295189711,-2,-2,1,-5,1,0,0,-1
1532295189716,0,-1,-4,-1,-7,-4,0,-2
1532295189721,0,0,3,1,1,0,1,-1
1532295189726,-1,1,-3,0,-1,-1,-8,0
1532295189731,0,1,2,-2,0,4,12,2
1532295189736,-1,-3,1,1,3,1,0,-1
1532295189741,-1,-2,0,0,-1,-1,2,-1
1532295189746,-1,0,-5,-1,-1,1,-3,-2
1532295189751,-1,-1,0,-1,-4,-4,-6,-1
1532295189756,1,-2,0,-2,-2,0,-2,-1
1532295189761,0,0,0,2,-1,1,6,-1
1532295189766,0,1,-1,0,0,-1,-1,1
1532295189771,0,-1,0,-3,-4,-3,-3,1
1532295189776,0,-1,2,1,2,-1,0,-1
1532295189781,-1,-1,-2,4,3,0,-2,0
1532295189786,0,0,-5,-6,-3,-2,1,0
1532295189791,-1,-1,3,-6,-3,-2,-2,-1
1532295189796,-1,0,4,2,-1,-2,-1,0
1532295189801,-1,0,-2,-1,-2,-2,-7,-2
1532295189806,0,-2,3,3,5,4,11,-2
1532295189811,-1,0,-3,-3,-4,-3,-2,-2
1532295189816,-1,-1,-4,-2,-3,0,1,-1
1532295189821,1,-1,23,-1,-3,0,0,0
1532295189826,-1,-2,-22,-2,1,-1,-5,-3
1532295189831,-1,0,1,3,1,0,-1,-1
1532295189836,0,-2,0,0,0,0,1,0
1532295189841,-2,-2,0,-4,-4,0,-1,0
1532295189846,0,1,9,1,-3,-1,-1,-2
1532295189851,-2,-3,-8,-1,-1,-1,-2,0
1532295189856,-1,-2,-2,-1,-4,-2,0,-3
1532295189861,0,0,-4,-3,-2,-2,-2,-1
1532295189866,0,-1,2,0,-2,0,0,-1
1532295189871,-2,-1,-1,3,2,-2,-4,1
1532295189876,0,0,1,-1,-1,-2,1,-1
1532295189881,-2,-1,-8,-7,-8,-2,-1,-2
1532295189886,-1,-2,1,-4,1,-2,-9,-1
1532295189891,0,-1,4,3,-2,1,1,-2
1532295189896,0,0,-1,2,2,0,3,-1
1532295189901,-2,-1,-6,-3,1,0,1,-1
1532295189906,-2,-2,-5,-8,-3,-1,-1,0
1532295189911,0,-1,0,0,-5,0,0,0
1532295189916,-1,-3,-4,1,4,0,-4,0
1532295189921,-1,2,10,-1,-1,0,2,-2
1532295189926,-1,-1,-2,-3,-1,-1,-4,-2
1532295189931,-1,-2,-8,-1,-1,-1,2,0
1532295189936,0,-1,-1,-4,-5,-1,1,-2
1532295189941,-1,0,5,1,-1,-2,-5,0
1532295189946,0,0,-2,-2,2,0,11,-1
1532295189951,-1,1,3,-2,-3,-2,-6,-2
1532295189956,-1,-1,0,1,-3,-1,1,0
1532295189961,-1,-1,-1,-1,3,0,-1,0
1532295189966,-1,-1,-2,-1,-2,-1,-4,-1
1532295189971,-1,-3,-3,1,1,-1,1,0
1532295189976,-1,0,-1,-2,-3,-3,1,-3
1532295189981,-2,-2,0,1,2,0,1,-1
1532295189986,0,-1,5,0,-1,-2,-2,1
1532295189991,0,-1,-13,-2,-4,-2,-2,-1
1532295189996,-2,-3,-7,-4,-2,0,-1,0
1532295190001,-1,-1,1,0,-2,1,0,-1
1532295190006,-2,-2,-2,0,5,-1,0,-1
1532295190011,-1,1,8,-1,2,0,-2,1
1532295190016,1,0,0,3,0,-1,-1,-1
1532295190021,-1,-1,-3,-2,1,-2,0,-3
1532295190026,-1,0,3,3,-6,-3,-7,-2
1532295190031,-1,0,0,-2,1,0,9,-3
1532295190036,1,0,-1,0,-4,2,-3,2
1532295190041,-1,-2,1,-3,3,-1,5,-2
1532295190046,0,0,-1,-1,0,-2,-5,-2
1532295190051,0,-1,0,-1,0,0,0,-1
1532295190056,-3,-2,-2,-1,-2,-1,1,-1
1532295190061,2,-2,5,2,-2,-3,1,0
1532295190066,0,0,-7,-3,-2,-1,0,0
1532295190071,0,-1,-1,1,-1,-1,-3,-1
1532295190076,0,2,2,1,1,-2,-1,-1
1532295190081,0,-1,-3,-3,-3,-2,-4,1
1532295190086,0,-1,-2,-3,-2,0,2,1
1532295190091,0,-1,1,0,-6,-4,-6,-2
1532295190096,-1,-1,14,0,-6,0,-1,-3
1532295190101,-1,-1,-22,2,5,-1,-2,-2
1532295190106,1,0,2,-1,-2,3,14,0
1532295190111,2,0,0,1,3,-1,-3,1
1532295190116,-1,-1,-5,-6,-7,1,5,0
1532295190121,0,-1,5,0,-2,0,0,-2
1532295190126,-1,2,2,-1,-2,0,-2,-2
1532295190131,-1,0,-5,-2,-1,0,-5,-1
1532295190136,-2,-2,0,2,5,-4,1,-3
1532295190141,0,1,3,-5,-3,0,-5,0
1532295190146,-1,-1,-8,1,0,1,-5,-1
1532295190151,0,0,3,-1,-1,-1,2,-1
1532295190156,0,-2,-4,-2,-1,-2,-4,0
1532295190161,-2,-2,0,0,-4,0,-1,-1
1532295190166,1,0,2,0,0,-2,-4,0
1532295190171,-1,-1,2,2,1,1,-1,0
1532295190176,0,-2,-5,-4,4,0,3,-1
1532295190181,-1,-1,-3,-1,-2,-1,1,-1
1532295190186,-1,0,3,-3,-4,-2,0,-2
1532295190191,-2,-1,0,1,-1,-2,-2,0
1532295190196,0,-3,2,1,-2,-1,0,-1
1532295190201,-1,-2,-6,-4,-4,-1,0,-1
1532295190206,-1,-1,-3,-2,0,1,-3,0
1532295190211,-1,0,1,-2,0,1,0,-1
1532295190216,0,0,0,0,2,-2,0,0
1532295190221,-1,0,2,-2,-3,-2,-1,0
1532295190226,-1,-2,-3,0,-5,-4,-3,-3
1532295190231,0,1,0,1,1,0,0,0
1532295190236,-1,0,1,0,2,1,0,-2
1532295190241,-1,-1,-1,-3,-4,-2,-6,2
1532295190246,-1,-1,-4,5,1,3,12,1
1532295190251,-2,0,-8,-7,-6,-3,-5,-2
1532295190256,1,1,2,-1,-4,-3,-4,-2
1532295190261,-1,0,-5,0,3,1,2,0
1532295190266,0,-2,4,2,3,-1,-10,-1
1532295190271,2,1,3,2,-1,-2,4,2
1532295190276,-2,-2,-6,-3,-1,-1,-3,-1
1532295190281,-2,-1,5,-3,-8,-1,7,-4
1532295190286,-1,-1,-6,-1,1,-1,-2,-1
1532295190291,0,-1,0,-2,0,0,0,-3
1532295190296,0,0,-2,-1,0,-2,-2,0
1532295190301,-1,0,3,3,1,1,-4,-2
1532295190306,-2,-1,3,0,-3,-1,-2,-3
1532295190311,-1,0,-6,-2,1,-3,-3,-1
1532295190316,-1,-2,2,-1,4,4,11,-1
1532295190321,0,0,-3,0,-4,0,-3,0
1532295190326,0,0,-3,-4,-4,-2,0,2
1532295190331,-1,-2,2,0,-3,0,-4,-1
1532295190336,-1,0,2,3,1,-1,0,-1
1532295190341,0,-3,-1,0,4,-1,-1,1
1532295190346,0,0,-3,-3,-4,-2,2,-1
1532295190351,-1,0,1,0,-3,-1,1,1
1532295190356,-1,-1,-3,-5,-3,-1,-5,-1
1532295190361,-1,-1,2,4,7,-2,-2,-2
1532295190366,-1,-1,-4,-1,-2,-2,0,-1
1532295190371,-1,-2,-4,-8,-6,-3,-3,-1
1532295190376,-1,0,-1,-4,-6,0,0,-2
1532295190381,0,0,-1,0,-1,-2,-2,-1
1532295190386,-1,0,0,6,7,2,-1,1
1532295190391,0,-2,-8,-5,1,0,1,0
1532295190396,1,-1,2,-3,-4,-3,-2,0
1532295190401,0,-2,-4,-3,-5,-4,0,-1
1532295190406,0,0,6,-1,3,2,2,-1
1532295190411,-2,-1,1,4,0,-1,-4,0
1532295190416,0,-1,-3,-2,0,-1,-3,-2
1532295190421,-1,-1,3,1,2,1,1,0
1532295190426,-1,0,-5,-4,-5,-3,-6,-1
1532295190431,-1,0,5,7,5,1,5,-2
1532295190436,-2,0,3,-1,2,-2,0,0
1532295190441,-2,0,-8,-6,-5,-3,-3,-1
1532295190446,-2,-2,-1,-1,-2,-3,-2,-1
1532295190451,0,0,1,-1,-1,-2,-4,-2
1532295190456,-1,1,3,2,0,1,6,-1
1532295190461,1,-1,0,3,3,0,-1,-2
1532295190466,-1,0,-1,0,1,-1,-2,-1
1532295190471,-1,-3,0,-3,-1,1,0,-2
1532295190476,0,0,-6,1,-4,-1,0,0
1532295190481,-2,-2,-7,-4,-3,-2,-3,0
1532295190486,-1,-1,1,0,1,-1,0,-1
1532295190491,-1,1,-3,0,-1,-1,-8,0
1532295190496,1,0,3,2,2,1,4,1
1532295190501,1,-1,2,-1,-3,-1,0,0
1532295190506,0,-1,-3,1,1,0,0,-1
1532295190511,1,0,6,3,4,-1,-1,0
1532295190516,-2,-3,-7,0,-2,-1,-3,0
1532295190521,-1,-3,-3,-7,-4,-2,-2,-1
1532295190526,-3,0,3,-2,-2,0,0,-2
1532295190531,-2,0,-3,-1,-1,0,2,-2
1532295190536,-1,0,-1,4,2,0,-2,-2
1532295190541,1,0,-1,-2,3,-1,-1,1
1532295190546,0,-1,-2,-6,-5,-1,0,1
1532295190551,-1,-2,0,0,-4,-1,1,-2
1532295190556,1,-2,-2,1,1,2,0,-1
1532295190561,-1,-1,5,2,0,-1,0,-2
1532295190566,-1,1,6,0,0,0,-2,0
1532295190571,-1,0,-20,-3,-2,-2,-2,0
1532295190576,-2,-2,2,-2,1,1,11,1
1532295190581,0,-1,3,1,1,1,-1,-1
1532295190586,0,-1,-3,-1,-1,-1,1,-1
1532295190591,0,0,7,1,-1,-1,0,1
1532295190596,-1,-1,4,-3,-2,-5,-7,0
1532295190601,-1,0,-11,0,-1,-1,-1,-2
1532295190606,0,-1,3,3,2,1,3,1
1532295190611,0,1,3,-2,2,0,-1,0
1532295190616,0,-1,-3,-5,-8,-4,-6,-2
1532295190621,1,-1,7,1,4,0,3,1
1532295190626,0,-4,-4,-4,-8,-4,-5,-3
1532295190631,-1,-1,2,3,3,-1,1,-1
1532295190636,0,-1,-1,-2,-1,-1,-1,0
1532295190641,-4,1,2,2,0,-1,-2,1
1532295190646,-1,-1,-3,-2,0,1,-1,0
1532295190651,1,-2,0,-2,-1,-3,0,0
1532295190656,-2,-1,-2,-3,-5,-2,-9,-1
1532295190661,-2,0,1,-1,0,1,6,-1
1532295190666,1,0,0,1,0,1,-1,0
1532295190671,0,1,20,2,1,0,1,-1
1532295190676,-2,-3,-24,-2,3,-1,-5,1
1532295190681,0,-1,0,-1,-4,-2,-2,1
1532295190686,-1,-1,1,1,2,-2,1,-1
1532295190691,-1,0,-2,-4,-6,-2,1,0
1532295190696,0,0,6,-1,-1,1,-1,0
1532295190701,-1,-1,-4,-1,-4,-1,-3,-2
1532295190706,0,-1,-4,-1,-1,-1,2,-2
1532295190711,-3,-1,-2,1,0,-2,-1,-2
1532295190716,0,0,2,0,2,1,1,-1
1532295190721,0,-2,-3,-1,2,-1,0,-1
1532295190726,-1,-1,3,-3,-5,-2,-6,-3
1532295190731,0,0,-7,-3,-1,0,-2,-2
1532295190736,0,0,2,-1,-1,-2,2,-1
1532295190741,0,1,6,1,-1,-1,-4,0
1532295190746,1,-3,-6,3,5,4,7,2
1532295190751,0,-1,-3,-2,-3,0,-2,0
1532295190756,-1,0,-2,-3,-3,-1,-3,-1
1532295190761,0,-3,0,0,-2,1,1,-1
1532295190766,-3,-1,1,0,0,-2,-2,1
1532295190771,-2,-2,-5,-3,5,0,-2,-1
1532295190776,-1,1,2,0,-7,-2,-1,0
1532295190781,0,0,-2,-1,1,-1,-4,-1
1532295190786,-1,-2,-1,0,-3,-1,-1,1
1532295190791,0,-3,-2,-3,-1,0,1,-1
1532295190796,-1,-1,0,1,-1,-3,-3,1
1532295190801,-1,-1,7,2,1,-2,0,-1
1532295190806,0,1,-20,-3,1,0,-3,0
1532295190811,-1,-2,-2,2,-4,-1,0,-1
1532295190816,0,-2,0,1,4,1,-5,0
1532295190821,1,1,-3,-5,-5,-1,11,1
1532295190826,-2,0,7,0,1,-2,0,2
1532295190831,0,0,1,0,-2,1,-1,-2
1532295190836,0,-1,-5,-3,-3,0,0,-3
1532295190841,-1,0,-1,0,0,-3,-3,-1
1532295190846,-1,0,3,-2,2,-2,0,-1
1532295190851,0,-1,-3,0,2,0,0,0
1532295190856,0,-1,5,1,0,-1,-1,0
1532295190861,-1,1,-3,1,-2,1,-2,-1
1532295190866,-1,0,1,-2,-4,-2,-3,-1
1532295190871,0,0,0,2,1,-1,-3,2
1532295190876,-1,-1,1,-3,1,-1,6,-3
1532295190881,0,-1,-4,-2,3,-1,-13,-2
1532295190886,-2,-2,1,0,-5,-2,-2,-3
1532295190891,-1,-1,3,-1,-4,-2,1,1
1532295190896,-1,0,17,1,3,2,1,-2
1532295190901,0,-2,-23,-6,-3,-3,-4,0
1532295190906,-1,-3,5,4,4,4,11,0
1532295190911,-3,0,1,-1,0,-1,-3,-1
1532295190916,-1,-1,1,-1,-1,-1,-2,-1
1532295190921,-2,-1,4,-2,-5,-2,4,-2
1532295190926,-1,0,-3,-2,3,-1,-10,-1
1532295190931,-1,-2,-1,1,2,2,1,-2
1532295190936,0,0,-8,-3,-6,-3,0,2
1532295190941,-4,-2,2,-1,0,0,0,-2
1532295190946,1,0,0,-2,-3,-2,0,-3
1532295190951,1,-1,0,-3,1,0,1,-2
1532295190956,-1,-1,-5,0,-1,1,-4,-2
1532295190961,2,0,3,2,2,0,0,0
1532295190966,-1,-1,-3,-2,-4,-2,-2,-1
1532295190971,-1,-1,-3,-3,-2,-2,-3,-1
1532295190976,0,-1,-3,2,5,1,3,1
1532295190981,1,0,1,4,0,-1,-2,-3
1532295190986,0,0,-1,-4,-6,-2,-1,-1
1532295190991,-2,1,11,-2,-3,-1,0,-1
1532295190996,-1,-1,-26,-3,-2,-3,-5,2
1532295191001,-3,-1,5,-2,0,1,4,0
1532295191006,-1,-1,3,6,4,-1,-4,-2
1532295191011,0,-1,-5,-2,-2,-4,1,1
1532295191016,-1,-1,8,1,-1,0,-2,-2
1532295191021,-1,-1,1,0,-3,-1,2,0
1532295191026,0,-1,-5,-4,-3,-1,-8,-2
1532295191031,-1,-3,-2,0,-1,1,-2,-2
1532295191036,1,0,4,1,0,0,6,-3
1532295191041,-2,-1,-5,0,3,1,-2,0
1532295191046,0,0,2,-2,0,0,2,-2
1532295191051,0,0,2,-1,1,0,0,-2
1532295191056,0,-1,-6,-2,-3,-2,-2,-1
1532295191061,-2,-1,0,0,-3,0,0,0
1532295191066,1,0,2,-3,-3,0,-6,0
1532295191071,0,0,-2,2,0,0,3,-2
1532295191076,0,-3,1,2,3,1,2,-1
1532295191081,0,-1,2,-1,-2,-2,-1,-1
1532295191086,-1,0,1,0,-2,-3,1,1
1532295191091,0,-1,-16,-5,-4,-4,-3,0
1532295191096,0,1,4,0,0,-1,1,1
1532295191101,-1,-1,-4,-2,-2,0,-5,0
1532295191106,-1,0,4,2,2,-1,-1,-1
1532295191111,0,-1,1,0,-1,1,0,0
1532295191116,-1,-1,1,3,3,0,0,0
1532295191121,-1,-2,-1,-9,-6,-4,-6,-2
1532295191126,-1,-3,-4,-1,3,0,2,0
1532295191131,0,1,2,-1,-7,-1,0,-1
1532295191136,-2,-2,-7,-5,-3,-4,-3,-3
1532295191141,-1,1,4,0,5,-1,-4,-2
1532295191146,1,-1,-2,-1,-4,3,13,0
1532295191151,-1,-1,-4,0,2,-1,-2,-1
1532295191156,-1,0,5,-2,0,0,-2,1
1532295191161,-1,0,-1,1,2,-1,-1,1
1532295191166,0,0,-3,-1,-2,-4,-1,-2
1532295191171,-1,-1,2,0,-3,-2,-7,-1
1532295191176,0,-2,0,-4,-4,-2,1,0
1532295191181,0,0,0,2,-4,-3,2,-4
1532295191186,-1,-1,-10,-2,2,1,-3,1
1532295191191,0,-1,-1,-2,-5,0,-2,-1
1532295191196,0,0,-6,0,1,-1,-3,-1
1532295191201,1,-1,2,0,2,0,1,1
1532295191206,-1,-1,4,4,0,3,-2,-1
1532295191211,-1,-2,-4,-4,0,-4,-1,0
1532295191216,-3,-3,2,-7,-6,-5,-1,-3
1532295191221,-1,-1,1,1,1,0,-5,-2
1532295191226,0,-2,-8,-3,2,-3,-1,-1
1532295191231,0,1,1,1,-1,1,1,1
1532295191236,-2,0,1,3,-2,3,-1,-1
1532295191241,-1,-1,0,-2,-2,0,-3,-2
1532295191246,-2,-2,2,-2,-5,-1,-3,-1
1532295191251,-1,0,-1,-1,-1,-1,0,0
1532295191256,0,1,4,5,6,1,1,-1
1532295191261,-1,-1,-3,1,1,-1,3,-1
1532295191266,-1,-1,1,-1,5,-3,0,0
1532295191271,0,-2,-4,-4,-8,-1,-4,1
1532295191276,-2,-2,-2,-2,-3,-1,1,0
1532295191281,-1,-2,-2,-1,-6,-1,-1,-1
1532295191286,-1,-1,-3,-4,-2,-2,-5,-1
1532295191291,-2,0,4,2,8,2,2,-3
1532295191296,0,0,-2,1,-3,3,12,1
1532295191301,-1,-1,-3,1,3,0,1,-3
1532295191306,-1,0,1,1,-2,2,-2,-1
1532295191311,0,-2,12,1,-1,-1,-2,0
1532295191316,-1,-1,-19,-3,0,-3,-3,-1
1532295191321,-1,-1,1,-2,-2,0,-1,-1
1532295191326,-2,-2,0,-1,1,0,2,-2
1532295191331,-1,0,-3,-2,-4,-1,-3,0
1532295191336,-2,-1,7,3,0,-3,0,-2
1532295191341,-1,-1,-2,-2,2,-1,4,0
1532295191346,-1,-1,-2,0,-3,-1,1,0
1532295191351,-2,0,-2,0,-4,-2,-1,-1
1532295191356,-1,-1,3,-2,2,0,-7,-1
1532295191361,-1,0,-4,-3,-5,-1,3,-1
1532295191366,-1,-1,3,-2,-4,-2,-2,1
1532295191371,0,-2,-3,1,2,1,-3,1
1532295191376,0,-1,-5,1,3,1,7,1
1532295191381,-2,0,1,-3,-4,-2,-7,-2
1532295191386,-1,0,-1,-1,-1,-1,-3,0
1532295191391,0,0,-2,0,-4,-1,3,-3
1532295191396,-1,-3,1,0,0,-2,-6,0
1532295191401,-1,0,0,1,0,-2,-2,-1
1532295191406,-2,0,-1,-3,-5,-1,0,-2
1532295191411,-1,-1,-4,-2,2,0,-3,0
1532295191416,-1,0,2,0,1,0,-4,-1
1532295191421,0,0,-4,-2,0,-1,1,-1
1532295191426,-1,0,20,0,-2,-2,-2,-1
1532295191431,0,-2,-22,-2,2,0,-1,1
1532295191436,-2,2,4,1,0,0,-4,-2
1532295191441,-1,-1,-1,-1,-1,-1,4,-1
1532295191446,-1,0,0,1,0,-1,-4,-1
1532295191451,0,-2,3,-1,0,-2,1,-1
1532295191456,0,-2,-4,-3,-3,4,12,-1
1532295191461,-2,0,1,0,1,0,-4,-1
1532295191466,-1,-1,-5,-2,0,0,0,-1
1532295191471,-2,-1,1,-2,-2,-1,0,-1
1532295191476,-1,1,-4,-2,0,-2,-4,1
1532295191481,0,0,2,1,-2,0,0,-1
1532295191486,0,-3,-5,-1,-3,-1,-3,-2
1532295191491,-1,-1,-2,0,1,2,3,0
1532295191496,0,0,0,-2,2,-1,-3,0
1532295191501,0,-1,-3,-3,-4,0,-1,1
1532295191506,0,0,-2,3,3,1,-1,-1
1532295191511,-1,-1,-4,-4,-1,-3,-2,-1
1532295191516,0,-2,3,0,-5,0,-4,0
1532295191521,0,0,-1,2,0,0,-1,0
1532295191526,0,0,-4,-1,-1,-2,-5,-1
1532295191531,0,0,3,0,1,-1,-3,1
1532295191536,-1,-2,2,1,-2,-4,-2,-1
1532295191541,-1,-2,-7,-2,-2,-2,-4,-2
1532295191546,1,-1,-1,0,2,1,4,0
1532295191551,-1,0,-1,2,0,-2,-2,-3
1532295191556,0,-1,2,-2,0,0,-2,-2
1532295191561,0,-1,2,2,1,-1,-4,-1
1532295191566,-3,0,5,-1,4,0,5,0
1532295191571,-1,0,-17,1,-4,0,2,0
1532295191576,-1,0,-3,-3,-3,-2,1,-1
1532295191581,0,0,5,1,2,1,-1,0
1532295191586,0,-1,-4,3,5,2,-2,2
1532295191591,0,-2,5,-4,-5,-4,-1,-4
1532295191596,-3,0,0,-4,-6,-4,-3,-1
1532295191601,0,-1,-5,2,1,1,0,1
1532295191606,0,0,-1,-6,-1,-2,-9,-1
1532295191611,2,1,8,3,0,0,3,-1
1532295191616,0,-4,-9,-2,0,0,-1,0
1532295191621,-1,0,2,-2,-2,-3,0,-1
1532295191626,-1,0,-3,-1,-2,-1,1,0
1532295191631,-1,0,4,1,3,1,-5,-3
1532295191636,-1,-1,-1,-2,-3,-2,-1,-2
1532295191641,-1,0,1,0,1,1,2,0
1532295191646,0,-2,-2,-1,-1,-1,1,-1
1532295191651,-2,-1,12,-1,-5,-1,-2,0
1532295191656,-1,-1,-9,1,3,0,-1,-1
1532295191661,-1,-1,2,0,-4,-3,1,-1
1532295191666,-2,0,-10,-3,-5,-2,1,-1
1532295191671,-2,-1,6,3,4,3,2,0
1532295191676,1,0,9,4,2,-2,-4,-2
1532295191681,-2,-4,-13,-12,-6,-4,-2,0
1532295191686,0,1,5,1,-1,0,1,0
1532295191691,1,-1,-5,-1,0,1,-6,-2
1532295191696,-1,0,2,3,1,1,6,1
1532295191701,-2,0,-1,-2,2,-1,-3,0
1532295191706,0,0,3,1,-3,0,1,0
1532295191711,-1,0,-4,-1,-2,-1,-2,-1
1532295191716,-2,-1,0,-1,4,0,-1,-3
1532295191721,0,0,8,0,-1,1,-1,-1
1532295191726,-2,-3,-14,-6,-3,-2,-1,0
1532295191731,-2,-1,1,-1,-2,-2,1,1
1532295191736,0,-1,-5,0,-4,-2,-2,0
1532295191741,0,1,9,3,4,3,2,-1
1532295191746,0,-1,-6,-1,0,-2,-1,-3
1532295191751,-1,-2,-6,-6,-5,-2,1,-1
1532295191756,-1,0,10,0,-1,2,-2,0
1532295191761,0,-1,-1,-1,0,0,-2,-1
1532295191766,0,1,19,2,-2,-2,1,-2
1532295191771,0,-3,-23,-2,1,0,1,0
1532295191776,-2,1,4,-1,-3,-2,-3,0
1532295191781,-1,-1,-6,-1,0,-1,0,-1
1532295191786,-2,1,3,1,3,1,-1,-1
1532295191791,-2,-1,0,0,1,0,0,-2
1532295191796,0,-1,-3,0,-3,0,0,1
1532295191801,-1,0,-3,0,-5,-4,-3,0
1532295191806,-1,-3,-2,1,3,-1,1,0
1532295191811,0,-1,4,-3,1,-2,-2,-1
1532295191816,0,1,-5,-1,-1,-1,0,-2
1532295191821,-1,-1,0,2,-1,0,0,-1
1532295191826,0,-1,-3,-2,-4,-1,0,0
1532295191831,-1,-1,0,-2,-1,-3,-1,-2
1532295191836,-2,0,-1,-4,-5,-3,-2,-3
1532295191841,-2,-1,-3,0,6,0,2,-1
1532295191846,-1,0,-1,-2,-5,-1,-1,-1
1532295191851,0,-1,2,2,2,4,0,3
1532295191856,-1,-1,1,0,5,-3,-4,-1
1532295191861,1,-1,0,3,3,-2,13,0
1532295191866,0,0,-6,-2,5,21,-7,-4
1532295191871,1,1,2,-3,-8,-19,-7,-3
1532295191876,0,-1,-2,-3,-12,1,9,4
1532295191881,-3,-1,-2,-3,-3,-3,-12,-3
1532295191886,1,-3,-1,1,-3,-7,6,2
1532295191891,1,0,5,2,12,16,3,1
1532295191896,0,-1,-6,-5,-5,-7,-3,-3
1532295191901,-1,-1,-2,0,-3,-3,-3,0
1532295191906,-1,1,-1,0,2,1,-4,-1
1532295191911,-1,0,0,0,0,5,2,-1
1532295191916,1,-1,1,-1,0,-5,-3,0
1532295191921,0,0,1,0,-1,5,12,0
1532295191926,-2,-3,-4,0,0,-4,-7,-3
1532295191931,-1,0,-2,0,-3,-5,0,-1
1532295191936,-2,-1,-3,-4,-3,2,5,-3
1532295191941,0,0,-9,-6,-5,0,-6,-1
1532295191946,-1,0,-1,-1,-1,-5,1,4
1532295191951,-2,-2,1,3,1,-16,-2,-2
1532295191956,-1,-2,1,0,-7,-8,-4,0
1532295191961,0,-2,-1,-2,1,-7,-6,-2
1532295191966,0,0,-3,-2,-6,-4,3,-1
1532295191971,-1,0,3,2,-2,5,-3,0
1532295191976,0,-1,2,2,6,6,-1,-3
1532295191981,-2,-2,1,-4,-2,3,-4,1
1532295191986,-2,-1,-4,-1,-3,1,2,-2
1532295191991,-1,-1,-2,-2,-2,4,1,0
1532295191996,-1,-1,0,4,5,4,0,-3
1532295192001,-2,1,-6,-1,-2,-2,-3,-1
1532295192006,-1,0,2,-7,-4,1,6,0
1532295192011,-2,-3,-2,-2,-6,2,-6,1
1532295192016,-1,-1,-2,-1,5,-3,-1,-1
1532295192021,0,1,7,2,2,2,0,0
1532295192026,1,-2,9,1,-1,-2,-1,-2
1532295192031,-2,0,-15,-1,-3,-2,-2,-1
1532295192036,-1,-1,2,1,2,3,0,-1
1532295192041,-2,-1,-2,-5,-6,-6,-6,-1
1532295192046,-1,-1,6,3,1,-2,-2,0
1532295192051,0,1,3,1,1,0,2,0
1532295192056,1,-1,-1,-1,-1,2,-2,-2
1532295192061,-1,1,5,0,-1,-4,-3,-4
1532295192066,-1,-1,-6,2,-1,-2,0,-2
1532295192071,0,-1,-1,-2,-2,1,1,1
1532295192076,-2,-1,-5,-1,1,0,-2,-1
1532295192081,0,1,7,2,-1,1,0,-1
1532295192086,-1,-4,-8,0,1,-4,-9,-1
1532295192091,0,0,-17,-2,-2,3,8,1
1532295192096,-2,-2,2,-5,-7,-4,-10,-2
1532295192101,-1,-1,-2,-2,6,3,3,0
1532295192106,-2,0,1,-4,-4,-5,-3,-2
1532295192111,-2,-1,5,2,-4,-4,-4,-2
1532295192116,1,-1,-4,1,2,1,0,2
1532295192121,0,-2,-5,1,-1,0,1,1
1532295192126,-1,0,9,1,1,-1,0,-1
1532295192131,-2,-1,-2,-5,0,1,3,0
1532295192136,-1,-1,-5,-1,-1,-1,2,0
1532295192141,-1,0,23,4,-2,-2,-4,-1
1532295192146,0,-1,-24,-2,0,-1,-1,-1
1532295192151,-1,-2,8,-2,-7,-3,-2,-4
1532295192156,-1,1,1,3,2,0,-2,0
1532295192161,0,0,-3,-4,1,4,4,2
1532295192166,-1,-1,0,0,-1,-1,-3,1
1532295192171,-2,-1,-3,-1,0,-2,-4,-2
1532295192176,-1,-1,-2,-3,-1,3,12,0
1532295192181,-1,-2,-3,3,-3,-4,-12,-1
1532295192186,0,1,2,1,0,-2,7,-2
1532295192191,-1,-1,4,-1,0,-4,-2,-1
1532295192196,1,0,-3,1,2,0,1,1
1532295192201,0,-2,-7,0,-1,2,1,-1
1532295192206,0,-2,-5,-3,-2,-1,-3,-2
1532295192211,0,0,5,0,1,-2,-2,-1
1532295192216,0,-2,1,-1,-2,0,-6,-1
1532295192221,0,-2,-7,0,0,2,16,0
1532295192226,-3,1,3,-1,-2,-1,-2,2
1532295192231,0,0,6,3,1,0,2,0
1532295192236,-2,-2,-12,-8,-2,-1,-11,-1
1532295192241,-1,-2,-5,-1,0,0,6,-2
1532295192246,-1,-3,11,0,0,-3,-7,-2
1532295192251,0,-1,-8,-4,-5,-1,3,0
1532295192256,-2,0,2,-1,-1,-1,-1,0
1532295192261,-2,-2,-1,1,2,-2,-9,-2
1532295192266,-1,-2,1,1,1,1,3,0
1532295192271,0,-1,1,0,-1,0,-5,1
1532295192276,-1,2,3,-1,-5,-7,-7,-1
1532295192281,0,0,-8,-1,0,-2,3,1
1532295192286,-1,0,0,0,6,5,2,-2
1532295192291,0,-2,-2,-2,-2,-4,-9,-2
1532295192296,0,-1,0,0,0,2,2,1
1532295192301,0,-1,1,-2,-3,-17,-2,0
1532295192306,0,1,-2,0,-2,13,8,0
1532295192311,-2,0,2,0,5,7,-6,1
1532295192316,-2,-1,1,-2,-8,-8,3,0
1532295192321,0,-1,3,1,0,3,0,0
1532295192326,1,-2,-20,-6,-5,-4,4,-1
1532295192331,0,-2,-6,0,2,0,4,1
1532295192336,1,-1,5,2,5,0,-4,-1
1532295192341,-1,0,-7,-1,-1,0,-3,-3
1532295192346,-1,-1,7,1,-6,-7,-3,-1
1532295192351,-2,-2,0,-3,-3,5,5,0
1532295192356,0,-1,-5,-1,0,-5,-6,1
1532295192361,-2,-1,3,0,0,2,2,-1
1532295192366,1,0,1,2,3,-3,-9,0
1532295192371,-1,-1,-1,1,2,-4,-2,1
1532295192376,-1,-2,1,-6,-6,1,3,1
1532295192381,-2,-1,-3,-2,2,2,-9,0
1532295192386,0,-3,-1,-1,-1,3,13,0
1532295192391,0,0,2,1,-2,-2,1,-3
1532295192396,-1,-1,2,4,4,3,4,-4
1532295192401,1,-1,-2,-2,-8,0,-1,-3
1532295192406,-1,2,-2,-2,1,-8,-17,-2
1532295192411,-2,-1,3,1,4,-3,1,0
1532295192416,-1,-1,-5,-6,-6,0,-2,-1
1532295192421,-1,1,-2,-2,1,2,4,1
1532295192426,1,0,5,3,0,-1,1,0
1532295192431,0,-2,0,-2,-1,-2,0,0
1532295192436,-2,-1,0,-1,-4,0,1,-1
1532295192441,-3,-1,-3,0,1,-6,-4,-1
1532295192446,0,1,1,-2,-2,0,-1,0
1532295192451,-1,0,3,1,0,0,-11,-2
1532295192456,-1,0,-4,1,4,8,32,-2
1532295192461,0,-1,1,-2,-4,-7,-17,-2
1532295192466,-2,-1,2,-1,-3,1,4,0
1532295192471,0,-1,1,-5,-3,-2,-2,1
1532295192476,-1,-2,-3,2,3,-1,-5,0
1532295192481,-2,-2,-4,1,-2,4,5,0
1532295192486,-2,0,-3,-3,0,-5,-6,-2
1532295192491,2,-2,-5,-2,-2,-1,4,-1
1532295192496,-1,1,3,0,-3,-4,-6,-2
1532295192501,1,-1,1,0,3,0,9,-1
1532295192506,-1,-1,-4,-2,-2,2,-4,-1
1532295192511,-4,0,-2,-2,-2,-3,-1,-2
1532295192516,0,-1,1,0,-2,-1,-8,-1
1532295192521,0,0,-1,-1,0,5,12,1
1532295192526,0,-1,0,2,1,0,2,0
1532295192531,-2,0,-4,-5,-2,3,-1,-2
1532295192536,0,-1,0,-1,0,-6,-6,0
1532295192541,-1,0,1,3,1,1,-4,-1
1532295192546,-1,-2,-2,-4,-3,4,6,0
1532295192551,0,0,-2,-1,0,-3,-9,1
1532295192556,-1,-1,-2,-2,1,-1,-4,-3
1532295192561,-2,-1,-2,-3,-4,0,1,0
1532295192566,0,-1,1,3,4,0,1,-1
1532295192571,1,0,1,1,-2,-4,-6,-2
1532295192576,0,-1,-5,-2,2,1,11,0
1532295192581,0,0,1,1,1,3,0,0
1532295192586,-2,-1,-4,-2,-4,0,-1,2
1532295192591,-1,-2,-2,-1,-5,-2,0,1
1532295192596,-2,0,4,1,-1,-3,-2,-1
1532295192601,-1,-1,-3,1,1,-3,-4,1
1532295192606,0,0,4,0,-3,-2,-3,-1
1532295192611,-2,-2,-4,-5,-1,0,3,-2
1532295192616,-2,-3,-6,1,3,-1,-7,0
1532295192621,0,-1,0,-3,-3,-1,0,-1
1532295192626,-1,-2,-5,-1,3,-2,-4,-1
1532295192631,0,1,-8,3,-2,-1,0,-1
1532295192636,1,0,-8,-3,1,1,2,1
1532295192641,-2,0,1,-1,0,1,-3,0
1532295192646,0,-1,-3,-1,-1,-3,-3,-3
1532295192651,0,0,32,5,-1,0,3,0
1532295192656,0,-2,-24,-10,-5,-1,-3,-1
1532295192661,1,-1,0,-1,-2,0,-2,-2
1532295192666,-1,-1,8,-1,2,0,-1,-1
1532295192671,-1,-3,-8,0,-1,1,1,0
1532295192676,0,0,10,3,-1,0,-1,0
1532295192681,-1,-1,1,-3,-6,-6,-9,-2
1532295192686,-1,-1,-6,-4,-3,-3,-2,-2
1532295192691,1,1,-1,1,2,2,4,0
1532295192696,-2,0,1,-3,-1,-2,-2,-2
1532295192701,0,-2,-5,-2,2,2,7,0
1532295192706,-2,-2,1,0,-4,-1,0,-1
1532295192711,0,-1,-6,-4,3,-3,-8,-1
1532295192716,-2,0,5,2,-1,1,0,-1
1532295192721,0,-1,4,0,-2,-4,-6,-3
1532295192726,-1,-2,0,3,2,1,1,0
1532295192731,0,0,-5,-6,-2,-2,0,1
1532295192736,0,-1,1,1,-3,-1,-4,-1
1532295192741,-1,-1,-3,0,0,0,0,-2
1532295192746,2,2,-4,-4,-1,-2,1,1
1532295192751,-2,-3,5,0,-2,-1,0,-2
1532295192756,0,-1,-14,3,-1,1,0,-1
1532295192761,0,-1,-3,0,1,-4,-5,-1
1532295192766,-2,-2,1,-2,-2,-1,-1,-2
1532295192771,-2,0,-2,0,2,0,-2,2
1532295192776,-1,-1,11,2,-1,-1,-1,-1
1532295192781,-2,0,0,1,1,2,-1,0
1532295192786,1,-2,-5,-4,1,-1,-1,-1
1532295192791,0,0,-2,-3,-5,0,3,0
1532295192796,-1,-2,4,0,0,-5,-7,-1
1532295192801,-1,-2,-2,-1,-2,-2,5,0
1532295192806,-2,-1,-2,3,3,-1,-3,-1
1532295192811,0,1,-4,2,1,3,2,0
1532295192816,1,-1,3,0,-1,1,-4,1
1532295192821,-1,-1,-3,-6,0,0,-2,-1
1532295192826,-2,-1,1,-2,-7,-7,-9,1
1532295192831,0,0,-2,-1,-1,-2,0,-2
1532295192836,-1,1,-2,1,3,0,2,0
1532295192841,0,0,3,0,-3,0,1,-2
1532295192846,-1,-1,-1,-1,0,1,0,-1
1532295192851,-2,-1,-5,1,1,-3,-5,-2
1532295192856,-2,-2,4,-2,-3,-1,1,-3
1532295192861,0,1,-4,-2,-2,-2,-8,3
1532295192866,-2,-1,-2,-1,-1,1,-1,-4
1532295192871,2,1,4,2,2,2,6,0
1532295192876,-1,-1,0,-3,0,1,4,-1
1532295192881,-1,-3,-1,1,0,1,1,-3
1532295192886,-1,-1,2,1,2,-1,-2,1
1532295192891,-1,-2,-10,-5,-4,-3,-1,-3
1532295192896,0,1,2,2,1,3,10,2
1532295192901,-1,0,1,3,0,-1,-4,-1
1532295192906,-2,-3,-2,-1,-1,-1,0,-1
1532295192911,0,0,-2,1,2,2,6,3
1532295192916,0,1,2,0,-3,1,-4,-1
1532295192921,-1,-4,-4,-3,0,-11,-8,-1
1532295192926,-1,0,-5,-7,-4,-2,5,0
1532295192931,-2,-2,3,-1,-2,-1,-5,-2
1532295192936,2,-1,-1,-3,-1,7,16,-2
1532295192941,-1,0,-1,0,-2,2,-4,-1
1532295192946,-2,-2,0,2,3,-2,-7,-3
1532295192951,-2,0,-2,0,0,0,0,0
1532295192956,-3,0,2,0,-1,-6,-6,-5
1532295192961,-1,-1,-7,-4,0,4,1,-1
1532295192966,2,-1,0,-2,-4,-3,-2,3
1532295192971,-1,1,0,-1,0,0,1,0
1532295192976,-2,-3,-4,-2,0,0,-2,2
1532295192981,-2,-2,0,-1,-1,4,8,-2
1532295192986,-1,0,6,3,0,-2,-15,-3
1532295192991,-1,-2,-18,-2,0,-7,-6,-2
1532295192996,-1,0,0,-4,-4,-3,-2,-1
1532295193001,-4,-1,-2,0,-2,-1,-1,-2
1532295193006,-1,0,3,-2,-1,4,6,-1
1532295193011,0,-2,3,3,1,4,2,1
1532295193016,0,-2,-3,1,0,-6,-8,0
1532295193021,1,-1,13,3,3,-2,-4,1
1532295193026,-1,1,-9,-1,3,3,-2,-2
1532295193031,0,0,3,-2,-4,-3,-5,-3
1532295193036,-1,1,7,-4,-5,-1,5,0
1532295193041,-3,-2,-19,1,-3,0,0,-2
1532295193046,1,-3,-3,-3,0,-1,-3,0
1532295193051,-2,-1,0,-3,0,-1,-1,-2
1532295193056,1,-1,-4,3,1,2,-2,4
1532295193061,0,0,12,1,0,-4,-6,-4
1532295193066,-1,-1,2,2,-1,4,14,-2
1532295193071,0,0,-9,-6,-3,1,2,0
1532295193076,0,-2,8,0,1,1,-4,-1
1532295193081,-1,0,-8,-2,1,0,2,2
1532295193086,-2,-2,-5,-3,0,-3,-1,0
1532295193091,0,0,7,0,-2,-1,-2,0
1532295193096,0,-1,20,4,1,-3,0,-1
1532295193101,0,-1,-23,-5,1,1,2,-1
1532295193106,0,-1,1,-3,-1,-3,-5,0
1532295193111,-1,-3,0,-1,-5,2,7,-2
1532295193116,0,-1,-6,-4,-2,-1,-5,-2
1532295193121,-1,-2,7,2,0,-3,-4,1
1532295193126,-1,0,1,3,-1,-2,4,2
1532295193131,0,-1,-1,-2,-1,-3,-2,-2
1532295193136,-1,-2,-12,-3,-2,2,1,-1
1532295193141,0,-1,7,0,0,4,-1,0
1532295193146,-2,-1,-1,-1,0,-7,-6,-2
1532295193151,0,0,1,0,-1,2,1,-2
1532295193156,-4,-1,-5,-2,0,0,2,-2
1532295193161,-1,0,2,-1,-2,-2,1,-1
1532295193166,-1,-1,0,0,-2,4,4,-1
1532295193171,0,-1,6,0,1,-2,-10,1
1532295193176,0,-1,-11,0,1,-4,-4,-2
1532295193181,0,-1,3,0,-5,-2,1,-1
1532295193186,-1,-1,-3,-3,-3,-1,-2,0
1532295193191,-1,-1,-2,1,2,0,2,0
1532295193196,1,-1,-2,0,-1,1,-2,-2
1532295193201,1,-1,1,0,2,0,-1,-2
1532295193206,0,0,-1,0,-2,2,3,-3
1532295193211,-2,-1,0,-1,-1,-1,-3,1
1532295193216,-2,-2,-4,-2,0,-4,-3,-1
1532295193221,-2,-2,-1,-2,-8,-3,-1,-1
1532295193226,2,-2,3,0,-2,-2,-1,0
1532295193231,1,0,-4,-1,2,0,2,1
1532295193236,-1,-1,-1,1,2,-2,-3,0
1532295193241,0,-1,2,-1,2,0,1,3
1532295193246,-1,0,-1,0,1,-2,-4,-2
1532295193251,0,-1,0,1,1,4,-1,-2
1532295193256,1,-2,-2,-4,-4,-3,1,-2
1532295193261,-3,0,1,-3,0,12,2,0
1532295193266,-2,-2,-1,0,1,-1,-5,-1
1532295193271,1,1,-2,2,3,2,2,0
1532295193276,-2,-1,-4,-2,-1,-1,-3,0
1532295193281,0,-3,-1,-3,-1,-6,-2,-4
1532295193286,-2,0,2,0,-3,-5,-5,0
1532295193291,-3,-2,0,0,-2,-1,-4,-2
1532295193296,-3,-1,-2,0,-3,2,1,-1
1532295193301,-1,-1,-4,-3,1,-1,-1,-1
1532295193306,-4,1,-3,-3,-4,-1,3,0
1532295193311,4,-2,-4,-2,-4,-5,-3,-1
1532295193316,3,2,3,1,-2,-2,-2,0
1532295193321,0,-2,1,2,3,3,-1,-2
1532295193326,1,0,2,3,-1,5,3,1
1532295193331,-4,-1,-1,-4,-2,-2,0,-2
1532295193336,-2,0,-1,0,0,1,0,0
1532295193341,0,0,2,1,0,-6,-2,-3
1532295193346,-2,0,-4,-3,0,-3,-4,-1
1532295193351,0,1,3,1,0,3,6,1
1532295193356,-2,-2,-3,0,4,-1,-2,1
1532295193361,0,0,0,-3,-7,-1,-4,2
1532295193366,0,-2,-2,-3,-1,2,10,0
1532295193371,-2,-1,0,-1,0,-2,-3,-1
1532295193376,1,-1,-1,0,0,-1,1,0
1532295193381,-1,1,5,0,4,-1,-3,0
1532295193386,3,-3,-11,-1,-3,0,-3,-3
1532295193391,-3,1,2,-3,-4,-2,0,-5
1532295193396,0,-1,1,0,1,1,1,1
1532295193401,0,-2,-5,-2,-5,-3,2,-2
1532295193406,-1,0,2,-1,-2,-6,-11,-1
1532295193411,2,-2,-1,0,1,0,2,-1
1532295193416,-1,0,1,2,2,2,-1,0
1532295193421,-2,-2,-3,-4,-1,-8,-3,0
1532295193426,0,-1,1,-1,0,7,2,-1
1532295193431,-9,0,-1,1,0,5,0,0
1532295193436,7,-1,2,4,3,6,5,1
1532295193441,-3,-1,-4,-4,-6,-7,-8,-1
1532295193446,-1,-2,5,-1,0,-3,3,1
1532295193451,-1,-3,-16,-2,-3,-4,-4,0
1532295193456,-4,-1,0,-5,-5,-6,-2,-1
1532295193461,-1,0,-1,2,-1,1,7,-1
1532295193466,1,1,0,-1,4,5,-3,1
1532295193471,-1,-2,5,-2,-1,-6,-4,-2
1532295193476,6,4,-4,0,-2,2,14,-1
1532295193481,-6,-3,0,1,2,-1,-5,0
1532295193486,-2,0,-3,-2,-1,-3,-2,0
1532295193491,1,0,0,2,-1,-2,2,2
1532295193496,-3,-2,-4,-6,-4,0,-5,1
1532295193501,3,2,4,-1,3,0,1,1
1532295193506,-1,0,-1,0,-4,-1,4,-3
1532295193511,-2,-3,-15,-6,-2,-3,-7,-2
1532295193516,0,-1,-2,0,-3,-2,-3,-2
1532295193521,-2,-1,-1,5,1,2,4,1
1532295193526,0,-1,3,-2,2,-4,-5,0
1532295193531,2,0,-4,-1,1,-3,1,-1
1532295193536,-7,0,1,-1,-2,4,-2,-2
1532295193541,1,-2,1,-1,-1,0,-1,0
1532295193546,-1,-1,-3,-6,-5,-6,-5,-4
1532295193551,0,-1,3,-2,-5,-2,1,-3
1532295193556,-1,-1,-3,0,2,6,1,-2
1532295193561,-1,-2,3,4,1,0,-2,1
1532295193566,0,-1,-2,4,6,1,-1,2
1532295193571,1,1,-1,-1,-2,-2,0,0
1532295193576,-3,-3,3,1,1,-7,-5,-2
1532295193581,0,-1,-8,-5,-3,1,1,0
1532295193586,-1,-3,-2,-1,1,0,-2,-2
1532295193591,-2,1,7,0,2,0,0,-1
1532295193596,-2,0,0,3,3,-1,-4,-2
1532295193601,0,-1,-2,-1,-4,-6,-2,1
1532295193606,-2,-1,-6,-2,-4,4,2,-1
1532295193611,1,-1,3,3,2,3,1,2
1532295193616,-1,-3,-1,-1,-1,1,0,1
1532295193621,-1,-1,-2,-5,-3,-19,-11,-2
1532295193626,-2,-2,21,2,-1,11,1,0
1532295193631,1,-1,-23,-3,1,1,0,-1
1532295193636,-2,1,2,2,3,1,3,-2
1532295193641,-1,-3,-2,3,1,-1,0,-1
1532295193646,-1,0,0,-3,-7,-9,-3,-1
1532295193651,-2,0,5,-2,0,1,0,2
1532295193656,-2,-3,0,-2,-7,-5,-4,0
1532295193661,1,1,-3,0,0,8,2,-1
1532295193666,2,1,-2,2,4,-1,13,1
1532295193671,-2,-3,5,0,-2,-3,-2,0
1532295193676,-1,-1,-7,-4,-2,-2,6,-2
1532295193681,1,1,6,2,0,6,0,10
1532295193686,-4,-11,-3,-1,2,-1,-4,-10
1532295193691,2,4,-1,-2,0,-2,3,-1
1532295193696,1,1,7,0,1,-10,-17,-1
1532295193701,-1,3,-5,-1,-1,4,5,-1
1532295193706,-1,-5,-6,-6,-5,-4,1,2
1532295193711,-1,-3,3,-2,-6,-2,-7,-2
1532295193716,-1,-2,-3,-3,-8,-18,2,0
1532295193721,-2,0,0,-1,2,14,6,-1
1532295193726,1,4,-3,3,7,16,-1,4
1532295193731,-1,-4,2,1,1,-5,-5,-6
1532295193736,1,8,5,3,4,5,4,3
1532295193741,-1,-4,-2,-2,-3,-8,-3,-3
1532295193746,-1,1,-5,-5,-8,-7,-3,-2
1532295193751,-2,0,4,1,-3,1,4,0
1532295193756,0,-3,-6,-2,-2,4,1,-2
1532295193761,-1,-1,-1,0,3,3,-3,-3
1532295193766,-1,-1,-3,-1,-3,-11,-4,3
1532295193771,-1,-1,0,1,2,7,8,-1
1532295193776,-2,-2,-3,-2,-1,-1,-5,-4
1532295193781,0,-2,2,1,1,0,0,-3
1532295193786,-1,1,-4,-2,-1,-4,2,2
1532295193791,-1,-1,-2,-5,-3,-1,-2,-2
1532295193796,-1,-2,-3,-1,1,3,-2,3
1532295193801,-1,-1,-1,-2,-2,-3,0,-3
1532295193806,0,1,3,3,2,-1,-2,-2
1532295193811,-1,-1,-1,-2,-5,-2,2,2
1532295193816,-2,-1,4,-4,-1,3,-4,-1
1532295193821,2,0,-8,-4,-6,-8,-4,-2
1532295193826,0,0,0,2,2,10,5,-2
1532295193831,-1,1,4,1,2,4,-5,0
1532295193836,0,-1,-5,0,0,-6,5,-1
1532295193841,-1,-2,2,-2,3,-2,-2,-4
1532295193846,0,-1,-2,-1,-5,-9,-4,0
1532295193851,-1,-2,-3,1,2,6,2,-1
1532295193856,0,-4,0,0,-1,2,-4,-1
1532295193861,0,1,2,-2,1,0,1,-1
1532295193866,-1,-2,-6,-3,0,0,3,-1
1532295193871,-1,-2,-1,-1,-2,-7,-9,-1
1532295193876,0,-3,-1,-1,-4,-5,-5,0
1532295193881,1,-2,-1,-1,-2,-9,2,-1
1532295193886,-1,0,0,-1,-1,14,-1,1
1532295193891,1,-1,0,-1,2,-3,-1,0
1532295193896,0,-1,-4,-2,-2,2,0,-2
1532295193901,-3,1,1,2,1,3,2,1
1532295193906,2,-1,-1,2,-1,-6,-4,-1
1532295193911,0,3,6,0,0,1,3,0
1532295193916,0,-1,-5,3,2,-2,-2,0
1532295193921,-2,-3,-3,-4,-4,1,2,0
1532295193926,-1,1,1,1,1,-9,-8,-3
1532295193931,0,-1,-2,-2,-2,-2,2,0
1532295193936,-5,-1,5,0,1,1,12,-2
1532295193941,9,2,-2,0,-3,4,-9,-6
1532295193946,-6,3,0,0,1,0,-9,-2
1532295193951,-11,-7,-3,-1,-3,-2,7,0
1532295193956,-1,-2,0,-3,-7,-4,3,-2
1532295193961,-4,-2,4,0,0,8,-3,5
1532295193966,3,3,-6,-3,1,-7,-5,-3
1532295193971,4,2,-4,1,0,0,-6,0
1532295193976,-2,-2,-2,-3,0,-6,0,2
1532295193981,-1,-1,-2,-4,-4,1,2,-1
1532295193986,2,-1,3,1,0,2,3,3
1532295193991,-2,1,6,3,3,-6,-7,-5
1532295193996,1,-2,-9,-2,-1,9,1,2
1532295194001,-2,1,2,-1,-1,0,2,0
1532295194006,0,-2,-2,0,0,-4,-3,-5
1532295194011,0,-2,-3,-2,-3,-1,3,-1
1532295194016,1,2,5,2,0,2,3,-1
1532295194021,-1,-1,-2,-2,0,2,-1,-1
1532295194026,-7,-4,-3,-2,-1,-5,-13,-4
1532295194031,8,1,0,1,-1,-6,0,-4
1532295194036,-2,0,-4,-4,-5,-4,-4,2
1532295194041,-3,-5,-4,-1,-5,-6,4,-11
1532295194046,-4,0,2,-3,-2,4,7,15
1532295194051,0,0,-1,0,3,11,0,1
1532295194056,10,8,3,3,2,4,-9,0
1532295194061,3,4,28,7,3,-24,-1,20
1532295194066,-13,-7,-36,-5,0,-1,-20,-33
1532295194071,-8,-1,2,-3,-4,-4,-1,-1
1532295194076,-6,-3,0,-2,-1,6,9,-2
1532295194081,4,2,-1,-2,1,8,2,-1
1532295194086,9,-2,13,1,-1,3,11,10
1532295194091,1,5,0,3,0,-7,-7,2
1532295194096,7,-1,-8,-3,0,-4,-1,-6
1532295194101,-1,0,-1,0,-2,-2,-3,3
1532295194106,3,3,4,0,-2,-2,13,9
1532295194111,-2,-3,-8,-2,1,6,-11,-3
1532295194116,-2,0,13,4,2,0,-1,5
1532295194121,-4,-6,-14,-3,-5,-3,-13,-6
1532295194126,0,-4,3,-3,-1,3,31,6
1532295194131,0,2,4,-3,-3,-7,-45,-5
1532295194136,0,-9,5,6,5,-1,42,10
1532295194141,2,-3,-17,-1,6,4,-4,-3
1532295194146,-9,-1,-10,-6,-5,-2,-25,-10
1532295194151,1,-3,5,2,1,-2,-7,-4
1532295194156,-2,5,-6,-4,-4,-4,-4,6
1532295194161,-4,-2,8,4,0,-6,24,1
1532295194166,0,-1,-2,1,-2,-8,-37,-2
1532295194171,-8,-3,1,-2,-3,-3,-12,-2
1532295194176,4,1,5,7,5,10,33,3
1532295194181,0,-5,-6,-3,-4,1,16,-2
1532295194186,2,-2,-4,-7,0,4,24,7
1532295194191,-4,-2,-3,-3,-6,-13,-37,-26
1532295194196,5,1,5,4,1,3,23,-2
1532295194201,3,-1,-4,-1,3,-1,-1,-2
1532295194206,-5,-1,-3,-3,-9,-5,-7,-5
1532295194211,-4,1,-1,-4,1,0,-21,0
1532295194216,4,-3,2,1,-5,-6,15,7
1532295194221,-3,1,6,2,-1,2,-9,-15
1532295194226,0,-2,-15,2,5,2,-3,0
1532295194231,2,-2,0,1,1,7,3,2
1532295194236,0,-1,2,1,-2,-2,2,-3
1532295194241,0,0,2,2,2,-2,2,8
1532295194246,2,1,-3,-4,-1,-5,-3,-2
1532295194251,-8,1,-3,-3,-4,13,2,-7
1532295194256,-14,-7,-2,-1,-1,-19,-15,5
1532295194261,0,-2,2,0,2,7,23,12
1532295194266,-6,-4,-19,-6,-8,-1,-8,3
1532295194271,8,-1,2,-2,-2,-7,12,3
1532295194276,1,-2,-2,-2,-3,9,-8,-15
1532295194281,-13,1,7,0,0,-25,-24,-10
1532295194286,1,1,11,5,6,12,21,0
1532295194291,0,-2,-8,0,-1,0,-1,6
1532295194296,5,-6,0,-3,-1,2,5,6
1532295194301,1,-1,-7,-1,-3,0,9,3
1532295194306,-3,-1,4,1,1,1,-8,-10
1532295194311,-4,-1,1,-3,-2,-1,-2,5
1532295194316,-3,2,1,0,0,-10,-39,-6
1532295194321,5,-1,-4,2,1,18,87,8
1532295194326,3,0,3,1,2,-6,-13,-8
1532295194331,-1,2,-1,-4,-2,-1,0,-1
1532295194336,1,-8,-1,1,1,-6,-6,1
1532295194341,2,0,-7,-4,-5,-3,-8,3
1532295194346,-3,-6,5,1,3,3,0,-11
1532295194351,1,-4,-4,0,-2,3,22,12
1532295194356,-1,3,7,0,2,1,-9,-16
1532295194361,15,1,-21,0,-3,-15,-5,3
1532295194366,-21,-3,1,-3,-2,-1,-14,-5
1532295194371,1,-1,2,2,5,3,1,-1
1532295194376,1,3,-1,-1,-2,4,7,4
1532295194381,-2,-1,5,-1,-1,7,-8,0
1532295194386,6,1,2,3,2,1,-7,3
1532295194391,0,-1,-1,1,3,1,24,3
1532295194396,-3,-3,-3,-5,-2,-2,0,-2
1532295194401,-1,-4,-6,-1,-5,-9,-42,-2
1532295194406,1,-1,-1,-3,-3,25,49,4
1532295194411,-4,-1,2,3,-4,-27,-28,-2
1532295194416,5,3,-1,-2,3,0,10,7
1532295194421,-5,-1,-1,-1,2,7,-9,-4
1532295194426,-2,-2,-5,-4,-5,5,-2,-6
1532295194431,1,-2,9,-1,3,-18,-27,-9
1532295194436,4,3,-12,-2,-6,29,23,5
1532295194441,-2,-3,26,3,0,0,5,-3
1532295194446,5,1,-20,3,2,-20,-7,5
1532295194451,-8,-3,1,-1,0,7,-3,-4
1532295194456,-1,-1,0,0,6,0,-5,1
1532295194461,-2,-1,-3,-8,-2,4,8,4
1532295194466,7,3,13,4,1,3,15,-2
1532295194471,-5,-5,-2,1,-6,3,4,0
1532295194476,3,-3,-5,-1,2,-24,0,0
1532295194481,-6,-5,15,-6,-6,9,1,-2
1532295194486,-7,0,-11,1,-2,-8,-8,2
1532295194491,1,-2,-14,-8,-5,2,-3,2
1532295194496,1,2,8,8,3,11,1,1
1532295194501,3,2,-3,5,4,-51,-25,-1
1532295194506,1,-5,-8,-6,11,18,-1,-1
1532295194511,0,1,10,0,-10,20,28,4
1532295194516,-2,-4,15,8,8,25,1,-1
1532295194521,1,1,-26,-13,1,-1,-6,0
1532295194526,0,-2,-10,-6,-18,-21,-16,-1
1532295194531,-4,-2,-12,-4,3,10,8,-5
1532295194536,-3,1,4,1,-5,-17,-6,2
1532295194541,-3,-1,7,10,15,13,5,-5
1532295194546,-3,-3,1,4,-8,1,0,2
1532295194551,6,2,-1,-5,3,-15,-8,3
1532295194556,-1,-3,-10,-11,-14,-4,-1,-2
1532295194561,-1,-1,2,3,-1,6,6,-3
1532295194566,-1,-1,1,-5,1,-5,-10,-3
1532295194571,1,0,5,7,-1,-2,-13,-3
1532295194576,-3,-5,2,4,16,12,11,-3
1532295194581,-4,-3,-15,-5,-7,24,4,2
1532295194586,3,-1,11,-1,-6,-19,-9,-5
1532295194591,1,2,3,-1,0,13,6,5
1532295194596,-3,1,-10,-3,2,-16,-11,-1
1532295194601,1,0,11,7,3,12,12,0
1532295194606,-3,1,-7,-8,-5,-6,-23,2
1532295194611,3,1,20,9,10,46,33,-2
1532295194616,-1,-3,-3,-7,8,16,-6,1
1532295194621,-7,-12,-11,-10,-19,-26,-19,-5
1532295194626,-5,-19,-1,2,-3,25,20,-2
1532295194631,5,26,14,0,2,-18,-7,1
1532295194636,3,8,9,4,-8,-24,-3,1
1532295194641,1,7,-5,6,6,37,-1,-4
1532295194646,-1,1,10,3,10,-29,-5,1
1532295194651,-6,-16,-16,-11,-13,1,-17,-3
1532295194656,0,-4,-3,-3,-8,10,30,1
1532295194661,-4,-5,-6,-4,4,-12,-14,-4
1532295194666,-3,-2,3,2,4,-3,3,-2
1532295194671,-4,-4,-8,4,17,5,4,-3
1532295194676,3,8,4,-3,-12,-16,-14,5
1532295194681,10,7,5,-7,-19,-63,4,4
1532295194686,1,5,4,-5,-20,11,12,1
1532295194691,-2,-10,-10,-1,3,-3,-18,-3
1532295194696,-3,-5,2,5,11,17,-3,-3
1532295194701,0,9,2,2,12,8,0,1
1532295194706,2,5,4,-1,-1,-10,-6,-1
1532295194711,-1,1,-3,1,-3,-22,-1,-3
1532295194716,4,-4,-6,-5,2,-37,-1,-6
1532295194721,-3,-6,-4,-5,-19,10,0,8
1532295194726,-6,1,-2,2,27,5,-16,-11
1532295194731,1,-3,-2,-1,-28,-3,8,5
1532295194736,0,-6,-4,-1,11,-4,-6,-3
1532295194741,6,6,-4,1,18,27,1,-2
1532295194746,1,4,-3,3,-7,22,2,-1
1532295194751,-2,-3,-2,1,1,-25,8,-2
1532295194756,0,1,0,3,0,-30,-15,-5
1532295194761,-11,-8,-8,-7,-10,43,2,-2
1532295194766,-4,-5,-10,-5,-14,-22,-12,5
1532295194771,4,11,20,3,12,2,18,0
1532295194776,1,0,-1,-4,-12,29,-8,1
1532295194781,4,-1,3,7,10,-10,1,-1
1532295194786,-4,-12,-3,0,3,-5,-1,-2
1532295194791,4,9,-8,-4,7,-2,-10,4
1532295194796,-3,3,2,-6,-12,8,2,-1
1532295194801,-3,-3,-2,1,4,-12,1,-5
1532295194806,3,1,4,6,4,-14,-6,4
1532295194811,-4,-3,0,-6,-12,21,3,-3
1532295194816,-2,0,-2,-4,6,17,2,0
1532295194821,-1,-1,0,-2,-28,-28,-7,-7
1532295194826,-3,6,2,-2,2,-9,3,-2
1532295194831,-11,-9,-6,3,23,18,-6,-6
1532295194836,-4,-3,-3,-2,-17,-24,-5,-3
1532295194841,0,-2,2,-2,3,-6,6,0
1532295194846,3,1,0,-3,-3,-8,3,4
1532295194851,1,-3,-5,-6,-3,-1,1,-1
1532295194856,0,-1,-2,0,-2,0,-4,1
1532295194861,-2,-3,0,0,7,-2,-4,-1
1532295194866,-3,-1,6,-2,8,12,6,-3
1532295194871,0,3,-16,-1,-10,-2,3,4
1532295194876,-1,-2,3,0,1,-3,2,2
1532295194881,-1,1,0,1,3,-6,-4,0
1532295194886,2,-1,0,1,12,23,-6,-1
1532295194891,-2,-5,-2,-4,-19,-18,8,-6
1532295194896,0,0,-1,3,3,7,0,2
1532295194901,0,2,-1,-7,-9,-12,-2,1
1532295194906,2,-1,-1,-5,-6,10,-1,0
1532295194911,-1,-1,3,3,3,-10,-5,0
1532295194916,-3,-1,-1,2,3,5,3,-2
1532295194921,-1,-1,1,4,15,16,1,1
1532295194926,1,-1,-1,-2,-3,3,1,-3
1532295194931,3,-3,-1,1,7,-9,-6,1
1532295194936,-1,0,-2,-3,-13,4,4,2
1532295194941,-5,-4,-1,0,2,0,-2,-2
1532295194946,5,2,-2,-1,-4,-13,1,0
1532295194951,-1,1,2,1,4,-1,-3,0
1532295194956,2,-1,-1,2,4,30,6,0
1532295194961,-3,1,0,3,0,-13,-4,0
1532295194966,-2,-1,-1,-2,-7,-5,3,-2
1532295194971,0,-2,-5,0,5,2,-4,-1
1532295194976,0,-4,-4,-5,6,-6,1,-2
1532295194981,-3,-3,-2,-8,-27,-13,1,1
1532295194986,3,3,1,4,5,4,0,1
1532295194991,-10,-2,-1,-1,-1,-2,-6,-6
1532295194996,0,0,1,6,-10,-5,-2,0
1532295195001,1,-1,-2,1,25,13,12,-1
1532295195006,-1,-2,0,-2,7,0,-2,0
1532295195011,0,-2,-1,-5,-14,0,1,-2
1532295195016,-7,-2,-3,-2,-6,-7,-3,0
1532295195021,1,-1,1,0,-1,1,-1,0
1532295195026,-3,1,-2,1,-3,1,0,2
1532295195031,1,-2,-1,0,7,-1,-4,0
1532295195036,-1,-2,-4,-7,2,-6,-3,-3
1532295195041,2,-1,0,0,-11,0,-1,-1
1532295195046,-2,-1,-1,-1,-1,0,4,-2
1532295195051,-2,-2,-1,1,-6,-3,-3,0
1532295195056,3,1,0,-1,2,-4,1,0
1532295195061,-1,-1,-1,2,4,3,-2,1
1532295195066,-6,2,1,4,-1,2,1,1
1532295195071,4,0,-3,-3,11,1,3,0
1532295195076,-8,-3,-4,-4,6,-11,-5,-3
1532295195081,0,-1,-1,-3,-5,1,-3,-2
1532295195086,-2,-2,-3,-5,-14,-5,-1,0
1532295195091,-2,-1,1,2,0,3,1,0
1532295195096,8,2,1,-1,8,1,-2,1
1532295195101,1,0,-2,-2,-6,-7,-13,-3
1532295195106,1,-1,-1,2,-5,2,4,0
1532295195111,-3,-2,-2,-3,4,1,6,0
1532295195116,-2,0,1,1,-6,-4,10,1
1532295195121,3,4,2,7,1,-6,-12,0
1532295195126,-9,-5,-5,-6,16,13,10,-2
1532295195131,-4,-3,-3,-7,-11,7,-12,-4
1532295195136,-3,-2,-1,1,-13,-10,5,-4
1532295195141,-1,-1,-1,0,-3,-2,-12,1
1532295195146,5,2,0,2,0,-2,16,-1
1532295195151,2,0,1,1,2,-3,-9,3
1532295195156,-3,-3,-1,-1,6,8,-12,-1
1532295195161,1,-1,0,-1,-3,8,3,-1
1532295195166,1,4,0,-1,6,-10,2,2
1532295195171,-2,-2,-2,-8,-15,1,4,-1
1532295195176,8,4,3,-1,-7,-1,-2,2
1532295195181,-11,-4,-1,1,4,1,0,-2
1532295195186,-3,-4,2,3,-5,2,-9,-4
1532295195191,0,-1,-1,1,-3,-4,2,-1
1532295195196,1,-2,-3,0,6,3,-1,-1
1532295195201,2,-1,-5,-5,-6,-7,4,-1
1532295195206,0,-1,-1,-5,-2,2,6,1
1532295195211,2,1,2,1,0,-3,1,0
1532295195216,-3,1,1,0,0,5,-2,3
1532295195221,-1,1,1,-1,0,-1,3,2
1532295195226,-1,-1,-1,-4,0,-4,-13,-1
1532295195231,0,-1,-2,4,18,7,-1,-2
1532295195236,-1,-1,-1,-4,-24,-17,3,-2
1532295195241,0,1,0,0,1,-10,4,1
1532295195246,5,-2,-1,-2,9,-1,-7,-2
1532295195251,0,-2,-2,-3,-9,-2,2,2
1532295195256,-5,-4,-1,-2,1,7,-5,-3
1532295195261,4,0,-1,-3,0,1,3,-3
1532295195266,-2,-2,-1,0,-2,0,0,0
1532295195271,-1,-1,1,0,-6,-7,0,2
1532295195276,1,-1,-3,2,9,0,-2,-1
1532295195281,2,-4,-2,-2,-7,0,1,1
1532295195286,-2,-2,0,3,3,3,2,1
1532295195291,0,1,-3,1,1,-2,-1,0
1532295195296,1,-1,-2,-2,-12,-4,-3,1
1532295195301,-1,0,-1,1,0,5,1,-2
1532295195306,-2,-1,1,1,4,-2,5,1
1532295195311,-2,-2,-1,-3,13,8,-10,-1
1532295195316,-3,-1,-2,4,7,-14,3,-1
1532295195321,-2,0,-1,-6,-30,-5,-3,0
1532295195326,5,0,-3,-5,-5,0,2,1
1532295195331,-8,-1,-1,-1,5,5,2,1
1532295195336,1,-3,-3,1,-5,2,-1,-1
1532295195341,0,-1,-2,2,9,7,-4,-1
1532295195346,-4,-3,-2,-3,-17,-18,3,-2
1532295195351,0,-1,-2,0,6,-18,1,-3
1532295195356,-5,-2,3,-3,5,16,-4,-2
1532295195361,1,1,-1,0,-14,-3,3,3
1532295195366,-2,0,0,5,35,34,-19,-13
1532295195371,0,0,2,-7,-51,-53,8,12
1532295195376,-1,0,-2,-1,2,6,-6,1
1532295195381,-1,0,1,1,10,-1,-1,3
1532295195386,-5,-1,-3,-1,11,9,-5,-4
1532295195391,0,-2,1,2,22,24,-2,-11
1532295195396,3,1,0,-1,-14,-9,-3,3
1532295195401,4,-1,0,-1,5,14,10,10
1532295195406,3,-1,-1,3,-8,-10,2,6
1532295195411,-1,2,0,3,25,22,2,-4
1532295195416,0,-2,-2,-5,-37,-27,6,-1
1532295195421,2,-2,-1,0,8,9,1,1
1532295195426,1,2,0,-2,-1,-40,0,1
1532295195431,-2,-3,-2,0,9,58,8,-5
1532295195436,-4,-5,-3,-2,5,-10,-4,-4
1532295195441,-8,0,-2,1,12,4,-3,-5
1532295195446,16,0,0,-5,-40,-8,6,-2
1532295195451,0,-1,-2,-3,-3,-11,1,5
1532295195456,-15,-6,-4,-3,-12,-12,-10,-12
1532295195461,-1,2,4,3,-3,1,0,-6
1532295195466,-2,0,0,2,30,-16,-9,1
1532295195471,0,-1,-1,-2,-32,-27,7,1
1532295195476,5,0,-3,-1,10,35,1,8
1532295195481,-3,-3,0,-1,9,0,-3,-2
1532295195486,-7,-2,-3,-2,9,-1,-8,-6
1532295195491,-4,-4,-4,-4,-19,-28,-10,-8
1532295195496,3,4,1,-1,2,1,4,11
1532295195501,1,-1,-3,-1,-1,-4,-5,-4
1532295195506,-3,-1,-2,-3,-11,3,1,-1
1532295195511,-1,-1,0,1,7,14,-8,2
1532295195516,2,1,1,1,1,-11,-2,-4
1532295195521,-4,0,-1,1,16,-1,-7,-7
1532295195526,0,-1,0,-2,-15,5,6,2
1532295195531,-1,0,-2,-1,4,3,4,1
1532295195536,-1,0,0,0,-13,-22,-1,-2
1532295195541,4,-1,-2,-1,-2,-8,4,-1
1532295195546,-3,0,1,2,8,-16,-2,1
1532295195551,0,1,0,-4,-4,54,6,-2
1532295195556,2,0,-1,0,4,-4,-5,-1
1532295195561,-2,-4,-2,-2,1,-6,-6,-11
1532295195566,-4,-2,-3,-6,-35,-18,3,2
1532295195571,0,0,-1,-1,7,-17,3,-2
1532295195576,-1,-2,-1,2,24,45,-1,-7
1532295195581,0,-1,-1,-4,-43,-54,0,5
1532295195586,-3,0,-2,0,-2,10,4,5
1532295195591,-2,1,0,3,13,0,-6,-2
1532295195596,1,-4,0,3,24,-30,-6,-4
1532295195601,2,-3,-3,-5,-17,2,8,2
1532295195606,1,1,2,6,10,45,-5,-5
1532295195611,-2,0,-4,-4,-4,-27,-4,8
1532295195616,-3,0,-1,-4,-3,25,5,6
1532295195621,1,-1,-1,0,10,5,-2,0
1532295195626,-3,-4,-2,-2,1,2,4,0
1532295195631,1,6,6,7,23,9,-2,-2
1532295195636,1,-1,1,1,-2,-47,-5,-7
1532295195641,-5,-2,0,0,2,18,-1,6
1532295195646,-3,-2,-2,-6,-18,-1,-5,-6
1532295195651,0,-3,-3,2,9,2,-2,-1
1532295195656,1,1,-1,2,11,8,-1,3
1532295195661,4,1,-1,-1,-20,-42,4,10
1532295195666,-1,-1,-1,1,24,16,-1,2
1532295195671,-5,-2,-2,-4,-45,-4,-11,-10
1532295195676,1,1,0,-2,4,20,2,2
1532295195681,-2,0,1,2,22,12,-8,-12
1532295195686,1,-1,-1,-1,-1,-2,5,10
1532295195691,-1,-1,-1,-1,-4,-30,-10,-8
1532295195696,-2,-2,-2,1,6,33,14,-4
1532295195701,-6,-1,3,2,-7,-43,3,-18
1532295195706,1,1,1,1,-1,23,-2,-6
1532295195711,-2,-1,-1,2,11,18,10,6
1532295195716,6,0,-3,-5,-13,-8,-6,8
1532295195721,-1,1,-1,-2,8,10,-2,1
1532295195726,-5,-2,-1,1,-4,-22,-2,0
1532295195731,2,-3,2,3,40,46,-2,-2
1532295195736,-4,-1,-2,-6,-56,-55,-1,3
1532295195741,3,0,-2,-3,1,24,0,4
1532295195746,-2,0,-1,-2,7,-3,5,-3
1532295195751,-2,-1,-2,-1,6,4,-11,-1
1532295195756,0,-1,0,0,-3,-2,3,-2
1532295195761,0,-2,-2,1,2,1,-1,-2
1532295195766,-1,0,-2,-3,0,-6,0,-2
1532295195771,-2,0,0,1,-11,-1,10,0
1532295195776,-2,-2,-1,-4,0,-6,-4,-3
1532295195781,-3,0,1,1,0,12,10,-23
1532295195786,1,0,1,4,6,-35,-40,8
1532295195791,7,0,0,-2,-14,73,31,5
1532295195796,-1,0,-4,-4,8,-28,-2,-11
1532295195801,2,-3,-1,-5,25,25,-16,-4
1532295195806,-5,-5,-5,-14,-60,-56,7,-3
1532295195811,-3,-2,2,3,18,-53,-15,-5
1532295195816,1,0,2,7,-13,52,8,5
1532295195821,7,1,0,3,23,49,14,8
1532295195826,-5,0,-1,2,-6,-3,4,-3
1532295195831,-4,-5,-4,-6,-3,-12,-7,-2
1532295195836,2,-1,-1,0,-5,-18,-10,-3
1532295195841,-4,-1,-1,0,-2,16,-12,3
1532295195846,5,0,1,3,17,1,-3,6
1532295195851,0,0,-2,-1,-9,-1,3,-3
1532295195856,-4,-2,1,-2,-2,1,-1,2
1532295195861,2,-2,-1,6,42,-78,-8,-4
1532295195866,-5,-3,-3,-4,8,58,-1,-2
1532295195871,-3,-3,-1,-1,7,-20,-11,-1
1532295195876,7,4,0,0,18,31,4,3
1532295195881,-7,-5,-4,-4,-60,-52,1,5
1532295195886,7,3,-4,-3,0,-2,-8,-3
1532295195891,4,1,-1,-1,5,-50,-1,12
1532295195896,-3,-1,-1,-1,8,57,-2,5
1532295195901,-4,1,2,2,-7,13,-2,-8
1532295195906,5,0,2,1,27,17,-4,-2
1532295195911,0,0,-4,-13,-83,-62,0,-1
1532295195916,0,-2,-2,1,32,-5,-2,-3
1532295195921,-6,0,-1,-3,-27,11,8,-1
1532295195926,3,-13,-1,4,42,19,0,1
1532295195931,-3,11,3,9,32,50,-20,-17
1532295195936,2,-3,-1,-2,-7,-69,15,13
1532295195941,2,0,-4,-9,8,39,-16,-1
1532295195946,-9,-5,0,3,-35,-48,8,7
1532295195951,-11,-5,-2,-2,7,1,-5,-6
1532295195956,11,3,-2,-1,-6,-16,-13,-3
1532295195961,1,-3,0,3,42,75,-7,1
1532295195966,-6,0,-1,-1,-24,-48,6,3
1532295195971,-3,-6,-2,-4,-6,27,2,-3
1532295195976,-5,1,1,1,-21,19,8,-8
1532295195981,2,0,-1,0,2,-19,12,1
1532295195986,2,4,-1,-1,24,74,24,-8
1532295195991,5,-1,1,-2,-17,-32,16,8
1532295195996,-21,-5,5,11,30,13,-7,-41
1532295196001,22,7,-2,-11,-34,-30,9,29
1532295196006,-2,1,-1,-3,-2,34,1,1
1532295196011,2,0,-2,1,20,-24,-19,2
1532295196016,0,-2,-2,-4,-11,28,-7,-2
1532295196021,-8,-2,0,7,15,36,14,-3
1532295196026,-3,1,-3,-7,-20,-35,-23,-5
1532295196031,7,2,-2,1,6,49,18,2
1532295196036,1,-1,-4,-6,-22,-20,-7,16
1532295196041,-2,0,0,0,-12,-55,9,-1
1532295196046,4,-1,2,3,17,21,2,-7
1532295196051,-2,-2,1,1,-19,-38,24,-2
1532295196056,0,1,2,2,44,13,8,-1
1532295196061,-5,-2,-4,-12,-69,-93,-18,-3
1532295196066,15,3,-1,-1,-3,-27,6,19
1532295196071,0,0,0,1,10,44,4,3
1532295196076,-3,-1,-2,-2,1,-26,-25,-5
1532295196081,-4,0,1,6,30,-42,-12,-2
1532295196086,-10,-2,-1,-3,-9,-5,-7,2
1532295196091,16,2,-1,2,-7,-26,-9,0
1532295196096,6,0,-5,-5,-2,-39,-8,7
1532295196101,9,2,2,5,31,112,7,0
1532295196106,-11,-4,-1,1,1,-75,5,-7
1532295196111,-12,-5,-2,1,28,-13,-5,-4
1532295196116,-4,-1,-2,-3,-41,9,2,3
1532295196121,3,1,-1,5,26,-23,-13,1
1532295196126,0,4,-1,-4,-13,37,-6,-8
1532295196131,-2,-2,-1,-5,-12,-38,-15,1
1532295196136,-4,-5,0,4,16,38,18,-5
1532295196141,-6,-3,-3,-3,6,-13,5,-11
1532295196146,6,1,1,2,14,54,35,10
1532295196151,-4,-3,-2,-4,-16,-57,13,1
1532295196156,-1,-2,-1,0,14,60,-1,3
1532295196161,-8,-1,2,2,-3,61,-2,-8
1532295196166,-2,-3,-6,-8,-59,-98,-37,-4
1532295196171,1,-1,0,-2,-4,34,-29,1
1532295196176,0,-1,0,1,3,8,-11,2
1532295196181,-10,-2,-1,-1,2,-40,9,-4
1532295196186,13,2,2,3,15,9,17,-3
1532295196191,1,1,0,2,14,-12,-21,0
1532295196196,0,1,0,2,-1,-13,-18,-5
1532295196201,0,-3,-4,-8,-33,-35,-18,3
1532295196206,-4,-3,-2,-3,1,34,9,-7
1532295196211,-1,-1,-4,-3,-1,16,21,-5
1532295196216,3,0,4,7,30,-16,12,1
1532295196221,0,-2,2,1,1,87,17,-1
1532295196226,-4,0,-1,1,1,5,1,2
1532295196231,-3,-2,1,-2,-5,23,8,-2
1532295196236,-1,0,0,8,80,-14,-1,-5
1532295196241,-3,0,-6,-6,-38,29,4,4
1532295196246,2,-4,1,5,2,-60,4,0
1532295196251,-2,0,-2,-9,-33,27,7,7
1532295196256,-1,3,-1,-8,12,-35,9,0
1532295196261,-1,-2,-1,1,23,6,6,0
1532295196266,-2,-2,0,2,31,59,-7,-11
1532295196271,-3,0,-1,6,-2,-34,1,-4
1532295196276,2,-3,-4,-7,-31,-25,9,4
1532295196281,-4,-1,-1,4,32,-5,-20,-8
1532295196286,-4,-2,-3,-3,-38,-8,1,4
1532295196291,2,-1,-3,1,35,38,-2,0
1532295196296,1,-10,2,4,33,7,-6,-7
1532295196301,-5,6,-3,-3,-47,-31,3,4
1532295196306,12,2,0,-4,-1,-14,-3,-2
1532295196311,-4,-2,1,1,-5,6,3,-7
1532295196316,6,-1,-3,-4,-8,22,13,10
1532295196321,-1,-9,-2,2,2,-19,15,2
1532295196326,-3,-1,1,-1,10,15,17,-2
1532295196331,0,1,-7,6,73,46,22,-8
1532295196336,-22,3,3,3,20,75,13,-3
1532295196341,13,8,7,2,-6,53,-11,4
1532295196346,-4,1,-2,-4,4,41,1,1
1532295196351,3,-2,5,5,36,51,-14,-3
1532295196356,-1,-3,-3,0,-25,-35,-17,-4
1532295196361,-9,-3,-5,1,3,-4,0,-2
1532295196366,-5,-2,-3,-5,13,36,2,-2
1532295196371,-1,-1,-2,-9,-65,-77,-20,5
1532295196376,-2,0,-2,-4,-30,-17,-18,0
1532295196381,2,-2,0,-4,-31,-44,-22,-5
1532295196386,1,0,2,3,9,-12,-34,-4
1532295196391,1,2,1,1,-47,-14,-23,5
1532295196396,4,4,1,4,-44,-21,-34,12
1532295196401,-1,-9,-9,-21,20,-13,-40,-1
1532295196406,-2,-3,-3,-5,1,-4,-16,-3
1532295196411,-1,-2,2,2,16,-12,3,-3
1532295196416,-3,1,4,3,-24,26,22,0
1532295196421,20,4,0,10,14,2,20,7
1532295196426,-10,-1,-4,-14,-14,-32,6,-6
1532295196431,4,-1,-1,-7,2,33,26,0
1532295196436,1,-4,-1,6,-7,-1,35,-9
1532295196441,-3,3,4,17,-13,-42,32,7
1532295196446,-2,2,-1,-4,16,8,7,0
1532295196451,-1,-5,-1,-10,-28,-16,7,-3
1532295196456,-3,-3,-8,-23,-14,42,8,-7
1532295196461,-4,-1,-2,2,7,-7,6,-3
1532295196466,-5,-2,1,8,1,-9,2,-5
1532295196471,4,1,-3,23,40,-11,-9,-10
1532295196476,-3,-8,0,3,-3,17,12,10
1532295196481,-20,2,17,-20,-29,-22,11,-18
1532295196486,0,12,-11,-7,12,4,15,11
1532295196491,7,-7,-12,-13,-6,-6,-3,3
1532295196496,6,4,4,17,16,-3,-7,5
1532295196501,1,-2,0,21,-12,7,6,11
1532295196506,-10,-11,-6,-27,-29,-32,-12,-3
1532295196511,0,-1,0,-19,-5,-2,-1,8
1532295196516,-4,-1,-9,-10,-22,-36,5,0
1532295196521,-4,-5,-4,-5,4,6,-3,-6
1532295196526,-3,3,6,27,14,23,8,-9
1532295196531,7,7,20,62,34,16,11,8
1532295196536,1,-1,51,3,-33,-13,0,-11
1532295196541,0,-7,-68,-91,-17,12,-9,-12
1532295196546,1,-7,-7,-15,-25,-7,-9,-8
1532295196551,-10,-1,-2,4,-13,-2,1,-8
1532295196556,4,4,2,13,23,-22,-6,2
1532295196561,4,1,11,28,18,27,21,13
1532295196566,0,-2,13,-18,0,8,-5,1
1532295196571,-8,-1,1,-8,-9,7,-7,-6
1532295196576,3,8,21,-10,4,-71,-23,-5
1532295196581,6,3,-7,6,13,-20,-15,2
1532295196586,4,-1,0,17,-2,42,10,8
1532295196591,-11,-6,-3,6,-7,-5,6,-4
1532295196596,1,-1,-11,4,-21,-11,-5,-5
1532295196601,1,-3,12,31,17,-24,-6,1
1532295196606,4,2,-11,22,8,-5,13,-1
1532295196611,-3,1,5,-10,7,23,4,1
1532295196616,-7,-5,-28,-23,-30,-12,8,-4
1532295196621,-9,-2,0,-2,2,46,5,3
1532295196626,2,-2,4,-4,23,2,10,9
1532295196631,2,0,-3,-25,-23,-23,-2,1
1532295196636,-3,-3,-12,-4,23,38,7,-5
1532295196641,6,2,9,14,22,-40,-1,-7
1532295196646,-5,-3,-1,-11,-19,13,-19,-5
1532295196651,-4,0,-3,-5,1,-5,-4,-1
1532295196656,1,-2,-4,-24,-11,16,-6,0
1532295196661,-3,1,15,2,1,-29,0,-1
1532295196666,-1,-3,0,4,2,-26,10,-6
1532295196671,3,-1,-1,-18,-14,12,13,0
1532295196676,2,2,0,33,15,-5,3,1
1532295196681,-2,-7,-6,-16,-23,14,0,-6
1532295196686,2,-1,-6,-20,-2,-10,-13,-2
1532295196691,-1,-1,-4,13,-5,5,-8,-5
1532295196696,-1,-1,-7,11,24,24,-5,-1
1532295196701,1,2,0,18,8,11,-9,4
1532295196706,-1,0,-2,20,-20,-40,-13,6
1532295196711,-3,-2,1,3,10,-33,-9,1
1532295196716,0,-5,-7,-14,-41,16,-5,0
1532295196721,-1,1,3,-4,22,10,-10,-1
1532295196726,1,1,4,8,9,2,-3,-3
1532295196731,-1,-3,-7,-18,-25,-7,-13,-3
1532295196736,0,-2,-6,-6,13,-3,4,-5
1532295196741,-2,-1,3,0,-13,2,-5,1
1532295196746,-3,-1,5,7,-8,8,-2,-4
1532295196751,1,1,-2,3,11,-10,-4,0
1532295196756,-1,-2,-5,-4,0,-9,3,-1
1532295196761,-1,-2,0,-5,-9,0,-2,-2
1532295196766,-2,1,1,0,-5,2,-4,-2
1532295196771,-1,0,-1,-1,-1,-14,5,1
1532295196776,2,2,-1,0,1,19,17,1
1532295196781,0,-3,-1,-3,-5,4,-1,-1
1532295196786,2,0,2,9,67,60,2,-3
1532295196791,-3,-2,0,-19,-88,-66,-8,4
1532295196796,4,-2,-3,-5,-12,-23,-3,5
1532295196801,-17,1,1,1,6,10,-4,1
1532295196806,11,1,-1,-3,1,8,-3,0
1532295196811,1,-1,1,5,24,35,7,0
1532295196816,-1,-1,-2,4,0,-5,1,4
1532295196821,-2,-3,-4,-6,-5,-11,9,2
1532295196826,-2,-1,-2,1,-19,-15,5,1
1532295196831,-10,-2,-2,8,17,28,-2,-13
1532295196836,-3,0,-1,-4,0,-12,0,1
1532295196841,10,-6,0,-14,-3,6,10,12
1532295196846,-26,-6,-11,-3,-12,-12,2,5
1532295196851,35,9,8,11,46,41,-4,0
1532295196856,13,7,5,2,-51,-52,-4,0
1532295196861,-1,-6,-3,2,16,12,0,2
1532295196866,1,-1,3,5,7,-36,4,-8
1532295196871,-10,-8,-5,-3,-22,41,6,6
1532295196876,-7,-3,-3,6,1,-45,-1,-5
1532295196881,10,8,1,3,0,17,1,-5
1532295196886,4,-3,-7,0,-3,-14,-3,0
1532295196891,-6,-3,-9,-3,23,7,8,-1
1532295196896,2,4,-1,1,0,17,-1,1
1532295196901,-4,3,7,1,-19,-18,-7,-6
1532295196906,0,-2,-6,-10,-1,22,0,4
1532295196911,-3,-1,4,-6,-8,-18,-7,0
1532295196916,-13,-7,-8,-6,10,17,-9,0
1532295196921,-1,-1,-1,0,-1,8,-5,3
1532295196926,-2,-1,4,2,2,7,-8,-2
1532295196931,-3,2,-4,-3,1,-18,0,1
1532295196936,0,0,0,-6,8,3,3,2
1532295196941,-5,0,-1,0,-13,7,-10,-8
1532295196946,7,4,7,2,10,7,4,2
1532295196951,-5,-4,-3,-2,-9,-33,3,-3
1532295196956,-4,-3,-4,-1,26,21,-5,-6
1532295196961,1,-3,-1,-6,-11,-7,-2,-5
1532295196966,2,-3,-2,-7,-24,2,-2,0
1532295196971,-7,5,12,6,1,-13,-13,-1
1532295196976,-1,2,0,2,-4,16,-1,-7
1532295196981,-1,-3,-5,0,2,-2,-3,1
1532295196986,1,-4,-3,0,11,-10,7,3
1532295196991,-13,-6,-5,-3,9,6,11,-3
1532295196996,-11,0,4,-4,-11,12,5,1
1532295197001,20,0,-1,-1,7,-8,5,3
1532295197006,-7,0,-2,-1,-2,-3,-3,-3
1532295197011,9,-1,-1,-1,-1,1,1,2
1532295197016,-2,-3,-1,-6,-5,1,5,1
1532295197021,-5,-2,-2,-2,0,-1,-2,-3
1532295197026,-1,0,1,3,-5,-17,-1,-2
1532295197031,6,0,-4,2,3,0,-4,2
1532295197036,2,-5,-1,1,11,2,-5,0
1532295197041,-3,-1,0,2,0,0,-6,-3
1532295197046,2,-1,0,-7,2,2,-6,-1
1532295197051,-3,-2,-1,-9,-18,1,-4,-1
1532295197056,0,-1,-2,-4,-5,0,-3,-2
1532295197061,1,2,-2,3,2,-3,5,9
1532295197066,-9,-6,-2,-1,-2,1,4,-3
1532295197071,6,5,0,-4,-4,0,-1,0
1532295197076,2,1,0,-5,2,4,-8,-6
1532295197081,1,-1,0,-3,-9,-7,-7,-1
1532295197086,6,3,7,2,-3,-6,-1,-3
1532295197091,-2,-3,-2,-11,20,8,-1,-1
1532295197096,-2,-2,-3,-12,-4,-5,1,2
1532295197101,-5,-2,0,-2,-6,4,0,-4
1532295197106,-5,0,-1,-3,-17,-7,-7,1
1532295197111,-9,0,-1,6,-3,-2,-3,-1
1532295197116,1,-2,-1,2,10,0,3,-1
1532295197121,0,-1,2,5,17,6,4,-3
1532295197126,0,0,-1,7,0,-1,-10,0
1532295197131,2,-1,-1,9,-12,3,9,0
1532295197136,3,-3,-4,8,-6,-2,-4,2
1532295197141,1,0,-2,6,-2,-2,1,-2
1532295197146,-5,-1,-1,7,6,5,-2,-3
1532295197151,12,-1,-1,5,1,-3,-1,1
1532295197156,-3,0,3,14,20,5,2,-1
1532295197161,-12,0,1,0,-17,-8,1,-3
1532295197166,5,-5,-6,-13,-8,-1,0,-1
1532295197171,-24,-3,6,3,-1,-11,-8,-4
1532295197176,23,4,-2,0,-2,3,-8,5
1532295197181,-1,-2,6,7,8,9,15,0
1532295197186,2,-1,-4,1,4,3,0,-1
1532295197191,-3,0,4,-13,-18,2,0,-3
1532295197196,-11,-1,-1,-14,-9,-10,-6,-4
1532295197201,2,2,-3,-12,1,-10,-8,0
1532295197206,3,-1,4,-4,-4,3,3,2
1532295197211,7,-4,-6,-2,-1,2,-1,-1
1532295197216,-7,-1,6,0,3,-10,5,3
1532295197221,6,2,-2,1,0,0,-5,-3
1532295197226,-1,0,15,3,12,16,11,-1
1532295197231,2,3,-13,-1,-1,-6,-8,0
1532295197236,7,2,16,-8,4,10,5,-4
1532295197241,-17,-9,-8,-6,-22,-9,-9,3
1532295197246,-10,1,0,7,2,-3,-1,-10
1532295197251,7,0,8,5,26,0,-1,5
1532295197256,20,2,-6,4,-2,1,2,1
1532295197261,2,-2,3,-2,-6,-3,1,-2
1532295197266,-3,2,0,-9,-9,-2,-5,-5
1532295197271,3,-1,-8,4,-11,2,7,0
1532295197276,-11,-1,-4,0,-5,-3,-3,-6
1532295197281,1,-1,6,5,8,-3,5,-7
1532295197286,-8,-2,-28,-2,1,0,3,2
1532295197291,4,4,0,-2,-3,2,-3,-1
1532295197296,1,1,5,6,5,-1,-2,5
1532295197301,1,-1,-2,0,-4,-1,2,5
1532295197306,-5,-2,7,-3,-4,-3,-1,1
1532295197311,-7,-5,-9,-1,4,-2,-2,-6
1532295197316,1,-2,-13,-1,-3,2,7,11
1532295197321,-2,0,-7,1,12,0,-6,-6
1532295197326,7,-1,-1,-6,0,-2,-6,0
1532295197331,-7,-3,-2,-9,-9,-5,-4,-3
1532295197336,-3,-5,-1,0,-6,-5,-5,-5
1532295197341,5,1,-2,-3,-5,-2,11,0
1532295197346,6,2,1,8,2,-1,6,2
1532295197351,2,0,2,0,9,6,11,-5
1532295197356,-8,-6,-3,-6,-11,-1,-7,-3
1532295197361,-17,-2,-1,-2,1,-4,-14,0
1532295197366,17,1,-1,2,-4,-2,-11,2
1532295197371,0,2,5,1,-3,3,0,3
1532295197376,-14,0,11,2,-6,0,1,-9
1532295197381,1,-7,-23,-1,12,-3,1,2
1532295197386,-3,-3,4,-3,9,-2,-2,-5
1532295197391,7,3,-3,2,-13,0,-16,8
1532295197396,-20,-2,-9,-4,5,-1,-21,-4
1532295197401,0,7,10,-2,-5,5,-12,0
1532295197406,-7,-1,5,-2,-7,-10,-18,2
1532295197411,2,-1,-3,2,0,-9,5,2
1532295197416,-7,-6,-1,1,1,-1,-3,-3
1532295197421,1,0,-9,-1,8,8,10,0
1532295197426,3,1,-3,-11,-20,0,7,-2
1532295197431,-6,-1,3,2,14,2,2,-5
1532295197436,7,2,-2,-4,-9,-1,9,-3
1532295197441,1,-2,8,-2,-6,-1,-18,2
1532295197446,-1,-5,-18,-4,-11,-7,1,-2
1532295197451,-1,0,8,1,-5,-6,-1,-3
1532295197456,-3,-2,-6,5,12,5,7,2
1532295197461,10,1,8,2,9,8,12,1
1532295197466,14,3,5,5,3,-4,-3,5
1532295197471,-3,-4,-5,-1,5,-1,-2,-1
1532295197476,7,2,6,-5,1,-8,8,0
1532295197481,-10,-2,-15,-1,-20,-3,3,3
1532295197486,-2,1,8,7,6,3,2,-5
1532295197491,-1,-2,-1,-7,3,8,1,-4
1532295197496,3,-2,-2,-1,-6,-1,-1,-1
1532295197501,4,3,6,-1,3,-2,3,0
1532295197506,-6,-1,-3,-1,0,-1,7,0
1532295197511,1,-3,-4,1,-4,-1,3,0
1532295197516,-11,-2,-4,-2,-2,1,-2,-2
1532295197521,14,1,10,2,9,5,3,4
1532295197526,-13,-3,-22,1,3,-1,-1,-2
1532295197531,8,3,11,1,8,5,5,-1
1532295197536,16,1,-5,-6,-14,-3,-5,4
1532295197541,-7,-7,2,-2,-9,-8,-3,-2
1532295197546,5,2,7,2,-5,2,3,3
1532295197551,-7,-1,-15,-1,6,0,0,-4
1532295197556,-4,-3,-5,-3,-9,-4,-2,0
1532295197561,-3,-1,-4,-3,2,6,5,2
1532295197566,3,0,2,-2,-12,-6,-1,0
1532295197571,-4,-1,1,7,8,-5,-5,1
1532295197576,0,-2,-5,-2,5,-4,-2,2
1532295197581,-5,1,6,-2,9,3,6,-6
1532295197586,-6,-2,-4,-7,4,3,1,-1
1532295197591,-10,-8,-2,-5,-12,-6,-2,-3
1532295197596,12,-4,-2,4,-1,2,-3,4
1532295197601,6,8,8,1,-5,-6,-5,-3
1532295197606,0,0,2,3,4,-2,4,-1
1532295197611,1,0,1,-4,4,-4,-3,1
1532295197616,-8,-1,-2,0,5,16,4,-6
1532295197621,-2,-4,-9,0,-2,-10,0,0
1532295197626,-1,1,3,2,2,0,3,-4
1532295197631,1,-3,-1,-5,-11,-4,-3,2
1532295197636,-11,1,-5,-6,-6,-3,-1,-5
1532295197641,2,-1,-2,0,-1,-1,-4,-4
1532295197646,-3,-1,2,-1,-1,0,1,1
1532295197651,-1,-1,-1,-1,-3,2,-1,1
1532295197656,-3,-4,1,3,1,3,-1,0
1532295197661,4,6,-13,7,16,-1,-1,-1
1532295197666,-17,1,3,-4,-10,-10,0,-6
1532295197671,15,2,-2,-9,-15,6,0,2
1532295197676,-2,0,0,1,-2,-8,1,3
1532295197681,0,-7,-4,-2,-5,8,-4,-2
1532295197686,-3,-9,-13,1,3,-16,-4,3
1532295197691,-4,11,8,4,19,26,5,-4
1532295197696,10,3,3,-3,-11,-8,-6,0
1532295197701,-7,-3,0,-3,-11,-6,0,-1
1532295197706,2,-1,-4,-1,-2,0,-5,2
1532295197711,1,-5,-2,1,-10,-15,-3,0
1532295197716,-4,-3,0,-1,21,14,6,-4
1532295197721,-3,-1,-2,-6,-10,-2,-4,-2
1532295197726,11,3,5,-5,-6,5,-1,1
1532295197731,-14,-6,-3,-6,-3,-6,-3,-2
1532295197736,-14,2,3,3,1,6,0,-2
1532295197741,9,-1,-2,-7,4,-5,1,-4
1532295197746,5,-1,0,-11,7,12,-1,7
1532295197751,4,-4,-1,-4,-8,-10,-3,-5
1532295197756,-8,4,2,4,-1,13,7,1
1532295197761,-8,0,6,2,-1,2,-6,-3
1532295197766,2,2,-2,-1,-11,-6,3,0
1532295197771,-5,-1,-3,2,4,-3,-4,-2
1532295197776,9,-3,-3,0,-3,-1,2,4
1532295197781,-7,-2,2,6,-2,0,-4,-5
1532295197786,-5,-3,2,-1,4,12,-2,-2
1532295197791,-4,1,-2,5,5,-14,2,2
1532295197796,4,-2,4,0,-9,6,-5,-3
1532295197801,2,1,-9,3,1,-5,3,0
1532295197806,-6,0,7,7,6,16,-5,-3
1532295197811,14,0,0,4,-12,-25,0,2
1532295197816,2,-2,-4,-1,15,-9,2,0
1532295197821,-10,-3,-5,-4,6,-9,-1,0
1532295197826,19,2,3,0,-10,15,-1,1
1532295197831,-7,-2,2,2,-7,4,-5,0
1532295197836,-1,-1,-2,3,2,-24,-6,-3
1532295197841,6,-2,0,-3,2,31,10,1
1532295197846,-9,-3,-4,1,-4,-16,-4,-3
1532295197851,0,5,3,9,7,15,6,-1
1532295197856,7,-3,-2,-1,-6,-14,-3,3
1532295197861,-8,-2,5,4,0,-2,0,-3
1532295197866,8,1,-3,3,10,-1,4,0
1532295197871,-5,1,-1,-9,-10,5,-1,-4
1532295197876,-9,-2,-1,-4,-3,-6,0,2
1532295197881,6,-1,1,-7,-15,9,-6,-1
1532295197886,2,1,1,-1,3,-11,3,0
1532295197891,-10,-6,-7,-5,10,6,-1,-1
1532295197896,-3,-1,-10,-4,0,4,-6,-6
1532295197901,2,-4,-2,-6,-7,-5,-6,-2
1532295197906,-7,7,17,7,-14,-18,-9,5
1532295197911,8,0,-2,0,7,10,0,-2
1532295197916,-10,-1,1,-2,9,-5,-3,-1
1532295197921,6,-2,-6,-1,6,-1,6,0
1532295197926,9,0,-7,-3,-1,6,3,1
1532295197931,-4,-4,-2,0,-1,6,5,1
1532295197936,-8,1,0,-2,-22,-12,-4,-1
1532295197941,11,2,2,0,8,-13,-7,2
1532295197946,-4,-3,-5,1,5,5,-4,1
1532295197951,-2,-2,-2,-2,4,4,1,2
1532295197956,-1,-3,-4,-2,1,-10,-5,-1
1532295197961,-2,1,1,-1,-1,16,1,8
1532295197966,-12,-2,-2,-1,2,-25,-1,-5
1532295197971,4,-1,-5,-3,-10,28,3,5
1532295197976,3,0,3,2,7,8,5,-1
1532295197981,-9,-1,3,4,1,-13,12,-1
1532295197986,-5,-2,-6,-3,-5,0,-4,-1
1532295197991,3,1,1,-2,6,-8,2,2
1532295197996,3,-2,1,-4,-8,9,4,1
1532295198001,-9,-3,1,-1,-6,-4,-2,-9
1532295198006,-16,1,-4,1,-5,5,-3,-13
1532295198011,8,0,2,-1,-4,-15,-3,-8
1532295198016,7,2,0,2,16,19,-1,-4
1532295198021,-2,-3,-1,-3,-1,-18,-9,-7
1532295198026,-2,-3,-2,-2,-5,13,5,-1
1532295198031,-5,0,-2,-2,0,-14,-3,-1
1532295198036,-2,-1,1,-1,3,-1,-1,-4
1532295198041,-3,-4,-4,-1,-6,7,-3,1
1532295198046,7,-1,-1,0,12,1,2,-1
1532295198051,-4,-1,2,2,-15,-6,-3,-2
1532295198056,-5,1,-4,2,-1,1,-1,-2
1532295198061,-2,-1,1,1,-5,1,-3,0
1532295198066,2,-2,1,2,-2,-8,-5,1
1532295198071,-1,-2,1,0,6,2,8,-1
1532295198076,-5,-4,-4,-7,3,2,-3,-1
1532295198081,1,2,0,-3,-12,-26,-5,1
1532295198086,1,0,1,-2,-9,13,6,2
1532295198091,-3,-4,-2,-1,10,1,-3,-1
1532295198096,2,-1,-1,-1,-13,-17,-8,-1
1532295198101,0,2,-1,1,3,19,5,-2
1532295198106,5,-2,-1,-2,1,-3,-1,2
1532295198111,-1,1,-1,-2,-7,1,-3,0
1532295198116,3,-1,1,-2,1,-5,3,-3
1532295198121,-1,-1,-2,-1,-2,-2,-4,-2
1532295198126,-4,-3,-3,-7,-1,-5,0,-3
1532295198131,2,0,-1,-1,-6,13,0,0
1532295198136,4,-2,2,5,13,0,1,-5
1532295198141,-3,1,2,1,-12,-3,0,-5
1532295198146,-14,-6,-1,-2,4,-15,-5,-4
1532295198151,9,5,-5,1,3,1,-2,1
1532295198156,6,1,-2,-1,-6,4,1,5
1532295198161,-3,-1,-3,-1,12,3,2,3
1532295198166,-2,0,3,2,1,7,1,-4
1532295198171,-5,-4,1,-3,-15,-10,-3,3
1532295198176,-2,1,1,1,-7,-24,-5,0
1532295198181,4,0,2,-1,21,37,8,3
1532295198186,-2,-2,-2,-5,-15,-19,-1,1
1532295198191,-2,-2,2,1,3,4,-2,-1
1532295198196,-2,-2,0,1,-17,3,2,-2
1532295198201,-6,-5,-3,0,6,-13,-3,-5
1532295198206,23,7,10,5,19,11,0,4
1532295198211,-3,0,0,-3,-4,0,-1,-5
1532295198216,1,0,-1,-5,-2,1,0,-1
1532295198221,-1,-2,-1,-5,-18,-19,-8,0
1532295198226,5,2,0,-1,-5,-12,-5,7
1532295198231,-2,-2,0,1,9,-2,-1,3
1532295198236,-4,-3,-2,-3,-4,-6,0,4
1532295198241,1,1,-1,-3,3,-12,0,-3
1532295198246,-5,-4,-4,-2,-7,17,2,-3
1532295198251,-5,0,4,3,-2,0,-6,-3
1532295198256,4,2,3,4,11,3,3,1
1532295198261,18,0,-2,-1,-3,0,2,1
1532295198266,-1,-3,-3,-1,-6,-4,-6,-4
1532295198271,-2,-1,-1,0,7,-6,4,-3
1532295198276,-5,-3,-1,-7,1,5,-5,0
1532295198281,-9,-2,-2,1,0,-4,-1,-7
1532295198286,2,0,1,0,-4,-5,2,1
1532295198291,1,-1,-1,-2,-6,-2,-4,-1
1532295198296,1,-1,-3,0,0,-16,-2,3
1532295198301,1,2,1,0,6,6,3,3
1532295198306,-9,-2,-4,-1,4,-8,-8,-2
1532295198311,-2,-2,-4,-2,6,10,2,-5
1532295198316,9,0,2,-3,-15,-17,-8,4
1532295198321,-9,-3,-1,-1,-5,2,-1,-2
1532295198326,1,0,-2,-1,1,18,-1,-4
1532295198331,-4,-1,-4,-5,-2,-6,-5,6
1532295198336,-3,0,-1,0,6,10,-1,-5
1532295198341,6,-1,1,3,-5,-15,-4,1
1532295198346,-2,-1,-2,-4,4,9,4,0
1532295198351,0,-2,-2,-4,1,-4,5,-5
1532295198356,0,1,-2,-1,2,14,-7,-3
1532295198361,-6,-1,2,-1,-11,-22,-8,-2
1532295198366,1,-2,-3,1,-10,-12,1,2
1532295198371,1,2,7,7,8,24,13,-1
1532295198376,1,-1,-4,-2,2,-7,-3,0
1532295198381,1,0,-1,-3,1,-1,-4,-4
1532295198386,-4,-4,-1,-4,-4,-6,-16,-4
1532295198391,3,2,-3,2,-6,-3,-9,-1
1532295198396,-5,-2,-6,3,11,3,-1,0
1532295198401,-5,6,-4,-2,-5,4,-11,3
1532295198406,-8,-4,-4,-2,0,-6,-3,5
1532295198411,-8,-2,1,2,9,-3,-3,-3
1532295198416,-1,-3,1,-6,-15,3,7,-2
1532295198421,-11,-4,-3,-3,-4,-9,4,-1
1532295198426,17,2,2,1,-1,9,9,3
1532295198431,-5,-6,-3,5,13,4,9,1
1532295198436,4,3,7,-3,-5,-6,12,3
1532295198441,0,-1,0,-1,-7,2,13,0
1532295198446,1,1,1,-2,-1,-3,8,2
1532295198451,-2,-2,1,1,-2,7,3,-2
1532295198456,-1,-2,-5,-1,10,4,2,-2
1532295198461,9,-1,-3,-3,3,6,1,2
1532295198466,8,-1,0,4,4,-14,-7,-3
1532295198471,5,1,-5,-3,-6,2,5,0
1532295198476,-9,-1,-1,4,-2,6,-2,-1
1532295198481,-9,-3,-1,1,-2,-10,-5,-7
1532295198486,-18,-3,-5,-12,3,10,1,-8
1532295198491,5,2,1,-5,-12,-4,-1,-2
1532295198496,6,0,3,1,-8,-2,1,-1
1532295198501,-5,-5,-1,5,12,7,0,12
1532295198506,19,7,2,6,5,2,-3,2
1532295198511,-3,2,2,0,11,-1,-14,-1
1532295198516,1,-3,-4,-1,-3,2,-9,-3
1532295198521,-14,-5,-3,-8,-4,-44,-6,-3
1532295198526,-4,-2,-4,-3,-11,47,3,-3
1532295198531,0,3,0,-4,-7,-8,4,0
1532295198536,-3,-1,-5,-4,-12,-13,-1,0
1532295198541,-4,-1,0,4,13,8,6,-7
1532295198546,6,1,-5,-4,-8,-22,2,4
1532295198551,7,3,7,10,0,-11,-7,-1
1532295198556,0,-2,-3,-4,-1,7,4,3
1532295198561,4,2,-3,-3,-1,12,1,-3
1532295198566,-13,-7,-1,0,-4,-10,2,-4
1532295198571,-8,0,0,-1,-1,9,0,0
1532295198576,18,2,1,0,1,-12,-3,4
1532295198581,-17,-3,0,4,-6,7,-3,-4
1532295198586,10,2,0,2,12,-10,-3,-3
1532295198591,-4,-4,-4,-9,-6,-5,0,-2
1532295198596,19,-7,-7,-2,4,9,0,1
1532295198601,-4,3,2,-2,-11,-7,-3,1
1532295198606,4,8,11,3,-3,-27,-2,1
1532295198611,-3,-3,-3,1,17,40,4,-2
1532295198616,-5,2,1,-1,-10,-18,-1,0
1532295198621,3,-4,-3,-3,-2,11,1,0
1532295198626,-8,-6,-4,-1,-4,-7,0,0
1532295198631,4,2,-6,0,-8,-29,-8,3
1532295198636,-12,-1,9,-1,8,23,3,-3
1532295198641,7,2,-7,2,5,-1,-1,-1
1532295198646,-10,0,1,-2,-2,-4,-5,-4
1532295198651,9,-6,-2,-1,6,8,4,7
1532295198656,-7,-1,-2,4,6,-6,-3,-3
1532295198661,7,3,1,-2,-2,-2,2,1
1532295198666,-4,-2,-7,-2,-3,11,1,0
1532295198671,-6,-4,-2,-3,0,-12,-9,-3
1532295198676,-11,2,-1,2,-1,9,12,-3
1532295198681,8,0,4,-1,-3,8,2,1
1532295198686,-17,-6,-2,-1,-2,-2,-2,-3
1532295198691,5,0,-7,-1,-8,-3,0,1
1532295198696,-4,2,4,2,6,-4,-5,0
1532295198701,9,0,2,0,-6,-2,1,5
1532295198706,4,-1,1,2,12,5,1,0
1532295198711,-16,-6,-5,-8,-6,-19,-3,-5
1532295198716,11,-3,-8,-7,-15,5,-3,1
1532295198721,0,0,8,1,2,3,0,-4
1532295198726,6,0,-4,2,0,-4,-3,1
1532295198731,-7,2,0,6,-11,3,3,-3
1532295198736,16,2,0,0,8,-9,-3,2
1532295198741,1,-2,-4,-5,-2,1,-2,-1
1532295198746,-9,-3,-3,-3,-4,2,-1,-3
1532295198751,15,1,2,2,3,1,-9,1
1532295198756,-13,-2,-4,1,0,0,-13,-2
1532295198761,1,-1,-3,0,1,-3,-6,-4
1532295198766,-2,-2,0,-2,2,-1,-1,2
1532295198771,-5,-2,0,-2,-1,-2,7,-1
1532295198776,-2,0,2,4,-3,-3,3,-1
1532295198781,-2,1,-2,0,5,9,6,-1
1532295198786,-4,0,0,-6,-6,-2,0,3
1532295198791,-10,-4,1,-9,-7,-6,5,-5
1532295198796,0,-4,0,3,0,9,-1,-2
1532295198801,4,4,-3,4,0,-3,0,0
1532295198806,1,2,-2,4,2,7,4,2
1532295198811,0,-2,-1,-3,2,-11,-3,-1
1532295198816,-11,-1,-1,-6,-3,-6,-3,-6
1532295198821,4,-2,0,-3,-2,4,2,-1
1532295198826,-3,-2,-1,0,-6,-7,-1,-2
1532295198831,-1,2,9,2,4,0,-1,0
1532295198836,14,-1,-2,-3,0,-1,0,1
1532295198841,1,0,1,-3,-3,0,-1,-1
1532295198846,-2,5,3,-1,-7,-6,-2,4
1532295198851,-6,-7,-7,1,10,11,1,-7
1532295198856,-10,-1,10,5,8,0,0,0
1532295198861,-5,-6,-2,-7,-2,-4,-3,-4
1532295198866,8,0,1,-5,-11,-4,1,-2
1532295198871,4,3,-7,-3,-10,0,0,2
1532295198876,-1,-2,1,0,2,-4,-2,-2
1532295198881,-4,-2,-3,2,-2,2,-4,0
1532295198886,-7,-3,0,2,8,-9,2,-2
1532295198891,-4,-3,-1,4,0,4,0,-1
1532295198896,18,4,-5,-4,-9,-9,0,3
1532295198901,-3,-4,-1,-5,-1,-2,-4,-1
1532295198906,-1,-4,-5,-9,4,10,-2,-4
1532295198911,2,-1,5,2,-5,-8,-1,-1
1532295198916,8,2,9,5,2,2,-1,0
1532295198921,0,-1,-2,-1,4,-1,-3,-2
1532295198926,-2,-4,0,-6,-9,-1,-1,-1
1532295198931,-2,-2,-6,-2,-3,-4,-1,-1
1532295198936,1,-1,0,2,-4,4,0,1
1532295198941,0,-2,2,1,-3,3,1,4
1532295198946,0,0,-1,4,9,-2,-2,-2
1532295198951,-12,-6,-1,-3,2,-6,-2,-3
1532295198956,1,1,-3,-1,-7,10,-1,-1
1532295198961,3,4,-8,-3,4,2,0,0
1532295198966,32,2,-4,-6,-14,-16,-1,7
1532295198971,-2,2,6,3,5,-2,-1,1
1532295198976,-17,-4,-2,0,-7,-5,-1,-5
1532295198981,9,1,-3,-7,-3,-2,2,3
1532295198986,-2,-1,0,2,-3,2,-1,2
1532295198991,-4,1,-7,4,4,3,2,-1
1532295198996,5,3,11,-1,8,-7,-4,-5
1532295199001,-11,-5,-1,-5,0,3,4,-4
1532295199006,-9,-3,0,-3,-1,1,-3,-2
1532295199011,8,2,2,-3,-8,1,0,0
1532295199016,-1,1,-5,6,4,-1,-3,1
1532295199021,4,0,2,6,1,1,0,4
1532295199026,6,-2,-1,-4,-9,-8,-1,0
1532295199031,-1,-2,-1,-7,1,-3,-1,-6
1532295199036,8,-1,-2,-3,-2,7,1,4
1532295199041,-6,-1,1,0,-6,-10,-5,-3
1532295199046,0,1,0,3,9,8,3,1
1532295199051,-1,2,4,6,7,5,-2,-1
1532295199056,5,-1,-1,-1,0,-11,4,3
1532295199061,-7,-8,-3,-4,-11,-5,-5,-5
1532295199066,-18,0,-5,-2,2,1,0,-3
1532295199071,1,1,-3,-4,6,1,-2,1
1532295199076,-9,-4,4,-6,-4,-4,-2,-3
1532295199081,1,7,-1,11,17,12,5,5
1532295199086,-2,-4,0,-1,-2,-11,-3,-4
1532295199091,3,0,0,-1,-16,-13,2,-1
1532295199096,0,3,-5,-1,5,8,3,0
1532295199101,3,-5,-4,-6,-10,4,-1,0
1532295199106,-2,-2,-1,2,11,2,-2,-2
1532295199111,4,-2,1,1,0,0,0,1
1532295199116,-2,-6,-8,0,8,-3,-1,0
1532295199121,-1,3,5,-4,-12,-4,-6,-4
1532295199126,15,3,3,4,2,-9,3,4
1532295199131,-10,-3,1,0,-1,8,-2,-5
1532295199136,1,-1,-2,0,2,0,2,-2
1532295199141,-2,-2,-1,-5,0,-1,-1,-2
1532295199146,-8,-1,-4,1,-8,7,1,0
1532295199151,1,-1,7,1,3,-1,1,1
1532295199156,4,2,-3,-5,-6,-1,0,0
1532295199161,-9,-6,0,0,5,-3,-4,-1
1532295199166,-2,2,0,-2,-9,-13,-6,-3
1532295199171,-2,-1,-2,3,-2,-4,1,-1
1532295199176,4,0,-1,1,7,8,-1,-3
1532295199181,3,0,3,-3,-8,-2,0,4
1532295199186,-5,-4,-2,-2,10,6,-1,-4
1532295199191,4,-1,0,-2,-5,-7,1,0
1532295199196,-18,-3,1,-2,-4,-8,-4,0
1532295199201,14,-1,-13,1,2,1,0,-5
1532295199206,-8,0,11,4,8,6,0,-1
1532295199211,11,3,-4,-4,-10,-12,-5,3
1532295199216,4,2,13,0,-5,-1,-3,2
1532295199221,-9,-4,-3,-1,3,-1,1,1
1532295199226,-2,-1,-4,0,-3,2,0,-1
1532295199231,-4,-1,1,-1,-1,-7,-3,-1
1532295199236,6,-2,-4,0,6,20,4,2
1532295199241,-7,-1,0,-4,-7,-9,1,-3
1532295199246,4,-2,-4,-3,0,-6,-5,0
1532295199251,-7,-1,0,1,5,10,3,-1
1532295199256,-11,-4,-5,-3,1,-4,-2,-3
1532295199261,16,0,-1,1,0,3,-2,1
1532295199266,-1,2,0,-1,-3,-7,0,1
1532295199271,-5,-2,0,-3,4,4,-1,0
1532295199276,-3,-3,-2,-1,-11,-10,-3,-1
1532295199281,-3,1,0,-1,4,2,3,1
1532295199286,-1,0,0,0,-3,-7,-3,1
1532295199291,2,1,1,0,-3,14,5,1
1532295199296,3,-3,-6,-7,-6,-13,-1,-2
1532295199301,-4,-2,0,0,0,-11,-3,-4
1532295199306,1,4,5,2,-10,19,0,-1
1532295199311,-9,-3,-4,1,17,-1,-3,-3
1532295199316,2,0,-5,-4,-4,0,0,-4
1532295199321,1,0,-4,-4,-2,-2,1,1
1532295199326,-9,-3,-4,-4,-4,-5,-1,-5
1532295199331,-4,-1,0,2,-8,0,-3,-2
1532295199336,4,-1,-5,6,10,1,0,2
1532295199341,0,4,13,1,19,12,4,-3
1532295199346,-2,-2,-3,-5,-19,-16,0,-3
1532295199351,-13,-2,-1,1,-1,0,0,0
1532295199356,0,-2,-1,-2,6,-1,-5,-2
1532295199361,-3,-2,0,-1,-1,-4,-1,0
1532295199366,-1,-1,-1,-3,3,6,2,-1
1532295199371,-2,-2,-1,-5,-5,-6,-5,-1
1532295199376,1,0,1,3,-13,-4,-3,1
1532295199381,-1,-1,0,5,1,-3,1,1
1532295199386,3,-1,-5,-8,3,3,3,-2
1532295199391,3,-2,-5,-8,-9,-6,0,2
1532295199396,-3,-2,-2,-2,-8,0,0,-3
1532295199401,-1,0,1,1,-7,1,-4,-1
1532295199406,3,1,1,3,-2,-1,-2,1
1532295199411,6,1,-1,-2,-1,-1,-2,-1
1532295199416,3,1,0,0,7,-2,-4,1
1532295199421,-8,-3,-4,-2,-8,-2,-2,-2
1532295199426,3,2,3,5,0,-5,7,5
1532295199431,4,0,1,3,1,2,1,1
1532295199436,-4,1,-1,-1,3,4,-1,2
1532295199441,0,-2,-4,-2,-5,-2,-2,-3
1532295199446,-4,-3,-3,1,12,1,1,-3
1532295199451,17,1,0,1,-2,-3,-1,-1
1532295199456,0,-1,-1,-1,-5,2,2,1
1532295199461,-14,-2,-1,-1,-2,-1,-7,-1
1532295199466,14,1,0,0,2,2,-6,2
1532295199471,-4,0,-2,3,1,0,-6,-2
1532295199476,1,0,-1,2,-6,-3,1,-1
1532295199481,-5,-3,-3,-11,3,-6,5,-2
1532295199486,-10,-1,-2,-6,-13,0,0,0
1532295199491,-6,1,2,4,-1,-6,2,1
1532295199496,-1,-2,0,2,14,11,8,1
1532295199501,-5,-2,1,2,-2,2,-1,0
1532295199506,-2,-2,-1,-1,2,-2,1,-5
1532295199511,0,-3,-3,-1,0,1,6,-3
1532295199516,-2,4,2,-2,-10,-8,0,-1
1532295199521,3,-1,-1,-2,-2,-1,-3,-1
1532295199526,-2,-2,-2,2,3,3,-3,1
1532295199531,2,-2,0,-5,-3,1,-4,-3
1532295199536,0,-2,-1,-1,5,-7,-3,-2
1532295199541,3,0,-1,3,-2,3,0,2
1532295199546,-10,-2,-8,3,2,-3,-4,-2
1532295199551,9,3,9,-2,13,1,-3,-1
1532295199556,-3,-2,-2,-7,-14,-3,-2,-1
1532295199561,11,3,2,2,5,3,0,1
1532295199566,-4,-3,-2,0,-8,-10,1,0
1532295199571,-13,-3,-5,1,2,-1,1,-2
1532295199576,-1,-2,-2,-3,1,1,-4,-4
1532295199581,4,1,0,2,-5,1,-2,1
1532295199586,2,-2,0,-5,5,-3,-1,1
1532295199591,2,0,-3,-3,-9,-3,-2,-1
1532295199596,-6,-2,0,2,-7,-5,1,-2
1532295199601,-13,-8,-7,-1,7,2,-10,-3
1532295199606,29,6,4,-1,6,-9,-5,1
1532295199611,-8,-1,-1,-2,0,24,3,1
1532295199616,-1,-2,-2,2,-7,-7,3,-5
1532295199621,-1,0,0,0,-11,-8,5,-2
1532295199626,-3,-4,-2,-1,7,3,1,0
1532295199631,0,-2,-3,-5,-14,-9,-8,-2
1532295199636,0,-3,-3,-2,1,-1,-3,-1
1532295199641,4,3,8,0,3,3,0,-1
1532295199646,-2,-2,-2,-2,-11,6,-1,0
1532295199651,-4,0,5,9,-2,-5,-1,2
1532295199656,-6,1,-6,3,17,11,2,-1
1532295199661,-1,1,-11,-18,-20,-15,-4,-4
1532295199666,-3,0,-1,0,0,5,0,-1
1532295199671,-1,-4,-4,-3,-1,-2,-1,-2
1532295199676,5,0,-2,7,5,0,0,4
1532295199681,-2,1,7,4,3,-2,-1,1
1532295199686,-3,-1,-2,1,-4,-2,-1,-2
1532295199691,0,-2,-4,-4,-1,-4,-1,-2
1532295199696,0,0,1,-1,5,-1,-4,1
1532295199701,-11,-5,-4,-1,2,2,3,-5
1532295199706,15,0,3,-2,-1,2,-1,2
1532295199711,-2,0,-6,-4,2,-6,0,0
1532295199716,12,-2,-1,-6,-13,-5,-3,0
1532295199721,6,4,8,4,1,4,-2,5
1532295199726,-3,1,-6,6,2,1,-4,-2
1532295199731,10,2,13,8,15,5,3,5
1532295199736,-12,-4,4,-6,-9,-5,-3,-3
1532295199741,-12,-9,-6,-3,-7,1,4,-3
1532295199746,-3,-4,-4,-4,7,0,-1,-1
1532295199751,5,0,-2,-2,-15,-5,-3,1
1532295199756,8,2,-4,2,-2,-1,0,3
1532295199761,5,1,5,12,22,0,2,0
1532295199766,-15,-9,-13,-16,-15,-1,3,-6
1532295199771,-7,-5,-8,-7,-12,-6,1,-9
1532295199776,3,11,14,1,-4,0,-3,0
1532295199781,4,5,-2,4,2,2,-4,2
1532295199786,0,-4,-4,6,6,-6,-3,4
1532295199791,-17,2,3,8,8,11,-15,-5
1532295199796,-7,-4,-1,-6,6,2,-4,-5
1532295199801,1,3,-1,-9,-12,-1,0,-3
1532295199806,2,0,6,-3,1,0,5,-2
1532295199811,-9,-6,-8,-4,-2,-6,6,-3
1532295199816,-2,-3,1,5,-3,3,-2,-4
1532295199821,6,-2,-3,5,12,1,-2,4
1532295199826,1,-3,-3,-9,-12,-3,0,-5
1532295199831,-2,4,6,0,2,0,7,4
1532295199836,2,-2,-7,-6,-3,-3,0,-3
1532295199841,-3,-5,-9,0,1,-1,2,1
1532295199846,-5,4,12,-1,-3,-1,-2,-6
1532295199851,-2,-3,-3,-5,-2,5,5,2
1532295199856,-10,0,-1,5,5,-2,2,3
1532295199861,3,1,5,-3,-6,-2,-1,2
1532295199866,-11,-4,-3,-2,0,2,-4,-1
1532295199871,1,-3,-3,-7,-3,-5,-6,-4
1532295199876,0,-4,-2,-3,-3,-2,-3,-4
1532295199881,-3,-1,-4,2,-1,2,10,0
1532295199886,2,2,0,6,5,-1,2,1
1532295199891,7,1,0,2,3,-1,-1,5
1532295199896,-7,-2,-5,-5,1,-6,-6,1
1532295199901,-2,-3,-6,-4,-6,9,42,-1
1532295199906,-2,1,-1,-4,-7,-5,-4,1
1532295199911,4,-2,-4,-2,-4,0,-1,0
1532295199916,3,0,1,1,-3,2,8,0
1532295199921,7,-2,0,-1,2,-7,-14,2
1532295199926,-9,-5,-1,-1,2,-1,-4,-1
1532295199931,1,9,0,3,3,-2,5,-2
1532295199936,9,1,-3,-5,-9,-3,-7,1
1532295199941,-10,-4,0,-2,-2,0,-9,-3
1532295199946,-4,-1,-2,3,6,5,3,-2
1532295199951,-2,-3,-2,-4,-6,-6,-11,-2
1532295199956,-4,1,1,-1,1,0,1,-1
1532295199961,2,-1,-3,-5,2,0,-8,-1
1532295199966,-2,0,-4,-2,-6,-2,1,-1
1532295199971,-1,-2,-5,3,7,1,1,1
1532295199976,0,1,8,0,-1,2,5,2
1532295199981,-5,-2,0,-1,-5,-2,-6,-3
1532295199986,-1,-3,-2,0,1,-2,-6,0
1532295199991,0,8,8,-2,-2,-2,3,0
1532295199996,10,0,-2,-2,-2,0,2,3
1532295200001,-3,-4,-4,-1,1,-5,-6,-3
1532295200006,0,-1,-7,-10,-2,-1,-3,0
1532295200011,4,0,-1,-1,-7,-5,-4,1
1532295200016,-1,2,3,5,2,0,0,2
1532295200021,-3,-2,1,2,2,-2,-8,-2
1532295200026,-3,-3,1,1,1,3,0,-3
1532295200031,-3,-2,-5,1,-1,1,-3,-2
1532295200036,3,2,2,-1,1,0,-2,1
1532295200041,-3,-5,-3,-1,4,1,-3,-3
1532295200046,0,0,-2,-2,-7,-5,2,-1
1532295200051,-3,0,0,2,-1,-1,-1,1
1532295200056,-5,-5,-1,-3,-5,0,3,-4
1532295200061,2,-1,-5,-9,3,-2,3,-3
1532295200066,4,-4,0,3,-7,0,2,-1
1532295200071,-3,1,-14,0,3,2,3,-1
1532295200076,-7,3,14,3,11,1,0,-5
1532295200081,3,0,-1,1,-13,0,2,1
1532295200086,-12,-2,1,-6,2,0,-2,-3
1532295200091,-1,1,-2,-2,-8,-2,-3,-2
1532295200096,-1,-4,-10,-1,2,1,0,1
1532295200101,4,2,-1,4,5,1,1,1
1532295200106,0,1,4,1,0,-4,-2,1
1532295200111,-5,-2,2,-2,-1,-1,-2,-4
1532295200116,5,0,-8,-2,-4,5,0,1
1532295200121,-5,-2,0,0,-1,13,0,0
1532295200126,-2,-2,-2,1,1,9,-2,-2
1532295200131,3,-2,-1,-3,1,2,-3,0
1532295200136,3,-3,2,2,-3,-3,-1,1
1532295200141,5,4,0,1,5,-5,0,0
1532295200146,-2,-1,-5,3,4,-3,0,0
1532295200151,-4,-4,1,-2,0,-6,-1,-3
1532295200156,6,-1,-1,-7,-13,-7,0,0
1532295200161,-3,1,0,1,-2,-6,1,-2
1532295200166,-4,-2,1,2,5,-3,-2,-2
1532295200171,2,1,-4,-1,-5,-4,-1,1
1532295200176,-5,-2,-3,2,0,-3,0,-2
1532295200181,12,0,2,-7,-5,-3,-2,2
1532295200186,-1,-1,-4,-2,-4,-2,-1,-2
1532295200191,2,-1,-1,0,-5,0,0,1
1532295200196,1,2,-2,3,8,1,-1,1
1532295200201,-9,-2,9,5,4,-2,1,-1
1532295200206,1,-2,-5,-9,-4,-2,-2,-2
1532295200211,10,-1,-1,-3,-5,-3,-3,1
1532295200216,-14,0,-1,-6,-7,-3,-1,0
1532295200221,-12,-6,-2,6,-6,-3,-12,-6
1532295200226,2,-1,3,5,11,1,-1,1
1532295200231,-1,1,-1,-7,-2,4,1,0
1532295200236,6,0,2,3,2,-1,3,2
1532295200241,0,1,-2,-4,-7,-1,3,0
1532295200246,7,-4,0,-3,-1,-3,0,2
1532295200251,-9,-1,2,3,-1,-1,-2,-3
1532295200256,14,2,-2,0,2,-2,0,3
1532295200261,-3,-3,-7,-6,0,-1,3,1
1532295200266,-2,3,4,4,-5,2,1,-2
1532295200271,-2,1,0,1,4,0,0,-1
1532295200276,-5,-4,-2,-3,5,3,-2,-4
1532295200281,-2,-3,-4,-3,-6,-3,0,-2
1532295200286,4,0,-4,-3,0,1,0,0
1532295200291,-3,-3,1,-4,-9,-1,-1,1
1532295200296,-16,-3,2,-1,-9,-7,-2,-5
1532295200301,29,4,1,5,5,-1,-1,6
1532295200306,-15,-4,-2,-3,-6,-3,-1,-4
1532295200311,10,2,1,1,-2,4,0,0
1532295200316,21,3,0,5,13,-1,-2,4
1532295200321,-14,-7,-7,-12,1,0,-1,-2
1532295200326,-3,-1,-7,-1,-16,-6,-2,-5
1532295200331,0,-2,3,-7,-6,-6,-1,-1
1532295200336,-3,-2,-1,-3,-6,3,-5,-3
1532295200341,-2,0,3,6,8,1,1,0
1532295200346,3,-4,-6,2,1,-2,-2,1
1532295200351,-6,0,-1,4,10,5,1,0
1532295200356,-6,0,-5,-1,0,0,-2,-1
1532295200361,1,-4,-8,-3,-5,-8,-1,-4
1532295200366,4,-1,7,-3,-1,-2,-1,3
1532295200371,-6,-3,-6,-1,-2,-3,-1,-3
1532295200376,-15,3,7,0,-3,0,-1,-7
1532295200381,1,0,0,1,-1,0,0,-1
1532295200386,-7,-4,-3,0,-1,0,-1,-2
1532295200391,7,5,4,6,7,1,2,5
1532295200396,-5,-1,-4,-2,4,-1,2,2
1532295200401,-11,-2,-1,-4,3,5,-1,-2
1532295200406,22,1,4,-1,-7,0,-1,4
1532295200411,-12,-5,-4,-6,-9,-3,-4,-1
1532295200416,6,-2,-4,-5,-5,-1,0,-1
1532295200421,-5,1,-1,0,-11,-6,0,1
1532295200426,-5,-1,-1,6,9,3,-2,-5
1532295200431,4,2,-5,0,-2,1,-2,0
1532295200436,4,-2,-1,-3,-5,-1,-2,1
1532295200441,5,0,3,0,0,0,0,4
1532295200446,-12,0,-3,0,10,4,0,-1
1532295200451,1,-1,-3,-1,1,-10,1,0
1532295200456,-3,-4,0,-2,-6,8,0,2
1532295200461,-3,0,-3,1,2,4,-1,0
1532295200466,10,3,-4,0,0,0,-2,5
1532295200471,-1,-1,2,0,8,5,-1,-4
1532295200476,2,-2,2,-2,-3,-12,3,0
1532295200481,-4,-4,1,3,0,6,2,-1
1532295200486,-3,2,2,-6,-6,-7,2,-3
1532295200491,3,-3,-1,-4,-1,0,-1,0
1532295200496,0,-2,-1,2,5,1,-1,-3
1532295200501,-3,-1,-1,2,1,2,1,-4
1532295200506,-2,-1,1,1,1,-3,1,-2
1532295200511,-1,-1,-1,-4,-8,-1,-2,-2
1532295200516,-2,1,-2,-1,-2,0,0,-1
1532295200521,0,1,0,1,1,-1,-2,-2
1532295200526,-1,0,1,0,-3,2,-1,-1
1532295200531,0,0,-4,1,8,-2,0,0
1532295200536,2,-5,0,-4,-2,1,-1,0
1532295200541,-5,0,3,-1,-3,0,-2,-3
1532295200546,-4,2,-3,-3,-2,-2,-2,-2
1532295200551,-5,1,-1,3,-6,-1,-2,0
1532295200556,2,1,1,2,-2,0,-1,3
1532295200561,-4,-3,-3,1,8,-3,1,-2
1532295200566,-5,-3,-1,1,0,0,-2,-5
1532295200571,-3,-3,-1,-1,6,1,-1,-5
1532295200576,2,-1,-1,-4,-13,-6,0,-2
1532295200581,1,0,1,-2,0,0,-2,3
1532295200586,-4,-3,-2,-1,2,-1,0,0
1532295200591,4,-3,1,-2,-5,-1,-2,-1
1532295200596,-3,0,1,1,4,2,0,1
1532295200601,-1,1,1,3,-4,-2,-1,0
1532295200606,1,1,1,0,-3,1,0,1
1532295200611,3,-1,0,0,10,0,-1,0
1532295200616,-2,-1,-2,3,3,0,2,-2
1532295200621,2,0,-3,-7,-10,-3,0,-2
1532295200626,0,-4,1,0,-1,0,-1,-1
1532295200631,-12,-5,-3,-1,-13,2,0,-2
1532295200636,6,8,6,0,0,-4,-2,-5
1532295200641,4,0,3,3,11,1,0,5
1532295200646,0,1,0,-1,-1,-1,-1,-2
1532295200651,-2,1,0,1,0,1,1,-1
1532295200656,-3,-6,-1,5,6,1,0,3
1532295200661,-3,-1,-16,-13,-8,-2,-2,-4
1532295200666,3,0,1,-10,-3,-4,-3,0
1532295200671,-1,-3,3,0,-6,-2,-1,1
1532295200676,-2,0,1,4,4,1,2,0
1532295200681,3,0,1,2,-1,0,1,2
1532295200686,-3,-2,-3,3,2,0,0,2
1532295200691,1,1,-1,-1,1,-2,-2,-1
1532295200696,3,0,-1,-2,-4,2,1,2
1532295200701,-4,-1,1,3,6,1,1,-3
1532295200706,-5,-2,-2,-1,-3,0,-1,-1
1532295200711,15,1,2,1,-2,-1,-1,2
1532295200716,-1,-1,-3,-5,-1,-2,-2,-1
1532295200721,-2,-1,4,5,-2,-2,0,-1
1532295200726,0,1,-1,4,3,1,1,-1
1532295200731,2,0,-4,-12,-4,-7,2,2
1532295200736,-7,-6,-9,-6,-5,-1,-5,-3
1532295200741,-2,-3,7,-2,0,-1,-1,-4
1532295200746,11,4,0,3,4,0,0,4
1532295200751,2,0,0,7,10,5,0,2
1532295200756,-1,0,-2,1,4,-3,1,-1
1532295200761,-9,0,-3,-2,-9,-2,-1,-2
1532295200766,-2,-2,-1,-3,-2,0,0,1
1532295200771,-9,-2,4,-1,-6,0,0,-4
1532295200776,-4,-2,0,-1,-5,-2,-1,-2
1532295200781,-3,-3,-5,-1,-3,0,0,-3
1532295200786,1,1,0,1,4,-2,-1,1
1532295200791,-4,-3,-2,3,-4,-1,1,-1
1532295200796,-3,-2,2,-3,-3,2,-3,-2
1532295200801,9,1,-1,1,9,-6,-2,0
1532295200806,-3,-4,-5,-4,-11,0,0,0
1532295200811,-4,-2,-5,0,-4,-1,0,-4
1532295200816,9,0,2,6,8,-1,0,4
1532295200821,2,3,1,-4,-6,-1,-4,1
1532295200826,12,0,-3,-1,4,0,-2,-2
1532295200831,-4,-5,-8,2,9,0,-2,-2
1532295200836,1,4,7,-5,-9,-1,-3,-1
1532295200841,3,1,6,-1,-2,-3,-1,1
1532295200846,-7,-5,1,0,8,1,2,-2
1532295200851,4,0,0,-6,-9,-1,-5,0
1532295200856,-1,-3,-5,4,-3,1,0,0
1532295200861,-5,-3,-6,-1,0,1,1,-4
1532295200866,9,2,12,8,-6,-1,3,2
1532295200871,-4,-1,-6,-9,-2,-5,-2,-2
1532295200876,-4,0,0,-7,-3,-1,0,-2
1532295200881,0,0,1,6,-1,3,3,5
1532295200886,-8,-4,-4,3,5,-2,-2,-6
1532295200891,2,2,-1,-7,1,-2,-1,5
1532295200896,-3,0,0,-1,-4,-1,-2,-8
1532295200901,-6,-3,1,3,-6,1,0,1
1532295200906,-6,1,1,0,1,0,0,0
1532295200911,-2,-2,0,-3,-10,-6,-1,-4
1532295200916,22,1,-4,-4,-1,0,-1,3
1532295200921,-7,-5,-7,-7,2,2,0,-2
1532295200926,-5,2,14,5,0,1,0,-3
1532295200931,-6,-3,-6,3,3,-1,-1,0
1532295200936,-5,-4,-8,-7,0,-1,3,-1
1532295200941,10,5,4,-2,-4,-3,-1,0
1532295200946,-3,1,-4,-2,-7,-1,-1,-2
1532295200951,-2,-1,1,4,5,1,1,-1
1532295200956,-3,-1,1,-1,3,-2,-1,-3
1532295200961,2,-4,-2,0,6,3,-1,-2
1532295200966,-10,-5,-16,-2,-5,-2,0,-2
1532295200971,3,6,3,3,-13,-2,-2,0
1532295200976,6,2,5,2,0,0,1,6
1532295200981,-4,-4,-4,-6,-2,-2,-2,-1
1532295200986,2,-1,-2,-6,8,4,-1,2
1532295200991,-1,2,9,12,6,4,0,3
1532295200996,-17,-5,-7,-3,-7,-2,1,-1
1532295201001,11,1,-2,2,3,-4,0,0
1532295201006,3,-1,-2,-5,-4,-2,0,1
1532295201011,0,3,0,3,5,2,-3,1
1532295201016,-6,-1,-1,1,4,-1,-1,-4
1532295201021,6,6,6,-2,-5,1,1,2
1532295201026,-8,-8,-4,-1,1,-4,-3,-4
1532295201031,2,-1,2,-2,-1,0,-1,0
1532295201036,-2,-1,-1,-2,-1,-2,-1,-2
1532295201041,-8,-4,-5,1,-1,-1,1,-4
1532295201046,3,4,2,-3,-3,-1,-11,3
1532295201051,3,-1,-3,-4,-1,0,9,1
1532295201056,-5,-2,1,2,-2,2,-1,4
1532295201061,-4,-5,-5,-2,-2,-2,0,-1
1532295201066,-6,-1,0,-3,-4,-6,-2,-5
1532295201071,1,3,5,0,2,-1,-4,-2
1532295201076,-1,1,-3,5,2,-2,-3,0
1532295201081,3,-3,-3,-5,5,0,-2,-1
1532295201086,-2,-3,-9,-7,-10,0,2,-1
1532295201091,0,-3,-6,-3,-7,-1,-2,-3
1532295201096,-4,1,3,1,1,-2,1,1
1532295201101,9,3,4,6,9,1,-2,0
1532295201106,1,4,4,6,7,0,-2,1
1532295201111,2,1,2,4,12,1,4,0
1532295201116,1,-2,-4,-4,3,0,-2,0
1532295201121,-1,1,3,0,-9,1,2,2
1532295201126,3,-1,-2,-8,-7,-4,-1,-1
1532295201131,-5,-3,-1,5,-6,0,-3,-1
1532295201136,-3,-2,-2,-2,7,-1,0,-3
1532295201141,3,0,-2,2,2,-1,-1,0
1532295201146,-10,1,4,3,-1,1,1,-1
1532295201151,10,0,0,-2,-1,-1,-4,-1
1532295201156,4,2,0,-5,-7,-3,-1,3
1532295201161,-8,-4,-4,-4,-1,-1,0,-4
1532295201166,-1,-1,-2,-2,1,1,-1,1
1532295201171,-6,-5,-2,-4,8,0,-1,-1
1532295201176,3,4,-2,5,-3,0,-1,-2
1532295201181,1,-1,5,3,-6,-2,-1,2
1532295201186,0,-4,-2,0,7,1,2,-3
1532295201191,-2,-2,-1,-4,1,-1,0,-3
1532295201196,1,-2,-1,1,-10,-3,-2,1
1532295201201,-6,-1,-4,-2,-1,-2,-1,-2
1532295201206,3,-1,-1,0,-4,-1,-1,-1
1532295201211,3,1,1,1,1,-1,1,0
1532295201216,-5,0,1,2,0,1,0,-3
1532295201221,-1,-2,-3,-2,-2,-2,-3,0
1532295201226,-4,-1,2,2,6,1,0,-3
1532295201231,-7,0,-5,3,5,0,-1,-1
1532295201236,9,0,1,-8,-1,1,0,-2
1532295201241,-7,-4,-3,-12,1,-4,-2,2
1532295201246,2,-3,-10,-1,-12,-2,-4,-2
1532295201251,-17,-2,-6,-1,-10,-1,1,-5
1532295201256,16,4,8,7,14,1,0,6
1532295201261,1,0,7,3,-5,-1,-1,-1
1532295201266,6,0,-4,-3,8,-5,-2,2
1532295201271,-5,-5,4,-5,-9,-5,-4,0
1532295201276,-17,-3,-5,2,-7,4,-4,-6
1532295201281,18,2,0,5,8,1,2,1
1532295201286,-1,-1,-1,-2,1,2,0,-1
1532295201291,2,-3,-2,-2,-4,-3,-2,1
1532295201296,-1,0,4,-1,-5,-3,-2,-5
1532295201301,4,3,-2,3,-2,-1,1,4
1532295201306,-9,-4,1,-3,-4,-5,0,-7
1532295201311,0,0,-6,-6,1,1,1,-5
1532295201316,-4,-3,-3,-5,-1,-2,2,0
1532295201321,-2,-1,-5,5,-3,3,1,-2
1532295201326,2,2,4,-1,-5,1,4,0
1532295201331,0,2,2,0,5,1,2,-2
1532295201336,-2,-6,-9,1,13,2,1,-1
1532295201341,-6,-2,-2,-2,-7,-3,1,-3
1532295201346,-8,0,2,3,2,0,2,3
1532295201351,11,2,-1,1,2,0,3,-1
1532295201356,0,0,2,-2,-4,-4,-3,1
1532295201361,-6,-2,-3,-5,-3,3,-1,-1
1532295201366,-10,-7,-4,0,-3,0,-5,-1
1532295201371,-2,6,9,2,1,-2,-2,-3
1532295201376,1,1,1,4,12,2,-1,3
1532295201381,4,-1,0,5,-3,1,0,-4
1532295201386,4,1,-1,-8,0,-5,1,0
1532295201391,-4,-6,-11,-11,-13,-3,1,1
1532295201396,-7,-3,0,-1,-8,-7,-1,-2
1532295201401,-8,0,-2,3,11,4,1,0
1532295201406,9,1,-6,4,-5,3,-2,2
1532295201411,-2,0,5,1,6,-4,-6,-1
1532295201416,0,0,-1,-2,-6,3,-1,-1
1532295201421,-11,-1,1,-1,0,-3,-5,-2
1532295201426,2,0,1,5,2,1,0,-1
1532295201431,-1,0,-3,-5,0,0,-2,1
1532295201436,0,-3,-2,-6,-11,0,-2,-2
1532295201441,3,1,-2,1,-1,-1,-3,0
1532295201446,5,1,4,1,3,-1,-3,1
1532295201451,-4,0,-1,-5,1,0,-2,-1
1532295201456,-8,-5,-3,5,-6,-1,-4,-3
1532295201461,0,2,-2,-6,2,-5,-1,-1
1532295201466,-8,0,6,-6,-4,0,-5,-7
1532295201471,3,-1,-3,3,-8,-2,-2,-2
1532295201476,1,0,-2,4,3,1,1,3
1532295201481,-6,-1,5,0,2,-2,0,-3
1532295201486,8,0,-1,-3,-1,-2,1,2
1532295201491,-1,-1,-1,3,3,4,1,3
1532295201496,-1,1,0,2,-4,-1,0,-2
1532295201501,-4,-3,-4,0,2,0,-1,-2
1532295201506,-7,-1,-7,-6,0,0,2,-4
1532295201511,-1,-2,0,-1,2,0,-1,-5
1532295201516,1,0,0,-2,-8,-3,0,0
1532295201521,7,-1,1,-2,3,1,1,1
1532295201526,0,-1,1,9,-2,-2,-1,5
1532295201531,1,1,-9,-3,-3,-6,-3,-2
1532295201536,-3,-1,3,-9,2,-2,2,-3
1532295201541,2,-3,-3,-6,-7,-6,-2,-2
1532295201546,2,0,2,0,-4,0,-2,-1
1532295201551,-2,1,-1,11,0,6,1,2
1532295201556,3,-1,-1,3,21,0,0,1
1532295201561,-5,-2,-5,-9,-14,-2,-2,-3
1532295201566,1,-1,-1,0,-1,-2,0,-1
1532295201571,-10,-2,4,-2,3,2,0,-3
1532295201576,14,1,-1,-1,-11,-2,-4,2
1532295201581,3,5,-4,11,27,9,3,-2
1532295201586,0,-3,-2,-6,-15,-13,-3,2
1532295201591,-1,-4,-3,-8,-1,-5,0,-4
1532295201596,-9,-3,-1,-1,-2,2,1,0
1532295201601,14,2,4,9,1,0,0,2
1532295201606,0,1,-4,5,3,-1,3,-1
1532295201611,-4,-7,-9,-14,-6,-5,-4,-4
1532295201616,0,3,5,-4,-11,-4,-1,1
1532295201621,1,1,1,-1,1,0,-2,2
1532295201626,-5,-3,-1,-3,1,2,-1,-5
1532295201631,2,-5,2,5,2,1,0,2
1532295201636,-5,5,2,2,3,-1,0,-7
1532295201641,-7,0,0,3,-5,-3,-4,0
1532295201646,3,1,-5,1,5,2,1,0
1532295201651,-5,-1,-1,0,8,0,-1,-3
1532295201656,4,-2,-2,-2,2,1,2,2
1532295201661,-8,-5,-3,-11,-8,-6,-2,-3
1532295201666,-11,-6,4,-6,-3,1,-3,-6
1532295201671,3,4,-8,6,-3,1,1,4
1532295201676,-4,2,1,3,0,0,-2,-2
1532295201681,4,1,3,2,6,-2,1,-1
1532295201686,-1,-2,-3,-6,2,-1,0,1
1532295201691,-2,-1,5,-2,-11,0,1,0
1532295201696,6,-2,-4,-4,5,0,1,2
1532295201701,-8,-6,-5,-3,-8,-2,-1,-2
1532295201706,9,3,4,1,-3,0,-3,1
1532295201711,12,4,4,4,3,1,-3,3
1532295201716,-2,-2,-1,2,1,-1,-2,2
1532295201721,-2,-7,-6,-11,-4,-1,-5,-5
1532295201726,-7,0,1,3,2,0,3,6
1532295201731,0,-1,2,-3,1,-4,3,1
1532295201736,2,-1,-5,-4,-9,5,0,-4
1532295201741,0,-1,6,3,4,-4,-8,4
1532295201746,-4,-1,-1,1,7,11,6,-2
1532295201751,2,0,-2,2,-2,-8,-3,-5
1532295201756,-10,-5,-1,1,-4,6,1,-4
1532295201761,0,2,-7,-12,-12,-5,2,3
1532295201766,11,5,2,3,-3,-4,-5,2
1532295201771,-3,-4,0,1,6,2,3,0
1532295201776,0,0,-9,1,0,-4,0,1
1532295201781,2,5,3,7,3,2,2,0
1532295201786,-5,-4,-3,-7,8,2,-2,-2
1532295201791,-2,1,1,-3,-7,-4,0,1
1532295201796,4,-3,-6,-8,-3,-14,-6,0
1532295201801,-5,-4,-6,-1,-8,2,4,-4
1532295201806,-4,-1,7,4,2,-2,1,-4
1532295201811,-7,1,3,0,-3,2,-3,-4
1532295201816,-2,2,2,-2,2,-1,0,-2
1532295201821,0,-1,-2,0,1,2,1,-2
1532295201826,0,2,-1,-2,0,-2,0,-2
1532295201831,-2,-5,-2,-1,1,3,-3,0
1532295201836,-2,-1,4,5,2,3,3,-1
1532295201841,4,-1,-2,-9,1,-1,0,-2
1532295201846,-12,-6,-9,-2,-5,0,-2,0
1532295201851,4,2,3,1,2,-4,1,-3
1532295201856,0,5,1,-3,-4,1,0,2
1532295201861,-2,-2,3,6,-3,-1,-4,-4
1532295201866,-11,-1,-4,-2,0,-4,1,0
1532295201871,-5,-2,-1,-5,-9,-5,-2,-2
1532295201876,3,0,9,4,8,2,1,1
1532295201881,-8,-4,-9,-10,-3,-1,2,-4
1532295201886,3,0,5,1,3,-1,-6,-2
1532295201891,-3,-2,-4,1,0,3,0,-1
1532295201896,-5,-1,-4,-5,-6,-1,-3,-3
1532295201901,1,0,1,3,-1,-1,-1,0
1532295201906,10,3,-1,0,-4,-3,0,4
1532295201911,-17,-2,1,5,9,1,-1,-5
1532295201916,10,-3,0,0,5,-3,-3,4
1532295201921,-1,1,-1,-3,-7,-3,-1,-2
1532295201926,-2,-2,-5,-1,0,-2,0,-4
1532295201931,13,1,-1,-2,-5,0,0,6
1532295201936,-4,3,5,5,2,-1,-1,-1
1532295201941,-4,-2,-1,0,3,1,-1,2
1532295201946,-4,-3,-9,-7,0,-4,-3,-4
1532295201951,2,-1,-1,-10,-8,-2,2,1
1532295201956,-4,-3,-8,-7,-4,-2,-1,-3
1532295201961,3,-1,3,4,-7,-3,-1,1
1532295201966,0,1,5,5,1,3,0,-1
1532295201971,2,0,-5,3,7,-1,-2,0
1532295201976,0,0,7,-4,-1,-3,0,-1
1532295201981,-7,-2,-1,-2,-3,2,-2,-1
1532295201986,4,2,0,-3,-5,-3,-1,-3
1532295201991,1,1,-5,9,7,2,2,3
1532295201996,-7,-5,-4,0,-2,0,-3,-5
1532295202001,9,1,-8,-5,-11,-7,0,6
1532295202006,-5,-5,-1,-5,-2,3,0,-5
1532295202011,-8,3,4,-1,2,6,-1,-1
1532295202016,4,-1,-2,1,3,0,-2,0
1532295202021,0,-4,-3,-1,-5,-1,-1,-1
1532295202026,5,1,0,-2,-6,-7,-1,1
1532295202031,-6,-4,-1,-4,-5,6,3,0
1532295202036,-5,-3,-8,-1,1,1,0,0
1532295202041,2,1,13,3,5,1,-3,-2
1532295202046,-5,0,1,5,0,0,1,1
1532295202051,3,-1,3,3,10,1,-2,-2
1532295202056,-1,-1,-4,0,3,2,0,-1
1532295202061,3,-6,-8,-4,-4,-2,2,0
1532295202066,-7,1,0,3,-2,-1,-4,-1
1532295202071,22,5,13,-4,-12,-7,-5,-1
1532295202076,0,0,-1,0,0,2,-1,0
1532295202081,-2,1,1,7,8,2,3,0
1532295202086,2,-3,-2,-3,-10,-4,1,-1
1532295202091,-13,-4,-9,-5,-2,-3,-3,-4
1532295202096,15,2,3,5,1,-2,-1,4
1532295202101,0,0,2,-4,3,-2,-2,-1
1532295202106,-1,0,-8,2,7,1,1,1
1532295202111,-4,0,-2,-2,-10,-2,1,0
1532295202116,-3,0,-4,3,3,2,1,-3
1532295202121,-1,1,-1,-2,2,0,-2,2
1532295202126,-2,-1,1,-3,4,-1,-2,0
1532295202131,0,-2,-7,-1,-5,-5,-3,-1
1532295202136,-2,0,2,-4,-4,-3,0,2
1532295202141,-1,-1,1,5,-8,2,-1,-3
1532295202146,-9,-2,-1,-3,1,-1,-1,-8
1532295202151,21,-5,-5,-5,-3,-2,-1,5
1532295202156,-11,0,-3,-4,-4,-1,0,-6
1532295202161,17,3,1,1,14,1,0,6
1532295202166,-1,0,2,3,-9,2,-2,0
1532295202171,-8,-1,2,3,8,-2,1,-2
1532295202176,13,3,-1,-3,-2,1,-1,4
1532295202181,-9,-5,-3,-3,2,-1,0,-5
1532295202186,-2,2,-5,-2,-4,-2,-1,-3
1532295202191,1,6,15,8,4,3,3,1
1532295202196,-10,-2,1,4,2,3,0,0
1532295202201,10,-2,-7,-13,-10,-9,-3,-1
1532295202206,3,-4,6,-4,-8,-2,2,2
1532295202211,-9,-2,-13,3,6,0,-2,-3
1532295202216,-10,-1,4,-2,-3,1,-2,-4
1532295202221,-8,-2,-5,3,0,-2,1,-1
1532295202226,-4,-1,0,-6,-2,-2,-2,-3
1532295202231,5,3,3,2,-2,-5,-1,3
1532295202236,0,-5,-7,-10,-7,-1,1,-1
1532295202241,-3,1,8,3,1,0,0,-2
1532295202246,7,0,3,8,12,3,0,4
1532295202251,-17,-4,-12,-1,-2,-2,0,-2
1532295202256,10,3,4,-2,-2,-1,0,2
1532295202261,-6,0,1,-7,-8,-1,-3,-3
1532295202266,-3,-1,1,2,-2,-1,1,1
1532295202271,-5,-4,1,3,10,1,-3,-2
1532295202276,-2,1,-1,3,1,1,-1,1
1532295202281,4,0,-1,4,6,4,1,1
1532295202286,-2,-2,-14,-5,-8,-5,1,1
1532295202291,3,-6,-11,-15,-10,-5,0,-5
1532295202296,-19,2,23,0,-11,-6,0,-5
1532295202301,11,4,-3,7,15,4,-1,0
1532295202306,5,-2,-3,3,5,2,-1,0
1532295202311,0,0,-1,-9,-8,-5,-4,1
1532295202316,0,-4,-9,6,14,0,-1,-2
1532295202321,-16,-6,0,-5,-6,-3,-2,-1
1532295202326,8,1,2,-7,-1,-1,-3,-6
1532295202331,7,0,-3,7,-5,0,0,4
1532295202336,5,1,-4,1,5,0,-2,-2
1532295202341,-11,3,6,-2,-20,-4,-1,-4
1532295202346,0,-6,-5,-9,-9,-7,-2,-4
1532295202351,-13,-1,0,-5,-7,5,4,-1
1532295202356,3,-3,-3,-1,1,-1,-3,0
1532295202361,-1,2,1,7,1,-1,1,2
1532295202366,1,-1,0,-5,5,2,-2,-1
1532295202371,-11,-1,4,4,-5,2,1,-1
1532295202376,5,-3,-3,-1,1,-3,1,3
1532295202381,-4,-8,-11,-4,6,1,0,-5
1532295202386,-3,7,15,6,0,0,0,5
1532295202391,0,3,0,4,6,-1,-3,-4
1532295202396,-4,-1,-7,-6,-3,-3,1,0
1532295202401,1,0,-1,-2,-1,-2,-2,-1
1532295202406,4,-4,-3,1,-6,-6,4,4
1532295202411,-4,0,4,0,14,1,0,-2
1532295202416,7,-3,-1,0,-14,-2,2,-1
1532295202421,-15,-3,-4,-8,-3,-2,-2,-3
1532295202426,-3,-3,-3,2,1,0,-1,-3
1532295202431,8,3,-1,-1,1,2,0,2
1532295202436,-5,0,11,7,5,1,-1,-1
1532295202441,1,3,6,5,4,-2,3,1
1532295202446,-9,-1,-7,-10,-6,-2,1,-2
1532295202451,3,-3,0,1,-6,-2,-3,-1
1532295202456,-3,-3,-5,1,-2,-1,0,1
1532295202461,3,-4,-1,0,15,4,-1,-1
1532295202466,-1,0,0,-3,-3,0,1,1
1532295202471,3,-4,-3,-9,-10,-1,-2,-1
1532295202476,-11,-3,1,-2,-12,-4,-5,-1
1532295202481,12,6,-7,2,1,0,2,2
1532295202486,13,6,11,6,6,-2,-4,3
1532295202491,-4,-1,1,-1,6,7,2,-2
1532295202496,4,-5,-11,-1,-7,-3,0,0
1532295202501,-9,-1,10,0,3,0,1,-4
1532295202506,1,3,0,0,-4,0,1,1
1532295202511,4,-1,1,-4,-2,-3,-2,2
1532295202516,-5,-2,1,-4,2,1,-2,-3
1532295202521,2,-3,-10,-2,-8,-1,0,-1
1532295202526,1,0,2,6,5,-2,2,-2
1532295202531,7,1,3,1,6,1,1,-1
1532295202536,-3,-3,-12,-3,5,1,1,2
1532295202541,-6,-5,-4,-3,-10,-2,-2,-5
1532295202546,-10,0,0,4,-2,-2,-3,0
1532295202551,3,2,0,1,-4,2,0,1
1532295202556,17,1,-1,-7,-3,-5,0,0
1532295202561,0,0,-1,-4,-1,0,-1,2
1532295202566,-9,-2,0,6,17,8,0,-3
1532295202571,-4,-1,1,6,-5,-4,-2,0
1532295202576,0,-3,-8,-11,-16,-6,-2,0
1532295202581,-1,2,6,-5,-1,-2,-2,1
1532295202586,-1,-8,-14,-5,4,0,-2,-3
1532295202591,-3,2,10,0,5,0,-1,-5
1532295202596,5,4,7,8,4,7,0,-1
1532295202601,1,-1,0,7,4,-1,0,-2
1532295202606,1,0,-5,-5,6,2,-1,0
1532295202611,1,-6,-7,-10,-14,-8,0,-1
1532295202616,-14,-4,-2,-1,-2,-1,-2,-2
1532295202621,0,-2,0,0,-1,0,0,-1
1532295202626,2,0,1,-1,1,-1,-1,1
1532295202631,-9,-1,0,0,2,-1,0,-4
1532295202636,3,-1,-8,-2,-5,-1,-1,3
1532295202641,9,0,-4,1,-5,0,-4,-1
1532295202646,-3,-2,-1,-1,12,2,-1,-6
1532295202651,-1,1,-3,-7,-10,-4,-3,2
1532295202656,0,-2,0,2,5,0,0,-4
1532295202661,-7,-4,-4,-6,-5,-2,1,-1
1532295202666,1,0,3,2,-12,-1,0,0
1532295202671,2,5,7,3,1,-2,0,0
1532295202676,-5,-1,-1,3,10,2,0,-2
1532295202681,0,-3,-4,1,4,3,-2,0
1532295202686,3,-1,-1,-1,-8,-2,-1,-1
1532295202691,-7,-4,-4,-7,3,-2,-2,-2
1532295202696,-1,-4,-3,-7,-4,-3,-3,-3
1532295202701,1,4,20,2,-4,-4,-2,-3
1532295202706,1,0,-19,-3,-4,3,-4,0
1532295202711,1,-4,-3,6,0,0,-2,-2
1532295202716,6,1,3,5,6,0,-3,5
1532295202721,-2,-4,-3,-5,2,-1,1,-3
1532295202726,-10,2,5,5,2,-4,2,0
1532295202731,12,3,0,4,9,5,4,0
1532295202736,-5,1,-15,-8,0,-3,3,-4
1532295202741,2,1,0,1,0,1,2,3
1532295202746,0,0,7,-2,-10,-3,1,2
1532295202751,-12,-4,-7,4,4,0,0,-1
1532295202756,1,1,1,7,2,-1,-1,-1
1532295202761,0,-4,-7,-7,4,0,0,0
1532295202766,-1,-3,-1,-5,-5,-1,-2,-3
1532295202771,1,-3,-5,-4,-3,-1,-3,0
1532295202776,-4,2,24,5,-6,-1,-1,-1
1532295202781,-6,-1,-26,1,3,-2,-1,-1
1532295202786,9,2,11,-6,-5,-1,-3,3
1532295202791,-3,-1,0,4,4,-2,-1,-1
1532295202796,0,-1,1,4,5,3,1,1
1532295202801,-14,-3,-2,-12,-1,-4,-4,-6
1532295202806,10,-2,-8,-5,-6,-2,0,5
1532295202811,-20,0,-1,-3,-8,-1,-3,-5
1532295202816,31,4,0,4,3,0,0,4
1532295202821,-1,1,3,6,1,0,1,2
1532295202826,0,-1,-2,1,1,1,1,-4
1532295202831,6,2,3,2,4,-3,0,4
1532295202836,-13,-5,-4,-12,1,-1,0,-5
1532295202841,4,-1,-4,-2,-6,0,0,4
1532295202846,-6,-2,-2,-2,-4,-1,-3,-6
1532295202851,-1,-4,-6,-6,-1,1,-3,-5
1532295202856,-9,1,-2,0,-4,-3,-2,-3
1532295202861,9,-1,15,7,8,2,-1,3
1532295202866,-12,7,1,-1,0,1,-1,-6
1532295202871,3,-2,2,2,-7,-3,-2,1
1532295202876,-4,-7,-20,-5,-2,-2,-1,-2
1532295202881,-2,-1,1,-2,4,3,-1,-3
1532295202886,-2,-4,4,4,3,0,1,1
1532295202891,-14,-2,-8,4,5,0,0,-2
1532295202896,24,5,8,-9,-2,-3,0,5
1532295202901,-2,-1,-9,-4,-14,-5,-3,1
1532295202906,1,0,3,3,0,-1,-1,0
1532295202911,2,2,0,2,17,7,3,0
1532295202916,22,-4,-5,-7,-7,0,-1,6
1532295202921,4,1,8,1,-4,-3,1,1
1532295202926,3,3,-4,0,0,4,3,-1
1532295202931,-18,-4,0,5,1,-6,-3,0
1532295202936,-1,-8,-13,5,20,2,-1,-4
1532295202941,4,11,8,-9,-24,-4,1,0
1532295202946,-5,-4,4,-14,-11,-6,-4,-4
1532295202951,10,3,1,4,2,-2,2,1
1532295202956,-6,1,6,7,6,3,1,2
1532295202961,3,-7,-6,-2,4,-3,-1,-2
1532295202966,-4,0,-5,-3,-4,-2,0,-2
1532295202971,-2,-4,-1,2,-3,0,0,0
1532295202976,-10,3,-1,-4,-4,-3,-1,-2
1532295202981,-8,-2,1,-8,-2,-3,-3,-6
1532295202986,-3,-5,-6,5,9,6,1,4
1532295202991,-2,-1,2,1,-3,-3,-1,-3
1532295202996,-5,2,4,-2,-3,-3,-2,-2
1532295203001,3,-3,-5,-1,-4,0,-1,2
1532295203006,-8,-4,-2,-4,0,2,0,-2
1532295203011,4,3,0,1,0,-1,1,3
1532295203016,6,0,0,0,1,0,-1,0
1532295203021,2,-1,-8,0,-2,-1,1,0
1532295203026,-3,2,6,5,8,-1,0,1
1532295203031,0,-2,6,-6,-11,0,-2,-5
1532295203036,4,-2,0,1,-2,-1,-2,1
1532295203041,-6,-2,-1,-7,2,-1,-3,-2
1532295203046,-2,-2,-3,3,-5,0,-1,-3
1532295203051,4,2,-4,5,15,2,0,1
1532295203056,3,2,0,-7,-17,-4,1,2
1532295203061,-6,-6,-5,-4,-4,-3,1,-2
1532295203066,-5,-2,0,1,-4,-7,-4,-4
1532295203071,-5,4,2,0,4,4,0,0
1532295203076,-4,-6,-9,2,-1,1,-3,-1
1532295203081,0,1,6,2,-1,1,0,0
1532295203086,-1,1,3,-1,5,2,1,0
1532295203091,5,-3,-7,-4,-6,-7,-1,0
1532295203096,18,2,9,-2,1,-1,0,2
1532295203101,-6,-4,-4,-2,-7,0,-2,-2
1532295203106,-4,-3,1,3,1,-2,-3,-1
1532295203111,-2,-1,1,1,-2,2,-2,2
1532295203116,0,-2,-13,0,8,-1,3,1
1532295203121,1,-2,-4,-8,-4,-4,-1,-1
1532295203126,3,4,8,-4,-6,-1,1,-4
1532295203131,3,2,0,0,-2,1,2,-1
1532295203136,-7,-2,3,0,-1,-1,-2,-5
1532295203141,5,-1,0,-3,-10,-3,1,1
1532295203146,-3,0,-6,-5,-6,0,-1,1
1532295203151,3,-3,0,-7,-10,-5,-3,0
1532295203156,-10,-2,1,-2,0,1,-1,-4
1532295203161,-2,1,-6,7,13,0,2,1
1532295203166,2,0,9,-1,1,3,-1,1
1532295203171,10,-1,-1,1,-1,-1,0,-1
1532295203176,-8,-2,-3,-2,-3,-3,-3,-5
1532295203181,-3,-1,7,-1,0,0,-2,-2
1532295203186,2,-2,-6,0,-1,1,-1,1
1532295203191,1,0,-2,0,0,-10,-4,0
1532295203196,-4,-3,-3,1,5,9,2,1
1532295203201,2,0,-2,-6,0,-2,-1,-1
1532295203206,-3,0,-1,4,7,1,-2,-1
1532295203211,0,-3,0,1,-4,-2,0,-2
1532295203216,-4,-1,-3,-12,-10,-6,-4,-2
1532295203221,-1,1,4,7,0,-1,-2,-3
1532295203226,1,-2,-3,-4,3,0,-1,2
1532295203231,-2,-2,-4,0,0,0,1,-1
1532295203236,0,3,3,6,8,-1,0,0
1532295203241,1,0,0,2,-3,0,0,-1
1532295203246,-1,0,-5,-3,-1,-5,-1,0
1532295203251,1,1,-1,0,3,5,0,-2
1532295203256,-1,-1,1,-4,-5,-1,-1,-2
1532295203261,1,-1,-2,-4,-1,-3,-3,-3
1532295203266,0,-1,-3,3,-6,-1,0,1
1532295203271,1,3,-3,-1,7,0,1,0
1532295203276,-2,3,8,1,3,-3,-7,-3
1532295203281,-2,-3,-5,-1,-6,3,0,1
1532295203286,-5,-1,1,2,1,0,-1,-2
1532295203291,0,-4,-3,-1,-3,5,-2,-1
1532295203296,-8,-4,-18,-9,-11,-7,2,0
1532295203301,11,-1,-2,5,-4,-3,0,2
1532295203306,-2,5,5,-4,3,-1,1,-2
1532295203311,8,5,7,6,3,1,0,-1
1532295203316,-9,-1,1,0,-6,0,0,-1
1532295203321,-10,-5,6,0,3,1,-5,-6
1532295203326,-11,-4,-7,-1,-4,0,0,-2
1532295203331,-1,-5,-2,-4,0,-3,-7,-1
1532295203336,0,-1,4,-1,1,-2,-2,0
1532295203341,-1,0,-4,1,2,1,0,0
1532295203346,0,1,1,-4,-11,-4,-4,-3
1532295203351,1,2,2,-3,-6,1,3,1
1532295203356,5,0,-3,2,-7,-1,-1,2
1532295203361,-6,-1,4,5,9,0,1,-1
1532295203366,-4,0,5,0,-3,-2,0,-4
1532295203371,-3,-1,-19,-9,-1,-3,-6,2
1532295203376,2,-1,1,0,-2,0,-1,-3
1532295203381,-2,-2,-5,-4,-3,2,2,-1
1532295203386,4,0,2,2,7,0,2,3
1532295203391,-4,5,10,5,3,0,1,-1
1532295203396,2,0,13,2,5,-2,1,-1
1532295203401,1,-2,-3,-4,-3,-3,0,-1
1532295203406,-2,-7,-8,-6,-3,0,3,-2
1532295203411,-10,-6,-7,-9,-6,-1,0,-2
1532295203416,20,1,0,10,-2,1,1,3
1532295203421,-6,1,-7,-7,-4,-3,-4,2
1532295203426,11,0,0,1,-5,-1,0,2
1532295203431,-4,0,-3,-4,2,-3,0,-2
1532295203436,-10,-1,-2,0,12,3,-1,-7
1532295203441,12,0,2,0,-10,-3,-1,4
1532295203446,-4,-2,-9,-2,1,0,-4,-1
1532295203451,-4,-3,1,3,6,-1,1,-4
1532295203456,8,0,2,-7,1,-3,-3,0
1532295203461,-2,-1,-1,1,0,-2,-2,-3
1532295203466,-1,4,5,4,9,5,1,0
1532295203471,4,-4,-4,1,-6,-2,0,1
1532295203476,-7,-5,-5,-8,0,-2,1,-2
1532295203481,-17,-1,7,6,0,-1,0,-2
1532295203486,36,10,1,-5,-10,-3,1,7
1532295203491,-12,-2,-3,2,-2,1,1,-1
1532295203496,2,-1,-5,-4,-4,-1,0,0
1532295203501,-10,0,0,-8,-3,-1,-1,-3
1532295203506,-17,-8,-6,8,8,0,-4,-7
1532295203511,5,3,5,1,-5,-2,-2,0
1532295203516,2,3,6,5,5,2,2,2
1532295203521,6,-1,10,4,2,-1,-1,0
1532295203526,-4,-1,-25,-9,-4,-1,-3,0
1532295203531,1,-3,-2,-8,-6,-3,-4,-3
1532295203536,-11,-4,2,2,1,-2,-3,-2
1532295203541,-2,1,4,-2,0,2,-1,0
1532295203546,-2,-2,14,5,-5,0,3,-4
1532295203551,-9,1,2,-7,-6,-2,-3,-2
1532295203556,2,-2,-3,0,-10,-5,-2,-3
1532295203561,4,1,-9,1,9,3,-1,3
1532295203566,2,-6,2,-2,-1,2,-7,-2
1532295203571,-10,3,-12,5,6,0,-10,3
1532295203576,21,2,-9,-2,4,-1,-11,4
1532295203581,-2,-7,-1,-4,-11,-4,-4,-7
1532295203586,-4,-4,-9,3,14,1,7,0
1532295203591,8,7,18,2,-5,2,9,1
1532295203596,-7,-4,-13,-7,-4,-5,3,-4
1532295203601,-1,4,4,-4,-6,-1,8,2
1532295203606,3,-7,-2,4,1,0,4,-1
1532295203611,4,-4,-7,2,-5,-4,4,0
1532295203616,8,15,10,-7,-4,-2,0,-3
1532295203621,1,-2,-9,4,7,-1,-3,-1
1532295203626,-11,0,1,-8,-6,-3,-7,-4
1532295203631,6,-3,-18,1,-1,2,0,-3
1532295203636,-6,0,22,16,27,7,3,7
1532295203641,-16,-5,-7,-6,-8,-3,-9,-9
1532295203646,2,7,19,3,-2,-3,-2,0
1532295203651,0,3,-6,-9,-8,-4,-4,-1
1532295203656,3,2,12,1,-4,-1,4,1
1532295203661,-4,-5,-21,4,16,5,3,3
1532295203666,-12,-4,-2,-2,-9,-4,-2,-4
1532295203671,3,-5,-12,-4,4,-4,0,-3
1532295203676,-4,-1,3,-11,-15,0,2,0
1532295203681,27,7,15,4,2,3,4,5
1532295203686,-6,-3,-15,-4,-4,-1,-2,-2
1532295203691,2,1,26,11,13,4,2,-1
1532295203696,-9,-4,-7,-6,-16,-2,-3,4
1532295203701,-9,0,19,-12,-5,-9,-8,-8
1532295203706,7,-2,-12,-8,-2,2,2,4
1532295203711,-2,-3,-6,2,-2,-1,-3,-1
1532295203716,-8,-6,-7,3,5,3,2,0
1532295203721,6,-1,5,6,3,0,0,1
1532295203726,0,3,-4,2,5,-1,-1,3
1532295203731,11,-8,-9,-12,-5,-3,0,-2
1532295203736,-13,1,-12,-3,-5,-2,-3,-7
1532295203741,2,3,-6,1,-4,-2,0,2
1532295203746,7,-2,6,-2,-2,0,1,-3
1532295203751,-9,-3,0,5,8,4,1,-2
1532295203756,-2,-2,-12,-2,-7,-1,-5,-5
1532295203761,9,3,4,1,2,-1,1,3
1532295203766,3,4,-1,6,1,-1,1,4
1532295203771,-6,-7,-4,-13,-13,-2,-2,1
1532295203776,-1,3,8,1,-1,-2,0,1
1532295203781,-4,-4,-16,-5,-7,-2,-3,-3
1532295203786,-14,-2,-2,-4,-3,-1,-5,-3
1532295203791,13,3,6,1,-2,2,-2,4
1532295203796,3,-4,2,8,16,2,-3,0
1532295203801,1,-1,-2,1,-9,0,1,3
1532295203806,-7,-5,-8,-9,-2,-5,-4,-3
1532295203811,-4,-2,6,4,4,2,-2,-5
1532295203816,-12,3,3,-6,-1,-2,0,-1
1532295203821,-4,-7,-5,-2,-7,0,0,-2
1532295203826,-2,-2,-2,4,11,1,-1,-2
1532295203831,17,7,12,2,2,-1,0,5
1532295203836,-2,-5,-7,-1,-7,-2,-1,-1
1532295203841,-6,-1,-7,-4,3,0,-3,-1
1532295203846,0,4,16,5,-1,0,-1,0
1532295203851,-5,-1,-3,-1,0,-4,-4,-1
1532295203856,2,-4,-8,4,3,1,-4,-2
1532295203861,3,0,3,-1,-3,-3,-3,-2
1532295203866,-3,0,3,-5,-4,0,1,-2
1532295203871,-1,-1,-4,3,-2,3,3,1
1532295203876,9,-1,-1,-7,-3,-1,3,2
1532295203881,-5,2,1,3,-2,2,5,1
1532295203886,-1,-1,-4,1,3,-5,1,-2
1532295203891,-8,-3,-2,-3,-4,-4,0,-3
1532295203896,2,-5,-13,-13,-8,-2,1,-4
1532295203901,-19,0,-4,-10,-6,-3,-4,-1
1532295203906,17,7,17,8,1,3,-1,1
1532295203911,-3,-2,9,4,6,-1,-2,-2
1532295203916,0,-2,-21,2,5,1,-1,2
1532295203921,1,-3,-3,-6,-4,-3,-1,0
1532295203926,-8,-2,-1,-5,3,3,-3,-1
1532295203931,-8,-2,-8,1,-5,-3,-2,-4
1532295203936,5,3,22,0,-5,0,-1,-1
1532295203941,0,1,4,1,4,-3,0,-2
1532295203946,-5,-3,-7,-2,-6,-1,-3,2
1532295203951,9,-1,-3,-2,-1,1,0,0
1532295203956,-8,-3,-4,-1,-1,-2,-3,-3
1532295203961,11,3,1,5,12,4,0,0
1532295203966,-5,-8,-1,-5,-11,-2,1,-3
1532295203971,-15,-1,-3,-4,4,-2,0,-3
1532295203976,4,0,-1,-3,-12,-2,-4,3
1532295203981,-3,5,2,5,3,0,-2,-3
1532295203986,-4,-4,-4,-2,-1,-2,-1,-4
1532295203991,-3,2,2,-6,3,-2,-1,0
1532295203996,5,-4,-3,3,1,-2,0,0
1532295204001,-1,-5,-8,-3,-2,-2,0,-2
1532295204006,-14,4,7,0,2,-1,-3,0
1532295204011,9,1,2,4,-5,0,-3,3
1532295204016,1,5,12,1,3,2,-1,-2
1532295204021,-5,1,-2,-3,-9,-3,-2,-4
1532295204026,2,-2,3,2,5,-2,0,0
1532295204031,0,-3,-2,-8,-5,0,-2,0
1532295204036,3,-4,-8,-2,-2,0,-1,1
1532295204041,3,5,0,0,1,1,1,4
1532295204046,1,0,-2,2,2,-1,-1,-3
1532295204051,-4,-2,21,4,-1,1,-1,-1
1532295204056,-2,0,-12,-8,-6,-7,-3,0
1532295204061,2,1,10,0,2,-3,0,-1
1532295204066,4,-1,-15,-4,-11,0,0,2
1532295204071,-3,2,3,3,5,1,3,0
1532295204076,-7,-3,-1,4,4,1,1,-2
1532295204081,-4,-3,-2,2,0,0,-2,0
1532295204086,3,1,-1,-2,3,1,1,1
1532295204091,-2,0,-1,0,-1,-2,-2,-4
1532295204096,-8,-5,0,3,-4,0,-2,-4
1532295204101,2,0,-1,4,3,-2,-2,-1
1532295204106,3,-2,-11,-6,3,-2,-2,3
1532295204111,-6,1,5,-6,-6,-2,-2,-4
1532295204116,-8,1,7,1,-4,-1,-2,2
1532295204121,6,-1,1,4,0,1,-2,-2
1532295204126,-13,-1,2,0,-3,-1,0,-1
1532295204131,11,0,-7,-4,-4,0,1,5
1532295204136,9,-1,-15,-1,5,-1,1,7
1532295204141,2,1,5,1,-2,0,-2,-1
1532295204146,-1,1,1,-3,1,-2,-1,-2
1532295204151,-6,-2,-14,1,0,1,1,-1
1532295204156,-5,2,11,3,0,1,-2,-5
1532295204161,1,-3,-7,0,4,1,1,0
1532295204166,3,1,5,1,-3,-2,-1,-2
1532295204171,-3,-3,-2,2,-1,-1,1,-5
1532295204176,4,3,-2,-2,8,0,-2,0
1532295204181,-2,-1,-7,-8,-13,-3,1,0
1532295204186,-6,-3,1,-7,-4,-3,-2,-3
1532295204191,3,0,0,0,0,-1,-8,-1
1532295204196,-2,-3,3,-1,0,1,10,-2
1532295204201,-5,-1,-3,5,10,-2,-3,1
1532295204206,0,-1,3,-3,-7,1,1,0
1532295204211,7,1,-4,-7,-5,-7,1,2
1532295204216,0,0,-2,1,0,5,-5,-2
1532295204221,-5,-3,-2,-1,-6,1,-1,-6
1532295204226,2,1,1,6,4,2,3,-3
1532295204231,-3,-1,-2,-2,1,-3,-4,0
1532295204236,-1,-3,-2,-3,-4,-1,-1,-1
1532295204241,2,-3,-2,-3,-2,-4,0,1
1532295204246,3,0,2,4,4,2,-3,2
1532295204251,-5,-1,-3,0,0,1,2,0
1532295204256,-4,-2,3,4,2,-1,0,-3
1532295204261,4,-3,-3,-4,-1,0,2,4
1532295204266,0,1,2,-3,-13,-6,-2,-2
1532295204271,-6,-3,-2,1,8,3,-1,-2
1532295204276,6,0,-6,-1,2,-3,2,3
1532295204281,-19,-4,-1,-11,-13,-4,-4,-5
1532295204286,12,-2,2,1,-2,1,-2,-2
1532295204291,3,1,-2,0,-1,0,2,1
1532295204296,-2,-2,-4,5,-6,0,-1,-2
1532295204301,-1,-1,-2,1,11,0,1,-1
1532295204306,0,0,0,4,4,-1,1,3
1532295204311,0,-1,-2,-4,-3,0,-3,0
1532295204316,-2,-4,-4,-5,5,-1,-1,0
1532295204321,5,1,-1,-2,-9,-2,0,3
1532295204326,-9,-1,3,2,0,-6,-1,-4
1532295204331,-5,-1,-7,5,0,2,-1,2
1532295204336,5,0,-3,-4,-2,-4,-3,2
1532295204341,21,0,-1,2,0,5,3,1
1532295204346,3,-4,2,3,6,-1,1,3
1532295204351,-8,2,1,-4,1,-5,1,-3
1532295204356,-2,5,2,-4,-8,-4,-2,-3
1532295204361,-2,0,1,4,7,0,1,-2
1532295204366,0,-3,-9,-8,-5,4,-3,-1
1532295204371,5,-3,1,-1,-9,-1,2,3
1532295204376,-3,1,2,-2,-4,0,0,2
1532295204381,-1,-2,-1,5,4,-3,-3,0
1532295204386,-3,1,1,-3,6,6,-1,-3
1532295204391,0,-4,-7,-2,-4,-3,-2,1
1532295204396,-4,1,11,-1,-3,0,3,-4
1532295204401,-2,-1,-7,-4,-1,-4,-3,-2
1532295204406,9,-2,-1,1,4,-1,1,4
1532295204411,-3,2,2,1,-2,-5,-2,-10
1532295204416,0,-3,-3,2,-1,5,-1,-3
1532295204421,3,-1,-1,-2,1,-3,0,0
1532295204426,-3,0,2,-2,-5,0,-1,-2
1532295204431,1,-1,-1,3,6,7,0,-1
1532295204436,1,-2,-2,-2,-4,-7,1,1
1532295204441,-9,-3,-1,-2,4,2,-1,0
1532295204446,-7,1,-3,-1,-12,-11,-11,-3
1532295204451,-2,5,12,5,4,-5,5,1
1532295204456,-4,-1,-4,-4,9,6,-1,1
1532295204461,-2,-1,-2,-4,-4,-4,0,0
1532295204466,0,-3,-6,-4,-9,-2,1,1
1532295204471,-1,-4,-4,-5,-7,15,-13,-3
1532295204476,1,-1,1,-1,-2,1,11,2
1532295204481,2,1,1,1,3,1,-2,-3
1532295204486,-6,-2,0,1,7,-3,0,-6
1532295204491,-1,-6,-6,-3,-1,-7,-2,-4
1532295204496,7,7,3,0,-1,-1,-1,0
1532295204501,-1,1,-1,-3,-5,1,-4,-2
1532295204506,-6,-3,1,2,1,0,3,2
1532295204511,-13,-6,-2,1,7,6,2,-4
1532295204516,12,-3,-4,1,-4,-7,-8,1
1532295204521,-6,0,-1,-2,-4,-4,2,-3
1532295204526,4,5,7,1,2,-3,-4,2
1532295204531,0,-1,0,-1,-6,1,5,5
1532295204536,-7,-6,-1,1,5,1,-2,0
1532295204541,-1,1,-6,-4,-5,1,-1,-1
1532295204546,-1,-2,-8,0,-4,-3,9,0
1532295204551,4,2,4,2,-3,-7,-1,2
1532295204556,-5,-2,3,1,12,-3,-6,-5
1532295204561,3,-3,-1,-7,6,12,1,-3
1532295204566,2,-3,-6,-4,-17,-5,-1,1
1532295204571,2,1,-1,-2,-6,1,-1,2
1532295204576,2,2,-2,3,-3,4,0,-1
1532295204581,-4,1,0,4,4,-6,2,5
1532295204586,-15,-7,-2,2,12,6,-5,-10
1532295204591,4,1,-2,0,-1,-3,-9,-6
1532295204596,-2,-1,-1,-1,-4,-3,9,-7
1532295204601,0,-3,-1,-1,0,-4,-9,4
1532295204606,3,2,-4,-3,-3,3,15,1
1532295204611,-7,-6,9,-4,0,1,-5,-5
1532295204616,-2,1,-9,2,-2,0,-1,1
1532295204621,5,6,9,3,-4,-4,-1,0
1532295204626,-3,-1,1,1,2,-1,-7,-3
1532295204631,-1,-2,-8,-3,4,-5,-2,-1
1532295204636,-5,-6,-5,2,24,7,-5,-1
1532295204641,0,-1,-2,-10,-56,-25,1,-2
1532295204646,0,-1,-2,-2,9,21,-4,2
1532295204651,8,2,-3,2,1,29,12,2
1532295204656,-4,-1,5,1,-11,-15,-8,7
1532295204661,-6,-1,-5,8,33,12,2,-7
1532295204666,-2,-2,1,-4,-11,-8,-1,0
1532295204671,0,0,-3,-5,-9,-10,-2,0
1532295204676,-4,-2,1,0,-4,3,-1,-4
1532295204681,-2,-1,-2,-1,3,5,0,-1
1532295204686,-8,-4,-6,-2,4,-2,1,-18
1532295204691,-4,-14,-6,0,2,-1,-1,15
1532295204696,12,22,15,1,-7,-7,2,6
1532295204701,4,2,5,1,2,0,-5,-2
1532295204706,4,3,5,1,3,-1,0,4
1532295204711,-1,0,-4,0,-6,-9,2,-7
1532295204716,-7,-12,-8,-2,-2,-5,-3,-3
1532295204721,-8,-5,-3,2,0,1,0,3
1532295204726,19,2,4,-5,6,0,1,1
1532295204731,-7,-4,-6,-6,-3,-12,-2,-3
1532295204736,1,-3,0,-5,3,9,1,-2
1532295204741,3,2,2,5,-20,-7,-1,-1
1532295204746,-4,-4,-2,-1,-13,-24,0,5
1532295204751,1,1,-2,-7,-15,-4,0,-2
1532295204756,2,0,-3,1,5,-3,-1,3
1532295204761,-5,2,3,1,8,9,2,-5
1532295204766,-1,-1,0,3,7,6,-2,4
1532295204771,3,7,-1,3,6,-3,-2,-3
1532295204776,-9,-3,2,-2,-2,1,0,-6
1532295204781,-2,-8,-7,1,7,7,1,0
1532295204786,-1,-1,-5,-3,-2,1,-2,0
1532295204791,-6,0,5,-3,6,0,-1,-13
1532295204796,-1,-3,-4,1,-6,-22,-3,4
1532295204801,5,4,-5,-4,5,16,4,7
1532295204806,-3,-3,2,-1,10,-1,-5,-3
1532295204811,8,5,-8,6,41,38,4,-2
1532295204816,-8,-7,-6,-16,-59,-44,-11,-4
1532295204821,-1,-3,3,-1,-2,-37,3,-1
1532295204826,-6,-6,-2,-1,-11,14,-2,0
1532295204831,-2,-1,-2,4,23,5,0,-4
1532295204836,5,6,3,4,33,51,8,7
1532295204841,9,3,2,-5,-8,-25,-10,0
1532295204846,-5,0,-5,-1,-10,-19,3,1
1532295204851,2,3,6,5,-9,9,-1,3
1532295204856,-1,-4,1,3,6,-17,3,1
1532295204861,0,-4,-4,-4,-10,36,7,-7
1532295204866,-16,-11,-6,1,10,0,0,-13
1532295204871,3,13,3,1,-10,-17,1,17
1532295204876,4,-4,-5,-5,9,-3,-9,-4
1532295204881,15,-4,-7,6,8,12,8,5
1532295204886,2,11,8,4,9,27,1,1
1532295204891,-9,-5,-2,-10,-51,-60,-4,-7
1532295204896,1,-5,-7,-3,5,16,-1,-2
1532295204901,-12,-13,-13,-3,13,-7,-3,-3
1532295204906,6,-5,9,0,-14,0,-2,2
1532295204911,9,20,18,5,1,1,-6,1
1532295204916,0,-12,-3,1,16,12,-2,0
1532295204921,1,9,-15,0,3,-2,0,-7
1532295204926,-3,6,11,4,6,-1,5,4
1532295204931,0,-24,29,6,5,4,-2,2
1532295204936,-2,12,-29,-7,-25,-29,0,-8
1532295204941,-14,-13,-9,-9,5,17,-11,-9
1532295204946,3,-17,-15,-5,6,-8,1,-7
1532295204951,1,40,45,2,-3,12,3,10
1532295204956,-1,-19,-65,-10,-6,-10,0,-2
1532295204961,0,4,11,5,4,18,-9,13
1532295204966,-2,9,8,-8,-19,-26,-11,0
1532295204971,-3,-10,-16,-5,-6,0,5,-2
1532295204976,-12,-3,35,6,13,-1,2,-6
1532295204981,0,2,2,4,2,23,-3,3
1532295204986,-3,1,-9,0,-34,-8,2,-3
1532295204991,-3,-12,-10,-4,24,21,-4,-1
1532295204996,13,9,17,0,1,10,0,6
1532295205001,-18,-1,-5,-6,-20,-32,3,-8
1532295205006,2,-10,11,0,4,-4,4,1
1532295205011,-9,-6,-22,-3,-3,-6,-1,-6
1532295205016,3,8,8,-1,2,23,-6,-1
1532295205021,18,-3,7,-2,-6,-28,-14,4
1532295205026,0,0,0,4,17,2,20,9
1532295205031,-3,-6,-17,-2,4,-29,-11,-12
1532295205036,-7,5,16,3,-10,4,15,-8
1532295205041,-1,0,14,-3,-20,57,-7,12
1532295205046,4,12,-15,1,12,-27,9,5
1532295205051,2,-8,-10,-4,1,10,4,5
1532295205056,-3,-3,11,10,51,58,16,-4
