1532369913301,-7,-21,-2,0,-1,-1,5,-1
1532369913306,8,16,4,6,5,0,-13,8
1532369913311,-14,-8,-3,-3,-2,0,11,-3
1532369913316,1,6,2,1,-1,-3,0,-1
1532369913321,-7,-21,-5,-4,-4,-8,-19,-6
1532369913326,0,7,2,2,1,7,27,9
1532369913331,6,2,3,0,5,-2,0,-2
1532369913336,3,-1,0,-1,-1,-2,-3,1
1532369913341,-8,1,-15,-4,-3,4,-33,-9
1532369913346,-3,-10,29,6,-3,-6,-1,-3
1532369913351,9,21,-5,0,1,5,17,0
1532369913356,-2,-21,-6,-3,-7,-9,14,-2
1532369913361,-5,8,0,-3,-4,6,-27,7
1532369913366,-6,-27,-9,-2,0,-11,-9,-7
1532369913371,8,26,4,3,0,0,-8,2
1532369913376,-6,-27,4,-1,-2,-2,-10,-6
1532369913381,11,25,-2,0,-3,-1,28,4
1532369913386,-9,-2,-1,-1,-6,5,-1,0
1532369913391,0,-12,-24,-5,0,1,3,-1
1532369913396,-1,-24,10,-2,-2,-2,-10,-3
1532369913401,-5,2,8,3,2,-8,13,3
1532369913406,13,0,-5,-7,-10,-15,-19,1
1532369913411,0,15,0,1,2,33,79,2
1532369913416,-9,11,-2,2,4,-5,-39,-5
1532369913421,-5,-34,-2,-3,-6,-11,-16,-5
1532369913426,2,25,-3,-1,-2,-14,-27,-7
1532369913431,-6,-13,4,1,-1,-6,-7,1
1532369913436,8,14,-3,-1,-1,7,10,3
1532369913441,8,2,2,2,2,7,24,2
1532369913446,-14,-18,-14,-3,0,-9,-20,-10
1532369913451,2,-18,3,-2,3,12,2,0
1532369913456,-3,26,1,1,-2,3,-4,3
1532369913461,-2,6,0,0,2,-3,7,-11
1532369913466,2,-2,-2,-1,0,-4,-1,4
1532369913471,11,9,4,0,1,-6,-22,-2
1532369913476,-13,-44,-7,-2,-3,-2,-6,-5
1532369913481,-2,54,6,9,4,-5,17,-16
1532369913486,0,-2,-6,-8,-1,15,32,5
1532369913491,1,0,4,-5,-8,-13,-30,-1
1532369913496,-2,-5,2,-2,-8,-16,-9,-7
1532369913501,2,3,-6,-2,0,16,22,16
1532369913506,-5,3,1,0,0,-1,35,-3
1532369913511,0,-2,-3,-1,-2,8,-2,2
1532369913516,10,6,-3,-4,6,1,-10,8
1532369913521,-11,-32,2,3,5,6,16,2
1532369913526,6,2,-1,-1,-1,11,21,10
1532369913531,-4,16,5,5,1,-29,-67,-12
1532369913536,-2,-7,-6,-7,-4,8,15,-3
1532369913541,-21,-18,1,0,-2,-23,-29,0
1532369913546,44,35,1,0,3,46,37,15
1532369913551,-7,-2,2,3,0,-12,-15,-12
1532369913556,6,10,2,2,4,3,13,1
1532369913561,5,12,-4,-1,2,-7,0,11
1532369913566,-38,-35,-4,-1,-2,-11,-15,-21
1532369913571,5,-5,-1,-4,-3,4,12,12
1532369913576,-1,10,0,3,0,-2,-6,0
1532369913581,5,-9,0,-2,0,7,11,-2
1532369913586,-19,10,4,2,5,-5,-30,-3
1532369913591,2,-12,-5,-8,-6,-2,15,-3
1532369913596,0,-29,-2,1,3,-4,11,-1
1532369913601,3,28,4,3,3,12,-9,5
1532369913606,25,9,-2,-1,0,-9,-25,3
1532369913611,-10,-5,-1,0,3,0,10,-9
1532369913616,8,10,-1,0,-6,-14,-6,-9
1532369913621,5,-8,0,-5,-7,10,23,-2
1532369913626,-3,-24,-5,-2,-2,-5,-6,-1
1532369913631,-23,9,-1,-2,-3,-5,-5,1
1532369913636,28,25,-4,-2,1,-4,-16,3
1532369913641,8,0,-1,-3,-5,4,2,-8
1532369913646,-12,-6,-4,-1,2,5,10,-2
1532369913651,6,-26,0,0,0,0,-4,5
1532369913656,-13,2,1,4,5,0,0,-5
1532369913661,-8,1,-3,-4,-9,-23,-34,-23
1532369913666,1,-8,-3,-5,-9,-13,10,2
1532369913671,2,-3,1,2,2,4,-4,4
1532369913676,-10,-4,0,0,-3,0,-3,0
1532369913681,5,-2,-2,1,0,2,7,0
1532369913686,-5,-4,-2,0,-2,-8,-5,-3
1532369913691,0,7,1,2,4,3,-3,-5
1532369913696,-14,3,-1,-3,-3,-3,3,-4
1532369913701,30,-26,-3,0,5,4,9,8
1532369913706,1,10,0,0,-2,-1,-10,-1
1532369913711,-4,0,-2,-3,-4,-9,-9,-1
1532369913716,-1,-1,-1,-2,-2,10,16,7
1532369913721,-1,-3,-2,-5,-4,-7,-1,2
1532369913726,-8,4,0,-1,0,-7,-31,-4
1532369913731,-14,-28,0,-1,3,18,58,2
1532369913736,15,20,0,-1,1,-8,-13,1
1532369913741,-13,-4,2,0,2,17,12,7
1532369913746,-3,-5,0,2,-2,-5,-13,-9
1532369913751,6,13,1,2,4,6,3,1
1532369913756,-18,-36,-5,-4,-5,0,-14,-6
1532369913761,-4,4,7,-1,-8,-15,5,9
1532369913766,6,1,-6,9,5,7,3,7
1532369913771,-1,-6,-3,-10,3,-1,2,-4
1532369913776,0,-3,1,5,2,4,2,6
1532369913781,3,12,0,-7,-12,-7,-13,-1
1532369913786,-8,-10,1,2,2,-1,14,-2
1532369913791,3,11,2,5,5,-8,-50,-4
1532369913796,5,-8,-14,3,7,16,34,1
1532369913801,11,7,8,-11,-7,3,10,-1
1532369913806,-7,0,5,3,-9,-14,-61,-5
1532369913811,5,10,-9,-9,-9,-10,-11,-2
1532369913816,0,4,0,-3,-2,-9,-14,1
1532369913821,-9,-7,-7,6,8,7,26,-4
1532369913826,5,-1,-2,-3,4,6,28,9
1532369913831,3,-14,4,4,0,-4,-2,-3
1532369913836,-5,12,-1,-2,-5,1,-7,-3
1532369913841,-8,-6,-8,-4,-3,-7,1,-3
1532369913846,8,4,5,-1,2,3,-6,2
1532369913851,-13,-23,-5,4,1,1,7,0
1532369913856,-3,9,5,-3,2,8,12,2
1532369913861,-19,-18,-2,11,5,-8,-19,-2
1532369913866,25,11,-4,-13,-1,12,4,5
1532369913871,7,12,1,2,-1,2,8,1
1532369913876,1,-2,9,-4,-5,0,4,-2
1532369913881,0,-2,-1,2,-3,-6,-18,-1
1532369913886,-7,-5,-2,4,10,2,7,-5
1532369913891,2,7,1,-9,-15,-4,6,-5
1532369913896,1,5,-4,-1,2,-6,-7,1
1532369913901,-2,-9,-19,2,4,13,11,1
1532369913906,-2,27,9,-10,1,2,2,1
1532369913911,4,10,-8,-7,-4,-7,-10,1
1532369913916,-8,-7,3,-2,-7,0,-6,-4
1532369913921,0,2,-3,5,-1,0,2,-3
1532369913926,-3,-9,-4,6,11,2,1,-3
1532369913931,4,0,0,-4,0,-7,0,-2
1532369913936,-1,1,-6,-1,-27,-7,-3,1
1532369913941,5,5,2,-6,13,4,3,0
1532369913946,-6,-10,-2,0,-12,-1,13,-2
1532369913951,2,6,19,14,8,5,2,1
1532369913956,-3,-9,-8,-14,0,-5,-13,-7
1532369913961,-1,4,0,1,-1,2,5,3
1532369913966,-9,-8,1,1,-3,-5,-4,-3
1532369913971,2,0,-6,1,-1,5,6,3
1532369913976,2,5,6,1,7,3,4,-2
1532369913981,2,-4,3,-4,-7,-12,4,0
1532369913986,-4,-3,-13,-2,-2,1,-3,-1
1532369913991,7,21,8,12,10,4,-45,-4
1532369913996,-2,1,0,-5,8,-3,14,1
1532369914001,-5,-10,-4,-14,-14,-6,-21,-4
1532369914006,1,25,4,4,-3,0,21,1
1532369914011,-13,9,-4,0,-2,2,21,2
1532369914016,-10,-12,-4,4,5,1,-12,-3
1532369914021,11,25,-3,2,7,3,2,3
1532369914026,-9,-6,-2,-4,-6,-3,0,-2
1532369914031,3,-9,-5,-9,-7,-4,-10,-2
1532369914036,4,5,2,5,-2,3,5,-2
1532369914041,-2,-4,2,-1,-6,-1,9,-2
1532369914046,3,-10,3,3,4,1,-10,0
1532369914051,2,3,1,-1,6,-2,3,-1
1532369914056,-1,-9,-6,0,-3,-1,4,-1
1532369914061,2,1,0,-4,-9,-1,-8,0
1532369914066,0,-5,-2,-2,-2,-2,-11,2
1532369914071,-3,-8,-3,-2,-1,-2,7,0
1532369914076,3,6,0,-2,-2,2,3,0
1532369914081,-2,-3,-5,3,3,0,-10,-2
1532369914086,-1,-5,24,16,4,-2,-2,-1
1532369914091,3,-1,-16,-12,-10,-2,13,0
1532369914096,-1,4,10,-4,2,-1,-6,3
1532369914101,-1,-10,7,7,0,-1,-3,-1
1532369914106,3,-13,-19,-15,2,1,1,-1
1532369914111,-16,-36,8,3,-4,-2,3,0
1532369914116,4,39,0,7,9,3,-6,-1
1532369914121,-1,0,-16,-5,-5,-3,-1,0
1532369914126,2,0,20,5,-7,-3,1,-2
1532369914131,0,-3,-9,4,3,-1,-1,0
1532369914136,-5,-17,-3,-7,4,1,0,-1
1532369914141,-3,2,2,3,-4,0,-2,0
1532369914146,-6,9,-3,-2,5,0,1,0
1532369914151,-1,9,2,-8,-8,-1,-5,-1
1532369914156,-1,-5,-3,6,0,-3,1,-1
1532369914161,-1,6,5,1,1,0,-3,-2
1532369914166,-3,-8,-7,-8,-2,-1,-2,-5
1532369914171,7,1,3,0,4,1,2,1
1532369914176,-1,-17,-2,4,0,-1,1,1
1532369914181,-3,16,16,-1,4,-1,-2,0
1532369914186,-6,-4,-14,-6,-11,-5,-1,0
1532369914191,0,4,-18,-1,-7,-1,2,-4
1532369914196,8,-2,16,-4,2,2,-3,0
1532369914201,-5,-2,-1,0,-7,-1,0,-1
1532369914206,-2,-1,-5,-1,-1,-2,-3,-1
1532369914211,0,5,6,-4,0,0,3,0
1532369914216,1,9,13,10,0,0,0,0
1532369914221,3,-13,-11,-4,0,-2,-1,0
1532369914226,-2,-2,-5,-7,6,0,-6,-1
1532369914231,6,-1,1,0,-9,-2,3,0
1532369914236,-1,-5,-4,-4,-6,-4,0,-3
1532369914241,0,-2,2,-1,5,0,-1,-3
1532369914246,8,6,0,7,0,0,2,-1
1532369914251,-3,-5,0,-4,1,-4,-4,0
1532369914256,-2,23,-3,-5,-5,-2,-4,-3
1532369914261,-1,1,9,8,3,0,0,-2
1532369914266,-3,-11,-18,-12,-2,1,1,1
1532369914271,1,10,4,1,3,0,-1,1
1532369914276,-7,-15,-7,-2,-6,0,1,0
1532369914281,3,0,-2,-3,3,2,26,1
1532369914286,-2,3,-7,2,-10,-1,-13,-3
1532369914291,-1,2,19,-3,2,-5,-18,-2
1532369914296,-3,-5,-9,-2,-2,-1,-1,-2
1532369914301,0,4,-1,-2,0,2,-1,-1
1532369914306,1,-9,1,-2,-1,2,18,1
1532369914311,-3,1,-5,1,-6,-9,4,1
1532369914316,-4,-5,-3,0,0,7,0,-1
1532369914321,-3,-3,-3,-7,2,3,8,2
1532369914326,9,-7,5,2,0,-14,-21,-4
1532369914331,-1,6,2,1,3,14,-2,-3
1532369914336,0,-5,-7,1,1,-14,-18,-1
1532369914341,-1,-5,-2,-1,-1,3,-1,-1
1532369914346,-3,-9,7,1,-3,5,13,0
1532369914351,1,-2,-18,-4,-3,-1,11,5
1532369914356,-12,-9,0,1,-2,4,3,2
1532369914361,19,1,-2,-2,-2,-4,-6,0
1532369914366,-7,-9,-3,6,0,-7,4,-4
1532369914371,-4,1,9,-4,-1,6,2,-4
1532369914376,1,1,-3,-8,-4,6,14,2
1532369914381,-2,2,-1,-3,-3,-6,-26,-4
1532369914386,-1,-20,4,4,1,-2,9,3
1532369914391,8,12,-9,1,-2,0,33,5
1532369914396,-1,6,0,6,6,-8,-24,-3
1532369914401,-3,-13,2,-6,2,2,-50,-6
1532369914406,-3,18,9,1,-3,-4,-12,-4
1532369914411,-5,-11,-14,-4,3,-1,3,-2
1532369914416,1,5,2,2,-6,2,17,3
1532369914421,-9,-11,-3,-5,-4,9,65,7
1532369914426,14,19,-1,-3,-1,1,-79,-2
1532369914431,-12,-7,4,8,6,-21,-26,-6
1532369914436,1,17,4,-3,-1,-1,4,-3
1532369914441,-1,0,-18,6,0,-9,-10,-5
1532369914446,-4,-4,20,-1,1,6,19,-1
1532369914451,3,-2,-4,-16,-2,12,26,2
1532369914456,-8,-20,-7,0,-3,-20,-96,-14
1532369914461,-1,26,7,-1,-5,-8,-7,-2
1532369914466,-25,3,-9,-2,-2,0,37,-2
1532369914471,11,-8,12,8,2,2,-6,0
1532369914476,4,-2,0,-1,7,8,31,5
1532369914481,3,0,-11,-9,-11,2,-22,0
1532369914486,7,7,6,8,6,-11,-6,0
1532369914491,-5,0,1,2,-1,-2,-23,-6
1532369914496,-3,-13,-16,-13,-11,-1,26,-1
1532369914501,-1,-1,3,9,9,-5,-28,2
1532369914506,-9,-20,-8,-6,-8,11,35,3
1532369914511,24,12,4,-2,-2,-8,-6,1
1532369914516,-3,12,1,6,4,18,17,0
1532369914521,-5,-5,2,-7,-1,-14,2,-3
1532369914526,0,-5,-4,-2,4,8,29,4
1532369914531,-16,-25,7,5,2,-1,-47,-3
1532369914536,13,4,-17,-3,1,-7,32,3
1532369914541,-9,-3,18,5,4,12,25,2
1532369914546,3,0,1,-14,-12,-5,-25,-4
1532369914551,1,4,6,1,-7,-7,6,0
1532369914556,0,-2,5,0,1,14,12,2
1532369914561,-7,-9,-3,3,8,3,-5,-3
1532369914566,4,10,-10,-1,2,-3,-6,-3
1532369914571,-9,-8,-9,-8,-10,-4,13,-2
1532369914576,-2,5,10,4,1,-4,-2,1
1532369914581,3,-1,-8,-3,-1,-4,-5,0
1532369914586,0,-5,1,4,1,2,20,1
1532369914591,-4,7,-2,0,2,-3,-37,-5
1532369914596,-2,-11,6,0,-3,-2,1,-2
1532369914601,3,-3,-7,-2,-10,-3,1,1
1532369914606,3,5,-7,-7,1,2,0,2
1532369914611,-3,1,-3,7,5,7,1,-2
1532369914616,-10,2,-1,-6,-2,-10,-6,-3
1532369914621,1,-5,2,-3,-13,-6,-16,-1
1532369914626,6,10,4,3,1,0,2,-3
1532369914631,-17,-10,-8,-4,0,6,18,5
1532369914636,5,-1,2,1,5,-1,-10,0
1532369914641,0,5,-1,0,0,-12,3,1
1532369914646,-3,3,-8,0,2,9,-4,-2
1532369914651,4,-6,1,1,-4,0,3,-1
1532369914656,-4,-6,-8,1,-4,-5,21,-3
1532369914661,5,0,18,-3,5,3,-26,0
1532369914666,-1,-2,-6,-6,-3,-6,-30,0
1532369914671,2,1,1,2,3,6,31,4
1532369914676,-3,-7,1,1,1,-4,-12,0
1532369914681,3,-2,-7,4,4,8,27,1
1532369914686,-6,2,0,-1,-4,-3,-4,-2
1532369914691,-1,8,0,0,-1,0,-2,-1
1532369914696,1,-2,0,-1,-5,1,-6,-2
1532369914701,0,3,-14,-8,1,2,6,-1
1532369914706,1,0,0,-3,-5,-5,-8,-2
1532369914711,-7,-20,-9,-3,-4,-4,15,-5
1532369914716,2,8,4,2,5,2,-16,0
1532369914721,8,-2,3,3,-3,0,-1,-4
1532369914726,0,-1,-5,-5,4,0,-9,1
1532369914731,0,-4,-7,8,0,-2,-4,-1
1532369914736,15,5,4,-16,1,-5,-10,0
1532369914741,-4,-20,-4,0,-4,0,17,-3
1532369914746,-9,24,4,9,2,1,-1,0
1532369914751,4,3,-3,1,1,-1,0,1
1532369914756,-2,-5,4,2,2,-5,-3,-2
1532369914761,-6,9,0,-4,-1,12,-2,1
1532369914766,-3,-17,3,0,0,0,15,1
1532369914771,7,12,-1,-7,-5,0,0,1
1532369914776,-2,-2,-13,-8,-4,-5,-7,-1
1532369914781,-4,-2,1,4,0,1,11,-2
1532369914786,0,0,1,-2,0,-8,-38,-3
1532369914791,-3,2,9,-3,-1,-3,1,-1
1532369914796,-1,-8,-17,0,-2,7,11,-1
1532369914801,-5,-27,0,2,-6,-7,4,1
1532369914806,-3,2,-6,-5,2,4,14,0
1532369914811,0,-4,2,-4,-2,-4,-10,-1
1532369914816,3,10,-1,1,-1,3,1,-3
1532369914821,-15,-8,-5,-3,4,-5,-6,-1
1532369914826,2,-5,-7,0,-5,1,4,-1
1532369914831,1,-2,0,2,0,-4,-4,0
1532369914836,-1,-12,5,3,2,0,-13,-1
1532369914841,-4,1,-5,-7,6,-2,2,-2
1532369914846,11,3,5,-4,-10,-3,-9,1
1532369914851,-15,-7,-16,-4,1,-11,-24,2
1532369914856,-6,-3,-18,8,-4,16,15,-1
1532369914861,5,14,36,-4,7,-3,-10,0
1532369914866,-2,4,-4,0,-6,-7,10,-3
1532369914871,1,-5,5,1,0,4,-12,-5
1532369914876,0,-3,-5,-2,-4,-8,-3,0
1532369914881,-1,5,-13,0,1,2,-2,0
1532369914886,2,-22,8,8,1,6,15,1
1532369914891,9,23,-9,-16,-5,-5,2,0
1532369914896,1,0,6,6,2,-4,3,0
1532369914901,0,3,-8,-2,0,-1,-4,-1
1532369914906,0,5,9,7,2,1,4,1
1532369914911,4,-15,-7,2,-2,0,-16,-2
1532369914916,-3,2,2,-4,-2,-9,12,-4
1532369914921,2,1,-2,-3,-6,-2,11,-1
1532369914926,-2,-5,-6,-2,2,11,-11,-1
1532369914931,1,0,4,3,4,-5,-35,-1
1532369914936,-6,17,23,1,-2,-3,-11,-1
1532369914941,0,4,-32,-6,-4,-8,-1,-2
1532369914946,-6,-12,-8,-8,0,-3,5,-1
1532369914951,12,37,17,0,-4,4,26,0
1532369914956,-3,-8,3,0,-4,-8,-7,-1
1532369914961,0,-12,6,9,4,11,-8,2
1532369914966,1,7,-12,-5,1,-4,5,-2
1532369914971,-23,-24,-4,-1,-1,-1,-29,-3
1532369914976,5,2,6,4,3,1,26,2
1532369914981,3,5,-8,-14,-7,-6,-1,-2
1532369914986,0,-6,-6,3,-1,6,9,-2
1532369914991,-4,3,5,0,-2,-7,8,-2
1532369914996,-4,-8,-4,1,1,5,-9,-2
1532369915001,-4,-3,3,5,6,3,2,0
1532369915006,1,20,3,-3,1,-2,-4,0
1532369915011,-2,0,0,1,-6,-4,-17,-6
1532369915016,5,2,-10,-8,-9,3,32,7
1532369915021,4,-6,2,2,-3,-3,-4,2
1532369915026,-5,-1,4,0,-1,-10,-13,-4
1532369915031,2,0,-4,6,5,9,18,2
1532369915036,-3,-11,-4,-8,-1,0,-19,-4
1532369915041,2,10,6,0,-7,-5,5,-3
1532369915046,0,0,0,3,2,4,-25,3
1532369915051,-1,-4,-3,-2,4,6,21,3
1532369915056,-1,-7,-1,-3,-3,-3,-15,-2
1532369915061,-1,6,2,0,6,0,-1,0
1532369915066,-1,0,-2,0,-8,-4,-3,-2
1532369915071,0,-5,-3,-6,-2,-2,13,0
1532369915076,-4,-2,1,2,-4,-3,-10,-1
1532369915081,0,8,2,4,1,1,2,1
1532369915086,-1,-13,-2,-1,6,0,9,-2
1532369915091,-1,-3,-1,5,14,1,-25,-3
1532369915096,1,-9,-3,-5,-10,3,89,2
1532369915101,0,12,1,-4,-7,0,-12,11
1532369915106,-5,-3,1,-1,1,-6,-14,-26
1532369915111,-4,-1,0,5,-1,4,40,14
1532369915116,-2,-23,0,-2,4,-3,-69,-7
1532369915121,-6,-13,-1,1,10,8,22,-6
1532369915126,10,9,-2,-8,-17,-8,3,25
1532369915131,-1,2,1,1,0,0,-1,-13
1532369915136,-2,-3,0,12,30,7,-16,-8
1532369915141,3,-5,-3,-6,-21,-12,-7,-3
1532369915146,-1,-1,-4,-8,-7,-2,2,4
1532369915151,-2,-6,-6,-7,0,-4,-11,-7
1532369915156,2,6,5,0,-12,-4,-2,7
1532369915161,4,29,-12,5,18,4,-4,-7
1532369915166,-4,2,16,1,-4,-3,7,-4
1532369915171,-2,-19,-6,-1,-1,4,8,7
1532369915176,-2,15,3,3,2,0,-4,-4
1532369915181,-5,-15,8,2,-3,-1,0,0
1532369915186,0,-6,-37,-3,7,3,-1,0
1532369915191,3,7,17,1,-7,-3,-2,-3
1532369915196,-2,18,3,-3,1,1,12,1
1532369915201,-1,-24,-7,-6,-3,-1,-9,3
1532369915206,-1,6,60,9,0,0,0,-1
1532369915211,0,-7,-93,0,0,3,7,-1
1532369915216,-3,9,3,-16,-5,-3,-6,1
1532369915221,1,10,43,10,-1,-3,-2,1
1532369915226,-2,-16,-71,3,4,2,9,-2
1532369915231,-3,22,25,-2,-6,-3,0,0
1532369915236,0,-8,3,3,-5,-2,-20,-1
1532369915241,-4,-1,-17,0,0,-6,9,2
1532369915246,-9,-13,19,-2,8,16,14,5
1532369915251,-3,-4,14,0,-4,-5,-11,-23
1532369915256,-5,1,-12,2,-4,0,1,28
1532369915261,-7,3,7,-15,-13,-8,-9,-3
1532369915266,1,8,4,1,0,-8,-11,-19
1532369915271,1,15,-4,-5,-2,7,38,-1
1532369915276,1,8,8,2,0,-5,-8,8
1532369915281,0,-16,-13,1,3,3,-5,-17
1532369915286,4,5,1,5,-1,-5,6,8
1532369915291,5,-2,6,-6,-4,1,-16,-5
1532369915296,-5,-11,-5,3,1,-2,-1,-35
1532369915301,2,3,-8,3,3,6,23,32
1532369915306,10,0,-3,-3,-3,-6,-18,-8
1532369915311,3,-4,18,0,2,-4,-12,6
1532369915316,0,1,-2,-2,-2,9,8,-6
1532369915321,3,-7,-11,-2,-10,-12,-4,6
1532369915326,-19,1,7,-6,2,16,7,-13
1532369915331,1,-16,8,10,-1,-2,18,8
1532369915336,33,9,-31,-9,1,-9,-26,23
1532369915341,-10,4,11,4,8,2,11,-29
1532369915346,-5,5,16,-2,-13,-9,-19,-2
1532369915351,-5,-7,-17,-5,2,-3,-34,-1
1532369915356,-6,-1,10,1,1,11,8,9
1532369915361,-3,-8,-11,-4,-6,-9,6,2
1532369915366,11,3,0,7,5,7,23,-10
1532369915371,2,-3,-2,0,-1,1,-14,13
1532369915376,-6,-5,0,1,-5,-6,3,-5
1532369915381,5,5,21,-6,0,0,-24,4
1532369915386,-1,-7,0,-2,4,-7,-7,11
1532369915391,-2,1,-1,1,-4,7,23,-40
1532369915396,-1,0,6,2,9,10,-11,12
1532369915401,-4,-6,-11,-1,-7,-2,5,9
1532369915406,1,-1,-10,-4,-5,-6,-7,11
1532369915411,4,6,17,4,0,-2,-11,1
1532369915416,-5,-27,10,-6,-1,-17,18,-15
1532369915421,0,16,-54,-2,4,14,-22,-35
1532369915426,-5,3,39,-2,-9,-4,7,20
1532369915431,-2,-13,-29,-2,-2,-8,-4,3
1532369915436,-7,-8,-8,4,9,1,-5,-9
1532369915441,4,-2,2,4,8,9,-4,12
1532369915446,5,1,-2,-9,-19,-21,3,-8
1532369915451,-4,4,9,-1,5,4,3,16
1532369915456,-1,5,-2,0,-4,-7,4,-7
1532369915461,-1,0,15,1,7,9,3,-9
1532369915466,2,-4,-19,1,8,2,1,32
1532369915471,-7,-4,12,-9,-8,-3,9,-3
1532369915476,1,4,-5,2,6,9,-5,-1
1532369915481,3,3,19,-2,-3,-6,-2,5
1532369915486,-6,-12,-26,-2,1,3,-9,-17
1532369915491,2,2,-4,5,0,-5,5,2
1532369915496,-1,5,5,-1,3,3,2,5
1532369915501,-3,-5,3,-3,-9,-6,-8,-16
1532369915506,-2,-2,-5,0,-4,-10,-4,-12
1532369915511,-3,-20,-33,-3,0,11,23,11
1532369915516,-4,26,24,3,-7,-19,-39,-42
1532369915521,-1,-15,-5,2,3,14,22,9
1532369915526,-3,5,1,-2,4,3,-1,-16
1532369915531,1,-23,2,-6,-6,-6,-29,-2
1532369915536,-8,-1,-17,3,3,4,15,11
1532369915541,3,18,17,7,-1,-6,-5,7
1532369915546,5,13,-3,-5,-4,-6,-14,-14
1532369915551,9,-11,-9,-5,0,5,16,2
1532369915556,0,-20,-34,-5,-6,0,18,37
1532369915561,-1,-13,-8,-5,-1,-5,-17,-2
1532369915566,10,4,4,1,3,3,2,14
1532369915571,-4,21,24,10,8,0,-7,13
1532369915576,4,0,3,-5,-7,2,-31,-36
1532369915581,-7,-12,0,-1,-8,-8,-2,-7
1532369915586,11,-5,2,3,6,4,20,15
1532369915591,-4,6,8,-4,-13,-10,3,9
1532369915596,-3,-3,2,0,1,-2,-7,0
1532369915601,-1,0,-3,-5,-3,-4,-3,5
1532369915606,-5,-2,1,3,-1,1,-24,-13
1532369915611,4,12,0,4,13,1,1,0
1532369915616,2,-2,-5,7,-9,-1,9,7
1532369915621,0,4,15,-11,0,0,4,-2
1532369915626,-4,-2,-7,7,8,3,11,9
1532369915631,-2,0,7,-2,-1,-2,1,-12
1532369915636,-1,-2,4,-1,-2,-3,-1,-1
1532369915641,0,1,2,2,3,0,2,0
1532369915646,-3,-4,2,-3,0,0,-1,-3
1532369915651,-3,2,-12,-5,-9,-3,-9,-2
1532369915656,-3,-6,4,-3,-6,-1,2,-4
1532369915661,-1,19,-4,1,2,-2,12,7
1532369915666,4,5,-1,-7,-1,1,-7,-3
1532369915671,-5,-4,3,1,-4,-1,0,-7
1532369915676,3,1,17,2,7,2,3,8
1532369915681,0,-9,-1,-2,2,4,3,-5
1532369915686,-3,-4,-5,-3,-14,-4,-1,1
1532369915691,-6,1,3,-4,0,-2,-2,-7
1532369915696,-2,-5,-3,1,-1,-1,-13,-2
1532369915701,1,2,0,5,0,0,6,0
1532369915706,-1,-5,1,-3,1,-1,3,-4
1532369915711,3,1,-6,-2,-2,-3,-3,-6
1532369915716,-2,2,-1,0,2,1,-19,9
1532369915721,1,-5,-4,1,-3,1,18,25
1532369915726,-5,-1,-9,-2,0,0,-5,-7
1532369915731,0,0,7,4,2,-3,0,-4
1532369915736,0,-5,-11,-9,-6,-4,0,-5
1532369915741,0,4,3,-2,-2,0,-9,-3
1532369915746,-6,-6,1,2,0,2,1,-1
1532369915751,2,5,1,-1,0,-1,-5,4
1532369915756,-1,1,0,0,3,-2,17,-1
1532369915761,0,-4,-10,-3,-4,-2,-10,-2
1532369915766,-7,0,1,-4,-5,-3,3,-3
1532369915771,0,-4,3,-3,-2,-2,-5,-9
1532369915776,0,3,-2,-1,-3,0,11,3
1532369915781,-3,-2,-1,4,7,1,-9,-7
1532369915786,1,-2,0,3,6,1,2,11
1532369915791,3,7,-2,-2,5,2,1,-3
1532369915796,-5,-5,-1,-4,-6,-2,7,-20
1532369915801,-4,-5,-3,-1,-8,-3,-8,-2
1532369915806,-1,-10,1,1,0,0,0,5
1532369915811,1,10,10,0,3,0,14,9
1532369915816,2,-1,-12,-5,2,1,1,-6
1532369915821,-3,-2,-10,-2,-2,-1,-5,-17
1532369915826,-5,-9,-7,0,-8,-1,1,8
1532369915831,1,6,11,2,4,1,-2,-11
1532369915836,5,1,7,3,3,5,7,19
1532369915841,-4,-3,-2,-3,3,-5,-11,-9
1532369915846,1,3,-2,-4,-10,-6,5,3
1532369915851,-4,-5,-4,0,0,3,-11,0
1532369915856,-6,0,0,-4,-4,-6,5,8
1532369915861,9,-1,1,3,2,0,11,2
1532369915866,-1,2,4,1,9,4,-11,-13
1532369915871,-3,-2,-2,-1,-4,0,5,11
1532369915876,-3,-2,-2,-2,-13,-11,-7,-33
1532369915881,-2,-1,-5,-5,-1,-3,0,1
1532369915886,1,3,2,-1,1,1,7,8
1532369915891,-3,-8,-6,-2,-3,-2,-3,-9
1532369915896,3,3,1,4,4,5,3,8
1532369915901,-2,1,4,1,-1,2,2,6
1532369915906,0,2,0,-1,-1,1,-2,-8
1532369915911,-3,-3,-2,-2,-6,-4,-3,-1
1532369915916,2,-3,-2,-2,1,0,1,6
1532369915921,1,3,5,1,1,2,0,-4
1532369915926,-5,-3,0,2,6,2,2,6
1532369915931,-3,-5,-6,-7,-13,-7,0,10
1532369915936,-1,2,4,-1,-2,1,-18,-12
1532369915941,-1,0,0,-1,0,-3,-1,-6
1532369915946,0,3,-4,-2,2,0,-8,-9
1532369915951,1,1,1,1,1,1,-1,-3
1532369915956,1,-1,-3,3,8,2,9,11
1532369915961,-2,-6,-1,0,-3,-2,-18,-24
1532369915966,-3,6,-1,-3,-5,-4,10,19
1532369915971,10,-8,-3,2,-1,-2,-8,-2
1532369915976,-8,-4,-3,0,1,1,-4,-8
1532369915981,0,2,-2,0,-1,-1,-2,9
1532369915986,-4,-22,-6,-1,3,0,3,-1
1532369915991,-3,23,7,-1,0,1,-10,-17
1532369915996,-1,2,4,0,4,-7,2,24
1532369916001,2,-5,2,2,-3,10,4,7
1532369916006,1,2,4,-3,-7,-11,-6,-9
1532369916011,-3,-7,-7,-1,5,1,6,-1
1532369916016,0,-2,-1,0,2,3,-1,-8
1532369916021,-4,2,-1,-6,-13,-11,-2,3
1532369916026,3,-2,-5,-3,2,2,3,-5
1532369916031,-1,-2,-5,-2,-5,-2,-3,4
1532369916036,-2,3,1,-1,3,0,3,0
1532369916041,4,-2,-2,0,-2,1,9,12
1532369916046,3,8,0,2,2,4,-4,-9
1532369916051,-3,-29,-3,0,0,-1,1,10
1532369916056,-4,-1,3,-3,-8,-2,-2,-7
1532369916061,-1,2,-4,-1,3,-1,-14,0
1532369916066,-4,5,1,2,1,-2,4,-11
1532369916071,1,4,11,0,-1,2,15,8
1532369916076,-9,1,-15,-3,-4,-1,-10,-9
1532369916081,-1,-18,-3,1,6,0,9,25
1532369916086,17,-5,1,3,-2,3,-6,-5
1532369916091,9,30,-4,-2,-1,2,7,1
1532369916096,-10,18,8,-3,-5,-6,-8,8
1532369916101,7,9,3,-1,2,-4,-30,-26
1532369916106,-6,-14,-4,-1,3,11,44,27
1532369916111,2,1,0,-2,0,-3,0,-4
1532369916116,5,-6,-1,-1,-4,-5,-19,0
1532369916121,-5,1,-3,-1,-2,-5,9,5
1532369916126,3,2,2,1,3,-3,-13,-1
1532369916131,-5,-10,-6,-1,-3,0,9,-7
1532369916136,-3,-4,-1,-2,-5,-1,12,1
1532369916141,-3,-6,0,0,0,2,12,-1
1532369916146,2,2,2,1,2,-3,-28,-6
1532369916151,-2,3,2,0,-2,-5,-11,2
1532369916156,-3,-9,-6,-4,0,4,5,-3
1532369916161,0,2,-1,-1,-1,5,12,0
1532369916166,-3,9,-1,1,-5,-10,-10,-3
1532369916171,3,-7,-2,-1,1,6,-19,4
1532369916176,5,15,-5,2,0,3,13,-3
1532369916181,2,16,11,-1,-2,-1,13,-2
1532369916186,-11,-4,0,1,6,5,-7,-4
1532369916191,-1,-8,-3,-5,-4,-10,-3,-2
1532369916196,8,8,-2,-3,-13,-8,-4,1
1532369916201,-16,-24,-8,-4,-8,4,-1,-1
1532369916206,10,9,6,2,1,-7,-3,-6
1532369916211,-12,2,-6,6,8,2,18,4
1532369916216,2,-10,-4,-5,3,3,8,0
1532369916221,2,7,1,1,1,-4,-30,-1
1532369916226,-5,-11,-4,-6,-11,1,12,-3
1532369916231,0,3,-2,1,4,0,0,-8
1532369916236,-7,-15,1,-1,0,-4,-36,0
1532369916241,4,2,-4,-2,-1,1,40,-1
1532369916246,-9,-9,-3,0,0,3,6,-2
1532369916251,1,-3,2,0,3,2,-7,-4
1532369916256,0,-2,1,0,-6,-2,-3,-5
1532369916261,-3,2,-1,1,-2,-3,1,-2
1532369916266,-3,2,-6,-7,-5,0,0,-1
1532369916271,0,-1,3,2,0,-2,-11,3
1532369916276,0,-13,-4,1,-3,-6,0,1
1532369916281,2,4,-5,1,6,2,1,2
1532369916286,1,3,3,5,2,3,16,3
1532369916291,-2,-2,-13,-7,-3,-2,-13,0
1532369916296,3,-2,2,-5,-4,1,17,0
1532369916301,-2,-4,-2,2,-4,-4,-8,-4
1532369916306,-3,-1,0,2,3,-2,-11,-2
1532369916311,-1,7,3,-5,-1,-2,-26,-8
1532369916316,5,1,-1,5,11,12,61,13
1532369916321,6,-3,-2,-2,-5,-7,-11,-4
1532369916326,-6,1,0,-6,-11,-6,-10,-5
1532369916331,2,-4,-6,2,-2,-3,-3,-4
1532369916336,-8,-5,2,2,5,3,-16,-5
1532369916341,0,-2,0,0,8,1,18,5
1532369916346,3,2,-1,-1,-6,-2,-35,-3
1532369916351,-5,-4,1,-3,-7,-5,12,-1
1532369916356,4,7,0,2,3,2,-11,1
1532369916361,-1,-1,1,0,1,3,12,2
1532369916366,-5,-1,4,-1,1,-1,-1,2
1532369916371,-2,4,-12,-1,0,0,15,2
1532369916376,-3,-2,-3,-5,-11,-6,-13,-5
1532369916381,1,-6,2,5,9,-4,-33,-4
1532369916386,2,2,-5,0,-2,-4,7,0
1532369916391,-1,-3,10,-2,0,4,-3,0
1532369916396,-1,-1,-5,-3,-9,-2,3,-2
1532369916401,-4,1,-1,1,0,0,0,-2
1532369916406,0,-1,-2,-2,-13,-3,-2,-3
1532369916411,1,-1,4,2,6,4,24,3
1532369916416,-2,1,-1,0,-3,-1,-12,-2
1532369916421,-2,-1,0,-3,1,-6,-37,-4
1532369916426,1,-2,-2,1,5,1,27,3
1532369916431,-1,-2,0,0,-3,-1,-3,-3
1532369916436,0,1,1,-2,2,-2,8,1
1532369916441,-1,-2,-1,0,-3,-1,-5,-2
1532369916446,0,-2,-2,-6,-4,1,-4,-1
1532369916451,-1,2,-3,1,1,-1,3,1
1532369916456,2,1,0,1,7,1,-5,-1
1532369916461,3,2,-1,0,-6,-2,6,0
1532369916466,-6,-7,-3,-1,2,1,-8,-3
1532369916471,2,0,3,0,0,-2,-11,-2
1532369916476,-1,-1,0,-1,-7,-5,17,-1
1532369916481,-2,-2,-3,-6,-10,-2,-16,-1
1532369916486,2,4,-2,1,5,2,1,1
1532369916491,-3,-2,-1,2,7,1,-7,-2
1532369916496,0,-1,1,3,1,-4,0,0
1532369916501,-2,-2,-4,-7,-5,1,11,-6
1532369916506,3,-1,-4,-4,-7,-6,-3,2
1532369916511,-3,-2,1,-2,-3,1,1,-2
1532369916516,-1,-2,-1,6,8,-1,-7,-1
1532369916521,-2,0,0,3,3,5,8,0
1532369916526,2,1,-1,1,5,-1,4,12
1532369916531,-1,-3,-1,1,-3,-3,-13,5
1532369916536,-1,1,-1,0,5,-1,-4,-22
1532369916541,-1,-2,-2,-3,-2,0,4,1
1532369916546,-3,-2,-1,-1,-4,-2,2,-13
1532369916551,2,0,-2,-2,-6,-5,7,10
1532369916556,-2,-1,1,-3,3,4,-7,-13
1532369916561,-1,0,0,3,-1,-5,9,28
1532369916566,-2,1,-1,0,3,2,-13,-12
1532369916571,0,-2,-2,-2,-3,-1,1,-4
1532369916576,0,-3,0,-1,-3,1,0,6
1532369916581,-1,-1,-1,-2,-5,-2,3,-6
1532369916586,-1,0,0,-2,4,1,-1,-4
1532369916591,-1,-2,-1,0,-1,-2,-1,-2
1532369916596,-2,-3,-3,-2,-1,-3,-5,-5
1532369916601,0,1,1,1,3,0,1,-2
1532369916606,2,0,2,4,0,0,-2,12
1532369916611,3,7,1,0,0,0,7,-5
1532369916616,-3,-10,-4,-4,-5,-4,-6,4
1532369916621,-5,-4,-4,-4,-1,-2,-1,-6
1532369916626,-1,-5,0,0,1,-3,-2,-5
1532369916631,-5,0,1,-1,-2,-1,2,-2
1532369916636,3,4,-1,-3,-2,0,0,10
1532369916641,0,1,-1,2,4,2,-2,-4
1532369916646,-2,0,-13,1,-4,-2,0,-5
1532369916651,-1,-7,5,-4,-2,-1,-1,2
1532369916656,4,13,10,0,2,0,-1,2
1532369916661,-4,-3,2,5,4,2,-5,-7
1532369916666,-1,-4,-7,-6,-5,-2,1,3
1532369916671,1,1,-2,-1,1,0,-1,-2
1532369916676,-2,-3,-2,0,-5,0,-1,0
1532369916681,0,-2,1,-4,-3,-3,0,-1
1532369916686,0,4,2,3,4,-1,0,-1
1532369916691,-3,-16,-5,-2,-11,-2,-2,1
1532369916696,5,14,-1,2,5,1,-2,1
1532369916701,-11,-32,-5,3,2,1,-8,-11
1532369916706,3,20,1,-1,-3,0,13,12
1532369916711,-6,-7,-2,-2,-4,-4,-10,-22
1532369916716,4,2,-1,-1,0,3,12,30
1532369916721,0,-1,-2,-3,-1,-4,-17,-22
1532369916726,0,-5,2,-3,0,2,-1,-4
1532369916731,0,5,1,-1,4,0,-1,-5
1532369916736,-1,-3,-5,-2,1,1,-3,-2
1532369916741,2,8,0,-4,-1,-2,13,2
1532369916746,-2,-4,2,-1,-6,-2,-5,-4
1532369916751,2,8,-1,1,-2,0,2,-6
1532369916756,-4,-7,-2,-1,-2,-2,-3,6
1532369916761,2,4,0,1,5,5,3,6
1532369916766,-2,-1,0,1,-2,-2,2,2
1532369916771,0,-2,-1,-2,1,0,-8,-1
1532369916776,-4,-4,-3,-3,-9,-3,2,-26
1532369916781,5,7,0,-2,3,1,-1,13
1532369916786,-5,-7,0,-1,2,1,0,-3
1532369916791,2,0,-1,3,2,-1,4,7
1532369916796,-2,-4,2,0,3,-1,-5,-13
1532369916801,-1,9,-2,-1,-3,-3,4,12
1532369916806,2,0,2,1,-2,-3,-3,-2
1532369916811,-11,-14,-6,-5,-6,-4,-1,4
1532369916816,-4,-2,-1,1,6,0,-4,-8
1532369916821,-1,1,-2,0,-5,-1,3,3
1532369916826,1,-1,-1,-3,-2,-3,-5,-8
1532369916831,2,3,1,4,10,3,2,2
1532369916836,2,-1,-4,-4,-9,-6,4,3
1532369916841,1,0,-1,-2,-5,-1,-6,2
1532369916846,-2,-16,2,1,2,2,0,1
1532369916851,7,33,-1,-1,7,2,-2,-6
1532369916856,-2,-5,-3,-4,-10,-5,-1,2
1532369916861,-1,0,0,-2,-1,0,3,-6
1532369916866,1,-3,-1,-2,0,1,-1,-1
1532369916871,-4,-6,-2,-2,-5,-1,2,7
1532369916876,-1,0,-1,1,0,2,0,1
1532369916881,-2,2,2,0,-3,-3,-8,-5
1532369916886,-3,-1,-3,-7,-1,-2,7,7
1532369916891,-2,-5,1,5,4,1,0,0
1532369916896,5,4,0,-2,6,0,-1,-14
1532369916901,3,-2,-2,-1,-5,-1,4,10
1532369916906,-6,-4,-1,0,-1,-2,-10,-10
1532369916911,-3,-10,-4,-3,-5,-5,1,0
1532369916916,-3,-3,4,4,-2,0,-1,0
1532369916921,1,-6,-7,-5,-2,-2,3,2
1532369916926,2,3,-3,-1,1,0,-3,-4
1532369916931,1,-1,-4,0,3,0,-1,-2
1532369916936,-3,-2,-2,1,-1,0,0,6
1532369916941,-1,2,2,-1,-1,-2,1,-2
1532369916946,0,-2,2,6,9,3,-6,0
1532369916951,-3,-2,-2,-5,-4,-4,-2,-3
1532369916956,-1,0,-1,-3,-7,-2,-1,5
1532369916961,-1,-3,6,4,-2,-1,-4,-4
1532369916966,1,1,-9,-4,4,0,1,-1
1532369916971,-1,6,5,0,-3,1,2,2
1532369916976,-4,-10,-4,3,5,1,-2,-11
1532369916981,3,2,1,-2,-2,-1,3,0
1532369916986,-3,0,1,0,-3,-4,-8,-5
1532369916991,2,1,0,1,0,-2,-2,1
1532369916996,-2,1,-1,-1,-3,0,-2,1
1532369917001,-2,-2,-3,-5,-7,-2,-3,-9
1532369917006,1,3,1,4,4,2,1,4
1532369917011,0,-5,-4,-6,-3,-2,-1,-3
1532369917016,3,1,0,-1,-4,-4,-3,-1
1532369917021,-2,1,-2,1,5,1,1,0
1532369917026,-2,4,1,-2,-6,-2,0,3
1532369917031,1,-3,1,5,7,3,1,2
1532369917036,0,-9,-3,-4,-4,-1,-1,6
1532369917041,-1,28,1,-1,-1,-2,-2,-2
1532369917046,-2,-3,3,-2,-5,0,-1,-1
1532369917051,0,-2,-5,-3,-1,1,1,-3
1532369917056,2,2,1,1,3,-1,0,5
1532369917061,0,-4,-3,1,-2,0,0,3
1532369917066,-5,-4,2,1,1,2,-4,-8
1532369917071,-2,5,1,-2,-4,-2,2,2
1532369917076,3,2,-2,-2,4,-1,-1,2
1532369917081,-3,-14,-2,0,0,1,0,-4
1532369917086,1,4,-4,-5,-4,-3,-1,1
1532369917091,-2,-6,1,1,5,1,-1,1
1532369917096,-1,3,-1,3,-1,0,1,2
1532369917101,-2,-4,-2,-7,-3,-3,-7,-8
1532369917106,-2,0,0,1,-1,-1,-2,-3
1532369917111,1,-3,-1,0,-4,-1,2,1
1532369917116,-4,2,1,-3,-2,-2,-1,2
1532369917121,-1,0,-2,3,9,2,-1,-3
1532369917126,1,-19,-4,-4,-7,-1,2,6
1532369917131,-3,8,1,-2,-1,-3,-5,-3
1532369917136,0,0,-3,1,1,0,-4,-3
1532369917141,-1,-4,-2,-5,-6,-3,0,5
1532369917146,-1,-5,-3,0,-1,-1,5,-14
1532369917151,4,-4,-1,1,-2,-1,-2,0
1532369917156,-6,-13,-1,-1,3,0,-1,-1
1532369917161,-5,10,1,0,1,-1,-1,-8
1532369917166,0,4,-1,-2,1,0,3,10
1532369917171,3,-2,0,2,-1,3,-1,-1
1532369917176,-4,3,-2,-4,0,0,0,-1
1532369917181,-2,-7,0,2,9,2,0,-4
1532369917186,1,9,0,-3,-17,-5,-2,1
1532369917191,-4,-2,-2,-3,-3,-1,0,0
1532369917196,3,-2,-1,-1,-5,-1,1,5
1532369917201,-1,-1,0,1,4,2,-5,-3
1532369917206,0,2,0,2,9,5,3,2
1532369917211,0,-4,0,0,0,0,-1,-5
1532369917216,-1,2,0,2,-3,-1,1,-2
1532369917221,-1,-2,-1,-1,-4,0,0,-2
1532369917226,-1,-1,-1,0,-2,-3,-8,5
1532369917231,-1,-2,0,0,-1,0,8,0
1532369917236,-3,-8,7,0,1,-1,0,-16
1532369917241,7,27,-6,0,-4,-3,-9,19
1532369917246,0,-5,-1,-3,2,-1,-1,-2
1532369917251,-5,-2,-3,0,-1,0,-2,-2
1532369917256,1,-1,-2,-1,3,1,0,0
1532369917261,-4,-16,0,-1,-6,-4,2,2
1532369917266,-1,3,-2,0,1,1,3,-2
1532369917271,3,7,1,-1,-5,-3,-5,1
1532369917276,0,-3,-2,-1,0,1,0,1
1532369917281,0,-5,0,-2,-5,-3,1,-4
1532369917286,2,-1,-2,2,5,0,-1,2
1532369917291,-3,-6,-1,2,4,1,-1,-4
1532369917296,-1,0,-2,-3,-2,1,-3,-1
1532369917301,0,-4,3,-2,-4,-5,0,-2
1532369917306,-1,-2,-7,-3,-7,-5,0,-4
1532369917311,-1,-3,-1,-4,-3,-2,-2,1
1532369917316,0,3,1,4,4,3,5,10
1532369917321,-1,-3,0,2,5,2,-3,-2
1532369917326,-2,0,3,2,0,-1,1,-2
1532369917331,1,1,1,-4,2,-2,-2,1
1532369917336,2,-2,-3,-3,-7,-2,-2,1
1532369917341,-9,-11,-1,-1,1,0,-1,-4
1532369917346,-1,4,-2,-1,0,1,2,-8
1532369917351,5,5,0,0,-1,-1,2,1
1532369917356,-3,1,1,0,0,-2,-5,-8
1532369917361,2,-5,-2,-5,-9,-3,-1,-3
1532369917366,-7,2,1,0,3,-2,-4,-4
1532369917371,0,-6,-4,-3,-5,-1,-1,-1
1532369917376,2,3,-2,-1,-2,0,2,6
1532369917381,1,0,0,0,0,0,-2,-1
1532369917386,-1,1,1,1,5,1,1,3
1532369917391,-1,0,2,-1,-5,-5,-1,-1
1532369917396,-4,-2,-5,-2,-1,-1,-2,0
1532369917401,3,2,-1,-2,2,-1,1,-1
1532369917406,3,1,0,0,-8,-1,-4,1
1532369917411,-8,-2,-2,-5,-1,-3,-4,-2
1532369917416,-3,1,-2,-1,-4,-1,0,-5
1532369917421,-1,-4,1,4,2,1,0,-1
1532369917426,4,7,1,-2,1,-1,-3,1
1532369917431,-1,-9,-4,1,0,1,2,2
1532369917436,-2,0,-1,3,3,-1,-2,0
1532369917441,0,3,-8,-3,-6,1,0,1
1532369917446,-1,-8,0,-4,-6,-2,-2,0
1532369917451,-1,-2,-3,1,-1,0,-3,-3
1532369917456,-3,-2,1,-2,1,0,-1,-3
1532369917461,1,-1,1,2,2,0,0,0
1532369917466,0,-4,0,-1,-1,0,1,3
1532369917471,-2,3,-1,0,0,-2,-1,-6
1532369917476,-1,0,1,-3,0,-1,-2,-10
1532369917481,0,-2,-2,1,0,-3,0,8
1532369917486,-2,-1,-1,0,3,0,2,-1
1532369917491,1,0,0,1,0,-1,-1,3
1532369917496,1,0,-3,-3,0,-3,-3,-2
1532369917501,1,-6,1,-1,-7,-4,-1,-3
1532369917506,-6,-2,4,0,0,0,0,0
1532369917511,1,1,-6,0,4,3,0,-1
1532369917516,-3,-1,0,0,-1,-1,1,1
1532369917521,-2,-2,-1,-2,-1,1,1,2
1532369917526,3,3,3,3,4,0,-1,3
1532369917531,-1,-4,2,-1,-6,-2,-3,-2
1532369917536,1,0,-1,-6,-6,-3,-1,1
1532369917541,-1,4,0,-1,1,1,2,-3
1532369917546,0,-4,-2,-1,4,0,-2,-4
1532369917551,-1,2,-1,2,-3,-1,-2,-1
1532369917556,3,-1,1,1,4,0,-3,0
1532369917561,-5,-2,-1,-2,-8,-4,4,-2
1532369917566,-1,0,-2,-2,3,2,0,0
1532369917571,1,0,0,-3,-4,-1,-1,1
1532369917576,0,4,-1,0,-5,-1,-1,2
1532369917581,-1,-1,0,1,3,0,-3,-3
1532369917586,-2,0,-3,-1,-8,-4,0,-1
1532369917591,-2,-3,0,2,5,0,-1,1
1532369917596,5,1,-1,-3,-6,-2,0,4
1532369917601,-10,-6,-1,-1,3,1,-3,-6
1532369917606,0,1,-3,-3,-1,1,-1,-3
1532369917611,-2,-8,-2,0,0,-1,1,0
1532369917616,-3,-7,1,-1,2,-1,1,4
1532369917621,1,6,-3,0,2,3,3,-4
1532369917626,-1,1,-3,2,2,-1,-5,-7
1532369917631,-1,-2,-1,-4,-14,-7,-3,2
1532369917636,-2,0,0,1,3,2,-1,-2
1532369917641,-2,-2,0,-3,0,-4,-2,-7
1532369917646,-1,-7,-2,2,-4,-1,6,-1
1532369917651,7,6,3,0,7,5,-3,25
1532369917656,-4,0,-2,1,-4,-1,-3,-8
1532369917661,2,0,1,2,6,1,-8,-11
1532369917666,0,0,-1,-1,-5,1,8,13
1532369917671,1,0,0,-1,0,-2,6,8
1532369917676,-1,3,-1,0,-7,-4,1,-12
1532369917681,-2,-2,-3,-1,4,2,-5,-8
1532369917686,-4,0,2,-2,-5,-1,-8,-38
1532369917691,3,0,-4,-2,0,3,12,27
1532369917696,-2,-7,-3,1,0,-1,0,1
1532369917701,0,0,-2,-1,-4,-4,-15,-10
1532369917706,-1,-1,-2,1,-2,-5,0,4
1532369917711,-5,1,3,2,2,0,-2,-13
1532369917716,-1,0,-3,-4,4,-2,-11,-16
1532369917721,4,-1,0,-1,-10,-1,22,27
1532369917726,1,1,2,-4,4,2,-9,2
1532369917731,-6,-2,-4,-3,-3,-5,-2,-32
1532369917736,1,0,-1,-2,-4,0,-2,10
1532369917741,1,0,0,0,1,0,-3,0
1532369917746,-2,-5,-1,0,-2,0,-1,4
1532369917751,1,0,-1,-8,-5,-3,-3,-10
1532369917756,0,10,1,0,0,0,0,-2
1532369917761,0,-14,3,0,2,-1,1,3
1532369917766,-8,11,-10,-1,1,-2,-3,0
1532369917771,-3,5,0,0,5,2,-5,-6
1532369917776,0,-1,1,1,-2,0,9,25
1532369917781,1,8,2,1,4,-1,-5,-6
1532369917786,4,0,2,-2,-8,-1,4,11
1532369917791,-3,-11,-3,-2,-4,-4,-10,-27
1532369917796,4,4,-3,-4,-4,1,17,31
1532369917801,-3,-27,-2,-3,-3,-1,-6,-9
1532369917806,0,19,2,-1,-2,-4,-3,2
1532369917811,-2,7,0,1,4,1,5,6
1532369917816,0,13,-2,0,1,-2,-12,-21
1532369917821,-1,-2,-2,1,0,1,0,1
1532369917826,3,1,0,-1,-1,-3,-1,2
1532369917831,-1,-7,0,0,0,9,19,9
1532369917836,-3,-10,-4,-1,0,1,11,-7
1532369917841,-3,9,-1,-1,-3,0,-2,5
1532369917846,1,-7,-5,-4,0,-2,-14,-5
1532369917851,-1,-12,3,-2,-2,-4,-7,-2
1532369917856,-6,-4,1,3,0,0,-3,-4
1532369917861,-2,8,-1,-1,-4,-5,-20,-1
1532369917866,-3,-12,7,2,0,1,30,3
1532369917871,2,2,-7,-2,-1,-1,-8,-3
1532369917876,-10,-1,-6,-2,0,1,-6,2
1532369917881,-1,1,6,2,-1,-4,3,-2
1532369917886,-1,-3,5,-1,-1,-1,-31,1
1532369917891,-3,-5,2,4,-2,1,36,5
1532369917896,-2,-17,3,-3,-1,-1,-30,-10
1532369917901,5,18,-2,-3,-2,3,36,6
1532369917906,-7,-8,3,5,3,-2,-28,-2
1532369917911,2,4,0,-4,1,3,-3,-1
1532369917916,7,-6,3,-1,-1,2,36,4
1532369917921,-1,1,-2,-2,-2,-12,-34,-9
1532369917926,7,-11,-5,-4,-3,1,24,15
1532369917931,-4,-3,7,0,-3,-2,-8,-2
1532369917936,3,7,-18,3,6,0,-12,-6
1532369917941,-10,-22,14,1,-2,-1,15,-2
1532369917946,15,23,3,1,3,7,-8,2
1532369917951,1,-5,-6,-2,-1,-1,2,3
1532369917956,-12,-7,4,-2,-7,1,4,-5
1532369917961,1,-21,-10,-4,-2,1,16,9
1532369917966,-4,49,-2,-4,3,-8,-25,-8
1532369917971,-2,15,8,-1,-3,-3,-10,-3
1532369917976,4,-12,-7,-3,0,0,-6,-4
1532369917981,-1,13,-2,-2,1,6,14,5
1532369917986,-14,-17,6,8,1,-2,4,-9
1532369917991,24,0,-21,-12,0,6,-4,21
1532369917996,-5,11,5,0,-2,-4,0,-4
1532369918001,2,4,-3,-2,1,-3,-6,-3
1532369918006,-2,-14,-3,5,4,0,1,0
1532369918011,-10,-6,3,1,2,-5,-11,-13
1532369918016,0,-9,1,-7,-12,-4,-1,-2
1532369918021,1,9,-3,-3,-2,-2,-16,3
1532369918026,-3,-21,-8,-5,1,1,2,-6
1532369918031,-7,2,1,3,-1,-3,5,-6
1532369918036,7,5,1,-2,2,0,4,3
1532369918041,-13,6,1,1,2,2,-3,-3
1532369918046,3,-2,-2,-2,-4,-1,5,3
1532369918051,-2,-7,-1,-1,-1,-2,-2,-4
1532369918056,0,3,5,-1,-4,-6,-10,0
1532369918061,1,-4,-3,-1,-6,0,2,0
1532369918066,-1,-3,-3,1,6,0,8,-4
1532369918071,-3,-1,-3,-11,-19,-7,-8,-1
1532369918076,2,-3,-1,-2,3,-1,2,3
1532369918081,-2,-3,-1,3,-1,1,-1,0
1532369918086,1,-7,-2,-4,3,3,6,0
1532369918091,-4,-2,6,9,12,3,-7,-4
1532369918096,-2,4,-2,-2,-6,-3,-2,-3
1532369918101,3,-6,-3,-2,-3,-5,3,2
1532369918106,0,-1,2,1,-2,5,6,-3
1532369918111,0,2,-2,-1,10,1,-7,-1
1532369918116,-5,-8,0,-5,-14,-4,5,-2
1532369918121,3,2,0,7,16,6,-9,2
1532369918126,-2,-5,-3,-6,-6,-3,-11,-4
1532369918131,-4,-2,-1,-7,-26,-6,1,0
1532369918136,1,4,9,8,9,1,2,2
1532369918141,-2,-45,-7,0,0,-1,-5,-3
1532369918146,12,58,3,1,2,1,6,2
1532369918151,0,14,0,6,14,2,-2,-4
1532369918156,-6,-6,-2,1,-2,-3,9,-3
1532369918161,4,10,6,-1,-2,7,11,7
1532369918166,-7,-28,-7,-6,-2,2,5,-4
1532369918171,2,-1,0,0,-3,-2,-3,-2
1532369918176,3,10,3,3,10,2,-5,-4
1532369918181,-1,8,-2,-5,-3,-2,-2,-2
1532369918186,-1,-11,-5,-5,-16,-10,-3,-3
1532369918191,2,8,9,9,1,3,17,2
1532369918196,-5,-11,-10,-9,3,1,-5,0
1532369918201,1,8,-1,2,2,-5,-25,0
1532369918206,-4,-8,-1,-1,2,-1,19,2
1532369918211,-3,-5,-2,-6,-5,-3,-20,-3
1532369918216,1,-1,1,3,-1,-1,-2,1
1532369918221,2,6,-1,0,-1,2,9,-4
1532369918226,1,-1,2,-1,1,0,-2,1
1532369918231,-1,0,-6,3,6,1,3,1
1532369918236,-5,-2,0,1,0,3,-3,0
1532369918241,-1,5,-5,-9,-1,-3,-1,-7
1532369918246,-5,-7,-1,0,-14,-3,-2,1
1532369918251,-1,-5,-1,0,2,-4,-1,-1
1532369918256,3,3,0,1,-3,-3,-6,-1
1532369918261,0,3,3,5,2,1,1,-1
1532369918266,-1,-9,-1,0,5,1,1,4
1532369918271,-1,-2,-3,-4,-6,-3,-4,0
1532369918276,1,6,1,2,-2,-2,-1,0
1532369918281,-2,-2,-2,-4,5,0,0,-3
1532369918286,-1,-2,4,-1,-11,-1,-2,0
1532369918291,-1,0,-8,-3,2,2,-1,1
1532369918296,1,0,1,1,10,4,-3,-1
1532369918301,-3,0,-4,-8,-10,-4,-1,-4
1532369918306,-1,1,0,6,5,-3,-3,-1
1532369918311,-2,-12,1,-1,-3,-4,-2,-4
1532369918316,2,17,-20,-2,-5,-2,1,2
1532369918321,0,3,26,0,-2,0,-1,0
1532369918326,3,-2,-5,-1,5,0,-1,-1
1532369918331,-2,-1,-1,3,-1,-1,0,0
1532369918336,0,-5,-1,-1,-1,-1,-1,1
1532369918341,1,3,-9,-4,-2,-2,-1,0
1532369918346,-2,-1,6,2,-3,-2,2,1
1532369918351,1,-3,0,5,-3,-1,-2,0
1532369918356,-3,-5,-2,-4,2,0,-2,0
1532369918361,2,0,-7,-2,0,-1,2,-1
1532369918366,-7,-9,3,8,9,3,0,0
1532369918371,0,0,-4,-7,3,0,-1,-3
1532369918376,-4,-4,4,-1,-14,-7,-2,-3
1532369918381,4,2,-12,6,-3,-4,-1,3
1532369918386,0,5,3,-13,0,-2,-5,-3
1532369918391,-2,-4,-12,-5,7,5,3,0
1532369918396,-3,-9,2,1,0,2,-1,-3
1532369918401,-3,-4,-6,-1,-1,-3,-2,-2
1532369918406,2,1,-5,4,-6,-3,-4,-1
1532369918411,0,-4,3,-3,2,-2,-1,1
1532369918416,5,2,0,-6,0,-2,-2,0
1532369918421,-4,-1,-5,0,5,4,0,1
1532369918426,-2,-7,-1,2,-9,-4,-4,1
1532369918431,0,4,1,-6,-6,-5,-4,-3
1532369918436,5,-2,1,3,0,0,3,1
1532369918441,1,5,2,-2,-6,-1,-1,-1
1532369918446,-4,-1,-6,4,3,0,2,-2
1532369918451,1,1,-1,-2,3,0,1,1
1532369918456,-2,4,1,-1,0,-2,-2,0
1532369918461,1,-3,-2,-1,-4,3,2,-4
1532369918466,0,-3,-6,-15,-6,-6,-4,-2
1532369918471,0,18,2,4,-4,-1,-3,1
1532369918476,-4,-12,1,4,9,6,2,-2
1532369918481,-3,-5,14,0,1,-2,-1,-2
1532369918486,1,3,-13,-7,-3,-1,-2,-2
1532369918491,-4,-8,0,2,-11,-5,-2,-1
1532369918496,2,5,6,-1,1,-2,-1,0
1532369918501,0,3,0,7,3,0,-1,-1
1532369918506,0,-6,3,0,4,2,0,1
1532369918511,-2,-3,1,-2,-5,-2,0,-2
1532369918516,-1,-1,0,1,4,2,3,1
1532369918521,3,-7,-4,2,-1,-1,-1,-1
1532369918526,1,13,-10,-5,-2,-2,-2,-1
1532369918531,-2,2,17,3,1,5,6,-4
1532369918536,-2,6,0,-6,-9,-5,-7,0
1532369918541,-8,-13,0,-3,3,3,1,-5
1532369918546,2,-7,-7,0,1,3,-1,0
1532369918551,1,-1,4,1,1,-2,-3,1
1532369918556,-2,-4,-2,0,-5,-2,-1,-5
1532369918561,0,4,3,0,-2,-3,-1,1
1532369918566,-3,-3,3,4,7,3,0,-3
1532369918571,3,-5,-3,-2,0,-2,-2,1
1532369918576,-1,-4,-6,-3,-4,-4,-2,-3
1532369918581,-1,2,-6,2,-2,-2,-2,1
1532369918586,-1,-3,0,-5,-3,3,1,-4
1532369918591,-3,-1,3,5,-6,-4,-1,-1
1532369918596,1,3,-9,-10,3,0,-2,3
1532369918601,-2,1,1,2,4,2,2,-1
1532369918606,-3,-3,-11,-6,-10,-7,-1,-1
1532369918611,-1,0,11,5,1,-2,-5,0
1532369918616,-2,0,-2,1,3,4,1,-1
1532369918621,-1,-3,3,2,-3,-2,0,-3
1532369918626,-2,-4,-2,-1,0,-2,-4,-4
1532369918631,3,0,-7,2,3,3,2,5
1532369918636,-3,-2,2,-6,-3,-5,-3,-3
1532369918641,1,-2,-12,-10,-8,0,-1,-3
1532369918646,4,4,10,2,4,0,-3,0
1532369918651,-6,-19,-9,-2,-5,-3,-7,-6
1532369918656,-2,1,6,7,12,7,6,1
1532369918661,-3,-7,-10,-9,-11,-2,1,0
1532369918666,-4,6,2,4,3,-1,4,3
1532369918671,-1,-5,0,0,4,5,-3,2
1532369918676,-1,-2,-3,-2,-6,-6,-5,-1
1532369918681,-1,-1,1,-2,-3,-5,-3,-2
1532369918686,1,-5,2,1,-4,-2,0,-3
1532369918691,-2,6,-7,-7,2,-2,-2,-2
1532369918696,-1,-1,2,3,-3,-3,-4,-1
1532369918701,4,6,2,3,0,0,4,5
1532369918706,0,-3,3,-1,2,4,-5,-2
1532369918711,3,5,-2,0,-3,-2,2,1
1532369918716,-1,1,-5,-4,-3,-2,-2,-2
1532369918721,0,-2,3,6,5,-1,-5,1
1532369918726,-1,0,1,2,0,0,3,0
1532369918731,-1,2,4,-8,0,-1,0,0
1532369918736,-2,-4,-11,-1,-9,-5,1,-1
1532369918741,1,5,-2,6,11,3,2,-1
1532369918746,0,-1,22,1,-3,-3,0,-1
1532369918751,-1,0,-10,-2,0,-1,-1,-3
1532369918756,-1,-2,5,-4,-3,0,1,0
1532369918761,-3,-1,5,7,-2,-3,-3,-2
1532369918766,2,-6,-9,-13,2,0,-2,0
1532369918771,3,22,-5,3,5,3,1,-1
1532369918776,-7,-10,0,1,1,2,-2,-1
1532369918781,2,-1,-4,-4,-5,-2,-2,1
1532369918786,1,-3,-1,-1,1,-1,0,1
1532369918791,0,-4,0,0,-7,-5,0,-1
1532369918796,1,1,-3,-1,2,1,-1,3
1532369918801,-3,1,6,-1,-2,-2,-3,-3
1532369918806,-2,3,-5,4,4,3,2,0
1532369918811,-2,-4,5,-5,-3,0,-1,-3
1532369918816,2,4,-11,6,4,3,0,0
1532369918821,-4,-2,-11,-4,-4,-2,-1,-1
1532369918826,-1,1,9,-6,0,-2,0,-1
1532369918831,-4,-5,-8,-1,-5,-1,0,0
1532369918836,0,0,0,0,-7,-5,-3,-1
1532369918841,2,0,6,6,1,-1,0,-1
1532369918846,-1,2,-6,-4,-3,-3,-2,0
1532369918851,-1,0,18,5,5,2,0,-1
1532369918856,-1,-17,-21,-3,1,0,-1,-2
1532369918861,-1,4,-5,-2,-3,1,0,-1
1532369918866,-3,-1,-3,-10,-7,-2,-2,0
1532369918871,0,-1,-2,0,5,1,0,0
1532369918876,-1,-8,12,5,-2,-2,0,0
1532369918881,-1,-2,0,0,0,-2,-2,-1
1532369918886,2,0,4,2,-2,0,-1,1
1532369918891,0,-4,-23,0,1,-1,-1,-1
1532369918896,2,6,21,-1,0,-1,-2,-2
1532369918901,-2,-2,-1,1,0,-1,0,1
1532369918906,-1,0,0,0,-2,0,2,-1
1532369918911,2,0,-3,1,4,2,0,0
1532369918916,4,4,-5,-1,2,0,-1,0
1532369918921,-6,0,4,-8,-7,-5,-2,1
1532369918926,-1,-3,3,8,0,-2,0,-1
1532369918931,-1,-9,-8,-6,2,-3,-3,0
1532369918936,-2,2,-8,-6,-1,3,0,-1
1532369918941,2,-1,2,-5,-3,-3,-2,-2
1532369918946,-1,-13,-6,0,1,0,0,-4
1532369918951,1,31,12,4,0,1,-1,0
1532369918956,0,-5,-8,1,-3,-2,-2,0
1532369918961,-4,-7,14,-2,2,-1,0,0
1532369918966,-1,-1,-6,5,4,-1,-2,0
1532369918971,0,-7,2,-5,-7,-2,-1,-3
1532369918976,1,2,4,-4,-5,-4,-2,-2
1532369918981,3,4,-9,-1,1,1,2,1
1532369918986,-1,0,-1,3,1,1,1,0
1532369918991,-1,-7,2,-1,3,3,-2,-1
1532369918996,-1,4,5,7,0,0,1,2
1532369919001,-2,-6,-4,-8,-10,-2,-3,-2
1532369919006,-1,3,5,4,5,1,-1,-1
1532369919011,1,-3,-24,-2,-4,0,2,1
1532369919016,-1,-3,2,-4,0,-1,-1,-1
1532369919021,0,1,2,7,5,2,1,-3
1532369919026,-1,0,1,-5,-3,-2,-1,-1
1532369919031,-1,-4,1,-3,-4,-3,-1,1
1532369919036,-3,-1,-2,-3,1,-1,-1,-3
1532369919041,2,-11,-4,-3,-3,-2,-1,2
1532369919046,1,22,-9,1,-2,-1,-2,-2
1532369919051,-4,0,7,2,-2,-1,-1,-1
1532369919056,-6,-4,-5,-1,2,2,1,-2
1532369919061,-1,-1,-2,-4,-4,-2,-3,-1
1532369919066,-4,-10,-7,-1,-10,-5,-4,-2
1532369919071,0,-2,2,-2,4,2,-1,-1
1532369919076,1,3,4,1,2,-3,-1,1
1532369919081,-3,1,-6,-10,-6,-2,-2,-1
1532369919086,1,-4,-1,-2,-4,-4,-2,0
1532369919091,-1,0,4,10,5,4,4,-3
1532369919096,0,1,5,6,5,4,-2,-1
1532369919101,0,4,15,5,-4,-3,-1,0
1532369919106,0,-6,-16,-12,-3,-2,0,2
1532369919111,-3,-8,0,-4,-2,-2,-1,1
1532369919116,0,1,2,4,-1,1,2,-2
1532369919121,0,1,-3,-2,1,0,0,-2
1532369919126,-1,2,4,-1,1,0,1,-1
1532369919131,-1,-3,-1,1,-12,-6,-2,-1
1532369919136,0,-1,-3,-7,3,0,-1,2
1532369919141,1,1,-3,2,1,1,-2,-2
1532369919146,0,-5,-2,2,3,2,0,-1
1532369919151,-2,-5,-7,-5,-3,-3,-1,0
1532369919156,0,4,2,-2,-5,-5,-3,0
1532369919161,0,-4,-2,-2,3,-1,1,0
1532369919166,0,-4,2,1,1,1,1,-3
1532369919171,3,-6,0,-2,-1,-2,0,0
1532369919176,-1,7,0,-7,-9,-6,-4,-2
1532369919181,-3,2,0,14,1,-1,-2,2
1532369919186,5,34,-2,-8,1,3,-1,-2
1532369919191,-9,-15,-14,-4,-6,1,1,-3
1532369919196,5,-5,8,-7,-6,-2,-1,0
1532369919201,-1,1,-18,-6,-4,-2,-2,0
1532369919206,0,-1,5,3,0,-2,-2,0
1532369919211,0,5,2,-1,4,0,-3,1
1532369919216,-1,1,-1,8,5,1,0,-1
1532369919221,-1,-5,1,-2,2,1,-2,-2
1532369919226,-4,-9,4,1,-7,-3,-1,1
1532369919231,-1,0,2,-2,-2,-1,-1,-1
1532369919236,2,-7,-6,1,-5,1,1,-1
1532369919241,-2,2,13,6,0,-2,0,0
1532369919246,-4,-7,-22,-9,0,-1,0,2
1532369919251,1,3,10,5,-4,-4,-2,0
1532369919256,-4,1,-20,-3,4,-1,-1,-3
1532369919261,0,0,4,-5,-2,1,3,2
1532369919266,0,-4,10,7,1,2,1,1
1532369919271,0,-1,-4,-6,0,-1,0,2
1532369919276,-1,-2,-2,1,-1,-1,1,1
1532369919281,0,-2,-4,-1,3,-1,-3,-4
1532369919286,-1,-4,4,-2,-6,-5,-2,0
1532369919291,0,0,0,0,4,1,0,-1
1532369919296,-2,-2,1,-2,-2,-1,-2,1
1532369919301,1,5,-4,-1,3,1,-1,-2
1532369919306,-5,-11,4,0,-2,1,0,-1
1532369919311,0,4,0,2,3,1,0,-2
1532369919316,-4,-3,2,-4,-4,-1,-1,-4
1532369919321,-1,0,-2,-2,0,0,2,3
1532369919326,-2,0,-4,3,-5,-3,-1,-2
1532369919331,3,-2,1,-1,1,-1,-1,0
1532369919336,-3,-10,3,0,7,3,-2,0
1532369919341,2,1,-7,-2,-10,-3,-1,-2
1532369919346,-1,-6,-1,1,2,-1,-1,0
1532369919351,-2,-1,-4,1,-4,-1,-1,-1
1532369919356,1,3,0,2,1,-2,0,0
1532369919361,-2,-4,-4,-2,4,0,-2,-1
1532369919366,-1,-2,7,5,0,-2,-1,-1
1532369919371,0,1,1,-5,-4,-3,-2,-1
1532369919376,-1,7,-1,-2,-3,-1,-2,-1
1532369919381,-4,-4,3,-1,1,-4,-5,-6
1532369919386,-1,3,-11,-1,4,1,2,3
1532369919391,-1,3,-1,-1,-2,-1,-2,0
1532369919396,-1,-6,0,-2,-2,-2,-2,-1
1532369919401,-1,0,1,1,-1,-2,0,-1
1532369919406,2,-1,2,1,7,2,2,-1
1532369919411,-1,-3,-2,-4,-9,-5,-2,-5
1532369919416,-2,-2,-3,-2,0,1,-2,0
1532369919421,-3,0,-2,-5,-13,-5,-3,-1
1532369919426,3,4,3,-3,-1,-2,-1,1
1532369919431,2,1,1,4,3,1,1,0
1532369919436,-5,-19,4,2,-1,-2,0,-3
1532369919441,-1,2,-4,-2,-1,0,-1,-1
1532369919446,-3,-6,2,-2,-3,-1,-3,-3
1532369919451,1,2,-8,0,-2,-4,-1,-1
1532369919456,4,-1,0,-2,6,2,3,5
1532369919461,-1,-5,-1,7,2,2,0,1
1532369919466,-1,-1,-4,-2,-4,-2,0,-2
1532369919471,-2,-4,4,-1,2,0,-2,-2
1532369919476,0,4,-1,-4,-6,-1,-1,-2
1532369919481,-2,-3,-3,-1,-2,-1,1,-1
1532369919486,-1,2,-1,0,1,0,-3,-2
1532369919491,-1,-2,-2,2,6,0,2,1
1532369919496,-1,2,1,2,3,-1,-1,0
1532369919501,1,1,-1,-3,-13,-4,-2,-1
1532369919506,-2,-4,-6,-7,3,-1,-2,-1
1532369919511,-3,-2,0,1,0,1,0,0
1532369919516,-1,3,-1,3,1,0,-1,0
1532369919521,1,-1,1,-2,5,2,0,2
1532369919526,-3,0,0,1,-4,-2,-1,-3
1532369919531,0,0,-1,0,1,1,1,-2
1532369919536,0,4,2,-2,-3,-3,0,-1
1532369919541,3,4,6,0,7,5,3,-3
1532369919546,-8,-6,-4,7,4,0,-2,2
1532369919551,-4,-3,0,-7,-8,-4,-2,2
1532369919556,3,-17,-8,-3,-3,2,1,-3
1532369919561,1,24,-5,-3,0,-3,-2,1
1532369919566,0,1,2,-4,-5,-3,-1,0
1532369919571,-2,-5,2,6,1,-1,-1,-2
1532369919576,-2,-3,0,-2,-3,-2,0,-3
1532369919581,-1,-10,2,9,5,5,0,0
1532369919586,2,2,-4,-9,9,0,0,0
1532369919591,-2,-1,-4,-11,-19,-9,-5,1
1532369919596,1,5,1,2,-1,0,-1,0
1532369919601,-2,-5,0,1,6,5,4,-3
1532369919606,1,-1,1,2,-2,0,0,-1
1532369919611,1,-2,7,5,6,2,0,-1
1532369919616,2,4,12,-6,-5,-4,-1,0
1532369919621,-1,-4,-17,-11,-6,-4,-3,2
1532369919626,-2,-4,0,10,-3,0,0,-1
1532369919631,0,2,2,-6,4,3,2,0
1532369919636,-1,2,-1,4,3,0,-1,-3
1532369919641,-2,-4,3,6,6,-3,-2,-2
1532369919646,1,1,0,-15,-6,2,-1,-2
1532369919651,2,9,-1,8,-7,-4,-3,-1
1532369919656,-6,-8,4,-5,-6,-2,-1,-2
1532369919661,0,-4,-8,-8,6,0,0,-1
1532369919666,-1,-5,-2,-1,-9,-5,-2,-1
1532369919671,-2,-1,0,3,6,3,1,-2
1532369919676,2,5,-1,2,3,-1,0,1
1532369919681,-1,-1,-3,-3,-11,-3,-2,-1
1532369919686,-1,-2,3,5,3,0,-2,-2
1532369919691,-2,-9,-3,-8,-2,-1,-1,-2
1532369919696,-1,2,-11,-1,3,0,-1,-3
1532369919701,-2,-8,4,-3,0,-3,0,0
1532369919706,0,8,1,3,-5,-4,-1,-1
1532369919711,0,-4,0,-2,2,0,1,-1
1532369919716,-1,-3,-8,1,1,1,0,0
1532369919721,-3,-3,0,2,0,-3,-5,-2
1532369919726,1,-5,3,2,0,-2,-1,-1
1532369919731,-2,0,-2,-4,-5,-4,-4,1
1532369919736,-1,2,-4,-5,-8,-4,-1,0
1532369919741,-1,2,3,-1,2,-1,-3,-1
1532369919746,1,2,2,5,6,3,3,0
1532369919751,-1,0,-3,0,3,1,0,-4
1532369919756,3,6,-4,-6,-5,-1,0,0
1532369919761,-6,-9,5,2,-8,-4,0,1
1532369919766,-1,-2,-8,0,-2,-3,-2,-2
1532369919771,-2,-17,-8,-9,2,0,1,0
1532369919776,0,14,6,5,1,3,0,-1
1532369919781,1,0,-14,1,1,1,1,0
1532369919786,-1,1,15,-5,-3,-1,-2,-1
1532369919791,-1,-2,2,2,-4,-1,0,-1
1532369919796,-1,-4,1,1,1,-1,-1,-3
1532369919801,-1,1,-2,-7,-6,1,-1,-1
1532369919806,-1,1,1,1,1,-1,0,-1
1532369919811,2,6,-6,5,3,0,-1,-1
1532369919816,0,-5,0,0,2,-1,-2,1
1532369919821,-1,5,5,0,2,0,1,-2
1532369919826,-2,-8,-6,-6,-10,-3,-2,-3
1532369919831,-4,1,9,-6,-9,-3,0,0
1532369919836,3,0,-15,2,1,-2,1,-1
1532369919841,-3,-4,2,1,2,1,-1,-1
1532369919846,-1,1,-8,-2,6,1,2,2
1532369919851,-2,3,4,4,4,1,-2,1
1532369919856,-2,-2,-1,-8,2,-3,-3,0
1532369919861,3,-1,4,-2,-7,-4,-1,-1
1532369919866,-1,5,-6,-6,-3,-1,1,0
1532369919871,-6,-6,-3,3,5,3,0,-3
1532369919876,-1,-2,7,-1,-6,-3,0,0
1532369919881,1,0,-14,-7,-3,-2,-1,0
1532369919886,1,1,14,2,-1,0,-1,-2
1532369919891,2,-12,-4,-7,-5,-2,-2,0
1532369919896,-4,3,3,3,4,0,-3,0
1532369919901,0,-1,9,0,-2,-1,-1,0
1532369919906,-2,-1,-19,-3,-3,0,0,-2
1532369919911,3,0,0,5,6,2,2,2
1532369919916,-3,-4,3,0,2,2,-2,-3
1532369919921,0,0,-2,-3,-9,-3,-2,-1
1532369919926,-2,-5,-3,-3,-1,-4,-3,-2
1532369919931,-3,-3,-2,-5,-3,-4,-2,-2
1532369919936,-3,-1,-2,2,-4,0,1,0
1532369919941,1,1,2,-1,7,2,-1,0
1532369919946,3,2,0,1,2,1,0,0
1532369919951,-6,-3,2,-1,-3,-2,0,-3
1532369919956,2,1,-3,0,0,-1,2,2
1532369919961,0,-5,-3,0,5,2,1,-1
1532369919966,-3,2,3,4,-6,-3,-1,2
1532369919971,3,8,-4,-8,0,-1,-1,1
1532369919976,-2,-5,5,4,6,1,-3,-1
1532369919981,-2,0,-8,-3,-10,-3,-1,-2
1532369919986,-1,-4,2,1,1,0,-2,-1
1532369919991,1,5,1,4,1,1,1,2
1532369919996,-2,-3,-1,2,7,1,-2,-3
1532369920001,0,-3,0,-1,2,1,0,0
1532369920006,-1,0,1,-5,-12,-6,-3,-1
1532369920011,-1,-3,-4,-2,-2,1,-3,-2
1532369920016,0,1,-1,-6,-4,0,-1,-1
1532369920021,-3,-1,-5,1,-5,-3,-2,-1
1532369920026,0,-4,0,0,3,-1,-1,0
1532369920031,-2,0,3,-3,7,1,-2,1
1532369920036,1,-16,-11,0,5,0,0,1
1532369920041,-1,7,9,7,-6,-3,-3,-1
1532369920046,-1,-1,-8,-2,-3,-2,-2,-1
1532369920051,-1,5,-18,-4,1,0,1,-4
1532369920056,1,-3,21,-3,-1,-1,1,-1
1532369920061,-1,-5,0,3,0,0,-2,2
1532369920066,-6,0,-4,-4,-1,-2,0,-1
1532369920071,-1,-5,0,-2,-2,-1,0,-1
1532369920076,-1,6,-3,2,2,0,1,0
1532369920081,4,-1,-1,1,-1,-2,0,-1
1532369920086,-1,3,-1,-1,-5,-3,-1,-1
1532369920091,1,-4,2,3,8,4,0,2
1532369920096,-2,-12,-3,-3,0,-1,2,-1
1532369920101,-4,6,0,-7,-9,-6,-5,-4
1532369920106,2,-3,-6,-2,-8,-3,-4,3
1532369920111,-1,-7,3,0,3,3,-2,-7
1532369920116,1,4,-2,-2,1,-2,1,2
1532369920121,-3,-8,-4,9,6,1,0,-2
1532369920126,0,1,-3,-2,-2,1,0,-2
1532369920131,-1,-4,-2,-4,-5,-3,-1,1
1532369920136,-1,1,2,0,0,3,0,-1
1532369920141,-1,-2,1,-2,-3,-2,-2,0
1532369920146,-2,1,0,1,-1,-2,-1,1
1532369920151,0,4,-1,-5,1,-1,-2,0
1532369920156,-2,1,-3,0,-5,-2,-4,-3
1532369920161,1,4,-1,-1,3,-1,1,1
1532369920166,0,-5,-3,-3,-4,0,0,-1
1532369920171,-2,3,1,3,-1,-2,2,-2
1532369920176,-1,3,1,-1,6,3,-2,0
1532369920181,1,-1,-4,0,-8,-3,-3,-2
1532369920186,-5,-5,-3,-2,6,2,-1,0
1532369920191,-1,0,1,2,-3,-5,-4,2
1532369920196,-3,1,5,-7,-5,-1,-2,-6
1532369920201,2,-1,0,2,6,3,2,3
1532369920206,3,2,4,5,-1,0,1,-1
1532369920211,-2,-14,3,-7,4,2,2,2
1532369920216,-3,6,5,1,-4,-3,-3,0
1532369920221,0,-2,-9,-3,-2,0,-1,-1
1532369920226,-2,1,1,2,1,0,0,-1
1532369920231,-1,-5,-5,-8,-6,-4,-3,-1
1532369920236,-1,-4,-1,3,-4,-2,2,-1
1532369920241,-1,0,1,-3,-2,-2,-1,0
1532369920246,-1,-1,3,4,1,-1,2,-2
1532369920251,0,8,-11,5,4,1,0,-2
1532369920256,-2,-1,-8,-3,-2,-3,-4,-1
1532369920261,4,-1,1,-1,-4,-4,0,-1
1532369920266,-1,-1,-3,-5,-8,-2,-1,-3
1532369920271,0,2,5,11,8,3,1,1
1532369920276,-4,0,13,-2,-4,-1,-1,-2
1532369920281,-3,-5,0,-2,1,-2,-2,0
1532369920286,2,-2,-4,-1,1,-2,-2,1
1532369920291,-2,2,3,-3,-5,0,-2,-5
1532369920296,1,-2,-10,2,2,1,1,2
1532369920301,-1,0,2,-4,0,1,0,0
1532369920306,1,4,2,4,1,1,0,-1
1532369920311,0,-1,-3,-4,-4,-2,1,-1
1532369920316,-1,11,-5,-2,2,-1,-4,-1
1532369920321,-2,2,13,5,-2,0,0,-3
1532369920326,0,-3,-23,-10,6,1,-3,0
1532369920331,3,3,-9,-2,-10,-1,-1,2
1532369920336,3,-3,23,-5,0,-2,0,0
1532369920341,-5,-4,-8,-2,-2,-2,-2,-3
1532369920346,-1,3,5,6,-3,-3,-1,-1
1532369920351,2,-1,6,-3,4,2,2,2
1532369920356,0,-3,-18,6,6,2,1,2
1532369920361,-3,-1,-3,-6,-3,-2,-3,-3
1532369920366,-2,-4,4,-5,-4,-4,-2,-2
1532369920371,1,4,0,2,2,0,2,2
1532369920376,-1,-2,-4,8,1,2,0,-1
1532369920381,2,0,-4,-6,0,-2,0,0
1532369920386,-1,-1,3,1,-4,-4,-2,0
1532369920391,-2,2,-3,-6,-2,-1,-1,-3
1532369920396,2,-3,-9,0,5,-1,1,1
1532369920401,-8,-4,2,3,0,1,0,1
1532369920406,-1,-6,0,-5,-2,-2,0,0
1532369920411,-2,22,7,6,1,-3,-1,-3
1532369920416,0,6,-4,-6,-6,-5,-3,-3
1532369920421,0,-12,-22,0,5,2,3,1
1532369920426,-1,4,1,-6,-8,-2,0,0
1532369920431,0,-10,4,6,3,-1,-2,0
1532369920436,-1,-4,-3,-1,-2,1,0,1
1532369920441,0,5,3,-1,-1,-1,-4,-4
1532369920446,0,-2,-1,2,1,1,2,0
1532369920451,0,-6,-6,-9,-12,-7,-3,-1
1532369920456,-2,-3,1,-3,-2,0,0,-1
1532369920461,1,3,3,1,4,0,2,3
1532369920466,0,-2,2,3,4,0,1,-1
1532369920471,-2,-4,-2,-2,2,4,0,-3
1532369920476,0,-2,0,1,-1,-2,-1,-3
1532369920481,-1,1,3,3,0,0,2,1
1532369920486,-2,1,-5,-2,-1,-1,-1,-1
1532369920491,-2,-4,0,-3,-1,-3,-3,-1
1532369920496,0,-4,0,-1,-5,-1,0,1
1532369920501,-1,1,-1,-4,-7,-1,-2,1
1532369920506,2,0,1,1,7,-1,0,0
1532369920511,-2,-4,-2,-5,-4,2,1,-1
1532369920516,-1,-2,-2,0,-3,-2,-2,-3
1532369920521,0,1,0,-1,0,0,0,0
1532369920526,-4,3,-1,-5,-4,-2,-4,-2
1532369920531,3,-5,-1,0,4,3,0,-1
1532369920536,-9,-2,-1,-1,-1,-2,0,-1
1532369920541,0,-2,2,1,0,-3,-1,-2
1532369920546,1,1,1,3,7,2,-1,2
1532369920551,2,-3,1,0,-7,-2,0,-1
1532369920556,3,1,-2,-8,-8,-2,-2,-2
1532369920561,0,-2,-1,0,3,0,-2,0
1532369920566,-4,2,0,3,1,0,3,-11
1532369920571,3,-1,0,-5,0,-1,-1,10
1532369920576,0,1,-1,2,3,1,1,0
1532369920581,-1,4,-1,-2,-3,-1,0,1
1532369920586,0,-7,-1,1,5,-1,-2,-15
1532369920591,-1,0,-1,-1,-6,-2,5,33
1532369920596,-1,-4,-2,-2,-1,-3,-9,-12
1532369920601,-8,-6,-1,-3,-6,-1,-2,-3
1532369920606,1,-1,-2,0,2,0,-3,-1
1532369920611,-2,1,1,2,2,1,2,-10
1532369920616,-2,-1,-1,-2,5,3,0,5
1532369920621,4,2,-1,-1,6,1,-1,-1
1532369920626,-2,-3,-4,-7,-18,-10,-2,5
1532369920631,-5,0,-2,0,2,-1,-1,-7
1532369920636,1,-5,-1,0,-1,-4,0,3
1532369920641,4,1,2,5,4,2,0,-6
1532369920646,-1,2,-1,-6,-11,-1,1,4
1532369920651,-1,-4,2,3,-1,-2,-4,-9
1532369920656,1,0,-3,-4,4,2,1,-2
1532369920661,0,1,2,4,0,-3,2,2
1532369920666,-1,-5,-10,2,3,0,-2,3
1532369920671,1,4,1,-7,-7,-5,-4,-6
1532369920676,-7,-7,1,5,-2,-1,3,-2
1532369920681,1,0,0,-7,0,-2,-1,1
1532369920686,-3,-2,1,3,2,5,3,2
1532369920691,-1,-1,-2,-3,0,0,-5,-5
1532369920696,2,2,1,8,4,-3,-2,1
1532369920701,0,-1,0,1,2,0,0,-1
1532369920706,2,1,0,-6,-5,-1,0,-1
1532369920711,-5,-3,-4,-4,-15,-7,-3,-4
1532369920716,1,1,0,-7,-6,-4,-1,-1
1532369920721,0,-2,-1,6,2,-1,-1,0
1532369920726,1,1,-1,0,7,3,-1,1
1532369920731,0,2,-1,3,4,2,-1,-3
1532369920736,-2,-1,-1,-4,-3,-3,-3,-1
1532369920741,-1,-4,-2,-7,-4,-2,1,-2
1532369920746,0,-1,0,4,-1,1,0,3
1532369920751,2,-1,-1,1,9,3,2,-2
1532369920756,-1,0,-2,-3,-7,-3,0,-2
1532369920761,-2,-1,-2,-1,3,1,-2,-1
1532369920766,-2,-3,5,0,-11,-5,-1,-2
1532369920771,-1,-3,-3,-4,4,-2,0,-1
1532369920776,1,2,0,4,7,5,0,2
1532369920781,0,1,0,-6,-5,-3,-2,-1
1532369920786,-2,-3,-3,-5,-13,-4,-4,0
1532369920791,-2,2,1,3,-1,-1,-1,0
1532369920796,0,-3,1,0,6,3,2,-2
1532369920801,1,-1,-2,3,0,0,-1,0
1532369920806,1,1,-1,-7,1,-2,-1,-1
1532369920811,-1,-1,-1,-3,-10,-4,-3,-1
1532369920816,1,4,0,-6,-9,0,-2,-1
1532369920821,-7,-12,-2,1,1,0,0,-2
1532369920826,1,0,2,6,7,2,-1,-1
1532369920831,-3,-13,-5,-1,7,0,2,-1
1532369920836,4,14,-1,-1,0,-1,-1,0
1532369920841,-11,-2,-3,-1,-8,-4,-1,-2
1532369920846,0,3,-1,-1,2,-2,0,4
1532369920851,-3,-2,1,1,-1,0,-2,-14
1532369920856,-4,-9,1,10,2,1,1,9
1532369920861,12,-3,-7,-14,-3,-1,-3,-5
1532369920866,-7,12,-1,-2,-5,2,-1,3
1532369920871,-2,6,3,3,1,-1,-4,-7
1532369920876,5,8,1,-1,-1,0,5,14
1532369920881,-7,-15,0,-1,-4,-2,2,-1
1532369920886,-1,-13,-1,2,6,0,-8,-1
1532369920891,3,1,-1,-2,-1,-2,0,1
1532369920896,-10,-1,2,5,0,0,-5,-8
1532369920901,5,7,-6,-6,1,1,0,3
1532369920906,-4,-8,-3,-3,1,-2,3,-2
1532369920911,-3,2,3,3,5,1,1,3
1532369920916,2,-5,1,-6,-9,-5,-3,-5
1532369920921,-1,0,-5,-1,-8,-5,1,0
1532369920926,2,0,-9,3,3,0,-2,-3
1532369920931,0,-3,30,7,7,2,0,4
1532369920936,3,-10,-16,-11,-3,1,3,-2
1532369920941,-4,-21,3,4,-4,-3,-5,-2
1532369920946,10,30,2,-4,-1,-1,3,-2
1532369920951,-6,-1,-15,1,-1,-2,-20,-3
1532369920956,10,5,13,0,5,6,21,6
1532369920961,-18,-17,4,0,2,0,1,-4
1532369920966,-6,-3,-2,4,0,3,6,6
1532369920971,-2,-4,-11,-9,-1,-1,0,1
1532369920976,-8,-1,-3,-3,-5,-5,-20,-15
1532369920981,2,-9,-10,-1,-1,-2,26,1
1532369920986,1,0,7,-3,-4,-4,-43,-4
1532369920991,-3,-1,-3,-1,-3,-1,15,2
1532369920996,-2,-3,-3,1,2,0,-9,-1
1532369921001,3,12,7,1,0,0,-5,-3
1532369921006,-2,-8,-3,-4,-3,-2,8,-3
1532369921011,0,0,0,0,-5,-2,-7,-1
1532369921016,-2,-5,-1,0,7,0,3,0
1532369921021,2,11,2,2,-1,0,-1,1
1532369921026,0,-1,0,-6,-7,-3,7,-1
1532369921031,-1,2,-5,-5,-3,-1,-14,-4
1532369921036,1,-8,0,6,2,0,19,6
1532369921041,2,10,0,1,1,1,-17,5
1532369921046,-1,-2,1,-2,1,1,1,-1
1532369921051,-1,-14,1,1,-4,-3,-39,-1
1532369921056,-8,11,-6,-2,2,4,28,-10
1532369921061,27,14,3,-1,2,2,30,14
1532369921066,-10,-3,-5,0,-8,0,-1,3
1532369921071,0,-12,-5,-2,-3,0,10,1
1532369921076,-5,-2,-8,1,1,-4,-35,-7
1532369921081,-3,2,20,-1,0,-2,-39,-4
1532369921086,3,4,2,3,8,3,32,0
1532369921091,-3,2,-2,-2,1,1,14,3
1532369921096,-1,-5,-3,-11,-11,-6,-22,-6
1532369921101,-8,0,-11,-2,0,-1,8,-1
1532369921106,2,-4,1,2,3,3,-11,4
1532369921111,-5,4,1,3,4,2,-2,-7
1532369921116,4,1,6,3,-10,-12,2,-2
1532369921121,-4,3,-3,-2,-1,1,-7,-7
1532369921126,-4,-2,5,5,2,-8,-23,-12
1532369921131,5,1,-7,-5,-6,4,50,23
1532369921136,-2,-2,-5,-7,1,3,-7,-2
1532369921141,-5,2,-3,-1,1,3,1,-5
1532369921146,-5,-12,-8,-10,-5,-1,6,-2
1532369921151,1,6,6,6,1,-10,-29,-14
1532369921156,0,-2,3,2,2,2,13,9
1532369921161,-3,-4,-3,1,-1,7,6,2
1532369921166,1,-8,-6,-7,0,-2,-1,-1
1532369921171,-1,-2,-1,-2,-2,-1,-4,-4
1532369921176,-1,31,4,1,2,0,-16,-1
1532369921181,-1,-1,0,4,3,-1,23,-1
1532369921186,2,-3,1,1,3,2,-7,-1
1532369921191,-4,4,-1,0,-2,2,16,6
1532369921196,-5,-12,1,-1,-3,-4,-17,-6
1532369921201,1,2,-2,1,1,-1,-5,-5
1532369921206,-4,4,-1,-2,-3,-2,4,1
1532369921211,0,-3,-1,-2,-5,-4,30,0
1532369921216,-2,-2,0,1,2,5,-49,-10
1532369921221,2,-12,-3,-1,-6,-11,-7,7
1532369921226,-7,-18,-2,2,1,8,24,-4
1532369921231,14,-11,-1,0,4,-6,-25,-5
1532369921236,-6,-4,-3,-1,-2,-9,-5,-7
1532369921241,3,3,-1,2,2,1,10,7
1532369921246,5,6,2,3,-1,5,-1,-1
1532369921251,-11,-6,-6,-8,-9,0,13,3
1532369921256,0,-2,-4,-5,-4,-3,0,6
1532369921261,6,-2,-1,0,2,-4,-20,-4
1532369921266,-1,20,2,1,3,10,40,6
1532369921271,-2,9,0,2,4,8,15,-3
1532369921276,2,0,0,1,0,-10,-19,0
1532369921281,-6,4,-3,-4,-3,-1,-19,-8
1532369921286,5,4,2,3,4,-20,-65,-2
1532369921291,8,7,-2,3,0,8,-10,-5
1532369921296,-3,-15,-4,-6,-3,4,34,2
1532369921301,1,28,4,7,1,1,10,2
1532369921306,3,0,3,0,5,5,16,5
1532369921311,-1,0,1,2,3,-2,-12,4
1532369921316,1,-8,-6,-7,-3,2,19,4
1532369921321,-5,-7,-3,-7,-14,-9,2,-4
1532369921326,-3,-5,-2,0,1,8,-4,-4
1532369921331,-5,8,-3,-9,0,-1,-11,-5
1532369921336,7,0,6,12,-1,2,20,8
1532369921341,-5,-6,-2,-4,6,-3,-18,-1
1532369921346,-2,-3,0,3,-4,-5,-10,-3
1532369921351,-2,-8,0,-3,0,2,8,4
1532369921356,-5,-2,-3,-7,-2,2,0,-5
1532369921361,-2,-2,0,3,-1,1,-3,0
1532369921366,-2,-6,-3,-6,0,-1,1,-3
1532369921371,-2,1,-2,-5,-11,-3,-2,1
1532369921376,-2,0,-2,-1,-2,-1,2,-1
1532369921381,-2,-1,0,0,1,3,0,0
1532369921386,1,-1,0,1,0,-2,7,3
1532369921391,-1,0,2,2,5,-2,-8,-3
1532369921396,2,1,1,5,2,4,-1,-1
1532369921401,-2,-6,-5,-8,-5,-2,3,-1
1532369921406,-3,-4,-3,-8,-6,-9,-6,-3
1532369921411,0,1,2,4,-1,-3,-4,-1
1532369921416,0,1,0,4,3,-1,5,5
1532369921421,-4,0,1,0,5,6,1,-8
1532369921426,-2,-1,-4,-1,2,-2,-10,-1
1532369921431,5,1,-1,2,-9,-4,13,8
1532369921436,-9,-3,-1,-8,1,1,6,-8
1532369921441,3,1,-3,-1,-5,1,1,5
1532369921446,0,1,-1,-2,-2,-2,-1,7
1532369921451,-8,-14,-2,1,4,-1,-9,-21
1532369921456,6,46,-1,-5,-5,-6,-8,32
1532369921461,-6,4,1,0,4,5,6,-10
1532369921466,-10,-18,-3,-2,-5,-5,-8,-30
1532369921471,20,11,5,6,9,5,-9,4
1532369921476,-6,3,0,9,0,2,5,-17
1532369921481,-11,4,-4,-13,-4,-9,-4,22
1532369921486,5,-1,-8,-1,-5,-4,-5,-1
1532369921491,-1,-4,6,-3,4,8,3,-4
1532369921496,-1,6,-3,-3,-7,-7,1,-11
1532369921501,8,3,6,14,10,9,-1,6
1532369921506,-1,-1,5,-2,-3,-2,-1,-12
1532369921511,-8,-3,-8,-7,-12,-12,-10,3
1532369921516,2,-3,0,0,-2,1,-6,-13
1532369921521,-2,-4,4,1,1,4,16,1
1532369921526,0,3,-4,0,3,2,16,16
1532369921531,-1,0,0,1,5,0,3,1
1532369921536,-3,-12,-4,-5,-4,-2,-12,5
1532369921541,0,-4,-5,-4,-7,-8,3,-7
1532369921546,0,-2,4,2,0,2,-2,4
1532369921551,-6,-1,-5,-4,0,-1,-1,5
1532369921556,4,-11,0,0,4,3,7,-2
1532369921561,-1,-1,-4,-2,-3,-3,-14,-7
1532369921566,0,-5,6,7,5,1,10,3
1532369921571,-1,6,5,-2,-7,-2,-1,0
1532369921576,-1,-10,-21,-8,-9,-5,-2,1
1532369921581,2,-22,14,-8,0,3,3,-3
1532369921586,-2,16,-3,-2,-3,-1,-7,3
1532369921591,-2,0,7,8,5,0,7,-7
1532369921596,-3,-6,-2,2,6,2,1,5
1532369921601,6,0,-8,-3,-5,-2,-1,-5
1532369921606,-6,-11,-4,-4,-3,-2,1,0
1532369921611,-1,15,-1,-4,0,-3,-20,-5
1532369921616,0,-3,7,3,3,2,21,6
1532369921621,-2,-1,-4,2,0,-4,4,-2
1532369921626,3,4,1,2,-1,0,-9,0
1532369921631,-1,-3,-4,1,0,2,2,-2
1532369921636,-1,-7,4,-4,2,-1,-5,0
1532369921641,-3,6,-2,0,2,2,-5,-2
1532369921646,0,1,-2,-2,-7,-3,4,0
1532369921651,-4,-6,-1,3,-3,-2,2,2
1532369921656,-1,2,0,-4,2,1,-1,-1
1532369921661,-1,0,1,4,9,2,-2,2
1532369921666,0,1,3,-2,0,0,-3,-1
1532369921671,1,-6,-9,2,-14,-6,7,1
1532369921676,1,-5,0,-6,-2,-2,-3,-3
1532369921681,-5,-4,-6,-1,-4,-4,-4,-5
1532369921686,0,-3,-2,0,6,1,3,1
1532369921691,-1,11,-2,0,7,2,-3,-2
1532369921696,2,-1,6,3,1,2,-1,2
1532369921701,0,-2,-5,-6,-10,-9,-8,-3
1532369921706,0,1,-5,-2,-2,3,3,3
1532369921711,-1,-9,-1,-4,3,1,2,2
1532369921716,0,1,5,4,-4,-3,0,-2
1532369921721,-2,3,-11,5,5,2,-3,-1
1532369921726,-1,-5,4,-10,-9,-6,-4,-4
1532369921731,0,-4,-5,-6,-12,-3,-2,2
1532369921736,-2,0,1,2,3,0,-2,0
1532369921741,0,-1,-3,1,-1,-2,-3,-2
1532369921746,-1,0,-1,0,4,-5,-2,-3
1532369921751,1,-1,1,0,1,0,0,2
1532369921756,-5,-4,-1,-2,1,-1,-27,-14
1532369921761,5,2,0,-1,-4,2,38,15
1532369921766,-2,-1,-1,3,4,2,-1,-1
1532369921771,-1,-1,0,-2,3,-4,-2,2
1532369921776,0,-5,-1,1,0,-4,-3,2
1532369921781,-1,0,4,-4,-3,-2,-10,-6
1532369921786,0,1,0,-2,-3,0,0,-1
1532369921791,-1,-2,-3,-3,0,2,5,2
1532369921796,4,-3,-2,-4,3,-1,2,1
1532369921801,-3,-1,4,4,2,0,-7,-3
1532369921806,-5,-2,-7,-9,-10,-1,0,-4
1532369921811,4,1,2,2,1,1,1,2
1532369921816,-2,0,-2,2,2,1,5,-2
1532369921821,5,6,2,3,0,0,-3,2
1532369921826,-5,-6,-1,5,8,1,-2,0
1532369921831,-4,-3,-2,-13,-7,-5,-1,-3
1532369921836,-1,1,-5,-3,-11,-5,1,2
1532369921841,-3,-14,4,2,0,1,-6,-3
1532369921846,2,-2,-3,5,1,1,-5,-3
1532369921851,-1,1,-1,-3,2,2,11,0
1532369921856,-1,-3,-2,-2,1,0,0,1
1532369921861,-3,-1,0,-3,-2,-2,-8,-6
1532369921866,4,2,4,4,-5,-2,-1,1
1532369921871,-3,-9,-7,-7,-7,-4,-12,-4
1532369921876,0,-3,1,1,1,1,11,2
1532369921881,-1,3,0,0,1,1,1,1
1532369921886,2,-2,0,2,1,2,1,2
1532369921891,-1,4,-7,-2,5,-1,-6,-1
1532369921896,-3,0,3,-3,-7,1,-1,-3
1532369921901,1,5,3,4,-3,-2,-2,1
1532369921906,0,-1,0,-2,-3,-2,-5,-3
1532369921911,0,-2,-6,2,6,1,8,2
1532369921916,0,1,4,2,2,1,2,-1
1532369921921,-4,-3,-4,-3,-8,-3,-7,-2
1532369921926,-4,-1,1,2,0,0,-3,-2
1532369921931,2,1,2,-1,-1,-2,-3,-2
1532369921936,-3,1,-6,-2,3,-1,-1,2
1532369921941,-1,-2,-1,-2,0,-2,0,-1
1532369921946,-5,2,-2,-6,-9,-3,1,-3
1532369921951,7,3,5,11,5,1,-8,0
1532369921956,-2,-4,0,1,2,1,-4,-4
1532369921961,4,-2,-4,-3,-3,2,15,8
1532369921966,3,0,-5,-3,-1,-4,-1,2
1532369921971,-6,-4,3,13,-1,2,3,-2
1532369921976,1,10,-3,-14,-3,-2,-7,-8
1532369921981,0,-6,-1,10,5,3,0,0
1532369921986,2,-3,-16,-10,2,-2,-6,-6
1532369921991,8,8,14,-1,-3,-3,1,11
1532369921996,9,-4,-5,5,-4,-4,3,6
1532369922001,-4,-9,7,-5,-3,2,7,18
1532369922006,-6,5,-6,-11,-4,-5,-6,-16
1532369922011,-2,-4,-2,4,2,2,-4,-18
1532369922016,-6,-4,3,10,12,2,1,1
1532369922021,5,5,-2,-10,-9,-6,-11,13
1532369922026,2,-2,5,7,3,6,12,13
1532369922031,-3,2,-3,-8,-2,-1,5,-3
1532369922036,-2,-14,-1,-2,-3,-3,-2,1
1532369922041,-7,-1,-3,4,0,1,0,-22
1532369922046,-1,-2,3,-3,-1,-2,-2,-3
1532369922051,-12,1,0,2,0,-4,-4,4
1532369922056,-2,2,-3,1,-2,0,-9,-7
1532369922061,5,4,1,5,6,8,23,-9
1532369922066,1,4,-4,-8,-2,1,-1,3
1532369922071,-2,-10,-1,0,-2,1,1,5
1532369922076,0,3,-2,-7,-5,-7,-10,5
1532369922081,3,6,-2,-4,-10,-8,-11,-9
1532369922086,-19,-28,5,4,2,0,7,8
1532369922091,7,27,-2,0,3,3,2,3
1532369922096,0,1,-1,-3,-8,0,3,-2
1532369922101,-1,8,1,-9,-1,-3,-11,-1
1532369922106,4,-6,-2,5,3,1,11,1
1532369922111,-4,-14,-4,-4,-3,-4,-11,-2
1532369922116,-1,-1,4,2,-2,0,3,-1
1532369922121,0,-2,-4,-2,3,0,-1,-1
1532369922126,2,13,3,-1,-6,-4,-12,0
1532369922131,-6,-15,-1,0,4,-1,10,-4
1532369922136,5,10,2,3,1,6,5,3
1532369922141,-6,-9,-4,-8,1,-3,-7,-5
1532369922146,3,0,1,4,4,-3,-3,-3
1532369922151,-1,3,0,-1,-2,0,-7,-1
1532369922156,-1,-5,1,0,5,-1,3,0
1532369922161,-3,-7,-10,-3,-13,-6,-5,-2
1532369922166,-1,4,-2,-10,0,-4,-13,-2
1532369922171,3,0,-1,0,-2,4,12,0
1532369922176,-4,-2,-2,-6,-4,-5,-1,0
1532369922181,-2,-11,0,8,4,2,-1,-5
1532369922186,1,6,-1,2,-1,0,8,5
1532369922191,-6,-13,-4,-5,-3,-2,-6,-1
1532369922196,-1,2,-4,3,2,2,0,-2
1532369922201,-1,-1,3,-3,0,-2,-10,-2
1532369922206,-1,-5,-3,-2,-3,0,13,-1
1532369922211,4,5,1,1,-4,0,-2,3
1532369922216,1,-8,-2,0,0,0,-3,-2
1532369922221,-16,7,2,2,3,-2,-2,2
1532369922226,-3,2,-3,1,0,-1,-1,-4
1532369922231,-2,3,-2,0,5,0,-3,-3
1532369922236,2,4,0,5,-5,0,4,-1
1532369922241,1,0,-3,-10,-2,0,-3,-1
1532369922246,1,1,-2,-1,-1,0,0,-3
1532369922251,-2,-3,-2,-4,-4,-2,-2,0
1532369922256,0,-4,0,2,0,-2,0,0
1532369922261,2,-2,-5,6,5,2,3,-1
1532369922266,4,-11,16,-5,-2,3,-4,0
1532369922271,-5,12,-1,3,2,-2,-1,-1
1532369922276,-2,-4,1,4,1,1,0,-1
1532369922281,2,0,-4,-7,-5,-2,-3,2
1532369922286,-1,5,-3,-1,-8,-5,-3,0
1532369922291,3,-2,3,1,-1,-3,-8,-4
1532369922296,-2,-1,-4,-3,1,3,15,5
1532369922301,-2,11,4,-1,5,3,-3,1
1532369922306,0,-6,-4,4,-2,-1,-1,-3
1532369922311,0,-6,1,-2,-6,-1,2,1
1532369922316,-7,-8,-4,-2,-6,-4,-8,-9
1532369922321,6,-2,3,1,7,2,2,1
1532369922326,-1,0,-3,-3,-4,-3,1,1
1532369922331,-2,-3,-3,0,-2,-4,-5,-4
1532369922336,1,0,-1,-5,-2,0,-3,0
1532369922341,-1,-2,3,3,-4,-1,2,-1
1532369922346,-2,2,-12,11,2,1,-6,-2
1532369922351,6,-8,1,-15,2,1,4,3
1532369922356,-4,5,8,0,0,-1,-2,0
1532369922361,-7,-7,-8,-5,-5,-3,1,-4
1532369922366,5,9,-1,0,0,2,-1,-1
1532369922371,-1,-5,-4,6,0,-2,-7,-6
1532369922376,5,6,2,1,-1,3,6,5
1532369922381,2,-5,-3,-1,0,-4,-5,-2
1532369922386,-3,-3,3,2,5,2,2,2
1532369922391,-2,1,-3,6,3,-1,-5,-4
1532369922396,2,4,1,-14,-8,-1,-13,-1
1532369922401,3,1,-4,3,-2,-1,6,3
1532369922406,0,-3,2,-4,-2,-2,-2,0
1532369922411,-1,-9,3,2,2,-2,-9,-2
1532369922416,-3,22,-10,-2,2,-1,16,1
1532369922421,-2,-5,0,1,0,0,-3,-2
1532369922426,1,-1,-1,-5,-7,-2,0,0
1532369922431,0,1,-10,-7,-2,0,0,-2
1532369922436,-6,-4,6,6,0,-3,-4,-3
1532369922441,2,3,0,-4,0,2,1,-1
1532369922446,-3,5,3,5,3,1,4,2
1532369922451,-2,-4,-5,-5,-1,2,-7,-2
1532369922456,2,-9,-5,-5,-6,-4,5,1
1532369922461,0,9,3,3,0,-2,1,-1
1532369922466,-1,-7,1,3,5,0,-7,-3
1532369922471,1,-1,1,3,1,1,2,3
1532369922476,-5,-6,-4,-6,-2,0,-13,-4
1532369922481,1,0,0,-1,2,0,13,7
1532369922486,-3,-4,-2,-6,-3,-5,-3,-1
1532369922491,-3,-5,2,1,-2,-1,6,-2
1532369922496,-2,0,-5,-1,1,1,-7,-2
1532369922501,-1,-2,-2,-4,-4,-3,-5,-3
1532369922506,0,2,-3,-1,3,1,1,0
1532369922511,-1,-3,1,0,-3,-1,4,2
1532369922516,-3,-4,8,11,0,-1,-5,-1
1532369922521,1,1,-9,-4,1,-2,-2,-1
1532369922526,2,-2,-1,-10,-6,-2,0,-1
1532369922531,-4,-3,-5,1,-12,-5,-4,-3
1532369922536,-1,-9,1,-6,2,-1,-3,0
1532369922541,-1,-1,4,6,7,3,6,-1
1532369922546,1,8,3,2,-2,0,0,0
1532369922551,-3,-6,0,0,-2,-1,2,1
1532369922556,1,0,-6,-5,-1,-2,1,-1
1532369922561,-1,-1,2,0,0,-1,-3,0
1532369922566,-1,-1,-4,-2,-4,-1,-1,-2
1532369922571,-1,5,4,-2,-1,-1,0,-1
1532369922576,-1,-4,-5,1,-5,-4,-8,-3
1532369922581,-1,-1,0,0,1,3,11,2
1532369922586,-1,-3,-1,0,-1,-1,-5,-3
1532369922591,0,2,-2,-2,10,5,6,3
1532369922596,-1,0,-1,-2,-15,-7,-1,-1
1532369922601,-1,1,1,-2,0,-4,-6,-3
1532369922606,0,-10,1,0,0,2,1,0
1532369922611,2,30,0,0,2,0,2,0
1532369922616,-3,-4,-3,-2,2,1,-1,-3
1532369922621,0,3,1,-2,-3,-3,-8,-2
1532369922626,-3,-1,-2,1,1,1,5,0
1532369922631,-2,-3,2,-1,-1,-2,-2,-2
1532369922636,1,-1,-4,3,10,2,3,0
1532369922641,0,5,2,-3,-12,-3,-11,-1
1532369922646,-4,-5,-2,-4,-1,1,9,2
1532369922651,-2,-7,-3,2,-3,-2,-1,-1
1532369922656,1,2,2,1,3,1,1,-1
1532369922661,-1,-4,-5,-5,-2,-2,-4,0
1532369922666,-2,-6,-2,3,4,-1,-7,-4
1532369922671,-1,-2,-3,-4,-8,-3,-2,-1
1532369922676,2,0,1,2,2,3,7,3
1532369922681,0,0,1,3,7,0,-3,-2
1532369922686,2,6,-1,-2,-1,2,-2,-1
1532369922691,-2,-4,-3,-5,-5,-4,-4,-3
1532369922696,-1,-1,-2,-4,-3,-5,-3,-2
1532369922701,0,-1,1,6,4,3,1,2
1532369922706,0,4,1,-6,-7,-4,-2,-1
1532369922711,-1,-6,0,2,1,0,-3,-2
1532369922716,1,2,-2,0,3,2,6,1
1532369922721,-1,-6,-5,-3,-3,-1,-4,-2
1532369922726,-1,2,-1,1,-1,-3,-2,-1
1532369922731,-1,0,-1,-3,7,3,1,0
1532369922736,3,5,-1,-4,-7,-4,-2,2
1532369922741,-2,-4,-1,3,-3,-1,-3,-3
1532369922746,-5,-1,-1,-2,-2,-3,-12,-3
1532369922751,2,9,3,0,4,2,14,6
1532369922756,-1,-11,-3,2,1,2,-2,-9
1532369922761,-3,-4,1,-1,6,2,-1,0
1532369922766,-2,1,-3,-4,-1,-1,-7,-3
1532369922771,-1,-7,-4,-5,-8,-4,-9,-5
1532369922776,1,-1,3,2,4,-1,9,7
1532369922781,1,-5,-2,-3,-8,-4,0,-4
1532369922786,3,1,0,0,5,2,2,6
1532369922791,-1,0,0,3,1,0,-5,-2
1532369922796,-1,-2,-2,-3,-3,2,4,4
1532369922801,-2,1,-2,-1,-3,-5,-4,-4
1532369922806,1,0,1,0,0,0,6,2
1532369922811,0,-2,-1,-2,-2,1,0,-1
1532369922816,1,6,0,2,-3,-4,-9,-4
1532369922821,-6,-11,-2,-1,4,0,1,2
1532369922826,4,5,-1,1,-4,-1,4,-2
1532369922831,-3,-14,-3,-2,-5,-5,0,1
1532369922836,-4,27,2,-1,5,-1,-9,-3
1532369922841,4,7,5,9,5,8,16,5
1532369922846,-5,-8,-2,-6,0,-3,-6,-9
1532369922851,-1,9,3,-2,-12,-8,2,19
1532369922856,8,-10,-2,2,4,2,-5,-6
1532369922861,-11,2,-2,-3,2,5,4,7
1532369922866,-6,-6,-3,-2,-5,-3,-3,2
1532369922871,1,-1,-1,-3,-3,-5,2,-1
1532369922876,0,-33,-4,-1,-6,-6,-6,-2
1532369922881,-1,19,6,1,7,2,0,14
1532369922886,-2,-5,0,2,2,3,10,-18
1532369922891,-1,0,-2,-3,-1,-3,-10,-6
1532369922896,-7,-17,-4,-3,-8,-5,-1,4
1532369922901,15,21,0,-2,-1,1,-1,-4
1532369922906,-3,4,-1,4,2,-3,-16,2
1532369922911,-2,-9,-3,-2,-3,2,17,-5
1532369922916,-11,11,-1,-9,3,0,-2,3
1532369922921,-2,-10,-3,-1,-10,-7,-3,-7
1532369922926,6,6,-4,-1,3,-1,7,7
1532369922931,1,6,2,8,5,3,-6,-9
1532369922936,-2,-12,-1,-4,-1,-1,0,0
1532369922941,2,25,3,2,2,2,5,-4
1532369922946,0,-4,0,0,-6,-4,-3,-1
1532369922951,0,-7,-4,-3,-3,0,-3,-1
1532369922956,1,17,1,4,5,3,-3,-4
1532369922961,-4,-16,-4,-2,-9,-4,0,3
1532369922966,5,10,3,-2,4,2,-1,0
1532369922971,-3,-12,-3,-2,6,4,0,0
1532369922976,1,5,-2,-1,-6,-3,-1,-2
1532369922981,-1,-9,-1,-1,1,-2,-8,-7
1532369922986,-1,0,-2,0,-1,2,6,1
1532369922991,1,-1,-2,-8,-9,-4,-7,-3
1532369922996,-4,1,0,-1,1,-1,13,-1
1532369923001,-1,-10,-3,0,1,-2,-2,-3
1532369923006,3,-1,3,2,-2,0,1,4
1532369923011,-5,-3,0,4,4,0,-3,-2
1532369923016,0,-1,-7,0,5,3,0,-3
1532369923021,0,-14,-1,-4,-8,-6,-11,-4
1532369923026,-1,-1,-1,5,0,-1,12,2
1532369923031,0,4,-2,-5,4,1,-4,-1
1532369923036,-1,5,0,-6,-15,-3,1,-1
1532369923041,1,2,-3,-3,0,0,-7,-3
1532369923046,-4,-15,-1,0,-2,-2,4,3
1532369923051,-2,3,1,2,6,2,-1,0
1532369923056,1,-5,3,5,4,2,1,1
1532369923061,0,1,-3,-3,-3,-5,-1,-2
1532369923066,3,-2,-3,-4,1,-2,-12,-2
1532369923071,-13,7,3,5,1,0,17,4
1532369923076,3,3,-2,2,-1,-1,-4,-1
1532369923081,-1,-5,3,-3,-2,0,-1,-2
1532369923086,-2,1,-3,-6,-4,-2,0,0
1532369923091,-1,-8,-4,-6,-1,0,-4,-2
1532369923096,1,0,7,5,-3,-1,-5,0
1532369923101,-3,-21,-5,-3,6,3,6,2
1532369923106,3,18,0,-1,-4,-2,-1,-4
1532369923111,3,4,0,-2,-11,-3,-7,-1
1532369923116,-2,-3,-3,-2,4,1,-3,-3
1532369923121,3,-5,0,7,-2,-1,9,6
1532369923126,-1,0,4,-1,16,5,-2,1
1532369923131,2,-2,0,3,-15,-2,2,1
1532369923136,1,1,-1,-1,-7,-4,-2,2
1532369923141,-4,-1,-3,-6,-3,-4,-4,-4
1532369923146,-4,-1,-1,3,-2,-3,-3,0
1532369923151,2,4,0,0,9,1,1,-1
1532369923156,-1,-3,-2,-2,4,2,0,-2
1532369923161,1,6,6,2,-6,-3,1,0
1532369923166,-8,-32,-10,-4,-6,-2,-8,-4
1532369923171,9,32,5,9,4,2,8,1
1532369923176,-2,-4,-8,-9,1,1,-6,-2
1532369923181,11,7,-2,-4,-5,-3,1,0
1532369923186,-3,-5,3,0,5,1,-2,-1
1532369923191,-2,-11,-5,-2,-14,-6,-5,-3
1532369923196,0,5,0,-1,-4,-2,0,-1
1532369923201,-2,3,0,-2,4,1,-4,-2
1532369923206,2,6,0,7,7,1,4,0
1532369923211,-2,-6,-5,-5,3,-2,-3,-2
1532369923216,-5,3,2,0,-5,-2,4,-1
1532369923221,-7,-7,-5,-3,-2,-3,-8,-4
1532369923226,1,2,1,0,-5,-3,5,3
1532369923231,1,0,5,6,11,4,-6,-2
1532369923236,3,7,-6,-10,-3,-2,-4,0
1532369923241,-4,-3,2,3,0,0,8,1
1532369923246,-2,2,-5,-3,-4,-2,-3,-3
1532369923251,1,-1,-1,-1,-1,-1,-1,1
1532369923256,0,-7,3,6,0,-1,-1,0
1532369923261,0,-1,-2,-1,-1,-1,-3,-1
1532369923266,0,1,3,1,2,-2,-1,0
1532369923271,2,3,-1,-12,-5,-2,1,0
1532369923276,-4,2,-4,1,-6,-3,3,-2
1532369923281,-3,-13,-4,-2,-4,-3,-1,-1
1532369923286,-4,-4,-2,0,-2,0,-1,-2
1532369923291,-2,-6,-1,4,2,-1,-6,-2
1532369923296,0,3,3,0,12,4,11,1
1532369923301,1,8,-1,-5,-5,-1,-4,-2
1532369923306,-1,-2,-2,-4,-8,-2,-6,-1
1532369923311,2,-13,4,3,3,-1,0,-1
1532369923316,4,2,-10,-5,-2,-1,-5,-4
1532369923321,-4,-8,2,-2,2,0,-2,0
1532369923326,3,5,-1,0,1,1,7,2
1532369923331,2,1,0,0,1,-2,-6,-1
1532369923336,-2,-10,1,6,5,0,-2,0
1532369923341,3,4,-1,5,2,1,-2,-2
1532369923346,-2,1,1,-8,-13,-4,-6,-1
1532369923351,-5,0,-2,-6,2,1,7,1
1532369923356,3,-1,-2,3,-4,-3,-5,-1
1532369923361,-1,4,-2,3,4,2,4,1
1532369923366,7,2,1,3,1,1,1,-3
1532369923371,-3,-11,0,1,1,2,-1,0
1532369923376,-6,-21,-3,-4,0,-2,-2,-2
1532369923381,2,9,2,-6,-3,-4,-2,-1
1532369923386,-1,-11,-3,-2,-7,-3,-4,-3
1532369923391,1,0,-3,6,0,-1,2,0
1532369923396,4,-1,-1,-11,4,3,2,1
1532369923401,-7,-6,1,2,-5,-4,-7,-4
1532369923406,-2,2,1,-1,-1,0,10,3
1532369923411,-2,-1,-2,3,10,3,-1,1
1532369923416,-2,7,1,8,-4,-5,1,1
1532369923421,1,3,-3,-8,-2,-3,-6,-1
1532369923426,-6,-1,-3,2,1,-1,-1,-3
1532369923431,-4,2,-2,-5,-4,-2,-9,-5
1532369923436,1,-4,-1,3,4,5,20,5
1532369923441,-2,0,1,3,-6,-1,-6,-3
1532369923446,-2,-4,-3,0,0,-3,-3,-3
1532369923451,4,-10,0,-4,-1,-2,-4,-1
1532369923456,-3,21,-3,1,-3,-2,-6,-4
1532369923461,-1,-5,-4,0,5,3,3,-1
1532369923466,0,1,2,0,0,0,3,0
1532369923471,-3,-2,0,-2,-7,-3,-3,-1
1532369923476,0,-5,1,2,-1,-1,-5,-2
1532369923481,3,-5,-3,-5,-6,-3,2,1
1532369923486,-5,-1,4,3,2,0,-4,0
1532369923491,-5,-1,-4,-1,0,-1,6,-1
1532369923496,0,-10,1,-7,-7,-4,0,-2
1532369923501,-11,7,-1,2,3,-1,1,2
1532369923506,1,-4,-2,-4,-2,1,-2,0
1532369923511,-1,4,0,1,-2,-3,-3,-2
1532369923516,-3,0,2,5,0,0,-6,-4
1532369923521,1,-7,-1,3,9,3,6,4
1532369923526,1,3,0,-2,0,-1,-5,-2
1532369923531,-6,9,4,-4,-11,-3,2,1
1532369923536,-1,0,-6,-1,-3,-3,-7,-4
1532369923541,1,-2,-2,-4,0,-1,-1,-1
1532369923546,-1,3,0,4,1,3,2,0
1532369923551,4,-3,-4,-9,4,3,-1,-1
1532369923556,-2,0,3,-2,-3,-2,1,1
1532369923561,-5,-1,0,3,-6,-3,0,-2
1532369923566,-2,-6,-1,-3,1,0,-1,1
1532369923571,1,-2,-2,3,2,-1,0,-3
1532369923576,2,-1,0,2,7,1,0,1
1532369923581,-2,-1,-4,-6,-5,-1,-2,-1
1532369923586,-1,0,0,5,-4,-4,-4,-2
1532369923591,3,5,-2,-8,1,1,-3,-2
1532369923596,-1,-7,-2,5,0,0,9,3
1532369923601,2,-27,-7,-8,-1,-1,-4,-2
1532369923606,-3,8,-2,-4,-5,-5,-8,-3
1532369923611,0,-3,-3,2,0,0,6,1
1532369923616,0,-2,2,-2,-1,3,3,2
1532369923621,2,2,2,4,-3,0,0,-2
1532369923626,0,0,-1,0,-2,0,0,-2
1532369923631,-3,-4,-5,-6,-7,-4,-6,1
1532369923636,0,9,2,0,-2,-2,-6,-2
1532369923641,5,1,2,5,-1,0,4,2
1532369923646,-9,-5,-8,-13,0,0,0,-3
1532369923651,-5,-4,0,4,1,-1,-4,-2
1532369923656,3,14,1,2,3,2,5,0
1532369923661,5,10,-2,0,2,1,-12,0
1532369923666,2,-19,-1,-1,1,2,23,7
1532369923671,1,22,0,0,-5,-2,5,-2
1532369923676,-3,-10,-2,-7,-5,-2,-22,-3
1532369923681,-5,3,1,-1,1,-2,-1,-3
1532369923686,-1,1,4,6,1,-1,-4,-1
1532369923691,-2,-7,-5,-3,0,1,2,0
1532369923696,-1,-1,1,-5,1,1,3,1
1532369923701,2,16,3,9,1,-2,4,-3
1532369923706,-4,-10,-5,-3,1,-1,-10,-2
1532369923711,-2,-3,-4,-1,-6,-2,12,1
1532369923716,-4,-1,3,-1,0,-2,-4,1
1532369923721,-4,-11,-6,-8,-8,-3,-2,-1
1532369923726,10,6,-3,0,9,2,0,-1
1532369923731,-7,-7,2,1,-7,-3,-12,-3
1532369923736,3,3,-1,8,-2,-2,2,-1
1532369923741,-3,-5,-4,-14,2,2,7,0
1532369923746,3,3,1,9,11,0,-10,-2
1532369923751,1,-1,-1,-5,-7,1,0,3
1532369923756,-6,-11,-3,-3,-12,-7,-3,-3
1532369923761,0,3,-3,-4,0,-2,2,-1
1532369923766,-1,0,-2,-4,-10,0,-3,-3
1532369923771,-3,-14,6,12,16,3,2,-1
1532369923776,-3,0,-3,0,3,1,1,1
1532369923781,-2,3,2,-7,-15,-5,-9,-1
1532369923786,-2,1,0,-1,-2,0,-2,1
1532369923791,2,2,1,3,9,1,-1,-3
1532369923796,3,0,-5,-6,-8,-3,8,0
1532369923801,1,-19,2,5,0,-2,-3,-1
1532369923806,0,15,-5,-14,-9,-4,1,-1
1532369923811,1,-5,-5,-2,-7,-3,0,0
1532369923816,0,0,2,4,8,3,12,-1
1532369923821,1,0,2,5,7,5,-9,3
1532369923826,1,-3,2,0,-10,-3,-10,-3
1532369923831,-7,5,-4,-1,-5,-8,-3,-4
1532369923836,16,-5,5,-7,2,4,1,-2
1532369923841,-7,1,1,6,1,-2,2,2
1532369923846,-1,8,6,3,1,1,9,3
1532369923851,-6,-2,-3,-5,4,-3,-17,-4
1532369923856,-4,-7,-3,2,-4,-3,-4,-2
1532369923861,4,11,-2,-2,0,-2,9,-2
1532369923866,-7,-17,-4,1,5,6,8,2
1532369923871,3,-4,-1,-5,-3,-1,1,-1
1532369923876,-3,19,3,11,2,-3,-9,-2
1532369923881,-12,-10,-4,-16,1,2,2,-6
1532369923886,11,10,-1,-1,-2,-2,-1,-1
1532369923891,-1,-8,1,-2,-5,-1,16,-5
1532369923896,-10,-10,-6,-2,1,-2,-15,3
1532369923901,16,12,9,9,4,-4,-27,4
1532369923906,5,-5,-1,-2,-3,-2,7,0
1532369923911,-4,10,-1,0,-2,-1,-4,-2
1532369923916,4,-9,-2,-7,-3,1,-14,-5
1532369923921,-10,-11,0,2,-1,6,31,0
1532369923926,-3,2,-16,-3,0,-2,-1,-2
1532369923931,5,-10,22,2,1,-14,-68,-5
1532369923936,-16,-46,-8,1,-5,-7,12,-3
1532369923941,38,72,5,5,4,15,16,9
1532369923946,-19,14,-5,-14,-1,-1,9,-4
1532369923951,-4,-7,-2,1,4,9,19,3
1532369923956,-18,-8,-13,-7,2,-4,24,3
1532369923961,-2,-15,-3,-6,-9,2,-25,-3
1532369923966,-3,-21,-2,4,3,1,24,-1
1532369923971,12,0,-2,6,4,-8,-43,-1
1532369923976,4,6,2,-7,-6,-9,-18,-7
1532369923981,26,43,-13,-3,-8,-17,34,8
1532369923986,6,26,8,3,8,38,-12,-13
1532369923991,4,-4,-6,-2,-10,3,11,12
1532369923996,10,-4,5,0,1,-13,28,-7
1532369924001,-17,-23,-4,6,-3,-17,0,-1
1532369924006,-4,-7,5,-5,-10,-17,-36,2
1532369924011,4,3,-9,5,16,49,75,2
1532369924016,-12,0,-9,0,1,1,-10,-5
1532369924021,-1,1,-4,-9,-11,-47,-113,-18
1532369924026,3,-6,11,8,7,20,62,13
1532369924031,-5,-7,-9,-6,-5,1,-10,-3
1532369924036,0,15,-9,2,0,14,2,-3
1532369924041,-17,-30,25,8,8,-52,-110,-12
1532369924046,9,-12,-16,-7,-5,20,54,17
1532369924051,-8,11,6,-14,-7,-25,-38,-4
1532369924056,4,9,-1,-3,-1,9,-9,4
1532369924061,-7,-11,1,6,4,32,41,6
1532369924066,-8,-4,3,11,4,-20,-19,-15
1532369924071,0,3,8,-5,-4,-9,5,0
1532369924076,3,4,-4,-1,-7,-6,-29,-1
1532369924081,-7,-16,-20,-17,-2,27,28,-2
1532369924086,-2,-4,3,3,5,-23,-17,-4
1532369924091,0,3,-15,11,2,4,9,-8
1532369924096,8,15,28,-6,-6,-9,-7,4
1532369924101,-10,-7,-3,4,1,15,-41,-1
1532369924106,3,-15,1,-3,-2,11,42,3
1532369924111,3,26,11,9,7,0,8,4
1532369924116,-4,-1,-12,-3,8,8,3,0
1532369924121,-3,-2,19,6,-3,11,9,-4
1532369924126,-2,-5,-16,18,-4,-24,-38,-3
1532369924131,2,13,3,-44,-4,-23,-20,-1
1532369924136,-3,5,5,1,-11,8,49,0
1532369924141,-3,-18,4,1,5,15,15,6
1532369924146,16,30,10,8,-1,-11,-25,0
1532369924151,0,-12,0,11,7,15,17,6
1532369924156,3,0,-6,-4,0,-19,-29,-1
1532369924161,-6,-4,-3,-3,-7,-10,29,-7
1532369924166,1,-2,2,-7,0,2,-83,0
1532369924171,-2,-10,-11,9,1,14,52,5
1532369924176,-4,-2,7,-2,1,-14,-35,-2
1532369924181,-4,-7,-10,0,-5,15,38,-2
1532369924186,-5,-4,0,1,1,-7,-14,-3
1532369924191,-2,0,5,2,0,-8,-13,-7
1532369924196,6,3,-7,6,1,6,-4,15
1532369924201,-2,-6,-22,-1,8,4,40,1
1532369924206,-5,0,6,-16,-16,-15,-16,-6
1532369924211,0,-3,-7,1,-4,8,10,2
1532369924216,0,-18,22,-1,-3,11,57,3
1532369924221,-1,20,-9,-6,1,-7,-9,2
1532369924226,-2,-4,0,1,10,32,33,5
1532369924231,1,-4,6,10,5,-22,-31,-2
1532369924236,-1,-4,-6,5,-1,-2,-50,-9
1532369924241,0,-3,3,-8,-7,-4,23,2
1532369924246,-4,-2,0,-4,-3,-12,-10,-3
1532369924251,-5,-10,-9,-3,-6,-9,-1,-3
1532369924256,1,4,-5,1,2,1,10,2
1532369924261,2,0,3,-2,0,3,-10,0
1532369924266,2,4,4,1,1,-7,-8,-2
1532369924271,-2,8,-9,-5,-8,-6,-26,-5
1532369924276,-4,3,-5,1,6,4,1,-2
1532369924281,-2,-6,2,2,1,1,19,-1
1532369924286,-4,-6,-2,-3,2,1,11,-1
1532369924291,-2,-2,1,-2,-9,-23,-25,-4
1532369924296,-4,-2,5,1,4,24,-3,-4
1532369924301,-4,1,-18,-2,0,5,-4,2
1532369924306,-5,0,9,2,0,3,14,2
1532369924311,-6,-1,-12,0,5,-6,-14,1
1532369924316,1,4,10,0,-4,7,19,3
1532369924321,2,-3,-2,-2,-2,-21,-40,-2
1532369924326,0,-3,1,12,-3,5,19,4
1532369924331,2,-3,-7,-11,1,20,-8,-1
1532369924336,2,-4,-4,-1,-4,-10,-8,-2
1532369924341,1,-2,3,1,5,5,13,-2
1532369924346,5,-1,-4,-3,-6,-25,-25,-4
1532369924351,12,9,6,3,-2,18,32,0
1532369924356,-1,-11,-10,-4,0,-9,-17,5
1532369924361,-10,4,7,4,9,6,-13,0
1532369924366,1,-2,-4,-6,-7,0,-7,-3
1532369924371,-5,-27,-16,6,2,12,20,1
1532369924376,9,35,5,-13,-7,-11,1,-1
1532369924381,-1,1,2,7,-1,2,13,-3
1532369924386,-6,1,0,-3,1,-4,-5,-5
1532369924391,1,7,-4,-7,-2,-7,3,1
1532369924396,0,-6,-1,7,2,4,13,1
1532369924401,2,-1,4,2,1,-5,2,3
1532369924406,-1,6,-5,-4,0,-4,-18,-5
1532369924411,-4,-9,0,-1,-10,-4,8,-1
1532369924416,4,-5,-6,-3,-5,-16,-29,-5
1532369924421,-1,6,3,1,6,15,19,-1
1532369924426,1,-8,-5,-3,0,8,-11,4
1532369924431,-1,0,7,0,1,0,24,5
1532369924436,-3,-4,-1,-1,-6,-18,-27,-4
1532369924441,0,-7,-5,-7,-7,8,-1,-3
1532369924446,-2,-3,-5,-2,1,18,31,7
1532369924451,-2,3,15,8,6,-4,-15,1
1532369924456,-3,1,9,3,1,4,13,-1
1532369924461,6,1,-29,-10,-5,-17,-6,0
1532369924466,-8,-12,5,2,-1,18,13,-2
1532369924471,-3,20,5,-7,-3,2,-6,0
1532369924476,4,0,4,5,7,8,23,8
1532369924481,-5,-8,2,1,1,-9,-9,-3
1532369924486,4,6,-5,-5,-2,-12,-20,-3
1532369924491,1,-4,-1,4,-1,-2,-8,0
1532369924496,-2,-6,-4,-4,1,3,3,-5
1532369924501,6,4,13,9,3,23,13,8
1532369924506,-3,-14,-11,-14,-5,-13,-10,-5
1532369924511,0,3,2,0,-1,-1,1,-2
1532369924516,-7,-2,-4,-5,-4,4,12,1
1532369924521,-2,-2,-2,0,-6,-13,-6,-3
1532369924526,1,-3,6,2,-3,-5,-3,-2
1532369924531,-2,-7,-14,-2,-6,2,-6,0
1532369924536,0,1,-2,2,2,-4,-2,0
1532369924541,-1,1,6,3,-6,-3,-3,-5
1532369924546,1,3,-14,-10,3,-9,3,1
1532369924551,0,-2,0,3,4,6,-2,-2
1532369924556,3,-2,-9,0,4,29,39,4
1532369924561,4,-1,12,1,-2,-21,-38,-3
1532369924566,-17,-16,-1,3,2,-4,-3,-4
1532369924571,-4,20,3,1,-3,-12,-11,-6
1532369924576,-1,-3,1,-1,-4,-1,1,2
1532369924581,3,-2,-3,-4,3,2,3,-1
1532369924586,2,8,6,13,-1,3,11,3
1532369924591,-3,-10,-4,-16,-2,-1,-5,-2
1532369924596,-5,-4,6,3,-4,-6,-9,-5
1532369924601,-2,5,-10,-8,2,-4,11,8
1532369924606,4,2,1,9,5,8,-1,0
1532369924611,-5,-6,2,-4,1,2,-1,2
1532369924616,3,4,-6,0,-9,-6,-6,-2
1532369924621,1,-7,-1,-7,-2,-10,-11,-1
1532369924626,-2,3,12,5,3,-1,7,-2
1532369924631,5,-4,-14,-4,0,6,5,2
1532369924636,-3,-4,-4,-3,5,-16,-31,-5
1532369924641,-5,-1,1,2,-6,-2,8,-3
1532369924646,4,4,-2,-3,-3,16,26,2
1532369924651,0,-3,5,5,1,-1,1,0
1532369924656,-4,-2,-3,1,0,-14,-20,-2
1532369924661,-2,-2,-2,2,-3,12,11,-2
1532369924666,2,3,3,-13,-2,-5,-5,-3
1532369924671,0,-2,-3,5,-2,3,6,-1
1532369924676,1,-23,-5,-1,2,2,2,-1
1532369924681,-5,14,4,1,1,-4,-2,-2
1532369924686,-2,5,1,1,-7,-1,-1,3
1532369924691,-2,-7,3,1,-2,-5,-6,-4
1532369924696,-2,-5,-1,2,5,1,-2,-1
1532369924701,0,-6,0,-4,1,-2,-11,-3
1532369924706,1,1,-4,-8,-2,-4,2,2
1532369924711,-1,1,-5,5,-7,-22,-15,-2
1532369924716,3,8,33,10,2,27,25,3
1532369924721,4,-5,-24,-19,-8,-3,-9,0
1532369924726,-7,3,5,5,2,-3,-6,-3
1532369924731,1,-4,-1,1,-1,2,12,0
1532369924736,-1,3,-6,-3,0,-4,-6,-1
1532369924741,-2,-4,7,2,2,-5,-29,-4
1532369924746,1,-3,0,-1,0,3,0,-4
1532369924751,1,-1,3,-1,0,-1,1,-1
1532369924756,-6,3,-10,-6,-1,-3,15,-1
1532369924761,1,0,6,7,4,7,11,0
1532369924766,2,3,-12,-4,-3,-6,-7,-2
1532369924771,-3,-9,4,-2,0,5,0,0
1532369924776,-5,-1,-7,-3,0,-5,-7,-3
1532369924781,1,-5,6,7,7,2,5,2
1532369924786,-2,-9,-2,-3,-5,-3,1,0
1532369924791,3,1,5,-10,-7,3,9,0
1532369924796,3,23,-5,1,0,-1,-6,1
1532369924801,-2,-4,-8,2,-7,-11,-11,-5
1532369924806,-2,0,2,-7,-3,-7,2,0
1532369924811,-1,2,1,7,8,5,-5,-2
1532369924816,-1,-6,-6,-2,5,7,1,0
1532369924821,-1,-2,-4,-5,-8,-1,6,0
1532369924826,-3,0,-4,6,-1,-6,-2,-1
1532369924831,-2,-5,-2,-8,-8,-9,-8,0
1532369924836,3,-1,7,7,3,-4,2,-1
1532369924841,-1,4,6,8,7,3,9,3
1532369924846,2,-3,-4,-7,-6,0,11,-1
1532369924851,-3,-1,3,5,3,-4,-27,-6
1532369924856,3,-1,-14,-8,-14,-5,-4,-2
1532369924861,-8,-2,20,-3,-2,-2,9,-2
1532369924866,1,0,-6,2,5,-9,-26,-4
1532369924871,5,7,-4,-6,-1,8,20,2
1532369924876,-9,-17,-7,1,-1,-2,-9,-1
1532369924881,1,-3,-9,-8,-7,0,12,1
1532369924886,0,0,1,2,4,0,-3,-3
1532369924891,1,5,4,0,-3,-3,10,3
1532369924896,1,2,3,1,6,-4,-17,-2
1532369924901,-3,-3,-1,-2,2,7,4,-2
1532369924906,2,-15,6,8,6,-4,-7,0
1532369924911,0,21,-9,-9,1,6,3,-1
1532369924916,-1,-1,1,-9,-15,-4,14,-1
1532369924921,-2,-2,-2,-2,-7,-3,-15,-9
1532369924926,-3,-1,-7,1,0,5,9,0
1532369924931,-4,-10,-1,2,1,-1,-4,-4
1532369924936,-1,-2,1,0,4,0,7,-3
1532369924941,3,6,4,-1,0,18,27,7
1532369924946,4,4,2,2,2,-7,-14,-1
1532369924951,-4,-8,1,3,4,-4,-12,-5
1532369924956,-3,2,1,6,2,-8,-14,-6
1532369924961,-1,0,-13,-11,-7,-3,-2,-1
1532369924966,-3,-5,1,-6,-8,2,20,3
1532369924971,5,0,1,1,-5,-2,2,3
1532369924976,1,3,2,3,1,10,7,3
1532369924981,-1,-4,-5,-1,1,-3,4,0
1532369924986,-1,5,0,3,2,2,-9,-3
1532369924991,-1,1,1,1,0,6,8,0
1532369924996,0,-7,-2,-3,-5,-9,-32,-2
1532369925001,-6,-11,2,-2,-8,-2,11,-1
1532369925006,0,7,-3,-4,-1,5,-5,1
1532369925011,-3,-5,-2,2,1,-6,-22,-5
1532369925016,1,3,-2,0,6,0,11,1
1532369925021,0,0,-1,3,4,-7,-10,-1
1532369925026,-2,-4,-1,-2,-2,14,9,2
1532369925031,0,-4,-1,-2,2,2,6,1
1532369925036,-1,13,-1,-5,-6,-8,-3,0
1532369925041,1,3,2,1,-1,11,15,0
1532369925046,-1,-2,-2,1,0,-9,-24,0
1532369925051,-1,1,1,1,4,-1,-2,1
1532369925056,-2,-5,0,-3,2,2,-9,-1
1532369925061,-1,0,0,3,2,-6,1,-3
1532369925066,4,7,-2,-2,-3,-3,-4,5
1532369925071,1,-6,0,-8,-9,17,22,2
1532369925076,-2,-5,1,5,-10,-6,-1,-2
1532369925081,2,4,1,-6,5,-3,-9,-1
1532369925086,-2,0,-8,-6,3,-2,1,-3
1532369925091,-1,-6,-1,9,10,1,6,0
1532369925096,2,0,-5,-5,-11,-3,1,-1
1532369925101,-2,-1,-2,-2,-4,1,6,-2
1532369925106,-1,2,4,0,-1,-7,-23,-2
1532369925111,-6,-5,-1,2,6,3,9,0
1532369925116,2,0,0,-1,6,-7,0,0
1532369925121,-2,-2,-2,3,-1,12,-1,0
1532369925126,-3,-2,-2,-4,-3,1,12,-2
1532369925131,1,3,-1,0,-2,-9,-5,-1
1532369925136,2,-1,2,0,2,0,2,1
1532369925141,3,-2,3,2,2,-6,-27,-4
1532369925146,0,-3,0,-2,-5,-5,13,1
1532369925151,-4,-2,-2,0,3,-1,-5,-2
1532369925156,-4,-3,-2,-4,-3,1,2,-3
1532369925161,4,2,5,7,3,1,3,1
1532369925166,-4,2,-5,-11,-3,-4,-10,-2
1532369925171,-1,-3,-2,7,-4,0,5,-3
1532369925176,-3,-4,-3,-13,2,-2,-2,-2
1532369925181,-3,1,-3,-5,-13,-8,-3,-9
1532369925186,6,-1,4,9,2,-3,3,6
1532369925191,0,2,1,-3,-1,13,4,0
1532369925196,-1,1,0,-1,-1,-2,-2,-1
1532369925201,0,0,-1,-5,2,0,-2,3
1532369925206,-4,-3,-2,0,-3,-3,17,-2
1532369925211,-1,2,-2,-4,-5,-10,-35,-3
1532369925216,-1,-5,-1,5,4,5,8,-3
1532369925221,-1,0,-4,-1,0,-7,-18,-1
1532369925226,0,3,1,1,-2,8,0,-3
1532369925231,6,2,-2,-5,-1,2,17,7
1532369925236,0,-3,2,5,1,7,2,2
1532369925241,-1,1,-1,-3,7,-7,0,1
1532369925246,-5,-3,-1,-1,-6,2,10,1
1532369925251,-2,-2,-1,-3,-9,-9,-12,-4
1532369925256,0,1,-2,-1,-6,2,-8,-4
1532369925261,0,3,0,3,6,-6,-10,0
1532369925266,-1,-3,-1,4,12,10,3,-3
1532369925271,-1,-2,-2,-5,-4,-4,1,-4
1532369925276,-2,3,0,-1,-2,-14,-4,1
1532369925281,-2,-5,-2,1,-1,11,-1,-4
1532369925286,-3,0,-1,-2,-1,-5,-7,-5
1532369925291,-2,1,0,-2,-4,-10,-3,-2
1532369925296,1,-2,-2,-1,3,4,-1,-1
1532369925301,-2,-1,0,-1,-3,12,15,1
1532369925306,-1,1,-1,-3,-4,-8,-16,-4
1532369925311,-1,5,0,0,0,6,14,0
1532369925316,-2,-3,-4,0,2,-1,-1,-4
1532369925321,-3,2,-3,0,-2,-9,-15,-1
1532369925326,-1,-1,6,5,-1,5,11,-2
1532369925331,-4,-6,-7,-10,-1,-1,1,5
1532369925336,1,1,-1,-4,-6,-8,4,6
1532369925341,3,9,-1,0,3,7,3,0
1532369925346,5,4,2,7,7,0,-13,-2
1532369925351,-3,-3,3,1,-4,-6,-1,-1
1532369925356,-5,0,-1,-4,4,6,3,-3
1532369925361,-3,-6,-5,-8,-12,0,12,0
1532369925366,0,-4,-2,-3,2,-2,1,2
1532369925371,3,4,2,5,4,3,-2,-1
1532369925376,1,-4,0,-2,4,-1,-10,-1
1532369925381,-2,-7,-1,0,-6,4,4,-1
1532369925386,2,2,-3,-1,-4,8,33,4
1532369925391,1,-1,-3,-2,-2,-18,-46,2
1532369925396,-1,3,1,3,1,6,9,-1
1532369925401,-1,-3,9,12,9,0,2,2
1532369925406,-3,0,-9,-19,-17,-12,-5,0
1532369925411,-1,2,-1,2,0,12,12,2
1532369925416,0,-5,0,-9,-8,-6,-11,-2
1532369925421,-1,-1,-1,1,0,-5,-3,1
1532369925426,0,-4,3,4,3,3,3,-2
1532369925431,-3,-2,1,3,3,-4,-4,-5
1532369925436,-2,0,0,3,-1,7,17,3
1532369925441,2,0,-2,-6,3,6,3,0
1532369925446,-2,-2,0,1,0,-13,-27,-3
1532369925451,-2,0,-1,-1,-1,-19,-34,-9
1532369925456,-2,2,-1,-2,-5,3,-11,1
1532369925461,1,-1,-2,-1,-3,-1,32,3
1532369925466,0,0,-3,-4,4,22,27,5
1532369925471,-1,-2,-1,-2,-6,-35,-67,-9
1532369925476,1,0,0,4,-1,8,15,3
1532369925481,-1,-1,-3,-5,-6,-2,-5,-2
1532369925486,0,0,-1,-1,-1,3,8,0
1532369925491,-4,-6,-4,-3,-1,14,23,-4
1532369925496,-2,-2,-2,-1,2,-3,5,1
1532369925501,1,3,1,0,-1,-12,-15,3
1532369925506,2,3,2,7,5,5,3,0
1532369925511,0,-1,0,0,1,23,25,7
1532369925516,0,1,0,0,-3,-4,-10,-4
1532369925521,-5,-5,1,3,2,-4,-2,-5
1532369925526,-4,-6,-13,-12,1,-16,-22,-3
1532369925531,0,0,-2,-3,-12,15,54,1
1532369925536,1,1,3,8,0,-7,-28,1
1532369925541,1,-1,-1,-9,-4,2,10,-1
1532369925546,-4,-2,5,11,-1,-16,-56,-7
1532369925551,0,-1,-1,-2,3,-4,-19,-1
1532369925556,5,4,0,1,3,22,95,12
1532369925561,-5,-4,-4,3,-4,-9,-33,-7
1532369925566,1,2,10,3,5,11,16,4
1532369925571,3,2,-1,5,2,-2,-10,9
1532369925576,-4,-5,-3,0,5,12,22,0
1532369925581,1,2,-2,-2,-4,18,-22,2
1532369925586,-3,-6,-3,-6,-9,-9,31,1
1532369925591,-4,-3,-3,-5,3,-4,-46,-11
1532369925596,3,2,-1,-2,0,-2,8,2
1532369925601,-4,-4,-3,-4,-9,-12,6,-3
1532369925606,2,2,-3,5,3,6,-37,0
1532369925611,3,2,1,-1,0,11,38,6
1532369925616,-6,-4,-2,-4,-1,-15,-25,-6
1532369925621,-3,-2,-5,-1,4,-7,3,-1
1532369925626,-5,-3,-1,0,-6,23,115,5
1532369925631,4,1,5,6,2,0,-40,0
1532369925636,-2,-1,-18,-17,-5,-41,-86,-17
1532369925641,0,-2,5,-7,-1,-8,-6,0
1532369925646,-2,-1,-3,2,2,-6,8,0
1532369925651,-4,-5,0,-2,-4,3,42,4
1532369925656,-2,1,1,5,-3,3,15,2
1532369925661,3,2,13,-1,-15,26,43,1
1532369925666,-3,-4,-14,-10,2,-8,-40,-3
1532369925671,0,3,1,4,1,-19,-10,-4
1532369925676,1,1,2,2,5,9,-19,-4
1532369925681,-1,-2,-4,5,7,-25,-19,-4
1532369925686,1,2,3,-3,-10,0,-12,-3
1532369925691,2,0,-1,-1,2,20,21,4
1532369925696,2,1,2,2,0,1,-8,-1
1532369925701,0,0,-1,-1,6,2,21,1
1532369925706,-5,-6,-3,0,-1,-1,-19,-4
1532369925711,-9,0,-4,0,2,-19,-1,-11
1532369925716,-14,-2,3,-3,-3,1,-14,-15
1532369925721,25,2,-1,5,6,3,-13,19
1532369925726,4,2,5,-3,11,-10,-25,7
1532369925731,-16,-5,-10,-13,-11,4,40,-22
1532369925736,2,-3,-2,0,-8,6,12,15
1532369925741,11,3,-2,1,2,-7,-23,-1
1532369925746,28,4,0,3,-3,-7,0,35
1532369925751,-16,-1,6,5,11,10,7,-6
1532369925756,-3,-3,-2,-3,-1,0,12,-2
1532369925761,-17,-2,-3,1,3,-2,-3,-15
1532369925766,-8,-2,0,1,0,6,1,-9
1532369925771,-4,-2,-4,-2,-5,-5,2,2
1532369925776,-3,-1,-1,1,-1,-1,0,-1
1532369925781,1,-2,-3,-1,-3,-1,8,-1
1532369925786,-7,0,0,-3,-4,-1,6,-8
1532369925791,5,0,0,0,-3,-1,-10,5
1532369925796,5,-1,0,2,-1,-14,17,0
1532369925801,-2,-1,-2,-3,3,39,17,2
1532369925806,-6,0,1,-3,-3,-16,-32,-13
1532369925811,9,-1,2,3,-3,-6,-4,6
1532369925816,2,-2,-1,-6,-1,-8,-6,2
1532369925821,-24,-5,-2,-2,1,0,13,-7
1532369925826,5,-2,-2,2,-2,8,7,-11
1532369925831,-17,-5,-9,0,-1,6,18,-7
1532369925836,59,14,15,-5,2,-13,-27,28
1532369925841,7,-9,8,16,-4,-23,-17,26
1532369925846,-6,26,5,-26,1,41,81,-4
1532369925851,-7,-2,-1,3,1,-27,-93,-13
1532369925856,-30,-28,-10,4,-2,8,11,-20
1532369925861,-1,14,-5,-3,1,-11,-12,-8
1532369925866,5,-6,18,16,-3,-8,-7,5
1532369925871,1,-4,-10,-10,-1,12,26,8
1532369925876,-8,0,-5,-8,0,4,9,-2
1532369925881,1,-4,0,-1,-1,-7,-8,-10
1532369925886,-11,-9,-12,2,-3,0,-17,-3
1532369925891,5,-1,6,0,1,-20,-42,-5
1532369925896,-2,2,0,3,-2,5,-2,0
1532369925901,-3,-1,-6,-10,-4,9,41,0
1532369925906,-2,-7,-5,0,3,7,-17,-4
1532369925911,12,31,11,6,-3,9,24,15
1532369925916,-4,0,-15,-2,1,-9,-7,-6
1532369925921,-4,2,14,-1,3,5,2,-7
1532369925926,-1,-11,-18,-17,-3,-2,-25,-1
1532369925931,1,-14,12,13,-12,1,31,6
1532369925936,-11,1,-11,5,3,2,19,-1
1532369925941,-7,-7,-3,-10,-2,2,-24,-7
1532369925946,18,-3,-7,7,6,-11,-5,2
1532369925951,4,-6,-9,-6,-7,1,-3,-2
1532369925956,-5,3,8,1,-3,5,4,-3
1532369925961,-3,14,-6,-4,-2,-3,47,2
1532369925966,-3,8,4,9,7,-1,-62,-9
1532369925971,5,-15,-1,-1,-4,-15,-31,-4
1532369925976,8,28,9,0,12,2,5,-4
1532369925981,-14,-27,-5,-1,10,-7,6,5
1532369925986,-39,-10,-3,0,-16,0,26,1
1532369925991,19,18,-2,-10,-6,9,31,9
1532369925996,-12,-16,-1,3,1,-7,-32,-3
1532369926001,6,5,-4,-1,-5,6,6,-1
1532369926006,-9,-6,2,1,3,-4,5,-7
1532369926011,8,-9,-4,-3,6,4,-6,3
1532369926016,-2,0,0,2,0,6,28,-3
1532369926021,2,6,1,-2,-10,-19,-55,-6
1532369926026,10,-11,4,1,-1,-7,16,6
1532369926031,0,58,2,2,4,9,-27,-4
1532369926036,0,0,0,5,5,2,44,-2
1532369926041,1,-3,-3,-5,15,9,-6,8
1532369926046,2,-4,-5,-19,-40,-12,23,0
1532369926051,-12,-17,-5,-11,-11,-22,-19,-3
1532369926056,0,-1,1,0,-3,10,3,0
1532369926061,6,4,2,12,33,6,-24,2
1532369926066,5,0,3,12,6,4,6,0
1532369926071,-4,13,-3,-6,-7,6,43,1
1532369926076,5,-2,1,-5,1,8,13,-10
1532369926081,1,-1,-3,0,-1,-24,-62,-12
1532369926086,3,13,-2,-4,-6,-5,1,5
1532369926091,-16,-114,-7,6,4,28,82,9
1532369926096,28,71,8,3,-3,1,-75,3
1532369926101,2,33,-4,-5,-8,-5,7,-9
1532369926106,-1,9,2,5,13,-7,-5,-4
1532369926111,5,24,1,-1,3,-1,-4,-4
1532369926116,0,-46,2,4,3,23,0,-6
1532369926121,13,-15,-5,-9,-27,-1,50,22
1532369926126,-19,4,-6,-3,19,-15,4,-15
1532369926131,-2,-13,0,-10,-24,18,14,3
1532369926136,-6,-15,2,4,11,-34,-94,-7
1532369926141,3,19,1,0,0,-8,-25,-6
1532369926146,-4,-17,0,5,35,13,4,-9
1532369926151,5,9,1,11,-3,7,8,24
1532369926156,-12,-7,-11,-30,-56,-16,18,-18
1532369926161,-7,-14,-3,-2,1,15,39,4
1532369926166,5,2,4,8,2,-6,-31,3
1532369926171,1,7,0,6,31,-16,-9,-2
1532369926176,10,21,5,13,14,11,-8,12
1532369926181,-16,-26,-5,7,-16,-6,14,-5
1532369926186,5,-1,-4,-14,-3,18,24,4
1532369926191,4,1,3,-5,-22,-4,13,0
1532369926196,-10,-39,-10,-1,9,-1,-3,6
1532369926201,-4,-9,4,0,9,-4,-23,-9
1532369926206,5,9,-1,7,-4,-12,-10,6
1532369926211,2,-2,-4,-9,-11,-27,-53,-15
1532369926216,0,4,0,-4,6,11,40,10
1532369926221,-3,-3,-2,2,5,44,5,0
1532369926226,-7,-2,3,1,-12,-13,-3,-2
1532369926231,-19,-1,-4,-5,4,-29,-1,-18
1532369926236,30,-5,0,1,2,8,15,12
1532369926241,13,17,6,4,0,-12,-14,27
1532369926246,-2,1,0,0,4,0,8,-6
1532369926251,-3,3,-4,-2,-4,16,-7,-5
1532369926256,-26,1,-2,-2,8,7,-5,-13
1532369926261,-3,-7,-4,-9,-15,-10,12,-5
1532369926266,5,-8,-6,-14,-25,-2,0,3
1532369926271,1,12,4,5,12,-12,-11,0
1532369926276,7,13,5,6,-3,28,48,8
1532369926281,2,-27,2,10,11,-25,-64,-12
1532369926286,-14,1,-2,-1,1,7,37,42
1532369926291,10,0,-1,7,19,40,2,-14
1532369926296,-14,-12,-7,-12,-11,-4,-1,-1
1532369926301,2,10,0,-2,-12,33,55,-8
1532369926306,5,0,-1,-1,1,12,-14,0
1532369926311,1,5,8,12,9,-33,-46,1
1532369926316,2,4,0,3,-1,-10,2,9
1532369926321,-3,1,0,-3,13,2,-13,-11
1532369926326,-3,-10,-4,-5,-25,8,9,-8
1532369926331,2,3,-1,-2,0,26,39,9
1532369926336,-8,-4,0,1,4,-1,4,-5
1532369926341,4,3,-3,-9,-16,-37,-29,-5
1532369926346,8,4,2,1,8,27,7,-7
1532369926351,-3,-3,-3,-1,3,-10,3,0
1532369926356,-9,-8,-5,-3,-11,31,35,2
1532369926361,-11,-3,-3,0,1,-19,-35,-15
1532369926366,10,9,2,4,1,9,-1,-2
1532369926371,-1,-1,-3,2,10,-15,-66,-14
1532369926376,-3,-5,-1,-3,2,-17,11,17
1532369926381,5,8,2,-1,-3,7,13,1
1532369926386,-3,-6,-2,-2,-2,-19,-11,-4
1532369926391,-4,-4,-4,-3,-8,-7,28,3
1532369926396,-7,-5,-4,0,3,7,8,-3
1532369926401,-2,1,-2,-3,-2,16,10,2
1532369926406,5,0,1,0,-4,-36,-33,-5
1532369926411,4,0,-1,-3,-2,16,38,2
1532369926416,-1,1,-1,-1,-3,-6,-27,3
1532369926421,-9,-9,-7,-2,25,-7,-17,-14
1532369926426,-6,-4,-4,-4,-41,-55,44,1
1532369926431,-4,-7,-3,-5,-23,-29,-34,11
1532369926436,16,21,14,9,2,-52,-56,-1
1532369926441,1,2,-1,0,-8,-21,-24,-4
1532369926446,-7,-8,-5,-2,25,21,15,-5
1532369926451,-3,-11,-12,-8,3,30,51,2
1532369926456,-13,-12,-8,-8,-20,-1,83,-37
1532369926461,-10,18,13,11,12,-13,-75,33
1532369926466,22,8,3,-1,-1,-1,-4,14
1532369926471,-8,-2,1,4,0,-3,0,-5
1532369926476,0,-4,-5,-4,4,14,2,-5
1532369926481,-8,-5,-4,-1,3,44,63,-9
1532369926486,-7,-4,-2,-7,-10,-19,-20,-1
1532369926491,5,8,4,3,-2,-3,-7,2
1532369926496,-5,-6,0,0,3,-16,2,4
1532369926501,8,-3,-3,3,5,-7,-39,-10
1532369926506,-9,-3,2,5,7,37,-6,4
1532369926511,6,4,1,-7,0,-9,0,-1
1532369926516,-4,-29,-2,1,0,1,4,3
1532369926521,2,30,-1,-4,-17,-2,27,7
1532369926526,15,34,1,4,4,5,1,-13
1532369926531,-27,-44,-10,8,6,8,0,-1
1532369926536,-5,-10,7,-16,5,1,-30,-1
1532369926541,22,14,-5,4,-7,-1,33,1
1532369926546,-15,2,-1,-2,0,0,-18,-7
1532369926551,12,10,9,3,0,4,5,-4
1532369926556,-9,6,0,5,-4,-12,-29,1
1532369926561,-24,-23,-5,-3,-7,2,25,-2
1532369926566,26,18,1,-1,1,-1,-5,-6
1532369926571,10,-2,-1,4,-1,-4,-13,1
1532369926576,5,-4,-7,-7,0,1,-3,3
1532369926581,-19,-13,2,0,-4,3,16,-3
1532369926586,-3,-17,-3,0,3,0,-11,-5
1532369926591,-24,4,-1,-4,0,0,1,0
1532369926596,10,14,1,1,-1,-2,-13,-1
1532369926601,6,-11,-1,-2,-3,4,17,0
1532369926606,-10,-11,-2,5,2,-2,-9,-1
1532369926611,15,12,0,-7,1,3,0,2
1532369926616,-2,4,-3,2,-1,-2,-4,-1
1532369926621,5,-5,-2,-5,-6,-3,3,3
1532369926626,-7,-3,2,1,1,0,0,0
1532369926631,2,3,0,-2,0,1,-1,-3
1532369926636,0,0,-6,5,1,-1,-6,-1
1532369926641,2,-1,0,-11,-3,-2,5,-2
1532369926646,-10,4,0,-3,-2,-2,-3,-2
1532369926651,8,8,-1,0,-1,2,4,0
1532369926656,-5,-5,2,1,7,-2,-7,-1
1532369926661,-2,-4,-3,1,-1,0,6,-9
1532369926666,1,-6,-2,-1,0,-4,-17,5
1532369926671,2,8,-1,-5,0,0,0,2
1532369926676,-2,1,-5,1,-5,-2,6,1
1532369926681,3,2,-1,-2,0,-1,-29,0
1532369926686,-1,-8,-2,-1,4,5,57,-1
1532369926691,-1,-2,-3,-1,-3,-4,-11,-3
1532369926696,-1,0,-6,-1,-4,-6,-96,-6
1532369926701,-3,-7,-3,-5,-3,7,87,1
1532369926706,0,-1,1,1,-4,-6,-8,-2
1532369926711,-3,2,3,1,0,-1,-8,4
1532369926716,2,3,3,2,0,-1,30,-3
1532369926721,3,0,0,1,0,-2,-51,-2
1532369926726,-2,-5,-3,1,0,0,-29,-4
1532369926731,-5,-1,-2,-3,-3,-4,8,-7
1532369926736,4,2,3,1,-1,5,45,12
1532369926741,4,-1,-1,0,-2,-3,-79,19
1532369926746,1,-1,2,0,6,12,62,10
1532369926751,-1,0,-1,2,1,-4,-43,-5
1532369926756,1,3,-1,-1,-1,-1,9,0
1532369926761,-2,-3,0,-1,0,-3,12,-5
1532369926766,-2,-3,-2,-2,-4,-12,-29,-5
1532369926771,0,1,-1,-2,1,11,13,2
1532369926776,-3,0,-3,-1,-4,-2,1,-3
1532369926781,0,-3,-2,-4,-4,0,22,-2
1532369926786,-1,-2,2,-3,-1,-3,-25,-4
1532369926791,0,1,2,2,0,-5,15,6
1532369926796,1,2,-1,1,4,8,11,-7
1532369926801,0,1,-2,-2,-3,-3,-1,-2
1532369926806,0,-1,-1,1,0,0,-4,-1
1532369926811,-4,0,-1,1,7,6,-3,0
1532369926816,0,-1,-1,-4,-15,-31,-11,-1
1532369926821,1,-1,-1,0,-1,23,26,3
1532369926826,-1,-3,-4,-2,-1,-5,-9,0
1532369926831,-1,0,1,0,4,12,15,-14
1532369926836,1,0,1,0,5,-8,-24,3
1532369926841,-3,-3,-2,0,-4,-18,9,-7
1532369926846,2,0,2,-1,-1,10,23,-1
1532369926851,0,-4,-5,-2,-2,-13,-4,5
1532369926856,2,4,6,0,-3,6,-9,-4
1532369926861,-2,-1,0,-2,-4,-7,18,-4
1532369926866,0,-2,-9,-9,-2,0,-16,-2
1532369926871,1,6,4,-8,-7,-9,-6,-2
1532369926876,-4,-16,-14,7,5,15,12,-1
1532369926881,-4,-1,-4,18,13,16,2,10
1532369926886,-3,-4,-2,3,4,-3,-16,-6
1532369926891,2,0,-1,-4,-5,-18,-6,-1
1532369926896,-2,4,1,-11,-7,-3,-6,0
1532369926901,1,1,3,-4,1,-1,7,-3
1532369926906,0,2,1,1,-2,-2,-7,1
1532369926911,-2,-2,-4,-2,-5,0,13,-1
1532369926916,-1,0,3,-1,0,3,-13,-3
1532369926921,2,1,0,0,1,-6,-13,-2
1532369926926,-1,0,1,-1,0,1,9,-1
1532369926931,-1,-2,-1,0,1,6,1,3
1532369926936,-1,-1,-1,1,4,-1,11,2
1532369926941,0,0,-1,-3,-2,-1,1,-3
1532369926946,-2,0,-3,-1,-3,2,3,4
1532369926951,-2,-3,-1,2,1,-2,1,0
1532369926956,0,3,0,1,2,-10,-10,-1
1532369926961,-1,-1,-1,-4,-3,-6,-6,-2
1532369926966,-3,-3,1,0,1,0,-5,-1
1532369926971,-2,-2,-2,0,-2,9,21,5
1532369926976,-2,6,9,-1,-1,1,-11,-1
1532369926981,-3,-7,-13,-6,-5,-10,-16,-7
1532369926986,-1,-1,-1,0,0,-4,-1,-1
1532369926991,-2,-3,-4,-3,-2,2,0,1
1532369926996,-1,-1,-1,-2,-2,7,16,2
1532369927001,6,9,7,4,1,-1,-6,3
1532369927006,2,3,-1,-1,-2,-1,-8,0
1532369927011,-2,-12,-1,-1,-1,0,-3,-4
1532369927016,-4,-8,-2,-1,-1,-5,-2,-4
1532369927021,2,1,1,-3,-1,4,7,2
1532369927026,-13,1,-1,-2,-1,-1,1,1
1532369927031,0,6,4,0,1,-1,-9,-9
1532369927036,3,-1,-5,-1,-2,3,6,15
1532369927041,-3,-3,0,-1,-1,0,3,1
1532369927046,3,-4,0,0,-3,-1,-4,1
1532369927051,0,-2,-3,0,-1,-5,-9,-3
1532369927056,-9,-1,-4,-4,-2,1,3,-11
1532369927061,4,-12,0,-2,-1,-4,-5,-3
1532369927066,29,26,6,7,5,4,4,3
1532369927071,-3,10,9,5,-2,-3,-3,-1
1532369927076,3,-4,-7,-3,-3,-1,2,0
1532369927081,-10,-1,0,-1,-2,0,2,3
1532369927086,-3,-12,-5,-4,-1,-2,-1,-7
1532369927091,-1,-4,-3,0,-1,0,-2,2
1532369927096,-3,1,0,0,-3,1,6,4
1532369927101,7,3,2,2,0,3,-3,-8
1532369927106,-11,-7,-1,-2,-2,-2,-4,-5
1532369927111,4,2,-2,-3,-1,-2,-2,14
1532369927116,-4,-4,-1,-1,0,0,0,-7
1532369927121,-1,0,-2,0,1,-1,4,1
1532369927126,-2,-5,-8,-4,-2,-2,0,2
1532369927131,-7,-6,-8,-11,-6,-3,-4,-6
1532369927136,3,4,5,2,-1,1,0,-1
1532369927141,-2,1,4,6,2,-1,2,-1
1532369927146,-11,-8,1,-6,-3,-2,-6,-12
1532369927151,4,6,6,11,2,4,3,1
1532369927156,5,5,4,15,12,3,2,1
1532369927161,0,0,5,-5,-3,-1,-1,2
1532369927166,1,4,8,5,2,-2,0,5
1532369927171,-4,-8,-12,-9,-6,-7,-9,-11
1532369927176,1,-3,-10,-5,1,13,2,-5
1532369927181,-4,-3,-7,-4,-2,-16,-4,-4
1532369927186,-3,-7,-6,-8,-11,-1,2,-3
1532369927191,-2,-2,0,-5,-3,0,0,-1
1532369927196,-2,1,0,-2,-2,-8,-7,-1
1532369927201,-3,-3,-4,-2,-2,8,2,0
1532369927206,-2,-1,-1,-2,-1,-4,-4,1
1532369927211,3,3,0,3,3,1,2,4
1532369927216,-1,-2,2,-2,0,0,0,1
1532369927221,-2,2,0,0,1,2,2,-1
1532369927226,2,1,1,3,-1,-3,-2,-1
1532369927231,0,0,2,3,3,5,-6,2
1532369927236,-1,-4,-6,-9,-7,-14,-1,0
1532369927241,0,2,0,2,4,11,7,2
1532369927246,1,0,-2,1,3,2,1,3
1532369927251,1,0,-1,2,3,1,4,2
1532369927256,0,-1,1,-3,-3,-4,-6,-1
1532369927261,-1,0,-1,-2,-3,-4,-2,-1
1532369927266,-2,-1,-2,0,-1,-1,-11,-7
1532369927271,-4,-4,0,-4,-5,-5,-1,-6
1532369927276,3,1,0,1,5,18,16,12
1532369927281,-1,-1,2,-1,-2,0,-5,1
1532369927286,-1,0,-2,2,0,-1,-3,-2
1532369927291,-3,0,0,-3,-3,-3,-7,-3
1532369927296,-2,0,0,0,-1,-3,-2,-4
1532369927301,0,-3,-3,-2,-2,-3,2,-1
1532369927306,-1,0,0,-2,-1,0,0,1
1532369927311,0,2,0,1,2,-3,0,0
1532369927316,-4,-3,-2,-2,-2,-2,-2,-2
1532369927321,1,0,-1,-1,0,1,-1,-3
1532369927326,-2,0,-2,-1,-1,-4,0,1
1532369927331,1,-1,0,1,0,4,3,1
1532369927336,-1,1,-1,-2,-2,-3,-3,-3
1532369927341,-1,-2,-2,-3,-1,-2,-4,-2
1532369927346,0,-1,-1,-1,-1,1,2,1
1532369927351,0,1,2,1,-1,1,3,1
1532369927356,0,-2,0,-1,0,-3,-2,-1
1532369927361,-2,0,-2,0,-2,-4,1,-1
1532369927366,0,0,2,-1,0,2,3,1
1532369927371,1,-2,-3,-3,-1,0,0,1
1532369927376,-1,1,1,0,-4,-3,-3,-1
1532369927381,0,0,-1,0,-2,-1,0,0
1532369927386,-1,-2,-2,-2,0,-2,-2,-2
1532369927391,1,0,-1,-1,-1,0,-2,-2
1532369927396,-1,-2,0,-1,0,1,-1,-2
1532369927401,0,-1,-1,-2,0,-1,0,0
1532369927406,-2,-2,-2,0,1,1,-2,0
1532369927411,-1,0,0,0,-2,-3,-1,-2
1532369927416,0,-1,-2,-1,-1,-2,0,-2
1532369927421,-1,-1,-1,-1,0,0,1,-1
1532369927426,1,-3,0,0,0,-2,-2,0
1532369927431,-2,-2,0,-1,-1,-1,-1,-2
1532369927436,-1,-2,-1,-1,-1,-2,-2,-1
1532369927441,-2,0,0,0,-1,0,-2,-1
1532369927446,0,-1,-2,0,0,-1,0,-1
1532369927451,-2,-1,-1,0,1,0,-2,-1
1532369927456,-1,-1,-1,-1,-1,0,-2,0
1532369927461,-1,-2,1,1,-1,-1,-3,-1
1532369927466,0,0,-1,0,-2,0,1,0
1532369927471,-1,-1,-1,-2,0,-1,-1,-1
1532369927476,-1,0,0,-1,-3,-2,-4,-1
1532369927481,0,-1,-1,-1,0,0,-1,-1
1532369927486,-3,-1,-1,-2,-1,0,2,-2
1532369927491,0,0,-1,0,0,-2,0,-1
1532369927496,-2,-1,-1,0,0,-2,-3,-1
1532369927501,-1,-1,-1,0,-1,0,0,0
1532369927506,-2,0,1,-1,-3,1,0,-2
1532369927511,-1,-1,0,-2,-2,-2,-1,-1
1532369927516,-2,0,0,0,0,1,0,0
1532369927521,0,-2,-2,-1,-1,-1,-3,-2
1532369927526,-2,-1,-1,0,1,-2,0,-1
1532369927531,-1,-2,-1,0,-1,-1,0,0
1532369927536,-1,0,-2,-2,-2,-1,-2,-2
1532369927541,-1,-1,-1,-1,-1,-1,-3,0
1532369927546,-1,-2,-1,-1,-2,0,-1,0
1532369927551,-1,-1,-1,-1,-1,-2,-1,-1
1532369927556,0,-1,-1,0,1,-2,-1,0
1532369927561,-1,2,-2,-1,0,-2,1,0
1532369927566,-1,-1,-2,-1,-2,-2,-1,-1
1532369927571,-3,-2,-2,-1,-2,0,0,-3
1532369927576,0,1,4,0,-1,0,0,-3
1532369927581,-2,-2,-3,-2,-2,-1,-1,-1
1532369927586,-3,-3,-6,-3,0,-1,-1,-1
1532369927591,-5,0,3,2,1,1,0,2
1532369927596,5,5,5,7,2,1,0,1
1532369927601,1,0,1,-1,0,0,-1,0
1532369927606,-2,-1,0,-1,-1,-4,0,-1
1532369927611,0,-2,-7,-3,-2,1,0,-1
1532369927616,-2,-3,-3,-4,-3,-2,0,0
1532369927621,-1,-1,1,-3,-1,-1,-1,-2
1532369927626,0,0,3,-1,-2,-1,1,0
1532369927631,1,0,-1,-1,-1,-1,-2,0
1532369927636,0,-1,-3,-3,-1,-1,0,-2
1532369927641,-1,-1,-1,1,0,-2,-2,-1
1532369927646,-2,-1,-2,-1,0,0,-2,-2
1532369927651,1,0,2,0,-1,-1,-2,1
1532369927656,0,-2,-3,-1,-1,-1,-1,0
1532369927661,-1,-1,1,-1,1,-2,0,-1
1532369927666,1,1,0,0,1,0,-2,0
1532369927671,0,0,-1,-1,-2,-1,-2,-2
1532369927676,0,-2,-3,0,-2,0,-1,-2
1532369927681,0,0,-1,0,-2,1,0,-2
1532369927686,-1,0,2,1,-1,-1,-1,0
1532369927691,2,-1,1,-3,-1,-2,-1,1
1532369927696,-1,-1,-2,-2,-1,0,-1,0
1532369927701,0,-1,-1,-1,-1,-3,-1,0
1532369927706,-2,-1,-2,0,-1,0,-3,-1
1532369927711,2,1,0,1,-1,0,-1,0
1532369927716,-2,-1,1,-1,-1,-1,-1,-1
1532369927721,1,0,0,-1,-2,-1,1,0
1532369927726,1,-1,-2,-2,1,0,-3,-1
1532369927731,-1,-1,-3,-3,0,-1,-1,-2
1532369927736,-2,0,-1,-1,0,0,0,1
1532369927741,0,0,-1,-1,-1,0,-1,0
1532369927746,-1,-1,1,0,0,-1,-1,0
1532369927751,0,-1,-1,0,-1,-1,-1,-2
1532369927756,-1,-2,-3,-1,-2,-2,-1,-1
1532369927761,-2,-1,1,0,-1,-2,-1,1
1532369927766,-1,1,-1,-2,-1,0,2,-1
1532369927771,0,-1,-1,1,-1,0,-1,-1
1532369927776,-2,-2,-1,-2,0,-1,0,-2
1532369927781,0,0,-1,-1,0,-1,-1,0
1532369927786,0,1,0,2,-1,0,-2,-2
1532369927791,-1,-2,-2,0,-1,-2,-1,0
1532369927796,0,-1,-1,-1,0,-2,-2,1
1532369927801,-2,-1,-1,-2,-1,-1,-2,-1
1532369927806,-1,-1,-1,0,1,-1,1,0
1532369927811,-1,-1,-1,-1,-1,0,-2,1
1532369927816,-1,-1,0,0,0,0,-1,0
1532369927821,-1,-1,0,0,0,-1,0,-1
1532369927826,-1,-1,-2,-1,-1,-2,1,0
1532369927831,-1,0,-1,-2,0,-1,1,-1
1532369927836,-1,-2,0,-1,-1,1,1,-2
1532369927841,-1,0,-2,0,0,-1,-2,0
1532369927846,-1,0,-1,-2,-1,-1,-1,0
1532369927851,-5,-1,0,-1,0,0,1,0
1532369927856,0,0,1,0,0,-1,0,0
1532369927861,1,0,0,-3,-1,1,-1,-2
1532369927866,-1,0,1,0,0,-2,-1,1
1532369927871,2,0,-1,-1,1,0,-1,0
1532369927876,-1,0,-2,0,-3,-1,0,-1
1532369927881,-2,0,-1,0,-1,0,-1,-1
1532369927886,-1,-2,0,-1,0,0,-1,-1
1532369927891,-1,-4,-2,0,-1,-1,-1,-2
1532369927896,-1,-2,-1,-1,-2,0,-2,-1
1532369927901,1,0,-1,-1,-1,-1,0,1
1532369927906,-1,0,-1,-3,-1,0,-1,0
1532369927911,-1,0,-2,-1,0,-1,-1,-1
1532369927916,-1,-1,-2,0,1,-2,0,0
1532369927921,-1,-1,-1,0,-1,-2,0,-1
1532369927926,0,-1,-1,-2,-1,0,0,-1
1532369927931,0,-1,1,0,0,0,1,-1
1532369927936,-1,0,0,-1,0,0,-2,0
1532369927941,-2,0,0,-1,0,1,0,-2
1532369927946,-1,-2,-2,0,-2,0,0,-1
1532369927951,0,0,-1,-2,0,1,-2,-1
1532369927956,0,-1,-1,0,2,-1,-1,-1
1532369927961,0,0,0,0,-1,2,0,0
1532369927966,-1,0,-1,1,-1,-2,-1,1
1532369927971,-1,0,-1,-1,-2,-2,-1,1
1532369927976,0,0,0,-3,-1,-1,-1,-2
1532369927981,1,-2,-1,0,0,0,0,-1
1532369927986,0,-2,1,-1,-2,0,-2,-1
1532369927991,-1,0,-2,-1,-1,0,1,0
1532369927996,-2,-1,-1,0,0,0,-2,-1
1532369928001,-2,-2,0,-2,-1,-1,-2,-1
1532369928006,0,0,-2,-2,0,-1,0,0
1532369928011,0,-2,-1,0,0,-3,1,0
1532369928016,1,0,-1,2,-2,-1,-1,-1
1532369928021,-1,-1,0,0,-1,-1,-2,-1
1532369928026,-1,-1,-1,-2,1,0,-2,0
1532369928031,-2,0,0,-2,-1,-1,-3,-1
1532369928036,0,-1,0,-3,-1,-2,0,0
1532369928041,-1,0,-1,-1,-1,-2,0,-2
1532369928046,-1,-1,0,-1,0,0,1,-1
1532369928051,0,-1,-2,-1,1,-1,-1,-3
1532369928056,-2,0,-1,-1,-1,0,0,1
1532369928061,-1,-1,-2,0,0,-2,1,0
1532369928066,0,-1,-1,0,-2,-1,-2,-1
1532369928071,0,0,-1,-1,0,1,-1,-2
1532369928076,-1,-1,-1,-1,-1,0,-1,-1
1532369928081,-3,-2,-3,-1,-1,-1,1,0
1532369928086,-1,-1,-2,0,-1,-1,-1,-1
1532369928091,-1,0,-1,-1,0,-1,-2,-1
1532369928096,-1,-1,-1,-1,-1,-1,0,-1
1532369928101,1,-1,-1,-2,1,0,-1,-1
1532369928106,0,-1,1,0,-1,-2,-1,-1
1532369928111,-1,-1,0,-1,-1,-1,0,-1
1532369928116,0,0,1,0,0,-2,-3,-1
1532369928121,1,-1,0,-1,-1,-1,-1,-2
1532369928126,0,-1,-2,-1,-2,-1,0,1
1532369928131,-1,-2,0,0,-1,-1,-1,-1
1532369928136,-1,-1,-1,-2,-3,0,-1,-1
1532369928141,-1,0,-1,0,-1,1,-1,-2
1532369928146,-2,0,-2,-2,0,0,-1,-1
1532369928151,0,-3,0,0,-2,-1,-1,0
1532369928156,2,-3,-1,-1,0,1,0,-1
1532369928161,-1,-2,1,-1,-2,-1,-1,0
1532369928166,0,-2,0,-1,-2,0,0,-3
1532369928171,-1,0,-2,-1,-2,-1,0,-1
1532369928176,-1,-1,-3,-1,-1,-2,-1,-2
1532369928181,0,-1,-1,-1,0,0,-1,0
1532369928186,0,-1,0,0,-1,0,-1,-2
1532369928191,0,0,0,0,0,0,0,-1
1532369928196,-1,1,-2,0,0,0,0,0
1532369928201,-1,0,-1,0,0,-1,-1,1
1532369928206,-3,-1,-1,1,0,-2,-1,-1
1532369928211,0,0,-1,-1,0,-2,0,-1
1532369928216,-1,-2,1,-1,-2,-1,-2,-2
1532369928221,0,-2,-1,0,-1,-1,-1,-1
1532369928226,-1,-2,0,0,0,1,0,-2
1532369928231,-2,-1,-1,0,0,0,-1,-1
1532369928236,0,-1,-1,-2,0,-2,-1,0
1532369928241,0,-2,-1,1,-3,-1,-1,-2
1532369928246,1,0,0,-1,1,-1,-1,-1
1532369928251,-1,0,-1,-1,0,-2,0,0
1532369928256,-2,-2,-1,0,0,0,0,-1
1532369928261,-1,-1,-2,0,-1,1,-1,-1
1532369928266,-1,-1,-2,-1,-1,0,-1,0
1532369928271,-1,-2,-1,0,-1,0,0,-1
1532369928276,1,1,-1,-1,-1,0,-2,1
1532369928281,-2,1,-2,-2,-1,-2,-2,-1
1532369928286,-1,0,-1,-1,-2,-1,-1,-2
1532369928291,-2,-2,-1,-1,-3,-2,0,-2
1532369928296,-1,-1,-1,1,0,-1,-2,-1
1532369928301,-1,1,-2,0,0,-2,0,-1
1532369928306,0,-1,0,-1,-2,-2,1,-1
1532369928311,-1,-2,-2,-1,-1,-1,-1,1
1532369928316,-1,-1,-2,2,0,-1,0,-2
1532369928321,-1,-1,-1,0,0,0,-2,-2
1532369928326,0,0,-1,0,-2,0,-2,-1
1532369928331,0,0,-1,0,0,-1,-2,0
1532369928336,0,-1,0,0,0,-1,-1,-1
1532369928341,0,-1,0,-2,-2,0,0,0
1532369928346,0,-2,-1,0,-1,-1,-1,-1
1532369928351,0,-1,-1,-2,-1,0,-1,-2
1532369928356,0,-1,0,-1,0,-1,-1,-1
1532369928361,1,-1,0,-1,-1,-3,0,0
1532369928366,0,-1,-1,-1,1,-1,-2,1
1532369928371,-2,0,0,-1,-2,1,-1,-1
1532369928376,-1,-1,0,-3,0,1,0,0
1532369928381,-1,-2,-1,2,-2,-1,-1,-2
1532369928386,1,0,-1,-1,-2,-2,0,0
1532369928391,-1,-1,1,2,1,-1,-1,-1
1532369928396,-2,0,-1,-1,-1,-1,-1,-1
1532369928401,-1,0,-1,-2,0,0,-1,-1
1532369928406,-3,-1,-1,-1,-1,1,0,0
1532369928411,0,0,-1,-2,-1,-1,0,1
1532369928416,0,-2,0,-1,-2,-1,0,-2
1532369928421,-1,-3,-1,-1,-1,-1,-1,0
1532369928426,-1,-2,0,0,-1,0,-2,0
1532369928431,0,0,-1,1,-2,0,-1,-1
1532369928436,0,1,-1,0,1,-1,-1,-1
1532369928441,-1,2,-1,-1,0,0,3,0
1532369928446,-1,-2,-2,0,-1,0,0,-1
1532369928451,0,-1,0,-3,-1,0,-1,1
1532369928456,-1,0,0,-1,-1,-1,1,-1
1532369928461,-1,-1,-2,-2,-1,0,-1,-1
1532369928466,-1,-2,0,-1,-1,-1,-1,-2
1532369928471,-1,-2,0,-1,-2,-1,0,-1
1532369928476,0,1,-1,-1,-2,-1,-1,0
1532369928481,-1,-2,-1,-2,-1,-3,-3,-2
1532369928486,-2,0,0,0,-1,-1,0,-1
1532369928491,1,-3,-3,0,0,-1,-1,0
1532369928496,-1,-3,1,0,-1,0,-1,0
1532369928501,-1,-1,-1,-1,1,-1,1,-1
1532369928506,0,0,-2,-1,-1,-1,0,-2
1532369928511,-1,0,0,-2,-2,0,0,-1
1532369928516,-2,-3,-1,0,-1,1,0,-1
1532369928521,0,0,-3,-2,-1,1,-3,0
1532369928526,0,-1,-1,-2,0,-1,0,-1
1532369928531,-1,-1,0,0,0,0,-2,0
1532369928536,-2,-1,0,-1,-1,-1,-1,1
1532369928541,-1,-1,2,-1,-1,0,-1,-1
1532369928546,-3,-2,1,-1,-1,0,-2,0
1532369928551,0,0,-3,-1,0,0,-1,-1
1532369928556,-1,0,-1,-2,-2,-2,-2,-1
1532369928561,-1,-2,-2,1,0,-2,-2,1
1532369928566,-1,0,-2,0,-1,-1,-1,-1
1532369928571,-2,-1,0,-1,-1,0,-1,-2
1532369928576,-1,-1,-1,-1,-1,-1,0,-1
1532369928581,0,-1,0,0,0,-1,0,-1
1532369928586,0,0,-1,-1,-1,-2,-1,-1
1532369928591,-2,-2,-1,0,-2,-1,-2,-2
1532369928596,0,0,-2,0,0,-2,1,1
1532369928601,0,0,0,-1,0,-2,0,-1
1532369928606,0,-2,0,-1,0,0,-2,1
1532369928611,0,-2,-1,-3,0,-1,-1,0
1532369928616,2,-3,0,0,-1,0,-1,-1
1532369928621,0,0,0,-1,-2,0,0,0
1532369928626,2,5,3,2,0,-2,1,1
1532369928631,-1,-4,-4,-2,0,-2,-2,-2
1532369928636,4,10,10,4,2,0,1,2
1532369928641,-8,-12,-6,-4,-3,1,-3,-3
1532369928646,-5,-12,-10,-5,-5,-11,0,-5
1532369928651,10,24,13,8,5,16,-2,4
1532369928656,-15,-29,-24,-15,-10,-11,-11,-11
1532369928661,2,5,7,2,0,-3,-4,0
1532369928666,1,3,1,3,2,1,8,4
1532369928671,-4,-7,-3,-3,-3,13,33,3
1532369928676,4,11,9,5,4,11,-9,1
1532369928681,1,2,1,1,-2,-23,-33,-5
1532369928686,-3,-5,-5,-3,0,-4,-5,-3
1532369928691,0,1,-2,0,-5,-10,-8,-2
1532369928696,1,4,-1,-1,-1,10,23,6
1532369928701,-3,-7,-6,-6,-4,-4,-6,-4
1532369928706,3,6,2,4,2,13,5,5
1532369928711,-3,-5,-3,-1,2,-9,1,-1
1532369928716,1,0,-2,-2,-1,5,5,0
1532369928721,0,-2,-5,0,2,-1,-4,-1
1532369928726,0,2,3,0,-2,-5,-8,-3
1532369928731,-4,-4,-2,-3,-1,-2,-5,-1
1532369928736,2,3,1,0,0,-8,-6,1
1532369928741,1,0,0,2,0,9,10,3
1532369928746,-2,-3,-2,-2,-2,7,6,0
1532369928751,-2,-6,-3,0,-1,-18,-10,-4
1532369928756,2,2,1,0,4,13,-7,0
1532369928761,2,3,3,1,0,-2,10,1
1532369928766,-2,-1,-1,-4,0,7,-10,-4
1532369928771,-1,1,-1,0,-2,-12,-8,0
1532369928776,-2,-2,0,1,-1,-6,2,-2
1532369928781,-2,0,0,-1,-1,5,7,3
1532369928786,-1,-2,-1,-1,-1,0,3,0
1532369928791,0,1,0,0,1,6,1,1
1532369928796,-1,-2,-1,0,-2,-6,-3,-1
1532369928801,-2,0,1,-1,-2,2,4,-2
1532369928806,1,-1,0,-1,-2,-5,-3,-2
1532369928811,-1,-3,-3,-1,-2,1,-5,-2
1532369928816,-2,-2,-3,0,-1,-4,-3,-1
1532369928821,0,1,0,0,0,4,2,-1
1532369928826,-1,0,2,-1,0,-4,-2,-1
1532369928831,0,0,-1,-1,1,0,-1,0
1532369928836,-2,-1,0,-2,-1,-4,0,0
1532369928841,-1,0,-2,0,-1,2,2,0
1532369928846,0,0,0,-1,-1,-2,-2,0
1532369928851,-3,-4,-1,-2,-1,2,0,-1
1532369928856,-2,0,-1,-1,-2,-2,-1,-1
1532369928861,1,1,-3,-1,1,1,0,0
1532369928866,-1,-1,-2,0,-3,-3,-2,-3
1532369928871,0,-3,-1,-2,-1,-1,0,-2
1532369928876,-1,0,1,1,0,-2,0,-1
1532369928881,0,1,1,0,0,1,1,1
1532369928886,-2,-2,-2,-3,0,-2,-1,-2
1532369928891,-1,-1,-1,1,-2,0,0,0
1532369928896,-1,-1,1,1,0,-1,0,-1
1532369928901,-1,-3,-3,1,0,-1,-1,-1
1532369928906,-1,-1,-1,1,0,-1,-1,-1
1532369928911,-2,0,0,-2,-2,0,-1,-2
1532369928916,-2,0,-1,-2,-1,-2,0,-1
1532369928921,-1,-2,1,-1,-1,-2,0,0
1532369928926,-1,0,0,0,-2,-5,-1,0
1532369928931,0,0,0,-2,-1,0,-1,-1
1532369928936,-2,-1,-2,-1,-1,2,2,-2
1532369928941,1,0,-1,-2,-1,3,2,1
1532369928946,-3,-2,1,-1,0,-1,0,2
1532369928951,0,-1,-2,-1,-2,-4,-5,0
1532369928956,0,-1,-1,-1,0,-2,-2,-1
1532369928961,0,0,1,-1,0,0,-1,1
1532369928966,0,0,-3,-3,-1,0,1,0
1532369928971,-3,-2,-1,0,0,2,2,2
1532369928976,1,0,-1,4,2,-2,-3,-1
1532369928981,-2,-3,-4,-6,-3,-2,-2,-1
1532369928986,0,1,2,-1,-1,0,-5,1
1532369928991,-1,-1,0,-2,1,0,4,-3
1532369928996,0,-1,-3,1,1,2,12,4
1532369929001,-2,0,-1,-1,-3,-16,-2,0
1532369929006,1,0,-2,1,4,30,-12,-3
1532369929011,-1,0,-1,-2,-2,-10,-26,-5
1532369929016,-1,-2,-2,-5,-4,3,19,0
1532369929021,-1,-1,1,1,-1,-4,10,-1
1532369929026,0,-1,-2,0,0,0,3,2
1532369929031,-1,1,-1,0,0,4,11,1
1532369929036,0,1,2,-4,-1,-11,-47,-6
1532369929041,-1,-2,0,-2,3,9,31,1
1532369929046,-5,-5,-7,-2,-7,-13,-19,-1
1532369929051,1,-1,-1,4,1,-2,-14,-5
1532369929056,-1,0,1,-6,-4,-6,-3,-2
1532369929061,0,0,1,1,2,6,1,0
1532369929066,-1,0,1,0,1,1,21,1
1532369929071,0,-1,-1,-1,-1,3,17,5
1532369929076,-1,-2,-3,1,0,12,-18,-7
1532369929081,-1,-1,0,-2,-8,-27,-83,-6
1532369929086,5,3,3,3,7,17,72,12
1532369929091,-1,-1,-1,-2,-3,12,28,4
1532369929096,-1,-2,0,-3,-4,10,51,3
1532369929101,-5,-2,-3,0,-6,-38,-83,-18
1532369929106,-4,-2,-2,-6,-7,-5,-23,-8
1532369929111,1,1,2,10,26,18,-27,-1
1532369929116,0,-1,-4,1,-23,-30,33,9
1532369929121,1,-4,-5,2,6,17,8,9
1532369929126,-2,-3,-8,-20,-9,-38,14,2
1532369929131,-7,-6,-4,-10,5,91,23,-13
1532369929136,-7,0,6,-2,22,-62,-78,-16
1532369929141,-3,3,6,4,-21,-101,-28,-27
1532369929146,10,5,4,20,9,79,41,22
1532369929151,13,1,-6,-22,-19,7,95,56
1532369929156,-1,-4,-6,-1,-2,26,23,-7
1532369929161,-16,-9,-5,-11,-6,-29,-52,-22
1532369929166,-1,4,4,16,11,-99,-27,-26
1532369929171,-5,3,8,3,-9,27,-65,-29
1532369929176,-4,-4,-4,-3,-10,-61,-58,-4
1532369929181,19,10,6,8,22,120,127,65
1532369929186,-18,-11,-9,-15,-15,-7,-101,-58
1532369929191,-17,-11,-9,-6,-8,-44,8,-24
1532369929196,27,15,13,14,20,15,-63,57
1532369929201,-18,-9,-9,-12,-31,-41,-30,-50
1532369929206,3,-2,-3,-3,11,24,88,24
1532369929211,-6,-1,-1,3,-12,-57,-84,-33
1532369929216,-6,-5,-1,-3,1,47,91,-13
1532369929221,8,4,1,2,23,17,20,13
1532369929226,-6,-3,0,2,-13,10,-55,-16
1532369929231,-1,0,-2,-5,2,-31,-21,-7
1532369929236,-3,-3,-2,-3,-17,14,30,-2
1532369929241,5,2,2,11,23,36,-13,12
1532369929246,-1,-2,0,6,21,-13,-1,0
1532369929251,4,1,-2,-4,-6,-16,5,12
1532369929256,0,-1,-4,-10,-21,0,-18,4
1532369929261,-3,-2,-3,-5,-6,11,14,-6
1532369929266,1,4,3,-1,-5,-5,-27,7
1532369929271,5,2,0,9,19,10,15,14
1532369929276,-6,-3,-4,2,-6,15,-21,-11
1532369929281,-2,0,0,1,-3,-11,-5,-7
1532369929286,3,1,1,2,6,-9,-4,7
1532369929291,0,0,1,6,10,19,-4,6
1532369929296,-3,0,-3,-8,5,12,10,-10
1532369929301,-1,-1,-1,-7,-26,-14,-9,4
1532369929306,2,0,2,3,4,-10,-18,10
1532369929311,0,0,1,-1,-2,5,46,-1
1532369929316,-2,0,-3,-2,7,7,13,-2
1532369929321,0,2,-2,6,0,6,6,7
1532369929326,-4,-2,-1,-2,-11,-1,-3,-3
1532369929331,0,1,1,-7,-10,-18,-14,2
1532369929336,-4,-3,-3,5,16,3,-71,-6
1532369929341,2,0,0,-2,5,7,17,4
1532369929346,1,-3,-3,-7,-11,-7,5,1
1532369929351,-1,-1,-1,4,6,8,18,1
1532369929356,1,-1,2,4,-8,2,-7,3
1532369929361,-3,-2,-4,-10,4,-14,-25,-11
1532369929366,0,-1,-1,0,-16,-1,8,-1
1532369929371,3,1,0,3,11,12,-6,5
1532369929376,0,-1,-1,-4,2,-18,-4,-7
1532369929381,-2,-1,2,8,2,33,6,2
1532369929386,1,2,2,7,17,6,15,3
1532369929391,1,-2,-6,-20,-24,-37,-21,-1
1532369929396,-2,-3,-4,-9,-13,-5,13,-4
1532369929401,1,-2,1,-1,-4,0,8,2
1532369929406,-1,0,-1,0,7,14,-13,0
1532369929411,0,-1,4,13,7,0,-21,-7
1532369929416,-2,1,1,5,10,1,10,2
1532369929421,-1,-3,-1,-4,-4,6,-3,-1
1532369929426,0,-1,1,1,1,21,-1,5
1532369929431,0,0,-4,-4,0,4,3,-2
1532369929436,1,-1,1,1,7,-17,10,-2
1532369929441,0,0,-1,1,2,-4,5,3
1532369929446,0,-3,-4,-11,-18,9,-11,-6
1532369929451,-1,-2,0,4,1,18,12,0
1532369929456,-2,-1,-1,1,18,0,-91,-6
1532369929461,4,4,3,7,-11,-17,73,14
1532369929466,2,0,-1,-4,-1,-26,-15,-2
1532369929471,-3,-2,-2,-3,-2,-6,-12,-15
1532369929476,0,0,-3,-4,-20,-23,-2,-1
1532369929481,-2,-2,-2,-1,5,-24,-20,-5
1532369929486,-2,0,1,-2,-1,56,19,4
1532369929491,-2,1,1,4,7,1,3,-1
1532369929496,-1,-2,0,3,6,13,20,0
1532369929501,-1,0,-4,-3,2,10,-18,-5
1532369929506,-1,-2,-1,-2,-9,-42,3,-1
1532369929511,-1,-1,-2,-2,-3,-3,-16,1
1532369929516,1,1,1,-1,2,22,24,5
1532369929521,-1,-1,-3,-2,-4,-10,-6,-1
1532369929526,-3,-2,-1,1,3,0,-16,-9
1532369929531,0,0,1,2,0,-2,1,5
1532369929536,-4,-3,-1,1,-4,-4,9,-5
1532369929541,-1,-1,0,0,6,8,1,0
1532369929546,0,0,-2,-3,3,19,9,1
1532369929551,2,-1,0,-2,-5,-13,5,7
1532369929556,-2,-1,-2,-1,-6,-1,72,0
1532369929561,-1,-2,-1,-2,2,1,-89,-10
1532369929566,2,1,0,1,3,-14,-51,-1
1532369929571,-2,-2,-1,-2,-5,-7,36,2
1532369929576,-1,-1,-3,-1,-3,8,18,1
1532369929581,-1,-2,0,0,3,19,22,-1
1532369929586,-2,-2,-3,-3,-3,-4,29,4
1532369929591,0,-1,0,1,-2,-5,-21,0
1532369929596,-1,0,0,0,1,-8,-30,-1
1532369929601,-1,1,1,-1,3,-4,-24,-6
1532369929606,1,-1,-1,-2,-3,-6,-4,-1
1532369929611,-1,-2,-1,0,-5,-9,-7,-1
1532369929616,-4,-3,-1,-2,-2,6,45,-4
1532369929621,4,3,0,0,-2,7,-22,4
1532369929626,0,0,0,-1,-1,-8,-7,7
1532369929631,-8,-1,-1,0,3,7,10,-9
1532369929636,1,-3,-2,-2,-3,-2,-61,-16
1532369929641,4,2,-2,-5,-3,3,9,5
1532369929646,3,3,1,4,3,-28,-7,-11
1532369929651,-15,-5,-1,0,-3,16,53,-3
1532369929656,24,3,-4,-6,-4,-12,-82,8
1532369929661,1,-4,-5,-6,1,-63,33,1
1532369929666,1,-2,0,0,3,81,22,1
1532369929671,4,0,-2,1,-22,-47,-34,1
1532369929676,-12,-4,0,-1,1,35,19,-12
1532369929681,-1,-1,-1,1,1,11,62,16
1532369929686,-2,-2,-2,-4,2,-27,10,5
1532369929691,-1,1,1,4,9,-4,-12,-4
1532369929696,-3,1,1,3,-1,8,3,6
1532369929701,1,-2,-3,-3,-6,1,-27,-5
1532369929706,-27,-2,4,4,-1,-2,6,-23
1532369929711,9,2,0,0,5,19,14,15
1532369929716,13,1,-2,-5,-5,-21,-26,13
1532369929721,9,0,-3,-1,2,15,-2,-16
1532369929726,-2,0,-1,0,1,8,16,17
1532369929731,-3,5,-1,-1,3,-13,6,-14
1532369929736,-11,-4,2,1,2,-2,47,33
1532369929741,-3,-6,1,2,3,19,30,-23
1532369929746,1,-2,-4,-5,-7,0,-32,21
1532369929751,13,-2,-1,-2,2,-3,-30,19
1532369929756,-9,0,-1,1,-2,-22,-30,-28
1532369929761,-9,1,2,6,6,37,80,-8
1532369929766,5,-4,-5,-5,-5,-17,-28,-13
1532369929771,-6,1,5,5,5,8,31,12
1532369929776,-6,-1,-4,-5,-2,4,35,8
1532369929781,3,-5,-6,-4,-6,-9,-53,-3
1532369929786,2,-2,-2,-2,-3,-18,-2,-12
1532369929791,5,-3,-3,-3,0,4,-16,0
1532369929796,-7,0,2,3,2,1,-8,-11
1532369929801,-9,-2,1,0,-2,-1,-4,6
1532369929806,2,2,1,1,1,-3,2,-1
1532369929811,-7,-4,-2,-2,-1,2,-27,-9
1532369929816,3,-1,0,2,2,3,31,9
1532369929821,2,3,-1,-4,-2,-11,-35,10
1532369929826,2,-2,-2,-2,-3,-2,6,-1
1532369929831,-2,-2,1,-3,-4,-11,-22,-13
1532369929836,2,0,-1,1,2,2,10,5
1532369929841,-1,0,0,0,-4,0,-4,10
1532369929846,-7,1,0,0,1,2,8,-15
1532369929851,0,-1,-3,-3,1,1,2,3
1532369929856,1,-1,-1,0,1,-3,-16,-4
1532369929861,-3,-1,1,0,-1,3,-6,5
1532369929866,-2,-1,-2,-1,-2,-5,6,-5
1532369929871,0,1,-3,-1,-3,0,-1,0
1532369929876,-3,-14,-2,0,0,-2,3,-5
1532369929881,-4,9,3,2,1,5,4,-8
1532369929886,-4,-6,-2,-2,-1,-2,2,1
1532369929891,2,6,-3,-3,-2,0,-7,-3
1532369929896,6,1,-1,-3,-6,-8,-5,-6
1532369929901,9,-2,0,0,-1,4,8,22
1532369929906,6,2,-2,0,-1,-2,-3,13
1532369929911,-6,-3,-1,1,0,2,-2,-3
1532369929916,-7,-1,-3,1,0,-2,-2,-6
1532369929921,-1,-2,-1,0,1,5,-4,-2
1532369929926,-4,1,1,1,0,-3,-1,-2
1532369929931,4,-3,-3,-2,1,-4,-11,-4
1532369929936,-12,4,2,4,5,14,3,-16
1532369929941,2,0,-1,-1,-5,-18,8,3
1532369929946,3,0,-3,-3,-3,0,-6,6
1532369929951,-3,-2,2,2,5,4,1,-10
1532369929956,-3,0,1,2,2,-11,-1,4
1532369929961,-16,-3,-1,-3,-7,3,-9,-11
1532369929966,11,-3,-5,-6,-2,5,0,-2
1532369929971,4,2,-3,-1,-3,-4,3,2
1532369929976,8,3,-2,-2,-3,-1,2,2
1532369929981,-8,-7,-19,1,1,-5,-2,-7
1532369929986,-3,-2,30,1,2,-2,4,1
1532369929991,7,-11,-22,-5,-4,-42,-16,6
1532369929996,2,0,-3,-4,-6,30,6,5
1532369930001,1,4,1,-4,-2,24,-2,-10
1532369930006,-20,-4,-2,3,3,12,39,-11
1532369930011,31,7,15,-4,-3,1,-36,37
1532369930016,5,-2,-8,-8,-7,-35,-12,0
1532369930021,21,-8,-2,-3,-2,-19,-5,32
1532369930026,-32,-6,-8,2,0,-3,-12,-20
1532369930031,-4,1,3,-3,-7,1,16,-5
1532369930036,15,5,-1,1,1,25,6,2
1532369930041,1,2,6,-1,1,-1,-8,5
1532369930046,10,2,2,4,9,4,17,26
1532369930051,-16,-2,-3,5,-2,3,6,-19
1532369930056,-1,2,2,-6,-8,-2,3,9
1532369930061,1,3,2,-2,2,-2,16,-4
1532369930066,11,-7,-8,-3,-4,-4,-38,-11
1532369930071,-30,-2,9,3,5,5,-1,-25
1532369930076,9,-14,-40,8,10,5,10,10
1532369930081,-2,30,67,5,0,-2,7,-11
1532369930086,14,5,-4,-4,-4,-11,-20,-6
1532369930091,-9,-14,18,3,0,19,10,8
1532369930096,-6,22,-6,-5,0,-11,-2,-16
1532369930101,-3,-7,-27,-1,1,-4,-17,-8
1532369930106,-5,5,19,-3,-4,0,-3,-1
1532369930111,-5,10,-15,-1,-2,3,4,-7
1532369930116,-16,-33,10,14,-3,-6,4,-12
1532369930121,14,-27,-7,-16,0,2,-7,5
1532369930126,11,42,2,-2,2,4,11,11
1532369930131,-5,-15,-23,-5,-1,0,11,10
1532369930136,-3,13,23,3,2,-3,-4,-4
1532369930141,-9,-14,-24,3,-2,-1,-8,-13
1532369930146,3,-10,1,-2,-9,-5,3,0
1532369930151,-1,0,12,5,-1,-1,-7,-3
1532369930156,-5,-9,-22,-6,0,-1,-2,-8
1532369930161,-11,1,15,5,0,-2,-17,-12
1532369930166,-1,-11,-15,1,0,-7,8,-3
1532369930171,3,4,-10,-5,-2,-1,-49,-6
1532369930176,3,5,16,1,5,11,60,17
1532369930181,-8,4,-9,-3,-2,-1,5,-1
1532369930186,0,-3,-3,1,0,-3,-19,-9
1532369930191,6,-1,-9,-3,1,-1,-8,-3
1532369930196,-2,8,9,-3,0,-5,-15,0
1532369930201,7,-5,-4,2,0,1,-3,0
1532369930206,-19,-3,-6,3,2,-1,9,4
1532369930211,2,1,5,2,0,2,18,-14
1532369930216,0,-2,-6,-7,-2,-4,-11,5
1532369930221,-6,1,18,2,-4,-2,10,-1
1532369930226,5,-8,-32,-21,-2,1,-4,4
1532369930231,-8,4,3,1,-2,1,14,-2
1532369930236,4,6,12,6,-1,-4,-14,-13
1532369930241,-5,-32,-17,2,1,0,-7,3
1532369930246,3,24,5,-5,0,2,6,13
1532369930251,6,6,5,6,1,2,3,6
1532369930256,-5,-6,-10,-11,-3,-6,-9,-6
1532369930261,1,8,-5,8,2,4,42,3
1532369930266,-7,-17,-1,2,-4,-3,-19,-8
1532369930271,1,1,-1,0,5,17,77,15
1532369930276,4,2,1,-1,-5,-7,-25,-3
1532369930281,-4,5,-9,-9,-4,-7,-6,-10
1532369930286,-4,-6,4,2,-2,-6,-46,-9
1532369930291,4,1,-6,-5,-4,-5,49,-4
1532369930296,-7,-3,4,-1,0,8,29,-3
1532369930301,-3,3,17,13,-2,5,-25,-14
1532369930306,4,-4,-22,-7,0,-24,-20,-1
1532369930311,-6,1,3,-7,-6,-21,-84,-4
1532369930316,9,6,-1,13,17,34,106,32
1532369930321,5,-4,-14,-5,4,15,-81,5
1532369930326,-5,7,9,9,-8,-6,-43,-12
1532369930331,-13,-11,-11,-10,-9,-9,-51,-19
1532369930336,1,2,9,-5,-12,-52,-96,-11
