1532075333976,-10,-6,-9,-17,-7,0,-2,0
1532075333981,-2,7,6,13,9,2,-3,-10
1532075333986,1,9,3,-2,0,-3,-1,0
1532075333991,-3,-2,-4,2,1,4,-2,-3
1532075333996,-2,-10,-4,-7,-5,-6,4,3
1532075334001,6,2,-1,-1,-6,-5,-3,-1
1532075334006,-2,-2,0,1,-3,1,0,0
1532075334011,0,4,0,-3,6,2,2,0
1532075334016,-4,-3,-1,1,0,-2,-3,-1
1532075334021,1,-1,3,-1,-4,-2,0,0
1532075334026,2,0,-5,-2,-7,-10,-7,-2
1532075334031,11,12,4,-3,0,1,-5,-1
1532075334036,-31,-16,-8,-1,0,4,2,-3
1532075334041,0,3,4,0,2,-3,-1,-1
1532075334046,-6,-3,1,0,-4,2,6,1
1532075334051,0,-7,-5,-4,3,5,1,2
1532075334056,13,17,2,2,-1,-5,-4,-2
1532075334061,10,-5,0,0,0,4,2,1
1532075334066,-3,3,-2,1,7,8,3,3
1532075334071,3,-2,-6,-3,-4,-9,-2,1
1532075334076,5,-3,2,7,-2,-1,0,-3
1532075334081,-7,2,1,-15,-5,-2,-2,2
1532075334086,28,14,2,1,1,2,2,3
1532075334091,-43,-31,-3,-13,1,2,-1,-4
1532075334096,5,-2,1,13,-10,-8,-5,-7
1532075334101,-7,-4,6,3,4,1,2,0
1532075334106,0,10,1,0,-3,9,4,2
1532075334111,1,5,-1,-1,13,3,2,-2
1532075334116,-5,-14,-6,-9,-2,-6,-2,0
1532075334121,-1,-12,-5,4,-2,-4,3,3
1532075334126,-8,0,-5,-8,-5,-13,-18,-12
1532075334131,6,13,3,3,-6,-8,-3,-3
1532075334136,-1,7,4,-1,4,9,2,2
1532075334141,4,4,3,2,1,3,2,-1
1532075334146,4,-4,0,0,5,3,4,2
1532075334151,-15,-19,-7,-4,-12,-12,-6,-4
1532075334156,2,2,-1,-1,-6,-2,0,-1
1532075334161,-6,3,3,2,10,13,7,0
1532075334166,-2,-2,-2,2,15,13,1,1
1532075334171,7,0,-3,-1,-6,-11,-4,-3
1532075334176,7,0,2,0,-6,-8,-3,1
1532075334181,-14,-3,-3,-3,-8,-6,-2,-1
1532075334186,7,-9,-3,0,-3,-3,-3,-5
1532075334191,15,17,-6,11,0,1,9,0
1532075334196,-22,-11,-4,-4,1,-1,-7,-2
1532075334201,5,1,0,-13,-3,-1,-11,-1
1532075334206,-11,-8,1,2,5,6,2,0
1532075334211,2,-3,-2,5,-7,-7,-4,1
1532075334216,22,18,2,2,-1,-3,3,0
1532075334221,-4,-5,1,8,3,0,2,1
1532075334226,-3,7,-6,-10,2,6,5,0
1532075334231,-6,6,1,-5,3,9,11,1
1532075334236,1,-9,-4,1,-6,-6,-8,-6
1532075334241,-15,-13,-3,3,-1,-4,-4,-3
1532075334246,6,2,1,-8,-10,-10,12,-1
1532075334251,-4,13,11,10,-6,-5,-13,5
1532075334256,-1,-8,-7,-8,-1,10,-6,-8
1532075334261,8,-2,-6,-8,-4,-1,-3,-3
1532075334266,-17,-11,5,13,2,1,3,3
1532075334271,23,22,-3,-23,-9,-6,2,-8
1532075334276,-55,-14,10,0,1,0,4,-2
1532075334281,-18,-15,-18,-15,-3,-3,-12,-6
1532075334286,3,7,-2,28,3,-8,-2,0
1532075334291,-18,-19,0,-9,2,-6,-8,-5
1532075334296,35,33,6,0,-11,1,4,15
1532075334301,31,48,26,13,14,11,14,8
1532075334306,-24,-57,-39,-23,-11,-3,-12,-8
1532075334311,-21,-5,-1,16,1,-1,-4,-5
1532075334316,25,-11,-5,0,9,-1,11,-1
1532075334321,-8,13,5,0,0,0,-8,-4
1532075334326,16,22,8,-1,2,3,-6,2
1532075334331,-15,-15,-1,-9,0,0,3,3
1532075334336,-4,-2,-2,-7,-2,-4,8,7
1532075334341,42,16,1,21,-9,-6,-5,-12
1532075334346,5,8,5,-8,14,12,10,1
1532075334351,-28,-19,-6,-13,-13,2,-8,-5
1532075334356,45,17,2,10,1,1,0,7
1532075334361,-48,-14,-10,-10,2,-4,3,-7
1532075334366,4,3,-8,-7,-10,-17,-9,-3
1532075334371,11,0,-3,-4,1,0,4,2
1532075334376,-11,-1,3,-8,11,10,1,0
1532075334381,11,-5,-1,7,-1,1,0,4
1532075334386,-8,-4,7,-2,-1,-3,-5,-3
1532075334391,12,3,-3,16,-11,-7,-3,2
1532075334396,-8,1,0,-4,3,-2,-1,-3
1532075334401,11,-3,-1,4,-2,14,7,3
1532075334406,-4,-1,0,-9,11,2,-1,-1
1532075334411,6,-1,-6,-7,-7,-8,-5,2
1532075334416,-2,1,-4,3,-7,-8,-5,-10
1532075334421,-18,-30,-20,-14,-10,-5,-6,-5
1532075334426,30,15,7,12,5,5,8,4
1532075334431,10,15,-6,1,-9,-4,-14,-10
1532075334436,-5,-7,-1,-33,9,3,16,2
1532075334441,-6,6,5,3,2,5,-1,3
1532075334446,-44,-23,8,-8,-5,-2,-11,-2
1532075334451,33,8,1,-6,-7,-4,0,4
1532075334456,-29,-5,7,-3,0,-2,-4,-2
1532075334461,30,-6,-3,-5,-10,-9,1,-1
1532075334466,10,4,2,22,10,1,7,3
1532075334471,41,-1,3,-18,0,0,-3,4
1532075334476,-31,-7,-4,4,-8,-6,3,-10
1532075334481,28,16,6,-8,12,18,1,9
1532075334486,-64,-24,-6,-5,-4,1,-10,-9
1532075334491,-27,-4,0,0,11,-2,-7,-13
1532075334496,35,-4,-11,25,-8,-11,-1,6
1532075334501,-31,-19,1,11,-12,-10,1,-16
1532075334506,49,8,5,-5,-6,-8,-9,8
1532075334511,-1,8,3,13,22,17,16,11
1532075334516,1,14,0,1,6,5,-4,-3
1532075334521,-18,-9,-2,-4,-5,-17,-2,0
1532075334526,1,9,-1,0,-12,-7,-1,-2
1532075334531,-8,-7,-1,6,11,9,6,0
1532075334536,8,10,-2,2,1,2,-9,0
1532075334541,-4,-11,-2,-9,-1,2,1,4
1532075334546,1,-1,-1,0,-1,-2,1,1
1532075334551,8,5,-3,0,-4,-3,2,-4
1532075334556,-9,-2,1,0,-1,-1,-9,1
1532075334561,-7,-1,-4,-9,-2,-4,-2,5
1532075334566,-9,-2,0,12,4,-2,-3,-9
1532075334571,-3,-12,7,18,3,5,11,8
1532075334576,-35,-5,1,-15,-9,-5,-17,-11
1532075334581,58,20,7,16,9,-1,-6,7
1532075334586,-17,-4,1,-13,-4,0,5,-5
1532075334591,13,2,1,-2,-11,3,-9,4
1532075334596,-8,-13,-2,-2,16,-2,4,-2
1532075334601,-24,-4,-6,-8,-23,-14,-3,-6
1532075334606,6,5,3,17,5,7,1,2
1532075334611,8,1,-2,-11,7,2,6,-1
1532075334616,18,-8,0,8,-2,1,-1,6
1532075334621,-29,3,4,0,4,-1,-2,-8
1532075334626,9,4,1,-10,-4,-3,1,4
1532075334631,-22,-6,0,1,1,1,3,-4
1532075334636,11,2,-5,-32,5,11,0,-1
1532075334641,31,7,0,60,0,-5,-2,1
1532075334646,2,7,2,-6,-16,-7,-3,0
1532075334651,7,12,4,-7,-7,-2,-3,2
1532075334656,-3,0,-5,0,6,1,3,1
1532075334661,-14,1,-1,-20,-1,0,-1,-6
1532075334666,-6,-10,-4,2,2,0,1,-1
1532075334671,6,-3,-7,-3,-6,-7,-5,-8
1532075334676,3,9,2,0,-1,5,23,6
1532075334681,8,-4,-1,-12,2,0,-26,6
1532075334686,-28,0,-1,3,0,0,-6,-6
1532075334691,-16,-4,-1,-8,4,10,-2,-3
1532075334696,14,2,2,8,6,6,16,1
1532075334701,-9,8,-2,-10,-6,-6,-5,-2
1532075334706,5,9,-1,-10,-13,-12,-2,-2
1532075334711,11,-2,-3,13,2,-2,0,-2
1532075334716,-3,-3,1,-8,8,7,-6,-1
1532075334721,-8,-1,-5,-1,1,2,8,3
1532075334726,23,-5,-3,7,-16,-10,-9,-1
1532075334731,-16,1,0,0,0,-2,6,2
1532075334736,0,-1,-5,11,-12,-8,-5,-1
1532075334741,-14,-6,2,-20,8,5,-5,-7
1532075334746,-2,-6,-5,-1,4,1,2,-1
1532075334751,41,5,0,14,2,-2,15,6
1532075334756,-41,-26,-4,-4,-8,-6,-30,-8
1532075334761,-1,9,1,10,-1,-1,9,-1
1532075334766,1,5,-6,-2,-3,-3,2,-3
1532075334771,-11,-4,1,9,1,-1,-7,-2
1532075334776,2,-3,-2,-6,-3,-1,2,0
1532075334781,7,-5,0,-18,-8,-3,5,0
1532075334786,0,-1,-1,9,9,7,1,1
1532075334791,7,15,1,-13,12,9,0,3
1532075334796,-1,4,-5,-7,-13,-12,-7,0
1532075334801,-10,-37,-3,38,0,-2,11,-3
1532075334806,7,-13,-6,-24,9,12,-13,-3
1532075334811,-39,-9,-2,5,0,-7,-11,-4
1532075334816,8,5,1,1,-9,-7,-5,0
1532075334821,1,7,2,-15,6,-2,3,2
1532075334826,4,4,-1,20,-11,-4,6,3
1532075334831,8,9,-2,-49,-4,3,-4,2
1532075334836,-36,-14,-5,55,-2,-9,-8,-8
1532075334841,41,0,2,-8,7,-1,2,6
1532075334846,-3,21,3,4,-1,0,4,1
1532075334851,-16,-26,-3,-6,5,3,-4,-5
1532075334856,13,-6,-2,-13,1,10,2,0
1532075334861,-10,-1,-3,8,4,5,1,1
1532075334866,0,6,7,-17,1,-4,-3,-1
1532075334871,3,11,0,16,-9,-9,-14,-3
1532075334876,-2,-28,-9,-10,3,1,5,3
1532075334881,-12,-13,0,-2,-10,-2,-4,-6
1532075334886,0,5,1,-9,0,0,5,0
1532075334891,-5,13,4,3,10,1,5,-2
1532075334896,20,-24,-4,-10,-1,3,-8,-3
1532075334901,1,34,2,4,-8,-8,-3,-3
1532075334906,7,6,6,3,-2,2,5,14
1532075334911,-4,-26,-6,-3,-3,-5,-9,-8
1532075334916,-29,12,4,-4,5,2,6,-5
1532075334921,5,-2,-1,-9,1,2,-3,3
1532075334926,-14,-38,-7,-4,-7,-6,4,-3
1532075334931,4,7,1,20,1,-3,1,-3
1532075334936,12,15,-3,-21,-10,-3,-4,-1
1532075334941,0,12,4,8,10,13,11,3
1532075334946,-6,4,-3,-6,-3,0,-11,-7
1532075334951,-14,-38,-8,-2,-12,-5,-3,-2
1532075334956,10,20,7,0,-6,-4,4,1
1532075334961,-9,4,0,9,11,7,1,-1
1532075334966,14,13,2,-4,15,6,-1,0
1532075334971,8,38,2,-12,-9,-4,-1,9
1532075334976,-4,-10,11,15,-1,-3,0,1
1532075334981,-24,-89,-23,-20,-11,-10,-13,-12
1532075334986,-5,-9,-3,42,9,1,-1,-7
1532075334991,1,3,-2,-10,9,9,6,0
1532075334996,3,13,-2,30,-18,-13,-6,0
1532075335001,0,23,3,-25,-7,-6,-7,-2
1532075335006,0,-8,-1,-5,0,0,13,2
1532075335011,3,38,9,5,9,9,-8,2
1532075335016,25,4,6,37,10,4,5,5
1532075335021,7,-33,-15,-54,-29,-5,4,-7
1532075335026,-1,9,1,31,16,3,-9,-10
1532075335031,6,4,2,5,-8,-10,-3,-1
1532075335036,5,4,0,-23,0,-1,1,1
1532075335041,12,23,6,12,2,-8,-7,-1
1532075335046,-3,4,-7,-16,2,15,10,3
1532075335051,-17,-55,-7,0,7,4,11,1
1532075335056,-2,-5,-2,-12,4,5,-6,-6
1532075335061,-1,29,7,21,3,-1,4,9
1532075335066,4,16,0,-35,-26,-17,-9,4
1532075335071,-4,8,-1,-17,-10,-9,-2,-3
1532075335076,-21,-70,-9,-5,6,3,-1,-6
1532075335081,-9,3,-4,-17,-12,4,-3,-3
1532075335086,1,10,10,23,15,1,0,-2
1532075335091,20,25,-4,10,-7,-11,1,3
1532075335096,2,12,5,0,-7,-3,0,5
1532075335101,-20,-35,-8,17,12,9,0,-4
1532075335106,7,9,-4,-14,6,12,2,3
1532075335111,-2,4,-2,-6,-5,-5,0,-2
1532075335116,-4,0,-2,0,1,-5,-5,-4
1532075335121,4,17,8,-8,2,-2,3,5
1532075335126,-7,-19,0,8,1,-6,-2,2
1532075335131,-2,-3,-4,-3,-5,-1,-1,-3
1532075335136,6,16,-1,-13,-19,-2,0,4
1532075335141,14,23,3,-3,19,3,-2,2
1532075335146,-26,-55,-26,-38,-42,-24,-8,-8
1532075335151,-1,2,3,-6,10,10,22,5
1532075335156,-4,-4,0,10,14,7,-14,-4
1532075335161,9,14,5,10,4,3,3,1
1532075335166,-3,-33,-8,-7,-1,-1,-2,-2
1532075335171,-5,-5,-2,26,1,-5,-6,-6
1532075335176,7,15,0,-12,-6,-9,4,-1
1532075335181,-2,10,5,-25,4,9,6,10
1532075335186,5,16,7,19,8,5,-1,0
1532075335191,-4,-9,-3,-6,-9,-5,-3,0
1532075335196,4,8,6,23,14,5,2,-1
1532075335201,-9,-7,-8,-22,-18,-7,-6,-3
1532075335206,-3,10,4,46,1,-11,-2,-6
1532075335211,4,2,2,3,27,5,-3,-3
1532075335216,-1,4,-6,-14,2,3,3,3
1532075335221,-6,2,-4,-20,-28,-12,-3,-3
1532075335226,4,-24,-1,1,12,11,3,4
1532075335231,-1,18,3,-11,-8,-2,-6,-1
1532075335236,-10,-14,2,36,12,0,-1,-3
1532075335241,-2,4,-1,-48,4,8,4,-3
1532075335246,4,32,9,40,-6,-7,-4,1
1532075335251,1,-16,1,5,-4,-2,2,5
1532075335256,14,87,-4,-31,1,-2,-1,-3
1532075335261,-9,-50,0,8,-16,-12,-4,1
1532075335266,-22,-63,-12,-36,5,1,-3,-12
1532075335271,-2,-16,1,9,14,11,2,1
1532075335276,-7,-8,-4,-11,-10,3,-2,-3
1532075335281,9,35,-1,17,0,-6,-5,-1
1532075335286,17,36,17,12,-4,-4,0,9
1532075335291,-15,-35,-11,0,-19,-14,-6,-5
1532075335296,-11,7,-8,9,-8,-5,-4,-9
1532075335301,10,9,-1,-6,16,6,1,-1
1532075335306,-3,11,2,-36,-10,-2,0,1
1532075335311,4,12,7,59,17,5,13,7
1532075335316,24,12,0,-25,0,3,-7,-1
1532075335321,-12,-13,-6,-39,-12,-6,-6,-8
1532075335326,8,-17,-4,3,-11,-2,0,3
1532075335331,-16,23,5,7,1,-3,-4,-7
1532075335336,4,-3,1,1,20,5,0,-1
1532075335341,8,10,-1,-8,-12,1,1,6
1532075335346,-9,-40,-4,16,-7,0,2,-2
1532075335351,-1,-20,-9,-21,9,-1,-5,-5
1532075335356,-3,0,1,8,-9,-5,-1,-1
1532075335361,2,17,3,2,4,1,1,0
1532075335366,2,6,4,-5,-8,0,1,-1
1532075335371,-3,-8,-3,16,-1,-8,-7,-3
1532075335376,4,5,2,12,1,-6,3,5
1532075335381,-3,6,-2,-36,-4,0,-5,-3
1532075335386,15,16,4,4,0,4,10,4
1532075335391,9,-12,1,1,10,3,-8,-1
1532075335396,-33,-48,-17,-14,-2,1,-2,-8
1532075335401,-8,-4,-4,13,-7,-6,-2,1
1532075335406,-1,-19,-6,-5,-6,-6,-6,-5
1532075335411,25,66,8,2,4,4,4,7
1532075335416,0,26,7,-8,-8,-3,8,7
1532075335421,4,-19,-1,13,-1,-3,-16,-1
1532075335426,-7,15,0,1,2,1,0,-1
1532075335431,-4,-16,0,-8,0,-4,2,2
1532075335436,16,37,2,6,-8,4,8,1
1532075335441,-24,-70,-8,11,9,5,-6,-6
1532075335446,6,10,-2,-6,1,-1,-4,1
1532075335451,3,3,0,6,3,-4,-1,2
1532075335456,-10,-47,0,-9,-3,-6,-3,0
1532075335461,6,34,1,14,3,4,5,-4
1532075335466,3,-19,-6,-21,-9,-6,-6,-1
1532075335471,-24,-14,-7,8,-4,-6,-1,-9
1532075335476,16,40,9,-7,8,9,5,6
1532075335481,6,36,9,3,-1,-1,-1,2
1532075335486,-23,-67,-3,8,1,-3,-3,-4
1532075335491,-2,-3,-8,3,-3,-4,-5,-1
1532075335496,4,22,3,-7,-4,-3,-5,-9
1532075335501,4,-7,1,0,3,4,3,-3
1532075335506,-11,0,-10,8,3,4,5,11
1532075335511,5,8,5,-2,-3,-2,-6,-7
1532075335516,-3,-7,1,0,1,0,-2,10
1532075335521,9,10,-1,1,-6,-6,4,-17
1532075335526,1,15,10,0,-1,1,-7,4
1532075335531,3,-24,-7,4,4,0,-2,1
1532075335536,-8,10,0,0,-2,-5,2,-8
1532075335541,-7,-18,-8,1,-4,-5,-11,4
1532075335546,-2,-3,-2,-14,0,6,9,0
1532075335551,-1,-6,-5,-3,1,8,1,2
1532075335556,-34,2,-2,-7,-5,-4,1,-4
1532075335561,10,16,5,-5,-13,-7,-4,6
1532075335566,-12,-23,-11,5,6,-6,-7,-11
1532075335571,1,10,0,2,10,10,3,-2
1532075335576,20,5,0,5,5,2,-1,-3
1532075335581,-29,-20,-4,-8,-17,-10,-1,5
1532075335586,2,11,2,6,-9,-9,-5,-10
1532075335591,11,20,10,-1,7,3,5,5
1532075335596,-3,-9,-10,-15,-7,2,-4,-3
1532075335601,-4,-31,-4,5,5,5,0,3
1532075335606,-1,8,1,-6,-5,-3,-8,-2
1532075335611,8,-6,6,2,-3,-3,8,5
1532075335616,-9,-6,-4,5,5,2,-6,-9
1532075335621,0,1,-7,-3,2,-1,-4,-1
1532075335626,6,9,-1,-12,-7,-1,2,1
1532075335631,1,10,5,20,7,2,-3,-4
1532075335636,19,13,1,-10,1,1,16,13
1532075335641,-29,-7,1,-10,0,1,-5,-4
1532075335646,-22,-73,-8,16,-5,-5,5,-4
1532075335651,17,31,-3,-11,-7,-12,-14,-3
1532075335656,0,-31,-2,4,6,2,7,-1
1532075335661,4,8,1,-18,3,11,-3,-3
1532075335666,19,23,4,16,-4,-5,4,4
1532075335671,14,-2,1,8,-7,-1,2,11
1532075335676,-24,40,7,-6,10,16,-3,-15
1532075335681,-4,-8,-7,-9,9,-3,-3,-1
1532075335686,0,18,6,-5,-8,0,13,-6
1532075335691,8,-15,-11,-11,-7,-4,-8,10
1532075335696,24,25,9,10,-4,-8,-7,4
1532075335701,-3,2,2,6,4,2,10,-2
1532075335706,-6,-6,0,3,5,0,-9,-2
1532075335711,-19,-59,-12,-17,-2,2,5,-6
1532075335716,3,10,5,-3,2,-2,-3,5
1532075335721,28,-10,-1,1,-4,-1,-1,1
1532075335726,-3,1,-1,15,12,-4,1,-7
1532075335731,-6,14,6,4,-7,-2,-12,-2
1532075335736,-23,-69,-19,-13,-5,-7,-14,-11
1532075335741,8,4,4,3,-5,1,13,5
1532075335746,11,26,1,-20,-9,-1,-4,1
1532075335751,-1,38,7,24,4,3,4,-6
1532075335756,15,-16,-2,-13,2,-8,9,6
1532075335761,-38,-26,-7,12,-1,-5,-17,-6
1532075335766,1,12,-1,-6,-2,3,-2,-3
1532075335771,-15,-1,1,-7,5,-2,3,-2
1532075335776,15,13,2,-1,-14,4,5,6
1532075335781,3,7,3,-1,6,0,-1,-4
1532075335786,3,-13,1,-16,-8,-4,-4,5
1532075335791,-9,-5,-12,-8,-6,-5,1,4
1532075335796,5,11,6,12,4,4,-6,-7
1532075335801,2,-5,-7,-10,0,1,1,-6
1532075335806,-13,-1,-8,1,4,1,-6,-6
1532075335811,6,6,1,-6,-4,-4,2,1
1532075335816,18,24,4,23,-14,-3,5,24
1532075335821,13,30,3,-1,18,6,21,32
1532075335826,-33,-87,-15,0,1,-2,-16,-39
1532075335831,-27,-30,-8,-2,-16,-14,-20,-35
1532075335836,-7,-5,-4,-16,15,0,-10,-9
1532075335841,13,29,7,-1,-12,-5,-8,-17
1532075335846,25,42,13,1,11,8,12,29
1532075335851,2,-6,-3,-1,0,9,14,7
1532075335856,-3,-1,0,1,6,-3,-3,1
1532075335861,4,5,2,-4,-14,-8,2,15
1532075335866,-9,-7,-4,5,3,-2,-4,-8
1532075335871,-15,-13,2,-12,-3,0,-4,-8
1532075335876,1,5,-1,4,-4,0,1,2
1532075335881,3,-6,-1,20,1,-7,-1,-3
1532075335886,1,7,1,9,-1,-2,0,1
1532075335891,3,5,3,-7,4,2,0,-1
1532075335896,0,-4,-1,-36,0,10,7,5
1532075335901,-7,-12,-4,12,-3,-2,-4,-8
1532075335906,10,17,11,12,1,1,4,-1
1532075335911,9,2,4,-2,25,9,5,13
1532075335916,-19,-22,-3,26,-27,-19,-17,-14
1532075335921,-6,-4,-1,-9,-6,-3,1,-12
1532075335926,-1,1,-11,-4,-21,-3,-2,4
1532075335931,5,0,1,11,12,-1,1,0
1532075335936,0,-3,-1,-23,15,10,2,-4
1532075335941,1,2,-9,-2,-12,-5,-7,-3
1532075335946,4,5,-7,4,-5,-6,4,8
1532075335951,3,-3,-12,-24,3,5,0,5
1532075335956,-31,-9,-11,19,7,4,-5,-12
1532075335961,17,4,0,18,-2,-6,-1,5
1532075335966,-7,5,-1,-21,4,3,1,0
1532075335971,-2,-3,-13,14,-10,-5,-2,0
1532075335976,-13,-14,-4,-3,-22,-6,-7,-7
1532075335981,16,16,10,5,19,23,9,1
1532075335986,-26,-25,-10,-2,-3,-5,-4,-2
1532075335991,8,7,12,11,2,-11,4,9
1532075335996,0,5,-5,0,8,7,0,-3
1532075336001,-5,-7,-8,-4,-8,-12,-4,-1
1532075336006,12,5,16,-12,-2,7,3,1
1532075336011,-12,3,-14,-3,-1,4,-1,3
1532075336016,-1,1,13,11,1,-1,4,6
1532075336021,12,10,8,1,-5,2,7,22
1532075336026,-3,-4,-4,6,5,-5,-7,-24
1532075336031,-9,-9,6,-15,0,-7,-19,-25
1532075336036,4,0,-10,3,-7,-5,-1,2
1532075336041,-3,-1,-1,-7,-5,0,0,-3
1532075336046,5,-2,-6,23,-14,-8,4,13
1532075336051,4,0,-5,-3,7,13,11,13
1532075336056,4,7,0,-4,3,1,1,2
1532075336061,-9,-8,-5,-10,-12,-10,-10,-9
1532075336066,3,0,-1,-6,12,3,1,-4
1532075336071,2,-2,-3,-2,5,13,3,5
1532075336076,5,6,-4,-1,4,-5,-4,3
1532075336081,-7,0,4,-5,-4,-4,-2,-10
1532075336086,0,-4,-1,-8,-9,-3,-9,-9
1532075336091,-1,-3,6,1,-7,-12,-3,2
1532075336096,-5,-9,-4,-3,-14,-5,-2,0
1532075336101,-6,-7,-8,-20,4,7,0,-13
1532075336106,5,7,7,-11,8,7,5,-1
1532075336111,6,6,11,17,4,8,7,10
1532075336116,3,4,5,0,15,9,8,5
1532075336121,-5,-3,1,12,2,-4,-5,-5
1532075336126,-3,-1,-2,-2,-11,-9,-8,-1
1532075336131,-2,0,2,-9,-7,-15,-6,1
1532075336136,0,-1,4,-6,-14,-10,-3,-3
1532075336141,1,-1,2,5,-7,-9,-2,-1
1532075336146,-4,-7,-4,-5,6,-4,-7,1
1532075336151,2,7,6,9,7,20,12,2
1532075336156,3,1,-1,3,26,28,8,4
1532075336161,-6,-3,0,5,-3,-3,-3,3
1532075336166,0,-2,-4,-1,-15,-10,-5,-7
1532075336171,1,0,-1,-2,-1,-10,-11,1
1532075336176,-1,1,-2,-7,-8,-7,-9,-4
1532075336181,-1,0,0,2,-3,-9,-4,-2
1532075336186,-1,0,-4,-3,-8,-4,-2,1
1532075336191,1,-1,-2,-1,6,11,-4,2
1532075336196,-1,2,0,-5,7,2,-6,-2
1532075336201,-2,-3,-1,2,-7,-4,-7,-6
1532075336206,4,1,-1,2,8,-4,-5,3
1532075336211,2,8,0,-9,-4,7,8,3
1532075336216,-4,-8,-1,7,10,4,3,-1
1532075336221,-3,-11,-7,-10,3,-4,-1,-5
1532075336226,-2,-2,-5,-6,-9,6,-2,-3
1532075336231,2,-1,-3,-3,-6,-13,1,0
1532075336236,5,42,16,1,-2,4,1,3
1532075336241,-9,-4,4,2,5,3,0,-5
1532075336246,-7,-37,-16,7,4,3,7,2
1532075336251,-3,0,1,4,-9,-3,5,1
1532075336256,-3,-19,-3,-7,-4,-17,-17,-3
1532075336261,7,22,11,3,0,7,7,-2
1532075336266,2,12,-3,-7,8,9,1,-1
1532075336271,-2,-7,-1,0,-2,-1,2,2
1532075336276,0,5,0,-1,-3,-6,0,1
1532075336281,1,2,1,3,1,2,-2,1
1532075336286,11,7,1,-2,0,-1,7,3
1532075336291,-23,-28,-6,0,1,5,-2,-4
1532075336296,-2,-3,-5,-4,-7,-7,-5,-2
1532075336301,-1,-7,-6,1,-1,-2,-6,-5
1532075336306,2,12,3,-1,3,7,3,1
1532075336311,5,5,0,4,0,0,-4,1
1532075336316,8,-9,0,8,6,2,1,-2
1532075336321,-17,-20,-5,-5,-9,-10,-6,-7
1532075336326,0,3,0,-6,-2,-3,-6,8
1532075336331,18,8,2,8,-11,-13,-13,0
1532075336336,-32,-2,-1,6,6,1,15,-2
1532075336341,9,-15,-3,-19,-5,-1,-2,-3
1532075336346,20,0,-20,8,-6,-9,-8,-4
1532075336351,8,29,7,-11,-1,-8,4,3
1532075336356,9,-14,-7,3,13,7,3,-8
1532075336361,-21,-3,7,-7,6,9,-6,1
1532075336366,-12,-10,-2,8,-3,5,9,-9
1532075336371,5,0,-4,8,-8,-11,-9,1
1532075336376,-4,6,5,10,-2,-4,-3,-5
1532075336381,-4,4,0,-9,0,4,12,3
1532075336386,14,-2,-3,-8,-2,3,-7,4
1532075336391,-31,-7,-8,2,5,12,4,-4
1532075336396,23,5,10,1,3,4,5,4
1532075336401,-1,-10,-2,-9,-12,-12,-4,1
1532075336406,2,17,5,-4,-9,-11,-4,-3
1532075336411,-18,-10,0,-1,13,16,7,-1
1532075336416,6,6,-5,1,-12,-19,6,-2
1532075336421,-6,-7,-1,-2,-7,-8,-17,0
1532075336426,-21,-9,-8,9,5,7,7,4
1532075336431,18,-9,-6,-4,2,1,-2,4
1532075336436,-35,-18,-5,-9,-3,-4,-7,-4
1532075336441,20,13,2,9,-10,-7,3,0
1532075336446,-6,-7,6,-9,0,-12,-18,-13
1532075336451,-13,-18,-13,-4,-14,-13,-6,-8
1532075336456,2,6,1,-2,7,32,10,0
1532075336461,15,5,-2,4,13,10,21,9
1532075336466,-15,-4,0,18,-7,-1,-12,-3
1532075336471,17,2,1,-11,23,5,-3,2
1532075336476,-2,-3,1,-6,-28,-35,3,-9
1532075336481,-10,3,-3,11,-12,-19,-33,-5
1532075336486,2,-6,1,15,8,23,17,4
1532075336491,3,3,7,19,13,9,3,2
1532075336496,-1,-3,-5,6,-17,0,1,3
1532075336501,-7,-3,-1,0,16,8,9,-3
1532075336506,8,8,4,-22,2,-9,-2,1
1532075336511,4,4,-1,-3,-10,-14,-9,-1
1532075336516,0,18,2,-4,7,11,1,2
1532075336521,10,27,3,-2,0,-2,3,3
1532075336526,0,-24,-1,-27,-9,-5,-4,1
1532075336531,2,22,3,-10,2,7,10,5
1532075336536,-32,-112,-21,3,10,-5,-12,-17
1532075336541,-22,-15,-19,7,-27,-23,-21,-23
1532075336546,4,20,10,9,14,2,11,4
1532075336551,8,21,7,-10,3,0,-5,3
1532075336556,26,50,15,-12,-31,-13,-7,10
1532075336561,4,-3,0,-26,20,21,17,11
1532075336566,-4,6,-3,12,25,15,9,3
1532075336571,-1,-14,-11,-13,-43,-11,-6,-7
1532075336576,0,14,12,6,33,8,-5,2
1532075336581,-1,-7,3,-10,-17,3,1,-4
1532075336586,5,17,12,-9,23,3,6,1
1532075336591,-9,-17,-34,7,7,-2,-6,-4
1532075336596,-4,-9,6,13,-36,-11,-4,-2
1532075336601,1,2,12,18,-14,-12,0,-2
1532075336606,-5,-10,-18,-27,-42,-15,-7,0
1532075336611,4,20,0,7,25,7,6,4
1532075336616,-6,-11,-27,2,38,12,2,-7
1532075336621,-2,-17,-15,22,17,-9,-5,5
1532075336626,-5,-20,-22,-20,-23,-6,-7,-6
1532075336631,4,16,31,13,-3,4,2,3
1532075336636,13,46,-22,-24,20,12,-1,-1
1532075336641,-9,-47,-11,-6,-28,-2,3,0
1532075336646,-6,-7,11,30,17,-23,-4,-5
1532075336651,-8,-15,-13,1,-48,2,0,-4
1532075336656,8,8,3,18,35,2,5,9
1532075336661,9,29,3,-14,37,23,9,1
1532075336666,0,1,-5,-5,-36,12,1,5
1532075336671,-4,-13,22,-4,6,-7,-1,-8
1532075336676,1,9,4,2,-17,-4,-4,-2
1532075336681,-6,-8,13,1,-2,-11,-9,-7
1532075336686,1,7,10,-10,14,-7,-2,-1
1532075336691,13,56,35,67,107,3,-1,1
1532075336696,-11,-45,-25,-41,-106,-20,-7,0
1532075336701,-17,-53,1,-15,-10,-2,0,-6
1532075336706,-2,-1,5,-6,-15,3,-1,-3
1532075336711,-5,-15,1,-32,-15,-17,-6,-1
1532075336716,2,34,15,9,56,11,-2,-1
1532075336721,35,39,5,6,1,12,8,14
1532075336726,-9,-12,6,-2,-17,-15,4,-9
1532075336731,-30,-19,-15,-6,10,8,-27,-4
1532075336736,6,7,15,22,5,8,14,1
1532075336741,-7,5,-3,-9,-26,-18,-17,-2
1532075336746,10,4,-4,15,30,15,15,1
1532075336751,5,-10,-7,-15,-6,20,12,4
1532075336756,-6,-11,1,-1,0,-4,-6,-1
1532075336761,4,14,0,-5,7,14,10,5
1532075336766,-1,7,-1,6,-2,-24,-21,-4
1532075336771,-3,-16,-8,-8,-26,-3,6,-4
1532075336776,0,-3,2,-6,5,1,-4,2
1532075336781,-4,8,-7,-21,7,-3,-11,-9
1532075336786,-6,-1,8,49,2,4,5,3
1532075336791,2,-11,-9,-33,-16,-12,-5,0
1532075336796,-2,-1,2,-2,-7,-5,-7,-4
1532075336801,-1,5,5,19,9,4,12,7
1532075336806,2,0,-1,1,9,19,-2,1
1532075336811,-2,-9,-15,-19,-18,-13,-30,-9
1532075336816,1,4,9,5,30,2,15,0
1532075336821,0,4,3,-6,-30,-9,-4,-3
1532075336826,-1,3,-6,-5,10,25,10,1
1532075336831,5,2,8,10,1,-3,-2,3
1532075336836,-10,-36,-15,-14,-23,-19,-16,-6
1532075336841,-2,0,1,7,6,0,6,-1
1532075336846,2,3,-11,-8,10,7,2,1
1532075336851,-2,4,5,7,-4,-4,4,0
1532075336856,-1,3,-2,-4,6,2,3,0
1532075336861,0,3,-3,12,4,-6,2,-1
1532075336866,1,-2,-5,-4,-3,-1,-5,3
1532075336871,-2,-4,0,-7,2,3,-1,2
1532075336876,-1,5,2,4,-7,5,-3,-4
1532075336881,2,0,3,5,10,-3,-6,-3
1532075336886,1,11,-5,-17,-15,-13,-10,-2
1532075336891,0,2,-5,10,29,13,13,2
1532075336896,-1,-16,-2,-7,-26,0,-4,0
1532075336901,-8,-10,2,2,2,1,-1,-6
1532075336906,-4,-10,0,-4,-2,-15,-13,-5
1532075336911,3,0,-6,-7,-4,2,0,0
1532075336916,2,15,8,25,8,-3,7,2
1532075336921,2,4,-4,1,-15,2,3,-1
1532075336926,-1,-7,-8,-24,-1,8,5,6
1532075336931,-1,-3,8,12,-8,-11,-1,1
1532075336936,-1,4,3,16,22,-3,-11,-5
1532075336941,1,2,-4,-14,-14,-3,-1,-1
1532075336946,-1,1,0,8,-4,-2,-8,-2
1532075336951,1,-1,2,-15,-8,-3,1,-2
1532075336956,-1,-5,-21,-7,3,8,12,6
1532075336961,0,-5,11,10,20,9,-14,1
1532075336966,-2,-7,-23,-15,0,-6,-1,-4
1532075336971,-6,-14,13,8,-6,-10,9,-9
1532075336976,-1,5,3,-13,-6,2,-1,-3
1532075336981,0,6,-2,0,-2,-18,-20,-2
1532075336986,3,1,6,0,10,-3,-1,2
1532075336991,3,3,-12,4,-8,14,6,3
1532075336996,0,6,14,5,3,-3,-1,1
1532075337001,-6,-15,-11,-10,0,-15,-1,-4
1532075337006,-7,-5,16,11,-8,7,-4,-5
1532075337011,-2,-5,-10,2,-1,2,7,0
1532075337016,2,9,8,5,20,3,-7,-2
1532075337021,4,5,2,-7,-11,3,2,0
1532075337026,-3,-4,-6,-19,-30,-27,-23,-2
1532075337031,0,1,2,14,-6,-8,12,0
1532075337036,1,0,-7,-10,0,12,12,9
1532075337041,0,4,9,10,29,13,10,0
1532075337046,0,-3,-2,8,12,2,-6,0
1532075337051,0,1,5,-15,-18,-1,-7,3
1532075337056,-3,-6,-3,3,-1,-16,-18,-6
1532075337061,0,-1,-6,7,16,-12,-4,-3
1532075337066,2,8,7,-9,-7,19,18,4
1532075337071,0,3,-4,-6,-18,2,-4,-2
1532075337076,-1,-6,-7,-10,-13,-15,-9,-5
1532075337081,-2,2,11,6,3,9,6,1
1532075337086,-2,-11,-1,8,-2,-9,6,-4
1532075337091,-1,-1,-11,4,13,5,4,-2
1532075337096,0,-5,3,4,9,13,3,0
1532075337101,0,2,-10,-15,-15,0,2,0
1532075337106,2,11,3,4,28,-8,1,-2
1532075337111,2,-2,-6,-7,2,2,9,1
1532075337116,1,5,13,12,-36,-13,-10,-4
1532075337121,2,1,-12,-6,-13,-3,1,5
1532075337126,0,1,14,9,6,7,6,-2
1532075337131,-1,-1,0,-7,3,-6,-10,0
1532075337136,-4,-2,-7,-10,-7,-12,-5,0
1532075337141,-1,-1,-3,1,1,13,-1,-2
1532075337146,1,-3,0,2,-6,0,7,2
1532075337151,-3,-5,-4,-2,9,1,-12,-3
1532075337156,-2,4,19,17,5,4,4,-4
1532075337161,-1,-3,-20,-9,-7,3,0,1
1532075337166,0,6,3,4,1,2,0,4
1532075337171,-1,-7,-11,-9,-3,4,5,-5
1532075337176,-1,-10,-16,2,7,-1,3,-1
1532075337181,0,4,8,-7,-4,-7,-3,-2
1532075337186,-2,-2,0,13,48,7,-2,0
1532075337191,-1,2,-4,-10,-45,-8,4,0
1532075337196,-3,1,0,-3,11,-4,1,5
1532075337201,-1,-3,1,-6,-14,4,11,1
1532075337206,2,7,-11,-9,-6,-6,0,1
1532075337211,-2,-13,17,15,1,-4,-9,-4
1532075337216,-2,-2,-10,-3,8,8,6,-3
1532075337221,-1,-1,9,0,-2,-3,3,-2
1532075337226,-3,1,4,3,-6,0,-12,-5
1532075337231,-2,-6,-20,-3,9,0,16,-2
1532075337236,1,3,1,-10,-17,-9,-2,1
1532075337241,-3,0,6,10,18,-2,0,-5
1532075337246,1,-2,-8,-11,-14,9,5,-2
1532075337251,-2,-3,11,15,-2,-6,-8,2
1532075337256,-1,-3,-10,-16,-4,2,-11,-1
1532075337261,-4,0,-3,7,3,-7,-5,-5
1532075337266,0,-5,-7,-8,12,-4,-1,1
1532075337271,-2,1,1,-3,2,4,-3,0
1532075337276,1,4,-6,-7,-22,-6,-1,-2
1532075337281,0,-4,11,3,-7,0,-4,0
1532075337286,-2,0,-4,-3,-1,-5,0,-1
1532075337291,-1,0,2,3,10,-7,-12,8
1532075337296,6,-1,-6,-2,12,21,7,4
1532075337301,-2,3,2,10,13,6,-1,-3
1532075337306,-2,-1,1,1,-3,3,7,2
1532075337311,2,5,-7,-5,-2,-22,-19,-5
1532075337316,-2,-4,1,-8,-12,-5,-4,0
1532075337321,2,0,-6,2,12,14,2,2
1532075337326,0,1,5,10,23,8,1,-3
1532075337331,-3,0,-8,-16,-33,-8,1,-1
1532075337336,0,3,-6,-3,-7,-10,-2,-1
1532075337341,-4,-7,4,-1,-5,-12,-8,-1
1532075337346,-2,-7,-3,0,-12,-12,-8,-3
1532075337351,0,-3,-8,1,33,12,4,-3
1532075337356,-1,-2,15,8,-8,-3,-2,2
1532075337361,-1,0,-12,-7,14,0,-10,2
1532075337366,0,-3,-8,-17,-49,-5,4,-1
1532075337371,0,8,8,1,9,0,-2,1
1532075337376,-2,-5,1,5,7,-2,-2,-2
1532075337381,-2,-3,-4,1,3,-2,-4,0
1532075337386,-2,-1,-4,-8,-2,4,12,-3
1532075337391,-3,-6,4,7,-10,-1,-2,-4
1532075337396,-2,0,-14,-10,4,-5,-6,-2
1532075337401,0,0,3,1,-6,0,6,0
1532075337406,2,2,2,6,4,-4,-4,3
1532075337411,1,7,3,-10,-8,8,2,1
1532075337416,1,5,9,11,5,5,1,-1
1532075337421,-4,-9,-3,-5,-24,-9,-14,-11
1532075337426,-7,-5,-9,8,44,-7,-9,-4
1532075337431,-3,-8,-1,-1,-36,8,5,-2
1532075337436,0,-1,9,9,8,7,1,0
1532075337441,5,7,-3,-8,-4,0,6,1
1532075337446,0,2,11,-3,-14,-4,-4,2
1532075337451,-1,0,3,8,21,-6,7,-2
1532075337456,-1,-2,-5,2,6,9,10,-1
1532075337461,1,5,0,-7,-8,-2,5,-5
1532075337466,0,6,-4,0,6,7,-1,2
1532075337471,0,-4,-8,8,8,-9,-3,5
1532075337476,-5,-18,15,5,9,-12,4,-2
1532075337481,-1,-3,-19,-7,-17,3,-1,2
1532075337486,-1,-2,18,8,-10,1,-3,-4
1532075337491,1,4,-16,-15,7,12,4,-3
1532075337496,0,7,-10,-5,-2,4,9,-5
1532075337501,0,-2,3,7,21,4,4,5
1532075337506,-1,-5,-6,-4,-7,-3,1,0
1532075337511,-2,3,6,-2,-4,4,3,2
1532075337516,0,-1,-14,-7,17,-8,-4,2
1532075337521,0,-1,13,7,-32,-15,-23,-5
1532075337526,0,-1,-3,6,-16,2,0,-2
1532075337531,-2,-5,-6,2,24,-1,2,2
1532075337536,0,1,1,-3,7,8,5,-1
1532075337541,-1,6,-3,-3,12,0,-2,-2
1532075337546,-2,-2,-2,0,-4,-1,-9,-4
1532075337551,0,1,11,2,-3,-6,-3,-8
1532075337556,0,0,-15,-8,-14,5,-4,2
1532075337561,0,-1,4,-2,-7,0,7,3
1532075337566,0,4,2,6,3,-2,4,-5
1532075337571,0,-5,4,3,0,-8,-10,-4
1532075337576,-1,7,-5,-9,-2,4,-4,5
1532075337581,0,-1,-9,8,19,-3,0,1
1532075337586,-5,-5,2,-17,-18,-2,0,2
1532075337591,-1,3,-1,-2,-3,-5,-1,5
1532075337596,1,-1,-3,11,28,-7,-11,-5
1532075337601,1,-3,3,-9,-25,13,10,7
1532075337606,1,2,-6,-1,13,-5,0,4
1532075337611,0,-4,-14,-22,-52,-9,-20,4
1532075337616,0,4,5,-4,-10,-4,-7,-8
1532075337621,2,4,-3,0,-1,-1,7,2
1532075337626,-2,-6,-3,-1,-7,-7,-6,-1
1532075337631,-1,1,-2,-4,13,3,5,-1
1532075337636,0,3,5,-9,-19,-6,-2,0
1532075337641,-3,1,-7,6,0,-8,-7,-7
1532075337646,-1,-9,5,-3,-7,9,-6,7
1532075337651,-1,2,-6,6,18,14,12,-1
1532075337656,-3,-6,6,2,6,0,5,7
1532075337661,-1,0,-3,-11,-21,-13,-12,-4
1532075337666,-1,-2,-4,-3,-20,-17,-8,4
1532075337671,3,2,3,10,29,14,-2,3
1532075337676,1,-4,-14,-8,-23,1,0,0
1532075337681,0,-1,5,4,5,-2,-10,-9
1532075337686,-3,-3,-1,-3,-9,0,7,2
1532075337691,0,3,4,0,4,5,7,-1
1532075337696,2,4,4,16,15,-8,-4,-2
1532075337701,-1,-5,-14,-14,-12,5,5,5
1532075337706,0,1,6,6,6,-2,-4,-2
1532075337711,-3,-3,-8,-6,-9,-15,-18,3
1532075337716,1,1,-11,-3,8,0,8,8
1532075337721,-2,-1,16,7,1,20,-3,-3
1532075337726,3,3,3,6,22,5,7,3
1532075337731,0,-2,-7,-17,-18,-8,-16,-4
1532075337736,-2,3,5,9,-8,2,-5,-10
1532075337741,-2,-10,0,4,18,-5,-1,3
1532075337746,-2,1,-12,-7,-6,-5,6,-5
1532075337751,-1,1,9,6,2,6,3,0
1532075337756,1,-3,-1,-9,-12,-2,1,-2
1532075337761,0,3,0,-1,6,-2,-5,-3
1532075337766,0,1,1,3,-7,4,-2,-4
1532075337771,-2,-3,-3,9,52,-6,3,0
1532075337776,-3,-3,-3,-4,10,0,-4,0
1532075337781,-3,-1,3,6,-3,2,1,-5
1532075337786,-1,-6,-8,-8,0,4,4,-1
1532075337791,-1,-1,0,-5,10,-5,-6,-3
1532075337796,1,3,6,2,-9,-10,-10,1
1532075337801,0,-1,-14,-1,1,5,12,-1
1532075337806,-1,-2,7,5,8,-2,-10,-6
1532075337811,-2,0,-4,-1,-1,-5,-2,-1
1532075337816,0,0,-6,5,6,2,0,0
1532075337821,1,-11,4,1,-3,6,3,2
1532075337826,-2,0,4,-4,3,0,-4,2
1532075337831,-3,3,0,-4,9,2,-7,-5
1532075337836,3,3,9,0,-7,-5,-4,1
1532075337841,-1,6,5,-3,-11,-11,-7,-4
1532075337846,-4,-5,-6,5,34,11,6,3
1532075337851,4,-1,3,9,-37,2,7,5
1532075337856,-2,1,1,-6,-3,-1,1,-1
1532075337861,1,-3,-7,-6,0,-1,1,-4
1532075337866,0,-3,9,3,17,-1,-7,-1
1532075337871,-1,0,-16,-17,-14,-5,11,-4
1532075337876,1,1,15,7,2,10,4,-3
1532075337881,0,3,3,6,-9,-4,1,-1
1532075337886,1,0,2,-5,1,-4,-1,-5
1532075337891,-1,-5,-11,-2,12,-3,0,5
1532075337896,-4,-6,-6,0,-6,-5,-10,-5
1532075337901,0,2,5,0,-3,-5,-14,3
1532075337906,1,3,-4,7,4,15,16,6
1532075337911,1,2,17,-2,9,4,-4,3
1532075337916,-1,-3,-10,5,4,-5,-1,-2
1532075337921,-4,5,1,-5,7,-2,-1,-3
1532075337926,-1,-9,15,7,-37,-21,-8,-2
1532075337931,-3,-6,-16,-8,-4,-4,2,-6
1532075337936,0,-4,-4,-6,1,6,8,2
1532075337941,-3,1,-2,3,4,8,7,-6
1532075337946,-1,3,-12,-7,24,4,-2,-3
1532075337951,-1,-3,-8,-8,-26,-7,-14,-3
1532075337956,-1,0,10,-5,-6,-12,-10,-5
1532075337961,0,-1,-1,-1,-16,3,1,-1
1532075337966,0,-2,1,6,2,1,6,1
1532075337971,-4,-2,7,3,11,-7,-5,-6
1532075337976,-3,2,-9,-5,1,16,7,-3
1532075337981,-1,-7,-1,-1,4,-5,8,5
1532075337986,0,3,-7,-9,-8,1,-1,0
1532075337991,1,4,27,14,16,1,1,4
1532075337996,2,-1,-15,-5,-17,-10,-5,-2
1532075338001,0,1,14,0,0,-4,4,-2
1532075338006,-6,-6,-15,-5,1,6,2,-3
1532075338011,0,3,7,23,28,12,10,1
1532075338016,0,1,-1,-9,-3,4,3,3
1532075338021,1,-1,-2,-3,0,-1,-7,-8
1532075338026,1,-4,-15,-5,-7,-2,-2,0
1532075338031,3,2,5,-4,-8,-10,-10,-4
1532075338036,0,-5,-5,8,25,8,-3,1
1532075338041,0,1,-1,-7,-29,-5,-2,-1
1532075338046,0,3,6,-2,-7,-6,-1,-2
1532075338051,-3,1,-5,0,-1,-9,-9,0
1532075338056,-4,-2,-2,4,-4,-1,-1,1
1532075338061,3,2,-6,0,7,12,19,13
1532075338066,1,-1,4,2,-11,0,-4,-2
1532075338071,0,-3,0,6,25,9,8,4
1532075338076,-1,0,-2,-7,-17,-12,-4,-5
1532075338081,-2,-2,-5,3,1,-1,-6,-1
1532075338086,-1,2,7,3,-2,-2,-1,5
1532075338091,0,2,-9,-9,-1,-4,-3,0
1532075338096,-2,-3,5,6,3,6,12,3
1532075338101,-2,-3,-7,-4,-6,-8,-2,-2
1532075338106,-3,-2,13,4,3,-6,0,3
1532075338111,-2,-2,-11,-5,-9,-7,0,-1
1532075338116,1,0,-2,-11,-10,-4,-2,-1
1532075338121,2,2,4,8,12,3,-1,2
1532075338126,-2,-3,-2,-9,3,14,4,1
1532075338131,-2,0,-3,2,12,6,4,-1
1532075338136,3,6,7,8,7,3,3,1
1532075338141,-4,-15,-14,-13,-19,-3,-8,-5
1532075338146,-1,2,-5,0,-12,-17,-9,-2
1532075338151,0,-2,0,-7,1,-3,1,0
1532075338156,-1,1,3,-3,-10,-5,-5,-2
1532075338161,-2,3,-1,13,15,5,-6,0
1532075338166,2,0,0,-4,3,12,14,4
1532075338171,0,-5,-3,-2,-4,5,1,-2
1532075338176,-2,-5,-6,0,8,-6,-3,-1
1532075338181,-1,2,8,6,-11,0,-3,-3
1532075338186,-1,1,4,-5,5,-6,-8,-3
1532075338191,0,2,-20,-7,-5,-1,1,4
1532075338196,-3,-6,0,-8,-9,-6,0,-3
1532075338201,-1,-3,-5,4,20,1,-4,-1
1532075338206,-1,3,0,1,-31,-8,-5,-7
1532075338211,1,4,10,-1,-7,-11,-10,-2
1532075338216,2,1,-2,3,1,13,16,3
1532075338221,2,4,-4,-6,12,9,4,6
1532075338226,-1,-3,6,0,11,2,6,-4
1532075338231,-2,-5,-2,1,-9,-15,-17,-4
1532075338236,-1,-1,-6,-2,-3,-4,-2,0
1532075338241,1,5,9,2,-1,0,5,0
1532075338246,-1,-10,-10,3,-2,-3,-6,-1
1532075338251,-1,0,4,4,0,0,1,0
1532075338256,0,0,7,2,11,4,-2,0
1532075338261,-4,-4,-8,-3,-6,0,-1,-5
1532075338266,0,-1,-3,0,-2,-10,-5,-3
1532075338271,-4,-5,-2,-12,-8,-5,0,-4
1532075338276,-4,-2,0,2,-2,-10,-10,-4
1532075338281,1,-1,-1,-11,-4,14,8,2
1532075338286,1,2,-3,4,10,7,2,3
1532075338291,1,4,4,5,9,10,3,2
1532075338296,-2,0,9,0,-17,-11,-7,-3
1532075338301,-3,-2,-7,-10,-8,-11,-9,-4
1532075338306,0,-2,6,6,-4,0,-2,-3
1532075338311,-1,0,-2,-3,19,11,7,2
1532075338316,-3,-3,-10,-2,1,7,2,-2
1532075338321,-1,1,11,5,3,-1,-1,-2
1532075338326,0,-2,-11,-7,2,-5,-7,0
1532075338331,1,0,0,4,-1,2,3,-1
1532075338336,4,8,2,-1,0,-2,3,1
1532075338341,-1,-12,6,5,-2,-7,-3,-2
1532075338346,-1,0,-1,-7,1,-3,-2,-1
1532075338351,0,-2,-1,-4,-9,-5,-3,0
1532075338356,-5,-3,-7,1,5,3,-3,-3
1532075338361,0,7,3,4,1,1,1,0
1532075338366,4,5,0,3,-4,2,-2,4
1532075338371,-1,-1,-1,-2,5,7,2,1
1532075338376,0,-5,0,3,1,-8,-7,-9
1532075338381,-9,0,-6,-5,-10,-12,-5,-4
1532075338386,-1,-1,0,-6,5,11,-3,-1
1532075338391,4,7,0,2,-8,-2,-5,0
1532075338396,13,3,2,11,12,2,-9,10
1532075338401,-9,-11,-3,5,-1,-4,-24,8
1532075338406,-7,-2,1,4,5,2,-18,-11
1532075338411,-1,-1,1,-3,-15,1,3,-2
1532075338416,-2,1,-2,-12,-2,-9,3,-1
1532075338421,3,2,-1,-19,3,-4,12,-6
1532075338426,5,2,5,26,4,-5,16,10
1532075338431,4,1,0,-6,6,8,13,3
1532075338436,-8,-12,-1,15,6,-4,10,-14
1532075338441,-3,1,-2,-14,-13,-10,5,0
1532075338446,5,19,3,-20,-18,-3,8,-4
1532075338451,5,24,15,9,2,6,12,6
1532075338456,-34,-53,-36,-7,-5,-3,-9,2
1532075338461,-2,-10,11,30,14,-3,-2,-10
1532075338466,7,-5,-6,1,-1,7,3,5
1532075338471,-4,5,5,1,1,-6,-5,0
1532075338476,-21,-24,-6,14,16,8,4,-4
1532075338481,-5,-8,-19,-24,-23,-16,-13,-6
1532075338486,0,0,-15,12,20,2,3,7
1532075338491,-2,-13,-24,-16,-6,0,-1,7
1532075338496,4,15,-8,-18,4,1,-2,-5
1532075338501,13,19,1,-28,1,17,8,-2
1532075338506,-16,-26,-5,58,-5,-18,-14,1
1532075338511,-4,-10,-4,15,-14,-6,-3,-5
1532075338516,17,15,5,7,-9,-2,6,19
1532075338521,-2,0,-1,-7,5,0,-6,-18
1532075338526,-5,3,0,-35,-1,-5,-11,-10
1532075338531,8,-10,-14,-6,2,-14,-6,-1
1532075338536,-3,-10,4,8,-2,11,4,-2
1532075338541,13,7,-2,22,7,16,14,17
1532075338546,-5,-4,0,6,8,5,-5,-11
1532075338551,-18,-4,9,10,2,-11,-8,-8
1532075338556,30,20,-1,-11,-7,-7,0,18
1532075338561,-15,-21,0,-4,10,8,4,6
1532075338566,-1,-2,-14,-12,-6,-3,-5,-16
1532075338571,-3,-12,11,15,5,2,3,14
1532075338576,4,11,-13,12,6,-4,-5,-13
1532075338581,-14,-12,7,-28,-6,-14,-15,-25
1532075338586,6,7,1,-18,-23,-5,-1,4
1532075338591,-3,-9,-11,6,7,3,3,-1
1532075338596,3,1,11,-5,4,8,16,23
1532075338601,5,7,-5,22,-3,4,3,-7
1532075338606,1,4,8,10,4,-12,-4,-8
1532075338611,-7,-20,-37,-43,-31,-12,-13,-10
1532075338616,-4,1,9,20,20,18,-5,1
1532075338621,21,5,-12,-7,8,11,16,24
1532075338626,13,9,1,10,20,23,28,22
1532075338631,-23,-6,34,9,-5,-22,-11,-32
1532075338636,-22,-10,-20,-30,-25,-21,-22,-35
1532075338641,4,1,-3,-2,-5,8,-3,5
1532075338646,6,7,7,3,11,6,-5,11
1532075338651,8,3,-7,3,4,2,9,17
1532075338656,2,0,-2,-4,-11,-16,-13,0
1532075338661,-2,3,9,-4,-9,-21,-12,-6
1532075338666,-7,-7,1,-1,-5,10,-7,-6
1532075338671,2,3,-9,-22,13,21,14,-1
1532075338676,1,-3,-2,-3,6,8,13,-1
1532075338681,0,5,1,24,4,2,0,6
1532075338686,-2,-4,-9,-28,-24,-23,-12,-3
1532075338691,-2,-4,3,-7,-12,-9,-11,-7
1532075338696,-2,-2,-1,-15,-2,-1,11,0
1532075338701,5,4,-15,-5,3,8,13,14
1532075338706,0,4,41,-24,-6,-7,-8,-2
1532075338711,-7,-6,-16,1,-6,-48,-39,-17
1532075338716,-3,-3,3,37,-1,22,5,-1
1532075338721,14,13,-1,17,10,22,28,22
1532075338726,-1,-10,-12,-9,9,14,-1,-20
1532075338731,0,8,14,8,8,8,4,-9
1532075338736,10,4,5,-13,-8,-15,0,23
1532075338741,-1,7,3,-10,0,-1,15,-11
1532075338746,-2,-2,-10,11,12,4,8,1
1532075338751,-1,-1,1,15,-4,0,3,6
1532075338756,-4,-11,-4,-4,-24,-18,-24,-14
1532075338761,7,7,6,21,1,3,1,11
1532075338766,-1,1,-3,-17,-2,-4,4,10
1532075338771,1,1,-1,15,9,17,-2,3
1532075338776,-3,10,23,8,2,-6,-7,2
1532075338781,-12,-16,-8,-13,-2,-1,-6,-22
1532075338786,0,-1,-4,19,12,-6,-9,-6
1532075338791,-2,1,-3,-8,-5,19,8,2
1532075338796,6,6,5,-1,8,8,3,8
1532075338801,-1,-8,-8,-30,-23,-17,-18,12
1532075338806,0,2,3,2,0,1,-3,-12
1532075338811,-2,-3,-3,5,-2,2,-13,-14
1532075338816,4,2,3,-16,-4,-12,-9,-5
1532075338821,-5,6,4,-3,2,-4,-15,-12
1532075338826,10,14,5,14,1,3,1,17
1532075338831,-23,-37,-22,-2,3,6,15,15
1532075338836,-8,-8,-3,29,-8,-12,6,-18
1532075338841,-9,-6,2,-13,8,6,-6,-12
1532075338846,-7,6,-7,-2,2,6,6,5
1532075338851,19,6,6,-6,10,3,3,3
1532075338856,14,0,-5,-13,3,-1,-2,2
1532075338861,7,17,1,-6,-7,-7,-5,4
1532075338866,-3,-3,-1,9,-20,-13,4,-1
1532075338871,-2,4,1,2,6,12,10,0
1532075338876,2,-7,-7,-3,-1,3,-3,1
1532075338881,-19,-2,3,-11,-3,-4,-4,-12
1532075338886,9,19,-3,-3,12,9,5,1
1532075338891,1,-20,-8,15,-9,-3,-3,2
1532075338896,7,16,18,5,6,-5,-1,4
1532075338901,-6,41,10,-7,5,2,6,-1
1532075338906,-13,-96,-6,14,4,4,5,3
1532075338911,0,-19,-14,-11,0,3,-1,6
1532075338916,-27,-13,-11,-15,-5,-3,-18,-23
1532075338921,19,8,0,14,-5,-18,-29,2
1532075338926,-5,21,20,-2,-13,-11,-4,11
1532075338931,25,22,-6,0,4,-2,-10,-6
1532075338936,-21,-8,-10,12,7,13,2,-2
1532075338941,1,2,6,9,14,6,22,2
1532075338946,7,13,-14,-1,16,10,11,3
1532075338951,10,-8,20,5,3,2,14,8
1532075338956,-5,25,-8,-4,-3,-6,3,-2
1532075338961,-43,-27,-9,-9,-19,-13,-5,-8
1532075338966,36,-25,-9,17,-10,-13,-7,-8
1532075338971,4,28,1,-14,-11,-7,-2,-4
1532075338976,-1,-10,2,10,-4,1,5,5
1532075338981,17,-1,2,-12,-5,4,-4,2
1532075338986,-14,-8,0,-6,6,-2,8,-1
1532075338991,21,-2,7,-14,-12,6,8,1
1532075338996,2,15,0,9,14,5,-3,2
1532075339001,13,4,2,-11,-19,-9,-8,8
1532075339006,-28,-25,-6,-1,4,-4,-8,-12
1532075339011,-25,0,8,23,-4,-1,0,-9
1532075339016,1,2,-9,-11,-2,1,6,-5
1532075339021,-40,6,0,1,21,13,13,4
1532075339026,29,-40,-6,1,-5,-5,-1,-1
1532075339031,-5,-10,-6,-28,-11,-16,-9,-8
1532075339036,-12,1,4,25,-23,-9,3,1
1532075339041,11,7,-8,7,28,13,6,1
1532075339046,-4,-5,18,-16,-7,7,6,4
1532075339051,-4,8,-19,5,11,2,1,2
1532075339056,1,-4,-7,-11,-13,-9,-7,2
1532075339061,-7,-41,0,-1,-6,-8,-10,-7
1532075339066,3,12,1,-6,-8,2,-3,6
1532075339071,32,1,-5,-1,8,0,3,6
1532075339076,-8,11,0,3,-6,-6,-5,-8
1532075339081,-5,7,1,-13,-3,3,-9,-10
1532075339086,13,12,-9,3,4,2,-4,-6
1532075339091,-14,-8,4,16,-3,-2,-1,-1
1532075339096,16,11,4,-4,-3,2,7,18
1532075339101,-1,-7,1,-15,5,5,1,-8
1532075339106,4,2,-18,1,-6,-9,-7,-4
1532075339111,9,-5,3,7,2,2,7,14
1532075339116,8,3,3,-3,5,9,15,34
1532075339121,-5,1,4,-7,-2,-3,-9,-30
1532075339126,-21,0,-1,8,-5,-14,-24,-36
1532075339131,0,-8,-2,0,-6,-4,-7,-7
1532075339136,-5,-4,1,-5,3,-4,-6,-4
1532075339141,12,8,1,-2,-3,-7,5,27
1532075339146,-13,5,4,6,0,6,7,7
1532075339151,2,-5,-3,-2,12,14,6,-4
1532075339156,2,6,-2,-2,1,13,3,-4
1532075339161,-9,-3,-2,-2,11,4,4,-2
1532075339166,43,22,5,-4,-5,-7,-1,13
1532075339171,-9,-9,1,-4,-7,-3,7,16
1532075339176,-24,-5,-4,3,-6,-13,-18,-45
1532075339181,-16,-7,-1,2,-12,-6,-8,-8
1532075339186,16,6,-5,-6,-1,-6,1,3
1532075339191,0,4,1,1,1,6,-3,2
1532075339196,4,-2,6,2,2,1,6,9
1532075339201,19,-1,3,-1,-2,-1,-3,2
1532075339206,-24,8,1,1,2,3,3,1
1532075339211,4,2,8,13,-1,-2,4,8
1532075339216,-9,-6,2,4,10,2,-3,-18
1532075339221,5,16,3,-1,-2,1,-6,-2
1532075339226,-2,-13,-12,23,-8,0,3,6
1532075339231,-1,-6,-3,8,5,-2,-5,-9
1532075339236,0,5,-15,-18,-9,-4,0,9
1532075339241,6,-1,19,5,-1,-4,2,2
1532075339246,1,2,5,-15,5,6,4,-1
1532075339251,1,2,1,3,3,-2,-6,-10
1532075339256,2,-2,-9,3,-1,-3,-4,1
1532075339261,7,6,-11,-6,-5,3,6,10
1532075339266,-7,-18,-13,-4,5,1,3,3
1532075339271,-2,2,2,14,-11,-7,-3,-4
1532075339276,-1,-3,1,-12,-7,-3,-4,-1
1532075339281,-6,-4,-8,-8,-2,-6,-7,-2
1532075339286,0,1,6,3,-6,-5,-3,-5
1532075339291,3,3,-8,18,7,3,2,5
1532075339296,0,-9,-10,-52,0,12,5,-6
1532075339301,-2,-4,-12,-17,14,10,-1,-5
1532075339306,-16,1,9,29,8,-2,1,-1
1532075339311,-1,-6,-2,-32,-20,-11,-6,-4
1532075339316,5,-1,7,62,-11,-15,-6,3
1532075339321,-5,-8,0,-9,-9,-7,2,2
1532075339326,7,4,-2,-24,1,6,4,3
1532075339331,3,2,-4,-18,4,3,2,-1
1532075339336,-3,-1,1,-16,0,1,-6,-5
1532075339341,-7,-5,-5,6,-6,-5,-4,-2
1532075339346,5,0,0,0,-2,-2,1,2
1532075339351,-3,-1,-1,-5,3,-3,-2,-3
1532075339356,8,8,8,-2,7,11,6,7
1532075339361,-3,-5,-9,23,-8,-3,3,-5
1532075339366,0,-2,3,-4,-12,-13,-14,-5
1532075339371,0,-2,-1,0,-13,-7,-1,-4
1532075339376,2,3,0,-3,20,16,6,1
1532075339381,-2,4,9,7,6,7,3,5
1532075339386,1,-3,-20,-2,11,4,5,1
1532075339391,9,13,18,-6,-6,-4,-2,0
1532075339396,11,0,5,27,-3,-9,1,8
1532075339401,-13,-11,-4,-13,-1,-1,-2,-10
1532075339406,-5,-5,-10,-10,0,3,-3,-6
1532075339411,5,-10,-3,9,7,0,-3,-1
1532075339416,-2,4,-1,-10,-13,-7,-3,2
1532075339421,12,6,-4,-5,-3,-7,-1,7
1532075339426,-31,-8,6,-2,-2,12,3,-9
1532075339431,14,-3,-2,12,8,6,5,2
1532075339436,-8,3,0,-5,2,-2,-1,-6
1532075339441,6,4,-1,1,0,-1,8,2
1532075339446,6,4,7,-2,-3,-2,-8,1
1532075339451,-1,-1,-1,-6,-4,-2,-7,-3
1532075339456,-23,-8,-5,-2,-7,-4,-6,-8
1532075339461,-5,-2,0,-2,1,1,-1,1
1532075339466,5,7,4,2,2,5,8,2
1532075339471,6,0,-4,3,6,4,0,2
1532075339476,5,-1,-5,-21,-6,-7,-5,-1
1532075339481,-4,-5,4,5,-3,-5,-4,-3
1532075339486,7,2,-1,-7,-2,-2,1,2
1532075339491,-3,2,-3,0,3,1,-2,4
1532075339496,-4,-3,2,0,-5,-4,-2,-10
1532075339501,-6,-2,-4,7,1,4,1,2
1532075339506,17,6,2,1,-3,1,5,10
1532075339511,-2,5,-1,-5,5,-5,-14,-29
1532075339516,-18,-24,7,22,4,0,1,8
1532075339521,2,-14,-23,-25,-14,-9,-8,-19
1532075339526,3,1,2,-9,-2,3,-3,4
1532075339531,-6,6,1,17,-4,1,4,9
1532075339536,9,14,7,-6,6,4,5,3
1532075339541,14,4,5,26,6,2,0,10
1532075339546,0,-5,1,2,1,-9,-1,2
1532075339551,-12,-3,4,-14,-6,-4,-1,-5
1532075339556,8,2,-12,-25,-3,5,2,0
1532075339561,-9,0,16,7,2,6,0,4
1532075339566,5,5,-7,18,2,0,0,-3
1532075339571,-5,-10,-7,-15,-4,-3,-2,1
1532075339576,3,2,-2,6,-2,-7,-3,0
1532075339581,-1,17,0,-7,-6,-5,-3,0
1532075339586,-9,-24,-4,-3,-3,-1,-1,-2
1532075339591,-4,-13,-3,8,5,-1,-2,-11
1532075339596,-4,-5,1,4,4,-2,-8,-12
1532075339601,-7,-1,-13,-10,-2,2,0,-3
1532075339606,4,5,10,2,-10,-1,1,5
1532075339611,0,0,-4,5,-3,4,7,12
1532075339616,2,-4,-9,-8,-9,0,-2,-4
1532075339621,0,2,10,7,9,0,-2,2
1532075339626,1,7,17,9,-2,-1,2,0
1532075339631,2,1,-19,22,-1,3,5,4
1532075339636,-4,-6,1,4,-10,-4,-4,-3
1532075339641,-2,-1,4,10,1,-1,0,1
1532075339646,0,-4,-7,-8,14,-1,-2,-1
1532075339651,1,7,0,4,9,13,4,-1
1532075339656,4,1,18,17,4,-2,-1,1
1532075339661,0,-2,-7,-4,3,2,2,4
1532075339666,-3,-6,-2,-61,-13,-9,-9,-7
1532075339671,-5,-3,-7,-36,5,-3,-5,-7
1532075339676,-3,-5,-17,-33,-65,-11,-3,1
1532075339681,-2,-2,3,-11,0,-1,0,0
1532075339686,4,10,18,83,27,5,7,3
1532075339691,0,-1,-5,-27,1,-3,0,2
1532075339696,-4,-14,-23,-86,-26,-9,1,9
1532075339701,-4,2,10,28,13,8,4,-15
1532075339706,-10,-4,-11,2,-6,-8,-15,-20
1532075339711,-2,1,16,41,18,3,0,2
1532075339716,5,6,-4,-10,18,3,3,5
1532075339721,1,-2,-3,-8,-12,-1,3,11
1532075339726,3,8,13,48,32,8,5,4
1532075339731,-7,-1,-33,-82,-58,-21,-12,-8
1532075339736,2,1,13,35,21,5,3,3
1532075339741,1,1,13,32,14,0,0,-1
1532075339746,-3,-12,-25,-50,-26,-2,1,-3
1532075339751,-3,0,13,16,-1,1,1,2
1532075339756,22,19,4,17,14,3,-3,-2
1532075339761,-33,-28,-6,8,0,-3,-10,-4
1532075339766,3,5,-1,12,-1,-3,-3,2
1532075339771,0,-2,7,9,10,4,-5,-2
1532075339776,-3,-4,-6,-19,-7,-4,-10,0
1532075339781,10,7,4,6,2,4,3,6
1532075339786,-5,1,-4,-27,0,6,-4,-25
1532075339791,-20,-13,5,12,9,-1,-9,-20
1532075339796,-2,0,3,18,9,2,4,-6
1532075339801,5,1,-9,-15,-17,-10,0,5
1532075339806,1,-2,-6,-15,-17,-2,12,14
1532075339811,6,3,8,20,1,-2,1,-1
1532075339816,-1,5,13,36,21,5,0,0
1532075339821,5,8,4,0,6,5,6,9
1532075339826,-8,-20,-35,-78,-56,-18,-12,-2
1532075339831,3,1,10,28,18,0,5,-2
1532075339836,-1,4,9,6,24,15,7,1
1532075339841,1,-1,-15,12,-9,-8,-4,-7
1532075339846,-5,-6,-4,-26,-20,-17,-7,-7
1532075339851,2,1,-1,-11,-6,0,2,5
1532075339856,-5,-8,-9,-5,-10,-2,3,1
1532075339861,3,5,7,-2,21,16,0,-5
1532075339866,5,11,15,27,29,14,8,6
1532075339871,1,-5,-9,-7,-21,-9,-2,5
1532075339876,-2,-3,0,-6,1,-4,0,-1
1532075339881,-5,-3,6,-12,-6,-10,-8,-23
1532075339886,5,10,2,-2,4,-1,2,4
1532075339891,-11,-23,-22,-45,-19,-3,-1,3
1532075339896,-7,-1,1,26,8,-2,-8,-16
1532075339901,-3,3,10,1,4,0,-3,4
1532075339906,-3,-16,-28,-41,-45,-13,-17,-11
1532075339911,4,8,9,21,12,4,-1,3
1532075339916,3,0,-3,6,-3,-2,0,7
1532075339921,1,-1,3,-1,-1,-2,-4,3
1532075339926,2,8,16,45,28,9,1,3
1532075339931,-3,-10,-18,-21,-19,-9,-5,-2
1532075339936,-3,-7,-8,-13,-8,-5,-2,-3
1532075339941,1,-2,-4,-16,2,-4,-2,-5
1532075339946,2,6,11,30,24,11,7,8
1532075339951,0,2,1,-2,-15,-6,-1,-2
1532075339956,4,1,1,12,9,-3,7,13
1532075339961,5,10,5,-1,2,12,4,-6
1532075339966,-8,-2,3,11,23,13,-5,-13
1532075339971,13,41,13,20,6,3,7,2
1532075339976,-6,-22,1,2,3,12,-2,2
1532075339981,-16,-30,-13,-5,-11,-17,-6,3
1532075339986,-3,10,0,3,-14,-25,-6,0
1532075339991,-10,-58,-8,0,-20,3,5,-6
1532075339996,12,52,9,10,24,21,4,-3
1532075340001,26,68,9,-26,-3,7,10,12
1532075340006,-4,-21,7,6,8,-1,0,0
1532075340011,-32,-67,-10,-5,8,-10,-4,-16
1532075340016,-32,-99,-27,-12,7,-15,-7,-18
1532075340021,-1,5,0,-15,-37,-3,-3,-4
1532075340026,28,54,6,13,-12,-7,0,15
1532075340031,33,86,25,32,6,5,2,16
1532075340036,-8,10,2,-8,4,10,-1,-1
1532075340041,-10,-28,-12,6,31,21,2,-11
1532075340046,2,25,8,4,13,11,5,3
1532075340051,1,-13,1,-6,5,11,1,9
1532075340056,39,98,10,1,-12,-14,-5,7
1532075340061,29,99,10,-3,-11,-15,-5,11
1532075340066,-56,-74,-15,-22,-20,-7,-9,-14
1532075340071,-38,-71,-51,-2,7,-13,-17,-36
1532075340076,22,52,5,1,-10,-2,6,6
1532075340081,12,76,29,-2,2,-1,7,15
1532075340086,-24,-72,-11,-1,0,3,-1,-9
1532075340091,-2,-17,-14,-10,2,0,-5,-1
1532075340096,-20,-51,-10,-4,-11,-11,-9,-9
1532075340101,10,-36,-10,2,-19,-3,0,2
1532075340106,11,61,31,10,24,11,10,3
1532075340111,4,19,13,1,8,3,2,5
1532075340116,6,14,-3,-2,-11,-1,3,3
1532075340121,-19,-58,-2,1,1,-2,-5,-6
1532075340126,-1,6,-10,-8,-10,-5,-1,-5
1532075340131,8,-6,3,-4,-16,-22,-6,3
1532075340136,17,83,21,15,-18,-17,-4,-5
1532075340141,16,64,-2,13,35,36,18,18
1532075340146,-29,-57,-16,-18,3,20,5,-1
1532075340151,-28,-55,-19,9,29,-4,-3,-18
1532075340156,-14,-26,-15,-9,-13,-8,-7,-11
1532075340161,-2,14,5,-5,-63,-48,-14,-10
1532075340166,31,58,4,13,12,20,18,15
1532075340171,15,25,21,-1,7,38,16,15
1532075340176,-17,-34,-6,4,34,4,-1,-8
1532075340181,-10,-58,-11,1,18,-1,-3,-7
1532075340186,18,50,13,-2,-19,-18,-6,4
1532075340191,7,30,12,-3,-3,-8,0,3
1532075340196,8,21,-6,1,-4,2,4,4
1532075340201,-17,-9,2,-7,-1,-2,-6,-5
1532075340206,-19,-93,-17,-1,-7,-10,-10,-11
1532075340211,1,32,28,13,8,4,2,1
1532075340216,4,3,19,8,-2,5,3,6
1532075340221,10,1,-44,-37,-6,-3,-6,1
1532075340226,-19,-45,-15,19,14,-2,-5,-8
1532075340231,61,112,48,33,0,4,6,18
1532075340236,-63,-112,-34,-33,-33,-16,-8,-15
1532075340241,-14,-48,38,5,-1,4,-2,-7
1532075340246,-7,-5,-54,-22,-11,-4,-3,-7
1532075340251,12,3,50,4,20,17,4,6
1532075340256,31,63,33,13,-4,-3,0,8
1532075340261,4,86,57,47,10,2,4,-1
1532075340266,26,-1,-76,-24,-6,-6,-1,10
1532075340271,-45,-69,-22,15,-17,-14,-11,-16
1532075340276,34,29,79,21,10,9,8,10
1532075340281,-12,47,27,-32,-6,-11,-3,1
1532075340286,-70,-25,-67,-8,2,3,-10,-32
1532075340291,13,123,31,-44,-12,-3,3,3
1532075340296,11,7,-8,39,-7,10,3,0
1532075340301,-70,-95,-5,7,-1,-12,-3,-15
1532075340306,63,127,66,16,-2,6,10,21
1532075340311,-15,23,40,-5,2,-5,0,-3
1532075340316,-28,-68,-27,-51,-2,-9,-6,-18
1532075340321,49,75,63,45,12,14,14,24
1532075340326,45,79,87,6,22,2,5,14
1532075340331,-44,-109,-79,-6,-21,-10,-12,-14
1532075340336,9,99,-55,-13,1,3,-7,0
1532075340341,-29,-1,-14,9,-10,-7,-10,-10
1532075340346,31,107,106,17,6,-1,5,2
1532075340351,62,99,10,0,7,10,12,21
1532075340356,94,95,37,-6,1,5,9,28
1532075340361,-119,-128,-105,-14,7,9,-7,-29
1532075340366,-56,-96,-51,17,-8,-19,-23,-39
1532075340371,9,64,44,-6,0,-3,-4,3
1532075340376,-26,56,-13,-8,-5,8,7,-9
1532075340381,124,78,112,18,5,1,11,32
1532075340386,9,85,-20,-39,-8,8,4,19
1532075340391,-47,-32,-70,5,6,3,0,-9
1532075340396,-58,-21,42,29,-7,-22,-13,-16
1532075340401,30,12,-45,-22,-12,-11,-7,-2
1532075340406,12,11,27,9,8,19,13,12
1532075340411,22,-54,-25,-5,15,14,8,7
1532075340416,8,-28,9,-4,4,3,-2,2
1532075340421,-17,-58,-19,-8,-17,-20,-8,-8
1532075340426,-8,-73,11,-6,-3,-4,1,-6
1532075340431,13,21,-22,-6,19,16,4,4
1532075340436,6,56,9,13,13,7,3,1
1532075340441,44,-58,-19,-2,6,2,-5,0
1532075340446,-57,-17,12,3,-19,-17,-3,-7
1532075340451,41,108,2,-6,-19,-17,-3,9
1532075340456,-49,-11,30,-10,-1,4,-1,-4
1532075340461,-36,29,-86,-39,-8,-13,-20,-39
1532075340466,-24,108,94,23,-6,-6,-1,4
1532075340471,36,88,46,5,-2,-6,-4,-3
1532075340476,21,8,35,-8,4,0,5,17
1532075340481,15,58,15,7,9,3,5,10
1532075340486,1,-38,-24,-22,-21,-13,-6,-2
1532075340491,-4,-21,-35,0,19,12,2,-4
1532075340496,20,-3,3,2,11,22,7,11
1532075340501,-68,-97,-92,-4,4,6,-4,-24
1532075340506,10,15,-12,-3,-6,-6,-2,-1
1532075340511,-15,-10,-12,-13,-7,-16,-9,-4
1532075340516,23,76,22,-4,4,4,7,11
1532075340521,14,127,126,16,22,8,-1,11
1532075340526,14,-94,-92,2,8,2,-8,-7
1532075340531,-101,-35,-4,-23,-50,-17,-10,-28
1532075340536,-16,35,-91,-10,-5,-5,-13,-17
1532075340541,72,-19,17,1,-13,3,4,17
1532075340546,-47,52,20,15,27,11,40,2
1532075340551,18,32,0,-14,-12,-11,-43,-2
1532075340556,-15,-27,-29,-5,-17,-12,-12,-17
1532075340561,48,123,56,-6,1,13,12,22
1532075340566,-7,-128,0,-9,-12,5,22,6
1532075340571,-18,95,73,6,10,4,0,27
1532075340576,-10,-60,-2,2,3,3,5,-22
1532075340581,25,70,32,22,16,-10,-18,-4
1532075340586,-3,-37,0,2,-11,11,10,-2
1532075340591,28,10,-3,15,36,18,24,7
1532075340596,14,80,33,-11,-15,2,6,8
1532075340601,-78,-69,-20,-11,-23,6,-2,14
1532075340606,4,-14,-46,9,4,-11,-20,-11
1532075340611,9,49,44,1,4,-15,-1,-5
1532075340616,-12,-44,-56,1,11,10,12,-1
1532075340621,71,118,87,-5,-17,4,67,18
1532075340626,-24,24,46,0,-7,10,-5,32
1532075340631,0,-38,15,-4,-11,-11,-10,-15
1532075340636,-76,71,99,4,5,-27,-39,-5
1532075340641,9,94,3,0,6,-2,-19,-16
1532075340646,75,108,11,-8,20,19,22,7
1532075340651,-13,-38,7,12,-2,-3,-33,-2
1532075340656,15,-45,-32,4,-19,-11,33,58
1532075340661,-26,-42,-4,7,-3,-13,-43,-35
1532075340666,4,-23,-26,3,57,7,2,-2
1532075340671,0,-68,-47,2,13,19,1,4
1532075340676,4,-68,-10,-22,-34,13,15,-14
1532075340681,-7,-25,-38,7,15,3,9,10
1532075340686,6,127,72,8,-19,-15,-5,2
1532075340691,50,-70,-50,-2,1,-16,10,13
1532075340696,48,-92,-5,-9,6,-5,1,18
1532075340701,-19,8,37,19,0,2,-9,-16
1532075340706,59,127,58,-23,4,2,-29,6
1532075340711,42,127,66,10,-20,-5,36,-2
1532075340716,-65,-95,-64,17,2,1,-27,11
1532075340721,-44,21,27,-15,12,1,-23,-32
1532075340726,-11,61,30,-8,-17,-18,-6,-13
1532075340731,-1,100,22,-19,-1,11,13,10
1532075340736,43,88,32,19,20,0,-7,-4
1532075340741,-37,-55,-54,4,4,2,22,7
1532075340746,25,-48,-28,0,-20,-6,-17,-6
1532075340751,68,-62,-13,1,-7,4,26,-13
1532075340756,67,25,-11,-30,17,1,-19,29
1532075340761,26,-40,-27,-3,-8,-1,3,-16
1532075340766,39,25,18,-10,3,8,36,33
1532075340771,-35,-91,1,11,-2,-1,-31,-25
1532075340776,9,12,5,7,12,1,7,-30
1532075340781,27,18,-21,-18,-9,-3,-7,11
1532075340786,29,93,28,7,-17,-3,-3,16
1532075340791,-67,-96,3,0,5,1,0,-15
1532075340796,-9,-64,-2,14,11,-2,-7,-12
1532075340801,-23,-23,6,-19,-14,-3,12,9
1532075340806,77,2,-46,8,-2,-3,-8,3
1532075340811,-50,-41,-70,-14,8,-3,-5,-6
1532075340816,-17,72,96,8,-14,-6,3,-27
1532075340821,15,-15,-83,-10,5,1,0,11
1532075340826,-20,-61,-6,-7,-5,-5,-4,-12
1532075340831,-15,-22,2,33,2,0,-5,2
1532075340836,3,8,1,7,-2,-3,3,-6
1532075340841,11,27,-18,-12,-7,-6,-7,13
1532075340846,-15,-10,4,8,19,8,-2,-7
1532075340851,7,38,19,1,-9,0,11,8
1532075340856,-11,21,-16,-9,13,9,-5,-12
1532075340861,-34,-31,13,17,-23,-11,-5,1
1532075340866,-1,29,-10,-5,-5,-6,-10,-6
1532075340871,-12,-14,56,-15,-10,-3,-5,1
1532075340876,-12,-74,-103,-5,-5,-6,-2,-12
1532075340881,-7,-19,55,13,16,5,0,-8
1532075340886,-53,28,-15,-14,-14,-9,-3,-18
1532075340891,20,-13,-1,-17,-8,-2,-17,12
1532075340896,12,127,73,17,4,4,-5,-15
1532075340901,-57,-110,-97,-41,-9,-19,-19,-36
1532075340906,-13,14,64,25,8,8,0,-6
1532075340911,10,34,38,29,11,-4,5,6
1532075340916,-7,21,23,-44,-25,-10,3,6
1532075340921,28,41,14,-7,5,11,9,16
1532075340926,-7,91,19,-21,-15,-7,-5,-1
1532075340931,-52,-54,-105,5,6,3,-8,-27
1532075340936,8,11,-15,2,24,4,3,3
1532075340941,9,61,58,9,-48,-13,7,6
1532075340946,-6,-22,-17,4,24,-1,-2,3
1532075340951,14,55,23,-17,-15,2,7,10
1532075340956,-19,-28,1,2,2,3,2,1
1532075340961,10,5,-45,4,12,7,-6,-2
1532075340966,-11,-76,-9,12,-10,-5,-8,-6
1532075340971,3,21,0,6,16,-1,0,-1
1532075340976,-3,-18,0,-8,-4,2,3,4
1532075340981,23,34,-3,-7,15,7,2,1
1532075340986,-7,-74,-17,-3,-16,-18,-12,-6
1532075340991,21,57,18,-6,-2,-3,3,5
1532075340996,-20,-47,-40,-11,1,7,-2,-21
1532075341001,-38,-37,-1,17,12,11,7,5
1532075341006,-22,-26,-10,-1,2,-1,-4,-4
1532075341011,-13,27,16,-11,-8,-2,0,4
1532075341016,63,63,21,17,-5,-6,7,23
1532075341021,-15,-14,-8,-10,-5,-7,-21,-26
1532075341026,-1,-9,-9,-4,0,3,1,-3
1532075341031,9,29,4,-11,-11,-7,1,3
1532075341036,-8,-9,-6,8,2,5,0,4
1532075341041,5,-51,3,0,6,1,9,8
1532075341046,-11,-11,-9,-4,-5,-1,-2,0
1532075341051,-5,-22,-7,-9,-23,-16,-13,-5
1532075341056,-16,25,7,7,-11,-15,-6,-6
1532075341061,49,78,33,1,37,23,11,15
1532075341066,-11,-76,-22,5,18,19,6,2
1532075341071,-30,-49,-39,-4,13,0,-5,-18
1532075341076,-10,9,14,-10,-48,-34,-19,-8
1532075341081,5,34,15,12,8,-33,-2,-4
1532075341086,21,25,15,1,-3,10,18,13
1532075341091,5,18,-2,0,13,48,15,25
1532075341096,-24,-5,-7,6,28,26,-25,-11
1532075341101,-54,-31,-13,-13,-10,-4,-11,-23
1532075341106,43,5,20,10,5,-20,-10,-8
1532075341111,24,22,15,5,-11,-21,6,-3
1532075341116,-20,-16,4,-2,-11,-5,7,-1
1532075341121,68,-6,4,5,2,5,7,24
1532075341126,-98,10,-10,2,-5,-1,-4,-23
1532075341131,54,14,13,-8,-10,-3,2,15
1532075341136,-53,-27,0,6,5,7,2,-3
1532075341141,-17,-9,4,1,0,1,-6,-23
1532075341146,23,-9,-20,-17,-6,3,6,11
1532075341151,11,27,-27,3,1,-11,-16,-3
1532075341156,-71,-15,-16,-8,4,2,8,2
1532075341161,87,85,-2,-3,-6,8,10,29
1532075341166,-53,-114,2,3,3,1,-12,-24
1532075341171,-18,26,24,-16,6,2,1,-6
1532075341176,45,9,-14,-9,0,-3,0,-3
1532075341181,-14,31,-19,21,-21,-4,1,5
1532075341186,47,59,34,18,3,2,3,13
1532075341191,-23,-57,2,3,8,3,-1,-11
1532075341196,36,11,22,12,-12,-5,5,5
1532075341201,-27,-14,-7,-5,-1,-1,-3,-1
1532075341206,-33,29,-14,-2,-6,-4,-8,-9
1532075341211,-34,-90,-63,-7,4,2,-4,-16
1532075341216,8,20,12,15,8,3,3,1
1532075341221,-13,-7,24,-37,-3,-1,-2,-2
1532075341226,37,123,-20,19,4,6,3,12
1532075341231,-27,-72,58,-25,-29,-25,-5,-5
1532075341236,12,-3,-20,-22,19,11,3,-6
1532075341241,-10,-13,-18,8,1,3,-3,-3
1532075341246,8,-22,-25,-24,-17,-11,1,0
1532075341251,31,53,15,0,-7,7,5,12
1532075341256,23,10,10,10,-1,-5,-1,-1
1532075341261,-15,39,13,-15,-4,-5,-6,-5
1532075341266,-35,-110,-34,5,22,7,-4,-14
1532075341271,-3,35,-1,19,15,4,0,2
1532075341276,17,2,18,-5,-21,-11,-3,6
1532075341281,0,41,-12,-14,-7,3,-1,0
1532075341286,24,-30,29,15,18,1,2,13
1532075341291,4,24,-5,0,9,-9,-7,-11
1532075341296,-12,-36,-36,17,11,4,1,-6
1532075341301,0,-46,16,7,28,3,4,3
1532075341306,0,-20,7,-30,-83,-14,-3,2
1532075341311,-2,-4,2,15,19,5,6,3
1532075341316,6,21,0,13,46,-1,0,2
1532075341321,-11,-9,2,26,101,18,5,-2
1532075341326,21,38,-8,-15,-52,-4,1,7
1532075341331,2,14,-5,-33,-107,-12,-1,4
1532075341336,0,-3,3,5,-19,-8,-5,-4
1532075341341,2,-23,11,29,64,-5,-1,-1
1532075341346,-4,-10,-9,-46,-32,-3,-1,-6
1532075341351,15,63,15,17,35,18,7,5
1532075341356,-11,-41,-10,12,87,7,1,-4
1532075341361,-3,-22,6,-24,-106,-16,0,2
1532075341366,9,40,9,25,61,2,-1,-1
1532075341371,-1,-2,-16,-42,6,3,1,2
1532075341376,-4,-22,-5,20,-44,-13,-3,1
1532075341381,-6,-17,5,17,38,4,1,-5
1532075341386,0,0,-7,11,-58,-17,-7,-2
1532075341391,7,9,-1,-4,-10,-2,-1,4
1532075341396,-5,2,14,-15,-18,3,-1,-5
1532075341401,19,93,9,25,68,16,4,1
1532075341406,-2,-16,-11,-38,-76,-8,5,9
1532075341411,-37,-21,-26,23,63,-8,-10,-20
1532075341416,7,28,3,-13,8,4,5,5
1532075341421,-2,-7,-18,-10,-53,-11,-4,-1
1532075341426,16,54,41,32,127,20,2,8
1532075341431,8,-18,-14,0,-68,-6,-1,5
1532075341436,-11,-34,-42,-95,-77,-23,-13,-7
1532075341441,4,8,18,32,61,10,3,-3
1532075341446,11,44,13,1,-19,7,6,3
1532075341451,-19,-85,-42,-2,-37,-11,-8,-6
1532075341456,5,30,11,21,50,7,2,1
1532075341461,-4,-34,32,-6,-42,-13,-1,3
1532075341466,4,35,-10,-17,33,2,-4,-10
1532075341471,48,127,39,7,33,14,12,21
1532075341476,-59,-90,-14,-14,-20,-5,-8,-8
1532075341481,-26,2,-27,11,26,-3,-12,-27
1532075341486,-8,-14,-1,0,-32,2,2,-2
1532075341491,23,77,35,25,78,14,4,2
1532075341496,30,53,12,4,-6,8,5,26
1532075341501,-18,-45,6,-17,-128,-14,-8,-13
1532075341506,-17,-36,6,7,-8,-14,-9,-13
1532075341511,-1,-19,-3,-35,15,-1,-3,-5
1532075341516,31,76,22,32,48,6,8,8
1532075341521,-7,-72,-75,-18,20,-2,-1,13
1532075341526,-1,16,41,16,17,6,-2,-2
1532075341531,-9,-22,-20,14,7,-2,0,5
1532075341536,10,-6,-3,9,2,2,3,1
1532075341541,-2,27,-9,-24,-35,1,2,-2
1532075341546,-11,-25,-12,3,23,-2,-5,5
1532075341551,-14,-23,-4,12,4,-5,-6,-11
1532075341556,6,17,27,4,-11,3,0,1
1532075341561,6,-10,-19,-12,-6,11,8,5
1532075341566,4,-2,-8,14,63,-5,0,0
1532075341571,-14,-13,-4,-32,-85,-10,-4,-6
1532075341576,-1,-7,-13,-2,-25,-10,-5,-7
1532075341581,7,14,24,9,31,2,2,7
1532075341586,1,-11,-4,5,12,6,2,-1
1532075341591,-37,6,13,16,6,-5,-5,-6
1532075341596,25,-6,-6,-14,20,9,3,-3
1532075341601,2,1,-4,13,-10,-5,0,2
1532075341606,-7,-6,-1,19,57,-7,-9,-8
1532075341611,5,-4,-3,-20,-71,-20,-6,-1
1532075341616,-12,10,26,21,12,-8,-8,-8
1532075341621,8,26,19,9,17,22,13,5
1532075341626,16,58,0,-6,10,8,2,5
1532075341631,-8,-103,-24,7,29,11,4,-3
1532075341636,-9,-11,-7,-14,-10,-10,-5,-15
1532075341641,4,0,-4,12,-8,-1,3,8
1532075341646,-4,9,-12,-13,-21,-1,-1,-4
1532075341651,14,39,16,20,29,5,2,-5
1532075341656,-9,-23,-31,-23,-29,-7,-5,4
1532075341661,19,2,-5,-28,-6,-1,1,1
1532075341666,-26,-6,6,3,-16,6,6,1
1532075341671,-1,-2,-12,11,15,-3,0,1
1532075341676,2,-5,2,-3,3,5,2,-2
1532075341681,-3,12,4,-1,-4,-12,-7,-1
1532075341686,-2,-19,6,23,3,1,-2,-2
1532075341691,16,7,2,14,18,1,2,0
1532075341696,-22,4,-24,-19,-35,-21,-12,-10
1532075341701,-5,-5,-4,-8,-15,-7,-3,-1
1532075341706,3,-15,3,-1,5,5,3,0
1532075341711,-2,11,4,8,21,8,1,2
1532075341716,15,18,6,-4,17,10,4,6
1532075341721,-12,-24,-19,25,-25,-12,-8,-4
1532075341726,3,-17,-8,-13,1,0,2,0
1532075341731,28,40,29,-23,30,16,7,11
1532075341736,-11,-9,-2,55,-7,1,1,-6
1532075341741,-29,-11,-3,-54,-4,-1,0,-6
1532075341746,14,-11,-22,18,-25,-18,-8,0
1532075341751,-2,3,1,-16,-3,-1,0,2
1532075341756,7,14,21,-1,16,10,4,3
1532075341761,-3,-3,6,27,22,10,4,-3
1532075341766,2,-6,-2,-17,-21,-3,1,-5
1532075341771,1,14,10,8,-4,-9,-5,7
1532075341776,-12,-11,4,6,3,-2,-2,0
1532075341781,25,2,-2,-2,-1,-2,-3,-3
1532075341786,5,8,11,-27,-13,-4,0,3
1532075341791,-13,-13,-34,0,12,10,9,-4
1532075341796,2,2,-4,0,6,16,10,8
1532075341801,-10,-6,1,-12,-18,-9,-7,-7
1532075341806,1,-2,-5,-6,-13,-14,-13,-9
1532075341811,-7,-8,0,3,-6,-15,-9,-7
1532075341816,18,0,6,25,33,17,11,6
1532075341821,-29,5,9,2,17,21,7,-3
1532075341826,2,-15,-13,17,-9,-7,-2,2
1532075341831,-6,0,1,-12,-17,-3,-4,-3
1532075341836,-7,-1,-3,-9,-3,-9,-7,-7
1532075341841,19,16,3,-1,16,3,3,7
1532075341846,-16,-23,-28,-37,-65,-24,-8,-5
1532075341851,-8,-5,-5,9,-14,-7,-6,-3
1532075341856,1,-1,-2,-10,14,0,17,-8
1532075341861,26,-6,7,2,5,3,-18,18
1532075341866,-9,18,7,11,34,21,-12,-10
1532075341871,-2,5,2,-9,6,12,6,-2
1532075341876,-2,-6,-18,-5,-31,-7,-7,0
1532075341881,-5,-3,4,-4,-9,-12,0,-6
1532075341886,13,-10,-15,-8,8,14,15,5
1532075341891,-3,0,-4,-3,2,-2,-5,-3
1532075341896,-7,-3,7,-4,8,4,-2,0
1532075341901,2,4,6,11,6,-8,2,2
1532075341906,-1,-1,6,-11,4,1,1,4
1532075341911,-3,1,6,18,16,-3,0,-6
1532075341916,0,-3,-4,-13,-20,-11,-4,2
1532075341921,1,-5,-6,-2,-12,-6,1,-1
1532075341926,0,6,14,9,9,6,3,0
1532075341931,10,29,-13,-25,1,1,2,3
1532075341936,3,61,32,8,-14,-3,-1,0
1532075341941,-29,-82,-60,-16,5,-13,-16,-21
1532075341946,-8,2,7,7,7,5,5,2
1532075341951,4,-18,-3,7,4,3,-1,3
1532075341956,15,28,4,-8,-3,-4,-6,6
1532075341961,10,27,2,-1,-12,-5,-2,1
1532075341966,-32,-23,1,7,18,-2,0,-7
1532075341971,14,-3,-16,-6,-18,-2,0,7
1532075341976,-23,-25,-5,-1,7,13,0,-7
1532075341981,6,10,5,-9,5,13,9,5
1532075341986,-11,-6,4,15,10,2,3,-2
1532075341991,40,20,53,15,-10,-10,8,5
1532075341996,1,-18,96,-42,-15,-18,-27,-9
1532075342001,-2,-5,126,24,4,7,-9,3
1532075342006,1,10,51,-7,-2,1,0,-1
1532075342011,-20,-10,-9,21,13,6,-1,-3
1532075342016,14,-12,-81,3,6,-2,7,8
1532075342021,-12,13,-91,-45,-26,-19,-5,-5
1532075342026,12,2,-45,0,-7,-5,-5,4
1532075342031,-23,-13,-40,3,4,2,2,-8
1532075342036,7,-11,-39,11,-4,-22,-8,-3
1532075342041,0,14,-14,5,11,25,6,4
1532075342046,-1,-2,-35,-5,0,15,12,3
1532075342051,11,11,3,-16,-6,1,1,6
1532075342056,-1,49,9,-15,12,11,9,1
1532075342061,-20,-74,-67,59,-7,-21,-13,-11
1532075342066,0,-37,-49,-27,-2,-7,6,-12
1532075342071,-4,-14,1,-10,-9,-1,9,-19
1532075342076,-11,-5,-8,-11,-5,2,-2,1
1532075342081,39,50,60,-14,19,4,-21,20
1532075342086,-28,15,38,-12,-14,-4,-7,2
1532075342091,-3,2,36,9,-2,-5,-11,-2
1532075342096,-1,5,35,16,9,7,13,-7
1532075342101,2,9,-9,-19,-12,-2,12,-1
1532075342106,7,-13,15,13,16,2,-2,3
1532075342111,-9,-8,-6,-20,-20,-10,-4,-1
1532075342116,-11,-14,-17,15,16,13,6,0
1532075342121,15,43,24,59,38,17,14,5
1532075342126,7,15,-49,-94,-74,-22,-14,0
1532075342131,-27,-78,-35,45,15,-10,-9,-10
1532075342136,10,-2,-16,3,1,6,-4,-4
1532075342141,6,40,17,15,16,20,34,6
1532075342146,6,-1,-6,-1,16,6,-11,-3
1532075342151,-2,-10,-4,14,4,0,-8,-10
1532075342156,-22,-47,-25,4,-40,-27,-23,-4
1532075342161,-17,-47,-29,-30,-12,-22,-17,-12
1532075342166,12,24,27,44,9,-2,5,9
1532075342171,16,41,40,-9,14,14,2,9
1532075342176,12,44,1,26,7,17,18,7
1532075342181,-14,-32,-25,-29,-27,-3,1,-4
1532075342186,1,-30,-28,5,-39,-20,-9,-1
1532075342191,8,30,7,-19,23,-10,-8,-3
1532075342196,17,46,27,-6,-2,4,6,10
1532075342201,-8,-62,28,-20,7,5,6,-3
1532075342206,-2,6,6,2,-5,-1,-4,-10
1532075342211,16,58,0,-3,6,13,9,5
1532075342216,-19,-15,16,32,88,10,-1,-3
1532075342221,-9,-40,-27,2,-43,-26,-12,-8
1532075342226,5,59,18,5,24,17,11,2
1532075342231,-38,-103,-29,-16,-38,-13,-9,-10
1532075342236,6,52,4,39,0,-10,-11,-12
1532075342241,14,43,21,22,58,21,13,10
1532075342246,-6,-30,-28,-43,-49,-29,-17,-7
1532075342251,13,64,-5,-9,-39,0,2,7
1532075342256,-5,-55,-33,-38,-22,-2,-2,1
1532075342261,8,43,38,31,41,11,4,4
1532075342266,22,25,17,41,21,15,10,7
1532075342271,-29,-22,-11,5,21,1,-4,4
1532075342276,0,-28,14,16,-6,-7,-3,-10
1532075342281,16,51,-12,-51,-47,-9,-5,10
1532075342286,-40,-45,16,29,39,12,23,-4
1532075342291,-2,-55,-36,-3,-13,-11,-4,-2
1532075342296,30,10,-2,-10,-7,4,-25,-10
1532075342301,-46,-3,-12,-15,-14,-9,-6,-5
1532075342306,-32,-15,1,10,8,0,5,12
1532075342311,65,48,2,-5,9,0,4,3
1532075342316,-18,-22,-7,-8,-10,-6,15,2
1532075342321,8,2,-2,-16,-21,-1,14,2
1532075342326,-16,-4,12,57,19,2,-30,-19
1532075342331,-10,1,1,-52,-14,4,5,8
1532075342336,-1,-7,-42,-20,-3,-5,-6,0
1532075342341,-4,-20,47,-5,-10,-8,-6,-10
1532075342346,12,4,-1,-5,4,11,11,6
1532075342351,4,5,13,26,25,-2,-10,2
1532075342356,-38,-15,-9,-4,-13,-1,-1,-4
1532075342361,-24,-2,-1,-2,-2,-1,-3,-6
1532075342366,42,11,-17,-11,-5,0,2,7
1532075342371,-16,8,5,16,12,5,-5,-8
1532075342376,-5,-5,4,-58,-22,-9,11,3
1532075342381,22,-3,-10,14,-1,-2,-6,-3
1532075342386,11,8,12,23,23,0,-15,-4
1532075342391,-1,5,-10,6,-14,0,2,0
1532075342396,7,2,5,22,3,3,2,6
1532075342401,-1,3,-6,5,10,2,-9,-8
1532075342406,4,7,-1,-4,-1,4,5,3
1532075342411,-7,-8,5,13,7,-13,4,-5
1532075342416,-4,-14,9,-26,-22,-6,-9,-1
1532075342421,12,12,-16,10,4,10,-3,2
1532075342426,-4,3,2,-24,10,11,8,-2
1532075342431,-13,4,25,21,12,8,5,5
1532075342436,11,-8,-12,-3,-15,-16,-5,-8
1532075342441,2,3,-4,14,3,-7,4,4
1532075342446,36,13,4,-6,1,-1,-5,7
1532075342451,-55,-15,3,1,-3,2,-3,-13
1532075342456,1,1,-3,-41,-3,-2,1,7
1532075342461,-1,-6,-3,20,-5,-5,-3,-4
1532075342466,-6,0,15,15,-8,-2,70,14
1532075342471,10,5,-5,-1,17,6,-63,-17
1532075342476,1,0,-1,7,5,9,-8,5
1532075342481,-21,1,-11,-24,2,-5,-12,-13
1532075342486,23,-6,27,5,-6,-5,-2,4
1532075342491,16,8,-5,14,-12,-12,32,5
1532075342496,0,-4,-5,20,8,10,10,1
1532075342501,-8,3,1,-10,5,10,0,4
1532075342506,9,2,-3,0,4,1,-10,-5
1532075342511,11,10,5,-66,7,16,6,6
1532075342516,47,2,-24,77,-14,-11,-9,6
1532075342521,3,20,18,15,-1,-5,14,-4
1532075342526,-29,-23,16,-8,-2,-2,-11,-15
1532075342531,6,-6,-3,-28,8,3,-7,3
1532075342536,3,10,-4,-5,8,4,6,-5
1532075342541,-3,-6,-12,-10,-20,-17,21,-9
1532075342546,5,11,-20,1,-3,0,-25,11
1532075342551,-5,-23,-58,-8,-15,-4,-29,8
1532075342556,-19,-4,-20,-15,5,0,-5,-9
1532075342561,11,-12,-43,3,-7,-4,-4,-1
1532075342566,2,15,-3,13,18,4,4,-1
1532075342571,-12,1,-5,-17,-29,-14,17,-6
1532075342576,-5,-17,18,-4,14,9,-2,-7
1532075342581,-6,-2,49,1,-27,-20,-11,6
1532075342586,3,-1,29,-25,12,12,12,5
1532075342591,9,18,38,33,27,51,26,5
1532075342596,-31,-21,18,-14,25,-10,-22,-15
1532075342601,19,12,6,-14,9,6,5,32
1532075342606,-14,-13,-8,-7,-31,-30,-29,-43
1532075342611,-29,-5,-5,20,-24,-28,-9,-27
1532075342616,-5,2,25,-8,-23,-4,7,-8
1532075342621,2,-7,-6,1,20,0,-3,12
1532075342626,-3,4,-8,-1,-16,-9,-2,24
1532075342631,33,4,-8,11,-3,2,17,72
1532075342636,-22,10,24,-3,-26,-2,-5,-73
1532075342641,-5,-5,-8,18,56,39,8,-18
1532075342646,6,1,-9,5,46,21,7,36
1532075342651,-21,14,16,-9,-2,-20,-15,-101
1532075342656,22,32,-3,-1,-17,-8,8,34
1532075342661,6,-9,3,-7,-16,-9,-7,3
1532075342666,-17,26,1,0,5,2,-3,-29
1532075342671,-15,-109,-22,22,8,-2,5,34
1532075342676,-6,-15,-23,-16,-27,-9,-4,15
1532075342681,-3,14,-10,-2,-4,-1,-14,-38
1532075342686,12,21,0,2,-1,-11,-8,23
1532075342691,5,39,42,28,-4,-1,10,4
1532075342696,4,-1,-47,-28,12,22,15,16
1532075342701,-1,-14,14,-12,-1,-8,-4,4
1532075342706,-22,-18,-9,-4,-14,-3,-12,-21
1532075342711,8,10,-1,-5,-4,-13,-5,1
1532075342716,7,2,-1,-4,8,10,8,11
1532075342721,-5,11,-4,8,5,-1,0,32
1532075342726,-12,-11,-12,-11,-8,-8,-11,-50
1532075342731,-5,1,-3,4,1,-1,0,-15
1532075342736,6,3,5,10,12,6,4,19
1532075342741,-12,-14,-5,-16,-19,-8,-8,-21
1532075342746,0,1,1,9,3,-6,-2,5
1532075342751,18,17,-5,-1,12,11,7,9
1532075342756,15,13,9,5,-1,-3,8,65
1532075342761,-16,-25,-15,7,-8,-9,-18,-57
1532075342766,2,-9,-6,-8,-13,-3,-1,-10
1532075342771,-19,-17,-2,-8,3,7,-2,-8
1532075342776,-2,4,7,5,3,-5,1,10
1532075342781,9,9,3,5,6,12,1,6
1532075342786,16,14,-6,-12,-7,-3,6,15
1532075342791,6,10,1,-1,2,3,2,11
1532075342796,-10,-6,8,5,2,-6,-3,-21
1532075342801,-3,-2,-2,-2,-18,-10,-2,6
1532075342806,-3,-9,28,1,-2,2,0,-6
1532075342811,2,8,-3,2,8,6,7,6
1532075342816,-8,-11,-13,1,16,3,-10,-18
1532075342821,6,-1,-34,-3,-3,-1,-1,2
1532075342826,1,-6,-30,-1,-9,-9,-5,12
1532075342831,-9,0,-1,-7,-34,-12,-4,-3
1532075342836,-2,-4,11,7,16,6,4,-8
1532075342841,0,3,1,-7,1,8,6,9
1532075342846,-10,-7,-5,-2,-5,0,-5,0
1532075342851,7,3,8,-4,4,-5,4,-3
1532075342856,3,3,10,3,4,3,-3,-9
1532075342861,2,5,7,-11,-6,-5,-8,8
1532075342866,10,-5,8,3,2,8,29,5
1532075342871,3,7,0,-10,-2,-2,-1,13
1532075342876,-30,-26,-1,-3,-16,-23,-6,19
1532075342881,-12,-2,1,-5,4,3,-38,-46
1532075342886,3,-4,1,-5,6,13,15,-8
1532075342891,5,12,-6,28,6,3,-13,5
1532075342896,10,4,3,-26,-2,-2,14,-2
1532075342901,-5,-9,-9,12,-18,-8,9,8
1532075342906,-6,-3,-8,-14,-8,-6,-4,3
1532075342911,-3,-1,2,2,2,-5,-8,-3
1532075342916,9,7,2,21,16,14,7,6
1532075342921,2,4,5,-11,5,9,2,3
1532075342926,3,2,4,-4,9,5,-1,1
1532075342931,4,-3,-2,6,-4,-7,0,-2
1532075342936,-8,-3,2,5,-15,-15,5,-10
1532075342941,6,4,2,-4,1,0,-8,6
1532075342946,-4,-2,-4,9,-2,-3,6,19
1532075342951,-5,-1,-1,-9,-4,-1,-10,-38
1532075342956,13,7,-4,-2,6,7,8,14
1532075342961,-38,-25,3,-3,-5,-5,8,-26
1532075342966,-2,1,4,-6,-2,-7,-22,9
1532075342971,-6,-7,-1,6,-7,-8,-5,-15
1532075342976,16,5,1,-4,-2,1,14,13
1532075342981,11,8,6,3,10,10,3,9
1532075342986,-11,-3,0,6,3,-1,-7,-4
1532075342991,-3,-6,-4,-11,-8,-10,0,4
1532075342996,2,-1,-2,3,-8,-9,-10,-3
1532075343001,5,7,3,-1,9,18,17,15
1532075343006,-1,2,-5,1,5,11,-1,-7
1532075343011,12,28,-2,-2,10,13,3,15
1532075343016,-13,-25,-8,-6,0,-3,-12,-22
1532075343021,-1,-13,-7,7,-6,-14,-1,7
1532075343026,-4,-4,-3,1,-7,-3,6,-16
1532075343031,-4,-6,-2,-9,-2,-2,-16,2
1532075343036,-4,15,0,3,-11,-6,-10,-6
1532075343041,4,5,0,0,-8,-11,3,5
1532075343046,2,-2,0,2,3,6,5,4
1532075343051,-2,4,0,-5,-2,6,-2,1
1532075343056,-3,-5,-3,3,8,10,3,-4
1532075343061,7,4,5,-3,-13,-5,-12,0
1532075343066,-4,-1,0,-4,-5,-15,-9,1
1532075343071,0,-6,5,2,23,23,17,6
1532075343076,-2,0,1,-1,4,6,-3,-21
1532075343081,13,11,-2,-2,2,0,14,27
1532075343086,-23,-12,-7,2,-9,-11,-30,-1
1532075343091,0,-5,-1,-6,-9,-8,-13,-13
1532075343096,0,3,-3,0,-7,-8,-6,-5
1532075343101,-2,3,0,-3,-7,-12,13,-3
1532075343106,5,5,1,-2,-12,-4,-2,-3
1532075343111,1,-5,-2,-1,20,21,12,6
1532075343116,-3,-1,0,-2,4,11,13,-4
1532075343121,4,3,2,2,2,-1,-4,-3
1532075343126,7,-1,2,5,7,1,-2,0
1532075343131,-18,-7,-2,-13,-23,-22,-4,-5
1532075343136,9,7,2,0,-2,-2,18,0
1532075343141,-18,-9,-4,0,6,11,-19,-2
1532075343146,-2,2,0,3,6,-2,-8,-7
1532075343151,10,8,-4,-5,-7,-5,4,9
1532075343156,-14,-7,-3,4,-11,-12,-19,-11
1532075343161,8,3,-1,1,-1,-12,4,-7
1532075343166,4,1,-2,-15,8,17,13,10
1532075343171,-6,-11,-3,10,-9,-6,-9,2
1532075343176,9,8,0,-3,-6,-5,-8,-1
1532075343181,-5,1,1,1,2,0,8,-2
1532075343186,10,1,1,4,2,4,0,1
1532075343191,-5,1,-1,-3,12,7,4,-9
1532075343196,-1,-7,-1,-2,-5,0,-7,2
1532075343201,-1,-4,0,-4,-2,-1,0,-3
1532075343206,-1,-1,-1,-2,-5,-2,1,-1
1532075343211,4,-3,0,-7,-11,-14,-6,1
1532075343216,-5,-4,0,13,1,-6,-2,-1
1532075343221,1,1,0,-5,15,30,8,4
1532075343226,-2,2,-2,1,0,6,12,0
1532075343231,20,8,-1,0,7,5,-3,-2
1532075343236,-43,-24,-5,-4,-3,-9,-17,-8
1532075343241,5,1,-1,-3,-9,-19,-5,2
1532075343246,-2,-2,-1,0,-11,-6,0,-5
1532075343251,-3,4,3,2,4,5,1,-3
1532075343256,11,-5,1,-5,2,7,0,15
1532075343261,-2,-5,-4,6,5,6,-6,-1
1532075343266,-1,-1,-1,-10,-6,-9,-8,1
1532075343271,-1,2,-1,0,-11,-21,1,-7
1532075343276,7,8,0,-1,-7,7,1,-6
1532075343281,-1,0,2,-2,13,2,8,0
1532075343286,1,0,-2,6,2,13,6,4
1532075343291,-7,-3,2,8,22,17,-12,0
1532075343296,6,1,0,-13,0,-5,5,-8
1532075343301,-20,-5,-1,-5,-16,-16,-6,11
1532075343306,-1,2,-2,2,-2,-10,-2,-3
1532075343311,-1,-8,0,2,-5,-4,9,7
1532075343316,-5,6,0,-4,2,0,-9,-13
1532075343321,7,5,0,0,3,6,5,-1
1532075343326,1,-1,-1,0,0,-2,5,-3
1532075343331,-4,-6,-1,-2,0,4,-5,3
1532075343336,2,0,-3,0,5,1,10,3
1532075343341,12,3,-1,2,-1,2,15,-2
1532075343346,3,15,2,3,3,-3,-20,-11
1532075343351,-22,-36,-9,-3,-14,-6,-13,-13
1532075343356,1,1,0,0,2,-1,-24,-10
1532075343361,2,-8,2,-2,-4,1,16,19
1532075343366,-1,1,-3,10,9,1,-8,-3
1532075343371,5,14,1,-8,-6,-6,11,-3
1532075343376,15,5,0,1,-4,-3,1,7
1532075343381,-1,2,0,-2,0,4,-8,-8
1532075343386,-8,-13,-1,0,1,-6,8,-1
1532075343391,12,20,1,-3,-3,-6,1,7
1532075343396,-25,-26,-3,-1,4,6,9,7
1532075343401,20,44,16,-18,12,5,-9,-3
1532075343406,-12,35,18,10,-12,7,25,7
1532075343411,20,-83,-41,-11,-15,-14,-32,-5
1532075343416,3,16,9,-12,5,-2,-13,-3
1532075343421,7,34,20,-4,13,22,30,1
1532075343426,-4,-7,0,-1,13,12,1,22
1532075343431,79,15,-5,-2,-10,1,0,5
1532075343436,-47,-18,0,2,-4,-11,4,-12
1532075343441,8,21,12,24,16,8,-5,18
1532075343446,33,-31,-3,5,-4,1,19,9
1532075343451,-30,6,-6,-5,-3,-3,-37,-12
1532075343456,18,-19,-22,-24,-15,-6,-9,-3
1532075343461,-24,-9,-5,2,-14,-16,4,-11
1532075343466,11,24,14,12,5,-5,1,0
1532075343471,-5,2,8,20,20,22,17,12
1532075343476,40,-12,-10,7,4,4,6,17
1532075343481,-90,-38,-14,-34,-32,-13,-14,-37
1532075343486,-1,9,11,-11,3,-9,19,-3
1532075343491,6,-9,-6,-3,-11,-11,-15,-12
1532075343496,24,-15,-4,-10,-4,-6,-19,-3
1532075343501,57,20,4,4,10,15,21,35
1532075343506,-34,-23,-16,3,-2,-5,-27,-26
1532075343511,-22,-10,-18,-7,-13,-8,4,-17
1532075343516,-4,-2,3,22,20,2,9,3
1532075343521,-10,13,4,-11,24,4,2,3
1532075343526,68,-7,-10,-12,-10,5,0,15
1532075343531,-57,7,3,20,16,4,13,1
1532075343536,-17,-4,-6,-7,-19,-13,-22,-18
1532075343541,9,4,-9,21,-8,-11,-2,-1
1532075343546,-26,7,-3,-4,26,9,1,1
1532075343551,1,-8,-5,-8,-21,-8,-1,-3
1532075343556,17,48,10,-4,9,7,12,8
1532075343561,-10,-14,-6,2,5,4,-2,-1
1532075343566,-14,-62,-6,1,-12,-8,-6,-2
1532075343571,1,-17,4,-16,-16,-15,-11,-4
1532075343576,-8,-5,6,-2,-1,7,17,-7
1532075343581,14,26,13,5,25,24,-11,16
1532075343586,14,30,2,-9,-10,-7,4,-2
1532075343591,-4,-11,3,4,-2,-3,-12,0
1532075343596,6,-1,8,-2,12,9,-1,-2
1532075343601,-2,7,4,-1,-28,-7,15,-3
1532075343606,15,49,5,2,13,-2,-5,-1
1532075343611,4,-13,0,1,-8,-2,6,4
1532075343616,-33,-57,-13,5,-2,-4,0,-6
1532075343621,1,27,-4,0,-4,-8,-12,-15
1532075343626,0,7,0,-7,-12,0,-3,2
1532075343631,7,20,2,7,0,-6,2,-2
1532075343636,7,8,-8,-8,-3,0,-7,4
1532075343641,7,-15,1,-3,8,11,12,6
1532075343646,4,11,-1,-7,-8,-3,-4,1
1532075343651,8,21,2,3,5,3,4,4
1532075343656,-6,-11,2,-8,3,1,0,-1
1532075343661,61,4,6,11,-11,-17,-7,5
1532075343666,-29,11,12,-11,-32,-9,1,-9
1532075343671,6,-17,66,6,31,15,-6,4
1532075343676,-10,13,52,14,21,28,19,-4
1532075343681,6,-22,-11,-41,-4,2,-13,-9
1532075343686,8,-6,-52,19,-6,-16,-28,11
1532075343691,3,6,-62,10,-13,-15,0,-4
1532075343696,-31,-34,-52,-60,-25,-24,-9,-4
1532075343701,-15,5,7,46,4,0,16,-3
1532075343706,3,-9,-5,-17,8,13,8,2
1532075343711,-7,2,11,10,2,0,-3,-6
1532075343716,4,7,-11,-3,-2,-4,-2,2
1532075343721,-9,-1,4,-26,-2,-2,4,2
1532075343726,-5,-1,9,-3,8,6,0,-3
1532075343731,-17,-5,-3,-5,-9,-9,-2,-4
1532075343736,-6,1,15,0,-6,-6,-12,-1
1532075343741,-5,1,-21,-1,6,-1,3,-1
1532075343746,8,-2,28,4,-6,-6,-2,-3
1532075343751,9,13,6,2,1,6,2,1
1532075343756,-4,-16,-9,-3,0,2,2,1
1532075343761,-13,-2,1,3,-5,-5,10,1
1532075343766,37,11,-15,-5,0,-1,-20,3
1532075343771,-20,-9,3,6,3,-3,-4,-11
1532075343776,-2,4,2,-5,-9,-3,-9,-2
1532075343781,2,-3,10,4,7,7,6,3
1532075343786,-9,-10,-11,-8,-3,0,11,-1
1532075343791,9,4,3,3,5,0,8,3
1532075343796,11,7,-6,0,-6,-4,-11,-8
1532075343801,-8,-8,-6,-4,3,-4,-8,-1
1532075343806,-17,-7,-1,3,3,0,4,-1
1532075343811,17,11,-2,1,6,0,1,-6
1532075343816,-3,0,0,4,-9,-7,-1,3
1532075343821,10,8,4,-15,-7,-3,0,4
1532075343826,-19,11,2,6,-1,2,-11,-4
1532075343831,7,8,8,-16,-1,3,7,6
1532075343836,-8,-10,-5,-4,0,-1,5,-9
1532075343841,-9,-17,4,22,3,-1,7,9
1532075343846,1,-2,-1,-12,-4,-5,-19,-16
1532075343851,-10,-4,-7,-5,-8,-6,-8,-3
1532075343856,41,23,7,-7,7,7,18,18
1532075343861,-9,2,1,-6,4,4,-19,-12
1532075343866,-10,-8,-1,12,0,-4,14,6
1532075343871,3,-4,1,-1,3,2,-14,-10
1532075343876,-3,1,-1,-4,-8,-7,6,5
1532075343881,2,-5,3,-11,-4,0,41,-10
1532075343886,2,-5,0,-1,-1,1,-39,12
1532075343891,8,8,3,4,-3,-7,-7,0
1532075343896,-29,-28,-5,-1,7,14,11,3
1532075343901,12,34,10,13,-2,-2,21,3
1532075343906,-34,-17,24,-24,-9,-3,18,-11
1532075343911,2,-50,-38,42,12,-2,-19,-10
1532075343916,-4,2,0,-32,-5,-7,-31,-21
1532075343921,-3,-14,-8,15,-22,-13,-20,7
1532075343926,11,21,9,8,17,10,1,11
1532075343931,13,18,4,-10,-6,-3,8,3
1532075343936,-2,-6,-1,11,16,6,33,8
1532075343941,-1,8,-1,-17,11,11,-22,-18
1532075343946,15,11,-10,-2,-15,-3,7,3
1532075343951,-12,-4,12,14,8,1,-2,4
1532075343956,20,12,-3,13,-1,-7,3,1
1532075343961,-50,-22,-11,-42,-20,-11,-6,-5
1532075343966,-2,-5,-8,11,3,-1,6,-6
1532075343971,0,-2,0,-7,-3,2,-2,-1
1532075343976,30,21,14,4,-5,-2,47,13
1532075343981,-23,-18,-1,18,7,-4,-62,-4
1532075343986,-13,-10,-13,14,-8,-2,1,-10
1532075343991,-18,-2,-1,-17,2,-6,-13,-7
1532075343996,-16,3,4,1,1,7,4,4
1532075344001,25,0,0,6,9,11,14,9
1532075344006,6,2,-6,-7,-2,3,19,1
1532075344011,8,8,10,12,7,1,-11,6
1532075344016,-33,-9,-8,-20,-21,-14,3,-9
1532075344021,25,3,-1,-3,-7,-13,-23,-11
1532075344026,4,-3,5,-6,-8,6,1,7
1532075344031,26,23,6,4,17,11,27,10
1532075344036,-6,-7,-9,1,-9,-8,-33,-12
1532075344041,1,4,-6,-4,0,-2,8,-2
1532075344046,-6,-7,-8,-11,1,-2,5,-5
1532075344051,-5,0,4,-1,-1,4,-7,-1
1532075344056,8,1,-13,-16,-11,-3,1,4
1532075344061,-5,-2,1,2,-20,-14,-11,-3
1532075344066,14,-3,-3,7,7,1,-2,-1
1532075344071,-9,-2,2,-17,22,16,20,6
1532075344076,4,6,1,25,7,9,7,-3
1532075344081,-7,-4,3,19,0,-2,31,-2
1532075344086,-17,-10,7,-4,25,1,-26,7
1532075344091,48,11,-30,-35,-85,-29,-30,-8
1532075344096,-18,-7,3,-7,6,3,-3,-7
1532075344101,5,-10,1,-4,14,15,8,3
1532075344106,1,-1,8,39,5,0,12,0
1532075344111,-14,-4,9,-7,24,2,8,-3
1532075344116,14,8,4,2,-6,-2,-13,7
1532075344121,11,-1,0,6,-10,-12,6,-3
1532075344126,1,2,-3,-42,1,12,5,-10
1532075344131,-14,-4,1,-6,-27,-6,-9,-8
1532075344136,-14,-17,-9,17,11,-2,20,19
1532075344141,29,28,13,-5,48,48,53,4
1532075344146,-73,-46,-16,5,6,-19,-94,-9
1532075344151,19,1,0,-3,-19,-15,8,-7
1532075344156,-39,-12,2,14,-9,-10,-19,-16
1532075344161,-9,-3,0,-10,-29,-23,7,0
1532075344166,26,15,1,2,-10,3,38,8
1532075344171,-7,-2,-1,5,24,5,4,2
1532075344176,-3,-3,5,-23,-1,2,5,-11
1532075344181,10,13,-1,13,19,17,-17,7
1532075344186,9,7,-1,3,-1,0,-2,-1
1532075344191,-22,-30,0,34,11,1,-5,3
1532075344196,13,7,-1,-30,-12,-4,22,-5
1532075344201,-7,-8,-6,-11,-17,-7,-21,1
1532075344206,4,8,2,23,11,6,-15,5
1532075344211,-14,-15,-12,-40,-28,-25,-31,-11
1532075344216,12,4,0,15,-6,-2,21,0
1532075344221,-10,3,0,-49,-19,-4,-11,0
1532075344226,23,8,-2,24,-5,-5,3,-2
1532075344231,-8,-7,6,-16,2,4,-3,0
1532075344236,5,-1,-1,4,-6,-5,4,5
1532075344241,3,1,1,-7,8,4,0,3
1532075344246,-6,12,4,-6,5,0,-9,-9
1532075344251,0,-3,0,15,2,-9,-12,-10
1532075344256,-8,-6,-1,-23,-7,-4,9,0
1532075344261,5,4,2,20,4,1,7,4
1532075344266,1,0,-2,-2,-1,5,0,7
1532075344271,-6,-9,-5,-12,-2,-8,-15,-4
1532075344276,10,6,3,6,2,13,9,-4
1532075344281,-25,-6,-5,-5,12,1,-2,-8
1532075344286,-3,-11,3,23,-19,-23,34,3
1532075344291,-4,-2,0,9,-3,-4,-51,4
1532075344296,9,7,1,5,21,24,24,8
1532075344301,2,3,-2,-7,-2,-1,-16,5
1532075344306,2,4,0,-4,8,4,2,3
1532075344311,1,6,-3,-24,-5,-6,16,1
1532075344316,-3,-7,2,35,-6,-12,-7,-4
1532075344321,-7,-19,-9,-12,-13,-7,3,-1
1532075344326,-6,-4,-2,-14,6,16,-9,-4
1532075344331,-1,4,3,10,11,5,15,2
1532075344336,8,14,2,-6,2,1,1,-2
1532075344341,3,-6,-9,4,-21,-15,-9,-7
1532075344346,14,9,1,7,-9,-16,-23,1
1532075344351,-23,-26,-7,-10,-3,8,19,-1
1532075344356,1,-1,-2,-5,21,10,-10,0
1532075344361,5,4,2,8,-3,1,0,-3
1532075344366,6,2,-1,-6,8,5,-11,-3
1532075344371,-7,4,2,9,1,-5,3,-6
1532075344376,-6,-8,0,-9,-14,-9,43,9
1532075344381,1,4,3,-2,-1,-2,-33,-2
1532075344386,-13,-5,-3,-7,-2,7,-12,-4
1532075344391,2,-2,-4,5,-11,-10,-1,-3
1532075344396,1,-4,-1,-13,2,0,-2,-2
1532075344401,-4,8,3,19,15,13,3,1
1532075344406,1,-1,-2,28,4,-1,16,5
1532075344411,8,6,1,-22,1,5,-4,0
1532075344416,-8,-8,-8,-2,-19,-14,-16,-9
1532075344421,7,-5,-9,-8,-25,-13,-6,-11
1532075344426,17,10,5,-68,14,13,-2,7
1532075344431,-18,-15,1,93,30,12,7,0
1532075344436,-14,-13,-14,-49,-24,-15,-9,-9
1532075344441,-3,4,6,13,3,5,11,2
1532075344446,-1,-8,-2,-3,-12,-10,-6,-2
1532075344451,1,10,3,-28,-4,0,6,-7
1532075344456,12,9,7,-3,10,10,21,12
1532075344461,3,-2,-3,15,14,1,-14,17
1532075344466,-16,-5,-2,-13,2,1,-13,-6
1532075344471,29,9,-7,-10,-14,-9,-20,-2
1532075344476,3,-1,0,20,-3,-9,-9,-1
1532075344481,-1,-3,1,-13,-1,2,24,-6
1532075344486,4,7,2,-4,-4,-5,-7,-4
1532075344491,-1,5,3,-7,9,-4,0,3
1532075344496,-3,-3,-1,6,-2,0,4,-8
1532075344501,3,2,-1,-7,3,4,-7,5
1532075344506,6,1,-4,-44,-5,10,19,8
1532075344511,-11,4,1,-16,26,23,-6,3
1532075344516,13,-3,-9,54,-25,-29,-19,-4
1532075344521,-21,1,-4,10,-1,-4,-18,-13
1532075344526,-20,-4,7,35,13,-1,9,14
1532075344531,18,-3,4,6,1,-2,3,-6
1532075344536,24,11,0,-50,-6,3,7,1
1532075344541,-5,3,3,-14,15,8,22,13
1532075344546,-6,-13,-14,-7,-15,-7,-7,-7
1532075344551,2,21,15,23,3,3,-8,-3
1532075344556,-37,-16,-4,8,-5,-4,-6,-3
1532075344561,7,-7,-4,-32,-8,-4,1,-5
1532075344566,-10,11,5,-2,8,4,5,-2
1532075344571,30,-11,-9,-1,-9,-14,-16,7
1532075344576,-23,4,-5,-53,-5,0,10,-14
1532075344581,-4,4,6,49,17,10,7,24
1532075344586,-24,-27,-3,16,-31,-7,-33,-25
1532075344591,9,23,3,20,22,15,7,0
1532075344596,13,9,-25,-40,3,0,-9,4
1532075344601,-2,-16,22,-43,-5,-8,-5,-18
1532075344606,3,12,4,-13,-5,-8,4,3
1532075344611,-15,24,4,51,-7,-14,6,5
1532075344616,10,3,21,-24,8,10,10,1
1532075344621,-15,-26,-33,1,-15,-7,-5,-1
1532075344626,10,5,11,-4,22,18,1,-4
1532075344631,-13,-42,-10,-18,3,4,18,0
1532075344636,5,33,6,21,6,-3,-13,-1
1532075344641,9,-8,7,-9,-9,0,1,-7
1532075344646,-5,-12,-11,3,-23,-22,-12,-4
1532075344651,5,11,-3,-10,-7,-3,-3,-8
1532075344656,-3,-13,1,5,15,7,26,10
1532075344661,9,19,3,1,-5,5,-34,3
1532075344666,9,15,-5,13,20,13,6,2
1532075344671,-19,-22,-7,-12,-7,-6,-11,-4
1532075344676,-1,-9,0,-1,-26,-20,-6,0
1532075344681,5,1,2,-2,13,10,45,-7
1532075344686,4,12,-2,8,9,5,-15,2
1532075344691,-5,-1,1,-12,-4,-3,-5,0
1532075344696,-8,-21,-8,-4,-3,-3,-13,-5
1532075344701,11,9,-4,7,-11,-15,-4,5
1532075344706,-8,-7,-3,-20,2,4,7,-5
1532075344711,5,19,14,-3,1,1,13,3
1532075344716,-3,4,-11,31,-15,-9,-10,-5
1532075344721,-7,-23,-12,10,13,15,7,-2
1532075344726,7,-5,1,3,6,2,-10,-1
1532075344731,-4,-7,-5,-15,-8,-9,1,-3
1532075344736,1,12,7,-3,-7,2,8,3
1532075344741,6,6,6,9,7,1,-8,5
1532075344746,-8,-5,-1,-5,1,6,-5,-3
1532075344751,-4,-11,-9,3,3,3,-1,-2
1532075344756,4,-1,5,-4,-2,-7,-9,-1
1532075344761,-2,11,4,-11,-7,-6,12,4
1532075344766,2,-1,0,-10,-13,-5,-5,-7
1532075344771,0,1,2,13,6,4,5,-1
1532075344776,1,-2,-3,-21,7,3,-1,4
1532075344781,2,-4,-7,-40,-18,1,-5,-7
1532075344786,-1,2,1,0,-4,-13,9,-1
1532075344791,-1,11,3,2,-11,-4,-24,-5
1532075344796,0,-28,-8,12,15,12,34,-1
1532075344801,4,15,-10,6,9,-2,-44,-6
1532075344806,2,2,5,-2,-12,-8,2,9
1532075344811,-8,-13,2,6,3,-3,2,-1
1532075344816,-3,-15,-4,-12,6,3,5,-5
1532075344821,-3,1,1,13,3,1,5,3
1532075344826,2,2,5,15,11,-4,-2,-3
1532075344831,1,4,-7,-23,-11,5,11,3
1532075344836,0,4,7,-7,3,7,-5,8
1532075344841,-2,0,2,16,-7,-6,0,-5
1532075344846,-1,2,2,-5,-12,-14,-8,-4
1532075344851,-3,-3,3,-2,-6,-4,3,-4
1532075344856,1,-2,2,-9,8,17,-6,2
1532075344861,2,5,7,16,13,11,9,4
1532075344866,1,-6,-4,0,-14,-7,-1,-2
1532075344871,-3,-6,-6,-5,14,2,1,1
1532075344876,-3,1,-1,35,-20,-20,-18,-8
1532075344881,1,8,0,-25,2,-2,17,8
1532075344886,-3,-17,-11,-10,0,0,-10,-3
1532075344891,-2,-3,-4,4,6,14,10,-2
1532075344896,2,14,2,0,4,-2,-9,-2
1532075344901,-2,-10,-5,6,-8,-12,7,-6
1532075344906,-4,-3,-6,-12,-3,-3,-8,1
1532075344911,-8,-20,-3,3,-6,-6,9,4
1532075344916,0,3,2,6,17,15,-12,-2
1532075344921,1,8,0,-4,-5,0,-5,-1
1532075344926,3,0,-2,11,6,6,8,1
1532075344931,-2,7,2,2,-11,-8,-2,-3
1532075344936,-2,-7,-1,-2,-8,-10,-2,1
1532075344941,-2,-8,1,3,-4,-6,-2,0
1532075344946,2,6,1,-3,-1,10,3,-2
1532075344951,2,7,0,15,14,4,-1,1
1532075344956,1,-1,-4,-7,-1,-3,-1,-2
1532075344961,-3,-1,3,-4,-9,-8,2,-3
1532075344966,-1,1,0,2,1,-4,-10,-1
1532075344971,-1,4,2,3,-3,5,1,-2
1532075344976,-5,-22,-3,0,0,-1,1,0
1532075344981,1,2,-5,8,5,2,-1,-4
1532075344986,0,0,11,-12,2,0,1,0
1532075344991,0,4,-26,-20,-12,-10,-2,3
1532075344996,0,3,9,-18,-4,3,0,-3
1532075345001,1,12,-3,16,-12,-8,-6,1
1532075345006,-8,-38,-4,7,10,2,1,-5
1532075345011,-4,-2,0,-1,3,-2,-8,-8
1532075345016,-2,1,-8,-3,-6,-6,7,2
1532075345021,0,1,-1,-1,9,8,-1,2
1532075345026,4,20,-5,-1,10,9,5,3
1532075345031,2,-6,0,4,-1,-2,-3,0
1532075345036,-1,2,-5,-4,-4,1,-1,-3
1532075345041,-1,-1,3,2,-13,-13,-10,-2
1532075345046,0,2,0,2,3,2,4,2
1532075345051,1,-3,8,-3,6,5,-3,-1
1532075345056,-1,5,-2,19,-3,-8,-1,-1
1532075345061,-1,5,2,-12,-1,5,0,2
1532075345066,-1,-11,2,-4,10,7,5,1
1532075345071,-6,-12,-3,-4,-13,-7,-1,-1
1532075345076,-1,-5,3,8,-1,-3,-9,-3
1532075345081,0,-1,-1,3,-6,-4,3,-1
1532075345086,1,8,-2,14,0,0,-1,-2
1532075345091,1,7,8,1,4,0,0,-2
1532075345096,-1,-2,-3,-7,6,13,4,3
1532075345101,-3,-5,-3,-9,6,0,-2,2
1532075345106,2,8,3,8,-6,-5,12,0
1532075345111,5,20,0,2,-2,-2,-18,0
1532075345116,-4,-25,2,-12,-15,-16,-4,1
1532075345121,-6,-14,-1,6,0,-3,-3,-5
1532075345126,-2,-3,-6,-19,-6,1,-1,0
1532075345131,-1,1,-6,-6,-7,4,6,0
1532075345136,4,19,6,3,26,16,2,-2
1532075345141,-1,-4,3,-8,0,0,2,3
1532075345146,-1,-3,-1,18,3,0,-2,-3
1532075345151,-2,-4,-4,-20,-12,-7,1,-2
1532075345156,0,9,-3,4,-7,-8,-3,-2
1532075345161,-1,-9,-2,1,-8,-6,-2,-2
1532075345166,3,10,3,-4,4,6,0,-1
1532075345171,1,1,1,8,11,8,4,4
1532075345176,-2,-10,0,-3,-2,-3,3,0
1532075345181,1,7,-7,2,5,1,-7,-4
1532075345186,-2,-6,-4,-3,-9,-3,-5,-3
1532075345191,-1,-4,0,16,5,-3,4,1
1532075345196,0,3,-1,2,0,5,1,-2
1532075345201,0,7,-1,-11,-11,-6,-5,0
1532075345206,0,5,2,5,2,-4,-1,3
1532075345211,-3,-14,3,0,-4,1,-2,-2
1532075345216,-2,-7,-8,-6,2,-2,-3,-1
1532075345221,-1,-6,0,6,0,3,1,0
1532075345226,-1,3,-1,-1,4,4,0,1
1532075345231,3,5,2,-3,-8,-4,-2,-2
1532075345236,-2,1,-2,-3,0,-9,-6,0
1532075345241,1,3,2,4,5,9,3,-4
1532075345246,0,-7,-2,-6,4,2,0,3
1532075345251,-2,-8,1,2,3,-2,-5,0
1532075345256,4,11,4,2,-8,0,3,1
1532075345261,0,5,-2,7,4,-3,-5,-6
1532075345266,-2,3,1,-8,0,13,-1,-2
1532075345271,1,1,1,-7,1,5,6,7
1532075345276,1,5,-3,-3,-7,-6,-4,-1
1532075345281,-1,-7,-4,-5,-3,-11,-3,0
1532075345286,-1,6,-1,-6,-6,-8,-5,-2
1532075345291,-1,-7,-1,1,0,-2,-1,0
1532075345296,-3,-4,0,-1,-3,0,0,-1
1532075345301,-1,12,-4,2,8,6,0,0
1532075345306,-2,-4,5,23,2,-2,4,1
1532075345311,-4,-9,-9,-50,-17,-5,-2,-2
1532075345316,1,7,0,8,9,1,0,-2
1532075345321,1,1,-3,6,3,5,2,1
1532075345326,-1,2,-2,-16,-16,-4,0,-3
1532075345331,-2,-14,1,7,19,3,3,0
1532075345336,2,4,0,-4,-5,1,-5,-2
1532075345341,0,5,5,-2,-5,-4,-4,-5
1532075345346,1,1,-9,-1,2,1,3,4
1532075345351,-1,-1,14,10,-6,-7,-2,-3
1532075345356,-1,-7,-7,-4,-1,3,-3,-1
1532075345361,-1,-5,-3,9,-1,-1,-3,-2
1532075345366,0,-1,2,-4,-14,-14,-6,-3
1532075345371,3,11,-1,0,13,23,7,2
1532075345376,-1,1,-3,3,0,-6,-3,1
1532075345381,0,15,1,15,-7,-7,-3,0
1532075345386,-4,-25,-2,-9,6,4,-1,-2
1532075345391,-4,-11,-2,11,-16,-17,-4,-1
1532075345396,-2,-2,2,-11,0,-2,-1,-5
1532075345401,0,2,-2,-3,7,7,3,1
1532075345406,-1,7,-1,10,3,-3,-6,-1
1532075345411,1,3,-5,-11,2,3,1,1
1532075345416,1,0,2,2,-7,-7,-2,1
1532075345421,0,1,-4,-6,-1,-4,-3,-4
1532075345426,-1,-1,-3,10,0,0,2,2
1532075345431,-2,3,2,5,1,-2,-3,-2
1532075345436,-1,-8,-6,-6,0,1,2,-2
1532075345441,-5,-7,2,3,4,3,2,0
1532075345446,-1,-6,-4,-5,3,6,2,-1
1532075345451,2,9,-3,-8,-4,-7,-4,-1
1532075345456,1,6,4,9,-5,-8,-1,1
1532075345461,0,-1,-1,-3,-13,-8,-5,-1
1532075345466,-2,0,1,-5,11,5,1,-2
1532075345471,0,3,3,4,10,16,4,3
1532075345476,-1,6,1,-1,6,3,1,-1
1532075345481,-2,-14,1,18,-12,-9,0,-2
1532075345486,2,19,1,-28,-10,-10,-5,0
1532075345491,-5,-35,-5,1,0,0,-1,-3
1532075345496,-2,2,0,-4,8,10,0,-1
1532075345501,3,5,-1,-3,-3,-4,-1,0
1532075345506,4,14,1,4,-6,1,-3,4
1532075345511,-3,-14,-2,-3,6,-1,2,-1
1532075345516,-4,-6,-5,3,-1,5,-2,-6
1532075345521,1,-6,-1,-15,-6,-8,1,-2
1532075345526,0,-6,-3,14,4,5,2,2
1532075345531,2,18,1,0,1,1,-3,-1
1532075345536,-1,-4,0,2,-6,-7,-2,0
1532075345541,-2,5,-3,-20,4,0,-2,-3
1532075345546,-1,-7,2,9,-5,-8,-1,-2
1532075345551,-1,2,-2,2,-9,-6,-3,-3
1532075345556,1,3,3,-9,-11,-8,-5,-1
1532075345561,-1,-3,-7,9,8,6,4,2
1532075345566,-1,-4,10,-28,5,13,3,-2
1532075345571,-1,9,1,3,-4,-7,-2,-1
1532075345576,2,-1,-1,-3,4,0,-1,1
1532075345581,-5,-21,-5,-9,-7,-3,-1,0
1532075345586,-1,-2,-5,5,-3,0,-1,-4
1532075345591,4,9,0,1,3,5,2,0
1532075345596,-6,-17,-3,0,-18,-8,-4,-2
1532075345601,-1,10,1,-6,14,3,-1,-2
1532075345606,2,4,-2,-6,11,6,1,1
1532075345611,-4,-3,1,38,-7,-11,-6,1
1532075345616,-2,-2,-3,15,11,10,2,-2
1532075345621,0,-6,-4,-33,-4,3,3,1
1532075345626,-1,1,-1,-7,-5,-4,0,-2
1532075345631,2,12,0,-10,-5,-7,-4,-2
1532075345636,0,1,2,5,-3,-5,0,3
1532075345641,-1,-1,0,-1,-3,-1,-4,-2
1532075345646,0,-1,-2,11,1,-5,0,-1
1532075345651,-4,-4,-2,-8,-6,-1,-3,-4
1532075345656,-2,-5,-1,-5,1,3,3,-1
1532075345661,0,8,5,4,2,-1,-1,0
1532075345666,-1,-6,-3,-1,-5,0,1,1
1532075345671,0,-1,0,1,-3,-2,-3,-2
1532075345676,2,9,1,6,-5,-1,-2,0
1532075345681,0,5,-1,-6,11,1,-2,1
1532075345686,-6,-23,-3,1,-17,-17,-5,-3
1532075345691,-3,2,1,-4,4,12,7,0
1532075345696,2,-4,-1,-3,7,2,1,3
1532075345701,2,-1,2,15,1,7,0,3
1532075345706,-1,0,-3,-7,-2,-2,0,-1
1532075345711,3,5,-2,-13,-2,-3,0,1
1532075345716,1,17,0,1,-6,-6,-1,0
1532075345721,-7,-26,-6,10,-7,-7,-4,-6
1532075345726,-4,-6,-1,-14,1,4,9,-6
1532075345731,1,-6,-4,11,5,2,-4,5
1532075345736,2,12,2,-3,2,0,-3,-1
1532075345741,0,3,1,6,-4,2,3,1
1532075345746,-4,-7,-1,3,-2,-6,-6,-3
1532075345751,-2,-2,0,-3,4,-1,4,-3
1532075345756,-1,3,-1,-12,-5,-3,1,0
1532075345761,2,9,2,-1,-5,1,-6,0
1532075345766,0,9,1,6,9,10,6,2
1532075345771,-5,-8,-1,-4,2,3,2,-3
1532075345776,-5,-20,-4,1,5,-1,-5,-4
1532075345781,-2,4,-2,-1,-5,-5,0,-2
1532075345786,3,7,0,1,-9,-9,-5,-1
1532075345791,0,5,0,0,-8,-13,-7,-3
1532075345796,1,7,3,4,0,14,5,1
1532075345801,-2,-4,-3,-9,12,9,6,2
1532075345806,1,-5,2,12,1,-8,-9,1
1532075345811,-1,2,0,7,0,-2,-2,-2
1532075345816,-1,-7,1,-8,1,-2,3,0
1532075345821,1,0,2,2,-6,3,2,0
1532075345826,-1,2,0,3,9,-1,-2,1
1532075345831,-2,-4,-4,-8,-7,-7,-4,-3
1532075345836,0,-2,-2,5,4,6,0,-1
1532075345841,-1,-1,-1,0,1,3,-7,-2
1532075345846,0,2,0,-2,4,6,9,6
1532075345851,-2,-4,-2,0,-8,-4,-1,-3
1532075345856,1,-5,-3,-10,-7,-7,-8,3
1532075345861,2,4,2,2,-9,-14,-7,-8
1532075345866,-1,-3,-2,3,2,7,3,-4
1532075345871,0,4,1,-8,9,13,6,4
1532075345876,-3,-1,-3,-2,-1,-5,0,0
1532075345881,-3,-4,-2,-1,-12,-7,-1,-2
1532075345886,-1,-1,-2,-4,2,-4,-9,-2
1532075345891,2,1,3,9,-1,0,3,-1
1532075345896,-5,-5,-9,-42,-19,-3,-6,-5
1532075345901,1,3,-3,1,3,-3,1,1
1532075345906,-1,6,-1,-6,2,9,4,-2
1532075345911,-5,-17,-2,7,4,0,-9,-3
1532075345916,-1,-3,1,9,-6,-12,-1,2
1532075345921,-2,2,1,-1,0,-4,0,-2
1532075345926,4,9,0,0,-8,2,-1,1
1532075345931,5,35,4,-6,3,0,0,4
1532075345936,-7,-40,-3,8,5,-2,-2,-8
1532075345941,-7,-18,-4,-2,-2,6,2,-3
1532075345946,-1,-7,-1,18,13,6,0,0
1532075345951,2,1,3,-5,-6,-2,-1,-2
1532075345956,3,19,5,0,-2,0,0,0
1532075345961,5,14,3,19,10,-2,-2,3
1532075345966,-2,15,-6,-28,-15,-10,-8,-1
1532075345971,-10,-43,-3,-2,-10,-5,-1,-4
1532075345976,-2,-9,3,16,5,1,-2,0
1532075345981,-2,-6,-8,-5,-4,5,3,1
1532075345986,4,9,5,3,7,0,-1,2
1532075345991,4,12,-4,-10,-2,0,-3,-2
1532075345996,-2,6,2,21,8,0,-3,-3
1532075346001,0,1,-4,-35,-23,-10,-6,-2
1532075346006,-5,-15,-2,20,-1,-2,0,-4
1532075346011,-2,-5,-3,-3,2,1,-1,2
1532075346016,2,-1,4,7,-1,-2,3,3
1532075346021,5,23,7,3,11,10,6,5
1532075346026,-1,-15,-5,-27,3,7,0,-1
1532075346031,-7,-5,1,41,-8,-10,-4,-5
1532075346036,1,10,-4,-10,-3,-2,-3,-3
1532075346041,1,3,6,17,14,-4,2,-2
1532075346046,1,-4,-3,-43,-10,14,4,0
1532075346051,2,1,-10,-27,0,-1,0,1
1532075346056,5,12,3,-2,-2,3,2,1
1532075346061,-1,2,1,0,-1,-2,-4,-2
1532075346066,-6,-11,3,19,-3,-11,-1,-4
1532075346071,0,3,2,-7,1,-1,-1,-1
1532075346076,-5,-6,-8,-10,0,-2,-3,-4
1532075346081,0,3,-2,2,13,11,0,-3
1532075346086,1,11,2,-7,-12,-6,-5,0
1532075346091,0,-9,-6,-5,-2,-3,-1,-2
1532075346096,-2,-11,-1,8,-9,-3,1,0
1532075346101,2,8,2,-9,-4,-5,-6,-2
1532075346106,-2,-9,-8,14,13,6,2,-3
1532075346111,-2,-6,1,20,18,4,-1,0
1532075346116,-1,2,1,6,-11,-5,1,-1
1532075346121,-3,-15,-6,-21,0,-5,-2,-1
1532075346126,-1,17,6,33,-17,-4,-1,3
1532075346131,2,-18,-2,-60,-5,4,-1,1
1532075346136,1,12,0,40,14,5,2,-2
1532075346141,-2,-2,-5,-8,-8,0,4,2
1532075346146,2,-2,2,8,20,-7,-2,-1
1532075346151,0,14,1,-16,-15,2,1,-3
1532075346156,-2,4,1,6,32,16,3,0
1532075346161,-6,-10,-1,-44,-37,-10,-4,-4
1532075346166,-6,-14,-9,-21,-23,-16,-9,-6
1532075346171,2,4,-3,4,-13,-8,2,0
1532075346176,4,9,5,-11,12,16,5,4
1532075346181,5,4,8,32,31,13,7,7
1532075346186,-2,2,-6,-17,17,10,8,3
1532075346191,-11,-12,1,13,-7,-8,-9,-9
1532075346196,-5,-1,-10,-39,-27,-16,-9,-5
1532075346201,-4,-21,-2,39,-6,-6,-5,-3
1532075346206,7,20,6,-1,-11,-6,0,1
1532075346211,6,10,2,3,10,5,2,3
1532075346216,-6,-1,-2,6,9,-1,-1,-1
1532075346221,-3,-9,-1,-17,-11,1,3,1
1532075346226,-5,-10,-4,1,-1,0,-1,1
1532075346231,5,13,5,23,6,0,1,1
1532075346236,1,6,1,-19,-4,-3,-8,-5
1532075346241,-1,2,1,13,-13,-18,-2,2
1532075346246,-2,-14,-3,-14,-5,5,4,-1
1532075346251,5,7,2,-2,39,28,10,4
1532075346256,-2,-7,-2,0,-17,-10,-4,-3
1532075346261,-2,-7,-4,11,2,-6,-4,-6
1532075346266,1,-1,5,-9,0,-3,-3,1
1532075346271,0,10,-3,7,-8,-1,0,1
1532075346276,2,3,-1,16,5,-3,1,4
1532075346281,-4,-10,-1,-5,7,6,-2,-2
1532075346286,-4,-4,-1,13,-4,-1,-6,-6
1532075346291,-3,-10,-3,-11,-2,-7,-3,-1
1532075346296,4,11,3,-10,-8,-6,-4,1
1532075346301,3,16,-1,5,-5,-2,2,4
1532075346306,-5,-28,-2,2,20,11,0,-2
1532075346311,-3,3,0,13,-19,-5,-5,-3
1532075346316,4,-10,-9,-20,6,1,5,2
1532075346321,-3,13,1,-8,17,12,-1,0
1532075346326,-4,-10,-5,9,-1,-4,0,-4
1532075346331,-1,-6,-4,4,-5,-6,0,0
1532075346336,-1,-4,0,-5,-11,-6,-4,-4
1532075346341,6,6,1,1,23,4,1,2
1532075346346,7,24,2,-11,-32,-2,-1,5
1532075346351,2,12,5,4,-5,-1,-2,-1
1532075346356,-5,-18,-3,-35,-12,5,-2,0
1532075346361,-16,-31,-8,42,-4,-12,-5,-11
1532075346366,-1,1,-1,13,34,3,2,0
1532075346371,8,10,2,-6,-42,-4,2,5
1532075346376,10,34,16,3,19,9,0,7
1532075346381,-10,-16,-22,2,-8,-3,-6,-6
1532075346386,-2,-8,-4,15,-21,-14,-4,-4
1532075346391,8,21,10,5,13,2,5,3
1532075346396,-9,-45,-11,10,17,3,1,0
1532075346401,0,5,4,-8,10,8,-3,-4
1532075346406,7,12,10,7,-38,-9,-4,1
1532075346411,1,5,-13,-9,26,2,-2,2
1532075346416,-10,-9,0,10,-32,-10,0,-7
1532075346421,-5,-9,4,10,66,4,-2,-5
1532075346426,-3,-7,-7,-22,-38,-5,-2,-3
1532075346431,3,9,3,-18,-50,-3,-1,3
1532075346436,2,8,-5,-3,-6,-2,-3,-4
1532075346441,6,17,-1,-18,-27,-6,-1,3
1532075346446,3,8,10,4,30,-6,-1,3
1532075346451,-12,-6,2,2,27,10,1,-5
1532075346456,-9,-41,-16,16,6,0,-1,-6
1532075346461,4,-3,-1,-62,-24,-8,-3,0
1532075346466,-5,6,-1,0,6,0,-2,-2
1532075346471,2,-6,1,6,6,-2,-1,0
1532075346476,2,7,2,-8,-2,-2,0,0
1532075346481,5,22,9,3,5,7,-1,1
1532075346486,1,-8,-10,8,18,10,9,1
1532075346491,-10,-22,-8,11,-15,-15,-7,-5
1532075346496,-1,9,11,0,7,1,-2,-2
1532075346501,11,13,-11,-9,-34,-9,3,0
1532075346506,6,27,17,7,23,1,-6,5
1532075346511,-10,-39,5,-18,15,27,7,-3
1532075346516,-10,-33,-22,43,7,-7,-4,-7
1532075346521,-5,-10,-2,-3,-18,-4,-2,-2
1532075346526,-1,3,-7,-14,-15,-10,0,-3
1532075346531,11,26,13,20,23,0,17,3
1532075346536,7,18,6,-18,-3,4,14,-10
1532075346541,-6,-7,-2,-7,-8,-2,-52,-6
1532075346546,12,-3,4,23,22,18,36,12
1532075346551,-10,-11,-10,-12,4,-4,-55,-11
1532075346556,-2,6,4,-10,-5,-4,33,1
1532075346561,2,-3,-1,18,-8,-17,-13,0
1532075346566,-2,-3,-1,-8,-10,-1,-10,-18
1532075346571,-1,-9,-9,-5,3,3,19,3
1532075346576,3,10,-2,-14,-8,1,-4,-2
1532075346581,0,3,10,17,20,18,11,1
1532075346586,-6,-13,-7,-11,0,-6,-17,-1
1532075346591,-1,0,-6,-10,-18,-10,0,-5
1532075346596,0,6,4,9,12,-2,-15,3
1532075346601,3,-1,1,0,-2,1,21,1
1532075346606,-5,-6,-4,-8,-6,-5,-5,-1
1532075346611,-1,-1,-2,4,0,-4,21,-11
1532075346616,4,8,5,-1,-5,-3,-45,2
1532075346621,0,1,0,-2,1,3,8,9
1532075346626,-4,-2,-6,-5,-8,-3,2,2
1532075346631,-3,-13,0,2,6,-5,-2,-1
1532075346636,-1,2,2,-3,0,4,6,-1
1532075346641,-1,-3,-1,-8,-10,-7,-5,-5
1532075346646,-3,-2,-3,11,6,1,-7,-4
1532075346651,5,10,-2,-4,10,15,17,28
1532075346656,1,4,-1,-3,3,3,-3,-9
1532075346661,-3,-4,-2,3,4,-2,-1,-8
1532075346666,2,4,1,-3,-11,-13,13,3
1532075346671,-5,-8,-2,0,-10,-9,-17,-2
1532075346676,-5,-14,-5,2,7,4,-6,12
1532075346681,1,6,4,-9,9,6,15,-1
1532075346686,-5,-13,-8,-3,-13,-1,-14,-2
1532075346691,1,11,0,16,-5,-8,-2,-9
1532075346696,2,8,1,-12,-12,-5,5,4
1532075346701,-1,-4,0,12,-7,-9,1,-4
1532075346706,-2,-3,-5,-6,-9,-6,7,1
1532075346711,2,2,-1,1,25,16,-10,2
1532075346716,2,1,-1,5,7,7,5,-3
1532075346721,-1,-5,-3,-5,2,3,1,2
1532075346726,-1,6,0,-6,0,-2,-6,-5
1532075346731,-4,-21,-1,0,-18,-14,-9,-10
1532075346736,-2,-1,-2,-19,2,-6,6,-1
1532075346741,-4,-11,-5,6,-16,-1,34,9
1532075346746,0,5,1,10,21,13,-24,-8
1532075346751,1,10,-1,-22,-12,-7,-10,-9
1532075346756,2,-4,0,-7,3,8,-22,17
1532075346761,1,4,1,4,2,1,2,0
1532075346766,-1,-1,3,-2,2,1,2,7
1532075346771,3,6,-1,8,6,-9,4,-1
1532075346776,2,6,-1,-3,-42,-26,6,-3
1532075346781,-2,-8,-1,6,13,14,7,5
1532075346786,-1,-11,0,-6,29,29,9,1
1532075346791,-5,-4,-6,-2,-4,-4,-11,0
1532075346796,1,7,1,-2,-6,-10,1,9
1532075346801,4,2,1,16,-9,-7,22,-6
1532075346806,-5,-9,-3,-7,-5,-8,-34,-2
1532075346811,-1,-4,-4,21,-13,-7,20,7
1532075346816,2,9,1,-22,-1,5,8,-16
1532075346821,2,5,2,-8,2,9,8,8
1532075346826,4,2,1,16,14,0,-19,-2
1532075346831,5,-41,-7,6,6,-4,-14,-3
1532075346836,-13,0,1,-5,-2,1,37,-4
1532075346841,26,13,-1,-1,-10,-5,-30,-7
1532075346846,-1,12,2,-16,-12,0,-1,-2
1532075346851,5,5,1,-16,21,12,-17,15
1532075346856,2,0,-6,56,-16,-12,-2,-14
1532075346861,-58,-2,1,-11,36,16,-7,-13
1532075346866,9,-29,-7,40,-41,-18,6,-4
1532075346871,-11,-11,-7,-47,-12,-16,3,-8
1532075346876,-7,5,4,-13,-5,3,-12,1
1532075346881,12,19,2,11,-8,-6,-4,11
1532075346886,19,25,4,-8,17,17,12,3
1532075346891,-18,-6,4,21,13,15,27,3
1532075346896,4,-37,-8,-10,12,0,-19,-8
1532075346901,5,-4,-5,-5,-19,-14,-11,7
1532075346906,-2,29,7,-24,6,-6,25,4
1532075346911,0,6,1,-1,-14,-5,-61,7
1532075346916,-8,-2,-1,-17,18,16,6,5
1532075346921,3,-15,-1,3,-13,-2,-2,-7
1532075346926,-13,-14,-2,-1,2,-5,3,1
1532075346931,4,25,4,-13,-19,-17,20,-4
1532075346936,8,5,3,-10,-17,-12,-11,-2
1532075346941,-9,-17,-5,3,31,29,3,-3
1532075346946,0,1,-3,28,4,7,8,-2
1532075346951,4,9,-1,-12,-1,1,4,-4
1532075346956,11,41,8,58,60,11,-2,4
1532075346961,-13,-49,-24,-49,-100,-54,-16,-7
1532075346966,-17,-15,-4,-3,0,-1,23,-10
1532075346971,-2,-2,-1,8,6,4,-20,-10
1532075346976,-3,0,6,2,-1,4,25,9
1532075346981,10,33,12,-1,35,22,-18,6
1532075346986,3,-4,0,-4,-8,-8,-6,-6
1532075346991,-5,-8,-1,8,-8,-4,12,-4
1532075346996,5,7,-5,-23,3,5,-3,0
1532075347001,-4,1,-4,15,5,2,6,-1
1532075347006,-6,-15,-7,-12,-4,-5,-2,-1
1532075347011,7,14,1,1,10,1,5,-2
1532075347016,-3,-7,-4,1,-15,-6,-10,-1
1532075347021,2,-1,0,5,2,-7,-7,-2
1532075347026,-9,-10,-3,0,2,-1,-10,1
1532075347031,-2,7,1,2,8,13,13,-2
1532075347036,-3,-9,-5,-14,-16,2,-2,-2
1532075347041,0,1,4,24,18,0,-2,-4
1532075347046,7,14,0,-51,-7,-4,23,2
1532075347051,4,2,0,15,1,3,-29,2
1532075347056,-5,-17,-4,28,-10,-21,-26,4
1532075347061,6,10,7,0,26,17,37,-2
1532075347066,0,-1,-2,4,-12,0,-15,-4
1532075347071,-2,-4,-2,-3,5,-2,17,-6
1532075347076,0,14,11,0,-8,-3,-4,1
1532075347081,-2,-6,-18,-3,-2,0,-3,-1
1532075347086,-4,-5,-3,-3,-21,6,9,-3
1532075347091,2,-1,-2,-17,-12,0,-2,2
1532075347096,2,7,7,29,1,-2,-5,5
1532075347101,1,1,4,-8,0,-3,3,3
1532075347106,-8,-8,-1,7,-6,-11,-6,-5
1532075347111,1,-7,2,-5,18,17,-1,3
1532075347116,-1,3,-2,-2,5,-5,-3,2
1532075347121,3,7,6,8,4,3,6,-1
1532075347126,-4,-3,-4,-31,-6,-1,-2,-7
1532075347131,-2,-9,-2,-2,-11,-11,-1,0
1532075347136,-2,5,-3,3,6,3,-14,-10
1532075347141,1,1,2,4,-3,2,5,2
1532075347146,1,4,9,-1,3,5,3,0
1532075347151,-1,-2,2,3,-6,-11,-4,-4
1532075347156,0,4,-12,-10,13,4,1,-1
1532075347161,-5,-7,-2,14,-12,-5,-6,-3
1532075347166,-2,-5,-3,2,0,5,4,2
1532075347171,-1,0,-3,-7,0,-1,-3,-3
1532075347176,8,32,18,5,3,-3,-2,1
1532075347181,-1,-19,2,1,5,4,0,6
1532075347186,-7,-21,-2,-11,-2,-3,2,-3
1532075347191,-4,-8,-15,3,0,0,-2,0
1532075347196,0,0,1,-11,-35,-6,0,1
1532075347201,3,20,6,9,25,0,0,-1
1532075347206,5,12,-3,3,11,8,0,2
1532075347211,-3,-9,6,-12,-32,-5,-3,-2
1532075347216,-8,-6,-7,17,12,5,1,-7
1532075347221,-2,-6,-5,-7,-24,-12,-1,4
1532075347226,1,0,3,18,24,8,0,-1
1532075347231,4,7,11,1,12,-1,-3,1
1532075347236,-1,-6,-13,-5,-6,-3,0,5
1532075347241,-1,0,3,-13,-5,-3,-3,-4
1532075347246,2,9,1,8,2,-4,4,-4
1532075347251,-1,-8,1,3,-1,-2,0,-3
1532075347256,-3,-6,1,5,1,3,0,-3
1532075347261,0,-1,-17,-4,6,2,1,0
1532075347266,1,1,5,-18,-12,-9,-10,-3
1532075347271,4,9,-2,27,10,3,0,-1
1532075347276,-2,-4,-5,-17,-12,0,-4,-3
1532075347281,-3,-1,-7,2,0,-3,-3,-5
1532075347286,-4,-1,-20,-23,-35,-4,0,-2
1532075347291,-9,-35,-17,5,-6,-10,-5,-5
1532075347296,3,5,5,1,1,-4,1,4
1532075347301,-3,-8,2,2,7,4,0,-3
1532075347306,0,7,2,3,5,4,4,1
1532075347311,2,5,2,-17,0,-1,-4,-2
1532075347316,3,3,-3,-20,4,0,-4,-6
1532075347321,-1,7,-1,16,-12,-2,3,3
1532075347326,-8,-24,0,26,-4,-7,-1,-1
1532075347331,-2,1,2,-11,3,3,-1,-2
1532075347336,-1,-4,-20,-2,1,-1,5,-3
1532075347341,5,12,27,-15,5,1,-17,-2
1532075347346,1,0,2,17,-4,2,5,3
1532075347351,2,4,-2,3,3,1,2,8
1532075347356,-1,0,2,-10,2,-2,1,0
1532075347361,-2,-5,-5,-1,17,7,4,-1
1532075347366,0,-1,-3,-13,-19,-3,-3,1
1532075347371,1,2,-16,-1,-9,-3,-3,0
1532075347376,0,-1,5,-4,13,3,1,1
1532075347381,-2,-4,9,-9,-6,-2,2,1
1532075347386,-1,5,7,38,13,-2,-2,-3
1532075347391,-6,-9,-20,-40,-7,-3,0,-5
1532075347396,-3,-6,-6,10,-1,-4,1,0
1532075347401,0,-2,-6,2,-1,-3,-1,-1
1532075347406,-1,-4,-24,-18,10,5,-3,-13
1532075347411,5,14,15,19,-2,0,2,5
1532075347416,-4,-13,-32,-18,0,-3,-3,-2
1532075347421,4,17,3,3,-5,-2,3,4
1532075347426,-7,-45,-15,-11,-4,-2,-8,-1
1532075347431,-3,0,2,2,45,-3,-6,-7
1532075347436,-2,-1,12,-7,-52,-1,1,0
1532075347441,1,6,-30,-12,-56,-11,-2,2
1532075347446,5,20,21,-8,14,2,0,5
1532075347451,-2,-3,3,5,-1,3,0,-1
1532075347456,0,2,17,35,26,-3,-4,5
1532075347461,-4,-3,14,-25,-2,-2,1,-5
1532075347466,3,9,14,-9,-1,0,-2,0
1532075347471,-3,-6,-6,7,7,-1,-4,-6
1532075347476,3,8,-5,5,11,3,-3,-2
1532075347481,-5,-11,-7,-3,1,-1,-3,-3
1532075347486,0,9,2,-2,10,0,0,-3
1532075347491,1,4,1,-8,-6,3,-2,-1
1532075347496,-4,-9,5,0,-16,-5,4,-1
1532075347501,3,1,3,15,11,4,-5,-2
1532075347506,-4,-3,-12,0,4,-5,2,-1
1532075347511,1,3,5,-5,-14,-1,3,4
1532075347516,3,8,-12,12,0,5,-4,-1
1532075347521,-3,-4,64,8,12,1,11,1
1532075347526,6,30,14,4,14,1,0,2
1532075347531,-4,-14,35,3,-30,-6,-2,-3
1532075347536,-3,-14,-25,-9,5,2,4,0
1532075347541,-1,-7,-1,14,20,-1,-3,-3
1532075347546,0,-10,-20,16,49,16,-1,0
1532075347551,5,32,18,-6,-88,-9,2,-4
1532075347556,-6,-26,-1,3,10,1,-4,-3
1532075347561,-2,-12,-24,-15,-21,-5,-7,-6
1532075347566,-2,-12,-5,-30,0,-5,-3,2
1532075347571,-3,9,-19,37,40,-2,-6,-3
1532075347576,0,8,19,-7,-3,2,2,0
1532075347581,2,3,-20,7,11,4,-3,0
1532075347586,1,2,13,10,-8,-3,0,2
1532075347591,1,1,-11,-28,3,0,5,4
1532075347596,0,14,20,7,-11,-6,-6,-2
1532075347601,-5,-14,16,5,5,-2,1,-3
1532075347606,0,-3,-3,2,-15,1,-2,-1
1532075347611,-3,-8,3,-15,1,1,4,1
1532075347616,9,27,-2,33,44,2,4,4
1532075347621,5,11,10,-11,-45,-9,1,6
1532075347626,-12,-30,-1,7,-12,3,2,-15
1532075347631,-7,-27,-37,-28,7,0,-5,-4
1532075347636,-4,-14,-6,2,13,1,-2,-2
1532075347641,-2,14,64,16,18,-4,-2,-4
1532075347646,5,13,-3,1,-51,-7,2,7
1532075347651,-1,-1,-73,-55,-9,-4,-3,-2
1532075347656,4,-7,0,-18,-4,-4,0,3
1532075347661,-1,16,21,8,28,5,-3,-3
1532075347666,-2,-21,-27,-14,-38,-4,0,4
1532075347671,-5,-13,43,44,20,3,2,0
1532075347676,-1,-4,-5,-19,-11,-4,1,0
1532075347681,1,-2,-38,-10,-6,-2,1,0
1532075347686,3,12,1,5,28,0,2,3
1532075347691,5,11,-26,4,8,4,2,3
1532075347696,-3,7,6,-1,14,2,-9,-2
1532075347701,8,9,-7,7,-5,-3,22,5
1532075347706,-1,38,16,3,9,4,4,1
1532075347711,-15,-87,-7,27,-1,2,0,-4
1532075347716,-5,8,5,-39,-17,0,-5,-6
1532075347721,-8,-21,-53,-17,-11,-3,-4,-4
1532075347726,7,21,-6,12,4,-3,-5,-1
1532075347731,10,52,47,12,16,-1,5,2
1532075347736,-11,-27,8,13,9,7,1,-6
1532075347741,-7,-34,-22,-17,-18,5,5,0
1532075347746,0,-5,15,-14,-1,-2,5,2
1532075347751,3,11,20,19,32,6,-2,2
1532075347756,12,23,16,-11,-29,-4,1,5
1532075347761,-11,13,37,26,5,-3,-8,-6
1532075347766,1,1,22,31,-4,-6,3,5
1532075347771,4,19,-10,-11,12,3,-9,-4
1532075347776,2,-22,-3,-3,9,-2,3,5
1532075347781,-6,11,2,-1,11,2,4,-1
1532075347786,-9,-27,-9,25,-2,1,-3,-9
1532075347791,-6,-19,2,-24,-3,-1,-4,-7
1532075347796,4,11,9,-5,-11,-11,-4,0
1532075347801,5,13,-11,-12,-3,-1,5,2
1532075347806,0,9,6,21,0,-2,0,1
1532075347811,3,2,7,0,9,3,2,-2
1532075347816,8,32,-4,-18,-15,5,-2,3
1532075347821,-5,-11,8,24,5,-6,-2,3
1532075347826,-16,-34,2,2,35,5,1,-8
1532075347831,-8,-13,-37,-25,-45,-16,-13,-7
1532075347836,-5,-3,-16,1,1,-5,-4,-4
1532075347841,4,-10,9,-6,-24,-8,-2,0
1532075347846,3,14,16,-14,-9,0,-7,4
1532075347851,13,14,-21,-12,14,4,-7,7
1532075347856,3,46,8,4,8,-1,-14,-1
1532075347861,-12,-63,-7,2,-3,-1,-4,-3
1532075347866,-8,8,-40,1,2,0,-6,-4
1532075347871,-11,-22,7,-11,0,2,10,-9
1532075347876,0,0,1,26,0,-1,6,0
1532075347881,13,57,10,-30,12,5,7,1
1532075347886,-7,-31,-12,8,-23,-3,9,3
1532075347891,-1,4,-5,-18,-2,0,1,2
1532075347896,-3,-20,1,3,-7,-2,0,-1
1532075347901,0,22,-3,24,15,3,-6,-1
1532075347906,-3,-32,-10,-19,-32,-12,-2,-2
1532075347911,-4,-8,0,11,-2,2,-6,-3
1532075347916,4,-4,-6,6,16,4,6,-1
1532075347921,4,14,8,7,-9,-4,-1,0
1532075347926,-2,9,5,-37,-37,-13,3,-3
1532075347931,11,8,5,13,8,2,5,8
1532075347936,-25,-91,-11,16,18,5,-6,-6
1532075347941,-7,-6,-49,-66,2,-2,1,-8
1532075347946,6,19,23,17,-15,-2,0,-2
1532075347951,5,23,-4,10,7,0,2,0
1532075347956,11,20,6,-12,-6,2,-4,7
1532075347961,5,-11,0,-5,8,4,2,2
1532075347966,-13,-10,-12,7,35,2,2,-8
1532075347971,1,-2,-2,-7,-39,-9,-8,-1
1532075347976,7,28,14,21,8,3,-7,1
1532075347981,1,-9,2,-3,-22,-8,-1,0
1532075347986,12,41,0,-27,-8,1,-6,1
1532075347991,-4,-19,12,52,42,8,-3,-2
1532075347996,-16,-31,-16,-93,-23,-5,-6,-8
1532075348001,-5,-10,7,54,-2,-7,2,-1
1532075348006,12,7,11,16,6,2,1,2
1532075348011,5,29,-3,-36,0,2,-1,2
1532075348016,0,7,-14,-3,0,1,-3,1
1532075348021,6,0,12,-12,8,1,0,0
1532075348026,1,-6,-7,17,2,-1,-1,2
1532075348031,4,-5,7,33,18,6,1,4
1532075348036,-23,-39,-12,-46,-28,-11,0,-13
1532075348041,-5,7,-12,8,-1,1,-5,2
1532075348046,24,46,-2,-3,-8,-4,-2,4
1532075348051,-9,-14,6,30,0,1,3,0
1532075348056,-7,3,6,16,26,5,-2,-3
1532075348061,-15,-26,-14,-66,-31,-14,-1,-8
1532075348066,-2,-7,3,-6,0,2,-1,-3
1532075348071,6,18,-1,-6,0,-1,2,4
1532075348076,8,23,16,26,0,-2,2,3
1532075348081,-1,-1,-7,-4,5,7,-6,1
1532075348086,4,10,9,7,15,8,-2,6
1532075348091,-3,2,-2,26,26,4,4,-2
1532075348096,-2,-10,-25,-72,-79,-25,1,-6
1532075348101,-4,-10,-4,47,-10,-3,-8,-5
1532075348106,0,-2,-3,7,-7,-2,4,5
1532075348111,-8,-36,-4,4,2,3,-8,-2
1532075348116,8,16,12,33,30,8,-3,0
1532075348121,-1,2,-6,-21,14,4,4,3
1532075348126,-4,-3,7,-1,-18,-3,-4,2
1532075348131,2,1,-14,2,-7,-7,-1,-5
1532075348136,17,50,13,5,9,4,4,11
1532075348141,-9,-41,3,-7,-6,-2,-2,-2
1532075348146,7,24,1,-23,21,6,-5,-6
1532075348151,-38,-54,-11,-4,-15,-6,3,-2
1532075348156,7,-4,2,15,2,-3,0,-6
1532075348161,10,26,15,59,20,7,0,4
1532075348166,-1,-8,-10,-9,-9,-5,6,7
1532075348171,9,47,25,-25,-11,-3,-1,-8
1532075348176,-21,-59,-23,14,-2,-1,-6,-7
1532075348181,3,37,9,12,2,2,1,1
1532075348186,-7,-36,0,28,17,3,2,0
1532075348191,-4,-14,-6,-25,13,-5,-4,-2
1532075348196,-2,-5,-8,30,-24,-4,0,7
1532075348201,-1,3,-16,-79,-36,-9,0,-8
1532075348206,6,7,-11,38,1,1,-3,-1
1532075348211,2,-11,-2,5,4,5,3,0
1532075348216,-7,-8,-3,1,12,-3,2,-2
1532075348221,-2,-4,-3,-4,-3,-2,-1,-1
1532075348226,-1,10,-1,-2,-5,0,-2,-2
1532075348231,15,29,1,-36,6,7,-1,5
1532075348236,3,-4,8,53,15,1,4,1
1532075348241,-6,-34,-12,-14,-12,-4,2,-4
1532075348246,-2,3,10,27,8,-1,0,-4
1532075348251,14,46,14,22,6,4,-3,-3
1532075348256,4,-4,-25,-59,6,7,-7,0
1532075348261,2,-15,-7,31,-10,-8,7,2
1532075348266,-17,-38,5,20,4,0,-3,-5
1532075348271,-3,5,-25,-32,-13,-7,-4,-6
1532075348276,7,34,2,1,-3,0,1,3
1532075348281,-5,8,9,-4,10,7,-3,5
1532075348286,11,9,10,55,-1,-1,-1,7
1532075348291,0,33,17,6,4,-1,14,8
1532075348296,-4,-29,14,12,-6,-4,3,-8
1532075348301,6,-3,-6,70,52,12,-2,-2
1532075348306,-3,0,-16,-80,-38,-11,-4,-7
1532075348311,-12,-23,1,33,-4,0,-4,-2
1532075348316,0,10,-1,-53,9,5,0,4
1532075348321,23,14,8,-3,-10,-1,16,-6
1532075348326,-1,34,14,17,24,-1,-18,-2
1532075348331,-21,-34,-13,-63,-10,0,-18,-11
1532075348336,-4,-13,-3,23,6,0,-3,-4
1532075348341,2,2,-13,-74,-30,-12,0,7
1532075348346,-37,-44,-13,-43,3,0,14,2
1532075348351,17,8,4,28,-12,-6,0,9
1532075348356,2,24,25,26,12,2,-2,7
1532075348361,-1,3,-4,-7,3,2,-3,-2
1532075348366,-4,-14,-5,-9,-7,-3,2,-6
1532075348371,2,-3,11,44,11,4,-8,-2
1532075348376,2,-9,-26,-39,-13,-5,2,-3
1532075348381,-18,1,24,34,-8,-5,4,-7
1532075348386,5,-6,-17,-24,-8,0,-1,-5
1532075348391,0,-9,3,22,6,2,-3,-2
1532075348396,6,10,-6,-32,2,3,3,16
1532075348401,-21,-9,-4,-2,-5,-2,5,-13
1532075348406,21,22,13,25,9,2,-23,-12
1532075348411,14,8,-41,-29,-20,-8,10,9
1532075348416,-7,6,14,17,-2,-1,-8,-5
1532075348421,-6,-17,-26,-24,-6,-1,-10,1
1532075348426,-11,-12,2,11,0,-2,14,4
1532075348431,0,-14,2,-1,2,0,3,-4
1532075348436,4,13,12,7,3,0,12,0
1532075348441,1,17,3,27,1,3,-10,0
1532075348446,1,-1,-1,10,6,0,-1,0
1532075348451,12,11,0,-28,5,4,-5,2
1532075348456,-11,-8,14,32,-8,-6,13,-7
1532075348461,1,-1,14,3,1,1,-11,3
1532075348466,-3,-5,-12,-1,-11,-4,14,1
1532075348471,-7,-2,12,-31,-4,0,-20,-7
1532075348476,-4,-7,-10,-39,-4,-4,-10,-6
1532075348481,3,-2,3,3,1,4,-5,9
1532075348486,6,10,13,-3,-3,-2,6,-7
1532075348491,-5,-6,-8,-2,-1,0,6,0
1532075348496,8,2,3,39,20,7,-9,-1
1532075348501,-4,1,1,-38,-13,-6,6,2
1532075348506,3,-4,-1,10,0,-3,-10,0
1532075348511,-12,10,13,24,38,12,1,-2
1532075348516,-15,-17,-11,-6,-35,-16,4,-11
1532075348521,5,10,-9,43,-7,-6,4,0
1532075348526,-10,2,14,-4,-1,4,4,6
1532075348531,3,-10,14,27,5,-2,11,-1
1532075348536,4,13,-11,-11,19,8,-1,5
1532075348541,-10,0,1,-15,-9,-2,12,-6
1532075348546,55,35,5,15,3,-1,-12,1
1532075348551,-4,103,11,-13,-10,-3,1,5
1532075348556,-49,-94,-3,5,7,3,0,-13
1532075348561,-19,-7,-31,-4,11,-2,-17,-16
1532075348566,1,15,-5,-7,4,3,4,0
1532075348571,-14,-41,-16,-47,-33,-12,-4,-7
1532075348576,28,56,9,-18,-7,1,9,14
1532075348581,2,6,15,15,23,10,-1,5
1532075348586,-9,-10,-6,-21,9,5,4,2
1532075348591,6,-19,-11,30,-35,-18,13,1
1532075348596,1,18,15,13,10,5,-1,6
1532075348601,1,-23,-2,-16,-6,-4,-2,-4
1532075348606,-6,0,-10,-1,1,5,-5,1
1532075348611,6,-8,11,4,21,10,14,8
1532075348616,9,10,14,24,21,7,13,10
1532075348621,-9,-24,-49,-64,-57,-19,-51,-11
1532075348626,-17,-5,-8,-12,-9,-7,-1,-28
1532075348631,-12,-26,-8,12,6,-3,-10,-11
1532075348636,16,13,5,16,6,-3,9,-3
1532075348641,18,37,24,-5,15,7,10,18
1532075348646,-12,-13,4,-2,-5,-3,2,3
1532075348651,7,-7,0,-27,5,10,-14,0
1532075348656,-21,-7,-19,49,-17,-19,13,-5
1532075348661,17,-2,13,19,10,4,8,3
1532075348666,-25,-15,-15,-17,-12,-3,-9,-2
1532075348671,9,17,13,11,22,9,-2,0
1532075348676,-1,2,-2,-48,-27,-8,-13,-1
1532075348681,-1,2,4,4,10,5,1,-1
1532075348686,-2,-1,-3,-44,-17,-9,3,1
1532075348691,14,21,-3,22,1,-1,8,8
1532075348696,-3,11,4,-7,-1,4,-16,-2
1532075348701,-26,-33,0,28,5,-1,1,-12
1532075348706,2,-3,-4,-29,19,5,-1,1
1532075348711,-16,-28,-2,-12,-33,-14,-6,-9
1532075348716,12,27,-1,0,-6,0,-12,-4
1532075348721,19,36,12,5,16,6,5,9
1532075348726,-11,-14,12,18,12,5,1,6
1532075348731,-2,15,11,-8,-6,-1,-1,3
1532075348736,-19,-27,-14,43,-7,-5,-15,-16
1532075348741,17,4,8,-3,0,-2,12,5
1532075348746,-14,10,5,18,-8,-4,1,0
1532075348751,7,-38,-32,-12,-2,-5,-3,-21
1532075348756,9,12,8,-2,16,10,-13,4
1532075348761,-4,1,-9,-1,5,4,-11,0
1532075348766,17,4,48,16,-14,-6,18,8
1532075348771,-35,-19,0,-2,-1,1,7,-4
1532075348776,7,6,-3,2,6,2,-8,-5
1532075348781,1,15,3,8,-2,-2,-7,-4
1532075348786,4,-1,-9,-12,2,2,-4,1
1532075348791,-1,-10,-6,10,0,-3,-3,3
1532075348796,5,-7,-3,-11,-5,-1,7,-1
1532075348801,-6,-3,1,-12,-2,-1,2,2
1532075348806,6,-1,-12,6,2,0,-2,-2
1532075348811,1,-2,-5,-9,-5,1,0,3
1532075348816,0,6,-5,-12,-4,-3,3,1
1532075348821,2,-1,2,4,2,0,3,1
1532075348826,-6,-12,-17,3,0,1,-12,-3
1532075348831,3,9,1,1,-1,-2,-9,0
1532075348836,5,5,9,-10,8,5,2,7
1532075348841,-9,-15,-5,-6,-13,-5,-22,-6
1532075348846,-2,-3,-7,-2,-1,-1,-13,-2
1532075348851,-2,1,6,13,0,1,-4,4
1532075348856,-1,0,0,-27,7,2,10,-10
1532075348861,8,3,4,15,15,2,23,0
1532075348866,-3,0,-4,12,-22,-8,8,0
1532075348871,5,1,13,4,1,0,10,2
1532075348876,-2,-7,-15,-3,4,1,0,4
1532075348881,-4,1,4,19,1,-1,-2,4
1532075348886,6,4,-2,-8,4,2,5,6
1532075348891,9,11,-15,6,6,5,22,-2
1532075348896,1,-6,34,0,5,-2,34,7
1532075348901,-3,-3,-9,-10,-15,-3,24,1
1532075348906,2,-4,-25,-31,-19,-11,-17,-7
1532075348911,-7,-4,14,-1,-3,4,7,-5
1532075348916,-3,-17,-77,-20,-8,1,-4,-1
1532075348921,2,3,11,-9,4,-2,-2,5
1532075348926,0,0,13,22,7,-1,-1,10
1532075348931,4,-1,-7,-10,4,-8,-21,-6
1532075348936,-1,3,5,0,2,-1,-49,-5
1532075348941,-2,-5,2,6,0,2,-27,-6
1532075348946,-8,-11,-13,18,-23,-26,-28,-15
1532075348951,2,4,7,-4,12,12,-10,-2
1532075348956,0,-5,-2,2,-6,1,5,-5
1532075348961,1,-1,-26,-32,-43,4,1,2
1532075348966,1,4,4,4,9,7,16,0
1532075348971,-2,-3,7,-8,-20,-33,-12,-12
1532075348976,-2,-3,9,6,-11,-6,15,6
1532075348981,2,7,-8,12,21,5,86,4
1532075348986,9,7,21,-4,22,12,34,9
1532075348991,1,-1,-1,-5,-1,4,63,10
1532075348996,-1,-10,-14,-4,-7,-9,0,-4
1532075349001,-4,-2,3,-2,1,-4,-84,-12
1532075349006,-2,0,-1,5,32,10,-74,-4
1532075349011,-2,-3,-7,-19,-32,-2,-107,3
1532075349016,4,15,18,14,-23,7,-91,3
1532075349021,-5,-10,12,-4,6,3,-38,-1
1532075349026,-5,-6,-5,-5,-2,-5,29,-4
1532075349031,-3,-2,-5,7,35,5,39,-2
1532075349036,-4,-9,-1,-5,-39,-8,44,-2
1532075349041,-1,5,2,6,14,-2,13,-6
1532075349046,-2,-6,-1,-9,13,8,25,1
1532075349051,1,-1,-13,5,19,24,29,5
1532075349056,3,5,0,-2,-2,15,30,3
1532075349061,-2,3,7,8,12,6,20,-2
1532075349066,-3,5,2,1,39,-2,10,-5
1532075349071,-3,2,-6,-28,-84,-21,8,1
1532075349076,-2,-4,-3,4,15,-2,-4,-3
1532075349081,-3,-2,-7,-14,-23,-12,3,-3
1532075349086,-1,3,6,14,4,-9,-1,-4
1532075349091,-3,-7,5,3,13,-1,8,-2
1532075349096,0,-5,-3,-10,-28,-1,-10,-4
1532075349101,-3,-3,0,5,16,0,-9,-1
1532075349106,0,2,11,21,34,2,2,0
1532075349111,0,5,-3,-8,-57,-10,-9,-1
1532075349116,-2,-7,15,-4,-35,-8,-7,0
1532075349121,1,-2,1,2,-1,-1,-4,-3
1532075349126,-6,-9,-18,-14,5,-4,0,-5
1532075349131,3,-1,-2,7,15,1,-5,2
1532075349136,1,1,-30,-15,-14,6,-4,-1
1532075349141,2,1,7,15,8,0,3,3
1532075349146,4,7,8,-8,14,0,-6,-2
1532075349151,-1,-1,-10,4,9,-5,-6,-6
1532075349156,-3,-2,11,10,-9,-7,-5,-4
1532075349161,-3,-12,-83,-25,-22,-8,-9,-7
1532075349166,0,3,73,6,3,-1,5,4
1532075349171,3,4,-3,-6,18,7,2,3
1532075349176,4,10,19,19,9,1,-1,1
1532075349181,-7,-19,-32,-11,-8,-5,-9,-5
1532075349186,3,1,0,16,-5,-5,-5,-3
1532075349191,1,0,-22,-34,12,4,1,-2
1532075349196,-1,-3,5,17,-18,-1,1,1
1532075349201,3,4,16,6,-1,3,0,3
1532075349206,-3,-10,-55,-29,-11,-5,-10,-6
1532075349211,0,3,24,12,3,-9,-1,-2
1532075349216,1,0,-18,-20,-2,3,0,0
1532075349221,0,3,18,12,11,5,7,3
1532075349226,5,10,5,49,31,12,7,4
1532075349231,-11,-18,-69,-65,-51,-20,-11,-7
1532075349236,0,-2,-5,1,-7,-7,-7,-4
1532075349241,-2,0,29,13,5,-3,-1,0
1532075349246,0,-1,-11,-28,-5,6,0,3
1532075349251,0,1,12,-13,3,-6,-3,-4
1532075349256,0,-5,-41,-20,-1,-5,-7,-1
1532075349261,-2,-7,-3,18,9,-7,-2,-3
1532075349266,-2,-3,-8,-19,-10,4,1,0
1532075349271,7,15,22,7,18,10,0,4
1532075349276,-13,-16,-6,-60,-38,-22,-4,-10
1532075349281,6,1,-5,22,41,29,18,9
1532075349286,0,0,8,11,8,-6,0,-2
1532075349291,0,-1,-1,2,-3,1,-1,1
1532075349296,-2,-1,-4,-12,10,8,0,-3
1532075349301,-4,-2,7,-6,-5,-1,-7,-3
1532075349306,1,6,-7,14,3,-4,-7,-2
1532075349311,-5,-9,5,-10,-17,-12,3,-3
1532075349316,-2,-3,-2,13,1,-5,-3,2
1532075349321,-1,-2,11,-4,-7,-3,-3,-1
1532075349326,2,0,-28,-19,2,11,3,2
1532075349331,1,14,31,3,-6,-6,-6,-2
1532075349336,2,-3,15,19,11,-1,1,0
1532075349341,-3,-6,-18,-34,-12,-2,0,-2
1532075349346,-4,-7,-16,42,-20,-10,-3,-2
1532075349351,-7,-20,-22,-47,-29,-9,-8,-5
1532075349356,1,0,-38,-17,13,7,5,1
1532075349361,-3,-4,13,-23,-25,-9,-9,-4
1532075349366,-2,3,22,20,19,2,3,-2
1532075349371,2,0,-29,6,-6,-15,-9,-4
1532075349376,-4,-1,22,-21,2,-5,-3,-6
1532075349381,1,-3,-15,-15,-9,20,10,8
1532075349386,-2,-2,8,7,25,12,5,3
1532075349391,-2,-3,-2,18,-18,3,4,3
1532075349396,2,4,6,2,-1,-5,-7,-3
1532075349401,0,2,-8,-24,-7,-14,-7,-4
1532075349406,0,-1,10,8,0,1,1,-1
1532075349411,1,1,6,-21,9,5,3,3
1532075349416,-4,-4,-2,-6,-12,-11,-2,-2
1532075349421,-2,-2,-6,12,-1,-3,-4,-2
1532075349426,0,-1,5,-23,-2,-1,0,-2
1532075349431,0,2,-3,17,15,2,-1,-1
1532075349436,0,-7,-2,21,-8,-3,0,0
1532075349441,-2,0,-23,1,9,1,1,-1
1532075349446,5,-8,2,-13,-11,-8,-4,-3
1532075349451,4,12,-2,6,2,-4,-3,-5
1532075349456,-1,0,8,15,2,0,6,1
1532075349461,-3,0,6,14,6,9,2,3
1532075349466,1,-6,-11,-9,-3,-7,-6,0
1532075349471,-1,1,2,13,12,8,2,0
1532075349476,-2,-3,-4,-5,-15,-6,-7,-1
1532075349481,6,0,4,19,21,2,1,-2
1532075349486,0,4,8,4,-8,19,7,4
1532075349491,-2,-6,-1,-10,8,2,-2,2
1532075349496,-1,5,5,-2,-1,-4,-2,0
1532075349501,-6,-8,-1,-1,1,-11,-9,-5
1532075349506,-5,-1,1,-22,-27,-11,-3,-2
1532075349511,-3,-4,-3,-3,-3,1,1,-3
1532075349516,3,8,-2,-5,2,5,-2,0
1532075349521,1,-1,3,35,2,-3,2,1
1532075349526,0,0,-1,1,7,-7,0,-2
1532075349531,2,-4,-4,-16,-14,-1,0,1
1532075349536,-1,2,-2,8,2,4,3,0
1532075349541,5,13,17,1,17,6,2,0
1532075349546,-7,-11,-3,-37,-18,-6,-5,-7
1532075349551,-2,-2,2,15,3,-3,-4,-5
1532075349556,0,-1,-3,-3,3,2,-1,0
1532075349561,5,12,7,12,10,9,2,5
1532075349566,-4,-9,2,20,11,0,0,-1
1532075349571,-3,-6,-10,-19,-1,-1,-1,-1
1532075349576,0,-3,1,-14,-1,-5,-5,-4
1532075349581,-3,-5,-4,20,-34,-11,-5,-4
1532075349586,0,4,-2,9,25,1,1,-1
1532075349591,-1,1,5,-13,-2,12,3,0
1532075349596,-4,-7,-4,7,-8,-5,-2,0
1532075349601,-4,-5,-10,-6,-15,-19,-10,-5
1532075349606,1,3,-3,-7,-18,4,7,3
1532075349611,-1,-1,4,17,15,11,1,2
1532075349616,2,1,4,-7,5,8,2,2
1532075349621,-2,-4,-1,-17,-4,-4,-4,-7
1532075349626,-3,-3,-1,4,-3,-10,0,-3
1532075349631,0,0,1,16,7,2,3,4
1532075349636,-2,-1,0,8,-1,4,-1,0
1532075349641,-1,0,1,-23,-4,0,1,-1
1532075349646,-1,0,-3,-10,-3,-9,-5,-4
1532075349651,-1,-2,-2,-7,-10,-6,0,0
1532075349656,-2,-1,1,11,5,-2,-2,-2
1532075349661,-1,1,1,0,3,3,2,1
1532075349666,-1,9,4,-16,7,5,-1,-1
1532075349671,-2,-5,-3,15,1,-2,-1,-3
1532075349676,-5,-11,-8,-14,-31,-15,-7,-4
1532075349681,1,0,1,7,6,6,4,1
1532075349686,5,5,-6,-15,9,10,4,5
1532075349691,-2,-2,14,27,4,-6,-4,-4
1532075349696,1,1,1,-1,0,-1,-1,1
1532075349701,1,0,-4,-13,-3,3,-1,0
1532075349706,1,2,8,42,23,3,0,-6
1532075349711,-3,1,-8,-36,-5,-5,-2,2
1532075349716,-4,-14,-12,46,-24,-13,4,0
1532075349721,2,2,7,-8,9,11,5,6
1532075349726,-3,-1,-1,-1,-7,0,-1,1
1532075349731,3,5,-1,0,7,2,-5,-5
1532075349736,1,5,3,-26,9,4,-3,-3
1532075349741,-5,-3,-7,-17,-14,-11,-3,-2
1532075349746,1,4,4,5,8,2,-4,0
1532075349751,-4,-9,-11,13,-11,-7,0,0
1532075349756,0,2,3,5,7,1,1,1
1532075349761,-1,3,0,1,-1,-1,-1,-2
1532075349766,-3,-11,-2,-29,-13,-2,-4,-2
1532075349771,1,0,2,-10,-4,-9,-3,1
1532075349776,1,13,9,9,15,12,7,2
1532075349781,10,-1,-10,-2,10,4,-2,-1
1532075349786,-18,-21,0,13,0,-5,0,2
1532075349791,-20,-6,-3,4,-15,-4,3,-1
1532075349796,-2,1,1,-25,4,0,-1,-2
1532075349801,5,16,2,-6,10,3,-2,-2
1532075349806,1,8,0,6,-13,-5,-4,-4
1532075349811,9,1,7,11,9,1,2,2
1532075349816,13,2,-14,-31,-6,1,-2,6
1532075349821,-29,-28,-26,-11,-10,-10,-10,-16
1532075349826,11,19,56,1,6,5,4,6
1532075349831,-3,-7,-3,-2,-10,-3,-5,-6
1532075349836,6,4,0,-7,3,6,2,0
1532075349841,5,7,1,7,-3,-2,1,3
1532075349846,-5,-17,-15,0,-4,-5,-6,-5
1532075349851,7,9,-5,-5,7,4,3,1
1532075349856,-6,-3,-3,0,1,-4,-7,-4
1532075349861,-2,-6,1,2,-10,-11,-2,-2
1532075349866,0,1,0,8,2,8,7,1
1532075349871,3,0,-15,-11,2,3,-1,5
1532075349876,-5,-5,-10,8,19,7,-1,-3
1532075349881,-4,-1,7,-3,-11,-3,-3,1
1532075349886,0,-4,-15,-4,-5,-8,-5,-6
1532075349891,2,-1,1,-9,-5,-1,1,-5
1532075349896,-4,-8,-3,-4,-4,-2,0,-5
1532075349901,7,9,23,19,4,1,7,8
1532075349906,-11,-24,-64,-34,-4,-5,-9,-9
1532075349911,3,4,7,13,9,3,3,3
1532075349916,1,1,2,6,2,-4,-4,2
1532075349921,0,1,5,5,6,8,1,-1
1532075349926,2,4,-17,-12,-18,-1,-3,2
1532075349931,-2,-1,18,9,-5,-2,-2,-4
1532075349936,-2,0,0,-9,4,-1,-2,-1
1532075349941,1,2,8,8,0,-3,1,2
1532075349946,3,6,11,9,-6,-1,5,3
1532075349951,0,3,3,-1,25,11,2,1
1532075349956,0,4,12,3,-15,-3,0,0
1532075349961,-3,-5,-8,0,7,2,-1,-4
1532075349966,1,7,8,5,-5,-1,2,2
1532075349971,-2,-2,-3,-11,-6,-1,-2,-1
1532075349976,0,2,9,2,-1,2,-2,0
1532075349981,-7,-17,-25,-8,-7,-7,-2,-2
1532075349986,0,2,12,3,6,-2,2,-3
1532075349991,0,-2,-15,-4,0,-1,0,-2
1532075349996,0,2,2,2,-11,-6,-4,-3
1532075350001,2,0,-2,-2,3,-2,2,4
1532075350006,2,13,15,2,-7,2,1,3
1532075350011,-3,-11,-4,1,0,0,-6,-7
1532075350016,-2,-6,7,11,3,4,3,0
1532075350021,-1,0,0,-8,2,-3,-3,-2
1532075350026,1,-2,-9,0,6,-2,-3,-1
1532075350031,2,12,9,-2,-8,-4,0,0
1532075350036,0,0,2,-4,7,-3,2,-3
1532075350041,0,-3,3,1,-4,2,-1,-3
1532075350046,1,4,6,11,8,0,-3,-1
1532075350051,0,1,2,6,-2,1,3,2
1532075350056,-4,-9,-15,-26,-12,-6,-3,-2
1532075350061,1,1,-1,-2,-4,-3,1,4
1532075350066,-1,-6,-8,-7,4,2,-2,-10
1532075350071,3,3,-2,5,3,4,3,3
1532075350076,-5,-5,-11,2,3,2,3,-1
1532075350081,1,5,3,4,-4,-1,0,-1
1532075350086,-4,-4,-6,-2,-3,-5,-5,-2
1532075350091,-1,-2,-4,-3,1,1,1,1
1532075350096,0,2,2,4,4,1,-2,-2
1532075350101,1,-1,0,-3,-3,-2,1,0
1532075350106,2,2,6,9,2,1,-1,0
1532075350111,-3,-11,5,-7,-5,-6,-3,-4
1532075350116,-1,-4,-24,-6,-3,-3,-3,-1
1532075350121,-1,2,-1,4,1,4,3,2
1532075350126,-1,-7,-7,-10,5,6,3,-2
1532075350131,-4,-3,-7,1,-3,-2,-5,-1
1532075350136,0,1,9,-3,-7,-3,-1,-3
1532075350141,1,-1,-3,-6,-9,-8,-10,-3
1532075350146,-1,4,3,2,11,3,3,3
1532075350151,-1,0,-7,-4,0,-1,-5,-4
1532075350156,-2,2,6,5,3,-2,-4,1
1532075350161,2,3,-3,-1,4,12,9,3
1532075350166,-2,-7,-8,-8,-12,-6,-6,0
1532075350171,-2,-1,4,-8,-7,-6,-3,-2
1532075350176,-1,-1,5,-1,-4,-4,-2,1
1532075350181,0,-3,-9,-5,-5,-8,-6,-10
1532075350186,-5,-1,28,36,7,1,0,-6
1532075350191,3,2,-9,-40,-4,5,1,4
1532075350196,-2,-4,-12,18,4,2,-1,-3
1532075350201,-2,-1,-6,-30,-13,-4,-4,1
1532075350206,-2,-10,-2,1,-6,-7,2,11
1532075350211,-4,-1,4,3,-2,-3,-2,-15
1532075350216,4,5,13,6,11,7,2,4
1532075350221,-5,-1,-8,0,-13,-6,-6,-3
1532075350226,2,-1,-9,-31,-2,0,-1,1
1532075350231,-1,-1,4,5,-16,-10,-2,1
1532075350236,0,-1,-2,-4,18,8,6,0
1532075350241,-3,-1,6,19,9,5,-2,-1
1532075350246,5,7,-1,-9,10,4,0,0
1532075350251,-3,-7,-10,3,-13,-5,21,9
1532075350256,-4,-9,7,-6,-13,-10,-3,2
1532075350261,-2,-2,-8,1,4,2,21,1
1532075350266,-1,-19,-24,-10,-2,4,12,3
1532075350271,1,12,-8,-1,4,-3,-39,-9
1532075350276,-2,1,-8,-3,3,2,-3,4
1532075350281,11,6,13,16,3,13,83,56
1532075350286,17,10,4,-12,2,3,-34,4
1532075350291,-32,-2,34,2,-10,-15,-49,-57
1532075350296,-3,3,-2,-4,-1,-3,0,-15
1532075350301,-6,5,8,-3,2,-7,-34,-20
1532075350306,5,17,20,12,27,6,49,25
1532075350311,11,8,0,-8,-41,5,31,23
1532075350316,1,12,15,1,5,-1,-18,-7
1532075350321,-1,-7,24,3,-22,-1,0,3
1532075350326,-5,-11,-7,-8,-7,-5,0,-3
1532075350331,8,-1,8,3,23,2,-4,-2
1532075350336,3,10,-8,10,2,3,11,8
1532075350341,-1,-15,-36,-12,10,0,-11,-6
1532075350346,-8,-5,18,3,-14,-9,-12,-9
1532075350351,0,-4,-21,-1,2,-2,4,0
1532075350356,4,4,1,4,2,7,14,11
1532075350361,-1,1,-7,-16,4,-2,-18,-9
1532075350366,-6,-3,0,-1,-11,-7,-10,-10
1532075350371,1,1,0,-6,8,4,18,7
1532075350376,5,3,3,3,2,1,2,10
1532075350381,-9,-11,2,14,-12,-7,-27,-17
1532075350386,-7,-11,-15,9,-8,-3,2,-2
1532075350391,6,1,4,-3,4,1,8,5
1532075350396,1,-5,-6,16,7,1,-2,0
1532075350401,1,7,-2,-20,4,10,24,1
1532075350406,0,8,8,8,0,0,-43,-3
1532075350411,7,3,-1,9,2,-1,3,5
1532075350416,-1,-4,-5,-8,-9,-2,-8,-7
1532075350421,-4,6,6,-7,0,-4,0,-3
1532075350426,4,-2,-1,18,8,5,44,35
1532075350431,8,-4,5,-9,9,14,9,-16
1532075350436,-7,-6,-19,18,5,-10,-63,-34
1532075350441,2,6,3,-3,3,-3,-1,-9
1532075350446,-8,-6,1,-4,-10,-3,-8,-16
1532075350451,3,1,1,8,-5,-4,20,23
1532075350456,11,5,3,-17,-7,5,33,17
1532075350461,-5,-9,7,15,5,-3,-30,-14
1532075350466,-1,1,4,-3,-7,-8,4,6
1532075350471,-9,-6,-3,-14,-6,-4,3,-1
1532075350476,-4,-5,-1,5,31,5,8,-1
1532075350481,-1,1,-1,-10,-7,-1,-15,2
1532075350486,3,3,-5,-10,-32,0,3,-7
