1532162161822,1,0,-2,-1,2,-8,-15,5
1532162161827,-27,-5,-4,-4,-2,15,-20,-8
1532162161832,6,3,1,4,14,9,10,3
1532162161837,4,-1,0,-2,-7,-3,29,19
1532162161842,12,1,0,1,-3,0,19,0
1532162161847,-11,0,-3,-2,-5,-12,-19,-25
1532162161852,-1,-2,-2,-1,-5,-67,14,60
1532162161857,6,2,1,0,0,-7,-27,-9
1532162161862,-14,-1,0,2,4,46,87,-5
1532162161867,-3,-1,1,-2,0,-11,-51,-56
1532162161872,20,3,-1,-3,0,34,10,59
1532162161877,-5,0,1,1,6,-9,-15,12
1532162161882,-2,0,-1,-3,-6,-26,-47,1
1532162161887,-6,-2,1,3,0,2,-27,-43
1532162161892,4,1,0,-1,3,-38,6,21
1532162161897,1,0,0,-2,-3,31,5,23
1532162161902,4,0,-2,-3,-6,-43,-67,-8
1532162161907,3,-1,-1,2,2,-41,24,13
1532162161912,-9,-3,-1,0,8,54,-13,-70
1532162161917,-6,2,-1,-3,-11,4,-13,33
1532162161922,9,3,2,-1,13,24,-15,18
1532162161927,9,2,2,0,-1,-18,17,23
1532162161932,-19,-5,-2,-2,-7,-3,15,-67
1532162161937,9,-1,-2,-2,-7,8,-48,28
1532162161942,-7,-4,-3,2,-4,-56,29,-30
1532162161947,-8,-4,-5,-10,-22,71,-6,-45
1532162161952,20,9,4,5,23,69,24,87
1532162161957,-17,-2,4,5,8,-66,-15,-113
1532162161962,-11,-9,-8,-8,-19,-32,-58,-19
1532162161967,47,12,5,5,-2,-34,105,105
1532162161972,-16,-4,-3,-7,-19,-46,-19,-97
1532162161977,1,-5,-4,-2,4,55,-9,-28
1532162161982,-11,-1,0,2,12,17,-5,-53
1532162161987,-14,-5,-4,-4,-6,-32,-9,-3
1532162161992,-5,-2,-1,0,-26,18,-5,4
1532162161997,8,3,3,3,15,19,35,18
1532162162002,-3,-1,0,3,23,-15,9,-34
1532162162007,7,-1,-1,1,13,-4,-8,40
1532162162012,1,2,2,-3,-7,7,12,17
1532162162017,-2,-5,-5,-4,-17,-95,-33,-3
1532162162022,0,0,2,1,-8,21,22,-25
1532162162027,-5,-4,-5,-5,-3,-22,-24,-3
1532162162032,-12,-6,-1,4,8,-29,14,-28
1532162162037,10,2,1,0,-4,64,-38,52
1532162162042,13,2,2,-1,-2,-11,6,87
1532162162047,-5,-1,0,0,-2,12,11,-45
1532162162052,-13,-4,-3,-1,-3,-57,11,-36
1532162162057,-1,-2,1,1,11,109,6,39
1532162162062,13,3,1,-2,-5,-24,38,81
1532162162067,-9,-2,1,2,-2,47,-12,-37
1532162162072,3,-2,-4,-9,-16,-67,9,29
1532162162077,-8,-3,-2,-2,6,-48,-12,-87
1532162162082,-11,-3,0,1,-18,34,-19,-43
1532162162087,-14,-7,-5,-1,20,-14,-4,-6
1532162162092,14,2,0,1,7,30,-5,43
1532162162097,11,5,-8,-1,-4,-17,35,18
1532162162102,-4,-3,7,1,-6,26,14,-30
1532162162107,14,5,-2,-4,-6,-26,22,106
1532162162112,-21,-7,2,4,12,18,-28,-110
1532162162117,-3,-3,-5,-2,0,-4,-17,95
1532162162122,-9,1,-11,-3,-2,4,0,-42
1532162162127,8,-1,7,-1,-10,19,-30,-36
1532162162132,3,-4,-10,1,11,19,10,14
1532162162137,-1,2,9,-2,-9,-14,-4,-26
1532162162142,-21,-5,-5,-3,0,6,-7,7
1532162162147,33,-3,-2,-1,3,8,-11,-21
1532162162152,2,-1,-7,-3,-3,6,-5,16
1532162162157,0,7,10,3,-3,-12,10,-16
1532162162162,23,7,4,-1,4,-16,-1,51
1532162162167,-14,-2,-5,0,4,1,1,10
1532162162172,-5,-10,-9,-4,-2,-1,-14,-8
1532162162177,-8,-12,-1,-3,-1,-18,20,-47
1532162162182,1,-9,-30,0,1,-12,-16,-6
1532162162187,-13,28,39,6,2,20,37,10
1532162162192,1,-17,-11,-7,-8,-19,-15,-6
1532162162197,4,14,13,7,8,0,-2,-5
1532162162202,5,0,0,0,-1,-9,-4,-22
1532162162207,-15,-8,-17,0,-1,-20,-18,-17
1532162162212,2,0,4,0,1,12,8,29
1532162162217,-6,-7,-5,-2,0,-5,10,-38
1532162162222,-9,-3,8,0,-2,4,14,23
1532162162227,9,2,-4,-2,-7,-15,7,8
1532162162232,10,10,11,1,11,24,19,28
1532162162237,-2,-8,-9,-3,-5,-51,-14,-26
1532162162242,3,3,2,0,0,-10,-2,9
1532162162247,-7,-8,-2,-1,0,5,-5,-3
1532162162252,-2,1,-1,0,-5,-26,5,-19
1532162162257,-14,-2,-4,0,-4,-6,-4,2
1532162162262,5,-1,2,-1,1,-1,-3,9
1532162162267,-9,-12,-8,-2,3,11,1,-14
1532162162272,8,13,-3,2,-2,7,-4,10
1532162162277,-5,2,13,2,1,19,-6,-10
1532162162282,2,8,10,-2,-5,13,16,36
1532162162287,-7,-14,-12,-1,5,4,-6,-22
1532162162292,-11,-5,-6,-3,-4,5,0,2
1532162162297,11,2,-5,-4,-10,2,1,17
1532162162302,-1,0,0,-2,0,23,-4,-28
1532162162307,-3,-2,-6,-3,-2,-21,-8,7
1532162162312,13,9,9,4,12,34,3,18
1532162162317,1,0,-4,0,3,-7,10,-2
1532162162322,0,-3,1,0,-1,0,-7,-7
1532162162327,-2,1,0,1,-10,-11,3,-2
1532162162332,-7,-3,5,1,-1,-10,-9,-15
1532162162337,2,-2,-3,-4,-4,21,1,1
1532162162342,-5,-1,-2,-1,7,-18,-2,-5
1532162162347,-1,-2,0,-1,6,-3,-10,1
1532162162352,0,1,1,-3,-21,-26,-6,-5
1532162162357,2,-4,-6,-2,4,20,-6,1
1532162162362,-2,-3,-2,-1,-1,-12,-1,2
1532162162367,4,3,1,-1,5,18,5,1
1532162162372,-3,-2,3,1,1,-4,2,-7
1532162162377,-6,-5,-5,-2,-13,-17,-8,-11
1532162162382,4,1,1,-2,-5,0,-4,27
1532162162387,4,4,1,-1,-3,-2,3,-7
1532162162392,-3,-1,0,2,6,17,0,-2
1532162162397,-4,-7,-2,-2,-5,-20,-4,-5
1532162162402,-2,-1,1,-1,-1,0,3,-8
1532162162407,2,0,-1,-2,2,11,-2,14
1532162162412,-2,0,1,1,2,-4,4,-7
1532162162417,0,3,-2,0,3,8,-2,1
1532162162422,1,-2,-2,0,-5,10,-1,-2
1532162162427,-4,-2,-2,2,-2,0,-2,-3
1532162162432,0,-1,-2,-4,-16,-25,-5,-6
1532162162437,3,-1,-4,-4,-3,13,1,6
1532162162442,-3,1,1,4,15,-19,4,0
1532162162447,-2,1,-1,-2,-9,-25,3,-3
1532162162452,-1,-3,-1,-2,8,47,-1,6
1532162162457,6,2,-2,0,0,9,10,22
1532162162462,-3,-3,-2,-2,-12,-22,-8,-6
1532162162467,-1,1,2,4,11,20,7,-8
1532162162472,-1,1,2,0,-10,-19,-8,-2
1532162162477,-5,-3,-3,-5,-1,2,-3,-16
1532162162482,-1,0,0,-1,6,0,4,3
1532162162487,0,-1,-2,0,-19,33,-1,-8
1532162162492,-1,1,0,-5,7,-29,-6,-10
1532162162497,-1,1,1,-3,-9,11,1,1
1532162162502,-1,-3,-2,1,3,-30,-2,-1
1532162162507,-2,-1,0,3,6,-4,-2,-1
1532162162512,-1,0,-2,-2,-13,13,5,-6
1532162162517,2,-1,-2,-4,-4,-5,2,11
1532162162522,-2,-2,-2,0,6,22,-2,-3
1532162162527,0,-1,1,0,2,-33,13,3
1532162162532,3,1,2,3,3,11,-7,3
1532162162537,0,0,-3,-4,-7,-2,0,-4
1532162162542,-2,-2,0,1,1,15,-4,5
1532162162547,1,1,-1,-1,6,-33,3,5
1532162162552,-1,-2,0,-1,-7,17,-5,-7
1532162162557,-4,-2,1,1,4,6,1,-3
1532162162562,-2,-1,-3,-7,-16,-12,-1,-8
1532162162567,1,0,1,3,-2,13,11,4
1532162162572,-3,-2,-2,-3,5,1,-2,-1
1532162162577,-2,0,0,0,0,-8,-7,0
1532162162582,2,1,-2,-1,2,7,5,6
1532162162587,-3,-1,-3,0,-2,4,-5,-6
1532162162592,3,0,-3,-3,-3,1,5,-2
1532162162597,0,1,1,2,-1,-26,-6,-2
1532162162602,-2,0,-1,-2,6,-12,-1,-1
1532162162607,-3,-2,-2,-6,-40,-15,-10,-3
1532162162612,2,-1,-3,-1,21,38,-8,-1
1532162162617,-3,-2,-1,-1,10,-18,-4,-4
1532162162622,0,2,1,0,2,39,4,-4
1532162162627,-2,2,1,1,9,-5,-7,-4
1532162162632,-2,-3,-2,-3,-21,-2,-3,-5
1532162162637,-1,-1,-1,-3,-11,5,7,1
1532162162642,0,-2,-1,-1,-3,-10,-1,6
1532162162647,-1,0,2,2,29,10,-7,-5
1532162162652,-1,2,0,-1,-6,4,6,-10
1532162162657,0,-3,-3,-4,-7,-25,-9,21
1532162162662,1,2,1,2,3,6,5,0
1532162162667,-5,-2,-3,-2,1,-3,-10,-8
1532162162672,-3,-3,0,-1,-1,-17,-1,13
1532162162677,-4,-1,-1,0,-2,-7,6,-10
1532162162682,-1,0,1,1,-3,22,0,-1
1532162162687,-4,-5,-1,0,7,-27,-18,-10
1532162162692,2,0,1,1,-1,36,7,-10
1532162162697,3,0,-2,-1,-7,15,5,12
1532162162702,-2,2,-1,-1,3,-41,-2,2
1532162162707,-2,-1,-1,0,-4,-4,-2,-12
1532162162712,-5,-4,-5,-9,-14,-22,-15,6
1532162162717,0,-3,0,-1,1,22,-24,-4
1532162162722,-2,-3,-1,1,7,-34,-1,-2
1532162162727,6,4,1,0,-3,-15,11,19
1532162162732,-4,-2,0,0,-15,5,-1,-1
1532162162737,-1,0,-1,-4,10,10,7,-11
1532162162742,1,1,2,5,19,14,1,5
1532162162747,-6,-6,-4,-3,-6,9,-17,-5
1532162162752,0,0,0,-1,-8,-27,4,-13
1532162162757,3,1,0,-1,-22,6,3,-5
1532162162762,-9,-4,-3,-4,-4,28,-13,-9
1532162162767,7,6,3,1,8,-25,29,-8
1532162162772,-4,-2,0,5,13,-18,-5,2
1532162162777,0,6,2,5,7,16,32,-5
1532162162782,4,-4,-5,-8,-45,-37,3,5
1532162162787,2,-1,-1,3,36,45,2,15
1532162162792,-1,0,-1,-2,-20,-22,25,-2
1532162162797,-3,-3,-2,-1,35,17,-31,-11
1532162162802,0,1,0,-3,-32,0,7,15
1532162162807,-4,-3,-3,-5,21,105,-1,-16
1532162162812,2,1,0,1,-6,1,6,6
1532162162817,-7,-3,-2,2,-23,-96,-7,1
1532162162822,8,9,3,2,-38,-45,-11,-21
1532162162827,-7,-6,-6,-6,35,12,8,6
1532162162832,1,0,1,6,50,51,6,0
1532162162837,-1,-3,-3,-2,-8,34,16,1
1532162162842,-5,-1,-1,-1,13,39,-8,-12
1532162162847,-1,2,3,3,-39,-92,-7,-17
1532162162852,0,1,-1,-3,-6,36,13,39
1532162162857,3,-1,0,-4,-7,-47,-13,-26
1532162162862,2,-5,-4,-3,-31,55,8,30
1532162162867,3,4,3,5,56,-42,25,6
1532162162872,-7,0,0,0,-10,-25,-53,-42
1532162162877,-2,-2,0,1,-7,20,-7,4
1532162162882,0,0,0,1,17,60,2,-5
1532162162887,0,-3,-1,-2,-32,-78,-13,-7
1532162162892,-5,-3,-3,1,10,-3,0,-5
1532162162897,2,0,0,-1,0,2,6,4
1532162162902,0,-4,-1,-3,14,-13,-11,-6
1532162162907,1,3,-1,-2,-24,64,-2,15
1532162162912,1,-2,-1,-1,-6,-51,4,5
1532162162917,-1,-3,0,1,2,31,1,2
1532162162922,-5,1,1,3,27,-6,2,-21
1532162162927,2,-2,-1,0,-13,18,-13,35
1532162162932,2,3,0,1,22,25,9,-13
1532162162937,-4,-2,-4,-4,-12,14,-6,4
1532162162942,3,0,-1,0,13,-55,43,5
1532162162947,-1,0,0,2,-16,-3,-34,-11
1532162162952,-5,-6,-3,-1,-9,12,-4,1
1532162162957,0,1,-2,-2,-7,-38,-4,7
1532162162962,0,-1,1,3,19,15,1,2
1532162162967,-4,-3,-1,-3,-5,7,4,-6
1532162162972,6,0,-2,-4,-9,9,-10,14
1532162162977,0,2,-1,0,8,17,12,-13
1532162162982,-2,-4,-1,-4,-11,-21,-1,5
1532162162987,-2,-2,-1,0,16,5,2,0
1532162162992,-3,-1,1,-2,0,5,-4,-5
1532162162997,-1,0,1,0,6,2,11,5
1532162163002,0,-3,-2,0,-1,-8,-17,-7
1532162163007,-3,-4,-3,-3,-9,8,4,-14
1532162163012,0,1,0,-2,-11,-12,-4,11
1532162163017,2,0,3,3,11,5,1,-2
1532162163022,-2,0,-2,-1,2,-11,6,-1
1532162163027,-1,-2,-2,-1,-9,11,2,-10
1532162163032,-4,-1,-1,-1,-2,-18,5,2
1532162163037,-1,-1,-2,-1,2,36,-7,8
1532162163042,1,2,0,0,5,-7,-10,-4
1532162163047,-2,0,-1,0,0,-13,-1,3
1532162163052,3,-1,0,1,-5,0,52,-6
1532162163057,-3,0,-1,-3,0,9,-11,3
1532162163062,-4,-5,0,1,9,21,-11,-3
1532162163067,2,4,1,0,-9,5,5,5
1532162163072,1,-2,-2,2,1,-21,-4,7
1532162163077,3,0,0,-2,-2,-16,6,-1
1532162163082,0,0,-1,0,-2,-6,-10,2
1532162163087,-3,-2,-2,-2,-2,1,-2,-9
1532162163092,-1,2,0,-2,-2,11,-1,4
1532162163097,0,-1,-1,-1,-3,-1,-13,-3
1532162163102,1,1,-2,-3,-1,-8,-5,0
1532162163107,1,-3,-1,1,-2,-3,3,4
1532162163112,-1,-1,0,1,3,4,-11,-9
1532162163117,-3,0,0,0,2,3,4,-1
1532162163122,-2,1,1,-2,3,-9,8,1
1532162163127,0,-1,-1,-3,-6,1,1,0
1532162163132,-1,-3,-2,0,-1,7,-6,-5
1532162163137,-1,-2,-1,1,1,-18,-3,11
1532162163142,-2,0,-1,0,-3,-11,-5,-3
1532162163147,-1,0,-1,-4,6,31,11,4
1532162163152,0,0,0,-1,-6,-14,-11,-6
1532162163157,-3,-1,1,0,3,1,-2,-5
1532162163162,-2,0,0,1,2,0,-5,-1
1532162163167,0,2,1,-3,-8,-26,-1,2
1532162163172,-1,-1,-1,2,3,22,0,0
1532162163177,0,-1,-3,-2,3,20,3,-3
1532162163182,-2,-1,0,-1,-3,-20,0,2
1532162163187,1,-1,0,1,-1,-6,-5,-1
1532162163192,-1,-2,-3,-2,-2,-4,-5,-7
1532162163197,-5,-5,-3,0,-12,-10,-7,0
1532162163202,0,-4,-1,0,13,17,1,-8
1532162163207,2,1,-2,0,9,9,3,10
1532162163212,-3,0,-1,-4,-3,-4,-1,-5
1532162163217,-1,0,0,-1,0,-12,0,5
1532162163222,-2,-2,-2,-2,-7,-4,-2,-7
1532162163227,-3,-2,-2,0,-7,-9,-3,-10
1532162163232,2,0,0,-1,-1,4,-3,2
1532162163237,0,-1,0,-1,-2,-9,8,-3
1532162163242,-1,0,0,0,1,13,3,3
1532162163247,1,0,0,-2,-1,-1,-4,0
1532162163252,-2,-1,-1,-2,1,-9,-2,-2
1532162163257,0,-1,1,1,-1,-5,-1,-1
1532162163262,0,2,0,-1,2,-12,-4,0
1532162163267,1,0,-2,-2,-1,33,5,-6
1532162163272,-1,-2,0,-1,-1,-25,-6,7
1532162163277,1,2,-1,-1,2,-5,0,-1
1532162163282,-1,0,0,0,-4,-4,-2,-1
1532162163287,-4,-1,-1,-1,-6,0,0,-7
1532162163292,2,2,-2,-2,0,13,-16,-5
1532162163297,-2,1,-2,-1,5,5,14,0
1532162163302,1,-1,-1,-2,-5,17,-3,-1
1532162163307,-3,-2,0,-1,-2,-22,-1,-1
1532162163312,-1,0,1,1,1,-41,-1,0
1532162163317,-3,-1,-3,-3,-2,14,-7,-6
1532162163322,3,2,0,-1,4,20,9,1
1532162163327,-2,-1,-2,-1,0,-3,-4,6
1532162163332,1,0,-1,-2,-4,8,4,-3
1532162163337,1,-3,-2,-2,-1,-3,-3,9
1532162163342,-4,-2,-3,-2,0,-11,1,0
1532162163347,-1,-1,0,-2,-2,-19,-7,-4
1532162163352,-1,-1,-2,-2,-5,27,3,7
1532162163357,-1,-3,-2,-1,-1,-6,-1,-12
1532162163362,2,-1,1,2,-3,-20,-1,10
1532162163367,0,-1,0,1,4,-5,1,4
1532162163372,-1,-1,0,-2,-5,5,-2,-2
1532162163377,0,0,-2,1,3,14,0,-6
1532162163382,-6,-3,-3,-4,-5,-8,-15,-8
1532162163387,2,0,-2,-1,3,5,3,15
1532162163392,-1,-1,-1,2,4,0,5,-4
1532162163397,0,0,-2,0,-4,-2,-5,2
1532162163402,1,1,-1,0,1,-16,9,3
1532162163407,-7,-4,-2,-2,-6,-6,-22,-7
1532162163412,3,1,0,-2,3,14,1,5
1532162163417,-2,-1,0,0,-1,-5,-2,-1
1532162163422,0,-3,-2,-3,-6,2,-4,-1
1532162163427,0,-1,-1,-1,1,10,3,-6
1532162163432,-2,-3,0,-1,-2,-12,2,-2
1532162163437,-2,0,-1,-1,0,-17,-7,-4
1532162163442,0,1,1,-1,-8,-5,2,-1
1532162163447,2,0,0,1,0,30,19,5
1532162163452,-3,0,-1,2,6,-7,-5,-4
1532162163457,0,0,0,-2,-2,-1,0,9
1532162163462,-3,-1,-2,-1,-1,22,6,-19
1532162163467,3,-1,-2,0,-6,-34,-4,0
1532162163472,0,1,1,2,0,-19,-20,5
1532162163477,-1,-1,0,0,1,7,2,-1
1532162163482,-2,0,-2,-1,2,-1,2,1
1532162163487,-3,-2,0,0,-2,5,3,-7
1532162163492,-2,-4,-3,-2,-3,10,2,-1
1532162163497,-3,0,-2,-2,-4,-2,-9,-6
1532162163502,1,0,1,-2,2,8,5,5
1532162163507,0,0,-1,1,2,-5,-2,-2
1532162163512,-3,0,0,-2,-2,-14,-1,-2
1532162163517,-1,2,-1,-1,-1,-29,-7,-2
1532162163522,1,-1,-1,-2,-4,47,2,0
1532162163527,-1,-1,-2,-2,3,8,-3,-1
1532162163532,-1,1,-1,0,1,5,2,-4
1532162163537,-2,-2,-1,-1,-3,-10,1,-5
1532162163542,-1,0,0,0,0,-24,-5,-4
1532162163547,0,1,-1,-1,-2,18,-6,10
1532162163552,2,-1,1,-1,0,-11,9,-8
1532162163557,0,-1,-2,0,-1,2,-1,-7
1532162163562,-1,0,1,4,5,-14,3,-7
1532162163567,-2,0,-1,-1,-2,-17,-18,7
1532162163572,-3,-1,-2,-1,-4,5,4,-8
1532162163577,0,-3,-1,-2,-4,7,1,11
1532162163582,0,-1,-2,0,1,-6,-3,-10
1532162163587,1,-2,-2,-1,-4,-3,6,1
1532162163592,1,-1,1,1,2,9,-1,4
1532162163597,-2,-1,-2,-1,-2,11,1,-4
1532162163602,-2,-2,-1,0,3,4,4,4
1532162163607,1,2,1,2,5,-7,5,1
1532162163612,-2,-4,-4,-5,-9,-6,-7,-2
1532162163617,-1,0,1,3,4,7,5,-1
1532162163622,1,1,0,-3,-6,8,-33,6
1532162163627,-2,-4,0,0,1,-12,-11,-10
1532162163632,-1,0,-2,0,-1,-1,6,0
1532162163637,1,-2,-1,-2,-1,3,10,4
1532162163642,0,-1,-2,0,-1,-14,-13,1
1532162163647,-2,-1,0,-1,-1,7,1,-6
1532162163652,0,0,0,1,1,0,7,1
1532162163657,0,-3,1,-3,-4,2,-3,-6
1532162163662,-2,-2,1,2,3,-7,2,-4
1532162163667,0,-1,0,-3,-4,-4,-5,-3
1532162163672,1,0,-2,0,-1,-3,18,12
1532162163677,1,2,1,1,2,4,11,1
1532162163682,1,0,-1,0,0,-1,-6,2
1532162163687,-4,-1,1,-1,3,0,-2,-9
1532162163692,-2,-2,0,1,3,3,-14,-3
1532162163697,-1,-2,-3,-5,-9,-12,20,-2
1532162163702,1,-1,-1,2,4,9,-7,5
1532162163707,-1,-2,0,-1,-5,1,16,-1
1532162163712,-1,-2,-1,2,5,6,-1,-2
1532162163717,-1,-1,-2,0,1,-1,-13,1
1532162163722,-3,-3,-3,-2,0,-13,-10,-2
1532162163727,-1,1,0,-1,-4,-10,18,1
1532162163732,-4,-4,-4,-5,-4,1,-20,-5
1532162163737,0,-1,1,2,3,10,-5,-3
1532162163742,1,0,-2,-2,-2,-2,37,5
1532162163747,-1,0,-3,-3,0,7,-3,-2
1532162163752,2,1,3,3,0,1,7,2
1532162163757,-1,-2,-2,0,-2,11,-27,-1
1532162163762,-2,-3,-1,-5,-4,-7,6,-3
1532162163767,2,2,0,5,2,-25,2,6
1532162163772,-1,2,0,-1,0,4,18,7
1532162163777,-1,-3,-1,0,2,-3,0,0
1532162163782,-2,-2,-2,-1,-7,-12,-24,-14
1532162163787,-2,-1,-1,-3,2,3,6,8
1532162163792,2,1,-3,-2,1,-1,-3,-6
1532162163797,-2,0,-2,-2,-3,-1,26,-1
1532162163802,-2,0,-1,-2,-1,1,-3,-3
1532162163807,-2,-5,-2,-2,-6,-4,-25,-4
1532162163812,0,1,0,0,2,-2,6,0
1532162163817,-3,0,-2,0,-3,-5,2,-1
1532162163822,-2,0,-2,-1,1,2,12,1
1532162163827,-1,0,-1,5,18,33,-35,-5
1532162163832,1,-2,-1,-1,-1,-14,31,2
1532162163837,2,1,1,1,1,-24,-18,8
1532162163842,-3,-3,-1,0,-4,-13,15,-9
1532162163847,0,-3,-2,-2,-5,-1,-18,10
1532162163852,0,-1,-1,0,2,12,-16,-10
1532162163857,-3,-1,-2,-2,-5,-6,-10,4
1532162163862,3,1,0,-1,2,-1,13,6
1532162163867,-9,3,2,-2,-4,1,27,-1
1532162163872,-3,-3,-2,-3,-2,-6,-36,-8
1532162163877,1,-3,-1,-2,-3,-2,-5,-4
1532162163882,-1,-2,3,2,4,17,35,-3
1532162163887,8,-1,-4,-3,-3,13,-2,7
1532162163892,-1,3,1,-1,1,-1,-13,2
1532162163897,-17,-1,0,2,0,-22,6,-4
1532162163902,-16,-6,-3,1,4,-6,-12,-5
1532162163907,22,-2,-2,-1,-10,-28,9,-10
1532162163912,2,7,3,1,1,12,13,-2
1532162163917,-3,-2,-3,-3,-3,12,-43,-2
1532162163922,8,-2,1,-2,-2,21,30,-3
1532162163927,-13,-2,-1,-2,0,-17,-8,4
1532162163932,0,-7,-6,-3,-9,-15,-21,-5
1532162163937,10,4,0,2,0,-13,18,2
1532162163942,-15,-4,-3,-5,-6,42,-21,2
1532162163947,0,-1,0,2,9,6,11,-13
1532162163952,1,-1,0,1,2,-4,-1,16
1532162163957,-7,0,0,-2,-2,-12,13,2
1532162163962,10,3,1,1,-3,-23,2,13
1532162163967,4,1,-2,0,-3,-2,-15,0
1532162163972,-6,-3,-1,0,-1,15,-6,-8
1532162163977,17,-3,-1,1,0,5,23,8
1532162163982,-57,0,0,-1,-1,-25,-25,-7
1532162163987,80,10,1,-1,1,0,15,15
1532162163992,-7,-2,-2,-3,-5,-10,-3,-6
1532162163997,4,1,1,0,4,43,10,-15
1532162164002,5,-3,-1,-1,-1,-20,-7,-4
1532162164007,-20,-2,-2,-1,-5,-4,4,11
1532162164012,-7,-4,-2,0,0,-1,1,-3
1532162164017,-6,2,-3,-3,-4,-16,4,-9
1532162164022,8,-1,0,0,2,34,-11,0
1532162164027,-19,-5,0,1,-3,-9,10,-9
1532162164032,6,3,1,0,1,21,-2,4
1532162164037,-15,-3,-1,0,0,-15,2,-6
1532162164042,10,2,0,2,0,-15,-3,1
1532162164047,-8,0,-1,-1,-3,5,1,-6
1532162164052,-5,-1,0,2,1,-9,-15,-3
1532162164057,5,-1,-3,-3,-4,21,8,1
1532162164062,-52,-4,0,0,-1,-15,-31,-3
1532162164067,56,5,1,-1,-1,-5,22,12
1532162164072,1,0,-3,-2,2,12,2,0
1532162164077,1,-2,-1,0,0,6,2,2
1532162164082,14,-1,0,-1,-1,-2,-7,-4
1532162164087,-39,-5,0,-1,-2,-2,0,-2
1532162164092,2,-2,-2,-2,-4,-11,-1,0
1532162164097,2,-3,-2,-1,1,8,-5,-2
1532162164102,19,3,-2,1,0,-13,7,3
1532162164107,-21,-2,0,0,-1,2,-2,-15
1532162164112,15,-3,0,-1,-3,-6,-4,6
1532162164117,-3,1,0,0,2,12,3,4
1532162164122,3,-2,-1,-2,-2,-6,5,-1
1532162164127,0,3,0,3,2,13,1,2
1532162164132,5,-2,-1,-1,-1,-3,4,-6
1532162164137,-7,-2,-1,-2,-3,-6,-7,10
1532162164142,11,-1,-2,-1,0,-2,3,-3
1532162164147,-20,-4,-2,-2,-3,-3,-12,-10
1532162164152,-20,-4,-2,1,2,0,14,7
1532162164157,56,6,3,1,0,3,-13,-3
1532162164162,-11,2,1,-2,-2,-2,9,2
1532162164167,-9,-9,-1,1,3,22,13,-3
1532162164172,5,0,0,-1,-2,-32,-12,-11
1532162164177,-26,-2,-1,-1,-2,-2,-10,-11
1532162164182,15,-1,-2,-1,1,2,-12,10
1532162164187,-7,2,-1,-3,-2,24,-4,-7
1532162164192,-4,-1,-1,1,0,-2,-1,-1
1532162164197,-2,-1,-1,0,1,-4,8,-1
1532162164202,-12,-1,-2,-1,-4,-23,-9,-11
1532162164207,5,-1,-2,-3,-2,18,2,1
1532162164212,-12,-2,-1,-1,2,2,8,1
1532162164217,38,5,1,0,0,6,-10,3
1532162164222,2,-1,0,0,0,-9,8,-4
1532162164227,-6,-2,-1,-3,-3,-15,-4,3
1532162164232,9,0,-1,0,-3,1,-5,1
1532162164237,-25,-4,-3,-1,0,-6,11,1
1532162164242,9,-1,-2,-4,-3,9,1,1
1532162164247,0,-1,0,0,-1,-15,-12,-2
1532162164252,-1,0,0,-1,-1,0,1,3
1532162164257,-13,-5,0,-1,-1,-1,-1,-1
1532162164262,13,2,-1,-1,-2,6,0,3
1532162164267,-7,-1,0,0,-2,-8,1,-2
1532162164272,-10,-1,-2,-1,0,3,3,1
1532162164277,-2,0,-2,0,1,-2,-6,-4
1532162164282,-6,-1,-2,-2,-3,3,11,-1
1532162164287,-9,0,-1,-3,-5,13,-6,0
1532162164292,13,-1,0,0,0,-20,9,0
1532162164297,-7,-1,-1,-2,0,-7,-19,-3
1532162164302,0,-2,0,2,1,-1,0,-2
1532162164307,-27,-3,0,0,-1,-8,2,-3
1532162164312,17,0,0,-3,-2,15,2,-2
1532162164317,-2,1,-1,-1,-1,-4,5,-2
1532162164322,6,-1,-2,-2,0,0,-11,-5
1532162164327,-8,-2,-3,-3,-3,-8,0,3
1532162164332,-3,-1,-1,2,-2,-6,5,8
1532162164337,-19,-2,-1,0,0,7,6,2
1532162164342,22,4,2,1,4,19,2,0
1532162164347,6,1,0,0,0,6,2,-6
1532162164352,1,-1,-2,-3,-2,-12,-3,-3
1532162164357,-3,0,-1,0,-2,-4,-1,2
1532162164362,-7,-2,-4,-4,-3,-10,-10,-6
1532162164367,-2,-3,-2,0,1,3,1,3
1532162164372,12,2,0,-1,0,4,-1,8
1532162164377,-4,-2,0,0,2,-5,0,-1
1532162164382,-3,0,0,-1,-4,4,0,-1
1532162164387,0,0,-1,-1,2,-7,-2,-3
1532162164392,-5,-2,-4,-3,-2,3,-7,3
1532162164397,5,-3,-2,-2,-4,-18,-3,-2
1532162164402,-2,0,-2,0,-1,-4,0,1
1532162164407,-6,-3,-2,0,4,5,1,-4
1532162164412,-1,-1,1,-1,-6,10,5,1
1532162164417,13,3,-1,-1,2,8,-1,8
1532162164422,-11,1,0,0,-1,-19,-2,0
1532162164427,1,-3,-1,-1,-3,-22,1,-3
1532162164432,-4,-3,0,0,4,23,-3,-3
1532162164437,4,-1,-1,-1,-2,-11,-6,-1
1532162164442,0,-2,-3,-2,-4,9,1,-2
1532162164447,-1,-1,-3,-1,-3,-17,-6,0
1532162164452,7,-3,-2,-1,-1,-1,-2,-5
1532162164457,-11,2,1,0,1,8,4,-2
1532162164462,-1,0,1,-1,1,3,0,-2
1532162164467,-2,0,0,0,-4,-7,-2,1
1532162164472,1,-1,-1,1,-1,-6,-2,-5
1532162164477,2,-4,-2,-1,-3,7,-1,-4
1532162164482,-3,-3,-1,0,0,-4,0,1
1532162164487,1,1,-1,0,-1,-12,1,2
1532162164492,-1,0,-1,0,2,3,1,-3
1532162164497,-27,-2,-1,-1,2,5,2,0
1532162164502,22,3,-2,-1,-2,-1,0,1
1532162164507,1,-2,-2,-2,-2,-1,-3,-2
1532162164512,-1,-1,0,-1,0,5,1,-5
1532162164517,-5,-1,-1,-2,-1,-2,-1,0
1532162164522,-10,-4,-2,-2,-1,3,-5,5
1532162164527,0,2,-1,-1,-1,-6,-2,-4
1532162164532,-3,-4,-1,-3,-4,-8,-8,-5
1532162164537,26,5,2,1,6,4,1,10
1532162164542,-44,-4,-1,0,1,2,0,-9
1532162164547,42,6,2,1,1,6,0,7
1532162164552,-7,-2,-3,-3,0,0,5,-5
1532162164557,2,-3,-1,0,-3,-3,-8,-1
1532162164562,-5,-1,0,-1,3,-6,-1,-1
1532162164567,-20,0,0,-2,4,5,7,12
1532162164572,-2,3,2,1,0,0,6,2
1532162164577,12,-3,0,0,3,10,4,-1
1532162164582,-4,-1,-2,-1,-1,-8,-3,-6
1532162164587,-8,-3,0,-1,-1,3,-2,-1
1532162164592,7,1,-1,1,-1,-22,-2,2
1532162164597,-15,0,-2,-2,-3,23,0,-9
1532162164602,28,1,1,-3,-1,-2,-1,3
1532162164607,-32,-1,-2,0,0,6,3,-2
1532162164612,-4,2,0,-1,2,-5,-3,0
1532162164617,4,-1,-1,-1,-4,-12,-2,-7
1532162164622,6,0,-3,-2,-2,4,2,-1
1532162164627,12,0,0,-3,-2,-11,-4,-1
1532162164632,0,-7,-3,0,0,7,-2,-6
1532162164637,-14,0,1,0,1,2,8,1
1532162164642,10,-2,1,2,0,6,2,7
1532162164647,-7,-1,-1,-1,-1,-2,-4,-7
1532162164652,-7,-1,-2,-1,-2,-5,-7,-2
1532162164657,5,-1,0,-3,-1,-13,-4,-1
1532162164662,-12,1,0,1,-2,1,3,-5
1532162164667,4,-1,-2,0,-3,10,-1,0
1532162164672,8,-1,-1,0,3,7,1,2
1532162164677,-15,-1,-3,1,-1,0,1,-2
1532162164682,7,2,0,0,-1,0,-1,1
1532162164687,3,0,-1,-1,-3,-16,-3,-4
1532162164692,-5,1,-2,-1,-1,6,-4,1
1532162164697,-18,-3,1,-2,-1,-2,-2,-5
1532162164702,1,-1,0,-1,0,-9,-2,2
1532162164707,-2,-5,-12,-1,2,16,0,-4
1532162164712,2,-1,14,-3,-4,-8,3,-3
1532162164717,0,-2,-3,-1,-1,-6,-5,-7
1532162164722,-3,-3,-6,-2,-1,9,1,4
1532162164727,9,2,5,1,-1,9,1,1
1532162164732,-22,-1,-4,0,-1,-5,3,-2
1532162164737,49,4,-2,-2,-1,-1,-2,2
1532162164742,4,0,1,-2,-2,-8,-1,-5
1532162164747,-14,-4,-2,0,0,-9,-2,-3
1532162164752,5,-2,-3,0,3,5,-2,-1
1532162164757,-2,-1,-2,-2,-5,-1,-5,1
1532162164762,-30,0,-3,1,1,2,0,-8
1532162164767,10,-1,0,-3,-1,-8,-3,5
1532162164772,-29,0,-3,-1,-3,-13,0,0
1532162164777,21,-4,-2,-2,-1,6,1,-6
1532162164782,5,-2,0,-4,-2,-6,-6,10
1532162164787,-9,1,1,0,0,2,0,-4
1532162164792,1,-1,-2,-3,-5,1,-4,-1
1532162164797,-15,-2,-1,1,-4,-11,-2,4
1532162164802,7,0,1,-1,-1,-5,-2,-9
1532162164807,1,0,3,1,0,-2,-2,-3
1532162164812,11,-1,-2,1,9,20,12,4
1532162164817,-3,-1,-11,0,-1,-4,0,-3
1532162164822,9,5,16,1,-1,17,0,0
1532162164827,-27,-10,-2,-2,-1,-25,-2,-2
1532162164832,44,5,-1,0,-1,-16,-5,-1
1532162164837,3,2,-1,-1,-1,6,-1,-1
1532162164842,-5,-4,-7,-1,0,9,1,-3
1532162164847,0,0,0,-1,-4,8,0,-1
1532162164852,-5,-2,1,0,-2,-1,-2,-1
1532162164857,-12,-3,1,1,1,8,0,2
1532162164862,24,2,-4,-1,1,-14,-3,2
1532162164867,6,-1,1,-2,-2,3,-4,-1
1532162164872,-6,0,-3,-2,-2,5,3,0
1532162164877,-2,0,3,0,3,2,3,0
1532162164882,-13,-2,-2,0,-2,9,-2,-1
1532162164887,-17,-1,-1,-1,1,-6,0,-1
1532162164892,0,1,2,-1,-5,-8,-7,-3
1532162164897,-5,-2,-2,-2,-2,2,-4,-1
1532162164902,1,-3,0,2,1,-10,0,-4
1532162164907,0,2,0,-2,6,-7,-1,0
1532162164912,-1,-5,-4,-3,-9,35,-3,0
1532162164917,12,-2,2,-2,-3,-23,-2,-1
1532162164922,-32,1,-1,1,0,6,2,3
1532162164927,-2,-1,-2,-1,-3,5,1,1
1532162164932,-3,0,-1,-1,2,-5,0,-7
1532162164937,-1,-2,0,-2,-2,-2,-10,7
1532162164942,10,-3,-4,-3,-4,-5,0,-6
1532162164947,0,2,-1,-3,-5,4,-2,10
1532162164952,-5,0,0,0,-1,14,1,3
1532162164957,13,3,1,-1,-5,-20,2,-1
1532162164962,-32,-4,-1,-1,0,0,-4,-8
1532162164967,9,1,-1,1,1,-1,0,-6
1532162164972,-1,-4,-2,-1,0,-2,2,-3
1532162164977,-9,0,2,3,9,15,0,-7
1532162164982,5,-1,0,1,1,-2,2,-1
1532162164987,3,-1,1,0,-3,-11,-4,2
1532162164992,-1,0,0,-2,2,5,1,2
1532162164997,-4,0,0,-1,-1,6,-2,-10
1532162165002,2,2,0,1,15,18,2,-3
1532162165007,2,-1,-1,-5,-12,-25,1,1
1532162165012,-2,0,0,2,-4,-10,-4,-3
1532162165017,-2,-2,-2,0,0,-10,6,3
1532162165022,0,-5,-5,-3,0,0,-3,1
1532162165027,1,-1,1,1,5,43,3,0
1532162165032,4,5,1,-3,4,-16,6,-3
1532162165037,0,0,-1,-1,-5,-2,-3,1
1532162165042,-1,-1,-2,0,-3,-6,-5,-1
1532162165047,1,-3,-2,-1,-4,-18,-5,1
1532162165052,-2,-1,-1,-3,-8,14,4,-1
1532162165057,-2,-1,0,0,4,-4,-2,1
1532162165062,0,-1,-2,-3,-1,4,-1,2
1532162165067,-3,-2,-2,0,3,1,0,1
1532162165072,-2,-2,0,-2,-12,-10,-4,0
1532162165077,-1,-1,-1,1,15,12,4,-5
1532162165082,0,1,0,0,0,-13,-1,1
1532162165087,1,0,1,-1,0,-5,-2,-4
1532162165092,-3,-3,0,2,0,9,-2,6
1532162165097,-2,1,0,-1,-9,-4,-4,-1
1532162165102,-1,-1,0,-2,-3,3,0,-2
1532162165107,1,0,0,1,6,11,1,1
1532162165112,-2,-3,-2,-1,1,-6,-1,-2
1532162165117,1,-3,-1,-3,-6,-16,-5,1
1532162165122,2,0,0,-1,-3,-16,-12,-1
1532162165127,-2,0,1,-1,0,36,12,0
1532162165132,1,-3,-3,0,5,-11,2,3
1532162165137,-6,-5,-2,-3,1,16,24,-4
1532162165142,-2,0,0,2,-2,-14,-44,3
1532162165147,3,2,0,0,-3,6,-4,1
1532162165152,-3,0,-1,0,0,4,-5,-4
1532162165157,1,-1,-2,-2,-2,-34,-27,-2
1532162165162,4,2,1,-1,-2,13,37,1
1532162165167,-1,-1,-3,0,-5,-25,-1,-1
1532162165172,2,1,0,3,10,30,5,0
1532162165177,-2,-2,-2,-1,-1,-14,3,5
1532162165182,-2,0,0,-3,-5,-10,-5,-1
1532162165187,1,-2,-2,-5,-4,-9,-2,-3
1532162165192,-2,-1,-2,-1,-1,9,4,-2
1532162165197,-1,2,2,3,-2,9,-3,-6
1532162165202,2,1,-2,0,4,-9,8,6
1532162165207,-2,-1,-4,0,-3,-7,-15,-3
1532162165212,-4,-2,-2,-3,-4,-5,-7,-3
1532162165217,1,1,1,-2,0,7,-1,-1
1532162165222,-1,-3,-1,2,20,16,5,-3
1532162165227,-2,0,-3,-3,-2,-5,1,-3
1532162165232,-1,0,1,-1,2,-6,-13,-1
1532162165237,-2,-2,-2,-1,-6,-2,-1,2
1532162165242,-2,-1,0,-2,-7,1,5,3
1532162165247,-2,-1,3,-1,0,-7,0,0
1532162165252,0,1,2,1,3,19,-5,-5
1532162165257,0,-2,-2,-1,-5,-12,-4,-1
1532162165262,0,-2,-1,-2,-7,-2,1,2
1532162165267,-2,-1,-1,0,0,-1,0,-3
1532162165272,-3,1,-2,-3,-7,-10,-3,-1
1532162165277,-2,1,2,-2,0,-1,0,-1
1532162165282,1,1,-1,0,1,27,1,1
1532162165287,-2,0,0,0,2,-14,2,1
1532162165292,1,-3,-1,1,-3,-11,0,-1
1532162165297,-1,0,-3,-2,1,2,2,-2
1532162165302,-2,-4,-2,-2,-6,-4,-2,-3
1532162165307,-1,-1,-1,-1,-2,1,1,2
1532162165312,0,-1,-1,0,1,0,-2,-2
1532162165317,-1,0,0,0,0,-2,-1,1
1532162165322,-1,-1,-1,-2,-4,-4,-3,0
1532162165327,-2,-3,0,0,2,8,0,-4
1532162165332,-2,-2,-1,-1,-3,-3,-7,-3
1532162165337,0,0,0,0,0,-5,-6,0
1532162165342,-2,0,2,1,5,5,5,3
1532162165347,-1,0,1,0,-2,2,4,2
1532162165352,0,0,0,0,0,2,1,-3
1532162165357,0,-1,-3,-3,-3,-3,-2,-1
1532162165362,-1,1,-4,-1,-5,-6,-2,0
1532162165367,0,0,0,0,1,8,-1,-3
1532162165372,-2,0,1,-1,-1,-3,2,-6
1532162165377,-1,-2,0,0,8,-1,-3,1
1532162165382,-1,-2,-2,-5,-8,-2,2,-3
1532162165387,2,0,0,1,1,0,8,5
1532162165392,-4,-3,-2,0,-3,-6,-5,2
1532162165397,0,1,-1,-1,0,4,2,0
1532162165402,-1,1,-1,-2,-2,-4,1,-2
1532162165407,-3,-5,-2,-3,1,0,-1,-3
1532162165412,1,-1,-2,-2,-3,-3,1,0
1532162165417,-1,-1,1,0,-1,4,1,0
1532162165422,-1,0,-2,-1,-2,-9,-1,0
1532162165427,0,1,-1,0,2,4,0,-1
1532162165432,-2,-1,-2,-2,-3,-8,-1,0
1532162165437,-2,-1,0,1,1,1,-2,-8
1532162165442,2,1,0,1,2,3,0,-3
1532162165447,0,1,1,-3,-15,0,-2,-3
1532162165452,0,-1,-2,-1,5,5,1,0
1532162165457,-2,-2,-1,0,11,-5,-2,-4
1532162165462,-1,0,1,-1,0,-11,-4,3
1532162165467,-1,-2,1,-1,0,-10,-2,1
1532162165472,-1,-1,0,-1,-6,9,0,-4
1532162165477,0,-1,-1,-1,-5,10,3,-3
1532162165482,-4,-4,-3,-2,1,-1,-2,1
1532162165487,0,0,-1,-1,-1,-3,-4,1
1532162165492,0,2,0,1,-2,-6,1,-8
1532162165497,0,-1,-1,-1,-3,0,-7,6
1532162165502,-1,-1,-2,-2,-1,6,-2,0
1532162165507,-1,-2,-1,1,-3,-12,-5,-2
1532162165512,-2,-1,0,2,7,-2,2,-4
1532162165517,0,-2,-1,-5,-10,-7,7,1
1532162165522,5,1,1,1,4,31,7,3
1532162165527,-4,0,-1,-1,6,-2,-24,1
1532162165532,-3,-2,-1,-2,0,-6,-18,-4
1532162165537,-2,2,1,2,0,4,15,1
1532162165542,-1,0,0,-2,-4,-10,-15,3
1532162165547,2,2,1,2,5,7,7,4
1532162165552,2,2,1,-1,-1,0,-5,0
1532162165557,-6,-2,-2,-2,-2,-10,3,-9
1532162165562,-2,0,-2,-3,-4,-2,2,-4
1532162165567,2,-1,-2,1,5,1,1,-5
1532162165572,-2,-1,0,0,-9,-5,-7,10
1532162165577,1,0,0,0,-2,4,2,-4
1532162165582,-2,-1,-2,-3,-7,1,4,-4
1532162165587,-1,0,1,0,1,-7,3,-1
1532162165592,0,-3,-4,-3,-5,5,6,2
1532162165597,-2,-4,-1,-2,2,-1,-5,0
1532162165602,-1,-2,0,-1,1,-10,-10,2
1532162165607,-1,0,0,0,0,4,6,-2
1532162165612,1,-2,-1,0,-2,-4,-11,-3
1532162165617,2,1,-2,-2,-1,2,24,6
1532162165622,-1,-1,-1,2,4,-6,-6,-1
1532162165627,-1,0,-3,-2,-7,5,3,-3
1532162165632,2,2,0,0,4,1,2,0
1532162165637,-1,0,1,3,0,-9,-29,-3
1532162165642,-2,-3,-2,-2,-4,-8,4,-2
1532162165647,0,-2,0,-1,0,9,2,1
1532162165652,-1,0,-2,-1,-1,-2,1,-2
1532162165657,0,1,-2,-1,1,-2,4,0
1532162165662,-2,-1,0,1,0,1,-1,-3
1532162165667,1,0,-1,-3,-3,4,-1,2
1532162165672,0,0,1,-1,2,-4,19,1
1532162165677,0,-3,0,-3,-4,4,-7,-2
1532162165682,-1,1,-1,0,1,-1,7,-2
1532162165687,0,-2,-3,-2,-4,-8,-7,-1
1532162165692,-2,-2,0,0,2,13,4,0
1532162165697,0,0,-1,-1,-3,-6,-23,0
1532162165702,-2,0,0,0,-1,4,17,-5
1532162165707,0,-1,-3,0,-1,-5,-13,3
1532162165712,-2,-3,-2,-1,-3,-12,-10,-5
1532162165717,0,-2,-4,-2,-2,0,0,1
1532162165722,-2,-3,-2,-1,-2,-6,-7,-2
1532162165727,2,1,-1,0,2,5,16,1
1532162165732,0,-2,0,2,0,1,7,0
1532162165737,1,1,0,-2,-2,6,7,3
1532162165742,0,-1,0,0,1,-4,-14,-1
1532162165747,-2,-1,0,-1,1,1,-3,-1
1532162165752,-1,-1,-1,0,-2,-5,-9,0
1532162165757,-1,-1,-1,0,-2,-4,-15,-5
1532162165762,0,0,-2,-2,0,-3,20,2
1532162165767,-4,-3,-1,-3,-1,3,-9,-4
1532162165772,2,3,0,0,5,8,11,2
1532162165777,-3,-3,-2,0,-2,-13,-9,-2
1532162165782,-2,-2,-1,1,-2,-5,-9,-2
1532162165787,1,-2,-1,-1,-3,5,0,-3
1532162165792,-1,-1,-2,-1,-1,1,6,-3
1532162165797,-2,0,0,-1,-2,-2,2,-1
1532162165802,1,-2,0,0,-1,0,-3,1
1532162165807,-2,-1,-2,-2,-1,-4,7,-3
1532162165812,-2,-1,0,-1,-1,-7,-17,-4
1532162165817,0,2,0,-1,0,7,31,3
1532162165822,5,0,-2,-2,-2,-4,-15,-3
1532162165827,-7,-2,0,-1,-2,4,7,3
1532162165832,4,0,1,1,2,7,11,-2
1532162165837,-3,-4,-2,-2,-2,-4,-14,-2
1532162165842,-2,-1,0,-2,2,2,8,0
1532162165847,3,-1,-1,1,0,-10,-1,5
1532162165852,-4,-2,-1,-3,-2,-5,-6,0
1532162165857,-1,-1,-1,0,0,11,9,1
1532162165862,-1,-1,-1,0,1,0,20,-1
1532162165867,-2,-2,0,-1,0,8,-28,-6
1532162165872,-3,0,-2,-3,-5,-6,22,0
1532162165877,2,0,-1,1,0,-6,-37,-1
1532162165882,-3,-4,-2,0,-1,-1,-2,2
1532162165887,0,-2,-2,1,0,-3,11,-3
1532162165892,-1,0,-2,-2,-2,-2,-1,1
1532162165897,0,0,0,-1,-1,1,6,-1
1532162165902,-1,0,1,-2,-1,0,-5,-3
1532162165907,-1,-1,-1,-1,-2,-3,0,-1
1532162165912,0,0,-2,0,-1,1,-4,-2
1532162165917,1,-3,-1,-1,-2,-3,2,0
1532162165922,-2,-1,0,1,3,-1,-5,-1
1532162165927,-1,0,-1,0,-1,3,4,-2
1532162165932,0,-1,-1,2,2,-1,-7,0
1532162165937,0,1,-2,-3,-9,-9,3,-2
1532162165942,-1,0,-1,-2,-1,2,-2,0
1532162165947,0,-1,-1,-1,0,0,3,-1
1532162165952,0,0,1,0,0,-8,-16,-1
1532162165957,-1,-3,-2,-2,2,0,-2,4
1532162165962,2,2,1,-1,-1,8,-2,-1
1532162165967,0,-2,-2,-1,0,-6,1,-1
1532162165972,-1,-2,-1,0,2,9,5,2
1532162165977,-2,-3,-2,-4,-3,-9,2,-3
1532162165982,0,-1,0,-1,-3,-3,-7,0
1532162165987,0,1,0,-1,-2,-2,-4,1
1532162165992,-3,-1,0,-1,-2,-3,-3,-2
1532162165997,-3,-1,-1,1,5,3,4,-1
1532162166002,-2,-2,-3,-5,-10,-6,-2,-2
1532162166007,0,-4,0,1,3,5,1,-1
1532162166012,0,1,0,-1,-2,-4,4,1
1532162166017,-1,1,1,2,4,2,4,-4
1532162166022,-3,0,0,-3,-5,-9,-20,-2
1532162166027,-2,0,-2,-1,-3,-6,17,1
1532162166032,2,-1,-1,-1,2,6,0,0
1532162166037,-1,-1,0,3,-2,2,4,-3
1532162166042,0,-1,0,-1,2,1,0,0
1532162166047,-3,-1,-2,-2,-3,-5,-9,0
1532162166052,-1,-2,-2,0,1,1,1,1
1532162166057,0,0,-1,0,-1,1,-2,1
1532162166062,0,-1,-2,1,-1,5,6,-1
1532162166067,0,-2,2,0,0,5,0,3
1532162166072,-2,0,-2,-1,1,-2,1,2
1532162166077,0,-1,-1,-2,-4,-7,-5,-1
1532162166082,-2,-1,-1,2,3,-1,3,-1
1532162166087,0,0,0,-2,2,-2,-2,-3
1532162166092,-2,-2,-1,-2,-7,-2,-8,-4
1532162166097,0,1,-2,-1,-3,0,1,2
1532162166102,-2,-1,1,0,2,-2,1,-1
1532162166107,-1,-1,-2,-2,0,3,-4,-3
1532162166112,1,-1,0,0,-2,-7,-4,-1
1532162166117,-1,0,-1,3,2,5,-1,0
1532162166122,-1,0,-1,-1,1,-4,-3,-3
1532162166127,1,0,-1,1,-2,-3,-3,0
1532162166132,-2,-2,-3,-1,-5,2,-3,-1
1532162166137,0,-1,1,0,-2,-9,8,0
1532162166142,2,-1,0,-1,4,4,2,-4
1532162166147,0,0,1,-2,1,8,6,2
1532162166152,-2,0,-1,-2,0,-5,0,-2
1532162166157,0,-2,-2,-4,-4,-5,-18,0
1532162166162,0,-3,0,-2,-1,2,0,0
1532162166167,-4,-1,0,-1,-1,-7,-1,-4
1532162166172,-1,-2,1,-2,-3,-1,1,-1
1532162166177,-2,-1,0,-1,0,-4,0,1
1532162166182,-1,0,0,-2,-1,-1,-1,2
1532162166187,-1,-2,-3,-2,-5,-5,-4,-4
1532162166192,-2,-2,1,1,4,7,4,3
1532162166197,-3,0,0,-1,-2,2,-1,-4
1532162166202,5,1,-2,1,-5,1,-3,1
1532162166207,-5,4,-1,0,1,-1,1,0
1532162166212,0,-8,0,-2,-4,-10,-4,-4
1532162166217,0,-2,1,-1,2,3,3,-2
1532162166222,-5,-4,-3,-1,-3,-1,-2,-1
1532162166227,3,1,0,0,3,16,12,0
1532162166232,-1,1,-1,0,3,-2,-6,-3
1532162166237,-26,-9,-4,-1,0,2,2,-7
1532162166242,50,8,0,2,2,-17,-5,4
1532162166247,2,-2,0,-3,-3,-8,-5,-4
1532162166252,0,0,-1,-1,1,8,5,1
1532162166257,4,0,-1,-1,-1,-1,-3,4
1532162166262,-19,-4,-1,-1,0,-1,-2,-1
1532162166267,-3,-2,-1,-2,-1,2,-3,4
1532162166272,5,1,-1,-2,-5,-5,-1,2
1532162166277,-1,-3,-1,-4,-1,-17,-9,-1
1532162166282,-10,-2,-1,-2,0,28,11,-2
1532162166287,4,-1,-1,-1,-3,-8,-10,1
1532162166292,-9,-4,-2,-1,4,-3,-2,-1
1532162166297,6,1,-2,-1,-6,-9,5,-1
1532162166302,-6,-2,-1,1,2,-6,-3,-1
1532162166307,-1,-4,-2,-2,-6,-1,-3,-2
1532162166312,0,1,0,-3,-1,2,1,2
1532162166317,4,0,0,-2,0,5,3,0
1532162166322,-4,-1,0,-2,-2,-4,0,0
1532162166327,-5,0,1,3,5,1,0,-6
1532162166332,0,0,0,0,-2,-3,-2,5
1532162166337,2,2,-1,0,1,5,0,-3
1532162166342,-8,-4,-1,-1,-3,0,0,3
1532162166347,0,-1,-1,0,0,-1,-10,1
1532162166352,0,-2,-2,0,-2,0,3,-9
1532162166357,1,1,2,3,6,6,4,-4
1532162166362,-4,0,-2,-2,-5,-12,0,-2
1532162166367,-1,0,-1,-1,-2,4,-1,2
1532162166372,1,0,-2,-1,-1,-4,-5,0
1532162166377,-1,0,0,0,2,23,7,0
1532162166382,-3,-1,0,1,1,-2,-1,-3
1532162166387,0,1,-1,0,1,-10,-1,-2
1532162166392,-5,-1,-1,-3,-4,-5,-6,-3
1532162166397,0,-1,-2,-2,-4,-4,-3,0
1532162166402,-2,-1,-1,1,-1,-2,-1,1
1532162166407,-1,-1,-2,-4,-1,0,-2,0
1532162166412,0,1,0,1,0,2,1,-1
1532162166417,1,1,0,-1,-1,-3,-3,1
1532162166422,-1,-1,1,-2,2,2,-2,-3
1532162166427,-2,-1,-1,0,-3,-3,2,-1
1532162166432,-1,-2,-1,1,1,3,3,-3
1532162166437,2,-1,0,-1,-3,-2,1,1
1532162166442,-1,1,0,0,-1,2,0,-3
1532162166447,-1,-2,-1,-1,-1,-2,0,3
1532162166452,-2,-1,-3,-2,-1,-5,-2,1
1532162166457,-2,0,-3,0,0,1,-1,-1
1532162166462,-3,-2,-1,-1,-4,-5,-3,-2
1532162166467,0,-1,-2,-1,0,-3,0,-1
1532162166472,0,0,0,-1,-6,4,-5,-4
1532162166477,1,0,0,0,4,3,-2,1
1532162166482,-1,0,-2,-3,-5,-7,-3,-2
1532162166487,0,-2,-1,0,-4,2,-3,0
1532162166492,-1,-1,-1,0,4,1,5,-2
1532162166497,-1,-2,-2,-1,-4,-5,-1,-4
1532162166502,1,0,-1,1,2,0,-1,1
1532162166507,0,-1,0,0,1,1,3,-4
1532162166512,0,-1,-2,-2,-4,-4,-4,2
1532162166517,-1,1,-1,0,0,0,-1,1
1532162166522,-1,0,-1,1,0,1,1,-1
1532162166527,-2,-3,-3,-1,-1,-4,-2,-1
1532162166532,0,0,3,0,0,2,7,0
1532162166537,0,1,0,0,-3,-5,-8,-4
1532162166542,-1,-1,-2,-2,-2,-4,-4,6
1532162166547,-3,0,0,-3,0,12,0,-4
1532162166552,2,2,0,1,3,0,9,-2
1532162166557,0,-3,-1,-3,-2,-3,-1,-1
1532162166562,-2,-3,1,0,-2,0,-2,-4
1532162166567,0,0,0,1,-2,-9,-1,-1
1532162166572,-1,0,-1,-2,1,-2,-2,-5
1532162166577,-2,-2,-3,-2,-4,5,3,3
1532162166582,0,0,-2,0,-2,-1,-1,-1
1532162166587,-1,0,-2,-1,-3,-5,-3,-1
1532162166592,-1,0,0,0,-1,6,-3,-4
1532162166597,-2,0,0,-1,0,-3,0,-1
1532162166602,1,-1,0,1,4,6,3,1
1532162166607,-1,-2,-1,-1,1,-3,-2,0
1532162166612,0,-2,-3,-1,-2,-7,-7,-1
1532162166617,0,-1,1,-2,-4,-5,3,0
1532162166622,0,-1,-1,-1,0,5,3,-2
1532162166627,1,0,0,1,-1,2,8,0
1532162166632,-1,-2,-3,-3,-4,-3,-5,1
1532162166637,-3,-1,-1,-1,2,-10,2,-5
1532162166642,0,-1,-3,-4,0,17,17,6
1532162166647,0,-2,-1,-1,1,-14,-40,3
1532162166652,0,1,-1,0,2,10,4,-2
1532162166657,-2,-2,0,-1,-3,-6,-14,-2
1532162166662,0,-2,0,-1,0,-5,14,-1
1532162166667,-1,-1,-2,-3,-2,9,10,-3
1532162166672,1,1,0,1,-2,0,15,-1
1532162166677,-2,-1,-2,0,-1,0,-5,3
1532162166682,-2,0,0,0,-1,-10,-16,-5
1532162166687,2,1,0,1,1,-1,-15,-1
1532162166692,-3,-2,-2,-2,-1,-3,-24,-2
1532162166697,0,1,0,0,0,5,37,2
1532162166702,-2,-3,-4,-2,-2,-1,14,0
1532162166707,-1,2,0,-2,-1,-2,-7,-3
1532162166712,2,-1,-2,-2,-4,-4,-21,0
1532162166717,-4,-4,-1,-1,-1,9,29,2
1532162166722,0,-1,1,-1,-1,-6,-7,-1
1532162166727,0,-1,1,1,1,-2,-17,0
1532162166732,-1,-2,-1,0,-1,10,31,4
1532162166737,3,1,1,1,2,-5,-21,2
1532162166742,-2,-2,-2,0,-2,-3,7,-3
1532162166747,-3,-3,-3,-1,-3,3,10,3
1532162166752,-3,0,1,2,3,-1,-26,-2
1532162166757,4,0,1,1,4,2,2,-5
1532162166762,0,-3,-2,-2,-2,-4,-4,-1
1532162166767,-1,0,0,-2,-2,0,-33,-7
1532162166772,0,-2,-1,0,-2,10,64,4
1532162166777,-2,-2,-1,-3,-1,0,16,0
1532162166782,2,1,0,2,5,6,-53,-1
1532162166787,-4,-2,-1,-1,-3,-7,5,-3
1532162166792,-1,-2,-2,-2,-2,-3,-8,-3
1532162166797,0,-1,-2,-1,-2,-5,-14,-3
1532162166802,-3,-1,-1,-3,-5,-19,-15,-5
1532162166807,-4,-2,-3,0,2,2,4,-5
1532162166812,-1,0,1,0,0,5,15,6
1532162166817,1,0,-3,-1,0,-35,-41,-1
1532162166822,1,1,0,-1,-2,7,-14,-1
1532162166827,-17,-3,-2,0,-1,-9,13,-2
1532162166832,21,-1,-1,-2,1,13,-4,-2
1532162166837,-1,-1,-1,-2,-1,12,-5,-4
1532162166842,2,3,0,1,-1,-11,4,1
1532162166847,5,0,-2,-2,-5,-8,23,-2
1532162166852,-8,-2,0,0,1,-9,-24,0
1532162166857,-4,2,0,-2,-2,24,10,1
1532162166862,4,-1,-2,0,0,-39,-27,-4
1532162166867,-2,0,1,2,3,-9,28,4
1532162166872,-7,-1,-3,-3,-8,-20,-19,-5
1532162166877,-1,0,-1,0,1,-4,-23,-4
1532162166882,-6,-3,2,0,-3,51,40,1
1532162166887,1,0,-1,-1,0,-1,-30,-2
1532162166892,0,1,1,1,5,-2,10,2
1532162166897,0,-3,-1,-1,-9,-55,-4,-3
1532162166902,-3,-3,-2,-5,-14,-19,-19,-5
1532162166907,-2,-4,0,1,7,-13,17,0
1532162166912,-10,5,3,4,18,89,17,3
1532162166917,-3,1,-3,-4,-2,13,12,-6
1532162166922,3,-3,-1,-1,1,-5,0,2
1532162166927,-41,-5,-2,-3,-8,13,-1,2
1532162166932,41,4,-1,0,-2,-36,-9,-1
1532162166937,3,-4,-2,-2,-1,8,13,-1
1532162166942,4,0,-2,1,3,5,3,5
1532162166947,-1,-1,-3,-2,-5,-6,-39,-14
1532162166952,-17,-6,-3,-1,-3,-14,2,7
1532162166957,-16,0,0,-2,-2,4,-16,-3
1532162166962,18,-2,-2,-2,-1,-7,28,6
1532162166967,-32,2,3,2,4,0,-4,-5
1532162166972,22,2,-2,-3,-5,5,-10,-6
1532162166977,7,2,-2,0,-4,-4,-39,-4
1532162166982,-10,-5,-6,-5,-7,-2,40,11
1532162166987,23,7,5,5,13,62,31,13
1532162166992,-45,-5,0,-1,-8,-32,2,-2
1532162166997,43,3,0,1,7,-6,-7,2
1532162167002,-12,-3,-2,-2,-4,-16,-29,-17
1532162167007,22,0,-2,-3,-6,17,45,1
1532162167012,-4,-2,-2,-1,5,17,-11,-1
1532162167017,-8,-4,0,1,-2,5,23,11
1532162167022,-20,-1,-1,-2,-10,20,14,-5
1532162167027,15,0,-2,-2,-1,-43,-15,1
1532162167032,-12,-4,-1,0,10,-22,-3,-5
1532162167037,-10,0,-1,-3,1,8,-10,-2
1532162167042,10,2,1,1,7,20,6,0
1532162167047,-20,-3,-2,-4,-12,5,3,3
1532162167052,1,2,-1,-1,-10,-47,-4,-5
1532162167057,-3,-4,-2,2,15,57,-4,6
1532162167062,11,5,3,2,11,-15,3,-1
1532162167067,8,-1,-1,-2,-3,-9,-4,-1
1532162167072,-24,-6,-5,-6,-7,37,-6,0
1532162167077,4,3,2,0,5,-21,11,0
1532162167082,-6,2,4,3,-7,4,0,0
1532162167087,10,-4,-2,0,25,57,-11,-2
1532162167092,12,3,3,4,-3,-88,-3,4
1532162167097,-6,-2,-6,-6,-14,22,-1,-11
1532162167102,-9,-3,0,-1,-8,-77,-13,-2
1532162167107,12,1,0,2,9,26,12,2
1532162167112,7,-2,-6,-12,-24,52,2,1
1532162167117,-14,-1,1,2,17,39,8,6
1532162167122,2,0,2,5,5,-67,-13,-3
1532162167127,5,0,-1,0,-13,-33,3,1
1532162167132,-4,-6,-2,-2,14,31,-7,-7
1532162167137,1,5,1,-3,-15,-22,5,0
1532162167142,-27,-5,0,3,14,-19,-18,-47
1532162167147,11,-3,-1,-1,-7,4,-15,-7
1532162167152,20,8,4,-1,-4,27,13,45
1532162167157,8,0,-2,-1,0,9,-3,-6
1532162167162,20,4,2,2,-3,-5,19,18
1532162167167,-25,-6,-1,2,5,-19,1,-33
1532162167172,-9,-7,-1,0,-3,10,-27,-11
1532162167177,5,3,3,-5,-12,2,-3,8
1532162167182,4,0,-16,-2,-8,-10,5,0
1532162167187,-10,-4,8,-2,4,-19,-1,5
1532162167192,-8,-8,-1,2,6,18,6,-3
1532162167197,-3,3,4,1,3,-19,7,2
1532162167202,9,0,0,-4,-9,23,-2,-8
1532162167207,3,-2,-7,-3,-10,-13,-1,21
1532162167212,-11,1,-4,-3,1,10,3,-17
1532162167217,3,-4,0,7,12,-13,4,2
1532162167222,10,3,3,-5,-6,-4,10,49
1532162167227,-3,-3,-4,-1,-3,21,-13,4
1532162167232,-2,-8,1,-3,-8,-18,-5,-33
1532162167237,-1,2,-2,0,-2,29,-12,-5
1532162167242,6,0,1,1,3,-3,-4,8
1532162167247,-7,1,-2,1,-2,-89,8,-1
1532162167252,-10,-10,-28,-7,1,30,-2,-7
1532162167257,-2,-1,22,-5,3,11,-14,-6
1532162167262,6,-6,8,0,-5,14,-8,8
1532162167267,-3,2,-6,3,-5,-35,6,-7
1532162167272,0,3,3,2,4,11,7,0
1532162167277,1,-5,-8,-6,-15,19,-6,-4
1532162167282,-4,3,0,0,27,-15,2,-8
1532162167287,-2,-4,-5,3,-21,16,2,14
1532162167292,1,4,2,0,-1,-23,-2,-9
1532162167297,2,-5,-9,-2,6,42,8,12
1532162167302,2,0,3,-2,-21,-10,-2,-17
1532162167307,-1,2,-1,-4,8,39,-8,15
1532162167312,1,3,4,3,15,-20,3,0
1532162167317,-6,-3,2,0,4,39,-2,-20
1532162167322,-11,-1,-8,3,-18,-88,-2,-4
1532162167327,-22,-1,4,5,13,24,7,5
1532162167332,21,3,5,-5,-15,4,17,4
1532162167337,-3,-4,-22,-9,-5,20,-32,-25
1532162167342,-2,-10,-29,-1,6,-19,-20,-42
1532162167347,-7,1,24,-6,-12,73,19,70
1532162167352,-10,10,14,6,12,-79,-5,2
1532162167357,-9,13,-32,6,4,-57,3,-10
1532162167362,-26,-28,28,-3,5,58,-13,-57
1532162167367,42,4,-17,0,-15,-78,-15,47
1532162167372,12,-3,27,4,26,72,32,6
1532162167377,6,0,-15,-2,-5,-18,5,-3
1532162167382,-5,6,-4,1,-3,4,1,-8
1532162167387,-4,-15,-9,-4,12,-12,-20,-32
1532162167392,-2,6,-6,-4,-18,20,9,8
1532162167397,-17,-7,11,2,-2,-30,-8,13
1532162167402,38,11,8,-2,2,17,-12,-5
1532162167407,-15,-6,4,3,23,49,9,-14
1532162167412,-5,-4,-13,-2,-18,-4,-14,6
1532162167417,10,-4,9,-3,-3,-34,2,-2
1532162167422,-1,2,-5,-2,-1,-60,-24,39
1532162167427,5,1,-6,-3,-17,6,-14,-5
1532162167432,-45,-4,-1,0,7,37,-12,-17
1532162167437,42,10,-18,1,-7,-27,-9,-9
1532162167442,-27,7,29,-2,-1,18,8,-27
1532162167447,2,-13,-7,-3,4,-20,4,-11
1532162167452,-2,1,2,0,-2,23,5,31
1532162167457,-2,-2,9,0,6,-12,-1,23
1532162167462,0,1,-30,-2,-18,-21,8,14
1532162167467,-13,3,26,3,16,29,-1,-50
1532162167472,24,-1,-4,-2,1,9,7,-12
1532162167477,-4,-5,-4,-1,-3,-15,3,14
1532162167482,10,1,-3,2,7,16,-1,14
1532162167487,-14,-1,-2,-3,-5,12,7,-16
1532162167492,2,0,-23,-2,-4,-26,-50,-11
1532162167497,4,6,28,-2,-7,-8,3,1
1532162167502,-2,1,1,2,1,23,9,-1
1532162167507,-6,-2,-3,-2,-2,-1,-8,-5
1532162167512,5,-1,-3,-3,-6,-17,-4,-7
1532162167517,-3,-3,-1,-1,1,4,8,-12
1532162167522,-8,-4,-1,0,-1,-7,11,13
1532162167527,8,8,-3,4,4,12,1,7
1532162167532,-37,-4,0,-2,-1,3,12,-13
1532162167537,6,-2,3,0,-4,-6,-4,3
1532162167542,5,1,1,-1,0,29,5,5
1532162167547,21,5,-2,-2,4,-2,-22,-11
1532162167552,-41,-9,1,-2,-2,-24,33,4
1532162167557,-20,-21,-13,0,-4,0,-14,1
1532162167562,40,16,20,-1,-3,-29,0,10
1532162167567,-24,-6,-86,-5,-6,9,5,-16
1532162167572,-2,-11,85,1,-3,22,-11,-7
1532162167577,54,9,-2,-1,0,-3,14,16
1532162167582,-21,-4,-4,0,2,-8,-4,1
1532162167587,59,7,3,1,-2,1,19,8
1532162167592,-8,1,-41,0,4,6,-1,-1
1532162167597,-13,0,21,1,2,-5,6,1
1532162167602,1,-3,-13,-2,1,0,-25,0
1532162167607,-24,-3,27,0,-2,-11,-3,-1
1532162167612,44,-3,-22,0,-3,-19,-12,0
1532162167617,-11,1,15,-2,-5,7,-2,-4
1532162167622,-4,0,-13,2,11,70,36,8
1532162167627,-18,-5,-4,-5,-9,-49,-11,2
1532162167632,21,0,3,-3,-3,50,3,0
1532162167637,-29,-15,-17,2,-9,-38,-8,-17
1532162167642,-7,3,42,0,4,-47,3,17
1532162167647,12,0,9,-1,-9,-5,-41,-15
1532162167652,-24,-4,-4,-2,-3,-10,-23,1
1532162167657,31,9,-11,-2,0,52,11,-6
1532162167662,-15,-13,-26,-5,-12,2,-4,-11
1532162167667,-1,-3,18,-1,2,6,23,30
1532162167672,-8,8,-2,0,3,-13,2,6
1532162167677,-17,-3,-5,-2,0,16,-5,-6
1532162167682,9,-1,-3,4,13,-33,-16,-3
1532162167687,-9,-7,4,1,13,6,-3,-19
1532162167692,9,-2,-36,-5,-16,-44,-9,-12
1532162167697,-2,10,23,0,2,14,10,13
1532162167702,-2,-1,3,-1,-12,-4,-4,-5
1532162167707,-20,1,-5,1,2,-39,10,5
1532162167712,-9,3,7,2,3,23,1,-1
1532162167717,6,-6,-2,-3,2,-12,-1,-7
1532162167722,0,-10,-12,-1,0,28,30,3
1532162167727,17,13,14,0,-7,11,15,-10
1532162167732,-16,-3,-20,-1,-1,-17,-22,9
1532162167737,-16,8,-2,0,1,7,-4,2
1532162167742,14,-7,4,-2,1,6,-1,3
1532162167747,-25,-3,-10,-3,-5,-7,2,-7
1532162167752,10,-3,0,-1,6,7,-4,-11
1532162167757,-9,-1,8,-1,-9,-23,4,-9
1532162167762,8,26,-16,-3,-1,6,-8,6
1532162167767,-1,-26,22,5,12,47,19,10
1532162167772,4,0,1,0,-10,-27,-10,-24
1532162167777,4,-5,-4,1,6,-17,-2,37
1532162167782,0,5,5,4,9,-6,13,-8
1532162167787,-5,8,-7,0,-6,4,38,-5
1532162167792,10,-8,2,-2,5,36,-2,-12
1532162167797,-46,-2,-9,-4,-4,-3,-45,-11
1532162167802,-2,8,9,-2,-4,2,-8,0
1532162167807,2,10,3,2,1,4,7,4
1532162167812,8,-2,14,1,-3,-26,13,6
1532162167817,-9,-1,4,-1,-4,15,6,-7
1532162167822,-11,-7,-8,-1,1,-4,-4,1
1532162167827,1,2,2,-2,-10,-10,-13,-8
1532162167832,-6,3,0,1,10,12,7,2
1532162167837,6,-10,-24,-1,0,-10,-4,10
1532162167842,9,-1,17,0,-3,21,4,-4
1532162167847,3,-1,5,-1,14,14,1,2
1532162167852,3,0,-7,-3,-3,-3,0,5
1532162167857,6,-2,1,1,5,31,21,-6
1532162167862,-3,-4,-5,-4,-2,-19,-4,-2
1532162167867,-5,0,-5,-3,-17,-35,-20,-4
1532162167872,0,0,-20,0,-1,12,1,2
1532162167877,12,9,23,2,6,5,6,-1
1532162167882,-28,-7,-3,-2,-7,3,10,4
1532162167887,46,0,-6,2,3,-11,-19,3
1532162167892,18,0,-14,0,6,-71,-3,2
1532162167897,-16,-4,11,-3,-9,-5,-6,-13
1532162167902,15,-1,22,4,8,36,19,1
1532162167907,-20,3,2,-2,-2,19,23,1
1532162167912,10,-4,-1,-3,-6,-2,-9,9
1532162167917,15,0,-8,-1,-4,2,1,3
1532162167922,-19,-2,-13,-3,-3,-17,-26,1
1532162167927,-7,1,0,-1,-3,1,-5,-7
1532162167932,1,0,14,0,-1,9,6,-2
1532162167937,-6,2,-11,2,3,-11,-1,-15
1532162167942,4,0,-6,-4,-4,14,15,9
1532162167947,0,-12,-14,1,0,-1,-4,2
1532162167952,-1,17,11,-2,-1,10,0,-2
1532162167957,-2,-7,-3,0,0,0,0,6
1532162167962,5,-1,-7,-1,-2,0,-17,-16
1532162167967,2,0,3,2,7,7,18,12
1532162167972,-14,-4,5,2,-3,-23,-6,-4
1532162167977,-2,3,-12,-5,-6,9,-5,-5
1532162167982,3,-3,-5,0,-1,-2,-12,-2
1532162167987,-29,2,16,0,2,31,-5,-2
1532162167992,3,-1,4,-1,12,25,7,-1
1532162167997,1,-2,2,-2,-10,-21,1,1
1532162168002,6,0,-15,-1,-3,-6,-9,-2
1532162168007,-9,2,-8,-2,-4,-7,-7,-5
1532162168012,0,-3,-9,1,-3,4,10,2
1532162168017,1,4,-19,1,9,42,5,-12
1532162168022,-6,-11,33,0,-3,-6,-1,14
1532162168027,8,6,0,0,8,-31,-1,-1
1532162168032,-4,-2,-8,-3,-5,-8,-9,-10
1532162168037,5,5,0,-5,-8,-13,-3,5
1532162168042,-13,-1,-10,1,6,24,4,-20
1532162168047,5,-2,0,-4,-11,-9,-20,6
1532162168052,0,-1,-1,0,5,11,1,1
1532162168057,-9,-4,6,0,2,-15,-9,-6
1532162168062,-3,-2,-1,-1,1,-11,3,-13
1532162168067,-1,-4,-10,-3,-7,6,-10,22
1532162168072,53,11,11,4,5,25,50,44
1532162168077,3,-6,-1,-2,-1,-5,-17,-17
1532162168082,-2,2,-11,-4,-4,15,-17,-23
1532162168087,6,1,11,-2,-8,-43,2,4
1532162168092,-19,-6,0,2,9,-9,-1,5
1532162168097,13,-8,-7,1,5,-2,2,3
1532162168102,14,12,3,-1,0,-7,2,-20
1532162168107,-12,6,-5,-2,-5,27,-1,-4
1532162168112,-29,-5,0,-4,-5,-10,-6,1
1532162168117,1,-4,-5,-1,-2,-11,2,-5
1532162168122,4,0,8,0,2,58,-5,13
1532162168127,20,1,2,1,-7,1,5,-1
1532162168132,-12,4,11,4,3,-78,-7,-7
1532162168137,-30,1,-18,2,11,5,13,-19
1532162168142,31,-4,12,-3,-9,-25,-14,4
1532162168147,-6,0,-3,0,6,9,20,25
1532162168152,-3,-3,-3,-5,-15,21,-7,-16
1532162168157,-6,-3,1,-4,-15,-21,29,5
1532162168162,-23,-2,-6,1,21,76,18,14
1532162168167,51,3,14,-1,0,-18,-36,-24
1532162168172,-29,-9,0,-2,-8,-18,-13,-15
1532162168177,14,6,4,1,12,-3,24,33
1532162168182,-4,-2,-2,-1,-3,-31,10,21
1532162168187,-34,-6,-12,1,7,28,2,-15
1532162168192,41,4,-3,-5,-8,4,-15,-3
1532162168197,-3,-1,8,0,-4,9,-3,-9
1532162168202,4,0,-14,2,-5,-15,1,-16
1532162168207,-25,-4,-6,-3,-1,-7,2,2
1532162168212,-2,-3,0,0,0,-14,-2,2
1532162168217,-4,6,2,1,0,13,-7,-4
1532162168222,2,-5,-17,-1,1,-11,25,6
1532162168227,-9,-21,-2,-3,0,-10,-9,-13
1532162168232,-6,1,6,-4,-4,27,3,-9
1532162168237,8,-4,0,-4,-7,0,-12,-2
1532162168242,-7,5,0,-1,-2,-30,-10,8
1532162168247,2,-1,-2,-3,-3,3,10,-9
1532162168252,0,2,-6,-2,-2,15,3,34
1532162168257,-3,-8,-5,-1,1,0,-6,1
1532162168262,-1,-3,1,0,-1,-9,-3,-8
1532162168267,-5,2,-2,1,-7,-11,2,-13
1532162168272,0,1,1,1,6,7,-6,-3
1532162168277,10,3,4,3,0,6,12,7
1532162168282,-4,1,3,-3,-5,-11,-1,5
1532162168287,0,0,-1,-1,0,3,0,-9
1532162168292,-7,-4,-12,-1,-4,-1,-6,-12
1532162168297,6,-3,17,-2,-2,-2,7,8
1532162168302,-15,-6,-2,1,0,-12,-9,6
1532162168307,-11,1,-4,2,2,5,2,0
1532162168312,30,9,-1,-3,-2,13,-1,-10
1532162168317,-22,-19,-24,-2,-3,-15,-10,-5
1532162168322,9,2,13,-5,-5,-26,-8,3
1532162168327,0,3,0,0,7,19,0,1
1532162168332,-4,-21,-5,-1,-3,-8,-2,-1
1532162168337,0,10,-5,-2,-3,1,-14,1
1532162168342,-2,0,13,2,-2,-7,-1,-4
1532162168347,-22,-6,-3,-2,-2,-6,2,5
1532162168352,22,5,-6,-2,-2,6,-8,-11
1532162168357,-16,-1,3,1,15,51,1,8
1532162168362,17,0,-8,-1,-4,-16,-24,-2
1532162168367,9,6,4,0,3,7,25,11
1532162168372,-7,-2,6,1,1,-5,-16,-5
1532162168377,-26,1,2,-1,-8,-30,-8,-10
1532162168382,-2,-4,-5,1,1,44,-4,2
1532162168387,19,0,-4,-1,0,-24,-2,-3
1532162168392,-22,-1,0,-2,-3,-21,1,-1
1532162168397,13,-1,3,-1,-5,-7,-6,2
1532162168402,-9,0,-9,1,6,16,19,-6
1532162168407,4,0,-2,-3,-6,-17,-20,0
1532162168412,-9,-2,-5,0,0,4,6,0
1532162168417,8,-1,22,1,-1,-4,-3,-1
1532162168422,4,4,-10,-2,-2,-10,9,0
1532162168427,-2,-1,6,-4,-1,11,0,-6
1532162168432,-11,1,2,1,3,10,-2,-3
1532162168437,9,1,-1,-3,-7,-4,-3,-4
1532162168442,-8,-5,-11,-1,0,-10,10,3
1532162168447,2,-1,2,3,-2,-5,-10,7
1532162168452,-6,-1,1,-2,0,11,1,-11
1532162168457,5,-5,-9,1,4,-5,-4,-2
1532162168462,1,1,4,0,-1,-7,6,5
1532162168467,2,0,-6,1,0,0,18,-5
1532162168472,1,-3,2,-2,0,16,2,6
1532162168477,-4,0,-5,-1,-1,-4,-3,-2
1532162168482,1,-3,2,-1,-3,-12,-9,-4
1532162168487,0,3,3,-1,-2,-1,-5,-2
1532162168492,-39,-10,-6,-3,-4,3,1,-1
1532162168497,59,11,-9,0,1,12,22,1
1532162168502,0,3,21,1,-1,2,1,-2
1532162168507,-8,-3,-6,0,0,-14,-6,1
1532162168512,-11,-4,1,0,-1,1,2,-2
1532162168517,7,3,-3,-1,3,1,-9,7
1532162168522,0,-3,-9,-1,-2,-11,-3,-6
1532162168527,27,8,2,0,2,11,-5,-1
1532162168532,17,8,1,-1,-2,-12,-3,2
1532162168537,-47,-2,4,-1,3,23,12,-6
1532162168542,8,-8,-20,-3,0,-3,-6,1
1532162168547,-13,-6,19,-1,-3,-3,-15,-3
1532162168552,1,2,-4,1,2,-11,-4,3
1532162168557,-3,-7,-6,-1,-6,-5,-4,-9
1532162168562,-37,14,7,1,10,18,10,2
1532162168567,62,13,-6,2,7,21,18,6
1532162168572,0,0,1,-3,-1,11,2,-1
1532162168577,-4,-3,0,-2,-3,-24,-16,0
1532162168582,5,-8,0,-2,-3,1,1,2
1532162168587,-20,-3,-7,-1,-4,-21,-5,2
1532162168592,10,4,3,0,0,19,5,5
1532162168597,1,-2,-1,-1,-3,-11,-3,-8
1532162168602,-1,0,-2,1,0,-11,-6,3
1532162168607,-12,1,-2,-3,-1,1,4,0
1532162168612,3,-5,-5,1,0,9,0,-2
1532162168617,-24,-4,1,-2,-2,0,3,-5
1532162168622,4,-6,-5,0,-4,-4,-11,-14
1532162168627,-5,6,0,-3,-3,-5,6,13
1532162168632,2,-4,-3,0,0,-2,4,3
1532162168637,6,1,8,2,4,1,-3,-2
1532162168642,5,0,6,-3,-5,-12,-9,1
1532162168647,-12,-7,-7,0,-4,6,3,-17
1532162168652,-2,-3,2,-1,-3,4,-10,18
1532162168657,2,2,-7,-1,4,-9,4,2
1532162168662,2,1,-1,-1,-2,-16,0,1
1532162168667,-9,-5,0,-1,-6,-15,-6,-6
1532162168672,-1,1,-5,-2,3,3,2,-10
1532162168677,3,0,2,2,7,10,-1,5
1532162168682,6,1,-4,-4,-5,0,-6,-2
1532162168687,-30,-6,-3,0,3,5,-2,0
1532162168692,8,2,2,-1,-2,-10,1,-8
1532162168697,-4,1,0,-1,-4,0,-1,4
1532162168702,-8,-9,0,-1,-1,1,1,-2
1532162168707,-16,-1,-9,-2,-1,1,-5,-9
1532162168712,-2,-1,0,1,1,11,5,-4
1532162168717,13,3,1,-2,-4,-15,-2,1
1532162168722,-21,2,0,-2,-3,-7,1,-1
1532162168727,1,-10,-4,0,1,15,-10,1
1532162168732,3,0,-10,-1,0,-1,-1,-5
1532162168737,-21,-1,17,-1,-5,-5,-5,1
1532162168742,24,4,-2,1,1,-8,1,2
1532162168747,12,8,4,-2,1,5,-2,-3
1532162168752,-11,-4,1,-1,-3,-10,1,-7
1532162168757,0,-2,-12,0,-3,10,-4,-3
1532162168762,-14,-3,-3,-2,0,-10,8,-1
1532162168767,-3,0,3,0,0,-13,-8,0
1532162168772,25,-2,-1,-1,1,5,-2,0
1532162168777,-4,1,-3,-1,-2,-2,3,5
1532162168782,11,1,2,1,0,13,-3,-7
1532162168787,-4,-4,-6,-4,-4,2,-4,1
1532162168792,-10,0,0,-1,-3,3,-9,-3
1532162168797,2,-1,-5,-1,2,-4,2,-3
1532162168802,6,4,2,3,3,-3,-9,3
1532162168807,-15,-3,-1,-2,0,5,1,-11
1532162168812,34,4,1,-3,-3,-9,-2,5
1532162168817,28,-6,4,0,-6,-11,13,3
1532162168822,-4,5,-1,1,4,13,-5,-2
1532162168827,-3,-5,-2,0,-1,-9,-5,-15
1532162168832,-8,3,-1,-1,-4,2,9,13
1532162168837,-4,-1,-5,-1,-2,-3,-8,8
1532162168842,3,-6,-1,-2,1,12,12,2
1532162168847,7,2,-2,2,-1,-7,0,-6
1532162168852,-18,-3,0,-2,0,6,-2,-9
1532162168857,-8,-2,-1,0,-2,-4,-10,-40
1532162168862,-8,-5,-2,-3,-4,-21,-7,21
1532162168867,11,3,3,0,1,11,28,24
1532162168872,-4,-3,3,2,-1,-14,-8,-5
1532162168877,-6,-1,-1,-1,0,-3,-1,2
1532162168882,-1,0,-2,-4,-3,22,-3,-26
1532162168887,6,-2,-1,0,0,-5,-7,-6
1532162168892,-9,-2,0,-1,-2,-9,-2,-2
1532162168897,6,1,-4,0,-2,12,5,25
1532162168902,-4,0,-7,-1,-3,8,1,0
1532162168907,-16,-2,16,1,-2,-26,-8,8
1532162168912,10,1,0,-2,-3,7,-1,-12
1532162168917,-17,9,0,-1,-3,-11,-5,-3
1532162168922,12,-10,-5,-3,-1,-3,1,4
1532162168927,-10,-2,-3,-1,-1,17,-2,0
1532162168932,4,-2,0,2,3,-3,1,-4
1532162168937,1,-2,3,-2,-1,20,0,1
1532162168942,-26,2,-2,0,-2,-36,1,-9
1532162168947,-9,-4,-20,1,4,-19,-8,3
1532162168952,16,5,27,1,5,6,8,13
1532162168957,-10,-4,-3,-2,1,8,-4,-2
1532162168962,-1,0,-3,-2,-3,7,0,-2
1532162168967,-2,-5,-5,-2,-5,8,-4,-7
1532162168972,-4,3,-6,-1,3,1,0,3
1532162168977,27,-1,-1,1,3,6,2,2
1532162168982,-4,2,7,1,-6,-39,-10,-3
1532162168987,10,4,1,1,-1,-4,1,4
1532162168992,-9,-4,-7,-2,-2,3,1,2
1532162168997,-8,-4,0,0,0,7,-5,-10
1532162169002,1,-2,-3,0,5,28,21,5
1532162169007,13,-1,-6,-3,-5,6,-6,6
1532162169012,-15,-2,-16,1,-1,-23,-12,-13
1532162169017,-2,3,33,1,0,-7,0,10
1532162169022,13,3,4,1,4,4,4,2
1532162169027,-4,-1,0,0,-1,0,4,-3
1532162169032,-8,5,3,-5,-5,4,0,8
1532162169037,2,-10,-20,-1,-3,-16,-7,-9
1532162169042,1,-2,1,-2,-2,11,0,-1
1532162169047,1,2,8,-2,1,1,0,-4
1532162169052,-5,-4,-7,-2,-5,-18,-8,-14
1532162169057,2,1,-3,1,3,8,2,4
1532162169062,-2,2,1,1,0,13,-3,-2
1532162169067,2,-2,-5,-1,1,-6,9,5
1532162169072,1,-1,1,1,1,5,5,-4
1532162169077,1,-1,-6,1,0,-10,-6,-1
1532162169082,-15,-3,2,0,-4,3,-15,-15
1532162169087,4,2,1,-1,-5,2,20,8
1532162169092,0,-5,1,0,-1,5,-7,-1
1532162169097,-19,-2,6,1,6,-23,5,17
1532162169102,-16,-4,-7,0,0,-8,-7,-5
1532162169107,26,1,-1,-1,0,12,-8,-9
1532162169112,-4,-1,4,-1,1,16,8,4
1532162169117,8,-5,-12,-3,-2,1,-6,-9
1532162169122,-3,0,1,-1,1,-23,12,9
1532162169127,-17,0,3,-2,-2,2,-5,-4
1532162169132,16,1,-6,-2,2,30,1,10
1532162169137,-28,-5,-3,-1,-1,-6,-4,-11
1532162169142,-2,3,3,-1,-3,5,3,0
1532162169147,-2,-3,-1,1,0,-17,-8,-5
1532162169152,-1,2,-1,-1,-1,-5,4,-5
1532162169157,4,3,0,0,-1,-6,2,-3
1532162169162,20,-2,1,-1,-1,17,6,11
1532162169167,-25,-5,-4,-3,2,21,-12,-11
1532162169172,-8,-2,0,1,2,-27,2,8
1532162169177,7,1,-4,-1,-4,-2,4,3
1532162169182,-3,-3,-7,-4,-2,-3,-7,-7
1532162169187,0,1,-1,-3,-2,16,-2,-1
1532162169192,-4,-2,-1,0,-2,-31,-5,0
1532162169197,7,0,-2,-2,-1,23,4,-4
1532162169202,4,3,0,-2,-1,-7,-9,2
1532162169207,3,-4,-2,3,1,-1,0,-13
1532162169212,-1,0,1,0,0,-1,-5,12
1532162169217,3,0,-1,-1,-3,-3,6,8
1532162169222,3,0,0,-3,-2,-6,5,1
1532162169227,2,1,0,0,1,7,0,0
1532162169232,-8,-4,-2,-2,0,-6,-1,-16
1532162169237,1,-3,-2,-3,-4,-9,-15,5
1532162169242,4,1,0,4,8,3,10,12
1532162169247,4,-2,0,-5,-9,-13,-8,1
1532162169252,-1,0,-2,-1,-3,8,-2,2
1532162169257,-1,-1,-2,-2,-1,4,4,-7
1532162169262,3,-2,-1,0,2,-1,-8,2
1532162169267,-1,2,-2,2,0,-6,-10,1
1532162169272,0,-1,-2,-1,-1,-9,-3,2
1532162169277,-1,-1,-1,0,-4,-18,-6,-14
1532162169282,-3,-7,-6,-1,-4,1,-3,-2
1532162169287,2,1,-1,-1,1,-4,-8,1
1532162169292,-33,-7,-2,-3,-8,-26,-5,-1
1532162169297,24,1,0,-2,-3,5,-7,-12
1532162169302,-31,1,1,-1,2,-2,1,0
1532162169307,45,1,-1,-1,-2,18,6,1
1532162169312,-10,-3,-2,-2,-2,-5,-2,-2
1532162169317,-13,-4,-1,0,-3,-19,-16,-8
1532162169322,15,-1,0,-1,1,-1,2,5
1532162169327,-13,1,-1,-3,-3,-3,-5,2
1532162169332,10,3,2,0,3,13,12,16
1532162169337,0,-7,-2,0,2,-3,0,-4
1532162169342,5,0,-1,-2,0,5,-2,-10
1532162169347,-14,-1,1,-1,0,-6,-4,-5
1532162169352,9,0,-1,0,-3,2,0,-3
1532162169357,-4,3,-1,-1,-1,-1,-3,0
1532162169362,0,-5,-1,0,-3,-18,-2,-5
1532162169367,-35,-2,-1,0,-3,-3,1,4
1532162169372,12,6,1,-1,-4,2,-2,-4
1532162169377,-4,-6,-3,-3,3,9,0,-1
1532162169382,7,0,-1,0,-2,16,3,-4
1532162169387,-8,-3,-2,-2,0,-1,2,-1
1532162169392,0,-1,0,-1,1,-11,-2,0
1532162169397,8,1,1,0,-2,0,2,5
1532162169402,-13,-1,0,-1,0,-3,-1,-8
1532162169407,2,-4,-2,-1,1,-2,-11,-4
1532162169412,0,-2,-2,0,-3,2,4,-8
1532162169417,8,0,1,-1,-1,8,8,26
1532162169422,9,1,1,0,0,-12,1,-2
1532162169427,4,0,-1,-1,-1,-8,2,-2
1532162169432,-1,-4,-2,-1,-2,1,-8,-10
1532162169437,-4,1,0,1,0,-7,-7,-9
1532162169442,0,-3,0,-1,-1,1,3,3
1532162169447,-1,-2,-2,0,4,4,5,-1
1532162169452,-3,-2,-2,-1,0,5,-17,-8
1532162169457,-5,2,-1,0,-6,-25,-9,-12
1532162169462,2,1,0,-3,-1,22,10,21
1532162169467,3,-1,-1,-1,1,-15,1,-3
1532162169472,0,-3,0,-1,0,9,2,-1
1532162169477,-12,-3,1,0,3,9,-1,-12
1532162169482,2,3,-2,0,1,-12,3,4
1532162169487,4,-7,-3,1,-1,7,-1,3
1532162169492,-22,0,1,-1,0,-6,3,4
1532162169497,7,-2,-1,-3,-4,-1,-10,-10
1532162169502,-11,-3,-1,-2,-4,-16,-8,-11
1532162169507,-2,1,1,0,1,12,-1,2
1532162169512,-11,-4,-8,-2,0,-14,3,10
1532162169517,7,9,13,0,1,10,1,-3
1532162169522,1,-4,-1,-3,-1,6,2,-2
1532162169527,0,-1,-3,-2,-4,-11,-9,-1
1532162169532,-6,-1,1,0,-5,-5,-7,-7
1532162169537,-5,0,-5,-1,2,7,0,8
1532162169542,5,-1,-3,-1,1,11,6,-4
1532162169547,-11,6,3,-1,0,9,-2,-7
1532162169552,13,-6,-2,-3,0,-19,5,5
1532162169557,-14,-3,-4,-3,-2,19,0,1
1532162169562,1,0,1,2,4,-18,-8,-8
1532162169567,-4,0,-1,-2,-5,2,4,4
1532162169572,8,4,2,-2,-1,10,2,2
1532162169577,5,-2,-1,-2,-4,-7,-2,-3
1532162169582,-2,0,0,-1,-3,-7,-8,2
1532162169587,1,0,-3,2,0,12,9,-1
1532162169592,9,1,2,1,1,-10,-8,-7
1532162169597,1,-3,-2,-1,3,10,2,22
1532162169602,-4,0,-1,0,-3,-9,3,-1
1532162169607,5,-3,-1,-1,-1,-4,0,-1
1532162169612,2,2,0,-2,-1,20,1,-3
1532162169617,-6,-4,-4,-2,0,-10,-4,-12
1532162169622,1,1,-1,1,6,-3,-4,-1
1532162169627,3,-1,-1,-3,-9,-12,1,1
1532162169632,0,-1,-2,-2,-2,2,-1,0
1532162169637,0,-1,-1,1,-1,-17,4,-2
1532162169642,8,-3,-1,-1,-5,-1,3,-1
1532162169647,-2,3,1,-1,3,-4,6,6
1532162169652,1,1,-1,2,1,0,-9,-2
1532162169657,-1,1,-2,-2,-2,15,-1,-2
1532162169662,2,-3,0,0,1,8,7,6
1532162169667,-1,0,0,2,4,-9,-3,-4
1532162169672,-1,-4,-1,0,-5,-21,3,1
1532162169677,-2,2,0,0,1,15,9,-16
1532162169682,-5,-7,-3,-3,-3,5,-19,10
1532162169687,2,-2,-2,-3,0,12,15,14
1532162169692,2,3,0,-2,0,5,2,2
1532162169697,4,-1,-1,1,2,-33,-6,-8
1532162169702,-10,-1,0,-3,-1,1,-1,-12
1532162169707,-27,-7,-1,-2,-3,-12,-8,-3
1532162169712,74,7,1,0,-1,19,-1,0
1532162169717,-17,0,-2,1,5,16,-2,1
1532162169722,4,1,0,-1,-2,-8,-3,-7
1532162169727,4,-3,-1,0,1,-12,-1,2
1532162169732,-42,-4,1,0,1,-18,-17,-1
1532162169737,55,5,0,-1,-1,13,8,13
1532162169742,3,1,-2,-1,2,17,17,1
1532162169747,1,3,2,0,2,-5,-12,-9
1532162169752,-10,-1,-3,-3,-3,-3,5,3
1532162169757,-15,-4,-2,-1,-4,-11,-7,-2
1532162169762,-11,-1,-1,0,0,-11,-7,-5
1532162169767,9,7,2,-2,-2,19,0,-7
1532162169772,-2,-9,-5,-2,3,6,8,-1
1532162169777,-7,0,-1,-2,-2,10,-2,1
1532162169782,-6,-1,-1,2,1,-12,-4,-6
1532162169787,0,1,-2,-1,-4,-5,-7,-4
1532162169792,-3,-1,0,0,0,1,-1,-3
1532162169797,-6,-2,0,0,0,-4,10,8
1532162169802,-29,-6,-2,-1,-2,8,2,-2
1532162169807,27,1,0,0,-1,1,-4,-12
1532162169812,-13,0,-1,0,0,1,4,-1
1532162169817,0,-2,-2,0,-4,-8,-8,-6
1532162169822,0,0,1,-2,-1,9,-4,2
1532162169827,-1,-1,-2,1,3,9,3,2
1532162169832,-10,-1,0,2,0,-14,7,-3
1532162169837,-10,-1,-1,0,-7,-28,-1,3
1532162169842,9,1,1,-3,0,5,-13,-8
1532162169847,-1,-2,-2,-1,-1,-7,1,4
1532162169852,3,2,1,-1,-3,12,1,-6
1532162169857,-5,-4,-2,1,7,12,-1,2
1532162169862,4,3,0,1,0,-15,2,1
1532162169867,-1,-4,-1,0,1,4,0,0
1532162169872,-6,-2,0,-2,-5,-2,-3,5
1532162169877,-2,0,0,-1,-4,-8,-3,-10
1532162169882,6,-1,-2,0,-3,-2,1,-6
1532162169887,-5,-4,1,0,3,1,-5,13
1532162169892,10,4,-1,0,1,2,4,-3
1532162169897,-11,-4,0,-3,-2,9,0,-2
1532162169902,5,1,0,0,0,-16,-1,2
1532162169907,-6,-1,-2,-3,-3,4,-6,-9
1532162169912,-5,-3,-3,-1,-1,-4,-5,-9
1532162169917,3,1,-2,-2,-2,0,-12,3
1532162169922,2,0,0,0,4,6,10,8
1532162169927,-3,0,0,0,-2,-3,11,0
1532162169932,3,-1,0,0,2,9,2,5
1532162169937,-3,-1,-2,0,-5,-13,-4,-7
1532162169942,-2,0,-1,-1,-3,-2,-1,-7
1532162169947,6,-4,-2,-2,-4,-3,-12,13
1532162169952,4,4,1,0,2,12,19,1
1532162169957,-3,-2,1,-3,-1,-21,-9,-8
1532162169962,-25,-4,-5,1,-3,14,10,14
1532162169967,1,0,-2,-2,2,12,0,-11
1532162169972,1,-1,0,1,0,-4,2,4
1532162169977,4,1,-1,-1,-1,-30,1,-2
1532162169982,0,-2,1,0,0,21,-6,-2
1532162169987,-5,0,0,0,-1,-6,3,0
1532162169992,-11,-2,3,-1,-1,-2,-5,-3
1532162169997,2,-4,-5,-1,0,5,6,6
1532162170002,13,-1,-1,-2,-2,6,-6,-3
1532162170007,-13,-1,-1,1,3,-3,1,-6
1532162170012,-15,-5,-3,-3,-4,-16,-16,2
1532162170017,3,3,0,-1,-4,-6,-2,0
1532162170022,7,0,0,0,-2,-6,4,-2
1532162170027,0,-2,-1,-1,-2,20,0,-3
1532162170032,-9,-4,-3,-2,0,-6,-3,-2
1532162170037,1,0,-1,-2,1,15,2,5
1532162170042,14,3,-1,0,1,-5,-2,-1
1532162170047,-17,-3,-1,-1,-4,-10,0,-5
1532162170052,3,-2,-2,-1,-3,8,-4,-13
1532162170057,7,3,-1,-1,5,2,7,15
1532162170062,1,1,1,-2,-4,-13,-4,-5
1532162170067,5,-2,-1,0,2,3,2,2
1532162170072,5,-1,0,0,-2,-11,-2,-7
1532162170077,-5,-4,1,1,0,17,-4,0
1532162170082,-4,-1,0,-1,1,-4,3,0
1532162170087,6,-1,-1,0,-2,-9,-3,-3
1532162170092,2,1,-2,-1,2,10,2,-4
1532162170097,-3,0,0,1,-1,2,-1,0
1532162170102,-2,-2,-1,-2,1,-6,-3,1
1532162170107,5,2,0,-2,-4,0,-5,-2
1532162170112,3,2,2,2,2,6,11,2
1532162170117,-3,-3,-2,-3,-3,-3,-1,1
1532162170122,0,0,-1,0,-1,-17,6,-3
1532162170127,2,2,2,2,4,3,-6,0
1532162170132,-2,-2,-2,0,-1,-2,5,10
1532162170137,-2,0,-3,-4,-9,16,-3,-14
1532162170142,-3,-4,-1,-1,-1,4,3,3
1532162170147,14,3,-2,-1,-4,-32,-7,6
1532162170152,-16,-1,-1,-1,-2,-9,-7,6
1532162170157,-2,-2,-4,0,2,6,3,0
1532162170162,-27,-6,-1,-3,-2,7,-4,-9
1532162170167,19,-3,-4,-3,-2,15,-6,-16
1532162170172,7,-1,0,-3,-3,-19,17,25
1532162170177,6,0,1,3,4,-5,-4,-5
1532162170182,-17,-2,0,-2,-1,-6,-11,-5
1532162170187,-19,-6,0,1,3,13,5,0
1532162170192,8,4,-1,-1,-1,-6,-12,-13
1532162170197,-9,-3,-2,-2,-4,-7,1,-3
1532162170202,18,1,-2,0,3,31,4,11
1532162170207,-18,-2,2,0,3,-6,2,2
1532162170212,3,-3,-3,-1,-3,-3,-7,-4
1532162170217,1,-1,-2,-3,-4,-11,-5,-3
1532162170222,4,2,-1,0,-2,-10,-3,4
1532162170227,5,-2,-1,-4,-4,10,5,-2
1532162170232,-4,-2,0,0,3,8,3,-8
1532162170237,8,2,0,0,0,0,-3,18
1532162170242,-9,-3,-1,-2,-4,-1,-3,-9
1532162170247,-3,-1,-2,-1,-3,-8,5,7
1532162170252,3,0,1,1,2,0,1,-6
1532162170257,-7,-2,0,0,0,2,-10,-13
1532162170262,9,0,0,1,1,4,0,1
1532162170267,-31,-3,0,-3,-1,-5,3,9
1532162170272,16,4,0,-1,-2,-3,-5,-1
1532162170277,2,1,-2,2,2,8,2,-5
1532162170282,2,0,0,-1,-2,-9,-4,1
1532162170287,-4,-2,-2,1,-2,-14,1,-8
1532162170292,-3,-3,-3,0,1,12,-6,3
1532162170297,-4,-2,0,-2,2,1,10,-9
1532162170302,8,0,0,0,-2,-6,-1,3
1532162170307,8,2,-1,-1,-2,3,-1,4
1532162170312,-2,-1,-1,0,5,2,-7,2
1532162170317,1,0,0,-1,-2,-1,-1,-3
1532162170322,-3,-2,-1,-1,0,-2,-4,-6
1532162170327,7,4,2,0,0,11,8,-7
1532162170332,-3,-5,-5,-5,-2,-11,-31,14
1532162170337,-8,0,-1,-1,-5,-8,3,0
1532162170342,4,1,-1,-1,0,-14,4,2
1532162170347,1,-1,-2,0,0,-5,0,-2
1532162170352,-2,0,0,-1,-1,7,4,-8
1532162170357,-1,-4,-1,-1,2,23,0,-3
1532162170362,-2,-3,-2,-1,-3,-4,-11,-7
1532162170367,22,-1,-1,0,-2,-28,3,2
1532162170372,-21,3,2,1,0,9,12,4
1532162170377,-1,-2,-1,-1,-2,-3,-3,-4
1532162170382,7,1,-1,0,-2,-2,-2,-1
1532162170387,-14,-1,1,-1,1,16,6,2
1532162170392,-18,-5,0,0,-5,-6,-1,-4
1532162170397,-10,2,-1,-1,0,-2,-8,-3
1532162170402,46,2,-2,-2,-1,4,5,-2
1532162170407,22,3,-3,0,1,17,-7,4
1532162170412,-25,-1,-2,-3,-1,-14,5,3
1532162170417,-8,-2,1,1,-1,-10,-4,-6
1532162170422,-11,-4,-2,-2,1,4,-10,-7
1532162170427,-4,0,-1,-1,-2,-10,7,6
1532162170432,20,1,-1,0,-2,15,5,-1
1532162170437,1,-2,0,1,3,0,-4,0
1532162170442,-11,-2,0,1,-1,2,0,3
1532162170447,1,-1,0,-1,-1,4,-1,0
1532162170452,3,-5,1,-1,-3,-10,-11,-5
1532162170457,3,0,-2,0,-1,-4,2,3
1532162170462,-4,-1,-2,-1,-1,3,-5,0
1532162170467,-7,-1,-2,-2,0,1,-5,-5
1532162170472,10,0,-3,-1,0,-4,1,-3
1532162170477,1,0,0,-2,-3,-3,-6,3
1532162170482,-7,-4,0,-1,-1,2,-2,-5
1532162170487,-1,-2,1,1,5,-7,-6,4
1532162170492,5,1,0,-3,-10,-2,10,-2
1532162170497,3,-3,-3,-2,-2,0,-2,11
1532162170502,-10,2,-2,-1,-2,-4,1,0
1532162170507,-1,-1,0,-1,-1,-5,-8,-15
1532162170512,4,-2,1,0,2,3,-2,14
1532162170517,-2,-1,1,0,2,10,11,-5
1532162170522,-4,1,0,-1,-5,-7,-4,-1
1532162170527,0,-2,-3,0,-2,-26,6,3
1532162170532,3,0,-3,-2,-1,8,-17,-5
1532162170537,2,0,0,0,1,0,5,-9
1532162170542,-2,-1,0,-1,-1,-13,2,9
1532162170547,-3,-1,-1,0,-4,13,-8,-6
1532162170552,-1,0,0,0,2,-2,9,-7
1532162170557,3,0,0,-1,2,8,1,-1
1532162170562,-11,-3,-2,-3,1,3,-3,-2
1532162170567,2,2,0,0,-3,-2,10,-2
1532162170572,1,-1,-1,-2,-7,-12,-3,1
1532162170577,-3,-3,-1,0,-1,1,-1,11
1532162170582,4,1,0,0,2,-5,7,-2
1532162170587,-3,-1,1,-1,0,6,-5,-5
1532162170592,11,-2,-3,-1,2,13,1,-1
1532162170597,-4,-1,-1,-1,-1,-19,3,-3
1532162170602,-13,-7,-1,-2,1,5,0,-3
1532162170607,-14,0,-3,-2,-1,2,-4,7
1532162170612,53,8,1,2,1,6,8,-2
1532162170617,4,0,-1,-2,-3,-11,-4,-2
1532162170622,7,1,-2,0,0,-2,-7,-1
1532162170627,-12,-3,-1,-1,1,5,-4,-6
1532162170632,-18,-4,-1,0,0,12,0,-6
1532162170637,0,0,0,-1,-1,-9,2,11
1532162170642,12,0,-2,-1,-3,2,4,-2
1532162170647,-11,-2,0,-2,-3,7,-4,-1
1532162170652,-12,-4,-2,-2,-1,-10,1,2
1532162170657,3,-1,-1,0,0,5,-1,-13
1532162170662,-8,-1,1,1,-1,-1,-6,-1
1532162170667,9,0,-1,-1,0,-3,11,10
1532162170672,-9,-1,0,0,-1,-8,2,-11
1532162170677,-4,-1,-3,0,2,17,-12,-1
1532162170682,4,-1,-1,0,-2,1,13,2
1532162170687,-5,-3,-2,0,-2,2,-3,13
1532162170692,0,1,1,1,-1,-5,-2,-3
1532162170697,-2,-3,0,1,1,-11,1,-9
1532162170702,-5,2,0,0,2,6,-2,0
1532162170707,8,-2,-4,-1,-5,2,-3,-3
1532162170712,-9,1,2,0,2,-11,-8,-8
1532162170717,-4,-1,1,-3,-1,0,2,11
1532162170722,4,2,-1,-1,-2,1,8,2
1532162170727,0,-3,-2,1,2,3,-8,-7
1532162170732,-5,-2,-2,0,-1,-6,-4,-4
1532162170737,1,-1,-3,-1,-2,-3,9,1
1532162170742,-3,-1,-4,-2,-2,8,0,-1
1532162170747,4,0,0,0,4,-3,-6,-3
1532162170752,-1,-1,-1,-1,-2,4,10,9
1532162170757,2,-1,-2,-1,-1,-6,-3,-4
1532162170762,-3,-2,0,-2,-5,-14,-2,-2
1532162170767,7,2,-2,-3,-2,-2,-5,-9
1532162170772,-13,-8,-4,-1,-1,12,-6,-6
1532162170777,-15,0,0,-1,-1,5,9,1
1532162170782,31,2,2,0,-1,-21,-1,5
1532162170787,15,2,2,-1,-3,-8,-4,-3
1532162170792,1,2,2,-1,-1,-4,-3,-3
1532162170797,3,-4,-3,-2,1,26,2,-5
1532162170802,-37,-5,-2,-1,-2,-4,-2,-2
1532162170807,14,1,0,-1,-1,-23,-7,0
1532162170812,-1,1,-3,-1,1,17,4,4
1532162170817,-5,0,0,0,-2,-2,-8,-2
1532162170822,-8,-3,-1,-1,0,0,1,-3
1532162170827,-6,-3,-1,1,-1,10,0,0
1532162170832,1,-1,0,-1,1,2,4,1
1532162170837,-8,1,-1,-2,-4,-18,-6,-2
1532162170842,9,0,1,0,2,0,-5,1
1532162170847,-2,-2,-1,-1,-1,-9,7,-4
1532162170852,1,-1,-2,-1,-2,0,-4,4
1532162170857,4,0,0,-2,-1,-1,-10,3
1532162170862,5,0,-1,0,-1,5,-7,-4
1532162170867,-9,-2,-2,-2,-3,3,4,5
1532162170872,-6,-2,-1,0,2,-2,6,0
1532162170877,2,1,-2,-1,-2,-9,-3,-7
1532162170882,-5,0,0,2,-3,4,-1,-10
1532162170887,-5,-1,0,0,-2,5,-4,-5
1532162170892,2,1,-3,0,1,-11,-2,13
1532162170897,6,2,2,0,-2,4,2,-2
1532162170902,-1,-2,-1,-1,3,3,-3,-8
1532162170907,-1,2,0,-1,1,-1,0,1
1532162170912,0,-3,1,0,-3,-5,4,-5
1532162170917,0,0,-2,-1,0,-2,-13,-6
1532162170922,-4,-3,-3,-3,0,5,-4,0
1532162170927,-1,1,1,1,6,0,6,1
1532162170932,-2,1,-1,-2,-7,-4,1,4
1532162170937,-1,-2,1,-1,1,4,-2,-2
1532162170942,3,1,-1,0,1,-8,2,0
1532162170947,-2,-1,-3,0,1,-5,-3,-3
1532162170952,8,1,0,0,-2,-21,-6,-8
1532162170957,-15,-1,-2,-1,0,7,4,-1
1532162170962,-12,-1,0,-1,1,9,-9,-1
1532162170967,-1,-3,-3,-5,-1,10,-9,2
1532162170972,-9,-3,-3,-1,0,6,-6,-2
1532162170977,-23,-4,-3,-2,-4,-9,2,-3
1532162170982,52,5,1,-1,-2,-6,-4,2
1532162170987,-4,1,-1,-2,-3,-2,1,0
1532162170992,-14,-2,-1,-3,0,4,3,-1
1532162170997,7,-1,1,-3,2,-1,-5,-1
1532162171002,-13,-7,-3,-1,-2,11,5,3
1532162171007,9,4,1,0,-1,-9,2,0
1532162171012,0,0,-1,0,0,-4,-2,-1
1532162171017,-2,-3,-1,0,-2,3,9,1
1532162171022,-7,1,1,0,2,-7,-12,-1
1532162171027,-8,-4,-1,-3,-4,4,1,-3
1532162171032,-4,-2,-3,-1,0,1,-10,-11
1532162171037,15,2,-1,1,-1,-4,-3,17
1532162171042,1,0,-1,-1,-1,5,7,2
1532162171047,-2,-2,0,1,-1,-3,11,11
1532162171052,1,-1,1,0,3,2,-9,-4
1532162171057,7,-2,0,-1,0,1,0,-9
1532162171062,-9,-1,0,0,-1,-5,-3,-11
1532162171067,-5,-3,-3,0,-1,1,-3,2
1532162171072,6,-1,-2,-1,-2,-1,7,-4
1532162171077,-2,-2,-1,2,0,2,-6,0
1532162171082,-6,2,0,0,1,0,15,3
1532162171087,-2,-2,0,-1,-2,-5,-9,-23
1532162171092,2,2,0,1,-1,0,-11,10
1532162171097,6,2,1,0,0,2,33,31
1532162171102,-3,-1,-1,1,-1,-2,-3,-1
1532162171107,0,1,1,1,2,0,-1,-7
1532162171112,-4,-1,-1,-3,-3,1,-2,-14
1532162171117,-4,-2,-2,-2,-5,-6,-16,-14
1532162171122,0,-1,0,0,-3,2,11,7
1532162171127,-2,-1,0,0,1,2,6,0
1532162171132,-2,-1,0,-2,-3,-3,0,9
1532162171137,2,2,0,0,4,1,12,17
1532162171142,2,-2,-2,0,0,27,5,0
1532162171147,5,-1,-2,1,0,-16,-2,-10
1532162171152,-5,0,-2,-1,-6,-32,-11,-6
1532162171157,-14,-4,0,-1,-3,-2,-5,-6
1532162171162,1,-1,-1,-3,-1,4,1,-2
1532162171167,-59,-8,-3,-4,1,7,-8,-1
1532162171172,64,9,-1,-1,-1,8,17,10
1532162171177,-8,0,-2,0,-2,7,1,3
1532162171182,3,4,2,1,6,-2,-8,1
1532162171187,-6,-3,-2,-3,-5,0,-4,-6
1532162171192,-18,-4,-3,-2,-2,-1,-8,0
1532162171197,0,-1,-1,0,-3,-6,1,-2
1532162171202,11,0,0,1,-2,7,2,0
1532162171207,3,2,1,0,0,-11,2,1
1532162171212,-13,-4,-2,-1,2,2,0,-4
1532162171217,9,-2,-1,-1,-1,5,-2,-3
1532162171222,-8,-2,-2,-3,-3,-5,1,2
1532162171227,14,2,2,0,0,-6,-2,2
1532162171232,-7,-1,-1,-3,-2,4,-4,-7
1532162171237,-5,0,-2,-1,-1,-3,-6,1
1532162171242,-3,-1,-1,-1,-1,-7,4,-7
1532162171247,9,-3,-3,-3,-3,3,-10,6
1532162171252,-6,0,2,2,4,7,8,4
1532162171257,3,-2,-1,0,1,-2,-7,0
1532162171262,-3,-1,-3,-1,-1,-8,2,8
1532162171267,10,2,1,2,4,6,2,-11
1532162171272,-12,-5,-3,0,-1,-2,-11,-6
1532162171277,1,1,-1,-1,-3,-4,-2,-2
1532162171282,1,-1,-1,-1,0,-2,8,2
1532162171287,0,-2,-2,1,0,3,3,-3
1532162171292,-8,0,0,1,-2,1,-4,-6
1532162171297,0,-1,1,0,2,0,0,0
1532162171302,-1,-1,0,-3,-7,-6,2,4
1532162171307,4,-1,-2,-2,-1,0,0,-1
1532162171312,-3,-1,0,-1,-1,4,-4,-6
1532162171317,-4,-4,-1,-2,1,-1,6,4
1532162171322,-2,0,-2,-1,-3,-12,-5,-4
1532162171327,5,2,-1,-1,0,5,-2,13
1532162171332,-4,-2,-3,-3,1,-8,15,3
1532162171337,0,-2,1,0,-1,2,-11,-10
1532162171342,5,0,1,1,0,3,2,9
1532162171347,0,0,-1,-1,-4,-9,-10,-8
1532162171352,8,-1,-1,-2,-1,6,-9,-1
1532162171357,-7,0,-2,-2,0,4,10,1
1532162171362,-6,-1,1,0,-2,-3,-2,-6
1532162171367,-16,-5,-3,-3,-2,-2,-4,-4
1532162171372,17,6,-1,0,0,2,-9,1
1532162171377,8,1,-1,0,-2,-5,9,3
1532162171382,-13,-4,-1,1,-4,-18,-5,0
1532162171387,32,0,-1,-1,0,8,12,3
1532162171392,-7,-4,-2,-3,-3,5,-1,0
1532162171397,3,1,2,-1,1,-1,-8,-4
1532162171402,-1,-1,-1,0,0,-6,-6,-1
1532162171407,0,0,2,0,0,13,-3,-1
1532162171412,-13,-2,-1,-1,1,-7,5,0
1532162171417,13,1,0,0,-2,1,-10,-5
1532162171422,-8,-4,-2,-2,0,5,8,-8
1532162171427,-2,1,0,-2,-1,-5,-2,11
1532162171432,7,-1,-1,-2,-3,6,1,20
1532162171437,-21,-2,0,-2,0,-4,-1,1
1532162171442,1,-2,0,-1,0,-2,-4,0
1532162171447,-2,2,1,-1,0,1,1,-13
1532162171452,-9,-5,-2,-1,-2,-3,-5,-5
1532162171457,4,-2,-2,-1,1,-6,3,5
1532162171462,2,0,0,-2,-3,4,-1,-2
1532162171467,5,1,1,-1,1,0,-2,-6
1532162171472,-6,-2,0,-1,0,-6,-6,-5
1532162171477,1,0,1,0,0,0,-5,2
1532162171482,7,-1,0,0,-2,5,6,4
1532162171487,-13,-4,-3,0,0,-3,-2,1
1532162171492,4,-2,2,-1,0,0,0,-21
1532162171497,-5,2,0,-1,1,0,0,7
1532162171502,0,0,-1,-2,-3,0,-1,-3
1532162171507,-3,-1,0,0,0,-3,3,0
1532162171512,-3,-2,-3,-2,0,-2,0,2
1532162171517,3,-3,-3,-3,-4,-5,-6,-11
1532162171522,-3,-2,-4,-3,-3,-6,-11,4
1532162171527,-2,0,0,0,0,-1,13,2
1532162171532,-3,1,-2,0,-4,-3,-6,-4
1532162171537,-6,-3,-3,-1,-2,1,-1,-10
1532162171542,-2,0,-1,-1,2,1,-1,-1
1532162171547,0,-2,-1,-1,-2,4,-4,3
1532162171552,-2,0,1,1,2,5,3,3
1532162171557,2,0,-1,-2,-1,-12,4,3
1532162171562,14,0,-2,-1,-2,4,-1,-6
1532162171567,-14,-1,0,0,-2,-11,-6,-4
1532162171572,-2,4,1,-2,0,-1,-3,-2
1532162171577,-20,-4,-3,0,0,7,2,-5
1532162171582,-12,1,-2,-1,0,-2,-16,-2
1532162171587,37,0,-1,0,1,1,7,-1
1532162171592,5,0,-2,-2,-5,-6,-8,0
1532162171597,-11,-5,-1,-2,-4,2,13,-4
1532162171602,14,1,0,-1,2,1,3,2
1532162171607,-5,-4,-2,-3,-2,-3,-1,1
1532162171612,-25,-1,-1,0,-1,-3,3,-1
1532162171617,16,3,-2,0,-3,0,-6,0
1532162171622,-8,-5,0,-1,0,12,3,-5
1532162171627,-1,0,0,-1,-2,-5,1,-1
1532162171632,6,-2,-1,-1,-1,-15,0,3
1532162171637,-1,0,0,-2,-1,3,1,-4
1532162171642,2,1,-1,1,0,-3,2,-3
1532162171647,-11,-1,0,0,-3,5,-3,3
1532162171652,4,0,-2,-2,1,9,1,-6
1532162171657,2,-2,1,2,2,-3,0,6
1532162171662,-19,-3,0,0,2,-1,3,-3
1532162171667,37,5,1,0,3,1,-5,-4
1532162171672,-4,-3,-2,0,-2,-3,-5,-6
1532162171677,6,0,1,0,0,0,3,7
1532162171682,3,-1,0,1,0,1,5,-4
1532162171687,-16,-2,-2,-2,-1,-5,-13,13
1532162171692,1,-3,-1,-1,1,-2,-5,2
1532162171697,2,0,1,-4,-3,-1,-10,-7
1532162171702,-2,-1,1,0,-1,-1,0,10
1532162171707,-7,2,-1,-1,-2,-2,6,-7
1532162171712,0,-1,-2,0,-1,2,-1,-6
1532162171717,-2,-1,-2,-1,0,-2,-2,7
1532162171722,-3,-3,-2,0,0,-5,-9,-4
1532162171727,-8,-2,-1,0,-1,1,-2,-9
1532162171732,5,3,2,1,-1,5,8,7
1532162171737,0,-3,-4,-4,1,-2,0,-4
1532162171742,-1,1,-1,-3,1,-2,-7,-5
1532162171747,-6,-2,-1,0,2,-2,2,3
1532162171752,-12,-1,-1,0,2,-14,10,2
1532162171757,-16,-2,0,-1,2,17,0,9
1532162171762,34,5,-1,-1,1,-5,0,-5
1532162171767,-3,-2,-1,0,-3,-18,-4,-5
1532162171772,-3,0,0,1,-2,21,-8,-5
1532162171777,-19,-5,-1,0,-1,-9,2,12
1532162171782,-9,-1,-2,-2,0,7,6,-4
1532162171787,9,-2,0,1,-1,-2,-8,0
1532162171792,5,4,-1,-1,-4,-18,10,10
1532162171797,-19,-2,-2,-1,-4,1,1,-10
1532162171802,-5,-2,-2,-1,1,20,1,1
1532162171807,4,1,-2,-2,-3,-10,-4,-1
1532162171812,-20,-5,-1,-1,-1,28,-9,-4
1532162171817,38,6,-2,-1,0,-10,-1,-2
1532162171822,-5,-1,-1,1,-2,-37,-9,-6
1532162171827,-9,-3,-1,-2,2,26,5,2
1532162171832,2,-1,-2,-1,0,-14,1,-1
1532162171837,4,1,-1,-1,-2,5,-4,2
1532162171842,-1,0,0,-1,-3,-5,7,16
1532162171847,-36,-7,0,1,-1,-1,-5,-7
1532162171852,57,8,3,2,1,10,3,-11
1532162171857,10,0,-3,-1,-3,-2,0,1
1532162171862,-9,-4,-1,-2,-1,-4,0,4
1532162171867,4,4,-1,-1,2,2,-5,-1
1532162171872,-25,-5,-1,-2,0,-1,2,7
1532162171877,-3,-2,-2,-2,0,-5,0,-4
1532162171882,2,-5,0,0,-1,3,-6,-12
1532162171887,-8,0,-1,-1,-1,-1,-3,-2
1532162171892,-2,-3,-2,-1,-1,-3,10,6
1532162171897,7,1,0,-1,2,-5,-6,4
1532162171902,-11,-1,-2,-3,-5,3,2,0
1532162171907,10,-1,-2,-3,-4,-4,-4,-12
1532162171912,-4,-3,-3,-1,-1,-8,-13,-5
1532162171917,-1,-1,0,-3,2,7,7,0
1532162171922,-1,1,1,2,4,5,1,1
1532162171927,3,-1,-1,0,5,-4,-1,-1
1532162171932,3,2,-1,-3,-5,-1,-1,3
1532162171937,-9,-1,-3,-2,-6,-11,-11,-10
1532162171942,-1,-1,-2,-1,1,3,6,-1
1532162171947,5,1,1,2,-2,2,-5,-3
1532162171952,-6,-4,-1,-1,4,-1,-3,11
1532162171957,2,-1,0,1,-5,-10,1,-10
1532162171962,1,1,2,0,1,7,4,7
1532162171967,0,-1,-1,-2,-3,-2,5,3
1532162171972,-3,-1,-2,1,3,19,-5,-10
1532162171977,-1,-2,-1,0,-1,-6,6,3
1532162171982,-1,0,-1,0,-2,-25,-12,-7
1532162171987,-1,0,-1,0,1,8,14,7
1532162171992,1,-2,-2,-1,0,2,-6,0
1532162171997,2,1,1,1,4,-3,-8,-5
1532162172002,19,-1,-2,-3,-3,7,-4,6
1532162172007,-23,2,3,0,0,-11,6,3
1532162172012,-32,-5,-1,-3,-3,3,-11,0
1532162172017,72,8,3,2,5,0,12,6
1532162172022,-1,-1,0,1,-3,-11,-2,-9
1532162172027,6,-3,-3,-2,-2,22,-5,1
1532162172032,8,1,0,-1,-3,-22,1,9
1532162172037,-29,-6,-2,-4,-4,9,-5,1
1532162172042,-7,-3,0,-1,-1,-2,3,-8
1532162172047,14,1,0,1,-1,3,0,7
1532162172052,-7,-2,-2,0,-1,2,-3,5
1532162172057,-8,-1,-1,-1,-3,0,1,1
1532162172062,-1,-1,-1,-2,-1,3,-5,-4
1532162172067,-10,-2,0,-1,-3,-7,-5,-7
1532162172072,6,1,-2,0,-3,-4,2,-11
1532162172077,-7,-4,-2,-2,-4,-6,-3,12
1532162172082,-5,0,0,0,4,5,2,-1
1532162172087,2,-2,-2,-2,-6,-8,-4,-4
1532162172092,5,0,1,-2,-2,-6,2,-1
1532162172097,-6,0,-1,0,-1,1,-2,-16
1532162172102,-11,-1,-2,0,-4,2,-7,-6
1532162172107,9,2,1,2,4,-7,10,19
1532162172112,3,1,-2,-1,-3,-3,0,0
1532162172117,-14,-3,-2,-1,-2,3,4,2
1532162172122,-2,-1,-2,-1,2,0,-4,-5
1532162172127,2,1,1,-1,-1,0,-5,-9
1532162172132,1,0,0,-2,0,-2,1,-3
1532162172137,-4,1,3,2,2,4,0,-6
1532162172142,-1,-1,-3,-1,-3,-2,-3,5
1532162172147,2,0,-3,-2,-1,-4,-3,-6
1532162172152,-3,-1,-2,-1,-2,-1,5,4
1532162172157,-4,-2,-2,-2,-3,-9,-4,-5
1532162172162,1,-2,0,-1,3,10,7,9
1532162172167,-5,-2,-1,-1,-4,-8,-7,-7
1532162172172,-1,-1,-2,-1,-1,-7,-6,-2
1532162172177,-4,-1,-2,-3,0,1,3,-8
1532162172182,0,-2,-2,-3,-5,-6,-1,7
1532162172187,2,1,0,2,2,6,3,3
1532162172192,2,0,-3,-1,-1,7,-3,-5
1532162172197,0,-3,-1,0,1,-11,0,4
1532162172202,2,-3,-1,0,-2,-3,-5,-9
1532162172207,6,3,-1,-2,-2,-6,5,3
1532162172212,-9,-4,0,0,1,-12,-12,-2
1532162172217,-3,0,0,-2,1,21,11,5
1532162172222,3,-2,-1,-1,-2,-3,-2,-1
1532162172227,-47,-9,-4,-1,-4,-6,-8,-2
1532162172232,55,5,0,1,3,6,4,-7
1532162172237,1,0,-2,-2,-1,-5,-4,-1
1532162172242,-1,0,0,0,0,3,2,-1
1532162172247,3,-1,0,0,-2,2,6,4
1532162172252,-16,-2,-2,-2,-1,-3,-10,5
1532162172257,-6,-2,-1,0,-1,1,-4,-5
1532162172262,-4,0,0,0,-3,-3,1,0
1532162172267,2,-1,1,-2,2,5,1,-14
1532162172272,-7,-2,1,0,1,-4,4,9
1532162172277,5,1,2,1,2,2,-5,-5
1532162172282,-9,-2,-3,0,-2,-6,3,0
1532162172287,10,1,-1,-1,-1,6,1,0
1532162172292,-4,2,1,2,5,3,-7,-10
1532162172297,1,-1,-3,-1,-2,-9,-3,-3
1532162172302,-11,2,1,1,1,4,2,8
1532162172307,11,-1,-2,-1,-3,-3,3,-2
1532162172312,-12,-3,-1,-1,-3,4,3,-12
1532162172317,-1,0,0,1,-2,3,3,14
1532162172322,2,1,1,1,3,0,-5,-9
1532162172327,8,0,-1,-2,-2,-1,-2,4
1532162172332,-6,-3,-2,-3,-1,-4,1,0
1532162172337,-5,-1,-1,-1,-4,0,1,-7
1532162172342,3,-1,-1,-1,2,3,-10,-7
1532162172347,-3,-2,1,-1,1,-4,8,10
1532162172352,0,3,0,-1,-2,-3,3,-4
1532162172357,-4,-3,-2,-3,-3,-3,-6,2
1532162172362,0,-2,-1,-1,3,0,-4,1
1532162172367,-1,-1,-2,-2,-5,-2,-4,-6
1532162172372,-3,-2,-2,-1,-1,0,-3,1
1532162172377,1,-2,0,0,-2,-1,6,4
1532162172382,-1,0,-1,1,6,-1,11,3
1532162172387,-1,-3,-2,-1,-3,-4,-11,-4
1532162172392,-1,-2,0,-1,0,-1,3,-5
1532162172397,-2,2,-1,-1,-2,-1,-6,1
1532162172402,0,-2,-3,-1,-3,1,-5,-3
1532162172407,0,0,-2,0,2,3,2,5
1532162172412,0,1,-1,-1,-3,-7,3,-7
1532162172417,2,-2,0,0,3,1,1,-4
1532162172422,-4,-5,-1,-3,-5,-5,-6,14
1532162172427,-1,2,1,0,0,2,0,-4
1532162172432,-1,-3,-2,-3,-2,2,5,1
1532162172437,-3,-2,-3,-1,3,0,-2,-8
1532162172442,0,1,0,0,0,2,-3,-7
1532162172447,7,-1,0,1,0,-5,-4,0
1532162172452,-13,-5,1,0,-1,-2,-5,0
1532162172457,0,-2,0,-2,-2,-3,6,5
1532162172462,-2,3,-1,-2,-2,5,7,-1
1532162172467,-7,-3,0,0,0,0,-4,-1
1532162172472,22,2,-1,1,-1,-6,1,4
1532162172477,-8,1,-2,-1,-3,10,-4,-5
1532162172482,-3,-2,-2,1,-1,-4,-1,-3
1532162172487,4,-1,-2,-5,-2,-13,-5,0
1532162172492,-10,-1,1,0,-1,-9,-8,1
1532162172497,-2,0,-1,0,-1,-2,-1,-2
1532162172502,7,1,-2,-3,-2,-2,2,-4
1532162172507,-10,-1,1,0,1,8,5,-6
1532162172512,3,-3,-4,-1,-3,3,-7,16
1532162172517,1,0,1,-1,-2,1,-2,-3
1532162172522,9,3,2,-1,0,4,10,5
1532162172527,-11,-4,-2,0,-2,-2,-4,-1
1532162172532,-4,0,-1,-1,1,2,3,-7
1532162172537,4,1,0,0,1,-4,-4,-4
1532162172542,-4,-1,0,-1,-3,-4,-1,1
1532162172547,5,-1,-1,0,2,-2,-1,1
1532162172552,4,-1,0,-1,1,4,5,-6
1532162172557,-5,-2,-2,-1,1,3,-9,1
1532162172562,-1,-1,-1,0,-2,-4,1,-1
1532162172567,4,1,0,1,-2,-6,3,4
1532162172572,-4,1,1,-1,3,7,4,-4
1532162172577,2,-4,-2,-1,-6,-4,-2,2
1532162172582,-6,-1,0,-4,-1,0,-2,-6
1532162172587,4,0,0,0,1,0,-1,9
1532162172592,-3,0,0,0,-2,-1,1,-7
1532162172597,2,0,-2,1,1,0,0,8
1532162172602,-1,-2,-1,0,3,8,-4,-4
1532162172607,-3,-2,-4,-6,-8,-8,0,-2
1532162172612,1,-1,-2,0,-1,-2,-1,1
1532162172617,-2,-1,0,-1,0,-5,-1,-3
1532162172622,2,-1,-3,0,-2,-1,-5,-3
1532162172627,-14,-2,0,-1,3,5,-5,-9
1532162172632,2,0,-1,-1,-3,4,-5,5
1532162172637,0,0,0,0,-1,-3,12,0
1532162172642,-3,-1,-1,0,-2,-5,-4,1
1532162172647,3,-1,-2,-1,-3,0,-4,-4
1532162172652,0,-1,-2,-3,1,6,-4,-2
1532162172657,-5,-2,-3,0,0,-5,-1,0
1532162172662,2,-2,1,0,1,-8,0,0
1532162172667,1,0,-2,0,0,-7,-7,-9
1532162172672,-3,-1,-1,-1,-1,-1,8,12
1532162172677,10,0,0,-1,0,16,1,-3
1532162172682,-13,-1,0,0,-1,-7,-1,-7
1532162172687,-18,-2,-1,1,-1,-3,5,6
1532162172692,0,0,0,-1,0,-1,-3,-10
1532162172697,-1,-2,0,-2,1,6,6,9
1532162172702,8,2,1,0,-1,11,-13,1
1532162172707,-30,-5,-1,2,1,-5,-8,-10
1532162172712,11,1,0,-1,-1,0,8,2
1532162172717,44,5,1,-2,0,-9,2,1
1532162172722,4,-2,-1,-3,-2,1,2,0
1532162172727,8,1,0,0,0,5,0,2
1532162172732,-14,-2,-1,0,0,-4,-10,-3
1532162172737,-12,-3,0,-1,-1,0,0,-7
1532162172742,-1,-2,-3,-2,-5,-4,-2,1
1532162172747,14,1,1,-1,2,4,5,-5
1532162172752,-4,-1,-1,0,-1,-3,-6,-3
1532162172757,-1,0,-2,-1,-2,-4,-6,-7
1532162172762,-15,-7,-1,1,-1,-2,-7,0
1532162172767,5,1,-3,-3,-5,1,1,2
1532162172772,2,-1,-1,1,-2,-2,10,9
1532162172777,-12,1,1,0,-1,-1,-5,-8
1532162172782,-2,-4,0,-1,0,-2,1,-7
1532162172787,9,2,-1,-1,-1,3,-1,8
1532162172792,2,-1,0,-2,-1,-1,3,2
1532162172797,-5,-3,-2,-1,-1,-1,-3,0
1532162172802,1,0,0,-1,0,-1,3,-2
1532162172807,5,-1,0,-1,0,0,-1,0
1532162172812,-1,-1,1,-1,-1,1,-3,-3
1532162172817,-11,-2,1,-1,-1,-4,-1,1
1532162172822,2,1,-1,-1,1,3,4,0
1532162172827,0,-1,0,0,0,-1,-1,-5
1532162172832,-2,-2,-2,-1,-4,-6,-6,8
1532162172837,-4,-1,-1,0,-1,-4,-3,-6
1532162172842,1,0,-2,-1,-2,-2,-1,-4
1532162172847,4,-1,-1,0,0,0,4,6
1532162172852,-3,-3,-1,0,-1,-1,3,-7
1532162172857,-4,-2,-2,-1,-2,-2,-3,4
1532162172862,0,0,-1,-1,0,1,2,-3
1532162172867,-1,-3,-1,-2,-2,-2,-1,3
1532162172872,-1,0,-1,0,-1,0,-7,-4
1532162172877,-4,-1,-2,-1,-3,-2,-2,-5
1532162172882,0,0,-1,-2,-2,7,-1,9
1532162172887,15,0,-2,-2,-1,-7,-4,-10
1532162172892,-16,3,1,-1,-1,1,9,0
1532162172897,1,-1,-2,-1,-1,-6,-7,-1
1532162172902,-4,1,0,2,-2,2,15,12
1532162172907,11,-2,0,-1,2,6,-1,-6
1532162172912,3,-2,0,-2,-2,-9,-9,-1
1532162172917,-31,-4,-1,-1,1,12,17,-6
1532162172922,51,4,1,2,2,-10,-20,-2
1532162172927,1,4,-1,-1,-1,0,-2,2
1532162172932,-4,-1,-1,1,1,-6,-3,-7
1532162172937,-10,0,-1,-3,-3,4,2,-1
1532162172942,-11,-2,-1,-2,0,7,6,1
1532162172947,3,1,1,0,0,3,5,4
1532162172952,-12,-4,-1,-2,-1,4,-6,-4
1532162172957,8,0,0,0,0,-2,-1,6
1532162172962,-11,-1,-1,-3,-4,-8,-2,-12
1532162172967,-1,0,-1,-1,1,5,4,-3
1532162172972,1,1,0,-2,1,2,4,4
1532162172977,3,-2,-1,0,0,-10,-6,4
1532162172982,-1,0,-3,-2,0,-2,-2,-4
1532162172987,-11,-2,0,-1,-3,-3,3,1
1532162172992,7,0,-2,-1,0,2,6,-6
1532162172997,6,0,0,1,-1,0,-11,-1
1532162173002,-7,-1,0,0,1,-4,0,0
1532162173007,-7,-4,0,-1,1,0,-1,3
1532162173012,4,1,-2,-2,-2,1,0,-4
1532162173017,5,2,0,-1,0,-4,-1,9
1532162173022,-9,-1,-1,0,-1,1,2,-4
1532162173027,-4,-3,-2,-1,1,0,-8,-8
1532162173032,7,-2,-1,2,3,1,-7,-2
1532162173037,-2,-3,-1,-3,-3,-10,3,-2
1532162173042,-1,0,0,-2,-4,4,5,3
1532162173047,-2,1,-1,0,-2,-3,-1,-8
1532162173052,0,0,-1,-2,-4,9,-6,-4
1532162173057,0,1,-1,1,3,-3,-17,-5
1532162173062,-4,-4,-2,1,-3,-4,1,1
1532162173067,-2,0,-2,-1,-2,-7,-7,-5
1532162173072,0,-3,-1,-3,-2,-4,6,10
1532162173077,5,0,0,-2,0,5,4,-3
1532162173082,-13,1,-3,-2,0,4,1,4
1532162173087,0,-2,-1,0,-2,-5,-4,-1
1532162173092,0,-3,-2,0,-1,-11,-3,0
1532162173097,1,-1,-1,-1,-2,-1,6,0
1532162173102,10,-2,-2,-1,-3,-5,-11,-8
1532162173107,-24,-4,0,-1,1,16,11,-1
1532162173112,0,-1,-2,-3,-4,7,4,7
1532162173117,1,0,1,1,-2,-18,-9,-7
1532162173122,0,1,-1,-2,-1,-3,-3,11
1532162173127,6,1,-1,1,-2,-2,-1,0
1532162173132,-12,-4,-1,-1,-1,1,4,-4
1532162173137,-4,0,1,1,1,8,-4,-11
1532162173142,0,-3,-2,-1,-3,-2,3,5
1532162173147,3,1,1,0,0,-3,0,2
1532162173152,1,-2,0,-1,-1,0,-2,-2
1532162173157,8,-1,-1,-1,-1,-1,-3,5
1532162173162,-19,-2,0,-2,-1,-4,0,-6
1532162173167,13,-1,-2,0,-2,-4,0,5
1532162173172,-12,-3,0,0,1,-1,-6,-7
1532162173177,-1,-2,-1,0,2,3,-1,2
1532162173182,6,2,3,2,3,-1,2,-12
1532162173187,-4,-3,-4,-2,-1,-1,-3,8
1532162173192,10,2,0,0,0,-2,2,3
1532162173197,-6,0,-1,0,-1,1,1,-1
1532162173202,-2,-2,1,-2,-1,-1,5,1
1532162173207,1,-1,-2,0,0,0,-6,-11
1532162173212,-2,0,-1,2,-1,-3,-4,-11
1532162173217,1,-1,-2,-1,-1,2,12,19
1532162173222,2,2,0,1,0,4,-10,-6
1532162173227,-3,0,0,0,0,-3,-2,-1
1532162173232,2,2,-1,-3,-3,-1,-4,-10
1532162173237,-3,-1,-1,-2,-5,-1,4,-2
1532162173242,2,0,0,-1,4,7,5,10
1532162173247,-2,0,1,-3,-6,-3,-4,-2
1532162173252,11,-2,-3,0,3,0,-2,3
1532162173257,-4,4,-1,-1,-4,-20,-2,-6
1532162173262,-1,-2,-1,-2,0,1,2,-4
1532162173267,-3,-3,-1,-3,-1,2,-1,2
1532162173272,2,0,0,-3,0,3,-2,-8
1532162173277,4,-3,-1,0,1,9,7,11
1532162173282,2,-1,-1,0,-3,6,-3,0
1532162173287,0,1,0,0,2,-4,0,-1
1532162173292,-2,0,0,1,-2,-1,-2,-2
1532162173297,2,0,1,-1,2,1,-9,-2
1532162173302,4,-1,0,-3,-3,-7,2,0
1532162173307,-9,-4,-1,-1,-3,0,3,-2
1532162173312,0,-3,-1,1,1,4,2,-1
1532162173317,-2,0,-1,-1,0,10,-2,-12
1532162173322,-22,-6,-2,0,-1,-13,-2,0
1532162173327,30,7,1,1,-3,-5,-4,0
1532162173332,0,0,-1,-2,0,-4,7,-1
1532162173337,5,-2,-2,0,-1,1,0,3
1532162173342,-10,-2,0,-2,-2,3,-4,-3
1532162173347,-7,-2,-2,-1,2,0,-1,-4
1532162173352,-2,1,0,-2,-3,-6,-1,3
1532162173357,1,-1,-2,-1,-1,-8,-1,4
1532162173362,7,0,-1,0,0,6,4,-1
1532162173367,-6,-1,0,1,3,-9,2,0
1532162173372,6,0,0,-1,-2,0,-5,8
1532162173377,-12,-2,-1,-1,0,2,-2,-7
1532162173382,3,0,-2,0,-2,-4,5,-11
1532162173387,-2,1,-2,-1,0,0,-4,1
1532162173392,-3,0,-2,0,-1,5,0,9
1532162173397,2,0,1,2,3,-1,3,11
1532162173402,0,0,-3,-2,-3,-9,-4,-3
1532162173407,-2,-4,-2,-3,-7,4,1,-10
1532162173412,-2,0,0,1,4,-7,-4,-4
1532162173417,-2,-2,-2,-2,-6,13,-2,-6
1532162173422,5,2,-2,2,4,-2,3,1
1532162173427,-5,-1,-1,0,0,-4,-5,2
1532162173432,-2,0,-2,-1,-2,1,-1,1
1532162173437,-1,-2,-3,-1,1,-3,1,-8
1532162173442,0,-1,-1,-3,-2,3,-3,3
1532162173447,-2,-2,-1,-1,-1,1,-6,-3
1532162173452,-2,1,0,1,-1,-2,5,1
1532162173457,-1,1,0,2,3,1,3,-3
1532162173462,6,-2,-1,-2,-2,2,-1,-3
1532162173467,-15,-1,0,-2,0,-2,-3,2
1532162173472,1,-1,-1,-2,-2,-10,3,-14
1532162173477,6,0,-1,-2,2,14,7,23
1532162173482,0,0,0,0,3,-7,-10,1
1532162173487,-10,0,2,0,2,6,6,-1
1532162173492,11,0,-1,-1,0,-3,-7,-6
1532162173497,-9,-4,-2,-3,-6,-2,1,-4
1532162173502,1,-2,0,-1,-4,-14,-7,-7
1532162173507,8,0,0,0,1,2,4,3
1532162173512,-1,-5,-2,-1,-3,-1,-3,5
1532162173517,2,2,1,1,2,3,-2,-10
1532162173522,6,0,0,-2,-2,11,1,2
1532162173527,-5,-1,-2,1,-1,-20,4,1
1532162173532,-3,-2,-2,-1,-3,-4,-3,7
1532162173537,11,-1,-1,-1,-1,-4,3,-5
1532162173542,-18,-3,-1,-1,-2,5,-2,-7
1532162173547,7,1,-1,0,0,8,4,5
1532162173552,-9,-2,1,0,1,3,-10,-4
1532162173557,9,-1,-1,0,0,-5,4,-3
1532162173562,4,1,-1,-2,-1,-5,-1,2
1532162173567,2,-2,-1,-1,-1,-1,-6,1
1532162173572,0,2,0,0,0,2,3,1
1532162173577,-13,-1,-1,-2,-2,-5,-10,-6
1532162173582,1,0,-2,-2,-2,-2,1,4
1532162173587,5,-1,-3,-1,-3,-1,-3,-2
1532162173592,-3,-3,-1,-2,-1,4,6,-10
1532162173597,-12,0,0,0,-1,-6,-12,10
1532162173602,0,-2,-1,2,0,-2,-1,0
1532162173607,-3,1,0,0,1,2,-12,-14
1532162173612,1,0,-3,-1,-2,-4,-1,15
1532162173617,-4,-3,-2,-3,1,-1,14,-12
1532162173622,1,3,1,-2,-6,21,-6,-2
1532162173627,0,-1,0,1,2,5,0,5
1532162173632,-5,-2,-1,-2,-4,-24,-6,-13
1532162173637,1,-1,0,0,-2,-11,-10,-1
1532162173642,-2,-2,-2,-1,1,-2,14,14
1532162173647,6,-1,0,0,2,14,29,6
1532162173652,-3,-1,-2,-1,-2,10,-11,2
1532162173657,0,-1,-1,0,-5,-10,-11,-12
1532162173662,-1,-1,-1,1,2,5,-1,-1
1532162173667,0,0,0,-1,-3,0,18,-5
1532162173672,-3,-3,0,0,2,-5,-50,-6
1532162173677,-3,-2,-1,-1,3,-1,-18,-14
1532162173682,0,-4,-3,-3,-6,-19,-26,4
1532162173687,5,2,1,-1,2,11,41,7
1532162173692,-1,2,1,-1,4,22,44,3
1532162173697,6,0,0,-2,-4,-3,1,0
1532162173702,-5,-4,1,2,2,-23,-12,-8
1532162173707,-1,5,1,-1,-5,-24,-5,7
1532162173712,8,1,-3,-2,-4,13,6,6
1532162173717,-10,-1,1,0,1,19,2,-9
1532162173722,-13,0,0,3,6,5,43,11
1532162173727,16,-2,0,-2,-4,-2,-10,-7
1532162173732,11,3,0,0,2,6,0,0
1532162173737,17,0,0,1,0,-37,-25,-1
1532162173742,-10,3,1,-2,-1,15,16,-6
1532162173747,-21,-7,-4,-1,0,0,-45,-1
1532162173752,1,0,-1,-1,-2,-11,6,0
1532162173757,-4,-1,-1,-1,-2,5,2,4
1532162173762,-2,-4,0,-2,-2,-9,2,1
1532162173767,0,-1,0,0,-2,10,7,11
1532162173772,-3,-2,-1,0,1,17,-2,4
1532162173777,5,1,2,1,2,8,54,6
1532162173782,-2,-8,-6,-6,-10,-13,-62,3
1532162173787,0,1,0,-4,-3,-13,-26,-5
1532162173792,6,-3,-1,-1,-2,-7,-13,0
1532162173797,-16,-1,-1,-2,-1,-8,1,8
1532162173802,3,-3,-1,0,-2,-3,14,-8
1532162173807,-20,-7,-1,0,1,3,2,-10
1532162173812,34,4,-1,-1,0,8,-1,-4
1532162173817,-10,-4,-2,0,4,13,6,13
1532162173822,9,10,2,1,-2,-2,18,-10
1532162173827,-3,0,-4,1,-3,-21,-19,-9
1532162173832,-13,-2,-1,1,-2,-18,12,-7
1532162173837,-11,-4,-3,-3,-1,37,-6,-1
1532162173842,9,0,0,-2,1,-6,-3,-1
1532162173847,3,0,1,-1,-1,2,6,1
1532162173852,-21,-3,-1,-1,0,-5,-17,-8
1532162173857,11,0,-3,-1,-1,-5,-8,-11
1532162173862,-4,-1,3,-1,4,-6,4,4
1532162173867,4,-1,-1,-2,-8,8,-2,-2
1532162173872,-6,2,-26,1,4,-15,-2,19
1532162173877,1,-4,33,-2,-11,-24,-2,1
1532162173882,7,3,3,1,5,59,37,-6
1532162173887,-5,-3,0,3,8,0,18,-1
1532162173892,2,-5,0,-1,-4,-10,13,20
1532162173897,23,10,-9,3,4,-5,21,-5
1532162173902,-9,-1,-4,-4,-6,-11,-14,-14
1532162173907,-12,-1,3,-2,1,11,17,3
1532162173912,10,-2,0,-2,1,26,-5,-1
1532162173917,1,1,-8,-4,-2,2,0,1
1532162173922,8,-2,3,-1,-4,-11,-7,-6
1532162173927,-3,1,-6,0,5,21,10,-1
1532162173932,-2,-4,4,-3,-6,-22,-13,-12
1532162173937,-16,-1,-6,-3,-4,1,-11,10
1532162173942,-7,2,-1,2,4,17,-5,-5
1532162173947,-13,-7,-1,-1,3,-28,-11,2
1532162173952,27,7,6,-1,-6,-46,9,-2
1532162173957,-20,-6,-2,2,2,36,-52,-29
1532162173962,1,-3,-6,-1,-2,-19,-26,-4
1532162173967,-2,0,-1,0,-2,-5,-1,5
1532162173972,-13,-6,1,-2,-3,18,3,4
1532162173977,-18,-3,-6,-3,-5,-20,-4,8
1532162173982,3,2,0,0,1,1,2,-16
1532162173987,21,-2,-4,-2,-2,4,-31,13
1532162173992,-8,2,1,-1,1,0,8,-5
1532162173997,-5,-3,-2,-1,-2,-17,0,-1
1532162174002,-10,-4,0,0,2,-1,-34,1
1532162174007,9,4,2,-4,-6,-12,-4,-13
1532162174012,15,1,0,2,5,1,28,38
1532162174017,-4,-2,-1,1,-1,-12,30,-8
1532162174022,-9,-5,0,-1,-5,13,-10,16
1532162174027,6,-2,-2,-4,-4,-6,-15,-3
1532162174032,-9,-6,-7,-6,-7,-25,-87,-19
1532162174037,12,-1,-2,-1,-1,8,1,8
1532162174042,-14,0,1,1,2,0,-17,-20
1532162174047,14,2,1,-1,-2,-20,0,-7
1532162174052,-3,-1,-1,-2,-3,-2,28,-7
1532162174057,9,2,1,-1,2,33,6,28
1532162174062,0,2,2,-1,0,6,-15,-19
1532162174067,-15,-1,-4,-2,-2,5,24,-4
1532162174072,-19,-1,1,3,7,6,5,-9
1532162174077,17,-8,-4,-5,-3,-1,-10,-20
1532162174082,-41,-3,-1,0,2,-8,-7,2
1532162174087,63,9,3,3,3,1,15,17
1532162174092,3,-1,0,-1,-5,-3,-61,-13
1532162174097,-11,0,-4,-5,-12,-36,21,-6
1532162174102,6,-2,0,1,5,37,10,-4
1532162174107,-10,-9,-5,-4,-6,2,-46,-3
1532162174112,-88,-14,-2,-1,-1,-6,12,20
1532162174117,85,20,5,3,3,5,-29,-1
1532162174122,9,-1,-2,-2,-9,-30,13,3
1532162174127,-1,0,-1,3,8,18,8,10
1532162174132,10,-2,-2,-2,-5,-22,25,-7
1532162174137,-33,-6,-2,0,-4,6,-23,-10
1532162174142,-9,-2,-1,-1,0,9,-16,-9
1532162174147,0,-1,-3,-3,-5,-16,5,-5
1532162174152,27,5,3,3,8,21,76,18
1532162174157,-25,-3,-1,-2,-3,-16,-11,-26
1532162174162,19,-2,-2,-5,-7,-3,-12,10
1532162174167,-16,2,3,5,7,9,23,9
1532162174172,16,3,-1,-5,-5,-5,9,5
1532162174177,1,-4,1,2,1,1,37,-6
1532162174182,-15,-2,-1,-1,-1,6,11,-9
1532162174187,-14,-1,-1,0,-1,-9,-2,19
1532162174192,23,-5,-3,-1,-3,4,0,-1
1532162174197,-12,8,-1,0,1,1,-10,11
1532162174202,2,-4,-2,-2,0,-6,-6,-2
1532162174207,-30,-3,-1,-1,-2,-2,13,-16
1532162174212,40,6,0,3,2,9,-23,-20
1532162174217,0,-6,-4,-4,-4,-8,-21,25
1532162174222,-9,1,3,1,1,-4,-9,-9
1532162174227,10,0,-2,-1,1,-3,-14,-23
1532162174232,-4,0,-2,-4,-5,5,22,32
1532162174237,-4,1,2,1,2,10,15,7
1532162174242,1,0,-2,-3,-3,-5,-32,11
1532162174247,3,-5,-2,-3,0,-17,-5,-10
1532162174252,-9,-2,-2,-2,-3,-7,-33,-6
1532162174257,-7,-5,-2,-2,-2,-14,0,-15
1532162174262,5,2,-2,-2,-3,28,16,10
1532162174267,-3,-4,-1,0,3,15,-8,-3
1532162174272,-29,1,-1,-1,-1,-11,14,-11
1532162174277,-12,2,1,2,5,2,17,-14
1532162174282,11,-2,-3,-3,-6,-15,-15,2
1532162174287,-10,-3,-8,-1,-5,-17,-1,0
1532162174292,-12,3,-4,-1,-1,22,42,-1
1532162174297,-17,-3,14,-1,6,12,-3,10
1532162174302,-16,10,2,2,4,-12,19,-1
1532162174307,-33,0,2,0,2,10,20,-19
1532162174312,-4,-5,-3,0,0,8,-26,-1
1532162174317,23,4,-4,-3,-6,-17,19,0
1532162174322,-11,-6,-4,0,-5,-25,-10,-6
1532162174327,21,6,4,0,5,51,33,27
1532162174332,-7,-2,2,-1,-1,-21,-22,-13
1532162174337,-16,-10,-5,-2,-3,2,-24,-19
1532162174342,-6,-1,0,1,2,5,3,5
1532162174347,10,1,-4,-3,-5,-10,18,-4
1532162174352,22,4,3,-1,0,6,8,7
1532162174357,9,-3,-5,0,2,-2,-7,9
1532162174362,-8,-5,-1,-1,-1,-12,-7,-19
1532162174367,18,5,0,-2,0,1,-17,-5
1532162174372,13,-1,-3,-2,-2,6,35,31
1532162174377,-12,0,-1,-1,0,-16,-4,0
1532162174382,23,-1,-2,-4,-2,14,47,14
1532162174387,-12,-2,0,-2,-1,12,-12,7
1532162174392,-3,-2,1,4,5,-18,0,-17
1532162174397,7,2,-3,-2,-6,7,-7,-6
1532162174402,-12,-7,-1,1,0,7,2,0
1532162174407,7,3,2,1,-1,-4,-5,4
1532162174412,-4,-3,-2,-3,-2,-2,0,5
1532162174417,5,1,1,0,4,7,12,1
1532162174422,-2,-2,-2,-2,-4,1,-26,-16
1532162174427,-4,-3,1,0,-3,-22,21,-3
1532162174432,8,-3,-3,-1,-2,-3,-43,18
1532162174437,-18,-6,-4,-5,-5,4,-12,-6
1532162174442,4,-1,1,0,-1,-15,3,-19
1532162174447,8,1,1,1,-1,-12,23,31
1532162174452,-1,1,1,2,7,60,4,5
1532162174457,-30,-4,-4,0,-1,-15,-2,-4
1532162174462,-10,1,-3,-3,-2,-10,-17,13
1532162174467,-3,0,-3,-2,-5,1,-17,-35
1532162174472,32,-1,-2,-1,-3,-11,-5,7
1532162174477,-8,1,0,-1,-1,-31,-11,-1
1532162174482,-46,-6,0,3,7,63,23,-10
1532162174487,75,6,2,2,1,4,14,14
1532162174492,-8,2,0,-4,-5,-4,-10,-11
1532162174497,-6,-3,-1,0,-2,-11,1,-2
1532162174502,34,1,0,-1,-2,-3,-10,-3
1532162174507,-33,1,1,-1,5,7,7,9
1532162174512,-3,-3,-2,-4,-10,-33,-63,-24
1532162174517,-17,-3,-2,2,0,16,-43,-7
1532162174522,-4,2,0,-1,0,-10,-7,5
1532162174527,-16,-6,-4,-4,1,15,-62,-5
1532162174532,-1,-1,0,-1,2,-36,8,-12
1532162174537,10,1,-1,-3,-6,0,5,1
1532162174542,-3,-4,-1,-2,-8,-20,-27,5
1532162174547,2,-4,-1,1,0,6,-15,-8
1532162174552,-8,3,0,1,6,13,26,6
1532162174557,17,-1,-1,-1,0,10,4,2
1532162174562,10,1,1,1,1,7,2,3
1532162174567,-9,-1,1,-1,-4,-12,27,15
1532162174572,-7,-1,0,-2,-3,2,9,-11
1532162174577,10,3,2,1,5,12,31,0
1532162174582,22,2,0,1,2,0,8,-6
1532162174587,-31,-3,-2,0,-4,-22,-10,-11
1532162174592,-27,-2,-2,1,-1,4,9,22
1532162174597,46,6,2,-1,2,5,2,-2
1532162174602,-20,-2,-1,-1,0,-16,4,-10
1532162174607,38,3,-1,-2,-4,-11,-7,-15
1532162174612,-8,-1,2,1,1,16,9,-1
1532162174617,-23,-5,0,-1,-1,9,-12,-6
1532162174622,-2,-5,-4,-2,-4,-15,-25,7
1532162174627,-3,-3,-2,-3,-4,-4,1,2
1532162174632,-1,0,-1,-2,0,23,45,0
1532162174637,0,-1,0,-2,-2,-4,-12,-10
1532162174642,4,3,2,2,6,-12,0,6
1532162174647,-8,-3,-3,-2,-4,0,1,-1
1532162174652,6,-4,-1,3,3,-6,0,-9
1532162174657,-1,0,-2,-3,-13,3,-3,-4
1532162174662,5,3,1,-1,1,-4,14,5
1532162174667,-10,-3,-2,-1,-2,8,-3,9
1532162174672,1,-2,-2,0,2,-2,-8,-11
1532162174677,4,4,-2,-3,2,-2,0,19
1532162174682,-4,-7,-3,-1,1,8,-6,-14
1532162174687,-5,0,-2,-3,-7,-21,-25,-4
1532162174692,7,-1,1,2,4,5,2,13
1532162174697,2,-1,-2,-4,-12,-5,11,4
1532162174702,-2,1,0,1,4,6,8,-11
1532162174707,-4,-6,-2,1,-3,-12,-5,0
1532162174712,4,1,-1,-1,-6,-8,-14,11
1532162174717,-3,-2,-2,0,5,16,19,-1
1532162174722,-7,-8,-7,-5,-13,-39,-62,9
1532162174727,-4,0,-2,0,9,8,-2,-16
1532162174732,-25,-3,0,-3,-4,-52,-2,-9
1532162174737,16,2,-2,-2,-8,-1,10,30
1532162174742,-9,-2,0,-3,3,53,18,-9
1532162174747,7,1,3,4,14,-4,7,-15
1532162174752,0,-2,-3,-4,-8,-2,-28,8
1532162174757,-11,0,1,0,4,-18,1,-9
1532162174762,12,0,0,1,-5,-5,19,9
1532162174767,-1,-1,0,-3,-6,4,0,4
1532162174772,-4,0,1,-2,0,27,6,-16
1532162174777,-56,-6,-1,1,4,-11,-7,-16
1532162174782,33,7,2,2,3,34,0,7
1532162174787,-30,5,0,-1,-4,-17,11,6
1532162174792,15,-3,-4,-2,-6,5,-7,-6
1532162174797,0,1,0,0,-2,-34,28,0
1532162174802,-13,-4,-1,-1,1,34,-6,7
1532162174807,1,-1,-1,-2,-2,-8,11,-8
1532162174812,6,2,0,0,3,6,-16,5
1532162174817,0,3,-3,1,3,27,-33,-9
1532162174822,-4,1,1,1,3,-11,11,-8
1532162174827,17,1,2,0,-2,29,14,5
1532162174832,-3,0,-2,-1,-5,-51,17,-2
1532162174837,13,-4,-2,-2,4,28,-5,7
1532162174842,-3,1,-1,-1,-5,-25,-8,-17
1532162174847,-4,-3,-2,0,0,7,-24,22
1532162174852,4,3,3,0,-5,12,26,1
1532162174857,6,-1,0,1,0,11,-5,-7
1532162174862,1,-2,-3,-1,-2,-27,1,4
1532162174867,-7,-3,1,0,-2,9,6,-13
1532162174872,1,-2,0,0,1,5,-4,-6
1532162174877,13,1,0,2,8,-9,6,11
1532162174882,-8,-1,1,-1,-8,7,-1,0
1532162174887,1,-1,-2,-4,-3,4,-2,-9
1532162174892,0,-2,-1,0,4,5,-11,-4
1532162174897,0,1,1,-2,-3,-9,-8,-8
1532162174902,-1,2,0,0,-2,-13,10,0
1532162174907,2,-1,-2,2,6,-3,4,-2
1532162174912,-1,-1,-2,-6,-10,2,2,-5
1532162174917,-2,-7,-3,-1,0,5,-27,-5
1532162174922,4,2,0,2,5,-11,23,22
1532162174927,3,0,-1,-2,-8,-21,0,-13
1532162174932,-5,-6,-5,-3,-3,-12,-14,21
1532162174937,3,2,2,0,7,55,13,-7
1532162174942,-3,-1,-1,0,2,0,3,-1
1532162174947,-3,-3,-2,-1,1,15,-1,-7
1532162174952,2,2,2,1,3,-29,6,-3
1532162174957,2,-2,-2,0,-9,-35,-8,3
1532162174962,-14,-1,-2,-4,-2,15,-2,-6
1532162174967,34,1,1,-1,1,-12,-6,6
1532162174972,2,-1,-1,0,-3,36,-6,-17
1532162174977,5,0,0,0,-1,7,14,23
1532162174982,-1,-2,-3,0,3,8,-9,-2
1532162174987,-11,-3,-1,-3,-8,-20,-6,-7
1532162174992,5,-2,0,0,4,-18,-6,-2
1532162174997,-2,2,-1,0,5,24,5,-3
1532162175002,-2,-1,-1,-1,0,-13,-3,-1
1532162175007,-9,-1,-2,0,-1,12,-4,2
1532162175012,5,-1,-2,1,4,3,3,-5
1532162175017,-6,-3,-1,-2,-6,-21,-4,-7
1532162175022,0,-1,1,-2,-1,9,-3,-3
1532162175027,-1,-1,-1,0,-1,1,-4,-1
1532162175032,-4,1,-2,0,1,6,14,17
1532162175037,0,-3,-4,-3,-9,-13,-2,-7
1532162175042,-2,0,-1,-2,3,20,-7,-14
1532162175047,1,0,-1,1,-4,-41,-4,7
1532162175052,-4,1,0,0,2,0,6,-5
1532162175057,-2,1,-1,1,-2,-8,-5,4
1532162175062,4,-2,-2,-2,-5,-11,0,-2
1532162175067,-9,-7,-1,1,4,31,0,-2
1532162175072,-4,-2,-1,2,0,2,-1,0
1532162175077,3,-1,1,0,-4,-23,-4,-3
1532162175082,0,-1,1,1,1,-1,0,-4
1532162175087,-1,0,-2,-2,-1,-2,-6,4
1532162175092,0,-1,1,-1,0,9,-3,3
1532162175097,4,0,1,1,-1,5,7,-4
1532162175102,0,1,1,1,3,-11,-2,12
1532162175107,-3,0,-1,-2,-1,6,1,-8
1532162175112,-1,0,-2,-1,1,-1,-9,-12
1532162175117,-5,-3,-5,-5,-4,-7,-5,-8
1532162175122,-2,-3,-2,-3,-2,4,1,4
1532162175127,4,1,3,4,1,3,4,4
1532162175132,-1,0,0,-3,-7,-9,-3,-5
1532162175137,1,0,0,1,5,4,0,0
1532162175142,-1,0,-1,-3,-3,-3,6,-1
1532162175147,0,-1,0,-2,1,17,-2,11
1532162175152,0,-2,-1,-1,-1,-16,-3,-6
1532162175157,-2,1,1,-1,3,-9,-3,-5
1532162175162,0,2,0,1,-2,-4,10,9
1532162175167,-3,-3,-3,-2,-2,-21,-6,-6
1532162175172,0,1,-2,0,2,49,2,-2
1532162175177,-1,-1,-1,-1,0,-2,-1,0
1532162175182,-1,0,1,-1,-2,5,4,-6
1532162175187,0,2,0,1,1,-32,-19,0
1532162175192,-45,-8,0,-4,-4,1,1,3
1532162175197,83,13,1,2,7,46,9,8
1532162175202,-19,-2,-1,-1,-2,-2,-12,-11
1532162175207,1,-1,1,0,1,13,8,1
1532162175212,-6,1,1,0,-2,-44,-9,-10
1532162175217,-27,-6,-2,-1,-2,-6,6,4
1532162175222,2,-1,0,-1,-3,-2,2,4
1532162175227,5,2,0,1,3,42,-6,-11
1532162175232,6,-4,-2,-1,1,0,21,19
1532162175237,-11,0,0,-4,-8,-7,-4,8
1532162175242,6,2,1,0,1,0,16,-7
1532162175247,-15,-7,-3,-2,-7,-42,2,2
1532162175252,13,1,0,1,-1,20,4,-3
1532162175257,-14,-2,0,2,9,22,2,-1
1532162175262,2,-2,-2,-4,-5,-10,-8,0
1532162175267,11,-2,-2,2,0,-1,4,-4
1532162175272,-7,4,1,-1,-3,-4,0,-8
1532162175277,-31,-5,-4,-1,-4,-16,2,0
1532162175282,2,-6,-6,-2,-3,0,-77,-8
1532162175287,1,0,0,-1,2,14,-1,2
1532162175292,12,0,1,-2,-1,-17,-4,0
1532162175297,-18,-6,-4,-1,-5,-12,2,7
1532162175302,-3,3,0,2,4,10,30,-10
1532162175307,-1,-2,-3,-1,-4,-12,-9,0
1532162175312,7,-1,-1,1,1,5,4,9
1532162175317,1,-3,0,-2,-6,-2,-7,-13
1532162175322,3,1,1,2,4,5,17,-1
1532162175327,1,0,-4,-2,-3,-1,6,-2
1532162175332,2,4,6,5,13,11,5,-7
1532162175337,2,0,0,1,-6,-10,4,2
1532162175342,2,-1,0,-2,-6,-2,0,23
1532162175347,-13,-1,-2,-3,1,5,-4,-15
1532162175352,3,-1,-5,-3,-5,-3,-4,4
1532162175357,0,-1,0,1,3,-8,-1,-3
1532162175362,-4,-3,0,0,0,4,-5,-4
1532162175367,-3,2,1,0,1,0,-1,-5
1532162175372,0,-2,-2,-2,-3,-2,-9,-3
1532162175377,4,-1,-1,0,2,8,-8,2
1532162175382,-1,0,-1,0,2,5,8,0
1532162175387,2,0,-1,-1,1,-4,9,4
1532162175392,5,-1,-1,-3,-3,-16,-7,-8
1532162175397,-8,-3,0,-1,1,10,-10,2
1532162175402,-21,0,0,2,-1,-9,-12,-6
1532162175407,16,3,1,-2,1,15,-7,-4
1532162175412,-20,-2,-3,-1,-1,0,-1,13
1532162175417,22,1,0,-3,-2,6,22,1
1532162175422,-6,-2,-2,-1,-2,-34,-5,-9
1532162175427,1,-2,0,0,-4,-1,-5,7
1532162175432,1,2,-1,-1,-1,7,10,-9
1532162175437,-13,-1,0,0,-2,-8,-17,2
1532162175442,6,1,1,-1,-1,11,20,-10
1532162175447,-7,-5,-2,-2,-2,-11,-2,11
1532162175452,6,2,-1,0,-3,4,-1,-1
1532162175457,-2,-1,-2,-3,-2,-3,4,-6
1532162175462,5,-2,0,-2,-1,1,3,6
1532162175467,12,-1,-1,0,1,3,-1,-4
1532162175472,-20,-7,0,1,0,-2,-6,-1
1532162175477,6,3,-1,-2,-2,-9,5,11
1532162175482,4,1,-3,-5,-1,2,-1,6
1532162175487,-4,-2,1,-1,0,1,6,3
1532162175492,7,1,-1,-1,-2,-3,-4,-9
1532162175497,-12,-5,-2,-1,-3,-9,-26,-9
1532162175502,1,-1,0,3,3,11,-1,-1
1532162175507,-6,-1,1,1,-1,0,3,-1
1532162175512,2,0,-2,-1,-2,-5,-8,-7
1532162175517,0,-2,0,-1,-2,-4,5,3
1532162175522,-1,-1,-1,-2,-4,2,1,-2
1532162175527,-4,0,-1,-1,-1,-5,-8,1
1532162175532,3,0,-1,-1,-3,-7,-3,6
1532162175537,0,-1,-1,0,0,-2,8,-6
1532162175542,2,0,-2,0,0,2,-1,3
1532162175547,-7,-1,-2,-1,0,-3,1,-4
1532162175552,4,-2,-1,0,0,1,3,-2
1532162175557,0,1,0,-3,-1,-1,2,0
1532162175562,0,-1,-1,-1,-1,-1,-5,-4
1532162175567,-2,0,-2,-1,-2,-1,-7,-3
1532162175572,2,-1,0,1,2,0,12,12
1532162175577,0,0,-1,-1,-4,2,2,-3
1532162175582,-2,0,-3,0,2,3,-2,-7
1532162175587,-4,-2,-1,-1,-1,-4,-5,-5
1532162175592,1,-2,0,-1,3,-1,-4,-1
1532162175597,1,3,-1,-1,0,-1,6,12
1532162175602,1,-1,2,-1,-3,1,2,-4
1532162175607,-2,1,1,-1,-1,10,16,-9
1532162175612,-3,-2,-2,-2,0,-7,-25,-11
1532162175617,1,2,0,2,3,-6,2,-3
1532162175622,-2,-4,-3,1,-1,-2,-4,6
1532162175627,6,-3,-1,-2,-3,-3,1,-9
1532162175632,-2,5,1,-1,-3,3,12,13
1532162175637,-3,-2,-1,0,0,2,-3,-7
1532162175642,5,0,-1,-2,-1,-12,-3,-2
1532162175647,-5,-2,-2,-1,0,6,-7,-6
1532162175652,-7,0,-2,-1,-1,-7,7,-1
1532162175657,-4,-1,-2,0,0,19,-3,5
1532162175662,-10,-5,1,-2,-4,-10,13,9
1532162175667,17,4,1,1,2,12,-2,2
1532162175672,13,-1,2,-3,-2,-6,-6,-5
1532162175677,6,0,0,0,0,-5,-1,-3
1532162175682,5,-1,-1,-1,0,1,-17,-6
1532162175687,-22,-5,-1,0,-2,0,-6,2
1532162175692,-4,-1,-2,0,1,14,9,-3
1532162175697,0,-1,0,-2,-3,-12,-2,-4
1532162175702,2,-3,-2,-1,-2,6,2,8
1532162175707,3,-3,-2,-1,-4,-9,-3,-2
1532162175712,10,5,-1,0,0,6,-2,18
1532162175717,-9,-3,-1,-1,0,-3,2,-4
1532162175722,-2,1,1,-2,1,7,-1,-6
1532162175727,-2,-1,-2,-2,-3,-18,1,4
1532162175732,0,-4,-2,-2,-3,0,-6,-12
1532162175737,2,1,-1,-1,-1,-2,1,7
1532162175742,2,1,0,-1,-2,2,-1,5
1532162175747,-4,0,-1,-2,1,3,4,6
1532162175752,-3,-3,-1,-2,-5,1,-3,-5
1532162175757,-1,-2,-2,-1,0,-12,-5,-2
1532162175762,-5,-6,-1,-2,-1,-1,-3,-14
1532162175767,0,1,-2,-1,1,-3,7,8
1532162175772,-4,-2,0,1,1,-2,0,-1
1532162175777,0,-2,-2,-1,-1,2,1,2
1532162175782,1,0,-3,0,-1,-5,-1,25
1532162175787,3,1,2,1,-5,-15,3,15
1532162175792,1,-1,0,-2,-2,-6,-3,-6
1532162175797,10,0,1,-2,-2,-7,3,2
1532162175802,-8,0,0,-2,-5,-5,1,5
1532162175807,5,2,2,1,1,-2,1,-1
1532162175812,-26,-2,0,1,-1,3,-2,-7
1532162175817,17,-3,-3,-2,-1,0,-3,-3
1532162175822,39,10,3,1,3,1,-3,1
1532162175827,0,0,0,-2,-4,-2,9,5
1532162175832,0,1,-1,-1,-2,-14,0,-2
1532162175837,-9,0,-2,-2,-1,12,-2,-5
1532162175842,-11,-4,-2,-1,-1,-11,1,0
1532162175847,1,0,-1,-1,-1,5,-4,3
1532162175852,-1,-1,-2,0,2,-2,0,-4
1532162175857,-8,-4,-1,1,0,-5,-3,-3
1532162175862,-4,3,1,1,1,-9,10,-9
1532162175867,3,-2,-2,-1,-5,-5,0,11
1532162175872,3,0,1,-1,4,20,4,0
1532162175877,-5,-1,-1,-2,3,8,-9,-3
1532162175882,-3,-4,-2,-1,-2,-3,3,-3
1532162175887,2,-2,-1,0,-2,-12,-4,-12
1532162175892,2,-2,-1,-2,-4,3,-5,5
1532162175897,-6,2,-2,1,-1,-1,0,-4
1532162175902,-2,-3,-3,-1,-2,-4,-4,-1
1532162175907,-6,-2,-2,1,2,4,-2,-3
1532162175912,6,2,0,0,0,-5,14,-2
1532162175917,-3,1,0,0,1,9,-6,-9
1532162175922,-6,-3,-1,-2,-1,0,0,17
1532162175927,-1,-1,-1,1,5,1,-1,-3
1532162175932,3,0,-1,-2,-6,3,-11,-11
1532162175937,-4,-1,-1,-1,-7,-13,8,18
1532162175942,-2,0,-1,-2,0,2,-6,-11
1532162175947,0,-1,1,1,3,-11,-2,11
1532162175952,-2,-1,-2,-2,-3,5,-3,-8
1532162175957,-6,-2,-1,-1,-1,-2,-2,-5
1532162175962,-4,-4,-3,-2,-1,13,-4,1
1532162175967,0,1,1,-2,-3,-7,1,-7
1532162175972,-1,0,-1,-1,-1,-15,-3,-4
1532162175977,0,0,0,1,6,2,5,9
1532162175982,0,2,-2,-2,-4,6,-4,-1
1532162175987,0,-2,-2,0,2,-3,-1,-3
1532162175992,-1,-1,0,2,2,6,8,10
1532162175997,4,-1,-1,-2,0,5,1,-1
1532162176002,-12,-2,-2,-1,1,-4,1,-2
1532162176007,-8,-1,-1,-1,-4,5,-3,-4
1532162176012,4,-2,-2,-1,-2,-1,-4,-9
1532162176017,-4,0,1,1,-2,-1,4,11
1532162176022,3,-4,-1,-1,0,1,1,3
1532162176027,-23,-1,0,-1,0,-9,0,-7
1532162176032,-3,-1,-1,-3,-1,-3,4,9
1532162176037,7,-1,-1,1,1,8,-4,-7
1532162176042,-4,1,1,-1,-3,3,1,-6
1532162176047,-3,-3,2,-2,1,-15,-8,5
1532162176052,2,-2,1,-1,-2,6,9,-2
1532162176057,-17,-5,-2,-2,1,14,-4,-8
1532162176062,1,-1,0,1,4,-12,5,-5
1532162176067,10,0,-2,-3,-5,5,2,5
1532162176072,-7,-1,0,0,2,-4,-3,-4
1532162176077,3,1,-2,-1,-3,-1,-10,-7
1532162176082,0,0,1,1,-3,8,9,12
1532162176087,9,0,-1,-1,0,-5,-8,0
1532162176092,4,-1,-3,-3,-1,-2,-6,-10
1532162176097,-5,-1,-1,-2,-1,-1,0,2
1532162176102,5,1,-1,0,-1,-8,-1,4
1532162176107,2,0,0,0,0,5,17,-5
1532162176112,-3,-2,-1,-1,-1,1,-3,12
1532162176117,-1,1,1,1,0,-12,-2,-12
1532162176122,1,-6,-1,-3,-1,-3,-10,-11
1532162176127,-6,4,0,-1,-1,5,-3,5
1532162176132,-1,0,-1,-2,-1,3,1,-9
1532162176137,2,0,0,0,0,-3,3,-1
1532162176142,3,-1,-3,-2,-1,6,-6,-1
1532162176147,0,-4,-2,-2,-3,-2,1,-1
1532162176152,3,2,-1,1,0,-9,-1,-7
1532162176157,-2,0,-2,-1,-1,-3,-4,2
1532162176162,-5,1,1,2,3,-1,-3,5
1532162176167,5,-2,-1,0,4,8,17,-6
1532162176172,-3,-2,-1,-2,-6,1,-7,1
1532162176177,6,-2,0,-2,-2,-16,-1,2
1532162176182,-15,0,-1,-3,-7,3,2,-5
1532162176187,2,1,0,0,4,13,-4,-4
1532162176192,2,-2,-1,-3,-4,-15,-2,5
1532162176197,-4,-1,-1,-1,-3,-3,0,-9
1532162176202,4,-2,-1,-2,2,6,-4,1
1532162176207,0,-2,-3,-2,-2,-6,0,10
1532162176212,-4,-2,-2,-1,-1,-1,-5,-9
1532162176217,14,3,1,-1,1,4,-4,1
1532162176222,-19,-7,-2,-2,2,23,6,-4
1532162176227,3,3,1,-2,-6,-31,-6,-5
1532162176232,5,0,2,3,6,17,-5,1
1532162176237,-8,-3,-1,-3,-2,-9,-3,-3
1532162176242,-16,-1,1,0,-1,-1,-2,-1
1532162176247,45,2,-1,-3,-4,18,-1,0
1532162176252,3,0,-1,1,1,-23,-6,1
1532162176257,-16,-3,-1,-1,-2,9,13,6
1532162176262,-22,-4,-2,0,0,-6,-8,-4
1532162176267,28,2,-1,-3,-3,-4,-2,-1
1532162176272,2,1,1,-1,1,0,10,6
1532162176277,6,0,-1,-1,1,15,-1,-2
1532162176282,6,0,0,-2,-1,-11,-2,-1
1532162176287,-21,-2,-1,1,-1,-1,-4,-4
1532162176292,0,-3,-2,-1,-1,-10,-8,-5
1532162176297,-5,-1,-1,0,-2,-4,-2,3
1532162176302,12,0,-2,-1,-1,-11,2,-4
1532162176307,-11,-2,-2,0,0,6,-10,-1
1532162176312,-3,-1,2,-1,-2,8,3,-3
1532162176317,-6,-2,-2,-2,0,1,-1,-5
1532162176322,8,1,-2,0,-1,-8,-1,0
1532162176327,-5,-2,0,0,-1,-3,-11,11
1532162176332,-5,-1,-2,-1,-1,2,8,6
1532162176337,1,2,-1,0,-1,2,0,-6
1532162176342,7,-1,0,-2,1,-5,-3,1
1532162176347,-12,-2,1,-1,1,7,15,-8
1532162176352,-2,-2,-3,-2,-3,2,-3,1
1532162176357,3,-2,-1,-2,-6,-19,-5,-1
1532162176362,6,3,3,1,0,7,-5,-7
1532162176367,-11,-2,-2,1,2,1,10,5
1532162176372,-1,-2,-1,-1,0,5,-1,-8
1532162176377,1,-3,-2,-1,-1,1,-4,-3
1532162176382,2,0,-4,-3,-1,-11,-4,9
1532162176387,-5,-1,-1,-2,1,7,-1,-1
1532162176392,0,0,-1,-3,0,-1,-2,-2
1532162176397,-2,0,1,1,-3,-4,9,-1
1532162176402,0,-2,-2,-4,-7,-17,-3,0
1532162176407,-1,-5,-2,0,5,22,-5,-3
1532162176412,1,3,-1,-2,-1,2,-7,-5
1532162176417,1,1,0,1,2,9,1,11
1532162176422,15,2,0,0,-3,-19,-2,0
1532162176427,-19,-3,0,-5,-6,-23,0,-1
1532162176432,2,-3,-2,1,-1,3,0,-3
1532162176437,-10,-2,2,0,3,8,-4,-2
1532162176442,-4,-3,-2,-2,0,11,-1,-1
1532162176447,19,1,1,0,0,2,-6,1
1532162176452,-9,-1,0,2,3,-2,-3,-3
1532162176457,-7,4,-2,-2,-1,4,-2,1
1532162176462,-28,-6,-3,0,3,20,10,7
1532162176467,41,2,-1,-3,-2,-28,-5,-3
1532162176472,6,0,-1,-3,-2,-7,-7,3
1532162176477,6,-4,-2,-1,0,-4,8,0
1532162176482,4,1,0,0,0,25,4,-5
1532162176487,-22,-4,0,0,-1,12,3,-5
1532162176492,-1,-3,-2,-1,-5,-16,2,16
1532162176497,7,0,0,0,0,-11,-6,-5
1532162176502,-2,0,-2,-1,-3,-12,-1,-3
1532162176507,-4,1,1,0,1,0,-5,-4
1532162176512,-11,-1,-2,0,0,7,0,-2
1532162176517,2,-2,-1,-3,1,2,7,2
1532162176522,-7,3,1,-1,0,-2,-2,3
1532162176527,-5,-2,-3,0,-2,3,3,-2
1532162176532,-1,-3,-2,-2,-2,-1,-4,-5
1532162176537,1,-1,0,1,1,0,-7,2
1532162176542,7,-1,-1,-2,-3,-4,1,0
1532162176547,-3,-1,-2,-1,0,-3,-5,-3
1532162176552,-5,-2,1,1,0,0,-12,8
1532162176557,-1,-2,-2,0,1,2,7,-2
1532162176562,8,-2,0,-2,-5,-19,-7,-5
1532162176567,-12,-1,-1,-3,-2,12,-10,-4
1532162176572,4,0,0,1,3,0,12,-1
1532162176577,1,-2,-2,-2,-5,-4,-5,6
1532162176582,2,-1,0,5,6,6,2,-1
1532162176587,-6,-1,-1,-3,-8,-12,2,-3
1532162176592,1,0,0,-2,-1,2,-2,-14
1532162176597,2,0,0,-1,-2,-1,1,5
1532162176602,-2,-1,-2,0,2,4,3,2
1532162176607,-5,-3,-2,-1,-1,-6,0,-1
1532162176612,2,-1,-4,-1,2,6,-2,2
1532162176617,-5,-1,-3,-2,-4,-8,-7,-8
1532162176622,0,-4,-1,-2,-5,-7,-8,-5
1532162176627,0,0,-2,1,1,6,9,4
1532162176632,-1,0,-1,-1,-3,-2,7,2
1532162176637,-1,-3,-4,-1,1,2,-10,8
1532162176642,0,-1,0,1,0,1,0,-3
1532162176647,-1,-1,0,0,0,-6,2,-2
1532162176652,1,-1,0,0,2,-5,3,6
1532162176657,5,0,-1,-3,-8,-21,5,2
1532162176662,-8,-1,2,1,5,32,-1,-3
1532162176667,2,-1,-2,1,5,-5,-2,1
1532162176672,-20,-3,0,1,-3,-19,-6,-6
1532162176677,25,2,0,1,0,-2,0,-4
1532162176682,5,0,-2,-3,-5,-15,-3,1
1532162176687,-5,-1,0,-3,-1,11,-3,-3
1532162176692,14,1,0,-2,-2,12,7,3
1532162176697,-11,-3,-2,-1,-1,-8,-14,3
1532162176702,-4,2,0,2,4,2,-11,-1
1532162176707,1,-2,-2,-1,-4,-1,4,3
1532162176712,-3,-3,-2,-3,-2,-7,-10,-3
1532162176717,5,0,0,-2,-2,0,6,-5
1532162176722,-31,-4,-2,-2,-1,15,3,-2
1532162176727,37,1,-1,-1,1,-12,-4,-1
1532162176732,3,2,1,-1,-4,-6,9,-5
1532162176737,-2,-1,-3,-1,0,7,-8,4
1532162176742,5,0,-1,-1,1,3,7,18
1532162176747,-15,0,1,-1,1,-11,9,-13
1532162176752,-3,-3,-2,-1,0,4,-1,7
1532162176757,-4,0,1,0,0,-2,0,-6
1532162176762,5,-2,-1,-2,-2,-10,-4,-3
1532162176767,-9,-2,-2,-1,-3,2,-2,9
1532162176772,5,0,0,1,0,9,0,-11
1532162176777,-15,-1,-2,-2,-2,3,-1,-8
1532162176782,7,0,0,1,-1,-11,0,0
1532162176787,-2,1,0,-1,2,13,4,6
1532162176792,-3,-4,-2,-3,-3,10,-3,-3
1532162176797,-2,1,2,2,3,-7,3,-6
1532162176802,3,-2,-1,-2,-7,-23,-22,-7
1532162176807,-5,-1,-1,-1,1,19,-7,1
1532162176812,-3,-2,-2,1,0,-1,-3,-2
1532162176817,-5,-4,-3,-2,0,12,-4,-9
1532162176822,7,0,-1,1,3,0,14,13
1532162176827,-6,-3,-2,-1,-3,-16,-2,9
1532162176832,0,1,-1,0,0,0,-3,2
1532162176837,-4,1,-2,-2,-7,-6,2,-6
1532162176842,2,-1,-1,-1,3,7,0,-6
1532162176847,-5,-2,0,0,0,-6,-4,-4
1532162176852,-1,-1,0,-3,-6,-1,5,3
1532162176857,5,-1,0,1,3,3,2,1
1532162176862,-12,2,1,-1,-4,-2,1,-6
1532162176867,1,1,-2,0,0,2,-11,-3
1532162176872,3,1,0,0,3,-5,7,-2
1532162176877,-10,-1,0,-1,0,6,5,0
1532162176882,19,0,0,-1,-1,-1,-6,3
1532162176887,-15,-4,-1,-1,-2,-8,1,1
1532162176892,-7,-1,-2,-1,-2,-19,-3,-3
1532162176897,0,0,-1,1,2,17,-5,-3
1532162176902,-6,-2,-2,-3,-3,-11,7,-3
1532162176907,8,2,0,-1,-1,0,-7,3
1532162176912,1,-3,-1,-1,2,10,-2,-1
1532162176917,-3,1,0,-1,-1,-8,-1,1
1532162176922,-1,-2,-1,-1,-2,5,-5,-10
1532162176927,3,0,1,0,-3,-7,1,17
1532162176932,-4,3,0,-1,0,-9,8,3
1532162176937,-3,-2,-1,0,0,13,-12,0
1532162176942,-3,-2,-1,1,2,-5,6,-1
1532162176947,0,-1,-2,-2,0,6,2,-8
1532162176952,3,1,0,1,1,4,-8,-1
1532162176957,0,-4,-1,-1,1,-2,5,2
1532162176962,8,2,-1,-1,0,-1,-5,-7
1532162176967,-13,-2,-1,-1,0,-1,4,-2
1532162176972,3,0,0,-1,-1,2,10,4
1532162176977,-1,3,0,-1,-1,-7,2,-4
1532162176982,2,-4,-2,-2,0,1,-5,1
1532162176987,-9,-4,0,-1,-3,-4,1,-1
1532162176992,2,-1,0,-2,0,4,4,-2
1532162176997,1,1,-1,-2,-2,-4,3,6
1532162177002,6,-1,-2,0,-2,0,-1,-7
1532162177007,-12,2,1,1,-1,-1,-6,-7
1532162177012,-1,0,-1,-1,-1,3,5,2
1532162177017,2,-2,-1,0,2,-3,0,0
1532162177022,-1,0,0,1,0,2,-3,-1
1532162177027,1,-3,-2,-2,-1,9,-4,-5
1532162177032,-3,-3,-1,-1,-2,-14,-13,-5
1532162177037,0,0,-1,0,-4,-3,-2,5
1532162177042,-5,1,1,0,1,-4,1,-6
1532162177047,6,1,-2,-4,-4,0,6,12
1532162177052,-1,-3,-1,-1,-4,2,-6,-7
1532162177057,1,0,0,1,2,10,11,-2
1532162177062,3,-1,-3,-2,-3,-10,-5,3
1532162177067,-11,-2,0,-2,-1,-13,-2,-13
1532162177072,-2,-3,-1,-2,0,18,-9,1
1532162177077,-1,-2,0,0,1,-13,0,7
1532162177082,-3,1,0,0,-1,5,8,7
1532162177087,6,1,2,2,1,-3,-2,2
1532162177092,6,-1,-3,-2,-2,-7,-10,-3
1532162177097,-13,0,0,1,-1,11,6,0
1532162177102,-18,-2,-2,-2,-2,-8,-5,-11
1532162177107,7,0,0,0,2,9,-2,1
1532162177112,-11,1,1,1,2,-1,-2,-5
1532162177117,12,-2,-1,-1,0,-11,4,-2
1532162177122,-4,-2,-2,-2,-4,-10,-6,-4
1532162177127,-7,-4,0,0,-2,-4,-3,-5
1532162177132,58,4,0,0,-1,28,6,0
1532162177137,-9,3,0,0,5,-12,-5,-3
1532162177142,8,0,0,-1,-4,-18,5,1
1532162177147,-1,-1,-3,-4,-1,21,-1,-5
1532162177152,-21,-3,-2,-1,1,3,-5,7
1532162177157,8,0,1,1,-2,-1,11,-2
1532162177162,-3,-1,-2,-1,1,4,1,6
1532162177167,-5,-2,-2,-1,-1,-12,-1,-4
1532162177172,11,2,2,-1,-4,-8,1,1
1532162177177,-3,-2,-2,-3,-3,0,-15,-8
1532162177182,-1,-1,0,1,2,-5,17,6
1532162177187,-5,1,0,0,0,11,2,19
1532162177192,-7,-3,-3,0,-4,-31,-2,-2
1532162177197,-38,-7,-4,-4,-4,22,-3,-10
1532162177202,69,7,1,0,6,6,-3,-3
1532162177207,7,-1,-2,0,-2,-7,1,-5
1532162177212,-14,0,1,0,0,-7,6,-2
1532162177217,12,1,-1,-1,0,-2,-5,0
1532162177222,-20,-2,0,-1,-1,14,12,4
1532162177227,1,1,-3,-1,-1,-8,1,1
1532162177232,-3,0,-2,0,-1,14,2,-6
1532162177237,-1,-3,-2,-1,-2,-3,-14,-2
1532162177242,-6,1,1,1,0,7,13,6
1532162177247,2,-1,0,-3,-5,-38,-4,-11
1532162177252,-10,-3,-3,-4,1,56,-2,11
1532162177257,7,3,1,0,2,-4,9,16
1532162177262,-11,-1,-1,1,3,31,-11,-8
1532162177267,7,-1,0,-1,-3,-18,-4,-3
1532162177272,-6,-3,2,2,2,-29,-5,-6
1532162177277,2,0,-1,-1,-5,-1,-5,-4
1532162177282,-3,-2,-1,-1,-4,-17,-7,-1
1532162177287,-7,2,0,2,1,23,-2,-4
1532162177292,-3,-1,-2,-1,0,-5,-1,-9
1532162177297,6,2,-2,-2,-1,-2,-1,3
1532162177302,-2,-1,0,0,-1,-20,14,3
1532162177307,6,-2,-3,-2,1,2,8,13
1532162177312,-10,-2,-2,0,1,-5,-1,11
1532162177317,1,-1,0,-1,-4,-10,0,-3
1532162177322,-19,-4,-3,-3,-7,-12,-11,-8
1532162177327,18,-2,1,0,2,31,-1,-2
1532162177332,6,2,0,1,-1,-15,1,-7
1532162177337,-6,-2,-5,-3,-4,-8,5,3
1532162177342,40,2,1,1,0,3,-5,-3
1532162177347,-15,-4,0,-1,2,-18,-7,-7
1532162177352,-5,-2,-2,0,-4,-20,8,4
1532162177357,1,2,2,2,10,61,0,-5
1532162177362,-13,-1,0,-1,-2,-18,0,4
1532162177367,-34,-4,-4,-2,-2,16,-2,-2
1532162177372,15,1,2,0,-3,-33,-4,-5
1532162177377,-11,-3,0,0,-5,-11,-5,-5
1532162177382,8,0,-1,0,4,17,-4,-4
1532162177387,-1,1,0,-2,-5,-18,-4,3
1532162177392,-11,-3,-1,-1,1,12,11,6
1532162177397,6,0,-1,0,-3,-25,-1,-7
1532162177402,-24,-5,-2,-3,-5,7,-12,-1
1532162177407,22,3,2,0,2,-5,-1,-7
1532162177412,-7,2,-1,1,3,5,0,-2
1532162177417,3,-1,-2,-2,0,10,-3,-10
1532162177422,-7,-2,-1,0,1,-6,-2,13
1532162177427,7,1,0,-1,0,1,6,0
1532162177432,4,-1,-1,-2,0,8,-4,3
1532162177437,-7,-2,0,0,0,-6,3,2
1532162177442,2,-1,-2,-2,2,3,-3,-8
1532162177447,-1,-1,-1,-4,-11,-3,3,2
1532162177452,-5,0,-1,0,0,2,-8,-6
1532162177457,6,-1,-1,-1,-2,-7,-12,-7
1532162177462,-3,2,1,1,0,-4,3,6
1532162177467,2,-1,-2,3,1,6,1,18
1532162177472,0,1,0,-1,1,2,0,-6
1532162177477,2,-2,0,1,-1,-7,0,0
1532162177482,-3,-3,-2,-1,-2,7,-5,-14
1532162177487,-6,-3,-1,1,-1,-5,-5,-13
1532162177492,3,0,-2,-2,-1,0,1,7
1532162177497,0,0,1,0,-1,-1,1,6
1532162177502,-5,-1,-1,0,-1,2,4,-6
1532162177507,1,2,0,-2,2,4,-3,-8
1532162177512,-1,-2,0,-1,-1,-1,-2,-1
1532162177517,1,1,0,-1,1,-11,13,1
1532162177522,-4,-4,-3,-2,-5,-4,-4,-4
1532162177527,1,-1,-1,-1,-2,3,-3,3
1532162177532,-2,-2,-2,-1,1,3,-5,-8
1532162177537,-4,0,-1,0,-3,-3,-1,2
1532162177542,3,-1,-1,-3,-6,-16,7,25
1532162177547,0,3,0,0,0,20,5,-1
1532162177552,-6,-2,-2,1,-1,-5,-3,-2
1532162177557,0,-3,-1,0,0,1,-12,-11
1532162177562,-2,1,0,-1,-1,-3,-13,-12
1532162177567,1,-1,-2,0,-2,-2,-3,-7
1532162177572,0,-3,0,-1,-2,6,0,3
1532162177577,0,-1,0,-1,-1,-3,0,-2
1532162177582,-2,-1,0,1,0,20,4,-3
1532162177587,-3,-2,-3,0,1,-19,-6,-1
1532162177592,1,2,1,1,0,-8,-2,-7
1532162177597,1,0,-2,0,-1,-1,-3,5
1532162177602,1,-1,0,0,-1,3,3,-7
1532162177607,-15,-4,-1,-2,2,-4,-7,-14
1532162177612,15,2,-2,-2,-6,13,20,36
1532162177617,-24,-6,0,-1,1,-6,6,2
1532162177622,-8,1,-1,-1,0,2,-12,-8
1532162177627,0,0,0,0,2,-3,-7,-11
1532162177632,-1,-1,-1,0,0,-1,-12,-11
1532162177637,-23,-4,-2,-3,0,4,3,2
1532162177642,55,5,0,-1,-3,-7,7,5
1532162177647,-13,-4,-1,0,4,18,4,-3
1532162177652,-3,0,-2,-2,-1,-6,-7,-8
1532162177657,9,2,-1,-1,-2,7,6,10
1532162177662,-21,-4,-1,0,3,-5,3,-6
1532162177667,8,1,-1,0,-3,-6,3,6
1532162177672,1,-3,-1,0,-1,8,-5,-8
1532162177677,2,0,0,0,-3,-5,-6,-7
1532162177682,-4,-2,0,-2,-2,-1,0,5
1532162177687,8,3,3,-1,-3,-3,9,-2
1532162177692,-9,-2,1,1,3,1,7,-1
1532162177697,8,-2,-3,-2,-5,-12,-20,4
1532162177702,-9,-2,0,-1,-2,-1,4,4
1532162177707,3,-1,-1,0,1,1,10,3
1532162177712,-3,-2,0,-1,-3,-8,2,2
1532162177717,5,0,0,-1,1,2,-5,-11
1532162177722,-3,-3,-2,0,0,15,-4,6
1532162177727,-1,0,-2,-1,1,-19,-2,-7
1532162177732,2,-1,-2,-1,-4,-3,-8,-3
1532162177737,4,1,-1,1,1,4,6,-6
1532162177742,-9,-1,-1,-2,-2,19,-4,-1
1532162177747,1,-2,-3,-3,-1,-3,2,-1
1532162177752,-1,1,3,2,4,4,3,-5
1532162177757,4,-2,-3,-2,-2,-10,0,10
1532162177762,-4,0,1,-2,-2,-5,0,-6
1532162177767,4,2,1,1,0,2,-9,4
1532162177772,0,0,-2,-1,-1,16,5,-5
1532162177777,1,1,0,0,1,0,-1,1
1532162177782,-6,-4,-4,-4,1,-6,-13,2
1532162177787,-1,-2,-1,-2,-6,-6,-10,0
1532162177792,-4,-2,-2,-2,-1,2,-2,2
1532162177797,21,-1,0,0,-3,-5,19,-1
1532162177802,-17,5,1,3,6,2,1,1
1532162177807,-2,0,-1,-1,-2,-4,-3,-3
1532162177812,-9,-4,-2,-4,-5,-8,-5,-6
1532162177817,0,-4,0,-2,-2,5,1,1
1532162177822,6,-1,0,-1,0,-2,-6,-1
1532162177827,-27,-2,-1,-2,-2,-9,0,-6
1532162177832,29,3,-1,-1,-3,-5,-10,-2
1532162177837,-47,1,0,2,4,12,3,9
1532162177842,44,4,-1,-2,2,-1,4,-2
1532162177847,-8,-3,-1,-1,-6,-4,1,2
1532162177852,-1,-3,-1,-2,-4,-4,-5,-1
1532162177857,5,-1,0,-1,-5,-11,-3,-10
1532162177862,-21,-4,-1,-1,-2,-8,-5,-2
1532162177867,4,0,1,1,-1,-11,-1,-2
1532162177872,-2,-1,-2,-1,3,31,-4,-17
1532162177877,9,-1,-2,-1,0,4,6,17
1532162177882,-7,-1,-2,0,-2,-1,7,8
1532162177887,16,-1,-1,-1,0,0,-2,2
1532162177892,-8,0,1,0,2,-9,-4,-6
1532162177897,-3,0,0,-1,-4,-3,-3,-12
1532162177902,-1,-3,-1,1,-3,-14,7,-1
1532162177907,3,-1,-2,0,-1,12,-12,5
1532162177912,-9,-3,-2,1,0,7,-1,6
1532162177917,1,1,-1,1,7,6,-1,-2
1532162177922,0,-3,-2,-3,-8,-11,-4,-6
1532162177927,3,-1,-1,-1,-1,-4,2,1
1532162177932,-1,1,3,1,0,-4,5,-2
1532162177937,6,-2,-4,-3,0,3,-4,3
1532162177942,1,-4,-1,0,-2,-16,-13,-10
1532162177947,-11,5,1,0,0,14,5,0
1532162177952,1,-2,-4,-1,-2,-27,-6,2
1532162177957,3,1,2,1,0,12,6,-2
1532162177962,-4,-2,-2,0,0,-3,-6,8
1532162177967,2,0,0,0,5,10,3,0
1532162177972,6,0,-1,-4,-7,-4,-4,-9
1532162177977,-12,-3,1,-1,-3,-3,-1,7
1532162177982,-5,0,-1,0,0,9,-3,-2
1532162177987,5,-3,-1,2,5,-1,8,9
1532162177992,-6,0,-1,-1,-3,-3,4,3
1532162177997,1,-2,-3,-3,-1,-10,-15,-15
1532162178002,0,0,0,-2,0,5,12,8
1532162178007,2,-1,-2,1,0,0,-4,0
1532162178012,8,2,2,0,3,-1,0,2
1532162178017,-1,-2,0,0,-1,-4,-6,-1
1532162178022,-27,-2,-1,-1,0,2,3,-7
1532162178027,21,-2,-1,-1,-3,-18,-10,9
1532162178032,18,4,0,1,2,8,-8,-2
1532162178037,-10,2,0,0,2,-4,-4,-11
1532162178042,13,-1,-2,-1,-1,5,15,20
1532162178047,-26,-1,0,0,-3,5,4,-3
1532162178052,-12,-5,-3,-2,-5,-8,-1,3
1532162178057,9,0,-1,0,-1,-5,-3,-6
1532162178062,4,2,1,1,1,7,-13,-15
1532162178067,-4,-3,-2,-2,-1,-1,9,4
1532162178072,-1,-4,-1,-2,0,-5,2,10
1532162178077,-15,-3,1,-2,0,1,-4,-5
1532162178082,4,1,0,-4,-3,-1,0,-3
1532162178087,13,0,-1,-2,-2,-3,2,-1
1532162178092,-5,0,1,1,2,0,-11,-11
1532162178097,-5,-2,-1,1,0,1,6,9
1532162178102,0,1,1,0,1,-1,-3,-2
1532162178107,9,-1,0,-1,0,1,14,1
1532162178112,-14,-3,-4,-2,-5,-5,5,8
1532162178117,4,-1,-3,-3,-4,-2,-4,-3
1532162178122,1,4,1,2,2,0,-10,-16
1532162178127,-1,-1,0,0,-2,-9,2,-4
1532162178132,-4,-1,1,0,2,2,-3,3
1532162178137,4,2,-1,-2,-5,-13,0,1
1532162178142,-2,-2,-2,-2,-3,19,1,-14
1532162178147,-3,-2,0,0,5,1,-12,-14
1532162178152,2,1,-4,-3,-6,-2,9,22
1532162178157,7,0,1,1,-1,-3,6,4
1532162178162,-6,0,-2,-2,-1,-6,4,2
1532162178167,0,-2,-1,-1,-4,-8,-15,-2
1532162178172,-2,0,1,0,3,11,2,-9
1532162178177,0,-1,-3,-2,0,-2,4,8
1532162178182,-2,-1,-2,0,-2,-1,-3,1
1532162178187,2,-3,-2,-1,4,7,-4,-2
1532162178192,-4,1,0,0,-4,-21,-1,-3
1532162178197,6,-3,0,2,2,8,2,-4
1532162178202,-3,2,0,0,3,-4,0,1
1532162178207,-14,-3,-3,-2,-1,-2,-4,-4
1532162178212,3,-3,-2,-3,-4,-9,-7,-2
1532162178217,-2,0,2,1,2,11,8,-8
1532162178222,-27,-3,0,-1,-3,-9,7,8
1532162178227,39,6,1,-1,-1,3,3,13
1532162178232,-3,-2,-1,-2,0,6,-8,-11
1532162178237,-1,-2,-2,-2,-4,-9,-12,-4
1532162178242,-11,-8,-2,-2,-2,-8,4,-5
1532162178247,29,5,1,1,0,19,0,6
1532162178252,-3,0,0,-1,2,-1,2,3
1532162178257,-7,0,-1,1,1,-6,-8,0
1532162178262,10,0,-2,-2,-1,-2,-3,-1
1532162178267,-17,-4,-2,-1,-3,-4,0,-7
1532162178272,6,1,1,0,-2,-14,4,1
1532162178277,1,-1,-1,-2,-2,-1,2,6
1532162178282,2,-1,-2,0,5,6,-4,2
1532162178287,-6,-1,0,2,0,1,10,-10
1532162178292,-3,1,-3,-3,-4,9,-8,-1
1532162178297,-5,-1,-1,-1,-1,-10,4,0
1532162178302,9,-1,-1,-2,-2,2,-2,6
1532162178307,-5,-1,0,0,2,2,0,-4
1532162178312,-6,-7,-3,-1,2,-3,-6,-3
1532162178317,0,0,-2,-2,-3,0,7,-12
1532162178322,8,1,-1,0,-1,8,7,18
1532162178327,-7,-2,0,-3,-6,-22,-2,-4
1532162178332,-5,-3,-1,-1,4,6,-6,-2
1532162178337,2,1,0,-3,-2,-1,11,-2
1532162178342,1,1,0,-1,-1,18,-4,-12
1532162178347,-7,-1,-2,-2,-1,-7,-2,18
1532162178352,1,2,0,1,2,5,7,-3
1532162178357,2,-2,-3,-3,-5,1,-9,4
1532162178362,1,-2,-3,-2,-4,-3,-2,-14
1532162178367,-6,-3,-2,-2,-5,-5,-11,2
1532162178372,1,1,-2,1,0,-7,3,1
1532162178377,-1,-2,-1,0,2,4,0,2
1532162178382,-1,-2,0,-1,-3,-8,0,2
1532162178387,4,-2,-4,-2,1,15,-2,-9
1532162178392,-7,-4,0,-1,1,2,1,9
1532162178397,3,3,0,-1,-2,-28,7,11
1532162178402,3,-1,-1,-1,0,19,3,5
1532162178407,-3,-1,0,-1,2,-1,-2,-3
1532162178412,-5,-5,-2,-2,-4,6,-3,-9
1532162178417,1,-1,-1,-1,0,4,0,-4
1532162178422,-6,-2,-2,-2,-2,-23,-9,3
1532162178427,5,3,-2,0,-4,-7,3,-3
1532162178432,1,0,1,-2,-1,-3,-1,9
1532162178437,-32,-5,-1,-1,1,6,-5,0
1532162178442,34,2,1,2,3,7,-3,-3
1532162178447,-20,-5,-1,-1,-4,-1,-6,-9
1532162178452,4,1,-1,0,-2,3,4,-3
1532162178457,-6,-1,-1,1,-1,-6,-10,-10
1532162178462,0,2,1,-3,-1,-7,3,5
1532162178467,-6,-4,-3,-2,-4,-3,-3,-1
1532162178472,2,1,1,-2,0,-3,-1,-3
1532162178477,11,-1,2,-1,1,11,-4,-2
1532162178482,-4,0,-1,-1,-2,-9,-4,-4
1532162178487,8,2,1,-1,0,-3,0,5
1532162178492,-20,-2,-2,-1,-1,0,4,-3
1532162178497,8,0,-1,-1,1,2,-22,-9
1532162178502,0,1,0,-1,-2,-3,-3,-13
1532162178507,-12,0,2,3,4,1,2,15
1532162178512,-3,-4,1,-2,-1,-3,-4,1
1532162178517,8,1,-1,-2,0,3,10,2
1532162178522,-5,-1,-2,-1,-1,-5,1,-5
1532162178527,3,-1,-2,-1,-1,1,-6,-5
1532162178532,2,0,-2,0,0,-3,10,7
1532162178537,-1,-2,1,-1,-3,10,-6,-1
1532162178542,-8,-2,-1,0,-2,-4,6,11
1532162178547,0,-2,-2,-3,-5,-13,5,5
1532162178552,0,-1,-1,0,-1,-35,-7,-11
1532162178557,-1,0,-2,-2,-4,12,8,5
1532162178562,-2,0,0,2,7,13,0,1
1532162178567,0,0,0,-1,-2,-1,0,-2
1532162178572,3,-1,-2,-2,1,22,-2,-6
1532162178577,2,0,-2,0,-1,-12,-2,-5
1532162178582,-5,1,1,0,1,3,12,-2
1532162178587,-2,-3,-3,-3,0,-2,-9,2
1532162178592,1,1,-1,-1,-1,0,10,5
1532162178597,1,-1,0,1,4,7,2,0
1532162178602,-2,-3,0,-1,-3,0,-3,-1
1532162178607,0,0,0,1,0,0,-1,-4
1532162178612,7,1,0,-1,-1,1,-2,1
1532162178617,3,-2,0,-2,-1,6,2,-8
1532162178622,-34,-4,0,-1,-4,-8,-8,7
1532162178627,4,1,0,0,-1,-1,1,-3
1532162178632,0,-2,1,0,3,-6,-10,-8
1532162178637,12,2,-1,-1,-6,-21,-5,3
1532162178642,1,-1,-2,-1,1,23,1,4
1532162178647,-13,-3,0,-1,3,-1,4,-5
1532162178652,19,4,0,0,-3,-6,-8,8
1532162178657,-7,-2,-1,-1,0,15,1,-4
1532162178662,8,0,-1,-2,1,-3,-3,-4
1532162178667,0,0,-1,-2,-1,7,3,2
1532162178672,-3,-1,-1,-1,-2,0,0,-7
1532162178677,5,-1,1,-3,-2,-13,-6,-1
1532162178682,-5,-2,-1,-1,-2,-9,-8,-7
1532162178687,5,2,0,1,2,8,14,9
1532162178692,8,-4,-2,-1,-3,-5,-1,-2
1532162178697,-13,3,-1,1,6,0,-3,1
1532162178702,1,-1,-1,-4,-9,-1,-1,-7
1532162178707,-2,-4,-1,0,-4,-13,-12,-12
1532162178712,-4,-2,-2,0,0,22,-1,1
1532162178717,0,-2,-1,1,1,-15,11,6
1532162178722,6,0,0,1,2,-6,-2,-2
