1532222813866,-9,15,25,-1,1,1,1,-1
1532222813871,3,-3,-18,-2,-2,-2,-2,-1
1532222813876,2,21,16,-5,1,-1,1,1
1532222813881,-2,-4,-9,4,1,-2,-1,-2
1532222813886,-1,-44,-16,-1,-2,-1,-2,-6
1532222813891,-15,24,-1,-1,1,1,2,-5
1532222813896,6,12,-4,-6,-3,-1,-2,-1
1532222813901,6,11,10,-1,-3,-1,-1,4
1532222813906,8,6,36,4,2,3,0,6
1532222813911,-2,-17,-29,-1,-3,-2,-2,0
1532222813916,-8,-22,-34,-6,-3,-1,0,-5
1532222813921,-2,8,3,-4,0,-1,0,-2
1532222813926,0,18,5,0,-2,-2,1,-2
1532222813931,3,-29,6,-2,-2,-1,-2,-2
1532222813936,-2,-5,-2,2,0,1,0,1
1532222813941,0,-4,-22,-4,-1,0,0,2
1532222813946,4,17,0,-2,-2,-1,0,1
1532222813951,0,-11,28,4,0,0,-2,-1
1532222813956,-3,3,-9,1,-1,-1,-2,-2
1532222813961,0,-5,9,3,3,1,3,1
1532222813966,-1,-17,-46,-6,0,1,3,2
1532222813971,0,34,16,-3,-2,-2,-3,-5
1532222813976,1,-5,12,2,1,-1,0,-1
1532222813981,-15,-47,-38,-3,-3,1,0,-5
1532222813986,6,32,47,1,2,-1,-2,-1
1532222813991,-2,12,17,4,-1,-1,0,-3
1532222813996,8,-34,-16,3,-1,-1,-2,5
1532222814001,-10,-9,-14,-4,1,0,0,-1
1532222814006,3,32,-9,-3,-1,-3,-2,-2
1532222814011,-2,11,4,-3,-1,0,-1,-1
1532222814016,2,0,32,3,2,0,2,-1
1532222814021,5,11,-23,-5,-2,-3,-6,-1
1532222814026,-8,-6,-3,1,1,0,2,0
1532222814031,5,34,6,-2,0,0,1,2
1532222814036,-7,-41,0,2,-1,-1,-3,-3
1532222814041,-1,20,8,-5,-3,-3,-1,-4
1532222814046,6,37,30,15,3,2,1,-1
1532222814051,-12,-111,-50,-7,-2,-1,-2,-3
1532222814056,1,62,8,-3,-1,-2,2,-1
1532222814061,2,13,13,2,-1,0,-1,-1
1532222814066,-2,4,-1,-5,-3,-2,-1,0
1532222814071,-1,-61,-23,-4,1,-2,-1,-1
1532222814076,-5,33,0,1,-2,-1,-3,-2
1532222814081,6,1,14,5,1,2,1,1
1532222814086,2,15,-7,0,0,-1,0,0
1532222814091,0,-4,-7,3,0,-1,2,2
1532222814096,-2,28,6,-2,0,-1,0,-3
1532222814101,8,-1,24,5,3,3,2,4
1532222814106,-6,-26,-19,-5,-2,-3,-2,-4
1532222814111,4,24,5,-3,1,0,0,0
1532222814116,-8,-4,-29,-4,-4,-2,-4,-3
1532222814121,5,39,28,4,-1,-1,1,1
1532222814126,4,-18,10,1,1,0,0,0
1532222814131,3,-6,-4,4,-1,-1,0,0
1532222814136,2,-15,-8,-7,1,0,0,0
1532222814141,-8,-38,-19,-10,-5,-4,-5,-6
1532222814146,-3,0,3,0,-4,0,-2,-1
1532222814151,4,71,32,0,-3,-1,-3,-2
1532222814156,1,5,-59,3,0,2,1,0
1532222814161,-14,-85,13,1,-2,-2,-4,-3
1532222814166,-13,-38,-29,-9,-2,-3,-3,-5
1532222814171,13,54,30,8,2,2,5,6
1532222814176,-9,-43,11,-1,-2,-2,-3,-4
1532222814181,5,50,-13,-1,-1,-3,0,1
1532222814186,4,7,-5,1,-2,-1,2,3
1532222814191,-9,-51,-4,-2,-2,-2,-2,-3
1532222814196,9,-42,18,1,2,1,3,3
1532222814201,0,-89,-14,0,0,-1,-1,1
1532222814206,-5,-120,13,0,1,1,-1,-1
1532222814211,-4,-124,-31,-7,-2,-5,-7,-4
1532222814216,3,-90,16,-9,-4,-4,-2,0
1532222814221,-8,82,-25,10,1,1,2,-3
1532222814226,10,108,7,1,1,0,2,1
1532222814231,1,127,7,4,4,5,3,2
1532222814236,-7,88,-20,-4,-2,-3,-1,-3
1532222814241,8,20,24,-8,1,0,4,3
1532222814246,-2,-5,-6,7,0,0,-1,1
1532222814251,-1,-16,10,0,-2,-1,-1,-2
1532222814256,4,4,30,2,1,1,1,3
1532222814261,3,-7,-23,-8,-1,0,-2,1
1532222814266,-5,-23,-6,-3,-2,-2,-2,-3
1532222814271,-2,-24,2,-2,-1,-3,-1,-2
1532222814276,1,2,4,3,3,2,0,2
1532222814281,6,-3,11,3,0,1,0,2
1532222814286,-10,-15,-21,-4,-3,-1,-1,-6
1532222814291,-3,-7,0,-3,-2,-2,-2,-1
1532222814296,1,10,1,1,1,0,0,-2
1532222814301,-6,-7,1,2,1,-2,0,-1
1532222814306,0,-7,12,-6,1,0,1,3
1532222814311,-2,0,-15,-1,0,0,1,-2
1532222814316,2,4,6,-1,-2,0,-1,0
1532222814321,-1,-7,-7,-2,-2,0,-3,-3
1532222814326,0,-4,-14,-3,-3,-2,-2,0
1532222814331,-5,2,-2,-2,-2,-1,-1,0
1532222814336,-4,0,9,-1,0,0,-1,3
1532222814341,3,-1,11,0,-1,-2,0,-2
1532222814346,0,-2,4,0,2,1,1,-1
1532222814351,-7,-1,-17,-5,-3,-2,-4,-5
1532222814356,4,3,4,2,-1,0,1,2
1532222814361,-5,8,-14,-6,-4,-3,-3,-3
1532222814366,0,-6,5,4,-1,-1,-2,-2
1532222814371,-5,-2,-7,-9,-4,-3,-2,-2
1532222814376,1,5,15,-1,0,1,1,0
1532222814381,-2,1,-5,0,0,0,0,-3
1532222814386,8,-3,6,-4,-1,1,1,3
1532222814391,-1,-2,9,4,0,-1,0,0
1532222814396,-14,4,-17,-7,-4,-3,-3,-8
1532222814401,14,-1,14,2,0,0,1,5
1532222814406,-7,0,-19,-7,-4,-3,-4,1
1532222814411,-1,-3,2,-4,-1,0,0,-8
1532222814416,-10,1,0,3,-1,-2,-1,-6
1532222814421,7,-3,5,2,2,-1,1,1
1532222814426,-1,-2,14,3,2,0,1,2
1532222814431,11,-4,-18,-6,-2,0,-1,6
1532222814436,0,-1,5,2,0,-1,0,1
1532222814441,-2,-3,-2,-1,0,1,-1,0
1532222814446,0,3,0,-1,-1,-2,0,0
1532222814451,-7,-4,14,1,0,1,1,-1
1532222814456,8,3,4,2,0,-1,-1,1
1532222814461,-11,-4,-14,-2,-2,-1,-1,-4
1532222814466,0,-1,-2,0,-1,0,-2,-2
1532222814471,2,-1,3,4,-1,-2,-1,-1
1532222814476,0,0,-9,1,0,0,-1,-1
1532222814481,4,-2,9,-6,-1,-1,0,0
1532222814486,-2,-2,-3,-1,-1,0,0,0
1532222814491,5,-1,0,8,1,0,0,1
1532222814496,8,-3,-2,-2,-2,0,-2,3
1532222814501,-27,3,-3,3,0,-1,-2,-9
1532222814506,13,0,2,4,2,0,0,-1
1532222814511,1,-3,2,1,1,1,0,4
1532222814516,-2,0,1,-5,0,-1,-2,-6
1532222814521,1,1,-2,0,-4,0,-2,0
1532222814526,-9,2,0,0,0,-1,-1,-1
1532222814531,6,0,6,1,0,-2,-1,0
1532222814536,-2,-3,-2,-1,-1,-1,-1,0
1532222814541,0,-3,6,2,1,-1,-1,-1
1532222814546,-6,-6,0,1,1,1,0,-1
1532222814551,-7,0,-7,-4,-2,-3,-4,-2
1532222814556,-3,-5,7,2,-1,-1,-1,-3
1532222814561,-8,1,-20,-7,-2,0,-4,-3
1532222814566,3,1,-16,-7,-2,-3,-4,-3
1532222814571,-15,0,-3,-4,0,0,0,-4
1532222814576,-1,2,-2,-5,-3,-1,-2,-1
1532222814581,1,2,-2,-3,-1,-2,-2,-2
1532222814586,5,-3,12,3,2,0,1,3
1532222814591,5,2,-1,2,1,0,-1,0
1532222814596,-6,4,-7,0,2,1,0,1
1532222814601,-6,-2,-8,-6,-5,-3,-4,-4
1532222814606,-3,2,7,-2,-2,-2,-2,-7
1532222814611,-1,0,3,1,-3,-3,0,1
1532222814616,9,0,-4,2,0,0,-1,0
1532222814621,-12,2,6,2,2,-1,1,-4
1532222814626,14,-2,0,1,-1,-2,-2,5
1532222814631,-6,2,0,-2,0,1,0,-3
1532222814636,0,-3,-8,-2,0,-1,-1,6
1532222814641,3,-3,12,-1,0,0,-1,-3
1532222814646,-5,1,-12,0,0,-1,-2,-4
1532222814651,4,2,5,3,1,1,1,1
1532222814656,-5,1,-9,-4,-3,-2,-1,-2
1532222814661,2,0,6,-2,1,0,1,4
1532222814666,10,-6,1,-1,-1,0,-1,1
1532222814671,-24,-2,1,1,1,0,0,-10
1532222814676,-2,0,-11,-6,-3,-3,-3,-6
1532222814681,7,-1,8,1,-2,-7,0,1
1532222814686,-4,-2,1,-2,1,4,-1,0
1532222814691,8,4,1,0,-4,-12,0,4
1532222814696,7,-3,-3,1,13,13,3,5
1532222814701,-4,0,-2,1,1,0,1,1
1532222814706,-12,3,1,-4,0,14,-1,-11
1532222814711,-7,-4,0,-1,-4,-19,-4,-5
1532222814716,-1,2,-4,1,-5,-7,0,-2
1532222814721,13,-1,-1,1,-7,-5,1,5
1532222814726,-1,2,-9,-1,-4,-3,-3,1
1532222814731,0,-11,-1,1,3,3,-3,-4
1532222814736,-9,-39,-7,-1,0,-2,5,-2
1532222814741,6,-8,4,0,0,16,-4,1
1532222814746,1,10,-1,1,0,-11,-1,-2
1532222814751,0,6,0,0,1,0,-3,-2
1532222814756,6,12,3,-1,-2,-2,2,10
1532222814761,-17,36,0,-1,3,3,2,-10
1532222814766,6,30,-3,-4,-4,1,0,-2
1532222814771,1,11,-1,0,2,6,2,-5
1532222814776,6,-19,3,-2,1,-5,0,4
1532222814781,3,-47,-1,-2,-7,1,0,4
1532222814786,-7,-35,1,-2,0,-10,-7,-7
1532222814791,-6,-5,-4,-2,3,-6,-4,-3
1532222814796,-8,-10,3,1,-3,1,-3,4
1532222814801,6,-20,-14,-2,-2,-8,-6,-12
1532222814806,-5,-1,0,-1,-1,7,0,12
1532222814811,5,10,0,-3,-1,3,0,1
1532222814816,-3,19,-2,0,-2,-7,-3,2
1532222814821,1,25,3,1,0,-4,0,10
1532222814826,0,3,-2,0,-1,3,-1,-13
1532222814831,0,11,-4,-1,-3,-2,-4,0
1532222814836,-5,18,2,0,-1,-5,0,-12
1532222814841,2,8,-1,-2,-1,-5,-1,1
1532222814846,4,-3,-2,1,-2,5,1,3
1532222814851,-7,-12,2,0,-2,0,1,3
1532222814856,12,-5,-3,-3,-1,0,-2,2
1532222814861,12,-4,1,1,3,1,0,3
1532222814866,-17,-7,2,-1,-1,2,0,-5
1532222814871,-20,-10,-1,-2,-3,-2,-1,-8
1532222814876,4,-10,-2,1,-1,0,0,-3
1532222814881,-2,-5,-2,-3,-2,-1,-4,-2
1532222814886,4,-8,-3,1,0,2,0,3
1532222814891,6,-6,-4,-1,0,-1,1,1
1532222814896,-5,1,10,1,0,-1,-1,-3
1532222814901,0,-2,-1,-2,0,-3,0,2
1532222814906,1,0,-2,-1,1,2,0,-1
1532222814911,14,6,26,1,0,1,7,5
1532222814916,-28,-10,-49,-4,-2,-3,-8,-11
1532222814921,7,1,-3,-3,-2,-6,-2,-3
1532222814926,0,3,9,0,-2,5,0,3
1532222814931,22,-5,-4,0,0,0,-2,6
1532222814936,-27,-8,11,-2,0,3,4,1
1532222814941,5,14,1,1,2,3,4,0
1532222814946,-7,-8,-13,-1,-3,-2,0,-14
1532222814951,3,3,-1,-3,-3,-7,-9,-2
1532222814956,0,-2,10,4,0,-3,0,0
1532222814961,-24,-1,-5,-3,-3,5,-4,-7
1532222814966,14,3,6,0,0,0,4,10
1532222814971,-8,-6,-3,0,2,3,-1,-1
1532222814976,11,8,-3,0,-4,-2,-4,-8
1532222814981,1,11,27,0,-1,-4,0,3
1532222814986,7,-18,-53,-6,-3,-2,0,1
1532222814991,-24,-9,6,11,3,-1,0,-3
1532222814996,24,18,2,-3,-3,-6,-5,6
1532222815001,22,-1,9,2,2,5,5,18
1532222815006,-23,3,12,-3,0,2,-1,-11
1532222815011,-11,-2,-16,-5,-5,-7,-2,-24
1532222815016,32,-29,5,1,4,3,5,8
1532222815021,9,18,-1,0,-5,-3,-7,-3
1532222815026,23,21,13,-1,0,1,-1,20
1532222815031,17,-13,-13,-4,0,0,0,-4
1532222815036,-42,-3,11,0,-2,-1,-1,-24
1532222815041,22,-11,-14,-1,1,-1,1,6
1532222815046,-27,-12,-1,5,0,-2,-3,-5
1532222815051,22,22,23,-1,2,2,7,16
1532222815056,16,-5,-3,-7,-5,0,-9,2
1532222815061,-34,-17,-6,0,0,-6,-3,-15
1532222815066,22,1,7,-2,0,-3,3,-2
1532222815071,-53,-6,-16,-12,-10,-8,-14,-16
1532222815076,23,-16,-9,-2,-2,2,6,16
1532222815081,-26,-12,-3,2,0,1,1,-9
1532222815086,15,8,11,-3,-1,-3,-1,-4
1532222815091,3,-10,5,7,1,0,2,5
1532222815096,-12,35,-5,1,1,-1,2,1
1532222815101,5,-15,-4,-3,2,3,6,13
1532222815106,42,24,30,6,1,1,0,-1
1532222815111,-7,-15,-8,3,2,-3,1,-1
1532222815116,-34,69,8,3,2,1,1,-5
1532222815121,45,9,6,4,2,1,-2,5
1532222815126,-5,-3,1,-3,0,0,1,3
1532222815131,-4,8,-17,2,-1,2,2,7
1532222815136,20,1,4,3,1,-1,-1,-3
1532222815141,-72,2,-10,-7,-4,-4,-3,-7
1532222815146,-10,-16,-18,-3,-3,-3,-6,-5
1532222815151,8,20,7,0,-2,1,-2,-4
1532222815156,-18,-32,-22,-14,-4,-2,1,-2
1532222815161,-8,11,7,10,2,2,-1,-6
1532222815166,-11,-15,-5,-7,-3,-3,-4,2
1532222815171,15,7,10,2,3,1,3,7
1532222815176,-9,-14,-1,1,-1,0,0,-10
1532222815181,1,-17,-19,-11,-4,-3,-4,-4
1532222815186,0,11,-17,14,2,3,3,2
1532222815191,5,1,4,-6,-1,-1,-3,1
1532222815196,13,-29,26,5,2,2,6,4
1532222815201,32,22,-9,-3,-4,-4,-5,-2
1532222815206,-26,-15,-1,-1,0,-2,0,-5
1532222815211,14,11,1,-2,-3,0,0,6
1532222815216,15,5,-4,2,0,-1,-5,-3
1532222815221,-7,-11,7,0,1,-1,2,0
1532222815226,4,1,1,-8,-2,-3,-2,-1
1532222815231,-28,-23,-2,4,0,1,-1,-7
1532222815236,34,5,5,-2,-1,0,-1,15
1532222815241,-12,-7,-5,-1,-2,-1,-1,-12
1532222815246,-2,9,6,1,0,-1,-1,6
1532222815251,-11,-8,1,-4,-1,-1,0,-16
1532222815256,-12,-6,-21,-1,-1,-1,-1,-1
1532222815261,12,9,-6,-1,0,0,-1,6
1532222815266,-12,-15,11,3,0,-1,-2,-1
1532222815271,9,11,4,0,-2,0,1,5
1532222815276,-13,-8,4,1,0,0,0,-4
1532222815281,12,3,6,3,0,0,1,5
1532222815286,-8,0,-7,-6,-2,0,0,-14
1532222815291,4,-7,-9,-3,0,-2,-4,10
1532222815296,-5,10,-5,1,-2,-2,-2,1
1532222815301,1,-10,17,3,1,1,-1,2
1532222815306,-7,22,-5,-3,-4,-3,-5,-11
1532222815311,0,-8,-4,-2,-1,-1,-1,-7
1532222815316,-9,-11,6,-1,0,-1,1,-2
1532222815321,-2,7,-27,-1,-1,0,0,-3
1532222815326,-2,1,7,1,0,1,0,2
1532222815331,16,-5,-3,-2,0,0,1,6
1532222815336,-12,2,-6,0,-1,0,-1,-6
1532222815341,9,-12,1,-1,-1,-1,0,-1
1532222815346,8,-11,3,-2,-2,0,0,0
1532222815351,-16,-28,-5,0,-1,-1,-1,-4
1532222815356,12,-52,9,-2,0,-1,-1,-1
1532222815361,-3,-52,-2,-3,-2,-2,-1,-2
1532222815366,-10,-35,-8,0,1,1,0,-1
1532222815371,1,-7,-2,-5,-3,-1,-2,2
1532222815376,0,11,-7,-1,0,-10,0,2
1532222815381,-3,38,9,-1,0,7,-2,-3
1532222815386,0,41,17,-3,-4,4,1,2
1532222815391,1,34,-27,0,3,-8,0,-6
1532222815396,-4,32,-1,3,-5,-3,0,1
1532222815401,3,25,15,-1,2,-6,-1,-1
1532222815406,10,-4,-2,1,6,19,1,1
1532222815411,-4,8,19,2,1,6,0,0
1532222815416,8,-11,1,-1,2,-3,1,3
1532222815421,-1,5,-13,-1,-2,3,-2,2
1532222815426,-6,-3,8,-1,-2,-3,-1,0
1532222815431,2,-5,-14,-3,-2,-1,-2,-2
1532222815436,-5,-4,0,0,-1,-1,0,-1
1532222815441,1,0,13,0,0,2,2,0
1532222815446,4,-3,-3,-2,0,1,-2,0
1532222815451,-4,1,6,0,-1,-3,-2,-2
1532222815456,14,-3,-30,-1,-1,-4,-1,-2
1532222815461,-8,-2,10,-1,0,5,2,-1
1532222815466,-14,-2,-3,-2,-1,-1,-2,-4
1532222815471,2,-9,-5,-4,-2,-2,-1,-4
1532222815476,-1,6,12,-1,0,-2,-1,0
1532222815481,5,-2,-2,0,0,1,-1,1
1532222815486,4,3,-3,-1,-1,1,-1,1
1532222815491,-3,0,0,0,-2,-3,-1,-1
1532222815496,-5,-6,3,-1,1,-1,-2,-2
1532222815501,-7,-1,1,-2,-1,0,-1,1
1532222815506,-1,2,2,-1,-1,-2,-1,-1
1532222815511,-2,-3,-3,-1,-2,-1,1,-2
1532222815516,2,0,-2,-2,0,-1,-3,-1
1532222815521,-5,-2,6,1,-1,1,-1,2
1532222815526,-3,0,0,0,-2,-1,-1,-4
1532222815531,6,-1,-11,0,0,0,-2,0
1532222815536,-2,-6,1,-1,-2,-3,-2,-1
1532222815541,13,0,1,-1,-2,-2,-1,1
1532222815546,-25,4,0,0,1,3,-2,-2
1532222815551,0,-8,-8,-4,-3,-4,-4,-8
1532222815556,1,2,1,-2,-1,0,2,-2
1532222815561,2,-7,1,0,-1,0,-3,1
1532222815566,14,-2,-5,0,0,0,3,6
1532222815571,-23,-7,-2,-2,0,2,-1,-3
1532222815576,5,18,0,-1,-1,-2,-1,2
1532222815581,8,9,2,2,0,-1,-1,-2
1532222815586,8,-2,0,-1,-2,-2,-2,0
1532222815591,-7,3,1,0,2,0,3,3
1532222815596,9,-8,-2,-1,-1,-2,-2,-2
1532222815601,-16,2,-6,-2,0,1,-2,-3
1532222815606,1,6,1,0,0,-1,-2,-1
1532222815611,11,-2,-2,0,0,3,0,5
1532222815616,-3,-8,14,7,0,0,2,0
1532222815621,-5,8,-10,3,1,-1,-1,-3
1532222815626,-3,-4,3,-5,-3,-2,-6,-9
1532222815631,0,-2,-4,0,1,-1,2,-2
1532222815636,-9,-14,-2,0,-1,-2,-2,-3
1532222815641,16,15,3,-2,0,1,3,6
1532222815646,6,0,10,0,1,0,3,4
1532222815651,-17,-7,-10,-3,-3,-1,-7,-8
1532222815656,-4,-5,-2,-3,-2,-1,-1,0
1532222815661,-21,5,-1,0,1,0,-2,-5
1532222815666,9,-5,8,-3,-2,-2,-3,0
1532222815671,4,-5,-14,0,-1,-1,0,3
1532222815676,6,9,7,2,0,1,0,9
1532222815681,-12,-15,7,-4,-2,-2,-1,-9
1532222815686,-12,-5,-13,-1,-3,-2,0,-4
1532222815691,9,10,13,-1,-1,-1,1,0
1532222815696,-4,-5,-11,-2,0,0,0,-2
1532222815701,3,-17,5,-2,-1,-1,1,4
1532222815706,2,4,-5,3,1,1,1,0
1532222815711,4,-6,-16,-1,-2,-1,1,-2
1532222815716,0,11,10,3,-1,1,-1,-1
1532222815721,8,7,9,-1,-3,-2,-2,0
1532222815726,-8,-10,-11,3,1,0,0,1
1532222815731,1,-6,7,1,-1,-1,-3,2
1532222815736,1,11,-15,-4,0,1,0,1
1532222815741,-6,3,10,-1,-1,0,5,-6
1532222815746,-13,-14,-4,-3,-2,-4,-12,3
1532222815751,10,3,10,2,-1,0,1,6
1532222815756,2,12,2,-2,-2,-2,-2,-3
1532222815761,14,9,-1,1,-1,-1,0,0
1532222815766,-11,-28,-11,-4,-3,-3,-1,-8
1532222815771,1,7,5,-1,0,-2,-1,-6
1532222815776,0,-18,-2,0,2,1,-1,-1
1532222815781,-6,9,-6,-2,-2,-3,0,0
1532222815786,8,2,18,-3,-1,0,1,1
1532222815791,-8,-10,-11,1,1,0,-1,-1
1532222815796,-20,25,18,0,1,0,-2,-8
1532222815801,8,-25,-10,1,-4,-7,0,-2
1532222815806,-8,10,7,-6,-3,-2,-6,-4
1532222815811,11,-7,-6,-1,2,2,1,1
1532222815816,-4,-6,-4,0,0,3,2,1
1532222815821,-2,-1,-5,-4,-1,0,-5,-1
1532222815826,4,24,18,3,-1,5,6,2
1532222815831,-3,-4,-17,-3,-3,-25,-5,-2
1532222815836,4,-15,13,0,3,11,4,0
1532222815841,0,8,-13,-2,1,1,0,-1
1532222815846,-8,5,15,0,0,-3,2,-2
1532222815851,3,0,2,0,-1,6,0,-3
1532222815856,-4,-10,2,0,-3,-3,-1,0
1532222815861,-3,-8,-12,-1,1,-1,-1,0
1532222815866,1,7,1,0,-2,2,0,1
1532222815871,-5,6,15,-1,1,1,0,-2
1532222815876,4,4,1,-2,-3,-6,-6,-6
1532222815881,-2,-13,-9,1,1,5,6,8
1532222815886,3,3,-1,-1,-1,-4,2,2
1532222815891,-11,-9,5,1,-3,0,0,-7
1532222815896,2,-5,-3,-4,-2,2,-2,-5
1532222815901,1,11,6,-1,-1,-1,-2,-3
1532222815906,2,-11,-12,1,1,12,1,5
1532222815911,6,3,2,0,1,0,-1,9
1532222815916,-2,5,11,1,-2,0,0,-3
1532222815921,-6,-6,6,-1,-1,-6,-4,-2
1532222815926,3,-5,-23,-1,-1,-3,-2,-15
1532222815931,-9,1,0,-2,1,6,-11,7
1532222815936,6,-3,-11,-1,0,-5,-1,2
1532222815941,20,10,29,0,-2,4,9,7
1532222815946,-21,2,2,0,0,-6,-22,-7
1532222815951,12,-4,-18,-1,-1,0,2,-1
1532222815956,-6,-6,-6,0,-1,-4,2,1
1532222815961,2,9,10,0,-1,1,-2,-4
1532222815966,2,-10,-15,-1,1,-4,5,3
1532222815971,-5,2,11,-1,-3,0,3,-4
1532222815976,-2,1,-15,-2,1,-3,-6,-5
1532222815981,-1,1,6,-1,0,0,-4,10
1532222815986,-1,-10,-9,0,1,3,14,-3
1532222815991,-4,5,5,1,0,1,-1,-3
1532222815996,0,-7,3,-2,-3,-4,4,-4
1532222816001,-9,-4,-12,-2,-5,-13,-10,-5
1532222816006,1,-2,-2,-1,4,12,4,6
1532222816011,1,-2,3,-1,-2,2,-1,-8
1532222816016,-2,-4,1,-1,1,-2,-13,16
1532222816021,-8,-2,-9,-1,0,-3,-3,-22
1532222816026,4,3,6,-1,-2,-6,1,3
1532222816031,2,-2,-4,0,0,1,3,3
1532222816036,-1,-4,-2,-1,-1,2,-6,0
1532222816041,0,6,1,-2,-3,-17,-2,-8
1532222816046,1,9,15,2,3,-5,11,18
1532222816051,-6,-5,-12,-1,1,7,3,-1
1532222816056,-2,-2,-3,-1,-6,-6,5,-4
1532222816061,-3,-6,-7,-1,3,12,2,6
1532222816066,2,-1,-8,-3,0,0,2,-4
1532222816071,1,3,2,-1,-2,-11,-8,-5
1532222816076,-1,0,3,0,-1,-1,1,2
1532222816081,-2,-6,-5,-1,0,6,5,-7
1532222816086,2,0,0,-1,-2,-6,-7,-1
1532222816091,-4,0,-1,-3,-1,2,1,1
1532222816096,1,2,2,1,0,-1,-2,-7
1532222816101,-3,1,0,0,0,1,-7,2
1532222816106,1,-3,-6,0,-2,-4,-1,-3
1532222816111,1,0,-1,-2,-3,-1,3,1
1532222816116,-1,-3,-3,-3,1,3,9,1
1532222816121,0,0,1,-2,-2,-2,-8,3
1532222816126,-2,0,-2,0,-3,-8,-5,-2
1532222816131,1,-1,0,-1,-4,22,3,-5
1532222816136,-3,-1,-3,-2,2,-15,-5,-2
1532222816141,-4,-5,-3,2,-3,-3,3,1
1532222816146,1,1,0,-2,1,6,-5,-5
1532222816151,-1,0,-4,1,-2,-3,-2,-1
1532222816156,-1,2,2,0,-1,4,1,0
1532222816161,1,-3,-1,0,-1,3,3,2
1532222816166,-2,-8,-14,-1,-2,-4,-4,-4
1532222816171,0,8,10,-1,-1,-11,-1,-2
1532222816176,0,-2,1,1,-3,4,1,1
1532222816181,-3,-2,-4,-2,3,2,-1,-1
1532222816186,4,3,1,0,-3,21,4,5
1532222816191,10,-2,2,-1,4,-17,-1,0
1532222816196,-26,-2,-8,0,-1,-8,-8,-9
1532222816201,3,0,2,0,-3,-2,-5,-5
1532222816206,0,-1,1,-1,0,1,2,2
1532222816211,2,1,0,0,-1,2,2,4
1532222816216,8,2,7,0,0,1,3,4
1532222816221,-6,-5,-8,-2,0,-1,-4,-2
1532222816226,-3,6,4,-1,-1,-5,-1,-3
1532222816231,0,-1,3,0,-4,-6,-1,-2
1532222816236,0,-4,-4,0,5,3,-1,0
1532222816241,-3,1,-2,-2,0,6,5,2
1532222816246,16,1,2,1,2,-6,-4,0
1532222816251,-14,-6,-8,-1,-1,-6,-3,-3
1532222816256,-4,2,6,-1,-1,19,2,-4
1532222816261,1,-2,-4,-2,-2,-5,1,1
1532222816266,-3,-1,14,0,-2,-3,-2,-2
1532222816271,4,-1,-29,-3,-2,-1,-1,3
1532222816276,6,-2,0,-2,-1,-3,1,1
1532222816281,-9,-3,0,-1,1,-1,-2,-5
1532222816286,-1,4,3,-1,-3,-5,-3,-4
1532222816291,-4,-1,5,1,0,3,0,0
1532222816296,8,3,0,1,-1,-4,0,2
1532222816301,-7,1,-3,-1,-1,2,2,0
1532222816306,-1,-6,-4,-2,-1,-5,-2,-1
1532222816311,0,-1,1,-4,0,1,-7,-4
1532222816316,2,1,0,-1,0,-2,0,0
1532222816321,4,1,1,-1,-1,-3,-2,-1
1532222816326,-2,-3,-4,1,0,0,2,-1
1532222816331,-7,1,4,1,1,3,1,-2
1532222816336,2,-5,-5,-1,-3,-4,-4,-1
1532222816341,2,-4,-6,-2,-1,1,0,-1
1532222816346,-2,5,3,1,-2,-1,-1,-1
1532222816351,2,0,1,-4,-4,-2,-2,-1
1532222816356,-2,1,1,0,4,9,3,1
1532222816361,-1,-3,-2,0,0,3,-4,-2
1532222816366,1,-3,-7,0,1,21,2,0
1532222816371,3,0,2,1,-1,-28,-6,-2
1532222816376,-5,2,1,-1,-1,3,-1,-4
1532222816381,-11,0,1,-1,-1,0,-2,-3
1532222816386,-2,-7,-11,-3,0,-2,-3,-5
1532222816391,1,2,7,2,0,7,2,0
1532222816396,5,-1,-5,0,-4,-4,1,1
1532222816401,13,3,5,-1,1,-3,0,2
1532222816406,-15,-2,0,-2,-3,-4,-1,0
1532222816411,0,-6,-6,-4,-2,-5,-2,-2
1532222816416,7,2,-3,1,1,5,-1,1
1532222816421,-8,1,1,0,1,0,3,-2
1532222816426,4,-3,-5,-3,0,-3,-3,-1
1532222816431,-1,-1,3,-1,1,2,1,-1
1532222816436,-2,-1,-2,-2,-1,-5,-1,0
1532222816441,2,0,0,0,-2,-1,-1,1
1532222816446,8,0,1,0,-3,-7,0,3
1532222816451,-17,-3,-5,-1,5,11,1,-6
1532222816456,7,-1,-1,-2,-4,-1,-1,-3
1532222816461,-4,3,4,-2,0,-16,1,1
1532222816466,-2,-1,-1,0,-1,1,1,-3
1532222816471,5,-1,-1,0,-2,4,-1,4
1532222816476,-10,-3,-1,-1,-1,3,-1,-3
1532222816481,9,-2,-6,-2,-5,2,-1,0
1532222816486,1,2,3,0,0,0,0,-1
1532222816491,2,-2,-2,-1,0,-6,-1,1
1532222816496,-3,0,1,-1,1,4,1,-1
1532222816501,-1,-4,-4,-1,-2,-2,-3,-1
1532222816506,-1,3,1,0,-1,-2,-1,-1
1532222816511,-6,-5,-2,-1,-4,0,-1,-4
1532222816516,4,0,-2,-3,5,-2,-3,1
1532222816521,-1,1,1,1,1,2,-1,-2
1532222816526,-3,-5,-8,-2,0,-2,-1,-1
1532222816531,-1,2,0,-1,0,3,2,2
1532222816536,-1,1,7,0,-4,-5,-4,1
1532222816541,9,-3,-2,-1,1,2,2,5
1532222816546,-12,-3,0,0,0,-1,-5,-8
1532222816551,3,1,-7,0,-3,-4,-1,-2
1532222816556,-1,2,3,-1,-3,1,-1,0
1532222816561,-1,0,-1,1,0,8,0,1
1532222816566,6,1,-3,-2,-2,-10,-1,4
1532222816571,-9,3,4,0,0,3,1,-3
1532222816576,0,-5,-4,-1,-1,-10,-1,-2
1532222816581,0,-2,-1,-1,-1,1,-2,1
1532222816586,4,1,0,-3,-2,3,-2,-1
1532222816591,-5,0,0,-3,3,-2,1,-1
1532222816596,1,0,1,-1,-1,-3,-2,0
1532222816601,-2,-1,-3,0,-3,4,-1,-2
1532222816606,5,0,1,-2,1,-16,-3,0
1532222816611,-4,-2,-3,-1,-1,4,-1,-2
1532222816616,1,0,0,-2,-3,-3,-1,-3
1532222816621,-3,1,0,0,-1,-2,-2,-4
1532222816626,-1,1,-1,0,-1,3,-1,1
1532222816631,8,-1,-3,-1,-1,3,2,4
1532222816636,-2,-4,-6,-1,0,0,1,-5
1532222816641,-5,5,9,0,-3,-5,-5,-7
1532222816646,0,0,1,0,-1,-3,3,-1
1532222816651,-14,-3,-3,-2,0,5,-1,-1
1532222816656,13,-2,-6,0,-5,-1,0,3
1532222816661,-1,-2,-3,-1,2,-3,-2,0
1532222816666,-1,0,-1,-1,0,-1,-1,-1
1532222816671,5,0,0,-1,-2,-2,-1,1
1532222816676,-6,0,-1,-2,-1,3,1,0
1532222816681,2,2,4,0,0,-2,0,-1
1532222816686,-6,-3,-2,-1,-5,10,3,-3
1532222816691,6,-1,0,-1,4,-6,-4,-1
1532222816696,-11,5,5,0,-1,-3,-1,-3
1532222816701,0,-2,-5,-1,-1,-3,1,0
1532222816706,-3,-2,-1,-1,0,7,1,1
1532222816711,4,0,-3,-2,-4,2,0,-1
1532222816716,-2,0,-1,-3,-1,-2,-1,-1
1532222816721,2,1,1,2,-2,2,-2,0
1532222816726,4,0,-1,0,2,-1,1,3
1532222816731,-2,-2,-3,0,-3,1,-1,-6
1532222816736,-8,-2,1,-3,-1,-5,-3,-3
1532222816741,1,-3,-6,-2,-2,-1,0,0
1532222816746,-2,0,-3,-1,-2,-8,0,-1
1532222816751,4,-1,5,-1,-3,3,1,2
1532222816756,-2,2,0,0,2,2,-1,1
1532222816761,-1,-1,-2,-1,-1,0,0,-2
1532222816766,-7,2,-1,0,-2,-4,-3,-3
1532222816771,4,0,3,0,-2,0,-2,2
1532222816776,-7,-7,-4,0,0,-7,0,-1
1532222816781,-2,4,2,-1,-1,-3,1,1
1532222816786,0,-1,-3,0,1,0,-2,-2
1532222816791,1,-2,-4,-2,0,-2,0,-2
1532222816796,-3,-1,1,0,-2,7,-2,0
1532222816801,3,0,-2,-1,1,-14,-1,0
1532222816806,-5,1,2,-2,-1,-7,-1,-1
1532222816811,-2,1,-2,0,-1,7,1,-1
1532222816816,6,-1,-1,1,0,-4,1,0
1532222816821,-3,-5,-3,-1,-1,12,0,-2
1532222816826,-2,-4,-6,0,0,3,0,0
1532222816831,3,5,12,0,0,-8,-1,1
1532222816836,2,2,0,0,-4,1,1,-1
1532222816841,-9,-3,-1,-2,-1,-5,-3,-4
1532222816846,3,-4,-2,1,1,9,1,-1
1532222816851,-7,1,-4,-1,-1,0,-1,-1
1532222816856,14,1,3,1,0,0,0,9
1532222816861,-10,-1,0,0,0,-1,-1,-5
1532222816866,-1,-5,-4,-2,-1,-3,-2,-3
1532222816871,5,0,-2,-1,1,1,0,-1
1532222816876,-7,2,0,-1,-1,-4,0,0
1532222816881,4,0,0,-2,-4,-1,0,3
1532222816886,4,0,2,0,3,20,1,1
1532222816891,-10,-1,-3,2,1,-4,-1,-3
1532222816896,-14,-1,-5,-1,-1,0,-2,-3
1532222816901,8,-1,-3,0,-2,2,1,5
1532222816906,2,0,-1,-2,1,2,-1,-3
1532222816911,2,4,6,0,0,2,1,1
1532222816916,-8,-3,-1,-1,-1,-1,-1,2
1532222816921,2,-6,-6,0,-4,-3,-2,-6
1532222816926,2,-1,-2,-1,-2,-2,-1,-2
1532222816931,1,2,1,-1,1,0,-1,1
1532222816936,6,1,2,-1,-2,-3,1,4
1532222816941,-6,-3,-6,-1,-1,1,2,-3
1532222816946,2,-1,2,-1,1,-2,0,-1
1532222816951,-6,3,-2,1,-1,1,-1,-3
1532222816956,1,-3,-2,1,-2,-1,-3,0
1532222816961,9,3,6,0,0,-2,-2,6
1532222816966,-13,-2,-1,0,0,1,1,-2
1532222816971,6,-2,-6,-3,-2,0,-1,-3
1532222816976,-9,4,4,0,-1,0,-1,-2
1532222816981,4,-3,-3,-3,1,0,-2,4
1532222816986,19,0,1,0,0,1,0,8
1532222816991,-18,-5,-2,0,-1,0,-2,-11
1532222816996,0,1,-4,-2,-3,-2,-1,-6
1532222817001,3,8,14,2,0,0,0,2
1532222817006,-6,-3,-6,-1,-1,1,-1,1
1532222817011,11,1,4,-1,-2,-1,1,6
1532222817016,-1,-1,10,1,1,0,-1,-2
1532222817021,-5,-3,-31,-4,-2,1,0,-2
1532222817026,6,2,6,-1,0,-2,-1,3
1532222817031,-20,-4,-3,2,1,1,-1,-1
1532222817036,4,-6,-4,-3,-2,-2,-2,-8
1532222817041,0,-2,3,1,0,0,1,3
1532222817046,-5,5,-1,-3,0,-1,-1,-3
1532222817051,8,-1,-3,0,0,0,0,1
1532222817056,-4,-2,-1,1,0,-1,-2,3
1532222817061,0,1,6,0,0,1,1,-2
1532222817066,4,-3,-6,-1,0,-1,0,5
1532222817071,-9,-1,4,0,-1,0,-3,-8
1532222817076,7,0,-3,-4,-1,-2,-1,-2
1532222817081,0,-3,0,0,0,1,-2,-2
1532222817086,-13,1,0,-1,0,0,1,-3
1532222817091,5,-1,-2,-3,-1,-1,-2,2
1532222817096,1,4,5,0,-1,0,0,3
1532222817101,-3,-1,-2,0,0,-6,0,0
1532222817106,-16,-2,0,-3,-2,2,-3,-8
1532222817111,1,-6,-8,0,1,7,2,1
1532222817116,1,3,-3,-1,0,-2,-2,-1
1532222817121,0,-3,2,-2,-1,-3,-1,-1
1532222817126,3,3,4,2,-1,-2,0,-2
1532222817131,5,0,0,0,-1,-1,0,1
1532222817136,-9,-2,-3,-2,-1,3,0,-1
1532222817141,-11,-5,0,0,-1,-3,-1,-3
1532222817146,6,-5,-7,-1,-1,-2,0,-1
1532222817151,-6,1,2,-1,0,-2,-2,0
1532222817156,3,-1,1,0,-2,-11,-1,3
1532222817161,-3,3,0,0,0,9,-1,-1
1532222817166,-6,-5,-5,-2,-3,0,-1,-3
1532222817171,16,8,5,-1,-2,-2,0,3
1532222817176,-15,-4,-6,-2,-3,-5,0,-2
1532222817181,-1,-2,-3,-1,5,3,0,-1
1532222817186,4,4,6,0,1,4,0,-2
1532222817191,4,1,1,-1,0,-2,1,-1
1532222817196,1,-3,-6,0,-1,0,-1,-1
1532222817201,0,-1,0,-2,-5,-5,-2,1
1532222817206,7,1,0,-1,0,1,0,0
1532222817211,-2,-1,-1,-1,-1,-4,0,-6
1532222817216,-2,0,-1,-1,-1,1,0,0
1532222817221,-1,-1,0,0,-2,-4,-3,0
1532222817226,0,-5,-7,-3,-1,-4,-3,1
1532222817231,8,-1,-1,0,1,6,1,4
1532222817236,-10,3,2,-1,0,1,1,-2
1532222817241,14,2,3,-1,-2,1,0,-1
1532222817246,-11,-2,-1,0,-2,-4,-1,-1
1532222817251,-4,-2,-5,-1,-1,-6,-2,-3
1532222817256,8,1,3,0,1,2,-2,1
1532222817261,-6,-2,-4,-4,-3,-6,-1,-1
1532222817266,2,-3,1,0,0,-2,0,2
1532222817271,0,-2,-2,-2,0,0,-2,-5
1532222817276,4,2,-1,1,2,1,-1,0
1532222817281,-4,-2,0,1,0,-1,-1,-2
1532222817286,-13,1,0,0,-2,1,-1,-2
1532222817291,12,-3,-2,0,-1,-1,-3,0
1532222817296,0,-1,-3,-1,-1,-1,-2,-2
1532222817301,-10,0,-1,0,-1,-1,-3,-4
1532222817306,14,-3,-9,0,-1,1,2,4
1532222817311,-13,5,8,1,0,-2,-1,1
1532222817316,-4,-1,1,0,-2,-3,-1,-5
1532222817321,6,1,-2,1,-1,2,0,0
1532222817326,-5,0,-2,-1,1,-10,-1,-3
1532222817331,1,-3,-6,-2,-1,5,0,-1
1532222817336,0,-4,-1,-1,-1,1,-2,1
1532222817341,-6,0,0,-2,-3,-1,0,-2
1532222817346,10,4,7,2,1,0,-1,6
1532222817351,-5,-3,-3,-2,-3,-4,-1,-5
1532222817356,-5,0,1,1,1,1,1,3
1532222817361,-5,-3,-3,0,0,0,0,-1
1532222817366,0,-3,-2,-3,-2,-1,-2,-4
1532222817371,-2,0,-1,0,0,-1,-1,2
1532222817376,2,2,0,-1,0,1,0,1
1532222817381,2,-1,0,0,0,-2,-1,1
1532222817386,-7,-1,-1,0,0,2,0,-4
1532222817391,-1,-2,-3,-1,-2,-2,-1,2
1532222817396,-1,5,1,0,-1,0,-1,-4
1532222817401,-1,-2,-1,-2,-3,-2,-2,-1
1532222817406,4,3,6,-3,-2,1,-2,1
1532222817411,1,-4,-2,0,1,2,0,0
1532222817416,-3,-3,-5,-1,-2,-1,0,-5
1532222817421,2,1,0,0,1,0,1,1
1532222817426,-2,-4,-6,-2,0,1,-1,-1
1532222817431,3,4,6,3,-1,-3,-1,0
1532222817436,0,-3,-1,1,-2,1,1,4
1532222817441,-12,-3,-4,-2,0,0,-2,-7
1532222817446,6,-1,0,-1,-1,-1,1,-2
1532222817451,-8,-4,-4,-2,1,-2,-3,1
1532222817456,6,2,-1,-1,0,0,-1,2
1532222817461,-2,0,5,2,0,-1,1,0
1532222817466,2,0,-5,1,-2,-1,-1,-2
1532222817471,-9,0,3,0,-2,-2,-1,-11
1532222817476,1,-3,-2,-1,1,0,0,1
1532222817481,2,2,-3,-1,1,-1,-2,2
1532222817486,-1,-4,-1,1,-1,0,-2,-1
1532222817491,6,2,-2,-2,-1,0,0,3
1532222817496,-1,-2,-2,-3,-2,-1,-1,-4
1532222817501,13,-1,0,-1,1,0,0,4
1532222817506,-14,2,4,-1,2,-2,0,-3
1532222817511,9,-5,-9,-2,-2,-1,-1,-3
1532222817516,-9,8,6,-1,-2,-1,-5,-2
1532222817521,11,-4,-3,-3,-1,1,-2,0
1532222817526,-2,0,6,4,0,0,-1,-2
1532222817531,-3,6,-2,-2,-2,-1,1,5
1532222817536,3,-4,-3,0,1,-2,-1,-2
1532222817541,-4,0,-4,-1,-3,-1,-1,-1
1532222817546,-3,-4,-4,-3,0,0,-1,0
1532222817551,-8,-8,-3,0,1,0,-2,0
1532222817556,9,6,4,1,-1,1,0,0
1532222817561,-4,0,-2,0,0,-1,0,1
1532222817566,11,-7,-5,-3,-1,-2,0,1
1532222817571,-28,1,3,-1,-1,-1,-1,-5
1532222817576,5,-1,-4,-3,-1,-3,-1,-2
1532222817581,-7,1,3,0,-2,-1,-1,-3
1532222817586,8,1,2,-1,-2,0,0,2
1532222817591,-1,-3,-2,0,0,1,0,3
1532222817596,-2,-10,-7,-2,-1,-1,-1,-5
1532222817601,3,6,0,-2,-1,-1,0,1
1532222817606,2,4,3,2,-1,2,-3,-1
1532222817611,3,0,0,-1,-1,-1,0,2
1532222817616,-6,-4,-3,0,-1,-3,-1,-2
1532222817621,0,-5,-4,0,-2,-2,-2,-1
1532222817626,0,3,0,-1,0,-1,-1,-1
1532222817631,0,4,1,-1,0,-2,-1,-2
1532222817636,0,-4,-3,-2,-3,-2,0,0
1532222817641,4,-3,0,-1,0,-1,-2,2
1532222817646,-18,1,-3,1,0,-1,-1,-5
1532222817651,3,-2,-4,-3,-2,-1,-2,-3
1532222817656,7,5,11,1,0,-1,-1,0
1532222817661,3,0,-1,-2,1,0,-1,2
1532222817666,-7,-1,-2,1,-1,0,-2,-1
1532222817671,6,-2,-5,-1,1,1,0,-1
1532222817676,-5,8,8,0,-1,-1,-1,-1
1532222817681,1,-4,-2,-1,-1,0,0,-3
1532222817686,-6,-1,-1,-1,-1,0,0,0
1532222817691,7,-3,-3,-3,-1,-2,-2,1
1532222817696,-4,-6,-5,-1,0,0,-2,-1
1532222817701,-4,7,4,0,-1,0,0,-2
1532222817706,3,-2,-4,-2,0,-1,1,-1
1532222817711,-4,-3,0,-1,-1,-2,0,-1
1532222817716,-3,-4,-5,1,1,-2,-2,1
1532222817721,-6,-3,-5,-2,0,-1,-2,-2
1532222817726,2,3,8,-1,0,1,-2,0
1532222817731,3,-1,1,1,-1,1,-1,2
1532222817736,-4,-4,-4,0,0,1,0,0
1532222817741,-3,-2,1,0,-1,0,0,-1
1532222817746,1,-2,-5,-2,-3,-2,-2,1
1532222817751,1,3,3,-2,0,0,-2,0
1532222817756,-2,-1,-5,-3,-1,0,0,0
1532222817761,-4,-2,0,-1,0,-2,0,-4
1532222817766,1,-4,-3,-2,-1,-2,0,-3
1532222817771,2,1,0,-1,0,-1,-2,-1
1532222817776,9,1,-1,1,1,-3,1,3
1532222817781,-11,-3,-2,0,1,0,-2,2
1532222817786,3,0,0,-1,-2,-3,-3,-6
1532222817791,1,-2,-2,-1,-3,-3,0,-1
1532222817796,-3,-2,0,1,1,1,0,0
1532222817801,5,0,1,0,-1,-1,0,1
1532222817806,-11,-1,-3,1,1,1,0,3
1532222817811,4,0,5,-1,-1,-2,-1,-2
1532222817816,1,-1,-1,-2,-2,-6,-2,0
1532222817821,10,6,1,-2,-1,2,-1,1
1532222817826,-5,-6,-7,-2,0,1,0,0
1532222817831,3,0,0,-2,0,-2,0,-2
1532222817836,-6,-2,3,1,-5,0,1,1
1532222817841,0,-3,-6,1,1,-9,-3,-2
1532222817846,4,-2,2,0,2,2,0,1
1532222817851,-3,9,6,-1,-2,-9,-4,2
1532222817856,-5,-1,-1,-1,0,6,4,-1
1532222817861,1,0,1,-1,-2,3,1,-2
1532222817866,3,-1,-2,0,-3,1,3,-3
1532222817871,5,-3,-4,0,1,0,1,-2
1532222817876,-7,1,-1,-1,4,2,-2,5
1532222817881,0,3,1,0,-3,1,0,-5
1532222817886,4,-1,0,-2,-2,-3,0,-1
1532222817891,1,-6,-7,0,-1,0,1,1
1532222817896,-2,-1,-3,-1,-2,0,6,2
1532222817901,6,-7,-1,-2,1,-2,-5,-5
1532222817906,-10,6,1,-1,-1,-2,-1,-1
1532222817911,1,-3,-2,-2,-2,-8,-2,-1
1532222817916,0,-2,-3,-3,-2,6,-3,-2
1532222817921,-2,-2,-3,-1,1,0,-1,1
1532222817926,3,2,3,-1,-1,-1,2,2
1532222817931,-9,-1,-3,-2,-1,5,2,-2
1532222817936,0,-3,-2,1,-1,-8,-6,-3
1532222817941,-2,-1,-1,-1,0,0,-4,-1
1532222817946,0,-3,-4,-2,0,0,-3,-3
1532222817951,4,1,1,1,1,4,8,15
1532222817956,-6,-2,-3,1,-1,-3,-5,-7
1532222817961,11,3,-1,-1,-2,-1,0,8
1532222817966,-13,-1,-1,1,1,0,-5,-6
1532222817971,2,2,1,-1,0,-2,-4,-3
1532222817976,-2,6,6,-1,0,-2,1,1
1532222817981,-7,-4,-2,-1,-4,-2,0,-2
1532222817986,4,6,1,-2,3,0,-4,0
1532222817991,-6,-10,-2,-1,-1,-2,-5,-6
1532222817996,0,4,-1,-2,0,4,0,0
1532222818001,-4,3,4,-1,-1,3,0,-3
1532222818006,5,-5,0,1,-1,-5,5,4
1532222818011,-4,5,-3,-1,-1,3,-5,-15
1532222818016,8,-10,-1,-1,1,0,2,3
1532222818021,-8,-3,1,-1,1,-2,0,-1
1532222818026,-1,0,-3,-1,-3,-1,2,7
1532222818031,11,-1,-2,-2,2,3,0,-8
1532222818036,4,2,0,1,-1,-1,-1,-1
1532222818041,-7,-12,-5,-3,-1,-2,-5,1
1532222818046,14,-18,-7,-4,-1,-1,-6,-2
1532222818051,-26,22,5,1,0,-1,-4,-4
1532222818056,11,-16,-6,-4,-3,-3,-1,2
1532222818061,-2,-2,-2,0,-3,-3,3,0
1532222818066,-3,11,3,-1,2,0,-3,-5
1532222818071,4,-7,5,1,3,5,-2,2
1532222818076,4,3,-1,1,-1,-2,0,-5
1532222818081,-7,10,2,-1,0,-5,4,-3
1532222818086,-1,-14,-7,-2,-2,-6,-14,-3
1532222818091,-8,-5,-3,-3,-2,0,4,-1
1532222818096,-6,3,-5,0,-2,-2,-4,4
1532222818101,6,-5,-1,1,-2,2,1,1
1532222818106,-3,8,4,0,-2,0,1,4
1532222818111,9,7,3,2,-1,-2,-1,-2
1532222818116,-17,-7,-4,-2,-1,-6,-7,-7
1532222818121,-6,-13,-4,-2,1,6,3,-4
1532222818126,1,15,2,1,-2,1,9,2
1532222818131,-8,5,1,1,-4,-1,-1,-2
1532222818136,7,4,2,-3,3,-3,4,4
1532222818141,-6,1,-1,0,4,8,-4,1
1532222818146,1,1,0,-1,-1,0,0,-4
1532222818151,5,-5,-7,-2,-4,-6,-1,3
1532222818156,-2,5,3,2,0,-5,-7,-5
1532222818161,-7,4,0,-2,-1,0,2,2
1532222818166,4,-1,-4,0,0,0,0,-3
1532222818171,1,-9,-2,-2,-1,-2,-3,1
1532222818176,-8,0,0,0,0,2,3,-2
1532222818181,12,-1,0,0,-1,-4,-2,-1
1532222818186,-5,-2,-1,1,-2,1,-1,0
1532222818191,6,-3,-1,0,0,-2,1,3
1532222818196,-17,-1,-2,-1,2,4,1,-3
1532222818201,9,2,0,-1,-4,-3,-3,0
1532222818206,-6,-2,-1,-1,0,-3,-2,-1
1532222818211,6,-4,-1,-1,0,1,0,3
1532222818216,-1,1,1,-2,-2,-1,0,2
1532222818221,4,5,1,-1,-3,-4,-4,-1
1532222818226,-3,-6,-1,-2,-1,-2,2,-5
1532222818231,-7,-10,-5,-2,1,0,-2,1
1532222818236,14,4,2,0,-2,0,-1,-1
1532222818241,-17,2,1,-1,0,-3,1,-2
1532222818246,-7,-2,-1,-2,-2,0,-2,-2
1532222818251,-1,1,-3,-1,-2,0,1,1
1532222818256,4,-5,-7,-4,-4,-2,0,-3
1532222818261,5,-2,0,2,3,1,0,1
1532222818266,8,-3,5,3,-1,0,1,1
1532222818271,-14,0,-4,0,-1,-3,-4,-2
1532222818276,1,0,0,0,-3,-5,4,-2
1532222818281,6,6,4,-1,2,2,6,3
1532222818286,-4,-17,-7,-4,-1,1,-13,-18
1532222818291,7,24,4,2,4,8,8,25
1532222818296,2,-12,-6,-1,-1,11,-1,14
1532222818301,-3,14,0,-1,-1,-6,8,-11
1532222818306,3,4,8,0,-2,-2,-10,8
1532222818311,-5,-7,0,0,-2,-3,-1,-3
1532222818316,4,0,0,1,1,-2,-2,-3
1532222818321,-4,-9,-7,-1,-2,1,-6,1
1532222818326,-2,7,-3,-3,-2,-4,1,-1
1532222818331,-1,-3,0,-1,-1,0,-3,-10
1532222818336,-3,-3,0,-2,0,1,-2,2
1532222818341,12,-6,-2,0,-3,-2,-4,-2
1532222818346,-7,-3,-4,0,5,0,5,7
1532222818351,4,19,5,0,0,3,0,-2
1532222818356,-16,-11,-1,-3,-3,-2,-1,-10
1532222818361,2,3,-1,0,-2,0,-3,0
1532222818366,6,-2,-4,1,1,1,2,0
1532222818371,0,-13,-7,-4,-5,-7,-2,-1
1532222818376,-3,13,3,0,1,3,-1,-7
1532222818381,-8,-1,-2,-2,-1,0,-2,-1
1532222818386,3,-3,-1,1,-1,-4,-2,0
1532222818391,-2,-11,-5,0,1,7,10,2
1532222818396,1,5,2,1,-2,2,-2,-9
1532222818401,0,-4,-1,-2,0,-4,-1,2
1532222818406,-3,2,-4,-2,-4,1,4,-4
1532222818411,-6,-2,-1,-2,0,-6,-6,-7
1532222818416,3,-10,-6,0,0,-2,-2,1
1532222818421,4,6,5,1,2,-1,0,-1
1532222818426,3,-2,2,0,-3,-4,-1,-1
1532222818431,-3,4,-1,-2,3,4,-1,-2
1532222818436,6,0,1,-1,-1,-2,0,2
1532222818441,-3,2,2,2,0,0,-3,-1
1532222818446,-4,-17,-12,-6,-3,-4,-1,-1
1532222818451,-5,8,3,1,1,-1,-2,-3
1532222818456,-2,0,1,-1,0,-5,-1,-2
1532222818461,3,-2,0,0,0,0,-4,2
1532222818466,11,8,3,0,0,-4,0,7
1532222818471,-11,-7,-4,-1,-1,3,1,-7
1532222818476,5,-2,-3,-2,0,1,-1,-1
1532222818481,-2,6,4,1,-2,-1,-2,-1
1532222818486,-1,-1,-3,0,0,4,9,0
1532222818491,0,-6,-3,-2,-5,-9,-11,-3
1532222818496,-2,6,5,1,0,-1,2,-1
1532222818501,1,-2,0,-1,0,2,-1,0
1532222818506,-8,1,0,1,0,2,2,0
1532222818511,6,-6,-3,0,0,-3,0,-1
1532222818516,-4,0,-1,-2,-1,-1,-2,-1
1532222818521,1,-2,-4,-2,1,0,0,-2
1532222818526,-8,1,0,0,-1,1,-3,-3
1532222818531,2,-4,-1,-2,-2,-3,-1,-3
1532222818536,-3,2,-3,0,0,0,-2,2
1532222818541,1,2,0,-1,-3,-2,-1,0
1532222818546,-4,-1,-1,0,-1,-1,-3,-2
1532222818551,-1,-3,2,0,-1,1,-2,1
1532222818556,7,-4,-4,0,1,-3,1,2
1532222818561,-4,-5,-2,-2,0,-1,0,-3
1532222818566,7,0,0,-1,0,-1,-2,-1
1532222818571,-15,-2,-3,0,-1,-2,0,-4
1532222818576,5,5,6,-1,-1,-1,-2,-3
1532222818581,-1,-4,-4,0,-1,-4,-1,1
1532222818586,-3,1,1,-1,-4,-1,-1,-1
1532222818591,9,-5,-3,-2,3,7,0,0
1532222818596,-5,-1,-5,-1,-1,-2,-2,0
1532222818601,0,-1,1,0,1,1,0,0
1532222818606,-7,-2,-3,-2,-1,-2,0,-2
1532222818611,5,0,-1,-1,-4,-4,0,0
1532222818616,-9,-3,0,0,-1,0,-1,-2
1532222818621,3,1,1,-2,0,-2,-1,0
1532222818626,-3,-1,0,-1,0,0,0,-1
1532222818631,-4,6,2,-1,-1,0,-1,-1
1532222818636,2,-7,-2,0,1,2,1,0
1532222818641,4,3,-1,-1,-1,1,1,1
1532222818646,-24,0,0,-2,-1,-1,-1,-3
1532222818651,9,-4,1,4,-1,-1,0,-5
1532222818656,-3,-2,-2,-1,-2,-1,1,2
1532222818661,-1,-6,-7,-1,-2,0,0,-1
1532222818666,9,-2,-3,0,1,2,-1,1
1532222818671,2,4,1,-2,1,-2,1,2
1532222818676,-4,3,0,0,-1,0,-1,-1
1532222818681,-1,-6,-2,0,-1,-1,0,-2
1532222818686,-5,4,4,0,0,1,-1,-3
1532222818691,1,-6,-4,-1,-1,-5,-3,-2
1532222818696,5,8,1,-2,-3,-11,1,0
1532222818701,-8,-2,-1,-3,0,8,-1,-9
1532222818706,4,-3,-2,-1,0,3,-5,-8
1532222818711,1,14,7,-1,2,2,13,15
1532222818716,-2,-18,-6,1,-3,0,3,8
1532222818721,-1,-6,-4,-1,2,-2,-3,11
1532222818726,-2,13,1,-4,-4,-12,-1,-27
1532222818731,2,-5,-2,-1,-2,7,-2,11
1532222818736,-2,0,-6,-2,0,1,-5,-6
1532222818741,-4,-8,-4,-1,-4,-3,2,1
1532222818746,6,10,10,3,2,2,1,1
1532222818751,-2,-4,-2,-4,-2,-4,-5,-8
1532222818756,-1,5,-6,-1,-2,-1,-1,0
1532222818761,-4,-7,-1,0,-1,0,-4,-4
1532222818766,-2,-3,-5,0,2,2,1,6
1532222818771,-2,-1,-1,0,-4,-4,-2,-5
1532222818776,4,4,2,0,0,2,-1,2
1532222818781,-5,6,3,0,1,-4,1,-4
1532222818786,-11,-2,1,0,4,6,6,5
1532222818791,6,-3,-4,-2,-3,-5,-16,-9
1532222818796,0,-3,-2,-2,0,1,-3,-6
1532222818801,3,5,2,1,-5,-11,0,1
1532222818806,-2,1,1,-1,-2,5,0,3
1532222818811,-4,-8,-4,-2,0,-1,-1,0
1532222818816,0,2,1,-1,-2,-2,2,-5
1532222818821,0,3,1,-1,0,-2,-1,1
1532222818826,4,-2,1,0,-1,0,-1,4
1532222818831,-3,-1,-2,0,0,-2,1,-3
1532222818836,-1,-2,-2,0,-1,-2,-3,-1
1532222818841,-5,-1,0,1,1,0,1,0
1532222818846,7,-6,-3,-3,-2,0,-4,2
1532222818851,-5,2,1,0,-2,-1,0,-1
1532222818856,-2,1,0,-1,0,0,-1,-1
1532222818861,-1,-3,-3,0,1,2,-1,-2
1532222818866,2,-4,-4,-1,-1,-2,-3,3
1532222818871,-7,-2,-1,0,-1,-2,4,-3
1532222818876,1,1,2,-2,-5,-5,-2,-2
1532222818881,-1,1,0,-1,3,7,0,-2
1532222818886,7,2,-3,-1,-2,-3,-2,4
1532222818891,-1,-1,2,0,1,-1,1,-2
1532222818896,-9,-3,-3,-2,0,-6,-1,-4
1532222818901,5,2,2,-1,-2,3,-1,-3
1532222818906,0,-1,-3,0,0,-2,1,1
1532222818911,2,2,4,-1,0,0,-1,1
1532222818916,0,-1,0,-1,0,2,0,2
1532222818921,-1,7,3,-1,-3,-5,-2,-3
1532222818926,5,-8,-4,0,1,2,-1,1
1532222818931,-9,-1,0,-1,-2,0,2,0
1532222818936,6,0,3,0,1,1,0,-2
1532222818941,-5,-3,-2,-1,-2,0,5,0
1532222818946,3,-3,-3,-3,-3,-2,-2,-2
1532222818951,12,2,0,0,0,-3,-1,3
1532222818956,-17,0,1,1,0,1,-3,-2
1532222818961,8,0,-1,0,-1,-2,0,-1
1532222818966,1,-1,-1,-2,-2,-3,1,-1
1532222818971,-2,-4,0,-1,1,-1,0,0
1532222818976,3,-1,-3,-1,-1,2,2,2
1532222818981,-3,2,1,-1,-2,-1,-4,-1
1532222818986,-2,-3,-4,0,0,-1,-2,-3
1532222818991,-3,-1,-2,0,-2,-7,-2,3
1532222818996,6,1,-1,-2,0,8,3,2
1532222819001,-2,-2,-3,-1,0,1,0,-2
1532222819006,-5,1,1,2,-1,1,1,-2
1532222819011,2,-1,-2,-5,-3,-2,-3,-2
1532222819016,3,1,1,0,-1,-4,-2,-1
1532222819021,-15,-3,-4,-5,-2,0,-2,-1
1532222819026,14,0,-1,-2,-1,-2,-1,0
1532222819031,-15,0,-1,-1,-2,-1,0,0
1532222819036,3,3,3,1,0,-1,-2,-2
1532222819041,8,-5,-3,1,-3,-1,0,1
1532222819046,-7,-2,1,-1,1,0,0,-4
1532222819051,5,-1,-2,-2,0,-1,0,0
1532222819056,-15,-2,-2,-3,-2,-2,-1,0
1532222819061,5,-1,-2,4,0,-3,-3,0
1532222819066,-3,0,1,0,-1,-2,-1,1
1532222819071,10,-1,-3,1,-1,0,-1,-2
1532222819076,-6,3,2,-1,0,-3,0,1
1532222819081,5,-6,-8,-3,-3,-12,6,-1
1532222819086,-2,2,3,-2,4,12,-12,-5
1532222819091,-2,-3,-4,0,0,1,0,-3
1532222819096,-6,-5,-7,-2,-3,-1,0,-3
1532222819101,-2,-4,1,-2,0,1,-2,-3
1532222819106,11,5,1,-1,-2,-8,4,-7
1532222819111,-4,10,-1,-1,1,3,-4,1
1532222819116,0,-31,-4,0,0,-4,-1,0
1532222819121,0,-4,-1,0,-2,2,0,4
1532222819126,2,3,1,1,-4,-12,-2,-3
1532222819131,-4,-11,-2,0,7,15,-2,-3
1532222819136,3,9,0,1,-3,0,3,-3
1532222819141,1,0,0,0,2,2,-6,-4
1532222819146,-2,-13,-1,-2,-1,1,3,6
1532222819151,-4,13,3,1,-2,-9,1,0
1532222819156,2,4,3,2,-4,-4,-3,-5
1532222819161,-3,-6,-10,-4,3,1,6,1
1532222819166,-6,5,-2,0,-7,-11,-10,-2
1532222819171,2,-7,0,-1,0,1,3,-2
1532222819176,-4,0,-3,-2,3,-2,-3,-1
1532222819181,-2,7,4,2,-3,-4,0,-1
1532222819186,-2,4,-2,-2,1,0,1,0
1532222819191,-2,-2,-1,-1,0,2,-3,0
1532222819196,2,4,4,1,-1,2,1,1
1532222819201,3,1,3,1,1,-1,-3,1
1532222819206,11,-2,-4,-1,-3,5,1,4
1532222819211,-21,-12,-4,-4,-2,-5,-2,-10
1532222819216,4,6,-6,-1,2,-2,-1,2
1532222819221,1,10,4,-3,-4,0,-3,-4
1532222819226,0,-1,4,1,2,3,0,1
1532222819231,1,1,-1,0,-1,-8,2,3
1532222819236,9,-3,-1,0,-3,15,1,2
1532222819241,-11,-2,-4,-2,1,-14,-6,-2
1532222819246,-2,-8,-7,0,-2,-1,1,-1
1532222819251,4,2,4,-1,1,0,-1,0
1532222819256,-3,-2,-2,-2,-3,-4,-2,-2
1532222819261,4,4,4,1,-3,4,1,0
1532222819266,-4,-5,-5,-4,-1,2,-1,-1
1532222819271,-2,3,1,0,-3,0,0,-1
1532222819276,4,3,3,1,0,-8,-3,0
1532222819281,1,0,2,-1,1,9,6,0
1532222819286,-6,-4,-3,0,9,7,3,3
1532222819291,3,-6,-6,-1,-7,0,-2,-1
1532222819296,-3,7,0,-3,-4,-18,-3,-3
1532222819301,-2,-3,-5,-2,-3,2,-2,-2
1532222819306,-8,3,7,-1,0,1,0,-3
1532222819311,5,-9,-6,-1,0,3,-1,2
1532222819316,-3,0,3,-1,0,-2,0,0
1532222819321,9,-2,-3,0,-1,0,-2,0
1532222819326,-7,1,-1,-4,-1,5,-1,-6
1532222819331,-11,0,1,-2,-2,-3,-3,-8
1532222819336,0,0,-1,-2,-6,-37,-2,-3
1532222819341,2,-5,-3,-2,3,49,2,-1
1532222819346,-3,-7,-7,1,0,-9,-1,2
1532222819351,4,0,-3,1,-3,24,3,2
1532222819356,0,6,9,2,-1,-25,-5,0
1532222819361,-10,3,-1,-3,-1,-65,-6,-4
1532222819366,6,-2,2,0,-2,54,3,1
1532222819371,-1,-9,-8,-3,5,-16,-3,0
1532222819376,3,-2,-1,0,-5,17,3,1
1532222819381,2,0,-3,3,4,-7,-2,1
1532222819386,-5,1,3,-2,-6,-29,-2,-2
1532222819391,3,-5,-4,0,-1,1,2,1
1532222819396,-3,3,2,1,5,19,-2,-1
1532222819401,1,-5,-4,0,-4,2,10,2
1532222819406,-1,2,-4,0,-2,-15,-11,-3
1532222819411,1,2,6,1,-1,-4,-1,0
1532222819416,-5,-8,-9,-7,1,8,1,-1
1532222819421,-5,-2,2,0,-2,3,-1,-1
1532222819426,3,2,0,-1,-4,-7,1,2
1532222819431,-1,1,2,-2,3,-4,-4,-1
1532222819436,2,2,3,2,4,9,1,1
1532222819441,-2,-1,-1,-2,-3,3,2,-3
1532222819446,3,-2,0,2,1,0,4,2
1532222819451,-1,2,0,-1,-5,-1,-2,4
1532222819456,1,1,2,0,0,7,-1,-1
1532222819461,-1,1,2,0,2,-8,-8,-2
1532222819466,4,-1,-2,1,0,-5,2,0
1532222819471,-12,-7,-6,-3,-4,29,-2,-5
1532222819476,4,-3,-8,-2,-9,-65,-5,-5
1532222819481,-4,4,8,1,7,62,3,-1
1532222819486,5,-5,-3,-2,-8,-35,-5,-1
1532222819491,-15,3,0,-2,-1,-16,-1,-4
1532222819496,2,-6,-3,0,0,14,1,-1
1532222819501,-19,2,3,2,-5,-12,-5,-3
1532222819506,6,-1,2,-2,-1,-6,1,-1
1532222819511,10,-5,-4,3,4,19,-2,-1
1532222819516,-6,13,8,-1,0,10,-1,1
1532222819521,9,-4,0,1,-7,-8,3,1
1532222819526,-19,4,4,0,4,-29,-11,-4
1532222819531,9,-3,-2,-2,-1,16,2,-1
1532222819536,-4,-12,-14,0,3,15,2,1
1532222819541,0,-1,1,-2,-1,-2,-5,-4
1532222819546,1,-2,-2,-2,-7,-13,-4,-3
1532222819551,-4,-9,-4,-1,3,8,-1,0
1532222819556,1,8,3,-1,-2,0,0,2
1532222819561,1,1,-7,-2,-1,-9,-13,-4
1532222819566,-1,22,8,-2,-3,18,3,-5
1532222819571,-4,-7,-1,-1,0,-19,0,-1
1532222819576,4,-1,1,-1,-7,-11,1,-2
1532222819581,-14,-11,-8,-4,4,21,2,-2
1532222819586,8,2,-2,1,1,12,4,1
1532222819591,-1,8,6,0,-1,-8,-3,0
1532222819596,2,-10,-4,-1,-3,-11,1,1
1532222819601,0,9,6,1,0,1,2,1
1532222819606,2,-8,-8,-2,9,15,0,1
1532222819611,-5,2,2,1,0,-13,2,1
1532222819616,-5,-4,-1,1,4,11,-3,-3
1532222819621,12,-6,-6,-2,-8,-20,-1,-2
1532222819626,-16,-9,-3,-2,0,12,2,0
1532222819631,12,14,4,-1,-3,-8,-2,-2
1532222819636,-4,3,3,-2,-1,8,-1,0
1532222819641,3,1,3,0,1,-16,-1,2
1532222819646,1,-5,-1,0,-2,-2,9,4
1532222819651,-6,-1,-4,-2,-3,-7,-10,-6
1532222819656,-1,-4,-5,-1,0,2,0,-3
1532222819661,3,-1,0,1,-1,4,1,4
1532222819666,1,-2,0,-1,-2,3,1,-3
1532222819671,-6,3,3,2,-2,-10,1,-2
1532222819676,2,-2,-1,1,-1,9,-1,0
1532222819681,-7,-6,-6,0,4,-2,-2,-3
1532222819686,0,-3,-5,-3,-1,-7,-3,0
1532222819691,11,3,3,0,-1,0,2,2
1532222819696,-9,-2,3,0,2,9,-1,-3
1532222819701,7,-2,-2,0,-2,-9,0,1
1532222819706,-5,1,0,-1,-6,-2,-3,1
1532222819711,1,0,-2,-4,5,5,1,1
1532222819716,1,-5,-4,-1,0,3,1,1
1532222819721,-9,3,1,-4,-4,-12,-4,-1
1532222819726,4,-1,2,0,-1,11,0,-3
1532222819731,0,-2,1,1,-2,-3,2,-1
1532222819736,-3,4,2,-1,-5,5,-8,-1
1532222819741,2,2,2,1,8,2,1,2
1532222819746,-6,-2,-3,-2,-1,-1,-2,0
1532222819751,10,-3,-1,-1,-1,-4,-2,0
1532222819756,-14,-2,-4,-1,0,1,2,-2
1532222819761,8,0,-1,1,-5,-1,0,0
1532222819766,-3,0,-2,-1,0,0,-2,-2
1532222819771,-1,0,1,1,0,-2,2,2
1532222819776,6,1,1,-2,2,-2,0,5
1532222819781,-5,-1,-1,-1,-4,-3,-1,-3
1532222819786,7,1,2,1,4,9,2,1
1532222819791,-14,-4,-2,-3,-4,-4,-3,-5
1532222819796,5,-1,-1,-1,0,-6,-2,-2
1532222819801,-4,1,1,0,-2,0,0,1
1532222819806,9,0,-2,0,-5,-4,-2,0
1532222819811,-7,0,-1,-1,5,8,0,-1
1532222819816,2,0,1,-2,-1,-5,-3,-2
1532222819821,1,-3,-4,-3,-3,1,1,0
1532222819826,-2,0,1,-1,5,-2,-3,-2
1532222819831,0,0,0,0,-2,2,0,2
1532222819836,-6,-10,-8,-2,0,1,0,-1
1532222819841,-3,-3,-1,0,-2,-5,6,0
1532222819846,2,1,-1,-3,-2,0,-8,-4
1532222819851,0,0,1,-1,-2,-1,1,1
1532222819856,2,1,-1,-1,0,1,1,-2
1532222819861,6,-9,-7,0,0,2,2,3
1532222819866,-8,0,1,1,0,-3,2,1
1532222819871,0,3,9,0,-4,-8,-2,-3
1532222819876,0,-3,-3,-2,-6,17,4,-2
1532222819881,1,0,-1,0,12,0,-5,0
1532222819886,-5,-1,-2,2,0,4,0,0
1532222819891,5,-1,-7,-1,-3,-7,-1,-1
1532222819896,-2,4,5,0,-1,-4,0,0
1532222819901,1,-1,-3,-3,-5,1,-3,-1
1532222819906,-5,-2,-1,0,1,1,0,0
1532222819911,5,1,-1,-3,-2,-7,0,4
1532222819916,-7,-2,-1,0,0,1,-1,-5
1532222819921,4,0,-1,-2,-1,2,-2,-3
1532222819926,0,0,-1,-3,-1,-7,0,0
1532222819931,-1,-5,-3,0,-1,3,1,-1
1532222819936,4,4,2,1,1,-1,-1,1
1532222819941,-5,3,2,-1,-2,-4,-3,-2
1532222819946,2,-4,-3,-1,-4,-6,-1,-1
1532222819951,-1,-4,-4,0,2,10,1,0
1532222819956,-1,-5,-2,0,-2,-4,0,1
1532222819961,-3,3,4,-2,-2,-13,-1,-4
1532222819966,-1,-1,0,-2,1,10,-1,-2
1532222819971,-2,0,-3,-1,2,0,1,0
1532222819976,0,-1,-1,-1,2,-3,-2,0
1532222819981,-2,1,-2,-3,-5,-3,2,-1
1532222819986,5,-2,1,-1,0,-2,-9,-3
1532222819991,-1,1,0,-1,-2,-6,-1,1
1532222819996,-2,-1,-1,-1,2,0,1,-2
1532222820001,-6,-2,-3,0,-1,5,-1,0
1532222820006,6,0,-1,0,-1,-1,1,0
1532222820011,-7,2,2,-3,-2,0,-1,-3
1532222820016,-3,2,2,-3,-2,-4,-6,-2
1532222820021,4,-2,-1,0,0,5,1,1
1532222820026,-4,-1,0,1,-1,0,1,-1
1532222820031,2,0,1,0,-1,-5,-2,0
1532222820036,-3,-1,-1,-1,0,-12,1,-2
1532222820041,-3,-3,0,-1,-4,-9,-1,-2
1532222820046,-2,1,-4,-2,-1,14,1,0
1532222820051,0,-2,-2,-3,2,2,-2,-4
1532222820056,-1,-1,0,0,1,0,0,-1
1532222820061,-1,-1,-2,-1,-1,-1,-3,-2
1532222820066,-1,0,-1,0,-2,-7,0,-1
1532222820071,-1,0,-1,1,-5,-6,-2,0
1532222820076,0,0,-3,-3,2,4,0,2
1532222820081,1,1,2,0,0,-1,-2,-1
1532222820086,-1,-1,3,-1,-2,-4,1,-1
1532222820091,-2,0,-2,0,-1,3,0,-1
1532222820096,2,1,-1,0,0,-1,-1,-1
1532222820101,0,0,-1,0,0,3,-1,0
1532222820106,-4,-1,0,-2,-2,-3,1,-2
1532222820111,0,0,1,0,0,-3,0,-1
1532222820116,3,-5,-3,1,-1,0,2,-2
1532222820121,-6,2,1,0,0,4,-1,1
1532222820126,6,1,1,1,-1,-4,-1,-1
1532222820131,-9,-2,-1,0,-1,-5,-1,0
1532222820136,5,-2,-2,0,-3,6,-1,-2
1532222820141,1,-3,-4,-1,0,8,0,-1
1532222820146,1,1,-2,-1,-3,-4,0,0
1532222820151,0,-1,0,0,3,1,-1,-1
1532222820156,-3,-1,-1,0,-1,-2,-1,0
1532222820161,-4,0,1,0,0,0,-1,-1
1532222820166,-3,-3,-3,-1,-1,-6,-2,0
1532222820171,3,1,0,-1,-2,-2,1,0
1532222820176,-4,-1,-2,-1,1,0,-1,-2
1532222820181,3,-1,0,-2,-1,-2,-1,-3
1532222820186,-5,-1,-3,-3,-2,-5,1,1
1532222820191,2,-1,-2,-2,0,3,1,-2
1532222820196,0,-1,0,0,-1,2,0,1
1532222820201,0,0,-1,-1,-3,-4,0,1
1532222820206,1,-1,-1,0,1,0,-2,0
1532222820211,10,-1,-2,-2,-2,1,0,5
1532222820216,-17,-1,1,-2,0,-2,0,-6
1532222820221,6,-1,-4,0,0,-3,-2,-4
1532222820226,-3,1,-2,-1,0,2,0,-3
1532222820231,1,0,-1,0,-1,1,-3,-2
1532222820236,6,-1,-1,1,-1,-2,0,1
1532222820241,-4,-1,-1,-2,0,-2,-3,-1
1532222820246,-2,0,2,0,1,2,0,-1
1532222820251,0,1,-2,0,-1,-2,0,1
1532222820256,0,0,-1,0,-2,0,-1,0
1532222820261,-1,0,0,0,1,-1,0,-2
1532222820266,-2,-1,-2,-1,-2,0,-1,1
1532222820271,-2,-2,1,0,-1,-1,0,-3
1532222820276,0,1,1,0,0,-7,0,0
1532222820281,-4,-2,0,-1,-1,10,2,-1
1532222820286,-1,-1,0,-3,0,2,-3,-2
1532222820291,-10,-1,-1,-2,-2,1,-3,-2
1532222820296,7,0,-1,-1,1,1,-1,0
1532222820301,-2,1,1,-2,-3,-5,-1,1
1532222820306,6,-3,-4,-1,1,-1,-1,1
1532222820311,-12,-1,1,-1,0,0,-2,-4
1532222820316,5,-2,-3,-3,-3,-1,-2,-2
1532222820321,2,-1,0,3,-1,-3,-2,-1
1532222820326,-3,-1,1,1,-1,3,0,-1
1532222820331,4,0,-1,2,0,-2,-2,2
1532222820336,0,-1,0,0,-1,1,-1,-1
1532222820341,-3,-1,-4,-3,1,-1,-1,-2
1532222820346,-2,0,-1,-2,-1,0,-1,-2
1532222820351,10,-1,-1,-1,1,-2,-2,4
1532222820356,-9,0,0,1,2,6,0,-4
1532222820361,0,0,4,4,0,0,-1,-2
1532222820366,-1,-2,0,-1,-2,-3,-1,-2
1532222820371,0,-1,-1,-1,-1,-1,-2,0
1532222820376,-2,-2,-2,-2,0,1,3,0
1532222820381,1,-1,0,-1,0,-1,1,1
1532222820386,-3,2,1,1,0,4,0,-2
1532222820391,0,-4,-3,-1,-1,0,0,-2
1532222820396,6,0,1,1,-3,-1,-3,1
1532222820401,-10,2,0,-1,0,-2,0,-3
1532222820406,1,-3,-1,-1,-1,-1,-1,-1
1532222820411,2,-1,1,0,-2,-5,-1,-4
1532222820416,-3,-1,-2,-2,0,6,1,-1
1532222820421,2,-3,-1,-1,-2,-1,-1,2
1532222820426,-2,0,-2,-2,0,0,0,0
1532222820431,-2,0,-2,-1,-1,-3,-1,-3
1532222820436,-1,-1,-1,-3,-2,-5,-3,0
1532222820441,2,-2,0,3,1,1,-1,0
1532222820446,-5,0,1,0,1,-3,0,-1
1532222820451,0,-2,-1,-2,-2,-1,-1,0
1532222820456,0,-1,0,-1,-1,-3,-1,-1
1532222820461,-6,-1,-4,-3,-1,-1,-1,2
1532222820466,-4,-1,-1,0,0,-2,-1,-3
1532222820471,6,0,-1,-2,2,0,0,-3
1532222820476,-9,-2,1,0,-2,-1,-2,-3
1532222820481,10,1,0,-1,-2,-1,0,1
1532222820486,-12,-3,-1,1,-1,-1,-2,-3
1532222820491,-3,-1,2,-1,-2,0,-2,0
1532222820496,4,0,-2,-3,1,0,-2,0
1532222820501,-1,0,-1,3,1,-3,0,-2
1532222820506,4,1,-1,-2,-1,2,0,2
1532222820511,-2,0,-3,-2,0,2,-1,0
1532222820516,0,0,0,-1,-1,-5,-2,2
1532222820521,1,-1,-2,-2,-1,-2,-2,0
1532222820526,6,-2,-2,-1,-1,-1,0,2
1532222820531,-12,1,-1,1,-3,0,-2,-2
1532222820536,0,-1,-2,-2,-4,-3,1,-4
1532222820541,-1,-1,-1,0,-1,0,0,0
1532222820546,1,-3,0,1,0,-3,0,-1
1532222820551,2,-2,-2,0,0,0,1,-1
1532222820556,-6,0,-1,0,0,1,0,1
1532222820561,2,-1,1,-2,-3,-2,0,-1
1532222820566,-7,-3,-2,-1,-1,0,0,-4
1532222820571,-4,-4,-2,0,0,0,1,0
1532222820576,0,-1,-3,0,0,-2,-3,1
1532222820581,-2,-3,-2,-1,-1,1,-2,-2
1532222820586,7,3,0,1,0,-1,0,7
1532222820591,2,-2,-3,-3,-1,0,-1,-4
1532222820596,-6,-1,0,1,0,-2,0,-3
1532222820601,1,-2,-3,-4,-4,-10,-3,1
1532222820606,-1,1,3,-1,1,4,-1,0
1532222820611,3,1,2,-1,1,0,1,1
1532222820616,-2,-2,0,1,-1,-2,0,-1
1532222820621,-1,-2,-3,-1,0,4,0,-2
1532222820626,-5,-2,-2,-1,-2,-5,0,-2
1532222820631,-1,-2,0,0,-7,-8,-4,0
1532222820636,10,-1,-2,-2,4,2,-1,1
1532222820641,-10,0,1,-1,-4,-1,0,-3
1532222820646,-4,0,-1,-1,4,6,-2,-3
1532222820651,1,1,-1,-3,1,-2,0,1
1532222820656,5,2,1,0,-4,-6,0,2
1532222820661,1,-5,-6,-2,5,6,0,1
1532222820666,3,2,2,-3,-3,-2,-1,-1
1532222820671,-8,-2,-2,0,-1,2,2,-3
1532222820676,0,-2,-2,-1,-5,-3,-1,-1
1532222820681,0,4,3,-2,3,-1,0,-1
1532222820686,0,-2,-3,-1,-2,-2,-1,0
1532222820691,1,0,-3,-1,-1,-1,-2,2
1532222820696,7,2,2,3,0,-9,0,0
1532222820701,-18,-1,1,-2,-2,6,-1,-4
1532222820706,5,-2,-4,-1,-4,-4,-2,-3
1532222820711,-3,-1,-1,-1,0,-1,0,3
1532222820716,-4,-4,-5,0,-2,1,-5,-5
1532222820721,9,2,0,-1,-1,-4,3,1
1532222820726,4,0,1,0,-1,-5,0,4
1532222820731,-21,-2,0,0,-1,2,-2,-2
1532222820736,2,-1,-1,-1,-2,1,-1,-2
1532222820741,-2,-3,-1,1,-1,-1,-2,0
1532222820746,5,-2,-5,-2,-1,-1,-2,-1
1532222820751,8,0,2,-1,-1,0,0,2
1532222820756,-12,0,0,-1,1,4,0,0
1532222820761,8,2,-1,0,0,-3,-2,-4
1532222820766,6,-1,-1,-2,-2,-1,2,0
1532222820771,-9,0,0,0,-1,-2,-1,-3
1532222820776,4,0,0,-5,-3,-1,1,2
1532222820781,2,-2,0,3,1,1,0,-3
1532222820786,-10,-1,0,-1,0,-3,-1,-3
1532222820791,9,-1,-5,1,1,0,-1,-1
1532222820796,0,-2,-2,-2,-1,1,-1,-2
1532222820801,-5,1,-1,-3,-1,-3,0,4
1532222820806,-3,-3,-1,1,1,1,-2,-1
1532222820811,2,1,1,-2,0,0,0,-4
1532222820816,-5,-1,-1,1,0,0,0,0
1532222820821,5,-1,-4,-3,0,1,-3,-1
1532222820826,-11,2,2,-3,-1,4,1,-3
1532222820831,5,-2,-2,-3,-1,-1,2,1
1532222820836,-1,1,-1,1,1,0,0,0
1532222820841,-1,-1,-1,-4,-1,-5,-1,0
1532222820846,7,-1,-1,4,2,0,-2,6
1532222820851,2,0,-1,-1,0,-1,-2,-4
1532222820856,-7,2,1,-1,0,0,-1,-2
1532222820861,3,0,1,-1,0,1,0,-1
1532222820866,-6,-2,-1,-2,0,0,1,0
1532222820871,6,-1,-1,-1,0,-1,-1,2
1532222820876,-14,-5,-5,0,-1,-1,-2,1
1532222820881,-5,1,-2,-1,-3,-1,0,-7
1532222820886,2,0,4,-1,0,0,-2,-3
1532222820891,0,-1,-1,0,0,-2,-2,0
1532222820896,8,2,3,-3,1,2,2,3
1532222820901,-11,-1,-3,-1,-2,-2,0,-1
1532222820906,1,-3,-2,2,-1,-3,0,-3
1532222820911,-1,-1,-3,-2,-1,-1,0,-2
1532222820916,10,0,-1,-1,-1,-1,-1,4
1532222820921,-8,-2,-1,0,-1,0,0,1
1532222820926,2,0,-2,-3,-1,-3,-1,-2
1532222820931,-10,-2,-1,0,1,1,-1,3
1532222820936,12,-2,-2,-3,-2,0,-1,-1
1532222820941,2,1,3,-1,-1,1,-1,1
1532222820946,-5,-4,-4,0,-1,-4,-5,-6
1532222820951,13,2,-4,0,0,1,1,-1
1532222820956,6,0,7,0,-1,0,1,7
1532222820961,-29,-3,2,-1,0,-2,-2,-8
1532222820966,2,1,0,-2,-3,-3,-3,-17
1532222820971,-5,-1,-5,-1,-1,1,1,1
1532222820976,0,3,-4,0,-2,-2,-1,-4
1532222820981,20,-3,1,0,0,-1,-1,8
1532222820986,-8,14,1,-2,2,2,2,6
1532222820991,-8,-24,-1,5,0,-3,-4,-9
1532222820996,2,-18,-9,-8,-1,-2,-1,-2
1532222821001,4,10,9,5,0,-1,-2,2
1532222821006,3,-9,-1,-4,-1,-1,-1,7
1532222821011,2,16,9,0,-1,-1,1,-3
1532222821016,-17,0,-5,-2,0,-1,1,-3
1532222821021,3,-25,-5,-4,-1,-1,0,5
1532222821026,1,8,4,5,-1,0,-1,-7
1532222821031,5,29,2,-1,-3,-3,-3,0
1532222821036,-24,-38,-3,1,0,0,0,-3
1532222821041,23,17,-4,-6,-2,-5,-4,-8
1532222821046,4,13,0,0,1,-2,3,11
1532222821051,12,-3,-3,-2,2,9,0,3
1532222821056,-24,37,8,3,-3,-2,0,-13
1532222821061,-23,-36,-7,1,-1,1,3,6
1532222821066,1,12,-4,-6,-2,-2,-2,-10
1532222821071,20,-7,-3,-1,-2,-2,0,4
1532222821076,6,30,1,-5,0,0,0,4
1532222821081,3,-6,12,5,-1,1,-3,-5
1532222821086,2,19,3,0,0,0,2,6
1532222821091,-16,-38,12,1,1,1,3,5
1532222821096,8,-3,-34,-6,-3,-3,-3,-10
1532222821101,2,-12,-7,-2,0,-3,0,-2
1532222821106,-3,0,2,0,-1,1,-2,0
1532222821111,7,28,6,1,1,1,0,3
1532222821116,1,-22,3,3,0,0,-1,8
1532222821121,2,15,-3,1,2,0,0,-5
1532222821126,1,0,9,0,-3,0,-4,-7
1532222821131,-14,-8,-9,-4,-1,-2,1,-2
1532222821136,4,-6,3,1,-2,-2,1,-1
1532222821141,9,11,3,7,-5,-2,-1,5
1532222821146,-2,-15,-3,-1,8,5,0,8
1532222821151,-4,23,1,-2,-1,-5,-4,-3
1532222821156,-1,-51,-7,-2,-4,-1,-4,-10
1532222821161,-4,27,0,-4,0,-1,1,1
1532222821166,-6,-13,-7,-1,-4,-3,-6,-4
1532222821171,-2,-14,1,-3,-1,0,-1,10
1532222821176,-2,12,4,3,3,-5,-6,-10
1532222821181,-4,11,0,-4,0,0,-1,-4
1532222821186,-12,-47,-17,-4,-5,-1,-2,-2
1532222821191,4,11,-5,-4,-1,0,-1,-2
1532222821196,4,-2,4,0,-1,1,0,6
1532222821201,-7,10,2,1,1,0,-1,-1
1532222821206,12,21,9,2,-1,2,3,2
1532222821211,-7,-13,-8,-5,-3,-2,1,-3
1532222821216,-1,9,9,7,-1,2,0,-1
1532222821221,-4,-1,-7,-1,-1,1,1,0
1532222821226,3,-5,4,-1,-2,-3,0,1
1532222821231,2,1,-1,-3,-2,-2,-5,-3
1532222821236,-6,14,-6,-2,0,0,1,-2
1532222821241,1,-18,-4,-5,-2,-1,-1,-4
1532222821246,-3,0,6,2,0,1,0,1
1532222821251,-1,12,2,2,0,-3,-2,-5
1532222821256,10,0,1,-1,2,2,3,8
1532222821261,1,-3,0,0,-1,-2,-2,2
1532222821266,-8,-1,-7,-1,-1,1,3,-1
1532222821271,-2,-11,-1,0,-2,2,-2,-1
1532222821276,0,-15,2,2,0,-3,-4,-1
1532222821281,-7,-9,-13,-5,-1,0,0,-4
1532222821286,16,5,-2,-2,0,-2,-4,0
1532222821291,-18,4,1,4,3,-6,-1,-1
1532222821296,2,7,2,-3,0,3,6,5
1532222821301,0,4,0,-2,-2,-4,-8,-9
1532222821306,1,6,2,2,0,-3,-2,-1
1532222821311,-4,-6,-4,-2,-3,-1,-1,-3
1532222821316,5,10,3,-2,0,-1,-1,3
1532222821321,-2,-1,4,3,1,0,1,5
1532222821326,-2,-6,-5,-3,-3,-3,-1,-6
1532222821331,0,4,-1,0,0,1,1,-6
1532222821336,-2,-3,10,3,0,0,-1,0
1532222821341,4,-1,-2,-2,-3,1,1,1
1532222821346,0,-6,-5,-1,0,-3,0,0
1532222821351,-13,-6,-1,0,-1,1,1,0
1532222821356,2,5,1,-4,-2,-2,-4,-5
1532222821361,8,-1,2,3,-1,-1,-1,-1
1532222821366,-5,1,-2,-2,0,-1,1,-1
1532222821371,9,-9,-5,3,1,0,-1,1
1532222821376,-4,21,4,-1,1,-2,-1,0
1532222821381,-8,-10,1,-1,-2,1,-3,-4
1532222821386,-6,-12,-5,-2,1,0,0,1
1532222821391,1,-6,-2,-3,0,-1,-2,-2
1532222821396,3,4,-1,0,-1,-1,-1,0
1532222821401,4,1,-1,-2,1,0,0,3
1532222821406,-2,0,1,3,-1,-1,-1,1
1532222821411,-3,14,0,0,-2,-1,-2,0
1532222821416,-1,-23,2,-2,-1,-1,-5,-2
1532222821421,8,6,-1,-1,1,0,1,0
1532222821426,-6,-3,-3,-2,-4,0,-1,-1
1532222821431,2,-1,0,-1,-2,-1,-2,-3
1532222821436,1,4,-4,-2,-2,-2,1,0
1532222821441,-2,0,2,0,0,-1,-3,-2
1532222821446,1,-3,2,2,2,-1,1,2
1532222821451,7,-1,0,1,0,-2,0,-1
1532222821456,-12,-2,-5,-3,-1,0,-1,2
1532222821461,-1,-6,-4,-3,-2,-2,-1,-5
1532222821466,0,1,1,-2,-1,0,0,0
1532222821471,8,-3,-1,-2,-1,0,-1,0
1532222821476,-10,-2,1,0,-1,-2,-3,-1
1532222821481,1,11,0,0,1,-1,1,1
1532222821486,7,22,0,0,1,1,0,-1
1532222821491,-7,-52,-2,0,0,1,1,0
1532222821496,6,18,-5,-2,-2,-2,-2,1
1532222821501,3,-3,0,0,-1,-2,-1,2
1532222821506,1,8,-1,-2,-1,1,-2,-2
1532222821511,-2,10,1,1,-1,0,0,-1
1532222821516,-2,-5,-5,-2,-1,1,1,-4
1532222821521,-1,1,5,4,2,0,0,1
1532222821526,-12,-4,-3,-2,-1,-1,0,-4
1532222821531,12,6,-1,-2,0,0,-2,3
1532222821536,-13,-5,-3,-4,-4,-3,-2,-7
1532222821541,5,1,-2,-2,-1,0,1,0
1532222821546,-9,-13,-3,0,-2,-2,-1,0
1532222821551,-4,3,-1,-3,-1,-1,-1,-1
1532222821556,8,3,-1,0,1,-2,0,1
1532222821561,-6,3,5,0,-2,2,0,2
1532222821566,6,-20,-3,-3,-2,0,-3,0
1532222821571,-1,3,0,0,0,-2,0,-1
1532222821576,7,1,-3,1,0,-3,0,0
1532222821581,-1,-1,-2,-1,-1,-2,-1,1
1532222821586,7,11,3,-1,0,1,-1,0
1532222821591,-7,-9,-1,0,0,0,1,-2
1532222821596,-3,7,-1,0,-1,1,0,-6
1532222821601,8,21,2,-2,-1,-2,-2,0
1532222821606,-22,-35,-4,1,0,-1,-2,-4
1532222821611,17,11,-3,0,-1,-1,-2,3
1532222821616,2,-16,-5,-1,-1,-2,0,0
1532222821621,-10,20,8,0,1,0,0,-5
1532222821626,5,-16,-6,-4,-2,-2,0,0
1532222821631,-12,0,1,1,0,-1,-3,-5
1532222821636,4,-5,-2,-1,0,0,1,3
1532222821641,-1,-7,-6,-2,0,-1,0,0
1532222821646,2,9,3,0,-1,0,2,0
1532222821651,0,-4,0,2,-1,1,-1,-1
1532222821656,-1,3,2,-1,-3,1,-1,-2
1532222821661,-2,-14,-8,-4,-2,-1,-1,-2
1532222821666,6,8,0,0,1,1,0,3
1532222821671,-15,-1,-4,-3,-2,-2,-2,-3
1532222821676,5,1,2,5,1,-1,-1,-1
1532222821681,-2,-12,-3,0,-1,1,-1,-1
1532222821686,-7,2,-4,-1,-1,-1,-1,-1
1532222821691,9,6,1,-3,0,-2,-1,0
1532222821696,-6,-5,1,0,-1,0,-3,-2
1532222821701,-2,-9,-3,-2,-1,-1,-2,-1
1532222821706,8,7,1,4,0,-2,-1,0
1532222821711,-7,1,0,0,0,1,1,0
1532222821716,-5,-5,0,-3,0,-1,-1,1
1532222821721,2,-2,-4,0,-2,-3,-2,-2
1532222821726,0,8,-1,-1,-1,-1,0,0
1532222821731,-5,-5,-2,-1,-2,-1,-1,-2
1532222821736,4,2,1,0,-1,-1,1,1
1532222821741,0,0,0,-1,0,1,0,-1
1532222821746,-3,0,2,0,0,-1,-2,-1
1532222821751,2,3,0,2,-2,-2,-1,-1
1532222821756,7,2,1,-2,-2,-1,-1,6
1532222821761,-9,-7,-4,0,0,-1,0,-4
1532222821766,-3,2,3,0,-2,-2,-2,-6
1532222821771,4,3,1,-2,-1,-1,0,0
1532222821776,0,-2,-2,1,0,1,-1,-2
1532222821781,-2,-1,-1,0,-2,-2,0,1
1532222821786,0,-2,-2,-1,0,2,1,3
1532222821791,-3,-2,-1,-3,-2,-2,-3,-3
1532222821796,5,-1,3,-1,-1,-2,1,0
1532222821801,-6,-3,0,-1,1,2,-2,1
1532222821806,9,1,-2,-1,-1,-1,-1,-1
1532222821811,-10,3,0,-1,1,0,1,0
1532222821816,-9,-3,-3,-1,-1,-2,-1,-5
1532222821821,4,-3,-1,-2,-1,-2,0,0
1532222821826,-4,0,0,0,-1,-1,-1,-2
1532222821831,5,-1,-1,-1,0,0,0,1
1532222821836,0,2,-3,-2,1,1,-1,-1
1532222821841,-2,-3,2,2,-2,-1,-2,-2
1532222821846,-8,-1,0,-2,-1,0,1,2
1532222821851,3,-2,-2,1,-2,-2,-2,-1
1532222821856,1,1,1,-1,-1,0,0,-2
1532222821861,-1,1,2,0,0,1,-1,-3
1532222821866,-4,-2,-2,-4,0,-2,-3,1
1532222821871,5,-2,0,1,0,-2,0,2
1532222821876,-7,1,0,0,-2,-1,-1,-2
1532222821881,5,-2,-1,-1,-1,-1,-1,0
1532222821886,0,-1,-1,0,-1,-2,-2,-3
1532222821891,-6,1,0,-1,-1,0,0,-1
1532222821896,1,-4,-2,-1,0,-1,-2,1
1532222821901,-6,-1,-3,-1,1,-2,0,0
1532222821906,15,2,2,-2,-1,1,1,0
1532222821911,-30,-2,0,4,1,2,2,-2
1532222821916,15,-3,1,1,-2,-2,-3,1
1532222821921,-2,-2,-2,-2,-2,0,-2,-1
1532222821926,1,-3,-2,1,-2,-1,-1,-1
1532222821931,6,2,-1,-4,-1,1,1,1
1532222821936,-10,1,2,0,1,1,1,3
1532222821941,-6,-2,1,-1,-3,-2,-1,-6
1532222821946,2,0,-2,-2,-3,0,-2,0
1532222821951,1,-1,-4,0,0,-1,-1,-4
1532222821956,-3,1,-1,-2,1,0,0,1
1532222821961,6,-3,0,-2,-1,0,-1,1
1532222821966,-5,-2,-1,0,0,0,1,-3
1532222821971,-9,-3,-2,-2,-2,-1,-1,-4
1532222821976,6,-1,-3,-1,0,0,-1,0
1532222821981,0,1,0,-1,0,-2,2,0
1532222821986,-5,-3,-3,-2,-3,-4,-2,-4
1532222821991,8,-2,-2,0,-1,0,0,1
1532222821996,0,0,-1,-3,0,1,-1,-2
1532222822001,-3,3,7,3,2,0,-2,3
1532222822006,-11,-1,-1,1,2,-1,-2,-2
1532222822011,12,0,2,-1,-1,-1,-2,3
1532222822016,3,-3,-8,-2,-2,-2,1,-10
1532222822021,-6,2,4,-2,-1,-1,-1,-2
1532222822026,-3,-1,-1,-3,-2,-1,-1,-2
1532222822031,0,1,-1,-3,0,-2,0,2
1532222822036,-1,-7,-4,-1,-1,0,1,1
1532222822041,3,22,-3,0,1,1,0,1
1532222822046,4,-15,6,4,0,0,1,1
1532222822051,5,7,-5,-4,-4,-1,-3,-4
1532222822056,-26,-7,2,0,-1,0,-3,-2
1532222822061,4,-11,-10,-6,-3,-2,-1,0
1532222822066,-1,17,3,1,0,0,0,-1
1532222822071,2,-1,4,1,-1,-2,-2,0
1532222822076,6,0,-5,-1,-1,-1,-1,3
1532222822081,-15,-6,-6,-4,-1,-3,-1,-2
1532222822086,-1,1,7,0,0,0,1,-3
1532222822091,5,1,-14,-4,-2,-3,-2,-3
1532222822096,3,4,13,5,0,-2,-1,-2
1532222822101,-11,-5,-9,-1,-1,0,0,0
1532222822106,5,-8,-4,2,1,-1,0,2
1532222822111,-3,4,3,0,1,1,1,-1
1532222822116,-9,0,1,-1,-2,-3,-2,-3
1532222822121,7,-10,-10,2,0,-1,-1,2
1532222822126,1,-3,23,-1,-1,-2,0,-1
1532222822131,4,-2,-4,-3,-1,2,-1,1
1532222822136,-1,-1,-22,2,0,-1,1,1
1532222822141,8,18,7,0,-5,-3,-3,-2
1532222822146,0,24,34,3,2,1,1,1
1532222822151,2,-31,-26,-1,-2,-2,-3,1
1532222822156,-20,0,-1,-5,-3,-3,-1,-4
1532222822161,24,-13,2,5,0,-1,0,0
1532222822166,-2,18,-15,-4,-1,-1,0,-2
1532222822171,-2,15,23,3,3,2,5,5
1532222822176,3,0,6,1,2,0,0,-1
1532222822181,-10,-10,-32,-8,-3,-2,-3,-2
1532222822186,1,-12,-7,8,2,-1,-3,1
1532222822191,-3,3,-1,-5,-2,-4,0,-5
1532222822196,1,-3,5,-2,2,-1,1,2
1532222822201,0,24,15,-1,0,1,2,-1
1532222822206,0,-42,-18,-7,-5,-2,-3,0
1532222822211,-15,5,-10,4,1,2,-1,-6
1532222822216,-1,12,12,2,-2,-3,-4,2
1532222822221,8,-14,19,-1,2,1,0,1
1532222822226,-9,28,-42,2,1,0,0,-1
1532222822231,0,-5,8,2,-2,-4,-4,-4
1532222822236,-4,2,-11,-7,0,0,-2,-2
1532222822241,-12,-6,-22,-3,-1,-3,1,-2
1532222822246,1,1,14,-2,-2,-3,-1,0
1532222822251,11,-9,11,4,4,4,3,3
1532222822256,-14,-25,4,4,0,0,-1,-8
1532222822261,-2,2,-21,-1,-1,1,0,0
1532222822266,0,9,5,-4,-3,-2,-1,-1
1532222822271,-6,-3,-22,-2,1,1,-2,-4
1532222822276,11,-36,4,1,0,1,-1,3
1532222822281,2,3,22,2,-1,0,-1,-1
1532222822286,-7,30,8,-5,-1,-1,-2,-1
1532222822291,17,52,10,0,-2,-2,2,6
1532222822296,-7,-62,-8,2,2,1,2,2
1532222822301,14,-1,-11,-5,-4,-4,-3,4
1532222822306,-29,-8,4,1,5,10,0,-4
1532222822311,11,23,52,1,-7,0,-1,-7
1532222822316,10,62,-51,-2,-4,8,2,0
1532222822321,-11,-26,15,-2,2,-20,-10,-4
1532222822326,-2,-30,-15,1,9,13,4,6
1532222822331,3,56,19,2,0,3,-2,-3
1532222822336,0,-59,-23,3,0,1,-1,1
1532222822341,0,-21,5,-9,-22,-40,3,-3
1532222822346,12,-39,-7,-6,6,7,-11,-8
1532222822351,-23,0,-14,-9,-5,-38,-6,-7
1532222822356,25,-9,5,2,17,58,-5,11
1532222822361,-12,10,-8,10,7,16,1,-7
1532222822366,3,37,-4,-3,-11,-21,0,-4
1532222822371,-3,-47,-11,-5,-11,-16,-4,-3
1532222822376,0,29,13,-8,-9,-22,-2,-3
1532222822381,4,73,21,5,6,7,1,8
1532222822386,12,-37,17,6,-2,13,2,1
1532222822391,17,55,-27,-4,4,21,-3,9
1532222822396,-59,-38,-15,-4,-2,-14,2,-8
1532222822401,15,1,17,-4,-2,16,-8,-17
1532222822406,14,74,-3,3,-1,-14,7,9
1532222822411,-12,-103,-19,-7,-1,1,-4,-5
1532222822416,11,43,31,8,1,-4,1,2
1532222822421,-3,36,4,4,-3,-7,4,6
1532222822426,-16,-33,-30,-4,5,21,-1,-7
1532222822431,-5,-92,-14,-3,-5,-26,-6,-1
1532222822436,2,-52,7,-4,1,6,1,-2
1532222822441,17,80,73,18,12,20,2,2
1532222822446,-8,-106,-75,-6,-8,-6,3,3
1532222822451,-16,62,9,-14,-3,22,-19,-4
1532222822456,15,53,18,-5,-7,-25,1,0
1532222822461,-17,-91,-31,-6,-2,-7,-1,1
1532222822466,27,35,63,16,8,13,6,9
1532222822471,1,-57,4,8,-3,-44,8,1
1532222822476,4,-20,-21,-17,-3,29,-4,-4
1532222822481,-48,32,-9,-2,5,2,-6,-13
1532222822486,18,92,20,0,-7,-9,-3,-8
1532222822491,4,-5,-4,2,4,4,7,8
1532222822496,9,75,-24,4,-7,-17,-6,-7
1532222822501,4,-20,21,1,4,13,6,5
1532222822506,27,0,-46,-14,-3,-16,0,21
1532222822511,-58,55,19,3,0,5,1,-17
1532222822516,-11,51,11,2,-2,-4,-2,-21
1532222822521,-4,-6,-2,3,-1,-5,0,0
1532222822526,-10,22,-28,-4,-5,-9,-1,-3
1532222822531,49,-10,36,13,7,23,6,17
1532222822536,-18,-25,-33,-18,-8,-20,-9,0
1532222822541,-4,10,5,-3,-3,6,1,3
1532222822546,19,-17,11,-2,3,1,-1,0
1532222822551,-47,-8,-26,-3,0,11,-1,-18
1532222822556,23,1,47,5,-4,-13,2,4
1532222822561,38,-28,-23,-9,-5,-10,-3,-1
1532222822566,-57,-8,8,-1,1,3,-5,-1
1532222822571,-35,30,-24,1,0,5,5,-22
1532222822576,-5,-2,22,1,-1,-9,1,-1
1532222822581,20,-25,-41,-8,-2,24,1,8
1532222822586,9,-5,23,6,8,-12,-2,4
1532222822591,12,-13,-8,-3,-4,-10,-3,4
1532222822596,5,3,5,4,5,9,1,4
1532222822601,-3,-23,23,0,-4,-4,3,2
1532222822606,9,-21,-31,-4,-2,-3,-2,-7
1532222822611,-7,5,13,1,1,21,-2,6
1532222822616,10,-6,10,4,5,-2,2,3
1532222822621,0,-27,-14,-4,-2,12,-1,-7
1532222822626,-10,-2,23,1,-6,-3,0,-7
1532222822631,29,-5,6,2,3,-12,1,9
1532222822636,-14,-9,-17,2,3,5,1,3
1532222822641,-11,-3,-2,-7,-2,-1,-3,-7
1532222822646,9,-8,8,2,-3,-12,-3,4
1532222822651,4,2,-10,0,2,6,2,6
1532222822656,-17,-13,8,-2,-1,-1,-4,-13
1532222822661,2,-2,-2,3,-1,-14,-3,0
1532222822666,20,-34,9,-9,-2,6,1,1
1532222822671,-31,3,8,2,2,0,0,-1
1532222822676,12,15,-25,-1,-2,3,1,-2
1532222822681,-3,16,-1,-3,-2,-10,-5,-1
1532222822686,-4,-3,7,-1,-3,5,0,-2
1532222822691,28,12,9,-1,0,5,0,2
1532222822696,-6,6,26,7,2,-6,1,0
1532222822701,-12,-23,-43,-10,-2,-4,-5,2
1532222822706,-24,40,3,-5,-4,-16,-1,-15
1532222822711,28,7,3,6,2,8,-4,2
1532222822716,-3,25,2,-1,1,12,3,4
1532222822721,8,16,2,-1,1,-4,-1,6
1532222822726,-4,-2,3,0,0,3,-3,0
1532222822731,1,12,-2,0,-1,-9,0,-10
1532222822736,1,-4,-9,-1,-5,-3,-2,-4
1532222822741,-29,8,-1,3,2,2,0,-8
1532222822746,4,7,9,1,2,1,2,2
1532222822751,11,-4,-19,-6,-3,-3,-3,4
1532222822756,5,2,11,-1,0,1,-1,4
1532222822761,2,2,4,2,-3,-7,-1,-1
1532222822766,-3,20,1,-4,-4,-1,-3,-4
1532222822771,-10,-5,-28,-2,1,3,1,5
1532222822776,1,-6,4,2,0,-2,-1,0
1532222822781,3,19,0,1,-1,14,0,-1
1532222822786,-1,18,5,1,-5,-41,-6,-2
1532222822791,1,-14,3,-2,-2,12,3,0
1532222822796,9,2,-7,0,3,-8,-3,2
1532222822801,9,28,3,1,-2,-37,2,4
1532222822806,-18,-58,-18,-8,6,68,-7,-1
1532222822811,1,16,11,-4,-9,-9,-2,-8
1532222822816,-18,-20,-16,-8,-8,-9,-3,0
1532222822821,8,26,12,2,3,5,1,7
1532222822826,3,1,-3,2,-1,-14,-4,-2
1532222822831,17,-6,1,-4,-4,-13,13,11
1532222822836,-14,-14,16,1,6,18,-10,-1
1532222822841,33,-11,-21,-3,-2,-13,1,11
1532222822846,-29,18,4,3,-1,-2,0,-18
1532222822851,-5,10,-5,-3,1,9,-3,-6
1532222822856,23,7,-23,-1,-1,-11,5,7
1532222822861,-16,-10,14,-4,0,7,-2,-8
1532222822866,19,-27,-1,-2,-3,-8,-2,5
1532222822871,-22,16,9,3,3,6,-2,2
1532222822876,-4,13,-11,-1,-4,-7,-1,-1
1532222822881,11,-6,-2,0,1,4,0,6
1532222822886,20,13,-1,0,-1,9,2,-1
1532222822891,-9,1,1,-2,-3,-17,-5,-9
1532222822896,-33,22,3,0,-5,-56,2,-10
1532222822901,-10,-22,-18,-5,3,87,1,-3
1532222822906,3,9,10,2,-1,-8,0,0
1532222822911,8,6,-3,-2,5,6,-2,6
1532222822916,6,13,9,8,4,-11,-1,2
1532222822921,-2,4,0,-3,-6,-23,0,-6
1532222822926,3,5,-10,-6,-4,-3,0,7
1532222822931,-21,-3,3,2,3,9,0,-9
1532222822936,12,4,5,1,-1,15,-1,-1
1532222822941,-12,-2,-10,5,-2,-18,-3,-10
1532222822946,4,8,2,1,1,10,-6,3
1532222822951,3,-13,6,-1,-4,-19,12,19
1532222822956,9,7,-1,-4,0,24,-9,-20
1532222822961,-8,8,-1,2,0,-14,-9,-3
1532222822966,-9,8,-2,-2,0,-6,3,-1
1532222822971,9,5,8,2,-1,4,-5,10
1532222822976,3,12,1,0,0,3,10,-13
1532222822981,-10,48,-1,-1,0,-8,3,-2
1532222822986,-2,33,-1,-1,-1,3,0,-11
1532222822991,-10,63,-7,-2,2,-3,-4,-1
1532222822996,19,66,-2,-2,-3,15,0,12
1532222823001,-4,39,10,3,1,-13,-4,-4
1532222823006,-4,5,18,-1,-2,-5,2,-5
1532222823011,4,-38,2,1,-3,-5,-8,-4
1532222823016,-1,-53,-5,-4,1,6,-2,3
1532222823021,-3,-47,-5,-1,-1,-3,0,0
1532222823026,-9,-35,-20,-2,-4,-5,0,3
1532222823031,11,-26,6,-4,-2,0,-7,-6
1532222823036,-3,-13,16,4,0,0,2,7
1532222823041,8,-34,-2,0,2,2,5,14
1532222823046,-17,-5,0,2,2,3,5,-13
1532222823051,6,-4,-14,-4,-3,-5,-12,-18
1532222823056,2,-16,-9,-4,-2,-1,1,3
1532222823061,0,0,25,-3,-3,-1,-2,0
1532222823066,-3,2,9,3,0,-5,-6,6
1532222823071,3,-7,-1,1,0,1,2,-7
1532222823076,-1,-9,-14,-4,-3,0,14,27
1532222823081,-4,-15,-11,-2,-3,0,-13,-25
1532222823086,0,5,24,1,-1,-5,-2,-1
1532222823091,-1,2,-2,-2,-3,1,-1,-2
1532222823096,4,-7,-6,-3,4,9,-7,9
1532222823101,-5,2,-4,3,3,-1,8,-16
1532222823106,-1,-7,-13,-2,-1,-1,10,21
1532222823111,1,1,10,2,0,0,0,33
1532222823116,-4,1,16,-1,-2,-10,-11,-26
1532222823121,7,-6,-15,2,3,3,16,17
1532222823126,-5,5,-1,-2,0,2,-3,-28
1532222823131,2,13,5,-3,-3,-2,0,4
1532222823136,0,-27,-11,-2,-1,1,4,20
1532222823141,-13,-24,-9,-6,-7,-10,-16,-41
1532222823146,4,-4,-35,0,0,20,-2,7
1532222823151,-1,4,-5,-1,1,-20,11,5
1532222823156,1,25,11,3,0,3,-6,-6
1532222823161,1,5,-10,-1,-2,-1,0,11
1532222823166,-5,-27,-14,-5,-1,0,-3,-3
1532222823171,2,21,19,1,0,14,-1,-10
1532222823176,1,5,-6,1,0,-2,-3,-7
1532222823181,16,-11,21,1,-2,-4,-2,15
1532222823186,3,9,-4,0,1,-4,6,3
1532222823191,-38,-13,-16,-2,1,6,12,-10
1532222823196,-19,-7,-2,-1,-5,13,-3,-6
1532222823201,3,12,0,-1,-4,-45,-38,-22
1532222823206,12,19,25,-3,-7,-84,9,41
1532222823211,14,-17,-9,0,7,95,-11,-18
1532222823216,-4,8,5,1,-3,-6,9,0
1532222823221,-8,10,3,-6,-1,14,14,0
1532222823226,4,-2,-16,6,3,3,13,14
1532222823231,2,-6,23,0,2,-21,-5,16
1532222823236,14,5,7,0,-1,-10,11,1
1532222823241,-18,1,11,0,-6,18,-27,-7
1532222823246,-12,-1,-36,-4,-5,-18,-10,-13
1532222823251,2,-2,11,3,1,-11,5,-8
1532222823256,6,5,9,1,-1,10,1,7
1532222823261,7,-6,56,-3,-1,8,6,26
1532222823266,-8,9,20,1,6,6,9,-14
1532222823271,-4,5,-5,0,-3,1,-3,-17
1532222823276,5,0,-39,-5,-5,-70,-3,59
1532222823281,2,-8,-4,-4,2,9,-3,-65
1532222823286,-5,24,23,7,2,21,-5,-24
1532222823291,-9,-25,-12,-6,-9,-5,-23,-10
1532222823296,5,-6,-8,1,-1,-9,13,-6
1532222823301,-15,16,9,2,2,-19,9,7
1532222823306,6,-2,-5,3,5,30,-6,5
1532222823311,17,2,-7,2,2,-43,16,14
1532222823316,-22,-8,-6,-3,0,17,-14,-26
1532222823321,2,-4,-42,-2,-4,-14,6,6
1532222823326,4,-4,9,-2,0,24,2,-1
1532222823331,9,12,20,-3,-1,-6,15,25
1532222823336,9,15,7,2,3,22,-4,2
1532222823341,3,-30,-17,-1,-1,14,-1,11
1532222823346,-6,26,6,-3,-9,-23,-3,1
1532222823351,3,-70,5,-3,0,-8,-2,-9
1532222823356,19,15,-55,-8,0,-2,-6,-12
1532222823361,-62,6,1,-1,1,-7,1,0
1532222823366,24,-5,11,2,0,39,-4,2
1532222823371,-8,19,-4,2,-2,-21,-5,-3
1532222823376,2,-10,18,-1,0,8,3,-10
1532222823381,40,9,3,3,0,-48,7,35
1532222823386,-29,-12,-15,-10,4,61,-7,-10
1532222823391,-18,14,-13,2,-4,16,-11,-25
1532222823396,13,-11,7,-1,-5,-12,4,4
1532222823401,-14,14,-5,-2,1,19,6,5
1532222823406,36,-7,5,-1,-1,-25,2,2
1532222823411,-26,4,-8,-2,0,2,0,-8
1532222823416,-23,-17,0,-2,-1,-4,-17,-5
1532222823421,18,14,4,-1,-2,4,1,2
1532222823426,-6,-11,0,3,-5,-51,1,2
1532222823431,25,8,-8,-3,2,29,16,16
1532222823436,-29,-3,6,-3,1,38,-18,-14
1532222823441,12,2,-2,6,7,-18,9,22
1532222823446,-11,-9,-6,-4,-4,-1,-2,-28
1532222823451,6,8,-13,1,0,-24,-3,-1
1532222823456,14,-1,21,-3,-2,-87,-8,-5
1532222823461,0,5,6,-1,0,92,0,-25
1532222823466,-16,-2,-1,2,1,3,-7,6
1532222823471,8,1,-10,-3,0,-11,-3,0
1532222823476,-3,-5,-3,6,3,-1,-2,-2
1532222823481,-11,-1,-3,-3,-4,-24,-6,-5
1532222823486,4,-2,1,-4,-4,-6,0,-3
1532222823491,-2,9,4,0,-1,30,0,-4
1532222823496,-21,-3,-3,1,-2,-33,1,7
1532222823501,18,1,3,0,-2,56,-25,-10
1532222823506,-4,2,-2,1,-2,-4,4,-1
1532222823511,-5,4,0,-2,0,-2,2,-3
1532222823516,4,-10,-8,-6,-6,-13,-12,-7
1532222823521,-2,0,0,4,0,-10,7,9
1532222823526,-7,16,13,0,-5,34,2,-10
1532222823531,5,-4,-8,-1,3,0,-8,9
1532222823536,-5,1,1,-2,-2,-11,7,6
1532222823541,3,-5,-3,-3,-2,-15,0,-3
1532222823546,-7,-4,2,2,2,2,3,0
1532222823551,4,5,-15,-3,-8,-33,0,0
1532222823556,-1,-6,16,-2,0,-15,1,21
1532222823561,-2,10,-10,-2,0,28,-10,31
1532222823566,11,8,20,4,2,3,19,19
1532222823571,-4,-4,4,0,-1,-15,-17,-27
1532222823576,0,8,-14,2,2,22,-6,5
1532222823581,-9,-10,3,0,-2,-57,-4,-4
1532222823586,1,-13,-13,-8,-8,3,-6,-19
1532222823591,5,-2,-1,-6,1,26,-4,13
1532222823596,-8,5,2,9,6,8,8,-12
1532222823601,5,7,-7,0,-1,-9,1,-4
1532222823606,-6,5,-6,0,-1,2,-8,-4
1532222823611,-3,-4,10,-2,-3,-10,6,-2
1532222823616,5,-5,-3,-2,-1,18,-3,-3
1532222823621,6,11,-17,-5,1,-2,-1,-11
1532222823626,-4,-22,1,4,5,-9,6,12
1532222823631,-2,-10,-12,-1,1,7,0,-5
1532222823636,-3,5,36,-1,-4,-4,16,17
1532222823641,0,9,-24,-4,0,18,-15,-8
1532222823646,3,-14,-6,-3,3,-20,0,6
1532222823651,-4,19,-4,2,-1,0,2,-9
1532222823656,6,4,10,3,0,-16,-4,4
1532222823661,-12,-44,7,-1,-5,-13,5,4
1532222823666,3,23,-14,-6,-2,12,-7,-23
1532222823671,9,-4,21,3,2,1,7,17
1532222823676,-23,7,-35,-4,-3,-25,-25,-19
1532222823681,16,5,18,0,-5,-5,9,9
1532222823686,-1,-6,-15,0,-1,-2,-7,-9
1532222823691,-13,-13,-17,1,2,-1,11,11
1532222823696,5,-4,8,-3,-3,3,-7,-3
1532222823701,1,5,6,-1,0,1,-2,0
1532222823706,1,-3,-7,1,3,2,4,11
1532222823711,-2,0,20,0,-4,2,1,-5
1532222823716,4,-14,-27,-2,2,17,1,4
1532222823721,-10,-2,-40,-4,-5,-42,5,-8
1532222823726,10,3,22,1,1,31,10,0
1532222823731,-7,19,14,-3,-7,-44,-19,1
1532222823736,-6,-20,-4,0,5,11,1,-11
1532222823741,3,7,11,0,-4,-7,-2,-1
1532222823746,0,-6,-6,-3,-4,-19,8,-1
1532222823751,1,3,14,4,4,25,23,45
1532222823756,-5,12,-21,-3,-4,2,-2,-25
1532222823761,-2,-16,9,2,1,5,10,-11
1532222823766,-7,1,-39,-8,-6,3,-12,-4
1532222823771,0,3,10,-2,-1,8,3,0
1532222823776,9,3,11,-1,-3,-11,0,11
1532222823781,-8,-7,17,1,-2,-19,9,17
1532222823786,-15,-12,-1,2,2,-20,-12,-2
1532222823791,1,5,-28,-5,5,43,-5,-8
1532222823796,1,10,26,3,-3,0,-3,-6
1532222823801,9,5,17,0,2,9,-2,-9
1532222823806,5,-11,-9,-2,-1,1,7,10
1532222823811,-9,-6,-9,0,0,-20,-5,-6
1532222823816,-7,-6,-3,-6,-6,-9,-8,-5
1532222823821,2,9,8,1,2,11,4,3
1532222823826,-1,-1,5,2,-1,-1,-2,-1
1532222823831,-3,4,1,1,4,7,4,-6
1532222823836,-2,-23,-16,-5,-6,4,-5,1
1532222823841,5,25,-1,-1,0,-10,-9,-7
1532222823846,5,0,7,-1,-2,-5,2,0
1532222823851,-2,12,9,-2,-3,5,-3,-5
1532222823856,-3,-26,2,0,6,-1,4,7
1532222823861,-3,-9,-10,2,1,26,-1,0
1532222823866,0,6,-4,3,3,-9,0,2
1532222823871,5,0,-1,-3,-6,-9,-3,-11
1532222823876,-3,6,-12,-2,-2,-4,6,8
1532222823881,4,-1,25,-3,-1,-32,-7,-5
1532222823886,13,5,12,-1,-6,0,-7,5
1532222823891,-18,-13,-5,0,6,32,3,-6
1532222823896,-20,8,1,4,2,19,2,-8
1532222823901,5,-2,-13,-2,1,-14,-12,-6
1532222823906,8,1,2,-1,-3,11,-6,1
1532222823911,17,-2,-10,-1,-6,-19,2,4
1532222823916,-37,3,6,-2,1,-21,-3,-16
1532222823921,10,14,-1,-2,-4,19,7,0
1532222823926,-7,-29,12,-2,-2,-57,-4,-1
1532222823931,15,-4,-31,-1,5,47,-4,0
1532222823936,8,8,7,-2,-3,-3,4,8
1532222823941,-9,-2,-1,-1,-3,-4,-6,-5
1532222823946,0,1,1,0,3,19,0,2
1532222823951,8,-9,1,2,-1,-21,-1,-1
1532222823956,-18,4,0,0,-1,-5,-5,-2
1532222823961,5,-5,-9,1,-9,-3,0,-4
1532222823966,4,12,2,0,11,40,0,0
1532222823971,-17,-15,0,-2,-5,-10,2,-3
1532222823976,16,-2,-6,-3,-3,2,-4,3
1532222823981,1,4,-2,-1,2,4,4,2
1532222823986,-12,9,9,-2,0,-15,3,-7
1532222823991,-8,8,10,1,0,-18,7,3
1532222823996,13,-2,-6,-3,-4,1,-30,-12
1532222824001,-3,-6,11,-2,-9,-21,1,2
1532222824006,-1,1,-26,-1,3,17,-4,-3
1532222824011,-6,-3,2,-1,1,-5,-2,-4
1532222824016,14,2,2,-3,-5,3,12,8
1532222824021,-8,-3,-5,0,-1,32,3,-1
1532222824026,-5,0,2,0,-3,-30,1,-2
1532222824031,2,3,5,2,-3,-14,-10,-5
1532222824036,2,-1,-4,1,7,41,6,3
1532222824041,-1,-5,1,0,0,-1,-3,-2
1532222824046,-6,1,-1,-4,-4,9,3,-1
1532222824051,0,-2,-2,0,-5,-10,-2,-2
1532222824056,4,1,5,1,0,-18,2,0
1532222824061,-8,-4,-5,-3,3,-9,0,-2
1532222824066,0,-1,-1,1,-5,56,1,2
1532222824071,-1,4,1,0,-1,-17,-4,-3
1532222824076,1,-4,0,-4,-6,-39,-1,-2
1532222824081,-5,1,-1,1,2,-30,-2,0
1532222824086,-5,-2,0,3,11,51,-4,-1
1532222824091,-1,0,-1,1,0,-3,-2,-3
1532222824096,3,3,-3,-1,-1,23,7,3
1532222824101,-2,-3,-5,-5,-2,-5,-1,1
1532222824106,-2,-1,1,-3,-5,-41,-3,-3
1532222824111,0,-3,-1,-5,0,13,-1,-2
1532222824116,0,0,-1,6,4,-4,-1,0
1532222824121,-2,-4,-2,-2,-4,17,-2,-1
1532222824126,-1,3,3,-1,0,-1,1,-1
1532222824131,-1,-1,4,-2,0,5,-2,-1
1532222824136,-2,0,13,10,0,-3,-2,-1
1532222824141,1,10,14,1,-2,-2,-3,-1
1532222824146,-3,3,-7,1,-3,0,2,2
1532222824151,-3,-22,17,-5,1,-3,-1,-2
1532222824156,14,0,-37,-9,-4,-9,2,1
1532222824161,-20,4,0,1,5,16,-2,0
1532222824166,1,-5,1,-7,-7,-19,-7,-7
1532222824171,2,7,5,4,0,-18,-4,-1
1532222824176,-2,-6,1,-1,-1,17,3,0
1532222824181,7,3,-8,-1,3,20,4,1
1532222824186,-2,-14,-5,-1,-2,-17,2,0
1532222824191,14,1,-10,-1,-2,-14,0,1
1532222824196,-10,1,6,-4,0,7,1,-1
1532222824201,-7,-5,-3,3,-1,-10,-3,-13
1532222824206,-10,1,4,3,1,-6,-4,-1
1532222824211,5,4,10,-3,-1,6,-1,1
1532222824216,0,0,-20,-2,0,-2,-1,1
1532222824221,6,-3,3,-3,1,0,-2,1
1532222824226,0,2,2,1,-1,-6,1,0
1532222824231,8,1,-6,0,0,19,-1,0
1532222824236,-26,1,8,-3,-1,-6,0,2
1532222824241,-3,-13,-9,-3,-5,12,-2,-6
1532222824246,3,7,-1,0,1,-14,-3,-1
1532222824251,1,4,-5,-2,-3,-7,-3,0
1532222824256,6,-6,6,-1,2,-5,-2,0
1532222824261,2,1,3,3,3,-9,0,2
1532222824266,6,-1,5,-3,-7,-17,-4,1
1532222824271,-4,0,-11,-1,3,18,2,0
1532222824276,0,0,-1,0,0,0,0,0
1532222824281,-9,-1,5,-1,1,1,-4,-2
1532222824286,6,7,6,1,-1,-2,-2,-1
1532222824291,-10,-3,-4,-2,-3,-14,-3,-5
1532222824296,7,-3,-2,-2,-3,6,-1,-2
1532222824301,5,-3,-5,-4,-8,-53,-1,4
1532222824306,-7,-4,-2,0,6,63,8,-5
1532222824311,-6,-1,-4,0,-4,-19,-10,-1
1532222824316,0,2,3,-2,-1,4,-1,-1
1532222824321,2,1,-2,-2,-2,8,0,1
1532222824326,-2,0,4,1,-6,-60,-3,0
1532222824331,-5,-2,-22,-4,1,40,4,-6
1532222824336,2,5,10,-1,-3,-16,1,-1
1532222824341,0,-4,-7,-1,1,30,3,1
1532222824346,2,-2,1,-1,-1,-11,0,2
1532222824351,-9,4,9,0,-1,-8,0,-5
1532222824356,0,1,-2,-1,-4,-17,-3,-3
1532222824361,2,-1,-3,-2,-3,4,4,0
1532222824366,9,-3,-5,-2,6,29,-6,5
1532222824371,-24,1,2,4,2,-15,8,-2
1532222824376,-4,-4,-5,-1,-3,20,-7,-6
1532222824381,8,0,0,0,0,0,1,-2
1532222824386,1,5,5,-1,-6,-8,0,4
1532222824391,-4,-5,-3,-5,-14,-55,0,0
1532222824396,6,2,7,2,10,49,5,0
1532222824401,-5,-2,-1,1,3,13,-2,-1
1532222824406,8,-3,-4,0,-4,-58,17,-1
1532222824411,-1,2,3,4,27,51,7,12
1532222824416,-1,4,-1,0,-2,-68,-8,1
1532222824421,10,1,0,-1,3,51,1,0
1532222824426,-16,-2,-7,-2,-10,-86,-2,1
1532222824431,2,-7,0,-4,-6,20,1,-7
1532222824436,11,-2,4,-3,-17,-63,9,1
1532222824441,-1,4,0,1,12,36,0,0
1532222824446,-20,-3,-6,-3,-4,28,-4,-2
1532222824451,27,-2,-6,-2,-3,-18,-4,6
1532222824456,-11,1,4,0,1,23,-4,-1
1532222824461,-19,-4,-4,-2,-10,-49,-2,-13
1532222824466,1,-2,1,1,2,39,2,1
1532222824471,-2,6,3,0,1,-1,-6,-2
1532222824476,11,-4,-11,2,0,4,3,2
1532222824481,3,3,6,-2,2,-13,-3,4
1532222824486,-8,4,-2,-2,0,83,-2,-1
1532222824491,9,-4,1,2,-2,-13,-1,0
1532222824496,-8,3,8,3,4,-20,2,0
1532222824501,-7,-6,-8,-3,3,62,5,-2
1532222824506,4,-1,-2,-2,-2,-1,-4,-3
1532222824511,0,8,8,-1,3,-14,-2,-9
1532222824516,-6,-6,-5,-2,2,29,-1,8
1532222824521,1,-3,-1,-2,-14,-90,-3,11
1532222824526,11,-1,1,0,15,69,8,-25
1532222824531,-6,-1,-2,0,-5,23,0,-2
1532222824536,0,0,-2,1,-2,-9,-5,3
1532222824541,-4,-4,-2,-2,-5,-19,-4,-3
1532222824546,6,2,2,0,-2,10,4,4
1532222824551,-1,-2,3,0,3,7,-1,-4
1532222824556,-3,-4,-5,-2,-13,-27,2,-1
1532222824561,0,1,-3,1,14,-16,-4,1
1532222824566,0,-4,1,-1,2,20,10,-1
1532222824571,0,4,3,2,-4,-10,-11,-4
1532222824576,-1,-1,-5,-2,-1,-6,-2,1
1532222824581,1,-4,3,-2,-7,-2,2,2
1532222824586,-2,1,-4,-2,-1,19,1,-4
1532222824591,0,-3,2,0,0,-9,-1,-3
1532222824596,2,1,3,1,2,-8,-2,7
1532222824601,1,1,-1,1,0,22,1,1
1532222824606,7,-3,-4,-1,5,7,-1,0
1532222824611,-18,-5,1,-2,-6,-19,-4,-8
1532222824616,2,3,3,-1,2,-3,0,2
1532222824621,-35,-3,2,0,-4,3,-4,-10
1532222824626,16,-7,-6,-4,-18,-39,-7,4
1532222824631,3,10,3,4,21,49,6,2
1532222824636,-16,3,3,0,-3,-2,-5,-11
1532222824641,12,2,10,1,0,7,2,4
1532222824646,-13,3,-18,-7,-7,-12,-5,-2
1532222824651,10,-11,13,7,-3,-9,1,4
1532222824656,0,-5,-27,-1,2,-17,1,2
1532222824661,6,5,10,-4,-3,61,0,0
1532222824666,10,-3,8,5,7,-18,0,3
1532222824671,-21,0,-6,-1,0,-2,2,-7
1532222824676,-16,1,6,-3,-1,-1,-5,-8
1532222824681,0,-15,-10,2,-5,-31,-2,-4
1532222824686,5,11,8,-3,10,42,3,0
1532222824691,11,2,-18,-2,0,9,0,4
1532222824696,-1,13,16,1,-3,-11,-2,3
1532222824701,3,-2,1,-5,-3,-9,-2,2
1532222824706,2,-9,-8,0,-8,3,8,-1
1532222824711,7,-6,4,3,8,-37,-2,2
1532222824716,-28,4,-6,3,6,22,0,-8
1532222824721,9,-8,-2,-1,-1,-8,0,3
1532222824726,1,1,7,2,0,2,-1,1
1532222824731,9,2,-3,-8,-11,-8,-1,0
1532222824736,14,-9,-3,1,-2,18,4,-3
1532222824741,-13,23,-2,-1,-3,-40,-7,-2
1532222824746,-20,-16,-1,3,7,21,-4,-5
1532222824751,6,5,-1,-5,-3,8,0,2
1532222824756,7,-13,-3,-3,0,9,-4,4
1532222824761,-1,-2,-11,0,-5,-18,2,-1
1532222824766,0,9,6,-6,0,-12,-1,-2
1532222824771,2,2,6,0,-7,26,3,2
1532222824776,-3,-3,-2,5,13,-25,2,5
1532222824781,2,-12,-9,-3,-2,-1,-3,-2
1532222824786,-5,21,9,-1,0,13,-3,-3
1532222824791,-6,-18,-20,-8,-5,-1,1,-3
1532222824796,6,-8,7,-2,-4,3,-3,1
1532222824801,-1,1,12,7,1,-5,1,1
1532222824806,6,41,-5,-2,-1,16,-1,-2
1532222824811,-8,-10,7,0,-2,-17,0,-3
1532222824816,2,-7,-9,-5,-4,-3,-2,-2
1532222824821,4,1,-2,-1,3,3,2,-2
1532222824826,-10,-38,-9,1,-1,-6,0,-3
1532222824831,1,3,4,0,-9,-41,-3,-2
1532222824836,6,4,-5,-2,9,38,1,1
1532222824841,20,8,8,-1,0,18,1,9
1532222824846,4,12,6,4,-6,-25,0,2
1532222824851,-20,5,19,0,16,14,0,-12
1532222824856,3,-17,-26,-4,-10,-26,-5,-4
1532222824861,-1,5,11,0,-6,0,0,1
1532222824866,4,-5,-24,-5,-4,-13,-7,1
1532222824871,13,3,2,-2,9,32,2,9
1532222824876,-2,-8,17,5,-5,-7,1,3
1532222824881,-9,-10,-11,-4,3,3,-2,-4
1532222824886,0,-7,0,0,-5,-9,-4,-1
1532222824891,-11,-3,-9,-1,-7,-4,-3,-3
1532222824896,6,35,19,0,2,1,-1,1
1532222824901,0,0,-10,-1,-1,-2,0,-1
1532222824906,-3,-17,-4,-4,1,-21,0,-3
1532222824911,0,-1,4,7,0,28,4,3
1532222824916,7,-5,-1,-1,-4,23,1,3
1532222824921,-8,7,-19,-3,2,-8,-7,-7
1532222824926,-6,2,6,-3,-3,-13,-14,-8
1532222824931,2,-11,-7,-3,-5,-13,-3,-3
1532222824936,1,-7,-8,1,-9,-19,4,5
1532222824941,-20,-3,18,3,10,14,9,-8
1532222824946,-7,-1,-11,0,3,22,-1,-2
1532222824951,7,9,-7,-3,-20,-108,0,1
1532222824956,-9,7,21,3,21,83,3,9
1532222824961,7,4,-1,-1,0,-5,11,-2
1532222824966,-11,-33,-39,0,4,-7,-4,2
1532222824971,2,26,29,2,2,9,-4,-6
1532222824976,-6,0,8,0,-7,-37,-21,-16
1532222824981,3,26,15,0,-3,-4,-4,2
1532222824986,5,10,55,3,3,20,1,2
1532222824991,3,-22,-39,-3,-2,6,4,5
1532222824996,7,-13,-25,-3,-3,-23,8,1
1532222825001,3,15,24,0,2,23,-2,1
1532222825006,4,-32,-1,0,-6,-12,2,-2
1532222825011,0,6,-4,-2,2,14,-2,1
1532222825016,2,-6,2,-2,-3,-19,1,-3
1532222825021,20,-10,-24,-1,-5,-26,-4,7
1532222825026,-15,24,4,-2,-7,-46,3,-4
1532222825031,0,-21,-5,1,13,67,-5,-8
1532222825036,9,2,-2,-2,-2,18,-7,-1
1532222825041,0,-9,-5,-2,0,-23,-4,6
1532222825046,-55,5,-6,0,1,6,6,-21
1532222825051,-2,-31,2,0,-3,-17,9,4
1532222825056,0,40,-37,-6,-8,-13,-4,-11
1532222825061,15,-5,11,-1,-5,-13,-11,4
1532222825066,7,9,23,6,15,57,9,8
1532222825071,-8,1,-8,-4,-4,-9,-3,-2
1532222825076,5,-21,-7,-1,0,-1,10,5
1532222825081,-16,2,2,-2,-3,-17,-4,-8
1532222825086,16,-1,10,2,-1,-27,-2,0
1532222825091,3,-2,-33,-3,-7,31,-4,1
1532222825096,3,4,18,1,8,2,1,-5
1532222825101,-8,-4,-14,-2,-2,15,4,-4
1532222825106,3,-11,12,-1,-3,-9,8,4
1532222825111,7,35,17,-4,1,39,-13,-6
1532222825116,-9,-13,9,1,-6,-60,-9,0
1532222825121,-11,-7,-9,-1,-4,0,-2,-4
1532222825126,13,3,-10,-1,-1,11,5,4
1532222825131,-4,1,-3,-1,-1,10,0,-6
1532222825136,-5,1,-1,1,-3,12,2,2
1532222825141,-4,-4,1,3,2,14,-2,-3
1532222825146,9,2,-14,-6,-3,-9,-8,3
1532222825151,-1,2,9,1,-5,-80,0,2
1532222825156,-6,3,14,0,3,41,-1,-2
1532222825161,0,-11,-16,-3,-4,-8,2,4
1532222825166,10,5,11,-5,-3,10,-3,1
1532222825171,-4,2,-9,0,2,11,0,-4
1532222825176,-4,3,9,3,1,-14,1,3
1532222825181,6,-9,-12,0,-2,3,1,0
1532222825186,-16,-1,-10,0,-1,2,-5,-5
1532222825191,1,5,16,1,3,4,0,0
1532222825196,11,-4,9,-5,-10,-27,0,2
1532222825201,-3,4,-19,-5,4,12,-2,-2
1532222825206,6,-5,-3,3,3,16,-7,-10
1532222825211,-3,16,5,2,2,-15,14,17
1532222825216,-12,-18,-2,0,-2,48,1,-5
1532222825221,4,-1,7,-2,-5,-37,-4,-5
1532222825226,7,6,-8,-3,-1,0,0,1
1532222825231,1,-1,5,1,-4,-89,-7,-2
1532222825236,0,9,-2,-1,4,47,6,1
1532222825241,-1,-8,-1,-2,-2,16,1,2
1532222825246,-2,2,-2,0,-1,14,-1,0
1532222825251,16,-2,0,-3,-2,-28,-2,2
1532222825256,-12,-8,-4,-1,0,-15,0,1
1532222825261,-3,-7,-1,0,-1,4,-2,-5
1532222825266,23,0,0,0,0,-5,0,5
1532222825271,-56,-4,3,-1,-2,22,-4,-9
1532222825276,32,-1,-9,-4,-4,-26,-5,1
1532222825281,-15,-1,3,-2,1,14,0,-1
1532222825286,7,8,-3,2,-1,-5,-3,1
1532222825291,14,-5,0,-3,-1,18,5,4
1532222825296,-11,-2,-4,0,4,-17,0,-2
1532222825301,-6,-9,3,1,-1,3,-1,-3
1532222825306,-1,-8,-5,-3,-4,-6,-3,0
1532222825311,0,1,0,2,-2,16,-5,-6
1532222825316,-4,0,-3,-2,0,-17,-3,-2
1532222825321,7,9,5,-2,-2,5,3,2
1532222825326,-11,-3,-1,0,0,2,0,0
1532222825331,2,-6,1,-1,1,16,-2,-2
1532222825336,-1,5,-3,0,-5,-9,1,2
1532222825341,0,-7,0,-1,-3,-6,-1,1
1532222825346,-8,-2,-3,-1,1,-4,-4,-2
1532222825351,9,-5,2,-3,-5,-5,0,-1
1532222825356,-5,5,3,3,7,32,1,0
1532222825361,-5,0,-2,1,-2,-3,-2,-1
1532222825366,-7,0,-3,-3,-2,5,-2,-2
1532222825371,6,6,-1,3,1,-8,0,2
1532222825376,0,-8,0,2,-4,-18,-1,0
1532222825381,-2,-9,-4,-2,2,10,0,-4
1532222825386,0,3,-2,-4,-1,-9,1,-1
1532222825391,14,-2,0,2,2,12,-2,0
1532222825396,-20,1,-8,-4,-5,-6,-1,-4
1532222825401,4,6,7,4,0,-2,-3,-2
1532222825406,-6,-8,6,-4,-6,-2,1,-5
1532222825411,-2,-6,-4,1,2,7,-3,-2
1532222825416,9,-1,-1,-2,0,-2,-1,3
1532222825421,-7,6,-6,-1,-1,-7,-4,1
1532222825426,-1,-4,-11,0,-1,-3,-1,-1
1532222825431,-1,4,3,-1,-1,9,-1,-1
1532222825436,1,4,4,0,-4,-13,-3,0
1532222825441,5,-8,-5,3,0,13,4,0
1532222825446,25,7,11,-5,2,-3,3,4
1532222825451,-44,-6,-12,1,0,2,1,-4
1532222825456,15,-3,-2,0,-4,-14,-4,-8
1532222825461,2,5,7,0,-1,4,2,0
1532222825466,1,-1,1,4,0,-2,-2,-1
1532222825471,10,5,4,-3,1,14,-2,2
1532222825476,-10,0,-7,0,-1,-7,-1,0
1532222825481,-3,-6,3,-6,-4,5,-6,-1
1532222825486,-2,1,-2,5,2,6,7,3
1532222825491,3,-2,-1,-3,0,25,1,-1
1532222825496,-7,1,0,-1,0,-6,-4,-1
1532222825501,4,3,0,-2,-1,-17,0,0
1532222825506,-9,-6,-3,-4,-1,-11,0,0
1532222825511,3,-4,4,1,-1,9,1,0
1532222825516,5,-2,0,-1,-1,-10,2,0
1532222825521,-1,0,-6,-1,1,-5,-1,-2
1532222825526,-6,-1,0,1,0,14,-2,-4
1532222825531,3,0,2,-3,-3,-24,-10,-1
1532222825536,5,-3,-1,0,5,9,28,3
1532222825541,5,6,0,1,1,3,11,5
1532222825546,-20,6,-7,-4,-5,5,-6,-8
1532222825551,3,-29,4,-11,-3,-12,-5,-2
1532222825556,-7,7,-3,5,1,0,-5,-7
1532222825561,-3,-25,-3,-3,2,27,-3,-4
1532222825566,11,5,-6,2,0,-20,10,3
1532222825571,2,2,-12,3,0,-4,6,-1
1532222825576,-1,22,24,-5,-5,1,-10,2
1532222825581,0,18,2,1,-1,1,3,-1
1532222825586,-1,-26,10,-2,-3,1,-14,-1
1532222825591,5,9,-10,2,1,-3,2,1
1532222825596,-1,-21,-11,-2,2,9,-1,4
1532222825601,4,20,-5,2,-1,-16,-9,-1
1532222825606,-27,-20,-15,-4,-1,2,5,-8
1532222825611,8,12,12,-2,-3,-4,1,-2
1532222825616,2,43,23,1,1,-5,-10,-1
1532222825621,23,-36,-4,-3,2,4,8,15
1532222825626,-20,16,2,9,3,-5,-3,-1
1532222825631,-18,-17,-17,-3,-4,7,5,-12
1532222825636,-1,-5,-7,-6,-4,19,-20,-5
1532222825641,-2,16,15,1,-1,-14,-2,-3
1532222825646,14,5,-9,-2,1,2,0,5
1532222825651,-6,-22,-1,-2,1,16,-9,-2
1532222825656,2,2,27,0,-2,-11,3,7
1532222825661,11,-12,-39,-2,-1,-4,-4,-1
1532222825666,-27,7,-1,-4,-2,15,1,1
1532222825671,11,12,-4,1,-3,-31,-5,-11
1532222825676,19,-29,-12,-3,0,-11,0,-4
1532222825681,-41,-3,6,-1,-1,4,-3,-8
1532222825686,27,4,0,0,2,-1,1,0
1532222825691,1,17,18,-1,0,5,4,7
1532222825696,-3,9,-8,0,0,1,5,2
1532222825701,-2,-19,-8,-1,-4,-9,-4,-4
1532222825706,6,4,11,1,-1,-1,1,0
1532222825711,-5,8,6,1,3,3,-1,4
1532222825716,-5,-12,-15,-1,-3,-4,-4,-5
1532222825721,-3,5,5,-1,-2,9,8,-2
1532222825726,1,0,-1,0,0,-20,-1,0
1532222825731,8,2,-6,0,-1,-2,-4,1
1532222825736,0,-12,-6,0,-4,-54,5,8
1532222825741,-19,6,11,-3,0,21,7,-4
1532222825746,10,9,3,0,-1,49,-5,-5
1532222825751,-4,-8,-17,2,2,18,2,7
1532222825756,-5,-3,-10,-6,-2,-6,1,-5
1532222825761,6,13,18,2,0,-1,1,9
1532222825766,3,-13,-10,-2,-4,-21,-4,-7
1532222825771,-6,5,5,-4,-4,-14,2,4
1532222825776,-2,-3,-5,0,0,25,-6,-8
1532222825781,8,-6,-5,-1,-2,-25,-3,-2
1532222825786,1,-3,-1,0,1,-2,0,2
1532222825791,2,8,10,0,0,-1,-1,-4
1532222825796,-7,-19,-7,-2,-1,2,8,4
1532222825801,-1,7,1,-2,-2,-18,-19,-10
1532222825806,5,-7,-6,-2,0,1,0,1
1532222825811,-2,6,5,-1,0,6,5,2
1532222825816,2,5,-3,2,3,6,-2,-1
1532222825821,-11,4,1,1,0,-7,2,-2
1532222825826,-2,-17,-2,-2,-1,26,10,0
1532222825831,0,-8,-23,-1,-2,-23,-29,1
1532222825836,-1,14,33,1,-4,-23,11,-6
1532222825841,-3,-3,-21,-5,1,8,-12,-1
1532222825846,1,-6,-5,3,-1,-21,1,2
1532222825851,3,-3,4,0,1,2,0,-7
1532222825856,-16,7,-1,2,-2,-17,6,0
1532222825861,-1,28,5,-3,-1,28,0,-2
1532222825866,0,-19,-2,-4,-1,-22,-5,18
1532222825871,1,-9,24,0,-1,7,1,-38
1532222825876,1,4,-14,-2,-1,8,-9,7
1532222825881,-6,-13,4,1,0,-17,0,-21
1532222825886,7,7,-12,-1,-2,-8,12,14
1532222825891,-3,13,10,-2,-2,9,-16,5
1532222825896,1,-2,21,1,1,14,-1,-3
1532222825901,9,-12,-31,-2,0,4,1,8
1532222825906,-4,11,-5,-2,-4,-3,-1,-7
1532222825911,-7,-11,-11,2,2,0,7,-1
1532222825916,3,-7,-3,-2,0,-3,-6,-8
1532222825921,9,3,7,-1,3,-1,-2,7
1532222825926,-11,1,3,-1,0,3,0,-3
1532222825931,2,4,-1,2,1,-2,9,8
1532222825936,-5,-6,-12,-3,-2,13,-5,2
1532222825941,-4,-20,-4,-2,0,-3,4,-4
1532222825946,3,11,9,0,-1,-3,-8,-9
1532222825951,2,2,4,-1,1,0,5,8
1532222825956,-5,-15,-17,1,0,4,-2,-3
1532222825961,26,11,8,0,-1,-7,1,5
1532222825966,-24,5,12,-1,-1,0,-4,-6
1532222825971,8,-1,-12,-2,-1,-5,0,2
1532222825976,1,-2,-8,0,0,0,0,0
1532222825981,-17,2,8,-1,0,-2,1,-2
1532222825986,18,5,2,1,-2,0,-4,1
1532222825991,-2,-5,-7,-1,1,-1,1,1
1532222825996,7,6,-1,-2,1,18,12,4
1532222826001,0,-13,7,-1,-5,-27,-6,1
1532222826006,2,35,3,-1,-1,13,-6,-14
1532222826011,-6,-17,-5,-1,0,-5,2,12
1532222826016,-1,-17,-8,-1,0,5,0,-2
1532222826021,-2,26,14,-1,-3,1,-3,-1
1532222826026,-1,-3,-2,-2,-3,-8,-2,-4
1532222826031,0,3,2,1,-1,2,2,3
1532222826036,4,9,-4,-3,0,1,-5,2
1532222826041,-3,-9,-9,1,2,3,5,0
1532222826046,-1,-11,-3,-1,0,-11,-5,-3
1532222826051,-2,6,5,-1,-1,2,0,-1
1532222826056,12,-3,-5,0,-2,-6,-1,8
1532222826061,-22,-2,1,2,1,-1,-2,-8
1532222826066,16,13,1,0,-3,2,2,0
1532222826071,4,-13,-4,-1,-2,15,3,1
1532222826076,-29,-15,-2,-2,-2,-21,-6,-11
1532222826081,13,-9,-7,0,-3,1,0,1
1532222826086,-2,1,1,1,1,3,0,2
1532222826091,4,10,-5,0,-1,-2,4,0
1532222826096,1,33,22,-2,-3,2,-6,-3
1532222826101,-2,-9,-1,0,-1,5,1,0
1532222826106,-3,-11,-5,-1,0,-3,-2,-2
1532222826111,-5,-11,-7,0,-1,-7,-2,-5
1532222826116,0,-9,-7,0,1,4,-5,-3
1532222826121,1,5,2,0,-3,-2,5,2
1532222826126,-1,0,3,-2,-2,-7,11,-4
1532222826131,4,3,3,-3,-5,3,-18,1
1532222826136,-5,-5,-6,2,5,10,-3,-3
1532222826141,3,0,-1,-2,-2,4,2,-6
1532222826146,-3,2,1,1,4,25,3,6
1532222826151,-3,3,2,-1,-1,-38,0,-2
1532222826156,11,-11,-7,-2,-1,-3,1,2
1532222826161,-6,14,7,0,-1,4,-7,2
1532222826166,-4,-8,-4,-1,1,-1,-3,-2
1532222826171,-2,7,2,0,0,2,4,-2
1532222826176,-2,-2,-1,0,0,4,-1,1
1532222826181,16,-2,-3,0,2,-3,4,5
1532222826186,-30,1,0,-2,-2,-4,-5,-2
1532222826191,4,-6,-6,-2,-1,2,2,-6
1532222826196,0,-8,-4,-2,-3,-6,1,0
1532222826201,-11,6,2,-1,0,3,-2,3
1532222826206,13,3,1,0,-1,-6,-5,-6
1532222826211,15,-6,-4,0,2,4,0,10
1532222826216,-54,-11,3,1,0,-1,-5,-27
1532222826221,18,8,-4,-3,-3,-4,-1,1
1532222826226,2,-6,-3,-1,-1,-4,-6,3
1532222826231,2,4,1,0,1,6,7,0
1532222826236,19,10,2,0,-1,-2,-1,7
1532222826241,-13,-8,-2,1,-1,0,1,-3
1532222826246,-2,-13,-2,-1,-1,-5,-3,-1
1532222826251,-1,5,1,-1,-1,2,1,1
1532222826256,4,9,2,1,2,2,4,3
1532222826261,-11,-29,-13,-7,-8,-20,-21,-15
1532222826266,3,4,2,-2,-4,14,0,2
1532222826271,-2,-9,-2,1,-4,-1,1,-1
1532222826276,3,5,0,-3,-4,-5,2,3
1532222826281,-2,-7,-1,2,4,7,7,1
1532222826286,4,-6,-3,-1,0,-8,-3,2
1532222826291,-14,3,2,-1,-1,-14,-2,-5
1532222826296,4,-6,-6,-2,0,5,3,1
1532222826301,2,0,1,-3,-6,15,-3,-1
1532222826306,-5,-3,-1,2,4,-1,2,1
1532222826311,-2,1,0,0,1,15,2,-2
1532222826316,6,3,0,-1,1,-18,-7,0
1532222826321,-1,-1,-2,-1,-1,3,1,-1
1532222826326,-2,3,-1,0,-1,-19,-2,-5
1532222826331,-4,-11,-3,-4,-8,-36,18,5
1532222826336,4,-3,-1,-2,5,18,-19,0
1532222826341,-4,7,3,2,4,4,7,5
1532222826346,-1,-3,-1,-2,-2,12,-2,0
1532222826351,-3,4,-1,0,0,-6,1,-3
1532222826356,5,3,0,-2,-2,-2,7,3
1532222826361,-4,-2,0,-1,6,-6,-8,-6
1532222826366,5,-2,-2,-3,-6,-10,3,0
1532222826371,6,8,-1,-2,1,7,-5,-1
1532222826376,-20,-18,-10,0,0,3,-1,-3
1532222826381,1,25,2,-1,0,0,4,-1
1532222826386,8,-19,4,-2,-1,-9,1,2
1532222826391,-7,-7,-1,0,-1,-1,-7,-5
1532222826396,9,3,-1,-1,0,6,17,6
1532222826401,-2,-5,-6,-3,-9,-45,-16,-2
1532222826406,16,10,-1,1,11,58,2,3
1532222826411,-45,1,-3,-1,-2,6,1,-10
1532222826416,9,-11,-3,-1,-4,-3,1,-10
1532222826421,3,-1,-2,-1,0,1,4,4
1532222826426,8,2,-5,-1,-4,-7,-4,6
1532222826431,4,-3,-1,0,6,-4,-3,1
1532222826436,-9,6,-1,-2,-1,8,-4,-5
1532222826441,-1,-4,-1,-2,-2,-8,-1,1
1532222826446,5,7,4,0,-3,-25,0,0
1532222826451,-2,1,0,1,6,53,-1,-1
1532222826456,2,2,4,1,-4,-8,-2,1
1532222826461,4,8,-4,-1,-1,3,-3,-2
1532222826466,-8,-30,0,-3,-5,-14,1,-3
1532222826471,4,-10,-9,-2,-2,-12,-3,-1
1532222826476,2,14,6,0,2,-10,1,1
1532222826481,-1,-7,4,1,2,20,3,-6
1532222826486,-7,5,-3,3,2,9,-8,5
1532222826491,33,6,-3,-1,-6,-10,-2,7
1532222826496,-33,-6,-3,-1,0,-13,-5,-12
1532222826501,-8,-6,-2,-1,-1,-2,4,-3
1532222826506,-4,2,-8,-3,-4,-3,0,-6
1532222826511,7,5,8,-2,-3,-9,-9,-2
1532222826516,24,-5,-4,-2,1,7,3,10
1532222826521,-13,6,0,2,2,0,5,1
1532222826526,-4,6,2,-1,-1,-1,-9,-9
1532222826531,5,-2,3,-1,-3,1,3,1
1532222826536,2,8,0,0,-2,-1,-3,2
1532222826541,4,-7,-1,-1,-2,-30,2,-2
1532222826546,-11,-15,-4,-2,3,37,0,-7
1532222826551,-10,13,7,0,-1,-8,1,-3
1532222826556,-1,8,-6,-1,-3,6,-2,-4
1532222826561,15,-5,-1,-1,-1,-5,-6,2
1532222826566,-8,2,-3,0,1,-13,2,1
1532222826571,-3,-7,-6,-2,0,-1,-7,-8
1532222826576,1,0,1,-1,-1,-3,0,6
1532222826581,5,1,-1,-1,-4,7,3,4
1532222826586,-2,0,0,-3,-5,10,-9,-2
1532222826591,-5,1,0,3,5,-2,5,1
1532222826596,1,1,2,0,-3,-4,-4,-3
1532222826601,3,-4,-1,-1,1,0,-2,0
1532222826606,-3,4,1,0,-1,-3,6,2
1532222826611,0,-7,-4,-2,-2,-6,0,-2
1532222826616,5,3,3,0,-3,-1,-3,0
1532222826621,-9,-7,2,-2,0,0,-4,-4
1532222826626,6,2,1,0,-2,-13,2,-3
1532222826631,-2,5,-4,-2,-2,0,-4,3
1532222826636,-2,-5,0,-1,4,0,0,-1
1532222826641,-4,1,1,-1,-5,9,-1,-1
1532222826646,5,0,-3,-1,-3,-26,-2,-1
1532222826651,2,-2,4,-1,3,48,0,-2
1532222826656,-3,2,1,0,-2,-1,0,-3
1532222826661,4,1,-3,-1,0,-7,0,5
1532222826666,-11,-3,-3,1,3,9,2,-3
1532222826671,4,-2,1,-1,-4,-22,2,-3
1532222826676,-11,-5,-3,-3,-1,4,-13,-5
1532222826681,-10,2,2,-3,-1,11,-3,-12
1532222826686,9,-5,-4,-1,1,-9,0,10
1532222826691,-1,13,6,3,3,4,-2,1
1532222826696,9,-7,-3,-2,-3,1,1,7
1532222826701,0,-4,-2,-1,0,-8,7,5
1532222826706,-5,-1,0,-1,1,13,0,-4
1532222826711,0,-6,-4,-3,-4,-11,0,-5
1532222826716,1,17,0,2,0,1,-1,-3
1532222826721,-1,-16,2,-3,-2,7,2,-2
1532222826726,1,-2,-1,1,-2,-8,1,1
1532222826731,-3,-8,-2,0,2,3,9,3
1532222826736,-6,2,-3,-1,-3,-8,-7,-5
1532222826741,5,7,-1,1,0,-15,-4,1
1532222826746,-8,3,-2,-2,1,38,0,-7
1532222826751,-4,-7,-1,-2,-4,-22,-3,-1
1532222826756,3,-4,2,1,-2,14,4,0
1532222826761,-2,-1,-3,0,-3,18,1,4
1532222826766,0,3,2,-2,-1,-24,-5,1
1532222826771,0,-1,-4,0,-2,-5,0,-2
1532222826776,2,-7,0,0,0,4,3,0
1532222826781,-2,-1,-4,-1,0,5,-4,-3
1532222826786,-1,8,1,-1,-3,-23,-2,-2
1532222826791,1,-2,0,-4,-3,5,1,1
1532222826796,7,-3,1,0,4,21,-2,-1
1532222826801,-6,-5,-1,0,-1,-45,-5,-2
1532222826806,-1,-3,-4,-1,-1,0,-1,-3
1532222826811,0,4,4,-1,0,2,4,2
1532222826816,-1,0,-4,-1,-1,1,2,1
1532222826821,3,-1,4,0,1,9,13,3
1532222826826,1,3,-3,-1,0,5,-7,0
1532222826831,-4,-5,-1,0,-1,-3,-6,-4
1532222826836,0,-6,-3,-1,-3,-23,1,-3
1532222826841,-1,12,4,0,1,24,3,1
1532222826846,4,-2,-2,0,-3,-23,3,-1
1532222826851,-8,-2,-2,1,2,30,-1,-2
1532222826856,-2,0,2,-1,1,-1,1,0
1532222826861,3,-2,-6,-1,1,2,-6,-1
1532222826866,-1,-2,0,0,-3,6,1,0
1532222826871,3,-8,-8,-1,-3,-15,-6,-3
1532222826876,1,4,11,2,1,-1,-1,4
1532222826881,2,6,0,-1,0,2,-9,1
1532222826886,1,1,1,-1,0,3,3,-1
1532222826891,-2,-5,-4,-1,0,-6,-1,-3
1532222826896,-4,-8,-7,-3,-4,-4,-3,-3
1532222826901,3,-2,-3,-1,-4,11,1,-1
1532222826906,0,6,4,0,1,1,2,0
1532222826911,2,-3,-2,0,-2,-1,-12,-2
1532222826916,0,-1,0,0,0,-5,2,-2
1532222826921,-2,-4,-2,-2,-1,4,1,-2
1532222826926,-2,-1,-2,-1,2,7,-2,1
1532222826931,-1,8,0,-1,-1,-7,-2,0
1532222826936,-2,-5,0,-2,-1,-2,-2,-8
1532222826941,-5,0,2,2,-2,-8,1,6
1532222826946,-2,-1,-3,0,-2,-2,2,2
1532222826951,1,3,3,-1,0,4,2,-4
1532222826956,0,-3,-2,-1,-1,-4,-1,7
1532222826961,-3,1,0,0,-1,-3,-4,-5
1532222826966,-3,-7,-2,2,1,-8,6,-1
1532222826971,1,9,7,-1,1,33,1,0
1532222826976,-2,-1,-2,0,-5,-23,-6,-1
1532222826981,-16,-8,-4,0,0,12,2,-6
1532222826986,7,5,1,-2,-3,-2,-5,1
1532222826991,-3,-5,1,1,0,-6,1,0
1532222826996,2,-1,0,1,2,9,6,2
1532222827001,4,2,1,1,1,-10,-5,4
1532222827006,-3,-8,-6,-2,0,12,1,-2
1532222827011,1,2,1,-1,-2,-7,-2,0
1532222827016,-2,6,0,0,0,0,-1,-2
1532222827021,2,-3,-6,-1,-3,-16,-2,-1
1532222827026,0,2,5,-1,-1,-4,-3,1
1532222827031,1,0,5,-1,-1,-7,0,3
1532222827036,-1,0,-4,-1,1,9,0,-1
1532222827041,2,3,0,-2,-1,4,-1,-5
1532222827046,-4,0,-1,-1,2,4,-3,-4
1532222827051,2,7,3,-1,-2,0,0,-2
1532222827056,1,-1,1,-1,-1,0,2,-1
1532222827061,-2,-5,-1,2,-2,-10,-3,0
1532222827066,1,-4,-5,-1,-2,2,1,0
1532222827071,-1,-8,-3,0,1,-1,-5,-1
1532222827076,3,6,-1,-1,0,-1,2,0
1532222827081,-4,2,-3,-2,-1,-6,-3,-2
1532222827086,-4,-9,-2,-1,-3,4,0,-1
1532222827091,1,2,3,0,0,3,-4,-4
1532222827096,4,-8,-5,-1,-2,-1,1,5
1532222827101,-3,3,-3,-1,1,6,5,-5
1532222827106,-5,-1,1,-3,-5,-9,-7,2
1532222827111,-11,-6,-5,-1,1,-1,4,-5
1532222827116,6,14,7,0,-2,1,-4,0
1532222827121,4,-7,-7,0,-1,-8,9,7
1532222827126,5,-6,-2,-1,2,6,1,0
1532222827131,-12,3,-3,-1,-3,-1,-6,-8
1532222827136,2,6,4,0,-3,-5,0,1
1532222827141,0,-3,-2,-1,-1,3,-1,-1
1532222827146,1,1,-1,2,-1,0,5,1
1532222827151,0,-7,-1,-2,0,1,-3,1
1532222827156,-6,3,-6,-1,1,-1,0,-1
1532222827161,1,-7,-1,0,-1,0,-2,-1
1532222827166,-6,-16,-6,-1,0,-1,-3,-5
1532222827171,19,41,20,-1,-1,-6,-4,2
1532222827176,-15,-36,-11,0,1,7,0,0
1532222827181,-9,3,2,-1,1,7,-2,-5
1532222827186,-10,7,1,-2,-2,0,1,-3
1532222827191,-4,-2,-5,0,-1,1,0,-3
1532222827196,34,-2,5,1,0,-5,1,9
1532222827201,-7,-6,-13,1,2,1,-1,21
1532222827206,12,3,8,-1,-2,-1,-6,-19
1532222827211,-30,19,-20,-4,-4,-6,4,-15
1532222827216,11,-40,21,0,0,0,-4,0
1532222827221,7,-11,-4,5,0,1,-1,1
1532222827226,15,44,13,2,1,-1,1,16
1532222827231,38,-21,17,4,5,6,9,36
1532222827236,-44,-2,-43,-6,0,-8,-12,-29
1532222827241,11,-9,-12,-4,-5,0,0,-15
1532222827246,-13,8,23,-2,-5,-26,-6,-2
1532222827251,3,-12,-6,2,-2,-18,-3,-4
1532222827256,3,19,3,-1,3,17,10,9
1532222827261,-4,-13,-31,-1,1,-6,2,-2
1532222827266,5,20,31,1,-1,8,5,6
1532222827271,-9,-24,-30,-4,2,18,-4,-7
1532222827276,8,2,-38,4,1,-17,-1,-3
1532222827281,1,17,20,0,-2,1,-19,-10
1532222827286,-27,-23,-22,-4,-2,2,1,-12
1532222827291,14,26,62,4,0,9,10,13
1532222827296,-15,-5,-58,-18,-8,-3,-13,-7
1532222827301,-50,-2,-12,0,3,-3,0,-18
1532222827306,32,17,16,1,1,4,8,9
1532222827311,-11,-12,26,1,-3,-6,-10,-9
1532222827316,11,-21,-22,5,4,4,10,9
1532222827321,15,69,54,0,-5,-6,-3,8
1532222827326,-4,-38,-17,1,2,-1,-2,2
1532222827331,-14,-34,-34,-4,1,1,4,-5
1532222827336,17,28,54,7,0,-3,12,3
1532222827341,5,-16,-46,-16,-12,-2,-12,4
1532222827346,-15,2,7,0,11,5,-3,-11
1532222827351,7,-7,-40,0,0,1,-6,3
1532222827356,-12,-6,4,5,4,7,7,3
1532222827361,4,-7,20,3,-10,-69,5,-2
1532222827366,11,0,-13,0,2,69,-12,5
1532222827371,-4,13,48,-1,-2,5,2,0
1532222827376,-8,24,10,-5,-5,-4,-8,-4
1532222827381,6,1,-4,0,3,4,1,-1
1532222827386,3,-17,-23,0,-8,-29,1,1
1532222827391,-8,-13,-12,4,2,-4,1,-4
1532222827396,-2,-7,16,3,0,6,-4,-2
1532222827401,11,15,-16,-6,0,4,-1,2
1532222827406,-5,6,21,1,-1,-8,5,-1
1532222827411,1,17,-47,-5,-3,4,-8,-3
1532222827416,-1,-33,17,-3,-4,-10,-5,-2
1532222827421,-6,-4,1,-2,2,13,3,0
1532222827426,-4,-19,-6,0,-2,-7,1,-2
1532222827431,4,10,-18,-1,-1,-9,-3,-2
1532222827436,4,36,35,0,-2,-5,-1,1
1532222827441,0,-8,5,3,5,12,4,2
1532222827446,-2,0,-15,-2,-7,-8,-3,-4
1532222827451,1,8,7,1,2,-3,0,-1
1532222827456,1,9,0,2,2,1,2,2
1532222827461,4,-11,17,7,2,13,-1,1
1532222827466,0,17,-13,-4,-3,-11,0,1
1532222827471,-8,-46,-11,-12,-6,-6,-3,-12
1532222827476,-1,19,22,-19,-2,-1,1,-3
1532222827481,0,-10,-33,17,3,5,0,-1
1532222827486,6,18,0,-3,0,-3,-1,3
1532222827491,6,8,12,-3,0,0,-2,2
1532222827496,-5,-12,3,3,1,4,-3,-2
1532222827501,0,1,7,-7,-1,0,0,-2
1532222827506,-4,-20,-12,-1,0,-2,3,0
1532222827511,-2,4,0,-2,-2,1,-3,-1
1532222827516,0,-6,-13,1,-1,-4,-1,0
1532222827521,0,14,16,-9,2,4,1,1
1532222827526,-7,-40,-14,4,0,-2,-1,-2
1532222827531,7,3,9,-2,1,-1,0,0
1532222827536,-22,-9,-9,-6,-3,-2,-2,-7
1532222827541,-3,-11,6,7,-1,1,2,-3
1532222827546,15,44,13,4,1,0,2,3
1532222827551,-9,10,-13,-5,-4,-3,-4,-1
1532222827556,9,-19,6,-22,-7,-2,3,0
1532222827561,-9,-7,8,32,6,4,-1,-3
1532222827566,-6,5,-5,-4,1,-3,-3,-3
1532222827571,-9,9,-3,-6,-1,0,2,0
1532222827576,11,-14,-19,26,1,0,0,1
1532222827581,-1,3,20,-27,-4,0,-2,0
1532222827586,-2,12,-2,-6,-5,-5,-4,-2
1532222827591,1,-8,10,1,-1,-2,-2,-1
1532222827596,-2,-12,-4,-5,1,1,-2,0
1532222827601,2,4,-9,-1,-3,-1,2,-1
1532222827606,-5,-48,-9,8,-1,0,1,-2
1532222827611,1,25,-7,-28,-4,-2,4,-1
1532222827616,-5,-10,-8,11,2,-2,-7,-2
1532222827621,0,-19,-2,-2,1,1,1,1
1532222827626,-4,1,12,-6,-1,-2,0,0
1532222827631,3,-3,-16,-8,-3,-2,-1,0
1532222827636,6,39,19,3,0,0,2,0
1532222827641,-2,-32,-23,-10,-3,-1,-4,-2
1532222827646,-5,13,3,10,0,-4,-1,-1
1532222827651,7,-19,20,15,6,2,4,2
1532222827656,-1,16,0,-5,-3,-2,0,1
1532222827661,1,5,-1,-9,1,0,-1,-1
1532222827666,2,2,-16,-11,-4,-1,-2,-2
1532222827671,-1,-3,11,12,2,0,-4,1
1532222827676,-1,4,-9,4,3,5,2,1
1532222827681,0,3,48,-8,-4,-1,0,-2
1532222827686,-2,9,-37,0,0,-2,-1,-2
1532222827691,-7,-21,4,5,-2,0,-4,-2
1532222827696,1,5,14,-12,-4,-3,-2,0
1532222827701,1,1,-26,8,2,1,0,1
1532222827706,-2,10,-5,3,-2,-2,0,-3
1532222827711,-2,3,0,5,1,3,-1,-3
1532222827716,0,0,-5,3,-1,-2,-1,-2
1532222827721,5,2,3,2,0,0,0,2
1532222827726,-6,-20,-3,-5,-2,0,-1,-2
1532222827731,2,6,-8,0,-4,-4,1,-2
1532222827736,-2,-8,-8,-3,-1,-1,-1,-2
1532222827741,0,5,-10,-8,-3,-1,-2,0
1532222827746,1,2,13,9,3,0,-1,-2
1532222827751,2,4,4,-7,0,0,0,-1
1532222827756,-3,3,0,0,-2,1,-1,0
1532222827761,-2,-2,-7,-4,-2,-3,-1,-2
1532222827766,-1,3,2,-5,-2,0,1,0
1532222827771,-2,1,2,3,-3,-3,-1,0
1532222827776,1,7,12,8,0,-1,-1,-1
1532222827781,0,0,-6,-10,-3,-2,0,-1
1532222827786,0,-16,1,-1,1,-1,-1,2
1532222827791,0,2,-6,10,4,5,0,0
1532222827796,-2,-5,-13,-7,-1,-2,-2,0
1532222827801,-2,0,2,-1,-2,-2,-1,-1
1532222827806,0,11,5,-4,0,-1,0,-2
1532222827811,1,4,4,13,-1,-3,0,1
1532222827816,-6,-24,-24,-8,-2,-1,-4,-2
1532222827821,0,5,-2,5,1,-2,-2,-2
1532222827826,1,-1,7,-1,1,-1,0,1
1532222827831,0,15,6,-4,-1,-1,0,-1
1532222827836,-1,-6,2,4,1,0,0,-1
1532222827841,-6,-11,-4,4,1,0,0,0
1532222827846,0,13,0,-2,-1,0,-1,1
1532222827851,-1,-2,-4,-7,-4,-3,-2,-1
1532222827856,-1,-31,-2,-4,-1,-2,1,-1
1532222827861,-1,10,-5,-1,-1,0,-3,-2
1532222827866,3,-8,7,5,0,-2,2,0
1532222827871,-1,-5,-5,-2,-1,0,0,-4
1532222827876,2,16,6,-2,-2,-2,-1,-1
1532222827881,-1,-3,-5,-1,0,0,-1,-1
1532222827886,1,-8,-4,-7,-1,0,-2,0
1532222827891,0,2,-3,-4,0,-1,0,1
1532222827896,-3,6,11,6,-2,-2,1,0
1532222827901,2,-3,4,2,-1,-2,-1,-2
1532222827906,-1,2,-4,-2,-1,1,-1,-2
1532222827911,-2,-5,1,-2,-1,-1,-1,-1
1532222827916,-1,2,-5,0,0,1,-3,-1
1532222827921,3,0,1,1,-1,-4,1,2
1532222827926,-1,5,0,-4,-2,-2,-1,0
1532222827931,-3,-5,-3,-1,-1,-2,-1,-1
1532222827936,4,5,3,2,-1,-1,0,2
1532222827941,-2,0,0,1,-1,0,0,-1
1532222827946,3,1,6,0,1,1,3,-1
1532222827951,-2,0,-7,-4,-2,0,-2,-1
1532222827956,0,9,0,-1,0,-2,-4,-3
1532222827961,-1,-1,2,-1,0,-2,2,-3
1532222827966,-3,1,2,-2,-1,-3,-1,1
1532222827971,-1,0,-2,0,0,0,-1,0
1532222827976,0,2,-1,-2,-1,-1,1,-3
1532222827981,2,2,-2,0,-1,-1,-7,12
1532222827986,-3,-3,-4,-1,-2,-3,-1,-24
1532222827991,1,-2,1,1,1,-1,1,3
1532222827996,-2,2,-2,0,1,-1,-1,-3
1532222828001,-4,1,-2,0,1,0,1,-1
1532222828006,-4,-13,-3,1,-1,0,-2,4
1532222828011,-2,4,2,0,-1,-3,-2,-1
1532222828016,0,1,0,-2,-1,-2,-1,-1
1532222828021,0,2,0,0,-1,0,-1,-3
1532222828026,1,-9,-4,-2,-1,-1,0,5
1532222828031,-2,-2,1,1,1,-1,-1,-3
1532222828036,0,2,-3,-2,1,1,-1,4
1532222828041,0,0,-2,-1,-1,0,0,-2
1532222828046,2,-3,0,0,0,0,0,2
1532222828051,2,-1,1,-2,-2,1,0,0
1532222828056,-2,-1,1,2,0,0,-1,-2
1532222828061,-2,4,-3,-1,0,0,1,-1
1532222828066,-2,-2,0,-3,-1,0,-1,1
1532222828071,0,1,-4,0,-1,-2,-1,-2
1532222828076,-4,-5,-2,-1,-2,-2,0,-4
1532222828081,-1,5,-2,-4,-3,-3,-1,-4
1532222828086,0,-2,1,0,0,-1,-2,2
1532222828091,-2,-4,-3,0,-1,-1,-1,-2
1532222828096,-2,-2,-2,2,1,0,-2,0
1532222828101,-1,-6,-1,-1,0,1,0,-1
1532222828106,0,8,6,-1,-2,-2,0,-1
1532222828111,0,-5,0,0,0,0,-1,-2
1532222828116,2,1,1,-1,1,0,0,-1
1532222828121,0,12,-3,0,0,2,0,1
1532222828126,-1,-5,-4,-6,-3,-1,-4,-1
1532222828131,-1,-1,2,0,-2,-1,0,0
1532222828136,0,-4,-6,-2,-1,-1,0,1
1532222828141,0,-2,1,-1,-2,0,-2,-1
1532222828146,2,2,-3,2,0,0,1,0
1532222828151,-4,2,-3,-3,-1,-3,-2,-2
1532222828156,0,2,-1,0,-1,-1,0,0
1532222828161,0,-5,1,-2,-1,-1,-1,-3
1532222828166,-2,0,0,0,-2,0,0,1
1532222828171,-1,-5,-4,-4,0,-1,-1,-3
1532222828176,1,-3,0,3,0,0,0,0
1532222828181,-3,0,4,2,0,0,0,-1
1532222828186,1,-1,-2,0,0,-1,0,1
1532222828191,-1,3,-4,-2,0,0,1,2
1532222828196,-2,-2,1,-2,-1,0,0,-2
1532222828201,-1,-4,0,0,0,0,1,1
1532222828206,-5,2,1,0,-1,-3,-1,-1
1532222828211,-2,-13,1,2,0,1,3,-1
1532222828216,0,3,-7,-3,0,1,-1,-1
1532222828221,1,0,5,0,-1,-2,-3,-2
1532222828226,0,1,0,-1,-1,0,0,1
1532222828231,-1,0,-2,-1,-2,-2,-2,-1
1532222828236,0,-6,-5,0,1,-2,-1,-1
1532222828241,-3,-4,-4,-1,-2,-1,-2,-2
1532222828246,0,-1,-1,-1,0,0,-1,0
1532222828251,1,9,5,-1,-1,0,-1,0
1532222828256,-3,-4,-2,-2,-5,-2,0,-3
1532222828261,0,-4,-4,-1,-1,-1,0,0
1532222828266,-2,-6,-5,-1,1,0,-2,-2
1532222828271,0,0,0,-2,0,2,1,0
1532222828276,1,9,1,-3,0,1,0,0
1532222828281,1,-11,-4,-3,-5,-2,-1,-4
1532222828286,-3,1,2,2,0,-2,0,-1
1532222828291,1,-2,-6,-1,0,-1,0,-1
1532222828296,0,20,3,-4,-2,-2,-4,-2
1532222828301,0,-24,-3,0,2,1,1,-1
1532222828306,-1,-4,2,1,2,2,-1,1
1532222828311,0,5,1,0,-1,-1,-2,0
1532222828316,-3,5,1,-1,-1,-2,-2,-1
1532222828321,-4,0,-3,-2,-1,0,-1,0
1532222828326,-1,-1,-2,-1,-3,-3,0,-2
1532222828331,-1,-5,0,1,0,0,-1,-2
1532222828336,0,-9,1,1,1,0,0,-1
1532222828341,1,7,0,-2,1,-3,-2,1
1532222828346,0,-3,-2,-1,0,1,-1,0
1532222828351,-3,-1,-2,-1,-1,1,-3,-2
1532222828356,-2,-2,2,-2,-3,-1,-1,-1
1532222828361,1,0,-6,-1,0,-2,0,-2
1532222828366,1,2,0,-1,0,1,0,0
1532222828371,-3,-8,-3,-1,-1,-1,0,-1
1532222828376,2,5,0,0,-1,-1,-1,-1
1532222828381,2,0,2,0,-1,-1,-1,0
1532222828386,-1,-2,-4,-2,-1,-1,1,-2
1532222828391,-2,1,3,-1,-1,-1,-1,-1
1532222828396,-1,-6,-6,0,-1,-2,0,-1
1532222828401,0,6,1,1,-1,0,-1,-2
1532222828406,1,-2,-3,-2,-2,-1,-1,-1
1532222828411,0,-1,-2,-1,-1,-2,0,1
1532222828416,0,-6,-1,0,-1,-1,1,1
1532222828421,-2,9,-1,0,0,0,-1,0
1532222828426,-1,-13,0,-1,-1,0,-1,0
1532222828431,-1,-2,-1,0,0,-1,0,0
1532222828436,4,-2,-1,0,1,0,0,0
1532222828441,0,3,2,0,1,1,-1,-1
1532222828446,-4,1,0,-3,-1,0,1,-1
1532222828451,-1,3,-2,-1,-3,0,0,-1
1532222828456,0,-5,0,-1,1,0,0,1
1532222828461,-1,3,5,-1,0,-2,-3,-4
1532222828466,1,2,-1,-2,-1,1,-2,-1
1532222828471,0,-3,-1,-1,-1,-3,-2,-2
1532222828476,-6,1,-1,-2,-1,-2,0,-2
1532222828481,0,-9,-5,-1,0,1,1,0
1532222828486,-2,5,-3,-1,-2,-1,-1,-1
1532222828491,5,3,1,1,-2,-2,1,0
1532222828496,-2,-6,-1,-1,0,-2,0,0
1532222828501,-3,4,1,-1,-1,-1,0,1
1532222828506,0,4,3,-1,-1,-2,-1,-1
1532222828511,1,-3,-3,-1,0,1,-2,-1
1532222828516,0,2,-2,0,-1,0,-2,0
1532222828521,-4,-5,-1,-1,-1,-2,2,0
1532222828526,-1,-9,0,0,1,1,-1,-1
1532222828531,-3,4,0,0,0,-1,-1,-2
1532222828536,-1,-3,0,-4,-2,-1,-2,1
1532222828541,2,1,1,0,-2,-1,0,1
1532222828546,-1,-1,-4,0,0,0,-1,-2
1532222828551,-4,-2,-3,-1,-1,0,-2,-2
1532222828556,-1,1,-4,-1,0,-2,0,-1
1532222828561,-3,0,-4,1,0,0,0,-1
1532222828566,2,11,8,-1,-2,1,1,0
1532222828571,-1,-10,-4,-2,-1,-1,-1,-1
1532222828576,-4,4,-2,-2,-1,-2,-1,-1
1532222828581,-1,-3,3,-1,-1,0,0,0
1532222828586,0,-3,-5,0,-1,-3,0,-1
1532222828591,1,1,2,0,-1,-3,-1,-1
1532222828596,1,-4,0,1,1,-2,-1,2
1532222828601,-4,2,2,-1,-1,-1,-1,0
1532222828606,-1,-5,-2,-2,-2,0,-1,-1
1532222828611,-1,3,2,-2,1,-1,-1,-2
1532222828616,0,-4,-1,1,0,1,0,1
1532222828621,-2,-3,-2,-1,0,-1,1,-1
1532222828626,2,1,-1,0,1,0,-1,-1
1532222828631,-4,6,2,-2,-1,-2,-1,-2
1532222828636,0,-1,-2,-2,-2,-3,1,-1
1532222828641,2,2,2,-1,-1,0,-1,-1
1532222828646,-1,-6,-1,0,0,0,0,-1
1532222828651,0,2,0,0,-1,0,-2,0
1532222828656,-2,-1,2,-1,-1,0,0,1
1532222828661,-2,8,2,-2,-2,-1,1,0
1532222828666,-3,-5,0,0,1,1,0,0
1532222828671,-3,-6,-3,0,1,1,0,-2
1532222828676,-2,0,-1,-2,0,-1,-2,0
1532222828681,0,-4,-2,0,-1,1,-1,-2
1532222828686,-1,4,0,0,-1,0,-1,-2
1532222828691,0,1,0,0,-2,-1,0,0
1532222828696,0,-2,-2,-1,0,0,-1,-2
1532222828701,-1,-2,-1,0,-1,-1,-1,-1
1532222828706,-2,-3,-3,-1,-1,-2,-1,-2
1532222828711,0,-2,-1,0,0,0,-2,-2
1532222828716,-2,-1,-1,0,0,0,-1,-1
1532222828721,-1,-2,-2,-2,-1,-3,-1,0
1532222828726,-3,-3,-1,-1,-2,-2,-1,-2
1532222828731,1,-2,-1,-1,-1,-2,-1,0
1532222828736,1,9,-2,-2,-1,-1,-2,-1
1532222828741,-2,-5,0,0,0,0,-1,-2
1532222828746,1,4,2,0,-2,-1,-2,2
1532222828751,0,-3,1,-1,-1,0,1,-1
1532222828756,-1,-2,-1,-1,-1,-2,-1,-1
1532222828761,0,-1,-3,-1,0,-2,1,-1
1532222828766,-2,1,0,-2,-1,-1,-2,-1
1532222828771,0,4,2,2,0,-1,-2,-2
1532222828776,-2,-4,-3,-2,1,0,1,0
1532222828781,-2,4,1,-3,-2,-1,1,-2
1532222828786,0,-5,-1,0,-1,0,-2,-2
1532222828791,0,1,-1,-2,-1,-2,0,0
1532222828796,-1,-4,-2,1,-2,-1,-1,0
1532222828801,-1,1,-2,-1,0,0,-1,-2
1532222828806,-1,-1,0,0,0,1,1,-1
1532222828811,-1,-2,-1,0,0,0,0,-1
1532222828816,1,-3,-2,0,0,-2,-3,-1
1532222828821,-3,-3,-2,-1,-2,-2,-1,-1
1532222828826,-1,0,-2,-1,-1,-1,0,-2
1532222828831,0,2,2,0,0,0,-1,1
1532222828836,0,0,1,0,0,-1,0,2
1532222828841,0,-1,0,1,-1,-2,-2,1
1532222828846,-3,-3,-2,-2,-3,-3,-1,-3
1532222828851,0,-1,0,-2,-1,-2,0,0
1532222828856,-4,-3,-1,1,-1,-1,-1,-2
1532222828861,1,-2,-2,0,0,0,-2,0
1532222828866,0,2,-1,-2,-1,0,-1,2
1532222828871,-1,-3,-4,-3,-1,1,-2,-1
1532222828876,0,-3,0,-1,0,0,1,-2
1532222828881,4,-1,0,1,1,2,-1,0
1532222828886,-1,-2,-2,-2,-2,-2,-1,-1
1532222828891,-1,-1,0,1,-1,-1,-1,-3
1532222828896,0,2,-1,-1,0,2,-1,-1
1532222828901,0,1,-3,0,-3,-2,0,-2
1532222828906,1,-1,0,1,0,1,-1,2
1532222828911,-3,-2,-2,-2,0,-2,0,0
1532222828916,1,3,2,0,0,1,0,0
1532222828921,-1,0,0,-3,1,0,0,-1
1532222828926,0,-2,-2,0,0,-2,-2,-1
1532222828931,-1,1,-1,-1,-1,-1,-1,0
1532222828936,-1,-3,-3,-2,-1,-2,-1,-1
1532222828941,-1,-1,0,-1,-1,1,-1,-1
1532222828946,0,-1,-1,-2,-1,0,-1,0
1532222828951,0,1,0,0,-1,0,-1,0
1532222828956,-3,-2,-1,-2,-1,-1,-1,1
1532222828961,-2,2,1,-1,-2,-2,-1,0
1532222828966,-2,-2,-4,-1,-2,-1,-1,-2
1532222828971,-1,1,-2,0,0,0,0,-1
1532222828976,1,-1,0,0,-2,-1,-2,-2
1532222828981,1,0,-2,-1,-2,0,-1,0
1532222828986,-4,-1,-1,-1,0,-2,0,-1
1532222828991,2,1,-2,-2,-1,-1,-1,0
1532222828996,-2,0,-1,-1,-2,0,-1,-2
1532222829001,1,-1,0,-2,-1,0,-2,0
1532222829006,0,1,-2,0,-1,-2,1,-1
1532222829011,1,-2,-2,-2,-1,-1,0,-1
1532222829016,-2,-3,1,1,-1,-2,0,-1
1532222829021,-2,0,0,0,-3,-1,0,-2
1532222829026,-2,-1,0,-1,-2,0,-1,0
1532222829031,-4,-2,-3,-1,-1,0,-1,0
1532222829036,2,1,0,-2,-2,0,0,1
1532222829041,-5,-3,0,0,-2,-3,-2,-3
1532222829046,1,3,3,1,1,0,0,-1
1532222829051,-2,1,0,0,-1,0,-1,-2
1532222829056,-1,1,-2,-2,-1,-1,-2,2
1532222829061,0,-2,-2,-2,-1,1,1,-1
1532222829066,-4,-3,-1,-1,-1,-2,2,-4
1532222829071,-1,3,2,0,1,1,0,0
1532222829076,-1,0,-2,-3,-1,-2,0,-2
1532222829081,0,-1,0,0,1,-1,1,-2
1532222829086,-1,0,-1,-1,1,1,-1,1
1532222829091,1,0,0,0,0,0,0,1
1532222829096,-3,0,-2,-1,-1,-2,0,-2
1532222829101,-1,-1,0,-2,-1,-1,-1,1
1532222829106,-1,0,-1,-1,-1,-1,-1,-1
1532222829111,-2,-2,-2,-1,-1,-1,-1,-1
1532222829116,0,0,-1,0,0,-1,-1,0
1532222829121,1,0,-3,-1,-2,-3,-2,-2
1532222829126,-1,0,-3,-1,-3,-1,-1,0
1532222829131,0,-1,0,-1,0,0,-2,0
1532222829136,2,-2,0,0,1,-1,1,0
1532222829141,-1,-1,0,1,-1,-1,-1,-1
1532222829146,0,0,-2,-2,2,0,-1,0
1532222829151,-2,-1,1,-1,-3,-1,-1,-3
1532222829156,-2,0,-4,-2,-2,0,-2,-1
1532222829161,1,0,-1,0,-1,0,-1,-1
1532222829166,-2,0,-1,-2,-2,-2,-1,-1
1532222829171,1,0,0,0,-2,-2,-1,0
1532222829176,-2,-2,-1,-1,1,-1,-2,-2
1532222829181,-3,-3,0,-1,1,-2,-1,0
1532222829186,-1,0,-1,0,-1,0,-1,0
1532222829191,2,-2,-1,-3,-1,0,0,1
1532222829196,-2,-1,-1,-1,-1,-1,-1,1
1532222829201,0,-2,-1,-2,-2,0,-1,-1
1532222829206,-1,-2,0,-1,-1,-1,0,0
1532222829211,0,0,-1,0,0,0,-2,1
1532222829216,-1,-2,0,-1,-1,0,-1,-2
1532222829221,0,-2,0,0,0,-1,0,-1
1532222829226,-1,-1,-1,-1,-1,-1,-1,0
1532222829231,-2,1,-1,-1,-2,-1,-1,0
1532222829236,2,0,1,-1,2,1,0,1
1532222829241,0,-3,-1,0,-1,0,-1,-4
1532222829246,1,2,-1,-3,0,-2,0,1
1532222829251,1,-1,-1,-1,-1,1,-1,0
1532222829256,0,-2,0,0,0,1,-1,0
1532222829261,-1,-2,-1,-1,-2,-2,-1,-2
1532222829266,0,2,1,-1,-1,0,-2,-1
1532222829271,-3,0,-3,-1,-2,-2,-1,-1
1532222829276,-1,-1,-1,-2,-1,-2,-1,0
1532222829281,0,-1,-1,0,0,0,-1,0
1532222829286,-1,0,0,1,0,0,-2,-2
1532222829291,-1,3,1,-1,0,-1,0,1
1532222829296,-2,-2,0,-2,-1,-2,0,-2
1532222829301,-4,1,-2,-2,-2,-3,-1,-1
1532222829306,-2,-4,-4,-2,1,-1,-1,-2
1532222829311,-1,-1,-1,1,0,0,-1,-1
1532222829316,2,-1,0,0,2,0,1,0
1532222829321,-1,-2,0,-1,-2,-2,-1,-1
1532222829326,-2,1,0,0,-2,-1,0,0
1532222829331,-4,-3,-2,-5,-3,-4,-3,-2
1532222829336,2,0,-1,-2,-1,0,-2,0
1532222829341,-1,1,0,-1,-1,1,-1,-2
1532222829346,1,0,0,1,-1,-1,0,0
1532222829351,1,-1,0,0,1,-1,0,-2
1532222829356,0,0,1,-2,0,0,-1,-1
1532222829361,2,-1,0,-1,0,0,-1,0
1532222829366,1,1,-2,-1,0,0,-1,0
1532222829371,2,-1,0,-1,-1,-1,-2,0
1532222829376,-2,-2,-2,-1,-3,-1,-1,-1
1532222829381,-1,0,-1,0,0,0,0,-1
1532222829386,-1,2,1,0,-2,0,0,0
1532222829391,0,-1,0,0,-1,-1,-1,-1
1532222829396,-3,0,-1,-2,0,-3,-1,-2
1532222829401,-1,-1,0,-2,0,0,-1,-1
1532222829406,0,-2,-1,0,0,-1,1,-1
1532222829411,0,2,-1,0,-2,0,0,1
1532222829416,0,2,-1,0,-1,0,-3,0
1532222829421,-3,2,-2,-2,-1,0,-1,-2
1532222829426,-3,-2,0,-1,0,-1,-2,-2
1532222829431,-2,-1,-2,-1,-1,-1,-1,-1
1532222829436,1,0,-2,1,0,1,0,-2
1532222829441,0,-1,0,1,0,0,0,-1
1532222829446,-1,-1,-3,0,-2,0,1,-1
1532222829451,-1,-1,-2,-1,-1,-2,-3,-2
1532222829456,1,-1,0,0,-2,0,-1,-1
1532222829461,-3,0,-2,0,0,-4,-1,-1
1532222829466,-1,-1,-1,-1,-2,-1,-1,-1
1532222829471,1,0,1,0,-2,-1,-1,0
1532222829476,-2,-2,-2,-1,-1,-1,-1,-1
1532222829481,1,-1,-1,-1,-3,0,-3,0
1532222829486,2,0,-1,-2,-2,-2,-1,-1
1532222829491,-1,0,-2,0,1,1,1,0
1532222829496,-2,0,1,1,-2,-2,0,-1
1532222829501,-1,-1,-1,-1,-1,-1,0,-1
1532222829506,0,0,-1,-1,-1,-1,-1,1
1532222829511,1,0,-1,-2,-2,-1,-2,-1
1532222829516,-2,0,-1,-1,0,-2,-1,-1
1532222829521,-1,-2,-2,1,-1,1,0,0
1532222829526,0,0,0,-1,0,1,-2,0
1532222829531,1,-1,1,-1,0,-1,0,-2
1532222829536,1,0,-1,-1,-2,-1,-1,-1
1532222829541,-1,1,-2,0,-1,-3,0,-1
1532222829546,-1,-1,-3,-1,-2,-1,0,-1
1532222829551,0,-3,0,1,-1,-3,0,-1
1532222829556,-1,-1,-3,-2,-1,-1,-2,-1
1532222829561,-1,-2,-1,-2,1,0,-1,-1
1532222829566,-1,-2,-1,-1,-1,0,0,-1
1532222829571,-1,2,-1,1,0,0,0,0
1532222829576,-1,0,-1,0,-3,0,0,0
1532222829581,0,-2,-2,0,0,-1,0,1
1532222829586,-1,1,2,-2,0,-1,-2,-2
1532222829591,-1,-1,-1,-1,-1,-1,0,-2
1532222829596,1,-1,0,0,1,-2,0,0
1532222829601,-1,0,-1,-1,-3,0,-1,-1
1532222829606,-2,-1,-1,1,0,-2,-1,-1
1532222829611,-3,-1,-3,-2,0,-1,-2,0
1532222829616,-1,-2,1,-1,0,0,1,-1
1532222829621,-3,0,0,-1,-1,-1,0,-2
1532222829626,-2,0,-1,-2,0,-1,1,0
1532222829631,1,0,-3,-2,0,-1,-2,0
1532222829636,-2,1,0,0,-1,-3,-2,-1
1532222829641,-2,-2,-1,-1,-2,-1,-1,-1
1532222829646,2,0,-1,0,0,0,-1,1
1532222829651,-1,-1,1,0,0,0,-2,0
1532222829656,-3,-1,0,0,0,1,1,-2
1532222829661,-1,0,0,-1,-2,0,-2,0
1532222829666,-1,-1,-1,0,-2,-1,-1,-2
1532222829671,-2,-2,0,-1,-1,0,-2,-2
1532222829676,1,-1,-1,0,-1,-1,-2,0
1532222829681,-2,-1,-2,-1,-1,-1,-1,-1
1532222829686,-3,-3,-1,-1,1,-1,-2,-1
1532222829691,-1,0,-1,0,-2,-2,0,-2
1532222829696,-2,0,-2,-2,-2,-2,-1,-3
1532222829701,0,-2,-2,0,1,0,-2,-1
1532222829706,0,0,-1,-2,-2,-2,-2,-2
1532222829711,0,1,2,-2,-1,-1,-1,-1
1532222829716,1,-1,-1,-2,0,1,1,-1
1532222829721,-2,-1,-1,-1,-1,1,2,-1
1532222829726,1,-1,0,-1,0,-1,-1,-1
1532222829731,1,0,-1,0,-1,-1,1,-2
1532222829736,-1,1,0,-1,-1,-2,-1,0
1532222829741,-1,-2,-1,-1,-1,-1,0,-1
1532222829746,1,0,0,0,-1,-1,-1,-1
1532222829751,-1,-3,-3,-2,-1,0,-1,-1
1532222829756,-1,0,-1,-1,1,0,-3,1
1532222829761,1,-2,-2,-2,-2,0,-2,0
1532222829766,-2,0,-1,-2,-2,-1,0,0
1532222829771,1,-1,-1,0,0,-2,0,-1
1532222829776,2,1,-1,-2,0,0,-1,-1
1532222829781,0,1,-2,0,0,0,-2,-2
1532222829786,-1,-1,-3,-1,-1,-1,-2,-1
1532222829791,-3,0,-1,-1,0,-1,-1,-1
1532222829796,-4,-3,-1,-1,-1,-1,-2,-1
1532222829801,-3,0,1,-1,-1,0,0,-2
1532222829806,-1,-1,0,0,-1,0,0,-2
1532222829811,-1,0,-2,-1,0,-1,-2,-1
1532222829816,1,0,-2,-1,-1,-1,0,-2
1532222829821,0,-1,-1,-1,0,-1,-1,1
1532222829826,0,0,-1,-1,-2,-1,0,0
1532222829831,0,0,0,-2,0,0,0,-1
1532222829836,0,-2,-1,0,0,-1,-2,-1
1532222829841,0,-1,-1,0,0,-3,0,0
1532222829846,1,-1,-1,0,0,-1,-1,0
1532222829851,2,-2,-1,0,-2,-2,-2,1
1532222829856,-3,1,0,0,-1,-1,0,0
1532222829861,-1,-1,-2,-2,-1,0,-1,-1
1532222829866,-2,0,1,0,0,0,-2,-1
1532222829871,-2,-1,-1,-1,1,0,0,-1
1532222829876,-2,-1,-1,1,0,0,-1,-1
1532222829881,-1,0,-2,0,-2,-2,-1,-2
1532222829886,-1,1,-1,-1,-2,0,-2,-1
1532222829891,0,-1,-1,0,-2,0,-1,-2
1532222829896,0,-1,0,-1,-1,0,0,1
1532222829901,-2,-1,0,-2,-1,-3,0,0
1532222829906,-2,1,2,-1,-1,-3,-1,-1
1532222829911,-1,-3,-3,0,-2,-1,-1,0
1532222829916,1,1,-1,1,-1,-2,0,-1
1532222829921,-2,-1,-2,-1,-1,0,-2,-1
1532222829926,-2,-2,-3,-1,0,0,-2,-1
1532222829931,2,0,1,-1,-2,-1,0,0
1532222829936,-2,-1,-1,-1,0,-1,0,0
1532222829941,0,-1,0,0,-1,0,0,-2
1532222829946,0,0,0,0,0,-1,-2,0
1532222829951,-2,-2,-2,-1,0,0,-1,-1
1532222829956,-3,-5,-3,-2,-1,0,-3,-3
1532222829961,0,1,2,1,-1,0,0,-1
1532222829966,-1,-2,0,-1,1,0,0,-1
1532222829971,0,1,1,0,-1,-2,-1,-1
1532222829976,-2,0,-1,0,-2,-2,0,-2
1532222829981,-3,-1,-2,-1,0,0,-1,-1
1532222829986,0,-1,0,0,-1,-1,-1,-1
1532222829991,0,0,-1,-2,-1,1,0,1
1532222829996,-3,-1,-2,-2,-1,-1,-2,0
1532222830001,1,-1,-1,0,0,-2,0,-1
1532222830006,0,-2,-3,-1,-4,-1,-1,-1
1532222830011,1,-1,2,-1,-1,0,1,1
1532222830016,-1,0,1,-1,-2,-2,-1,-1
1532222830021,0,-2,0,0,0,0,-2,0
1532222830026,-1,0,0,-1,-3,-2,-1,-2
1532222830031,-1,-1,-2,0,0,1,-1,-1
1532222830036,2,-1,0,-1,-1,-1,0,-1
1532222830041,1,-1,0,0,1,-1,1,0
1532222830046,0,0,0,-1,1,0,0,-1
1532222830051,-2,-2,-1,-1,-1,-2,0,-1
1532222830056,-1,0,1,0,0,0,0,0
1532222830061,0,-1,-1,-2,0,-1,-1,-2
1532222830066,-1,-2,2,-1,-1,0,-1,-1
1532222830071,1,1,-1,-1,-1,-1,-1,1
1532222830076,-2,-1,0,-1,-1,0,-1,-1
1532222830081,-1,-2,0,1,0,0,-1,-1
1532222830086,-2,-1,0,-1,-1,0,-1,-1
1532222830091,-2,-1,0,0,-1,1,-2,-2
1532222830096,-1,0,-1,0,-1,-1,1,-2
1532222830101,-1,-3,-2,-1,-1,0,0,-2
1532222830106,-1,0,-1,0,1,0,-1,0
1532222830111,0,0,-1,1,-1,-2,0,-2
1532222830116,0,-1,-1,-1,0,-1,-1,0
1532222830121,0,1,1,-1,0,-1,-1,0
1532222830126,-2,-2,-3,-2,0,-1,0,-3
1532222830131,-1,0,-2,-2,-2,-1,-1,0
1532222830136,1,0,-1,-1,0,2,0,0
1532222830141,-1,0,-1,-3,-3,-2,-2,1
1532222830146,0,0,0,1,0,0,0,1
1532222830151,-1,0,1,1,0,-2,-1,-1
1532222830156,-4,-1,-1,-1,0,-2,-1,0
1532222830161,1,-1,-2,-1,-2,0,0,-1
1532222830166,-1,-4,-2,-2,0,0,0,-1
1532222830171,0,-2,-1,-1,-2,-1,-1,-1
1532222830176,-1,-3,-1,0,-2,-1,-2,-1
1532222830181,-2,1,1,-2,-1,-2,0,-2
1532222830186,1,1,-2,0,1,0,0,-2
1532222830191,-2,0,-1,0,-1,1,-2,0
1532222830196,0,-1,-3,-1,0,0,0,-1
1532222830201,-2,-1,-1,-1,-2,0,-3,0
1532222830206,-1,-1,0,-1,-1,0,1,-1
1532222830211,-2,-1,-2,0,0,0,0,-1
1532222830216,1,2,0,0,0,1,-1,-1
1532222830221,-5,-2,-4,-3,-2,-2,-1,0
1532222830226,-2,0,0,1,-2,-1,0,0
1532222830231,0,-2,1,0,-2,-2,-1,0
1532222830236,-1,-3,-1,-1,-2,-4,1,-1
1532222830241,2,0,-2,1,0,-1,1,-1
1532222830246,1,0,-1,-1,-1,-1,-1,-1
1532222830251,-1,-1,-1,-1,0,-1,0,0
1532222830256,-2,2,-1,1,-1,0,-1,0
1532222830261,-1,0,-1,0,-1,-2,0,1
1532222830266,2,1,-1,-1,0,0,-1,0
1532222830271,-1,0,0,-2,-2,1,0,-2
1532222830276,0,0,-2,-1,0,0,-1,-1
1532222830281,-1,-1,0,1,-1,0,0,0
1532222830286,-2,-1,0,-1,-1,-1,0,-1
1532222830291,0,-2,-2,-1,0,-2,-1,-1
1532222830296,0,-1,0,0,-2,-1,-2,-2
1532222830301,0,-1,-1,-3,-1,2,-2,-1
1532222830306,0,1,-1,-1,-1,-1,-1,-1
1532222830311,-1,-2,0,-1,-1,0,1,-1
1532222830316,-2,-1,0,-1,-1,0,-2,0
1532222830321,0,0,-1,-1,0,-2,-1,0
1532222830326,0,-2,-1,-1,-1,-2,-2,-1
1532222830331,2,0,-2,-1,-1,-1,-1,0
1532222830336,0,0,0,0,-2,-1,-1,-1
1532222830341,-2,-1,-2,0,-1,0,-1,-1
1532222830346,-1,-2,-3,-2,-1,0,1,0
1532222830351,-3,1,0,0,0,-1,-1,0
1532222830356,0,-1,0,-1,0,-1,0,-1
1532222830361,-1,-2,0,-1,0,-1,0,0
1532222830366,-1,-1,-1,0,-1,2,1,-2
1532222830371,1,0,0,-1,-2,-1,-3,-2
1532222830376,-3,0,-2,0,1,0,0,-1
1532222830381,-1,-2,0,1,-3,-2,0,-1
1532222830386,-1,0,-1,-1,-1,1,-2,-2
1532222830391,-3,0,0,-3,0,-1,-1,-1
1532222830396,1,-1,-2,0,0,0,-2,0
1532222830401,0,1,-1,0,-1,-1,-1,-2
1532222830406,-2,-2,-1,1,0,-1,-1,0
1532222830411,1,0,0,-1,-2,-1,-1,1
1532222830416,0,0,-1,-2,0,0,0,-1
1532222830421,-1,-1,-2,-1,0,0,0,0
1532222830426,1,-2,-1,0,-2,-1,-2,-1
1532222830431,-1,-1,-1,0,0,-1,-1,0
1532222830436,0,0,-1,0,0,0,-1,0
1532222830441,-3,-1,-2,-1,-2,0,-2,-1
1532222830446,-2,0,0,-1,-2,-1,-2,0
1532222830451,0,-3,-2,-1,0,0,-1,-1
1532222830456,-3,-2,-1,-1,-3,-3,-1,0
1532222830461,0,0,0,-1,-1,0,-1,-1
1532222830466,-3,0,-1,-3,-1,-2,1,-1
1532222830471,-2,-2,0,0,-1,-1,0,-1
1532222830476,1,-1,-1,-1,-1,1,0,-1
1532222830481,2,0,-1,0,0,-1,-1,0
1532222830486,-2,-2,-1,0,1,-1,-1,0
1532222830491,-1,-1,1,0,-1,-2,0,0
1532222830496,-3,0,-1,-1,0,-1,-1,-2
1532222830501,1,-1,-1,-3,0,0,0,0
1532222830506,0,-2,-2,0,0,-1,-1,-1
1532222830511,-2,0,-2,-1,-2,-2,-1,-1
1532222830516,0,-1,-1,-1,-1,-1,-1,0
1532222830521,-2,0,0,-2,-2,-1,-1,0
1532222830526,1,-1,-1,1,-2,0,-1,-1
1532222830531,-1,-1,-2,0,-1,-1,-1,-2
1532222830536,1,-3,0,0,0,0,0,-2
1532222830541,-2,-1,0,0,-1,0,0,-1
1532222830546,2,1,0,-1,0,0,-1,0
1532222830551,0,-1,-3,-1,0,-2,0,-1
1532222830556,-1,1,0,0,-1,-1,-3,-2
1532222830561,1,0,0,1,1,-1,-2,-1
1532222830566,0,1,-1,-1,0,-1,-2,0
1532222830571,-2,0,-1,-1,-2,-1,-1,-1
1532222830576,-2,-2,-1,-2,-1,-1,-1,0
1532222830581,0,-1,-1,-1,0,-2,0,-2
1532222830586,-2,0,-1,-1,-1,0,0,-1
1532222830591,0,-1,-2,-1,0,-1,0,0
1532222830596,0,-2,-3,-1,-2,1,0,0
1532222830601,-4,-2,-1,-1,-1,0,-1,-3
1532222830606,-1,-1,-1,-2,-1,-2,-2,-1
1532222830611,-2,-2,-1,0,0,2,-1,-1
1532222830616,1,0,0,-2,0,-2,-1,-1
1532222830621,-1,0,-1,-1,0,0,0,0
1532222830626,0,-1,1,-2,0,-2,-1,-2
1532222830631,0,1,-2,-1,0,-1,-1,-1
1532222830636,0,0,0,-1,-2,-1,-1,-2
1532222830641,2,0,-3,0,-2,0,-1,1
1532222830646,-1,-1,-1,-1,-2,-2,0,-1
1532222830651,1,1,2,0,0,1,-1,0
1532222830656,0,0,0,-1,-1,-2,0,-1
1532222830661,0,-2,-2,0,-1,0,-1,-1
1532222830666,-1,0,-1,1,-1,0,0,-1
1532222830671,-2,-2,-2,-1,0,0,-1,-1
1532222830676,-2,-2,-1,0,-1,0,-1,-1
1532222830681,-1,-1,-1,-2,-1,-1,-1,-1
1532222830686,-1,0,-2,1,-1,-2,1,-1
1532222830691,-1,-2,0,-1,-1,-1,-1,-1
1532222830696,-1,0,0,0,-1,-1,-1,-1
1532222830701,-1,1,-1,0,0,-2,-1,-2
1532222830706,-1,-2,0,-2,-1,0,-1,-1
1532222830711,1,0,0,0,-1,0,0,-1
1532222830716,-1,-1,-3,-1,0,1,-1,0
1532222830721,0,1,0,-1,-2,-1,-1,2
1532222830726,1,-2,-2,-1,0,0,-1,0
1532222830731,-1,0,-1,-1,-2,-1,-1,-2
1532222830736,-1,-1,0,0,-2,-1,-2,-1
1532222830741,-3,-1,0,-1,-1,1,0,-1
1532222830746,0,-1,-2,0,-1,-2,0,-2
1532222830751,-2,-2,1,-1,0,0,-1,0
1532222830756,-2,-3,-3,0,0,-1,0,-2
1532222830761,-1,0,-1,0,-1,-1,-1,-1
1532222830766,0,1,0,0,-1,-1,-2,-2
1532222830771,0,-1,0,-2,0,-2,-1,-1
1532222830776,-2,0,-3,-2,1,-1,-1,-1
1532222830781,-1,-2,-1,-1,1,0,0,-1
1532222830786,-3,-1,-1,-3,-1,-1,-2,0
1532222830791,0,0,-2,-1,0,0,0,-1
1532222830796,1,0,2,0,-2,0,-1,1
1532222830801,-1,0,-1,-1,0,-2,-1,-1
1532222830806,-1,-1,1,1,0,0,-1,-4
1532222830811,-1,-1,-2,-2,-1,-1,-1,-1
1532222830816,-2,-1,-1,0,0,-2,0,-2
1532222830821,-2,-1,-1,0,-2,-1,-2,-2
1532222830826,-1,-2,-2,0,-3,-1,1,-1
1532222830831,-3,1,-1,-1,-1,0,0,-1
1532222830836,0,-1,-2,-1,-2,-1,-1,1
1532222830841,1,0,1,-1,-1,-1,-1,-1
1532222830846,-1,0,-1,0,0,-1,0,0
1532222830851,-2,0,-2,0,-1,0,-1,0
1532222830856,-1,-1,1,-3,-1,-1,-1,-1
1532222830861,-2,-1,-3,-1,0,-1,-2,0
1532222830866,-1,-3,0,-2,-2,-2,-1,0
1532222830871,-1,-2,-2,-1,-1,-1,0,-1
1532222830876,0,-1,-2,0,0,0,1,-1
1532222830881,1,-1,-1,-2,-1,0,0,0
1532222830886,0,0,-2,-1,0,0,1,1
1532222830891,-1,0,-2,1,-2,-1,0,-2
1532222830896,-2,-1,-1,-1,-1,-1,0,0
1532222830901,-2,-1,0,-2,-1,-1,0,-1
1532222830906,-1,-1,0,-1,1,0,-2,-1
1532222830911,0,0,-1,2,0,-2,0,-3
1532222830916,0,1,1,0,0,-1,-2,-1
1532222830921,-1,-1,-1,0,-2,-2,0,0
1532222830926,-1,0,-1,0,0,0,-1,0
1532222830931,-1,-1,0,-1,0,-1,-2,0
1532222830936,0,0,0,0,-2,1,-1,0
1532222830941,-1,0,0,0,-1,-1,-1,-2
1532222830946,-1,-1,-1,-1,-1,0,1,0
1532222830951,0,0,-1,0,-2,-2,-1,0
1532222830956,0,-1,-1,-3,0,-1,-1,-1
1532222830961,1,1,-1,0,0,0,-1,-1
