1532062146882,0,5,-4,-7,-8,-5,-10,0
1532062146887,3,11,3,-10,-8,2,3,1
1532062146892,-2,-5,-2,8,11,3,1,-2
1532062146897,-1,-16,-2,7,2,-3,-15,0
1532062146902,1,7,-2,-33,-10,-2,-2,0
1532062146907,-4,-20,0,27,4,0,-4,0
1532062146912,2,5,7,3,3,4,2,3
1532062146917,-2,-16,-11,6,0,-3,-11,0
1532062146922,1,7,16,29,5,-5,0,0
1532062146927,1,12,-7,-34,-2,3,2,0
1532062146932,-4,-10,1,11,-8,1,1,-4
1532062146937,-1,-2,6,38,6,0,4,2
1532062146942,-1,11,-10,-34,-11,-3,-3,-3
1532062146947,1,3,-1,5,-5,-6,-2,-2
1532062146952,-2,-5,2,8,9,3,2,0
1532062146957,-3,1,-6,-11,-9,-10,-3,-7
1532062146962,-5,-11,-3,-5,-16,-5,4,-6
1532062146967,-1,-2,1,18,6,7,0,0
1532062146972,0,6,-6,-19,5,3,-2,-2
1532062146977,-1,-5,11,-4,1,1,6,-1
1532062146982,1,2,-5,-2,-5,-10,-5,2
1532062146987,-4,-14,4,6,-1,1,10,-8
1532062146992,-2,6,-4,10,-3,4,-1,-1
1532062146997,4,10,1,-7,2,4,2,0
1532062147002,0,-18,1,1,9,-3,-7,-3
1532062147007,-2,3,-7,-28,-5,-3,-3,1
1532062147012,-1,-2,3,32,6,-2,-6,-2
1532062147017,-1,4,-6,-48,-14,-1,-1,-5
1532062147022,3,13,6,-2,0,-1,0,-1
1532062147027,1,4,4,31,-2,-2,-2,-4
1532062147032,-3,-16,2,8,5,0,1,2
1532062147037,-1,-5,0,0,3,-1,-5,2
1532062147042,0,4,0,11,2,2,3,0
1532062147047,1,7,-1,-7,7,-4,-6,-2
1532062147052,1,-2,-5,-24,-20,-5,0,1
1532062147057,-1,13,5,12,5,3,13,1
1532062147062,-3,-1,-6,17,4,5,-3,-1
1532062147067,2,-5,3,-33,-4,-1,0,-1
1532062147072,1,4,-3,-1,0,-1,-4,-2
1532062147077,-3,-6,-6,-17,-8,-6,-3,-4
1532062147082,-2,0,1,3,-4,0,-5,0
1532062147087,1,16,-3,7,4,0,-4,-1
1532062147092,-1,-31,2,-17,2,-3,-10,0
1532062147097,-2,2,-10,18,-7,2,11,1
1532062147102,-3,-2,-7,8,9,0,5,0
1532062147107,-3,0,9,0,-14,-4,-6,2
1532062147112,-1,11,0,-4,1,-2,1,1
1532062147117,2,-11,0,6,0,-2,-3,3
1532062147122,-3,-4,0,-23,-1,3,-4,-2
1532062147127,1,-3,-3,15,6,2,5,0
1532062147132,1,5,-3,15,10,0,2,0
1532062147137,1,9,5,-42,-13,-2,-3,-2
1532062147142,-5,3,2,36,3,-2,3,-3
1532062147147,-3,-15,-3,-38,-12,-4,-4,-1
1532062147152,-3,0,-6,12,4,4,2,-4
1532062147157,1,-1,-6,-7,0,-1,-5,3
1532062147162,1,-2,-4,7,-4,-5,-7,3
1532062147167,0,-5,-2,-8,-2,0,4,-2
1532062147172,3,13,6,2,7,5,3,1
1532062147177,1,20,-2,-5,-9,-2,0,-1
1532062147182,-5,-53,-4,5,-7,-2,7,-7
1532062147187,-1,11,-6,6,3,2,-1,-2
1532062147192,0,-8,2,-5,1,-1,-1,-1
1532062147197,0,-7,0,13,11,2,0,-2
1532062147202,2,9,-4,-32,-7,1,0,2
1532062147207,2,1,0,6,-2,-5,-3,-1
1532062147212,1,0,-1,-16,-12,-2,1,-1
1532062147217,-3,-13,0,16,3,0,-8,-1
1532062147222,0,13,-3,-1,3,0,0,1
1532062147227,1,-3,6,3,6,4,4,-2
1532062147232,-5,-5,-5,-7,-20,-8,-9,-1
1532062147237,1,0,6,15,9,2,7,-1
1532062147242,1,7,0,2,-1,-1,-1,1
1532062147247,-2,-7,-7,-3,0,3,3,1
1532062147252,2,2,5,0,6,-1,7,3
1532062147257,0,-9,-2,13,-1,1,-1,1
1532062147262,-3,-5,-12,-38,-9,-6,-15,-2
1532062147267,-1,3,12,12,5,-3,-7,3
1532062147272,0,1,-1,27,4,-1,0,-1
1532062147277,-5,-5,-5,0,-10,-3,8,-3
1532062147282,2,9,7,5,0,3,1,-1
1532062147287,-1,-7,-6,-8,-3,1,-1,2
1532062147292,-2,5,-4,2,4,-2,0,-1
1532062147297,0,-3,6,7,7,1,-3,-3
1532062147302,0,2,-3,-15,-4,-2,2,0
1532062147307,-1,-2,-5,33,6,2,3,-3
1532062147312,-3,-5,-12,-37,-13,0,-2,-2
1532062147317,-3,3,5,-10,-3,-2,-5,-1
1532062147322,1,5,4,9,-4,-3,-1,-2
1532062147327,-2,-14,-2,5,3,0,-2,-1
1532062147332,0,7,1,3,6,1,-1,0
1532062147337,-1,-2,-7,-16,0,-3,-4,-1
1532062147342,0,1,-2,19,-2,1,4,1
1532062147347,-1,3,3,-7,-2,-5,-2,-3
1532062147352,0,0,-5,9,-2,-2,0,-1
1532062147357,0,-4,8,1,2,0,-1,1
1532062147362,-1,1,0,11,15,5,1,-5
1532062147367,-1,0,-3,-2,-11,-5,-2,-2
1532062147372,-2,-3,-1,-16,-10,1,-5,-1
1532062147377,0,1,-3,2,2,3,3,1
1532062147382,0,0,-2,-9,-1,-2,0,1
1532062147387,1,-2,0,0,-2,-2,-4,-2
1532062147392,0,5,4,-3,3,1,3,-3
1532062147397,-2,-3,-6,16,-1,-5,-5,-2
1532062147402,0,1,17,8,3,5,0,3
1532062147407,1,-1,-11,-6,-3,2,2,0
1532062147412,-2,0,13,2,2,-3,-4,-1
1532062147417,0,0,-7,-7,-3,2,1,0
1532062147422,0,-2,-2,-1,-1,-3,0,-1
1532062147427,-1,4,10,6,-3,-2,0,0
1532062147432,1,2,6,-6,-5,-2,0,-1
1532062147437,-1,-3,-6,5,3,-4,-3,-4
1532062147442,-1,-2,-17,-12,-8,-2,-3,0
1532062147447,-1,-1,4,5,3,1,-1,0
1532062147452,0,-4,-9,-4,-1,5,3,-1
1532062147457,0,2,0,1,1,-1,2,-1
1532062147462,-1,-3,7,11,2,-3,-1,-2
1532062147467,-2,-4,-13,-13,-6,-3,-1,1
1532062147472,-1,0,-4,1,6,-4,-1,-2
1532062147477,-3,-3,1,-20,-11,-1,1,-1
1532062147482,-2,-1,1,14,3,-1,-3,0
1532062147487,-2,-1,-8,-19,-4,-1,-2,0
1532062147492,-2,-2,14,21,4,-5,-3,-1
1532062147497,2,-1,-4,-5,3,1,-1,0
1532062147502,0,-1,-9,-15,-5,-2,0,-1
1532062147507,-2,-1,-1,0,-3,-4,1,-1
1532062147512,-2,0,-5,-5,3,8,2,-1
1532062147517,-1,0,-1,5,0,-1,-3,-2
1532062147522,-2,-2,1,-5,-1,-1,0,-1
1532062147527,-1,0,-4,3,-3,-2,-2,0
1532062147532,-1,1,-1,-7,-6,-4,0,-1
1532062147537,-4,-4,-5,3,0,-5,-3,-1
1532062147542,0,-1,3,-10,-4,2,-1,-1
1532062147547,1,0,6,7,5,2,-1,2
1532062147552,-2,-1,-2,2,-2,1,1,0
1532062147557,0,-3,-23,-5,0,3,0,0
1532062147562,0,1,15,4,8,2,2,-1
1532062147567,-2,-2,-10,-9,0,-1,0,-1
1532062147572,1,-2,-7,-5,-8,-7,-5,0
1532062147577,-1,0,12,13,3,-1,-3,1
1532062147582,-1,-1,-9,-11,-8,-6,0,0
1532062147587,-1,1,3,4,-4,-4,-6,-2
1532062147592,1,-1,-3,0,2,2,1,0
1532062147597,1,2,1,-6,4,4,3,-2
1532062147602,-1,-1,1,-3,-1,7,2,-1
1532062147607,-1,-1,-2,-1,-2,-4,0,-2
1532062147612,0,0,5,8,0,-9,-4,-1
1532062147617,-2,-2,1,0,-3,1,-1,1
1532062147622,2,2,-3,2,7,9,3,-2
1532062147627,0,0,-4,-2,8,3,3,-1
1532062147632,-2,-1,-5,-5,-4,-2,-2,-1
1532062147637,0,1,11,0,-8,-9,-3,-2
1532062147642,0,1,-2,1,-4,-8,-4,0
1532062147647,0,-2,1,-3,-6,0,-2,0
1532062147652,-3,-2,-15,-8,1,0,3,0
1532062147657,1,2,7,-1,-2,-2,-2,-2
1532062147662,-1,-1,-3,0,0,-1,-1,-1
1532062147667,0,0,-13,-9,-1,1,-1,-1
1532062147672,0,2,5,8,-2,-2,-1,0
1532062147677,2,-2,0,-2,-3,-3,-2,-3
1532062147682,-1,-1,-3,2,-3,1,0,1
1532062147687,-1,-1,1,3,1,3,2,0
1532062147692,0,1,0,-4,2,0,-3,-2
1532062147697,-1,-2,-4,-5,-2,0,0,1
1532062147702,0,1,-1,-10,-3,-6,0,-3
1532062147707,-1,-2,10,9,-3,2,-1,-2
1532062147712,0,-2,-9,-3,2,1,0,0
1532062147717,0,1,15,7,-4,-5,-3,-4
1532062147722,1,-1,-6,-3,-4,-3,-2,0
1532062147727,-2,-2,-4,1,1,1,3,2
1532062147732,1,0,12,0,-5,-5,0,0
1532062147737,1,-1,-9,1,3,6,-1,-1
1532062147742,-1,-1,-7,-2,3,-1,2,-1
1532062147747,-2,-1,10,2,-1,-3,-3,-1
1532062147752,1,-1,4,-1,0,0,-4,1
1532062147757,-2,-2,-4,-7,-5,-9,-3,1
1532062147762,0,-1,-1,0,0,1,-3,-2
1532062147767,0,1,4,10,4,1,1,-1
1532062147772,-1,0,1,0,0,1,0,-1
1532062147777,-2,-2,-3,-2,-2,0,0,0
1532062147782,0,-2,-4,-9,-1,-4,-3,-2
1532062147787,0,-1,-10,-8,-3,-3,0,-2
1532062147792,-2,0,5,8,1,1,4,2
1532062147797,-1,-1,-3,-5,3,6,2,1
1532062147802,-1,1,3,4,-1,-3,-2,0
1532062147807,1,2,-6,-6,-2,-4,-5,-2
1532062147812,-1,0,10,-1,-5,-7,-4,-2
1532062147817,-1,0,6,9,4,7,2,2
1532062147822,-2,-2,8,3,3,4,2,-1
1532062147827,-2,-1,-18,-5,0,-3,0,-2
1532062147832,0,-2,-14,-10,-3,-3,-5,-4
1532062147837,-1,0,9,0,-6,-8,-4,-3
1532062147842,-1,3,3,1,4,7,7,2
1532062147847,-1,0,6,11,3,1,2,1
1532062147852,-1,-3,5,5,-1,-1,1,-2
1532062147857,0,-3,-32,-17,-4,-5,-4,-2
1532062147862,-5,-5,1,-2,-4,-4,-5,-1
1532062147867,2,-1,9,-2,-3,-2,-4,1
1532062147872,-2,-3,-14,-11,-2,2,-1,-2
1532062147877,-2,0,11,19,6,-1,3,-2
1532062147882,1,-2,-3,-5,-7,0,-2,0
1532062147887,-1,-1,15,7,3,5,1,-1
1532062147892,0,-2,-13,-1,1,0,-2,1
1532062147897,-1,-1,-1,-10,-4,-5,-2,-2
1532062147902,-2,0,-4,2,1,-3,-2,-2
1532062147907,-1,0,5,0,-2,-1,0,-1
1532062147912,-1,0,2,-4,-1,3,2,-1
1532062147917,-2,-1,6,6,1,1,-1,0
1532062147922,3,2,20,13,-1,-8,-3,-1
1532062147927,-1,-1,1,2,-3,-2,-3,0
1532062147932,0,-1,-6,-13,3,4,4,0
1532062147937,0,-2,-14,-12,-4,-1,-1,-2
1532062147942,-2,-2,4,3,0,0,-3,-1
1532062147947,-1,0,0,-11,-4,-6,-2,-4
1532062147952,-2,-3,-18,3,-1,4,-1,-1
1532062147957,0,-3,8,6,-4,0,2,0
1532062147962,2,3,4,4,3,3,0,-1
1532062147967,-1,-1,0,-4,2,0,-1,-3
1532062147972,-1,1,0,-5,-1,-3,-3,-1
1532062147977,0,1,4,0,-1,0,-2,-1
1532062147982,0,-1,-15,-3,-7,-6,-2,-1
1532062147987,-1,2,9,4,0,2,2,-2
1532062147992,0,-3,-2,-8,-4,2,0,0
1532062147997,0,0,8,14,5,1,-1,1
1532062148002,0,-5,-16,-13,0,0,-1,-2
1532062148007,-1,2,6,-2,-5,-3,-3,1
1532062148012,0,2,10,-14,0,-1,1,-1
1532062148017,-3,-2,-6,15,1,1,-3,-1
1532062148022,0,1,-1,18,1,-6,-1,1
1532062148027,-3,-7,-18,-16,-5,4,-1,-4
1532062148032,-1,-2,-9,-15,-3,-1,-4,1
1532062148037,-2,0,-6,-10,0,-3,1,-3
1532062148042,0,4,11,11,1,2,3,-1
1532062148047,-1,0,-5,-9,2,1,-1,2
1532062148052,-1,-1,9,19,4,-1,-1,-1
1532062148057,3,-1,3,-2,4,2,1,1
1532062148062,3,-1,-11,1,-2,-2,-2,0
1532062148067,-2,0,-4,-3,-7,-6,-2,-1
1532062148072,-1,1,23,13,4,2,1,-3
1532062148077,-4,-1,-6,0,-1,-1,-4,1
1532062148082,-2,-4,-13,-33,-8,2,6,1
1532062148087,3,0,-10,0,5,0,1,1
1532062148092,-2,1,0,3,-2,1,3,-2
1532062148097,2,-4,2,4,2,0,-3,-4
1532062148102,1,-2,10,-1,0,-1,0,2
1532062148107,1,2,-7,8,6,2,3,0
1532062148112,10,-7,-15,-3,-4,-3,-5,4
1532062148117,-34,-5,-3,-7,-6,-5,-1,-6
1532062148122,10,2,-16,-6,-3,-2,-5,-3
1532062148127,-2,2,33,16,4,7,-2,-2
1532062148132,0,-3,-8,5,1,-3,2,1
1532062148137,11,-1,-6,-21,-2,4,6,1
1532062148142,-12,-2,-5,17,-2,-3,-6,-4
1532062148147,1,-1,-5,22,-2,-3,0,0
1532062148152,-4,5,-17,-32,-7,-3,-5,-2
1532062148157,8,-4,5,3,-5,-4,-2,1
1532062148162,-10,-5,21,0,4,1,-2,-1
1532062148167,2,1,-9,-3,-1,1,2,1
1532062148172,-7,-6,-10,8,0,0,-1,-2
1532062148177,2,11,18,0,1,-1,3,-1
1532062148182,2,5,-2,6,2,0,1,-1
1532062148187,-5,0,-4,-22,-3,-1,-2,0
1532062148192,0,3,11,9,-3,0,1,0
1532062148197,1,-7,5,-3,-2,-1,-3,-1
1532062148202,0,-3,-4,-4,0,1,0,-3
1532062148207,2,-1,5,3,1,0,1,-2
1532062148212,-5,0,16,-2,-11,-7,-5,-1
1532062148217,3,-1,-43,10,5,1,-3,3
1532062148222,1,-2,0,0,2,3,2,0
1532062148227,-2,-2,21,2,-4,-5,-1,-1
1532062148232,2,-3,-25,-9,-3,1,-4,-2
1532062148237,-5,-6,21,-4,-1,0,-4,-2
1532062148242,-2,-3,-9,-12,3,2,0,-2
1532062148247,-4,-2,-16,-14,-5,1,1,-3
1532062148252,-2,-6,37,17,1,-5,-3,1
1532062148257,0,0,-2,-4,-8,-5,-4,-2
1532062148262,0,1,-7,5,3,2,0,0
1532062148267,2,2,18,-13,-6,-5,2,0
1532062148272,-5,-21,-46,-2,1,0,2,2
1532062148277,0,7,-8,-9,-2,3,1,-1
1532062148282,-3,-10,-18,1,1,0,1,0
1532062148287,-4,-3,0,2,-1,-2,-5,2
1532062148292,0,9,-2,4,2,-2,1,-2
1532062148297,2,4,13,-9,0,-2,-2,-1
1532062148302,0,3,7,7,-5,1,1,0
1532062148307,0,-6,-18,4,6,3,1,-1
1532062148312,-4,-3,-27,0,13,6,-1,-3
1532062148317,-1,-1,10,0,-8,-4,-2,-3
1532062148322,2,9,9,-2,-5,-2,-2,2
1532062148327,-1,-9,-11,-12,-7,-8,-8,1
1532062148332,0,-1,12,1,2,1,3,-1
1532062148337,1,2,-23,9,9,6,2,-1
1532062148342,1,0,3,-12,-1,1,1,0
1532062148347,2,6,-24,5,1,0,-1,2
1532062148352,3,13,-2,-13,1,-1,-1,-2
1532062148357,-3,-21,21,26,-1,-4,-1,-3
1532062148362,-1,13,20,10,0,-3,-1,-4
1532062148367,-4,-16,-9,-9,8,4,0,3
1532062148372,1,12,8,-9,-8,-1,-3,0
1532062148377,1,3,-5,-23,4,1,2,0
1532062148382,-2,-8,16,-21,-11,-4,-7,-2
1532062148387,1,6,44,53,-5,-8,3,-6
1532062148392,0,2,35,44,14,4,1,3
1532062148397,1,1,-34,-44,2,9,6,6
1532062148402,-1,-7,-9,-11,2,0,3,-1
1532062148407,1,8,10,-26,-7,0,-1,-3
1532062148412,0,-7,8,-2,-6,-4,-1,-3
1532062148417,0,3,8,11,-1,-4,1,-2
1532062148422,-3,2,0,7,-2,-2,-5,0
1532062148427,-2,-4,-25,18,-1,1,-2,0
1532062148432,-1,-3,-1,5,1,-1,0,-2
1532062148437,-3,-9,-24,-5,-5,-4,0,-3
1532062148442,0,8,-8,15,6,-2,-2,-1
1532062148447,-1,1,7,-10,-3,-1,-2,-2
1532062148452,0,0,-9,10,0,-3,-2,-1
1532062148457,2,3,8,7,2,-3,-1,-1
1532062148462,0,-5,-6,-3,6,8,5,0
1532062148467,-4,-4,-7,4,4,0,-3,0
1532062148472,-4,-4,-5,-8,-11,-8,-1,0
1532062148477,-1,3,-4,-5,-6,-1,-2,-4
1532062148482,-1,0,-15,10,1,-4,-1,3
1532062148487,4,9,1,-23,0,4,2,1
1532062148492,-1,-18,-4,-2,1,1,2,-1
1532062148497,-4,1,-2,-5,-2,-8,-5,-1
1532062148502,-4,-11,-33,-22,-20,-8,-7,-7
1532062148507,-7,-2,18,7,12,7,5,4
1532062148512,0,5,1,-23,-12,1,-1,-1
1532062148517,0,2,-1,6,6,-1,0,0
1532062148522,0,-5,20,17,4,0,-4,2
1532062148527,-1,-4,-21,6,-3,-6,-1,-2
1532062148532,1,-1,34,20,5,1,-3,2
1532062148537,1,4,-25,-26,-9,1,4,-4
1532062148542,-2,0,-11,21,9,-1,-1,1
1532062148547,4,1,-11,-9,-8,-1,-2,1
1532062148552,-1,-2,23,-6,11,5,0,-2
1532062148557,-1,-13,-7,-4,0,1,-1,-1
1532062148562,0,4,20,-11,-4,-2,3,-2
1532062148567,-3,-10,-52,-45,-15,-6,-3,-5
1532062148572,1,9,-12,21,-3,-5,-3,2
1532062148577,1,9,19,16,1,0,-1,1
1532062148582,0,-5,46,11,3,-3,0,0
1532062148587,0,2,2,-10,-1,-2,-5,-4
1532062148592,-4,-8,-7,7,-4,-1,1,-3
1532062148597,-5,-19,-38,6,4,4,-1,3
1532062148602,0,0,-15,-6,3,6,1,0
1532062148607,1,6,11,-11,1,-2,0,-3
1532062148612,-2,2,1,29,-2,-4,-2,-2
1532062148617,1,7,37,20,-5,-6,-3,1
1532062148622,3,1,0,-14,2,2,-5,-1
1532062148627,-1,0,17,12,5,4,11,3
1532062148632,0,2,-26,-27,7,1,-1,-4
1532062148637,-2,1,4,6,-10,-3,-5,2
1532062148642,0,1,0,-11,-11,-4,-1,-2
1532062148647,1,3,7,2,0,-2,-3,-1
1532062148652,-4,-12,-9,12,6,-3,-7,-4
1532062148657,-1,-1,3,-14,-1,-1,7,-1
1532062148662,-1,-1,-21,2,2,2,-2,0
1532062148667,-1,-3,9,8,-4,-3,-3,0
1532062148672,-4,-2,-9,-8,-4,-1,3,-2
1532062148677,-2,-7,-6,-9,-2,-1,-5,-3
1532062148682,4,9,-7,-7,-2,-8,-1,-2
1532062148687,-3,-8,16,2,-4,-2,-1,-1
1532062148692,1,7,4,-9,-4,1,-1,0
1532062148697,-1,-2,-8,13,8,4,-2,0
1532062148702,-2,6,-15,1,-3,0,3,-1
1532062148707,6,-16,-10,6,2,2,-3,1
1532062148712,-21,-8,-17,-32,-5,-1,-1,-7
1532062148717,1,7,-4,-14,-4,-4,1,-1
1532062148722,0,-2,11,25,5,0,-4,1
1532062148727,-1,-4,-12,-15,13,-2,-2,3
1532062148732,5,-7,7,-9,-18,2,-3,5
1532062148737,-2,-11,-21,-10,-15,0,17,-4
1532062148742,-2,3,18,11,-6,-6,-19,-3
1532062148747,0,10,11,-7,5,5,1,-2
1532062148752,6,5,8,9,9,1,-1,5
1532062148757,1,11,22,3,7,1,-6,-2
1532062148762,-2,-15,-9,-7,-2,-8,-4,-2
1532062148767,-1,6,-10,0,-2,5,3,-2
1532062148772,-1,1,-4,-23,-17,0,-6,-4
1532062148777,0,7,8,13,-1,0,-4,7
1532062148782,-5,-14,-25,-2,4,4,5,0
1532062148787,-6,-2,-9,3,2,-3,-3,-2
1532062148792,7,8,10,-2,6,-1,2,0
1532062148797,-1,2,9,-5,-3,-5,-4,-2
1532062148802,-1,-5,-12,-2,-2,-1,5,-2
1532062148807,-6,-9,3,8,4,0,-6,-2
1532062148812,1,4,-7,9,3,3,0,1
1532062148817,-1,-5,3,15,4,1,-1,-1
1532062148822,3,5,10,0,1,1,5,-1
1532062148827,3,8,7,3,-9,-9,-6,0
1532062148832,1,5,20,9,2,-4,6,0
1532062148837,0,8,-1,-37,4,8,0,1
1532062148842,-5,-20,-24,-6,-1,2,-1,-1
1532062148847,5,4,4,25,-2,0,-2,2
1532062148852,-10,-2,6,-11,1,-5,-1,-3
1532062148857,4,15,23,19,0,-4,-2,-1
1532062148862,-3,-4,6,-19,-4,2,5,-5
1532062148867,-3,-3,-18,-9,-4,2,-3,-2
1532062148872,1,-6,-30,11,-13,-2,-1,2
1532062148877,-1,-7,5,-4,4,2,2,2
1532062148882,-2,3,1,-14,-15,-7,-5,-2
1532062148887,3,0,-4,-1,-1,-5,1,-2
1532062148892,2,3,9,-17,5,4,5,-1
1532062148897,-4,-14,13,34,4,-9,-10,-5
1532062148902,-3,-5,-36,-18,-16,0,-8,5
1532062148907,1,7,0,-4,25,8,7,-2
1532062148912,1,2,7,3,-8,1,-3,3
1532062148917,1,0,0,-15,-27,-13,5,0
1532062148922,-1,1,18,18,12,1,-1,-4
1532062148927,1,1,-25,-6,4,12,10,2
1532062148932,-1,2,4,17,11,-3,0,-5
1532062148937,-2,-5,-25,-42,-20,-10,-11,-2
1532062148942,0,-2,34,-1,33,5,15,-3
1532062148947,-1,3,31,13,-24,6,5,-1
1532062148952,-3,-14,0,22,13,4,-7,5
1532062148957,1,1,-1,8,-11,-2,2,0
1532062148962,0,2,27,-12,-18,-8,0,-2
1532062148967,-3,6,5,7,14,-2,-7,-2
1532062148972,3,-14,-8,-29,-17,-2,6,2
1532062148977,-1,4,20,17,9,-1,-2,1
1532062148982,0,2,-13,20,9,2,0,2
1532062148987,-2,-9,-9,-10,-3,-12,-6,0
1532062148992,0,6,-2,3,-10,-8,-16,-3
1532062148997,4,2,-2,-19,4,6,7,5
1532062149002,-1,-2,1,11,-9,0,-7,-4
1532062149007,-2,-2,-31,-21,-35,-14,-4,-4
1532062149012,3,5,34,27,26,15,5,0
1532062149017,-6,-5,15,33,14,6,-5,-2
1532062149022,-3,0,-7,-12,-4,-3,2,-1
1532062149027,1,2,8,-4,-2,-14,-8,-2
1532062149032,2,17,10,18,-20,-13,2,-5
1532062149037,0,-20,-11,9,23,23,2,1
1532062149042,-3,4,4,2,3,0,2,6
1532062149047,-4,-2,13,-4,6,4,-3,-6
1532062149052,4,6,-13,5,4,-3,3,1
1532062149057,-5,0,-18,-11,3,-2,-1,0
1532062149062,1,-1,-10,10,48,-3,-16,-2
1532062149067,-4,-6,42,-35,-67,3,5,4
1532062149072,-3,-7,-30,-12,9,6,-4,-2
1532062149077,1,7,-16,-64,-23,-5,-2,-5
1532062149082,-1,-2,4,10,-5,-5,-12,5
1532062149087,-4,-8,9,24,17,-7,1,-4
1532062149092,1,-3,-14,-18,-4,0,5,3
1532062149097,1,5,22,6,7,-7,-7,0
1532062149102,-1,12,36,14,1,5,7,-6
1532062149107,0,-10,-31,-4,5,-2,-3,1
1532062149112,-5,-10,-16,-23,-7,-3,2,-3
1532062149117,-2,-11,2,36,7,3,-4,-1
1532062149122,1,2,21,-33,-22,-3,3,2
1532062149127,3,2,-13,-4,0,2,8,1
1532062149132,1,5,31,3,7,-2,-6,2
1532062149137,3,18,-1,20,-12,-3,-6,-1
1532062149142,-3,-33,-28,9,23,6,8,-3
1532062149147,-11,-15,-19,-5,0,0,-11,-6
1532062149152,-2,3,6,4,5,-3,1,-3
1532062149157,4,11,15,19,12,-3,-1,0
1532062149162,0,5,-11,-17,-41,0,0,3
1532062149167,4,0,4,21,19,4,5,2
1532062149172,0,0,-19,-36,-7,-2,1,1
1532062149177,-3,-3,-12,-8,-4,-5,1,-2
1532062149182,3,8,16,20,11,4,3,-1
1532062149187,-1,0,-10,-6,9,1,-1,-3
1532062149192,-3,-1,9,5,-11,-5,-7,0
1532062149197,-1,-5,-8,-6,3,-4,8,-1
1532062149202,0,1,-10,-9,-7,-1,-1,-5
1532062149207,4,11,22,7,-16,-1,1,2
1532062149212,-2,-10,-12,-1,-7,-4,1,0
1532062149217,-6,-10,-17,0,16,7,-1,-3
1532062149222,2,5,-6,-10,-3,2,2,0
1532062149227,1,3,2,13,7,-2,-4,-1
1532062149232,0,2,11,-15,23,-5,0,-4
1532062149237,-2,2,15,34,-5,-3,0,-7
1532062149242,0,5,-8,10,-36,3,6,6
1532062149247,3,12,1,-33,-12,-3,-3,4
1532062149252,-2,-18,3,-19,-9,1,6,-1
1532062149257,-5,-11,-15,17,2,-6,-8,-3
1532062149262,1,13,7,-5,12,-15,-10,-5
1532062149267,-1,-5,4,25,1,21,8,3
1532062149272,4,1,-8,-5,21,13,5,-4
1532062149277,-1,11,11,-18,0,3,-3,1
1532062149282,-6,-15,-8,0,-9,-10,-4,-2
1532062149287,-3,-1,3,-4,-2,-15,-23,-1
1532062149292,-4,9,9,12,-5,1,16,-2
1532062149297,5,-4,-3,-8,-3,3,5,4
1532062149302,1,3,-19,5,22,3,-3,-5
1532062149307,-4,-7,-10,-23,-20,0,0,-2
1532062149312,-6,-5,-1,15,-5,8,-11,-5
1532062149317,0,-1,-22,-21,-27,-9,-5,1
1532062149322,11,11,3,7,4,1,5,13
1532062149327,2,-7,12,-2,7,-11,4,0
1532062149332,4,-1,-15,16,15,-6,-3,0
1532062149337,-15,-32,-5,-36,-31,11,-2,-5
1532062149342,-9,-14,-17,2,7,5,-10,-10
1532062149347,0,-4,-6,5,7,1,3,-1
1532062149352,4,20,17,-5,11,-15,-12,3
1532062149357,10,22,10,15,-17,-8,-3,5
1532062149362,-2,-7,18,-4,14,2,14,0
1532062149367,1,-4,6,0,12,20,12,3
1532062149372,-3,-6,17,9,-4,-2,-5,-2
1532062149377,2,3,-36,-20,18,-1,-10,-5
1532062149382,-2,-14,-10,-10,-16,-8,-4,1
1532062149387,-4,11,-7,13,-7,-13,2,-5
1532062149392,-2,-9,-8,-14,-11,0,-5,-1
1532062149397,-2,-7,5,0,-2,6,3,-2
1532062149402,-2,1,7,38,31,1,-11,-3
1532062149407,3,-1,-6,-10,-3,-2,5,1
1532062149412,2,6,5,22,-21,1,-1,4
1532062149417,0,-1,3,-29,-2,-11,-3,-1
1532062149422,-4,-6,-35,-15,-4,1,-17,0
1532062149427,1,1,9,21,20,10,-8,-3
1532062149432,-1,-9,-5,-23,0,-4,4,5
1532062149437,3,4,24,-3,7,2,21,-2
1532062149442,-4,-12,-24,39,-14,1,-12,-3
1532062149447,-3,-1,9,16,8,-9,-3,-3
1532062149452,4,13,1,2,-22,-12,-11,-11
1532062149457,0,-7,22,14,6,-6,0,5
1532062149462,-1,-8,-40,-37,11,32,17,-2
1532062149467,1,-2,-22,-5,16,6,4,3
1532062149472,-2,-9,-5,-9,-14,-6,-14,-1
1532062149477,-2,3,-30,-11,6,-16,7,-9
1532062149482,1,18,28,-2,-12,-15,-7,-2
1532062149487,8,-3,-16,-2,57,5,-7,0
1532062149492,-15,-20,-23,-70,-82,-7,4,-2
1532062149497,-10,-18,-24,31,26,-1,-17,-1
1532062149502,-3,1,36,13,-18,0,7,0
1532062149507,-2,10,14,14,15,-7,-10,-3
1532062149512,5,4,-3,29,45,4,6,4
1532062149517,2,-3,-27,-7,-26,17,-3,-4
1532062149522,-1,6,19,1,4,-12,-14,-4
1532062149527,-7,-14,-39,-5,-5,-4,-25,-2
1532062149532,-1,4,-9,27,33,3,-5,-4
1532062149537,1,6,22,-4,-17,7,19,-2
1532062149542,2,4,1,-40,-11,2,10,5
1532062149547,-2,2,-4,24,-20,-2,-2,-2
1532062149552,1,-1,-15,2,5,7,2,6
1532062149557,-5,-1,29,1,36,-8,-16,-7
1532062149562,-5,-9,-8,-17,-22,-8,-14,-15
1532062149567,0,5,57,0,7,1,20,2
1532062149572,-9,-13,-14,14,-8,3,-13,-1
1532062149577,-2,0,12,8,-13,6,5,0
1532062149582,4,7,-18,-7,-13,-10,2,4
1532062149587,-3,-1,16,-11,-7,-4,-13,-1
1532062149592,6,11,48,22,32,7,15,-3
1532062149597,1,6,-9,-11,-3,-1,-14,2
1532062149602,2,-4,-24,-13,-3,5,31,2
1532062149607,-7,-14,-12,0,-9,-6,-1,-1
1532062149612,0,1,22,7,17,0,-3,-1
1532062149617,5,9,31,15,-19,6,24,5
1532062149622,0,6,40,8,-22,-3,-6,9
1532062149627,1,0,-39,-33,-10,-3,-4,-8
1532062149632,-5,-8,8,-4,-13,0,1,-2
1532062149637,5,1,-17,29,57,-2,-9,1
1532062149642,2,3,-5,10,4,7,19,4
1532062149647,-7,-11,-23,-32,-46,-6,3,-1
1532062149652,-3,-14,-44,-20,-2,-3,-2,-11
1532062149657,-8,-12,-41,-12,2,-5,-9,-5
1532062149662,7,15,12,-3,21,3,0,5
1532062149667,3,0,3,2,-4,-1,10,3
1532062149672,-11,-2,-17,-7,3,-2,1,-13
1532062149677,3,-3,8,-3,3,2,1,0
1532062149682,-4,-6,-13,-1,44,-4,-8,-9
1532062149687,0,2,12,33,-41,10,1,5
1532062149692,-2,-1,2,-43,-37,-6,-3,-2
1532062149697,-10,-18,-38,-26,-14,-9,-2,-9
1532062149702,1,0,-7,0,12,-5,-17,2
1532062149707,6,-1,2,17,20,1,9,3
1532062149712,-3,3,0,-5,9,2,2,2
1532062149717,7,9,20,6,7,-1,2,8
1532062149722,-5,-6,0,7,-15,6,7,-9
1532062149727,-6,-2,-12,-40,-74,-27,-13,3
1532062149732,5,1,19,14,22,-1,-1,-2
1532062149737,4,-1,-50,-19,9,-1,-2,5
1532062149742,1,0,22,29,26,-3,1,-1
1532062149747,-1,2,20,10,19,6,0,-7
1532062149752,3,1,19,25,-12,0,0,6
1532062149757,-4,1,54,-8,0,-3,-15,-8
1532062149762,-4,-8,-18,-21,-19,-3,-1,5
1532062149767,-2,-1,-4,-7,-13,7,-3,-3
1532062149772,4,4,31,-31,-36,-14,-4,7
1532062149777,0,-5,-7,42,31,4,1,-3
1532062149782,-7,-6,-36,-50,-55,-4,-10,-3
1532062149787,-1,-6,3,22,22,6,2,-4
1532062149792,0,-3,-16,6,5,7,9,4
1532062149797,4,8,18,17,39,4,5,7
1532062149802,-2,7,14,-24,-39,3,11,-10
1532062149807,1,-4,-13,2,23,-9,-2,-4
1532062149812,5,9,7,6,17,3,0,4
1532062149817,-6,5,-14,-13,-30,-4,2,-8
1532062149822,-4,-7,22,43,26,-1,-5,0
1532062149827,-4,-4,-32,-15,0,-3,-3,-7
1532062149832,-2,-8,-41,-7,-24,-4,-2,-1
1532062149837,5,4,13,11,94,7,6,-1
1532062149842,1,4,1,-16,-61,5,-1,-1
1532062149847,-10,-5,-3,-4,6,7,-2,-13
1532062149852,4,2,-29,19,-42,-3,-5,11
1532062149857,-6,-4,-22,-19,-43,-11,-1,0
1532062149862,-2,-14,-12,4,44,-5,-1,-11
1532062149867,-4,6,24,1,6,1,7,-10
1532062149872,7,5,-7,-3,36,7,3,-3
1532062149877,1,3,1,4,-23,6,6,1
1532062149882,-4,-1,29,33,15,-8,-10,2
1532062149887,1,-9,-17,-17,12,-12,-1,2
1532062149892,-6,8,7,20,-2,15,4,-15
1532062149897,8,7,4,12,-20,-1,-7,19
1532062149902,4,3,21,20,55,3,3,2
1532062149907,-8,-12,-12,-21,-64,-9,-19,-4
1532062149912,-5,-12,-12,-10,7,-4,-5,-3
1532062149917,-1,1,-28,-39,-27,-2,1,-5
1532062149922,7,11,7,36,20,-1,-2,8
1532062149927,3,-9,-4,4,51,4,7,0
1532062149932,-2,-2,-22,-21,-16,-3,-5,-6
1532062149937,-1,4,20,-18,-39,-2,5,-5
1532062149942,-2,-6,-16,2,5,0,3,-3
1532062149947,9,14,8,-2,-16,-2,4,12
1532062149952,4,0,8,-11,28,2,5,5
1532062149957,-4,-6,1,24,40,2,-8,-6
1532062149962,-1,-6,-34,-43,-47,-3,1,-7
1532062149967,4,9,-20,-4,-35,0,2,9
1532062149972,0,2,26,10,8,-3,-8,2
1532062149977,0,-1,16,10,-4,-2,-13,1
1532062149982,6,8,11,-14,24,2,8,2
1532062149987,-2,8,13,30,37,10,-1,-3
1532062149992,-5,-6,-14,-28,-43,-11,-11,-3
1532062149997,1,7,29,17,-13,1,3,5
1532062150002,1,6,29,3,-4,1,-8,3
1532062150007,-2,-3,7,-5,12,-2,-2,-3
1532062150012,0,-3,-27,2,21,3,-3,1
1532062150017,2,-7,5,1,-13,0,12,-1
1532062150022,-6,-8,-31,-13,-13,-5,-13,-6
1532062150027,5,6,22,5,19,6,8,0
1532062150032,-3,-5,-15,4,6,-1,1,0
1532062150037,1,0,-20,-21,-22,-3,-3,1
1532062150042,-3,0,21,-13,-18,-7,-1,-3
1532062150047,-2,-7,-2,-13,6,0,0,-2
1532062150052,-9,-10,14,10,-11,-6,3,-5
1532062150057,3,-6,-21,-10,-1,4,3,3
1532062150062,-1,-4,-14,4,-1,-2,-5,4
1532062150067,1,7,30,3,7,-2,-6,0
1532062150072,1,9,19,7,10,4,2,-4
1532062150077,-4,-4,1,5,-5,-3,-1,-7
1532062150082,0,2,-16,-19,-3,-3,3,-3
1532062150087,0,2,-6,-2,4,3,-3,0
1532062150092,1,3,0,8,7,1,1,4
1532062150097,-7,-4,6,9,5,-3,-10,-4
1532062150102,-1,-5,-42,-15,-13,1,4,-3
1532062150107,0,0,2,-1,-2,-4,23,-5
1532062150112,-1,2,26,10,3,0,-14,18
1532062150117,2,3,-25,-22,2,0,-21,-25
1532062150122,-4,-3,9,9,5,0,2,-4
1532062150127,4,2,-6,8,-2,-2,-3,0
1532062150132,4,11,22,5,6,2,23,3
1532062150137,-3,2,38,12,-7,1,10,3
1532062150142,2,0,-21,-7,-4,-3,-2,4
1532062150147,-2,-4,-6,-10,-8,0,-6,-1
1532062150152,-2,-1,-4,3,4,2,15,-10
1532062150157,-3,-3,6,18,-1,-1,-22,4
1532062150162,9,6,20,0,2,4,4,1
1532062150167,0,0,-1,2,0,-3,-1,10
1532062150172,0,-1,-7,-18,-3,-4,-1,-4
1532062150177,-2,2,3,12,-3,2,6,3
1532062150182,-4,-6,12,0,3,-4,-8,2
1532062150187,-2,1,14,1,-1,-2,-7,-4
1532062150192,6,3,-1,2,3,1,16,23
1532062150197,-3,-7,-42,-17,-3,-1,-4,-7
1532062150202,-4,-4,2,2,3,-3,-5,-7
1532062150207,2,2,3,4,-3,2,-6,0
1532062150212,0,-4,-38,-10,-4,-4,-5,-4
1532062150217,-4,-14,-20,6,-3,-3,11,2
1532062150222,2,0,1,12,1,-1,-20,3
1532062150227,-4,-2,-5,-9,2,1,14,-5
1532062150232,-3,-6,0,-5,-1,-1,-13,3
1532062150237,-2,-3,2,2,-1,-3,2,-3
1532062150242,-5,-3,23,13,1,-3,-3,-8
1532062150247,-10,-2,-20,-1,0,-2,-10,-5
1532062150252,7,3,17,-8,0,1,-5,-2
1532062150257,-2,2,13,-12,-4,-3,12,-2
1532062150262,3,2,16,19,4,2,3,13
1532062150267,2,3,8,7,0,0,-11,1
1532062150272,-8,-7,3,7,6,-2,-2,-15
1532062150277,2,3,22,-6,-14,-1,1,5
1532062150282,0,-1,-4,-4,1,1,3,1
1532062150287,1,-10,-12,-11,-4,1,28,10
1532062150292,0,-1,0,0,0,2,23,-21
1532062150297,-4,-5,6,-4,5,-4,-60,12
1532062150302,0,9,-13,0,-1,-3,-10,-27
1532062150307,6,6,8,3,2,-1,3,5
1532062150312,-1,-5,2,-1,-1,-2,5,5
1532062150317,0,2,6,3,-1,2,24,0
1532062150322,1,8,13,-8,-1,3,39,7
1532062150327,-2,-7,7,14,0,-2,-48,0
1532062150332,-4,0,4,-7,-6,-5,-31,0
1532062150337,2,-5,-20,3,1,-3,16,-12
1532062150342,-2,1,7,-4,-1,-1,-5,2
1532062150347,1,0,-4,-2,0,1,15,-7
1532062150352,1,3,21,6,0,3,4,2
1532062150357,2,2,9,-4,-4,0,51,11
1532062150362,0,-3,21,15,0,-3,-52,5
1532062150367,-3,-2,-2,10,0,-1,18,-4
1532062150372,-3,2,-33,-5,-5,-4,-41,3
1532062150377,12,12,16,2,6,4,9,11
1532062150382,-4,-8,-3,-5,-1,1,30,-3
1532062150387,0,0,2,-5,-4,1,1,-13
1532062150392,-11,-5,-2,3,-1,-4,-7,16
1532062150397,0,-6,-3,-2,-2,0,-6,0
1532062150402,1,-1,-9,-9,-2,1,43,9
1532062150407,-15,-11,-5,-10,-7,-10,-79,3
1532062150412,10,7,0,11,5,3,25,-35
1532062150417,1,4,10,4,-4,1,38,27
1532062150422,-5,-2,-9,-10,-1,-5,-38,-31
1532062150427,0,0,0,1,0,-2,64,2
1532062150432,0,3,23,4,-1,3,-12,-7
1532062150437,-5,-5,-1,-2,-1,3,61,-8
1532062150442,-8,0,-1,-2,-5,-7,-80,17
1532062150447,6,-1,7,-3,2,-2,15,-4
1532062150452,3,0,-1,0,-1,2,22,2
1532062150457,-1,2,11,-2,-1,-2,-13,-5
1532062150462,0,-3,-9,2,2,3,24,7
1532062150467,0,-1,-4,-1,0,-1,-13,4
1532062150472,0,1,0,-4,-6,-3,-17,-8
1532062150477,-4,-8,-25,-1,1,0,-18,-11
1532062150482,-1,-6,-3,-4,1,1,8,3
1532062150487,0,-1,-1,1,0,0,-21,7
1532062150492,3,5,-3,1,1,3,40,-4
1532062150497,-5,4,1,-2,-1,-3,-22,-4
1532062150502,-1,-12,-7,-3,-2,1,-9,-4
1532062150507,3,3,0,3,0,4,54,5
1532062150512,-3,-1,6,-1,1,-3,-29,14
1532062150517,-3,-4,-5,-5,-2,-6,-26,-11
1532062150522,4,10,-12,-2,1,2,10,6
1532062150527,0,-9,-1,6,-2,0,48,18
1532062150532,-5,-5,-3,0,2,-6,-53,9
1532062150537,-6,1,-4,-6,-4,-2,-61,-20
1532062150542,3,6,5,2,0,1,36,-8
1532062150547,-1,-6,-15,-4,-1,0,9,-7
1532062150552,-7,-6,-9,-8,-4,-5,-26,-17
1532062150557,7,-1,-9,1,3,-2,28,-3
1532062150562,1,-8,3,-4,-3,1,5,13
1532062150567,-2,9,3,4,5,1,-15,-11
1532062150572,-2,-6,-2,4,-1,0,25,-7
1532062150577,0,1,2,-2,-1,1,-17,1
1532062150582,-1,2,1,-5,-4,-1,14,0
1532062150587,6,3,6,3,1,1,6,12
1532062150592,0,-4,-4,0,0,5,17,-7
1532062150597,0,5,6,0,3,3,4,6
1532062150602,-4,-10,-18,-5,-11,-5,0,4
1532062150607,7,-1,8,0,0,0,12,4
1532062150612,-8,1,-3,-2,-5,-1,17,-1
1532062150617,0,1,2,1,0,0,-24,-10
1532062150622,-3,2,-2,1,5,-2,16,32
1532062150627,0,4,-4,-8,-5,-3,-38,-29
1532062150632,5,3,1,1,3,0,14,0
1532062150637,-2,-11,-2,-5,-5,-2,1,1
1532062150642,-1,-1,3,1,-2,-4,-12,1
1532062150647,-10,-2,-3,-1,-3,2,-24,-21
1532062150652,5,3,-4,2,6,3,8,10
1532062150657,-4,-1,-2,-2,-3,-1,-6,1
1532062150662,1,-1,6,-1,-1,-2,-6,-16
1532062150667,-2,-1,-15,-6,-5,-3,4,13
1532062150672,0,-2,1,0,1,-3,-37,-6
1532062150677,-3,-3,8,1,0,-3,3,15
1532062150682,0,1,1,1,1,2,20,-9
1532062150687,-4,-2,-8,-9,-1,-3,-13,2
1532062150692,3,4,-3,-3,-5,2,26,0
1532062150697,-4,-2,-3,3,3,-1,24,18
1532062150702,3,3,-1,-1,0,0,-3,-19
1532062150707,-5,-1,2,3,1,0,-14,-1
1532062150712,-1,-5,-6,-7,-3,-4,1,0
1532062150717,-2,1,-1,0,-4,-5,-8,-5
1532062150722,-1,0,0,-1,-1,4,-1,-10
1532062150727,2,1,3,3,5,2,1,3
1532062150732,-5,-7,-4,-5,-3,-3,5,4
1532062150737,1,-1,-4,-1,-2,-1,-1,4
1532062150742,-2,-2,0,-4,-5,-3,-10,-4
1532062150747,0,1,-5,-2,-2,-2,0,0
1532062150752,-1,-1,1,4,1,0,-2,5
1532062150757,1,-5,-19,-8,-2,0,-8,-4
1532062150762,3,2,3,2,2,1,-5,-1
1532062150767,-1,0,2,3,-1,-1,-12,6
1532062150772,-2,-2,-6,-2,-1,0,11,-3
1532062150777,4,1,-7,-1,-2,0,-23,-29
1532062150782,-2,2,12,9,1,1,23,13
1532062150787,-8,-14,-29,-24,-7,-6,-11,27
1532062150792,0,0,5,4,2,0,-3,-11
1532062150797,2,-1,-5,0,-1,1,6,-1
1532062150802,-3,-1,-3,-1,4,2,-8,0
1532062150807,2,2,10,6,-3,0,-1,-7
1532062150812,0,-1,0,-4,-2,-1,5,2
1532062150817,-3,-2,5,-4,1,-1,-2,4
1532062150822,-4,-2,-16,-5,-3,-2,-4,-6
1532062150827,2,4,9,2,0,-1,7,-6
1532062150832,-2,-7,-7,-2,-1,-1,-6,1
1532062150837,0,2,12,5,1,2,13,1
1532062150842,-6,-6,-20,-9,-6,-10,-60,-5
1532062150847,2,4,7,4,8,7,25,-7
1532062150852,-2,-4,10,2,2,0,-2,6
1532062150857,-1,-3,-8,-2,-2,-1,3,-4
1532062150862,3,4,13,4,-2,0,13,5
1532062150867,0,5,3,2,-2,-2,-22,-14
1532062150872,-1,-4,-9,-4,-1,-2,12,5
1532062150877,-1,0,5,3,0,-3,-4,-3
1532062150882,-2,-3,12,1,-1,1,11,-3
1532062150887,1,-3,11,-3,-3,-1,-4,-9
1532062150892,0,7,4,1,-1,0,-5,-10
1532062150897,-1,-3,11,0,-3,-3,-16,-9
1532062150902,0,-2,-33,-5,2,2,16,-4
1532062150907,-1,4,4,8,1,-3,-17,-1
1532062150912,0,1,15,1,2,4,-5,4
1532062150917,-2,-3,-15,-4,0,1,4,12
1532062150922,0,1,-2,0,2,0,0,-5
1532062150927,-3,-8,-12,-10,-6,-4,3,-8
1532062150932,-1,2,-6,1,-1,-1,-4,5
1532062150937,2,4,0,5,3,3,2,-1
1532062150942,-1,-1,3,-1,1,-1,3,0
1532062150947,0,0,-6,-1,3,-1,1,-1
1532062150952,-2,-4,2,-7,-8,-4,-10,-5
1532062150957,-3,1,-2,-1,-5,-1,7,7
1532062150962,0,-5,-1,-5,-2,-5,0,-4
1532062150967,0,0,9,7,3,7,25,0
1532062150972,0,-4,-9,0,0,-1,-18,2
1532062150977,-1,-1,2,2,1,1,1,-7
1532062150982,2,3,3,-3,-2,-1,1,3
1532062150987,-1,-1,-2,-2,-1,-4,7,-1
1532062150992,0,1,2,2,0,-2,1,-7
1532062150997,-3,1,-3,-5,1,-2,-5,4
1532062151002,-1,-2,7,4,3,5,3,-2
1532062151007,0,-1,3,4,1,4,-3,6
1532062151012,-1,-2,-4,1,0,0,2,2
1532062151017,1,2,5,0,-1,-3,-4,-2
1532062151022,-2,0,0,1,-1,-3,-1,1
1532062151027,-2,1,7,0,-3,-2,1,-4
1532062151032,-1,-1,-14,-4,-2,-1,-19,-2
1532062151037,1,0,3,-2,-1,-1,9,9
1532062151042,-1,-3,2,-1,1,1,-8,-9
1532062151047,0,1,6,0,-3,0,8,0
1532062151052,-1,-1,-3,-1,0,1,-7,-5
1532062151057,-2,-2,2,1,1,0,4,-2
1532062151062,-1,1,-1,1,0,-1,-3,0
1532062151067,-1,-5,-7,-4,-3,-6,-9,0
1532062151072,-1,2,4,2,1,-1,7,-3
1532062151077,-2,-1,-1,-3,-3,-1,-9,-2
1532062151082,-1,-2,-1,-1,-3,-1,1,1
1532062151087,-1,-1,-1,-2,0,-1,-5,-3
1532062151092,0,0,1,1,0,-2,7,5
1532062151097,0,2,1,0,-1,-1,-14,-3
1532062151102,-1,-3,-7,-2,-1,0,3,2
1532062151107,-1,-2,-5,-3,-3,0,-3,3
1532062151112,0,-4,2,-2,-3,-3,10,9
1532062151117,-1,0,-4,-1,-1,1,0,-10
1532062151122,0,0,12,4,0,0,-3,-3
1532062151127,-3,-3,-3,-2,0,2,-8,-3
1532062151132,0,-1,-3,-1,-3,-2,6,-2
1532062151137,0,-3,-10,-6,-4,-1,11,-3
1532062151142,-1,2,19,3,0,-3,-8,1
1532062151147,-2,-4,-8,0,-2,-2,-3,0
1532062151152,0,-1,3,-1,0,-1,-1,-5
1532062151157,-1,0,-2,0,2,0,1,1
1532062151162,0,1,-4,-3,0,1,4,-1
1532062151167,-1,-1,1,0,1,-3,-5,-1
1532062151172,0,1,0,1,-1,-1,-2,-5
1532062151177,-1,-1,2,0,1,0,-2,-2
1532062151182,-3,-1,-7,-3,-3,1,4,2
1532062151187,0,0,-2,0,2,0,-2,1
1532062151192,-1,-1,0,-1,0,0,2,-1
1532062151197,-1,-1,-2,2,-2,-2,0,0
1532062151202,-1,0,-1,-4,-3,-2,-2,-1
1532062151207,-1,0,-3,-1,-1,-2,-2,0
1532062151212,-1,-1,0,-1,-1,2,0,-2
1532062151217,-2,-2,3,-1,0,-2,-2,-1
1532062151222,0,-1,-6,-3,-1,1,-3,-1
1532062151227,-2,-2,-1,-2,-2,0,2,-1
1532062151232,-1,-1,-2,-2,1,-1,-6,-1
1532062151237,-2,-3,-1,1,-1,3,5,-2
1532062151242,0,-1,0,-2,-2,-1,-1,-1
1532062151247,0,1,-3,0,-1,0,-1,0
1532062151252,0,-2,2,-1,-2,-2,-3,-1
1532062151257,0,-1,-5,-2,0,-3,-2,1
1532062151262,0,1,-3,0,-1,1,2,0
1532062151267,-2,-4,5,-2,-3,-2,2,-2
1532062151272,0,0,-12,-4,0,0,-3,0
1532062151277,1,1,6,3,0,3,6,0
1532062151282,-2,0,1,1,-4,-4,-4,1
1532062151287,0,0,-4,-1,-1,-1,1,1
1532062151292,-2,1,3,1,1,1,2,-2
1532062151297,-3,0,2,0,5,-3,-6,0
1532062151302,1,-2,-10,-2,-2,0,-3,-3
1532062151307,-1,-1,-5,-7,-13,0,-1,1
1532062151312,-2,0,4,0,-1,-3,4,-6
1532062151317,0,-2,-1,-2,1,2,0,-2
1532062151322,-1,-1,-1,-3,0,-3,-4,-2
1532062151327,-1,3,2,5,3,1,-1,-1
1532062151332,0,2,-2,0,-4,0,-3,1
1532062151337,0,-1,-1,-1,1,-1,-2,0
1532062151342,-1,0,2,1,1,-1,3,0
1532062151347,0,-1,0,1,5,0,-3,-1
1532062151352,0,1,-1,-2,-5,-2,0,0
1532062151357,-1,1,2,2,-2,-1,-4,-1
1532062151362,0,0,-2,2,-2,0,2,-1
1532062151367,1,0,-1,-3,0,-1,-2,-2
1532062151372,-1,-3,-5,0,2,-1,1,0
1532062151377,1,0,9,1,1,0,3,1
1532062151382,0,0,15,4,-2,1,3,0
1532062151387,-2,-2,-19,-1,2,-2,-4,0
1532062151392,1,-1,-6,0,-1,0,0,-1
1532062151397,0,0,-3,-4,-3,-4,-5,-2
1532062151402,-1,-2,-1,-2,1,0,-1,-1
1532062151407,-1,1,4,0,1,-1,-2,-3
1532062151412,-2,-2,3,-1,1,-1,-9,4
1532062151417,-4,-3,-6,-1,-6,-2,3,-3
1532062151422,-2,-2,-6,-3,-4,-3,-1,0
1532062151427,-2,0,4,-2,-4,-2,-1,-2
1532062151432,-1,-1,-1,-2,-1,-1,-2,1
1532062151437,1,0,1,1,1,-1,0,0
1532062151442,-1,0,-2,-1,2,2,1,-1
1532062151447,0,0,2,2,1,0,2,2
1532062151452,0,0,1,0,0,0,3,-1
1532062151457,-1,-1,1,0,-2,-1,-6,-2
1532062151462,0,-1,-2,-3,0,-2,2,-2
1532062151467,-1,0,4,0,-1,-3,-1,0
1532062151472,-3,-5,-6,-1,0,0,1,-3
1532062151477,0,3,1,1,-3,4,0,0
1532062151482,-1,-3,-15,-5,-1,-2,-4,1
1532062151487,-2,0,24,3,1,0,-1,0
1532062151492,0,-1,-5,-1,1,-1,6,1
1532062151497,-1,-2,-1,-2,-3,-4,-9,2
1532062151502,-1,-2,-6,-2,2,2,9,1
1532062151507,-3,-4,-2,-3,-1,-2,-1,0
1532062151512,-2,-1,7,0,-3,-2,-3,-1
1532062151517,-3,-2,-15,-5,-1,-2,5,-1
1532062151522,0,1,10,1,-3,0,-4,-2
1532062151527,-3,-6,-9,-2,-2,-2,-10,-4
1532062151532,-2,2,-5,-6,-1,2,0,-4
1532062151537,-1,-1,8,0,1,1,-7,-1
1532062151542,-2,-7,-18,-2,1,2,7,0
1532062151547,0,-1,1,-5,-1,0,1,-1
1532062151552,3,5,3,5,0,0,-3,1
1532062151557,-1,-4,1,-1,-3,-3,-5,-4
1532062151562,-2,1,3,-2,0,-2,-2,-1
1532062151567,1,0,13,1,0,2,1,-2
1532062151572,-3,-2,-11,4,0,0,1,-1
1532062151577,2,4,33,3,-2,0,3,0
1532062151582,-2,-5,-57,-13,0,-3,-4,1
1532062151587,-2,-1,19,4,-3,-2,0,1
1532062151592,1,10,80,17,-4,-3,3,1
1532062151597,1,4,-11,-5,-1,0,0,0
1532062151602,-1,-11,-30,1,1,1,-5,-3
1532062151607,-2,-7,-33,-21,1,-4,-4,2
1532062151612,0,0,-3,0,3,2,-3,0
1532062151617,0,4,15,15,4,1,4,0
1532062151622,1,5,17,1,-13,-8,-5,-2
1532062151627,-2,-4,-19,-2,35,0,-2,-2
1532062151632,-1,-1,-6,7,-6,8,9,1
1532062151637,-2,-9,-19,-17,-33,-8,-1,2
1532062151642,0,2,7,4,2,-3,-3,1
1532062151647,2,2,8,-4,-10,1,1,-2
1532062151652,-2,-4,-10,-1,9,-3,-6,-4
1532062151657,-2,-4,-20,-2,12,4,0,-2
1532062151662,0,1,37,3,-5,-1,0,-1
1532062151667,-1,0,-26,2,3,-3,-5,-2
1532062151672,0,-3,-30,-12,4,2,3,-1
1532062151677,-3,-1,31,-7,-14,-4,-4,0
1532062151682,-1,1,11,-2,2,-3,-1,-1
1532062151687,-2,0,7,7,-5,-1,1,-2
1532062151692,-1,-3,-14,-5,0,-2,-5,-1
1532062151697,-1,-5,-20,-5,4,0,3,-1
1532062151702,-1,2,14,-1,2,1,0,-3
1532062151707,1,-1,-21,-2,-4,0,0,-1
1532062151712,-3,-4,-1,-8,-6,-2,-3,0
1532062151717,0,3,6,1,2,0,0,1
1532062151722,2,3,12,3,3,2,3,0
1532062151727,1,-1,-5,2,-3,5,1,-2
1532062151732,1,1,-7,-1,-5,-5,-4,0
1532062151737,-1,-4,-8,-2,4,0,0,-2
1532062151742,-2,-2,-3,-5,2,-1,-3,0
1532062151747,-1,-1,3,0,-7,-3,-1,0
1532062151752,0,0,6,-1,-1,-1,-2,-1
1532062151757,-3,-1,-5,-1,3,-1,-3,-1
1532062151762,-1,0,-12,0,-2,1,1,0
1532062151767,0,2,11,1,-5,0,-1,1
1532062151772,-2,-2,-3,-5,-2,-2,0,0
1532062151777,1,-1,-6,2,3,-1,-1,1
1532062151782,-1,1,-6,-1,0,-1,-2,1
1532062151787,-1,-1,6,1,0,2,1,-2
1532062151792,0,2,2,0,-3,-2,-2,-1
1532062151797,0,1,-4,-1,3,0,-3,-2
1532062151802,1,0,15,4,3,2,3,-1
1532062151807,-1,-3,-12,0,-3,-3,-1,0
1532062151812,0,-3,-2,-1,-2,0,-3,-1
1532062151817,-1,-1,-3,0,0,-1,0,-2
1532062151822,-1,0,1,-1,-2,1,-4,-2
1532062151827,1,0,-4,0,-5,2,2,-1
1532062151832,-1,3,2,-1,1,-1,-1,-2
1532062151837,0,4,33,8,1,0,0,0
1532062151842,-4,-9,-40,-12,-3,-1,-2,-3
1532062151847,0,2,2,-1,0,-1,-1,2
1532062151852,-1,-4,-10,-4,-3,-1,1,-2
1532062151857,-1,-3,-4,-3,-2,-1,-6,-2
1532062151862,0,3,11,4,-1,0,-3,-2
1532062151867,0,2,9,0,-2,-1,1,-1
1532062151872,-2,-4,-3,-4,-2,0,-1,-1
1532062151877,2,0,-8,0,1,1,3,-1
1532062151882,-1,-2,4,0,-1,-2,-1,0
1532062151887,-1,-4,-13,-3,-2,0,-3,-2
1532062151892,1,-1,12,3,1,1,0,0
1532062151897,0,-1,-14,-4,-2,-1,1,2
1532062151902,0,1,8,1,-2,-3,-1,-1
1532062151907,-1,2,8,0,0,2,-3,-1
1532062151912,-2,1,-5,-1,-1,-2,0,-4
1532062151917,-1,-4,-8,-1,-1,-1,-3,-1
1532062151922,0,-2,14,-1,0,1,-2,0
1532062151927,1,1,-21,-2,-2,-1,2,0
1532062151932,0,-3,10,-1,-1,-1,-4,-2
1532062151937,0,0,1,-1,1,1,1,-1
1532062151942,-3,-2,4,-1,-3,-4,-1,-2
1532062151947,-1,-1,3,0,-2,-2,-2,-3
1532062151952,-2,-1,-6,-5,0,-1,1,0
1532062151957,-1,0,-2,0,2,-1,-5,-2
1532062151962,1,1,-5,-1,2,1,0,2
1532062151967,-1,-2,14,2,-3,-4,-3,-2
1532062151972,-3,-3,-10,-6,0,-1,2,0
1532062151977,-1,-2,1,-1,-1,-1,-1,-1
1532062151982,0,1,-6,-1,-1,-3,-2,0
1532062151987,-1,1,2,0,-1,1,1,-2
1532062151992,1,-2,-4,-2,-2,-2,-1,-1
1532062151997,-1,2,4,2,-2,-4,2,-1
1532062152002,-1,-1,-2,-1,-1,1,-1,-2
1532062152007,0,1,3,0,2,-1,1,1
1532062152012,0,2,-3,-1,0,0,0,-2
1532062152017,-1,-2,-7,-1,-1,0,0,0
1532062152022,0,-4,-9,1,0,-3,-3,-2
1532062152027,1,5,21,2,0,-1,3,0
1532062152032,-1,-1,-12,1,1,1,-5,2
1532062152037,0,-1,-3,-3,-3,-3,0,-1
1532062152042,0,0,1,-1,-1,1,0,-2
1532062152047,0,-2,-4,-1,-2,-2,0,0
1532062152052,0,0,4,-1,-1,0,0,0
1532062152057,1,-1,-3,-3,-1,-2,-1,0
1532062152062,-1,1,-4,-1,0,-1,-2,-1
1532062152067,-1,-2,2,1,0,0,3,-1
1532062152072,0,1,5,2,-1,-1,-1,-3
1532062152077,-3,-4,2,-3,-1,1,0,0
1532062152082,0,1,-8,-3,1,0,-1,0
1532062152087,-1,0,-3,-2,0,1,-4,0
1532062152092,-1,0,0,1,0,-1,1,1
1532062152097,-1,0,-1,-2,0,-1,-1,-2
1532062152102,0,-1,4,-1,-1,1,-2,-1
1532062152107,1,0,0,0,1,-3,2,0
1532062152112,-1,-2,-1,0,-2,-1,-1,-2
1532062152117,-1,-1,-6,-6,-1,2,-2,0
1532062152122,-1,-3,0,-1,0,0,0,1
1532062152127,-3,-2,-6,-2,-1,-1,-2,-2
1532062152132,-2,-2,-7,-4,-1,-1,1,1
1532062152137,0,1,8,1,1,-3,-1,-1
1532062152142,-1,0,2,-2,-1,-1,-3,-1
1532062152147,-1,-6,-25,-4,-2,-1,0,-2
1532062152152,-1,4,19,3,0,-3,-6,-1
1532062152157,0,0,-6,0,2,1,10,-1
1532062152162,-1,0,3,1,-2,-3,0,-3
1532062152167,-1,-2,-4,0,1,6,-2,0
1532062152172,0,-1,-1,-3,-1,1,3,-1
1532062152177,-2,0,-8,1,-2,-3,-8,-2
1532062152182,-3,-2,7,-3,-2,-1,6,0
1532062152187,-2,0,3,-2,-4,-5,-2,-1
1532062152192,-2,-2,-2,-2,-1,-1,1,-1
1532062152197,-1,2,9,-1,-3,-1,-3,-1
1532062152202,-1,-5,-13,-5,-1,-2,-5,-4
1532062152207,-1,-1,4,-1,1,0,-3,2
1532062152212,-1,-1,-6,-3,1,0,4,-1
1532062152217,1,2,13,3,-1,-1,0,-2
1532062152222,-1,-1,-13,-1,-1,1,-3,1
1532062152227,-1,0,7,-1,-2,-2,1,0
1532062152232,0,-2,-14,-3,-1,0,-2,-2
1532062152237,0,-2,8,1,-1,-1,0,3
1532062152242,-1,4,8,0,-1,-2,-2,-1
1532062152247,0,-2,0,-2,-4,-7,-4,-2
1532062152252,0,-1,-4,0,2,5,2,0
1532062152257,-3,-3,-7,-3,-1,0,0,0
1532062152262,1,1,1,2,1,1,6,1
1532062152267,-1,0,-4,-3,-1,0,-4,-4
1532062152272,-1,2,13,2,-3,-4,0,-1
1532062152277,-1,-2,-6,-1,-2,-1,-3,-1
1532062152282,-1,1,6,1,-1,0,0,-2
1532062152287,0,2,0,1,1,0,1,0
1532062152292,0,-1,0,-1,-1,-1,-1,1
1532062152297,0,-1,-3,-1,1,0,0,0
1532062152302,-1,-1,1,-2,-3,-3,-2,-1
1532062152307,-1,2,3,3,-5,-2,-14,-1
1532062152312,3,0,-6,-16,4,4,11,-4
1532062152317,-2,-3,13,1,-1,-3,-1,-2
1532062152322,-2,-2,-5,14,-4,-5,-7,1
1532062152327,2,-2,-9,2,4,2,4,-2
1532062152332,-2,4,16,9,-2,-2,-2,0
1532062152337,-2,-8,-12,-13,-2,0,0,0
1532062152342,1,2,-12,11,7,2,1,-1
1532062152347,-2,-1,0,-15,-4,-3,3,0
1532062152352,-1,-8,-3,-3,-4,-3,-7,0
1532062152357,-2,1,-11,-9,2,2,3,-2
1532062152362,-1,-2,3,-9,-6,-2,-2,0
1532062152367,-1,-1,-2,1,-1,1,-1,-1
1532062152372,-2,-3,-9,3,-1,0,7,-1
1532062152377,-2,2,4,3,-5,-2,-3,1
1532062152382,1,2,1,-3,2,1,-1,-1
1532062152387,-3,-4,9,7,0,-1,1,0
1532062152392,2,3,-2,-30,-3,-2,-11,0
1532062152397,3,7,18,38,10,5,11,2
1532062152402,-5,-7,-32,-5,-9,-3,5,1
1532062152407,0,-2,3,-16,-1,0,-6,0
1532062152412,-1,-3,-13,6,1,-1,1,2
1532062152417,0,2,13,-19,-5,-2,-5,-3
1532062152422,1,3,6,0,5,0,0,-3
1532062152427,-1,1,2,11,-1,-1,1,1
1532062152432,1,0,0,-9,-2,-1,1,0
1532062152437,-1,-3,-14,4,3,1,-2,-3
1532062152442,0,-1,0,9,-2,0,1,-2
1532062152447,-1,0,10,16,1,-2,-5,-7
1532062152452,0,2,30,20,4,1,-1,0
1532062152457,-2,-5,-38,-31,-3,0,-4,1
1532062152462,-2,-6,-20,-8,-11,-1,-5,1
1532062152467,3,4,18,50,12,0,0,1
1532062152472,0,7,43,4,7,2,8,-3
1532062152477,-8,-15,-83,-92,-45,-13,-10,-7
1532062152482,3,-1,20,-8,2,1,2,1
1532062152487,1,2,-4,1,2,0,6,-4
1532062152492,-2,-1,22,42,2,-1,-5,1
1532062152497,2,4,18,-22,8,-1,-4,0
1532062152502,0,-1,-29,15,4,2,7,-7
1532062152507,-7,-10,-11,50,-7,-5,-5,3
1532062152512,1,0,-19,7,0,-4,-11,4
1532062152517,1,-2,-2,24,6,0,-2,-2
1532062152522,5,7,20,-48,37,8,4,-2
1532062152527,3,6,7,14,-2,7,3,-9
1532062152532,-11,-15,-32,28,-39,-15,-15,7
1532062152537,4,6,19,42,0,-2,-2,2
1532062152542,-2,-1,15,8,3,-6,-5,-4
1532062152547,-2,-5,-9,-43,33,1,7,-4
1532062152552,1,1,-31,-42,2,19,4,-3
1532062152557,2,9,47,7,-2,7,-2,6
1532062152562,-5,-8,-19,-50,-17,0,10,-5
1532062152567,-2,-2,-17,-21,-24,-10,-7,1
1532062152572,1,-5,-7,23,9,-4,0,-4
1532062152577,-2,1,24,39,34,4,9,-2
1532062152582,-4,-3,-3,39,-20,-5,-8,1
1532062152587,0,1,9,27,1,-1,5,1
1532062152592,1,-1,-15,-44,-9,1,5,-2
1532062152597,1,-3,-12,32,3,-1,-7,1
1532062152602,-3,-2,2,-2,-6,-6,-4,1
1532062152607,0,-1,-1,4,-6,-2,-8,3
1532062152612,0,5,6,-4,5,-2,5,-5
1532062152617,0,-1,3,11,22,3,2,-4
1532062152622,-1,2,12,29,-1,-1,0,1
1532062152627,-1,-2,-21,-63,-30,-6,-5,3
1532062152632,-1,-2,-1,1,10,-5,-2,-2
1532062152637,-4,-3,-6,-17,-15,-3,-3,-2
1532062152642,2,2,12,12,16,12,3,3
1532062152647,1,1,2,-11,-2,9,19,4
1532062152652,1,2,7,1,5,-4,-5,-5
1532062152657,-2,-3,-7,0,-15,-5,3,-2
1532062152662,-1,-3,-4,-10,-4,-1,-6,1
1532062152667,0,0,1,-7,1,-1,-2,-2
1532062152672,-2,-3,-4,2,-4,-2,-2,-1
1532062152677,-1,-2,2,9,-1,-1,-4,0
1532062152682,0,3,5,6,6,1,-5,-1
1532062152687,0,1,-2,-27,0,-2,-1,0
1532062152692,-2,-2,-3,-5,-1,-1,0,0
1532062152697,-2,-3,0,-2,-1,1,1,-2
1532062152702,-3,-2,3,7,-14,-6,-5,3
1532062152707,-2,-2,-1,7,6,5,-2,0
1532062152712,0,1,-2,1,3,2,-1,1
1532062152717,-3,-1,-5,-5,-5,-2,-1,-2
1532062152722,-2,2,6,-3,-1,-5,-6,-1
1532062152727,-1,-2,4,-3,2,-6,-2,-6
1532062152732,-5,-2,-3,-4,14,7,5,-1
1532062152737,-3,-4,-13,-6,-4,-3,-4,2
1532062152742,-1,-2,9,28,-19,-6,2,2
1532062152747,1,-2,-12,-25,-1,-3,-15,1
1532062152752,-4,-4,2,-1,-7,0,18,-1
1532062152757,1,1,-1,1,11,2,2,-3
1532062152762,1,0,1,-3,25,2,4,-1
1532062152767,-3,0,6,25,-12,2,-1,-3
1532062152772,0,-1,-6,-14,-15,-6,-2,1
1532062152777,-1,-2,-10,-33,2,-2,0,-2
1532062152782,1,-2,-7,-14,-25,-5,1,1
1532062152787,-2,-2,3,13,5,1,7,-3
1532062152792,2,0,5,5,31,-5,-10,-4
1532062152797,0,2,8,20,0,7,5,-3
1532062152802,0,1,-5,-11,-20,2,-3,2
1532062152807,0,0,-2,-12,-2,0,-2,2
1532062152812,1,2,4,9,-8,-5,-10,0
1532062152817,2,2,4,16,18,0,12,1
1532062152822,-3,-1,0,2,36,-3,-10,-7
1532062152827,-2,-3,-3,-3,-18,1,0,-1
1532062152832,0,0,0,3,-5,-2,-1,-1
1532062152837,-1,-2,-1,-10,-8,-1,-5,0
1532062152842,2,0,-1,-5,3,4,2,3
1532062152847,-3,-3,2,13,2,3,12,-2
1532062152852,0,-1,-2,-17,-3,1,-7,-2
1532062152857,0,2,7,10,4,-4,-3,-2
1532062152862,-2,-4,-8,-17,0,2,3,-2
1532062152867,2,0,-5,16,26,-5,-6,0
1532062152872,-3,-4,-2,1,-33,-2,-2,-2
1532062152877,0,0,7,4,-10,-3,-8,0
1532062152882,-2,0,3,0,16,1,-6,-3
1532062152887,-1,1,3,16,5,3,-2,1
1532062152892,0,1,-5,-8,-11,1,6,-2
1532062152897,0,1,-1,-8,2,-2,-3,-3
1532062152902,0,0,6,25,-8,-1,-4,-3
1532062152907,-2,-4,-13,-33,-3,-7,-8,-3
1532062152912,0,-1,-6,-2,1,1,0,2
1532062152917,0,-4,-4,-7,-16,-3,-4,0
1532062152922,-2,-2,-2,1,5,-1,2,0
1532062152927,2,3,7,6,-16,0,4,-1
1532062152932,0,0,-5,-12,2,3,0,1
1532062152937,-4,-8,-10,26,-2,-5,-2,4
1532062152942,-1,-3,-6,-48,-16,-3,0,-1
1532062152947,1,1,0,9,11,1,16,-1
1532062152952,1,1,13,-1,4,-2,-5,-2
1532062152957,-1,1,-2,-12,-1,1,9,-4
1532062152962,1,-1,-2,-1,-5,-2,0,-2
1532062152967,-1,-1,7,14,15,2,-8,0
1532062152972,-1,-2,-4,-23,-35,-5,1,-1
1532062152977,-1,-1,0,-3,1,-3,-4,-1
1532062152982,-1,-2,-2,1,-12,-3,-3,-1
1532062152987,0,-1,-1,-15,6,-2,-3,-2
1532062152992,0,-1,2,19,12,0,-4,-3
1532062152997,0,1,-1,-12,-3,0,-5,0
1532062153002,-1,2,4,4,10,4,4,0
1532062153007,1,2,4,18,-2,3,1,1
1532062153012,-2,-5,-19,-21,5,-2,-2,-1
1532062153017,-1,1,14,4,-8,-6,-2,-1
1532062153022,-1,-4,-24,-28,-9,2,3,-3
1532062153027,-5,-3,-8,38,6,-4,-5,-1
1532062153032,1,1,6,-19,-24,-2,5,2
1532062153037,-2,-4,-6,22,3,-2,-2,-3
1532062153042,-1,0,0,7,-1,-2,0,0
1532062153047,0,-3,-1,-17,6,-3,5,0
1532062153052,-3,-3,-1,9,7,6,-4,-3
1532062153057,0,-1,2,-4,-8,0,2,1
1532062153062,-2,1,2,-1,13,-1,-10,-1
1532062153067,-1,-2,-6,-28,-37,-6,-3,1
1532062153072,-3,0,4,25,21,-2,0,1
1532062153077,-2,-2,-1,0,-3,1,3,-1
1532062153082,-1,1,11,26,-1,-3,-3,0
1532062153087,-1,-2,-14,-39,1,0,-1,0
1532062153092,-2,-1,4,15,6,1,-3,-2
1532062153097,2,3,-2,2,2,1,0,1
1532062153102,-1,2,13,-6,8,-6,-12,-1
1532062153107,-1,4,12,26,2,5,12,1
1532062153112,-5,-17,-37,-29,-21,-15,-6,0
1532062153117,0,1,5,10,4,4,-15,1
1532062153122,1,-1,-5,-7,-4,0,9,-1
1532062153127,3,3,23,15,1,0,-10,-2
1532062153132,0,3,8,5,9,-2,4,-3
1532062153137,0,-1,-7,-1,10,1,-1,-2
1532062153142,-2,0,2,-9,-13,6,4,3
1532062153147,-2,-4,-14,-17,-32,-6,-4,2
1532062153152,2,4,4,18,2,-2,-1,1
1532062153157,-2,-3,-1,-17,-13,-5,3,-1
1532062153162,-1,-2,-6,-1,25,0,0,-3
1532062153167,0,-3,-6,12,5,3,2,-2
1532062153172,-1,3,1,-15,0,3,-2,-1
1532062153177,-1,0,7,5,-5,-4,-4,-2
1532062153182,-2,1,0,4,-3,-1,5,-2
1532062153187,1,0,-9,-10,18,3,1,0
1532062153192,-1,-2,35,29,-9,4,8,5
1532062153197,0,-2,-4,-37,3,1,0,0
1532062153202,-2,-5,-28,-9,-18,-5,-4,-3
1532062153207,-1,1,10,-20,14,-8,-7,-3
1532062153212,0,1,-4,43,9,3,-9,1
1532062153217,1,0,-3,-11,10,-1,3,1
1532062153222,2,2,0,16,-10,15,4,1
1532062153227,-6,-6,0,7,-6,-5,-4,-1
1532062153232,1,2,-1,-3,13,-4,-3,-1
1532062153237,-2,-2,-3,6,2,-7,-3,-2
1532062153242,-1,-1,5,1,0,-2,-1,-2
1532062153247,1,0,-8,-19,-22,3,10,2
1532062153252,-1,-3,-1,-3,1,-1,-7,-3
1532062153257,1,1,0,7,4,3,5,0
1532062153262,0,-3,7,12,0,-16,-13,-3
1532062153267,0,0,4,-3,-1,5,2,-1
1532062153272,-1,-6,-15,-16,11,5,7,-2
1532062153277,-2,1,-6,-20,-17,1,-3,2
1532062153282,0,0,3,22,-5,-2,8,0
1532062153287,-2,-1,1,7,0,0,2,-2
1532062153292,0,3,2,-5,9,-1,-1,-2
1532062153297,0,-1,-1,6,6,3,3,-1
1532062153302,-2,-2,3,-4,0,-1,0,3
1532062153307,-2,-3,-6,-11,-20,-7,-7,-1
1532062153312,1,3,5,0,2,-2,6,0
1532062153317,-3,-3,-5,3,15,1,-6,-2
1532062153322,0,1,4,-7,-32,0,-1,-1
1532062153327,1,-1,-4,-5,-1,-3,-6,1
1532062153332,0,0,-2,-1,2,1,-4,-1
1532062153337,-1,-2,0,6,-6,-5,-3,0
1532062153342,0,0,3,0,18,-3,0,0
1532062153347,-2,-3,0,-8,-2,-2,-8,-4
1532062153352,-3,-3,-8,-1,6,-3,0,-3
1532062153357,1,-1,1,-4,-14,7,5,3
1532062153362,0,-2,-2,-3,2,0,3,0
1532062153367,1,-2,-2,3,2,2,2,-2
1532062153372,1,4,12,-3,-13,-8,-13,0
1532062153377,-1,-1,-1,-14,-5,-5,1,-3
1532062153382,0,-1,-2,16,5,1,12,0
1532062153387,-1,-1,0,5,15,0,-13,2
1532062153392,2,-1,-8,-11,-9,2,3,-1
1532062153397,0,0,1,2,-6,2,1,-2
1532062153402,-2,-1,-4,-11,-1,-1,-4,-3
1532062153407,-1,1,4,-8,-12,-3,3,-1
1532062153412,-3,-3,-10,-1,1,0,-1,-1
1532062153417,-3,-4,-10,-36,-18,-4,1,-4
1532062153422,1,0,-1,-8,4,-1,-5,-3
1532062153427,-1,1,-4,-11,9,0,1,-3
1532062153432,-7,-4,12,39,6,2,-6,-4
1532062153437,1,1,1,22,1,1,-4,2
1532062153442,-3,-4,-6,-22,0,-4,-8,-2
1532062153447,1,1,1,-2,-1,1,3,1
1532062153452,3,2,-2,-15,-8,0,3,-4
1532062153457,0,0,-1,14,10,-1,0,-5
1532062153462,-2,-2,-6,-11,-10,0,-1,3
1532062153467,0,-2,-1,5,-3,0,-4,1
1532062153472,2,1,10,5,10,5,14,0
1532062153477,-4,-2,-8,-1,-7,-7,-5,-1
1532062153482,-1,-5,-14,-14,-2,-1,-3,0
1532062153487,0,1,9,9,3,0,-3,0
1532062153492,3,2,6,5,2,0,-4,2
1532062153497,0,-1,-1,-10,-8,-2,2,-3
1532062153502,1,3,0,12,-1,0,-2,-1
1532062153507,0,1,5,19,6,-2,0,-1
1532062153512,-3,-4,-9,-15,-5,-4,-3,-2
1532062153517,1,2,-2,2,5,2,1,3
1532062153522,-1,-2,3,-2,0,1,-9,-2
1532062153527,0,-3,-8,-5,1,1,15,0
1532062153532,-2,0,3,16,-4,-2,-1,0
1532062153537,-1,-3,-4,-3,-4,-4,-18,-1
1532062153542,-1,-1,4,7,1,-1,-2,1
1532062153547,-2,2,5,-6,2,2,8,-2
1532062153552,-1,-1,-4,8,-2,-2,-6,-1
1532062153557,-2,-5,-9,-4,-2,-1,15,2
1532062153562,0,-1,2,1,0,-1,-1,4
1532062153567,-2,-3,-1,19,0,1,-4,-7
1532062153572,0,-1,-10,-22,-4,-2,5,0
1532062153577,2,4,8,10,10,2,-7,-1
1532062153582,0,2,-3,-22,-3,2,7,-4
1532062153587,-1,-1,7,36,-8,1,9,6
1532062153592,0,-5,-17,-17,-7,-1,0,0
1532062153597,2,3,6,6,3,2,3,-3
1532062153602,-2,-3,1,3,31,-1,-9,-5
1532062153607,-2,0,-5,-14,-8,4,1,1
1532062153612,0,0,3,0,-2,1,-8,-1
1532062153617,0,-2,-2,-10,-13,0,-2,2
1532062153622,0,1,0,7,-2,-3,3,1
1532062153627,0,-1,-6,-6,7,0,-5,-3
1532062153632,-1,0,1,-3,-2,0,-4,-1
1532062153637,-1,1,-4,-5,1,-3,-1,0
1532062153642,-2,-1,8,9,-2,1,1,0
1532062153647,-1,-2,-3,-3,0,-5,-10,-3
1532062153652,0,0,-1,0,6,-1,17,2
1532062153657,-2,0,6,8,2,2,-6,-4
1532062153662,-1,0,-1,3,-14,0,5,-4
1532062153667,0,0,-9,-29,-43,-3,-5,3
1532062153672,-1,-4,-6,-10,-9,-5,-2,2
1532062153677,2,1,13,6,3,2,4,0
1532062153682,-2,-2,5,6,8,-1,2,1
1532062153687,0,0,3,10,16,1,3,-2
1532062153692,-3,-1,-3,-8,-6,0,-3,-4
1532062153697,0,-3,-6,-4,-3,-1,4,1
1532062153702,1,1,-2,-5,-5,-1,-5,-3
1532062153707,-2,0,5,1,9,-2,-11,-2
1532062153712,-1,-2,7,29,21,2,0,0
1532062153717,0,0,3,5,6,5,1,1
1532062153722,1,-3,-15,-16,-20,-2,3,1
1532062153727,-4,-7,-22,-1,-3,-5,-11,-3
1532062153732,0,2,12,-2,-2,1,0,2
1532062153737,-4,-2,3,5,10,-3,-5,0
1532062153742,1,3,3,-13,4,2,1,-1
1532062153747,0,1,4,-21,-8,0,1,-1
1532062153752,-5,-1,3,23,-17,0,-6,-2
1532062153757,1,-1,-8,-16,-3,-2,3,0
1532062153762,-2,-2,5,46,-3,0,-1,-4
1532062153767,2,1,14,-6,9,-3,0,0
1532062153772,0,0,-3,-22,-6,-2,-7,-2
1532062153777,-1,-3,-6,-7,-12,-3,-2,-1
1532062153782,0,-1,-2,-5,6,-3,1,-1
1532062153787,0,-1,-2,5,12,2,-2,-4
1532062153792,0,-1,-2,-4,-13,-1,4,0
1532062153797,-1,1,-1,2,-2,-2,2,-3
1532062153802,0,-1,-1,-22,7,2,-2,1
1532062153807,-2,-1,-2,24,-3,-2,-3,2
1532062153812,1,0,-4,-53,-8,-1,-3,0
1532062153817,0,-2,-3,25,5,0,2,-1
1532062153822,-1,-2,5,11,-3,-1,-2,3
1532062153827,0,1,3,48,14,4,-6,-2
1532062153832,-1,-5,-17,-38,-1,-2,-3,-1
1532062153837,0,0,-1,-19,-3,-1,0,-2
1532062153842,-2,1,0,-16,-5,-2,-2,0
1532062153847,-1,-1,-2,-11,1,0,1,-1
1532062153852,2,1,-3,15,3,0,1,-2
1532062153857,-2,-1,-2,-7,0,-4,-6,-1
1532062153862,0,1,2,4,-8,-2,-2,-1
1532062153867,0,0,-5,-3,2,-2,1,2
1532062153872,0,-2,7,8,3,1,9,-1
1532062153877,-1,0,-1,2,6,0,-1,0
1532062153882,-2,-2,-3,-2,-4,-1,-1,0
1532062153887,-1,0,-2,-14,-12,-4,-1,1
1532062153892,1,2,1,-2,1,-2,-1,-1
1532062153897,-1,-1,2,17,1,-1,-2,2
1532062153902,0,1,-2,5,8,1,1,0
1532062153907,-1,-1,-2,-13,2,0,1,-2
1532062153912,-1,-1,4,0,-5,-1,0,0
1532062153917,-2,-2,-4,-17,-3,-2,0,-4
1532062153922,-2,-1,-4,11,-4,-2,-5,-1
1532062153927,0,-2,-4,-17,-2,0,-1,-2
1532062153932,-2,0,0,5,2,-1,-2,-1
1532062153937,0,0,0,12,-2,0,-2,0
1532062153942,1,-1,1,-1,2,-2,-2,1
1532062153947,-2,-1,-2,-1,-1,-2,-1,-1
1532062153952,-1,-3,-9,-11,0,-1,1,0
1532062153957,0,1,-3,-1,-3,0,1,-3
1532062153962,-3,-3,0,-3,-4,-3,0,-2
1532062153967,-1,-1,-5,3,-1,-1,-3,1
1532062153972,-3,0,1,11,3,-1,-4,-2
1532062153977,-1,0,1,-9,-5,-1,-1,0
1532062153982,0,2,2,-15,1,1,1,-3
1532062153987,1,0,-7,-13,-1,2,1,-1
1532062153992,0,-2,4,9,0,-1,-2,0
1532062153997,-1,-2,1,7,0,-2,-1,-4
1532062154002,-2,-4,-1,16,1,1,1,0
1532062154007,-2,-5,-13,-26,-4,-4,-1,-3
1532062154012,2,-1,-3,-6,-1,1,-1,-1
1532062154017,0,-1,2,1,0,-1,-2,1
1532062154022,0,1,-4,4,1,2,-1,-4
1532062154027,-1,1,10,0,-5,-4,-2,-3
1532062154032,1,1,3,20,7,0,-3,-1
1532062154037,-1,-1,-4,-4,-1,0,1,-2
1532062154042,0,0,-1,-4,-1,1,-1,0
1532062154047,-2,-1,-1,-14,-6,0,-2,0
1532062154052,-2,0,0,11,6,0,1,-2
1532062154057,0,0,0,-3,-3,1,-2,-1
1532062154062,0,-1,3,11,-8,-2,-2,0
1532062154067,1,-1,4,-5,2,-1,3,0
1532062154072,0,-1,-3,-8,-7,-2,-4,0
1532062154077,-1,-2,-1,-2,2,0,-2,0
1532062154082,-2,-1,-4,3,1,0,-1,-1
1532062154087,0,0,3,15,5,1,0,-3
1532062154092,1,0,-7,-38,-7,-3,0,-2
1532062154097,-5,-3,0,30,3,-3,-3,-1
1532062154102,-2,3,5,-4,-1,-1,2,0
1532062154107,-2,-2,0,1,0,0,-2,0
1532062154112,-1,0,2,13,1,0,1,1
1532062154117,0,1,-6,-29,-5,-1,3,-1
1532062154122,-3,-3,0,11,-5,-4,-6,-4
1532062154127,-2,-1,0,-3,3,0,-1,1
1532062154132,-1,-2,3,11,-4,-2,-2,-2
1532062154137,1,-1,-1,-1,-2,-1,0,1
1532062154142,-1,-2,-18,-21,-2,-2,-5,-2
1532062154147,1,2,1,16,15,1,2,0
1532062154152,0,-1,6,23,3,1,-2,-1
1532062154157,-2,0,1,-25,2,0,-3,1
1532062154162,2,1,3,-29,-12,2,-2,3
1532062154167,-5,-7,-9,21,-14,-5,8,-1
1532062154172,0,-1,-4,13,8,4,5,0
1532062154177,0,2,5,13,10,0,-1,0
1532062154182,1,0,2,11,5,0,5,1
1532062154187,1,2,4,-6,-6,-5,-9,-1
1532062154192,-3,-4,-10,-15,-1,-1,3,1
1532062154197,-2,-1,-1,-7,-7,2,1,-3
1532062154202,-2,1,3,2,2,-3,-2,-3
1532062154207,-1,-1,1,15,-3,0,2,-1
1532062154212,-2,0,2,9,5,1,-1,1
1532062154217,1,1,1,-14,-5,-3,-4,1
1532062154222,1,-1,-2,-14,0,1,3,-2
1532062154227,-2,-3,-10,-1,-1,0,-5,-3
1532062154232,0,4,15,3,-8,-1,0,-2
1532062154237,-1,-3,-11,-18,3,1,7,2
1532062154242,-2,-2,4,19,7,-2,-16,-1
1532062154247,0,1,0,-12,8,4,8,1
1532062154252,-1,-3,-12,-33,-8,-2,-3,-4
1532062154257,0,1,1,15,-8,-3,0,-2
1532062154262,-2,2,6,6,3,0,2,-5
1532062154267,-2,-3,-5,-19,-8,-4,-8,-4
1532062154272,-1,-1,2,10,-3,-2,-3,0
1532062154277,1,0,2,7,-3,-1,-3,0
1532062154282,1,-2,-4,-11,-1,-1,3,0
1532062154287,0,3,11,6,1,-3,-1,-2
1532062154292,-5,-3,-7,2,-6,-5,-5,-2
1532062154297,-2,-3,-5,-9,5,5,-1,-3
1532062154302,-1,0,5,7,6,6,8,5
1532062154307,2,4,7,0,-1,1,-4,-2
1532062154312,1,-2,-6,9,-1,1,4,2
1532062154317,-2,1,3,14,-3,-7,-3,-4
1532062154322,0,-1,-4,-18,-1,-2,2,-2
1532062154327,-4,-4,-14,-15,-3,0,-2,0
1532062154332,-1,-1,-4,-22,-1,-2,-1,0
1532062154337,-2,-3,5,19,-3,-4,-4,0
1532062154342,1,2,6,3,2,0,6,-2
1532062154347,1,0,-4,-13,-1,-1,-4,-1
1532062154352,2,2,6,42,7,4,-5,0
1532062154357,-3,-5,-9,-51,-16,-4,1,0
1532062154362,0,1,-2,3,-3,-3,-1,3
1532062154367,0,-1,-1,-8,-1,-1,3,2
1532062154372,-2,-2,-2,4,5,2,-4,-4
1532062154377,-4,-2,-2,-17,-5,0,1,-6
1532062154382,4,-1,-2,13,-1,-2,-1,3
1532062154387,2,2,3,19,3,4,23,1
1532062154392,5,2,6,10,1,-3,-12,2
1532062154397,-13,-5,-5,-35,-7,-1,-5,3
1532062154402,-5,-3,-4,-3,-3,0,-3,-9
1532062154407,6,2,7,33,3,-1,-9,-1
1532062154412,7,8,6,-7,3,0,6,-1
1532062154417,12,0,-9,-5,-6,-1,24,6
1532062154422,-4,-3,4,40,5,-2,-27,-1
1532062154427,-2,-2,-2,-4,1,0,18,0
1532062154432,-5,-2,-3,-14,5,-2,-17,-9
1532062154437,7,6,8,8,-9,-1,1,-1
1532062154442,-4,-3,-1,4,8,-3,9,0
1532062154447,-2,-3,8,33,-5,-1,-10,-2
1532062154452,18,2,-16,-11,-2,1,6,8
1532062154457,-21,-5,4,32,11,3,3,-2
1532062154462,4,-10,-8,-37,-13,-2,9,7
1532062154467,-15,1,-3,-5,-2,-3,-20,-7
1532062154472,-21,-12,-2,4,-4,-1,-10,1
1532062154477,15,-1,6,20,10,0,4,2
1532062154482,-15,1,-13,3,-1,0,-4,-7
1532062154487,24,10,16,-15,5,1,3,4
1532062154492,-3,-11,-21,-10,-14,-3,5,-4
1532062154497,-2,4,-6,26,-1,-6,-9,-8
1532062154502,7,8,0,-14,2,1,-3,4
1532062154507,0,-7,-15,-35,-3,-3,-8,3
1532062154512,-4,1,15,-7,-6,-5,14,2
1532062154517,6,-2,-3,33,5,1,-4,1
1532062154522,-13,-4,-10,-16,-9,-4,4,-7
1532062154527,-9,-1,-10,15,3,-2,-2,-6
1532062154532,-4,-4,5,-27,1,-5,0,-2
1532062154537,-1,2,17,30,-13,5,-9,3
1532062154542,5,0,1,-15,-16,-2,1,1
1532062154547,-4,-14,-36,16,2,0,5,5
1532062154552,2,10,7,-9,23,2,-6,-2
1532062154557,0,-4,8,9,-6,-2,-5,-2
1532062154562,7,6,16,-39,3,6,9,-2
1532062154567,-5,3,-7,26,-13,-5,-4,-7
1532062154572,1,-11,16,52,8,-4,-5,0
1532062154577,-8,-11,-19,-44,6,-5,-4,-5
1532062154582,5,8,3,12,2,0,3,1
1532062154587,0,1,-15,-57,1,4,0,-1
1532062154592,-1,5,40,43,-7,-2,-8,1
1532062154597,2,3,-18,24,8,1,4,-1
1532062154602,-1,1,19,12,-1,2,-1,-2
1532062154607,0,3,10,-13,4,-1,-2,-2
1532062154612,1,5,-11,-1,-9,1,8,-1
1532062154617,-4,-10,1,-24,4,-1,1,-1
1532062154622,-1,-5,-20,-2,4,-4,-6,2
1532062154627,-2,2,14,20,0,-1,-4,-2
1532062154632,0,-7,-42,-33,-1,1,6,3
1532062154637,-3,1,66,-18,-8,-4,-3,-1
1532062154642,-3,-3,9,40,10,-2,-4,-3
1532062154647,0,-3,-13,-65,-18,-2,-2,3
1532062154652,0,3,11,35,-3,1,1,-4
1532062154657,1,3,-50,-44,3,1,0,-4
1532062154662,-3,-15,-29,2,-4,-5,-6,-3
1532062154667,1,1,30,35,9,3,5,2
1532062154672,1,1,-12,-21,-4,0,-1,-4
1532062154677,-1,3,-9,9,1,1,1,0
1532062154682,4,3,19,6,3,1,1,4
1532062154687,16,-2,-10,-6,-3,-3,-1,-2
1532062154692,-9,1,1,-15,-5,-1,0,-4
1532062154697,1,-1,1,11,2,-1,-6,-1
1532062154702,-7,-4,-8,-17,-7,-2,2,-2
1532062154707,7,3,9,8,4,3,42,-2
1532062154712,19,5,-4,-17,-9,-2,-22,35
1532062154717,-2,-1,8,9,4,0,-36,-29
1532062154722,7,2,-2,22,0,0,4,-7
1532062154727,-9,-4,-2,-26,-2,-2,-10,-3
1532062154732,-7,-1,-2,-32,-5,0,22,-5
1532062154737,1,0,-10,1,-4,1,8,12
1532062154742,-3,-2,3,-7,-2,-2,-10,1
1532062154747,-6,-2,-1,8,1,-1,-2,-8
1532062154752,-3,-2,0,16,0,0,2,-5
1532062154757,6,5,5,39,9,1,-1,5
1532062154762,-7,-3,-9,-38,-12,-1,2,-2
1532062154767,-5,-1,10,-7,-4,-1,-5,2
1532062154772,0,-5,-15,-8,5,0,-3,-5
1532062154777,-5,-1,1,19,-7,-1,5,-1
1532062154782,-3,-1,-3,30,10,0,6,0
1532062154787,-1,-2,-1,-2,3,-2,-11,4
1532062154792,-4,-1,21,6,-3,-4,-11,-5
1532062154797,1,0,-7,-4,5,4,23,0
1532062154802,1,2,1,-1,2,1,3,-1
1532062154807,-1,-4,-6,-13,-3,-3,-10,-1
1532062154812,-2,-1,-1,12,0,-2,0,-7
1532062154817,-1,1,-4,-35,-5,-1,-1,6
1532062154822,6,4,9,38,2,-3,-3,-2
1532062154827,-4,-5,-11,22,7,-1,-5,1
1532062154832,-2,0,-1,-7,0,3,3,-3
1532062154837,-1,-1,7,35,-23,-3,-5,2
1532062154842,-1,-6,-12,-21,-21,-5,-5,2
1532062154847,-1,2,8,16,2,2,0,-2
1532062154852,-1,0,-5,-7,11,2,1,-2
1532062154857,1,-1,-1,0,14,1,0,0
1532062154862,-1,3,10,-4,1,1,2,-2
1532062154867,-2,-1,1,24,1,0,-4,1
1532062154872,-1,-4,-12,2,-7,-3,0,0
1532062154877,-1,-4,-6,-14,2,1,1,0
1532062154882,-3,-1,-21,-19,1,0,0,-1
1532062154887,-1,3,23,10,-1,0,-2,2
1532062154892,2,8,8,16,6,3,2,-2
1532062154897,-5,-10,-22,-56,-9,-4,-1,-3
1532062154902,2,-8,-5,23,-2,-2,-10,-1
1532062154907,14,6,25,9,3,7,16,6
1532062154912,15,1,7,-46,0,0,-6,-5
1532062154917,-17,0,18,-8,-6,-4,-6,-2
1532062154922,17,16,5,1,7,4,31,10
1532062154927,-44,-27,-14,-37,-11,-3,-36,-8
1532062154932,22,26,43,53,15,1,9,-1
1532062154937,-9,-14,-48,-36,-14,-7,-1,-3
1532062154942,17,-2,-13,-39,-3,-4,0,1
1532062154947,7,8,-15,-3,-3,0,7,1
1532062154952,-11,-4,0,8,-1,-1,-19,7
1532062154957,1,5,0,8,6,2,14,-1
1532062154962,-11,-3,0,8,-5,-2,-2,-1
1532062154967,3,-3,4,3,7,0,7,-2
1532062154972,-14,-16,-39,-12,-13,-4,1,-8
1532062154977,3,1,-8,1,-4,-1,-2,3
1532062154982,-6,3,33,9,10,-2,-10,1
1532062154987,4,7,19,28,11,7,2,0
1532062154992,-6,-6,-41,-35,-23,-5,-1,-1
1532062154997,10,5,25,24,14,-2,-3,0
1532062155002,-9,-3,-28,-16,-12,4,-3,-5
1532062155007,0,0,18,-6,-8,-7,-8,-2
1532062155012,-3,-1,4,-7,3,-1,8,-1
1532062155017,2,5,29,20,11,2,-2,-1
1532062155022,-8,-10,-37,-29,10,4,-10,-1
1532062155027,4,5,-21,-6,-9,-4,11,-5
1532062155032,-4,-4,5,-2,-6,-1,2,0
1532062155037,-1,-1,3,-5,1,-3,-8,-1
1532062155042,-1,2,18,43,3,3,12,-5
1532062155047,4,-1,-27,-30,-3,-3,-4,3
1532062155052,-4,-4,6,3,5,-4,-1,-1
1532062155057,-1,-2,-11,-21,9,5,-4,-5
1532062155062,-3,1,6,31,-9,-1,-8,3
1532062155067,0,2,-8,-59,-13,-3,-2,0
1532062155072,-2,-2,-7,-7,1,-2,3,-1
1532062155077,2,5,15,18,5,-1,-1,1
1532062155082,-1,1,3,-12,-3,1,0,-4
1532062155087,-4,-8,20,-2,5,-2,1,-2
1532062155092,-4,-8,-3,-21,-14,-3,-6,1
1532062155097,1,-1,-5,5,-4,-1,4,-1
1532062155102,-3,1,1,-14,-2,-4,-5,-2
1532062155107,3,-3,-10,38,8,0,-4,1
1532062155112,-1,-1,0,-5,4,3,8,-4
1532062155117,-3,0,-9,7,-8,-2,-3,0
1532062155122,-3,-9,15,-6,5,-1,0,-2
1532062155127,-1,-2,-16,-8,-6,-5,-7,-3
1532062155132,-1,-2,5,6,1,0,2,3
1532062155137,-3,-1,-2,-9,-3,1,-7,2
1532062155142,1,4,16,47,15,2,3,-1
1532062155147,-6,-7,-24,-26,-12,-4,-5,-3
1532062155152,8,-7,1,21,-2,-3,7,1
1532062155157,-10,0,15,5,4,0,9,6
1532062155162,-2,-5,-3,-30,-9,-4,-42,-11
1532062155167,1,1,6,-10,4,2,3,-1
1532062155172,-7,-2,-11,22,-3,-1,-7,-5
1532062155177,12,-3,8,5,-2,0,27,1
1532062155182,-22,-4,-5,-40,-6,-4,-24,0
1532062155187,23,4,-11,28,0,-1,1,8
1532062155192,-19,-7,-5,-31,3,0,-5,-17
1532062155197,7,1,-10,-3,-2,1,8,9
1532062155202,4,0,5,10,-2,-1,10,-11
1532062155207,-7,-3,0,6,0,1,-11,-1
1532062155212,3,8,4,3,7,1,4,6
1532062155217,0,-4,-9,-21,-12,0,2,0
1532062155222,-1,-4,-5,-4,-3,-3,-10,-3
1532062155227,-1,5,11,20,8,2,3,1
1532062155232,2,0,-10,-41,-14,-4,-4,-1
1532062155237,-4,6,2,-6,3,-1,-7,-3
1532062155242,4,-2,-3,0,-3,-3,14,6
1532062155247,0,0,15,35,4,0,1,-2
1532062155252,2,1,-2,-48,-3,0,-3,2
1532062155257,-2,-2,-11,11,-1,-1,-10,-7
1532062155262,0,-5,-3,0,-6,-1,7,2
1532062155267,-3,2,0,1,0,1,6,-3
1532062155272,1,5,8,14,8,1,1,-2
1532062155277,-1,0,1,-4,-5,-2,-9,-3
1532062155282,3,1,-4,0,-4,-3,1,3
1532062155287,-5,-3,13,1,2,0,-4,-4
1532062155292,2,0,9,15,3,0,3,2
1532062155297,1,-8,-41,-11,-6,-6,2,-5
1532062155302,-2,-3,11,22,7,1,-1,5
1532062155307,0,-2,-18,-52,-9,-2,-2,2
1532062155312,-3,-1,8,25,-3,-4,-8,-5
1532062155317,-2,-1,10,21,1,-1,-9,-2
1532062155322,3,0,1,-11,1,-1,3,1
1532062155327,-7,-1,-7,8,1,-2,0,-3
1532062155332,0,-7,-13,1,-3,-1,0,1
1532062155337,-1,1,15,2,2,0,1,-1
1532062155342,3,2,0,10,-1,-1,3,-1
1532062155347,1,0,6,21,3,0,-2,-1
1532062155352,-2,1,-6,-28,-6,0,4,1
1532062155357,-2,0,5,-1,-1,1,-8,0
1532062155362,-1,2,2,-5,-1,1,2,-2
1532062155367,-1,1,1,3,1,0,3,-4
1532062155372,-1,0,-2,15,-1,2,-3,1
1532062155377,0,0,0,5,2,-1,-3,-1
1532062155382,-2,0,-10,-24,-2,1,3,-2
1532062155387,-3,-2,-9,-12,8,-2,4,-2
1532062155392,4,4,18,37,0,6,-1,1
1532062155397,-2,-2,2,-12,-9,-6,-5,-3
1532062155402,-1,1,0,18,3,2,6,0
1532062155407,1,1,-9,-16,5,-1,-3,2
1532062155412,0,-1,7,3,3,-3,-1,-3
1532062155417,-1,-2,-7,-7,-16,-4,-2,0
1532062155422,0,2,2,-1,-1,-2,-1,-2
1532062155427,-1,-1,-6,2,-1,2,2,1
1532062155432,-2,-1,10,1,2,-1,-2,0
1532062155437,-1,1,11,7,6,3,2,-1
1532062155442,-3,-13,-29,4,1,-2,0,-1
1532062155447,0,-2,8,3,-9,-1,-2,0
1532062155452,-2,2,-4,0,-2,-2,1,-3
1532062155457,1,0,6,33,4,-2,0,-2
1532062155462,-2,2,2,-38,-5,-1,-7,-1
1532062155467,-2,-5,-12,-5,-5,-3,3,-1
1532062155472,0,-3,-15,-1,-1,-2,-2,0
1532062155477,1,2,17,4,5,1,-2,-1
1532062155482,0,2,-2,3,2,1,-1,-3
1532062155487,-1,-1,1,-4,-9,-4,-3,-1
1532062155492,0,1,-3,-4,4,-2,0,-1
1532062155497,0,-2,-7,-13,-2,0,-4,-2
1532062155502,0,4,7,10,6,2,6,0
1532062155507,-1,-1,-3,3,-4,-1,-2,-1
1532062155512,1,1,8,25,7,-1,1,0
1532062155517,-2,-1,-13,-64,-10,-3,-4,-1
1532062155522,-1,-3,-1,5,-2,-2,-1,-1
1532062155527,-1,-1,9,11,-2,0,-2,-1
1532062155532,0,-1,2,-7,-3,1,-2,0
1532062155537,-2,7,-12,-9,5,2,-2,0
1532062155542,1,1,8,3,-1,-2,0,2
1532062155547,0,-2,-5,-9,-2,0,0,-1
1532062155552,0,1,12,21,4,0,1,1
1532062155557,-2,-3,-2,-1,1,-1,-2,0
1532062155562,1,2,-5,-12,-5,-2,1,-3
1532062155567,-1,-1,9,18,4,1,0,-1
1532062155572,-1,-1,-13,1,-5,-2,-1,-2
1532062155577,-2,-5,-17,-30,0,0,-1,-1
1532062155582,1,1,14,14,2,1,0,0
1532062155587,1,1,-6,3,-4,-1,0,0
1532062155592,0,-1,-4,-5,-2,1,-5,-2
1532062155597,0,5,14,28,4,-1,1,-1
1532062155602,-3,-9,-12,-4,-3,-1,2,0
1532062155607,-1,2,24,7,1,1,-1,1
1532062155612,-1,-2,-15,-25,-4,-2,-4,1
1532062155617,0,-1,5,24,2,-2,1,0
1532062155622,0,-1,-11,-22,1,-1,0,-1
1532062155627,1,4,4,16,-2,-1,-1,1
1532062155632,0,-2,-4,-2,-4,-2,-1,-3
1532062155637,-1,-2,9,12,8,6,-3,0
1532062155642,-1,4,-7,-31,-7,-3,-3,-1
1532062155647,-1,-5,-16,-20,-4,-2,-2,-1
1532062155652,0,2,12,-4,3,-1,2,-1
1532062155657,0,-5,-7,35,-5,-2,-1,0
1532062155662,0,0,3,19,0,0,-1,-1
1532062155667,-2,1,0,-3,1,0,-2,-2
1532062155672,0,-1,-5,-5,-5,-4,-2,0
1532062155677,0,-1,-1,1,3,-2,1,-2
1532062155682,1,2,7,17,6,1,1,-1
1532062155687,0,-6,-12,-39,-9,-3,-2,0
1532062155692,-2,-1,-5,7,-4,0,1,-2
1532062155697,0,1,2,-9,-2,0,0,0
1532062155702,-1,0,4,13,-1,0,0,-1
1532062155707,-1,0,-8,-12,2,1,-2,-2
1532062155712,-1,-2,8,8,2,-1,-1,2
1532062155717,-1,-1,4,-22,-5,0,-1,-1
1532062155722,-1,0,1,2,-3,-1,-1,1
1532062155727,-1,1,3,23,5,-2,-1,-2
1532062155732,-1,-1,-9,1,2,2,2,0
1532062155737,0,3,-2,-15,8,1,-2,2
1532062155742,-2,-2,5,11,-8,-2,0,0
1532062155747,-1,-3,-3,-8,1,0,-1,-1
1532062155752,-1,1,3,24,-1,-1,2,-1
1532062155757,-1,-1,-3,-9,-1,-1,-3,-1
1532062155762,-1,0,2,-12,0,2,-3,-2
1532062155767,-1,-2,-23,-9,-2,-1,-1,-1
1532062155772,-1,2,2,-8,1,-2,-3,0
1532062155777,-2,-5,-2,14,1,1,3,-1
1532062155782,-1,-2,0,0,-1,-1,-2,0
1532062155787,-2,1,8,13,-1,-1,-1,-1
1532062155792,-1,0,-5,-21,-4,-1,-1,-1
1532062155797,-1,-4,-8,-4,-6,-3,-2,-1
1532062155802,0,0,3,22,5,0,-2,-1
1532062155807,-1,-2,-4,-33,-6,-1,0,0
1532062155812,0,1,-4,-2,0,0,-2,-2
1532062155817,-1,-1,7,9,-6,-3,0,-1
1532062155822,-1,-2,-3,-9,3,-1,-1,0
1532062155827,0,1,5,34,2,1,1,-1
1532062155832,-5,-5,-13,-49,-5,-3,-3,-2
1532062155837,-1,0,-6,9,-4,-1,-1,0
1532062155842,0,-1,-4,-9,-2,0,-1,-1
1532062155847,0,1,6,9,0,1,0,0
1532062155852,-1,-1,6,16,-1,1,-1,1
1532062155857,0,4,-1,5,7,-2,-1,0
1532062155862,0,-2,-11,-20,-9,-5,-1,-2
1532062155867,0,9,1,-10,1,-2,-2,0
1532062155872,1,-5,4,2,-4,2,2,-2
1532062155877,-1,-2,-4,-1,-4,-1,-2,0
1532062155882,1,4,9,23,4,1,1,1
1532062155887,-1,-4,-8,-19,0,-1,-1,-1
1532062155892,-1,-4,-10,-33,-10,-5,-1,-2
1532062155897,-3,1,-1,0,2,0,1,0
1532062155902,0,0,-5,-6,-1,-1,-1,0
1532062155907,0,-2,3,13,0,-1,1,-1
1532062155912,-1,-2,7,-4,2,2,-1,0
1532062155917,-1,-1,1,8,-2,-3,-4,-4
1532062155922,-2,-1,-8,-33,-2,1,-3,0
1532062155927,0,-1,5,8,-4,-2,1,0
1532062155932,1,1,0,5,1,0,-1,-2
1532062155937,0,-1,4,9,0,1,2,0
1532062155942,-1,3,-2,-6,-2,-3,-1,-3
1532062155947,-2,-6,0,-17,-1,1,-1,-2
1532062155952,-1,0,-1,22,3,0,2,-1
1532062155957,-4,-9,-16,-22,-7,-5,-6,4
1532062155962,0,-1,-1,8,-2,-1,1,-1
1532062155967,-1,-1,9,5,-1,-3,-2,0
1532062155972,1,3,-4,16,5,1,0,-2
1532062155977,-1,-1,0,-34,-2,-1,2,0
1532062155982,-1,-2,-1,31,4,0,-2,0
1532062155987,0,-2,-13,-17,-4,0,-1,0
1532062155992,-2,2,7,13,2,-2,-2,-2
1532062155997,3,2,8,8,0,1,3,-4
1532062156002,-2,-5,-8,-8,-3,-2,1,-1
1532062156007,1,0,1,-3,1,1,0,0
1532062156012,1,-2,-3,-1,-2,-2,-3,1
1532062156017,1,1,-2,4,4,3,3,1
1532062156022,-1,-2,6,-2,-8,-3,1,-3
1532062156027,-2,3,7,24,8,1,0,-2
1532062156032,-3,-8,-10,-22,-5,-1,-2,-1
1532062156037,-1,-2,-5,2,1,-1,-5,0
1532062156042,0,2,5,-9,-2,0,-2,0
1532062156047,-1,1,5,3,-2,-1,0,-1
1532062156052,-1,2,3,-1,0,0,0,-1
1532062156057,-2,0,2,7,-1,0,-1,-3
1532062156062,0,0,-5,1,4,-1,0,-1
1532062156067,-1,-4,-9,-2,-4,-2,0,-2
1532062156072,-2,-5,0,7,-5,-4,-5,2
1532062156077,-2,-2,3,6,1,1,0,-2
1532062156082,-1,0,2,17,3,1,1,-2
1532062156087,0,1,2,-2,-3,0,1,-1
1532062156092,0,-3,-16,-19,1,1,0,-2
1532062156097,-2,1,5,2,0,-2,-1,-2
1532062156102,0,1,5,4,3,1,-1,0
1532062156107,-1,-1,-4,5,-2,-1,-2,-1
1532062156112,2,1,8,6,2,-1,0,1
1532062156117,-1,-2,-6,-4,-3,-2,1,-3
1532062156122,-1,1,-1,-18,0,0,1,-3
1532062156127,-3,-3,-6,-7,-7,-3,-2,-1
1532062156132,-1,0,0,27,4,0,-1,-2
1532062156137,0,1,1,-41,-1,-2,-1,0
1532062156142,0,0,5,4,-3,-2,-1,0
1532062156147,-1,-4,-8,-16,-3,0,-1,-1
1532062156152,-3,3,4,4,1,1,1,1
1532062156157,-1,-3,0,2,-2,-1,0,-2
1532062156162,-3,-5,-4,14,-1,-1,-2,-2
1532062156167,1,1,3,-2,1,-1,0,-1
1532062156172,-2,-2,2,4,8,2,2,-1
1532062156177,-1,-4,-5,19,-8,-2,-2,-1
1532062156182,0,-2,-5,-8,-3,-2,-1,1
1532062156187,-3,-1,0,6,2,1,0,0
1532062156192,2,0,-1,-12,-5,-4,-2,-2
1532062156197,1,3,2,0,4,1,-1,0
1532062156202,0,0,2,14,1,-2,1,-1
1532062156207,0,0,3,-8,4,1,-2,-1
1532062156212,-2,-1,1,5,-3,-1,2,-1
1532062156217,0,5,-9,2,-2,-2,-2,-1
1532062156222,-1,-1,4,-19,-4,-2,0,-1
1532062156227,0,-1,1,16,-1,-1,-1,-1
1532062156232,-1,0,0,-16,3,1,0,0
1532062156237,2,0,3,30,2,1,0,1
1532062156242,-1,-1,-8,-37,-4,0,-1,-2
1532062156247,-1,-2,-2,-1,-2,-2,-2,-1
1532062156252,0,0,-2,-4,-3,3,1,-1
1532062156257,-3,-1,4,1,4,1,-2,-1
1532062156262,2,2,5,16,6,1,2,1
1532062156267,0,2,-4,-4,-4,-2,0,-3
1532062156272,-1,-3,0,0,-4,-3,-3,0
1532062156277,-2,-2,3,-8,1,1,2,0
1532062156282,-1,0,3,26,1,1,-2,0
1532062156287,0,-1,-12,-18,-3,-2,-2,0
1532062156292,0,1,-1,1,2,1,3,-1
1532062156297,-2,-4,2,-10,-7,-4,-1,-1
1532062156302,-1,3,14,29,6,0,-1,1
1532062156307,-4,-8,-21,-52,-10,-3,-5,-4
1532062156312,0,1,1,5,0,-1,2,-2
1532062156317,-2,-5,0,3,-1,-1,-2,0
1532062156322,0,-3,-1,4,0,-1,0,-2
1532062156327,1,1,6,2,1,0,0,1
1532062156332,-1,-1,-4,-14,-2,0,-1,-1
1532062156337,0,-1,-5,-2,-3,-1,0,-1
1532062156342,-1,-3,-17,-40,-7,-2,-2,0
1532062156347,1,3,3,13,3,2,0,-2
1532062156352,-3,0,6,13,-4,-4,-8,-2
1532062156357,-1,2,-7,-6,3,0,3,-2
1532062156362,-1,1,-4,-17,-7,-1,-2,0
1532062156367,1,3,15,25,9,3,2,-2
1532062156372,-3,-6,-14,-23,-6,-5,-4,-1
1532062156377,0,2,-3,-8,-5,0,0,-1
1532062156382,-1,-2,-9,-6,1,-1,1,-1
1532062156387,0,-1,9,10,0,-1,2,1
1532062156392,2,2,5,11,4,0,2,-2
1532062156397,-1,-3,-2,-10,2,-2,-3,0
1532062156402,-2,-5,-13,-27,-7,-2,-3,0
1532062156407,0,0,4,2,4,1,-3,0
1532062156412,0,2,9,18,2,1,0,2
1532062156417,-1,-6,-17,-30,-11,-4,-4,-3
1532062156422,0,0,1,4,1,-1,3,-1
1532062156427,-1,-2,-5,9,-6,-3,-2,-2
1532062156432,-1,1,1,2,3,0,-2,0
1532062156437,0,2,10,10,3,-1,1,0
1532062156442,-1,-2,1,7,0,-3,-1,-1
1532062156447,-1,-2,-1,13,2,0,0,0
1532062156452,0,-2,5,15,1,0,0,0
1532062156457,-1,1,-15,-52,-8,-3,-2,-1
1532062156462,-4,-7,-1,-13,-2,0,-1,-3
1532062156467,-1,0,3,5,2,1,0,0
1532062156472,-1,-1,-1,-5,-2,1,0,0
1532062156477,-1,-1,0,21,2,-1,-1,-4
1532062156482,-1,-1,1,-2,-7,-4,-1,-1
1532062156487,-1,1,-3,-6,3,1,-2,0
1532062156492,-3,-2,-4,-6,1,-1,0,-2
1532062156497,0,4,7,3,0,2,-1,1
1532062156502,-2,-3,-8,-1,-3,-2,-2,-1
1532062156507,0,0,6,15,1,0,1,-1
1532062156512,-1,-1,-7,-13,0,0,-3,0
1532062156517,2,0,17,44,6,1,2,4
1532062156522,-4,-4,-20,-50,-6,-4,-2,-3
1532062156527,-1,-2,-5,-14,-4,-2,3,-2
1532062156532,-1,-1,-3,3,-2,-3,-1,-1
1532062156537,-3,-4,3,9,-3,-2,-2,1
1532062156542,0,2,3,16,6,2,-2,1
1532062156547,-2,-1,7,1,-3,-1,-2,0
1532062156552,0,0,2,-4,-4,-2,0,-3
1532062156557,-1,-1,-1,-19,0,0,-1,-2
1532062156562,1,0,0,18,2,2,0,1
1532062156567,-1,3,-4,7,-1,-3,-4,-2
1532062156572,1,0,1,-5,4,1,2,0
1532062156577,-1,2,1,5,-9,-4,-2,0
1532062156582,1,1,6,24,3,-1,0,-2
1532062156587,-3,0,-4,-11,-3,-2,1,1
1532062156592,0,-2,5,4,-1,0,0,-2
1532062156597,-1,0,2,3,6,0,1,0
1532062156602,-1,1,-1,-14,-1,1,-2,0
1532062156607,-2,-2,-4,7,-4,-2,3,-3
1532062156612,-1,2,4,-5,5,2,-1,-2
1532062156617,-2,-5,2,7,0,0,-1,0
1532062156622,-1,-1,9,38,4,2,-1,0
1532062156627,-1,-5,-8,-4,-3,-2,-2,2
1532062156632,-1,-2,1,-34,-7,-1,-2,-2
1532062156637,0,0,-3,15,8,2,1,-2
1532062156642,0,-1,-10,-43,-4,-2,0,2
1532062156647,0,-3,5,11,-1,1,-4,-2
1532062156652,-2,-4,-12,-3,-7,-1,-2,0
1532062156657,1,0,3,22,5,1,0,-2
1532062156662,0,-1,-4,-24,-4,-1,-2,0
1532062156667,-1,1,0,-10,-3,-2,0,-1
1532062156672,-2,-3,-5,17,-1,-3,-2,-1
1532062156677,-1,-2,0,0,-3,-1,-1,-2
1532062156682,-3,-6,-5,1,-2,-2,-1,0
1532062156687,-1,-1,0,-11,2,-1,0,-1
1532062156692,-1,-3,-7,-7,-7,-3,-3,-1
1532062156697,0,-1,0,-11,-2,0,-1,-1
1532062156702,0,3,14,14,6,4,1,-1
1532062156707,-2,-5,-8,-1,-8,-4,-4,0
1532062156712,1,2,-3,-2,1,1,0,-1
1532062156717,-2,0,-4,-1,-1,-3,-1,-1
1532062156722,-1,-1,-4,-17,-4,-1,-1,-1
1532062156727,3,2,3,14,4,2,2,0
1532062156732,-2,-2,-2,6,-4,0,-4,-1
1532062156737,-3,-5,-9,-13,-9,-5,-4,-1
1532062156742,1,2,11,33,15,3,4,1
1532062156747,-2,-2,-2,-17,-9,-2,-2,0
1532062156752,-1,3,2,15,1,-1,1,-1
1532062156757,0,-4,-11,-37,-8,-2,-4,2
1532062156762,0,-1,7,17,9,0,-3,-1
1532062156767,-1,0,-2,-1,3,2,-2,-1
1532062156772,2,1,4,-13,-10,1,1,0
1532062156777,1,0,2,5,-1,1,1,-2
1532062156782,-1,0,-4,-2,-9,-4,-2,-1
1532062156787,-1,-1,3,-8,9,2,1,0
1532062156792,-3,-4,-4,3,0,-6,-3,-2
1532062156797,-2,-1,-2,6,28,5,1,-1
1532062156802,0,-1,0,-2,-24,-4,-3,1
1532062156807,-1,1,1,10,-5,-4,-1,-1
1532062156812,-1,0,-10,-47,-6,1,-3,1
1532062156817,1,0,5,-7,-1,-3,-3,0
1532062156822,0,0,-5,15,9,1,4,-5
1532062156827,-1,-1,6,17,4,-2,0,-3
1532062156832,0,0,1,16,5,1,0,-1
1532062156837,-1,0,1,1,9,-1,1,-2
1532062156842,1,-2,2,-7,-7,-2,-4,-1
1532062156847,-1,0,-2,-3,-7,1,-1,0
1532062156852,0,-1,0,6,2,-1,2,1
1532062156857,-1,-1,-4,-4,-6,-2,-3,-1
1532062156862,1,2,-1,-11,-2,-2,-1,-2
1532062156867,-2,-2,3,21,3,-2,-3,0
1532062156872,0,-4,-5,-18,0,0,2,1
1532062156877,-1,-1,2,3,-5,0,0,2
1532062156882,-1,-2,6,-3,6,3,2,1
1532062156887,-1,-9,-4,-5,-9,-2,-1,-2
1532062156892,-1,0,4,8,1,-4,-1,0
1532062156897,-2,0,-18,0,-8,-2,-1,-4
1532062156902,2,-3,3,-1,-3,-3,-2,-3
1532062156907,1,13,-4,-25,6,0,-1,-1
1532062156912,7,-10,6,50,2,2,3,4
1532062156917,-11,-1,-7,-24,-10,-1,-4,-5
1532062156922,-1,-6,9,9,2,0,10,3
1532062156927,0,-1,-10,-27,-3,1,0,3
1532062156932,2,5,-5,3,2,-3,-10,-6
1532062156937,1,-3,0,2,-2,0,-14,6
1532062156942,1,-1,-18,-3,-2,2,18,-1
1532062156947,8,6,14,28,4,-4,-29,17
1532062156952,-21,1,-7,-13,-2,-2,4,-16
1532062156957,-13,-6,-6,-22,-9,-4,-12,-7
1532062156962,-4,-2,0,2,2,1,14,-5
1532062156967,2,-2,10,0,1,4,20,8
1532062156972,3,4,-5,7,3,1,8,9
1532062156977,2,-5,-5,5,-4,-1,8,-3
1532062156982,0,3,-1,21,2,-2,-13,4
1532062156987,-5,-8,-7,-36,0,1,5,-3
1532062156992,-1,-4,-2,-5,-14,-3,-15,-3
1532062156997,4,4,9,13,4,1,5,2
1532062157002,1,2,-11,3,-3,-4,-2,0
1532062157007,-2,-3,-4,10,15,5,-9,-8
1532062157012,2,-1,0,-3,-6,-2,4,-3
1532062157017,3,-1,9,-22,-25,-5,2,2
1532062157022,-2,2,5,4,14,2,-7,-3
1532062157027,-2,1,-4,-6,-12,-2,0,-6
1532062157032,-2,-7,-3,-6,5,4,0,2
1532062157037,3,1,-6,12,-7,-7,3,0
1532062157042,-2,2,5,-1,6,0,-12,-1
1532062157047,-5,-9,-17,-3,-25,-7,0,-3
1532062157052,4,5,13,9,-9,-1,5,1
1532062157057,0,-6,-15,-31,-1,-1,-5,-1
1532062157062,-1,2,-2,-4,3,1,-4,-4
1532062157067,0,-1,-10,-8,12,-1,3,-6
1532062157072,0,3,17,14,9,2,0,4
1532062157077,-1,-9,23,19,1,3,1,-1
1532062157082,-3,-3,-25,1,0,-4,-7,1
1532062157087,1,4,-2,1,2,1,2,-3
1532062157092,-2,-2,-15,-9,-4,-5,-3,-2
1532062157097,1,2,-7,14,7,0,3,-1
1532062157102,2,6,26,0,2,0,12,0
1532062157107,-4,-8,-33,1,-15,-7,-18,-8
1532062157112,9,-9,-13,-16,-5,-2,19,16
1532062157117,1,18,12,21,17,2,-27,-6
1532062157122,-4,-2,9,-12,-10,0,3,1
1532062157127,0,6,-17,-20,-3,-2,5,0
1532062157132,-6,0,8,1,5,3,8,-5
1532062157137,5,-5,0,17,3,1,13,6
1532062157142,-6,-5,-24,2,-11,-5,-27,-7
1532062157147,5,13,56,44,10,1,3,6
1532062157152,-2,-4,-43,-80,-1,-1,-2,-4
1532062157157,0,-6,25,29,-1,-1,8,6
1532062157162,-1,-1,-4,2,-2,-1,-3,-4
1532062157167,-1,-4,-2,3,8,1,2,1
1532062157172,-2,6,12,22,2,0,-3,-3
1532062157177,-3,-1,-6,-13,-3,-3,-2,-6
1532062157182,4,-3,0,-15,2,1,3,4
1532062157187,-3,-6,-6,-16,-10,-3,0,-4
1532062157192,-2,-1,10,19,5,1,-5,-2
1532062157197,0,-2,-15,-16,0,1,-1,-1
1532062157202,0,0,7,26,-2,0,0,0
1532062157207,-1,3,3,-17,-3,0,4,1
1532062157212,-1,-4,-5,6,1,-2,-7,-6
1532062157217,0,3,6,3,3,-1,0,-1
1532062157222,-1,-2,-4,-18,-14,-5,-3,-3
1532062157227,-1,-1,5,11,5,0,0,-4
1532062157232,-1,0,-5,-3,-4,-3,-6,1
1532062157237,-2,-6,-1,-1,4,0,3,-2
1532062157242,-2,-5,-14,-51,-8,-4,0,1
1532062157247,-1,-2,-6,23,-3,0,-5,-2
1532062157252,0,-3,2,3,-2,-2,-3,-3
1532062157257,2,3,3,-8,-3,-1,3,2
1532062157262,-4,-7,2,21,1,-2,1,-2
1532062157267,-1,-4,-3,-37,3,4,22,8
1532062157272,0,2,20,12,-1,-3,-26,-11
1532062157277,-4,-5,-26,-15,-9,-2,-5,-9
1532062157282,-2,-1,-1,0,-20,-2,0,0
1532062157287,-2,-4,12,4,10,0,-5,2
1532062157292,-4,-3,-16,11,-5,-2,13,1
1532062157297,3,2,9,20,4,-3,0,4
1532062157302,5,-2,8,6,10,2,-5,-9
1532062157307,0,3,-2,-10,-4,1,24,6
1532062157312,3,-2,-6,21,2,-3,-29,1
1532062157317,-23,-6,4,2,8,2,2,-3
1532062157322,5,2,-4,-51,-9,-3,-2,1
1532062157327,7,4,14,43,4,0,-2,-3
1532062157332,-6,0,-5,-10,3,3,8,4
1532062157337,5,5,-11,-39,-1,0,-9,-3
1532062157342,10,6,10,4,-4,-1,20,15
1532062157347,-13,-5,-4,-9,4,-3,-30,-13
1532062157352,0,9,33,-3,2,1,5,6
1532062157357,12,7,6,30,0,2,12,2
1532062157362,-3,1,-19,-30,-3,-2,4,3
1532062157367,16,3,-6,-1,-8,-5,-22,1
1532062157372,-6,-5,-8,-1,9,3,24,3
1532062157377,8,-8,2,36,-4,-1,-17,10
1532062157382,-5,6,17,37,16,2,17,-6
1532062157387,-5,-2,-21,-32,-9,-5,-15,0
1532062157392,-5,-6,7,7,-2,-2,-8,-11
1532062157397,5,4,-29,-9,2,2,2,-5
1532062157402,-1,0,30,29,-2,-4,-1,2
1532062157407,-6,-7,4,19,2,2,5,0
1532062157412,7,5,-20,-25,-5,-2,-13,-7
1532062157417,2,-1,20,-10,1,2,9,6
1532062157422,-8,-15,-14,2,1,0,-24,-4
1532062157427,15,1,0,-5,3,0,18,2
1532062157432,-6,-2,18,7,-3,-2,1,-9
1532062157437,-5,0,-3,-2,-4,-2,-9,-5
1532062157442,3,3,-8,2,2,0,-4,0
1532062157447,0,0,1,-11,-2,0,1,0
1532062157452,5,-6,-13,-21,-10,-3,3,5
1532062157457,-7,-3,5,1,-2,-2,0,-5
1532062157462,-3,-1,0,-14,6,5,1,-1
1532062157467,-10,-5,-6,36,11,-7,-5,-8
1532062157472,2,4,9,5,-9,3,3,2
1532062157477,-7,2,1,-16,-18,-2,6,-2
1532062157482,1,1,0,12,8,-4,-9,-1
1532062157487,-2,-2,-7,-14,-9,-3,-6,1
1532062157492,-4,-2,2,5,18,12,5,1
1532062157497,4,0,-2,-4,-15,-7,-8,-1
1532062157502,1,-2,-2,24,32,5,6,1
1532062157507,-3,2,4,-17,5,0,-12,-11
1532062157512,-1,4,14,11,-17,3,7,3
1532062157517,2,-2,-15,15,-1,3,1,8
1532062157522,-5,-6,-1,-23,9,-8,-10,-8
1532062157527,-10,-5,32,-20,-27,4,-1,-1
1532062157532,1,-6,-57,14,12,1,-1,3
1532062157537,2,-1,3,8,26,3,7,-3
1532062157542,0,-1,-30,-2,-11,-5,-9,0
1532062157547,-1,2,7,11,22,3,11,0
1532062157552,4,10,-5,-22,-14,-3,-2,-1
1532062157557,-4,0,6,-20,8,-5,-4,-5
1532062157562,-2,-4,12,14,-4,3,1,-1
1532062157567,1,-1,-8,-9,-11,-1,1,3
1532062157572,-1,1,-8,-1,-11,-3,-6,1
1532062157577,1,8,9,8,6,0,-1,-5
1532062157582,-4,-10,-24,-9,-4,-3,0,-1
1532062157587,-1,-5,-5,1,-11,2,4,1
1532062157592,-4,-3,16,1,6,-7,-5,-2
1532062157597,-1,1,3,-4,-1,1,1,2
1532062157602,-3,5,30,0,-17,-1,1,-1
1532062157607,-5,-10,-30,1,4,-2,0,2
1532062157612,1,1,-7,-5,5,-4,-4,0
1532062157617,-4,-4,-1,-12,-3,-2,-2,-2
1532062157622,6,6,-1,-6,-12,-2,-1,1
1532062157627,6,4,-4,-1,3,-2,1,-2
1532062157632,-12,0,27,13,10,3,3,0
1532062157637,10,4,-23,8,-6,-1,-4,-3
1532062157642,-9,-4,3,27,-4,0,0,0
1532062157647,10,10,7,-2,2,-3,-3,0
1532062157652,2,-6,-9,1,-1,-2,3,1
1532062157657,-9,0,24,14,4,1,-3,1
1532062157662,7,8,-13,-10,1,3,3,-3
1532062157667,-2,0,-4,5,2,0,1,1
1532062157672,0,-5,2,8,-2,-2,-1,1
1532062157677,-5,-7,-17,-42,-7,-3,0,-1
1532062157682,-2,-2,4,3,-4,-1,1,-1
1532062157687,-6,-1,1,-7,-2,0,1,-1
1532062157692,2,1,5,-11,-1,-3,-2,-1
1532062157697,2,1,-6,-2,3,1,2,-1
1532062157702,0,0,-1,16,-3,-4,0,5
1532062157707,-3,0,8,4,8,2,-2,-2
1532062157712,3,-1,-7,-3,-6,-5,-6,-4
1532062157717,-2,-3,9,20,21,4,1,-2
1532062157722,-4,-1,-18,-38,-22,0,2,1
1532062157727,-1,-1,3,10,3,-2,0,1
1532062157732,3,5,8,6,8,2,3,1
1532062157737,-3,-6,-3,-6,-25,-3,-2,-1
1532062157742,1,-1,-4,-8,12,2,-2,0
1532062157747,1,0,-1,-10,-11,-2,-2,0
1532062157752,0,-3,-4,-13,3,-1,-3,-4
1532062157757,-2,-3,-1,-7,-1,-4,2,-2
1532062157762,2,1,14,10,1,2,0,-1
1532062157767,-2,2,0,-2,1,1,3,-1
1532062157772,0,-3,-9,-4,-6,-1,-2,1
1532062157777,-1,-4,9,4,5,-1,1,3
1532062157782,-1,0,0,-9,-3,-3,-2,-1
1532062157787,-2,-1,-8,-18,0,2,-4,-2
1532062157792,-1,-5,-11,-8,-10,-5,-2,-6
1532062157797,2,3,-6,-8,-5,-4,-1,-2
1532062157802,0,3,7,12,9,2,0,-2
1532062157807,-1,4,-3,14,-2,-1,-1,-1
1532062157812,2,-2,10,-5,4,0,2,2
1532062157817,5,1,-3,-8,-21,0,-1,1
1532062157822,-6,-8,2,-1,12,-2,-1,-2
1532062157827,0,-2,2,11,-7,-4,-1,-1
1532062157832,-1,1,-2,-7,0,0,-1,-1
1532062157837,3,5,-3,11,4,1,-1,2
1532062157842,20,0,9,7,-2,0,1,-1
1532062157847,-12,-3,11,-4,-1,-1,-1,-4
1532062157852,1,1,-5,2,-3,-1,-2,-3
1532062157857,-9,4,27,34,6,1,10,0
1532062157862,2,-6,6,-22,-6,0,-9,1
1532062157867,-4,3,-7,0,1,0,1,-3
1532062157872,3,6,33,8,3,-1,9,3
1532062157877,-3,-4,-19,-9,-5,-1,9,5
1532062157882,6,0,-3,-1,-4,-4,-24,-2
1532062157887,3,0,-10,-8,-2,-1,28,-3
1532062157892,-6,-2,-2,1,2,-1,-31,-2
1532062157897,-5,-1,-4,4,2,1,6,-2
1532062157902,-7,3,-10,-16,-3,-2,6,-5
1532062157907,-1,0,-9,11,-3,0,-8,2
1532062157912,-1,0,-1,-6,-3,0,9,2
1532062157917,-2,-9,-2,-8,1,-1,-6,-1
1532062157922,-8,2,-2,8,0,1,1,0
1532062157927,6,1,6,2,-1,-2,-5,1
1532062157932,-4,-4,-10,-13,-2,-1,5,-3
1532062157937,2,0,-3,5,-3,0,-9,-5
1532062157942,-7,-1,-17,-11,-7,-5,2,-3
1532062157947,-2,-7,1,1,2,-2,-1,1
1532062157952,0,-2,-1,8,26,-3,-3,-1
1532062157957,-2,-3,-1,-2,-11,4,-1,-3
1532062157962,-2,4,-3,-18,-31,-7,5,3
1532062157967,1,-4,-9,-15,-3,2,-4,-1
1532062157972,-3,-2,-2,18,-9,-4,-4,-2
1532062157977,5,3,-3,-20,23,3,0,0
1532062157982,-5,-2,19,33,11,0,2,1
1532062157987,0,-1,9,-6,-10,-1,-8,0
1532062157992,0,-1,-4,-10,0,2,3,-1
1532062157997,-3,-1,-8,27,-1,-1,-1,-1
1532062158002,-2,-1,-3,-3,1,1,2,-1
1532062158007,-1,-5,2,8,6,-2,-4,-1
1532062158012,1,0,-1,-2,-5,1,0,-4
1532062158017,-3,-5,5,-6,-4,-2,0,-1
1532062158022,-1,-1,-3,0,5,2,1,-3
1532062158027,0,-3,3,6,2,-1,-2,-1
1532062158032,-2,-3,-12,-15,-5,-1,0,0
1532062158037,1,-1,0,-3,-5,-4,-7,-2
1532062158042,0,0,9,23,4,1,1,0
1532062158047,0,1,0,1,6,0,0,1
1532062158052,-1,-2,-10,-26,-11,1,1,0
1532062158057,-2,-2,0,1,0,-1,-3,0
1532062158062,-1,5,-8,-10,3,-1,-1,0
1532062158067,-2,-3,1,7,-3,0,0,-1
1532062158072,-2,-2,8,9,0,1,1,1
1532062158077,-1,0,-6,-5,0,0,0,-3
1532062158082,-1,-4,-9,5,-2,-3,-4,1
1532062158087,0,6,4,-20,5,3,5,-2
1532062158092,-3,-6,-1,1,-9,-2,-2,3
1532062158097,-1,-1,0,1,-1,-1,0,-1
1532062158102,-2,-3,-1,-7,0,-1,3,-2
1532062158107,0,1,2,14,3,0,-3,-2
1532062158112,-3,-5,3,-19,-2,0,2,-1
1532062158117,-1,0,-7,-9,-1,-2,-6,-1
1532062158122,-3,-2,1,2,-6,-1,-3,-1
1532062158127,1,0,0,-6,-2,-1,-1,-2
1532062158132,1,3,1,13,0,0,0,0
1532062158137,2,1,-2,-13,-5,-4,-1,-1
1532062158142,0,1,-1,-14,3,1,1,-2
1532062158147,-3,-3,-3,8,-2,1,-3,-1
1532062158152,1,1,12,22,6,2,1,3
1532062158157,-2,-4,-3,-23,-7,-3,-4,-3
1532062158162,1,0,3,5,2,2,1,0
1532062158167,0,-2,-20,-8,-3,-3,-3,0
1532062158172,1,0,7,11,3,-2,-3,-1
1532062158177,1,4,-4,-7,0,1,5,0
1532062158182,-5,-8,1,9,1,0,0,0
1532062158187,0,1,-2,-3,-5,-3,-4,0
1532062158192,0,-1,-8,-3,-2,-1,1,-1
1532062158197,2,5,8,8,6,2,0,1
1532062158202,0,0,-4,-9,-4,-2,-2,-2
1532062158207,-1,1,-2,-8,1,2,1,0
1532062158212,-1,0,-2,9,-1,-1,-1,-3
1532062158217,-1,-3,1,0,-2,1,0,0
1532062158222,-2,0,-1,1,1,1,3,-2
1532062158227,-3,-3,-5,-14,-5,-3,-3,-2
1532062158232,0,3,-1,24,-2,-3,-2,-3
1532062158237,-2,0,8,1,8,3,1,-1
1532062158242,-3,-4,-13,-26,-14,-4,-5,0
1532062158247,-1,1,-6,-21,-1,0,-2,0
1532062158252,-3,-1,-4,17,-3,-3,-3,-1
1532062158257,0,2,8,29,3,-1,-1,-1
1532062158262,-1,0,-8,-22,2,-1,-1,-3
1532062158267,0,0,13,2,-2,-2,0,-1
1532062158272,-2,-2,6,-8,1,0,-4,-2
1532062158277,-1,-3,1,5,-2,-1,-1,2
1532062158282,1,0,2,-3,3,1,1,-1
1532062158287,-1,-2,-4,-4,-2,1,0,-1
1532062158292,0,1,1,-4,3,1,1,0
1532062158297,-2,-5,-12,-20,-11,-5,-4,-2
1532062158302,0,2,1,-15,0,2,2,-1
1532062158307,-2,-4,-2,3,2,-2,-1,-1
1532062158312,1,4,0,-2,-1,-4,-3,-2
1532062158317,0,-1,-4,-15,0,2,1,-1
1532062158322,0,1,2,16,2,2,4,-1
1532062158327,-1,-4,-7,-13,-10,-5,-4,-4
1532062158332,1,-2,-2,3,5,1,2,-1
1532062158337,-2,-4,11,14,-1,1,-3,2
1532062158342,0,0,-1,-2,0,-1,-2,-1
1532062158347,-1,0,-9,-4,12,-2,-1,-2
1532062158352,1,8,6,-2,-9,-3,-3,-3
1532062158357,0,-2,7,5,-14,-2,3,1
1532062158362,1,0,-4,-12,2,1,-6,0
1532062158367,0,3,14,30,1,0,4,2
1532062158372,-3,2,-6,-11,5,0,-3,-4
1532062158377,-2,-1,-8,-11,7,-2,1,-1
1532062158382,-2,-4,-10,-16,-16,-3,-1,-2
1532062158387,0,4,22,18,1,0,-3,1
1532062158392,1,-4,-3,18,2,-2,-2,-1
1532062158397,-2,-1,2,-6,-3,-2,-5,-4
1532062158402,-1,0,-7,6,4,-1,0,0
1532062158407,0,1,-8,2,1,1,4,0
1532062158412,0,-3,0,-16,-5,-1,0,1
1532062158417,-2,0,-1,20,0,-2,-4,-1
1532062158422,-1,-3,1,13,8,0,1,4
1532062158427,-1,2,-3,-12,-8,-1,-1,-3
1532062158432,-1,-2,-1,0,1,0,-5,1
1532062158437,-1,-2,-22,-28,-4,-3,4,-1
1532062158442,2,13,36,2,0,0,-4,-1
1532062158447,-1,-2,-1,12,4,0,-1,0
1532062158452,-2,-6,-11,-24,-5,-2,-1,-1
1532062158457,1,2,-8,-1,3,3,-1,1
1532062158462,-4,-5,9,16,-8,-3,-1,-4
1532062158467,5,8,11,-40,-8,1,3,-2
1532062158472,-4,-12,-6,22,6,0,-5,2
1532062158477,0,2,-3,17,5,-2,-2,-1
1532062158482,-1,0,-14,-36,3,3,5,-1
1532062158487,-1,0,-4,17,0,-1,-3,-4
1532062158492,0,2,18,-2,-8,-1,0,1
1532062158497,1,0,25,-4,-5,1,1,1
1532062158502,-1,-5,-20,3,4,0,1,-1
1532062158507,-3,-7,9,19,-1,-2,0,-2
1532062158512,1,1,-9,3,8,0,-2,6
1532062158517,-2,-3,11,18,-4,-2,-1,-4
1532062158522,1,-2,-13,8,9,1,0,1
1532062158527,-4,-8,-34,-63,-17,-3,1,-5
1532062158532,2,8,20,34,4,0,2,0
1532062158537,5,-5,4,42,9,2,25,18
1532062158542,1,11,19,-12,0,-2,-26,-18
1532062158547,-7,-11,-19,-7,6,1,-4,-1
1532062158552,0,2,7,-2,-6,0,-6,-5
1532062158557,2,2,-7,-26,-5,-1,1,-6
1532062158562,-1,-9,-14,-35,-10,-4,9,5
1532062158567,-1,-1,7,43,7,-1,-6,1
1532062158572,-2,-3,-30,-30,-6,-2,1,-3
1532062158577,0,2,15,17,5,-1,-1,-1
1532062158582,-3,-2,2,1,-8,-2,-1,8
1532062158587,3,14,-22,-25,-1,1,-1,-7
1532062158592,-5,-18,-11,-17,-9,-2,2,0
1532062158597,-8,-17,-13,32,9,0,-12,-3
1532062158602,2,5,-6,-21,-8,0,1,2
1532062158607,0,-2,-8,-5,-4,-4,0,1
1532062158612,4,10,20,22,7,3,6,-2
1532062158617,2,5,-7,-38,-5,1,1,-2
1532062158622,-1,-3,5,8,1,1,-4,2
1532062158627,0,-6,27,14,2,3,-4,3
1532062158632,0,-3,-13,-33,-3,2,3,-6
1532062158637,-2,6,26,38,-8,-4,-13,-3
1532062158642,-3,-4,-4,39,9,-2,7,2
1532062158647,1,-1,3,-12,-3,-1,4,-1
1532062158652,-2,3,5,7,1,-2,-5,-1
1532062158657,-2,-4,-37,-43,-4,0,2,-1
1532062158662,1,4,-3,-39,-10,-2,-1,-3
1532062158667,-2,-3,4,38,10,-2,-2,2
1532062158672,-1,-2,-4,-8,-5,-3,1,1
1532062158677,1,8,16,0,1,2,3,-4
1532062158682,-1,-6,-17,-18,-4,-3,-1,-5
1532062158687,-2,-4,-7,3,0,1,-4,1
1532062158692,0,4,3,-30,2,1,6,-1
1532062158697,-4,2,2,9,-8,-3,-8,-2
1532062158702,1,-4,3,27,5,2,0,0
1532062158707,1,2,11,0,2,-1,0,2
1532062158712,4,11,18,62,7,1,3,-2
1532062158717,-7,-14,-23,-49,-15,-6,-8,-2
1532062158722,0,-1,-4,10,5,1,-2,-3
1532062158727,1,2,-5,7,-8,-3,1,3
1532062158732,0,1,6,9,1,0,-1,0
1532062158737,0,-1,-7,3,-3,-1,0,-7
1532062158742,-3,-3,-5,2,1,-1,-5,1
1532062158747,4,4,14,6,1,0,3,-3
1532062158752,-6,-10,-2,-37,-16,-4,-5,-1
1532062158757,2,4,-3,1,3,2,-2,2
1532062158762,0,-1,26,3,19,0,-5,2
1532062158767,1,0,12,-1,-20,0,5,2
1532062158772,1,3,-7,-16,3,0,-1,-3
1532062158777,-3,2,8,9,5,0,0,-3
1532062158782,2,1,4,36,3,0,-2,4
1532062158787,-3,-3,-12,-21,3,0,-5,-4
1532062158792,2,-2,-16,7,5,1,4,2
1532062158797,-1,-5,-3,-28,-11,-5,0,-5
1532062158802,-2,-1,-33,-5,10,5,-1,-5
1532062158807,0,-1,3,-2,-7,2,1,3
1532062158812,-1,-4,-17,0,-10,-2,-1,-2
1532062158817,-1,-3,-15,4,7,0,-8,-1
1532062158822,1,7,48,-9,-7,-2,7,-2
1532062158827,-2,0,5,13,4,0,-4,-2
1532062158832,0,3,2,-35,7,2,4,-5
1532062158837,-1,0,5,14,2,-3,-6,5
1532062158842,0,-4,-5,2,-6,-3,-1,0
1532062158847,1,-2,-9,-14,2,-2,-2,1
1532062158852,1,1,10,11,3,-2,-3,-1
1532062158857,-3,-2,1,-13,0,-1,0,-6
1532062158862,-2,-1,-11,-22,-12,1,-1,-3
1532062158867,0,7,5,18,1,1,-1,2
1532062158872,-1,7,2,14,3,2,-2,2
1532062158877,-5,-37,-12,-5,-5,-4,-1,-2
1532062158882,-4,-6,-10,-2,-6,-1,-1,-1
1532062158887,-2,-7,-6,-16,0,-3,-2,-5
1532062158892,-2,8,2,25,3,-4,0,-2
1532062158897,-6,6,-1,-27,-7,-4,-6,2
1532062158902,13,-1,10,7,-5,-5,-2,1
1532062158907,-1,-3,-12,1,6,3,1,4
1532062158912,-16,0,0,4,3,5,11,-1
1532062158917,2,10,-9,-11,2,6,-3,-3
1532062158922,-7,0,7,-3,-2,-1,3,2
1532062158927,18,12,-3,1,-4,-3,14,1
1532062158932,-27,-30,-1,27,-1,-5,-25,-1
1532062158937,11,7,-3,-6,5,3,-10,-10
1532062158942,-16,-5,-9,4,-4,-2,4,0
1532062158947,-2,-6,3,1,2,-2,-16,-10
1532062158952,31,3,-1,-13,-1,0,15,10
1532062158957,-14,6,6,11,0,1,0,-3
1532062158962,1,5,1,-14,-5,-3,-7,-6
1532062158967,-8,-7,4,4,-7,-3,4,-1
1532062158972,10,-5,5,3,0,-1,13,4
1532062158977,5,5,-14,12,0,-4,-25,-5
1532062158982,12,-2,-34,-27,-5,0,3,-2
1532062158987,-23,-13,9,8,2,0,3,-3
1532062158992,8,17,8,-3,-3,-3,-12,-8
1532062158997,13,3,22,8,-1,3,16,9
1532062159002,-5,-2,-4,-2,0,1,11,5
1532062159007,3,-2,4,-8,-2,0,-14,-3
1532062159012,-3,1,-3,4,-3,-1,-5,-1
1532062159017,11,4,15,-6,0,1,10,1
1532062159022,-7,-3,10,7,-2,-1,-9,0
1532062159027,6,4,-12,1,2,-1,-3,3
1532062159032,-9,-1,6,-11,-6,1,6,0
1532062159037,2,-13,-3,3,-2,0,24,3
1532062159042,1,-4,-2,-7,-3,-2,-33,-6
1532062159047,-2,1,-11,4,1,-2,4,-4
1532062159052,-5,-5,-5,12,2,-2,-9,-1
1532062159057,-5,1,2,8,2,-1,-3,0
1532062159062,5,2,-8,-4,1,2,12,-1
1532062159067,-4,1,10,-6,2,1,2,2
1532062159072,-2,-4,-11,-17,-5,-3,-10,-6
1532062159077,-4,-4,-4,-9,-11,-7,-2,3
1532062159082,2,1,-2,4,1,1,6,1
1532062159087,2,3,1,0,4,3,-4,-1
1532062159092,0,-3,1,-6,2,0,3,0
1532062159097,-7,-1,-24,-2,0,1,3,-2
1532062159102,-1,6,1,-1,-4,0,-9,0
1532062159107,-3,-11,-13,-13,-6,-3,1,-5
1532062159112,3,1,1,-4,0,0,1,1
1532062159117,-5,2,6,8,4,1,-4,-4
1532062159122,-3,-5,-2,32,3,-2,-7,1
1532062159127,4,2,1,-4,-1,5,40,5
1532062159132,13,4,-1,4,-5,-2,-38,1
1532062159137,-42,-11,6,7,0,-2,1,-7
1532062159142,9,1,2,0,3,-2,-3,3
1532062159147,6,-1,2,-4,-1,-1,-8,-5
1532062159152,-13,-6,-22,0,5,0,11,-4
1532062159157,11,7,10,3,-4,3,1,6
1532062159162,-5,4,2,-19,2,-1,9,1
1532062159167,-9,-6,0,6,-8,-6,-17,-7
1532062159172,4,-5,8,-2,1,-1,6,-1
1532062159177,17,14,8,1,-1,0,-7,4
1532062159182,-23,-14,11,7,1,2,0,-4
1532062159187,-8,14,-7,-2,1,-3,-3,-1
1532062159192,-8,-3,8,-2,-7,-3,3,-4
1532062159197,17,-1,-1,-2,6,-1,29,6
1532062159202,17,-4,18,16,0,0,-21,12
1532062159207,-22,-2,-28,-26,-7,-6,-18,-21
1532062159212,-7,0,-3,5,-1,-2,3,-7
1532062159217,-12,-2,20,5,1,-1,8,6
1532062159222,33,6,0,1,-1,2,10,-2
1532062159227,5,-5,-3,-12,0,2,2,10
1532062159232,4,-1,-6,-3,1,-1,-7,-1
1532062159237,0,-2,-2,7,1,0,-1,3
1532062159242,-12,0,-1,-18,-3,-2,6,-1
1532062159247,8,-2,-4,-6,-10,0,1,2
1532062159252,-9,-2,4,6,-1,2,7,-2
1532062159257,1,-2,-9,3,1,-1,-14,-1
1532062159262,-9,0,-7,-4,1,-3,4,-5
1532062159267,1,2,7,-9,0,0,3,-8
1532062159272,1,-9,8,88,0,-9,-11,13
1532062159277,0,2,-16,-75,2,8,0,-5
1532062159282,-3,-3,-9,4,-4,-4,-12,-5
1532062159287,3,1,14,69,17,3,21,13
1532062159292,0,0,-5,-28,-1,-1,2,-1
1532062159297,1,0,2,23,-8,-9,-10,1
1532062159302,-7,-1,-8,-29,-2,2,2,-10
1532062159307,-1,-5,-6,-35,-8,-2,-8,1
1532062159312,-1,2,9,11,6,3,1,-3
1532062159317,-3,-7,-11,1,2,3,-1,-2
1532062159322,2,3,-1,-21,1,1,6,-1
1532062159327,-1,-4,5,17,-5,-3,-8,3
1532062159332,1,3,0,0,-1,0,0,-2
1532062159337,-1,-1,0,-23,-5,-3,-6,-3
1532062159342,-5,-2,-22,8,-3,-3,5,-1
1532062159347,2,2,11,-16,1,0,-5,0
1532062159352,-2,1,-9,-11,-2,-1,1,-1
1532062159357,-1,-2,-6,3,10,0,-6,-2
1532062159362,-5,-3,-2,-1,-19,-6,-2,-3
1532062159367,2,-2,1,6,5,1,-1,3
1532062159372,1,-1,-10,-29,-3,0,2,-2
1532062159377,-2,0,1,18,1,-4,0,-1
1532062159382,1,0,12,-6,-4,-4,7,0
1532062159387,-2,-4,-14,0,9,3,-1,-2
1532062159392,-3,-3,1,-1,-9,1,7,-1
1532062159397,2,-2,-8,-12,3,0,0,-2
1532062159402,-1,1,5,0,-1,0,-1,0
1532062159407,0,0,5,8,-6,-5,-6,-2
1532062159412,-2,-2,-1,-7,3,-1,-2,1
1532062159417,-2,-3,-3,5,-8,-1,10,-3
1532062159422,0,0,0,7,-1,0,5,1
1532062159427,0,-2,3,-1,2,-1,-3,-1
1532062159432,0,1,-1,7,2,0,-3,0
1532062159437,-2,-3,-2,-13,-10,-1,-4,-1
1532062159442,-1,2,6,13,9,-1,-1,-1
1532062159447,0,-1,-7,-21,-3,0,-1,2
1532062159452,-5,-7,-12,-9,-22,-10,-8,-6
1532062159457,-2,2,5,12,-1,-1,-5,-3
1532062159462,-2,-2,-4,-2,8,3,13,-1
1532062159467,0,2,6,17,4,3,-5,-4
1532062159472,2,1,-2,-7,2,4,1,3
1532062159477,0,-1,-2,-1,-4,-4,-4,0
1532062159482,-2,0,1,8,2,-1,-3,-5
1532062159487,-1,1,13,5,-2,-4,-2,-2
1532062159492,-2,-2,-18,9,25,1,-6,1
1532062159497,-2,-5,-12,-43,-25,-2,-6,2
1532062159502,0,1,2,4,0,1,7,1
1532062159507,0,-2,-3,-14,-9,-3,-1,0
1532062159512,1,-1,-4,-28,-14,-1,2,-4
1532062159517,-4,-2,31,35,6,-5,-5,-2
1532062159522,-2,-3,-9,-16,-5,-3,-13,-1
1532062159527,1,-2,-7,3,0,-1,4,1
1532062159532,2,4,11,9,6,-1,-12,-2
1532062159537,0,1,-5,-3,7,8,15,2
1532062159542,0,-1,9,-3,-3,0,-6,-2
1532062159547,1,2,11,6,8,1,4,0
1532062159552,-7,-11,-18,-13,-26,-12,-13,0
1532062159557,1,1,5,21,6,-1,9,-3
1532062159562,-4,-4,-8,2,13,1,-6,-1
1532062159567,0,2,4,14,-2,5,4,3
1532062159572,-2,1,-2,-25,-17,2,2,-1
1532062159577,0,1,1,16,-5,-4,-3,0
1532062159582,2,-2,-9,-26,-6,-2,3,-2
1532062159587,0,-2,-1,1,-3,-4,1,-2
1532062159592,-1,0,8,1,8,2,3,-2
1532062159597,0,-1,-3,10,25,4,-3,-2
1532062159602,2,1,6,10,1,1,-2,-1
1532062159607,-3,-4,-4,-8,29,-7,-7,-3
1532062159612,-1,0,2,13,-33,6,7,-1
1532062159617,1,1,-7,-10,-21,-7,-5,1
1532062159622,0,0,-3,-25,-16,9,4,4
1532062159627,0,-2,-4,-3,7,-1,-3,2
1532062159632,2,2,7,6,19,-1,5,-2
1532062159637,2,0,0,3,10,-1,-1,-4
1532062159642,-1,-2,1,12,24,-4,-4,-4
1532062159647,-3,0,-1,3,-27,0,0,0
1532062159652,0,1,3,1,7,0,1,1
1532062159657,-1,0,-1,1,4,0,-4,0
1532062159662,-1,0,2,14,54,-6,-1,-3
1532062159667,-3,-3,-3,4,-1,6,-1,-3
1532062159672,1,1,4,-1,-26,-6,-5,0
1532062159677,-4,-5,-24,-32,-70,-5,-1,9
1532062159682,1,-1,4,14,-2,-6,0,2
1532062159687,-3,2,3,6,-12,3,-7,-5
1532062159692,0,-3,-8,-34,42,-9,-3,-3
1532062159697,-1,-1,3,1,-8,6,11,1
1532062159702,-1,0,0,-1,-19,-1,7,0
1532062159707,1,-2,-2,3,3,-3,-4,1
1532062159712,-1,-1,8,8,-3,2,2,-2
1532062159717,0,0,0,5,27,-3,-5,-5
1532062159722,-3,-2,0,10,-14,0,-11,-3
1532062159727,0,-1,-8,-17,-7,-4,4,2
1532062159732,0,1,6,28,23,5,3,0
1532062159737,1,1,4,-9,-11,-2,-5,-4
1532062159742,-2,-4,-4,10,-10,-1,-4,1
1532062159747,1,2,0,-6,3,0,-2,2
1532062159752,-3,-5,-17,-33,8,-3,3,-3
1532062159757,0,-1,1,13,2,-5,-5,-5
1532062159762,0,0,-3,-3,-16,1,-2,0
1532062159767,-1,-1,1,-8,-10,0,1,0
1532062159772,1,1,5,9,11,3,0,-2
1532062159777,0,-1,1,10,3,-5,-6,-3
1532062159782,-1,3,3,-12,-13,0,4,0
1532062159787,-2,-6,-13,-12,7,1,1,-3
1532062159792,-1,0,6,37,-3,1,-6,1
1532062159797,0,-2,-6,-16,-4,-6,-1,0
1532062159802,0,-1,2,0,13,4,-2,-1
1532062159807,1,3,4,15,-9,-5,-2,-2
1532062159812,0,2,1,-11,-5,-1,-2,2
1532062159817,-3,-4,-7,13,30,5,21,-1
1532062159822,0,-1,-7,-21,-29,-3,-1,0
1532062159827,0,-2,-4,-6,1,-3,0,0
1532062159832,-1,0,-2,-6,-9,0,4,1
1532062159837,1,3,19,3,6,3,-6,3
1532062159842,-2,1,-1,8,3,-1,-1,-1
1532062159847,-1,-3,0,4,12,-3,0,-5
1532062159852,1,-1,-3,7,-17,-1,1,2
1532062159857,-2,0,-6,-37,-1,-2,-7,-3
1532062159862,0,-3,-4,1,-4,-1,2,-1
1532062159867,-1,-1,2,1,-3,-2,-2,1
1532062159872,-2,-1,1,0,0,-2,1,-3
1532062159877,1,-1,0,7,-1,-2,-5,-2
1532062159882,-2,-1,1,11,34,3,2,-3
1532062159887,-1,-1,-2,7,-33,-1,-3,0
1532062159892,1,2,-1,-15,-22,-4,-3,0
1532062159897,-1,-2,-6,11,-2,1,0,-1
1532062159902,1,0,1,-2,-2,-3,-3,-1
1532062159907,-1,-2,-5,7,12,0,0,-5
1532062159912,-1,0,4,-1,10,3,2,-1
1532062159917,0,3,2,3,-11,-2,-4,1
1532062159922,-1,0,17,21,3,-1,-2,-1
1532062159927,-1,-4,-31,-27,1,-1,-1,0
1532062159932,-1,-2,1,-23,-10,-3,-1,-2
1532062159937,-2,-1,-4,-2,11,0,-1,-4
1532062159942,-1,0,-2,1,-4,-3,0,-1
1532062159947,-1,-1,6,-10,-3,1,3,-1
1532062159952,-2,0,-1,4,2,0,0,0
1532062159957,-1,-2,1,4,8,2,-2,-2
1532062159962,-1,-3,-15,-19,-10,-1,-2,0
1532062159967,-1,-2,4,12,-2,-4,-1,0
1532062159972,0,-1,-4,-4,15,-3,-1,-2
1532062159977,-2,-2,2,-24,-6,3,0,0
1532062159982,-2,-3,-7,0,-18,-4,-1,-1
1532062159987,0,-2,0,-11,2,-1,-2,0
1532062159992,1,0,7,23,4,3,-1,2
1532062159997,0,2,3,22,7,0,-3,0
1532062160002,0,-1,-3,0,-2,-1,-2,-2
1532062160007,-1,3,10,12,-1,1,-2,-1
1532062160012,-2,-3,-13,-21,-1,0,-1,-2
1532062160017,-1,-2,-5,-5,-2,-3,-1,-3
1532062160022,1,1,10,4,-2,1,0,0
1532062160027,-1,-1,-2,-25,-6,-3,-2,-2
1532062160032,0,0,1,24,1,0,-1,-1
1532062160037,-2,-3,-6,-5,3,3,0,-3
1532062160042,-1,-1,1,2,0,-1,1,0
1532062160047,0,2,6,10,5,0,-1,1
1532062160052,-2,-4,-12,-41,-12,-1,-1,-2
1532062160057,2,1,8,9,-2,-2,-4,-1
1532062160062,-2,-1,-9,0,2,1,3,2
1532062160067,-1,0,2,-6,4,1,3,1
1532062160072,1,0,0,0,-3,-2,-1,-1
1532062160077,1,-1,5,54,7,3,1,2
1532062160082,-2,-3,-7,-13,-9,-3,-4,-3
1532062160087,-1,-1,-2,6,-1,-1,-1,-1
1532062160092,1,-1,-1,4,-1,0,-1,1
1532062160097,0,0,2,-5,4,1,-1,1
1532062160102,0,-1,-9,0,9,1,1,-3
1532062160107,-2,0,15,5,-3,2,-1,-2
1532062160112,-2,0,3,8,-12,-2,-1,0
1532062160117,-1,1,1,-25,8,0,0,-1
1532062160122,-1,-3,-5,-21,-24,-4,-2,0
1532062160127,1,-1,-7,-3,9,2,0,-3
1532062160132,0,0,1,7,-1,1,0,-2
1532062160137,0,-2,-4,-19,-1,-2,-2,0
1532062160142,0,0,7,6,1,-1,-1,-1
1532062160147,-3,-1,-1,5,0,-3,-1,-1
1532062160152,0,1,4,-1,2,0,0,-1
1532062160157,-4,0,-7,5,-1,0,1,-3
1532062160162,-2,-2,2,-9,-5,-2,-1,-1
1532062160167,1,-2,-1,0,-2,-1,-1,0
1532062160172,-1,-1,-6,6,5,-1,-1,-2
1532062160177,0,1,9,8,-3,-4,-1,-1
1532062160182,0,1,1,3,-1,0,-2,-3
1532062160187,-1,-1,-7,-18,-3,-1,-1,-1
1532062160192,-2,-2,1,7,1,-2,-3,0
1532062160197,0,-1,-3,9,-4,-1,2,-2
1532062160202,0,-3,-7,-1,3,1,0,-1
1532062160207,1,-2,-4,10,9,-2,-1,0
1532062160212,-2,0,-1,-9,-11,1,1,-1
1532062160217,-1,-1,-2,-4,2,0,-2,-1
1532062160222,1,2,4,15,3,0,-1,1
1532062160227,-3,0,-6,-31,-2,-1,-2,-1
1532062160232,0,-1,2,11,3,-1,-2,-1
1532062160237,-2,-3,-11,-29,-8,-1,-1,0
1532062160242,0,-2,-8,8,2,1,0,-1
1532062160247,-1,2,15,4,-3,-2,-1,0
1532062160252,-3,-5,-8,-6,-2,1,-1,-1
1532062160257,-2,-3,-6,-16,-12,-2,-2,0
1532062160262,-1,2,10,3,4,-1,-2,0
1532062160267,-1,-3,-3,1,-1,-1,-1,-1
1532062160272,1,1,0,-1,-5,-2,5,-2
1532062160277,-2,-1,-1,5,2,-1,0,1
1532062160282,0,0,1,-3,3,1,-1,2
1532062160287,0,-1,-1,8,-5,-4,-1,1
1532062160292,0,-2,2,5,5,3,-2,0
1532062160297,1,-3,-2,-9,-1,-3,1,0
1532062160302,1,0,5,18,0,-4,0,0
1532062160307,-2,0,3,5,-3,0,-5,-3
1532062160312,-4,0,-7,-11,6,0,-1,0
1532062160317,-1,-1,-3,-12,-5,-2,-3,-1
1532062160322,-2,1,0,-9,3,0,-2,0
1532062160327,0,-1,-2,21,-4,-2,2,-3
1532062160332,-1,-3,-4,-20,-15,-5,-4,-1
1532062160337,0,0,5,17,2,0,2,0
1532062160342,-1,-1,-4,-13,-1,1,-1,-1
1532062160347,1,1,-2,3,5,2,1,3
1532062160352,-1,0,2,11,3,0,-2,-2
1532062160357,-1,2,1,-6,-6,2,-1,1
1532062160362,-1,-3,0,21,7,3,2,0
1532062160367,-1,-1,-7,-9,-7,-2,-2,-1
1532062160372,1,2,3,-2,9,3,-1,1
1532062160377,1,-2,-4,13,-5,-4,-1,-3
1532062160382,1,-3,-5,-33,-8,-5,2,-2
1532062160387,-1,-1,-2,-3,-4,-1,-2,-2
1532062160392,0,1,2,7,6,0,0,1
1532062160397,-1,-1,0,-8,3,0,0,-1
1532062160402,-1,-1,0,-15,-6,1,-3,-2
1532062160407,-1,-2,-2,-22,-2,0,-1,-2
1532062160412,1,-1,3,5,-1,-2,-1,-1
1532062160417,-1,1,5,8,2,0,2,0
1532062160422,-1,0,0,11,-1,-2,-5,1
1532062160427,-2,-2,-9,-30,-7,-1,5,1
1532062160432,-1,-1,4,11,2,0,-1,0
1532062160437,0,-1,-3,-7,4,0,-2,-3
1532062160442,-1,1,0,8,1,-2,1,-1
1532062160447,0,2,2,-4,4,2,-1,1
1532062160452,-2,-2,-3,-2,-4,-1,-2,-2
1532062160457,-2,-3,-5,1,-6,-5,-5,-3
1532062160462,-1,0,4,4,-1,0,1,0
1532062160467,-1,-2,1,19,0,-2,-4,-4
1532062160472,0,1,2,6,4,1,4,1
1532062160477,1,0,0,19,0,0,0,0
1532062160482,0,-1,-4,-31,-4,-1,-3,-3
1532062160487,0,-1,3,31,6,0,-1,-1
1532062160492,-1,-2,-6,-31,-3,-2,1,-1
1532062160497,-1,1,5,18,2,2,-8,-2
1532062160502,0,-1,-8,-25,-15,-2,2,1
1532062160507,-1,0,3,21,-3,-3,1,-1
1532062160512,0,1,-1,0,3,-2,-4,-1
1532062160517,-2,-2,-6,2,2,-2,1,0
1532062160522,0,-1,5,8,3,0,2,-5
1532062160527,-1,-3,-3,2,8,5,-3,0
1532062160532,-1,-2,0,22,-7,-6,-2,-1
1532062160537,-1,-1,-5,-27,-5,-3,1,1
1532062160542,-1,-1,-3,8,2,0,1,-1
1532062160547,1,2,5,3,0,0,1,0
1532062160552,-1,0,2,-2,0,-1,2,-1
1532062160557,-1,0,3,-1,-3,0,1,-1
1532062160562,-1,-4,-4,-25,2,-1,-3,-3
1532062160567,0,-1,-3,11,-1,0,1,0
1532062160572,-1,1,4,13,-2,0,-1,-1
1532062160577,-4,-4,-10,-38,-7,-5,-2,-2
1532062160582,0,-1,-3,7,1,-1,-2,0
1532062160587,-2,-1,-1,-5,-2,-3,-4,-2
1532062160592,1,0,-1,-2,7,2,5,-1
1532062160597,-1,-2,-2,7,-8,-4,1,-3
1532062160602,-1,-1,2,9,3,-1,-1,1
1532062160607,1,-3,-9,-24,-4,0,-2,-2
1532062160612,-1,2,7,15,2,-1,-3,0
1532062160617,0,-1,1,3,0,0,-3,1
1532062160622,0,0,4,15,-2,-1,2,2
1532062160627,1,-2,-7,-12,-8,-5,-1,-1
1532062160632,2,0,1,-19,-1,2,3,2
1532062160637,0,-1,2,7,4,2,-1,-1
1532062160642,-1,2,2,13,5,4,-1,1
1532062160647,-1,2,3,15,6,2,2,1
1532062160652,-1,-1,-4,-12,-2,0,-3,-2
1532062160657,-1,-4,-5,12,-2,-1,-1,-1
1532062160662,2,0,2,19,0,0,1,-2
1532062160667,-3,-2,-4,-35,-4,-2,0,-2
1532062160672,-2,-2,-2,-4,1,-1,-2,-2
1532062160677,1,2,2,15,2,-3,-1,-2
1532062160682,0,-1,2,14,0,2,-2,-1
1532062160687,-1,-2,-2,-19,-2,-2,0,-1
1532062160692,-1,-3,-2,5,-4,0,-2,2
1532062160697,-1,0,2,-7,-2,-2,-1,-3
1532062160702,-1,-3,-6,10,0,-3,-4,-1
1532062160707,0,-1,1,-7,-3,1,2,-3
1532062160712,-2,-2,-9,-14,-2,-3,0,-3
1532062160717,1,0,2,26,1,0,-2,1
1532062160722,-3,-2,-2,-26,-4,-2,0,-1
1532062160727,-1,1,-2,9,-1,-1,-5,0
1532062160732,0,0,2,-6,-3,-1,-1,-2
1532062160737,-1,-1,0,7,2,0,2,1
1532062160742,-1,0,0,0,2,0,-3,-3
1532062160747,0,-1,-5,-13,-3,-1,1,-2
1532062160752,1,1,1,-10,4,3,0,0
1532062160757,-1,-2,-1,15,-10,-3,-2,-2
1532062160762,0,1,2,-19,-1,-2,-5,-3
1532062160767,1,0,2,23,-3,-3,0,0
1532062160772,-2,-1,-1,-27,-1,-4,-2,2
1532062160777,-1,3,3,-6,3,1,-1,-2
1532062160782,-1,-4,-4,-2,-1,-2,-2,1
1532062160787,0,0,4,16,1,2,2,0
1532062160792,-1,-2,-5,6,0,0,0,-2
1532062160797,0,2,8,20,7,2,-1,0
1532062160802,-3,-4,-8,-15,-9,-4,-1,0
1532062160807,-3,-5,-13,11,-1,-1,0,-3
1532062160812,0,4,14,-7,-8,-2,-3,-2
1532062160817,0,1,7,-9,4,0,0,1
1532062160822,0,-1,1,6,5,-1,0,1
1532062160827,-1,3,8,8,2,1,0,1
1532062160832,0,-3,-7,-1,-4,-2,1,-1
1532062160837,-1,-3,-7,-30,1,1,3,-1
1532062160842,-1,2,4,39,0,0,3,-1
1532062160847,9,1,-16,-5,4,-1,-7,-1
1532062160852,-12,-8,-1,-32,-14,-5,-5,-6
1532062160857,-2,-1,-6,0,-2,-1,0,-1
1532062160862,1,1,7,14,5,2,6,1
1532062160867,0,-4,-11,-16,-3,-2,1,6
1532062160872,4,2,13,18,4,-1,-14,-1
1532062160877,1,-1,1,9,7,2,0,-4
1532062160882,-5,-1,1,-51,-11,-4,-3,-9
1532062160887,-3,2,-6,1,-1,-1,6,2
1532062160892,3,-7,-19,2,2,-1,6,6
1532062160897,0,1,-14,-2,0,4,27,11
1532062160902,-1,4,3,1,2,0,-34,-9
1532062160907,-7,-13,-4,-17,-12,-5,-2,-13
1532062160912,1,2,2,27,3,-2,-6,2
1532062160917,2,2,21,1,-6,-1,6,0
1532062160922,6,-11,-40,13,0,-3,1,0
1532062160927,-1,2,-3,-23,4,1,2,3
1532062160932,-4,-4,2,44,-9,-4,-4,-5
1532062160937,-3,0,6,12,8,3,0,-1
1532062160942,1,1,0,-13,-7,-2,-2,11
1532062160947,-5,0,11,2,3,0,-3,-2
1532062160952,2,4,4,9,7,3,5,-9
1532062160957,1,-5,-17,-29,-8,-3,-8,-3
1532062160962,-2,0,8,-37,-3,0,10,1
1532062160967,1,3,1,6,3,0,1,1
1532062160972,0,3,12,7,0,0,2,4
1532062160977,-2,0,0,-2,-6,-4,-7,-4
1532062160982,-1,1,-5,-32,7,1,5,-2
1532062160987,-3,0,17,13,6,-4,-5,-2
1532062160992,1,-1,-21,-17,-8,2,1,-2
1532062160997,-1,-1,18,12,-8,0,-12,0
1532062161002,-1,-1,8,13,4,2,6,2
1532062161007,3,3,1,3,-11,-3,-1,-2
1532062161012,-2,-5,-14,0,0,-4,-2,0
1532062161017,-1,-3,-9,-5,7,3,-4,1
1532062161022,-3,-2,-6,18,2,0,-3,-2
1532062161027,-1,3,15,18,-13,-1,3,-2
1532062161032,0,-1,2,2,10,2,2,1
1532062161037,-1,0,-3,-7,-10,-1,-2,-3
1532062161042,0,1,10,22,6,1,0,0
1532062161047,-1,-2,-8,-57,-3,0,-7,-2
1532062161052,-2,0,-10,0,-4,-2,0,0
1532062161057,-2,-3,9,5,3,-2,-6,-1
1532062161062,1,-2,-7,-15,-5,-3,2,-1
1532062161067,0,-1,1,-4,4,4,41,6
1532062161072,-4,-3,-2,-2,-9,-3,-57,-11
1532062161077,1,-1,-6,-13,0,-1,5,-1
1532062161082,-1,-5,4,16,-2,-1,15,5
1532062161087,-3,-3,-4,-2,5,0,-29,-7
1532062161092,0,0,1,24,-1,-2,18,-3
1532062161097,1,-1,-2,-43,-4,-2,0,-1
1532062161102,-4,-3,-4,5,-5,-3,-5,-2
1532062161107,1,1,-5,10,0,-1,2,2
1532062161112,0,-1,-4,-9,2,1,7,2
1532062161117,0,0,0,-5,0,1,-9,0
1532062161122,0,4,16,13,-6,0,6,-3
1532062161127,-3,-5,-6,11,13,1,3,-2
1532062161132,1,-3,-1,-3,-6,0,13,4
1532062161137,0,-1,-8,-13,-8,-3,-20,-13
1532062161142,0,3,8,26,7,-2,2,8
1532062161147,1,0,-13,16,-2,1,-7,-4
1532062161152,-1,0,8,16,4,2,-13,10
1532062161157,-2,-5,-3,-53,1,0,24,-4
1532062161162,0,-3,-3,-19,-11,-2,-8,4
1532062161167,-3,-1,11,41,6,-2,-7,-5
1532062161172,0,-1,0,-5,-11,-2,19,-5
1532062161177,0,-2,-1,17,1,-1,1,19
1532062161182,-4,0,-9,-4,1,-3,-20,-15
1532062161187,3,1,8,-12,1,2,12,1
1532062161192,-2,-2,-10,-42,-2,-2,1,-2
1532062161197,-2,-4,-6,8,-5,-1,-5,-2
1532062161202,-1,1,14,18,5,2,3,-2
1532062161207,-1,-2,-4,-14,-10,-2,-6,3
1532062161212,1,2,10,8,8,0,3,-3
1532062161217,-3,0,2,26,5,-1,-9,-2
1532062161222,0,-1,-6,-13,-6,0,14,1
1532062161227,-1,3,1,-3,-5,-2,-22,-3
1532062161232,2,1,-5,-16,1,1,6,4
1532062161237,1,2,1,16,3,-1,-6,-1
1532062161242,0,-1,-8,-2,1,1,3,3
1532062161247,-2,-3,22,4,-1,-1,-12,-16
1532062161252,-2,-2,6,-14,2,-1,7,5
1532062161257,-2,-1,-4,12,-2,1,12,-1
1532062161262,-2,1,9,12,5,3,-1,5
1532062161267,0,-3,-3,-34,-7,0,-12,-4
1532062161272,1,6,-1,7,1,-1,2,4
1532062161277,-4,-5,5,-2,-3,-2,-9,-6
1532062161282,2,-2,-2,7,4,2,6,-1
1532062161287,-2,-1,-7,13,4,3,21,8
1532062161292,0,0,4,5,2,1,-18,1
1532062161297,-4,0,-5,-7,-1,-3,9,-9
1532062161302,3,2,-12,-19,-11,-3,-1,3
1532062161307,-1,-1,-6,-9,-4,-4,-4,1
1532062161312,1,-1,-2,18,4,1,9,0
1532062161317,1,1,-2,9,2,-2,-6,2
1532062161322,-4,-6,-15,-78,-16,-6,-9,-8
1532062161327,-2,-2,4,27,28,0,1,1
1532062161332,1,1,-3,21,-8,2,1,-1
1532062161337,1,0,-5,-22,-14,-2,-3,4
1532062161342,-1,0,17,11,0,-1,14,9
1532062161347,1,4,2,-12,-6,0,-32,-3
1532062161352,-6,-6,-6,-14,0,-5,2,-9
1532062161357,1,-1,-2,6,7,1,-10,-4
1532062161362,0,-1,-9,0,1,2,12,1
1532062161367,0,-1,0,5,-7,-3,10,4
1532062161372,0,0,8,5,4,2,6,-3
1532062161377,1,0,0,22,3,0,-21,-4
1532062161382,-2,-5,1,-10,-4,-5,0,-7
1532062161387,-2,-3,-5,13,-1,1,-7,7
1532062161392,-4,-6,-4,-11,0,0,-3,-5
1532062161397,-1,0,2,-10,-1,-1,5,-2
1532062161402,-2,0,-2,13,2,0,0,-5
1532062161407,0,0,-1,-1,-4,0,-16,-2
1532062161412,-1,-1,-13,-9,-2,1,6,-4
1532062161417,-3,-2,14,6,3,-1,3,1
1532062161422,-1,1,14,19,5,2,-7,6
1532062161427,-4,-4,-7,-5,-7,-1,4,-8
1532062161432,2,-1,-5,-17,-5,-2,-4,1
1532062161437,-3,-1,-11,-18,-1,-1,0,-3
1532062161442,0,-1,-8,12,3,-1,8,-2
1532062161447,1,1,8,21,2,-4,-1,5
1532062161452,-2,-2,11,-20,-3,-2,-12,-4
1532062161457,-1,-9,-52,-33,-14,-6,4,0
1532062161462,-2,-1,-3,-22,-3,-2,-11,-7
1532062161467,-2,0,-2,4,4,0,7,-3
1532062161472,2,0,0,11,-5,-1,5,9
1532062161477,2,-2,-5,30,3,0,1,-14
1532062161482,-3,1,24,20,3,-1,-17,3
1532062161487,0,1,-4,-13,0,-1,8,-1
1532062161492,-1,1,0,0,0,-1,0,-2
1532062161497,1,1,8,-2,6,3,4,6
1532062161502,2,-2,-3,63,9,1,0,-5
1532062161507,-1,-3,-3,-59,-13,-4,4,0
1532062161512,-2,-2,0,5,21,0,-8,-1
1532062161517,0,0,5,-2,-19,1,-1,2
1532062161522,-2,-1,-12,-57,-12,-2,-6,-2
1532062161527,0,0,1,20,-1,-1,7,-1
1532062161532,-1,-3,-5,-2,-4,-3,-1,-5
1532062161537,-1,2,-6,-11,1,-4,-3,1
1532062161542,1,4,15,17,5,-1,-1,-4
1532062161547,1,0,-8,-28,-12,-1,10,1
1532062161552,-4,-6,-6,-21,-2,0,9,15
1532062161557,-1,3,10,46,12,0,-33,-11
1532062161562,-2,-3,-20,-67,-18,-4,2,-4
1532062161567,-1,-1,10,18,3,0,3,-1
1532062161572,1,7,21,18,1,1,-1,0
1532062161577,1,1,3,-6,0,2,31,9
1532062161582,-2,-5,-18,31,-6,-5,-35,-2
1532062161587,1,6,14,27,13,1,9,3
1532062161592,-4,0,-14,-13,-8,-3,1,-1
1532062161597,0,-1,-6,6,6,0,14,2
1532062161602,1,6,21,-2,10,1,-7,0
1532062161607,2,1,-8,8,-11,-1,17,8
1532062161612,-2,-1,4,-13,-4,-3,-25,-13
1532062161617,-2,-7,-24,-32,-4,-1,8,1
1532062161622,1,4,2,25,7,0,6,1
1532062161627,0,-4,2,-6,-6,-2,-7,1
1532062161632,1,-1,-4,20,4,1,5,-2
1532062161637,0,-1,15,6,5,1,-7,-1
1532062161642,-2,-4,-9,-6,-4,3,8,1
1532062161647,-1,0,-4,23,37,-1,-9,-4
1532062161652,-4,-2,1,6,-22,2,0,-6
1532062161657,0,2,3,-13,-13,-6,-7,2
1532062161662,1,-1,2,3,-7,-2,3,-2
1532062161667,-1,-4,-8,-9,-2,1,-3,-5
1532062161672,1,-1,0,13,12,-1,-1,-1
1532062161677,-2,-3,5,2,5,-1,-3,5
1532062161682,-1,-5,-13,-29,-9,-1,3,-4
1532062161687,-1,-1,15,10,-4,-2,-5,-4
1532062161692,-1,-6,-37,-28,-3,-2,0,1
1532062161697,2,2,10,15,-4,-2,-5,-1
1532062161702,0,2,6,17,9,2,4,0
1532062161707,-2,-4,-27,-14,-10,-2,-4,-1
1532062161712,-1,1,18,21,-4,-2,0,-2
1532062161717,-2,1,0,-21,1,1,0,-4
1532062161722,-1,-2,-3,15,10,-1,-1,0
1532062161727,-1,0,-10,-36,-14,-2,-3,-2
1532062161732,1,1,3,2,-1,-1,-1,1
1532062161737,-2,-2,-2,22,-1,0,-1,-1
1532062161742,0,-1,2,-8,-3,-4,-2,0
1532062161747,-3,-1,3,-7,-2,1,-2,0
1532062161752,0,-2,-1,-13,-7,-4,0,-4
1532062161757,-1,0,8,7,-1,-1,-3,-2
1532062161762,-1,-1,-10,3,0,0,-2,-2
1532062161767,-1,-1,-3,-12,-2,-2,-1,-1
1532062161772,-1,0,1,-15,-1,-1,-2,0
1532062161777,0,-1,-1,-11,3,-1,1,2
1532062161782,0,-1,-2,8,0,0,3,-2
1532062161787,0,1,7,3,-1,-2,-1,-2
1532062161792,1,1,7,21,2,0,0,-2
1532062161797,1,2,8,-17,2,1,1,0
1532062161802,-3,-6,-12,-10,-6,-4,-2,-3
1532062161807,0,-2,1,-2,-1,3,0,-1
1532062161812,0,0,2,12,4,-1,0,2
1532062161817,0,-1,1,10,0,0,2,2
1532062161822,-1,-1,1,-13,-10,-1,-1,-1
1532062161827,2,1,0,27,5,0,-2,-1
1532062161832,-2,-1,5,-35,-4,-1,1,-1
1532062161837,-1,-6,-12,-31,-8,-2,-4,-3
1532062161842,0,1,4,7,5,-1,-1,0
1532062161847,-1,-1,-7,-15,-9,-4,-3,-2
1532062161852,-1,1,2,12,5,1,-1,-2
1532062161857,-1,0,2,4,0,-1,-2,1
1532062161862,-1,-1,7,1,-1,1,0,-2
1532062161867,-1,-2,-20,-5,0,0,-1,1
1532062161872,0,-1,-7,-3,2,3,-1,-1
1532062161877,-2,0,0,7,-3,-1,1,-2
1532062161882,0,-2,-4,-3,0,-1,-2,-4
1532062161887,-1,3,4,16,2,0,1,-1
1532062161892,-1,-7,4,18,-1,-2,1,-1
1532062161897,-2,-1,-7,-9,0,-1,-2,-3
1532062161902,-1,-1,0,0,-5,0,5,1
1532062161907,-1,0,5,-3,1,-1,-5,-2
1532062161912,-1,1,-1,0,-1,1,5,5
1532062161917,0,-2,9,23,5,0,0,-4
1532062161922,1,-2,-2,-19,-3,-2,-4,0
1532062161927,0,-2,3,0,-2,-1,0,2
1532062161932,0,-2,-6,10,0,0,12,3
1532062161937,-1,3,5,7,2,-3,-28,-2
1532062161942,-1,-1,-8,-16,-3,-1,0,-1
1532062161947,0,-1,7,13,1,0,-3,-2
1532062161952,2,6,1,-10,-1,1,1,0
1532062161957,-3,-7,-3,-22,-9,-2,5,-1
1532062161962,0,2,-7,-7,3,0,18,13
1532062161967,-2,-4,2,11,-7,-3,-27,-18
1532062161972,0,1,1,-3,0,-3,-15,-4
1532062161977,1,6,0,0,1,1,2,-3
1532062161982,-1,-3,14,32,1,-2,-3,-3
1532062161987,-3,-4,-32,8,5,3,27,12
1532062161992,-4,1,-2,-55,-15,-4,-15,-17
1532062161997,6,-2,7,18,3,2,17,2
1532062162002,-2,0,-2,-11,0,-1,-29,-5
1532062162007,1,4,1,-23,-2,-1,13,5
1532062162012,-1,0,12,18,9,0,-4,7
1532062162017,-5,-3,-10,-48,-13,-2,12,-9
1532062162022,17,1,-3,-11,-1,-3,-22,-7
1532062162027,-16,-3,7,17,3,2,2,-4
1532062162032,-1,1,2,-9,2,1,8,-4
1532062162037,8,4,2,25,2,0,2,1
1532062162042,-9,-1,-10,-15,1,-2,-5,0
1532062162047,4,5,21,15,3,0,3,1
1532062162052,0,-10,-44,-35,-11,-3,-10,-3
1532062162057,-7,4,9,-5,1,0,2,2
1532062162062,4,9,4,29,15,4,5,0
1532062162067,-1,-4,6,-37,-16,-5,-4,-2
1532062162072,-4,-3,-8,7,0,2,16,-5
1532062162077,4,-1,-3,8,0,-3,-12,14
1532062162082,-4,1,0,8,3,0,3,-1
1532062162087,0,-1,-2,-9,-2,-2,-4,-10
1532062162092,15,7,12,21,-2,-3,-26,-6
1532062162097,-12,-5,-10,-11,0,-1,-9,-10
1532062162102,12,0,9,8,2,2,20,0
1532062162107,-4,-7,7,3,-4,0,-6,-12
1532062162112,5,-2,4,23,6,1,1,8
1532062162117,6,-1,-12,-24,-8,-4,1,2
1532062162122,-18,-6,-8,8,-8,-3,0,-9
1532062162127,5,6,3,10,5,0,-2,4
1532062162132,9,19,3,23,-1,-1,13,-4
1532062162137,-4,-15,7,0,-3,-4,-20,-4
1532062162142,-6,-10,-16,22,-5,-2,14,4
1532062162147,1,1,11,-61,-3,2,-11,7
1532062162152,-6,2,8,-1,-9,-4,1,4
1532062162157,-1,0,-2,14,4,3,3,-4
1532062162162,-5,-2,-9,-22,-5,-1,1,-3
1532062162167,4,-1,0,32,7,0,0,0
1532062162172,-3,-7,-3,-6,3,-2,-6,2
1532062162177,-1,2,-4,-15,-12,-4,8,0
1532062162182,-2,0,16,10,6,2,-6,-1
1532062162187,-3,-6,-25,7,-10,-3,3,1
1532062162192,-4,-2,10,-7,-2,3,2,1
1532062162197,-2,-1,-4,25,19,-2,0,-2
1532062162202,0,4,17,19,3,2,-4,0
1532062162207,2,-3,-22,-3,-1,-1,-2,2
1532062162212,-6,-8,-25,-80,6,-2,2,0
1532062162217,3,5,9,11,-17,9,4,1
1532062162222,2,-3,-4,-12,12,-5,-6,-2
1532062162227,-2,0,6,16,-4,-3,4,0
1532062162232,-2,1,8,24,4,3,0,-1
1532062162237,-1,0,-1,4,9,-1,3,-1
1532062162242,-3,-3,-14,-22,-6,0,0,1
1532062162247,0,4,16,-1,2,0,-4,-1
1532062162252,0,3,5,45,6,-1,3,3
1532062162257,-3,-5,-7,1,-10,-4,-1,0
1532062162262,-1,1,1,-2,-7,0,-11,-7
1532062162267,-1,-4,1,17,4,0,-15,0
1532062162272,-2,-2,3,13,2,0,-3,-2
1532062162277,0,4,0,2,3,-1,2,3
1532062162282,-1,-4,1,-12,-7,-1,9,1
1532062162287,-1,2,-6,-5,0,0,4,-1
1532062162292,-3,-6,3,2,-6,-2,-9,1
1532062162297,-1,0,-3,-9,5,0,6,0
1532062162302,0,-1,-3,-8,-13,-5,-2,0
1532062162307,-3,-2,-2,-14,-3,-1,0,-1
1532062162312,-3,-6,-4,13,-2,2,2,0
1532062162317,-1,0,0,14,-2,-2,-4,-1
1532062162322,-1,2,9,15,7,0,1,1
1532062162327,0,-2,-8,-15,-4,-2,3,-2
1532062162332,-3,-4,-3,1,-4,-1,-2,-2
1532062162337,-1,1,7,-7,3,0,-3,1
1532062162342,-1,-1,0,-6,-4,-1,2,3
1532062162347,-1,-2,-2,12,-6,-1,3,-1
1532062162352,0,2,3,-19,4,1,0,0
1532062162357,-3,-4,-8,5,-7,-1,-2,-4
1532062162362,0,-1,0,-4,1,1,0,2
1532062162367,-1,-1,6,14,8,2,3,0
1532062162372,-2,-2,-6,-11,-2,0,-1,-2
1532062162377,1,-2,1,6,2,0,-3,1
1532062162382,1,0,-3,-10,-10,-2,0,-2
1532062162387,0,2,2,16,2,-2,-2,-2
1532062162392,-4,-9,-5,-41,-10,-3,1,-2
1532062162397,-2,-1,-1,8,2,-1,0,-1
1532062162402,-5,-5,-2,4,3,0,-3,1
1532062162407,1,5,-5,-12,-3,0,1,0
1532062162412,-2,-1,-2,15,-5,-3,-1,0
1532062162417,-1,-1,-3,-6,-2,0,0,2
1532062162422,-3,-3,-4,-13,0,-1,4,-1
1532062162427,1,-2,4,-3,1,2,12,0
1532062162432,-2,9,-6,1,1,-6,-21,4
1532062162437,-11,-22,-23,3,-7,-2,-7,-4
1532062162442,24,12,36,15,3,1,0,6
1532062162447,-34,-6,-17,21,10,4,13,-9
1532062162452,-18,0,16,-71,-17,-5,-29,-10
1532062162457,-1,-2,-11,-21,0,-3,-22,-17
1532062162462,-1,0,-7,-12,-1,-1,17,7
1532062162467,7,-3,12,0,-5,-2,-16,4
1532062162472,3,-3,-5,38,10,3,31,1
1532062162477,-3,5,7,-5,-6,-1,8,3
1532062162482,-5,-5,-10,-10,-2,-3,-14,-2
1532062162487,9,2,-3,-16,-4,-3,3,-3
1532062162492,-1,2,-2,13,3,1,3,1
1532062162497,6,3,4,-4,3,-1,-1,0
1532062162502,-3,-3,-9,16,23,-5,3,1
1532062162507,2,-1,-3,0,-7,3,-9,-2
1532062162512,6,-1,5,2,-15,2,9,3
1532062162517,0,0,10,13,-5,-1,1,5
1532062162522,-5,-2,-6,11,-1,8,-2,-7
1532062162527,-1,0,-5,-54,-8,-7,-5,3
1532062162532,0,-7,-8,19,7,-3,5,-8
1532062162537,3,4,-2,-11,0,2,-11,2
1532062162542,-6,-1,-1,22,5,2,-2,-2
1532062162547,4,-1,2,3,-4,0,13,0
1532062162552,0,-1,-7,14,-10,-4,-12,-5
1532062162557,-1,1,-2,-1,3,-2,-8,-9
1532062162562,4,10,3,32,0,0,11,-7
1532062162567,-4,-7,-16,-48,-7,-6,-27,8
1532062162572,5,2,9,26,12,3,-2,-13
1532062162577,-2,-2,-9,-4,7,2,6,1
1532062162582,-8,-16,-11,-13,-10,-3,-3,-7
1532062162587,16,11,8,23,0,0,7,-2
1532062162592,-32,-26,5,-6,-5,-4,-11,4
1532062162597,13,0,3,-4,3,2,4,-2
1532062162602,-8,8,19,-17,-1,1,3,1
1532062162607,6,-4,-1,-2,1,-1,-1,-2
1532062162612,7,1,-4,-9,1,1,18,2
1532062162617,11,3,-2,-17,-3,-1,-19,-3
1532062162622,-3,-1,-4,-9,-7,-2,2,1
1532062162627,20,-1,-7,33,11,-1,2,11
1532062162632,3,-8,5,-2,0,-2,-11,3
1532062162637,-7,-4,-3,-13,-5,-4,2,3
1532062162642,5,7,-10,-5,-1,-2,-8,9
1532062162647,-6,3,11,8,2,2,10,-15
1532062162652,2,-1,-14,-4,-4,0,19,0
1532062162657,-5,0,20,22,5,2,-19,0
1532062162662,-4,-12,-11,7,4,1,28,7
1532062162667,-8,4,-59,-50,-19,-10,-40,-19
1532062162672,-4,-3,1,10,4,-1,-6,16
1532062162677,-4,3,27,-33,6,8,55,3
1532062162682,10,0,2,19,-14,-5,-10,-3
1532062162687,-10,-3,6,16,5,-7,-54,-7
1532062162692,26,14,9,-14,5,2,16,1
1532062162697,-19,-6,-25,10,-8,-3,-3,-9
1532062162702,1,-3,-9,-20,0,1,2,-3
1532062162707,-5,-3,9,-8,2,6,29,20
1532062162712,3,5,-4,14,-3,-3,-18,-7
1532062162717,0,1,9,20,0,-2,-2,0
1532062162722,-2,-2,-3,-20,3,1,-1,-6
1532062162727,-3,-4,13,32,-4,3,2,1
1532062162732,0,4,12,-11,5,3,0,-2
1532062162737,3,5,-10,7,9,-2,11,5
1532062162742,-6,-4,-4,-41,-12,-5,-18,-6
1532062162747,0,-1,9,5,5,-1,8,1
1532062162752,-2,4,-2,5,8,-2,5,-3
1532062162757,-2,-2,-10,-30,-14,4,1,-1
1532062162762,1,0,6,36,2,1,-12,0
1532062162767,-2,0,10,22,-20,2,9,1
1532062162772,-2,-2,-11,-36,10,-2,1,-2
1532062162777,0,-2,5,22,13,4,-5,-1
1532062162782,-3,-3,-2,-28,-9,-7,-7,-5
1532062162787,1,9,3,-16,4,-1,11,3
1532062162792,-4,-4,4,24,1,-1,-8,-3
1532062162797,4,0,-2,-25,-7,-2,-1,1
1532062162802,0,0,0,21,7,4,2,1
1532062162807,-6,-5,-6,6,22,-1,2,-2
1532062162812,0,3,4,15,9,2,-3,-1
1532062162817,-2,-2,-19,1,-14,-5,-5,-2
1532062162822,-1,-4,-3,-16,-34,0,0,-3
1532062162827,0,-7,6,-6,-3,-1,2,1
1532062162832,-1,-1,1,9,6,-6,-4,0
1532062162837,1,1,5,16,26,6,2,1
1532062162842,-2,4,-1,4,7,-3,-4,-1
1532062162847,-2,-3,7,2,-2,-1,3,-4
1532062162852,-2,-3,-8,-6,3,3,1,3
1532062162857,1,6,3,-4,-14,-8,-7,-1
1532062162862,0,-1,-2,-16,0,-1,-3,-2
1532062162867,0,4,1,6,6,2,4,2
1532062162872,-3,-4,-33,-12,-18,-6,-6,-3
1532062162877,2,3,-5,-38,-5,-4,16,5
1532062162882,0,1,9,15,4,1,-28,11
1532062162887,-1,-4,-10,-6,6,3,-2,-5
1532062162892,4,5,1,10,-8,-1,-14,-11
1532062162897,18,-4,4,10,-4,-1,1,0
1532062162902,-8,3,-5,-8,10,4,51,2
1532062162907,-9,-22,-3,3,-3,-1,-24,12
1532062162912,0,4,7,-5,-6,-2,-5,-6
1532062162917,-1,0,5,23,9,1,-11,-4
1532062162922,5,3,10,-11,-7,-6,-2,-8
1532062162927,-2,0,0,4,-3,0,6,-1
1532062162932,2,6,-2,-2,-6,1,20,1
1532062162937,-3,-5,1,12,1,-3,-6,-1
1532062162942,-2,-2,2,-3,3,-2,-14,-2
1532062162947,0,-1,-9,14,1,2,11,0
1532062162952,-4,-7,-10,-48,-11,-1,-7,3
1532062162957,-5,1,11,25,-3,-1,1,-5
1532062162962,-3,-4,1,-12,7,3,-6,0
1532062162967,4,7,3,2,-11,-3,7,-5
1532062162972,0,-2,-2,-11,-2,-2,2,2
1532062162977,-5,2,-7,-5,3,1,-8,1
1532062162982,1,-6,5,31,3,1,3,-3
1532062162987,1,-7,-10,-26,-2,-2,-3,-3
1532062162992,1,2,12,16,2,-1,-1,1
1532062162997,-4,-3,9,-9,-1,0,6,-2
1532062163002,1,-5,-8,17,4,1,-2,1
1532062163007,-2,-2,-1,-11,-3,-7,0,-6
1532062163012,-7,-6,1,4,-5,0,-2,2
1532062163017,9,-2,-2,-14,-1,-2,2,0
1532062163022,0,3,3,15,1,0,-4,-2
1532062163027,-2,3,2,-24,-6,0,5,9
1532062163032,-2,0,-22,16,4,-1,1,-12
1532062163037,-4,-5,-3,-5,-8,-3,14,1
1532062163042,9,1,-2,-33,-5,-2,-34,-1
1532062163047,-38,-2,0,13,5,-2,6,-10
1532062163052,9,3,9,23,1,0,0,3
1532062163057,-7,-1,-22,-20,-6,-1,-14,2
1532062163062,4,6,14,-22,-5,-3,9,-4
1532062163067,9,3,12,28,2,-1,-2,1
1532062163072,-1,-2,5,-7,0,1,4,2
1532062163077,-6,-4,11,16,-2,-2,-1,-5
1532062163082,-3,1,-10,4,9,2,4,1
1532062163087,7,-1,-9,-30,-2,-1,-3,-3
1532062163092,-3,0,17,20,-15,0,2,3
1532062163097,2,3,-12,-13,-4,-2,-4,1
1532062163102,-5,1,-7,-3,-5,-3,0,-3
1532062163107,2,-3,2,18,4,3,0,-1
1532062163112,1,-3,-3,0,-1,-2,0,0
1532062163117,-5,-2,5,40,4,0,-4,-2
1532062163122,-1,0,2,-5,6,-3,1,2
1532062163127,0,-2,1,12,-1,1,1,-3
1532062163132,0,2,0,2,0,-1,-4,-1
1532062163137,-2,-3,-2,14,-1,-1,-1,-2
1532062163142,-3,-1,-7,-17,2,0,2,-2
1532062163147,5,0,-6,-15,-8,-4,-3,0
1532062163152,-1,0,0,1,5,0,5,10
1532062163157,-1,-2,-16,-6,-1,0,-3,-8
1532062163162,1,2,9,17,3,0,-1,-2
1532062163167,1,1,1,19,-7,0,-2,-1
1532062163172,-3,-5,-8,-4,1,-1,-7,-4
1532062163177,-2,-4,15,-8,6,3,3,2
1532062163182,0,0,-11,9,-8,-2,2,0
1532062163187,0,-1,7,-7,-3,-2,6,-2
1532062163192,0,-1,13,12,6,3,-6,-4
1532062163197,-5,-2,4,-7,-6,-1,23,5
1532062163202,2,-3,-21,11,1,-3,-34,-2
1532062163207,-7,-6,-2,-14,5,2,-2,-10
1532062163212,1,4,2,18,2,-1,11,4
1532062163217,-1,4,12,-28,-3,-3,-9,-19
1532062163222,0,-4,-19,-5,-5,0,0,4
1532062163227,1,9,23,-9,2,0,13,-9
1532062163232,0,-8,-19,-27,-3,-1,-22,-6
1532062163237,-4,-2,-3,22,-7,-7,-4,-4
1532062163242,-1,-3,7,-1,0,1,10,1
1532062163247,5,-9,-19,-28,-8,-4,-8,3
1532062163252,-2,2,5,17,1,-3,8,1
1532062163257,4,5,-4,-21,8,3,-1,5
1532062163262,-2,-3,3,17,-5,-3,1,-1
1532062163267,2,5,0,15,3,-1,-1,3
1532062163272,-2,-1,3,-5,17,-3,4,0
1532062163277,-2,-2,-4,1,-17,2,-8,7
1532062163282,-1,0,4,-8,8,-1,3,-5
1532062163287,-3,-1,-8,-18,-11,3,-1,3
1532062163292,2,-2,-1,-23,-13,-6,-3,-1
1532062163297,2,1,-2,9,2,3,-4,-3
1532062163302,-6,-2,-9,23,0,0,7,0
1532062163307,0,-8,-3,-58,9,0,-4,4
1532062163312,0,1,5,7,10,3,-1,-2
1532062163317,0,2,0,-5,-12,-1,-3,2
1532062163322,-1,4,-5,-5,-7,-5,-1,-3
1532062163327,-1,-2,-10,36,-1,-3,-2,-3
1532062163332,0,-1,7,-6,-2,0,24,5
1532062163337,-4,0,-1,-1,2,-6,-30,-10
1532062163342,2,1,-1,-4,-1,0,18,-4
1532062163347,3,-12,15,-12,-5,-3,-17,-2
1532062163352,-4,2,2,-12,-4,1,2,-16
1532062163357,0,7,-3,22,6,-3,-2,24
1532062163362,-6,-9,23,-15,7,5,1,-6
1532062163367,-19,6,4,22,3,-1,-11,-10
1532062163372,2,-5,-4,6,-4,5,73,4
1532062163377,7,2,20,-6,3,0,-46,3
1532062163382,1,-5,-28,-9,0,-6,-33,5
1532062163387,3,-1,18,29,1,-1,2,12
1532062163392,10,10,-7,-13,-7,-4,-1,6
1532062163397,-9,-14,-38,-7,3,-2,22,-11
1532062163402,1,1,-16,-37,-15,-4,2,-3
1532062163407,6,3,13,15,0,-3,-2,4
1532062163412,0,-4,-9,13,2,-1,-18,-1
1532062163417,1,-5,12,12,6,2,12,0
1532062163422,-2,-1,-9,-21,-2,-1,-1,-1
1532062163427,0,-2,-9,-9,-1,1,10,-1
1532062163432,-3,1,6,-11,-6,-1,-19,0
1532062163437,0,1,3,26,14,2,6,-4
1532062163442,-6,-5,-1,2,-16,-4,2,-1
1532062163447,5,8,1,23,8,1,4,-1
1532062163452,-2,-3,-8,-5,-7,-1,-18,-1
1532062163457,0,2,7,5,29,2,6,-3
1532062163462,1,3,16,36,-5,0,7,-2
1532062163467,1,3,-13,-17,-10,0,-2,3
1532062163472,-1,2,-11,0,19,-4,-16,-2
1532062163477,-1,-1,10,-14,-13,3,10,1
1532062163482,1,4,20,37,17,1,5,2
1532062163487,-1,0,-24,-19,-8,-2,-3,-4
1532062163492,-4,-1,3,-5,2,-3,-9,-1
1532062163497,1,2,5,-5,-8,-2,7,-2
1532062163502,1,-2,4,6,13,3,-1,1
1532062163507,-2,-4,-13,-16,-11,-1,1,0
1532062163512,-2,-4,7,-9,-8,-4,-13,0
1532062163517,1,-4,-13,-5,0,-2,8,-4
1532062163522,-1,0,14,1,-9,0,-4,-4
1532062163527,1,1,1,8,6,-1,5,2
1532062163532,-5,-2,-5,8,-2,1,-2,-3
1532062163537,-4,-2,1,-14,-4,-4,4,-1
1532062163542,5,6,-11,2,-5,-2,-19,0
1532062163547,-2,-3,2,6,11,2,-1,-3
1532062163552,1,-2,-1,1,-4,3,-3,-1
1532062163557,-1,-1,-1,11,-10,-3,-2,-1
1532062163562,-2,-1,-3,-14,-2,-1,17,4
1532062163567,4,-3,-6,-20,-6,-3,-5,-1
1532062163572,6,-1,5,13,2,0,-6,1
1532062163577,-20,-3,-1,-10,-9,-1,6,-3
1532062163582,-1,-4,-1,-7,3,-1,-4,2
1532062163587,0,-1,-7,-24,-4,1,29,3
1532062163592,-5,-6,-1,7,1,-1,-22,1
1532062163597,7,5,-20,-45,-10,-3,-24,-11
1532062163602,-1,5,-3,4,4,0,10,3
1532062163607,-3,1,8,2,2,-1,-13,-6
1532062163612,-1,-3,-16,-14,-3,-2,14,3
1532062163617,4,3,9,13,-1,0,3,4
1532062163622,-4,-1,-1,0,0,1,-4,-7
1532062163627,4,5,0,24,3,-3,6,5
1532062163632,1,6,29,14,-4,1,14,3
1532062163637,2,-4,-20,20,8,-1,-18,2
1532062163642,0,-1,10,-49,-8,0,7,-1
1532062163647,-3,-4,-21,18,-2,-1,-2,-2
1532062163652,1,6,5,-17,0,0,-4,-1
1532062163657,-2,-10,-13,-2,-3,-3,5,-3
1532062163662,-1,-4,14,16,-1,-2,1,7
1532062163667,0,-2,-6,4,5,1,-16,-15
1532062163672,-2,1,-6,-12,-7,-2,-2,-6
1532062163677,2,-2,10,9,4,0,7,1
1532062163682,-2,-5,-18,-2,17,-1,1,-3
1532062163687,-2,1,4,-17,-27,-4,-2,1
1532062163692,-6,-8,-1,3,4,-1,-4,-3
1532062163697,1,6,21,26,-1,0,5,0
1532062163702,-1,-6,-13,-19,0,0,-2,0
1532062163707,-2,3,1,-14,-8,-1,-6,-2
1532062163712,-2,-1,5,-6,-5,-1,3,-2
1532062163717,0,1,6,6,-3,1,0,2
1532062163722,-3,-8,-5,23,1,-2,-3,-4
1532062163727,-1,-1,4,2,14,0,-1,0
1532062163732,-1,-1,-12,-2,-9,-2,-7,-2
1532062163737,2,1,13,-6,6,0,15,3
1532062163742,0,6,17,5,-3,-1,-17,-2
1532062163747,-1,1,7,43,6,2,8,0
1532062163752,-2,-1,-24,-23,-3,-3,-13,-3
1532062163757,-3,-4,2,6,-5,-4,-5,1
1532062163762,0,0,-21,-31,-9,-1,5,-4
1532062163767,0,4,24,24,6,0,-1,2
1532062163772,-3,-4,-2,4,4,1,3,9
1532062163777,1,4,-7,3,-4,0,14,-8
1532062163782,-2,-2,0,-10,-8,-2,-18,-1
1532062163787,0,1,9,1,5,0,1,-1
1532062163792,1,-3,-17,-1,0,0,18,1
1532062163797,-6,2,-11,-23,-6,-2,-45,-12
1532062163802,2,0,27,42,7,2,13,-6
1532062163807,-1,-3,-44,-32,-8,-3,10,1
1532062163812,-4,-3,6,-38,-2,0,-21,-5
1532062163817,8,-2,-25,15,-10,-4,20,11
1532062163822,0,4,22,17,3,0,2,-9
1532062163827,12,4,5,20,9,-2,-30,-4
1532062163832,-7,-1,3,3,-6,-2,15,-2
