1532299286748,-7,-11,-2,0,1,-2,1,-4
1532299286753,19,1,-3,-3,-5,-4,-1,2
1532299286758,-12,-2,1,-3,-4,-3,-3,-1
1532299286763,-2,-1,-2,1,1,3,7,-1
1532299286768,6,2,0,-1,-1,-1,-6,-3
1532299286773,-16,-2,0,5,6,-2,-4,-4
1532299286778,1,-3,-4,-7,-8,1,-2,-1
1532299286783,1,0,-2,-5,-1,2,6,-2
1532299286788,0,0,1,-2,-7,0,-4,-4
1532299286793,1,0,1,2,3,0,3,2
1532299286798,-2,-1,0,0,1,3,2,-1
1532299286803,5,-2,0,2,-1,-2,4,0
1532299286808,-15,0,0,0,-3,7,4,2
1532299286813,0,-2,1,-1,3,-4,-9,-1
1532299286818,-1,-4,-3,-3,-9,-5,2,-6
1532299286823,-4,-1,-2,-4,-3,1,3,5
1532299286828,3,0,-1,-4,0,-5,-12,0
1532299286833,0,4,-2,-4,-10,-1,0,0
1532299286838,0,-6,-1,2,1,4,-6,0
1532299286843,-6,-1,0,3,5,0,-2,-5
1532299286848,3,2,-1,-1,2,-3,1,-1
1532299286853,-1,1,0,-2,-2,3,9,2
1532299286858,3,-7,-1,-1,6,-4,-12,1
1532299286863,8,-9,-2,-1,-2,-4,-11,-2
1532299286868,-16,-4,-1,0,-1,0,-5,0
1532299286873,-10,2,0,-4,-2,-2,-15,-4
1532299286878,12,-2,4,1,-2,-2,14,1
1532299286883,3,8,-2,1,4,10,9,2
1532299286888,6,-6,-6,-5,-6,-5,25,-2
1532299286893,1,-2,-1,-2,1,-1,9,-2
1532299286898,-4,-1,-2,0,5,-2,-7,-1
1532299286903,-5,-1,2,-1,-1,-5,-3,-3
1532299286908,4,10,-1,3,-3,3,6,4
1532299286913,2,-14,-4,-4,-1,0,0,-1
1532299286918,-2,8,-3,-3,-5,-1,-8,2
1532299286923,1,5,1,0,0,-3,-18,-3
1532299286928,-2,1,-1,-1,3,-5,-15,0
1532299286933,10,-2,3,-1,-1,2,5,1
1532299286938,-13,3,-2,-1,-1,0,-22,-3
1532299286943,-4,-4,-4,-3,-3,-4,6,-4
1532299286948,8,3,1,1,0,-15,-33,-2
1532299286953,0,3,-2,1,0,5,-5,1
1532299286958,-4,-16,-1,-5,-5,5,0,0
1532299286963,3,27,3,0,-1,-4,-10,-5
1532299286968,-15,11,5,-4,-3,-3,2,-5
1532299286973,-6,-12,-14,1,4,-12,-17,-4
1532299286978,0,3,-3,-1,-12,-6,-11,-9
1532299286983,-3,-10,-1,0,2,3,12,-1
1532299286988,2,-3,0,-4,-1,0,3,3
1532299286993,-8,2,2,1,-4,-1,1,1
1532299286998,23,9,-1,-2,-2,-6,12,3
1532299287003,-16,0,2,0,1,4,7,7
1532299287008,28,-16,-8,-3,4,9,9,-6
1532299287013,-7,2,2,1,-3,-5,1,-5
1532299287018,-27,-21,-3,-1,1,-5,3,7
1532299287023,40,-13,-22,0,5,4,-1,-5
1532299287028,16,11,18,3,5,8,-6,5
1532299287033,8,7,8,0,-3,9,16,3
1532299287038,1,-5,1,-5,0,0,-8,2
1532299287043,-19,24,-7,-1,0,-15,4,-2
1532299287048,1,-6,-11,-3,-5,0,16,2
1532299287053,-15,1,1,1,-9,29,12,0
1532299287058,25,16,7,7,5,-15,-3,1
1532299287063,-78,-40,-8,-12,-12,-6,-1,-5
1532299287068,59,2,4,13,12,-12,2,2
1532299287073,-7,6,-1,-2,-1,-16,-29,-7
1532299287078,1,15,-1,-2,-5,22,23,2
1532299287083,3,-20,-3,6,7,20,6,-1
1532299287088,-30,5,3,-5,-8,-65,-28,-10
1532299287093,-2,-9,-4,-3,2,2,-21,-1
1532299287098,0,-28,-5,-1,-4,-20,18,-6
1532299287103,11,20,5,-4,-5,-15,-19,-7
1532299287108,-20,-10,-5,0,0,53,26,9
1532299287113,23,10,0,1,3,-1,16,3
1532299287118,-38,-23,8,7,-3,8,-9,5
1532299287123,45,23,-4,-5,4,-27,5,2
1532299287128,-10,-8,-9,-11,-15,-60,-32,-14
1532299287133,2,0,3,-2,-1,72,31,6
1532299287138,-7,7,0,2,9,30,-5,-7
1532299287143,-3,-7,2,6,-4,22,10,5
1532299287148,-4,-9,-2,-1,6,-3,-8,2
1532299287153,-11,-11,-5,2,2,-38,-10,-2
1532299287158,8,8,11,0,1,-15,0,2
1532299287163,1,-9,-15,-8,-5,16,-10,-7
1532299287168,0,-8,-25,-1,1,11,20,11
1532299287173,-21,3,20,1,-2,-12,-16,-5
1532299287178,2,12,-10,-4,-7,-5,-2,-4
1532299287183,-1,-7,13,2,1,-12,3,1
1532299287188,-11,2,-1,3,2,55,22,5
1532299287193,14,-4,-10,1,4,-12,-1,4
1532299287198,-3,2,-2,-4,-5,-32,-5,4
1532299287203,3,3,2,2,-2,29,10,3
1532299287208,-4,2,5,5,8,21,-3,-3
1532299287213,0,-13,-5,-1,1,11,-2,-8
1532299287218,4,7,-13,-12,-15,-3,-8,-8
1532299287223,-9,-9,5,3,19,-29,-7,-3
1532299287228,-7,3,3,-6,-24,25,-4,-7
1532299287233,-4,-4,-5,-3,1,-37,-22,1
1532299287238,4,3,-2,5,11,29,3,-3
1532299287243,6,1,3,5,4,10,9,3
1532299287248,-9,0,4,5,7,-6,0,-4
1532299287253,4,6,-7,-7,-13,-13,-5,-3
1532299287258,3,-1,2,7,-3,-10,-8,-4
1532299287263,6,8,5,-1,7,7,9,17
1532299287268,5,-14,6,1,4,8,7,3
1532299287273,-4,-11,-5,-2,-7,-34,5,-2
1532299287278,-3,1,-1,1,8,-1,7,2
1532299287283,-12,-3,3,0,-7,-1,-5,-10
1532299287288,14,2,-2,1,-3,-26,-1,4
1532299287293,2,3,-3,-3,0,16,-7,0
1532299287298,-1,-7,-1,-9,-17,-34,-6,-5
1532299287303,0,-3,-1,-2,-6,28,-1,0
1532299287308,-6,-10,-3,-5,-3,-9,-14,-2
1532299287313,2,12,3,5,10,1,11,-1
1532299287318,-4,0,-2,-3,3,24,4,-4
1532299287323,0,-1,0,-4,-11,-15,-9,0
1532299287328,-6,1,-1,-1,-1,-18,-3,-4
1532299287333,5,1,0,3,4,8,-5,-2
1532299287338,-2,-2,-1,2,7,10,3,3
1532299287343,-3,-4,-4,-5,-6,-11,-6,-7
1532299287348,5,13,6,1,8,20,19,6
1532299287353,-3,-12,-11,3,1,-11,13,7
1532299287358,2,2,-4,-10,-9,3,-15,-6
1532299287363,-24,-13,0,1,-2,-14,-19,-9
1532299287368,-13,-3,5,0,-7,-12,-17,-10
1532299287373,9,14,-6,-8,2,19,16,2
1532299287378,-12,-21,0,3,3,-3,2,8
1532299287383,-2,-9,1,4,2,25,-2,-1
1532299287388,25,8,-3,-8,-11,-40,-23,-12
1532299287393,-9,-7,5,0,-8,9,-3,11
1532299287398,4,12,0,3,10,17,22,4
1532299287403,25,-3,-2,-1,-2,-21,-11,-1
1532299287408,-12,-12,3,7,6,15,-20,1
1532299287413,3,0,3,5,0,4,64,-6
1532299287418,1,4,-6,-7,0,10,2,0
1532299287423,5,6,1,1,-10,1,-2,6
1532299287428,-6,4,-3,1,8,1,-2,-2
1532299287433,3,-5,-5,-5,-9,-29,-48,-10
1532299287438,-3,-1,0,1,1,12,11,1
1532299287443,-2,1,-4,-4,-4,-9,3,7
1532299287448,-13,-3,-1,2,1,3,19,0
1532299287453,-6,0,-1,-7,7,-1,-31,-22
1532299287458,-1,1,2,2,-12,-1,-14,0
1532299287463,-1,2,0,-2,4,-15,-10,-6
1532299287468,5,5,0,2,-4,14,6,5
1532299287473,-8,-9,-1,-3,-3,-10,-10,-5
1532299287478,3,1,0,-2,0,-7,12,1
1532299287483,7,1,1,2,-1,4,7,3
1532299287488,-10,-1,-2,-3,-2,-12,-3,-9
1532299287493,-6,-16,-3,-2,-6,23,0,-2
1532299287498,11,10,1,3,6,5,-2,2
1532299287503,-3,2,1,-4,-1,-24,-13,-7
1532299287508,-5,0,-3,-5,-1,13,23,5
1532299287513,-2,-3,-1,-1,1,-11,-17,4
1532299287518,5,-1,0,2,1,4,-1,3
1532299287523,-7,-1,-3,-3,-2,7,6,-2
1532299287528,1,1,-1,-2,-2,-13,-19,-11
1532299287533,6,10,3,3,-5,-42,-7,6
1532299287538,-6,-4,-2,-3,14,23,10,-5
1532299287543,-2,3,-1,-4,-14,15,17,-1
1532299287548,5,-3,1,2,2,26,8,3
1532299287553,3,8,4,6,2,13,14,10
1532299287558,3,-2,-1,1,6,-32,-15,4
1532299287563,-12,-6,-3,-2,-5,-1,-9,-17
1532299287568,2,1,-2,-2,5,9,11,-7
1532299287573,3,-4,-4,-5,-12,-15,-16,3
1532299287578,10,4,1,-2,-4,-8,-4,7
1532299287583,6,0,-1,1,3,8,-6,-2
1532299287588,-12,-5,-3,-3,-2,-9,-2,-9
1532299287593,-1,4,3,2,3,-22,12,-1
1532299287598,-5,-8,-3,-7,-6,61,31,-11
1532299287603,6,2,1,0,-2,-6,-1,16
1532299287608,-7,4,0,-4,-7,-12,-3,3
1532299287613,0,-4,0,0,1,0,-4,-7
1532299287618,-6,-3,0,2,20,-13,3,-1
1532299287623,-1,-2,-2,-7,-19,-2,5,8
1532299287628,7,3,0,-4,-9,-3,-7,1
1532299287633,4,2,1,-3,4,10,15,17
1532299287638,1,-3,-3,-2,-6,-11,3,8
1532299287643,-2,-5,2,2,7,-2,-8,-6
1532299287648,6,15,2,2,0,-3,0,3
1532299287653,-2,0,0,-3,-2,0,-7,-7
1532299287658,-4,12,4,5,-1,-6,-15,-12
1532299287663,-10,-35,-1,2,4,11,9,-1
1532299287668,-1,-1,0,-4,-4,-10,-7,4
1532299287673,5,-5,0,5,5,9,3,-3
1532299287678,-19,4,-1,-3,-10,-13,-6,14
1532299287683,4,10,-2,-4,11,39,15,0
1532299287688,-1,-5,-3,-6,-14,-32,-25,-6
1532299287693,-2,3,1,4,4,28,13,12
1532299287698,24,-13,-2,5,8,10,-6,-3
1532299287703,-15,-4,0,-4,-8,-8,11,1
1532299287708,-7,2,-3,-7,-11,-3,-18,16
1532299287713,12,4,1,5,10,30,29,-9
1532299287718,14,-7,-8,-7,-3,7,22,25
1532299287723,-11,0,2,3,2,3,-22,1
1532299287728,-13,-4,3,8,0,-12,-32,-15
1532299287733,-8,7,-4,-2,6,21,6,-10
1532299287738,-15,-4,-4,-1,-3,-29,-19,1
1532299287743,11,-4,-3,-8,-6,6,-12,1
1532299287748,-7,15,-6,-2,-11,-14,-5,-13
1532299287753,5,14,2,-2,-11,-77,-56,-2
1532299287758,-32,15,3,7,14,65,33,-13
1532299287763,14,-14,-2,1,2,-13,-18,-47
1532299287768,19,-13,0,0,0,2,-6,30
1532299287773,-15,3,5,2,-2,-15,-2,-29
1532299287778,-19,-16,-6,-6,-7,-42,-33,-14
1532299287783,19,7,-4,-1,-3,45,43,-5
1532299287788,-4,-7,-5,-10,-11,-6,-19,-2
1532299287793,-15,-18,-1,3,8,18,-12,-9
1532299287798,59,36,5,3,-3,-11,33,9
1532299287803,-39,-25,-7,-1,0,19,9,-35
1532299287808,-5,22,-6,-5,-5,-20,-30,-35
1532299287813,1,-5,3,0,-1,-32,0,8
1532299287818,1,5,3,0,-1,5,15,2
1532299287823,0,-3,-1,5,6,-4,47,14
1532299287828,0,-5,-4,5,13,7,-18,6
1532299287833,-4,1,-4,-4,-4,-17,-12,10
1532299287838,8,3,-2,-7,-10,2,6,0
1532299287843,2,-15,1,1,-2,12,23,5
1532299287848,-14,-6,-5,-4,-6,-16,-40,0
1532299287853,0,-2,-1,0,2,0,-7,9
1532299287858,2,-3,-4,-2,-1,-11,-27,-16
1532299287863,-1,0,-1,-2,-5,-3,8,5
1532299287868,-19,-8,6,4,5,23,59,10
1532299287873,37,6,3,0,-1,-20,-77,-3
1532299287878,52,-10,2,3,10,14,-27,15
1532299287883,-13,-1,-5,-1,6,-5,60,4
1532299287888,-3,-2,-3,-7,-2,2,15,-10
1532299287893,7,6,2,0,-2,26,57,7
1532299287898,-15,1,4,6,12,-13,17,-20
1532299287903,25,7,2,1,3,-21,-50,-5
1532299287908,-16,-12,-3,-8,-25,-54,-56,-23
1532299287913,3,1,2,0,6,54,86,26
1532299287918,1,1,-2,-2,-3,22,24,22
1532299287923,-14,0,-2,3,4,12,-10,60
1532299287928,-4,-1,-5,-4,-2,-16,-45,16
1532299287933,-21,-2,-3,-7,-23,-71,-113,-8
1532299287938,-29,-15,-1,3,1,-19,13,-19
1532299287943,17,23,3,1,1,12,-8,-28
1532299287948,-15,-6,0,0,-1,-27,-16,-36
1532299287953,17,6,2,6,5,19,18,-20
1532299287958,-12,-6,-1,-5,-5,0,30,-9
1532299287963,-19,-6,-1,-5,-6,-11,-31,-15
1532299287968,30,-1,-2,2,-1,31,12,5
1532299287973,-17,-12,-6,-6,-10,-43,-22,-37
1532299287978,-3,-7,-5,-3,0,10,-24,-1
1532299287983,10,9,2,-1,-4,28,-3,22
1532299287988,36,11,0,-2,4,24,11,28
1532299287993,-21,-7,-2,-4,-4,-58,-33,9
1532299287998,30,16,10,17,31,41,94,14
1532299288003,2,-2,-7,-12,-39,-84,-16,-30
1532299288008,-27,-17,-10,-8,-10,-28,-70,6
1532299288013,-36,-8,-2,-2,0,95,95,20
1532299288018,8,24,12,10,14,-46,-48,6
1532299288023,-46,-25,-10,-2,13,44,79,4
1532299288028,19,8,6,3,4,52,36,19
1532299288033,42,10,7,9,1,-1,-32,20
1532299288038,-10,1,-3,-9,-11,-45,-95,-33
1532299288043,-2,4,-3,0,4,22,-4,50
1532299288048,-19,-19,-11,-10,-9,-25,-19,-27
1532299288053,4,-2,-1,1,18,80,16,1
1532299288058,-4,-1,-3,-12,-29,-8,24,6
1532299288063,29,5,2,6,7,45,28,2
1532299288068,-9,-4,0,-1,6,-19,31,8
1532299288073,-4,-2,3,4,8,-42,-2,10
1532299288078,0,-2,-3,-4,-7,16,0,-2
1532299288083,-7,-8,-3,-6,0,4,5,-17
1532299288088,-3,9,6,5,4,-15,-24,5
1532299288093,5,-8,0,0,-2,-25,74,-6
1532299288098,2,-7,-5,0,-5,13,10,14
1532299288103,-26,-14,1,0,-1,21,-13,-16
1532299288108,2,1,0,4,7,0,6,4
1532299288113,10,10,1,0,-7,-24,-49,-8
1532299288118,20,-6,-7,-5,-4,9,4,10
1532299288123,2,10,5,6,5,-12,-3,0
1532299288128,1,-21,-3,0,5,2,11,-8
1532299288133,-31,-2,-6,-7,-13,-1,-8,-1
1532299288138,1,1,-1,0,3,10,7,21
1532299288143,7,8,-1,1,3,3,-31,-23
1532299288148,-10,9,0,1,-5,-15,11,-5
1532299288153,-2,-6,-7,-1,1,-8,6,1
1532299288158,-7,-2,2,2,5,-3,9,-3
1532299288163,12,4,-1,-3,-7,-12,-17,1
1532299288168,-3,2,1,5,2,9,54,29
1532299288173,2,-6,-1,-1,3,-10,-53,-18
1532299288178,-1,3,-1,-4,-5,8,-31,1
1532299288183,-2,-9,-5,-4,-2,-3,-80,-9
1532299288188,10,12,2,2,2,-9,-39,-20
1532299288193,-22,-4,-4,1,-4,13,-50,9
1532299288198,-14,-13,-3,1,4,-2,-19,6
1532299288203,-27,-13,-5,-3,3,-6,33,-20
1532299288208,1,-23,2,-2,-2,-1,29,-34
1532299288213,39,36,3,-3,1,-3,24,73
1532299288218,6,6,-5,5,-1,7,39,-11
1532299288223,9,14,16,3,8,-5,-3,6
1532299288228,-16,-21,5,-2,-8,2,-47,-28
1532299288233,4,0,-4,-2,-2,-1,20,-31
1532299288238,1,7,14,0,2,-1,10,-2
1532299288243,3,1,-4,1,0,-4,19,-1
1532299288248,-14,2,-5,-3,-1,6,9,-2
1532299288253,-10,-17,2,-4,-4,-8,-110,-11
1532299288258,-4,2,-3,0,-2,-2,-95,-2
1532299288263,-4,-3,1,5,9,-2,-94,2
1532299288268,13,13,1,1,-3,2,-74,11
1532299288273,-10,-8,-14,-14,-9,-11,-116,-24
1532299288278,-53,-60,-25,-17,-6,-2,-51,-23
1532299288283,32,38,-18,5,-3,4,26,22
1532299288288,55,48,36,15,8,4,33,39
1532299288293,17,18,15,10,8,-1,116,-1
1532299288298,7,14,9,7,5,5,90,-6
1532299288303,-20,-40,-15,-7,-4,-6,71,-21
1532299288308,-10,-9,-18,-13,-3,-3,103,3
1532299288313,-3,1,0,-8,-12,0,127,-6
1532299288318,7,-7,1,-2,14,8,70,0
1532299288323,5,-4,-10,4,-6,-2,24,4
1532299288328,-4,3,3,5,9,4,45,15
1532299288333,-8,-24,-6,-13,-8,-6,9,-14
1532299288338,6,25,-8,-14,-13,-14,9,6
1532299288343,3,-14,6,-3,-7,-14,21,12
1532299288348,10,15,3,3,5,26,-15,-17
1532299288353,-6,-14,-8,7,3,-3,26,-11
1532299288358,7,10,2,4,3,5,23,14
1532299288363,3,6,4,2,7,-3,29,-5
1532299288368,-18,-16,-9,-5,-1,-7,19,-4
1532299288373,4,5,2,4,0,17,62,8
1532299288378,7,4,4,1,0,5,-16,-1
1532299288383,-3,0,5,-7,2,-20,14,-4
1532299288388,-12,-10,-2,6,5,-21,-49,-9
1532299288393,1,7,1,-8,0,-15,-18,2
1532299288398,-3,-1,4,2,-5,22,3,6
1532299288403,1,-7,-4,-2,0,11,13,4
1532299288408,-1,8,11,-6,6,-25,-45,-2
1532299288413,0,-2,-6,19,-5,-11,-37,-3
1532299288418,-1,-3,-2,-21,-16,-24,0,-1
1532299288423,0,2,6,-6,-6,25,-29,-1
1532299288428,-4,-3,-6,2,-5,-8,22,4
1532299288433,-4,-3,2,-1,7,6,-28,-6
1532299288438,-2,0,4,13,-3,-5,29,3
1532299288443,-1,5,-1,-3,-5,-20,-64,-12
1532299288448,-4,-4,-5,-8,-10,-7,84,-2
1532299288453,4,3,1,12,29,73,58,25
1532299288458,3,4,5,6,2,2,-8,-5
1532299288463,-5,-2,-3,-16,-24,-87,-59,-25
1532299288468,0,-6,-7,-4,0,79,52,13
1532299288473,6,7,9,11,22,-23,-1,15
1532299288478,0,-3,0,1,4,12,-10,7
1532299288483,-2,-3,-2,-5,-4,-14,-30,-2
1532299288488,-6,-5,-6,-2,-10,-21,-66,-13
1532299288493,-2,-3,1,-9,-13,0,-26,-7
1532299288498,5,0,-1,7,10,6,-9,-1
1532299288503,-3,-3,0,-3,-8,-26,-44,-8
1532299288508,1,-1,-3,-5,-8,15,51,11
1532299288513,4,0,2,-1,1,52,33,-2
1532299288518,-1,-2,-1,5,1,-59,21,-6
1532299288523,2,3,1,6,16,13,15,10
1532299288528,-3,-3,-9,-8,-8,3,-6,2
1532299288533,-3,0,-4,1,-10,-23,-45,-5
1532299288538,-3,-5,-9,-14,-11,5,-30,-12
1532299288543,5,3,4,11,13,40,49,7
1532299288548,3,1,-1,-2,-3,-11,-34,-2
1532299288553,-3,-3,-1,-6,-12,-34,-35,-14
1532299288558,-10,3,-2,2,6,9,-10,-9
1532299288563,-28,3,2,4,5,31,15,8
1532299288568,-32,-2,-2,-2,-6,-49,-61,-6
1532299288573,9,-5,-3,-6,-10,8,3,1
1532299288578,29,-2,2,0,7,12,10,14
1532299288583,25,-3,-2,-3,-2,6,8,1
1532299288588,14,-1,0,3,1,3,-1,-7
1532299288593,1,2,-1,-5,1,-17,4,-5
1532299288598,-2,1,-3,0,-12,-9,-6,1
1532299288603,-2,0,-1,-3,0,-7,11,3
1532299288608,-8,0,-4,1,1,9,-18,-11
1532299288613,-6,-2,-2,-1,3,-9,1,-1
1532299288618,-7,-1,3,5,1,8,-9,1
1532299288623,-6,-1,-1,1,2,17,16,3
1532299288628,1,-2,-3,-7,-5,-4,-13,-6
1532299288633,-3,-3,-3,-6,-11,-25,-9,6
1532299288638,-9,-3,-5,-8,-5,-13,-23,-9
1532299288643,3,-1,2,5,-2,27,-16,-1
1532299288648,3,-2,0,1,-5,-16,-11,-1
1532299288653,-7,-3,-2,0,15,18,31,-11
1532299288658,-7,-1,-3,-3,-4,-18,-54,4
1532299288663,5,1,0,-1,0,-2,23,1
1532299288668,3,0,0,4,18,9,-12,2
1532299288673,-2,1,-2,1,-7,-7,-13,1
1532299288678,4,0,-1,1,2,9,39,4
1532299288683,2,1,-5,-7,-12,-13,-25,-6
1532299288688,0,-1,-2,3,7,12,18,10
1532299288693,-3,0,0,-1,-4,1,5,1
1532299288698,-2,1,1,-1,2,-8,-11,-6
1532299288703,-3,-1,1,-4,-11,7,8,8
1532299288708,0,0,1,5,5,5,35,6
1532299288713,1,1,3,0,6,-3,-23,0
1532299288718,-3,0,1,-3,-4,-9,0,-2
1532299288723,-3,-2,0,-1,-6,14,-7,-5
1532299288728,3,-2,0,2,10,-24,23,-1
1532299288733,-1,0,-1,3,-1,21,13,11
1532299288738,-3,-3,-7,-9,-6,-5,-28,-6
1532299288743,1,0,3,6,16,-3,19,-1
1532299288748,0,1,7,2,-2,9,-12,-3
1532299288753,-5,-1,0,-7,-2,-16,-33,-8
1532299288758,0,1,3,-3,-13,3,50,5
1532299288763,1,-1,1,2,6,2,-19,0
1532299288768,-1,0,1,1,-1,0,-13,2
1532299288773,-3,-3,-5,-1,-9,-42,-3,-3
1532299288778,1,0,1,-5,5,31,-17,1
1532299288783,2,2,0,5,9,9,38,0
1532299288788,1,0,-2,-6,1,-2,13,0
1532299288793,-1,-2,-5,-11,-24,-20,-48,-3
1532299288798,2,-1,-2,8,4,4,12,2
1532299288803,-1,-1,0,4,4,0,-2,2
1532299288808,-3,-2,-4,-2,0,-2,5,-4
1532299288813,0,-1,1,3,-1,-20,-51,7
1532299288818,0,1,-1,0,1,-16,13,-3
1532299288823,0,-2,-1,-2,-3,10,-5,-2
1532299288828,-1,-2,-3,-2,-3,3,-11,-2
1532299288833,0,-2,0,-3,11,19,17,1
1532299288838,-1,-2,-4,-3,1,-11,1,1
1532299288843,0,0,0,-2,-24,-22,0,-3
1532299288848,0,-3,-4,-13,-27,-11,-9,-4
1532299288853,-4,-1,-3,-3,8,28,20,-5
1532299288858,-1,-1,1,5,11,-3,-60,-5
1532299288863,2,1,4,-1,-5,5,107,11
1532299288868,0,1,2,5,9,5,-9,3
1532299288873,-1,0,1,0,-3,7,6,-2
1532299288878,0,-1,-1,2,2,0,3,1
1532299288883,-3,-4,-5,-6,16,-11,-73,-9
1532299288888,-1,0,-1,-6,-39,-4,-9,1
1532299288893,0,-2,-2,-4,-5,-9,9,-8
1532299288898,1,1,6,9,5,1,1,13
1532299288903,-2,-1,-1,4,4,-4,-25,-1
1532299288908,1,-2,2,1,23,16,10,-1
1532299288913,3,2,-2,-2,-7,-14,-3,0
1532299288918,-4,-1,0,-4,-11,-3,-13,-8
1532299288923,-1,-1,2,-2,-14,-1,1,-1
1532299288928,-2,0,-3,-2,12,11,-27,0
1532299288933,-1,0,2,6,4,3,38,1
1532299288938,-3,-3,-3,-3,-1,6,12,0
1532299288943,0,-1,-2,-1,-1,-25,-6,2
1532299288948,0,-1,-3,-2,-2,11,16,-1
1532299288953,-4,-1,1,-2,-1,-13,-101,-10
1532299288958,3,-3,-1,2,2,12,87,11
1532299288963,-3,-1,-3,-3,2,-11,-3,1
1532299288968,-3,-2,0,2,-5,-10,-21,0
1532299288973,-3,-3,-7,-4,-10,-5,-1,-3
1532299288978,1,-1,-1,-3,-4,-1,-12,-2
1532299288983,-2,2,4,2,7,1,-24,-7
1532299288988,-2,-1,-1,-3,-10,2,18,0
1532299288993,1,0,0,2,11,8,34,2
1532299288998,-2,-1,-1,-3,-7,-1,-15,-5
1532299289003,-1,-2,-4,0,-1,11,4,-4
1532299289008,-1,0,-3,0,-4,18,20,4
1532299289013,0,-1,0,-3,2,6,-1,2
1532299289018,1,-1,-4,-2,-3,-8,0,-3
1532299289023,-2,-2,0,2,1,3,33,1
1532299289028,0,-1,1,3,5,-11,-32,-3
1532299289033,1,0,-1,-9,-8,-8,-18,-1
1532299289038,-3,-1,2,1,0,2,-4,-2
1532299289043,-1,2,2,1,1,-7,2,3
1532299289048,0,-3,-4,1,0,2,-6,-6
1532299289053,-1,-1,5,-2,-2,-5,-15,-5
1532299289058,-1,-2,-5,2,2,1,26,0
1532299289063,1,-2,-3,-4,10,0,-9,-6
1532299289068,-1,-1,0,-4,-14,-4,6,1
1532299289073,-3,-2,-4,-4,-6,-1,-4,0
1532299289078,0,-1,-1,-1,-1,-8,-19,0
1532299289083,0,0,3,3,6,18,36,1
1532299289088,-3,-1,-2,1,13,-11,-28,-4
1532299289093,-2,-2,-8,0,-10,8,14,-2
1532299289098,0,1,5,-1,6,-2,1,-5
1532299289103,-1,-1,-2,-1,-6,-1,7,5
1532299289108,-1,0,-3,-6,-8,-21,-26,-3
1532299289113,1,-1,2,-1,-7,20,11,0
1532299289118,-1,-3,-2,-3,-4,-3,-4,5
1532299289123,-3,-2,1,1,5,-5,-22,-8
1532299289128,1,0,0,2,1,4,14,12
1532299289133,0,-2,-1,-2,0,-7,-8,-3
1532299289138,-2,-1,-1,2,3,20,24,0
1532299289143,-4,-3,-2,-3,-3,-13,-24,-10
1532299289148,3,1,3,2,6,32,36,6
1532299289153,-3,1,2,-3,-4,-12,1,0
1532299289158,0,0,3,7,9,-2,-22,3
1532299289163,2,0,-2,-3,-14,6,14,7
1532299289168,-5,-4,-6,-3,-5,-9,-15,-12
1532299289173,1,0,-1,0,14,2,3,2
1532299289178,0,0,0,-3,-9,-7,-4,-5
1532299289183,-3,-2,-5,-11,-17,-10,10,1
1532299289188,-3,-2,0,-1,-10,1,-41,-9
1532299289193,1,1,-1,1,6,-1,11,5
1532299289198,0,0,-1,1,6,-5,-1,2
1532299289203,0,-1,-2,4,4,-11,-5,-1
1532299289208,0,0,-1,-3,7,28,45,9
1532299289213,-2,-2,-2,1,6,-7,-40,-9
1532299289218,0,-2,-3,-6,-23,-31,10,0
1532299289223,-1,-1,-1,0,4,17,-17,0
1532299289228,0,1,0,8,12,-26,6,-6
1532299289233,2,-4,-5,-8,-20,29,27,1
1532299289238,-4,-4,-3,-6,4,-21,-26,-12
1532299289243,4,1,3,5,10,15,9,7
1532299289248,0,1,2,-2,-8,-3,4,19
1532299289253,-2,-1,1,2,7,-7,3,-6
1532299289258,1,0,-1,1,5,5,-8,2
1532299289263,-3,-2,-5,-9,-21,-15,-3,-3
1532299289268,-4,-3,0,-1,-1,-14,-36,-15
1532299289273,0,1,4,5,0,10,16,8
1532299289278,-1,0,2,-1,-4,18,3,5
1532299289283,-1,0,0,3,11,-1,11,0
1532299289288,2,2,-1,3,7,-7,-11,-5
1532299289293,0,-2,-2,-4,-19,-6,1,-1
1532299289298,2,0,-1,-2,3,-14,-28,-4
1532299289303,3,0,2,2,11,34,34,8
1532299289308,-2,0,0,-3,-10,-36,-30,-10
1532299289313,0,-3,-1,1,9,-14,1,-1
1532299289318,0,0,-3,1,-9,14,-8,0
1532299289323,-1,-1,-15,0,4,-13,-5,-3
1532299289328,-1,0,-7,-4,4,21,-5,-3
1532299289333,-3,0,-3,-2,-11,-6,-7,-7
1532299289338,-2,1,5,-2,0,-20,43,2
1532299289343,-1,1,7,4,1,8,-17,-1
1532299289348,-1,-1,1,-2,2,3,2,-1
1532299289353,0,-1,1,-1,3,-4,-9,-1
1532299289358,-4,-3,3,-3,-8,-3,-24,-10
1532299289363,2,1,0,-3,-10,-3,-2,5
1532299289368,-2,-4,-2,-4,-3,4,-4,-1
1532299289373,0,1,3,4,4,-5,7,1
1532299289378,-2,-2,-1,1,12,-8,-4,-2
1532299289383,-2,-1,-1,-4,-11,-32,-5,-6
1532299289388,-1,-1,-1,-5,-2,29,10,5
1532299289393,2,1,0,2,5,0,-5,2
1532299289398,-1,-3,-4,3,1,5,2,2
1532299289403,-3,-1,2,-3,-1,8,14,-1
1532299289408,0,-1,-1,0,5,-12,-6,-3
1532299289413,-4,0,-4,-2,-18,-20,8,-3
1532299289418,-1,0,-1,-2,-1,28,-2,-1
1532299289423,-2,-2,-1,3,14,-9,-2,0
1532299289428,0,-1,-1,1,-15,13,0,0
1532299289433,-3,-2,-5,-6,-1,-1,-19,-4
1532299289438,0,-2,-1,-5,-5,-6,-2,-3
1532299289443,0,0,1,2,6,-2,-1,2
1532299289448,-2,-1,-2,-1,2,-13,-16,-6
1532299289453,2,0,1,1,4,12,39,0
1532299289458,-2,-2,-4,-2,-8,-29,5,-8
1532299289463,2,0,-1,-1,-1,22,-27,6
1532299289468,0,-1,-3,0,1,1,16,-1
1532299289473,0,0,0,0,1,10,-12,1
1532299289478,0,0,-3,4,4,8,-9,0
1532299289483,-2,-2,-1,-6,-2,-16,27,-2
1532299289488,0,2,1,-1,-4,-2,-16,0
1532299289493,-2,-2,-2,-1,3,1,-23,1
1532299289498,0,0,0,-1,2,8,24,1
1532299289503,-2,-1,-3,1,-6,-9,-22,-9
1532299289508,1,1,0,0,-1,2,13,-2
1532299289513,-3,-2,0,-1,2,-3,-2,-7
1532299289518,2,1,-1,-1,0,13,-14,9
1532299289523,-1,0,2,1,-4,-6,4,1
1532299289528,-1,-1,0,0,-1,-13,-7,4
1532299289533,-2,0,0,0,-1,-15,-41,-11
1532299289538,1,0,0,-4,-4,-14,30,22
1532299289543,-6,-1,-4,1,4,55,-10,-50
1532299289548,8,3,2,7,1,-28,3,31
1532299289553,-7,0,-3,-3,-3,-32,-15,-21
1532299289558,0,-1,0,-1,0,28,37,4
1532299289563,-3,0,-1,-3,-1,5,16,4
1532299289568,-2,-4,-3,-4,-5,-4,-18,9
1532299289573,2,1,0,3,3,7,15,1
1532299289578,-1,1,7,2,4,-5,-15,-4
1532299289583,3,-1,-2,-1,-3,-11,3,12
1532299289588,-4,-2,3,-1,-1,24,3,-18
1532299289593,3,-2,-4,1,9,32,39,20
1532299289598,-2,-3,-3,1,1,-4,-17,-12
1532299289603,1,-1,0,0,1,0,-11,4
1532299289608,-5,-3,-5,-4,-1,-12,6,-7
1532299289613,0,-1,0,4,-6,-13,-2,-3
1532299289618,-1,-1,-1,-3,-9,16,0,-3
1532299289623,-1,-1,2,2,1,-8,-7,7
1532299289628,-1,0,-2,-3,-3,9,10,-7
1532299289633,-2,-2,0,1,-1,-14,-28,2
1532299289638,-3,0,-3,0,-3,-1,-8,-4
1532299289643,-1,-1,0,-4,-2,-30,20,7
1532299289648,-2,-1,-2,-1,6,22,-9,-7
1532299289653,-1,-2,-2,-5,-7,-5,1,2
1532299289658,-2,0,-1,0,-7,-12,-23,0
1532299289663,1,0,-2,2,4,9,31,1
1532299289668,1,0,0,-1,-2,-5,1,-4
1532299289673,1,0,-1,-1,2,14,8,3
1532299289678,-1,-2,-5,0,-1,-10,-21,-4
1532299289683,0,0,-1,2,-2,-17,-5,1
1532299289688,0,-2,0,2,-1,-3,-9,-3
1532299289693,-2,0,0,-5,0,0,21,0
1532299289698,0,0,2,1,3,7,-12,1
1532299289703,1,1,3,3,2,6,-6,-1
1532299289708,-2,-2,-6,-3,-4,-1,3,4
1532299289713,-1,-1,10,1,-5,-10,-14,0
1532299289718,2,-1,-10,-1,3,25,35,2
1532299289723,-4,0,0,0,2,-11,-16,2
1532299289728,-2,-1,1,-4,-2,20,6,-6
1532299289733,0,-2,-1,4,15,-21,-1,-1
1532299289738,2,-1,3,-5,-22,8,14,-2
1532299289743,-4,-2,2,-1,-3,-2,-16,-1
1532299289748,-2,-3,-1,-2,-3,-26,-22,-7
1532299289753,-1,0,-2,-2,-2,7,-7,3
1532299289758,-2,0,2,1,22,-7,5,-2
1532299289763,0,0,0,3,7,-24,-25,-10
1532299289768,-1,-1,-3,-10,-29,31,15,10
1532299289773,-5,-3,-7,-5,4,1,-26,-18
1532299289778,1,-1,-2,-2,-2,-1,-3,-7
1532299289783,-2,-1,-6,-5,-1,-8,4,-1
1532299289788,1,0,3,7,19,-16,7,3
1532299289793,4,5,2,2,-15,22,7,8
1532299289798,-4,-5,0,-2,5,-6,-4,0
1532299289803,-1,-3,-2,-2,-6,8,-3,-3
1532299289808,-1,-2,-3,0,1,-21,7,-2
1532299289813,2,2,1,7,29,15,48,-1
1532299289818,0,0,-2,-13,-52,-2,-33,11
1532299289823,-1,0,0,0,2,20,19,10
1532299289828,-3,0,0,2,2,22,15,-3
1532299289833,-2,-1,0,-1,8,-6,-16,-6
1532299289838,0,-1,-1,2,2,-8,10,-5
1532299289843,1,-2,-3,-5,-7,-1,-1,-4
1532299289848,-1,-1,-2,-1,-1,-7,-23,-12
1532299289853,-1,-1,-7,-1,-5,-1,6,2
1532299289858,-1,0,0,1,13,2,-11,-8
1532299289863,3,0,1,7,-5,32,10,4
1532299289868,-2,-2,0,-10,-23,-41,-6,3
1532299289873,-3,-1,-1,-5,-3,9,-8,1
1532299289878,-1,-4,-1,2,-1,-7,3,4
1532299289883,-1,-2,-3,0,16,9,-4,-2
1532299289888,-3,2,0,3,11,-6,-11,-6
1532299289893,0,-1,-3,-2,-18,1,-4,0
1532299289898,0,2,-2,3,9,-4,4,3
1532299289903,-2,0,-3,-2,-5,-13,2,-6
1532299289908,0,0,-2,-3,2,2,3,0
1532299289913,-2,-1,-2,-5,-7,-19,-32,1
1532299289918,0,0,2,0,-2,1,35,-7
1532299289923,-2,-1,-3,-2,-7,1,27,2
1532299289928,-1,-1,0,-1,-6,3,-8,0
1532299289933,-1,-1,1,2,7,-2,-5,4
1532299289938,1,2,3,0,3,-8,1,1
1532299289943,-2,0,3,2,0,8,-10,-1
1532299289948,0,-1,-3,0,5,14,13,0
1532299289953,-1,-2,-2,0,-5,-11,1,-4
1532299289958,-4,-1,1,1,2,-30,-29,-1
1532299289963,1,-1,0,0,5,11,5,1
1532299289968,-1,-1,1,0,-23,-14,2,-1
1532299289973,-2,-2,-2,-5,-14,3,8,-1
1532299289978,0,-1,-2,-1,0,10,1,-4
1532299289983,-2,-3,-3,-6,-9,-30,-18,0
1532299289988,-2,0,-3,-2,1,5,-10,-6
1532299289993,-1,0,0,-1,2,24,22,2
1532299289998,1,0,-1,2,6,-6,-4,1
1532299290003,-1,-1,1,-5,-17,-28,-17,-1
1532299290008,0,2,1,3,9,-6,-39,-3
1532299290013,3,1,3,0,8,30,37,9
1532299290018,-3,-1,-1,0,-1,-9,-16,2
1532299290023,1,-1,1,2,3,11,-3,5
1532299290028,-1,-3,-1,3,0,-21,-8,-3
1532299290033,-1,-2,-2,-2,-6,-16,-23,-7
1532299290038,1,-1,1,2,7,42,30,3
1532299290043,1,0,1,1,0,14,23,3
1532299290048,-2,-2,-1,-1,-1,7,8,-1
1532299290053,1,0,-1,0,0,-16,-7,-3
1532299290058,-3,-2,-1,-4,-1,-8,-14,-9
1532299290063,-1,-2,-2,-1,3,3,-11,-4
1532299290068,-1,-3,-2,-4,0,5,-4,1
1532299290073,-1,-2,-1,-3,-4,0,1,-1
1532299290078,0,0,0,0,2,13,8,1
1532299290083,-1,-2,-1,-1,-2,-22,-10,0
1532299290088,1,0,2,1,-1,11,5,1
1532299290093,-2,0,0,-3,4,0,1,1
1532299290098,-3,-2,0,-4,0,-7,13,-2
1532299290103,-1,-1,0,0,0,-18,-17,-4
1532299290108,0,1,-3,0,-1,7,27,3
1532299290113,-3,0,-1,3,1,-7,-29,-3
1532299290118,-2,0,-1,-2,-2,-8,-4,0
1532299290123,0,-1,-2,-2,-3,25,40,1
1532299290128,-1,-1,1,-1,-6,-6,-21,-4
1532299290133,1,0,0,0,0,4,7,-4
1532299290138,0,-1,-2,2,4,0,-6,-6
1532299290143,-1,-1,-3,-3,-5,-7,-12,-1
1532299290148,-1,-1,0,-1,-5,-3,10,2
1532299290153,0,0,-1,0,-2,-10,0,9
1532299290158,0,-2,-2,0,3,7,-6,2
1532299290163,-1,-1,1,-1,-1,-10,-22,-3
1532299290168,-1,0,-1,-2,-1,15,11,-3
1532299290173,-2,-3,-2,-2,-4,-9,-7,1
1532299290178,-2,-1,1,1,-1,-6,2,-1
1532299290183,-1,-3,1,2,1,3,-3,-1
1532299290188,0,-1,-2,-3,0,-18,-7,3
1532299290193,-1,-1,-2,-2,-2,4,14,-1
1532299290198,-2,-3,1,1,-3,-4,-22,-7
1532299290203,-2,-2,2,-2,-4,-5,-1,-5
1532299290208,0,0,0,2,1,0,-11,-5
1532299290213,-1,-2,-1,1,-2,2,9,-5
1532299290218,1,0,-1,-1,-1,-1,-10,1
1532299290223,-1,-1,-6,-1,-5,22,34,5
1532299290228,-2,0,-1,1,-2,-13,-10,3
1532299290233,-1,0,-1,-1,0,2,-6,-2
1532299290238,-2,0,-1,0,-2,-2,0,-1
1532299290243,0,0,-2,1,1,9,18,1
1532299290248,-1,-1,-3,-2,-1,-9,-2,-3
1532299290253,-2,-3,-2,0,-1,5,-16,-2
1532299290258,3,0,0,0,2,9,11,3
1532299290263,0,-1,0,-3,1,7,-4,-6
1532299290268,-1,-2,-1,-1,-4,-10,6,-3
1532299290273,-1,-2,0,-1,-3,-19,-18,-5
1532299290278,1,-1,-2,-3,1,20,27,4
1532299290283,-2,1,0,-2,0,-10,-10,0
1532299290288,-2,-1,-3,0,-1,-13,-19,0
1532299290293,3,1,-1,-1,3,26,57,4
1532299290298,-1,-2,1,0,-1,-9,-15,1
1532299290303,1,0,-2,0,3,11,9,-2
1532299290308,0,0,1,0,-2,4,-5,-2
1532299290313,-1,-1,-2,0,-1,-20,-30,-1
1532299290318,-2,-1,-2,-3,-1,15,9,-4
1532299290323,0,-2,2,-1,3,-3,-10,4
1532299290328,0,-1,-1,0,1,-3,1,-1
1532299290333,-4,-2,-5,1,1,8,-12,-5
1532299290338,1,0,-2,-7,0,0,24,1
1532299290343,0,0,0,-1,-5,-10,-27,-4
1532299290348,0,0,0,0,0,1,14,3
1532299290353,1,0,1,-1,0,-6,-10,-1
1532299290358,1,1,-1,1,-2,6,-14,-2
1532299290363,-1,-1,-1,0,2,3,17,-2
1532299290368,1,0,1,-2,0,7,8,3
1532299290373,0,-1,-1,0,0,2,1,3
1532299290378,0,-3,-3,-2,-6,-28,-25,-4
1532299290383,1,-1,-1,-1,0,-2,8,-1
1532299290388,-3,-1,1,-2,0,44,6,-4
1532299290393,-1,-1,1,-3,-2,-43,-5,-2
1532299290398,-1,0,0,1,2,-9,-2,-2
1532299290403,0,0,7,2,-1,-8,0,-3
1532299290408,-2,-2,-11,4,0,1,-2,-1
1532299290413,-1,-2,1,-2,-3,15,7,-1
1532299290418,-4,-2,-5,-5,-5,-23,-40,-2
1532299290423,-1,-1,1,3,0,17,49,2
1532299290428,1,1,3,2,2,1,-12,0
1532299290433,-2,0,-2,1,0,4,1,3
1532299290438,-2,-1,0,0,1,2,6,0
1532299290443,-2,-3,-5,-3,-5,-15,-24,-6
1532299290448,1,-1,7,2,-1,-11,-4,-4
1532299290453,-1,-3,-10,-2,0,11,7,-3
1532299290458,-1,-1,2,1,-1,-12,3,2
1532299290463,1,3,-1,2,5,18,9,12
1532299290468,-2,-3,-1,-3,-5,-7,5,2
1532299290473,-1,1,7,0,2,-2,-13,-2
1532299290478,-1,0,0,-1,-2,-8,-20,-1
1532299290483,-2,-1,-6,-3,-2,14,-2,-1
1532299290488,0,-1,2,-2,-1,-13,-13,-2
1532299290493,0,2,2,2,-2,4,10,4
1532299290498,-3,-1,-4,0,-4,-2,-1,-5
1532299290503,-2,-1,-2,-1,-3,-21,2,-4
1532299290508,-1,2,-1,0,1,-7,-10,-1
1532299290513,-1,-2,-1,-2,0,9,-1,0
1532299290518,-2,-1,-1,1,-1,-6,-1,-2
1532299290523,0,1,0,-1,6,21,16,-1
1532299290528,-2,-1,0,-1,-9,-11,4,-5
1532299290533,1,-1,-1,-2,1,6,15,-1
1532299290538,-1,0,0,-1,0,12,2,6
1532299290543,-3,-1,2,-2,-1,-17,-12,-1
1532299290548,-1,-1,-7,0,-1,3,18,5
1532299290553,-1,-3,-6,0,-1,1,-11,1
1532299290558,-1,-2,-2,-1,0,20,19,-2
1532299290563,-1,-2,0,0,-3,-16,-24,-4
1532299290568,-2,-2,1,-1,2,-8,3,1
1532299290573,-1,0,0,-2,-5,2,2,-1
1532299290578,0,-1,-1,1,2,-9,1,-2
1532299290583,-4,-5,-11,-5,-5,-19,-25,-2
1532299290588,-1,-2,-3,-1,-4,5,2,-4
1532299290593,1,0,3,1,6,41,29,-3
1532299290598,3,0,1,1,2,6,8,5
1532299290603,0,-1,0,0,-1,5,-8,4
1532299290608,-1,0,2,-2,1,-10,12,2
1532299290613,-1,-3,-6,-2,-5,-5,-10,-7
1532299290618,0,2,5,0,1,0,7,1
1532299290623,-1,0,-3,-1,-2,-14,-11,-5
1532299290628,1,1,-6,0,0,5,2,-2
1532299290633,-2,-1,0,-3,-2,-12,-18,-5
1532299290638,-2,-2,-2,0,-2,6,-1,-4
1532299290643,0,0,1,-3,-3,5,15,3
1532299290648,-1,-1,3,-2,-1,16,-17,0
1532299290653,0,-1,-2,-2,-2,-47,-32,1
1532299290658,1,-1,-2,-1,2,23,28,3
1532299290663,-1,1,-1,2,3,10,10,2
1532299290668,0,-2,2,-1,0,2,-6,2
1532299290673,0,-2,0,-1,-5,-12,-24,0
1532299290678,0,1,-4,1,2,-2,16,1
1532299290683,1,1,4,0,-2,-2,-13,-1
1532299290688,-1,-1,-3,-1,3,16,20,-3
1532299290693,0,0,6,1,1,-7,-10,2
1532299290698,-1,-2,-9,-4,-2,-8,-11,-5
1532299290703,-2,-1,0,1,1,0,0,-2
1532299290708,-1,-1,-1,-1,-2,-13,-17,-7
1532299290713,-3,-2,-3,-2,-6,-18,-4,-4
1532299290718,-1,0,6,1,5,24,17,3
1532299290723,-1,-2,-1,-3,-1,-7,-5,-2
1532299290728,0,-2,-2,-2,0,-5,-5,0
1532299290733,1,0,6,0,0,4,10,4
1532299290738,-2,-2,-2,-1,-6,-26,-31,-4
1532299290743,2,-1,2,1,3,33,55,4
1532299290748,1,1,-5,2,2,-4,-31,-5
1532299290753,1,0,-5,-3,0,29,15,-1
1532299290758,-1,-2,0,-2,-3,-31,-10,-3
1532299290763,-2,-1,-2,-2,-1,-8,-13,2
1532299290768,-3,-1,4,-1,-1,5,10,3
1532299290773,-1,0,-4,1,-3,-9,-7,-2
1532299290778,1,-1,-1,1,1,17,13,2
1532299290783,-3,-2,0,1,-2,-11,-21,-4
1532299290788,-1,1,-2,-2,1,-7,9,2
1532299290793,-1,-1,-4,0,-1,1,-16,-4
1532299290798,-3,-2,1,-2,-3,3,-1,-3
1532299290803,0,1,-2,0,-1,-10,-4,0
1532299290808,0,0,2,2,0,-1,-13,-5
1532299290813,0,0,-1,-2,4,0,21,-1
1532299290818,-2,-3,0,-2,-4,0,-17,-5
1532299290823,2,0,-1,1,4,5,7,3
1532299290828,-2,-2,-1,-1,-6,-44,-34,-4
1532299290833,1,0,2,8,9,48,29,4
1532299290838,0,0,-3,-1,3,3,-9,10
1532299290843,1,0,-3,-3,-4,-14,-2,0
1532299290848,-2,-2,2,4,11,1,3,-3
1532299290853,1,3,0,-2,-11,-3,-2,-1
1532299290858,-1,-4,-2,1,9,-4,-12,-7
1532299290863,1,-3,-1,-5,-23,9,17,-3
1532299290868,-2,-1,-1,-2,-8,-13,9,11
1532299290873,-1,-3,-4,-4,6,7,10,-3
1532299290878,2,2,1,-1,-6,4,6,7
1532299290883,-4,-3,-5,-3,6,-18,-37,-11
1532299290888,0,-2,-1,0,5,6,3,-5
1532299290893,-1,-1,-1,4,2,-3,-25,-2
1532299290898,1,1,4,1,-9,-14,19,-1
1532299290903,0,-2,0,0,-3,-11,3,1
1532299290908,1,-1,-3,-4,-15,13,11,6
1532299290913,-2,-2,-2,-3,11,-5,-23,-4
1532299290918,-3,-2,-2,-4,-2,3,14,-3
1532299290923,0,0,2,6,4,-14,-5,3
1532299290928,1,-1,-2,0,4,7,13,-3
1532299290933,-3,-3,-3,-5,-10,1,-21,-1
1532299290938,-2,-1,-5,-4,0,10,20,3
1532299290943,0,4,2,-1,5,13,-8,-1
1532299290948,-3,-4,-6,-1,6,-4,0,-6
1532299290953,0,-1,0,-2,-13,-18,14,5
1532299290958,-1,1,-2,-4,-2,-6,-25,-7
1532299290963,0,0,0,1,2,-10,5,3
1532299290968,1,1,0,-3,-1,12,0,4
1532299290973,-1,-1,0,0,3,-4,-35,-8
1532299290978,-3,-2,-2,-2,-3,-9,37,-3
1532299290983,-2,-2,-2,-2,0,-2,-22,-2
1532299290988,-1,-1,0,0,3,4,-5,-1
1532299290993,-2,0,-2,-4,-13,7,32,6
1532299290998,-2,0,1,-1,-2,-10,-34,-13
1532299291003,1,-2,-1,0,-2,2,0,7
1532299291008,1,2,0,-2,1,-8,5,-2
1532299291013,-1,-1,3,0,0,-15,3,-2
1532299291018,3,1,1,3,4,28,28,5
1532299291023,-1,-1,-2,-1,1,4,-3,-6
1532299291028,-1,-2,-2,-1,-2,7,9,3
1532299291033,-1,-1,0,0,1,0,-3,-2
1532299291038,-4,-2,-1,0,-4,-40,-43,-3
1532299291043,0,-1,-2,-1,2,45,53,0
1532299291048,-1,-1,0,-1,-6,-3,-1,-1
1532299291053,-2,-1,-2,0,3,-3,6,3
1532299291058,3,1,0,1,4,-3,0,1
1532299291063,-2,0,-2,-2,-3,-5,-43,-3
1532299291068,-2,-2,-2,-2,-4,-13,5,0
1532299291073,1,1,-3,3,9,10,13,1
1532299291078,1,-1,-4,-3,-3,2,-7,0
1532299291083,-1,0,0,0,-6,-7,-6,-1
1532299291088,-2,-2,0,0,-4,-15,-23,-4
1532299291093,0,-1,0,2,0,7,33,-1
1532299291098,0,0,2,2,6,15,-11,1
1532299291103,-3,-1,-2,-1,-1,-6,-4,0
1532299291108,-1,0,-1,1,7,4,1,-1
1532299291113,-1,-1,-1,-4,-11,-12,6,1
1532299291118,-3,-2,0,0,-3,1,-10,0
1532299291123,-1,-1,-2,-1,-2,-5,4,-3
1532299291128,-1,1,2,5,11,30,32,2
1532299291133,1,1,-1,-5,-4,-7,-7,1
1532299291138,0,-1,1,3,-4,2,4,-2
1532299291143,-2,-3,-3,-5,0,-10,-9,-2
1532299291148,-1,0,0,2,0,5,-2,0
1532299291153,-1,0,-1,1,1,-2,-4,3
1532299291158,-1,1,-4,0,1,-7,-2,-2
1532299291163,-2,-3,-1,1,8,6,-10,-4
1532299291168,0,0,-2,-10,-27,-17,-22,-6
1532299291173,-3,-2,-2,-2,2,2,-10,-2
1532299291178,0,-1,-3,-1,-4,-5,18,-3
1532299291183,0,-1,-2,0,3,1,10,0
1532299291188,1,-1,1,0,5,5,-2,1
1532299291193,-1,-1,0,0,0,-3,-10,-2
1532299291198,-3,-3,0,2,3,3,-1,2
1532299291203,1,2,1,-3,-12,6,11,1
1532299291208,-1,-2,-3,-1,1,10,-10,0
1532299291213,1,1,0,0,5,-6,6,-1
1532299291218,0,-2,0,-1,2,9,1,-1
1532299291223,1,-1,-2,-1,-1,-7,5,-7
1532299291228,-1,-1,-2,0,-2,-13,-13,-3
1532299291233,-1,-2,0,-2,-2,6,8,-7
1532299291238,1,-1,1,-2,-1,3,6,-1
1532299291243,-1,-2,0,-1,-1,-9,-6,-3
1532299291248,-1,-1,-1,-3,0,-5,10,-3
1532299291253,0,0,1,1,2,18,3,0
1532299291258,1,1,-1,-2,-2,2,19,3
1532299291263,-2,-1,-1,1,4,-17,-9,2
1532299291268,-1,-2,-1,0,-4,-3,2,3
1532299291273,-2,-2,-2,0,-1,-9,-5,3
1532299291278,0,-1,-4,2,0,5,-20,1
1532299291283,-1,0,-3,-3,-2,2,-5,-3
1532299291288,0,0,-1,3,6,4,1,2
1532299291293,0,-2,0,-2,-12,-16,-8,6
1532299291298,-1,0,2,1,0,-10,3,-4
1532299291303,0,0,1,-1,-1,11,8,3
1532299291308,-2,4,0,-1,-3,-13,-4,-8
1532299291313,0,-6,-6,-5,2,12,2,4
1532299291318,-2,-1,-1,2,2,-16,-23,0
1532299291323,-3,-1,1,3,2,28,37,-11
1532299291328,2,-1,-1,-1,1,4,2,7
1532299291333,-4,-1,-4,-1,-1,-8,-18,-12
1532299291338,-3,0,-1,-2,-4,-2,-2,-5
1532299291343,0,0,0,0,-1,-9,-20,3
1532299291348,-1,-2,-3,-2,-6,8,11,3
1532299291353,-1,0,0,1,4,-8,3,-7
1532299291358,2,-1,-1,1,-1,10,11,13
1532299291363,1,2,-1,1,1,-3,6,0
1532299291368,-2,-2,-3,0,3,4,16,4
1532299291373,-2,1,-2,-1,-3,-29,-53,-10
1532299291378,-2,-1,-1,-3,-1,13,23,0
1532299291383,-4,0,1,0,-3,-21,-81,-33
1532299291388,1,-3,-1,0,-1,-4,5,6
1532299291393,1,-1,1,0,1,0,19,5
1532299291398,0,-1,0,-2,-2,11,31,-9
1532299291403,0,0,-1,-3,-5,-3,5,6
1532299291408,-1,2,14,1,-2,-8,0,-9
1532299291413,2,4,-3,2,4,20,3,4
1532299291418,-4,-6,-5,-3,-3,-12,-32,1
1532299291423,1,0,1,0,0,12,27,16
1532299291428,-1,-1,3,-3,1,4,2,-1
1532299291433,0,-3,41,8,-5,-6,-6,1
1532299291438,-2,-4,-92,-19,-1,-6,-1,1
1532299291443,-3,-2,0,0,-2,4,-2,2
1532299291448,-1,1,-8,-3,-3,-4,-17,-7
1532299291453,-2,-4,8,0,-6,-10,-3,-4
1532299291458,5,-8,7,6,7,5,7,4
1532299291463,6,11,-7,-7,-5,-10,-4,-6
1532299291468,-2,-2,-12,2,4,-1,-2,-2
1532299291473,1,0,-10,0,3,35,31,-1
1532299291478,-9,0,23,-1,-5,-25,-15,-11
1532299291483,17,-1,3,0,5,19,9,14
1532299291488,-1,-4,7,0,-1,2,8,3
1532299291493,-4,10,-13,-5,3,-3,-1,6
1532299291498,-6,-2,11,2,1,-12,-11,-1
1532299291503,-7,-4,-1,0,-3,-15,-15,-5
1532299291508,0,-1,2,2,-4,-3,-6,-6
1532299291513,-1,-6,-7,-4,-3,-16,-6,-2
1532299291518,4,8,-4,0,3,17,14,2
1532299291523,-3,-12,-29,-3,-9,-29,-4,-4
1532299291528,-28,5,31,6,8,33,9,-2
1532299291533,8,-1,-19,-3,-4,-10,-1,2
1532299291538,4,3,21,2,-2,-6,-5,-6
1532299291543,1,-2,-2,0,-2,2,-12,4
1532299291548,-1,-2,-11,-3,-5,-7,-4,-5
1532299291553,-2,-1,6,1,5,28,47,9
1532299291558,-2,-1,6,0,-5,-7,-40,-8
1532299291563,-7,1,11,3,4,-2,9,1
1532299291568,5,-1,-7,-4,-7,-28,-5,3
1532299291573,-3,-1,1,0,6,43,37,3
1532299291578,3,-1,0,-2,-8,9,-14,-4
1532299291583,-5,0,3,-1,3,-15,20,4
1532299291588,3,-2,-6,-4,-1,-10,-12,-11
1532299291593,2,-1,-8,0,-1,-22,-20,-5
1532299291598,-5,-3,5,0,-5,4,-11,0
1532299291603,-3,-1,4,0,2,19,24,3
1532299291608,4,-2,-9,2,1,-5,-14,-1
1532299291613,-4,0,-2,-2,-2,-10,-12,-3
1532299291618,1,2,6,5,10,24,1,3
1532299291623,-2,-2,3,-3,-10,-2,-5,-6
1532299291628,3,-1,-7,-2,-2,-3,-8,-2
1532299291633,0,0,0,0,-5,3,-6,-2
1532299291638,0,0,3,3,3,2,14,3
1532299291643,-1,-1,-2,-1,2,-28,-16,-7
1532299291648,-1,0,-2,-1,0,21,16,-5
1532299291653,-3,-3,-4,-3,2,-19,-38,-1
1532299291658,0,-1,-2,-3,-5,-1,24,7
1532299291663,-2,0,2,-1,2,27,16,2
1532299291668,1,-1,-3,-4,-7,-14,-12,2
1532299291673,-1,-1,0,-1,-1,-17,-4,-8
1532299291678,3,1,2,3,12,16,27,9
1532299291683,-3,-4,-4,-10,-29,-19,-21,-5
1532299291688,2,1,1,2,0,-1,10,0
1532299291693,-1,-1,-2,-3,-6,2,5,1
1532299291698,-2,-2,2,-3,-2,-12,-31,-9
1532299291703,0,4,3,4,14,0,4,3
1532299291708,0,0,-1,2,3,20,0,0
1532299291713,0,-1,-2,-3,-5,-10,1,0
1532299291718,-2,-7,8,-1,-3,2,-5,-5
1532299291723,18,7,-5,0,1,-20,-21,5
1532299291728,-11,-7,-2,-3,-2,11,20,-7
1532299291733,-1,3,-5,2,4,19,8,-2
1532299291738,-2,-1,-1,-4,-7,-29,-17,-1
1532299291743,-5,-4,0,1,0,4,21,3
1532299291748,4,0,0,0,2,-11,-16,0
1532299291753,2,-1,3,0,-6,3,-2,-4
1532299291758,0,2,-2,-2,-3,4,15,-4
1532299291763,-4,-4,-2,1,0,3,-8,-6
1532299291768,2,3,0,-1,-2,10,3,3
1532299291773,-3,-2,1,1,1,-9,-11,2
1532299291778,1,1,-3,-3,-9,-14,-4,-5
1532299291783,-5,-3,0,-1,1,8,11,1
1532299291788,0,0,-2,1,-1,-29,-48,0
1532299291793,2,0,0,1,6,44,41,8
1532299291798,-1,-1,-7,-3,-4,-17,-14,-3
1532299291803,-2,1,4,0,3,18,19,-2
1532299291808,-3,-4,-1,-1,-4,-1,-13,-1
1532299291813,-1,-2,-2,-1,-3,-33,-16,-3
1532299291818,-3,3,5,2,-1,4,11,0
1532299291823,0,1,-5,-2,-1,16,20,4
1532299291828,-6,-8,105,5,-7,-21,-4,0
1532299291833,30,11,-102,-15,7,19,22,8
1532299291838,-18,-7,15,2,-2,10,-14,-9
1532299291843,-2,-8,2,0,3,-4,-9,10
1532299291848,6,5,-3,2,-1,2,11,-12
1532299291853,1,0,27,3,-4,-13,-20,-7
1532299291858,7,4,-2,-1,-1,19,5,2
1532299291863,-4,-3,-3,-3,-4,-41,-19,-8
1532299291868,1,4,-20,-1,5,34,44,17
1532299291873,-7,-6,19,4,-3,-14,-16,0
1532299291878,1,-1,-18,-7,-1,-18,-7,-3
1532299291883,-7,-4,10,1,1,34,26,8
1532299291888,1,2,4,2,2,-2,1,-9
1532299291893,0,1,3,0,1,15,-17,-10
1532299291898,1,-5,-48,-4,0,-12,15,-3
1532299291903,-8,-2,21,-2,-4,-11,-25,-5
1532299291908,0,-1,1,-2,-4,-11,1,-9
1532299291913,0,1,-2,-3,1,-9,-4,8
1532299291918,-1,-3,-2,-1,1,28,8,-2
1532299291923,6,-3,0,-1,-3,-14,-10,-1
1532299291928,0,-1,-6,-3,0,19,13,-2
1532299291933,-1,1,1,-2,-4,-36,-16,-5
1532299291938,-1,-1,-2,2,1,13,19,3
1532299291943,-4,-4,2,-3,-4,-5,6,0
1532299291948,-2,-2,-3,-1,-2,-6,-9,1
1532299291953,-1,-3,-2,2,0,20,14,0
1532299291958,-4,0,1,1,1,-7,-2,-1
1532299291963,-4,1,2,-1,-2,-11,0,-7
1532299291968,5,-12,2,-1,-1,9,3,5
1532299291973,4,22,1,1,-2,-25,-15,-2
1532299291978,3,14,34,6,8,22,27,-1
1532299291983,-13,-20,-57,-7,-1,-3,-18,-4
1532299291988,-5,4,10,2,1,-4,10,-4
1532299291993,5,-4,12,1,0,0,0,-6
1532299291998,-11,2,-13,-9,-6,-11,-32,-10
1532299292003,14,5,22,2,-1,2,-4,-3
1532299292008,3,-2,-10,-3,-1,-10,-6,1
1532299292013,-6,-5,-2,1,1,11,-11,-6
1532299292018,7,-2,1,-2,-2,17,0,9
1532299292023,-5,-2,6,2,0,-15,-2,-2
1532299292028,1,1,-3,-1,-2,-4,-12,4
1532299292033,-4,-7,-10,-7,-4,16,32,3
1532299292038,-10,0,-3,4,3,-9,-14,-6
1532299292043,7,-3,5,-1,0,3,-1,6
1532299292048,8,14,0,5,-1,31,-4,-5
1532299292053,-12,-5,-34,-1,5,-18,16,-1
1532299292058,-9,-18,92,7,-3,1,4,1
1532299292063,19,12,-80,-13,3,10,-4,4
1532299292068,-48,1,-19,-4,2,-14,0,-11
1532299292073,47,-19,32,6,0,10,-5,8
1532299292078,9,-7,-35,-5,-4,-5,-8,-5
1532299292083,-3,-5,32,8,2,-1,1,17
1532299292088,-4,-1,7,0,0,-5,6,14
1532299292093,-9,11,-1,-4,-2,22,9,4
1532299292098,-3,3,-15,-1,-1,-10,-7,3
1532299292103,-7,-2,34,1,-5,-5,-6,-2
1532299292108,11,1,-23,-6,-4,-23,-13,-7
1532299292113,-11,2,10,3,3,6,5,-2
1532299292118,11,-1,-15,-2,-1,2,-3,4
1532299292123,-14,-1,-6,-2,-7,-32,-15,-1
1532299292128,5,-4,13,3,1,-7,-1,7
1532299292133,1,-2,-10,-5,2,35,-10,1
1532299292138,-9,0,-13,0,2,4,19,-16
1532299292143,-1,3,7,3,0,-4,-3,-26
1532299292148,4,-4,2,-5,-5,-8,4,-25
1532299292153,-4,-1,3,1,-5,-16,14,-10
1532299292158,1,3,-23,-8,-3,-6,-12,-1
1532299292163,-8,-3,15,2,-2,-7,8,2
1532299292168,0,0,3,1,3,15,15,11
1532299292173,-4,-1,-4,-3,-3,-9,-6,-3
1532299292178,-4,0,-3,-4,-6,-13,-22,-8
1532299292183,2,2,2,2,6,28,30,5
1532299292188,0,0,-2,0,-5,4,12,6
1532299292193,-3,0,-2,-3,0,0,-15,-4
1532299292198,2,1,-3,3,5,-9,7,2
1532299292203,-4,-4,-1,-8,-17,-17,-17,-3
1532299292208,3,-1,0,2,5,-4,12,2
1532299292213,-3,-1,-2,-2,-16,16,-13,-3
1532299292218,0,0,0,-1,8,-2,-10,0
1532299292223,1,-1,0,1,4,5,12,5
1532299292228,-2,-1,2,3,4,-10,-9,-2
1532299292233,1,1,0,2,-4,-12,6,-1
1532299292238,-3,-3,-3,-6,-15,17,-7,-8
1532299292243,-2,0,2,1,6,9,1,1
1532299292248,0,-4,-5,-5,-8,-33,-9,-6
1532299292253,3,2,1,6,23,-1,-7,0
1532299292258,1,0,-4,-8,-34,-20,51,0
1532299292263,-2,-5,-3,0,8,5,10,18
1532299292268,-4,1,2,-4,-24,-25,-45,-35
1532299292273,-4,-3,-2,2,14,5,-6,0
1532299292278,1,-1,-2,3,10,31,13,11
1532299292283,0,3,2,-1,12,2,-3,-17
1532299292288,1,-3,-3,2,6,-11,7,6
1532299292293,-1,-3,0,-4,-16,9,-28,-11
1532299292298,0,0,-3,-4,-14,-11,30,18
1532299292303,0,3,4,4,5,-4,-5,-1
1532299292308,-1,-1,-1,6,62,39,-1,4
1532299292313,1,-3,-8,-17,-65,-45,10,-5
1532299292318,-4,-2,-1,2,34,35,-7,-5
1532299292323,4,2,1,3,6,-7,-10,15
1532299292328,-5,1,-2,-3,-9,-3,-13,-25
1532299292333,-1,-1,-3,5,20,13,25,7
1532299292338,-2,-3,-1,1,2,-23,-28,-9
1532299292343,-1,-5,-3,-4,-24,-9,-8,0
1532299292348,2,0,1,6,3,25,21,9
1532299292353,-1,1,1,0,10,-11,-9,1
1532299292358,1,-1,1,0,-7,2,6,-3
1532299292363,-1,0,-1,4,20,10,-5,-13
1532299292368,1,-1,-1,-9,-39,-9,22,13
1532299292373,-3,-2,-2,-1,3,-22,-14,-4
1532299292378,0,0,0,0,-3,5,5,-1
1532299292383,-1,-3,-3,-1,1,-2,23,-6
1532299292388,0,-1,-1,-2,0,-6,-12,0
1532299292393,0,0,-1,0,1,7,16,4
1532299292398,-1,-2,-2,-1,5,10,-13,-8
1532299292403,-3,-2,1,0,-4,-14,-17,-5
1532299292408,-2,0,0,-2,-5,7,-14,1
1532299292413,-1,-1,-3,2,6,-5,9,3
1532299292418,-1,0,-1,2,2,-5,-4,-2
1532299292423,-2,0,1,-2,-10,0,-9,-5
1532299292428,-1,-1,-2,-1,-5,0,10,0
1532299292433,-1,-1,1,2,12,8,0,7
1532299292438,-2,1,0,0,-1,2,-8,-7
1532299292443,0,0,1,-4,-9,-7,12,2
1532299292448,-1,0,4,0,3,3,1,4
1532299292453,-2,-1,-11,-1,0,3,-4,1
1532299292458,2,5,-1,-2,-2,-2,8,4
1532299292463,2,-3,-2,-2,-3,-10,-21,-1
1532299292468,-14,-2,1,-1,-1,-4,-8,0
1532299292473,1,0,1,0,1,9,8,0
1532299292478,0,-1,2,-2,-1,-13,-14,-5
1532299292483,0,-2,-3,-3,-3,13,-8,-7
1532299292488,6,1,-3,-1,1,11,26,8
1532299292493,-3,0,3,0,1,3,7,1
1532299292498,1,0,0,0,-3,-19,-15,0
1532299292503,1,0,1,-1,1,28,39,3
1532299292508,-1,-2,-1,0,1,0,-16,-8
1532299292513,-1,-1,1,-1,0,10,8,1
1532299292518,0,-1,-1,-2,1,7,7,3
1532299292523,-2,-1,6,-1,-1,-18,-22,-1
1532299292528,-1,-5,-6,-4,-3,-7,-2,0
1532299292533,-3,0,-1,-2,-2,-4,-4,-5
1532299292538,2,0,-2,0,3,1,-7,2
1532299292543,-2,0,1,-1,-1,-5,10,0
1532299292548,-1,-1,0,-1,-8,-20,-6,2
1532299292553,3,3,2,3,8,32,46,0
1532299292558,1,0,0,0,1,1,-2,5
1532299292563,-2,-2,-3,-1,1,-1,-6,-2
1532299292568,0,1,1,0,6,-20,0,2
1532299292573,-1,-1,-2,-1,-14,0,-26,-6
1532299292578,0,-1,-1,1,3,16,16,-3
1532299292583,1,-1,-1,4,3,2,16,-1
1532299292588,0,1,1,-3,-6,5,-27,-2
1532299292593,-3,-2,-2,-3,-2,-12,-7,-2
1532299292598,1,1,5,1,2,-18,-5,-1
1532299292603,1,-1,-9,0,-3,-4,-4,-1
1532299292608,-3,-2,-2,1,2,5,4,-1
1532299292613,-1,2,1,0,-1,-6,-10,-2
1532299292618,-6,-10,-4,-5,-9,-35,-3,-5
1532299292623,5,12,4,0,7,31,16,6
1532299292628,-16,-2,6,1,-4,-1,-8,-3
1532299292633,1,4,0,2,2,-3,7,1
1532299292638,-3,-6,9,-5,-4,-7,-4,-6
1532299292643,3,-1,-18,1,0,7,-9,2
1532299292648,3,-1,5,-3,-3,7,21,5
1532299292653,-2,0,0,1,2,-14,-32,-2
1532299292658,2,4,1,1,-2,-2,0,-2
1532299292663,-3,-7,5,-1,-7,-14,-16,-8
1532299292668,4,3,-3,-3,-1,-3,-5,0
1532299292673,2,-3,-4,-2,1,-8,14,2
1532299292678,2,0,-6,-2,-4,24,17,0
1532299292683,-3,-3,-2,-2,1,17,9,2
1532299292688,-1,-2,-6,0,-3,-46,-7,-4
1532299292693,0,-1,2,2,6,40,9,6
1532299292698,-1,0,-3,-2,0,-1,-3,0
1532299292703,-2,-2,2,-2,-3,2,4,0
1532299292708,2,0,0,0,0,1,9,-8
1532299292713,-1,1,-1,0,-3,-14,-14,-1
1532299292718,-1,-1,-3,-1,-2,15,-3,-6
1532299292723,-4,-3,5,-1,-1,-32,-26,-2
1532299292728,1,-2,-13,-3,-2,18,15,2
1532299292733,-2,-1,-1,0,-3,-21,-7,-3
1532299292738,0,3,-5,1,3,20,-3,1
1532299292743,1,-2,0,-4,-4,-8,29,-1
1532299292748,0,-7,25,7,1,20,15,0
1532299292753,-1,-2,-23,-4,0,1,-5,1
1532299292758,-2,2,-2,1,-2,-33,-27,-1
1532299292763,-1,-4,-2,0,1,21,11,-3
1532299292768,0,2,-1,0,1,3,4,1
1532299292773,-2,-5,6,-6,-16,-18,-3,0
1532299292778,1,0,4,-2,-3,-17,-10,-2
1532299292783,-1,-1,-14,0,3,8,6,-1
1532299292788,0,1,-1,1,3,11,-5,3
1532299292793,-2,-1,6,0,4,-3,4,-4
1532299292798,-1,-1,-6,-2,-1,1,-6,0
1532299292803,-3,0,5,-1,-2,-12,-19,-5
1532299292808,0,-2,-7,-3,-2,1,-1,-1
1532299292813,-2,-1,0,-1,-2,-14,-15,-1
1532299292818,2,-1,-4,0,0,16,23,3
1532299292823,-2,-4,3,-2,0,-26,-25,-5
1532299292828,0,-2,-3,-2,3,30,28,5
1532299292833,-1,0,-2,-2,-2,-11,-25,-5
1532299292838,-3,0,1,2,-1,-8,8,-9
1532299292843,7,2,4,-1,0,16,14,24
1532299292848,-4,-2,-8,-5,-3,26,15,-22
1532299292853,1,0,3,3,4,-17,6,-8
1532299292858,-2,-2,-1,1,1,-6,-6,3
1532299292863,-3,-3,-6,-3,-7,-21,-24,-17
1532299292868,1,1,-1,-4,-11,-19,-25,2
1532299292873,-2,0,2,1,1,18,13,5
1532299292878,-1,-2,2,-1,0,18,17,4
1532299292883,-3,-3,-1,-1,1,-5,-8,-7
1532299292888,-2,1,-1,0,1,-4,-9,-2
1532299292893,1,-2,-3,-2,-4,-12,8,3
1532299292898,0,-1,1,-1,2,2,2,-4
1532299292903,-1,-1,0,2,3,8,5,-1
1532299292908,-2,-1,-2,-2,-6,-30,-26,2
1532299292913,0,-1,-1,-2,0,23,35,2
1532299292918,0,-1,-1,0,2,2,8,4
1532299292923,-7,-2,-7,-5,-5,-7,-12,-4
1532299292928,2,-2,-2,-2,1,1,6,2
1532299292933,-2,-1,0,0,0,6,-11,-6
1532299292938,-2,1,3,0,-3,-31,-17,-4
1532299292943,2,0,3,3,-2,26,29,1
1532299292948,-1,-7,4,-2,1,-2,-6,-1
1532299292953,-2,-10,21,1,-2,-1,-3,-5
1532299292958,10,9,24,1,2,1,-1,7
1532299292963,-6,2,-51,-3,4,-9,-9,2
1532299292968,-8,0,8,4,-1,4,4,1
1532299292973,5,-8,-25,-2,2,1,-13,0
1532299292978,2,7,39,-1,-5,-6,5,-3
1532299292983,5,1,22,1,-5,-24,-21,-7
1532299292988,-3,2,-8,2,9,30,3,8
1532299292993,-2,0,8,-3,-3,-8,-5,9
1532299292998,-6,4,-17,2,-1,-2,10,11
1532299293003,15,-2,-5,-3,0,-12,-12,1
1532299293008,-3,-3,-10,-2,-3,7,4,-1
1532299293013,0,4,3,1,1,0,8,-1
1532299293018,-9,-8,-16,-1,-3,3,-8,-6
1532299293023,-6,0,10,-1,-2,-5,4,-4
1532299293028,3,0,60,8,1,0,28,-5
1532299293033,-1,4,-55,-8,0,9,-2,-3
1532299293038,-4,0,-24,-1,-2,1,3,-2
1532299293043,-4,-1,7,0,-2,17,-8,-4
1532299293048,4,-1,-2,-1,2,-16,-8,-3
1532299293053,-6,0,7,-2,-14,-30,-20,-3
1532299293058,3,-4,-1,2,9,52,15,1
1532299293063,0,0,4,2,11,7,-3,-2
1532299293068,-1,-1,-13,-2,-6,-17,13,14
1532299293073,-1,1,9,-5,-14,-9,-16,-18
1532299293078,-1,-5,-13,-4,-5,-38,-18,-5
1532299293083,0,0,10,3,-7,38,19,3
1532299293088,-2,2,-12,0,13,-33,-10,-6
1532299293093,0,1,3,0,11,16,17,8
1532299293098,-1,-2,0,-2,-11,9,5,-4
1532299293103,-4,-2,-3,-3,2,-17,-1,-4
1532299293108,2,0,-13,-4,-5,-18,-20,-1
1532299293113,2,2,5,3,0,9,-13,0
1532299293118,-1,-3,1,3,16,38,59,5
1532299293123,-1,-1,2,-3,-3,-21,-7,5
1532299293128,-3,-1,-13,-6,-9,-10,-22,-10
1532299293133,1,1,6,5,3,12,18,3
1532299293138,-1,-2,-1,0,8,-3,-15,-7
1532299293143,0,0,1,-1,-2,-6,2,-2
1532299293148,-1,-1,-5,-2,-2,12,0,-4
1532299293153,-1,1,1,3,7,-7,0,-2
1532299293158,-1,-1,-2,-4,-9,-15,-15,0
1532299293163,-2,-5,-1,-2,-5,-11,-8,-1
1532299293168,-1,0,-2,0,6,21,14,2
1532299293173,-1,0,1,0,2,2,-15,-2
1532299293178,-2,-2,-5,-5,-5,-29,-10,-3
1532299293183,-2,0,0,0,-3,21,-13,0
1532299293188,1,-2,-5,-4,-5,-1,8,2
1532299293193,-2,-2,-1,-1,-1,-3,9,1
1532299293198,-1,-1,-1,-3,-7,-7,-14,-8
1532299293203,0,1,-3,-2,3,-14,-1,4
1532299293208,-1,0,-2,-1,0,8,-4,-5
1532299293213,1,-2,0,2,9,7,6,-1
1532299293218,-1,0,0,-5,-19,-17,-14,1
1532299293223,-3,-1,-1,-2,-2,3,2,-1
1532299293228,2,0,-1,0,1,21,4,5
1532299293233,-2,0,0,-1,2,-16,-11,0
1532299293238,0,-1,-2,0,0,-3,-20,-2
1532299293243,0,0,-1,0,1,9,38,1
1532299293248,-2,-3,-4,-2,-6,-12,-10,-4
1532299293253,-3,-1,-1,-1,-4,-7,1,-1
1532299293258,-1,-2,-2,-1,4,4,-4,-2
1532299293263,2,1,-1,-1,-3,9,16,2
1532299293268,-2,-1,-1,2,0,-11,-16,-6
1532299293273,-1,-1,-1,-2,-3,4,11,-1
1532299293278,0,-2,-3,-3,-4,3,10,-2
1532299293283,-2,-1,1,0,-2,-12,-9,-8
1532299293288,-2,0,-2,1,5,6,3,3
1532299293293,-1,-1,0,-1,-2,-7,-15,-1
1532299293298,-1,-2,-1,2,6,2,6,2
1532299293303,-1,0,3,0,4,27,-8,-2
1532299293308,0,-3,-2,-2,-7,-9,4,0
1532299293313,0,0,0,-1,-2,-2,-14,1
1532299293318,-2,-1,-2,1,-2,-12,-17,-2
1532299293323,1,0,-3,0,-3,-4,6,1
1532299293328,-1,-1,-2,-2,-2,-1,-10,-4
1532299293333,0,-1,-3,-1,0,9,27,0
1532299293338,1,-1,-1,1,7,19,22,2
1532299293343,0,-2,-2,1,-1,-11,-15,-1
1532299293348,1,1,-2,-5,-7,-1,-3,1
1532299293353,-1,-1,-1,-2,-2,-13,0,-3
1532299293358,-2,0,-1,-1,1,7,0,-1
1532299293363,-2,-1,-2,0,-3,-23,-22,-3
1532299293368,-1,-2,-1,2,5,12,20,-1
1532299293373,-2,0,0,-1,2,10,3,-4
1532299293378,-2,0,-4,-3,-2,-8,-6,-2
1532299293383,-2,-1,0,-4,2,0,-7,2
1532299293388,-1,-1,-3,0,3,-12,6,0
1532299293393,0,1,-1,0,-8,3,7,3
1532299293398,-1,-1,-2,-2,-1,12,5,-3
1532299293403,-6,-1,-1,-2,-1,-19,-8,-5
1532299293408,1,-1,1,0,3,19,-1,-3
1532299293413,0,-1,0,1,0,2,-4,0
1532299293418,1,-1,0,1,-2,5,7,2
1532299293423,-1,-1,-2,-1,-4,-7,-14,0
1532299293428,-1,-1,-1,-3,0,12,26,1
1532299293433,0,-2,-1,0,2,-8,1,1
1532299293438,0,0,3,0,8,3,-5,5
1532299293443,2,-1,-3,-4,-7,-2,9,4
1532299293448,0,-3,-1,-3,-12,-13,-22,-5
1532299293453,-2,-1,-1,-2,-2,-4,-2,-5
1532299293458,0,1,-1,0,-1,-4,1,5
1532299293463,0,-1,1,2,6,4,10,0
1532299293468,-5,0,-5,-3,-12,-23,-26,-8
1532299293473,1,0,2,3,5,40,31,6
1532299293478,-1,-3,-1,0,3,8,-2,-2
1532299293483,1,-1,-1,-4,0,-11,-7,-2
1532299293488,-3,-1,0,1,-7,-10,-17,-4
1532299293493,-1,-3,0,-1,1,-22,-12,0
1532299293498,-3,-1,-2,0,-8,7,8,-3
1532299293503,1,2,0,1,5,3,-5,0
1532299293508,-1,1,0,0,2,6,3,0
1532299293513,-2,0,1,-4,-10,-18,-3,0
1532299293518,1,0,1,2,8,18,12,1
1532299293523,-2,-4,-3,-3,-10,0,2,-2
1532299293528,-1,1,1,1,-1,-3,-1,3
1532299293533,1,1,0,2,7,-3,6,4
1532299293538,-3,-2,-3,-2,-4,-17,-17,-3
1532299293543,-3,0,1,-1,-4,4,11,-3
1532299293548,0,0,1,1,6,8,17,2
1532299293553,-3,-1,-2,-3,-7,-16,-28,-4
1532299293558,0,0,-1,0,-2,-5,-4,-4
1532299293563,2,-1,0,1,4,9,6,8
1532299293568,0,1,-1,0,3,-6,-11,-2
1532299293573,-2,0,-1,-1,-5,3,-1,-5
1532299293578,-1,-1,-2,-3,-4,-11,-13,-6
1532299293583,-2,0,0,1,3,11,-3,-3
1532299293588,1,0,-2,-2,2,-16,-1,1
1532299293593,2,0,-1,1,2,10,11,0
1532299293598,-1,0,-1,0,-1,-7,-8,0
1532299293603,-2,-2,-3,-1,0,-18,-13,-2
1532299293608,0,-3,0,-1,-2,20,21,1
1532299293613,-1,-1,-4,-4,-5,10,8,-3
1532299293618,-2,-1,2,-4,-4,-15,-6,1
1532299293623,-1,0,-2,1,1,5,7,-1
1532299293628,0,-1,0,1,1,-4,-5,-1
1532299293633,0,-1,-2,1,1,-9,-14,-3
1532299293638,0,0,1,-2,-3,-2,9,2
1532299293643,0,0,-1,-1,2,6,3,-3
1532299293648,0,0,-1,-1,-2,2,-2,9
1532299293653,-1,-1,3,3,14,-1,-11,1
1532299293658,1,0,-2,-7,-28,-17,6,0
1532299293663,1,1,1,1,-1,-2,0,-4
1532299293668,-1,-1,-2,-1,1,2,-1,-3
1532299293673,-1,-1,-2,-2,-1,4,-2,-2
1532299293678,0,-2,-2,0,9,10,17,0
1532299293683,-1,-2,-1,1,0,2,7,4
1532299293688,-1,-2,0,1,5,-5,6,1
1532299293693,0,-1,-2,-4,-8,20,8,2
1532299293698,-2,0,-2,-3,-3,1,-10,-4
1532299293703,0,0,-1,-2,-2,-6,0,6
1532299293708,-1,-1,-1,1,7,-10,-8,-2
1532299293713,0,-2,-1,-1,-1,5,1,-1
1532299293718,-1,-1,0,2,-1,-6,-3,-3
1532299293723,0,-2,-1,-4,-2,6,0,-1
1532299293728,-1,0,-1,1,-3,-1,-2,-6
1532299293733,-2,-2,-1,-3,-1,-8,-11,2
1532299293738,0,0,-1,0,5,3,21,3
1532299293743,-1,-1,0,0,-1,-7,-36,-4
1532299293748,-1,0,0,-1,-4,-14,-13,0
1532299293753,-1,0,-1,0,1,-1,-3,-1
1532299293758,-2,-3,-3,-1,2,6,-1,-1
1532299293763,0,0,-3,-3,-2,-5,5,0
1532299293768,0,-2,-3,-4,-8,8,1,-1
1532299293773,-1,0,1,2,0,-5,4,1
1532299293778,0,0,-1,2,5,-14,-16,-1
1532299293783,-1,1,-2,0,-1,-2,0,-2
1532299293788,-3,1,-1,-1,0,16,10,-2
1532299293793,-1,-2,-1,-1,-1,0,3,-1
1532299293798,-2,-1,0,0,-2,-15,-7,-1
1532299293803,-3,-3,-1,-1,0,19,21,2
1532299293808,-1,0,-1,-2,3,5,-3,1
1532299293813,-2,-2,-2,-2,-9,-21,-14,-4
1532299293818,-1,-3,0,2,3,21,14,-2
1532299293823,-1,0,-2,-1,2,-4,-9,1
1532299293828,1,0,3,2,-4,-7,6,-1
1532299293833,-1,-1,-2,-3,-3,-6,-14,0
1532299293838,-2,-1,-2,0,3,-2,-14,-2
1532299293843,-3,-2,1,-1,-2,-7,1,-3
1532299293848,1,0,-2,-1,1,4,12,1
1532299293853,-1,-1,1,-3,-6,-9,-9,-6
1532299293858,0,-1,0,-1,1,17,17,1
1532299293863,-2,-1,-1,1,2,-2,0,2
1532299293868,-1,-1,-1,0,3,-13,-12,2
1532299293873,2,-2,-2,0,-3,6,14,6
1532299293878,0,1,-1,-3,-2,-5,-9,1
1532299293883,-1,-2,-2,-2,-10,-16,-22,-6
1532299293888,3,0,1,-1,5,28,22,4
1532299293893,1,-2,1,-1,3,-1,5,-1
1532299293898,2,-1,2,2,4,12,-1,2
1532299293903,-1,-1,-4,-1,-8,-20,-13,-3
1532299293908,1,0,0,4,3,16,15,-3
1532299293913,-1,0,-4,0,1,3,-3,7
1532299293918,-2,0,1,-3,-4,-5,2,0
1532299293923,-1,1,0,1,7,0,6,3
1532299293928,0,0,0,-1,-3,6,8,0
1532299293933,-2,1,0,-1,-9,-9,-1,-4
1532299293938,-2,0,-3,0,0,-3,-9,-4
1532299293943,1,-2,-2,-3,-2,-7,-1,-2
1532299293948,-2,-2,-2,0,1,0,-17,-2
1532299293953,-2,0,-1,-1,-2,-8,-11,-2
1532299293958,-2,-2,0,-1,-3,-5,-5,-4
1532299293963,0,-1,2,-1,-2,21,23,1
1532299293968,-1,0,-1,0,0,-3,-15,-1
1532299293973,-2,-2,-2,-1,1,6,7,-2
1532299293978,0,1,-2,0,-2,-13,-6,-3
1532299293983,-1,0,2,0,-7,5,-5,0
1532299293988,-1,-2,-4,-4,-3,0,10,-1
1532299293993,3,0,0,0,-2,-2,2,9
1532299293998,0,-2,0,-1,1,4,-4,2
1532299294003,1,2,2,1,5,8,15,-1
1532299294008,-3,-2,-2,-2,-6,-33,-26,-5
1532299294013,2,-1,0,2,8,31,24,-4
1532299294018,-2,-1,-1,-1,-1,-12,-10,-1
1532299294023,-1,-2,0,0,4,17,17,-1
1532299294028,-4,-2,-1,-5,-5,-13,-14,-6
1532299294033,-1,0,-1,0,5,-2,-2,0
1532299294038,-2,-1,0,-4,-15,-9,8,-1
1532299294043,0,-1,-4,0,1,-5,-11,0
1532299294048,-2,-2,-2,-1,-2,-5,0,-5
1532299294053,-1,0,1,5,4,7,-6,0
1532299294058,2,0,-2,0,4,5,-12,-2
1532299294063,-1,-1,-1,-3,-4,-17,4,-4
1532299294068,-1,0,0,0,0,14,18,2
1532299294073,-2,-3,-1,-3,-3,8,3,-5
1532299294078,0,0,-1,1,5,0,-1,3
1532299294083,-1,-2,-1,-1,-3,-4,-16,-3
1532299294088,-2,-1,-1,0,-2,-19,-3,2
1532299294093,-2,-1,0,-4,0,-9,-14,-8
1532299294098,0,0,-2,-1,3,9,6,2
1532299294103,1,-1,-1,1,-2,-6,-3,3
1532299294108,-2,-1,0,-2,0,-5,-3,-2
1532299294113,0,-1,-3,-2,-6,-3,7,1
1532299294118,-1,-1,0,-3,-4,-4,2,-1
1532299294123,-1,0,1,1,5,-1,-22,-9
1532299294128,2,1,1,-1,-1,-10,-1,6
1532299294133,-1,-1,1,0,1,12,6,0
1532299294138,0,-2,0,1,-2,0,1,-1
1532299294143,1,1,-1,0,-1,11,12,6
1532299294148,-2,-1,0,0,1,0,-2,0
1532299294153,-1,-1,-1,0,-4,-12,-1,3
1532299294158,-1,-1,-2,-1,1,-12,-11,-2
1532299294163,-1,0,2,-2,-1,-2,-7,-3
1532299294168,1,-1,-2,1,4,23,15,2
1532299294173,-2,1,-2,-2,-2,-7,14,1
1532299294178,-3,-1,-2,-2,-5,-8,-34,-5
1532299294183,-2,-1,0,-2,4,10,20,-1
1532299294188,-1,0,-1,-2,-2,-8,-6,0
1532299294193,-1,-3,-3,-2,-2,9,3,-2
1532299294198,0,1,-1,-1,1,2,0,-1
1532299294203,0,0,2,-3,-8,-9,-8,0
1532299294208,1,-2,-1,-2,-4,1,1,-1
1532299294213,0,-2,-2,-2,0,-2,-26,-4
1532299294218,-1,-2,0,1,3,9,34,2
1532299294223,-2,-2,-2,-1,2,0,-4,1
1532299294228,-2,-2,-2,-3,-7,-3,-3,-3
1532299294233,0,1,1,0,2,-7,-5,0
1532299294238,-3,-3,-1,-1,-4,-9,-30,-6
1532299294243,1,1,-2,0,1,14,23,3
1532299294248,-2,0,-1,0,0,-5,-12,-3
1532299294253,-2,0,-2,-3,-2,-20,-3,-3
1532299294258,-1,-1,1,-1,4,11,11,-1
1532299294263,1,0,1,-1,-5,-6,-11,-1
1532299294268,-2,-1,-1,1,-1,5,-6,1
1532299294273,-1,-1,0,-1,0,-6,-10,-3
1532299294278,0,-1,2,-1,2,-6,23,-6
1532299294283,-3,-2,-6,-8,-18,-7,2,5
1532299294288,0,-1,0,0,3,2,0,1
1532299294293,-1,-1,1,0,-1,-11,-12,0
1532299294298,-1,1,0,0,2,27,28,1
1532299294303,-2,-3,0,0,5,-20,-21,-6
1532299294308,-1,0,0,-1,3,23,7,-1
1532299294313,-1,-2,-2,0,-6,-7,-6,-3
1532299294318,-1,-1,-2,-1,-5,-8,-7,0
1532299294323,-1,-3,0,0,-1,-4,4,0
1532299294328,0,-1,0,0,3,-8,-9,-1
1532299294333,0,0,2,2,7,9,5,-2
1532299294338,0,-1,-1,-3,-11,0,-11,1
1532299294343,0,0,-2,-1,-1,-2,16,0
1532299294348,0,-1,-2,-2,-3,1,23,-6
1532299294353,0,-1,-2,-2,-2,1,7,4
1532299294358,1,-1,2,0,-1,24,1,4
1532299294363,-1,0,0,2,7,4,-1,0
1532299294368,-2,-1,-2,1,-6,1,1,4
1532299294373,-2,-1,-3,-2,3,2,-3,1
1532299294378,0,-1,-3,-3,-7,-29,-23,-2
1532299294383,-2,0,-3,-3,0,-2,10,-1
1532299294388,-1,-3,-4,-4,-6,7,3,0
1532299294393,1,2,1,2,4,0,-8,-1
1532299294398,-1,1,-1,0,2,-2,1,-2
1532299294403,-1,-1,-2,-1,-6,-5,-5,-8
1532299294408,-1,-1,-1,2,5,-2,-7,0
1532299294413,0,0,0,-1,-3,-10,11,1
1532299294418,-1,-2,-1,-2,-1,5,0,2
1532299294423,2,0,0,0,-4,3,2,0
1532299294428,1,-1,1,-1,2,-7,-5,4
1532299294433,-2,0,0,-1,1,10,-1,0
1532299294438,-1,0,0,-2,0,-13,-8,-4
1532299294443,0,-2,-1,-3,-6,6,12,2
1532299294448,0,0,0,-2,-1,0,3,2
1532299294453,-1,-2,-2,-2,-2,4,-1,0
1532299294458,-1,-1,-1,1,-6,3,38,0
1532299294463,1,1,-1,2,5,-4,-18,-4
1532299294468,-3,-2,-1,-1,0,-4,-9,-6
1532299294473,-1,-1,0,0,-3,-1,-6,-7
1532299294478,0,-1,0,-1,-9,-7,-13,-1
1532299294483,0,-1,0,3,3,26,25,6
1532299294488,-1,0,1,0,-2,0,7,1
1532299294493,-1,0,-2,-1,4,0,-5,-3
1532299294498,-1,-2,0,-1,2,-4,-18,-5
1532299294503,-1,-1,-2,-2,-5,-12,-13,0
1532299294508,-1,1,-2,-2,-2,1,3,-1
1532299294513,-1,-1,-1,2,1,-1,-14,-4
1532299294518,-1,-2,-3,-3,2,-12,0,4
1532299294523,-2,-1,-1,-2,-3,1,0,0
1532299294528,0,-1,-3,-1,1,-4,-21,2
1532299294533,0,0,-2,1,1,19,37,5
1532299294538,-1,-1,-1,1,-2,-7,0,-1
1532299294543,0,-1,0,-1,0,0,-4,-2
1532299294548,-1,-2,-2,-1,4,3,6,-3
1532299294553,-3,-1,-3,-5,-3,-22,-19,-1
1532299294558,-1,0,-1,-1,-4,13,-13,-4
1532299294563,-2,0,-1,-1,0,-8,-5,1
1532299294568,-1,0,2,1,1,14,21,-1
1532299294573,0,0,3,0,3,7,-9,5
1532299294578,0,1,0,0,2,15,21,2
1532299294583,-2,-2,1,3,2,2,-2,-4
1532299294588,-2,-2,-2,-4,-7,-22,-17,-7
1532299294593,0,0,1,-2,-5,10,16,-6
1532299294598,0,-1,-1,-2,4,1,-6,2
1532299294603,-1,-1,-1,-1,-1,-3,5,0
1532299294608,2,1,0,-1,-5,3,3,2
1532299294613,-1,-2,0,-1,3,-2,0,-1
1532299294618,-3,-2,-1,-3,-8,-9,-15,-4
1532299294623,0,-1,-1,-3,2,-11,-8,-3
1532299294628,0,-1,0,0,-6,15,17,-3
1532299294633,-1,0,-2,-4,1,-3,-10,3
1532299294638,-1,-2,-3,-2,-1,-22,-27,-1
1532299294643,1,0,2,2,5,60,44,6
1532299294648,0,-2,-1,-1,0,-2,-5,0
1532299294653,-2,-3,-2,-1,-3,-1,-3,-1
1532299294658,-2,0,0,0,1,-2,-5,-2
1532299294663,-1,0,-2,-3,-3,-21,-20,-3
1532299294668,-1,1,0,1,6,4,6,4
1532299294673,-2,-1,0,-1,-3,-7,3,0
1532299294678,-1,0,0,1,1,5,7,1
1532299294683,-1,0,-1,-2,-4,-7,-6,-6
1532299294688,-1,0,-1,-1,1,-3,-7,-2
1532299294693,1,0,0,1,5,-3,-4,2
1532299294698,-2,-2,-2,-1,-4,2,8,2
1532299294703,1,-1,-2,0,-6,-12,-14,-1
1532299294708,-2,-1,0,-4,-4,6,2,-1
1532299294713,-1,0,-1,0,3,14,7,3
1532299294718,-1,-1,-1,-2,1,3,0,2
1532299294723,-1,-2,0,0,0,-23,-14,-10
1532299294728,0,-3,-2,-3,-1,-2,6,2
1532299294733,0,1,1,2,1,11,5,-4
1532299294738,0,-1,0,0,3,5,8,-7
1532299294743,-1,0,-2,-1,1,-4,0,6
1532299294748,-2,1,-2,-1,-3,-8,-21,-9
1532299294753,-2,-2,-3,-3,-3,-15,-2,-3
1532299294758,-3,-3,-1,-1,-2,-1,-16,-11
1532299294763,-1,-1,-1,-1,0,-9,3,-2
1532299294768,0,-1,-2,-2,-1,3,-5,-2
1532299294773,0,-1,-3,-3,-1,10,32,7
1532299294778,-2,0,-1,-1,-6,-43,-35,-6
1532299294783,2,0,2,5,8,54,31,7
1532299294788,-4,-1,0,-1,-2,-10,-16,0
1532299294793,-1,-3,-1,-4,-6,-12,22,8
1532299294798,0,0,2,5,4,-4,-41,-19
1532299294803,-4,-3,-2,-7,-2,-16,-8,3
1532299294808,-1,-1,-2,-1,-8,4,-16,-9
1532299294813,-3,1,-1,2,-3,-19,-8,-6
1532299294818,1,0,-2,-2,2,21,24,14
1532299294823,-1,-1,-2,-1,-2,-6,-10,-1
1532299294828,0,-1,-2,-2,-1,0,18,3
1532299294833,0,-1,-3,1,1,-9,-47,-2
1532299294838,0,-1,-1,-1,-2,-1,21,9
1532299294843,-1,0,0,-1,-1,4,-10,-4
1532299294848,-1,-2,0,-2,-1,-10,15,3
1532299294853,0,-1,-1,0,0,7,0,-3
1532299294858,1,1,-1,-2,1,9,3,4
1532299294863,-1,0,-2,1,3,-3,8,3
1532299294868,-2,-2,0,-3,-6,-4,-3,1
1532299294873,-1,0,2,0,0,-7,-10,-5
1532299294878,-1,-1,-9,-2,1,17,21,4
1532299294883,-1,-1,-1,-3,-13,-9,-12,1
1532299294888,1,0,-1,2,7,-3,-17,-1
1532299294893,2,-1,1,-2,-1,0,6,-2
1532299294898,-4,-2,4,-2,-5,0,30,1
1532299294903,0,-1,-4,2,6,16,5,0
1532299294908,0,-1,-1,0,5,6,0,-5
1532299294913,-3,-3,-3,-2,-3,-1,0,-8
1532299294918,-3,0,-1,-2,-1,-22,-28,-3
1532299294923,0,-1,1,2,1,21,40,-2
1532299294928,-1,0,2,-1,-1,-5,0,-5
1532299294933,2,2,-5,-2,0,6,-29,6
1532299294938,0,-2,-5,-2,0,-2,34,-1
1532299294943,-2,0,0,0,-1,-6,-14,-2
1532299294948,-2,-1,-3,0,-4,-9,0,-1
1532299294953,0,-1,4,0,3,27,26,5
1532299294958,-1,-3,-4,-1,-2,-1,-8,5
1532299294963,-1,-1,1,-5,-7,-16,-32,3
1532299294968,0,-2,1,3,4,23,34,8
1532299294973,-1,-1,2,0,-1,-15,-20,-4
1532299294978,0,0,4,-3,-1,2,-9,-1
1532299294983,-1,-2,-6,-1,-1,-8,27,-7
1532299294988,-1,-1,-8,1,-2,-2,-3,-8
1532299294993,-2,-3,0,-4,-4,10,0,-10
1532299294998,1,1,2,0,-1,2,6,-4
1532299295003,-1,0,0,-2,0,-8,-9,0
1532299295008,0,0,1,2,2,3,3,4
1532299295013,0,1,-5,-2,-1,-15,0,0
1532299295018,-1,0,0,0,3,1,6,-6
1532299295023,0,0,0,-2,-6,-1,-20,0
1532299295028,-2,-1,-3,-2,-1,1,-15,-5
1532299295033,0,-2,-2,-1,-1,2,20,8
1532299295038,-1,-2,9,1,1,-4,-16,2
1532299295043,0,-1,-10,1,3,-10,-11,-2
1532299295048,1,-1,2,0,2,15,15,2
1532299295053,-2,-2,1,0,-2,-4,-7,-6
1532299295058,1,0,0,2,-3,-15,-4,0
1532299295063,0,-1,3,0,2,13,4,-5
1532299295068,-2,-1,0,-5,-6,-7,5,-2
1532299295073,1,1,2,1,3,1,-2,1
1532299295078,1,0,-7,-3,0,9,17,4
1532299295083,-3,-3,1,-1,-1,-11,-4,0
1532299295088,0,0,2,-2,0,-9,-16,3
1532299295093,-1,-1,-1,1,1,8,17,0
1532299295098,0,-1,-1,-3,-4,-9,-13,-4
1532299295103,0,0,7,1,0,-12,-4,0
1532299295108,1,1,-8,0,-1,9,9,-2
1532299295113,-2,-4,-5,-3,-2,-7,-20,-2
1532299295118,-2,0,0,0,2,7,-5,1
1532299295123,1,1,-1,-4,-2,-1,6,-3
1532299295128,-1,-1,3,1,0,3,4,4
1532299295133,0,0,3,0,1,-4,-6,5
1532299295138,-1,0,0,1,1,0,3,1
1532299295143,-1,-2,-3,-1,-2,1,6,2
1532299295148,-1,2,-3,0,-1,-10,-10,2
1532299295153,-2,-2,-1,0,-3,4,-8,-3
1532299295158,0,0,-2,-1,-4,2,0,-4
1532299295163,-2,-1,1,-3,-2,-3,0,-5
1532299295168,-3,-3,-1,0,0,-3,0,-1
1532299295173,-1,-1,42,4,-2,-7,-7,-2
1532299295178,-2,-1,-37,-4,-2,-9,-6,-1
1532299295183,-2,-2,-1,-1,-4,5,-12,-2
1532299295188,1,0,-1,-3,4,33,16,0
1532299295193,0,-2,-9,-1,-2,-1,33,-4
1532299295198,1,0,18,3,1,-1,-38,9
1532299295203,-2,-2,-4,-1,0,-7,-3,3
1532299295208,3,-2,-15,-2,-3,-13,-8,0
1532299295213,-2,-1,-20,-3,-3,-6,-16,-4
1532299295218,1,-3,0,3,2,18,37,-9
1532299295223,-6,4,6,1,1,0,-14,-2
1532299295228,-8,-5,-2,2,0,-8,-11,-9
1532299295233,-7,0,-39,-10,-3,-12,-6,-1
1532299295238,17,0,8,1,0,11,10,1
1532299295243,-2,2,11,4,1,5,10,8
1532299295248,0,-3,-20,-6,-1,4,19,1
1532299295253,1,11,27,5,-2,-6,-18,-3
1532299295258,-2,-6,-25,-6,-1,-5,3,3
1532299295263,-4,-14,18,3,1,1,-5,-2
1532299295268,1,2,2,2,-1,-5,-5,2
1532299295273,-3,-9,-6,-2,-3,-4,-6,-2
1532299295278,5,9,18,-1,-3,7,-6,-1
1532299295283,-2,2,-7,0,1,4,15,0
1532299295288,-2,-1,7,-4,-1,-6,-3,5
1532299295293,1,1,-3,-1,1,2,-2,-3
1532299295298,-9,-6,7,0,-4,-20,-10,-2
1532299295303,1,-1,-16,-5,0,8,-7,0
1532299295308,1,1,6,3,2,16,17,6
1532299295313,2,-2,5,2,1,2,-7,-1
1532299295318,-6,1,-4,-2,-4,-7,10,-4
1532299295323,0,-4,-8,-2,1,-17,-20,-6
1532299295328,1,5,9,-2,2,-1,4,-11
1532299295333,1,0,1,5,11,-9,7,5
1532299295338,-6,-3,-5,-4,-12,32,3,-5
1532299295343,1,3,-4,1,3,37,16,-2
1532299295348,0,-3,6,1,2,-22,-14,1
1532299295353,-5,-4,-8,-4,2,-6,-17,-8
1532299295358,-3,-2,-1,-2,-10,10,-5,0
1532299295363,3,2,3,2,2,-12,18,6
1532299295368,0,0,4,1,1,10,7,6
1532299295373,1,-2,-1,-1,8,47,14,9
1532299295378,0,-1,1,-3,-9,-67,-11,4
1532299295383,2,0,0,2,5,43,6,-4
1532299295388,-2,-1,-1,1,-5,-10,-6,-2
1532299295393,-2,-1,-2,1,-3,-6,3,-8
1532299295398,-3,-1,1,-1,1,-11,-7,-6
1532299295403,-2,-3,-6,-4,-6,-22,-13,-3
1532299295408,0,-2,1,3,-1,-11,-8,-5
1532299295413,0,-2,-2,-5,-7,12,-5,2
1532299295418,-1,0,0,1,6,24,11,1
1532299295423,1,-1,-1,-2,2,-23,-19,1
1532299295428,1,1,1,1,5,18,6,-2
1532299295433,0,-1,-1,0,-16,-24,2,-1
1532299295438,-2,-1,0,0,0,1,-1,-2
1532299295443,0,1,-3,1,-2,-13,6,-1
1532299295448,-2,-2,1,-2,-4,-6,-28,-3
1532299295453,1,0,-2,1,3,12,45,2
1532299295458,-1,0,-1,1,4,1,-3,4
1532299295463,-2,-1,-3,-2,-3,-2,-6,-1
1532299295468,-1,-2,-1,-2,-5,-2,14,-1
1532299295473,-1,0,1,-2,-1,-7,-7,-2
1532299295478,-2,1,0,1,3,0,-19,-4
1532299295483,-2,-2,-2,-2,-4,-1,16,-5
1532299295488,0,1,2,1,4,1,-2,8
1532299295493,-1,-1,-2,-4,-12,-37,-9,-1
1532299295498,-1,-1,-1,1,0,37,30,5
1532299295503,-1,0,0,-2,-3,-8,-12,4
1532299295508,-1,-1,-2,-4,-3,26,11,-4
1532299295513,0,1,-1,2,3,-5,-7,0
1532299295518,-1,-1,-1,-1,1,-13,-11,-8
1532299295523,-1,-1,-1,-1,-4,-10,-5,-6
1532299295528,-1,1,0,0,-1,-6,11,-2
1532299295533,0,-1,-1,1,-1,6,-19,2
1532299295538,-2,-1,-1,-1,2,0,10,-1
1532299295543,-1,-1,1,0,6,2,0,-3
1532299295548,-2,-3,-1,-3,-7,-15,-14,-4
1532299295553,-1,-1,0,0,-2,-4,-1,-1
1532299295558,0,-3,2,0,-1,-13,0,1
1532299295563,-1,0,-3,-1,8,54,37,-6
1532299295568,1,0,-2,-2,-9,-25,-5,2
1532299295573,-2,-1,-1,-2,-8,-5,-5,-1
1532299295578,-1,1,-1,1,2,5,14,0
1532299295583,-1,0,-2,2,-4,-23,-17,0
1532299295588,-3,-2,-1,-2,-2,-6,-12,-8
1532299295593,0,-1,-2,1,1,12,0,-1
1532299295598,-1,0,-1,0,0,14,14,0
1532299295603,1,-2,-2,-5,-7,-14,-4,4
1532299295608,0,-1,-2,1,4,3,1,4
1532299295613,-2,-2,-3,-1,2,-8,-5,-2
1532299295618,-1,-1,-1,-1,1,9,-6,1
1532299295623,-2,-1,-1,0,-1,-11,-7,-2
1532299295628,0,0,0,3,-3,8,-6,-1
1532299295633,-2,0,-3,-5,-3,18,14,5
1532299295638,-1,-2,0,-1,-2,-12,-13,-2
1532299295643,0,1,0,0,-3,2,-7,3
1532299295648,-2,-1,-1,-1,1,-12,-19,-4
1532299295653,1,-1,2,1,1,-1,2,-6
1532299295658,0,-1,0,0,0,5,0,-3
1532299295663,-3,-3,-2,-3,-8,-29,-24,-6
1532299295668,1,0,0,-1,4,40,44,4
1532299295673,-1,2,2,0,0,-9,-3,-1
1532299295678,-1,0,-2,1,5,-4,-7,3
1532299295683,-1,1,2,1,0,-12,-4,0
1532299295688,-2,-2,-1,-2,-2,0,-4,0
1532299295693,1,-1,-1,-1,1,-3,-1,0
1532299295698,-1,-1,0,1,-2,-14,-11,0
1532299295703,2,1,-1,1,1,35,40,1
1532299295708,-1,0,-2,-2,-2,-16,-6,0
1532299295713,-3,0,0,0,-2,-5,2,2
1532299295718,-1,-1,-2,-3,-6,11,-2,-4
1532299295723,0,-1,0,1,2,-5,0,-1
1532299295728,-1,-2,-2,-1,-2,-10,-5,-3
1532299295733,-1,-1,-2,-1,3,3,-6,0
1532299295738,-3,-3,0,0,3,-9,-6,-1
1532299295743,1,-1,-3,-2,0,7,6,6
1532299295748,-1,0,-1,-1,-4,-8,-7,-4
1532299295753,-2,-1,0,-1,-3,-8,-38,-2
1532299295758,4,3,2,5,5,22,45,2
1532299295763,-2,-2,-2,-2,-2,-2,-3,1
1532299295768,-1,0,-1,0,-2,-13,-7,-3
1532299295773,0,-2,-2,1,-1,3,4,-5
1532299295778,-2,-2,-3,0,-2,-21,-15,-1
1532299295783,-1,-1,-2,-3,-2,-17,-13,-4
1532299295788,-1,1,-1,1,6,24,-1,2
1532299295793,-1,-3,0,1,0,-6,-1,1
1532299295798,-1,-2,-1,0,3,-12,-2,6
1532299295803,0,-1,-2,0,-2,0,-19,-4
1532299295808,0,-1,0,-1,-4,3,19,5
1532299295813,-2,-1,-1,0,1,-3,-10,-3
1532299295818,0,1,-1,-1,1,3,-5,-1
1532299295823,-1,-2,1,-2,-7,-9,-4,1
1532299295828,0,-1,-1,0,-1,-3,3,2
1532299295833,0,0,-1,-2,1,4,8,0
1532299295838,0,1,-1,-1,-8,-12,-15,-3
1532299295843,-1,-1,-1,2,0,8,6,-3
1532299295848,0,-2,-2,-4,-6,-10,-5,-5
1532299295853,0,-1,-1,-1,1,8,-3,0
1532299295858,-1,-2,-2,-4,-1,9,9,1
1532299295863,-1,1,-1,0,-2,2,-9,-2
1532299295868,-2,-2,0,-4,-3,-16,15,-2
1532299295873,2,-1,-1,1,6,-19,-37,2
1532299295878,-1,0,-1,-1,-5,-4,0,1
1532299295883,-1,0,-1,0,5,3,5,-4
1532299295888,1,-1,0,-1,-6,-3,-16,-1
1532299295893,-2,-1,1,0,-1,11,25,-2
1532299295898,-2,0,0,-2,1,4,5,0
1532299295903,-3,-1,0,1,1,-19,-13,-9
1532299295908,0,0,-2,-2,0,21,5,-5
1532299295913,0,-1,-2,-4,-8,1,9,-3
1532299295918,0,-2,-3,-2,-3,-8,-8,-4
1532299295923,3,0,3,3,8,4,11,10
1532299295928,0,-1,-1,-3,-14,-5,-13,1
1532299295933,1,0,-1,0,1,-1,-3,3
1532299295938,-2,0,-1,-1,3,6,23,0
1532299295943,-3,-1,0,-2,-1,-5,-7,-2
1532299295948,-2,-1,2,0,-3,-31,-10,-2
1532299295953,1,2,2,3,4,37,39,9
1532299295958,0,-2,0,0,-2,-2,-21,-6
1532299295963,-1,-1,-1,2,13,0,-1,-1
1532299295968,-1,0,-2,-4,-16,1,7,0
1532299295973,-1,-1,-3,-1,-6,-14,3,-2
1532299295978,-1,-1,-1,-1,3,0,-9,3
1532299295983,2,1,-2,-2,1,22,19,6
1532299295988,0,-2,4,3,9,-19,-24,-2
1532299295993,-1,-1,-4,-8,-19,0,15,-3
1532299295998,-1,1,-1,0,-1,8,4,-6
1532299296003,0,0,-3,-2,-8,-6,-9,0
1532299296008,-2,-2,-3,2,9,-6,-12,-2
1532299296013,-1,0,1,2,7,23,21,1
1532299296018,-1,0,3,3,10,1,-6,-2
1532299296023,-1,-3,-4,-7,-16,-21,-6,0
1532299296028,-1,-1,1,2,3,7,2,0
1532299296033,-2,-2,-2,-2,1,4,-14,-4
1532299296038,-2,-3,-3,-3,-6,-16,-18,-10
1532299296043,0,2,2,2,5,9,-5,0
1532299296048,0,1,-1,-1,1,4,-5,4
1532299296053,0,-1,-3,-3,-3,-14,11,-1
1532299296058,1,-1,0,1,3,6,6,3
1532299296063,-3,1,-2,-1,-4,-2,-2,-2
1532299296068,0,-1,-1,-2,0,-6,-9,-4
1532299296073,-3,-1,0,2,2,-1,-17,-7
1532299296078,2,1,0,0,1,27,19,4
1532299296083,-1,-3,-1,-1,-2,-3,-2,-1
1532299296088,-1,-1,-2,-1,0,-4,11,1
1532299296093,-1,-2,3,1,5,10,-3,2
1532299296098,0,0,-4,-4,-6,-9,-7,3
1532299296103,-3,-2,-1,-3,-9,-17,-5,-2
1532299296108,1,1,1,1,7,39,27,0
1532299296113,0,-2,-4,-1,1,-16,-14,2
1532299296118,-3,0,1,1,-5,-14,-2,-4
1532299296123,-1,-2,-3,-4,1,7,1,-4
1532299296128,0,0,0,1,-1,1,-17,-2
1532299296133,-1,5,5,1,2,2,13,0
1532299296138,1,-8,-8,-1,0,-4,12,1
1532299296143,-4,0,-4,-2,-3,-11,-4,-1
1532299296148,-5,-5,-4,-2,-7,12,9,-3
1532299296153,5,6,3,3,8,6,-6,3
1532299296158,-9,4,-2,-2,-2,-10,15,1
1532299296163,12,7,28,6,2,-11,-13,1
1532299296168,-11,1,-18,-6,-3,-7,-3,-3
1532299296173,-4,-1,4,-1,-4,-15,1,-7
1532299296178,-2,-4,-2,-6,-7,-4,-24,-3
1532299296183,-7,-1,-3,0,1,24,-18,-15
1532299296188,6,1,1,1,3,13,31,9
1532299296193,-1,-3,1,-1,-1,-19,-78,-6
1532299296198,-1,1,-1,0,1,-17,56,1
1532299296203,1,-2,-7,0,6,66,46,9
1532299296208,1,-1,3,-3,-1,-21,-25,-4
1532299296213,-2,-2,-9,-2,-2,10,13,3
1532299296218,1,-1,4,0,-3,-8,-32,-6
1532299296223,-1,-1,-6,-4,-3,-17,-6,3
1532299296228,1,-1,4,3,3,8,4,7
1532299296233,-3,-1,1,-1,-2,-14,-2,0
1532299296238,0,-1,-2,-3,-5,-12,-21,-7
1532299296243,2,-2,13,3,2,33,64,-3
1532299296248,-2,-1,-13,1,0,-32,-15,-6
1532299296253,-1,-4,-4,-3,-3,-16,8,-2
1532299296258,0,1,17,1,0,19,7,2
1532299296263,-2,-1,-8,-2,0,-2,-11,1
1532299296268,1,-1,5,-1,-2,3,1,-4
1532299296273,0,0,1,-1,-2,7,8,2
1532299296278,2,-1,-7,0,-1,-1,-3,2
1532299296283,-1,-5,-2,1,-4,-19,-7,0
1532299296288,2,1,23,-3,-1,4,-14,2
1532299296293,0,-1,-12,4,7,9,36,3
1532299296298,6,-2,-25,-4,-1,0,-11,9
1532299296303,3,11,1,-2,-5,-23,-27,-1
1532299296308,-11,-16,22,13,6,29,45,6
1532299296313,11,-10,17,1,-4,6,-15,1
1532299296318,-8,-4,-16,-3,0,-28,-3,-7
1532299296323,3,2,-4,2,4,20,-1,-3
1532299296328,1,8,-5,-4,-4,-8,-15,2
1532299296333,6,3,-11,-2,-3,0,25,8
1532299296338,-7,7,36,9,1,-1,-16,-9
1532299296343,-9,-13,19,-8,-7,-6,-12,-4
1532299296348,17,4,-39,-4,-3,-6,-5,0
1532299296353,-13,-3,13,1,4,5,-10,-11
1532299296358,5,-2,-19,-4,-2,11,20,5
1532299296363,-4,7,16,2,-3,-22,-5,-5
1532299296368,-1,2,10,-3,-2,-2,-10,-15
1532299296373,-17,-7,-37,-7,-5,-26,-26,-11
1532299296378,-3,1,13,-2,0,15,33,-1
1532299296383,0,-1,-14,3,2,-15,-18,3
1532299296388,-2,2,4,-2,-2,32,18,-4
1532299296393,1,1,1,-2,-3,-49,-35,5
1532299296398,2,0,5,2,-1,7,-3,4
1532299296403,0,-4,-11,-3,-4,-2,0,-10
1532299296408,-2,-3,-12,0,2,-18,-4,0
1532299296413,0,5,10,1,2,3,7,-2
1532299296418,2,-3,0,-2,-8,28,18,10
1532299296423,-3,-3,-14,-1,5,-16,-31,-5
1532299296428,-3,0,5,1,-6,-86,1,5
1532299296433,3,2,6,6,17,92,22,3
1532299296438,1,-1,-7,-10,-24,-21,-17,-4
1532299296443,-5,-3,-11,-7,-2,-5,-6,-3
1532299296448,-4,-2,0,-2,-3,-34,-11,0
1532299296453,2,1,3,5,17,52,18,2
1532299296458,-1,-1,-2,3,3,1,-16,-3
1532299296463,2,-1,1,-1,-3,9,23,8
1532299296468,-1,-2,0,-1,-3,-16,-16,-4
1532299296473,1,-1,-5,-5,-11,1,-26,3
1532299296478,-3,1,6,7,19,-7,-9,-3
1532299296483,1,0,-1,-1,-1,32,34,4
1532299296488,-2,-2,-7,-1,0,8,-12,-6
1532299296493,0,0,-3,-8,-10,-57,21,-2
1532299296498,0,-2,-5,-4,1,-3,-32,-8
1532299296503,-1,0,-1,1,-2,-18,-10,4
1532299296508,-1,-1,-5,2,3,20,-2,1
1532299296513,-1,-3,0,-4,-5,-5,2,-4
1532299296518,-1,-2,-2,1,10,0,0,0
1532299296523,-1,0,-3,-4,-17,-1,1,-2
1532299296528,-3,-3,-1,-5,-6,11,8,2
1532299296533,-2,-1,-1,1,0,-25,-29,-3
1532299296538,1,-1,-1,-3,1,37,41,0
1532299296543,-2,-2,-3,1,2,-13,-15,0
1532299296548,-2,-1,-1,-1,-3,10,-23,-3
1532299296553,-2,-1,-5,-1,-5,4,33,-5
1532299296558,-2,-1,2,4,7,-22,-18,-1
1532299296563,0,0,0,-3,-6,12,6,1
1532299296568,-2,-3,-1,-1,-6,16,8,2
1532299296573,-1,-1,-2,-5,-1,-16,-4,-1
1532299296578,1,0,-1,1,-3,7,-10,2
1532299296583,0,-1,-2,-3,0,-13,11,0
1532299296588,1,-2,0,2,12,11,-3,-2
1532299296593,-1,0,4,-5,-3,-22,-9,-1
1532299296598,0,0,-1,-2,-15,6,3,-2
1532299296603,0,-2,-1,11,28,49,20,1
1532299296608,-1,1,-3,-6,-19,-21,-13,1
1532299296613,0,-1,-1,0,3,8,-3,1
1532299296618,0,-3,-3,-5,4,-17,1,-2
1532299296623,-2,-1,1,-1,-6,-34,-23,-5
1532299296628,-2,0,3,2,5,15,8,-5
1532299296633,0,1,-1,-3,-10,15,14,1
1532299296638,-2,-1,-3,-4,-10,-17,-23,4
1532299296643,-2,0,-1,1,-1,6,6,2
1532299296648,-1,0,-1,1,17,14,4,1
1532299296653,-1,-2,-1,-3,-26,-4,-15,-2
1532299296658,-1,-1,-1,3,15,27,28,0
1532299296663,1,-2,-2,-4,-1,-3,-8,1
1532299296668,1,1,1,-2,-3,9,1,1
1532299296673,-1,-3,-3,5,9,-27,-16,-4
1532299296678,2,1,2,1,-1,46,43,0
1532299296683,-4,-2,-2,-3,-1,15,-3,-2
1532299296688,-1,-2,-4,-1,0,-13,-7,-1
1532299296693,1,1,0,0,2,24,2,5
1532299296698,-3,-1,-3,-1,-2,-33,-18,-2
1532299296703,1,1,0,4,33,4,0,0
1532299296708,0,0,-3,-7,-40,-4,14,0
1532299296713,-3,0,1,0,-5,-68,-18,-5
1532299296718,-1,0,-1,-3,2,56,30,1
1532299296723,-1,-1,-1,2,-2,-24,-10,0
1532299296728,-1,0,1,0,12,6,-3,-2
1532299296733,-1,0,-2,-2,2,7,7,0
1532299296738,-2,0,-1,-3,-16,-18,-17,-3
1532299296743,-1,0,-2,-4,-19,-8,1,1
1532299296748,2,2,4,3,5,17,16,0
1532299296753,0,-1,0,-1,-1,13,-5,9
1532299296758,-2,-1,1,4,24,-65,-37,-5
1532299296763,-1,0,-1,-7,-19,44,36,1
1532299296768,-2,-1,-1,-1,3,-51,-7,7
1532299296773,0,0,2,-2,-4,29,2,-8
1532299296778,-1,-1,-1,1,10,-42,-10,1
1532299296783,1,-2,0,2,-6,17,-13,-8
1532299296788,1,0,-2,2,3,13,0,9
1532299296793,0,0,-2,0,6,2,26,5
1532299296798,0,0,0,0,-5,-18,-12,-1
1532299296803,-3,-1,-2,-5,-8,-30,-30,-11
1532299296808,0,0,-2,-2,-3,27,7,6
1532299296813,1,0,-1,4,16,5,0,-10
1532299296818,0,0,-1,-3,-24,-20,13,9
1532299296823,-1,-2,-1,-1,2,12,-34,-1
1532299296828,0,0,1,3,27,16,29,-13
1532299296833,-2,-1,-1,-5,-31,-34,-13,0
1532299296838,-3,-2,-6,-3,-4,15,10,-2
1532299296843,-3,0,-1,-1,-3,-3,25,1
1532299296848,1,0,-3,2,6,-23,-57,21
1532299296853,-7,-3,-2,-6,-6,-5,-16,-39
1532299296858,4,0,0,-2,3,33,37,26
1532299296863,-2,-3,-2,-3,-4,-40,9,12
1532299296868,2,0,1,5,12,25,26,-13
1532299296873,-1,-1,-3,0,-2,-1,10,1
1532299296878,-3,-1,0,0,-18,-8,-57,-17
1532299296883,2,2,2,2,6,-2,17,-5
1532299296888,0,-1,-1,-2,-6,11,-4,-1
1532299296893,-1,-1,-1,-1,9,-2,17,12
1532299296898,-5,-3,-1,-3,-3,2,10,-25
1532299296903,1,0,1,4,19,14,-12,3
1532299296908,-4,-2,-1,-3,-15,-26,32,-23
1532299296913,4,2,1,1,-14,16,-58,23
1532299296918,-1,-1,0,-1,-4,-29,40,13
1532299296923,0,1,2,1,0,29,-10,-25
1532299296928,-5,-3,-4,-2,1,-25,-27,8
1532299296933,-4,-3,-3,-2,6,25,-2,-40
1532299296938,7,3,3,6,11,18,14,1
1532299296943,1,-2,-4,-2,-5,-53,14,2
1532299296948,2,1,1,0,-10,34,-3,13
1532299296953,-3,-2,0,0,0,12,12,1
1532299296958,-2,-2,-1,-2,-1,7,-30,-3
1532299296963,0,-2,-2,1,-1,-15,16,22
1532299296968,-2,-2,-1,-4,-6,-16,-28,-9
1532299296973,3,0,-1,0,6,22,49,24
1532299296978,-2,-1,0,0,4,3,-18,0
1532299296983,-2,-2,-2,1,-1,8,18,-23
1532299296988,-2,-1,-3,-2,-3,3,-3,29
1532299296993,-1,-1,0,3,2,-37,-24,-18
1532299296998,-3,-2,-5,-1,3,37,3,-6
1532299297003,3,4,2,-1,-8,3,-6,16
1532299297008,-5,-1,-1,0,1,-10,-24,-22
1532299297013,0,-1,0,-1,4,-25,10,6
1532299297018,0,3,-2,-1,-3,11,-16,-5
1532299297023,0,0,1,0,-2,6,10,16
1532299297028,2,2,1,1,7,-15,15,15
1532299297033,1,1,0,0,-2,9,-1,15
1532299297038,-2,-3,-1,-4,-7,1,-12,11
1532299297043,-3,1,-3,-2,-5,-3,-24,15
1532299297048,-7,-1,0,0,2,8,9,-17
1532299297053,-7,-3,-1,-1,-4,-30,-2,-11
1532299297058,11,0,1,0,1,16,-6,46
1532299297063,7,3,2,-1,0,26,-37,-10
1532299297068,4,-1,2,1,-3,-6,-1,29
1532299297073,-3,-1,-3,1,3,20,3,-2
1532299297078,-6,-2,0,0,4,-35,6,-19
1532299297083,-11,-6,-3,-4,-11,-15,-19,-37
1532299297088,2,-4,-1,-4,3,9,31,-30
1532299297093,-7,0,2,0,-3,10,4,-3
1532299297098,-5,-1,-1,3,4,-3,8,-28
1532299297103,11,0,-3,-3,-1,-7,11,21
1532299297108,-1,0,-4,-3,-6,6,-7,-9
1532299297113,5,0,-1,0,1,0,-9,-10
1532299297118,-2,-4,-2,-3,-2,-2,-3,1
1532299297123,-15,-4,-2,2,-1,-10,5,-16
1532299297128,0,-2,0,-4,-4,-6,-8,-25
1532299297133,4,1,1,-1,1,6,4,-3
1532299297138,14,3,-1,-1,-1,4,3,29
1532299297143,7,-7,-2,1,6,2,-5,13
1532299297148,0,8,4,2,-4,-1,42,10
1532299297153,13,15,-4,-1,0,5,-4,-18
1532299297158,-35,-3,4,1,-1,-1,-54,-36
1532299297163,-18,-4,-3,-5,0,-4,19,-20
1532299297168,24,-1,6,0,-2,1,8,11
1532299297173,-31,-34,-11,-4,-3,-3,-28,-6
1532299297178,35,28,-9,-2,0,-2,5,-21
1532299297183,-10,9,4,1,0,3,49,-1
1532299297188,2,-2,8,-1,-2,-1,-34,-22
1532299297193,1,-1,5,2,3,4,-4,23
1532299297198,-43,-12,1,-4,-4,-1,24,6
1532299297203,27,-17,-1,-6,-3,-4,-9,-11
1532299297208,-11,-12,-23,-8,-5,-3,8,16
1532299297213,34,10,-23,-4,-4,-2,31,40
1532299297218,-28,8,31,3,-2,-1,-8,-19
1532299297223,14,4,11,5,4,-4,-38,19
1532299297228,-6,8,0,6,3,0,14,1
1532299297233,4,-7,3,-2,-2,-1,-4,1
1532299297238,-4,0,-24,-8,-4,-3,14,-4
1532299297243,4,-6,-2,-1,-4,-4,-7,-5
1532299297248,-2,-2,-10,1,0,0,-31,4
1532299297253,-31,6,5,4,3,11,-39,-2
1532299297258,63,-4,1,1,0,-1,18,18
1532299297263,-23,0,9,-2,0,-8,-8,0
1532299297268,-32,-16,-12,-4,-4,-2,-14,-13
1532299297273,19,9,13,-3,-1,-1,15,3
1532299297278,-3,-5,2,4,2,2,-3,2
1532299297283,8,7,-16,4,3,1,-8,0
1532299297288,-8,0,2,-1,-1,-1,9,3
1532299297293,-8,-5,11,3,0,-3,10,-6
1532299297298,8,-9,-10,-4,-2,-3,-6,3
1532299297303,40,17,-6,-8,-2,0,13,4
1532299297308,-37,-7,-22,-9,1,-4,-12,-12
1532299297313,-25,-7,6,-4,-3,-1,3,2
1532299297318,5,-6,10,-1,-2,0,-9,6
1532299297323,-3,24,23,12,1,1,2,5
1532299297328,14,5,18,2,1,1,0,13
1532299297333,7,-2,-15,-2,-2,-1,-1,-10
1532299297338,-15,-13,-4,-2,-1,-1,-2,-10
1532299297343,-12,-12,-10,-3,-1,1,-1,-7
1532299297348,9,7,-3,0,-2,1,-3,-4
1532299297353,-8,-18,-2,-3,-4,-3,5,4
1532299297358,9,3,-3,-1,-1,-1,-7,4
1532299297363,-12,-5,-6,-3,-2,-1,-1,0
1532299297368,-15,-8,12,5,1,1,0,-4
1532299297373,36,0,80,8,3,1,6,-2
1532299297378,-14,-11,-71,-11,-2,-2,-3,-7
1532299297383,-2,8,-25,-1,-1,-3,-8,-3
1532299297388,-12,-10,45,4,0,0,-3,0
1532299297393,-18,11,-27,-13,-3,-3,-2,-4
1532299297398,-10,-3,21,7,1,2,4,-3
1532299297403,-6,-7,1,-6,-1,1,5,0
1532299297408,27,5,-3,5,-2,-10,-12,0
1532299297413,-5,6,-3,4,-1,0,1,0
1532299297418,5,2,13,1,1,1,2,-1
1532299297423,-11,-4,-16,0,-2,-1,3,0
1532299297428,15,8,-2,-1,0,0,7,3
1532299297433,-3,-17,-30,-6,-2,-5,0,-1
1532299297438,-5,-6,-9,-6,-4,-3,-1,1
1532299297443,0,6,44,8,1,2,1,7
1532299297448,7,12,-5,1,1,0,0,1
1532299297453,0,3,-3,1,0,-1,0,1
1532299297458,0,8,-6,1,0,2,1,1
1532299297463,-6,-15,66,1,-2,-1,-1,-9
1532299297468,2,-4,-58,-14,-2,0,1,-6
1532299297473,-2,13,-11,-1,-1,-1,-3,6
1532299297478,6,-6,15,2,-1,-1,-4,10
1532299297483,-9,-8,-21,-2,0,-2,-4,3
1532299297488,6,1,13,3,-1,3,-1,2
1532299297493,1,3,8,2,-1,-3,-18,-10
1532299297498,2,1,-5,0,-1,0,-7,-9
1532299297503,7,-10,-4,-2,-1,-1,-2,-7
1532299297508,-6,-1,13,5,-1,0,9,-3
1532299297513,-7,-12,-29,-7,-1,0,8,-9
1532299297518,0,4,14,-1,0,-3,4,-4
1532299297523,-3,-4,-25,-4,-2,-1,6,-2
1532299297528,-2,-8,3,-1,0,2,5,-5
1532299297533,7,7,4,4,-3,-1,7,0
1532299297538,0,2,24,3,-4,-6,-4,4
1532299297543,-8,-3,-45,-12,2,0,-8,-6
1532299297548,9,-20,-25,-16,-6,-8,-19,-2
1532299297553,-16,6,-1,0,-1,6,2,-2
1532299297558,5,26,28,15,4,4,7,1
1532299297563,10,10,14,9,3,1,13,20
1532299297568,0,7,6,4,-4,1,9,6
1532299297573,-1,-15,-17,-2,9,-1,3,0
1532299297578,-4,-10,-13,-11,2,-11,-2,-9
1532299297583,-4,2,-2,-4,-10,-2,-3,-2
1532299297588,-5,-3,-6,-4,-9,-1,2,-2
1532299297593,2,2,9,2,-6,2,1,1
1532299297598,1,2,-4,5,15,6,3,11
1532299297603,0,-1,-2,-3,1,1,-12,-7
1532299297608,-3,3,3,-2,4,-4,0,-2
1532299297613,9,8,8,0,-17,1,6,3
1532299297618,-4,-8,-13,-4,-5,-4,0,-5
1532299297623,-1,-7,-5,3,0,4,-3,-5
1532299297628,-3,-16,21,6,9,12,12,1
1532299297633,3,13,47,5,6,0,0,-1
1532299297638,2,5,-10,-16,-9,-20,-33,-6
1532299297643,-8,-10,11,0,8,-5,2,-3
1532299297648,8,1,-56,-3,8,-3,-5,-1
1532299297653,-4,-2,-6,-5,-14,0,2,0
1532299297658,-2,-5,16,3,-16,13,10,-1
1532299297663,2,4,2,5,-8,-6,-2,-2
1532299297668,2,7,7,3,9,0,0,2
1532299297673,0,-6,-3,0,28,-9,-2,-3
1532299297678,1,1,-10,-5,9,-3,-4,-1
1532299297683,-3,1,-3,-11,-33,-6,-2,-1
1532299297688,-5,-2,-1,1,-9,-5,-13,2
1532299297693,-1,-2,-11,4,-4,5,5,-9
1532299297698,1,-1,7,15,26,21,11,9
1532299297703,0,1,-7,-5,26,-7,-4,-3
1532299297708,-6,-10,11,-9,-40,2,-7,-3
1532299297713,13,-2,8,-3,-9,16,12,4
1532299297718,-16,1,-33,-9,-7,-3,-11,-3
1532299297723,12,9,3,11,4,-47,-27,4
1532299297728,-9,-1,-6,0,11,-11,-11,-5
1532299297733,-5,0,-4,0,32,-2,-2,2
1532299297738,4,-3,9,-9,-49,30,18,-1
1532299297743,-2,-1,2,-6,-14,-15,21,-2
1532299297748,-10,-1,2,-5,-1,0,-38,-8
1532299297753,33,9,18,3,4,20,44,8
1532299297758,5,1,-8,4,6,-19,-5,-2
1532299297763,-6,1,-1,0,2,31,34,-4
1532299297768,24,8,7,14,29,-15,-8,4
1532299297773,-50,-19,-5,-6,-27,-26,-29,-5
1532299297778,0,-7,4,-5,-5,11,-7,-5
1532299297783,-1,-4,18,-8,-20,-17,-10,-5
1532299297788,-1,8,-29,9,27,23,18,2
1532299297793,3,-1,-11,4,29,-6,-21,-3
1532299297798,0,-4,-14,-16,-44,-37,-9,-7
1532299297803,-3,0,-1,5,20,56,46,5
1532299297808,0,5,23,-3,-28,1,41,2
1532299297813,1,2,-2,6,11,-2,-19,2
1532299297818,-1,-2,-4,14,32,1,8,0
1532299297823,-5,-23,-5,-11,-20,-10,-31,-2
1532299297828,-7,7,-2,-20,-24,-17,-19,-3
1532299297833,7,2,-10,6,-8,5,12,11
1532299297838,0,2,12,3,18,1,-8,-2
1532299297843,-8,10,3,9,3,1,-6,-2
1532299297848,-1,-2,-46,-15,17,10,13,4
1532299297853,-22,-8,17,-4,-26,-8,1,-13
1532299297858,10,-3,-38,3,6,-5,-6,11
1532299297863,6,6,-1,2,30,10,-16,-2
1532299297868,2,5,-12,0,3,-10,15,-7
1532299297873,4,0,36,-1,-52,-17,-17,-8
1532299297878,-7,-9,-15,-19,-9,-1,9,-11
1532299297883,0,1,-3,9,-21,-5,6,1
1532299297888,1,-5,25,11,13,30,6,4
1532299297893,0,0,-15,8,35,10,-31,0
1532299297898,1,2,20,8,22,-23,34,5
1532299297903,3,-4,-19,-7,29,8,-35,2
1532299297908,-6,-5,18,-21,-62,-18,0,-5
1532299297913,3,0,-36,-27,-30,-13,3,-3
1532299297918,-5,-1,-30,13,-49,25,-11,-8
1532299297923,-1,5,-6,2,74,10,-8,-6
1532299297928,-16,-13,-41,-2,69,-28,-10,-7
1532299297933,26,12,4,-1,-68,40,52,12
1532299297938,-17,-8,13,5,11,-24,-17,2
1532299297943,0,1,19,8,-28,24,17,9
1532299297948,5,5,31,34,40,36,-21,1
1532299297953,0,-5,-11,3,56,-19,4,-1
1532299297958,-6,-7,14,-25,-24,-27,-12,-5
1532299297963,5,2,-3,-8,-28,-14,9,-3
1532299297968,-2,-2,-7,-25,-71,-10,10,-2
1532299297973,-7,3,-9,14,1,25,3,-7
1532299297978,10,10,30,43,89,35,23,1
1532299297983,-15,-13,-13,-5,8,-27,-3,-9
1532299297988,-1,-11,-23,-58,-51,-4,-2,-9
1532299297993,1,-9,9,-10,-37,-29,-19,0
1532299297998,9,28,0,-8,-25,15,-15,7
1532299298003,-9,4,-16,31,17,-1,-17,2
1532299298008,-4,-2,27,57,74,33,6,3
1532299298013,4,7,-20,-29,57,2,11,3
1532299298018,0,-10,-10,-40,-30,-12,-10,-3
1532299298023,-7,-17,-11,-37,-109,-41,2,-3
1532299298028,0,6,9,13,-21,-18,-16,1
1532299298033,0,-4,16,30,25,17,9,6
1532299298038,5,5,11,24,53,29,26,9
1532299298043,3,2,-4,4,26,-4,-14,-3
1532299298048,1,-4,1,-8,-21,-18,35,-6
1532299298053,-4,-3,-5,-15,-28,-8,0,-10
1532299298058,-5,-7,-5,-18,-23,-18,-30,-6
1532299298063,4,4,1,5,-8,16,6,0
1532299298068,0,2,22,18,26,13,-4,2
1532299298073,-4,2,-10,2,15,-15,-14,-1
1532299298078,-4,-6,-5,-10,-1,15,21,-6
1532299298083,4,-3,4,-13,-32,-6,0,-3
1532299298088,1,9,9,4,3,7,-21,-3
1532299298093,-1,-1,-3,3,-6,-35,-4,-4
1532299298098,-1,-3,3,12,-2,22,-23,-1
1532299298103,-3,-2,2,-2,26,4,-10,1
1532299298108,3,-2,-3,-6,-2,-29,12,3
1532299298113,-3,0,0,6,-10,30,-6,1
1532299298118,-6,-8,2,-6,0,-40,3,-2
1532299298123,2,0,-3,-11,-7,13,22,2
1532299298128,7,6,0,0,-11,10,0,7
1532299298133,-5,-4,-1,2,7,-1,-14,-2
1532299298138,-2,0,-1,7,-11,6,-9,3
1532299298143,7,4,2,7,37,-3,-3,1
1532299298148,-4,-8,-5,-10,-8,-3,-17,-5
1532299298153,-5,-5,-6,-9,-19,-17,-8,-5
1532299298158,-2,-3,-4,1,-10,17,3,-2
1532299298163,5,-1,9,8,8,-9,-5,20
1532299298168,-1,6,8,5,2,3,-3,6
1532299298173,0,2,1,1,29,53,0,1
1532299298178,1,-1,-6,-4,-19,-59,3,-4
1532299298183,-6,-6,-3,1,9,24,-8,-12
1532299298188,-6,-5,-1,0,-2,-7,-36,-25
1532299298193,2,-7,-7,0,14,6,61,23
1532299298198,6,-1,0,-1,-17,0,-19,9
1532299298203,1,13,23,3,-6,-21,-6,2
1532299298208,2,-1,2,0,7,-8,5,2
1532299298213,1,-2,-2,-3,-8,-5,-49,-13
1532299298218,-4,-3,4,-1,-6,-15,34,-18
1532299298223,-15,-19,-18,-12,8,28,6,-33
1532299298228,4,-24,-24,-8,-30,5,1,26
1532299298233,1,40,39,9,21,10,-10,-14
1532299298238,14,11,13,2,7,5,5,-2
1532299298243,0,5,1,0,-12,-30,-21,-11
1532299298248,-4,-6,-1,-5,-11,-19,24,-1
1532299298253,-4,-21,-19,-5,-7,-19,6,2
1532299298258,-1,2,-1,6,31,-12,-19,-4
1532299298263,4,3,1,-7,-27,40,4,22
1532299298268,-1,-5,-2,0,14,25,12,-3
1532299298273,2,-5,-7,0,-1,-94,-23,2
1532299298278,-7,5,5,0,-6,113,-9,-16
1532299298283,3,2,4,7,16,13,33,8
1532299298288,-3,4,0,-2,-1,-4,0,-2
1532299298293,-4,-3,-10,-6,-8,12,-2,-3
1532299298298,-3,-13,-11,0,6,-25,9,20
1532299298303,4,0,4,-1,-11,-14,-25,-6
1532299298308,-1,9,1,2,25,20,-18,-8
1532299298313,-7,-9,-10,-4,-25,-30,35,-18
1532299298318,-6,-6,-6,0,-1,-7,-18,-24
1532299298323,4,4,13,6,-3,5,20,-5
1532299298328,11,30,24,6,5,-8,-4,-1
1532299298333,-2,-6,-4,-1,3,16,-8,-5
1532299298338,-2,-5,-9,-5,-4,-22,0,10
1532299298343,-5,-6,-12,-1,18,-3,-3,4
1532299298348,-5,-10,-8,-7,-38,-10,-1,1
1532299298353,0,-3,-1,-6,-13,58,-13,12
1532299298358,-2,1,3,-3,-4,-9,8,10
1532299298363,-3,-1,-2,1,9,-4,1,0
1532299298368,-2,-3,-1,1,-2,-10,-5,-2
1532299298373,2,2,-1,0,-1,-7,-1,16
1532299298378,0,0,3,2,7,6,9,-2
1532299298383,1,0,-6,-5,-10,-16,-5,-4
1532299298388,-1,-2,-4,-1,2,6,8,0
1532299298393,1,1,3,3,3,-9,-16,0
1532299298398,3,3,4,2,7,1,-3,3
1532299298403,-1,0,-4,-2,-2,-1,-1,3
1532299298408,-4,-2,-3,-2,8,-9,-4,-8
1532299298413,0,0,5,0,-6,0,-9,-11
1532299298418,1,-1,2,5,19,0,-3,4
1532299298423,-2,-2,-5,2,-3,6,2,4
1532299298428,-1,-3,-6,-18,-32,-5,4,3
1532299298433,-5,-5,-10,-5,4,-6,-7,-1
1532299298438,0,1,5,2,-3,-2,1,8
1532299298443,-3,-4,-6,0,0,-9,10,-1
1532299298448,4,3,10,3,15,1,-12,-1
1532299298453,-3,-3,3,0,0,2,13,-3
1532299298458,-1,2,4,-2,-14,4,7,-6
1532299298463,4,2,-3,20,25,10,0,1
1532299298468,-3,-3,11,23,10,-2,2,-3
1532299298473,2,2,-9,-11,10,14,4,0
1532299298478,1,2,12,-20,-20,-12,-14,7
1532299298483,-16,-11,-36,-32,-38,-21,2,1
1532299298488,-4,-4,-12,-24,-36,-7,-4,7
1532299298493,1,3,8,11,5,0,7,3
1532299298498,2,-3,12,32,34,6,2,-6
1532299298503,4,4,12,5,18,8,-7,-3
1532299298508,-1,1,-1,0,11,-8,-7,-12
1532299298513,-3,-3,-2,-24,-8,-1,-3,-9
1532299298518,-8,-17,-11,-7,-26,-7,2,-6
1532299298523,2,9,3,2,-1,5,-10,-2
1532299298528,6,7,6,15,14,11,5,8
1532299298533,-1,4,11,27,23,-5,-5,2
1532299298538,-1,-12,77,16,2,-4,15,-4
1532299298543,-1,-5,-96,-49,1,2,1,2
1532299298548,-13,-6,31,-11,-39,-21,-4,-7
1532299298553,-14,-11,-14,-18,-22,-3,-4,-5
1532299298558,21,26,2,18,21,5,-3,2
1532299298563,6,-3,38,28,-2,10,-14,0
1532299298568,13,-2,79,14,20,-1,55,6
1532299298573,-27,-19,-98,-35,-10,-2,-2,-20
1532299298578,-16,-8,55,-9,-8,0,-11,-13
1532299298583,48,47,9,28,12,-5,1,78
1532299298588,-5,5,-12,18,28,16,-27,-9
1532299298593,11,-3,70,4,-10,-6,-4,7
1532299298598,-3,-12,76,-19,-12,5,7,-24
1532299298603,4,19,-74,-51,-27,-15,-10,-22
1532299298608,-44,-38,-47,-15,0,-5,-33,5
1532299298613,40,15,31,23,31,-60,8,9
1532299298618,-2,-7,-38,14,6,75,2,-3
1532299298623,-12,-15,58,19,-13,2,25,-24
1532299298628,14,3,-46,28,-19,21,12,-3
1532299298633,2,-3,-41,14,-7,-10,-14,3
1532299298638,-12,-6,-90,-3,2,-32,-3,3
1532299298643,5,-21,11,3,8,6,8,-8
1532299298648,-1,22,-25,-34,23,10,-11,2
1532299298653,3,7,27,-6,20,15,19,-12
1532299298658,19,19,13,-1,-10,-4,4,23
1532299298663,-54,-38,-27,-29,-10,17,-11,-62
1532299298668,-24,-12,-12,-37,-73,-19,7,3
1532299298673,57,5,17,30,-9,23,6,5
1532299298678,50,36,-15,-21,22,-34,16,111
1532299298683,4,1,16,-14,-9,-28,-44,-22
1532299298688,-3,-11,17,20,7,5,18,-8
1532299298693,-35,3,14,1,-1,13,-18,-27
1532299298698,-27,-12,-30,-5,-30,-17,1,-36
1532299298703,-11,-11,21,18,4,17,53,-4
1532299298708,10,10,14,17,23,-1,17,-5
1532299298713,-4,-3,-8,2,8,-14,-37,-6
1532299298718,-9,-11,-24,-4,6,-2,-21,-23
1532299298723,-8,8,26,6,3,-6,-10,5
1532299298728,-1,-2,0,11,26,7,-8,-61
1532299298733,-6,-8,-7,-13,-1,-12,6,3
1532299298738,14,-6,-14,-26,-18,-71,-2,75
1532299298743,-8,10,21,0,-50,18,-16,14
1532299298748,10,11,4,-9,7,13,-76,8
1532299298753,-6,-1,12,-1,8,22,86,21
1532299298758,-17,-4,-1,-18,-10,-2,-14,-78
1532299298763,-1,-19,-24,-1,2,-33,-14,5
1532299298768,2,-11,-28,-1,9,-11,-79,15
1532299298773,10,32,33,20,-1,33,75,19
1532299298778,-12,2,13,30,11,7,-48,-33
1532299298783,11,6,-2,19,12,19,82,15
1532299298788,7,-10,4,19,-4,-18,-49,-3
1532299298793,-17,-8,2,-17,-9,-5,-3,-17
1532299298798,1,1,-3,-43,-4,15,-12,4
1532299298803,-1,-6,9,-14,12,-16,-53,-1
1532299298808,4,3,3,-7,8,20,51,-9
1532299298813,2,-4,-7,-17,13,-19,-2,-12
1532299298818,-7,-3,-13,-7,-15,-19,-26,-17
1532299298823,0,-2,-2,-4,-13,-32,26,0
1532299298828,-2,-7,-12,-17,-71,-7,20,16
1532299298833,-13,-31,-22,6,-17,5,-34,16
1532299298838,12,32,-6,29,18,34,-8,12
1532299298843,9,22,41,38,36,6,-1,11
1532299298848,15,21,19,31,24,-12,25,12
1532299298853,-5,3,-2,3,-15,-5,-57,11
1532299298858,-16,-33,-33,-1,7,17,17,-5
1532299298863,0,-3,1,-1,4,11,-8,5
1532299298868,-13,8,10,14,8,8,18,5
1532299298873,-13,-19,-3,0,-12,-3,-42,-3
1532299298878,20,9,8,-11,0,-12,23,0
1532299298883,17,8,-5,-38,-1,2,-11,20
1532299298888,-1,-12,-6,-45,8,11,-5,22
1532299298893,8,12,-1,-19,1,-5,11,-1
1532299298898,-7,-2,5,3,-1,8,19,13
1532299298903,-8,-13,-7,5,-6,4,-21,-6
1532299298908,-39,3,-3,7,9,-13,10,3
1532299298913,57,8,-2,4,-7,-10,-10,14
1532299298918,-8,-3,-3,12,2,28,1,-13
1532299298923,6,-3,2,12,-1,-10,-6,-17
1532299298928,-6,-1,-2,9,2,-2,-20,-15
1532299298933,-14,6,-6,27,-1,-11,6,-10
1532299298938,-20,-24,-4,22,-5,-2,-7,-17
1532299298943,14,8,2,9,3,4,3,10
1532299298948,18,13,4,-17,-3,-10,2,4
1532299298953,-40,-12,1,-19,-1,15,-30,6
1532299298958,-7,-1,-1,-12,-1,-3,-2,25
1532299298963,2,-6,-6,-9,-3,1,-1,17
1532299298968,27,-3,-2,-10,-2,-3,4,3
1532299298973,12,12,2,0,3,6,-13,2
1532299298978,13,0,4,-2,0,4,-2,11
1532299298983,-18,-4,13,-1,-2,2,-39,9
1532299298988,-1,-1,16,-11,-7,-9,-5,1
1532299298993,5,3,12,-7,-2,2,-18,-7
1532299298998,-11,-5,5,-2,2,-2,-16,14
1532299299003,-6,-5,0,-4,-2,-2,-39,13
1532299299008,5,2,1,9,4,-3,-18,9
1532299299013,-3,-1,-2,3,-1,1,19,-14
1532299299018,0,-4,-2,0,1,2,20,-26
1532299299023,3,1,-4,-2,4,6,23,-25
1532299299028,8,3,-1,1,-1,-2,29,-19
1532299299033,-10,-4,-1,-2,-14,-5,23,-18
1532299299038,-2,-3,-1,2,2,0,48,-12
1532299299043,2,0,-3,2,-2,4,55,-9
1532299299048,-5,-2,-1,6,10,3,30,-6
1532299299053,-4,-4,-3,1,-6,-9,27,-2
1532299299058,0,1,-4,-4,-8,-15,24,-3
1532299299063,-1,-1,-6,-7,-11,2,21,0
1532299299068,-1,0,-1,-1,-5,-2,3,-2
1532299299073,0,0,3,6,7,5,0,-2
1532299299078,2,-2,-1,5,6,6,-1,1
1532299299083,-3,-2,-4,-2,-1,-3,-1,-1
1532299299088,0,-1,-3,-7,-10,-9,-6,3
1532299299093,0,1,1,3,4,5,-2,2
1532299299098,-2,-1,-2,1,7,3,-3,8
1532299299103,-3,-1,-2,3,-2,-3,-8,6
1532299299108,2,0,0,3,5,3,-16,8
1532299299113,-3,0,-1,-5,-3,-9,-40,-12
1532299299118,-2,-2,-1,-6,-10,-2,-38,-4
1532299299123,-1,-2,-2,-2,0,-3,-24,-2
1532299299128,1,-1,2,3,11,10,6,3
1532299299133,-1,-2,4,2,21,-5,13,1
1532299299138,-2,-1,-1,-4,-40,-26,8,0
1532299299143,-1,0,0,-2,-1,-1,8,-2
1532299299148,-2,-2,-4,-3,5,5,-3,1
1532299299153,-3,-2,-2,-2,-3,7,-1,1
1532299299158,3,0,-3,0,11,5,3,-8
1532299299163,0,0,3,2,-4,-6,14,-7
1532299299168,0,1,2,7,3,3,12,1
1532299299173,1,1,-6,-6,-10,-5,15,8
1532299299178,-2,-1,-3,-3,-1,-2,-22,-6
1532299299183,-2,-2,-2,-2,-5,0,1,3
1532299299188,-2,1,0,1,2,-2,3,-7
1532299299193,1,-1,1,1,-7,0,-16,-2
1532299299198,2,1,0,3,12,6,40,3
1532299299203,-3,-1,-3,-3,-3,-2,13,-9
1532299299208,1,1,1,-2,-2,-3,28,8
1532299299213,2,1,2,5,4,4,15,1
1532299299218,-2,-1,-4,-5,-1,-1,3,10
1532299299223,-2,-2,-2,-2,0,1,-21,-4
1532299299228,-1,0,0,-2,-2,-5,2,4
1532299299233,-1,0,4,7,2,3,-3,3
1532299299238,-14,-5,2,-3,-1,2,-16,-29
1532299299243,8,1,-7,-4,-10,-7,-6,17
1532299299248,8,1,0,-6,-10,-4,-12,28
1532299299253,2,-4,-2,1,11,1,-6,-22
1532299299258,3,-2,-4,-7,-5,-1,9,18
1532299299263,-5,-1,0,1,2,-1,4,-13
1532299299268,-1,0,-1,0,-3,-2,-9,-9
1532299299273,-5,0,-2,0,-2,1,13,1
1532299299278,0,2,1,4,8,1,3,-14
1532299299283,-5,-3,-9,-18,-11,-3,-21,8
1532299299288,7,2,-1,-2,-8,-3,-24,-1
1532299299293,-1,-1,1,0,1,2,-8,19
1532299299298,-1,-3,-4,6,10,7,-1,-11
1532299299303,-1,-1,2,5,6,3,17,-15
1532299299308,-5,-1,2,3,6,2,8,-26
1532299299313,2,-1,-4,-4,-10,-4,6,-7
1532299299318,-1,-3,-9,-12,-22,-8,4,8
1532299299323,-1,-1,-3,0,1,-12,-16,1
1532299299328,-4,-3,-4,-6,-9,-6,9,-4
1532299299333,-1,-2,0,2,11,11,13,7
1532299299338,3,0,3,2,-3,-2,2,10
1532299299343,0,2,1,10,22,-11,12,17
1532299299348,-12,-4,-5,-1,-16,15,-21,-19
1532299299353,-3,-5,-10,-6,1,-69,-5,2
1532299299358,4,-1,-2,-7,8,100,1,3
1532299299363,-2,-4,-3,-5,-4,17,41,20
1532299299368,3,4,11,16,28,8,46,-13
1532299299373,-15,0,-2,-7,-16,-11,-84,-3
1532299299378,19,6,-2,-2,-5,-102,13,5
1532299299383,-9,-2,-3,-4,-22,-9,-29,-26
1532299299388,-18,4,0,0,23,78,13,37
1532299299393,20,-2,7,11,-3,-87,-13,12
1532299299398,-16,-3,-1,1,-8,3,-35,-4
1532299299403,13,2,3,3,25,82,73,64
1532299299408,6,-2,-3,-10,-28,-27,4,8
1532299299413,-14,5,1,1,9,21,-30,25
1532299299418,-21,-8,-1,-2,-2,-15,23,-12
1532299299423,14,2,0,4,-1,-4,-14,75
1532299299428,0,3,-8,-6,-6,33,-34,-18
1532299299433,16,4,6,1,5,15,72,-2
1532299299438,-5,3,4,6,10,14,-12,-42
1532299299443,-5,-4,0,-2,0,5,-1,-63
1532299299448,-1,1,-6,-3,-3,-47,13,-16
1532299299453,4,-2,-3,-9,-18,18,-64,-35
1532299299458,2,7,5,1,2,-68,20,44
1532299299463,-36,3,8,7,6,63,4,-14
1532299299468,71,-4,-3,-4,-8,-71,-48,-21
1532299299473,12,5,1,2,5,18,6,4
1532299299478,-1,-5,-2,-2,-6,-4,-4,10
1532299299483,9,7,1,1,6,48,-67,-16
1532299299488,-22,2,2,2,-1,-23,32,25
1532299299493,-25,-9,-4,1,1,41,-1,-11
1532299299498,27,-4,6,8,11,13,24,34
1532299299503,-5,5,0,-11,-24,-94,6,26
1532299299508,-42,-22,-5,-1,1,-5,-26,-61
1532299299513,-3,-2,-4,-5,9,12,6,-40
1532299299518,-15,-16,1,10,9,2,-16,-31
1532299299523,26,-8,-11,-9,-26,2,16,-7
1532299299528,26,50,24,1,2,38,32,94
1532299299533,7,13,10,3,-7,-31,6,11
1532299299538,-5,3,1,2,15,28,6,-21
1532299299543,-20,-15,-1,7,7,-23,26,-37
1532299299548,-7,-18,-10,6,18,10,-27,-24
1532299299553,-6,-5,-11,3,34,-31,15,-7
1532299299558,-3,-12,-13,-53,-80,1,6,6
1532299299563,3,20,12,7,31,-31,6,-30
1532299299568,-9,-8,-6,-7,-16,-8,3,-6
1532299299573,2,-1,5,12,32,3,13,-3
1532299299578,-2,-5,-4,6,10,14,-1,-18
1532299299583,0,-5,-9,-9,-27,-13,38,-1
1532299299588,-1,-10,8,1,4,-35,-97,-28
1532299299593,5,15,9,4,-16,36,28,5
1532299299598,9,11,8,13,19,11,-25,-15
1532299299603,-3,-5,-3,-3,-8,-17,-22,-22
1532299299608,-9,-4,-4,4,4,-6,-9,19
1532299299613,-4,-14,-12,-13,-28,9,-29,36
1532299299618,2,3,-1,4,3,5,-24,36
1532299299623,0,-3,-2,5,25,-8,-3,29
1532299299628,1,-6,-3,1,-3,13,29,14
1532299299633,0,-4,-5,-7,-16,0,-11,13
1532299299638,1,7,-2,-2,6,-13,33,7
1532299299643,-4,-9,-5,-2,-5,0,-5,3
1532299299648,1,-1,0,4,8,-2,-27,-12
1532299299653,-1,-2,3,1,15,43,40,-7
1532299299658,-4,-1,-1,3,-1,-23,19,-28
1532299299663,1,-4,-7,-9,-12,-26,-30,-16
1532299299668,1,1,1,-4,-9,-3,45,13
1532299299673,-5,-1,0,-2,5,13,10,-4
1532299299678,-1,-1,2,9,21,32,-14,-2
1532299299683,3,2,3,3,8,6,-25,-1
1532299299688,-1,-1,-9,-15,-18,-12,18,3
1532299299693,-3,-6,0,1,-6,-7,3,-2
1532299299698,4,3,0,0,0,-1,-16,16
1532299299703,2,1,2,0,0,-5,2,5
1532299299708,1,2,3,6,12,14,40,-1
1532299299713,1,-4,-2,-4,-13,-7,8,10
1532299299718,0,2,-3,-2,-6,-2,-25,-1
1532299299723,-2,1,2,2,5,-3,-11,-3
1532299299728,7,1,-2,-3,2,4,-2,4
1532299299733,-15,-7,-3,-4,-8,-7,-15,-4
1532299299738,0,2,-1,0,4,-7,1,10
1532299299743,-5,-3,0,6,7,14,20,-5
1532299299748,-2,0,-2,-2,-3,-2,-11,-9
1532299299753,-1,-3,-5,-5,-9,-12,-1,24
1532299299758,32,-1,-3,-1,0,-2,-18,8
1532299299763,-8,6,2,0,-1,2,4,-6
1532299299768,-3,-3,-1,0,-2,2,-10,-17
1532299299773,3,4,0,-1,2,-6,-4,-17
1532299299778,0,-6,-2,-2,1,2,10,3
1532299299783,8,1,-1,-1,-4,-1,-14,-5
1532299299788,-4,2,-1,0,0,-3,-1,-1
1532299299793,21,6,-2,-4,-4,-4,27,8
1532299299798,-24,-9,-1,-2,-2,-1,20,17
1532299299803,-1,-2,-1,-1,-2,-4,-40,-21
1532299299808,-15,-3,-1,-1,1,-5,-21,9
1532299299813,-5,-2,-1,-1,-2,2,-9,11
1532299299818,7,3,0,-2,0,0,-1,-2
1532299299823,-2,-3,1,-1,-3,1,-12,-16
1532299299828,-5,-2,0,-2,0,0,-8,-14
1532299299833,2,0,-2,-2,-1,-5,-10,9
1532299299838,4,-2,-3,-1,0,5,2,-1
1532299299843,-7,-1,0,-2,0,-3,-3,-5
1532299299848,-40,6,-1,0,1,-1,-17,-16
1532299299853,42,6,-1,0,0,2,19,11
1532299299858,-2,-5,-1,-1,-3,-2,7,11
1532299299863,6,-1,0,2,2,0,-1,-8
1532299299868,0,1,2,2,5,-15,4,12
1532299299873,-11,-3,-8,-6,-1,36,-9,-6
1532299299878,-2,-3,-2,-1,0,-21,-8,-15
1532299299883,8,5,3,0,0,-3,-15,-20
1532299299888,25,0,0,2,0,4,-2,-5
1532299299893,-8,1,0,-1,-3,-14,11,2
1532299299898,-4,-5,-2,-2,-4,7,15,3
1532299299903,-15,-6,-5,-2,0,2,4,8
1532299299908,4,0,-1,-1,4,-1,3,10
1532299299913,3,2,2,3,3,-31,-11,9
1532299299918,-5,-3,-3,-10,-16,-18,-9,0
1532299299923,-11,2,0,-1,2,84,8,-8
1532299299928,2,-7,-1,-1,-3,-31,-33,-9
1532299299933,-4,-4,2,0,1,0,8,-7
1532299299938,0,4,4,5,9,-7,-16,-5
1532299299943,3,-7,-3,5,2,-22,6,-6
1532299299948,-3,0,-1,-4,-1,12,0,-5
1532299299953,-7,-7,-2,-5,-19,-2,-32,-12
1532299299958,-5,-1,0,-2,1,-10,10,-27
1532299299963,8,-2,0,-4,-9,-8,-24,5
1532299299968,-2,-2,0,1,2,20,34,-8
1532299299973,1,2,1,2,6,-12,9,-6
1532299299978,-5,0,-1,-1,1,15,-1,-12
1532299299983,-1,-1,0,0,-3,-14,-18,1
1532299299988,-5,-1,0,3,5,-3,-4,-2
1532299299993,3,1,1,2,2,4,1,7
1532299299998,1,-2,-2,-4,-15,-12,5,3
1532299300003,-5,-2,-2,-3,0,13,-10,-6
1532299300008,4,8,0,0,-4,-14,21,7
1532299300013,2,2,1,2,5,-4,-15,15
1532299300018,7,-21,1,5,11,23,30,4
1532299300023,-22,18,0,0,-2,-29,-14,0
1532299300028,-41,3,-5,-6,-9,10,8,-11
1532299300033,60,7,1,2,2,5,-22,3
1532299300038,14,3,0,1,0,-3,-40,16
1532299300043,-13,-9,-4,-3,-6,-15,5,-2
1532299300048,3,5,3,1,-2,-2,14,3
1532299300053,-26,5,-2,-1,2,11,5,-12
1532299300058,-13,0,-1,-1,-1,10,-9,3
1532299300063,38,-8,-3,0,0,-7,19,-13
1532299300068,-2,-3,-2,0,-3,0,-7,-2
1532299300073,-9,-12,-1,-3,-7,-15,-12,15
1532299300078,-27,1,0,3,5,11,16,13
1532299300083,-45,-16,-2,-3,-1,-3,6,-10
1532299300088,25,-8,1,4,0,-4,-2,5
1532299300093,-16,1,-4,-2,-2,-12,14,-3
1532299300098,3,0,-3,-3,-6,17,-20,-5
1532299300103,7,-1,-1,0,-1,-10,22,1
1532299300108,-33,4,2,1,3,-24,-34,0
1532299300113,19,-27,1,5,10,35,3,4
1532299300118,2,2,-9,-4,2,3,16,12
1532299300123,15,0,-2,-6,-5,-11,-23,9
1532299300128,13,5,10,5,0,9,-10,-1
1532299300133,-11,6,3,0,0,46,43,8
1532299300138,24,1,3,1,1,0,-26,3
1532299300143,13,5,-2,2,6,-26,33,18
1532299300148,-36,-5,-2,-5,-4,16,5,-6
1532299300153,48,9,-4,-4,-5,-21,-12,-2
1532299300158,-45,-8,-5,-3,-6,14,20,-9
1532299300163,3,2,-1,-5,-10,-43,-23,-9
1532299300168,-7,-4,-16,-3,0,-21,12,-17
1532299300173,-11,-5,-4,-5,5,6,21,-45
1532299300178,-6,-2,7,-1,-3,-52,-19,42
1532299300183,43,16,24,16,13,25,1,10
1532299300188,16,1,-2,-4,-4,-23,-13,16
1532299300193,-6,-2,-10,-7,-7,-4,8,-16
1532299300198,-11,-8,-9,-2,-8,-11,-3,-31
1532299300203,-4,2,-4,-5,-1,-9,-21,20
1532299300208,15,-4,-20,2,2,38,-11,2
1532299300213,-2,7,13,-2,-2,-11,-16,-6
1532299300218,4,-8,0,-3,-2,-6,13,-5
1532299300223,-17,-1,-1,-2,-2,1,-29,2
1532299300228,26,8,-3,-5,-8,0,36,-10
1532299300233,-82,-14,17,10,12,38,23,22
1532299300238,15,36,-7,-2,-4,-15,-13,-9
1532299300243,-10,-25,-42,-17,0,17,8,-19
1532299300248,-23,-7,-9,-5,-3,-5,-31,0
1532299300253,22,0,-14,-4,-8,-50,37,19
1532299300258,11,-1,21,6,6,33,-65,-26
1532299300263,29,2,7,5,1,8,86,8
1532299300268,-6,3,0,0,-4,-8,-20,0
1532299300273,-12,-6,4,-1,-5,-13,17,-5
1532299300278,7,2,2,3,6,25,8,29
1532299300283,-9,-12,-5,0,-7,-7,-19,-27
1532299300288,-28,-22,10,-2,5,12,10,-26
1532299300293,4,0,-9,1,-3,-40,-46,-65
1532299300298,30,6,-6,-2,7,11,22,58
1532299300303,-8,8,5,-5,-19,6,-20,5
1532299300308,10,-3,10,3,-3,-29,-28,-9
1532299300313,-7,-4,-10,-2,-5,20,-32,-17
1532299300318,-22,-14,-13,4,40,-68,10,-40
1532299300323,-13,1,8,-8,-46,23,25,6
1532299300328,5,3,-1,-3,8,39,-19,-20
1532299300333,-5,-2,-3,-2,2,2,23,39
1532299300338,35,3,6,7,26,-35,31,-9
1532299300343,-22,-8,-5,-7,-6,50,-35,-22
1532299300348,20,1,2,0,-11,-18,20,15
1532299300353,21,16,18,6,0,6,-17,15
1532299300358,-33,-13,-10,-2,-5,9,1,-19
1532299300363,-5,11,9,8,18,-12,-18,-12
1532299300368,31,9,0,-1,0,1,-1,25
1532299300373,-4,-5,-3,0,4,13,3,18
1532299300378,6,-1,2,-6,-29,-20,-3,-21
1532299300383,-15,-7,-7,-3,5,5,5,-11
1532299300388,-18,-11,-9,-9,-2,14,7,-10
1532299300393,-2,-3,-3,6,1,-34,-14,7
1532299300398,26,16,11,-6,-22,-36,9,11
1532299300403,3,1,-7,-7,-11,-15,14,16
1532299300408,7,0,8,4,18,59,3,23
1532299300413,-9,-6,-7,-3,19,-19,-20,-28
1532299300418,-7,-2,-4,1,-1,-2,10,-6
1532299300423,12,7,9,4,1,31,15,11
1532299300428,12,1,7,10,18,-32,-3,-2
1532299300433,-11,-3,-3,-4,7,42,-3,-3
1532299300438,-11,-2,-2,-9,-52,-55,-6,-6
1532299300443,-1,-2,0,-1,9,-1,3,-6
1532299300448,-7,-6,-8,-5,-13,2,2,-2
1532299300453,4,5,7,12,15,8,-46,20
1532299300458,0,-4,-4,-3,0,24,69,11
1532299300463,1,-5,-1,8,40,-23,-27,-5
1532299300468,5,4,-2,3,13,5,41,17
1532299300473,5,3,-6,-25,-76,-31,-15,9
1532299300478,-6,-4,-5,-3,19,46,-44,-12
1532299300483,-1,2,4,4,-4,3,-18,12
1532299300488,2,4,8,13,33,-31,-26,2
1532299300493,4,3,4,9,8,6,24,1
1532299300498,-6,-2,1,-1,-2,25,-16,13
1532299300503,-5,-5,-7,-6,4,14,6,1
1532299300508,-1,-5,-2,-9,-23,3,6,-2
1532299300513,0,2,-1,-7,-5,-63,-30,9
1532299300518,-5,-5,-1,-2,-2,75,18,-5
1532299300523,1,2,3,8,11,6,-11,-13
1532299300528,0,4,1,-8,-29,16,32,8
1532299300533,0,2,1,0,4,-85,-66,-4
1532299300538,-2,1,4,11,32,20,-18,-3
1532299300543,4,-3,0,-1,-28,-32,-18,0
1532299300548,-11,-9,-11,-10,-2,0,4,-14
1532299300553,-25,-15,-17,-19,-29,79,60,-14
1532299300558,-1,-37,-35,-8,-11,-19,-9,12
1532299300563,33,27,14,8,15,24,33,33
1532299300568,11,48,34,13,18,-28,-29,-9
1532299300573,11,23,29,9,-19,-17,-7,-16
1532299300578,-17,3,3,2,10,11,6,-13
1532299300583,-10,-27,-14,-5,9,-10,-1,15
1532299300588,7,-20,-24,-5,5,-16,-10,25
1532299300593,-8,-2,-9,4,32,-21,12,-17
1532299300598,2,3,-2,-6,-61,-20,11,27
1532299300603,-13,-8,-7,11,31,24,11,-10
1532299300608,1,-3,6,7,9,53,11,9
1532299300613,3,-5,-2,0,20,-21,18,-1
1532299300618,5,7,6,2,-38,-58,2,10
1532299300623,-18,-6,-5,4,41,-39,0,-11
1532299300628,13,-7,-10,-18,-64,29,3,-3
1532299300633,-5,-2,-6,-14,-10,-9,8,8
1532299300638,-5,-1,0,-4,14,-11,-9,-17
1532299300643,7,3,-3,-6,-34,-8,8,3
1532299300648,-9,-2,6,12,7,-23,-6,0
1532299300653,1,-2,2,8,43,31,10,3
1532299300658,0,0,5,7,36,30,-6,-8
1532299300663,-2,1,-1,-14,-52,-24,11,-1
1532299300668,-8,-3,-2,4,28,29,-4,-3
1532299300673,1,-2,0,0,-38,-12,-2,-1
1532299300678,-1,0,2,3,6,2,-9,-3
1532299300683,2,4,5,3,48,3,-12,1
1532299300688,-8,-2,-3,-7,2,-36,8,-1
1532299300693,-5,-4,-4,-3,-8,48,1,-1
1532299300698,0,0,2,6,55,-3,-24,-6
1532299300703,4,-2,-3,9,-16,11,5,-6
1532299300708,-8,-6,19,-12,-25,-3,-17,-10
1532299300713,4,5,0,-1,34,21,54,13
1532299300718,9,12,59,23,-7,21,2,17
1532299300723,-2,-15,-82,-27,-16,-46,-43,-13
1532299300728,-6,11,1,4,-10,1,-1,-1
1532299300733,-6,-2,4,3,-9,-4,-20,-10
1532299300738,-5,-3,-12,-6,-2,-19,6,1
1532299300743,3,11,19,5,-8,19,20,4
1532299300748,-2,-8,7,5,16,19,-10,2
1532299300753,0,-7,-9,-6,-29,-44,-7,5
1532299300758,-1,5,-1,-4,3,-46,-33,-4
1532299300763,2,-4,17,6,-18,47,43,9
1532299300768,-2,-5,-23,-6,21,-1,-1,-1
1532299300773,0,1,14,6,-12,-1,-15,-5
1532299300778,1,-3,-11,-12,-23,-3,13,-2
1532299300783,5,-6,18,1,2,-31,-24,-6
1532299300788,-22,1,2,9,6,35,24,3
1532299300793,3,-7,16,8,14,3,-8,0
1532299300798,1,4,-30,-11,-29,-25,4,3
1532299300803,-8,4,-17,2,11,41,-8,-10
1532299300808,28,5,-5,-9,-9,-18,-13,5
1532299300813,-3,-3,-7,-1,8,-4,-17,0
1532299300818,-7,-11,-25,2,3,-32,-6,-2
1532299300823,3,1,-4,1,0,-8,33,6
1532299300828,-5,-2,12,-8,3,-2,11,0
1532299300833,1,2,1,-7,-17,-38,-14,1
1532299300838,-1,-2,13,1,-11,61,2,-7
1532299300843,0,5,2,4,6,55,59,2
1532299300848,-6,-9,-9,9,19,-19,-5,1
1532299300853,1,-2,-10,-8,-9,-13,26,14
1532299300858,-2,-2,6,0,-6,-6,12,11
1532299300863,-8,-3,13,0,5,-1,-29,-10
1532299300868,8,5,4,5,-25,-25,20,30
1532299300873,-1,0,-9,-6,15,77,36,13
1532299300878,-4,-2,-1,1,-4,16,-2,-4
1532299300883,-6,0,8,0,-6,-47,-36,-19
1532299300888,0,-7,-11,-2,0,-20,-34,1
1532299300893,14,9,3,3,3,18,1,1
1532299300898,10,-7,-4,-7,-5,-3,-10,0
1532299300903,-13,-6,3,-5,-5,-9,5,-3
1532299300908,-7,-10,2,4,-6,-38,-53,-31
1532299300913,-1,7,-3,1,21,13,-2,-12
1532299300918,1,-9,-6,-9,-9,24,-3,-16
1532299300923,11,12,-4,1,-7,-14,-35,-10
1532299300928,-2,-10,2,1,-1,17,10,-12
1532299300933,1,-3,1,-2,7,-13,-21,-10
1532299300938,-16,7,-18,-3,-17,3,-6,0
1532299300943,34,0,28,0,9,-26,-1,6
1532299300948,4,4,-18,-4,-16,17,28,0
1532299300953,-5,-3,-1,3,1,-17,-20,-18
1532299300958,-14,-3,0,-4,5,-2,8,3
1532299300963,-11,-1,2,5,-9,-30,1,2
1532299300968,4,1,-1,-4,12,31,19,9
1532299300973,-16,-6,0,-1,-8,16,4,-8
1532299300978,13,2,6,6,17,21,10,4
1532299300983,-26,3,-1,-1,-17,-21,-15,7
1532299300988,-18,-5,-3,-11,9,-47,-28,-23
1532299300993,12,8,-11,-7,-30,-4,51,0
1532299300998,9,5,6,5,16,27,27,18
1532299301003,7,3,0,6,7,11,0,9
1532299301008,8,-5,-3,0,9,-4,-3,8
1532299301013,-20,-12,-2,-4,-1,55,-38,-3
1532299301018,-14,-1,3,-2,-10,-17,-2,-3
1532299301023,0,-1,-6,-9,5,-7,-7,25
1532299301028,26,26,3,9,1,50,5,-4
1532299301033,-54,-27,-5,-3,-3,-55,-106,-31
1532299301038,36,14,4,4,7,37,100,31
1532299301043,-9,-8,-2,1,-1,-3,-40,-4
1532299301048,-21,-17,-3,-5,-13,-20,-10,1
1532299301053,16,14,2,4,12,12,-10,8
1532299301058,-17,3,1,-1,-2,-4,-124,-31
1532299301063,-8,-1,2,2,4,-18,100,5
1532299301068,2,0,0,2,6,4,-5,7
1532299301073,2,-1,-2,-2,-17,-43,-16,-7
1532299301078,-15,-11,-1,-5,1,50,22,-12
1532299301083,23,2,-5,-8,9,43,41,10
1532299301088,-4,8,2,-2,-2,-3,4,-8
1532299301093,5,5,1,5,-1,24,2,-6
1532299301098,-23,0,-2,3,-3,-39,2,7
1532299301103,19,-18,-1,-2,8,-32,-55,-12
1532299301108,-10,5,-5,-15,-2,17,-10,-3
1532299301113,21,24,8,8,0,24,50,2
1532299301118,-32,-25,-14,-10,-9,-42,-53,-3
1532299301123,3,-16,3,8,-1,17,48,-2
1532299301128,-25,6,-2,5,6,-22,16,10
1532299301133,37,-2,-4,4,5,7,-26,-10
1532299301138,-5,7,4,-1,-11,29,3,12
1532299301143,4,11,-2,-2,-1,-68,-23,1
1532299301148,24,-2,-1,0,-1,29,7,5
1532299301153,-9,-2,1,-2,-1,-50,-2,8
1532299301158,6,-3,-2,1,3,19,45,-28
1532299301163,2,-2,-6,-7,-11,30,-33,20
1532299301168,12,9,8,9,9,-37,10,20
1532299301173,-20,-13,-8,-4,-3,-3,14,-13
1532299301178,16,-9,1,3,2,-39,-34,-22
1532299301183,-1,12,1,-1,2,21,9,-19
1532299301188,-5,-7,-1,-4,-17,27,-33,-8
1532299301193,2,-1,1,2,18,-1,23,23
1532299301198,-1,3,1,-5,8,-41,-5,-14
1532299301203,-18,-5,-7,-4,-43,31,-6,-8
1532299301208,-4,-8,-6,-4,-4,24,34,-6
1532299301213,-7,-16,-4,-3,-9,-39,-56,9
1532299301218,32,18,10,5,8,-58,91,35
1532299301223,-11,8,0,1,31,83,-20,6
1532299301228,-14,-8,0,2,-8,-29,-14,-7
1532299301233,5,-7,-5,1,-13,19,-10,-23
1532299301238,-7,20,41,-4,-12,-31,-52,-21
1532299301243,0,-13,-23,-5,5,-32,8,14
1532299301248,-14,2,-6,-5,0,10,20,-24
1532299301253,-46,-11,-7,-4,0,-26,7,-69
1532299301258,39,-7,-7,2,-6,4,-39,47
1532299301263,22,18,17,0,-6,-11,16,18
1532299301268,31,5,9,4,8,-11,-23,7
1532299301273,7,7,-2,0,-1,12,-6,39
1532299301278,-29,-14,-10,-1,-3,4,-31,-46
1532299301283,-27,-13,-2,-5,-13,-4,5,-43
1532299301288,-6,-7,-9,-3,-2,8,28,15
1532299301293,3,4,5,0,-4,-15,-33,9
1532299301298,10,-2,-5,11,20,92,11,33
1532299301303,1,0,-4,-5,14,-5,-10,-7
1532299301308,-5,2,2,-4,12,-34,-1,-8
1532299301313,-6,-1,-2,-5,-25,-1,47,-1
1532299301318,-3,-11,-14,-13,-26,10,33,-13
1532299301323,13,1,5,9,14,11,-9,43
1532299301328,-5,-1,4,3,-22,-22,-25,-20
1532299301333,6,-2,-2,-5,18,10,26,1
1532299301338,-3,0,-6,3,7,-7,33,4
1532299301343,2,1,3,-1,-7,-6,-10,-15
1532299301348,2,-3,-3,0,10,-2,2,11
1532299301353,6,2,-1,1,-4,-7,-18,23
1532299301358,-13,0,-2,-1,-1,0,3,-14
1532299301363,-4,-5,-3,-5,-6,-24,-30,-11
1532299301368,1,0,0,-2,-6,3,-48,-5
1532299301373,-12,0,2,3,7,23,31,10
1532299301378,-4,-14,-8,-3,-3,24,15,-32
1532299301383,18,7,6,2,1,-23,-37,67
1532299301388,39,8,4,5,8,-12,-22,-3
1532299301393,12,3,10,6,6,1,10,16
1532299301398,-9,-1,-13,-11,1,-1,1,-6
1532299301403,-23,-10,-14,-3,-12,-11,-40,-47
1532299301408,-10,-6,0,-1,-13,-7,4,-5
1532299301413,-14,-4,-22,-10,8,8,2,8
1532299301418,13,2,7,9,7,-5,-28,2
1532299301423,5,6,2,-4,-7,4,18,-15
1532299301428,-15,-4,-5,-2,-2,17,8,7
1532299301433,2,-5,3,0,-6,-23,-5,-21
1532299301438,7,3,2,3,-2,0,-34,41
1532299301443,-7,-2,-2,4,9,8,27,-15
1532299301448,-10,-1,1,4,8,16,14,9
1532299301453,10,1,-1,-4,-4,-4,-6,-8
1532299301458,5,3,0,0,-3,-1,3,6
1532299301463,-6,-2,4,1,-1,-13,-34,-12
1532299301468,-9,-7,-1,-1,-1,16,-44,-8
1532299301473,-1,1,1,-1,-2,6,29,-11
1532299301478,3,2,-1,-1,-1,-25,-4,-3
1532299301483,-3,-1,2,-1,-4,0,10,-7
1532299301488,-11,-5,-6,-6,-6,-1,28,-8
1532299301493,8,2,-2,2,7,21,23,11
1532299301498,-12,-5,0,0,-4,-3,-14,-9
1532299301503,11,5,4,3,4,-7,-1,33
1532299301508,17,3,-1,-2,-1,1,21,33
1532299301513,1,-1,3,0,-5,-10,-23,-3
1532299301518,-8,-3,-4,-3,-3,1,36,-20
1532299301523,-20,-15,-10,-8,-14,-3,-21,-34
1532299301528,-22,6,5,4,8,15,66,29
1532299301533,1,2,3,2,2,-1,3,-5
1532299301538,-1,0,-2,-1,2,-3,-34,-1
1532299301543,4,0,-1,0,1,-18,6,4
1532299301548,-7,-9,-7,-5,-18,26,-9,-13
1532299301553,-1,1,2,3,4,-30,-28,-5
1532299301558,-3,0,0,-3,-3,2,15,-11
1532299301563,-9,-1,-1,-1,-1,-6,7,-9
1532299301568,-7,0,1,3,15,0,69,-1
1532299301573,-16,-5,-1,2,4,-4,-24,-26
1532299301578,-9,-6,-2,1,4,2,52,-13
1532299301583,21,-1,-1,-1,4,8,-15,40
1532299301588,-11,5,4,2,1,7,-15,0
1532299301593,5,1,0,-3,-13,-11,18,-2
1532299301598,-10,1,-1,2,2,13,-9,-11
1532299301603,11,-6,-3,-4,4,4,-9,5
1532299301608,5,2,2,2,1,20,10,47
1532299301613,-1,1,-1,2,7,52,19,-9
1532299301618,-2,-1,-2,-1,0,-28,-34,-11
1532299301623,-14,-1,-2,-1,-17,-15,-28,-15
1532299301628,7,-4,-2,-3,12,-43,-34,-6
1532299301633,-4,0,2,1,-11,-22,28,-1
1532299301638,-2,-5,-4,-2,10,50,14,-5
1532299301643,-5,-1,-4,-1,-2,-11,-7,11
1532299301648,-1,-3,0,-3,-8,6,-21,-40
1532299301653,4,0,-5,-7,-4,-5,-2,32
1532299301658,-1,-1,0,0,-11,-20,-20,-17
1532299301663,10,3,4,4,14,21,47,10
1532299301668,-5,-3,-2,-1,-4,-7,-63,-15
1532299301673,0,0,2,4,14,18,41,2
1532299301678,-2,-1,-1,1,5,-19,13,-4
1532299301683,-8,-4,-3,-5,-11,-9,-7,-30
1532299301688,14,5,1,4,5,-5,26,26
1532299301693,-1,2,2,1,0,-3,-8,22
1532299301698,0,-1,0,3,28,11,-5,-4
1532299301703,-3,-6,-4,-10,-40,-78,-18,-33
1532299301708,-17,1,-4,2,10,61,44,29
1532299301713,17,3,0,1,7,-39,-27,0
1532299301718,2,0,-1,-9,-16,45,-9,-2
1532299301723,-3,0,1,1,5,4,-4,14
1532299301728,-7,-5,-2,-1,-7,-14,-3,-18
1532299301733,-6,-3,-2,0,0,-2,-7,-8
1532299301738,0,0,-1,-2,-7,-26,0,1
1532299301743,0,1,0,2,-3,24,8,6
1532299301748,8,-2,-1,-3,-6,-17,24,8
1532299301753,-15,-6,-5,-5,-2,22,16,-16
1532299301758,14,0,-2,-6,-15,-23,-11,-1
1532299301763,11,5,5,6,25,27,13,16
1532299301768,2,1,-2,-1,-7,-15,-38,5
1532299301773,2,-2,0,-4,-11,-7,-8,4
1532299301778,-11,-5,-3,-2,-10,-10,-42,-11
1532299301783,-1,-1,-1,0,14,14,74,3
1532299301788,-4,-3,-2,-6,-7,11,35,-3
1532299301793,0,0,0,4,9,3,-45,-12
1532299301798,2,1,-1,-1,-10,-27,4,15
1532299301803,-2,0,0,5,13,36,-3,-5
1532299301808,1,-2,-3,-3,-5,-2,-9,-14
1532299301813,-39,-4,-2,-3,0,9,9,-32
1532299301818,22,-2,0,0,2,-5,-1,5
1532299301823,28,12,7,5,8,-3,-15,33
1532299301828,1,-1,-2,-7,-24,-41,7,-2
1532299301833,3,-1,-3,-1,5,56,17,2
1532299301838,-16,-2,1,0,-2,-10,16,-17
1532299301843,-18,-7,-6,-5,-4,-3,-21,-20
1532299301848,6,0,0,0,-1,-13,-12,5
1532299301853,-2,0,1,1,-1,-11,-15,-11
1532299301858,1,-3,-3,-4,-4,5,-5,27
1532299301863,-1,-4,-7,-3,-1,-8,2,-2
1532299301868,-2,0,0,-2,1,5,-3,-5
1532299301873,0,-1,4,4,-5,-17,-34,-14
1532299301878,1,-1,1,2,-1,5,-2,-6
1532299301883,-12,-4,-1,-2,-8,-15,-4,20
1532299301888,7,-2,-2,-3,6,26,37,-15
1532299301893,18,4,-1,0,0,2,62,25
1532299301898,1,2,0,2,3,0,22,-5
1532299301903,-10,-4,-4,-1,0,2,2,-13
1532299301908,-10,-4,-3,-1,-7,-5,-26,-12
1532299301913,4,0,4,6,1,-17,-3,2
1532299301918,1,2,0,3,3,8,-8,9
1532299301923,-3,-4,-12,-6,-12,-11,-5,-5
1532299301928,2,1,23,-6,-1,12,7,0
1532299301933,-7,-3,-28,-3,-9,-6,-14,-7
1532299301938,3,0,-8,-8,1,-5,0,4
1532299301943,6,2,4,8,9,10,-15,12
1532299301948,4,0,1,4,4,3,-4,0
1532299301953,1,3,11,1,2,-7,-9,0
1532299301958,-9,-7,0,2,-7,-3,-25,-3
1532299301963,-1,1,1,-3,6,13,-36,-2
1532299301968,-1,-17,3,14,4,-4,-44,8
1532299301973,2,8,21,-7,5,0,-37,-2
1532299301978,-6,2,3,13,0,2,-9,6
1532299301983,8,-7,27,9,12,-1,10,3
1532299301988,0,7,-31,-23,-14,-10,9,1
1532299301993,-4,-8,-17,-10,-15,-8,3,-9
1532299301998,25,-2,7,-6,-8,-6,6,4
1532299302003,-25,8,4,3,-3,6,16,-5
1532299302008,10,13,16,6,13,7,7,0
1532299302013,6,-3,-8,2,14,1,20,4
1532299302018,-2,-11,-50,-14,-8,-4,10,1
1532299302023,-6,-2,4,10,3,-2,0,-7
1532299302028,3,-5,-10,-6,8,-3,13,-3
1532299302033,-7,4,19,1,-11,-3,3,-2
1532299302038,5,18,21,21,17,5,12,0
1532299302043,-1,-8,-16,-7,5,1,5,-10
1532299302048,-5,2,-2,-12,-12,-7,4,-2
1532299302053,8,-13,18,-11,-38,-3,-4,1
1532299302058,-16,4,-3,-8,7,-15,1,-3
1532299302063,1,-34,41,2,-10,8,8,3
1532299302068,-39,42,-27,13,14,3,-3,5
1532299302073,3,6,4,4,12,6,-4,-4
1532299302078,-1,0,0,4,-7,2,2,3
1532299302083,6,4,3,-5,7,-11,-7,-3
1532299302088,7,-16,2,10,6,1,-1,4
1532299302093,-4,-3,-7,-5,-11,1,-4,1
1532299302098,-6,0,9,-2,-2,2,6,0
1532299302103,2,2,-20,-2,5,-3,-6,2
1532299302108,3,-11,4,3,-6,2,-24,1
1532299302113,-4,0,-16,1,15,2,-15,-1
1532299302118,0,-5,8,-7,-9,-3,-31,2
1532299302123,1,9,-6,-1,-7,-2,-7,-3
1532299302128,4,-4,0,0,0,-14,-3,-6
1532299302133,-6,-3,10,0,8,6,12,3
1532299302138,-1,-1,-17,-7,-12,11,29,6
1532299302143,5,6,-8,-4,3,3,3,17
1532299302148,-12,-5,2,-5,-21,-10,11,21
1532299302153,-2,-8,-8,7,2,-10,22,5
1532299302158,-3,3,7,6,41,14,21,2
1532299302163,-1,0,-30,-7,-16,-10,-1,-18
1532299302168,8,-7,28,-9,-26,-8,1,-20
1532299302173,-1,4,-1,0,2,25,10,-13
1532299302178,-4,-4,2,-3,-15,-8,3,-14
1532299302183,0,2,2,6,16,12,5,-9
1532299302188,4,-5,1,3,9,3,-9,-6
1532299302193,-2,-3,7,-2,-9,-7,-15,-5
1532299302198,-1,-1,-19,-1,0,-9,-10,-5
1532299302203,-4,-1,-5,-6,9,4,-9,-1
1532299302208,0,-3,-7,-8,-29,0,-4,-2
1532299302213,0,-1,4,-1,0,-11,-6,-2
1532299302218,1,-3,21,10,4,4,-9,-5
1532299302223,-2,1,-11,-12,-13,-8,-24,-2
1532299302228,-9,-5,-7,0,-2,-15,-20,-12
1532299302233,11,2,-3,11,19,2,-15,27
1532299302238,5,5,1,-6,4,8,10,3
1532299302243,-2,-6,1,-3,-32,-1,24,0
1532299302248,1,3,11,7,20,0,10,-4
1532299302253,-12,-5,-14,-6,-6,-12,-41,-28
1532299302258,-5,-5,0,0,-6,-5,-43,3
1532299302263,1,3,1,-7,6,-3,-15,3
1532299302268,2,-3,-8,3,9,6,11,-2
1532299302273,0,2,-3,-1,-3,-20,22,3
1532299302278,2,-1,0,1,-3,29,19,1
1532299302283,-3,-1,-2,-2,-5,3,10,-5
1532299302288,-1,-7,-12,-16,12,2,19,4
1532299302293,4,5,-1,1,-21,-9,3,-1
1532299302298,-1,-2,0,-5,-1,-12,-3,-4
1532299302303,0,1,4,5,2,1,3,0
1532299302308,3,0,-2,2,9,7,-3,-2
1532299302313,0,-1,-3,-2,6,-4,-2,-4
1532299302318,-4,-6,-4,-1,1,-4,7,-6
1532299302323,1,1,0,-2,-19,-25,6,-1
1532299302328,5,3,2,6,5,12,6,20
1532299302333,-4,-9,-9,-1,4,5,6,-4
1532299302338,1,8,9,0,-14,-28,-2,3
1532299302343,0,-1,-4,4,6,17,8,4
1532299302348,1,1,0,-5,3,-18,-2,-1
1532299302353,-2,-4,-6,-12,-27,6,4,2
1532299302358,-2,-2,1,0,3,-3,-4,-2
1532299302363,-2,0,-3,-8,-3,2,-2,-9
1532299302368,0,-3,-1,3,-6,0,8,-4
1532299302373,-4,-2,4,9,13,8,1,-13
1532299302378,0,0,-2,-3,-5,-38,-8,-3
1532299302383,0,0,-7,-5,9,54,8,-11
1532299302388,10,3,4,5,16,20,10,15
1532299302393,-5,3,-1,-2,-14,27,3,-7
1532299302398,-8,-8,-3,-1,-4,-14,-15,-11
1532299302403,8,5,12,15,-1,-8,-16,9
1532299302408,-5,-5,-8,-12,16,29,14,-18
1532299302413,2,1,-3,-9,-13,-6,-10,3
1532299302418,-2,-1,3,5,-8,10,-3,-5
1532299302423,-2,-1,0,3,13,-25,7,5
1532299302428,-3,-1,-2,9,-6,10,-13,-6
1532299302433,-4,-3,-3,0,24,-3,10,-4
1532299302438,4,-1,-6,-12,-1,29,14,30
1532299302443,-7,0,5,-1,-29,-58,-44,-43
1532299302448,7,2,1,-4,-29,12,-9,8
1532299302453,3,2,1,7,46,-20,4,-5
1532299302458,-6,-3,-3,-7,-56,40,-8,-19
1532299302463,-4,-3,-4,2,21,12,32,5
1532299302468,2,3,2,1,-17,-8,-21,-23
1532299302473,-1,4,-1,-3,21,-15,-20,-20
1532299302478,-4,-7,1,-1,1,-4,27,-29
1532299302483,1,-2,1,2,4,19,7,12
1532299302488,-10,-12,-3,1,7,-16,-10,-28
1532299302493,1,0,1,1,-12,-6,-8,9
1532299302498,-2,1,-1,-1,10,-10,-14,14
1532299302503,-1,0,-4,-3,11,20,29,23
1532299302508,9,8,5,12,18,-43,-2,30
1532299302513,-13,-2,-11,-13,19,58,-7,24
1532299302518,-2,1,1,0,3,-6,-23,18
1532299302523,-1,-2,-8,-12,-8,-9,25,24
1532299302528,-4,-7,-3,3,15,18,-15,12
1532299302533,8,3,5,7,-7,1,11,18
1532299302538,-1,1,-4,-1,1,-14,-42,12
1532299302543,-2,-2,3,5,19,1,-14,21
1532299302548,10,17,3,-1,-17,-7,41,64
1532299302553,-20,-19,4,0,-22,-17,4,28
1532299302558,18,4,33,9,17,9,38,24
1532299302563,50,7,-30,-15,-18,-19,-74,11
1532299302568,-29,-5,-7,-5,-10,1,53,37
1532299302573,-3,-1,2,0,-13,-5,8,59
1532299302578,-21,45,13,4,11,-4,16,74
1532299302583,-3,35,20,3,-4,2,13,38
1532299302588,12,117,8,-4,-4,2,-39,34
1532299302593,15,123,17,-1,6,-5,-50,59
1532299302598,9,116,-14,6,2,6,41,81
1532299302603,3,-32,13,-3,-5,-1,-5,68
1532299302608,9,-119,-3,-2,5,-2,11,9
1532299302613,3,-128,12,6,7,-12,0,-46
1532299302618,5,-128,-4,-4,3,26,-11,-96
1532299302623,-20,-106,-4,-2,-18,8,6,-116
1532299302628,-12,-128,-5,-1,5,4,-22,-128
1532299302633,-5,-128,-16,-4,-6,-4,3,-113
1532299302638,-2,-99,-24,-7,12,-4,-12,-117
1532299302643,-10,-45,-16,1,2,-20,-5,-99
1532299302648,-14,-16,-13,-3,4,-10,-13,-62
1532299302653,0,20,-5,7,7,51,21,-85
1532299302658,-5,15,-24,-13,-18,-16,9,-23
1532299302663,-22,27,-5,-3,-19,-26,-7,-29
1532299302668,8,40,-14,-8,-13,1,-6,23
1532299302673,15,43,-4,2,11,-17,7,19
1532299302678,-18,96,8,6,0,-5,-1,-7
1532299302683,12,127,-1,-5,8,15,5,30
1532299302688,8,61,5,-1,1,-11,-9,1
1532299302693,28,-31,1,-6,-20,8,4,20
1532299302698,22,-99,2,-6,-21,-19,-10,-1
1532299302703,15,-103,9,7,18,-6,-9,22
1532299302708,6,-45,7,1,1,14,-19,14
1532299302713,5,1,0,-2,-6,-1,3,22
1532299302718,8,17,6,4,15,0,0,-23
1532299302723,0,12,6,2,1,7,15,-97
1532299302728,-8,6,4,-2,-5,8,-8,-84
1532299302733,-23,6,0,0,6,5,9,-59
1532299302738,-16,0,-2,2,0,-9,15,-9
1532299302743,-19,-8,0,1,-1,-2,-4,12
1532299302748,-9,2,-2,-2,-8,6,33,29
1532299302753,-18,-9,-3,-3,-7,-21,-9,8
1532299302758,-13,-10,-1,-2,-2,2,-4,35
1532299302763,-10,4,-1,0,-5,0,1,58
1532299302768,-8,-4,0,1,1,-3,-1,45
1532299302773,-8,-9,-6,-2,-4,-3,8,52
1532299302778,-5,-5,-3,-2,-7,0,-32,34
1532299302783,-2,3,1,6,12,7,35,36
1532299302788,-2,-5,-2,-3,-5,-7,19,13
1532299302793,0,-7,-1,-1,-4,-5,12,24
1532299302798,2,2,0,0,2,15,14,8
1532299302803,1,-2,-1,-1,-5,-7,-13,12
1532299302808,2,-5,2,0,-6,-32,-25,6
1532299302813,2,3,1,2,6,50,48,3
1532299302818,14,-1,0,-3,1,-12,8,-4
1532299302823,-26,-8,-1,-5,-7,-31,-35,-15
1532299302828,7,2,2,1,7,22,-6,19
1532299302833,-5,-3,-1,-2,-4,-24,-43,-7
1532299302838,6,0,-2,-1,-3,31,67,-6
1532299302843,0,0,-3,-4,-6,30,-2,-3
1532299302848,-15,-23,-4,-1,0,-43,26,15
1532299302853,10,12,6,9,13,-5,-25,19
1532299302858,-4,-12,-4,-3,-2,-9,-30,10
1532299302863,-7,2,0,-1,-4,-12,14,10
1532299302868,-17,-14,-5,-4,-1,36,16,-44
1532299302873,10,27,2,-3,-1,-6,7,0
1532299302878,-18,1,1,-1,-2,3,-7,-20
1532299302883,15,9,-2,-4,-6,-22,-58,-1
1532299302888,7,7,3,3,3,-16,60,6
1532299302893,-20,-16,-3,-4,-6,2,26,-14
1532299302898,-15,-11,-5,-5,-3,-16,3,-22
1532299302903,-13,2,2,4,4,-11,-21,-19
1532299302908,-1,6,-3,-6,-8,-2,6,11
1532299302913,34,-8,-5,-2,-4,-8,-30,6
1532299302918,-42,-19,-3,0,-2,29,-1,-11
1532299302923,5,-4,-2,-1,4,8,7,23
1532299302928,-8,7,1,3,4,15,10,6
1532299302933,-7,-4,-2,-3,-8,-18,0,-10
1532299302938,-20,-6,0,1,2,-3,-15,8
1532299302943,41,5,-2,-2,1,-8,17,14
1532299302948,11,4,-1,-5,-2,-6,-43,-3
1532299302953,2,-1,2,-3,-2,8,12,-9
1532299302958,-5,-1,10,1,2,-7,-3,-13
1532299302963,-2,5,5,-4,-3,36,0,-8
1532299302968,14,16,13,1,-1,-39,-104,-14
1532299302973,-17,-16,1,-8,-10,-28,64,-4
1532299302978,30,9,4,8,6,-16,-36,22
1532299302983,5,3,-14,1,11,-28,-39,36
1532299302988,2,-8,-23,-1,-3,41,12,34
1532299302993,-15,-3,-21,-2,-3,-61,-34,-19
1532299302998,9,13,-17,-3,-4,24,26,-6
1532299303003,2,-7,-6,-2,-3,67,77,16
1532299303008,-7,-2,1,2,1,-13,-9,-15
1532299303013,1,2,7,17,5,-26,-30,-10
1532299303018,11,4,-1,-8,-8,1,-26,-13
1532299303023,-19,-8,6,-1,2,-7,-6,-30
1532299303028,31,3,7,-1,2,17,43,7
1532299303033,-8,3,5,-2,1,23,3,-5
1532299303038,14,4,4,1,0,-14,15,1
1532299303043,-27,-30,2,0,-7,-26,-7,-23
1532299303048,-4,21,2,3,-9,-41,-19,-53
1532299303053,13,-11,-11,-10,-1,35,-25,18
1532299303058,4,14,-15,-2,0,3,49,10
1532299303063,-5,-8,-20,0,3,-12,-11,-2
1532299303068,-6,-4,-7,3,-5,2,-15,-21
1532299303073,3,2,4,7,7,2,7,-2
1532299303078,2,-3,3,0,4,34,-5,8
1532299303083,0,9,15,-5,-3,-6,12,-4
1532299303088,14,-3,11,-23,3,34,10,30
1532299303093,-15,-4,9,-22,-10,-16,-53,-20
1532299303098,-2,-1,13,-9,-4,-19,-31,9
1532299303103,17,5,5,3,4,14,-4,10
1532299303108,1,2,10,45,38,49,79,84
1532299303113,-16,-26,-10,4,-20,-43,-38,-9
1532299303118,-4,-2,-7,-6,-9,-19,28,-16
1532299303123,-17,9,1,15,10,11,47,11
1532299303128,14,-1,-7,-3,-7,-34,-10,-22
1532299303133,-9,2,1,1,4,4,20,-3
1532299303138,9,-1,0,-13,-5,1,-23,-11
1532299303143,-25,4,0,-5,1,-7,-51,-19
1532299303148,13,6,0,-5,3,3,-14,18
1532299303153,-18,-8,3,0,4,10,0,5
1532299303158,-6,-6,-1,-6,-9,-55,-1,-10
1532299303163,1,-4,-7,-16,-19,81,-21,9
1532299303168,2,-5,-2,2,5,-1,-11,-4
1532299303173,-5,9,24,5,6,11,10,5
1532299303178,-17,3,8,9,8,-3,-17,-22
1532299303183,-9,-1,1,0,-4,-26,-18,-38
1532299303188,41,7,2,7,13,30,25,97
1532299303193,-9,-8,-13,-8,1,-5,-13,-4
1532299303198,12,1,-4,-5,-10,6,-27,-49
1532299303203,-3,5,3,2,1,-13,-23,37
1532299303208,-30,-15,-9,-9,-15,-25,-31,-77
1532299303213,-21,5,-2,7,-3,-17,-6,-28
1532299303218,2,0,-7,-1,3,26,-19,3
1532299303223,3,1,-5,-3,3,-3,-49,21
1532299303228,12,1,5,1,2,-19,18,-1
1532299303233,28,0,-7,-8,-9,6,7,-5
1532299303238,-12,25,8,9,12,18,75,13
1532299303243,-35,-3,-4,-8,0,-13,-2,-7
1532299303248,-12,2,1,-1,0,-15,21,-12
1532299303253,20,-7,-1,-6,4,41,15,91
1532299303258,9,-2,-5,-4,-6,3,-2,7
1532299303263,28,12,5,5,16,20,15,43
1532299303268,-27,1,-12,0,2,5,-3,-23
1532299303273,-21,-25,-21,-12,-8,-8,0,-40
1532299303278,-3,3,13,3,-1,-39,-49,23
1532299303283,35,27,25,17,6,3,-17,-13
1532299303288,0,-4,-1,-7,-5,-15,-29,-6
1532299303293,-1,3,-2,-1,5,-3,-20,-1
1532299303298,-6,-43,-17,-10,-6,4,102,32
1532299303303,-10,29,-3,-9,-12,-50,-53,-31
1532299303308,31,20,1,-2,-5,28,26,-15
1532299303313,27,-22,-6,-9,-6,-45,-35,-10
1532299303318,-24,31,5,4,2,6,26,4
