1532066326846,-4,-1,2,6,3,2,-1,0
1532066326851,-4,-6,5,-5,-4,1,3,-1
1532066326856,0,-4,0,1,-1,-2,-2,-1
1532066326861,0,1,3,-8,-3,-2,1,-1
1532066326866,0,-5,-6,2,0,0,-2,0
1532066326871,1,6,2,9,2,1,-1,-1
1532066326876,-1,4,5,-6,-3,-2,-1,-1
1532066326881,0,-11,-4,-2,-4,-3,-2,-4
1532066326886,-2,-1,1,-1,-1,-2,-1,-1
1532066326891,-1,4,-1,1,-1,-1,0,1
1532066326896,0,-1,-4,-3,-2,-1,-2,-1
1532066326901,2,2,3,-2,0,2,0,1
1532066326906,-1,1,1,3,0,0,-1,-1
1532066326911,-3,-8,0,6,0,-1,1,-1
1532066326916,-1,-2,-1,-5,-2,0,-1,-1
1532066326921,-1,7,1,1,0,-1,-2,1
1532066326926,-4,-17,-7,4,-1,0,-2,-2
1532066326931,3,-1,1,-2,-3,0,-1,-2
1532066326936,-2,3,5,2,0,-1,-1,1
1532066326941,-2,-2,-6,1,2,-2,0,0
1532066326946,2,8,8,-1,-3,-1,-1,1
1532066326951,0,1,-3,-3,-1,-2,-3,-1
1532066326956,-2,-10,-3,0,-1,-1,-1,-1
1532066326961,0,1,1,2,-2,0,-2,1
1532066326966,4,8,-1,-2,2,-2,-1,-2
1532066326971,-4,-5,0,-4,-3,-1,2,-1
1532066326976,2,3,-2,-3,0,0,-1,1
1532066326981,-2,-1,-2,5,-2,-1,-2,-1
1532066326986,-3,-5,2,-5,-2,0,0,-1
1532066326991,1,2,1,-5,-1,-1,-2,1
1532066326996,1,5,3,6,4,-1,-1,0
1532066327001,2,-1,-2,0,-2,-1,-1,-1
1532066327006,1,9,5,-6,-1,0,-1,0
1532066327011,-2,-1,1,-3,-5,-1,0,-2
1532066327016,0,-2,-2,-7,-2,-1,-3,-1
1532066327021,-2,-4,1,-5,-4,-1,-1,-2
1532066327026,0,0,-4,5,2,-1,-1,1
1532066327031,-1,4,-2,1,0,0,-1,0
1532066327036,0,-6,-3,1,2,-3,0,-2
1532066327041,0,2,1,-7,0,1,-1,-1
1532066327046,-1,-5,-2,8,-4,-2,-1,-2
1532066327051,2,1,-4,-4,0,0,0,-1
1532066327056,-2,-6,-6,-1,-2,-4,-11,-1
1532066327061,-1,4,0,-3,1,-1,10,-1
1532066327066,-1,-2,-5,1,4,1,2,0
1532066327071,-2,-3,-5,6,-1,-2,-1,-1
1532066327076,4,6,-2,-2,-2,-1,0,0
1532066327081,-4,-2,1,-4,-1,-2,-6,0
1532066327086,0,-3,-2,1,-3,-2,-2,-1
1532066327091,-2,1,4,3,1,-1,0,-1
1532066327096,0,-3,-4,-8,0,1,0,0
1532066327101,1,1,0,6,-1,-1,-3,-2
1532066327106,-2,-7,-6,-5,-1,0,1,-1
1532066327111,-1,-3,1,1,-1,-1,1,-1
1532066327116,0,0,1,0,0,1,3,-1
1532066327121,-1,0,2,-2,0,-1,1,2
1532066327126,0,0,4,-6,-3,-1,-4,-3
1532066327131,-2,-1,-2,-2,-1,0,-3,-3
1532066327136,-2,-5,1,0,-1,0,2,0
1532066327141,-1,-1,-4,2,1,0,-4,-2
1532066327146,-1,2,1,0,-1,-1,0,-2
1532066327151,-2,-6,3,-5,-6,-4,-1,-1
1532066327156,0,3,2,1,3,-1,-5,1
1532066327161,-1,-1,0,-1,-1,0,6,0
1532066327166,-2,2,-3,-1,0,1,3,1
1532066327171,-1,0,3,0,2,-4,2,-2
1532066327176,-1,0,1,2,-2,1,-6,-1
1532066327181,0,-2,0,0,-5,-2,0,-1
1532066327186,0,-1,4,3,-1,-2,-3,-1
1532066327191,0,-2,-7,-3,0,0,-2,-3
1532066327196,-4,-5,-2,1,-2,0,11,-1
1532066327201,0,0,-2,5,2,2,-19,-3
1532066327206,-2,4,5,-7,-3,2,2,0
1532066327211,-2,-7,-1,2,-3,-2,-4,0
1532066327216,-2,0,1,0,0,-1,2,-2
1532066327221,-2,-1,0,-5,1,-1,4,0
1532066327226,1,-1,0,5,2,-1,-2,-1
1532066327231,-1,2,-2,-7,-6,-2,2,-1
1532066327236,-2,-2,-3,0,-1,0,3,-1
1532066327241,-4,-4,1,2,-2,-1,-5,-2
1532066327246,-2,-4,-2,-3,2,-1,-4,0
1532066327251,-1,3,2,-1,1,0,-4,0
1532066327256,0,2,3,-9,-2,-1,2,1
1532066327261,1,-2,-1,-4,-2,-1,1,0
1532066327266,-3,-3,0,5,0,-2,-2,-3
1532066327271,0,4,1,3,-2,3,2,1
1532066327276,0,1,6,4,-2,-3,-4,-1
1532066327281,-1,-3,-4,-11,-1,-1,1,-1
1532066327286,-1,0,4,4,0,1,-2,1
1532066327291,1,-1,-1,-10,1,-2,-4,2
1532066327296,-3,1,4,-2,0,-1,-3,0
1532066327301,0,0,3,2,4,1,-6,-1
1532066327306,-1,-5,-4,-3,-5,-3,6,-1
1532066327311,-1,0,4,8,-1,3,-3,0
1532066327316,-2,-5,-7,-2,-1,1,0,0
1532066327321,0,2,0,-3,-1,-3,-1,1
1532066327326,-2,1,-6,-2,0,-1,-4,0
1532066327331,1,-1,5,2,-1,-1,-3,-2
1532066327336,-1,-2,-3,-2,-3,-1,4,0
1532066327341,-3,-7,2,-5,-1,-2,-1,0
1532066327346,-3,-4,1,-7,-2,-1,3,-2
1532066327351,3,23,4,-4,-4,7,-6,-1
1532066327356,-9,-35,0,-14,-5,-12,-6,-5
1532066327361,1,0,4,4,1,0,4,-2
1532066327366,2,1,13,12,-1,2,4,1
1532066327371,-3,-5,-13,-8,0,-3,12,0
1532066327376,1,16,14,-3,-1,0,-17,-2
1532066327381,0,-2,-5,4,-3,-1,1,-1
1532066327386,-3,0,-5,13,-4,-2,-7,-3
1532066327391,0,0,4,-9,5,3,12,-3
1532066327396,0,-3,-9,-2,-1,-1,-7,1
1532066327401,-1,-6,4,-3,-2,-3,7,0
1532066327406,3,5,-2,-2,4,-2,-17,-2
1532066327411,-3,-9,-8,-1,0,1,24,2
1532066327416,0,-1,-9,5,-2,-2,4,-1
1532066327421,-3,-6,-11,-8,-4,0,-2,-2
1532066327426,1,2,-5,-5,-2,-1,-2,3
1532066327431,0,-1,6,-10,0,-4,-13,-3
1532066327436,0,3,0,17,-1,1,2,-2
1532066327441,1,7,-4,20,1,-2,-4,0
1532066327446,-2,-7,-11,-15,-4,4,3,2
1532066327451,-2,-5,0,12,2,-5,0,2
1532066327456,3,4,1,-23,-2,1,2,1
1532066327461,1,-1,1,2,-2,2,-21,-3
1532066327466,-1,3,0,3,0,-3,5,-2
1532066327471,1,-5,1,2,0,1,-8,-1
1532066327476,0,2,-6,9,-3,-1,-21,-2
1532066327481,0,-1,-7,-11,4,4,25,2
1532066327486,-2,-1,0,-1,2,-1,5,-3
1532066327491,-1,0,2,3,-2,1,-15,0
1532066327496,-1,2,9,4,0,-6,2,3
1532066327501,-1,2,1,-7,-5,-2,7,4
1532066327506,0,1,9,-6,3,0,3,-2
1532066327511,0,-3,3,14,3,1,3,-3
1532066327516,-1,-4,1,-2,-1,0,-6,-4
1532066327521,1,4,-4,-17,-2,-1,-5,0
1532066327526,-3,-2,0,5,0,-1,2,0
1532066327531,-1,-2,-3,-7,-5,-3,-10,-1
1532066327536,2,4,1,2,1,1,7,0
1532066327541,-3,-5,1,4,0,-4,3,-1
1532066327546,0,-2,10,4,1,-1,-5,-2
1532066327551,-4,-4,-15,-17,-6,-4,-8,-2
1532066327556,1,4,2,3,3,4,10,0
1532066327561,-3,-4,-7,3,-5,-1,3,-2
1532066327566,0,2,4,-3,3,0,-4,-1
1532066327571,-1,-2,6,-3,3,-5,2,1
1532066327576,-1,0,2,10,-4,1,2,-1
1532066327581,-2,-5,-3,-15,-1,-5,-11,-2
1532066327586,1,5,-7,-6,-2,1,32,2
1532066327591,1,0,4,2,0,-1,-27,-3
1532066327596,1,0,-1,-6,-1,-1,-7,-2
1532066327601,2,5,6,13,1,0,21,4
1532066327606,5,-3,-8,-1,-2,-4,-8,1
1532066327611,-14,13,-1,4,1,0,11,0
1532066327616,-1,-37,2,-8,-3,-1,1,-7
1532066327621,2,9,2,-1,0,2,-10,-2
1532066327626,-1,-3,-8,7,-2,0,-6,0
1532066327631,4,-13,-10,-4,-2,0,8,4
1532066327636,-2,4,0,7,4,1,-4,1
1532066327641,0,2,1,-6,1,-1,3,-2
1532066327646,-1,-4,7,-7,-8,-2,-8,1
1532066327651,0,4,3,7,2,1,-3,-2
1532066327656,-2,7,-1,3,-1,0,6,-1
1532066327661,2,-6,10,-4,1,0,-5,-1
1532066327666,-1,5,-6,1,-2,-1,-5,0
1532066327671,0,-12,6,3,-5,-2,-2,0
1532066327676,0,7,-1,-7,2,-3,-7,0
1532066327681,0,3,0,5,1,1,7,-3
1532066327686,-4,-2,6,-8,-2,0,-7,-2
1532066327691,0,0,2,-4,0,0,4,-1
1532066327696,-1,1,1,-2,0,3,13,1
1532066327701,-3,-8,-5,4,-3,-7,-24,-3
1532066327706,-2,0,4,4,0,-1,1,-1
1532066327711,2,0,2,0,0,-2,0,0
1532066327716,-2,3,0,-2,1,0,-1,-1
1532066327721,1,0,-3,2,0,1,2,-1
1532066327726,-2,-6,1,-10,-3,0,2,-2
1532066327731,0,-1,-2,-2,1,-4,-2,-4
1532066327736,-3,-3,-11,10,-1,-1,2,1
1532066327741,0,2,3,3,0,1,1,3
1532066327746,-3,-14,-2,-1,-3,-4,-6,-3
1532066327751,0,1,-1,0,-5,2,2,0
1532066327756,0,3,-1,3,2,-1,1,-2
1532066327761,-1,4,1,1,1,-1,-3,1
1532066327766,-1,-4,-4,3,-2,-3,-12,2
1532066327771,0,0,3,0,-2,1,11,-2
1532066327776,0,0,1,-5,-2,-1,0,1
1532066327781,0,2,-3,22,-1,-1,-2,-2
1532066327786,1,6,3,-7,3,2,2,-2
1532066327791,-2,0,-8,8,-1,-3,-5,-1
1532066327796,0,-6,3,-7,-6,-2,1,0
1532066327801,2,3,5,-6,0,1,2,0
1532066327806,-1,-2,-2,10,1,-2,0,-1
1532066327811,0,-3,5,-2,-1,0,-1,-1
1532066327816,2,3,7,-4,1,-1,0,1
1532066327821,-3,-11,4,-14,-4,-2,-3,0
1532066327826,1,2,4,-3,1,0,1,0
1532066327831,2,6,-5,-1,-4,0,-1,1
1532066327836,0,8,-10,2,3,1,0,0
1532066327841,-3,-4,-13,-10,-2,0,-1,-1
1532066327846,-5,-8,11,-4,-1,-3,-14,-2
1532066327851,-1,-1,12,15,3,0,14,0
1532066327856,-1,-3,3,1,-4,-3,-4,-3
1532066327861,-3,-1,1,-6,-2,-1,-2,-3
1532066327866,-5,-11,-5,9,0,-4,-3,-1
1532066327871,-1,0,-1,-3,0,0,0,-1
1532066327876,0,1,4,-4,0,0,3,0
1532066327881,0,0,4,4,2,0,-3,-1
1532066327886,-1,0,-1,-8,-1,0,1,0
1532066327891,-2,-7,-14,1,-4,-3,-4,-2
1532066327896,0,-3,0,-5,2,1,6,-1
1532066327901,-1,-1,0,-2,-1,-1,0,-2
1532066327906,1,6,-8,-10,-1,1,-2,0
1532066327911,-1,2,-2,18,-2,0,-3,-1
1532066327916,-1,2,-7,-11,-3,0,-6,-2
1532066327921,2,0,2,1,2,-1,9,1
1532066327926,-2,-1,0,-5,-1,-3,-2,-1
1532066327931,-1,9,8,-1,1,0,0,0
1532066327936,-2,-5,-9,7,-1,0,1,-1
1532066327941,-1,-2,6,-13,-1,-2,-7,0
1532066327946,-1,1,1,8,-1,1,-3,-1
1532066327951,1,-1,5,-6,0,0,3,-1
1532066327956,0,3,1,-6,2,0,2,-1
1532066327961,-2,-2,-7,3,-3,-4,-4,-2
1532066327966,-1,-3,4,-1,-1,-1,2,1
1532066327971,0,-3,5,4,1,-2,-1,0
1532066327976,0,1,4,-6,-5,-4,1,1
1532066327981,-1,-1,-9,0,1,2,-3,0
1532066327986,0,1,-7,-12,5,1,2,-1
1532066327991,-4,-2,3,5,-2,-2,-3,-1
1532066327996,0,0,-6,1,-1,-1,-13,0
1532066328001,0,1,11,-9,0,-2,12,-1
1532066328006,0,-2,-1,9,-1,-1,-3,-1
1532066328011,-2,-6,-1,-15,-2,-1,-3,0
1532066328016,-1,2,0,12,0,1,2,-1
1532066328021,-1,-3,-8,-12,-2,-2,-8,1
1532066328026,-1,-2,1,2,-2,0,1,1
1532066328031,0,3,5,11,3,0,3,-1
1532066328036,-3,-4,-15,-22,-5,-3,-1,-1
1532066328041,2,3,13,2,3,2,-3,1
1532066328046,-1,-1,-2,9,0,-2,0,-3
1532066328051,-3,-4,-11,-3,-1,-1,-2,1
1532066328056,1,2,7,-1,-1,1,4,-1
1532066328061,-1,1,-2,2,-5,0,-2,-1
1532066328066,-1,-1,5,-5,1,0,4,0
1532066328071,-1,-4,-1,-2,0,0,0,-2
1532066328076,0,0,-3,-3,-1,-4,1,-1
1532066328081,1,-3,-4,18,-1,-1,-1,-2
1532066328086,0,1,7,7,-7,1,-9,-1
1532066328091,1,0,2,-16,-1,-1,2,0
1532066328096,-5,-4,-11,14,-1,0,3,0
1532066328101,1,1,4,-3,-3,3,-13,2
1532066328106,-2,-3,-14,-10,-2,-7,11,-4
1532066328111,-1,0,8,13,5,1,8,1
1532066328116,0,-2,3,-15,0,-3,-16,-2
1532066328121,0,1,14,-2,1,0,1,0
1532066328126,-1,-2,-17,-7,-2,1,-7,-1
1532066328131,-1,-3,0,-18,-8,-3,-2,-1
1532066328136,0,0,-8,20,-1,-3,5,0
1532066328141,0,0,0,-1,1,2,3,-2
1532066328146,-3,-2,2,11,-1,-6,-7,-2
1532066328151,-1,2,-4,-18,0,1,0,0
1532066328156,3,-2,-1,27,3,2,3,-2
1532066328161,-3,-14,-6,-30,-3,-3,-2,1
1532066328166,0,-8,15,6,0,2,3,0
1532066328171,1,-1,14,11,7,0,-3,-1
1532066328176,-6,-20,-5,-21,-7,-7,-3,-2
1532066328181,-1,-10,4,-7,1,-1,1,2
1532066328186,0,-10,-2,27,1,-2,-4,-2
1532066328191,-4,-12,21,-26,-5,-4,-5,2
1532066328196,-2,3,24,-14,-1,4,-10,3
1532066328201,-1,3,6,37,8,0,21,0
1532066328206,1,3,-10,-23,-2,2,1,0
1532066328211,3,4,-6,24,0,-3,1,-4
1532066328216,0,-4,-11,7,0,-2,3,-1
1532066328221,-5,-10,-25,-3,-5,-3,-10,-2
1532066328226,4,-2,14,8,7,3,6,4
1532066328231,-2,-6,-20,-12,-7,-3,-1,0
1532066328236,0,0,-13,-24,-2,1,-3,-2
1532066328241,1,6,-7,18,1,0,-1,0
1532066328246,-5,7,-8,-33,-5,-2,-2,-2
1532066328251,4,13,4,-26,4,3,0,-4
1532066328256,4,18,-11,60,1,0,7,-2
1532066328261,-5,8,-14,-41,-7,-5,-11,0
1532066328266,1,3,-2,-21,-3,-2,-1,-1
1532066328271,-2,6,-9,34,-3,3,2,0
1532066328276,-2,3,-28,41,1,1,2,-2
1532066328281,-1,5,-18,71,8,0,0,-3
1532066328286,1,9,-21,-15,-7,-4,-6,-1
1532066328291,-2,3,-40,-34,-8,-3,1,1
1532066328296,5,10,-16,-20,3,1,4,-2
1532066328301,-8,-3,-13,34,-10,-4,-8,-1
1532066328306,-1,4,-10,17,5,2,-4,-2
1532066328311,1,3,-35,65,5,3,5,-2
1532066328316,0,1,-13,-65,-5,2,1,-2
1532066328321,2,0,-13,-49,2,-1,0,-2
1532066328326,-7,-6,17,-20,-14,-6,-6,0
1532066328331,1,0,28,-54,3,2,-1,-1
1532066328336,-7,-14,21,-12,-9,-8,-3,-2
1532066328341,3,0,8,7,4,1,1,1
1532066328346,-1,0,8,85,11,3,3,4
1532066328351,-1,-6,3,-95,-18,-4,-3,-2
1532066328356,-1,1,23,4,4,-1,-3,3
1532066328361,-2,-2,15,49,-4,-3,-1,-2
1532066328366,3,3,21,-36,5,1,2,-4
1532066328371,-2,-6,23,17,6,0,-3,0
1532066328376,2,1,27,-20,-4,3,6,-3
1532066328381,-2,3,28,-32,-8,-4,-5,-3
1532066328386,-1,5,13,9,-7,5,-2,3
1532066328391,-3,-2,12,-17,0,-5,-5,-5
1532066328396,-2,-5,19,7,3,0,2,-1
1532066328401,1,-9,-8,-86,-10,-3,1,-1
1532066328406,-3,-2,17,63,-1,-2,-1,-4
1532066328411,-1,-3,3,-50,-10,1,-1,5
1532066328416,-6,-3,7,68,1,-3,-6,-4
1532066328421,2,4,10,25,8,3,-2,1
1532066328426,4,8,-4,-29,-6,-2,2,-2
1532066328431,-3,-4,-3,75,-3,1,-2,2
1532066328436,6,0,-6,-63,12,-2,1,-1
1532066328441,-7,-7,3,58,-18,-6,-7,0
1532066328446,1,0,-11,-87,-4,-2,1,6
1532066328451,-1,-3,-5,18,5,0,-3,-5
1532066328456,-1,0,1,37,-1,-3,-1,-2
1532066328461,-1,1,1,-28,2,0,-1,-3
1532066328466,-1,-4,-6,-15,2,0,1,0
1532066328471,-3,-1,-6,-47,-9,0,-1,-1
1532066328476,2,4,10,86,19,4,1,1
1532066328481,3,-1,-12,-12,1,1,1,1
1532066328486,-6,-7,1,44,-2,-1,1,1
1532066328491,2,1,-2,-38,4,1,1,-3
1532066328496,-4,-2,0,44,2,0,0,2
1532066328501,2,2,2,-32,3,3,8,-3
1532066328506,3,-1,-4,-4,-12,-6,-6,0
1532066328511,-1,2,1,54,17,0,-3,-2
1532066328516,1,0,2,-21,6,6,1,4
1532066328521,-2,-2,-2,-21,-6,-2,-2,0
1532066328526,2,-2,-3,-33,7,1,4,-3
1532066328531,-3,-1,4,53,-12,-4,2,-2
1532066328536,-5,-5,-8,-9,-1,-8,-11,0
1532066328541,3,-3,-2,-35,-9,-1,4,-4
1532066328546,-2,0,-1,-1,1,2,-10,-2
1532066328551,3,-1,2,91,13,-2,6,-1
1532066328556,-1,-3,-2,12,-7,1,-4,-43
1532066328561,0,-2,-3,-46,-2,-1,-1,35
1532066328566,2,-2,0,-16,-7,-3,-1,-46
1532066328571,-7,1,-4,-3,8,2,-1,10
1532066328576,0,-3,-2,64,11,3,6,4
1532066328581,3,1,-4,-46,4,2,13,-1
1532066328586,-4,-3,1,60,3,-2,-19,-3
1532066328591,2,1,0,-49,-10,3,11,3
1532066328596,2,1,0,-3,0,-3,-6,19
1532066328601,-4,-2,-1,16,-1,-3,-3,-11
1532066328606,5,3,-5,-24,-1,2,2,14
1532066328611,1,1,-4,42,6,1,4,-3
1532066328616,-3,-3,-4,2,-3,-5,-7,-4
1532066328621,-2,-2,-1,-4,-2,0,-6,-6
1532066328626,-2,-2,-4,-12,-6,0,7,5
1532066328631,1,-1,-4,-2,2,0,-4,0
1532066328636,-4,0,-4,-21,-3,0,-1,-8
1532066328641,0,-1,2,18,0,-1,2,-6
1532066328646,-1,-1,3,0,-2,0,-3,13
1532066328651,-2,-3,2,-15,2,2,0,-6
1532066328656,3,1,2,11,-1,2,7,-4
1532066328661,-2,-1,-1,3,3,-2,-13,-4
1532066328666,-1,-1,-3,15,0,-1,0,2
1532066328671,0,-2,0,-57,-10,-2,0,-5
1532066328676,-3,-2,1,14,-2,-3,2,-1
1532066328681,-2,-2,-5,6,0,1,-1,-1
1532066328686,0,-1,-2,-16,-4,-1,-1,0
1532066328691,-1,0,2,3,2,-1,2,-2
1532066328696,0,0,-1,9,6,-1,-3,1
1532066328701,-4,0,4,-10,-12,-2,1,-3
1532066328706,-2,3,-3,23,0,-3,-4,0
1532066328711,0,-1,-2,-5,-1,0,2,1
1532066328716,-3,-2,0,-4,-4,-1,-6,1
1532066328721,4,2,0,-9,7,2,0,-3
1532066328726,0,-1,-3,-37,-9,1,4,-1
1532066328731,2,2,2,-5,8,-1,-1,-3
1532066328736,-6,-4,1,13,-8,-5,-9,-2
1532066328741,2,1,-1,-35,-4,0,3,0
1532066328746,-4,-3,4,17,-6,-2,-1,2
1532066328751,2,3,-6,31,9,1,3,0
1532066328756,1,-4,-6,0,1,-1,1,-6
1532066328761,-3,-4,-2,-23,-13,-5,-3,-2
1532066328766,-2,-2,-4,37,-3,-3,-3,4
1532066328771,7,4,-7,-42,12,8,13,-6
1532066328776,-4,-8,11,108,-5,-10,-16,9
1532066328781,-11,1,-7,-64,-4,1,4,-7
1532066328786,-9,-9,-4,8,7,1,-1,-2
1532066328791,-1,-1,-11,-66,-8,0,-2,-1
1532066328796,1,0,5,23,8,-1,-1,-3
1532066328801,9,-1,1,23,-5,0,2,4
1532066328806,2,3,7,6,4,2,2,1
1532066328811,-2,-11,-2,-24,-22,-9,-8,1
1532066328816,-3,5,0,-59,-3,4,3,-1
1532066328821,0,-1,3,27,4,-3,-5,-3
1532066328826,2,1,3,-19,0,2,4,-4
1532066328831,0,-1,10,29,1,-3,-4,1
1532066328836,3,2,1,-27,1,2,4,-2
1532066328841,-2,-2,7,31,6,-1,0,-1
1532066328846,4,3,1,-28,4,2,0,-1
1532066328851,-3,-2,9,28,-11,-5,-4,-1
1532066328856,-1,0,4,-16,7,2,1,-1
1532066328861,-4,-1,1,7,-3,1,3,-1
1532066328866,4,-2,1,0,2,-5,-4,0
1532066328871,-4,-1,5,21,3,-2,-1,-2
1532066328876,-1,-1,-5,-20,0,2,3,-3
1532066328881,-1,-1,-1,18,1,-1,-4,0
1532066328886,0,-2,-1,-9,-4,1,1,0
1532066328891,-1,0,1,-4,2,0,0,0
1532066328896,-1,-2,-4,-5,11,0,-1,1
1532066328901,-2,-3,-2,8,-13,-2,-1,-2
1532066328906,-1,1,0,-13,-3,-1,-4,1
1532066328911,0,-1,-1,5,2,2,2,2
1532066328916,8,0,-7,-25,-3,2,0,-3
1532066328921,-7,1,5,20,8,-2,-1,-4
1532066328926,0,-2,-7,-26,-9,-2,-1,0
1532066328931,-3,-1,-4,15,1,0,-2,1
1532066328936,-2,-4,-4,3,-6,-2,1,0
1532066328941,3,1,-3,4,4,0,-2,1
1532066328946,2,1,-4,-33,2,1,3,-2
1532066328951,-2,-4,2,62,-3,0,-3,0
1532066328956,-2,1,-3,-16,-15,-3,-4,0
1532066328961,0,0,-1,6,7,-1,0,-1
1532066328966,-4,-2,1,11,0,-1,-1,1
1532066328971,1,0,-5,-17,3,-1,2,-3
1532066328976,-1,2,2,14,0,1,3,-1
1532066328981,-6,-3,1,13,-10,-1,-3,3
1532066328986,-1,-1,-2,-3,-5,-2,1,-2
1532066328991,1,-1,1,3,0,0,0,-1
1532066328996,-1,0,-3,-5,0,-1,0,-4
1532066329001,2,-1,-4,-18,4,0,0,-1
1532066329006,-1,0,0,-5,-5,0,-1,0
1532066329011,-4,0,-2,9,-4,-3,-2,-1
1532066329016,-1,1,-1,-4,4,0,-1,0
1532066329021,3,2,-2,0,4,2,-1,-3
1532066329026,-1,-1,0,1,-2,-1,-1,1
1532066329031,-2,-1,-1,-10,0,0,0,-1
1532066329036,-2,-1,-2,-1,0,0,-5,0
1532066329041,3,-1,0,2,-4,-2,-1,2
1532066329046,-2,-2,-2,3,1,-2,-1,-2
1532066329051,0,1,-2,-8,1,0,-1,1
1532066329056,0,-1,1,2,-5,-2,0,-2
1532066329061,-1,-1,-2,-8,1,0,1,-2
1532066329066,-1,-1,0,9,1,1,0,1
1532066329071,-1,-1,0,0,0,0,1,-2
1532066329076,-1,-1,-1,-5,-3,-1,0,-2
1532066329081,-1,-3,-1,0,1,-2,-2,-1
1532066329086,0,-1,0,5,2,-1,-2,-3
1532066329091,-1,0,-1,-3,-1,-3,-2,-3
1532066329096,-2,-4,-1,-4,1,0,1,0
1532066329101,1,-1,-1,-1,0,1,1,0
1532066329106,-2,-2,1,3,-3,-2,-1,-1
1532066329111,0,-1,-3,-6,-1,-1,-1,0
1532066329116,1,-1,-1,0,0,0,-2,-3
1532066329121,-1,-2,0,-1,1,-1,1,-2
1532066329126,0,-1,-1,0,-1,-2,0,-1
1532066329131,0,0,0,-4,-1,0,0,-2
1532066329136,-2,1,0,0,-1,0,-2,-1
1532066329141,-1,0,-1,0,-3,1,-1,0
1532066329146,0,1,-3,1,1,1,1,0
1532066329151,1,-1,0,-1,-1,-1,-1,-1
1532066329156,-1,-1,0,0,-2,-1,0,0
1532066329161,-1,1,1,4,1,-2,-2,-2
1532066329166,-1,-1,0,0,-1,-1,-1,-1
1532066329171,-3,-4,-12,-25,-4,-1,-2,-2
1532066329176,-1,-1,-1,14,-4,-1,1,-1
1532066329181,0,0,0,22,3,0,1,0
1532066329186,1,1,4,-17,6,1,1,-1
1532066329191,-1,0,3,19,0,-1,-1,0
1532066329196,-2,-3,-4,-47,-8,-2,-3,-1
1532066329201,1,0,-8,4,1,1,1,-3
1532066329206,-3,-2,4,20,-2,-1,-4,1
1532066329211,0,4,3,7,5,2,2,-2
1532066329216,0,-1,-7,18,2,-1,-1,-2
1532066329221,2,1,4,-6,1,0,3,0
1532066329226,-2,-5,-2,23,-4,-4,-3,0
1532066329231,0,-1,1,-10,0,2,-1,3
1532066329236,-3,2,2,7,2,1,0,0
1532066329241,13,-1,-1,-12,-1,-1,0,4
1532066329246,-3,-4,-2,0,2,1,0,-3
1532066329251,4,-2,-2,-20,-6,-3,0,3
1532066329256,-5,-2,2,7,0,1,0,0
1532066329261,5,-3,-2,-1,1,-1,-1,4
1532066329266,4,3,3,3,2,-1,-1,-1
1532066329271,2,-2,0,0,-2,0,-1,-1
1532066329276,-6,-1,-2,-7,-2,0,-1,-5
1532066329281,9,3,1,3,2,1,0,3
1532066329286,-3,-3,-2,-3,-2,-1,-1,-1
1532066329291,1,0,3,0,-3,-2,-2,0
1532066329296,0,0,-3,-8,-1,-3,0,-1
1532066329301,-6,0,-1,-1,-3,0,-3,-2
1532066329306,0,0,2,0,-2,0,-1,-2
1532066329311,-1,1,-3,2,2,-2,-1,-2
1532066329316,4,-2,-2,-5,-1,-2,-1,1
1532066329321,-3,1,1,0,1,0,1,-1
1532066329326,-1,-1,0,0,0,-1,0,-1
1532066329331,3,-1,-2,1,-1,1,-4,0
1532066329336,3,-1,0,-3,0,-2,-1,0
1532066329341,-4,0,-1,-1,-2,-1,-2,-2
1532066329346,-3,-1,-2,0,0,-1,-1,-1
1532066329351,0,-2,1,-1,-2,-1,0,0
1532066329356,1,-2,-1,-2,-3,-1,-1,-1
1532066329361,-3,-3,0,-2,-1,-2,-1,-2
1532066329366,1,-2,0,-2,-1,0,0,0
1532066329371,0,0,2,4,2,0,0,-1
1532066329376,0,1,-1,5,0,-1,-1,-1
1532066329381,-2,-4,-9,-4,-6,-3,-3,-1
1532066329386,0,-2,0,2,2,0,-1,-1
1532066329391,1,0,-2,-2,-2,-1,-1,-1
1532066329396,0,1,-1,2,0,1,-1,0
1532066329401,1,9,1,-7,32,1,1,-1
1532066329406,-3,4,7,27,-6,1,1,-3
1532066329411,-6,-12,-8,-16,-47,-7,-5,2
1532066329416,3,2,-5,-25,-6,1,1,-2
1532066329421,-1,-5,-3,2,-13,-3,-2,-1
1532066329426,-2,2,3,-1,10,0,-3,-1
1532066329431,2,4,4,-2,17,1,0,0
1532066329436,-1,-1,-1,2,-7,0,-1,-1
1532066329441,-1,1,-5,3,-2,-1,0,-1
1532066329446,2,7,0,-15,2,-1,2,0
1532066329451,2,7,-2,15,2,0,0,-1
1532066329456,8,25,4,-12,3,0,-1,3
1532066329461,1,78,12,-7,8,1,4,-1
1532066329466,-30,-104,-18,-2,-7,-2,-5,-8
1532066329471,-6,34,1,20,-1,-4,-9,-4
1532066329476,1,4,-6,-5,-3,-3,-1,-5
1532066329481,13,26,3,23,-4,0,0,7
1532066329486,18,85,17,-13,-4,0,4,11
1532066329491,-10,-7,3,-19,9,3,3,-2
1532066329496,-17,-103,-13,18,11,0,-2,-14
1532066329501,-6,-44,-16,16,-11,-5,-6,-7
1532066329506,5,10,2,-3,-7,-2,-2,0
1532066329511,11,30,8,6,12,4,4,5
1532066329516,-2,24,4,-11,-7,1,1,7
1532066329521,0,-8,0,-24,-2,2,1,-1
1532066329526,1,10,-1,-3,2,-3,1,-4
1532066329531,-8,-58,-12,26,2,-5,-3,-2
1532066329536,7,50,11,5,-2,0,-1,5
1532066329541,-8,-42,0,-10,2,-1,-1,2
1532066329546,-4,-7,-9,-9,-2,-2,-2,-6
1532066329551,1,15,4,-10,0,2,1,-1
1532066329556,9,4,-3,-1,0,-2,-1,-4
1532066329561,-2,38,10,6,-7,-2,-2,3
1532066329566,-10,-70,-21,-3,-2,-3,-2,-4
1532066329571,-6,-57,-1,-8,-4,-2,-2,-7
1532066329576,-5,-14,4,16,5,-1,-1,-2
1532066329581,7,32,3,-60,-3,2,2,2
1532066329586,1,11,7,32,-4,1,0,2
1532066329591,4,8,-3,-1,2,-2,1,1
1532066329596,1,22,-1,-3,-6,-4,-2,3
1532066329601,2,-5,7,15,0,-2,0,-3
1532066329606,-7,-11,-3,-4,-11,-1,0,-2
1532066329611,4,6,-3,-10,11,3,-1,0
1532066329616,4,-21,-8,-3,1,-1,-2,-1
1532066329621,-1,4,3,-6,-6,0,1,0
1532066329626,1,-1,-1,3,2,0,-1,0
1532066329631,3,29,1,4,-4,-2,-3,-1
1532066329636,-2,62,12,-2,2,0,0,2
1532066329641,-3,-71,-25,-1,2,-3,-3,-2
1532066329646,1,11,2,-4,-1,0,-2,0
1532066329651,3,44,12,6,-3,0,1,2
1532066329656,-3,-36,-11,-8,-3,-2,3,-2
1532066329661,8,-14,2,-5,-3,0,0,2
1532066329666,-22,-56,-18,-1,2,-2,-5,-11
1532066329671,1,4,-6,5,3,-3,-5,-10
1532066329676,6,60,14,-1,-2,2,-1,2
1532066329681,2,49,5,-6,-5,2,2,3
1532066329686,6,20,6,-3,-3,0,1,6
1532066329691,-3,-25,-1,-1,0,2,4,1
1532066329696,-2,-3,1,2,4,-1,-3,0
1532066329701,0,15,1,2,0,0,-1,-2
1532066329706,1,12,3,-1,-2,-2,-1,1
1532066329711,-7,-34,-8,1,-3,-2,-5,-4
1532066329716,-2,-14,-4,-1,0,0,-2,0
1532066329721,0,21,4,0,-1,0,2,0
1532066329726,0,12,-4,-1,-3,-2,-1,-2
1532066329731,-6,-11,0,-2,-2,0,1,1
1532066329736,4,44,0,1,2,-1,-1,-1
1532066329741,-4,-71,-9,0,-2,-1,-2,-1
1532066329746,-4,-35,3,2,4,0,2,2
1532066329751,-16,-68,-17,-5,-2,-3,-9,-12
1532066329756,4,21,-2,-1,-3,-4,-3,-5
1532066329761,6,40,9,-1,-1,3,4,4
1532066329766,-2,45,10,3,-2,0,3,5
1532066329771,18,24,4,2,-1,0,2,12
1532066329776,-26,-31,-1,1,2,0,-2,-14
1532066329781,-2,17,-3,-3,-1,-4,-2,-6
1532066329786,-4,-15,-3,-3,-5,-2,-2,-5
1532066329791,8,8,5,0,1,0,1,3
1532066329796,14,87,10,-3,-2,1,4,8
1532066329801,-18,-89,-4,-2,-1,-1,-2,3
1532066329806,-7,-41,-23,0,3,-3,-7,-12
1532066329811,-4,7,1,1,-2,-2,-1,-5
1532066329816,9,15,2,2,0,-1,0,3
1532066329821,3,66,9,-2,-3,-1,1,0
1532066329826,2,-7,-2,-1,0,0,3,5
1532066329831,-11,-50,-7,0,0,0,-2,-4
1532066329836,-3,-42,-3,0,2,-2,-2,-4
1532066329841,7,41,5,0,-3,1,0,1
1532066329846,-3,-24,3,-1,-1,-1,-1,0
1532066329851,1,19,0,-1,0,1,0,-1
1532066329856,0,-19,-1,-2,-1,0,5,7
1532066329861,-5,1,-6,-3,-1,-3,-5,-8
1532066329866,3,20,-1,0,-2,-4,-5,-7
1532066329871,-6,0,1,3,0,0,0,-4
1532066329876,22,-22,-5,-6,0,0,-3,3
1532066329881,12,19,4,2,-2,-1,1,8
1532066329886,-40,5,-6,-12,-5,-1,-3,-6
1532066329891,3,9,-2,5,-1,2,4,2
1532066329896,-8,4,-2,0,-1,0,0,4
1532066329901,8,18,-1,1,1,0,-3,-10
1532066329906,-35,-20,-2,33,4,1,2,-3
1532066329911,22,-4,-17,-20,-7,-3,-1,0
1532066329916,-40,5,4,5,-2,0,1,-3
1532066329921,47,20,19,44,15,3,5,1
1532066329926,-4,5,3,21,5,3,1,-3
1532066329931,4,-16,-27,-68,-27,-8,-12,-5
1532066329936,-22,13,6,21,1,1,9,1
1532066329941,15,0,-3,-35,-3,0,1,6
1532066329946,-4,-6,12,13,7,1,-2,-4
1532066329951,-17,-2,10,68,8,2,4,-6
1532066329956,13,11,-4,-40,-5,-1,-10,8
1532066329961,-6,-10,-2,-7,0,-2,0,-1
1532066329966,6,-6,-8,-69,0,0,1,-4
1532066329971,-4,-4,2,36,4,1,-2,-3
1532066329976,7,13,6,15,7,-2,2,-1
1532066329981,12,-2,-10,-52,-2,-1,1,-3
1532066329986,-17,-8,-6,52,-18,-6,-11,-1
1532066329991,-2,2,0,-21,1,-1,-2,2
1532066329996,9,9,1,24,3,2,2,2
1532066330001,-3,-4,-9,-35,-7,-2,1,-2
1532066330006,0,-4,-3,-35,-1,-3,0,-5
1532066330011,-2,-1,9,40,13,-2,-8,-3
1532066330016,13,3,-3,4,-13,-5,5,3
1532066330021,-43,16,-2,19,-1,-1,-4,-1
1532066330026,-6,-80,-11,-14,-8,2,4,0
1532066330031,3,2,5,21,0,2,2,1
1532066330036,-5,0,-10,-66,16,0,-2,-2
1532066330041,7,-4,-1,13,-18,-6,-8,5
1532066330046,0,25,6,1,2,0,-3,-1
1532066330051,-3,8,3,18,4,1,4,3
1532066330056,7,-7,2,19,-3,-1,-2,0
1532066330061,19,6,-11,-56,-20,-8,-2,-1
1532066330066,-6,99,9,-1,3,1,-1,1
1532066330071,8,104,25,-22,1,2,5,10
1532066330076,-31,-73,-41,3,31,0,-2,-17
1532066330081,8,23,-10,29,-18,-1,-4,-6
1532066330086,-13,-73,-17,-3,-9,1,-1,-3
1532066330091,4,-1,0,-18,2,1,-11,-17
1532066330096,8,82,36,13,-3,2,11,19
1532066330101,12,7,14,18,12,0,4,3
1532066330106,-11,-10,-22,-1,2,-3,-1,-4
1532066330111,-6,-10,15,2,3,-2,2,7
1532066330116,8,-16,-4,-3,-8,2,-5,-1
1532066330121,27,-11,6,16,5,2,2,5
1532066330126,13,26,-5,-11,-11,-4,-1,3
1532066330131,-8,-38,-3,-11,-3,-1,-3,24
1532066330136,-7,44,-1,2,-10,-2,-3,-34
1532066330141,0,-44,-4,6,1,1,2,3
1532066330146,3,-14,10,7,10,-1,-6,-6
1532066330151,-30,-85,-42,-8,-2,-4,-1,-31
1532066330156,23,59,11,1,-6,2,5,26
1532066330161,5,-18,9,13,1,0,-3,10
1532066330166,3,38,8,-1,4,-2,-3,-10
1532066330171,32,47,0,-9,-5,-2,2,-6
1532066330176,-2,-37,1,-8,-10,0,2,9
1532066330181,-36,-8,-9,6,4,-3,-5,-12
1532066330186,-34,15,10,1,-1,0,-2,7
1532066330191,-4,-48,-1,-4,-2,1,3,2
1532066330196,8,5,-6,-3,-7,-3,-5,-1
1532066330201,-1,44,8,7,2,1,-2,-2
1532066330206,11,-9,11,2,5,2,6,16
1532066330211,-6,-63,-17,-4,2,2,-2,-10
1532066330216,-11,-16,-5,6,13,-9,-15,-17
1532066330221,-3,-21,-6,-1,-25,2,2,-7
1532066330226,11,30,5,-10,-29,-4,0,1
1532066330231,7,39,11,1,0,2,6,14
1532066330236,0,-37,-7,-7,-5,1,-1,6
1532066330241,6,5,-3,8,16,-1,0,-5
1532066330246,-1,-12,-1,1,10,2,-2,-4
1532066330251,4,46,6,0,-8,-2,-1,1
1532066330256,-26,31,7,4,-1,1,0,-3
1532066330261,-3,-57,-5,0,2,-4,-1,0
1532066330266,3,-58,-25,-2,-2,-1,-4,-11
1532066330271,-29,-26,-1,-4,2,-3,-1,-3
1532066330276,3,-16,11,3,-2,2,-4,-5
1532066330281,21,94,20,9,4,4,13,2
1532066330286,-44,-83,-15,-10,-3,-7,-15,-2
1532066330291,6,91,-7,-12,-6,-6,-9,-26
1532066330296,6,-24,2,1,-4,0,2,-2
1532066330301,-15,-20,-14,-4,-2,-2,-4,-15
1532066330306,15,40,9,10,4,1,8,5
1532066330311,12,14,12,-1,0,2,5,21
1532066330316,-8,-2,-14,-2,-4,-1,-5,-2
1532066330321,-3,-21,-4,-3,2,1,2,9
1532066330326,8,36,4,1,3,-2,-8,-16
1532066330331,-6,21,0,-7,-4,-5,-9,-8
1532066330336,14,11,7,6,-3,0,7,8
1532066330341,-1,-5,1,19,38,-2,2,9
1532066330346,7,-15,-6,18,-9,6,4,-6
1532066330351,-7,-36,1,-3,-14,-1,0,-4
1532066330356,2,-11,-5,-14,-3,0,-2,1
1532066330361,1,13,4,0,-4,-2,-2,1
1532066330366,-22,3,7,-9,14,0,-7,4
1532066330371,11,-27,-6,35,6,3,8,4
1532066330376,-2,3,1,18,2,-1,-3,-6
1532066330381,-5,0,-3,-16,-9,0,7,0
1532066330386,12,3,-1,-16,-3,-4,-8,-2
1532066330391,0,-20,-2,0,-1,0,1,4
1532066330396,23,22,1,-1,3,-1,4,7
1532066330401,-19,-5,-5,-51,-8,-2,-5,-9
1532066330406,17,0,-6,3,-7,-2,-40,6
1532066330411,-14,-3,5,5,7,2,43,2
1532066330416,21,12,7,-14,1,2,9,-5
1532066330421,-2,-21,-13,13,-18,-5,2,5
1532066330426,2,-1,-11,-31,-17,-7,-20,-10
1532066330431,12,3,8,-37,6,4,-22,8
1532066330436,-22,-8,2,98,9,-2,3,3
1532066330441,19,3,13,-72,-1,5,2,-1
1532066330446,-44,13,8,52,12,3,21,-5
1532066330451,-34,-13,-20,12,-19,-6,-12,-7
1532066330456,-5,-5,-4,13,3,2,2,-5
1532066330461,-7,4,9,27,1,-3,-15,-1
1532066330466,18,7,8,21,14,2,8,8
1532066330471,15,8,3,-32,4,2,0,-6
1532066330476,10,5,2,-3,-7,-2,-6,0
1532066330481,-7,-23,-17,-18,-11,-4,0,-4
1532066330486,19,2,3,24,4,-1,7,0
1532066330491,-15,10,2,-5,0,-1,-5,2
1532066330496,1,8,-5,-38,13,-1,-1,-1
1532066330501,4,2,11,43,-11,0,-4,-3
1532066330506,0,2,-9,-36,-31,-1,12,0
1532066330511,7,-20,-6,8,3,0,-7,0
1532066330516,2,61,8,0,-7,-3,2,4
1532066330521,-32,-7,10,5,8,1,9,1
1532066330526,-11,-66,-25,-5,13,2,-2,-14
1532066330531,-26,14,10,32,-7,-8,-7,-8
1532066330536,-1,-17,2,-15,-3,0,-8,3
1532066330541,18,48,-3,32,6,3,14,9
1532066330546,-12,45,10,16,62,-5,-3,0
1532066330551,-19,-79,-43,-20,-33,3,-11,-16
1532066330556,-1,50,-9,-12,-59,-10,4,4
1532066330561,2,13,-14,3,-6,-2,-6,-2
1532066330566,8,12,7,-22,-28,-1,0,-34
1532066330571,3,-1,7,6,22,-1,4,64
1532066330576,16,4,15,-3,25,-2,1,31
1532066330581,-1,20,-1,-8,-15,0,-6,-40
1532066330586,-20,-88,-14,-2,2,5,8,-5
1532066330591,13,2,5,36,105,-1,-6,-33
1532066330596,2,0,-5,-36,-71,3,1,5
1532066330601,10,20,3,-6,-32,0,5,29
1532066330606,-9,13,-12,-16,-26,-6,-8,-8
1532066330611,-7,-29,3,0,-19,-10,-7,-5
1532066330616,17,5,26,47,127,9,10,-3
1532066330621,6,21,-4,-29,-29,-4,-3,1
1532066330626,-4,-29,-15,-7,-32,24,-3,-10
1532066330631,-1,5,-19,-25,-111,-19,0,14
1532066330636,-5,9,9,-2,-1,-6,2,-2
1532066330641,1,-10,10,3,26,4,7,10
1532066330646,-5,-91,-5,10,46,-9,-12,-2
1532066330651,3,68,0,-8,27,-2,-8,-23
1532066330656,-1,-6,2,6,-4,6,-2,-14
1532066330661,-3,15,4,9,23,-3,3,4
1532066330666,0,16,0,-2,-6,-6,0,3
1532066330671,1,12,-4,-24,-44,4,0,-2
1532066330676,12,82,32,37,93,-2,4,2
1532066330681,0,-62,-29,-47,-104,3,2,12
1532066330686,-21,-41,-37,-4,-14,-8,-12,-14
1532066330691,-5,23,7,2,-9,-4,-9,-11
1532066330696,-2,-6,-5,-16,-29,-3,-3,4
1532066330701,12,40,19,17,43,1,1,-1
1532066330706,8,33,10,-10,0,-1,4,5
1532066330711,-3,-27,-2,6,7,3,2,4
1532066330716,-1,-8,-2,3,-4,1,-3,-6
1532066330721,-3,-5,-7,2,8,-2,-2,-4
1532066330726,0,9,4,-1,-17,-1,1,2
1532066330731,2,-1,1,2,21,2,1,2
1532066330736,4,-17,-7,-24,-24,2,0,-4
1532066330741,17,-4,-14,0,-1,-3,-1,0
1532066330746,-65,-10,13,35,8,-5,-6,-3
1532066330751,13,12,8,-4,8,2,-2,-1
1532066330756,-10,-17,-3,9,-18,-2,6,-3
1532066330761,1,-10,-20,-51,-6,-7,0,-2
1532066330766,18,21,-12,-82,-20,-4,-1,-3
1532066330771,14,-7,2,18,6,5,10,9
1532066330776,-8,-6,0,11,-6,3,8,-17
1532066330781,1,-1,-1,21,10,-7,-18,-2
1532066330786,6,18,15,27,7,6,15,8
1532066330791,-1,-6,-6,-36,-6,-3,-2,-3
1532066330796,21,-10,-10,-9,-11,-3,2,3
1532066330801,-21,6,8,41,17,5,4,-6
1532066330806,25,9,8,1,1,1,-18,1
1532066330811,-19,-11,-12,28,15,-4,-18,-2
1532066330816,2,2,5,-7,-23,-3,10,2
1532066330821,-9,1,3,-16,12,4,-2,-5
1532066330826,0,2,-5,-14,-15,-3,0,1
1532066330831,13,8,13,27,15,5,11,1
1532066330836,-13,-8,-5,-7,6,-3,-17,-6
1532066330841,-1,1,7,2,-11,-3,-3,2
1532066330846,15,1,-9,-21,4,1,9,1
1532066330851,0,7,8,-27,2,4,11,0
1532066330856,-4,-4,-5,63,3,-1,-3,1
1532066330861,-14,-15,-13,6,-27,-11,0,0
1532066330866,13,16,13,30,15,4,0,-1
1532066330871,-10,-7,-12,-6,-11,-8,-11,-8
1532066330876,-10,-10,2,-14,-6,0,-7,-3
1532066330881,10,13,8,9,15,4,13,4
1532066330886,-7,9,-7,-12,-13,-3,-6,-15
1532066330891,1,-28,-2,4,8,2,5,6
1532066330896,-1,4,-2,-23,6,3,-4,2
1532066330901,0,6,-2,-9,-20,-6,-22,-9
1532066330906,4,28,3,14,11,11,39,33
1532066330911,-14,-51,-3,3,-10,-9,-11,0
1532066330916,-15,45,-7,0,7,-8,-15,-46
1532066330921,-2,9,-5,2,15,5,-5,1
1532066330926,2,6,11,27,8,-1,-28,1
1532066330931,11,31,3,-29,-14,3,13,4
1532066330936,3,-23,-7,-13,-13,-3,-17,9
1532066330941,-2,1,3,3,-4,-2,8,16
1532066330946,0,15,3,2,-3,-6,5,-5
1532066330951,-6,2,-7,2,32,-12,-1,-2
1532066330956,-3,-40,-10,-12,-9,21,-2,0
1532066330961,1,24,3,2,-12,-7,7,4
1532066330966,1,-20,-7,11,-10,3,6,4
1532066330971,-4,62,5,-3,-8,-1,-13,-25
1532066330976,8,34,10,-5,3,-4,7,21
1532066330981,-22,-112,-2,31,103,-14,-12,-26
1532066330986,-14,-33,-25,-26,-65,19,-4,-18
1532066330991,-2,-4,3,8,-22,-2,-1,12
1532066330996,15,44,7,-3,1,1,13,6
1532066331001,23,66,12,-1,-9,7,18,21
1532066331006,-10,-15,0,5,30,-13,-5,17
1532066331011,-14,-28,-4,2,0,6,-15,-32
1532066331016,-3,-15,1,-4,-18,-1,5,9
1532066331021,8,16,-1,0,5,3,1,-4
1532066331026,33,78,4,4,13,-3,6,10
1532066331031,-6,19,14,7,-2,3,10,10
1532066331036,-40,-108,-33,-19,-19,-5,-17,-25
1532066331041,-27,-23,-8,-2,-6,-9,-13,-18
1532066331046,4,21,-5,-1,12,10,0,-4
1532066331051,5,15,0,-14,-47,0,8,17
1532066331056,13,44,9,12,26,-2,5,8
1532066331061,1,4,-9,-15,-21,0,4,-1
1532066331066,-4,-28,-1,5,14,-5,-1,-6
1532066331071,5,3,8,18,27,3,2,4
1532066331076,3,15,1,-6,2,-4,3,9
1532066331081,-4,-52,-15,-16,-21,7,1,-6
1532066331086,-6,-5,7,16,10,-9,-6,-8
1532066331091,4,-8,-10,-25,32,3,2,-1
1532066331096,0,-8,1,22,-28,-2,0,-2
1532066331101,1,30,18,18,-8,0,-3,7
1532066331106,-3,-11,-2,-31,6,-2,-3,-8
1532066331111,-1,-14,-9,-5,-13,-3,-2,0
1532066331116,11,13,-4,-4,-1,-3,-6,0
1532066331121,-24,-6,-7,-4,7,2,5,-2
1532066331126,-12,-20,8,-48,-8,-2,1,-8
1532066331131,3,12,3,76,4,3,2,0
1532066331136,-2,-3,-6,-64,4,-4,-2,2
1532066331141,6,-3,-9,-26,-35,-2,-3,0
1532066331146,-1,-6,2,43,-5,-6,-7,-2
1532066331151,5,4,3,-9,3,1,-3,-1
1532066331156,-17,0,7,-5,13,8,20,1
1532066331161,1,3,5,35,7,-2,-8,2
1532066331166,-12,9,1,9,-11,-4,3,-2
1532066331171,-4,-3,1,20,-1,-2,-14,-1
1532066331176,-3,-14,-21,-34,-13,-5,5,-3
1532066331181,5,11,1,-34,5,3,5,-3
1532066331186,17,5,6,45,15,-2,1,-2
1532066331191,-20,-21,-8,-51,-15,-4,2,1
1532066331196,0,4,5,9,2,2,-3,3
1532066331201,6,8,4,57,6,0,5,-2
1532066331206,0,-7,11,50,-7,-6,-15,3
1532066331211,4,-5,-28,-85,-14,-2,2,-2
1532066331216,2,1,11,8,8,1,-4,-1
1532066331221,6,2,-3,-8,0,2,3,-1
1532066331226,-6,-7,5,2,30,-2,-1,-4
1532066331231,0,2,2,22,-13,4,4,0
1532066331236,-2,1,1,19,2,0,-12,2
1532066331241,4,12,0,-23,-5,-2,1,9
1532066331246,-1,-4,-6,-9,-6,3,-3,-6
1532066331251,1,7,0,-9,8,-1,0,-7
1532066331256,2,-17,-4,5,-4,-4,-5,-2
1532066331261,4,-5,7,3,0,-1,-4,4
1532066331266,-4,0,-9,-24,-2,-1,-12,-8
1532066331271,2,4,-7,-15,-6,-1,12,-4
1532066331276,1,11,5,17,-4,-3,-9,-7
1532066331281,-1,8,3,-3,-1,-3,-3,4
1532066331286,1,3,-1,-9,-3,8,9,4
1532066331291,7,-3,5,13,0,3,0,8
1532066331296,1,6,0,12,-2,-3,13,1
1532066331301,-4,4,0,-11,0,1,-8,-7
1532066331306,5,-14,-6,-25,-14,-5,-6,-2
1532066331311,-5,-11,3,31,18,-5,-7,-2
1532066331316,-6,9,-9,-15,-26,5,2,-1
1532066331321,8,27,-1,1,-13,-4,3,1
1532066331326,-4,21,10,5,0,2,3,5
1532066331331,0,3,1,0,-1,-5,-2,-4
1532066331336,0,-13,-10,7,16,-3,-8,-5
1532066331341,3,-2,0,-2,-5,0,5,5
1532066331346,-1,-5,0,3,-4,2,10,-3
1532066331351,-6,-7,-3,7,14,2,-3,-8
1532066331356,5,14,-1,-9,-7,-6,-2,1
1532066331361,12,55,9,10,30,2,4,7
1532066331366,-9,-25,3,-9,-22,-2,-5,-3
1532066331371,-8,-17,-19,-8,-4,-4,-4,-13
1532066331376,-7,-96,6,-6,3,-5,-3,-4
1532066331381,5,33,-18,1,-12,8,0,-2
1532066331386,-3,29,13,-5,-21,-6,0,3
1532066331391,8,44,7,-4,-8,1,-5,-1
1532066331396,3,61,5,1,-8,-3,5,7
1532066331401,-4,-44,-5,8,9,0,-2,-3
1532066331406,7,7,2,-2,5,-4,2,11
1532066331411,-4,-54,-2,0,38,-1,-3,-5
1532066331416,-1,35,1,-8,-38,1,-1,-4
1532066331421,-3,-11,7,2,4,0,-5,-3
1532066331426,3,19,-9,-1,1,1,-3,-2
1532066331431,0,-8,4,3,5,-1,6,2
1532066331436,-2,-12,-6,-2,22,2,0,0
1532066331441,-7,-17,-5,6,-9,-1,-5,-7
1532066331446,2,-15,0,1,-4,-1,-1,-1
1532066331451,1,12,4,2,4,2,2,3
1532066331456,-3,-20,-7,-9,0,1,0,0
1532066331461,-1,3,-3,15,-13,-2,-2,-7
1532066331466,3,9,9,37,26,2,0,1
1532066331471,0,-10,3,-7,-16,-2,-1,1
1532066331476,-4,3,-8,19,8,0,-5,-3
1532066331481,-5,-14,-12,-60,-18,-9,-4,-5
1532066331486,4,-5,-9,-18,5,1,1,4
1532066331491,-1,-6,-7,-19,-6,1,2,-2
1532066331496,6,-9,3,-2,-7,-1,-5,1
1532066331501,6,12,11,5,5,0,1,-4
1532066331506,-22,-7,4,23,11,2,4,-2
1532066331511,7,10,4,56,5,2,-7,4
1532066331516,-13,-4,-19,-78,-15,-6,2,-6
1532066331521,-8,-12,-1,2,-4,-1,13,-4
1532066331526,13,1,2,18,1,0,-14,-2
1532066331531,-4,3,7,7,-2,-1,-1,-1
1532066331536,9,-6,-10,11,-1,-3,1,1
1532066331541,-1,-1,4,-8,-7,-3,-5,-1
1532066331546,-1,-3,1,-17,-3,0,5,0
1532066331551,-10,0,-17,-42,1,1,3,2
1532066331556,-1,-1,9,44,4,1,-3,0
1532066331561,6,0,-6,-3,-11,-2,-5,1
1532066331566,24,18,3,43,10,-1,-2,-1
1532066331571,-50,-28,-10,-18,-11,-2,-5,-5
1532066331576,0,-10,-16,-9,-22,-8,3,-5
1532066331581,-16,-2,15,27,13,1,-10,4
1532066331586,24,4,11,-12,4,7,21,20
1532066331591,22,17,26,113,36,8,1,-18
1532066331596,-3,-12,-31,-38,-19,-7,-21,6
1532066331601,-29,-3,1,-41,-10,-2,-4,-10
1532066331606,-9,27,-13,-43,-14,-6,-6,-3
1532066331611,9,24,14,-5,-5,-2,3,14
1532066331616,-18,-73,5,29,25,3,20,-7
1532066331621,9,-26,-23,4,3,-7,-26,-11
1532066331626,-12,-2,3,-20,-6,-1,-8,-1
1532066331631,3,33,4,-21,-15,2,17,2
1532066331636,20,29,23,13,16,7,-1,10
1532066331641,-6,-35,-16,13,-12,-4,-9,-1
1532066331646,-2,43,5,-18,4,5,21,2
1532066331651,20,81,13,-14,-14,-5,-21,-5
1532066331656,-22,-78,-31,0,10,1,5,2
1532066331661,2,74,-2,-15,-10,-5,-29,14
1532066331666,-13,11,-2,19,3,-3,-17,-34
1532066331671,6,18,-3,-20,-15,-7,-34,-11
1532066331676,2,46,14,-10,10,8,45,14
1532066331681,5,-17,9,20,12,2,10,2
1532066331686,2,-27,-7,-3,-6,-5,-11,2
1532066331691,-17,-73,-4,4,-4,-8,2,-2
1532066331696,2,18,-6,-15,-5,-2,-10,-12
1532066331701,11,-5,4,-2,-2,3,14,24
1532066331706,2,4,11,-1,-7,-1,0,-21
1532066331711,-7,-35,-20,-17,-1,-2,9,13
1532066331716,-2,6,4,8,-7,-4,-12,-6
1532066331721,9,41,13,12,27,-2,10,-1
1532066331726,-14,-66,-12,-16,-21,6,-11,-1
1532066331731,0,-18,-9,0,0,2,9,4
1532066331736,6,37,8,6,-5,0,-11,0
1532066331741,8,74,12,6,1,-2,4,-6
1532066331746,-7,-67,-3,6,7,-6,5,14
1532066331751,-5,-6,-11,-10,3,3,3,-8
1532066331756,2,18,2,1,11,3,-2,6
1532066331761,-5,-16,-1,-2,-18,-5,-5,-22
1532066331766,-3,26,-2,4,6,0,4,5
1532066331771,6,-1,0,-10,-8,-1,7,10
1532066331776,4,18,8,8,6,1,-4,-10
1532066331781,-7,-23,0,1,-3,3,10,1
1532066331786,3,19,-6,2,0,-4,-15,0
1532066331791,9,17,0,-7,-1,0,3,3
1532066331796,2,18,15,18,49,-10,-3,-4
1532066331801,-6,-56,-4,-15,4,24,8,4
1532066331806,-13,19,-16,-13,-52,-12,-7,-8
1532066331811,6,13,6,0,4,1,3,-2
1532066331816,-7,-26,-8,-15,-26,-4,-4,2
1532066331821,11,-21,-10,8,26,-1,8,7
1532066331826,-11,-27,6,-1,15,-1,-11,-9
1532066331831,-3,37,-7,1,-1,-4,-13,-28
1532066331836,13,52,15,5,-2,0,-3,6
1532066331841,-18,-57,-11,2,-6,-3,2,-8
1532066331846,4,-25,-10,-2,3,6,12,11
1532066331851,5,19,13,-2,3,-6,2,7
1532066331856,-2,-16,-5,6,4,9,0,-3
1532066331861,1,-2,0,-18,-60,-6,0,3
1532066331866,6,20,-7,0,10,1,1,3
1532066331871,-4,-13,-10,-4,-1,0,-1,-1
1532066331876,-1,11,7,8,6,-1,-3,-1
1532066331881,3,12,2,6,11,-2,-3,-4
1532066331886,3,-1,11,1,4,-3,0,1
1532066331891,-4,-13,2,0,2,1,2,3
1532066331896,-5,-13,-8,-11,-11,1,-1,-3
1532066331901,-2,1,2,8,0,-5,-7,-4
1532066331906,5,15,1,-11,6,-2,5,3
1532066331911,4,-15,21,13,14,6,8,3
1532066331916,3,-11,-17,18,-7,-3,2,0
1532066331921,-3,1,12,5,2,1,-19,4
1532066331926,-20,1,-7,4,-15,-8,-17,-8
1532066331931,-16,-21,-5,-7,0,1,3,4
1532066331936,-10,2,10,12,13,4,-3,-22
1532066331941,17,14,-25,-57,-1,-5,9,-10
1532066331946,12,6,14,49,10,1,1,6
1532066331951,-22,-32,-18,-71,-14,-6,-4,-9
1532066331956,-5,-2,18,10,-4,-1,2,8
1532066331961,5,13,-22,23,-7,-4,-55,-11
1532066331966,-3,-9,3,55,7,2,32,8
1532066331971,0,-5,-2,32,0,0,-29,-2
1532066331976,-1,0,5,-4,-4,-3,11,2
1532066331981,15,3,-11,-75,2,-1,13,5
1532066331986,3,9,20,85,17,4,-1,-2
1532066331991,1,-6,-1,-34,-26,-8,7,-7
1532066331996,-8,3,16,8,-2,-1,-24,-8
1532066332001,0,5,15,15,10,3,28,19
1532066332006,7,4,6,7,4,3,-2,-3
1532066332011,-1,-6,-1,3,4,0,9,9
1532066332016,1,3,-5,-8,-8,-3,-6,-1
1532066332021,-1,6,3,16,-7,-4,14,-4
1532066332026,0,-10,0,-16,15,5,-7,-4
1532066332031,7,-7,-17,-70,-10,1,9,0
1532066332036,6,12,-4,4,-11,3,-2,11
1532066332041,-7,12,11,25,10,-3,5,-7
1532066332046,-9,-21,-10,-9,-12,-9,-12,-17
1532066332051,-1,12,-8,20,10,2,5,-4
1532066332056,5,-22,-2,-10,2,0,-19,-8
1532066332061,-2,41,23,30,6,4,29,17
1532066332066,-9,-80,-10,-32,0,1,6,3
1532066332071,5,23,-8,35,12,3,-6,-9
1532066332076,2,42,-13,-43,-11,-1,26,9
1532066332081,-11,-57,0,29,1,-4,-6,3
1532066332086,-3,31,-7,-33,-8,-3,-18,-27
1532066332091,1,-21,3,10,-5,-3,24,0
1532066332096,-2,-8,2,14,16,-1,6,7
1532066332101,-2,17,10,-2,-15,0,-11,-22
1532066332106,7,29,-10,-30,-28,7,0,31
1532066332111,7,7,-5,14,-2,-4,5,34
1532066332116,-9,-24,-2,1,-12,-2,-18,-72
1532066332121,5,24,6,8,16,-3,8,6
1532066332126,-12,-45,1,-23,14,0,-10,0
1532066332131,-16,-40,-3,19,-6,1,-18,-20
1532066332136,7,-11,-4,-1,-12,-7,-3,18
1532066332141,0,1,-8,-7,-19,6,-3,0
1532066332146,9,35,-2,-6,0,-4,10,-2
1532066332151,5,11,5,6,-2,-4,-54,2
1532066332156,3,37,-6,3,14,0,33,24
1532066332161,-26,-94,-6,-2,0,-7,-18,-28
1532066332166,13,45,5,2,-1,1,4,0
1532066332171,0,-5,-4,6,11,-2,4,8
1532066332176,-9,-48,-10,-11,-13,-2,-13,-22
1532066332181,16,62,4,9,6,5,3,9
1532066332186,17,47,12,-6,6,-7,4,22
1532066332191,-16,-45,27,9,47,-2,-4,-13
1532066332196,-22,-95,-74,2,-22,1,-7,0
1532066332201,2,57,0,-19,-44,4,6,11
1532066332206,2,-20,-24,-1,-10,-2,3,-9
1532066332211,26,64,26,5,-6,-2,16,17
1532066332216,-10,13,14,3,23,-9,-17,-1
1532066332221,-8,-6,10,10,28,2,-18,-20
1532066332226,5,22,2,-5,3,1,3,8
1532066332231,9,20,-7,3,11,-4,5,-3
1532066332236,1,4,23,-7,-14,10,-3,3
1532066332241,-7,-27,-23,0,-6,-4,-2,-3
1532066332246,2,14,26,-5,-2,2,2,1
1532066332251,-4,-26,-5,5,-8,1,10,4
1532066332256,12,22,5,0,1,0,5,7
1532066332261,-9,-3,4,-4,3,-6,-10,4
1532066332266,4,3,14,1,7,-1,0,-1
1532066332271,-10,-17,-8,0,-8,4,2,-6
1532066332276,5,22,14,11,29,-3,-2,1
1532066332281,2,-6,-4,-25,-18,3,5,4
1532066332286,-5,-15,-16,-31,1,-5,-3,-2
1532066332291,2,19,-16,-2,-14,1,-5,-13
1532066332296,-3,-8,20,71,-1,-2,-1,8
1532066332301,-5,-29,-14,-75,4,-6,1,3
1532066332306,-5,-6,2,-24,-6,0,-3,-7
1532066332311,0,5,-18,-16,-14,-1,-3,-2
1532066332316,4,2,-6,-41,-11,-2,-1,3
1532066332321,11,10,2,8,14,0,-1,0
1532066332326,-16,-17,-10,-27,-8,-3,-2,-4
1532066332331,3,12,20,4,0,2,3,-1
1532066332336,-7,9,5,32,6,1,1,1
1532066332341,20,10,3,27,12,0,11,2
1532066332346,-30,-7,-15,-39,-9,-4,-15,-1
1532066332351,-4,-13,-2,15,1,3,7,2
1532066332356,14,10,-8,-43,1,2,-3,-3
1532066332361,-29,-2,7,28,-8,0,21,-2
1532066332366,12,-6,-11,-10,17,2,-7,-4
1532066332371,-7,-5,-5,92,-21,-10,-5,-3
1532066332376,-1,-2,-14,-90,-30,-8,-4,-3
1532066332381,9,8,13,8,11,2,-4,3
1532066332386,5,-9,-8,39,-6,0,-8,2
1532066332391,-19,1,4,21,8,5,2,-3
1532066332396,20,9,8,-2,14,-3,1,4
1532066332401,6,1,5,25,-1,-1,-5,-5
1532066332406,3,0,-2,-11,-7,-4,-1,-7
1532066332411,-3,-4,-12,-13,17,-1,-2,9
1532066332416,-3,2,-17,-8,5,2,-8,-4
1532066332421,-4,-6,-3,-2,25,-3,-12,3
1532066332426,-2,-2,7,29,-27,5,25,-4
1532066332431,8,-3,3,-26,-5,-1,-5,-1
1532066332436,-9,1,3,15,1,1,2,-1
1532066332441,4,12,-2,18,9,0,-7,2
1532066332446,-33,-71,20,6,-12,-5,16,17
1532066332451,-46,-84,-54,6,35,-20,-48,-34
1532066332456,-14,60,-14,-4,-27,-3,0,-29
1532066332461,-1,29,3,-15,-7,0,-19,-29
1532066332466,34,43,22,14,1,4,42,87
1532066332471,17,43,22,-6,-10,4,16,-39
1532066332476,-11,-79,-12,-5,15,-5,-15,6
1532066332481,-6,-16,-12,-12,-8,0,12,9
1532066332486,1,3,3,5,-10,-1,-12,-11
1532066332491,1,5,0,-1,-15,-4,1,13
1532066332496,13,-7,3,34,84,14,5,3
1532066332501,3,4,-5,-32,-96,-3,-5,-2
1532066332506,-17,-10,-1,-2,11,-4,-26,-19
1532066332511,1,-7,-5,1,8,-6,-4,5
1532066332516,3,15,5,1,-4,13,5,-3
1532066332521,-4,35,5,-3,19,2,2,9
1532066332526,16,55,9,8,0,9,14,6
1532066332531,26,93,4,3,-3,-9,2,5
1532066332536,-29,-101,-23,-6,12,-15,-23,-33
1532066332541,-36,-124,-37,7,19,9,-22,-25
1532066332546,-21,66,3,-21,-65,-22,-22,-21
1532066332551,8,40,14,2,31,15,8,6
1532066332556,26,51,39,2,-25,10,12,25
1532066332561,2,22,-28,-24,-63,-19,9,16
1532066332566,7,-45,-2,2,-11,13,10,0
1532066332571,0,-2,9,-3,-31,-2,1,15
1532066332576,0,-10,6,4,30,-15,-5,-3
1532066332581,-4,-14,3,1,28,-2,-5,-7
1532066332586,9,2,5,18,48,10,-3,-9
1532066332591,-2,6,6,-4,1,-12,-1,3
1532066332596,-4,-8,-8,5,-3,9,2,2
1532066332601,-2,5,3,-5,35,0,0,-9
1532066332606,1,-14,-11,7,-25,1,0,-2
1532066332611,-2,-13,-4,-4,-9,5,-1,-1
1532066332616,-4,-12,-10,-36,-10,-6,0,5
1532066332621,4,5,17,40,4,6,-1,-3
1532066332626,0,-18,-20,-26,10,-9,-2,-8
1532066332631,-6,-8,-13,-17,-25,-1,-2,1
1532066332636,2,17,9,7,-10,5,1,4
1532066332641,-2,3,6,15,24,-3,-2,-5
1532066332646,3,-7,-9,-6,14,1,0,-4
1532066332651,-1,6,5,7,-12,-1,0,2
1532066332656,-2,-1,-4,3,-14,-4,0,3
1532066332661,-1,-3,2,-15,10,-1,-6,-5
1532066332666,0,-10,-3,6,3,-3,-2,-1
1532066332671,-1,3,1,-4,-11,5,2,3
1532066332676,-5,-7,1,38,11,-6,0,0
1532066332681,-1,-2,1,-69,-10,2,-1,1
1532066332686,2,1,-4,18,-4,0,-1,-4
1532066332691,-2,-2,-1,-43,0,-4,-2,-1
1532066332696,0,0,1,49,10,0,-1,3
1532066332701,-1,1,3,6,0,2,-3,-2
1532066332706,1,-2,-2,0,-19,0,-3,0
1532066332711,1,0,-3,13,5,3,3,0
1532066332716,0,-1,-2,-31,5,1,1,-3
1532066332721,-1,-1,-1,-2,0,-3,-2,1
1532066332726,-1,-1,5,39,15,-2,-5,-2
1532066332731,-3,1,6,-15,-14,-2,4,0
1532066332736,-1,-2,-11,-15,-15,-1,1,-2
1532066332741,1,-1,2,22,18,0,0,-4
1532066332746,-3,-2,-3,0,1,0,0,2
1532066332751,-1,-1,-5,-59,-12,-3,-4,-2
1532066332756,-2,-2,0,8,-5,-1,-1,2
1532066332761,2,0,6,25,11,2,3,-3
1532066332766,0,-4,-3,-34,2,-1,0,-3
1532066332771,-3,-2,0,21,-6,0,-4,0
1532066332776,0,1,1,0,-6,-1,0,1
1532066332781,0,-1,-4,-16,-7,-3,-2,-2
1532066332786,2,1,8,24,10,2,1,0
1532066332791,-2,-3,-11,-9,-3,-1,0,0
1532066332796,0,1,4,-8,-10,0,-1,0
1532066332801,-2,2,2,56,6,1,0,0
1532066332806,-6,-7,-7,-6,-10,-5,-3,1
1532066332811,1,3,1,-1,4,0,2,-1
1532066332816,-3,-4,2,27,0,-3,-3,-1
1532066332821,0,-1,-1,-39,-2,-1,-2,-2
1532066332826,1,-3,-4,10,35,-3,-1,-3
1532066332831,0,4,6,26,-12,5,-2,1
1532066332836,-1,-3,-6,-27,-24,-4,-1,-1
1532066332841,-2,-3,-8,-18,-11,1,-1,-1
1532066332846,-1,1,4,0,2,-2,0,-1
1532066332851,-1,-1,4,-8,22,4,-2,1
1532066332856,0,-3,-11,-9,19,-1,-2,-1
1532066332861,-2,-4,-3,-4,-43,-6,-1,0
1532066332866,0,-2,0,-12,-7,0,0,-2
1532066332871,0,2,6,44,5,-1,0,-1
1532066332876,-2,1,0,5,-3,0,0,0
1532066332881,0,1,6,-12,21,1,-2,0
1532066332886,-2,-3,-6,-7,3,3,3,-1
1532066332891,2,1,-2,-6,-9,-6,-4,-1
1532066332896,-3,-1,-6,-42,-9,-4,-2,-1
1532066332901,-2,-4,-6,4,-6,-5,-5,-1
1532066332906,2,1,6,13,8,5,-1,0
1532066332911,2,-1,1,24,8,3,3,-2
1532066332916,-1,-10,-19,-9,-1,-3,0,-1
1532066332921,-4,0,1,-4,-29,-8,-3,-1
1532066332926,-1,1,0,-4,6,5,0,-1
1532066332931,-4,-9,-6,-4,-9,-4,-3,-1
1532066332936,2,5,8,24,11,1,1,-1
1532066332941,0,1,-4,-19,11,-1,-1,-2
1532066332946,-1,-3,-3,-10,-17,-7,-2,-1
1532066332951,1,2,0,1,2,-2,1,1
1532066332956,0,-1,-2,-30,-9,0,0,-1
1532066332961,-1,-1,5,34,12,1,0,0
1532066332966,-2,-1,2,5,-10,-1,-4,1
1532066332971,-1,0,-2,-2,2,-3,-1,1
1532066332976,0,0,3,-2,-2,1,-1,0
1532066332981,3,1,-2,14,2,0,0,-1
1532066332986,-2,0,-2,-5,2,1,1,-1
1532066332991,-1,-2,4,6,-2,-2,-3,1
1532066332996,-1,1,0,-2,-5,-3,-4,0
1532066333001,1,2,0,7,6,2,2,0
1532066333006,2,-1,0,0,-5,-3,-1,-2
1532066333011,-1,1,-1,8,7,1,-1,0
1532066333016,-3,1,5,0,-9,-3,1,-1
1532066333021,1,0,-2,-18,11,1,-1,-3
1532066333026,1,-4,-2,-9,-3,-2,1,-2
1532066333031,-5,-4,7,48,-7,-1,-1,1
1532066333036,-1,-2,-3,-11,-1,1,-2,0
1532066333041,-1,-1,1,3,1,-1,0,-2
1532066333046,-1,1,-2,-7,-2,0,0,-1
1532066333051,0,1,-2,-9,2,-1,0,-3
1532066333056,0,1,1,9,0,0,3,0
1532066333061,1,-1,-3,-21,-5,1,-1,-1
1532066333066,1,1,1,20,7,2,2,-1
1532066333071,-5,-2,2,2,-5,-3,-6,-1
1532066333076,-1,-1,-4,-8,-7,-1,-4,1
1532066333081,-2,-1,-2,-3,1,0,0,-1
1532066333086,0,2,-4,-3,-4,-3,0,0
1532066333091,2,0,-3,-6,0,1,3,-2
1532066333096,1,-1,2,5,4,1,1,-1
1532066333101,0,-1,-1,2,-1,0,0,0
1532066333106,1,0,5,-2,-3,-3,-2,0
1532066333111,0,0,-2,-10,-3,-4,0,0
1532066333116,-1,-1,-3,0,0,1,-2,-1
1532066333121,-1,-2,0,3,6,2,1,1
1532066333126,-2,-1,0,4,2,-2,0,-1
1532066333131,-2,-2,-1,-2,-2,-3,-2,-2
1532066333136,-1,-1,1,1,-2,2,-1,-1
1532066333141,0,-1,-2,-6,-2,-2,0,-1
1532066333146,-1,-2,0,1,1,-2,0,-1
1532066333151,0,-2,0,1,-4,0,-2,-2
1532066333156,1,1,0,1,3,-4,-3,1
1532066333161,-4,-4,-2,-2,-8,-3,-3,-2
1532066333166,1,-2,-1,-3,5,2,0,-4
1532066333171,6,1,0,-1,6,0,1,5
1532066333176,-1,-1,-1,1,-3,1,2,1
1532066333181,-6,-1,-3,-6,5,1,-4,-8
1532066333186,6,1,3,1,-5,0,4,8
1532066333191,-2,-1,0,1,-1,1,2,-1
1532066333196,-1,0,1,3,3,2,-2,-2
1532066333201,0,1,0,-2,-3,-1,1,0
1532066333206,-4,-1,-2,0,-3,-6,-8,-5
1532066333211,0,-1,0,0,-6,0,-1,-2
1532066333216,0,-2,-4,-2,0,-2,-1,0
1532066333221,-2,-2,-3,-2,-6,-1,1,0
1532066333226,1,-1,0,3,0,6,1,0
1532066333231,-1,0,-3,-1,4,-4,-2,-1
1532066333236,-4,0,-1,-1,0,1,0,-2
1532066333241,2,-3,-1,-5,3,1,0,1
1532066333246,-2,-1,-3,-2,-9,-6,-6,-3
1532066333251,-1,-2,0,-2,-5,-2,-3,-2
1532066333256,0,-1,-2,-6,-5,-3,-3,-2
1532066333261,2,1,0,0,4,3,3,2
1532066333266,-2,0,0,-2,3,-1,1,1
1532066333271,-2,-3,2,14,0,1,-1,-5
1532066333276,-1,3,2,-10,0,-3,-2,-2
1532066333281,-2,-7,-4,-10,-14,-7,-6,1
1532066333286,1,2,3,4,4,3,2,-1
1532066333291,-2,-6,-10,-7,-6,-4,0,-1
1532066333296,2,0,0,4,-4,0,0,0
1532066333301,1,3,5,5,11,5,3,2
1532066333306,-1,0,-1,-2,1,-1,-2,-3
1532066333311,-2,1,0,-2,-3,-2,-2,0
1532066333316,-4,-8,-8,1,-1,0,1,1
1532066333321,-2,-1,-1,-7,-9,-6,-2,-3
1532066333326,-1,2,5,-5,2,1,-1,-1
1532066333331,1,-1,-1,8,6,-2,0,-1
1532066333336,-2,-3,-3,-3,-8,-2,-2,-1
1532066333341,2,4,4,2,3,-4,-5,-2
1532066333346,-1,-3,0,4,-5,-3,-1,0
1532066333351,2,4,0,7,10,6,5,2
1532066333356,0,0,0,1,5,2,0,-2
1532066333361,-1,1,-1,2,2,0,0,0
1532066333366,-2,-1,-1,2,-4,0,-3,-1
1532066333371,-1,-1,2,-1,-1,-2,0,-2
1532066333376,-1,1,1,2,-1,0,0,1
1532066333381,0,1,0,-8,3,0,-1,-2
1532066333386,-2,-3,-2,0,0,-2,-1,1
1532066333391,1,-1,-3,-1,-4,-1,-2,-4
1532066333396,0,4,7,6,4,-3,-4,-3
1532066333401,-3,-5,-5,0,-7,-1,1,-1
1532066333406,2,3,-1,-15,2,4,2,-2
1532066333411,-1,1,1,3,5,-1,-1,1
1532066333416,0,-2,3,-1,-12,-8,-4,-2
1532066333421,0,-3,-5,-4,-6,-7,-10,-4
1532066333426,-2,0,-5,3,0,4,5,-1
1532066333431,-4,-4,-4,-8,4,8,8,3
1532066333436,-2,-2,-6,2,4,-2,-4,0
1532066333441,-2,-5,-3,-10,-5,0,-1,0
1532066333446,-1,0,2,-4,-1,-5,-4,-2
1532066333451,0,-1,-2,4,-4,1,-1,-1
1532066333456,1,1,-2,1,1,2,1,0
1532066333461,-1,-5,-3,-8,-2,-3,-2,-3
1532066333466,-1,-1,-1,4,-1,1,-1,1
1532066333471,1,2,5,4,4,-1,-1,-1
1532066333476,2,4,5,-6,0,-2,-6,-2
1532066333481,-1,0,-4,10,0,3,4,1
1532066333486,1,-1,3,4,1,-4,-4,-4
1532066333491,-4,0,2,-2,4,5,7,0
1532066333496,0,-2,0,-3,-1,-2,0,-2
1532066333501,-1,0,-7,-13,2,0,-1,2
1532066333506,0,-3,-3,16,-1,-3,-6,-1
1532066333511,-2,-2,-11,-23,-18,-8,-9,0
1532066333516,2,-2,-3,1,9,1,3,-1
1532066333521,-1,-10,-10,-7,-10,-1,4,-1
1532066333526,-4,-10,-16,-11,-8,6,11,5
1532066333531,2,1,5,12,8,-1,2,0
1532066333536,-2,0,6,5,2,0,-2,-1
1532066333541,-4,-6,-11,-16,-8,-4,-2,-1
1532066333546,-2,2,-3,-15,2,-1,-3,-1
1532066333551,2,0,6,13,3,0,-1,-2
1532066333556,0,-2,-4,-7,1,-1,2,0
1532066333561,-2,3,12,17,-2,-4,-9,-2
1532066333566,0,0,6,-7,-7,-6,-3,-3
1532066333571,0,3,-6,-11,3,2,1,3
1532066333576,-1,3,16,17,8,-4,-10,-4
1532066333581,2,-3,-7,-7,-1,4,4,1
1532066333586,1,3,3,8,1,-3,-3,-2
1532066333591,-1,-7,-26,-21,-5,1,3,1
1532066333596,2,5,10,10,10,5,5,4
1532066333601,-8,-14,-11,-1,-5,2,4,2
1532066333606,-3,-3,0,-6,-3,-2,-3,-2
1532066333611,2,-2,0,3,-3,-5,-5,-4
1532066333616,-3,-10,-20,-11,-9,-3,1,-1
1532066333621,3,8,3,-4,5,1,-3,-3
1532066333626,0,5,16,16,8,0,0,1
1532066333631,-2,-3,-1,-3,-4,-3,-4,-1
1532066333636,-5,-7,-7,-5,-7,-1,2,0
1532066333641,4,8,14,10,6,-3,-5,-2
1532066333646,-2,-2,0,1,-3,0,0,0
1532066333651,-3,-1,1,10,1,2,-2,2
1532066333656,-4,-3,-2,-6,-2,-3,-4,-1
1532066333661,3,2,-1,-9,1,-3,-1,0
1532066333666,4,-5,-14,15,2,6,7,3
1532066333671,-3,-3,6,-2,-2,-3,-4,-1
1532066333676,4,10,12,-18,-1,3,1,1
1532066333681,0,0,-8,-7,-7,-4,3,-1
1532066333686,-8,-14,-14,2,-4,-6,-10,1
1532066333691,4,2,-9,1,-3,-4,-2,-2
1532066333696,-3,0,-5,-21,-12,-1,4,3
1532066333701,1,6,13,9,6,3,4,-1
1532066333706,3,15,33,2,11,3,-1,-5
1532066333711,-2,-9,-14,-8,1,0,-1,-1
1532066333716,0,-11,-18,-7,-9,-2,1,0
1532066333721,-2,0,9,0,-6,-5,-4,0
1532066333726,3,7,17,15,1,0,-1,-3
1532066333731,-4,-5,-8,-9,1,-1,4,-1
1532066333736,2,9,6,8,8,3,-1,2
1532066333741,-6,-8,-16,-9,-4,-1,0,-1
1532066333746,-1,1,6,14,-1,-4,-4,-1
1532066333751,0,6,29,9,-10,-9,-14,-6
1532066333756,-9,-2,21,-6,1,1,-2,2
1532066333761,1,9,17,-3,3,3,3,-2
1532066333766,-1,0,-2,3,3,0,0,-3
1532066333771,-3,-11,-5,14,-11,-6,-5,-3
1532066333776,3,6,14,25,1,-5,-9,-5
1532066333781,-2,2,-5,-3,-3,1,2,4
1532066333786,1,-1,-8,-13,1,1,5,2
1532066333791,1,-1,-4,-3,3,3,9,-1
1532066333796,-1,-13,-26,-15,-5,-3,-3,0
1532066333801,2,-3,1,-1,-8,-11,-13,-5
1532066333806,2,1,6,-5,3,2,1,0
1532066333811,-3,-10,-17,0,10,8,14,8
1532066333816,-5,4,17,23,-7,-3,-9,-2
1532066333821,-1,-10,-8,-11,7,4,3,2
1532066333826,-2,-6,-24,-31,-21,-11,-5,-3
1532066333831,1,8,13,-8,-15,-3,-7,0
1532066333836,6,12,10,11,18,5,5,-1
1532066333841,0,-18,-16,7,-2,0,7,2
1532066333846,-4,-5,-5,6,8,7,5,-1
1532066333851,-1,0,14,-24,-3,-8,-14,-6
1532066333856,2,-5,-10,-9,-13,-6,-1,-6
1532066333861,-2,11,15,17,5,2,4,5
1532066333866,-1,-1,-11,-16,1,3,3,1
1532066333871,2,3,6,18,5,2,3,-2
1532066333876,-1,-11,-19,-4,-5,-10,-9,-5
1532066333881,5,15,19,-18,9,6,-2,-2
1532066333886,-6,-11,-7,3,-12,0,5,3
1532066333891,0,4,21,24,7,0,-4,1
1532066333896,-2,-9,-16,-28,-10,0,4,2
1532066333901,-1,2,3,4,7,-1,-5,-3
1532066333906,3,4,10,13,18,-4,-5,-5
1532066333911,-2,6,-10,-14,-2,4,0,2
1532066333916,-1,-3,5,26,17,2,1,0
1532066333921,1,-5,-14,-3,12,12,8,0
1532066333926,2,2,1,2,-9,-10,-2,1
1532066333931,1,13,-2,-26,-4,-1,-2,-1
1532066333936,-4,-1,-5,-5,-13,-2,0,-1
1532066333941,0,4,5,13,0,-10,-17,-12
1532066333946,-2,2,2,5,12,0,-1,-2
1532066333951,2,6,4,8,-2,-2,9,5
1532066333956,0,0,-8,-19,5,12,10,5
1532066333961,-7,-1,5,-14,-39,-7,-8,0
1532066333966,6,11,12,11,0,-5,-8,0
1532066333971,1,-1,-8,0,-6,-6,-6,-7
1532066333976,1,-4,3,16,16,-5,2,-6
1532066333981,0,-9,-12,-13,-21,2,3,7
1532066333986,-3,5,5,-8,11,1,-3,-1
1532066333991,-1,-15,-18,6,3,4,4,3
1532066333996,1,4,2,4,-8,-1,-3,2
1532066334001,1,6,12,51,49,3,4,-1
1532066334006,1,1,-7,-36,-32,4,4,-3
1532066334011,-5,-6,-6,3,-13,3,0,4
1532066334016,0,4,8,22,-15,-12,-5,-7
1532066334021,-1,1,-14,-42,9,15,6,7
1532066334026,-1,-17,-17,-5,-14,-5,4,5
1532066334031,-2,-6,-5,23,56,1,-8,-7
1532066334036,-4,-8,9,0,-43,-10,-6,-2
1532066334041,-4,1,-18,-16,-17,0,3,2
1532066334046,2,-2,-2,2,-14,7,9,3
1532066334051,-3,-5,1,-16,-17,-8,-10,0
1532066334056,2,0,0,50,82,0,-7,-6
1532066334061,-6,-4,-10,-29,-29,-13,-17,-8
1532066334066,2,-6,4,38,35,0,5,-3
1532066334071,-5,-1,9,4,-49,-10,-3,0
1532066334076,-1,1,-17,-102,-54,11,5,6
1532066334081,2,-10,-1,4,-38,-2,9,7
1532066334086,0,5,-11,8,48,3,-4,-1
1532066334091,1,1,0,5,0,-1,0,-2
1532066334096,5,5,10,14,2,1,7,1
1532066334101,0,3,1,44,48,18,18,11
1532066334106,-10,-7,9,-55,-66,-9,-19,-2
1532066334111,-3,-4,18,18,44,-2,-13,-18
1532066334116,-7,-7,-19,-24,-48,-8,-4,2
1532066334121,6,5,-7,21,16,-8,-9,-7
1532066334126,3,7,10,37,26,4,9,6
1532066334131,3,2,-11,-52,-34,4,10,6
1532066334136,1,-2,-3,-16,-14,-2,0,13
1532066334141,-2,2,-3,14,12,6,6,0
1532066334146,0,1,6,-4,-4,-1,1,0
1532066334151,-1,10,14,-3,9,-5,-7,-4
1532066334156,-2,-1,-1,-1,-5,-4,-1,-5
1532066334161,-3,-2,9,-5,-14,-2,-3,3
1532066334166,-1,-4,-10,5,4,-1,-4,5
1532066334171,-1,1,1,8,0,-1,-3,-8
1532066334176,3,-1,-2,-11,-9,1,-30,-9
1532066334181,1,1,-12,-1,2,3,74,19
1532066334186,-4,-4,0,13,9,1,6,-6
1532066334191,-2,-5,1,14,6,-1,6,3
1532066334196,-1,-1,-12,-18,-9,-2,-11,-10
1532066334201,0,-4,7,-10,0,-3,-22,-4
1532066334206,-1,-5,1,0,-2,-1,-1,-1
1532066334211,2,0,2,21,-1,-1,2,-4
1532066334216,0,0,-4,-17,3,1,6,1
1532066334221,-1,-10,-19,-2,-7,-7,-19,-7
1532066334226,-1,-8,-14,1,4,1,6,2
1532066334231,-3,-7,0,-9,-7,-4,-12,0
1532066334236,-2,-6,-8,0,-2,-4,-1,-4
1532066334241,-3,-1,1,0,2,4,0,2
1532066334246,1,1,4,-1,4,6,-2,-1
1532066334251,0,-1,-3,-5,1,2,2,1
1532066334256,-2,-1,-4,-1,-2,-1,6,-1
1532066334261,4,4,5,6,1,-4,-9,-7
1532066334266,-3,1,-12,-11,-15,-3,-3,1
1532066334271,-1,4,0,-15,5,0,0,2
1532066334276,-3,0,-9,-5,-5,-4,2,-1
1532066334281,0,1,6,3,-3,-1,-11,0
1532066334286,2,3,6,-3,5,-1,-3,-1
1532066334291,1,3,9,4,4,1,3,1
1532066334296,0,-1,-3,-3,-4,-1,3,0
1532066334301,-1,2,-4,-3,13,-3,-5,-3
1532066334306,-1,0,12,20,-3,2,3,-1
1532066334311,-1,-3,4,-25,-19,-5,-4,-2
1532066334316,-3,-2,-10,10,22,3,2,-1
1532066334321,-1,-1,-5,28,-5,3,0,0
1532066334326,-2,-6,-27,-15,-1,-3,-1,1
1532066334331,1,-1,-3,5,0,-3,-6,-2
1532066334336,1,0,10,13,-10,-2,0,-2
1532066334341,1,-2,-4,-24,-1,0,-5,-3
1532066334346,1,1,13,41,11,-1,-2,1
1532066334351,-6,-10,-10,-57,-17,-7,-3,-2
1532066334356,2,4,20,61,5,1,5,-1
1532066334361,-3,-3,6,-36,-6,-3,-7,-2
1532066334366,-2,-5,-12,-20,-12,-4,-4,0
1532066334371,2,4,5,51,28,10,4,1
1532066334376,-1,-6,-10,-31,11,-2,0,-3
1532066334381,1,1,9,5,-19,-2,-2,-2
1532066334386,-4,-6,-8,6,-14,-10,-4,-1
1532066334391,3,2,4,17,10,14,0,0
1532066334396,-2,2,-7,-9,-2,-4,-1,1
1532066334401,-2,-4,-11,-4,-1,-14,-7,-3
1532066334406,1,1,-14,-46,-20,14,-3,-2
1532066334411,3,2,1,69,47,10,18,5
1532066334416,-7,-7,-17,-51,-33,-14,-4,1
1532066334421,-1,1,-4,-2,5,-1,-2,2
1532066334426,-1,0,6,6,-3,-6,-7,-5
1532066334431,3,1,-14,-26,14,10,6,0
1532066334436,1,4,18,40,29,8,7,3
1532066334441,2,0,-29,-54,-15,7,3,3
1532066334446,-4,-4,10,65,14,-1,-5,-1
1532066334451,4,-1,12,-38,5,-16,-10,-9
1532066334456,-4,-3,-11,32,-48,-1,-5,6
1532066334461,-1,3,11,33,-6,-11,-4,-1
1532066334466,2,1,-4,-34,-1,7,1,-1
1532066334471,-1,-1,0,19,-11,-9,-3,-3
1532066334476,1,0,13,47,41,2,-3,-3
1532066334481,0,-2,-6,-28,-18,10,2,2
1532066334486,0,-3,-6,-32,-13,-8,1,2
1532066334491,-4,-3,-4,13,-7,-2,-4,0
1532066334496,3,1,4,-18,28,5,-1,-4
1532066334501,-1,-2,-8,18,23,17,5,0
1532066334506,-1,1,11,7,9,-1,3,1
1532066334511,-4,-2,-9,-94,-23,-12,-6,2
1532066334516,-5,-3,-3,6,-42,3,-5,3
1532066334521,3,0,11,7,13,-2,-2,-4
1532066334526,4,3,-5,-9,12,-7,0,-1
1532066334531,-1,-3,3,-13,-9,0,-4,-1
1532066334536,1,0,3,7,6,2,2,-2
1532066334541,-3,-4,0,-19,-4,-9,-2,-1
1532066334546,3,5,2,4,28,6,2,2
1532066334551,-4,-2,-24,-60,-30,-14,-5,-1
1532066334556,3,2,-7,-5,8,3,0,-5
1532066334561,-9,-7,-1,61,-28,9,-1,7
1532066334566,14,9,4,-6,59,43,27,1
1532066334571,-11,-8,12,110,-13,-14,-10,0
1532066334576,2,2,-6,1,1,4,3,5
1532066334581,-2,0,5,-45,-2,-25,-11,-6
1532066334586,-2,-4,-9,-65,-31,-15,-9,-3
1532066334591,5,6,9,73,11,7,6,-2
1532066334596,-1,-3,-4,-31,-11,-6,-3,-3
1532066334601,2,2,-2,58,19,9,2,-1
1532066334606,-3,-4,-5,-86,-23,-9,-4,-2
1532066334611,1,0,3,-2,7,1,-1,-2
1532066334616,-3,-1,-1,-9,-8,-2,-2,0
1532066334621,8,8,12,31,33,10,9,0
1532066334626,-7,-8,-17,16,-31,-17,-11,-2
1532066334631,-4,2,14,92,13,-4,-2,0
1532066334636,-3,-1,-9,-67,-26,-5,-2,3
1532066334641,4,2,0,-9,21,14,6,-1
1532066334646,1,2,0,4,2,-2,4,1
1532066334651,-2,-5,-9,-7,-14,-3,-3,-5
1532066334656,1,-1,-2,-20,2,-2,-1,-4
1532066334661,-5,-2,1,-20,-9,-10,-5,-3
1532066334666,-2,-3,0,40,-7,-8,-7,0
1532066334671,-1,-1,2,-22,4,10,-1,1
1532066334676,3,3,2,23,24,12,8,-1
1532066334681,-2,-2,0,30,-4,-4,-3,-1
1532066334686,-9,-4,4,15,-18,-8,-9,0
1532066334691,5,3,-9,-59,1,1,7,2
1532066334696,-4,-4,9,70,4,-1,-6,-3
1532066334701,-1,-2,-22,-58,-2,-2,0,2
1532066334706,0,1,8,28,14,-4,-2,-4
1532066334711,-1,0,5,19,-11,-7,-8,-1
1532066334716,0,0,-2,-15,-12,5,-1,-3
1532066334721,3,4,-1,-11,11,13,8,-1
1532066334726,6,7,-3,-37,9,8,3,3
1532066334731,3,4,6,29,20,21,12,3
1532066334736,-4,-4,1,48,-4,-7,-4,0
1532066334741,3,2,-2,-68,-12,-10,-1,0
1532066334746,-1,-1,14,116,5,-6,-7,-4
1532066334751,-1,-3,-27,-94,-16,-7,-4,-4
1532066334756,-1,-5,0,1,7,-2,-1,0
1532066334761,-1,4,15,12,-16,2,2,1
1532066334766,-1,-8,6,-48,12,3,4,0
1532066334771,-1,2,9,59,-8,-3,0,1
1532066334776,1,1,3,19,17,6,4,1
1532066334781,-8,-8,-16,-56,-13,-3,-3,-3
1532066334786,1,4,-3,-5,13,4,3,0
1532066334791,1,2,16,21,-2,-5,-1,-2
1532066334796,3,2,-13,-1,0,1,4,-2
1532066334801,-4,1,23,87,18,0,-7,4
1532066334806,-1,-8,-58,-54,-49,-11,-4,-4
1532066334811,-8,-8,14,-11,-3,-15,-11,0
1532066334816,0,3,8,6,2,17,3,1
1532066334821,3,-2,-14,0,5,-3,8,-1
1532066334826,4,9,20,31,26,9,7,1
1532066334831,-1,-3,-26,-16,-3,-2,6,-2
1532066334836,-8,-8,14,-22,-56,-20,-3,-3
1532066334841,5,9,12,-20,15,2,6,-1
1532066334846,2,4,2,-14,-32,-1,4,-1
1532066334851,-12,-21,-5,91,25,-4,-11,-3
1532066334856,4,2,5,-8,19,2,-3,1
1532066334861,-4,-6,-16,-25,0,8,-4,1
1532066334866,17,19,32,-49,-23,-16,-11,-1
1532066334871,-6,-15,-18,-4,-16,-2,3,-6
1532066334876,1,9,0,-7,28,7,5,-2
1532066334881,-16,-20,-9,-99,-61,-17,-10,-4
1532066334886,1,-2,-15,72,42,5,-5,-2
1532066334891,2,14,54,111,59,13,-4,5
1532066334896,-11,-27,-97,-127,-87,-22,-17,-7
1532066334901,16,9,-5,35,42,11,4,7
1532066334906,-13,-12,4,13,0,-5,-11,-5
1532066334911,7,13,16,-34,-28,0,-4,-3
1532066334916,-12,5,43,107,50,5,1,1
1532066334921,-3,-3,-35,-62,-9,-5,3,-3
1532066334926,-9,-16,-19,-26,-7,-4,5,2
1532066334931,7,4,-22,-28,-22,2,2,1
1532066334936,8,12,22,-12,9,5,-1,-1
1532066334941,11,19,55,125,37,10,0,-1
1532066334946,-1,-19,-61,-109,-8,-2,-13,-3
1532066334951,23,28,3,-72,-5,5,2,6
1532066334956,-34,-21,-3,61,-6,-5,-10,-6
1532066334961,9,9,41,76,51,8,6,-2
1532066334966,-15,-16,-43,-59,-70,-12,-1,-3
1532066334971,8,11,16,-20,21,3,4,0
1532066334976,14,7,-7,-1,17,4,7,3
1532066334981,4,3,3,-60,-20,-1,5,-3
1532066334986,-8,8,49,36,3,3,0,5
1532066334991,10,-2,-1,-32,15,1,5,7
1532066334996,3,-4,-1,50,36,-3,-1,-2
1532066335001,-8,-18,-21,-45,-67,-12,-8,-10
1532066335006,22,28,51,108,72,19,10,2
1532066335011,-35,-34,-21,0,-66,-20,-18,-3
1532066335016,9,2,-8,-25,-3,0,-2,3
1532066335021,-3,-1,-28,-78,-2,-2,2,2
1532066335026,5,7,27,55,32,4,20,-1
1532066335031,6,1,0,51,34,8,15,-3
1532066335036,4,-5,10,-20,-30,-4,1,-1
1532066335041,-21,-2,16,85,26,-3,-12,3
1532066335046,5,4,-6,-14,6,1,-13,-8
1532066335051,-17,-26,-61,-76,-36,-14,-15,-5
1532066335056,-1,3,6,-27,-5,-1,-4,3
1532066335061,9,-9,-35,43,-9,-3,-8,-4
1532066335066,-3,-4,11,-9,-4,-1,-20,2
1532066335071,13,11,0,-35,17,8,-28,-3
1532066335076,12,18,70,59,80,14,-25,4
1532066335081,-21,-34,-96,-128,-98,-29,-45,-2
1532066335086,0,1,33,-60,-36,-7,24,0
1532066335091,-7,-3,-1,55,6,-3,1,-2
1532066335096,8,9,-7,-37,16,4,20,2
1532066335101,3,12,38,55,21,5,17,-5
1532066335106,1,-17,-62,24,-40,-14,11,3
1532066335111,1,4,40,59,2,0,3,0
1532066335116,-29,-5,8,-17,-19,0,-14,-4
1532066335121,-10,-5,18,43,27,4,1,-4
1532066335126,0,10,33,94,54,6,-35,-7
1532066335131,1,2,43,48,24,2,13,5
1532066335136,-10,-36,-105,-97,-84,-20,5,-3
1532066335141,-1,2,11,2,-26,3,18,3
1532066335146,4,9,19,-12,24,4,2,2
1532066335151,-4,6,19,53,-2,2,-1,-3
1532066335156,2,1,-1,-7,4,-2,8,-2
1532066335161,6,0,-18,-53,1,0,12,3
1532066335166,1,-4,-5,-37,-19,-1,14,-3
1532066335171,0,4,-10,-15,3,1,4,0
1532066335176,0,1,-6,-10,-10,-2,7,-2
1532066335181,8,14,18,37,24,2,3,1
1532066335186,-12,-12,-9,-72,-35,-3,-3,0
1532066335191,0,2,-7,-45,10,3,6,-1
1532066335196,-1,1,10,109,15,4,0,0
1532066335201,-9,-7,41,-35,-2,1,-4,5
1532066335206,4,0,-27,-61,12,1,-24,-8
1532066335211,-34,-11,-42,-25,-7,-6,9,0
1532066335216,16,9,4,-15,-11,0,0,-1
1532066335221,10,2,-6,8,6,1,-4,-1
1532066335226,-11,-8,-3,5,1,0,-2,2
1532066335231,14,4,2,13,-7,2,-4,0
1532066335236,-4,0,8,-13,6,-1,-3,0
1532066335241,-11,0,-7,15,18,1,4,-1
1532066335246,2,5,-2,26,-11,-3,-5,0
1532066335251,-2,-3,-20,-14,-6,2,-6,-2
1532066335256,5,1,13,-3,-1,-1,10,3
1532066335261,4,3,8,12,8,2,-7,1
1532066335266,-17,-8,-6,18,-5,-3,-3,-2
1532066335271,11,-4,-3,-9,-4,-4,-2,-7
1532066335276,1,4,1,-18,-2,-3,-7,-2
1532066335281,10,4,-2,-14,-8,-1,-3,-1
1532066335286,-5,-5,1,60,21,4,-11,3
1532066335291,-2,-8,4,-55,-11,-3,0,5
1532066335296,29,5,6,-19,-9,-1,0,1
1532066335301,-38,-5,-6,4,-1,-4,0,-8
1532066335306,15,2,-7,24,2,-1,8,1
1532066335311,-10,1,15,11,12,1,0,-3
1532066335316,10,-1,-2,6,-1,0,-3,1
1532066335321,10,-2,-4,1,-3,0,0,2
1532066335326,-15,-5,-6,-20,-11,-2,6,-2
1532066335331,7,2,8,14,8,3,2,4
1532066335336,3,5,-1,-10,-1,0,-5,-4
1532066335341,0,2,10,10,6,-1,0,-3
1532066335346,-2,-4,-3,-16,-2,0,8,0
1532066335351,8,6,-3,13,3,-2,-6,-1
1532066335356,-14,-7,-15,-8,-9,0,3,-1
1532066335361,-2,0,6,11,-5,-1,0,-1
1532066335366,4,-5,-10,-33,-6,-3,-1,2
1532066335371,1,-3,11,6,-5,-1,-2,-1
1532066335376,-11,-4,2,20,9,0,0,0
1532066335381,2,-3,-6,-20,-12,-3,4,-3
1532066335386,28,11,6,4,0,-1,7,5
1532066335391,-40,-11,4,21,-7,-3,-2,-7
1532066335396,-5,1,5,5,2,-2,-3,-5
1532066335401,10,1,-3,13,0,-2,-3,0
1532066335406,-2,-1,-1,-5,1,0,-6,-4
1532066335411,9,2,0,8,-2,1,4,3
1532066335416,2,-2,1,-29,-3,-2,-2,1
1532066335421,-3,-2,-7,67,21,2,6,0
1532066335426,-2,2,10,9,-12,-4,-10,-2
1532066335431,7,-3,2,-1,-6,-1,2,-1
1532066335436,-11,-2,-5,-32,-4,0,-1,0
1532066335441,4,0,-1,-9,-1,-1,-8,1
1532066335446,-7,-1,1,13,4,0,1,-1
1532066335451,3,-1,-9,20,9,-1,2,-2
1532066335456,-1,0,-4,-16,-10,-1,2,-1
1532066335461,1,-2,-4,-14,-7,-2,-6,1
1532066335466,-2,-1,6,6,-1,0,-4,1
1532066335471,-4,-5,-7,-14,-7,-4,4,-1
1532066335476,2,4,3,9,1,0,1,1
1532066335481,-1,-5,-4,-7,2,1,-3,0
1532066335486,-5,-4,3,-5,-1,-1,-2,0
1532066335491,7,3,5,-9,-5,-2,2,-1
1532066335496,-2,-2,-3,11,5,2,-5,-1
1532066335501,-2,-4,-3,-3,-5,1,-6,-1
1532066335506,-1,0,-8,-5,-1,-2,-11,-2
1532066335511,3,2,-1,-10,-2,-1,-4,-1
1532066335516,-1,-2,2,10,2,-1,0,-2
1532066335521,-1,-1,2,-5,-3,-1,5,0
1532066335526,-4,-3,-3,-6,-1,-1,7,-1
1532066335531,2,0,-3,-4,-1,-1,-3,0
1532066335536,-3,-1,5,24,0,-3,6,0
1532066335541,3,2,-5,-31,-9,-1,0,-2
1532066335546,-5,0,-6,-3,2,1,1,-2
1532066335551,-2,-2,-4,7,1,-1,3,0
1532066335556,-4,-2,-10,6,1,0,-6,1
1532066335561,5,4,6,1,-4,-6,3,1
1532066335566,-5,-1,-1,0,2,5,-3,-2
1532066335571,1,3,5,-11,-4,-1,-6,0
1532066335576,-6,-7,-23,-1,-5,-2,3,-1
1532066335581,2,1,2,7,0,-4,5,-2
1532066335586,0,-2,2,-1,-3,-2,6,0
1532066335591,-3,-1,-4,-1,3,2,-3,0
1532066335596,-1,0,7,0,-2,-3,-3,-2
1532066335601,2,1,-1,1,-3,-2,-3,-1
1532066335606,-4,-5,0,5,3,-1,-1,0
1532066335611,-3,-3,-6,-6,-5,-2,-7,-2
1532066335616,3,2,6,0,0,0,-7,0
1532066335621,-2,-1,-5,-2,1,0,-7,-1
1532066335626,-3,-1,1,-3,-3,0,-4,-1
1532066335631,1,1,-2,-2,0,0,-1,-2
1532066335636,-5,-2,4,1,2,1,-2,-1
1532066335641,0,1,-1,1,-1,-4,-5,2
1532066335646,1,-1,5,2,2,-4,-6,1
1532066335651,0,-2,4,0,-2,-5,-7,1
1532066335656,-1,2,0,-3,-1,0,-8,0
1532066335661,-6,-7,4,1,2,4,-5,0
1532066335666,-1,0,-5,1,-3,0,0,1
1532066335671,-1,-2,-7,-6,-1,1,1,-1
1532066335676,2,1,8,0,-1,0,0,-2
1532066335681,-1,0,-3,1,0,2,-4,-2
1532066335686,-2,2,-11,-4,-2,0,-2,1
1532066335691,-2,-4,-2,-3,-3,4,-6,-1
1532066335696,-2,-3,-1,0,-2,-1,0,0
1532066335701,2,1,3,-2,-2,0,-2,-2
1532066335706,5,7,-13,-1,0,-2,-1,-3
1532066335711,-2,-1,2,0,-1,2,-4,0
1532066335716,0,-2,-1,-1,-1,-3,-8,0
1532066335721,-2,0,-3,0,-1,-2,-1,1
1532066335726,0,-1,5,-1,-1,-2,1,-1
1532066335731,-3,-2,-1,0,2,1,4,-1
1532066335736,0,0,2,1,0,0,6,-1
1532066335741,-2,-2,-6,-1,0,-4,1,0
1532066335746,-1,0,4,2,-1,-6,0,-1
1532066335751,1,-1,-2,0,1,1,2,0
1532066335756,1,-1,-2,-2,-1,3,9,0
1532066335761,0,-1,-2,-1,0,4,5,-2
1532066335766,-3,-3,6,1,-1,0,3,0
1532066335771,-1,1,2,0,-1,-4,1,1
1532066335776,-3,-1,-1,-1,-1,-6,-4,1
1532066335781,0,-2,4,1,-1,-5,3,-1
1532066335786,7,4,3,-4,-5,-10,6,-1
1532066335791,-8,-10,3,2,1,-2,-3,-1
1532066335796,0,-1,1,0,0,-2,-2,-2
1532066335801,-2,-1,-3,-2,-1,-1,-11,-1
1532066335806,0,-1,0,0,-1,0,5,0
1532066335811,2,4,-4,0,0,1,3,-2
1532066335816,-3,-1,4,-1,1,1,4,-1
1532066335821,-4,-2,-1,-1,0,2,5,0
1532066335826,-1,-2,-1,-1,1,3,5,0
1532066335831,2,2,0,-3,-2,-1,-1,0
1532066335836,1,1,-14,0,0,0,-1,-1
1532066335841,-2,2,1,0,-2,1,-3,0
1532066335846,-2,-4,-1,-4,-1,3,-11,-2
1532066335851,-1,-4,-1,0,-2,-1,-6,2
1532066335856,0,-1,-2,-4,-1,1,-3,-2
1532066335861,1,0,-1,-1,-2,-2,1,-1
1532066335866,-2,-4,2,0,-2,-1,0,-1
1532066335871,-1,0,-2,-2,0,0,-6,-2
1532066335876,-5,-6,0,-1,0,1,-27,-1
1532066335881,0,-2,0,-1,-1,-1,17,-1
1532066335886,-2,-7,3,0,1,0,53,-2
1532066335891,6,4,1,-2,-1,-2,14,-1
1532066335896,-3,-1,3,0,0,1,-23,0
1532066335901,0,-2,0,-1,0,2,-41,-4
1532066335906,-3,3,-9,-2,1,1,-36,0
1532066335911,-2,-1,1,0,-2,-2,10,-1
1532066335916,1,-3,5,-1,-2,-3,23,0
1532066335921,2,1,1,-2,-2,-1,15,-1
1532066335926,0,1,-2,0,-1,-2,-5,-2
1532066335931,-1,-2,0,-2,0,-2,-20,1
1532066335936,0,1,-1,-1,-1,-4,16,-1
1532066335941,-1,-2,1,-1,-3,-3,5,-2
1532066335946,-4,-4,-2,0,-1,0,2,-1
1532066335951,1,2,-1,-1,-2,0,1,0
1532066335956,0,1,0,-2,-1,0,-7,0
1532066335961,2,-2,-2,0,0,-1,-6,0
1532066335966,-3,1,-3,-1,-3,-3,-8,-1
1532066335971,-2,-1,-2,-2,-2,-7,-16,-1
1532066335976,-2,1,-2,2,1,-2,-7,-2
1532066335981,-3,-2,-1,1,1,0,-6,-1
1532066335986,6,8,-6,-5,-4,-4,-17,-2
1532066335991,-3,-5,1,2,2,-1,3,-3
1532066335996,-3,-2,0,-1,-1,0,12,-3
1532066336001,-1,0,-2,-1,-1,-3,-1,0
1532066336006,-1,-2,1,0,-2,-3,-12,0
1532066336011,2,1,-1,-1,0,1,-15,1
1532066336016,3,5,-7,1,0,0,-14,0
1532066336021,-2,-6,9,0,0,1,-12,-1
1532066336026,-2,-1,1,-1,1,5,-13,-1
1532066336031,0,2,1,-1,0,1,-5,-2
1532066336036,-2,-5,1,2,1,5,-7,-2
1532066336041,-2,-1,-4,0,0,2,-3,0
1532066336046,4,2,2,-1,-3,-1,0,2
1532066336051,-3,-5,-2,-1,-2,2,2,1
1532066336056,0,-1,-3,-3,-4,-3,3,0
1532066336061,-1,-4,7,2,0,-1,-2,-1
1532066336066,-2,-4,1,-2,-1,-3,3,-3
1532066336071,2,2,0,-1,-2,-2,5,0
1532066336076,0,0,3,-3,-2,-4,-2,-2
1532066336081,0,-1,-3,0,0,-1,6,-2
1532066336086,0,-2,2,0,-1,-2,-2,-1
1532066336091,1,1,-1,-1,-3,-2,-1,-3
1532066336096,-1,-3,1,-1,-1,-1,5,-2
1532066336101,0,1,-4,-3,-2,-3,5,-1
1532066336106,-1,-1,-1,-2,-1,0,3,-1
1532066336111,1,-2,-11,-3,-3,-2,0,-1
1532066336116,-7,-13,4,0,-3,-2,1,3
1532066336121,-2,1,-5,-2,-3,0,-1,0
1532066336126,-1,-3,-1,0,-2,1,0,-2
1532066336131,1,2,-4,-2,-2,-1,5,-2
1532066336136,5,9,-7,-2,-2,-2,3,-2
1532066336141,-4,-5,-3,1,0,0,2,0
1532066336146,0,-3,-1,0,-2,-1,-1,-3
1532066336151,-2,-2,3,2,1,-1,2,-1
1532066336156,1,1,-4,-2,-1,-1,1,-2
1532066336161,1,0,-1,-2,-1,2,8,-1
1532066336166,0,1,-1,0,1,3,2,-3
1532066336171,-2,-1,2,-1,-2,0,-1,-3
1532066336176,-4,-2,1,1,1,1,3,-2
1532066336181,4,3,-1,-2,-1,0,-1,-2
1532066336186,-2,-1,-3,-2,-2,-1,2,1
1532066336191,-4,-4,2,0,-1,-1,3,2
1532066336196,-1,1,1,0,-2,-1,-2,-1
1532066336201,1,2,-3,0,-2,-3,-1,-2
1532066336206,0,1,-2,-1,-2,-2,-2,0
1532066336211,-3,1,-1,-1,0,-2,0,0
1532066336216,2,-1,4,-2,-1,-1,0,2
1532066336221,-4,-1,0,-1,0,2,-1,0
1532066336226,-1,-1,0,0,-2,-1,-2,1
1532066336231,3,7,-3,0,2,-1,-2,-2
1532066336236,-1,1,-2,0,-1,-1,-2,-1
1532066336241,-2,-4,-1,-2,-1,-2,-4,-1
1532066336246,2,4,-2,-2,-2,-1,-2,0
1532066336251,-3,-2,2,0,0,1,2,-2
1532066336256,1,1,-1,-1,-2,0,-1,-1
1532066336261,-2,-3,0,0,1,-1,0,-1
1532066336266,-1,-2,-2,0,-1,-1,0,-1
1532066336271,-1,-3,2,0,0,0,-1,-2
1532066336276,5,2,0,-3,-4,-5,-1,-3
1532066336281,-2,1,-3,-1,-1,-1,0,0
1532066336286,-3,-4,3,2,-1,0,2,-1
1532066336291,-1,-5,13,2,2,2,-3,1
1532066336296,-1,-5,1,-1,0,-1,2,1
1532066336301,4,1,0,-1,0,1,-2,-1
1532066336306,0,1,2,-1,3,0,-2,-2
1532066336311,-9,-10,-1,1,0,2,-1,0
1532066336316,1,5,13,2,0,-1,-5,1
1532066336321,9,4,12,-3,-8,-9,-10,2
1532066336326,-18,-13,-6,7,8,8,-6,0
1532066336331,4,5,0,-2,-2,-2,-7,-1
1532066336336,-9,-13,7,3,4,3,-5,-1
1532066336341,7,7,-7,-6,-3,-3,-9,-2
1532066336346,2,1,3,-1,-2,-2,-9,-1
1532066336351,-6,-13,3,2,1,3,-6,1
1532066336356,-11,-3,-2,4,5,2,-3,-3
1532066336361,4,12,-15,-4,1,-2,-4,0
1532066336366,9,10,-27,-8,-6,-6,-3,-2
1532066336371,-8,-12,19,0,-1,-1,-2,3
1532066336376,-6,-5,-9,0,6,7,-5,-3
1532066336381,-7,-1,-4,1,1,2,-4,0
1532066336386,5,8,-2,-3,-1,0,-4,-1
1532066336391,-5,-6,-2,3,0,2,-5,0
1532066336396,5,3,-5,-4,-5,2,-1,-2
1532066336401,1,-5,11,0,-4,0,7,-1
1532066336406,-8,-10,6,3,5,8,-1,-3
1532066336411,5,8,-11,-3,1,0,1,-5
1532066336416,1,-3,1,-2,-1,0,0,-1
1532066336421,-1,0,-11,0,0,2,6,-1
1532066336426,7,6,8,0,-4,-1,-1,3
1532066336431,-2,4,-4,0,2,6,4,4
1532066336436,-5,-5,-6,-2,-4,2,-1,6
1532066336441,-4,-4,2,1,0,7,1,-2
1532066336446,5,1,3,-3,-3,3,2,-4
1532066336451,0,-2,-6,-2,1,5,2,-5
1532066336456,4,3,-4,-6,-3,-1,3,0
1532066336461,-7,-3,1,1,4,2,-2,-5
1532066336466,5,4,14,-2,-4,-4,1,-5
1532066336471,-1,3,-7,-2,0,-3,0,-8
1532066336476,2,1,3,-2,-3,-9,2,-4
1532066336481,5,-2,2,-3,-3,-10,-3,1
1532066336486,-15,-18,2,4,3,-13,1,2
1532066336491,6,7,-1,-3,-6,-14,6,1
1532066336496,-1,-4,-2,0,-2,-12,2,-5
1532066336501,-6,-7,1,3,1,-4,2,-4
1532066336506,2,2,0,-2,-3,-11,-2,-2
1532066336511,-5,-4,-4,1,3,-6,1,0
1532066336516,1,2,3,-1,-1,-14,-1,-3
1532066336521,4,6,-3,-2,-1,-7,-2,1
1532066336526,0,-1,-2,-2,-3,-3,3,6
1532066336531,0,-1,5,1,0,-4,3,4
1532066336536,6,7,-2,-3,-3,-4,2,2
1532066336541,-13,-11,0,6,7,6,3,-2
1532066336546,3,-1,0,-3,-3,2,-1,1
1532066336551,6,12,-2,-4,-3,3,-2,-2
1532066336556,-2,-1,-2,0,2,8,2,-3
1532066336561,2,2,11,-1,-3,2,3,2
1532066336566,-8,-6,-7,1,1,9,3,-2
1532066336571,-2,-6,-6,1,3,4,0,-2
1532066336576,-2,-2,2,1,0,5,1,0
1532066336581,-1,-2,-1,-1,-1,1,5,-3
1532066336586,0,5,1,0,-1,0,-1,-4
1532066336591,2,2,0,-3,-3,-3,1,-3
1532066336596,-3,-2,-7,0,2,0,2,-2
1532066336601,2,-8,-2,-5,-4,-4,0,-1
1532066336606,-8,-8,-3,2,5,2,2,0
1532066336611,-4,-4,0,1,1,-4,-2,-2
1532066336616,-3,-3,-2,-1,-2,-1,0,2
1532066336621,9,8,-2,-6,-7,-5,-4,1
1532066336626,-11,-11,-1,3,4,4,1,-2
1532066336631,9,6,0,-5,-5,-1,-4,-1
1532066336636,-13,-8,-5,0,1,3,-2,3
1532066336641,2,2,-3,-1,-4,-5,1,1
1532066336646,5,4,-1,-3,-3,-2,-2,0
1532066336651,-1,1,-1,-2,-2,-2,0,0
1532066336656,1,0,0,-2,-1,-3,-4,-1
1532066336661,0,0,0,-2,-1,-2,1,-2
1532066336666,7,3,-2,-6,-5,-5,-1,2
1532066336671,-13,-15,-1,5,6,2,9,1
1532066336676,8,5,2,-3,-3,-2,-2,-2
1532066336681,-9,-4,-9,1,0,2,-2,0
1532066336686,1,4,1,-1,-3,-3,1,-1
1532066336691,2,1,0,-2,-6,-3,-3,1
1532066336696,-1,0,2,0,0,2,1,-1
1532066336701,-3,-1,-1,-1,-3,-2,-7,2
1532066336706,3,9,-1,-2,0,-1,-7,-2
1532066336711,6,3,0,-4,-5,-3,-7,0
1532066336716,-3,-1,-3,-2,-2,-2,-12,0
1532066336721,-2,-2,0,2,1,2,-5,0
1532066336726,3,1,-3,-1,-4,-2,-7,-3
1532066336731,0,0,0,-1,-2,-1,-11,-1
1532066336736,2,0,-1,-1,-1,0,-6,2
1532066336741,1,-1,-7,-3,-3,-3,-8,-2
1532066336746,-2,-4,-1,-2,-5,-1,-6,3
1532066336751,-7,-5,-1,3,5,2,-8,-3
1532066336756,2,3,0,1,-1,-4,-3,-1
1532066336761,-2,-2,1,0,1,2,-1,-2
1532066336766,-1,-3,8,0,-1,0,-1,-2
1532066336771,-1,0,0,-2,-3,-2,0,-1
1532066336776,2,1,-2,-2,0,-1,2,-1
1532066336781,-1,1,1,2,0,-1,-2,-1
1532066336786,0,-2,-2,-2,0,-2,0,-1
1532066336791,2,3,0,-3,-3,-2,1,0
1532066336796,3,2,2,-3,-4,-4,2,-1
1532066336801,-6,-6,0,1,0,-1,2,0
1532066336806,-5,-4,-2,1,0,-2,6,1
1532066336811,7,3,1,-3,-4,-4,2,-2
1532066336816,-9,-8,-5,0,-1,-2,0,2
1532066336821,2,3,1,-1,-1,-3,4,0
1532066336826,-1,0,-3,-1,0,1,0,-1
1532066336831,3,2,-1,-1,0,-1,2,0
1532066336836,2,1,-6,-2,1,1,-3,-3
1532066336841,-5,-5,1,-1,3,3,2,-1
1532066336846,-4,-4,-2,0,2,1,2,0
1532066336851,0,2,1,-1,-1,-1,5,-1
1532066336856,0,-2,1,2,2,3,3,-3
1532066336861,-2,1,-4,-2,-3,0,0,1
1532066336866,3,4,-1,-3,-3,-2,-2,0
1532066336871,-10,-9,-2,3,3,3,0,-2
1532066336876,-1,-4,3,0,-2,-2,5,-1
1532066336881,5,3,-1,-3,-1,-2,-1,-2
1532066336886,-4,-4,-1,1,1,1,2,0
1532066336891,3,3,0,1,-2,-1,-2,-3
1532066336896,-3,-1,-1,-2,-1,1,-3,1
1532066336901,-1,-1,2,0,1,-2,4,-1
1532066336906,1,0,-2,-2,-2,-3,3,-1
1532066336911,-8,-5,-2,-1,2,2,-2,0
1532066336916,-2,-1,2,3,4,2,0,-2
1532066336921,-4,-4,0,1,1,0,-2,0
1532066336926,0,0,1,2,-1,-1,4,-2
1532066336931,2,4,-8,-3,-2,-1,2,-2
1532066336936,0,0,-1,-2,-4,-3,0,0
1532066336941,3,3,-1,-2,-2,-2,-1,-1
1532066336946,0,-2,2,1,1,1,-1,-3
1532066336951,-2,-6,0,-1,-5,-1,-3,2
1532066336956,2,1,2,-2,-1,-1,1,-1
1532066336961,1,6,-1,1,0,-1,2,-3
1532066336966,-2,0,-2,-1,0,-2,0,0
1532066336971,1,1,3,-1,-1,-2,-1,0
1532066336976,2,-2,1,0,-2,-1,-1,-1
1532066336981,-3,-3,2,1,-1,2,-3,0
1532066336986,-3,-3,0,-1,2,-1,-1,0
1532066336991,-4,-1,0,1,2,0,3,-1
1532066336996,0,1,-1,-3,-1,-1,-2,0
1532066337001,4,4,-9,-5,-5,-3,1,-2
1532066337006,2,1,1,-2,-3,-3,1,1
1532066337011,-5,-6,-2,0,0,-1,-1,0
1532066337016,-5,-6,0,-2,-2,-2,2,-1
1532066337021,0,0,-1,-1,-2,-1,-3,-2
1532066337026,-1,0,-1,-1,-1,-1,-2,-1
1532066337031,5,5,-1,-1,-1,-2,-5,0
1532066337036,0,1,-4,-3,-2,0,-5,-1
1532066337041,-2,-3,2,0,0,-1,-9,0
1532066337046,-2,-3,0,-1,-1,1,2,-1
1532066337051,2,-2,2,1,-2,-2,-7,0
1532066337056,1,0,0,0,-1,0,-6,-2
1532066337061,-3,0,2,1,0,0,-7,0
1532066337066,5,3,0,-3,-3,-2,-9,0
1532066337071,-3,-1,-2,-1,-2,0,-9,-1
1532066337076,-3,-4,0,0,-2,-2,-9,2
1532066337081,4,3,3,-3,-2,-2,-1,-1
1532066337086,-5,-2,-1,1,-2,0,-9,0
1532066337091,7,3,2,-4,-5,-4,-6,-2
1532066337096,-6,-2,-3,1,0,2,-9,0
1532066337101,-4,-2,1,-1,0,-1,-9,0
1532066337106,-1,-1,-1,0,-2,0,-7,-1
1532066337111,0,1,0,-1,0,0,-1,-1
1532066337116,2,1,0,-1,0,0,-2,-2
1532066337121,-2,-1,0,-1,0,0,-2,0
1532066337126,0,-3,-2,-1,0,-1,2,-1
1532066337131,-2,0,-4,-2,-1,0,0,-2
1532066337136,-3,-1,-2,0,2,1,-2,0
1532066337141,-2,-2,-2,0,-2,1,1,0
1532066337146,-1,-1,1,-1,-1,-1,0,-2
1532066337151,0,-2,0,-2,-2,-3,0,1
1532066337156,0,3,-3,0,3,-1,0,0
1532066337161,-3,-3,0,-1,-1,-2,4,-1
1532066337166,-2,-1,-1,-1,-1,-2,2,-1
1532066337171,2,1,0,-1,-1,0,-1,1
1532066337176,2,1,1,0,-1,-1,3,-1
1532066337181,0,0,-2,-1,1,1,1,-2
1532066337186,-1,-3,-2,-1,1,0,1,-1
1532066337191,-3,-1,-1,0,1,1,-3,0
1532066337196,1,-2,0,-1,-3,-1,1,-1
1532066337201,-1,-4,0,0,-1,-1,3,0
1532066337206,-1,-2,0,0,0,-2,-2,0
1532066337211,1,0,-1,-3,-1,-4,1,1
1532066337216,-3,-5,-3,0,-2,0,1,0
1532066337221,-4,-2,-2,-1,-1,-3,2,-1
1532066337226,-3,-2,-3,0,0,-2,4,-2
1532066337231,-1,-2,-3,0,-3,-1,6,-1
1532066337236,4,2,1,-3,-5,-2,3,0
1532066337241,0,2,1,0,-2,1,2,2
1532066337246,-5,-1,2,1,1,3,4,0
1532066337251,-2,-1,1,-2,-1,2,1,0
1532066337256,0,-1,2,-2,-1,1,5,-1
1532066337261,0,-2,1,-1,0,0,1,8
1532066337266,-1,-1,-1,-2,-1,0,-7,1
1532066337271,-1,-1,-2,1,-1,-1,0,-1
1532066337276,2,1,-3,-1,-2,-3,-1,-7
1532066337281,2,-1,-5,-2,-3,-5,-4,-7
1532066337286,0,-1,-8,-1,-2,-6,2,-5
1532066337291,-2,-4,-7,0,1,-6,0,-3
1532066337296,4,0,-6,-4,-6,-11,-1,-1
1532066337301,-7,-2,-5,1,3,-1,2,-3
1532066337306,-1,-2,1,0,-2,0,4,0
1532066337311,-5,-7,8,0,-2,3,-3,-1
1532066337316,0,1,6,-2,0,6,1,3
1532066337321,3,3,6,-1,-2,52,4,5
1532066337326,-3,2,6,2,1,47,-5,11
1532066337331,-2,2,2,-1,1,17,0,17
1532066337336,-2,-1,1,0,-1,-12,1,9
1532066337341,0,-3,-1,-1,-1,-34,-3,10
1532066337346,1,-2,-1,-1,-2,-29,-3,4
1532066337351,13,5,-5,-5,-7,-26,1,-9
1532066337356,-23,-41,12,10,11,-6,-2,-11
1532066337361,1,-4,-55,-11,-5,-26,-3,-23
1532066337366,-3,-8,20,1,0,-12,3,-8
1532066337371,-7,-3,6,3,3,-2,1,-5
1532066337376,5,17,-29,-8,-4,35,0,-4
1532066337381,-11,1,2,2,6,73,3,1
1532066337386,-10,-4,2,1,2,26,2,-1
1532066337391,-1,9,0,1,3,-5,0,1
1532066337396,0,8,2,-3,-2,-38,-1,4
1532066337401,3,1,12,1,-1,-38,-14,0
1532066337406,7,6,-9,-4,-3,-21,-35,10
1532066337411,-1,-7,5,0,-1,-5,-25,-3
1532066337416,3,-2,1,0,-2,-2,3,-10
1532066337421,5,-10,8,-1,-3,-8,25,-11
1532066337426,3,-11,-1,-1,-2,-1,19,-17
1532066337431,1,-12,-10,-3,-1,0,0,-9
1532066337436,6,1,3,-3,-5,-3,-15,-4
1532066337441,-3,4,-15,0,6,-2,-15,-4
1532066337446,-6,-1,1,-2,-2,-6,-63,3
1532066337451,-4,4,-1,0,0,2,-49,7
1532066337456,-1,12,0,-2,0,12,-50,13
1532066337461,1,11,10,0,-1,-17,-44,14
1532066337466,-1,14,-6,0,2,-21,-84,13
1532066337471,-8,6,-9,4,7,-12,-120,18
1532066337476,-2,3,3,2,4,-3,-68,22
1532066337481,2,0,10,1,0,0,10,-8
1532066337486,2,4,3,-2,-2,12,81,-18
1532066337491,7,-7,5,-6,-6,12,109,-16
1532066337496,5,-3,-1,-3,-5,10,125,-15
1532066337501,3,-3,7,-3,-7,2,112,-3
1532066337506,-3,-26,-7,1,-2,-1,127,-21
1532066337511,4,2,1,-2,-3,7,127,-12
1532066337516,-2,14,4,-3,-4,0,78,-12
1532066337521,2,-19,2,0,-3,0,51,1
1532066337526,4,3,-4,-2,0,2,42,9
1532066337531,2,8,-1,1,1,4,32,-10
1532066337536,2,2,2,4,2,-2,15,-3
1532066337541,-10,33,12,-2,-2,-11,-6,-2
1532066337546,-13,-83,-23,-4,-6,-11,-2,3
1532066337551,-13,-3,-6,2,-1,-7,-9,-24
1532066337556,5,7,11,2,3,-1,1,5
1532066337561,18,49,9,4,4,-4,-13,10
1532066337566,8,86,21,8,8,10,-4,12
1532066337571,-14,-93,-33,-8,-13,-5,-13,1
1532066337576,-17,-21,8,-2,-5,-1,-15,-11
1532066337581,-6,-44,-13,8,12,-1,-20,-4
1532066337586,12,39,26,-6,-8,7,0,10
1532066337591,13,42,25,9,13,-7,8,16
1532066337596,-2,36,-26,-17,-18,4,-6,0
1532066337601,-6,-44,-4,-2,-20,-9,-21,4
1532066337606,2,4,-11,15,12,-25,-36,-14
1532066337611,0,-3,23,-16,-1,39,-2,1
1532066337616,-4,-11,-13,1,2,-7,-7,7
1532066337621,-5,-10,11,-2,1,3,-22,4
1532066337626,-1,4,-10,-1,-1,-12,-21,-6
1532066337631,0,10,7,6,5,-21,7,-2
1532066337636,-1,-45,8,6,23,32,-6,-11
1532066337641,-6,12,-19,-14,-15,11,12,-7
1532066337646,5,-6,20,20,43,-13,3,-1
1532066337651,-5,15,-35,-37,-90,19,7,14
1532066337656,4,19,18,13,-15,-24,-11,5
1532066337661,9,4,33,27,46,-54,-17,-13
1532066337666,-8,-21,-48,-47,3,100,-32,11
1532066337671,4,20,6,16,33,-15,-10,9
1532066337676,8,0,12,38,105,43,-31,7
1532066337681,-20,-27,-39,-44,-126,-36,-23,16
1532066337686,9,0,3,4,-35,-9,-47,10
1532066337691,-3,-3,-5,-1,67,26,7,18
1532066337696,2,-2,3,-10,-16,-14,25,7
1532066337701,12,17,33,41,127,0,30,-19
1532066337706,-16,-5,-9,-35,-105,-32,67,-9
1532066337711,1,-4,8,-4,-11,-12,30,-10
1532066337716,-5,-8,-9,1,-26,-5,26,-4
1532066337721,7,17,19,13,13,1,20,-7
1532066337726,-11,-13,-12,5,35,-22,40,-14
1532066337731,6,8,10,4,-36,-17,-24,-8
1532066337736,-5,-5,16,-14,-24,-19,29,-5
1532066337741,-1,-1,-16,-7,-6,14,4,7
1532066337746,4,-2,15,36,76,4,2,-8
1532066337751,-6,-13,-24,-20,41,25,23,8
1532066337756,2,8,-4,5,-14,-11,16,-1
1532066337761,-5,-5,-14,-11,6,48,113,1
1532066337766,-1,-6,-4,-3,21,10,98,0
1532066337771,1,-3,2,-6,-40,-10,37,-12
1532066337776,-2,-18,-13,-1,14,-12,-77,-14
1532066337781,-3,6,9,-1,-23,-12,-92,-1
1532066337786,4,9,0,-2,10,-19,-85,-3
1532066337791,2,2,7,23,46,-14,-106,-6
1532066337796,-1,0,-23,-25,26,28,-93,5
1532066337801,-2,-5,-3,3,-35,-12,-105,-1
1532066337806,-1,-1,4,-3,-25,-8,-97,0
1532066337811,-2,-1,-1,4,17,-15,-75,-4
1532066337816,-1,0,-4,-12,-38,-20,-60,-1
1532066337821,5,5,6,-5,14,11,-62,0
1532066337826,-2,-3,1,1,9,11,-35,3
1532066337831,-2,-1,2,3,12,8,-36,-2
1532066337836,1,2,7,13,44,-15,-23,-3
1532066337841,-2,-3,-11,-16,-65,23,-38,6
1532066337846,1,2,7,3,-8,-8,-55,-3
1532066337851,1,1,1,5,-27,7,-29,2
1532066337856,-3,0,-1,-16,-36,11,-20,1
1532066337861,-2,-3,-2,-4,-46,-15,-35,-4
1532066337866,-2,-4,-6,-16,28,14,-11,5
1532066337871,1,4,6,13,-36,-2,-1,1
1532066337876,-1,-2,-12,-2,18,15,18,5
1532066337881,-1,-1,4,3,17,2,13,-3
1532066337886,3,3,8,5,-10,-16,15,-5
1532066337891,-6,-3,-5,-12,-57,3,15,-2
1532066337896,0,1,0,-5,12,8,29,1
1532066337901,0,2,-2,-1,31,8,27,1
1532066337906,-2,-10,2,1,-15,-3,14,-3
1532066337911,0,-1,-1,2,21,-10,7,-2
1532066337916,0,-2,-11,-12,-42,-5,13,-3
1532066337921,0,6,12,9,-2,0,14,4
1532066337926,-1,2,-3,1,-10,7,15,0
1532066337931,1,1,5,15,54,-2,7,0
1532066337936,-4,-2,-3,-4,16,-1,13,2
1532066337941,-3,-3,-7,-9,-9,0,13,-1
1532066337946,-1,1,-3,-2,1,-2,5,-3
1532066337951,-1,-1,-1,3,33,-2,9,-1
1532066337956,0,1,4,8,5,-12,8,-3
1532066337961,1,-4,-7,-13,-39,-1,10,1
1532066337966,0,-1,0,7,-14,-2,0,1
1532066337971,-4,-3,-6,-18,-47,1,5,-1
1532066337976,-1,1,2,11,17,1,16,2
1532066337981,-1,-3,-7,-28,-49,9,5,1
1532066337986,-2,0,-3,1,-9,-8,3,1
1532066337991,1,0,7,-5,-36,-15,-2,-2
1532066337996,1,1,-2,-7,-15,3,7,-1
1532066338001,-2,-1,6,18,33,1,4,1
1532066338006,-1,1,0,-2,-6,3,6,1
1532066338011,-2,-1,-4,-3,9,-3,3,0
1532066338016,1,1,7,3,-21,-10,-2,-3
1532066338021,2,-3,-8,3,25,-3,4,-1
1532066338026,0,2,4,-7,-8,0,4,-1
1532066338031,1,0,1,3,14,-2,0,0
1532066338036,-2,-1,-2,-3,-21,-1,2,-2
1532066338041,-2,-2,-4,0,19,1,2,-1
1532066338046,2,-1,4,-3,2,-2,-1,0
1532066338051,-3,-2,-2,-2,7,0,-1,-3
1532066338056,1,3,0,4,-14,-7,1,1
1532066338061,1,-1,0,1,16,-4,-4,-3
1532066338066,0,-1,-4,-4,-15,-5,-1,-2
1532066338071,-2,-2,-3,2,-10,-4,-4,1
1532066338076,-2,-2,-2,-1,20,1,0,-1
1532066338081,-3,-2,-3,-4,-13,-3,0,0
1532066338086,0,0,-1,0,-3,0,2,0
1532066338091,0,-1,-4,1,9,3,1,-1
1532066338096,-1,-1,2,-13,-51,-5,-2,-2
1532066338101,0,0,-1,3,39,3,2,0
1532066338106,-1,-1,-1,-2,2,0,0,-3
1532066338111,-1,0,-2,-3,4,2,2,0
1532066338116,0,-1,3,4,2,-2,-1,0
1532066338121,1,-1,1,2,7,0,1,-4
1532066338126,-3,0,0,-2,-9,-4,1,1
1532066338131,2,1,3,0,2,-2,-5,2
1532066338136,1,-1,1,2,12,6,8,1
1532066338141,2,0,-1,4,2,-2,0,0
1532066338146,0,-2,0,-3,0,0,0,0
1532066338151,0,-2,-1,-3,-6,-4,-2,0
1532066338156,0,-2,-1,1,5,-2,-4,0
1532066338161,-3,-2,0,2,2,-2,0,0
1532066338166,0,-2,1,2,1,0,1,-1
1532066338171,-1,0,-3,-2,3,1,2,-2
1532066338176,0,-2,0,-1,2,0,-3,-2
1532066338181,-1,1,-1,2,0,-2,1,0
1532066338186,1,-1,-1,1,0,-1,-2,-2
1532066338191,0,-1,-1,-1,-6,-3,0,-1
1532066338196,-1,-2,-3,2,14,-3,-1,-1
1532066338201,-1,-1,1,4,9,-2,-1,-2
1532066338206,-2,0,-2,-7,-11,3,3,1
1532066338211,-2,-2,-2,-1,5,3,3,0
1532066338216,-2,1,0,1,-4,-3,0,-1
1532066338221,0,-2,-2,-1,-3,-3,-3,-3
1532066338226,0,0,2,2,5,-1,0,-1
1532066338231,0,0,0,1,2,-1,2,-1
1532066338236,-1,-1,-1,3,9,-4,-2,-3
1532066338241,-2,1,-4,-11,-22,2,-1,0
1532066338246,0,0,-2,1,7,2,0,-1
1532066338251,0,0,0,-2,-2,1,1,0
1532066338256,0,0,-2,1,0,0,-2,-1
1532066338261,0,0,7,2,3,-2,1,0
1532066338266,0,1,-1,1,2,2,-2,0
1532066338271,1,-3,0,-2,-1,0,1,0
1532066338276,-2,1,0,-2,-3,-2,0,-1
1532066338281,0,-1,-4,1,5,-1,1,0
1532066338286,-1,0,-1,-1,-3,-1,0,0
1532066338291,-1,0,-2,0,1,1,-1,0
1532066338296,0,-1,1,-1,-4,1,0,2
1532066338301,0,1,-2,-1,-5,-2,0,-2
1532066338306,0,-3,3,2,15,-1,-2,-1
1532066338311,-2,-1,-7,-8,-18,0,-1,0
1532066338316,0,-1,1,1,-3,0,0,-1
1532066338321,0,0,-2,-1,-5,0,1,1
1532066338326,0,1,1,0,2,-3,-2,-2
1532066338331,0,1,2,3,5,-1,-1,-1
1532066338336,1,0,1,5,16,-1,1,-1
1532066338341,-1,-1,0,-5,10,0,-1,0
1532066338346,-1,-3,0,-3,-18,-3,0,-1
1532066338351,-1,0,-1,0,2,6,0,-1
1532066338356,-3,-2,-2,-1,-6,-2,-1,-1
1532066338361,-1,-1,-2,5,12,-1,1,-1
1532066338366,-1,-2,-1,1,4,-1,1,-2
1532066338371,-1,-1,0,-1,3,1,10,-1
1532066338376,1,0,0,1,7,5,16,0
1532066338381,-1,-5,-4,-4,-8,2,15,-1
1532066338386,0,1,-2,-3,-6,3,25,1
1532066338391,-1,-1,-1,2,8,-1,27,0
1532066338396,0,-2,-1,-4,-5,-1,10,-1
1532066338401,-1,-1,1,-1,-3,-3,15,1
1532066338406,-2,-1,3,-1,7,2,4,-1
1532066338411,-1,1,-2,2,7,-2,-4,-2
1532066338416,-3,-2,-4,-9,-8,-1,-11,-1
1532066338421,-1,1,0,9,-1,1,-18,-2
1532066338426,0,1,-1,-7,-6,2,-16,0
1532066338431,-1,-1,-1,-7,-22,0,-18,0
1532066338436,1,-1,-1,-2,1,3,-13,-2
1532066338441,-1,-2,2,3,2,0,-16,-1
1532066338446,-1,0,-2,6,11,-3,-10,-3
1532066338451,1,-1,0,1,3,-3,-10,-2
1532066338456,-1,0,1,-4,-6,-4,-8,0
1532066338461,-1,0,3,-1,-1,-3,-4,0
1532066338466,-1,-4,-7,-3,-2,-4,-8,0
1532066338471,-1,-1,-3,-4,-2,-8,-12,0
1532066338476,0,2,-7,0,-1,-6,-5,-1
1532066338481,-4,-2,-14,-7,-6,-9,-4,0
1532066338486,-2,2,1,-2,-5,1,-3,1
1532066338491,1,-2,-2,0,-4,-2,-1,-1
1532066338496,0,-1,1,3,-2,-7,-1,-1
1532066338501,1,1,-2,-2,-5,-3,-4,-2
1532066338506,1,0,0,-1,-3,-4,-6,0
1532066338511,-3,1,2,-1,-2,-5,-6,0
1532066338516,1,-1,2,1,-2,-2,-5,-1
1532066338521,-3,-1,1,-2,-3,-2,-3,0
1532066338526,-2,-2,-2,1,-3,-5,-2,-1
1532066338531,1,0,3,1,5,-2,-3,-2
1532066338536,-1,-2,2,-5,-13,-1,-2,0
1532066338541,0,-2,3,-1,-4,-4,-6,1
1532066338546,0,-2,2,9,29,-7,3,-2
1532066338551,-2,-3,-6,-9,-27,-4,13,-2
1532066338556,-2,-2,1,5,-1,0,14,-2
1532066338561,-1,-2,-6,-4,0,4,5,-1
1532066338566,1,-1,-3,-3,-7,2,-5,0
1532066338571,0,0,2,6,13,0,-13,-1
1532066338576,1,1,2,-3,-1,2,-12,-1
1532066338581,0,3,4,0,0,4,-4,-1
1532066338586,-4,1,-1,3,0,5,-2,-1
1532066338591,-1,2,3,1,2,5,1,1
1532066338596,2,1,2,-4,-4,2,-3,1
1532066338601,-2,-2,5,-1,1,1,7,-2
1532066338606,-1,-2,4,-3,-8,0,1,-3
1532066338611,1,-2,2,1,6,5,2,-2
1532066338616,-3,-3,-2,-2,0,-1,1,0
1532066338621,0,-3,-7,0,2,-1,-2,-1
1532066338626,0,-1,5,-2,-8,-2,-1,0
1532066338631,0,0,-3,-3,4,0,0,-1
1532066338636,0,0,2,5,19,0,-1,-1
1532066338641,-1,0,-2,-12,-28,-7,-2,0
1532066338646,-1,-1,-3,-2,-2,0,1,1
1532066338651,0,0,5,3,5,0,-2,0
1532066338656,0,-4,0,2,11,0,-1,0
1532066338661,-3,-2,-3,-24,-33,-3,-3,1
1532066338666,0,0,-1,-2,-2,-2,0,0
1532066338671,-3,-1,2,-2,-5,-2,1,2
1532066338676,0,-2,-4,3,8,-2,2,-3
1532066338681,0,-2,1,11,16,1,-1,-4
1532066338686,0,-2,-7,-3,-8,2,7,0
1532066338691,-1,-2,-5,-2,2,-3,-1,1
1532066338696,-1,-3,-12,-4,-11,-1,1,-1
1532066338701,1,-1,10,3,8,1,0,-1
1532066338706,-1,-1,-2,-2,-2,0,-1,-1
1532066338711,-1,-1,-3,3,1,-1,1,-3
1532066338716,0,0,-5,-5,-6,1,-2,-2
1532066338721,1,-1,-2,3,4,0,-1,-1
1532066338726,-1,-1,-1,0,6,-3,-3,-3
1532066338731,-2,-1,2,-4,-5,-8,-9,-1
1532066338736,-1,1,1,-2,-7,-2,-15,1
1532066338741,1,1,3,6,5,3,-11,-1
1532066338746,-1,-4,-4,0,4,-5,-17,-2
1532066338751,-2,1,8,-13,-24,-10,-3,-2
1532066338756,-3,3,1,-2,-8,-12,10,0
1532066338761,-2,10,7,6,6,-1,3,-1
1532066338766,-1,11,15,2,3,6,-5,-1
1532066338771,2,6,39,10,19,12,-6,0
1532066338776,-4,-11,25,-21,-19,6,-6,-1
1532066338781,-1,-8,13,-3,3,3,3,0
1532066338786,-1,-10,-8,-2,-6,3,2,0
1532066338791,1,-8,-23,5,7,1,3,-1
1532066338796,1,-3,-23,4,4,1,3,-2
1532066338801,-1,-6,-26,2,4,-1,1,-1
1532066338806,0,-4,-12,-2,1,-3,2,2
1532066338811,0,-2,-11,-2,-4,0,4,-1
1532066338816,0,0,10,2,3,-1,5,0
1532066338821,0,-3,2,-1,-1,-4,4,-5
1532066338826,0,1,4,0,-1,-3,5,-1
1532066338831,-1,-1,-8,-3,-3,-2,6,1
1532066338836,-1,2,-5,1,-1,0,1,-2
1532066338841,1,2,1,2,5,-2,1,1
1532066338846,0,1,1,-2,-4,-2,2,2
1532066338851,-3,0,3,-2,-1,-1,-3,-1
1532066338856,-1,1,3,-2,0,-2,-2,2
1532066338861,0,0,5,3,-1,-1,0,1
1532066338866,0,0,-8,-2,-5,-1,-1,-2
1532066338871,-1,-1,-2,-1,-5,-1,-1,0
1532066338876,-1,2,-2,4,3,-1,-1,0
1532066338881,-2,-1,2,-2,-2,-1,-3,-1
1532066338886,-1,0,1,-1,-2,-1,-3,0
1532066338891,-2,1,-1,2,1,-1,3,-1
1532066338896,3,-3,-4,-4,-3,-1,-3,-3
1532066338901,0,-1,-3,-1,0,0,1,-1
1532066338906,-1,-3,-4,-2,-1,-1,0,0
1532066338911,2,1,-8,-1,-2,0,-1,-2
1532066338916,-1,0,-5,3,1,-1,0,-1
1532066338921,-1,-2,-4,-3,1,-2,0,1
1532066338926,-1,-1,-7,-2,0,1,-1,0
1532066338931,-2,-3,-11,-2,0,-2,-1,-2
1532066338936,0,-1,-10,2,0,1,-1,0
1532066338941,1,0,-12,-1,-1,-1,-3,0
1532066338946,-1,0,-3,0,-1,-2,0,0
1532066338951,0,-3,-7,-1,-1,-1,-3,-2
1532066338956,1,4,-4,-1,-1,0,-2,0
1532066338961,-2,0,-1,0,-1,0,-1,-2
1532066338966,-1,2,2,-1,-2,0,-1,-2
1532066338971,1,1,0,-1,0,-1,-1,0
1532066338976,-1,0,-1,-2,-2,-1,-3,-2
1532066338981,4,10,-6,2,0,0,-2,1
1532066338986,-1,-7,-16,1,-1,0,-2,1
1532066338991,-3,-2,-6,-3,-2,1,-2,0
1532066338996,6,2,6,3,-2,0,-2,2
1532066339001,-8,-6,-2,-4,-1,-2,1,-1
1532066339006,2,3,9,-2,0,-2,2,0
1532066339011,5,2,4,-2,0,0,-1,0
1532066339016,-4,-2,5,0,0,1,2,-1
1532066339021,6,2,3,-1,-1,-1,3,1
1532066339026,-3,-1,7,0,-2,0,-2,-2
1532066339031,-2,-3,2,-1,-1,-2,0,-3
1532066339036,0,-1,3,0,0,-1,1,1
1532066339041,0,-1,3,0,-2,-3,-2,-1
1532066339046,-2,-2,0,-1,-1,-1,-2,-1
1532066339051,-1,0,3,0,-3,-2,-1,0
1532066339056,-2,-1,-4,-2,-1,-1,-1,-1
1532066339061,-2,-1,0,-1,-1,0,-1,-1
1532066339066,-1,4,3,0,-1,0,2,-3
1532066339071,-4,3,-5,-1,1,0,0,2
1532066339076,8,-7,2,-1,1,-1,-2,-4
1532066339081,-2,-2,0,0,0,-1,2,-2
1532066339086,2,2,-1,-1,-1,-2,2,0
1532066339091,1,2,0,0,-1,0,2,1
1532066339096,-3,-2,-5,-1,1,-2,4,1
1532066339101,0,1,0,-3,1,1,1,-1
1532066339106,2,1,2,0,1,-1,2,1
1532066339111,0,-2,1,0,-2,-2,2,-2
1532066339116,-7,6,-8,-5,-2,-2,-2,-2
1532066339121,2,5,-4,3,-2,0,-2,-2
1532066339126,-2,7,-1,-1,-1,-2,-2,0
1532066339131,0,6,-3,-1,-1,-1,-3,-2
1532066339136,0,5,3,-2,-1,-2,-3,1
1532066339141,-2,7,-2,1,-1,-1,-2,0
1532066339146,0,3,0,-2,-2,-2,-5,-1
1532066339151,-1,3,-1,1,1,0,-3,-1
1532066339156,-1,5,-1,0,0,-1,1,-2
1532066339161,3,1,-3,-2,-3,-1,-3,0
1532066339166,-7,-11,0,0,-2,-2,11,0
1532066339171,2,-4,1,-2,0,0,15,2
1532066339176,-2,-2,-2,2,-1,1,4,0
1532066339181,4,-4,-3,1,3,-4,0,0
1532066339186,3,-4,-3,-1,-1,-1,-4,-1
1532066339191,-3,-11,-1,-2,-1,1,-5,-3
1532066339196,-2,-13,-3,-1,-1,2,1,1
1532066339201,-4,-15,0,0,-3,1,-14,-3
1532066339206,-4,-3,16,1,-3,3,-10,-3
1532066339211,-3,-5,8,-2,-1,-1,-1,0
1532066339216,-4,-3,8,0,-2,1,-1,-1
1532066339221,0,-2,8,-1,0,-4,1,0
1532066339226,-3,-3,3,-1,2,-3,1,-1
1532066339231,9,2,2,-2,0,0,7,3
1532066339236,-8,-2,9,0,-2,-1,1,-7
1532066339241,-4,-3,-4,-1,-3,-3,-1,-3
1532066339246,-6,-2,0,-1,-1,-4,1,-1
1532066339251,1,1,-1,0,-1,1,0,0
1532066339256,3,9,-5,-2,0,0,5,1
1532066339261,-2,3,-3,-1,0,-1,-3,-4
1532066339266,-1,5,-1,0,-1,-2,5,2
1532066339271,-7,-2,-5,0,-1,-2,5,0
1532066339276,1,1,-5,-1,-1,-1,0,0
1532066339281,-2,0,-3,1,0,-1,7,-1
1532066339286,3,-2,-3,1,0,-1,10,-1
1532066339291,-4,-2,-6,-3,-2,0,2,-1
1532066339296,-3,-4,-5,1,0,0,-4,1
1532066339301,4,1,-6,-2,-2,2,-6,0
1532066339306,-1,-2,-1,1,-1,2,-6,-1
1532066339311,-4,-3,-2,0,-2,-4,-4,-1
1532066339316,0,-4,-8,-3,-4,-3,6,-1
1532066339321,-7,3,0,0,-3,-4,-5,1
1532066339326,7,-6,-8,-1,-6,-2,-14,-2
1532066339331,8,-3,-4,-3,-4,-4,-22,0
1532066339336,4,-4,0,-2,-4,-1,-24,-5
1532066339341,3,-2,6,1,3,2,-36,1
1532066339346,-3,0,-4,0,2,3,-14,0
1532066339351,1,1,0,-2,1,6,-3,2
1532066339356,1,1,-1,-2,1,-2,18,1
1532066339361,1,1,-2,-2,-2,-4,25,-2
1532066339366,0,2,3,0,0,-1,4,0
1532066339371,-3,0,4,-1,-2,3,23,1
1532066339376,-3,1,-3,0,-2,3,0,-4
1532066339381,-2,-4,-4,-1,-4,0,-24,-2
1532066339386,0,1,0,0,-4,-1,-11,-1
1532066339391,-5,-4,5,0,-3,-3,-4,-1
1532066339396,-1,-2,3,0,-1,-1,2,2
1532066339401,1,-2,-4,-3,-2,-5,12,0
1532066339406,-8,-3,-8,-11,-12,-12,22,-6
1532066339411,0,1,10,6,10,-3,-18,-10
1532066339416,0,-1,3,1,-1,-4,1,-2
1532066339421,-2,-5,-5,1,-3,-3,4,-2
1532066339426,1,0,-2,0,-1,2,7,0
1532066339431,-2,-1,-3,-3,-5,2,15,3
1532066339436,0,-2,2,-1,-1,2,1,1
1532066339441,2,1,2,-1,0,2,2,1
1532066339446,-2,3,2,-1,-3,6,9,3
1532066339451,0,1,1,-3,-4,7,9,0
1532066339456,-1,3,-1,2,2,6,-5,0
1532066339461,5,7,1,-5,-1,5,18,-4
1532066339466,-5,-3,7,4,5,8,-20,-17
1532066339471,1,1,-1,4,6,17,15,7
1532066339476,-4,-8,1,-3,1,19,-3,-10
1532066339481,-5,-6,-10,-3,-3,28,28,14
1532066339486,6,-2,6,2,6,19,-23,-27
1532066339491,-6,-7,0,-1,-3,13,-5,-2
1532066339496,-3,-4,-3,4,-1,18,1,-5
1532066339501,-1,-5,-1,-1,-6,3,-4,1
1532066339506,0,3,-2,-1,-7,7,0,11
1532066339511,0,-3,-5,-5,-14,-9,-1,-3
1532066339516,5,9,-3,-5,-17,-12,-7,8
1532066339521,5,18,2,-2,-13,-13,-11,0
1532066339526,-9,29,-5,-3,-10,-5,8,9
1532066339531,10,22,0,-4,3,-2,-13,-12
1532066339536,-10,-12,4,-4,23,-1,3,19
1532066339541,3,-7,16,0,29,4,-11,-7
1532066339546,2,-19,11,-2,39,9,22,14
1532066339551,-1,-7,5,0,31,14,5,-5
1532066339556,3,-4,4,-1,18,12,-11,-14
1532066339561,-4,-13,-7,0,5,11,4,-1
1532066339566,0,-14,8,1,-13,1,4,4
1532066339571,-5,-13,15,0,-26,-31,6,2
1532066339576,0,-7,8,-2,-23,-64,-3,0
1532066339581,-1,-5,5,1,-22,-29,-1,-8
1532066339586,0,-5,-6,-2,-26,-14,-1,0
1532066339591,4,-9,-9,1,-18,3,8,7
1532066339596,-1,-2,-4,1,-23,2,7,10
1532066339601,-2,1,-1,3,-19,-6,21,-6
1532066339606,-3,-8,1,4,-19,0,-4,3
1532066339611,19,-3,-3,2,-9,-3,-2,4
1532066339616,-31,22,6,3,5,2,15,0
1532066339621,1,-20,-3,4,20,1,-3,1
1532066339626,5,-2,-7,5,36,-4,8,-1
1532066339631,-2,-5,-7,4,37,-3,-6,-2
1532066339636,3,-7,-10,1,28,-11,-10,-8
1532066339641,4,7,-4,5,23,-10,1,10
1532066339646,-5,-3,-3,0,20,-20,-9,-1
1532066339651,-8,-1,-10,-4,14,-37,-9,-16
1532066339656,9,5,1,-3,13,-38,2,3
1532066339661,-14,-12,-1,-9,6,-23,-12,-1
1532066339666,2,-1,-4,-6,-1,-23,-11,5
1532066339671,1,5,-6,-5,-13,11,7,7
1532066339676,0,0,-7,-4,-16,13,-3,-1
1532066339681,6,7,-2,-1,-13,14,-9,-2
1532066339686,-1,1,-7,2,-17,1,7,9
1532066339691,0,-1,0,0,-27,1,-9,0
1532066339696,3,-3,-4,2,-20,6,-4,-7
1532066339701,-2,0,-8,2,-7,8,-13,1
1532066339706,-2,9,3,-2,23,18,9,0
1532066339711,43,3,-6,2,40,6,-15,-8
1532066339716,-4,-18,4,3,71,9,14,9
1532066339721,5,2,0,4,80,-19,1,9
1532066339726,-10,4,-2,3,87,-42,-2,3
1532066339731,-19,3,-5,-6,96,-27,-8,-31
1532066339736,10,6,-10,-8,98,-32,-3,-11
1532066339741,1,-4,-9,-4,87,-18,-7,2
1532066339746,-3,1,-8,2,72,-10,6,-6
1532066339751,-14,-2,9,5,53,-6,0,11
1532066339756,3,0,3,3,7,8,-8,-4
1532066339761,-11,5,1,2,-22,-3,-3,-7
1532066339766,10,2,4,-5,-50,5,0,-2
1532066339771,-11,2,8,-5,-51,8,12,5
1532066339776,-2,-15,-2,-2,-51,33,4,0
1532066339781,5,6,3,-5,-44,14,6,2
1532066339786,-4,-4,8,-5,-46,20,-9,-7
1532066339791,-6,-3,-2,-4,-51,13,2,8
1532066339796,3,6,3,-5,-63,18,-7,-3
1532066339801,-6,0,2,-8,-72,2,3,-2
1532066339806,11,1,1,-15,-65,9,-3,-9
1532066339811,-21,-3,-2,-15,-59,14,-15,-7
1532066339816,-6,5,2,-4,-47,3,-7,1
1532066339821,3,3,-3,4,-43,2,-17,-10
1532066339826,20,0,3,1,-39,-2,-9,-10
1532066339831,0,11,-1,-4,-36,-5,-3,0
1532066339836,-3,-2,-4,2,-23,-2,-5,4
1532066339841,-3,-7,1,1,-14,8,3,0
1532066339846,2,2,3,12,-11,14,1,8
1532066339851,-20,-15,0,11,0,15,10,-4
1532066339856,0,-4,7,3,0,5,5,-3
1532066339861,-1,1,9,-6,1,0,12,-2
1532066339866,-5,-3,-2,-6,-2,-7,4,2
1532066339871,1,-4,-1,-15,0,-11,9,4
1532066339876,0,-1,-7,-12,6,-11,-3,3
1532066339881,-3,-3,0,-1,13,1,-4,-10
1532066339886,-6,-3,-6,5,-2,0,-1,0
1532066339891,5,0,-4,11,-7,-3,-8,6
1532066339896,9,5,-4,12,-8,-1,-3,0
1532066339901,-28,-17,-9,1,-17,-4,-8,-9
1532066339906,-2,0,-2,-4,6,0,9,8
1532066339911,4,3,-2,-1,16,-1,-13,1
1532066339916,-6,3,-2,-3,10,5,-3,-3
1532066339921,6,10,0,0,12,5,-3,-2
1532066339926,-5,0,-2,-2,6,-2,1,-2
1532066339931,-3,5,-1,-1,-9,-7,7,7
1532066339936,10,7,1,-6,-10,0,-3,-4
1532066339941,-11,5,2,5,-32,-2,-1,-10
1532066339946,2,1,-2,6,-61,0,-2,-3
1532066339951,18,12,-7,8,-28,-11,-6,0
1532066339956,-3,1,-7,9,1,-2,8,1
1532066339961,0,6,2,0,25,-3,8,7
1532066339966,-11,0,6,2,31,6,-7,-7
1532066339971,-3,-1,1,4,14,8,-6,-3
1532066339976,13,-7,-1,-3,35,-4,9,6
1532066339981,-31,3,-2,-1,24,4,0,-12
1532066339986,4,0,1,2,37,-3,2,5
1532066339991,12,-11,-10,5,10,1,0,-6
1532066339996,1,-7,-5,6,36,-2,-14,-10
1532066340001,17,-3,-5,-11,65,4,-5,-2
1532066340006,-5,-4,-5,-16,-6,8,-11,-5
1532066340011,-4,7,14,-13,87,12,3,4
1532066340016,-4,-7,12,-6,-58,1,-16,-1
1532066340021,10,3,-5,-8,-77,-18,-10,1
1532066340026,-11,2,-2,-7,-47,-13,-26,-3
1532066340031,9,11,-4,-1,-80,-2,-13,3
1532066340036,-6,12,-2,0,-69,-2,-14,0
1532066340041,0,5,4,15,-27,-3,-11,5
1532066340046,1,2,-3,10,14,-6,-4,-3
1532066340051,-9,-4,-3,5,25,-13,-3,-2
1532066340056,-2,1,-1,5,51,-11,-4,-3
1532066340061,14,0,-1,-5,9,-9,4,2
1532066340066,8,-3,-10,-9,9,-30,-2,-5
1532066340071,-1,-1,-4,4,-3,-17,-10,0
1532066340076,-2,11,-19,1,-3,-7,-60,0
1532066340081,7,5,-1,12,-14,15,-35,-3
1532066340086,9,9,-6,16,-17,24,-48,1
1532066340091,-12,2,5,4,-7,14,-56,-2
1532066340096,8,4,6,-6,4,18,3,7
1532066340101,0,2,10,-5,30,21,-25,1
1532066340106,-12,-5,0,-13,11,0,5,1
1532066340111,7,-5,6,-3,-23,0,29,2
1532066340116,-5,2,29,8,-22,1,41,-3
1532066340121,-8,-9,13,-3,-20,11,40,1
1532066340126,2,-4,29,3,-19,6,33,-5
1532066340131,8,4,14,-7,-22,6,33,1
1532066340136,-4,-6,4,-11,-6,6,31,1
1532066340141,-3,-7,3,-8,8,8,25,2
1532066340146,2,-1,-4,-4,15,10,16,3
1532066340151,-15,-9,-5,1,15,13,17,2
1532066340156,6,-8,-7,3,19,2,21,0
1532066340161,16,-7,-10,3,10,-2,7,3
1532066340166,-32,-15,-5,-2,16,0,14,-2
1532066340171,0,-5,-1,2,6,-2,20,-4
1532066340176,-9,-6,-3,-2,0,1,14,-4
1532066340181,-2,-3,3,11,-10,-6,6,3
1532066340186,-6,3,11,8,4,-2,6,-5
1532066340191,-2,7,16,-4,-4,-2,2,-1
1532066340196,-19,2,8,-3,-8,-1,2,-1
1532066340201,6,1,-4,-8,-8,-5,1,-5
1532066340206,-5,1,10,-7,-12,4,10,0
1532066340211,20,1,3,-6,-9,0,1,2
1532066340216,7,-2,0,1,-6,-1,0,-2
1532066340221,2,-9,-1,-4,-7,-2,1,2
1532066340226,23,-11,-6,0,-2,1,3,0
1532066340231,-32,-23,-7,-1,-2,-4,0,-7
1532066340236,10,-12,-7,0,-4,-1,-1,0
1532066340241,-6,-13,-10,4,-2,3,-9,-3
1532066340246,-4,-12,-6,4,8,5,-12,0
1532066340251,24,17,-10,4,9,1,-6,6
1532066340256,-23,-12,-6,2,9,5,2,-17
1532066340261,-5,-15,-9,-2,3,-2,12,5
1532066340266,-16,-2,-10,2,1,1,12,0
1532066340271,3,-7,-1,2,-1,1,16,-1
1532066340276,4,13,3,2,-1,-3,14,1
1532066340281,4,15,9,1,-1,-4,7,-3
1532066340286,22,5,2,-1,4,-2,7,3
1532066340291,-5,-5,-1,-3,-2,-3,-5,-2
1532066340296,-5,2,2,-3,-1,-3,27,1
1532066340301,2,5,6,-5,3,-4,27,0
1532066340306,28,2,1,-1,-5,-4,26,3
1532066340311,-1,0,11,1,-3,-4,20,-2
1532066340316,2,-11,7,-3,-4,-4,38,0
1532066340321,-6,-5,7,-1,-4,-4,61,-1
1532066340326,1,1,-3,-2,-2,-2,32,2
1532066340331,-40,-13,-2,-5,-2,-3,106,-7
1532066340336,21,-12,-1,-3,-3,-4,91,5
1532066340341,1,-3,-4,-5,-3,-2,-29,-6
1532066340346,-7,-7,0,-7,-7,-2,-26,-3
1532066340351,3,1,-8,-6,-7,-4,-91,-1
1532066340356,3,8,-8,-11,-1,-3,-107,3
1532066340361,3,17,-4,-6,1,-5,-79,-1
1532066340366,0,15,-4,-4,2,-4,-110,0
1532066340371,1,2,-9,-3,5,0,-96,3
1532066340376,-8,-9,2,-2,6,1,-76,-1
1532066340381,-21,-11,2,3,6,2,-69,5
1532066340386,15,-13,-10,-2,4,-1,-38,-8
1532066340391,1,0,-4,2,14,-1,-25,2
1532066340396,14,-14,-6,2,9,-7,-44,-4
1532066340401,-4,-8,-7,2,5,-8,-60,32
1532066340406,-50,-8,1,-2,4,-6,-81,-69
1532066340411,-9,-3,-1,0,4,-5,-64,-14
1532066340416,-12,-3,-5,-1,5,-8,-59,2
1532066340421,23,28,-24,2,2,-5,5,70
1532066340426,-17,2,-41,3,3,0,44,-12
1532066340431,2,12,-36,3,-1,7,53,7
1532066340436,-7,14,-27,1,-3,7,44,-12
1532066340441,17,-9,-15,-2,-4,5,77,37
1532066340446,-6,-11,18,-1,-3,-3,54,23
1532066340451,-5,-13,22,0,-3,-5,28,-55
1532066340456,5,3,16,1,-4,8,27,11
1532066340461,-1,11,18,-3,0,12,17,-35
1532066340466,3,12,10,-1,-1,4,14,25
1532066340471,0,-3,4,-3,-3,1,4,7
1532066340476,-6,5,8,1,-1,-5,6,8
1532066340481,-16,2,10,-2,-6,-16,-11,-35
1532066340486,39,3,7,2,-1,4,13,64
1532066340491,-32,-2,8,0,-1,2,-8,-69
1532066340496,12,5,3,1,0,8,-5,8
1532066340501,-9,-7,2,-2,2,-1,-2,-42
1532066340506,4,9,4,-3,1,-8,8,3
1532066340511,26,5,1,-3,-6,-10,4,72
1532066340516,-61,-12,-2,-3,-4,-8,11,-70
1532066340521,7,-2,5,1,-3,-8,-23,16
1532066340526,-6,4,0,2,2,-1,0,-51
1532066340531,11,5,-2,-1,0,3,37,37
1532066340536,39,-36,-11,-3,-2,-2,-22,77
1532066340541,-48,-12,6,-1,-2,-4,-13,-9
1532066340546,11,4,7,2,0,1,-3,0
1532066340551,6,4,9,0,-1,-3,-15,-20
1532066340556,20,9,4,0,-1,-1,24,13
1532066340561,24,4,-1,-3,1,0,17,35
1532066340566,-5,-4,-5,-1,0,-2,-15,-7
1532066340571,12,-4,-3,0,1,0,11,7
1532066340576,-13,20,1,2,-1,3,-4,-6
1532066340581,-4,-12,-3,0,1,2,17,4
1532066340586,12,5,-5,-2,-2,-2,-23,6
1532066340591,-49,9,-2,0,0,1,-8,-66
1532066340596,-43,5,-4,-2,-2,-5,-9,-12
1532066340601,2,8,0,1,2,0,2,-27
1532066340606,-7,-5,-4,-3,-3,1,19,15
1532066340611,17,-9,-7,-3,-3,0,-6,28
1532066340616,52,13,0,0,3,2,-4,4
1532066340621,3,-11,-1,-1,-1,2,26,4
1532066340626,-50,-3,-8,-6,-3,-5,-39,-64
1532066340631,6,14,3,5,0,0,-20,0
1532066340636,-2,6,10,2,0,0,10,-5
1532066340641,38,-6,4,1,-1,-2,-3,0
1532066340646,-14,-7,2,0,1,2,20,33
1532066340651,11,-15,-1,-2,2,-1,-2,6
1532066340656,-29,-13,-3,-4,0,-2,1,-14
1532066340661,19,12,-4,1,4,3,0,13
1532066340666,42,-5,-1,2,1,1,1,8
1532066340671,-35,-20,-1,-1,-1,-2,-3,-8
1532066340676,21,-23,3,4,3,0,-2,3
1532066340681,-55,-30,0,-2,-2,-1,-8,-9
1532066340686,22,-1,3,0,-1,0,11,7
1532066340691,25,-17,1,-1,0,-1,2,12
1532066340696,-2,-3,-3,-3,-4,-3,-5,3
1532066340701,5,11,0,1,-2,-2,-7,-12
1532066340706,-10,0,0,1,-1,1,9,-1
1532066340711,-14,1,-5,2,-2,-2,1,12
1532066340716,-4,9,0,-2,-1,-3,-7,-7
1532066340721,12,13,1,-2,0,0,-1,-2
1532066340726,-21,6,1,2,-1,-2,1,0
1532066340731,4,-2,-5,-5,-7,-3,-3,4
1532066340736,2,28,1,1,0,2,-3,-6
1532066340741,39,16,-1,2,-4,0,-4,-2
1532066340746,-16,-7,-4,-2,-2,2,0,5
1532066340751,7,-1,5,2,3,1,-3,0
1532066340756,1,-13,0,1,-1,0,0,-4
1532066340761,-6,-5,-2,-4,-4,-2,1,2
1532066340766,3,-4,-1,1,0,-2,-2,1
1532066340771,-5,0,-14,-3,-2,-3,0,-2
1532066340776,-2,-4,13,-4,-6,-2,-1,2
1532066340781,-5,3,-6,0,-2,-4,-4,-1
1532066340786,6,3,3,0,-2,-2,1,1
1532066340791,0,4,-1,-1,-1,-1,1,1
1532066340796,3,11,16,5,0,-2,0,2
1532066340801,-6,-1,-27,-5,-3,-1,-1,-6
1532066340806,3,4,7,1,2,1,2,-1
1532066340811,2,4,2,-2,-2,0,1,1
1532066340816,1,-1,-7,0,1,0,-2,-3
1532066340821,-6,-3,7,1,1,1,-2,-2
1532066340826,-1,-5,1,-1,-1,2,3,2
1532066340831,-1,-3,7,-2,-1,2,-1,0
1532066340836,0,-3,3,2,5,0,-2,0
1532066340841,-3,-5,3,3,11,-2,-3,-3
1532066340846,1,-1,-5,-9,-20,-3,-2,2
1532066340851,4,2,2,2,-1,1,-1,2
1532066340856,3,-2,-9,-4,-4,0,-3,-3
1532066340861,0,-2,-2,-3,3,1,0,1
1532066340866,-1,-4,-6,10,33,1,4,-1
1532066340871,-1,1,-1,-2,-19,-7,-1,0
1532066340876,-1,6,-5,-7,-4,0,1,0
1532066340881,-2,-1,0,2,0,-4,0,-1
1532066340886,3,2,-1,8,16,3,2,-2
1532066340891,-3,8,1,-11,-6,-2,-2,1
1532066340896,-1,7,-4,-20,-22,-4,-2,-2
1532066340901,0,4,9,-4,-16,-2,-2,2
1532066340906,0,-4,-2,-1,-3,-1,-4,1
1532066340911,2,-9,-2,5,10,1,-2,-2
1532066340916,-2,-16,-6,7,4,3,-1,-4
1532066340921,-2,-8,0,-1,0,3,1,-5
1532066340926,-2,-5,-2,-7,-10,-2,-2,-1
1532066340931,2,11,-2,2,6,2,0,2
1532066340936,-1,-20,-5,0,1,-2,1,1
1532066340941,-2,-5,0,4,2,-1,-3,-5
1532066340946,1,4,-1,0,1,-3,1,0
1532066340951,-1,6,1,-3,-1,-2,-1,0
1532066340956,1,15,-4,2,8,1,2,4
1532066340961,-1,-8,0,-2,-1,-2,-1,-1
1532066340966,-2,2,3,-3,-8,-2,0,-2
1532066340971,-2,-14,0,-1,-1,-2,-2,-6
1532066340976,-2,-1,3,-2,-2,0,-1,-2
1532066340981,1,3,-3,0,0,1,-1,1
1532066340986,2,16,0,-1,-2,-3,-1,0
1532066340991,-4,-24,0,1,1,-1,-1,2
1532066340996,-1,6,0,-1,3,-2,-2,-1
1532066341001,-1,-2,-1,0,-5,-2,0,0
1532066341006,4,18,-2,-1,-1,-1,2,4
1532066341011,0,5,2,-4,-3,-1,0,-1
1532066341016,-9,-25,-5,-2,-3,-3,-6,-14
1532066341021,-1,-4,1,-2,-1,-2,0,-2
1532066341026,-1,-4,0,-1,0,1,-3,-2
1532066341031,1,6,2,-1,-2,0,0,0
1532066341036,1,2,1,-2,-3,-2,-1,5
1532066341041,-2,-4,0,-1,1,-1,0,-2
1532066341046,-2,-9,1,2,0,0,-3,-4
1532066341051,1,3,2,-2,-2,-1,-2,0
1532066341056,2,2,0,0,0,2,-1,2
1532066341061,-1,-2,-2,-1,2,0,1,2
1532066341066,0,0,1,2,1,-3,-1,-1
1532066341071,2,16,3,0,-1,0,-3,-3
1532066341076,-2,-25,-6,-3,-2,-1,3,1
1532066341081,0,3,-1,1,0,0,0,1
1532066341086,-3,13,-4,-2,-3,0,-1,-4
1532066341091,-1,-6,0,1,-1,1,1,0
1532066341096,0,-8,-1,0,-1,1,0,2
1532066341101,0,0,0,-3,-2,-2,-5,-8
1532066341106,-2,-8,0,2,1,0,-2,-1
1532066341111,-2,7,-1,-3,-2,1,4,0
1532066341116,5,12,6,0,0,-1,1,4
1532066341121,-1,-8,2,-2,0,-1,2,0
1532066341126,-2,-6,3,-2,0,-2,-4,-3
1532066341131,1,3,2,1,-1,-1,-2,-1
1532066341136,-2,-1,0,-1,-2,0,-1,-2
1532066341141,-5,-3,-3,-1,0,-2,-1,-1
1532066341146,4,0,2,2,1,1,-2,0
1532066341151,-1,-9,1,-2,-1,-2,-2,1
1532066341156,-2,0,-1,-3,-3,-1,-2,-1
1532066341161,1,4,-1,-2,0,3,-2,0
1532066341166,0,-3,-2,-1,0,-5,2,1
1532066341171,-4,-10,-4,-4,-4,0,1,-2
1532066341176,2,13,2,0,0,1,4,2
1532066341181,28,9,1,-1,-1,0,-1,7
1532066341186,-31,-16,6,0,1,0,-3,-9
1532066341191,-2,-3,8,-8,-8,0,-2,-3
1532066341196,-5,-1,-1,-1,-2,-1,-5,-6
1532066341201,5,-3,0,0,0,0,-2,3
1532066341206,8,0,-4,2,-1,-1,0,1
1532066341211,-1,3,-3,3,2,-1,-1,-2
1532066341216,0,7,-1,1,0,1,1,2
1532066341221,-12,-18,-2,-2,0,0,0,-3
1532066341226,5,3,-6,0,1,1,0,-1
1532066341231,-5,-4,1,4,2,0,0,-2
1532066341236,5,5,-1,-15,-10,-2,0,0
1532066341241,-5,-1,8,3,0,-1,-3,-5
1532066341246,-2,-5,-6,-7,-5,-1,2,1
1532066341251,2,-9,-2,0,3,-2,-1,0
1532066341256,-1,-9,1,5,4,0,-1,-1
1532066341261,-6,22,14,-1,-2,-1,1,-5
1532066341266,1,-7,-12,-2,2,1,1,2
1532066341271,-3,5,2,0,0,-1,-2,-4
1532066341276,3,1,-6,0,-1,-2,-2,2
1532066341281,-6,-4,1,1,0,-2,1,-2
1532066341286,10,29,4,1,4,1,-2,1
1532066341291,-16,40,-16,2,7,1,-2,4
1532066341296,27,50,9,-4,2,0,-7,1
1532066341301,27,-10,-13,-6,1,3,-10,10
1532066341306,-7,-3,5,1,-2,-2,11,-1
1532066341311,-11,-29,-9,2,-1,-3,4,-1
1532066341316,2,-22,-83,-1,-2,-1,6,2
1532066341321,0,-8,-52,-2,-1,-1,3,-3
1532066341326,4,2,-5,3,2,1,4,2
1532066341331,-12,13,33,2,0,2,1,-2
1532066341336,0,21,71,0,1,1,1,-1
1532066341341,8,24,48,-2,1,3,2,5
1532066341346,2,17,5,-2,1,-5,-1,-1
1532066341351,1,-12,6,-2,0,-3,-3,-4
1532066341356,-5,10,2,3,2,-1,-2,0
1532066341361,-4,-5,-15,0,3,-1,-2,-1
1532066341366,7,9,-8,-2,-1,0,-3,2
1532066341371,0,-2,3,-1,0,-1,-3,-1
1532066341376,-5,-4,-3,-1,0,0,-3,-3
1532066341381,0,8,-14,-2,-2,0,1,1
1532066341386,1,-2,-2,-2,-1,0,0,0
1532066341391,-1,-11,2,-1,-2,-1,-1,0
1532066341396,-1,-6,-4,-1,-2,-1,-1,-3
1532066341401,-2,0,-8,0,0,-2,-1,-2
1532066341406,-3,0,-1,-1,-1,1,-2,-1
1532066341411,-1,4,-3,-2,-2,-1,-3,-2
1532066341416,1,1,-3,-1,-1,0,-1,1
1532066341421,1,-5,-1,-1,-1,-2,-2,0
1532066341426,-2,5,3,0,-3,0,-3,-3
1532066341431,-1,1,-4,-1,-2,-2,-1,0
1532066341436,-1,-16,-3,1,-2,1,-1,0
1532066341441,-1,2,2,-2,-2,-1,0,1
1532066341446,-1,-6,-1,0,-2,0,0,-2
1532066341451,1,5,-3,-1,0,-1,-1,-1
1532066341456,1,3,-3,-1,0,0,1,-1
1532066341461,-1,-7,-1,-1,-2,-3,-2,-3
1532066341466,-1,-5,-10,-1,-2,-3,2,-1
1532066341471,-1,-5,-5,-1,2,0,0,-1
1532066341476,2,2,-3,0,0,-1,1,2
1532066341481,-5,-5,-4,0,0,-2,0,-3
1532066341486,-3,-1,-4,-2,1,-2,-2,-2
1532066341491,-1,-3,0,0,-3,-4,-1,-1
1532066341496,1,2,4,-2,-1,-2,0,0
1532066341501,2,5,3,-2,-1,2,0,3
1532066341506,8,-6,5,0,0,2,-2,2
1532066341511,-10,-2,3,-1,0,2,0,-4
1532066341516,3,1,5,-2,-1,0,-1,0
1532066341521,-2,0,3,1,0,0,0,-2
1532066341526,13,5,-2,-3,-2,-2,-1,1
1532066341531,-14,-11,1,1,-1,1,-1,-2
1532066341536,1,1,-6,-1,-1,1,-1,0
1532066341541,-4,-2,-5,-1,-3,-1,-3,-1
1532066341546,9,5,-11,1,0,0,1,1
1532066341551,7,5,-7,-2,-1,-3,-2,3
1532066341556,24,-4,-7,0,0,-2,1,2
1532066341561,-22,10,-1,-2,0,-1,0,-7
1532066341566,-13,-8,2,-1,-1,-1,-1,-3
1532066341571,4,9,7,-1,-1,0,0,-3
1532066341576,6,4,9,-1,-1,-1,-1,1
1532066341581,9,-3,-3,-1,1,0,0,1
1532066341586,-4,1,-2,-2,-2,-2,0,0
1532066341591,-4,-8,-4,-1,-1,0,0,-1
1532066341596,-5,9,4,-1,-1,-1,-1,-1
1532066341601,-1,-17,3,-1,-1,0,-1,0
1532066341606,-9,2,-8,-1,-3,-3,-3,-3
1532066341611,9,-2,-8,-1,0,0,0,2
1532066341616,-14,-2,-8,-1,-2,1,0,-4
1532066341621,3,2,-4,-1,-2,-2,-2,0
1532066341626,2,-5,3,0,0,-1,-1,0
1532066341631,2,2,-1,-1,-2,-3,-1,3
1532066341636,-1,-7,2,1,0,-2,0,-1
1532066341641,-11,6,3,-1,1,-2,-1,-3
1532066341646,-1,0,5,0,-1,0,0,-1
1532066341651,-1,2,1,0,1,0,-1,-2
1532066341656,-13,-4,1,1,0,-1,-3,-1
1532066341661,14,0,1,0,-3,-1,-1,-3
1532066341666,1,7,6,-1,0,0,0,-1
1532066341671,0,-7,6,0,-1,0,-1,0
1532066341676,6,1,5,0,-1,0,-1,0
1532066341681,4,0,6,0,-1,0,-2,0
1532066341686,-3,0,4,0,-2,1,-2,-3
1532066341691,7,1,1,-1,-1,-1,-2,-1
1532066341696,-6,-4,-4,-1,0,-2,1,0
1532066341701,2,3,0,-2,0,-1,0,0
1532066341706,-1,-6,0,0,1,0,1,1
1532066341711,-5,2,-1,1,-2,-1,-2,-1
1532066341716,-4,-3,0,-1,-1,0,-1,0
1532066341721,1,-3,1,-2,-1,0,0,-1
1532066341726,-4,-3,1,0,-1,-1,-2,-1
1532066341731,3,-2,1,-1,-1,-1,2,-1
1532066341736,-8,-2,1,-1,-2,-1,-2,-4
1532066341741,1,1,2,0,-1,-1,-1,0
1532066341746,1,-3,3,-3,-1,-2,-1,0
1532066341751,-2,-3,0,-3,1,-1,0,-2
1532066341756,0,-2,0,-3,-1,-1,-1,-1
1532066341761,-2,-2,0,1,-1,-1,0,4
1532066341766,-6,-3,-1,-1,0,-2,-2,-1
1532066341771,-1,0,2,-2,-2,-2,0,0
1532066341776,1,0,1,0,-2,-1,-2,-1
1532066341781,-4,-3,-1,-1,-2,0,1,0
1532066341786,-1,-3,-2,-1,1,0,-1,0
1532066341791,0,3,0,-1,-1,0,-2,-2
1532066341796,-2,0,-1,-2,0,0,-2,0
1532066341801,-1,-1,0,0,-1,-1,-1,-2
1532066341806,0,-1,-1,-1,-1,1,1,0
1532066341811,-3,1,-3,-1,1,-2,-1,-2
1532066341816,-3,-2,0,0,-1,-1,1,-2
1532066341821,3,-1,0,-2,-1,-1,-3,0
1532066341826,-1,-3,0,0,0,-1,-1,-1
1532066341831,-3,-3,0,-1,-1,-1,-1,-1
1532066341836,1,2,-1,-1,0,0,-1,-1
1532066341841,1,-3,-3,-1,-1,-2,0,0
1532066341846,2,4,-3,-2,-3,-2,-1,-2
1532066341851,0,4,-4,-1,-2,0,0,-3
1532066341856,-6,-7,0,1,2,0,-1,2
1532066341861,0,2,0,-1,-1,0,-1,-2
1532066341866,-2,-2,-2,0,0,0,-2,-1
1532066341871,0,-1,-1,-2,-2,1,1,0
1532066341876,3,1,0,-2,-2,-2,-1,-1
1532066341881,-3,-1,-2,-1,0,1,0,0
1532066341886,0,-1,0,-1,-2,-1,-1,1
1532066341891,0,-1,0,0,0,0,-1,-1
1532066341896,2,-1,-1,-4,-2,0,-1,-1
1532066341901,-2,-1,-2,0,-1,0,1,-1
1532066341906,1,7,1,-1,-1,0,-2,-1
1532066341911,-1,-3,-1,0,1,1,0,0
1532066341916,-1,1,-2,0,1,-1,-1,-1
1532066341921,0,2,0,1,-1,-1,-2,0
1532066341926,-1,-3,-2,-2,-2,1,-1,-1
1532066341931,-2,0,0,-1,-1,-1,-1,-1
1532066341936,1,-1,-2,0,0,-1,-1,-1
1532066341941,-1,0,-2,-2,0,-1,-1,-1
1532066341946,-2,-3,1,1,-1,-2,0,0
1532066341951,-1,-1,0,-3,0,1,-2,-1
1532066341956,1,-2,-1,-1,0,-2,2,0
1532066341961,0,-1,0,0,-1,0,1,-1
1532066341966,-1,-2,1,0,0,1,0,-2
1532066341971,0,-1,0,-1,-3,-2,-2,-2
1532066341976,-1,1,-1,-1,0,0,0,-1
1532066341981,-2,-2,0,1,0,-1,-2,0
1532066341986,-2,-4,-1,-1,-1,-1,0,-1
1532066341991,1,-2,0,0,0,-1,0,1
1532066341996,-1,-2,1,0,-1,0,-1,0
1532066342001,3,4,-2,-4,-3,-3,-1,-1
1532066342006,1,0,-8,-2,-2,-1,-2,-2
1532066342011,-1,-6,-1,2,0,0,-1,-1
1532066342016,-1,-1,0,-1,0,0,-2,0
1532066342021,0,-1,1,-1,-2,-1,2,0
1532066342026,-1,-2,-1,0,-1,-1,0,1
1532066342031,0,0,-4,0,-1,-1,-3,-2
1532066342036,0,-1,-2,0,-2,-1,1,1
1532066342041,0,-1,-3,-1,-2,-1,-2,-2
1532066342046,-1,0,0,0,-3,0,-2,-1
1532066342051,0,0,-2,0,-2,0,-2,-2
1532066342056,-2,0,0,-1,-3,-2,-1,-3
1532066342061,-13,-3,0,-1,-1,1,1,2
1532066342066,-2,-4,-1,0,-1,-2,-2,-6
1532066342071,3,6,1,0,0,0,0,1
1532066342076,0,-1,-1,0,-1,-1,0,-3
1532066342081,3,2,-2,-1,-1,-1,0,-3
1532066342086,-2,1,0,0,-1,0,-1,0
1532066342091,-25,-14,-5,-3,-3,-1,0,-4
1532066342096,20,7,6,-1,-1,0,-2,4
1532066342101,-52,-14,-3,-2,0,-2,-3,-9
1532066342106,1,-2,0,0,0,2,1,0
1532066342111,2,-1,-3,-1,1,-1,-3,-2
1532066342116,-2,0,-1,0,0,0,-2,1
1532066342121,16,2,-1,-1,0,-1,0,2
1532066342126,-1,-1,0,-3,-1,-3,0,-1
1532066342131,1,-2,-2,-3,0,-1,-1,-1
1532066342136,-5,-4,-3,-1,1,-1,1,-1
1532066342141,13,4,0,0,-1,0,0,0
1532066342146,-3,-2,-3,-1,1,0,-1,-2
1532066342151,8,2,0,-3,-2,-2,-1,0
1532066342156,-3,-3,-1,-2,-1,-3,1,-3
1532066342161,5,1,-1,2,-2,-1,-2,-1
1532066342166,1,1,1,-1,0,0,0,2
1532066342171,-1,-1,4,0,-1,-1,-2,-1
1532066342176,-3,-1,-8,-2,-1,-1,-2,-2
1532066342181,4,1,4,0,0,1,-2,1
1532066342186,-1,0,1,0,-2,-1,-3,-1
1532066342191,2,0,0,0,-1,1,1,1
1532066342196,-5,-4,1,1,1,0,1,-2
1532066342201,7,1,-1,-1,2,1,-1,1
1532066342206,2,0,1,0,-3,1,-1,-1
1532066342211,-1,-1,-4,0,0,0,-1,-1
1532066342216,0,-1,1,0,-2,-1,1,-2
1532066342221,1,0,1,0,0,-2,-2,0
1532066342226,-1,-2,-2,-1,-2,-1,-2,-2
1532066342231,-1,0,1,2,-2,0,0,0
1532066342236,-1,-2,-1,0,-2,-1,-2,-1
1532066342241,4,2,0,-2,-3,-3,-1,-1
1532066342246,-3,-4,-1,0,1,-1,1,1
1532066342251,-2,-2,-1,1,0,0,0,-1
1532066342256,-1,0,0,-2,-1,0,-3,1
1532066342261,2,5,9,0,-2,-1,-1,-1
1532066342266,1,-2,1,0,0,-3,0,1
1532066342271,3,-1,0,-1,-1,1,0,-1
1532066342276,-5,-6,2,2,2,2,1,-1
1532066342281,0,-1,-4,-2,1,-1,-1,-1
1532066342286,1,5,-2,-2,-1,-1,-2,-2
1532066342291,1,-3,0,-1,0,-2,0,0
1532066342296,-1,1,-3,-2,-3,-4,-3,-2
1532066342301,1,-2,-2,-1,-1,-1,-1,-2
1532066342306,-1,6,-1,-1,-1,0,-2,-2
1532066342311,-1,1,-1,-2,-1,-2,-1,-2
1532066342316,0,1,-1,-1,-2,0,-1,-2
1532066342321,-1,-4,-3,-1,-3,-1,0,1
1532066342326,-1,-2,0,0,-1,0,-3,-1
1532066342331,0,0,-2,-2,0,-1,0,-2
1532066342336,-1,-2,-1,0,1,0,-2,-1
1532066342341,0,0,-1,-1,-1,-2,-1,-2
1532066342346,0,-3,0,0,-2,-3,-2,0
1532066342351,-1,0,-3,-1,-3,-1,-1,-1
1532066342356,0,0,0,-1,-2,-2,-1,-2
1532066342361,0,-3,-3,0,0,1,0,0
1532066342366,-1,-3,1,-2,-1,0,1,0
1532066342371,-1,-1,-1,0,-1,0,-1,0
1532066342376,0,1,0,-1,0,0,0,0
1532066342381,0,0,-2,-1,-2,-1,-1,1
1532066342386,-1,-1,0,-2,1,1,-2,0
1532066342391,-1,-1,1,-2,-1,1,1,0
1532066342396,-2,-1,-2,-2,-1,-2,-2,-1
1532066342401,1,-1,-2,0,-1,-2,-2,-2
1532066342406,0,0,1,-2,-3,-2,-1,-2
1532066342411,-2,-1,1,0,0,-1,-2,-1
1532066342416,0,-1,0,0,1,-1,-1,-1
1532066342421,-1,-1,0,0,-1,-1,0,-2
1532066342426,0,0,-1,1,-1,0,0,-1
1532066342431,1,0,-1,-1,-2,-2,-2,-2
1532066342436,-2,0,0,0,0,-2,-1,0
1532066342441,-3,0,-1,-1,1,0,0,-1
1532066342446,-1,-1,-1,-1,0,0,-1,-2
1532066342451,0,-3,-2,-1,-2,-1,-1,0
1532066342456,0,-1,-1,0,-2,1,-3,0
1532066342461,0,-1,-3,-1,-1,0,-1,0
1532066342466,0,-2,-1,-1,-3,-1,-1,-1
1532066342471,-1,0,0,-1,0,-2,0,-1
1532066342476,1,1,-2,-2,-3,-3,-1,-2
1532066342481,-2,-1,0,-1,-1,-2,1,-1
1532066342486,-2,0,0,-1,1,-1,-2,0
1532066342491,-1,1,-2,-1,1,0,0,-1
1532066342496,0,0,-1,-3,0,-1,1,-1
1532066342501,-1,-2,-2,0,-1,0,0,-1
1532066342506,-1,-1,0,0,-1,-1,-1,-2
1532066342511,0,-1,0,0,-1,-1,-1,-1
1532066342516,-1,-2,-2,0,0,0,0,-2
1532066342521,2,-2,0,-2,-1,0,-2,-1
1532066342526,-2,-2,-1,0,-1,0,2,0
1532066342531,-1,-1,2,0,-1,-1,-3,-2
1532066342536,0,-2,-1,0,-1,-2,-2,0
1532066342541,-1,1,0,-1,0,-1,-2,-1
1532066342546,1,0,0,0,0,-2,-2,-1
1532066342551,-2,-1,-2,-2,0,0,-1,0
1532066342556,-1,-2,-2,-1,0,0,1,-1
1532066342561,-1,0,0,0,-1,-1,-1,0
1532066342566,-1,-1,0,-2,-1,-1,0,-3
1532066342571,-2,-2,0,1,-3,-2,-1,-2
1532066342576,-1,-2,2,0,-1,0,0,-1
1532066342581,-1,-1,0,-2,-2,3,-1,0
1532066342586,-2,-1,-3,-1,-1,0,-3,-1
1532066342591,1,0,0,-2,-1,0,-2,-1
1532066342596,1,0,-1,-2,-1,-3,1,1
1532066342601,-2,-2,-1,0,-1,0,-1,0
1532066342606,-1,-1,0,-2,0,0,0,0
1532066342611,1,0,0,-1,-3,0,-2,-1
1532066342616,-2,-1,0,-3,-2,-1,-1,1
1532066342621,1,1,0,-1,1,-2,-1,-1
1532066342626,-3,-2,-1,-1,-1,-2,1,0
1532066342631,-2,0,-2,-2,0,-2,-2,0
1532066342636,0,-1,-1,-1,-2,0,0,-1
1532066342641,1,-1,2,0,-2,-1,-1,0
1532066342646,0,-1,0,-1,-1,1,-1,0
1532066342651,-1,-1,-2,0,-3,-1,-1,0
1532066342656,-1,0,-1,0,-2,0,-2,-2
1532066342661,2,-2,-1,-1,0,-1,-1,-3
1532066342666,0,-3,-4,2,-1,-1,2,-1
1532066342671,-3,-2,3,-3,-1,0,0,1
1532066342676,-1,2,0,-1,-1,0,-2,-1
1532066342681,-3,0,0,1,1,1,-1,-2
1532066342686,0,2,4,-1,-1,-2,-2,-1
1532066342691,1,-1,-2,-1,-1,-1,-1,-1
1532066342696,4,-1,1,-1,0,-1,1,9
1532066342701,-8,-3,-5,-1,-2,-2,3,19
1532066342706,-1,-1,-2,1,-1,1,-3,-5
1532066342711,-2,0,-2,0,0,-1,1,-8
1532066342716,-3,-1,0,-1,0,-2,0,-2
1532066342721,0,-1,-2,-2,-1,-1,0,2
1532066342726,0,0,-2,-1,-1,-2,-4,-3
1532066342731,-2,-1,1,-1,-2,0,-1,5
1532066342736,-1,-2,-2,-2,-2,-1,-2,-2
1532066342741,1,1,0,0,-2,-1,-1,1
1532066342746,1,-1,-1,-1,-2,-3,2,5
1532066342751,-2,-3,1,2,2,0,-2,-1
1532066342756,-1,2,-5,-3,-2,0,-2,-5
1532066342761,0,-2,-1,-1,-1,0,-2,-1
1532066342766,-1,1,-1,-1,-2,0,0,-1
1532066342771,-1,0,-2,-2,-1,-1,0,-1
1532066342776,-1,0,6,-1,-1,-2,-2,-3
1532066342781,0,-1,-2,0,0,-2,0,4
1532066342786,-1,0,0,0,0,-1,-1,-1
1532066342791,1,-2,-1,-1,-2,-2,0,-2
1532066342796,-1,-1,-1,1,0,1,0,0
1532066342801,2,-2,-1,-1,-1,-1,-2,1
1532066342806,-2,-2,1,0,-1,-2,-2,-3
1532066342811,0,1,-2,-1,-1,-1,-1,-4
1532066342816,-2,-3,-3,0,0,0,0,-1
1532066342821,0,-1,1,0,-2,-2,-1,-1
1532066342826,-2,0,-2,0,0,0,0,-2
1532066342831,0,-1,1,-2,-1,0,0,2
1532066342836,-1,-1,-3,-2,-1,-1,0,0
1532066342841,0,-1,-1,-1,-1,1,-3,0
1532066342846,-1,0,-2,-1,1,-1,0,0
1532066342851,-2,-2,2,1,0,-2,-2,-1
1532066342856,-3,-1,1,0,0,-1,1,-2
1532066342861,0,0,-2,-2,0,-1,-1,0
1532066342866,-1,-1,-1,-1,-2,-1,-1,-1
1532066342871,-2,-1,-2,-2,-1,-1,-1,0
1532066342876,0,0,-1,-1,-1,-2,-3,-1
1532066342881,0,0,-2,1,0,0,-1,-1
1532066342886,1,0,0,-1,0,-1,-1,1
1532066342891,1,0,2,0,0,-2,0,-1
1532066342896,-1,-3,-2,-1,-1,0,1,0
1532066342901,-1,0,-1,-1,-1,-1,-1,0
1532066342906,0,-1,0,-1,0,0,-1,-1
1532066342911,-1,-1,-1,-1,-2,-2,-1,0
1532066342916,1,-2,-2,1,0,-1,-1,0
1532066342921,0,0,0,0,-2,1,-2,0
1532066342926,-4,-3,-1,-1,-1,-2,0,0
1532066342931,-1,-1,-2,0,-1,-2,-2,-1
1532066342936,0,-2,0,0,-3,-2,0,-2
1532066342941,-1,-1,-2,-1,-1,0,1,0
1532066342946,2,1,1,-1,-1,0,-1,0
1532066342951,-1,0,-2,0,-1,0,-2,-1
1532066342956,-1,0,6,-1,0,0,-2,0
1532066342961,-2,0,-1,0,-1,-1,-1,0
1532066342966,-1,-2,-2,1,1,-1,-2,-1
1532066342971,0,-1,0,-1,0,-2,1,-1
1532066342976,0,-1,0,-1,-1,-1,0,-1
1532066342981,1,1,0,0,-1,0,1,0
1532066342986,-1,0,-1,-1,-1,-1,0,-1
1532066342991,-1,-2,-1,-2,-1,-1,-2,-1
1532066342996,1,-3,-3,-1,0,0,-1,0
1532066343001,-2,0,0,0,-1,0,0,0
1532066343006,-1,0,-2,-1,0,-4,-1,-2
1532066343011,1,0,-1,-1,-2,0,0,-1
1532066343016,-4,0,1,0,0,-2,0,0
1532066343021,-1,-1,-1,-2,-1,0,0,-2
1532066343026,-3,-3,-1,-1,1,0,-2,-2
1532066343031,1,-1,1,-1,-1,0,2,0
1532066343036,1,-1,-2,-3,-2,0,-1,0
1532066343041,-1,1,2,0,-1,-1,1,0
1532066343046,-1,-1,-1,0,0,-1,-3,-1
1532066343051,0,-2,1,-1,-1,0,-2,-1
1532066343056,0,-1,-1,0,1,0,1,-2
1532066343061,0,-2,-4,-4,-1,-1,1,-1
1532066343066,1,2,8,1,-2,-1,0,-2
1532066343071,1,0,-3,-3,-1,-1,0,-1
1532066343076,0,0,1,0,-1,0,-3,-1
1532066343081,-2,-1,-2,-2,0,-1,-1,0
1532066343086,-1,-3,-3,-2,-2,0,-1,0
1532066343091,-1,-2,-2,0,0,0,-1,-1
1532066343096,0,-1,3,-1,-2,0,-2,0
1532066343101,0,-1,-2,-2,-1,-3,2,0
1532066343106,-1,-1,-2,0,0,0,-2,-1
1532066343111,0,1,1,-2,-1,0,-1,0
1532066343116,-1,1,-3,-1,-2,1,-1,-2
1532066343121,-1,-2,-1,-2,0,0,-2,-1
1532066343126,-1,0,1,-1,-3,0,0,0
1532066343131,-3,-3,-3,1,0,0,-1,1
1532066343136,-1,0,-1,-1,0,0,1,-1
1532066343141,0,-1,-2,-1,1,-2,-1,-1
1532066343146,-1,1,0,0,1,-2,-1,-2
1532066343151,0,0,16,1,-1,-1,-2,-3
1532066343156,-2,-4,-16,-3,0,-1,0,-1
1532066343161,1,-2,-3,-10,-1,0,-1,-1
1532066343166,1,-1,-4,2,-1,0,0,-1
1532066343171,-2,-3,1,9,-4,-2,-3,0
1532066343176,-2,-2,9,2,3,1,2,-1
1532066343181,0,0,-4,-8,-2,1,-1,-1
1532066343186,-4,-3,0,-5,-7,-3,-5,1
1532066343191,-1,-1,-9,-6,0,0,0,-2
1532066343196,0,1,0,4,-1,-1,-2,-1
1532066343201,2,1,7,3,2,0,0,-2
1532066343206,0,-3,3,16,2,-2,1,-1
1532066343211,-2,-3,-2,-22,-8,-1,-3,1
1532066343216,-1,0,-3,-3,-6,-1,-1,0
1532066343221,-4,-2,9,-5,-1,0,0,-1
1532066343226,-1,-5,-16,-12,-1,-1,0,-2
1532066343231,2,2,5,-1,4,-1,-1,-1
1532066343236,2,-3,-9,-4,-4,-2,2,-2
1532066343241,-3,0,3,24,3,0,-2,-1
1532066343246,0,1,1,-43,-5,-3,-1,1
1532066343251,-5,-1,-2,31,0,0,-1,2
1532066343256,2,1,1,-28,2,0,1,0
1532066343261,3,3,-3,36,6,0,3,-3
1532066343266,1,0,-5,18,1,-2,-1,-4
1532066343271,-1,-3,-2,-47,-8,-3,1,-3
1532066343276,-3,-2,10,57,-5,-3,-3,1
1532066343281,-4,-5,-10,-39,-11,-3,-5,-1
1532066343286,-5,-5,3,-5,-5,0,-5,4
1532066343291,1,0,-5,24,6,1,0,1
1532066343296,3,2,-2,-54,3,0,2,-1
1532066343301,4,2,3,33,8,1,1,-1
1532066343306,2,4,2,26,4,0,3,-4
1532066343311,-4,1,4,-2,-7,-1,-4,2
1532066343316,-2,1,2,-16,7,2,-1,1
1532066343321,5,1,-5,-25,7,0,3,-3
1532066343326,3,1,5,50,3,1,1,-2
1532066343331,-10,-7,-2,28,-14,-5,-8,0
1532066343336,-4,0,-2,-10,-7,0,-2,3
1532066343341,-6,-2,0,36,-10,-3,-4,0
1532066343346,-2,0,-4,-47,6,2,3,-5
1532066343351,6,2,5,8,5,-1,4,-4
1532066343356,-5,-5,-5,-5,2,-1,2,-1
1532066343361,1,-2,-1,-34,-4,-1,2,-2
1532066343366,2,0,2,12,0,0,1,1
1532066343371,-3,0,-3,-9,-1,1,-2,-1
1532066343376,4,2,-2,1,3,-2,-2,-3
1532066343381,1,0,1,-14,-1,0,0,1
1532066343386,-2,-1,0,34,-2,-1,-2,3
1532066343391,-5,-2,3,13,-8,1,-3,1
1532066343396,-1,-1,0,1,0,-1,-2,-1
1532066343401,-2,-2,-2,-9,-3,0,0,-2
1532066343406,1,1,-3,-31,5,1,0,-2
1532066343411,10,1,-5,-29,-1,0,2,-1
1532066343416,-9,-3,-3,38,-3,-2,-2,-1
1532066343421,-6,-5,8,11,0,0,-5,1
1532066343426,-8,2,3,-30,-2,-1,-2,-2
1532066343431,-3,1,-3,3,8,1,1,-9
1532066343436,1,1,-3,-28,-3,-2,0,-3
1532066343441,5,-6,2,39,-7,-3,-6,3
1532066343446,3,-2,0,1,-3,-1,-2,2
1532066343451,1,1,-1,-1,4,-1,0,0
1532066343456,3,1,-3,-14,-1,-1,0,1
1532066343461,-3,-1,-3,-6,-2,-3,-1,-3
1532066343466,0,-5,-4,-4,-3,-1,-2,-1
1532066343471,2,1,4,-7,-1,-2,1,1
1532066343476,-2,-6,0,23,-1,2,-3,-3
1532066343481,1,2,-1,-32,2,0,3,-2
1532066343486,-5,-5,0,31,-8,-1,-3,-1
1532066343491,-7,-3,2,11,-3,-1,-1,3
1532066343496,2,0,0,-9,0,-1,0,1
1532066343501,4,2,-2,12,5,1,1,3
1532066343506,5,-2,-11,-55,-3,-1,1,-3
1532066343511,1,3,-1,16,1,-1,-1,0
1532066343516,20,0,4,22,-1,1,1,4
1532066343521,-6,-1,-5,-25,-2,0,-3,-6
1532066343526,3,3,-2,-3,3,-1,2,1
1532066343531,7,-3,0,21,-4,-3,-4,7
1532066343536,-12,2,2,-6,-2,-2,-1,-26
1532066343541,5,3,-7,-24,3,1,1,2
1532066343546,0,-1,1,7,-6,-3,-1,-1
1532066343551,-1,0,0,5,3,0,-1,0
1532066343556,-6,-9,-1,-25,2,2,2,9
1532066343561,-3,0,-4,8,-4,-3,1,0
1532066343566,-3,-3,3,27,-2,1,-1,-4
1532066343571,1,5,-3,-13,2,-1,2,-2
1532066343576,2,2,1,11,0,0,-2,4
1532066343581,1,3,-6,-21,-2,-1,-1,-1
1532066343586,10,4,2,-14,1,-2,-2,5
1532066343591,27,7,-2,7,-2,0,1,2
1532066343596,-42,-18,-7,-5,-4,-1,-2,-6
1532066343601,-2,-4,2,7,-1,0,-3,-1
1532066343606,-16,-6,-2,23,2,0,-1,0
1532066343611,19,3,2,-10,4,0,-2,-2
1532066343616,6,4,4,16,0,-2,0,-2
1532066343621,-5,-5,-2,-4,-4,-1,-2,-4
1532066343626,-3,-2,-3,-1,3,-1,3,3
1532066343631,-19,-7,-7,-38,1,1,-2,-9
1532066343636,7,4,6,46,-4,-1,-3,1
1532066343641,0,-2,1,-17,-1,-2,1,4
1532066343646,-5,-1,0,10,-4,-1,0,3
1532066343651,-10,-3,-3,-6,0,-2,-5,-2
1532066343656,2,4,-3,-14,-1,0,-2,6
1532066343661,2,-1,2,16,-2,-1,2,-4
1532066343666,-17,0,-3,-23,-1,2,-1,-3
1532066343671,7,-3,0,-4,0,1,4,1
1532066343676,-21,-4,1,-1,-2,-1,0,6
1532066343681,-1,0,0,1,3,-1,-5,-20
1532066343686,6,3,3,8,-1,-1,-3,-8
1532066343691,-5,-1,-2,-3,-4,-1,-1,-2
1532066343696,8,1,0,-4,0,0,-1,3
1532066343701,-4,-1,-2,-11,2,0,1,2
1532066343706,1,-1,5,18,-1,-2,-1,1
1532066343711,-7,-1,-5,-18,1,-2,-3,-4
1532066343716,2,2,-2,-4,-1,-2,0,0
1532066343721,-7,-3,1,-4,1,-2,2,-1
1532066343726,6,2,-1,-3,1,-1,0,-3
1532066343731,0,0,2,11,-1,-2,0,1
1532066343736,-4,0,2,-4,-2,1,-2,2
1532066343741,8,-2,-4,1,-1,1,0,-2
1532066343746,3,0,2,-7,0,-1,0,-5
