1532142299064,-20,-3,-3,2,1,-2,-4,-6
1532142299069,-5,7,-9,-7,-4,-1,0,-3
1532142299074,-2,-6,-14,-9,-2,-4,-3,-1
1532142299079,12,9,-5,-4,1,5,-8,2
1532142299084,-13,-22,7,2,-1,-8,7,9
1532142299089,3,-1,7,1,-5,-1,-6,-14
1532142299094,35,-27,-7,-3,-3,-4,-1,-2
1532142299099,8,17,-12,-4,2,-2,-8,-1
1532142299104,28,-3,26,12,3,4,-2,2
1532142299109,10,31,-4,-2,-1,-1,1,5
1532142299114,-10,10,-3,-1,0,2,-2,-2
1532142299119,14,-17,5,-1,-5,-6,3,-9
1532142299124,-37,-16,-9,-5,-1,1,-3,0
1532142299129,4,-5,-2,-5,-6,-3,-6,-2
1532142299134,-1,-5,-18,-6,1,1,0,-3
1532142299139,1,3,16,12,4,4,12,3
1532142299144,19,30,15,5,2,-5,0,5
1532142299149,9,-17,-4,2,-1,-1,0,0
1532142299154,10,-45,-7,-7,-2,-1,5,7
1532142299159,-21,-16,-16,-10,-7,-6,-16,-18
1532142299164,6,20,0,2,3,4,11,-4
1532142299169,7,2,11,4,2,4,4,8
1532142299174,-9,12,-2,-1,-1,-3,-5,3
1532142299179,-13,4,-3,-2,0,-2,6,4
1532142299184,-17,18,1,3,-1,2,-5,-5
1532142299189,-11,-11,3,-1,-2,-4,5,-13
1532142299194,-39,-4,-4,-4,-1,1,3,-2
1532142299199,3,3,0,-1,-3,-4,-7,5
1532142299204,2,10,-1,1,2,4,-1,-7
1532142299209,-4,-23,4,5,1,0,-5,-1
1532142299214,4,14,5,4,-3,-3,2,5
1532142299219,18,6,-7,-8,-1,-2,-5,-2
1532142299224,-54,-26,-18,-10,-6,-1,-2,-2
1532142299229,13,27,4,-1,-2,0,-2,5
1532142299234,-1,-11,8,7,2,-1,-3,-15
1532142299239,-7,0,1,-1,0,-2,-5,2
1532142299244,6,-18,-14,-6,-3,1,1,3
1532142299249,-16,34,13,4,0,0,-2,2
1532142299254,15,-27,-4,-7,-1,3,2,6
1532142299259,-30,-4,-2,2,-1,-4,-7,-2
1532142299264,36,18,6,5,0,-1,0,-17
1532142299269,-12,-35,-7,-11,-3,-2,-2,3
1532142299274,-1,8,4,3,0,-4,-5,-3
1532142299279,9,39,2,3,2,1,4,1
1532142299284,0,-4,3,-1,-2,2,3,7
1532142299289,6,-32,-11,0,2,-2,-5,-2
1532142299294,17,13,1,-3,-1,-2,-6,6
1532142299299,-44,-26,-6,-4,-4,-6,-5,5
1532142299304,-13,7,2,0,0,-1,-2,-12
1532142299309,-10,10,-9,-5,-3,0,-4,-7
1532142299314,-11,25,-3,-2,3,2,-1,4
1532142299319,14,-17,-6,0,-1,-1,-3,-8
1532142299324,1,-39,4,5,2,-1,4,10
1532142299329,-6,24,6,0,0,2,1,1
1532142299334,-2,-9,-9,-1,1,-3,-3,-3
1532142299339,1,12,8,2,-2,2,5,-6
1532142299344,-2,10,8,1,-1,0,9,9
1532142299349,33,-11,-14,-9,-3,-1,1,3
1532142299354,9,-1,-4,-1,-3,0,8,-1
1532142299359,-25,4,3,1,0,-3,-2,2
1532142299364,-11,-6,1,4,1,3,6,-8
1532142299369,3,4,14,3,0,2,-5,-5
1532142299374,-3,6,-8,-6,0,3,-3,-1
1532142299379,-6,3,2,3,-1,-6,1,6
1532142299384,-6,-15,6,-1,-2,0,3,1
1532142299389,-1,9,-10,-6,-5,-4,-1,1
1532142299394,3,-3,6,0,2,3,1,-1
1532142299399,5,16,-8,-3,-1,-1,1,-1
1532142299404,2,-10,5,0,-1,0,5,0
1532142299409,8,18,-8,-3,3,-4,10,-2
1532142299414,-3,7,-1,-1,-3,-5,-14,1
1532142299419,-12,-21,8,3,-1,-1,4,-6
1532142299424,8,1,-7,-4,4,-5,-7,0
1532142299429,1,2,4,1,-2,3,2,1
1532142299434,4,-5,-6,-6,-3,-3,1,0
1532142299439,9,-4,-8,-1,2,0,-3,-4
1532142299444,-1,4,18,10,3,0,-1,2
1532142299449,-3,-3,-5,-4,-4,3,-3,0
1532142299454,-3,-2,4,-2,-1,-9,-13,-5
1532142299459,-3,3,-13,-7,-4,1,-8,-7
1532142299464,5,-1,6,-2,1,0,0,1
1532142299469,4,-2,-7,0,2,0,-1,0
1532142299474,-8,-11,-2,0,-3,-1,2,2
1532142299479,-8,-5,4,0,-1,3,2,1
1532142299484,9,-7,-8,-2,1,-6,6,0
1532142299489,-12,18,4,2,0,1,-9,-4
1532142299494,-8,9,-7,-3,1,-1,5,11
1532142299499,6,-29,1,2,1,0,-4,-14
1532142299504,7,16,-6,-2,-6,-4,-10,2
1532142299509,-14,-19,9,3,-2,0,2,-11
1532142299514,10,11,-5,0,6,-3,-1,6
1532142299519,-4,4,3,1,-5,2,7,5
1532142299524,2,-4,-2,-5,-1,2,10,2
1532142299529,0,-6,-4,-2,-2,-3,-2,4
1532142299534,-1,-6,-12,-5,-1,0,-3,-10
1532142299539,-2,-33,10,4,0,-2,-5,0
1532142299544,2,23,-1,1,0,5,-3,0
1532142299549,-1,-3,10,5,-3,-8,3,5
1532142299554,-1,-4,3,0,-1,-2,-37,-11
1532142299559,-2,-7,-10,-6,0,-2,-4,2
1532142299564,-1,-6,-8,-9,-7,1,3,-4
1532142299569,0,-8,-11,2,3,2,-6,1
1532142299574,1,23,10,4,0,1,12,0
1532142299579,2,35,2,3,2,-2,-4,-1
1532142299584,-7,-23,-1,-2,-8,-4,-7,-3
1532142299589,1,-2,-7,-7,4,4,2,3
1532142299594,1,-12,-8,-3,0,2,23,-3
1532142299599,-3,11,2,0,-5,-1,3,2
1532142299604,-3,-1,0,-1,5,-4,1,0
1532142299609,6,10,-1,-2,-21,0,-2,-1
1532142299614,-1,-23,2,-1,-1,3,9,0
1532142299619,-2,1,-6,-3,4,-7,-12,-1
1532142299624,3,-2,4,2,1,-1,-1,0
1532142299629,-1,11,0,-1,0,1,1,-3
1532142299634,-1,27,4,4,3,0,-2,5
1532142299639,-7,-20,-10,-3,-4,1,0,0
1532142299644,-5,-7,9,4,-1,1,-2,-3
1532142299649,5,-19,-8,-5,4,-5,-7,-2
1532142299654,5,19,4,-3,6,5,-1,0
1532142299659,1,0,-12,-4,-13,-7,-5,-1
1532142299664,-4,11,-2,-2,-1,1,3,1
1532142299669,-4,-8,1,4,-9,0,0,0
1532142299674,-4,-13,8,2,-2,-4,-9,-3
1532142299679,-5,7,1,-2,9,9,18,-1
1532142299684,-1,-12,-7,-5,-1,3,-4,-4
1532142299689,1,10,-1,4,2,-4,0,-1
1532142299694,-1,-12,-7,-2,6,3,-2,-1
1532142299699,2,9,3,-2,-19,-7,-5,-2
1532142299704,-2,1,0,0,-6,3,-4,-1
1532142299709,-2,-8,-8,-9,-5,0,-2,-1
1532142299714,0,1,-6,1,2,-4,-3,-2
1532142299719,2,-2,14,3,1,3,3,3
1532142299724,-4,6,-12,2,-2,-1,2,-2
1532142299729,-2,-1,3,3,13,-2,1,-3
1532142299734,2,-4,10,6,11,-2,-6,-2
1532142299739,12,7,4,5,-31,1,10,3
1532142299744,-9,-4,-4,-8,2,5,-2,2
1532142299749,5,-11,-8,-9,-1,-2,4,1
1532142299754,-3,-7,-7,0,0,-4,-16,-4
1532142299759,1,-1,-5,1,17,1,-7,0
1532142299764,5,20,9,1,-2,-3,0,0
1532142299769,-6,-46,-2,-4,-9,0,9,0
1532142299774,-1,-10,-4,-5,-5,1,8,0
1532142299779,0,17,-9,-2,5,-7,-12,-2
1532142299784,5,9,7,5,-1,-3,1,-1
1532142299789,-5,9,12,-1,5,-1,-7,-2
1532142299794,-7,-14,5,5,-12,-1,3,0
1532142299799,2,-3,-1,-1,8,5,-1,0
1532142299804,5,-2,-12,-8,7,-6,-1,-2
1532142299809,1,5,1,-5,-18,-1,-1,1
1532142299814,-3,9,-23,-6,-15,4,-2,-3
1532142299819,-8,-31,24,1,-13,1,4,2
1532142299824,1,-4,3,3,13,4,-1,-1
1532142299829,2,10,4,5,10,-8,-6,0
1532142299834,-1,-5,-3,-6,-8,-1,0,-1
1532142299839,-4,8,-6,-3,11,0,-4,-2
1532142299844,0,-8,-6,0,-5,-2,-2,-2
1532142299849,-2,-3,-2,0,-2,0,-2,-2
1532142299854,4,-1,16,8,-4,-4,5,3
1532142299859,0,11,-6,-3,7,-2,-3,0
1532142299864,-3,-2,6,-2,6,-4,-3,-2
1532142299869,1,12,-15,-5,-8,-2,-1,0
1532142299874,3,-2,3,0,2,0,0,-1
1532142299879,-1,-1,-3,-2,10,3,-2,-2
1532142299884,-3,-17,-6,-2,-3,-2,-1,0
1532142299889,1,13,0,1,0,-1,-3,-1
1532142299894,-1,-3,1,-3,-22,-4,1,1
1532142299899,-2,-11,-3,2,12,0,-1,-2
1532142299904,-2,9,8,1,-5,1,0,0
1532142299909,-2,-2,-2,0,7,3,-1,-2
1532142299914,2,-4,0,0,5,-1,1,-1
1532142299919,-2,5,-4,-3,-5,-5,-1,-2
1532142299924,0,3,-6,-1,-7,-1,-2,1
1532142299929,-8,-39,4,3,-1,0,-1,-1
1532142299934,4,7,-13,-3,4,-3,-1,-1
1532142299939,0,8,12,1,-4,2,0,-1
1532142299944,0,-4,-3,-1,-2,-2,-1,0
1532142299949,-1,1,1,0,4,2,-6,1
1532142299954,-3,1,-3,-2,3,3,12,-1
1532142299959,-4,-7,-11,-2,-9,-3,-1,-3
1532142299964,0,4,4,4,-3,1,2,0
1532142299969,4,15,5,5,-8,2,0,0
1532142299974,-2,-23,5,4,6,-3,-4,1
1532142299979,-2,4,-6,-2,5,-2,-7,1
1532142299984,0,-4,-3,0,-9,-1,3,-1
1532142299989,1,6,-4,-6,5,3,1,-4
1532142299994,0,5,-4,-4,10,-2,-3,0
1532142299999,0,-4,-2,-1,-6,0,3,1
1532142300004,1,3,-4,1,-2,-3,-3,0
1532142300009,1,-4,6,2,-1,-1,1,-1
1532142300014,-2,7,3,-2,2,1,-1,1
1532142300019,-2,-4,-6,-2,0,-3,-2,1
1532142300024,-2,8,-6,-5,-1,1,0,0
1532142300029,-3,-7,3,-2,2,-1,2,1
1532142300034,-2,5,-2,3,5,0,-4,-8
1532142300039,3,6,10,-2,-25,-1,-1,0
1532142300044,-3,-4,-6,1,-8,-1,-1,-1
1532142300049,5,3,12,6,3,0,0,0
1532142300054,1,-3,-8,-6,-4,-2,-2,0
1532142300059,-3,-5,-2,-2,8,2,-1,-2
1532142300064,-2,0,0,-1,8,-2,-1,1
1532142300069,1,4,-9,-2,-6,0,-3,-7
1532142300074,-5,-3,1,0,-2,-1,-2,-3
1532142300079,0,8,1,0,-1,1,-2,-2
1532142300084,-2,-6,-2,-7,-5,-3,-3,2
1532142300089,-7,-4,-6,-1,9,-1,-6,1
1532142300094,5,7,-3,-5,-1,3,10,1
1532142300099,-3,1,4,6,3,0,1,3
1532142300104,7,-10,11,7,6,-1,-1,0
1532142300109,2,21,4,0,-1,0,-4,-1
1532142300114,-7,9,-7,-9,-4,-1,-6,-4
1532142300119,1,-15,-12,-8,-10,-2,0,-3
1532142300124,1,1,14,12,10,6,3,1
1532142300129,-2,4,2,0,7,-3,-1,0
1532142300134,1,3,-9,-2,-10,-3,-3,3
1532142300139,-1,-5,5,-3,-6,-2,0,1
1532142300144,-4,1,-8,-5,-4,-3,-3,-3
1532142300149,2,2,0,-3,-2,-1,2,-1
1532142300154,-5,-8,-3,-5,0,-1,-1,0
1532142300159,1,-1,-4,0,9,1,-1,-1
1532142300164,-1,-4,-2,-2,-1,-2,-1,-2
1532142300169,-2,0,-9,-4,-15,-4,-2,0
1532142300174,3,-3,10,9,2,1,1,0
1532142300179,-2,-3,3,1,6,-1,1,0
1532142300184,-4,22,-1,-5,0,0,-1,-2
1532142300189,4,-3,-8,-4,1,-1,1,1
1532142300194,0,-6,3,1,1,-2,-7,-1
1532142300199,1,2,-4,4,4,-2,-5,0
1532142300204,-5,-4,12,1,4,-1,0,-2
1532142300209,3,1,-11,0,-4,-3,-2,-1
1532142300214,-1,-2,3,-4,-6,-1,-1,0
1532142300219,-2,-1,-7,-4,-1,-2,-3,-4
1532142300224,-1,-6,-4,-4,-2,0,0,1
1532142300229,0,-6,0,-2,3,0,0,-3
1532142300234,-9,-7,2,3,-1,-2,-1,0
1532142300239,3,-1,5,2,0,0,2,2
1532142300244,-2,-4,-8,-3,1,-1,-1,-3
1532142300249,1,-4,7,2,6,-1,3,1
1532142300254,1,0,-5,-5,-9,-1,-1,1
1532142300259,1,6,-1,-5,3,-1,1,-1
1532142300264,-4,-10,-11,1,-7,-2,-2,1
1532142300269,-7,18,10,6,5,2,-1,-3
1532142300274,6,-4,6,3,2,0,2,2
1532142300279,0,-5,7,0,-1,2,4,8
1532142300284,5,-1,-2,-6,-3,-2,-3,-7
1532142300289,-6,-2,-10,-8,-1,-1,-3,-13
1532142300294,-3,1,-2,-2,-1,-4,-2,0
1532142300299,0,6,-2,5,2,1,-1,-1
1532142300304,-1,-6,6,1,2,-1,0,4
1532142300309,1,-7,-2,-2,-4,1,0,2
1532142300314,-1,-2,-1,-5,-5,1,0,-4
1532142300319,-2,-4,-6,-1,1,-4,-2,0
1532142300324,1,2,2,4,4,2,-1,-3
1532142300329,7,-4,0,3,-6,0,-1,1
1532142300334,1,-3,-4,-4,-3,-6,-4,-1
1532142300339,0,7,1,3,10,1,0,-3
1532142300344,-3,-6,-2,-5,-17,-3,-3,-3
1532142300349,-4,15,-2,-3,-1,-2,-2,3
1532142300354,-1,-5,-1,4,4,2,12,-1
1532142300359,4,-1,-3,-3,1,-1,-4,1
1532142300364,-5,-1,1,0,2,1,4,-1
1532142300369,9,-8,-6,-7,-4,-4,-2,2
1532142300374,-6,4,0,-3,-1,-1,-7,-5
1532142300379,-3,-3,-10,0,-4,-3,-4,-7
1532142300384,6,15,3,-1,1,-2,-2,0
1532142300389,-8,-21,3,-1,0,0,0,2
1532142300394,27,9,2,4,2,2,1,5
1532142300399,-7,-12,13,3,-3,0,0,0
1532142300404,-30,2,-8,-4,0,-2,-4,-3
1532142300409,-7,-5,-1,0,2,-2,-1,-5
1532142300414,-1,-7,-7,-6,-2,0,-2,0
1532142300419,-5,13,7,2,0,2,1,-2
1532142300424,4,-4,5,5,1,-1,0,2
1532142300429,8,0,-4,1,0,-1,-2,-2
1532142300434,-2,2,-1,1,2,-1,0,3
1532142300439,-6,-8,-7,-10,-5,-1,-5,-8
1532142300444,-14,-14,-14,-5,-1,-1,2,-2
1532142300449,9,-4,5,5,1,-1,-2,0
1532142300454,2,0,-2,-3,-2,-2,-6,-4
1532142300459,12,-1,-2,0,1,-1,0,1
1532142300464,8,-4,8,2,2,1,-1,-1
1532142300469,-17,4,-3,2,-5,-3,-5,-1
1532142300474,0,-1,2,1,2,0,-3,0
1532142300479,-12,-3,-2,0,-2,-1,-1,-2
1532142300484,27,3,-2,-2,0,2,-1,4
1532142300489,-18,-4,-8,-5,-1,-1,1,-4
1532142300494,22,-2,7,2,-2,0,-1,2
1532142300499,-49,-2,-7,-4,-3,-3,-2,-6
1532142300504,18,5,-3,-1,-3,-1,-1,0
1532142300509,12,5,-3,-2,-1,1,2,1
1532142300514,-6,-6,-3,-1,1,-2,-2,-1
1532142300519,16,9,6,1,-3,-1,1,5
1532142300524,-38,-2,-3,-3,-1,-1,-1,-4
1532142300529,45,0,2,4,1,2,3,12
1532142300534,-5,7,-6,-7,-4,0,1,5
1532142300539,-12,-5,-1,5,1,0,-3,-6
1532142300544,15,0,5,5,1,0,-3,-1
1532142300549,-10,0,-2,-5,0,0,2,1
1532142300554,-2,-1,0,1,-3,0,0,-2
1532142300559,1,-3,-2,-4,-1,1,0,7
1532142300564,-2,-7,-6,-5,-2,-2,-1,-3
1532142300569,-11,-3,-8,-1,-3,-2,-3,-2
1532142300574,14,5,0,-2,0,1,-2,2
1532142300579,-1,-7,8,6,0,0,1,-4
1532142300584,8,6,5,2,0,-1,1,-2
1532142300589,-37,-4,1,-4,1,0,-1,-4
1532142300594,11,-3,-12,-4,-3,-2,-1,7
1532142300599,27,7,3,1,-1,0,1,5
1532142300604,-29,-1,4,1,-1,-2,0,-2
1532142300609,-5,-6,-3,-7,-6,-3,2,0
1532142300614,5,0,-1,0,-1,0,0,-2
1532142300619,-13,-2,-1,-2,-4,1,-4,-10
1532142300624,8,-1,-4,-3,0,-1,0,1
1532142300629,-8,1,2,3,-1,0,-2,0
1532142300634,-9,1,10,3,3,-1,-1,0
1532142300639,8,-2,-6,-4,0,-4,-1,2
1532142300644,-2,-1,-3,-4,-2,-1,0,-2
1532142300649,5,-2,-3,-3,-2,-1,-3,0
1532142300654,0,-4,-2,-2,-3,0,-5,-3
1532142300659,-10,1,1,1,0,2,14,1
1532142300664,17,-2,-9,-2,-1,-1,-2,1
1532142300669,3,2,0,-2,-1,0,1,4
1532142300674,-6,-3,-2,0,0,-2,-4,-4
1532142300679,-6,-1,7,2,1,-6,-7,1
1532142300684,-8,-2,4,2,-5,0,2,1
1532142300689,11,3,-1,2,4,2,-1,0
1532142300694,-11,-2,6,3,-1,-2,1,-3
1532142300699,0,-2,-12,-10,-3,-1,-4,-2
1532142300704,11,-4,-6,-2,0,-2,-3,0
1532142300709,-7,5,0,2,-2,-1,-3,-2
1532142300714,-19,-3,5,2,2,1,2,-2
1532142300719,51,6,0,-1,-2,1,2,3
1532142300724,-31,-4,6,3,0,0,-2,-12
1532142300729,29,6,0,0,2,-2,0,7
1532142300734,-13,-1,-2,1,3,-1,1,-2
1532142300739,9,0,-4,-3,-4,-2,-2,-4
1532142300744,-1,0,-4,-2,1,1,-1,2
1532142300749,-11,-6,4,2,-4,-2,0,-5
1532142300754,5,-1,-4,-3,2,-1,-2,-2
1532142300759,-16,-5,3,2,1,0,-1,3
1532142300764,18,1,-8,-1,-3,-3,1,1
1532142300769,-18,-5,3,-2,-1,-2,-7,-1
1532142300774,11,1,-1,-1,-2,0,4,-3
1532142300779,-18,-3,-6,-6,-3,0,-3,-1
1532142300784,7,4,-4,-5,1,-1,-4,-2
1532142300789,13,0,4,6,2,2,0,0
1532142300794,-10,-5,1,-1,-3,1,-1,-1
1532142300799,15,0,-11,-3,-1,0,2,2
1532142300804,-16,0,-2,-1,-1,-3,-1,1
1532142300809,18,1,-6,-4,-1,0,1,-2
1532142300814,-56,-7,4,1,1,-3,-2,-4
1532142300819,-9,0,0,-1,4,1,-1,-1
1532142300824,17,1,-2,-2,-2,-1,-3,4
1532142300829,-20,-5,4,1,-2,-1,3,-5
1532142300834,3,-1,-6,-4,-4,-4,-8,-2
1532142300839,24,3,2,3,-1,1,1,5
1532142300844,16,-5,-1,-2,-1,-1,-2,3
1532142300849,-16,-2,-4,-4,1,-1,0,-5
1532142300854,-2,-1,-2,-2,-3,-1,1,-2
1532142300859,-23,-4,-3,-3,-3,-4,-4,-1
1532142300864,6,1,0,0,-1,-1,1,-1
1532142300869,13,-3,-1,2,0,-2,-1,-4
1532142300874,18,6,0,-1,1,0,-5,0
1532142300879,-17,-10,-1,-6,-4,-1,0,-4
1532142300884,12,-2,-14,-1,0,-1,1,2
1532142300889,-5,4,14,6,0,-2,-2,-5
1532142300894,8,3,-1,-1,-2,-1,-2,-1
1532142300899,-5,-1,4,3,0,0,-1,-3
1532142300904,-10,4,6,1,-2,-1,0,-1
1532142300909,5,-3,-6,-5,-2,1,2,6
1532142300914,18,2,1,2,3,1,-2,-7
1532142300919,20,1,-3,-2,-3,-3,1,4
1532142300924,-18,-5,1,0,0,0,-3,0
1532142300929,8,0,-4,-2,1,1,0,2
1532142300934,17,-5,-7,-5,-6,-4,-2,1
1532142300939,-5,-1,-3,2,1,-1,-3,-2
1532142300944,0,1,7,4,3,1,-6,-3
1532142300949,-11,2,4,2,-2,-1,5,5
1532142300954,-11,0,0,-1,-3,8,9,-1
1532142300959,19,-1,-6,-4,-1,0,-1,4
1532142300964,56,5,4,-1,-4,0,1,7
1532142300969,-92,-5,-6,-5,-1,-5,-11,-25
1532142300974,58,-5,-2,2,2,-2,2,18
1532142300979,-32,-1,-1,-3,-1,-2,-3,-12
1532142300984,5,-8,-9,-7,-4,-5,4,-1
1532142300989,28,17,1,1,1,4,0,5
1532142300994,0,1,12,5,-3,-1,-4,-11
1532142300999,-48,-8,3,0,1,-3,-7,-10
1532142301004,-9,-6,1,0,-1,-4,7,14
1532142301009,23,-17,-14,-10,-3,-2,-12,-11
1532142301014,-22,-8,-8,-9,-2,-2,-4,-7
1532142301019,18,9,-9,0,1,3,1,1
1532142301024,-2,25,15,6,-2,8,8,0
1532142301029,51,-16,-11,-5,0,-10,-9,5
1532142301034,-1,-16,8,7,2,6,0,-4
1532142301039,47,7,5,-1,1,17,9,10
1532142301044,-93,2,-3,0,4,27,1,7
1532142301049,55,6,5,1,-8,-13,1,7
1532142301054,11,3,-10,-7,-2,-13,-4,-5
1532142301059,-8,-2,-2,-1,-2,-5,-8,-10
1532142301064,13,-14,8,9,2,5,4,0
1532142301069,-30,3,-1,4,2,1,-3,-2
1532142301074,-27,0,6,1,0,2,1,1
1532142301079,-27,-3,-11,-5,-1,0,6,5
1532142301084,14,6,-4,-2,1,-9,-6,-5
1532142301089,63,-1,6,1,-3,-4,-2,-1
1532142301094,34,16,-3,-3,1,-1,2,6
1532142301099,-18,-8,-2,0,1,-3,-6,-5
1532142301104,-50,0,-4,-1,3,-10,-3,-8
1532142301109,19,-12,3,3,0,6,2,-4
1532142301114,-9,-5,-10,-9,-5,-2,1,-12
1532142301119,12,3,7,0,0,12,-3,5
1532142301124,27,-8,-20,-11,-9,-9,-8,-9
1532142301129,-104,-11,1,-2,3,1,1,-6
1532142301134,20,10,13,12,1,4,0,7
1532142301139,0,-3,2,-2,0,0,1,-6
1532142301144,75,0,-3,-6,-1,19,-3,-1
1532142301149,-3,15,-4,0,-2,-27,6,10
1532142301154,71,-23,-14,-6,-7,-16,-10,-8
1532142301159,12,-5,-6,4,2,1,0,13
1532142301164,18,2,19,2,-3,-9,-8,-17
1532142301169,-9,1,3,-2,-2,3,-1,-6
1532142301174,-42,3,-9,-8,-1,5,-1,-2
1532142301179,47,2,-6,-6,-2,-12,5,8
1532142301184,53,3,11,9,3,0,-1,5
1532142301189,-16,15,11,-4,-3,6,-1,-4
1532142301194,-53,1,-2,3,0,-4,-1,1
1532142301199,19,1,6,3,-1,2,-2,-1
1532142301204,-28,-10,-11,-7,-2,-7,5,7
1532142301209,29,-17,-10,-7,0,10,-1,-8
1532142301214,55,22,11,11,3,0,3,11
1532142301219,-20,7,8,-3,-4,-8,-2,-5
1532142301224,12,-4,-14,-1,1,-9,-4,-5
1532142301229,0,-5,4,0,-3,9,-2,8
1532142301234,-22,-2,-2,-2,0,3,0,-10
1532142301239,-24,-10,-3,3,4,-1,-3,-11
1532142301244,-20,-6,-4,-4,-7,-11,2,5
1532142301249,-73,-2,-9,-2,-4,-1,-2,1
1532142301254,-10,-1,8,1,5,10,5,2
1532142301259,-37,-12,-4,-2,-4,17,-23,-6
1532142301264,18,7,-5,-7,-8,-24,6,-10
1532142301269,20,-3,5,3,7,-7,-15,4
1532142301274,-24,-17,-9,-4,-4,7,24,1
1532142301279,23,22,7,1,-6,-22,-1,7
1532142301284,-3,1,-2,-5,1,14,-15,-2
1532142301289,-12,-19,-8,-1,-8,2,9,-9
1532142301294,25,5,-1,0,11,-11,-5,-1
1532142301299,-35,-11,-6,-6,-5,-2,7,-3
1532142301304,-58,3,2,-4,-2,3,-1,-7
1532142301309,33,2,-4,1,4,1,4,13
1532142301314,-14,2,0,5,-1,2,-2,-2
1532142301319,-7,-2,17,13,4,1,4,2
1532142301324,-6,32,9,5,2,0,1,4
1532142301329,27,-28,-5,-5,-1,-2,2,0
1532142301334,21,-3,-12,-10,-7,0,-4,-7
1532142301339,13,5,-7,-2,-3,-4,-8,0
1532142301344,-17,-13,-3,2,6,2,5,-1
1532142301349,49,24,1,2,-1,7,4,2
1532142301354,-34,-4,-1,-3,-5,-4,-2,-13
1532142301359,-3,-10,-1,-1,4,1,9,-6
1532142301364,-7,-17,-2,-2,-6,-10,-9,-3
1532142301369,-14,0,-1,1,2,1,1,1
1532142301374,-20,11,5,-2,-6,0,-10,2
1532142301379,-1,3,-3,-1,3,-6,-9,-2
1532142301384,20,2,-1,-4,-3,3,-1,-1
1532142301389,11,15,-3,0,0,5,8,4
1532142301394,-77,-20,9,8,13,1,-5,-1
1532142301399,-6,-7,2,-5,-13,-2,-11,0
1532142301404,27,8,-6,-1,1,3,3,6
1532142301409,-4,-12,-5,-6,-4,-6,-9,-5
1532142301414,21,11,-3,-3,2,4,3,5
1532142301419,-2,-9,-1,0,5,2,2,-3
1532142301424,-5,3,3,4,2,3,8,-6
1532142301429,-37,0,-2,0,0,-5,-7,-5
1532142301434,4,1,-4,-4,-4,-4,-11,1
1532142301439,2,13,2,0,-2,-1,15,0
1532142301444,23,-3,1,3,1,-2,-3,1
1532142301449,-54,-20,-1,-1,1,4,-4,-7
1532142301454,5,-20,-5,-3,-5,-6,-1,-1
1532142301459,42,41,-4,-2,-2,-3,1,3
1532142301464,-30,-15,9,6,3,0,-7,-1
1532142301469,9,1,-11,-4,-2,-3,2,-2
1532142301474,-7,2,8,3,0,5,3,4
1532142301479,-27,-21,-7,-4,1,-3,3,-6
1532142301484,2,2,3,3,1,-4,-22,-2
1532142301489,0,27,5,0,-2,8,23,13
1532142301494,-18,-36,-11,-4,-3,1,7,1
1532142301499,0,-1,-2,-2,1,-1,-3,-2
1532142301504,0,5,0,0,-2,0,-4,1
1532142301509,-8,-6,2,-2,5,-3,18,-2
1532142301514,22,21,-3,-1,-5,-5,-8,-2
1532142301519,13,3,5,7,0,4,7,3
1532142301524,-10,-4,0,-3,-1,-5,0,-3
1532142301529,-13,-41,1,-2,1,3,-9,-3
1532142301534,1,59,-2,-2,4,-4,12,3
1532142301539,-10,-26,-4,-1,-8,-5,-35,-7
1532142301544,8,-5,-10,0,1,3,8,-1
1532142301549,10,23,5,-3,-3,2,-1,-2
1532142301554,0,-22,-1,-2,-1,-1,3,0
1532142301559,-2,6,1,0,-1,-4,-24,-4
1532142301564,6,11,-1,-2,-2,1,2,7
1532142301569,2,-20,-2,2,0,-1,-12,-5
1532142301574,6,6,-6,-7,-6,-4,1,-1
1532142301579,8,-4,0,-2,1,3,10,-1
1532142301584,-3,6,4,2,6,1,10,-2
1532142301589,8,-9,-2,-1,-2,-2,4,2
1532142301594,18,-13,4,1,3,2,-30,-1
1532142301599,7,29,0,-1,-5,3,18,4
1532142301604,3,-16,-11,-9,-6,-21,-28,-6
1532142301609,10,25,5,5,-1,8,7,5
1532142301614,9,5,5,7,6,-1,3,0
1532142301619,-13,-33,-7,-6,-9,-4,6,-5
1532142301624,4,-3,-1,0,-3,4,-7,6
1532142301629,-7,25,-4,-3,7,-6,20,-12
1532142301634,4,-60,-5,-4,-5,0,-2,2
1532142301639,4,15,4,2,6,9,30,0
1532142301644,-1,-4,-16,-5,1,5,12,0
1532142301649,12,-4,12,4,9,-7,-61,-5
1532142301654,-8,-1,-4,-2,-6,-1,45,-4
1532142301659,-4,-21,3,-1,4,7,20,10
1532142301664,12,-1,-7,-6,-9,-11,-18,-4
1532142301669,4,1,-1,5,4,10,7,1
1532142301674,-6,32,5,-2,0,-6,-2,-11
1532142301679,14,-36,-9,-6,-5,-5,-38,1
1532142301684,-28,38,6,1,9,11,9,-4
1532142301689,17,-5,6,2,-15,-3,8,-9
1532142301694,8,8,7,5,-5,3,-3,12
1532142301699,-16,7,-6,-2,7,-6,-10,-8
1532142301704,10,-29,4,4,-5,-4,32,9
1532142301709,-5,6,-11,-14,-1,-4,-18,-11
1532142301714,-2,-1,-2,-3,-2,1,-6,-8
1532142301719,4,35,7,5,2,3,32,5
1532142301724,-3,5,2,1,1,0,-35,-9
1532142301729,-6,-4,-1,1,-2,-2,-6,6
1532142301734,-7,-14,0,-4,0,-11,-4,-4
1532142301739,3,-13,-1,-2,-1,6,9,4
1532142301744,-8,20,-5,-5,-4,-1,6,1
1532142301749,4,-36,-6,2,-1,3,7,1
1532142301754,11,17,11,7,4,2,-39,3
1532142301759,-14,1,-3,0,-2,-10,15,-18
1532142301764,3,-10,1,-4,-3,0,6,4
1532142301769,-15,-8,-10,-8,-4,-2,7,3
1532142301774,0,21,2,8,5,3,-6,6
1532142301779,2,-39,5,2,-1,-3,-9,2
1532142301784,-6,8,-12,-4,-6,2,9,-2
1532142301789,11,46,10,4,4,0,12,6
1532142301794,-21,-36,-2,-5,-2,-3,1,-6
1532142301799,5,10,-9,-1,-4,-1,-8,-1
1532142301804,5,3,7,0,10,-5,-3,2
1532142301809,-2,-14,-13,-7,-4,4,17,9
1532142301814,3,13,-15,-3,3,-1,8,-1
1532142301819,1,15,18,1,1,-2,-9,-4
1532142301824,-6,-7,2,-3,-4,5,-4,-17
1532142301829,7,-26,-6,-3,-3,-7,-1,3
1532142301834,4,9,1,-1,2,7,5,17
1532142301839,-18,-4,16,8,-1,-2,-8,-12
1532142301844,-4,-55,-23,-3,-3,-10,-4,-2
1532142301849,3,-4,7,-1,-2,2,-54,-14
1532142301854,3,14,-6,-9,-11,-8,32,-2
1532142301859,19,23,0,4,6,3,-2,20
1532142301864,-6,-20,7,1,-3,2,-4,-16
1532142301869,-12,-47,-13,-2,-3,-9,-14,-13
1532142301874,-5,-11,-10,-8,-2,0,-16,1
1532142301879,-5,24,-1,0,0,1,22,0
1532142301884,9,15,22,7,-1,-2,-35,3
1532142301889,-3,-1,1,4,4,1,6,20
1532142301894,-6,11,5,1,1,6,-17,-25
1532142301899,-8,-32,-12,-6,-4,-13,-4,-5
1532142301904,7,16,-18,-1,-2,6,29,12
1532142301909,-1,23,6,-4,-2,0,11,8
1532142301914,13,20,-4,-5,-1,1,11,1
1532142301919,30,42,1,3,1,5,7,30
1532142301924,-9,-41,-3,2,0,2,-3,-6
1532142301929,-5,8,0,-2,0,6,11,6
1532142301934,4,-3,-9,-11,-7,-11,-3,10
1532142301939,-7,1,-11,-2,-2,-2,-20,-6
1532142301944,1,4,1,-1,-3,-2,4,-11
1532142301949,-5,-18,-7,-6,-2,0,-7,-4
1532142301954,3,6,2,0,-2,-2,-18,2
1532142301959,14,20,5,3,1,4,12,9
1532142301964,-3,24,6,1,-2,-6,23,10
1532142301969,-14,-65,-16,-5,-3,-2,-10,-4
1532142301974,15,0,3,3,2,2,-2,-9
1532142301979,-2,-2,6,2,0,-1,9,6
1532142301984,0,-6,-6,-5,0,-2,-24,-6
1532142301989,-10,-7,-13,-9,-5,-2,-1,-4
1532142301994,13,25,0,0,0,0,10,11
1532142301999,1,-5,7,11,4,3,2,-7
1532142302004,-9,-14,3,0,-2,-3,-5,-11
1532142302009,1,11,-8,-3,-3,-9,-8,-2
1532142302014,-13,0,6,-1,-2,-1,-2,5
1532142302019,-11,4,-4,-1,-2,1,3,2
1532142302024,6,-6,5,6,2,8,5,-1
1532142302029,5,17,3,1,-1,-6,3,1
1532142302034,-6,-11,-13,-6,-3,2,1,-11
1532142302039,6,-11,-5,-4,0,-6,-6,-3
1532142302044,-11,1,-5,-1,1,1,3,1
1532142302049,7,-4,1,-1,0,-2,3,2
1532142302054,4,3,5,0,-1,2,8,0
1532142302059,-4,0,0,-1,-3,-4,-13,-3
1532142302064,11,-7,-2,-1,-1,0,-2,1
1532142302069,-4,4,-2,-2,1,1,0,-4
1532142302074,1,-9,1,0,-1,-2,-6,0
1532142302079,9,14,-2,2,1,3,7,-1
1532142302084,-14,-6,4,2,1,-4,21,9
1532142302089,-22,10,9,4,1,3,-22,-7
1532142302094,-6,9,3,-1,-1,-1,-1,3
1532142302099,-2,-5,-12,-7,-4,-1,-3,-2
1532142302104,-18,-20,-8,-3,-2,-1,18,-2
1532142302109,-10,0,0,-3,-3,-4,-30,-3
1532142302114,2,-28,-3,3,-2,-4,-2,-2
1532142302119,5,4,9,1,1,0,1,1
1532142302124,6,25,-8,-4,-3,-2,-28,-17
1532142302129,4,-43,-3,-1,-2,-7,21,2
1532142302134,3,7,2,0,0,2,1,1
1532142302139,-2,-3,-5,-4,-2,-2,-3,3
1532142302144,3,6,-2,0,0,-4,-22,-1
1532142302149,-3,13,2,2,2,5,9,-2
1532142302154,-2,2,1,1,-1,3,22,6
1532142302159,-2,0,1,0,-2,-4,-35,-7
1532142302164,1,-4,-2,-7,-4,-4,-12,-10
1532142302169,6,5,-9,-1,-1,2,1,0
1532142302174,3,0,2,7,2,1,-3,1
1532142302179,-4,4,7,0,-2,-4,6,-2
1532142302184,1,-8,-4,-2,-1,3,4,4
1532142302189,-5,-3,-5,-4,-2,-1,-6,-2
1532142302194,-5,4,-4,-5,-2,-5,-3,-4
1532142302199,-4,-2,-1,2,0,0,9,-4
1532142302204,6,-1,7,3,-1,0,3,6
1532142302209,-6,0,1,0,-2,1,1,-3
1532142302214,3,-1,-14,-5,-1,2,-4,0
1532142302219,-4,14,11,2,-1,0,1,-2
1532142302224,2,-4,-7,3,1,6,8,3
1532142302229,9,14,12,6,0,-4,2,-2
1532142302234,-6,-7,0,-4,-3,-1,-6,-4
1532142302239,6,-1,-7,-4,-2,-1,9,5
1532142302244,-2,3,-7,-5,-2,-3,-7,-2
1532142302249,6,2,-4,2,2,1,2,2
1532142302254,-2,0,5,1,0,-8,-11,-3
1532142302259,-3,-7,-4,-1,-1,14,19,5
1532142302264,-3,0,1,0,-1,5,1,-2
1532142302269,-4,1,2,4,-3,-11,-15,-7
1532142302274,0,-3,-4,-7,-2,-3,14,7
1532142302279,-1,-5,-4,6,3,-3,-3,10
1532142302284,8,7,10,5,1,2,-10,-4
1532142302289,-8,-7,0,-4,-3,2,9,-11
1532142302294,3,4,-4,-2,-3,-11,-29,-8
1532142302299,-3,-8,-7,-9,-3,-4,-6,-4
1532142302304,-1,-7,-9,-1,-2,-4,0,5
1532142302309,12,7,2,0,2,4,9,8
1532142302314,-11,-3,2,0,0,2,0,-5
1532142302319,-10,-9,-6,-4,-2,-4,0,-2
1532142302324,9,0,5,1,0,-3,-3,-1
1532142302329,11,0,-12,-3,0,3,4,-1
1532142302334,8,-2,-4,-4,-3,-2,3,1
1532142302339,-12,0,2,0,-2,-3,-14,-2
1532142302344,-14,9,17,12,3,0,15,-4
1532142302349,-9,3,3,-1,-1,5,3,0
1532142302354,0,-11,-3,0,1,-2,-2,2
1532142302359,8,-24,-1,0,-1,-3,4,-4
1532142302364,2,-15,-3,-4,-2,-4,5,1
1532142302369,1,-15,1,-2,1,3,-27,-2
1532142302374,7,13,-12,-4,-3,-2,-17,-9
1532142302379,14,-16,-3,-5,-3,-1,-9,-5
1532142302384,-2,13,-10,-6,-5,-12,-16,-1
1532142302389,-4,-13,2,2,0,0,11,4
1532142302394,-6,6,11,3,-2,8,0,3
1532142302399,6,2,-2,-3,6,-5,-5,-3
1532142302404,7,-16,-3,-6,-5,-9,-3,-4
1532142302409,26,12,-10,0,0,0,6,-1
1532142302414,22,-1,24,5,2,3,9,7
1532142302419,64,29,4,6,0,-1,-17,-6
1532142302424,70,-9,-6,-7,-2,-3,1,3
1532142302429,50,9,-12,-12,-5,-4,3,0
1532142302434,54,7,1,4,0,3,-1,-1
1532142302439,-7,2,6,7,1,1,21,8
1532142302444,-26,-6,12,6,5,3,1,2
1532142302449,-5,13,3,2,0,-2,-4,3
1532142302454,-3,-1,-5,-5,0,-1,-2,-2
1532142302459,47,-65,-21,-12,-8,-9,-5,-10
1532142302464,54,8,-14,-6,-3,5,-10,-4
1532142302469,57,-21,-1,-1,-2,-8,7,5
1532142302474,80,6,2,1,1,9,-20,-2
1532142302479,38,58,11,0,1,-11,3,-7
1532142302484,33,-69,-19,1,-4,0,-1,3
1532142302489,-14,17,17,5,10,9,-3,-4
1532142302494,-81,5,2,0,1,-4,20,5
1532142302499,-110,57,8,-1,-1,12,-1,4
1532142302504,-97,-27,-5,-7,-2,-1,-8,-3
1532142302509,-75,-4,-6,-6,-6,-4,-9,-7
1532142302514,-35,13,-13,1,3,2,7,0
1532142302519,-34,-30,7,0,-2,6,12,-1
1532142302524,-27,51,15,6,3,-2,-4,2
1532142302529,-19,-4,1,3,0,-1,4,0
1532142302534,-13,2,-2,-2,-2,-8,-2,-3
1532142302539,1,-16,-8,-4,-2,6,5,3
1532142302544,2,24,-2,-3,0,4,5,-2
1532142302549,4,-60,-7,-5,-5,-9,8,-2
1532142302554,4,31,-8,3,2,0,6,5
1532142302559,25,40,21,11,2,-8,-23,-1
1532142302564,8,-27,23,10,7,25,44,1
1532142302569,-21,-26,-28,-15,-10,-23,5,3
1532142302574,-33,-87,2,-2,-5,-5,-4,-4
1532142302579,-37,48,-19,-5,0,-3,-1,0
1532142302584,-34,32,-2,-6,-1,-4,34,6
1532142302589,-29,-12,11,5,0,3,-36,-8
1532142302594,-29,-32,0,1,2,9,15,2
1532142302599,-21,-19,-3,3,0,-14,-20,1
1532142302604,-15,-11,0,-1,-8,18,22,-9
1532142302609,-14,22,-2,0,6,19,44,11
1532142302614,-6,42,1,-1,-7,-22,-25,1
1532142302619,-6,-58,7,2,3,-4,8,3
1532142302624,-5,18,-20,-8,-5,-7,-22,-5
1532142302629,-5,1,9,3,-1,2,22,3
1532142302634,0,18,10,5,6,22,-14,-2
1532142302639,2,0,-7,-6,-9,-12,-24,-10
1532142302644,-3,-19,2,3,3,-9,-27,-4
1532142302649,-1,-54,-5,-1,-2,-1,-25,-5
1532142302654,0,39,-4,-2,10,22,35,7
1532142302659,0,39,3,-3,8,3,82,2
1532142302664,0,79,2,-10,-21,-41,-63,-15
1532142302669,2,-69,-17,-5,-14,-1,-34,-6
1532142302674,0,-33,2,-5,-17,-13,-26,-11
1532142302679,1,27,-13,0,-20,10,-20,-2
1532142302684,-1,-3,13,9,59,14,-24,19
1532142302689,-6,95,14,3,-21,5,41,1
1532142302694,-1,-49,12,4,41,0,-1,7
1532142302699,-11,-28,-20,-2,-56,13,15,-7
1532142302704,-13,4,-10,-11,6,-6,41,4
1532142302709,-28,84,7,5,8,4,31,10
1532142302714,-30,39,-4,-7,-28,8,-1,-11
1532142302719,-11,-54,-3,-2,13,-25,-24,-1
1532142302724,-31,33,3,2,-23,5,9,-11
1532142302729,-24,-18,8,5,13,9,22,7
1532142302734,-15,19,2,11,35,11,5,-14
1532142302739,-33,-6,3,-13,-26,-23,-59,0
1532142302744,-4,24,-31,-12,17,6,-20,-3
1532142302749,8,-25,-1,-2,-13,-10,-12,1
1532142302754,24,-53,10,6,-13,-4,10,14
1532142302759,23,69,3,3,27,23,7,-14
1532142302764,29,-52,2,4,-5,-17,-68,-2
1532142302769,41,-16,12,5,-10,9,37,15
1532142302774,25,66,-13,-13,2,0,-10,-19
1532142302779,21,-1,-33,-8,-6,-5,14,-2
1532142302784,9,-10,18,8,-4,3,14,20
1532142302789,6,-5,-4,-4,14,5,-17,-19
1532142302794,12,-2,19,7,-13,-12,5,18
1532142302799,5,-7,1,-3,8,3,-5,-25
1532142302804,2,6,-8,-2,-6,2,4,-21
1532142302809,-21,49,-1,0,3,-14,-50,4
1532142302814,9,-35,-13,-7,-10,-6,35,6
1532142302819,17,-20,12,8,20,10,-25,11
1532142302824,33,-31,-1,0,-14,-11,-3,3
1532142302829,29,-32,-16,-5,-3,-4,-4,-1
1532142302834,10,-26,-19,-7,9,-4,6,-6
1532142302839,22,51,42,15,1,2,11,55
1532142302844,14,-44,10,4,-20,0,9,-39
1532142302849,29,-31,-6,-5,18,-8,-15,-11
1532142302854,13,10,-7,-2,-9,-5,-10,0
1532142302859,9,-67,-6,-3,15,12,16,-3
1532142302864,1,-2,-3,-3,-7,-12,18,20
1532142302869,-32,31,-3,-3,2,-12,-26,-3
1532142302874,-27,11,-1,1,-1,-1,-25,0
1532142302879,-36,-17,-1,-1,-3,-3,26,-11
1532142302884,-18,7,-2,-1,0,5,14,16
1532142302889,10,9,2,3,0,4,-3,-9
1532142302894,4,-25,0,3,-5,-6,-4,6
1532142302899,-4,-6,-1,-2,-1,-10,-4,-4
1532142302904,-18,1,-8,-4,15,17,-8,-1
1532142302909,-22,9,0,-3,-5,5,3,3
1532142302914,-27,9,2,2,1,-3,2,-3
1532142302919,-13,3,-1,-2,-3,-1,-2,-7
1532142302924,-19,-18,3,0,-3,-5,3,-2
1532142302929,-19,6,3,0,1,1,-1,-1
1532142302934,-48,6,1,-3,-29,5,8,-4
1532142302939,-16,-19,-10,-6,33,-10,-9,-9
1532142302944,23,1,0,2,-9,-4,-6,4
1532142302949,31,8,5,1,-4,1,-3,-2
1532142302954,39,0,-7,-4,-4,-3,3,-7
1532142302959,35,11,-2,-1,-1,0,-2,-1
1532142302964,30,5,4,1,-2,0,4,3
1532142302969,30,8,-2,0,3,-4,1,-5
1532142302974,25,1,1,0,3,-1,0,-1
1532142302979,1,0,3,3,-4,-1,-6,3
1532142302984,10,-5,-10,-5,3,-5,-5,-5
1532142302989,-6,-4,-3,0,-6,-2,0,2
1532142302994,-14,0,-2,-4,3,-8,-1,3
1532142302999,-28,-2,7,2,-3,12,6,1
1532142303004,-27,7,1,2,-3,2,3,-1
1532142303009,-22,-1,0,0,4,1,-8,-3
1532142303014,-14,-16,-2,-3,-5,0,16,-3
1532142303019,13,4,-1,-2,2,2,0,0
1532142303024,17,-1,-2,2,0,-7,0,2
1532142303029,24,-8,-1,-3,-6,-3,-3,-8
1532142303034,37,5,0,-1,0,-5,-5,-4
1532142303039,18,-7,-3,-2,-7,0,0,-1
1532142303044,19,7,0,0,3,3,4,0
1532142303049,28,-2,0,-2,0,-1,1,6
1532142303054,16,2,-2,0,0,-1,-1,-2
1532142303059,10,4,-3,1,-4,-2,1,0
1532142303064,7,-3,1,1,0,2,-2,0
1532142303069,1,-7,-1,0,-1,-2,2,-2
1532142303074,35,1,-6,-3,0,-1,-4,1
1532142303079,24,4,3,0,-2,1,0,-1
1532142303084,-1,-6,-1,-1,0,-1,-1,-2
1532142303089,1,3,0,0,-1,1,1,3
1532142303094,-5,1,1,1,5,1,-1,2
1532142303099,8,-2,-3,0,0,0,-5,-1
1532142303104,9,0,0,-3,-6,-4,-1,-4
1532142303109,2,3,0,-1,-4,-1,-1,-5
1532142303114,-4,-5,-1,-1,1,0,-2,-1
1532142303119,-7,2,-4,-1,-2,-2,0,2
1532142303124,-11,4,6,2,1,2,-1,-3
1532142303129,-17,-8,-5,-2,0,-2,1,1
1532142303134,-1,7,3,1,1,-3,0,3
1532142303139,-8,-6,-1,-1,-1,0,1,0
1532142303144,-9,-2,-1,-1,1,0,1,0
1532142303149,5,2,2,-1,0,0,-1,0
1532142303154,-1,-2,-11,-1,-2,0,-1,-3
1532142303159,1,-3,9,0,-3,-1,-1,-2
1532142303164,3,0,-3,-1,0,-1,1,2
1532142303169,21,2,-1,-1,0,0,1,2
1532142303174,19,-12,-2,-3,0,0,-1,-2
1532142303179,20,-3,-4,-2,-3,-1,-1,1
1532142303184,-4,-1,-3,0,-3,-2,-2,-3
1532142303189,-20,7,2,2,1,2,0,2
1532142303194,-28,2,4,1,0,-2,-1,1
1532142303199,-17,0,-3,-2,0,1,-2,0
1532142303204,-12,-9,-4,-5,-2,-3,-3,0
1532142303209,-5,0,-1,-1,-1,-2,0,-3
1532142303214,-7,-5,0,-1,-1,-1,-5,-1
1532142303219,-8,1,-1,-1,0,-3,-1,-2
1532142303224,-19,0,-3,-1,-1,1,0,0
1532142303229,-14,0,1,-1,-1,-2,-1,1
1532142303234,-6,2,1,-1,1,-3,-1,-3
1532142303239,-10,1,0,-3,1,0,-2,-3
1532142303244,-2,2,0,1,-1,1,-1,0
1532142303249,0,-3,-3,-2,-3,0,0,1
1532142303254,-12,-4,0,-2,-1,0,1,-3
1532142303259,0,1,-3,-1,-1,0,1,-2
1532142303264,-6,-8,-3,-2,-1,-2,-2,-6
1532142303269,4,6,2,0,0,1,1,3
1532142303274,-6,4,1,0,1,1,0,-1
1532142303279,1,-2,-2,0,-2,-2,0,-2
1532142303284,4,1,0,-2,-1,-1,-2,0
1532142303289,-3,-2,-2,-3,-2,1,-1,-1
1532142303294,-1,0,-1,-2,0,0,0,-1
1532142303299,-2,-2,-3,0,-2,-1,-1,-3
1532142303304,0,1,0,1,2,-1,0,-1
1532142303309,-6,0,-1,0,0,-3,-2,-2
1532142303314,3,1,0,1,-1,0,1,0
1532142303319,2,-2,0,-1,-1,0,-2,1
1532142303324,-3,-4,-3,-3,0,0,-3,0
1532142303329,0,-1,-1,-1,0,0,-1,-1
1532142303334,0,-1,-1,-1,-2,1,-2,-2
1532142303339,-2,0,-1,0,0,-2,-1,0
1532142303344,5,0,0,0,-1,-1,0,-2
1532142303349,-5,-5,-4,-2,-2,-2,0,0
1532142303354,-3,1,0,0,2,3,-1,0
1532142303359,1,-3,-4,-2,-1,-1,-1,-2
1532142303364,1,1,-1,1,-1,-1,0,0
1532142303369,0,-1,-1,-1,-5,-5,0,-1
1532142303374,1,2,1,0,1,3,-1,0
1532142303379,-5,-1,-2,0,-1,-1,-2,-2
1532142303384,3,0,1,0,-1,3,-1,0
1532142303389,4,0,-1,-2,-2,-2,-1,-1
1532142303394,-4,-3,-3,0,-2,-3,-2,-3
1532142303399,3,1,-1,-1,-1,0,0,-2
1532142303404,1,1,1,0,0,-1,0,-1
1532142303409,-11,-4,-1,-2,0,2,-1,-1
1532142303414,3,1,1,-1,-2,-2,-1,0
1532142303419,-7,-1,0,-1,-1,1,0,1
1532142303424,-4,-3,-1,0,-1,1,1,2
1532142303429,-3,-3,-5,0,-1,-4,-2,-1
1532142303434,-4,-3,-2,0,3,8,2,3
1532142303439,-2,3,0,-2,-3,-4,0,-2
1532142303444,-1,-2,0,-1,2,1,1,1
1532142303449,-1,-4,2,1,1,-1,1,3
1532142303454,-1,-8,-2,-3,-4,-8,-3,-6
1532142303459,-1,9,-3,2,-1,2,2,-2
1532142303464,-4,14,-1,-2,-2,-2,-1,10
1532142303469,7,3,2,-1,-1,0,-11,-12
1532142303474,2,-4,-1,-2,-3,-5,0,-16
1532142303479,0,-10,-1,-2,-2,-3,-2,4
1532142303484,-2,-9,-2,-1,1,3,-1,-8
1532142303489,-3,-15,-1,-1,0,1,3,11
1532142303494,1,15,1,0,-2,1,0,6
1532142303499,-5,10,1,-1,-2,-7,-2,-1
1532142303504,2,11,0,1,-1,1,-1,3
1532142303509,4,6,1,0,2,0,-1,7
1532142303514,-2,-11,2,1,0,-2,-1,-5
1532142303519,3,-2,-2,-1,1,3,2,0
1532142303524,-1,-1,-1,-3,-3,-2,-2,-1
1532142303529,6,-7,-2,0,1,3,1,-1
1532142303534,5,-3,-2,-4,-2,-1,-1,-3
1532142303539,0,-14,-1,-3,0,0,-3,5
1532142303544,4,7,0,1,0,-1,-1,-5
1532142303549,-5,16,-3,-4,-3,-1,-1,-9
1532142303554,-8,-1,-4,-3,-1,-1,-3,3
1532142303559,1,5,2,-2,-1,-2,-2,-5
1532142303564,4,-17,-2,-1,-1,-1,-3,-2
1532142303569,-3,22,0,1,1,-5,-9,-1
1532142303574,3,-38,-2,-4,-1,6,14,2
1532142303579,2,-7,-8,0,0,-2,-1,0
1532142303584,6,-4,6,0,-1,-2,1,0
1532142303589,-4,1,-3,-2,-2,-2,0,-1
1532142303594,4,15,-3,2,4,2,-4,4
1532142303599,-11,-11,-1,-1,-2,-3,5,-5
1532142303604,-1,-13,-2,-3,-2,-14,-16,0
1532142303609,7,3,0,-1,0,10,1,1
1532142303614,-5,13,-2,-1,0,-1,-2,-2
1532142303619,3,-11,-3,4,2,21,2,-7
1532142303624,2,12,0,-1,-2,-23,6,0
1532142303629,-1,-30,-10,-4,-3,-3,-2,-3
1532142303634,0,2,4,2,-1,0,-5,-1
1532142303639,-7,-1,1,-4,1,0,39,5
1532142303644,0,-5,5,4,1,-6,-14,-6
1532142303649,9,2,1,-7,-1,4,-6,0
1532142303654,9,-6,-28,1,0,-6,-35,3
1532142303659,4,7,27,12,6,21,56,-1
1532142303664,3,42,6,0,-2,-1,-12,-8
1532142303669,15,-26,7,-2,-2,-6,25,7
1532142303674,7,-51,-22,-17,-2,-1,-8,-2
1532142303679,-2,23,-28,-5,-1,-11,-39,4
1532142303684,12,6,26,20,4,26,66,6
1532142303689,4,-10,21,12,3,1,-31,0
1532142303694,4,28,11,-6,-6,-28,-29,-11
1532142303699,6,-26,-9,-10,-4,3,5,0
1532142303704,-30,-38,-32,-13,-4,-4,-11,-5
1532142303709,2,-17,0,3,1,5,9,-1
1532142303714,3,24,11,3,0,6,27,4
1532142303719,-12,33,-5,-6,-5,-10,-16,-4
1532142303724,5,-7,-3,-5,-2,0,-20,-8
1532142303729,-23,46,-10,-1,0,-6,10,5
1532142303734,-18,18,12,3,-1,2,-1,-6
1532142303739,-6,17,3,4,4,-4,0,6
1532142303744,-30,-40,-9,-5,-6,3,-15,-11
1532142303749,-2,54,-7,-7,-5,-4,-19,-5
1532142303754,-8,-9,2,3,1,-15,-37,-1
1532142303759,4,-15,5,-2,-2,17,55,6
1532142303764,-2,17,-3,-2,2,7,8,7
1532142303769,0,-7,1,3,1,1,9,5
1532142303774,-6,10,11,4,4,10,34,18
1532142303779,4,-18,-3,-4,-4,-18,-23,-38
1532142303784,5,16,-4,-4,0,-1,-1,7
1532142303789,19,-42,-10,0,-1,-4,2,-1
1532142303794,-2,5,9,3,1,9,15,5
1532142303799,15,-2,9,2,0,-3,-16,9
1532142303804,-7,17,-10,-4,0,1,3,-7
1532142303809,-6,-25,-1,-1,-3,-2,-2,-6
1532142303814,6,3,-8,-5,-2,1,6,1
1532142303819,11,3,-9,2,-2,-7,-16,5
1532142303824,2,-27,16,5,3,2,0,2
1532142303829,1,7,1,-2,0,1,-1,1
1532142303834,-1,-15,-11,-3,-4,-3,-1,-24
1532142303839,-3,0,1,0,0,-1,-17,7
1532142303844,13,7,2,0,-8,-1,4,-3
1532142303849,1,-2,-6,-1,10,1,3,7
1532142303854,17,-2,-3,-2,-3,-3,5,-11
1532142303859,1,1,-5,-1,0,-2,-12,4
1532142303864,-1,6,9,6,7,2,-1,-12
1532142303869,-6,-8,-1,-6,-8,-2,0,-2
1532142303874,-1,7,-11,-1,-3,-1,-1,3
1532142303879,8,-7,1,-1,3,0,-6,5
1532142303884,-5,-19,-3,-4,-3,-3,-8,-4
1532142303889,-3,12,9,3,-7,-3,3,-3
1532142303894,-7,-6,-1,0,10,-1,-6,3
1532142303899,-9,-14,-3,-2,-5,0,8,-6
1532142303904,-2,2,-7,-3,1,0,2,10
1532142303909,56,6,-5,-1,-3,0,1,4
1532142303914,26,0,5,4,-2,6,19,3
1532142303919,12,1,-1,-2,2,-9,-17,-13
1532142303924,-7,6,-1,-2,4,2,-8,-2
1532142303929,-35,-11,-7,1,1,10,26,2
1532142303934,-24,-4,2,1,-7,-7,-18,3
1532142303939,-12,5,6,3,0,1,3,3
1532142303944,28,7,-1,-5,-7,-7,-8,5
1532142303949,-38,-10,2,-2,2,3,4,-6
1532142303954,-5,-7,-4,-1,0,4,10,11
1532142303959,-3,-5,3,-1,-1,0,1,-9
1532142303964,0,0,-5,0,3,1,-5,13
1532142303969,30,8,3,-1,-3,-6,-9,0
1532142303974,23,17,4,-2,-1,0,2,2
1532142303979,-24,-30,-7,-3,-4,-4,-14,-13
1532142303984,27,-4,-3,0,2,1,26,7
1532142303989,-20,-7,-4,-4,-3,-8,-39,-11
1532142303994,73,12,0,1,0,3,-1,6
1532142303999,10,6,4,0,-1,-1,4,2
1532142304004,0,3,-1,1,0,6,1,-4
1532142304009,-44,-7,-5,-3,-5,-5,11,-5
1532142304014,-36,-6,-1,2,-5,-3,-48,-14
1532142304019,-23,16,4,-2,5,-2,-1,8
1532142304024,-23,-3,3,-1,-5,-3,-3,-2
1532142304029,-6,1,-4,0,0,0,2,-3
1532142304034,-35,-15,5,-3,-2,1,15,7
1532142304039,-3,7,-1,-3,-7,1,0,-3
1532142304044,-25,1,-10,-3,2,0,-5,0
1532142304049,2,4,3,2,3,-2,-3,-2
1532142304054,-11,2,1,0,1,0,16,1
1532142304059,-6,-2,3,3,-1,-2,-7,5
1532142304064,0,7,0,-1,0,3,9,4
1532142304069,3,-2,-5,-1,-3,-5,-19,-14
1532142304074,-2,-10,0,-1,-2,-4,12,-7
1532142304079,13,8,4,-1,-1,1,-18,11
1532142304084,13,-3,-2,-1,-1,-3,-3,-8
1532142304089,-5,-7,-2,-2,-6,-2,8,-3
1532142304094,-8,0,-6,-5,4,7,-1,-2
1532142304099,-7,-5,-5,0,0,-5,5,-3
1532142304104,3,5,5,3,0,3,0,12
1532142304109,-7,2,0,-1,-2,-1,-2,2
1532142304114,-7,1,0,-2,-2,-3,8,-7
1532142304119,-3,-3,-3,-4,-2,-1,-1,-6
1532142304124,-19,-11,-13,-1,-3,-2,-4,-2
1532142304129,0,12,15,4,6,1,11,4
1532142304134,-7,-1,0,1,1,-3,-7,2
1532142304139,3,-3,-12,-2,1,0,-2,-4
1532142304144,-6,-6,8,-3,-4,-2,-1,-12
1532142304149,7,3,-3,-1,-2,2,2,2
1532142304154,2,6,4,2,9,2,-5,7
1532142304159,-2,-1,4,1,-4,2,5,1
1532142304164,-10,-9,-6,-2,-1,-3,0,1
1532142304169,3,-2,-3,-1,-8,0,-4,-10
1532142304174,-5,-3,0,0,13,-2,-1,-2
1532142304179,6,1,-1,-2,-7,-2,3,4
1532142304184,4,-10,-3,-6,-1,0,-3,-6
1532142304189,2,14,-8,-1,3,1,2,18
1532142304194,-5,2,10,5,-4,0,0,-7
1532142304199,3,-3,6,2,3,-2,-1,0
1532142304204,4,1,2,1,1,-1,0,1
1532142304209,2,-6,-1,-4,-1,-3,-10,-3
1532142304214,-2,-1,-20,-7,-6,-2,8,-4
1532142304219,1,1,1,1,3,1,0,3
1532142304224,12,-3,6,1,-1,-1,-3,0
1532142304229,-1,3,5,1,5,0,1,-2
1532142304234,-1,-6,-8,0,-4,-1,-6,-4
1532142304239,1,-3,2,-3,-2,1,-1,-4
1532142304244,5,2,-7,-3,0,-2,0,1
1532142304249,-2,0,2,1,2,1,0,6
1532142304254,4,-3,-6,1,-3,-3,-4,-5
1532142304259,2,4,11,3,-2,1,2,2
1532142304264,2,7,-1,-1,-1,1,1,5
1532142304269,-17,-15,-7,-3,5,-3,-2,-4
1532142304274,0,-1,7,2,2,0,2,-3
1532142304279,-1,-4,-8,-2,-3,0,-3,1
1532142304284,-4,1,-3,0,0,-2,-1,-6
1532142304289,3,-2,-2,-1,-4,-3,-6,0
1532142304294,6,1,5,-1,-6,0,3,3
1532142304299,1,-7,-5,-1,2,-3,-6,-8
1532142304304,0,6,4,2,-1,-1,0,8
1532142304309,1,-1,-1,0,0,0,-1,-11
1532142304314,-2,-5,1,-3,-3,-3,-2,1
1532142304319,-5,-3,1,0,0,0,3,3
1532142304324,9,-8,-8,-5,-3,-1,0,-6
1532142304329,-5,2,1,0,0,-1,0,-4
1532142304334,9,6,3,-1,0,-2,-2,-7
1532142304339,-6,-3,-6,1,-1,-1,3,1
1532142304344,0,3,11,1,-1,1,0,7
1532142304349,7,2,-10,-1,1,1,-1,0
1532142304354,1,-1,3,-2,-2,-1,2,8
1532142304359,2,-1,-5,-1,1,0,-4,-6
1532142304364,3,-7,-4,-3,-1,-4,0,-9
1532142304369,-4,4,0,0,0,0,1,0
1532142304374,-2,5,1,2,1,1,-5,-1
1532142304379,-5,-15,-2,-5,-3,-2,-2,-14
1532142304384,-12,-6,0,3,-1,1,-3,6
1532142304389,11,4,3,0,-1,0,0,-3
1532142304394,-31,-13,-8,-5,-3,-5,-3,0
1532142304399,0,14,0,4,4,1,-1,7
1532142304404,-10,0,-2,0,1,-2,3,-4
1532142304409,-1,7,2,0,-2,-2,1,2
1532142304414,11,0,-2,-4,-1,-1,0,0
1532142304419,0,-3,-9,-4,-1,1,-5,-4
1532142304424,-5,2,-2,1,-1,2,-1,2
1532142304429,2,1,14,5,-2,-2,1,-9
1532142304434,-2,4,0,-3,-1,-1,4,-3
1532142304439,3,-11,-5,1,-1,-1,4,7
1532142304444,7,-2,2,-3,-3,-4,-9,-4
1532142304449,7,0,-9,-2,1,-1,-5,-3
1532142304454,5,-6,1,-1,-2,-3,-2,-4
1532142304459,-18,8,4,1,0,0,2,-6
1532142304464,3,8,4,3,2,1,1,13
1532142304469,-20,-7,-9,-5,-3,-4,-7,-14
1532142304474,3,-39,-4,-3,-4,-2,-1,0
1532142304479,4,16,-1,1,0,0,5,5
1532142304484,-2,6,2,3,1,0,-2,-5
1532142304489,-5,-3,1,-2,-2,-2,-2,-1
1532142304494,7,2,-2,-1,0,0,-2,-2
1532142304499,8,-1,-10,0,-3,-2,2,1
1532142304504,2,1,9,1,0,1,-2,-2
1532142304509,9,-4,1,1,1,-1,2,-1
1532142304514,3,7,0,2,1,0,-5,-1
1532142304519,3,4,4,-5,-3,-2,0,2
1532142304524,-1,-10,-12,-5,-2,-1,1,4
1532142304529,-1,-1,-2,0,-1,2,-2,0
1532142304534,-4,-2,6,0,-1,-1,0,-1
1532142304539,6,17,-2,-3,1,-3,-3,1
1532142304544,3,-10,7,6,2,1,1,-11
1532142304549,-23,20,-5,-4,-3,-4,-1,6
1532142304554,7,22,4,2,0,-1,1,5
1532142304559,-3,-50,-2,-3,-1,0,0,-4
1532142304564,69,18,-5,-1,-1,2,6,22
1532142304569,-62,-63,-6,-1,-1,-1,-6,-22
1532142304574,-5,34,1,4,1,-2,-1,18
1532142304579,5,5,7,0,-2,-1,0,3
1532142304584,-10,-2,-18,-4,-1,-1,-1,3
1532142304589,24,-14,6,-1,0,3,1,8
1532142304594,-2,15,5,0,0,0,1,-1
1532142304599,-8,-4,0,0,-1,-2,-4,-4
1532142304604,16,4,3,-1,1,0,3,3
1532142304609,5,14,-7,-3,-8,-18,-1,6
1532142304614,-5,-10,1,1,3,6,-1,-11
1532142304619,-5,18,1,-1,5,2,-7,3
1532142304624,29,-5,4,-2,-2,26,0,3
1532142304629,-23,-1,-8,-4,1,-7,1,2
1532142304634,0,-7,-6,0,-2,-4,-1,1
1532142304639,8,47,19,6,0,-5,2,13
1532142304644,-6,-13,-1,-3,0,0,-3,-6
1532142304649,9,24,-3,-2,-1,3,8,33
1532142304654,-4,-38,-13,1,0,0,-4,-7
1532142304659,-4,1,2,2,0,5,-2,-15
1532142304664,-12,-9,-5,-3,-3,-8,-1,-4
1532142304669,29,14,7,-1,0,4,4,-7
1532142304674,-21,-14,-10,-6,-2,-4,1,0
1532142304679,19,-6,-8,2,2,1,2,12
1532142304684,-43,-22,-5,-7,-5,-11,-7,-21
1532142304689,11,3,0,4,2,1,-1,-5
1532142304694,0,0,0,-3,-3,0,-5,-5
1532142304699,0,-7,-8,-1,-1,-1,0,0
1532142304704,-5,16,13,1,0,-8,4,-1
1532142304709,4,5,-2,-1,1,5,-3,-6
1532142304714,14,10,5,-1,0,1,3,13
1532142304719,-10,-10,-7,-3,-5,-3,-3,-15
1532142304724,-13,2,-4,1,1,-3,3,-1
1532142304729,8,-11,-2,-2,-1,3,-3,-3
1532142304734,-18,2,1,0,-3,-2,-3,-5
1532142304739,1,-7,-4,-4,-3,-2,1,-2
1532142304744,-4,10,2,1,1,0,-2,4
1532142304749,20,3,2,1,1,1,1,-2
1532142304754,-8,1,-6,-1,0,1,0,-10
1532142304759,-3,-16,2,-1,0,-3,-9,0
1532142304764,-38,-13,-7,-3,-4,-9,-2,-18
1532142304769,5,1,0,0,-8,-10,18,6
1532142304774,13,-23,-2,-3,9,7,-6,-3
1532142304779,2,-2,-12,-9,-1,3,-36,-14
1532142304784,5,2,0,1,-5,2,-7,2
1532142304789,2,-22,-4,-4,2,-8,-11,-13
1532142304794,4,24,4,4,-3,0,13,6
1532142304799,0,29,12,3,11,10,26,4
1532142304804,3,-10,-11,-4,-6,-15,-15,6
1532142304809,-16,5,-9,-4,-5,4,6,-2
1532142304814,8,-16,7,6,4,-3,-6,-5
1532142304819,-18,31,0,-7,-3,0,-1,-1
1532142304824,-3,7,-1,-1,2,-5,1,2
1532142304829,2,13,4,1,3,11,-1,-1
1532142304834,-5,-5,-2,0,-5,-5,-1,-1
1532142304839,-14,-23,0,2,-1,-7,1,-5
1532142304844,-12,-1,-2,-2,-3,3,14,2
1532142304849,-4,-1,0,-1,1,-2,-20,2
1532142304854,-10,0,-2,-2,1,2,8,-2
1532142304859,-6,-14,1,2,1,3,9,3
1532142304864,14,5,2,3,5,-2,-15,-1
1532142304869,-31,30,2,-2,-6,-8,-11,-4
1532142304874,2,-17,1,-5,1,9,12,3
1532142304879,12,-3,2,1,-4,-10,-3,2
1532142304884,3,11,-3,-4,-5,3,7,-2
1532142304889,10,-9,0,4,6,-1,-8,5
1532142304894,7,12,7,1,-6,1,16,-3
1532142304899,-5,-22,-6,-5,-6,0,17,3
1532142304904,5,17,7,1,10,1,6,0
1532142304909,-43,-41,-12,-4,-6,0,-1,-15
1532142304914,6,31,0,-2,-2,-3,-12,5
1532142304919,14,-1,5,3,1,1,-3,4
1532142304924,5,-2,-6,-4,-2,-2,5,-1
1532142304929,13,8,-1,1,0,3,1,9
1532142304934,-6,-21,-3,-4,-1,-6,-10,-12
1532142304939,-3,0,-1,0,-3,1,9,-3
1532142304944,0,-2,6,2,5,1,-4,4
1532142304949,8,-4,2,3,5,1,0,4
1532142304954,-7,-3,-2,-1,-1,0,-4,-14
1532142304959,-4,-16,-8,-3,-7,-4,-9,-2
1532142304964,-3,-1,-7,-2,-1,3,0,2
1532142304969,6,1,10,1,2,3,8,16
1532142304974,-2,-1,-8,-1,-3,-11,-17,-11
1532142304979,1,2,1,1,-3,6,2,-10
1532142304984,-7,-10,2,-3,-4,-3,-6,-7
1532142304989,9,11,1,-1,0,-2,8,-6
1532142304994,0,-4,-5,-2,-3,-3,-4,6
1532142304999,4,2,-1,2,3,-2,0,6
1532142305004,2,5,7,4,-1,12,1,5
1532142305009,53,13,0,-3,-2,-6,-9,2
1532142305014,-35,-7,-2,-3,-3,2,6,-10
1532142305019,8,1,2,0,1,-4,-7,3
1532142305024,-7,-9,-11,-4,-1,-2,1,-2
1532142305029,-1,8,5,-1,-2,5,-1,5
1532142305034,9,-3,0,1,1,1,-6,0
1532142305039,7,-3,0,1,0,-3,4,-1
1532142305044,-4,2,2,0,-1,-1,-3,12
1532142305049,-5,-4,-3,-2,0,1,6,-11
1532142305054,1,2,-9,-1,-1,-1,-2,6
1532142305059,-5,-2,1,-2,-2,-1,-7,-6
1532142305064,-1,-2,0,-3,-4,-3,-4,-13
1532142305069,-3,0,-1,0,0,0,0,-3
1532142305074,-4,6,2,-2,1,0,2,8
1532142305079,-1,-4,-1,-1,0,2,-3,2
1532142305084,7,0,0,3,-2,-10,2,2
1532142305089,-8,-8,-3,-2,0,0,0,-7
1532142305094,6,8,0,0,-1,2,1,5
1532142305099,-1,-1,-3,-4,-3,-1,-1,2
1532142305104,-3,-3,3,1,-1,-2,-4,-1
1532142305109,12,0,-2,-3,-3,0,0,-6
1532142305114,-7,-8,-16,0,1,1,4,-3
1532142305119,-11,0,3,0,-1,-3,-6,-10
1532142305124,-2,-2,-4,-1,0,1,-1,-7
1532142305129,0,-7,2,-1,-1,0,-1,1
1532142305134,20,10,0,-4,-2,-1,0,6
1532142305139,-1,-7,-5,-3,-2,-2,3,-3
1532142305144,-2,-2,-3,0,-2,-1,-3,4
1532142305149,-8,3,2,3,1,-1,-1,-1
1532142305154,1,-6,-1,-1,-2,-3,-2,-4
1532142305159,-2,2,-2,-1,-1,-2,-5,-3
1532142305164,4,4,3,-1,-1,1,0,-2
1532142305169,-3,-8,-2,-2,-2,1,5,-5
1532142305174,-12,-11,-8,-2,-2,-5,-3,-11
1532142305179,6,-1,0,-1,-1,-2,-1,1
1532142305184,1,-3,-9,-2,2,5,1,3
1532142305189,-15,-1,2,1,-3,-8,-3,1
1532142305194,-10,5,6,2,-1,1,2,0
1532142305199,1,3,-2,-1,0,0,1,-1
1532142305204,-7,0,0,-1,-1,2,1,-2
1532142305209,8,-8,-8,-4,-3,-2,-5,-3
1532142305214,8,1,4,2,0,-1,-4,10
1532142305219,18,9,2,0,1,1,13,17
1532142305224,-4,-3,2,0,0,0,-11,1
1532142305229,-6,-7,-8,-3,-1,-3,-9,-7
1532142305234,2,-3,2,-2,-3,-3,-6,2
1532142305239,-1,-2,1,1,-1,3,5,1
1532142305244,19,10,1,1,2,0,2,3
1532142305249,-21,-6,-5,-2,2,0,0,6
1532142305254,13,-2,4,-3,-2,0,0,-8
1532142305259,-18,-8,-3,-1,0,2,6,-1
1532142305264,-1,0,-6,-1,-2,-3,1,0
1532142305269,-6,5,6,-1,-1,0,1,-8
1532142305274,12,1,-5,-4,0,-3,0,2
1532142305279,6,0,0,-1,-1,-2,-5,-1
1532142305284,-4,0,-3,-3,-2,-3,-4,-5
1532142305289,16,12,1,3,2,10,9,12
1532142305294,-4,-10,1,1,-1,-2,3,1
1532142305299,-5,1,-7,-1,-1,-1,-9,-4
1532142305304,6,4,7,1,1,-7,6,3
1532142305309,-9,-4,-2,-2,-1,6,-8,-5
1532142305314,10,-3,-1,-5,-2,2,5,-2
1532142305319,-19,-15,-8,-6,-6,-9,-12,-18
1532142305324,-5,-3,1,0,-1,1,2,4
1532142305329,3,0,-4,-2,-2,-6,1,2
1532142305334,-10,1,-12,-1,-1,1,-2,-1
1532142305339,12,7,6,3,1,1,2,6
1532142305344,-3,-4,4,2,1,0,-1,-7
1532142305349,6,1,5,1,0,-2,1,-2
1532142305354,-31,-7,-3,0,-1,-5,11,-3
1532142305359,4,3,-1,-1,-2,-2,-20,1
1532142305364,2,-13,-6,-5,-2,4,4,-1
1532142305369,-30,3,-7,-2,-3,-6,4,-14
1532142305374,2,-3,0,-1,1,3,-1,6
1532142305379,3,9,5,0,1,-5,18,4
1532142305384,0,2,4,0,-1,3,-38,-6
1532142305389,26,-7,-8,-2,-2,-6,5,7
1532142305394,4,1,-1,-3,-1,-2,-19,-11
1532142305399,-7,0,2,0,-1,1,2,1
1532142305404,-3,-13,-8,-3,-3,-2,29,3
1532142305409,15,10,4,-1,-1,-1,-23,-1
1532142305414,17,19,9,1,-5,-10,-4,7
1532142305419,1,-13,-6,-1,10,0,3,-4
1532142305424,6,-7,-2,0,1,-1,6,3
1532142305429,-2,-5,0,0,0,-7,-5,-2
1532142305434,-13,2,0,-2,-4,5,1,-8
1532142305439,12,12,-1,-1,-2,2,-6,-1
1532142305444,-1,0,3,3,1,2,12,2
1532142305449,-6,-3,2,1,0,-3,13,0
1532142305454,21,1,4,0,2,5,-39,3
1532142305459,-2,-7,1,-4,-5,-4,3,-6
1532142305464,-3,34,-13,-4,0,-1,-6,0
1532142305469,-10,-49,0,0,-2,-1,1,-6
1532142305474,1,16,3,0,0,-4,8,-2
1532142305479,-8,-11,-1,-2,-2,2,1,-1
1532142305484,-6,-10,-1,-3,-3,-3,7,-3
1532142305489,10,17,-1,1,2,6,-10,-1
1532142305494,-10,-2,-5,-1,2,-3,5,0
1532142305499,2,-7,0,0,-2,2,-7,0
1532142305504,-6,-2,0,-1,0,-2,2,-2
1532142305509,-3,7,1,2,1,3,5,4
1532142305514,-4,-11,1,0,1,4,4,-4
1532142305519,2,7,-3,-1,-1,-2,2,0
1532142305524,2,15,0,-1,-5,-10,-10,-3
1532142305529,-3,-39,-6,-3,1,5,5,0
1532142305534,1,1,0,4,0,-2,1,4
1532142305539,-3,7,0,2,1,1,5,2
1532142305544,5,-3,4,1,0,2,-2,-6
1532142305549,1,7,0,0,-1,-3,-8,0
1532142305554,-1,-2,-4,-1,0,1,11,5
1532142305559,-3,-10,-4,0,-1,-1,-3,-2
1532142305564,-2,-4,3,-1,-1,-1,-5,-2
1532142305569,3,23,-3,-2,-2,-1,0,2
1532142305574,-1,-7,2,-1,0,-1,1,-5
1532142305579,-4,-2,0,0,-2,-5,-2,-1
1532142305584,-3,-16,0,-1,0,6,-2,-4
1532142305589,-3,18,2,1,-1,0,4,0
1532142305594,-9,3,-4,-1,-2,2,2,-4
1532142305599,2,27,0,-1,0,0,0,3
1532142305604,-2,-4,-1,0,0,3,6,1
1532142305609,-4,-13,0,0,-1,-5,-11,-4
1532142305614,-1,5,0,-2,0,0,17,1
1532142305619,-8,-6,0,0,0,1,0,-1
1532142305624,0,5,0,1,1,2,4,2
1532142305629,-8,-11,-4,-3,-3,1,-1,-4
1532142305634,3,-6,-3,-1,0,-4,-2,4
1532142305639,-1,0,-1,-1,-1,-1,-3,-6
1532142305644,-3,6,0,1,0,-3,-4,-2
1532142305649,2,3,-1,-1,0,-2,-2,0
1532142305654,2,-3,0,0,-2,-2,-2,-1
1532142305659,-12,-20,-1,-1,0,6,0,1
1532142305664,1,-5,-2,-1,-2,-5,-8,4
1532142305669,-8,0,-2,-2,-3,-1,3,-5
1532142305674,6,-14,0,1,0,-1,-4,-4
1532142305679,14,7,-1,-1,-3,-1,-1,-2
1532142305684,-4,7,0,-1,-1,-2,-1,-3
1532142305689,2,-13,-1,-1,1,0,1,-1
1532142305694,7,24,-1,0,-2,0,0,1
1532142305699,-7,-2,0,0,-1,-2,-3,-2
1532142305704,-4,-36,-5,-2,-3,-1,-2,-3
1532142305709,1,7,2,1,-1,0,1,0
1532142305714,-2,-1,0,0,0,0,-4,0
1532142305719,11,3,2,-1,-3,0,2,2
1532142305724,6,-2,1,-1,1,1,1,-1
1532142305729,-15,5,1,1,3,1,2,1
1532142305734,-27,-6,-1,-5,-1,-11,-22,-5
1532142305739,-9,1,-1,1,3,12,17,2
1532142305744,3,9,-1,-2,-3,-10,-6,-5
1532142305749,7,6,-6,-1,1,-2,-2,5
1532142305754,-8,3,1,-1,-3,3,21,1
1532142305759,-3,-6,0,0,-3,-8,-31,5
1532142305764,-8,8,1,0,-1,-5,-6,-19
1532142305769,-5,-4,-1,-1,-2,12,21,8
1532142305774,25,-13,0,2,3,-9,-18,7
1532142305779,-13,-1,-1,-4,-1,2,0,-16
1532142305784,11,4,-4,-3,-3,4,1,8
1532142305789,-6,2,-2,-1,-2,-1,-12,-5
1532142305794,-12,-10,0,1,1,1,5,-1
1532142305799,-6,19,-2,-3,1,-5,5,-4
1532142305804,24,-11,-3,0,-3,0,-10,7
1532142305809,31,2,-1,-1,-1,-5,-2,-14
1532142305814,17,0,-1,-1,1,11,3,2
1532142305819,7,-3,2,2,-1,-4,14,-3
1532142305824,-12,5,-2,-2,3,-1,-4,10
1532142305829,10,10,0,-2,-2,-1,1,11
1532142305834,-2,-4,0,1,-5,-2,-3,-1
1532142305839,-5,-4,-3,-1,8,-4,-11,0
1532142305844,-22,1,0,-2,-1,15,24,-4
1532142305849,-40,14,2,1,-1,-16,-14,0
1532142305854,-25,-5,2,-1,0,7,-3,-2
1532142305859,-115,2,-2,1,-5,-6,2,-3
1532142305864,-44,-5,1,1,0,-1,0,-2
1532142305869,-42,-7,-4,-4,0,1,-6,-10
1532142305874,-39,-1,-3,-1,-2,-2,7,4
1532142305879,-50,12,1,0,-2,-1,-2,0
1532142305884,-109,3,3,3,2,1,0,0
1532142305889,-28,-7,-1,-2,-4,2,18,2
1532142305894,27,-9,-5,-3,-2,-10,-20,-19
1532142305899,-38,0,-4,-1,0,7,2,10
1532142305904,3,13,-1,-1,-2,-3,-3,-2
1532142305909,41,-19,-3,0,-1,-8,-2,-10
1532142305914,46,-5,3,-2,-3,5,12,4
1532142305919,110,-8,-1,-2,-3,-4,-30,-16
1532142305924,110,7,1,-2,-1,-11,-5,7
1532142305929,51,-4,-1,-1,1,9,2,-7
1532142305934,63,7,0,2,-9,-5,-2,2
1532142305939,39,-5,0,-1,8,-1,2,0
1532142305944,42,-10,-8,-9,-5,1,0,5
1532142305949,33,-1,-1,0,-2,-3,-3,1
1532142305954,1,7,6,7,6,4,2,-4
1532142305959,46,-4,1,0,-4,3,8,16
1532142305964,22,-14,-5,1,-1,2,-3,-8
1532142305969,16,5,-5,-6,-2,-15,-7,12
1532142305974,17,2,7,2,0,0,-2,-5
1532142305979,41,-5,3,3,-3,-2,1,-1
1532142305984,14,-2,1,0,2,1,2,-2
1532142305989,5,-6,-11,-5,-4,2,-7,-10
1532142305994,-7,-5,-12,-7,2,0,2,-3
1532142305999,21,-6,-2,1,1,0,4,6
1532142306004,13,2,4,5,0,-6,1,11
1532142306009,-17,-6,8,3,-3,0,-29,-17
1532142306014,-19,7,-6,-5,-2,-7,-3,-17
1532142306019,-36,0,1,-1,1,5,29,-9
1532142306024,-113,-2,-4,-1,-4,-2,-41,17
1532142306029,-97,6,6,0,-1,-4,10,-11
1532142306034,-85,3,-3,-4,-1,2,3,5
1532142306039,-1,-3,-4,-6,-2,11,10,-2
1532142306044,-86,0,4,4,1,-4,-3,-10
1532142306049,-9,4,9,6,3,6,4,13
1532142306054,7,1,-3,2,0,-3,-7,-1
1532142306059,40,-1,-4,-3,-4,-4,-2,0
1532142306064,55,-4,1,0,4,15,28,-3
1532142306069,49,-7,-7,-6,4,-3,-26,-4
1532142306074,28,0,-5,1,0,0,5,3
1532142306079,69,-1,6,2,-5,-3,-15,11
1532142306084,45,-2,2,-3,-6,-8,9,-6
1532142306089,-39,7,-2,-2,1,2,12,5
1532142306094,-17,-1,0,3,6,8,9,10
1532142306099,-44,-7,-7,-5,-2,0,-8,-3
1532142306104,17,-7,-4,-4,-10,-17,-5,-9
1532142306109,24,2,2,1,-2,3,9,11
1532142306114,-55,-2,-1,0,2,1,-7,8
1532142306119,-12,0,4,1,-6,-4,-4,-8
1532142306124,-48,0,-4,-4,4,5,2,-18
1532142306129,-4,0,0,0,0,-2,2,3
1532142306134,15,-6,-4,-7,-8,-1,4,4
1532142306139,12,-2,-6,-4,-1,-2,-2,2
1532142306144,63,2,-6,2,3,-1,-6,-8
1532142306149,66,7,6,11,0,2,7,10
1532142306154,76,1,17,11,3,1,-5,-3
1532142306159,35,-6,-7,-4,-2,-6,-8,-17
1532142306164,47,-5,-3,-7,-2,2,2,-3
1532142306169,53,4,-7,-5,-1,-4,-3,-3
1532142306174,30,13,9,-5,-6,-5,3,8
1532142306179,-16,-17,-19,1,3,1,-6,6
1532142306184,-12,-9,-9,-1,-2,-8,-10,-52
1532142306189,-19,-10,-5,-3,-3,1,2,7
1532142306194,5,0,-3,-4,-2,-3,0,-2
1532142306199,-8,12,3,-6,-14,4,8,11
1532142306204,0,-9,5,5,14,10,3,8
1532142306209,9,1,2,2,1,1,2,4
1532142306214,1,2,4,2,3,1,-3,-9
1532142306219,-22,4,4,0,2,1,-5,-9
1532142306224,18,-1,-4,-3,-2,-1,-3,-2
1532142306229,-22,-8,-1,-1,0,-5,-3,-6
1532142306234,18,19,17,-6,-9,1,3,8
1532142306239,-11,1,-24,7,8,-11,-4,10
1532142306244,-50,-64,-16,-3,-2,-5,-6,-2
1532142306249,3,12,1,4,2,-4,-5,-15
1532142306254,-28,-2,5,5,8,7,4,-1
1532142306259,13,19,19,-4,-3,4,1,18
1532142306264,-24,10,-15,-7,-9,-2,-3,-20
1532142306269,-30,-31,-1,-2,-4,-21,-3,4
1532142306274,-4,14,-3,3,3,0,-2,33
1532142306279,-6,-5,9,0,-12,2,-2,0
1532142306284,-39,-2,-8,-4,0,-4,1,-11
1532142306289,8,7,-4,-8,-12,6,9,19
1532142306294,-22,-48,-11,0,1,-4,0,-8
1532142306299,7,27,0,-1,-3,0,-4,9
1532142306304,11,-16,11,5,19,-5,-11,9
1532142306309,54,93,34,14,10,7,12,5
1532142306314,-80,-92,-38,-15,-14,-7,-11,-18
1532142306319,15,89,-11,-11,-7,0,-4,-10
1532142306324,-12,21,1,3,-3,4,0,-8
1532142306329,-22,-10,-7,-7,8,4,0,-7
1532142306334,56,48,34,13,9,6,8,18
1532142306339,-61,-92,-22,-12,6,3,-1,-15
1532142306344,11,-29,7,3,-13,4,5,-2
1532142306349,80,99,34,9,2,0,4,21
1532142306354,-25,-51,10,10,13,12,5,2
1532142306359,-74,-58,-46,-12,2,-4,-6,-29
1532142306364,43,28,-3,-4,-4,-7,-8,2
1532142306369,-49,-59,-23,-2,8,-3,4,-5
1532142306374,34,71,14,-1,-7,2,0,4
1532142306379,46,26,14,3,-6,3,8,8
1532142306384,1,0,14,2,7,6,9,3
1532142306389,-23,-32,-14,-11,-14,-2,-5,-5
1532142306394,-48,-52,-53,-23,-12,-12,-15,-24
1532142306399,-10,-26,-17,13,7,0,-1,2
1532142306404,18,96,59,-1,-6,-3,0,6
1532142306409,11,12,-19,13,2,0,-2,-2
1532142306414,4,-7,4,-1,0,-1,2,4
1532142306419,-8,-15,9,-2,-5,-1,-2,-6
1532142306424,-1,-31,-20,-6,1,1,1,-3
1532142306429,-9,3,17,2,2,0,-1,-3
1532142306434,4,14,1,-1,-2,-5,-4,-3
1532142306439,12,5,6,3,2,0,2,1
1532142306444,6,15,-3,1,2,2,7,17
1532142306449,-24,-43,-8,-5,-1,0,-6,40
1532142306454,8,31,-6,-1,-9,-7,-14,-84
1532142306459,21,16,18,3,0,2,5,6
1532142306464,-12,-13,-11,0,0,-8,1,-2
1532142306469,-13,-15,-8,-2,20,10,-2,-8
1532142306474,27,17,5,3,-13,-1,2,38
1532142306479,8,12,13,4,7,13,10,2
1532142306484,-25,-26,-16,-10,-3,-19,-18,-47
1532142306489,0,-5,-3,-3,-20,-1,16,-11
1532142306494,17,20,12,1,5,-10,-2,27
1532142306499,-1,-8,5,3,21,34,2,2
1532142306504,-4,-6,-16,-1,-2,-13,-22,4
1532142306509,4,-3,1,-1,-42,9,28,-19
1532142306514,-2,7,2,-3,65,5,7,4
1532142306519,-1,2,3,-3,-54,-16,7,16
1532142306524,7,1,5,10,18,16,-2,11
1532142306529,-20,-6,0,-3,5,-9,-6,-28
1532142306534,12,4,1,7,-20,16,67,19
1532142306539,32,-11,-11,-8,-9,-13,-64,-19
1532142306544,-4,1,-4,-2,34,10,21,-3
1532142306549,-11,-7,3,-1,3,-24,-48,-9
1532142306554,12,10,-2,1,-17,10,24,16
1532142306559,-14,-1,1,-1,17,-8,-16,-16
1532142306564,-16,-3,-3,-1,-15,13,12,5
1532142306569,31,-8,-6,-2,31,8,71,32
1532142306574,-1,8,7,2,18,-8,-18,2
1532142306579,-18,2,2,-4,-20,-24,-9,-47
1532142306584,-8,-7,-7,-5,-24,5,-5,-4
1532142306589,0,3,0,-2,-6,11,-1,10
1532142306594,0,6,1,0,13,0,-7,7
1532142306599,18,2,1,-1,-2,-1,26,26
1532142306604,17,-1,-3,1,-2,-4,6,-2
1532142306609,65,8,3,-2,7,5,-11,9
1532142306614,-22,-5,0,-2,-16,-26,-43,-8
1532142306619,22,17,6,5,8,4,14,4
1532142306624,-33,-20,-12,-5,-10,-10,-18,-3
1532142306629,10,0,3,6,2,23,18,1
1532142306634,-14,-5,-3,-5,-14,-4,-5,-9
1532142306639,-9,5,3,-1,5,2,8,4
1532142306644,8,5,5,0,0,-4,-4,12
1532142306649,-44,-9,-6,-1,-5,-9,-14,-20
1532142306654,-11,6,-3,-2,-7,7,-11,-30
1532142306659,-3,-33,-17,-4,5,-21,-23,5
1532142306664,17,5,1,0,-4,5,-9,1
1532142306669,-21,-3,2,1,-2,-8,-14,8
1532142306674,22,6,6,0,-5,3,-2,6
1532142306679,0,10,4,0,3,-1,16,13
1532142306684,32,-4,-5,-1,-6,-6,-7,-4
1532142306689,-65,-7,-5,-6,-5,-8,1,-5
1532142306694,0,-3,-1,-1,-2,-4,-60,-9
1532142306699,-1,2,3,3,1,3,8,6
1532142306704,-7,1,6,1,-1,0,5,-6
1532142306709,5,4,3,1,0,-11,-23,-5
1532142306714,18,-1,-3,-3,-3,13,34,7
1532142306719,-26,-6,-6,-5,-1,3,-1,-5
1532142306724,-5,7,1,-1,-2,1,-3,3
1532142306729,7,-1,-1,-1,-2,-8,-12,-16
1532142306734,1,-3,-2,1,-1,-1,6,-2
1532142306739,6,-2,0,-2,0,5,4,1
1532142306744,-7,-1,-3,-4,-3,-13,3,-2
1532142306749,7,4,2,4,0,-1,0,15
1532142306754,0,2,5,1,-1,2,5,-20
1532142306759,-7,6,-1,0,0,1,-6,-9
1532142306764,-2,-2,-5,-2,-1,2,10,4
1532142306769,1,-8,-8,-6,-4,-11,-7,-7
1532142306774,-52,0,-2,1,-2,1,2,11
1532142306779,48,5,4,-1,-1,0,-1,11
1532142306784,-9,2,2,0,0,4,-7,-9
1532142306789,1,-6,2,-2,0,0,9,9
1532142306794,10,-6,-3,0,0,0,12,0
1532142306799,-21,-10,-4,-3,-3,3,0,-7
1532142306804,11,15,-2,-1,0,-5,-1,5
1532142306809,-4,8,3,3,1,-2,11,1
1532142306814,8,20,-3,-2,0,-2,6,0
1532142306819,-10,-5,-2,0,-1,2,-1,-5
1532142306824,12,-16,5,2,-2,-4,-6,-1
1532142306829,-43,7,-5,-4,-2,-1,-4,-11
1532142306834,-13,-4,-1,-2,-1,0,3,-3
1532142306839,39,2,-6,-9,-7,-4,-5,4
1532142306844,-1,-5,0,5,7,5,10,2
1532142306849,4,5,9,6,-4,1,-12,0
1532142306854,-4,-4,-3,2,3,-1,9,2
1532142306859,-16,-8,1,-2,0,-5,-23,-10
1532142306864,3,15,-1,-2,-2,-3,-8,0
1532142306869,5,0,-2,-3,-1,2,-5,3
1532142306874,-2,4,-3,-2,-3,-1,-4,0
1532142306879,5,-29,-2,1,1,3,9,6
1532142306884,-12,26,-1,0,-1,-1,-1,-8
1532142306889,-1,10,0,-3,1,-2,-3,4
1532142306894,5,-3,-6,-3,-2,-5,-5,4
1532142306899,-2,8,2,-1,1,3,1,-19
1532142306904,3,-10,3,1,-1,-2,-3,7
1532142306909,3,-8,6,3,-1,4,4,-4
1532142306914,0,0,0,-3,-3,0,-1,4
1532142306919,-3,12,-4,1,-1,-4,1,6
1532142306924,4,-7,-3,-1,-1,0,0,-1
1532142306929,-3,-10,5,1,0,2,2,0
1532142306934,8,-4,0,-1,0,-1,-3,-2
1532142306939,1,10,1,1,0,-2,0,-2
1532142306944,-14,-6,-1,-3,-3,-1,1,0
1532142306949,1,-16,-14,-8,-5,-4,-3,1
1532142306954,-6,-5,-5,-2,0,-2,-5,-4
1532142306959,0,33,12,13,3,5,5,0
1532142306964,5,-28,7,3,1,-2,-1,4
1532142306969,-2,3,1,1,-1,0,-3,-3
1532142306974,0,-9,-3,-1,-2,0,0,-4
1532142306979,2,-7,-9,-9,-5,-2,1,2
1532142306984,-9,0,-6,-5,-3,-2,-2,-4
1532142306989,4,-3,-5,0,-1,-2,-8,-1
1532142306994,-3,-5,2,0,-2,2,11,-6
1532142306999,6,8,-1,-2,0,0,2,3
1532142307004,5,0,-6,-4,-3,-1,1,1
1532142307009,-11,-3,-3,-2,0,0,-2,-5
1532142307014,0,5,9,3,1,1,-3,-2
1532142307019,-4,-3,3,3,2,-3,0,-2
1532142307024,0,-2,-2,1,-1,0,-2,-5
1532142307029,9,-4,-7,-6,-2,0,1,3
1532142307034,8,2,0,-1,0,-2,-3,-1
1532142307039,-16,-20,-24,-5,-1,0,0,-1
1532142307044,10,13,12,-4,-3,-2,-2,-2
1532142307049,-14,11,8,13,4,0,1,-4
1532142307054,2,6,21,12,1,1,-1,2
1532142307059,0,0,3,-1,-2,-1,0,-1
1532142307064,-7,-5,-18,-6,1,1,-1,5
1532142307069,18,-3,-7,-6,-2,-2,-1,-9
1532142307074,-25,-14,-10,-7,1,-2,-4,-5
1532142307079,-3,-2,-3,-4,-1,-1,0,1
1532142307084,1,-5,0,0,-2,-1,0,-3
1532142307089,4,2,2,-2,-5,-4,1,5
1532142307094,5,-2,-8,-2,-1,1,-1,1
1532142307099,6,4,2,1,-2,0,0,-3
1532142307104,-3,0,-1,0,1,-2,0,-1
1532142307109,-12,-7,-4,-1,-1,3,0,-2
1532142307114,-1,-1,2,-1,-1,-2,-5,1
1532142307119,-1,5,6,1,3,-1,-1,0
1532142307124,4,9,11,4,-2,-2,-2,-2
1532142307129,3,-13,-6,-3,2,1,1,1
1532142307134,7,8,0,-2,-3,-3,1,1
1532142307139,-14,-9,-8,-3,-3,-2,-3,-3
1532142307144,1,-1,-3,-1,0,0,-2,-2
1532142307149,-2,-3,-2,-2,-2,-1,1,0
1532142307154,7,6,14,5,2,3,2,1
1532142307159,10,5,2,-1,-1,-1,0,0
1532142307164,-6,-7,-8,0,0,-2,-2,-1
1532142307169,-4,-2,-2,-3,0,-1,0,1
1532142307174,-2,1,-9,-4,-5,-2,0,-2
1532142307179,-12,-4,6,1,0,0,1,-3
1532142307184,0,19,18,3,0,2,3,1
1532142307189,8,-29,-8,-2,2,4,0,0
1532142307194,25,7,-2,-2,-3,-4,-1,1
1532142307199,-33,-6,-9,-2,-4,-3,-5,-4
1532142307204,4,0,4,0,0,-1,-1,4
1532142307209,-9,16,11,4,1,1,0,-8
1532142307214,14,-6,-3,-1,1,1,-1,3
1532142307219,8,2,-2,-1,1,0,-1,1
1532142307224,1,-8,-6,-2,-1,0,-1,-1
1532142307229,-1,4,3,-2,-3,-1,0,0
1532142307234,-14,-6,-11,-1,-2,0,-4,-2
1532142307239,11,9,19,2,0,-1,0,0
1532142307244,8,3,-8,2,-2,1,-1,-2
1532142307249,-3,0,4,3,6,-1,2,1
1532142307254,-12,-13,-9,-3,-1,0,-2,-5
1532142307259,22,2,1,-2,-2,-1,0,2
1532142307264,-16,18,1,-1,-3,-1,0,-3
1532142307269,-3,-53,-23,-2,0,-1,0,2
1532142307274,-11,-5,2,-1,-1,-1,-2,-6
1532142307279,3,-3,-5,3,1,-1,-1,3
1532142307284,-5,5,8,-5,0,-2,-2,-3
1532142307289,1,39,3,3,-3,-1,-1,1
1532142307294,-19,2,1,-1,3,1,2,2
1532142307299,15,-1,-1,-7,-4,-2,-2,-1
1532142307304,-15,-26,-18,5,4,0,-2,-2
1532142307309,5,-22,-11,-1,0,0,-1,3
1532142307314,-9,-5,-7,-5,-8,-8,-3,-5
1532142307319,-23,0,0,1,1,1,-2,-7
1532142307324,34,21,11,-3,-2,-2,3,6
1532142307329,16,33,6,-3,1,3,4,11
1532142307334,-3,-34,-17,0,-3,-2,-6,-6
1532142307339,-6,2,-2,-7,-1,-4,-3,-7
1532142307344,5,-5,-7,-2,-3,-1,-1,-3
1532142307349,-2,0,0,0,-2,-3,-7,-11
1532142307354,-7,17,4,1,0,-1,1,4
1532142307359,-2,13,30,4,0,1,4,6
1532142307364,-6,-58,-56,-8,-1,-2,-2,-2
1532142307369,7,-22,-5,-2,-3,-5,-2,6
1532142307374,3,29,22,-2,-1,0,0,0
1532142307379,8,-38,-19,-1,-1,1,0,6
1532142307384,0,23,-1,3,2,0,-1,1
1532142307389,-21,18,31,1,-5,-4,-2,-9
1532142307394,1,-6,-4,-1,0,0,-2,-3
1532142307399,1,27,16,5,4,2,2,2
1532142307404,-3,-5,7,0,0,-1,-1,6
1532142307409,9,8,-3,-4,-2,1,0,2
1532142307414,-9,-21,-10,-4,-1,1,-1,-6
1532142307419,5,0,-11,0,-1,0,0,8
1532142307424,20,15,13,0,-2,-2,-8,-10
1532142307429,13,33,31,1,0,-2,1,-10
1532142307434,-7,-58,-23,0,-1,-1,2,6
1532142307439,-17,6,9,-4,-2,2,1,-1
1532142307444,2,-19,-19,-2,-1,0,-4,-1
1532142307449,-15,12,3,3,-1,-1,-1,-7
1532142307454,9,21,14,2,1,0,0,0
1532142307459,9,-12,-12,-2,-1,-1,-1,-1
1532142307464,-21,16,21,2,-3,-1,4,1
1532142307469,-23,-8,-8,-3,-1,-1,-4,-2
1532142307474,-17,-2,-8,-5,0,0,-1,1
1532142307479,-1,-23,-13,-3,-2,-1,-3,-4
1532142307484,11,34,38,-3,0,1,4,9
1532142307489,-5,-8,-30,7,3,3,-6,3
1532142307494,2,16,-13,-2,-2,-7,-7,-32
1532142307499,-9,1,7,-1,-1,-2,-4,-12
1532142307504,-10,-6,-6,-3,-1,-3,-4,-1
1532142307509,15,12,9,-2,0,-1,5,18
1532142307514,15,49,59,0,2,4,1,10
1532142307519,-5,-67,-65,3,-1,-1,-2,-12
1532142307524,-1,17,5,0,0,-3,-1,-7
1532142307529,-7,-26,-10,0,-1,0,1,1
1532142307534,2,-21,-24,-4,2,-1,0,6
1532142307539,2,40,16,-3,-3,-2,-1,2
1532142307544,10,0,-4,0,0,0,-2,2
1532142307549,-10,-7,-11,-5,0,-1,-3,-7
1532142307554,4,14,19,3,-3,0,6,6
1532142307559,-7,-22,-20,-3,0,0,-6,8
1532142307564,6,-5,-22,1,-2,-2,-1,-24
1532142307569,-7,-2,7,-3,-3,-4,1,2
1532142307574,-15,5,4,3,4,3,10,14
1532142307579,18,28,17,-4,-1,0,-11,3
1532142307584,-10,-50,-6,5,1,-2,-8,-29
1532142307589,7,14,1,0,-1,0,0,1
1532142307594,3,-51,-38,-3,-2,-2,-2,-3
1532142307599,-19,15,19,-1,-1,-1,5,13
1532142307604,13,42,19,-1,-2,0,-2,2
1532142307609,5,2,-2,1,-1,0,-2,-8
1532142307614,-2,13,6,2,-2,0,-1,3
1532142307619,-1,3,-2,4,3,2,4,0
1532142307624,-2,-30,0,-5,-3,-1,5,14
1532142307629,5,33,12,2,2,2,2,3
1532142307634,0,-30,-31,-6,-5,-7,-20,-22
1532142307639,4,5,19,3,-3,-4,-3,-13
1532142307644,-12,0,7,2,4,2,3,1
1532142307649,4,-5,-23,-6,-6,0,7,12
1532142307654,16,42,14,1,3,2,7,24
1532142307659,-9,-11,-1,-3,-3,-1,-10,-1
1532142307664,-4,-2,-12,4,-1,-4,-4,-20
1532142307669,-17,-47,2,-2,-1,-1,-3,0
1532142307674,16,-1,-7,-2,-2,-1,1,-9
1532142307679,-12,-39,-8,-1,-2,-1,9,14
1532142307684,0,14,-5,-7,-1,1,0,15
1532142307689,16,-37,10,4,2,1,2,-11
1532142307694,-15,1,5,2,-2,0,0,2
1532142307699,10,30,0,1,-3,-2,-1,-1
1532142307704,-8,11,12,-6,-4,1,0,1
1532142307709,-5,1,-2,4,2,-1,-2,-1
1532142307714,-7,-44,-17,-2,-2,-2,-9,-5
1532142307719,11,19,-2,1,1,1,6,1
1532142307724,1,16,0,-4,-3,-4,-9,-23
1532142307729,-25,-29,-19,-2,-3,-5,-1,6
1532142307734,8,10,15,5,2,1,-3,-1
1532142307739,1,-41,-11,-1,-3,-1,-3,-10
1532142307744,1,12,1,-2,1,0,2,18
1532142307749,4,29,6,1,2,1,-4,-5
1532142307754,-8,-20,8,-2,-3,0,3,-1
1532142307759,-13,29,-2,-1,-2,-1,-1,-16
1532142307764,-2,-18,-10,-3,0,-1,0,10
1532142307769,5,6,8,2,0,1,3,6
1532142307774,1,19,14,1,-1,-1,-4,-4
1532142307779,6,-3,-7,-5,-1,0,0,-2
1532142307784,-4,12,3,6,1,0,-3,3
1532142307789,2,25,23,-1,-2,-1,5,-7
1532142307794,-1,3,-25,1,-1,0,-2,19
1532142307799,-9,-15,-15,-2,-2,-3,-6,-23
1532142307804,-9,42,19,-6,-2,-2,-2,-2
1532142307809,-21,-59,2,0,-3,2,-4,-4
1532142307814,-4,39,-1,2,6,1,8,24
1532142307819,15,77,6,-3,-1,-1,-5,-16
1532142307824,0,-69,-29,-6,-2,-1,3,6
1532142307829,19,35,4,-7,-6,-2,-3,-4
1532142307834,14,-46,20,7,1,3,2,-11
1532142307839,25,12,4,7,4,3,3,16
1532142307844,30,3,20,9,3,0,3,6
1532142307849,21,-12,-12,-7,0,0,1,4
1532142307854,4,0,-24,-13,-13,-9,-9,-20
1532142307859,-8,-74,-27,-5,-2,-2,0,9
1532142307864,2,51,22,4,-2,4,13,12
1532142307869,1,-4,-11,-2,0,-1,-24,-10
1532142307874,1,-16,-9,4,-1,-3,1,-29
1532142307879,4,21,39,-4,-2,-2,1,6
1532142307884,-7,-94,-42,-2,-2,0,1,4
1532142307889,2,45,-6,0,0,-8,0,10
1532142307894,3,52,30,6,4,7,2,3
1532142307899,-2,-94,-9,-6,-4,0,-1,-3
1532142307904,12,52,18,8,2,1,1,5
1532142307909,2,9,3,0,1,2,1,-9
1532142307914,1,23,-5,0,-1,0,2,3
1532142307919,-6,37,15,1,1,1,8,5
1532142307924,4,-42,3,-3,-1,-1,-3,5
1532142307929,-11,-42,-34,-3,-1,1,-3,10
1532142307934,-6,51,9,1,-3,-8,-17,-83
1532142307939,6,-4,17,4,4,5,4,20
1532142307944,-17,6,-11,-6,-6,-2,-10,-16
1532142307949,2,24,17,0,0,-1,8,14
1532142307954,-1,-26,3,-1,5,5,8,29
1532142307959,-12,-8,-13,0,-2,-3,-13,-17
1532142307964,-2,15,-8,-2,-1,2,2,-6
1532142307969,0,15,18,2,-4,-1,3,-2
1532142307974,0,42,-13,-6,-1,-2,-4,11
1532142307979,11,-7,5,7,3,1,4,-1
1532142307984,5,-56,-12,4,2,-1,-1,7
1532142307989,0,-8,-5,-2,-5,-3,-3,-14
1532142307994,7,-20,-18,-7,0,-1,0,7
1532142307999,0,33,11,-3,-1,-1,0,-3
1532142308004,-10,1,-14,-3,2,0,-6,-9
1532142308009,-10,-12,-4,1,-2,-1,0,-7
1532142308014,-10,-10,22,1,0,2,6,17
1532142308019,-19,25,-16,-5,-2,2,6,11
1532142308024,-8,2,-4,3,4,2,-12,-14
1532142308029,5,29,0,-2,-1,-1,-1,-4
1532142308034,5,-34,-9,-3,-2,-2,3,2
1532142308039,-1,46,3,1,-2,-3,3,5
1532142308044,-16,-12,13,-1,-1,-2,5,2
1532142308049,-9,31,9,-4,-2,-3,-2,-2
1532142308054,6,-37,-24,-3,-6,-1,-7,7
1532142308059,10,-1,13,4,3,-1,-3,-3
1532142308064,102,33,-9,1,1,-1,3,3
1532142308069,41,-3,-4,-2,2,2,-2,-5
1532142308074,5,-16,5,-2,-5,-2,3,2
1532142308079,-22,-10,-12,-4,-3,-3,-5,-9
1532142308084,-54,12,12,1,0,0,0,4
1532142308089,-24,-6,-10,-3,1,0,0,0
1532142308094,-29,-19,7,3,0,0,-1,1
1532142308099,-12,-6,-7,-6,-2,-3,-5,-4
1532142308104,-4,-8,-9,0,0,-3,6,11
1532142308109,-11,26,35,2,-2,-1,0,-3
1532142308114,-16,-59,-38,-13,0,-5,-7,11
1532142308119,6,5,-37,-4,1,0,-12,-41
1532142308124,-2,-33,12,9,-1,-1,1,5
1532142308129,10,15,6,2,0,0,6,1
1532142308134,23,23,24,2,0,-1,1,7
1532142308139,21,13,5,-3,-1,0,6,19
1532142308144,4,15,-19,-10,-2,-1,-3,-9
1532142308149,64,-44,-15,-4,-3,-2,-1,-3
1532142308154,110,17,6,2,-4,-2,0,3
1532142308159,117,17,-8,-1,1,3,5,4
1532142308164,77,-3,9,-2,-1,-2,-1,-3
1532142308169,15,-19,-11,-1,-1,-4,-10,-4
1532142308174,-38,11,0,0,1,2,3,-6
1532142308179,-67,-1,15,-1,-3,-3,-3,-9
1532142308184,-90,7,2,1,-3,-3,-2,-1
1532142308189,-74,-19,0,8,5,3,0,-8
1532142308194,-69,5,-8,-5,-1,0,0,-2
1532142308199,-83,3,21,9,1,1,2,5
1532142308204,-65,-3,-8,-8,-5,-4,0,7
1532142308209,-38,-9,-15,-8,-3,-1,-3,4
1532142308214,-33,71,56,5,2,3,2,-21
1532142308219,-26,-123,-81,-6,-5,-6,-8,3
1532142308224,-9,42,-1,-2,-2,-1,0,0
1532142308229,-1,-31,-6,-2,0,-1,2,-3
1532142308234,-10,-2,13,4,3,2,5,10
1532142308239,-10,31,22,0,-1,0,1,5
1532142308244,1,-20,-18,-2,1,-3,-5,-6
1532142308249,-4,16,3,-2,0,0,-2,4
1532142308254,3,-16,-8,-2,-3,-4,-3,-2
1532142308259,18,12,13,-1,-4,-2,1,-2
1532142308264,-1,-7,15,-1,3,1,-4,-2
1532142308269,-8,17,-18,1,2,4,2,-6
1532142308274,2,-24,-21,-2,3,1,-2,0
1532142308279,5,0,6,-1,-2,1,2,8
1532142308284,1,42,24,2,-2,-4,-2,-8
1532142308289,-10,-25,-3,-1,-2,-2,-5,-5
1532142308294,-14,-17,-13,-2,-4,-1,-2,-1
1532142308299,-7,-12,3,2,0,0,1,3
1532142308304,5,-11,-7,-5,-2,0,8,5
1532142308309,0,12,-2,-2,-3,-2,-7,2
1532142308314,6,3,-2,3,3,-1,0,-7
1532142308319,5,-8,10,-1,0,0,-1,-1
1532142308324,3,-3,-11,-5,-3,1,-2,-11
1532142308329,1,-8,9,3,-1,-2,4,1
1532142308334,3,-24,-2,-3,-2,-1,0,7
1532142308339,-6,24,2,-1,-3,-6,-4,0
1532142308344,-3,-15,-5,0,3,1,-6,-3
1532142308349,0,8,-6,0,1,-1,2,2
1532142308354,4,12,2,0,-1,-2,1,-1
1532142308359,9,4,5,1,1,0,2,4
1532142308364,-4,-4,-8,-2,-3,-1,-3,-9
1532142308369,1,-10,3,0,-1,-2,1,-1
1532142308374,6,9,-1,-2,-1,0,-2,1
1532142308379,-5,-7,-7,0,-3,-2,-3,-8
1532142308384,-2,11,13,2,2,4,4,5
1532142308389,-6,-11,0,1,-1,-2,-1,-1
1532142308394,-5,17,4,1,-3,-2,-2,-6
1532142308399,-16,-23,-15,-2,-1,-1,-1,-1
1532142308404,-11,-13,4,2,-1,1,0,-1
1532142308409,-5,9,-8,-5,-4,-5,-2,-2
1532142308414,-3,19,0,0,1,3,1,4
1532142308419,10,-4,9,0,-2,-2,2,0
1532142308424,14,-4,-3,0,1,-3,-7,-4
1532142308429,13,8,0,1,2,5,8,5
1532142308434,15,-12,-1,2,2,3,-3,-9
1532142308439,17,7,2,-2,-1,-3,-2,-1
1532142308444,13,-8,-5,0,0,0,2,4
1532142308449,15,3,2,-3,-4,-4,-4,-4
1532142308454,9,-7,-9,-4,-2,-3,-1,2
1532142308459,4,2,-3,1,2,2,-1,-5
1532142308464,6,-1,2,-1,-3,-2,-3,-1
1532142308469,-2,3,-2,-1,-1,0,-4,-1
1532142308474,0,-11,-12,-3,-2,-3,-2,-2
1532142308479,17,24,13,1,1,1,2,2
1532142308484,-6,-17,-6,-2,-3,-6,-5,1
1532142308489,-6,-14,-1,2,-1,1,2,-5
1532142308494,1,1,0,0,2,0,-1,-1
1532142308499,-2,-2,-9,-5,-2,-6,-5,-7
1532142308504,10,8,-4,-4,-2,2,-1,1
1532142308509,7,11,6,0,5,3,0,5
1532142308514,-4,6,13,3,-1,-3,-2,-4
1532142308519,7,11,-6,1,0,2,1,2
1532142308524,7,-18,-16,-2,-3,-2,-2,0
1532142308529,11,-5,-1,-4,-2,-3,-1,-2
1532142308534,2,-10,2,-2,-4,-4,-3,-3
1532142308539,-2,13,9,-1,-2,1,-1,-2
1532142308544,-7,-1,1,-2,2,1,1,-1
1532142308549,2,2,-10,-1,-1,-1,-1,-1
1532142308554,-2,7,6,1,1,1,-1,0
1532142308559,-9,-9,-5,0,-2,1,-1,-1
1532142308564,2,16,2,-1,-2,-1,0,-2
1532142308569,3,-32,-2,-1,0,0,-2,-4
1532142308574,3,-4,-8,-2,-1,0,0,2
1532142308579,8,-14,0,1,-1,-1,-2,-2
1532142308584,11,3,2,1,0,5,4,3
1532142308589,-1,15,-1,1,-2,-3,-1,-1
1532142308594,1,1,0,0,2,1,-1,1
1532142308599,-8,-4,-1,1,0,0,-1,-3
1532142308604,-14,1,2,-1,-1,0,-1,0
1532142308609,-18,3,-2,-1,1,2,-1,0
1532142308614,-10,-5,-4,-4,-5,-2,-2,0
1532142308619,-6,-1,1,0,3,1,0,-1
1532142308624,-1,-1,-1,-3,-3,-3,-1,-2
1532142308629,6,-5,-2,-4,-1,1,-2,0
1532142308634,-3,1,1,-1,0,1,0,1
1532142308639,-6,21,14,3,1,1,1,-1
1532142308644,-1,-8,-10,-1,-2,-4,-3,-3
1532142308649,-2,-25,-2,-1,-2,-4,-3,-1
1532142308654,-2,2,-6,-2,-2,0,1,-2
1532142308659,7,-2,0,-2,-2,-2,-1,0
1532142308664,6,8,5,1,5,2,1,-2
1532142308669,10,2,-2,-1,0,-3,-1,-2
1532142308674,24,3,-1,-1,-1,-1,-1,2
1532142308679,17,-24,-7,-4,-2,-4,-3,-3
1532142308684,6,3,2,0,0,-3,-1,-2
1532142308689,14,6,1,-1,1,1,2,3
1532142308694,-6,-5,-3,0,-3,-4,-1,-4
1532142308699,-19,-1,-3,-2,0,-1,1,2
1532142308704,-14,-1,1,-2,-6,-1,-3,1
1532142308709,-18,19,4,3,3,0,-2,-2
1532142308714,-26,-30,-8,-5,-2,-1,-2,-4
1532142308719,-23,-1,-3,0,-2,-3,-2,0
1532142308724,-116,-10,2,-1,3,0,2,-1
1532142308729,-128,11,2,1,-1,1,1,0
1532142308734,-121,6,0,-1,0,-1,-1,2
1532142308739,-105,-8,1,-1,0,-2,-2,-3
1532142308744,-74,-3,-4,-1,-4,-3,-4,-2
1532142308749,-51,-1,-2,-2,-3,-3,-2,-3
1532142308754,-46,3,-1,-1,1,-4,-3,0
1532142308759,29,-1,-1,0,-1,1,-1,1
1532142308764,83,4,1,1,0,-1,2,0
1532142308769,102,-7,-4,-2,1,-1,-2,-2
1532142308774,101,2,0,1,-1,0,0,-1
1532142308779,78,9,-2,-1,-1,2,0,1
1532142308784,75,-4,1,0,0,-1,0,-1
1532142308789,69,-2,0,-1,-1,-1,0,0
1532142308794,56,1,-1,-2,-2,0,2,2
1532142308799,35,-2,-2,-2,0,1,0,-2
1532142308804,43,10,1,0,0,2,1,0
1532142308809,22,3,-2,0,-1,-2,1,5
1532142308814,29,-8,1,-1,0,-3,0,-10
1532142308819,35,-7,1,2,3,0,1,5
1532142308824,41,-1,-4,-3,-2,-1,-1,-3
1532142308829,52,4,-1,-3,-3,-1,0,-1
1532142308834,73,10,0,0,2,2,1,5
1532142308839,69,-1,1,-2,1,7,6,-1
1532142308844,34,-11,-2,-1,-1,-6,-5,-8
1532142308849,23,10,0,1,0,4,5,7
1532142308854,-35,-4,-2,-1,-5,-3,-3,-6
1532142308859,-38,-3,-2,1,-2,-2,-4,5
1532142308864,-8,-9,-3,0,1,-1,-2,-1
1532142308869,-37,-4,-1,1,-2,-4,-7,-5
1532142308874,-105,26,0,0,0,1,-2,9
1532142308879,-107,-18,-3,1,-1,-5,0,-8
1532142308884,-64,-1,-1,1,-1,0,1,1
1532142308889,-11,-4,-1,0,0,-3,-11,-1
1532142308894,32,-9,-3,-1,0,-1,4,-12
1532142308899,13,16,4,0,3,0,-19,-2
1532142308904,21,-22,-1,-4,-3,9,32,-1
1532142308909,24,9,-4,-3,-2,-2,-27,2
1532142308914,53,-17,3,3,1,-3,10,9
1532142308919,33,33,-1,-1,-3,-1,-6,-2
1532142308924,38,17,2,-1,0,-1,0,2
1532142308929,2,13,7,1,3,5,7,2
1532142308934,17,-22,0,0,-1,4,-2,-3
1532142308939,-14,-25,-11,-3,1,-4,-2,-1
1532142308944,-12,-9,-2,-2,-4,1,-5,3
1532142308949,-15,-7,0,-1,4,2,14,2
1532142308954,24,-10,13,3,-2,-1,-4,9
1532142308959,72,75,-2,-4,0,-1,4,-13
1532142308964,-11,-17,-5,-1,-3,-5,-12,-5
1532142308969,49,7,1,2,-2,0,3,3
1532142308974,45,-4,5,3,5,6,11,16
1532142308979,18,-45,-2,-2,-5,-6,-17,-9
1532142308984,-8,19,-2,-1,-6,-7,-14,-33
1532142308989,-35,-23,1,1,2,-3,4,-7
1532142308994,-25,38,0,-1,-2,-2,4,-7
1532142308999,-18,-47,-10,-4,-2,1,13,11
1532142309004,58,24,0,1,3,-1,-1,17
1532142309009,3,-9,0,1,-3,-2,1,-4
1532142309014,2,17,-13,-6,-4,-8,-9,-2
1532142309019,19,20,7,2,3,2,2,3
1532142309024,-65,-32,0,-1,0,7,2,6
1532142309029,6,1,3,-1,-2,-6,18,0
1532142309034,7,14,-1,-1,-3,-2,-9,1
1532142309039,-16,-10,-5,-2,-2,-4,-4,-13
1532142309044,29,12,4,3,3,2,4,8
1532142309049,-33,-46,-11,-7,-5,-5,-16,-3
1532142309054,14,-33,-7,1,-4,-2,-4,-35
1532142309059,3,33,8,3,3,2,21,48
1532142309064,-21,-75,-13,-6,-3,-6,-21,-62
1532142309069,24,33,4,-1,1,6,19,7
1532142309074,16,16,-5,-4,-2,-6,-21,16
1532142309079,-9,17,3,1,-3,-1,-7,-32
1532142309084,29,48,14,6,3,0,9,34
1532142309089,6,37,-3,0,1,-2,-7,1
1532142309094,24,-75,3,1,2,9,15,4
1532142309099,-11,59,7,2,0,3,-4,6
1532142309104,-6,-18,-11,-2,-6,-6,-3,10
1532142309109,-12,-16,1,1,-1,-1,-5,-19
1532142309114,-11,29,-6,-4,-4,0,-6,1
1532142309119,9,-9,0,1,0,-5,0,6
1532142309124,-55,43,0,1,1,0,-2,-2
1532142309129,4,-10,1,1,-4,0,2,-9
1532142309134,-8,-9,-4,-5,2,-5,0,1
1532142309139,-17,15,1,-2,3,1,-3,-19
1532142309144,27,-5,2,-1,-1,3,0,6
1532142309149,-26,-47,-9,-3,0,-1,1,7
1532142309154,-10,16,4,0,3,0,2,5
1532142309159,-10,-21,-10,-4,-5,-1,-6,-5
1532142309164,4,18,-1,-4,-2,-4,0,3
1532142309169,-5,-11,8,4,1,-1,-3,0
1532142309174,35,11,5,4,0,1,3,6
1532142309179,-4,-13,8,6,3,1,-4,2
1532142309184,-21,-10,-9,-4,1,-1,-2,-9
1532142309189,3,-4,-18,-12,-10,3,7,3
1532142309194,-32,-28,-1,3,4,-2,-5,-4
1532142309199,10,60,20,15,3,5,1,4
1532142309204,6,-7,3,2,-1,-4,-3,-4
1532142309209,-16,2,-5,-4,-7,-2,0,-1
1532142309214,21,-30,-4,-6,3,-4,-5,2
1532142309219,2,-19,-11,-5,-1,-1,3,4
1532142309224,-13,-3,-4,-2,-1,-3,-4,-15
1532142309229,5,1,1,1,-1,-5,-1,2
1532142309234,-5,0,-8,-5,-4,-1,1,1
1532142309239,-6,-3,0,-2,-3,-2,-2,-5
1532142309244,-14,-4,1,0,-1,1,-1,2
1532142309249,11,9,-6,1,2,-2,2,0
1532142309254,-8,26,-1,-1,-1,4,0,2
1532142309259,-4,10,9,3,-4,-3,-2,-2
1532142309264,-8,-11,3,3,-2,0,-2,-1
1532142309269,3,-33,5,-1,0,5,2,1
1532142309274,-9,24,-3,-4,-7,-3,-2,-4
1532142309279,-6,-3,-15,-4,-2,-1,-3,2
1532142309284,-14,-4,-4,-6,-2,1,2,0
1532142309289,-27,-1,-5,0,-4,-9,-4,-2
1532142309294,-13,6,6,4,5,-2,0,-2
1532142309299,-14,-12,-2,-5,-11,-3,2,-1
1532142309304,-21,1,1,3,1,3,2,2
1532142309309,-14,19,0,-2,1,-3,-2,1
1532142309314,8,-8,2,0,-1,1,2,-2
1532142309319,10,0,-1,-3,2,-2,-2,0
1532142309324,15,17,-2,0,-7,-2,0,0
1532142309329,16,-32,-3,1,3,-2,-2,-1
1532142309334,-14,3,5,-3,-1,-1,0,-1
1532142309339,2,4,9,1,-5,1,-1,-2
1532142309344,-5,-2,-2,-1,10,2,0,1
1532142309349,1,-7,-3,0,-1,-2,-2,0
1532142309354,7,8,4,1,-6,1,2,1
1532142309359,-11,2,-5,-5,5,-6,-7,-1
1532142309364,-22,0,-5,-4,-6,-3,-4,-4
1532142309369,5,11,11,7,10,4,4,0
1532142309374,2,-14,-6,0,6,-2,-3,-4
1532142309379,2,-1,-6,-3,-3,-2,1,0
1532142309384,-2,-8,4,2,-4,-2,-1,-1
1532142309389,-15,-1,-10,-3,-7,1,0,-1
1532142309394,-24,-5,-5,-4,-5,2,1,-2
1532142309399,-13,-6,7,6,7,1,-2,-1
1532142309404,-1,-2,9,8,4,0,-1,0
1532142309409,19,0,-1,-3,-4,-4,-1,0
1532142309414,30,18,2,-1,0,1,-3,1
1532142309419,6,-4,-13,-8,-9,0,1,-2
1532142309424,-2,-11,3,0,-3,3,2,1
1532142309429,4,-2,7,1,1,3,2,4
1532142309434,-3,-10,-11,-3,6,3,0,-2
1532142309439,17,-1,0,4,2,-6,-3,-2
1532142309444,20,6,-4,-4,-6,-3,0,1
1532142309449,21,-7,2,-1,-7,-2,-2,-2
1532142309454,17,4,-5,-2,-4,-4,0,-1
1532142309459,2,-3,-7,-5,-1,2,1,0
1532142309464,5,-5,9,1,5,-1,0,1
1532142309469,-2,-7,-2,-1,-6,-4,-4,-1
1532142309474,-4,-43,2,2,-5,-2,1,0
1532142309479,5,66,1,-5,-2,-3,-6,-2
1532142309484,6,-4,-15,-2,-2,-1,0,2
1532142309489,-5,4,4,-2,3,2,0,-2
1532142309494,1,6,10,3,-11,-1,1,-1
1532142309499,-1,-20,7,4,12,1,1,1
1532142309504,0,18,-10,-7,1,2,-1,-3
1532142309509,-3,-16,-3,-3,1,1,-1,-2
1532142309514,-7,-10,-3,1,7,0,-1,2
1532142309519,-4,-23,-1,-2,-5,4,-2,-1
1532142309524,1,40,7,4,1,-1,0,1
1532142309529,0,-10,-4,-2,1,-2,2,0
1532142309534,-15,-56,-2,-5,-1,-1,0,-3
1532142309539,2,24,-7,-3,-3,-3,-3,-3
1532142309544,-4,-16,0,-4,-6,-3,-1,0
1532142309549,2,57,4,5,4,-2,-4,-3
1532142309554,7,18,10,7,2,2,-1,0
1532142309559,-14,5,-5,-2,-4,-3,2,-1
1532142309564,-8,-47,6,4,1,0,-2,-2
1532142309569,-6,-11,-9,-6,-3,-3,-1,-4
1532142309574,-5,11,-5,-5,-12,-1,4,-1
1532142309579,-3,-18,-7,8,12,2,0,0
1532142309584,-2,3,12,-1,0,2,-1,-1
1532142309589,-3,-3,3,0,1,-2,-3,1
1532142309594,-4,8,1,1,0,-2,-2,0
1532142309599,3,-19,-12,-9,-8,-1,0,-2
1532142309604,0,19,-8,-4,4,-2,-1,-1
1532142309609,-15,-36,3,4,4,2,0,0
1532142309614,2,-2,3,2,1,1,0,0
1532142309619,5,23,-3,-5,-5,-5,-3,-2
1532142309624,-4,-16,-4,-3,-2,-3,0,-1
1532142309629,0,8,-2,-2,1,2,1,-1
1532142309634,1,28,12,4,4,0,-3,1
1532142309639,-2,-17,6,3,3,2,0,0
1532142309644,2,-3,-6,-4,0,-2,-1,-2
1532142309649,-9,-16,-4,-6,-6,-2,-1,-4
1532142309654,-5,16,0,1,5,0,1,1
1532142309659,5,4,10,15,0,2,1,0
1532142309664,-5,-22,-10,-4,-2,1,-2,-1
1532142309669,6,16,-13,-9,-6,-1,-2,0
1532142309674,4,3,5,-5,2,-2,-3,-1
1532142309679,1,5,-3,-4,-1,1,0,1
1532142309684,5,-4,7,7,-1,0,3,-1
1532142309689,-2,-2,2,-3,4,-2,-3,-3
1532142309694,5,-3,3,1,-4,-2,1,1
1532142309699,-16,-5,-17,-7,-1,-2,-1,-1
1532142309704,13,-6,3,10,-1,0,0,2
1532142309709,-5,8,6,2,-2,1,1,1
1532142309714,-4,-11,-2,1,6,-2,-1,-3
1532142309719,10,-3,8,-4,-3,1,-2,0
1532142309724,-14,10,-8,-3,-4,-4,-3,-4
1532142309729,9,5,-3,-3,-4,1,3,2
1532142309734,-2,1,-2,3,1,-1,0,0
1532142309739,0,-11,7,-1,-6,2,3,-1
1532142309744,-4,18,18,-6,3,1,0,1
1532142309749,2,-27,-21,4,1,-4,-4,2
1532142309754,-3,-6,-5,-12,-4,-3,-5,-5
1532142309759,-8,1,-22,-4,0,-2,-2,-2
1532142309764,6,6,19,6,1,1,3,5
1532142309769,3,-9,8,0,0,1,-2,-4
1532142309774,9,8,-11,-4,1,3,1,-4
1532142309779,3,-10,-5,-12,-15,-8,-9,-5
1532142309784,9,6,-7,-3,-1,13,6,0
1532142309789,-1,14,15,14,17,2,5,6
1532142309794,1,13,27,5,-1,0,-1,2
1532142309799,-8,-4,-14,3,0,-3,-1,-2
1532142309804,-9,-20,-31,-5,-3,-1,-3,0
1532142309809,11,10,7,-3,-4,0,-2,-2
1532142309814,-6,-10,-11,-6,-4,1,-2,-4
1532142309819,-10,12,19,5,7,1,3,-1
1532142309824,7,-8,-3,-3,0,-5,-6,-2
1532142309829,-1,9,-7,-1,-2,-1,2,-1
1532142309834,-4,8,4,-1,-3,-5,-1,5
1532142309839,8,2,-2,-10,-5,0,1,-2
1532142309844,6,-24,-17,4,0,-6,-5,14
1532142309849,-3,-3,1,-5,-7,-3,-6,-22
1532142309854,-5,1,-13,1,2,-1,-2,-3
1532142309859,-9,-10,1,-2,0,1,0,0
1532142309864,1,28,10,-2,-2,1,0,-5
1532142309869,3,-26,-22,6,4,1,-1,8
1532142309874,4,-9,-2,-2,-1,2,-1,0
1532142309879,-5,-19,-9,-4,2,-1,0,-2
1532142309884,-2,17,10,-7,-5,-5,0,-1
1532142309889,-8,35,29,3,-3,0,1,2
1532142309894,5,-28,-32,2,-3,-4,-2,-3
1532142309899,-8,-7,6,0,-7,-3,2,2
1532142309904,-11,-15,-15,-11,1,-3,-4,-6
1532142309909,-3,8,9,1,-2,-1,1,-5
1532142309914,-3,25,12,2,1,2,1,4
1532142309919,1,-22,-5,2,2,-2,0,1
1532142309924,-17,-8,2,5,-1,-3,-3,-3
1532142309929,6,-8,-11,-8,-4,0,-1,-2
1532142309934,-6,26,18,-4,0,-2,1,1
1532142309939,1,-23,-17,-4,-2,0,-1,0
1532142309944,8,20,11,7,2,2,3,-4
1532142309949,0,-9,6,-2,1,-3,-3,6
1532142309954,-25,-25,-27,-4,-4,-1,-3,-3
1532142309959,2,8,5,-3,2,1,-2,-1
1532142309964,2,8,4,5,5,0,-4,0
1532142309969,0,9,8,1,-4,-1,0,1
1532142309974,11,-8,-3,-1,0,-4,-2,-1
1532142309979,9,23,5,0,4,3,0,3
1532142309984,-27,-16,1,-3,-5,1,-1,-8
1532142309989,5,-2,-14,-7,-3,-3,-2,0
1532142309994,-4,28,25,4,1,-1,0,-2
1532142309999,-2,-41,-25,6,4,-2,-1,2
1532142310004,4,2,0,-5,-2,-1,-1,2
1532142310009,-3,-26,-22,0,-2,-2,-2,3
1532142310014,-2,-9,0,-7,-2,0,1,-9
1532142310019,4,16,12,3,-1,-2,1,-2
1532142310024,-1,1,0,-3,-1,-1,-4,-6
1532142310029,-6,5,6,-1,0,0,4,5
1532142310034,7,0,-9,-1,-3,0,-4,3
1532142310039,-6,9,12,-2,-4,-1,-1,-7
1532142310044,0,-10,-10,2,-1,-2,0,0
1532142310049,-2,11,-2,-4,-2,0,0,0
1532142310054,-2,-20,-26,-10,-2,-1,-3,2
1532142310059,-4,6,20,18,0,1,0,-4
1532142310064,-5,2,22,10,2,-2,2,-1
1532142310069,-2,1,6,0,1,1,1,0
1532142310074,6,-2,-5,-4,-3,-2,0,1
1532142310079,1,9,-12,-14,-4,-1,-1,0
1532142310084,4,-6,-3,2,1,-1,-1,0
1532142310089,-2,13,7,-1,-1,-1,-3,-1
1532142310094,2,-9,-15,2,0,-1,0,2
1532142310099,-2,24,26,2,2,-2,-3,1
1532142310104,3,-24,-15,-4,-2,-1,-2,-4
1532142310109,4,9,-3,2,2,-1,-1,0
1532142310114,-12,-18,-7,-1,0,1,-2,-8
1532142310119,7,0,-6,-5,-2,-1,1,1
1532142310124,0,1,-3,-1,-3,-2,0,5
1532142310129,-6,-7,-4,-5,-2,0,-4,-4
1532142310134,4,3,4,-2,0,0,0,1
1532142310139,-8,-5,1,5,2,0,-3,0
1532142310144,5,11,11,6,-1,0,1,3
1532142310149,2,-5,0,2,0,-1,-2,-7
1532142310154,5,22,6,4,1,1,1,6
1532142310159,-24,-2,10,-6,-5,-2,1,-8
1532142310164,-3,-11,-31,-14,-3,-1,-5,-2
1532142310169,-2,-9,5,4,-3,-1,-1,-3
1532142310174,-2,7,11,6,2,0,2,7
1532142310179,4,-14,-13,-6,-5,0,0,4
1532142310184,-6,-2,-1,-6,-4,-1,-3,-12
1532142310189,3,-3,-7,-6,-1,-3,-2,-1
1532142310194,6,-6,0,4,-1,0,2,4
1532142310199,3,15,11,6,4,2,0,-1
1532142310204,17,2,-1,-4,-4,-1,0,3
1532142310209,9,-9,-21,-4,-1,1,0,3
1532142310214,-7,12,22,1,-3,-3,-2,-7
1532142310219,2,-3,-10,2,1,-3,0,4
1532142310224,4,-3,6,-1,0,0,-2,-6
1532142310229,8,-10,0,-2,0,1,-3,-4
1532142310234,11,2,-3,-6,-4,-2,1,0
1532142310239,-14,-14,-11,-8,-4,-4,1,-1
1532142310244,-7,-6,-4,4,1,-2,-6,-2
1532142310249,2,1,-4,1,0,0,-2,-2
1532142310254,-8,1,12,6,3,2,1,-11
1532142310259,3,-33,-4,-9,-4,-2,2,12
1532142310264,-13,-11,-7,-6,-2,-1,-3,-6
1532142310269,3,-6,-7,-5,-5,-3,1,-2
1532142310274,-1,22,8,8,3,1,2,7
1532142310279,-7,22,6,6,3,1,-5,-9
1532142310284,-7,-1,3,0,1,0,1,1
1532142310289,11,-13,-11,-7,-3,-3,0,3
1532142310294,-8,-3,-6,-6,-2,-3,1,1
1532142310299,6,33,15,6,6,0,-2,-3
1532142310304,5,-34,-16,-3,-2,0,1,2
1532142310309,2,10,0,1,0,2,-2,-3
1532142310314,-11,-15,3,1,0,-2,-1,-1
1532142310319,-2,2,-2,0,-1,-3,-1,-2
1532142310324,8,10,-4,4,-2,0,3,12
1532142310329,-6,2,6,3,5,3,-1,-6
1532142310334,1,-9,-8,-6,-1,-2,-5,-9
1532142310339,-5,-8,1,2,-1,2,-1,1
1532142310344,5,7,-8,-9,-2,-2,-2,0
1532142310349,-8,-4,-16,-5,0,3,5,2
1532142310354,16,31,24,15,6,2,-2,6
1532142310359,-10,-22,3,4,-2,-4,-1,-4
1532142310364,12,26,7,-3,-1,-2,-2,3
1532142310369,11,-9,-13,-6,-4,-2,-1,6
1532142310374,-5,4,-17,-10,-2,-1,0,-6
1532142310379,-3,-6,-5,1,2,2,-1,-2
1532142310384,-10,-1,7,4,-1,-1,1,-6
1532142310389,-5,3,6,-6,-2,-3,-3,-1
1532142310394,-2,-7,-3,2,-1,-1,0,3
1532142310399,-2,2,-5,1,-1,2,2,1
1532142310404,-6,-2,5,0,-1,-1,-3,-9
1532142310409,-5,13,5,1,3,0,-1,0
1532142310414,7,-24,-7,2,1,0,-2,3
1532142310419,1,12,8,0,-1,-2,-3,-6
1532142310424,1,-11,-11,-3,-4,0,1,-2
1532142310429,-3,5,11,-3,-3,-3,0,-2
1532142310434,-1,-12,-17,-2,-2,-1,-2,-4
1532142310439,1,12,5,2,0,0,1,5
1532142310444,-8,-18,-7,-1,-2,-2,0,-10
1532142310449,10,-2,-4,-5,-4,-3,-1,1
1532142310454,-8,14,9,-4,-2,0,-2,-3
1532142310459,12,-11,-7,2,0,-2,-2,-2
1532142310464,-8,-2,1,-1,0,0,-2,2
1532142310469,-3,0,-3,-2,-4,-3,1,1
1532142310474,17,5,-1,0,-1,-2,1,2
1532142310479,-25,-9,6,0,1,-1,-2,0
1532142310484,2,12,11,3,3,2,-3,3
1532142310489,-2,-4,-5,2,1,-3,-2,-7
1532142310494,1,-1,2,0,-1,-1,1,2
1532142310499,-2,1,-1,-6,-5,-3,0,-2
1532142310504,-6,-12,-11,-3,-1,-2,0,2
1532142310509,0,-6,-4,3,-1,2,0,-4
1532142310514,-8,-1,7,4,2,-1,-2,-3
1532142310519,-19,4,2,0,0,1,2,8
1532142310524,19,1,-9,-4,-1,-2,-4,-11
1532142310529,11,5,1,-2,-3,-3,0,6
1532142310534,-7,-8,-14,-16,-4,-3,0,4
1532142310539,7,6,10,10,6,3,-2,-3
1532142310544,-1,8,6,8,2,2,1,-3
1532142310549,-6,-6,8,3,1,2,0,3
1532142310554,0,-6,-3,-6,-6,-3,-1,-2
1532142310559,5,-10,-12,-8,-6,-4,-2,-4
1532142310564,-3,-6,-10,-3,-1,1,0,4
1532142310569,2,6,3,4,3,0,0,-3
1532142310574,-10,-1,-1,0,2,2,1,3
1532142310579,7,1,-7,-4,-2,0,1,1
1532142310584,4,6,6,-1,2,-1,0,7
1532142310589,-8,-2,8,6,4,1,-1,-10
1532142310594,-6,0,1,0,-3,-1,-3,0
1532142310599,7,-3,-3,-2,-2,0,0,-2
1532142310604,-3,-5,-7,-7,-4,-2,4,5
1532142310609,-3,3,4,3,0,1,-5,-2
1532142310614,-7,-1,-5,2,0,2,-1,-1
1532142310619,8,2,1,4,0,-2,1,-2
1532142310624,-10,-8,-3,-5,-2,-1,-1,-4
1532142310629,6,-10,-8,-6,-7,-1,-3,2
1532142310634,0,0,3,-1,1,-3,-3,-6
1532142310639,1,16,6,1,4,3,-1,5
1532142310644,-8,-19,1,1,0,0,0,-7
1532142310649,-4,0,-1,-1,-2,0,-1,-1
1532142310654,7,5,-2,-3,-4,-3,-1,2
1532142310659,1,-1,-6,-5,1,-4,-2,-6
1532142310664,4,-5,-1,-5,-2,0,1,3
1532142310669,-6,-1,10,10,2,2,2,0
1532142310674,2,-5,-2,2,0,0,0,4
1532142310679,-3,2,3,-1,-3,-2,-3,-11
1532142310684,-2,4,-5,-2,-4,-3,-2,-1
1532142310689,5,-5,-6,-5,-1,-2,1,4
1532142310694,1,5,-2,1,0,1,0,0
1532142310699,3,-1,6,3,-1,2,-1,-1
1532142310704,0,0,0,0,0,-2,-3,-3
1532142310709,-3,-2,-8,-6,-2,0,4,2
1532142310714,-9,-13,7,2,-2,0,2,-2
1532142310719,17,9,-16,-5,-4,-5,-7,-5
1532142310724,-4,1,-3,1,1,0,-1,-1
1532142310729,-3,0,6,1,0,-2,-2,1
1532142310734,-3,-6,-5,-3,1,1,0,-2
1532142310739,-8,-15,-2,-7,-3,-2,3,11
1532142310744,-2,6,-5,-2,0,0,-7,-8
1532142310749,1,8,4,5,3,2,-1,1
1532142310754,-7,-7,2,-2,-1,-2,-2,-3
1532142310759,7,12,4,8,2,1,0,0
1532142310764,-1,1,5,4,-1,-2,2,2
1532142310769,-7,-6,-8,-7,-3,-2,-1,2
1532142310774,3,4,-2,-1,-1,1,0,-2
1532142310779,-6,-8,1,-5,-1,1,2,2
1532142310784,-3,-2,-5,2,0,-1,-2,1
1532142310789,7,-10,-6,-2,-1,-3,-5,-5
1532142310794,5,7,-2,-2,-3,-4,-1,3
1532142310799,-10,-4,-2,0,1,-1,0,-7
1532142310804,3,2,-1,0,2,0,-1,-4
1532142310809,-4,-2,-7,-4,0,-2,2,0
1532142310814,3,10,2,0,0,0,-1,-2
1532142310819,-9,-10,7,-2,0,0,0,-2
1532142310824,10,20,-3,-5,-2,-1,-2,2
1532142310829,-7,-9,-2,9,3,-1,-3,-5
1532142310834,-8,-14,-4,0,-2,-3,-3,1
1532142310839,3,3,-1,4,-1,1,2,0
1532142310844,3,-4,1,-3,-2,-1,-2,-1
1532142310849,-1,3,5,0,0,-2,-4,-7
1532142310854,3,-4,-2,0,-3,-2,-3,-1
1532142310859,-3,6,-1,5,1,1,2,-1
1532142310864,-8,2,0,4,3,1,1,4
1532142310869,-5,-13,3,-1,-1,1,0,0
1532142310874,0,8,1,-2,0,-1,-1,-4
1532142310879,8,6,-5,-6,-4,-4,1,4
1532142310884,-8,-10,-7,-3,1,0,-2,-3
1532142310889,14,14,-3,-2,-1,-4,-5,0
1532142310894,-7,-5,-4,3,2,-1,1,1
1532142310899,0,-2,2,-4,-4,0,-2,-1
1532142310904,1,-3,-7,-5,-3,-3,-1,-4
1532142310909,-10,-13,-3,1,4,0,1,1
1532142310914,10,7,4,0,-1,0,-3,0
1532142310919,-7,-4,1,1,-1,-1,0,-1
1532142310924,1,-2,2,-2,-1,0,-1,-3
1532142310929,3,3,-8,-5,-3,-2,-3,-1
1532142310934,1,4,-2,-3,0,-1,2,-1
1532142310939,-6,-4,-1,0,1,-2,-2,-5
1532142310944,-1,-15,-3,-1,-4,-3,-3,-7
1532142310949,-6,-1,0,0,-2,-1,1,3
1532142310954,5,3,1,-2,-2,0,1,-2
1532142310959,-6,5,0,-2,-2,-1,-1,-4
1532142310964,-3,3,-4,-3,-3,-2,0,0
1532142310969,7,1,-3,2,-1,-2,0,-3
1532142310974,2,6,3,5,1,0,-1,2
1532142310979,-13,-16,0,-4,-1,-1,-2,-1
1532142310984,7,4,2,0,-3,-1,-1,4
1532142310989,-13,-10,-2,-3,1,-1,-1,-1
1532142310994,4,7,-1,-1,-2,-1,2,1
1532142310999,-1,3,4,0,-1,-1,1,0
1532142311004,2,2,-2,1,0,-1,1,0
1532142311009,-3,0,4,3,1,-1,0,3
1532142311014,-6,-7,1,-3,-2,-1,-2,-7
1532142311019,-1,3,-3,0,0,0,-2,0
1532142311024,-3,-1,1,0,-1,-2,0,-2
1532142311029,-4,-6,1,1,0,1,2,1
1532142311034,5,6,-1,0,-2,-1,-1,0
1532142311039,-8,-8,-9,-3,-1,0,-1,-3
1532142311044,2,1,3,1,0,0,0,-1
1532142311049,5,8,-1,-1,-1,0,0,0
1532142311054,-3,17,-1,-4,-3,-3,0,1
1532142311059,3,-18,-2,1,-1,-2,-1,0
1532142311064,-2,-3,4,1,-2,-1,-3,-6
1532142311069,-2,11,2,0,-2,-1,-3,0
1532142311074,-4,0,3,5,2,1,1,2
1532142311079,13,15,0,-3,0,-2,-1,0
1532142311084,-9,-12,-6,-5,-1,0,0,-1
1532142311089,3,6,-1,-2,-3,-2,-2,-1
1532142311094,-7,-11,1,0,1,2,-2,-3
1532142311099,-6,4,-1,0,-1,-1,1,1
1532142311104,2,6,-1,-2,-1,-1,0,3
1532142311109,-2,-9,2,-2,-1,1,-1,-1
1532142311114,-1,-21,-11,-2,0,-3,-3,-4
1532142311119,0,0,-3,-1,0,0,-2,-2
1532142311124,-1,5,-1,2,2,-1,-2,0
1532142311129,-5,10,0,-1,-2,-1,2,1
1532142311134,7,-9,-3,-6,-4,1,1,1
1532142311139,0,12,5,4,-1,1,-1,0
1532142311144,-15,-13,-4,4,1,-1,1,1
1532142311149,9,-3,2,1,0,0,-2,-8
1532142311154,11,8,-2,0,0,-3,-3,-1
1532142311159,3,4,1,-4,-2,-1,-1,2
1532142311164,-2,-1,-4,-4,0,-1,-1,-3
1532142311169,-4,-9,0,2,0,-1,-1,-1
1532142311174,-7,-6,2,0,0,0,-1,1
1532142311179,2,6,-1,-3,1,0,1,0
1532142311184,10,-5,-6,-2,-3,-3,-3,-1
1532142311189,-3,-2,-4,-2,0,-1,1,-1
1532142311194,-6,-3,1,-2,1,1,1,1
1532142311199,-3,0,6,6,2,0,-2,-2
1532142311204,-6,-8,4,-1,2,0,2,0
1532142311209,7,-5,-3,0,-2,-1,-2,2
1532142311214,12,16,-4,-2,-1,-1,-2,0
1532142311219,-20,-16,1,-5,-3,-1,0,-6
1532142311224,23,5,-3,2,-1,-1,-3,0
1532142311229,0,-4,-3,-1,-2,0,0,-1
1532142311234,-9,4,3,3,2,2,2,6
1532142311239,14,-17,-4,-1,-1,-2,-2,-7
1532142311244,1,5,4,1,1,0,1,1
1532142311249,-4,-1,-3,-4,-2,-4,-3,-4
1532142311254,-3,-4,3,4,2,1,-1,-3
1532142311259,-2,-6,-5,-1,-1,-1,-2,1
1532142311264,-4,4,4,0,0,2,-1,-3
1532142311269,1,-2,-2,0,0,1,0,3
1532142311274,-3,-10,4,-2,-3,-1,0,-2
1532142311279,1,1,-9,-6,-1,-3,-3,-3
1532142311284,0,7,-3,2,1,0,1,2
1532142311289,-3,0,-1,0,1,0,-2,4
1532142311294,-14,-1,0,-3,-5,-3,-1,-10
1532142311299,2,-15,-6,3,2,0,1,7
1532142311304,-4,10,3,-1,1,-1,0,-1
1532142311309,-7,8,1,0,0,0,-2,1
1532142311314,0,-18,0,0,-1,-4,-3,0
1532142311319,10,15,-1,-3,-2,-3,-2,0
1532142311324,-7,-6,-2,-5,-3,0,-1,-6
1532142311329,-1,4,1,2,2,0,2,-9
1532142311334,-2,-5,-5,0,-1,-2,-3,-1
1532142311339,4,4,1,-1,-1,-1,1,2
1532142311344,0,-8,-1,0,0,-2,-4,-3
1532142311349,1,-5,2,-2,-1,0,0,3
1532142311354,4,0,-4,1,-1,-1,-1,0
1532142311359,-8,4,1,-2,-2,-1,1,-3
1532142311364,8,5,-5,-3,-2,-2,-1,1
1532142311369,0,4,1,1,1,-1,-3,-2
1532142311374,-6,11,-1,-3,0,1,1,0
1532142311379,3,1,0,2,1,1,0,2
1532142311384,0,1,0,-2,-3,-2,1,3
1532142311389,-4,5,-6,-2,-2,1,0,-4
1532142311394,3,5,-2,-3,-3,-1,1,5
1532142311399,-3,-1,4,0,0,-1,-6,-8
1532142311404,-8,-11,0,0,-2,0,1,-1
1532142311409,11,8,0,2,1,-2,-1,1
1532142311414,-13,-16,-7,-3,-3,-1,-2,-3
1532142311419,0,-7,-1,-1,-1,0,0,2
1532142311424,-7,-5,1,-4,-1,-1,-1,-1
1532142311429,-10,-19,-7,-3,-2,-2,-1,-1
1532142311434,18,15,6,4,2,-2,-1,4
1532142311439,-14,-3,4,3,-1,1,0,-4
1532142311444,36,4,-2,0,-2,-4,-3,0
1532142311449,-18,-3,0,-6,-3,-1,1,1
1532142311454,-3,-24,-7,-1,0,-1,-1,-2
1532142311459,-6,-1,-1,-2,-2,0,-1,1
1532142311464,-4,7,3,2,1,0,0,4
1532142311469,13,1,-5,0,0,0,-1,-4
1532142311474,-9,-5,5,-1,0,-1,0,-1
1532142311479,-3,10,-1,0,-2,0,1,6
1532142311484,-11,-5,-1,-3,-3,2,-1,-9
1532142311489,26,3,-2,-1,0,-3,0,7
1532142311494,-7,2,-2,2,-1,0,-2,1
1532142311499,6,-2,1,-1,1,-2,-1,-5
1532142311504,-16,7,4,1,0,0,-1,1
1532142311509,5,-5,-1,3,0,1,0,-4
1532142311514,6,2,-4,-4,-2,0,-2,0
1532142311519,-3,1,1,1,0,-1,0,0
1532142311524,-7,-2,-5,-3,-1,-2,-4,-6
1532142311529,2,-5,1,-1,0,0,0,2
1532142311534,-1,-4,-5,-4,-3,-3,0,-1
1532142311539,34,4,-1,-4,-3,-2,-1,15
1532142311544,-40,-10,-1,5,3,0,0,-9
1532142311549,1,-6,3,0,-1,-1,-3,2
1532142311554,-4,5,2,2,3,2,-2,-6
1532142311559,-1,-3,-3,-4,-1,-1,2,2
1532142311564,26,-2,-3,-3,-2,-1,-1,6
1532142311569,-22,2,-1,-3,-3,-3,-5,-16
1532142311574,-3,9,0,-2,-1,-2,-1,2
1532142311579,0,-3,-4,0,0,0,-2,-5
1532142311584,8,3,-1,0,0,0,1,7
1532142311589,-4,1,3,3,1,0,1,1
1532142311594,-5,-4,-5,-1,-1,0,0,0
1532142311599,-6,8,5,0,0,-2,-3,4
1532142311604,4,0,6,-1,-1,2,-2,-5
1532142311609,-4,-12,-16,-4,-1,-1,-1,6
1532142311614,-2,8,4,1,0,-2,0,-11
1532142311619,-6,-9,-3,0,-2,-1,1,-2
1532142311624,0,14,7,-2,1,0,-3,2
1532142311629,-4,6,6,1,2,2,3,4
1532142311634,12,-10,-2,1,0,0,1,6
1532142311639,-6,3,-3,-2,-4,-2,-1,-14
1532142311644,4,-2,-6,-2,0,-1,0,-10
1532142311649,2,-4,-2,2,1,0,-3,-4
1532142311654,6,11,0,-1,1,0,1,3
1532142311659,-15,-11,-7,0,0,-1,-1,4
1532142311664,13,2,4,-1,-3,-2,1,4
1532142311669,-6,-3,-7,-3,-1,-1,-1,-7
1532142311674,4,9,8,0,0,0,1,2
1532142311679,-1,-14,-9,-2,-1,-2,-2,-3
1532142311684,-12,-1,-10,-4,-1,-1,1,3
1532142311689,-9,-1,2,0,0,1,-2,0
1532142311694,9,-6,-1,-3,-3,-1,-1,-1
1532142311699,6,6,10,5,-1,-2,-3,-2
1532142311704,-6,-6,1,4,0,0,1,0
1532142311709,14,6,-1,-3,-1,0,-1,-7
1532142311714,-9,-3,-4,-1,-1,0,-2,1
1532142311719,-18,-6,-7,-5,-1,-2,-2,-3
1532142311724,25,5,-1,-1,0,-1,-1,14
1532142311729,-11,-6,-1,2,-1,-1,0,-11
1532142311734,-2,-6,-2,0,-1,-1,-1,-1
1532142311739,9,16,9,1,-1,2,1,-3
1532142311744,-5,-11,-10,-1,-2,0,1,7
1532142311749,8,-4,-8,-5,-4,-3,0,6
1532142311754,-4,0,4,0,-2,-1,-3,-10
1532142311759,11,7,-2,-6,-1,0,1,3
1532142311764,-7,-6,3,3,-2,-1,-2,-5
1532142311769,4,5,7,2,0,-2,-1,4
1532142311774,-25,8,-2,0,2,1,0,-3
1532142311779,-7,-23,-5,-3,-1,-3,-6,-10
1532142311784,19,5,-2,-3,-1,-1,-1,-1
1532142311789,10,5,6,-2,-3,-1,1,1
1532142311794,8,1,-1,0,-1,-1,0,4
1532142311799,-13,1,0,-1,-1,2,1,-2
1532142311804,-11,-2,-2,-5,-2,-2,0,1
1532142311809,3,3,2,-1,-2,-3,-1,-3
1532142311814,1,-3,-2,3,2,-1,-2,5
1532142311819,7,4,-1,2,-3,1,-1,0
1532142311824,-1,0,-1,-1,0,-1,-1,-3
1532142311829,-10,0,-5,-2,-1,-1,0,-3
1532142311834,5,-11,-10,-4,-4,-1,-3,-7
1532142311839,8,-4,0,0,1,-1,2,7
1532142311844,15,17,3,-1,-1,-1,-3,-7
1532142311849,-3,-20,-10,0,-1,-2,2,3
1532142311854,-7,-9,0,-1,-2,-1,-1,-10
1532142311859,-1,3,0,-1,-2,-1,1,-1
1532142311864,-11,0,1,-2,-2,0,0,-1
1532142311869,0,8,4,1,-1,1,-1,3
1532142311874,2,-1,2,0,-2,-1,0,0
1532142311879,0,19,9,4,0,1,0,2
1532142311884,-10,-17,-5,-1,-3,-2,-1,0
1532142311889,14,3,-5,-4,0,1,-2,-2
1532142311894,7,8,3,-1,-1,-2,-1,3
1532142311899,4,3,2,-1,0,-3,-2,-1
1532142311904,-12,1,1,2,3,0,-3,-11
1532142311909,-8,-3,-2,2,-2,-2,-1,6
1532142311914,-10,-5,-2,0,-2,0,0,-2
1532142311919,-12,-7,-3,0,1,0,-1,0
1532142311924,2,8,-3,-2,-4,-3,-3,-1
1532142311929,-6,4,-2,-3,-1,-1,1,0
1532142311934,-3,-3,1,0,1,0,0,4
1532142311939,6,15,-3,-1,-1,-3,-2,-14
1532142311944,-29,-20,-5,-3,-1,-1,0,-2
1532142311949,-1,2,1,-1,0,-1,-2,1
1532142311954,-9,-4,-5,-3,-1,-2,-1,1
1532142311959,-5,-3,0,1,0,-1,-2,0
1532142311964,7,3,1,1,0,1,1,-2
1532142311969,6,4,4,0,-1,-1,-1,1
1532142311974,-6,-10,1,0,-1,0,1,-7
1532142311979,9,-5,-1,-3,1,0,-1,13
1532142311984,-5,57,7,1,-1,-2,-3,-2
1532142311989,13,-46,-6,1,0,-1,-2,-2
1532142311994,-1,-38,-8,-2,-1,-1,-3,4
1532142311999,-3,-1,-2,-3,1,-1,-1,-5
1532142312004,6,6,2,-3,0,-1,1,13
1532142312009,-10,-1,-3,-1,0,0,-3,-14
1532142312014,8,16,-1,-2,-2,-1,-1,2
1532142312019,5,5,4,1,1,-2,0,2
1532142312024,-3,-12,4,3,1,-2,-4,-15
1532142312029,-7,5,-2,-2,-2,-2,0,1
1532142312034,5,-23,-1,1,0,-1,1,5
1532142312039,-1,4,-3,-3,-1,0,-1,0
1532142312044,4,-10,-2,-1,-1,-1,-1,-5
1532142312049,-9,19,-3,-1,-1,-2,1,-3
1532142312054,0,13,2,0,0,-1,1,-2
1532142312059,-18,1,1,0,-1,-1,-1,5
1532142312064,14,0,0,2,1,-2,0,2
1532142312069,-2,-2,-1,-3,-1,0,0,-2
1532142312074,6,7,-1,0,1,0,1,7
1532142312079,-2,-1,-3,-3,-2,-1,-2,-8
1532142312084,-13,-8,0,-3,0,-1,-1,-4
1532142312089,-8,-5,-1,-4,-8,-1,1,-4
1532142312094,-3,19,2,2,2,1,1,4
1532142312099,-28,-25,-5,1,-1,-3,-4,-3
1532142312104,-16,-3,-6,-1,1,0,-1,-2
1532142312109,-8,-1,5,-1,2,1,0,4
1532142312114,-4,26,4,1,-1,-1,0,-1
1532142312119,-5,-25,-4,-2,-3,-4,-2,-4
1532142312124,-42,-9,-3,-1,-4,-1,2,4
1532142312129,-13,3,-3,2,0,-1,1,0
1532142312134,-39,-17,1,-3,-1,0,0,0
1532142312139,-37,3,3,1,2,1,1,-2
1532142312144,-12,4,-3,-3,-2,0,-3,1
1532142312149,6,24,6,4,2,-1,-4,0
1532142312154,17,-14,0,2,0,0,-1,-2
1532142312159,17,6,-2,-3,-3,1,1,1
1532142312164,48,3,-9,-4,-1,-3,-1,-2
1532142312169,11,-14,7,1,-1,0,2,-3
1532142312174,9,0,-2,-4,-2,1,2,-1
1532142312179,49,50,6,4,3,-1,-4,4
1532142312184,16,-18,1,4,-1,-1,1,-3
1532142312189,24,4,-5,-1,-1,-1,-1,2
1532142312194,4,-25,5,1,-1,-2,-1,-3
1532142312199,15,8,4,-2,-5,-3,-2,-8
1532142312204,9,12,-2,-5,-2,-3,-1,-1
1532142312209,3,3,-7,0,0,0,-1,1
1532142312214,-2,-12,-3,0,0,0,-2,2
1532142312219,-18,-33,-3,-2,-2,3,0,2
1532142312224,-1,-16,0,-6,-5,-2,-3,0
1532142312229,7,15,-9,0,0,-2,-4,-2
1532142312234,12,-5,-1,1,0,-2,-5,-5
1532142312239,28,34,3,1,4,1,0,1
1532142312244,18,18,-8,-2,0,-1,0,1
1532142312249,3,-42,0,-4,-4,-3,0,-1
1532142312254,21,27,-7,-5,-4,-1,-1,-2
1532142312259,-11,-53,-3,-6,-2,0,2,-3
1532142312264,14,22,3,5,0,0,-1,1
1532142312269,17,53,5,5,3,0,-4,-2
1532142312274,0,-3,5,1,3,0,2,4
1532142312279,-13,-35,2,0,-2,0,1,-2
1532142312284,-2,73,3,-3,-1,3,-2,0
1532142312289,4,-29,-5,-2,-3,-1,3,3
1532142312294,2,38,-4,-5,-3,-5,-5,-3
1532142312299,-8,-12,0,1,1,0,-2,-2
1532142312304,-16,-35,5,1,-1,-1,2,-2
1532142312309,-15,-6,-3,-2,-2,0,-2,-2
1532142312314,-12,-17,2,-1,1,2,0,1
1532142312319,2,14,-6,-5,-2,-1,-1,-1
1532142312324,-2,-23,-5,0,-3,-3,-2,-3
1532142312329,-7,12,8,2,4,-3,-2,-2
1532142312334,2,-5,7,-2,-1,2,2,1
1532142312339,14,0,-14,5,0,-6,-3,-1
1532142312344,-14,-12,-6,-3,2,4,0,0
1532142312349,3,-7,2,-1,-4,-1,0,-1
1532142312354,-22,-1,-2,-1,-2,-2,0,-3
1532142312359,30,22,5,0,-2,-1,-2,1
1532142312364,10,-13,0,-3,-4,-2,0,4
1532142312369,-1,12,10,8,8,5,1,0
1532142312374,-9,18,-3,-8,-4,-4,-1,-3
1532142312379,-6,0,-15,5,1,2,3,6
1532142312384,-14,-50,-24,1,0,-3,-4,5
1532142312389,-9,-2,-11,-7,-4,0,-3,-23
1532142312394,20,-9,3,2,1,-1,-2,0
1532142312399,-1,26,4,-5,-2,-2,-3,-5
1532142312404,12,7,5,1,2,2,3,10
1532142312409,-13,3,1,0,-3,-1,-2,6
1532142312414,-4,-14,-2,-1,0,0,-2,-4
1532142312419,1,1,1,-4,-3,-1,0,2
1532142312424,3,6,6,2,-1,1,0,-4
1532142312429,1,7,14,-3,-1,2,0,2
1532142312434,-8,-20,-25,-3,-3,1,-2,-3
1532142312439,-2,5,4,1,-1,-2,-2,-3
1532142312444,-14,-8,2,-2,-2,-2,-2,-6
1532142312449,3,-10,-7,-4,-6,-8,-1,-1
1532142312454,7,-2,1,3,1,1,1,5
1532142312459,2,13,12,3,3,2,0,-2
1532142312464,4,22,-2,-2,-2,3,2,-5
1532142312469,-10,-24,-4,-2,0,-2,0,2
1532142312474,10,-3,4,1,-5,-5,-2,0
1532142312479,-10,-4,-4,-7,-2,0,-1,-2
1532142312484,-22,-21,-9,-8,-5,-1,-1,-9
1532142312489,1,10,10,8,4,3,0,2
1532142312494,-5,-10,-6,-3,-2,-3,-1,-3
1532142312499,0,-6,-3,-3,1,0,-1,-2
1532142312504,3,9,13,1,0,-1,0,2
1532142312509,-6,-9,-14,-5,-3,2,1,2
1532142312514,4,4,1,0,3,-1,-1,11
1532142312519,-7,-6,-3,0,-3,-3,-3,-12
1532142312524,2,2,-1,-1,1,-4,-1,-3
1532142312529,3,-1,-5,-3,-2,-3,4,7
1532142312534,10,18,11,4,2,3,-3,13
1532142312539,-18,-6,-3,-3,-2,-2,-8,-33
1532142312544,-4,-2,-3,1,-1,0,-1,-4
1532142312549,7,6,3,0,1,0,5,12
1532142312554,30,41,4,3,-3,-1,10,39
1532142312559,-56,-73,-17,-7,-2,-2,-20,-44
1532142312564,-2,0,-2,-2,-2,-2,-4,-4
1532142312569,-2,1,-10,-4,-4,-5,-4,-7
1532142312574,3,12,20,10,3,-2,-1,10
1532142312579,25,2,-6,2,0,1,3,15
1532142312584,0,-6,-2,-1,2,2,1,-3
1532142312589,-7,-16,-9,-1,1,1,-3,0
1532142312594,-3,3,-2,-6,-2,-1,-1,-12
1532142312599,2,15,7,2,0,-1,3,6
1532142312604,-6,-8,-2,-3,-2,0,-2,-8
1532142312609,4,11,-2,-1,2,0,0,5
1532142312614,-16,-19,-9,-3,0,-1,-1,-17
1532142312619,6,7,9,2,0,1,6,18
1532142312624,6,-2,-5,-3,-1,2,-2,-1
1532142312629,-3,0,6,3,-3,-2,-4,-6
1532142312634,-13,-4,-8,-5,-5,-1,-2,-17
1532142312639,7,-8,-2,-2,0,-1,2,12
1532142312644,6,8,7,5,5,1,0,9
1532142312649,-4,0,1,-1,-2,-3,-3,-2
1532142312654,-14,-14,-9,-3,1,-1,-5,-16
1532142312659,5,26,11,2,-4,-1,3,11
1532142312664,1,2,6,5,5,0,1,0
1532142312669,-14,5,1,1,1,1,-1,-7
1532142312674,6,-39,-12,-6,-10,-7,-3,1
1532142312679,10,39,-2,-1,1,3,4,8
1532142312684,0,-2,5,2,0,-1,-3,-2
1532142312689,-1,0,1,-3,-2,-2,0,-1
1532142312694,-5,9,6,1,2,-2,-1,-4
1532142312699,-8,-29,-6,-4,7,10,5,0
1532142312704,-4,-2,-6,-6,-11,-5,4,-2
1532142312709,9,26,0,-1,4,-2,-2,0
1532142312714,-5,-33,0,4,1,0,-5,-6
1532142312719,1,-8,0,1,1,2,-1,2
1532142312724,-1,4,-1,-3,0,-1,0,3
1532142312729,-5,-21,-2,-4,-4,1,-1,-3
1532142312734,-4,20,-12,-8,-1,0,3,-6
1532142312739,10,21,25,3,-1,-4,-3,5
1532142312744,-11,-9,-10,4,0,-2,-4,-1
1532142312749,1,-11,-1,1,-2,-2,-5,-2
1532142312754,-3,7,0,0,2,1,-2,-2
1532142312759,-4,-13,-8,-3,-6,-3,0,2
1532142312764,-2,2,4,-6,-1,-1,1,-1
1532142312769,-1,19,28,3,1,4,2,-1
1532142312774,-3,-45,-44,-2,-1,0,-2,0
1532142312779,-5,1,1,-4,-3,-1,0,-3
1532142312784,5,4,-12,1,2,-3,-3,0
1532142312789,-2,-5,-1,-4,1,-1,0,0
1532142312794,-11,23,19,1,-2,-1,1,-1
1532142312799,-5,-24,-7,-1,-3,-3,-2,1
1532142312804,4,-15,0,-5,0,0,-1,4
1532142312809,-6,-4,-3,0,-2,0,1,-2
1532142312814,-2,21,22,4,3,1,0,-6
1532142312819,4,-4,-19,-1,1,-2,-1,2
1532142312824,-3,1,3,-1,0,0,-2,-7
1532142312829,3,-4,-7,-1,-1,-3,-1,1
1532142312834,6,2,-6,0,-2,2,-1,2
1532142312839,-25,6,4,0,-1,-3,0,-1
1532142312844,24,5,4,1,-1,-2,0,3
1532142312849,-6,-4,-7,-4,-4,2,2,-1
1532142312854,11,3,2,-2,-1,-1,-3,-4
1532142312859,18,6,0,0,2,-2,1,2
1532142312864,-37,-10,-7,-4,-4,0,-3,-9
1532142312869,27,-5,-5,1,1,-2,0,4
1532142312874,0,15,13,6,6,2,-1,4
1532142312879,10,-11,-1,-1,-1,1,-1,2
1532142312884,-21,14,-2,1,-2,0,0,0
1532142312889,15,-9,-4,-3,-2,2,2,3
1532142312894,-15,-15,-6,-6,-4,-1,0,-2
1532142312899,32,29,3,1,1,-3,-2,-1
1532142312904,-19,3,8,2,1,-1,0,3
1532142312909,7,-13,-8,-4,-4,-4,-5,-7
1532142312914,22,-2,3,1,1,-2,1,2
1532142312919,-54,-4,-3,-2,-3,0,-3,-9
1532142312924,26,-4,-1,0,-1,-2,-1,3
1532142312929,29,14,-2,-2,2,2,2,3
1532142312934,-97,-13,-2,-3,-4,-3,-4,-12
1532142312939,27,26,0,-1,-1,-3,3,1
1532142312944,21,-12,-3,0,0,-1,-2,3
1532142312949,5,-1,2,2,1,1,-2,0
1532142312954,23,10,1,-2,1,3,2,3
1532142312959,-22,-10,1,0,-2,1,-2,-2
1532142312964,28,-3,-5,-4,-4,0,1,1
1532142312969,-50,15,2,2,0,1,-3,-4
1532142312974,10,-2,1,-1,1,-1,2,0
1532142312979,-8,-24,-10,-4,-5,-2,-4,-7
1532142312984,-14,5,3,4,0,-3,-1,-3
1532142312989,-15,-13,-10,-5,0,-3,-5,-2
1532142312994,17,50,6,2,-2,-1,2,6
1532142312999,56,-11,-4,-5,-2,1,0,6
1532142313004,23,-20,-2,-1,-5,-2,-1,1
1532142313009,25,26,7,7,5,1,0,4
1532142313014,-30,-9,-1,-2,0,0,-2,-2
1532142313019,-30,-27,-6,-4,-1,-1,-1,-6
1532142313024,10,3,6,1,-3,2,4,4
1532142313029,-15,-13,1,1,0,8,13,-5
1532142313034,32,-12,-4,3,0,-5,-3,4
1532142313039,1,31,5,1,-2,0,0,-4
1532142313044,-29,-15,-1,-1,1,-2,-6,-2
1532142313049,14,-17,-4,-1,1,3,36,7
1532142313054,69,20,-1,1,2,2,-56,-15
1532142313059,-71,-42,6,5,0,4,6,-2
1532142313064,2,65,-8,-5,-6,-11,-36,-9
1532142313069,-6,10,2,0,0,-4,-8,2
1532142313074,62,-10,-1,-3,-2,0,3,1
1532142313079,-10,18,-5,-1,0,-2,-2,5
1532142313084,-11,-2,-1,-1,4,1,-33,-13
1532142313089,-24,11,-2,-1,-2,-9,16,6
1532142313094,-51,-2,-1,0,-3,3,-35,-1
1532142313099,-5,-11,-5,-3,-5,1,12,-21
1532142313104,1,4,1,-1,1,-6,-21,0
1532142313109,0,-13,-2,-1,-2,5,5,-1
1532142313114,-20,-10,5,1,-3,-7,3,0
1532142313119,-9,54,2,0,1,-2,9,6
1532142313124,-30,-69,-14,-7,-4,-1,7,2
1532142313129,6,-16,-5,0,-1,-1,-14,-12
1532142313134,-39,-11,3,0,0,3,44,13
1532142313139,10,19,2,-1,0,-3,-18,3
1532142313144,62,0,11,8,4,1,11,-33
1532142313149,-30,-13,-14,-6,-6,-4,-21,2
1532142313154,-41,-14,-6,-3,-1,-2,19,10
1532142313159,43,9,5,4,3,0,-15,8
1532142313164,-2,-3,7,4,3,3,16,6
1532142313169,10,-10,-3,-4,-3,1,-6,-11
1532142313174,0,1,-6,-2,1,0,6,-7
1532142313179,17,37,5,0,-2,-1,-3,14
1532142313184,3,3,-1,-3,0,4,21,20
1532142313189,7,9,5,0,0,-3,-11,-9
1532142313194,17,-5,1,2,-2,4,40,-16
1532142313199,4,-7,-3,-1,1,-1,-54,-13
1532142313204,-18,5,-3,-1,0,3,10,-1
1532142313209,5,-10,1,0,-1,1,-8,-1
1532142313214,-13,-8,-4,0,2,3,18,32
1532142313219,75,4,4,3,4,3,17,-12
1532142313224,-54,13,-3,-4,-4,-3,-15,-18
1532142313229,59,-1,-1,-5,-10,-9,-23,-2
1532142313234,10,11,1,-1,-1,0,-2,-1
1532142313239,-14,-14,-2,-1,-1,-1,16,10
1532142313244,49,9,4,0,4,7,13,31
1532142313249,-44,2,0,2,3,-1,9,2
1532142313254,12,-7,-6,-7,-5,-9,-19,-6
1532142313259,-20,-9,-3,1,6,-4,23,10
1532142313264,14,3,4,0,-9,3,18,-11
1532142313269,-27,10,-3,-2,1,0,-9,7
1532142313274,-7,7,-4,-3,-2,0,-2,-8
1532142313279,-25,-7,1,1,-2,-2,-5,-6
1532142313284,-51,-29,-7,-3,-1,-2,-3,-7
1532142313289,34,25,5,3,1,0,7,6
1532142313294,-13,-4,4,1,0,3,-4,2
1532142313299,42,-24,-7,-5,-4,-4,5,3
1532142313304,-21,24,6,1,3,3,25,18
1532142313309,60,9,3,2,6,12,-31,14
1532142313314,7,-31,6,9,6,-2,-4,-6
1532142313319,-32,20,-2,-3,-5,-7,-9,-9
1532142313324,4,-3,-3,1,36,-7,20,14
1532142313329,-21,-9,-3,-5,-46,-7,-42,-23
1532142313334,8,15,0,-3,-24,1,1,-6
1532142313339,-10,-3,3,0,0,3,-5,8
1532142313344,-20,-10,-4,-1,-13,1,-14,-9
1532142313349,0,0,2,4,30,-5,19,0
1532142313354,-20,12,-4,-3,8,5,-4,-3
1532142313359,28,-26,-7,-6,-18,-7,-4,1
1532142313364,38,6,-2,-1,5,3,-6,12
1532142313369,45,10,4,-1,4,4,16,-10
1532142313374,26,13,-1,4,0,-1,-6,1
1532142313379,-25,-6,-3,-1,11,3,11,-1
1532142313384,4,3,0,0,-4,-4,-20,-20
1532142313389,-94,-15,-3,-5,-6,-13,-4,-55
1532142313394,41,28,5,2,0,-1,16,37
1532142313399,2,5,-1,-3,-9,1,-2,6
1532142313404,-6,-13,-6,-4,1,-3,-16,-52
1532142313409,-16,-1,2,3,-13,0,-2,10
1532142313414,55,-10,-3,-5,4,-1,2,-1
1532142313419,-21,-15,-4,-2,-5,-4,0,3
1532142313424,9,15,3,1,28,2,14,36
1532142313429,48,7,-2,-3,-16,10,16,24
1532142313434,-45,-26,-1,-2,0,-1,-6,-9
1532142313439,36,14,1,2,1,0,-1,-7
1532142313444,-9,-4,-2,-4,-12,-5,-6,-13
1532142313449,14,-6,-4,-3,13,-3,17,18
1532142313454,-32,-25,-2,-3,1,9,-3,26
1532142313459,-60,-3,-1,-1,0,-10,-34,-110
1532142313464,22,19,-9,-6,-15,-7,4,18
1532142313469,17,-11,0,-1,4,-7,-13,-16
1532142313474,-13,10,-10,-6,-12,0,16,15
1532142313479,24,-22,0,2,15,10,10,30
1532142313484,-48,-14,1,1,-10,7,0,16
1532142313489,-73,3,2,0,5,5,19,18
1532142313494,20,-6,1,2,2,-5,-12,-16
1532142313499,-68,18,0,-1,-4,-5,2,10
1532142313504,45,-24,40,6,-5,2,5,18
1532142313509,-5,21,-16,5,4,4,6,8
1532142313514,-11,-1,-29,-12,2,-5,-14,-8
1532142313519,-59,-1,-6,2,-7,-4,-9,-13
1532142313524,-33,-14,-9,-9,-13,-11,1,11
1532142313529,23,4,20,6,10,4,-12,-24
1532142313534,-34,-2,12,5,-3,-6,0,-17
1532142313539,-34,-8,4,-7,2,4,17,25
1532142313544,56,3,-4,3,0,2,2,4
1532142313549,40,1,-15,1,2,-1,6,28
1532142313554,-1,-23,-32,4,2,-1,-4,-23
1532142313559,-56,-41,-43,-11,-2,-3,-15,-2
1532142313564,-65,-4,-9,1,0,2,0,-45
1532142313569,-43,-18,-24,-6,-7,1,-2,-1
1532142313574,-23,7,-2,0,12,13,9,14
1532142313579,32,28,68,2,-4,-9,-5,-9
1532142313584,-2,-6,-38,-4,-13,-20,-18,-17
1532142313589,28,6,7,-4,2,-1,2,2
1532142313594,-14,8,55,-2,-4,5,1,-6
1532142313599,-34,23,44,3,3,1,5,22
1532142313604,6,17,-14,4,-4,-1,-2,5
1532142313609,-8,-26,-27,-9,-3,-8,-4,-11
1532142313614,16,8,5,4,4,0,-1,4
1532142313619,9,18,12,6,5,10,5,10
1532142313624,29,66,127,7,2,8,7,5
1532142313629,-2,34,13,4,-7,-5,8,6
1532142313634,-34,-32,-85,-12,-7,-17,-22,-17
1532142313639,30,-60,-47,-6,-2,-1,-1,-6
1532142313644,3,6,-33,-3,3,10,4,7
1532142313649,15,-8,53,2,-1,-12,-7,-2
1532142313654,1,48,11,16,1,4,10,5
1532142313659,38,-26,-71,-10,0,-3,-3,7
1532142313664,8,0,-22,-6,1,2,-2,-2
1532142313669,12,-13,8,-8,0,4,-1,-6
1532142313674,14,15,15,-7,-8,-7,-1,-8
1532142313679,3,1,28,4,1,2,4,-2
1532142313684,62,-13,2,16,5,7,0,13
1532142313689,13,-24,-54,-5,3,-1,-2,-4
1532142313694,24,49,29,4,-2,-1,0,3
1532142313699,18,0,-18,8,1,0,1,6
1532142313704,25,5,-3,-12,-4,-3,0,7
1532142313709,-18,-24,-24,7,3,2,0,0
1532142313714,7,6,68,-5,-1,1,2,-2
1532142313719,27,-13,-36,0,-3,0,1,0
1532142313724,0,47,19,1,-4,-6,-9,-12
1532142313729,-22,-14,8,5,1,4,4,8
1532142313734,-21,-13,-34,-18,-3,-3,-10,-10
1532142313739,16,5,46,2,-3,0,7,11
1532142313744,-28,-81,-52,-1,1,0,-4,-13
1532142313749,2,5,-10,-7,-3,-4,-2,0
1532142313754,73,73,33,-2,-2,-2,5,19
1532142313759,2,26,33,0,0,3,2,-6
1532142313764,-24,-70,-29,-2,-2,-4,-1,4
1532142313769,5,22,4,-1,0,2,-2,-9
1532142313774,-3,-7,-11,11,2,-1,0,-1
1532142313779,3,-1,-4,0,-2,-2,1,8
1532142313784,-3,-15,20,4,2,4,3,3
1532142313789,5,53,24,4,1,-2,-5,-1
1532142313794,-8,-8,-2,-3,-1,-1,2,0
1532142313799,16,47,-12,2,-3,-1,-2,-3
1532142313804,8,53,36,4,5,2,5,12
1532142313809,-25,-98,-24,-4,-4,-4,-6,-8
1532142313814,1,-13,-18,3,4,-1,-3,-5
1532142313819,11,-5,19,-7,-5,-1,3,0
1532142313824,7,-4,-28,-4,-3,1,1,0
1532142313829,-1,24,-12,-6,-1,-2,-3,4
1532142313834,2,-10,10,6,0,-2,-2,-3
1532142313839,-8,-59,6,2,-1,-2,-3,-3
1532142313844,-3,57,-2,-3,-3,0,-7,-1
1532142313849,9,16,5,-1,-2,-1,14,5
1532142313854,-19,-22,-11,-5,-3,3,2,-8
1532142313859,-17,26,2,4,3,-1,0,0
1532142313864,6,-4,-31,-1,-2,-2,-7,0
1532142313869,-2,-34,14,2,-1,2,-5,-4
1532142313874,-8,-39,3,2,1,0,-1,0
1532142313879,4,4,-9,-3,-1,-3,13,6
1532142313884,-6,46,21,-5,-3,4,-21,-7
1532142313889,-7,-15,-25,-7,-2,0,-2,2
1532142313894,-4,15,2,3,1,-1,-5,-7
1532142313899,0,-38,-16,3,1,-3,1,1
1532142313904,-5,1,0,3,0,1,4,0
1532142313909,-5,7,19,1,2,0,6,-6
1532142313914,-13,-15,-9,-5,-4,-15,-11,-4
1532142313919,11,48,-13,-10,-10,6,-5,-6
1532142313924,1,-9,0,-4,6,-10,11,-2
1532142313929,-4,30,36,3,-3,0,1,0
1532142313934,-15,-65,-27,1,3,6,8,-2
1532142313939,11,53,1,2,2,-6,-13,-1
1532142313944,-7,-12,12,5,6,0,0,2
1532142313949,6,-1,-7,-6,-12,2,3,4
1532142313954,-6,-10,8,0,4,-26,-3,-7
1532142313959,-8,0,12,-2,-8,29,-2,-6
1532142313964,-8,-21,-26,-10,-4,3,4,0
1532142313969,1,-9,0,3,3,-2,-3,-2
1532142313974,1,34,5,-1,-2,5,-3,-3
1532142313979,-3,-50,-19,-9,0,-13,-3,-2
1532142313984,3,62,7,0,3,0,1,-2
1532142313989,-8,-44,11,7,2,3,4,-5
1532142313994,5,1,-8,0,-11,0,5,5
1532142313999,4,10,4,2,8,-8,11,3
1532142314004,-3,-9,3,0,-4,3,-5,1
1532142314009,-8,12,-7,0,3,-3,6,-5
1532142314014,3,-20,-11,-6,-1,7,-18,0
1532142314019,1,10,10,6,1,1,-7,-8
1532142314024,-8,-33,-5,-5,-5,-4,15,-3
1532142314029,-5,8,-18,-10,-1,-6,-23,1
1532142314034,0,-51,2,1,-1,3,2,-5
1532142314039,9,5,-7,0,0,7,0,4
1532142314044,3,-5,-6,-4,-3,-11,4,-1
1532142314049,9,9,5,4,2,-2,1,3
1532142314054,12,20,12,2,2,7,-3,0
1532142314059,-1,-2,-10,0,-4,2,67,0
1532142314064,10,-36,-13,-9,-7,0,-19,-6
1532142314069,26,14,1,0,-2,0,8,3
1532142314074,-31,10,3,5,2,-1,2,1
1532142314079,10,-2,2,0,6,-3,-16,-3
1532142314084,-5,-29,1,6,4,-6,1,2
1532142314089,27,21,9,-3,-1,-1,0,6
1532142314094,-16,-5,-24,-14,-5,-2,-5,-13
1532142314099,8,16,13,6,-12,-8,-13,4
1532142314104,-9,-16,-3,-4,-9,3,-3,-1
1532142314109,16,30,3,5,16,9,-1,3
1532142314114,31,-16,4,2,5,-3,-2,1
1532142314119,-21,-35,-18,-7,-12,-14,-20,0
1532142314124,-21,5,6,0,3,9,-6,-3
1532142314129,-17,-39,-2,1,-2,5,-25,1
1532142314134,-14,9,-8,-8,-8,-7,30,-5
1532142314139,73,-4,1,1,7,0,-18,4
1532142314144,127,-11,-6,0,0,2,13,4
1532142314149,88,48,1,-1,-2,-13,-37,-10
1532142314154,29,-49,1,-1,-4,-2,-11,4
1532142314159,87,-4,-9,-4,1,-3,-3,0
1532142314164,97,32,3,6,5,2,-5,-2
1532142314169,93,-12,1,2,-10,-3,-7,-1
1532142314174,47,27,9,1,-5,13,30,5
1532142314179,-81,-13,-11,-5,20,0,0,-2
1532142314184,-95,2,5,-4,-12,0,3,1
1532142314189,-104,44,0,0,1,3,15,-2
1532142314194,-74,17,12,9,-2,-1,-12,-1
1532142314199,-85,14,7,4,-13,4,21,1
1532142314204,-61,-47,-7,1,25,1,-26,-10
1532142314209,-53,-33,-8,-9,-5,-9,13,5
1532142314214,-19,51,-7,-1,2,2,-7,-3
1532142314219,-28,23,7,-2,-6,-2,1,4
1532142314224,-42,-17,3,-1,-3,2,8,1
1532142314229,-62,15,-5,-3,-7,8,8,-3
1532142314234,-43,-67,0,10,-1,-9,-23,1
1532142314239,-30,30,-3,-2,5,3,7,-7
1532142314244,-52,22,2,-6,7,-8,-1,5
1532142314249,-51,3,2,4,2,1,10,1
1532142314254,-24,-11,-6,-6,-1,0,6,1
1532142314259,-30,-3,7,3,-8,-6,-14,-3
1532142314264,-35,0,-4,-2,-8,-3,-9,-3
1532142314269,-22,-33,-13,-3,5,-2,40,-5
1532142314274,-3,7,-2,3,6,18,36,4
1532142314279,-10,12,-1,-7,-16,-19,-66,-11
1532142314284,-8,10,2,1,-5,-4,10,10
1532142314289,-5,-9,11,6,-2,1,-13,-12
1532142314294,1,47,3,-1,2,-3,17,2
1532142314299,1,-17,-1,0,3,1,-1,-1
1532142314304,-5,-25,-6,-4,-16,-4,-3,-3
1532142314309,-5,-28,-15,-10,-4,-1,-1,12
1532142314314,5,16,-3,2,-5,3,-10,-9
1532142314319,-5,-19,7,2,27,8,11,-1
1532142314324,0,19,3,4,-14,-7,-24,-5
1532142314329,-1,-7,-4,-5,-5,-2,25,0
1532142314334,11,-4,0,-6,-6,-7,-1,4
1532142314339,0,-9,-18,-5,-5,5,37,3
1532142314344,-1,-39,5,1,-1,0,-9,-4
1532142314349,2,23,10,4,0,1,-3,-1
1532142314354,8,28,1,-2,-9,-2,-20,2
1532142314359,7,6,2,1,3,-9,-4,-3
1532142314364,5,-16,-3,-3,14,13,45,10
1532142314369,4,-13,1,-2,-9,-1,-13,-1
1532142314374,1,8,-7,-2,1,-7,-14,-3
1532142314379,-1,6,2,-2,1,5,2,3
1532142314384,-1,-15,-5,-4,3,-2,2,-9
1532142314389,3,4,-5,3,-10,-3,-17,-3
1532142314394,5,-9,-1,-2,6,3,4,0
1532142314399,1,-15,3,6,17,4,-6,-2
1532142314404,3,7,-7,-4,-19,-7,-2,0
1532142314409,1,-7,-6,2,10,0,-1,1
1532142314414,10,16,13,4,-6,1,-6,-1
1532142314419,6,-29,-2,-1,-4,-3,-6,0
1532142314424,-3,41,9,0,1,1,-1,3
1532142314429,13,48,-6,-5,-1,0,2,0
1532142314434,6,-54,-19,-9,-4,-5,-7,-14
1532142314439,9,3,3,-1,-4,-1,-3,1
1532142314444,5,5,-2,1,0,-1,-1,-11
1532142314449,4,9,12,1,7,2,-2,15
1532142314454,4,15,1,-2,-3,-3,-5,-2
1532142314459,3,-4,-2,-3,-4,4,1,-14
1532142314464,5,-2,-7,-1,8,-5,-5,4
1532142314469,3,-2,3,5,4,-2,-4,-5
1532142314474,4,0,4,2,1,-2,0,8
1532142314479,-3,-3,4,2,3,-6,0,1
1532142314484,9,13,-9,-6,4,8,18,2
1532142314489,3,-44,-2,-4,-7,2,-33,-16
1532142314494,7,-6,3,5,0,-1,-9,0
1532142314499,5,-50,-8,-8,-2,1,5,-1
1532142314504,32,13,-13,-4,-13,-5,-5,-4
1532142314509,13,7,-4,5,-6,0,5,6
1532142314514,1,2,21,12,9,2,0,-3
1532142314519,-10,14,6,3,-12,-3,1,2
1532142314524,-21,-6,3,-2,20,4,-4,5
1532142314529,-14,-22,-15,-10,-3,1,3,-7
1532142314534,-8,-10,-12,-4,-7,-3,-4,-3
1532142314539,-11,-3,8,2,2,0,3,-2
1532142314544,-11,7,4,-2,5,-1,-2,14
1532142314549,-8,4,-5,-2,-9,-2,-5,-11
1532142314554,-10,2,4,5,-4,-3,-3,-9
1532142314559,-5,-4,-5,-1,6,-2,2,-1
1532142314564,-8,-4,-11,-5,2,-1,0,-6
1532142314569,-6,1,4,0,3,-6,-4,6
1532142314574,-5,-8,1,0,0,4,1,4
1532142314579,-4,4,-5,-3,0,-5,-3,-1
1532142314584,-3,-2,-1,-4,-4,1,-1,-3
1532142314589,-6,-5,-3,-2,2,2,2,2
1532142314594,3,0,-1,1,-3,-1,-4,-1
1532142314599,1,6,6,6,21,5,3,2
1532142314604,-3,5,2,-2,-22,-12,1,-2
1532142314609,-3,-6,3,-3,-6,-1,-6,-5
1532142314614,0,5,-5,-4,-5,1,0,0
1532142314619,-1,-16,-5,-4,8,0,-4,1
1532142314624,0,-14,-5,1,3,-1,4,-7
1532142314629,4,-3,5,2,3,1,-4,3
1532142314634,0,0,-10,-6,-3,-2,-3,-4
1532142314639,-110,14,-1,0,-2,-1,3,-4
1532142314644,-123,2,8,0,0,4,4,0
1532142314649,-110,-7,-2,-1,-2,5,5,-4
1532142314654,-34,0,1,-1,2,1,3,4
1532142314659,93,2,-2,-5,-7,-3,-1,8
1532142314664,71,-2,-8,-2,1,-2,-5,-11
1532142314669,87,1,-1,2,2,0,-3,8
1532142314674,8,-3,2,0,0,-4,-4,-3
1532142314679,22,-3,-5,-4,-9,-6,-6,-2
1532142314684,51,1,-1,2,1,-1,-4,2
1532142314689,57,6,-2,1,2,-4,-3,1
1532142314694,75,-5,2,1,1,-5,-4,1
1532142314699,79,-4,-2,-2,-3,0,-2,0
1532142314704,81,8,0,1,3,2,-1,0
1532142314709,72,-8,-2,-2,-1,0,1,-1
1532142314714,63,3,0,0,0,-1,1,2
1532142314719,37,0,-4,-4,-3,0,-1,-3
1532142314724,35,3,0,0,1,0,-1,-2
1532142314729,22,5,2,1,0,-1,1,4
1532142314734,9,-6,-5,-6,-2,-3,-3,-1
1532142314739,4,-1,2,1,-1,-1,0,-4
1532142314744,2,1,-2,0,-3,-1,-1,1
1532142314749,-8,-7,4,0,0,-1,1,-1
1532142314754,-9,4,-8,-2,-1,-1,-1,-2
1532142314759,-9,0,3,-1,-3,-2,0,-3
1532142314764,-4,-7,-3,0,0,-2,-1,-1
1532142314769,1,-3,0,-3,0,-1,0,-2
1532142314774,8,-1,3,0,2,0,0,7
1532142314779,38,0,-4,-2,-3,0,0,-3
1532142314784,28,1,2,0,-1,1,1,0
1532142314789,12,-2,-2,0,0,0,-1,1
1532142314794,-6,-2,-1,-1,-2,-2,-2,0
1532142314799,-22,7,-1,0,-2,-3,-1,1
1532142314804,-22,-3,1,1,1,0,-1,-3
1532142314809,-25,-1,-3,0,1,0,0,0
1532142314814,-30,-1,-1,-3,-2,-3,-2,-1
1532142314819,-37,-1,0,-2,-1,-2,0,-2
1532142314824,-31,2,-3,-3,-3,1,0,-2
1532142314829,-29,2,2,1,0,0,-1,-1
1532142314834,-20,-3,0,0,0,2,2,-4
1532142314839,-19,3,1,1,1,1,0,-2
1532142314844,-19,-2,-1,-1,0,-2,-1,0
1532142314849,-15,-2,-2,-2,-2,-1,-1,1
1532142314854,-10,0,3,0,-1,1,0,-1
1532142314859,-11,-4,-4,1,-2,-1,-1,-2
1532142314864,-10,3,2,1,1,0,1,2
1532142314869,-6,5,1,1,-1,-3,0,1
1532142314874,-5,-10,-5,-3,-1,-1,-2,-4
1532142314879,-8,-4,-6,-2,-2,-1,-1,1
1532142314884,-5,-3,-2,-1,-1,1,1,0
1532142314889,-2,1,-2,-1,0,-1,-2,0
1532142314894,0,0,1,0,-2,-4,0,1
1532142314899,0,0,1,0,0,0,-2,0
1532142314904,-1,-4,-6,-2,-2,-1,-2,-2
1532142314909,1,2,1,-1,-1,0,-1,-2
1532142314914,1,0,2,2,1,0,-1,0
1532142314919,1,-6,-2,-1,-1,0,-1,-1
1532142314924,0,-1,-2,-1,-1,-2,-1,-1
1532142314929,1,-5,-4,-2,1,-2,0,-1
1532142314934,0,4,2,0,-1,0,0,-1
1532142314939,0,3,-1,0,0,0,-1,1
1532142314944,-1,-2,-3,-1,-1,0,1,0
1532142314949,0,0,0,-1,-1,1,0,-1
1532142314954,0,-1,2,0,-1,-1,0,-1
1532142314959,1,-2,-3,-1,-1,0,-1,-1
1532142314964,1,3,5,0,0,-2,0,0
1532142314969,3,0,1,0,0,-1,-1,-1
1532142314974,3,-3,-2,0,1,0,-1,-1
1532142314979,1,-5,-2,-2,1,-1,0,0
1532142314984,0,1,-3,-3,-1,0,-1,-2
1532142314989,2,-4,-9,0,0,-1,0,-1
1532142314994,1,5,7,3,2,0,0,0
1532142314999,0,-1,-2,-5,-3,-6,-1,-5
1532142315004,2,3,0,2,1,1,0,0
1532142315009,-1,-6,3,0,-3,-5,0,-2
1532142315014,0,-8,-11,-5,-5,-1,-2,-2
1532142315019,-2,6,7,2,0,0,0,2
1532142315024,0,1,1,0,-1,-2,-2,0
1532142315029,-2,-1,0,-2,0,2,-1,1
1532142315034,2,-4,-2,1,1,0,-1,0
1532142315039,1,-2,-2,-1,-2,-3,0,-2
1532142315044,2,2,-3,-5,-1,2,0,-1
1532142315049,-4,-2,7,3,0,0,0,-2
1532142315054,-3,4,1,-2,-2,-3,-2,-2
1532142315059,-4,1,-1,0,0,0,-1,1
1532142315064,-1,-3,-4,0,0,-2,-1,-2
1532142315069,0,3,1,-1,-1,-1,0,-2
1532142315074,1,-4,0,-1,-2,2,0,1
1532142315079,-1,-5,0,-1,-2,0,-3,-2
1532142315084,-3,-2,-8,0,-2,0,-2,2
1532142315089,-2,3,-2,-3,-3,0,-1,0
1532142315094,-2,3,5,0,1,0,0,-1
1532142315099,-5,0,-1,0,1,-1,-1,-2
1532142315104,-4,-8,-4,-3,-2,-1,1,-1
1532142315109,-1,3,4,2,0,0,-2,-1
1532142315114,-2,1,-1,-1,0,-1,0,0
1532142315119,1,2,2,1,-1,-1,1,-1
1532142315124,-1,1,3,-1,-1,-3,-2,-2
1532142315129,-4,-5,-6,-5,-1,0,-1,-1
1532142315134,-2,4,-1,-1,0,1,-1,0
1532142315139,1,-12,-4,-3,-3,-4,-2,0
1532142315144,0,0,2,-2,-2,1,-2,-2
1532142315149,2,-4,-1,2,0,-2,-1,2
1532142315154,0,-2,-2,-2,-3,-1,-2,0
1532142315159,0,0,-3,0,1,2,-1,0
1532142315164,0,1,2,-1,1,-1,-1,-1
1532142315169,0,-1,-2,-1,-1,-1,1,-2
1532142315174,1,0,1,0,2,0,-1,-1
1532142315179,-1,1,0,1,0,1,0,-1
1532142315184,-1,-3,-5,0,0,-2,-1,0
1532142315189,-1,-6,-1,-1,-2,-1,-2,-4
1532142315194,3,-2,-1,-1,-1,-2,-1,0
1532142315199,0,-2,-7,-2,-2,-1,1,-1
1532142315204,-1,6,9,3,0,0,1,0
1532142315209,-2,2,-2,-1,1,1,0,2
1532142315214,1,-2,-2,-1,-1,-1,0,-1
1532142315219,1,-5,1,-4,-5,-5,-3,-1
1532142315224,-3,-9,-7,-2,-2,0,-2,0
1532142315229,0,4,4,1,1,-1,-1,0
1532142315234,1,-3,2,1,-1,0,-1,-1
1532142315239,1,3,-4,-1,2,1,0,0
1532142315244,0,-3,0,-1,-1,-2,-1,-2
1532142315249,-1,-3,-2,-2,-1,-1,0,-1
1532142315254,-4,0,-1,0,0,-1,-1,-1
1532142315259,-1,3,1,0,1,5,1,0
1532142315264,-2,-4,-2,-2,-2,-1,-2,-3
1532142315269,0,1,-3,0,-1,1,0,1
1532142315274,-2,1,1,0,-3,-2,0,-1
1532142315279,-3,-3,-2,-1,-1,-1,0,0
1532142315284,0,3,3,1,0,0,0,0
1532142315289,-2,-1,-3,-1,0,-2,-1,-3
1532142315294,-3,-3,-4,0,-1,0,-1,-2
1532142315299,-1,3,1,-1,0,-2,-2,-1
1532142315304,1,6,1,1,0,-1,0,-1
1532142315309,-4,-11,-5,-3,-4,-2,-1,-4
1532142315314,0,0,-5,-1,-1,0,-1,-1
1532142315319,0,5,10,3,0,1,1,0
1532142315324,4,-1,0,-1,1,-1,1,0
1532142315329,3,3,-1,1,-1,-1,-1,-2
1532142315334,3,1,1,-2,0,-2,-1,-1
1532142315339,0,-5,-6,-1,0,-2,-2,0
1532142315344,0,1,-1,-2,1,1,0,1
1532142315349,1,-4,1,1,-1,0,0,1
1532142315354,-1,-1,-2,-2,0,-3,0,2
1532142315359,0,-3,-5,-1,-1,-1,0,-2
1532142315364,-2,0,4,1,-2,0,-3,0
1532142315369,-16,0,-2,-1,0,-2,0,-1
1532142315374,-17,0,-1,-1,-1,-2,0,1
1532142315379,-4,-1,0,-1,0,0,-1,-1
1532142315384,1,-6,-3,-2,-2,-3,-1,0
1532142315389,7,-3,-4,-1,0,0,-2,-1
1532142315394,5,0,4,-2,-2,-2,-2,-1
1532142315399,-5,3,5,0,-1,-1,1,1
1532142315404,0,-6,-8,-3,1,-1,0,-1
1532142315409,3,1,0,-1,-2,-1,-1,-1
1532142315414,5,-2,-3,1,-1,1,0,-1
1532142315419,-3,7,-2,-2,-1,-1,-4,-6
1532142315424,-14,-5,0,1,-2,0,-2,-1
1532142315429,-6,4,2,-1,-1,0,-1,1
1532142315434,-35,-3,-2,0,1,0,0,-3
1532142315439,-22,-5,-3,-2,-2,-1,0,0
1532142315444,-1,3,2,0,-2,-1,0,1
1532142315449,3,-1,0,0,0,-2,-2,-1
1532142315454,22,-1,-1,-1,-1,-1,-2,-1
1532142315459,8,1,2,1,-1,-1,0,0
1532142315464,-111,-4,-4,-1,0,-2,-1,-2
1532142315469,-49,-2,-1,-1,-1,-1,0,-1
1532142315474,-29,-4,0,-3,-2,-1,1,-2
1532142315479,-2,-6,-4,-2,0,1,1,0
1532142315484,63,5,3,1,-1,-2,0,-2
1532142315489,48,1,-2,-2,-1,-2,-1,0
1532142315494,45,4,1,2,0,1,0,0
1532142315499,55,-7,-4,-1,0,-2,-2,-2
1532142315504,47,-3,-3,-1,-3,-1,0,-3
1532142315509,30,1,-1,1,1,-1,-1,0
1532142315514,32,-1,1,-1,0,-1,-1,-1
1532142315519,12,0,4,-2,-1,1,0,0
1532142315524,16,-1,-7,2,1,0,0,0
1532142315529,6,-3,6,-2,-4,-4,-2,-1
1532142315534,3,-2,-2,1,-2,1,-2,0
1532142315539,-19,1,0,-1,-2,-2,-1,-2
1532142315544,-27,0,-2,-3,-1,0,-2,-1
1532142315549,-12,-1,-2,1,0,1,2,1
1532142315554,-12,-2,-1,-3,-2,-1,-1,-1
1532142315559,10,-1,-1,1,-1,0,1,1
1532142315564,19,4,4,-2,-1,-2,0,0
1532142315569,-1,-1,-3,-1,0,1,-1,-1
1532142315574,0,-3,-1,-4,-1,-2,0,0
1532142315579,-15,0,-4,0,1,0,0,-1
1532142315584,-6,-2,-1,-2,-1,-1,-1,0
1532142315589,-8,-2,-1,0,0,-1,1,-2
1532142315594,-9,-1,-2,-1,1,-1,2,1
1532142315599,-8,-1,-2,-4,-1,-2,0,-3
1532142315604,-9,1,0,-1,-1,-3,-1,-2
1532142315609,-4,-1,-2,-2,-2,-1,-1,-1
1532142315614,-5,-2,-4,1,-1,-1,-1,-1
1532142315619,3,3,-2,-1,0,-1,-1,0
1532142315624,6,-1,5,0,1,-1,-1,-1
1532142315629,3,-1,-2,-1,0,-2,-1,-1
1532142315634,-1,-5,0,-1,-2,-2,-1,-2
1532142315639,3,4,2,0,-2,-2,0,1
1532142315644,10,-4,-4,-1,0,0,-2,-2
1532142315649,-1,0,0,-2,0,1,-1,0
1532142315654,-3,2,2,0,3,-1,-1,-2
1532142315659,-5,-6,-5,-3,0,-2,0,2
1532142315664,3,2,3,-1,1,0,1,-2
1532142315669,1,-1,-3,-1,0,-1,0,-1
1532142315674,-2,0,-3,-1,-2,0,-1,0
1532142315679,3,1,3,0,-1,0,-1,-2
1532142315684,4,1,-1,0,-2,-2,-1,1
1532142315689,0,1,0,0,-1,-1,1,0
1532142315694,-2,-4,-2,-2,-2,0,0,-1
1532142315699,-4,-3,-3,0,-1,0,1,-3
1532142315704,-7,-2,1,0,-1,0,0,-3
1532142315709,-9,-1,-3,-2,-1,0,-2,-4
1532142315714,-12,-2,0,1,0,-3,-1,-1
1532142315719,-10,0,3,1,0,0,-1,0
1532142315724,-6,-1,-3,-2,-1,-2,1,1
1532142315729,-2,-1,3,0,0,0,-1,-2
1532142315734,-1,-1,-3,-2,-2,0,-1,-1
1532142315739,-4,2,0,-1,0,0,0,0
1532142315744,-8,1,1,-1,-2,1,-1,1
1532142315749,-4,-3,-2,0,-1,-2,-1,-1
1532142315754,0,-4,-3,-3,-1,-2,-1,-1
1532142315759,-1,4,2,0,0,-1,-2,-1
1532142315764,-5,-4,1,-1,-2,-1,-2,-3
1532142315769,-4,-7,-6,-3,-1,-2,1,-2
1532142315774,-7,-2,-3,2,0,0,-1,0
1532142315779,-3,2,4,1,-2,-1,0,0
1532142315784,2,0,0,-1,-1,0,1,-1
1532142315789,2,-1,-5,0,-1,-2,-1,-3
1532142315794,4,3,4,1,1,-1,-1,0
1532142315799,0,-3,-2,-1,-1,0,0,-1
1532142315804,-19,0,-1,0,0,-1,-2,0
1532142315809,-4,-2,-4,-1,0,0,-2,1
1532142315814,5,0,0,-2,0,-1,0,-1
1532142315819,8,1,2,0,0,-1,0,-1
1532142315824,11,-2,0,-1,-1,-1,-1,1
1532142315829,2,-1,-3,0,0,1,0,2
1532142315834,1,2,1,-2,-2,0,0,-1
1532142315839,4,-5,-3,0,0,-2,-3,-2
1532142315844,1,-6,-3,-3,0,-1,1,-4
1532142315849,-5,0,1,0,0,-1,-1,-2
1532142315854,1,0,1,-1,-1,0,-2,-1
1532142315859,-2,0,-2,0,-1,-1,-1,0
1532142315864,0,4,0,-2,-1,-1,0,1
1532142315869,1,-7,-2,-1,0,-1,-1,-2
1532142315874,-1,4,4,1,-1,-1,-1,-1
1532142315879,-5,-4,-4,-4,-2,-1,-1,-1
1532142315884,1,3,0,2,1,-1,-1,1
1532142315889,0,3,3,0,-1,0,-1,-1
1532142315894,-1,-7,-7,-2,0,-1,-2,0
1532142315899,-1,-3,-2,-2,-1,-1,0,0
1532142315904,2,0,1,1,1,0,-2,-1
1532142315909,-1,-1,-2,-2,-2,0,0,1
1532142315914,-5,0,0,-1,0,0,-1,-2
1532142315919,-8,5,0,-2,-1,-1,-1,-2
1532142315924,-3,-3,-1,0,0,-1,0,-1
1532142315929,-4,1,1,-1,0,-1,-2,-1
1532142315934,-9,-1,-3,-2,-1,0,0,-1
1532142315939,-2,-5,-4,-1,-1,-1,0,-1
1532142315944,0,-1,-5,-2,-1,0,-1,-2
