1532070015521,0,-5,-35,-10,-1,-2,0,-2
1532070015526,-2,2,19,6,-1,0,-2,-2
1532070015531,-2,11,5,5,-2,0,-2,-1
1532070015536,-1,-6,-1,-8,4,2,2,1
1532070015541,0,8,22,7,-1,-4,-1,-1
1532070015546,0,1,-3,-4,-3,0,2,1
1532070015551,-4,-15,-21,1,-2,-4,-3,-1
1532070015556,-1,0,15,2,-4,-3,-2,0
1532070015561,0,1,-14,-4,1,1,-2,-1
1532070015566,0,4,-2,3,1,0,0,-3
1532070015571,2,1,15,-2,-1,0,1,2
1532070015576,-5,-4,-16,3,-1,2,1,-4
1532070015581,-6,4,-28,-5,-1,-4,-7,-3
1532070015586,-1,-5,-13,-7,-1,0,1,-1
1532070015591,1,-5,15,8,-3,0,1,1
1532070015596,1,3,9,-4,-6,-3,-1,-1
1532070015601,-1,5,16,-2,-2,0,-1,-2
1532070015606,-3,-1,-64,-1,4,0,-2,0
1532070015611,1,3,26,15,-2,2,1,1
1532070015616,0,0,-21,-1,1,0,-1,0
1532070015621,-1,-3,28,-6,-3,-1,-1,-2
1532070015626,0,9,47,10,-1,-1,-2,1
1532070015631,1,-4,5,-4,0,-1,-1,-2
1532070015636,0,-1,0,-1,1,-1,1,-1
1532070015641,1,-3,-12,6,2,3,1,1
1532070015646,1,1,-7,-8,-1,-4,-1,-3
1532070015651,-4,2,-9,-17,-4,-3,-2,0
1532070015656,-1,3,11,-4,-2,-1,-2,0
1532070015661,0,-2,1,3,-2,-1,0,2
1532070015666,0,-6,8,-1,-3,-1,-1,1
1532070015671,-3,0,4,0,2,-1,0,-4
1532070015676,0,-1,8,0,-3,-1,-1,-1
1532070015681,0,-6,-34,-3,-2,-2,-2,-1
1532070015686,-3,-7,6,-4,-7,-1,-1,-2
1532070015691,2,11,1,-6,3,-2,-1,-3
1532070015696,-1,5,3,-19,0,-1,0,0
1532070015701,-1,4,38,1,-1,0,-1,0
1532070015706,0,-1,10,7,2,1,0,-2
1532070015711,1,2,-17,-3,-7,-4,-1,1
1532070015716,-1,-2,4,0,-3,-1,-1,-3
1532070015721,-1,-5,4,3,-4,1,2,0
1532070015726,1,8,-15,-1,5,0,0,-1
1532070015731,0,-5,13,-4,-3,0,-1,-1
1532070015736,-1,-3,9,-4,-5,-1,-1,-2
1532070015741,-1,-3,-28,-7,-2,-1,-3,-2
1532070015746,1,3,26,10,4,2,1,1
1532070015751,0,-3,-8,3,0,-1,-2,-1
1532070015756,-1,5,28,2,-1,0,1,0
1532070015761,-1,-4,-21,-4,-3,-3,-1,1
1532070015766,-2,-7,-6,0,-3,-2,-1,-2
1532070015771,-1,4,-21,-1,1,-2,-2,-2
1532070015776,-3,-1,28,-3,-3,-3,-3,-1
1532070015781,0,3,12,1,1,1,0,0
1532070015786,-2,6,-26,-6,-2,-2,-1,0
1532070015791,-1,-2,3,1,0,1,-1,-1
1532070015796,2,-4,-20,1,0,-2,-2,0
1532070015801,-2,0,8,0,-3,0,2,-1
1532070015806,-2,1,-7,1,5,-1,-3,-1
1532070015811,1,-1,5,1,-3,0,0,3
1532070015816,-2,-3,-35,-9,-3,-3,-4,-4
1532070015821,-1,-4,9,5,3,2,-1,-1
1532070015826,2,-1,-17,0,-4,0,3,1
1532070015831,-3,-2,38,7,1,-2,-3,0
1532070015836,-1,-3,-5,13,4,2,1,1
1532070015841,0,4,14,-14,-5,-4,-1,-2
1532070015846,1,2,23,4,2,3,0,1
1532070015851,0,0,-8,-2,1,-1,0,-2
1532070015856,-1,2,-14,-2,-2,0,-1,1
1532070015861,-2,-1,14,0,-2,0,-3,-1
1532070015866,-2,-2,-7,-1,-3,-2,0,-2
1532070015871,2,4,-12,-9,0,-4,-2,-1
1532070015876,-2,-17,9,5,0,1,3,1
1532070015881,0,-1,-6,3,0,0,0,-1
1532070015886,-3,-5,1,-9,-2,-1,0,0
1532070015891,-1,-1,-10,0,-4,-4,-3,-2
1532070015896,0,2,-7,-7,-4,0,-3,-1
1532070015901,-1,-1,2,3,6,-1,-3,2
1532070015906,-1,-8,-10,1,-5,-1,-3,-2
1532070015911,0,1,10,-7,-1,-1,0,0
1532070015916,-1,1,-31,-25,-5,-1,0,-1
1532070015921,1,-4,11,-1,-1,0,0,0
1532070015926,1,2,2,2,1,0,-2,0
1532070015931,-1,-2,-10,14,2,1,0,0
1532070015936,0,-1,15,-15,-4,-3,-3,1
1532070015941,-1,2,-4,14,2,2,0,0
1532070015946,1,-2,-5,5,-1,-2,1,-2
1532070015951,-3,-3,-16,-28,-6,-3,0,-2
1532070015956,0,5,4,6,0,1,0,-2
1532070015961,-1,1,-4,20,1,0,-2,-3
1532070015966,-2,-6,8,-45,-3,-2,-3,1
1532070015971,1,3,2,41,4,3,1,-1
1532070015976,-2,-1,5,30,2,-2,-2,-2
1532070015981,0,-2,-5,-7,-4,-2,1,0
1532070015986,0,1,-4,-16,-2,-4,-3,-2
1532070015991,-2,-1,5,2,3,2,-1,-1
1532070015996,1,1,2,-11,2,-1,1,1
1532070016001,-2,5,0,15,1,0,0,-2
1532070016006,-2,3,-8,29,1,1,-1,-1
1532070016011,-2,-3,-2,-53,-5,-2,-3,-3
1532070016016,0,0,5,40,1,-1,-1,0
1532070016021,-1,-2,-3,-35,-3,-1,0,-2
1532070016026,-1,1,-2,6,0,-1,-2,3
1532070016031,2,-1,-1,13,-1,0,-1,0
1532070016036,0,1,-5,-9,-2,2,0,-1
1532070016041,0,0,0,6,3,1,0,1
1532070016046,0,-4,1,2,1,0,1,-1
1532070016051,1,-1,-4,2,-3,0,0,-1
1532070016056,-1,-2,0,-11,-4,-3,-3,-4
1532070016061,-2,-2,2,-7,1,-2,-2,0
1532070016066,1,-1,-2,8,4,1,-1,-1
1532070016071,0,0,4,1,1,1,0,0
1532070016076,0,-1,-9,-13,-3,-2,-1,-1
1532070016081,-1,-2,-1,1,-3,-1,-1,0
1532070016086,-3,1,-1,4,-2,-1,-1,-1
1532070016091,-1,-1,-2,1,1,0,2,1
1532070016096,-2,0,0,-6,1,-3,-1,-1
1532070016101,-1,-6,-1,-3,-4,-2,-2,-2
1532070016106,-1,-5,3,3,8,-2,-2,-3
1532070016111,-1,0,-3,-3,-10,2,-1,-2
1532070016116,-2,-1,-1,1,-6,0,-2,-1
1532070016121,1,-2,-3,-3,-1,-2,0,0
1532070016126,-1,1,0,-1,-3,-1,-1,-2
1532070016131,-3,-2,2,0,7,-3,-3,-2
1532070016136,0,-1,0,0,2,2,1,1
1532070016141,-1,3,-3,-3,0,0,-1,0
1532070016146,0,0,2,-1,1,0,-1,0
1532070016151,-1,-2,-4,5,0,-3,-1,-1
1532070016156,0,-2,-2,-5,-2,-2,-1,-1
1532070016161,1,0,1,3,3,-1,-1,-1
1532070016166,2,14,-6,4,-3,-2,-2,-1
1532070016171,-4,-17,4,-13,-2,1,0,1
1532070016176,-2,-6,3,-19,-2,0,1,1
1532070016181,2,4,20,11,10,1,-1,-1
1532070016186,1,-18,7,0,-16,0,1,1
1532070016191,-1,-3,-6,0,-5,-1,-1,-1
1532070016196,0,7,1,6,-1,0,-1,-2
1532070016201,-3,-3,-4,-7,0,-1,-1,-3
1532070016206,-2,0,-4,1,0,0,-2,-1
1532070016211,1,5,5,3,4,-2,-2,-2
1532070016216,0,2,-4,-1,-1,0,2,-1
1532070016221,0,-1,-10,-1,-3,-3,-2,-2
1532070016226,-2,-3,18,4,2,1,2,2
1532070016231,1,3,-2,-1,3,0,-1,0
1532070016236,-2,0,-1,-1,-4,-2,-2,-3
1532070016241,-1,-4,-4,0,-5,-1,-2,0
1532070016246,0,1,0,-4,-2,0,1,-1
1532070016251,-3,-4,-4,-11,-2,-3,-2,-1
1532070016256,0,-2,1,7,5,1,-1,-2
1532070016261,1,3,-4,-5,-5,1,-1,0
1532070016266,-1,-5,6,5,-3,1,0,0
1532070016271,1,6,-3,-3,2,-2,0,2
1532070016276,2,1,-10,9,21,0,1,0
1532070016281,-3,2,7,-6,-14,2,1,-2
1532070016286,1,-10,-7,-5,-2,-3,-3,0
1532070016291,1,4,1,4,-1,1,0,-2
1532070016296,-3,-16,-12,-4,-7,-2,-2,0
1532070016301,-3,-9,-2,-1,4,0,0,-1
1532070016306,1,5,-6,-2,1,-2,0,-2
1532070016311,-1,0,0,0,-7,-3,-2,-2
1532070016316,2,14,0,0,1,1,1,-2
1532070016321,-1,-4,21,3,4,3,2,1
1532070016326,-4,7,-11,-10,-9,-2,-3,-1
1532070016331,-1,-3,0,3,7,3,2,1
1532070016336,-1,3,0,-5,-8,-3,-4,1
1532070016341,0,8,-8,-3,-1,-3,-3,-1
1532070016346,0,7,-5,-4,-2,-1,-2,-1
1532070016351,0,-12,1,1,0,0,-1,-1
1532070016356,1,-1,12,2,1,0,2,1
1532070016361,0,-3,-8,-6,-5,-3,-4,-4
1532070016366,-4,-3,-4,2,13,-2,-2,-4
1532070016371,-1,5,-3,-9,-23,-1,0,1
1532070016376,0,-3,6,7,2,3,0,0
1532070016381,-2,-7,-15,-10,-12,-4,-3,1
1532070016386,1,0,-2,-1,-4,0,1,-1
1532070016391,0,0,-1,0,5,-1,-3,0
1532070016396,-2,-2,0,-1,-5,-4,-4,-1
1532070016401,0,2,-1,2,7,0,0,-2
1532070016406,-1,-1,3,-1,1,0,-1,-1
1532070016411,0,2,1,0,-3,-2,0,-1
1532070016416,-1,0,0,-4,-1,0,0,0
1532070016421,-1,-1,-4,2,-1,-3,-1,-1
1532070016426,0,-3,-5,0,0,0,-1,-2
1532070016431,0,2,-1,4,2,0,0,-1
1532070016436,-3,4,-2,-5,8,-1,-1,-1
1532070016441,-1,-5,-7,-2,-12,0,0,0
1532070016446,0,4,7,1,-1,-1,0,0
1532070016451,-3,-11,-5,-1,-1,-1,-1,-1
1532070016456,1,1,8,3,-4,0,0,0
1532070016461,-1,-2,-3,1,4,0,-2,-1
1532070016466,0,0,-15,-5,-1,-1,-1,0
1532070016471,0,5,-6,3,2,-1,1,0
1532070016476,-3,-7,7,-2,-7,-4,-4,-4
1532070016481,0,4,21,15,2,-2,-2,1
1532070016486,-1,-2,-9,-36,-5,-2,-3,-1
1532070016491,0,2,-1,-1,1,0,1,0
1532070016496,-1,0,8,15,-3,1,0,-1
1532070016501,0,-4,-6,-30,-1,1,2,0
1532070016506,1,0,1,12,-1,-3,-1,1
1532070016511,-2,0,5,0,0,0,-2,-2
1532070016516,-2,-7,5,-4,-2,-2,1,0
1532070016521,0,-3,-12,9,0,1,0,2
1532070016526,0,4,-3,1,3,0,1,1
1532070016531,-3,-4,11,-9,-4,-3,-4,-3
1532070016536,0,6,1,5,1,-1,-1,-2
1532070016541,-2,-7,-25,-2,0,0,2,-1
1532070016546,-1,0,-7,0,-5,-3,-4,-2
1532070016551,-1,-13,2,4,2,1,2,0
1532070016556,-1,-12,-11,-20,10,-3,-5,0
1532070016561,-1,1,10,5,-12,-1,0,1
1532070016566,0,3,-8,5,0,1,0,0
1532070016571,-1,2,-12,-3,-1,-3,-1,-3
1532070016576,-1,0,19,-3,-5,-1,-1,-1
1532070016581,-3,-6,-9,1,6,-2,-3,-1
1532070016586,0,0,7,7,0,0,1,-1
1532070016591,-1,0,2,5,-1,0,-2,-3
1532070016596,0,2,-11,16,3,-2,0,-4
1532070016601,-1,0,2,0,-6,-2,-1,0
1532070016606,0,1,10,9,-2,0,-1,0
1532070016611,-1,5,-1,-23,-1,-1,1,1
1532070016616,-1,-4,-11,7,-6,0,-3,1
1532070016621,1,2,-2,6,6,-2,-1,-3
1532070016626,-1,-7,15,-2,-1,-3,0,-3
1532070016631,2,5,-11,4,2,1,1,1
1532070016636,-1,1,-1,-9,-1,-1,-1,0
1532070016641,-2,-6,-3,2,0,1,2,0
1532070016646,-2,-6,16,8,2,-2,0,0
1532070016651,-1,-1,-19,-11,-3,-2,-2,0
1532070016656,-1,5,12,-5,7,0,-2,-1
1532070016661,2,3,12,25,3,2,-3,0
1532070016666,-1,-1,-12,-12,-7,-2,-1,1
1532070016671,-1,0,5,6,1,-2,0,0
1532070016676,1,1,-12,-8,-2,-1,2,-1
1532070016681,-1,2,-2,-4,1,0,-1,-2
1532070016686,0,3,1,-12,2,1,1,-2
1532070016691,-3,-4,1,5,-6,-5,-3,-1
1532070016696,-1,-4,-10,9,0,1,2,1
1532070016701,1,5,3,-14,0,-1,2,-2
1532070016706,0,3,-5,-1,0,0,0,-1
1532070016711,-2,-3,-13,-1,-1,1,-1,-3
1532070016716,0,8,-23,-12,-8,-3,0,-3
1532070016721,-3,-16,23,6,0,-1,1,2
1532070016726,0,2,-17,0,0,0,-2,-1
1532070016731,2,8,-1,0,8,1,0,-1
1532070016736,-1,-2,13,-3,-4,-2,-2,0
1532070016741,2,8,-1,1,-3,-1,-1,-1
1532070016746,-1,-6,-15,0,0,1,0,0
1532070016751,-1,-1,19,12,-1,0,0,-1
1532070016756,-1,-5,-22,-12,-1,1,-1,-1
1532070016761,-2,-1,-2,-8,0,-2,-2,-1
1532070016766,-1,-2,7,-2,1,-1,1,-3
1532070016771,1,-2,-2,5,1,-1,0,-1
1532070016776,-1,1,5,6,-4,-1,-1,0
1532070016781,0,3,14,-16,0,0,0,0
1532070016786,0,1,-50,-7,-1,-2,-1,-1
1532070016791,-3,-2,1,-3,-5,-2,-5,-2
1532070016796,-2,-21,13,13,2,1,0,0
1532070016801,1,3,-5,-13,1,-3,-2,-2
1532070016806,-1,-3,19,15,-2,-1,1,1
1532070016811,1,4,-14,-24,-1,0,0,-2
1532070016816,1,7,4,-2,0,1,2,-1
1532070016821,-1,-1,2,12,0,-2,-2,-2
1532070016826,-2,-3,13,3,1,0,-4,-1
1532070016831,0,2,-8,8,-1,1,1,1
1532070016836,-1,-3,16,-8,-3,-1,-1,1
1532070016841,0,3,-7,-11,-1,0,-2,-2
1532070016846,-1,0,48,6,-1,1,3,0
1532070016851,-5,-10,-57,1,5,-1,-4,-3
1532070016856,-1,3,26,-3,-1,0,-1,1
1532070016861,-1,-5,-29,-11,-6,-2,-2,1
1532070016866,0,3,7,4,4,1,1,-2
1532070016871,0,2,28,3,-6,-3,-3,-3
1532070016876,-3,-16,-26,-5,-1,0,0,0
1532070016881,-2,0,20,10,8,-1,-2,-2
1532070016886,0,10,-11,-9,-20,0,-1,0
1532070016891,1,-3,10,-10,-4,-2,1,-1
1532070016896,0,8,11,7,-2,-2,-1,-1
1532070016901,-1,-5,-19,9,1,-2,-2,-4
1532070016906,-2,-10,-13,-11,2,-1,-2,-2
1532070016911,2,5,10,3,1,2,3,2
1532070016916,2,10,21,31,0,2,3,-1
1532070016921,-4,-13,-40,-39,-3,-3,-4,-1
1532070016926,-1,-2,23,3,6,-1,0,-1
1532070016931,0,0,6,1,0,-1,-1,1
1532070016936,3,8,-2,3,1,-1,1,0
1532070016941,1,5,25,1,3,3,2,1
1532070016946,-5,-15,-91,-5,-4,-2,-5,-2
1532070016951,-1,-2,65,17,5,-1,-1,2
1532070016956,1,2,-3,-7,-1,1,0,1
1532070016961,2,4,10,8,-6,1,2,0
1532070016966,-2,1,-59,-5,4,-3,-1,-3
1532070016971,0,5,88,3,-1,2,2,1
1532070016976,-2,-4,-5,0,-2,-2,-5,-2
1532070016981,-1,-6,-5,2,2,-2,-2,-2
1532070016986,0,2,26,13,0,3,2,0
1532070016991,-1,1,-48,-22,-9,-2,0,-1
1532070016996,-2,0,-14,3,2,-1,-1,-1
1532070017001,-2,2,73,20,-1,0,-1,1
1532070017006,3,1,2,10,5,0,-3,0
1532070017011,-3,-4,-3,-18,4,-2,0,-1
1532070017016,-1,-6,-41,-16,-8,-1,-2,0
1532070017021,-1,7,7,10,1,-2,-1,-1
1532070017026,0,-8,24,4,-4,-2,-1,-3
1532070017031,-1,0,3,-9,-3,-1,0,-1
1532070017036,-3,-9,-99,2,-3,-5,-4,-2
1532070017041,0,-1,6,5,1,0,0,-1
1532070017046,-1,1,7,-1,0,-1,0,-1
1532070017051,1,2,18,-3,-1,1,-2,1
1532070017056,3,9,17,-7,-2,2,4,0
1532070017061,-6,-14,-1,2,-1,-3,-2,-2
1532070017066,-3,-5,-11,-25,-8,-4,-2,-2
1532070017071,-3,-6,-31,12,0,-2,-1,-4
1532070017076,3,9,26,5,6,2,1,-1
1532070017081,-1,-5,2,-15,-18,-3,-2,-2
1532070017086,1,3,26,0,-1,1,0,3
1532070017091,0,5,-17,1,1,-1,1,2
1532070017096,-4,-13,15,8,3,-1,-3,-2
1532070017101,-1,1,-2,-15,1,2,1,-1
1532070017106,1,1,-3,4,1,1,0,-2
1532070017111,-3,-11,-67,2,1,-1,-2,-2
1532070017116,2,2,25,1,0,1,2,2
1532070017121,0,2,-9,2,7,-1,2,-2
1532070017126,0,2,-24,-7,-4,-1,0,0
1532070017131,-1,1,35,4,-1,-2,-3,0
1532070017136,-2,-1,14,-5,-2,-1,1,-2
1532070017141,-1,-7,-70,-1,-1,-1,-1,1
1532070017146,0,10,78,-7,0,1,1,1
1532070017151,-3,-7,-29,3,3,0,0,-1
1532070017156,-1,-3,13,-1,1,-3,-3,-2
1532070017161,1,3,-47,-12,-14,-1,-1,2
1532070017166,-3,0,84,17,-2,-1,-3,0
1532070017171,-2,-2,10,1,-6,0,-1,0
1532070017176,-1,1,10,-11,4,1,0,-1
1532070017181,1,8,-34,6,-1,-1,2,-1
1532070017186,-3,-7,16,13,7,0,-1,1
1532070017191,3,3,-9,-1,-4,0,1,1
1532070017196,-2,3,17,3,0,-2,-3,-4
1532070017201,0,4,8,-12,-9,0,-2,-1
1532070017206,0,-17,-30,-3,3,-1,0,-2
1532070017211,0,-1,2,6,2,-1,0,-2
1532070017216,0,2,13,-10,-5,-2,1,0
1532070017221,-1,-4,-48,5,3,-2,-1,-1
1532070017226,0,7,-3,-1,-5,-1,-1,-2
1532070017231,-2,-4,-4,-9,0,0,-2,-2
1532070017236,-2,-3,-12,6,-4,0,-2,-1
1532070017241,0,1,26,-6,-1,1,1,0
1532070017246,-1,-3,-29,-1,1,-2,-4,1
1532070017251,-3,-1,-6,-7,0,-1,1,-1
1532070017256,-2,1,-2,-10,-4,-2,-2,1
1532070017261,14,-3,17,11,3,0,-1,-1
1532070017266,-7,6,-19,-2,1,0,0,-2
1532070017271,-1,-2,1,7,-3,-1,-3,-1
1532070017276,-3,-4,-2,1,3,0,0,-2
1532070017281,-3,1,5,-3,1,0,0,0
1532070017286,3,-1,-30,-8,-2,1,3,0
1532070017291,-2,1,39,-5,-5,-3,-2,-1
1532070017296,-1,-3,-19,-2,-2,0,-3,0
1532070017301,-2,-3,16,14,4,-1,-2,0
1532070017306,3,4,-1,-1,6,3,0,-1
1532070017311,-4,-1,-11,0,-6,-2,-2,-1
1532070017316,1,-12,-1,-5,2,3,1,0
1532070017321,-2,0,27,20,1,-1,-1,-1
1532070017326,0,1,3,2,-1,-3,1,2
1532070017331,0,-2,-12,-14,-4,0,1,0
1532070017336,-1,2,-4,-5,-2,-3,-4,-4
1532070017341,-1,14,4,-5,4,1,-2,-1
1532070017346,-2,-7,-6,0,0,0,-2,-2
1532070017351,3,3,0,3,1,-2,-1,0
1532070017356,-2,8,-2,-2,-4,-3,-3,-2
1532070017361,-4,-7,-6,3,2,-3,2,-1
1532070017366,-2,-15,20,-18,-6,1,0,3
1532070017371,0,9,0,13,4,-1,-1,-1
1532070017376,-1,0,-2,-12,-3,-1,-2,0
1532070017381,-3,-8,-3,-12,-3,-1,-2,0
1532070017386,2,3,-7,2,-2,0,-1,-1
1532070017391,0,0,-8,-4,0,1,0,-1
1532070017396,0,-1,12,12,1,1,2,2
1532070017401,-1,2,-1,-17,-2,-3,-1,-3
1532070017406,0,1,-5,2,-7,-4,-2,-2
1532070017411,-1,-2,0,5,2,0,0,-2
1532070017416,-3,1,-10,-1,0,1,0,-1
1532070017421,0,-6,8,5,-4,-1,-1,1
1532070017426,0,4,-2,-6,-1,0,-1,-2
1532070017431,0,-4,0,3,0,0,1,-1
1532070017436,2,1,-1,-3,0,0,0,-1
1532070017441,-3,-3,5,3,0,0,0,1
1532070017446,-1,-1,-25,0,-1,1,0,0
1532070017451,3,-2,18,1,2,-1,-1,1
1532070017456,0,-3,-3,-4,-4,-1,1,0
1532070017461,0,-1,0,5,0,1,-1,-1
1532070017466,5,5,4,2,-1,-2,-3,-2
1532070017471,5,0,-18,-8,-5,-2,-2,-1
1532070017476,-1,-10,-2,-1,0,-2,-2,0
1532070017481,-5,-1,21,3,0,2,0,1
1532070017486,4,-4,-10,0,0,-2,-1,1
1532070017491,8,5,5,0,0,0,1,-2
1532070017496,1,-2,-9,2,-2,0,0,1
1532070017501,-3,1,-5,-3,-2,-1,-3,-3
1532070017506,-3,2,6,-1,0,0,-1,-2
1532070017511,-2,-4,-22,-6,-1,-1,-1,-2
1532070017516,-9,1,28,3,-3,-3,-4,-2
1532070017521,-8,-4,0,-2,-4,-1,-3,-2
1532070017526,2,0,-9,-1,-1,-1,-3,-2
1532070017531,-2,1,6,2,2,1,1,1
1532070017536,3,-3,-6,-6,-2,-1,-1,-1
1532070017541,-5,-2,1,1,1,-1,0,0
1532070017546,1,2,-5,0,-3,-4,-1,0
1532070017551,1,-1,-1,0,-4,-2,-2,-1
1532070017556,-4,-1,0,0,3,0,1,1
1532070017561,-1,-1,-3,-2,-1,-2,-2,0
1532070017566,-2,0,-1,1,1,0,-1,-3
1532070017571,2,0,0,-2,-2,-3,0,-1
1532070017576,-3,-1,-3,-2,-4,-2,-2,-2
1532070017581,-2,-1,1,0,0,0,0,-1
1532070017586,-1,1,-4,1,2,1,1,1
1532070017591,-2,-2,-7,-2,-1,-1,-1,0
1532070017596,-2,-2,6,0,-2,-2,-1,-2
1532070017601,-1,-2,10,1,2,-1,0,-3
1532070017606,0,-4,-7,-4,-6,-1,-1,-2
1532070017611,1,-1,1,0,2,1,0,-2
1532070017616,1,1,4,3,2,0,0,0
1532070017621,-4,-3,-14,-6,-4,-2,-4,-3
1532070017626,1,0,0,1,2,2,3,1
1532070017631,-1,-1,1,1,-1,1,1,5
1532070017636,-2,1,-2,0,-2,0,0,1
1532070017641,0,1,4,0,-2,0,1,-2
1532070017646,-5,-11,-25,-9,-2,-4,-5,-3
1532070017651,0,4,17,3,-1,-1,0,-1
1532070017656,-2,-3,-4,0,4,2,2,-2
1532070017661,-1,2,6,3,0,0,-3,0
1532070017666,1,-3,-11,-2,-7,2,0,0
1532070017671,-1,-1,-12,0,7,2,1,-3
1532070017676,-2,-1,-2,-2,-6,-2,-2,0
1532070017681,0,-2,-4,-4,-3,-1,0,0
1532070017686,-1,4,9,3,2,-3,2,-2
1532070017691,-2,-5,-20,-7,-8,-5,-5,-2
1532070017696,0,4,32,6,4,2,-1,-2
1532070017701,-2,-3,-13,-2,0,-2,-1,-2
1532070017706,-2,1,12,2,2,1,0,1
1532070017711,-1,2,13,3,1,0,0,2
1532070017716,-2,-4,-43,-4,-10,-2,-2,-4
1532070017721,-4,-4,16,0,20,2,-1,0
1532070017726,0,-2,9,3,-5,-1,-3,0
1532070017731,0,1,5,-1,-6,0,1,-1
1532070017736,-1,0,-9,-3,-1,-1,-2,0
1532070017741,0,0,10,2,-5,-2,2,1
1532070017746,1,2,-1,2,7,-2,1,-1
1532070017751,-1,-2,0,-3,3,-2,-2,1
1532070017756,-1,-3,-5,-3,-4,-1,-2,0
1532070017761,-2,0,-2,-2,-11,-3,-3,0
1532070017766,1,-1,-3,-1,5,2,0,1
1532070017771,-2,-1,-2,1,-4,-2,-2,-2
1532070017776,-2,-2,7,-2,3,-2,-3,-3
1532070017781,1,2,-6,-1,-2,2,4,2
1532070017786,-1,1,4,-3,-4,-2,-1,0
1532070017791,-3,0,3,0,5,3,1,-2
1532070017796,-2,-2,2,2,3,-2,-3,-1
1532070017801,-1,1,3,4,2,0,-1,-1
1532070017806,0,-1,-2,-3,-8,-1,-1,0
1532070017811,17,13,-3,-1,-2,0,-3,2
1532070017816,-24,-16,-1,-1,0,-1,-3,-9
1532070017821,5,-4,-6,2,3,1,-1,-3
1532070017826,0,-6,-4,-3,-3,-2,0,0
1532070017831,-7,-1,-1,-5,-2,-1,0,-1
1532070017836,9,8,2,2,0,1,0,5
1532070017841,-3,2,4,9,1,-1,0,-1
1532070017846,-3,-2,2,4,1,-1,1,2
1532070017851,7,1,-5,-8,-3,0,-2,-5
1532070017856,4,2,0,-1,-3,-3,0,1
1532070017861,-6,-1,0,-1,0,-1,0,-3
1532070017866,6,3,5,7,1,-1,0,1
1532070017871,-7,-5,-3,3,0,-2,-1,-1
1532070017876,1,0,-4,-4,-1,-1,-2,-2
1532070017881,0,0,-2,-1,-2,-2,-4,1
1532070017886,-1,0,-1,-7,-1,0,1,0
1532070017891,2,-3,0,6,-1,0,1,0
1532070017896,-2,-1,-2,1,-1,-1,-2,-2
1532070017901,1,3,1,12,0,1,0,-1
1532070017906,0,-1,-9,-50,-7,-1,-4,-3
1532070017911,-2,-2,-3,-5,1,-1,-1,2
1532070017916,-1,0,9,19,-1,-2,0,-2
1532070017921,-2,-6,-24,-48,-14,-5,-3,-1
1532070017926,3,1,7,31,0,1,-1,-1
1532070017931,-7,-1,1,-6,2,1,0,-1
1532070017936,7,1,4,-14,4,2,-1,5
1532070017941,-3,-1,-14,20,-5,-1,0,-7
1532070017946,-2,-2,-11,-37,-9,-4,-3,4
1532070017951,6,-1,5,44,-3,0,-1,0
1532070017956,0,2,5,-13,7,6,8,-1
1532070017961,1,0,-2,-16,4,1,2,-1
1532070017966,-2,-3,3,73,2,-4,-2,1
1532070017971,-5,-2,9,25,1,0,-2,0
1532070017976,0,-5,-11,-14,-2,-4,-2,1
1532070017981,1,4,9,-10,6,5,4,1
1532070017986,-5,-6,0,9,-6,-2,-2,0
1532070017991,5,4,-5,-87,-6,-1,10,2
1532070017996,-9,-6,-6,58,5,-3,-17,-9
1532070018001,-10,2,8,17,1,-3,-4,0
1532070018006,-6,-2,0,-58,-5,-1,4,-2
1532070018011,2,-3,-10,16,-7,-3,-10,6
1532070018016,4,6,2,-3,4,6,5,3
1532070018021,2,2,5,23,11,1,6,0
1532070018026,-7,-8,-6,64,-6,-6,-9,-5
1532070018031,-1,-2,-7,-69,-7,-2,0,1
1532070018036,-5,1,-1,1,-6,-3,2,-3
1532070018041,3,-3,2,29,-3,-4,-5,6
1532070018046,5,10,15,-8,16,10,6,0
1532070018051,-3,0,-6,19,-4,-1,3,-5
1532070018056,-3,-10,-19,-18,-15,-10,-12,-2
1532070018061,1,1,1,-40,-1,2,5,-1
1532070018066,3,1,-7,-44,0,1,2,-2
1532070018071,-9,-6,15,127,5,-5,-8,0
1532070018076,6,4,2,23,-2,3,2,3
1532070018081,-2,0,1,12,2,2,1,-2
1532070018086,-1,-1,-2,-56,-4,-2,-4,1
1532070018091,0,3,1,5,3,3,10,0
1532070018096,7,-3,-4,-19,-1,-1,1,-6
1532070018101,-2,-3,-2,-7,-5,-5,-25,3
1532070018106,2,0,2,35,4,5,2,-1
1532070018111,1,2,-1,-26,0,-2,-1,0
1532070018116,-11,-1,1,-13,-4,-2,6,-4
1532070018121,7,-1,2,-11,-3,1,3,0
1532070018126,-5,-2,4,2,0,-1,-1,0
1532070018131,-2,-4,-8,-26,-6,-2,-4,-2
1532070018136,3,0,1,-1,-2,1,0,3
1532070018141,-3,-3,1,4,-4,-3,-1,-4
1532070018146,-4,1,0,9,1,-2,0,-1
1532070018151,7,6,0,1,-1,0,-4,-4
1532070018156,0,2,-1,-7,4,-2,-4,0
1532070018161,-3,1,1,-13,-1,2,5,2
1532070018166,0,0,-1,4,-1,-3,-2,-10
1532070018171,-9,-3,-6,-8,2,1,2,6
1532070018176,3,4,-4,-10,-5,-2,3,-6
1532070018181,-11,1,2,3,-2,0,-6,7
1532070018186,26,3,-5,4,-3,-2,-6,0
1532070018191,-10,-7,-2,-8,2,-4,1,-5
1532070018196,-5,-1,3,0,-3,0,5,4
1532070018201,13,-8,0,1,0,3,2,4
1532070018206,8,8,-2,2,2,-5,10,-8
1532070018211,-25,-14,-7,-11,2,0,-26,-12
1532070018216,6,-1,1,-1,1,0,-4,-3
1532070018221,-11,-1,-2,-2,-9,-4,3,1
1532070018226,2,-3,3,0,7,2,6,6
1532070018231,14,5,0,-7,-1,-3,5,3
1532070018236,-13,-2,3,-2,-3,-1,-4,-2
1532070018241,-5,-6,-4,-2,0,0,6,-7
1532070018246,-1,0,1,1,-5,-3,-8,1
1532070018251,-7,-1,2,-5,-3,-2,2,-7
1532070018256,5,-3,1,0,1,0,-1,5
1532070018261,6,4,-2,-4,-1,0,4,2
1532070018266,-8,-4,-1,2,0,-1,-9,-3
1532070018271,4,1,-3,-7,1,0,1,1
1532070018276,-2,-1,0,2,-4,-1,6,-2
1532070018281,0,0,-1,1,3,-3,-13,1
1532070018286,-5,1,-1,0,-2,1,4,-2
1532070018291,-2,-7,0,2,0,-3,-6,6
1532070018296,0,1,-4,-6,1,-1,-2,-13
1532070018301,-1,-3,-2,0,-1,-3,0,-7
1532070018306,1,0,3,0,-6,1,15,5
1532070018311,14,4,3,-1,2,2,16,1
1532070018316,-11,-2,1,2,6,0,-44,0
1532070018321,-9,0,-1,0,-3,-2,1,-7
1532070018326,-4,-3,-1,-1,-2,-1,-8,2
1532070018331,6,1,1,0,-3,0,5,-1
1532070018336,1,-1,-3,-2,-5,0,11,6
1532070018341,-2,-2,-1,1,3,1,-4,-9
1532070018346,-1,-2,-1,-3,-2,0,19,6
1532070018351,-5,2,-3,1,1,-3,-19,1
1532070018356,12,4,-2,-3,-1,-1,3,0
1532070018361,-9,-5,-2,1,0,-1,-4,-3
1532070018366,0,-2,-1,0,0,6,23,3
1532070018371,4,0,-1,1,-3,-2,-26,-2
1532070018376,-7,-1,0,-2,-2,-1,7,-1
1532070018381,4,7,-2,-2,-2,-2,-2,-10
1532070018386,-5,-7,-2,1,-1,-1,-12,7
1532070018391,-4,0,-3,-1,-1,2,1,-8
1532070018396,2,-1,2,-4,-4,-2,-3,-8
1532070018401,2,1,0,-2,-1,-1,-23,-9
1532070018406,-2,-1,-1,0,1,-1,-5,-14
1532070018411,-1,1,0,-1,0,0,8,0
1532070018416,1,1,0,0,-1,-1,19,-4
1532070018421,-1,-5,-2,-1,-1,-1,16,7
1532070018426,3,1,-1,-2,0,-2,-24,-5
1532070018431,-4,-3,1,-1,-2,0,16,0
1532070018436,1,-2,-3,-2,3,2,9,-2
1532070018441,19,7,1,-2,-1,-1,-15,11
1532070018446,-26,-3,-7,0,0,-2,-3,-2
1532070018451,7,1,3,1,-4,0,14,-13
1532070018456,-3,-2,1,-1,-2,-3,-10,19
1532070018461,-5,-3,-1,-4,-2,0,-8,-3
1532070018466,7,2,-4,-2,-3,-1,3,-4
1532070018471,-7,-3,-2,-1,-1,-1,-3,10
1532070018476,5,-3,-3,-1,3,-2,13,-8
1532070018481,-2,1,-2,-1,-2,-1,8,-3
1532070018486,1,-1,0,-1,-1,-2,-13,2
1532070018491,-5,-3,-1,1,-1,0,0,-6
1532070018496,2,1,6,-2,-1,1,10,5
1532070018501,-2,-1,-3,1,-9,0,22,-2
1532070018506,-3,-2,0,1,12,0,-43,4
1532070018511,6,-2,-4,-1,-2,-3,-2,-3
1532070018516,-3,0,-2,1,-1,0,-1,8
1532070018521,2,1,2,-3,-5,-2,9,0
1532070018526,-7,-3,4,-1,-7,1,19,-4
1532070018531,-1,0,1,-2,2,-1,-9,-4
1532070018536,-6,-2,-2,-2,-2,-2,-13,-4
1532070018541,3,0,0,0,0,1,5,2
1532070018546,8,2,1,0,-1,-2,4,-1
1532070018551,1,-1,-3,0,-2,0,-3,7
1532070018556,-5,-5,-7,-2,-3,-1,14,2
1532070018561,-3,-1,3,2,2,0,-14,0
1532070018566,12,1,-1,-1,-1,1,6,-5
1532070018571,-3,0,0,-2,-2,1,3,1
1532070018576,0,-1,0,-3,-2,-1,-1,-16
1532070018581,-4,-2,-3,1,0,-3,-4,6
1532070018586,-2,0,0,-2,-4,-2,6,14
1532070018591,0,-1,0,-1,0,1,7,0
1532070018596,0,-1,0,0,0,1,-14,2
1532070018601,2,-2,-2,-3,1,-1,-4,9
1532070018606,3,4,0,1,-1,0,1,-7
1532070018611,-14,-7,-1,-3,0,-1,4,-6
1532070018616,13,3,0,-3,-2,-2,11,13
1532070018621,-18,-4,-3,-2,1,-2,-29,-9
1532070018626,1,-4,-2,-2,-4,0,-1,-1
1532070018631,4,3,-1,1,-1,-1,-1,2
1532070018636,2,-2,-3,0,1,0,-5,-2
1532070018641,3,-1,2,1,1,1,8,0
1532070018646,-5,0,3,-1,-2,0,3,-3
1532070018651,-1,1,2,0,-2,-2,-1,-3
1532070018656,-2,0,0,0,0,0,-4,9
1532070018661,9,-2,-2,-2,-1,-2,8,7
1532070018666,-6,-3,-4,0,-1,0,-7,-4
1532070018671,4,0,0,0,-1,1,2,-4
1532070018676,-3,0,1,1,-1,-2,-6,-4
1532070018681,-4,1,-1,0,1,-1,5,-5
1532070018686,-1,1,-5,-2,-1,-1,-1,-2
1532070018691,4,-9,3,1,-3,-1,-6,6
1532070018696,-3,2,0,0,-1,0,8,-15
1532070018701,-12,-4,1,0,-3,1,25,4
1532070018706,3,-1,-3,-2,-1,-2,-49,11
1532070018711,9,3,-3,-1,-1,2,1,-24
1532070018716,-4,-2,-2,0,2,-1,-5,10
1532070018721,0,-3,-1,0,-2,0,14,2
1532070018726,5,-1,2,2,0,0,15,-3
1532070018731,2,11,1,3,2,-3,-10,0
1532070018736,-28,-21,0,-15,-4,2,-2,-2
1532070018741,6,1,-2,-1,-1,-5,-9,-10
1532070018746,-8,-5,1,1,-3,-2,9,6
1532070018751,-5,-2,-3,3,0,-1,-6,4
1532070018756,10,8,-1,5,2,-2,10,-6
1532070018761,-2,1,1,11,1,1,-21,-2
1532070018766,-29,-12,-6,-48,-4,-3,19,-7
1532070018771,14,0,1,18,-1,0,-8,4
1532070018776,-11,8,-9,-2,-1,-1,-19,2
1532070018781,-1,0,3,8,3,2,-12,-2
1532070018786,22,14,2,3,1,0,16,0
1532070018791,-42,-23,5,-11,-4,1,9,0
1532070018796,3,-2,8,17,2,-2,-14,3
1532070018801,1,0,-6,-26,-5,0,3,-4
1532070018806,-3,-2,-3,12,2,0,10,4
1532070018811,9,6,-12,-31,-2,-3,-11,6
1532070018816,-7,-1,17,2,-1,-1,-2,-11
1532070018821,-5,-5,-23,7,-2,-3,2,0
1532070018826,3,-2,13,11,2,1,-1,1
1532070018831,2,0,-5,0,0,-1,8,2
1532070018836,9,6,2,18,-1,2,3,4
1532070018841,-7,-6,-3,-25,-4,-3,-14,3
1532070018846,8,1,-8,2,-1,0,2,0
1532070018851,0,4,7,6,1,-3,-5,4
1532070018856,0,0,-5,-12,-2,0,3,-1
1532070018861,-1,6,-6,18,2,1,8,-2
1532070018866,-3,-9,0,-5,-5,-1,4,-2
1532070018871,4,0,11,0,-1,-1,-2,15
1532070018876,4,0,-2,1,0,-3,-11,-8
1532070018881,4,-1,4,3,-2,-1,0,-2
1532070018886,-3,2,-7,2,0,-1,-10,-3
1532070018891,2,2,5,4,-1,1,13,-4
1532070018896,-1,-3,-26,-16,-4,-1,3,0
1532070018901,-1,-10,37,1,0,-2,-6,0
1532070018906,8,11,7,27,3,3,7,5
1532070018911,-20,-15,1,-29,-4,0,7,-8
1532070018916,5,2,-1,9,-2,-2,-13,2
1532070018921,-4,3,-8,-7,-2,-1,4,-3
1532070018926,0,-3,1,3,1,-2,-1,-5
1532070018931,3,4,-5,8,2,-1,10,-1
1532070018936,6,-2,-4,-6,-1,-2,-20,5
1532070018941,5,0,-9,0,-1,2,6,2
1532070018946,-5,-3,17,-5,-3,-3,-6,-1
1532070018951,-1,1,-14,5,2,0,-1,-4
1532070018956,-3,-4,2,-6,-2,-2,-3,-4
1532070018961,1,3,4,0,-1,0,2,1
1532070018966,0,1,-12,0,0,-1,-8,-1
1532070018971,-1,-12,5,16,-1,-2,-1,-1
1532070018976,0,2,8,-17,0,-3,9,-5
1532070018981,1,3,-2,5,0,0,-4,-1
1532070018986,-8,-3,-10,-2,-2,1,-1,-9
1532070018991,5,5,-8,-3,-2,-1,-3,1
1532070018996,2,3,14,10,0,1,7,24
1532070019001,18,-5,-24,-7,0,-2,5,55
1532070019006,-11,2,11,-6,-2,-4,-4,-9
1532070019011,-2,-1,-2,5,5,-2,-16,-35
1532070019016,-1,0,-4,3,-1,3,24,-16
1532070019021,-1,-4,-1,-6,-1,-2,-13,54
1532070019026,10,6,-3,1,-1,2,1,25
1532070019031,-3,1,-9,-3,-1,0,-22,-17
1532070019036,7,12,-8,-1,0,0,6,-15
1532070019041,-33,-39,11,4,-1,1,7,-27
1532070019046,4,8,-26,-12,-4,-2,3,8
1532070019051,6,-22,36,13,-2,5,7,21
1532070019056,-13,-19,-4,-19,0,-3,-1,1
1532070019061,8,6,2,13,-2,-1,5,-2
1532070019066,-4,-6,-7,-23,-7,-3,-9,1
1532070019071,-10,5,-9,1,-3,-3,0,-11
1532070019076,7,7,-2,-3,-3,0,-2,5
1532070019081,-4,-1,-29,-1,0,-2,-5,-23
1532070019086,-5,-21,-54,5,3,-2,-2,-15
1532070019091,6,40,10,-5,-1,-4,-2,8
1532070019096,-8,-28,-25,-2,-2,-1,0,-1
1532070019101,0,28,22,-29,-4,-5,-5,-10
1532070019106,13,-3,17,8,1,0,6,-12
1532070019111,-17,1,-14,0,-5,-3,-8,11
1532070019116,-3,0,-6,6,5,2,-5,1
1532070019121,9,1,0,-2,1,0,1,-14
1532070019126,-7,6,-2,-4,-1,0,0,2
1532070019131,4,-10,12,-1,0,0,5,7
1532070019136,-1,4,15,3,-4,-4,-4,-2
1532070019141,-1,-5,-25,-2,1,-1,0,-11
1532070019146,-3,9,62,11,0,0,-1,1
1532070019151,3,-2,-1,4,1,2,2,2
1532070019156,-4,-1,1,-22,-8,-3,-4,-1
1532070019161,0,9,0,5,1,-1,1,-3
1532070019166,-3,11,-3,0,0,0,-6,-1
1532070019171,2,4,14,0,-2,-4,-3,1
1532070019176,7,5,20,7,0,-1,1,3
1532070019181,-2,4,31,8,-1,1,0,-8
1532070019186,-3,-6,-3,-3,-4,-2,-5,-3
1532070019191,0,4,-25,-8,0,0,2,2
1532070019196,-1,2,-8,3,4,2,0,-2
1532070019201,-1,-4,-12,-4,-3,-3,-2,-5
1532070019206,-4,-6,-7,6,-2,-1,-3,-3
1532070019211,2,-4,-9,-1,-1,-1,1,3
1532070019216,-3,-6,-3,-4,-3,-1,-3,-3
1532070019221,-3,1,8,9,11,0,-1,-5
1532070019226,0,-7,-1,4,7,5,2,1
1532070019231,0,4,-1,-13,-10,0,1,3
1532070019236,1,6,4,5,0,-3,-2,-1
1532070019241,-1,-8,9,-5,-3,-2,-2,-2
1532070019246,2,-1,5,3,5,0,2,1
1532070019251,-4,-8,-16,-8,-2,-3,-3,-6
1532070019256,-2,0,-9,7,0,-1,-1,-2
1532070019261,0,-10,13,3,2,2,1,-1
1532070019266,0,2,-3,-8,0,-4,-4,-1
1532070019271,1,-10,5,13,2,4,4,2
1532070019276,0,-5,-4,-10,-3,1,2,3
1532070019281,-2,4,1,-5,-2,-1,-1,-2
1532070019286,-1,1,3,1,-3,0,0,-1
1532070019291,0,-7,5,1,-3,0,-1,-3
1532070019296,-2,-1,4,7,15,2,2,1
1532070019301,-1,2,-9,4,-9,-2,-2,0
1532070019306,-4,-10,-5,-14,-3,-2,-3,-1
1532070019311,3,6,-6,8,6,0,-1,2
1532070019316,0,-1,2,-8,-2,-3,0,-1
1532070019321,0,8,-6,-6,-8,-2,-5,-4
1532070019326,0,1,-1,6,-2,-2,0,-1
1532070019331,-2,-10,-34,-6,0,-3,0,-1
1532070019336,2,0,10,6,-2,0,-1,0
1532070019341,0,0,-3,-2,-2,-1,0,0
1532070019346,1,17,-2,-3,1,0,-2,-1
1532070019351,-2,-13,13,0,3,1,0,-1
1532070019356,1,-2,-6,0,-4,-3,-2,1
1532070019361,2,2,-1,0,5,0,1,0
1532070019366,0,-4,8,3,0,-1,-1,1
1532070019371,0,2,11,0,0,0,1,0
1532070019376,1,5,3,3,-4,-2,-2,0
1532070019381,1,0,19,0,0,1,0,1
1532070019386,3,-5,-5,0,1,0,0,0
1532070019391,1,8,-3,-7,-1,-1,0,0
1532070019396,-2,-2,5,0,-3,1,0,1
1532070019401,-3,0,-23,2,1,-1,-1,-2
1532070019406,-2,-11,0,5,-1,0,0,0
1532070019411,-2,-4,-1,-6,-4,1,-1,-2
1532070019416,-1,-3,-14,1,2,0,-1,-2
1532070019421,-3,-3,-7,0,-1,1,0,-1
1532070019426,-2,-3,12,9,-3,-2,0,0
1532070019431,0,3,1,-22,0,-1,-1,-1
1532070019436,0,8,4,5,2,0,-1,-2
1532070019441,0,-16,9,-2,-3,0,1,1
1532070019446,1,-2,-1,3,2,-2,0,1
1532070019451,0,1,-1,-6,-17,-3,-2,0
1532070019456,-1,-3,-1,-5,-8,-1,0,-1
1532070019461,-1,4,-2,-3,-1,-3,-3,-2
1532070019466,-2,-1,-7,2,8,2,-1,-3
1532070019471,-1,0,-1,4,4,-3,-3,-3
1532070019476,-3,0,0,2,0,-2,-3,-1
1532070019481,1,2,6,4,-1,0,-2,0
1532070019486,-2,-12,6,-14,-3,1,0,-2
1532070019491,-2,3,-6,3,2,1,1,-1
1532070019496,1,8,-2,2,0,-2,-3,-2
1532070019501,0,-13,2,6,1,-1,1,-1
1532070019506,-3,4,-6,-5,-6,-4,-3,-1
1532070019511,0,2,1,4,2,0,0,1
1532070019516,-1,-1,2,-1,-1,0,0,0
1532070019521,-2,5,-2,-4,1,0,-2,-3
1532070019526,0,3,-4,-4,-6,-2,-3,-2
1532070019531,-1,-1,3,6,3,1,2,-1
1532070019536,-1,0,-1,-1,2,2,2,-1
1532070019541,-1,5,-3,-4,-1,-1,-2,-1
1532070019546,-2,-2,-2,-2,-1,0,-2,-1
1532070019551,-1,1,1,5,3,0,0,0
1532070019556,-3,-5,-1,7,-1,1,0,0
1532070019561,0,6,-6,-21,-2,0,-3,-1
1532070019566,-3,9,-6,-3,-3,-3,-1,-3
1532070019571,2,-1,8,0,0,2,0,0
1532070019576,-2,-4,2,-1,-3,-2,0,-1
1532070019581,0,4,16,8,3,1,2,-1
1532070019586,2,5,-1,0,-3,-1,0,-2
1532070019591,-1,10,-8,-4,-1,0,-3,-2
1532070019596,0,-4,8,-4,-5,-3,0,0
1532070019601,-2,-3,-7,2,0,2,1,-1
1532070019606,0,-4,0,0,0,0,0,0
1532070019611,-1,0,-4,-1,-1,-3,-2,-1
1532070019616,-2,-13,-3,1,1,1,-1,-1
1532070019621,-2,-4,-5,-8,-4,-3,-2,1
1532070019626,-2,1,-1,2,0,1,1,-1
1532070019631,0,-9,3,0,1,2,4,1
1532070019636,0,2,-2,2,-1,-2,-3,-2
1532070019641,-2,-5,0,3,0,-1,0,-1
1532070019646,0,-3,2,-2,-1,1,-1,1
1532070019651,-3,2,-4,-2,1,-1,0,-1
1532070019656,0,3,-2,0,0,0,1,0
1532070019661,-3,-1,-3,2,-3,1,2,1
1532070019666,0,2,1,-1,1,-4,-1,-1
1532070019671,-1,-7,2,-2,-4,-2,0,0
1532070019676,-1,-2,0,-3,1,0,-1,0
1532070019681,0,-3,-5,4,-3,-2,-2,-1
1532070019686,-2,-1,-1,-3,-1,-1,-2,0
1532070019691,2,1,-2,-2,-3,-2,-1,0
1532070019696,-1,2,-5,-3,0,-1,-2,0
1532070019701,-1,-1,-1,-3,0,-1,1,-2
1532070019706,1,0,-2,1,-2,-2,-1,0
1532070019711,-4,0,-1,0,0,-1,-3,-2
1532070019716,-1,4,-5,-2,-1,-1,0,-2
1532070019721,0,-12,-2,0,-2,-2,-2,0
1532070019726,-2,-4,0,1,-1,-1,1,0
1532070019731,-1,1,-4,-7,0,-2,-1,0
1532070019736,-1,-4,-2,0,0,-2,-2,-2
1532070019741,-1,6,-4,0,-3,-2,0,0
1532070019746,0,-5,1,0,-2,0,1,1
1532070019751,0,2,0,1,0,0,0,-1
1532070019756,-1,-1,-1,2,-1,0,-1,-1
1532070019761,0,3,2,-1,-1,-1,-1,0
1532070019766,-2,-4,-1,3,5,0,-1,0
1532070019771,-2,3,-2,-5,-2,-5,-2,-4
1532070019776,2,2,0,-4,-2,-1,-1,-1
1532070019781,1,2,1,1,-2,0,-1,-1
1532070019786,0,1,1,-1,-2,0,0,0
1532070019791,-2,-11,2,5,2,0,2,3
1532070019796,-3,-5,-3,-9,-6,-2,-3,-2
1532070019801,-1,-3,0,-2,-1,-2,-2,0
1532070019806,-3,1,3,-2,-1,0,0,1
1532070019811,3,3,4,5,-1,0,-1,-1
1532070019816,0,1,-4,-5,-2,-1,1,0
1532070019821,-2,-14,6,10,2,2,0,0
1532070019826,2,1,-2,-1,-1,0,0,1
1532070019831,-3,-2,-5,-1,-3,-1,-3,-1
1532070019836,-1,-4,-15,1,2,-1,1,-1
1532070019841,-2,-9,1,-3,-1,-1,2,0
1532070019846,0,4,2,-2,-2,1,-1,-3
1532070019851,-1,-6,4,2,-1,0,1,0
1532070019856,1,2,-5,-16,-6,-3,-2,-3
1532070019861,-1,4,0,-1,-2,0,-2,-1
1532070019866,0,-1,0,1,2,2,-1,-1
1532070019871,1,2,2,2,0,-2,-3,-1
1532070019876,-2,-1,5,5,-1,-1,1,0
1532070019881,2,7,-1,2,2,-1,1,1
1532070019886,0,-4,-3,-9,-7,-3,-5,-3
1532070019891,-1,-1,-5,-5,-1,-1,0,-1
1532070019896,-2,-1,6,7,5,1,1,0
1532070019901,-1,-3,-10,-9,-6,-1,-1,-1
1532070019906,1,1,2,4,2,0,0,1
1532070019911,-2,-2,-5,-6,-1,-1,-2,-2
1532070019916,1,-1,3,1,-1,0,0,1
1532070019921,0,4,-1,3,-1,0,-2,-2
1532070019926,-1,-1,-5,-6,-1,-4,-2,-1
1532070019931,-1,-1,-8,-27,-3,-2,-1,-1
1532070019936,-1,-1,6,18,1,0,-2,2
1532070019941,2,11,-2,-3,-2,-4,-4,-2
1532070019946,0,-3,-1,1,3,2,2,0
1532070019951,2,2,1,6,-3,1,2,1
1532070019956,-1,-2,0,-4,2,0,-1,-2
1532070019961,-1,0,4,3,2,-2,1,-1
1532070019966,-2,-1,-4,-4,-2,-2,-1,-1
1532070019971,0,1,2,9,0,-2,-1,0
1532070019976,1,2,0,-13,-3,0,0,0
1532070019981,-3,-4,-6,-1,-3,-2,-4,-2
1532070019986,-1,-1,1,15,5,-1,1,-1
1532070019991,-1,-1,-3,-27,0,1,1,-1
1532070019996,0,-1,0,12,-3,-1,1,0
1532070020001,-3,-6,-1,1,-3,-3,-4,-3
1532070020006,1,-1,0,6,-1,-2,-2,0
1532070020011,-1,0,-3,-6,-2,0,-1,-3
1532070020016,0,-3,-6,-4,-3,-1,0,-2
1532070020021,1,1,-5,-9,1,2,3,-1
1532070020026,-1,0,0,5,-2,-2,-2,-2
1532070020031,1,1,1,1,1,0,1,-1
1532070020036,-3,1,3,-2,6,0,1,-1
1532070020041,2,0,-3,-6,1,-1,-1,1
1532070020046,-2,-2,-5,3,-7,-2,-3,-1
1532070020051,-1,-2,0,0,0,1,-1,-1
1532070020056,0,0,1,-6,-2,0,-2,1
1532070020061,0,2,1,4,2,0,1,-2
1532070020066,-1,0,-2,-15,-2,1,1,-1
1532070020071,1,1,2,12,4,1,2,-1
1532070020076,-3,-1,0,-6,-1,-2,-3,-2
1532070020081,1,-6,-7,30,2,-4,-5,0
1532070020086,1,-1,-2,-14,-3,0,1,-2
1532070020091,-1,1,6,24,0,-4,-3,1
1532070020096,1,1,0,0,-3,2,2,0
1532070020101,-2,2,1,-9,0,0,2,-2
1532070020106,-3,-2,-2,-3,-1,-4,-4,-2
1532070020111,0,-3,-6,-3,-3,-1,-1,-1
1532070020116,1,-1,1,6,-3,-1,-4,-2
1532070020121,-3,0,1,-7,1,2,0,-1
1532070020126,2,-1,-3,4,0,-1,1,2
1532070020131,-1,-1,-1,-9,-2,0,0,0
1532070020136,2,-5,-6,0,-4,-2,-3,-1
1532070020141,-6,-1,2,-3,-2,2,1,-2
1532070020146,-1,3,0,0,1,1,-2,-1
1532070020151,-3,0,-5,-6,-2,-3,-2,-4
1532070020156,0,-4,1,9,1,-2,-3,-3
1532070020161,4,1,2,5,1,-1,0,2
1532070020166,-3,-3,-2,10,-6,-3,-5,-3
1532070020171,3,2,1,-29,-8,-2,-2,1
1532070020176,-4,1,-6,-11,-1,-1,0,2
1532070020181,1,-2,2,-3,0,0,1,2
1532070020186,8,1,0,-7,0,0,1,-1
1532070020191,-2,-3,-4,15,3,0,0,-2
1532070020196,-3,0,3,0,0,0,-1,-4
1532070020201,-3,-2,-5,-7,1,-1,0,-2
1532070020206,-4,-4,-2,2,-1,-1,-1,0
1532070020211,-4,-2,1,0,1,-1,-3,-1
1532070020216,-2,-1,1,5,0,0,1,2
1532070020221,7,1,1,4,1,2,-1,-4
1532070020226,-6,-3,0,14,2,-3,-4,2
1532070020231,-10,0,0,0,0,0,-1,-4
1532070020236,9,8,-2,-5,2,1,2,-2
1532070020241,-23,-13,1,-9,-2,1,1,2
1532070020246,1,-9,0,-3,1,2,-2,-1
1532070020251,4,-1,2,6,-1,-3,-2,3
1532070020256,-3,-3,1,-2,-3,-2,-1,1
1532070020261,9,7,-4,0,3,4,2,0
1532070020266,-2,0,2,-17,-4,-2,1,-2
1532070020271,-4,-2,-2,3,2,0,-3,-1
1532070020276,0,-2,-4,-2,-3,-2,-2,-5
1532070020281,0,3,0,-14,0,-2,-1,0
1532070020286,-1,4,-5,9,0,0,0,-5
1532070020291,5,2,5,21,-4,-3,-2,4
1532070020296,-3,-1,1,-14,4,1,3,-2
1532070020301,-13,6,-11,-22,-9,-5,-9,-5
1532070020306,6,-2,0,-2,0,4,3,28
1532070020311,5,2,-3,-3,-2,-1,-4,-27
1532070020316,-1,-1,1,2,2,0,-2,0
1532070020321,3,2,1,0,3,0,3,-1
1532070020326,-5,0,-5,-5,-2,-1,-2,-2
1532070020331,5,2,0,3,-2,0,2,13
1532070020336,-2,-2,-3,-7,-3,-1,-1,-3
1532070020341,3,-2,1,-2,0,-2,-2,-1
1532070020346,1,-1,-2,2,-2,-1,-1,-6
1532070020351,0,-5,-3,3,3,0,2,2
1532070020356,-4,-2,0,3,0,-1,-3,-7
1532070020361,3,-1,1,3,-3,-1,-1,3
1532070020366,2,1,1,-5,1,0,0,-3
1532070020371,-5,-1,-1,-3,2,0,1,-1
1532070020376,-1,-4,-5,5,-5,-3,-2,4
1532070020381,3,-3,2,4,-2,-1,-3,1
1532070020386,-3,-1,-1,-6,-2,0,1,-7
1532070020391,-1,1,-1,-2,1,-1,-2,0
1532070020396,1,-1,1,-2,-1,0,-1,-2
1532070020401,4,-2,3,10,1,-2,0,0
1532070020406,-4,-4,0,-4,-2,-2,-1,-6
1532070020411,1,0,-4,-4,-2,0,2,2
1532070020416,-8,-5,-1,5,-2,-1,-1,3
1532070020421,-9,-1,-3,-3,-1,-2,-1,-3
1532070020426,3,1,-2,-4,2,1,1,4
1532070020431,10,1,-2,0,-3,-3,-2,-2
1532070020436,-14,2,2,-2,2,2,0,-3
1532070020441,5,-1,-1,4,-1,-2,-1,-3
1532070020446,-4,0,3,4,-2,-3,-4,-2
1532070020451,-4,0,3,-2,-2,1,2,1
1532070020456,4,0,-3,-5,-1,-2,-1,1
1532070020461,-2,0,5,10,-2,-1,-2,0
1532070020466,0,2,-2,-5,0,-1,1,2
1532070020471,-1,0,0,-4,-2,-2,-3,-10
1532070020476,15,8,-2,-2,0,1,-1,0
1532070020481,-1,-3,-1,4,1,0,-1,2
1532070020486,0,0,-5,-2,0,1,-1,-3
1532070020491,-4,-5,1,-2,-1,-2,-1,2
1532070020496,5,1,-2,-3,0,1,0,1
1532070020501,-1,2,0,-2,-4,0,0,-5
1532070020506,-3,-2,-2,1,1,-4,-6,-5
1532070020511,-13,1,-1,-2,-1,-2,0,2
1532070020516,-2,-2,1,3,-1,-2,-1,0
1532070020521,1,-3,-2,2,2,0,4,10
1532070020526,-2,0,2,1,4,0,-3,-6
1532070020531,1,-3,-2,0,1,2,1,0
1532070020536,-6,-3,-1,2,0,-2,0,-3
1532070020541,0,0,3,1,-3,0,-4,-5
1532070020546,1,-3,0,1,-2,0,-1,-1
1532070020551,-1,2,-1,-2,0,1,-1,-5
1532070020556,24,11,2,4,2,-1,0,3
1532070020561,-34,-20,-3,-1,0,0,0,1
1532070020566,-1,0,-1,-1,-2,0,0,-2
1532070020571,2,-3,-2,-2,-1,-2,-2,-3
1532070020576,-17,-7,0,-2,-3,0,-1,-4
1532070020581,22,6,-2,0,-1,-1,-1,-1
1532070020586,-6,-6,4,-1,-4,-2,2,11
1532070020591,-7,-1,-1,-3,0,-2,-6,-17
1532070020596,2,2,-1,1,0,3,3,2
1532070020601,8,3,-3,-5,-1,-1,-1,-3
1532070020606,-2,-1,-2,1,1,0,-3,-2
1532070020611,-2,1,0,-1,-1,-1,-1,3
1532070020616,-4,-4,0,-2,-3,-2,-2,1
1532070020621,-2,2,0,1,-2,1,1,-2
1532070020626,11,4,-1,1,-1,2,-1,0
1532070020631,-12,-6,-2,-3,-3,-2,0,2
1532070020636,-6,-6,-1,-1,1,-2,-2,-4
1532070020641,-1,-1,-3,1,1,2,1,6
1532070020646,2,-1,-1,-1,1,-2,-1,-4
1532070020651,15,4,0,0,-2,0,6,2
1532070020656,-7,-3,-2,2,-1,-2,-16,-1
1532070020661,0,0,-2,0,1,0,1,-1
1532070020666,-2,3,3,-4,1,0,-1,0
1532070020671,-1,-1,-1,0,-1,0,-1,-1
1532070020676,-1,-4,-2,-7,-4,-3,4,4
1532070020681,1,3,-1,3,1,0,-3,0
1532070020686,-1,-2,2,2,0,-1,-1,0
1532070020691,-2,-3,1,-3,2,0,0,-3
1532070020696,-1,0,0,-2,-1,0,4,0
1532070020701,5,4,-2,-14,-4,-4,-3,-1
1532070020706,1,0,2,3,-3,-1,0,-6
1532070020711,4,-1,-1,0,-2,-4,-5,3
1532070020716,-1,1,-1,1,-2,1,3,-2
1532070020721,-1,-2,0,-1,-2,0,-1,-1
1532070020726,-6,-1,-1,1,2,1,0,-1
1532070020731,16,2,1,-1,-2,1,1,6
1532070020736,-19,-16,-7,-2,-3,-2,-4,-10
1532070020741,8,0,-3,2,-2,-2,1,-1
1532070020746,-2,-2,-3,-2,-4,-1,-4,-1
1532070020751,0,0,-1,-7,-1,0,-3,0
1532070020756,4,3,2,5,-1,0,4,-3
1532070020761,-4,-3,2,0,-1,-2,-2,3
1532070020766,-2,-3,-5,-3,-1,-1,-1,0
1532070020771,-5,-3,-2,-2,-1,-3,-3,-2
1532070020776,2,0,-2,-3,-1,-1,-2,-1
1532070020781,-3,-2,0,0,1,1,-1,-1
1532070020786,3,2,-1,0,0,-2,0,0
1532070020791,-9,-3,0,0,-1,0,-2,-4
1532070020796,4,1,-1,0,0,0,2,1
1532070020801,-2,0,0,3,2,2,0,1
1532070020806,0,-1,1,-2,-3,-3,-2,3
1532070020811,5,0,-4,2,-1,-1,-1,0
1532070020816,-2,3,-2,1,-1,1,-2,0
1532070020821,1,0,2,-1,-1,-2,0,3
1532070020826,-13,-4,0,0,-2,0,0,-6
1532070020831,2,-1,-3,0,0,-2,3,-2
1532070020836,0,4,0,-1,1,-2,-6,-2
1532070020841,-6,-3,-2,-1,-2,1,0,-1
1532070020846,4,-2,-3,0,0,1,0,2
1532070020851,-2,0,-2,1,0,0,-2,0
1532070020856,0,-5,-3,-3,-1,-2,4,-5
1532070020861,2,0,2,0,-1,-2,-3,1
1532070020866,-1,-1,-2,0,0,-2,-3,-3
1532070020871,-5,0,1,1,-2,0,3,1
1532070020876,1,-1,-2,1,0,0,0,1
1532070020881,-8,-1,0,0,0,0,0,-5
1532070020886,6,0,-1,-2,-2,-1,-1,-1
1532070020891,-7,-4,-1,-2,-1,-2,-3,-5
1532070020896,0,-1,2,0,-1,1,-1,1
1532070020901,-4,-2,-4,-2,-3,-2,-2,0
1532070020906,-2,-2,-4,-4,-2,-2,-2,-11
1532070020911,2,2,0,-3,-1,-1,-4,-2
1532070020916,-14,-2,0,-1,1,1,-1,-1
1532070020921,-1,-2,-3,-1,1,-1,2,0
1532070020926,2,1,3,0,0,-1,1,3
1532070020931,4,4,2,1,-1,0,0,-1
1532070020936,4,-7,-2,-3,-1,-2,0,-1
1532070020941,0,0,-3,0,0,-1,-2,-1
1532070020946,-3,-2,-5,0,-1,1,2,3
1532070020951,-2,-1,-2,0,0,0,-1,-1
1532070020956,2,2,-1,-1,-1,0,-1,0
1532070020961,3,0,-1,1,0,-3,-3,0
1532070020966,2,-1,2,-1,0,-2,-2,-1
1532070020971,-10,-2,-3,2,-1,-2,3,-1
1532070020976,3,0,-4,-3,-1,-1,-1,0
1532070020981,-2,-2,0,-1,0,-1,-2,-8
1532070020986,1,1,1,-2,0,-1,-1,-2
1532070020991,-3,-2,-2,0,-1,1,2,7
1532070020996,-2,1,2,2,-1,-1,-5,-9
1532070021001,6,-2,0,-1,0,0,-1,1
1532070021006,0,0,0,1,-1,-1,0,4
1532070021011,-12,-4,-1,-2,0,-1,-1,-2
1532070021016,8,-1,1,2,-1,-2,-2,2
1532070021021,2,-1,-2,0,-2,1,0,1
1532070021026,-4,0,-1,-2,-1,-1,-1,-3
1532070021031,4,2,-1,0,0,0,-4,-1
1532070021036,0,2,3,1,0,0,1,3
1532070021041,-5,-2,-1,-1,-2,0,-2,-7
1532070021046,-2,1,-2,0,-1,1,-2,1
1532070021051,2,-3,-2,-2,-2,-2,-1,1
1532070021056,2,0,-3,-2,0,-3,-1,-3
1532070021061,-3,-1,0,-1,-2,-1,1,3
1532070021066,-3,-5,-7,-6,-3,-2,-2,-4
1532070021071,0,-2,-1,0,-1,1,-1,-2
1532070021076,0,-1,0,0,-3,-1,-3,1
1532070021081,-7,2,1,0,-1,0,0,-4
1532070021086,-4,-3,-2,0,-1,-1,1,-1
1532070021091,1,-1,-1,0,-1,-2,-2,0
1532070021096,2,1,-1,0,-1,0,2,0
1532070021101,3,2,1,0,0,-3,-2,1
1532070021106,-3,-3,4,2,0,-1,-3,1
1532070021111,2,-2,-3,-3,-2,2,1,-2
1532070021116,-5,-1,1,-1,-1,1,2,1
1532070021121,0,-3,0,-5,-3,-2,-2,0
1532070021126,5,4,-1,1,-1,0,-1,-1
1532070021131,-4,2,3,0,1,-3,0,3
1532070021136,-3,1,1,-1,-1,1,-3,-7
1532070021141,-1,-3,-5,-3,-2,-3,-2,-1
1532070021146,-3,-2,-3,-3,1,0,-2,0
1532070021151,5,1,-2,-1,0,-2,-1,-2
1532070021156,-10,-1,0,0,-2,-1,0,-4
1532070021161,-5,-1,-1,1,0,0,-1,-1
1532070021166,3,3,2,1,1,1,1,3
1532070021171,-2,0,-1,-2,-1,-1,-3,-1
1532070021176,4,0,1,-2,-2,0,0,1
1532070021181,1,0,-3,1,1,0,1,2
1532070021186,-2,-1,1,0,-3,-2,1,-3
1532070021191,2,1,1,0,-1,0,-1,-3
1532070021196,-5,-9,-2,0,1,-2,-2,3
1532070021201,2,-1,-2,-1,1,0,1,-2
1532070021206,0,0,1,-2,-3,-1,-1,1
1532070021211,-1,-4,-1,0,-1,-2,0,1
1532070021216,4,1,1,1,0,-1,-1,2
1532070021221,-1,-4,1,-1,-1,-1,-2,-2
1532070021226,-3,-2,-4,0,-2,0,0,3
1532070021231,-1,0,0,-1,0,-1,-4,-9
1532070021236,1,3,4,0,-1,-1,-1,1
1532070021241,5,-4,-2,0,-1,-1,-1,3
1532070021246,-7,0,-4,0,2,0,0,-5
1532070021251,9,1,-1,1,-1,1,-2,0
1532070021256,0,-5,-3,-1,2,-1,0,0
1532070021261,0,0,-1,0,-2,-2,0,1
1532070021266,3,3,0,0,-2,-3,-1,0
1532070021271,1,2,0,-3,1,-2,-3,0
1532070021276,2,-1,0,1,-2,-1,1,1
1532070021281,-7,-1,-1,-2,0,0,1,-1
1532070021286,11,2,-1,0,1,-1,-2,0
1532070021291,-5,-4,-2,0,-1,-2,1,-1
1532070021296,-2,0,0,-1,-1,-2,-1,2
1532070021301,17,5,1,-2,-3,1,2,2
1532070021306,-31,-9,-3,-2,0,-2,-2,-13
1532070021311,-3,-1,-1,0,-1,1,1,5
1532070021316,-5,-2,1,1,0,2,-1,-5
1532070021321,6,0,2,3,-1,-3,-1,6
1532070021326,1,6,5,-7,-4,1,7,-4
1532070021331,4,-4,-22,-1,-3,-1,-19,2
1532070021336,-10,-4,-2,2,3,-2,-1,3
1532070021341,15,4,16,10,1,0,-1,-2
1532070021346,13,-2,15,-26,-5,-3,-2,-2
1532070021351,0,-5,-10,-6,-3,-3,3,1
1532070021356,-17,2,0,4,-1,0,0,-5
1532070021361,33,-3,-20,4,4,-1,-6,-4
1532070021366,-6,-1,-2,6,3,0,-1,2
1532070021371,5,4,10,6,1,-1,3,-3
1532070021376,7,0,3,-3,-4,-2,-4,-1
1532070021381,-22,-3,0,-8,-3,0,1,-3
1532070021386,3,1,-6,9,1,1,-2,4
1532070021391,-4,1,3,-1,2,-2,-1,-9
1532070021396,4,0,1,0,0,0,1,0
1532070021401,-17,-4,-5,-4,0,-1,1,-1
1532070021406,2,-2,-5,2,-1,-1,-1,0
1532070021411,-5,2,3,-1,-1,1,-2,2
1532070021416,5,-2,-5,-5,-4,0,-1,-1
1532070021421,-8,-3,2,-3,-3,0,-1,2
1532070021426,-2,12,1,4,4,0,-4,-6
1532070021431,-7,-3,1,-3,-1,-1,0,-3
1532070021436,8,5,4,1,-2,-2,0,2
1532070021441,-8,-6,0,1,1,-1,-2,-2
1532070021446,6,3,0,-2,0,0,-1,2
1532070021451,-2,-2,-2,0,0,-1,0,-1
1532070021456,0,3,0,0,-1,2,1,-1
1532070021461,-2,4,-1,-1,0,-2,-1,2
1532070021466,2,2,-9,-1,-2,0,1,-2
1532070021471,-16,-10,21,1,0,0,1,-2
1532070021476,1,-5,-4,-3,-2,0,-2,-1
1532070021481,0,0,1,0,0,2,2,3
1532070021486,-3,-1,-12,-2,0,-1,-3,-2
1532070021491,1,0,0,-1,-2,-1,0,2
1532070021496,-10,-1,0,3,0,-1,-1,-4
1532070021501,-7,-3,-2,-3,-2,-1,-1,-2
1532070021506,4,0,0,3,1,1,0,3
1532070021511,11,6,-2,0,-1,1,1,-1
1532070021516,-18,-10,-6,-7,-4,-6,0,5
1532070021521,-5,-1,-2,-5,-5,-3,-4,-6
1532070021526,2,-3,-1,0,0,2,0,3
1532070021531,0,-2,1,0,-2,0,1,1
1532070021536,9,3,-2,0,1,-1,-1,-4
1532070021541,-7,-1,2,-3,-1,-2,-1,-2
1532070021546,-2,-4,2,0,-2,-1,-2,1
1532070021551,4,-2,-5,-1,1,0,-2,0
1532070021556,4,-1,-3,-2,0,1,1,-2
1532070021561,-5,-1,-5,-2,-3,0,0,-1
1532070021566,3,-5,2,0,-1,-2,-1,2
1532070021571,-5,-1,-3,0,-3,-2,-1,-8
1532070021576,1,1,2,-1,0,0,-2,-1
1532070021581,0,-2,1,-1,2,-1,-1,-1
1532070021586,8,6,0,0,-2,1,0,2
1532070021591,-10,-12,-4,-2,-1,-2,0,4
1532070021596,-1,0,-2,-2,0,0,-2,-7
1532070021601,0,1,-4,-2,-2,-1,-1,-1
1532070021606,-1,1,2,-1,1,-2,2,2
1532070021611,6,6,3,0,1,0,0,0
1532070021616,3,-1,-1,1,0,1,2,3
1532070021621,-3,-1,-2,0,1,-2,-3,-7
1532070021626,-6,-1,-1,-1,-1,0,0,-1
1532070021631,8,2,-2,0,-2,1,0,-2
1532070021636,-5,0,1,0,0,-2,1,7
1532070021641,0,0,-3,-1,-1,0,-3,-14
1532070021646,-5,-5,-1,-1,-3,-4,-3,5
1532070021651,2,1,-2,1,0,-3,-2,-4
1532070021656,6,1,-2,-2,-3,0,0,1
1532070021661,2,-3,1,-2,0,-1,-1,5
1532070021666,-6,-3,-3,-1,-2,0,0,-8
1532070021671,0,0,-3,-4,-1,-2,-1,-1
1532070021676,4,1,1,1,-2,0,-2,0
1532070021681,-2,-6,-2,-1,2,-1,-3,-1
1532070021686,2,-1,0,-2,-3,0,-2,-1
1532070021691,-4,4,4,1,1,2,4,2
1532070021696,10,-2,-3,-3,-1,-1,0,0
1532070021701,1,-1,-1,1,0,2,2,-1
1532070021706,-1,-1,-2,-1,-2,-1,0,3
1532070021711,-3,0,-3,0,-1,-1,-2,-1
1532070021716,2,0,1,1,1,-1,-1,3
1532070021721,-3,0,-1,0,-4,-1,-1,-2
1532070021726,-1,-2,-3,1,1,0,-1,-3
1532070021731,1,-2,-6,2,-2,0,-1,2
1532070021736,-5,-1,0,-5,0,0,-2,-3
1532070021741,-1,1,2,0,-3,-1,0,-1
1532070021746,1,-2,1,-2,-1,-2,-2,-3
1532070021751,0,-1,-5,-3,1,-1,0,-1
1532070021756,-2,0,0,3,1,-1,0,1
1532070021761,-6,-1,0,0,-3,-1,0,1
1532070021766,2,-3,1,-5,0,-3,-4,-6
1532070021771,-1,0,2,2,-1,3,0,-1
1532070021776,0,-1,-4,-3,-3,-3,-3,-4
1532070021781,-9,-1,1,-1,0,0,1,1
1532070021786,-2,-1,-1,-1,-1,-1,2,1
1532070021791,-3,1,0,-2,0,-2,-1,-1
1532070021796,-3,0,-1,1,-1,1,0,-2
1532070021801,4,1,-2,-2,-2,0,-1,3
1532070021806,-8,-2,-1,2,-1,0,-1,-1
1532070021811,-1,-3,-2,-4,-3,0,-1,0
1532070021816,-3,-1,-2,1,-1,-2,-2,-13
1532070021821,2,1,3,0,-1,-1,-2,2
1532070021826,1,-2,-2,-2,-1,-1,4,2
1532070021831,3,1,3,0,0,-2,0,-6
1532070021836,12,5,-1,0,2,2,1,1
1532070021841,0,-9,-3,-2,-1,1,5,5
1532070021846,-6,-10,-2,1,1,-2,-7,-11
1532070021851,-1,1,0,-3,-2,-1,-1,1
1532070021856,-8,-3,1,-1,-1,-2,-1,0
1532070021861,18,8,-1,0,4,-2,-5,-1
1532070021866,-12,-2,-2,-1,-1,1,10,2
1532070021871,-7,2,0,-1,1,-1,-2,-5
1532070021876,0,1,3,-4,-4,-2,-6,-4
1532070021881,1,0,-2,1,2,-1,4,2
1532070021886,-5,7,3,2,-2,0,-1,2
1532070021891,-35,-24,-2,0,-1,0,-2,-4
1532070021896,20,6,-1,0,-1,-3,-1,3
1532070021901,-12,-1,-3,-2,-2,-1,3,3
1532070021906,9,2,0,4,6,0,-1,-1
1532070021911,5,5,2,-1,0,-2,-1,3
1532070021916,-7,-2,4,-4,-5,-2,4,6
1532070021921,-12,-5,0,1,1,1,-4,-18
1532070021926,10,2,-1,1,1,-1,-4,-4
1532070021931,-6,-1,3,1,1,2,9,9
1532070021936,-1,-3,0,0,0,-1,-6,-16
1532070021941,0,2,2,-1,0,-2,-17,0
1532070021946,0,-3,4,0,-3,0,-1,4
1532070021951,0,0,-6,1,1,-2,-2,-3
1532070021956,4,2,1,2,0,0,7,6
1532070021961,-5,-3,0,1,-3,-2,3,-1
1532070021966,5,3,-4,-3,-4,-3,-5,-4
1532070021971,16,4,0,-1,0,0,-1,4
1532070021976,-8,-2,0,-1,2,1,1,3
1532070021981,7,1,-1,-1,-1,-1,2,0
1532070021986,6,-1,1,1,-1,0,1,8
1532070021991,9,5,0,-3,-1,-1,1,-1
1532070021996,-3,-3,-1,-1,0,-1,0,7
1532070022001,-21,-3,0,0,2,0,-1,-5
1532070022006,1,-3,-2,-2,-5,0,-2,-4
1532070022011,-2,-4,-7,-5,-3,-2,-7,-4
1532070022016,-2,-1,-5,-2,1,0,-2,6
1532070022021,-4,-1,1,0,-2,0,1,1
1532070022026,-3,1,0,0,1,0,3,-2
1532070022031,11,3,0,0,0,1,-2,4
1532070022036,-14,-4,0,1,1,1,-1,-2
1532070022041,12,3,-3,-3,-2,-2,0,2
1532070022046,-4,-6,-3,-3,-1,-1,-4,-2
1532070022051,-2,1,2,1,-3,-1,0,-3
1532070022056,8,1,-1,2,1,-2,-2,2
1532070022061,2,-2,0,-2,-1,2,1,1
1532070022066,-4,0,2,1,-2,-1,1,0
1532070022071,1,-2,-4,-3,-1,1,-3,-1
1532070022076,-3,-3,-2,-3,-1,0,-1,-5
1532070022081,-2,-3,-1,2,0,1,0,5
1532070022086,5,1,0,-2,0,-1,0,-1
1532070022091,-13,-4,-4,2,1,-1,0,6
1532070022096,-4,-1,1,0,-2,-1,-3,-5
1532070022101,2,1,-3,-4,-1,-2,0,-3
1532070022106,0,0,2,-1,-1,-1,-2,1
1532070022111,2,2,4,1,-1,-2,-1,-1
1532070022116,3,-2,-1,-2,0,1,-1,-2
1532070022121,0,3,-1,0,-1,-2,1,3
1532070022126,-16,-4,-4,-2,-4,-1,-2,-2
1532070022131,9,-2,-3,-1,-1,-3,-2,-5
1532070022136,-6,-1,-2,1,0,0,1,-1
1532070022141,3,-2,0,-1,1,-2,-2,-3
1532070022146,5,5,-2,-1,-1,0,0,1
1532070022151,-5,0,1,-1,-2,-2,-2,-3
1532070022156,-1,-3,-3,-1,1,0,0,-1
1532070022161,7,2,-1,0,-2,-2,0,-4
1532070022166,-16,-5,-1,-1,0,-1,-3,-3
1532070022171,2,0,-1,0,0,0,-2,-5
1532070022176,-1,-1,-1,1,0,0,1,3
1532070022181,-4,-3,-1,-3,-3,0,0,1
1532070022186,3,-1,-1,0,-1,-2,2,6
1532070022191,3,0,-2,-1,-2,0,-4,-1
1532070022196,1,-4,0,-1,-2,-3,-2,-1
1532070022201,-5,-1,-1,-1,0,0,-1,-3
1532070022206,-1,-2,-2,-2,-1,0,0,2
1532070022211,-4,1,0,-2,-1,2,8,-2
1532070022216,7,-2,-4,-2,-1,-4,-19,0
1532070022221,2,1,-1,2,-3,0,-1,-5
1532070022226,-4,-9,-3,0,2,-2,2,12
1532070022231,-3,0,-1,-2,0,-1,-5,-8
1532070022236,-4,-2,0,-2,-2,1,15,5
1532070022241,4,-2,-2,-2,0,-2,-17,-6
1532070022246,5,3,1,-2,-2,-1,4,-8
1532070022251,6,-2,1,-1,-1,-4,-14,2
1532070022256,-8,0,-1,-1,-1,0,6,4
1532070022261,-1,0,-4,0,1,-1,0,0
1532070022266,-1,1,1,0,-1,-1,-1,-3
1532070022271,3,0,0,1,0,-2,3,6
1532070022276,-12,-1,2,-1,-1,-1,-3,-13
1532070022281,-3,-4,0,0,-2,0,2,1
1532070022286,4,0,1,-1,-1,0,-1,-5
1532070022291,3,7,0,-2,-1,0,-1,-12
1532070022296,-26,-17,-4,-3,-1,-1,-4,1
1532070022301,-4,-2,-6,-2,-3,-4,6,-3
1532070022306,8,6,1,2,-1,-2,-5,-1
1532070022311,-7,-6,-3,0,2,0,3,3
1532070022316,8,3,-2,-1,-1,-2,-1,-3
1532070022321,3,0,2,-1,-1,0,-1,2
1532070022326,-12,-1,0,0,0,-3,0,-5
1532070022331,-3,-3,-2,0,-2,0,1,1
1532070022336,8,2,1,1,-2,-1,0,1
1532070022341,-4,0,3,1,1,-2,3,-2
1532070022346,6,0,-5,-2,-3,1,3,-2
1532070022351,-2,-3,0,-4,-3,-3,-4,0
1532070022356,-4,-1,-1,-3,-2,-1,-3,-6
1532070022361,2,4,-1,-1,1,2,6,9
1532070022366,1,-3,0,-2,-3,-1,-9,-12
1532070022371,-2,0,-1,-1,0,0,5,6
1532070022376,8,2,-1,0,0,0,-1,-6
1532070022381,0,-1,3,-3,1,0,0,9
1532070022386,0,0,-2,0,1,-1,-1,-4
1532070022391,-4,-1,-2,0,-3,0,2,4
1532070022396,5,6,0,0,-1,-1,-5,-3
1532070022401,-1,-10,-6,-2,3,-1,-2,-5
1532070022406,-14,-4,-1,-3,-1,0,0,2
1532070022411,7,1,0,-2,-1,-2,-4,-9
1532070022416,4,1,1,-1,-1,0,-1,0
1532070022421,-2,1,2,1,-1,-1,-3,-5
1532070022426,3,-2,-3,1,-2,-2,0,7
1532070022431,-5,-2,-3,-3,-2,-2,4,5
1532070022436,6,8,2,0,2,-1,8,5
1532070022441,-32,-19,-8,-6,-7,-4,-17,-12
1532070022446,10,1,0,-3,1,-2,-14,0
1532070022451,-4,0,2,0,-1,-1,0,-1
1532070022456,-2,-4,-3,-1,1,-3,-3,-3
1532070022461,9,5,1,1,0,0,5,3
1532070022466,0,0,-2,-1,0,0,-3,-3
1532070022471,8,1,-1,-3,-2,0,-4,-1
1532070022476,-18,-12,-2,-2,0,1,-1,2
1532070022481,3,5,0,-1,-2,-3,1,1
1532070022486,0,1,1,1,0,1,2,-4
1532070022491,7,2,2,1,-1,-1,-1,0
1532070022496,0,1,-2,0,-2,0,-2,-4
1532070022501,5,0,1,2,0,1,1,3
1532070022506,-4,-2,-2,-3,-2,-1,-7,-9
1532070022511,-1,-2,-1,-2,0,0,0,1
1532070022516,-4,-2,0,-1,-3,1,-1,-1
1532070022521,-1,-1,-2,1,-2,1,7,-3
1532070022526,4,1,0,0,1,0,-12,3
1532070022531,2,-3,-1,-1,1,-1,0,1
1532070022536,-2,-2,-1,-3,0,0,-2,3
1532070022541,5,4,2,-1,-1,0,1,-2
1532070022546,-3,-2,-1,-2,-1,0,4,-1
1532070022551,-2,0,3,2,-1,0,3,4
1532070022556,8,-2,-3,-3,0,-2,-2,0
1532070022561,7,7,2,0,0,1,0,-1
1532070022566,-16,-6,0,-1,-2,-2,3,0
1532070022571,-5,-1,-2,-1,-3,-2,-7,-7
1532070022576,5,-1,-1,0,-2,-1,-1,-2
1532070022581,-3,-1,-1,-3,-1,0,9,3
1532070022586,7,1,1,3,-1,0,-17,-10
1532070022591,-5,-2,-3,-3,0,1,2,-2
1532070022596,-4,-1,0,0,-2,-3,-3,0
1532070022601,-1,-1,-3,2,0,0,0,-7
1532070022606,1,-2,-4,-1,-2,-1,10,8
1532070022611,-1,0,-1,0,0,-1,-4,-2
1532070022616,-4,0,-3,0,0,-1,0,-2
1532070022621,-2,-1,2,-1,-1,-2,-7,-6
1532070022626,7,-1,-3,0,-1,-2,7,6
1532070022631,-5,-1,0,-2,-1,0,-3,-2
1532070022636,0,0,-1,-3,0,-1,2,-1
1532070022641,-1,-2,0,0,-1,1,-2,0
1532070022646,2,-2,0,-1,0,1,4,2
1532070022651,2,-1,-1,-5,-5,-2,3,4
1532070022656,0,-2,-1,-2,0,-1,2,5
1532070022661,7,4,-3,-1,0,-4,-18,-4
1532070022666,-14,-7,-1,0,-1,1,3,3
1532070022671,1,0,0,1,0,1,2,4
1532070022676,-4,1,0,1,-3,-2,-4,-6
1532070022681,6,-1,-3,-4,-3,0,1,2
1532070022686,-6,0,0,-1,-1,-2,0,-1
1532070022691,-1,-1,-1,1,1,0,-5,-10
1532070022696,-4,-2,-3,2,-1,-1,0,5
1532070022701,-3,0,-2,0,1,0,3,-1
1532070022706,-1,0,0,0,-1,0,1,-2
1532070022711,3,-3,-4,-1,0,-2,-2,-5
1532070022716,5,3,2,-2,-1,-1,-1,-2
1532070022721,-6,-2,0,0,-1,-1,1,2
1532070022726,3,1,-1,0,0,-1,-1,-19
1532070022731,0,0,-2,2,1,1,-1,-1
1532070022736,-4,-2,0,0,-2,1,0,-4
1532070022741,-1,-3,-3,-3,0,-2,-1,2
1532070022746,-1,-1,2,-4,-3,-1,4,2
1532070022751,-1,4,3,-2,-1,1,-3,-5
1532070022756,5,1,-1,2,1,-1,-3,4
1532070022761,3,3,2,1,-1,2,5,3
1532070022766,-18,-8,-3,-1,0,0,-4,-4
1532070022771,0,-4,-4,-1,-1,-1,-1,-1
1532070022776,1,0,0,-3,0,1,3,4
1532070022781,0,-5,-3,-2,-2,-2,-3,1
1532070022786,1,4,0,-1,1,-1,1,2
1532070022791,1,-3,-2,0,-1,-2,-2,1
1532070022796,-3,-3,-1,-1,-3,0,1,1
1532070022801,-8,-1,-2,-1,0,0,-4,-3
1532070022806,6,2,1,1,-1,0,-2,2
1532070022811,-6,-1,1,0,-1,0,10,-1
1532070022816,8,3,1,-2,-1,-4,-20,-1
1532070022821,-12,-1,2,1,-1,1,1,-1
1532070022826,-2,-1,-4,-1,-3,0,1,-6
1532070022831,6,2,0,0,0,0,-1,-1
1532070022836,-5,-10,-6,-3,-1,-1,3,-1
1532070022841,3,-1,3,-2,-3,-1,-3,-5
1532070022846,3,4,0,-1,0,-3,-2,5
1532070022851,3,6,-1,1,1,-1,-1,0
1532070022856,-15,-11,-4,-4,-2,-1,0,-4
1532070022861,-9,-4,-3,-2,1,1,-2,-3
1532070022866,15,0,-1,2,0,1,2,4
1532070022871,1,1,0,-1,-2,-1,-1,2
1532070022876,4,4,0,-1,-1,-2,-3,-10
1532070022881,1,-4,-2,-1,-1,-2,1,4
1532070022886,-1,2,-1,1,1,1,-1,-1
1532070022891,-10,-7,-6,-6,-3,-2,-3,-3
1532070022896,-4,4,1,0,-1,1,3,0
1532070022901,6,-4,0,0,1,-1,3,-5
1532070022906,7,3,2,-1,0,0,0,3
1532070022911,-2,-3,-1,-1,-2,-1,1,0
1532070022916,8,3,1,1,-1,0,4,2
1532070022921,-7,0,-4,-3,-3,-2,-2,-5
1532070022926,-3,-4,-3,2,2,1,0,0
1532070022931,1,-2,-1,2,-1,1,2,4
1532070022936,-12,0,0,-2,-4,0,-1,-5
1532070022941,4,1,-1,-1,-1,-1,-1,10
1532070022946,-2,-2,0,-1,-2,-2,-2,-7
1532070022951,-3,-2,1,0,-2,-2,-2,-6
1532070022956,2,-1,-1,1,0,0,0,-1
1532070022961,8,2,0,-2,0,-1,-1,2
1532070022966,-13,0,0,-3,-3,-2,0,2
1532070022971,8,3,1,-1,-2,0,1,-1
1532070022976,-3,-9,-2,0,0,1,7,-2
1532070022981,7,-1,0,-3,-1,-2,-14,0
1532070022986,7,1,0,-4,-1,0,-1,-1
1532070022991,-6,0,-1,0,1,-2,-4,-4
1532070022996,0,0,2,2,0,0,0,0
1532070023001,2,1,-1,1,0,-1,4,0
1532070023006,7,0,0,-2,-2,-1,-3,1
1532070023011,-11,-5,-3,1,1,-1,-3,-1
1532070023016,7,2,1,-1,-1,-1,-1,0
1532070023021,-16,-4,-2,1,-1,0,1,-2
1532070023026,-5,0,-1,0,0,-1,-6,-9
1532070023031,-2,-1,1,1,0,1,0,1
1532070023036,-2,0,-1,0,-2,-2,-4,-7
1532070023041,4,2,1,-1,-1,1,9,2
1532070023046,-1,-5,-5,1,-1,-1,-11,1
1532070023051,-9,2,3,3,1,-1,0,-1
1532070023056,2,1,-3,-2,1,-1,-2,-3
1532070023061,-2,0,5,0,-3,-1,0,1
1532070023066,9,2,1,0,-1,0,3,0
1532070023071,-9,-7,-3,-2,0,0,3,10
1532070023076,3,3,-2,-1,1,0,-7,-3
1532070023081,-3,-1,-1,0,-1,0,1,-1
1532070023086,-3,-2,1,0,2,0,4,0
1532070023091,4,-2,-1,-4,-3,-3,0,6
1532070023096,0,-1,1,2,-1,0,0,-8
1532070023101,2,-2,-1,-3,-2,1,-3,-3
1532070023106,-4,-2,1,-2,-1,-1,3,7
1532070023111,6,2,0,-2,-2,-2,-3,-6
1532070023116,-4,-3,-1,-1,-2,-3,-1,4
1532070023121,0,0,-2,-1,-1,1,-1,-4
1532070023126,1,2,1,-2,-2,0,0,0
1532070023131,-8,-3,0,1,-1,1,-4,-5
1532070023136,1,-3,-2,0,0,0,1,5
1532070023141,-2,-1,-1,0,0,-2,-2,-1
1532070023146,0,1,1,0,0,-1,2,3
1532070023151,-4,0,-3,-3,0,-1,-1,-3
1532070023156,-3,-1,-1,-2,-1,-3,2,10
1532070023161,-3,-1,-1,-1,0,0,-2,-8
1532070023166,-1,-1,-3,-2,-3,-1,-2,4
1532070023171,11,5,0,-1,-3,-2,-2,-5
1532070023176,-11,-10,-3,-4,-3,-2,2,0
1532070023181,2,1,0,-1,-1,-1,1,4
1532070023186,-1,0,-1,-1,-2,-1,-3,-4
1532070023191,3,0,0,2,0,-1,3,-3
1532070023196,4,3,1,-2,0,0,1,1
1532070023201,0,1,-1,-1,0,0,-3,-2
1532070023206,-4,-3,-5,0,-1,1,0,-6
1532070023211,-4,-3,0,-1,-2,1,-1,-3
1532070023216,3,1,-1,-1,0,-1,-2,-1
1532070023221,0,-3,-3,-2,-1,-1,-2,-5
1532070023226,2,0,-4,-3,0,0,3,6
1532070023231,13,-3,-5,-3,-1,1,11,11
1532070023236,-24,-4,-4,-2,-2,-4,-26,-25
1532070023241,7,0,-1,-3,0,-2,2,5
1532070023246,-8,-4,-3,-4,-3,-1,0,-5
1532070023251,3,1,2,0,0,2,-1,-2
1532070023256,6,1,0,2,-1,0,4,8
1532070023261,-5,-2,0,-2,-3,0,0,-2
1532070023266,2,-1,3,1,0,0,-5,1
1532070023271,3,2,0,1,-1,-3,-4,-3
1532070023276,-15,-3,-2,-2,0,0,5,0
1532070023281,3,0,-2,2,1,1,-2,1
1532070023286,-5,-1,-2,2,-1,0,2,-3
1532070023291,-6,-3,-1,0,0,-1,-5,-5
1532070023296,9,3,2,-2,-2,0,0,0
1532070023301,-1,0,0,0,-2,-1,0,1
1532070023306,2,0,0,1,0,-4,-3,-1
1532070023311,-4,-2,-1,-1,1,0,-2,0
1532070023316,5,1,1,0,-4,0,1,-2
1532070023321,-4,-3,0,-2,1,1,0,5
1532070023326,-1,1,0,1,2,-2,-2,-6
1532070023331,-11,-2,-2,-4,-2,-1,-3,-6
1532070023336,19,2,1,2,1,0,2,4
1532070023341,-9,-2,1,-1,0,-1,-3,-4
1532070023346,-1,-1,0,1,1,-2,0,3
1532070023351,2,-2,2,-1,-1,0,1,1
1532070023356,-5,-1,1,-2,-2,-2,-6,-6
1532070023361,6,-1,-6,-2,-4,-2,-1,-3
1532070023366,5,-4,0,-1,0,-1,-1,1
1532070023371,-4,2,0,-1,-2,-1,2,2
1532070023376,-4,-1,-1,-1,-2,0,1,-1
1532070023381,6,3,2,3,-1,-2,-2,4
1532070023386,-3,0,-1,-2,-1,-2,1,-2
1532070023391,1,-3,-2,-1,-1,-3,-6,-1
1532070023396,-6,-2,-3,1,-1,-2,-3,0
1532070023401,-1,-3,-2,-1,-2,0,2,0
1532070023406,-1,-2,0,-3,-1,0,1,8
1532070023411,-6,-1,1,1,0,0,0,-3
1532070023416,5,0,-1,-2,-2,-2,4,2
1532070023421,-5,-2,1,0,1,-3,-13,-13
1532070023426,-3,-1,-1,-1,-3,-1,0,1
1532070023431,3,-1,-1,-1,-1,-1,1,0
1532070023436,-2,-1,0,0,-1,0,1,3
1532070023441,-5,-3,-4,-4,0,0,3,1
1532070023446,1,1,0,-2,-2,-1,-3,-5
1532070023451,2,2,2,2,1,0,-3,-3
1532070023456,4,-2,-4,1,-2,0,3,-4
1532070023461,-3,1,0,-1,-3,-1,1,-2
1532070023466,-7,-2,-3,-2,-3,-1,-2,3
1532070023471,12,-3,-2,0,1,-2,1,0
1532070023476,-3,0,0,0,1,0,-2,-1
1532070023481,0,-1,0,0,-2,1,1,-2
1532070023486,2,1,1,1,0,-2,-1,-3
1532070023491,-3,1,-2,0,0,0,-2,-1
1532070023496,0,-1,-2,-4,-2,-1,2,0
1532070023501,8,2,-3,1,0,0,-1,4
1532070023506,-5,-2,1,-2,-1,-2,0,-6
1532070023511,-7,-2,-3,2,0,-1,-2,0
1532070023516,5,1,0,-1,1,0,2,0
1532070023521,-6,-1,1,0,0,-1,1,-3
1532070023526,0,-3,-1,-2,-3,2,-2,0
1532070023531,-2,0,0,3,1,0,1,1
1532070023536,-1,0,0,-2,-4,-2,-2,-9
1532070023541,1,-1,0,2,0,-2,2,0
1532070023546,-1,-1,-1,2,1,0,-1,-5
1532070023551,-1,-2,-1,-1,-1,-2,-4,-3
1532070023556,-1,1,0,1,-1,-1,-2,4
1532070023561,12,3,0,-1,-1,-1,-3,-3
1532070023566,-29,-7,-1,0,2,0,1,-5
1532070023571,-2,0,-1,-2,-2,-1,-2,-1
1532070023576,0,0,0,-2,0,-1,10,13
1532070023581,0,-2,-3,1,1,-3,-15,-5
1532070023586,8,3,0,-1,-1,1,1,0
1532070023591,-4,-1,-1,-4,-4,-1,0,3
1532070023596,-3,-4,1,1,0,0,-2,2
1532070023601,-5,1,0,-2,0,0,4,1
1532070023606,2,-1,-2,1,-1,0,1,3
1532070023611,-3,-2,-4,-5,-4,-1,-3,-1
1532070023616,4,-1,1,0,-1,-2,-1,-1
1532070023621,3,-2,1,0,-3,0,4,0
1532070023626,-3,1,0,-1,0,-3,-2,2
1532070023631,-7,-2,-1,1,-2,-1,4,4
1532070023636,1,1,-2,0,-2,-1,-1,-6
1532070023641,-15,-4,-3,0,-3,0,-3,-2
1532070023646,18,7,1,0,2,0,1,3
1532070023651,-9,-11,-2,-3,0,-2,-2,-3
1532070023656,-2,-1,-1,1,1,-1,-1,1
1532070023661,-2,-1,1,0,1,2,7,0
1532070023666,5,0,0,2,-3,-2,-13,-5
1532070023671,2,1,-2,-4,-2,-1,-6,1
1532070023676,3,0,0,1,-2,0,-3,-1
1532070023681,-6,-1,0,-3,-1,-2,4,-4
1532070023686,-4,0,-2,-1,0,0,1,-4
1532070023691,3,1,-1,1,0,2,2,3
1532070023696,-3,-2,0,-2,-2,0,-5,-1
1532070023701,3,3,2,1,-2,-1,-5,1
1532070023706,1,-3,0,-3,-1,-1,2,1
1532070023711,0,0,-3,-2,0,-2,-2,-2
1532070023716,-4,-1,-4,-1,-1,0,1,-2
1532070023721,-1,-4,-2,-2,-3,-2,1,1
1532070023726,13,2,-1,0,0,0,-3,-6
1532070023731,-3,0,1,-2,-2,-1,0,-4
1532070023736,2,-1,-2,-1,-1,-2,-2,0
1532070023741,4,2,-1,-3,-1,-1,-1,5
1532070023746,-18,-7,-1,-2,-2,-2,-2,-5
1532070023751,4,1,2,0,0,0,8,-12
1532070023756,3,0,-1,1,1,-2,-22,-2
1532070023761,1,-2,-3,0,-1,-1,1,1
1532070023766,0,1,0,-1,-1,0,1,1
1532070023771,0,-2,-2,-2,-1,-1,-1,2
1532070023776,-4,-2,-3,-3,-2,-1,3,-8
1532070023781,-2,1,-1,-3,-1,-1,-4,-10
1532070023786,2,0,-1,1,-2,1,2,2
1532070023791,-1,-1,-2,0,-1,1,-1,7
1532070023796,2,-2,0,-1,-1,-1,1,-8
1532070023801,-6,-2,0,0,2,-1,-3,-1
1532070023806,-1,-2,-4,-2,-2,-2,4,0
1532070023811,-3,-2,-2,-2,-2,-3,-5,-4
1532070023816,-1,1,-1,-1,-1,0,2,8
1532070023821,1,1,1,2,1,-2,5,-5
1532070023826,3,0,0,-5,-4,-1,-17,-1
1532070023831,-3,-8,-2,2,1,-2,-6,-1
1532070023836,4,1,1,0,-1,-2,2,3
1532070023841,-10,-5,0,0,-2,0,3,0
1532070023846,4,0,-1,1,0,0,3,-2
1532070023851,3,3,-1,-1,0,1,1,4
1532070023856,0,-2,-3,-5,-1,-2,3,0
1532070023861,4,-4,-2,-1,-3,-2,-3,0
1532070023866,2,0,-2,-2,-1,-1,3,6
1532070023871,-6,-1,5,-1,-2,-2,-4,-3
1532070023876,-1,-1,-4,1,0,2,3,-5
1532070023881,-8,4,2,0,0,-1,-3,-11
1532070023886,4,-2,-4,0,1,-1,0,7
1532070023891,-3,3,2,1,0,1,2,4
1532070023896,2,-2,1,0,-3,-1,2,4
1532070023901,0,-1,0,-1,-6,-3,6,9
1532070023906,6,0,-1,2,1,0,-5,-7
1532070023911,4,2,-1,0,1,0,0,0
1532070023916,-1,0,1,0,0,0,-2,0
1532070023921,-7,-1,-2,-2,2,1,-1,4
1532070023926,-4,-5,2,-4,0,-1,2,1
1532070023931,5,1,2,-1,-2,1,0,0
1532070023936,-4,0,-4,1,-1,1,-2,-2
1532070023941,14,3,-1,-1,-1,0,-1,4
1532070023946,-10,-10,0,0,0,-2,-1,-1
1532070023951,-2,0,-1,1,-1,0,3,-5
1532070023956,-6,0,1,-1,-1,-2,-7,5
1532070023961,-3,-3,-2,0,1,-1,0,1
1532070023966,1,4,-2,1,-1,-1,3,-3
1532070023971,-8,0,-4,0,1,0,-3,-1
1532070023976,12,1,1,0,-1,-1,3,3
1532070023981,-2,-3,-3,0,-2,0,-6,-2
1532070023986,-5,0,-1,1,1,-1,-3,-6
1532070023991,7,-1,0,0,0,-1,3,4
1532070023996,-10,0,2,-1,1,0,-1,-5
1532070024001,4,0,-1,-3,-1,-1,-2,-2
1532070024006,2,2,2,1,0,1,3,8
1532070024011,1,-1,-3,-1,-2,-1,4,-11
1532070024016,-3,-1,0,-2,-1,-2,-6,-1
1532070024021,3,4,3,-1,-2,-1,0,-6
1532070024026,-8,-8,0,-2,-1,-2,3,8
1532070024031,14,0,-5,3,0,-1,-4,1
1532070024036,-6,-2,-1,2,0,0,3,-2
1532070024041,1,-3,-1,-1,-1,-1,-1,-3
1532070024046,14,5,-4,-2,-2,-1,-5,-6
1532070024051,-5,0,1,-2,-1,-2,4,7
1532070024056,-4,-3,-1,0,0,0,-2,-17
1532070024061,3,-2,-1,-1,-2,0,0,5
1532070024066,-13,-2,1,-3,-3,1,0,-4
1532070024071,-4,-6,-1,-1,-2,-2,-2,-9
1532070024076,4,1,-1,-1,-1,0,-1,7
1532070024081,-4,-3,-3,0,-1,-1,-3,-10
1532070024086,-2,0,0,0,0,0,5,-4
1532070024091,1,1,1,-1,-1,0,-19,0
1532070024096,-1,-2,-3,0,-2,-2,1,-4
1532070024101,-2,-2,-1,0,-2,-1,1,2
1532070024106,1,1,-2,-1,0,0,-2,-1
1532070024111,-2,-3,-2,-2,-3,-3,-1,0
1532070024116,10,1,-1,-1,-2,-1,2,2
1532070024121,-19,1,-3,-1,0,0,-5,2
1532070024126,-1,-1,1,0,-3,-2,2,3
1532070024131,10,3,1,1,1,0,1,-2
1532070024136,-2,-1,-2,0,-1,0,-1,1
1532070024141,7,2,0,-1,0,0,7,8
1532070024146,-1,-3,-1,0,0,-1,-3,-4
1532070024151,-4,-3,-1,-2,-2,-2,-1,0
1532070024156,-1,-1,1,-2,0,0,2,2
1532070024161,4,-2,-3,-3,0,-2,-2,-4
1532070024166,0,0,-2,0,-1,0,5,1
1532070024171,1,0,0,0,0,2,-8,0
1532070024176,-7,-1,0,-1,0,0,-1,0
1532070024181,3,2,0,-1,-2,-3,-3,-2
1532070024186,-8,-1,-1,-1,-3,-1,4,-1
1532070024191,8,2,-1,-2,-1,-1,1,-6
1532070024196,1,1,-1,1,-1,1,2,6
1532070024201,-6,-3,1,-3,-2,-2,-3,0
1532070024206,1,4,-1,0,0,0,-5,-11
1532070024211,-4,-5,-1,-2,-2,-2,2,4
1532070024216,-6,-1,-3,-1,0,1,-1,-5
1532070024221,6,1,2,2,1,1,0,-5
1532070024226,8,-4,-2,0,-3,-4,-6,1
1532070024231,-17,-1,1,0,-1,3,3,4
1532070024236,-5,-2,-1,-1,-1,-3,-2,-13
1532070024241,-4,-1,0,0,0,1,2,-3
1532070024246,-6,1,1,2,0,-1,-7,-1
1532070024251,9,2,-2,-1,0,-1,2,-2
1532070024256,-12,-11,-2,-2,-1,-2,3,12
1532070024261,6,0,-3,0,0,0,-4,-13
1532070024266,-11,-2,0,-2,-1,-1,0,-4
1532070024271,4,1,-2,-2,-2,-1,1,2
1532070024276,2,1,2,-1,-2,-2,-5,0
1532070024281,0,-3,1,-1,0,0,4,7
1532070024286,2,-1,-1,-1,0,1,-1,2
1532070024291,-5,-1,-5,1,1,2,-1,-6
1532070024296,-5,-2,-3,-3,-2,1,-1,-4
1532070024301,-1,-3,0,1,1,-2,-5,2
1532070024306,2,1,-1,0,-1,-1,1,2
1532070024311,2,-3,-1,-1,1,-2,7,5
1532070024316,7,1,-2,-1,-1,-3,-17,-1
1532070024321,-3,-1,-5,-3,-2,0,4,8
1532070024326,0,-1,-2,-1,0,0,-10,-19
1532070024331,3,0,2,-1,-1,-1,4,4
1532070024336,1,0,-1,-2,1,-2,2,-5
1532070024341,4,4,1,-1,-1,0,3,7
1532070024346,-15,-7,-2,-1,-2,-1,-2,-2
1532070024351,2,-2,-2,-1,-3,0,-4,4
1532070024356,-1,0,-3,0,0,0,0,-2
1532070024361,1,0,4,-1,-4,-1,-2,-3
1532070024366,8,4,-1,1,1,-1,4,1
1532070024371,-10,-2,0,-1,0,-2,-4,-8
1532070024376,3,2,1,2,-3,-2,2,5
1532070024381,-3,-4,-3,-1,-1,-1,0,-2
1532070024386,1,1,2,-1,-1,-2,-4,-3
1532070024391,-3,-1,-1,-1,-2,0,-3,-7
1532070024396,3,2,1,0,-1,0,3,12
1532070024401,-14,-2,-1,-2,0,-2,3,-8
1532070024406,5,0,-1,-1,-1,-1,-16,3
1532070024411,4,3,1,-1,-1,-1,-2,-4
1532070024416,-1,-3,-3,-3,-2,-1,6,4
1532070024421,7,1,-4,0,-1,-1,-3,0
1532070024426,-16,-4,-2,-3,-4,-2,5,6
1532070024431,-5,-1,0,-2,-1,0,0,-2
1532070024436,4,1,-1,-1,-3,-1,-1,-3
1532070024441,1,-1,0,0,-1,-2,-2,1
1532070024446,8,2,1,-1,-1,0,2,4
1532070024451,-1,-2,0,-1,1,-1,-2,-6
1532070024456,6,-1,-3,-3,-2,-1,-7,0
1532070024461,-17,-1,-1,1,0,1,4,-2
1532070024466,8,2,-4,0,2,2,2,4
1532070024471,-2,-2,-1,1,0,-1,-1,-1
1532070024476,1,0,1,0,0,1,2,-6
1532070024481,5,0,0,-2,0,-1,-4,8
1532070024486,-13,0,2,0,-3,-3,-2,-4
1532070024491,-2,-2,-2,-1,-2,1,1,3
1532070024496,6,1,-2,1,3,1,2,-2
1532070024501,-4,-2,-1,-1,-5,-1,-6,1
1532070024506,2,3,-1,0,0,-2,-3,-8
1532070024511,1,0,-1,-1,-2,1,-2,1
1532070024516,1,-1,1,1,0,0,2,8
1532070024521,-15,0,0,0,2,0,-4,-6
1532070024526,10,-2,2,-2,-1,-2,-1,2
1532070024531,0,-4,-6,-1,-2,1,-1,-1
1532070024536,-6,0,1,0,0,0,1,0
1532070024541,6,0,-1,-1,0,-3,-1,-5
1532070024546,-2,-1,0,-1,-1,-1,-3,-1
1532070024551,-3,1,2,-4,0,-2,-3,-2
1532070024556,0,1,-1,-1,-2,0,3,1
1532070024561,-8,-3,-1,-1,-2,-1,-2,-3
1532070024566,4,-1,-3,-1,0,-1,-3,-7
1532070024571,4,-5,-4,-3,1,-1,2,11
1532070024576,0,1,0,-3,-3,-4,-7,-13
1532070024581,0,-2,-3,1,-1,-2,4,-2
1532070024586,2,1,0,0,-1,0,-2,2
1532070024591,-3,-1,2,-1,0,-1,-2,-2
1532070024596,-8,-2,0,-1,0,0,5,4
1532070024601,7,-1,-7,-2,2,-1,-1,-6
1532070024606,-5,-1,0,0,-2,1,2,4
1532070024611,0,1,2,2,-2,-2,-1,-3
1532070024616,1,-1,-2,-1,-1,1,2,6
1532070024621,-1,0,2,-1,-2,-1,-3,-1
1532070024626,-2,-1,0,-2,0,0,-1,-3
1532070024631,1,-2,-7,-4,-4,1,0,-2
1532070024636,5,1,-2,-2,-1,-1,0,4
1532070024641,-16,-5,-1,-1,-3,-2,1,2
1532070024646,20,-1,0,0,-2,0,7,-1
1532070024651,-15,-1,-1,-1,1,-2,-13,4
1532070024656,-1,-3,-4,0,-1,-3,-2,-5
1532070024661,5,-1,-1,-2,0,0,0,3
1532070024666,-2,0,-2,-2,0,-1,5,7
1532070024671,3,0,1,0,1,-1,1,-7
1532070024676,2,1,1,-1,1,-2,-1,-4
1532070024681,-2,-2,-1,-2,-1,1,-1,-5
1532070024686,-5,-1,0,0,-1,-2,-1,4
1532070024691,-2,1,-4,0,-3,-2,0,-2
1532070024696,-2,-1,3,0,1,0,1,4
1532070024701,6,0,-5,0,1,0,-2,-9
1532070024706,-6,-2,-1,-3,-1,-2,-1,5
1532070024711,-2,-2,0,0,-2,-1,2,-2
1532070024716,3,-1,-2,0,-2,-2,-1,-4
1532070024721,-3,2,4,2,-1,-2,-3,0
1532070024726,-2,-1,-2,0,0,-1,-3,-2
1532070024731,4,2,0,1,-1,1,1,5
1532070024736,-1,0,-2,0,0,0,0,1
1532070024741,-4,1,2,-2,-2,0,1,-1
1532070024746,-8,-2,-2,-1,0,0,-3,-2
1532070024751,4,2,3,1,0,1,5,4
1532070024756,0,1,4,-2,-3,1,3,-16
1532070024761,2,-2,-1,-1,-1,-1,-9,5
1532070024766,1,1,1,2,0,-2,-4,-1
1532070024771,-5,-2,0,-2,0,-1,-2,-7
1532070024776,0,-2,-3,-2,-2,0,2,5
1532070024781,4,2,1,-1,-1,-2,5,3
1532070024786,-8,-3,-4,-1,-3,0,0,-4
1532070024791,4,-1,0,1,-1,-2,-3,-3
1532070024796,-2,-3,-3,-1,-2,-1,-3,0
1532070024801,6,2,0,-3,-2,-1,0,0
1532070024806,-14,-6,0,-2,0,-2,-2,11
1532070024811,-1,2,2,0,-1,1,1,-7
1532070024816,-7,-3,-1,0,-1,0,2,3
1532070024821,8,1,0,1,0,1,1,3
1532070024826,-1,0,2,-2,-1,-1,0,-7
1532070024831,2,-3,1,-2,-2,-2,-2,0
1532070024836,0,1,0,2,3,-2,-5,-3
1532070024841,0,-2,-2,-3,-2,-3,3,2
1532070024846,1,1,-2,-1,-1,-1,0,-1
1532070024851,-5,-3,-2,-3,-1,-1,-4,-3
1532070024856,2,1,0,0,1,-3,-1,1
1532070024861,1,-1,-2,-1,0,2,1,0
1532070024866,1,-2,-4,-2,-1,-2,-4,-4
1532070024871,-1,-1,-2,-3,-2,-1,1,-4
1532070024876,3,2,1,-1,-2,2,1,5
1532070024881,1,-6,-1,0,3,-4,0,2
1532070024886,4,0,1,0,-1,0,1,-6
1532070024891,0,1,-2,0,-1,1,3,6
1532070024896,-13,-2,0,-2,-2,0,-5,-9
1532070024901,4,1,-1,-2,-2,0,2,3
1532070024906,-5,0,-1,-3,0,-2,-6,-16
1532070024911,5,1,-1,1,1,-1,0,5
1532070024916,-4,-4,-1,-2,-1,-2,0,2
1532070024921,-6,-1,0,-1,-2,0,-1,-4
1532070024926,3,-1,-1,-1,-3,0,0,1
1532070024931,-6,0,-2,0,-2,0,-4,-1
1532070024936,1,-3,-2,-2,-1,-2,-2,-9
1532070024941,-3,-4,-1,0,-2,-1,-1,-1
1532070024946,-1,4,0,-2,-3,-2,2,2
1532070024951,2,3,0,0,2,0,-8,3
1532070024956,-2,-7,-1,0,-1,-1,-3,5
1532070024961,-3,-2,-1,0,-2,0,-1,-6
1532070024966,2,-2,-1,1,2,-2,-5,2
1532070024971,1,4,2,-1,-2,0,4,-4
1532070024976,-1,0,-3,-3,-2,-1,2,3
1532070024981,-3,2,3,0,-1,0,-4,1
1532070024986,-1,1,0,-1,-2,0,-1,-12
1532070024991,-5,-4,-3,0,-1,-2,-2,-4
1532070024996,2,-1,-1,-3,1,0,-1,2
1532070025001,4,-3,-3,-1,-2,0,-3,-3
1532070025006,-9,0,-1,0,1,-1,1,3
1532070025011,6,-3,-1,0,0,-1,1,2
1532070025016,2,-2,-3,-1,-2,-1,-10,-11
1532070025021,-2,1,0,-1,0,0,1,0
1532070025026,8,3,0,-2,0,1,1,9
1532070025031,-2,-6,-3,-2,-1,0,-1,-4
1532070025036,3,2,0,-2,-3,-1,4,2
1532070025041,-3,-3,-1,-3,0,0,-2,-2
1532070025046,7,-1,-1,0,-2,-1,-1,-6
1532070025051,-4,0,1,-1,1,-2,-1,0
1532070025056,3,1,-4,2,-1,0,4,3
1532070025061,-2,-2,-2,-3,-1,-2,-9,-15
1532070025066,-3,-3,-1,0,-2,2,1,4
1532070025071,-3,2,0,-2,-1,-1,3,-1
1532070025076,-2,-2,1,0,-2,-2,-2,-1
1532070025081,4,2,1,0,0,-1,6,12
1532070025086,-14,-3,-2,-2,-2,-1,1,1
1532070025091,1,-2,0,-2,-2,-2,-5,-7
1532070025096,5,1,-1,0,1,-1,3,1
1532070025101,-10,-3,-3,-2,-2,-2,-2,-7
1532070025106,4,1,0,0,1,0,-3,3
1532070025111,-3,1,0,-1,0,0,1,4
1532070025116,-11,2,0,0,0,4,-1,-1
1532070025121,10,-3,-4,-2,-1,-1,-2,2
1532070025126,-1,-1,0,0,-2,-2,-6,-2
1532070025131,-3,-2,0,-1,0,-1,-2,-10
1532070025136,-4,-1,3,0,-1,-1,3,4
1532070025141,7,3,1,-1,-3,-1,-19,0
1532070025146,-2,-1,-1,-1,-1,0,4,-4
1532070025151,3,-1,-1,-1,0,-1,-1,7
1532070025156,-12,1,0,-1,-2,-1,0,1
1532070025161,-4,1,-1,2,1,1,6,-6
1532070025166,4,-1,-2,-1,1,-1,-2,1
1532070025171,1,-1,-2,1,0,1,1,-2
1532070025176,4,-1,1,1,-1,-3,-3,1
1532070025181,-2,0,0,-1,-1,0,3,-2
1532070025186,-9,0,0,-1,-2,-1,-3,-4
1532070025191,7,2,0,0,0,-1,1,-3
1532070025196,-1,-10,-4,-1,1,-1,-2,1
1532070025201,-2,-1,0,-1,0,-2,0,-9
1532070025206,5,-1,1,0,1,3,10,-2
1532070025211,-3,-2,-1,-1,-3,-3,-21,5
1532070025216,6,2,1,-2,-1,-1,-5,-16
1532070025221,6,2,2,0,-2,0,4,5
1532070025226,-3,-3,0,-1,-1,-1,-4,-2
1532070025231,1,-2,0,-1,0,-1,4,-1
1532070025236,-1,3,-1,-1,0,1,-2,1
1532070025241,-5,-1,-1,-1,1,-1,1,5
1532070025246,3,0,-2,-2,-1,1,0,-2
1532070025251,-1,-2,1,1,-2,-2,0,-2
1532070025256,1,-1,1,0,0,-1,-2,2
1532070025261,-3,-1,-2,0,-1,-1,2,-6
1532070025266,-7,-3,-1,0,0,-1,-5,1
1532070025271,5,2,-3,-3,0,-1,0,-1
1532070025276,-7,-4,-2,-2,0,-1,-1,1
1532070025281,-7,-1,0,-1,-2,0,4,-8
1532070025286,9,2,0,2,0,0,-20,4
1532070025291,-1,2,-3,-1,-3,0,2,-11
1532070025296,-9,-6,-2,-1,0,-3,-3,-3
1532070025301,1,-1,-1,-2,0,-2,1,1
1532070025306,1,-1,-3,-3,-1,-2,5,-1
1532070025311,-1,-1,3,1,-3,-1,2,2
1532070025316,5,0,0,-2,-2,0,-1,1
1532070025321,-4,0,0,1,-1,2,-1,2
1532070025326,0,-2,1,-3,0,-2,1,-2
1532070025331,-4,1,0,0,-1,-2,-1,2
1532070025336,3,-1,-6,-3,-3,-1,3,0
1532070025341,3,-1,1,-2,0,-2,-1,6
1532070025346,-3,2,2,1,-1,1,1,-5
1532070025351,-4,-3,-2,-1,-2,0,-1,-2
1532070025356,1,3,1,0,-2,0,-3,-1
1532070025361,0,-2,-3,0,-1,-1,0,-3
1532070025366,0,-2,2,-2,-2,-3,-1,-1
1532070025371,-8,-2,-1,0,-1,1,-1,-2
1532070025376,5,1,0,0,0,0,-1,7
1532070025381,-7,-1,-3,-2,0,0,4,-5
1532070025386,6,-2,-2,0,1,-1,-2,-1
1532070025391,-12,-2,0,-3,-1,-2,-2,4
1532070025396,6,-2,-2,-3,-2,-3,-6,-8
1532070025401,7,4,-2,-1,-2,1,7,9
1532070025406,-8,-12,-3,-1,0,-3,3,-4
1532070025411,-16,1,1,-3,-1,0,8,-12
1532070025416,10,0,-3,0,1,-2,-14,0
1532070025421,2,1,-2,0,0,-1,-6,-3
1532070025426,1,3,1,1,-4,-2,1,5
1532070025431,12,-3,-2,1,3,0,-7,3
1532070025436,-7,1,1,-2,0,-1,5,-9
1532070025441,-6,-3,2,-1,-3,-1,-5,-1
1532070025446,4,3,1,-1,1,2,1,4
1532070025451,-2,-1,-2,-2,-3,-1,2,0
1532070025456,3,1,-2,0,-2,-3,0,3
1532070025461,5,1,3,-1,-1,-2,-4,1
1532070025466,-18,-2,-3,-1,-1,-2,-1,-1
1532070025471,6,0,1,0,0,-2,-3,1
1532070025476,-2,0,0,1,-1,0,2,1
1532070025481,-3,-2,1,0,0,2,-1,-3
1532070025486,7,2,0,0,-5,-2,-4,-2
1532070025491,-7,-2,-3,-2,-1,1,-2,0
1532070025496,-3,0,3,-2,-1,0,2,0
1532070025501,1,-1,0,-1,-1,-1,-3,-1
1532070025506,3,2,0,0,3,1,7,-1
1532070025511,-2,-1,-3,-2,-1,-1,-4,2
1532070025516,2,0,1,-1,-1,0,2,1
1532070025521,0,-1,0,0,0,-1,0,10
1532070025526,-4,-2,-3,-1,1,-1,-3,-15
1532070025531,0,-2,0,0,-2,-1,3,-1
1532070025536,-2,1,-1,1,0,-1,-3,-4
1532070025541,-5,-2,-3,0,1,-2,-1,3
1532070025546,3,-1,-1,0,-2,0,-2,2
1532070025551,1,0,3,-1,-1,-3,0,1
1532070025556,-6,0,0,-1,0,1,-3,-7
1532070025561,-9,-2,-2,1,1,2,0,-6
1532070025566,5,-1,0,-3,0,2,3,1
1532070025571,0,-3,-3,-1,-3,-1,-2,-5
1532070025576,2,1,-3,-1,0,0,-3,3
1532070025581,5,-3,-1,-1,-1,-2,6,-1
1532070025586,-9,-2,-2,0,-1,-3,-18,-6
1532070025591,2,1,-1,1,0,-1,-3,-3
1532070025596,-9,1,2,-1,-1,-2,-2,-8
1532070025601,8,0,0,-1,-2,-1,1,4
1532070025606,2,-3,-2,-3,-2,0,4,7
1532070025611,-9,-5,-1,-2,-3,-1,-1,-4
1532070025616,2,-3,0,0,-3,-2,-3,-3
1532070025621,2,0,0,1,-1,2,-1,-1
1532070025626,-3,-3,-2,0,0,-2,6,6
1532070025631,-1,2,1,-1,0,-1,-1,-1
1532070025636,3,-1,-1,0,-2,1,1,-1
1532070025641,0,0,0,-1,-2,-2,-1,1
1532070025646,0,0,-2,-1,-2,0,0,-4
1532070025651,-4,-1,0,-1,0,-2,0,1
1532070025656,6,-5,-3,-2,-2,-3,6,-3
1532070025661,0,2,2,-1,0,-2,-14,1
1532070025666,-2,-2,0,-3,-3,-2,-3,-5
1532070025671,-3,-1,-4,-1,-2,-1,1,-2
1532070025676,-3,0,-2,-1,0,0,1,2
1532070025681,10,6,0,-2,-3,0,2,2
1532070025686,-16,-8,0,0,0,0,2,2
1532070025691,0,-1,0,-1,0,-1,-1,-4
1532070025696,3,2,0,-1,0,1,-5,-1
1532070025701,-1,-3,0,1,0,-1,0,-3
1532070025706,9,4,0,-1,0,-1,1,2
1532070025711,-6,-2,-3,-1,-1,-1,-1,-1
1532070025716,2,0,-2,1,-1,0,-2,3
1532070025721,-8,-3,-2,-1,1,0,-2,-3
1532070025726,1,0,0,1,-1,-2,4,4
1532070025731,4,0,1,-2,-1,-1,-4,1
1532070025736,0,0,4,-1,0,-1,1,0
1532070025741,-2,-5,-3,-4,-2,0,12,8
1532070025746,1,-1,-2,-1,1,0,-17,-12
1532070025751,1,2,1,1,-1,0,0,-8
1532070025756,-7,-1,0,0,0,-1,-1,5
1532070025761,1,0,-1,-1,-3,-1,-2,-3
1532070025766,-2,1,0,0,-2,-3,3,-6
1532070025771,-1,1,1,0,1,0,0,0
1532070025776,1,-4,-5,-2,-1,-2,-6,-9
1532070025781,1,-2,1,-2,0,0,-1,-2
1532070025786,-3,2,-1,0,0,-1,0,6
1532070025791,0,1,-1,-1,-3,1,-4,-2
1532070025796,-2,-3,0,-1,1,-1,0,4
1532070025801,0,-2,1,1,-1,-1,-4,-1
1532070025806,-2,0,-2,-3,-2,0,9,5
1532070025811,11,1,1,0,-2,-2,-6,4
1532070025816,-19,-2,-5,-1,0,-1,-2,-7
1532070025821,7,0,-3,-2,0,-2,1,6
1532070025826,-1,-2,0,-2,-1,0,4,-7
1532070025831,-3,-1,-1,2,0,0,0,-3
1532070025836,-1,1,2,-3,-2,-2,-1,0
1532070025841,0,0,-1,1,-2,-2,-4,1
1532070025846,0,0,-1,1,0,0,-1,4
1532070025851,-4,-1,-3,0,-2,0,3,3
1532070025856,1,0,1,-1,-2,-2,-3,-5
1532070025861,-4,0,-1,-3,-1,1,0,-6
1532070025866,3,0,2,-2,-1,-2,-1,1
1532070025871,-2,-2,2,0,0,-2,-4,-5
1532070025876,6,-1,-1,0,0,2,1,3
1532070025881,3,2,0,2,-3,0,-1,-6
1532070025886,-16,-5,-1,0,1,-4,-7,-12
1532070025891,4,1,-2,-1,1,0,7,3
1532070025896,-3,-2,-1,-2,-2,-2,-16,0
1532070025901,6,3,3,0,1,0,-1,8
1532070025906,5,4,0,-2,-2,0,1,-7
1532070025911,-2,-2,1,1,-1,-1,4,8
1532070025916,0,-3,0,-1,-2,0,1,-3
1532070025921,-9,-5,-2,-1,0,-2,-4,-4
1532070025926,1,0,0,0,1,-2,-3,0
1532070025931,-3,-2,-1,-2,-2,-2,-3,-3
1532070025936,2,1,0,-1,-1,-1,5,3
1532070025941,2,-1,-5,-1,-1,-1,-4,1
1532070025946,-9,-1,1,2,-1,1,4,1
1532070025951,2,0,-5,-4,-2,-1,-2,-4
1532070025956,-1,0,0,0,0,-2,-2,-2
1532070025961,-3,-3,0,-3,0,-1,9,8
1532070025966,14,5,-2,-1,1,0,-10,-7
1532070025971,-10,-9,-6,-2,-1,0,0,1
1532070025976,0,2,1,1,-2,0,0,-3
1532070025981,-5,-1,0,-2,-1,-2,3,-3
1532070025986,10,2,-1,0,-1,1,4,5
1532070025991,-1,2,3,-3,-2,0,0,-1
1532070025996,0,0,-2,-1,0,-2,1,1
1532070026001,0,3,-2,3,-2,-1,-4,-9
1532070026006,-9,-4,-1,-1,-3,-2,-3,4
1532070026011,-2,-1,-1,-1,1,-3,-3,-5
1532070026016,4,0,2,-2,0,-1,0,4
1532070026021,-9,-3,-3,-1,-2,1,-2,-6
1532070026026,1,-2,-1,0,-2,-1,-2,4
1532070026031,5,-1,-1,0,0,-2,-2,-2
1532070026036,10,4,-1,0,0,-1,0,1
1532070026041,-16,-9,-2,-3,-1,0,6,3
1532070026046,2,-1,-1,0,0,-2,-11,1
1532070026051,0,1,1,-1,-2,0,1,0
1532070026056,-7,-5,-6,-2,-1,-1,-1,2
1532070026061,9,1,-1,-3,0,-2,-7,-10
1532070026066,-1,-2,-1,-1,-2,1,7,9
1532070026071,-11,-2,0,2,0,0,-3,-5
1532070026076,11,2,2,2,-2,1,2,7
1532070026081,-22,-4,-4,-2,1,-2,-1,-5
1532070026086,6,-3,0,-3,-2,-1,0,-9
1532070026091,5,2,0,0,-2,0,-7,-2
1532070026096,-8,-3,-1,0,0,1,2,-6
1532070026101,5,2,1,0,0,0,-3,-1
1532070026106,-6,-3,-2,-3,-1,-2,1,-3
1532070026111,6,4,-1,-1,-1,-1,0,1
1532070026116,-22,-7,-1,-2,-2,-1,1,-8
1532070026121,12,2,0,1,1,-1,-4,3
1532070026126,-1,-1,-2,0,1,0,6,8
1532070026131,-2,-2,-3,-4,0,0,3,-3
1532070026136,4,0,-1,0,-3,-1,-2,-3
1532070026141,1,2,1,-2,-2,-1,2,4
1532070026146,-2,-1,0,1,-1,-1,-3,-11
1532070026151,-9,-2,-1,-2,-1,-1,5,-1
1532070026156,4,-2,-3,-1,-1,-1,-1,-4
1532070026161,0,0,-1,-1,-3,-2,-3,4
1532070026166,-1,0,0,0,0,-2,0,-2
1532070026171,9,0,-1,0,-2,-1,-3,1
1532070026176,-8,-1,1,-1,1,-2,-3,-4
1532070026181,1,0,0,-2,0,1,0,0
1532070026186,-2,-1,1,0,-1,3,0,5
1532070026191,2,-1,1,-1,0,-2,-7,-6
1532070026196,2,0,-5,-1,-1,0,1,5
1532070026201,-4,-2,-1,0,0,-1,-1,-5
1532070026206,0,0,-2,-2,-2,0,1,5
1532070026211,-4,-4,-3,-1,2,1,-3,2
1532070026216,4,4,-1,-1,-2,1,8,4
1532070026221,-13,-7,-3,0,-1,-3,-16,-11
1532070026226,2,0,-2,2,1,-1,-2,-1
1532070026231,-5,-1,0,-1,-4,0,0,-4
1532070026236,0,-4,-3,1,-2,-2,-2,1
1532070026241,3,0,-1,0,0,0,2,-1
1532070026246,-2,-2,2,-2,-1,-1,-2,-5
1532070026251,5,-1,0,0,0,0,1,3
1532070026256,0,-2,-1,0,0,0,3,0
1532070026261,0,-1,1,1,-2,-1,2,7
1532070026266,0,-1,1,1,2,0,-8,-1
1532070026271,11,6,2,0,-3,0,-1,-8
1532070026276,-14,-5,-3,-1,-3,-1,3,4
1532070026281,-1,-2,0,0,-1,0,-3,6
1532070026286,2,-1,-4,-2,-2,-2,0,-8
1532070026291,-2,-1,-1,0,0,1,0,-3
1532070026296,4,2,2,1,-1,-2,-3,-5
1532070026301,0,-2,-1,-1,-1,-1,0,1
1532070026306,-2,-1,4,-2,-2,-2,2,11
1532070026311,-7,0,-4,-1,1,-3,-3,-4
1532070026316,-2,0,-2,0,0,1,1,-1
1532070026321,-5,-3,0,0,0,-2,-1,-2
1532070026326,2,0,0,-1,-1,0,-2,0
1532070026331,1,-1,0,0,-1,1,0,1
1532070026336,1,-1,0,-1,0,-1,-1,2
1532070026341,0,0,-1,0,0,0,-1,-11
1532070026346,0,-1,-1,-1,-2,-1,-2,-8
1532070026351,-5,-2,1,1,-2,-1,9,7
1532070026356,-1,-1,-3,-1,-1,-2,-13,-1
1532070026361,7,0,1,0,0,1,0,3
1532070026366,-2,0,-1,-2,-1,-1,0,0
1532070026371,4,0,-3,-1,0,0,1,0
1532070026376,3,3,0,-1,-2,-1,1,-2
1532070026381,6,-5,-2,-2,1,-2,0,4
1532070026386,2,-1,-2,1,-1,2,1,3
1532070026391,1,-1,-1,-1,0,0,-5,-5
1532070026396,-1,-1,1,-1,0,0,1,1
1532070026401,0,4,-2,-2,-2,0,-4,-4
1532070026406,-1,-3,0,-1,0,-1,3,6
1532070026411,8,-1,0,1,-1,-2,-1,-4
1532070026416,-21,-5,0,-1,-3,-3,-1,-6
1532070026421,-2,1,-1,0,-2,0,-5,-14
1532070026426,2,-2,1,0,-2,-2,2,-3
1532070026431,-3,-2,-1,-2,-2,-2,-1,-1
1532070026436,2,-1,-1,-2,0,-1,0,-9
1532070026441,-4,-2,-2,1,0,-2,0,5
1532070026446,-4,1,-1,1,-2,-2,2,-6
1532070026451,-2,0,1,-1,1,0,-5,-5
1532070026456,6,-1,-1,0,-3,0,-1,0
1532070026461,-3,-1,-1,-1,-2,-1,1,1
1532070026466,-1,-2,-1,-2,-1,0,-2,3
1532070026471,11,-1,-1,-1,-2,-2,1,3
1532070026476,-1,0,-1,-2,1,-1,2,-1
1532070026481,-5,-2,-1,1,-2,-1,-2,-1
1532070026486,-6,0,-2,1,1,0,-4,-14
1532070026491,-1,-7,-2,-1,1,-1,-1,3
1532070026496,6,2,2,0,-1,0,2,4
1532070026501,-4,-2,0,-1,-1,-1,1,3
1532070026506,2,2,-1,-1,0,-1,-4,-14
1532070026511,-4,0,0,-3,-2,-1,1,-1
1532070026516,-1,-2,-1,-2,1,-3,-5,-6
1532070026521,5,2,-3,1,1,2,4,5
1532070026526,-11,-3,-1,-2,-1,-1,5,0
1532070026531,-3,3,-1,0,0,-1,-20,0
1532070026536,1,-1,-2,2,-1,-1,1,1
1532070026541,-3,-2,-1,-3,-1,2,-2,-1
1532070026546,3,-1,0,0,-3,0,1,4
1532070026551,-8,-1,-1,-1,-1,0,2,-4
1532070026556,-1,0,0,-1,0,0,1,2
1532070026561,1,-1,-1,-1,-1,-1,-2,-3
1532070026566,4,-2,-2,-1,0,-1,-4,2
1532070026571,-12,-2,-1,-1,-1,-1,6,4
1532070026576,0,0,0,-1,-3,-1,-6,-7
1532070026581,6,0,0,-1,1,-2,2,-1
1532070026586,-1,-1,-1,0,-1,-1,-1,4
1532070026591,0,-1,-1,-1,-2,0,1,8
1532070026596,4,2,-1,0,0,0,-2,-11
1532070026601,-15,-1,-1,-2,-3,-2,2,0
1532070026606,3,-1,-1,0,1,-2,-5,-3
1532070026611,2,0,-2,0,-1,0,3,9
1532070026616,0,-3,-2,-2,-1,0,-1,1
1532070026621,0,2,-2,0,-2,0,5,-6
1532070026626,4,3,0,0,0,-1,-13,-4
1532070026631,-7,-1,-1,-2,0,-1,1,-6
1532070026636,6,0,0,-1,0,1,0,5
1532070026641,2,-2,1,-2,1,0,3,2
1532070026646,-5,-2,-2,-1,-1,-1,4,5
1532070026651,5,-1,0,1,-2,-1,-3,-5
1532070026656,-5,-2,-1,0,-2,-1,3,8
1532070026661,-2,-2,2,2,1,0,-3,-9
1532070026666,-3,-2,-1,-4,-2,-1,-6,-5
1532070026671,-3,1,-1,-1,-1,-3,-3,-11
1532070026676,-1,-2,-2,-2,-1,-2,0,1
1532070026681,0,-2,-3,-2,0,-2,-4,1
1532070026686,2,-1,0,0,-2,-1,0,4
1532070026691,-1,-1,-1,1,1,-1,1,-1
1532070026696,-1,-1,-2,-1,0,0,-2,-1
1532070026701,7,0,-3,-2,-1,0,-3,0
1532070026706,-13,-2,1,-3,0,-2,5,-10
1532070026711,9,1,-1,0,1,-2,-9,4
1532070026716,-12,-3,-1,0,-1,0,-1,-1
1532070026721,7,-1,1,-2,-2,-2,-5,-2
1532070026726,3,2,0,-2,-2,1,4,1
1532070026731,-1,1,-1,-2,-1,0,1,-3
1532070026736,2,0,-1,-2,0,-1,-1,-5
1532070026741,2,1,-1,1,-1,-1,0,3
1532070026746,-10,-3,-3,-2,0,-2,-2,0
1532070026751,-2,-2,0,0,-2,0,1,-5
1532070026756,3,1,-1,1,-1,-1,2,11
1532070026761,5,-2,-1,-2,0,-1,-4,-4
1532070026766,2,-3,-2,1,1,1,0,3
1532070026771,-3,-1,0,-1,-1,0,0,4
1532070026776,-3,0,-2,0,1,1,4,0
1532070026781,-7,-1,0,-2,-2,0,-2,1
1532070026786,3,-1,-1,-1,-1,-1,-4,-1
1532070026791,-1,0,-1,0,-2,0,1,-1
1532070026796,0,0,2,-2,-2,-2,-4,-2
1532070026801,-3,-1,0,0,-2,-2,-1,-5
1532070026806,0,-1,0,0,0,-1,1,3
1532070026811,-1,-1,0,-2,0,0,0,-1
1532070026816,2,-2,-2,-3,-1,-1,-2,-3
1532070026821,-7,2,-1,-2,1,0,-3,-6
1532070026826,6,-1,-2,-2,-1,-2,0,4
1532070026831,0,-3,-2,-1,-1,0,-2,-3
1532070026836,-11,-1,-1,-1,0,-1,-1,-1
1532070026841,0,2,1,1,-1,0,0,2
1532070026846,2,1,0,0,-2,0,-3,-8
1532070026851,-1,-2,-2,-3,0,-1,0,-1
1532070026856,8,0,-2,-1,-1,2,6,0
1532070026861,-7,-2,0,0,-1,-3,-16,-4
1532070026866,0,-1,-2,-1,-2,-1,2,4
1532070026871,4,0,-1,1,0,-1,1,0
1532070026876,-2,1,-1,0,-1,-2,1,3
1532070026881,-3,-4,0,-3,-1,-1,-1,-2
1532070026886,-4,-2,-2,0,0,-1,-1,1
1532070026891,-3,0,1,0,-1,0,-1,-2
1532070026896,3,1,-1,-3,-1,2,3,3
1532070026901,0,-1,-1,-1,0,0,4,3
1532070026906,-2,-1,-1,-1,0,-2,-9,-11
1532070026911,-1,-2,-1,-1,-2,-1,2,-2
1532070026916,0,-1,-1,1,0,-1,-2,-4
1532070026921,-1,0,-1,0,-1,-1,2,-3
1532070026926,10,4,0,-1,-2,0,0,2
1532070026931,-13,-7,-2,0,1,-1,-2,0
1532070026936,-4,0,1,0,-2,-2,0,-2
1532070026941,-1,-2,-2,1,0,-1,-3,-2
1532070026946,3,1,-1,0,-2,0,2,-1
1532070026951,-3,2,1,-3,-1,1,1,6
1532070026956,5,-2,-1,0,-2,1,1,-1
1532070026961,3,-2,0,-2,0,-1,1,0
1532070026966,-1,0,-2,0,2,0,0,6
1532070026971,-1,0,-1,-1,-2,-2,-1,-7
1532070026976,-5,-2,-2,-1,-1,-1,-5,-1
1532070026981,-2,1,1,0,-1,0,7,7
1532070026986,-6,-3,-1,0,-2,-1,-9,-18
1532070026991,1,0,-2,-2,-1,-1,-1,-1
1532070026996,1,0,-1,0,1,-1,-1,-2
1532070027001,-2,-1,-3,-1,-3,-1,-1,-2
1532070027006,-4,-3,-2,-1,-1,1,5,7
1532070027011,7,-1,0,-1,1,1,-1,-2
1532070027016,-8,-3,0,0,-2,-1,-3,-7
1532070027021,2,0,0,-1,-3,-1,-1,2
1532070027026,-4,-2,0,-2,-1,0,1,-1
1532070027031,-1,2,0,1,-3,-1,-1,2
1532070027036,5,-1,-3,1,3,-1,-5,-6
1532070027041,7,1,-1,-1,-3,2,8,-1
1532070027046,-13,-3,-1,-2,0,-1,-20,-1
1532070027051,7,2,0,1,-1,0,-2,-1
1532070027056,1,-3,-2,-3,-3,-1,0,2
1532070027061,-6,-1,-3,1,1,-1,-1,-5
1532070027066,6,0,0,-1,0,1,5,-4
1532070027071,-3,-1,0,0,-1,-1,3,7
1532070027076,-4,-2,-1,-3,-4,-1,-5,-5
1532070027081,0,-1,0,-1,1,0,-1,7
1532070027086,-2,0,0,1,1,0,4,-3
1532070027091,-7,-1,-1,0,-1,-1,-3,-7
1532070027096,0,1,-1,2,0,0,3,2
1532070027101,-1,-1,-1,-1,0,0,1,1
1532070027106,0,0,-1,-1,-3,-1,3,5
1532070027111,-4,-3,-2,-1,-3,-1,-2,-5
1532070027116,6,0,2,-2,-2,-3,0,2
1532070027121,-5,-2,-1,-1,-1,-2,4,-8
1532070027126,-1,-2,0,0,-1,-3,-12,1
1532070027131,8,1,0,-1,-2,0,0,-7
1532070027136,-15,-11,-4,-2,0,-1,-3,2
1532070027141,2,0,0,1,-2,1,-6,3
1532070027146,-2,-1,0,-1,-1,-1,10,3
1532070027151,9,1,-3,0,2,0,-1,-2
1532070027156,-2,2,1,1,0,1,-1,2
1532070027161,3,1,0,-1,0,0,1,3
1532070027166,-2,-3,-2,0,0,-2,2,2
1532070027171,-6,-2,-2,-1,0,-1,-5,-1
1532070027176,2,1,1,0,0,-1,1,2
1532070027181,-5,-2,1,-2,-1,-2,-2,0
1532070027186,2,-1,1,-1,-4,-1,-2,-2
1532070027191,-2,-2,1,0,-1,0,5,7
1532070027196,2,-1,-2,-3,-1,-3,-2,-9
1532070027201,-2,-2,-1,0,0,1,-2,-3
1532070027206,0,-1,-1,0,1,0,5,3
1532070027211,3,0,1,1,-1,-1,4,8
1532070027216,-1,2,0,0,-3,2,-6,-4
1532070027221,6,-1,-1,-1,-1,0,-2,0
1532070027226,-11,-2,-1,-1,-2,-1,1,1
1532070027231,-2,-2,-2,-1,0,0,1,-8
1532070027236,3,7,0,-2,0,1,2,1
1532070027241,-11,-9,-3,-1,-2,-3,-6,-7
1532070027246,3,0,0,0,0,1,4,5
1532070027251,3,0,-2,-2,-1,-3,-2,4
1532070027256,-13,-4,-1,0,-2,-1,-2,-3
1532070027261,3,4,0,-2,-3,0,0,-6
1532070027266,0,-2,-2,0,-1,0,-3,-5
1532070027271,-4,-3,-1,0,-1,1,-5,-3
1532070027276,6,-1,0,0,0,-1,-3,-1
1532070027281,-1,-1,0,-2,0,0,8,2
1532070027286,-1,-2,-1,-1,-1,-3,-9,1
1532070027291,-1,1,-3,0,0,0,-2,3
1532070027296,4,-2,0,-1,-2,0,-4,0
1532070027301,-2,1,-2,0,-1,0,1,-2
1532070027306,5,1,0,1,0,0,-1,0
1532070027311,-2,0,-1,-2,2,0,1,-1
1532070027316,4,1,-1,0,0,-2,1,2
1532070027321,-3,-1,-2,0,-2,-2,-5,-3
1532070027326,-2,0,-1,0,0,0,5,1
1532070027331,16,3,-1,0,-1,-1,-3,2
1532070027336,-9,-10,-2,-3,1,-2,-1,-2
1532070027341,4,1,-1,0,1,0,-1,-2
1532070027346,-9,0,0,0,-1,-1,-2,-1
1532070027351,4,1,-1,-1,-3,0,1,-6
1532070027356,-1,0,0,-2,-1,0,1,-6
1532070027361,-1,-2,-1,-1,0,-1,-5,-3
1532070027366,2,2,0,-2,-1,1,4,-6
1532070027371,-10,-2,1,-2,-1,-1,-1,-4
1532070027376,4,2,0,0,-2,-2,-2,2
1532070027381,4,0,0,-1,-2,0,3,7
1532070027386,-5,-3,-1,1,0,-1,1,-4
1532070027391,0,0,-1,0,-1,-2,-6,-7
1532070027396,-2,1,0,1,-2,1,6,6
1532070027401,16,5,1,0,1,-1,-2,2
1532070027406,-17,-7,0,-1,-2,-1,-3,-2
1532070027411,-3,-3,-1,0,-2,0,-2,-4
1532070027416,1,-1,-2,-1,0,-1,4,-5
1532070027421,-7,-4,-1,-1,-1,-2,-12,6
1532070027426,-2,2,-1,-4,0,-2,1,0
1532070027431,-2,-3,-1,1,-1,0,1,2
1532070027436,-4,-2,-1,-1,1,0,-1,0
1532070027441,-4,2,0,-3,-4,-1,-1,-4
1532070027446,7,0,-2,0,1,-2,-1,3
1532070027451,4,-2,0,-1,-1,-2,-3,0
1532070027456,-12,-2,-3,0,1,-2,0,0
1532070027461,-4,-2,-2,0,1,-1,1,-8
1532070027466,7,-1,-3,-1,-3,-1,-1,2
1532070027471,4,2,-2,-1,2,0,1,-1
1532070027476,2,0,-2,-1,-1,0,-4,2
1532070027481,-3,-1,-1,0,-3,-2,0,-1
1532070027486,6,4,1,-2,-1,-1,-4,-11
1532070027491,-7,-9,-4,-2,0,-1,-2,8
1532070027496,6,1,0,-1,1,0,2,8
1532070027501,-8,-2,0,1,0,-1,1,-3
1532070027506,5,1,-1,0,-1,0,3,-1
1532070027511,1,3,1,-2,-4,-2,2,6
1532070027516,-10,-2,0,-1,0,-2,-4,-4
1532070027521,-3,-2,-2,-1,-2,0,0,-3
1532070027526,1,-2,-1,1,1,1,4,6
1532070027531,-3,0,1,-1,0,-1,-1,-6
1532070027536,-5,0,-3,-1,-2,0,-4,-2
1532070027541,3,0,0,-2,1,-1,3,-1
1532070027546,-2,-3,-1,-1,1,1,-3,-1
1532070027551,-9,-3,2,-2,-3,-1,-1,-4
1532070027556,7,0,-1,-2,-2,0,-3,-9
1532070027561,4,-3,0,-1,1,-2,-3,1
1532070027566,3,0,1,-3,0,0,-4,2
1532070027571,0,0,1,1,0,0,-4,-4
1532070027576,1,0,0,0,-1,0,3,-3
1532070027581,-2,-2,-2,-1,0,0,0,3
1532070027586,-5,-2,-2,1,0,-3,-3,-3
1532070027591,5,6,0,-1,-2,-1,1,1
1532070027596,-7,-9,-3,-3,-1,1,-3,-1
1532070027601,-3,1,-1,0,-3,0,1,-2
1532070027606,3,-1,-1,-1,0,0,-1,-1
1532070027611,-2,-1,-1,0,0,1,-1,-5
1532070027616,1,2,0,1,0,0,1,0
1532070027621,2,0,0,1,0,3,10,3
1532070027626,-2,1,-1,0,-3,-2,-19,-11
1532070027631,-1,-3,-1,-1,1,-1,2,7
1532070027636,4,2,0,-2,-2,-1,1,-3
1532070027641,-3,-3,0,0,0,0,-4,-2
1532070027646,1,2,0,-1,-1,0,3,2
1532070027651,-3,-2,1,-1,-1,-1,-2,-3
1532070027656,14,2,1,0,1,-1,-4,3
1532070027661,-1,0,-1,-1,-2,-2,1,2
1532070027666,-5,-3,-1,-1,-2,0,4,-3
1532070027671,1,0,-1,-1,0,1,-3,4
1532070027676,0,-1,1,-1,0,0,0,-5
1532070027681,2,-1,-1,0,1,1,-3,-4
1532070027686,-5,0,0,-2,0,-2,1,-1
1532070027691,-4,-3,-2,0,-2,-3,-1,-4
1532070027696,5,6,0,0,-2,1,0,1
1532070027701,-11,-10,-4,-2,-1,-2,-2,-1
1532070027706,2,0,-2,-1,0,0,-2,-7
1532070027711,-1,-3,-2,-1,-1,-2,1,1
1532070027716,3,0,-1,0,-1,-1,-2,-3
1532070027721,0,2,0,-1,-4,-2,-2,-4
1532070027726,1,-1,-1,-2,-2,-1,4,9
1532070027731,-4,-1,-2,-2,0,0,0,-2
1532070027736,-6,-3,0,-2,-2,1,2,-1
1532070027741,-1,1,0,-1,1,-2,-4,-3
1532070027746,6,0,2,0,0,-1,2,-2
1532070027751,-6,-2,0,-1,-1,-2,-3,-9
1532070027756,-2,-2,-3,-2,-2,-3,-2,4
1532070027761,-2,1,-1,-1,1,-1,4,5
1532070027766,6,1,-1,-2,0,-1,-2,2
1532070027771,12,2,0,-3,-2,0,-2,-9
1532070027776,-17,-5,-1,-1,-2,0,1,1
1532070027781,1,1,-1,0,0,-1,1,6
1532070027786,-2,-1,0,-2,-2,-1,4,-10
1532070027791,-2,1,-1,-1,-1,-2,-23,0
1532070027796,-1,-1,0,-1,-1,0,0,0
1532070027801,0,0,-3,0,-1,0,-1,-4
1532070027806,-1,-2,-1,-1,-2,-2,2,7
1532070027811,5,0,-2,-1,-1,-1,3,-2
1532070027816,-15,0,-1,0,-1,-2,-3,-2
1532070027821,-3,1,1,-1,0,-2,-3,1
1532070027826,18,0,0,-1,0,0,-2,3
1532070027831,-7,-3,-1,0,0,0,2,3
1532070027836,5,-1,-1,0,-1,-2,0,0
1532070027841,5,1,0,-1,-2,0,1,-1
1532070027846,-14,0,-2,1,0,-1,-3,-5
1532070027851,0,-1,0,-2,-1,-3,3,-1
1532070027856,5,-1,0,-1,1,0,2,2
1532070027861,3,0,0,0,0,-2,-3,-3
1532070027866,1,-1,-2,-2,0,-1,-1,0
1532070027871,-3,-1,-1,0,-1,0,3,-8
1532070027876,4,1,-1,-2,-2,-1,-5,-1
1532070027881,-10,-3,1,-1,-2,-2,0,-1
1532070027886,0,0,0,0,1,-2,-1,-1
1532070027891,-3,1,0,0,1,-1,1,2
1532070027896,2,-2,-2,0,-1,0,1,-4
1532070027901,-6,0,-1,-1,-1,1,-2,-6
1532070027906,0,-1,0,-1,0,-2,-2,2
1532070027911,-3,-1,0,0,-2,-2,2,2
1532070027916,5,-2,1,0,-2,-2,-4,-3
1532070027921,-2,-1,0,-2,-2,-1,-1,-1
1532070027926,-5,-1,1,0,0,-1,-1,1
1532070027931,-2,-2,-1,-1,-1,1,-3,-2
1532070027936,-10,-3,-3,-1,0,0,2,-2
1532070027941,3,-2,-1,-1,-2,-2,-1,0
1532070027946,-1,0,0,0,-1,-2,-1,-2
1532070027951,-2,-1,0,-1,-1,1,3,9
1532070027956,0,0,-2,1,0,0,-2,-3
1532070027961,0,-1,-2,-2,0,0,6,-2
1532070027966,2,0,-1,-1,-1,-2,-21,0
1532070027971,1,-1,-1,0,-3,-1,0,-1
1532070027976,-7,-2,1,-2,0,0,2,4
1532070027981,3,0,-1,0,0,-2,-2,-10
1532070027986,-3,-2,0,-2,-1,-1,5,4
1532070027991,-1,0,-2,-1,1,-2,-4,-9
1532070027996,4,4,0,0,-1,1,2,4
1532070028001,-14,-9,-3,-1,1,0,-4,-2
1532070028006,2,-1,-1,0,-1,0,1,-1
1532070028011,-1,-2,-1,-1,-2,0,0,0
1532070028016,7,-1,0,1,-1,-1,1,-1
1532070028021,-8,0,-2,-2,-3,0,-2,2
1532070028026,13,3,-1,1,0,1,2,3
1532070028031,-8,-2,2,0,0,1,0,0
1532070028036,-2,-1,-1,-1,0,-2,3,4
1532070028041,-2,1,2,-1,0,-3,-12,-17
1532070028046,4,1,0,-2,-1,-2,3,-2
1532070028051,-5,0,0,-1,0,-3,-3,3
1532070028056,4,0,1,-1,0,-1,1,-2
1532070028061,3,0,0,2,0,0,1,4
1532070028066,-10,-4,-2,0,0,1,1,3
1532070028071,4,0,0,-2,0,1,-1,-2
1532070028076,7,5,0,-2,-1,1,-3,2
1532070028081,-13,-5,-2,-1,-2,-3,0,3
1532070028086,4,0,0,-2,-1,-1,0,-1
1532070028091,-10,-5,-6,1,-3,-3,0,-2
1532070028096,-2,-3,-1,0,0,-1,-3,0
1532070028101,9,3,3,0,0,0,2,-2
1532070028106,-3,0,2,0,0,-1,1,-4
1532070028111,2,-2,0,-1,0,-2,0,7
1532070028116,-7,-1,1,0,-2,-3,4,-6
1532070028121,7,1,-1,-2,0,-5,-16,1
1532070028126,-6,-1,0,-2,1,2,2,1
1532070028131,8,1,0,-1,0,0,-2,-2
1532070028136,-4,0,-2,-2,-3,0,2,1
1532070028141,7,0,0,1,0,0,1,4
1532070028146,-5,-3,-2,0,-3,-1,-2,-1
1532070028151,1,1,0,0,-1,-2,-3,1
1532070028156,2,1,-2,-1,-1,0,-3,-1
1532070028161,-9,-1,-1,-1,-1,-1,2,0
1532070028166,2,0,-1,-1,-3,0,0,-3
1532070028171,3,0,1,2,0,0,1,-4
1532070028176,-5,-2,-2,0,-1,-1,-3,-1
1532070028181,5,-1,0,-1,-1,0,2,3
1532070028186,-2,-1,0,2,-1,0,0,-2
1532070028191,-4,0,0,-2,-3,-2,-1,-1
1532070028196,-2,1,-1,-2,-1,0,-3,2
1532070028201,7,2,2,-1,-2,0,3,6
1532070028206,-8,-3,-2,-3,0,-1,-1,-8
1532070028211,3,-1,0,-2,0,-1,-1,1
1532070028216,-5,-2,0,1,0,1,1,4
1532070028221,4,1,-2,-1,-2,0,-3,-13
1532070028226,1,0,-2,-2,-3,-1,-2,2
1532070028231,-5,-1,-1,-3,0,-1,7,3
1532070028236,4,-3,-4,-2,-3,-3,-15,-5
1532070028241,-3,-2,-1,0,0,0,3,5
1532070028246,5,-1,0,-2,-2,-2,-1,2
1532070028251,-1,-1,0,1,-1,0,-6,-7
1532070028256,-2,-3,0,-1,0,-3,3,8
1532070028261,-1,-2,-2,-2,0,-1,2,-2
1532070028266,-2,-1,1,2,-2,0,-6,-2
1532070028271,-2,-1,-1,-1,-2,-2,3,0
1532070028276,8,2,-1,1,0,2,1,-3
1532070028281,-10,-1,-1,0,-1,0,1,6
1532070028286,0,0,0,-2,-1,-2,4,-4
1532070028291,-8,-1,-1,-1,0,0,-8,-8
1532070028296,3,-3,-3,-2,0,-1,1,0
1532070028301,1,-1,-1,-1,-1,-1,3,-2
1532070028306,-1,0,-3,0,-1,1,2,1
1532070028311,11,4,0,2,-1,0,3,4
1532070028316,-18,-11,-2,-2,0,-3,-5,-8
1532070028321,4,-1,0,0,-2,1,2,-2
1532070028326,-1,-1,-1,-3,0,-2,0,3
1532070028331,4,-1,-1,-1,1,0,-4,-3
1532070028336,-2,2,-3,-2,-1,1,5,1
1532070028341,2,1,1,0,-2,0,-3,0
1532070028346,-2,-2,-1,0,0,-2,-3,5
1532070028351,1,1,-1,0,-1,1,-1,0
1532070028356,2,0,-2,-2,-1,0,-1,-3
1532070028361,-3,0,-2,-2,1,0,-2,-1
1532070028366,1,0,-1,1,-1,0,3,7
1532070028371,1,0,-1,-1,0,-3,2,11
1532070028376,-3,-1,-3,1,0,-3,-3,-11
1532070028381,-3,-2,-3,-1,-2,-1,3,1
1532070028386,4,2,1,-1,-1,1,1,-5
1532070028391,-8,1,4,1,-4,-1,-3,-7
1532070028396,7,-2,-4,-4,-1,-4,-3,8
1532070028401,-8,-4,0,1,0,-3,-3,3
1532070028406,0,1,0,0,-1,-1,7,-3
1532070028411,2,-1,-2,-1,0,-3,-18,-1
1532070028416,-4,4,1,1,-2,1,1,-5
1532070028421,1,-1,1,0,-1,0,-1,-1
1532070028426,5,-2,-2,-1,-2,-1,-4,2
1532070028431,0,-1,-2,-1,0,0,7,-1
1532070028436,-3,-1,0,0,-3,-1,-8,-9
1532070028441,4,0,-1,0,-1,-2,-2,3
1532070028446,-1,1,0,1,0,0,-4,6
1532070028451,1,-2,-1,0,-1,0,4,-3
1532070028456,-5,0,1,0,2,-1,1,-5
1532070028461,3,0,0,-1,1,-1,0,3
1532070028466,-3,1,-2,1,-1,1,-4,-2
1532070028471,1,-1,-3,-1,-2,-1,1,3
1532070028476,0,0,0,0,0,0,10,4
1532070028481,-9,1,1,-3,-3,-1,-11,-9
1532070028486,-7,-8,-3,-1,-1,-2,0,2
1532070028491,-1,0,-1,0,1,-3,-3,-1
1532070028496,-6,-2,0,-2,-1,0,0,-5
1532070028501,7,4,2,0,1,1,5,4
1532070028506,2,-1,0,-1,-3,-2,-5,-4
1532070028511,-2,-1,-2,0,-1,-1,2,-3
1532070028516,0,-3,-1,-2,-2,-3,-8,-13
1532070028521,-1,-2,0,2,-1,0,-2,-19
1532070028526,1,0,-1,-1,0,0,-2,-1
1532070028531,-5,-3,-1,0,-3,-1,-1,-3
1532070028536,7,4,1,-1,1,0,1,3
1532070028541,7,0,-2,-1,-2,-2,4,7
1532070028546,-20,-1,-1,-1,-1,-2,-6,-4
1532070028551,6,0,-1,-2,-3,0,0,-2
1532070028556,-6,-5,-4,-1,-2,-1,1,1
1532070028561,-14,-3,-1,-1,-1,-1,-4,-2
1532070028566,11,0,-2,-1,-2,-2,3,4
1532070028571,5,-3,0,-1,-1,-2,-2,-6
1532070028576,-2,2,1,0,-2,-1,-5,-4
1532070028581,6,1,2,-1,-2,1,5,8
1532070028586,-9,1,0,0,-2,-2,1,-7
1532070028591,-2,-2,0,-2,0,2,1,2
1532070028596,3,0,-2,-1,-1,1,-1,8
1532070028601,-6,-4,-4,-1,-1,-4,0,-6
1532070028606,10,3,2,0,0,-1,-2,-5
1532070028611,6,2,0,0,2,1,-1,5
1532070028616,-5,-1,0,2,0,0,0,0
1532070028621,-2,0,-2,-2,-2,-1,-2,-1
1532070028626,-2,-1,1,0,-1,-1,-2,1
1532070028631,-4,-1,1,-1,-1,0,2,-5
1532070028636,0,-2,-2,-2,-1,-3,5,1
1532070028641,1,2,1,-1,0,-2,-13,2
1532070028646,6,0,-3,-1,-2,0,3,-1
1532070028651,-2,0,0,2,-2,2,1,4
1532070028656,0,0,0,-2,0,0,-4,-5
1532070028661,0,-2,-2,-1,-1,-2,4,4
1532070028666,-6,-3,-1,-3,-3,-1,-5,-5
1532070028671,2,1,-3,0,2,-2,1,-1
1532070028676,-9,-1,-2,-1,-1,0,1,-1
1532070028681,2,0,0,-1,-2,0,1,-7
1532070028686,3,1,-1,-1,0,0,-2,8
1532070028691,3,-2,-3,-2,-2,0,3,1
1532070028696,1,-4,-1,0,0,-2,1,4
1532070028701,0,-1,-1,-3,-1,0,-5,-15
1532070028706,-9,0,1,0,0,0,0,-7
1532070028711,2,-3,2,0,-3,-2,0,7
1532070028716,3,1,0,2,1,0,2,1
1532070028721,-3,0,0,-1,-1,-2,-10,1
1532070028726,-3,-2,1,-1,0,1,2,-1
1532070028731,-4,-2,0,-1,-1,-2,0,-3
1532070028736,3,-1,-3,-1,-1,-2,-4,7
1532070028741,-3,-2,-2,-1,-1,1,2,-3
1532070028746,-2,-2,-3,-2,-1,-2,-2,-6
1532070028751,0,2,2,0,0,-2,-2,4
1532070028756,12,3,1,0,-3,0,1,-1
1532070028761,-6,-10,-5,-1,-1,-4,2,3
1532070028766,9,0,-1,1,-1,-1,2,4
1532070028771,-5,0,-2,-1,-1,0,-1,-3
1532070028776,-1,-1,1,0,0,-1,-2,-3
1532070028781,8,0,0,-1,0,0,2,1
1532070028786,4,0,-1,2,-1,-3,-2,3
1532070028791,0,0,1,-2,-1,0,1,2
1532070028796,-8,-2,-2,-3,0,0,-3,-2
1532070028801,3,1,-1,-1,0,0,0,1
1532070028806,-11,-4,-3,-2,2,-1,2,-1
1532070028811,5,0,-1,0,-2,0,2,-2
1532070028816,-3,-2,0,-1,-1,-2,-8,0
1532070028821,-3,-1,1,1,1,2,2,-6
1532070028826,4,4,2,0,-2,0,-1,-3
1532070028831,-23,-4,-2,0,1,-2,-6,-6
1532070028836,1,1,-2,0,-3,-1,0,-7
1532070028841,-2,0,-1,-2,1,-1,1,5
1532070028846,0,-1,-1,-3,-1,0,-3,-1
1532070028851,4,-2,-2,-1,-1,-1,0,-2
1532070028856,-3,0,-1,0,1,-2,-3,-4
1532070028861,1,2,1,0,0,1,-2,1
1532070028866,1,-2,-1,1,-1,-1,3,2
1532070028871,-2,-1,-2,-3,-1,-1,-4,-2
1532070028876,0,0,2,0,-3,1,11,10
1532070028881,0,-2,-2,0,-1,-4,-19,-3
1532070028886,-7,-3,-2,-2,1,-2,0,-2
1532070028891,1,1,0,0,0,-2,0,2
1532070028896,-10,-1,0,-1,-1,0,-3,-4
1532070028901,6,2,0,-1,0,-2,6,0
1532070028906,3,-1,1,2,-1,1,0,2
1532070028911,6,-1,-3,-1,1,-1,-4,-1
1532070028916,12,3,2,0,-1,-1,5,-1
1532070028921,-15,-1,1,2,-1,-1,-10,-3
1532070028926,-1,0,-1,-2,-1,-1,-1,-4
1532070028931,2,-1,-3,-1,-1,-1,4,2
1532070028936,2,-2,-1,-3,-1,0,-3,-2
1532070028941,2,-1,-2,-2,-3,0,5,0
1532070028946,-1,-1,1,0,-2,-2,-1,-1
1532070028951,-5,-1,0,0,-2,-1,-1,4
1532070028956,-1,-2,-1,0,-1,-1,-1,-2
1532070028961,-3,-2,0,-1,1,-3,4,4
1532070028966,-1,3,-2,0,0,2,-2,-5
1532070028971,-14,-7,-2,-3,-1,0,1,-1
1532070028976,-3,-3,-4,-1,-1,-2,-5,0
1532070028981,-7,-1,-1,0,-2,0,4,-3
1532070028986,9,0,-1,-1,0,-2,-2,6
1532070028991,8,1,0,-1,-1,-1,-2,3
1532070028996,2,0,-2,0,0,2,9,-6
1532070029001,-4,-1,0,-1,-1,-3,-18,-1
1532070029006,-3,-2,0,-2,-3,0,5,5
1532070029011,1,-1,1,0,0,-2,-2,-3
1532070029016,3,-3,-2,-3,-1,-1,-5,-3
1532070029021,3,1,0,1,-1,1,9,-1
1532070029026,-5,-1,-2,-2,-1,-1,-2,-1
1532070029031,2,1,-2,-2,0,1,-2,-3
1532070029036,1,0,0,1,0,-1,-4,-1
1532070029041,0,-1,0,0,-2,-1,1,-3
1532070029046,-4,-1,0,-1,-1,-1,-1,3
1532070029051,1,2,1,-2,-3,-3,-8,-26
1532070029056,-20,-10,-4,-2,1,-1,-3,2
1532070029061,7,-1,0,0,-2,0,9,4
1532070029066,-1,0,0,0,0,-2,-15,-4
1532070029071,3,1,-1,-1,-4,0,1,6
1532070029076,-5,1,-1,0,-1,-2,-3,-4
1532070029081,6,1,-2,-1,-1,-2,-1,2
1532070029086,6,0,-2,-2,-1,0,6,2
1532070029091,-3,1,0,1,0,0,-1,3
1532070029096,-6,-1,2,0,-1,-2,-4,-2
1532070029101,-4,-1,-5,-3,-1,-2,2,-1
1532070029106,5,0,-2,0,-1,2,1,-2
1532070029111,1,-2,-2,1,-1,-2,1,5
1532070029116,4,0,-2,-1,0,0,-3,3
1532070029121,0,0,-1,0,-2,1,2,-2
1532070029126,-6,-3,0,0,-1,-2,-2,-2
1532070029131,5,1,-1,0,0,-1,1,-6
1532070029136,0,1,-1,-1,-1,-1,0,-1
1532070029141,-3,1,-2,0,-1,1,0,-1
1532070029146,6,3,-2,-1,-1,0,10,1
1532070029151,-10,-11,-2,-3,-2,-3,-19,3
1532070029156,11,5,1,-1,-2,-2,0,3
1532070029161,3,-1,0,-2,-1,-1,0,1
1532070029166,-1,-1,0,0,0,-1,1,-8
1532070029171,-2,1,-1,-1,0,2,2,-2
1532070029176,-8,-2,-1,-1,-2,-1,-3,-4
1532070029181,6,0,0,-1,-1,-1,-2,3
1532070029186,-8,-1,-2,-2,-1,0,0,-1
1532070029191,1,-1,-1,-2,0,-1,4,7
1532070029196,-2,-1,0,0,-2,0,-5,-13
1532070029201,0,0,2,-1,1,-1,2,-9
1532070029206,-6,-2,-1,-2,-2,-2,2,0
1532070029211,-2,0,-2,-1,1,1,3,0
1532070029216,5,0,0,0,0,3,4,5
1532070029221,-2,-2,0,0,-2,-1,0,-1
1532070029226,0,-4,-2,-1,-1,-3,-3,1
1532070029231,7,3,1,0,-3,-1,2,-1
1532070029236,4,-7,-2,-2,0,0,-4,3
1532070029241,-8,-1,-2,0,0,1,0,-5
1532070029246,0,-1,-1,-2,-1,-1,-3,3
1532070029251,-4,0,-3,-3,-1,0,3,1
1532070029256,3,1,1,-1,-3,-2,2,4
1532070029261,-2,0,-2,-2,1,0,0,1
1532070029266,-3,-3,-2,-2,-3,-1,-8,-19
1532070029271,-1,1,2,1,-1,0,-2,0
1532070029276,-4,1,0,-1,-2,-2,4,0
1532070029281,-4,-3,1,0,-2,-1,-2,0
1532070029286,0,0,1,0,1,-2,1,3
1532070029291,-3,-3,0,-1,-1,-1,-1,-3
1532070029296,-3,0,-1,-1,-1,-2,1,-3
1532070029301,0,-3,-1,0,0,2,2,0
1532070029306,-2,-1,-2,0,-1,1,-3,-3
1532070029311,2,-1,-2,1,-1,0,0,5
1532070029316,-9,2,-2,-1,0,-1,-2,2
1532070029321,7,-1,-2,-1,-1,0,-4,-2
1532070029326,2,0,-2,-1,1,0,0,2
1532070029331,-4,-3,1,1,-2,-2,0,5
1532070029336,0,3,0,0,-1,0,2,-6
1532070029341,-5,-1,1,-2,-1,-1,-3,-2
1532070029346,-1,-2,0,-1,-1,-1,-2,-5
1532070029351,1,0,0,0,-2,-1,2,8
1532070029356,8,-1,0,0,-2,-2,4,10
1532070029361,-5,-1,-1,0,-1,-1,-4,-1
1532070029366,1,-1,-2,0,1,0,1,0
1532070029371,3,1,1,-2,-1,-1,-4,-8
1532070029376,-6,-3,-1,0,0,0,1,-1
1532070029381,-2,-1,-2,0,0,-1,0,1
1532070029386,-1,0,1,-1,-2,-1,-3,6
1532070029391,-1,0,-1,-2,-1,-1,0,-3
1532070029396,-4,-3,-2,-2,-1,-1,-6,-4
1532070029401,5,4,1,-1,1,-1,2,13
1532070029406,-12,-3,-2,-2,0,-1,-2,1
1532070029411,2,0,-1,1,0,0,2,-4
1532070029416,1,-2,0,-1,-1,-2,-5,-8
1532070029421,-4,-2,0,-1,-1,-1,0,1
1532070029426,2,1,-1,-2,-1,-1,1,-9
1532070029431,-5,0,-2,1,2,-1,-4,-5
1532070029436,1,-2,1,-1,-1,-1,6,6
1532070029441,-4,-2,-3,-1,-1,0,-12,-7
1532070029446,5,0,0,0,-2,-1,-2,3
1532070029451,3,0,1,-1,-2,-1,2,-2
1532070029456,-6,-3,-1,-1,-1,0,-5,1
1532070029461,1,-2,-1,0,0,0,2,-2
1532070029466,1,-1,-3,0,0,-1,1,2
1532070029471,-2,-2,0,-1,-2,-1,-4,0
1532070029476,4,0,-1,-1,0,0,-3,-4
1532070029481,-5,-3,0,-1,0,-1,6,4
1532070029486,10,-1,1,0,0,3,-2,-6
1532070029491,-10,0,0,0,2,-1,3,3
1532070029496,6,-2,-3,0,-2,-1,3,5
1532070029501,3,1,-1,-2,-2,-1,-3,-7
1532070029506,-11,-1,0,-1,-1,-3,-1,-4
1532070029511,1,-2,-2,-2,-1,0,1,0
1532070029516,0,4,3,-2,-1,-2,-2,-6
1532070029521,-9,-3,0,-1,-1,0,10,8
1532070029526,3,2,-1,1,-2,-2,-17,-1
1532070029531,1,-1,-2,-3,-1,-1,0,-4
1532070029536,-7,-2,-2,-1,0,-1,-3,-3
1532070029541,7,1,1,0,-1,-2,-1,-4
1532070029546,0,-2,0,-1,0,-2,3,2
1532070029551,0,-1,-1,-1,0,-1,0,3
1532070029556,-3,-1,-1,0,2,3,-1,4
1532070029561,-1,0,0,-1,0,0,-3,-5
1532070029566,-3,-1,-2,0,-4,0,4,4
1532070029571,1,-2,0,0,0,-1,-1,-2
1532070029576,-4,1,1,0,-3,-2,3,4
1532070029581,-1,-1,-3,0,1,-2,-2,-5
1532070029586,0,-1,-2,-2,0,-1,2,8
1532070029591,6,5,0,-1,0,0,1,-1
1532070029596,-7,-10,-5,-2,-1,-4,-5,-6
1532070029601,4,-1,-2,0,-2,-1,0,4
1532070029606,-2,0,1,-2,-1,-1,-2,-4
1532070029611,1,0,0,0,-1,1,0,-1
1532070029616,9,0,0,-1,-1,-2,-4,-5
1532070029621,-2,0,0,-2,-1,0,1,2
1532070029626,3,-1,0,-3,0,-1,8,0
1532070029631,-4,-1,0,0,-1,0,-7,4
1532070029636,-7,1,2,1,-2,-1,1,-1
1532070029641,-1,-2,-1,-3,-2,-2,-3,-1
1532070029646,0,0,-1,0,-1,0,1,-1
1532070029651,-5,-4,0,-1,-1,-1,4,11
1532070029656,2,2,-2,-1,1,-2,-8,-5
1532070029661,1,0,-1,-1,-1,-2,1,-1
1532070029666,-5,-2,0,1,-3,-1,0,2
1532070029671,11,0,-1,0,-1,-1,-1,-5
1532070029676,-2,1,-2,-2,-2,0,-1,3
1532070029681,-6,-1,-1,0,-1,1,-3,-8
1532070029686,1,0,0,0,0,-2,-1,-4
1532070029691,-6,-2,0,-2,-2,-2,-4,1
1532070029696,5,1,0,-1,0,0,3,-5
1532070029701,0,-1,0,0,-1,1,2,0
1532070029706,-4,-2,-1,0,-1,-3,-9,6
1532070029711,6,2,-1,0,-2,-1,8,-3
1532070029716,-5,-3,-4,-3,0,-1,-1,-4
1532070029721,1,0,-1,0,0,1,-1,0
1532070029726,-8,-3,-2,-1,-1,-1,2,0
1532070029731,-6,-1,-1,-1,0,-1,1,3
1532070029736,3,-1,0,-1,0,1,-3,-2
1532070029741,-2,-1,0,-2,0,-3,2,-1
1532070029746,5,2,0,0,-1,1,1,-3
1532070029751,-4,-3,-2,-1,-1,-1,-4,-3
1532070029756,18,0,-4,-1,-2,0,3,5
1532070029761,-4,2,-1,-1,-1,-1,-2,-2
1532070029766,8,3,0,-1,-1,0,-4,-5
1532070029771,-22,-9,-2,-2,-3,-1,-5,-9
1532070029776,0,0,0,-1,-1,1,1,5
1532070029781,6,-1,-1,-1,-2,-2,-2,-6
1532070029786,0,-2,0,-2,1,0,9,5
1532070029791,0,0,0,0,-1,-3,-20,-6
1532070029796,1,0,-2,-1,-1,0,0,-1
1532070029801,-10,-2,-1,-1,-1,0,-2,-4
1532070029806,5,0,-3,-2,0,-1,1,0
1532070029811,-3,-1,0,1,-1,1,4,3
1532070029816,-5,-1,2,0,-2,-1,-4,-9
1532070029821,0,-2,0,-1,0,-1,-2,4
1532070029826,1,0,0,0,-1,-1,0,-1
1532070029831,2,0,0,0,-1,-2,-2,-3
1532070029836,-12,-1,0,0,0,1,0,-1
1532070029841,21,0,-1,-2,-1,0,2,6
1532070029846,-29,-3,-1,-2,0,-2,-7,-16
1532070029851,4,-1,-2,-2,0,0,2,3
1532070029856,2,5,2,0,-2,0,2,4
1532070029861,-4,-10,-3,0,-1,-1,-1,0
1532070029866,3,-1,-1,-1,-1,-2,-3,-1
1532070029871,-2,-3,-2,0,0,0,1,-1
1532070029876,1,-2,-3,0,-2,0,8,0
1532070029881,-1,2,-1,0,-2,-3,-20,-3
1532070029886,0,-1,0,1,-1,-2,-2,4
1532070029891,-1,2,1,-1,1,-1,3,2
1532070029896,2,-1,-1,-1,0,-2,1,3
1532070029901,-1,1,-1,-1,0,1,4,-6
1532070029906,-2,-4,-4,1,-2,1,-1,4
1532070029911,3,1,0,0,0,-1,-4,-3
1532070029916,-6,-2,-2,0,-1,-1,1,3
1532070029921,-2,0,2,-1,-1,-1,1,1
1532070029926,4,-1,1,-3,0,0,-3,-1
1532070029931,-1,-2,0,0,-1,0,3,-2
1532070029936,6,-2,-1,-1,1,-1,-5,4
1532070029941,-1,1,-1,0,-2,0,4,0
1532070029946,3,0,-2,0,-3,-1,0,-4
1532070029951,7,4,2,0,-2,1,1,-2
1532070029956,-18,-11,-2,-1,-1,-3,-1,3
1532070029961,2,3,0,-1,1,0,-1,-13
1532070029966,-4,-3,-1,0,2,0,-1,-3
1532070029971,2,1,-1,0,-2,-1,-1,-2
1532070029976,1,1,-1,0,-1,-2,-5,-4
1532070029981,-3,1,-2,-3,-1,0,6,7
1532070029986,-6,-1,1,-1,-2,0,0,-3
1532070029991,-3,-3,-1,-1,0,0,-7,-7
1532070029996,-1,0,0,0,-1,0,2,0
1532070030001,-4,-2,-3,0,-1,-2,0,-1
1532070030006,7,2,0,-1,-3,0,-3,0
1532070030011,-9,-3,-3,-1,-3,0,-2,1
1532070030016,0,1,3,-1,0,-1,-3,4
1532070030021,-1,-1,1,-1,0,-1,0,-2
1532070030026,9,1,0,0,0,-1,0,3
1532070030031,-4,-1,-3,-2,-2,-1,3,3
1532070030036,-2,-1,0,-2,-1,0,-3,-3
1532070030041,-2,0,-1,1,-2,-2,-3,-2
1532070030046,-17,-3,-1,-1,0,-1,4,2
1532070030051,2,0,-1,-1,0,0,0,-9
1532070030056,1,-2,-3,-2,0,0,5,-3
1532070030061,-5,0,-2,0,2,-1,-14,2
1532070030066,1,0,-1,-2,-3,0,0,-1
1532070030071,0,2,0,-3,-3,-2,0,2
1532070030076,-2,0,-2,-2,-3,0,-5,-6
1532070030081,-6,-3,-1,0,-1,1,6,2
1532070030086,5,0,-4,-2,-1,-1,-4,-2
1532070030091,-1,-3,-4,-2,-1,-1,0,1
1532070030096,2,0,1,0,0,1,-1,-6
1532070030101,6,0,-1,-1,-3,-1,2,7
1532070030106,-8,-1,0,-2,0,-1,-4,-13
1532070030111,4,-1,-1,-1,0,-1,1,1
1532070030116,-5,-1,-3,-2,0,-1,-1,-5
1532070030121,-1,0,0,-1,0,0,2,2
1532070030126,1,-1,-1,1,-1,-1,-2,1
1532070030131,-2,0,1,-1,0,0,-1,-7
1532070030136,8,0,0,-2,-1,-1,-5,-2
1532070030141,0,-1,1,-1,0,-2,0,-2
1532070030146,-2,-1,0,-1,0,0,2,2
1532070030151,0,-3,0,-1,0,-2,-3,0
1532070030156,4,0,1,0,1,1,4,2
1532070030161,3,0,-1,-2,-1,0,-3,-6
1532070030166,0,0,-1,-1,0,-2,-3,4
1532070030171,-2,-1,-2,-2,-2,1,0,-1
1532070030176,-8,-1,0,-1,1,-3,-3,-10
1532070030181,4,1,0,1,-2,0,0,-1
1532070030186,-1,-1,-3,-1,0,0,1,-1
1532070030191,7,4,1,-1,-1,-2,-3,-1
1532070030196,-15,-9,-1,1,-2,-2,1,1
1532070030201,1,-1,0,-1,0,1,6,-1
1532070030206,-3,-1,-2,-1,-1,-2,-3,-2
1532070030211,2,0,-2,1,0,-2,-2,3
1532070030216,-2,1,-2,1,-1,-1,1,-1
1532070030221,-4,-5,-2,-1,0,-1,3,2
1532070030226,-2,-3,1,1,-2,-1,0,-6
1532070030231,-4,0,-2,-2,0,-1,-6,-5
1532070030236,4,1,1,0,-2,0,1,1
1532070030241,-2,0,-1,0,0,-2,-2,1
1532070030246,6,0,-3,-2,-2,1,0,3
1532070030251,-3,-4,0,2,1,-2,-1,1
1532070030256,-1,0,-1,-2,-2,-1,-5,-11
1532070030261,3,0,-1,0,0,0,-1,1
1532070030266,5,2,-1,0,-2,0,0,1
1532070030271,-8,-1,-1,0,-1,-1,0,-4
1532070030276,8,1,-2,0,0,3,1,9
1532070030281,6,4,-2,-3,-2,-1,5,-11
1532070030286,-11,-10,-4,-1,1,-1,-12,2
1532070030291,-5,-1,2,0,-2,-1,-2,-4
1532070030296,-1,0,0,-1,1,1,2,1
1532070030301,3,1,0,1,1,0,-1,2
1532070030306,-6,0,1,-3,-3,-1,3,3
1532070030311,2,-2,-3,-1,-1,-2,-1,0
1532070030316,0,-1,-1,1,-2,-3,-4,-2
1532070030321,-7,-1,0,0,0,-1,-2,0
1532070030326,-1,0,1,1,-1,0,1,-3
1532070030331,3,-2,-4,-1,0,0,2,9
1532070030336,3,0,0,0,1,-1,-4,-13
1532070030341,-9,-5,-3,0,-1,-2,0,7
1532070030346,2,4,1,0,0,-1,1,0
1532070030351,0,-1,-1,0,-1,0,2,-3
1532070030356,-1,0,0,-1,0,0,3,2
1532070030361,-1,-2,-3,-2,0,-1,-3,1
1532070030366,-1,-2,4,-1,-1,-1,-5,-19
1532070030371,0,0,1,-1,0,-2,1,-2
1532070030376,-8,-2,-1,-3,-1,-2,-1,6
1532070030381,-3,3,-1,0,-2,-2,4,-8
1532070030386,7,-4,-3,-1,0,-2,-4,7
1532070030391,0,-1,0,1,1,-1,-5,-4
1532070030396,0,-1,-1,-2,-3,-1,0,-1
1532070030401,0,3,0,0,-2,-1,-1,4
1532070030406,2,2,2,1,-1,0,7,9
1532070030411,-4,-1,0,-1,0,0,-5,-6
1532070030416,1,0,-1,-1,0,1,4,2
1532070030421,-9,-5,-2,-2,-1,-2,-6,-2
1532070030426,1,-1,-2,-1,0,-1,0,-4
1532070030431,-1,1,-3,-2,-3,0,0,5
1532070030436,-4,-1,0,0,-2,-1,1,-3
1532070030441,0,-2,1,-2,-2,0,-3,-2
1532070030446,-3,-2,-2,0,-1,-2,-1,-3
1532070030451,6,-1,0,-2,-1,-1,2,6
1532070030456,-11,-1,-2,-2,-3,-2,-4,-11
1532070030461,-4,-3,-1,-2,1,0,5,-7
1532070030466,-1,0,-3,1,2,-1,-11,1
1532070030471,6,3,-1,-2,-3,-1,0,1
1532070030476,2,-6,-2,1,1,0,-2,3
1532070030481,2,-1,1,0,0,-1,-1,7
1532070030486,-7,3,1,1,0,1,0,-5
1532070030491,3,-2,-1,-1,-1,0,-3,-6
1532070030496,0,0,-1,0,1,-1,2,13
1532070030501,-4,-1,-2,-1,0,1,-2,-3
1532070030506,4,0,0,-3,0,0,3,0
1532070030511,-5,-4,-1,1,0,-1,-3,-2
1532070030516,0,1,0,-1,-1,1,-2,-6
1532070030521,0,1,-2,-1,-3,-1,0,6
1532070030526,-1,-1,0,0,-2,-3,-2,-1
1532070030531,-6,-2,0,0,0,0,0,-5
1532070030536,1,0,-1,0,-1,-1,-2,-1
1532070030541,12,1,-1,0,0,-2,-2,2
1532070030546,-3,-1,-3,-1,-2,1,1,-4
1532070030551,-5,-3,-3,0,0,-2,-2,1
1532070030556,4,0,1,-1,-1,1,6,1
1532070030561,-2,-1,0,0,-2,0,-7,-7
1532070030566,14,6,0,-1,-1,-1,3,6
1532070030571,-9,-10,-2,-1,0,0,-4,0
1532070030576,-3,0,-1,1,-1,0,8,8
1532070030581,-4,-2,-1,-2,-1,-1,-1,-8
1532070030586,-1,-1,0,-2,0,-2,-1,-3
1532070030591,-11,1,-1,-1,0,1,4,2
1532070030596,11,1,-1,-2,1,-3,-5,-3
1532070030601,0,-2,0,-2,0,1,-3,-3
1532070030606,-2,-1,0,0,-2,1,-1,4
1532070030611,-5,0,2,-1,-2,-2,-1,2
1532070030616,-1,-3,-5,-2,0,-1,-3,-5
1532070030621,3,1,0,-1,1,0,0,-1
1532070030626,-1,-1,-4,-1,0,-2,-2,-1
1532070030631,-3,0,-2,-2,-1,1,0,0
1532070030636,-4,-3,0,-1,-2,-1,-4,-5
1532070030641,6,1,0,1,-1,1,1,2
1532070030646,-11,-4,-1,-1,0,-1,1,-3
1532070030651,3,2,-1,0,-1,-4,-3,3
1532070030656,1,1,0,-1,0,0,6,-4
1532070030661,4,2,0,-1,-2,0,-20,-10
1532070030666,-1,-9,-3,-2,0,0,0,2
1532070030671,3,0,-1,-1,0,-3,-1,0
1532070030676,-2,-2,-2,0,0,0,-3,-4
1532070030681,-5,-2,-1,1,-2,-1,6,6
1532070030686,8,3,-1,-1,-3,0,0,-5
1532070030691,5,1,0,0,0,-2,-1,1
1532070030696,-2,0,-1,0,0,0,-1,-6
1532070030701,0,-2,2,0,-1,-4,0,0
1532070030706,-6,-1,0,-1,1,-1,-2,3
1532070030711,1,-2,-1,0,1,1,3,0
1532070030716,3,1,2,1,-3,-3,-5,4
1532070030721,-6,-1,-1,-1,-1,0,1,-3
1532070030726,-6,-2,0,-1,-1,-1,-1,-5
1532070030731,7,0,-2,-1,-2,1,1,-2
1532070030736,-7,0,-1,-1,0,-1,-3,4
1532070030741,3,-4,-1,-1,0,-1,2,-4
1532070030746,3,-1,-1,-1,0,-1,-2,-10
1532070030751,-14,-2,-1,-2,-3,1,-3,-5
1532070030756,1,-2,1,-1,-1,0,1,0
1532070030761,4,0,0,-1,-2,0,5,10
1532070030766,-11,0,-2,-2,1,-1,5,-3
1532070030771,4,0,-2,-1,-1,0,-6,-21
1532070030776,-1,-1,1,-1,-1,0,-5,-3
1532070030781,6,-2,-3,-2,1,-2,1,3
1532070030786,0,0,0,-1,-2,0,-1,0
1532070030791,2,2,-1,1,0,-1,-2,9
1532070030796,-9,-1,-1,-1,0,-2,-3,-6
1532070030801,10,0,-2,0,1,-2,2,8
1532070030806,-10,-2,-1,-1,-1,1,-3,0
1532070030811,3,-1,-1,-1,-1,-1,-2,-2
1532070030816,-5,-3,-1,1,-2,0,-1,1
1532070030821,-3,-1,-1,0,-1,-1,-1,-1
1532070030826,4,-1,-2,-3,-2,-2,-2,3
1532070030831,-2,-2,0,0,0,2,0,-3
1532070030836,4,2,0,0,-2,-1,-1,-2
1532070030841,-10,2,-1,0,-1,-2,-3,-8
1532070030846,4,0,-1,1,0,-2,-1,1
1532070030851,-1,0,2,-1,-2,-2,9,8
1532070030856,2,-2,-2,1,2,-1,-11,0
1532070030861,-3,0,0,-2,-4,1,0,-1
1532070030866,5,0,-1,-2,1,0,0,2
1532070030871,1,-1,-3,-2,0,0,3,3
1532070030876,-5,-1,-1,-1,-1,-2,2,-2
1532070030881,-3,-3,-3,-1,0,-2,-4,0
1532070030886,-1,-1,0,0,0,-1,3,3
1532070030891,1,-1,0,-2,0,-3,-6,-3
1532070030896,-7,0,1,-2,0,0,2,5
1532070030901,-4,0,-3,0,-1,-3,-4,-10
1532070030906,-1,-1,-2,0,-3,-3,-3,-2
1532070030911,-1,2,0,0,2,-3,-2,-2
1532070030916,-4,-2,-3,-2,-1,-2,-4,-11
1532070030921,1,-3,-1,0,0,-2,1,-1
1532070030926,3,1,-1,-1,0,0,0,2
1532070030931,5,3,-1,1,-1,2,-2,-5
1532070030936,-11,-6,-4,-2,0,-1,-2,-4
1532070030941,-4,0,2,-1,0,0,-2,-2
1532070030946,-1,0,2,0,0,0,5,1
1532070030951,4,-4,0,-2,-1,-1,-6,0
1532070030956,7,4,0,2,1,1,-3,5
1532070030961,1,0,1,-1,-1,0,1,7
1532070030966,-5,-3,-2,-1,-3,0,1,-4
1532070030971,-6,-1,0,-1,-2,-1,1,1
1532070030976,5,-2,-2,-1,-1,-1,0,2
1532070030981,6,0,-1,-1,0,0,0,0
1532070030986,-14,-1,0,1,1,1,-2,2
1532070030991,-5,-2,-1,-3,0,0,-1,-1
1532070030996,5,1,0,-1,-1,0,1,1
1532070031001,3,0,-2,-1,-1,-1,0,-3
1532070031006,-4,-3,-1,-1,-1,0,-2,-1
1532070031011,-4,-2,-1,0,0,-1,-2,-4
1532070031016,-8,-3,0,-1,-1,-2,-2,-7
1532070031021,7,2,-1,0,0,-2,0,2
1532070031026,3,0,0,-1,-1,-3,-7,-3
1532070031031,-6,2,-1,-1,-1,1,1,-5
1532070031036,6,-5,-2,-2,1,-2,1,6
1532070031041,-5,-2,-1,-2,-2,2,2,-4
1532070031046,-3,0,1,-1,-2,-4,-10,0
1532070031051,8,-1,-1,-1,-1,0,1,3
1532070031056,-9,1,0,-3,-1,0,3,-3
1532070031061,-5,1,-1,1,0,-1,-4,1
1532070031066,6,-1,-1,-1,-1,0,5,0
1532070031071,-4,-2,-1,-1,-2,-1,0,2
1532070031076,5,0,-2,0,-1,-2,-2,-2
1532070031081,-5,-2,-1,-2,0,0,1,-4
1532070031086,1,0,-1,-1,-1,-1,0,-1
1532070031091,-1,-1,-1,0,-1,0,-1,3
1532070031096,1,2,-1,0,-1,-1,0,1
1532070031101,2,2,2,0,1,1,3,6
1532070031106,2,-3,-2,-1,-2,-1,-3,-5
1532070031111,-5,-3,-1,-1,-1,-4,-3,-6
1532070031116,4,1,1,1,-2,0,2,1
1532070031121,-2,-1,-1,-2,-1,0,0,5
1532070031126,2,2,1,-1,0,0,-1,-2
1532070031131,-5,-3,-2,0,-1,-2,1,-4
1532070031136,-2,-1,2,-1,-1,0,-2,-6
1532070031141,-2,-2,-3,-2,-2,-2,-2,-1
1532070031146,6,2,-1,-2,0,0,1,4
1532070031151,2,-1,-1,0,1,0,4,0
1532070031156,5,1,1,-2,0,-1,-15,-1
1532070031161,-7,-3,-1,1,-1,-1,-5,-7
1532070031166,3,0,-1,0,-1,0,2,-2
1532070031171,-1,-2,-1,-2,-2,-1,-1,1
1532070031176,-3,0,-2,0,1,1,5,-1
1532070031181,7,0,0,0,0,-1,-1,1
1532070031186,-16,-2,-2,-2,-2,-3,-1,0
1532070031191,4,0,-1,1,-1,0,-2,4
1532070031196,-3,-2,-1,0,0,0,5,-2
1532070031201,0,-2,-1,-2,-2,-2,-3,-3
1532070031206,1,-2,-4,0,-2,-1,2,2
1532070031211,-4,0,0,-1,0,0,-5,-1
1532070031216,2,1,-3,-1,-1,-2,1,-1
1532070031221,3,2,2,-1,0,0,8,3
1532070031226,-4,-4,0,-2,1,-2,-5,2
1532070031231,1,1,1,-1,-2,-1,-1,-4
1532070031236,-2,-1,0,-1,-2,-1,-1,2
1532070031241,11,2,-2,-2,-1,-2,3,-4
1532070031246,-22,-4,-2,1,1,0,-1,-3
1532070031251,5,0,0,1,-2,-2,-5,-3
1532070031256,0,0,0,-1,-1,1,6,0
1532070031261,-9,-4,-2,-2,-1,-1,-5,-7
1532070031266,7,2,2,0,-2,-2,1,-1
1532070031271,1,1,-1,2,-1,0,-2,3
1532070031276,-6,-3,-1,0,-2,-1,-1,0
1532070031281,1,2,0,0,0,-1,-2,1
1532070031286,9,-1,-1,-2,-1,0,-3,-3
1532070031291,-5,-1,-1,-2,0,-1,2,-5
1532070031296,-1,1,-2,0,-1,1,5,4
1532070031301,-5,-3,-2,-1,-1,-2,-8,-2
1532070031306,4,1,-1,0,-1,-2,1,-5
1532070031311,-4,-2,-1,-2,0,0,-1,0
1532070031316,3,0,0,-1,0,-1,2,1
1532070031321,-3,-1,-1,0,-1,1,0,-2
1532070031326,0,0,2,1,-1,0,-2,0
1532070031331,-2,0,1,-1,-1,-3,1,-2
1532070031336,-1,-1,-3,0,-1,-1,-2,-6
1532070031341,0,0,1,0,-2,0,0,4
1532070031346,-12,-3,-2,-3,1,-1,1,-6
1532070031351,3,-2,-3,-2,2,-1,-3,9
1532070031356,2,1,-2,0,0,0,0,-1
1532070031361,-5,0,-2,0,-1,-2,1,2
1532070031366,-1,-3,1,2,1,1,0,-3
1532070031371,7,-1,-1,0,-2,-1,-1,1
1532070031376,-3,-1,0,-2,-2,1,5,0
1532070031381,-5,0,0,-1,-2,0,-14,-1
1532070031386,5,0,-1,-1,0,-2,1,1
1532070031391,-4,-2,-1,-2,-4,-1,-1,-7
1532070031396,2,1,0,0,-1,-2,-5,0
1532070031401,0,-1,-1,-1,-1,-1,4,-1
1532070031406,1,-1,-1,-1,-3,-3,-4,-10
1532070031411,-3,1,-1,-1,-1,0,-3,-2
1532070031416,1,-2,-1,-2,0,-3,0,4
1532070031421,1,-2,-1,0,0,-1,-1,3
1532070031426,1,1,-1,-2,0,1,2,4
1532070031431,-6,-2,-3,-1,-1,-3,-1,-3
1532070031436,1,-1,1,0,1,0,-4,-2
1532070031441,0,3,-2,1,-2,-1,2,0
1532070031446,11,-3,-2,-2,-2,-2,-2,-1
1532070031451,-10,-2,-1,1,0,0,3,-1
1532070031456,3,1,0,-1,-1,1,-2,1
1532070031461,-1,-1,1,1,0,-1,1,-4
1532070031466,4,2,-1,-2,-1,0,0,2
1532070031471,1,0,0,-1,1,-1,-1,-1
1532070031476,-6,-5,-3,0,-1,-3,-2,3
1532070031481,1,0,-1,-1,0,-2,1,1
1532070031486,-4,-1,-4,0,0,-2,-3,1
1532070031491,2,1,0,1,-1,-2,3,3
1532070031496,-2,0,0,-2,-1,-1,-2,-2
1532070031501,-5,-2,-1,-2,-1,0,-3,-8
1532070031506,2,-1,-1,0,-1,1,0,3
1532070031511,-2,0,0,0,1,-1,-4,-5
1532070031516,5,-1,-3,-2,-4,-2,1,2
1532070031521,-4,-4,-2,-2,-1,0,2,-4
1532070031526,0,1,-1,0,-1,-1,0,2
1532070031531,-2,-1,-1,-2,-2,2,1,-3
1532070031536,1,-1,1,-1,0,-1,-4,-5
1532070031541,-1,-1,-2,-1,0,-3,2,-2
1532070031546,-2,0,0,0,0,-1,-3,0
1532070031551,2,1,0,-1,-1,0,-1,3
1532070031556,-1,0,-2,0,-2,-1,-2,-1
1532070031561,6,1,0,1,-1,1,-1,0
1532070031566,5,4,-2,-1,-2,-1,2,0
1532070031571,-9,-10,-4,-1,0,-2,-5,2
1532070031576,-1,0,-2,-1,-1,-1,0,-1
1532070031581,0,-1,0,-1,-1,-1,0,0
1532070031586,8,0,-1,-1,0,1,3,3
1532070031591,-8,-1,1,0,-1,-1,-7,1
1532070031596,-2,-2,-1,-1,-1,-1,3,3
1532070031601,-5,-3,-2,0,1,-3,-4,-6
1532070031606,-2,-1,-2,-1,0,-2,-1,-1
1532070031611,2,1,0,-1,-1,0,3,1
1532070031616,1,-1,-2,0,-1,-1,-4,-1
1532070031621,-6,-1,-2,-4,-1,0,0,5
1532070031626,-3,-2,-2,0,-1,0,1,-4
1532070031631,6,2,0,-1,-2,-2,1,-1
1532070031636,-12,-1,-1,-1,-3,-2,-4,-7
1532070031641,9,5,-1,0,-1,0,6,-2
1532070031646,-11,-9,-2,-1,-1,-1,-17,-1
1532070031651,1,0,-1,0,1,0,2,5
1532070031656,2,0,0,-1,-3,-1,-3,0
1532070031661,-12,-1,-1,0,0,-2,-2,-12
1532070031666,6,2,0,-1,-2,0,2,1
1532070031671,-2,-2,0,0,-1,1,0,0
1532070031676,-3,-2,-2,-2,-1,-1,-1,7
1532070031681,1,0,0,0,1,-1,2,6
1532070031686,0,1,1,1,0,0,2,-7
1532070031691,3,0,-1,0,0,-3,-4,-4
1532070031696,-7,0,0,0,-2,0,2,0
1532070031701,1,0,-1,-1,0,-1,-3,-2
1532070031706,3,0,-2,-2,-2,-2,3,4
1532070031711,-4,1,0,0,0,0,-3,-4
1532070031716,6,1,-1,-3,-1,-1,1,6
1532070031721,-3,-2,0,-2,-1,0,-2,-10
1532070031726,1,2,0,0,0,1,1,3
1532070031731,2,-1,0,-2,-2,-1,-2,-4
1532070031736,-4,0,-1,0,-1,1,4,-2
1532070031741,2,2,0,2,-2,-2,6,9
1532070031746,14,-1,-1,-1,1,0,-10,-6
1532070031751,-2,-1,-2,1,-1,0,1,3
1532070031756,-1,0,-1,-1,0,-1,-5,-8
1532070031761,3,1,-1,-1,-1,0,5,10
1532070031766,-5,0,0,0,0,-1,5,-4
1532070031771,-2,-1,-1,0,-1,0,-5,0
1532070031776,1,-2,0,-1,0,-1,1,-3
1532070031781,0,-1,-1,-2,1,-1,-5,2
1532070031786,-4,-1,-1,-2,-1,-1,1,-7
1532070031791,1,-1,0,-1,-3,-1,-3,-3
1532070031796,-3,0,0,1,0,-1,4,2
1532070031801,-2,-2,-1,-2,-2,-2,-5,-5
1532070031806,-2,-1,0,-1,0,0,1,4
1532070031811,-2,1,1,-1,-2,-1,0,-4
1532070031816,0,0,1,-1,-1,-2,-3,-3
1532070031821,0,-1,0,-1,-2,-2,-3,0
1532070031826,-7,-1,-3,-1,-1,-2,1,-3
1532070031831,1,-2,0,-2,-1,-1,1,0
1532070031836,-1,1,-4,0,-1,1,-3,3
1532070031841,-1,-2,-2,0,-1,2,-1,-1
1532070031846,2,0,-3,0,1,-1,3,-9
1532070031851,-7,-2,-1,-1,0,-1,-10,-4
1532070031856,3,1,0,0,-2,-1,0,0
1532070031861,4,-8,-1,-2,1,-3,1,5
1532070031866,-2,-1,-1,-1,-1,-1,-3,3
1532070031871,-4,0,-2,-1,-1,-1,-1,-8
1532070031876,5,-1,1,-2,1,-1,-2,-6
1532070031881,-4,0,1,0,-2,0,-4,-2
1532070031886,-2,-1,0,-1,-2,0,1,1
1532070031891,4,1,0,0,-2,-2,1,-2
1532070031896,-10,-3,-1,0,-1,-2,-1,2
1532070031901,2,3,0,0,-3,-1,-2,-5
1532070031906,3,-2,0,-1,0,0,-2,4
1532070031911,-2,0,-2,2,0,0,3,1
1532070031916,1,-1,-1,-2,-1,-1,-1,1
1532070031921,-4,-2,-1,-1,-1,1,1,0
1532070031926,2,1,0,-2,-2,-3,2,-5
1532070031931,3,-1,-3,1,-1,-3,-16,1
1532070031936,-3,-2,-1,-2,0,-1,2,-2
1532070031941,-1,-1,-2,0,0,0,-1,-3
1532070031946,-2,-2,1,-1,-2,2,-1,3
1532070031951,0,1,-1,-1,-2,0,6,2
1532070031956,-1,-1,-2,0,-1,-1,-4,-2
1532070031961,7,6,0,-2,-1,1,-2,-1
1532070031966,-19,-10,-4,0,0,-2,0,-5
1532070031971,0,-1,-3,-3,1,-1,0,-9
1532070031976,6,0,-1,0,1,1,1,6
1532070031981,-3,-1,1,1,0,0,2,0
1532070031986,-10,1,-1,-1,0,-1,-1,3
1532070031991,0,-1,1,-2,0,1,3,0
1532070031996,0,0,-2,0,0,-1,-1,-1
1532070032001,0,-1,0,-2,-1,-1,-1,-4
1532070032006,-2,0,-2,-1,-3,-1,-3,4
1532070032011,1,0,1,-2,0,1,3,3
1532070032016,1,0,0,-3,-3,-2,-1,1
1532070032021,-2,-1,-2,0,2,-2,-2,-7
1532070032026,4,1,-2,0,-2,-2,0,12
1532070032031,-2,0,-4,-1,0,-2,-1,3
1532070032036,-1,-1,-1,-1,-2,-2,2,2
1532070032041,-4,-1,-1,-1,-2,-2,-1,-3
1532070032046,5,1,2,-2,-1,1,7,-4
1532070032051,5,3,0,2,0,-3,-15,1
1532070032056,-15,-5,-1,0,-1,0,-4,-4
1532070032061,3,0,-1,-1,-1,-1,0,6
1532070032066,3,3,1,0,-1,-1,-4,-4
1532070032071,7,0,1,0,-1,1,4,4
1532070032076,8,2,0,-1,-1,0,-1,-3
1532070032081,-12,0,0,0,0,0,-1,2
1532070032086,2,0,0,1,1,-1,-2,-12
1532070032091,3,0,-1,-2,-3,-1,4,0
1532070032096,-10,-1,-1,-2,1,-1,-5,-5
1532070032101,1,-2,-1,-2,-1,0,2,0
1532070032106,4,0,-1,0,-2,-1,-2,-1
1532070032111,-5,-4,0,-2,-2,0,5,10
1532070032116,2,0,-2,-1,0,-3,-6,-14
1532070032121,8,-4,-1,-1,-2,-1,6,6
1532070032126,-1,-1,-1,-1,0,0,-5,-1
1532070032131,-4,-4,-1,-1,-1,-1,3,-1
1532070032136,2,-2,-1,0,1,0,1,6
1532070032141,0,1,-1,-1,0,0,1,-4
1532070032146,1,-1,-1,0,0,-2,2,2
1532070032151,-5,-1,-2,-2,-1,-1,-6,-14
1532070032156,3,1,-1,2,-2,0,2,1
1532070032161,-7,-1,-1,-1,-2,1,-3,-6
1532070032166,7,-2,-2,-3,-1,-1,0,2
1532070032171,2,0,0,0,1,-2,-2,0
1532070032176,-1,-2,-1,1,-1,0,1,1
1532070032181,4,2,-2,0,-2,-1,-3,-3
1532070032186,-4,-1,0,-1,-2,-1,-2,3
1532070032191,2,1,-1,-2,-2,-1,4,2
1532070032196,1,1,0,-2,-1,-1,0,-1
1532070032201,-3,-1,-1,-1,0,0,-2,0
1532070032206,-3,2,-1,-1,-2,1,-3,-4
1532070032211,3,-2,-1,0,0,-1,-2,5
1532070032216,-7,0,-2,0,0,-1,1,-5
1532070032221,-2,-2,-1,0,-1,-2,-4,-2
1532070032226,-2,-1,1,-2,-1,-2,-1,0
1532070032231,-3,-1,-2,-1,-1,-1,-1,-5
1532070032236,6,-2,0,1,-2,0,2,7
1532070032241,-11,-3,1,-1,0,-3,6,-6
1532070032246,4,-1,-1,0,0,-1,-12,-4
1532070032251,-2,-1,-1,1,1,-1,5,2
1532070032256,-2,-1,0,0,-1,-1,1,2
1532070032261,3,0,-3,-1,0,-1,-3,-1
1532070032266,-1,2,-3,0,-1,0,5,0
1532070032271,-6,-3,-1,-1,-1,1,-2,-3
1532070032276,0,2,1,-1,-2,0,2,-3
1532070032281,3,-9,-2,0,3,-3,-9,2
1532070032286,-1,1,1,0,0,0,2,-1
1532070032291,-1,2,0,-1,-2,-1,-2,0
1532070032296,0,-1,-3,0,0,-2,4,4
1532070032301,-1,2,-1,0,-1,-1,-3,-7
1532070032306,-1,-1,0,0,-1,1,2,3
1532070032311,4,-2,-1,1,0,-2,2,-1
1532070032316,-3,-2,1,-2,-1,-1,-4,2
1532070032321,-3,1,1,1,-2,-2,-1,0
1532070032326,3,-2,0,0,-1,-1,1,4
1532070032331,-5,0,-2,0,-2,-1,-1,0
1532070032336,3,-1,-1,-1,-2,0,-1,-3
1532070032341,-4,-2,-1,0,1,2,-2,-2
1532070032346,-3,1,-2,-2,0,0,9,1
1532070032351,-2,-1,-2,-2,0,0,-12,1
1532070032356,-1,-3,-3,-3,0,0,0,0
1532070032361,12,2,-1,-1,-2,-1,1,2
1532070032366,-17,-2,-1,-1,-1,-1,3,-3
1532070032371,-2,-1,0,-1,-1,1,1,-2
1532070032376,1,0,-1,0,1,0,-2,1
1532070032381,0,0,-1,-1,-2,1,-1,2
1532070032386,1,-1,-3,-1,-1,-3,-3,2
1532070032391,-1,-1,0,-1,-1,-1,2,-1
1532070032396,-1,0,-2,-1,0,0,-5,-5
1532070032401,-3,1,1,-1,-2,0,2,1
1532070032406,10,-6,-2,-1,2,0,-4,1
1532070032411,-6,0,0,-2,0,-3,1,-3
1532070032416,-1,-1,1,-1,0,-1,1,1
1532070032421,1,2,-1,-1,0,0,-1,-2
1532070032426,-1,1,0,1,-3,-1,-2,1
1532070032431,0,0,0,0,-1,0,3,2
1532070032436,-5,-1,-1,-2,-1,-2,-5,-13
1532070032441,5,0,0,-1,-1,-2,3,-4
1532070032446,-11,-2,-1,-1,-1,-2,-4,1
1532070032451,-2,-4,-4,-1,-1,1,-1,-4
1532070032456,-1,0,-2,-2,-2,-3,-1,0
1532070032461,-2,-2,-3,1,-1,-1,3,4
1532070032466,7,-1,-2,0,-1,0,-1,-5
1532070032471,-9,0,1,0,-1,-1,-1,-1
1532070032476,0,-2,0,-3,-2,0,0,4
1532070032481,-1,0,1,-1,-1,0,1,6
1532070032486,2,0,1,0,0,1,-4,-3
1532070032491,4,-3,-2,0,0,-2,0,3
1532070032496,0,0,0,1,-1,1,0,-3
1532070032501,-21,-4,0,-1,1,-1,-2,-5
1532070032506,-3,-2,-2,-2,-2,-1,-2,-2
1532070032511,10,0,1,-3,1,-1,0,2
1532070032516,-4,-1,-2,-1,0,0,-2,-2
1532070032521,4,2,-1,0,-2,0,-2,1
1532070032526,-2,1,-1,-1,-1,0,-1,0
1532070032531,-3,-1,-2,-1,0,0,-1,-9
1532070032536,1,-1,-1,-2,-3,-3,-2,0
1532070032541,-1,-2,-1,-1,-1,-1,-2,-2
1532070032546,-2,-1,-1,0,0,0,1,-1
1532070032551,1,1,0,-2,-3,0,3,5
1532070032556,-1,-1,1,0,1,0,-2,-6
1532070032561,3,-1,-3,0,1,-2,-4,6
1532070032566,2,0,-1,-1,1,1,0,0
1532070032571,6,0,-1,-1,-2,0,1,6
1532070032576,-4,-4,-2,-1,1,-1,-4,-4
1532070032581,2,3,-1,-4,-2,-2,-2,-3
1532070032586,-8,-1,2,-1,0,0,8,-9
1532070032591,-2,-1,0,0,0,-4,-18,9
1532070032596,1,0,-1,-1,-2,-2,-4,-15
1532070032601,-1,-1,-2,0,0,0,0,2
1532070032606,-2,-2,-1,-1,0,-1,-1,-5
1532070032611,1,0,0,2,1,1,7,-5
1532070032616,-5,-2,-1,-1,1,-2,0,12
1532070032621,2,1,-1,-1,-2,0,-4,0
1532070032626,-2,0,-2,-1,-2,-2,-8,-13
1532070032631,-3,-4,0,1,-1,0,4,-1
1532070032636,6,0,-1,0,-1,0,0,5
1532070032641,-8,-1,0,0,-2,0,2,-19
1532070032646,-10,-2,-1,-1,-1,-1,-1,8
1532070032651,5,0,-1,-1,-2,-2,0,-2
1532070032656,-8,-1,-1,0,-1,-1,-1,-4
1532070032661,9,-2,0,-2,0,-1,-1,-4
1532070032666,-2,-2,0,0,-1,-2,-1,4
1532070032671,4,1,-2,-1,0,-1,3,0
1532070032676,-1,1,-1,-2,-2,0,-2,-13
1532070032681,-2,0,-1,0,0,-2,-4,2
1532070032686,1,0,-1,0,0,-1,-2,0
1532070032691,1,0,0,-1,0,0,2,-4
1532070032696,3,0,0,0,-3,-1,0,-2
1532070032701,-2,-1,0,-1,-1,-2,0,6
1532070032706,2,-1,-1,0,-2,-2,-2,1
1532070032711,-1,1,0,-3,-1,1,1,2
1532070032716,-3,0,1,-1,0,0,0,5
1532070032721,-1,-2,-1,-2,-3,-1,-4,-5
1532070032726,1,-1,-1,-1,-1,-1,-1,1
1532070032731,-20,-1,-2,-2,0,0,-2,-5
1532070032736,-4,-3,-1,-2,1,-2,-1,2
1532070032741,5,0,-1,-1,-2,-1,0,5
1532070032746,4,-2,-1,0,1,-1,0,3
1532070032751,3,-1,-1,-2,-1,-2,0,0
1532070032756,-9,-3,0,0,-2,-1,2,4
1532070032761,9,3,1,-1,-1,0,-4,-6
1532070032766,-15,-4,0,1,0,0,0,8
1532070032771,1,1,-1,0,-1,-1,0,-6
1532070032776,2,0,-1,-3,-1,-1,1,10
1532070032781,-2,-1,-2,0,-1,-2,-3,5
1532070032786,3,2,-1,0,-1,1,1,-2
1532070032791,2,-2,-1,-2,0,-1,-4,-2
1532070032796,-1,-1,1,0,-2,-2,1,3
1532070032801,-6,1,-1,-2,1,1,4,7
1532070032806,12,-1,-2,-4,-3,-2,-2,-11
1532070032811,-5,-2,0,-1,-2,0,5,0
1532070032816,-11,-2,-1,-1,-1,0,-8,-3
1532070032821,0,-1,-1,-1,-1,-2,2,2
