1532062727053,-1,-2,-1,-6,-3,-4,-1,2
1532062727058,0,0,2,2,5,3,-1,0
1532062727063,0,-3,0,6,-5,2,9,-1
1532062727068,0,-1,2,4,8,3,-6,-3
1532062727073,-2,-3,-8,-18,-5,-4,-3,-1
1532062727078,1,0,1,3,-1,-4,-1,-1
1532062727083,-1,0,-1,1,-2,0,1,-2
1532062727088,-1,-2,-2,-5,0,-1,1,1
1532062727093,0,2,6,12,3,0,0,-3
1532062727098,-3,-1,-8,-7,-3,0,-5,-1
1532062727103,-3,-3,-2,4,-1,-3,3,1
1532062727108,-2,-4,-3,-5,-2,-3,-1,-1
1532062727113,-1,-1,0,5,0,0,0,-1
1532062727118,-1,0,2,-1,1,-1,1,-1
1532062727123,-1,1,0,6,1,-3,-3,-1
1532062727128,0,-3,-2,2,-5,-4,-5,-2
1532062727133,-1,0,-1,-4,6,5,3,2
1532062727138,1,-1,1,7,-8,1,-2,-3
1532062727143,1,1,3,-2,8,1,1,0
1532062727148,-2,-2,-4,-8,-4,-4,-2,-1
1532062727153,1,-2,-2,-12,-6,-2,-4,0
1532062727158,0,1,3,7,3,0,-2,-2
1532062727163,-2,1,-2,-4,1,-1,3,0
1532062727168,0,2,2,-3,3,4,-2,0
1532062727173,0,-1,-3,11,-4,-3,0,-1
1532062727178,-1,-2,0,-2,-1,-4,-1,1
1532062727183,-1,0,0,16,-4,-2,-3,-2
1532062727188,-3,-2,-4,-10,-1,-1,3,0
1532062727193,-4,-1,1,2,1,-1,-1,-1
1532062727198,-1,0,-1,-5,-3,-3,-1,-1
1532062727203,0,-2,-1,0,4,0,2,0
1532062727208,0,0,-1,0,-2,-1,-1,-1
1532062727213,-2,-1,1,0,0,1,0,1
1532062727218,-2,-2,0,-1,0,-4,-2,0
1532062727223,-2,-2,-3,-8,-2,-3,-2,1
1532062727228,1,1,-1,0,-4,-1,-1,0
1532062727233,2,1,0,-5,2,1,-1,-3
1532062727238,-2,-2,-2,1,1,0,-2,-1
1532062727243,-1,-1,0,-4,-2,1,-2,-1
1532062727248,-1,0,1,2,-5,-3,-2,-1
1532062727253,-2,-2,-2,-2,-2,-3,-1,-1
1532062727258,0,-1,1,0,1,4,2,1
1532062727263,-1,1,0,-3,-1,0,-1,-3
1532062727268,-1,0,2,6,3,-1,-2,-1
1532062727273,-2,0,0,0,0,-1,-2,0
1532062727278,-1,-1,-4,-4,1,2,0,-1
1532062727283,0,-1,-2,-4,-4,-1,-1,-1
1532062727288,-1,1,4,7,4,1,1,0
1532062727293,-2,-4,-10,-17,-6,-4,-1,-1
1532062727298,-2,0,-1,-5,-2,-2,-1,0
1532062727303,-1,-2,-2,-5,2,-1,0,-2
1532062727308,-2,-2,-2,-3,-8,-2,-3,0
1532062727313,0,0,0,12,5,0,1,-1
1532062727318,0,0,-1,1,-4,0,0,-1
1532062727323,0,0,0,-4,2,1,-1,-1
1532062727328,-1,-3,-2,-5,-1,-3,-3,0
1532062727333,0,-2,-1,4,-5,-1,0,0
1532062727338,1,0,-1,-5,3,2,0,-1
1532062727343,-2,-1,-4,-6,-4,-2,0,0
1532062727348,1,0,0,0,0,-1,0,0
1532062727353,0,1,4,4,0,-2,-2,1
1532062727358,0,-1,-4,-5,0,-1,-1,-1
1532062727363,0,0,2,4,-2,0,1,0
1532062727368,-1,-1,-2,-2,1,1,3,1
1532062727373,-1,2,1,3,-3,-2,-2,-3
1532062727378,-1,-2,-1,-1,1,-1,-1,1
1532062727383,1,-2,-1,-3,-8,-1,-1,-2
1532062727388,1,0,-2,-1,4,-3,-2,0
1532062727393,-1,-1,-1,1,1,-1,0,0
1532062727398,-2,-1,-2,-3,-5,-1,-1,-1
1532062727403,0,0,2,1,4,2,0,-2
1532062727408,-1,1,0,-4,-2,-3,0,-2
1532062727413,-2,-2,-3,-1,-2,0,0,-1
1532062727418,-1,0,0,-1,-1,-2,0,0
1532062727423,-1,-1,0,6,-2,-3,-2,0
1532062727428,1,1,-4,-8,0,2,0,-1
1532062727433,0,0,2,0,0,0,0,-1
1532062727438,-2,0,-4,-6,-8,-3,-2,0
1532062727443,1,0,0,3,3,-1,0,-1
1532062727448,0,-2,0,2,2,0,-1,-1
1532062727453,1,-2,-1,-8,-4,1,-1,-2
1532062727458,0,-2,1,9,2,-3,0,-2
1532062727463,-1,0,-1,-12,-3,0,0,1
1532062727468,-2,-2,-2,10,-6,-3,-3,0
1532062727473,-1,0,-1,-2,-2,-1,-1,-2
1532062727478,1,1,0,-9,0,0,2,0
1532062727483,0,-1,-1,5,3,-2,-1,-1
1532062727488,-2,1,2,-3,-5,-1,-1,-1
1532062727493,0,0,1,2,1,-1,1,0
1532062727498,-1,-1,0,7,5,1,0,0
1532062727503,-2,-2,-2,-5,0,0,-1,0
1532062727508,-2,-2,-4,-9,-3,-3,1,-2
1532062727513,1,1,1,1,-3,0,-1,-1
1532062727518,0,-2,0,-2,-1,0,0,-1
1532062727523,0,0,2,6,1,-2,-1,-1
1532062727528,-2,-1,-2,-13,-6,-2,-1,0
1532062727533,-1,-1,-1,-3,1,1,0,0
1532062727538,-1,-1,1,-1,-2,-2,-2,0
1532062727543,-2,-1,-2,2,1,1,1,0
1532062727548,-1,0,0,7,2,-1,-1,-2
1532062727553,-1,0,-1,5,2,1,-1,0
1532062727558,1,-1,-1,3,-1,-2,-1,-1
1532062727563,-1,-2,-4,-8,-2,-2,-2,-1
1532062727568,-1,-1,1,9,-1,0,2,-1
1532062727573,0,-2,-3,-11,5,1,0,-1
1532062727578,-1,1,3,6,-7,-2,-2,0
1532062727583,0,1,-3,-7,-8,-4,-1,-1
1532062727588,0,-1,-3,3,1,0,-1,0
1532062727593,1,0,-1,-3,2,1,1,0
1532062727598,-3,-1,1,15,-1,-1,-1,-1
1532062727603,0,1,3,2,-1,0,1,-1
1532062727608,-2,-3,-4,-12,0,-3,-3,-2
1532062727613,-1,1,-2,-3,-12,-2,-1,-1
1532062727618,0,0,0,-1,7,4,-1,-1
1532062727623,0,-1,0,0,-1,0,-1,-1
1532062727628,-1,-1,-1,-2,-2,-2,0,-1
1532062727633,-1,0,2,6,0,-2,-2,-1
1532062727638,-1,-4,-8,-16,-8,-1,0,-3
1532062727643,-1,0,1,0,6,4,2,-2
1532062727648,-1,0,1,1,5,1,-1,-1
1532062727653,0,-1,-1,1,1,-2,0,0
1532062727658,0,1,-1,-6,-3,-2,-1,0
1532062727663,0,-2,-2,6,1,0,0,0
1532062727668,0,0,1,-3,-3,0,1,1
1532062727673,-2,0,-1,-1,0,-2,-2,-2
1532062727678,-1,1,2,10,6,-2,-1,-1
1532062727683,-2,-2,-6,-19,-14,-2,-2,0
1532062727688,0,0,2,12,4,0,-1,0
1532062727693,0,-2,-1,0,2,0,0,0
1532062727698,-1,-1,-3,-11,0,-2,-1,0
1532062727703,0,-1,0,16,-2,-1,-1,-1
1532062727708,1,1,0,2,7,4,2,0
1532062727713,-1,-1,-2,-1,-3,-3,-1,-1
1532062727718,0,-1,-3,2,2,-2,-1,0
1532062727723,-1,-2,-2,-4,-4,-5,-4,-1
1532062727728,-1,-2,0,-4,-8,-2,-2,-2
1532062727733,-1,-1,-2,2,5,5,1,1
1532062727738,-1,-1,2,-4,-2,-1,-1,0
1532062727743,-1,0,1,-5,1,-2,0,-1
1532062727748,-1,-1,-1,15,1,-1,0,-2
1532062727753,0,-1,-1,-21,-6,-2,-1,-2
1532062727758,1,-1,2,9,-1,0,-1,-1
1532062727763,1,-2,-4,-18,0,0,-3,-1
1532062727768,-2,0,-1,7,-3,-2,-1,1
1532062727773,-1,0,-2,-3,-3,-2,0,0
1532062727778,-1,-2,1,-4,-3,-1,0,1
1532062727783,-1,0,1,4,5,-1,0,0
1532062727788,1,2,4,-2,-5,0,1,0
1532062727793,0,-2,-6,-8,6,0,-1,-2
1532062727798,-2,-2,-1,13,2,-1,-2,-2
1532062727803,1,0,2,4,-6,0,0,0
1532062727808,0,0,-3,-4,2,1,0,0
1532062727813,0,-2,-4,-5,-3,-1,-1,0
1532062727818,1,-1,0,-4,-1,0,-1,-1
1532062727823,-2,-1,0,-1,3,0,1,-1
1532062727828,-2,-1,2,-1,-2,0,0,-1
1532062727833,0,1,2,8,1,-2,-1,1
1532062727838,-3,-5,-7,-15,-9,-3,-2,-2
1532062727843,-2,-2,1,8,7,4,0,-2
1532062727848,0,-1,-2,-7,0,-1,0,-1
1532062727853,-1,-1,1,7,1,1,0,-2
1532062727858,-1,0,-2,2,-4,0,0,0
1532062727863,-1,-1,-2,2,-4,-3,-1,-1
1532062727868,-2,-2,-2,-6,1,-1,-1,-1
1532062727873,-1,-1,1,6,-6,-4,-2,0
1532062727878,-1,0,1,9,2,0,-1,-2
1532062727883,-1,-2,-2,-28,-11,-2,0,-2
1532062727888,-1,-1,-3,3,2,-1,-2,0
1532062727893,-1,-1,-2,6,6,2,-1,-1
1532062727898,1,1,-3,-10,1,1,0,-1
1532062727903,-2,0,4,12,-2,-2,-1,0
1532062727908,0,-2,-3,-7,-4,-2,-2,1
1532062727913,-3,-2,1,-6,-9,-4,-3,-1
1532062727918,0,0,0,1,-1,0,-1,-1
1532062727923,0,-1,-3,0,8,4,-1,1
1532062727928,1,-1,2,1,-4,-1,0,-1
1532062727933,-1,1,3,1,-1,0,1,-1
1532062727938,0,-3,-4,-12,-6,-3,-2,-1
1532062727943,-1,0,1,6,2,0,0,0
1532062727948,-2,-1,-1,-1,-3,-3,-2,-2
1532062727953,-1,-3,-6,0,4,2,0,-1
1532062727958,0,1,0,-1,5,2,1,0
1532062727963,0,-1,1,1,-2,-2,1,0
1532062727968,-1,-3,-1,0,2,0,-1,-1
1532062727973,-1,-1,-2,-5,-6,-2,-1,-1
1532062727978,2,0,3,4,-1,-2,-1,0
1532062727983,0,-2,-2,-8,-1,-1,-2,0
1532062727988,-2,-2,-2,1,-7,-2,-1,-1
1532062727993,0,0,2,-3,11,1,0,0
1532062727998,-1,0,-1,8,0,1,-2,0
1532062728003,0,1,2,6,1,0,-2,-2
1532062728008,-2,-3,-4,-10,2,-2,-1,-2
1532062728013,-1,-1,1,2,-5,1,-1,0
1532062728018,-3,-2,-2,-9,-4,-3,0,-2
1532062728023,0,-1,-3,6,4,-1,-1,0
1532062728028,0,2,2,0,1,0,1,0
1532062728033,-1,-1,0,6,2,2,0,-1
1532062728038,-1,-3,-3,-12,-1,0,-2,-2
1532062728043,0,-1,-1,2,-5,-3,0,0
1532062728048,-1,-3,-6,-8,-2,-1,-4,-2
1532062728053,-1,0,3,13,-1,-1,-2,-1
1532062728058,0,-1,3,-13,1,0,1,-2
1532062728063,-4,-3,-8,-11,-8,-1,-2,1
1532062728068,-1,0,1,2,1,-1,-1,-2
1532062728073,-1,-1,0,-8,-8,-7,-3,1
1532062728078,-1,-1,0,12,5,-1,-1,-1
1532062728083,0,0,2,4,0,1,1,-2
1532062728088,-1,-1,-4,-12,0,2,-1,0
1532062728093,-2,-1,-4,-2,-6,-1,-1,-3
1532062728098,0,1,1,4,-1,0,1,-1
1532062728103,0,2,2,5,3,0,-2,0
1532062728108,1,0,2,-2,1,-2,0,0
1532062728113,0,-1,-2,-5,-2,-3,-2,0
1532062728118,-2,-1,0,2,-1,1,0,-1
1532062728123,-1,0,-3,-7,2,-1,0,-2
1532062728128,0,1,0,2,-1,0,-1,-1
1532062728133,-1,0,1,6,1,0,-1,0
1532062728138,-1,0,-5,-4,-7,-3,-2,-1
1532062728143,0,-2,1,8,13,2,-1,-2
1532062728148,0,-2,-2,-13,-3,-3,0,0
1532062728153,0,0,2,4,-1,0,1,0
1532062728158,-2,0,-2,-6,1,-1,-2,0
1532062728163,-2,-3,-2,0,-6,-2,-1,-1
1532062728168,0,0,0,5,0,1,-3,0
1532062728173,-2,-1,-3,-3,0,0,-1,-2
1532062728178,1,0,1,2,1,0,1,1
1532062728183,0,-1,-2,-6,1,1,0,-3
1532062728188,-2,-3,-4,2,-1,0,-1,-1
1532062728193,1,0,1,-4,-3,-1,-1,-1
1532062728198,-1,-1,0,1,6,1,-2,-1
1532062728203,-1,-2,-2,-2,-9,-4,-2,-1
1532062728208,0,1,2,6,7,1,0,0
1532062728213,0,-1,-2,-2,0,-3,0,-1
1532062728218,-1,0,1,10,-1,0,0,0
1532062728223,0,-1,-2,-16,-1,-1,-1,-1
1532062728228,-3,-2,2,3,-3,-1,-1,1
1532062728233,-1,-3,-5,-6,-1,-1,-2,-1
1532062728238,-2,0,0,0,3,-1,-1,-1
1532062728243,0,-2,-3,-2,-3,-1,-1,0
1532062728248,-1,1,2,2,-6,-3,0,-2
1532062728253,-1,0,0,0,0,1,0,0
1532062728258,-2,-4,-3,-7,-3,-4,-3,0
1532062728263,-3,0,0,4,-2,-2,-2,-2
1532062728268,-1,-1,-3,2,4,3,1,0
1532062728273,0,-3,1,-3,4,2,-1,-3
1532062728278,0,2,4,7,-3,-2,0,0
1532062728283,-2,-2,-7,-9,-6,-1,-2,-1
1532062728288,0,2,3,2,4,0,-1,0
1532062728293,-1,1,1,6,1,-1,1,0
1532062728298,0,0,1,-6,-4,-1,0,0
1532062728303,-2,-2,-4,-8,-1,0,-1,0
1532062728308,0,-1,2,7,0,-1,1,-2
1532062728313,0,-3,-6,-13,-2,-2,-3,-2
1532062728318,0,0,0,-4,-4,0,1,0
1532062728323,-1,0,3,12,4,0,2,1
1532062728328,-1,-1,-3,1,-2,0,-1,0
1532062728333,1,1,1,5,-4,0,0,1
1532062728338,-4,-3,0,3,-5,-3,-2,-1
1532062728343,0,0,-3,-6,-2,-1,0,-2
1532062728348,-1,-3,-5,-9,0,0,-1,-1
1532062728353,-2,-1,0,2,1,-3,-2,-2
1532062728358,-1,0,-1,-3,-4,-2,-1,0
1532062728363,0,1,3,5,-1,-1,0,-1
1532062728368,0,0,1,2,1,1,1,-3
1532062728373,-1,0,-1,-6,2,1,-1,1
1532062728378,0,-2,-8,-11,1,-1,-3,-3
1532062728383,-1,0,3,10,-3,-4,-2,0
1532062728388,-3,0,0,-14,-3,-2,0,0
1532062728393,0,-4,-6,-4,-1,2,0,-2
1532062728398,-1,-3,-1,1,3,-1,-1,-1
1532062728403,-1,-1,-1,4,-3,-1,0,-2
1532062728408,0,-1,2,9,0,-3,-3,-2
1532062728413,-1,-2,0,-2,-1,-1,0,-1
1532062728418,-1,-2,-2,-6,-2,-1,-1,-1
1532062728423,0,-3,-1,-2,0,-1,-1,-1
1532062728428,-1,-1,-1,-3,-2,-1,-2,-2
1532062728433,-3,2,3,4,0,0,1,1
1532062728438,0,2,-1,4,-2,0,0,0
1532062728443,-2,-4,-3,-8,5,-1,-2,-1
1532062728448,1,1,1,2,-5,-1,1,-1
1532062728453,1,1,0,-1,0,0,-2,-2
1532062728458,0,-2,0,10,4,0,-3,-1
1532062728463,-1,-2,1,-15,-2,-3,0,-2
1532062728468,0,-1,-3,-2,-1,-3,-1,0
1532062728473,-4,0,-1,5,1,0,-2,0
1532062728478,0,-1,0,-1,-1,-1,-1,0
1532062728483,0,0,0,2,-2,0,-1,0
1532062728488,0,0,1,5,3,-1,0,0
1532062728493,-1,-3,-6,-21,-6,-3,0,-1
1532062728498,0,0,0,3,3,0,-1,-2
1532062728503,-1,0,-1,18,-2,-1,-4,0
1532062728508,0,-3,-3,-10,-3,1,0,0
1532062728513,0,1,2,11,4,-1,0,0
1532062728518,-1,-3,-5,-20,-7,-2,-1,-1
1532062728523,0,1,2,0,7,1,1,-3
1532062728528,-1,0,-2,3,3,-1,-1,-2
1532062728533,0,-2,0,3,-1,0,0,-2
1532062728538,-1,-2,-4,-7,-1,-3,-2,-1
1532062728543,-1,0,4,19,1,-2,-1,0
1532062728548,-1,-4,-10,-37,-9,-1,-2,-1
1532062728553,-1,-2,-1,-9,-2,0,-1,0
1532062728558,-1,1,1,2,1,-1,1,-1
1532062728563,0,-1,0,2,-3,0,0,1
1532062728568,-1,0,0,6,1,-3,-1,-1
1532062728573,0,-2,0,4,0,1,-2,0
1532062728578,-2,0,2,5,0,1,0,0
1532062728583,-1,0,-2,-11,-1,-1,-2,-1
1532062728588,1,1,0,6,0,0,1,-1
1532062728593,-2,-1,-3,-7,-5,-1,-1,-2
1532062728598,0,0,1,6,0,0,-1,0
1532062728603,-1,-1,-3,1,-6,-1,-2,-2
1532062728608,-3,-3,1,-8,-3,-2,-2,-1
1532062728613,0,2,-2,2,-2,-3,-2,-2
1532062728618,0,-2,-1,2,5,0,0,-1
1532062728623,0,-1,-2,-4,-3,2,1,0
1532062728628,-1,1,1,7,-2,0,0,0
1532062728633,-1,-3,1,3,0,-3,0,-1
1532062728638,-2,-3,0,-1,-1,-1,-1,-1
1532062728643,-1,-1,-2,-7,0,-2,-2,-1
1532062728648,0,-2,2,10,0,-2,1,0
1532062728653,-2,-1,-1,-6,-3,-1,2,-1
1532062728658,0,0,-4,-3,2,0,1,-2
1532062728663,-2,-1,0,1,0,-1,0,-1
1532062728668,-2,-2,-4,-4,-3,1,-2,-1
1532062728673,0,-1,-1,2,0,-3,-4,-1
1532062728678,-1,-1,-1,-4,-2,1,1,0
1532062728683,-1,1,1,1,2,2,0,0
1532062728688,-1,-2,-4,-7,-1,-3,-2,-2
1532062728693,-1,0,0,1,0,-1,-2,-1
1532062728698,0,-1,5,11,-1,1,1,-2
1532062728703,-2,-3,-8,-14,3,-1,-1,-1
1532062728708,-2,-2,-1,0,2,-1,-2,-1
1532062728713,0,-2,0,0,-7,-3,-4,0
1532062728718,-1,1,-2,2,-2,0,-1,-1
1532062728723,1,2,4,3,2,1,1,1
1532062728728,-2,-1,-2,-6,-1,0,-1,0
1532062728733,-3,-1,0,0,-6,1,0,0
1532062728738,-3,-2,-2,0,1,-2,-2,-2
1532062728743,0,2,3,5,0,-1,0,-2
1532062728748,-2,-3,-6,-4,-5,-1,-2,0
1532062728753,-1,-1,-4,-5,2,0,0,1
1532062728758,0,0,1,-1,-1,2,1,1
1532062728763,-1,-1,1,-3,-4,-2,-1,0
1532062728768,-1,-1,1,5,1,-3,-1,-3
1532062728773,-1,0,1,3,2,3,0,-3
1532062728778,0,2,-1,-1,1,-1,-2,0
1532062728783,-1,-3,-7,-7,-2,-2,-2,-1
1532062728788,0,1,3,6,-1,0,0,0
1532062728793,0,-2,1,-2,4,0,1,-1
1532062728798,-1,-1,-1,-2,-6,-2,-3,-1
1532062728803,0,0,1,1,-1,-1,-1,0
1532062728808,0,0,-1,1,0,1,1,0
1532062728813,-1,2,5,9,3,0,0,0
1532062728818,-2,-2,-6,-16,-5,-4,-4,1
1532062728823,-2,-4,-7,-5,-4,-2,0,1
1532062728828,-1,0,-1,2,0,1,-1,-1
1532062728833,-1,-1,-1,-4,0,0,0,-1
1532062728838,0,0,3,5,-1,-2,0,-2
1532062728843,-2,-2,-1,-1,-6,-2,-1,-2
1532062728848,1,2,0,0,9,4,1,-2
1532062728853,-1,0,1,2,-1,-1,0,-2
1532062728858,0,-1,-2,-2,-2,0,-1,-1
1532062728863,-1,-1,-1,-5,-2,-2,-3,-1
1532062728868,-1,-2,-2,-1,-5,-1,0,0
1532062728873,-2,0,-2,-1,-2,-2,-1,0
1532062728878,-1,-1,2,5,0,2,1,1
1532062728883,0,0,-2,-3,7,1,0,0
1532062728888,0,0,1,-1,-7,-4,-1,0
1532062728893,0,-2,-3,-1,2,0,-2,-1
1532062728898,-2,0,1,0,1,-2,1,1
1532062728903,-1,2,2,6,-2,0,0,-1
1532062728908,-1,0,-2,-4,-1,-4,-1,0
1532062728913,-1,0,-2,-5,-4,-3,1,0
1532062728918,0,-1,1,2,0,1,-1,-1
1532062728923,0,-1,-4,-5,-1,0,0,-2
1532062728928,-1,-2,-3,-6,2,0,-1,-2
1532062728933,-1,-2,0,2,1,2,1,1
1532062728938,0,-2,-1,1,-5,1,-1,-1
1532062728943,0,-1,-2,0,0,-1,-1,1
1532062728948,-1,1,0,5,-1,1,-1,-2
1532062728953,-1,-2,-2,-6,-2,-2,-3,-1
1532062728958,-1,-1,0,-2,2,-2,-1,-2
1532062728963,-4,-4,-3,-5,-2,-2,-3,-1
1532062728968,-1,-2,0,1,0,0,1,0
1532062728973,-1,1,1,1,-1,0,1,-1
1532062728978,-2,1,-3,-2,0,-3,0,-1
1532062728983,0,1,3,6,-1,-2,1,-1
1532062728988,-1,-1,1,-1,-1,-2,-3,0
1532062728993,1,-1,2,3,-2,-1,0,-1
1532062728998,-1,-3,-8,-15,-3,0,0,-2
1532062729003,-3,-2,1,1,2,0,-1,-1
1532062729008,-1,-2,-2,3,-1,-2,0,-1
1532062729013,1,-1,0,-1,-3,2,-2,-1
1532062729018,0,-1,0,6,-2,-2,-2,-2
1532062729023,0,0,3,1,2,0,0,0
1532062729028,-1,-2,-4,-6,-3,-1,-2,0
1532062729033,0,0,-1,-4,-3,-2,-2,-2
1532062729038,-1,-3,-5,-6,-2,-1,-2,-1
1532062729043,0,1,3,1,-2,-2,-2,-2
1532062729048,0,0,2,10,-2,-2,1,0
1532062729053,-1,-2,-3,-5,6,1,1,0
1532062729058,-2,-1,1,-2,-1,0,1,1
1532062729063,1,0,1,5,2,3,1,0
1532062729068,-2,-3,-4,-7,-3,-3,-2,-1
1532062729073,-2,0,-1,1,-1,-1,-3,-2
1532062729078,-1,1,0,0,0,0,1,0
1532062729083,0,0,-2,-1,-2,-3,-1,-1
1532062729088,0,1,2,1,-5,-1,0,-1
1532062729093,-1,-1,-2,-1,4,-2,-1,-1
1532062729098,0,-1,0,5,0,0,0,-1
1532062729103,-2,-2,-5,-8,-5,-1,-1,0
1532062729108,-1,-2,1,1,-2,0,0,-2
1532062729113,0,0,-1,-4,3,2,-1,0
1532062729118,0,-1,2,9,-2,-3,-2,-2
1532062729123,-1,0,-2,-8,-3,0,0,-3
1532062729128,1,0,1,1,5,0,-1,1
1532062729133,-2,-2,-1,1,-6,-3,-1,-1
1532062729138,1,0,2,1,3,-1,-2,0
1532062729143,-2,-1,-2,-2,-3,0,-2,0
1532062729148,0,1,0,-1,-1,-3,-1,-1
1532062729153,-2,-2,-2,3,-3,-1,0,-1
1532062729158,-1,3,-1,1,8,2,-1,-1
1532062729163,-1,-1,1,3,-2,-2,0,-1
1532062729168,-2,-2,-8,-17,-2,2,-2,-3
1532062729173,0,0,1,-1,-2,-3,-1,1
1532062729178,-1,-1,1,-3,-4,-2,-3,-1
1532062729183,0,-2,2,8,3,0,1,-2
1532062729188,0,1,-1,2,2,0,0,0
1532062729193,-1,-2,-3,-3,-1,1,0,-1
1532062729198,0,-1,-1,-1,2,3,2,-1
1532062729203,-1,1,-2,-3,1,1,-4,-1
1532062729208,-2,-3,-2,-5,-9,-4,-2,1
1532062729213,-1,0,0,0,4,0,-2,-3
1532062729218,-1,1,1,1,-5,-4,-2,1
1532062729223,-2,-1,-3,-3,2,0,1,-2
1532062729228,0,-2,0,2,6,-1,-1,1
1532062729233,0,1,3,5,-10,-1,-1,-1
1532062729238,-1,-2,-4,-7,5,0,-2,-1
1532062729243,0,-1,0,2,-3,-2,-2,-1
1532062729248,1,-1,0,1,2,2,1,-2
1532062729253,-2,-1,0,-4,-2,-3,-1,-1
1532062729258,-1,-3,1,2,-3,-1,1,-1
1532062729263,-1,0,0,-1,-5,-1,-1,1
1532062729268,1,1,1,5,5,0,0,-1
1532062729273,1,-1,-1,-1,-3,-2,-3,0
1532062729278,-2,-1,1,2,1,0,-1,-1
1532062729283,0,0,1,2,0,-2,-1,0
1532062729288,0,1,0,-1,-1,1,-1,-1
1532062729293,-2,-3,-3,1,-5,-3,-1,-1
1532062729298,0,0,-3,-2,5,-3,-2,-2
1532062729303,0,-1,-1,-2,-1,1,-2,2
1532062729308,-1,-1,-1,-1,-3,0,-1,-2
1532062729313,2,1,2,2,2,0,0,-1
1532062729318,-1,-2,-3,-6,-8,-3,-2,-2
1532062729323,0,0,-1,-7,-8,-7,-4,-1
1532062729328,0,-2,-2,-2,-3,-3,-2,-1
1532062729333,-2,0,0,-5,-5,-3,-1,0
1532062729338,-3,-2,-3,0,-1,-1,-2,-2
1532062729343,-2,-1,1,1,0,-1,0,-2
1532062729348,0,1,1,5,6,2,0,1
1532062729353,0,-1,-2,-7,-4,-3,-2,1
1532062729358,-1,-3,-3,-2,-2,-3,-2,-1
1532062729363,0,-2,0,1,-3,-1,-2,-1
1532062729368,0,-1,-2,-2,0,-3,-1,-2
1532062729373,-2,-2,-3,-4,6,2,-1,-2
1532062729378,0,0,-3,0,-10,-1,-1,0
1532062729383,0,0,2,5,7,-2,-1,-1
1532062729388,-1,-3,-3,-2,-4,-2,-1,-2
1532062729393,1,2,2,7,-1,1,1,0
1532062729398,0,-1,-2,-10,3,-1,-1,0
1532062729403,0,-2,-4,-3,-4,-2,-2,-2
1532062729408,0,2,6,8,-2,-3,0,-2
1532062729413,-1,-4,-9,-11,6,0,-1,-2
1532062729418,1,1,3,6,1,2,0,0
1532062729423,0,0,2,-2,-3,-1,0,0
1532062729428,-3,-2,-6,-11,-7,-3,-3,0
1532062729433,1,-2,5,9,1,1,0,-2
1532062729438,0,-1,0,-3,1,0,0,-2
1532062729443,-1,0,-4,-2,0,-1,-1,-1
1532062729448,-1,1,0,-2,0,-1,-1,1
1532062729453,-1,0,-3,-4,-11,-4,-3,-1
1532062729458,0,1,1,4,5,3,2,1
1532062729463,-1,-1,-3,1,-8,0,0,-2
1532062729468,-1,-3,-3,-12,2,-1,-2,0
1532062729473,0,1,2,4,2,0,0,0
1532062729478,-1,-2,-4,-11,-6,-2,-1,-3
1532062729483,2,0,1,5,-1,-1,-1,0
1532062729488,-1,-1,-3,-5,3,1,-1,-1
1532062729493,-2,-1,1,-2,-13,-4,-3,-1
1532062729498,-2,-2,0,7,3,0,1,-1
1532062729503,-1,0,1,-3,8,4,3,0
1532062729508,-1,1,2,6,1,-2,-2,-2
1532062729513,0,0,-1,-9,-2,-1,0,1
1532062729518,-1,-1,-3,-4,-4,-1,-1,-2
1532062729523,-1,0,-1,0,-2,-1,-1,0
1532062729528,-1,-1,0,4,-3,1,-1,-2
1532062729533,0,-2,-1,-2,7,1,1,-1
1532062729538,-1,-1,-4,-8,-4,-2,-2,-1
1532062729543,-1,0,1,2,0,-1,0,-1
1532062729548,0,0,3,5,2,1,0,0
1532062729553,-2,1,-1,-4,-6,-2,-1,-1
1532062729558,0,-2,-2,-4,0,-3,-1,-2
1532062729563,0,0,1,4,-2,-1,1,0
1532062729568,1,-1,-2,0,4,5,3,1
1532062729573,2,-2,-1,2,1,0,0,1
1532062729578,-1,0,1,2,0,-1,-3,1
1532062729583,0,-1,3,-2,-5,-3,-2,0
1532062729588,-2,-3,-4,-10,-2,-2,0,-1
1532062729593,-1,0,0,2,1,0,0,1
1532062729598,-1,0,-2,-5,1,2,-1,-2
1532062729603,-1,-3,-2,2,-4,-3,-2,-3
1532062729608,0,0,1,7,0,-1,2,0
1532062729613,-1,-3,-5,-7,-2,-2,-1,-2
1532062729618,-2,-1,-2,-2,1,-2,-2,1
1532062729623,-1,0,-1,-1,0,0,0,-1
1532062729628,0,-2,-2,-2,-2,-1,-1,-3
1532062729633,-2,0,-1,4,-4,-2,-1,-2
1532062729638,0,-2,2,3,-2,-1,0,0
1532062729643,2,1,1,2,-1,2,0,0
1532062729648,-2,-1,-8,-8,-3,-2,-4,-1
1532062729653,-2,-1,-2,-3,1,1,0,-1
1532062729658,-2,-2,-3,-1,-2,-2,-1,0
1532062729663,0,-1,0,-2,0,-2,-2,0
1532062729668,0,-1,1,3,-1,-4,-3,-2
1532062729673,-2,1,0,1,-7,-1,-1,-2
1532062729678,0,0,4,5,6,1,1,-1
1532062729683,-2,0,-7,-11,2,0,1,-1
1532062729688,0,0,2,2,0,-1,-2,-1
1532062729693,-1,-1,-3,-4,-1,-5,-3,-1
1532062729698,0,0,2,6,-1,2,1,-3
1532062729703,-3,0,1,-1,-1,-1,0,0
1532062729708,-2,-2,-4,-7,1,0,-1,-3
1532062729713,1,0,2,3,-6,-3,-1,-1
1532062729718,-1,0,0,5,2,-1,0,-1
1532062729723,-2,-3,-4,-7,-5,0,-2,-1
1532062729728,-1,0,-1,-3,1,2,0,0
1532062729733,0,0,-1,1,4,-1,-1,0
1532062729738,0,1,3,5,-3,-4,-1,-1
1532062729743,0,-2,-6,-14,-3,-4,-2,-2
1532062729748,-1,-1,2,-1,-4,0,0,1
1532062729753,-1,-1,-5,-1,7,2,1,-1
1532062729758,0,-2,-1,-4,-1,-1,0,-1
1532062729763,0,0,3,3,-4,-3,-3,0
1532062729768,-1,-1,-1,4,5,-1,2,0
1532062729773,0,-2,-2,-7,-4,-1,-1,-1
1532062729778,1,-2,-1,-3,-6,-3,0,0
1532062729783,0,-1,-2,4,6,1,0,-1
1532062729788,1,0,2,0,-6,-4,-2,-1
1532062729793,-1,-2,-3,-3,-1,-2,-2,-2
1532062729798,-1,0,-5,-6,0,0,-1,-1
1532062729803,1,2,2,4,0,2,1,-1
1532062729808,0,0,-1,2,4,-1,0,-2
1532062729813,-1,-2,-3,-4,-6,-2,-1,0
1532062729818,-1,-1,-1,-6,3,-1,-2,-1
1532062729823,0,-1,2,7,1,1,0,-1
1532062729828,0,-1,-3,-4,0,1,0,-1
1532062729833,0,-1,0,-3,2,-1,-2,-1
1532062729838,0,0,0,1,-6,-2,-2,-1
1532062729843,-2,-2,-4,0,1,-2,-2,0
1532062729848,-1,1,2,3,1,-2,-1,0
1532062729853,0,0,2,-4,-8,-1,0,-2
1532062729858,0,1,-4,-1,7,2,1,0
1532062729863,0,-1,-1,1,0,0,-2,-2
1532062729868,-2,-2,-4,-4,-7,-4,-1,-2
1532062729873,0,0,2,7,-4,0,1,0
1532062729878,-1,0,-1,0,0,0,-1,-2
1532062729883,-2,-2,0,1,2,1,0,0
1532062729888,-3,-2,-6,-8,2,2,0,-2
1532062729893,-4,-3,-2,-3,0,-2,-1,1
1532062729898,-1,0,1,-1,-9,0,0,1
1532062729903,-2,0,-1,-4,-2,0,-2,0
1532062729908,-1,-1,4,5,-3,-1,-1,0
1532062729913,0,-1,-1,4,5,-1,0,-1
1532062729918,-2,-2,-3,-6,-1,0,-2,0
1532062729923,-1,0,-2,-2,-4,-3,0,-1
1532062729928,0,-2,-4,-11,-3,-1,0,0
1532062729933,-2,2,3,7,5,1,-1,0
1532062729938,-2,-1,-2,-4,-3,-3,-2,-1
1532062729943,-2,-1,0,0,-4,0,-3,-2
1532062729948,-1,0,-3,-3,1,-2,-1,0
1532062729953,0,0,-1,-5,-4,1,0,0
1532062729958,0,1,3,4,1,-1,-1,-1
1532062729963,0,-1,-4,-8,-6,-2,-1,-1
1532062729968,0,1,0,0,5,-2,0,0
1532062729973,0,-2,-2,2,2,1,0,0
1532062729978,0,-1,-1,1,0,1,0,-1
1532062729983,0,0,-2,-1,-2,-1,0,-1
1532062729988,-2,0,2,1,-3,1,-1,0
1532062729993,-1,0,0,-1,-1,0,-1,-2
1532062729998,0,-2,4,2,-2,-2,0,-1
1532062730003,-2,0,-1,-1,-2,-3,-2,-1
1532062730008,1,0,-1,-1,4,0,0,-1
1532062730013,0,0,1,0,-2,-1,-1,-1
1532062730018,-1,0,-1,-1,-4,0,0,-1
1532062730023,-1,0,1,0,-1,0,-2,-1
1532062730028,1,0,0,3,-1,-2,-2,-4
1532062730033,0,-1,-1,-9,-5,-5,-3,-1
1532062730038,0,-2,-1,2,-2,-3,-2,-1
1532062730043,-1,-1,-2,-7,0,2,1,0
1532062730048,0,0,0,-2,-2,0,-2,-2
1532062730053,-1,-4,-4,-5,-3,-1,1,0
1532062730058,-2,-1,-2,-5,0,-3,-1,-1
1532062730063,0,-1,2,6,-8,-1,-2,-1
1532062730068,0,-1,0,2,3,1,-1,-1
1532062730073,-1,-1,-3,-2,-1,1,2,-3
1532062730078,0,-3,1,3,1,-2,0,-1
1532062730083,-1,0,0,5,2,-3,1,0
1532062730088,-3,-3,-7,-15,-5,-3,-1,0
1532062730093,0,-2,0,-2,1,2,-2,-1
1532062730098,-4,-1,-2,5,-3,1,-1,-1
1532062730103,1,1,1,3,1,-3,-2,-1
1532062730108,0,-2,-1,2,-3,-2,0,-1
1532062730113,0,1,1,1,1,-1,0,-3
1532062730118,-1,-1,-2,2,3,1,1,0
1532062730123,2,0,1,-4,-2,0,1,-1
1532062730128,-1,1,0,0,-1,-1,-2,0
1532062730133,0,-2,-4,-7,-1,-3,-3,-1
1532062730138,1,-1,-1,1,-9,0,1,0
1532062730143,-1,-3,0,3,4,1,-2,-1
1532062730148,0,1,0,4,-1,1,2,0
1532062730153,0,1,4,3,1,-1,-1,-1
1532062730158,0,1,0,-2,-4,-2,-1,-1
1532062730163,-2,-1,-7,-12,2,-2,-2,-1
1532062730168,-2,-1,-3,-5,-9,-3,-1,-2
1532062730173,-1,0,1,7,3,2,-1,0
1532062730178,1,-1,-3,-7,-2,-1,-2,-1
1532062730183,0,0,1,4,-1,-1,2,0
1532062730188,1,0,-4,-4,0,1,-2,-2
1532062730193,0,-1,1,3,-2,-1,-2,-1
1532062730198,0,0,-1,-5,-2,0,-1,-1
1532062730203,-1,-3,-1,-2,5,-1,-1,-2
1532062730208,-2,0,3,4,-5,-5,0,1
1532062730213,0,0,-1,6,-4,1,2,0
1532062730218,-2,-1,-3,-13,7,0,1,-2
1532062730223,-1,0,-1,2,-8,-2,-1,-2
1532062730228,-1,-2,3,7,11,3,-2,-2
1532062730233,-2,-3,-4,-9,-5,-4,-2,1
1532062730238,-1,-1,-1,2,-2,0,0,-2
1532062730243,0,2,-1,-2,5,0,-2,-1
1532062730248,-1,0,1,2,-4,-1,-1,-1
1532062730253,-4,0,-3,-3,-1,-1,-2,0
1532062730258,0,-1,0,1,-1,0,-1,-2
1532062730263,-2,-2,-3,-5,0,-2,0,-2
1532062730268,0,-1,0,-3,-3,-1,-1,0
1532062730273,1,-1,0,1,5,1,1,-1
1532062730278,1,-1,1,3,-1,0,-2,0
1532062730283,-1,1,0,4,-1,0,0,0
1532062730288,-1,-3,-2,-7,-10,-4,0,-2
1532062730293,1,-1,0,4,9,2,2,-1
1532062730298,-3,-1,-3,-4,-5,0,0,-2
1532062730303,0,0,-1,3,0,0,0,-1
1532062730308,-1,0,-1,1,2,1,0,-1
1532062730313,-1,0,2,2,-3,-3,-1,1
1532062730318,-1,0,2,5,1,-3,0,1
1532062730323,-2,-1,-3,-5,-3,-2,1,0
1532062730328,0,-2,-3,-2,-2,-2,0,0
1532062730333,-1,0,1,0,-1,-2,0,-1
1532062730338,-2,0,0,-4,-2,-1,-2,0
1532062730343,0,-1,0,-1,-4,-1,-1,-1
1532062730348,-3,-3,-2,-3,0,-1,-3,-1
1532062730353,-1,0,-1,1,0,1,1,-2
1532062730358,-1,1,1,4,2,-1,0,1
1532062730363,-2,-5,-10,-17,-4,-2,-3,-2
1532062730368,-1,1,1,-3,-3,-2,-1,-1
1532062730373,0,-1,0,6,-4,-1,-3,-1
1532062730378,-3,-3,-6,-10,1,-1,-2,-1
1532062730383,1,-1,3,4,6,3,1,-2
1532062730388,1,0,-1,0,-2,-1,-1,-1
1532062730393,-1,-1,0,-2,-4,-3,-3,-1
1532062730398,0,-2,1,2,-1,-1,0,-2
1532062730403,-1,0,-1,3,0,-4,-1,0
1532062730408,0,-1,-5,-14,-2,-1,-3,0
1532062730413,-1,-1,1,1,1,-2,-3,-1
1532062730418,-2,0,-1,0,-2,-2,0,0
1532062730423,-1,0,1,-2,-1,0,0,1
1532062730428,-1,-2,-1,7,2,0,1,-1
1532062730433,2,0,0,0,0,-1,-1,0
1532062730438,-2,-2,-8,-15,-4,-4,-3,-3
1532062730443,-1,-2,1,3,0,-1,-2,0
1532062730448,-1,2,1,1,1,-1,-1,0
1532062730453,-1,0,-2,-6,-3,1,-2,0
1532062730458,0,0,3,10,2,3,0,-2
1532062730463,1,0,-1,-4,-1,-1,-1,-1
1532062730468,-1,-1,0,1,-1,-1,-2,-2
1532062730473,-2,-1,-1,-2,-4,-1,-1,0
1532062730478,0,0,1,3,-1,-1,0,-1
1532062730483,-3,0,0,4,1,0,-1,0
1532062730488,-3,-1,0,4,0,0,0,-1
1532062730493,-1,-1,0,5,0,-1,0,-3
1532062730498,-1,-2,0,-4,1,-1,-2,-1
1532062730503,0,-2,-4,-7,-4,-3,-2,0
1532062730508,1,1,2,4,4,2,1,-1
1532062730513,0,2,0,1,1,1,0,0
1532062730518,-1,1,-1,2,3,2,-1,1
1532062730523,-2,-2,-2,-2,0,-2,-3,-1
1532062730528,-1,0,-2,-7,-4,-2,-2,-2
1532062730533,0,0,2,2,0,-2,-1,-2
1532062730538,0,-1,-2,-1,-2,1,-1,-1
1532062730543,-1,-2,2,-2,0,-1,-1,-2
1532062730548,-1,-1,2,4,-2,-1,0,1
1532062730553,-2,1,-2,-5,2,-1,-1,0
1532062730558,0,2,0,2,1,-1,-1,0
1532062730563,-2,-5,-9,-8,-4,1,0,-1
1532062730568,0,-1,0,0,1,-2,0,-1
1532062730573,-1,-1,0,-2,-1,0,-2,0
1532062730578,0,-2,-2,-5,-4,-4,-3,-2
1532062730583,0,0,1,3,-2,-1,-2,-1
1532062730588,1,0,-3,-2,0,1,-1,0
1532062730593,-1,-3,-2,-5,-5,-1,1,1
1532062730598,0,-1,3,5,4,1,2,0
1532062730603,0,-1,-1,-6,-4,-3,-1,0
1532062730608,-2,-1,-2,2,-2,-4,-2,-1
1532062730613,0,1,-1,-3,-1,-2,-1,-1
1532062730618,-2,-2,-2,1,-4,-3,-1,-2
1532062730623,1,3,4,6,1,0,0,0
1532062730628,0,-1,-1,-4,0,0,0,-1
1532062730633,-2,-1,-2,1,4,1,1,-1
1532062730638,1,0,-2,-1,2,0,0,0
1532062730643,-1,-3,2,4,-1,-1,0,-1
1532062730648,0,2,2,3,-5,0,-2,-1
1532062730653,-1,-2,-1,-3,1,-2,-1,-2
1532062730658,-1,-2,0,-5,2,3,0,-2
1532062730663,-1,-1,-1,0,4,2,0,-1
1532062730668,-1,-1,-1,3,-1,0,-2,0
1532062730673,-1,-1,-2,-3,-1,-1,-2,-3
1532062730678,0,0,0,3,-2,-2,-1,1
1532062730683,1,0,2,2,-1,-2,-1,-1
1532062730688,-1,-1,-4,-7,-1,-2,1,0
1532062730693,-1,-2,2,9,-2,-4,-4,-1
1532062730698,-3,0,1,-1,-6,-3,-2,1
1532062730703,-2,-2,-2,-5,0,1,-1,-1
1532062730708,-1,0,0,3,3,2,0,1
1532062730713,0,-1,-3,-1,-4,-1,-2,-1
1532062730718,-1,-1,1,2,-1,-3,-2,0
1532062730723,-1,-1,-4,-5,0,-4,-2,-1
1532062730728,-2,-1,2,3,-6,0,1,-2
1532062730733,0,-2,-5,-5,8,3,1,0
1532062730738,-1,-1,-3,-3,-2,-1,1,-1
1532062730743,0,1,2,4,-1,0,1,-1
1532062730748,-1,-1,0,1,3,-1,-1,-1
1532062730753,-2,-2,-2,-3,-9,-1,1,0
1532062730758,-1,0,0,3,2,2,-2,-1
1532062730763,0,-1,-1,-2,0,0,-1,0
1532062730768,-1,-2,-1,-4,3,0,-1,0
1532062730773,0,-1,2,0,-5,-1,-1,1
1532062730778,0,0,-1,0,-2,-3,0,-1
1532062730783,1,0,1,5,-1,-1,-1,-1
1532062730788,-2,-1,-4,-5,2,1,-1,-1
1532062730793,0,1,0,-3,1,0,0,-2
1532062730798,-1,-3,-4,-1,-2,-3,-1,-2
1532062730803,0,0,2,0,-5,-3,-3,1
1532062730808,0,-2,-5,-6,-1,-3,-2,-1
1532062730813,-1,-1,-1,-3,-3,-1,0,-1
1532062730818,-1,-1,0,1,0,1,-1,0
1532062730823,-2,1,-4,-2,-3,-1,1,-2
1532062730828,-1,0,2,5,1,-1,-1,-1
1532062730833,-1,-1,-1,-2,1,0,-2,-1
1532062730838,0,-2,-5,-8,-3,-2,-1,-1
1532062730843,-1,-1,-3,-2,0,0,2,0
1532062730848,0,-2,0,-3,-5,-4,-1,-2
1532062730853,0,1,2,3,2,-1,-2,-1
1532062730858,-3,-3,0,-3,-3,-3,-2,-1
1532062730863,0,-2,0,1,3,-2,-3,0
1532062730868,0,1,0,2,-2,-2,1,-1
1532062730873,0,-1,-1,-1,0,2,2,1
1532062730878,0,-1,2,4,5,1,-2,-1
1532062730883,-2,-2,-10,-15,-5,-2,-2,-3
1532062730888,-1,-2,1,3,0,-1,-1,0
1532062730893,-2,0,-3,-4,-3,-3,-2,0
1532062730898,1,0,-1,-3,-7,-2,-2,-1
1532062730903,0,-1,2,2,5,2,-1,1
1532062730908,-1,-1,1,4,-1,0,0,-1
1532062730913,-1,-2,-6,-4,-1,-1,-1,-1
1532062730918,0,-1,0,-4,1,-2,1,0
1532062730923,0,0,3,5,-4,0,-2,0
1532062730928,0,-1,-7,-15,-3,1,0,-2
1532062730933,0,1,2,-1,3,0,-1,0
1532062730938,-1,-1,-2,1,-1,0,-1,-2
1532062730943,0,-2,-3,-4,-4,-1,-1,0
1532062730948,0,-2,2,6,1,0,-2,1
1532062730953,1,0,0,-1,1,-1,-1,-1
1532062730958,-1,-2,-4,-4,-2,-3,-2,-2
1532062730963,0,0,1,4,4,1,0,-1
1532062730968,0,0,1,1,1,-2,-1,0
1532062730973,-1,-3,-4,-4,-11,-3,1,-1
1532062730978,-1,0,2,1,9,2,-2,-1
1532062730983,0,-1,-1,-2,-2,-1,0,-1
1532062730988,-1,-1,-2,-1,-7,-5,-2,-1
1532062730993,-1,0,1,0,4,0,-1,-1
1532062730998,-1,-2,0,2,-5,0,-1,-1
1532062731003,-2,-2,-3,-4,3,1,0,0
1532062731008,0,1,1,0,1,1,-2,1
1532062731013,-1,-1,-2,-3,-6,-4,-2,0
1532062731018,-1,-2,1,5,-2,-2,-1,1
1532062731023,1,-2,-1,3,1,2,0,-2
1532062731028,-1,-1,-1,-8,-1,-2,1,-1
1532062731033,-1,-1,-1,-5,-3,0,-2,0
1532062731038,-1,-1,-1,-2,-5,-1,0,-1
1532062731043,-1,0,1,2,0,-1,0,0
1532062731048,-1,1,-1,2,-6,-1,1,-2
1532062731053,0,-1,1,5,7,0,-1,-2
1532062731058,-1,0,-4,-7,3,0,-1,1
1532062731063,-2,0,0,2,-2,-2,-1,-3
1532062731068,1,0,-1,1,-1,-1,-3,-1
1532062731073,-3,-1,0,2,-3,0,-1,-1
1532062731078,0,-1,1,2,2,1,0,-1
1532062731083,-1,1,-2,-2,-2,-2,0,0
1532062731088,0,-3,-1,4,3,-1,0,0
1532062731093,-1,-2,-1,2,-1,-2,-1,-1
1532062731098,-1,-1,-3,-7,-2,0,-1,-1
1532062731103,-2,-1,1,0,-4,0,1,0
1532062731108,0,-1,-1,-2,0,1,1,1
1532062731113,-1,-1,0,0,-1,-2,-2,-1
1532062731118,0,-2,3,6,1,1,1,-2
1532062731123,-1,-1,-5,-13,-6,-2,-3,-2
1532062731128,0,-3,-1,6,-1,-1,-2,-1
1532062731133,-1,-1,-1,-1,7,3,1,0
1532062731138,-2,0,-1,1,-10,-1,-2,0
1532062731143,-1,-1,0,3,7,2,0,-2
1532062731148,-1,-1,4,8,3,0,0,-2
1532062731153,-1,-4,-12,-20,-3,-2,-2,-1
1532062731158,0,-1,-1,-4,-4,-1,0,-3
1532062731163,0,-1,0,-1,-2,-3,-1,0
1532062731168,0,2,-1,0,0,1,1,1
1532062731173,1,-1,3,9,-1,-1,-1,-2
1532062731178,-1,1,-1,-3,0,-3,0,-1
1532062731183,0,0,4,4,0,1,0,0
1532062731188,-1,-2,-4,-9,-3,-4,-2,-2
1532062731193,0,-2,2,3,0,0,2,0
1532062731198,0,-1,-3,-5,4,2,-1,-1
1532062731203,0,0,2,2,0,-2,-2,-1
1532062731208,-1,-2,-3,1,-6,-2,-2,-1
1532062731213,0,-1,-3,-6,0,1,-2,0
1532062731218,-1,-1,0,7,-2,-2,-2,-2
1532062731223,-3,-1,-3,-8,4,-3,0,0
1532062731228,1,-2,1,-2,-1,1,1,0
1532062731233,-1,1,2,3,-4,-3,-2,-1
1532062731238,-1,0,-2,-5,4,0,0,-1
1532062731243,0,-1,-1,6,-6,-1,0,0
1532062731248,-2,0,-3,-7,-2,-3,0,-2
1532062731253,0,0,1,5,-1,-1,0,0
1532062731258,0,-1,-1,0,1,0,1,1
1532062731263,-1,-1,-1,-1,-2,2,-1,0
1532062731268,-1,0,1,-1,-5,1,-1,1
1532062731273,-2,-1,1,6,7,2,2,0
1532062731278,-1,-2,-4,-3,-1,-3,-1,0
1532062731283,-1,-2,0,0,-6,-1,-1,-1
1532062731288,-2,-2,-3,1,5,0,-1,-1
1532062731293,0,0,-1,-5,-1,-2,-1,-2
1532062731298,-2,-1,-2,-3,-4,-1,-1,0
1532062731303,0,0,1,4,8,0,-1,0
1532062731308,1,0,0,-4,-1,-2,0,-1
1532062731313,-3,-5,-3,-5,-5,-2,-2,-3
1532062731318,0,-2,2,2,0,-1,0,2
1532062731323,2,-2,-2,-3,-3,-3,-3,-1
1532062731328,0,0,1,5,2,3,2,1
1532062731333,2,2,1,0,6,3,0,-1
1532062731338,0,0,1,1,-2,0,-1,-3
1532062731343,-2,-2,-5,-8,-3,-2,-2,0
1532062731348,-1,-1,-3,-6,-1,-3,-2,-2
1532062731353,-1,1,1,2,0,-3,-3,-2
1532062731358,0,0,0,0,-1,2,1,-1
1532062731363,-1,-1,1,-3,0,0,1,-1
1532062731368,-2,-4,-3,-1,-2,-1,-2,-2
1532062731373,-1,-1,0,2,0,-2,0,0
1532062731378,-2,-2,-1,0,1,-4,-2,-2
1532062731383,0,-2,-1,-1,-11,-1,-3,-3
1532062731388,-1,1,2,-1,5,2,0,-1
1532062731393,-1,0,-1,-2,-7,-3,-1,-1
1532062731398,-1,0,1,2,5,1,-1,1
1532062731403,-2,-2,-3,-4,-5,-1,0,-1
1532062731408,0,0,1,4,1,1,0,-1
1532062731413,-1,-1,-3,-3,-1,-1,-1,-2
1532062731418,1,1,0,0,-4,-3,-2,-2
1532062731423,-1,-1,-3,-3,1,0,-2,0
1532062731428,0,3,2,1,-2,-3,-3,-2
1532062731433,-1,-2,-5,-7,-1,0,0,-1
1532062731438,1,-1,1,4,5,1,0,0
1532062731443,-1,-1,2,5,-1,-2,1,-1
1532062731448,0,-3,-5,-5,0,-4,-1,-1
1532062731453,-1,0,1,-1,-2,-2,0,2
1532062731458,-2,-1,-3,-6,-12,-2,0,-2
1532062731463,-1,2,1,5,11,3,1,0
1532062731468,0,-1,-1,-2,0,2,-1,0
1532062731473,0,1,0,-2,3,1,1,-1
1532062731478,0,-1,-2,-2,-1,-2,-1,1
1532062731483,-1,-3,-3,-3,2,1,-1,-1
1532062731488,-3,-2,0,-1,-8,-2,0,-1
1532062731493,0,-1,0,1,-3,-1,-2,-1
1532062731498,0,0,-1,-6,3,1,0,0
1532062731503,-1,1,2,5,-2,-2,-1,-1
1532062731508,-3,-2,-3,-4,-1,-1,-1,0
1532062731513,1,-1,4,6,-1,0,-1,0
1532062731518,-2,-3,-3,-3,1,-2,-1,1
1532062731523,0,1,1,-1,2,1,-1,-1
1532062731528,0,-2,-4,-2,-3,-2,-1,-1
1532062731533,-1,-1,0,6,1,-1,-2,0
1532062731538,-1,0,1,-2,-7,0,-1,-2
1532062731543,1,-2,-3,-3,5,0,1,-1
1532062731548,0,0,4,6,5,1,-1,-1
1532062731553,-3,-4,-4,-8,-7,-2,-3,-1
1532062731558,0,-1,-2,-1,2,-2,-3,-2
1532062731563,0,-2,-3,-3,-8,-3,-2,-1
1532062731568,-2,0,2,0,-3,-2,0,-1
1532062731573,2,-1,0,1,-4,2,1,2
1532062731578,-2,-2,-3,-3,1,-1,-2,-2
1532062731583,1,2,3,6,1,-2,-1,-1
1532062731588,-1,-1,-3,-11,-2,-3,-1,0
1532062731593,-2,1,1,1,-1,0,-1,-2
1532062731598,-1,-1,-2,4,0,-1,0,0
1532062731603,-2,-1,-2,-3,-2,-1,0,-1
1532062731608,0,0,1,3,-3,1,-1,1
1532062731613,-1,-1,-2,-4,6,-2,0,-3
1532062731618,0,0,2,2,2,0,0,0
1532062731623,0,-2,-5,-4,-1,-3,-1,0
1532062731628,0,0,1,3,1,0,-1,-1
1532062731633,-2,0,-4,-3,-1,0,-1,-1
1532062731638,0,0,3,4,-2,1,-1,0
1532062731643,1,-2,-1,-11,-1,-1,-1,-1
1532062731648,0,-1,3,9,7,2,1,1
1532062731653,0,-2,-7,-12,-4,-1,-1,-1
1532062731658,-2,-2,-2,-4,0,-1,-1,-1
1532062731663,-1,0,2,3,-1,1,1,-1
1532062731668,-2,-1,-1,-3,-4,-2,-2,0
1532062731673,0,-1,3,5,2,1,0,-2
1532062731678,0,0,1,-2,0,1,0,0
1532062731683,-2,0,2,0,-5,-1,1,0
1532062731688,-1,-2,-8,-11,1,0,-1,-3
1532062731693,-2,0,-1,1,-7,-3,-1,1
1532062731698,1,1,0,-2,-2,-1,0,-2
1532062731703,-2,-1,0,1,1,-1,-3,-2
1532062731708,-2,-1,2,7,-3,-3,-1,0
1532062731713,-2,-1,-5,-8,0,1,0,0
1532062731718,-1,-2,-2,-3,2,1,0,-1
1532062731723,-1,-4,0,5,-7,-1,0,-1
1532062731728,1,-1,0,0,2,0,-1,-2
1532062731733,1,0,1,1,-1,-3,0,-1
1532062731738,-1,1,-1,1,1,1,-1,0
1532062731743,-1,1,-2,1,1,-1,-2,-1
1532062731748,0,-2,-2,1,-7,-1,0,0
1532062731753,-1,0,1,-8,1,0,-2,-1
1532062731758,-2,-1,-1,1,-1,-1,-1,-1
1532062731763,-1,1,1,2,0,0,1,2
1532062731768,-1,-2,-5,-7,-5,-2,0,-2
1532062731773,0,-3,-4,-1,-2,-2,-2,-1
1532062731778,-1,-2,-1,-2,-5,-3,-2,1
1532062731783,0,-2,1,2,2,0,-2,-2
1532062731788,0,1,1,0,2,0,-2,1
1532062731793,-2,-1,-1,3,-2,0,0,2
1532062731798,0,-1,0,-2,1,0,-1,-3
1532062731803,1,0,-1,1,0,0,-1,-1
1532062731808,-1,0,1,2,3,-1,0,0
1532062731813,-1,-1,-1,-4,-4,-3,-2,1
1532062731818,0,-1,0,-1,-6,-1,0,-1
1532062731823,-1,-1,0,2,6,0,-1,-1
1532062731828,-1,-2,-4,-5,-2,0,1,-1
1532062731833,0,0,3,8,1,0,1,0
1532062731838,-1,-3,-4,-3,-1,-2,-1,0
1532062731843,-1,-1,-1,-5,-4,-3,-1,-1
1532062731848,-1,-1,2,-2,-6,-1,0,1
1532062731853,-1,-2,2,4,-1,2,0,-2
1532062731858,-2,0,-1,-3,9,0,-1,0
1532062731863,-1,-1,-2,-4,-3,-1,-2,-1
1532062731868,0,0,1,5,-2,-2,-2,-2
1532062731873,0,-1,-3,-4,0,2,1,-2
1532062731878,-1,0,-1,5,0,-1,0,-2
1532062731883,-1,-1,-1,-5,-5,-2,0,0
1532062731888,-1,-2,-3,-5,5,0,-1,-2
1532062731893,0,-1,-1,1,-3,-1,-1,-1
1532062731898,0,-1,2,5,-1,1,1,-1
1532062731903,-1,-2,-5,-4,2,-2,-2,0
1532062731908,0,-1,0,-3,-3,-1,0,0
1532062731913,-1,-3,-5,-5,-3,-3,-2,-1
1532062731918,0,1,1,-2,-1,0,0,0
1532062731923,0,-3,2,5,-3,-2,0,0
1532062731928,-3,0,-2,-6,-3,-1,-1,-1
1532062731933,-1,-2,3,4,6,4,2,0
1532062731938,-2,-2,-4,-9,-7,-2,-3,-1
1532062731943,1,-2,0,-3,1,0,1,-3
1532062731948,-1,-1,1,2,2,1,-1,0
1532062731953,-2,-1,-2,-5,-8,-3,-2,-2
1532062731958,0,-1,0,1,2,0,2,1
1532062731963,0,-1,-1,-3,-2,-2,-3,-1
1532062731968,-3,-2,0,3,0,-2,-1,0
1532062731973,-1,0,-2,-3,-1,-1,1,-1
1532062731978,0,0,1,0,2,-1,-1,-1
1532062731983,-2,-2,-3,-7,-7,0,0,-1
1532062731988,1,-1,3,8,4,0,0,0
1532062731993,-2,-2,-6,-11,-5,-4,-3,-2
1532062731998,0,-2,-3,4,2,0,0,-1
1532062732003,-1,-1,-2,1,2,1,1,0
1532062732008,-1,0,-1,-1,-3,2,-1,0
1532062732013,-1,0,2,-5,3,-3,0,-1
1532062732018,0,-2,-3,-6,-6,-4,-2,-2
1532062732023,0,-1,-2,3,-1,0,-2,0
1532062732028,-1,-1,0,0,1,-2,-1,-1
1532062732033,-1,2,3,7,-2,0,0,2
1532062732038,-1,-1,-1,-3,-5,-1,-2,-1
1532062732043,-1,0,-2,3,2,1,1,0
1532062732048,-2,-2,-3,-10,-6,-1,-3,-2
1532062732053,2,-1,1,2,6,2,-1,-1
1532062732058,-1,-2,0,1,-5,-2,-1,-2
1532062732063,-1,1,2,3,0,-2,-1,0
1532062732068,-1,0,0,8,5,0,0,0
1532062732073,-1,-5,-8,-13,-2,-1,-1,-2
1532062732078,-1,-1,0,3,-2,0,1,-1
1532062732083,0,0,-3,-7,-1,0,-3,-1
1532062732088,1,-1,0,-1,-4,-3,0,-1
1532062732093,-1,1,4,7,3,-2,-2,0
1532062732098,-2,-2,-2,-6,-3,-1,0,0
1532062732103,-2,1,1,-1,3,0,0,-1
1532062732108,-1,-3,-3,-3,-3,-1,-2,-1
1532062732113,-1,1,2,6,4,1,0,0
1532062732118,0,1,-2,-1,3,-1,-1,1
1532062732123,0,-1,1,3,-2,-1,1,0
1532062732128,-1,0,1,-3,2,0,-2,-1
1532062732133,0,0,1,-2,-1,-2,-4,-2
1532062732138,-1,0,2,7,-3,-3,-2,-1
1532062732143,-2,-3,-10,-15,3,2,-1,-1
1532062732148,0,-1,-1,-3,-1,-1,0,0
1532062732153,-2,-1,-1,0,-4,-1,-1,1
1532062732158,-2,0,0,0,0,1,-2,-2
1532062732163,-1,-1,1,4,-1,-2,0,-2
1532062732168,0,-1,1,1,1,-1,-2,-1
1532062732173,-1,-1,-2,-6,-6,-2,0,-2
1532062732178,0,0,-2,-1,-4,-3,-2,-2
1532062732183,0,1,1,0,0,0,-1,0
1532062732188,-1,-2,-3,-5,0,-2,-1,-1
1532062732193,-2,0,1,1,5,1,-1,0
1532062732198,1,-1,-3,-3,1,0,0,2
1532062732203,-1,0,2,2,-9,0,-1,-1
1532062732208,0,0,0,1,6,0,1,-1
1532062732213,-1,0,-2,0,1,-1,-2,0
1532062732218,-1,-1,1,-3,1,-2,-1,0
1532062732223,-1,0,1,0,0,-2,-3,1
1532062732228,0,0,-3,-2,-8,-1,0,0
1532062732233,-1,-1,0,2,1,0,0,0
1532062732238,-2,-2,-1,1,3,-2,-3,-1
1532062732243,1,-1,0,0,1,-1,0,-1
1532062732248,0,0,-1,3,0,1,-1,-1
1532062732253,-1,2,0,1,-3,0,1,0
1532062732258,0,-2,-4,-10,-3,-1,-2,1
1532062732263,0,0,-2,1,-1,-3,-1,-1
1532062732268,1,1,-1,1,0,-3,-1,0
1532062732273,0,-2,1,5,0,-1,-2,0
1532062732278,0,0,1,0,-3,0,0,-1
1532062732283,-2,-2,-2,-1,-1,1,1,-1
1532062732288,0,-1,1,-2,2,2,-1,0
1532062732293,-1,-1,0,-2,-1,-2,0,-3
1532062732298,-1,-2,1,2,-2,-2,-1,0
1532062732303,0,-1,-1,-2,-1,1,-1,0
1532062732308,-1,-1,0,-1,-1,2,0,1
1532062732313,0,-2,2,1,0,-2,0,-1
1532062732318,-1,-1,-1,-3,3,1,-1,-1
1532062732323,-1,0,0,2,-3,-4,-3,-1
1532062732328,-1,-3,-2,-2,-2,-4,-1,-3
1532062732333,0,-2,-2,2,-6,-3,0,-1
1532062732338,-1,-1,-1,3,3,1,3,-1
1532062732343,0,0,2,2,1,0,0,-1
1532062732348,-1,-2,-6,-10,-4,-2,-2,-2
1532062732353,-1,-1,0,-3,-1,-2,0,-2
1532062732358,-2,1,2,5,1,1,1,0
1532062732363,-1,-2,-2,-2,1,0,2,0
1532062732368,0,0,1,1,-4,-2,-2,0
1532062732373,-2,-1,-1,-2,-4,-1,-1,0
1532062732378,0,0,0,0,-2,-2,-3,-1
1532062732383,-1,-1,-2,3,-3,1,0,-2
1532062732388,-2,-1,-2,-7,0,1,1,-2
1532062732393,0,1,-1,1,2,1,0,2
1532062732398,-1,0,-1,-4,-5,-3,-1,-2
1532062732403,-1,1,0,-2,1,0,-1,-1
1532062732408,0,0,3,9,0,0,0,0
1532062732413,-1,-3,-4,-9,-5,-2,1,-2
1532062732418,0,-3,-4,-6,1,0,-1,0
1532062732423,-1,-3,-5,-5,-2,-2,-3,-2
1532062732428,-1,-1,1,5,2,0,0,-1
1532062732433,0,-1,1,0,-1,1,0,0
1532062732438,0,1,2,1,0,-1,0,0
1532062732443,-3,1,1,0,-1,0,0,-1
1532062732448,-3,0,0,-1,2,0,1,0
1532062732453,-2,-1,-4,-3,-2,-4,-3,-2
1532062732458,-1,0,-1,1,0,0,-1,0
1532062732463,0,-1,-1,-5,0,0,0,-1
1532062732468,-1,-1,-1,2,-11,-2,-2,1
1532062732473,0,-1,-1,0,6,2,-1,-2
1532062732478,0,0,2,10,-1,-1,0,-1
1532062732483,-3,-5,-12,-26,-3,-2,-2,-2
1532062732488,1,0,0,4,1,1,0,-1
1532062732493,1,0,0,-4,-3,0,-3,-2
1532062732498,-2,-2,-1,-3,-1,0,-1,-2
1532062732503,0,-1,5,13,2,0,2,0
1532062732508,-1,0,0,-8,-3,-4,-1,0
1532062732513,0,-3,-2,2,-2,-1,-1,-1
1532062732518,0,0,-1,-2,1,1,0,0
1532062732523,-1,-1,0,0,-4,-3,-2,-2
1532062732528,-1,-1,-2,-2,0,-2,-1,-1
1532062732533,0,1,3,6,5,2,-1,1
1532062732538,-2,-2,-1,-3,-2,-1,-1,0
1532062732543,-1,-2,-2,2,0,0,-2,0
1532062732548,0,0,-1,-5,0,-1,-3,0
1532062732553,-1,0,-2,-1,-3,-2,-1,1
1532062732558,-2,-1,-6,-7,4,1,-1,-1
1532062732563,1,-1,0,2,-5,-5,-3,1
1532062732568,0,-1,-1,4,0,0,1,-2
1532062732573,-2,-1,2,4,0,-1,-1,0
1532062732578,-2,-4,-8,-11,-6,-2,-1,-1
1532062732583,1,2,3,4,4,1,1,1
1532062732588,-1,-2,-4,-7,-1,0,-2,-1
1532062732593,0,-1,0,4,0,-2,1,-2
1532062732598,-1,-1,0,-3,-3,1,-2,-1
1532062732603,-2,-1,3,5,-2,-1,1,0
1532062732608,0,-3,-5,-6,0,2,1,1
1532062732613,-1,0,-4,-8,1,0,-2,0
1532062732618,-1,0,4,6,-3,-3,-2,-1
1532062732623,-1,1,0,-1,0,-1,0,-2
1532062732628,-1,0,0,-1,-2,-4,-2,0
1532062732633,0,-1,-2,1,-2,0,-1,-2
1532062732638,1,0,-1,-5,-1,-2,-1,1
1532062732643,-1,-2,2,5,0,1,-1,-1
1532062732648,-1,0,0,0,3,1,0,1
1532062732653,-1,-1,-2,-7,-2,-1,-3,0
1532062732658,-1,2,3,6,-6,0,1,0
1532062732663,0,-1,-2,-2,5,-1,-1,-1
1532062732668,-2,-5,-7,-8,-5,-2,-2,-1
1532062732673,-1,0,0,1,3,1,0,0
1532062732678,-1,-2,1,-3,2,1,0,-2
1532062732683,0,0,0,1,-2,-2,0,-2
1532062732688,0,-1,1,1,0,-1,-2,-1
1532062732693,-3,0,3,6,-2,-1,0,0
1532062732698,-1,-3,-8,-11,-3,-3,-2,-2
1532062732703,-1,-3,-3,-5,-3,0,-3,-1
1532062732708,-2,0,1,0,-4,-4,-2,-2
1532062732713,0,-1,-1,2,2,2,2,0
1532062732718,0,1,0,4,3,1,0,0
1532062732723,0,-1,-2,-3,-2,-1,-2,2
1532062732728,0,1,-1,3,-1,-2,0,-1
1532062732733,-1,-2,-3,-5,-1,-1,-3,0
1532062732738,0,1,2,4,-1,-1,0,-1
1532062732743,0,-1,-2,-2,0,1,-1,0
1532062732748,-1,0,-1,0,-3,-2,0,0
1532062732753,-3,0,4,12,10,1,1,0
1532062732758,-1,-5,-6,-17,1,1,1,1
1532062732763,-2,0,3,4,-3,-2,0,-1
1532062732768,0,1,2,-1,1,0,-1,-1
1532062732773,-2,-3,-3,-5,-3,-2,0,-1
1532062732778,-1,0,1,8,-1,-1,-1,-1
1532062732783,-1,1,2,-1,1,-1,2,-2
1532062732788,0,-1,0,2,-1,2,-2,0
1532062732793,-1,-1,-2,-11,-5,-2,-1,-2
1532062732798,0,-1,3,8,2,-2,0,0
1532062732803,-1,0,-4,-10,-2,-1,-1,-1
1532062732808,-1,-1,1,5,0,-1,1,1
1532062732813,0,1,1,3,-3,1,0,0
1532062732818,-2,-3,-4,-11,3,0,-1,-2
1532062732823,0,-1,3,3,3,-1,0,-1
1532062732828,-2,-4,-10,-19,-9,-3,-3,-1
1532062732833,-1,-2,1,5,7,-2,-1,-1
1532062732838,1,1,0,2,-3,1,0,0
1532062732843,-1,-1,1,8,2,0,1,-2
1532062732848,1,-1,3,5,4,0,0,-2
1532062732853,0,-1,-3,-11,-6,-2,-1,-1
1532062732858,0,0,2,5,-4,-1,-2,0
1532062732863,-2,-2,-5,-8,-2,-1,0,1
1532062732868,0,1,2,0,0,0,0,0
1532062732873,0,1,-3,-3,-6,-2,-1,-1
1532062732878,0,-1,1,6,6,-1,-2,-2
1532062732883,-1,0,1,6,-3,1,-1,0
1532062732888,-3,-2,-5,-10,-1,-1,1,0
1532062732893,1,-2,3,7,1,-1,0,-1
1532062732898,0,-1,-1,-1,-1,0,1,-1
1532062732903,0,0,-3,-8,-6,-1,-1,0
1532062732908,-1,-2,3,8,7,0,-2,-1
1532062732913,-1,-2,-4,-8,-12,-2,-2,0
1532062732918,-1,0,0,0,3,0,-2,1
1532062732923,-1,-1,1,2,0,-1,1,-1
1532062732928,0,0,3,4,0,-2,1,-1
1532062732933,0,0,-1,-4,0,-1,-1,-1
1532062732938,-1,-1,0,-2,-7,-4,-3,1
1532062732943,-1,-1,0,2,4,2,-1,0
1532062732948,-1,0,-2,-4,-1,-1,1,-2
1532062732953,-3,-1,-1,-2,0,-2,-1,-2
1532062732958,-2,1,-1,0,-1,1,0,-2
1532062732963,0,-1,0,-1,1,-1,-3,-1
1532062732968,0,0,5,11,-1,-2,2,1
1532062732973,-3,-4,-12,-20,-7,1,-1,-2
1532062732978,0,-1,0,-1,1,-1,-2,-1
1532062732983,0,-4,-4,-6,-7,-3,-3,-1
1532062732988,0,1,1,6,4,3,-1,0
1532062732993,-1,1,3,6,0,-1,0,1
1532062732998,-2,-1,-2,-3,1,-2,-1,0
1532062733003,-1,-3,-3,-3,-5,-2,-1,-3
1532062733008,1,0,-2,-4,-3,-1,-1,-3
1532062733013,2,2,0,2,4,2,0,0
1532062733018,-2,-2,-2,-6,-5,-2,-1,-1
1532062733023,-1,0,0,0,-3,-1,-1,-1
1532062733028,-2,0,1,2,5,2,-1,-1
1532062733033,0,-1,-2,-2,-4,-3,-1,-1
1532062733038,-1,-1,0,0,-4,-2,-1,-1
1532062733043,0,0,-4,-4,-1,-2,0,-1
1532062733048,-2,-4,-6,-10,-4,-1,-2,-2
1532062733053,-1,2,3,5,-1,-1,-1,-1
1532062733058,1,0,0,0,-2,-3,-1,-3
1532062733063,-3,-1,-2,3,2,1,-1,-1
1532062733068,-1,0,-1,3,2,2,2,-1
1532062733073,-1,-2,0,-2,-2,-2,-1,-2
1532062733078,-2,-2,-2,0,-2,-1,-1,0
1532062733083,0,1,2,2,0,-3,1,-1
1532062733088,0,0,2,6,1,0,-1,-1
1532062733093,1,-1,0,-3,-4,1,0,0
1532062733098,1,-2,-1,0,0,-1,-2,-2
1532062733103,1,-1,2,3,4,0,-1,0
1532062733108,0,0,1,2,-1,2,0,0
1532062733113,-1,-3,-5,-8,1,0,-1,-1
1532062733118,-1,-2,-1,-2,-3,-6,-3,-1
1532062733123,0,1,4,7,2,0,1,-1
1532062733128,-1,-3,-5,-8,-5,-1,-1,-2
1532062733133,0,1,2,4,3,0,-2,-1
1532062733138,0,-2,-1,-5,2,3,0,-1
1532062733143,1,-1,0,5,0,1,2,0
1532062733148,0,0,3,3,7,2,1,-1
1532062733153,0,0,-3,-6,-4,-4,0,0
1532062733158,-2,-4,-5,-1,-8,-3,-2,-1
1532062733163,-1,0,1,-1,-1,-3,-1,-2
1532062733168,-1,0,1,4,0,0,1,-2
1532062733173,0,-2,-1,-3,-3,-3,-2,-2
1532062733178,0,-1,-4,-7,-5,0,-1,0
1532062733183,0,-1,1,6,4,1,1,-1
1532062733188,-2,-2,-5,-7,-3,-1,-2,-1
1532062733193,-1,1,0,3,3,1,-1,0
1532062733198,0,0,1,0,-6,-4,-2,-1
1532062733203,-2,-2,-2,-1,0,-2,-1,-1
1532062733208,0,0,0,-2,-1,2,0,1
1532062733213,-1,-2,1,3,-3,1,0,-1
1532062733218,-1,1,0,-4,6,0,1,0
1532062733223,0,-2,-2,-1,-1,-2,-1,-1
1532062733228,-1,0,1,2,0,0,0,0
1532062733233,0,0,-1,-1,1,-1,0,0
1532062733238,-1,-2,0,-1,-9,-2,-1,0
1532062733243,0,-1,1,4,7,-2,0,-3
1532062733248,-2,-2,-6,-11,-7,-4,-2,-1
1532062733253,-1,-1,1,7,3,2,-2,0
1532062733258,0,0,1,-1,1,-3,-2,-1
1532062733263,0,-2,-1,-5,-10,0,-2,0
1532062733268,1,0,-1,0,0,-1,-1,1
1532062733273,0,-1,-1,2,-3,-1,0,0
1532062733278,-1,0,1,-2,0,-1,0,-1
1532062733283,-1,-2,-2,-2,1,2,0,-1
1532062733288,1,1,5,10,2,-2,1,-1
1532062733293,-1,-3,-3,-12,-4,-2,-1,0
1532062733298,-2,-2,0,5,0,1,1,0
1532062733303,-1,-1,-2,-2,-5,1,1,0
1532062733308,0,-2,-1,2,9,3,0,-1
1532062733313,-1,1,1,-2,-1,-2,-1,-3
1532062733318,1,0,-1,-3,-2,-2,-3,-2
1532062733323,-1,-1,-2,-3,2,-1,-2,0
1532062733328,0,-2,1,4,-7,-3,-1,0
1532062733333,-1,-2,-2,-4,-4,0,-1,-1
1532062733338,0,1,0,1,7,1,0,1
1532062733343,-1,-2,-5,-6,-7,0,0,-1
1532062733348,-1,1,0,3,5,-1,-2,0
1532062733353,0,-1,-4,-8,-7,-2,0,1
1532062733358,-2,-2,-1,-2,-3,-1,-2,-2
1532062733363,-1,0,1,2,2,-3,-3,-1
1532062733368,0,-1,-1,-4,-3,-3,-1,-1
1532062733373,0,-1,-1,5,2,1,-1,-1
1532062733378,2,2,3,2,-2,0,0,-1
1532062733383,-2,-3,-8,-9,2,1,-2,-1
1532062733388,0,0,-1,-2,1,2,1,-2
1532062733393,1,0,-1,2,1,-3,-3,-1
1532062733398,0,0,1,1,-1,-1,-2,1
1532062733403,-1,0,-2,-2,-4,-2,-2,0
1532062733408,-1,-1,-1,-4,-3,1,0,-1
1532062733413,-2,0,1,5,5,2,1,0
1532062733418,0,-3,-2,-3,-10,-3,0,-2
1532062733423,-1,-1,2,4,2,0,-1,0
1532062733428,-2,-2,-3,-4,-3,-3,0,-3
1532062733433,1,1,0,2,1,-1,1,-1
1532062733438,-2,0,-1,3,0,-2,-1,-2
1532062733443,-2,0,1,-2,-5,-1,1,-1
1532062733448,-1,-2,-1,1,-3,0,-1,-1
1532062733453,-3,0,1,4,-3,0,0,-1
1532062733458,0,-1,-1,-1,6,2,1,0
1532062733463,1,-1,1,1,0,0,-1,-1
1532062733468,-1,1,0,3,-1,-2,0,0
1532062733473,0,-2,-4,-12,-3,-3,-2,-1
1532062733478,-1,1,0,2,-2,0,-1,-2
1532062733483,0,1,1,2,3,2,-1,0
1532062733488,-1,0,-2,-3,-4,-2,-2,1
1532062733493,1,-1,0,0,1,-1,-1,0
1532062733498,-3,-1,0,0,-10,-2,-1,-1
1532062733503,-1,-1,-1,4,4,-1,0,-2
1532062733508,0,-2,-2,0,0,-1,-1,-3
1532062733513,-1,1,1,2,2,2,0,1
1532062733518,-1,-3,-6,-10,1,-1,-2,1
1532062733523,0,-2,-1,-4,-4,-2,-2,1
1532062733528,-1,-1,-3,-1,-4,-1,-2,1
1532062733533,-1,-2,-2,-2,-1,-2,-1,-2
1532062733538,-1,0,1,1,4,2,1,0
1532062733543,-1,0,1,1,1,1,1,-1
1532062733548,0,1,-1,-6,0,1,-1,0
1532062733553,-1,0,1,-1,-3,-1,-1,-1
1532062733558,0,0,-1,3,-1,-1,-2,-1
1532062733563,-1,-2,-3,-12,-3,-3,-2,-1
1532062733568,0,1,1,-2,-3,0,0,-2
1532062733573,-3,-1,-1,0,4,2,0,-1
1532062733578,0,-1,-1,2,-1,-1,0,-1
1532062733583,-1,-1,-2,0,0,0,-1,-2
1532062733588,-1,1,5,9,-1,0,0,-1
1532062733593,-2,-3,-8,-14,-5,-1,-2,-2
1532062733598,-1,0,1,2,2,0,0,0
1532062733603,0,0,1,-2,-1,-2,0,0
1532062733608,-1,-1,1,1,-2,-1,-1,-1
1532062733613,0,-2,-3,-4,1,0,-1,0
1532062733618,-2,-2,-3,-1,1,-2,-2,-1
1532062733623,-1,1,0,1,-4,-1,0,-1
1532062733628,-2,-1,-3,-6,-1,0,0,-1
1532062733633,-1,0,3,7,1,-1,0,-2
1532062733638,-1,-3,-1,-7,-2,0,-2,0
1532062733643,0,2,1,-1,-5,-2,-3,0
1532062733648,-1,-4,-4,0,1,1,0,0
1532062733653,0,-2,-6,-8,-5,-3,-2,-1
1532062733658,-3,-1,0,1,3,-1,-1,0
1532062733663,1,-2,0,-1,-3,-1,0,0
1532062733668,-1,-2,-2,3,1,-1,0,-2
1532062733673,-1,-2,-4,-15,-8,-2,-1,1
1532062733678,0,1,0,3,9,2,1,0
1532062733683,-2,-1,-3,-1,-10,-1,0,-1
1532062733688,0,0,0,1,2,-1,-2,0
1532062733693,0,-1,2,7,2,2,1,-1
1532062733698,-1,-1,-1,-2,1,-1,-1,-1
1532062733703,0,0,-1,0,2,0,1,-2
1532062733708,-3,-3,-4,-9,-6,-2,-2,-1
1532062733713,0,0,-1,1,-1,-2,0,-2
1532062733718,-1,-1,0,-4,-2,-3,0,-2
1532062733723,0,-1,2,5,4,0,2,-1
1532062733728,0,1,0,2,-2,0,-1,0
1532062733733,-1,-3,-1,-3,2,-2,-1,0
1532062733738,0,-1,-1,-2,-3,-2,-3,-2
1532062733743,0,-1,-2,-2,-6,-4,0,-1
1532062733748,0,-1,0,7,8,1,1,-1
1532062733753,0,-2,-4,-7,1,-1,-1,-2
1532062733758,2,0,2,5,-3,2,2,-1
1532062733763,-1,-1,-4,-5,5,0,-2,-2
1532062733768,0,1,0,-5,-5,-2,1,-1
1532062733773,0,-2,-1,2,-5,-1,-2,-1
1532062733778,-2,0,2,5,-1,0,-1,0
1532062733783,0,-2,-8,-10,-2,0,-1,-1
1532062733788,0,-1,0,1,0,-2,-1,0
1532062733793,0,1,1,0,-1,-2,-1,-2
1532062733798,-2,-4,-4,-5,-5,-4,-2,-1
1532062733803,-1,1,3,6,5,3,-1,1
1532062733808,-2,0,-2,-5,-5,-3,-1,-1
1532062733813,-2,-2,-2,-1,-2,-2,-2,0
1532062733818,0,-1,1,4,2,1,1,0
1532062733823,-1,-3,-2,-3,-5,-3,-2,-2
1532062733828,-1,-3,-6,-8,-3,-4,-2,1
1532062733833,0,1,1,0,-5,-1,0,0
1532062733838,0,0,0,-1,-2,1,-1,0
1532062733843,0,0,2,2,1,-2,-1,0
1532062733848,0,-2,-1,-6,3,0,-1,-1
1532062733853,-1,-1,0,6,-1,-1,-1,-1
1532062733858,0,-2,-2,-7,1,-3,0,-1
1532062733863,0,0,1,1,0,0,0,-3
1532062733868,-1,-3,1,6,-6,-1,-1,-2
1532062733873,-2,0,-1,1,0,-1,1,-1
1532062733878,-1,0,1,1,8,4,-1,2
1532062733883,0,-2,-1,-2,3,-2,-2,-1
1532062733888,0,-1,-1,-3,-6,-2,-3,0
1532062733893,0,-1,2,3,3,1,0,0
1532062733898,-1,-1,-4,-8,-4,-1,-2,-4
1532062733903,-1,1,0,-2,0,-1,-1,1
1532062733908,-1,1,-1,-1,-6,0,-1,-1
1532062733913,-1,-2,-2,-3,5,-1,0,0
1532062733918,-2,1,1,4,0,0,0,0
1532062733923,-1,-1,0,-2,-1,1,0,0
1532062733928,-1,-2,-3,-5,-1,-1,-2,-1
1532062733933,-1,-1,-3,0,-2,1,1,0
1532062733938,-2,-2,-3,-7,1,-2,0,-2
1532062733943,1,-1,0,3,1,0,-2,-1
1532062733948,0,1,1,3,0,0,-3,-2
1532062733953,0,0,-1,-1,0,1,0,0
1532062733958,2,0,1,2,1,-2,0,-1
1532062733963,-1,-2,-5,-8,-8,-2,-1,-1
1532062733968,0,0,0,2,6,2,1,0
1532062733973,-2,-1,-1,-4,-3,-2,-1,-1
1532062733978,-1,-1,2,3,-2,1,-2,0
1532062733983,-1,-1,1,3,0,-3,-1,0
1532062733988,-2,-2,-2,-3,0,0,1,-1
1532062733993,0,2,0,3,1,1,0,-1
1532062733998,-1,0,-3,-1,0,-1,-1,1
1532062734003,0,-1,-1,-3,-2,-1,-1,-1
1532062734008,1,-2,-1,2,1,-1,0,0
1532062734013,0,0,1,-2,-3,-1,-3,-2
1532062734018,-4,-1,-2,-2,-2,1,-2,-2
1532062734023,-1,-2,-1,1,0,-1,-2,-1
1532062734028,0,2,1,2,1,0,2,-2
1532062734033,-1,-1,-1,-3,-1,0,0,-2
1532062734038,1,-1,1,2,1,0,0,1
1532062734043,-2,-1,-4,-7,-4,0,-2,-1
1532062734048,0,-1,1,0,1,-1,-2,0
1532062734053,0,-2,-3,-2,-4,-3,-3,1
1532062734058,-2,-2,-2,0,-5,-3,0,-1
1532062734063,0,-1,0,5,7,1,1,-1
1532062734068,-1,-1,-1,-8,-4,-1,-1,0
1532062734073,-1,0,0,-1,0,-1,0,-1
1532062734078,0,-2,1,-1,-1,-2,-2,0
1532062734083,-1,0,-1,0,-5,-1,-2,0
1532062734088,-2,0,0,1,0,0,-1,-3
1532062734093,0,-2,1,0,1,-4,-4,-1
1532062734098,-1,-2,-5,-12,-1,-1,0,-1
1532062734103,-1,1,1,3,-4,-2,-1,1
1532062734108,-3,-1,-2,-3,5,2,-2,0
1532062734113,-3,-2,0,2,-5,-1,-2,-1
1532062734118,1,2,3,3,1,0,0,-1
1532062734123,0,-2,1,-1,-5,1,2,-1
1532062734128,-1,-4,-1,-1,6,0,-1,-2
1532062734133,-1,-3,-3,-1,0,-2,-1,-1
1532062734138,-2,-1,-2,-1,-1,-2,-3,-1
1532062734143,-1,-1,1,-3,-1,-3,0,-1
1532062734148,-1,1,0,3,-6,-1,1,0
1532062734153,1,1,1,-2,5,3,1,-1
1532062734158,0,0,1,1,-2,-2,-1,-1
1532062734163,-2,-2,-3,-3,-2,-2,-3,-1
1532062734168,0,-1,0,2,-2,-2,0,1
1532062734173,-2,-2,-8,-16,-3,1,-2,-1
1532062734178,1,-1,1,2,1,2,-1,0
1532062734183,-1,1,2,6,3,-1,-1,-1
1532062734188,-1,-2,-2,0,-9,-2,0,-2
1532062734193,0,1,1,0,3,-1,0,0
1532062734198,-1,0,-1,-1,5,3,1,-1
1532062734203,0,0,0,-1,2,1,-2,-2
1532062734208,-1,-2,-1,-3,2,-2,-1,-2
1532062734213,1,1,4,5,-6,-3,-1,0
1532062734218,0,-2,-3,-5,-4,-2,-2,-2
1532062734223,-1,-2,-3,-4,-4,-1,0,-1
1532062734228,-1,1,-2,-6,-6,0,0,0
1532062734233,-2,-1,0,5,6,3,0,-1
1532062734238,0,2,3,3,0,-3,-2,1
1532062734243,0,-1,-2,-5,-3,0,-1,1
1532062734248,1,-1,-3,-5,-2,-4,-2,-1
1532062734253,1,0,1,2,-6,-1,1,-1
1532062734258,-1,-1,-4,-1,-1,-3,-2,-2
1532062734263,-1,-1,0,-2,-4,-1,-2,-2
1532062734268,1,0,3,2,11,1,-1,0
1532062734273,0,0,-1,-1,0,-1,0,0
1532062734278,-1,0,0,4,2,1,1,-1
1532062734283,0,0,0,-1,0,-2,1,0
1532062734288,-2,-1,-1,-1,-4,-2,-2,-2
1532062734293,0,0,1,5,-2,-2,-2,0
1532062734298,-3,-4,-8,-16,-8,-3,-1,-4
1532062734303,1,1,1,9,9,3,2,-1
1532062734308,-1,2,2,1,2,0,-1,0
1532062734313,-1,-4,-8,-16,-4,-2,-2,-2
1532062734318,0,1,0,2,-4,-1,-1,-1
1532062734323,0,-1,0,-1,-1,-1,-1,-1
1532062734328,-1,0,0,4,1,1,-1,1
1532062734333,0,-1,1,3,-1,-4,-3,-2
1532062734338,-1,-1,0,1,-6,2,0,-1
1532062734343,-1,1,0,0,8,2,0,0
1532062734348,0,-1,-2,1,2,-1,-1,-1
1532062734353,-1,0,2,1,-3,-4,-2,1
1532062734358,-1,-2,-3,-6,-3,-1,-4,0
1532062734363,0,-1,1,3,-3,-3,0,-2
1532062734368,-1,0,-1,-4,-3,0,-2,-2
1532062734373,0,0,2,8,2,1,-1,-2
1532062734378,1,1,4,2,-2,-2,-1,-1
1532062734383,-2,-6,-8,-15,-5,-2,-3,0
1532062734388,2,0,-1,0,-2,2,-1,0
1532062734393,-1,1,-3,-3,2,-1,1,-2
1532062734398,0,1,4,3,3,0,-1,1
1532062734403,-3,0,0,2,-4,0,-2,-1
1532062734408,-1,-1,-1,-2,-1,-2,-1,-1
1532062734413,0,0,1,5,-3,0,-1,-1
1532062734418,0,-1,-2,-4,-2,-2,0,-1
1532062734423,-3,0,-2,-8,0,-3,0,0
1532062734428,0,0,0,1,-5,-4,-1,1
1532062734433,-2,-2,-1,1,9,4,1,-1
1532062734438,-2,-2,1,2,-3,0,-1,-2
1532062734443,2,1,1,3,-1,3,1,0
1532062734448,-2,-1,1,0,0,1,0,-1
1532062734453,-1,-2,-3,-4,-3,-3,-2,-1
1532062734458,-1,0,-1,-3,-2,-2,0,-1
1532062734463,-1,-2,1,6,-4,-1,-4,-1
1532062734468,-1,1,0,0,3,0,-1,-1
1532062734473,-2,-3,-5,-8,-3,1,0,0
1532062734478,1,-1,1,4,1,-1,-2,-1
1532062734483,0,-1,-1,-1,-2,-3,-2,-1
1532062734488,-3,-2,-2,0,-2,-3,1,-2
1532062734493,1,0,1,0,1,0,0,0
1532062734498,-1,0,-2,-3,-6,1,0,0
1532062734503,0,1,-1,-1,2,-1,0,-1
1532062734508,-1,-2,-3,-5,-4,-2,-2,0
1532062734513,-1,0,0,2,-6,-1,0,-1
1532062734518,-1,0,2,6,16,6,1,0
1532062734523,0,1,-1,-1,-1,-3,-2,-3
1532062734528,-1,-5,-10,-14,-7,-2,-1,-1
1532062734533,1,-1,-1,-4,-1,-2,-1,-1
1532062734538,-1,-1,-5,-10,-3,-1,-3,0
1532062734543,-1,-2,2,8,2,1,1,-2
1532062734548,0,1,0,5,5,-1,-1,-1
1532062734553,-1,-1,0,1,-4,-2,0,-1
1532062734558,-1,-2,-1,0,-1,-1,-1,-1
1532062734563,-1,0,-1,-5,4,1,1,0
1532062734568,-1,-1,0,-1,-9,-1,0,-2
1532062734573,-1,1,-1,-1,4,-1,-2,-1
1532062734578,0,1,3,6,-3,0,0,-2
1532062734583,0,-2,-4,2,4,3,1,-1
1532062734588,0,-1,0,-3,2,0,0,-1
1532062734593,-2,-2,-2,-6,-2,-2,-2,-2
1532062734598,0,-2,2,0,-4,-4,0,0
1532062734603,0,1,-2,-9,-2,1,0,1
1532062734608,-1,-2,0,8,0,0,-1,0
1532062734613,-1,0,0,1,-2,0,0,-1
1532062734618,-2,0,1,4,2,0,1,-1
1532062734623,-3,-1,-1,-3,-6,-2,0,-1
1532062734628,0,-2,-4,-7,1,0,-1,0
1532062734633,0,-2,0,0,-3,-2,1,-1
1532062734638,-1,-1,0,1,2,0,-1,1
1532062734643,-3,-3,-3,-3,-8,-5,-3,-2
1532062734648,-2,-1,1,-1,-2,-1,-1,-2
1532062734653,0,-2,-2,2,2,1,0,-1
1532062734658,0,1,0,5,1,-1,1,0
1532062734663,-1,0,-4,-7,-6,-4,-2,0
1532062734668,0,-2,-5,-8,2,0,-1,1
1532062734673,-1,0,0,2,-5,2,1,1
1532062734678,-1,-1,-3,-2,4,-1,1,-1
1532062734683,0,0,3,4,1,-3,-2,-2
1532062734688,0,1,3,2,-4,-2,-1,-1
1532062734693,-1,-1,0,-1,-1,1,0,0
1532062734698,-1,-3,-5,-7,1,-1,-2,-1
1532062734703,0,-1,1,2,0,-1,-1,1
1532062734708,-1,-1,0,1,1,-2,-1,0
1532062734713,0,-1,2,6,-1,-1,-2,-1
1532062734718,-2,-1,-3,-4,-1,-1,-4,-1
1532062734723,-2,-1,1,1,-7,-2,-1,-1
1532062734728,-1,-1,-1,1,6,1,2,-1
1532062734733,-1,0,0,0,5,0,-1,-1
1532062734738,-1,-1,-3,-6,-2,-1,0,-1
1532062734743,0,1,4,4,3,1,-1,0
1532062734748,-1,0,0,-2,-6,-1,-2,-1
1532062734753,-1,-2,-1,0,-6,-4,-2,-1
1532062734758,-1,-2,-2,-3,-2,-2,-2,-3
1532062734763,0,-1,0,2,0,1,0,-1
1532062734768,0,0,4,4,2,-1,-1,-4
1532062734773,-2,1,-4,-3,-1,0,0,-1
1532062734778,-1,-1,3,2,-1,0,1,-1
1532062734783,-1,-2,-4,-6,0,-3,-2,0
1532062734788,-3,-2,-1,1,-4,-1,0,0
1532062734793,-1,-2,-6,-10,-2,-2,-2,-3
1532062734798,-1,-1,-2,0,-11,-1,-1,0
1532062734803,-1,-1,0,2,11,4,1,-1
1532062734808,0,0,0,1,-2,-2,0,1
1532062734813,0,2,3,1,2,-3,0,-1
1532062734818,-1,-2,-10,-17,-7,-4,-2,-1
1532062734823,-2,-2,0,3,0,-1,-1,0
1532062734828,0,0,0,-1,0,0,1,1
1532062734833,-2,0,0,1,3,2,0,1
1532062734838,1,1,2,7,-7,-2,-2,0
1532062734843,-1,-1,-5,-7,7,0,-1,0
1532062734848,0,-1,2,5,1,0,-2,0
1532062734853,1,-1,-4,-10,-4,0,-1,-2
1532062734858,-1,-2,2,5,2,-1,0,0
1532062734863,0,1,0,1,-2,-2,-1,-2
1532062734868,-1,0,1,3,-4,-1,-1,-1
1532062734873,-2,-4,-6,-10,-2,-1,-3,-1
1532062734878,-1,-1,1,-1,0,-1,0,-1
1532062734883,-1,0,1,0,-9,-2,-1,1
1532062734888,-1,0,1,-4,4,0,1,-2
1532062734893,0,1,2,8,1,0,-1,-1
1532062734898,1,0,-2,-1,-1,1,-1,-1
1532062734903,0,1,-2,-1,-2,-2,0,0
1532062734908,-1,0,-1,-3,-1,1,-2,0
1532062734913,-1,-1,0,2,0,-2,0,-1
1532062734918,-1,-1,2,1,2,-1,-1,-1
1532062734923,1,-2,1,3,0,1,0,0
1532062734928,-2,-1,-2,0,-2,-1,-2,-1
1532062734933,0,-2,-3,-8,-2,-3,-4,0
1532062734938,0,1,2,6,3,0,0,1
1532062734943,0,-4,-6,-13,-2,1,1,-1
1532062734948,-1,0,2,0,1,-1,0,-1
1532062734953,1,-1,-1,4,1,-2,0,-2
1532062734958,-2,-2,-1,-5,-10,-1,-2,-2
1532062734963,-1,-2,-1,0,-1,-3,-3,-1
1532062734968,-1,1,-3,-3,2,-1,-1,-1
1532062734973,0,0,2,-1,-2,-3,-2,0
1532062734978,0,0,0,1,2,2,0,0
1532062734983,0,1,2,9,3,0,1,-1
1532062734988,-1,-4,-8,-14,-2,-2,-3,-1
1532062734993,-1,1,2,3,-3,0,-1,-1
1532062734998,-1,-2,-7,-8,2,-2,-2,-1
1532062735003,-1,0,6,4,-3,-1,-1,-2
1532062735008,-2,-3,-3,-5,-4,-2,-2,-1
1532062735013,0,0,2,5,3,3,0,2
1532062735018,0,0,-2,1,3,-1,-1,-2
1532062735023,0,-2,0,-3,-3,-2,0,-2
1532062735028,-1,0,2,4,-3,-2,0,0
1532062735033,-2,-2,-2,-9,-3,-1,0,-1
1532062735038,-3,-3,-2,2,-3,-1,-2,0
1532062735043,0,-1,-1,-1,2,0,-1,-1
1532062735048,-1,-2,0,0,-1,0,1,-2
1532062735053,1,0,3,7,0,0,0,0
1532062735058,1,-1,0,-3,7,2,2,-1
1532062735063,-1,-3,-8,-15,-7,-5,-4,0
1532062735068,-1,0,1,4,-4,-1,0,0
1532062735073,0,0,0,2,1,-1,-1,-1
1532062735078,-1,-1,0,0,-3,-2,0,0
1532062735083,-1,0,1,3,1,2,0,0
1532062735088,1,-2,0,-1,1,0,0,-1
1532062735093,-1,-1,-1,1,-5,-5,-2,0
1532062735098,-1,-2,-2,-5,-2,-4,-3,-2
1532062735103,-1,1,1,1,-2,1,0,-1
1532062735108,0,-1,-1,-2,-2,-1,0,0
1532062735113,1,0,1,4,4,2,-1,1
1532062735118,0,-2,-2,-1,-3,0,-2,-1
1532062735123,-2,1,0,-1,1,-2,-1,1
1532062735128,0,-2,-1,-4,-2,1,-1,-3
1532062735133,-3,-1,-2,-5,-4,0,0,0
1532062735138,-1,-3,-1,-3,0,-2,-1,-1
1532062735143,1,2,4,8,0,1,1,-1
1532062735148,-1,-2,-6,-7,0,-2,-2,0
1532062735153,-1,-3,-3,-5,-6,-2,-2,0
1532062735158,1,2,3,2,3,0,-1,-1
1532062735163,-2,-3,1,5,0,-1,0,-1
1532062735168,0,0,2,-2,2,0,1,-1
1532062735173,-2,-2,0,4,-1,2,-1,-2
1532062735178,-1,-1,-3,-4,0,-2,-1,-1
1532062735183,-1,-2,-3,-4,-1,-1,-1,-2
1532062735188,0,0,-2,0,0,-2,-1,0
1532062735193,0,-1,-2,0,-3,-2,-1,-1
1532062735198,0,1,5,6,6,2,0,-2
1532062735203,-3,-3,-4,-6,-1,-1,-1,-1
1532062735208,-1,-1,0,2,1,1,-1,1
1532062735213,0,-1,-1,-6,-4,-3,0,-3
1532062735218,0,0,1,2,-2,1,1,0
1532062735223,-1,0,-2,-2,0,0,-1,1
1532062735228,-1,0,0,2,-2,-3,-3,-1
1532062735233,-2,-2,0,3,4,2,0,-2
1532062735238,-2,-1,-2,-6,-3,-2,-2,-1
1532062735243,0,0,2,4,-1,0,-2,0
1532062735248,-1,-1,-1,-2,-2,1,-1,0
1532062735253,-1,-1,-3,-7,0,-2,-1,-1
1532062735258,-2,0,-2,2,-1,0,-2,1
1532062735263,0,-2,-1,-3,-2,-1,-1,0
1532062735268,-1,0,2,6,-1,-2,1,-1
1532062735273,0,-2,-1,-2,0,-2,-1,1
1532062735278,-2,-3,-5,-5,3,1,-1,0
1532062735283,-1,-2,1,3,-9,-1,1,0
1532062735288,0,-1,1,3,3,1,1,0
1532062735293,-1,-1,-4,-4,0,-1,0,-1
1532062735298,1,0,-1,-1,-1,-2,-1,-2
1532062735303,-1,0,-3,-2,-3,-5,-3,-1
1532062735308,-2,-1,0,3,-3,-4,-4,-2
1532062735313,-1,0,-1,-6,1,3,2,0
1532062735318,0,1,3,0,-1,0,2,0
1532062735323,-1,-2,-6,-7,1,-1,-2,-1
1532062735328,-2,1,-3,-7,0,-1,-1,0
1532062735333,-1,-1,0,2,-6,-3,0,-3
1532062735338,-2,0,2,4,-1,-2,0,1
1532062735343,1,0,1,2,4,2,0,-1
1532062735348,-1,-1,-2,-2,3,-1,-1,0
1532062735353,-2,0,-1,0,-2,0,-1,0
1532062735358,-1,0,-3,-3,-2,-1,0,-1
1532062735363,0,0,0,-2,-2,0,0,-1
1532062735368,-1,-1,-1,1,-4,-1,-2,0
1532062735373,-2,2,0,3,8,1,-2,-2
1532062735378,-1,-1,1,5,-2,-2,-1,0
1532062735383,-1,-3,-3,-12,-2,-1,-2,-1
1532062735388,1,1,-2,-5,0,-1,0,-1
1532062735393,0,0,0,1,-5,-2,0,0
1532062735398,1,-1,1,1,5,2,1,-1
1532062735403,-3,1,1,1,-1,-1,1,-2
1532062735408,0,-1,-1,0,0,1,0,0
1532062735413,-1,1,-2,0,-5,-2,-3,1
1532062735418,0,-2,0,4,3,0,0,-1
1532062735423,-2,1,4,7,3,-1,0,-2
1532062735428,-2,-4,-8,-12,-4,-3,-1,-2
1532062735433,1,0,-2,0,2,0,-2,1
1532062735438,1,1,1,5,1,2,-2,-1
1532062735443,-2,-5,-13,-17,-6,-1,-1,-1
1532062735448,-1,2,2,3,3,2,0,-1
1532062735453,-1,-3,0,-2,-2,-4,-1,-2
1532062735458,0,-1,-1,-4,-6,-6,-2,-1
1532062735463,0,-2,2,3,-2,-1,1,0
1532062735468,1,0,1,7,2,4,2,0
1532062735473,0,-1,-2,-4,-1,0,1,0
1532062735478,-1,1,1,2,-3,-1,0,-1
1532062735483,-2,-1,-3,-3,-4,-2,-2,-1
1532062735488,0,-2,0,-3,-4,-1,0,-3
1532062735493,-2,-2,-2,-2,1,-2,-1,-2
1532062735498,0,-1,2,-2,-2,1,2,0
1532062735503,1,0,4,7,2,-3,-1,-1
1532062735508,-1,-2,0,-1,-2,0,-1,-1
1532062735513,-1,0,1,-2,-1,2,0,-2
1532062735518,-1,-1,-4,-1,-2,0,-3,0
1532062735523,0,0,1,2,-1,1,-1,2
1532062735528,-1,0,0,3,-2,-3,0,-1
1532062735533,-2,-1,-2,-2,1,-2,-2,-1
1532062735538,-1,-1,-3,-6,0,0,-1,-1
1532062735543,0,-1,1,3,-4,-1,0,-2
1532062735548,0,0,0,-1,1,0,-1,0
1532062735553,0,-2,0,-1,4,0,-2,0
1532062735558,0,-2,-3,-9,-10,-3,-3,1
1532062735563,-2,-1,0,5,8,0,-1,0
1532062735568,0,0,-1,1,2,-2,0,0
1532062735573,0,0,1,4,0,-1,-1,-3
1532062735578,-3,-2,0,-1,-3,-2,0,0
1532062735583,2,-1,-1,0,-1,-2,-3,-1
1532062735588,1,-1,0,0,-6,-2,-2,-2
1532062735593,-1,2,3,7,6,6,4,0
1532062735598,-1,-2,-9,-14,1,-3,-2,-1
1532062735603,-2,0,-2,-1,-2,2,-1,-1
1532062735608,-2,-4,2,2,0,-2,-1,0
1532062735613,0,-2,0,-2,-6,-4,-4,-2
1532062735618,-1,-2,2,7,1,1,0,0
1532062735623,-1,1,1,1,3,1,0,0
1532062735628,-2,-3,-6,-9,-2,-2,-2,0
1532062735633,-1,-1,1,3,-4,-2,-2,0
1532062735638,-1,0,-1,-5,2,0,2,-1
1532062735643,1,2,4,6,-3,-2,1,-1
1532062735648,-2,-1,-2,-2,0,0,-1,-1
1532062735653,0,-1,-3,-4,-1,0,0,0
1532062735658,-2,0,1,6,-2,-3,-2,-2
1532062735663,-1,0,-1,-2,-7,-2,-1,-2
1532062735668,-1,1,2,0,-1,-1,1,0
1532062735673,-1,0,0,0,2,1,-1,0
1532062735678,1,-2,-1,-2,0,-1,-1,-2
1532062735683,0,0,3,4,2,1,1,0
1532062735688,-2,-2,-6,-9,-7,-3,-1,-2
1532062735693,-2,-3,0,-3,0,-3,-2,-3
1532062735698,0,-1,0,4,2,1,1,-2
1532062735703,0,-1,-2,-3,-1,0,-1,-1
1532062735708,0,-1,3,5,2,0,-2,1
1532062735713,-2,0,-2,-1,-5,-3,1,-2
1532062735718,-1,-3,-2,-3,-1,0,-2,-1
1532062735723,-2,-2,-1,-3,-2,0,0,1
1532062735728,-1,-1,-3,-4,-3,-3,-3,0
1532062735733,0,0,1,2,-2,-2,0,0
1532062735738,0,-1,0,-1,-2,-2,-1,0
1532062735743,-1,-2,-3,-3,3,2,1,-1
1532062735748,-2,0,1,5,4,3,0,-1
1532062735753,-1,0,-2,-1,0,0,-1,0
1532062735758,0,-1,-3,-5,-3,-2,-2,-2
1532062735763,-2,-3,-2,-1,-7,-1,-1,-1
1532062735768,1,1,4,5,6,-1,0,1
1532062735773,-1,-5,-6,-7,0,1,-1,-2
1532062735778,0,-1,0,1,0,-2,-2,1
1532062735783,-2,0,1,-5,-1,-2,-1,-2
1532062735788,0,0,1,4,2,1,0,-1
1532062735793,1,-1,2,3,-3,0,0,-1
1532062735798,0,0,-2,-7,1,2,1,-1
1532062735803,1,0,-1,-1,3,0,-1,0
1532062735808,-1,-1,-1,0,-5,-2,0,-2
1532062735813,-1,-1,-1,2,-1,-2,-2,0
1532062735818,-1,-1,-1,-3,1,-1,-2,1
1532062735823,0,2,1,5,-6,-2,0,0
1532062735828,0,-2,2,2,5,1,0,-1
1532062735833,1,-1,-4,-11,-2,-1,0,1
1532062735838,-1,2,2,8,-4,-3,-2,-1
1532062735843,-1,-1,-1,1,3,1,1,0
1532062735848,-1,-2,-2,-1,-1,0,-2,0
1532062735853,-2,0,1,1,-3,-2,-1,1
1532062735858,0,0,-1,-3,0,1,0,-1
1532062735863,0,-1,-3,-4,1,-3,-2,1
1532062735868,-1,-1,-2,-5,-5,-3,-2,-1
1532062735873,0,-1,2,6,1,-1,0,0
1532062735878,-1,0,0,3,-2,2,1,-2
1532062735883,-2,-1,-1,-1,2,0,0,0
1532062735888,-2,0,-3,-7,-1,-1,-1,0
1532062735893,1,0,2,4,-1,-1,0,-1
1532062735898,-2,-2,-2,-8,0,-2,0,1
1532062735903,1,-2,-4,-7,-4,1,-2,-1
1532062735908,-1,-1,2,4,4,-1,-1,-1
1532062735913,-2,-1,-1,0,-1,0,-2,-2
1532062735918,0,-2,0,0,-1,-1,-1,-1
1532062735923,-2,-1,1,2,4,2,1,-2
1532062735928,0,0,-2,0,-3,-1,1,-2
1532062735933,-1,0,-2,-5,-3,0,0,0
1532062735938,-1,0,2,0,-2,-2,-2,-1
1532062735943,-1,-2,-1,-3,-2,-3,-2,-2
1532062735948,1,-1,0,1,-3,2,1,-2
1532062735953,2,0,0,0,2,1,1,-1
1532062735958,-1,0,5,7,0,0,-2,0
1532062735963,-3,-2,-5,-10,1,-4,-2,0
1532062735968,-1,-2,2,-3,-4,-3,-1,0
1532062735973,0,-1,-1,5,-4,-2,-1,-1
1532062735978,-1,-2,-3,-6,1,1,1,-2
1532062735983,0,1,2,5,-4,-2,-1,-1
1532062735988,-1,-1,-1,1,-1,-2,-1,0
1532062735993,-2,-1,-1,-3,4,2,0,1
1532062735998,-1,-2,1,6,-1,-3,-2,0
1532062736003,-1,-2,-3,-5,0,-1,-1,-1
1532062736008,-1,-1,0,0,-3,-2,-2,0
1532062736013,0,1,2,0,1,-2,0,-3
1532062736018,1,-3,-4,-5,-3,4,1,-2
1532062736023,0,-2,1,2,1,0,-1,-2
1532062736028,-1,1,-2,0,-4,-1,-1,0
1532062736033,0,0,-2,-1,-1,-1,-2,-3
1532062736038,1,-1,0,1,0,-2,0,0
1532062736043,0,0,-1,-2,-4,-2,0,-1
1532062736048,1,0,-1,-2,0,2,0,-1
1532062736053,-4,-1,-1,2,-3,-3,-1,2
1532062736058,-1,-3,-5,-10,-1,-1,-2,-1
1532062736063,1,-1,0,0,1,0,-2,0
1532062736068,0,0,1,0,2,1,-1,-2
1532062736073,0,1,1,-1,-1,0,-2,0
1532062736078,-1,1,-1,-1,-2,-1,-2,-2
1532062736083,0,0,1,3,-2,-2,-1,-2
1532062736088,-1,-2,-3,-5,-2,-1,-1,-2
1532062736093,-1,-2,0,0,1,-1,1,1
1532062736098,-1,-3,-4,-4,-1,-1,0,1
1532062736103,0,2,2,6,3,1,-1,-1
1532062736108,-2,0,-4,-11,-3,-1,-2,-1
1532062736113,1,0,0,0,-2,-3,-2,2
1532062736118,-1,-1,2,5,-4,-4,-1,0
1532062736123,-1,0,-1,-2,1,-1,0,0
1532062736128,-1,-1,0,0,2,-1,0,0
1532062736133,-1,0,1,-1,1,3,0,-2
1532062736138,-1,2,0,2,5,-1,1,-2
1532062736143,-3,-5,-7,-8,-7,0,-3,-1
1532062736148,1,-1,1,5,2,-3,-1,0
1532062736153,-1,-2,-6,-10,-2,-1,-1,-1
1532062736158,1,1,4,6,-2,2,0,0
1532062736163,-1,-2,-4,-9,-3,-2,-2,-2
1532062736168,1,-2,-2,-1,1,-2,0,-1
1532062736173,-1,-1,0,3,-3,0,-1,-1
1532062736178,-2,-2,-4,-10,-2,-3,-1,-1
1532062736183,-1,0,3,7,2,0,0,-1
1532062736188,-1,0,-1,-2,-2,0,1,0
1532062736193,0,2,3,8,7,4,1,0
1532062736198,-2,-2,-7,-7,-9,-1,-2,-3
1532062736203,-1,-1,-2,-9,5,0,0,-1
1532062736208,-3,-2,-2,3,-7,-4,-3,0
1532062736213,0,-2,-1,-2,-3,-3,0,0
1532062736218,-2,1,1,6,2,0,0,0
1532062736223,0,2,1,1,0,1,0,-2
1532062736228,0,-1,0,4,-1,-1,-4,-1
1532062736233,-2,-3,-7,-13,-5,-1,-1,-3
1532062736238,-1,-2,0,1,0,-2,-2,0
1532062736243,0,0,-4,-1,-4,-1,0,0
1532062736248,1,0,1,0,4,2,-1,-1
1532062736253,1,-1,0,2,-1,-1,-1,-1
1532062736258,-2,-1,1,-1,0,-2,-1,0
1532062736263,-2,-2,-3,-4,-5,-2,-2,0
1532062736268,-1,0,1,-2,0,2,-2,0
1532062736273,0,-2,-2,-2,-3,-4,-3,-1
1532062736278,0,0,3,1,3,1,1,0
1532062736283,0,-1,-2,-2,2,1,-1,0
1532062736288,-1,-2,-1,3,2,-2,1,-1
1532062736293,0,-2,-4,-8,-3,-1,-1,-2
1532062736298,1,2,1,2,-1,1,0,-1
1532062736303,-1,0,4,11,-1,-2,0,-1
1532062736308,-2,-1,-5,-12,-2,0,0,-2
1532062736313,-1,1,2,0,1,0,-1,-1
1532062736318,0,-1,1,4,-3,-1,0,1
1532062736323,0,0,-1,2,1,1,-1,0
1532062736328,-1,-2,-2,-2,-2,0,1,-1
1532062736333,-3,-2,-3,-5,-1,-1,0,0
1532062736338,0,0,1,-1,1,-1,-1,-1
1532062736343,-1,-3,-2,-3,-4,-3,0,-1
1532062736348,1,0,2,5,3,-1,2,-1
1532062736353,-1,-1,-2,-6,-3,-3,-3,0
1532062736358,-2,-2,-2,2,-1,0,-1,0
1532062736363,0,0,1,2,2,-2,0,-2
1532062736368,-1,-2,-1,-3,-7,-1,-2,1
1532062736373,-1,0,-4,-6,0,2,0,-1
1532062736378,-1,-1,0,0,-3,-3,-1,0
1532062736383,-1,-1,0,2,-1,-2,1,0
1532062736388,0,1,0,0,-3,-2,1,-2
1532062736393,-1,-1,0,3,0,0,-2,0
1532062736398,-1,-2,-4,-3,-2,-1,-1,-1
1532062736403,0,-1,-1,-3,-1,-1,-1,-1
1532062736408,-1,0,2,1,4,0,0,0
1532062736413,-1,-1,-4,-2,-11,-2,0,-1
1532062736418,-1,0,-2,-2,3,1,-1,0
1532062736423,-2,0,-1,3,5,0,-2,-1
1532062736428,0,-1,-1,1,-2,-2,0,0
1532062736433,0,2,1,-5,-5,-1,0,-1
1532062736438,0,-2,-7,-10,-4,3,1,0
1532062736443,-2,0,2,2,1,-1,-1,1
1532062736448,-1,0,0,-3,-4,-2,-2,-2
1532062736453,0,-1,2,11,6,1,0,-1
1532062736458,0,2,2,1,-1,-3,0,-2
1532062736463,-1,-1,-1,-1,-4,-1,-2,0
1532062736468,-1,-2,-1,-1,-2,-1,0,2
1532062736473,1,-2,-1,-3,0,-3,-1,-1
1532062736478,0,-1,2,0,-1,-2,-3,-1
1532062736483,-2,-1,-2,-2,-6,-1,0,-1
1532062736488,0,1,3,5,1,-2,0,-3
1532062736493,0,-2,0,-2,3,2,2,0
1532062736498,-1,-1,-2,0,5,1,0,-1
1532062736503,-1,1,1,0,-6,-2,-1,1
1532062736508,-2,-2,-5,-4,-4,-3,-1,0
1532062736513,-1,-2,0,2,2,-1,-1,0
1532062736518,-1,-2,-2,-2,-2,0,-2,-2
1532062736523,0,-1,-1,-1,-4,-3,-2,-2
1532062736528,-1,-1,1,5,-3,1,-2,-1
1532062736533,-1,1,-2,-2,-1,0,0,-1
1532062736538,-1,1,4,12,5,2,3,1
1532062736543,-2,-3,-9,-16,-1,-1,-1,-2
1532062736548,-2,0,-1,-6,5,-1,-2,0
1532062736553,-2,-2,-2,-3,-3,-2,-1,-2
1532062736558,-1,-2,-3,-5,-5,-2,-4,0
1532062736563,0,0,2,7,-1,-1,-1,1
1532062736568,0,0,0,-1,-3,-2,0,0
1532062736573,-1,-2,1,0,1,3,1,0
1532062736578,0,0,-1,1,0,-2,-1,-1
1532062736583,0,1,-1,-2,-2,-1,-1,0
1532062736588,-2,-2,-1,-1,0,1,-2,-1
1532062736593,-1,1,0,3,0,-1,-1,0
1532062736598,0,-1,0,-5,-1,-2,1,0
1532062736603,-1,-1,-1,-1,0,1,-1,-2
1532062736608,1,-1,-2,-1,-5,-1,0,-2
1532062736613,0,-1,0,0,4,0,0,-1
1532062736618,1,-1,-1,0,-7,-1,-1,-1
1532062736623,-1,2,3,5,4,0,-1,1
1532062736628,-2,-4,-6,-6,-2,0,0,-1
1532062736633,0,-1,3,3,3,1,1,0
1532062736638,-1,-2,-4,-6,-3,-2,0,-2
1532062736643,1,1,4,4,3,2,1,0
1532062736648,0,-1,-1,-4,-2,-1,-1,-3
1532062736653,-3,-1,-5,-6,-6,-3,-2,-2
1532062736658,-1,0,0,-1,1,-2,0,-2
1532062736663,-3,-1,-1,1,-6,-5,-3,-2
1532062736668,0,0,0,-3,5,0,0,1
1532062736673,0,0,-4,-7,-3,-2,0,-2
1532062736678,-1,1,1,2,1,0,-1,0
1532062736683,1,-3,1,3,2,1,-1,-1
1532062736688,0,-2,0,1,-3,-3,-2,-1
1532062736693,-2,-2,-3,-3,-11,-3,-1,-1
1532062736698,-1,0,-1,-1,6,4,0,-1
1532062736703,1,1,3,5,0,2,2,0
1532062736708,-1,-3,-7,-6,1,1,-3,-1
1532062736713,0,2,1,0,-1,-3,-1,0
1532062736718,0,0,0,-1,-3,-1,0,-1
1532062736723,-3,-1,-1,-1,0,0,1,0
1532062736728,-1,1,1,6,-3,-2,-1,0
1532062736733,-2,0,0,1,4,1,-2,0
1532062736738,-1,-2,-2,-3,-3,-3,-2,-1
1532062736743,0,-1,0,2,2,-1,-2,0
1532062736748,-2,-2,-3,-7,-5,-2,-1,-1
1532062736753,0,-1,2,6,2,1,1,-2
1532062736758,0,-2,-1,2,1,-1,1,-1
1532062736763,0,-1,0,-3,-2,0,0,0
1532062736768,-1,-2,-5,-7,1,-2,-2,-2
1532062736773,-2,-2,1,4,-6,-2,-1,-1
1532062736778,-2,-2,0,2,5,0,-2,1
1532062736783,-1,-2,-4,-8,-2,0,-1,-2
1532062736788,1,1,5,10,2,-1,0,1
1532062736793,-1,-2,-4,-3,-2,-2,-3,-1
1532062736798,0,-1,-3,-3,1,0,-1,-2
1532062736803,-1,0,-3,-4,1,1,0,-1
1532062736808,1,-1,1,1,2,0,0,-1
1532062736813,0,0,2,8,3,0,-1,-2
1532062736818,-1,-2,-6,-7,-5,-4,-3,0
1532062736823,1,0,-2,-4,-4,-3,-2,-2
1532062736828,-2,1,3,3,-5,0,1,-2
1532062736833,-1,0,-4,-2,3,1,1,1
1532062736838,-1,0,-1,-2,-1,-3,0,0
1532062736843,-1,-4,-5,-2,1,-1,-1,-1
1532062736848,-1,-1,-1,1,2,-2,-1,1
1532062736853,1,0,1,-1,-11,-2,-2,-2
1532062736858,0,1,3,7,9,2,0,-2
1532062736863,0,-1,-4,-3,0,0,-1,-1
1532062736868,0,-2,-2,-4,-5,-1,-2,-2
1532062736873,0,0,2,0,2,-1,0,0
1532062736878,-2,0,-2,-1,-4,1,0,1
1532062736883,0,-1,0,-1,-5,-2,-2,0
1532062736888,-1,-1,-1,0,2,3,2,-1
1532062736893,0,-1,-2,-2,3,-1,-2,-1
1532062736898,-1,-1,1,4,-4,2,0,-1
1532062736903,2,0,5,6,2,-2,0,-1
1532062736908,-3,-3,-7,-12,-4,-3,-4,-1
1532062736913,0,-2,-3,-4,1,1,0,0
1532062736918,0,-1,1,1,-2,-1,-2,-1
1532062736923,-3,-1,1,4,1,-1,0,-1
1532062736928,0,1,0,-2,-5,-2,0,-1
1532062736933,-1,0,0,2,-1,0,4,1
1532062736938,0,1,-1,-5,-1,-1,-1,-1
1532062736943,-2,1,-2,-1,-3,-1,-2,-1
1532062736948,0,0,3,1,0,-1,0,1
1532062736953,-3,-3,-6,-7,-2,-2,-3,-1
1532062736958,-1,0,2,10,0,-2,3,0
1532062736963,-6,-2,-5,-27,-6,0,-3,0
1532062736968,6,-1,-2,6,3,0,1,-1
1532062736973,1,-1,0,-1,-1,-1,-1,0
1532062736978,11,0,-3,0,0,-1,-5,0
1532062736983,-9,-3,-3,9,-5,-4,2,-4
1532062736988,-2,2,2,1,6,3,4,1
1532062736993,-2,-1,-4,-31,-1,-1,8,-1
1532062736998,2,-1,1,15,-3,-2,-7,5
1532062737003,4,-1,0,2,-1,-1,12,4
1532062737008,20,5,1,6,-3,-2,-17,-6
1532062737013,-23,-14,1,8,0,0,5,5
1532062737018,-10,-4,-1,-10,-3,-3,12,1
1532062737023,5,2,4,9,3,1,-6,-5
1532062737028,-1,3,-1,38,5,2,-11,-9
1532062737033,11,4,4,-31,2,0,1,1
1532062737038,-5,-4,-4,0,-7,-4,-9,-7
1532062737043,-1,1,8,6,3,2,8,6
1532062737048,-1,-4,-1,-16,3,-3,16,3
1532062737053,3,2,1,26,-3,-2,-16,-2
1532062737058,-5,0,2,2,3,2,5,3
1532062737063,6,5,3,13,10,1,-10,-7
1532062737068,-9,-12,-12,-27,-15,-3,-1,0
1532062737073,0,1,-3,15,9,0,-1,-4
1532062737078,-1,0,1,-18,2,-1,4,3
1532062737083,8,-2,-4,-16,-4,0,-4,2
1532062737088,-17,1,1,0,3,1,24,-1
1532062737093,8,0,-11,-25,-11,-7,-28,-4
1532062737098,-8,-7,-1,-1,0,1,0,-4
1532062737103,-23,-3,-1,6,5,0,-16,-18
1532062737108,-4,1,5,6,-2,0,16,11
1532062737113,12,6,6,0,1,1,12,-2
1532062737118,5,0,-5,21,4,-1,-1,-2
1532062737123,4,-3,-3,-15,-11,-3,0,5
1532062737128,-5,-2,2,-10,2,2,-17,-2
1532062737133,0,-1,3,42,-4,-2,-4,-6
1532062737138,-2,1,-6,-24,-10,-8,-6,2
1532062737143,2,-2,0,24,-3,0,11,1
1532062737148,3,-1,-11,-24,8,3,-20,-2
1532062737153,-4,-4,-5,-33,-5,-3,4,0
1532062737158,0,1,6,6,-6,-1,-2,0
1532062737163,-7,-2,-3,-4,-2,-5,-8,-8
1532062737168,-1,2,0,-15,-3,-2,-2,4
1532062737173,-1,-2,1,16,4,1,1,-2
1532062737178,0,-1,-3,-26,-1,1,3,1
1532062737183,1,1,-1,13,-1,2,-2,3
1532062737188,3,1,8,36,-3,-2,14,2
1532062737193,-7,-8,-9,-5,-2,-2,-2,-2
1532062737198,5,0,-1,-16,-4,-1,-10,3
1532062737203,-1,10,5,8,0,-1,0,0
1532062737208,-2,-3,-5,-27,-3,-1,6,-5
1532062737213,-1,-7,6,27,-6,-2,6,4
1532062737218,-4,-5,-3,-21,2,0,-4,-6
1532062737223,3,-3,-3,1,1,-3,5,5
1532062737228,0,1,2,30,-2,-4,-8,0
1532062737233,-2,5,6,-2,4,4,3,-1
1532062737238,4,6,4,25,5,5,-12,-2
1532062737243,0,-4,-6,-73,-11,-4,-1,0
1532062737248,-1,-1,-6,22,-14,-4,1,-1
1532062737253,-1,0,-3,-10,5,2,-9,4
1532062737258,2,1,-1,29,6,0,8,-4
1532062737263,2,3,5,8,3,0,2,0
1532062737268,-2,-3,-2,-24,1,1,-6,-2
1532062737273,-2,-3,-6,-35,-9,-4,1,-5
1532062737278,-1,-1,-2,-3,-8,-2,2,-1
1532062737283,1,4,5,14,5,1,-2,10
1532062737288,-2,-3,-3,-13,1,-3,-4,-5
1532062737293,0,-5,-6,16,-1,2,15,6
1532062737298,-3,-1,1,-3,0,0,-14,-19
1532062737303,-1,1,-2,-1,-4,-3,1,-8
1532062737308,1,3,4,-1,4,-1,-9,1
1532062737313,-1,-3,1,17,4,2,7,7
1532062737318,-5,-4,3,-4,-5,-3,7,1
1532062737323,-1,-4,-6,10,1,-2,-2,-1
1532062737328,3,15,-1,-11,-7,-3,-2,0
1532062737333,1,9,8,-4,2,3,-5,-3
1532062737338,-3,-27,-7,31,4,-2,4,2
1532062737343,-3,-7,-6,-32,-3,-1,-7,-5
1532062737348,-1,-8,5,25,7,1,3,-1
1532062737353,1,17,2,-19,-9,-2,-2,1
1532062737358,0,6,4,0,3,0,-1,-2
1532062737363,0,-12,-8,2,0,0,4,3
1532062737368,-2,3,5,4,-4,-3,-4,-2
1532062737373,-2,-5,2,5,2,-3,-4,-2
1532062737378,1,5,-2,16,5,1,3,2
1532062737383,0,-5,-11,-24,4,3,-2,-4
1532062737388,1,0,-2,-6,-4,0,1,1
1532062737393,1,5,-1,12,3,-3,1,5
1532062737398,-3,5,6,-2,-11,0,0,-13
1532062737403,-2,-7,-14,-3,4,-2,-2,-2
1532062737408,0,-3,-1,-4,-5,-2,-2,-1
1532062737413,-2,8,0,0,2,-3,1,-6
1532062737418,1,-8,-3,-6,-6,-2,-2,3
1532062737423,1,-2,7,7,5,4,3,3
1532062737428,1,-13,-1,15,8,1,-1,-5
1532062737433,-3,-9,-14,-43,-11,-4,-3,-3
1532062737438,1,11,3,-10,-1,-1,-2,4
1532062737443,0,14,9,16,0,0,-1,0
1532062737448,-2,-14,-2,-9,5,1,3,0
1532062737453,-2,-3,5,-3,-1,1,-5,-4
1532062737458,0,8,-3,-8,-4,0,-1,0
1532062737463,-1,-4,6,-8,0,-6,2,-1
1532062737468,0,5,4,6,3,1,4,1
1532062737473,-2,-9,0,19,-2,-1,-6,-2
1532062737478,-2,-1,-5,-46,-2,-2,12,1
1532062737483,0,1,-3,23,2,-1,-14,-2
1532062737488,-4,-2,0,-15,-7,-6,-12,-6
1532062737493,6,0,1,-9,-1,1,-10,-2
1532062737498,-3,3,2,28,14,1,11,3
1532062737503,3,-4,-6,-9,-19,-2,2,-3
1532062737508,-1,-1,-7,-3,-2,-3,-22,2
1532062737513,0,-1,1,18,2,3,14,8
1532062737518,1,5,-2,-10,-1,1,-5,-2
1532062737523,-3,-4,-2,5,0,-1,-2,0
1532062737528,1,-1,4,-6,-4,0,3,0
1532062737533,0,-3,-4,-3,1,-1,-4,-2
1532062737538,0,4,3,12,2,0,-4,-1
1532062737543,0,16,5,-6,-2,1,4,1
1532062737548,-3,-14,-4,7,-1,-1,3,-1
1532062737553,-6,-16,-5,3,-2,-2,-4,-4
1532062737558,0,-1,-5,-21,-4,-1,-2,2
1532062737563,1,0,-1,2,-5,0,-3,0
1532062737568,1,11,-2,3,-6,-1,6,-1
1532062737573,-1,3,-4,1,0,-1,-2,-3
1532062737578,0,-7,-4,11,-5,-3,-5,0
1532062737583,0,3,6,-2,5,1,3,-1
1532062737588,1,-3,3,4,4,4,3,0
1532062737593,0,6,5,10,3,0,2,-2
1532062737598,0,-4,-3,-7,-2,0,-3,0
1532062737603,0,-3,-2,-1,0,-3,-4,-6
1532062737608,-1,0,0,2,-5,-2,7,2
1532062737613,0,4,4,11,-4,2,0,0
1532062737618,0,1,1,-2,-2,-2,1,-1
1532062737623,-3,-6,-5,-8,-3,-1,-3,-2
1532062737628,0,-2,-1,8,7,1,-6,-3
1532062737633,-1,2,-5,-20,-12,-5,4,-10
1532062737638,0,0,-3,8,-1,-1,3,6
1532062737643,0,-4,1,21,6,-3,-5,-1
1532062737648,1,6,0,-8,-2,0,0,-4
1532062737653,1,-7,2,8,2,-1,4,3
1532062737658,0,0,1,-13,-2,-1,-1,-2
1532062737663,-2,-5,-1,0,-3,-3,0,1
1532062737668,-1,5,2,8,-2,2,6,-1
1532062737673,0,5,7,29,8,2,-2,-2
1532062737678,-4,-13,-12,-30,1,-4,-4,-3
1532062737683,1,3,5,13,4,2,4,3
1532062737688,-2,-3,-8,-46,-11,-5,-5,-3
1532062737693,-3,-4,-5,-10,-11,-4,-4,-3
1532062737698,-1,2,5,8,3,-2,-6,1
1532062737703,-1,-2,-5,11,0,0,-2,-1
1532062737708,-1,3,2,4,7,3,2,-2
1532062737713,-1,5,0,-15,0,-2,-1,0
1532062737718,-1,-7,-2,12,0,-1,0,0
1532062737723,-2,0,0,-14,-3,-1,3,-3
1532062737728,2,0,0,8,-1,0,-2,2
1532062737733,1,0,-2,1,7,-1,0,-3
1532062737738,-2,3,1,-6,-5,0,2,3
1532062737743,2,3,11,29,-1,2,5,2
1532062737748,-3,-2,-5,-54,-8,-3,-16,-4
1532062737753,-2,-4,-5,-7,-2,-3,5,2
1532062737758,1,2,2,25,3,1,-5,-4
1532062737763,-3,-6,-8,-27,-8,-6,-4,-4
1532062737768,-2,-3,-5,8,-3,-2,6,0
1532062737773,0,-1,0,1,-1,-2,-4,3
1532062737778,0,-1,3,-6,-4,3,-2,-3
1532062737783,-1,1,-2,-19,7,3,-3,1
1532062737788,-1,-1,1,8,-1,-1,-4,0
1532062737793,-1,-2,-4,-9,-1,-1,9,1
1532062737798,-2,-2,1,22,-4,-3,-6,2
1532062737803,-1,0,-3,-5,-2,-3,-16,-5
1532062737808,0,-1,2,-7,1,1,10,-2
1532062737813,-2,-3,-2,-12,0,0,-8,-2
1532062737818,0,0,1,8,0,1,14,2
1532062737823,-2,-3,-4,13,-1,-3,-2,-4
1532062737828,-1,2,3,-1,-1,1,-6,-4
1532062737833,2,1,1,-13,2,1,8,6
1532062737838,-1,-3,-6,-42,-10,-4,-3,-9
1532062737843,0,-4,-1,3,-2,0,0,-2
1532062737848,-1,0,3,5,12,0,10,4
1532062737853,-3,1,2,36,0,1,-9,-2
1532062737858,-1,-2,-2,10,2,-1,-6,-3
1532062737863,1,0,3,0,-1,0,6,1
1532062737868,-3,-2,-3,3,-13,-3,-3,0
1532062737873,1,3,8,49,10,-1,0,-2
1532062737878,-2,-2,-4,-16,-1,0,1,-1
1532062737883,-1,0,1,-6,4,1,7,1
1532062737888,-2,-3,0,18,2,-3,2,7
1532062737893,-2,-2,-5,-36,-6,-2,-8,-9
1532062737898,-1,0,-2,2,-1,-1,1,-1
1532062737903,-4,-3,-5,-13,-7,-1,1,-2
1532062737908,2,0,-3,-4,-1,-1,-3,-1
1532062737913,0,-3,-3,3,-1,-2,-5,2
1532062737918,-1,3,2,-3,7,4,-3,-12
1532062737923,0,-1,1,0,3,-2,4,-2
1532062737928,1,0,-3,5,-1,1,9,-2
1532062737933,-2,-3,-3,-5,-5,-4,-16,-1
1532062737938,0,4,5,5,2,-1,2,2
1532062737943,0,0,1,16,-1,-1,1,0
1532062737948,-2,-1,-2,-26,-10,-4,-7,-5
1532062737953,-1,2,3,-21,-3,0,8,2
1532062737958,-1,-7,-6,19,-3,-2,-3,1
1532062737963,-1,0,2,12,-4,-2,-3,2
1532062737968,0,0,-5,-2,4,-1,-1,-1
1532062737973,-2,-2,1,11,0,0,-4,-5
1532062737978,0,1,-1,-13,-2,0,1,2
1532062737983,-3,-4,-5,-6,-8,0,-1,1
1532062737988,0,-2,1,14,5,-2,-3,-2
1532062737993,1,1,-1,-3,-5,-1,0,0
1532062737998,-1,-2,-3,0,-1,-1,2,-3
1532062738003,0,2,4,7,5,0,-3,0
1532062738008,-1,-1,2,1,3,1,1,2
1532062738013,-3,-6,-9,-37,-10,-2,0,-3
1532062738018,-1,1,4,4,-1,-1,2,4
1532062738023,0,0,-1,-9,-2,-4,2,-1
1532062738028,-1,-2,-2,13,0,0,-11,-2
1532062738033,3,1,3,7,16,3,3,-2
1532062738038,0,-3,-3,1,-2,1,-4,-4
1532062738043,0,-1,3,-5,-1,1,2,0
1532062738048,0,-1,3,11,-5,-1,4,3
1532062738053,1,-2,-2,-5,-3,-1,2,-3
1532062738058,0,-2,-1,1,0,-1,2,5
1532062738063,0,-1,1,1,1,-1,-2,0
1532062738068,-1,-1,0,6,1,-1,1,-4
1532062738073,-2,1,-4,-17,-8,-1,-2,0
1532062738078,0,-1,1,10,1,-1,0,-2
1532062738083,0,-1,-5,-9,4,1,1,1
1532062738088,0,-2,-2,6,-2,1,-1,-2
1532062738093,0,-3,-1,21,14,1,0,-1
1532062738098,0,1,0,0,-1,0,-2,-1
1532062738103,-2,-4,-7,-11,-7,-3,-6,-3
1532062738108,0,1,2,8,0,-1,11,4
1532062738113,-2,1,-1,1,-4,-3,-6,-3
1532062738118,-1,0,-1,-4,-3,-3,-2,-1
1532062738123,0,0,3,8,2,-1,-1,-2
1532062738128,-2,-2,-3,-9,-1,-2,-1,-1
1532062738133,0,0,4,13,1,3,3,1
1532062738138,-1,1,-3,-8,1,-1,-1,1
1532062738143,-1,9,1,-4,-5,-1,0,-3
1532062738148,-1,-13,-2,4,-1,-1,4,6
1532062738153,0,-3,4,19,-1,2,-8,-11
1532062738158,-3,-7,-5,-10,4,3,5,-2
1532062738163,-3,0,1,0,-5,-3,-2,-2
1532062738168,2,6,-1,-10,-2,-3,-4,0
1532062738173,-2,0,-4,-6,-6,-4,-8,2
1532062738178,0,1,2,4,-3,-2,-3,-2
1532062738183,-1,-1,0,8,3,0,-2,0
1532062738188,0,2,3,15,4,0,5,-4
1532062738193,-2,-3,-3,-15,-3,-2,-2,-2
1532062738198,-3,-4,-8,-3,-5,-5,0,0
1532062738203,0,-2,0,-1,2,3,7,2
1532062738208,0,0,-1,-1,1,0,-11,-3
1532062738213,0,1,-2,0,-2,-3,2,-1
1532062738218,0,2,-1,-10,1,0,-2,0
1532062738223,0,-4,0,3,-1,3,1,0
1532062738228,-2,3,-4,-17,0,-3,-8,-5
1532062738233,-1,-9,-4,-4,1,-1,25,11
1532062738238,-2,-1,-1,-11,-6,-3,-30,-7
1532062738243,-2,-4,0,-4,-5,0,4,0
1532062738248,-1,0,-6,-5,-6,1,-4,-3
1532062738253,-1,2,1,12,5,-1,-1,3
1532062738258,0,0,0,-11,-6,-1,6,3
1532062738263,1,-1,-3,5,-2,-3,-7,-4
1532062738268,1,1,3,27,2,3,11,4
1532062738273,-1,-2,-3,-15,-3,-4,-7,-1
1532062738278,1,3,3,36,7,3,1,2
1532062738283,-2,-5,-9,-35,-2,-5,-8,-6
1532062738288,-1,0,1,-9,2,1,5,-1
1532062738293,-3,-8,-5,0,-22,-7,1,0
1532062738298,1,0,3,15,7,-2,-7,-15
1532062738303,1,-1,-5,-8,2,1,3,3
1532062738308,-1,-3,-1,-24,-2,-3,-2,-3
1532062738313,2,5,3,7,10,3,1,-1
1532062738318,0,-1,-1,-21,-8,-4,4,5
1532062738323,-4,-5,-9,-16,-8,-5,-3,-4
1532062738328,-1,-2,-1,1,0,1,4,0
1532062738333,-1,-2,-3,-1,-6,-1,4,2
1532062738338,-1,4,6,7,1,-1,-5,1
1532062738343,1,-1,-3,-18,0,-2,-7,-2
1532062738348,-2,-3,-1,5,-3,-2,1,-4
1532062738353,0,1,0,-1,-1,1,-10,-7
1532062738358,0,1,2,-4,7,-2,5,2
1532062738363,0,-1,4,18,-4,-3,0,4
1532062738368,-3,-5,-11,-65,-16,-3,-11,-2
1532062738373,2,2,4,0,12,2,7,2
1532062738378,-3,-2,-3,-1,-9,-3,1,-1
1532062738383,2,2,4,19,18,1,-6,1
1532062738388,-2,-2,0,8,-2,-2,-2,-2
1532062738393,0,1,0,-21,-3,-1,-6,-3
1532062738398,-3,-1,1,1,-8,-4,7,2
1532062738403,-1,0,0,-8,-7,-2,19,7
1532062738408,-2,-1,2,11,4,0,-12,-3
1532062738413,1,2,0,6,2,0,-2,-2
1532062738418,0,-4,-7,6,1,0,-2,-5
1532062738423,0,2,2,-1,2,3,1,4
1532062738428,-1,-1,-1,12,-9,-3,3,2
1532062738433,-1,-1,-2,-7,3,2,1,-1
1532062738438,0,-1,-1,2,1,-1,-2,1
1532062738443,-1,0,1,8,-1,-1,-6,-4
1532062738448,0,2,1,2,3,-1,-1,0
1532062738453,0,-2,-2,3,0,1,1,-4
1532062738458,0,-1,0,4,2,1,0,1
1532062738463,1,0,-4,-7,-2,1,-4,-1
1532062738468,0,1,2,18,3,-2,4,-2
1532062738473,-3,-3,-4,-4,-5,-3,-2,3
1532062738478,1,1,4,10,7,4,1,-2
1532062738483,0,1,-1,-8,-1,-2,2,-2
1532062738488,1,-2,0,10,-2,-2,1,0
1532062738493,-2,0,2,32,4,-2,-9,0
1532062738498,-1,0,-2,-48,-12,1,5,0
1532062738503,1,-2,-2,19,1,-2,-4,-2
1532062738508,0,-1,1,-2,-2,0,6,2
1532062738513,0,0,2,9,2,0,-1,-2
1532062738518,0,-1,-3,-48,-2,0,-8,1
1532062738523,-1,1,-1,26,-2,0,3,-1
1532062738528,0,-3,-4,-20,-1,0,-9,5
1532062738533,0,3,4,-4,0,1,3,-5
1532062738538,-1,-2,-4,7,-1,-3,0,-1
1532062738543,-3,0,1,-13,-1,-1,0,0
1532062738548,-1,2,3,6,7,2,5,-1
1532062738553,-1,-3,-3,-9,-13,-3,-8,-2
1532062738558,0,1,6,21,7,0,3,0
1532062738563,-1,-2,-3,-7,1,0,-1,-4
1532062738568,-1,-1,1,-1,-3,0,-2,-4
1532062738573,0,-3,-4,-18,0,0,-1,-1
1532062738578,-1,-1,2,14,-4,-1,-3,-1
1532062738583,0,-2,0,-10,1,0,-2,1
1532062738588,-2,-3,-1,3,1,1,-6,-2
1532062738593,1,1,2,9,2,1,1,1
1532062738598,-2,-5,-4,-30,-1,-1,-2,0
1532062738603,-1,-1,3,-1,-7,-3,-10,-2
1532062738608,0,0,-2,0,-5,-3,-2,0
1532062738613,-1,4,2,1,5,1,3,0
1532062738618,-1,-5,-4,23,2,-2,-4,-2
1532062738623,-2,-2,0,-3,-1,2,0,-1
1532062738628,-2,0,-5,-7,-2,-3,6,0
1532062738633,-1,0,-1,-14,-10,-2,-8,2
1532062738638,-2,-2,-3,-12,1,1,4,0
1532062738643,-1,-1,-1,4,-3,-1,3,1
1532062738648,0,0,0,3,3,1,-1,-3
1532062738653,-3,0,5,19,1,-2,4,2
1532062738658,-1,0,-3,2,-2,-1,-2,-2
1532062738663,-4,-3,-5,-16,-6,-6,-5,-2
1532062738668,0,0,-1,-6,1,5,1,2
1532062738673,-2,-3,-5,-10,-3,-1,0,-2
1532062738678,0,1,1,13,3,0,-1,-1
1532062738683,2,1,1,8,3,-1,-3,-4
1532062738688,0,-1,-3,-6,-3,-5,-1,2
1532062738693,0,-1,0,-3,2,-1,0,-2
1532062738698,-2,-2,-5,1,-11,-3,0,0
1532062738703,-1,-3,1,9,6,0,6,-2
1532062738708,-3,-3,-3,-3,1,0,-7,-1
1532062738713,1,-1,0,10,0,-2,-6,1
1532062738718,0,1,0,3,-6,-3,0,1
1532062738723,0,2,-1,-4,2,2,1,1
1532062738728,1,-3,-2,-3,1,-1,-1,-4
1532062738733,-2,0,1,6,-2,-1,2,-2
1532062738738,0,-1,-3,-12,1,-1,0,-1
1532062738743,-3,-4,-6,0,-4,-2,-4,-1
1532062738748,-1,2,3,8,-2,-1,-1,0
1532062738753,0,-2,-5,-12,10,2,1,-1
1532062738758,0,-1,1,7,-6,-1,-2,0
1532062738763,0,3,4,3,-1,2,2,0
1532062738768,1,2,0,4,3,2,-2,-1
1532062738773,0,-1,-3,-2,-4,-3,0,-3
1532062738778,0,-1,0,3,2,1,-2,-1
1532062738783,0,-1,-1,1,0,0,-1,-1
1532062738788,1,0,0,4,-3,-2,-2,-1
1532062738793,0,-3,-5,-12,-7,-2,0,-2
1532062738798,1,0,0,7,1,1,1,0
1532062738803,-1,1,1,0,0,-1,-3,-2
1532062738808,-2,-3,0,6,0,2,0,0
1532062738813,0,-1,2,0,8,2,1,-2
1532062738818,-2,0,1,-1,0,-2,-1,1
1532062738823,0,1,3,1,-3,-2,0,-2
1532062738828,1,0,2,2,2,-1,-1,-1
1532062738833,-2,-5,-8,-17,-9,-2,1,-1
1532062738838,-1,-2,1,-7,1,-1,-4,-3
1532062738843,0,-1,-1,-3,-3,-1,-1,0
1532062738848,-1,0,-2,-3,0,-2,-1,-2
1532062738853,-1,-1,2,7,2,3,-1,0
1532062738858,0,1,-1,-1,5,1,1,-1
1532062738863,1,0,-1,-6,-2,0,0,0
1532062738868,-1,0,-1,2,1,-1,-1,-1
1532062738873,1,0,1,1,-8,-3,-1,0
1532062738878,-1,1,2,-3,-3,0,0,-1
1532062738883,1,1,-1,7,3,-1,0,-2
1532062738888,0,0,-1,-5,-5,-1,-1,-2
1532062738893,-1,0,-2,-2,-2,-1,-7,0
1532062738898,-1,-2,-3,0,2,2,5,-2
1532062738903,-1,-3,-7,-1,-6,-1,-2,3
1532062738908,0,-1,1,-3,-3,-3,0,-1
1532062738913,0,2,1,5,1,2,3,0
1532062738918,0,0,-1,-3,-3,0,0,-3
1532062738923,-1,0,1,5,8,5,0,0
1532062738928,-1,-2,-3,-4,-1,0,0,-2
1532062738933,-2,-2,-2,3,4,-2,-1,0
1532062738938,-1,-2,-2,0,-4,-4,-5,-1
1532062738943,-1,2,4,1,-2,0,-1,1
1532062738948,-1,-2,0,-3,-1,0,-1,0
1532062738953,-1,0,-2,-6,-2,-3,-3,-2
1532062738958,-1,-2,-2,3,-3,1,0,0
1532062738963,-1,-1,-1,-7,-1,1,-1,-3
1532062738968,0,0,0,1,-2,-3,-1,-1
1532062738973,-1,-1,1,0,-5,0,0,0
1532062738978,-1,-2,-1,1,5,1,0,0
1532062738983,-1,-3,-4,-7,-8,-4,-5,-1
1532062738988,-1,0,0,-1,1,-1,-2,0
1532062738993,-2,-1,-3,-3,-7,-1,0,-5
1532062738998,0,0,1,8,8,-1,-16,5
1532062739003,0,-3,-3,-26,-2,2,1,-1
1532062739008,-1,-3,-6,-10,-2,-3,2,-2
1532062739013,-1,-2,-3,-4,-4,-2,-3,0
1532062739018,-1,0,-3,-3,-3,0,4,-2
1532062739023,0,-1,2,8,2,0,-1,-2
1532062739028,-1,1,-2,-4,-1,1,-4,-1
1532062739033,0,-1,3,4,4,1,5,0
1532062739038,-1,0,-3,-2,-2,-2,-1,-1
1532062739043,-1,0,1,1,0,-3,0,-1
1532062739048,-1,1,2,1,0,1,0,-1
1532062739053,1,0,0,3,1,0,-2,0
1532062739058,-1,0,0,-1,-6,-1,0,-1
1532062739063,0,-1,0,1,0,-2,0,0
1532062739068,1,-1,0,-1,0,2,-1,-2
1532062739073,0,0,0,1,1,-1,-2,1
1532062739078,-1,-2,0,-7,-10,-1,0,-1
1532062739083,-1,-1,-4,-4,3,1,3,-1
1532062739088,-2,-1,1,4,-3,-1,-2,-1
1532062739093,-3,-2,-2,9,2,-2,-2,1
1532062739098,-2,-2,-1,1,2,-1,4,-3
1532062739103,-2,-1,-1,3,-3,0,-17,-1
1532062739108,1,1,-1,3,7,3,2,2
1532062739113,-1,0,-4,-15,-1,1,0,-1
1532062739118,-1,-3,-1,6,1,-2,-1,0
1532062739123,-2,1,1,2,-2,0,4,-1
1532062739128,0,-2,2,2,1,-3,-6,0
1532062739133,0,-1,0,-2,-9,0,-4,-3
1532062739138,1,-1,-2,-2,4,0,3,1
1532062739143,0,-1,-2,-4,-4,-3,0,-2
1532062739148,-3,-3,-1,2,-3,-1,0,0
1532062739153,-1,-3,-5,-3,1,0,2,0
1532062739158,-2,-1,0,2,0,-3,-2,-2
1532062739163,0,0,1,7,-1,-1,1,0
1532062739168,1,-1,-3,-5,-2,-1,1,0
1532062739173,-1,-2,-1,-7,-7,-5,-7,-3
1532062739178,1,1,2,2,-2,1,0,-1
1532062739183,-1,-2,-6,-6,1,0,0,-1
1532062739188,0,-2,0,5,6,2,2,-1
1532062739193,-2,-1,-1,0,-6,0,1,-1
1532062739198,-1,1,1,-5,4,-3,-4,-1
1532062739203,1,-1,0,2,-6,-2,2,0
1532062739208,0,-1,-3,-3,1,0,-1,-1
1532062739213,-3,-1,0,0,2,0,-1,0
1532062739218,-1,2,2,4,1,1,3,3
1532062739223,-1,-4,0,5,0,0,-7,-2
1532062739228,-2,0,-2,-4,-2,-4,-6,0
1532062739233,2,0,-1,3,6,0,2,2
1532062739238,-1,0,1,0,-2,0,-1,-1
1532062739243,0,-1,-6,-8,-7,-1,2,2
1532062739248,-1,-2,-3,-4,3,2,-2,-2
1532062739253,-2,-1,2,-2,0,-2,-2,-2
1532062739258,-2,-5,-8,-3,-6,-1,-2,0
1532062739263,0,0,0,2,5,0,1,-1
1532062739268,-5,-4,3,-2,-13,-5,-1,0
1532062739273,1,-3,-5,-8,1,1,3,0
1532062739278,-1,1,-1,11,0,-2,-8,-1
1532062739283,0,0,2,-9,-2,-2,11,-4
1532062739288,-2,0,-1,4,-5,-1,-18,6
1532062739293,0,-1,0,-1,2,-1,1,-2
1532062739298,-1,1,2,-2,-2,1,0,-4
1532062739303,-2,-1,0,6,2,-1,-1,-1
1532062739308,1,1,1,-2,-2,0,8,-1
1532062739313,-1,1,2,4,3,2,-1,0
1532062739318,0,-3,-3,-9,-1,-1,-3,-2
1532062739323,0,0,-2,2,-2,-1,-2,0
1532062739328,0,0,1,-3,-2,-2,3,-4
1532062739333,0,2,6,12,-2,-2,-2,1
1532062739338,0,-6,-11,-18,-4,-1,3,-3
1532062739343,0,0,3,1,-3,-1,-2,1
1532062739348,-1,-2,-2,1,6,5,1,-3
1532062739353,-2,-1,-1,-2,-8,1,1,-1
1532062739358,0,2,4,7,4,1,2,2
1532062739363,-3,-3,-1,-1,-4,-4,-6,-1
1532062739368,1,-3,-2,-3,-2,-3,0,-3
1532062739373,0,1,4,4,-1,-2,2,0
1532062739378,-1,1,-2,-8,-1,-1,-10,-3
1532062739383,0,-2,-2,-3,1,0,2,2
1532062739388,0,2,3,4,-3,-3,-2,-2
1532062739393,-1,-4,-7,-12,2,1,0,0
1532062739398,-1,1,6,6,-3,-2,4,-1
1532062739403,-3,-4,-10,-17,-3,-1,-2,-2
1532062739408,0,3,1,7,0,-1,0,-2
1532062739413,0,1,1,2,0,-2,1,1
1532062739418,-1,-2,-3,-5,-2,-1,-3,-1
1532062739423,0,1,3,7,2,1,2,0
1532062739428,-1,-3,-4,-5,-3,1,3,-1
1532062739433,1,-1,0,-4,5,0,-3,0
1532062739438,0,-1,0,0,-8,-1,1,1
1532062739443,-1,1,1,3,5,0,-1,-1
1532062739448,0,1,-1,-7,0,-1,-1,-1
1532062739453,-1,-2,-3,-3,-3,-3,2,-1
1532062739458,1,-2,-2,0,-2,0,4,7
1532062739463,-2,-1,3,4,0,-2,-20,-16
1532062739468,-1,-2,-2,0,-1,-1,-4,0
1532062739473,-2,-3,-1,-2,-7,-2,0,-3
1532062739478,1,2,0,2,10,3,3,-3
1532062739483,0,-4,-1,-1,-1,-2,3,3
1532062739488,-2,-2,1,5,1,1,1,1
1532062739493,-2,-2,0,-1,-3,-1,-6,-3
1532062739498,-2,-1,0,-5,0,1,2,0
1532062739503,-2,3,2,6,3,1,2,3
1532062739508,-1,-3,-2,-1,-5,-1,-1,-2
1532062739513,0,-3,-5,-4,4,-1,-2,3
1532062739518,-1,5,1,0,-7,0,-3,-3
1532062739523,1,-4,-3,-5,7,0,5,1
1532062739528,0,-1,-3,-3,-3,-4,-1,-1
1532062739533,-1,-1,1,1,-2,-1,5,-3
1532062739538,-1,-1,-3,-3,-1,-2,-12,0
1532062739543,0,1,-1,6,-1,2,5,0
1532062739548,-1,-1,-1,-9,-2,-1,4,4
1532062739553,-1,-2,-1,0,1,-1,-10,-10
1532062739558,-1,-3,-1,0,2,-1,2,-4
1532062739563,-2,0,1,1,-7,-2,-2,1
1532062739568,0,-2,2,2,5,2,0,2
1532062739573,-2,0,1,3,-3,0,2,1
1532062739578,0,-1,2,2,-1,0,12,-1
1532062739583,0,0,-2,-6,0,0,-11,-2
1532062739588,1,0,-3,0,-2,-1,1,2
1532062739593,0,-2,-3,-7,-1,-3,-3,-1
1532062739598,1,-3,-2,-2,-4,-3,-4,0
1532062739603,-1,2,2,8,-5,-2,10,1
1532062739608,-1,-1,-3,-8,-3,1,-6,-4
1532062739613,0,1,-1,-1,2,1,0,1
1532062739618,0,-4,-3,-4,0,0,10,1
1532062739623,0,0,1,-2,-4,-2,-23,3
1532062739628,-1,1,-2,0,-2,-2,-6,-5
1532062739633,0,-1,-2,-2,-4,-1,9,0
1532062739638,-2,-1,0,-2,-1,0,-18,-4
1532062739643,0,-2,-3,-3,0,2,10,2
1532062739648,0,-3,-2,-3,-2,-1,-1,0
1532062739653,-2,1,0,5,3,-1,-3,-2
1532062739658,1,1,0,3,1,0,7,2
1532062739663,1,-1,-1,-4,-2,-2,-10,-3
1532062739668,-2,1,3,7,1,-4,0,-2
1532062739673,-1,-6,-6,-16,-9,1,7,0
1532062739678,-3,-2,0,-1,5,-1,-2,-4
1532062739683,-3,1,-1,0,-1,-3,6,-2
1532062739688,2,2,7,7,3,0,-6,-3
1532062739693,-2,0,4,6,-4,-4,-10,-3
1532062739698,0,-2,-4,-3,-2,0,0,-2
1532062739703,-1,-4,-2,-4,1,-1,-1,-3
1532062739708,1,-1,0,7,-1,1,9,1
1532062739713,0,-1,-2,-4,2,-2,-5,0
1532062739718,0,-2,-1,0,-3,-1,-6,-1
1532062739723,0,0,-1,2,1,0,3,1
1532062739728,0,-1,-2,-3,2,1,7,1
1532062739733,-1,1,1,4,5,-1,-6,3
1532062739738,-1,1,2,-1,-1,-1,-2,-1
1532062739743,0,0,-1,-7,-6,-3,-3,0
1532062739748,-3,-3,-1,2,-5,-3,0,1
1532062739753,1,-2,-2,2,4,4,1,-2
1532062739758,-1,1,0,-1,4,-1,0,4
1532062739763,-3,-2,-1,-2,-2,0,10,4
1532062739768,0,-1,-3,-2,-1,-1,-15,-12
1532062739773,0,1,1,1,2,-3,1,-3
1532062739778,-1,-1,-1,-1,-7,-4,3,0
1532062739783,-1,-1,-2,3,4,1,3,1
1532062739788,0,-1,1,2,-2,1,5,3
1532062739793,-1,0,-3,-9,-3,-1,2,1
1532062739798,-4,-3,-3,-1,-3,-2,-4,-3
1532062739803,0,1,0,-2,2,-2,-1,-6
1532062739808,1,0,-2,-2,2,0,17,13
1532062739813,0,-1,2,3,-4,-2,-15,-13
1532062739818,-1,-1,2,3,1,-1,2,4
1532062739823,-2,-3,-4,-5,-7,-3,-3,-5
1532062739828,-2,-1,0,-1,4,1,2,1
1532062739833,-1,0,0,0,1,0,2,5
1532062739838,-1,-1,-3,-1,0,1,2,-1
1532062739843,-2,-3,-1,-2,-3,-3,-3,-3
1532062739848,-1,1,-1,-2,-3,-2,0,-3
1532062739853,-3,-1,0,0,-6,-3,1,0
1532062739858,-1,0,-2,-8,-7,-1,-15,-4
1532062739863,1,0,2,4,2,2,0,0
1532062739868,-1,-2,-2,-7,0,0,-8,-1
1532062739873,0,0,-1,0,-3,-2,6,1
1532062739878,1,0,-6,-5,-4,-1,-9,3
1532062739883,2,-1,-1,5,9,3,-2,1
1532062739888,0,-1,-1,-1,-6,0,0,-4
1532062739893,-1,1,1,3,7,0,2,2
1532062739898,0,0,1,8,2,-1,4,1
1532062739903,0,-2,0,3,-7,-1,1,-1
1532062739908,-2,-5,-3,-13,1,3,-8,-4
1532062739913,1,-2,-1,-5,-1,0,-1,4
1532062739918,-2,1,1,-1,1,0,3,-3
1532062739923,-1,1,3,5,4,1,0,-4
1532062739928,-1,0,0,2,0,-2,11,0
1532062739933,-2,-2,-5,-17,-5,-4,-18,-3
1532062739938,0,-2,-1,-5,-2,0,4,0
1532062739943,1,-2,-3,-3,1,0,1,-1
1532062739948,1,2,2,7,-1,-1,2,2
1532062739953,-1,-1,-1,7,0,0,8,1
1532062739958,-2,-2,1,3,-3,-3,-15,-6
1532062739963,-2,1,2,-3,1,1,0,4
1532062739968,-2,-3,-5,-8,-8,-3,-8,-4
1532062739973,0,1,1,11,9,-1,5,-1
1532062739978,-1,-2,-2,-2,4,1,6,2
1532062739983,-3,-1,1,3,-4,-2,-1,-4
1532062739988,0,0,-2,-3,5,1,-2,-3
1532062739993,0,-4,-4,-18,-5,0,0,2
1532062739998,-2,-1,3,13,-3,-3,3,-2
1532062740003,-1,-1,-4,-7,-2,-3,-6,-2
1532062740008,1,0,5,11,1,-2,-1,1
1532062740013,1,3,5,11,-1,1,0,-1
1532062740018,-2,-5,-8,-25,0,-2,-1,-5
1532062740023,-1,0,1,-1,-3,-3,1,-1
1532062740028,-2,-2,-3,2,-4,0,-3,-1
1532062740033,-1,1,2,20,8,3,0,0
1532062740038,-1,-3,-2,-16,-7,-2,-2,-3
1532062740043,-1,-1,-2,-1,-4,-3,0,0
1532062740048,-3,-1,0,-1,-3,-1,-3,-2
1532062740053,-2,-2,-5,-9,-5,-1,-1,0
1532062740058,-2,0,2,13,4,-1,1,0
1532062740063,0,-3,-9,-3,-2,1,0,0
1532062740068,0,-1,2,4,-3,-3,-4,-3
1532062740073,1,-1,-2,-7,-3,-1,0,-1
1532062740078,0,0,1,0,3,1,2,0
1532062740083,0,0,-1,-7,-1,-2,-2,-1
1532062740088,-1,-1,-3,-5,4,-2,-4,-2
1532062740093,-1,0,-1,16,-8,-1,-1,-1
1532062740098,0,-1,3,-15,6,0,3,0
1532062740103,1,1,0,2,1,0,3,-4
1532062740108,-2,-3,-4,-10,-3,-5,-13,2
1532062740113,-1,-1,0,-4,0,0,2,-2
1532062740118,1,2,2,13,0,0,2,1
1532062740123,-3,-5,-4,-10,-6,0,-2,-2
1532062740128,0,-1,-1,-6,2,-3,1,-2
1532062740133,-2,-2,-1,2,-3,-2,-4,3
1532062740138,0,0,4,14,-1,0,-3,0
1532062740143,-1,1,-3,-7,3,0,-1,0
1532062740148,-3,-5,-7,1,-4,1,0,-1
1532062740153,-3,0,1,2,2,-1,-2,0
1532062740158,0,0,-4,-3,1,3,1,-1
1532062740163,1,-1,3,5,2,1,-2,1
1532062740168,-1,0,1,-3,-2,-1,0,0
1532062740173,0,-1,2,-1,0,0,2,-1
1532062740178,-2,-3,-6,-11,-5,-4,-3,-3
1532062740183,1,-1,1,-1,-2,-1,0,-1
1532062740188,0,0,2,8,5,-1,0,-1
1532062740193,0,-1,0,1,-6,0,2,1
1532062740198,1,2,1,3,4,-1,0,-2
1532062740203,-2,0,-1,0,2,-1,-3,0
1532062740208,0,0,1,2,-3,0,-1,-2
1532062740213,0,1,-1,-9,3,-2,-2,-3
1532062740218,-1,-1,1,3,-6,-3,-3,-2
1532062740223,-3,-2,-2,-3,-3,-2,3,2
1532062740228,-2,-1,0,-2,3,0,8,1
1532062740233,-4,-2,1,-4,0,0,-8,-2
1532062740238,-3,-4,-5,-8,-2,0,0,-1
1532062740243,-1,-3,-1,-3,-1,-2,-4,-2
1532062740248,-1,0,0,0,-9,-2,2,-1
1532062740253,1,2,3,4,9,1,1,-1
1532062740258,4,0,0,-2,6,3,-1,0
1532062740263,0,-1,0,7,-2,-2,2,1
1532062740268,0,-1,-1,-11,-2,-1,-4,-2
1532062740273,-1,-1,-3,-5,-5,-3,-2,-2
1532062740278,-1,-1,1,5,-2,-1,0,1
1532062740283,0,2,2,7,1,1,-1,-2
1532062740288,-1,0,-2,-3,-1,1,-3,-1
1532062740293,-1,1,0,3,1,0,0,-1
1532062740298,1,-1,-1,-7,-1,-1,1,-3
1532062740303,1,0,-1,17,0,0,-1,-1
1532062740308,2,-1,-1,-5,-2,1,0,-1
1532062740313,3,-2,-3,-6,-1,-1,1,0
1532062740318,1,-1,0,7,-1,0,-5,-2
1532062740323,2,0,2,-4,0,0,3,2
1532062740328,1,0,-3,-7,1,0,-4,-1
1532062740333,0,-1,-2,-2,-1,-4,-3,-4
1532062740338,1,-1,-1,3,-4,-2,3,2
1532062740343,-1,-1,0,1,0,3,0,-1
1532062740348,-3,-1,-4,-3,2,-1,-1,0
1532062740353,-3,-3,-2,-3,-2,0,0,-1
1532062740358,-4,0,-3,-6,-4,-3,5,-2
1532062740363,-3,-1,-1,-5,-3,-1,-10,0
1532062740368,-3,-1,0,7,3,-1,2,2
1532062740373,0,-1,-2,0,-5,-2,-1,-1
1532062740378,-1,-1,-2,2,-3,-1,-3,-3
1532062740383,-1,-1,-1,-10,-5,-2,1,0
1532062740388,-1,0,1,-4,0,0,-1,-1
1532062740393,-2,0,0,-2,0,0,-2,0
1532062740398,0,-2,1,2,-1,0,3,0
1532062740403,1,-1,4,8,1,-2,-3,0
1532062740408,-1,-1,-9,-10,-2,-1,-1,-2
1532062740413,-1,0,-1,-6,-3,-1,1,-2
1532062740418,-1,1,1,0,-3,1,-1,-1
1532062740423,-1,-2,0,-1,-1,-3,-2,-2
1532062740428,0,-1,2,8,0,-2,1,1
1532062740433,0,-1,-1,5,4,2,2,0
1532062740438,-3,0,-1,-6,-2,-1,-3,0
1532062740443,-1,0,1,-1,2,3,2,-3
1532062740448,0,0,2,0,3,0,-3,0
1532062740453,-1,-2,-4,-5,-7,-2,-1,1
1532062740458,0,0,3,5,3,0,1,-2
1532062740463,-2,0,-1,-2,1,0,-7,0
1532062740468,0,0,3,8,-2,-1,-6,0
1532062740473,0,-2,-7,-19,-5,-2,1,-1
1532062740478,0,0,1,2,3,3,-3,-2
1532062740483,1,1,-2,-3,-3,-4,5,-2
1532062740488,1,-1,2,4,-2,-1,-1,-1
1532062740493,0,0,2,1,-1,-1,-5,-1
1532062740498,-2,-2,-2,-3,-11,-1,2,0
1532062740503,0,-2,-1,2,12,2,1,-2
1532062740508,-2,-2,1,-3,1,0,0,-1
1532062740513,-1,-1,1,7,0,-3,1,0
1532062740518,-2,0,-1,-3,1,-2,-3,0
1532062740523,0,1,2,1,-6,-3,-1,-1
1532062740528,-4,-3,-8,-7,0,-1,-1,-2
1532062740533,-2,0,-1,-4,2,1,0,0
1532062740538,-2,-2,-2,6,2,-1,-1,-2
1532062740543,2,1,3,6,2,1,2,0
1532062740548,1,-1,0,0,0,-1,0,0
1532062740553,0,0,-1,-1,-2,-4,-6,-4
1532062740558,-2,-3,-7,-10,-9,-3,5,-2
1532062740563,1,0,1,6,8,4,-9,0
1532062740568,0,-1,-1,-1,3,-3,5,0
1532062740573,-3,-2,-3,-6,-4,-3,-4,-2
1532062740578,-1,1,2,5,4,0,-1,0
1532062740583,-2,-2,-2,2,-6,-2,1,-1
1532062740588,-1,-1,-1,-4,-2,-2,-1,-1
1532062740593,0,-1,-3,1,-3,-1,0,0
1532062740598,3,2,2,3,0,0,1,-2
1532062740603,1,-2,1,1,1,0,3,-2
1532062740608,-2,-3,-1,-7,-2,-2,-5,-1
1532062740613,1,-1,-2,-2,-5,-2,-4,-2
1532062740618,-1,2,0,0,0,0,3,5
1532062740623,-2,-5,-7,-12,-3,-1,-3,-2
1532062740628,-1,0,5,5,-4,-1,-1,-3
1532062740633,0,0,-1,0,2,1,2,3
1532062740638,-2,0,1,2,2,0,-2,0
1532062740643,-1,1,0,1,-1,-2,-2,-2
1532062740648,-2,-1,-1,-1,-1,-2,-3,1
1532062740653,-2,0,0,-6,-2,1,7,-1
1532062740658,-1,0,1,4,0,-3,-19,-4
1532062740663,-2,-2,-3,0,-7,-2,3,-1
1532062740668,0,1,5,10,5,2,-3,1
1532062740673,-4,-5,-12,-21,-6,-2,5,-2
1532062740678,-1,0,2,10,1,0,1,-1
1532062740683,-1,0,-4,-13,-1,-2,-2,1
1532062740688,0,0,0,0,-2,-2,4,1
1532062740693,0,1,4,7,-1,0,-1,-2
1532062740698,-1,-1,-2,-4,1,-1,1,0
1532062740703,-2,0,-1,3,-2,0,-1,-2
1532062740708,0,2,-3,-5,0,0,2,1
1532062740713,-2,0,1,3,1,0,0,2
1532062740718,-2,-3,-3,-3,-3,-1,0,-3
1532062740723,0,2,5,5,0,0,3,-1
1532062740728,0,-1,-2,-4,-1,1,-2,-2
1532062740733,1,-1,0,3,-1,0,5,0
1532062740738,-1,-2,0,-3,-2,-1,-9,-1
1532062740743,1,-1,-1,-6,0,-2,-9,0
1532062740748,-2,-2,1,3,-5,-2,0,0
1532062740753,-1,1,-1,1,7,-1,-2,-3
1532062740758,0,-1,1,-2,0,2,6,3
1532062740763,-1,-1,0,3,-2,-3,1,0
1532062740768,-1,-2,-2,-7,-4,-2,-7,-2
1532062740773,-1,0,2,8,-1,-2,-1,0
1532062740778,0,0,-3,-4,1,0,2,-4
1532062740783,0,-2,-1,2,0,-1,-3,-1
1532062740788,0,-1,1,2,1,1,0,0
1532062740793,-1,-1,0,3,-1,-3,-5,-2
1532062740798,-1,-2,-4,-11,-5,-5,-3,0
1532062740803,0,0,1,1,-1,0,2,-1
1532062740808,0,0,0,3,3,2,-1,-1
1532062740813,1,-2,-1,-4,-2,-1,0,0
1532062740818,-2,0,1,9,3,1,1,0
1532062740823,0,-1,-1,-5,2,-1,2,1
1532062740828,-3,-1,-4,-5,-5,-4,-8,-1
1532062740833,-1,1,0,2,6,0,2,1
1532062740838,-2,-2,-1,-4,-7,-3,-2,1
1532062740843,0,0,1,2,6,1,0,0
1532062740848,1,-1,-3,3,1,0,0,-1
1532062740853,0,-3,0,-2,-2,0,-4,-1
1532062740858,1,-1,0,2,-3,0,2,-3
1532062740863,-2,-1,-3,-4,-3,0,0,0
1532062740868,-1,1,-1,-1,0,0,-3,1
1532062740873,-1,-2,-2,0,3,-1,-3,-2
1532062740878,1,0,0,1,1,2,4,-1
1532062740883,-2,-1,2,8,-4,-2,-4,-3
1532062740888,0,-5,-5,-17,-3,-1,4,1
1532062740893,0,0,1,2,-1,2,-1,1
1532062740898,2,0,0,-2,0,0,-5,0
1532062740903,-1,-2,-2,3,-5,-2,19,1
1532062740908,-1,1,3,7,4,-1,-21,-3
1532062740913,-1,-1,-4,-7,1,-1,0,-1
1532062740918,-1,-2,-1,-2,-5,-2,0,1
1532062740923,0,-2,0,0,7,1,-1,-1
1532062740928,1,1,1,1,1,1,8,-1
1532062740933,-1,-1,2,4,-2,-1,-4,-1
1532062740938,0,0,-2,-1,0,-3,-2,-3
1532062740943,-2,-1,-3,-6,-3,-1,-4,1
1532062740948,-1,-1,0,3,-1,0,1,-2
1532062740953,0,-1,-1,0,2,0,-4,-3
1532062740958,-2,1,2,2,4,0,5,3
1532062740963,0,1,2,0,-3,-2,-5,-2
1532062740968,-2,-2,-5,-12,-2,-2,7,-2
1532062740973,-1,-1,-4,-9,-6,-2,-10,-2
1532062740978,1,0,-2,0,4,-1,7,2
1532062740983,0,0,1,-1,-1,1,-7,-1
1532062740988,0,-1,0,0,1,-1,3,-1
1532062740993,-2,-3,-3,-5,-5,-3,7,2
1532062740998,-2,-2,0,-4,-5,-1,-10,-2
1532062741003,-1,2,1,1,4,4,1,-1
1532062741008,1,-1,1,3,-1,-2,-1,-2
1532062741013,-2,-1,1,3,-4,-1,0,-3
1532062741018,-1,-1,-2,-9,-2,0,2,-1
1532062741023,0,-3,-5,-3,-1,-2,-2,-2
1532062741028,-2,-2,-2,1,-4,-3,-3,-1
1532062741033,0,0,-1,-3,3,-2,-3,-2
1532062741038,-1,-1,1,9,2,0,0,-1
1532062741043,-2,-2,-3,-11,-4,-1,-2,1
1532062741048,-1,0,0,0,1,0,0,-1
1532062741053,0,-2,2,8,-1,0,1,-1
1532062741058,-2,-2,-3,-3,-1,-3,-1,-2
1532062741063,0,1,3,8,3,1,-2,-2
1532062741068,0,-3,-9,-7,-5,-3,-2,-2
1532062741073,0,-1,0,-9,-1,0,0,0
1532062741078,3,0,1,3,2,-1,-2,-1
1532062741083,1,0,-1,1,-3,-1,-1,1
1532062741088,-2,-1,3,4,0,-1,-4,0
1532062741093,-2,0,-1,0,3,0,3,1
1532062741098,-1,-2,-1,-3,-1,-1,-2,-2
1532062741103,1,-1,1,-4,-5,-4,-2,0
1532062741108,-3,0,-1,4,6,2,-1,-1
1532062741113,-2,0,-3,-1,-2,-2,-2,-1
1532062741118,-2,0,2,5,3,0,0,-1
1532062741123,-3,-1,-3,-9,-4,-3,-2,-1
1532062741128,-1,-1,2,2,-7,0,-1,-1
1532062741133,-1,-1,-1,-4,-1,-1,-1,1
1532062741138,-1,0,0,-1,-3,-1,-4,-1
1532062741143,-1,-1,-1,4,2,2,1,-1
1532062741148,-2,-1,-3,-5,-2,-2,1,-1
1532062741153,-1,0,-1,-2,2,0,-1,0
1532062741158,-1,-1,3,7,-2,-1,3,0
1532062741163,-1,-1,-4,-8,-4,-1,-2,-2
1532062741168,1,-1,1,2,0,-2,1,3
1532062741173,1,1,2,3,-2,-1,-2,-2
1532062741178,-2,-2,-2,-4,-2,2,0,-1
1532062741183,-1,0,1,6,2,-1,-1,-2
1532062741188,-1,-1,-1,-5,0,-1,1,0
1532062741193,1,-2,-2,-4,0,-2,-3,-2
1532062741198,1,-1,-2,-2,-3,-4,-7,-1
1532062741203,0,-1,0,0,-2,-1,3,1
1532062741208,0,1,-1,-2,-2,2,1,-1
1532062741213,-2,-1,0,5,3,-1,1,0
1532062741218,-1,-2,-2,-4,0,-1,-1,0
1532062741223,-1,0,0,5,0,-1,-4,-2
1532062741228,1,-1,0,0,0,0,2,2
1532062741233,0,-1,-2,-6,-5,-2,-1,0
1532062741238,-1,0,-1,0,0,0,1,0
1532062741243,0,0,1,-1,-1,-1,-1,-2
1532062741248,-1,-2,0,0,-1,-2,0,-1
1532062741253,1,0,4,10,1,0,0,-2
1532062741258,-2,-3,-10,-23,-4,0,1,2
1532062741263,0,-2,3,4,1,0,-1,0
1532062741268,-1,-1,1,1,-2,-2,-2,0
1532062741273,-1,0,-1,4,0,-2,0,-2
1532062741278,-1,-4,-2,-4,-1,-1,1,-1
1532062741283,0,0,0,-2,1,-1,0,-2
1532062741288,-1,-3,-2,-6,0,-1,-6,-2
1532062741293,-3,0,1,2,-13,1,3,2
1532062741298,-1,1,2,5,8,3,0,-3
1532062741303,-1,-1,-3,-10,-2,-2,-6,-1
1532062741308,-2,-1,0,4,1,-3,-1,-3
1532062741313,-1,0,0,2,3,1,-1,2
1532062741318,0,1,1,4,-5,-1,-1,-3
1532062741323,0,-4,-6,-13,-3,-1,10,2
1532062741328,-2,-1,-2,-6,-2,-3,-16,-2
1532062741333,-1,-1,-2,1,4,1,0,2
1532062741338,-1,1,3,6,1,1,3,-2
1532062741343,0,-1,1,6,2,0,-1,0
1532062741348,-2,-1,-4,-7,-3,-2,3,-2
1532062741353,0,-1,-1,-1,2,-1,-3,-2
1532062741358,-1,-2,-1,-1,-3,0,4,1
1532062741363,0,0,-1,2,-3,-1,-7,-2
1532062741368,1,0,1,0,2,2,2,3
1532062741373,0,-1,-1,-2,1,-1,-1,-1
1532062741378,-1,-2,0,-2,-4,-6,-4,-1
1532062741383,1,0,1,3,-1,2,1,-1
1532062741388,-1,0,1,2,-4,3,5,-1
1532062741393,0,1,3,4,7,1,-2,-2
1532062741398,-2,-1,-7,-20,-3,-1,-1,1
1532062741403,-1,0,2,2,-3,-4,-3,-2
1532062741408,-2,0,0,2,-3,-2,2,0
1532062741413,0,1,0,-6,-1,0,5,-2
1532062741418,0,1,1,10,3,0,-5,-1
1532062741423,-2,-2,-4,-2,1,-2,-4,-1
1532062741428,-1,0,-3,-3,1,-2,0,-2
1532062741433,-1,-3,-2,0,-5,-3,-4,-1
1532062741438,1,-1,1,4,2,1,8,1
1532062741443,-2,-3,-3,-7,-4,-2,-12,-1
1532062741448,0,-2,1,4,2,2,1,-1
1532062741453,-2,0,0,1,4,1,2,-2
1532062741458,-1,-1,0,-1,-4,-2,-4,0
1532062741463,-1,0,-2,0,-1,0,7,1
1532062741468,1,-1,-1,-4,2,-1,-1,-1
1532062741473,-2,-1,-2,-4,-12,-1,-5,-2
1532062741478,-1,-1,0,5,10,1,4,0
1532062741483,1,-3,-2,-6,4,3,1,-1
1532062741488,-1,-2,-3,-2,1,-3,1,-2
1532062741493,0,0,-1,-3,-1,-3,0,-2
1532062741498,0,0,2,5,-4,-2,-4,-2
1532062741503,-1,-3,-7,-9,-5,-2,1,-1
1532062741508,1,-1,2,1,3,0,-4,0
1532062741513,0,-4,-4,-6,0,-2,2,0
1532062741518,-1,1,0,4,-4,-3,0,0
1532062741523,0,2,1,2,1,-3,-3,1
1532062741528,0,-3,-3,-7,-5,-1,2,-1
1532062741533,-1,-2,0,2,1,0,-3,1
1532062741538,0,-2,-1,-2,-1,1,-2,0
1532062741543,-2,2,1,3,0,0,2,0
1532062741548,-1,0,0,3,-1,-1,-3,-2
1532062741553,0,-1,2,2,1,0,1,2
1532062741558,-1,-2,-4,-6,2,0,5,-2
1532062741563,-1,-2,2,4,-7,-2,-5,-3
1532062741568,1,0,1,6,9,1,1,0
1532062741573,-1,0,-5,-8,-2,-2,-3,0
1532062741578,-1,0,0,1,-1,-3,-1,-1
1532062741583,-2,0,-1,-1,1,0,0,-1
1532062741588,0,-1,-1,-1,-3,0,-2,-2
1532062741593,-1,-3,-1,-4,-1,-1,-1,-2
1532062741598,0,0,-2,-6,-5,0,-2,1
1532062741603,1,1,1,2,0,0,2,0
1532062741608,-1,0,2,5,-2,0,-1,-1
1532062741613,-2,0,-1,2,-2,-1,0,0
1532062741618,-1,-3,-4,-9,-3,-2,-4,-2
1532062741623,2,1,1,-1,2,0,2,1
1532062741628,-3,-2,0,0,-2,0,2,-1
1532062741633,-1,-1,0,-4,3,-1,0,-1
1532062741638,-1,1,2,4,1,-1,-4,-1
1532062741643,-3,-3,-2,-3,-10,-3,-2,-2
1532062741648,-1,1,2,4,12,1,1,2
1532062741653,-2,0,-5,-10,-4,-1,-1,-1
1532062741658,0,-2,1,4,1,-1,-3,-2
1532062741663,0,-1,3,6,2,1,1,-1
1532062741668,-2,-1,-4,-12,-6,-1,-2,-3
1532062741673,1,1,2,2,-1,-2,-2,-1
1532062741678,-1,0,-2,3,1,-1,1,0
1532062741683,-1,-1,-5,-5,2,1,0,0
1532062741688,-1,0,-1,1,-1,0,1,0
1532062741693,0,-1,0,6,1,-2,0,-3
1532062741698,0,0,1,1,-2,-2,-1,0
1532062741703,0,-2,-2,-6,-3,-2,0,-1
1532062741708,-1,-1,0,-3,-3,-4,-2,1
1532062741713,-1,0,0,1,3,3,2,-1
1532062741718,-2,-1,-1,-1,-3,-1,-2,-1
1532062741723,-1,-2,0,2,1,-1,-1,0
1532062741728,-1,1,0,-7,-2,-1,-1,-2
1532062741733,-1,-1,1,2,-6,-1,0,0
1532062741738,0,0,1,3,6,3,1,-1
1532062741743,0,0,-1,1,5,1,-2,1
1532062741748,0,-2,-1,0,-8,-3,0,0
1532062741753,-2,-2,-2,-5,-1,-2,-2,0
1532062741758,-1,-2,-2,-4,-3,-1,-3,-2
1532062741763,-1,2,1,5,-1,-3,0,-1
1532062741768,-1,-3,-6,-5,-5,0,0,-1
1532062741773,-1,-1,-3,-7,2,3,-1,-1
1532062741778,-1,-1,0,-1,-1,-2,0,-1
1532062741783,-1,2,3,4,-3,-2,-1,-1
1532062741788,0,0,-4,-6,1,-1,0,-1
1532062741793,1,-2,0,2,-2,-2,0,-1
1532062741798,0,-2,-2,-1,-1,-2,0,-1
1532062741803,0,0,-1,-1,-5,2,1,0
1532062741808,-1,0,1,12,9,1,1,-2
1532062741813,-1,-1,0,-7,-3,-2,-2,0
1532062741818,-1,0,1,4,-1,-3,-1,0
1532062741823,-1,-1,0,-4,0,-1,-1,-2
1532062741828,-1,-2,1,2,-5,-1,0,1
1532062741833,0,-2,1,10,3,2,0,-1
1532062741838,-2,-4,-10,-23,-7,-3,-2,-2
1532062741843,0,0,-1,3,2,-1,0,-1
1532062741848,1,0,-1,-3,3,2,0,-3
1532062741853,0,-1,-1,0,-5,-4,-2,-1
1532062741858,0,1,0,5,7,4,1,0
1532062741863,-2,-2,-3,-6,-3,-3,-1,-2
1532062741868,-2,0,0,0,-4,-2,-2,-1
1532062741873,-1,0,-2,1,2,2,1,-2
1532062741878,-1,-2,-2,-7,-1,0,-1,-2
1532062741883,-4,-3,-2,-3,-1,-2,-1,-2
1532062741888,-1,-2,2,3,-10,-2,-1,-2
1532062741893,-1,0,0,-1,2,0,0,1
1532062741898,-1,0,1,1,-1,0,1,0
1532062741903,1,0,1,5,4,1,-1,-1
1532062741908,-3,-2,-7,-14,-6,-1,-4,-1
1532062741913,0,-1,-1,-2,-4,-3,-2,1
1532062741918,-1,1,-1,-3,2,1,0,-2
1532062741923,0,-1,-1,-2,-1,0,0,-1
1532062741928,0,-1,0,0,-3,-2,0,1
1532062741933,-1,-3,-2,-1,-1,-2,-2,-1
1532062741938,0,1,3,4,0,-1,0,-2
1532062741943,-2,0,0,1,-3,-3,-3,-2
1532062741948,0,-2,-1,-6,0,2,-1,1
1532062741953,-1,-1,0,-3,4,1,2,-2
1532062741958,0,-2,0,1,-9,-1,-2,1
1532062741963,-1,-3,-3,1,5,1,-1,-1
1532062741968,0,0,0,1,0,-3,-3,-1
1532062741973,-1,1,4,5,-2,0,-2,-1
1532062741978,-1,0,-1,-1,0,0,-1,0
1532062741983,-1,-2,-2,-4,-1,-1,-2,-1
1532062741988,0,1,3,6,4,0,-1,-2
1532062741993,-1,0,-2,-3,-1,-1,0,0
1532062741998,-2,1,3,6,-3,-3,-2,-1
1532062742003,-1,-1,0,-1,-1,0,0,2
1532062742008,0,-3,-3,-7,0,-2,-2,0
1532062742013,-1,-1,-1,3,-5,-3,-3,-2
1532062742018,1,-2,-3,-4,3,2,1,-1
1532062742023,0,0,0,-2,0,1,0,-1
1532062742028,0,2,1,3,1,-1,0,-1
1532062742033,-2,1,-1,-3,-1,-2,-2,0
1532062742038,-1,-3,-2,3,0,-1,-1,0
1532062742043,-1,1,1,0,-1,-2,0,1
1532062742048,0,-1,-2,0,-6,-2,-1,0
1532062742053,0,-2,-2,-1,1,1,-1,0
1532062742058,0,-1,-1,3,-3,-1,1,-1
1532062742063,0,-1,-2,-7,-2,0,-1,-1
1532062742068,-1,0,0,7,1,0,-2,-2
1532062742073,-1,-1,-2,-7,-3,-2,-2,0
1532062742078,-2,-3,-1,1,1,-2,-1,-1
1532062742083,1,0,0,-4,-3,-1,-3,-1
1532062742088,-2,0,-2,0,1,-1,1,0
1532062742093,-2,-2,-1,0,1,0,1,-2
1532062742098,-1,-2,-4,-11,2,-1,-2,-3
1532062742103,1,-1,-2,1,-2,-3,-2,0
1532062742108,-1,0,1,0,1,1,-2,-1
1532062742113,0,1,0,-1,1,-1,-2,0
1532062742118,-1,2,3,5,-8,-1,0,-1
1532062742123,-1,1,-1,-2,9,0,-2,-1
1532062742128,0,-4,-6,-13,-6,-5,-2,-3
1532062742133,0,-1,2,3,0,0,0,0
1532062742138,-1,1,-1,2,-4,-1,0,-1
1532062742143,0,1,-1,3,2,2,0,-1
1532062742148,-2,-2,-1,-1,1,1,-1,-1
1532062742153,-2,-1,-1,-4,-1,-4,-2,-2
1532062742158,-1,-2,-5,-10,-3,-3,-3,1
1532062742163,-2,0,0,2,-4,-1,1,-1
1532062742168,0,0,2,2,4,2,2,-1
1532062742173,0,0,2,3,1,-1,0,-1
1532062742178,0,0,-1,-1,-1,-4,-4,0
1532062742183,-1,-2,-3,-1,-3,-1,-2,-1
1532062742188,-2,-1,-3,0,3,1,-1,0
1532062742193,-1,-2,-1,1,-4,-1,0,-2
1532062742198,-1,1,2,5,-3,-1,0,1
1532062742203,-1,0,-1,-3,6,-1,-1,-1
1532062742208,1,2,1,2,-2,-1,0,1
1532062742213,0,-1,-1,-1,-3,-2,-1,0
1532062742218,1,-1,0,2,4,1,0,-1
1532062742223,-1,-3,0,-4,-6,-1,0,-1
1532062742228,1,1,0,1,1,1,-1,1
1532062742233,-1,0,0,-1,0,0,0,-1
1532062742238,-1,4,-1,-3,0,-1,-2,-2
1532062742243,0,-4,-1,1,0,1,0,-1
1532062742248,-2,-9,-7,1,-2,-1,-1,-1
1532062742253,0,-2,1,-17,-7,-2,-2,-1
1532062742258,1,-2,0,1,1,1,-5,-3
1532062742263,0,4,3,13,4,0,5,2
1532062742268,-1,4,3,-3,-7,-4,-2,-2
1532062742273,0,-2,-2,8,-1,0,0,-3
1532062742278,0,-1,2,-2,3,2,1,2
1532062742283,0,7,-3,-8,-4,-3,-4,-1
1532062742288,-1,1,1,-2,0,1,-1,0
1532062742293,-2,-10,-2,1,1,0,0,-1
1532062742298,1,-3,-1,8,-1,-1,-1,-1
1532062742303,-1,-5,1,-12,-7,0,-6,-4
1532062742308,0,5,2,-10,3,0,10,6
1532062742313,0,4,-2,-3,-4,-1,-6,-4
1532062742318,-2,-1,3,6,7,-1,4,3
1532062742323,-2,-4,-2,7,-1,-2,-2,-2
1532062742328,0,3,3,3,-3,1,3,1
1532062742333,0,4,2,-2,3,-2,-6,-3
1532062742338,-1,-4,-2,-11,-3,-1,-5,0
1532062742343,-3,-3,-3,-3,-4,-2,-1,-2
1532062742348,-1,-1,0,-2,0,0,-1,-3
1532062742353,1,0,0,-4,2,2,3,3
1532062742358,0,1,-3,12,4,1,0,-2
1532062742363,0,0,2,-8,-5,-4,0,1
1532062742368,-1,-3,-5,-4,-3,-2,-6,-2
1532062742373,-1,0,-5,-16,-1,-3,4,-2
1532062742378,0,-1,-3,0,-5,-2,0,-4
1532062742383,-2,1,4,21,3,1,-1,3
1532062742388,0,0,2,14,1,-1,-3,0
1532062742393,-1,0,-1,-7,-4,-1,7,1
1532062742398,0,0,1,-28,-5,2,-11,-5
1532062742403,0,-2,-1,13,0,0,8,2
1532062742408,0,-3,0,-5,-1,-1,-4,-3
1532062742413,2,0,2,8,4,1,8,0
1532062742418,0,-1,-2,-7,-7,-5,-9,-2
1532062742423,0,0,-1,-5,-1,-1,0,-2
1532062742428,1,0,0,3,-1,-1,-4,-9
1532062742433,-1,-3,-3,3,-3,1,-1,13
1532062742438,0,1,0,2,3,0,2,-3
1532062742443,1,-1,-3,-9,-3,0,-1,-3
1532062742448,-2,-1,2,8,6,-2,-2,-1
1532062742453,0,-2,-6,-24,-16,-6,7,37
1532062742458,-9,-5,-5,7,-1,-3,-17,-44
1532062742463,12,2,-1,-22,3,3,5,29
1532062742468,-26,-3,0,20,-4,-2,-2,-37
1532062742473,-1,3,4,13,9,2,-4,2
1532062742478,-2,0,2,0,-5,-3,5,5
1532062742483,-4,-2,-1,1,-5,-3,-3,3
1532062742488,7,0,3,-1,2,1,-1,-3
1532062742493,1,-1,-2,-1,-1,0,0,0
1532062742498,1,-2,3,21,4,-1,3,10
1532062742503,0,-1,1,11,4,1,0,-15
1532062742508,5,-2,-2,-26,-6,-2,0,20
1532062742513,-4,-1,-3,5,-1,-3,-9,-16
1532062742518,-1,-4,-2,-18,-7,0,6,12
1532062742523,-4,-1,1,12,-1,-2,-4,-14
1532062742528,1,2,2,7,1,1,3,5
1532062742533,-7,-5,-5,-12,3,-2,-11,-8
1532062742538,0,6,5,13,1,2,6,-2
1532062742543,-2,-9,-8,-8,-5,-2,1,2
1532062742548,-4,0,0,-15,-2,-3,-10,0
1532062742553,7,3,9,30,4,2,12,-17
1532062742558,0,-2,-5,-5,0,1,0,42
1532062742563,-5,-3,-2,11,-2,-5,-29,-32
1532062742568,4,1,-1,8,2,0,11,-2
1532062742573,-1,2,5,-6,4,1,-3,-11
1532062742578,7,2,-1,10,-1,1,5,3
1532062742583,-2,4,0,9,0,1,-4,10
1532062742588,-2,-3,2,-16,1,-2,0,5
1532062742593,-3,-4,-9,-26,-4,-3,-3,-5
1532062742598,-1,2,3,1,8,3,4,-1
1532062742603,7,4,-3,-4,-3,-1,7,-7
1532062742608,0,0,-1,2,-9,-2,-8,25
1532062742613,-4,-6,4,4,2,-1,-6,-5
1532062742618,2,-3,-1,-8,-10,-4,4,-6
1532062742623,-3,-4,-4,-10,5,5,8,0
1532062742628,0,-1,-2,8,4,0,-3,-5
1532062742633,-1,2,0,-2,-1,-3,7,-1
1532062742638,-1,5,0,-1,-1,-2,-5,5
1532062742643,-3,1,3,-7,-8,-3,-7,-10
1532062742648,-1,-5,-4,-6,-3,-2,-4,-5
1532062742653,-1,-3,1,36,12,5,8,-1
1532062742658,-3,-9,-15,-36,-7,-5,-7,-6
1532062742663,-1,2,1,-15,-13,-3,6,12
1532062742668,3,6,4,2,-1,1,7,-7
1532062742673,3,-1,0,0,0,-3,-12,8
1532062742678,-5,4,-2,9,-3,0,0,-22
1532062742683,-2,-5,4,8,-1,-2,-2,7
1532062742688,3,-9,-9,7,2,-1,6,24
1532062742693,-5,-4,4,-26,-4,-3,-8,-24
1532062742698,6,1,-4,36,2,4,3,11
1532062742703,-12,-1,-1,9,-1,-1,1,-20
1532062742708,2,4,3,18,13,3,-8,-12
1532062742713,3,4,-5,-6,-8,-5,0,8
1532062742718,1,-3,11,7,9,1,-3,-10
1532062742723,-3,-8,-12,-7,-1,-1,1,-2
1532062742728,1,2,0,-5,-2,-1,2,5
1532062742733,4,13,1,6,-3,-1,0,3
1532062742738,-3,-8,2,-8,-5,-3,-1,5
1532062742743,11,7,9,22,18,7,6,47
1532062742748,-11,-17,-21,-28,-17,-3,-1,-38
1532062742753,1,8,-8,-21,-10,1,-3,5
1532062742758,-1,9,0,-1,6,-3,1,-4
1532062742763,-3,-26,-1,12,4,-1,2,-2
1532062742768,-1,-6,-7,-8,-1,-1,-3,-1
1532062742773,0,-9,1,22,-2,1,-2,10
1532062742778,1,22,-3,-12,-7,1,-3,-5
1532062742783,3,17,12,4,5,1,1,-9
1532062742788,-3,-20,-8,7,-4,-4,-4,1
1532062742793,-2,1,0,15,9,5,4,-4
1532062742798,-2,-10,-3,4,-3,-4,-2,0
1532062742803,1,14,2,-3,-2,1,-2,1
1532062742808,-1,6,5,15,1,0,3,6
1532062742813,0,1,5,-14,-3,-3,-2,-1
1532062742818,-3,-13,-6,1,-2,0,-2,-2
1532062742823,-4,-13,-12,-18,-8,-6,-3,-8
1532062742828,2,8,6,-3,-2,0,1,2
1532062742833,-2,0,4,9,5,2,-3,-4
1532062742838,-2,1,-1,-24,-5,-3,2,1
1532062742843,-2,-1,2,-1,-3,-1,-9,-6
1532062742848,-1,-1,-4,-1,2,3,22,5
1532062742853,-3,-4,-4,11,-5,-7,-30,-1
1532062742858,-1,-1,0,6,4,1,5,1
1532062742863,1,-1,-5,1,-4,-1,1,-4
1532062742868,2,11,7,5,1,0,-3,2
1532062742873,-3,-6,-6,-2,-6,-3,1,-4
1532062742878,-1,1,13,47,15,0,1,2
1532062742883,7,0,-14,-87,-10,-2,1,-6
1532062742888,-17,-3,-6,-10,-9,-4,-16,-42
1532062742893,10,-3,-8,-6,-4,-4,9,39
1532062742898,-27,-27,1,7,1,0,-10,-1
1532062742903,-17,13,7,9,6,2,7,0
1532062742908,4,4,-3,-5,-1,0,1,-1
1532062742913,-1,12,6,-6,4,4,3,-12
1532062742918,8,-20,-6,-22,-4,-1,1,-3
1532062742923,4,19,5,29,5,-2,-1,4
1532062742928,-1,-24,-1,0,-4,-4,-1,10
1532062742933,-5,-9,-10,-16,-2,-3,-4,-9
1532062742938,7,15,6,4,2,2,3,7
1532062742943,-1,-5,-9,-35,-13,1,-1,-7
1532062742948,6,22,8,15,7,3,-1,6
1532062742953,3,-9,4,28,2,1,4,1
1532062742958,0,13,3,2,-3,-1,0,-6
1532062742963,-2,-25,-2,18,3,-2,1,2
1532062742968,0,-10,-6,-29,-1,2,-2,1
1532062742973,-8,-9,-6,1,-4,-3,9,-9
1532062742978,1,4,-3,5,0,1,-7,0
1532062742983,3,13,3,2,-7,-4,-6,-1
1532062742988,5,4,5,-13,1,-2,0,6
1532062742993,-9,-15,-11,12,-2,-2,4,-6
1532062742998,2,-1,-1,12,1,-1,-8,-7
1532062743003,1,1,-5,-20,-4,-1,6,8
1532062743008,0,-4,1,-4,0,0,2,-6
1532062743013,0,12,2,-40,0,3,4,8
1532062743018,-3,-15,-12,19,2,-2,1,-5
1532062743023,-3,2,5,24,10,2,-6,-2
1532062743028,-3,-14,-12,-9,-11,-4,-3,5
1532062743033,4,20,10,8,3,-3,-4,-6
1532062743038,1,2,1,-18,0,1,5,-10
1532062743043,-2,-4,-5,-16,-3,-2,-3,18
1532062743048,2,12,4,7,0,1,-1,1
1532062743053,0,-5,-2,3,-3,-1,-3,-5
1532062743058,3,11,2,-12,-1,1,-1,-3
1532062743063,2,4,2,12,4,-2,2,-5
1532062743068,3,4,2,19,3,-1,-3,4
1532062743073,-8,-19,-2,-24,-9,-2,-4,-7
1532062743078,-9,-24,-11,-18,-3,1,2,4
1532062743083,1,1,3,15,2,-2,1,-4
1532062743088,2,17,1,0,-1,-2,-5,6
1532062743093,1,-6,3,13,9,1,-2,-4
1532062743098,4,6,-4,-2,-14,-3,18,-25
1532062743103,-10,-14,-5,-1,-8,-7,-22,20
1532062743108,1,3,2,7,0,0,-1,-8
1532062743113,2,7,2,2,-3,1,4,5
1532062743118,0,-1,3,-9,2,-1,0,-8
1532062743123,-1,-6,-3,2,1,-1,0,-8
1532062743128,-1,-3,1,-1,-9,-4,1,1
1532062743133,-1,19,-1,9,0,1,-3,-3
1532062743138,-2,-23,-3,-9,-3,-1,-5,11
1532062743143,-2,-3,-7,6,2,0,2,-8
1532062743148,-4,-8,-1,-10,1,-2,-4,5
1532062743153,1,1,2,-8,-1,-1,0,-6
1532062743158,0,12,4,-3,-7,-2,-5,8
1532062743163,1,0,-2,-11,3,2,3,-5
1532062743168,-1,-6,0,-9,8,2,3,-4
1532062743173,-2,-4,-4,-3,-10,-2,-1,2
1532062743178,-1,7,1,-5,-2,-4,-4,7
1532062743183,0,-4,3,7,1,1,2,-6
1532062743188,0,3,4,7,1,-1,-2,1
1532062743193,-2,-1,-3,-3,0,-2,-3,1
1532062743198,-1,-6,-3,-8,3,-2,-4,3
1532062743203,1,0,0,1,1,3,4,-6
1532062743208,0,1,-2,15,2,0,-1,2
1532062743213,1,-3,1,-11,-5,0,-1,-5
1532062743218,2,5,5,-7,2,2,0,12
1532062743223,-1,3,-2,-2,-4,-4,0,-5
1532062743228,-1,4,4,2,-3,-3,0,0
1532062743233,-1,-18,-7,13,5,3,0,-4
1532062743238,-1,13,1,-2,6,4,-1,0
1532062743243,0,-19,-5,-1,-4,-1,-1,-3
1532062743248,-1,8,-4,-14,-6,-3,-3,-4
1532062743253,2,20,-1,-5,-5,-3,-2,5
1532062743258,1,0,1,5,-4,-4,1,-1
1532062743263,-3,-31,-5,0,3,0,1,0
1532062743268,-5,-8,-3,5,-7,0,-2,-3
1532062743273,1,11,4,-2,8,2,0,1
1532062743278,-1,13,0,2,-6,-6,-5,-7
1532062743283,2,9,5,13,1,1,3,-3
1532062743288,-5,-29,-6,-28,-9,3,2,0
1532062743293,0,1,1,9,6,2,0,0
1532062743298,4,12,9,10,3,2,-1,4
1532062743303,-3,5,-11,-26,-5,-6,-4,-4
1532062743308,1,1,2,7,2,-2,0,0
1532062743313,-1,-3,1,2,-3,-3,1,2
1532062743318,-1,-7,-7,-11,-4,-4,-2,-3
1532062743323,1,4,5,4,3,3,1,2
1532062743328,2,6,-1,18,5,0,-1,1
1532062743333,-1,-9,-5,-13,1,-1,-2,-3
1532062743338,-2,-5,-2,3,-8,-2,0,2
1532062743343,1,4,2,11,4,0,0,-2
1532062743348,-1,2,-4,-9,-1,1,2,-8
1532062743353,-2,-4,2,8,2,-2,-7,12
1532062743358,-2,-8,-6,-5,-5,-1,-1,-6
1532062743363,3,9,4,5,2,3,2,4
1532062743368,2,12,2,4,2,-1,3,-1
1532062743373,-3,-22,-10,-4,-7,-5,-2,-5
1532062743378,-3,-5,-2,-5,-1,0,-1,0
1532062743383,-3,8,1,-6,-5,-3,-4,-1
1532062743388,-1,-6,6,14,3,-1,-2,2
1532062743393,0,2,-7,-26,-11,0,2,-7
1532062743398,5,17,-2,-1,0,-3,-2,5
1532062743403,-4,-24,2,4,-7,-3,2,-2
1532062743408,-2,-3,-3,2,5,2,0,1
1532062743413,-5,0,-1,0,3,-1,-3,-3
1532062743418,-2,-4,0,18,2,0,1,-1
1532062743423,1,15,1,-7,-6,-2,-3,0
1532062743428,2,1,0,-1,-6,-2,-1,2
1532062743433,0,-4,0,-14,-1,1,0,-1
1532062743438,-1,-1,-5,-14,-3,-1,-2,-1
1532062743443,1,5,1,5,-1,0,-1,0
1532062743448,-2,-9,-1,-2,1,-3,-3,0
1532062743453,0,1,3,10,4,-3,-2,-2
1532062743458,-3,-2,2,-2,-13,3,1,1
1532062743463,0,0,-1,-3,1,0,-1,-1
1532062743468,-2,-4,-1,-8,-1,0,-1,0
1532062743473,2,7,1,8,2,-1,0,0
1532062743478,-3,-21,-3,-3,-4,-3,-2,-1
1532062743483,-2,-1,-2,0,4,1,-2,-2
1532062743488,-1,0,-4,-4,0,-1,1,-2
1532062743493,1,2,0,7,1,1,2,0
1532062743498,-3,-2,0,7,6,0,1,-1
1532062743503,3,2,-3,0,1,0,0,-1
1532062743508,-3,-2,-6,-14,-4,-3,-6,5
1532062743513,0,7,-1,4,-5,-1,0,-3
1532062743518,0,-7,2,6,1,-5,-3,-3
1532062743523,-3,-3,-6,-12,1,0,0,-2
1532062743528,-1,-2,1,2,-2,1,0,-2
1532062743533,0,-3,-3,-3,-2,1,0,2
1532062743538,2,4,-3,-3,4,2,-7,-1
1532062743543,0,-1,5,9,0,-2,4,-2
1532062743548,4,4,3,16,1,4,3,1
1532062743553,0,-3,4,-6,1,2,2,-2
1532062743558,-1,1,-4,-10,-6,-1,-2,-3
1532062743563,-5,-3,-3,-25,-12,-4,8,0
1532062743568,30,8,3,20,6,-1,-25,5
1532062743573,-15,-1,3,15,2,-2,1,0
1532062743578,2,2,-2,9,5,3,4,-3
1532062743583,-1,3,3,5,-1,-2,-5,0
1532062743588,-13,-2,1,3,0,-3,6,-2
1532062743593,9,-1,-2,5,-3,0,-2,1
1532062743598,2,1,4,10,3,-1,-3,4
1532062743603,-4,-3,-3,-8,-2,1,0,-2
1532062743608,5,-4,-3,-17,-1,0,1,-2
1532062743613,-1,-7,-4,-6,-5,-2,-4,-3
1532062743618,-3,-1,0,-5,2,2,3,1
1532062743623,-1,3,4,10,3,-1,-3,-6
1532062743628,-9,2,1,-10,-2,-1,1,-1
1532062743633,-2,-9,-1,20,1,-1,3,-1
1532062743638,-6,0,-3,3,0,1,-8,-1
1532062743643,3,-2,-4,-33,-6,-3,-4,3
1532062743648,-6,0,0,0,-5,-4,-2,-6
1532062743653,-5,-3,-6,-7,-3,-1,7,-3
1532062743658,8,1,0,6,3,-2,-2,1
1532062743663,2,-2,-4,13,7,3,2,2
1532062743668,-7,-2,-1,0,0,-1,2,-2
1532062743673,3,0,3,5,3,0,-4,1
1532062743678,-1,-2,2,-18,1,-2,1,-5
1532062743683,-1,-1,-1,5,-3,-1,-2,0
1532062743688,-6,-4,-3,-13,-4,0,4,-1
1532062743693,2,0,3,10,3,0,-6,0
1532062743698,0,2,2,-3,1,0,4,0
1532062743703,-1,-1,4,21,1,-1,0,0
1532062743708,2,-1,-4,-3,-1,0,0,-1
1532062743713,0,-1,2,-9,1,0,0,0
1532062743718,-5,-1,0,-9,-7,-2,0,-1
1532062743723,1,-1,-3,-2,2,1,-7,1
1532062743728,-1,-5,-5,-13,-4,-3,5,-2
1532062743733,-2,1,2,13,4,-2,-7,-2
1532062743738,-1,0,-2,-22,-4,-1,5,4
1532062743743,0,-2,-4,-2,0,0,-3,-4
1532062743748,-1,1,-1,-15,1,1,-1,-2
1532062743753,-2,1,0,5,-3,0,0,-2
1532062743758,1,0,3,9,6,0,3,-1
1532062743763,-2,1,1,7,2,-1,-4,-3
1532062743768,-2,-1,-1,3,-5,-2,5,1
1532062743773,0,1,2,-6,-3,0,1,-1
1532062743778,-2,0,2,15,1,-1,-3,-2
1532062743783,-1,-4,-8,-19,-7,-4,0,-1
1532062743788,-2,-2,-1,11,1,2,-3,-1
1532062743793,-1,-1,-3,-9,2,2,3,-2
1532062743798,-1,-1,-3,-1,-1,0,3,-1
1532062743803,0,2,5,9,-1,0,-9,0
1532062743808,0,0,2,0,0,-1,0,2
1532062743813,0,-3,-2,-10,-5,-2,0,0
1532062743818,-3,-4,-3,-3,-5,-2,-3,-1
1532062743823,0,-1,-4,16,4,1,7,-1
1532062743828,-3,-2,0,-23,-7,-3,-4,-4
1532062743833,0,-1,2,-6,-5,-1,-4,-1
1532062743838,-1,-3,-5,-19,2,-1,-1,-1
1532062743843,0,-1,2,-3,-4,-2,0,1
1532062743848,-1,0,1,24,5,-2,-1,-2
1532062743853,-2,-1,-2,1,2,0,1,0
1532062743858,1,0,2,18,-1,-1,0,-2
1532062743863,-1,-1,0,-11,-6,0,0,-3
1532062743868,-1,-1,0,-5,7,1,-8,2
1532062743873,0,1,2,8,-2,-3,5,0
1532062743878,1,1,0,-8,1,2,6,-2
1532062743883,-4,-1,0,1,0,-4,-21,-1
1532062743888,0,1,1,12,0,-2,8,2
1532062743893,-2,-1,-3,-20,-1,0,-3,-3
1532062743898,-3,-2,1,8,-2,-2,-1,-1
1532062743903,0,1,3,1,5,3,10,-1
1532062743908,0,-1,-2,-17,-9,-3,-5,-1
1532062743913,-2,0,0,5,3,-1,-6,-1
1532062743918,-2,-3,-5,-9,-6,-3,-1,0
1532062743923,-2,-1,2,-5,2,1,-1,0
1532062743928,-2,4,1,22,2,-1,1,2
1532062743933,-1,-4,-2,7,7,7,1,-2
1532062743938,0,-1,-2,-9,-3,-4,5,-1
1532062743943,-1,1,1,10,2,1,-14,0
1532062743948,-1,-4,-4,-24,-7,-1,-2,-5
1532062743953,0,4,3,4,-2,-2,0,4
1532062743958,-1,3,2,3,-1,0,1,0
1532062743963,0,-9,0,4,-2,0,3,-4
1532062743968,-3,-6,-3,11,1,0,-3,-3
1532062743973,-3,-4,-5,-17,-4,-3,-4,-1
1532062743978,-1,-1,-2,-4,1,-1,-9,-6
1532062743983,-3,4,1,-3,-7,-3,15,7
1532062743988,0,1,1,-3,0,1,-10,-10
1532062743993,0,0,1,22,2,1,3,0
1532062743998,-1,-2,-4,-15,-3,0,1,3
1532062744003,-1,-2,-3,-16,-2,-2,-8,-2
1532062744008,0,0,2,5,0,0,6,4
1532062744013,-2,-2,-8,6,-8,-4,-2,-1
1532062744018,1,2,1,-1,4,5,7,5
1532062744023,-2,-1,-5,-8,5,-1,-1,-2
1532062744028,0,0,1,8,-4,-1,2,0
1532062744033,0,2,-2,0,7,0,2,-2
1532062744038,-3,-4,-2,-14,-3,-1,-10,-3
1532062744043,-2,-4,-1,-4,-3,-1,11,0
1532062744048,-1,0,-1,-10,-1,-1,-4,-2
1532062744053,2,-1,-2,0,-5,-1,-8,2
1532062744058,0,3,2,-11,3,1,0,-1
1532062744063,-1,-7,-4,14,0,1,2,-1
1532062744068,-1,-4,-4,-29,-1,-4,10,8
1532062744073,-2,-1,1,-14,-8,-2,-12,-15
1532062744078,2,-1,4,10,3,2,1,-2
1532062744083,0,2,-1,26,1,-1,0,1
1532062744088,-2,-4,-7,-20,-10,-2,-2,-5
1532062744093,0,0,2,-3,-1,-1,12,5
1532062744098,-2,-2,-4,-10,-2,0,-5,-1
1532062744103,1,3,2,6,2,-3,9,-2
1532062744108,2,0,-1,4,-1,4,-11,2
1532062744113,1,0,1,-6,4,0,2,3
1532062744118,-2,-2,-2,9,-6,-2,-3,-4
1532062744123,-1,0,-3,-1,-5,-1,-5,2
1532062744128,-2,0,4,12,7,1,0,-3
1532062744133,0,0,-1,-14,-2,-1,3,0
1532062744138,-2,-3,1,1,-1,-2,-4,-3
1532062744143,-1,-3,-2,-10,-3,-5,-6,-3
1532062744148,-1,2,3,12,3,-1,-2,-3
1532062744153,-2,-2,-4,-5,-5,0,4,-1
1532062744158,0,-1,0,4,4,2,1,3
1532062744163,1,4,4,12,-1,0,0,-3
1532062744168,-5,-4,-7,-22,7,-1,4,-5
1532062744173,2,1,1,1,5,2,2,3
1532062744178,-2,-5,-7,-4,-9,-6,-23,-7
1532062744183,0,2,4,7,-2,-3,0,4
1532062744188,-1,4,2,20,0,0,-1,-10
1532062744193,-1,-10,-5,-12,-7,-3,1,-4
1532062744198,0,3,4,15,5,-1,-13,-3
1532062744203,0,1,-2,-28,0,1,0,-2
1532062744208,0,-1,-2,23,-3,-2,0,4
1532062744213,-2,5,4,2,3,0,-1,-1
1532062744218,-1,-2,-3,-5,-6,-3,0,-1
1532062744223,-1,-3,1,1,4,0,0,0
1532062744228,0,0,3,1,-8,0,4,4
1532062744233,-4,-5,-11,-24,-8,-1,2,-3
1532062744238,1,-1,0,1,2,0,1,3
1532062744243,0,-3,-7,-1,-3,-2,2,-1
1532062744248,1,1,4,11,4,0,-4,-2
1532062744253,0,0,3,3,-2,-1,-1,2
1532062744258,2,1,3,14,1,-1,22,5
1532062744263,-1,-1,-2,-27,-1,-1,-17,-17
1532062744268,0,-4,-7,-6,3,-3,-5,2
1532062744273,-1,-5,3,23,-6,-2,-9,-4
1532062744278,-1,-2,0,9,3,-3,2,-2
1532062744283,1,4,3,10,3,4,11,5
1532062744288,-1,-4,-5,-16,-8,-2,-8,0
1532062744293,0,1,-4,-9,0,0,-10,0
1532062744298,-2,1,-1,-19,-2,-2,4,3
1532062744303,0,1,1,-1,-4,-2,0,-2
1532062744308,1,-2,-4,4,0,2,0,-3
1532062744313,-3,-6,-4,-8,-1,-3,-3,2
1532062744318,0,2,5,9,-1,-1,-1,-5
1532062744323,0,-4,-6,-19,-5,2,6,11
1532062744328,-1,2,3,10,0,1,-1,-15
1532062744333,2,2,1,11,5,4,5,0
1532062744338,-1,1,-2,4,9,2,2,-1
1532062744343,-2,-2,-4,-15,-16,-3,-7,-5
1532062744348,5,5,5,2,9,-1,7,9
1532062744353,1,21,6,5,-3,-1,1,1
1532062744358,-6,-50,-8,-1,4,1,-5,-4
1532062744363,-2,-8,-8,6,3,-2,1,-1
1532062744368,-3,-2,-1,-10,-5,1,-2,1
