1532405562480,-13,-13,-1,0,3,-4,-5,-1
1532405562485,10,0,1,-2,-3,4,-9,0
1532405562490,-11,-1,-2,-3,-1,-16,-6,-17
1532405562495,10,2,1,-1,-4,-3,2,8
1532405562500,3,0,0,2,2,3,-6,0
1532405562505,-10,2,-1,-2,2,0,11,-2
1532405562510,10,-6,-3,-4,-6,-3,4,-3
1532405562515,-14,-5,-3,0,-1,-9,-22,-10
1532405562520,8,0,1,-1,0,2,21,15
1532405562525,-2,0,-1,-1,-3,-4,-8,-11
1532405562530,-1,1,0,1,4,1,6,3
1532405562535,5,8,0,-2,-4,-2,-1,-14
1532405562540,10,-2,-1,-4,-6,-3,-3,-5
1532405562545,6,6,-1,-1,1,8,6,2
1532405562550,-8,-5,0,2,1,5,0,-6
1532405562555,7,1,-1,2,-2,-15,-9,-1
1532405562560,-17,-5,-1,-1,-1,-3,-10,-8
1532405562565,4,-1,-2,-2,-3,-5,-1,0
1532405562570,-3,-8,0,-1,-1,3,-3,0
1532405562575,-3,9,-1,-3,1,7,5,-4
1532405562580,18,11,1,2,3,-4,-6,4
1532405562585,-8,-16,-1,1,1,-1,1,1
1532405562590,-10,4,1,2,2,2,-4,-5
1532405562595,8,-2,0,-2,-3,-1,3,-2
1532405562600,-16,-8,0,-6,-4,-1,0,-6
1532405562605,-2,3,-1,-1,1,0,2,2
1532405562610,5,0,-1,0,-3,-1,-2,0
1532405562615,-4,-6,-2,1,3,-1,5,-4
1532405562620,-4,3,0,-1,-3,-1,0,2
1532405562625,7,-8,0,-1,4,0,-7,0
1532405562630,-10,-1,-1,-2,-3,-2,-3,0
1532405562635,4,0,-4,0,2,3,3,1
1532405562640,11,1,1,2,1,2,6,0
1532405562645,-8,6,1,0,-2,-4,3,0
1532405562650,2,-8,-2,-3,-2,1,-3,-4
1532405562655,3,6,0,-2,-1,2,-3,1
1532405562660,-9,0,-4,-5,-5,-1,-1,-1
1532405562665,19,1,0,2,2,1,-2,2
1532405562670,9,3,-2,0,2,-1,1,0
1532405562675,-11,-7,1,1,-2,1,2,0
1532405562680,-2,-1,-2,-4,0,-4,-2,-2
1532405562685,-4,1,-1,-3,-8,-5,0,-2
1532405562690,0,-1,5,1,1,1,-2,-2
1532405562695,4,-3,-6,0,2,-1,0,0
1532405562700,3,3,1,2,3,-1,-5,0
1532405562705,-8,-4,-5,-6,-1,-4,-4,0
1532405562710,4,-5,1,0,-2,1,-3,3
1532405562715,-3,-7,2,-3,1,0,0,-4
1532405562720,0,1,6,-1,-5,2,2,-1
1532405562725,-6,0,-3,3,4,2,1,-1
1532405562730,-6,1,-2,1,2,0,-2,-3
1532405562735,1,-2,-3,-3,-5,-2,-1,0
1532405562740,1,-3,-13,-1,-1,-4,-1,-1
1532405562745,4,6,17,-2,-4,-1,-1,-1
1532405562750,8,-3,0,1,-1,1,-1,0
1532405562755,-10,-1,1,5,6,3,-3,-3
1532405562760,6,5,1,3,6,-2,-4,-3
1532405562765,-3,4,-6,-5,-2,-2,1,1
1532405562770,1,-1,-2,-7,-11,-3,-2,-3
1532405562775,3,3,1,0,-4,-1,2,1
1532405562780,-7,-2,-2,2,0,0,2,1
1532405562785,-5,-6,-4,4,4,3,0,-1
1532405562790,4,5,2,2,7,1,4,3
1532405562795,3,-2,-5,-4,-3,-4,-2,0
1532405562800,-2,-1,3,-2,-4,2,-2,0
1532405562805,-1,0,-3,-4,-7,-2,-2,0
1532405562810,-1,-1,-5,-1,1,0,-1,-1
1532405562815,-4,-2,2,-1,-2,1,0,-2
1532405562820,0,-3,-1,1,4,1,-3,1
1532405562825,1,-3,-2,-1,1,-1,-5,-1
1532405562830,-5,1,1,-1,-4,-2,3,-3
1532405562835,1,-1,0,3,0,-2,-2,-5
1532405562840,0,0,4,-6,0,-1,0,0
1532405562845,0,-1,0,2,-1,1,0,-1
1532405562850,-2,-2,-2,2,1,-1,-2,0
1532405562855,0,-3,-2,-3,4,-1,1,0
1532405562860,1,0,-2,-4,-15,-3,-1,-5
1532405562865,-1,-2,0,3,1,-1,2,-1
1532405562870,-2,-2,-1,-2,-1,-2,-2,-3
1532405562875,2,0,1,1,-1,2,-1,0
1532405562880,0,1,-1,-1,1,-2,-1,-1
1532405562885,0,0,-1,-4,-3,-1,-1,-2
1532405562890,-2,-1,-1,-3,-3,-2,-3,0
1532405562895,2,-1,-1,3,1,1,-2,-1
1532405562900,-4,0,0,0,4,-3,0,0
1532405562905,-6,-11,-3,-5,-8,-1,2,-5
1532405562910,-1,1,0,-1,2,-1,2,-2
1532405562915,1,-1,3,0,-4,-4,-1,0
1532405562920,-2,-1,-6,1,4,1,1,1
1532405562925,2,3,1,0,4,-1,0,0
1532405562930,2,-4,-5,-4,-3,0,-5,-2
1532405562935,-1,0,1,-3,-3,0,0,0
1532405562940,0,0,2,1,-1,-3,0,1
1532405562945,1,1,0,0,-2,-2,-1,0
1532405562950,-3,-1,-2,3,7,-2,-1,-3
1532405562955,-1,-2,-3,-7,-3,2,-4,-2
1532405562960,2,0,1,-3,-5,-1,-1,-1
1532405562965,-2,0,-3,3,0,0,-1,2
1532405562970,-1,-1,-1,2,2,-1,-1,1
1532405562975,-2,0,0,-1,-4,-1,-1,-3
1532405562980,1,-1,-1,1,4,0,-2,-1
1532405562985,-2,-1,-1,-1,0,-1,-2,-3
1532405562990,-3,-1,-1,-3,0,2,-3,-3
1532405562995,-1,-1,-2,-1,-4,-2,-2,1
1532405563000,-1,0,0,0,-1,-1,-2,-3
1532405563005,1,3,-1,-1,0,0,1,-2
1532405563010,-3,-6,-2,0,-1,-4,-2,0
1532405563015,-3,-4,-3,-1,-2,1,-4,1
1532405563020,1,5,1,-2,-3,-2,0,-1
1532405563025,-2,-2,0,0,2,0,-2,-3
1532405563030,-4,-3,0,-1,-2,1,1,-2
1532405563035,-1,-4,-2,-3,-3,-2,0,-1
1532405563040,0,-1,-2,2,0,0,-3,1
1532405563045,-1,-4,0,1,3,-2,0,0
1532405563050,6,4,1,-3,-4,0,-1,2
1532405563055,-1,0,-1,0,-2,-4,-1,1
1532405563060,2,-4,-3,0,4,0,0,-2
1532405563065,-3,0,0,-3,-10,-2,0,-2
1532405563070,5,-1,-1,3,2,1,-1,2
1532405563075,-14,3,0,-3,0,0,0,-2
1532405563080,-8,-2,-1,-2,-5,-1,0,0
1532405563085,-2,0,-4,-2,3,-2,1,-2
1532405563090,0,4,-2,-3,-7,0,-1,-3
1532405563095,8,-1,-1,1,3,-3,-9,0
1532405563100,-7,-3,1,0,-1,-6,-4,-1
1532405563105,-4,-5,-3,2,2,0,0,-1
1532405563110,5,5,2,-1,0,2,3,0
1532405563115,-1,2,-3,-1,0,1,2,-1
1532405563120,2,-1,0,-4,-6,-3,-3,1
1532405563125,4,-1,0,-1,-3,0,3,1
1532405563130,-1,6,0,2,3,0,-9,1
1532405563135,-16,0,0,4,5,-1,4,-3
1532405563140,9,-2,-3,-4,-9,-5,-8,-8
1532405563145,2,-1,0,0,3,-1,3,3
1532405563150,-4,-1,-3,-2,-4,0,-11,-6
1532405563155,-2,-1,-1,-3,-1,-4,7,1
1532405563160,0,-3,-1,2,5,4,5,-2
1532405563165,0,4,-1,-6,-2,-2,-5,-2
1532405563170,-5,-7,-3,-2,-5,-2,-2,-2
1532405563175,6,-1,0,1,-1,0,-4,-2
1532405563180,-1,0,0,-3,-1,1,7,0
1532405563185,0,1,0,1,1,-5,-17,-7
1532405563190,-6,-2,-1,-3,0,1,8,1
1532405563195,3,-3,-2,-1,-3,-4,-3,-3
1532405563200,0,0,-3,-3,-4,-5,-7,-2
1532405563205,-1,2,2,1,-1,-1,2,2
1532405563210,-1,-1,0,0,-1,-3,-3,-1
1532405563215,3,4,-1,0,-2,1,9,8
1532405563220,-1,-4,-3,-1,1,12,-5,-2
1532405563225,-2,-2,-2,1,2,-9,-12,-5
1532405563230,-2,-1,0,-1,-3,5,5,0
1532405563235,3,0,1,2,1,-18,-12,-6
1532405563240,-3,1,1,-3,-8,3,-10,-4
1532405563245,1,1,0,0,-1,-1,12,0
1532405563250,-2,-2,-3,-4,0,1,-6,-2
1532405563255,-1,-2,0,-2,-4,6,1,1
1532405563260,0,0,-1,2,4,-9,1,1
1532405563265,0,-1,-1,0,-1,4,4,5
1532405563270,-1,-1,1,-1,-1,5,11,0
1532405563275,1,-2,2,-1,-1,-9,-9,-1
1532405563280,-2,-2,-1,2,4,-14,-15,0
1532405563285,-1,-3,-2,-2,0,8,5,0
1532405563290,-3,-2,-1,-3,-4,-11,-7,-3
1532405563295,-3,-2,-2,-2,-1,7,3,-7
1532405563300,1,2,1,-2,-2,3,3,3
1532405563305,-2,-3,-3,-3,-4,-2,-5,1
1532405563310,1,1,-1,2,2,2,0,-2
1532405563315,1,-3,0,1,6,4,-8,-2
1532405563320,0,-1,2,2,0,3,15,4
1532405563325,2,0,0,-3,-6,-2,5,3
1532405563330,-2,-2,1,-1,1,-3,-9,-5
1532405563335,-4,0,0,0,-2,-1,-2,-1
1532405563340,-2,-2,-3,0,3,0,2,1
1532405563345,-1,2,0,-4,-3,-1,-2,-8
1532405563350,0,1,1,0,-2,-4,4,2
1532405563355,6,1,0,2,3,2,0,2
1532405563360,-6,-1,0,0,-1,2,1,-1
1532405563365,0,-2,-2,-2,-2,0,-5,-6
1532405563370,-2,0,-1,-2,2,-1,6,0
1532405563375,4,-5,-3,-1,-2,2,-2,1
1532405563380,2,4,0,1,1,1,2,-1
1532405563385,-2,1,0,-1,-2,-4,-1,3
1532405563390,0,-1,-1,4,1,-4,-5,-2
1532405563395,0,-8,-2,-4,-2,1,6,-2
1532405563400,-1,-3,4,-3,-4,-2,-4,0
1532405563405,-1,-1,-5,2,4,3,-2,-1
1532405563410,0,0,0,1,1,-1,-1,-1
1532405563415,-1,2,-1,1,1,0,0,0
1532405563420,0,-3,-5,-4,-7,0,2,-2
1532405563425,-1,1,1,-1,0,1,-2,-3
1532405563430,0,-4,-2,-2,-4,-1,-1,0
1532405563435,-3,1,1,-3,-2,-3,-1,-1
1532405563440,-1,1,-1,1,1,0,0,-1
1532405563445,3,4,2,4,5,1,2,1
1532405563450,-5,-9,-5,-5,-9,-5,-3,-4
1532405563455,1,0,1,-1,-4,0,-4,0
1532405563460,-1,1,-1,-3,0,2,0,-2
1532405563465,-1,-2,-1,-1,1,-1,0,-1
1532405563470,1,2,-3,0,2,-2,2,4
1532405563475,-1,-1,-1,-2,0,0,-4,0
1532405563480,-5,-3,-3,-2,1,-1,0,-1
1532405563485,-4,-3,-1,0,-1,-1,-1,-2
1532405563490,-1,0,0,0,3,0,-1,-1
1532405563495,-1,-1,-1,0,1,-1,2,0
1532405563500,1,-1,-2,-3,-4,0,1,-3
1532405563505,-1,-3,-1,-4,-2,-2,-4,-2
1532405563510,1,-2,0,-3,-7,-1,0,0
1532405563515,-1,-2,-3,0,-1,0,1,-4
1532405563520,0,4,0,2,2,-2,0,0
1532405563525,-2,-4,-1,0,2,0,-3,-1
1532405563530,2,1,-1,-2,-1,-1,0,1
1532405563535,-2,-1,-2,-4,0,-2,-3,-4
1532405563540,1,0,1,-3,-4,-1,-2,-3
1532405563545,0,-1,0,-1,-1,2,-1,0
1532405563550,0,1,-1,2,5,2,-2,-2
1532405563555,-1,1,-3,-4,-6,-2,0,1
1532405563560,2,4,-1,-2,1,0,0,-3
1532405563565,-2,-7,-2,0,2,-3,-1,-1
1532405563570,-2,-5,0,0,-1,-2,8,-5
1532405563575,0,-1,1,0,0,1,-6,5
1532405563580,-4,-5,-2,-3,-4,-3,-10,-7
1532405563585,2,4,0,1,2,2,6,7
1532405563590,1,-1,-3,0,4,-3,-5,-7
1532405563595,-5,-2,-2,-2,-2,1,-1,2
1532405563600,3,-1,-3,1,-1,-2,5,5
1532405563605,-2,-4,2,1,-3,-1,-2,-6
1532405563610,11,6,2,-2,-2,-1,10,-3
1532405563615,-3,1,-2,-1,-2,-1,13,6
1532405563620,-12,-19,0,4,7,9,20,3
1532405563625,5,0,-4,-3,-6,-4,-18,-6
1532405563630,-4,-3,-1,-3,-4,-4,1,-5
1532405563635,7,5,0,0,-1,-3,-2,2
1532405563640,4,-4,5,3,1,2,-5,1
1532405563645,-5,-2,-1,-2,-1,-2,-1,3
1532405563650,-4,0,0,-3,-2,-3,-11,-2
1532405563655,-4,-2,-1,-5,-6,6,4,-3
1532405563660,-1,3,-3,0,2,-8,-1,-4
1532405563665,1,4,1,1,3,-5,-5,-3
1532405563670,0,-2,-2,-3,-4,-3,-13,-1
1532405563675,-2,-3,-2,2,2,-1,10,-6
1532405563680,5,2,0,-3,0,4,-10,-10
1532405563685,3,3,-2,1,1,0,8,20
1532405563690,-5,-4,-1,-1,-1,-1,11,2
1532405563695,-6,-6,1,3,5,-2,-30,0
1532405563700,2,-2,-1,-3,-5,14,19,3
1532405563705,2,6,1,5,4,-16,-2,13
1532405563710,0,-1,0,2,-1,4,-5,3
1532405563715,-1,1,1,3,7,5,4,-5
1532405563720,-3,2,0,-3,-1,-4,-11,3
1532405563725,-3,-5,1,-7,-10,14,9,-5
1532405563730,0,1,-2,2,6,-8,-15,-8
1532405563735,3,3,0,-1,-4,-8,2,-4
1532405563740,0,-3,-1,-1,-2,2,3,9
1532405563745,-5,-2,-3,-2,-3,3,-12,-22
1532405563750,-5,-2,-1,-2,-2,-4,1,-7
1532405563755,3,3,1,3,5,3,24,6
1532405563760,-8,-3,-2,-1,2,-12,5,5
1532405563765,3,-2,-2,0,-7,1,0,0
1532405563770,-3,3,-2,-3,-6,4,-5,-9
1532405563775,5,7,-1,0,1,-3,1,2
1532405563780,-7,-2,0,-2,-4,-9,1,-14
1532405563785,0,-3,1,-3,-2,-6,-43,-6
1532405563790,8,12,0,3,10,21,60,16
1532405563795,-13,-5,-1,-5,-6,-4,-19,5
1532405563800,4,2,0,3,3,0,-5,6
1532405563805,0,6,3,-1,0,-1,-3,-3
1532405563810,-3,-13,-8,-4,-5,-8,-14,-12
1532405563815,-7,-1,-1,-4,-6,-5,-14,-15
1532405563820,5,3,3,7,8,10,53,-19
1532405563825,-5,-1,-3,0,-1,-1,-15,15
1532405563830,5,-4,2,2,1,-1,-1,43
1532405563835,2,-4,1,2,2,-3,-39,-18
1532405563840,-1,-2,-3,0,0,-1,38,0
1532405563845,-2,2,-2,-5,-4,-7,-10,-23
1532405563850,2,-3,-3,0,4,10,26,-7
1532405563855,5,11,9,0,-8,-11,-34,-5
1532405563860,-18,-8,1,-12,-10,-10,-46,-43
1532405563865,19,27,3,5,14,20,17,44
1532405563870,-18,-37,-10,1,2,11,-19,-17
1532405563875,-6,11,-3,-2,-4,-2,27,-2
1532405563880,-6,4,2,-4,-5,-3,3,0
1532405563885,0,-8,0,3,0,-4,6,-11
1532405563890,4,-4,3,0,-1,-7,-20,6
1532405563895,0,-8,0,5,6,12,5,18
1532405563900,15,4,0,7,8,22,34,40
1532405563905,-18,-11,-5,-5,-5,-7,-2,-36
1532405563910,11,21,7,-1,-5,-1,15,37
1532405563915,-3,-15,-7,-9,-5,-4,-20,-40
1532405563920,15,4,0,-2,-3,-6,-35,10
1532405563925,2,-6,-3,0,1,1,16,16
1532405563930,-3,3,3,1,0,1,1,-16
1532405563935,4,6,1,-5,-9,-2,4,4
1532405563940,5,5,-5,0,2,-1,-38,-29
1532405563945,-10,-7,5,3,4,-1,-12,4
1532405563950,-12,-7,-2,3,4,-1,-29,7
1532405563955,-4,0,-2,3,6,5,19,-1
1532405563960,2,2,1,-5,-3,-3,-15,67
1532405563965,6,-6,-4,-6,-7,-5,43,-35
1532405563970,-2,2,1,-3,-4,-11,33,-8
1532405563975,3,-3,-3,1,4,5,127,23
1532405563980,4,-3,1,2,5,10,83,9
1532405563985,-2,0,-2,-6,0,-4,30,5
1532405563990,-9,0,-2,-6,-9,-11,-11,-24
1532405563995,0,-6,-1,-4,-2,-5,-29,13
1532405564000,-5,-1,-8,-3,-6,-8,-66,-6
1532405564005,-10,-5,-1,-2,-5,-3,-41,-16
1532405564010,-4,10,-1,1,3,-3,-39,-67
1532405564015,3,-9,-2,1,-2,-3,-47,0
1532405564020,-8,-2,2,-2,0,-8,-21,-15
1532405564025,0,-2,-1,-5,-11,0,-14,9
1532405564030,6,3,4,4,3,4,-2,24
1532405564035,-3,1,-1,-1,4,1,-5,-15
1532405564040,-4,-3,-5,-2,-3,-8,-6,-9
1532405564045,-1,-8,-2,-1,-7,0,1,-3
1532405564050,2,3,1,3,9,7,-5,-6
1532405564055,-4,-4,-3,0,-10,4,-3,-2
1532405564060,1,1,0,-2,-5,-13,-9,-8
1532405564065,1,8,1,2,-1,-1,-1,4
1532405564070,1,-7,0,-1,2,-7,0,11
1532405564075,-1,-3,-5,4,7,6,8,38
1532405564080,2,-1,6,8,5,3,-1,-1
1532405564085,1,5,-4,-11,-9,-3,0,-4
1532405564090,-1,-1,-3,-3,-4,3,-1,2
1532405564095,3,-3,-5,-5,-1,-2,-11,-12
1532405564100,-6,-6,-6,3,3,1,-7,-3
1532405564105,7,9,4,6,13,6,7,6
1532405564110,14,3,-4,-6,-8,-5,-4,8
1532405564115,0,-3,8,-3,-5,-2,-14,-8
1532405564120,-4,1,-10,-1,-4,-4,-14,-15
1532405564125,-4,-9,0,2,5,2,-5,0
1532405564130,0,0,-1,-2,0,-1,-6,1
1532405564135,-1,0,0,-1,-2,-5,-4,-8
1532405564140,3,2,3,0,1,0,9,5
1532405564145,-7,-7,-2,1,-2,2,-51,-3
1532405564150,-1,5,1,0,-2,-3,-48,4
1532405564155,-4,1,0,-3,0,-2,-40,0
1532405564160,1,0,-1,-1,4,6,-7,17
1532405564165,6,0,-3,-4,-9,-2,9,-6
1532405564170,-3,-3,0,-2,-3,-2,20,4
1532405564175,-1,1,-1,4,3,1,24,1
1532405564180,-3,-1,1,-1,2,1,22,-4
1532405564185,0,-4,-2,-2,-2,-1,23,-2
1532405564190,-5,-7,2,-1,0,-2,16,4
1532405564195,3,-1,-5,1,-1,0,14,-8
1532405564200,-6,-2,4,-3,-7,-3,3,-4
1532405564205,-1,1,-3,-2,2,-2,13,4
1532405564210,-8,-6,-2,1,2,-1,7,-11
1532405564215,-2,1,-2,-4,-3,-2,6,-5
1532405564220,-1,-2,1,0,-1,-2,0,-6
1532405564225,4,-2,-2,2,3,1,13,5
1532405564230,-6,1,-1,-3,-6,-4,12,0
1532405564235,1,0,0,2,5,3,-8,-11
1532405564240,-3,0,-3,0,-1,-1,-1,-2
1532405564245,-3,-3,1,-3,0,-2,6,-5
1532405564250,5,-5,-1,1,0,-1,-2,-1
1532405564255,-5,10,3,-3,-4,-2,-4,-7
1532405564260,3,-1,-6,-5,-4,-2,-6,-5
1532405564265,-10,-11,-1,1,4,-1,-3,2
1532405564270,1,2,-2,-3,-5,-2,2,5
1532405564275,6,4,2,1,0,-2,6,-2
1532405564280,-18,-20,-1,-1,-1,5,2,0
1532405564285,-2,6,1,0,0,0,-2,-1
1532405564290,2,2,0,0,0,-2,-1,1
1532405564295,-6,-5,-7,1,-2,-3,5,1
1532405564300,6,-1,4,-5,-1,-4,-2,-6
1532405564305,0,-6,2,1,-2,9,4,-1
1532405564310,-2,-5,1,-1,0,-6,-11,-1
1532405564315,-2,-2,0,1,0,-2,-4,1
1532405564320,4,6,-4,-3,-3,1,-4,-2
1532405564325,-1,1,-2,-4,-1,-1,0,1
1532405564330,11,-4,-1,-1,3,9,0,2
1532405564335,-18,2,2,-2,-2,-2,-2,-3
1532405564340,3,-1,-3,1,-3,3,-1,-4
1532405564345,-6,3,-1,-1,2,-11,-14,-6
1532405564350,6,-7,-1,-2,-2,4,0,1
1532405564355,-9,-11,-3,2,0,-4,-7,-1
1532405564360,0,1,5,-2,-3,-1,-2,-2
1532405564365,2,17,-3,3,2,4,7,1
1532405564370,-2,-3,-2,-1,-1,-2,4,-2
1532405564375,4,-5,-2,-2,-1,0,3,2
1532405564380,-2,3,0,0,-1,-5,0,-2
1532405564385,0,-4,0,-1,-2,-2,3,-3
1532405564390,-7,4,0,0,-1,1,-1,-4
1532405564395,6,0,1,2,3,-2,2,0
1532405564400,3,3,-3,-3,-1,-6,-6,-2
1532405564405,1,-4,-4,-5,-2,-2,-3,1
1532405564410,-4,2,0,-1,-2,0,-4,-3
1532405564415,3,2,-2,0,-1,3,1,2
1532405564420,-1,-1,-5,2,2,-4,-3,-1
1532405564425,-1,3,17,5,-2,-2,3,1
1532405564430,-5,-6,-22,-6,0,-3,-6,-3
1532405564435,5,5,6,-2,-2,-1,-3,2
1532405564440,-1,-6,2,0,1,1,-3,-1
1532405564445,-2,-3,-3,-1,-3,4,0,-2
1532405564450,-1,6,7,3,-2,-7,-6,-3
1532405564455,1,-2,-3,-1,0,2,-1,-2
1532405564460,1,-6,-4,-2,-3,1,0,-2
1532405564465,-5,3,1,-1,-1,-3,-3,-1
1532405564470,0,0,-6,3,2,0,2,3
1532405564475,3,0,5,-2,-1,1,0,0
1532405564480,-2,-1,1,-1,-2,-1,-5,-1
1532405564485,-3,-7,0,3,2,2,1,2
1532405564490,-1,3,-7,-3,-2,2,-1,-2
1532405564495,6,0,-2,-1,0,-2,0,0
1532405564500,-1,-1,-3,-2,-4,0,0,-3
1532405564505,1,-2,-2,0,1,-4,-5,-3
1532405564510,-3,7,3,-2,0,-3,1,-2
1532405564515,-3,-20,-4,-1,-2,2,-1,0
1532405564520,1,10,6,3,1,-2,-1,-1
1532405564525,0,-5,-4,-2,-4,-1,-1,0
1532405564530,-1,-9,2,2,0,0,0,-2
1532405564535,1,3,-4,-2,0,2,3,-3
1532405564540,-4,1,-1,0,1,0,-2,-1
1532405564545,6,1,-1,-1,0,-5,-5,-1
1532405564550,0,-2,4,-1,-3,1,1,2
1532405564555,-6,-1,2,1,-1,-6,-5,-1
1532405564560,6,1,-2,-1,0,0,3,1
1532405564565,1,5,-2,-1,-2,-1,0,0
1532405564570,-7,-8,1,0,-2,0,-1,-5
1532405564575,-1,1,-5,-3,0,0,0,-2
1532405564580,1,3,-1,0,-1,-1,-2,-2
1532405564585,5,-4,-1,2,-1,0,0,-2
1532405564590,3,7,-7,-4,0,0,1,0
1532405564595,-14,0,7,1,-2,2,-5,-2
1532405564600,5,-1,1,-1,-4,-1,-1,0
1532405564605,-3,-2,-3,-6,-1,-2,0,-2
1532405564610,-2,-3,3,5,0,0,0,0
1532405564615,5,4,-2,-6,-1,-1,0,2
1532405564620,-4,-7,-15,-1,-5,-1,-2,-2
1532405564625,-4,-9,4,-3,1,-1,-1,-3
1532405564630,0,1,1,-1,-2,0,0,1
1532405564635,1,5,-1,1,2,-1,-2,1
1532405564640,1,-9,0,-1,0,-1,-1,1
1532405564645,-7,3,-4,1,3,1,-1,-2
1532405564650,-1,-1,0,0,0,-3,0,0
1532405564655,-1,-1,-3,-3,-6,-3,0,2
1532405564660,-1,4,4,2,0,1,-2,-2
1532405564665,1,-1,-4,1,3,1,0,1
1532405564670,-2,0,2,-6,-5,-2,-2,-2
1532405564675,4,6,-1,1,-2,-2,-2,-3
1532405564680,-4,0,1,-1,3,3,1,-2
1532405564685,-1,-2,-3,2,3,-1,-1,-2
1532405564690,-3,0,0,-2,2,-1,-1,-2
1532405564695,2,-6,1,-2,-2,-1,0,0
1532405564700,-4,-6,-1,-3,0,-2,-1,-3
1532405564705,2,0,-3,-1,-2,-2,-1,2
1532405564710,1,0,-4,1,1,0,-1,-1
1532405564715,-7,-6,0,4,1,0,0,0
1532405564720,-1,2,2,-2,0,-1,-2,-1
1532405564725,2,1,0,0,-1,0,-2,-2
1532405564730,0,3,3,-1,-2,-2,-1,-2
1532405564735,-6,-9,-5,-6,-5,-3,-2,-3
1532405564740,-2,1,-1,-1,-3,-2,-2,-1
1532405564745,1,-3,-1,1,-3,-1,-2,-1
1532405564750,-3,6,2,4,3,1,-2,0
1532405564755,4,1,-1,-1,1,1,-2,-2
1532405564760,-1,0,2,1,0,-1,-2,1
1532405564765,-2,2,-1,-2,-3,-2,-2,-1
1532405564770,1,-4,0,1,-2,0,-1,-5
1532405564775,0,3,-2,-2,-1,-1,0,0
1532405564780,-2,0,1,1,-1,-1,-1,-2
1532405564785,2,-6,-3,-2,-2,0,0,-4
1532405564790,-1,0,-1,-2,1,-1,-1,-2
1532405564795,2,0,-2,-1,-2,-2,1,-1
1532405564800,3,1,4,0,-2,-2,-3,1
1532405564805,-4,-5,-2,0,0,0,-2,-1
1532405564810,-2,4,-3,1,-1,-1,0,0
1532405564815,1,0,0,0,2,-1,0,1
1532405564820,-2,0,1,-3,-2,-3,-1,-1
1532405564825,-2,1,0,-1,1,-1,-2,-2
1532405564830,0,-4,-1,-5,-3,-1,-1,-4
1532405564835,1,-2,-1,2,0,1,0,-2
1532405564840,1,1,-1,-1,1,0,-2,-2
1532405564845,-1,-1,-1,-1,-5,-2,-1,0
1532405564850,0,-2,-1,-1,0,0,-4,0
1532405564855,-2,-1,0,1,-1,0,-1,1
1532405564860,1,-1,-3,-1,-2,0,0,-1
1532405564865,-2,-7,1,2,1,0,0,0
1532405564870,0,0,-2,-3,-2,0,-1,1
1532405564875,0,3,0,1,1,0,1,1
1532405564880,-5,1,3,1,1,0,-1,-2
1532405564885,2,2,-4,-5,-3,-1,0,-2
1532405564890,-3,-3,1,-1,-2,-2,0,-2
1532405564895,-1,-2,0,1,1,-1,0,-1
1532405564900,-1,-1,-3,-6,0,0,2,1
1532405564905,-3,-2,0,0,-5,-1,-1,-1
1532405564910,-2,3,0,-1,-1,0,-1,-1
1532405564915,-1,-2,-5,-2,-1,-1,-1,-1
1532405564920,-3,-1,-1,-1,2,-1,-1,-1
1532405564925,2,-2,0,-1,-3,-2,-2,-1
1532405564930,2,-3,-4,-1,-3,0,1,-2
1532405564935,-1,-4,1,-2,-1,-2,-1,-3
1532405564940,0,1,-1,1,0,1,-2,-2
1532405564945,0,-1,-1,1,1,2,-3,1
1532405564950,-1,-4,0,0,1,-2,1,-1
1532405564955,2,4,0,0,-3,-1,0,-3
1532405564960,1,-6,-6,-3,-3,-1,-1,-2
1532405564965,-4,0,1,-1,-3,-1,-3,0
1532405564970,0,-2,-1,-3,1,2,-2,2
1532405564975,-2,-4,2,0,0,0,-2,-2
1532405564980,-1,0,-4,1,-2,-1,0,0
1532405564985,-1,5,0,-2,-1,0,-1,-2
1532405564990,3,1,-2,-1,-2,-2,-2,0
1532405564995,-7,-1,1,1,2,-1,-2,-2
1532405565000,1,-1,-2,2,2,-2,-2,1
1532405565005,1,-2,0,2,2,-1,0,-2
1532405565010,0,0,0,-3,-3,-2,-1,-1
1532405565015,2,-2,-3,-4,-4,0,-3,-1
1532405565020,-2,-4,3,0,-3,-1,-2,-1
1532405565025,2,-4,-7,-3,0,0,1,-1
1532405565030,-2,0,0,2,2,-2,0,-2
1532405565035,-3,-2,0,1,0,-2,-1,-4
1532405565040,1,9,3,-3,-2,1,1,-2
1532405565045,0,-1,-1,-1,-3,-2,0,-3
1532405565050,-2,-2,-1,-3,-3,0,0,0
1532405565055,-1,-1,0,-1,-1,1,-2,-1
1532405565060,1,-1,1,0,2,-1,-1,0
1532405565065,0,5,-2,-3,1,1,0,0
1532405565070,-1,-2,1,1,2,0,-3,0
1532405565075,4,0,3,1,0,0,-2,0
1532405565080,-6,-4,-10,-1,0,-2,-1,-3
1532405565085,0,5,1,-1,-3,-2,-2,-2
1532405565090,-3,-11,0,-1,-3,0,-1,0
1532405565095,2,7,0,0,2,0,0,1
1532405565100,0,-6,0,0,1,-1,-1,-2
1532405565105,-1,-3,1,0,-1,-1,-2,0
1532405565110,1,4,-3,0,0,0,0,-3
1532405565115,3,-3,-3,0,1,-1,-1,0
1532405565120,-6,-2,-4,-3,-2,-1,-1,-2
1532405565125,2,-1,-1,-3,-2,-1,-2,-1
1532405565130,-2,-7,1,-2,0,-1,-2,0
1532405565135,1,3,1,0,-3,0,-1,0
1532405565140,1,-6,0,2,2,0,-2,-2
1532405565145,-4,-1,-1,-1,-3,0,1,-1
1532405565150,-1,0,3,0,-2,-1,1,-4
1532405565155,-3,-1,-7,-1,-3,-1,0,0
1532405565160,1,1,-1,-2,-2,-1,-2,0
1532405565165,1,-2,2,1,2,-2,-2,-2
1532405565170,1,1,-3,0,1,0,-1,2
1532405565175,4,2,-1,-1,3,0,-1,0
1532405565180,-1,-7,0,-3,-4,-1,-1,0
1532405565185,-1,2,1,-4,-2,0,-1,-2
1532405565190,-1,1,-2,-2,-5,-1,-3,-2
1532405565195,0,-2,-2,-1,-2,0,-3,-1
1532405565200,1,5,-1,1,1,0,-1,1
1532405565205,-2,-5,1,2,3,0,-1,-1
1532405565210,1,3,-3,-2,-2,-2,0,-1
1532405565215,-3,0,1,-3,-3,-1,0,-1
1532405565220,3,1,0,-2,-4,-2,1,-5
1532405565225,-3,-1,0,1,-2,0,1,0
1532405565230,1,5,2,2,6,1,1,-2
1532405565235,-1,-3,-1,-2,-2,-1,1,-1
1532405565240,-1,2,-4,-2,1,0,-1,1
1532405565245,-3,-1,-1,5,2,-2,-1,0
1532405565250,5,-4,-3,-3,-3,0,-3,1
1532405565255,-4,-4,-2,-1,-1,-1,-3,-3
1532405565260,-4,0,1,-3,-3,-4,0,-1
1532405565265,-1,0,-1,-2,-1,0,-2,-2
1532405565270,-2,0,0,-1,0,-2,-1,0
1532405565275,0,-4,-1,1,4,-2,-3,-2
1532405565280,1,6,2,-3,-3,-1,-1,0
1532405565285,0,-4,-3,2,1,2,2,1
1532405565290,-2,1,0,0,0,-2,0,-2
1532405565295,-1,-5,-1,-6,-11,-3,0,0
1532405565300,1,5,-2,1,0,0,-1,1
1532405565305,1,3,2,-2,3,-1,-3,0
1532405565310,0,-1,-1,2,-1,-2,-2,-1
1532405565315,-2,-3,-3,1,1,1,-1,-3
1532405565320,4,-2,2,0,1,1,-3,0
1532405565325,-2,5,0,-3,-4,0,-3,-3
1532405565330,-3,-5,-2,1,1,1,-3,-1
1532405565335,-4,-1,5,1,0,-1,-2,-4
1532405565340,-1,-4,-9,-3,-4,0,-1,1
1532405565345,3,0,3,-1,0,0,-1,1
1532405565350,0,1,0,-2,-1,-2,1,-1
1532405565355,-1,-2,1,-1,-1,-1,0,-1
1532405565360,1,-2,0,-1,-1,1,-2,0
1532405565365,0,-2,-1,-4,-3,-2,-1,0
1532405565370,0,0,-1,-1,0,2,-1,-1
1532405565375,-4,-4,-1,0,1,2,2,0
1532405565380,-2,1,1,2,1,-1,0,-2
1532405565385,0,-2,-4,0,-3,-1,1,1
1532405565390,-1,-7,2,-1,-1,0,0,1
1532405565395,0,2,-2,-3,2,0,2,-2
1532405565400,0,-5,2,0,0,-2,0,-3
1532405565405,-1,2,-3,-2,-3,0,-1,-3
1532405565410,-1,-4,-6,0,0,-2,0,-3
1532405565415,0,1,-1,0,-1,-2,-2,-2
1532405565420,-3,-3,0,1,2,-2,0,-2
1532405565425,2,-4,3,2,-1,-2,-2,0
1532405565430,0,2,-2,-4,-4,1,0,0
1532405565435,2,5,-1,0,-1,-2,1,2
1532405565440,-2,0,0,-1,-4,0,0,-2
1532405565445,-3,1,-2,-1,2,1,-1,-2
1532405565450,1,3,-1,3,0,0,0,-4
1532405565455,-3,-3,-1,-5,-5,-2,-1,-1
1532405565460,0,-1,1,3,2,0,-1,-1
1532405565465,-2,-3,0,3,2,0,-3,-1
1532405565470,0,2,-1,-1,-6,-4,-1,-1
1532405565475,2,0,-2,-4,-2,-1,0,-2
1532405565480,-4,-2,0,-2,-2,-2,0,-3
1532405565485,1,6,-3,-2,-2,-1,-5,0
1532405565490,0,0,1,1,2,1,-3,0
1532405565495,-2,-1,1,1,-2,-2,-1,0
1532405565500,2,1,-1,-2,-1,-1,-1,0
1532405565505,-2,0,-1,-1,-2,-1,1,-4
1532405565510,-5,-2,4,0,0,0,-3,-2
1532405565515,3,3,-7,-1,3,-2,-4,0
1532405565520,-1,-4,-2,-4,-5,-1,-2,-1
1532405565525,0,-1,0,-2,-1,-3,2,-1
1532405565530,2,1,3,1,-5,-1,3,0
1532405565535,-1,-3,-2,-1,1,0,1,-2
1532405565540,0,3,0,0,0,1,0,-1
1532405565545,-4,-7,1,5,4,2,1,-2
1532405565550,-1,-2,-5,-6,-1,1,-3,-1
1532405565555,1,-6,1,0,-1,-2,-1,0
1532405565560,-7,-3,-1,-2,0,-4,-1,-1
1532405565565,2,-3,-1,-1,0,-2,-1,-3
1532405565570,-6,1,5,1,-1,-2,0,-2
1532405565575,-3,-7,-7,1,0,1,-1,0
1532405565580,4,1,-2,-3,-3,-2,-2,-3
1532405565585,-3,1,1,-2,-3,-2,-4,0
1532405565590,-3,-7,-4,-2,1,-1,-1,-1
1532405565595,1,2,1,-1,-2,0,2,3
1532405565600,0,3,0,1,1,-1,1,-1
1532405565605,-1,-2,-2,0,-3,-2,1,1
1532405565610,2,3,-7,-2,-2,-2,-4,-3
1532405565615,-2,-2,1,-1,-1,-1,-2,-3
1532405565620,0,-4,-3,2,1,1,-2,-2
1532405565625,1,0,-2,-2,-3,0,0,-2
1532405565630,0,2,-1,1,1,-2,-1,-1
1532405565635,-2,-1,-1,0,-1,0,0,-1
1532405565640,0,-5,1,-3,-1,0,-2,-1
1532405565645,1,5,2,-2,-2,-1,-2,1
1532405565650,-4,-6,-5,0,-2,1,-1,0
1532405565655,2,2,1,1,-3,-1,-2,2
1532405565660,-1,-6,-1,-1,0,-1,-1,-1
1532405565665,-2,-3,-1,-2,-5,-2,1,-1
1532405565670,-4,-1,1,1,0,1,-1,-2
1532405565675,-2,3,2,-1,0,-3,-2,-4
1532405565680,0,-5,-2,-1,-3,-3,-1,1
1532405565685,-2,-3,0,-1,0,-3,-1,-2
1532405565690,2,1,2,0,1,1,-1,-2
1532405565695,-2,-2,-1,0,0,0,-2,-3
1532405565700,-1,1,-4,-4,-3,-2,-3,-2
1532405565705,-1,-2,2,0,1,1,0,-2
1532405565710,0,6,-6,-2,-3,-1,0,1
1532405565715,-1,-10,-1,-1,0,-1,-1,-2
1532405565720,-1,1,-1,-3,-3,-2,-1,1
1532405565725,-3,1,-3,0,0,-2,-5,1
1532405565730,2,1,2,0,-2,-1,-1,-1
1532405565735,-2,-1,0,2,3,1,1,0
1532405565740,-1,-2,-1,2,1,1,3,-1
1532405565745,0,-2,-2,-2,-4,0,-1,0
1532405565750,0,-3,1,-1,0,-3,-2,-3
1532405565755,1,2,-1,-1,-2,0,-1,-1
1532405565760,1,0,1,0,1,0,0,-2
1532405565765,-5,1,-1,-3,-1,-2,0,-2
1532405565770,3,-4,-2,-2,-3,0,1,-1
1532405565775,-1,3,-1,1,-5,-2,0,-3
1532405565780,0,1,-1,-1,-1,-1,-1,-3
1532405565785,2,-2,-1,-1,1,0,-1,-3
1532405565790,-3,-3,-1,-2,-1,-1,-2,-1
1532405565795,0,6,2,1,3,0,-2,-1
1532405565800,-2,-6,0,0,-1,0,-1,1
1532405565805,-1,-8,-7,-3,-3,-2,-1,-2
1532405565810,-1,1,0,0,2,-1,0,-1
1532405565815,-2,-3,0,-1,-2,-1,-1,1
1532405565820,1,2,-2,0,-1,-1,-2,0
1532405565825,0,-3,2,-1,-1,1,-1,-1
1532405565830,3,1,2,1,-1,-1,-2,-3
1532405565835,-5,-3,-2,-5,-1,0,-1,-1
1532405565840,0,-1,0,0,0,-2,-2,-1
1532405565845,0,0,-3,-1,-5,-1,0,0
1532405565850,-1,-4,0,-1,0,-2,-1,0
1532405565855,3,2,1,-1,0,1,-1,-1
1532405565860,-2,1,-4,0,-1,-1,-1,0
1532405565865,2,-2,0,0,1,1,0,0
1532405565870,1,-1,-3,-2,-1,1,-2,-1
1532405565875,-5,-3,-2,-6,-3,-3,-2,-2
1532405565880,1,4,0,2,-1,0,0,-1
1532405565885,1,-4,-1,-1,1,-2,1,0
1532405565890,0,11,2,0,-1,-1,1,0
1532405565895,1,-3,-1,-1,0,0,0,-1
1532405565900,0,-2,-2,-1,0,2,-2,-3
1532405565905,0,1,1,-1,1,2,-1,2
1532405565910,-1,-4,-4,-1,-4,2,-1,-1
1532405565915,2,-1,-1,-2,-3,0,-1,-1
1532405565920,1,4,0,-2,-1,1,-1,0
1532405565925,-3,-2,0,1,-1,1,-2,-2
1532405565930,-1,-4,-1,0,0,-1,1,-2
1532405565935,1,2,-3,-2,0,-2,-1,-1
1532405565940,-2,-6,-1,0,-1,-2,-1,-3
1532405565945,-1,1,2,-2,1,-3,-1,-2
1532405565950,-3,-2,-6,-3,-4,-3,-1,1
1532405565955,-2,-2,-1,0,2,0,-2,-3
1532405565960,-1,1,0,1,0,-3,1,0
1532405565965,2,1,-3,1,2,-1,0,0
1532405565970,-2,13,2,-1,1,-3,-1,-2
1532405565975,0,1,-1,0,-3,-2,0,2
1532405565980,-4,-2,3,-2,-2,-1,-4,-3
1532405565985,-1,1,-6,-1,-4,0,1,-2
1532405565990,0,-8,-1,1,-1,1,1,0
1532405565995,1,3,3,0,1,0,2,1
1532405566000,-2,-1,2,2,-2,0,-2,1
1532405566005,0,1,-3,-1,-1,-1,-2,-2
1532405566010,-3,-6,0,1,0,0,-2,-3
1532405566015,-1,2,0,0,0,-1,-1,-2
1532405566020,-1,-4,-2,-2,-1,0,0,1
1532405566025,1,-1,-1,0,0,0,0,-2
1532405566030,0,-2,0,-1,0,0,1,-1
1532405566035,-1,-2,0,0,1,0,-1,0
1532405566040,1,0,-3,-3,0,-2,1,-1
1532405566045,0,-1,4,-1,-3,1,0,-1
1532405566050,2,6,-4,1,1,-1,-1,0
1532405566055,0,-4,-3,1,1,0,0,-1
1532405566060,-1,1,-1,-4,-5,0,1,0
1532405566065,-3,0,1,0,-1,-1,-1,0
1532405566070,0,-4,1,-2,0,0,0,1
1532405566075,-3,-1,1,1,-1,1,0,-2
1532405566080,-1,1,-4,-3,1,0,-2,-2
1532405566085,-3,1,0,-2,-1,-1,0,1
1532405566090,0,-7,0,-1,-1,-1,-3,-2
1532405566095,1,-2,-4,0,-1,0,0,-1
1532405566100,-2,-4,3,2,-2,-1,-2,-4
1532405566105,-1,-1,-3,-5,-2,-1,-3,-1
1532405566110,1,2,0,1,0,2,-1,0
1532405566115,-5,-7,-2,-3,-2,-1,-2,-1
1532405566120,2,3,-1,0,-1,-1,1,-3
1532405566125,0,-3,0,1,0,-1,-1,-2
1532405566130,-2,-4,3,1,-1,-1,0,1
1532405566135,1,0,-6,-1,-1,1,-1,-1
1532405566140,-1,-1,1,0,-2,-1,-1,-1
1532405566145,-2,-2,-3,-4,-5,0,-2,-1
1532405566150,1,3,0,-1,-2,-1,1,-3
1532405566155,-4,0,1,2,-2,0,-1,1
1532405566160,0,-4,-3,0,1,0,-1,0
1532405566165,2,2,-1,3,5,-2,0,1
1532405566170,1,-3,-1,-4,-2,-1,0,0
1532405566175,0,0,1,-2,-1,-4,1,0
1532405566180,-1,5,-2,-2,-1,-1,0,-2
1532405566185,-3,-6,-1,1,0,-1,-1,-3
1532405566190,0,-3,0,1,1,0,-1,-1
1532405566195,-1,-9,0,-2,-6,-1,-3,-2
1532405566200,1,0,-5,2,3,3,-2,-3
1532405566205,3,9,1,-2,0,-2,0,2
1532405566210,-4,-9,-5,-1,-1,-1,0,-2
1532405566215,0,0,1,-2,-1,-1,-1,-1
1532405566220,-2,-4,0,0,-6,-2,0,1
1532405566225,-1,0,-1,0,2,0,-1,-3
1532405566230,-2,1,-1,1,1,-1,-3,-3
1532405566235,1,1,0,-1,0,-1,0,-2
1532405566240,1,-4,-3,-1,-1,-1,0,-1
1532405566245,-1,-1,-1,0,-1,0,-1,0
1532405566250,0,2,0,1,-1,-1,-2,1
1532405566255,-3,-1,-2,0,0,-1,0,-1
1532405566260,5,5,2,-2,-2,-1,0,1
1532405566265,-11,-12,-3,0,-1,0,0,-1
1532405566270,-2,-1,-1,2,2,-1,0,0
1532405566275,0,-1,-1,-1,-1,1,-2,-2
1532405566280,0,-1,0,1,0,-2,0,-1
1532405566285,5,12,-1,-6,-5,-2,-3,-1
1532405566290,0,0,0,0,-2,-2,0,-1
1532405566295,0,1,1,-1,0,-1,-2,-2
1532405566300,-1,-2,-4,0,3,0,1,1
1532405566305,-2,-6,-1,1,2,-1,0,1
1532405566310,0,5,-4,-5,-4,-3,0,-2
1532405566315,2,3,2,0,0,0,0,-1
1532405566320,-2,-4,3,2,-1,-1,-2,-2
1532405566325,1,-5,-4,-2,0,1,-1,-5
1532405566330,-1,0,3,0,-1,0,0,0
1532405566335,-1,-3,-3,0,-2,0,-1,3
1532405566340,-2,-3,-3,-4,-2,-1,-1,0
1532405566345,-1,-1,-1,0,0,-3,0,-1
1532405566350,0,-1,-2,-2,1,-1,-1,-1
1532405566355,1,-1,-2,0,1,-1,-1,-1
1532405566360,-2,1,-1,-1,-3,0,-1,-2
1532405566365,0,-1,1,-2,0,-1,-1,-3
1532405566370,-9,-4,-3,-1,-4,-1,-2,-2
1532405566375,-1,-1,-2,0,-2,-1,-2,-2
1532405566380,1,2,1,1,3,0,-2,0
1532405566385,0,1,-1,-1,0,0,-1,-1
1532405566390,1,-1,-2,-4,-1,-1,-1,-1
1532405566395,-2,4,4,3,1,-2,0,-1
1532405566400,-2,-3,-7,-2,2,-1,1,0
1532405566405,-2,-1,-1,-2,-7,-3,-1,-2
1532405566410,0,-2,0,0,1,-1,-2,-2
1532405566415,-2,3,1,-1,-2,0,0,-2
1532405566420,-2,-9,-2,-1,2,0,0,-2
1532405566425,-1,5,1,1,1,-1,0,0
1532405566430,1,-1,-3,-3,-2,-2,1,-2
1532405566435,1,-1,-4,-5,-3,-1,0,0
1532405566440,0,0,1,-1,-4,-1,-1,-2
1532405566445,-2,-4,-2,3,3,0,0,2
1532405566450,-2,11,2,2,0,2,-1,0
1532405566455,1,-1,-4,-5,-3,-2,-2,0
1532405566460,-2,1,4,-1,-2,1,-3,0
1532405566465,1,-2,-4,-1,-2,-2,-4,2
1532405566470,-1,-3,-1,-1,-2,0,-2,0
1532405566475,-2,-4,-1,2,1,0,0,-3
1532405566480,-2,2,1,-2,-2,-1,0,0
1532405566485,0,-3,1,-1,-2,0,-1,-3
1532405566490,-1,-4,0,0,1,-1,-1,0
1532405566495,0,2,-2,-4,-3,-4,-1,-2
1532405566500,-3,-8,-2,-1,-3,-1,0,-2
1532405566505,1,1,0,0,3,2,-1,-3
1532405566510,-1,-3,-3,2,-2,-1,-2,-2
1532405566515,0,1,-3,1,-1,1,-2,-1
1532405566520,-3,-4,1,1,-1,-2,-1,-2
1532405566525,-1,0,-1,-3,-3,0,0,1
1532405566530,0,-2,2,-3,0,0,-1,-3
1532405566535,-3,-1,1,1,1,-2,-1,3
1532405566540,-1,-1,-2,1,1,-2,-1,-1
1532405566545,-4,-3,0,-1,-2,-1,-1,-2
1532405566550,1,-3,-2,-2,-1,0,0,-4
1532405566555,0,0,0,-2,-1,1,0,-3
1532405566560,0,1,1,0,1,1,0,-1
1532405566565,0,0,0,1,2,-1,-2,-2
1532405566570,-2,0,-1,-2,-2,-1,0,0
1532405566575,-1,-5,-3,-2,-2,0,-2,-1
1532405566580,-2,1,-1,-1,-2,-1,-1,0
1532405566585,0,1,-3,-1,2,-1,-2,-1
1532405566590,-1,3,2,0,1,-1,-1,-4
1532405566595,-3,-6,-1,0,0,-2,-2,1
1532405566600,1,1,0,-1,-2,0,-1,-1
1532405566605,0,-2,0,0,-1,-1,-1,-1
1532405566610,0,0,-2,-2,-5,-1,0,1
1532405566615,1,2,0,1,1,-3,-1,-1
1532405566620,-1,3,-2,0,-2,-3,1,-1
1532405566625,0,-1,-2,1,3,0,-1,0
1532405566630,2,-1,1,-1,-1,-1,-1,-4
1532405566635,1,1,-2,-1,-4,0,-1,0
1532405566640,-2,-4,0,3,4,-2,0,1
1532405566645,-1,0,1,0,3,0,-1,-2
1532405566650,1,3,-1,-1,2,0,-2,0
1532405566655,1,2,0,-3,-4,-2,-2,-2
1532405566660,1,-2,-1,0,-1,1,0,-2
1532405566665,-3,1,3,0,-1,-1,0,-2
1532405566670,-1,-1,-6,1,3,-1,-3,-1
1532405566675,-2,-2,-1,-6,-7,0,-1,0
1532405566680,3,8,1,0,1,0,1,1
1532405566685,-4,-13,-5,-1,-1,1,0,-2
1532405566690,0,10,4,1,1,0,1,-3
1532405566695,-1,-4,-2,-1,0,-2,-1,-3
1532405566700,-2,0,1,-1,-2,-1,0,-2
1532405566705,3,8,-1,-2,2,0,-2,0
1532405566710,-5,-7,0,-2,-3,-3,1,1
1532405566715,2,0,0,-1,-1,-1,-1,0
1532405566720,0,-1,2,0,1,0,-2,0
1532405566725,-1,-1,-6,-3,-2,-1,1,0
1532405566730,-1,-3,-2,-3,0,-1,-1,-1
1532405566735,-1,1,2,-4,-6,-1,0,1
1532405566740,-2,-4,-1,0,2,1,0,1
1532405566745,-2,0,1,0,-1,0,1,-1
1532405566750,0,2,0,0,-1,0,-2,-2
1532405566755,-6,-3,0,1,3,1,1,1
1532405566760,2,7,-5,-3,-4,-1,-2,-2
1532405566765,-1,-1,0,0,-2,0,-2,-1
1532405566770,-1,-1,2,4,0,0,0,0
1532405566775,2,3,-3,-2,4,-1,-2,-1
1532405566780,1,-3,0,1,-1,0,-3,1
1532405566785,1,3,-1,0,1,-1,0,1
1532405566790,-2,-6,-3,-4,-2,0,-1,0
1532405566795,-5,-1,1,2,-3,-1,-1,-3
1532405566800,-3,-1,-2,-2,0,-1,-1,0
1532405566805,0,1,1,-3,-6,-3,-1,-1
1532405566810,-2,-9,2,1,0,0,0,0
1532405566815,0,-3,-2,1,2,2,0,0
1532405566820,-3,-2,0,-1,2,0,-2,-3
1532405566825,0,0,1,0,-4,-2,-2,-2
1532405566830,-1,2,-1,-2,-1,-2,0,-2
1532405566835,2,-2,-3,-1,-3,-2,1,-1
1532405566840,3,2,-3,-1,0,-1,-2,0
1532405566845,-5,-3,-2,-4,-4,-2,-2,-1
1532405566850,-1,1,-1,-2,0,-1,0,0
1532405566855,-1,-3,-1,-1,0,-1,-1,0
1532405566860,-3,0,3,4,4,1,0,-2
1532405566865,1,0,-1,0,3,-1,0,-2
1532405566870,-1,-3,-2,-2,-2,-1,-2,-1
1532405566875,-1,0,2,1,0,-1,-2,-2
1532405566880,1,-3,-2,-1,-2,-1,-1,-1
1532405566885,-5,-4,-2,-1,1,-1,-2,-1
1532405566890,2,1,2,0,1,0,2,-1
1532405566895,0,-2,-2,-3,-2,-2,-2,-4
1532405566900,-1,-4,-2,-2,-3,0,-1,1
1532405566905,2,2,-2,-1,0,-1,0,0
1532405566910,1,1,-1,0,-2,-1,-1,0
1532405566915,0,1,2,-1,1,-1,1,-3
1532405566920,0,-1,-2,-1,0,0,0,-3
1532405566925,-1,-2,1,0,0,-2,-2,1
1532405566930,-2,-7,-6,-7,-5,-3,-1,1
1532405566935,0,7,4,2,1,-1,-1,2
1532405566940,-4,-6,-4,-4,-4,-1,0,-2
1532405566945,2,3,3,4,2,0,0,-2
1532405566950,-1,-5,-1,1,1,-1,-2,-1
1532405566955,-5,2,-2,0,-3,-3,-2,-3
1532405566960,0,0,2,0,1,-1,-2,-1
1532405566965,0,-2,0,0,-2,-3,-1,-2
1532405566970,1,1,0,-1,-4,0,-2,-2
1532405566975,2,-3,-1,-1,1,-1,0,-1
1532405566980,-3,-5,0,-3,-5,-2,-2,-3
1532405566985,-3,0,-3,-2,-2,1,-1,-2
1532405566990,-3,1,-1,1,1,0,1,-3
1532405566995,-1,1,1,3,1,2,0,0
1532405567000,-1,-7,0,0,0,-1,-2,-1
1532405567005,0,-1,-1,-4,-4,0,-2,-1
1532405567010,1,4,-1,-2,-1,-3,-1,-2
1532405567015,-2,-8,-4,-2,-1,-1,1,1
1532405567020,0,1,2,1,-1,-3,-1,-4
1532405567025,0,-2,-4,-4,-1,0,-2,-2
1532405567030,1,1,-1,0,-2,1,0,0
1532405567035,0,-2,0,-2,-1,-1,3,-1
1532405567040,-1,0,-3,-3,-3,-1,1,1
1532405567045,-1,-2,-2,-1,0,-3,0,0
1532405567050,-2,-1,0,0,0,0,-2,0
1532405567055,2,2,0,-3,-2,0,-4,1
1532405567060,-1,1,-2,1,-2,-2,-2,-1
1532405567065,-2,-4,-1,-1,0,0,-1,-3
1532405567070,-2,-3,-1,1,3,1,-1,-1
1532405567075,-1,1,1,2,-1,-1,-2,-1
1532405567080,2,5,0,0,2,0,1,0
1532405567085,-4,-2,0,-1,-3,-3,-1,1
1532405567090,2,-1,-2,-3,-2,0,-1,0
1532405567095,-2,-3,-4,-3,-4,0,-2,-4
1532405567100,0,-2,0,-3,-1,-1,0,0
1532405567105,0,2,0,3,2,1,-1,-1
1532405567110,0,0,2,1,-1,-1,0,-1
1532405567115,0,-1,0,-1,2,1,0,0
1532405567120,-2,-3,4,2,2,-1,-1,0
1532405567125,0,4,-5,-2,-1,-1,0,-3
1532405567130,-2,0,-2,-4,-4,-1,-1,-2
1532405567135,-1,-2,-3,0,0,0,-3,0
1532405567140,-1,1,1,-2,-1,-1,-2,0
1532405567145,1,-1,1,1,2,2,1,1
1532405567150,2,-1,-1,0,-1,-1,-2,-1
1532405567155,-6,-4,1,1,-3,0,-1,-3
1532405567160,-3,0,1,-2,-2,-2,-1,-3
1532405567165,1,1,-4,-5,-1,-1,-1,-1
1532405567170,-1,-4,0,0,2,-3,0,-3
1532405567175,3,-3,1,0,-1,-2,0,-3
1532405567180,-3,3,-4,-1,-3,0,-1,0
1532405567185,-1,-5,0,-1,-1,1,-1,3
1532405567190,-1,-1,6,1,0,0,0,-1
1532405567195,0,3,-7,-4,0,0,-2,0
1532405567200,1,-5,-2,0,1,0,0,-1
1532405567205,0,1,1,0,-4,-1,-2,0
1532405567210,-2,1,1,0,2,0,0,1
1532405567215,0,-1,1,-1,2,0,0,1
1532405567220,1,-1,0,1,0,0,-1,-3
1532405567225,-1,2,-1,0,-3,-3,-3,-1
1532405567230,-2,0,-2,-1,-2,-1,-2,-4
1532405567235,3,1,1,-1,-4,-1,0,0
1532405567240,-6,-5,-3,-3,-1,0,-2,-1
1532405567245,0,-2,1,-1,-2,-1,2,2
1532405567250,1,3,-4,-1,-1,0,-2,-1
1532405567255,-2,-5,0,-1,-1,-2,-2,-2
1532405567260,0,0,2,-1,-1,0,-3,-2
1532405567265,-1,-4,-1,2,2,0,-1,-4
1532405567270,-3,1,-1,0,1,0,-1,-2
1532405567275,1,0,-6,-2,-4,-1,-2,-1
1532405567280,0,4,2,-3,-2,-1,0,-1
1532405567285,0,-4,-4,-2,0,-1,-2,-1
1532405567290,3,-1,-1,0,-1,-1,0,2
1532405567295,0,1,0,0,0,0,1,0
1532405567300,2,0,-3,0,-3,0,1,0
1532405567305,2,10,4,2,3,0,-2,-2
1532405567310,-2,-6,-2,2,1,0,0,-3
1532405567315,-5,-5,-1,-2,-2,-2,-2,-1
1532405567320,-2,-5,-5,-2,0,-2,-2,0
1532405567325,0,0,1,0,-2,-1,-1,-5
1532405567330,0,-2,-1,-1,0,-3,-3,-2
1532405567335,2,2,0,0,1,0,-1,-1
1532405567340,0,1,-3,-2,-2,-2,0,1
1532405567345,-1,-3,-1,-3,-2,-3,1,-3
1532405567350,-2,0,3,-1,1,0,0,0
1532405567355,-1,3,-3,-1,-1,-1,-2,0
1532405567360,1,-3,-1,0,0,-1,-2,0
1532405567365,3,11,-2,-1,-4,-1,-1,1
1532405567370,-3,-9,2,-1,-4,0,0,0
1532405567375,-1,3,-2,-3,1,-1,-1,-2
1532405567380,-2,0,0,0,-2,1,-1,-2
1532405567385,1,-4,-1,1,2,-2,0,-1
1532405567390,0,-1,-1,-1,1,0,-2,-2
1532405567395,-2,-6,0,-2,-2,-2,-2,-1
1532405567400,0,-3,0,-4,-1,-2,2,-1
1532405567405,-2,-3,0,-1,-1,1,0,-2
1532405567410,1,2,-1,-1,0,-1,-1,-1
1532405567415,3,1,1,0,-1,0,-1,-1
1532405567420,-9,-6,-2,2,3,0,-2,-2
1532405567425,-2,-2,-1,0,-3,0,1,1
1532405567430,0,-2,-3,-5,-4,-1,1,-2
1532405567435,-5,2,2,1,-2,0,0,-4
1532405567440,3,2,0,-1,-4,-1,-2,2
1532405567445,-2,-1,-4,1,3,1,-2,-1
1532405567450,0,1,0,1,-1,-2,-3,1
1532405567455,0,-3,-1,-3,-6,-1,-2,0
1532405567460,-1,-2,2,-1,0,0,0,-3
1532405567465,-1,-3,-1,-2,1,-2,1,-1
1532405567470,-2,-1,0,0,-4,-2,0,-3
1532405567475,1,-3,0,0,3,0,-1,-2
1532405567480,-4,1,-4,-1,-2,-1,-1,2
1532405567485,0,-2,-1,-3,-1,-1,0,0
1532405567490,-1,1,0,-4,-2,-1,-2,2
1532405567495,0,-7,-3,0,0,1,1,2
1532405567500,0,-2,-1,-1,-2,0,-1,-3
1532405567505,0,-2,-2,-1,0,-1,0,-3
1532405567510,-1,4,0,1,0,0,0,-2
1532405567515,-1,-3,-2,0,2,0,1,0
1532405567520,-1,0,1,-1,-2,-2,-1,-2
1532405567525,0,4,1,0,-2,-1,-1,-1
1532405567530,-3,-4,-1,-2,1,-2,0,-2
1532405567535,-2,-3,1,-1,-4,-3,-2,-3
1532405567540,0,-2,0,1,3,1,1,3
1532405567545,0,5,0,0,-3,0,-1,-3
1532405567550,2,0,-3,-2,0,0,-1,-1
1532405567555,-2,0,0,-2,-4,-1,-2,0
1532405567560,0,-3,0,-1,-1,-2,-1,0
1532405567565,-4,-3,-1,-1,-1,-1,-1,-1
1532405567570,3,1,2,1,0,1,0,-1
1532405567575,-1,1,0,1,0,-1,-1,-1
1532405567580,-1,1,-4,-3,-3,-2,-1,-2
1532405567585,-2,-3,0,-2,-1,0,-1,-3
1532405567590,1,0,0,3,1,0,-1,0
1532405567595,0,1,1,0,3,2,-1,2
1532405567600,-2,-2,-3,-2,2,-2,0,-2
1532405567605,2,4,6,-2,-3,-2,0,0
1532405567610,-4,-2,-7,-5,-6,-2,-2,-3
1532405567615,-1,-3,-1,-1,-1,0,-2,-1
1532405567620,1,2,0,1,3,0,1,1
1532405567625,-2,-12,-1,0,0,0,-2,2
1532405567630,1,3,1,-1,-1,-1,1,0
1532405567635,-4,-4,-2,-3,-3,-4,-3,0
1532405567640,2,-2,1,1,0,0,-2,-1
1532405567645,-2,-2,-1,-2,-1,-2,0,0
1532405567650,-2,-2,0,-1,3,1,-2,1
1532405567655,-1,0,-5,-1,-3,-1,0,-2
1532405567660,0,-1,0,-1,-3,0,-2,-2
1532405567665,1,0,-2,-1,-2,-2,-1,-1
1532405567670,0,-1,0,0,0,-2,-1,-1
1532405567675,-4,2,-2,-3,2,1,-1,-1
1532405567680,1,-3,-1,-1,-5,-1,0,0
1532405567685,-1,-2,-4,0,0,1,0,-1
1532405567690,-1,-7,-1,-1,0,-1,-2,-1
1532405567695,3,11,2,2,0,1,-2,-4
1532405567700,0,0,-1,0,0,0,1,-1
1532405567705,0,0,-2,3,4,0,-3,-4
1532405567710,-1,1,-4,-4,-6,-3,-2,-1
1532405567715,-1,-3,-1,0,-2,-1,-2,1
1532405567720,-3,3,2,1,0,-2,-1,0
1532405567725,-1,-6,-1,1,1,-2,-2,-1
1532405567730,-2,3,0,0,0,2,-1,0
1532405567735,1,-8,-2,-2,-3,-2,-1,-1
1532405567740,-7,-6,-2,-7,-5,-1,0,-1
1532405567745,1,4,0,-1,0,1,1,2
1532405567750,-1,1,2,0,0,0,-1,-2
1532405567755,1,1,-4,0,-1,1,0,0
1532405567760,1,-5,-1,-1,1,0,-1,1
1532405567765,0,0,0,-1,-2,-1,-1,0
1532405567770,1,0,0,1,0,0,-2,-3
1532405567775,-1,-5,2,-1,-2,-2,-1,-2
1532405567780,-2,-2,-2,-2,-2,-2,-3,-4
1532405567785,-1,5,0,1,-1,-2,-2,-1
1532405567790,0,-2,-1,-1,0,-1,-1,1
1532405567795,-1,-3,-2,-1,1,-2,-1,-1
1532405567800,0,1,-1,2,2,0,-1,0
1532405567805,-2,-2,-3,-5,-7,-2,-1,-2
1532405567810,1,3,0,0,-1,-1,0,-2
1532405567815,-3,-1,0,0,-1,0,-1,-1
1532405567820,1,3,1,2,1,-2,0,-1
1532405567825,-6,-9,-3,1,1,-1,-1,-2
1532405567830,-2,1,-3,-3,-2,-2,0,-2
1532405567835,0,7,3,1,0,0,1,2
1532405567840,2,-2,-4,-2,-1,0,-2,-2
1532405567845,-2,1,1,0,3,2,-1,-1
1532405567850,-2,-3,-2,-1,-4,0,0,-2
1532405567855,1,-1,0,1,3,-3,-2,-2
1532405567860,-4,-1,0,-2,-4,-1,0,2
1532405567865,1,6,0,-2,-2,-1,-1,0
1532405567870,-4,-3,0,-1,1,0,0,-2
1532405567875,1,-2,-2,0,1,0,-1,-3
1532405567880,0,1,0,0,0,1,4,3
1532405567885,-2,-6,-1,-1,2,0,-2,-5
1532405567890,-2,-2,-2,-3,-2,-3,-1,-3
1532405567895,2,-2,-5,0,-3,0,0,1
1532405567900,-6,-2,1,1,2,0,0,-2
1532405567905,4,2,-1,0,-2,-2,-1,-2
1532405567910,1,-1,0,0,1,-1,1,-3
1532405567915,-3,1,-1,-2,-2,-1,-2,-4
1532405567920,-1,-2,-2,-1,-2,0,-2,-3
1532405567925,0,0,0,-1,-3,0,1,3
1532405567930,-1,1,0,1,0,0,-3,-2
1532405567935,-3,-2,-1,0,1,-2,0,0
1532405567940,2,-1,-2,-3,-2,0,-1,-2
1532405567945,-1,3,0,0,0,-2,-2,-2
1532405567950,-1,-3,-2,-1,-3,0,-1,0
1532405567955,-3,-1,0,2,0,-2,-2,0
1532405567960,1,0,-3,-2,-3,-3,-2,-1
1532405567965,0,-3,-2,-2,-2,2,2,0
1532405567970,-3,-2,0,1,0,1,0,2
1532405567975,-1,0,-1,0,2,1,-1,-3
1532405567980,1,1,0,2,2,-2,-3,-2
1532405567985,-2,-2,-1,-2,-2,-3,0,-5
1532405567990,0,-2,2,2,-1,0,1,3
1532405567995,0,1,0,-2,3,1,-2,0
1532405568000,0,-3,-4,-3,-1,-4,-2,-2
1532405568005,1,-2,1,-1,-1,-1,-2,-2
1532405568010,0,1,-2,-1,0,-1,-1,0
1532405568015,-1,-4,-1,-1,-2,-1,-1,0
1532405568020,-5,-1,0,-1,2,1,0,-2
1532405568025,0,1,-2,1,-1,-1,0,-2
1532405568030,-1,-1,-2,1,1,-3,-3,0
1532405568035,2,0,-1,-3,-2,0,-1,1
1532405568040,2,4,-2,-3,-2,0,-2,-4
1532405568045,-2,0,1,0,-3,-2,0,2
1532405568050,-1,-1,0,-1,-1,-1,-1,-2
1532405568055,-4,-2,-3,0,0,0,1,-2
1532405568060,0,2,2,0,2,-1,0,-3
1532405568065,-1,-3,-2,0,2,-1,0,-1
1532405568070,0,-1,-2,-3,-4,-1,-2,-3
1532405568075,-1,-4,-2,-3,-2,0,-2,-1
1532405568080,0,-2,-2,-1,-4,-1,-1,-1
1532405568085,2,1,0,1,3,0,-1,-1
1532405568090,-3,-2,-2,0,0,-1,-1,1
1532405568095,-1,3,0,0,-1,0,-1,-1
1532405568100,-2,-5,0,1,-1,0,-2,-1
1532405568105,0,-1,-2,-1,-5,-1,0,1
1532405568110,-1,-2,-3,-4,-3,-2,-1,-3
1532405568115,-1,-2,-2,-2,-1,0,0,0
1532405568120,0,0,1,4,2,-2,0,-1
1532405568125,-1,-1,-1,-4,-1,-2,1,0
1532405568130,0,1,-1,0,-1,-1,0,0
1532405568135,0,-1,0,0,2,-2,0,-3
1532405568140,-2,-2,0,0,0,1,0,0
1532405568145,-1,-2,1,1,0,-2,-3,-3
1532405568150,1,1,-1,-1,-4,-1,0,0
1532405568155,-3,-1,0,-1,-1,-1,-2,0
1532405568160,0,3,-1,-1,-4,-1,-1,-1
1532405568165,-1,-9,-3,-1,2,0,-2,-1
1532405568170,-1,10,0,1,1,0,0,-2
1532405568175,-2,-10,-3,-2,-1,-2,0,0
1532405568180,-4,1,-1,-3,-2,-1,-1,-1
1532405568185,-1,0,-2,-1,-6,-3,0,-1
1532405568190,-2,-4,1,-1,0,-1,-1,-1
1532405568195,3,-1,0,-2,-2,-1,0,3
1532405568200,2,4,0,0,0,0,-2,0
1532405568205,0,4,2,1,-1,-1,0,-4
1532405568210,-2,-9,-2,-1,2,0,-1,-1
1532405568215,-4,1,-1,0,-4,-1,0,-3
1532405568220,1,-6,-1,-2,-2,-2,-1,2
1532405568225,0,2,-2,0,2,1,-1,0
1532405568230,0,0,0,0,-2,1,-2,-2
1532405568235,1,-1,0,0,1,0,0,-2
1532405568240,-1,-3,-2,-1,0,-2,1,0
1532405568245,1,1,0,-4,-1,-1,-1,-1
1532405568250,0,-5,-2,-2,-4,1,-3,-3
1532405568255,0,2,1,1,2,-1,-2,-2
1532405568260,2,0,1,1,0,0,0,-3
1532405568265,-2,-4,1,0,0,-3,-1,0
1532405568270,-4,-1,0,0,1,1,-1,0
1532405568275,0,6,0,-1,-3,-1,-1,1
1532405568280,-2,-4,-2,2,3,0,-1,0
1532405568285,0,-7,-3,-1,-1,2,0,1
1532405568290,2,2,1,-2,-3,-1,0,1
1532405568295,-1,0,-1,-2,-3,-2,0,-4
1532405568300,0,-6,-1,-1,0,-1,-2,-1
1532405568305,-2,-1,-2,-5,-6,-1,-2,1
1532405568310,-2,-3,0,1,2,0,-1,-2
1532405568315,1,1,0,0,-1,-2,-1,0
1532405568320,-2,0,-1,-2,-2,-3,0,-1
1532405568325,1,2,-2,-1,0,-1,0,-1
1532405568330,0,-3,0,1,1,-1,-2,2
1532405568335,0,-1,-2,0,0,0,-1,-1
1532405568340,-2,0,0,-2,-5,-1,-2,-2
1532405568345,-3,-3,-2,-2,-2,-1,-2,-2
1532405568350,2,-5,0,0,0,2,0,-2
1532405568355,-5,-1,-1,0,1,1,-1,-1
1532405568360,-2,1,0,-1,0,-1,-2,-1
1532405568365,-2,0,0,1,2,0,0,-1
1532405568370,3,3,-1,0,-2,-4,-1,-1
1532405568375,0,0,-1,0,-1,1,0,1
1532405568380,4,1,1,1,0,-2,-1,0
1532405568385,-3,4,-1,-4,-5,0,-2,0
1532405568390,-1,2,-2,0,3,-3,-2,-3
1532405568395,-2,-8,0,0,3,-2,-1,1
1532405568400,0,9,-1,-4,-5,0,0,1
1532405568405,2,-7,1,1,-1,0,-1,-3
1532405568410,1,0,-4,-3,-3,0,0,-1
1532405568415,0,-2,0,0,-4,0,-2,-1
1532405568420,0,-4,-2,-1,-1,0,0,-3
1532405568425,-6,1,2,2,1,-4,-2,0
1532405568430,1,3,1,1,-2,0,1,-3
1532405568435,-1,5,-1,-5,-2,-3,-2,-3
1532405568440,-3,-4,-2,-1,-4,1,0,1
1532405568445,1,1,-1,-2,-4,0,0,0
1532405568450,-4,-1,1,-1,3,0,-2,0
1532405568455,-1,4,1,-1,0,-1,-1,-1
1532405568460,-1,-7,-1,-1,-1,-1,-2,-2
1532405568465,1,0,0,-1,0,-1,-1,-2
1532405568470,-3,-3,0,0,1,-3,0,-1
1532405568475,3,8,1,0,0,1,0,-1
1532405568480,-1,0,-3,0,-1,-1,-2,-1
1532405568485,0,1,-2,-4,-1,-1,1,-1
1532405568490,-1,-4,-3,1,-3,-2,-2,1
1532405568495,0,-3,-4,-4,-3,0,-1,-1
1532405568500,-2,-6,-1,-1,4,0,-3,-3
1532405568505,-3,1,2,0,-2,-1,1,-3
1532405568510,0,-1,-1,-2,-4,2,-2,-2
1532405568515,-2,-1,-3,-2,2,-2,-1,-2
1532405568520,-1,1,0,-1,-2,-3,2,1
1532405568525,-2,-3,-2,-1,-1,1,-2,-1
1532405568530,4,4,0,-3,-4,-1,-1,0
1532405568535,-3,-4,1,1,0,0,-1,1
1532405568540,0,-4,-2,2,4,1,0,-4
1532405568545,-1,2,0,0,0,1,1,-3
1532405568550,0,3,-1,-4,-1,-2,-2,0
1532405568555,2,-5,-1,1,-3,-1,-1,-1
1532405568560,0,2,0,-2,-1,-2,-2,0
1532405568565,0,-1,0,-2,2,0,-2,2
1532405568570,-2,-4,-2,0,2,1,0,-1
1532405568575,0,-1,-2,-5,-6,-3,-1,-2
1532405568580,-3,5,-3,-5,-2,1,-1,-1
1532405568585,1,-7,-1,1,-1,2,0,0
1532405568590,0,1,1,2,0,0,0,-1
1532405568595,-1,-3,-1,-2,0,-1,0,-1
1532405568600,-2,3,1,1,0,-1,0,-4
1532405568605,0,-2,-2,-1,1,-2,-3,-1
1532405568610,-3,-1,-1,-3,-3,0,0,-2
1532405568615,-1,-2,-2,-1,0,1,-2,-3
1532405568620,2,1,0,1,-1,-1,-2,-1
1532405568625,-3,-5,-2,-2,-3,-3,-1,-2
1532405568630,-3,-2,0,1,3,-1,0,-2
1532405568635,1,-1,-1,1,-2,-1,-3,0
1532405568640,0,-5,-3,-4,-3,0,0,1
1532405568645,-4,-1,0,0,2,-1,-1,-1
1532405568650,2,0,-2,-2,-4,-2,1,0
1532405568655,1,-1,-1,0,1,0,0,0
1532405568660,-1,-1,-3,1,2,0,-2,0
1532405568665,0,2,3,-2,-4,-1,-1,-3
1532405568670,2,0,-6,-3,-3,-2,-2,-1
1532405568675,-2,-3,0,0,0,-1,-1,-2
1532405568680,0,-3,2,-2,-2,1,-1,-3
1532405568685,0,-1,-3,0,0,-3,-1,-1
1532405568690,0,-2,2,0,-1,-2,-1,1
1532405568695,-1,2,-2,-3,-3,-2,-1,-2
1532405568700,-4,-8,-1,-3,-1,-1,-1,-1
1532405568705,-2,5,-1,-2,-4,-2,-1,1
1532405568710,1,-3,-2,1,1,0,-1,0
1532405568715,-3,-3,-1,1,0,0,0,1
1532405568720,0,8,1,-1,0,-1,0,0
1532405568725,1,-5,-1,0,0,0,0,-1
1532405568730,-1,-1,-2,2,2,-1,0,-2
1532405568735,0,1,-2,-3,-2,-2,-2,-2
1532405568740,2,-1,-1,-1,-5,-1,-2,-1
1532405568745,-6,-1,-3,0,-1,0,0,-2
1532405568750,2,4,0,0,1,-2,-3,-1
1532405568755,0,-4,-1,-2,-2,-2,0,1
1532405568760,4,5,0,4,3,0,1,0
1532405568765,-4,1,0,-3,-3,0,-1,0
1532405568770,-1,-5,-1,-2,-3,-1,-1,-5
1532405568775,-1,0,0,-3,0,-1,-2,-1
1532405568780,-3,-2,0,0,1,-3,-1,0
1532405568785,2,-1,-1,1,5,0,-2,0
1532405568790,-3,6,0,-2,1,-2,-1,-1
1532405568795,-2,-3,0,0,-4,0,0,-2
1532405568800,-3,-7,-3,-1,-1,-2,1,1
1532405568805,1,0,-3,-1,-1,1,-1,1
1532405568810,-2,-2,-1,-2,-3,0,-1,0
1532405568815,2,7,-4,2,2,0,-2,-3
1532405568820,-4,-2,0,-2,-6,-2,-1,-4
1532405568825,6,5,-2,-4,-3,-1,-1,-2
1532405568830,-3,-7,-1,-3,-2,1,0,0
1532405568835,-1,2,0,-1,-1,0,0,-1
1532405568840,0,-1,1,3,7,0,-1,-1
1532405568845,-2,2,-1,-3,-4,-2,-2,-2
1532405568850,2,-2,0,-1,-1,-1,-2,-2
1532405568855,1,3,-2,-3,0,0,1,3
1532405568860,-2,-12,-1,-3,-2,-3,-7,-2
1532405568865,-1,-6,-1,0,0,-1,-2,-1
1532405568870,-2,-3,-1,2,2,0,0,-1
1532405568875,2,-6,-2,4,3,-1,-1,-1
1532405568880,-5,3,-1,-3,-6,-1,-5,-3
1532405568885,-4,-2,2,-2,-3,-1,7,-1
1532405568890,3,-1,0,-2,-1,0,-2,0
1532405568895,-1,-5,-1,0,0,-1,0,-3
1532405568900,3,0,-2,0,-3,0,0,-1
1532405568905,-1,0,-1,2,1,-1,-2,-2
1532405568910,-3,3,0,1,2,-1,1,-4
1532405568915,0,-1,-2,-3,-1,0,-1,0
1532405568920,-2,1,1,0,0,1,2,-2
1532405568925,2,4,1,-1,-1,-4,-2,1
1532405568930,-4,-9,-2,0,0,-1,1,0
1532405568935,-1,-4,1,0,-1,-2,-2,0
1532405568940,1,2,-1,0,-1,-1,0,0
1532405568945,-4,1,0,-2,1,2,-1,-1
1532405568950,0,-2,-2,-1,-1,-3,-2,0
1532405568955,-3,0,1,-1,-3,0,-1,-3
1532405568960,-1,-1,-2,1,3,0,1,-2
1532405568965,-1,0,1,1,0,-3,-5,1
1532405568970,0,3,-1,-4,-2,-1,1,0
1532405568975,2,0,0,-1,-1,3,2,0
1532405568980,1,4,1,2,3,-2,1,0
1532405568985,3,-6,-2,-1,-4,-2,-4,-1
1532405568990,-3,2,0,-1,-1,0,1,-1
1532405568995,-4,-4,-1,-2,-3,0,-1,-2
1532405569000,2,13,0,-1,-2,1,0,-2
1532405569005,-2,-5,-2,-3,-1,-2,-2,-2
1532405569010,0,-4,2,0,-3,0,0,2
1532405569015,-2,-1,-1,-1,0,-2,-1,1
1532405569020,0,-2,1,-1,-1,-3,-2,-1
1532405569025,1,1,-4,1,0,0,3,-1
1532405569030,-4,3,0,-1,-2,0,-3,-2
1532405569035,1,-2,-2,-1,1,-1,-2,-3
1532405569040,-2,-2,0,-1,-2,0,1,-2
1532405569045,-1,0,-1,0,0,-1,-1,-1
1532405569050,0,1,-1,1,1,1,-1,0
1532405569055,0,2,1,-1,2,0,-3,0
1532405569060,-3,-4,-3,-5,-6,-1,-4,-3
1532405569065,3,-3,-2,2,2,0,2,3
1532405569070,-5,1,0,1,2,-2,-1,-1
1532405569075,0,0,0,-2,-2,-2,-1,-2
1532405569080,1,5,-2,0,-1,1,-7,-3
1532405569085,0,1,1,0,3,-3,0,2
1532405569090,-2,-4,-1,0,-1,0,0,-2
1532405569095,1,4,1,0,-2,-2,0,1
1532405569100,-3,-12,-3,0,1,3,2,3
1532405569105,-1,1,-2,-2,-2,0,-3,-2
1532405569110,2,8,0,-1,-2,-4,-3,-2
1532405569115,-3,-7,-3,-4,-7,-2,0,-2
1532405569120,2,-3,-3,0,1,-2,0,-2
1532405569125,-5,0,1,1,0,1,1,-3
1532405569130,3,-1,-2,-2,-4,-1,0,0
1532405569135,-2,-1,-1,-2,1,-1,-3,-4
1532405569140,0,1,0,-2,1,-2,1,1
1532405569145,0,-3,1,1,0,1,-1,-2
1532405569150,0,-2,-3,0,2,0,-1,-1
1532405569155,-1,-1,1,2,-1,0,1,1
1532405569160,0,-3,-4,-1,-4,0,-2,-1
1532405569165,-1,-1,-1,-2,-1,-5,-3,-5
1532405569170,7,11,-1,-4,-2,-1,-2,1
1532405569175,-8,-14,-4,0,2,0,0,-3
1532405569180,-1,-2,0,1,-1,-1,2,-2
1532405569185,-1,2,-1,1,-1,0,-5,0
1532405569190,0,-4,-1,-2,-5,1,-1,-1
1532405569195,2,4,0,1,1,-3,-2,-2
1532405569200,-2,1,0,-2,-3,-3,-2,-5
1532405569205,2,1,-1,-2,-2,-1,-1,1
1532405569210,-5,-8,-2,0,1,0,3,-3
1532405569215,-1,1,0,-2,-3,-2,-1,0
1532405569220,0,-5,1,1,1,0,1,3
1532405569225,1,1,-1,2,2,3,1,1
1532405569230,0,1,-1,0,-1,-2,-2,-1
1532405569235,-5,1,1,1,0,1,0,0
1532405569240,2,3,-1,-1,0,-1,-1,2
1532405569245,-2,0,0,-1,-3,-2,-1,-3
1532405569250,-1,-3,0,0,1,0,0,0
1532405569255,1,2,1,-1,-4,-1,-2,-4
1532405569260,0,-2,-3,-2,0,-1,-1,-2
1532405569265,-6,-9,-3,-1,0,0,0,-1
1532405569270,-2,-3,-2,-2,-3,-2,-2,-2
1532405569275,-1,2,0,0,-2,-1,1,0
1532405569280,0,-1,-2,-2,-2,-2,-3,0
1532405569285,3,1,1,0,-3,-2,0,0
1532405569290,0,-1,-1,3,1,1,1,-3
1532405569295,-1,-2,-2,-1,-1,-2,-5,0
1532405569300,-1,1,-1,-1,0,-2,-4,0
1532405569305,0,0,-1,-1,-1,-2,3,-3
1532405569310,-2,-5,1,0,1,3,1,1
1532405569315,0,0,-2,0,1,-3,-2,0
1532405569320,-2,-2,0,0,-3,0,1,0
1532405569325,2,-1,0,-2,-2,0,-1,0
1532405569330,-3,2,0,-2,-2,-3,-1,-4
1532405569335,2,-1,-2,-3,-3,3,1,-3
1532405569340,-2,6,1,0,0,-1,-1,0
1532405569345,2,-7,-2,0,-2,-3,-3,-1
1532405569350,-2,0,-1,0,-1,0,0,-2
1532405569355,0,-1,-1,0,2,-1,-1,1
1532405569360,-3,-3,-1,-3,-2,0,1,0
1532405569365,-1,3,0,-2,1,3,0,1
1532405569370,0,-3,-2,-2,-1,-2,-1,-1
1532405569375,0,1,-3,1,1,-2,0,-1
1532405569380,1,-1,0,-1,-3,-1,0,-4
1532405569385,-2,-4,-1,-3,-3,1,4,-3
1532405569390,0,-1,1,0,-1,-2,-2,-1
1532405569395,-1,3,1,1,1,2,0,-2
1532405569400,-2,-7,-2,0,1,1,-2,-1
1532405569405,-2,2,1,1,2,-1,-2,-1
1532405569410,2,1,0,-4,-3,-2,-1,3
1532405569415,-1,-1,-2,-1,-4,-1,-4,-3
1532405569420,3,-4,0,-1,1,-1,5,0
1532405569425,-7,0,-1,1,-1,-5,-7,-4
1532405569430,-1,-1,-1,2,2,0,0,1
1532405569435,2,7,0,-2,-1,-1,-1,1
1532405569440,-1,0,0,1,-1,0,0,-2
1532405569445,0,-1,1,-3,-1,1,1,3
1532405569450,1,-1,-1,-3,-2,0,2,0
1532405569455,0,-2,2,-2,1,-3,-4,-1
1532405569460,-2,1,-2,-2,0,0,-1,0
1532405569465,0,-1,-2,0,0,0,1,-1
1532405569470,-2,-1,0,0,1,0,-3,-3
1532405569475,-1,-4,-1,0,-2,1,0,-1
1532405569480,0,4,0,-1,-2,-5,-4,-3
1532405569485,-1,-10,-1,-1,-2,0,-2,0
1532405569490,0,0,-1,-1,-2,0,-4,-2
1532405569495,2,0,0,-1,1,1,4,-1
1532405569500,-3,-3,0,-2,-2,-1,-3,-3
1532405569505,0,4,-3,-1,-2,-1,-3,-3
1532405569510,-1,11,1,1,1,-1,-1,-1
1532405569515,1,0,0,2,1,0,2,1
1532405569520,-4,-4,-2,-1,0,3,0,1
1532405569525,0,3,0,0,1,-3,-3,1
1532405569530,0,-2,-1,-3,-4,-5,-7,-5
1532405569535,-5,-3,-2,-2,-3,0,6,0
1532405569540,0,1,2,2,2,-4,-5,-1
1532405569545,0,-1,0,0,-2,2,3,-4
1532405569550,0,0,-2,2,1,-2,-4,0
1532405569555,-2,-7,-1,-2,-3,-1,-2,-1
1532405569560,1,2,-1,-2,-1,3,2,-1
1532405569565,0,-5,-1,-1,1,-2,-1,0
1532405569570,1,1,0,-1,-1,-6,-2,1
1532405569575,-1,-1,-2,-4,-3,0,-2,2
1532405569580,-1,0,-1,-1,-3,2,2,1
1532405569585,1,0,-2,-2,0,0,-2,0
1532405569590,0,6,-1,0,0,3,3,-1
1532405569595,-1,-2,0,2,4,0,-4,-2
1532405569600,-3,-2,-1,-1,-3,-1,3,1
1532405569605,-4,-2,-1,-2,0,-2,-3,-1
1532405569610,1,-5,-1,-1,-3,-2,-1,2
1532405569615,-1,0,-3,0,1,-2,-3,-2
1532405569620,1,1,-1,0,0,1,-7,-4
1532405569625,-1,1,0,2,-3,-2,2,-1
1532405569630,-2,-4,-1,-2,1,-1,2,-5
1532405569635,0,-3,-1,-3,-2,1,0,0
1532405569640,-1,2,0,-1,-2,-4,-3,0
1532405569645,0,-3,-2,-3,1,-1,-2,-1
1532405569650,2,0,0,2,2,0,-1,-2
1532405569655,0,-4,2,0,-1,3,4,-1
1532405569660,-2,-2,-1,2,2,-2,1,0
1532405569665,-2,2,0,0,0,-3,-8,-5
1532405569670,-2,-3,-1,-2,-4,-2,-2,1
1532405569675,-1,2,-1,-1,3,2,7,0
1532405569680,0,0,-3,-3,-2,-3,0,0
1532405569685,-1,0,0,-2,-3,-1,-2,-2
1532405569690,-1,-3,-3,-2,3,3,1,-2
1532405569695,-1,0,1,0,-1,-1,-3,-1
1532405569700,1,8,-1,1,0,0,4,1
1532405569705,1,2,-2,-3,-1,-4,-4,-1
1532405569710,-6,-8,-3,-2,-4,-1,-2,-2
1532405569715,1,2,0,-1,0,-3,-4,-1
1532405569720,-1,-4,1,3,3,3,3,-1
1532405569725,2,-1,0,1,0,2,2,2
1532405569730,-1,4,0,-2,-6,-3,-6,-1
1532405569735,-1,-7,-3,-3,-3,0,-2,0
1532405569740,-2,-2,1,-4,-3,-5,-5,-1
1532405569745,1,-1,-3,1,2,7,9,1
1532405569750,-4,3,4,2,2,-10,-6,-5
1532405569755,-2,3,7,1,-3,-14,-7,-3
1532405569760,2,29,-24,-2,-1,7,1,0
1532405569765,-7,-32,7,0,5,5,4,-3
1532405569770,1,-9,-21,-3,-3,-1,4,-3
1532405569775,-1,21,3,-3,-2,20,0,-1
1532405569780,0,-27,9,2,-2,-12,-4,1
1532405569785,-5,16,-16,-1,0,-6,-4,0
1532405569790,6,-9,-9,2,5,-1,-1,3
1532405569795,-6,-5,25,-1,0,4,7,0
1532405569800,-1,-5,-2,-1,-1,0,-5,-1
1532405569805,1,15,9,0,-6,1,4,-3
1532405569810,-4,-8,5,-1,4,6,3,2
1532405569815,2,6,-5,-1,-1,-4,0,0
1532405569820,0,-5,3,2,-3,-2,-4,0
1532405569825,1,-6,-11,-2,-3,-5,-3,-1
1532405569830,1,12,14,-3,-4,-15,-6,-1
1532405569835,2,-12,-8,1,1,9,3,1
1532405569840,-5,2,-4,-1,-1,-8,-6,-4
1532405569845,0,0,10,-1,1,2,-2,1
1532405569850,-2,-9,-1,2,3,12,-4,-1
1532405569855,-1,-5,-2,3,-2,-13,-9,-1
1532405569860,2,0,1,-3,1,4,-4,-2
1532405569865,0,7,0,0,-1,1,-8,0
1532405569870,-3,2,3,0,-2,-4,-5,1
1532405569875,-3,-9,-7,-1,-2,-2,-6,-3
1532405569880,0,1,3,1,2,-13,0,-1
1532405569885,-2,-5,-3,-2,1,8,-2,-4
1532405569890,3,3,-5,-3,-6,5,3,0
1532405569895,3,9,-1,2,1,-12,-5,-10
1532405569900,0,-22,-2,-1,-2,7,4,-6
1532405569905,-6,1,-1,0,-1,-15,-3,-3
1532405569910,11,9,-2,-1,-1,14,5,-1
1532405569915,-12,-2,-6,0,4,8,7,-2
1532405569920,2,3,2,1,-2,-2,3,0
1532405569925,0,-3,-3,0,-4,-4,4,-1
1532405569930,1,-2,2,-4,-6,-21,-7,1
1532405569935,2,-1,-9,0,3,23,10,4
1532405569940,3,-4,-3,-1,4,1,4,-4
1532405569945,-2,11,5,4,-1,-12,-5,-6
1532405569950,-7,-14,-1,-3,1,7,2,-2
1532405569955,-12,3,0,-3,-7,-11,-6,-9
1532405569960,-10,-9,-5,-4,2,3,-3,3
1532405569965,10,6,3,1,1,-1,1,8
1532405569970,-2,-1,-1,-2,-4,-20,-3,2
1532405569975,8,-11,-7,2,0,11,1,10
1532405569980,-1,18,8,-6,-2,-2,-5,-13
1532405569985,-4,4,6,1,-4,-1,1,-9
1532405569990,-7,2,-1,2,3,1,-3,-2
1532405569995,3,-5,1,-1,-1,-12,-4,0
1532405570000,8,5,-2,1,-3,2,-1,8
1532405570005,-11,-17,-2,-4,2,9,-1,2
1532405570010,10,3,-1,-1,-2,-13,0,2
1532405570015,-17,0,-1,-1,1,9,-2,1
1532405570020,-4,-9,-1,3,2,5,1,0
1532405570025,5,0,-4,-5,-4,-3,-3,-1
1532405570030,-6,5,1,0,1,-1,9,-2
1532405570035,-4,0,-10,-1,0,-3,2,4
1532405570040,3,-5,10,-2,-3,6,-6,3
1532405570045,-16,1,-3,2,0,-4,2,-7
1532405570050,5,-2,-1,-2,-4,-2,-6,1
1532405570055,11,7,4,-1,-3,-3,-6,-4
1532405570060,-17,-6,-3,-3,-3,2,3,-7
1532405570065,14,-5,-5,-4,-2,-17,-4,2
1532405570070,-1,-3,4,3,3,24,1,-6
1532405570075,5,6,1,3,0,-9,4,-5
1532405570080,-3,-5,-2,-3,1,7,2,0
1532405570085,0,-5,1,-3,-3,9,-2,0
1532405570090,-2,4,-1,1,-1,-1,-1,-1
1532405570095,-1,-5,0,-3,-5,-20,-10,-2
1532405570100,1,8,-4,2,-2,10,5,1
1532405570105,15,10,0,0,-2,-12,0,6
1532405570110,-23,-19,-4,1,6,40,-4,-5
1532405570115,-1,-3,-3,-4,-5,-23,9,-1
1532405570120,1,-2,1,-2,-5,-18,-19,-2
1532405570125,1,3,0,2,7,23,4,2
1532405570130,-1,-5,-4,1,3,-16,-7,-1
1532405570135,1,-5,1,-4,-3,-2,6,1
1532405570140,4,2,-2,1,-1,3,-4,1
1532405570145,-13,-7,-4,-6,-5,-11,-6,0
1532405570150,9,7,2,-3,-5,5,9,1
1532405570155,-16,-6,2,-1,1,0,-5,-3
1532405570160,1,2,-5,0,0,-15,0,-1
1532405570165,3,-3,0,1,1,4,1,2
1532405570170,-6,-7,3,0,-3,4,-1,-5
1532405570175,5,2,-2,-4,-5,7,-1,0
1532405570180,1,2,1,4,6,-11,-2,0
1532405570185,0,1,3,1,4,10,7,0
1532405570190,0,-1,-3,-1,1,-13,4,2
1532405570195,3,-1,-1,1,1,3,-5,-5
1532405570200,-1,3,-1,-5,-4,-2,0,0
1532405570205,-6,-4,-2,-1,-2,3,-3,-2
1532405570210,5,6,2,0,0,-7,0,-2
1532405570215,4,2,0,2,4,4,-2,1
1532405570220,-2,-2,-1,1,1,2,0,-5
1532405570225,-3,0,-1,-3,-5,-7,-2,-3
1532405570230,-1,1,-3,-2,-2,1,4,0
1532405570235,2,-1,0,0,-3,-4,-5,-1
1532405570240,-2,-2,-1,-3,-3,-1,3,-1
1532405570245,1,-3,-1,-3,-2,-1,2,-2
1532405570250,0,4,-2,-2,-1,-5,-7,0
1532405570255,1,-2,1,2,5,3,-4,-3
1532405570260,0,3,2,2,1,-1,3,1
1532405570265,-1,-6,-5,-3,1,-1,-2,-2
1532405570270,-2,-3,0,-1,-1,-1,-1,-2
1532405570275,0,-1,-2,0,-1,-2,-2,0
1532405570280,1,0,2,0,-3,1,0,-1
1532405570285,-5,-9,-1,1,2,-2,-3,-3
1532405570290,1,3,1,0,0,-3,1,-2
1532405570295,1,-2,-3,-4,-7,-3,-7,0
1532405570300,-2,-5,1,-1,-3,2,-2,-1
1532405570305,5,7,1,-1,-2,1,-5,0
1532405570310,-1,-6,-1,0,-2,-1,4,1
1532405570315,-1,1,0,-1,2,0,-1,-1
1532405570320,-1,-3,-1,-4,-3,-4,-2,-2
1532405570325,-6,2,-2,1,2,1,0,-3
1532405570330,1,4,-1,0,0,0,-1,3
1532405570335,0,-3,-1,1,0,0,1,-3
1532405570340,-1,-1,0,-1,1,1,0,-1
1532405570345,0,3,-1,3,-1,0,3,-2
1532405570350,2,-4,-2,0,0,-1,-1,-1
1532405570355,-5,1,-1,-2,-3,-1,-1,2
1532405570360,0,2,-1,0,-2,1,-1,-3
1532405570365,1,-7,-1,1,2,-1,0,-2
1532405570370,-2,3,-1,-4,-2,-3,-2,-2
1532405570375,0,-5,-2,-3,-3,-1,-2,-1
1532405570380,-2,-6,-1,2,3,2,2,1
1532405570385,-2,0,0,0,1,-1,-3,1
1532405570390,-1,-3,-1,-4,-4,-1,-3,0
1532405570395,-3,0,-2,-1,-2,0,0,-2
1532405570400,-1,2,1,-1,-1,-1,2,0
1532405570405,1,-5,-3,0,0,1,0,-3
1532405570410,-3,1,-1,0,2,-2,0,-1
1532405570415,1,-1,-1,-2,0,-1,-1,-2
1532405570420,2,3,0,-1,-2,0,-2,-1
1532405570425,1,-3,-1,-1,-1,-3,-2,-1
1532405570430,0,1,-2,-3,-2,0,-1,-1
1532405570435,0,-1,1,0,-3,-1,-2,-2
1532405570440,-3,-2,-1,1,2,2,0,-3
1532405570445,1,0,-1,-3,-2,0,-3,-1
1532405570450,0,-1,1,2,-1,-1,-2,-2
1532405570455,-2,-5,-3,2,3,-1,1,-1
1532405570460,-1,1,-3,-2,-3,-3,-1,1
1532405570465,0,-1,-1,-1,-2,-1,-2,-1
1532405570470,-1,1,-1,-2,0,0,-2,-1
1532405570475,0,3,-1,-1,-3,-1,0,-2
1532405570480,-2,1,1,0,1,-2,-1,-3
1532405570485,3,-2,-2,-1,-2,0,0,1
1532405570490,-6,-2,-2,1,1,0,-2,-2
1532405570495,0,0,0,-1,-3,-2,-1,-1
1532405570500,-1,-2,-2,-2,0,2,-1,-3
1532405570505,-2,-5,-2,0,-1,-4,-1,-1
1532405570510,2,2,-1,0,0,-1,-2,-2
1532405570515,-1,-2,-1,-1,1,1,-1,-1
1532405570520,0,-2,-1,-2,-3,-1,-1,1
1532405570525,-2,1,0,-2,-2,-1,0,-1
1532405570530,1,-3,-1,0,0,0,-1,0
1532405570535,-1,1,0,0,-1,2,-1,0
1532405570540,-1,0,-2,-1,-2,1,-2,-2
1532405570545,-2,-1,0,-3,-3,-2,0,-1
1532405570550,0,-3,0,-2,-2,-2,-1,0
1532405570555,1,3,0,-3,2,-1,-1,0
1532405570560,-1,-4,0,0,-3,-1,0,-1
1532405570565,-1,1,0,-1,0,-1,-1,-3
1532405570570,-1,-1,0,-1,-2,-2,0,-5
1532405570575,-1,-2,-1,-2,0,-1,0,-2
1532405570580,2,-3,-1,-2,-2,-1,-1,1
1532405570585,-4,1,0,-2,-1,0,-1,-1
1532405570590,0,-1,-2,0,-2,0,0,-2
1532405570595,0,-4,0,3,2,0,-1,1
1532405570600,1,-1,-3,-2,-3,-1,-2,-1
1532405570605,2,-1,0,0,-1,0,0,1
1532405570610,0,2,0,-2,-3,-3,0,3
1532405570615,0,-3,0,0,-1,-2,1,-1
1532405570620,-4,-3,0,1,1,-1,-2,1
1532405570625,3,-3,-2,-2,0,1,0,-1
1532405570630,-6,-3,0,-2,-1,-1,-4,-2
1532405570635,5,10,0,-2,-4,-1,-1,-1
1532405570640,-9,-5,0,-1,-2,-3,-1,-1
1532405570645,-5,2,-1,-1,1,0,-1,-1
1532405570650,-1,-9,-2,3,0,-1,0,1
1532405570655,-5,-5,-3,-2,-1,0,-1,1
1532405570660,1,2,-1,-1,-4,-2,1,0
1532405570665,4,3,0,0,-2,-1,-2,0
1532405570670,-3,-2,-1,2,0,0,1,-3
1532405570675,-2,-1,0,-1,-1,-2,-1,-2
1532405570680,1,-1,-2,-1,1,0,-2,0
1532405570685,-4,1,1,0,0,0,0,-2
1532405570690,4,-4,-4,-4,-5,0,-2,-2
1532405570695,-1,1,0,1,1,-2,-1,-2
1532405570700,-1,1,1,-1,0,0,-1,0
1532405570705,0,0,-1,2,0,-1,-1,0
1532405570710,0,3,-1,1,1,-1,0,1
1532405570715,-1,-1,0,-3,-4,-2,0,-2
1532405570720,1,-2,-2,-1,-1,-2,1,0
1532405570725,-1,1,2,1,1,-1,-2,1
1532405570730,0,1,0,1,2,1,0,-4
1532405570735,-2,-3,-1,-1,-2,0,-1,0
1532405570740,1,-3,-3,-2,0,-2,-2,-2
1532405570745,0,4,-1,-3,-4,-2,-1,0
1532405570750,-1,1,-1,-1,-1,0,-2,3
1532405570755,0,1,1,1,1,0,-1,1
1532405570760,-2,-1,0,1,1,1,0,-1
1532405570765,0,-5,-1,-2,-4,-1,0,-2
1532405570770,-1,0,-1,0,-1,-1,0,-2
1532405570775,-1,4,0,-1,-1,1,-1,-2
1532405570780,3,-6,-3,-2,-1,-1,-2,-4
1532405570785,-6,-2,0,-2,-5,0,-1,-2
1532405570790,0,2,1,-2,1,-1,-2,-1
1532405570795,-2,-3,-3,-1,-2,-2,-1,-1
1532405570800,1,2,0,0,1,0,0,-2
1532405570805,0,-2,0,2,3,1,-1,0
1532405570810,-1,-1,-1,-5,-5,-2,-1,-2
1532405570815,-1,-2,-2,0,1,-2,-2,-1
1532405570820,-1,-2,1,-1,0,-1,-2,-2
1532405570825,2,-1,-2,1,3,0,1,-2
1532405570830,-1,-1,0,0,2,0,-2,1
1532405570835,0,-1,-1,-2,-4,-3,-1,-3
1532405570840,-1,1,-3,-2,-4,-3,0,1
1532405570845,1,-3,-3,-3,-2,-2,-5,0
1532405570850,-1,1,0,-1,1,-1,4,-1
1532405570855,-1,-3,-2,1,1,0,-1,-1
1532405570860,0,0,0,0,0,-1,1,0
1532405570865,-1,1,-2,1,2,-1,-1,-2
1532405570870,-2,-2,-1,-3,-7,-3,-2,-2
1532405570875,0,-1,-1,-3,-3,1,-2,-1
1532405570880,-1,2,0,-1,1,0,-2,-1
1532405570885,3,0,-2,2,2,-1,0,0
1532405570890,-5,0,0,-1,1,-1,-2,-3
1532405570895,-1,-2,-2,0,0,1,1,0
1532405570900,-1,-1,-1,0,-3,0,-5,0
1532405570905,-1,-2,-2,-2,-2,-2,-2,-2
1532405570910,2,0,-1,0,2,-1,-1,0
1532405570915,0,-1,0,1,-1,-1,-2,-4
1532405570920,1,-2,-1,-1,1,-2,-5,-3
1532405570925,-2,0,-2,-1,-4,0,6,1
1532405570930,-4,0,-1,-2,-1,-2,-2,0
1532405570935,-1,0,1,-1,0,-2,-2,2
1532405570940,1,-1,-3,-1,-2,1,0,1
1532405570945,-1,-1,0,-1,-1,1,0,0
1532405570950,3,0,0,0,2,0,-4,3
1532405570955,0,-2,-1,0,0,0,0,-2
1532405570960,-2,-3,-3,-1,0,-1,1,1
1532405570965,-1,-1,-1,-2,-4,-2,-3,-2
1532405570970,1,5,1,-3,-5,-2,1,-3
1532405570975,1,-4,-1,-2,-1,0,-5,0
1532405570980,-1,0,2,2,2,0,-1,0
1532405570985,-1,-3,-2,-2,2,-2,-3,-3
1532405570990,0,-2,-2,0,-3,2,-3,-2
1532405570995,-2,1,1,1,-1,-2,0,-2
1532405571000,0,2,-1,-5,-1,0,3,-5
1532405571005,0,-2,0,2,1,-1,2,4
1532405571010,1,2,-1,5,3,-2,0,-1
1532405571015,-3,-5,-4,-3,0,0,3,0
1532405571020,-3,4,1,-2,-4,-1,0,0
1532405571025,-4,-2,1,-2,-3,0,-3,-2
1532405571030,1,-6,-2,0,-2,0,9,1
1532405571035,-1,-2,-3,0,-3,-1,2,0
1532405571040,1,1,-1,-2,0,-3,-1,0
1532405571045,1,0,1,2,-1,-2,-4,-2
1532405571050,-2,-6,-4,-2,-4,-1,-4,-1
1532405571055,1,7,1,0,4,-1,-1,-2
1532405571060,-1,-3,-2,-4,-1,0,0,0
1532405571065,0,-3,-1,-2,-3,0,-1,2
1532405571070,-2,3,0,-1,0,0,-1,0
1532405571075,-1,-2,-3,-2,-1,-2,-1,-1
1532405571080,-1,-2,1,1,1,-2,2,-2
1532405571085,1,0,-1,-1,0,0,0,2
1532405571090,0,-1,-1,-2,-3,-3,-2,-1
1532405571095,-5,-2,-2,-3,-2,-1,-4,-3
1532405571100,-2,-1,-2,-2,-2,-1,2,3
1532405571105,-6,1,-1,0,0,1,-6,-4
1532405571110,-1,-2,0,-2,-2,-3,-5,-2
1532405571115,1,1,0,1,0,1,-3,0
1532405571120,0,-4,-2,1,-1,-1,-5,-4
1532405571125,0,4,0,-3,-3,-3,-1,-1
1532405571130,2,-8,-2,0,4,0,-2,-4
1532405571135,-1,-2,0,-3,-3,-1,1,0
1532405571140,-3,-1,-1,-2,-2,-1,-4,-1
1532405571145,0,-5,-1,1,2,0,-3,-3
1532405571150,-1,4,0,0,1,1,2,1
1532405571155,0,-3,1,1,1,-1,-3,-1
1532405571160,3,2,1,1,0,-2,1,0
1532405571165,-4,-5,-1,0,-4,-6,-2,-5
1532405571170,-2,-4,-2,-5,-5,0,-1,-1
1532405571175,0,0,-2,-1,-2,1,1,2
1532405571180,1,4,-1,2,3,-1,0,1
1532405571185,-4,-4,-1,-2,-1,-1,-1,-2
1532405571190,-1,0,-2,1,-2,0,6,0
1532405571195,4,0,0,-1,2,1,0,0
1532405571200,-3,0,-1,-2,-4,0,-1,-1
1532405571205,3,-2,-4,-2,-1,0,2,1
1532405571210,-1,0,0,-1,4,1,2,-3
1532405571215,-2,-2,0,-2,-3,-2,0,-4
1532405571220,-2,-2,0,-2,0,-2,-4,-4
1532405571225,0,0,-1,-1,1,-2,-3,-4
1532405571230,0,1,0,-2,0,-1,0,0
1532405571235,0,-5,-3,-2,-3,-1,1,0
1532405571240,-1,1,0,0,1,1,-2,0
1532405571245,2,4,-2,-1,-1,1,1,1
1532405571250,-2,-5,0,2,1,0,-1,5
1532405571255,-2,3,1,1,-2,0,-4,-5
1532405571260,0,-3,-1,0,0,-2,2,-2
1532405571265,1,5,0,-5,-5,-1,-2,0
1532405571270,-1,-11,-1,-3,0,-3,-6,-3
1532405571275,1,-2,-2,-1,2,-1,0,2
1532405571280,-3,0,-1,0,1,0,-1,-1
1532405571285,3,1,-1,-1,-2,-1,2,0
1532405571290,-3,1,0,-3,0,-1,-3,-4
1532405571295,-1,0,0,0,-1,-1,-3,1
1532405571300,0,-1,-2,-3,0,-3,-3,-2
1532405571305,0,-2,-1,0,0,-1,3,6
1532405571310,-2,2,0,-2,-4,-4,-7,-8
1532405571315,0,-2,-2,3,2,0,-1,-3
1532405571320,0,-1,0,0,-3,0,0,-2
1532405571325,-1,-2,-1,-4,-2,-1,1,-4
1532405571330,2,2,-3,-2,1,0,-1,4
1532405571335,-2,2,2,-3,-3,0,-1,-1
1532405571340,-1,-4,-3,0,1,-1,-2,0
1532405571345,1,8,1,0,1,-2,-4,-2
1532405571350,-4,-5,-3,0,-1,-1,2,0
1532405571355,-1,-4,-1,-1,0,-2,-7,-3
1532405571360,-3,1,1,-5,-4,0,-6,-2
1532405571365,-2,-2,-2,1,-1,-1,4,-2
1532405571370,2,3,-1,-1,-2,-1,0,-1
1532405571375,0,11,0,-1,-2,-1,3,2
1532405571380,-4,-6,-3,1,1,-1,1,2
1532405571385,1,-4,-1,0,-2,-1,-3,0
1532405571390,-2,1,1,-1,-1,-1,0,-1
1532405571395,-1,-5,-4,-2,0,1,-3,-1
1532405571400,2,-1,-1,-1,-3,-1,1,0
1532405571405,-2,-1,0,1,1,-1,0,-2
1532405571410,0,-1,-3,-1,0,-3,-1,-1
1532405571415,-1,-1,1,-3,-5,-2,-1,-2
1532405571420,-1,-1,-2,0,0,-1,1,-1
1532405571425,-1,-4,0,2,1,0,-1,1
1532405571430,2,0,1,2,0,0,-1,4
1532405571435,-1,-1,-2,1,-1,-1,-1,0
1532405571440,2,5,1,0,-2,-2,1,0
1532405571445,-7,-10,-5,-5,-6,-2,-6,-6
1532405571450,1,3,0,3,0,-1,-2,-1
1532405571455,1,1,-1,0,0,-2,2,2
1532405571460,-1,-6,-1,0,-1,-3,-1,-2
1532405571465,0,1,1,2,4,-2,-1,0
1532405571470,0,2,-2,-2,0,0,1,0
1532405571475,0,-3,1,0,-3,-1,2,1
1532405571480,1,2,0,2,-1,1,-7,0
1532405571485,1,2,-2,-4,0,-2,8,-1
1532405571490,-2,-3,-1,-2,-3,0,-2,-3
1532405571495,0,0,-1,0,0,-3,0,-2
1532405571500,-1,-3,-3,-2,-2,-1,-1,-1
1532405571505,2,2,0,1,0,0,0,-2
1532405571510,0,5,-1,-1,0,-2,-4,-3
1532405571515,-3,1,-1,-3,-1,0,-2,-1
1532405571520,0,-4,0,-1,0,1,3,2
1532405571525,-1,-1,-1,0,0,-1,-4,0
1532405571530,1,1,0,-1,-1,0,2,-1
1532405571535,-1,-2,1,-1,-1,-3,-2,-3
1532405571540,-2,-1,-1,-1,1,-2,-1,-2
1532405571545,1,-4,-3,-3,-5,-1,-3,-1
1532405571550,-5,7,1,1,1,-1,-1,0
1532405571555,-1,-7,0,3,1,-1,1,-1
1532405571560,-1,0,0,0,-1,2,-1,1
1532405571565,0,-2,-1,1,6,2,0,2
1532405571570,0,-3,-1,-3,-4,0,-2,0
1532405571575,-2,-2,0,-2,-2,1,-2,-1
1532405571580,0,0,0,1,1,0,-2,-3
1532405571585,-1,0,1,1,-1,-1,-1,-1
1532405571590,-3,-3,-2,0,-2,1,0,0
1532405571595,0,1,-2,-3,0,0,1,1
1532405571600,0,-2,0,-1,-3,-2,-1,-4
1532405571605,-1,2,-1,-2,-5,-1,-1,-1
1532405571610,1,-2,1,1,1,0,0,-1
1532405571615,0,0,-1,2,0,-2,-2,1
1532405571620,-2,-1,0,0,2,0,-1,-2
1532405571625,-2,-6,-2,-1,-3,-1,-1,-1
1532405571630,-4,3,3,2,-1,-2,0,-6
1532405571635,1,-5,-4,0,-1,0,-2,-1
1532405571640,-3,-1,-2,1,4,0,0,1
1532405571645,2,-2,1,-3,0,-2,1,0
1532405571650,-2,-2,-2,-4,-4,-1,0,-1
1532405571655,-1,2,-2,-2,-2,-2,-3,-2
1532405571660,0,0,0,-1,1,1,2,0
1532405571665,0,0,0,2,1,1,-1,0
1532405571670,1,-2,-3,-1,-1,-2,-3,-1
1532405571675,0,4,1,-2,2,0,-1,-2
1532405571680,1,0,0,-2,-5,-3,-2,-3
1532405571685,-2,4,0,0,1,0,-1,-3
1532405571690,1,-3,-3,0,-2,-1,2,1
1532405571695,0,-1,0,2,4,1,-9,-2
1532405571700,-1,0,-1,1,-3,0,4,0
1532405571705,2,-1,-1,-2,-1,-1,0,0
1532405571710,-1,2,0,-3,-1,-3,0,-3
1532405571715,-1,-2,0,1,-2,0,4,2
1532405571720,-1,-3,0,-3,-5,-3,-6,-1
1532405571725,1,-1,2,1,1,-1,-4,-1
1532405571730,-4,-3,-1,-1,-3,-1,-2,-1
1532405571735,-1,-2,-2,-1,-1,0,1,-2
1532405571740,0,0,1,0,-1,0,-6,-1
1532405571745,-2,-1,-3,0,-1,-1,1,-2
1532405571750,-2,0,0,-1,1,-1,-1,-3
1532405571755,0,0,-3,-1,3,-1,-1,-2
1532405571760,-1,0,0,0,0,-1,0,-2
1532405571765,-2,-1,-3,-2,0,0,0,-2
1532405571770,-1,0,0,-1,0,1,-1,-2
1532405571775,-1,0,-1,-1,0,1,4,2
1532405571780,0,3,1,2,3,1,0,1
1532405571785,0,-3,-1,0,3,-1,-1,3
1532405571790,0,0,1,-2,-2,-2,1,2
1532405571795,-1,0,-2,-2,-7,-1,-2,-4
1532405571800,0,3,0,-1,-2,-2,-2,-3
1532405571805,0,-3,-1,0,1,0,0,0
1532405571810,-2,-1,-2,3,3,-1,0,-3
1532405571815,-1,0,1,1,-3,-3,-2,-1
1532405571820,0,-2,-3,-1,0,-3,0,-1
1532405571825,2,-3,0,-2,-5,0,0,1
1532405571830,-2,9,2,-4,1,-1,-1,2
1532405571835,-4,-2,-1,1,-1,1,-1,-1
1532405571840,-1,-2,-1,0,-1,-1,-2,0
1532405571845,-2,0,-1,-1,0,-2,-1,-1
1532405571850,2,-3,-4,-1,-3,0,-3,-3
1532405571855,1,0,-1,-3,1,-1,3,0
1532405571860,-2,-1,0,0,0,-3,0,1
1532405571865,0,-2,-3,-1,0,0,2,-4
1532405571870,0,0,-1,1,-1,-1,0,1
1532405571875,1,1,0,4,1,-3,-6,2
1532405571880,-2,-5,-1,-4,-2,-2,-3,-3
1532405571885,-2,0,0,0,2,1,0,0
1532405571890,0,-1,0,-1,1,0,-4,-3
1532405571895,-1,-2,-1,1,-1,0,1,0
1532405571900,-1,-1,0,2,4,-1,0,1
1532405571905,2,2,-1,-6,-6,-5,0,0
1532405571910,-9,-3,-2,-3,-3,-2,-2,-1
1532405571915,0,4,0,-3,0,0,0,-1
1532405571920,0,-4,0,2,-1,-1,0,0
1532405571925,0,10,0,1,-2,-1,-2,-3
1532405571930,4,-1,0,-2,-1,-1,1,1
1532405571935,-2,-3,-1,-2,3,-2,-1,-4
1532405571940,0,-1,0,0,1,1,1,-5
1532405571945,0,-1,0,0,-3,-2,1,-1
1532405571950,1,-2,-3,-1,-5,-3,-3,-1
1532405571955,-1,0,0,0,0,0,-2,-2
1532405571960,-1,4,0,-1,-2,-1,1,0
1532405571965,-3,-9,-1,0,-1,0,-2,-2
1532405571970,3,1,-1,0,-1,-1,-2,1
1532405571975,0,-3,-2,-1,1,-2,0,-1
1532405571980,4,5,0,0,1,-1,-1,-1
1532405571985,-4,-5,0,1,1,-1,-2,-1
1532405571990,-7,-3,-4,0,2,-1,0,-4
1532405571995,0,-1,-1,-3,-4,-4,-1,0
1532405572000,0,-6,-1,0,3,-3,0,0
1532405572005,-2,1,-2,-2,-2,-4,-1,-5
1532405572010,1,-2,1,-1,0,0,2,2
1532405572015,-2,2,1,-1,0,0,-3,-2
1532405572020,-3,-5,-2,-4,-3,-2,-3,-3
1532405572025,-2,-2,-3,-1,0,1,-3,1
1532405572030,-3,-8,-1,1,0,-1,-2,-4
1532405572035,1,7,0,0,1,1,2,2
1532405572040,-2,0,-2,-4,-5,-1,2,1
1532405572045,-3,-1,-1,-4,-3,-2,0,-1
1532405572050,2,-1,0,-2,-4,-4,-2,-2
1532405572055,-6,-7,-5,-3,-2,-4,-4,-3
1532405572060,-8,-6,-2,1,1,-1,-4,-6
1532405572065,12,0,1,-1,-1,0,0,2
1532405572070,0,4,-1,-3,-3,-2,-3,0
1532405572075,-2,-3,-2,1,0,-4,-6,-2
1532405572080,0,3,-5,-4,-10,-5,4,0
1532405572085,-4,-6,3,4,3,2,-10,0
1532405572090,9,5,1,0,-1,1,7,1
1532405572095,-21,-5,2,2,0,3,1,-2
1532405572100,-5,-4,-2,-1,1,-2,-9,-9
1532405572105,1,-1,-1,0,3,-3,6,1
1532405572110,2,-6,-2,-2,-4,0,-3,4
1532405572115,0,-3,0,-3,-8,-2,1,0
1532405572120,3,2,0,0,2,5,2,3
1532405572125,-5,4,2,4,5,1,-3,-4
1532405572130,2,-1,0,-4,0,-6,-6,-2
1532405572135,7,-1,-2,-7,-7,-9,-1,-3
1532405572140,-2,-7,6,0,-2,4,3,-2
1532405572145,2,4,-4,4,3,1,9,3
1532405572150,-4,2,2,3,5,1,1,-5
1532405572155,8,-1,-2,1,2,0,-1,7
1532405572160,-1,2,-2,-5,-6,-7,-2,2
1532405572165,-3,-2,-1,-5,-4,-3,-1,-2
1532405572170,-1,1,3,2,3,1,1,0
1532405572175,-2,-5,-3,0,0,2,-5,-3
1532405572180,1,0,-1,0,2,1,-3,-3
1532405572185,-3,3,-1,-3,-5,0,1,-1
1532405572190,-6,0,-2,-2,-4,1,2,-3
1532405572195,11,3,0,0,2,3,-1,-1
1532405572200,2,1,0,3,7,3,4,3
1532405572205,-16,-2,1,0,-3,0,1,-3
1532405572210,-2,-2,2,-2,-2,-2,-1,-6
1532405572215,-3,-2,-2,0,2,1,4,-2
1532405572220,4,-1,-2,-4,-3,-1,3,-1
1532405572225,3,13,0,-1,0,-4,1,-2
1532405572230,0,-9,-2,1,2,2,-5,-3
1532405572235,-1,1,-1,0,0,-1,-2,1
1532405572240,-2,-5,-2,-1,-1,-3,-7,0
1532405572245,5,-1,-2,-3,4,0,-3,3
1532405572250,0,2,1,-1,-6,-2,-2,5
1532405572255,-3,2,0,-4,0,-1,-4,-7
1532405572260,1,5,1,0,-1,-3,-2,0
1532405572265,-1,-8,-1,0,-3,-2,-4,-6
1532405572270,1,0,-4,-2,0,0,1,-2
1532405572275,0,-6,-1,-1,-5,-3,-3,0
1532405572280,-4,1,-2,1,1,1,2,-1
1532405572285,-1,-4,-1,0,0,0,-4,-1
1532405572290,-1,4,-2,-3,-2,-2,1,2
1532405572295,-1,-2,0,1,1,0,2,-7
1532405572300,-3,-5,-1,1,1,-3,-6,-2
1532405572305,-1,-3,-4,-4,-3,-1,-5,-1
1532405572310,0,1,-5,-1,1,-1,0,-1
1532405572315,-5,3,-1,-1,-1,0,0,-1
1532405572320,5,3,0,0,-1,1,0,4
1532405572325,3,1,1,-1,0,0,0,-2
1532405572330,-6,-6,-1,0,0,-2,-5,-2
1532405572335,-2,0,-2,1,0,2,3,-1
1532405572340,-1,-2,0,0,-1,1,-1,-2
1532405572345,1,0,-1,-1,1,1,-1,2
1532405572350,-1,-1,-3,-3,-2,-1,2,-2
1532405572355,5,-2,-1,-1,-1,-2,0,3
1532405572360,-8,1,-1,-3,-1,-1,0,-8
1532405572365,1,-3,-1,1,-3,-1,-3,7
1532405572370,-2,-1,0,-2,0,-3,-1,0
1532405572375,-1,-1,3,4,5,1,3,1
1532405572380,-1,-2,1,0,-1,0,2,-1
1532405572385,-1,1,-1,-2,-1,-1,-3,1
1532405572390,-2,1,-2,2,4,-1,0,2
1532405572395,0,-7,1,0,2,-3,1,-4
1532405572400,-2,3,-1,-1,2,-1,-3,-4
1532405572405,-2,-5,-1,-1,-4,-2,1,-1
1532405572410,0,-2,0,-2,-2,-3,-6,-3
1532405572415,-2,0,-2,-2,-1,1,-1,0
1532405572420,0,-1,-1,2,0,-1,-1,-1
1532405572425,0,-2,0,0,2,1,-2,-1
1532405572430,-5,-2,-4,-3,-2,1,4,-3
1532405572435,0,3,0,-1,-2,-3,-3,-5
1532405572440,-2,-6,-3,-1,-3,-1,-1,0
1532405572445,-2,-1,-1,-3,-3,-2,-1,-1
1532405572450,4,6,0,1,0,-2,-3,0
1532405572455,2,-10,-3,-1,1,0,-1,-2
1532405572460,-3,2,1,0,-2,0,1,3
1532405572465,-1,-1,-2,0,2,0,-3,0
1532405572470,1,0,-1,-2,-1,-1,-1,-1
1532405572475,0,4,-1,1,-3,0,-1,-1
1532405572480,2,0,1,1,2,0,-4,-3
1532405572485,-2,0,-1,0,0,0,-3,-4
1532405572490,1,-3,0,-3,-5,0,-1,2
1532405572495,-1,2,0,-1,-4,0,0,-3
1532405572500,3,0,-2,-2,-1,0,0,0
1532405572505,-5,2,1,1,2,1,-2,2
1532405572510,0,-1,0,0,2,0,1,1
1532405572515,0,-1,0,0,0,0,2,1
1532405572520,-3,-1,-3,-1,-1,-1,-3,-6
1532405572525,0,-3,-1,-2,-2,-2,-5,-1
1532405572530,2,2,0,1,0,-1,3,-1
1532405572535,-3,-1,-2,-3,-5,-4,-4,4
1532405572540,-1,0,0,-1,-2,-3,1,-1
1532405572545,0,-1,-2,1,-2,1,-3,-1
1532405572550,-3,-2,0,-2,-1,-1,-1,3
1532405572555,-1,-4,-1,-2,1,1,-2,-6
1532405572560,-5,-3,-1,-1,-1,1,-6,-2
1532405572565,1,1,0,0,-3,-3,-7,4
1532405572570,5,1,-2,-3,0,-2,3,-2
1532405572575,-3,1,2,0,0,0,3,-1
1532405572580,0,-1,-1,0,2,1,0,0
1532405572585,0,0,-2,-2,-5,-2,0,2
1532405572590,0,-3,-1,0,-4,-2,-8,-1
1532405572595,3,4,1,2,3,0,1,1
1532405572600,0,1,2,0,0,-1,3,0
1532405572605,-1,-1,0,1,0,0,-4,-7
1532405572610,-2,-2,-2,-1,-1,1,1,-3
1532405572615,-3,-2,-2,-1,-1,1,-5,7
1532405572620,-3,0,-1,0,-2,-3,0,-3
1532405572625,0,-2,2,0,1,-3,2,-2
1532405572630,-2,1,-1,-2,-1,0,-1,-3
1532405572635,-1,0,-2,-1,-4,-1,0,-1
1532405572640,3,-1,-2,-4,-4,-2,0,-1
1532405572645,-2,-3,0,0,3,1,2,1
1532405572650,-1,-1,-2,1,2,1,-6,0
1532405572655,-1,0,1,1,4,1,-1,-3
1532405572660,-1,-2,1,-1,-2,-1,-4,1
1532405572665,1,0,-1,-1,-1,-1,3,-2
1532405572670,-2,4,-2,0,-3,-1,-1,0
1532405572675,-3,-9,-2,-2,-2,-2,0,-2
1532405572680,1,-4,-2,-2,1,0,-2,-2
1532405572685,-2,-3,-2,-2,-3,1,0,-2
1532405572690,-1,1,-1,0,-1,-1,0,-1
1532405572695,0,-3,-1,1,0,-1,-2,-4
1532405572700,-1,-1,-2,-2,-1,0,0,4
1532405572705,2,1,0,-1,-2,0,0,-1
1532405572710,-5,1,0,-1,0,-1,-1,0
1532405572715,-1,1,0,0,0,0,-1,-2
1532405572720,-3,0,-3,-3,-1,-1,-2,-6
1532405572725,0,1,0,-1,-3,-2,1,2
1532405572730,-1,-11,-3,0,0,2,9,3
1532405572735,-10,-1,-1,-1,-3,-2,-4,-5
1532405572740,15,2,2,1,3,2,6,-2
1532405572745,-4,-5,-4,-2,2,-4,-6,-3
1532405572750,0,2,2,1,1,0,-5,5
1532405572755,3,1,2,-1,0,-1,7,-7
1532405572760,-6,-14,-4,1,0,-3,-5,-1
1532405572765,-13,7,4,0,-1,2,-1,-7
1532405572770,-3,-9,-2,-3,-2,1,13,8
1532405572775,5,2,1,-2,-4,-3,-13,-8
1532405572780,4,1,-2,0,-2,-1,-1,0
1532405572785,-7,-21,-5,-1,1,-2,-5,-1
1532405572790,-2,1,3,2,-4,-7,-5,-1
1532405572795,0,2,1,3,2,7,6,3
1532405572800,-2,2,1,1,0,2,0,4
1532405572805,3,5,0,-1,1,-2,8,-2
1532405572810,-2,-7,-5,-4,-2,-7,-7,5
1532405572815,1,-1,1,-1,-2,-5,-3,4
1532405572820,-3,12,0,-2,-1,-5,-11,-5
1532405572825,1,-1,0,-1,-2,3,-4,-8
1532405572830,7,8,0,-3,-1,1,-5,-16
1532405572835,-2,-5,-4,-1,0,-2,-4,-10
1532405572840,-6,3,0,0,0,3,-11,-8
1532405572845,3,3,0,-1,-2,-1,2,0
1532405572850,1,3,1,1,0,0,-2,-1
1532405572855,-1,0,-1,1,3,1,-3,2
1532405572860,-1,1,0,-2,-2,-1,8,8
1532405572865,4,-6,-1,-2,1,-1,-10,3
1532405572870,-2,2,0,2,0,0,6,-1
1532405572875,-7,0,1,-3,-3,-1,4,3
1532405572880,-2,-2,-1,0,0,-2,0,-6
1532405572885,-2,7,-1,-3,-3,-1,0,2
1532405572890,8,-7,-2,-1,1,0,1,0
1532405572895,-4,0,-3,-1,-1,-1,-3,-1
1532405572900,0,-2,-3,4,1,-1,3,-3
1532405572905,-5,-10,0,1,-4,-4,-3,-1
1532405572910,-1,2,1,-2,0,3,-3,-3
1532405572915,5,5,-3,-1,0,-4,8,1
1532405572920,-7,-7,-3,-5,-2,0,-1,3
1532405572925,0,-6,-1,0,-1,1,0,-4
1532405572930,-3,-1,-2,0,-2,-1,-3,-4
1532405572935,4,5,2,-2,-1,-2,3,-2
1532405572940,4,1,2,-1,-1,-3,2,3
1532405572945,-2,2,-2,-1,0,-4,-3,2
1532405572950,-4,3,1,-2,-1,-2,-3,-1
1532405572955,-2,-3,-2,0,-1,1,-4,-4
1532405572960,0,2,0,-1,-3,-1,1,1
1532405572965,-1,-8,-2,0,1,0,1,-2
1532405572970,0,5,1,1,1,0,-2,-5
1532405572975,2,-4,-1,-1,0,-3,-5,-1
1532405572980,-3,-5,-2,1,-4,0,-1,-3
1532405572985,1,8,1,-5,-3,-2,16,-2
1532405572990,-2,3,-2,-3,-2,0,-4,0
1532405572995,-2,-6,-2,-1,1,0,-1,1
1532405573000,-1,-1,0,-1,2,0,0,-6
1532405573005,1,5,2,3,1,0,-8,1
1532405573010,-1,-7,-1,0,0,1,3,4
1532405573015,-2,3,1,0,-2,1,-3,1
1532405573020,2,-3,1,-1,-3,0,0,-3
1532405573025,-3,1,-5,-2,0,1,-2,5
1532405573030,-2,-1,0,0,-4,-1,-5,-5
1532405573035,-2,-3,-3,-2,-1,-2,-6,-3
1532405573040,-1,0,1,-1,-1,0,-2,0
1532405573045,-1,-1,-3,-1,-3,-1,-4,-7
1532405573050,2,8,-1,-2,-1,0,2,1
1532405573055,-5,2,1,0,-3,0,-2,-3
1532405573060,-2,-5,-2,0,1,-1,-2,1
1532405573065,5,4,1,0,0,1,1,3
1532405573070,-7,-4,-1,-2,0,-2,0,3
1532405573075,0,0,-1,-5,-5,-1,1,-1
1532405573080,-2,1,-2,-2,1,1,0,3
1532405573085,7,0,1,3,2,-1,-5,-4
1532405573090,-5,-3,-3,1,0,0,-3,-2
1532405573095,8,-6,-2,-3,-3,1,-2,-5
1532405573100,-7,-3,-1,-1,-2,-1,12,9
1532405573105,-2,-2,-1,0,-1,0,-2,-3
1532405573110,-3,-4,0,1,3,0,4,-2
1532405573115,-2,7,0,-1,-3,-1,2,-1
1532405573120,1,2,-2,-3,-1,-4,-7,-5
1532405573125,3,-4,0,2,0,2,2,-1
1532405573130,-7,-2,1,-2,-2,-2,-1,-2
1532405573135,8,5,-2,-2,-2,-1,-4,2
1532405573140,-13,-14,-1,2,0,1,-2,-1
1532405573145,-2,2,-2,-2,1,0,-1,2
1532405573150,1,0,0,3,2,0,-1,-2
1532405573155,-2,-3,-2,-1,0,-2,5,3
1532405573160,6,7,-1,-2,-2,-3,-11,-4
1532405573165,-6,-3,-1,-2,-2,0,1,-3
1532405573170,-2,-2,2,-1,-2,1,8,0
1532405573175,6,2,-3,1,1,2,-8,3
1532405573180,-1,6,2,-1,0,2,3,1
1532405573185,-1,-7,-2,-4,-3,-6,-4,-2
1532405573190,1,-3,-1,-1,0,-2,-1,1
1532405573195,-6,-2,1,0,1,-2,2,-1
1532405573200,1,-8,-2,0,1,1,5,2
1532405573205,1,3,0,-2,-5,-4,-2,2
1532405573210,-5,-6,-3,1,-1,4,-3,-1
1532405573215,-4,-7,1,1,0,1,1,0
1532405573220,-5,-3,-4,-2,-2,-5,-3,-7
1532405573225,3,2,-1,-5,-6,-3,1,-1
1532405573230,3,0,-1,-1,0,-6,-3,-6
1532405573235,-3,-3,-2,1,1,-2,-1,0
1532405573240,9,5,1,2,0,-1,-1,4
1532405573245,-18,2,1,-1,0,-2,-12,-10
1532405573250,3,0,-2,-1,-1,-1,-2,2
1532405573255,-5,-6,-1,0,1,1,-1,-6
1532405573260,6,3,-1,-2,-1,-2,4,6
1532405573265,0,-6,-2,2,0,-1,1,-1
1532405573270,-3,-1,-1,-1,0,2,-3,-3
1532405573275,2,0,1,1,-3,-1,-2,-2
1532405573280,-3,-1,1,0,-2,0,-4,-1
1532405573285,0,-2,-1,0,-1,0,2,1
1532405573290,-3,4,-5,-4,0,1,-1,-1
1532405573295,-2,-2,-1,-2,-4,3,3,0
1532405573300,-4,0,0,-2,-1,-5,-8,-6
1532405573305,4,-2,1,-1,2,6,8,0
1532405573310,2,4,2,-2,0,-9,-20,-4
1532405573315,-2,1,-1,2,1,-2,6,1
1532405573320,0,-4,0,-3,-4,-4,-5,-5
1532405573325,-2,9,1,0,1,3,1,3
1532405573330,2,-2,-2,0,0,9,7,-1
1532405573335,-2,-4,-1,-1,-5,-6,-4,-2
1532405573340,0,-5,0,1,2,2,-1,-2
1532405573345,-3,5,1,-1,1,-6,2,0
1532405573350,4,0,-1,-2,0,0,-9,-4
1532405573355,-2,-5,-1,1,1,4,-2,3
1532405573360,-1,0,-1,0,-1,1,10,0
1532405573365,2,-4,-2,-1,1,3,-1,3
1532405573370,-1,-4,-2,-4,-7,-8,1,3
1532405573375,2,4,0,-2,-3,-5,-5,-2
1532405573380,-3,-1,-2,-1,-1,-2,-3,-5
1532405573385,-1,-2,0,-1,0,4,6,0
1532405573390,-1,2,0,5,0,-8,-6,2
1532405573395,0,1,-2,-4,-2,2,0,1
1532405573400,1,1,-3,-5,-3,-8,-1,-3
1532405573405,-2,-1,-1,3,-1,-23,-15,3
1532405573410,-1,-2,0,0,1,14,7,-3
1532405573415,-2,-2,-1,-2,2,-1,1,0
1532405573420,2,3,0,1,0,5,-1,0
1532405573425,1,-2,-1,-1,0,2,0,-1
1532405573430,-3,-4,1,-2,0,-6,5,-1
1532405573435,1,3,-1,1,0,1,1,0
1532405573440,-1,1,-1,-2,2,4,-3,-3
1532405573445,3,-1,-2,2,-1,4,2,-1
1532405573450,-6,-5,-1,-2,-3,-8,-8,1
1532405573455,-3,-1,0,-3,-4,-5,-2,-3
1532405573460,3,1,1,0,-1,-3,-4,0
1532405573465,1,2,-2,0,2,1,0,-4
1532405573470,0,-2,-1,0,0,3,6,0
1532405573475,1,-4,0,0,2,0,-5,-3
1532405573480,-3,-2,1,1,1,-4,0,-4
1532405573485,-1,0,-2,-4,-6,-2,-3,-5
1532405573490,1,3,1,1,2,2,2,0
1532405573495,-4,2,1,-1,-2,1,-1,0
1532405573500,-1,-3,-3,-2,-3,-3,1,1
1532405573505,1,1,1,-1,0,2,2,2
1532405573510,-4,-2,-2,1,1,3,1,0
1532405573515,2,1,-2,-3,-2,-5,-3,-2
1532405573520,1,-3,-2,2,3,-8,1,1
1532405573525,-1,-4,-2,-1,-5,6,4,-4
1532405573530,0,-5,-1,0,0,-10,-5,-3
1532405573535,-5,6,-1,0,0,2,-4,0
1532405573540,1,-2,-2,-4,-2,2,6,-1
1532405573545,-3,0,1,-3,0,-4,-3,-2
1532405573550,1,-1,-1,-1,-2,1,-3,0
1532405573555,0,-5,1,2,4,0,2,-1
1532405573560,-1,2,0,-3,-4,-1,-2,-3
1532405573565,-4,-1,0,1,0,-1,1,0
1532405573570,0,4,0,0,0,-3,-4,-3
1532405573575,-8,0,1,-3,-3,-13,-6,-3
1532405573580,2,2,-3,-2,3,1,3,-1
1532405573585,3,-1,-4,-1,-3,9,3,1
1532405573590,-2,1,-2,1,2,-4,9,-4
1532405573595,0,4,-3,-2,-4,-7,-8,-5
1532405573600,-3,-1,1,-1,-1,0,3,-2
1532405573605,-1,-7,-1,1,1,-1,-3,-2
1532405573610,1,3,-1,0,1,4,0,-3
1532405573615,0,-8,-2,-1,1,5,2,0
1532405573620,2,4,0,-1,0,3,5,0
1532405573625,-1,0,-3,0,-1,-5,-11,-2
1532405573630,-4,-4,-2,-1,-4,-1,-3,0
1532405573635,1,-2,-2,0,-3,-1,2,1
1532405573640,1,0,0,-2,-3,2,-4,1
1532405573645,2,1,1,2,4,1,-2,1
1532405573650,-1,-1,-1,-2,-4,-1,-1,2
1532405573655,-2,1,1,-3,-3,3,3,3
1532405573660,0,-2,0,0,5,0,-10,-9
1532405573665,2,0,1,-1,-1,-3,-1,-4
1532405573670,-2,0,-5,-4,-5,-3,-4,-2
1532405573675,-1,-4,-1,0,-1,5,-1,-1
1532405573680,-2,-1,-2,-1,-1,0,1,2
1532405573685,0,0,2,0,2,-4,0,1
1532405573690,0,2,1,0,2,-2,-3,-3
1532405573695,0,-8,-3,0,-2,5,2,1
1532405573700,0,-3,-1,-1,-4,-4,-3,1
1532405573705,-5,-1,-1,-1,-1,1,4,-2
1532405573710,1,3,0,-2,-3,0,-2,3
1532405573715,-1,4,0,-4,-4,-1,3,-3
1532405573720,1,-2,1,1,1,-2,-7,-2
1532405573725,1,2,-2,-2,0,-1,-5,-5
1532405573730,2,-7,1,0,0,-3,5,7
1532405573735,0,-2,-2,2,3,5,-4,-7
1532405573740,1,-2,-2,-2,-2,-3,-2,2
1532405573745,-5,-9,-1,-2,-3,-1,5,1
1532405573750,3,2,0,-1,-2,1,-5,-4
1532405573755,-3,-2,-1,0,-1,-3,0,0
1532405573760,-1,-8,-1,0,0,-1,0,0
1532405573765,1,-1,0,1,1,0,0,-4
1532405573770,-2,1,-2,-2,-4,-3,-3,-2
1532405573775,1,4,-2,-2,-3,-1,1,-1
1532405573780,0,1,1,-1,-2,0,-1,-3
1532405573785,-2,3,-2,1,2,0,-2,-1
1532405573790,-4,-6,0,2,1,3,-2,1
1532405573795,2,1,1,-2,0,-4,-3,-1
1532405573800,-2,0,-2,-4,-5,2,1,-1
1532405573805,3,-1,-1,-2,-3,-2,-1,0
1532405573810,-4,2,0,2,2,2,-2,-1
1532405573815,-2,-2,0,3,0,-3,0,1
1532405573820,-2,0,-1,2,2,1,4,1
1532405573825,-3,-1,-1,-4,-6,-5,-5,-6
1532405573830,1,0,-2,-3,-1,2,1,-6
1532405573835,-2,-1,-1,0,-3,-5,-3,-1
1532405573840,0,1,0,0,0,1,-4,-2
1532405573845,2,1,0,1,2,0,-4,3
1532405573850,-1,-2,-2,0,4,-2,2,-1
1532405573855,0,-1,-3,-3,-6,1,2,-3
1532405573860,-2,0,-3,-1,-1,-2,-6,-4
1532405573865,0,1,-1,0,-2,0,11,12
1532405573870,-2,-2,-1,0,1,2,3,-1
1532405573875,0,1,0,0,3,-1,-3,2
1532405573880,1,-3,1,2,0,4,13,6
1532405573885,-2,1,0,-1,-1,-2,-5,-6
1532405573890,-2,-1,-2,-3,-4,-7,-11,-15
1532405573895,-1,0,0,1,2,2,3,4
1532405573900,0,1,-1,-2,-4,-2,-11,1
1532405573905,-2,-4,-2,-1,2,-5,-7,-9
1532405573910,0,-2,0,-4,-3,2,8,6
1532405573915,-2,2,0,0,-2,-2,-13,-9
1532405573920,0,-2,-2,-1,1,0,11,3
1532405573925,1,0,1,1,1,0,3,1
1532405573930,0,-3,-2,-1,-3,-3,-6,-4
1532405573935,0,0,0,0,3,-1,-11,5
1532405573940,-3,1,1,0,-2,-4,-9,-7
1532405573945,0,-2,-1,-2,-2,-1,4,0
1532405573950,-1,-2,0,2,1,-1,2,-2
1532405573955,-2,-2,-2,-3,1,1,14,3
1532405573960,2,1,-1,1,-1,2,5,11
1532405573965,1,4,-1,-2,-2,-4,-10,-4
1532405573970,-3,-8,-3,1,-1,5,15,7
1532405573975,0,-2,0,2,1,-1,-5,-11
1532405573980,-1,3,-1,-1,0,2,9,-7
1532405573985,-3,-9,-3,-1,-2,3,11,3
1532405573990,-1,0,-1,-1,-2,-8,-24,-2
1532405573995,2,1,-2,-3,-3,0,9,3
1532405574000,-4,-6,-3,-7,-5,-3,-6,-10
1532405574005,0,-2,-1,-2,-5,-8,-29,10
1532405574010,0,2,0,-1,1,5,18,2
1532405574015,-1,-4,-1,-4,-4,-2,-9,-5
1532405574020,2,1,-2,2,5,1,-3,7
1532405574025,-4,-1,-2,-3,-4,1,-1,-11
1532405574030,4,1,-1,-2,-3,-4,-21,3
1532405574035,2,3,1,1,2,4,11,3
1532405574040,-1,-3,1,0,1,0,-1,4
1532405574045,-6,-3,-1,-1,2,-1,1,-9
1532405574050,8,-1,-2,0,3,3,12,8
1532405574055,-1,1,-1,-4,-4,-3,3,8
1532405574060,-4,-3,-1,0,1,-8,-9,2
1532405574065,1,3,0,1,1,-9,-27,-7
1532405574070,2,5,1,1,7,24,39,0
1532405574075,0,-3,-4,1,-2,-1,1,-3
1532405574080,-2,-1,-2,-2,-3,0,3,-10
1532405574085,0,1,0,-1,-2,3,0,-8
1532405574090,-2,3,2,-3,-7,-4,-16,-2
1532405574095,-2,-7,-7,-4,-2,-11,-15,-9
1532405574100,0,0,0,3,0,3,0,-2
1532405574105,0,0,0,0,0,0,22,0
1532405574110,-1,-1,0,-4,-4,-3,-18,-2
1532405574115,-3,0,-1,-1,1,3,35,1
1532405574120,1,2,0,0,0,-5,-24,-3
1532405574125,-1,-3,-1,0,2,7,6,4
1532405574130,-4,-1,0,-1,0,-11,-16,-7
1532405574135,-3,0,0,-3,-2,-7,-11,-6
1532405574140,-1,0,-2,-1,0,5,11,-2
1532405574145,0,1,2,3,1,0,10,5
1532405574150,-5,-2,-2,-1,-6,-8,-5,-14
1532405574155,1,0,1,-2,-4,0,-23,4
1532405574160,-2,2,-1,0,0,-9,6,-1
1532405574165,0,2,0,1,-1,5,-17,-19
1532405574170,-3,-4,0,-3,-3,-12,-10,1
1532405574175,3,-6,1,1,2,5,5,5
1532405574180,7,11,0,1,0,7,-7,-4
1532405574185,-4,-2,-1,-4,-4,-7,-9,7
1532405574190,-2,-1,-1,3,2,-1,-2,-3
1532405574195,-3,0,0,1,1,2,20,-6
1532405574200,0,-3,2,1,-1,2,-12,1
1532405574205,-2,-3,-2,-2,-1,-6,3,-12
1532405574210,2,-2,-2,-3,-3,10,11,15
1532405574215,-2,5,2,1,1,3,-14,-1
1532405574220,-6,-10,-4,-7,-8,-14,14,11
1532405574225,0,-1,0,1,0,-12,7,-3
1532405574230,0,-1,0,-2,-1,-7,12,19
1532405574235,0,-4,-3,1,2,5,1,-5
1532405574240,-2,-4,0,-5,-7,7,15,-17
1532405574245,0,3,-2,4,3,-3,-20,11
1532405574250,-2,3,-1,-2,-5,0,-6,-15
1532405574255,5,5,-1,2,5,-3,12,-13
1532405574260,4,5,2,6,8,10,8,46
1532405574265,-3,-7,-5,-6,-4,2,15,14
1532405574270,0,0,0,3,2,4,6,-6
1532405574275,0,2,1,2,-1,-3,-27,17
1532405574280,-4,-3,-2,-4,-4,-6,-26,-32
1532405574285,3,3,2,3,3,4,14,-7
1532405574290,4,3,1,1,1,8,-24,23
1532405574295,-4,-5,-1,-4,-2,-1,19,4
1532405574300,-1,-2,-1,1,-1,-3,-2,-4
1532405574305,-1,-2,-1,-4,-3,1,8,5
1532405574310,-2,-5,-1,0,1,-4,0,-8
1532405574315,-5,-3,-5,-4,-7,-4,14,-8
1532405574320,2,4,-2,0,-1,-3,-14,2
1532405574325,-1,-11,-2,-3,-3,6,-24,8
1532405574330,-3,1,-2,-4,-5,-12,-35,-20
1532405574335,2,1,3,3,5,13,16,8
1532405574340,0,-4,-1,-2,-4,-4,29,-14
1532405574345,-1,-1,-3,0,-2,-1,-5,3
1532405574350,-3,-2,-1,-2,0,-13,13,-9
1532405574355,4,5,-1,-3,-2,-6,-63,-15
1532405574360,0,5,3,5,11,17,19,33
1532405574365,1,1,0,2,4,0,-8,-4
1532405574370,-1,-2,-2,-1,-4,-11,-27,-24
1532405574375,2,3,2,2,1,6,25,-5
1532405574380,-5,-5,-2,-2,-1,-2,6,-17
1532405574385,0,1,0,-2,-3,-2,-6,0
1532405574390,2,0,-1,4,7,13,-33,15
1532405574395,-3,-3,2,0,0,-3,-9,6
1532405574400,-2,-3,-4,-3,-6,1,16,-8
1532405574405,0,2,1,1,2,-4,6,-2
1532405574410,1,-1,-2,-5,-4,-5,15,-5
1532405574415,-3,-3,-2,0,-1,4,3,10
1532405574420,-5,-4,-1,0,1,-11,-10,-14
1532405574425,0,-2,-1,0,-2,-2,-12,3
1532405574430,4,3,1,2,3,12,35,28
1532405574435,-1,-3,-2,-1,-3,-15,-41,-5
1532405574440,0,-1,-2,-2,-3,2,-24,-4
1532405574445,2,3,-1,-2,-4,-5,7,-6
1532405574450,-1,-2,-1,0,0,-1,17,-3
1532405574455,-1,-2,1,-4,-3,2,31,3
1532405574460,-1,-3,-2,0,3,-5,-25,-9
1532405574465,2,9,2,-4,-4,0,8,7
1532405574470,-9,-15,-3,3,3,2,44,-9
1532405574475,2,2,-1,0,2,1,-1,-3
1532405574480,4,2,1,0,-1,-8,-7,7
1532405574485,-3,1,1,-3,-2,2,9,2
1532405574490,3,4,3,4,3,11,-19,19
1532405574495,-5,-3,-1,-1,-3,-5,-16,-9
1532405574500,-5,-5,-2,-4,-6,-7,4,5
1532405574505,-4,-3,-3,1,1,-4,-20,-14
1532405574510,-6,-1,2,-2,-1,3,-25,-11
1532405574515,-3,-4,-4,-1,-6,-7,-7,-13
1532405574520,1,2,0,0,-1,-1,-3,-3
1532405574525,-2,-1,0,-2,-5,-11,-19,-30
1532405574530,-6,-2,-3,-3,-4,4,30,-9
1532405574535,-1,1,1,3,5,-10,-18,-10
1532405574540,2,-1,2,4,4,7,15,-9
1532405574545,-4,8,-2,-2,2,7,21,-22
1532405574550,5,4,-2,-4,-3,-7,-10,-13
1532405574555,-7,-4,-1,-1,0,1,0,-12
1532405574560,5,-7,-2,-3,-3,-7,-28,0
1532405574565,-8,1,1,2,-1,0,1,8
1532405574570,1,-1,-4,-3,-5,4,5,15
1532405574575,3,5,3,1,3,-1,7,16
1532405574580,-1,0,-2,0,-2,-11,-1,-5
1532405574585,1,-1,0,-2,-4,2,0,12
1532405574590,-2,-3,-2,2,26,3,41,7
1532405574595,3,2,4,1,-9,31,-5,22
1532405574600,2,5,0,-1,2,1,-16,9
1532405574605,-2,-8,-2,-2,-5,8,-5,-4
1532405574610,-2,2,0,-7,-14,-21,15,33
1532405574615,2,-9,-2,-2,8,5,43,12
1532405574620,-10,-3,-1,-1,-1,-12,17,6
1532405574625,0,0,1,0,-2,11,18,13
1532405574630,-6,-3,-3,-2,-4,-11,-14,-37
1532405574635,1,-6,-2,-5,7,7,18,-2
1532405574640,-3,-2,-3,2,-5,2,-87,-39
1532405574645,0,3,-1,0,12,8,7,0
1532405574650,-5,-2,-3,-4,-23,-27,13,-5
1532405574655,-4,-2,-2,4,16,-1,-10,-18
1532405574660,-3,-3,-5,-13,-35,-18,0,7
1532405574665,3,0,0,-1,-6,6,17,0
1532405574670,4,2,-2,-4,-1,2,-26,13
1532405574675,0,-3,-4,-1,1,-6,-32,16
1532405574680,11,4,1,3,12,8,36,0
1532405574685,5,5,3,2,1,-4,6,21
1532405574690,-4,0,1,2,2,24,3,-2
1532405574695,8,13,1,0,3,-4,4,0
1532405574700,-31,-4,4,2,7,6,0,17
1532405574705,-7,-6,-6,-3,-6,-18,22,0
1532405574710,15,-7,-2,-4,-7,-7,-37,4
1532405574715,5,1,3,5,4,19,-6,0
1532405574720,-14,-1,1,-4,-1,-16,25,18
1532405574725,7,28,2,-1,-3,-14,-29,-26
1532405574730,12,-6,-2,1,5,30,25,23
1532405574735,-5,-11,-2,-1,-10,-18,-7,-21
1532405574740,25,-1,-2,-5,3,15,5,-12
1532405574745,-12,-14,-1,-1,1,-7,-3,-10
1532405574750,-8,2,-2,-3,-9,-16,-4,-2
1532405574755,-4,4,1,-1,-1,-4,3,-3
1532405574760,-3,2,0,3,9,14,10,-18
1532405574765,-5,-13,-5,-2,-5,4,-9,12
1532405574770,3,0,0,-1,-1,-11,-21,-15
1532405574775,-2,-6,0,2,5,1,-7,24
1532405574780,-4,-1,-3,-1,0,-6,-9,-3
1532405574785,-3,-5,-1,-1,-2,11,-5,-2
1532405574790,-7,1,-2,0,1,-7,-2,0
1532405574795,-10,-8,-4,-3,-8,-6,-16,-13
1532405574800,7,5,-1,1,0,-5,3,-11
1532405574805,10,1,-1,0,3,12,8,16
1532405574810,-8,1,-1,-3,-2,-9,5,5
1532405574815,2,6,-2,-3,-1,-1,1,-15
1532405574820,-4,-7,-2,-1,-1,-5,-17,2
1532405574825,-2,-1,-1,5,3,0,-10,-19
1532405574830,-5,-2,-1,-4,-5,2,-10,-18
1532405574835,-1,0,-3,-3,-2,-7,-6,8
1532405574840,5,-8,-2,0,-4,5,6,2
1532405574845,-13,7,0,-4,-4,-10,-5,-3
1532405574850,-3,-1,-1,2,3,2,-20,-17
1532405574855,4,7,0,-1,-1,10,3,-5
1532405574860,6,6,0,0,0,-11,-7,8
1532405574865,-10,-8,0,-2,-2,3,-5,-4
1532405574870,-1,3,-1,4,2,7,6,4
1532405574875,-5,3,1,3,5,2,-1,12
1532405574880,4,0,0,-1,0,-6,0,2
1532405574885,4,-10,-4,-4,-4,1,-5,-17
1532405574890,0,-2,-1,-1,-1,0,16,21
1532405574895,0,-2,2,3,6,2,9,-16
1532405574900,-6,-4,0,-3,-6,0,-9,-11
1532405574905,6,-2,-1,-1,-3,4,2,9
1532405574910,-1,-6,-1,3,5,-8,-2,8
1532405574915,1,1,-1,-1,0,0,5,2
1532405574920,5,3,1,2,1,-1,-6,-1
1532405574925,2,3,-1,-5,0,4,4,6
1532405574930,-2,0,-2,-1,-5,2,-1,0
1532405574935,-3,-4,-2,-5,-3,-7,4,-7
1532405574940,-1,7,0,-3,-2,4,-2,-12
1532405574945,9,-12,0,4,5,-1,13,34
1532405574950,3,4,-1,0,4,3,13,-3
1532405574955,-9,0,1,-1,-6,-1,-11,-2
1532405574960,-2,-2,-1,0,-2,-6,-2,9
1532405574965,0,0,0,0,-1,8,-12,-22
1532405574970,10,2,-1,-2,0,-5,3,5
1532405574975,-17,-10,0,4,6,12,15,11
1532405574980,-4,1,-3,-3,-2,-9,0,6
1532405574985,0,3,-1,-1,0,-5,17,-26
1532405574990,1,-2,-1,0,-4,-15,-8,-13
1532405574995,1,0,-3,-2,2,5,4,1
1532405575000,-3,-8,-1,-3,-4,2,1,1
1532405575005,-2,-1,1,-1,-2,-4,-7,-7
1532405575010,-6,3,-1,-3,-3,5,-1,1
1532405575015,11,-5,-2,-4,-5,-8,3,5
1532405575020,0,-1,0,4,6,4,17,-2
1532405575025,-7,1,-2,-1,1,4,7,11
1532405575030,13,8,1,-1,-3,-5,-5,-7
1532405575035,4,-11,-2,-1,-4,-6,-7,0
1532405575040,7,1,0,2,4,13,16,-6
1532405575045,1,1,-1,-4,-3,-12,-18,-5
1532405575050,-18,-8,-1,-2,-2,0,-1,-2
1532405575055,-8,7,0,1,-1,-5,-2,-8
1532405575060,0,-8,1,-2,2,-2,-9,-6
1532405575065,-6,3,0,-2,-3,5,-13,8
1532405575070,-2,-3,-1,1,0,-11,-5,10
1532405575075,0,-2,0,-1,-2,0,0,-6
1532405575080,-1,4,0,0,-1,-1,1,3
1532405575085,-3,-5,-1,0,-2,0,-11,-6
1532405575090,0,0,0,0,3,7,6,-3
1532405575095,3,2,-1,-3,-4,-10,5,-5
1532405575100,0,6,-1,0,0,7,-4,-1
1532405575105,5,-4,-2,0,-1,-32,-10,0
1532405575110,0,0,1,0,-4,-12,-17,-5
1532405575115,3,6,-2,0,-1,12,8,2
1532405575120,-6,-9,-2,1,-1,4,-25,0
1532405575125,-2,2,-3,0,-1,4,0,-5
1532405575130,-2,3,0,-1,1,3,0,-3
1532405575135,12,-5,0,-2,-5,-9,-15,-1
1532405575140,-10,-5,-3,-2,-6,-10,-13,1
1532405575145,7,11,0,-1,1,13,23,2
1532405575150,-7,-12,0,1,2,-1,9,3
1532405575155,4,-1,-2,1,0,1,1,-7
1532405575160,7,7,1,-1,3,6,17,4
1532405575165,-2,-5,0,-1,-1,-2,-2,-2
1532405575170,1,3,-2,-2,-2,0,-10,3
1532405575175,-8,-1,0,-3,-3,-6,-6,-2
1532405575180,1,-4,-1,0,1,-3,-11,-2
1532405575185,-3,1,1,1,0,-2,6,1
1532405575190,3,-2,-2,-3,1,9,2,-1
1532405575195,-2,1,-4,0,1,-2,-4,-3
1532405575200,1,-4,0,-3,-1,-5,9,6
1532405575205,2,-1,-3,-1,-1,5,-2,-5
1532405575210,0,-2,0,-1,0,-6,5,1
1532405575215,-11,-3,0,-1,-1,2,16,-3
1532405575220,8,1,-1,-2,-2,3,5,12
1532405575225,-12,-8,-3,-1,0,-8,-31,-6
1532405575230,-3,-3,1,-3,-5,-1,-18,0
1532405575235,9,2,-3,0,1,-8,-14,0
1532405575240,-26,-5,-2,0,2,6,-5,-4
1532405575245,1,0,0,1,2,-2,5,2
1532405575250,-3,-2,-2,2,-1,6,4,2
1532405575255,4,0,0,-2,-1,0,-3,-2
1532405575260,5,3,-4,-2,-7,-11,-3,-1
1532405575265,0,-6,0,2,4,14,5,1
1532405575270,-1,1,-1,-2,-2,-5,4,-2
1532405575275,0,-3,0,0,2,-4,5,-2
1532405575280,3,0,-1,-1,2,-4,-1,-3
1532405575285,-1,5,-1,0,0,-3,6,-1
1532405575290,2,0,1,0,0,-1,-2,-1
1532405575295,-1,-5,1,-2,-2,4,2,0
1532405575300,-2,-2,-1,-1,-3,-5,-9,-5
1532405575305,3,0,-3,-2,-1,9,1,1
1532405575310,-3,-3,-1,-1,-2,-16,-8,-1
1532405575315,-3,-1,-1,-1,1,8,-4,-1
1532405575320,2,0,0,1,1,-3,-2,-14
1532405575325,3,-1,1,1,0,7,9,-6
1532405575330,-8,0,-4,-1,-2,-9,-8,-3
1532405575335,-3,-1,-3,-2,-1,2,0,5
1532405575340,2,-2,-2,-1,-1,-3,-2,8
1532405575345,-1,1,-1,-1,0,5,-2,2
1532405575350,1,2,1,-1,-2,0,3,0
1532405575355,-5,-7,-1,3,4,2,3,2
1532405575360,3,1,0,3,3,4,4,2
1532405575365,-1,-5,-2,-3,-5,-10,0,-2
1532405575370,1,7,0,2,1,2,-1,-1
1532405575375,-2,2,1,-1,-5,-1,-1,-1
1532405575380,2,-1,-4,-3,1,5,2,3
1532405575385,1,-2,-1,-2,0,-4,-4,1
1532405575390,-2,-2,-3,-1,3,4,-1,1
1532405575395,6,-4,1,2,-3,-6,-4,-3
1532405575400,-2,8,-2,-4,-5,-6,-2,-1
1532405575405,0,-1,-2,-4,-3,-1,-3,-2
1532405575410,5,-2,1,-1,0,5,0,0
1532405575415,-2,0,-1,2,5,-7,-5,-2
1532405575420,-2,-2,0,2,0,-6,-16,-2
1532405575425,1,2,-1,-1,-3,-6,-1,1
1532405575430,-5,-4,-2,-2,-3,8,2,-2
1532405575435,2,-8,1,0,2,3,2,-4
1532405575440,3,-1,-4,1,0,-2,5,-3
1532405575445,3,7,0,-2,-1,-1,1,1
1532405575450,-9,-9,-6,1,-1,1,3,-3
1532405575455,-4,3,4,-1,0,-1,-6,-3
1532405575460,1,-9,1,-1,-2,0,-2,-2
1532405575465,2,1,3,1,-1,-2,-2,0
1532405575470,2,1,-1,-3,-3,-1,1,-1
1532405575475,-1,5,-1,-2,-2,-2,-4,-1
1532405575480,-1,1,-2,0,1,-1,-1,-3
1532405575485,-4,-1,-1,-2,-3,-5,-1,-4
1532405575490,3,5,5,2,1,1,3,1
1532405575495,1,-11,-6,-3,2,2,1,-2
1532405575500,2,-1,3,-2,-4,-3,1,0
1532405575505,-15,-3,-7,-3,-2,-3,0,-1
1532405575510,1,0,2,3,1,-2,1,-3
1532405575515,1,5,-5,-3,1,0,2,0
1532405575520,-8,-2,0,-3,-1,5,2,-1
1532405575525,2,-3,0,2,-3,-18,0,-1
1532405575530,2,-7,-4,-7,-3,-9,-5,2
1532405575535,-2,12,5,2,-3,15,1,2
1532405575540,4,-5,-7,3,3,-1,-2,-1
1532405575545,-1,1,1,-3,1,0,-3,-1
1532405575550,4,-10,-5,0,0,-5,-3,-3
1532405575555,-7,-1,5,-6,-4,8,-7,-1
1532405575560,-5,-3,7,-1,-6,-13,-3,-2
1532405575565,4,1,-2,1,0,0,-2,0
1532405575570,-1,-1,2,-3,-2,13,-1,-1
1532405575575,2,0,-2,10,9,23,8,2
1532405575580,-2,2,-8,-6,-1,8,4,0
1532405575585,-4,-3,11,3,3,2,1,-2
1532405575590,3,-2,-11,5,-2,-12,-5,2
1532405575595,-2,3,-8,-9,-5,-5,-3,-3
1532405575600,0,0,2,-2,0,0,-2,1
1532405575605,1,-4,-2,-1,-3,2,-1,-2
1532405575610,-1,1,0,-3,-6,2,5,0
1532405575615,-2,-1,1,3,0,-19,-4,-3
1532405575620,2,-3,-6,3,2,-7,4,-1
1532405575625,-6,4,8,-2,-1,-15,-4,-1
1532405575630,-1,2,5,2,7,32,8,0
1532405575635,-3,-5,-2,-4,-5,-14,-6,0
1532405575640,3,5,1,-2,-5,11,2,-1
1532405575645,2,-3,-3,2,5,-1,-4,-1
1532405575650,-5,0,3,-3,-9,-19,-9,-2
1532405575655,1,1,-5,3,5,16,12,-2
1532405575660,0,-2,2,2,3,7,2,1
1532405575665,2,0,-4,1,-2,2,4,2
1532405575670,-1,1,-2,-2,2,4,-4,-1
1532405575675,0,-4,0,-1,-1,-16,-7,-1
1532405575680,-1,2,0,-1,-6,-26,-7,-1
1532405575685,-1,-3,-5,0,2,26,3,0
1532405575690,1,-1,-1,0,4,6,5,1
1532405575695,1,-2,1,-4,-5,-4,-3,-1
1532405575700,-4,-2,0,0,2,-2,-3,-5
1532405575705,0,-4,-3,-2,0,13,1,-1
1532405575710,-1,-8,-2,-2,-3,-6,-5,-2
1532405575715,-5,-3,-1,0,-1,5,1,1
1532405575720,-1,1,0,-2,-3,1,-5,0
1532405575725,-1,-2,-3,1,-1,4,-2,-1
1532405575730,1,2,0,0,3,-4,-3,-2
1532405575735,4,-2,-1,2,0,-4,-1,0
1532405575740,-5,-1,0,-4,-3,-2,-1,-2
1532405575745,0,-1,0,-1,-3,-5,-1,-2
1532405575750,-1,2,-2,3,-1,-15,-1,0
1532405575755,2,5,-2,-3,-2,14,-1,-1
1532405575760,0,-7,1,1,2,1,3,2
1532405575765,0,3,-2,-3,-1,4,-3,-2
1532405575770,-1,2,-1,-2,-1,-10,-5,-2
1532405575775,-3,-2,-2,-1,0,-9,-3,-2
1532405575780,1,1,1,0,0,3,1,-2
1532405575785,0,0,-1,-3,-1,-13,-5,0
1532405575790,-1,-2,-3,-4,-5,6,1,-2
1532405575795,-1,1,0,-2,-4,-10,-4,-1
1532405575800,1,0,-2,-2,0,9,-5,-1
1532405575805,-1,-2,-3,0,-1,-14,-3,0
1532405575810,1,-3,0,-1,0,3,-1,-1
1532405575815,-2,4,1,0,1,-2,2,-3
1532405575820,-1,-1,-2,2,0,-8,0,0
1532405575825,-1,-3,-2,1,-4,11,2,-2
1532405575830,1,0,0,-2,2,-6,0,0
1532405575835,-4,-3,0,0,-4,0,2,0
1532405575840,-1,-5,-1,-2,-1,-1,-2,0
1532405575845,0,4,-1,-1,0,-3,1,-2
1532405575850,4,3,6,-1,-1,-6,-3,-3
1532405575855,-8,-4,-8,-4,1,12,3,-2
1532405575860,-1,0,-3,-1,-3,-7,-2,-2
1532405575865,1,-3,-1,-1,1,2,0,-1
1532405575870,-3,0,2,0,-3,4,1,-2
1532405575875,3,-1,2,4,4,-8,-5,1
1532405575880,-2,1,0,-2,1,2,-1,0
1532405575885,2,0,0,-4,-5,-3,0,0
1532405575890,-5,-2,-2,0,-1,2,-3,-2
1532405575895,1,-2,-1,-4,-5,-8,-4,-3
1532405575900,3,1,-1,0,1,8,0,-1
1532405575905,-2,-1,1,0,0,-12,-2,-2
1532405575910,-2,-3,-2,1,3,12,3,-1
1532405575915,4,-2,-1,-1,-4,-5,-1,-1
1532405575920,-3,0,0,-1,-1,-2,1,-4
1532405575925,-6,-6,-1,0,-1,-4,-2,0
1532405575930,1,-3,4,2,0,0,-1,1
1532405575935,6,2,-4,-2,0,-2,2,0
1532405575940,-6,-2,-2,1,-1,6,0,0
1532405575945,1,-7,-4,-4,0,4,1,-3
1532405575950,5,4,-1,-2,-4,-7,-6,-4
1532405575955,-21,-12,-1,2,4,5,0,-3
1532405575960,6,-10,-1,-1,-1,-6,0,3
1532405575965,-2,11,-1,1,2,4,-1,-2
1532405575970,-2,6,-1,-2,-4,-2,-3,1
1532405575975,6,-8,-1,2,-2,-2,2,2
1532405575980,-2,-1,1,0,-1,-2,-2,-3
1532405575985,0,1,-6,-3,2,4,2,1
1532405575990,8,-8,0,0,2,-1,-3,1
1532405575995,-2,9,3,0,-2,-2,-6,-5
1532405576000,-1,1,-2,-3,0,0,-2,-1
1532405576005,4,6,0,-1,-4,0,0,-1
1532405576010,-2,2,-5,-6,-3,-5,1,-2
1532405576015,-4,-4,-2,-1,0,3,-1,2
1532405576020,-3,3,2,-1,-1,-5,-4,0
1532405576025,0,-2,3,1,2,-6,-2,1
1532405576030,-4,-4,-5,1,4,13,3,0
1532405576035,2,4,1,0,-1,-2,1,-2
1532405576040,0,4,-1,-2,-3,-5,0,-2
1532405576045,1,3,0,-2,-1,9,1,-2
1532405576050,-3,2,3,0,0,-6,-3,-1
1532405576055,-1,3,-5,-2,0,-2,-8,-2
1532405576060,-2,1,0,0,0,2,1,-4
1532405576065,2,-2,-1,0,-1,-4,-1,1
1532405576070,0,-6,-2,1,3,-1,4,-1
1532405576075,1,6,-1,-2,0,14,5,-1
1532405576080,-1,-14,4,2,1,-5,2,-3
1532405576085,-2,4,-2,-4,-2,0,1,-2
1532405576090,-3,-5,-5,-4,-3,-1,-3,-1
1532405576095,1,1,1,-2,-1,-12,-5,-1
1532405576100,5,4,-3,0,-3,1,-1,0
1532405576105,-10,-6,1,-2,-3,6,1,-2
1532405576110,-4,1,-5,-1,-3,-4,0,0
1532405576115,3,-2,3,1,3,-2,3,0
1532405576120,-1,3,-8,-3,-5,-6,-5,-1
1532405576125,0,-1,1,4,2,-10,-6,1
1532405576130,-2,1,0,-1,-1,-2,-1,-4
1532405576135,-4,-2,5,0,0,-1,2,-2
1532405576140,-1,-8,-4,-1,3,1,0,-1
1532405576145,1,5,0,-3,-6,-4,-4,-2
1532405576150,-4,-4,2,0,2,7,2,0
1532405576155,7,1,-3,-2,-3,-5,0,0
1532405576160,-1,6,1,0,-5,-10,-2,-1
1532405576165,-1,-9,-4,-3,1,16,2,-2
1532405576170,-2,3,2,1,0,-9,1,0
1532405576175,-1,0,2,-3,-1,3,-2,0
1532405576180,-3,0,-6,-2,-2,-7,-2,-5
1532405576185,2,-2,1,3,3,-1,-1,1
1532405576190,-1,0,-3,-1,-3,-5,-2,-2
1532405576195,0,-2,-1,-6,-4,-5,-4,-1
1532405576200,-1,2,4,-2,-1,1,-1,0
1532405576205,2,-3,-3,1,-2,-8,-3,1
1532405576210,-1,-4,0,3,5,6,2,-2
1532405576215,-3,2,0,-2,-4,-6,1,-1
1532405576220,-1,-2,-4,0,0,7,2,-1
1532405576225,-5,-9,-3,0,-1,-1,-3,-4
1532405576230,3,0,-1,-3,-1,-7,-2,-3
1532405576235,1,-2,-1,0,1,9,2,0
1532405576240,1,4,-4,-1,-1,-5,-3,1
1532405576245,-2,-2,-1,-1,-2,1,0,-3
1532405576250,-6,-3,-1,-2,0,0,-2,-3
1532405576255,-1,-2,0,-2,-3,-5,-3,-3
1532405576260,0,1,-1,-2,0,2,0,0
1532405576265,4,0,1,2,3,-3,-5,1
1532405576270,-1,0,-5,-4,-2,-2,-1,0
1532405576275,0,5,2,0,1,0,-3,-1
1532405576280,-1,-1,1,1,0,-1,-5,-1
1532405576285,-2,-2,-4,-4,-2,-1,4,1
1532405576290,2,0,0,-2,1,-1,-1,-2
1532405576295,-3,-2,0,0,0,-1,-2,-2
1532405576300,3,-6,-3,-1,-1,-8,-3,-3
1532405576305,0,-1,0,-1,1,10,19,1
1532405576310,-1,2,1,-1,0,1,2,4
1532405576315,6,0,-3,-1,-3,-2,3,1
1532405576320,0,-2,-1,-2,-6,-2,-7,-4
1532405576325,-2,0,0,-1,-1,-4,-4,-4
1532405576330,1,-2,-1,-3,-2,1,2,-3
1532405576335,4,3,-1,2,0,-1,-4,-2
1532405576340,-5,1,1,-1,-1,-1,2,-1
1532405576345,3,0,-2,-1,-2,-2,-3,-1
1532405576350,-5,-2,-2,0,0,-1,-1,-2
1532405576355,0,-1,0,0,-2,-2,-2,0
1532405576360,-1,1,0,1,-1,0,2,0
1532405576365,-5,-3,-2,-2,0,-4,-4,-1
1532405576370,1,-4,-4,-1,0,-1,-2,-3
1532405576375,1,1,-2,-1,0,-2,2,0
1532405576380,1,2,0,1,3,0,0,1
1532405576385,-3,0,-2,-1,2,-3,-4,-3
1532405576390,-1,0,2,1,1,-1,0,-2
1532405576395,0,-1,0,-3,-5,0,-1,-1
1532405576400,0,-1,-1,0,-2,0,-1,-1
1532405576405,-1,-6,0,0,-2,-1,-4,-1
1532405576410,0,3,-1,-2,-2,-1,0,-2
1532405576415,-2,-2,1,3,2,-4,2,1
1532405576420,-2,1,0,-3,-3,-1,-1,1
1532405576425,-1,-1,-1,1,0,-1,-1,-2
1532405576430,-1,-1,1,1,1,1,0,1
1532405576435,4,-2,-2,-1,0,-1,5,3
1532405576440,-2,-3,-2,0,4,4,-7,-7
1532405576445,-1,3,-1,1,-3,-3,-6,0
1532405576450,3,0,-2,-3,0,0,4,-1
1532405576455,-7,5,0,-3,-2,-2,-9,-1
1532405576460,3,1,0,-2,-4,-5,-2,-3
1532405576465,-5,-8,-4,1,0,4,-4,-3
1532405576470,5,-2,2,1,1,7,-3,-2
1532405576475,-2,3,-8,-6,-4,-2,0,-4
1532405576480,-7,1,-1,-1,2,1,2,-6
1532405576485,20,-1,-2,-2,3,-5,1,-1
1532405576490,-19,5,6,2,-5,-9,8,0
1532405576495,-16,-6,3,-2,-8,-11,-7,-8
1532405576500,18,-13,-6,0,3,-6,-4,-5
1532405576505,11,10,12,3,5,6,3,-5
1532405576510,9,-9,-15,-6,3,-11,2,0
1532405576515,-2,4,6,3,0,-2,0,-8
1532405576520,-7,-1,-3,-6,-8,-13,-11,-1
1532405576525,-14,-1,1,-1,-4,-1,1,-8
1532405576530,4,-2,1,0,3,2,-10,2
1532405576535,-6,-7,-4,-3,-4,2,-4,2
1532405576540,-2,2,0,1,-1,9,4,11
1532405576545,1,-10,-3,-1,-2,4,5,5
1532405576550,-14,-1,0,-2,-2,3,-1,3
1532405576555,9,2,-1,1,3,1,-1,1
1532405576560,-1,2,3,3,2,7,1,6
1532405576565,-7,-2,-4,-3,-1,-4,-7,2
1532405576570,5,0,1,-1,-2,-1,-12,-4
1532405576575,1,5,1,2,-1,3,12,4
1532405576580,-2,-2,-2,0,0,-1,-5,-4
1532405576585,-2,0,-5,-4,-5,-4,-4,0
1532405576590,-7,-4,-3,-2,-6,-2,-4,-4
1532405576595,11,5,1,-2,-2,3,2,0
1532405576600,6,5,-2,-1,0,-2,3,-1
1532405576605,-2,-2,0,2,1,-3,1,4
1532405576610,-2,-1,-4,-3,1,-2,-1,-6
1532405576615,1,-5,-1,0,3,-2,-2,-1
1532405576620,-5,-2,-2,-1,-1,-1,1,-1
1532405576625,3,15,3,0,-2,-2,1,1
1532405576630,-2,0,2,1,0,1,0,-2
1532405576635,3,-4,-3,0,2,-1,-6,-2
1532405576640,-5,3,-1,-1,0,0,1,-1
1532405576645,-1,0,0,-1,0,-2,-2,-4
1532405576650,-3,4,0,-2,-2,-1,3,0
1532405576655,-1,-5,-2,-1,-1,0,-2,-3
1532405576660,1,1,2,1,0,-1,2,1
1532405576665,-3,-2,-3,-2,-1,-1,0,2
1532405576670,-4,-2,-2,-4,-4,-2,0,-4
1532405576675,5,2,4,2,0,-2,1,-1
1532405576680,-1,0,-5,0,2,0,1,-2
1532405576685,-1,-6,-4,-3,-4,-2,-4,-4
1532405576690,2,2,0,1,-2,0,1,1
1532405576695,-3,-1,0,0,2,-1,-1,-2
1532405576700,-3,-1,5,2,-2,0,-2,-1
1532405576705,6,4,-6,-1,3,-1,-1,-4
1532405576710,-10,-5,1,-2,-2,-1,-4,2
1532405576715,-5,-8,-3,-2,-1,1,-5,-1
1532405576720,1,9,-1,0,-3,-5,-3,0
1532405576725,4,-2,5,0,0,1,0,0
1532405576730,0,0,-5,0,1,0,2,-3
1532405576735,0,1,1,1,1,1,0,0
1532405576740,-3,-6,-1,-3,-4,-5,-2,-2
1532405576745,-3,-2,2,0,-3,5,0,0
1532405576750,4,3,-7,-4,-3,-1,-8,-1
1532405576755,-4,-7,-12,-1,-2,1,-5,-1
1532405576760,1,1,5,1,2,2,3,-2
1532405576765,-4,-3,0,-2,-2,-12,-2,-1
1532405576770,1,-2,3,2,5,16,6,0
1532405576775,0,-1,-1,-2,-3,-4,-1,0
1532405576780,-4,-4,-2,-2,-1,-5,1,-2
1532405576785,0,-2,-5,-1,-2,-1,4,1
1532405576790,-5,-2,3,-2,0,-4,2,-1
1532405576795,2,4,-2,4,7,-1,2,1
1532405576800,-5,-8,0,-7,-7,2,2,2
1532405576805,-3,1,0,-1,-4,-4,0,-2
1532405576810,2,0,2,0,-1,-5,-5,0
1532405576815,0,4,3,1,5,12,1,-1
1532405576820,0,-2,6,4,5,-9,-3,2
1532405576825,-1,-1,-7,-5,-1,3,-2,0
1532405576830,-2,-1,4,-1,-2,-4,0,1
1532405576835,2,4,5,1,-2,0,-1,-3
1532405576840,-2,1,-3,-2,0,7,1,-2
1532405576845,0,-2,-3,0,-1,-2,0,-2
1532405576850,2,-2,-4,-1,0,-3,0,-5
1532405576855,-1,0,1,0,1,-2,2,-1
1532405576860,-2,-1,-3,-1,-3,-1,-2,-3
1532405576865,-2,0,-1,-3,-5,-3,0,-1
1532405576870,0,0,-1,1,-4,-2,-1,-1
1532405576875,-1,0,7,-5,-6,-3,-2,-1
1532405576880,1,-1,-4,-2,-1,-2,-4,-1
1532405576885,-3,-1,1,1,1,3,0,1
1532405576890,1,-1,4,3,2,-1,1,0
1532405576895,-1,-2,-9,-1,-1,-2,-1,-1
1532405576900,1,1,-3,1,2,-2,-1,-2
1532405576905,-6,-6,13,-2,-1,-2,-5,-2
1532405576910,-1,-1,-2,-2,-3,0,0,-2
1532405576915,-1,-2,-2,0,-3,0,1,-1
1532405576920,0,3,3,0,-1,-1,1,1
1532405576925,0,-2,-9,-2,-1,-1,-2,-1
1532405576930,-1,-3,-4,-1,2,0,-1,-1
1532405576935,0,-4,0,-3,0,-2,-1,1
1532405576940,2,13,0,-1,-1,1,0,-2
1532405576945,1,3,1,0,0,2,0,0
1532405576950,0,-1,1,-3,-3,-3,-1,2
1532405576955,-1,-1,-4,-3,-4,-2,-1,1
1532405576960,-1,-5,-1,-1,1,2,2,0
1532405576965,-1,0,-5,2,-1,-2,-1,-6
1532405576970,0,2,0,-2,-3,0,-1,-3
1532405576975,-2,-1,-1,0,-1,-2,-3,-3
1532405576980,0,-6,0,-2,-1,-4,0,-1
1532405576985,0,0,1,1,-1,3,-1,-2
1532405576990,1,0,-1,-1,-2,-1,1,0
1532405576995,0,-1,-3,-4,-2,-1,-2,1
1532405577000,2,0,0,0,1,-2,-3,-4
1532405577005,-3,-2,2,1,0,0,0,-3
1532405577010,1,-4,-4,-2,-1,5,-2,-1
1532405577015,-1,2,-2,0,-1,-1,4,-1
1532405577020,-1,-2,0,0,-1,-4,-4,1
1532405577025,1,-1,0,3,1,-1,-1,1
1532405577030,-1,0,-2,-4,-1,-4,-4,-1
1532405577035,0,-1,-2,-2,-8,-2,-1,-2
1532405577040,0,0,0,0,0,0,-1,1
1532405577045,0,-1,0,-1,-1,0,0,-3
1532405577050,0,-2,0,3,3,4,1,3
1532405577055,-1,-2,1,-1,1,-4,-1,-1
1532405577060,0,-3,-2,0,-4,1,2,-1
1532405577065,2,1,3,0,0,-1,-1,1
1532405577070,-3,0,-6,1,0,-6,-4,-5
1532405577075,0,-1,-2,-4,2,2,-1,-1
1532405577080,0,4,0,0,-1,-7,-2,0
1532405577085,0,-5,-2,-4,-1,3,2,2
1532405577090,0,-1,1,-2,-5,-1,0,-1
1532405577095,1,2,-1,1,0,-1,-2,-3
1532405577100,-2,-5,0,-2,-1,-6,-4,-6
1532405577105,1,1,-1,0,-1,1,-1,-2
1532405577110,-4,-1,0,-1,0,-1,-2,-3
1532405577115,-2,-5,-1,1,2,2,1,0
1532405577120,-1,0,1,0,-2,-2,-1,0
1532405577125,-1,-5,-2,-2,-4,-5,-3,-1
1532405577130,-1,-6,-4,-1,0,-2,-1,-3
1532405577135,1,0,2,0,-1,-1,-1,-1
1532405577140,-1,-2,-3,-1,0,2,-1,-1
1532405577145,-2,2,0,3,-1,-2,-3,0
1532405577150,-1,-5,-1,-3,0,0,-1,0
1532405577155,-1,2,2,-2,-4,-2,-2,-1
1532405577160,-2,-3,-3,-1,4,5,1,-1
1532405577165,-1,-1,-3,-1,-1,-3,-5,-1
1532405577170,-1,3,2,-1,-2,0,0,0
1532405577175,-2,-2,-2,2,-1,-4,-3,0
1532405577180,-3,-1,1,-1,1,1,0,-1
1532405577185,1,2,-4,-3,2,3,4,-1
1532405577190,3,5,1,0,-1,0,2,-1
1532405577195,-5,-11,-1,1,0,-4,-6,-1
1532405577200,-1,1,-1,1,0,-4,-2,-1
1532405577205,-3,-1,-2,-4,-2,-1,0,-1
1532405577210,2,0,1,-2,-4,-2,-2,-3
1532405577215,1,1,-1,1,-1,3,3,0
1532405577220,-3,-3,1,1,1,0,0,1
1532405577225,3,9,1,1,1,-1,-2,-1
1532405577230,0,-1,-1,0,-2,-2,-1,0
1532405577235,1,-1,-1,0,0,0,-2,1
1532405577240,-1,-3,-2,-2,-2,1,0,-2
1532405577245,1,-4,0,-1,-1,-1,-1,0
1532405577250,-4,3,-1,0,0,-1,0,-1
1532405577255,-2,1,0,0,1,0,1,1
1532405577260,0,0,1,0,-1,0,-1,0
1532405577265,-2,-4,-1,-2,-4,-6,-4,-2
1532405577270,-1,-2,-1,1,1,4,3,-1
1532405577275,-2,-2,1,-1,0,1,1,-7
1532405577280,1,1,-2,-2,-2,-1,0,2
1532405577285,2,0,1,0,-1,-9,-3,-2
1532405577290,-1,-4,0,-2,0,9,-1,-1
1532405577295,0,0,-1,-1,-3,-2,-2,-1
1532405577300,4,2,0,-3,-5,2,0,1
1532405577305,-3,-4,-1,-1,-2,-1,2,-2
1532405577310,0,2,-1,0,1,-7,-1,-1
1532405577315,-2,-3,-1,1,3,1,-2,1
1532405577320,2,2,-2,2,0,1,-3,-1
1532405577325,-1,-10,-2,0,2,3,1,0
1532405577330,-1,-1,-2,0,-3,-8,-4,-2
1532405577335,1,4,0,-1,-1,3,2,3
1532405577340,2,-1,-2,-3,1,-1,-1,-3
1532405577345,-7,1,1,1,0,0,-1,-3
1532405577350,-1,-2,-1,-1,-1,2,0,0
1532405577355,-1,-3,-2,-3,-5,-5,-2,0
1532405577360,0,0,-2,-1,1,-2,1,-1
1532405577365,2,3,2,0,-5,-2,0,-1
1532405577370,0,-3,-2,-1,3,1,-2,-3
1532405577375,-3,0,0,-2,-3,-2,-1,-3
1532405577380,-2,-3,0,0,-3,-1,-1,-3
1532405577385,0,2,0,-1,1,1,0,2
1532405577390,-2,-2,0,2,2,6,4,0
1532405577395,3,4,0,-1,1,-1,-4,0
1532405577400,-2,-3,-1,-2,-4,-6,0,-2
1532405577405,-1,1,-2,-1,0,12,1,1
1532405577410,2,4,1,-1,-3,-14,-2,-3
1532405577415,-6,-17,-2,0,0,24,6,-1
1532405577420,3,7,1,1,4,0,-1,1
1532405577425,0,-1,-1,0,-2,-17,-5,-1
1532405577430,2,-1,1,-2,-2,-7,-3,2
1532405577435,-4,-5,-2,0,0,4,1,1
1532405577440,-8,-3,1,-3,-4,0,3,0
1532405577445,0,3,1,-1,-1,1,0,-2
1532405577450,0,-10,-2,0,1,1,3,0
1532405577455,5,11,-1,-3,-3,-8,-1,-4
1532405577460,-5,-4,-1,1,-2,1,-3,-2
1532405577465,10,-2,1,1,4,0,2,6
1532405577470,-4,4,-2,2,-2,-8,-5,-6
1532405577475,0,0,-3,-1,0,10,-3,-1
1532405577480,0,1,-2,-2,-1,-8,-3,-1
1532405577485,1,0,-1,-4,-3,11,4,-3
1532405577490,-3,-2,-2,-3,-3,-8,-7,-4
1532405577495,-3,1,-1,2,-3,-16,-3,-2
1532405577500,-3,-3,-1,-2,-2,-1,-3,-1
1532405577505,3,4,1,2,-1,-7,-2,0
1532405577510,-9,1,-5,-1,-2,22,2,-2
1532405577515,2,-6,0,3,2,-8,-2,-1
1532405577520,0,6,0,-2,3,-3,-1,-1
1532405577525,-9,-5,0,-1,-1,2,-2,-4
1532405577530,5,5,-1,2,0,-8,-4,-3
1532405577535,-6,-3,-3,-4,-1,1,0,-2
1532405577540,1,-6,-1,2,1,5,2,0
1532405577545,-7,2,3,-4,-2,-3,-1,-4
1532405577550,0,4,-3,0,0,-8,-2,3
1532405577555,-4,-7,0,0,3,14,0,-3
1532405577560,4,-5,-4,-3,-1,-9,-3,-1
1532405577565,-2,-3,-2,-2,-5,3,0,-3
1532405577570,6,3,-3,-2,-3,-3,-1,0
1532405577575,-6,-2,1,1,0,-12,1,1
1532405577580,-8,-7,-1,-1,-2,11,1,0
1532405577585,3,7,6,2,3,-3,-2,-1
1532405577590,-1,-2,-2,-2,0,1,-1,-1
1532405577595,0,-4,-5,-2,-5,-8,-1,-1
1532405577600,-1,0,0,-2,-2,1,-5,-1
1532405577605,-2,0,-6,1,-1,-2,-3,0
1532405577610,-1,5,9,1,0,3,-3,0
1532405577615,3,-1,-2,-2,-4,-4,-4,1
1532405577620,-1,-3,-3,-2,-6,-4,1,-3
1532405577625,-4,-7,-2,-2,0,-7,-2,0
1532405577630,-3,-1,4,2,2,5,1,0
1532405577635,-3,1,-5,-6,-1,-10,-4,-3
1532405577640,-2,1,-4,-1,-2,14,2,1
1532405577645,-1,-2,13,1,1,3,0,1
1532405577650,2,-2,-6,-5,-1,0,-1,0
1532405577655,-5,0,7,3,2,0,0,-3
1532405577660,-2,-1,-3,-2,2,-1,-2,-1
1532405577665,3,-1,4,3,2,3,3,-2
1532405577670,-2,8,3,0,-2,-5,-1,0
1532405577675,-7,-9,-13,-1,-3,-7,-6,-1
1532405577680,0,0,11,2,1,5,3,-1
1532405577685,0,2,-5,-4,-6,-1,-1,0
1532405577690,-2,-7,-1,-3,-2,3,1,-1
1532405577695,5,0,-2,0,3,2,0,-4
1532405577700,4,10,-5,-1,-5,-11,-4,-4
1532405577705,-6,0,-6,0,5,12,4,-2
1532405577710,-2,-4,2,1,-2,2,-2,-1
1532405577715,0,2,2,1,0,1,4,3
1532405577720,5,-6,-4,2,2,-16,-6,-2
1532405577725,-1,-2,-6,-8,-8,-1,-1,-2
1532405577730,-5,-4,-3,-3,-1,0,0,-1
1532405577735,-1,-2,2,2,0,-3,-2,-1
1532405577740,-2,0,3,-2,-1,1,5,1
1532405577745,-1,-3,-7,0,-2,-5,-10,-1
1532405577750,4,1,-5,0,5,1,0,-1
1532405577755,1,1,13,-2,-5,-1,2,0
1532405577760,-6,-3,-16,-6,-2,0,-2,-3
1532405577765,0,0,2,0,-2,-7,-2,-4
1532405577770,1,-3,-2,-2,-2,-2,2,-1
1532405577775,5,5,3,0,1,4,-3,0
1532405577780,0,2,6,1,-3,-5,-4,-2
1532405577785,-7,-7,-7,-3,2,2,0,-2
1532405577790,10,0,-2,1,-2,-2,-3,-1
1532405577795,-18,-5,-2,-2,-3,0,2,-3
1532405577800,-4,-5,5,3,1,-26,-5,0
1532405577805,4,2,1,2,6,28,2,0
1532405577810,1,-3,-1,-2,-2,-6,-3,-2
1532405577815,4,-2,-4,-3,0,-5,-8,2
1532405577820,4,4,-3,0,-2,-1,2,0
1532405577825,-5,-8,1,2,1,8,0,-1
1532405577830,2,1,0,-1,-1,-15,-4,0
1532405577835,0,-4,-3,-1,0,4,3,-4
1532405577840,-1,-1,-2,-1,-2,5,-2,1
1532405577845,3,0,-2,-3,-3,-14,-2,-3
1532405577850,-5,-2,-3,3,-2,4,-14,-2
1532405577855,4,3,8,-2,1,4,9,-2
1532405577860,-6,-8,-11,-4,1,7,4,-1
1532405577865,-3,3,4,-1,-5,-12,1,1
1532405577870,-2,-3,-2,-2,-1,-6,0,-1
1532405577875,3,3,5,2,1,23,0,0
1532405577880,3,10,-8,-3,-2,-4,-5,-2
1532405577885,6,-10,-1,-1,-1,0,0,1
1532405577890,-23,8,3,-2,-1,-4,0,-9
1532405577895,-1,0,-3,1,-3,-2,4,0
1532405577900,-1,-3,4,-1,2,12,4,-2
1532405577905,6,5,-3,1,3,3,-3,1
1532405577910,5,-2,2,0,-2,-5,3,4
1532405577915,-1,-1,-4,-1,-3,-4,-4,-3
1532405577920,-2,-2,3,0,-2,-2,-6,-2
1532405577925,-4,5,-4,0,1,-6,1,-1
1532405577930,-1,-8,-3,4,7,7,5,0
1532405577935,-1,1,-3,-5,-1,-1,-3,0
1532405577940,0,-5,-5,-8,-11,-12,-5,-2
1532405577945,-2,-2,-3,0,0,14,5,1
1532405577950,0,-1,-2,-1,-2,14,3,2
1532405577955,2,1,-3,3,4,-8,-2,1
1532405577960,1,-2,6,13,4,-1,-2,-1
1532405577965,-6,2,-3,-14,-5,-12,-2,-2
1532405577970,3,-5,-1,-5,-6,0,-3,-5
1532405577975,-9,-3,-1,-4,-4,7,1,-1
1532405577980,-2,-4,0,2,4,-3,-3,0
1532405577985,1,2,1,4,-1,-15,-7,-4
1532405577990,2,3,3,1,0,-11,-1,1
1532405577995,-1,-4,-5,-3,-2,5,-2,-2
1532405578000,0,3,9,4,1,11,3,0
1532405578005,0,-7,-8,-1,0,-5,0,1
1532405578010,-3,9,2,-2,1,0,-3,-1
1532405578015,1,-5,-5,-1,-1,-4,-4,0
1532405578020,-1,0,4,-3,-2,-12,0,1
1532405578025,3,4,3,3,3,6,-1,-3
1532405578030,2,-3,-2,-1,-4,8,4,5
1532405578035,1,0,-3,-3,-2,-14,-3,-1
1532405578040,-3,1,-1,-5,-1,10,3,-2
1532405578045,-2,1,0,1,0,-9,-7,-3
1532405578050,-1,-3,-2,0,0,-4,-9,-5
1532405578055,-1,0,-1,2,0,6,19,3
1532405578060,1,-3,-5,-3,1,-10,-6,1
1532405578065,-2,-3,8,0,-6,18,3,-3
1532405578070,-2,-3,4,-3,2,0,1,-5
1532405578075,11,4,-3,-7,-4,-8,-5,-3
1532405578080,-6,-9,-2,-5,-3,0,1,-4
1532405578085,1,-1,-2,1,-1,-7,-2,0
1532405578090,-3,-4,1,2,0,-2,-1,-1
1532405578095,5,-3,5,0,-1,-2,-4,1
1532405578100,-2,1,0,1,2,11,3,-2
1532405578105,-1,5,1,0,-2,-6,-4,1
1532405578110,1,-8,-4,-5,-3,4,4,-3
1532405578115,-5,2,-4,-1,0,-12,-7,-3
1532405578120,-2,6,1,1,-1,0,-5,-3
1532405578125,-1,-2,-1,-2,-1,-2,2,-1
1532405578130,-1,0,-4,-1,-1,-8,0,1
1532405578135,-5,-1,2,0,-1,4,-2,-4
1532405578140,0,-4,2,0,0,-23,-3,1
1532405578145,2,-1,0,2,2,18,4,-1
1532405578150,-1,5,-2,-4,-1,-1,2,-1
1532405578155,-4,-8,-1,-1,-5,8,-2,-1
1532405578160,3,-2,-2,-1,-3,3,1,-1
1532405578165,-2,-2,-4,-5,-2,-2,-1,-1
1532405578170,-1,-1,-2,4,2,-7,-1,0
1532405578175,-2,1,0,2,2,1,-1,0
1532405578180,2,0,-4,-3,-2,0,-6,1
1532405578185,1,-1,-1,-3,-1,-7,2,-1
1532405578190,-1,7,0,0,1,2,-6,-2
1532405578195,0,2,1,0,0,0,2,-3
1532405578200,-2,-2,0,1,2,12,3,-4
1532405578205,-1,1,0,-1,-2,-10,0,0
1532405578210,1,-6,1,4,-1,3,0,0
1532405578215,-1,-2,-7,-7,-2,0,-4,-2
1532405578220,-6,7,0,-3,-5,-3,7,0
1532405578225,-3,-2,-1,-1,0,24,0,-1
1532405578230,0,2,1,0,0,-4,11,-2
1532405578235,-1,-1,1,3,-1,-14,-4,-3
1532405578240,2,-4,0,-1,2,10,-3,0
1532405578245,1,0,0,2,5,0,1,0
1532405578250,0,-1,0,-6,-6,11,-1,0
1532405578255,-4,-5,1,0,-1,-3,-1,0
1532405578260,1,-4,-3,-4,-2,6,-5,-2
1532405578265,-2,-1,5,3,-2,-22,-6,-3
1532405578270,-2,-2,-9,-3,8,30,3,0
1532405578275,2,3,-1,-2,-3,-12,-3,2
1532405578280,-4,-13,-8,4,0,13,3,-2
1532405578285,-1,5,8,-5,1,-8,1,-4
1532405578290,-2,-7,3,0,-1,-6,-2,2
1532405578295,2,5,2,1,-1,8,2,0
1532405578300,0,1,-1,-2,-1,-6,-1,1
1532405578305,0,-3,-7,1,-3,-11,-9,-2
1532405578310,-2,-2,-3,-2,-5,-18,2,-2
1532405578315,-2,0,2,-2,1,-5,-4,0
1532405578320,-4,1,3,1,4,8,-6,-4
1532405578325,0,-2,-3,-3,-4,-3,0,-1
1532405578330,0,0,-4,-3,-11,-14,-10,-1
1532405578335,2,-2,-2,0,4,15,7,0
1532405578340,0,-5,2,-1,4,8,4,2
1532405578345,-3,0,-8,-2,3,-7,-4,-1
1532405578350,-2,-3,0,-2,-3,-13,-5,2
1532405578355,-5,-5,-2,1,0,12,-1,-3
1532405578360,2,2,0,-1,-1,-15,-1,-2
1532405578365,2,2,4,1,1,12,4,0
1532405578370,2,1,1,0,-2,-5,-2,-2
1532405578375,-1,4,-1,-1,-2,-6,-4,0
1532405578380,3,0,-2,-1,-2,-23,-3,-2
1532405578385,-9,-9,-3,-2,-2,-2,-2,-2
1532405578390,-2,1,-1,-3,-2,-7,0,-3
1532405578395,-1,-5,-1,-2,-5,8,-5,-5
1532405578400,-1,6,2,0,-3,1,-5,2
1532405578405,7,0,2,3,7,10,10,4
1532405578410,-1,-2,1,0,2,3,-4,-3
1532405578415,0,1,4,3,-3,-8,-2,1
1532405578420,-5,-3,-2,-5,-4,5,1,-3
1532405578425,-5,4,-3,-4,-2,10,5,-1
1532405578430,11,-8,-2,-1,-1,-9,-7,-1
1532405578435,-21,-8,2,1,-2,-25,0,-6
1532405578440,4,3,2,7,5,18,8,2
1532405578445,-6,-4,-3,0,-2,1,3,-1
1532405578450,-2,3,-1,-1,-2,20,7,-2
1532405578455,7,2,0,-3,1,-11,1,-4
1532405578460,-1,-5,0,-1,-3,-12,-9,-3
1532405578465,2,1,-2,0,1,14,4,-1
1532405578470,-1,3,3,2,0,-18,-3,1
1532405578475,1,-2,-4,-2,1,44,2,3
1532405578480,-3,1,0,-3,1,2,10,2
1532405578485,3,-3,-2,-3,-8,-17,-13,-3
1532405578490,-2,4,0,3,2,-6,-13,2
1532405578495,0,-2,-1,-1,0,-7,2,1
1532405578500,2,6,-2,-2,0,0,-9,-4
1532405578505,-1,-1,-3,-1,-2,0,-5,-1
1532405578510,-3,-4,0,0,0,0,0,-3
1532405578515,0,5,-5,-2,5,-3,-3,0
1532405578520,2,-1,1,-3,-4,-1,2,-1
1532405578525,0,-1,-2,-1,1,18,7,-1
1532405578530,-2,6,0,1,3,-6,-4,-2
1532405578535,4,2,-1,1,3,10,7,1
1532405578540,-1,-4,-2,0,-1,-19,-12,-4
1532405578545,-1,-1,2,-4,-7,10,14,0
1532405578550,-2,-2,-5,-1,-2,3,7,-1
1532405578555,1,0,-1,-3,-5,-18,-3,0
1532405578560,0,-1,-4,1,-3,-8,-13,-4
1532405578565,0,-1,0,3,5,-22,-11,0
1532405578570,1,-1,-2,2,4,19,5,1
1532405578575,-1,-2,-3,-4,-6,1,4,2
1532405578580,-1,-1,-2,-3,-6,13,5,1
1532405578585,1,-2,0,0,-2,-18,-4,1
1532405578590,-3,0,0,-2,-3,-1,4,-3
1532405578595,-2,-3,0,0,1,-2,-7,-2
1532405578600,-1,-3,-1,-2,3,6,6,5
1532405578605,1,0,-1,-3,-6,-11,-8,-2
1532405578610,-5,-2,-5,-3,-1,16,-5,-1
1532405578615,0,0,1,2,-5,-26,-10,-5
1532405578620,-5,-9,-3,-5,1,14,2,-2
1532405578625,6,8,4,4,6,-1,2,-1
1532405578630,2,-4,-3,-3,0,1,0,3
1532405578635,-1,-3,-1,-3,-4,12,1,-3
1532405578640,1,6,1,-1,-4,-19,-7,-2
1532405578645,-7,-8,7,4,9,40,9,-2
1532405578650,7,1,-1,-8,-1,-3,4,0
1532405578655,-1,8,-3,0,0,5,-1,-3
1532405578660,-5,-7,6,-2,0,-6,2,-3
1532405578665,2,4,-3,0,-6,-13,-8,7
1532405578670,6,3,1,5,1,-3,-3,-14
1532405578675,0,8,6,1,3,4,3,13
1532405578680,-2,-13,-15,-10,-10,-7,0,1
1532405578685,4,5,-2,0,-2,-5,0,-3
1532405578690,-7,3,5,2,3,3,-3,0
1532405578695,-1,-10,-8,-1,1,-18,-9,-13
1532405578700,0,2,-2,2,1,2,3,-1
1532405578705,-3,5,5,-4,-5,-7,-8,-2
1532405578710,-5,-16,-5,-4,-3,0,2,0
1532405578715,3,5,2,6,5,9,3,5
1532405578720,0,-1,-6,-5,1,2,-2,-2
1532405578725,-4,0,-3,-3,-1,-5,0,-6
1532405578730,-2,-11,-3,-1,-2,-5,1,1
1532405578735,-7,-3,0,-2,-4,-4,-2,-4
1532405578740,0,2,-1,4,2,5,2,3
1532405578745,3,-2,-3,-1,-1,-9,-8,-1
1532405578750,-2,2,-1,1,2,-2,7,-1
1532405578755,1,-5,0,-2,-1,7,-3,4
1532405578760,1,2,0,3,3,7,-5,-16
1532405578765,-5,-2,-2,-5,-6,-2,-6,-9
1532405578770,0,5,3,0,-1,-6,-2,3
1532405578775,-1,-9,-3,-5,-9,-8,1,2
1532405578780,1,11,5,-1,-1,-7,0,3
1532405578785,-3,-4,-1,0,3,-3,1,2
1532405578790,-4,0,-1,4,22,0,3,-3
1532405578795,0,-2,1,-2,-14,12,-1,-7
1532405578800,-1,-4,-4,-1,0,-7,2,10
1532405578805,6,1,-2,0,2,0,3,29
1532405578810,2,3,1,-6,-9,-10,-10,0
1532405578815,4,6,1,6,12,14,-1,6
1532405578820,-4,-4,1,-1,4,1,1,-7
1532405578825,-6,-5,-4,-4,-6,-5,-2,-14
1532405578830,-3,0,0,-1,3,2,-4,-12
1532405578835,-2,0,2,-1,12,-1,-4,-10
1532405578840,-2,1,1,-4,-23,-2,-2,6
1532405578845,0,-5,-3,-2,-3,-5,-6,0
1532405578850,-2,1,1,-2,-8,3,6,-3
1532405578855,1,1,0,-1,-1,-3,-2,6
1532405578860,-1,1,2,1,1,-3,-3,-5
1532405578865,0,-2,0,0,4,2,13,13
1532405578870,-6,-1,-1,0,-3,0,7,-8
1532405578875,0,-1,-2,-1,0,-4,-1,3
1532405578880,2,0,0,2,6,2,-4,-1
1532405578885,-2,-3,-1,0,-4,-2,-3,-12
1532405578890,-1,-2,-4,-1,-5,1,-1,1
1532405578895,0,-1,0,1,0,-3,-9,-6
1532405578900,-1,0,-2,0,1,0,13,1
1532405578905,1,-2,-2,0,0,5,-6,-6
1532405578910,-1,-2,0,-2,-5,-11,-13,3
1532405578915,-4,-2,-1,-1,-3,-6,-3,-9
1532405578920,2,-1,1,2,-1,0,-3,-1
1532405578925,-2,-3,-1,-2,-1,-3,-4,-17
1532405578930,2,-1,-1,-1,1,4,12,14
1532405578935,-1,-3,-1,-3,-4,-3,-6,-2
1532405578940,-2,3,-2,-1,-1,3,-7,-6
1532405578945,-1,-2,-3,-1,-3,0,2,3
1532405578950,1,-1,0,1,-3,1,-9,-7
1532405578955,-2,-2,-2,-1,-2,-2,3,-6
1532405578960,-1,-2,-1,-1,0,-4,0,2
1532405578965,-1,0,1,-1,2,-4,4,3
1532405578970,-5,-3,-4,0,-4,-2,-17,-20
1532405578975,0,-2,-1,-2,0,-4,9,7
1532405578980,-1,-1,-3,-2,1,4,-2,-4
1532405578985,-3,0,0,3,0,-6,-8,-9
1532405578990,3,1,-4,-8,-3,6,-1,20
1532405578995,-1,-2,-2,0,-1,-7,-11,2
1532405579000,-4,-2,-1,1,0,-13,-10,-8
1532405579005,-2,-1,0,-1,0,-7,-8,4
1532405579010,-5,0,1,0,0,3,7,4
1532405579015,2,-3,0,-1,-1,1,15,4
1532405579020,2,3,-1,-2,0,8,4,8
1532405579025,0,0,-2,-1,-1,5,-3,-6
1532405579030,-3,0,0,0,-1,2,0,-17
1532405579035,0,-4,-4,-2,-2,1,-13,-4
1532405579040,-2,-1,0,2,1,-6,4,-20
1532405579045,2,1,-2,1,2,1,10,6
1532405579050,3,1,0,0,-1,-14,5,-13
1532405579055,-7,0,-2,0,2,2,-21,1
1532405579060,-1,2,3,-5,-2,0,10,-15
1532405579065,11,-3,0,-2,-3,4,-6,9
1532405579070,-2,2,0,-1,3,4,41,21
1532405579075,13,14,-1,2,1,-15,1,3
1532405579080,0,-3,0,-2,-2,2,-6,6
1532405579085,-3,-4,1,-1,-4,-6,-5,-4
1532405579090,0,3,1,-1,-2,2,-4,-3
1532405579095,-2,-6,0,-3,-1,11,-2,7
1532405579100,0,0,0,2,2,-7,8,40
1532405579105,-2,-2,-1,-3,-4,-4,1,-13
1532405579110,-7,5,0,4,4,5,4,5
1532405579115,2,-18,-1,1,-2,-3,5,-3
1532405579120,6,2,1,0,1,4,-8,0
1532405579125,-6,-7,-5,-1,2,-1,-23,-1
1532405579130,-1,-6,-3,-2,-3,-5,-9,6
1532405579135,-5,6,-1,-3,-1,4,7,-13
1532405579140,-3,1,0,-1,1,0,-6,0
1532405579145,0,-1,1,0,-3,0,6,-4
1532405579150,9,-1,-1,0,-1,0,-4,16
1532405579155,-6,0,-1,-3,1,-2,2,-1
1532405579160,-1,-6,-3,-4,-3,-3,3,-16
1532405579165,-9,-3,-3,-1,1,1,15,12
1532405579170,-1,-1,-2,-3,-2,-3,-9,-10
1532405579175,0,2,2,0,-3,0,3,0
1532405579180,4,1,1,-2,-2,2,2,2
1532405579185,1,6,-1,1,2,2,0,14
1532405579190,-5,-6,-4,-3,-3,4,0,-15
1532405579195,-1,1,-2,0,-1,6,2,6
1532405579200,-2,-1,0,1,-1,-5,-9,-6
1532405579205,-4,-3,-3,-4,-3,-3,23,-7
1532405579210,-2,-4,-2,1,-1,-1,-17,-5
1532405579215,1,2,-1,-2,-1,-3,-1,-2
1532405579220,-4,-4,-1,-1,1,-1,-6,-8
1532405579225,0,0,-1,-2,0,0,3,10
1532405579230,0,-1,0,2,1,0,18,8
1532405579235,0,-1,0,-2,-4,2,12,-3
1532405579240,-6,-3,-2,2,0,-8,-28,-38
1532405579245,-2,0,-2,2,-1,-4,-18,-8
1532405579250,0,0,0,-2,-3,6,-1,2
1532405579255,-5,-1,2,-3,0,3,14,-23
1532405579260,-1,-1,-1,-1,0,-1,-20,-8
1532405579265,0,0,0,-3,-3,-5,23,-3
1532405579270,-3,-3,-2,-3,-7,-7,-19,-17
1532405579275,1,0,-2,-2,-1,-1,5,-5
1532405579280,-1,-2,1,-1,2,3,12,9
1532405579285,1,-1,0,-4,-2,4,15,-4
1532405579290,0,0,1,-2,-1,1,4,9
1532405579295,0,-2,-2,-2,-1,-1,-8,-3
1532405579300,-4,1,0,-2,-3,-5,-17,-5
1532405579305,-4,-3,-2,0,-1,-1,1,10
1532405579310,2,3,0,2,1,4,-11,8
1532405579315,0,6,0,3,0,-1,-10,2
1532405579320,5,-12,0,2,0,5,9,31
1532405579325,0,-1,-2,2,-1,-2,-5,1
1532405579330,-3,-1,-1,1,1,2,-14,-3
1532405579335,1,3,-1,0,1,-4,-5,-1
1532405579340,6,10,4,-3,-4,-2,-1,-6
1532405579345,-4,-12,15,-2,-1,-2,-12,-9
1532405579350,-6,-19,-12,-2,1,-5,-19,-14
1532405579355,-2,14,-7,1,1,-7,10,5
1532405579360,-4,-5,-15,-2,-3,4,0,-12
1532405579365,-2,0,0,1,0,-4,-3,-4
1532405579370,0,4,0,-3,-2,1,5,-10
1532405579375,-3,-4,11,1,0,-5,-11,2
1532405579380,0,0,1,-1,0,0,9,13
1532405579385,3,4,-8,-1,-5,-2,-1,-7
1532405579390,1,-1,9,1,-1,-2,11,8
1532405579395,-2,-4,-5,2,3,5,-16,-9
1532405579400,-2,0,1,-2,-2,-6,6,4
1532405579405,-1,-4,-3,0,2,9,4,0
1532405579410,-4,2,-2,1,-2,-8,-11,-18
1532405579415,-2,-6,-1,-2,0,-2,-10,-8
1532405579420,-1,-1,-4,-1,-1,0,16,0
1532405579425,-2,2,0,-1,-2,-6,-14,-8
1532405579430,0,2,-2,-2,0,0,6,3
1532405579435,-1,-2,-3,-2,-2,-1,-12,-1
1532405579440,-2,-1,2,1,-2,1,-3,0
1532405579445,0,2,-3,-2,0,-4,-1,1
1532405579450,1,3,1,-2,-3,5,6,15
1532405579455,0,-2,0,-2,0,-4,4,4
1532405579460,2,-1,0,-2,3,4,3,-17
1532405579465,1,-2,-1,-1,1,1,-8,-2
1532405579470,-1,-1,-3,-3,-2,2,-1,-1
1532405579475,0,-2,-1,0,2,4,11,1
1532405579480,-2,-2,0,-3,-3,-3,-8,3
1532405579485,-1,0,-3,-2,-3,-2,0,-1
1532405579490,1,0,1,0,4,5,11,2
1532405579495,2,-2,-2,-2,-1,-3,7,9
1532405579500,-3,0,0,0,5,-3,-12,-10
1532405579505,-3,-2,-2,2,0,3,6,-14
1532405579510,2,1,-1,1,-2,-3,4,7
1532405579515,-2,-3,-3,-1,-1,0,9,-4
1532405579520,3,-1,1,0,-1,2,-2,21
1532405579525,-2,0,-2,0,-2,-3,-5,-4
1532405579530,-3,-1,-3,0,0,-1,9,1
1532405579535,0,-2,-2,0,-3,-1,1,0
1532405579540,-1,-2,0,-1,-2,-1,0,-4
1532405579545,-3,-4,-1,-1,-2,1,-6,-2
1532405579550,0,-1,1,2,0,-3,-2,3
1532405579555,-2,-2,-1,-1,-2,-1,-12,-1
1532405579560,-4,-2,-2,0,-4,-3,23,8
1532405579565,5,2,0,3,4,4,-36,3
1532405579570,-1,-2,-1,0,-4,0,-2,-4
1532405579575,-2,-2,2,1,-2,-2,-4,-6
1532405579580,-2,1,-1,-3,-2,-1,-9,-3
1532405579585,0,-2,-2,-3,2,2,13,-1
1532405579590,-1,0,0,-3,-6,-6,-3,-2
1532405579595,-1,0,-3,0,0,1,-14,-3
1532405579600,1,1,-1,0,2,-1,7,2
1532405579605,-1,-1,-1,-1,-2,-2,4,-2
1532405579610,-2,-2,0,-2,0,-1,10,-1
1532405579615,1,-1,4,-2,3,0,-6,-11
1532405579620,-5,-4,-3,-3,-6,-7,-14,-14
1532405579625,0,-1,-1,-1,-2,-2,3,2
1532405579630,-2,0,0,1,1,-1,-6,-1
1532405579635,0,0,-1,0,0,2,1,-2
1532405579640,1,0,1,-1,-1,1,0,-3
1532405579645,-1,-2,-1,-2,-2,-1,5,6
1532405579650,-3,-1,0,-1,-5,-2,4,-11
1532405579655,-2,-2,0,-1,-1,1,3,0
1532405579660,0,1,1,-1,1,1,-14,2
1532405579665,-1,-2,-1,-1,-1,0,18,17
1532405579670,-4,2,-1,-2,2,2,-5,-4
1532405579675,-1,-1,0,-1,-1,-1,3,7
1532405579680,1,-3,-3,-1,-2,-2,0,6
1532405579685,-3,0,0,-2,1,-1,4,-12
1532405579690,-1,-3,-1,-2,0,0,-6,2
1532405579695,-4,0,-1,-1,-4,-2,3,-13
1532405579700,2,0,1,1,1,2,5,26
1532405579705,0,-1,-1,-1,-1,0,-7,-10
1532405579710,3,-1,-1,-1,1,0,-7,0
1532405579715,-1,0,-1,-1,0,-1,4,2
1532405579720,-3,-3,-1,1,3,0,-2,-13
1532405579725,1,1,-1,-1,-3,-1,0,-1
1532405579730,2,-2,-2,-1,-1,0,-1,5
1532405579735,-2,-1,0,-3,-2,-1,-6,-3
1532405579740,-1,-1,-2,-1,-2,-3,1,-10
1532405579745,-2,-2,0,-1,-2,-3,5,1
1532405579750,-1,-2,-4,0,-1,1,-2,-7
