1532114829666,-2,-1,-2,-2,-25,1,9,1
1532114829671,0,3,0,4,48,3,-2,-6
1532114829676,0,1,0,3,-37,-2,-7,-1
1532114829681,3,-3,-3,-4,-21,-1,14,2
1532114829686,-1,0,3,3,0,-3,-9,-4
1532114829691,-4,0,-2,-2,-5,-2,-1,2
1532114829696,1,-3,-5,-6,-17,-6,0,-3
1532114829701,-5,-2,-3,-2,-2,-3,-9,-4
1532114829706,0,-1,3,1,-14,5,-15,-4
1532114829711,-1,-1,-1,-3,2,-3,19,-3
1532114829716,1,-1,-2,-3,22,-2,1,5
1532114829721,-2,-2,-1,-2,-23,-3,-16,-4
1532114829726,1,2,2,8,-14,-5,17,2
1532114829731,-2,-3,-4,-4,-3,0,-14,-3
1532114829736,-1,1,0,-3,2,5,-10,-2
1532114829741,-1,-2,-3,-5,4,-11,-1,1
1532114829746,2,2,3,4,17,6,6,0
1532114829751,-1,-3,0,1,-23,-3,-7,4
1532114829756,-2,-2,1,-2,8,-3,-5,-8
1532114829761,-1,-1,-4,-3,-8,-1,-12,-1
1532114829766,-1,-2,-3,1,-2,0,-12,-6
1532114829771,-1,-2,-1,-1,2,0,11,6
1532114829776,-1,-3,-2,3,-4,-3,2,1
1532114829781,-3,0,-4,-22,4,-1,-2,-5
1532114829786,2,-2,4,29,-12,-2,-1,1
1532114829791,-1,2,2,7,4,0,0,0
1532114829796,-1,0,-1,-1,0,-2,-9,-2
1532114829801,2,-1,-3,-3,-7,1,6,4
1532114829806,-4,-4,-2,-6,12,1,-15,-4
1532114829811,1,-1,-5,-12,21,7,30,2
1532114829816,0,-4,-2,12,39,-4,-3,0
1532114829821,-1,0,2,18,113,2,-6,-1
1532114829826,0,2,-3,-22,112,0,34,4
1532114829831,-2,0,-2,-1,109,-4,-16,-3
1532114829836,-1,-2,-1,13,103,4,-5,-1
1532114829841,-1,-1,-2,-6,46,-2,-2,1
1532114829846,-1,-2,-1,-1,-26,2,-3,-3
1532114829851,-1,-1,-1,-5,-68,-5,-43,-1
1532114829856,-2,2,1,-8,-84,3,35,-4
1532114829861,0,1,1,3,-114,1,7,-1
1532114829866,-2,-1,0,-2,-98,-1,-5,0
1532114829871,-1,-3,-4,-6,-97,0,-6,-4
1532114829876,1,2,1,0,-84,-5,-19,-2
1532114829881,1,0,1,4,-57,-1,-1,-1
1532114829886,-1,0,2,-11,-64,-5,8,0
1532114829891,-2,0,3,16,-13,-5,0,-4
1532114829896,-1,-5,-5,-12,-34,1,-11,-1
1532114829901,1,1,-1,-7,-10,1,6,0
1532114829906,1,0,0,-1,-12,3,-9,0
1532114829911,0,0,2,0,-11,-2,-1,1
1532114829916,-2,0,3,18,-9,-1,-5,-3
1532114829921,-1,-3,-4,-9,-21,-3,9,5
1532114829926,-3,-3,-4,-2,-4,-3,-36,-11
1532114829931,-1,1,4,1,7,-3,1,0
1532114829936,0,0,-2,-13,9,0,14,0
1532114829941,-1,-1,-1,7,2,-3,3,0
1532114829946,0,-1,-7,-13,11,0,3,4
1532114829951,-3,-2,1,9,17,4,10,-3
1532114829956,-1,-5,-5,5,22,-13,-7,-1
1532114829961,-1,-3,-1,-1,16,-2,-15,-8
1532114829966,2,3,3,3,20,4,30,6
1532114829971,-4,-4,-8,-22,-6,-7,-18,-1
1532114829976,-2,1,4,-16,3,-3,-4,1
1532114829981,-2,1,1,14,9,2,18,-6
1532114829986,2,0,1,7,13,-1,-9,0
1532114829991,-1,-4,-7,0,1,-1,2,-1
1532114829996,0,2,-2,0,5,2,-4,0
1532114830001,-3,-1,-6,-6,-2,0,-19,-3
1532114830006,-1,-2,5,5,5,-4,7,1
1532114830011,3,-1,1,4,6,5,7,0
1532114830016,0,-2,-3,-3,0,-1,-6,0
1532114830021,-1,2,3,-2,0,-1,0,-2
1532114830026,-1,-3,0,1,0,2,-6,-2
1532114830031,-3,-2,-1,-5,0,-6,-21,-1
1532114830036,4,0,1,1,3,3,50,2
1532114830041,-1,0,-3,-13,2,0,8,5
1532114830046,-3,-3,-3,18,1,6,-7,-8
1532114830051,0,0,-2,0,5,-9,4,2
1532114830056,-2,-1,-2,-3,3,5,1,1
1532114830061,-5,-5,-1,2,-1,-2,-21,-6
1532114830066,6,9,3,-8,1,-1,18,6
1532114830071,0,2,-1,-1,-1,2,-5,-3
1532114830076,0,2,4,5,1,1,-13,-2
1532114830081,2,0,0,-4,-8,0,-1,4
1532114830086,-6,-6,-8,-5,-2,-5,-9,-2
1532114830091,-1,-1,0,1,-3,0,-2,-4
1532114830096,-3,-2,-1,-5,0,1,-10,1
1532114830101,0,-2,3,5,2,-1,5,0
1532114830106,0,-4,-5,-4,-4,-1,0,0
1532114830111,-1,0,-2,-1,0,2,7,-2
1532114830116,-3,-1,-3,-1,-3,-2,-6,-2
1532114830121,1,1,0,1,1,-2,-4,-1
1532114830126,0,0,0,-1,-1,-1,5,2
1532114830131,2,-2,-3,0,-1,-1,6,1
1532114830136,-4,-1,-1,-9,-2,-3,-17,-7
1532114830141,3,1,3,14,-2,6,6,1
1532114830146,-2,-2,-3,-11,-3,-5,2,-2
1532114830151,1,2,4,15,1,0,4,0
1532114830156,3,0,0,4,-1,-7,-4,-2
1532114830161,-2,-5,-8,-15,4,9,4,1
1532114830166,0,1,0,3,0,2,2,0
1532114830171,-3,-2,2,-3,-1,-2,-3,-3
1532114830176,2,0,1,-1,-3,-4,-6,-2
1532114830181,0,-1,-3,1,1,-2,4,4
1532114830186,-1,-4,-3,-2,1,1,-12,-3
1532114830191,-4,-3,-2,-5,-1,-2,16,2
1532114830196,-2,-1,-2,-4,-1,0,-11,-7
1532114830201,-2,2,3,2,2,-7,-1,1
1532114830206,-1,-2,-3,-1,0,-1,-2,0
1532114830211,-1,-2,0,-2,-1,0,-3,0
1532114830216,-1,-1,1,3,-4,-3,-3,-1
1532114830221,0,-4,-14,-10,-5,-5,-3,-3
1532114830226,-2,-5,13,12,5,1,1,0
1532114830231,-2,0,-3,-4,-4,5,-4,-4
1532114830236,2,1,3,-6,6,6,3,4
1532114830241,-1,1,-9,-7,-4,-2,-3,0
1532114830246,4,-1,-4,4,-3,-1,3,4
1532114830251,-3,-1,4,-16,-1,-6,1,0
1532114830256,-1,-3,-3,23,-1,0,-3,-2
1532114830261,-3,0,0,-1,-1,4,-2,-4
1532114830266,-3,1,-4,-6,-1,-2,4,-2
1532114830271,-1,-1,-1,2,2,2,-5,1
1532114830276,-5,-2,-3,-9,5,-1,-7,-1
1532114830281,-1,-3,7,2,-1,-7,-10,3
1532114830286,-3,0,-3,0,-12,0,-18,-9
1532114830291,2,1,0,4,4,-11,-3,-1
1532114830296,-1,-4,-8,-2,-6,0,0,-2
1532114830301,0,-2,7,18,13,-3,8,4
1532114830306,-3,0,0,-38,9,2,15,-1
1532114830311,1,1,-2,14,-19,2,-5,0
1532114830316,-3,-3,-4,35,-3,-3,-5,-1
1532114830321,2,5,4,-19,3,0,6,-1
1532114830326,-6,-4,-6,-9,-8,-4,-11,-3
1532114830331,1,0,7,12,19,3,3,-4
1532114830336,-1,-6,-15,-20,1,-2,9,1
1532114830341,0,4,-8,3,-6,1,-6,-5
1532114830346,-2,-4,-2,19,6,-3,-2,-2
1532114830351,-1,-8,-3,-10,0,0,1,-1
1532114830356,1,4,17,-2,0,-1,2,2
1532114830361,-2,-3,-3,-4,-3,-1,-4,-2
1532114830366,-2,-1,-2,-7,-6,5,4,1
1532114830371,-1,-1,-14,-3,-7,1,7,1
1532114830376,1,3,8,-1,-5,2,0,-1
1532114830381,-1,0,2,4,-4,-2,2,-2
1532114830386,1,-1,0,1,-5,-4,1,2
1532114830391,0,-1,2,2,-1,0,-3,0
1532114830396,-1,1,-3,-10,-1,1,2,1
1532114830401,3,-1,3,0,-5,-1,-3,-3
1532114830406,-6,2,2,12,4,0,0,-1
1532114830411,1,2,3,-5,1,1,0,-3
1532114830416,-1,-3,-8,-17,-6,0,-3,-1
1532114830421,-7,-5,-3,-3,-4,0,1,-4
1532114830426,4,1,1,18,3,-2,0,3
1532114830431,1,4,1,-13,0,0,1,2
1532114830436,-1,2,-3,3,2,-1,-1,-2
1532114830441,1,-2,5,5,-3,0,0,1
1532114830446,0,2,-1,-2,0,-5,-1,-1
1532114830451,-4,1,-1,4,-2,-3,0,-2
1532114830456,-2,-3,-1,-2,5,4,1,-2
1532114830461,0,-3,-2,-3,-4,1,-4,0
1532114830466,-1,0,0,-3,0,-1,-1,-2
1532114830471,0,-2,1,0,-2,-1,-1,-3
1532114830476,-1,-1,-2,-2,-6,-1,0,-1
1532114830481,-2,-1,-2,3,2,0,0,-1
1532114830486,-1,2,4,-3,-1,-1,0,-3
1532114830491,-2,0,-4,-2,0,1,0,0
1532114830496,-2,-5,-1,-3,3,-1,-2,-2
1532114830501,3,2,-1,-1,-2,0,-1,2
1532114830506,-2,-1,-1,-2,1,-1,-1,-1
1532114830511,0,-4,-6,-3,0,-2,-4,-2
1532114830516,-2,1,2,0,0,-6,-1,0
1532114830521,4,0,-1,1,1,5,3,3
1532114830526,-1,-1,-5,-4,9,1,1,-1
1532114830531,-1,0,3,3,-12,4,1,-1
1532114830536,-1,-3,-3,-4,-5,0,3,-3
1532114830541,-1,-3,-1,-1,4,-2,-9,-1
1532114830546,-1,-1,0,0,-2,-1,-4,0
1532114830551,-2,-1,-1,0,-1,-1,0,0
1532114830556,0,-1,-1,0,-6,-1,-8,0
1532114830561,4,4,1,3,0,0,16,2
1532114830566,-1,0,0,-1,0,0,5,-3
1532114830571,-4,-3,-3,-2,-1,-2,-5,-4
1532114830576,4,-1,-1,0,-2,0,4,4
1532114830581,-4,-3,-2,-4,-2,1,-4,-1
1532114830586,-3,-4,-6,-4,-3,-3,-7,0
1532114830591,0,-2,0,0,0,-5,2,-3
1532114830596,-2,-2,-2,0,-7,5,-1,-1
1532114830601,0,-3,-5,-3,2,-2,-1,0
1532114830606,-3,1,0,1,-1,1,0,-1
1532114830611,2,1,1,-2,-6,-4,-3,-1
1532114830616,0,1,2,-2,-5,-2,-3,0
1532114830621,-1,-2,-1,-1,1,-1,-2,-1
1532114830626,-4,-2,1,-2,-3,1,2,-2
1532114830631,0,0,-2,-1,-1,-2,-1,-1
1532114830636,-3,0,0,0,-3,-3,-3,2
1532114830641,-9,-2,-2,2,2,5,-2,0
1532114830646,1,2,-1,-1,-5,-6,0,-1
1532114830651,-4,3,0,1,1,-2,-2,-2
1532114830656,1,-1,0,1,4,-4,-2,-1
1532114830661,2,1,2,-1,-1,-5,-5,1
1532114830666,-1,-2,-4,-1,2,8,1,0
1532114830671,0,-1,-7,-6,-8,-4,-1,0
1532114830676,0,-1,4,2,0,-5,-1,1
1532114830681,-4,-5,-6,-2,5,4,4,1
1532114830686,-1,0,4,2,7,-1,-1,1
1532114830691,0,-2,-2,-5,1,0,2,-3
1532114830696,0,-1,-3,-2,0,3,-1,-2
1532114830701,-1,-1,1,-2,-5,-4,-4,-3
1532114830706,0,0,1,2,17,-2,1,0
1532114830711,-1,-1,0,0,36,7,0,0
1532114830716,0,-2,-3,-5,-48,-8,-8,-6
1532114830721,0,-1,-1,-2,5,11,22,8
1532114830726,2,3,5,2,20,-1,-1,-3
1532114830731,-3,-5,-11,-14,-63,-10,9,-1
1532114830736,1,4,8,23,78,17,-12,3
1532114830741,1,-3,-4,-11,-5,-6,1,-2
1532114830746,0,0,4,8,-11,0,-1,2
1532114830751,-3,-4,-15,-3,16,3,-2,0
1532114830756,-3,-3,4,-5,-17,-5,-20,-6
1532114830761,0,-1,-9,-14,3,-10,7,-7
1532114830766,3,6,9,15,25,4,0,0
1532114830771,1,-1,8,10,10,-1,0,1
1532114830776,-3,-4,-18,-14,-14,-3,-1,1
1532114830781,1,2,15,9,-4,-1,-12,-3
1532114830786,-3,-10,-16,-17,-27,-6,0,-3
1532114830791,1,2,2,9,-7,-1,-6,0
1532114830796,2,3,1,-8,-5,-3,10,1
1532114830801,4,1,-2,1,-9,1,-3,-2
1532114830806,-3,1,-2,2,-6,0,-1,-1
1532114830811,-4,-5,4,-2,-19,-2,-6,-2
1532114830816,-3,-2,-4,2,64,1,5,-1
1532114830821,1,-1,-1,0,-32,0,-2,-1
1532114830826,1,-1,-2,0,10,-1,-6,-2
1532114830831,3,3,2,-1,-33,0,0,2
1532114830836,-2,3,3,-3,-5,0,7,-2
1532114830841,-6,-3,-2,7,11,0,-6,2
1532114830846,-2,-2,-4,-6,-5,-1,2,1
1532114830851,-3,0,0,-5,6,0,-2,-3
1532114830856,-1,1,3,8,-3,-3,2,0
1532114830861,-3,-1,-1,-1,0,0,-7,1
1532114830866,1,-1,-1,-6,-18,-3,0,-2
1532114830871,0,-1,4,-1,20,-3,0,0
1532114830876,-3,-9,-11,-2,-22,1,1,-1
1532114830881,1,2,2,0,9,-1,-5,-1
1532114830886,-3,-2,-3,0,-3,-4,0,-1
1532114830891,0,0,-2,0,9,-1,-2,-1
1532114830896,-1,0,5,-1,-9,-3,1,-1
1532114830901,1,-1,-3,0,-2,-1,-1,-1
1532114830906,-3,2,0,-3,1,-4,-4,-2
1532114830911,4,1,3,1,12,7,0,0
1532114830916,-2,-3,-3,-3,-8,-4,2,-2
1532114830921,0,0,1,1,-13,-3,5,-2
1532114830926,1,-2,-3,-1,-1,3,-8,1
1532114830931,-1,-1,-4,-1,5,-2,-2,0
1532114830936,0,0,1,0,-12,-4,0,0
1532114830941,1,6,-1,0,18,2,-3,-1
1532114830946,1,-2,0,-3,-13,3,14,4
1532114830951,-6,-4,-3,0,5,-4,-7,-4
1532114830956,0,1,0,0,-3,2,-1,0
1532114830961,-2,-2,-4,-5,4,-5,-1,-2
1532114830966,-1,-5,-4,-5,0,0,-4,-4
1532114830971,-3,2,1,-7,-14,-3,1,2
1532114830976,-1,-1,-2,1,-4,1,1,1
1532114830981,0,0,3,-4,-4,0,-4,-1
1532114830986,0,-1,-4,3,9,-2,-1,-2
1532114830991,-2,-1,2,5,5,0,-1,-4
1532114830996,1,-3,-4,-2,-3,-3,-3,0
1532114831001,-1,-1,-2,-3,-2,-1,1,1
1532114831006,1,1,5,-5,-11,0,-3,4
1532114831011,0,2,-1,5,6,1,1,1
1532114831016,-2,-3,-2,-2,2,-1,1,-4
1532114831021,2,-2,-1,1,-12,3,0,-1
1532114831026,-3,-4,-5,6,2,-3,-3,-1
1532114831031,1,-2,2,-7,-8,-3,-3,-2
1532114831036,-1,2,0,-1,1,3,1,-1
1532114831041,-2,-2,-3,0,1,-2,-3,1
1532114831046,0,2,1,-4,0,-1,-4,-3
1532114831051,-1,0,1,5,4,2,1,-1
1532114831056,0,1,-2,-6,-3,1,-2,-2
1532114831061,-2,-2,-1,2,1,-3,-2,-1
1532114831066,-4,0,0,1,-4,0,-3,-2
1532114831071,1,-2,-4,-1,12,0,5,-3
1532114831076,-2,-1,2,2,-30,-2,-5,-2
1532114831081,2,1,1,7,4,-2,-1,1
1532114831086,0,1,-4,-6,-20,-1,-11,-3
1532114831091,-4,-1,2,-4,8,2,10,3
1532114831096,1,-1,-3,-4,-6,-1,-1,1
1532114831101,-2,-4,-6,-5,5,2,-1,-3
1532114831106,-2,-3,-1,0,-2,-4,-1,-2
1532114831111,4,4,5,6,1,1,-7,0
1532114831116,-5,-3,-1,-2,8,3,2,-1
1532114831121,0,0,0,1,-2,0,-1,-1
1532114831126,-2,-3,-1,-3,10,1,3,-1
1532114831131,1,1,-3,0,-8,-3,-4,-1
1532114831136,1,3,3,5,12,-2,0,0
1532114831141,-5,-4,-5,-4,-9,-1,0,1
1532114831146,1,-2,-1,4,15,1,3,0
1532114831151,0,-3,-6,-13,-17,-5,-3,1
1532114831156,-1,0,-3,-1,-9,-4,-1,-2
1532114831161,-1,0,0,0,1,-3,-1,2
1532114831166,-1,-1,-2,-8,-3,0,1,-4
1532114831171,-2,-1,-2,5,3,-1,0,0
1532114831176,2,1,0,-5,4,0,5,-1
1532114831181,-2,1,-1,-4,-2,-2,-11,-5
1532114831186,-4,-2,1,7,8,-1,-1,-1
1532114831191,1,0,-1,5,-28,0,-3,1
1532114831196,3,1,-3,-1,5,2,-1,0
1532114831201,-6,-3,-3,-2,-5,-3,7,-2
1532114831206,-3,-1,-3,0,1,-1,-10,-1
1532114831211,-1,-2,-1,-3,4,3,4,-1
1532114831216,0,-1,0,2,-1,-3,-8,-2
1532114831221,-1,0,-1,2,10,1,-2,-3
1532114831226,-1,0,1,2,13,-4,-4,-3
1532114831231,2,1,-1,1,2,1,2,0
1532114831236,2,1,2,3,-9,-1,4,3
1532114831241,-5,-2,-2,2,27,-1,-1,-3
1532114831246,-5,-3,-5,-4,-27,-1,5,-3
1532114831251,1,1,2,4,-5,-1,-9,0
1532114831256,0,2,-2,-1,-15,-3,-1,0
1532114831261,1,-1,2,-1,12,1,-2,-1
1532114831266,-3,-2,-3,-3,2,-1,1,0
1532114831271,3,0,-1,1,4,-2,3,-1
1532114831276,-1,-1,-2,2,-2,-2,-1,0
1532114831281,-1,-2,-2,-5,-2,-2,-5,-2
1532114831286,-2,-1,-1,-2,13,7,5,0
1532114831291,-2,-1,0,2,-16,-4,4,5
1532114831296,-1,-4,-4,-3,-5,-2,-12,-4
1532114831301,-1,-1,-5,-2,2,0,3,0
1532114831306,-1,0,2,1,3,-3,-7,-3
1532114831311,-2,-3,-3,-1,38,6,1,-2
1532114831316,-1,2,1,-3,-30,-10,3,1
1532114831321,-2,0,1,-2,-4,6,-4,-2
1532114831326,0,-2,-2,-7,-8,-7,-2,1
1532114831331,0,-3,-1,0,-14,3,0,0
1532114831336,-1,0,-1,-2,12,-1,1,-3
1532114831341,1,1,-1,5,3,-2,-2,0
1532114831346,-1,0,-1,-1,-15,0,-2,0
1532114831351,3,4,2,-1,2,-1,-1,-4
1532114831356,1,-2,1,2,8,1,0,1
1532114831361,0,-2,-3,-3,-3,-1,1,-1
1532114831366,0,2,2,3,13,1,-2,1
1532114831371,-3,-3,-4,-3,-11,-3,-2,-1
1532114831376,-1,-1,-2,0,12,2,7,3
1532114831381,-2,-2,0,-3,-7,-4,-12,-2
1532114831386,1,3,1,7,10,0,0,-2
1532114831391,-9,-3,3,-5,-39,-1,-3,-1
1532114831396,3,-2,-2,-1,5,-2,1,-1
1532114831401,-1,-4,-5,-5,2,0,3,-3
1532114831406,0,-1,-1,2,-7,5,-2,-1
1532114831411,4,5,3,1,13,-2,0,1
1532114831416,-2,-2,-1,2,13,3,-3,-4
1532114831421,0,4,3,-4,-17,-5,12,3
1532114831426,1,-2,-3,1,-3,-1,-6,-1
1532114831431,2,1,1,4,13,-1,-1,2
1532114831436,0,1,-2,-4,11,4,2,-2
1532114831441,-3,-2,-3,-2,2,-4,-7,-4
1532114831446,1,-1,-1,-5,-6,1,6,5
1532114831451,-5,-4,-6,-5,-11,-4,-7,-5
1532114831456,-1,-2,-1,-1,4,0,-5,-4
1532114831461,-2,-2,0,3,-5,0,-2,-1
1532114831466,-1,-1,2,-3,6,-2,1,1
1532114831471,4,0,-2,-6,-10,-1,5,0
1532114831476,-2,1,1,3,-2,-3,-11,0
1532114831481,0,1,1,2,7,1,-4,-1
1532114831486,1,-4,-5,-3,-1,-1,2,0
1532114831491,1,-1,-1,-1,3,-2,1,0
1532114831496,0,2,2,-2,-9,-2,3,3
1532114831501,-2,0,1,-2,-1,3,-9,-2
1532114831506,3,-1,1,-2,-12,-2,3,1
1532114831511,-6,1,-1,2,-4,1,-3,0
1532114831516,0,2,2,-2,-9,-2,1,0
1532114831521,0,-2,-1,5,12,4,0,-2
1532114831526,-2,-1,-4,-5,-41,-3,-2,-1
1532114831531,-2,-5,-1,0,27,1,-2,-2
1532114831536,0,-1,-1,5,2,1,-1,1
1532114831541,0,2,2,-7,-17,-7,0,-1
1532114831546,-1,-1,1,-3,8,-2,-5,-3
1532114831551,-2,-1,-3,-2,-3,0,2,0
1532114831556,-3,-2,-1,-2,8,-6,-3,-3
1532114831561,1,0,1,4,9,2,5,-1
1532114831566,-4,-3,-5,-7,-11,-1,5,1
1532114831571,1,3,3,4,4,-2,-17,-1
1532114831576,2,0,-1,-4,3,-1,5,1
1532114831581,-3,1,3,-3,-12,-5,-1,-4
1532114831586,-4,-5,-5,0,-10,-6,-2,-2
1532114831591,2,0,1,6,6,6,4,1
1532114831596,-2,-2,-2,-5,-36,-2,-7,-3
1532114831601,1,0,0,8,13,4,17,10
1532114831606,0,3,4,3,32,3,-4,-2
1532114831611,1,-1,-3,-7,-20,-3,-1,-4
1532114831616,0,0,1,-5,3,-2,-4,0
1532114831621,0,0,0,1,28,3,1,-1
1532114831626,-3,-1,-2,-4,-20,-3,0,-1
1532114831631,3,0,-2,-5,6,-3,-5,-2
1532114831636,-3,-2,-2,4,11,3,0,-2
1532114831641,1,0,4,-2,4,-4,3,-3
1532114831646,2,0,0,2,9,0,-10,0
1532114831651,0,-4,0,1,3,2,1,-3
1532114831656,-3,-2,-4,3,-20,-3,-4,-4
1532114831661,2,2,4,1,1,0,4,2
1532114831666,-2,0,-4,-5,-5,1,7,2
1532114831671,-1,3,0,-2,-2,0,-1,1
1532114831676,0,-2,1,-1,17,3,-3,-3
1532114831681,-1,-1,1,12,8,2,1,-2
1532114831686,-2,-1,2,2,-28,-5,-1,-2
1532114831691,-1,-2,-1,-3,37,-1,-2,0
1532114831696,0,0,-3,-6,-50,-1,0,-1
1532114831701,-3,-4,-3,-10,-2,-1,-4,-2
1532114831706,-3,-3,-1,-2,16,-1,1,-3
1532114831711,-3,1,1,1,-14,-1,-3,-2
1532114831716,-1,-1,0,-1,16,-4,-1,-1
1532114831721,0,-3,-3,-3,-9,1,-1,2
1532114831726,-4,-2,-2,2,-2,-4,-4,-1
1532114831731,-2,-1,-1,-5,4,-1,0,-2
1532114831736,-2,1,0,6,11,1,0,-1
1532114831741,1,0,-2,-3,-8,-2,-3,-3
1532114831746,-5,-4,-2,-1,6,0,1,2
1532114831751,3,0,-2,-1,-10,-3,-3,-2
1532114831756,-2,-3,-1,3,7,1,-2,0
1532114831761,1,0,-1,-7,-10,-4,-2,-1
1532114831766,2,-2,-1,5,11,4,0,-4
1532114831771,3,-1,2,6,-7,-2,-2,2
1532114831776,0,-1,1,-6,-4,2,-2,-3
1532114831781,-3,-2,-1,8,1,-3,10,-2
1532114831786,-1,1,-1,1,11,2,-11,-4
1532114831791,0,-1,-2,-15,-29,-1,1,2
1532114831796,8,-2,0,6,23,-4,0,-4
1532114831801,-15,-6,-5,4,14,3,-5,-5
1532114831806,-1,2,-1,-9,-24,-1,7,0
1532114831811,1,-1,-5,-1,-6,2,3,0
1532114831816,-1,1,-2,-3,-2,-5,-5,1
1532114831821,3,0,-1,0,5,-1,1,0
1532114831826,3,3,4,4,-17,-1,3,2
1532114831831,-3,-5,-2,6,-15,-1,-3,-1
1532114831836,-6,-2,-3,-2,-21,-3,3,0
1532114831841,2,0,-2,-12,0,-1,-2,1
1532114831846,0,-1,2,23,24,4,0,-1
1532114831851,3,2,1,-9,-2,-1,-1,-1
1532114831856,-1,3,1,-14,3,-2,-2,0
1532114831861,0,-3,-2,-1,-11,-4,-1,1
1532114831866,-2,-3,-4,-13,1,1,2,2
1532114831871,1,0,1,13,6,-3,1,2
1532114831876,-4,-2,-1,-1,6,2,5,-3
1532114831881,2,1,0,-7,-10,-2,-16,-1
1532114831886,0,0,0,-1,-4,3,3,2
1532114831891,-3,-1,-4,9,18,1,-3,-2
1532114831896,-1,-1,2,-2,7,-5,1,2
1532114831901,4,1,-2,0,-14,4,6,0
1532114831906,-6,-3,-2,-1,3,-5,-6,-4
1532114831911,-3,-2,-3,-9,-3,-4,-9,-4
1532114831916,1,-2,-2,3,-1,1,2,4
1532114831921,-9,-3,0,0,23,0,-5,-2
1532114831926,8,-2,-3,-12,-35,-10,4,1
1532114831931,-6,0,0,1,6,0,0,-3
1532114831936,2,-2,-4,-1,-12,-1,-3,-1
1532114831941,2,1,2,2,4,0,1,1
1532114831946,3,0,-2,-4,-1,-2,-6,-4
1532114831951,-5,0,-2,-2,-3,0,0,0
1532114831956,1,-2,-2,4,12,0,-3,0
1532114831961,1,-3,-1,-1,-20,-1,12,0
1532114831966,-2,1,0,-2,-4,1,-12,0
1532114831971,0,-1,-1,-3,-2,-2,2,1
1532114831976,-4,0,2,-1,0,2,-5,-2
1532114831981,-1,-2,-5,-3,-1,-1,-1,-3
1532114831986,-1,0,0,-1,5,-3,5,-1
1532114831991,3,-3,-2,-6,-3,3,1,-1
1532114831996,-2,4,2,6,1,-3,0,1
1532114832001,1,-1,3,1,-2,-1,-7,-4
1532114832006,-2,-1,0,1,22,6,3,-5
1532114832011,-3,-6,-7,-4,-2,-4,-3,-2
1532114832016,0,-3,-2,-1,5,-1,-1,0
1532114832021,1,2,-2,-4,-24,-2,6,-1
1532114832026,-6,-5,-4,1,14,-2,-9,2
1532114832031,2,2,2,-4,7,-2,12,4
1532114832036,-2,1,0,3,8,3,-1,-5
1532114832041,-3,-1,-1,0,6,-5,-1,-3
1532114832046,2,-1,-1,-3,8,-1,0,-2
1532114832051,-1,0,1,1,-10,0,-10,-1
1532114832056,-4,-5,-5,-6,-2,-4,2,0
1532114832061,1,4,1,-1,-12,0,-3,-1
1532114832066,-1,0,2,-1,3,0,3,-1
1532114832071,-1,-2,-1,-2,-2,1,-5,-2
1532114832076,1,0,1,-4,8,-7,-2,-1
1532114832081,2,-1,-1,5,-1,4,0,1
1532114832086,-8,-3,0,-1,28,0,1,0
1532114832091,-1,-1,-2,-3,-49,-8,-6,-2
1532114832096,3,0,-1,-2,-20,0,-2,2
1532114832101,-6,-6,-4,1,31,-2,-5,-2
1532114832106,1,1,-1,-1,-11,-3,-1,0
1532114832111,-1,-2,1,1,20,2,1,-1
1532114832116,0,0,0,1,1,4,1,0
1532114832121,0,-1,-2,-3,-14,-4,-2,2
1532114832126,1,0,0,-1,-7,1,1,-1
1532114832131,1,2,1,1,11,2,13,2
1532114832136,-6,-2,-2,-3,-3,-2,-16,-5
1532114832141,0,-2,1,0,5,-3,-1,2
1532114832146,1,1,0,-3,-13,1,-9,-3
1532114832151,-1,0,1,2,11,0,11,5
1532114832156,4,1,1,0,13,-1,5,3
1532114832161,-2,-1,-3,0,-3,2,-3,0
1532114832166,-2,-1,-3,-1,-6,-3,-2,-2
1532114832171,-5,-3,-2,-2,-2,-1,-4,-2
1532114832176,0,-1,-1,-2,0,-1,-2,-2
1532114832181,1,1,2,-3,-10,2,3,1
1532114832186,3,-2,-1,-2,-29,-5,2,3
1532114832191,3,-2,-3,-4,9,-1,-1,-3
1532114832196,1,-3,-4,-4,-10,2,-1,3
1532114832201,-2,-3,-1,-3,-7,-4,-4,-3
1532114832206,0,-2,-1,2,5,0,1,0
1532114832211,0,1,4,0,-2,-4,1,-1
1532114832216,-2,0,-2,-3,-4,0,-16,-7
1532114832221,3,4,4,5,14,6,6,6
1532114832226,-3,-6,-6,1,-17,2,2,2
1532114832231,-1,-3,-3,-3,-3,-3,-2,-4
1532114832236,0,0,-3,-1,-15,1,0,1
1532114832241,-3,1,-1,-1,31,1,-3,-5
1532114832246,2,2,0,-2,-13,-4,-10,-6
1532114832251,-1,0,2,1,-4,5,13,2
1532114832256,-3,-3,-1,0,18,1,-7,-1
1532114832261,-1,-1,-4,-4,-8,-9,-1,-1
1532114832266,-2,0,0,-2,7,-3,1,1
1532114832271,-3,-1,-4,-1,0,-2,-2,-1
1532114832276,-1,1,4,-1,-2,-1,5,-1
1532114832281,-3,0,0,0,-5,1,-2,2
1532114832286,0,0,-1,0,3,0,-2,-2
1532114832291,-3,-3,-2,-4,1,-1,-3,-3
1532114832296,0,1,3,7,-11,4,9,3
1532114832301,0,0,0,-1,-13,2,-5,-1
1532114832306,0,-2,0,-2,5,-1,2,5
1532114832311,0,-1,-3,0,18,3,0,-3
1532114832316,2,-1,-1,0,-6,-4,-1,6
1532114832321,2,-1,2,0,-2,-3,0,-2
1532114832326,-2,0,-4,-1,5,1,-2,-1
1532114832331,1,3,2,-2,-2,-3,0,5
1532114832336,-2,-4,-4,-4,-6,0,-4,-7
1532114832341,-2,-2,-3,-1,4,-3,-4,-2
1532114832346,1,-2,0,1,3,1,2,-3
1532114832351,-3,-1,2,-1,-11,-8,2,4
1532114832356,-1,-4,-3,-1,4,7,4,-1
1532114832361,-1,-1,-3,-1,-14,1,-1,0
1532114832366,2,-2,-1,-2,6,0,0,-1
1532114832371,1,1,0,1,-1,0,-1,-3
1532114832376,0,0,-1,-3,1,-1,1,0
1532114832381,-3,1,2,-4,-5,1,0,-2
1532114832386,1,0,0,1,-27,-3,-1,3
1532114832391,-3,-1,-2,-2,-29,3,-4,-9
1532114832396,0,1,0,-1,0,-3,-2,-1
1532114832401,0,-5,-7,-3,-1,2,-2,0
1532114832406,-4,0,0,-1,0,-3,-1,-1
1532114832411,1,0,-2,-1,-6,-2,-5,1
1532114832416,-2,-3,-4,-2,0,-3,6,-1
1532114832421,-1,-3,-2,1,6,0,1,-4
1532114832426,1,0,1,2,-2,0,0,-2
1532114832431,-2,-2,1,2,21,-1,-1,0
1532114832436,-2,2,0,-1,0,-1,-2,-1
1532114832441,-2,-5,-2,-2,11,-1,1,-2
1532114832446,-3,-2,-3,-2,3,-2,-2,1
1532114832451,-2,0,-2,-4,-3,-1,-6,-4
1532114832456,2,-2,-4,-2,-13,-6,-7,0
1532114832461,-5,-2,-2,-1,-12,2,1,0
1532114832466,-3,-1,0,-1,5,3,-3,-1
1532114832471,-1,-3,-1,-2,9,-1,14,3
1532114832476,-1,-3,-3,-5,-35,1,-1,-2
1532114832481,1,2,-1,0,9,-5,-5,1
1532114832486,-1,-4,0,0,7,1,7,0
1532114832491,1,0,-1,2,3,0,-2,1
1532114832496,-1,1,-1,-2,1,-5,-3,-2
1532114832501,2,0,3,0,-6,-1,-2,1
1532114832506,3,0,-4,-2,0,-2,-4,-1
1532114832511,-1,-5,-7,-6,-9,-3,-2,1
1532114832516,-2,0,2,2,9,-4,-2,-2
1532114832521,5,0,0,3,9,0,0,-3
1532114832526,-5,0,-2,-1,7,-1,-1,-3
1532114832531,4,2,0,1,-11,-3,-4,-2
1532114832536,-3,-1,0,1,10,3,1,-1
1532114832541,0,-3,-2,-3,-12,-3,-2,-2
1532114832546,-2,-1,-1,-3,6,0,-1,-4
1532114832551,0,-3,-1,0,-8,-2,-1,1
1532114832556,0,-1,-2,-1,-4,2,14,-1
1532114832561,0,2,2,1,15,0,-15,-2
1532114832566,1,-1,1,-1,-38,1,0,-1
1532114832571,0,3,3,-1,8,0,3,-2
1532114832576,0,-2,-1,0,15,0,-1,0
1532114832581,-5,-3,-3,-4,-28,0,6,0
1532114832586,2,0,-1,0,17,-1,1,1
1532114832591,4,-2,-1,3,2,1,-5,-2
1532114832596,-5,0,1,-2,0,-3,-2,-1
1532114832601,-3,-1,1,-1,13,0,1,-1
1532114832606,1,1,-1,0,-11,-3,-4,1
1532114832611,-2,0,-3,-2,-3,0,0,0
1532114832616,3,3,0,5,14,3,-2,2
1532114832621,-3,-3,-3,-3,-14,-3,-3,-2
1532114832626,-2,-5,-1,-2,13,-1,0,0
1532114832631,-1,-3,-1,-2,0,2,-5,-1
1532114832636,-2,0,0,0,-5,-5,18,6
1532114832641,3,2,2,-1,20,1,-11,-3
1532114832646,1,-2,-4,0,-25,-4,-5,-2
1532114832651,0,0,-2,1,-1,2,2,2
1532114832656,-8,-2,-1,-3,2,-5,-9,-7
1532114832661,3,2,-1,0,-12,0,6,3
1532114832666,-1,-1,1,-1,7,-1,2,0
1532114832671,0,0,1,0,-20,-3,-4,-2
1532114832676,1,0,-2,-1,4,1,-5,-1
1532114832681,-3,2,0,-3,-5,-3,1,0
1532114832686,0,-1,-3,1,-2,2,-3,-1
1532114832691,-4,0,0,-2,-5,-1,0,0
1532114832696,0,2,3,1,12,2,-1,0
1532114832701,0,-5,-4,-3,-15,-1,0,-1
1532114832706,-1,2,0,-1,2,0,1,-1
1532114832711,-3,-2,-3,3,13,3,1,-2
1532114832716,6,-1,-1,-3,-10,-2,-3,4
1532114832721,-1,1,1,2,9,-3,3,-4
1532114832726,-1,-1,2,0,0,0,-4,-2
1532114832731,0,-2,-2,-1,12,-2,-3,-1
1532114832736,-1,-4,-3,0,-8,1,-1,-2
1532114832741,0,1,0,0,22,0,0,0
1532114832746,-1,-2,-2,-3,-8,2,8,2
1532114832751,-1,0,-1,-4,-8,-6,-2,-4
1532114832756,-1,-3,-3,0,3,-1,-8,-3
1532114832761,-2,-1,-1,-3,1,0,2,-1
1532114832766,0,2,1,-3,13,-3,-3,0
1532114832771,-1,1,0,0,-9,0,0,-2
1532114832776,-4,-2,0,-1,-2,-2,-2,-1
1532114832781,6,-2,-2,0,5,0,-2,4
1532114832786,-6,2,2,0,-8,-1,-9,-4
1532114832791,-2,-2,0,0,-1,-1,9,5
1532114832796,-1,0,-1,0,4,1,4,-4
1532114832801,-1,-2,-3,-1,-8,-1,0,1
1532114832806,0,-1,-1,2,-1,0,-2,-3
1532114832811,2,1,2,2,16,0,-2,1
1532114832816,-1,-2,-5,-2,-10,-7,-2,-1
1532114832821,0,-2,0,-1,-8,0,5,2
1532114832826,1,-4,-3,0,22,-1,1,0
1532114832831,-4,1,-1,-3,-6,3,-7,-3
1532114832836,2,1,2,-1,7,0,-3,0
1532114832841,-3,1,-1,2,-15,2,-3,-3
1532114832846,-1,1,0,1,15,-1,4,0
1532114832851,0,-5,-3,-3,-2,0,-2,-3
1532114832856,-1,-1,0,1,2,1,-1,1
1532114832861,-5,-2,-3,-3,-2,-4,-5,-1
1532114832866,-2,-1,-2,0,-44,2,0,-5
1532114832871,0,0,-4,-2,15,-4,-1,-1
1532114832876,-2,-2,-2,-1,-9,-3,-2,-2
1532114832881,1,-2,-2,-4,-4,-2,1,-1
1532114832886,1,2,2,-1,10,2,2,2
1532114832891,-2,-2,0,-1,-17,0,-4,0
1532114832896,-1,2,3,2,-3,1,-5,-5
1532114832901,-1,0,1,2,4,1,7,-3
1532114832906,2,2,-1,-3,-5,0,-3,1
1532114832911,2,-3,0,-2,4,0,3,0
1532114832916,-2,-5,0,1,8,-2,0,-2
1532114832921,-3,1,0,0,-3,-1,-4,-3
1532114832926,3,0,2,1,4,-2,0,2
1532114832931,-3,1,1,-2,-20,0,-1,-3
1532114832936,1,-2,-2,0,11,-2,1,-1
1532114832941,4,-2,-3,-2,-7,2,-2,1
1532114832946,-7,-3,-1,2,-8,0,-1,-7
1532114832951,2,4,3,0,17,-1,-1,-1
1532114832956,-3,-1,-2,-2,-7,-1,-1,1
1532114832961,-1,1,1,-1,24,2,-1,-5
1532114832966,-1,-2,-5,-6,-10,-6,-1,2
1532114832971,-1,0,4,4,19,1,10,1
1532114832976,-1,0,-2,-2,-15,2,-12,-1
1532114832981,-4,-2,-1,1,1,-4,-1,4
1532114832986,-1,-1,-1,0,-3,3,-2,-1
1532114832991,2,-1,-3,2,2,-3,-3,1
1532114832996,1,0,0,-2,-7,-2,4,-2
1532114833001,-8,-2,0,-2,-11,-2,-2,0
1532114833006,1,2,1,-1,13,-1,-2,0
1532114833011,0,-4,-6,-4,-10,0,0,3
1532114833016,2,0,3,5,1,4,-1,-2
1532114833021,-1,0,1,0,-6,-4,1,-3
1532114833026,1,0,0,-1,-1,2,1,1
1532114833031,-2,1,-1,1,6,0,3,1
1532114833036,-1,0,-1,-2,-22,1,0,-1
1532114833041,-1,-1,-1,-1,4,-1,-1,0
1532114833046,1,-1,-1,0,9,-2,-1,0
1532114833051,-3,-1,-2,-4,-9,-1,-6,-6
1532114833056,-2,-3,-3,-5,4,-2,0,0
1532114833061,-1,-2,-2,2,-9,3,1,1
1532114833066,1,1,0,-1,5,-3,-3,-2
1532114833071,2,3,-3,-5,-17,-2,2,-3
1532114833076,-6,-5,-1,1,14,-3,-5,0
1532114833081,0,-3,-3,-4,-11,-2,0,0
1532114833086,0,-3,-4,-6,3,2,1,-5
1532114833091,2,-2,0,0,-19,-1,0,1
1532114833096,0,-2,-2,0,-1,0,-9,-3
1532114833101,-1,0,0,0,-5,1,16,6
1532114833106,2,1,1,0,-4,1,8,5
1532114833111,-3,0,-2,2,-22,-1,-18,-7
1532114833116,4,-2,-4,-7,7,-3,0,0
1532114833121,-2,-1,1,0,-2,-4,-3,-4
1532114833126,0,1,-2,2,9,-2,-2,2
1532114833131,1,0,-1,1,13,2,0,-2
1532114833136,1,-1,0,0,-2,-2,-4,-2
1532114833141,0,1,4,2,14,0,0,0
1532114833146,1,-1,-5,-4,9,-3,-3,0
1532114833151,-4,-3,1,2,1,0,-1,1
1532114833156,-1,-2,-4,-4,-12,2,-2,-5
1532114833161,-2,-2,-3,0,12,0,7,-1
1532114833166,-1,0,-1,0,1,-1,0,2
1532114833171,1,2,0,3,2,0,0,3
1532114833176,-2,-1,0,-2,5,-4,-6,-3
1532114833181,-2,-2,-5,-3,-9,2,7,-2
1532114833186,-2,-3,-3,1,-8,-1,-1,-2
1532114833191,-1,-2,-1,-1,-6,-2,2,2
1532114833196,1,1,3,0,6,-3,-2,-4
1532114833201,2,2,2,0,14,0,2,0
1532114833206,-2,-2,-2,-1,-21,-3,-2,-4
1532114833211,2,-2,-1,0,6,-3,10,2
1532114833216,-8,-2,1,0,3,5,1,1
1532114833221,-2,-3,-3,1,6,-1,-2,1
1532114833226,2,1,1,-1,-15,-2,-1,0
1532114833231,-1,-1,0,-3,-10,3,-5,-2
1532114833236,-2,-4,-3,1,5,0,-2,-2
1532114833241,2,-1,2,-2,5,-3,3,0
1532114833246,-1,1,1,3,9,-1,1,-1
1532114833251,-3,-2,-2,-3,-2,-2,-5,-3
1532114833256,-1,0,1,1,-26,-2,4,2
1532114833261,0,-1,-3,-7,-9,-3,-7,1
1532114833266,-4,0,-1,-2,-15,-2,9,-4
1532114833271,3,2,4,6,8,-1,-19,-6
1532114833276,3,1,0,1,16,-2,-1,2
1532114833281,-3,-1,-2,-2,-7,-2,1,-4
1532114833286,1,-1,-1,-2,8,2,0,1
1532114833291,-3,-3,0,-3,-11,-2,4,-2
1532114833296,-1,-2,-2,3,4,-2,-3,-1
1532114833301,1,-1,0,4,9,-1,-3,-1
1532114833306,-7,-2,-3,-2,3,2,1,1
1532114833311,1,3,2,0,9,0,-3,-1
1532114833316,0,-1,-4,-3,-9,-2,-2,0
1532114833321,-3,-3,-2,-3,-3,-1,0,-3
1532114833326,1,0,-1,1,11,-2,-2,0
1532114833331,-2,-4,-1,-1,-28,4,2,-2
1532114833336,-1,1,0,-2,-17,0,0,1
1532114833341,-2,1,1,1,9,-1,-1,1
1532114833346,4,-1,0,-1,19,-1,-13,1
1532114833351,-2,-2,-2,-2,6,-1,6,2
1532114833356,-6,-3,-1,-1,4,2,4,-2
1532114833361,1,-1,-1,1,3,1,-3,-1
1532114833366,-1,1,2,3,10,4,5,-2
1532114833371,4,4,1,-2,-28,-10,-14,-2
1532114833376,-7,-1,0,-3,0,-3,-5,-4
1532114833381,1,-2,-3,0,13,2,0,0
1532114833386,-1,-2,-2,-4,-8,-3,-3,1
1532114833391,-3,-1,-2,1,13,0,2,0
1532114833396,3,-2,-3,-2,13,-2,4,0
1532114833401,-1,-2,0,-5,-11,-4,-4,-1
1532114833406,1,-2,-1,-3,-16,1,1,2
1532114833411,2,2,2,2,-3,1,3,0
1532114833416,0,0,1,-3,-6,-5,-5,-1
1532114833421,-6,0,-2,0,9,0,2,-2
1532114833426,2,-3,-4,-1,-6,-2,1,-1
1532114833431,0,-3,-2,-3,3,-1,1,-2
1532114833436,3,0,1,-1,-4,4,-2,-3
1532114833441,-1,-5,-2,1,-8,1,0,3
1532114833446,-1,2,0,-2,-5,-1,-5,-4
1532114833451,-2,-2,0,1,11,-2,4,0
1532114833456,0,0,0,2,-12,-1,1,-1
1532114833461,-1,3,-3,-1,-11,0,-3,-3
1532114833466,0,-2,-2,-3,6,-3,0,7
1532114833471,-5,-1,-3,-1,12,0,6,-7
1532114833476,-1,-1,3,1,-15,-4,-15,0
1532114833481,-1,0,0,-2,-1,-4,-4,-4
1532114833486,-2,0,2,1,1,6,1,-2
1532114833491,-3,-5,-2,-3,19,0,2,3
1532114833496,0,-1,-2,0,-6,-1,2,1
1532114833501,-1,-1,-2,-3,-16,0,0,1
1532114833506,-3,1,4,0,-7,-1,-2,-1
1532114833511,-2,-5,-7,-4,4,-1,-2,1
1532114833516,-3,-4,-1,1,6,2,1,1
1532114833521,1,1,-1,2,7,1,0,-4
1532114833526,1,0,0,1,-5,-3,2,-2
1532114833531,0,0,1,0,-7,-5,-9,-3
1532114833536,1,-3,-4,-3,1,3,4,-1
1532114833541,1,2,2,1,-9,0,5,5
1532114833546,-1,-1,-3,-2,-4,-2,-2,-4
1532114833551,-3,1,1,0,-4,-6,-5,0
1532114833556,0,-2,0,-2,12,-2,5,2
1532114833561,3,1,3,3,18,3,-4,-3
1532114833566,-5,-4,-4,-5,-41,-8,0,0
1532114833571,1,1,-1,0,-2,0,-1,1
1532114833576,-3,0,-2,-5,-8,4,1,0
1532114833581,0,-2,1,-3,15,2,13,-2
1532114833586,0,-2,0,4,9,-2,-19,-3
1532114833591,0,-1,1,-2,1,0,3,3
1532114833596,-2,1,0,4,8,-3,1,-3
1532114833601,-1,0,-2,-1,-24,-2,-4,-2
1532114833606,1,0,0,1,0,4,2,2
1532114833611,1,1,2,0,1,5,0,1
1532114833616,-1,1,-1,0,0,1,-3,0
1532114833621,-2,-3,-4,-2,12,-2,-2,-2
1532114833626,0,0,-4,3,4,-3,-4,-1
1532114833631,-2,0,3,0,-9,2,6,-2
1532114833636,4,0,-1,0,3,-3,0,0
1532114833641,-8,-3,-4,-2,24,0,-1,0
1532114833646,-3,0,0,-7,-8,-5,1,-2
1532114833651,1,-2,-1,0,-1,-2,-5,-2
1532114833656,4,0,-1,1,-9,-2,-2,-1
1532114833661,-4,0,-2,1,6,1,-1,-2
1532114833666,-1,2,0,1,14,0,1,-4
1532114833671,-1,-4,-4,-1,-15,1,-2,4
1532114833676,-3,1,0,-3,1,-3,1,-3
1532114833681,3,-2,1,-1,-18,-1,-4,4
1532114833686,-1,0,-2,-4,-6,-5,0,-1
1532114833691,1,2,-3,4,14,7,0,-2
1532114833696,0,-3,-3,-3,-5,-6,-2,0
1532114833701,0,-1,-1,-2,2,-2,11,2
1532114833706,-1,-3,-4,-1,-4,2,-11,-4
1532114833711,-2,-2,0,-4,7,-1,-2,-4
1532114833716,-3,-1,2,2,-5,-1,-4,-1
1532114833721,0,-1,-1,-2,3,-1,-2,-3
1532114833726,1,-1,0,1,0,5,24,8
1532114833731,2,3,0,4,28,0,-2,-3
1532114833736,1,-1,-1,1,-9,1,0,3
1532114833741,-4,0,-3,-5,-13,-5,-5,-6
1532114833746,-4,-1,1,-1,2,-4,-1,-2
1532114833751,-1,-2,1,-2,-9,-1,-3,-2
1532114833756,3,2,0,-1,5,0,4,-2
1532114833761,-3,4,3,1,1,-2,-6,-3
1532114833766,2,-2,-3,0,-1,3,-2,2
1532114833771,-8,-6,-7,-4,1,-2,-1,-1
1532114833776,-2,-1,-1,-1,-13,-3,-3,-2
1532114833781,3,-3,0,-1,2,1,-2,4
1532114833786,1,2,3,2,18,5,0,-1
1532114833791,1,3,0,0,-9,-4,0,1
1532114833796,-2,-3,-3,0,12,0,0,-3
1532114833801,-1,-1,-2,-1,-19,-2,-4,1
1532114833806,2,-1,1,2,0,-3,-3,0
1532114833811,-2,-2,-4,1,-3,4,3,0
1532114833816,-3,1,-1,-2,7,1,6,0
1532114833821,3,2,2,2,11,-2,-16,-4
1532114833826,0,-3,-2,-1,5,-2,-4,-4
1532114833831,-1,-2,-2,-2,-8,-4,-11,0
1532114833836,0,0,-2,-4,2,-2,5,3
1532114833841,-2,0,-2,-2,-2,8,1,-3
1532114833846,0,-2,-1,-1,-1,-5,2,-1
1532114833851,-1,1,0,-4,-10,-6,-5,0
1532114833856,-5,-5,-6,-3,-4,0,0,-2
1532114833861,2,0,0,1,-1,-3,-4,-1
1532114833866,-5,-2,-3,-1,7,2,-1,-6
1532114833871,2,-1,0,-4,-22,0,4,2
1532114833876,-1,3,5,2,-1,1,-5,-2
1532114833881,2,1,0,-2,-7,1,3,0
1532114833886,-3,-6,-7,0,4,0,-2,-2
1532114833891,-3,0,4,2,0,-3,2,-2
1532114833896,-1,-1,-4,-3,-12,-3,-6,-3
1532114833901,-1,-3,-1,0,1,-2,0,4
1532114833906,-2,1,1,-3,-6,-2,0,0
1532114833911,-2,1,2,7,37,6,0,0
1532114833916,0,-3,-7,-5,-33,-3,-1,2
1532114833921,-2,-1,0,-1,-5,-3,2,-1
1532114833926,-2,2,2,0,4,1,-1,1
1532114833931,-1,0,-2,-3,-14,-5,-4,-4
1532114833936,5,4,6,3,21,3,-1,2
1532114833941,-11,-6,-7,-5,-1,0,3,-5
1532114833946,2,1,-3,-1,11,3,-1,0
1532114833951,-8,-4,-5,-5,-18,-5,-2,-1
1532114833956,-1,-2,-1,-2,13,-6,-2,-2
1532114833961,3,-1,3,1,-27,8,5,5
1532114833966,0,-1,-2,2,-29,0,0,4
1532114833971,3,1,5,1,13,4,2,-1
1532114833976,2,0,2,1,-6,0,-1,4
1532114833981,-3,-2,1,0,26,-2,-3,-2
1532114833986,-2,-1,-3,-5,8,-4,-2,-2
1532114833991,1,-2,-5,-9,-18,0,13,3
1532114833996,4,1,7,8,-2,0,-17,-1
1532114834001,-1,3,-1,1,4,-6,-6,-2
1532114834006,-3,-2,1,-2,1,0,4,0
1532114834011,2,-1,-2,-4,-15,-6,-6,-6
1532114834016,-4,-6,-8,-3,8,6,3,-2
1532114834021,1,-1,-1,0,3,0,5,0
1532114834026,-1,-2,-3,1,0,-11,-7,-3
1532114834031,-1,-3,-6,-1,-14,8,2,2
1532114834036,-4,-3,-3,-2,13,-3,-16,-5
1532114834041,2,1,1,-1,-16,4,10,0
1532114834046,0,0,3,3,-8,-4,10,5
1532114834051,3,4,7,12,31,2,6,1
1532114834056,-4,-4,-7,-6,-19,-4,-3,-4
1532114834061,3,3,1,2,7,-4,4,0
1532114834066,-3,-1,2,-5,10,-1,-11,-9
1532114834071,-2,-5,-10,-12,-19,-10,-5,-2
1532114834076,-4,-1,0,0,3,2,9,3
1532114834081,2,-1,0,-2,3,-4,-7,-1
1532114834086,-1,-1,0,1,0,0,2,-1
1532114834091,-1,-1,1,-3,6,-2,-6,1
1532114834096,0,0,1,5,16,1,6,2
1532114834101,-4,-3,-2,-3,-8,-2,-11,-5
1532114834106,-1,-2,-3,-3,5,1,-5,-2
1532114834111,0,2,2,9,-1,5,2,2
1532114834116,-2,1,4,-5,-11,-2,-3,-3
1532114834121,-2,-4,-5,-6,-4,-3,9,4
1532114834126,1,1,1,-2,-4,0,2,-3
1532114834131,0,5,3,2,9,0,-3,-6
1532114834136,7,-1,0,0,-1,1,-3,-1
1532114834141,-4,-3,-1,-1,0,-4,-2,-1
1532114834146,-1,0,1,-2,-14,0,-3,0
1532114834151,0,-2,0,1,9,0,-1,0
1532114834156,-4,3,-1,-2,-3,-1,-8,-3
1532114834161,-2,-2,-1,3,-1,-2,-10,-2
1532114834166,0,-1,-1,-1,1,3,-1,0
1532114834171,-5,-3,-2,0,-2,0,0,-4
1532114834176,-4,0,0,-7,0,3,3,-1
1532114834181,-1,-5,-4,4,8,-1,-3,-4
1532114834186,-2,3,6,11,-1,-6,-11,0
1532114834191,1,-3,-6,-8,23,3,2,4
1532114834196,-2,1,3,-3,-15,-1,14,2
1532114834201,1,0,-2,4,-13,-2,1,2
1532114834206,1,-3,-5,-13,-7,2,-1,-6
1532114834211,-5,-2,0,1,-5,-2,-13,-2
1532114834216,0,-1,-3,-4,8,-1,2,2
1532114834221,5,3,0,-3,5,-1,-4,-2
1532114834226,-5,0,0,6,-5,4,12,4
1532114834231,0,-1,1,-2,-4,-2,-7,-5
1532114834236,4,-2,0,-3,-1,-2,2,1
1532114834241,-7,-4,1,4,-5,-1,-3,-2
1532114834246,0,0,0,-5,6,2,6,1
1532114834251,3,-1,-4,-4,-10,-3,-20,-2
1532114834256,0,0,1,4,11,-6,-4,-5
1532114834261,-2,-1,0,-2,4,5,0,-3
1532114834266,-1,-2,-3,-5,-6,-5,2,1
1532114834271,-3,0,1,-4,-7,-1,-10,-3
1532114834276,-1,-2,-2,7,13,0,23,2
1532114834281,2,1,-2,-4,-16,-1,5,5
1532114834286,3,-1,-2,-4,-4,3,-4,-5
1532114834291,2,3,2,0,-8,-5,5,0
1532114834296,-6,-2,-4,-8,-21,-1,-1,-3
1532114834301,7,4,2,0,5,-3,-8,3
1532114834306,-9,-4,-3,-1,-2,1,-4,-4
1532114834311,1,0,0,4,7,-2,0,0
1532114834316,-3,-3,0,-6,-4,-1,0,-2
1532114834321,-2,1,1,4,2,0,0,-1
1532114834326,5,1,1,5,13,0,-3,1
1532114834331,-3,-1,-1,-2,-9,1,8,0
1532114834336,-1,-2,-2,3,-3,0,-6,-2
1532114834341,-5,-3,-1,-8,-4,0,-3,-7
1532114834346,0,-1,-3,-3,-4,-1,-6,0
1532114834351,0,0,1,10,2,4,9,3
1532114834356,3,-1,-2,-5,-3,-4,-8,0
1532114834361,-3,-4,-2,0,7,4,-10,-3
1532114834366,-1,3,1,-1,17,-2,7,2
1532114834371,-4,0,-1,-1,5,0,-1,0
1532114834376,-3,-4,-3,0,13,-2,-7,-3
1532114834381,-2,-5,-2,-6,-9,-9,-5,0
1532114834386,0,0,1,7,-5,3,-9,-5
1532114834391,0,-2,-1,-9,45,0,17,0
1532114834396,2,3,3,8,10,4,1,1
1532114834401,-9,1,-1,-5,-24,-5,2,-4
1532114834406,8,-2,-1,-5,-13,-2,-1,1
1532114834411,-11,1,-1,-4,-15,0,-7,-5
1532114834416,-2,-3,-1,0,-2,2,5,-3
1532114834421,2,0,-1,1,5,-1,-2,6
1532114834426,-3,-3,-3,-1,-7,-2,1,-7
1532114834431,0,0,0,2,-11,1,-10,-4
1532114834436,3,2,-1,-2,-11,-1,1,4
1532114834441,2,2,2,3,-1,1,-1,-2
1532114834446,-5,-4,-5,-7,-5,-1,-1,-1
1532114834451,1,-5,-1,1,-3,-2,0,-2
1532114834456,-3,-1,-5,-2,-4,0,-2,2
1532114834461,2,0,-1,-1,7,-2,-9,-5
1532114834466,-1,0,2,1,6,0,11,6
1532114834471,1,2,0,0,-12,0,-8,-4
1532114834476,-1,-2,-1,-3,-7,-1,10,2
1532114834481,-2,-1,0,-2,0,1,-6,-2
1532114834486,-8,0,3,7,12,3,4,-7
1532114834491,2,-4,-2,-2,-19,-7,-5,3
1532114834496,-3,1,-1,-3,-1,-3,-8,-4
1532114834501,2,-1,1,0,6,5,5,0
1532114834506,1,0,0,-1,9,-1,-7,0
1532114834511,-2,1,0,-2,-35,0,7,0
1532114834516,0,0,-1,5,4,0,-1,1
1532114834521,1,2,-2,-3,-8,-5,13,2
1532114834526,0,-4,-1,4,9,0,-11,-1
1532114834531,-4,-2,0,2,-2,0,-7,-3
1532114834536,2,0,-2,-11,-5,-2,-2,1
1532114834541,0,-1,-2,-1,0,1,-4,0
1532114834546,-2,4,0,-2,-9,-2,4,-3
1532114834551,-5,-4,1,1,8,-1,-1,0
1532114834556,-1,-1,-2,-1,-3,-2,-2,1
1532114834561,0,0,-3,2,9,-1,3,2
1532114834566,4,0,-2,-5,-7,-1,-1,0
1532114834571,1,0,-1,2,8,2,-7,-3
1532114834576,-2,2,2,-1,5,-2,4,-1
1532114834581,-2,-3,-2,-1,-5,0,-3,-4
1532114834586,-5,-3,-3,1,-4,-3,-7,-1
1532114834591,4,0,-1,-4,4,-2,-2,4
1532114834596,-3,-3,-2,-5,-7,0,5,-1
1532114834601,8,0,0,6,3,0,-2,-3
1532114834606,-7,0,0,-5,-12,0,-1,-3
1532114834611,1,-1,-3,-4,10,-1,4,-2
1532114834616,2,-1,-1,-2,8,-4,3,2
1532114834621,0,2,2,0,4,0,0,-2
1532114834626,1,0,-1,0,2,-2,-8,-6
1532114834631,-6,-3,0,-1,-2,2,10,7
1532114834636,2,0,0,0,-1,-1,-1,-7
1532114834641,-4,-3,0,0,-6,-1,-2,3
1532114834646,3,1,1,3,10,2,12,-3
1532114834651,-5,-1,-2,0,3,-1,-14,-3
1532114834656,2,1,-1,0,2,1,5,4
1532114834661,1,-1,-2,1,2,-1,5,-1
1532114834666,-3,-6,-1,0,-1,-1,-6,-1
1532114834671,-1,-1,-1,-1,0,2,5,0
1532114834676,-8,-1,2,-3,3,-3,6,-1
1532114834681,-1,-1,-2,0,-4,0,-10,-4
1532114834686,-6,0,1,2,0,-3,5,-2
1532114834691,-1,1,-1,0,5,0,-1,0
1532114834696,5,0,-1,-1,-9,-1,-1,1
1532114834701,-1,-1,-2,-3,-10,-2,-2,-1
1532114834706,1,1,2,1,29,3,-5,0
1532114834711,0,-1,-3,-1,-16,-2,24,6
1532114834716,-3,-1,-4,-3,5,1,-2,-7
1532114834721,-3,-4,-1,-2,-1,-1,0,1
1532114834726,0,-2,-2,0,-7,-3,8,3
1532114834731,1,-1,3,4,12,-2,-14,-7
1532114834736,8,2,1,-1,-3,1,-4,0
1532114834741,-3,2,-1,-1,-2,1,4,-3
1532114834746,-2,-3,-2,-1,-7,0,-7,-2
1532114834751,3,-2,1,2,11,1,3,5
1532114834756,5,-1,0,0,-4,-5,-1,0
1532114834761,-6,-2,-1,0,2,0,-5,-4
1532114834766,-1,-1,-1,-1,1,-1,-3,-1
1532114834771,5,0,0,-1,-2,-3,-2,-2
1532114834776,-5,1,2,-2,-6,0,-10,-3
1532114834781,1,3,3,0,5,-1,3,1
1532114834786,-2,3,-1,1,0,-1,-9,0
1532114834791,0,-3,-2,-2,1,0,10,4
1532114834796,10,-3,-3,-3,-2,-2,-2,1
1532114834801,-9,0,2,-1,0,-1,0,2
1532114834806,-3,-1,-1,-2,-4,-1,-5,-7
1532114834811,-4,1,0,0,0,-1,-1,2
1532114834816,2,-2,-2,0,-4,5,-4,2
1532114834821,0,0,-3,-2,-4,-4,-1,-7
1532114834826,2,-1,1,-1,3,1,-2,5
1532114834831,-7,-6,-4,-7,-5,-2,1,-3
1532114834836,2,1,-1,2,-1,-1,-5,-3
1532114834841,-6,4,0,6,7,4,-3,-5
1532114834846,1,-2,-2,-3,-1,0,7,3
1532114834851,7,1,1,2,1,-1,-7,-2
1532114834856,-10,-4,-3,-5,-10,-1,-15,-8
1532114834861,1,-4,-4,-5,1,-4,19,3
1532114834866,3,-2,1,3,5,0,2,3
1532114834871,-4,0,0,-4,-4,3,8,-3
1532114834876,0,1,1,2,1,-4,0,-3
1532114834881,2,1,0,-1,-6,-2,-8,-1
1532114834886,-4,-5,-4,-2,3,-2,-11,-4
1532114834891,4,1,-1,3,-1,2,14,9
1532114834896,-5,0,-1,-1,2,1,10,-5
1532114834901,-1,0,1,-2,1,-1,-5,-1
1532114834906,-1,0,1,-3,-5,-1,0,0
1532114834911,-4,1,1,2,1,1,-7,1
1532114834916,2,1,2,1,-2,-5,3,3
1532114834921,3,-2,-4,-2,0,2,-6,1
1532114834926,1,0,1,-4,6,1,2,-2
1532114834931,0,-2,-1,2,4,-1,4,-2
1532114834936,0,1,1,-9,-12,1,-2,-2
1532114834941,-2,-1,0,15,16,0,-12,-6
1532114834946,-4,0,0,-5,-9,-3,-5,-1
1532114834951,3,-2,-4,-3,7,2,0,1
1532114834956,-7,-4,-4,-6,-8,-4,1,2
1532114834961,4,0,-1,-5,-22,-3,-12,-3
1532114834966,-2,1,-4,-1,0,-2,6,-1
1532114834971,10,3,2,4,7,-1,-1,1
1532114834976,-9,-2,-3,-1,-2,-1,2,-1
1532114834981,-5,-1,0,-2,-2,1,-4,1
1532114834986,1,-4,-2,-2,0,-2,3,1
1532114834991,-3,0,-1,-3,-11,-2,-23,-10
1532114834996,10,3,1,4,6,3,22,9
1532114835001,-4,-1,-3,-5,-1,-3,-3,-5
1532114835006,1,-3,-3,0,4,2,27,6
1532114835011,-2,-2,-2,-4,-3,-2,3,-1
1532114835016,1,-3,-1,-2,1,1,-4,-1
1532114835021,0,-2,-1,1,-2,-2,-2,0
1532114835026,-3,1,1,-1,-2,1,-7,-3
1532114835031,6,1,2,-2,1,-1,-2,1
1532114835036,-1,-1,-1,0,0,-2,-5,-6
1532114835041,-4,-1,-4,-2,-1,2,8,-2
1532114835046,-1,-2,-1,1,-2,-1,-6,0
1532114835051,-1,-1,-2,0,1,0,3,1
1532114835056,2,-1,-1,-1,-3,-2,0,1
1532114835061,-6,-4,-2,-4,-8,-2,3,2
1532114835066,0,0,-2,1,2,0,-5,-5
1532114835071,-3,-2,-2,1,2,1,-1,-1
1532114835076,10,0,1,2,-1,1,9,7
1532114835081,-14,-1,2,1,3,-3,-11,-6
1532114835086,-2,-3,-5,-9,-10,-2,-11,-1
1532114835091,-3,0,0,4,1,-4,5,-1
1532114835096,0,-1,-1,-2,-6,2,2,-2
1532114835101,3,3,0,0,-5,-1,10,4
1532114835106,3,0,0,3,1,2,-10,-6
1532114835111,-3,-1,-1,-6,-2,-1,-10,-5
1532114835116,0,-2,-2,0,2,-1,13,4
1532114835121,-3,-1,-4,0,1,-1,3,0
1532114835126,-4,-1,-2,-1,2,-2,-4,-3
1532114835131,3,-1,-1,-2,1,0,1,1
1532114835136,-8,-1,-1,1,1,-1,-8,-4
1532114835141,3,-2,0,-1,2,-1,3,1
1532114835146,9,-1,-2,-2,-1,-3,0,2
1532114835151,-11,-1,-1,1,2,2,16,2
1532114835156,-2,2,0,2,1,-1,3,-2
1532114835161,0,-3,-2,-5,-3,-1,-1,-2
1532114835166,-3,-3,-2,1,2,-1,1,-1
1532114835171,0,0,-3,-3,-4,-1,-1,1
1532114835176,0,2,0,2,6,-3,-1,2
1532114835181,-1,-1,-2,2,-1,0,-9,-3
1532114835186,2,0,0,-4,-4,-3,2,4
1532114835191,-2,-3,-1,1,0,3,2,-3
1532114835196,-1,0,0,-2,0,-1,-7,-3
1532114835201,1,-1,-1,2,4,-1,9,4
1532114835206,5,1,1,1,-1,-1,3,-3
1532114835211,-5,-3,-2,-2,-3,-3,-5,-2
1532114835216,-4,-3,1,-1,-2,0,4,0
1532114835221,-2,-2,-3,-5,-7,0,2,-1
1532114835226,-2,-2,-1,-3,-3,-1,-13,-3
1532114835231,1,2,-1,3,2,-4,-1,-4
1532114835236,2,2,0,-4,-4,0,-5,0
1532114835241,-1,0,2,3,0,0,2,-4
1532114835246,-1,-4,0,-2,0,0,0,-1
1532114835251,1,0,-1,-2,-5,-1,-3,1
1532114835256,-3,-1,-4,-3,-3,0,2,2
1532114835261,1,2,0,-2,-6,-2,-6,-3
1532114835266,-3,2,2,1,1,-1,2,-1
1532114835271,3,1,0,1,2,-2,-13,-3
1532114835276,-1,-3,-1,1,1,0,4,2
1532114835281,4,-3,0,-2,-4,-3,-3,-1
1532114835286,-10,-2,-3,-3,-4,-1,0,-3
1532114835291,5,2,1,1,5,-2,-9,0
1532114835296,-4,4,-1,-2,-2,2,14,4
1532114835301,-4,-4,-3,-3,0,-1,-4,-4
1532114835306,-1,0,0,0,-4,-2,-4,-3
1532114835311,1,-3,0,-4,2,0,4,2
1532114835316,-3,0,-1,-1,-2,-1,2,-2
1532114835321,3,0,-2,-2,-1,0,0,0
1532114835326,-4,1,-1,2,2,-2,-4,-2
1532114835331,-2,-1,-2,-1,1,-1,-1,0
1532114835336,-1,-5,0,0,-1,0,1,-1
1532114835341,-1,-1,1,-2,0,1,5,1
1532114835346,-3,-4,-2,-3,-1,-3,-3,1
1532114835351,4,-2,-2,-1,0,1,0,-4
1532114835356,0,2,1,1,0,-1,-3,1
1532114835361,-11,-2,-2,-2,-3,-2,1,-7
1532114835366,-2,-1,-3,0,0,-2,-5,0
1532114835371,0,1,1,1,-2,-4,-2,-6
1532114835376,3,-2,-4,-1,0,3,1,0
1532114835381,2,-1,0,0,-2,0,10,3
1532114835386,-1,-1,-1,-4,-4,-1,-13,-4
1532114835391,-2,-2,-1,3,6,2,0,2
1532114835396,-3,-2,-1,-2,-2,-7,1,1
1532114835401,1,2,0,0,-1,-1,-1,0
1532114835406,-1,-3,1,-2,-4,1,4,-1
1532114835411,-3,0,-1,1,3,-2,-2,1
1532114835416,0,0,0,-1,-4,0,-3,-1
1532114835421,-3,-2,-1,-2,-2,-1,-4,-1
1532114835426,-1,0,-1,1,1,-2,-9,-5
1532114835431,0,2,1,-4,-5,-1,13,9
1532114835436,0,0,-3,0,-1,0,1,-2
1532114835441,1,2,3,2,1,-3,-3,0
1532114835446,0,-1,0,-2,-1,0,0,-2
1532114835451,0,-2,1,-2,-3,0,-2,-1
1532114835456,0,1,-2,-1,-1,0,-12,-3
1532114835461,1,-1,-1,0,-2,4,18,4
1532114835466,10,-1,-1,0,2,-2,1,1
1532114835471,-8,1,2,4,-2,1,6,-5
1532114835476,-3,-1,1,2,5,-2,-14,-2
1532114835481,-1,-2,-2,-2,-2,-1,-8,-1
1532114835486,-1,0,-1,0,-1,0,2,2
1532114835491,-1,0,-2,-3,-3,-1,4,3
1532114835496,-1,-5,-2,-7,-4,-3,1,-1
1532114835501,0,2,-2,4,6,0,-12,-4
1532114835506,-3,-2,-3,-4,-1,-1,3,0
1532114835511,-2,-1,0,3,2,0,-10,-3
1532114835516,-1,-1,-1,-2,-4,1,7,-3
1532114835521,0,0,1,0,-2,-3,-5,1
1532114835526,1,0,-1,1,-1,2,4,0
1532114835531,0,1,-3,-3,-3,-1,-4,0
1532114835536,8,-1,0,0,0,-1,-4,2
1532114835541,-9,0,-1,-4,-4,-1,9,-4
1532114835546,0,-3,-4,1,-1,-3,-3,-3
1532114835551,1,1,3,0,2,-2,0,1
1532114835556,-2,-2,-1,0,0,0,7,-4
1532114835561,0,-3,-5,-7,-10,-3,-7,0
1532114835566,-3,0,0,4,6,3,2,1
1532114835571,-4,-3,-1,1,0,0,3,-4
1532114835576,3,-1,-1,0,0,-4,-6,1
1532114835581,-3,1,3,0,0,-2,1,-1
1532114835586,-3,-1,0,-3,-4,-1,-1,1
1532114835591,-2,-3,-3,-2,-1,0,2,1
1532114835596,-1,2,2,1,3,-1,2,-1
1532114835601,3,-1,-3,-1,-2,0,-6,-3
1532114835606,1,3,0,-1,-3,-1,4,-2
1532114835611,2,-4,-5,-3,-1,-2,-10,-3
1532114835616,1,-1,0,2,1,1,-4,1
1532114835621,-2,0,-2,-1,0,2,-6,-2
1532114835626,-1,-2,-2,-4,-8,0,1,2
1532114835631,6,-2,-1,2,8,-2,4,2
1532114835636,-5,-2,1,-1,-3,-3,-2,0
1532114835641,-2,-1,-1,0,1,5,-1,-4
1532114835646,5,1,-1,2,-1,1,-4,-2
1532114835651,-5,-4,-2,-6,-8,-3,-3,-3
1532114835656,2,-1,-2,5,5,0,3,6
1532114835661,-2,2,2,-2,-1,-2,-7,-7
1532114835666,-1,1,0,-2,0,-1,-2,-2
1532114835671,0,1,0,-2,-3,0,1,0
1532114835676,6,-4,-2,-2,-2,-1,-5,-1
1532114835681,-5,0,0,1,-3,-2,4,1
1532114835686,-4,-2,-2,1,3,1,-3,-3
1532114835691,-1,3,2,2,1,0,-3,-1
1532114835696,-5,-2,-2,3,-2,-1,0,-3
1532114835701,7,-2,-2,-4,0,-1,0,0
1532114835706,-1,-3,-1,-5,-4,-2,12,4
1532114835711,2,-1,0,2,1,-2,-5,-1
1532114835716,-5,3,3,-2,-2,0,-10,-4
1532114835721,-13,-4,-3,-1,1,-1,7,-3
1532114835726,3,1,1,0,0,0,-3,-1
1532114835731,-5,0,1,-4,-3,0,8,4
1532114835736,6,-2,1,4,1,0,-3,-1
1532114835741,-1,-2,-3,-3,-1,-6,-3,-3
1532114835746,3,1,2,1,-1,0,2,-2
1532114835751,-2,-7,-4,-3,-3,-1,-3,2
1532114835756,13,-2,1,6,0,0,-4,2
1532114835761,-6,-1,-3,-4,-2,-1,-11,-15
1532114835766,-9,1,2,0,3,2,15,10
1532114835771,4,-1,1,-1,3,-2,1,2
1532114835776,7,-1,0,0,0,-1,3,-2
1532114835781,-18,0,0,3,0,-5,-8,-8
1532114835786,2,-5,-3,-3,-3,3,-6,-6
1532114835791,0,-1,-3,-3,-2,1,1,-1
1532114835796,5,-3,-1,-1,-1,-2,-5,-2
1532114835801,-9,-3,-2,0,0,0,10,5
1532114835806,9,2,0,-3,-3,-3,-2,-2
1532114835811,0,-1,1,-1,-2,-1,-3,3
1532114835816,-1,2,0,-1,0,-1,-3,-3
1532114835821,-6,-4,-3,-1,-2,-1,-1,1
1532114835826,-4,-4,-3,-4,-1,-2,-3,-2
1532114835831,15,1,0,-2,-2,0,0,2
1532114835836,-23,0,-2,1,0,-2,-4,0
1532114835841,-7,1,6,5,-3,0,1,-8
1532114835846,30,2,-1,-4,-3,0,1,-10
1532114835851,-39,3,2,3,4,3,1,5
1532114835856,11,-4,-3,0,0,1,1,5
1532114835861,0,-6,-4,-2,1,-1,0,0
1532114835866,-10,-1,-5,-7,-3,-3,-2,-5
1532114835871,13,1,2,1,-3,-1,-2,-3
1532114835876,6,0,3,0,-2,1,-10,-3
1532114835881,-4,2,-3,-2,0,0,9,2
1532114835886,-10,-2,-2,2,2,0,0,6
1532114835891,7,-2,-2,-4,-3,-3,-1,-1
1532114835896,-3,2,2,2,0,-1,0,3
1532114835901,-3,1,2,-2,0,-1,0,-2
1532114835906,5,-1,-3,-2,-1,0,3,-4
1532114835911,3,-1,-3,-3,0,-3,-3,0
1532114835916,1,2,-2,0,-2,-1,4,-4
1532114835921,-6,-4,0,3,0,1,-10,-3
1532114835926,5,1,0,-3,-1,-1,3,1
1532114835931,-6,-2,0,1,1,2,1,-3
1532114835936,0,-3,-2,-3,0,-3,-2,-2
1532114835941,5,3,0,-2,-5,-1,2,-2
1532114835946,-2,-2,-1,-2,-1,0,0,2
1532114835951,-5,-1,-1,0,0,-4,-3,-1
1532114835956,-5,-1,-1,-2,-1,-3,-1,1
1532114835961,0,-2,1,-2,0,0,0,-3
1532114835966,0,3,4,0,1,-2,-1,1
1532114835971,3,0,-3,-4,-1,1,1,0
1532114835976,-1,-4,-2,-2,-2,-2,-3,1
1532114835981,2,1,-3,2,1,-1,-2,-1
1532114835986,-1,-2,-1,-2,-5,-4,-2,-3
1532114835991,1,-2,0,-1,-3,-1,-2,2
1532114835996,-5,0,-1,-2,-1,0,-1,-2
1532114836001,4,-2,-3,0,0,2,2,0
1532114836006,-2,0,-1,2,2,-3,0,-1
1532114836011,2,0,5,-1,-1,-1,-4,-4
1532114836016,-5,-1,-3,-2,0,2,-2,3
1532114836021,-18,-5,-3,-3,-2,1,16,-1
1532114836026,8,-4,-2,-2,-1,-7,-7,1
1532114836031,6,3,-2,2,2,-1,14,-9
1532114836036,-4,0,-1,1,-1,6,1,12
1532114836041,5,-1,0,0,-2,-2,-10,-2
1532114836046,-5,-3,-4,-2,0,1,1,-1
1532114836051,1,-2,0,-2,-4,-3,-1,3
1532114836056,1,-1,-3,-2,2,-1,-5,-5
1532114836061,7,-3,-4,-5,-20,-2,-2,-1
1532114836066,13,5,9,8,7,2,2,4
1532114836071,-38,-5,-4,-2,4,-6,-11,-6
1532114836076,1,-3,-2,-1,-1,-4,4,-3
1532114836081,9,-1,-1,1,5,0,-5,10
1532114836086,-25,-3,-3,-6,-1,0,-6,-14
1532114836091,30,1,0,2,1,6,5,13
1532114836096,-19,3,3,-1,-2,0,-4,-3
1532114836101,10,-2,-1,-1,4,-3,-4,-5
1532114836106,0,-5,-3,-3,-7,2,0,1
1532114836111,3,-4,-2,2,3,3,-1,4
1532114836116,5,0,0,-2,-4,-2,0,-4
1532114836121,-3,4,3,2,2,-4,-4,4
1532114836126,4,2,-2,-2,-1,6,5,2
1532114836131,-21,-4,-3,-2,-2,-4,-7,-2
1532114836136,21,2,0,3,2,-1,6,4
1532114836141,-23,3,2,-1,-1,0,-10,-10
1532114836146,-2,-5,-5,-4,0,-2,1,3
1532114836151,8,1,3,10,1,1,-1,-2
1532114836156,-26,1,-1,-2,0,0,-5,-1
1532114836161,10,-2,-6,-4,-1,-2,-1,-3
1532114836166,-4,0,-3,-6,-6,0,-3,-4
1532114836171,1,-1,0,-10,-1,0,-1,2
1532114836176,4,-2,-3,-1,2,-5,-1,-4
1532114836181,-12,-4,-2,-4,-1,-1,3,-4
1532114836186,8,3,3,-7,0,-2,-6,1
1532114836191,1,3,2,13,-1,-1,4,1
1532114836196,-4,-1,1,4,2,1,1,0
1532114836201,9,-3,0,-14,1,-2,-2,4
1532114836206,-10,1,0,2,1,-2,4,-5
1532114836211,-12,-1,-1,-6,-2,-2,-3,-13
1532114836216,59,-1,-1,-5,-9,3,13,-2
1532114836221,-40,-5,-4,3,2,-3,-3,2
1532114836226,4,3,1,8,3,2,2,6
1532114836231,-10,-1,-3,-7,-3,-2,2,-3
1532114836236,8,-4,-4,3,0,-2,-17,-9
1532114836241,8,1,0,1,0,-2,3,1
1532114836246,8,-1,-1,-15,-5,-3,0,1
1532114836251,-1,1,2,14,-6,-1,0,5
1532114836256,-27,0,-3,-11,-6,-3,-2,-2
1532114836261,4,3,2,7,0,2,18,16
1532114836266,-17,-7,-7,-2,1,-4,-8,-6
1532114836271,15,1,3,0,-5,1,1,2
1532114836276,0,0,2,3,8,0,1,1
1532114836281,-14,0,-1,2,3,1,-7,-7
1532114836286,6,-2,-4,-5,-5,-3,-12,-3
1532114836291,14,-2,-4,-4,1,6,25,11
1532114836296,9,5,12,37,0,-1,-12,-7
1532114836301,-4,2,-2,0,-1,-2,2,-7
1532114836306,-3,0,1,8,8,1,-6,6
1532114836311,21,-4,-5,-9,-4,-7,-19,-10
1532114836316,-57,0,-1,-5,-1,2,5,-7
1532114836321,18,-8,-8,-11,0,-1,10,0
1532114836326,7,-2,-1,3,-2,0,-13,-6
1532114836331,-18,2,2,3,3,0,5,8
1532114836336,18,-3,-5,-8,-4,0,1,1
1532114836341,1,-2,-2,-6,0,0,-8,-6
1532114836346,-37,-2,1,3,3,-1,1,-2
1532114836351,25,4,3,-16,-9,0,-4,0
1532114836356,-24,3,0,0,3,-3,-3,-2
1532114836361,18,-1,2,6,-2,-3,-15,-9
1532114836366,2,-3,-3,-4,0,2,11,3
1532114836371,-35,-3,-7,-6,-2,0,-6,-18
1532114836376,-3,-4,0,4,-4,-2,0,1
1532114836381,17,0,-1,-3,0,0,15,2
1532114836386,32,1,0,1,0,-6,6,-3
1532114836391,-21,-3,-3,3,1,-4,-5,1
1532114836396,5,-1,-1,-15,-3,0,-11,-2
1532114836401,-3,-1,-3,-1,-3,2,3,6
1532114836406,15,1,5,6,-3,-2,-1,-6
1532114836411,-17,-3,-2,-12,-3,0,-37,-8
1532114836416,11,-1,-4,-8,8,-3,36,9
1532114836421,-7,0,1,12,1,1,-1,-2
1532114836426,-11,3,-1,-12,-3,3,16,9
1532114836431,2,-6,-5,-9,2,-4,-32,-8
1532114836436,0,-4,2,22,-6,-2,-15,-2
1532114836441,-6,2,-1,-31,-14,1,20,7
1532114836446,-11,-1,3,19,1,2,-10,-10
1532114836451,49,1,-3,0,-1,-3,8,10
1532114836456,-21,-4,-4,-4,4,7,2,10
1532114836461,3,0,0,8,3,-2,-8,-14
1532114836466,-15,-2,-1,-11,-4,0,-6,0
1532114836471,0,-2,-1,8,2,3,16,-3
1532114836476,12,-2,-2,-9,-5,-3,1,1
1532114836481,-4,1,1,6,0,-1,-12,-1
1532114836486,17,0,-2,-1,-2,-1,4,-4
1532114836491,-5,4,3,5,2,-4,5,7
1532114836496,3,-4,-3,-6,-2,-1,-15,-9
1532114836501,-7,0,-1,0,0,-1,18,-1
1532114836506,-13,-3,-3,-7,3,-6,-6,-1
1532114836511,-2,2,4,3,-1,2,10,-1
1532114836516,1,0,0,-6,-1,-3,-5,1
1532114836521,7,-3,0,7,2,3,-10,-1
1532114836526,-1,-1,-3,-11,-12,0,9,8
1532114836531,-9,0,-3,2,3,-3,-1,-1
1532114836536,-2,2,-1,-2,-4,1,-1,-7
1532114836541,-7,-5,0,-3,4,-2,-3,-1
1532114836546,3,0,-2,5,3,3,1,1
1532114836551,-9,-4,-5,-5,-10,-2,2,-2
1532114836556,2,-7,-4,-2,17,-2,0,4
1532114836561,-13,-2,-4,3,-20,-2,-2,-6
1532114836566,8,1,-1,0,0,-11,-4,0
1532114836571,1,0,2,-1,-3,4,0,-3
1532114836576,2,1,-4,-6,-3,-1,3,1
1532114836581,16,0,-1,1,5,-1,-5,3
1532114836586,-4,-1,1,6,-3,-12,-5,-6
1532114836591,-4,0,2,-3,-6,-4,1,-1
1532114836596,2,1,1,1,21,21,5,1
1532114836601,-6,-1,-1,-3,-6,-1,-8,-1
1532114836606,2,-7,-4,4,14,5,4,-1
1532114836611,1,-1,-2,-7,-5,-6,2,1
1532114836616,-4,-1,2,5,-14,-11,-4,-2
1532114836621,4,1,2,1,32,11,0,-3
1532114836626,-1,1,0,2,-13,-8,3,1
1532114836631,-2,-4,-4,-4,0,-13,-6,-3
1532114836636,0,2,2,-5,-6,27,1,0
1532114836641,-9,-2,-1,0,6,-2,1,-3
1532114836646,2,2,2,-4,31,5,-2,0
1532114836651,8,1,-3,4,-27,2,1,0
1532114836656,-4,-3,-1,-1,-8,-19,-5,-1
1532114836661,-2,-3,-8,-7,-3,-8,-5,-6
1532114836666,-5,-2,-2,-2,-3,7,0,2
1532114836671,7,5,4,6,17,5,3,-3
1532114836676,-7,-7,-9,-6,-6,-13,-3,-2
1532114836681,-1,1,4,-2,0,2,-2,2
1532114836686,2,0,1,-1,-1,6,-1,-1
1532114836691,-5,-2,0,1,20,0,-1,-3
1532114836696,2,1,-1,-1,-24,-3,2,0
1532114836701,-3,-2,-3,9,13,2,-1,1
1532114836706,-2,-1,-2,0,-17,-4,0,-2
1532114836711,-5,-3,-2,-4,7,5,1,2
1532114836716,-2,3,-8,-12,-1,1,1,-3
1532114836721,1,-4,-2,9,-2,-9,-1,-1
1532114836726,-2,0,9,-3,-2,0,-1,-1
1532114836731,-2,-1,-1,1,18,4,0,-2
1532114836736,0,0,3,-2,-21,-4,1,-1
1532114836741,6,3,-2,-5,-8,-3,-2,-2
1532114836746,-7,-1,-3,0,-11,-1,-4,-6
1532114836751,-5,-3,-3,5,13,1,1,1
1532114836756,2,0,1,-7,5,-4,-6,-3
1532114836761,1,2,1,7,-11,5,-3,0
1532114836766,-1,-6,-13,-2,-28,-5,0,-1
1532114836771,-4,-1,0,-9,4,1,3,4
1532114836776,-2,-2,-8,4,-9,-2,-4,-4
1532114836781,-1,-7,-6,0,-11,1,2,2
1532114836786,0,-2,7,-6,5,-4,-2,-1
1532114836791,9,1,1,-6,-15,4,0,-1
1532114836796,-4,-2,-1,1,3,-4,-2,-2
1532114836801,-3,-2,5,0,21,-1,-1,-3
1532114836806,-1,0,-1,8,-1,0,-2,-1
1532114836811,-4,-5,-8,-3,-6,-7,-1,0
1532114836816,4,2,0,-3,4,10,3,1
1532114836821,0,3,1,-3,7,-1,-1,-3
1532114836826,-1,2,4,0,7,-2,-2,-1
1532114836831,-2,0,-1,4,6,-3,-2,-1
1532114836836,2,-2,-4,1,-18,-1,2,2
1532114836841,-4,-3,-1,-5,-9,1,-4,-3
1532114836846,4,4,5,3,15,-2,-3,1
1532114836851,-7,-3,-3,-1,4,1,2,-2
1532114836856,2,-1,0,1,4,0,-5,1
1532114836861,-6,-1,-2,-5,2,-1,12,0
1532114836866,3,1,1,3,-14,2,13,4
1532114836871,0,6,0,0,16,3,-1,-3
1532114836876,4,-2,3,-9,0,-4,3,2
1532114836881,-7,0,6,-6,-12,-5,-10,-4
1532114836886,-1,-1,4,2,-9,-4,1,-1
1532114836891,-3,-4,-16,0,1,-7,-5,-2
1532114836896,-1,1,2,1,6,24,1,0
1532114836901,1,-3,-1,-1,7,-4,2,2
1532114836906,5,2,1,-4,1,8,-6,-3
1532114836911,-3,-2,1,2,-4,-9,9,2
1532114836916,0,2,-2,2,11,-8,-2,-3
1532114836921,0,-1,-4,0,3,-1,2,-2
1532114836926,-5,-7,-5,1,-4,-4,0,-1
1532114836931,0,-5,-2,-1,-11,0,-5,-2
1532114836936,2,3,3,5,2,-5,-8,6
1532114836941,0,5,9,-11,-3,0,1,-1
1532114836946,-2,-1,0,17,2,1,1,-1
1532114836951,-2,1,-1,-5,5,5,-19,-1
1532114836956,-3,-1,-2,0,0,-3,-9,-6
1532114836961,2,1,-3,-5,-7,8,43,8
1532114836966,-4,-4,-5,-6,0,-7,0,-1
1532114836971,3,-1,0,-16,-7,7,10,1
1532114836976,-2,-1,3,33,14,-2,-15,-7
1532114836981,3,-2,2,20,0,-3,-10,4
1532114836986,-2,1,1,-1,-17,7,17,-1
1532114836991,0,-1,-2,-2,10,3,-9,0
1532114836996,1,-1,-5,-21,-9,-10,3,-2
1532114837001,-1,1,3,9,8,-1,-8,-3
1532114837006,-2,-1,-5,-2,5,4,11,1
1532114837011,-7,-4,-2,-1,-6,-3,-8,-2
1532114837016,3,1,1,9,-7,-1,-4,-5
1532114837021,1,0,3,-6,0,-1,1,3
1532114837026,-1,1,1,4,0,2,12,-2
1532114837031,1,0,-3,-28,-9,-1,-21,-5
1532114837036,0,-3,-9,34,9,0,8,3
1532114837041,1,1,6,-18,-10,-1,6,-2
1532114837046,1,1,-4,-4,-9,0,-2,3
1532114837051,-1,0,-1,-21,-5,-2,-15,-6
1532114837056,-2,-2,-3,25,5,2,-2,-2
1532114837061,0,-2,2,1,1,-6,0,3
1532114837066,-4,-3,-5,-11,3,1,6,1
1532114837071,0,0,-1,-3,-14,0,4,-3
1532114837076,-2,-2,-3,-22,-2,-10,-21,-6
1532114837081,1,1,2,18,-4,2,11,4
1532114837086,0,-4,-2,-17,-7,-2,-7,2
1532114837091,-3,-4,-5,10,-8,-1,-8,-8
1532114837096,0,3,4,-15,-5,-2,-6,0
1532114837101,-1,0,1,6,6,0,-5,-3
1532114837106,-1,-2,1,6,8,-3,-14,-2
1532114837111,2,3,0,7,3,3,15,3
1532114837116,-1,-1,1,-11,-3,-5,4,-4
1532114837121,-2,-4,-4,-11,9,-1,2,2
1532114837126,0,2,2,-4,12,0,-15,-2
1532114837131,1,1,5,33,22,4,-9,0
1532114837136,-3,-1,-1,5,5,2,18,3
1532114837141,-1,1,0,-14,0,-4,-12,-5
1532114837146,0,-4,-5,-6,4,-2,-4,-3
1532114837151,-1,-4,-5,-7,1,-5,7,0
1532114837156,2,2,-1,-7,5,1,-2,-1
1532114837161,-2,0,5,10,9,0,6,3
1532114837166,-7,-3,1,7,4,0,-2,-3
1532114837171,2,-1,-2,-12,-6,-2,-15,-3
1532114837176,0,-1,-5,5,-6,0,15,0
1532114837181,-3,1,-3,-9,-1,-1,10,3
1532114837186,-1,-6,4,38,10,-2,-6,-3
1532114837191,-7,-2,-5,-40,-5,-3,3,-2
1532114837196,8,1,5,21,2,1,-12,-2
1532114837201,-3,4,-1,10,-2,0,-6,0
1532114837206,0,-1,-3,-16,-8,-3,-14,-3
1532114837211,-3,-4,-2,-6,-6,-3,-1,3
1532114837216,2,-3,-1,0,-2,-1,-6,0
1532114837221,3,-1,-4,-5,-5,-3,6,-1
1532114837226,5,2,1,-3,-12,-4,0,-1
1532114837231,-5,-3,-2,6,3,0,-7,-2
1532114837236,-1,2,0,-2,-1,-6,7,3
1532114837241,-2,-3,1,1,0,-4,-13,-8
1532114837246,6,-1,0,0,3,8,0,1
1532114837251,-1,0,2,-7,-3,-2,6,-2
1532114837256,-3,1,2,1,0,3,6,1
1532114837261,0,-5,-8,-4,0,-3,-5,-4
1532114837266,-5,-3,-6,-9,-13,-5,-5,1
1532114837271,5,3,4,3,14,2,3,-1
1532114837276,-3,0,4,18,2,1,-16,-8
1532114837281,2,2,1,15,-5,-1,1,4
1532114837286,2,-3,-2,-12,1,1,-1,-1
1532114837291,-3,-4,-2,4,1,0,4,2
1532114837296,4,4,3,-15,-5,0,7,0
1532114837301,10,2,1,16,6,-2,-12,2
1532114837306,-1,-4,-5,-5,-2,-1,0,-4
1532114837311,-26,-1,1,-9,-3,1,4,-1
1532114837316,-2,1,3,15,17,4,-7,-3
1532114837321,2,0,-1,-4,-5,-1,16,3
1532114837326,3,0,-2,-3,-3,-1,1,0
1532114837331,4,-1,-1,-8,-9,2,1,1
1532114837336,-2,0,1,5,12,-3,-1,-1
1532114837341,-2,-6,-9,-7,-8,-1,-3,-1
1532114837346,-6,-3,-3,-16,-4,0,2,-1
1532114837351,5,5,10,49,7,-2,-1,3
1532114837356,5,-1,-1,-5,-8,-1,3,-3
1532114837361,-7,-1,-2,3,-3,1,-5,-4
1532114837366,-5,-5,-6,-23,-6,-4,-1,-2
1532114837371,4,-3,-4,-20,-3,2,0,-1
1532114837376,5,0,2,25,7,2,1,1
1532114837381,-1,-2,-2,-6,-8,2,1,4
1532114837386,-5,-3,-4,-6,-9,-1,-3,-3
1532114837391,6,2,0,-4,4,-1,0,1
1532114837396,-8,1,2,1,0,1,10,-1
1532114837401,0,1,2,-1,-4,-4,-13,-5
1532114837406,-6,-2,-1,12,8,1,-5,-2
1532114837411,8,-3,-1,5,5,2,2,1
1532114837416,-2,-2,-3,-13,-8,-2,-34,-10
1532114837421,-2,3,2,1,4,-1,22,9
1532114837426,5,-1,-1,7,-4,1,1,0
1532114837431,-4,0,-1,-9,8,-3,-2,1
1532114837436,-3,-1,-5,-7,-2,0,-3,0
1532114837441,22,-3,-2,6,-8,0,-9,-1
1532114837446,-35,-2,1,5,4,1,2,-2
1532114837451,3,1,-3,-31,-7,-3,-1,-5
1532114837456,1,2,4,12,3,-1,9,3
1532114837461,-5,0,4,-9,-1,1,-2,-4
1532114837466,16,-2,-5,-6,-2,-2,1,1
1532114837471,-8,-1,-1,-3,-3,0,1,-4
1532114837476,-2,-1,-4,-14,-7,-3,3,2
1532114837481,9,-2,-5,2,0,1,0,0
1532114837486,-20,0,2,1,-2,-4,-6,-4
1532114837491,3,-6,-2,6,-2,2,6,-3
1532114837496,2,-5,-3,-4,-17,-3,-18,-3
1532114837501,-5,2,2,9,28,2,3,-1
1532114837506,8,4,4,-8,-10,1,11,7
1532114837511,1,0,-2,12,0,-1,-2,2
1532114837516,-3,0,0,-12,-2,-1,7,1
1532114837521,-11,-2,0,-4,-8,-3,-5,-4
1532114837526,1,-3,-6,-10,0,0,-8,-7
1532114837531,1,0,-2,-1,0,0,2,-1
1532114837536,-2,-6,-2,2,1,-3,4,0
1532114837541,-2,1,2,-8,-8,0,-3,-2
1532114837546,8,-1,0,10,13,0,1,2
1532114837551,-1,0,-2,2,-10,0,-4,0
1532114837556,3,2,4,10,9,0,2,1
1532114837561,-11,-5,-6,20,-2,-2,-5,-1
1532114837566,-1,-2,-1,4,-5,-2,4,1
1532114837571,2,0,-1,-2,-1,-2,-5,-1
1532114837576,-4,-3,-4,-1,-1,0,-3,-6
1532114837581,4,-2,1,0,-6,-1,2,4
1532114837586,-6,1,1,3,6,1,1,1
1532114837591,3,2,-1,-8,-10,0,-8,-3
1532114837596,2,0,1,-1,-1,-2,-3,0
1532114837601,0,-1,-3,0,3,1,3,-1
1532114837606,-1,-4,0,-27,-7,1,1,-1
1532114837611,-3,-3,-4,25,6,-1,-3,0
1532114837616,16,3,0,-5,-1,0,3,2
1532114837621,-16,-1,1,1,0,-2,-4,-4
1532114837626,-7,-3,-3,-5,-4,-2,2,-3
1532114837631,4,2,0,-10,-1,-1,-4,-4
1532114837636,-8,-1,0,1,-3,-1,0,-2
1532114837641,5,-1,2,8,8,1,-3,-3
1532114837646,6,0,0,6,2,-1,-4,-1
1532114837651,-3,-2,-3,1,4,1,21,4
1532114837656,-1,0,-2,3,1,-2,-2,1
1532114837661,2,0,-1,-7,0,-2,4,-2
1532114837666,-11,-3,-4,0,0,-3,-11,-4
1532114837671,5,-1,0,-2,-8,-1,-7,-2
1532114837676,-5,-3,1,-4,0,-1,-2,-2
1532114837681,2,5,1,-1,1,3,4,3
1532114837686,-4,-2,-3,7,5,0,2,2
1532114837691,6,-3,-3,-13,-6,-2,-5,3
1532114837696,6,2,3,25,5,-1,-3,-3
1532114837701,-17,-7,-7,-11,-5,-5,-5,-2
1532114837706,4,0,1,1,-7,0,1,-1
1532114837711,-5,-2,-1,2,2,-1,-3,-4
1532114837716,6,-1,-2,-7,-1,0,3,0
1532114837721,1,4,3,-9,-8,-2,-14,-3
1532114837726,-3,-2,-6,0,2,0,7,3
1532114837731,0,-2,-1,-15,-8,-4,-5,-2
1532114837736,-5,2,5,-8,7,3,3,1
1532114837741,5,-5,-4,10,0,-1,-4,-2
1532114837746,9,-2,-4,-17,-14,-1,9,5
1532114837751,-13,-4,0,14,8,-3,-21,-11
1532114837756,3,-2,-1,-4,-5,-1,1,0
1532114837761,-2,1,1,-1,0,0,-1,-1
1532114837766,2,2,4,-3,0,-1,0,-1
1532114837771,1,2,-2,0,-1,0,3,0
1532114837776,-7,-5,-4,-3,-5,-1,-3,4
1532114837781,3,0,-2,1,3,-1,2,0
1532114837786,-7,2,4,4,1,0,-4,-3
1532114837791,2,-4,-2,1,1,1,2,-1
1532114837796,-11,1,0,2,1,-2,-7,-2
1532114837801,3,1,1,-3,-3,0,3,2
1532114837806,2,-1,-3,1,1,-3,-4,-2
1532114837811,-6,-6,-2,-2,0,-1,-3,-5
1532114837816,8,1,-2,-8,-3,1,-8,-4
1532114837821,-3,-5,-3,13,1,-2,1,-1
1532114837826,-9,2,3,2,-2,0,-2,-1
1532114837831,2,-1,0,-3,-1,-2,6,3
1532114837836,1,-1,-3,-1,-6,-3,-7,-7
1532114837841,1,2,1,-2,10,1,-5,-2
1532114837846,0,0,-2,8,3,2,6,0
1532114837851,4,1,3,-13,-1,-2,-9,2
1532114837856,-4,-2,-3,0,-3,-7,4,1
1532114837861,-1,1,1,-4,-9,-9,0,1
1532114837866,0,-4,-1,5,4,24,2,0
1532114837871,-6,-2,-7,-12,-5,2,7,1
1532114837876,5,1,4,2,3,1,0,2
1532114837881,-3,-5,-1,0,1,-3,1,-5
1532114837886,1,2,-2,0,-1,-8,-2,-13
1532114837891,-15,-5,-3,3,-2,0,-2,6
1532114837896,2,-1,0,1,2,0,1,-2
1532114837901,-1,-3,-1,0,-3,1,-1,4
1532114837906,6,-1,0,-3,-2,-3,-2,-1
1532114837911,2,3,2,1,-2,-3,-2,-3
1532114837916,8,1,1,2,-1,-4,0,2
1532114837921,-19,-2,-2,-3,0,1,1,-2
1532114837926,-5,0,0,0,2,0,-1,-3
1532114837931,4,0,0,-2,-1,0,-1,0
1532114837936,-2,-3,-2,-1,1,0,3,1
1532114837941,4,2,3,0,-7,3,2,3
1532114837946,-4,2,-1,-1,9,-3,-3,-2
1532114837951,-2,1,-3,-3,-25,-8,-3,-2
1532114837956,2,-4,-5,-3,-6,-7,-1,-1
1532114837961,2,-4,1,-2,6,12,2,0
1532114837966,-5,3,1,0,5,-1,-2,-3
1532114837971,7,1,-4,-2,0,-3,-4,1
1532114837976,2,-1,1,2,-3,-2,0,5
1532114837981,4,1,1,2,4,1,0,-2
1532114837986,-3,0,-1,-4,-9,2,-1,0
1532114837991,4,-4,-3,2,6,-2,2,0
1532114837996,2,-2,-3,-3,-5,-1,-5,-4
1532114838001,-16,-1,0,-1,2,-2,1,6
1532114838006,-5,-3,-2,-1,0,1,4,-3
1532114838011,16,-2,-4,-4,-4,-4,-4,1
1532114838016,-20,-4,0,1,-1,-2,4,0
1532114838021,5,1,0,-1,-2,0,2,-2
1532114838026,-11,-3,0,-2,0,1,-8,-16
1532114838031,20,2,-1,-1,-2,0,3,22
1532114838036,0,-2,1,1,-2,-2,1,-4
1532114838041,31,-6,-5,-3,-3,0,-7,2
1532114838046,-57,-1,-1,2,3,3,1,-17
1532114838051,13,-4,3,1,1,-2,1,-6
1532114838056,2,1,-4,-5,-6,-3,-11,4
1532114838061,-40,2,0,-3,-1,0,2,1
1532114838066,52,-1,-4,5,-2,2,-1,4
1532114838071,-9,1,0,-10,-1,-6,0,-11
1532114838076,-26,-1,3,10,4,0,-1,2
1532114838081,28,2,1,0,2,-1,0,-8
1532114838086,-10,0,-1,7,2,-1,3,1
1532114838091,-27,0,-4,-17,1,0,-6,7
1532114838096,22,1,2,4,-7,1,6,6
1532114838101,-5,0,-1,12,4,-1,-1,-4
1532114838106,-6,-1,2,-12,-4,0,3,6
1532114838111,-1,-2,0,3,-4,-1,-10,-7
1532114838116,16,3,-4,-4,-1,-3,1,-6
1532114838121,-16,-3,0,-5,-2,0,1,2
1532114838126,-2,-2,-1,3,2,1,-1,2
1532114838131,-14,2,-1,3,-2,-2,1,-16
1532114838136,44,-1,-4,-6,-4,-4,-1,15
1532114838141,-31,-6,1,1,2,2,0,-15
1532114838146,16,-1,-5,-5,2,-3,-3,15
1532114838151,-27,-3,5,0,-4,1,1,-6
1532114838156,-17,-5,-7,-3,-2,-3,-1,-2
1532114838161,-7,3,0,-5,6,-2,-2,-4
1532114838166,31,0,-3,-8,-10,-2,-13,11
1532114838171,54,-2,-3,14,-2,-4,-7,-1
1532114838176,-68,-2,0,0,8,1,1,-6
1532114838181,12,1,-1,-22,-9,-2,-2,3
1532114838186,-38,1,0,3,4,1,0,-11
1532114838191,39,-1,-5,-9,-2,-1,-5,1
1532114838196,11,-3,-1,3,3,1,4,0
1532114838201,15,-1,-2,23,2,-2,5,-1
1532114838206,-1,0,3,-10,0,-1,-4,-7
1532114838211,-2,1,-3,3,-3,0,4,3
1532114838216,-21,-5,-4,-29,2,0,1,-3
1532114838221,10,3,8,21,2,1,-3,1
1532114838226,10,2,-1,8,-1,0,2,3
1532114838231,-19,-3,0,11,4,1,1,-1
1532114838236,-7,-4,-2,-7,-3,-4,-3,-6
1532114838241,15,0,-9,-14,-6,-4,-3,2
1532114838246,-8,-2,2,16,7,-1,-14,-7
1532114838251,-6,0,2,-4,1,0,18,6
1532114838256,13,4,2,-12,-13,-1,-1,5
1532114838261,-2,1,-1,-8,-1,2,9,-4
1532114838266,-1,-6,-4,12,2,-3,-21,-7
1532114838271,-20,0,1,-9,8,1,13,4
1532114838276,43,3,4,36,-1,-2,-2,0
1532114838281,4,1,0,-22,-2,1,2,-2
1532114838286,-27,-7,-8,-18,-3,1,11,-4
1532114838291,-35,-3,-5,-13,0,2,-9,0
1532114838296,17,-3,5,32,5,1,0,-6
1532114838301,16,-4,-7,-23,-9,-2,-11,3
1532114838306,18,2,3,20,5,1,33,11
1532114838311,-10,0,0,-20,-2,-3,-6,7
1532114838316,-26,0,-4,-47,-21,-2,-2,-3
1532114838321,7,-4,-1,11,3,-1,-2,6
1532114838326,5,-1,1,-13,-2,0,-3,-6
1532114838331,1,1,-1,17,1,-5,-4,-7
1532114838336,4,3,0,14,5,1,0,2
1532114838341,-8,-3,-2,-14,2,1,-1,0
1532114838346,12,5,2,-1,-2,1,9,5
1532114838351,11,1,10,35,-4,0,-10,-1
1532114838356,-18,-3,-3,-2,2,-3,-10,-10
1532114838361,2,-3,-2,30,3,-2,-3,-2
1532114838366,-23,-3,-5,-13,-3,-3,-1,-6
1532114838371,19,3,1,-51,-14,-1,0,-4
1532114838376,16,2,8,30,3,-1,-9,-1
1532114838381,-45,-2,-1,13,-3,-2,-3,11
1532114838386,17,-1,-4,-6,7,1,5,9
1532114838391,-3,-1,0,-3,8,2,-1,-6
1532114838396,12,4,12,26,-4,3,0,-1
1532114838401,-3,-1,-6,-1,-4,-3,-4,0
1532114838406,-10,1,3,3,-5,-1,-4,-2
1532114838411,-29,-7,-4,7,8,-2,-1,-3
1532114838416,25,-1,-12,-3,4,-1,9,5
1532114838421,-27,2,4,18,0,2,-12,-15
1532114838426,-2,-5,-7,-33,-10,0,11,5
1532114838431,20,0,-2,27,0,-1,-3,1
1532114838436,-43,-2,-3,-33,1,0,14,9
1532114838441,23,0,5,17,3,-1,12,3
1532114838446,6,-4,-4,-11,-2,-1,-8,-2
1532114838451,-13,-1,-2,11,1,-1,0,-9
1532114838456,11,0,1,4,5,0,-4,-1
1532114838461,11,4,4,-32,-18,0,3,3
1532114838466,-9,-3,-1,7,4,-2,-4,-4
1532114838471,7,-3,-2,-4,-4,0,1,3
1532114838476,4,-1,-3,1,2,-2,-1,-1
1532114838481,-4,-1,-3,-18,0,2,-4,-8
1532114838486,2,2,1,2,-4,-5,-14,-6
1532114838491,3,2,-3,-6,-9,3,13,3
1532114838496,-3,-3,-2,-4,-4,-2,-21,-6
1532114838501,-17,-4,2,22,31,4,-2,-3
1532114838506,21,0,4,6,-6,2,17,5
1532114838511,74,-2,-1,6,-3,-3,-4,-1
1532114838516,-90,-8,-10,-24,2,-4,-3,2
1532114838521,-29,3,9,30,-2,0,3,-1
1532114838526,-2,-2,-8,2,0,2,-8,-11
1532114838531,3,-1,-7,-22,-2,2,8,2
1532114838536,35,-1,2,-3,-7,-1,3,7
1532114838541,-5,-3,-7,-24,2,-2,-5,-5
1532114838546,-11,0,1,7,0,-2,-2,0
1532114838551,-26,-1,0,-5,-10,1,-5,-4
1532114838556,16,0,-3,-21,-2,0,-2,-3
1532114838561,4,-4,-9,-16,-9,-5,7,5
1532114838566,9,3,6,30,10,2,2,-5
1532114838571,-12,-1,-3,-51,13,0,-14,0
1532114838576,5,5,9,48,-3,-2,-2,-4
1532114838581,20,-2,-2,-1,-7,-1,16,4
1532114838586,-8,-3,-6,-17,-10,-6,-5,2
1532114838591,-11,-2,-2,8,5,1,3,0
1532114838596,4,-4,-11,-44,8,-2,6,2
1532114838601,55,5,3,-33,-6,4,-6,-13
1532114838606,-10,-2,5,11,-6,-1,8,11
1532114838611,-76,-1,-2,19,4,0,-4,-7
1532114838616,12,-7,3,6,-1,-2,-2,-2
1532114838621,4,-4,-10,-12,0,0,-1,-4
1532114838626,11,-4,-11,-52,0,0,-3,-2
1532114838631,23,8,23,79,-10,0,-4,1
1532114838636,-22,-1,-8,10,5,0,4,-2
1532114838641,-4,2,4,-18,-1,-5,-14,8
1532114838646,-2,3,10,51,8,2,9,3
1532114838651,-8,-8,-15,-48,-11,-3,0,-5
1532114838656,7,-7,-14,-74,-6,-3,-15,-8
1532114838661,58,13,26,56,-3,2,11,12
1532114838666,-78,-8,-2,20,10,-3,-13,3
1532114838671,15,0,-3,24,6,-1,-4,0
1532114838676,48,3,2,47,9,-4,4,-2
1532114838681,-61,-17,-28,-85,2,-1,-5,-9
1532114838686,23,14,19,-12,-11,-1,0,2
1532114838691,20,-2,-5,-10,-3,-4,-1,3
1532114838696,-45,0,3,7,-6,-6,-2,2
1532114838701,-5,-7,-15,-38,6,10,1,-3
1532114838706,4,-2,1,40,-7,-1,-11,2
1532114838711,-22,3,11,69,8,0,3,-12
1532114838716,2,0,-3,-43,-7,0,-3,7
1532114838721,-8,0,-10,-18,-3,-6,-5,-2
1532114838726,22,7,10,-12,-4,-1,-10,-6
1532114838731,11,1,8,42,-2,-1,4,8
1532114838736,8,-3,0,25,-8,1,5,-10
1532114838741,-25,-6,-6,-14,-14,-6,-6,-1
1532114838746,10,-5,-8,-11,20,3,-25,0
1532114838751,-3,1,-2,-24,-13,-1,-1,-2
1532114838756,5,1,6,8,7,2,10,-8
1532114838761,3,0,5,54,5,-1,5,8
1532114838766,10,1,-13,-40,-8,-3,8,-1
1532114838771,-6,-4,-5,-61,1,-1,-2,-6
1532114838776,-3,0,6,19,-5,-1,-27,-1
1532114838781,30,2,10,36,2,-2,-2,-4
1532114838786,-32,-2,-6,-32,-9,-4,2,0
1532114838791,34,1,-3,-9,-4,-4,0,-2
1532114838796,-11,-8,-5,-16,1,14,7,8
1532114838801,-12,-4,-10,-28,3,-2,5,-7
1532114838806,-35,-3,14,83,9,3,8,-5
1532114838811,4,-2,-9,-38,-7,-4,1,3
1532114838816,-1,2,-1,-31,-10,-2,5,-2
1532114838821,36,7,13,53,4,-3,-8,-1
1532114838826,1,-7,-12,-51,-2,0,-1,-10
1532114838831,-16,-4,2,15,6,2,3,4
1532114838836,8,4,3,22,5,-2,-1,-1
1532114838841,-11,-3,-6,-28,-20,-17,-8,-1
1532114838846,11,-1,1,9,0,-1,6,-2
1532114838851,-6,-2,0,9,24,9,-2,1
1532114838856,4,2,2,8,-4,10,7,2
1532114838861,-9,2,-4,-6,-1,-2,-1,-1
1532114838866,8,-1,3,-2,14,-8,-1,-1
1532114838871,-3,-3,-11,-28,-42,-9,-6,-1
1532114838876,-6,-2,-3,1,5,-2,0,-3
1532114838881,-9,-1,3,12,-1,2,2,2
1532114838886,16,4,1,5,-3,0,0,-2
1532114838891,-7,-4,-6,-18,11,2,-2,-1
1532114838896,4,-4,-3,-12,0,-5,1,-3
1532114838901,-27,-5,-4,-14,-1,0,-3,4
1532114838906,15,1,7,70,0,-1,0,2
1532114838911,-2,3,0,-6,9,-1,-2,-1
1532114838916,2,4,3,3,-14,-6,-2,0
1532114838921,1,-3,1,18,3,3,-3,-4
1532114838926,-5,-5,-8,-36,-6,1,0,-1
1532114838931,-10,-1,0,-6,-2,-9,3,0
1532114838936,0,-3,4,35,10,4,3,1
1532114838941,0,4,3,0,-15,5,-5,-7
1532114838946,8,-4,-13,-24,-10,4,1,-6
1532114838951,20,-3,-3,4,-17,2,0,3
1532114838956,6,2,1,-10,21,-4,-1,1
1532114838961,-62,0,4,0,-6,-2,6,1
1532114838966,3,9,18,56,10,2,2,1
1532114838971,5,-1,0,4,-4,-4,-2,-3
1532114838976,2,-6,-10,-31,-3,1,1,-1
1532114838981,1,10,25,84,7,0,3,2
1532114838986,-15,-3,-4,-17,-5,-6,-2,-2
1532114838991,17,1,1,11,10,0,-1,-3
1532114838996,4,-1,-7,-9,23,-3,-2,-4
1532114839001,-11,7,26,70,28,7,0,7
1532114839006,-15,-8,-21,-112,-52,3,3,-4
1532114839011,5,-3,-3,-58,-13,0,1,6
1532114839016,-8,3,19,33,-2,-4,-2,2
1532114839021,2,5,0,-15,-3,-11,-3,-3
1532114839026,0,-2,-2,8,25,8,-2,-5
1532114839031,8,-2,-2,-8,6,-1,1,6
1532114839036,10,2,1,32,-19,-2,-2,-13
1532114839041,-52,-9,-20,-46,12,-4,-5,-4
1532114839046,54,4,14,32,-9,-9,-3,4
1532114839051,-80,-8,-11,-4,6,5,0,-16
1532114839056,10,-2,-2,2,0,-2,-3,-1
1532114839061,1,-1,-7,-11,-7,-3,1,-7
1532114839066,-11,-10,-12,4,7,19,5,4
1532114839071,59,2,-1,-13,-9,-4,-1,4
1532114839076,-22,3,8,24,1,3,3,0
1532114839081,-7,-8,-13,-16,-6,-6,-2,-7
1532114839086,-8,3,4,2,-9,-12,-3,4
1532114839091,51,2,3,-11,-13,-4,-4,2
1532114839096,-32,-3,-3,-2,2,6,-1,-13
1532114839101,8,-5,-11,-68,1,-6,-1,17
1532114839106,-34,4,11,59,11,-4,1,-6
1532114839111,0,-2,2,29,-9,-1,-4,0
1532114839116,1,2,4,12,5,-3,4,0
1532114839121,6,-4,-8,-46,-10,4,-10,-2
1532114839126,18,1,-5,-27,-6,-2,8,3
1532114839131,18,-5,-1,14,6,-12,-6,-1
1532114839136,-50,-7,-11,-20,-13,-29,-2,-6
1532114839141,19,2,6,16,21,55,9,-1
1532114839146,-10,-2,-2,22,0,-2,6,1
1532114839151,10,2,0,-15,5,-2,-3,0
1532114839156,20,0,3,11,-2,-8,-7,8
1532114839161,-7,0,-4,-34,-10,-2,-2,-8
1532114839166,4,3,4,-9,2,0,-2,-4
1532114839171,-4,13,12,37,-3,12,6,23
1532114839176,-20,-8,-6,-11,7,-1,-5,-6
1532114839181,7,0,-1,1,-20,-8,0,0
1532114839186,-12,-2,-5,1,3,1,-4,2
1532114839191,0,-1,-7,-50,2,-4,0,-6
1532114839196,2,0,10,22,3,8,2,4
1532114839201,4,-2,-7,-2,-10,-8,0,-2
1532114839206,-7,0,3,13,8,-2,-3,-13
1532114839211,13,-4,0,17,7,-1,-1,-5
1532114839216,-3,-1,-11,-53,-17,5,-2,12
1532114839221,-21,1,3,5,2,-3,4,-10
1532114839226,7,-6,-8,-7,-1,-5,-5,-4
1532114839231,-35,-1,0,20,9,1,3,14
1532114839236,22,-8,-17,12,-1,5,-2,-4
1532114839241,38,11,29,34,0,-11,-6,8
1532114839246,-12,-7,-4,-25,-8,-8,-6,-16
1532114839251,-29,-16,-13,8,9,5,1,-8
1532114839256,9,2,-10,-9,-16,2,-1,-7
1532114839261,-7,-6,-10,3,-5,-6,-3,0
1532114839266,13,8,18,-8,-7,-4,8,3
1532114839271,5,5,8,14,11,1,-16,-8
1532114839276,4,-5,-6,-16,-7,1,-7,1
1532114839281,-11,-7,-15,-6,-2,-14,-3,-7
1532114839286,6,1,-4,-26,-4,4,-5,8
1532114839291,-13,-3,2,28,3,-7,4,-9
1532114839296,-3,2,6,0,6,7,2,-5
1532114839301,18,-3,-9,-21,-2,-5,3,-1
1532114839306,5,1,-2,-15,1,-2,-7,0
1532114839311,0,4,7,6,5,4,4,9
1532114839316,4,0,0,16,-13,-1,-1,-6
1532114839321,11,-6,-8,-22,4,3,-2,-9
1532114839326,-1,-4,-7,-3,-2,-9,-3,14
1532114839331,-45,-8,-3,11,-1,9,-3,-15
1532114839336,5,0,-14,-78,0,-1,8,6
1532114839341,-13,8,32,70,13,5,-3,-4
1532114839346,4,1,4,-6,-3,0,2,4
1532114839351,14,2,-4,-4,-2,-7,-3,0
1532114839356,6,-4,3,5,0,-4,-4,4
1532114839361,-19,-6,-21,-46,-8,-1,1,0
1532114839366,-3,2,7,28,-3,0,-9,-3
1532114839371,16,1,5,10,-4,-1,10,4
1532114839376,-1,2,2,17,5,-2,-10,2
1532114839381,2,-3,-3,-9,-4,-4,-2,2
1532114839386,-15,-5,-5,-2,4,1,-1,-5
1532114839391,2,-2,-9,-9,0,0,3,-3
1532114839396,9,2,10,1,-3,2,5,7
1532114839401,-7,-5,-7,-22,-8,-4,-11,-5
1532114839406,-10,2,-10,-2,-5,0,11,19
1532114839411,-12,2,-6,-25,-4,-1,1,-3
1532114839416,-4,-2,9,31,5,0,2,0
1532114839421,30,1,4,-18,-1,3,1,9
1532114839426,-36,-9,-12,-16,-8,0,-6,-13
1532114839431,-3,-1,-3,27,2,-3,-5,-8
1532114839436,-12,2,5,1,2,1,4,11
1532114839441,-8,2,1,32,1,1,0,-5
1532114839446,16,1,7,4,7,2,-1,-3
1532114839451,12,-1,-7,-24,-6,-2,-4,1
1532114839456,-3,-4,-10,-40,-13,-3,-3,-6
1532114839461,-9,0,7,64,19,3,-10,1
1532114839466,12,1,-4,-24,-9,-1,17,6
1532114839471,1,0,2,-7,-2,-2,-1,-3
1532114839476,1,-2,-4,-2,1,-3,-2,-4
1532114839481,0,1,-1,-25,-4,-3,2,2
1532114839486,5,0,2,42,9,2,-4,-3
1532114839491,17,3,1,-5,-8,-2,10,5
1532114839496,26,-3,-3,-6,2,-1,-10,9
1532114839501,-52,-6,3,-5,-7,1,-6,-16
1532114839506,3,-3,-6,-2,7,-1,-1,0
1532114839511,-6,5,2,-9,0,1,4,-4
1532114839516,13,-1,-1,4,-6,2,17,2
1532114839521,18,5,3,5,-4,-4,-20,0
1532114839526,0,-4,-2,-2,-5,-2,3,-1
1532114839531,-11,-1,-2,-9,3,-4,11,5
1532114839536,-3,0,1,-1,12,4,-10,-8
1532114839541,4,-2,-3,4,10,0,17,9
1532114839546,-5,3,0,-18,-2,-1,-7,-7
1532114839551,4,-1,0,7,3,0,1,-1
1532114839556,17,3,3,2,0,-2,6,3
1532114839561,-48,-4,-5,-4,6,0,-2,7
1532114839566,47,0,2,2,-3,0,-3,-4
1532114839571,-77,-5,-6,-18,-5,0,-7,-6
1532114839576,-16,2,2,12,3,-9,1,-9
1532114839581,26,-1,4,15,4,1,-22,4
1532114839586,10,-1,-1,-12,-5,-1,17,8
1532114839591,2,-3,-6,-18,1,0,-7,1
1532114839596,-7,5,8,26,-3,2,-4,-9
1532114839601,16,0,-3,-11,2,0,4,-1
1532114839606,-21,-3,-6,13,-7,-4,-10,-4
1532114839611,20,1,10,39,9,0,-5,-3
1532114839616,-14,-5,-3,-10,0,1,-4,1
1532114839621,20,0,-5,-5,-8,-1,1,-1
1532114839626,-7,2,0,-29,-7,-1,13,4
1532114839631,1,-4,-4,11,-3,-2,2,-5
1532114839636,-1,-6,-5,-16,-3,0,-5,0
1532114839641,-4,-3,-2,-10,-7,1,13,4
1532114839646,-2,5,12,3,-2,0,18,0
1532114839651,6,-1,-7,-14,2,-1,3,3
1532114839656,-10,-4,-3,22,1,-2,-17,-7
1532114839661,6,-2,1,-14,-1,-8,-3,-5
1532114839666,-3,2,2,4,1,0,-16,0
1532114839671,11,-1,-3,-18,-1,0,10,5
1532114839676,17,1,2,22,0,2,2,-7
1532114839681,-33,-5,-4,-1,-2,-1,-3,-4
1532114839686,-1,1,2,0,1,-3,-7,-2
1532114839691,-6,1,4,3,-2,2,-7,-1
1532114839696,3,-1,-11,-17,-4,0,13,5
1532114839701,18,2,1,12,2,3,14,0
1532114839706,-9,-2,-5,-13,1,-1,-10,-2
1532114839711,5,-1,-2,1,-3,-1,-9,-4
1532114839716,-39,-4,-5,-9,0,0,-14,-2
1532114839721,-7,2,4,-9,0,1,5,-6
1532114839726,-9,-3,-5,-8,4,-2,-1,-1
1532114839731,20,-1,-5,15,-3,1,5,-3
1532114839736,-1,-4,-7,2,1,-4,-4,2
1532114839741,12,-2,1,0,-2,-2,-3,-1
1532114839746,-25,1,2,-2,1,0,-7,-2
1532114839751,3,2,6,-8,0,-1,-3,-2
1532114839756,8,0,-2,1,-5,-2,-6,-3
1532114839761,-8,-2,-1,6,-2,-2,4,1
1532114839766,11,-2,-2,-8,-4,-2,-9,-2
1532114839771,-16,2,1,-2,2,-1,4,0
1532114839776,16,1,1,5,0,1,2,0
1532114839781,12,2,1,-10,-3,-1,-12,-1
1532114839786,-65,0,0,2,2,2,21,3
1532114839791,3,-4,2,-6,1,0,5,-6
1532114839796,5,-1,-2,0,0,-1,-2,-2
1532114839801,14,-4,-6,-8,-3,-1,0,0
1532114839806,4,1,1,14,-1,-1,-5,-2
1532114839811,-33,1,-1,0,0,0,5,17
1532114839816,10,-1,-4,-5,0,-2,0,-7
1532114839821,12,4,6,3,-4,1,-14,-11
1532114839826,20,-2,-2,-12,-3,-3,11,7
1532114839831,-1,-5,-10,-7,-2,1,1,-3
1532114839836,-49,-3,-1,12,2,-1,-10,-15
1532114839841,-13,-2,-2,-6,1,-2,6,0
1532114839846,16,0,3,-3,0,-3,-37,-3
1532114839851,35,5,4,1,-2,5,41,3
1532114839856,-7,-1,-6,-7,0,-5,3,1
1532114839861,-5,-5,1,17,-2,-2,-11,4
1532114839866,0,-1,-7,-5,3,1,6,-4
1532114839871,18,1,-1,-14,-6,-3,-15,4
1532114839876,-9,-6,0,4,-1,-1,-5,-3
1532114839881,6,1,-5,-14,-2,-2,10,4
1532114839886,-2,-1,4,16,2,-2,-6,1
1532114839891,-7,2,1,2,3,0,-21,-10
1532114839896,11,2,-1,-8,-3,1,13,8
1532114839901,-8,0,0,6,1,-5,-4,1
1532114839906,30,2,6,33,4,2,5,3
1532114839911,-5,-3,-1,5,-3,1,3,-5
1532114839916,-8,-3,-5,-13,6,1,8,-4
1532114839921,15,1,5,-2,-11,-1,6,4
1532114839926,15,-2,-4,-10,-1,-4,-16,-11
1532114839931,-54,2,4,15,4,1,3,11
1532114839936,9,-3,-3,-6,-4,-2,-3,-5
1532114839941,2,-2,-4,6,-10,-1,2,-1
1532114839946,10,0,1,-11,-4,-1,-16,-5
1532114839951,2,-2,0,-8,3,1,9,1
1532114839956,3,0,0,2,1,-1,-4,0
1532114839961,-7,-1,3,6,5,2,2,1
1532114839966,3,1,2,-9,-4,-2,-1,0
1532114839971,6,0,-6,0,-1,-3,-9,-3
1532114839976,-10,-5,-1,-2,0,-3,1,-4
1532114839981,42,1,-2,14,4,-1,-6,-3
1532114839986,-73,0,2,0,-2,1,4,5
1532114839991,-5,-4,-3,-7,-2,0,5,-5
1532114839996,9,3,3,4,-1,0,-3,-1
1532114840001,-14,-3,-1,-1,0,3,1,-1
1532114840006,19,1,-8,-11,-1,-4,-3,-3
1532114840011,13,2,1,22,-1,1,3,8
1532114840016,10,1,1,-1,-5,0,-2,9
1532114840021,4,-1,-1,-2,-1,0,-2,-15
1532114840026,0,-1,-2,-3,1,2,2,17
1532114840031,-59,-3,-1,-7,1,1,15,-7
1532114840036,10,-3,-3,2,-1,0,-10,-1
1532114840041,-5,-3,-1,4,1,-3,-4,2
1532114840046,18,1,3,-5,-3,0,9,-4
1532114840051,9,3,2,-8,-2,0,-3,-2
1532114840056,15,0,-3,28,-4,1,14,2
1532114840061,-10,-7,-3,-7,0,-3,-4,-3
1532114840066,2,0,-1,1,-1,0,2,1
1532114840071,-21,0,-1,-2,1,-1,-3,5
1532114840076,30,0,2,1,3,0,1,-2
1532114840081,15,1,1,-7,-2,-2,-9,-12
1532114840086,-26,-1,-1,1,-2,-4,3,-3
1532114840091,10,3,2,9,2,4,7,1
1532114840096,-7,-5,-8,-15,-4,0,4,0
1532114840101,17,-2,-3,6,-1,-2,-4,-2
1532114840106,44,1,2,-10,-3,-2,-6,5
1532114840111,-44,-1,-3,7,1,-1,5,-1
1532114840116,6,1,5,-7,-3,-2,-13,-12
1532114840121,11,-3,-8,-5,-1,-1,9,8
1532114840126,-24,-7,-5,-6,-5,-1,-1,-8
1532114840131,13,0,-1,8,-1,-1,2,5
1532114840136,-7,0,-2,-4,1,0,-1,-4
1532114840141,13,4,5,0,-2,-1,-1,4
1532114840146,2,0,2,-4,-1,0,1,-2
1532114840151,9,-1,-1,0,-3,-2,-4,-1
1532114840156,-23,-3,-2,2,3,-2,-8,-5
1532114840161,11,3,1,-5,-1,2,7,4
1532114840166,-18,-3,0,4,2,-1,0,14
1532114840171,0,-4,-7,-5,-2,-3,-5,-5
1532114840176,22,2,1,-9,-7,0,-9,-2
1532114840181,-22,-6,2,14,4,0,7,7
1532114840186,16,5,2,5,-1,-2,-4,-12
1532114840191,-25,-2,1,-7,0,-2,11,5
1532114840196,0,0,-1,-1,-1,-1,0,2
1532114840201,8,2,-4,-5,-6,0,4,6
1532114840206,7,2,2,2,-2,0,-20,-10
1532114840211,4,-1,-1,3,-1,-1,1,-1
1532114840216,-11,0,1,7,3,0,6,2
1532114840221,53,-1,-5,-5,1,-1,1,-5
1532114840226,-32,-5,-4,-6,-3,-4,-12,11
1532114840231,1,0,0,-7,-6,1,1,-11
1532114840236,-15,2,2,7,9,0,-2,7
1532114840241,-23,-3,-2,-2,1,-4,-2,-8
1532114840246,41,2,-1,-2,2,0,12,-3
1532114840251,-38,-2,2,13,-3,-2,-7,11
1532114840256,-6,1,0,-13,-6,4,3,1
1532114840261,14,-2,1,1,-5,-2,-3,0
1532114840266,2,-4,-5,-18,-2,-4,-3,-5
1532114840271,15,0,-1,11,4,0,-4,-2
1532114840276,-15,-3,-5,5,3,-3,-2,-8
1532114840281,13,3,-1,-11,0,-1,-5,6
1532114840286,-15,0,1,14,-9,2,-2,-4
1532114840291,38,0,-1,-1,3,-1,-1,-2
1532114840296,-17,-4,-3,-9,-2,-3,-13,2
1532114840301,-25,1,1,-2,-4,0,1,-11
1532114840306,-5,-6,-9,-5,2,-1,6,2
1532114840311,-7,-2,-1,5,2,-3,-5,-7
1532114840316,20,1,5,11,-3,1,-2,-7
1532114840321,0,-6,-5,-32,-2,-4,-14,2
1532114840326,2,3,10,30,1,2,6,0
1532114840331,-3,1,-1,-4,-2,0,-6,1
1532114840336,5,0,-2,0,-2,-1,0,0
1532114840341,-9,-2,-4,-19,-1,1,0,-4
1532114840346,18,0,2,21,0,0,5,-3
1532114840351,-30,-5,-5,-5,4,-2,-8,-13
1532114840356,-18,-4,5,8,-3,0,-2,-5
1532114840361,21,-1,0,-7,1,-3,-1,3
1532114840366,-8,0,-2,-17,0,0,2,-1
1532114840371,-3,1,0,19,5,1,-6,-1
1532114840376,-9,-1,0,-15,0,-2,15,5
1532114840381,6,1,-1,-2,-3,2,18,4
1532114840386,-2,-2,-3,7,-2,-1,0,-2
1532114840391,9,-2,5,1,2,-2,1,3
1532114840396,-2,1,-5,-12,0,1,-2,-2
1532114840401,-5,-3,-3,-3,-3,-1,-6,-1
1532114840406,-4,0,-1,-2,-1,-1,6,-3
1532114840411,7,-1,-1,7,-1,5,-4,-1
1532114840416,-6,-1,1,-4,0,0,-8,-1
1532114840421,5,-2,3,2,-1,-1,-1,1
1532114840426,-8,-3,-4,0,0,-1,-3,-3
1532114840431,7,-1,-3,-1,-1,-2,4,1
1532114840436,0,3,-1,2,1,0,0,2
1532114840441,43,0,2,-4,-2,-3,-10,-7
1532114840446,-34,-6,-3,-4,0,2,6,7
1532114840451,-65,-1,-1,-17,-4,0,1,-8
1532114840456,1,3,2,19,3,1,12,2
1532114840461,1,0,-3,-5,1,1,0,-1
1532114840466,3,-3,-1,2,-1,-1,-4,-4
1532114840471,28,-1,-3,1,-2,-4,-1,3
1532114840476,-7,0,-4,-11,-3,1,-8,-2
1532114840481,-20,0,1,-1,1,0,3,2
1532114840486,15,2,3,4,-6,-3,-3,1
1532114840491,5,0,-2,0,1,4,1,2
1532114840496,1,-4,-2,-3,-4,-3,-6,-2
1532114840501,-3,-1,-1,-1,-2,-1,1,2
1532114840506,55,2,0,0,-3,-1,1,-8
1532114840511,-59,-10,-5,-3,5,-4,-3,5
1532114840516,17,0,-2,3,1,0,-15,-4
1532114840521,24,2,1,6,-1,0,5,1
1532114840526,-17,-1,-2,-12,-2,-1,-4,-1
1532114840531,5,1,1,4,-3,-2,0,-5
1532114840536,-7,-4,-5,-5,1,-4,-3,-4
1532114840541,16,2,4,14,-1,1,0,4
1532114840546,-22,-1,-1,-8,-1,-4,-1,4
1532114840551,13,1,-4,-4,-1,2,5,1
1532114840556,-22,1,-3,3,4,0,-2,-2
1532114840561,9,2,-1,-3,-4,-1,-1,2
1532114840566,13,-2,3,3,2,0,0,2
1532114840571,-38,-1,3,-5,-1,1,0,-11
1532114840576,27,2,-1,2,-4,2,-12,8
1532114840581,-24,-1,-4,-2,4,0,30,6
1532114840586,-34,-5,-6,1,4,-5,-8,-2
1532114840591,9,-2,0,-4,-7,-2,-1,1
1532114840596,5,3,1,0,-1,-2,-8,-1
1532114840601,-6,1,0,-1,-2,4,-3,-2
1532114840606,11,-1,-2,-1,-2,-2,3,3
1532114840611,-4,-3,0,-7,-6,4,3,2
1532114840616,-6,-2,-3,-21,4,-1,10,-1
1532114840621,-10,-5,2,21,0,-2,-17,-18
1532114840626,11,0,1,-5,3,3,13,5
1532114840631,12,0,1,1,-1,-3,-4,1
1532114840636,2,2,-3,1,5,2,1,3
1532114840641,13,-6,-7,-12,-1,-2,-5,-1
1532114840646,-39,3,0,2,0,1,-2,-5
1532114840651,-6,5,4,2,0,0,-6,-3
1532114840656,1,-5,-3,-5,-6,-1,4,0
1532114840661,19,1,-1,6,6,1,2,2
1532114840666,3,2,2,0,2,-2,-10,-7
1532114840671,-36,-2,-2,1,0,-3,1,-7
1532114840676,-12,-4,-6,-9,-1,1,-6,2
1532114840681,-8,1,-1,-4,-3,-2,2,0
1532114840686,14,2,-2,-21,-3,2,0,-3
1532114840691,1,1,7,36,1,0,10,10
1532114840696,11,-2,3,-4,-4,-5,-10,-3
1532114840701,-5,-7,-10,-11,-5,-4,-10,-8
1532114840706,-3,-1,2,5,-2,1,16,8
1532114840711,15,4,1,-11,-8,-3,2,0
1532114840716,9,2,3,-5,-2,2,1,6
1532114840721,-24,-2,3,-5,2,-2,1,-3
1532114840726,10,-1,-4,3,3,-5,-6,-10
1532114840731,65,3,0,4,1,0,-5,12
1532114840736,-71,-8,-8,3,1,2,21,-6
1532114840741,17,0,0,0,1,0,1,-5
1532114840746,-15,-7,0,2,1,-3,-6,-7
1532114840751,2,0,-1,-13,1,-1,-2,0
1532114840756,22,3,1,5,-2,1,-6,-1
1532114840761,0,1,-1,6,-2,0,8,1
1532114840766,5,-4,-4,4,-2,0,-1,3
1532114840771,-20,-2,0,-5,-2,-1,-1,-1
1532114840776,3,2,0,-3,-1,0,-4,1
1532114840781,63,1,-1,1,5,-2,0,3
1532114840786,-76,2,2,5,-2,-2,0,-1
1532114840791,-18,0,-3,-14,1,4,2,3
1532114840796,-3,-3,-6,-7,-4,-2,-3,-9
1532114840801,13,3,3,11,4,1,0,0
1532114840806,2,-3,-1,-2,-1,0,2,14
1532114840811,-1,-6,-10,-8,-1,-2,-4,-1
1532114840816,29,0,2,7,2,0,-1,-5
1532114840821,-64,1,0,-7,-7,2,-2,4
1532114840826,22,0,-3,1,-1,-2,-2,-4
1532114840831,-17,-1,5,8,2,-1,3,-4
1532114840836,19,-2,-3,-11,-4,-2,-4,0
1532114840841,7,-2,-1,1,-3,1,-1,-1
1532114840846,-19,2,-1,10,4,-2,-3,-5
1532114840851,21,3,-1,-2,-2,-4,1,1
1532114840856,6,-1,5,1,-2,-1,-1,10
1532114840861,-45,-2,-4,-4,-3,1,6,-2
1532114840866,21,0,-4,-1,-2,0,-1,5
1532114840871,8,-3,2,0,3,1,12,0
1532114840876,26,1,-7,1,-1,1,6,4
1532114840881,-26,-2,1,-3,0,-7,-15,-5
1532114840886,28,0,-3,-1,-4,5,-4,-2
1532114840891,-27,1,-1,0,2,-2,-6,-4
1532114840896,14,-1,2,3,-1,-1,1,-2
1532114840901,-9,-3,-1,-2,-2,0,2,-2
1532114840906,-1,-1,-2,3,0,-2,-2,-12
1532114840911,1,0,2,10,-4,0,-2,-19
1532114840916,22,-4,-3,-9,-4,-3,-3,4
1532114840921,-44,-1,-1,-3,-3,-2,-3,5
1532114840926,12,1,2,-3,-4,0,-1,1
1532114840931,-8,-2,0,-6,3,-1,-4,-3
1532114840936,-8,-1,-3,11,1,-2,-1,-5
1532114840941,31,-2,-1,2,-1,-2,0,1
1532114840946,-11,0,2,-7,-6,-3,-7,-3
1532114840951,20,-1,-3,-1,-2,-1,4,-1
1532114840956,12,2,2,6,2,-4,-7,-4
1532114840961,-8,-4,3,-10,-6,-2,1,6
1532114840966,10,2,0,-16,-2,-3,-11,-1
1532114840971,-28,-2,-4,-1,-5,-3,2,4
1532114840976,1,0,2,-6,7,-1,-11,-11
1532114840981,-19,-3,-4,16,1,1,18,-1
1532114840986,18,3,2,0,3,0,3,4
1532114840991,4,4,3,-3,-8,2,0,2
1532114840996,-6,0,-3,-19,-2,-2,2,2
1532114841001,1,-2,-3,4,2,1,-8,1
1532114841006,11,2,1,3,2,-1,7,6
1532114841011,2,-6,-6,-10,-8,-1,-7,-9
1532114841016,3,-1,3,-3,6,1,-4,-2
1532114841021,38,0,-3,5,-2,0,7,5
1532114841026,-37,-2,-3,-5,-2,-2,-14,-10
1532114841031,0,-3,0,6,6,1,6,3
1532114841036,7,0,-3,-14,-10,0,10,4
1532114841041,6,1,3,5,4,-3,-17,0
1532114841046,4,0,1,-11,-4,-3,2,1
1532114841051,1,-2,4,-2,-3,0,-2,-3
1532114841056,-9,-4,-2,12,10,0,1,1
1532114841061,-6,-4,-4,-15,-9,0,2,-3
1532114841066,0,2,1,14,3,-1,8,6
1532114841071,11,0,-2,-9,-5,-3,-22,-8
1532114841076,-10,0,3,12,5,0,4,5
1532114841081,0,-2,-3,-1,2,0,-1,-1
1532114841086,18,-1,-7,-36,-4,-1,7,0
1532114841091,-8,-1,5,70,10,-1,3,-3
1532114841096,-4,2,-2,-43,-18,-1,-7,0
1532114841101,6,-2,-4,5,1,0,-1,1
1532114841106,6,0,8,1,-5,2,7,4
1532114841111,1,-8,-8,-13,-2,-2,-3,-6
1532114841116,-3,-3,-2,1,6,-1,-8,-1
1532114841121,3,1,0,-16,-3,-1,5,3
1532114841126,-3,-3,-3,8,0,-2,-1,-4
1532114841131,-28,-1,0,6,-2,0,9,4
1532114841136,-15,5,1,-2,-3,0,-4,2
1532114841141,-10,-3,-3,1,9,1,0,8
1532114841146,11,-6,-9,-23,-5,-4,-6,-6
1532114841151,5,6,9,26,3,2,5,3
1532114841156,0,-1,-1,12,-6,-2,-3,-3
1532114841161,3,2,-1,-12,7,0,-3,-3
1532114841166,-2,1,0,-16,-6,0,-1,3
1532114841171,-4,-6,-2,-21,-4,-2,9,0
1532114841176,12,0,0,21,4,0,7,2
1532114841181,-1,2,-3,-19,-1,0,7,1
1532114841186,2,2,4,45,6,-2,-5,-4
1532114841191,3,-2,-5,-17,-3,-4,-10,-7
1532114841196,3,-2,-2,0,4,0,1,-1
1532114841201,-9,0,2,-5,-3,-1,-1,-4
1532114841206,-8,-1,-1,-1,-3,0,1,1
1532114841211,3,-3,0,3,-1,3,-2,-1
1532114841216,-6,-1,-3,9,8,-2,-5,-5
1532114841221,3,1,1,4,-5,1,-1,0
1532114841226,5,-2,-1,-4,-4,-3,-4,3
1532114841231,1,4,3,13,4,4,9,-2
1532114841236,11,1,1,-25,-11,1,1,0
1532114841241,-22,1,1,-10,2,-3,0,-1
1532114841246,3,-3,-1,13,-2,1,-5,-2
1532114841251,-2,-6,-3,-9,-3,-3,9,7
1532114841256,-5,-2,-2,24,0,-1,-2,-1
1532114841261,29,0,-1,-7,-6,-1,-5,-3
1532114841266,-32,-4,-2,1,0,-2,-10,-6
1532114841271,-6,-2,-4,9,4,-1,4,3
1532114841276,8,1,-2,-3,4,-1,-4,-5
1532114841281,6,2,7,-20,-12,2,3,1
1532114841286,2,-1,-5,-4,-1,0,-6,-1
1532114841291,4,-3,1,11,3,-4,-6,-3
1532114841296,-4,3,4,-6,0,1,7,0
1532114841301,-4,2,-3,2,3,-2,1,-3
1532114841306,3,-5,-2,-12,-4,0,3,-1
1532114841311,23,4,0,5,-1,0,-3,-8
1532114841316,-39,-9,-9,-8,2,-3,-3,-10
1532114841321,-9,-9,-5,-6,-1,-1,-5,-2
1532114841326,12,2,6,10,0,-1,6,3
1532114841331,5,-4,-7,-5,-2,-2,-7,-6
1532114841336,29,2,1,2,-5,-3,-4,6
1532114841341,-42,-5,-7,-22,0,1,-5,-8
1532114841346,6,0,1,22,0,-1,-16,-9
1532114841351,-1,0,2,2,2,-2,16,6
1532114841356,5,-1,4,-14,-5,-1,-3,0
1532114841361,3,0,2,10,0,-2,-3,0
1532114841366,2,-2,-6,-9,0,2,9,3
1532114841371,-8,0,-2,-2,-2,-1,-7,-1
1532114841376,-5,-3,0,1,0,-1,-3,-1
1532114841381,6,-1,-4,12,0,0,2,1
1532114841386,2,5,5,-10,-9,1,4,4
1532114841391,-1,-3,-2,-5,0,1,4,-5
1532114841396,-5,-3,-6,0,3,-4,-11,1
1532114841401,7,0,1,7,-1,0,-4,-1
1532114841406,0,-2,0,-9,2,-1,2,2
1532114841411,-8,-2,-2,5,-2,-1,5,7
1532114841416,8,3,2,-2,-1,2,0,-1
1532114841421,-17,1,1,3,-7,-2,-7,5
1532114841426,7,-2,-2,2,7,-3,1,0
1532114841431,-3,0,-1,-6,-9,0,7,-2
1532114841436,-4,-1,1,-1,2,0,-1,0
1532114841441,11,0,-1,0,3,5,3,-1
1532114841446,-2,2,3,-5,-7,-6,1,4
1532114841451,-8,-2,-2,0,7,0,-12,-4
1532114841456,6,0,0,-2,-9,-5,0,2
1532114841461,2,-3,-2,0,9,0,-3,-8
1532114841466,15,5,7,9,-3,-5,-32,1
1532114841471,-27,-3,-8,-20,3,8,10,-8
1532114841476,5,3,5,32,0,0,4,1
1532114841481,0,-1,2,-4,-5,-1,11,4
1532114841486,-13,-6,-3,-17,1,2,-4,-5
1532114841491,6,0,0,-6,-3,-4,-7,6
1532114841496,7,-5,-8,-15,-1,2,1,0
1532114841501,-6,-3,-3,-11,-8,-3,-6,-8
1532114841506,8,0,-2,28,2,3,6,-8
1532114841511,5,-4,1,-3,2,-1,-13,-3
1532114841516,2,1,-4,-20,4,-1,-6,-4
1532114841521,5,0,4,27,0,-2,19,8
1532114841526,3,2,0,-25,-6,0,8,0
1532114841531,-21,-4,-2,13,5,-1,-3,-8
1532114841536,8,-2,-1,-7,-5,0,3,-1
1532114841541,-27,0,-1,-3,0,-1,-11,-6
1532114841546,12,1,-3,15,2,0,9,12
1532114841551,9,2,4,-3,-2,0,-11,3
1532114841556,-11,-3,-2,-13,-2,-3,-4,1
1532114841561,37,1,-4,10,-1,-1,-2,2
1532114841566,-27,-2,-1,-7,2,2,10,-3
1532114841571,-16,0,0,9,-3,-2,-9,0
1532114841576,-6,-1,1,-1,-3,-2,-2,-2
1532114841581,15,-1,-4,-15,-3,1,-5,-3
1532114841586,-9,-1,0,10,-1,-1,15,4
1532114841591,11,-2,0,-10,-4,-4,-3,-3
1532114841596,14,-2,-2,-3,4,2,4,-13
1532114841601,-24,1,3,9,0,-3,-17,4
1532114841606,15,-1,3,-1,3,0,-3,2
1532114841611,-6,1,0,-14,-5,-2,-1,0
1532114841616,7,-1,0,8,-2,1,14,1
1532114841621,-32,1,1,-12,-2,0,4,5
1532114841626,10,-1,-5,-11,2,-4,-10,-7
1532114841631,12,-2,3,26,6,0,-1,3
1532114841636,-18,-8,-11,3,-2,-3,-10,-4
1532114841641,28,1,0,-21,-7,-2,1,-1
1532114841646,-19,-1,0,-2,0,-1,5,5
1532114841651,-4,3,1,2,0,-1,-5,-4
1532114841656,18,6,6,3,1,3,-2,5
1532114841661,-22,-3,-7,-2,0,-2,-3,8
1532114841666,4,0,-1,8,1,3,13,-1
1532114841671,-6,-2,3,-10,-7,-4,-20,-12
1532114841676,11,-3,-4,1,-4,-3,7,12
1532114841681,-12,-1,0,4,1,0,0,-8
1532114841686,-22,1,1,4,3,1,-2,-6
1532114841691,12,-6,-6,1,0,-1,3,2
1532114841696,-15,2,0,-15,1,1,-9,1
1532114841701,30,1,7,45,2,-1,1,0
1532114841706,-11,-1,-2,-14,-5,-3,-5,-3
1532114841711,1,0,-1,-8,-5,0,7,1
1532114841716,-10,-3,-5,-7,-9,-2,-2,-6
1532114841721,2,-3,0,-3,15,0,1,-3
1532114841726,-18,-1,0,5,-3,-1,-6,0
1532114841731,17,2,-1,13,4,-2,2,4
1532114841736,7,-2,-3,-11,-8,1,4,-3
1532114841741,-5,2,2,6,-5,3,29,7
1532114841746,8,0,-5,-15,-5,-3,-12,-5
1532114841751,-8,-1,4,0,5,-1,3,1
1532114841756,-2,-1,-1,5,4,-1,-3,-3
1532114841761,23,0,5,-11,-7,-2,-5,-5
1532114841766,-44,-1,-4,1,-2,2,7,-9
1532114841771,16,-4,-8,-10,-1,-4,-2,0
1532114841776,-12,-3,0,13,4,-1,-6,-4
1532114841781,6,1,-3,-10,-4,0,-1,2
1532114841786,20,1,0,-10,-1,0,-2,3
1532114841791,-5,2,0,13,-2,2,-2,3
1532114841796,-15,0,4,10,2,0,1,-2
1532114841801,-6,-8,-9,-7,-1,-3,-10,-8
1532114841806,20,0,4,-5,-9,-1,-5,2
1532114841811,1,5,4,-4,-4,0,5,-1
1532114841816,-7,-5,-3,12,10,0,19,7
1532114841821,-1,-2,-5,-18,-8,1,3,-3
1532114841826,5,-1,-3,1,6,-2,-5,2
1532114841831,9,-1,-1,6,-1,0,0,0
1532114841836,-33,8,8,0,0,2,-4,1
1532114841841,1,0,-3,7,0,-3,-6,-3
1532114841846,5,-6,-6,-10,-1,-1,2,1
1532114841851,-9,0,-1,13,-5,0,3,0
1532114841856,7,-2,-5,-4,-1,-3,-4,-6
1532114841861,0,-3,-5,-16,0,-1,-4,-3
1532114841866,-5,2,5,27,-2,0,-6,-4
1532114841871,4,0,-2,-23,-4,-1,10,7
1532114841876,-2,-1,-1,-12,-2,-1,0,-1
1532114841881,-4,3,2,12,2,1,-2,1
1532114841886,11,-2,-4,-25,0,-3,-5,-1
1532114841891,-10,-5,-6,-7,-6,1,8,0
1532114841896,2,-3,3,6,3,0,-6,-4
1532114841901,-3,2,-1,-1,0,-1,-10,-6
1532114841906,8,1,0,5,0,2,-8,-1
1532114841911,-6,1,2,-3,-3,-4,0,4
1532114841916,-1,0,0,0,-2,-3,-7,-4
1532114841921,3,-4,-4,-5,2,-2,7,-3
1532114841926,-1,-5,-3,0,-1,-2,-12,-2
1532114841931,-10,-2,-1,24,0,-2,-3,-1
1532114841936,3,-3,-5,2,-8,-3,1,1
1532114841941,-5,2,3,-4,11,5,3,-3
1532114841946,5,0,-1,0,-4,-3,-8,-6
1532114841951,-15,-1,-6,-3,5,3,-2,2
1532114841956,-1,-5,-2,-27,-5,-2,-6,-6
1532114841961,64,5,0,23,-3,0,5,7
1532114841966,-87,-5,0,9,1,2,6,-7
1532114841971,9,-2,-1,-15,-3,-9,-14,-2
1532114841976,2,-1,0,11,2,1,5,-1
1532114841981,-10,-5,-3,-11,-5,-1,-7,-4
1532114841986,21,-1,-6,-7,-2,0,-4,-2
1532114841991,7,-2,5,-1,-3,-4,3,0
1532114841996,-8,1,-5,-1,2,1,6,3
1532114842001,-3,2,-3,-12,-4,-3,2,2
1532114842006,9,1,5,5,4,1,-2,-1
1532114842011,-3,-2,-7,0,4,2,-1,-1
1532114842016,3,-4,1,2,-4,0,1,-2
1532114842021,-11,1,1,-5,-3,1,9,3
1532114842026,2,-3,-2,-7,-2,-4,3,-1
1532114842031,7,0,1,1,-1,0,0,1
1532114842036,-2,1,2,1,3,-2,-2,-3
1532114842041,-10,-4,-3,15,-1,1,-5,-3
1532114842046,2,-1,0,0,-5,1,-5,1
1532114842051,10,2,1,-6,-2,2,16,6
1532114842056,15,-2,-4,-6,-3,-1,3,2
1532114842061,-25,-3,-1,-3,1,-3,-9,-12
1532114842066,11,1,-3,-9,-1,-4,2,8
1532114842071,10,1,4,-3,-7,-4,-13,-3
1532114842076,-20,-4,-4,4,-4,1,3,2
1532114842081,-4,-7,-6,-9,7,-2,-5,-2
1532114842086,-1,3,1,8,0,0,-3,-13
1532114842091,13,-1,-6,4,-12,-2,-9,8
1532114842096,3,2,7,-7,2,0,11,-5
1532114842101,-8,-1,1,1,3,-3,-9,2
1532114842106,-6,-1,-2,-2,3,1,-6,-2
1532114842111,0,0,0,3,1,-6,-10,-3
1532114842116,1,-6,-4,3,-4,2,2,-5
1532114842121,-4,3,2,-3,12,2,-14,-5
1532114842126,11,0,2,4,-27,-6,14,5
1532114842131,-4,1,0,-8,6,-1,-20,-4
1532114842136,-5,-2,-3,9,1,-2,12,0
1532114842141,-2,1,-2,-8,-6,1,-12,-4
1532114842146,4,-6,-3,-5,-6,-4,-13,2
1532114842151,-25,3,4,7,8,1,9,-2
1532114842156,14,0,-3,11,-6,-7,-7,-5
1532114842161,-16,-3,-1,-20,-9,-6,-15,-11
1532114842166,18,0,4,24,-7,5,36,15
1532114842171,-15,-4,-4,-15,1,-3,19,-5
1532114842176,33,-3,-3,-1,6,0,-29,-1
1532114842181,-29,3,3,7,0,1,21,7
1532114842186,-16,-2,-4,-9,3,-4,-35,-7
1532114842191,16,-2,-4,-3,-8,6,28,-4
1532114842196,-12,0,3,12,1,3,7,5
1532114842201,13,0,0,-3,1,0,4,0
1532114842206,-1,-3,-6,-28,1,-3,-9,-2
1532114842211,-2,-1,1,37,-5,3,2,8
1532114842216,-15,-1,-2,-3,4,-4,-10,-7
1532114842221,10,2,1,-4,-2,-1,15,7
1532114842226,-3,4,6,-9,2,2,-3,-2
1532114842231,4,-4,-4,-9,-2,-1,-3,-2
1532114842236,-9,-1,1,9,-3,-3,-9,-2
1532114842241,8,-1,-5,-6,-2,-8,-14,-7
1532114842246,0,2,-1,11,9,1,7,1
1532114842251,1,-4,1,-8,3,1,-4,3
1532114842256,-6,2,2,-6,-6,2,11,2
1532114842261,5,-3,0,15,12,5,9,0
1532114842266,14,1,0,3,0,1,-4,-2
1532114842271,-36,-2,0,-13,-7,-2,-6,7
1532114842276,3,-2,-3,12,11,1,3,0
1532114842281,10,2,2,-11,-8,-2,-19,0
1532114842286,4,-4,-3,1,-1,5,29,5
1532114842291,-14,-7,-6,6,5,2,1,-4
1532114842296,-4,0,1,-18,-7,-2,4,-2
1532114842301,-4,0,-1,2,-2,-3,-9,-1
1532114842306,-10,0,-1,-3,-2,1,0,4
1532114842311,14,0,2,-1,-15,0,16,1
1532114842316,5,-1,-3,-5,8,0,3,0
1532114842321,-21,-1,0,0,-1,-6,-7,-4
1532114842326,-8,4,2,-16,-13,-3,2,13
1532114842331,11,0,3,23,17,2,0,8
1532114842336,-13,-7,-3,2,-3,-1,-15,-12
1532114842341,27,4,2,-3,4,2,23,1
1532114842346,-11,0,0,-1,-3,0,2,2
1532114842351,0,1,-3,-18,-14,-1,-2,-4
1532114842356,-14,-1,-2,4,4,-3,-11,-1
1532114842361,8,-1,0,1,1,1,1,-1
1532114842366,-3,-1,0,3,-2,-4,-16,-9
1532114842371,0,-1,0,10,19,1,19,6
1532114842376,2,5,2,-7,-20,0,-6,-9
1532114842381,3,-1,2,-7,-1,7,-11,-3
1532114842386,1,-8,-5,6,0,-5,-4,-3
1532114842391,1,-4,-7,-7,-5,-4,14,2
1532114842396,-3,0,0,-2,5,-1,-8,2
1532114842401,1,3,1,3,2,-1,9,2
1532114842406,0,0,2,2,-1,2,0,0
1532114842411,2,-1,1,4,17,-3,-15,-4
1532114842416,-3,0,-2,-6,0,3,0,0
1532114842421,-2,-2,-5,-17,-6,-5,-1,-2
1532114842426,5,-1,3,30,2,1,8,-1
1532114842431,0,-1,-1,-8,-6,-4,-9,-1
1532114842436,-3,-3,-1,1,3,-1,-1,-2
1532114842441,0,-4,-2,2,3,-2,-7,0
1532114842446,1,-6,-6,-12,-3,-2,3,1
1532114842451,2,-3,-3,-4,-9,-1,-4,-2
1532114842456,-9,0,2,-2,1,-1,9,-1
1532114842461,2,3,1,3,-4,-2,-4,0
1532114842466,10,6,5,-3,1,2,-6,-2
1532114842471,-22,-7,-4,3,-7,0,19,9
1532114842476,12,-2,-5,-2,-2,-9,-5,-8
1532114842481,-9,-5,-4,5,0,0,15,3
1532114842486,-3,0,0,-4,4,-2,-2,-4
1532114842491,10,3,6,-2,-6,2,-6,-3
1532114842496,-10,2,-2,-3,-3,-3,-7,3
1532114842501,7,-2,1,2,1,0,-1,2
1532114842506,-6,1,1,2,0,-4,-3,-6
1532114842511,11,4,0,1,-2,0,-15,-4
1532114842516,-5,-6,-1,2,2,-2,2,0
1532114842521,4,1,-2,-2,-4,0,-14,-6
1532114842526,-9,-3,-3,-7,-1,-4,-6,-1
1532114842531,6,0,-3,-3,-1,-3,-9,-4
1532114842536,2,2,6,7,4,4,4,1
1532114842541,-2,-2,4,-1,-4,-7,-12,2
1532114842546,37,5,-6,-1,1,1,7,-1
1532114842551,-60,-6,-1,-7,-1,3,5,3
1532114842556,5,-7,-6,7,2,-3,5,-4
1532114842561,13,-2,-3,-5,-2,-4,-15,-6
1532114842566,-16,0,2,1,0,0,6,0
1532114842571,7,0,-2,0,-4,-2,4,1
1532114842576,-43,0,2,-1,0,2,-7,-3
1532114842581,6,1,-1,-3,-2,-2,16,-3
1532114842586,-2,-3,-1,-4,0,1,4,-1
1532114842591,15,3,-3,0,1,-3,-8,-1
1532114842596,7,2,2,-5,-2,-1,5,2
1532114842601,2,-1,-2,-5,-1,-1,-6,-10
1532114842606,-21,-4,0,14,2,1,-5,12
1532114842611,1,-2,-1,-11,-2,-2,-1,-9
1532114842616,7,-2,-5,-4,-1,-1,-4,1
1532114842621,-7,0,1,3,1,0,1,-1
1532114842626,3,1,-2,-17,0,-1,-20,-7
1532114842631,-9,-3,0,13,-1,2,17,-4
1532114842636,11,3,-3,-6,0,2,-3,5
1532114842641,-11,-4,-6,-15,-1,-3,-12,-4
1532114842646,0,2,6,28,3,3,6,4
1532114842651,11,0,0,-6,0,-6,-8,2
1532114842656,-3,-4,-3,-2,-1,0,4,-4
1532114842661,0,-1,4,-6,-2,1,1,4
1532114842666,12,0,2,-2,-2,0,2,6
1532114842671,5,-6,-10,-6,-4,-1,7,0
1532114842676,-19,-5,-5,-1,3,-2,3,-3
1532114842681,12,3,3,21,-2,-2,-15,2
1532114842686,-1,2,1,-20,-1,-2,26,7
1532114842691,9,4,7,30,-1,0,-7,-3
1532114842696,8,-1,1,-7,0,0,-4,-1
1532114842701,-18,-4,-9,-11,-5,-1,1,0
1532114842706,8,1,0,-1,-5,-4,-8,-13
1532114842711,7,-1,-2,-5,0,0,-1,3
1532114842716,2,2,0,9,2,-1,-2,-6
1532114842721,-13,3,5,7,0,0,8,22
1532114842726,7,-5,-4,-14,-8,-1,-1,-24
1532114842731,5,-1,-2,-19,1,-1,-7,1
1532114842736,-3,0,7,7,-12,2,-2,51
1532114842741,6,1,1,1,14,0,4,-90
1532114842746,-5,-2,-6,5,4,0,1,14
1532114842751,-1,2,-1,-4,0,3,27,2
1532114842756,15,2,-4,-8,1,-2,-2,-6
1532114842761,-19,-9,2,8,-5,-1,-3,26
1532114842766,-1,-4,-7,-6,-3,-2,-8,2
1532114842771,4,1,2,1,-3,1,-5,-11
1532114842776,16,-1,-7,-9,-2,0,1,-3
1532114842781,16,-1,3,11,-4,-1,5,11
1532114842786,-25,-2,1,-1,5,-2,-8,-8
1532114842791,10,1,2,-6,-5,-3,-8,11
1532114842796,25,1,-2,8,-1,0,1,-26
1532114842801,-31,-5,-6,-8,0,-3,-10,17
1532114842806,11,-2,-4,-23,-4,-2,-1,4
1532114842811,12,-1,-1,31,-2,1,-3,6
1532114842816,-18,-1,0,-11,-4,-1,-6,-10
1532114842821,-9,0,-4,6,2,-2,-2,-2
1532114842826,-2,1,-1,-15,-1,2,-1,-5
1532114842831,-6,1,6,-4,-3,-3,4,8
1532114842836,-9,-3,-2,9,5,0,4,-3
1532114842841,16,0,-4,-1,-2,1,-4,5
1532114842846,-7,1,0,-12,-6,-2,2,6
1532114842851,-2,1,2,-1,0,-1,-11,-9
1532114842856,-4,1,5,5,-2,-4,3,5
1532114842861,-3,-2,-6,-6,0,2,0,0
1532114842866,19,1,3,18,4,0,3,-8
1532114842871,-15,-5,-8,-16,-2,-2,-3,0
1532114842876,22,3,1,-1,-2,-3,-1,-5
1532114842881,-18,-1,3,7,0,0,4,14
1532114842886,0,-1,-5,6,2,-1,0,-8
1532114842891,-9,-3,-3,1,-1,-2,-5,-1
1532114842896,-3,-2,-2,-12,0,-1,-6,-5
1532114842901,25,-1,-4,5,-4,0,-7,-4
1532114842906,-7,-1,3,9,1,-2,10,4
1532114842911,-4,1,-3,-10,1,-4,-4,-2
1532114842916,-4,2,4,11,-1,-1,-2,1
1532114842921,-1,-2,-7,-4,-2,-1,5,-4
1532114842926,5,0,1,-1,-3,1,-5,2
1532114842931,-27,-3,-1,-1,0,-2,-8,-12
1532114842936,19,2,2,-2,0,3,4,-3
1532114842941,-22,-8,-3,-14,0,-1,-5,-3
1532114842946,3,-1,-1,29,-1,1,6,3
1532114842951,8,-1,-1,-9,-3,1,1,2
1532114842956,21,-3,-1,-3,-2,-2,-7,-2
1532114842961,-19,0,-4,-1,1,0,-2,-1
1532114842966,-1,4,8,-11,4,1,22,12
1532114842971,9,0,-3,5,0,1,-6,-7
1532114842976,-21,-6,-8,2,-4,-3,0,0
1532114842981,15,4,3,-7,-1,-1,-2,3
1532114842986,-11,-3,-3,-4,-2,-3,-10,-3
1532114842991,2,3,6,8,-2,-1,-3,-3
1532114842996,-13,-3,-3,1,0,0,6,-1
1532114843001,15,2,1,-5,-4,0,5,14
1532114843006,4,-4,-5,-11,0,-2,-10,-9
1532114843011,-20,0,4,25,-1,-3,8,1
1532114843016,35,2,0,-6,-2,-1,-10,-2
1532114843021,-56,-2,0,-1,-1,0,9,5
1532114843026,8,-1,-1,-3,1,1,-15,-3
1532114843031,6,-4,-4,1,0,2,5,0
1532114843036,-13,0,1,-2,2,-1,5,5
1532114843041,26,4,4,5,-3,-3,-4,-8
1532114843046,-8,-1,-1,-3,-2,1,-18,-2
1532114843051,-34,-5,-5,-21,1,-2,8,-4
1532114843056,-9,3,3,22,1,2,-1,-7
1532114843061,-1,-1,-2,-5,-2,-3,-3,-8
1532114843066,0,3,-1,4,-1,-1,14,2
1532114843071,19,-1,0,-21,-1,0,-6,-1
1532114843076,-14,-4,-2,9,1,-2,0,0
1532114843081,5,-2,0,6,0,-2,-3,-4
1532114843086,6,2,1,14,-1,-1,1,3
1532114843091,10,1,-3,-11,-4,-1,0,0
1532114843096,-24,-4,-2,-16,-1,0,7,3
1532114843101,33,-4,-1,1,0,-2,-4,-9
1532114843106,-42,-6,-10,0,0,-3,-1,-2
1532114843111,12,2,1,7,4,1,2,2
1532114843116,-13,1,2,-8,-3,-2,-11,-3
1532114843121,9,1,3,-1,-2,1,0,-5
1532114843126,-1,-2,-2,-16,-3,2,10,0
1532114843131,6,-1,0,24,0,-5,-13,1
1532114843136,-1,-3,-2,-3,-1,-1,2,0
1532114843141,-21,-1,-1,-6,-2,6,-2,-2
1532114843146,12,-2,-1,2,0,-3,15,9
1532114843151,35,1,-1,-5,-2,1,-7,-8
1532114843156,-22,-1,3,-3,1,0,21,6
1532114843161,-23,-4,-5,5,3,-3,-2,-1
1532114843166,14,2,-3,-2,-3,-1,-9,-14
1532114843171,13,1,2,-15,-3,0,-1,7
1532114843176,-20,-7,-5,3,0,-3,-8,-5
1532114843181,16,0,-3,-6,-1,0,0,6
1532114843186,-2,-2,0,7,1,-1,-1,-3
1532114843191,-11,0,1,-5,1,0,-1,0
1532114843196,10,1,-2,-4,-4,-1,1,-1
1532114843201,5,4,0,0,-1,-2,0,3
1532114843206,-2,-1,3,1,1,-1,-5,3
1532114843211,-3,1,0,9,1,-2,-9,-6
1532114843216,-25,-2,1,-7,-4,1,-2,4
1532114843221,14,2,-3,-8,1,-4,-6,-1
1532114843226,-2,1,1,-8,2,-1,-5,-9
1532114843231,-13,-4,-1,16,-1,1,3,1
1532114843236,-7,4,6,1,0,0,-4,-1
1532114843241,5,0,0,-3,1,-1,-2,-1
1532114843246,-8,-3,-1,0,-5,1,17,3
1532114843251,33,0,-3,-7,-3,0,13,21
1532114843256,12,-1,1,1,3,-2,-9,-9
1532114843261,-53,1,3,-1,-1,-3,-9,-4
1532114843266,-18,0,-1,1,2,4,3,-5
1532114843271,0,-1,-3,-6,-3,0,-2,-4
1532114843276,-1,0,0,6,4,1,2,0
1532114843281,18,0,2,-3,-1,-4,0,5
1532114843286,1,-2,0,-7,-7,-2,-7,5
1532114843291,-14,-3,-5,-6,3,-2,-5,-8
1532114843296,1,1,0,-5,0,2,5,-1
1532114843301,3,2,6,14,1,0,-10,0
1532114843306,5,-3,-2,-7,-1,0,2,-1
1532114843311,29,-3,-3,-6,-3,-2,2,-2
1532114843316,-33,-6,-5,-5,2,-4,-3,-10
1532114843321,11,0,-2,-6,0,0,5,5
1532114843326,0,1,4,2,-1,-2,-4,-2
1532114843331,9,0,-1,-4,-2,-2,-13,-3
1532114843336,1,-1,-1,6,-3,-3,15,7
1532114843341,-19,-4,-3,-8,3,-1,1,-7
1532114843346,-5,-3,-1,-1,1,-3,-2,-1
1532114843351,7,0,-2,-1,-1,1,-3,-3
1532114843356,-26,1,-1,-5,0,0,-4,-1
1532114843361,3,-2,-1,5,-3,-2,4,-11
1532114843366,17,-3,-3,-1,1,-1,-3,1
1532114843371,-24,0,2,-4,-5,0,5,-2
1532114843376,18,0,0,2,-2,-4,-11,-2
1532114843381,8,4,2,-6,1,2,-9,-5
1532114843386,-34,0,0,2,0,-3,-10,-9
1532114843391,-27,-3,-5,3,2,-5,0,9
1532114843396,1,-5,-4,-11,-2,2,-2,1
1532114843401,10,1,0,1,1,-1,5,2
1532114843406,21,1,1,-11,-1,-1,-4,-3
1532114843411,-21,0,4,18,0,0,0,-2
1532114843416,1,0,-1,2,-4,-1,-7,-3
1532114843421,7,-3,-7,-14,-4,-1,-2,6
1532114843426,17,-1,8,26,0,1,4,4
1532114843431,-15,-3,-6,-10,1,-1,0,-13
1532114843436,30,1,-1,3,0,-2,0,4
1532114843441,4,2,6,1,-3,0,0,1
1532114843446,-23,0,-7,-13,0,-2,-2,-2
1532114843451,4,-1,2,9,0,1,11,0
1532114843456,-5,-2,2,8,1,-2,2,-2
1532114843461,11,-1,-2,-4,-2,-2,-8,-1
1532114843466,9,1,-1,0,0,1,0,1
1532114843471,5,-1,2,-11,-4,0,-3,-5
1532114843476,1,-4,-4,-3,-2,-1,-9,-10
1532114843481,-5,-6,-3,1,1,1,10,7
1532114843486,0,1,-1,-5,1,1,0,-5
1532114843491,-4,-5,-3,6,-1,-1,-3,-5
1532114843496,12,2,5,12,-2,0,-5,-1
1532114843501,-11,0,2,-10,-1,-2,0,-1
1532114843506,6,-5,-8,11,1,0,1,-2
1532114843511,8,6,4,-10,-4,0,9,9
1532114843516,7,-1,-3,-2,-1,-2,-2,-1
1532114843521,-39,-5,-2,10,0,1,-5,-3
1532114843526,-4,0,-3,-10,-1,-1,1,2
1532114843531,13,-1,-6,-7,0,-3,-11,-3
1532114843536,-26,-1,0,-2,0,-1,3,3
1532114843541,-9,1,8,-1,-3,-2,3,5
1532114843546,32,1,2,-7,-3,-1,-5,-1
1532114843551,-17,-4,-6,1,2,0,-5,-8
1532114843556,-7,0,-1,-6,-1,-1,2,4
1532114843561,16,1,0,17,-1,-2,3,-2
1532114843566,-10,-1,0,3,1,-2,0,-1
1532114843571,9,1,4,-3,-1,0,-1,1
1532114843576,-2,0,-2,-10,-2,-2,-1,-2
1532114843581,6,-6,-9,-8,-1,0,-4,-3
1532114843586,50,1,2,5,-4,-1,1,3
1532114843591,-89,-6,-3,-1,2,-1,-13,-5
1532114843596,-2,-4,-5,-3,4,0,8,0
1532114843601,14,1,3,2,-2,0,0,-11
1532114843606,-11,0,0,1,-1,0,3,12
1532114843611,20,1,-2,-10,-3,-2,-9,-5
1532114843616,-7,0,5,12,2,1,-5,-2
1532114843621,14,-1,-10,-11,-1,-1,0,3
1532114843626,-30,-3,1,24,1,-3,-3,-9
1532114843631,14,0,0,-13,-2,0,0,2
1532114843636,-12,-2,2,17,0,1,0,0
1532114843641,7,0,-1,-2,1,0,20,3
1532114843646,-13,-3,-6,-11,-4,-1,0,-2
1532114843651,21,-1,-4,3,-3,-1,6,1
1532114843656,-4,3,1,2,1,0,-4,-2
1532114843661,-32,-2,1,-2,3,1,-4,4
1532114843666,-15,5,2,-5,-1,0,-9,-8
1532114843671,6,-3,1,15,2,-1,11,4
1532114843676,21,-3,-5,-28,-3,-1,0,-5
1532114843681,-21,-1,3,21,-4,-2,-2,10
1532114843686,1,-3,-1,-2,0,-1,-2,-1
1532114843691,11,-2,-2,-2,-1,-1,-3,1
1532114843696,1,1,-3,-7,1,3,13,4
1532114843701,7,0,-1,11,-1,-2,-4,-4
1532114843706,7,2,6,-7,-4,0,3,-3
1532114843711,-2,-4,-6,-7,-4,-1,-1,1
1532114843716,0,-2,-3,2,-2,0,-1,1
1532114843721,-5,-3,-7,-8,1,-2,-7,-7
1532114843726,12,2,6,6,0,0,8,8
1532114843731,-9,1,-2,1,2,-4,11,1
1532114843736,-6,-2,-1,-2,0,2,-8,-10
1532114843741,10,1,-5,-10,-4,-2,-8,-1
1532114843746,-1,-2,-3,-9,-1,0,0,-1
1532114843751,13,-3,3,7,-3,-2,-7,-2
1532114843756,-26,-3,0,0,0,-1,0,13
1532114843761,25,2,1,-1,1,-2,1,2
1532114843766,-23,-4,-2,-14,2,1,7,0
1532114843771,6,1,-1,14,-2,1,0,2
1532114843776,1,-2,-5,0,-3,-1,3,-3
1532114843781,8,-1,1,-10,0,2,-1,-2
1532114843786,-5,2,2,2,-2,-1,-3,-1
1532114843791,1,1,2,-4,0,1,0,1
1532114843796,14,0,-2,6,1,-2,-2,-4
1532114843801,-21,-5,0,0,0,0,-4,-1
1532114843806,-1,-4,-4,-5,1,0,-6,-8
1532114843811,-12,2,2,-20,-2,-1,15,6
1532114843816,15,2,2,29,0,-2,-6,-2
1532114843821,-18,1,-1,0,-1,1,21,4
1532114843826,2,0,2,8,-3,0,0,-7
1532114843831,2,-4,-4,-4,3,-2,-16,-10
1532114843836,-4,0,0,-12,-1,-4,-1,0
1532114843841,15,2,1,3,0,-1,-4,-4
1532114843846,-10,-3,-2,-3,-7,4,2,0
1532114843851,-4,0,-2,-3,0,0,-1,-2
1532114843856,16,3,-1,-4,-1,2,10,7
1532114843861,-7,-2,-4,-2,0,0,-2,-9
1532114843866,-5,1,-4,-27,1,-5,-5,3
1532114843871,5,0,4,33,1,-1,-8,-3
1532114843876,11,-5,-5,-8,1,0,-4,-3
1532114843881,-8,-1,1,0,-4,-2,-4,-4
1532114843886,-11,-3,-5,-6,-1,-2,2,13
1532114843891,6,2,-1,-1,-1,2,-4,-7
1532114843896,2,-2,2,-6,2,-1,-2,-3
1532114843901,-2,1,2,-6,1,0,4,2
1532114843906,0,-2,-2,11,2,-6,-4,-4
1532114843911,33,3,2,-7,-6,1,-5,0
1532114843916,-46,-4,-8,2,-1,-1,-1,-2
1532114843921,8,1,-2,-25,0,-3,-2,-3
1532114843926,5,2,3,38,-4,1,0,-2
1532114843931,26,1,0,-5,0,-2,0,10
1532114843936,-26,-3,0,1,2,-1,-6,-12
1532114843941,-6,-4,-3,-3,-2,-1,4,2
1532114843946,0,1,-3,-3,2,4,5,6
1532114843951,-6,-4,-2,-5,-1,-2,-6,-2
1532114843956,13,-2,1,1,-4,-2,-7,-9
1532114843961,-7,-4,1,4,0,-1,10,9
1532114843966,27,1,-1,-4,0,-1,3,-1
1532114843971,-27,-1,1,4,1,0,2,-2
1532114843976,-11,-1,-4,-10,-2,-1,-1,1
1532114843981,-1,0,0,2,-2,-2,-8,-5
1532114843986,12,0,-3,0,-1,0,-4,-4
1532114843991,6,1,2,-5,0,1,4,1
1532114843996,-20,0,2,1,-1,-2,-10,1
1532114844001,9,-2,-10,3,0,0,-5,-7
1532114844006,-19,1,0,-2,-2,-3,-4,-1
1532114844011,-2,-3,-6,-5,-1,0,-1,-3
1532114844016,12,6,4,6,-1,1,5,9
1532114844021,36,-3,-3,-12,0,1,-3,1
1532114844026,-18,-1,3,21,2,-2,-1,2
1532114844031,34,5,-1,-5,-3,-2,-2,3
1532114844036,-54,-1,-4,-11,0,-1,4,7
1532114844041,-23,0,5,23,0,-1,-7,-10
1532114844046,4,-5,-2,-10,3,-1,-1,-7
1532114844051,4,-2,-3,-5,-4,-2,-8,-1
1532114844056,21,0,0,-8,-4,-1,5,6
1532114844061,2,0,-2,-28,-2,-2,-6,-2
1532114844066,8,0,4,31,1,0,-2,-1
1532114844071,-27,-2,0,1,-2,1,4,1
1532114844076,-3,-1,1,0,3,-3,-22,-11
1532114844081,-15,-2,-2,-3,1,-2,7,5
1532114844086,8,-2,-1,-16,-2,-1,-1,-4
1532114844091,-4,-5,-5,-2,0,-2,2,2
1532114844096,18,3,1,8,-1,0,1,0
1532114844101,0,-2,1,5,0,0,-1,0
1532114844106,-6,-2,-1,-6,-1,0,-4,0
1532114844111,-12,-2,-6,-10,2,-1,2,-4
1532114844116,23,2,4,7,-6,0,3,-2
1532114844121,-30,2,0,-2,-1,1,-4,11
1532114844126,11,2,2,-2,0,-2,4,-5
1532114844131,-15,2,2,-6,-3,1,-6,-5
1532114844136,7,-5,-5,0,3,-3,1,0
1532114844141,16,0,0,-1,1,1,1,-1
1532114844146,-12,-1,-2,-5,-1,-1,-5,-2
1532114844151,6,-5,-6,7,0,-2,-1,3
1532114844156,-17,-4,0,-7,-4,-2,15,-1
1532114844161,9,1,0,11,1,3,-2,-1
1532114844166,-11,1,-4,-10,0,1,-4,-5
1532114844171,12,6,2,3,-2,1,12,3
1532114844176,-6,-2,0,0,-1,-4,-12,-6
1532114844181,5,-7,-6,-15,-2,-2,-6,-3
1532114844186,-36,-5,-3,28,0,0,7,4
1532114844191,13,2,0,-9,-2,-1,-7,-4
1532114844196,0,1,3,-2,-1,-2,2,4
1532114844201,-3,1,-1,5,-2,-2,-5,-4
1532114844206,37,1,-1,-15,-3,0,5,1
1532114844211,-36,-5,1,1,2,-1,-1,-10
1532114844216,9,-1,-1,10,1,0,0,2
1532114844221,4,-2,0,-3,0,-1,-4,-10
1532114844226,4,-5,-9,-11,-1,-1,1,1
1532114844231,-7,0,-1,0,-1,-1,2,0
1532114844236,10,0,-1,-5,0,-1,4,2
1532114844241,5,2,2,4,-1,3,0,-4
1532114844246,-4,-2,0,-4,-2,-1,1,2
1532114844251,-18,2,0,-5,-1,0,-3,-6
1532114844256,12,-7,-6,-3,-1,2,-4,1
1532114844261,-2,-4,-4,4,4,-1,3,1
1532114844266,6,0,-1,-16,-5,-2,-7,0
1532114844271,4,0,0,1,2,0,-1,1
1532114844276,13,5,8,7,-4,-2,1,-6
1532114844281,-6,-1,-6,-2,0,-2,-3,-12
1532114844286,3,-5,-4,-8,2,1,-3,-2
1532114844291,-33,-4,1,0,2,-1,15,7
1532114844296,0,-1,-4,5,-1,-1,-4,-6
1532114844301,19,4,4,-2,-6,2,12,8
1532114844306,-18,0,0,-3,-1,-2,-2,-3
1532114844311,15,-1,-1,8,1,-2,-3,2
1532114844316,-10,-5,-2,-12,1,1,1,-1
1532114844321,-6,-1,2,4,-2,-2,-2,2
1532114844326,-6,-1,-1,6,-1,-1,-4,-4
1532114844331,16,0,1,-2,-1,-1,-2,-1
1532114844336,-10,-2,-6,-8,0,0,-1,-12
1532114844341,44,0,5,16,0,-2,-2,12
1532114844346,-27,-5,-6,-9,-5,-1,-3,-2
1532114844351,-23,-3,1,5,0,0,-4,2
1532114844356,-2,2,0,-4,-1,-1,-3,-5
1532114844361,36,1,-4,-1,-3,0,0,6
1532114844366,-29,0,0,-6,3,-1,-1,-11
1532114844371,-10,0,-1,1,1,-1,-2,4
1532114844376,-15,-1,-3,6,0,0,0,19
1532114844381,-25,0,5,-10,-1,-1,-2,-6
1532114844386,27,1,-2,10,-1,-1,-2,2
1532114844391,-2,3,2,2,-3,-2,2,2
1532114844396,-12,-2,2,-3,1,2,3,-4
1532114844401,-4,-5,-8,-3,-1,1,-5,-3
1532114844406,10,3,3,-3,-1,-2,2,4
1532114844411,-1,-6,-4,-2,0,-1,-6,-6
1532114844416,10,2,-2,-2,-1,-2,-1,4
1532114844421,-14,0,-1,1,-2,-2,0,-5
1532114844426,16,1,5,2,-4,2,-1,-2
1532114844431,-36,-1,-6,-5,0,0,-1,7
1532114844436,12,-3,1,-3,-3,1,2,0
1532114844441,-14,-1,0,4,0,0,-3,-2
1532114844446,6,-2,-4,-1,0,-1,-3,-5
1532114844451,22,-5,-4,-33,-8,-3,0,-7
1532114844456,0,1,7,46,1,1,1,16
1532114844461,8,1,-2,-4,1,-1,-9,-8
1532114844466,7,3,4,0,2,-3,11,9
1532114844471,5,1,1,-5,-1,-1,-4,-9
1532114844476,-6,-6,-10,-9,-2,-2,-3,-8
1532114844481,6,2,1,-3,-1,1,8,1
1532114844486,4,1,5,-2,-2,-2,-16,-15
1532114844491,11,-3,-3,14,1,0,0,5
1532114844496,-1,1,-2,-11,-1,0,-3,-5
1532114844501,-19,-3,-1,11,1,-1,-1,1
1532114844506,-9,-2,-5,-27,-2,1,4,14
1532114844511,10,4,4,25,0,-1,-1,0
1532114844516,42,1,-1,-16,1,-1,-6,-3
1532114844521,-38,-6,-2,7,0,0,0,-8
1532114844526,12,0,1,-1,-1,-1,0,4
1532114844531,-13,-1,1,6,0,0,-2,-6
1532114844536,6,-1,0,-8,-3,0,3,4
1532114844541,3,-1,-3,-9,-1,-3,-1,1
1532114844546,9,-2,-3,4,-4,-1,1,3
1532114844551,2,-1,-2,11,0,0,-1,-4
1532114844556,-8,2,1,-4,-2,-1,-7,-11
1532114844561,-10,2,6,-5,-2,-1,-9,10
1532114844566,6,0,-6,-7,2,-2,-6,-7
1532114844571,-38,-2,0,20,0,1,5,2
1532114844576,-24,-5,-3,-2,0,-1,-1,-4
1532114844581,-5,-1,-2,-5,-1,1,3,-2
1532114844586,0,-1,2,1,-7,0,-8,2
1532114844591,27,1,0,-16,-3,-2,0,0
1532114844596,-1,6,0,7,-1,0,-3,-4
1532114844601,-9,-6,-4,1,2,-1,6,3
1532114844606,2,-2,-2,1,1,-1,4,-6
1532114844611,14,-1,-5,-18,-4,-1,-3,-5
1532114844616,-41,-3,0,-13,-1,-4,3,2
1532114844621,27,4,3,8,-2,-1,0,-9
1532114844626,-7,0,1,0,3,0,2,13
1532114844631,-12,0,-2,-3,2,1,-12,-8
1532114844636,-4,-3,-5,-6,0,-3,5,-2
1532114844641,1,-3,-3,-3,0,-6,-6,0
1532114844646,-10,-1,2,6,0,4,0,-11
1532114844651,16,0,3,-2,-2,0,1,4
1532114844656,18,-2,-1,-1,-1,0,-2,2
1532114844661,-14,1,0,5,-2,-1,0,3
1532114844666,5,0,0,5,-3,-1,2,0
1532114844671,15,2,-1,-5,1,1,1,2
1532114844676,-5,2,1,3,1,0,1,2
1532114844681,5,-1,-5,-4,-4,-3,-9,-5
1532114844686,-30,-4,-2,-22,-1,-2,9,0
1532114844691,10,-2,1,42,1,-1,7,-10
1532114844696,-1,-5,-4,-2,-3,-3,-10,15
1532114844701,-12,0,-1,-2,2,1,3,-1
1532114844706,-5,2,0,1,0,-1,-6,-3
1532114844711,7,1,-4,-16,-2,-1,-1,0
1532114844716,-9,-4,2,12,-1,1,4,3
1532114844721,3,0,-3,2,-2,2,-1,-5
1532114844726,-12,-1,0,5,-4,-4,-20,-18
1532114844731,16,-3,1,-17,1,-3,4,9
1532114844736,17,3,2,22,-2,1,0,-6
1532114844741,-31,-1,0,-16,0,1,0,2
1532114844746,6,-2,-2,11,2,0,-3,-5
1532114844751,-4,-1,-3,-13,-7,-2,-6,-1
1532114844756,-2,-2,-3,-17,-2,-2,0,-5
1532114844761,1,0,3,5,0,-1,2,-2
1532114844766,4,-1,5,6,-3,-1,6,5
1532114844771,-5,-2,-9,-5,1,-2,-5,-11
1532114844776,8,-3,0,-6,0,-2,-1,13
1532114844781,18,1,-3,6,0,4,2,-6
1532114844786,-57,-1,1,6,5,0,1,6
1532114844791,45,2,0,-10,-2,-3,-1,-3
1532114844796,-60,-5,-1,2,0,0,0,-12
1532114844801,15,2,0,-4,-3,-3,-1,2
1532114844806,18,3,-2,-3,-2,2,11,5
1532114844811,-18,-5,-3,-5,-2,-2,-16,-10
1532114844816,7,2,3,10,1,1,8,2
1532114844821,5,0,-1,-6,0,-3,0,7
1532114844826,2,-2,-4,-2,-1,-1,1,-2
1532114844831,-21,-3,3,9,0,0,4,2
1532114844836,23,1,-5,-8,-1,-1,-4,-6
1532114844841,-13,-3,-2,-4,-6,0,-1,-4
1532114844846,16,-2,-6,-14,0,-5,-1,-3
1532114844851,-4,0,10,29,-1,2,0,3
1532114844856,4,2,1,-6,-1,0,-2,-1
1532114844861,1,-3,-1,0,3,-1,2,-1
1532114844866,3,-4,-5,1,-1,-2,-3,1
1532114844871,16,-3,1,-6,-2,-1,3,10
1532114844876,41,2,-1,-4,-2,-1,-2,-13
1532114844881,-83,-5,1,4,1,0,-1,-7
1532114844886,13,-2,-2,-1,0,-2,-2,-2
1532114844891,-11,1,4,9,0,0,3,6
1532114844896,13,-3,-11,-11,-2,1,0,-4
1532114844901,38,3,2,1,-1,-1,-18,-1
1532114844906,3,-1,-1,1,0,-2,-3,-1
1532114844911,-30,2,-2,-10,-1,1,10,12
1532114844916,-3,-3,1,2,0,-2,-2,4
1532114844921,16,2,-4,-6,-2,-4,-5,0
1532114844926,16,-2,3,2,-1,0,-1,3
1532114844931,-29,-1,-6,-6,-1,0,-2,-2
1532114844936,-14,1,3,-4,-1,0,-2,-6
1532114844941,2,-3,0,0,-1,1,5,1
1532114844946,19,3,0,1,-2,-1,0,0
1532114844951,-32,-3,0,-8,-2,-3,0,-5
1532114844956,1,-4,-7,-11,0,0,0,2
1532114844961,8,2,4,32,0,0,1,-4
1532114844966,-16,-3,-5,-2,1,0,3,8
1532114844971,17,3,0,-4,-1,-3,-7,-11
1532114844976,-7,-3,1,2,-2,-2,-1,5
1532114844981,0,-5,-4,-6,-1,0,2,-1
1532114844986,30,3,1,-4,-5,2,0,-4
1532114844991,6,-2,-4,1,0,0,-10,-13
1532114844996,-11,-2,5,0,1,-1,14,7
1532114845001,2,1,-7,-10,-1,-2,-1,-2
1532114845006,-1,-1,1,4,-2,4,0,-2
1532114845011,11,-2,-1,-9,-1,-3,1,2
1532114845016,-1,1,-6,6,-1,0,-7,-5
1532114845021,19,3,0,-16,-1,1,14,9
1532114845026,-28,-5,-2,44,1,-2,-1,-2
1532114845031,14,2,4,-7,0,1,0,6
1532114845036,-27,0,-3,-4,-2,0,-5,-9
1532114845041,10,-1,-2,9,0,-1,4,3
1532114845046,26,3,-1,-17,-2,-3,-17,-10
1532114845051,-54,-3,-1,4,3,1,7,11
1532114845056,-27,-2,0,6,-1,-2,-4,6
1532114845061,8,-1,-1,-9,0,1,-3,-5
1532114845066,34,2,-1,-5,-1,0,4,1
1532114845071,-30,-2,-2,-4,1,0,-5,-7
1532114845076,19,1,2,20,-3,-1,0,2
1532114845081,-20,-2,-1,-9,0,-1,-6,-3
1532114845086,-9,-1,-1,-5,0,-1,2,2
1532114845091,18,-1,-4,-2,-2,-1,-4,0
1532114845096,-3,1,5,2,0,-1,1,-11
1532114845101,11,-4,-4,-3,-3,-1,-2,1
1532114845106,-35,-3,1,-2,-2,-1,-4,1
1532114845111,35,0,-4,-8,-2,-3,0,-9
1532114845116,-24,-5,-3,-4,1,-1,-3,-8
1532114845121,4,1,1,4,-2,0,-2,0
1532114845126,-21,-2,1,-7,0,-2,0,-5
1532114845131,14,-1,-1,0,-3,0,0,4
1532114845136,27,-3,-2,-7,-2,-1,-1,-3
1532114845141,-11,-6,-6,1,0,-1,-6,-3
1532114845146,-2,-3,1,5,1,2,5,1
1532114845151,-6,-4,-1,0,1,-3,-3,-4
1532114845156,27,4,-2,1,-2,3,0,7
1532114845161,-5,2,-3,-12,-2,-2,-3,-4
1532114845166,-14,-5,-4,-4,-1,-1,-4,-4
1532114845171,48,1,2,-3,0,0,16,2
1532114845176,-28,-1,-2,-2,-3,-4,-5,1
1532114845181,1,3,2,-1,-1,1,2,2
1532114845186,-6,1,0,-1,0,-1,-2,1
1532114845191,-4,-2,-2,0,-3,0,-5,-1
1532114845196,13,0,-2,-5,0,-2,-1,1
1532114845201,-11,-1,2,3,-1,0,-3,-1
1532114845206,3,0,0,1,0,-1,3,0
1532114845211,-5,4,1,4,-3,-1,-7,-5
1532114845216,-11,-11,-9,-5,-1,1,-6,-11
1532114845221,3,-1,4,3,-2,-4,-1,-8
1532114845226,0,-2,-1,-13,0,-2,-2,-1
1532114845231,28,1,-2,0,1,-1,-3,2
1532114845236,-5,3,4,2,0,-1,2,0
1532114845241,-18,-2,0,20,0,-3,-13,-4
1532114845246,17,-2,1,-3,-3,-1,13,-2
1532114845251,-49,-7,-3,-16,1,0,0,1
1532114845256,28,4,4,29,0,1,0,2
1532114845261,10,2,0,-16,-2,-1,-1,5
1532114845266,-11,1,0,4,0,-2,-3,-4
1532114845271,2,-1,-2,0,-1,0,-4,0
1532114845276,-2,-1,-2,-16,-1,-2,-2,2
1532114845281,2,4,4,0,1,2,3,2
1532114845286,-10,-2,-9,-3,-1,-2,-4,1
1532114845291,-5,-3,0,8,-1,-2,3,-10
1532114845296,21,-5,-8,-6,-1,1,5,4
1532114845301,-49,2,1,2,0,0,-4,14
1532114845306,8,1,0,-13,-1,-1,-1,-4
1532114845311,5,0,6,25,-4,-1,-6,1
1532114845316,2,1,3,-6,-2,-2,4,3
1532114845321,4,-5,-2,0,0,0,6,-5
1532114845326,21,1,-2,-2,-1,-2,-4,-1
1532114845331,-57,-1,0,-2,2,0,3,5
1532114845336,-3,2,5,0,-2,-2,-11,-10
1532114845341,17,-3,-6,-9,-1,-1,7,5
1532114845346,-10,-3,-1,7,0,-2,-7,0
1532114845351,33,4,2,-1,0,0,-2,-2
1532114845356,-62,1,5,-6,0,-3,0,-7
1532114845361,9,-6,-12,-7,-2,-1,-3,-5
1532114845366,-3,0,2,-10,-1,0,1,1
1532114845371,7,-2,-1,18,1,-1,-4,2
1532114845376,4,4,2,-5,-2,4,3,15
1532114845381,-3,3,3,5,0,-1,-3,0
1532114845386,-16,-2,-3,-2,-1,-2,1,-2
1532114845391,10,-1,-4,-19,-1,-3,-1,0
1532114845396,8,-2,-1,10,0,-1,-2,1
1532114845401,2,-1,2,-1,-1,1,2,1
1532114845406,3,1,0,13,0,0,-2,0
1532114845411,15,-1,-3,-13,-2,1,4,0
1532114845416,-13,-4,-5,-2,1,-1,1,-6
1532114845421,11,0,-2,-9,-3,-1,1,-4
1532114845426,-13,2,4,5,0,2,-2,4
1532114845431,-21,-7,2,-4,-2,-1,-7,-1
1532114845436,-18,-3,-5,-4,-1,-1,2,-11
1532114845441,15,-1,-1,-4,0,-1,-3,3
1532114845446,1,-2,-2,-2,0,0,2,-2
1532114845451,15,3,2,12,0,0,-4,-8
1532114845456,21,1,-3,-9,1,-3,-2,22
1532114845461,-38,-4,0,16,4,0,0,-5
1532114845466,4,-1,5,-3,-4,1,-2,-1
1532114845471,-4,-2,-6,-14,-2,0,5,0
1532114845476,15,0,3,15,-2,-2,-3,-2
1532114845481,15,-1,-4,6,-2,-1,4,3
1532114845486,19,0,-1,-4,0,-3,-6,5
1532114845491,-18,-4,-2,3,0,3,0,-6
1532114845496,-48,-2,-1,-9,0,0,-14,-8
1532114845501,16,2,2,-2,0,-1,5,-1
1532114845506,-13,-3,-8,0,1,1,8,-4
1532114845511,4,1,-2,-17,-1,-3,-11,9
1532114845516,10,-4,-3,8,-3,0,-4,-11
1532114845521,-1,-6,-5,-1,1,-2,-7,-9
1532114845526,-7,0,2,-1,1,-1,0,0
1532114845531,20,4,-3,-2,-1,0,7,-5
1532114845536,-4,-3,1,0,-1,2,2,13
1532114845541,8,-1,1,-15,-3,-1,-2,-4
1532114845546,-38,-4,-6,8,1,-1,3,3
1532114845551,1,0,1,5,0,-2,-8,-5
1532114845556,32,-1,2,-5,0,0,-2,-4
1532114845561,-18,0,-2,-4,0,3,5,0
1532114845566,4,-1,0,-1,-1,-1,-4,-2
1532114845571,-11,-1,-2,4,-4,0,4,-3
1532114845576,17,0,0,-4,1,-2,3,-3
1532114845581,-25,-1,-1,-9,0,0,2,-1
1532114845586,66,3,3,4,0,-1,1,19
1532114845591,-68,-5,-3,22,0,-1,-4,-12
1532114845596,17,1,-2,2,-1,1,1,2
1532114845601,18,-2,-3,-6,-3,-3,-1,-1
1532114845606,-25,0,-3,-12,2,2,-3,-12
1532114845611,9,3,4,2,-1,-2,1,15
1532114845616,0,1,-3,1,1,-3,3,2
1532114845621,0,-1,-1,9,-2,-2,-7,-3
1532114845626,-6,-1,-1,-6,-4,-1,6,-2
1532114845631,19,-2,-4,-7,-1,-3,-8,-1
1532114845636,-9,-1,1,-1,-1,-1,0,-4
1532114845641,7,0,5,-26,-1,-1,1,6
1532114845646,-4,2,3,33,-1,0,-3,-8
1532114845651,3,0,1,0,0,-1,-1,4
1532114845656,49,3,1,-6,-7,-1,-2,7
1532114845661,-48,-10,-4,-5,0,-3,-14,-20
1532114845666,-23,-1,-3,-1,0,-3,2,2
1532114845671,-1,-3,-2,-2,-1,1,0,-5
1532114845676,-2,-2,-7,-4,1,-3,-1,-2
1532114845681,24,4,5,14,-1,-1,-3,5
1532114845686,-3,0,2,-7,0,0,-6,8
1532114845691,-13,-2,-7,-8,1,-1,1,-7
1532114845696,-12,-4,3,11,0,1,1,1
1532114845701,9,2,0,6,-2,-1,4,2
1532114845706,6,-1,4,-8,-1,-1,-4,-5
1532114845711,36,1,-2,-4,-3,-2,3,-1
1532114845716,-61,-6,-7,-11,2,4,1,0
1532114845721,5,3,3,13,0,-1,2,-3
1532114845726,17,-1,-2,1,-1,0,2,3
1532114845731,-4,0,2,-11,-1,-1,-5,8
1532114845736,-14,-6,-6,2,1,-2,-12,-17
1532114845741,-36,0,-2,1,3,-1,4,-1
1532114845746,-6,0,-3,-13,-5,-1,9,-1
1532114845751,14,1,2,-1,-1,-2,-10,0
1532114845756,9,3,0,-17,-2,-1,1,-7
1532114845761,16,0,2,20,2,0,0,4
1532114845766,10,-1,0,-3,0,-3,-1,-1
1532114845771,-13,-3,-3,2,3,0,10,-1
1532114845776,17,1,-1,-10,-1,1,4,1
1532114845781,3,3,-2,-6,-3,-3,-2,-2
1532114845786,12,-2,0,4,-1,-1,1,1
1532114845791,-2,-4,-7,-1,-2,-2,1,-3
1532114845796,-13,-1,-1,3,1,-1,-2,-2
1532114845801,-10,-2,-5,-15,-3,-2,3,-1
1532114845806,-23,1,5,17,-1,1,-6,-2
1532114845811,4,-3,-3,-3,1,0,0,5
1532114845816,25,5,2,2,-3,-1,2,4
1532114845821,-10,-4,-3,-4,0,2,-4,-2
1532114845826,21,-1,-2,-17,-5,-3,4,2
1532114845831,-25,1,5,7,1,1,3,-6
1532114845836,-2,-1,0,5,-2,-3,-2,1
1532114845841,54,5,-1,5,-1,4,0,4
1532114845846,-73,-2,4,1,1,-1,-8,6
1532114845851,11,-5,-7,-17,-4,-2,-4,-4
1532114845856,7,-1,-1,21,2,-2,8,5
1532114845861,8,1,3,13,1,-3,-5,-3
1532114845866,-8,-2,-4,3,-1,0,2,-7
1532114845871,-9,-3,-4,-3,-1,-1,-8,-1
1532114845876,7,3,4,1,-3,0,-3,-1
1532114845881,-35,-1,-3,-5,-1,-2,0,-4
1532114845886,16,-2,-2,2,1,-1,0,-8
1532114845891,5,2,5,2,-1,-1,3,0
1532114845896,-5,-4,-3,-4,1,0,0,-5
1532114845901,2,-5,-1,-16,-4,-2,1,-1
1532114845906,54,2,-4,15,-3,-1,-3,-3
1532114845911,-24,-3,0,0,0,0,0,-5
1532114845916,-32,-1,-2,-15,-3,1,-9,4
1532114845921,-2,-1,6,3,-1,-1,0,1
1532114845926,4,-6,-14,-15,-4,-3,-6,-4
1532114845931,23,-1,-1,1,0,7,3,-4
1532114845936,4,2,1,4,-1,-4,-2,-2
1532114845941,3,2,-1,-6,-2,1,-6,0
1532114845946,-4,0,3,7,1,0,10,1
1532114845951,13,0,3,3,-1,-3,0,2
1532114845956,-35,-4,-2,-7,-2,0,-1,-1
1532114845961,-1,-3,-4,5,2,-4,1,-5
1532114845966,-18,-2,0,-5,0,-1,-3,1
1532114845971,3,3,4,-2,-4,-3,0,7
1532114845976,6,-4,-6,-14,-1,-1,2,-5
1532114845981,9,-2,-3,-1,-2,-1,2,5
1532114845986,-7,-2,2,3,5,-1,-7,-13
1532114845991,-32,-1,-1,3,0,-1,0,1
1532114845996,39,-1,-8,-8,-2,1,1,3
1532114846001,-38,1,1,2,-4,-1,-1,-9
1532114846006,4,0,-4,1,4,3,2,0
1532114846011,-7,-1,-3,-16,-4,-3,-3,-12
1532114846016,15,4,10,25,2,0,2,3
1532114846021,10,-4,-6,-10,1,0,-5,3
1532114846026,7,1,0,-1,-6,0,20,9
1532114846031,-6,-2,4,5,2,4,2,-7
1532114846036,-7,-6,-9,-6,-2,-2,-4,-6
1532114846041,10,3,-3,-12,2,-1,-1,0
1532114846046,-13,-3,2,13,-5,-3,-11,-5
1532114846051,12,2,-3,2,0,-1,-1,7
1532114846056,-3,2,5,-5,-3,-2,5,-1
1532114846061,-1,-3,-2,1,2,3,0,2
1532114846066,2,-2,-7,-13,-1,-2,-5,-2
1532114846071,1,-1,1,9,-1,-1,0,-2
1532114846076,-2,-2,2,-12,1,-2,-5,-2
1532114846081,-2,-3,4,15,-5,0,5,2
1532114846086,1,0,-1,-16,-5,0,-5,-3
1532114846091,4,-4,-6,3,3,-1,-1,0
1532114846096,-10,-3,-3,-4,3,3,0,-2
1532114846101,5,3,2,-2,-5,-1,-1,1
1532114846106,0,-4,-2,-12,0,-2,-3,-1
1532114846111,2,4,3,6,-1,0,-2,3
1532114846116,-1,1,1,12,0,0,-1,-1
1532114846121,1,-1,-4,-14,1,1,1,1
1532114846126,1,2,4,37,-1,1,-4,-2
1532114846131,-1,-5,5,-12,-1,-3,-2,-4
1532114846136,0,3,-5,2,-2,0,0,0
1532114846141,1,-2,2,-6,-1,0,1,-3
1532114846146,-4,-4,-8,-26,-4,-2,-3,1
1532114846151,3,3,0,3,0,2,2,2
1532114846156,-2,-5,0,4,0,-2,0,-1
1532114846161,-2,-2,-3,11,6,-2,-3,-2
1532114846166,0,1,-1,-20,0,-1,-3,-2
1532114846171,1,3,3,-8,-8,1,2,2
1532114846176,4,4,3,0,1,-4,-3,1
1532114846181,-1,-6,-7,-5,-8,0,-1,0
1532114846186,-3,-3,-1,4,7,1,0,0
1532114846191,1,-2,-4,1,3,0,0,-2
1532114846196,-5,-1,-1,-5,-3,-2,0,-2
1532114846201,2,3,2,9,2,-2,0,-1
1532114846206,0,-2,-1,-5,-2,-2,1,-1
1532114846211,-3,0,-1,-17,-5,-2,0,0
1532114846216,3,-2,-1,28,-2,0,0,1
1532114846221,-2,-2,-1,2,2,-2,-1,-4
1532114846226,-1,0,-1,-8,0,1,-1,-2
1532114846231,-1,-1,-3,6,4,-5,-3,-2
1532114846236,1,2,-1,-16,-9,-2,-1,0
1532114846241,-2,-5,2,1,4,-1,-1,0
1532114846246,-3,-4,-7,4,-3,-1,-2,-4
1532114846251,-2,0,-4,-1,-1,-1,0,-2
1532114846256,-2,0,-5,-24,0,-2,0,0
1532114846261,3,2,5,22,-5,0,-1,-1
1532114846266,-3,-2,-3,-8,1,-2,-1,0
1532114846271,-3,-3,-2,2,-5,-2,-2,-1
1532114846276,-2,1,-1,6,-5,1,3,1
1532114846281,-1,1,0,-8,3,0,-3,-2
1532114846286,-17,-9,-4,5,0,0,-1,-3
1532114846291,-12,0,-4,-5,4,0,1,-2
1532114846296,0,3,6,-1,-6,1,-1,-1
1532114846301,-3,0,0,5,0,-1,0,0
1532114846306,4,-4,0,4,1,-1,-2,0
1532114846311,3,-1,0,-6,-10,-4,-1,-1
1532114846316,-3,-1,-3,-5,7,0,0,-1
1532114846321,-1,0,1,4,-2,2,-1,0
1532114846326,2,2,4,4,6,-2,-1,0
1532114846331,1,1,-6,-2,7,-4,-1,0
1532114846336,-1,-2,1,-2,0,0,-2,1
1532114846341,0,1,-2,-11,3,-2,8,2
1532114846346,-1,-4,-2,33,2,0,-1,-6
1532114846351,1,0,2,-7,6,-4,1,0
1532114846356,-5,-2,-6,-4,-1,-1,-2,-3
1532114846361,-2,-6,-6,1,-14,-2,-3,0
1532114846366,0,4,4,-4,-14,-3,-2,1
1532114846371,17,-2,-4,-9,1,2,1,1
1532114846376,-21,0,6,9,0,1,7,1
1532114846381,0,-2,1,0,-8,-1,-13,-4
1532114846386,-6,-4,-1,-5,30,-2,-2,-5
1532114846391,4,1,-2,1,-31,-2,-5,-2
1532114846396,-2,-1,-2,-11,-3,0,1,-2
1532114846401,0,-2,-3,2,15,5,1,0
1532114846406,5,-2,-1,-12,-41,-12,-4,2
1532114846411,-4,3,12,45,29,15,5,0
1532114846416,5,-2,-2,3,21,0,-2,2
1532114846421,-3,2,1,2,6,-2,-3,2
1532114846426,5,2,0,-4,4,5,9,0
1532114846431,-7,-4,-4,-20,-2,-5,2,-5
1532114846436,8,-2,-3,-6,-12,-5,-5,-4
1532114846441,-15,-3,2,12,7,6,-14,-1
1532114846446,-3,0,-3,-2,0,6,25,6
1532114846451,4,7,0,-5,9,-2,0,2
1532114846456,2,2,3,-1,1,-3,-2,-1
1532114846461,-2,-10,-7,-13,-34,-6,4,-5
1532114846466,-2,-2,1,2,-15,-7,-14,-4
1532114846471,-5,-4,-3,0,25,11,0,-2
1532114846476,5,0,-2,-1,6,-1,10,2
1532114846481,1,4,5,4,-9,0,-4,3
1532114846486,0,1,1,2,-21,-8,-15,-5
1532114846491,-3,-4,-4,-5,53,7,1,-4
1532114846496,-3,-2,1,3,-38,0,-17,2
1532114846501,4,4,3,5,19,-2,-12,-12
1532114846506,3,1,-3,1,-11,-1,7,5
1532114846511,-4,-5,-9,-35,26,-9,3,1
1532114846516,-3,-2,3,31,32,7,0,-1
1532114846521,0,2,5,9,14,1,11,5
1532114846526,8,3,4,6,4,5,-9,6
1532114846531,0,6,3,-5,-26,-9,-23,-12
1532114846536,-3,-6,-6,-16,-13,1,12,0
1532114846541,1,-2,-4,-5,0,1,-4,-8
1532114846546,1,-2,-1,-2,-13,0,0,-1
1532114846551,3,3,7,14,18,9,9,10
1532114846556,-1,2,-2,-1,5,-3,-11,-3
1532114846561,-1,-1,-2,4,19,-3,18,7
1532114846566,-6,-6,-5,-6,3,2,6,-1
1532114846571,-2,-5,-6,-2,-34,-1,0,-3
1532114846576,-1,1,1,-2,-37,-4,-8,-5
1532114846581,0,-4,-2,-6,15,-3,-2,1
1532114846586,-1,0,3,-2,22,9,3,-3
1532114846591,3,-1,-4,3,-27,-8,-14,5
1532114846596,-2,2,-1,-4,1,-4,6,-3
1532114846601,0,5,5,1,-22,-5,-12,-5
1532114846606,-2,-4,0,3,23,-3,20,1
1532114846611,-9,-10,-6,-2,-30,-3,34,8
1532114846616,0,-8,-8,-10,-9,-2,-8,-4
1532114846621,0,3,2,7,74,1,-3,2
1532114846626,-2,1,1,-5,-11,-4,-33,-4
1532114846631,2,5,3,5,59,2,6,-4
1532114846636,-2,-3,-2,-4,12,-3,2,2
1532114846641,-2,-6,-4,1,8,0,4,0
1532114846646,0,-2,-5,1,9,-3,-16,-5
1532114846651,-3,-1,0,-9,-22,-5,-3,-4
1532114846656,0,3,7,3,-1,9,-27,-8
1532114846661,3,-1,-5,-5,-18,7,45,11
1532114846666,-3,-1,-3,-2,-14,0,7,1
1532114846671,-1,-4,-3,-2,-34,-6,-10,2
1532114846676,1,2,1,-1,18,-4,-7,-4
1532114846681,-2,-4,-2,-2,-15,5,-2,-9
1532114846686,-1,-1,-1,-5,-37,1,3,0
1532114846691,-1,0,2,-2,2,-7,3,5
1532114846696,1,2,3,2,-13,-2,-1,2
1532114846701,3,0,-2,-4,-30,-2,-23,1
1532114846706,-4,1,0,0,44,8,21,-4
1532114846711,1,-3,-1,5,35,3,-28,-5
