1532068772908,3,10,11,-29,-5,-1,2,20
1532068772913,-1,-4,23,15,9,1,-2,14
1532068772918,-1,4,9,-3,0,1,-1,4
1532068772923,-3,-18,-34,-2,-4,-2,0,-10
1532068772928,-1,-13,23,0,-2,-2,-2,-17
1532068772933,-1,10,-7,-2,1,2,-2,-11
1532068772938,0,1,-7,-7,0,0,-2,-8
1532068772943,1,-16,6,9,1,0,-2,-6
1532068772948,-3,2,-2,-4,7,1,-1,-5
1532068772953,-2,-7,6,0,-6,-3,-3,-5
1532068772958,-1,2,8,3,-3,0,0,-3
1532068772963,2,25,-25,-6,-3,1,-3,-1
1532068772968,-2,-33,8,5,-4,-2,-1,-1
1532068772973,-2,3,0,-2,3,1,0,-1
1532068772978,0,-2,-12,-5,1,0,1,2
1532068772983,-1,11,-39,-27,-11,-3,-2,0
1532068772988,0,0,-28,-4,7,0,-2,-2
1532068772993,1,-1,13,16,4,4,2,-1
1532068772998,-3,-2,-9,-23,-9,-3,-1,1
1532068773003,-2,-9,15,11,-1,-2,-2,0
1532068773008,1,10,-14,7,-1,-1,-1,0
1532068773013,-1,-5,-14,8,-2,-2,-2,-1
1532068773018,1,0,6,4,8,0,-1,-2
1532068773023,-2,0,17,0,5,2,2,4
1532068773028,-3,1,4,1,-11,-3,-1,-4
1532068773033,-3,-3,-2,0,-1,0,0,-1
1532068773038,3,11,5,6,-3,-3,-2,1
1532068773043,-5,-7,-5,-2,7,2,1,2
1532068773048,-1,-7,4,4,-1,-2,0,-1
1532068773053,-2,-2,-13,-12,-3,0,0,-1
1532068773058,0,-4,13,12,2,1,-1,-1
1532068773063,2,1,14,-11,-6,-1,-2,-1
1532068773068,1,23,-4,-4,1,1,0,-1
1532068773073,-4,-11,12,18,-7,-3,0,0
1532068773078,-3,-19,-8,5,0,-2,-2,0
1532068773083,1,10,10,9,6,0,0,-1
1532068773088,-3,-11,-17,-4,-5,-1,1,-1
1532068773093,6,18,8,-7,2,-2,-2,1
1532068773098,-4,-15,-4,-15,-2,1,1,0
1532068773103,-2,13,-7,-5,-6,-3,-2,-2
1532068773108,4,12,26,1,-1,2,1,0
1532068773113,-5,-2,-1,13,0,-3,-4,-1
1532068773118,-2,-7,-6,-4,5,-1,-2,-1
1532068773123,-1,7,-5,-6,-13,-2,0,2
1532068773128,-1,-31,34,0,-1,0,0,-3
1532068773133,-1,-24,-26,-13,-4,0,-1,-1
1532068773138,-3,10,6,0,-1,-2,-1,2
1532068773143,2,-6,8,4,8,-1,-2,-1
1532068773148,-2,9,-5,-10,-5,-3,-3,-1
1532068773153,0,20,-2,-9,-5,-2,0,0
1532068773158,0,-15,-16,-4,-4,-1,-2,1
1532068773163,-1,-17,0,1,4,0,3,-1
1532068773168,-4,8,-23,1,1,-2,-1,-5
1532068773173,1,-8,-1,-8,4,-1,-1,-3
1532068773178,3,16,15,1,-6,-4,-2,-2
1532068773183,-5,9,-4,-3,-3,-2,-2,0
1532068773188,-2,4,-14,7,5,1,0,-1
1532068773193,-2,-33,12,-5,2,2,2,-2
1532068773198,-2,12,-4,23,-7,-3,-1,1
1532068773203,3,22,11,-24,2,1,-1,2
1532068773208,-2,-3,-12,-31,-2,-3,-1,-1
1532068773213,-1,25,1,45,-3,-2,-3,0
1532068773218,-9,-60,-36,-48,-1,0,-1,-9
1532068773223,5,-3,-6,22,4,1,-1,-3
1532068773228,-3,41,26,4,3,-1,-1,2
1532068773233,6,40,29,-21,-5,-2,1,1
1532068773238,-9,-48,-47,-3,5,0,0,-5
1532068773243,3,37,-11,28,-8,-5,-2,5
1532068773248,0,-17,56,-1,-1,2,1,1
1532068773253,-5,-52,-35,-8,-2,1,-1,-7
1532068773258,1,34,4,-12,1,-1,0,-1
1532068773263,0,-26,39,0,2,1,2,1
1532068773268,2,-26,-81,4,4,-1,-1,-5
1532068773273,1,23,12,-26,-4,-1,-2,3
1532068773278,6,91,61,6,1,2,2,7
1532068773283,-20,-101,-44,39,-1,-3,-4,-10
1532068773288,4,30,39,69,-3,-1,0,5
1532068773293,0,13,6,9,5,0,1,2
1532068773298,3,-20,27,25,-1,1,6,-3
1532068773303,5,32,-11,-49,-16,-4,-3,-1
1532068773308,-4,19,27,3,8,0,-3,1
1532068773313,2,-9,-28,31,4,-2,-1,-1
1532068773318,-8,-59,-27,-16,-19,-5,-5,-4
1532068773323,2,7,-3,6,12,6,2,-7
1532068773328,3,-23,-7,13,-1,1,4,-3
1532068773333,3,40,3,-39,-2,-1,-2,4
1532068773338,19,53,17,31,9,1,2,11
1532068773343,-29,-55,26,3,-5,-2,1,-3
1532068773348,-4,21,8,56,1,0,0,-1
1532068773353,1,-55,-67,-85,-13,-2,-3,-10
1532068773358,6,61,34,-16,-19,-7,-4,5
1532068773363,-2,21,9,13,9,2,6,-8
1532068773368,0,-50,-27,39,3,-1,-3,4
1532068773373,14,127,127,28,27,10,-6,16
1532068773378,-29,-110,-95,-66,-26,-8,6,-17
1532068773383,1,63,8,18,-15,-6,-28,-14
1532068773388,5,45,103,0,19,4,6,-4
1532068773393,10,26,-64,24,23,2,6,1
1532068773398,3,38,92,24,-5,2,7,12
1532068773403,-3,-3,-49,-94,-24,-6,0,0
1532068773408,-4,44,-51,1,2,1,0,-1
1532068773413,-6,-104,-52,6,-2,-3,-3,-6
1532068773418,23,113,47,11,27,6,2,15
1532068773423,-21,-127,1,-45,-34,-6,3,-13
1532068773428,3,54,15,3,-20,-8,-12,3
1532068773433,-4,-2,-5,37,5,0,-1,1
1532068773438,-11,-87,2,-16,18,2,-3,-8
1532068773443,8,44,37,33,-16,-5,-5,4
1532068773448,-8,-36,4,-58,1,3,4,-3
1532068773453,8,48,6,9,-12,-5,1,3
1532068773458,5,22,92,42,11,3,1,5
1532068773463,-2,-47,-50,-8,21,3,3,0
1532068773468,1,-7,0,-21,-2,-4,-4,1
1532068773473,-5,0,-21,-9,-1,-3,2,2
1532068773478,17,-1,7,-13,6,3,19,16
1532068773483,-8,-33,-12,14,3,-2,-31,-9
1532068773488,14,71,-7,-20,-6,-2,1,3
1532068773493,-14,-64,42,-3,4,3,3,-1
1532068773498,6,-12,-37,-8,-17,-8,-6,-7
1532068773503,-9,7,26,14,9,5,14,3
1532068773508,8,-16,-51,16,8,2,-3,-7
1532068773513,8,60,48,-7,-12,-3,-1,2
1532068773518,-8,-8,-3,0,-4,1,15,5
1532068773523,11,65,23,1,4,2,5,11
1532068773528,-13,-87,-17,-10,-9,-2,-24,-22
1532068773533,1,13,-18,-2,-8,-5,-6,-9
1532068773538,-3,28,2,-1,-4,-1,-7,-5
1532068773543,3,-8,25,2,10,4,20,-4
1532068773548,-31,-5,2,10,-3,0,-9,10
1532068773553,20,-17,19,-3,1,0,5,5
1532068773558,-4,5,-46,-7,-7,-4,-17,-21
1532068773563,0,23,-18,8,3,2,1,1
1532068773568,8,-27,22,4,0,0,11,5
1532068773573,-27,2,-35,-3,5,2,1,-3
1532068773578,1,43,44,-1,1,1,19,8
1532068773583,-15,-38,-47,16,2,-5,-42,-11
1532068773588,-7,-6,-10,-8,-1,-3,2,-14
1532068773593,10,18,-2,2,-2,0,2,2
1532068773598,-7,-8,-12,-3,-4,-1,-7,2
1532068773603,15,3,16,5,7,4,10,12
1532068773608,-4,2,-2,8,-4,1,9,8
1532068773613,2,10,1,0,-3,-3,-7,-3
1532068773618,-2,-15,-1,5,-2,-2,-7,-4
1532068773623,-5,-6,-6,-3,-3,-4,8,-5
1532068773628,0,-2,2,-4,6,4,-1,4
1532068773633,1,1,2,6,0,0,-3,-4
1532068773638,2,5,-2,-16,1,-1,-1,-1
1532068773643,0,-3,5,16,-3,-2,-3,-3
1532068773648,-3,2,-11,-5,10,3,0,-2
1532068773653,5,-6,-3,-1,-2,-1,2,3
1532068773658,-3,-8,0,3,1,1,0,0
1532068773663,1,-4,-4,-5,-1,-3,-2,-1
1532068773668,-1,6,22,3,-4,-2,0,2
1532068773673,0,-8,-13,0,12,2,3,1
1532068773678,-2,3,-3,-6,-1,-3,-4,-2
1532068773683,-1,-2,4,11,-9,-2,0,-2
1532068773688,3,8,5,-4,1,1,1,2
1532068773693,0,0,13,-2,0,-2,1,3
1532068773698,-2,-10,-8,0,0,0,-2,-3
1532068773703,1,4,-12,-11,-3,-4,-2,0
1532068773708,-2,-7,-6,-8,-2,-1,0,0
1532068773713,2,11,6,-6,-5,-1,-1,-1
1532068773718,-2,5,-3,6,-3,-1,-2,-3
1532068773723,-4,-9,1,0,4,1,2,0
1532068773728,1,5,3,0,-2,1,1,2
1532068773733,-1,-2,-8,-15,1,1,-3,-3
1532068773738,0,-8,3,8,6,-1,0,1
1532068773743,1,0,-3,-5,-10,-1,-3,-2
1532068773748,0,3,-4,1,-2,-1,-1,-3
1532068773753,1,8,7,0,-8,1,2,6
1532068773758,-2,-14,-23,-4,-6,-1,-4,-1
1532068773763,-2,5,7,-4,6,2,0,-2
1532068773768,-1,-14,0,5,4,-1,-1,0
1532068773773,1,2,-8,17,-2,1,0,-3
1532068773778,2,16,8,-3,1,-1,2,1
1532068773783,-1,14,9,3,1,0,-1,-1
1532068773788,-4,-19,-22,-9,-5,-1,0,-5
1532068773793,0,3,-3,2,1,-1,-3,-2
1532068773798,-1,-9,9,-18,-4,-1,-2,-2
1532068773803,0,1,-6,14,8,1,2,-1
1532068773808,-1,9,8,-7,-7,-2,-2,1
1532068773813,-3,-6,-13,-19,-7,-4,-2,-1
1532068773818,-4,2,6,17,-2,-1,-3,0
1532068773823,1,-2,3,-14,0,2,2,-2
1532068773828,0,0,-2,-22,-1,-1,0,-2
1532068773833,-1,0,2,15,3,-1,-1,1
1532068773838,-2,-4,1,10,-9,-7,-3,0
1532068773843,-3,-8,1,-2,5,1,-1,0
1532068773848,1,2,-8,9,-7,1,2,-2
1532068773853,0,1,5,1,-6,-4,-4,-3
1532068773858,-2,6,1,-7,-3,0,1,0
1532068773863,-1,-8,-14,1,-1,-2,-2,-1
1532068773868,-7,-3,-7,-26,-8,-5,-4,-5
1532068773873,0,-1,5,3,4,2,-1,-4
1532068773878,1,5,-2,-3,1,0,2,6
1532068773883,0,-3,-6,2,-2,-1,0,0
1532068773888,-1,-2,7,9,5,-1,-1,0
1532068773893,2,0,2,-15,7,-1,1,0
1532068773898,-1,6,-7,8,-13,-3,-3,-8
1532068773903,-1,-2,-4,-13,-4,-1,-1,-8
1532068773908,1,-10,9,15,2,0,1,-2
1532068773913,1,0,1,14,8,1,3,-1
1532068773918,2,7,-3,-2,12,-1,-3,-1
1532068773923,0,-8,-3,-7,-11,-1,0,6
1532068773928,-1,6,0,2,-8,-1,-1,5
1532068773933,0,-4,-3,-11,-2,0,0,8
1532068773938,1,6,0,-4,4,1,1,0
1532068773943,0,6,-7,11,1,-3,-4,1
1532068773948,-1,-4,16,1,5,0,1,0
1532068773953,-1,4,3,6,-2,1,0,1
1532068773958,-3,-15,-8,-22,2,1,1,-1
1532068773963,1,-4,-4,7,3,2,0,0
1532068773968,2,1,9,13,7,0,-1,2
1532068773973,-3,12,-1,3,-23,-7,-3,-1
1532068773978,1,-5,5,-1,-2,-2,-1,-1
1532068773983,-3,-2,-3,-9,-3,-2,-1,-2
1532068773988,1,0,-8,-6,2,1,0,0
1532068773993,-2,-7,0,4,8,0,-1,-4
1532068773998,0,2,0,2,-7,-1,0,-1
1532068774003,1,8,-2,-17,0,-1,-2,-1
1532068774008,-2,-10,-5,3,-3,-3,-1,1
1532068774013,-2,2,1,5,-4,-2,-1,0
1532068774018,-3,-15,-5,-6,-1,0,-2,0
1532068774023,-2,2,-5,1,-3,-3,-2,-3
1532068774028,2,7,2,3,0,-1,-2,-1
1532068774033,0,-6,0,-10,-8,-2,0,0
1532068774038,-1,-5,-2,8,16,2,-1,-2
1532068774043,-2,-6,2,3,-12,-3,0,0
1532068774048,-1,2,-6,-2,-3,-3,-1,-2
1532068774053,-1,-2,-2,-7,2,2,-1,-1
1532068774058,0,12,-6,2,-10,-2,-4,-1
1532068774063,-1,-10,7,0,15,2,0,-2
1532068774068,1,8,-4,-1,2,0,0,-2
1532068774073,-2,-7,-8,-4,-4,0,-2,-3
1532068774078,-4,-3,3,3,9,0,1,-2
1532068774083,-2,4,3,-1,-2,-2,-2,0
1532068774088,-1,-9,-1,-3,-8,-3,0,1
1532068774093,-1,-1,-1,0,2,0,-1,-3
1532068774098,1,2,3,2,-1,-2,-1,-2
1532068774103,0,3,-1,-1,-1,1,-2,1
1532068774108,-2,4,-3,2,-4,-2,-1,-2
1532068774113,-1,-6,0,-2,2,0,2,-1
1532068774118,-3,-5,-2,-4,-9,-4,-2,-3
1532068774123,-1,-1,7,1,-2,-2,-2,-2
1532068774128,2,3,-6,-1,1,1,2,0
1532068774133,1,-6,4,1,11,-1,0,1
1532068774138,-1,2,-2,-2,-22,-3,-2,-1
1532068774143,0,5,1,1,-1,-1,2,-1
1532068774148,-3,-12,-2,-1,0,-1,-2,-1
1532068774153,0,4,2,-1,0,-1,0,0
1532068774158,-4,-6,-6,-3,-7,-2,-3,-3
1532068774163,0,0,-1,2,2,-1,0,-3
1532068774168,-1,3,3,-2,-2,-1,-1,0
1532068774173,0,-1,-2,-2,2,2,-1,-1
1532068774178,2,4,3,2,7,-2,-1,3
1532068774183,0,8,3,2,-4,0,0,0
1532068774188,-3,-18,0,-8,-1,-2,-4,-4
1532068774193,-4,-5,-7,-4,-7,-2,-3,-1
1532068774198,1,1,3,3,3,1,1,-2
1532068774203,-2,-4,-9,3,-1,-1,-1,1
1532068774208,0,6,8,-1,-3,0,-2,0
1532068774213,0,3,-1,-1,-3,-2,-2,-1
1532068774218,-1,-7,-2,-2,3,-1,0,-2
1532068774223,0,-9,14,1,0,-1,1,2
1532068774228,-1,4,-7,-1,4,0,0,-3
1532068774233,0,-5,0,-1,-1,-1,-2,0
1532068774238,-1,4,1,1,-2,0,-1,-1
1532068774243,0,-2,-1,-3,0,-1,-1,0
1532068774248,0,11,-1,1,0,0,1,-2
1532068774253,1,-9,-14,-1,6,2,1,-1
1532068774258,-1,2,32,5,0,-1,-1,1
1532068774263,-2,-3,-5,-3,-2,-2,-3,-4
1532068774268,1,7,8,4,4,-1,-2,1
1532068774273,3,2,-4,0,-2,0,2,1
1532068774278,0,3,-13,-1,1,1,1,-1
1532068774283,-2,-6,-5,-4,2,-1,-1,-2
1532068774288,-3,3,1,5,-5,-1,0,1
1532068774293,-3,1,-11,-12,0,-4,-1,-4
1532068774298,-2,-3,9,-3,-6,-1,-3,1
1532068774303,0,6,5,2,2,-2,0,0
1532068774308,-2,-1,-12,-14,5,1,-1,-1
1532068774313,-3,-4,-1,-11,-12,-2,-2,-2
1532068774318,2,4,-4,5,0,0,0,-1
1532068774323,-2,-4,0,0,-1,-3,-1,-2
1532068774328,-1,-6,-1,1,0,-1,0,-4
1532068774333,1,-1,9,1,3,1,-1,0
1532068774338,0,-1,-7,-2,4,-1,-1,-1
1532068774343,6,5,-10,-3,-1,0,-1,1
1532068774348,-4,-11,6,-5,-7,-2,0,1
1532068774353,-1,2,28,13,2,0,0,2
1532068774358,-1,1,-10,-3,4,1,1,-1
1532068774363,-4,-19,7,3,-5,-2,-2,-3
1532068774368,3,-1,-10,-1,2,2,0,-1
1532068774373,0,3,-1,1,-3,-2,3,2
1532068774378,2,11,-3,-5,-3,0,-1,2
1532068774383,-1,-10,-7,-4,1,2,1,1
1532068774388,-1,-4,-5,-2,-3,-3,-1,-3
1532068774393,-2,-4,1,0,-4,0,-4,-1
1532068774398,0,-1,-6,-1,2,-2,-1,-2
1532068774403,-1,8,11,4,1,-1,-1,-1
1532068774408,3,3,-1,-9,-1,-1,0,1
1532068774413,-5,1,7,2,-3,-4,-2,-3
1532068774418,-2,-8,-6,-6,-9,-6,-4,0
1532068774423,2,2,1,0,11,4,1,3
1532068774428,1,0,-1,2,-17,-4,-2,-3
1532068774433,-2,2,-5,-1,0,0,-1,-2
1532068774438,-3,-8,-1,-1,3,0,-1,-4
1532068774443,0,3,-5,-4,-5,-2,0,1
1532068774448,-3,3,3,8,12,2,-2,-7
1532068774453,2,-2,-13,-3,-8,-5,-5,0
1532068774458,-2,-5,0,-4,-2,1,1,-3
1532068774463,0,6,-19,1,1,-1,-1,-1
1532068774468,0,-7,31,7,11,3,4,7
1532068774473,-2,1,6,5,-5,0,1,-4
1532068774478,-1,-4,-9,-8,-8,-2,-1,1
1532068774483,-4,2,-23,-17,-1,-1,0,0
1532068774488,5,-7,-6,16,-7,-3,-2,1
1532068774493,-1,12,-1,-4,6,3,0,-3
1532068774498,-2,-10,6,-1,4,-1,0,-1
1532068774503,0,-2,-5,-10,-3,-1,-3,-3
1532068774508,-2,3,3,9,4,0,-3,-2
1532068774513,1,13,-4,0,-6,-2,-2,-1
1532068774518,-2,-5,-7,2,0,2,2,-1
1532068774523,-5,-9,11,-2,-3,-1,-2,-3
1532068774528,-4,-1,-4,-7,-1,1,0,-2
1532068774533,2,-3,-5,1,5,-2,1,-4
1532068774538,-1,5,2,1,0,0,-2,0
1532068774543,-3,-1,9,5,-7,-4,-3,-4
1532068774548,-3,6,-15,-11,-1,-2,-3,-2
1532068774553,-2,-5,1,0,-2,-3,-1,3
1532068774558,0,1,3,6,4,1,0,0
1532068774563,-3,-1,6,7,4,-3,-1,-3
1532068774568,-2,2,-16,-14,-17,-4,-1,0
1532068774573,1,-6,2,-9,0,0,0,0
1532068774578,3,15,3,7,-2,0,1,2
1532068774583,-2,-14,7,-3,-2,0,1,0
1532068774588,-3,-2,-13,3,3,-1,-1,0
1532068774593,2,-6,0,2,-4,0,0,1
1532068774598,2,4,-2,5,5,0,-1,2
1532068774603,2,8,-7,2,-6,-3,-3,0
1532068774608,-2,-6,19,2,1,-2,2,1
1532068774613,-1,-12,-6,-7,1,0,-1,1
1532068774618,0,5,8,3,-1,-1,2,-4
1532068774623,2,1,-2,6,3,3,3,-1
1532068774628,1,-4,-6,-4,10,-2,-2,2
1532068774633,-1,6,3,4,-16,-2,1,1
1532068774638,0,-6,-6,-19,-3,0,-1,-3
1532068774643,0,1,4,0,-1,-1,1,0
1532068774648,3,3,-3,3,2,-2,0,0
1532068774653,-3,-8,5,6,7,1,0,1
1532068774658,-1,-4,10,2,1,0,-1,2
1532068774663,-2,-3,0,-2,-5,1,1,2
1532068774668,-1,7,4,-1,-4,1,-1,-3
1532068774673,0,-3,-8,-3,1,-1,-2,-4
1532068774678,-1,-5,2,6,-5,-1,-1,-3
1532068774683,-2,-3,-8,-1,7,0,-1,2
1532068774688,0,12,16,4,-3,0,0,0
1532068774693,-4,-20,-5,-15,0,-2,-1,-4
1532068774698,-1,3,-22,-2,5,-1,-4,-3
1532068774703,0,-2,21,7,-3,-1,-2,-1
1532068774708,-3,-2,-9,1,-3,-1,0,-1
1532068774713,0,9,3,-2,3,-1,-2,-2
1532068774718,-1,-3,-3,5,-6,-1,1,1
1532068774723,0,-1,-7,2,0,1,-1,3
1532068774728,-2,-1,-2,-3,-7,-2,-1,-1
1532068774733,5,5,3,3,4,-2,-2,-1
1532068774738,-4,-5,-5,3,-1,-2,-2,-2
1532068774743,7,4,4,-19,-4,-1,0,2
1532068774748,-2,-3,-2,2,-1,-3,-2,-3
1532068774753,-3,1,-4,0,-2,-1,0,1
1532068774758,-1,-7,6,-7,0,1,-1,0
1532068774763,-2,6,-6,13,-1,-2,-1,-5
1532068774768,-4,-24,6,-4,-3,1,1,1
1532068774773,-2,-1,-4,1,-2,1,-1,1
1532068774778,1,1,1,-5,-1,0,0,1
1532068774783,-5,-3,-1,-5,2,-1,-3,-4
1532068774788,-4,11,-20,3,4,-3,-1,-1
1532068774793,0,2,17,-11,-5,2,1,0
1532068774798,-3,-16,-5,-3,-4,0,0,0
1532068774803,-2,-4,1,4,0,1,-1,-5
1532068774808,-3,10,1,-3,3,-4,0,1
1532068774813,5,-6,-4,2,2,-2,-1,1
1532068774818,2,6,-7,-11,-4,-2,-1,-2
1532068774823,0,-3,5,-1,-2,1,1,1
1532068774828,4,0,1,0,1,0,-2,-1
1532068774833,-2,2,0,0,3,0,-2,-2
1532068774838,-1,2,5,6,-2,-2,-1,3
1532068774843,-2,-3,-18,-2,-7,-1,-2,-3
1532068774848,-1,-1,1,-7,-2,-2,-2,1
1532068774853,-1,6,-1,0,2,-1,-1,-1
1532068774858,-1,-9,-1,0,2,-1,-2,-3
1532068774863,0,11,3,-8,-2,-1,-2,0
1532068774868,2,-2,-2,-2,-2,0,0,-2
1532068774873,-2,-5,-3,1,-3,-5,-1,-3
1532068774878,-1,4,1,-2,-4,-2,-1,1
1532068774883,6,6,5,-2,-1,-2,0,0
1532068774888,0,-23,-7,2,2,1,-1,1
1532068774893,-1,4,-1,7,2,-1,2,-4
1532068774898,1,13,15,-2,10,0,0,0
1532068774903,-5,-18,-21,-9,-20,-4,0,1
1532068774908,1,2,-2,15,0,-1,-2,-1
1532068774913,-3,-1,-5,-3,-3,0,-3,-3
1532068774918,-1,5,-15,-1,2,-1,-1,-1
1532068774923,0,3,30,1,7,1,-2,-2
1532068774928,0,3,-2,-7,-3,-2,-1,-2
1532068774933,-2,-8,-7,2,1,0,-2,1
1532068774938,0,5,-1,4,-2,-2,-2,-3
1532068774943,-3,-4,-17,-4,2,-1,-2,0
1532068774948,-1,-2,-4,-5,-1,1,-1,-1
1532068774953,-5,-3,-1,-1,-5,-1,1,1
1532068774958,8,-1,-1,4,-1,-1,0,0
1532068774963,0,-1,-3,0,-1,-2,0,2
1532068774968,0,2,2,-7,3,1,1,-2
1532068774973,-1,2,-8,0,-1,-1,-1,0
1532068774978,-3,-8,2,5,-3,-4,-1,-2
1532068774983,-2,4,1,3,0,0,-1,-1
1532068774988,2,-9,8,-4,0,-1,-3,-1
1532068774993,-3,-4,3,8,1,0,-1,-1
1532068774998,-8,-2,0,-21,-7,0,-1,0
1532068775003,-1,2,-3,0,2,-1,-2,0
1532068775008,0,4,7,0,-2,0,-1,0
1532068775013,0,2,0,2,2,1,0,0
1532068775018,-6,-10,-3,-11,-4,-1,0,-2
1532068775023,-1,1,6,-4,5,-1,-1,-3
1532068775028,-1,8,-18,-5,-7,-2,-1,0
1532068775033,-2,-16,25,5,10,0,1,-1
1532068775038,2,6,8,4,-16,-1,0,1
1532068775043,1,3,-8,0,1,1,-3,0
1532068775048,-2,-9,-6,13,-1,0,1,-3
1532068775053,2,9,-5,-4,0,1,0,0
1532068775058,-3,-3,-4,-2,3,-1,1,-1
1532068775063,-1,-5,-2,0,0,-1,0,0
1532068775068,2,8,6,2,-1,0,-2,-1
1532068775073,0,6,-9,-7,-5,-1,-1,-1
1532068775078,-3,-16,2,7,4,1,-1,-3
1532068775083,-3,6,-9,0,-4,-1,0,-2
1532068775088,-2,-3,10,-2,2,-2,0,-1
1532068775093,0,-2,-6,-3,-6,-2,-1,1
1532068775098,-2,-6,-4,-10,1,-2,-2,-2
1532068775103,0,-2,12,0,-8,-2,-1,-1
1532068775108,0,18,-11,-2,4,1,1,-1
1532068775113,-4,-38,11,4,-3,0,4,-2
1532068775118,-2,-5,-39,-14,-6,-3,-3,-4
1532068775123,-2,-3,6,-1,1,0,0,3
1532068775128,-1,-1,-4,-6,-1,-2,-1,-3
1532068775133,4,12,19,4,3,-2,-3,1
1532068775138,0,-1,3,-3,0,0,1,2
1532068775143,-2,-5,-3,5,-1,-2,0,-3
1532068775148,-1,-5,4,-5,0,0,1,-3
1532068775153,1,2,-14,-6,0,-1,-2,0
1532068775158,-1,-4,8,5,-3,-1,-1,-3
1532068775163,1,8,0,3,-2,0,0,-1
1532068775168,0,0,9,4,1,0,-1,5
1532068775173,0,1,-1,-12,-3,0,1,16
1532068775178,2,10,14,5,3,1,-1,11
1532068775183,1,-1,-4,0,-1,-1,-2,3
1532068775188,-3,-5,35,7,2,0,-4,-7
1532068775193,1,-1,-4,-2,-2,-2,0,-11
1532068775198,-4,-12,-32,-5,-2,0,-2,-9
1532068775203,1,1,8,9,1,-1,-1,-7
1532068775208,5,13,-2,13,2,3,3,-5
1532068775213,-12,-17,-52,-17,-6,-5,-5,-11
1532068775218,3,11,29,5,1,2,1,1
1532068775223,1,4,-36,-8,0,-1,-1,-3
1532068775228,0,-12,31,9,-2,-2,-2,-1
1532068775233,0,4,-2,-9,-2,-1,-2,0
1532068775238,-3,5,6,16,0,-1,-1,-4
1532068775243,-3,-14,19,-10,-5,-1,-2,0
1532068775248,2,8,-15,-6,-2,0,2,1
1532068775253,-1,0,5,5,1,0,1,0
1532068775258,1,-1,0,9,2,-1,1,1
1532068775263,-2,6,16,-7,-1,-2,-3,-2
1532068775268,-3,-14,-18,-10,0,-2,-1,0
1532068775273,1,7,17,10,-1,-2,-1,-1
1532068775278,-1,10,24,5,3,0,-2,1
1532068775283,0,-3,-24,0,0,1,-1,1
1532068775288,-3,7,-10,-10,-4,-1,-1,-1
1532068775293,0,-20,-13,1,3,2,1,-1
1532068775298,-2,-2,17,-14,-4,-3,-1,-1
1532068775303,1,10,23,8,2,0,0,3
1532068775308,1,2,-5,-6,0,-1,-2,2
1532068775313,2,52,-12,0,4,0,2,3
1532068775318,-7,-61,3,5,5,-2,-4,-11
1532068775323,1,4,-5,28,-6,-3,-1,1
1532068775328,-5,-3,2,-22,-13,-5,-5,2
1532068775333,0,10,28,-15,-7,-1,-1,5
1532068775338,3,11,-26,-3,1,-1,2,-2
1532068775343,0,2,-9,-9,8,1,-1,-3
1532068775348,1,0,-10,7,5,0,2,1
1532068775353,1,-6,-17,-1,0,0,-2,-2
1532068775358,-3,1,48,-2,0,-1,-1,1
1532068775363,-1,-8,5,-6,-6,-3,-2,0
1532068775368,-2,-5,-24,5,1,2,-3,-2
1532068775373,-1,-8,8,-4,0,-1,0,-3
1532068775378,0,8,-13,1,0,0,0,2
1532068775383,1,6,24,8,1,1,1,2
1532068775388,-3,-13,-4,-10,-3,0,0,-1
1532068775393,-1,-6,-9,24,1,-1,-2,4
1532068775398,2,16,-3,9,-2,3,2,4
1532068775403,-4,-18,-62,-45,-8,-4,-2,-4
1532068775408,1,-2,-6,11,6,1,1,2
1532068775413,19,4,-20,-4,-4,-2,-1,-3
1532068775418,-33,-14,0,12,-11,-6,-4,-1
1532068775423,3,4,-3,-2,6,2,0,-3
1532068775428,1,-8,-11,-9,0,-1,1,-3
1532068775433,-5,-3,0,34,-1,-1,-2,-3
1532068775438,28,9,7,-5,9,2,1,-4
1532068775443,-10,-6,6,-16,-19,-8,-6,-2
1532068775448,-5,-1,2,10,-4,-3,-6,-1
1532068775453,-2,-1,21,-10,3,0,-1,0
1532068775458,8,11,-1,10,0,0,3,1
1532068775463,1,-4,-4,5,8,5,5,-3
1532068775468,5,4,22,8,0,-2,0,1
1532068775473,1,-1,-84,-26,-3,1,4,-2
1532068775478,-5,8,77,32,11,1,0,3
1532068775483,-1,-1,6,-7,0,-1,-2,-1
1532068775488,-6,0,14,37,0,-1,-2,1
1532068775493,-2,-9,-42,-14,-13,-4,-3,-3
1532068775498,9,-3,2,-14,-1,-1,1,2
1532068775503,-24,-14,-36,2,-4,-5,-3,-4
1532068775508,5,2,8,-3,4,0,0,2
1532068775513,-7,-8,22,-3,2,-1,-1,0
1532068775518,11,19,-22,-23,-7,-1,0,-1
1532068775523,1,-17,-64,-2,-3,-1,0,-1
1532068775528,8,-6,64,-13,2,-1,-2,2
1532068775533,-15,-4,-9,3,3,-1,-2,-2
1532068775538,-5,-1,-6,-25,-11,-4,-5,-4
1532068775543,8,1,21,3,11,5,5,6
1532068775548,-3,-1,-19,23,-3,-1,2,-1
1532068775553,10,4,-9,-49,-6,1,3,-2
1532068775558,-4,1,50,29,-2,-4,-3,5
1532068775563,3,7,32,-2,4,1,1,-1
1532068775568,-4,0,14,17,6,0,-3,0
1532068775573,-2,-4,70,38,5,0,1,2
1532068775578,-3,-7,-124,-54,-5,0,3,-4
1532068775583,1,4,80,16,-1,-2,-3,-3
1532068775588,5,9,-16,-30,-7,1,5,-1
1532068775593,-4,-6,64,27,9,-1,-7,2
1532068775598,16,-8,-62,-11,-7,1,-1,2
1532068775603,6,1,13,5,2,0,-1,-3
1532068775608,-3,2,-38,-1,-5,-1,1,-3
1532068775613,-3,2,20,-1,-5,-3,-3,-4
1532068775618,-4,-3,-20,12,1,0,1,-1
1532068775623,3,5,5,9,-2,-1,0,2
1532068775628,-4,-12,-29,2,3,-2,-4,-5
1532068775633,-1,0,-20,-17,-7,-5,-3,-1
1532068775638,-4,-9,20,0,-2,-1,-1,-3
1532068775643,2,2,-1,5,2,1,-1,2
1532068775648,-6,10,10,-1,2,1,-1,-2
1532068775653,-1,-2,-2,5,0,-1,-1,-1
1532068775658,-2,1,-32,-4,4,1,1,-2
1532068775663,-2,-1,-42,-8,0,2,1,-3
1532068775668,-3,0,79,10,-6,-2,-2,0
1532068775673,8,9,-29,5,3,3,5,1
1532068775678,-9,-9,53,2,8,0,-4,-1
1532068775683,1,0,16,14,-1,-1,-2,1
1532068775688,2,-2,-71,-15,-2,0,-1,-3
1532068775693,0,7,19,11,-7,-2,0,-3
1532068775698,-1,1,22,3,-1,1,2,-3
1532068775703,-1,-1,10,-25,-5,-5,-1,-2
1532068775708,-4,-8,36,5,0,-1,-4,0
1532068775713,2,-6,-27,-11,0,3,4,1
1532068775718,-11,-20,17,25,-8,-8,-7,-6
1532068775723,-3,-4,-73,-25,-7,-3,-4,-3
1532068775728,-4,0,26,-11,-4,0,-2,0
1532068775733,0,-6,8,-13,1,1,-2,-2
1532068775738,5,20,4,6,-1,2,2,0
1532068775743,-5,-19,-26,-4,3,-1,0,0
1532068775748,0,3,-10,4,12,0,-3,1
1532068775753,-6,-15,-50,-43,-18,-5,-4,-7
1532068775758,-3,-6,-44,-34,-3,0,-1,2
1532068775763,0,3,-18,33,6,1,-2,-1
1532068775768,-2,-2,-20,-2,-6,2,0,-1
1532068775773,1,7,23,15,5,0,0,4
1532068775778,2,2,-26,-8,-3,1,1,0
1532068775783,-6,-10,-1,2,2,-2,-4,-3
1532068775788,-1,-13,-12,-15,-9,-5,-1,-3
1532068775793,0,4,31,-5,-6,2,1,3
1532068775798,-3,-22,-53,1,4,0,-1,-2
1532068775803,-4,7,50,13,-2,-1,-4,0
1532068775808,3,-2,-7,6,-4,-1,0,2
1532068775813,-2,-4,-8,-3,3,-2,1,-3
1532068775818,1,-3,-26,-20,-5,-3,1,1
1532068775823,7,19,27,28,3,1,2,2
1532068775828,-3,-3,30,31,12,1,-2,2
1532068775833,-3,3,12,-9,-6,-1,-3,-2
1532068775838,4,-3,-37,0,3,4,3,-2
1532068775843,3,11,26,12,-1,-3,-1,3
1532068775848,5,12,16,8,-2,1,1,-2
1532068775853,-7,-15,23,19,14,-1,-3,0
1532068775858,-1,-7,-1,-9,3,-1,0,-1
1532068775863,-4,-17,-19,-28,-18,-5,-2,-3
1532068775868,-1,-4,-21,13,-2,1,0,-1
1532068775873,-1,0,-23,-5,-7,-3,-1,-1
1532068775878,0,11,37,5,12,0,1,-4
1532068775883,-2,-11,-28,-19,-2,-2,-1,0
1532068775888,1,17,17,-2,-12,-4,-1,-3
1532068775893,-1,-9,29,5,8,2,3,3
1532068775898,-1,7,-8,13,-2,-1,-3,-1
1532068775903,1,-13,-30,-32,4,-2,-1,-4
1532068775908,-3,3,-15,26,-9,-4,-3,-6
1532068775913,0,3,0,-9,1,0,-1,-2
1532068775918,2,12,-1,5,0,0,0,1
1532068775923,4,11,63,34,6,3,1,1
1532068775928,-8,-9,-48,-21,8,-2,-3,-1
1532068775933,0,-4,4,-4,-4,0,0,0
1532068775938,0,0,-28,-6,-13,-3,-2,-3
1532068775943,-5,-5,33,12,8,3,1,2
1532068775948,-2,-1,84,-33,-15,-5,-4,-4
1532068775953,0,2,25,9,17,0,0,0
1532068775958,-1,-2,-30,7,-40,-7,-2,0
1532068775963,-2,-1,-51,-43,-1,-1,1,-2
1532068775968,2,-5,19,16,2,0,0,-1
1532068775973,0,3,-3,2,-1,0,-1,-2
1532068775978,-1,-2,8,-18,13,-2,-2,0
1532068775983,-3,-8,11,41,-3,-3,-2,-2
1532068775988,-1,-5,-52,-17,4,0,2,1
1532068775993,0,6,-12,-13,-5,-2,-3,-2
1532068775998,-3,-6,-20,-9,6,2,2,1
1532068776003,2,7,31,8,-6,-2,-1,-2
1532068776008,-2,-3,-18,-8,5,1,0,0
1532068776013,-3,-12,9,-3,-5,0,1,0
1532068776018,2,-4,4,1,8,-2,2,1
1532068776023,1,4,-13,10,-1,-1,0,3
1532068776028,1,-4,-10,-20,-3,1,1,0
1532068776033,1,5,-23,10,0,-1,-2,-4
1532068776038,-3,-7,27,21,-5,-2,-3,0
1532068776043,-3,-2,-6,-16,-4,-3,-5,4
1532068776048,2,1,-5,8,4,2,3,1
1532068776053,1,3,-2,-10,-4,-1,0,2
1532068776058,-3,-16,-46,-6,7,2,0,-6
1532068776063,1,5,-17,29,-3,-1,0,-3
1532068776068,-3,2,22,-3,1,-3,-3,2
1532068776073,0,-4,30,8,0,0,1,3
1532068776078,0,2,12,-18,8,0,0,-1
1532068776083,-2,-12,-3,7,-15,0,1,0
1532068776088,0,0,-14,4,0,-2,-1,0
1532068776093,-2,0,-14,-12,-5,-1,-3,-3
1532068776098,-1,9,13,12,-1,-2,-3,0
1532068776103,-1,-3,-9,-15,5,1,-3,-3
1532068776108,0,7,1,-1,1,0,-1,-2
1532068776113,-4,-5,-8,-4,-13,-2,-2,-1
1532068776118,2,11,-7,-18,1,-2,-3,-1
1532068776123,-5,-2,5,19,3,2,0,-1
1532068776128,-3,-10,-24,-8,-3,-3,-2,-1
1532068776133,0,8,-3,4,-1,-1,-2,-1
1532068776138,0,-11,3,-15,-6,-1,0,1
1532068776143,0,12,-3,-8,-3,-2,0,-3
1532068776148,-12,-1,16,10,-12,-2,-2,-1
1532068776153,-1,9,2,-19,2,0,1,-1
1532068776158,-2,-2,-10,15,-6,-2,-1,0
1532068776163,-6,-12,0,-7,8,3,-1,1
1532068776168,11,-2,-7,0,3,2,3,2
1532068776173,-1,6,2,0,-17,-5,-2,-1
1532068776178,-7,-6,4,-1,-6,0,-1,-2
1532068776183,5,-5,-8,-12,2,-2,-1,0
1532068776188,1,3,6,3,10,1,1,-4
1532068776193,-7,-2,-6,13,-10,-3,-2,-1
1532068776198,-5,5,-2,-6,-3,-1,-2,-2
1532068776203,-1,5,7,-5,-2,-3,-5,0
1532068776208,3,4,3,7,3,1,1,1
1532068776213,-3,-16,-9,-11,6,0,0,-2
1532068776218,3,13,10,5,-4,0,2,0
1532068776223,1,33,33,13,0,0,-1,-5
1532068776228,-8,-44,-17,-14,-4,-1,-1,4
1532068776233,8,0,11,-1,5,-1,-1,-5
1532068776238,1,-4,13,2,5,0,0,-9
1532068776243,-11,-56,-16,-2,4,-2,-3,-11
1532068776248,7,22,-9,0,-10,-3,-2,-5
1532068776253,-11,2,-2,-12,-1,-1,1,5
1532068776258,2,15,5,10,0,-1,-2,8
1532068776263,0,27,0,-37,3,2,1,6
1532068776268,-3,-19,-2,34,-2,-3,-4,-2
1532068776273,1,4,-1,6,16,3,0,6
1532068776278,9,-19,-7,-36,-19,-8,-5,0
1532068776283,-2,32,5,13,-1,-1,-3,5
1532068776288,5,-7,11,-26,-4,-1,0,6
1532068776293,3,110,27,10,4,3,2,4
1532068776298,-11,-96,-34,-1,19,3,0,-11
1532068776303,4,81,-30,5,-9,-4,-2,2
1532068776308,-13,-57,41,-28,-16,1,3,-14
1532068776313,8,-20,-61,36,11,-3,-2,-4
1532068776318,-3,37,23,-32,-25,-3,0,5
1532068776323,0,-19,-57,5,5,-3,-2,-1
1532068776328,8,68,27,21,11,-1,-1,6
1532068776333,-2,-9,29,39,3,2,2,-4
1532068776338,-3,-10,-4,-38,3,1,0,1
1532068776343,-1,-18,12,22,2,-1,-3,0
1532068776348,3,21,-18,-8,3,3,0,-3
1532068776353,0,-32,6,-13,-8,-4,-3,-2
1532068776358,0,10,-35,22,5,0,-1,-4
1532068776363,-2,-8,52,8,-2,2,4,-3
1532068776368,-5,9,-33,-8,-4,-4,-4,7
1532068776373,-3,-36,-2,-11,-2,-2,-2,-1
1532068776378,-2,-1,40,38,25,4,0,-1
1532068776383,-4,-28,-21,-46,-44,-6,-3,-1
1532068776388,-2,2,-9,18,3,-2,-3,-4
1532068776393,-3,-40,5,-28,11,-3,-5,-2
1532068776398,0,35,10,0,-49,-3,2,5
1532068776403,-4,-17,-1,14,12,1,0,-2
1532068776408,3,14,-36,-22,8,-4,-1,-3
1532068776413,3,21,7,4,-13,-2,1,-1
1532068776418,-5,-3,10,14,11,-3,-1,1
1532068776423,5,-6,17,-14,8,1,-1,2
1532068776428,-3,31,7,13,-5,0,-2,-3
1532068776433,-6,-26,-39,-6,-5,-3,-2,-2
1532068776438,2,-7,-8,-4,1,0,-3,-18
1532068776443,-5,1,-2,17,4,1,2,8
1532068776448,4,20,14,-10,5,1,5,3
1532068776453,-5,-22,3,-7,-7,-1,-6,2
1532068776458,3,6,-8,8,0,0,1,0
1532068776463,3,0,-16,-8,-2,-2,-3,-10
1532068776468,-2,-7,15,0,-1,0,2,7
1532068776473,2,9,9,2,-7,1,4,-5
1532068776478,2,3,-4,0,-2,-3,0,11
1532068776483,-11,-9,16,-3,4,0,-3,-14
1532068776488,0,-11,-9,9,-1,0,9,6
1532068776493,2,10,-14,-25,-1,2,-12,-5
1532068776498,1,9,9,20,0,-5,-1,7
1532068776503,-4,-9,-16,-31,-6,-2,-3,-16
1532068776508,-4,-11,25,28,-1,2,-1,-11
1532068776513,5,6,4,-16,-2,-2,-1,0
1532068776518,-2,2,11,-4,5,0,1,-4
1532068776523,2,2,24,16,1,-1,1,4
1532068776528,-3,-5,-5,-30,-6,-2,-4,0
1532068776533,-3,-1,-30,-4,6,-1,-3,-3
1532068776538,-11,-4,3,5,-1,0,-4,1
1532068776543,-3,-1,-9,3,0,0,3,9
1532068776548,4,1,10,4,2,-1,1,-4
1532068776553,-5,5,0,3,-3,-1,1,-3
1532068776558,1,1,-12,-8,-2,-2,-6,1
1532068776563,3,-1,3,4,-3,-2,9,6
1532068776568,2,3,-9,0,0,-1,9,-7
1532068776573,-13,-10,0,-4,-4,0,-33,-23
1532068776578,-27,3,-5,-9,0,-1,-6,1
1532068776583,11,5,6,-9,1,0,-9,-9
1532068776588,-14,-17,-2,15,4,0,6,-3
1532068776593,2,-2,-1,-4,-5,-1,18,9
1532068776598,14,2,1,-6,-1,1,-2,0
1532068776603,-4,-6,-4,6,3,-1,3,2
1532068776608,-4,3,-24,-9,-4,-1,-2,0
1532068776613,8,3,28,9,4,2,7,7
1532068776618,-7,-21,-1,5,-1,1,3,-1
1532068776623,7,4,0,-6,5,1,5,5
1532068776628,8,-4,-1,19,-3,-2,-10,0
1532068776633,-5,0,15,-13,-8,-4,-5,3
1532068776638,11,8,-6,-7,4,3,5,-4
1532068776643,13,-3,-1,-2,-5,1,-1,2
1532068776648,-24,0,17,-11,2,0,-9,-8
1532068776653,-9,2,-13,1,2,-1,7,3
1532068776658,5,6,5,4,-2,-1,4,-3
1532068776663,-1,-1,0,8,2,0,-11,-3
1532068776668,-3,-2,-18,-14,-1,-1,-5,12
1532068776673,7,2,-5,-6,-4,-2,5,-9
1532068776678,2,-8,1,-2,0,0,-4,3
1532068776683,-9,4,-12,6,0,0,-3,-14
1532068776688,0,-8,33,7,2,0,-1,-1
1532068776693,6,12,1,-29,-1,0,2,17
1532068776698,1,3,-30,21,3,-2,-11,-5
1532068776703,-7,1,-8,1,-3,-4,-2,-6
1532068776708,10,7,56,15,-4,-2,-4,13
1532068776713,-2,-6,-7,-17,-6,0,7,-10
1532068776718,1,3,-3,-5,-2,1,0,-6
1532068776723,-6,-8,3,1,-2,-1,-4,10
1532068776728,5,9,-21,3,4,1,8,5
1532068776733,0,-2,2,6,1,1,-8,3
1532068776738,-1,-2,5,-7,-1,-2,2,-2
1532068776743,-1,-4,-6,4,-1,-1,0,-1
1532068776748,3,-4,-10,-17,-2,-1,0,-7
1532068776753,2,8,1,24,-4,-3,2,-2
1532068776758,-4,13,3,-14,-1,-1,-5,-2
1532068776763,0,-42,17,2,2,0,3,-5
1532068776768,-1,0,-16,-5,-5,-2,2,-3
1532068776773,0,-5,-11,-1,0,-4,-7,-2
1532068776778,1,19,3,2,1,0,4,1
1532068776783,1,21,14,-4,-2,-1,2,3
1532068776788,-4,-15,-11,-7,-2,-2,-5,-8
1532068776793,-4,-9,-4,17,2,1,0,-1
1532068776798,2,-8,14,-17,0,-1,0,3
1532068776803,0,16,28,14,-1,2,0,3
1532068776808,4,4,-9,8,0,0,-5,-4
1532068776813,0,13,34,-1,-1,2,21,2
1532068776818,1,-26,-26,-6,2,0,-19,3
1532068776823,2,-11,-25,-7,1,1,21,7
1532068776828,8,51,18,0,-2,-1,-2,-3
1532068776833,-17,-22,22,1,1,-2,-16,-13
1532068776838,-2,-37,-45,0,-2,-4,0,-1
1532068776843,-1,6,-3,-1,-1,-2,-7,-8
1532068776848,1,-18,-21,-4,-2,-2,6,3
1532068776853,7,33,6,0,1,1,2,6
1532068776858,-2,8,13,1,-2,-1,6,0
1532068776863,-3,-12,-9,-2,-4,0,-8,4
1532068776868,0,8,-7,-12,-1,-1,-3,-1
1532068776873,2,-3,-8,12,-1,0,-2,1
1532068776878,-4,3,12,7,-3,-2,1,0
1532068776883,-1,-5,-13,8,1,0,1,1
1532068776888,-2,-12,-8,-22,-3,-2,-6,-2
1532068776893,-4,-13,-26,-5,-2,-1,-3,-4
1532068776898,-2,0,3,2,-1,0,5,-2
1532068776903,-4,17,7,0,-1,-3,-3,-4
1532068776908,6,-8,-5,3,-1,-1,-7,-5
1532068776913,0,-12,-4,-1,0,0,16,3
1532068776918,5,18,-1,-3,-2,-3,-22,-8
1532068776923,-11,-1,5,-3,-1,-1,-4,2
1532068776928,19,-18,-40,4,-1,-1,3,5
1532068776933,-3,10,29,1,-1,1,-1,-2
1532068776938,-5,-10,8,-1,-1,1,4,-3
1532068776943,-1,-2,-12,-9,1,0,-5,-2
1532068776948,-4,-3,15,6,1,-1,-2,-2
1532068776953,5,-3,-27,-3,-2,-3,-2,1
1532068776958,-2,9,14,4,-2,0,6,1
1532068776963,3,-1,-7,-11,0,-2,-5,-2
1532068776968,-7,-5,1,4,-1,-1,0,-2
1532068776973,1,-1,-2,-11,-1,-1,-4,0
1532068776978,-4,0,6,0,-1,-2,2,-2
1532068776983,-2,3,-6,0,-6,-4,0,4
1532068776988,-5,0,9,1,2,0,-1,-4
1532068776993,-2,-6,-12,-5,-2,-2,-4,-1
1532068776998,4,19,-14,2,2,0,2,1
1532068777003,-3,-17,16,-1,-2,0,1,-3
1532068777008,-9,-31,-40,-10,-5,0,-3,-9
1532068777013,0,0,8,5,-3,-1,-2,3
1532068777018,1,3,3,-2,-1,-1,2,-2
1532068777023,7,15,-9,4,0,-1,-2,-4
1532068777028,-7,2,0,3,-1,0,0,3
1532068777033,1,-2,5,1,1,2,0,0
1532068777038,-3,-3,1,-2,-2,0,0,-3
1532068777043,3,3,3,-1,-1,-1,-1,-1
1532068777048,1,8,7,-8,-3,-3,-2,0
1532068777053,4,11,-3,1,1,2,2,2
1532068777058,-6,-12,16,1,-2,-4,-2,1
1532068777063,-8,-11,-5,2,-2,-1,-2,1
1532068777068,10,5,1,-1,-1,-2,-2,0
1532068777073,0,-2,2,7,2,-1,-2,-2
1532068777078,-1,0,-6,-3,-3,0,0,4
1532068777083,-1,-7,-5,-8,0,0,0,-5
1532068777088,-2,11,10,6,0,-1,-1,1
1532068777093,-4,-10,-1,-5,-3,-3,-3,-3
1532068777098,2,-10,-11,-3,-2,1,0,0
1532068777103,0,8,-2,-2,2,0,-1,0
1532068777108,-4,9,18,0,-1,-1,0,2
1532068777113,-5,-12,2,0,-1,-1,-2,-1
1532068777118,-1,1,-4,-4,0,-1,1,-2
1532068777123,1,16,4,2,1,-1,1,3
1532068777128,-5,-13,4,4,0,0,-1,-2
1532068777133,-1,-11,-12,-5,-1,-3,-5,-3
1532068777138,1,-2,7,1,-2,0,0,1
1532068777143,-2,9,-3,-6,-1,0,1,0
1532068777148,18,29,17,-2,1,0,1,4
1532068777153,-12,-13,7,9,-3,0,-1,-3
1532068777158,-7,-10,-28,-7,0,-2,0,-4
1532068777163,22,0,6,-1,1,1,-1,0
1532068777168,-35,-11,-17,-13,-4,-1,-2,-3
1532068777173,5,17,-2,21,2,0,14,2
1532068777178,1,7,10,-40,-6,-2,-21,-5
1532068777183,-1,2,8,7,-1,0,1,5
1532068777188,-3,-17,3,7,1,1,15,-3
1532068777193,2,-11,-14,6,-1,-3,-25,13
1532068777198,-9,-3,8,8,-1,-1,38,-4
1532068777203,-10,-5,-6,-6,-4,-4,-42,-2
1532068777208,8,7,4,1,4,2,1,0
1532068777213,-21,-1,2,-1,4,1,3,-5
1532068777218,12,2,0,10,2,1,23,18
1532068777223,-2,-6,6,-7,-4,-1,-16,-10
1532068777228,1,-1,-10,7,-4,-1,-1,-3
1532068777233,4,16,0,-7,-1,1,0,2
1532068777238,-4,3,-1,-13,-5,-3,-11,-2
1532068777243,-2,-11,22,9,2,0,18,1
1532068777248,-2,-22,0,4,1,-1,-9,4
1532068777253,10,6,-1,-5,-2,0,1,-11
1532068777258,0,10,17,15,0,0,-7,-1
1532068777263,-1,-8,-17,-14,0,0,6,-2
1532068777268,-1,-3,-12,3,-2,-2,-5,-3
1532068777273,-1,-1,6,-9,-1,0,4,2
1532068777278,11,1,-2,5,0,0,-4,-5
1532068777283,0,3,-3,0,1,-1,5,2
1532068777288,-12,5,7,-1,-1,-2,0,-4
1532068777293,11,0,-7,-6,-4,-4,-2,-2
1532068777298,-1,-4,4,5,2,0,-9,-2
1532068777303,-1,5,-5,6,-1,0,22,9
1532068777308,-6,-3,-5,-25,-4,-1,-13,4
1532068777313,3,3,-5,3,0,-2,-6,-1
1532068777318,-4,-13,-14,5,-1,-2,0,-4
1532068777323,5,4,5,-3,-1,-1,1,1
1532068777328,-4,4,-15,8,1,-1,3,-1
1532068777333,-7,-7,16,-6,-2,1,5,1
1532068777338,5,-6,-4,4,0,0,-6,3
1532068777343,-8,-4,-10,-17,-4,0,13,-5
1532068777348,5,3,2,3,-1,0,-16,-1
1532068777353,-7,-1,-13,-3,0,1,1,2
1532068777358,1,5,18,7,-1,0,-3,-2
1532068777363,-2,0,12,12,3,1,1,0
1532068777368,7,-10,-19,-13,0,0,4,-4
1532068777373,-21,-3,1,-2,-6,-2,-4,-5
1532068777378,2,1,-2,-13,-2,-2,-2,-1
1532068777383,-2,-5,7,7,0,0,2,1
1532068777388,-3,2,3,2,1,0,-4,2
1532068777393,3,1,2,-2,0,0,1,1
1532068777398,2,4,-10,-2,-3,-4,-4,-2
1532068777403,-4,-6,-8,1,1,-1,-5,-4
1532068777408,5,-12,5,1,-1,0,4,-1
1532068777413,4,6,-7,3,2,0,-1,-3
1532068777418,8,0,-2,8,1,0,12,5
1532068777423,1,-13,-13,-16,-6,-2,-18,-5
1532068777428,2,7,6,-5,-2,-2,5,1
1532068777433,-4,2,0,1,-1,-1,-1,-4
1532068777438,-8,5,17,1,0,-1,-1,-4
1532068777443,1,13,-3,4,-1,-1,-2,-2
1532068777448,-10,-6,-14,15,2,0,3,-1
1532068777453,6,-15,-3,-32,-3,-2,1,1
1532068777458,-7,-3,-1,11,1,1,-5,0
1532068777463,-2,-3,-4,-3,1,-1,1,-1
1532068777468,10,11,11,5,-4,-3,-2,1
1532068777473,-9,2,-15,-20,-6,-3,-2,-1
1532068777478,2,-15,-6,-3,0,0,-5,-2
1532068777483,-2,5,1,-2,-1,0,-3,-3
1532068777488,4,4,16,9,1,-1,3,-2
1532068777493,3,-1,-6,7,1,0,-1,1
1532068777498,-8,-6,-25,-19,-5,-2,-3,-2
1532068777503,10,6,2,8,0,0,0,0
1532068777508,-19,-2,1,-6,1,1,-6,-1
1532068777513,2,3,16,13,2,-1,3,0
1532068777518,7,-3,-29,-2,1,0,-5,0
1532068777523,-20,-17,12,-13,-7,-2,-3,-8
1532068777528,13,4,-9,-5,-2,-1,5,6
1532068777533,5,4,30,8,1,1,-1,0
1532068777538,-6,3,-18,2,2,0,-2,-1
1532068777543,-2,-2,11,9,-3,-4,1,0
1532068777548,0,-3,1,-17,0,1,-3,-3
1532068777553,-2,-12,-4,11,-3,0,-3,-4
1532068777558,2,9,4,-1,-2,-1,-2,1
1532068777563,-2,4,-6,-7,0,0,-2,-1
1532068777568,1,-1,1,-2,-3,-3,-2,-4
1532068777573,7,10,-21,-2,2,-1,-1,2
1532068777578,-8,-11,-20,-9,-1,-2,0,0
1532068777583,1,-2,-6,5,-1,1,-2,-1
1532068777588,-2,-2,0,1,1,-3,-2,-1
1532068777593,-1,9,1,-3,0,-1,0,-2
1532068777598,-3,1,4,-6,-4,-1,-1,-1
1532068777603,0,-13,-3,4,3,-1,0,0
1532068777608,2,4,-7,-2,-3,0,-2,-1
1532068777613,-2,-2,-3,-2,-3,-2,-4,-3
1532068777618,0,7,11,-2,-1,-2,1,19
1532068777623,4,-12,-2,2,-3,0,1,17
1532068777628,-2,5,1,-2,3,0,0,2
1532068777633,0,-3,-5,-3,-2,-1,0,4
1532068777638,-1,3,15,7,0,3,0,-11
1532068777643,1,5,-1,-1,2,0,0,-10
1532068777648,-1,2,-2,1,-3,-2,-1,-4
1532068777653,-1,-15,3,2,0,0,-3,-14
1532068777658,-2,3,-2,0,0,0,1,-3
1532068777663,-1,6,1,-1,-2,-2,9,-2
1532068777668,0,-13,-4,1,0,-2,-13,-5
1532068777673,2,2,5,-1,0,0,1,-3
1532068777678,0,-1,11,1,1,0,-3,-2
1532068777683,0,-1,-5,-1,-1,0,1,-2
1532068777688,0,2,4,2,2,1,3,-1
1532068777693,-1,-2,0,-2,-3,0,-2,4
1532068777698,-1,-6,6,1,-1,-1,1,-2
1532068777703,-2,2,-11,1,0,0,-3,-1
1532068777708,0,1,7,-3,-4,0,1,1
1532068777713,5,-7,-9,-1,0,-4,-2,3
1532068777718,1,2,-2,2,2,-1,1,-7
1532068777723,1,4,2,-3,1,-1,-2,-5
1532068777728,-3,-2,-2,8,-4,-3,0,0
1532068777733,10,1,-1,-4,2,-1,1,1
1532068777738,-1,-1,7,16,2,-1,10,-4
1532068777743,-18,0,-9,-18,-5,-3,-21,-2
1532068777748,3,10,6,-9,-4,-3,0,-3
1532068777753,-6,-11,0,20,-1,-1,-1,1
1532068777758,2,2,9,0,3,0,0,-1
1532068777763,0,-8,-10,-17,-10,-2,9,-6
1532068777768,-8,1,-3,18,4,-1,-11,3
1532068777773,-6,7,-2,-16,-1,1,-2,0
1532068777778,2,-3,5,11,-2,-1,10,0
1532068777783,0,4,12,13,4,1,-18,-6
1532068777788,4,-11,-18,-23,-3,1,12,3
1532068777793,-22,-1,-8,-3,-3,-1,-15,0
1532068777798,-4,-16,-5,-3,-1,0,0,2
1532068777803,6,11,-9,4,2,0,6,0
1532068777808,-4,4,-20,-1,-1,-1,-2,-6
1532068777813,2,-7,12,7,1,1,6,-1
1532068777818,8,7,-7,-17,-4,-2,-8,-5
1532068777823,-8,-11,5,2,-1,-2,0,4
1532068777828,6,4,0,10,-2,-1,3,-3
1532068777833,-3,2,-4,-18,-4,-1,3,-2
1532068777838,-3,-4,-6,0,-3,-1,-6,1
1532068777843,11,5,5,23,5,1,-2,0
1532068777848,1,-7,-2,-42,-7,1,1,-5
1532068777853,0,10,9,12,0,-1,2,-3
1532068777858,-5,0,8,-1,0,-1,-2,0
1532068777863,5,-4,-6,10,1,0,14,1
1532068777868,-2,1,12,-8,0,-1,-17,-5
1532068777873,-9,-5,-6,8,-5,-3,0,14
1532068777878,22,2,-2,-2,-1,-2,-1,-2
1532068777883,5,1,0,-6,-2,0,8,-4
1532068777888,-21,-5,3,6,2,-1,-15,-5
1532068777893,5,6,-5,-9,0,1,4,1
1532068777898,-5,-5,2,4,-3,0,-9,-3
1532068777903,3,-1,0,0,-1,0,11,6
1532068777908,-11,-3,9,2,-2,1,3,7
1532068777913,3,-1,-10,-3,1,-3,-4,-4
1532068777918,-6,3,5,-2,-2,-2,3,4
1532068777923,2,-5,-4,-1,-1,-3,-2,1
1532068777928,4,-4,10,-8,-5,-1,6,3
1532068777933,2,2,0,-4,2,0,-3,-4
1532068777938,-9,2,-3,1,-2,1,2,1
1532068777943,2,3,-2,-14,-1,-2,-6,-1
1532068777948,1,-3,-9,-2,0,-2,1,4
1532068777953,14,1,-7,14,2,0,1,-6
1532068777958,-4,13,9,-42,-5,-4,-1,3
1532068777963,-3,-11,1,3,0,-1,-7,-6
1532068777968,21,-10,-3,17,3,1,6,-1
1532068777973,6,7,3,1,1,0,5,1
1532068777978,-22,-8,-3,2,0,0,-17,0
1532068777983,7,7,8,-1,-1,1,-3,-2
1532068777988,-7,-5,-14,-2,0,-2,10,13
1532068777993,10,2,4,3,1,-1,-3,-3
1532068777998,3,1,-5,5,1,0,9,-7
1532068778003,-15,-3,1,-4,-2,0,-7,13
1532068778008,17,11,3,12,1,0,-4,-4
1532068778013,-11,-11,-3,-3,1,2,0,-1
1532068778018,3,-4,-1,10,-5,-2,3,1
1532068778023,-8,-3,-9,-38,-7,-1,0,-2
1532068778028,-2,2,3,4,-1,-3,2,-2
1532068778033,-3,1,4,6,-1,1,15,-4
1532068778038,3,4,1,-14,1,0,-25,-2
1532068778043,-14,-7,4,24,0,-1,3,-11
1532068778048,-11,1,4,0,-3,-3,-2,-2
1532068778053,0,-2,-2,-12,-2,-3,-1,-3
1532068778058,-4,-4,1,16,5,1,4,-1
1532068778063,9,13,9,-4,1,0,-1,0
1532068778068,-2,-7,4,-4,-2,1,-1,-6
1532068778073,-5,3,8,5,-2,0,-2,6
1532068778078,-2,-2,-20,1,-3,0,4,-5
1532068778083,27,-16,-6,5,1,0,-6,9
1532068778088,-22,-1,-7,24,2,-1,0,-7
1532068778093,8,0,-4,-22,-2,1,-5,-3
1532068778098,0,6,0,8,-3,-2,10,0
1532068778103,-4,-3,-5,5,2,-3,-15,-3
1532068778108,6,-2,-2,-1,1,-1,-1,-5
1532068778113,1,12,25,14,1,-2,-3,3
1532068778118,-2,-20,4,0,-1,-1,1,2
1532068778123,-7,1,-3,-21,-4,-2,2,-6
1532068778128,1,2,19,15,3,2,2,2
1532068778133,-7,-9,-22,-5,-1,-2,-5,5
1532068778138,9,8,2,-9,-2,-2,0,-3
1532068778143,-6,1,2,12,-1,-1,2,0
1532068778148,4,2,0,-3,0,0,-3,-3
1532068778153,-19,2,5,-6,-1,0,0,-8
1532068778158,-7,-2,-6,1,-3,-3,-2,-1
1532068778163,-2,2,-2,8,2,-1,1,8
1532068778168,-6,-3,1,-8,-2,-1,1,-2
1532068778173,3,2,-2,16,3,1,5,-3
1532068778178,16,9,18,-13,0,0,-12,2
1532068778183,-7,-23,-27,7,1,-2,3,-12
1532068778188,3,4,-5,-22,-4,-3,-3,2
1532068778193,13,-10,-4,-4,-3,-2,-5,-6
1532068778198,-7,5,0,6,3,1,6,5
1532068778203,12,10,2,8,-2,1,-5,1
1532068778208,-19,-2,-8,0,0,1,-4,-3
1532068778213,1,-5,-3,2,-2,-1,0,0
1532068778218,-8,-4,9,-3,0,0,-1,-1
1532068778223,-5,-3,-10,-10,-2,-1,3,-1
1532068778228,14,1,-3,5,-1,-1,2,1
1532068778233,-10,2,-2,-11,0,0,-7,-4
1532068778238,2,-2,-3,5,-2,1,4,14
1532068778243,-6,-5,2,-6,0,1,-3,-6
1532068778248,5,1,-2,0,0,1,-1,-7
1532068778253,4,2,6,9,1,-1,1,-2
1532068778258,2,-4,-6,-4,2,-2,-4,-5
1532068778263,1,0,0,-16,-8,-1,7,7
1532068778268,-26,-17,2,6,-2,-1,-2,-3
1532068778273,7,-2,-38,-15,-4,-3,-3,1
1532068778278,-4,-4,1,34,2,1,2,-6
1532068778283,-3,8,9,-17,2,2,1,2
1532068778288,17,7,8,-12,-6,-4,-2,0
1532068778293,-7,-8,-8,9,1,-1,-1,1
1532068778298,-5,-10,-17,-15,-2,-1,0,-3
1532068778303,4,8,7,9,0,-1,0,-2
1532068778308,7,-2,-1,10,-1,-1,3,9
1532068778313,-3,-5,-7,-5,-3,0,-1,8
1532068778318,10,5,5,6,0,-2,-7,-13
1532068778323,-5,3,1,-7,-2,0,1,-3
1532068778328,1,0,0,-26,-6,-2,-3,-5
1532068778333,-4,-2,12,-17,-5,0,3,-1
1532068778338,-6,-1,-3,0,-4,-2,1,-1
1532068778343,1,3,-7,12,2,-1,-2,3
1532068778348,4,1,7,5,0,-1,2,1
1532068778353,-9,-8,1,0,2,1,-1,0
1532068778358,11,-3,-7,-12,0,0,-2,-3
1532068778363,-6,6,4,5,-2,-1,-3,-5
1532068778368,7,-13,-11,6,3,0,-1,1
1532068778373,1,-5,9,-8,-2,1,-1,-1
1532068778378,-5,4,3,5,-3,-2,-2,0
1532068778383,2,5,10,14,3,-1,2,2
1532068778388,-1,-4,-14,-2,0,-2,-2,-8
1532068778393,2,2,2,-31,-7,-2,-2,12
1532068778398,-4,-2,0,-17,-1,2,10,4
1532068778403,-1,-8,-3,2,0,0,-10,-2
1532068778408,2,6,12,11,3,1,-2,-1
1532068778413,0,6,-1,15,2,-3,-4,-6
1532068778418,-2,6,18,-14,-6,-3,2,-2
1532068778423,-5,-9,4,-7,-4,-2,3,1
1532068778428,14,2,1,-1,-1,-2,-1,2
1532068778433,-12,6,12,12,1,1,4,-4
1532068778438,8,-5,-10,4,-2,-1,-6,-2
1532068778443,2,-3,-9,3,1,0,0,-2
1532068778448,0,0,3,-17,-1,0,0,-4
1532068778453,9,8,-3,10,-1,-1,0,3
1532068778458,-7,-12,-8,-7,-2,-2,-3,-2
1532068778463,0,3,-1,21,1,1,-1,0
1532068778468,-3,-17,1,-53,-6,0,3,-1
1532068778473,0,0,4,15,-2,-2,-4,1
1532068778478,-5,2,2,4,0,0,0,3
1532068778483,1,-7,-4,6,-2,0,1,-2
1532068778488,-6,6,-2,11,2,0,3,1
1532068778493,5,-1,-5,0,-1,-4,-15,-5
1532068778498,2,-1,4,-1,0,1,2,2
1532068778503,-16,3,-8,-17,-6,-1,1,-1
1532068778508,-1,2,-1,13,1,-1,-3,3
1532068778513,-1,-5,-3,-12,-1,-1,4,-3
1532068778518,-4,6,2,23,3,-1,0,-3
1532068778523,6,1,-8,-36,-1,-2,-5,-3
1532068778528,-14,-5,-2,16,1,1,2,3
1532068778533,3,0,3,-7,-4,-1,1,-4
1532068778538,-2,4,-2,-4,1,0,-5,0
1532068778543,2,0,7,-2,0,-1,3,0
1532068778548,-3,-2,-9,16,2,-1,-4,-2
1532068778553,-1,-2,2,-7,2,0,1,-13
1532068778558,7,5,-4,2,0,-1,2,-9
1532068778563,-2,-6,4,4,0,-1,-6,-4
1532068778568,-1,5,0,3,0,-1,0,2
1532068778573,-1,1,-3,10,1,-1,-3,5
1532068778578,0,-19,-5,-11,-4,-1,5,4
1532068778583,6,-1,32,19,2,-1,1,4
1532068778588,-12,4,1,6,-1,0,-4,0
1532068778593,1,-5,2,-2,-3,0,5,4
1532068778598,-10,2,-1,-18,-2,0,-3,0
1532068778603,12,5,-16,1,-2,-3,-1,-3
1532068778608,3,-9,6,4,-2,-2,-2,6
1532068778613,-5,4,0,1,0,1,0,0
1532068778618,-1,4,0,4,-2,-2,-3,-1
1532068778623,0,-10,-6,-2,0,0,-3,1
1532068778628,1,4,-7,-3,-2,-1,1,-4
1532068778633,-2,-2,-2,7,1,0,2,-3
1532068778638,-2,2,-4,-10,-4,-2,-2,4
1532068778643,-2,2,0,-5,-1,0,1,2
1532068778648,0,-2,-2,1,-1,-1,-3,-1
1532068778653,-6,-4,2,7,1,0,3,6
1532068778658,0,-1,-6,-11,-3,-1,-3,-3
1532068778663,-5,0,9,4,-2,-1,14,-2
1532068778668,-3,-3,-14,-23,-4,-2,-21,-3
1532068778673,4,1,-2,0,0,-1,-1,-2
1532068778678,-9,0,7,14,3,1,0,1
1532068778683,3,5,-2,-8,-1,0,-1,-2
1532068778688,4,-2,0,-1,-1,-2,4,-2
1532068778693,6,-5,-12,-14,-3,-2,-3,1
1532068778698,-2,13,-7,1,-1,-3,-3,1
1532068778703,-5,-15,1,4,0,-1,-4,0
1532068778708,1,1,-4,8,1,0,2,-1
1532068778713,-3,2,6,-8,1,-1,-3,-3
1532068778718,2,-1,-4,4,2,1,1,-3
1532068778723,1,12,-1,5,1,-2,-5,-3
1532068778728,1,2,7,14,0,0,4,-12
1532068778733,-7,-8,-9,-28,-6,-2,-1,4
1532068778738,0,-4,0,-12,0,-1,0,-1
1532068778743,-3,-7,-7,2,-2,0,-2,1
1532068778748,-3,-2,7,7,0,0,2,-1
1532068778753,-3,-3,-3,17,0,-1,0,-3
1532068778758,21,8,31,5,2,0,0,3
1532068778763,-26,-5,-5,-12,-2,-1,-1,-1
1532068778768,9,-1,9,-2,0,1,3,-2
1532068778773,-2,4,7,-5,-4,-2,0,-1
1532068778778,0,-8,-15,1,0,1,-2,-1
1532068778783,6,-3,-4,2,-2,-1,3,2
1532068778788,0,0,8,8,2,0,-5,6
1532068778793,1,1,6,-1,1,-1,2,-2
1532068778798,-9,-5,-4,-3,-6,-3,-3,-3
1532068778803,3,3,-9,12,3,0,-3,-2
1532068778808,-3,-11,-12,-13,-5,0,7,10
1532068778813,2,-1,1,4,2,-1,-3,-7
1532068778818,-3,0,-2,6,1,-2,-2,2
1532068778823,1,1,0,-6,-2,-1,2,1
1532068778828,1,3,-6,1,0,-2,-1,1
1532068778833,-1,-4,6,2,1,0,0,1
1532068778838,-1,1,-2,-6,-4,-2,-1,-3
1532068778843,-8,-1,-1,-1,-1,-1,-3,-2
1532068778848,9,2,0,2,1,0,-1,-5
1532068778853,1,-1,1,-15,-3,-1,-5,-2
1532068778858,-16,0,-6,5,0,0,1,0
1532068778863,9,6,-1,-14,-1,-1,-2,0
1532068778868,-6,-9,-16,-11,-9,-4,-4,-1
1532068778873,-3,3,-15,5,-1,0,2,-3
1532068778878,4,-7,4,4,1,-1,-1,1
1532068778883,0,5,-1,1,0,0,-2,-3
1532068778888,-6,4,-21,-4,-1,-1,0,-1
1532068778893,-2,-4,-1,12,3,0,-1,-2
1532068778898,-2,0,-10,-36,-7,-3,-3,-5
1532068778903,1,4,9,7,-1,-3,-2,5
1532068778908,-2,7,-1,-7,-1,-2,1,-3
1532068778913,-2,-8,-1,8,-1,0,2,2
1532068778918,-1,-2,-4,14,2,-1,-5,-4
1532068778923,-5,-4,-4,-8,-2,-1,1,-5
1532068778928,0,5,12,0,1,1,-1,1
1532068778933,16,3,8,7,-1,0,4,4
1532068778938,-7,1,11,9,-1,-1,1,4
1532068778943,2,-14,-17,-6,-2,1,-5,-6
1532068778948,-6,1,3,2,-4,-1,3,0
1532068778953,6,1,-2,3,0,-1,-5,-4
1532068778958,-1,-7,-1,-1,-2,2,2,-2
1532068778963,2,1,6,7,1,-1,-1,1
1532068778968,-2,1,7,9,4,0,1,0
1532068778973,-7,7,-9,-7,-2,-1,-3,-3
1532068778978,1,-2,-4,-2,-3,-2,-2,-1
1532068778983,-4,1,1,0,-2,0,1,0
1532068778988,1,-4,6,-5,-2,1,3,-1
1532068778993,-1,-5,-5,4,0,0,-1,0
1532068778998,0,0,1,6,2,0,2,0
1532068779003,-2,-2,2,-3,-3,-2,-1,-2
1532068779008,3,4,3,-2,0,0,-1,-4
1532068779013,-5,-2,0,-8,-3,-3,-3,5
1532068779018,11,-4,-1,3,-1,1,0,-8
1532068779023,3,7,-11,-10,-2,-2,-4,-5
1532068779028,3,-1,6,0,-1,-1,-2,-2
1532068779033,-9,-3,-1,1,0,0,1,-4
1532068779038,-1,-3,3,6,2,1,2,3
1532068779043,2,-2,0,-14,-4,-4,-4,-1
1532068779048,-4,-1,-7,-4,-1,-2,-3,-1
1532068779053,2,4,4,-3,-1,-1,-3,-5
1532068779058,-4,-7,-11,0,0,0,0,3
1532068779063,-1,-5,12,9,2,2,0,-3
1532068779068,-8,-2,-2,-7,-1,1,0,5
1532068779073,14,0,2,-4,-2,-1,-1,1
1532068779078,-3,0,-1,-2,-2,-1,-1,-3
1532068779083,-5,-1,0,0,1,0,1,-2
1532068779088,3,0,0,-1,0,1,-1,1
1532068779093,-5,-2,3,8,0,-1,-1,1
1532068779098,3,5,1,-3,0,-2,-3,-4
1532068779103,-2,1,8,3,-3,-1,1,-4
1532068779108,6,2,-1,2,1,-1,-3,-6
1532068779113,-3,-4,-3,-3,-1,0,-1,2
1532068779118,0,4,12,0,1,1,0,5
1532068779123,-3,-5,-16,5,-1,-1,-1,-7
1532068779128,4,5,6,4,-1,-2,0,5
1532068779133,-7,-5,-2,-9,-1,-1,0,-4
1532068779138,-4,4,0,-4,-3,-1,-2,2
1532068779143,3,7,3,0,0,0,0,-2
1532068779148,-8,-7,-13,0,-1,0,1,-2
1532068779153,2,-2,42,5,1,1,1,1
1532068779158,-2,-4,-1,0,0,-1,0,3
1532068779163,-4,-3,1,-1,0,-1,0,-5
1532068779168,-5,2,-6,-2,-1,-2,0,-2
1532068779173,3,-5,-9,-2,-1,-2,-1,1
1532068779178,-1,-9,-12,6,-1,-1,0,1
1532068779183,2,4,9,-2,-1,-2,0,-2
1532068779188,-4,-3,2,-4,-1,-3,-2,-3
1532068779193,0,4,-10,2,-3,-3,-3,1
1532068779198,-4,-2,9,0,0,-2,-2,-5
1532068779203,6,8,-16,-15,-3,-1,-1,-1
1532068779208,-2,-4,3,-1,-2,-2,-2,3
1532068779213,-14,9,-7,-5,-1,0,0,6
1532068779218,11,-17,1,6,1,-1,0,-1
1532068779223,-2,-4,-8,19,3,0,0,-4
1532068779228,-2,2,-2,-42,-7,-3,-3,-1
1532068779233,0,-8,-4,6,0,0,0,-1
1532068779238,-5,11,5,5,-1,-1,-2,2
1532068779243,1,-3,5,1,1,-1,1,2
1532068779248,-5,-7,-4,3,-2,1,-1,-4
1532068779253,6,6,-9,-2,0,0,-1,0
1532068779258,-19,-7,-5,-6,-3,-1,0,-6
1532068779263,0,-5,1,5,-1,0,-1,-1
1532068779268,0,0,1,4,1,2,0,2
1532068779273,-3,0,-9,-7,0,-1,-2,-4
1532068779278,3,-2,-2,5,0,0,1,5
1532068779283,-4,4,-2,-10,-4,0,0,1
1532068779288,3,-3,0,3,0,-2,-3,-6
1532068779293,6,0,-14,-4,-2,-1,1,4
1532068779298,0,3,0,1,2,0,-2,-5
1532068779303,-4,1,1,0,-1,-1,-2,-3
1532068779308,7,2,-4,3,-1,0,-1,0
1532068779313,1,-9,25,8,0,-1,-1,-1
1532068779318,2,4,-3,0,-2,-2,-1,3
1532068779323,-2,-4,1,3,0,1,0,0
1532068779328,-6,4,5,-3,-1,-1,1,1
1532068779333,-2,-17,-16,-2,-1,-1,0,-4
1532068779338,0,5,-6,-7,-2,-2,-2,-1
1532068779343,-6,0,10,11,1,-2,1,0
1532068779348,1,1,-3,-27,-4,-1,0,0
1532068779353,-4,2,0,2,-1,1,-1,-5
1532068779358,1,5,-1,3,0,-1,-1,1
1532068779363,1,-10,-6,1,-1,0,-3,-4
1532068779368,-2,-6,-1,2,-2,0,0,5
1532068779373,6,0,-3,0,-2,0,-2,-4
1532068779378,-2,-1,-4,0,0,2,1,3
1532068779383,4,-4,0,-4,-2,-2,-1,6
1532068779388,-14,2,-2,8,1,-1,1,-2
1532068779393,6,-8,5,-3,-2,0,1,-3
1532068779398,1,0,-1,7,1,1,1,0
1532068779403,-2,1,0,-6,-3,-1,-2,-4
1532068779408,-2,-5,-3,10,0,0,-1,-1
1532068779413,-4,4,-5,2,-2,0,0,-3
1532068779418,2,0,-11,-5,-2,-1,-2,4
1532068779423,-1,3,1,3,1,-1,0,-1
1532068779428,-4,-9,12,4,1,0,1,-3
1532068779433,-7,4,2,-3,0,-1,-2,-2
1532068779438,3,-8,-6,-5,-1,0,-1,-3
1532068779443,-1,-9,-13,6,-1,-2,-3,-4
1532068779448,0,9,3,-3,0,-1,1,-3
1532068779453,5,4,-7,1,0,-1,-2,1
1532068779458,2,-2,12,1,0,-1,1,0
1532068779463,-4,3,-2,-22,-2,0,2,4
1532068779468,24,-8,-2,19,2,-2,-3,-7
1532068779473,-2,6,1,-9,0,0,0,2
1532068779478,-4,3,0,1,-3,-3,-2,4
1532068779483,-1,0,1,2,-1,-1,-2,-2
1532068779488,-4,3,-6,-5,-1,0,0,1
1532068779493,-2,-6,5,-2,-1,-1,0,0
1532068779498,0,-1,20,3,1,-1,0,-2
1532068779503,4,-1,1,-5,-1,-2,-1,-2
1532068779508,-7,0,-4,-1,0,-2,-1,6
1532068779513,2,4,3,1,1,1,-4,-5
1532068779518,-4,3,-2,-2,-1,1,1,0
1532068779523,-9,-15,-2,-6,0,2,2,-2
1532068779528,20,-4,-4,8,0,-1,-3,-7
1532068779533,-5,5,-5,1,2,-1,0,-3
1532068779538,-2,-12,-14,-20,-3,-1,-3,-8
1532068779543,0,9,3,5,0,-2,-2,-1
1532068779548,-8,-4,0,10,4,2,-1,0
1532068779553,-1,-10,8,-2,-1,0,2,6
1532068779558,5,8,0,4,-1,-2,-2,-3
1532068779563,-1,-3,0,-15,-4,-2,-3,0
1532068779568,7,4,-3,4,0,1,0,3
1532068779573,-5,4,-7,1,0,-1,-2,-4
1532068779578,-5,-8,-2,6,1,0,0,-1
1532068779583,2,7,1,8,0,0,-1,-4
1532068779588,-1,2,2,-7,-4,-3,-1,0
1532068779593,-2,-3,-4,-4,-3,-2,1,4
1532068779598,0,1,1,-6,-2,0,-1,1
1532068779603,2,1,-4,-1,0,1,0,1
1532068779608,-9,-3,5,-9,-2,-2,-3,-5
1532068779613,1,-2,-6,3,-2,0,-1,-2
1532068779618,-3,5,-1,3,-1,-1,-1,-2
1532068779623,-5,1,-4,-14,-3,-3,-1,2
1532068779628,4,-3,5,3,-1,1,-1,-6
1532068779633,1,-8,-4,-1,-2,-1,0,0
1532068779638,-5,0,1,-1,0,-1,0,9
1532068779643,2,1,4,7,1,1,2,-1
1532068779648,-10,1,-5,-13,-2,0,0,2
1532068779653,-3,1,-9,-3,-1,-2,-2,-2
1532068779658,3,-4,17,1,-1,-1,1,-1
1532068779663,1,2,4,3,0,-1,-1,-1
1532068779668,-7,-3,-7,1,-1,0,-1,2
1532068779673,0,4,-5,6,1,0,-2,-5
1532068779678,-4,-2,-8,-11,-1,0,-1,2
1532068779683,4,-8,-1,3,-3,-1,-2,-1
1532068779688,-2,5,6,0,-1,2,-2,-2
1532068779693,-1,7,10,-1,-2,-2,-3,2
1532068779698,-14,-6,-16,-5,-2,-2,-2,-9
1532068779703,-1,-5,9,2,-3,-2,1,1
1532068779708,1,-14,-13,-1,1,-2,-1,-1
1532068779713,-2,3,6,4,-1,-2,-1,-1
1532068779718,-1,3,0,0,-1,0,-1,3
1532068779723,17,-2,-1,2,-1,-3,-2,-6
1532068779728,-4,7,5,1,-1,0,-1,-1
1532068779733,4,-7,-1,-17,-4,0,1,-1
1532068779738,0,-12,-8,5,0,-2,-2,-4
1532068779743,-3,5,-1,-4,2,1,-1,1
1532068779748,-2,1,1,0,-1,-1,-1,-7
1532068779753,4,2,0,-1,1,0,-2,-1
1532068779758,0,0,8,0,-1,-1,0,-1
1532068779763,-5,2,-6,-2,-2,-3,-2,-2
1532068779768,-2,-1,1,0,-1,-1,-1,-1
1532068779773,-4,-4,-1,0,1,0,1,0
1532068779778,1,2,-2,0,-2,-1,0,-3
1532068779783,0,1,0,-2,-1,0,-3,-2
1532068779788,-1,-3,3,0,-2,-1,1,3
1532068779793,18,1,-1,11,1,-1,0,4
1532068779798,8,13,21,-17,-3,-1,-3,-3
1532068779803,-6,1,2,-3,-2,-1,-1,1
1532068779808,-3,-13,-13,-1,-2,0,-3,-1
1532068779813,-2,-4,8,1,-1,-1,0,-1
1532068779818,3,0,5,10,2,1,0,1
1532068779823,-1,7,3,1,1,0,1,-1
1532068779828,-1,4,4,-3,-3,-1,1,2
1532068779833,-6,-14,-14,-1,-3,-1,-1,-1
1532068779838,0,2,-6,6,0,1,-1,-6
1532068779843,-9,4,-2,-9,-3,-1,-1,-2
1532068779848,3,-3,5,2,-1,0,-2,-4
1532068779853,-4,-5,-9,-3,-1,-2,-1,4
1532068779858,-1,0,-2,0,-1,-1,0,-3
1532068779863,-6,-7,1,4,1,-1,0,-1
1532068779868,-1,8,-4,-4,-1,-2,-1,-3
1532068779873,-5,4,9,-4,0,1,0,-4
1532068779878,-2,-10,-3,4,-2,-1,-2,1
1532068779883,1,-2,-8,-12,0,0,-3,-1
1532068779888,-8,3,6,3,-1,0,2,1
1532068779893,-10,-5,-7,-5,0,1,0,0
1532068779898,14,-3,-1,-1,-1,-3,-2,0
1532068779903,1,5,0,1,1,-1,0,1
1532068779908,-3,-10,0,-4,-2,0,1,-1
1532068779913,-1,-1,3,0,0,-1,-2,-2
1532068779918,-6,-4,-7,-1,-2,0,-1,0
1532068779923,1,1,-3,2,-2,-1,-2,-3
1532068779928,2,4,-3,2,2,-1,-1,1
1532068779933,-7,5,6,-10,-4,-2,0,2
1532068779938,-1,2,-5,-1,0,-1,0,2
1532068779943,1,1,27,4,0,0,0,-2
1532068779948,-2,-5,-2,1,-1,-2,0,3
1532068779953,2,3,-8,2,-1,-1,1,-2
1532068779958,-4,2,10,-2,0,0,0,-1
1532068779963,2,-6,-11,4,1,0,0,0
1532068779968,-3,5,-3,3,2,0,0,1
1532068779973,7,2,4,-8,-2,-3,-1,3
1532068779978,-3,3,-7,-2,-1,0,-1,-6
1532068779983,-3,-7,-4,4,-1,-1,-1,6
1532068779988,-8,3,-3,-1,-2,-1,1,1
1532068779993,-2,4,-3,3,0,1,1,-3
1532068779998,-1,-5,-10,-1,-1,-1,1,0
1532068780003,-4,-1,-1,-2,-1,-2,-3,-2
1532068780008,1,-3,0,-2,0,-2,-3,-3
1532068780013,-3,0,2,4,0,-1,-2,-2
1532068780018,-2,4,-1,-16,-3,0,1,1
1532068780023,-3,-6,-3,2,-1,2,1,4
1532068780028,3,-3,1,-2,-1,-1,-2,1
1532068780033,1,1,-1,4,1,1,-2,-4
1532068780038,0,-1,-1,3,-1,-3,0,-1
1532068780043,-2,6,-5,-1,-2,-2,0,-2
1532068780048,-3,-14,-2,-3,-1,-1,-1,-2
1532068780053,4,-2,-12,-9,-4,-2,-2,-4
1532068780058,-4,-4,5,4,0,0,0,2
1532068780063,3,3,-3,2,-1,-1,-2,-3
1532068780068,1,5,-9,-6,-2,-2,-3,-5
1532068780073,-4,-1,5,3,1,0,-1,-1
1532068780078,-2,1,0,-2,-1,-1,-3,-1
1532068780083,1,5,26,3,1,0,-1,-2
1532068780088,3,2,4,2,1,2,0,-2
1532068780093,-2,-15,-6,6,-2,-2,-3,0
1532068780098,1,4,2,1,0,0,-2,-1
1532068780103,1,5,-5,-3,-1,-1,-2,-4
1532068780108,1,0,-10,-1,1,0,2,-1
1532068780113,-6,5,7,1,-1,-1,1,2
1532068780118,9,-2,1,3,2,-2,-1,-4
1532068780123,-3,-12,-3,-2,0,2,2,19
1532068780128,0,-3,4,-1,-2,-1,0,13
1532068780133,0,3,-6,-1,-1,-1,0,3
1532068780138,-4,-10,-5,-3,0,-2,-1,2
1532068780143,-3,-1,-11,-5,-2,-4,0,-12
1532068780148,-1,0,3,-1,0,-1,0,-8
1532068780153,0,-1,-1,0,0,1,-2,-10
1532068780158,-2,3,0,-2,-1,-1,0,-4
1532068780163,5,-2,-5,-1,0,0,0,-4
1532068780168,-3,-4,-3,1,-1,0,-2,-5
1532068780173,3,4,3,-2,-1,-1,-1,-4
1532068780178,0,7,4,7,-1,-1,-2,-4
1532068780183,-1,-10,-10,-21,-4,-1,-2,-1
1532068780188,-6,8,-2,1,-3,-1,-1,-7
1532068780193,6,-8,5,-4,1,0,1,3
1532068780198,-6,6,4,4,0,0,1,1
1532068780203,18,-9,-10,6,-2,-1,-1,0
1532068780208,2,-5,-12,-3,-1,-2,-3,-2
1532068780213,-4,-3,4,-2,-1,-1,-1,-1
1532068780218,-5,0,-11,-2,-1,-1,0,2
1532068780223,1,3,2,1,-1,1,-2,-9
1532068780228,0,3,2,0,-1,-3,0,1
1532068780233,4,6,2,2,-1,-1,0,1
1532068780238,4,-11,-2,-4,-2,0,-1,-1
1532068780243,-8,3,2,0,-1,0,0,-3
1532068780248,0,6,4,1,0,-2,-2,2
1532068780253,-1,0,20,-1,0,0,0,3
1532068780258,-2,-2,1,-2,0,0,0,-1
1532068780263,-3,1,-3,2,-1,-2,0,-2
1532068780268,1,3,8,-1,1,2,1,-1
1532068780273,0,-4,-7,-1,0,-2,-1,1
1532068780278,-2,-3,-1,2,-1,0,-2,0
1532068780283,-2,-1,0,-14,-2,0,-2,0
1532068780288,-1,-3,-2,4,-2,-1,-2,0
1532068780293,-11,1,-8,-3,-2,-1,0,-2
1532068780298,3,8,1,1,0,0,-2,-1
1532068780303,-1,-3,-2,2,1,0,0,1
1532068780308,-3,-6,-10,-5,-2,1,0,0
1532068780313,3,-2,-4,-2,0,0,0,-11
1532068780318,0,3,-1,6,0,-1,0,-3
1532068780323,-1,3,9,-4,-1,-1,1,8
1532068780328,4,-13,-18,-5,-3,-2,-6,-7
1532068780333,8,0,5,4,1,0,-1,4
1532068780338,-23,-4,-1,-7,-3,-3,1,-3
1532068780343,1,6,-1,7,0,-1,-2,-3
1532068780348,0,1,7,8,2,1,-1,-2
1532068780353,-2,1,-7,-15,0,-1,-1,-1
1532068780358,6,-3,1,0,-2,-1,-1,0
1532068780363,-8,-1,-5,1,0,-1,-3,-3
1532068780368,-3,1,16,-1,-1,0,2,3
1532068780373,3,5,-5,5,-1,-1,-2,-2
1532068780378,1,1,3,-3,0,-1,0,0
1532068780383,-11,-7,-7,3,-1,0,0,-1
1532068780388,8,3,-2,-2,-3,-2,-2,-1
1532068780393,3,4,28,4,0,-1,-1,1
1532068780398,1,1,-1,-4,0,-1,-1,-1
1532068780403,-2,-9,0,5,1,1,0,-2
1532068780408,0,0,2,-1,-3,-1,0,-2
1532068780413,-11,-7,-7,3,0,-1,0,-5
1532068780418,2,12,-6,0,-1,-1,0,-2
1532068780423,4,-15,-6,3,0,0,-1,0
1532068780428,-3,-1,-2,4,0,0,-1,0
1532068780433,1,7,-4,0,-1,-2,-2,1
1532068780438,9,-13,0,-5,-3,-3,-2,-3
1532068780443,-1,0,-6,6,-1,-3,0,-2
1532068780448,-2,4,1,-15,-1,-1,0,-1
1532068780453,-4,-6,-22,0,-2,-2,-3,-3
1532068780458,-3,-2,5,6,0,1,-1,3
1532068780463,7,-1,3,-6,-1,-2,-3,-4
1532068780468,-5,0,-1,2,-3,-1,1,3
1532068780473,12,8,-6,-1,0,-2,-3,-3
1532068780478,-4,-3,-7,-1,-1,1,-1,0
1532068780483,-2,-6,-5,6,-1,0,1,-4
1532068780488,-11,1,1,-2,2,1,0,9
1532068780493,0,-3,4,0,-1,0,-3,-4
1532068780498,-2,-4,-5,-2,0,-1,-1,-1
1532068780503,2,-1,5,0,-1,-1,-1,-3
1532068780508,-1,3,-1,-5,0,-1,-1,-2
1532068780513,-5,1,13,4,-2,0,0,0
1532068780518,1,-1,-3,2,1,-1,0,0
1532068780523,1,1,4,-8,-2,0,-3,0
1532068780528,1,-3,-6,1,-1,-1,-1,-3
1532068780533,-4,-3,1,1,-1,-1,-1,0
1532068780538,-2,2,3,-4,-2,-1,-1,1
1532068780543,0,5,0,6,1,-2,0,-1
1532068780548,-7,-4,0,3,0,-2,-2,-5
1532068780553,-2,2,6,3,1,0,0,2
1532068780558,-4,-5,-5,-6,-2,0,-1,-6
1532068780563,2,4,-2,-6,-2,0,0,0
1532068780568,-2,-15,-3,-1,-1,-1,-1,1
1532068780573,28,2,1,1,0,0,1,0
1532068780578,-6,-2,-25,5,0,-5,-3,-2
1532068780583,-1,0,1,-11,-1,-1,-2,0
1532068780588,0,10,-10,-1,0,2,-1,-5
1532068780593,-8,-25,13,3,0,1,3,8
1532068780598,-1,-1,-1,-3,-3,-1,1,1
1532068780603,0,8,2,11,1,1,0,-3
1532068780608,1,-8,-4,-1,0,-2,1,0
1532068780613,-7,3,-22,-2,-2,-1,-2,1
1532068780618,0,4,14,0,0,1,2,1
1532068780623,-6,-9,-6,2,0,0,-2,-1
1532068780628,6,8,8,16,3,-1,1,1
1532068780633,-7,4,-2,-10,0,-2,-1,-3
1532068780638,0,-4,-2,-10,-4,-1,-3,-1
1532068780643,-1,6,8,3,2,-1,-2,1
1532068780648,1,1,5,2,-3,-1,1,-3
1532068780653,-5,-6,-12,-15,-1,-2,0,-3
1532068780658,-1,2,7,2,0,-1,-1,-1
1532068780663,1,4,-11,-6,-2,-1,2,0
1532068780668,0,-9,17,2,0,0,-2,2
1532068780673,-7,-4,5,1,-1,1,-1,0
1532068780678,-1,-1,-2,-3,-2,0,-1,-2
1532068780683,0,4,-1,3,-1,-3,-1,1
1532068780688,0,-6,-36,-10,-1,-2,-1,-4
1532068780693,-1,5,10,4,-1,-3,-1,-2
1532068780698,-1,4,0,0,4,1,0,-1
1532068780703,-2,-14,0,2,-2,0,2,-1
1532068780708,-1,-3,7,-2,-2,0,1,0
1532068780713,-3,4,-6,-2,-2,0,-1,0
1532068780718,2,-8,-17,1,-1,-1,1,-1
1532068780723,0,7,-4,-2,0,0,0,1
1532068780728,-2,-5,12,-4,-2,-1,-2,1
1532068780733,-4,4,-20,-3,-2,-1,-1,-1
1532068780738,0,-10,12,1,0,-1,-2,-1
1532068780743,-5,5,7,-6,-7,-3,-4,-3
1532068780748,1,-4,4,1,0,-1,0,0
1532068780753,0,2,-7,1,0,-3,-3,-3
1532068780758,0,2,0,-5,0,1,-1,-3
1532068780763,2,-4,-4,2,1,-1,-2,-2
1532068780768,1,14,16,4,0,0,0,0
1532068780773,-4,4,3,-6,-2,0,-1,-2
1532068780778,-1,-9,-2,-1,-3,-1,-1,-1
1532068780783,-1,-6,-6,0,2,2,-2,0
1532068780788,0,2,2,-1,0,-1,-1,-2
1532068780793,0,0,-4,1,2,1,0,1
1532068780798,1,13,10,0,-1,-1,-1,1
1532068780803,-2,-8,-29,-4,-3,-1,-1,-3
1532068780808,-3,-7,-2,-2,-2,-1,-2,-1
1532068780813,0,0,9,3,1,0,-1,-2
1532068780818,0,5,-7,-1,-2,0,-1,0
1532068780823,-2,0,-5,-6,-4,-2,-1,-4
1532068780828,0,0,6,-2,0,0,0,1
1532068780833,0,-6,-7,1,-2,-1,0,0
1532068780838,-1,-7,4,1,-2,-3,-3,-1
1532068780843,4,-6,2,0,1,-2,0,0
1532068780848,-7,4,-8,1,-1,-1,-3,-4
1532068780853,0,-1,12,-2,2,3,0,-1
1532068780858,-1,-6,1,-8,-4,-3,-3,-1
1532068780863,0,-2,24,4,3,0,0,2
1532068780868,3,7,-7,-5,-8,2,0,1
1532068780873,0,-4,-8,-1,1,0,1,0
1532068780878,0,8,5,1,0,-1,1,-1
1532068780883,-1,-5,-14,4,1,0,-1,-2
1532068780888,0,-3,6,-7,1,-1,-1,0
1532068780893,0,2,5,1,-3,-1,-2,1
1532068780898,1,-2,1,1,1,0,0,0
1532068780903,-2,18,6,-1,-1,0,0,-1
1532068780908,0,-15,-4,1,-1,-2,-1,0
1532068780913,-1,-11,-18,-4,0,2,1,-3
1532068780918,-2,1,-8,1,-1,-1,-2,0
1532068780923,4,-1,8,1,0,0,-1,-2
1532068780928,-2,11,-3,-6,-2,0,-1,-4
1532068780933,-4,-5,1,1,-1,-2,-5,-4
1532068780938,0,9,-2,2,3,0,1,-5
1532068780943,-1,-3,9,0,-1,1,1,-7
1532068780948,2,-4,-31,0,1,-1,0,-4
1532068780953,1,4,6,0,-1,-2,2,3
1532068780958,-4,-6,4,2,-5,0,-2,1
1532068780963,-1,8,22,3,1,-1,-1,7
1532068780968,0,-15,7,-3,2,-1,-1,2
1532068780973,-3,-4,19,3,-2,-1,-2,3
1532068780978,1,4,-10,0,0,1,1,3
1532068780983,-4,-13,1,-2,-2,1,0,1
1532068780988,1,2,-11,1,1,0,0,0
1532068780993,0,6,3,-4,-9,-4,-2,-1
1532068780998,5,-3,4,-2,-1,-1,-1,2
1532068781003,-1,0,-4,-2,-1,-1,-4,-1
1532068781008,2,5,-4,2,0,0,-1,1
1532068781013,-3,2,-2,-2,3,2,1,-1
1532068781018,1,-4,10,1,0,0,0,-2
1532068781023,-1,0,8,-1,0,-2,2,1
1532068781028,-1,-3,7,-1,-3,-2,-2,-1
1532068781033,3,-4,-7,-1,1,0,-1,-1
1532068781038,0,8,-3,-3,-1,2,-1,1
1532068781043,-3,3,-13,-4,-1,-1,0,0
1532068781048,-3,-18,6,0,-2,-2,-3,1
1532068781053,-1,7,-2,2,-1,0,1,0
1532068781058,-3,-5,13,0,2,-1,-3,-2
1532068781063,2,5,-16,-1,-3,1,0,1
1532068781068,0,7,-5,-4,-2,-2,1,-2
1532068781073,3,2,8,2,-1,-1,-2,-2
1532068781078,-2,-2,-5,1,-1,-2,1,-2
1532068781083,-1,-6,-8,-3,2,-1,-1,-2
1532068781088,0,7,8,2,1,-1,-1,-1
1532068781093,-1,-6,3,0,2,-1,1,0
1532068781098,-2,3,5,-1,-4,-3,-1,-1
1532068781103,-1,-6,-10,0,1,-1,-3,-3
1532068781108,-1,1,2,2,1,0,2,0
1532068781113,-1,7,3,-2,-3,-2,-1,-2
1532068781118,1,8,1,-1,-1,-1,1,1
1532068781123,-2,-11,-8,-4,0,-1,-1,-3
1532068781128,-3,-11,-28,-3,-3,-3,-5,-3
1532068781133,-6,-1,12,1,1,-2,-1,0
1532068781138,20,-1,-34,-1,1,2,-1,-3
1532068781143,-51,-4,6,0,0,0,-1,-5
1532068781148,1,7,37,-2,-1,0,-1,-3
1532068781153,-2,-1,-11,7,0,0,1,2
1532068781158,-8,-4,9,-5,-1,0,0,-1
1532068781163,20,5,15,2,1,1,0,4
1532068781168,3,3,-7,-6,-2,1,1,-5
1532068781173,-8,-5,-4,-10,-6,-3,-3,1
1532068781178,1,-2,1,8,3,1,2,4
1532068781183,1,-5,-5,2,-2,-1,-2,-6
1532068781188,-36,-1,-4,-1,-1,-2,-3,-6
1532068781193,14,2,-1,6,3,1,1,-2
1532068781198,-12,2,6,1,-2,-2,-1,-2
1532068781203,11,-5,4,10,-1,-1,1,-1
1532068781208,15,2,3,-12,1,0,1,3
1532068781213,-8,-4,-13,-11,-2,1,-1,-4
1532068781218,-8,-5,-6,1,0,0,-4,0
1532068781223,-2,5,12,-4,-1,-1,0,9
1532068781228,-16,1,2,8,-2,0,1,-3
1532068781233,2,-1,-1,1,0,0,-2,-1
1532068781238,7,-1,2,-10,0,1,0,-5
1532068781243,5,-1,-4,-4,-2,0,0,6
1532068781248,4,2,-5,2,-1,0,0,0
1532068781253,2,0,-3,0,-1,-2,-1,-1
1532068781258,-3,-1,8,0,-2,-2,0,0
1532068781263,-1,-19,-13,-2,-2,-2,-2,-10
1532068781268,7,-3,-8,5,-1,0,1,1
1532068781273,3,1,8,0,-1,-2,-1,-4
1532068781278,1,1,-1,-1,-1,-2,-2,1
1532068781283,5,8,-29,-6,0,-2,0,-3
1532068781288,-8,2,12,-1,0,-1,-2,4
1532068781293,6,-15,9,6,1,1,0,-3
1532068781298,-3,-2,-10,-6,-2,0,-1,-2
1532068781303,16,5,4,-8,-5,0,1,1
1532068781308,3,5,1,1,1,0,0,-1
1532068781313,-5,3,11,-1,0,-1,-1,1
1532068781318,0,-16,-20,9,0,-1,0,1
1532068781323,1,1,6,0,1,-1,-2,-5
1532068781328,6,0,6,-1,-1,0,1,5
1532068781333,0,0,0,7,1,-1,-2,-2
1532068781338,0,7,6,-11,-2,-1,-1,-1
1532068781343,-4,-10,1,-4,-5,-1,-1,-2
1532068781348,0,-6,1,0,-1,-3,-3,-1
1532068781353,-1,3,-4,-3,-1,-1,-1,-2
1532068781358,-2,0,1,3,-2,-3,-2,4
1532068781363,-3,5,0,1,1,-1,-6,-9
1532068781368,10,0,-3,1,-1,0,-2,0
1532068781373,-2,3,5,0,-1,0,1,2
1532068781378,-1,-10,-13,-5,-1,-1,-1,-2
1532068781383,0,-3,12,-1,-2,-3,0,1
1532068781388,2,-1,-5,-2,0,1,1,1
1532068781393,-18,2,-8,-6,-3,-1,-5,-10
1532068781398,-2,1,7,1,-1,0,13,0
1532068781403,-3,-6,-23,0,0,-3,-18,4
1532068781408,0,5,13,4,0,2,2,0
1532068781413,2,-6,7,-2,-1,0,1,0
1532068781418,-3,-9,-1,-3,-1,0,-1,-2
1532068781423,-2,-7,-6,0,-2,2,7,4
1532068781428,4,9,-2,5,-1,-2,0,-2
1532068781433,2,-3,-10,-1,-3,1,-1,-1
1532068781438,0,-6,1,-3,-2,0,-4,-4
1532068781443,-4,16,7,4,1,0,5,2
1532068781448,5,-10,-14,-3,0,-3,-5,-4
1532068781453,1,-8,-2,4,0,0,3,2
1532068781458,-8,-6,7,1,-2,-1,-1,3
1532068781463,-18,-1,1,-4,-3,-3,0,-4
1532068781468,-2,-1,0,1,-3,-2,-1,-7
1532068781473,-3,1,-15,-8,-1,-1,0,0
1532068781478,2,3,-2,-1,-1,-1,-3,2
1532068781483,5,8,-6,0,2,1,0,-2
1532068781488,-3,-12,22,-2,0,-3,-1,3
1532068781493,3,3,-9,4,-1,-1,-5,-5
1532068781498,3,1,-3,-15,-1,1,-3,3
1532068781503,4,-4,15,3,-2,-1,1,-6
1532068781508,-3,-3,-23,-4,-1,0,-2,-3
1532068781513,3,7,2,0,1,-1,-1,3
1532068781518,2,3,3,5,0,-2,-2,-3
1532068781523,-2,9,2,-2,1,1,-1,0
1532068781528,-4,-11,-7,-5,-2,0,-2,-6
1532068781533,-3,-8,0,-3,-2,-2,0,1
1532068781538,-2,6,3,0,-1,-1,-2,-1
1532068781543,11,-3,-4,-2,0,0,4,-2
1532068781548,-23,-3,4,-2,-4,-2,-3,-1
1532068781553,10,1,3,-2,0,0,1,4
1532068781558,-22,-3,-3,0,-1,0,-1,-5
1532068781563,4,-1,-3,1,0,0,-1,6
1532068781568,2,9,-1,-2,-1,0,1,-4
1532068781573,3,9,34,-1,0,-1,-1,1
1532068781578,-2,-13,5,-2,-3,-1,-3,0
1532068781583,-1,-5,-2,1,0,0,3,1
1532068781588,6,0,-7,-1,-1,1,0,0
1532068781593,-19,-3,-18,-1,0,-1,-2,-2
1532068781598,18,10,-1,4,-1,0,-1,-1
1532068781603,-2,-1,9,2,0,0,-1,-2
1532068781608,2,-1,-10,-8,-2,0,0,3
1532068781613,1,2,-8,-1,0,-3,-2,-2
1532068781618,1,0,3,-1,0,0,-1,-3
1532068781623,-11,2,-3,2,-1,-1,-2,3
1532068781628,8,5,-2,1,0,-1,-2,4
1532068781633,-7,-7,-4,-1,-4,-2,-1,-4
1532068781638,-2,-2,-2,1,0,-1,-3,4
1532068781643,5,-2,0,-4,-2,-1,-1,1
1532068781648,2,0,0,-1,0,1,0,0
1532068781653,-5,0,6,-3,-1,-2,1,3
1532068781658,4,-4,-18,0,0,-2,-2,-5
1532068781663,-3,1,0,-1,-2,-1,-3,-2
1532068781668,-2,1,5,0,0,-1,10,0
1532068781673,2,-6,-14,-1,-1,-1,-18,-1
1532068781678,-4,3,3,-2,-2,1,0,-3
1532068781683,2,-3,4,-2,-1,-1,-1,-2
1532068781688,-3,-1,-1,2,-1,-2,1,0
1532068781693,4,2,0,-2,-1,0,2,-4
1532068781698,1,1,0,0,-2,-1,-2,-1
1532068781703,4,5,1,0,1,1,-1,-1
1532068781708,-30,-13,24,2,0,-2,-3,3
1532068781713,16,2,-5,-3,-1,-1,0,-8
1532068781718,-2,-2,2,-1,0,-2,-2,-1
1532068781723,-2,-2,0,1,-1,-1,5,0
1532068781728,3,3,-4,1,-1,1,-4,-1
1532068781733,-2,0,-2,3,-1,0,1,2
1532068781738,0,1,3,-7,0,-1,1,-1
1532068781743,0,-1,0,1,-1,-2,-2,0
1532068781748,5,-1,-6,0,0,-1,-2,0
1532068781753,2,-3,-4,-3,-2,-1,1,-4
1532068781758,0,5,0,1,1,-1,0,0
1532068781763,-4,-6,0,-1,-1,-1,-2,-1
1532068781768,2,4,-3,-3,0,-1,-1,-3
1532068781773,-4,-12,7,2,1,0,4,0
1532068781778,-2,-2,1,8,-1,-1,-3,4
1532068781783,-8,3,-3,-15,-2,-1,-2,-6
1532068781788,5,-11,-4,0,-1,1,9,-3
1532068781793,-4,3,2,0,-1,-1,-14,1
1532068781798,18,-2,-2,-2,-1,-1,0,-6
1532068781803,-2,-4,-1,8,0,-1,1,-1
1532068781808,5,8,-2,-13,-1,-1,-5,-5
1532068781813,-5,0,-3,0,-1,0,6,-1
1532068781818,-2,-3,-2,-1,-2,-1,2,6
1532068781823,1,0,0,3,0,-1,-3,0
1532068781828,3,2,-1,2,-2,-1,-1,1
1532068781833,3,-6,6,1,-2,0,3,3
1532068781838,-5,0,1,2,0,0,-4,-9
1532068781843,-1,-3,-2,-3,-1,-1,-1,0
1532068781848,-3,1,0,0,-1,-2,-4,-1
1532068781853,-11,-5,-12,-1,0,2,1,-5
1532068781858,2,5,20,2,0,2,3,9
1532068781863,0,-7,1,6,1,-1,-1,-3
1532068781868,-4,-1,-2,3,1,0,-3,-3
1532068781873,5,6,-13,-10,-4,-1,-1,-2
1532068781878,-3,2,-2,-1,0,-1,1,-4
1532068781883,-4,-8,-8,10,-3,-1,-2,0
1532068781888,1,-1,11,8,0,-1,-3,0
1532068781893,1,0,1,-3,1,0,2,0
1532068781898,-6,2,-8,-2,-3,-3,-2,-4
1532068781903,7,-6,10,-6,0,0,1,0
1532068781908,0,-5,-22,0,-2,-1,-2,-4
1532068781913,-2,-4,8,0,0,1,1,2
1532068781918,1,-1,-7,-2,-1,-2,-2,-2
1532068781923,-4,4,4,1,-1,-1,-1,-2
1532068781928,-1,0,-3,-4,-1,0,-1,1
1532068781933,0,-1,2,-1,-3,-2,0,0
1532068781938,-2,8,1,-1,-3,-2,0,1
1532068781943,1,0,-7,-2,-2,0,-2,-2
1532068781948,-7,-11,-19,-6,-1,-1,0,-5
1532068781953,4,-3,1,2,-1,-2,0,4
1532068781958,-5,-5,-2,2,0,0,0,-1
1532068781963,0,2,-1,8,0,-2,-1,-2
1532068781968,-1,-5,-2,-5,-1,-1,0,-1
1532068781973,-2,2,-13,-5,-2,-1,-1,-1
1532068781978,2,-6,-8,0,-2,0,-2,2
1532068781983,0,7,26,0,2,0,1,-10
1532068781988,14,-4,-1,3,-2,-2,-3,-3
1532068781993,-4,0,-2,0,1,0,2,5
1532068781998,1,7,9,7,-1,-2,-1,2
1532068782003,-2,-8,-15,-18,-4,-1,-2,2
1532068782008,-6,0,3,-2,0,1,-2,-4
1532068782013,-4,1,5,-2,0,-1,0,-1
1532068782018,13,0,5,5,-1,-1,-2,-1
1532068782023,-5,7,-5,2,-1,0,11,-4
1532068782028,7,-4,3,4,1,0,-16,5
1532068782033,-2,-7,-13,-13,0,0,0,3
1532068782038,-6,3,4,3,-1,-1,-2,-1
1532068782043,-3,0,-6,8,1,-1,-2,1
1532068782048,3,-8,3,-10,-1,0,6,-1
1532068782053,-19,2,3,2,-3,-3,0,-3
1532068782058,1,-3,-3,2,0,0,0,-1
1532068782063,1,-4,0,2,-2,-2,-2,2
1532068782068,1,6,10,-4,1,1,3,-1
1532068782073,-4,-2,4,0,0,-1,2,1
1532068782078,2,-2,1,-4,-4,-3,-7,-5
1532068782083,-6,3,-2,5,0,-1,-3,-3
1532068782088,-5,-10,-8,-3,-1,-2,1,-1
1532068782093,2,-2,2,2,-3,1,-2,-4
1532068782098,0,4,3,5,2,0,5,7
1532068782103,-9,-14,-4,-5,0,1,-3,-7
1532068782108,-6,1,-5,-2,-1,0,-2,2
1532068782113,4,-1,-19,-4,0,-2,2,-2
1532068782118,-6,-1,4,1,1,1,2,1
1532068782123,11,-6,11,-5,-2,-1,-4,5
1532068782128,13,-1,1,7,-1,0,16,-4
1532068782133,-13,-6,-15,-11,0,-1,-21,-4
1532068782138,1,1,-8,-24,-5,-3,0,-2
1532068782143,1,2,-5,20,1,-2,-3,9
1532068782148,-3,4,3,-7,-2,-3,1,0
1532068782153,-14,0,8,-23,-6,-1,4,-2
1532068782158,-2,-5,0,5,0,1,-4,-2
1532068782163,-4,2,1,-11,0,0,3,-3
1532068782168,11,13,-3,19,1,-2,-6,1
1532068782173,-9,-29,2,-3,-1,1,0,-2
1532068782178,-1,2,-4,2,0,-2,16,1
1532068782183,-5,1,3,5,2,0,-23,-6
1532068782188,1,-5,-4,0,0,0,-2,-2
1532068782193,5,12,1,8,0,1,-2,1
1532068782198,1,-6,20,-15,1,0,4,-2
1532068782203,5,11,1,14,-1,-2,6,4
1532068782208,-12,-27,-7,-6,-3,-3,-3,-2
1532068782213,12,1,-1,-22,-6,-1,0,3
1532068782218,-7,-2,-6,20,-1,-2,-3,-2
1532068782223,-8,-1,-4,-6,-2,0,1,0
1532068782228,17,5,5,0,0,1,-4,0
1532068782233,-18,5,0,15,2,-1,3,-1
1532068782238,1,-3,2,-11,-2,-2,-6,-3
1532068782243,-4,-10,-11,-15,-3,-1,1,-1
1532068782248,2,3,-7,0,-1,-1,5,-9
1532068782253,7,2,6,15,2,-1,-3,25
1532068782258,3,3,-3,4,0,-1,-2,20
1532068782263,-3,-1,1,-6,-1,-2,-1,4
1532068782268,-4,-4,-3,-8,-1,-1,4,5
1532068782273,-3,7,-5,-6,0,-1,2,-17
1532068782278,-7,-3,5,7,1,0,-5,-11
1532068782283,9,2,-3,19,2,1,5,-8
1532068782288,-6,9,3,-8,3,0,0,-4
1532068782293,20,-20,-3,9,-1,0,0,-9
1532068782298,-15,5,-6,-31,-6,-3,-8,-10
1532068782303,-9,-4,3,-1,-1,0,8,-1
1532068782308,4,15,-6,6,0,-1,-7,3
1532068782313,1,3,14,20,3,1,1,1
1532068782318,9,-8,-36,0,-3,-3,-3,-6
1532068782323,4,5,12,-5,1,0,5,2
1532068782328,-13,-8,-12,10,1,0,-2,-3
1532068782333,-2,3,2,-25,-5,-4,1,-1
1532068782338,13,2,-9,12,0,1,1,3
1532068782343,-17,-6,5,-8,-1,-1,-8,1
1532068782348,-7,-2,6,7,0,-1,-1,0
1532068782353,19,3,-4,5,2,0,-1,-5
1532068782358,-2,-2,2,-24,-3,1,2,3
1532068782363,8,0,0,7,1,0,-2,1
1532068782368,-8,3,4,-5,-2,0,-1,-1
1532068782373,-4,-12,0,6,-1,-2,1,1
1532068782378,-4,4,8,22,2,-1,-3,-1
1532068782383,8,3,-2,-29,-4,0,-4,-3
1532068782388,-3,5,3,0,-1,-1,0,0
1532068782393,1,-6,-9,-4,-1,0,-2,-1
1532068782398,-2,0,4,9,2,0,-1,-3
1532068782403,4,-1,0,3,-1,0,0,6
1532068782408,-3,-4,-10,-5,-3,0,-1,2
1532068782413,-1,8,7,1,-2,0,-2,-2
1532068782418,-3,-4,2,8,3,0,0,-1
1532068782423,0,3,-3,15,1,-1,0,-1
1532068782428,-4,-4,3,-19,-3,-2,-2,-3
1532068782433,-3,-3,-5,-8,-6,-1,0,0
1532068782438,-1,4,-2,3,-1,1,0,-6
1532068782443,19,-1,6,6,0,-1,-2,1
1532068782448,-23,-8,4,6,-1,-2,-2,0
1532068782453,0,11,-3,3,1,-1,-2,0
1532068782458,-4,1,7,3,0,-1,0,0
1532068782463,-3,-1,-7,-19,-2,0,3,-2
1532068782468,3,-8,1,4,-4,-1,-3,-5
1532068782473,12,8,-4,-2,-1,0,1,3
1532068782478,0,3,3,-1,-1,-1,-2,1
1532068782483,1,-7,-49,5,1,-1,-3,-2
1532068782488,1,3,11,-16,-3,-1,8,-1
1532068782493,-5,9,20,-2,0,0,-13,1
1532068782498,1,-25,-18,2,0,-1,3,0
1532068782503,-8,-3,-4,2,0,-1,-1,0
1532068782508,14,0,-3,-8,-1,-1,-5,-6
1532068782513,14,7,-4,2,-1,-1,3,4
1532068782518,-19,4,8,2,-1,0,-2,-1
1532068782523,-6,-4,6,-9,-3,0,-4,-4
1532068782528,-5,-6,-8,2,1,-1,0,-2
1532068782533,1,-4,8,8,2,0,4,0
1532068782538,5,8,3,-13,-1,0,-2,-1
1532068782543,-14,-15,4,25,2,-3,1,-3
1532068782548,24,3,-3,-25,-7,-2,-3,8
1532068782553,-5,-4,-9,5,1,0,-1,-1
1532068782558,-2,2,0,-3,-1,-2,12,2
1532068782563,-1,7,10,3,0,0,-17,2
1532068782568,-31,-1,-6,10,0,0,0,-5
1532068782573,8,-7,-1,-4,2,0,0,-5
1532068782578,-1,-8,0,-4,-4,-1,1,10
1532068782583,1,13,10,-2,-3,1,3,-1
1532068782588,8,-18,-14,15,3,1,-2,3
1532068782593,-8,-7,5,-20,-2,-1,3,6
1532068782598,-1,1,0,9,0,-1,-7,-11
1532068782603,-1,6,-1,-10,-5,-2,4,5
1532068782608,39,15,8,-10,-2,-1,-3,-4
1532068782613,-20,-13,-12,-5,-2,0,3,-2
1532068782618,18,3,4,17,1,0,-2,3
1532068782623,-3,-12,-35,-39,-6,-1,8,-3
1532068782628,-16,2,10,-6,1,-1,-16,1
1532068782633,-3,3,23,15,-2,-2,0,-2
1532068782638,-1,-2,-9,5,0,-1,-3,-3
1532068782643,9,4,2,0,0,1,1,4
1532068782648,9,14,4,11,-2,-2,5,0
1532068782653,-21,-4,-4,-4,2,-1,-3,-12
1532068782658,-7,-6,-5,-21,-10,0,-5,7
1532068782663,19,6,22,8,1,0,2,-7
1532068782668,-3,2,4,31,0,-1,1,1
1532068782673,2,5,-7,-14,0,1,14,1
1532068782678,-12,-2,-2,-15,-1,-1,-23,-7
1532068782683,4,7,8,14,1,-1,-2,4
1532068782688,-7,-8,-5,-30,-5,0,-1,-3
1532068782693,-5,5,-1,21,4,2,3,2
1532068782698,8,-4,-3,-7,0,-1,5,-1
1532068782703,-24,-8,11,19,2,-2,-5,2
1532068782708,1,2,4,-10,-2,0,2,-10
1532068782713,-7,-5,-9,-4,-1,-3,-6,1
1532068782718,2,6,3,6,1,0,4,1
1532068782723,1,5,4,1,-1,0,-5,-2
1532068782728,-5,-17,-19,-4,1,1,6,-4
1532068782733,2,5,2,0,0,-2,-4,3
1532068782738,0,2,6,20,3,0,0,5
1532068782743,11,-10,-8,-40,-8,-3,2,0
1532068782748,-4,3,8,4,-2,-2,-4,0
1532068782753,2,8,1,5,0,-2,-5,-5
1532068782758,-8,11,19,0,-3,-2,0,-1
1532068782763,8,-9,-4,4,-4,-1,-2,-5
1532068782768,-3,4,1,9,0,0,0,2
1532068782773,-4,-2,0,0,0,2,-2,1
1532068782778,5,-1,1,-6,-1,0,1,-3
1532068782783,-7,0,-2,4,1,-1,14,1
1532068782788,-6,-1,4,-1,0,0,-24,-2
1532068782793,1,5,-11,12,1,0,2,1
1532068782798,-6,-11,0,-16,-4,1,0,-3
1532068782803,0,-1,-3,0,0,-2,-4,-4
1532068782808,-2,-5,4,3,2,-1,7,3
1532068782813,-2,-8,-6,-1,-2,0,-1,-1
1532068782818,0,-4,-2,8,1,-1,-1,-2
1532068782823,-2,1,1,1,1,0,-2,-2
1532068782828,0,8,2,-4,-3,0,3,0
1532068782833,-1,1,8,4,-1,0,-4,-3
1532068782838,10,-3,-8,-7,-2,-2,3,-1
1532068782843,-5,-10,-3,1,-1,0,-5,-3
1532068782848,1,-8,9,3,1,-1,0,-5
1532068782853,1,1,-1,8,0,1,0,-2
1532068782858,0,-2,-5,-16,-3,-3,-2,-1
1532068782863,-1,11,0,7,0,-1,-3,0
1532068782868,0,-2,9,1,-1,-1,2,2
1532068782873,-8,-11,1,4,1,0,2,4
1532068782878,2,-1,-2,4,0,2,0,-4
1532068782883,2,1,1,8,2,-2,-4,-3
1532068782888,-3,-1,-7,-12,-1,0,3,1
1532068782893,-5,5,2,-2,-2,0,-2,0
1532068782898,-3,-5,-1,4,1,-1,-1,1
1532068782903,-2,2,-3,-2,1,-1,0,0
1532068782908,2,7,4,-6,-4,-2,-1,0
1532068782913,-2,-3,-8,-2,0,-1,-1,-1
1532068782918,-1,-7,-3,-1,-1,-1,-1,0
1532068782923,1,-1,2,8,-1,-2,1,1
1532068782928,-4,3,-1,2,1,-1,-1,-2
1532068782933,6,0,-2,-12,-3,-2,-3,-3
1532068782938,-6,1,7,-8,-2,-1,-1,-2
1532068782943,3,1,2,-1,-1,0,-1,-1
1532068782948,10,8,2,-1,-1,0,1,5
1532068782953,-13,-15,-2,2,-1,-1,-5,-13
1532068782958,-9,-3,-4,8,0,-3,1,9
1532068782963,5,2,-3,-5,-1,-1,-1,-4
1532068782968,0,3,1,-12,-1,-1,-1,0
1532068782973,6,1,-14,31,2,-2,0,-1
1532068782978,-6,-2,-24,-27,-6,-3,-3,-2
1532068782983,-4,-18,17,10,0,2,3,3
1532068782988,-1,4,-11,-11,0,-1,1,-1
1532068782993,-2,1,7,0,-2,0,0,4
1532068782998,2,1,-10,8,3,1,0,-1
1532068783003,-2,1,5,3,0,0,-1,-1
1532068783008,-1,-4,-11,-5,1,0,0,-4
1532068783013,1,1,7,-3,-2,-1,-1,2
1532068783018,4,12,9,9,-1,-1,0,1
1532068783023,0,-10,0,-9,0,-2,-4,-4
1532068783028,-7,-2,-1,10,1,1,-1,0
1532068783033,0,1,-10,-14,-4,-2,-3,-2
1532068783038,3,4,6,3,-1,-2,-1,-1
1532068783043,-5,8,-2,-3,0,-2,-1,-1
1532068783048,-2,-10,-4,6,-1,0,-2,-1
1532068783053,0,2,1,-2,-1,-2,2,2
1532068783058,-3,0,-3,1,-2,-1,-1,1
1532068783063,-2,-2,8,-3,1,-1,-2,-2
1532068783068,0,-1,0,10,2,-1,0,-4
1532068783073,-7,8,2,-37,-7,-1,0,2
1532068783078,1,-5,3,18,0,-1,0,-2
1532068783083,-6,7,-4,-14,0,-1,0,0
1532068783088,9,-8,-2,6,0,-1,-1,-3
1532068783093,-8,-3,-9,1,0,-2,0,-4
1532068783098,0,-1,3,-5,0,-2,-1,-3
1532068783103,0,0,-4,-1,-1,-1,0,-1
1532068783108,1,2,3,-3,-1,-1,-2,-9
1532068783113,7,3,-3,9,1,0,-1,-4
1532068783118,-4,-1,5,-2,-1,0,-1,2
1532068783123,10,-4,-5,3,1,1,-2,3
1532068783128,-6,-2,-1,-7,-3,1,1,5
1532068783133,-3,-7,-4,12,1,-2,-2,4
1532068783138,19,7,0,-9,0,-1,0,6
1532068783143,-9,-4,8,19,2,-2,-1,2
1532068783148,-11,-2,-3,-57,-8,-3,-2,-7
1532068783153,0,9,-13,-14,-5,-1,-2,-1
1532068783158,-1,-6,-8,8,0,0,-1,-2
1532068783163,-2,0,27,3,0,0,-1,-3
1532068783168,1,-6,2,25,1,-1,1,4
1532068783173,-11,-3,0,-13,0,2,2,4
1532068783178,29,2,4,5,-4,-4,-4,-3
1532068783183,2,9,-3,-8,-1,1,-1,-4
1532068783188,0,-3,-7,5,1,0,-3,3
1532068783193,-1,4,3,-4,-2,-1,-1,-3
1532068783198,-10,-11,2,13,0,-1,2,1
1532068783203,1,2,-3,-7,-1,-1,4,1
1532068783208,-4,-3,8,3,-1,1,0,-2
1532068783213,12,1,-9,19,4,-2,-5,4
1532068783218,-11,-3,-9,-46,-8,-2,1,-2
1532068783223,2,-4,-1,10,0,-2,-3,-2
1532068783228,-5,3,2,4,0,1,0,1
1532068783233,0,-3,6,14,1,0,0,-3
1532068783238,-2,4,-1,6,1,-1,-2,-5
1532068783243,-2,-3,0,-5,-1,-1,1,5
1532068783248,3,-4,-7,2,-1,-1,-3,0
1532068783253,2,-2,-2,-2,-6,-2,2,-3
1532068783258,-10,0,1,4,-1,-1,-3,1
1532068783263,17,-3,-8,-8,-2,-1,-2,-3
1532068783268,3,5,13,2,2,0,1,-4
1532068783273,6,-9,-18,14,0,-2,0,-3
1532068783278,11,11,2,-7,3,0,12,-4
1532068783283,-5,-8,-8,-21,-5,-3,-16,1
1532068783288,-3,-14,-13,4,0,-1,-1,-9
1532068783293,2,1,2,2,3,0,-2,12
1532068783298,-12,0,7,14,2,0,2,-2
1532068783303,10,-1,-1,-16,-7,-4,4,0
1532068783308,6,9,2,0,1,-1,0,4
1532068783313,7,-2,7,-10,-2,-1,-6,-5
1532068783318,-11,3,-8,22,3,0,6,0
1532068783323,-3,-9,0,-12,-3,-1,-7,1
1532068783328,-6,-1,-6,-7,-4,0,-2,2
1532068783333,7,9,3,-6,0,-1,1,-5
1532068783338,13,-3,-17,2,-5,-3,-6,2
1532068783343,1,4,-9,-17,-1,0,2,-6
1532068783348,-1,4,5,11,1,-1,1,-2
1532068783353,-27,-9,-2,5,-2,-2,-1,-2
1532068783358,9,1,9,-38,-6,-2,-7,-2
1532068783363,-8,-2,2,19,3,1,4,-3
1532068783368,-3,4,2,4,2,-1,7,3
1532068783373,1,3,0,-4,-1,-1,-17,1
1532068783378,-9,-14,2,2,4,1,-2,2
1532068783383,-6,5,-3,14,-1,-1,1,-1
1532068783388,0,-6,14,5,0,1,3,0
1532068783393,-5,-5,-4,-10,-1,-1,5,-4
1532068783398,-1,6,2,2,0,0,-4,3
1532068783403,-4,3,-6,17,5,1,0,-3
1532068783408,0,3,0,-4,-3,-4,-5,-2
1532068783413,-12,-15,-11,-22,-10,-3,-1,-7
1532068783418,-4,-1,5,12,4,1,-4,-1
1532068783423,4,20,12,0,0,-1,4,1
1532068783428,-4,-11,-5,19,1,0,-4,-2
1532068783433,1,5,5,0,2,1,13,6
1532068783438,-2,2,-11,0,-2,1,-12,-9
1532068783443,2,-8,-13,5,-1,-2,-5,-7
1532068783448,-6,3,25,-4,-2,0,3,6
1532068783453,5,2,13,-11,0,1,-3,-2
1532068783458,-4,-5,-5,14,-2,-3,4,5
1532068783463,1,1,16,3,3,0,3,0
1532068783468,-5,-10,-25,-6,0,1,-6,-5
1532068783473,4,-7,-4,-34,-8,-2,-1,-7
1532068783478,-11,10,10,11,3,0,4,7
1532068783483,17,-22,-4,-10,-1,-1,-1,-4
1532068783488,1,4,-11,-4,0,-1,0,1
1532068783493,-1,9,-1,9,1,0,-1,-6
1532068783498,-7,2,-7,-9,0,1,0,-4
1532068783503,-2,-2,2,-2,-2,-1,1,6
1532068783508,0,-1,6,6,-3,-2,10,2
1532068783513,1,-7,-19,1,2,0,-10,-3
1532068783518,4,2,3,-12,-4,-3,-1,-4
1532068783523,-12,-6,9,11,1,1,0,2
1532068783528,6,6,4,-6,1,-1,1,-2
1532068783533,-1,-5,-5,26,3,0,3,4
1532068783538,-1,-15,-3,-34,-3,0,0,-2
1532068783543,-13,0,-4,6,-3,-2,-1,0
1532068783548,1,3,0,-5,0,-3,-7,-3
1532068783553,4,3,11,12,-1,0,0,-8
1532068783558,1,1,2,16,2,-1,-1,0
1532068783563,8,-2,-3,-14,-2,-2,0,-1
1532068783568,11,4,0,-16,-3,-2,-8,-3
1532068783573,-5,-4,-3,15,0,-1,2,-2
1532068783578,3,0,4,8,0,2,2,-4
1532068783583,4,0,-9,1,0,0,15,4
1532068783588,-6,-5,4,-20,-4,-4,-26,-5
1532068783593,-6,-5,-5,-17,-4,-1,1,3
1532068783598,3,2,3,30,0,-1,-2,-1
1532068783603,-8,-8,13,-29,-6,-1,0,6
1532068783608,-3,-4,-7,11,3,-1,5,-2
1532068783613,1,6,3,-7,0,-1,0,2
1532068783618,7,2,-1,-7,-3,-2,-4,1
1532068783623,-14,13,-7,11,1,1,-5,-6
1532068783628,-5,-12,-2,-8,-2,-2,4,0
1532068783633,4,-3,4,3,1,0,-3,-2
1532068783638,-1,5,-1,9,3,-1,4,4
1532068783643,-23,-6,0,-20,-4,0,-4,-5
1532068783648,1,0,-5,3,-3,-1,0,0
1532068783653,1,2,2,7,3,1,3,-1
1532068783658,-12,-1,1,-5,0,0,0,2
1532068783663,13,2,7,14,1,0,-4,3
1532068783668,-19,-15,-15,10,1,0,0,1
1532068783673,8,5,6,6,-2,-2,-4,1
1532068783678,0,-3,-6,-11,-4,0,-2,-6
1532068783683,2,-2,-5,-20,-2,-1,-1,2
1532068783688,8,14,2,16,-2,1,1,-3
1532068783693,-2,-3,10,1,-2,-1,0,1
1532068783698,-5,-15,-31,-14,-3,-2,-3,-1
1532068783703,6,4,0,20,2,-1,4,-3
1532068783708,-6,6,8,-8,-1,0,1,1
1532068783713,-4,-5,-13,-14,-4,-1,-5,-3
1532068783718,-2,1,14,-6,-3,0,2,-3
1532068783723,-8,-2,-9,5,1,1,-3,-9
1532068783728,6,-4,0,-2,1,0,2,4
1532068783733,-4,1,0,2,-1,-1,-2,1
1532068783738,15,-4,1,-3,-1,-2,-1,0
1532068783743,-6,2,-6,-2,-2,0,-2,0
1532068783748,-12,0,1,-6,1,1,0,-3
1532068783753,-8,2,-13,-2,-1,-1,-2,0
1532068783758,-3,-7,-7,2,0,1,1,1
1532068783763,-3,-7,-2,3,-1,-1,0,-1
1532068783768,12,0,0,-5,-2,-1,-1,-2
1532068783773,-3,-4,-3,12,1,-2,-2,-2
1532068783778,-6,0,3,-17,-1,-1,2,-1
1532068783783,-4,3,-7,4,-2,-2,-1,0
1532068783788,-7,-1,7,19,1,1,0,0
1532068783793,14,-13,-10,-55,-9,-3,-2,0
1532068783798,-2,8,2,7,-1,0,0,1
1532068783803,-6,-1,2,-3,-1,-2,-3,-1
1532068783808,5,2,1,17,4,1,1,1
1532068783813,-9,8,4,12,1,0,0,2
1532068783818,4,-12,-4,-9,-2,1,-1,-2
1532068783823,-6,-4,-11,-14,-6,0,-2,-2
1532068783828,-5,-1,-3,-7,0,0,-2,-3
1532068783833,5,-5,3,4,2,0,-1,-1
1532068783838,-4,7,-8,-5,-3,-1,0,0
1532068783843,0,2,3,10,0,-2,1,-2
1532068783848,1,-9,-1,2,0,-2,-1,-2
1532068783853,10,5,-1,-20,-2,0,-1,-1
1532068783858,-9,-2,2,12,0,-2,-2,0
1532068783863,9,3,-5,-5,-1,-1,0,-2
1532068783868,1,-2,12,-7,-2,-2,1,5
1532068783873,-15,0,7,23,4,0,1,-3
1532068783878,-4,-6,-20,-7,-2,-1,-2,-3
1532068783883,2,1,11,-41,-6,-1,-1,0
1532068783888,0,8,-10,-13,-2,0,-1,-2
1532068783893,6,-16,12,17,0,1,-1,2
1532068783898,-2,-3,-1,-1,0,-1,-1,-1
1532068783903,-6,0,-6,12,1,0,0,1
1532068783908,-3,0,-4,-2,1,0,-1,-7
1532068783913,3,7,0,-6,-2,-2,-1,0
1532068783918,-8,-9,6,-5,-3,1,1,5
1532068783923,1,-4,-9,12,5,-1,0,-4
1532068783928,-4,-6,7,-3,-1,-2,-2,-1
1532068783933,5,5,-9,-2,-2,-2,-1,-1
1532068783938,1,-4,11,-3,-3,-1,0,-1
1532068783943,-2,16,-2,4,1,-1,0,-2
1532068783948,-5,-20,0,6,-1,-2,-1,0
1532068783953,-3,0,0,4,0,0,-2,-3
1532068783958,1,2,-4,-11,-3,-2,0,-1
1532068783963,-5,3,8,4,3,0,0,2
1532068783968,-2,1,-8,1,-3,-1,-2,-3
1532068783973,5,-2,-6,10,0,-1,0,-1
1532068783978,1,1,2,-31,-7,-3,-3,0
1532068783983,1,-7,3,12,-1,2,0,-1
1532068783988,-3,5,-3,-9,-2,0,-1,0
1532068783993,-3,-5,-6,8,0,-1,0,-1
1532068783998,1,1,1,6,2,-1,-4,-3
1532068784003,-5,-1,-17,-9,-3,0,-4,-6
1532068784008,-4,2,2,0,-1,-1,0,4
1532068784013,-1,-2,-2,0,1,-1,-1,2
1532068784018,1,-6,6,-10,-3,-3,2,1
1532068784023,9,-8,-18,3,-1,-2,-4,-2
1532068784028,-16,-4,2,0,0,0,1,2
1532068784033,-6,4,5,3,2,0,0,-1
1532068784038,9,7,0,8,2,3,1,-1
1532068784043,1,-16,-1,0,-3,-3,1,2
1532068784048,15,2,-3,-1,-3,-1,1,-2
1532068784053,0,0,1,-5,-1,1,-9,0
1532068784058,-29,-7,-4,11,0,0,0,-9
1532068784063,0,7,-18,7,-2,-2,1,-3
1532068784068,-2,0,6,-9,2,-1,-1,0
1532068784073,-6,-7,-4,-6,-4,-2,4,4
1532068784078,9,7,2,5,1,0,0,-1
1532068784083,-6,-8,5,-2,0,0,7,2
1532068784088,-7,1,-4,4,-1,-2,-13,1
1532068784093,16,8,4,10,2,1,3,-4
1532068784098,-2,-6,-13,-32,-6,-1,-2,2
1532068784103,-17,2,10,-13,0,1,-3,4
1532068784108,28,4,6,12,-1,-1,3,-5
1532068784113,-16,-8,-15,0,-3,-1,0,-1
1532068784118,13,10,0,-8,1,-2,-4,-2
1532068784123,-6,10,6,1,-3,-1,0,-1
1532068784128,-6,-3,3,-5,-2,-1,1,-1
1532068784133,0,-13,-15,7,0,1,-3,2
1532068784138,3,-2,12,-19,-3,1,3,-5
1532068784143,5,-4,-15,-13,-4,-3,-6,4
1532068784148,-1,6,1,1,0,0,1,1
1532068784153,-2,7,4,-8,-3,-2,0,-2
1532068784158,-5,-4,-4,14,2,1,-1,1
1532068784163,14,2,13,-6,-2,-2,-4,-4
1532068784168,-4,2,-16,-1,-6,-2,-2,-6
1532068784173,0,2,1,0,-2,-2,15,2
1532068784178,8,-14,5,10,-1,-1,-16,0
1532068784183,-5,0,-1,-16,-1,2,-1,0
1532068784188,-2,-7,-5,18,3,0,0,-2
1532068784193,3,3,0,-19,-2,0,0,-6
1532068784198,-5,-1,5,17,0,-1,4,4
1532068784203,2,2,10,12,3,0,1,3
1532068784208,-19,-4,-5,-2,-3,0,0,-2
1532068784213,-22,-12,-6,-5,-6,-2,-7,-2
1532068784218,1,9,3,10,2,-1,0,2
1532068784223,2,-8,0,4,3,0,-1,-2
1532068784228,-1,6,35,-2,-2,1,2,1
1532068784233,2,0,9,-3,-2,-2,-6,-2
1532068784238,-4,5,-9,-3,-1,-1,2,1
1532068784243,-8,-6,0,12,0,-2,0,-1
1532068784248,2,5,-5,-22,-3,-1,1,3
1532068784253,7,-8,4,8,2,-1,-16,-4
1532068784258,2,-4,-10,-25,-9,-1,3,-3
1532068784263,4,2,12,3,1,0,2,6
1532068784268,-2,-4,-2,-3,1,-1,-3,-2
1532068784273,-3,5,-2,0,-1,-1,1,-1
1532068784278,-4,2,-5,18,4,0,1,3
1532068784283,2,-10,-5,-6,-2,-1,-3,-2
1532068784288,1,5,-6,-4,-1,-4,3,15
1532068784293,2,5,12,2,-2,-1,2,18
1532068784298,3,-7,-5,1,0,0,-1,7
1532068784303,-4,5,-7,0,-1,-1,-1,-1
1532068784308,1,-2,-4,1,1,0,-4,-12
1532068784313,1,-8,0,-2,2,1,-1,-11
1532068784318,-1,2,2,4,1,-1,-2,-8
1532068784323,-1,-2,6,5,-2,-1,0,-10
1532068784328,1,-2,-11,-4,1,1,0,-9
1532068784333,0,1,-2,-5,-2,-1,0,-3
1532068784338,-5,2,-1,-12,-4,-2,-1,-6
1532068784343,0,13,7,2,-1,0,1,-1
1532068784348,0,-21,-26,-2,0,0,-2,-5
1532068784353,8,3,0,20,3,1,9,1
1532068784358,13,-2,-3,-39,-4,-2,-6,-9
1532068784363,0,1,-1,14,-5,-1,-2,-2
1532068784368,-7,8,2,-7,-1,0,-5,1
1532068784373,4,1,-1,2,1,1,2,-2
1532068784378,-6,-3,7,20,0,1,3,4
1532068784383,-1,-6,-6,-9,1,1,-1,-2
1532068784388,7,1,1,7,-2,-1,4,1
1532068784393,-5,-4,1,1,1,-1,-2,0
1532068784398,1,2,8,9,0,-1,1,3
1532068784403,-1,-3,-12,-1,0,-1,-2,-2
1532068784408,-2,-2,11,2,-3,-2,-3,0
1532068784413,-11,3,2,-1,-2,1,-5,-6
1532068784418,10,5,5,9,1,0,3,5
1532068784423,18,-6,-6,-15,0,-2,-9,4
1532068784428,0,8,-5,7,-1,-2,-1,1
1532068784433,4,-6,1,-26,-1,-3,-4,-1
1532068784438,-33,-8,-28,3,-5,-3,-4,-8
1532068784443,3,-6,6,15,4,2,4,2
1532068784448,8,-1,4,4,-1,-1,-1,-3
1532068784453,-3,3,1,6,-2,-1,-2,3
1532068784458,2,2,6,6,2,0,6,-6
1532068784463,-1,1,-5,9,-2,-2,0,10
1532068784468,-11,1,3,-36,-5,-1,-2,-3
1532068784473,25,-16,-11,-5,-6,-2,2,8
1532068784478,-18,-5,-2,-18,-2,-2,-1,-11
1532068784483,5,15,-19,10,2,2,0,-3
1532068784488,11,7,26,-4,4,1,7,2
1532068784493,3,1,-4,2,-2,-1,-2,-3
1532068784498,-19,-18,-70,-19,-5,-1,-5,2
1532068784503,0,13,15,-8,-4,-2,15,-2
1532068784508,-6,-25,6,23,12,1,-28,0
1532068784513,-8,3,-12,-39,1,-1,0,-9
1532068784518,12,10,30,-18,-16,-8,-5,4
1532068784523,-5,4,-1,-2,-2,1,3,-3
1532068784528,-5,-13,-37,15,-6,0,5,-7
1532068784533,-13,-3,-3,-42,-4,0,-4,2
1532068784538,8,1,5,31,9,1,-6,-1
1532068784543,-8,-4,16,-22,-4,-2,-3,-4
1532068784548,3,3,7,-28,-1,1,3,0
1532068784553,-2,5,17,36,6,0,0,-1
1532068784558,8,7,7,30,4,0,8,1
1532068784563,-12,1,12,-22,-7,-3,-7,-2
1532068784568,-5,4,4,4,-4,0,2,3
1532068784573,-3,-26,-8,-6,7,2,-1,-8
1532068784578,1,-3,27,26,5,0,-2,0
1532068784583,1,1,-11,-10,-1,-1,-3,-2
1532068784588,-2,4,11,-12,-3,-3,-5,-2
1532068784593,7,5,-27,-26,-8,-3,0,0
1532068784598,-8,-15,-4,18,5,2,1,-1
1532068784603,6,6,-2,16,3,0,-4,4
1532068784608,-1,-1,2,8,-6,-4,3,-5
1532068784613,-1,6,-7,15,0,0,3,-1
1532068784618,2,-2,12,-3,3,2,0,0
1532068784623,-4,-9,-6,8,-3,-1,-2,-4
1532068784628,-3,-8,0,0,6,0,1,2
1532068784633,-4,3,2,-24,-9,-1,-3,-5
1532068784638,5,8,10,18,5,1,0,2
1532068784643,-1,3,6,1,0,-2,2,3
1532068784648,-1,4,-6,-4,-10,-2,-4,-2
1532068784653,-3,-5,-11,-10,2,0,-3,-2
1532068784658,4,-4,1,14,3,1,5,3
1532068784663,-6,6,14,12,0,-2,-2,-3
1532068784668,-4,-28,-17,-19,-3,-1,-1,-1
1532068784673,0,3,11,1,0,-2,0,-9
1532068784678,-3,9,5,-18,-3,0,0,8
1532068784683,-2,-10,-13,3,-1,1,-1,-4
1532068784688,5,11,8,8,4,2,5,0
1532068784693,-1,15,9,4,3,0,0,3
1532068784698,-2,-25,-8,-2,-5,-3,-2,1
1532068784703,0,19,13,-11,-4,-2,-4,-3
1532068784708,-2,-14,-51,-16,-4,-1,-2,-2
1532068784713,-3,-9,29,19,-3,0,1,4
1532068784718,-1,-2,3,8,2,0,-4,-7
1532068784723,0,1,-5,9,-1,-2,0,1
1532068784728,5,8,3,3,2,2,0,0
1532068784733,-2,-13,10,4,-1,0,0,-2
1532068784738,-1,4,-12,-6,-1,-1,-2,-4
1532068784743,-5,-17,-5,-8,-6,-2,-1,-4
1532068784748,2,8,10,10,3,-2,-1,1
1532068784753,3,5,3,-20,-3,-2,-1,3
1532068784758,-5,2,3,4,1,-1,-2,-2
1532068784763,0,-10,-8,-21,-1,0,-2,-1
1532068784768,-1,-5,13,32,5,-1,1,-2
1532068784773,-1,0,-14,-54,-13,-3,-1,2
1532068784778,0,1,10,-15,-1,-1,-2,3
1532068784783,0,-11,-16,20,6,3,-2,-5
1532068784788,1,8,1,-16,-2,-3,-1,-1
1532068784793,1,3,11,19,0,-1,-1,-1
1532068784798,-3,-8,-22,-9,-4,-1,-1,2
1532068784803,0,8,2,9,-1,-2,-1,-1
1532068784808,1,12,40,20,1,1,0,-1
1532068784813,-5,-14,-9,-14,2,0,-1,0
1532068784818,-3,6,1,-9,0,0,-1,-2
1532068784823,-3,-10,6,2,-5,0,2,2
1532068784828,-1,-13,-10,10,2,0,-3,-5
1532068784833,0,6,-1,2,2,2,2,-1
1532068784838,0,1,6,-2,-2,0,-1,-2
1532068784843,-2,1,-4,15,-2,-2,-2,1
1532068784848,1,12,-6,-6,-2,-1,-1,0
1532068784853,-3,-13,7,-3,0,-1,-3,-3
1532068784858,0,-18,-20,1,-4,-2,-1,-3
1532068784863,2,5,5,-1,-2,0,-1,2
1532068784868,0,7,4,-7,0,0,-1,-4
1532068784873,-1,-1,5,5,-4,-1,-2,-1
1532068784878,0,4,13,-2,-1,-3,-1,2
1532068784883,0,-8,-15,18,4,0,-1,-3
1532068784888,-7,1,4,-42,-8,-3,-1,2
1532068784893,1,-1,-2,5,1,0,0,1
1532068784898,-2,5,-10,-7,0,1,-3,-5
1532068784903,-1,3,5,2,0,0,-1,-1
1532068784908,-1,-3,-3,28,4,1,1,1
1532068784913,1,2,-5,-10,0,0,-1,-2
1532068784918,0,-2,9,-6,-1,1,1,3
1532068784923,2,6,-12,15,1,-2,0,0
1532068784928,-5,-8,-26,3,-4,-1,0,-2
1532068784933,-3,-8,-5,4,0,-1,-2,-1
1532068784938,1,8,2,-9,0,-2,-1,-2
1532068784943,-1,1,5,-1,-3,-2,-1,-2
1532068784948,1,-15,-6,2,1,-1,-1,0
1532068784953,-1,-2,-14,-6,-3,-2,-4,-4
1532068784958,1,8,3,6,0,0,0,0
1532068784963,-1,-11,-1,1,3,2,1,2
1532068784968,2,25,9,-10,-5,-2,0,-1
1532068784973,-2,-25,9,16,1,0,1,0
1532068784978,-5,-11,-4,-33,-6,0,-2,-3
1532068784983,-1,7,6,-1,0,-1,-1,-3
1532068784988,1,5,-2,-1,1,-1,-1,1
1532068784993,2,1,17,-1,0,0,2,4
1532068784998,-3,-2,-15,7,0,-1,-2,-3
1532068785003,1,2,0,-16,-4,-1,-3,-3
1532068785008,-1,-6,7,-7,-3,-2,0,0
1532068785013,0,5,-8,-5,-3,-2,1,1
1532068785018,-1,-10,7,2,3,1,-2,1
1532068785023,-3,-3,-3,10,-4,0,0,-2
1532068785028,4,-4,-5,-2,2,2,0,0
1532068785033,-1,10,7,-2,-2,-2,-1,-2
1532068785038,-1,-5,-16,5,-2,-3,-2,4
1532068785043,1,4,4,-27,-3,0,-1,-1
1532068785048,0,-4,5,-6,1,0,-1,-1
1532068785053,3,13,15,0,0,0,-2,0
1532068785058,-6,-8,13,23,2,0,0,0
1532068785063,-2,1,1,-5,1,-1,-1,-1
1532068785068,1,5,7,-2,-2,-1,-1,0
1532068785073,-3,-6,-24,-16,-4,1,1,-3
1532068785078,1,1,-6,9,-4,-3,-4,-3
1532068785083,-1,-3,-2,5,2,-1,0,0
1532068785088,-4,-4,0,0,-1,-1,1,-3
1532068785093,0,11,0,18,3,-3,-1,1
1532068785098,-1,-5,-9,-18,-2,1,2,-1
1532068785103,-3,-7,-5,-25,-8,-3,-2,-2
1532068785108,2,2,0,15,1,0,-1,-1
1532068785113,-2,-13,-13,1,-1,-1,-3,-2
1532068785118,2,2,13,18,2,1,0,-1
1532068785123,1,1,1,5,2,-1,0,-3
1532068785128,-4,2,3,-2,0,0,0,-7
1532068785133,-1,-1,1,-1,-1,-1,0,-6
1532068785138,-1,7,2,-4,-1,-1,-2,-4
1532068785143,2,8,5,7,-1,-2,2,4
1532068785148,0,-12,-4,-8,-4,0,0,5
1532068785153,-2,7,-12,3,3,1,-2,4
1532068785158,0,-5,28,-9,-1,2,2,6
1532068785163,-4,-15,-10,-7,1,-2,-4,-1
1532068785168,-1,1,6,15,2,-1,-1,4
1532068785173,1,9,-6,-19,-2,2,1,4
1532068785178,0,0,-6,11,-2,-1,-1,0
1532068785183,-4,-9,-10,-23,-1,-1,-2,-3
1532068785188,-1,-8,-1,34,1,-2,-1,-2
1532068785193,0,-1,10,-13,-3,-1,0,-1
1532068785198,0,-2,-20,-8,0,-1,1,1
1532068785203,-1,10,5,4,-3,-1,-2,-1
1532068785208,2,-16,-23,-10,0,-2,-3,-1
1532068785213,-1,5,-4,-2,-3,-2,-1,-2
1532068785218,-1,0,4,6,0,0,0,-3
1532068785223,0,5,1,4,1,1,1,0
1532068785228,0,5,3,-8,-2,1,2,0
1532068785233,-1,1,5,3,1,0,0,-1
1532068785238,-1,1,4,-1,-4,-3,-1,2
1532068785243,1,-22,-8,4,1,0,-3,-1
1532068785248,-2,2,-3,4,-1,-1,-3,-2
1532068785253,-1,-2,3,1,-3,-2,0,-2
1532068785258,-1,8,2,-25,-4,-1,-3,-2
1532068785263,0,16,8,5,-1,0,1,-1
1532068785268,0,-4,12,8,0,-1,0,1
1532068785273,-1,-12,-18,5,0,0,-1,-2
1532068785278,1,-1,36,5,-2,0,-1,-1
1532068785283,-7,0,6,7,1,0,1,0
1532068785288,-3,6,-20,-16,-6,-3,-3,-3
1532068785293,0,-12,8,9,2,-1,-1,2
1532068785298,-1,-2,-14,-3,-2,-2,-3,-2
1532068785303,0,7,4,13,0,1,2,-2
1532068785308,-2,20,11,-5,2,0,0,-1
1532068785313,-3,-31,-29,-6,-2,-2,-3,0
1532068785318,1,-2,-12,4,1,0,2,0
1532068785323,2,4,-8,16,3,-2,0,-4
1532068785328,-3,-11,-4,-64,-8,-2,1,2
1532068785333,-1,11,8,6,-6,-3,-5,0
1532068785338,0,-3,1,-3,-2,0,0,-1
1532068785343,0,-7,-10,12,4,0,-1,-1
1532068785348,1,4,5,10,3,0,-1,0
1532068785353,0,16,4,-32,-2,-1,-2,-4
1532068785358,-4,-15,-6,8,0,-1,-2,-2
1532068785363,0,-1,-8,-3,-4,-1,-1,1
1532068785368,0,-5,-1,-6,-2,-3,-2,-4
1532068785373,-1,4,11,-1,-1,1,1,0
1532068785378,1,7,-6,3,3,-1,-1,-4
1532068785383,1,-2,7,-5,-2,-3,-1,0
1532068785388,-2,-18,-7,9,2,0,-1,0
1532068785393,3,6,35,10,0,0,1,1
1532068785398,-2,-1,4,2,3,-1,0,-1
1532068785403,-1,-2,-4,-6,-1,0,0,1
1532068785408,0,14,-1,2,-1,0,-2,-1
1532068785413,0,-4,3,-2,1,1,0,0
1532068785418,-1,-2,-1,13,1,0,0,-2
1532068785423,0,-1,3,-12,-2,0,0,-2
1532068785428,0,0,5,16,-3,-3,-3,-2
1532068785433,-2,0,-27,-1,2,0,-1,-2
1532068785438,-1,5,0,-9,-3,0,0,3
1532068785443,-2,-1,4,-5,-5,0,-1,0
1532068785448,-4,-2,-1,5,1,-3,0,0
1532068785453,-1,4,-9,-21,-3,-3,-1,0
1532068785458,1,-13,-11,3,-1,-1,-1,-1
1532068785463,-2,-4,7,12,1,1,0,-2
1532068785468,-4,-6,-1,-9,2,0,1,4
1532068785473,-3,4,1,9,-3,-1,-2,0
1532068785478,-1,4,-1,-9,0,-1,-2,-1
1532068785483,0,-5,-15,1,-1,-2,-1,-1
1532068785488,3,-2,6,2,1,2,1,-1
1532068785493,-1,5,2,24,1,-2,-1,-2
1532068785498,-2,-8,-4,-19,-1,-1,1,-2
1532068785503,-1,-2,5,-17,-5,-4,-4,-1
1532068785508,-1,-9,-11,6,-1,-1,-2,1
1532068785513,1,2,-1,-6,-1,1,1,-2
1532068785518,2,10,29,3,-1,-1,-1,-2
1532068785523,-1,1,-3,5,-1,0,-2,0
1532068785528,-1,2,-1,3,-3,0,0,-1
1532068785533,-3,-9,-15,8,1,1,-1,-2
1532068785538,-2,-12,-22,-27,-4,-2,-1,-2
1532068785543,-1,3,-8,1,1,-1,-2,-1
1532068785548,-3,-7,17,6,-1,0,-2,0
1532068785553,3,2,-4,9,3,0,1,-2
1532068785558,-4,-3,0,-13,-3,-1,-1,-1
1532068785563,-2,1,-2,-3,-2,1,2,1
1532068785568,0,6,-12,-25,-8,-3,-2,-1
1532068785573,0,2,11,6,1,0,0,1
1532068785578,-2,-19,-12,10,0,-1,-1,0
1532068785583,0,-2,8,-3,-1,-1,-2,1
1532068785588,0,0,11,10,2,-1,-1,-2
1532068785593,-3,-3,-8,-11,-3,-2,0,-1
1532068785598,1,9,13,8,-3,-2,-1,2
1532068785603,-2,-3,-2,0,1,0,0,-3
1532068785608,2,8,2,2,2,1,3,-3
1532068785613,-3,-14,-7,-20,-6,-3,-4,1
1532068785618,1,8,-1,19,4,0,0,-3
1532068785623,1,5,10,2,-1,0,1,0
1532068785628,-1,3,-1,8,-2,-2,-2,-3
1532068785633,1,-1,2,-25,-3,-4,-4,-2
1532068785638,-1,0,-1,-4,-2,-1,-1,-2
1532068785643,-1,4,3,15,4,1,0,0
1532068785648,-1,-4,-1,-3,1,0,0,0
1532068785653,-2,-10,-3,6,-5,-2,-1,0
1532068785658,1,2,-14,11,5,0,-3,0
1532068785663,0,2,7,-9,3,0,1,-1
1532068785668,2,-1,-8,5,0,0,1,0
1532068785673,-1,-8,4,-34,-3,-1,-1,0
1532068785678,-3,-7,-25,9,-2,2,0,-2
1532068785683,0,-1,0,-27,-2,-1,1,-1
1532068785688,-4,3,6,8,0,-1,0,0
1532068785693,-2,0,-6,6,2,0,0,-2
1532068785698,-1,5,14,2,1,0,-2,0
1532068785703,0,0,-1,-1,-3,0,-1,0
1532068785708,2,2,-4,3,0,-2,-2,-2
1532068785713,0,4,6,1,1,0,-1,-3
1532068785718,3,1,-4,-4,-4,-3,1,1
1532068785723,-2,-3,-4,20,2,-1,-3,2
1532068785728,-2,3,-10,-23,-1,-1,-1,-2
1532068785733,-1,-21,-1,16,1,2,0,0
1532068785738,0,1,3,5,2,-2,0,0
1532068785743,-1,-2,-2,-9,-2,-1,-1,-2
1532068785748,-2,-6,-1,15,0,-2,-1,1
1532068785753,0,14,3,0,1,-2,0,2
1532068785758,-3,-3,15,-6,0,-1,1,-1
1532068785763,0,3,-39,4,-3,-4,-2,-2
1532068785768,-2,-5,3,-8,1,1,-1,1
1532068785773,-2,0,-7,-2,-2,0,-1,-1
1532068785778,-1,12,-4,-3,-3,-1,-3,-1
1532068785783,-2,-10,4,-2,-1,-2,1,-2
1532068785788,0,-5,-10,-6,-3,-2,-2,-2
1532068785793,0,5,11,23,1,1,0,2
1532068785798,0,3,-6,-24,-1,1,1,-1
1532068785803,-8,1,7,-2,-3,-2,-2,1
1532068785808,-1,0,2,8,-2,-1,-1,0
1532068785813,-3,-1,2,-11,-1,0,0,0
1532068785818,-1,2,5,12,1,0,-1,-4
1532068785823,2,0,0,1,3,1,3,-3
1532068785828,2,1,8,6,-1,-3,1,0
1532068785833,-1,0,-8,-3,1,-3,-4,-3
1532068785838,-2,-1,3,0,-2,0,0,2
1532068785843,2,4,4,-4,-1,1,-2,2
1532068785848,-2,-6,-10,-1,-1,0,1,-4
1532068785853,2,10,7,-2,-1,0,2,1
1532068785858,-2,-5,5,-4,-3,-4,-3,-1
1532068785863,-2,-19,-25,1,-2,-1,-2,-4
1532068785868,0,5,2,11,2,1,-1,-1
1532068785873,1,-1,1,-17,-3,2,1,-1
1532068785878,0,-7,1,3,0,0,1,-1
1532068785883,0,6,5,-1,-3,0,-1,-2
1532068785888,-2,-12,-29,-9,1,-1,-3,-3
1532068785893,-1,-3,4,1,-2,-1,1,-2
1532068785898,-2,-4,-3,-8,1,-1,0,-2
1532068785903,-1,-11,5,-1,1,-1,-3,0
1532068785908,0,3,6,-1,-2,-2,-1,0
1532068785913,1,8,3,-1,1,-1,-3,-1
1532068785918,1,-7,5,9,4,2,0,2
1532068785923,-1,4,-13,1,-2,-1,-2,-1
1532068785928,-1,-11,-3,-16,-3,1,-1,-3
1532068785933,0,-2,-4,-2,-3,-2,-2,-1
1532068785938,-1,11,12,4,0,-1,-1,-2
1532068785943,0,4,14,19,1,1,-1,-2
1532068785948,0,2,6,-12,-1,2,0,1
1532068785953,2,-1,-3,-2,-4,-2,-2,1
1532068785958,-1,-1,-16,1,0,-2,-1,-1
1532068785963,-1,-5,6,-13,-3,-1,0,-3
1532068785968,-1,1,7,7,0,-1,-1,1
1532068785973,-2,-5,1,0,1,-2,-1,-3
1532068785978,1,2,-9,-8,-1,3,0,-1
1532068785983,1,3,-1,1,-1,-3,-3,1
1532068785988,-1,5,7,2,-1,-1,-1,-1
1532068785993,-4,-11,-1,1,-1,-1,-1,-4
1532068785998,-3,-12,-23,-13,-5,-3,-1,-2
1532068786003,0,6,4,-33,-3,1,1,-1
1532068786008,-1,9,-3,15,1,-1,-2,0
1532068786013,-2,-18,-14,-7,-2,0,-1,0
1532068786018,-1,-1,7,-3,0,-1,-1,0
1532068786023,-1,-13,1,8,-1,1,2,0
1532068786028,2,8,-8,-6,1,-1,2,-3
1532068786033,1,7,27,8,-1,1,1,0
1532068786038,0,-6,-4,-2,-1,-1,-2,-2
1532068786043,-7,1,-2,-1,1,-1,0,-3
1532068786048,-1,-2,3,2,0,0,1,-3
1532068786053,2,4,-7,2,0,0,0,0
1532068786058,-1,0,6,-2,-1,-3,-2,-3
1532068786063,-1,-1,-5,-2,-1,-3,-1,3
1532068786068,-1,-6,0,-1,-3,-1,-1,0
1532068786073,-2,6,-7,-2,3,-1,-2,-1
1532068786078,-2,-12,2,-7,-3,1,2,3
1532068786083,1,0,0,17,5,-1,0,-2
1532068786088,0,-1,-2,-36,-4,-2,2,-1
1532068786093,-1,6,6,16,-1,-1,-2,0
1532068786098,0,-4,-5,-5,0,0,-2,-4
1532068786103,-1,-4,-11,16,-1,-1,-3,-2
1532068786108,1,-4,12,-7,-1,-1,-1,3
1532068786113,-1,4,-3,-5,1,-2,0,-2
1532068786118,0,11,8,8,2,-1,-2,-1
1532068786123,1,-4,3,1,-1,1,-1,-1
1532068786128,0,4,-2,8,0,-1,-2,-1
1532068786133,-7,-1,1,-5,-3,-3,-2,0
1532068786138,-1,-1,-9,2,-1,-2,1,0
1532068786143,0,6,2,-9,-4,-3,-1,-1
1532068786148,1,-1,1,9,1,-2,-1,-1
1532068786153,2,1,7,0,-3,0,-2,-2
1532068786158,-2,4,0,-18,-4,1,-1,-4
1532068786163,-1,-1,2,-4,-4,-1,1,4
1532068786168,-1,-2,1,7,-2,-2,-3,-1
1532068786173,-2,-5,-6,8,3,0,3,-2
1532068786178,-2,5,1,-4,0,-2,-1,1
1532068786183,-1,-4,0,-8,-2,-1,0,-3
1532068786188,-4,-4,-4,-1,-2,0,-3,-1
1532068786193,-1,-2,-6,-2,-3,-2,-2,-1
1532068786198,0,2,-1,14,3,1,0,-2
1532068786203,-1,1,-1,-3,-2,-1,0,1
1532068786208,-2,-4,-18,2,-3,-1,-2,-3
1532068786213,-1,-5,11,1,1,2,-1,-2
1532068786218,-1,0,5,0,-1,-1,0,0
1532068786223,0,3,-1,-4,0,0,-1,-2
1532068786228,-3,-3,5,0,0,0,0,2
1532068786233,1,-2,-17,-6,2,-3,0,-2
1532068786238,-1,-7,1,2,-2,-1,0,0
1532068786243,0,8,9,-4,4,1,-2,-1
1532068786248,3,-13,-15,2,-4,-3,-3,-5
1532068786253,0,-1,2,-4,-2,1,-2,1
1532068786258,0,-2,-2,0,2,0,0,0
1532068786263,0,1,-2,0,-1,0,0,0
1532068786268,-2,3,10,3,0,0,1,0
1532068786273,-1,1,-3,-2,-2,-2,-3,9
1532068786278,0,-2,-9,-2,-4,-2,-1,14
1532068786283,-2,5,6,-4,-3,0,0,8
1532068786288,-3,-12,-5,1,3,-2,-1,-1
1532068786293,0,2,-2,-4,-3,-2,0,-10
1532068786298,0,2,-5,1,2,-2,-3,-12
1532068786303,-2,-8,-4,-1,-3,-2,-2,-5
1532068786308,-2,0,8,2,1,-1,0,-8
1532068786313,0,0,-5,0,0,0,0,-3
1532068786318,-1,-1,-1,0,-2,-2,0,-2
1532068786323,0,-1,-1,0,-1,-2,-1,-5
1532068786328,1,7,1,0,2,0,0,-3
1532068786333,1,0,-31,-8,-1,-2,-2,-2
1532068786338,-2,-5,13,0,-3,1,3,0
1532068786343,0,-7,-18,-1,-3,-2,-1,-3
1532068786348,-3,-5,2,6,1,-2,3,0
1532068786353,-2,1,-3,6,0,-2,-2,-3
1532068786358,0,6,6,10,3,0,-3,1
1532068786363,-2,2,3,4,-1,0,-1,-2
1532068786368,0,-5,-9,-18,-6,-2,-3,0
1532068786373,0,8,10,5,0,0,0,1
1532068786378,0,-9,-2,-2,-3,-1,-1,-4
1532068786383,2,6,7,15,4,1,-1,0
1532068786388,-1,5,8,4,1,0,0,-2
1532068786393,-3,-17,2,-6,-3,0,1,-2
1532068786398,2,14,1,2,-2,-2,-4,0
1532068786403,-2,-13,5,18,4,0,0,2
1532068786408,0,2,-6,-48,-8,0,0,-1
1532068786413,-1,3,7,-5,-3,-1,0,3
1532068786418,-3,-4,-17,-1,2,-1,-1,0
1532068786423,0,-1,-12,-8,0,-1,0,-1
1532068786428,0,3,1,26,3,0,0,1
1532068786433,-1,-3,7,4,0,0,1,1
1532068786438,0,2,-7,-20,-5,-2,-3,-2
1532068786443,-1,2,-2,3,1,1,0,0
1532068786448,-2,-10,6,4,0,4,1,-1
1532068786453,2,-1,2,-9,-2,-1,-2,0
1532068786458,-2,-4,-7,7,0,1,0,-1
1532068786463,3,-3,-4,-12,-3,-1,-3,-1
1532068786468,-1,4,1,3,0,0,-1,0
1532068786473,-1,-5,-3,0,-1,1,-3,-2
1532068786478,0,-2,3,0,-1,-2,2,1
1532068786483,-2,1,0,-10,-5,-3,-5,-3
1532068786488,0,13,0,3,0,-2,-1,2
1532068786493,1,-9,15,9,2,0,0,0
1532068786498,1,1,11,27,0,0,1,-3
1532068786503,-1,0,-7,-50,-4,-2,1,0
1532068786508,-2,2,-3,-5,-4,-1,-3,4
1532068786513,0,12,-2,1,0,-2,-1,-1
1532068786518,-2,-8,-15,7,0,-1,-1,0
1532068786523,2,0,9,-5,1,2,1,0
1532068786528,-3,-9,-11,1,-2,-1,-1,-2
1532068786533,-1,4,-2,-1,1,0,-1,3
1532068786538,0,3,5,-8,-2,0,-1,-1
1532068786543,-3,-5,6,12,-1,2,-3,-3
1532068786548,1,1,0,-2,1,-2,2,-1
1532068786553,-1,-5,8,7,-1,-1,0,0
1532068786558,-3,-24,-12,-1,1,-1,-1,-3
1532068786563,-3,0,-4,13,-1,-2,0,-1
1532068786568,-1,-4,-9,-34,-5,-4,-2,2
1532068786573,4,4,28,7,4,2,1,-1
1532068786578,-1,13,8,-6,0,0,-1,0
1532068786583,0,6,9,14,1,0,0,1
1532068786588,0,-13,3,4,-1,-2,-2,-3
1532068786593,0,3,-17,-7,-1,-2,1,-1
1532068786598,-2,2,-4,-14,-4,-1,-1,-2
1532068786603,0,-4,2,4,1,-2,-1,-1
1532068786608,0,7,5,12,2,0,0,-1
1532068786613,-1,-3,-5,-5,-2,-2,-1,-2
1532068786618,-2,-4,2,-1,-1,0,1,-1
1532068786623,-4,-7,-17,-3,-2,-2,0,-2
1532068786628,0,4,7,6,-2,-1,-2,-2
1532068786633,-1,-3,-9,-2,2,0,-2,-1
1532068786638,0,0,2,-2,-1,-2,0,-1
1532068786643,1,3,8,-4,-2,-1,0,0
1532068786648,-1,-3,-2,4,0,-1,-1,0
1532068786653,-1,-3,-4,0,-1,-1,-2,-1
1532068786658,1,7,3,-4,0,0,-1,2
1532068786663,-2,-1,4,-2,0,1,0,4
1532068786668,0,1,0,8,0,-1,-1,0
1532068786673,-1,-1,-7,-3,1,0,1,0
1532068786678,-1,7,3,-3,-3,-1,-2,-1
1532068786683,-1,12,18,-3,-3,-4,-4,-6
1532068786688,-1,-9,-2,3,2,2,2,3
1532068786693,-5,1,-3,-2,-5,-1,-3,-1
1532068786698,-1,-15,4,-6,-4,-1,-1,0
1532068786703,2,9,-14,7,1,1,-2,2
1532068786708,1,2,5,-3,-2,-1,-1,-2
1532068786713,-1,-4,3,7,-1,-1,-2,1
1532068786718,-2,8,-12,2,0,-2,-2,-1
1532068786723,-1,-7,-1,-24,-3,1,1,0
1532068786728,-5,1,4,9,0,1,-1,1
1532068786733,-2,-4,-13,-3,-2,-2,-1,0
1532068786738,0,2,-1,8,1,0,-1,0
1532068786743,2,0,2,9,2,-1,-1,0
1532068786748,0,-6,-6,-7,-2,-1,-2,-2
1532068786753,-4,0,-4,-3,-2,-1,-2,-2
1532068786758,-1,0,-5,-5,0,0,-1,0
1532068786763,-2,-10,-3,-1,-4,-2,0,0
1532068786768,-2,-5,-11,0,-3,-1,0,-2
1532068786773,1,-2,-1,10,1,-1,1,-2
1532068786778,1,2,8,-33,-4,0,0,3
1532068786783,3,4,-9,16,-1,-1,-3,-2
1532068786788,1,-5,-2,-25,-4,-1,-2,-1
1532068786793,0,-1,-9,4,-3,-1,0,-1
1532068786798,-3,-19,-2,20,3,-1,-1,-3
1532068786803,-1,3,1,-11,-2,2,1,6
1532068786808,1,4,4,8,2,0,0,0
1532068786813,0,2,0,1,-2,-1,-1,-2
1532068786818,2,-5,-3,1,0,-1,0,1
1532068786823,-1,-6,-8,-3,2,-1,1,-2
1532068786828,1,1,5,8,0,0,0,-1
1532068786833,-1,6,-2,-10,-1,-1,-2,-2
1532068786838,-1,0,-2,9,-1,0,-1,-1
1532068786843,-2,-2,0,-3,-2,-2,0,-2
1532068786848,0,6,3,-3,2,-1,0,-1
1532068786853,-1,-6,0,1,-3,-1,0,1
1532068786858,0,1,-9,-11,-4,-2,-3,-5
1532068786863,0,2,15,3,1,0,0,1
1532068786868,0,4,1,2,-2,0,1,0
1532068786873,-1,-3,-2,-2,1,0,-1,1
1532068786878,-2,-1,15,16,4,-2,-1,-1
1532068786883,-1,-6,-41,-14,-2,-1,-2,-4
1532068786888,-2,-3,14,-16,-5,-1,0,2
1532068786893,0,-4,-4,3,3,2,0,-1
1532068786898,-2,7,0,0,-1,-3,-1,1
1532068786903,-2,-14,0,11,1,0,2,-2
1532068786908,-2,3,-10,6,4,-2,-2,-1
1532068786913,-1,6,8,-10,-3,-2,-2,0
1532068786918,-1,-18,-16,-1,-3,-1,-2,-6
1532068786923,0,8,13,-1,-1,1,-1,3
1532068786928,0,-6,0,8,-1,-2,-3,-4
1532068786933,0,2,-5,-15,-4,-2,-2,0
1532068786938,0,11,4,4,2,0,1,0
1532068786943,-3,-10,7,-13,-3,1,-2,1
1532068786948,0,-7,-18,3,0,-1,-1,-2
1532068786953,-2,-1,-1,6,2,-1,0,0
1532068786958,0,5,1,1,3,1,-1,0
1532068786963,-1,2,-12,-13,-4,0,1,-3
1532068786968,-3,6,-6,5,1,0,-1,-1
1532068786973,0,-15,1,13,2,0,0,-1
1532068786978,-1,-2,-4,-19,-3,0,0,-2
1532068786983,0,7,5,7,-1,-1,-3,-2
1532068786988,2,3,2,0,-1,-1,1,-1
1532068786993,-1,9,8,3,-2,0,-1,-1
1532068786998,-3,-13,-10,13,0,-2,0,0
1532068787003,-2,-7,-14,-3,0,0,-2,-2
1532068787008,1,-1,6,-7,-1,1,0,0
1532068787013,-4,-2,2,6,0,2,-2,-2
1532068787018,0,4,8,-6,-3,-4,-3,3
1532068787023,1,8,1,-1,0,-1,-4,-2
1532068787028,-2,-3,1,-1,-5,0,0,1
1532068787033,-1,7,7,0,0,-1,0,0
1532068787038,-1,-6,0,-4,-1,1,0,-1
1532068787043,0,-2,0,7,0,0,1,0
1532068787048,-1,-1,-3,-24,-2,-3,-2,0
1532068787053,1,3,-6,0,1,-1,0,0
1532068787058,-1,2,-5,1,-1,-1,-3,-2
1532068787063,1,-5,7,9,-1,-2,-1,-2
1532068787068,0,3,3,1,1,2,-1,1
1532068787073,-2,-9,-1,-7,-4,0,-2,-2
1532068787078,-1,4,-8,-3,0,0,-1,-2
1532068787083,2,-1,7,11,4,0,1,4
1532068787088,0,8,7,-6,-2,-1,-1,-2
1532068787093,-1,-12,8,-6,-3,-1,1,1
1532068787098,-2,-5,-2,9,0,1,2,-1
1532068787103,-8,-10,-2,-5,-1,0,-3,-4
1532068787108,0,-1,0,14,4,0,1,-1
1532068787113,0,3,-5,-5,-2,1,0,-2
1532068787118,0,5,6,-5,2,0,-2,-8
1532068787123,0,6,8,5,0,-2,0,-7
1532068787128,-3,-8,-1,9,-2,-2,0,-3
1532068787133,-3,-2,-9,-32,-6,-1,-1,-1
1532068787138,1,1,9,2,-2,-1,1,5
1532068787143,-2,2,-16,-8,-2,-1,-3,4
1532068787148,-1,1,-7,11,1,-1,-4,0
1532068787153,1,-2,-4,5,1,0,-1,1
1532068787158,0,3,9,-4,-3,0,-1,4
1532068787163,1,6,2,-1,-1,-1,0,1
1532068787168,-2,-13,-6,-5,-2,-1,-1,-2
1532068787173,1,-4,-5,16,2,1,-3,0
1532068787178,0,9,-12,-13,-4,-4,-4,-4
1532068787183,0,-5,14,-9,1,0,1,2
1532068787188,-3,6,2,1,-5,-2,-2,-1
1532068787193,-1,-10,-4,-1,-1,-3,-2,-3
1532068787198,-1,1,-4,12,2,1,0,1
1532068787203,0,2,14,8,0,0,1,-2
1532068787208,-1,10,1,-18,0,0,0,1
1532068787213,1,-10,-2,11,-2,-3,-1,-2
1532068787218,-5,1,-2,0,0,-1,0,0
1532068787223,0,-7,-5,5,-1,-1,0,-2
1532068787228,1,4,-4,-3,1,0,-1,2
1532068787233,0,7,0,2,-1,-2,-2,-2
1532068787238,-2,-8,-1,0,0,0,-1,-1
1532068787243,-1,1,-6,-7,-4,-1,-1,0
1532068787248,-2,-2,-26,1,-1,-2,-2,0
1532068787253,-1,-1,0,-1,0,1,3,1
1532068787258,0,-5,-3,-5,-3,-2,-1,-2
1532068787263,0,4,3,13,3,1,-1,2
1532068787268,1,-1,11,-14,-3,0,1,0
1532068787273,-2,1,-11,-6,-1,0,-3,-1
1532068787278,-1,-8,-10,0,-2,0,-2,-1
1532068787283,0,0,-7,-22,-2,-1,-1,-1
1532068787288,2,-4,4,20,1,1,1,0
1532068787293,0,8,5,-6,0,-1,1,0
1532068787298,2,4,10,-4,-1,0,0,-3
1532068787303,-4,0,-1,8,0,0,1,0
1532068787308,-1,-12,-1,1,-1,-1,0,-4
1532068787313,1,3,-1,-1,-1,-2,1,0
1532068787318,0,-1,7,9,0,0,-1,1
1532068787323,-1,-8,-4,-6,-1,-3,-2,-1
1532068787328,0,-1,-5,7,-2,0,-2,-1
1532068787333,-2,1,-10,-34,-5,-2,-3,-1
1532068787338,-3,-4,2,2,0,0,3,0
1532068787343,-7,6,-4,3,-3,-4,-5,-2
1532068787348,-3,-16,3,6,1,0,-1,1
1532068787353,0,2,-2,4,0,1,-1,-2
1532068787358,-1,4,0,-4,0,-1,-1,0
1532068787363,-1,-4,2,6,-1,2,-1,-2
1532068787368,0,9,1,-5,0,-1,0,-3
1532068787373,-3,0,5,8,1,-1,-1,-2
1532068787378,0,-1,-7,-10,-2,-2,-2,0
1532068787383,0,8,15,1,1,0,0,0
1532068787388,0,-13,-13,-2,-1,0,-1,0
1532068787393,-1,-7,-3,2,-1,-1,0,-1
1532068787398,-2,-8,-7,7,1,-1,1,-2
1532068787403,1,4,-1,1,-1,-2,-2,0
1532068787408,0,14,13,-18,-5,-2,-5,0
1532068787413,-4,-9,7,11,0,0,0,-2
1532068787418,1,1,-1,-13,-3,-1,-3,-2
1532068787423,1,1,0,7,4,1,1,-1
1532068787428,-1,6,4,10,2,-1,0,-1
1532068787433,-1,-11,-5,-17,-2,-2,-1,-1
1532068787438,0,1,0,8,-1,-1,0,1
1532068787443,4,-6,-4,-8,-2,0,1,-3
1532068787448,-6,3,2,-14,-2,-2,-2,-2
1532068787453,1,6,0,7,2,1,-1,0
1532068787458,1,4,15,2,0,-2,-1,0
1532068787463,-2,-1,5,-7,-3,-1,-2,0
1532068787468,-2,-16,-30,10,0,0,1,-4
1532068787473,-1,2,4,15,-1,-1,0,1
1532068787478,-3,-9,-10,-41,-7,-2,-3,-1
1532068787483,1,3,-6,-13,-3,-1,1,0
1532068787488,1,5,16,6,0,1,1,1
1532068787493,-1,-1,-5,4,1,0,-2,-1
1532068787498,0,0,-3,11,0,1,1,-1
1532068787503,-2,-3,-1,-9,-2,-3,0,-1
1532068787508,-1,-3,1,-2,0,-1,-2,-1
1532068787513,1,11,3,-1,-1,1,0,-2
1532068787518,-3,-15,0,14,1,0,-2,-1
1532068787523,1,-1,-5,-3,0,1,-1,-1
1532068787528,-1,-1,3,-4,-2,-1,-1,2
1532068787533,1,3,1,17,1,0,-1,0
1532068787538,-2,5,2,-10,-4,-1,-1,2
1532068787543,1,1,11,11,-3,-3,-3,0
1532068787548,-1,2,4,3,2,-1,0,-9
1532068787553,0,4,3,26,0,-1,0,8
1532068787558,3,-10,2,-29,-3,1,2,0
1532068787563,-3,-2,-13,10,-6,-3,-3,0
1532068787568,1,-5,13,13,2,1,1,2
1532068787573,2,4,-10,-11,1,-1,0,-2
1532068787578,-3,7,12,4,-3,-1,0,-3
1532068787583,-2,-15,-36,-2,1,0,-1,-3
1532068787588,1,15,-6,-32,-3,-2,0,0
1532068787593,2,-6,9,24,1,0,2,-2
1532068787598,-2,-4,-2,11,5,-2,-1,-8
1532068787603,-2,2,4,-31,-5,-1,0,1
1532068787608,1,5,6,26,4,1,-1,3
1532068787613,-1,-3,-10,-57,-7,-2,-3,-2
1532068787618,1,10,3,-1,-2,-1,0,1
1532068787623,-1,-9,4,-11,-1,0,2,1
1532068787628,-1,-3,-6,48,3,-1,-1,-2
1532068787633,0,-6,5,-1,6,1,2,0
1532068787638,0,2,-4,-18,-6,-2,-3,2
1532068787643,-2,4,4,39,5,2,0,1
1532068787648,-1,-17,-20,-61,-14,-3,-1,0
1532068787653,-3,4,7,6,-1,0,-4,-3
1532068787658,1,-6,1,39,8,3,2,0
1532068787663,2,5,8,11,4,0,1,-2
1532068787668,-2,6,-2,-18,-4,-2,-2,-1
1532068787673,-2,-8,-2,14,-1,1,0,-1
1532068787678,-2,2,-22,-3,-4,-4,-3,-4
1532068787683,-3,5,-4,-10,1,1,0,-1
1532068787688,0,-6,15,12,-1,1,1,0
1532068787693,-5,-9,-3,-2,0,-2,-4,2
1532068787698,0,-4,-9,-23,-1,-2,-3,-2
1532068787703,1,11,8,17,-1,-1,-1,-3
1532068787708,-2,-11,-11,-16,-4,-4,-3,-1
1532068787713,2,17,-1,-17,-2,1,0,-2
1532068787718,-3,-17,1,5,-4,1,-1,4
1532068787723,-1,3,1,13,3,-1,-1,3
1532068787728,0,2,3,-19,-4,-1,-3,-2
1532068787733,0,2,1,11,-1,-2,0,-3
1532068787738,0,6,-3,20,6,2,2,-2
1532068787743,-1,-6,8,-25,-5,-2,0,-5
1532068787748,3,3,7,30,3,-1,1,4
1532068787753,-4,-8,-8,-26,-9,-3,0,-1
1532068787758,0,9,-3,67,10,-1,0,-6
1532068787763,0,-16,-8,-76,-6,-1,-1,-1
1532068787768,-7,0,3,15,-8,-5,-8,-2
1532068787773,2,-2,-1,10,2,3,4,0
1532068787778,-7,0,9,-18,0,-2,0,0
1532068787783,0,0,0,64,9,3,0,-2
1532068787788,2,3,-15,29,6,0,1,-3
1532068787793,0,-6,12,-30,-2,3,0,-1
1532068787798,2,25,38,19,1,-1,0,2
1532068787803,-1,-30,-35,23,0,-2,3,-2
1532068787808,-3,-2,-2,-38,-6,-2,-5,-2
1532068787813,-4,8,6,23,-1,-5,-2,9
1532068787818,0,-16,-25,5,-3,-2,-1,0
1532068787823,4,20,11,-14,3,-2,-2,-2
1532068787828,0,-7,0,52,-2,-2,1,-2
1532068787833,-3,0,-6,-86,-10,-4,-5,-6
1532068787838,0,6,-2,12,-5,-1,-4,0
1532068787843,-5,0,5,-9,-9,-3,-1,12
1532068787848,0,-18,-9,19,7,1,0,7
1532068787853,0,2,5,8,6,0,1,-2
1532068787858,1,-1,-2,16,-3,0,-2,-1
1532068787863,-2,3,11,4,-1,-1,-3,-4
1532068787868,3,17,6,-11,4,3,3,2
1532068787873,0,7,-6,48,1,0,0,0
1532068787878,-5,-5,3,-56,-10,-2,-3,0
1532068787883,-5,-30,-34,-2,0,-1,-4,-8
1532068787888,4,7,8,-15,0,0,2,18
1532068787893,2,0,-2,49,8,0,0,-10
1532068787898,5,4,5,-14,2,2,3,3
1532068787903,-7,9,14,-1,-3,0,-2,-9
1532068787908,-8,-11,-22,-24,-13,-5,-7,-4
1532068787913,2,-2,1,-7,1,1,0,-3
1532068787918,-1,-7,-13,-6,-3,-3,0,9
1532068787923,5,6,13,3,3,1,-1,5
1532068787928,-3,5,0,4,4,1,2,-2
1532068787933,0,-6,-6,-32,-4,-1,-1,-1
1532068787938,-3,3,0,-10,1,-1,-4,-6
1532068787943,-1,0,-5,-12,-12,-5,-1,2
1532068787948,2,13,4,3,1,1,2,-6
1532068787953,1,1,3,14,-2,-3,-4,0
1532068787958,-1,-7,11,-13,4,3,5,0
1532068787963,2,-10,-33,-11,-1,-2,-3,-5
1532068787968,0,-2,42,1,0,0,0,-6
1532068787973,-2,-10,-4,-18,-4,0,1,2
1532068787978,1,9,4,12,3,1,-1,-1
1532068787983,2,1,14,13,1,-2,0,2
1532068787988,-3,-15,-24,-46,-7,-1,0,-6
1532068787993,1,-1,11,25,0,-3,-2,2
1532068787998,2,9,0,-12,-2,-1,-1,2
1532068788003,-1,-1,16,17,4,-2,0,-2
1532068788008,-5,-4,-17,-8,2,0,-1,-4
1532068788013,-1,2,-18,0,-6,-5,-4,-1
1532068788018,0,-3,-1,8,-5,-1,0,-3
1532068788023,1,21,16,-9,0,1,0,5
1532068788028,-4,-14,-5,-31,-6,-2,-3,-4
1532068788033,-7,-9,-13,-6,-1,2,0,-3
1532068788038,-1,-7,-32,0,0,-1,-4,-3
1532068788043,1,2,-2,3,2,-1,2,6
1532068788048,-2,-8,0,-12,-7,0,1,-1
1532068788053,-7,3,-2,-10,-4,-1,-2,1
1532068788058,0,-8,-12,7,-2,-3,0,2
1532068788063,2,10,-1,17,3,0,-1,-1
1532068788068,1,2,12,-28,0,-4,1,-2
1532068788073,1,-8,-24,5,-3,-1,-2,-3
1532068788078,3,8,9,3,3,1,3,1
1532068788083,-2,-5,5,16,3,1,-1,-2
1532068788088,0,3,9,-13,-3,-3,-3,-4
1532068788093,-2,2,-3,13,3,1,2,0
1532068788098,0,-14,0,-8,2,1,2,0
1532068788103,-2,-1,-6,0,-11,-2,-1,1
1532068788108,2,12,-12,11,2,-3,-3,-1
1532068788113,1,6,14,-14,-2,0,1,0
1532068788118,4,-13,-7,36,5,-2,-1,-2
1532068788123,-2,10,-2,-11,-2,1,0,-3
1532068788128,-4,-10,-14,-26,-4,-1,-3,-1
1532068788133,-2,-5,-7,-6,-3,-3,-7,-4
1532068788138,0,8,18,-2,-2,-2,0,0
1532068788143,1,8,3,1,-1,-1,1,0
1532068788148,1,-2,-5,19,2,-1,-2,-6
1532068788153,-1,-9,-4,-10,3,1,-1,0
1532068788158,-2,4,13,13,3,0,-1,0
1532068788163,0,1,16,-26,-4,0,-2,-1
1532068788168,-2,10,4,14,-3,-2,0,-1
1532068788173,-2,-18,-5,11,-1,-1,1,1
1532068788178,2,6,10,5,-5,0,-1,-1
1532068788183,-2,7,-2,4,2,-1,-2,-1
1532068788188,-1,-5,0,21,4,-1,-2,0
1532068788193,-7,-3,6,-41,-3,0,-1,-4
1532068788198,-1,6,9,7,2,-1,-3,1
1532068788203,0,3,7,6,0,-1,0,2
1532068788208,0,-7,-3,1,-1,1,0,-4
1532068788213,1,2,-11,-8,-3,0,1,1
1532068788218,-2,-1,-4,-3,-1,0,-1,-3
1532068788223,-2,-6,-6,-5,0,-1,-4,0
1532068788228,1,1,12,5,1,1,1,0
1532068788233,1,-3,3,1,-2,0,1,3
1532068788238,1,7,-5,1,-1,1,1,1
1532068788243,-2,-3,-1,-8,-4,-1,-1,-2
1532068788248,-2,-25,-17,1,-1,2,1,-1
1532068788253,3,7,5,5,-1,0,-2,-1
1532068788258,-7,-2,-6,-8,-1,-4,-6,-7
1532068788263,0,8,4,22,3,0,1,1
1532068788268,0,3,1,-41,-4,-1,0,0
1532068788273,1,7,15,0,-2,-2,-2,1
1532068788278,-2,-14,2,-27,-5,-1,0,-3
1532068788283,-1,-3,-12,0,-2,-2,-3,-3
1532068788288,-2,6,4,8,3,-1,-1,0
1532068788293,-1,-6,-3,2,1,-1,-1,0
1532068788298,2,6,-10,3,-2,-2,1,1
1532068788303,-3,-3,3,-17,-4,-3,-3,-2
1532068788308,4,3,-5,9,-1,-3,-1,-2
1532068788313,-1,12,-3,-9,-2,-4,-3,-2
1532068788318,-2,-17,4,1,1,1,0,1
1532068788323,0,-7,-20,-4,-2,0,-2,0
1532068788328,-5,-5,9,13,-2,-1,0,-2
1532068788333,1,12,-10,8,0,-2,-3,-3
1532068788338,1,1,15,-8,-1,1,1,3
1532068788343,-3,-5,-3,0,1,-1,0,-1
1532068788348,-2,-2,-24,-8,-4,-3,-4,-1
1532068788353,-1,-2,9,-1,-1,1,1,-3
1532068788358,-1,-4,-15,10,2,-3,0,1
1532068788363,0,12,14,7,0,1,-1,-1
1532068788368,1,12,17,-13,2,0,1,2
1532068788373,-3,-24,-7,6,-2,-1,-2,2
1532068788378,4,12,24,4,-3,-1,-1,19
1532068788383,0,-4,-3,-1,-1,-1,0,15
1532068788388,-3,-1,-1,0,-2,-2,-1,6
1532068788393,-1,-13,-12,2,0,1,0,-3
1532068788398,0,12,-5,-8,1,-2,-1,-12
1532068788403,0,-24,1,12,2,0,-1,-12
1532068788408,-4,6,8,-4,1,0,-1,-5
1532068788413,-1,15,4,-11,-3,-1,-2,-5
1532068788418,-3,-16,-15,-1,0,-2,-1,-8
1532068788423,1,3,-14,12,1,0,0,-2
1532068788428,1,-7,6,-21,-4,-1,-1,-7
1532068788433,-2,3,-2,-5,0,1,2,1
1532068788438,0,5,5,14,-2,-1,0,-3
1532068788443,-1,-3,4,-6,0,0,-3,-6
1532068788448,-2,3,5,5,1,1,2,0
1532068788453,1,-4,-7,-9,-2,-2,-1,1
1532068788458,-3,-16,-22,-2,-2,-1,-4,1
1532068788463,-1,9,5,-1,0,-1,0,-5
1532068788468,1,-7,-3,-1,-1,-1,-2,0
1532068788473,1,7,13,-5,-3,-1,2,1
1532068788478,-1,-6,13,8,3,3,0,-2
1532068788483,1,-1,-1,-8,-3,1,-1,-1
1532068788488,-2,-2,-22,4,0,-3,-2,-3
1532068788493,0,-5,-11,6,3,2,-1,-1
1532068788498,0,6,0,-8,-7,-5,-3,-3
1532068788503,2,8,-3,-9,-3,-3,-2,2
1532068788508,1,-4,11,7,-3,1,1,1
1532068788513,-1,4,4,3,3,0,1,1
1532068788518,-3,-9,-17,-4,0,-1,-2,-3
1532068788523,0,4,7,1,-2,-3,-2,0
1532068788528,2,7,0,12,1,-1,0,0
1532068788533,-3,-23,-3,-5,-1,0,0,1
1532068788538,0,0,1,-16,-3,0,0,1
1532068788543,0,-4,-9,-4,-1,-1,-1,1
1532068788548,-1,1,8,3,2,0,0,-2
1532068788553,-3,-5,9,14,2,1,0,0
1532068788558,0,-10,1,2,2,2,3,1
1532068788563,-1,-5,-6,-5,0,-1,2,-2
1532068788568,1,18,7,12,3,-1,-3,-3
1532068788573,-1,-21,-11,-12,-2,-4,-3,2
1532068788578,2,8,2,-1,1,3,-1,0
1532068788583,-8,-11,-4,3,2,0,0,-2
1532068788588,-1,-3,-5,-6,-3,-2,-2,0
1532068788593,2,12,3,6,-3,-3,-3,-1
1532068788598,0,2,-3,0,-1,0,0,-1
1532068788603,4,3,-3,0,-1,0,0,1
1532068788608,-2,4,3,12,3,2,-1,4
1532068788613,-4,-11,-1,-32,-9,-1,-2,-2
1532068788618,-2,-1,-4,6,-1,-2,-3,-1
1532068788623,2,9,9,3,1,-1,0,0
1532068788628,0,-11,-6,-6,-3,0,2,1
1532068788633,0,8,-6,8,3,-1,-3,-1
1532068788638,1,9,-12,-4,-4,-1,0,-2
1532068788643,-1,1,11,-5,0,1,-1,2
1532068788648,1,-15,-10,-4,-3,-2,-2,0
1532068788653,-1,14,-14,6,4,0,-4,-5
1532068788658,-2,-25,-11,-2,-3,-1,-1,2
1532068788663,-8,9,4,1,0,-3,-4,-5
1532068788668,2,-3,-2,-18,-5,-1,-1,-1
1532068788673,2,1,-2,6,0,-1,1,-1
1532068788678,-1,8,0,-4,-1,-1,-4,-3
1532068788683,0,-13,3,-1,-2,0,1,1
1532068788688,-2,-2,-3,-1,1,-1,0,1
1532068788693,1,0,4,10,0,0,1,0
1532068788698,1,23,11,-25,-3,-2,0,-2
1532068788703,1,-18,-16,18,0,-1,0,1
1532068788708,-2,-5,2,-12,-1,-1,-2,-2
1532068788713,0,-13,3,2,-5,-1,0,2
1532068788718,0,4,1,7,1,0,0,0
1532068788723,-1,-3,-7,-11,-3,-1,-2,-3
1532068788728,-2,1,0,16,2,0,2,-4
1532068788733,-2,4,2,4,2,-1,-1,3
1532068788738,-2,-7,-2,-1,-2,-1,-1,0
1532068788743,3,14,8,-1,1,0,1,1
1532068788748,0,0,-10,-1,-1,-1,-1,0
1532068788753,-1,2,9,9,0,0,-1,0
1532068788758,-4,-6,-38,-34,-6,-3,-3,-4
1532068788763,0,0,-20,3,-1,-1,2,-1
1532068788768,-1,-3,2,-3,-2,1,0,-2
1532068788773,-3,-2,-1,20,2,0,0,-2
1532068788778,0,-7,3,-26,-2,0,-1,-2
1532068788783,0,0,-4,-5,-5,-1,0,0
1532068788788,0,12,0,3,-1,-1,0,0
1532068788793,0,12,6,1,1,-2,0,3
1532068788798,-4,-18,6,17,2,1,1,-1
1532068788803,-1,-6,-2,-7,0,-1,-1,1
1532068788808,-3,1,7,-5,-4,-2,-4,-3
1532068788813,0,1,-10,-10,-4,-1,-1,-4
1532068788818,-1,7,11,-4,-4,-3,0,3
1532068788823,-1,-6,6,3,2,2,0,-3
1532068788828,-2,1,-7,3,1,-1,0,0
1532068788833,1,-14,4,-10,0,-2,-1,-2
1532068788838,0,-2,10,18,-2,-1,-1,0
1532068788843,-1,1,-12,-17,2,0,-1,-4
1532068788848,2,10,7,-3,0,-3,-1,1
1532068788853,-1,-13,-1,11,1,1,1,0
1532068788858,1,0,5,-18,1,0,0,-1
1532068788863,-1,-4,5,9,-4,-3,-2,-1
1532068788868,-1,2,6,-1,2,1,0,-1
1532068788873,3,6,-6,-3,0,0,-2,-2
1532068788878,-2,3,9,18,2,0,0,-3
1532068788883,1,0,21,-4,0,-1,-1,1
1532068788888,-3,-7,-3,-1,-1,-2,-2,-2
1532068788893,0,16,4,-5,-4,-2,2,-1
1532068788898,2,-5,16,8,0,0,-2,-2
1532068788903,-1,-8,-19,-5,-2,0,-3,2
1532068788908,-2,6,12,7,1,1,0,1
1532068788913,-2,-4,-11,-7,0,-2,-6,-5
1532068788918,0,5,4,-10,-3,-3,0,-1
1532068788923,-1,0,12,4,0,-1,2,-2
1532068788928,-1,-8,-5,-1,0,1,-2,-2
1532068788933,-2,4,-5,-5,1,1,-1,-4
1532068788938,1,14,-3,8,1,1,0,-3
1532068788943,-2,11,-1,7,3,0,-1,-7
1532068788948,-5,-34,2,-8,-10,-3,1,-2
1532068788953,0,-7,-18,4,6,0,0,2
1532068788958,0,10,-1,32,3,1,-1,8
1532068788963,-2,-16,-33,-57,-10,-3,-2,3
1532068788968,-4,4,13,15,3,1,-1,4
1532068788973,1,-9,2,-4,-3,-2,-1,2
1532068788978,-3,1,-1,11,-3,-3,-4,-2
1532068788983,0,-5,-27,2,1,-1,0,1
1532068788988,-2,-1,-4,-1,1,-1,-3,0
1532068788993,-2,1,8,2,-2,-2,1,-1
1532068788998,1,4,-1,5,2,1,1,-1
1532068789003,-1,-1,24,13,1,1,1,-1
1532068789008,2,4,-7,-9,0,-1,1,1
1532068789013,-2,-16,0,-1,-1,-1,0,1
1532068789018,2,9,4,3,1,0,0,-2
1532068789023,-4,-11,12,9,1,1,0,-2
1532068789028,-3,-7,-17,-18,-5,-3,-1,1
1532068789033,0,18,0,10,1,-1,-1,0
1532068789038,0,-21,-11,-21,-1,0,0,0
1532068789043,3,7,8,7,-4,-2,0,-2
1532068789048,3,12,31,5,-1,0,0,-2
1532068789053,-1,12,16,-1,-1,0,1,0
1532068789058,-6,-26,-35,-14,0,-3,-5,-4
1532068789063,0,1,4,6,-1,0,-1,1
1532068789068,3,0,-9,-2,0,-2,-1,-1
1532068789073,1,6,6,-2,-2,-1,-2,-6
1532068789078,-1,5,13,3,-2,-2,1,4
1532068789083,-1,-1,2,-5,0,1,-2,-1
1532068789088,1,-2,-8,4,0,-1,-2,-4
1532068789093,-2,24,-6,-3,-6,-2,-2,0
1532068789098,-4,-43,-3,0,-1,0,-3,-3
1532068789103,-1,0,-5,-4,-1,-1,-1,-2
1532068789108,1,6,19,3,-2,0,-1,1
1532068789113,1,6,-8,-1,1,-1,-1,-3
1532068789118,0,17,7,3,0,1,0,-1
1532068789123,-1,-3,-11,1,-2,-3,0,0
1532068789128,-2,-6,-2,1,2,-2,0,0
1532068789133,-2,-14,-20,-11,-3,-2,-3,-3
1532068789138,-2,19,7,7,1,-1,-1,0
1532068789143,-2,-14,12,4,0,1,0,-1
1532068789148,2,9,-18,12,0,0,0,0
1532068789153,2,-6,16,-46,-8,-2,-3,-2
1532068789158,-2,-4,-12,1,-2,-1,0,0
1532068789163,-1,13,9,4,1,-2,-1,0
1532068789168,-2,-3,6,5,-1,1,1,1
1532068789173,0,-9,-7,7,1,1,1,-3
1532068789178,-2,17,1,-2,0,-1,-1,-2
1532068789183,-3,-9,1,8,4,-1,-1,-3
1532068789188,-1,-21,-19,-14,-6,-1,-1,-1
1532068789193,-4,-6,-1,7,2,0,-2,1
1532068789198,3,11,3,-2,-1,0,0,1
1532068789203,-1,15,6,1,0,-1,-1,3
1532068789208,-2,-7,-11,-1,0,0,0,-2
1532068789213,1,2,-14,0,-3,-3,-3,-2
1532068789218,-3,-7,7,-4,-6,-3,-2,-2
1532068789223,-1,-10,-17,5,-1,1,-1,-2
1532068789228,-1,5,-5,-5,1,0,-1,-4
1532068789233,-3,-8,8,19,1,0,0,5
1532068789238,2,13,-8,-33,-8,-2,-1,-2
1532068789243,5,0,9,-2,1,-1,0,-2
1532068789248,-2,4,-3,-2,-2,-3,-2,-2
1532068789253,-3,-16,-11,8,3,1,2,0
1532068789258,1,1,8,10,5,2,0,1
1532068789263,1,3,-9,-4,-6,0,-1,-2
1532068789268,1,5,33,-4,0,1,0,1
1532068789273,1,1,6,0,-1,1,1,-1
1532068789278,-3,-9,-6,5,1,1,-1,-1
1532068789283,-2,14,0,-4,-3,-2,-2,-3
1532068789288,2,-2,-10,1,1,-1,0,-1
1532068789293,-3,0,11,1,-4,1,1,4
1532068789298,-1,-17,-14,-1,2,-2,-1,-3
1532068789303,-3,-9,-21,4,3,1,0,-1
1532068789308,0,13,-14,-7,-2,-3,-2,-2
1532068789313,0,-1,15,-10,-2,-3,0,-1
1532068789318,-1,3,3,6,0,1,1,0
1532068789323,-1,2,8,1,-1,-3,-1,0
1532068789328,0,-6,1,-2,-1,-2,-2,5
1532068789333,-8,-3,-15,16,5,1,-3,-4
1532068789338,-1,-6,6,-30,-5,-1,1,-3
1532068789343,1,-6,0,2,-3,0,0,-1
1532068789348,-2,1,-7,-1,-3,-1,-3,-3
1532068789353,0,7,-14,-10,-5,-4,-2,-2
1532068789358,-1,0,-4,14,1,1,0,1
1532068789363,0,3,2,-9,-4,-2,0,2
1532068789368,-2,10,12,4,6,2,3,-2
1532068789373,0,-13,-8,-1,-3,-1,0,-3
1532068789378,1,-3,-13,6,2,0,-2,-1
1532068789383,-1,1,24,-4,-1,-1,-1,3
1532068789388,-1,-19,-24,3,-2,-2,0,-1
1532068789393,1,3,11,-12,0,0,1,-1
1532068789398,-1,3,7,-4,-5,0,0,-2
1532068789403,-2,6,4,4,-1,-2,-4,-1
1532068789408,-2,0,3,4,0,0,0,-1
1532068789413,0,-4,2,-5,-1,-1,-1,0
1532068789418,-1,-6,-3,7,-1,-2,-1,1
1532068789423,1,5,2,2,1,1,1,1
1532068789428,-5,-8,-5,-7,0,-3,-1,-1
1532068789433,3,2,-1,3,-1,-2,-2,-3
1532068789438,-8,21,-23,-3,0,-2,-3,-2
1532068789443,-1,-36,-8,-3,-8,0,-1,-3
1532068789448,0,-2,12,-3,-1,-1,-2,-2
1532068789453,-2,-9,15,0,0,2,3,1
1532068789458,3,7,-8,6,-1,-1,-1,0
1532068789463,-4,-4,-13,-7,-2,-2,-3,1
1532068789468,1,4,-1,-1,-2,-2,0,0
1532068789473,1,12,22,3,2,1,0,1
1532068789478,3,-7,15,2,0,-1,2,-2
1532068789483,-2,-2,5,-4,2,0,1,0
1532068789488,3,-4,1,2,0,1,1,2
1532068789493,0,4,-13,-2,1,0,-1,0
1532068789498,-1,1,7,2,-1,-2,-3,-2
1532068789503,-1,12,2,-3,-5,0,-1,0
1532068789508,-4,-13,-8,-2,-2,-3,-3,-2
1532068789513,-1,-7,-19,-5,-1,-1,-3,-2
1532068789518,1,-6,7,-1,-1,-1,1,0
1532068789523,0,2,2,2,3,0,-1,-1
1532068789528,0,13,38,1,0,2,0,0
1532068789533,-7,-16,-7,6,-5,0,-1,1
1532068789538,-3,-1,11,-10,3,1,-1,-1
1532068789543,-3,-16,-30,-1,1,-1,-1,0
1532068789548,-1,-3,-2,-4,-2,-2,0,-2
1532068789553,1,6,5,2,0,-2,-1,-1
1532068789558,1,11,27,16,-1,1,1,2
1532068789563,0,9,7,-5,1,0,3,-1
1532068789568,-2,-6,-15,7,-3,-1,-3,-2
1532068789573,1,3,-7,3,1,0,1,-2
1532068789578,-1,-12,-12,-8,-3,-1,-3,-1
1532068789583,1,8,2,10,-1,0,-2,-1
1532068789588,0,0,0,4,1,0,-2,0
1532068789593,0,4,2,9,2,-1,1,-2
1532068789598,-2,-2,-8,-5,-1,0,0,-3
1532068789603,0,-3,0,-2,1,-1,1,-1
1532068789608,-1,9,0,18,2,-1,1,-1
1532068789613,-2,-13,-10,-44,-7,0,-1,0
1532068789618,-2,-1,-4,8,-1,-1,-4,-1
1532068789623,0,4,2,-15,-4,-1,-3,-2
1532068789628,-7,4,0,1,2,-1,0,-2
1532068789633,-1,1,1,6,0,-1,-2,-2
1532068789638,2,-5,-4,-8,-2,0,1,2
1532068789643,-1,1,7,8,1,-2,-3,-2
1532068789648,2,0,-7,-18,0,0,-2,-2
1532068789653,1,2,8,7,-3,-2,0,1
1532068789658,-1,-6,-11,1,0,-1,1,-3
1532068789663,-2,-6,-14,21,3,-1,0,-3
1532068789668,2,-7,-2,-27,-2,-1,-1,1
1532068789673,0,12,-1,-25,-5,-2,-3,-2
1532068789678,-1,-11,9,11,-1,-1,-2,2
1532068789683,2,6,5,2,0,1,1,-1
1532068789688,-1,7,6,2,0,0,3,-1
1532068789693,0,-4,-7,15,0,-2,-2,-2
1532068789698,3,10,31,-9,4,2,2,0
1532068789703,0,-5,11,-4,-2,0,0,1
1532068789708,2,6,-8,-1,-2,0,-1,0
1532068789713,0,-18,22,15,2,0,2,2
1532068789718,-2,-11,-12,-8,-3,-3,0,-2
1532068789723,-3,0,-6,5,3,0,-3,-2
1532068789728,1,-4,0,12,0,1,2,2
1532068789733,0,3,-11,-4,0,-1,-1,-2
1532068789738,-2,2,-9,-3,-5,-1,-1,-3
1532068789743,-1,-4,3,-22,-4,-3,-1,-2
1532068789748,-2,-5,-11,8,0,-3,-4,1
1532068789753,0,3,-1,5,1,0,-1,-3
1532068789758,0,0,-10,9,0,-1,-2,-1
1532068789763,-1,1,-2,0,-2,-1,0,-4
1532068789768,-2,0,1,3,-2,1,-1,-1
1532068789773,0,2,6,-7,-2,0,0,0
1532068789778,-1,5,-11,-8,-2,-2,0,-1
1532068789783,-1,-7,-15,11,2,0,0,3
1532068789788,-2,-18,0,3,1,0,0,-2
1532068789793,-1,5,-4,-17,-1,2,0,1
1532068789798,2,2,-1,3,0,-1,-1,0
1532068789803,-1,8,-1,9,-1,-2,-3,-2
1532068789808,3,6,2,7,-2,-1,-1,-1
1532068789813,-4,-11,-10,-17,-1,-1,1,0
1532068789818,-1,-1,27,11,0,-1,-2,-1
1532068789823,1,-3,7,-6,-2,1,2,1
1532068789828,3,5,-4,-10,-3,0,-3,-4
1532068789833,-3,-3,7,-4,-4,0,-1,-1
1532068789838,-2,-6,-15,8,0,-2,-2,-3
1532068789843,0,0,-2,2,-2,0,0,0
1532068789848,0,-6,-15,-5,-2,-1,-1,-3
1532068789853,-1,6,3,-3,2,1,1,-1
1532068789858,-1,-6,10,21,1,0,0,1
1532068789863,-2,3,-16,-26,-3,-4,-4,-2
1532068789868,0,1,-1,-11,0,0,-1,0
1532068789873,1,10,17,3,1,0,-1,-2
1532068789878,-1,-19,-10,1,-2,-1,-1,2
1532068789883,-2,-5,-8,-12,-2,-2,-1,-4
1532068789888,0,2,2,17,1,1,-1,-3
1532068789893,1,-1,-9,-28,-2,0,1,-3
1532068789898,-5,7,4,0,3,1,-1,-1
1532068789903,-1,-4,2,18,1,-1,-1,0
1532068789908,-1,-2,-8,-10,0,1,1,2
1532068789913,1,0,8,15,-2,0,-1,0
1532068789918,-1,-5,-15,-4,-2,-1,-1,-3
1532068789923,1,3,0,0,0,-1,2,3
1532068789928,-1,6,-7,2,2,-2,-1,-1
1532068789933,-5,-9,-15,6,-1,-3,0,-1
1532068789938,-1,-3,-5,-19,-3,-1,-1,-1
1532068789943,0,3,2,6,1,0,-3,-1
1532068789948,-1,1,1,-9,-6,-3,-1,2
1532068789953,1,-2,0,24,6,1,-2,-1
1532068789958,-2,2,-17,-22,-5,-2,-3,1
1532068789963,0,1,-3,4,-2,0,-2,-2
1532068789968,-1,-2,3,-2,-1,0,-1,-3
1532068789973,0,-2,5,6,1,1,1,-1
1532068789978,-3,-3,8,10,7,2,2,1
1532068789983,-1,-8,-6,1,-3,-1,0,0
1532068789988,2,-4,3,-3,0,1,1,3
