1532064093221,-2,-5,-3,-3,-2,-1,-1,-3
1532064093226,-1,-1,-2,-10,-4,-1,2,2
1532064093231,1,-1,3,11,2,-1,-1,-1
1532064093236,0,7,-3,-4,-2,-1,-2,0
1532064093241,2,5,1,19,4,0,1,-2
1532064093246,-2,-3,-2,-13,-1,-1,3,1
1532064093251,0,-3,-2,-5,0,-1,-4,-1
1532064093256,-2,1,2,-9,-3,-1,-1,-2
1532064093261,-2,-1,2,17,5,0,-1,2
1532064093266,0,0,-10,-19,-14,0,-1,0
1532064093271,-2,-6,-2,20,11,-1,0,-1
1532064093276,-1,8,4,6,-2,0,0,-1
1532064093281,-3,-9,-4,-13,0,-2,-1,-1
1532064093286,-2,-6,-1,3,-4,-1,-1,0
1532064093291,-2,0,-4,-12,-4,1,-2,-3
1532064093296,-1,-1,-1,6,0,-2,2,0
1532064093301,2,11,3,-15,2,0,0,0
1532064093306,-2,3,-3,-1,0,-1,-1,-1
1532064093311,1,-6,-2,-3,-8,0,-2,0
1532064093316,-2,-5,1,4,-4,-1,-1,-2
1532064093321,1,5,1,1,2,-1,4,-1
1532064093326,0,-1,-1,-9,1,-1,3,-1
1532064093331,-2,-4,-1,-3,-4,-4,-2,-2
1532064093336,2,18,-2,1,5,0,-3,1
1532064093341,-3,-9,1,-1,-2,-1,-3,0
1532064093346,-3,-22,-12,9,-2,-3,-2,-1
1532064093351,-1,1,3,1,0,-1,-4,-2
1532064093356,1,0,1,-6,-5,-1,1,0
1532064093361,2,16,1,5,-8,-1,0,-1
1532064093366,1,1,4,14,12,1,1,0
1532064093371,-2,-4,-2,-7,-1,-1,-1,1
1532064093376,-1,-7,-3,-4,1,0,1,0
1532064093381,0,-2,-1,-5,-1,-2,-3,0
1532064093386,-1,4,3,3,-5,-4,-3,-1
1532064093391,-3,-5,-6,-5,-2,-3,0,-1
1532064093396,-1,7,3,1,-1,-1,1,-1
1532064093401,0,-8,-2,7,2,-1,0,0
1532064093406,1,1,1,-13,1,1,0,-1
1532064093411,-4,-14,-1,5,6,0,2,-1
1532064093416,-2,-12,-1,16,-11,-3,0,-2
1532064093421,-1,6,-8,-22,3,-1,-1,0
1532064093426,1,12,5,7,-2,-3,-10,-1
1532064093431,2,-3,-1,-2,1,0,11,1
1532064093436,-1,-8,-1,-1,-2,1,-2,-2
1532064093441,0,-5,-1,3,2,-1,1,0
1532064093446,1,10,7,1,-2,-1,-2,-2
1532064093451,-3,4,-7,-16,-6,-2,-5,0
1532064093456,-1,-3,1,-11,4,-1,0,-2
1532064093461,-3,-11,1,12,-7,-1,-1,-1
1532064093466,0,-2,-1,-6,-1,-1,0,-2
1532064093471,3,18,9,5,6,2,1,1
1532064093476,-3,-24,-12,-14,-10,-3,-4,0
1532064093481,-1,10,5,-3,4,-3,-6,-1
1532064093486,-3,-13,-7,6,-6,-3,-3,-1
1532064093491,3,23,9,-7,3,0,8,1
1532064093496,-1,-20,1,-1,3,-1,-2,0
1532064093501,1,8,-9,-3,-6,-1,-1,-2
1532064093506,-1,5,3,-6,-3,1,-1,0
1532064093511,-3,-36,-10,2,-4,-2,-4,-3
1532064093516,-2,17,2,1,7,-1,-1,-1
1532064093521,1,-2,-2,-3,-4,-2,-2,-1
1532064093526,2,9,3,7,3,-1,3,-2
1532064093531,-1,2,-12,-17,-8,-3,-8,-1
1532064093536,2,9,0,2,-2,-1,2,2
1532064093541,-1,-16,-2,7,1,1,0,-2
1532064093546,-3,4,1,-5,-6,-2,1,-2
1532064093551,0,6,9,11,8,2,1,0
1532064093556,-1,-7,-10,-13,1,0,-3,-1
1532064093561,-2,-5,4,4,3,-2,0,-1
1532064093566,-2,2,2,17,0,2,1,0
1532064093571,-3,-24,-4,-4,-6,-2,-3,-1
1532064093576,3,35,-1,13,0,-1,1,0
1532064093581,-2,-23,2,-24,-3,1,-1,0
1532064093586,-2,-21,-9,-6,-1,-2,-2,-2
1532064093591,-1,3,4,13,2,-2,-1,0
1532064093596,1,-3,-2,-9,-3,-1,0,-3
1532064093601,2,-3,0,-5,-1,-2,-1,-2
1532064093606,2,22,3,1,-2,0,6,5
1532064093611,-1,6,-5,-4,-3,-1,-2,-1
1532064093616,-7,-22,-15,-17,-4,-5,-3,-3
1532064093621,2,14,9,17,2,1,-4,-1
1532064093626,4,-3,-3,6,4,1,4,-3
1532064093631,-5,3,-3,0,-4,-4,-6,0
1532064093636,-2,-10,4,-7,-2,2,-2,0
1532064093641,-1,6,0,3,-2,-2,0,-2
1532064093646,-1,1,1,-10,0,-1,-2,-2
1532064093651,4,16,6,0,0,0,2,-1
1532064093656,-2,-25,1,14,2,1,-3,-3
1532064093661,-1,8,-5,-22,-2,-2,-3,0
1532064093666,0,8,-1,-29,0,-1,-1,2
1532064093671,-1,-11,-2,12,-8,-3,-2,-1
1532064093676,-5,-32,-14,-1,1,0,-1,-2
1532064093681,0,15,4,13,2,0,3,-2
1532064093686,-1,7,-4,-11,-3,-3,-4,-1
1532064093691,-2,-2,-1,0,-1,-1,-1,-1
1532064093696,4,24,12,12,3,-1,3,0
1532064093701,1,12,-7,-13,2,1,1,1
1532064093706,-9,-39,-12,18,-8,-5,-3,0
1532064093711,-1,5,8,1,5,3,-1,-3
1532064093716,-1,16,0,0,-1,-1,1,-1
1532064093721,-1,-23,0,14,-6,0,-3,0
1532064093726,2,14,-1,-7,4,-1,-1,-3
1532064093731,2,4,6,12,-4,1,-1,1
1532064093736,1,5,-2,6,0,-1,1,-1
1532064093741,-2,13,4,-29,1,1,-1,2
1532064093746,1,8,2,12,18,1,0,0
1532064093751,-1,-11,-5,3,-9,1,-1,-1
1532064093756,3,15,12,8,8,1,-3,0
1532064093761,-5,-29,-8,26,-3,-1,0,-3
1532064093766,-6,-20,-7,-19,-9,-1,0,-2
1532064093771,1,9,-6,-36,3,-1,-2,-2
1532064093776,3,20,7,-3,-3,1,1,3
1532064093781,2,7,3,2,6,0,2,1
1532064093786,-5,-22,-7,45,-4,0,-1,-2
1532064093791,-3,-1,-8,-5,-8,-5,-4,-2
1532064093796,-1,1,4,-5,-5,-2,-2,0
1532064093801,-1,-3,-6,0,-4,-2,-1,0
1532064093806,2,14,8,2,8,2,0,0
1532064093811,1,7,3,1,0,0,2,0
1532064093816,1,9,0,-21,3,-1,-1,-3
1532064093821,-4,-7,7,23,-1,1,0,-2
1532064093826,-2,-11,-6,-45,-45,-3,-3,3
1532064093831,-4,-26,-9,9,1,1,-2,-2
1532064093836,-3,0,-2,-6,-11,0,-1,-1
1532064093841,2,20,-6,-7,4,-3,-2,-1
1532064093846,2,5,2,1,9,-1,0,-2
1532064093851,2,0,6,9,-2,-1,0,1
1532064093856,0,0,-7,-4,8,-1,0,1
1532064093861,0,-5,-5,-7,0,0,0,0
1532064093866,-2,-2,4,21,5,-1,-3,-1
1532064093871,1,3,-3,-10,-1,1,1,-1
1532064093876,-3,-12,-4,8,3,0,-2,-1
1532064093881,-2,0,-2,-7,-5,-3,-1,-2
1532064093886,0,3,0,-11,-6,1,-1,0
1532064093891,0,-4,4,-20,8,1,1,-1
1532064093896,-6,-25,-16,-24,-13,-2,-5,0
1532064093901,-2,2,3,10,-6,-3,-1,-2
1532064093906,0,7,3,0,2,0,1,-1
1532064093911,0,5,3,10,4,-2,0,-2
1532064093916,0,2,3,6,1,1,1,-1
1532064093921,0,-6,-2,-8,2,3,0,0
1532064093926,1,2,2,3,4,-2,-2,-2
1532064093931,-1,1,-4,-2,-5,-1,-1,0
1532064093936,0,-8,2,4,0,1,1,-1
1532064093941,-1,3,-7,-1,-4,-3,-5,0
1532064093946,0,-12,-4,-8,4,0,0,-1
1532064093951,-1,0,-2,-10,-2,-2,0,-4
1532064093956,-2,1,1,19,2,-1,-3,1
1532064093961,0,0,0,-8,-2,-2,-1,0
1532064093966,1,-2,-4,-16,-3,-1,1,-2
1532064093971,0,-3,-3,-10,1,-2,-1,-1
1532064093976,-1,1,2,17,1,-1,0,0
1532064093981,-2,-2,0,7,-4,-1,-2,-1
1532064093986,-2,1,2,2,2,-1,-2,1
1532064093991,-1,0,-2,0,0,-1,0,0
1532064093996,-1,1,1,-4,-3,-1,0,-2
1532064094001,-1,-5,-3,0,1,1,-1,-1
1532064094006,0,0,1,1,3,-1,-2,-2
1532064094011,-1,-2,-1,23,2,-1,-4,0
1532064094016,1,-1,0,-13,-1,-1,1,0
1532064094021,1,-2,0,-2,-1,1,0,-1
1532064094026,-1,1,-2,-1,-1,0,-1,-1
1532064094031,-1,-2,-2,5,-1,0,-2,0
1532064094036,-2,-3,-1,-14,-3,-1,-1,-2
1532064094041,1,0,3,3,2,0,2,-3
1532064094046,-1,-2,-2,-6,-2,-2,-1,-1
1532064094051,-3,-2,-6,-7,-4,0,-2,0
1532064094056,-1,0,3,11,1,0,0,-2
1532064094061,0,0,0,-1,0,-1,-1,-1
1532064094066,-1,1,5,6,2,1,0,-1
1532064094071,0,1,-3,-7,2,0,1,-1
1532064094076,-1,-1,2,-6,-2,0,-1,0
1532064094081,0,-2,-2,-2,-2,0,-2,-1
1532064094086,-2,-2,-1,5,1,-2,-1,1
1532064094091,0,0,-2,3,-1,-2,0,-3
1532064094096,0,-1,-2,-7,-2,-1,0,-3
1532064094101,-2,-2,0,5,-4,-1,0,1
1532064094106,0,0,-1,-3,2,-1,0,-1
1532064094111,-3,-2,4,3,2,-1,-1,0
1532064094116,0,0,-1,6,2,-1,-1,-1
1532064094121,-4,0,-6,-14,-1,0,-1,-1
1532064094126,0,0,-1,-6,0,-2,0,-1
1532064094131,-3,-4,1,6,-4,-2,-4,-1
1532064094136,2,3,2,4,0,0,2,1
1532064094141,-2,-4,-5,-14,-2,-1,-1,-2
1532064094146,-2,0,-1,0,0,-1,-4,-1
1532064094151,2,4,7,15,6,2,2,1
1532064094156,-2,-3,-14,-25,-2,-3,-3,0
1532064094161,0,-4,4,-3,-7,0,-1,-3
1532064094166,1,2,-5,-7,0,0,3,-1
1532064094171,-1,-2,1,-10,0,-3,-2,-2
1532064094176,2,5,7,21,1,0,-1,0
1532064094181,0,2,-4,5,6,2,1,2
1532064094186,-4,-4,-3,-11,-6,-1,-3,0
1532064094191,2,0,4,7,-1,1,0,-2
1532064094196,0,-5,-7,-16,-1,-1,-1,-2
1532064094201,1,4,4,11,2,0,1,0
1532064094206,2,1,4,-13,1,0,0,-1
1532064094211,0,-2,-8,-17,2,1,-3,2
1532064094216,-3,-5,-4,-10,-6,-3,-2,0
1532064094221,1,-1,-4,2,1,0,-1,0
1532064094226,1,0,-2,-8,0,0,0,1
1532064094231,0,0,2,14,1,-1,-1,-2
1532064094236,-1,-1,-2,6,-2,-2,-3,-1
1532064094241,-2,0,3,6,0,-1,-2,-2
1532064094246,1,-1,3,11,1,-1,-1,-1
1532064094251,-1,-1,-4,-23,-2,-1,2,-2
1532064094256,-2,-1,-3,5,-1,-1,0,-2
1532064094261,0,-1,-3,8,0,-3,-2,-1
1532064094266,0,-1,-3,-4,-1,0,-2,-2
1532064094271,-2,-3,-1,10,-1,-3,-4,0
1532064094276,1,1,5,5,3,-1,1,0
1532064094281,0,-1,-2,-10,-1,-1,-1,-1
1532064094286,-2,-2,-1,1,-1,-4,-1,-2
1532064094291,1,-1,-1,-3,-2,1,1,-1
1532064094296,0,3,6,5,0,0,1,-1
1532064094301,-3,-4,-13,-3,-1,-2,-2,2
1532064094306,1,1,7,34,2,1,-1,-1
1532064094311,-2,-3,-7,-5,-6,-2,-1,-2
1532064094316,0,0,4,1,3,2,0,0
1532064094321,0,1,-1,-16,0,0,0,-2
1532064094326,-2,-1,-1,0,-3,0,-2,-1
1532064094331,-1,0,0,3,2,-1,0,0
1532064094336,0,1,0,5,2,0,0,-1
1532064094341,-2,-3,-3,-45,-9,-4,-2,0
1532064094346,-2,-1,-5,1,0,1,-1,1
1532064094351,-1,0,4,1,-1,1,0,-1
1532064094356,-1,-2,0,-2,-1,-2,0,-1
1532064094361,-2,-3,5,30,0,1,-1,-2
1532064094366,-2,-1,0,-21,-1,-1,-1,-2
1532064094371,-3,-5,-4,10,-6,-2,-4,-2
1532064094376,-1,-1,-2,6,-2,-1,-2,-1
1532064094381,1,0,0,-1,2,-2,-1,-1
1532064094386,2,1,-1,-6,1,-1,2,-1
1532064094391,0,-2,-1,2,1,-1,-1,0
1532064094396,-2,-1,-4,-13,-3,-1,0,-1
1532064094401,1,-2,3,12,2,-1,-1,-1
1532064094406,-1,0,0,6,-1,-1,-1,0
1532064094411,-2,1,-1,-9,-2,-2,0,-1
1532064094416,-2,-2,-1,-11,-3,-1,-1,-3
1532064094421,0,-2,-2,-15,-1,1,0,-2
1532064094426,-3,-2,-2,19,-3,0,-4,1
1532064094431,0,-1,-1,-9,-3,0,-2,-1
1532064094436,-1,0,3,-12,1,-1,-1,1
1532064094441,-1,2,2,14,0,1,0,1
1532064094446,-2,-1,-2,12,-2,0,-1,-2
1532064094451,1,1,-1,-9,-1,-1,1,0
1532064094456,-1,-1,1,15,1,-2,-2,1
1532064094461,-1,0,1,-4,1,1,0,0
1532064094466,1,-2,-1,-3,-1,-1,-2,-3
1532064094471,-1,0,1,-2,-1,-1,-1,-2
1532064094476,-1,-1,-3,1,0,-1,0,-1
1532064094481,-1,0,-1,-5,-3,0,-1,0
1532064094486,-1,0,0,1,0,0,1,0
1532064094491,0,-1,-2,-5,1,1,-1,-1
1532064094496,2,-2,-2,5,-1,-2,-1,-3
1532064094501,-2,-1,-2,-10,-6,-3,-2,0
1532064094506,-1,0,1,-3,0,0,-1,-1
1532064094511,0,0,-2,5,0,-1,-1,-1
1532064094516,-3,-4,-3,-7,-2,1,-3,-1
1532064094521,0,0,2,2,0,0,1,-2
1532064094526,-2,0,0,-3,-1,-2,-1,-1
1532064094531,1,0,-2,6,1,0,0,0
1532064094536,-1,0,0,3,0,0,1,0
1532064094541,0,0,0,2,0,-3,-1,0
1532064094546,0,0,0,-5,-1,0,0,0
1532064094551,-1,-3,1,-2,-1,-2,0,0
1532064094556,0,-1,-2,-10,-2,0,-1,0
1532064094561,-3,-1,-2,12,0,0,-4,0
1532064094566,-1,-1,0,8,2,-1,0,0
1532064094571,0,-1,-1,-3,0,0,0,-1
1532064094576,0,-1,0,-7,1,0,-1,-3
1532064094581,-1,-1,-1,0,-1,-1,0,0
1532064094586,0,0,-2,-7,-2,-2,-1,0
1532064094591,-1,-2,-1,9,-3,-1,-2,1
1532064094596,-1,0,0,4,-2,-2,-1,0
1532064094601,1,-1,1,-3,2,-1,0,-1
1532064094606,0,-2,0,-1,-2,-1,-1,0
1532064094611,-1,0,2,-3,-1,-1,1,-1
1532064094616,-2,-3,-6,-2,-4,-1,-3,-1
1532064094621,0,-1,0,1,1,-1,-1,0
1532064094626,-1,-1,0,-1,-1,-2,0,-2
1532064094631,0,-1,-1,-7,2,0,-2,1
1532064094636,-1,0,0,-2,1,-3,1,0
1532064094641,-1,-1,0,6,-2,0,-1,-2
1532064094646,1,-1,0,-10,-1,0,0,-2
1532064094651,0,0,2,5,0,0,0,-2
1532064094656,-1,-3,-5,-8,-4,-1,-2,1
1532064094661,0,0,0,-3,0,-1,-1,-1
1532064094666,-1,0,-1,-6,-2,-2,-3,-2
1532064094671,-2,-1,-1,-1,-12,-2,-3,-1
1532064094676,1,1,7,16,10,2,3,-1
1532064094681,-1,-4,-8,-17,1,-2,-1,-2
1532064094686,-1,-1,-1,-4,-3,-2,-1,-1
1532064094691,-3,0,-2,4,1,-2,0,-1
1532064094696,-1,0,0,-4,-11,-3,-1,0
1532064094701,-1,-1,1,2,0,0,-1,0
1532064094706,0,-1,1,4,4,1,0,0
1532064094711,-1,-3,-1,-16,-1,-2,-1,-2
1532064094716,-1,-2,-1,2,1,1,-1,-2
1532064094721,0,0,1,3,-1,-2,0,-1
1532064094726,-2,-1,-3,-6,-4,-2,-1,1
1532064094731,-2,1,2,4,0,0,0,0
1532064094736,0,-2,-5,-7,0,-1,-1,-1
1532064094741,-1,0,-1,-3,-6,-3,-1,-1
1532064094746,-1,-1,-1,0,3,-1,0,-1
1532064094751,0,-1,-2,1,0,-2,0,-1
1532064094756,1,1,0,1,2,-1,-2,0
1532064094761,-1,-1,-1,-2,-4,0,-1,0
1532064094766,-2,0,1,0,1,0,0,-1
1532064094771,0,-1,1,5,3,3,-1,1
1532064094776,-1,0,-3,-2,4,1,-1,0
1532064094781,-1,0,-1,-2,1,-1,-1,1
1532064094786,-2,-2,-3,-4,-7,-2,0,-1
1532064094791,0,-2,1,-4,-3,-1,1,-1
1532064094796,-1,-3,-2,0,0,0,-1,-2
1532064094801,0,-1,3,6,-1,-1,0,0
1532064094806,0,0,-2,2,5,1,-1,-2
1532064094811,-1,-1,-3,-5,-2,-2,-2,0
1532064094816,0,0,1,5,-11,-1,1,0
1532064094821,0,-1,-2,1,10,1,0,0
1532064094826,0,0,-1,-2,-3,-2,0,0
1532064094831,0,-2,-1,2,-1,0,-1,-2
1532064094836,-2,-1,0,-2,1,-3,-2,-1
1532064094841,-3,-3,0,-3,-2,-2,-3,-1
1532064094846,-2,1,-1,2,0,-1,-1,-1
1532064094851,-1,0,-2,-4,2,-1,-3,-1
1532064094856,0,0,1,2,-3,-2,-1,-1
1532064094861,-1,-2,-3,-7,-3,-3,-1,-4
1532064094866,-1,-2,0,-3,-1,-1,0,-1
1532064094871,0,0,-3,19,2,-1,-1,-2
1532064094876,-3,-4,-3,-23,-3,-1,-1,-2
1532064094881,-1,0,1,2,1,0,-1,0
1532064094886,0,-4,-3,-3,0,-2,-1,0
1532064094891,-1,0,-2,-1,-6,-2,1,-2
1532064094896,-1,-1,-1,3,2,1,-2,-1
1532064094901,-1,-1,-1,0,-6,1,0,-1
1532064094906,-3,-2,0,1,3,1,-1,0
1532064094911,0,-1,-1,-8,-2,0,-1,1
1532064094916,0,1,2,5,-2,-2,0,1
1532064094921,-1,-1,-4,-2,5,-2,-2,1
1532064094926,0,0,1,3,-5,-2,-3,-2
1532064094931,0,-2,0,-5,3,0,-1,0
1532064094936,1,1,1,0,-2,-2,1,0
1532064094941,-2,0,0,4,3,1,1,1
1532064094946,1,1,-1,-4,-6,-3,-1,-3
1532064094951,-1,-2,-1,0,1,-2,-3,-3
1532064094956,0,1,-2,-1,-1,-2,-1,-2
1532064094961,-1,-1,2,0,-9,-2,-1,0
1532064094966,0,2,-1,0,6,1,1,0
1532064094971,2,-1,-1,-4,-3,-2,0,1
1532064094976,0,0,-1,4,-1,0,0,-1
1532064094981,-2,0,1,-2,1,0,-1,-3
1532064094986,-1,-1,-3,-2,-2,1,-1,-1
1532064094991,0,0,0,-1,0,1,1,-2
1532064094996,-1,-3,-1,-3,4,2,0,-1
1532064095001,2,-2,0,3,3,0,-1,-1
1532064095006,0,0,1,-1,-2,-1,-2,-1
1532064095011,-2,-1,-1,-4,-7,-3,0,-3
1532064095016,-2,-3,-2,3,4,-2,-1,0
1532064095021,-2,0,-1,-1,-6,-3,-1,-1
1532064095026,2,0,-1,-1,-2,0,0,2
1532064095031,-2,0,1,6,9,1,-1,2
1532064095036,0,-1,-3,-8,-8,-1,-1,-2
1532064095041,-1,0,1,3,0,1,1,-3
1532064095046,-2,-2,-6,-5,-4,-2,-3,-3
1532064095051,-2,-2,-1,-4,-8,-2,-2,-2
1532064095056,0,2,1,3,2,1,-1,0
1532064095061,-1,-3,-3,-2,-2,-2,-1,1
1532064095066,-2,1,0,1,2,-2,0,0
1532064095071,-1,-2,-1,-3,-2,1,1,0
1532064095076,0,0,1,4,7,0,-2,-3
1532064095081,-2,0,-3,-7,-8,-1,-1,-1
1532064095086,-2,0,0,2,0,1,1,1
1532064095091,0,1,-2,6,15,1,-1,-1
1532064095096,-3,-2,-2,-13,-20,-2,-3,-3
1532064095101,2,0,-2,-1,2,0,2,0
1532064095106,0,-1,-1,-4,-13,0,1,2
1532064095111,0,0,0,1,4,-3,-2,-1
1532064095116,-1,-1,-5,-1,5,1,1,-1
1532064095121,0,2,6,1,7,0,-1,-2
1532064095126,-1,-2,1,0,1,-2,0,-3
1532064095131,0,-3,-1,0,-1,0,-1,-2
1532064095136,-2,1,1,2,-5,-2,-1,-1
1532064095141,-2,-1,-6,-1,2,0,0,0
1532064095146,-3,-3,2,4,3,0,-3,-1
1532064095151,-1,-3,-7,-8,-7,-1,0,0
1532064095156,0,2,7,3,0,-1,-2,1
1532064095161,-2,-3,-3,-3,-6,-2,-2,-3
1532064095166,1,0,1,8,22,-1,-1,-3
1532064095171,-1,-2,-3,-4,-8,0,-1,-1
1532064095176,-1,-3,-3,-2,-7,-3,0,-1
1532064095181,0,1,-1,-1,-3,-1,-3,0
1532064095186,0,0,-3,-3,-4,-3,0,-2
1532064095191,1,1,2,3,7,1,0,2
1532064095196,-1,-1,-1,0,2,-3,-1,-1
1532064095201,-2,0,0,-1,-2,-1,0,-1
1532064095206,0,-1,-2,-1,-1,0,0,1
1532064095211,0,1,1,-3,-1,0,-2,0
1532064095216,-2,-1,-3,1,-2,0,-1,-2
1532064095221,0,-1,-3,-1,2,0,-1,0
1532064095226,-2,-1,-1,-3,-8,-1,-1,-2
1532064095231,-2,-1,-2,-3,-2,-1,-1,-2
1532064095236,2,1,2,1,1,-1,1,3
1532064095241,-1,-2,0,2,2,0,1,-1
1532064095246,-3,-1,0,-1,-4,-1,-2,-1
1532064095251,0,0,1,-3,-6,-1,0,-1
1532064095256,-2,-2,-4,1,5,0,-2,0
1532064095261,2,-1,-2,0,-5,0,-1,-2
1532064095266,0,-1,2,-1,-3,-2,-1,-1
1532064095271,-1,0,-1,-5,0,-1,-2,-1
1532064095276,0,0,-2,-2,-3,-1,0,-1
1532064095281,-2,-1,0,-3,0,0,-2,-2
1532064095286,-1,-1,0,-1,0,0,1,0
1532064095291,-1,1,-1,4,7,-2,-1,0
1532064095296,0,-1,-1,-1,1,0,0,0
1532064095301,-1,-2,-1,-2,-3,-1,-2,-1
1532064095306,0,0,0,-1,1,-1,0,-2
1532064095311,-2,-2,-1,-2,-10,-1,0,0
1532064095316,-1,0,-1,2,3,1,-1,-1
1532064095321,0,0,0,0,-1,-2,-1,0
1532064095326,-1,-3,-2,-4,-6,-1,-2,-2
1532064095331,-1,-1,1,3,2,-1,0,0
1532064095336,-2,-2,-2,-10,-13,0,-1,0
1532064095341,0,0,0,-1,-3,-2,-2,0
1532064095346,1,0,-1,-4,-2,0,0,0
1532064095351,1,-1,0,2,0,0,1,0
1532064095356,0,0,0,2,5,-1,0,-1
1532064095361,0,-1,-1,-2,-1,-1,0,-1
1532064095366,-1,-1,-1,0,1,0,-1,-2
1532064095371,0,-1,-2,1,-2,-1,-1,-3
1532064095376,-2,-1,-1,0,4,1,0,-3
1532064095381,-1,1,-1,-2,-2,1,-2,-2
1532064095386,-1,0,-2,4,5,1,1,0
1532064095391,0,-1,-2,-5,-7,1,-1,1
1532064095396,-1,-1,-1,0,-3,1,0,-1
1532064095401,-1,0,2,5,0,0,-1,1
1532064095406,-1,-1,-2,-6,-3,-3,-3,0
1532064095411,-2,-2,0,-1,-2,-1,-2,-2
1532064095416,-1,-2,-1,-2,-2,-2,0,0
1532064095421,-1,-3,0,-1,7,1,-1,0
1532064095426,0,0,0,-2,-6,-1,-1,-1
1532064095431,-2,0,-1,2,7,1,0,-2
1532064095436,1,-1,0,-1,1,-1,1,-1
1532064095441,0,0,-1,1,2,0,0,3
1532064095446,-1,-2,-1,-2,-2,-1,-2,0
1532064095451,-1,0,1,-2,-3,0,1,0
1532064095456,-1,0,-2,0,-3,-1,-1,-1
1532064095461,-2,0,0,-3,5,-1,1,-2
1532064095466,-2,-1,-2,1,6,0,-1,1
1532064095471,1,-2,-1,-1,1,0,-1,1
1532064095476,-1,-2,2,1,-1,-1,-4,-3
1532064095481,0,1,-2,-2,-8,-2,0,-2
1532064095486,-2,0,-3,2,-1,0,1,0
1532064095491,-2,0,-1,0,-2,-1,-1,-1
1532064095496,-1,1,-1,5,16,-1,-2,0
1532064095501,0,-1,0,-2,-4,1,-1,0
1532064095506,-1,-5,-6,-4,-2,-3,-3,-2
1532064095511,0,0,-2,-1,-3,-2,0,-3
1532064095516,1,-2,-3,-3,-4,-1,1,2
1532064095521,-2,0,-2,4,0,-2,-3,0
1532064095526,-2,1,0,-2,0,-1,-1,-2
1532064095531,-2,-1,-2,-1,7,0,0,0
1532064095536,0,-1,0,-1,-11,-2,-2,-1
1532064095541,2,-1,0,-5,2,-3,-1,-1
1532064095546,1,2,-1,-2,-3,1,2,1
1532064095551,0,0,-2,-1,-4,-2,-1,-1
1532064095556,0,0,-1,0,2,-1,-1,-1
1532064095561,-1,-3,-3,-2,-5,-2,-1,-2
1532064095566,0,1,4,1,-4,-1,-1,-2
1532064095571,0,-3,-2,-5,4,0,-1,1
1532064095576,-2,1,-2,1,-5,1,0,0
1532064095581,-1,-1,-2,-1,-1,-1,-2,-1
1532064095586,0,-2,4,2,3,-1,-1,-1
1532064095591,-2,-1,-1,3,-2,-1,-1,-1
1532064095596,-1,-2,-3,-6,-3,-2,-1,-1
1532064095601,-2,0,0,-1,-1,0,0,0
1532064095606,-1,-1,-1,-2,0,1,0,1
1532064095611,-1,-1,-3,0,-4,0,-2,0
1532064095616,-1,0,0,-5,-3,-1,-2,-1
1532064095621,-1,-2,-3,3,1,-1,0,0
1532064095626,-2,-5,-2,-6,-2,-1,-2,-1
1532064095631,-1,-1,-2,6,0,0,1,0
1532064095636,1,0,4,3,3,0,1,-1
1532064095641,-1,-1,-4,-2,-4,-3,-2,-2
1532064095646,1,1,2,-1,-2,0,-1,-1
1532064095651,0,-2,0,-3,-3,-2,-1,0
1532064095656,-1,-2,-3,4,1,2,-2,-1
1532064095661,1,1,4,-2,3,2,0,0
1532064095666,1,-4,-11,7,1,-1,1,-1
1532064095671,1,2,0,-14,0,0,0,-2
1532064095676,-1,0,-1,4,-2,-1,-3,1
1532064095681,-2,-2,2,7,-1,-2,-3,0
1532064095686,0,-1,-7,-10,-4,-2,0,-2
1532064095691,0,0,1,-14,2,0,1,-2
1532064095696,-2,-3,-2,15,2,-1,1,-1
1532064095701,-2,-1,-1,18,-3,-1,-3,0
1532064095706,0,2,7,-18,3,0,0,0
1532064095711,-1,-1,-5,11,-4,-3,-2,-1
1532064095716,0,2,3,-16,0,-1,-1,-1
1532064095721,-1,-4,-2,3,2,-1,-1,-2
1532064095726,-2,-1,3,10,-5,-3,0,0
1532064095731,1,1,-5,-13,2,0,2,-2
1532064095736,-2,-4,-5,-1,-1,0,-1,-3
1532064095741,-3,-4,-9,3,-7,-1,-4,-1
1532064095746,1,2,-3,3,3,0,-2,0
1532064095751,-1,-3,-2,18,1,-3,-3,0
1532064095756,-2,-1,-14,0,-11,-2,-1,0
1532064095761,1,1,4,-15,12,3,1,-1
1532064095766,-1,1,-9,-3,-8,-1,1,-2
1532064095771,-5,-2,2,3,6,0,-2,-1
1532064095776,0,0,4,-26,-3,-2,2,-2
1532064095781,0,1,5,33,-2,-3,2,-2
1532064095786,-2,-2,3,-32,4,1,0,0
1532064095791,-3,-4,-2,17,-5,-4,-4,-1
1532064095796,0,0,2,3,-3,0,-2,1
1532064095801,-1,0,3,-33,-6,-1,0,-1
1532064095806,1,0,-6,12,0,-2,0,-3
1532064095811,-2,-1,15,-15,-13,-2,1,-2
1532064095816,1,0,-9,6,11,1,0,0
1532064095821,0,-1,-6,3,1,-1,-1,0
1532064095826,-1,-3,0,1,-6,-2,0,-2
1532064095831,0,2,6,2,3,1,-1,-1
1532064095836,-4,-3,-2,4,-2,1,0,-1
1532064095841,-1,2,6,-7,4,0,-1,-3
1532064095846,-1,-7,-15,-9,0,-1,-2,-2
1532064095851,-2,-2,-14,-4,-2,-2,-1,-1
1532064095856,0,-4,-3,16,4,0,0,0
1532064095861,0,1,7,-15,-16,-2,1,0
1532064095866,1,3,18,12,10,4,-4,3
1532064095871,0,-2,-4,1,4,0,1,-1
1532064095876,-1,1,7,9,4,0,-1,-2
1532064095881,1,-1,-8,-6,-4,-1,1,1
1532064095886,2,0,-13,8,-5,-1,2,-1
1532064095891,0,0,8,-13,-2,-1,-3,1
1532064095896,3,5,16,3,-1,-1,0,-1
1532064095901,-1,-6,-15,-4,1,0,2,-3
1532064095906,-6,-8,21,-12,-3,-2,-8,-2
1532064095911,0,-1,8,12,1,2,3,0
1532064095916,-3,-3,-8,-27,-5,-5,-3,-5
1532064095921,2,5,17,15,2,1,-1,1
1532064095926,-1,-7,-31,-4,-4,-2,4,1
1532064095931,-2,0,28,5,-2,-1,-2,-1
1532064095936,-1,-5,-21,-6,-2,-2,0,-2
1532064095941,0,-2,1,-6,4,0,0,0
1532064095946,0,5,-3,4,-2,-1,-1,0
1532064095951,-2,-6,-20,-5,-4,-3,-1,0
1532064095956,2,4,12,-4,-3,-1,0,1
1532064095961,-1,-1,-1,1,-4,-3,-3,-6
1532064095966,3,5,-1,16,7,3,5,2
1532064095971,-2,-17,-48,-22,-4,-2,-5,0
1532064095976,-9,1,13,11,3,1,-3,1
1532064095981,-3,1,-10,-8,-2,-1,-2,-2
1532064095986,4,3,11,5,-1,0,-1,-1
1532064095991,0,2,-10,-3,-3,-2,1,-1
1532064095996,-2,-3,-10,-7,-5,-3,1,-1
1532064096001,-6,-6,-7,-1,3,0,-1,2
1532064096006,11,12,0,12,-2,-1,0,-6
1532064096011,-14,-22,-28,-14,1,-3,-8,-1
1532064096016,4,1,-7,-1,-1,0,0,5
1532064096021,-2,7,21,1,1,0,0,2
1532064096026,-3,-3,7,1,0,-1,-4,0
1532064096031,6,9,5,4,-1,1,3,-3
1532064096036,0,1,8,-1,3,0,0,-3
1532064096041,-2,-11,-31,-3,-5,-3,-3,-3
1532064096046,-3,1,16,3,2,-2,0,1
1532064096051,4,8,21,3,1,1,2,3
1532064096056,-1,-4,-18,-11,-3,-1,-2,-3
1532064096061,6,8,26,8,3,0,1,1
1532064096066,-3,-6,1,-6,-2,-1,-1,1
1532064096071,0,2,5,6,1,-2,0,-1
1532064096076,4,4,22,4,-3,0,2,-3
1532064096081,-5,-14,-32,-11,-3,-3,-5,-2
1532064096086,-7,-11,-41,-8,-3,-1,-5,-2
1532064096091,2,6,5,2,0,-1,0,-3
1532064096096,-2,-2,5,5,-2,0,0,0
1532064096101,2,3,8,8,4,0,-1,-2
1532064096106,-3,-2,4,-8,-4,-2,1,-1
1532064096111,-2,-5,-2,4,6,1,-3,-1
1532064096116,0,-1,-16,-4,3,-1,-1,-3
1532064096121,-1,2,4,-4,-4,-2,3,3
1532064096126,0,1,11,8,-8,-2,-2,-2
1532064096131,-1,1,-3,-15,1,-1,-2,-7
1532064096136,1,1,9,5,6,2,1,7
1532064096141,-1,-6,-12,-6,4,0,1,-2
1532064096146,-1,1,9,3,-6,0,-1,1
1532064096151,0,1,-2,-1,-6,-4,-2,-2
1532064096156,-3,-3,-2,2,4,0,-1,-1
1532064096161,1,-1,16,-1,-2,0,-1,-1
1532064096166,-3,-2,-7,-2,1,-2,-2,-8
1532064096171,6,3,8,8,-1,2,5,13
1532064096176,-1,1,2,-5,-1,-2,-4,-9
1532064096181,-5,-2,-22,-6,-3,-1,2,1
1532064096186,1,1,13,6,7,1,-1,-1
1532064096191,15,7,2,-4,-3,-1,1,0
1532064096196,-11,-10,15,0,-7,-2,-3,-1
1532064096201,-2,3,-15,-4,-3,-1,-1,-2
1532064096206,-8,-4,-4,0,3,1,-2,-1
1532064096211,14,5,6,5,1,1,1,1
1532064096216,0,-4,-6,-11,-2,-1,0,2
1532064096221,0,1,0,-1,0,-1,-1,-5
1532064096226,3,1,4,2,5,0,1,0
1532064096231,-8,1,9,4,-4,-2,0,1
1532064096236,1,2,2,0,0,-1,-2,-4
1532064096241,-3,-6,-15,-2,-6,-2,-3,3
1532064096246,-3,-8,9,-7,3,-2,-1,1
1532064096251,-4,-1,10,4,-10,-1,-1,-5
1532064096256,-2,0,-8,3,11,-1,0,0
1532064096261,4,-3,-15,-5,-2,0,-4,0
1532064096266,1,2,-5,1,-1,0,-1,0
1532064096271,-8,-1,9,9,0,1,-1,-2
1532064096276,3,-2,-26,-20,-7,-4,-4,2
1532064096281,3,3,15,6,-1,0,3,1
1532064096286,-1,-1,7,-1,-1,-2,-1,0
1532064096291,-4,-1,-5,0,5,1,0,-1
1532064096296,0,0,-10,-1,-5,0,0,-3
1532064096301,1,3,16,6,4,-2,-6,3
1532064096306,-4,-6,-22,-16,-6,-1,4,-2
1532064096311,-4,0,-3,0,0,-1,0,0
1532064096316,5,6,17,11,2,2,0,2
1532064096321,-4,-7,0,-8,-2,-2,-1,-5
1532064096326,4,3,6,1,0,0,-4,3
1532064096331,-6,-6,-25,-6,-3,-3,-4,-2
1532064096336,-4,-4,0,2,-5,-1,0,-1
1532064096341,4,3,19,-1,3,1,-1,-1
1532064096346,-7,-6,-43,2,1,-2,0,-1
1532064096351,-2,2,40,-5,-3,-2,-2,-2
1532064096356,11,0,-9,5,-4,-3,-5,-1
1532064096361,0,0,9,-9,1,1,4,-1
1532064096366,2,2,6,4,-3,-1,1,1
1532064096371,-3,-2,-10,-2,2,0,0,0
1532064096376,-3,-2,5,-1,-4,-2,-2,-2
1532064096381,1,5,-1,11,1,2,2,1
1532064096386,-1,-2,16,-9,-2,-2,-3,-2
1532064096391,-3,-4,-15,-7,-2,0,-1,-4
1532064096396,-2,0,12,3,2,-2,-3,0
1532064096401,-2,0,-11,-2,-4,-1,-1,0
1532064096406,0,2,8,6,2,0,0,1
1532064096411,2,0,3,2,3,1,0,-2
1532064096416,0,3,-1,2,1,1,2,2
1532064096421,-2,1,2,-1,0,-2,-1,0
1532064096426,-2,-7,-21,-9,-2,-4,-2,-2
1532064096431,2,0,2,-1,-3,1,-2,2
1532064096436,-3,-4,-4,1,8,0,0,0
1532064096441,-1,0,9,7,-14,-3,0,-3
1532064096446,3,7,12,-4,11,1,-2,2
1532064096451,-2,1,6,5,-2,-3,-1,-2
1532064096456,-4,-3,-35,-8,1,0,2,1
1532064096461,0,8,35,18,1,2,-1,0
1532064096466,-1,-2,-26,-16,-7,-3,0,-2
1532064096471,-1,-1,-2,2,-1,0,0,-1
1532064096476,3,4,0,3,-2,3,2,-1
1532064096481,-5,-14,-17,-11,4,-3,-3,-6
1532064096486,-1,3,11,4,-7,0,1,0
1532064096491,3,-3,-13,-5,4,0,-2,3
1532064096496,-2,0,1,-2,-2,0,-2,-3
1532064096501,5,3,20,8,-4,0,0,1
1532064096506,-4,-2,-29,-6,7,0,-4,-3
1532064096511,-2,-3,-4,-7,-13,-3,2,1
1532064096516,-1,1,7,-1,4,-2,-1,-1
1532064096521,-6,-10,-14,-9,-2,-2,-3,-4
1532064096526,0,1,20,7,-3,-1,-2,-1
1532064096531,-2,-2,-8,0,2,0,0,-2
1532064096536,-2,-3,4,-5,-4,-4,-1,-1
1532064096541,0,0,-29,-5,2,1,0,0
1532064096546,-1,-5,28,2,-2,-1,-3,-2
1532064096551,0,-2,1,1,3,-1,-2,-2
1532064096556,-5,-10,-43,-11,-5,-3,-3,-4
1532064096561,1,7,9,-8,-1,-1,-1,3
1532064096566,2,-3,20,6,-2,-1,-2,-5
1532064096571,-3,1,-3,-1,3,1,0,2
1532064096576,-2,2,11,4,-4,-1,1,-4
1532064096581,4,0,3,3,-1,-1,-1,0
1532064096586,1,-1,-11,-5,2,0,2,1
1532064096591,0,0,-11,3,-1,-1,-1,-3
1532064096596,2,5,45,5,-2,0,1,3
1532064096601,1,5,8,2,3,1,5,0
1532064096606,-7,-11,-22,3,-3,1,-5,1
1532064096611,2,3,1,1,3,0,-1,-1
1532064096616,-6,-1,-17,0,-9,0,0,-3
1532064096621,-2,-5,15,-3,11,-1,-1,0
1532064096626,7,4,-16,1,-4,-2,2,0
1532064096631,-3,-1,11,2,0,-1,-3,0
1532064096636,-2,-7,-4,-3,-4,-1,-1,1
1532064096641,-6,-1,-25,-2,0,0,1,-6
1532064096646,1,-2,13,-7,-4,-1,-2,1
1532064096651,2,-2,-18,-5,1,-3,-1,-5
1532064096656,-1,3,26,5,2,-4,-2,-1
1532064096661,-4,-6,-16,-3,-2,-1,-2,0
1532064096666,2,3,-2,0,2,2,1,-1
1532064096671,-2,0,9,-1,-4,-3,4,0
1532064096676,3,0,-12,3,2,1,1,-1
1532064096681,-2,0,20,-1,1,-2,-4,0
1532064096686,-4,0,1,-1,-2,0,-3,0
1532064096691,-3,-4,1,-1,-3,-1,1,-1
1532064096696,3,2,-12,-3,0,-2,2,4
1532064096701,-1,-1,-1,1,-3,-3,0,-2
1532064096706,-2,0,0,-1,-5,-3,0,-1
1532064096711,1,4,7,2,4,-1,0,-2
1532064096716,-3,-4,1,-1,-3,-2,-3,-1
1532064096721,0,-4,-17,-11,-1,0,-1,-2
1532064096726,-4,-2,8,1,2,0,0,-2
1532064096731,6,3,15,4,-3,0,1,0
1532064096736,-10,-8,-25,-6,-2,-2,-1,-1
1532064096741,3,-4,-4,-3,-3,-1,-2,2
1532064096746,-20,4,2,-3,-4,-4,-4,-4
1532064096751,14,2,-16,-5,0,0,0,1
1532064096756,1,-1,37,2,1,0,-3,-3
1532064096761,2,6,5,-1,-7,0,1,-3
1532064096766,-7,-4,-20,1,0,-1,2,-2
1532064096771,7,-3,-1,-2,2,1,-4,5
1532064096776,-2,-3,4,0,-1,0,-4,-3
1532064096781,4,1,-8,3,2,0,0,1
1532064096786,12,4,3,3,0,1,3,1
1532064096791,-12,-8,-9,-9,-4,-4,-3,-5
1532064096796,10,3,-7,0,-1,-1,1,0
1532064096801,-2,-3,6,-3,-1,-2,-3,0
1532064096806,2,-1,-3,0,-1,0,0,1
1532064096811,-2,-1,-1,-3,0,-3,0,-1
1532064096816,-4,1,9,5,3,1,-1,0
1532064096821,-4,-3,-6,3,-2,-1,-1,-1
1532064096826,6,-3,16,-6,-1,-1,-1,2
1532064096831,-12,-3,-2,3,0,0,-1,-3
1532064096836,2,0,-25,-5,-1,0,-2,-4
1532064096841,-6,3,2,4,-1,-1,2,0
1532064096846,8,2,9,7,3,2,-1,3
1532064096851,-1,-2,2,-1,-1,1,-1,-2
1532064096856,11,-1,4,-2,-4,-3,-2,3
1532064096861,-26,-4,-15,-1,-1,-1,-1,-3
1532064096866,8,-1,1,-8,-3,-2,-2,-3
1532064096871,-2,2,-4,-1,-1,-1,0,0
1532064096876,-4,-2,-1,-1,1,1,0,-1
1532064096881,18,1,-1,-1,0,-1,-3,4
1532064096886,-19,-3,-1,1,-1,-1,-1,-5
1532064096891,0,-4,1,-2,-2,-1,0,-1
1532064096896,2,-2,2,0,1,-1,0,1
1532064096901,14,3,0,0,-2,0,0,1
1532064096906,2,-2,-6,-4,-4,-3,0,0
1532064096911,-2,-3,-3,1,-1,-1,0,-2
1532064096916,-2,-2,1,-14,-2,0,0,-2
1532064096921,-7,-4,-2,5,-2,-1,-2,-1
1532064096926,4,1,-2,9,1,-1,-1,0
1532064096931,-3,1,2,-1,-1,1,-1,-2
1532064096936,0,0,1,3,-1,0,-1,-3
1532064096941,-1,-3,-1,-9,-1,-1,-2,0
1532064096946,-2,-1,0,-1,0,1,0,-1
1532064096951,5,0,-5,2,-1,0,-1,1
1532064096956,-3,-1,0,-9,2,-1,-1,-1
1532064096961,-3,-2,2,13,1,-2,-2,-2
1532064096966,-1,1,-1,-24,-8,-1,-3,-4
1532064096971,0,-1,1,-1,-3,-2,-1,0
1532064096976,-2,-1,1,1,-1,-1,-2,0
1532064096981,-2,-1,0,3,4,0,2,-1
1532064096986,1,-1,0,-2,2,0,1,0
1532064096991,-2,0,2,0,1,0,-1,-2
1532064096996,-6,-1,3,-6,-9,-3,-2,-1
1532064097001,-5,-1,-1,1,-2,-2,-2,-2
1532064097006,12,1,-3,10,-2,-1,-2,0
1532064097011,1,-1,3,-3,2,0,1,0
1532064097016,9,-5,-19,-17,-1,-2,-7,4
1532064097021,-12,-1,1,-4,3,0,7,-8
1532064097026,2,0,-2,0,0,0,0,0
1532064097031,-7,4,0,3,-1,-1,-4,-5
1532064097036,7,0,4,12,0,-1,-1,0
1532064097041,1,-7,-5,-2,-3,-3,-4,1
1532064097046,1,-1,-4,-1,2,0,3,1
1532064097051,-3,-2,-5,-7,2,-2,0,1
1532064097056,-11,0,3,4,-6,-1,-4,-7
1532064097061,6,0,0,6,-1,0,-5,1
1532064097066,16,6,2,-4,1,0,8,2
1532064097071,-24,-14,-2,9,-2,0,-5,3
1532064097076,13,0,-1,-21,-2,-2,6,2
1532064097081,-24,3,1,0,0,1,0,-8
1532064097086,16,2,-2,-9,0,-4,-7,1
1532064097091,-3,6,-1,-6,-4,0,1,-6
1532064097096,0,7,0,9,3,2,-1,-2
1532064097101,7,-9,9,1,-5,1,-1,5
1532064097106,-15,-22,-12,-7,1,0,1,-3
1532064097111,19,18,9,12,-5,0,-1,1
1532064097116,-19,4,-2,10,-1,0,3,4
1532064097121,8,-16,-6,-11,0,-2,-2,-2
1532064097126,-14,7,-4,-10,-3,0,0,-3
1532064097131,-3,-13,-6,9,0,-2,1,-2
1532064097136,14,-2,4,8,3,0,7,4
1532064097141,6,27,5,-7,-5,0,-7,-6
1532064097146,-6,-1,6,3,2,-1,-1,-3
1532064097151,3,-5,-10,-16,-2,0,-1,-4
1532064097156,-15,-24,6,15,2,0,1,-4
1532064097161,20,12,-8,-9,0,-3,-6,3
1532064097166,-28,-18,-4,8,-2,0,4,-3
1532064097171,-2,20,4,3,-6,-4,-3,-3
1532064097176,0,5,6,10,8,4,-1,-1
1532064097181,-1,6,3,1,1,1,2,1
1532064097186,4,15,3,4,0,1,1,1
1532064097191,0,-35,-4,10,16,3,3,0
1532064097196,-1,-18,-13,-34,-3,-2,-4,-7
1532064097201,0,11,1,-4,-12,-3,-5,0
1532064097206,5,6,2,-12,14,1,3,-4
1532064097211,-2,1,1,-12,-8,0,-1,1
1532064097216,2,-8,-12,14,-7,-3,-4,-1
1532064097221,3,8,7,16,7,2,4,-1
1532064097226,-3,-7,-13,-34,-10,-7,-4,0
1532064097231,-1,4,4,2,-4,-2,-1,-1
1532064097236,3,3,1,-13,-1,1,0,1
1532064097241,1,-7,1,4,1,1,1,-1
1532064097246,-4,-5,0,7,1,0,1,-3
1532064097251,0,-2,2,9,7,0,0,-1
1532064097256,-3,-17,-8,-30,-4,-2,-4,-5
1532064097261,1,14,4,2,-8,-1,-2,2
1532064097266,4,8,9,19,5,2,-1,1
1532064097271,-2,3,-3,-5,-5,-1,0,-2
1532064097276,-2,-12,-2,-5,-2,-2,-3,-2
1532064097281,-1,2,-3,-19,-2,-3,-2,-3
1532064097286,-1,4,-3,6,-2,0,-2,0
1532064097291,-1,-2,-2,3,-4,-1,2,0
1532064097296,-1,-8,-3,6,3,0,2,-1
1532064097301,0,4,6,27,12,3,0,2
1532064097306,0,0,-2,-2,2,-1,0,-2
1532064097311,-1,-1,-4,-18,-8,-3,-3,-2
1532064097316,-1,-1,2,4,0,0,-2,-1
1532064097321,0,0,-2,-1,-2,-1,0,-1
1532064097326,0,-1,-2,8,-4,-2,-1,-1
1532064097331,0,10,2,-3,4,0,1,0
1532064097336,-4,-31,-7,12,-4,-3,-2,-2
1532064097341,-1,3,1,-4,-4,1,-1,-1
1532064097346,-1,-2,0,-7,-1,-2,-3,-1
1532064097351,0,-1,-2,30,3,0,1,-2
1532064097356,1,7,1,-30,0,0,-1,0
1532064097361,0,-1,-4,-27,-2,-2,0,0
1532064097366,0,-5,-3,13,-11,-2,-1,-2
1532064097371,-3,-5,1,4,0,0,-2,0
1532064097376,1,7,7,12,5,0,1,-2
1532064097381,0,-4,4,-9,-2,0,0,-2
1532064097386,-2,3,3,-10,-5,-1,-2,-1
1532064097391,0,-7,-6,5,1,-5,-3,-3
1532064097396,0,6,-2,0,4,0,-1,-1
1532064097401,0,1,-1,-2,-4,0,-1,-1
1532064097406,-2,-3,0,4,-2,2,-1,1
1532064097411,-2,-5,-2,-15,-5,2,1,0
1532064097416,1,6,5,17,6,-2,-1,0
1532064097421,3,1,-3,-30,2,-1,0,-3
1532064097426,-1,11,3,19,-1,-2,-3,1
1532064097431,-1,-29,-8,2,0,0,1,-1
1532064097436,-2,6,1,-11,-4,-3,-3,-1
1532064097441,-1,-3,-3,1,-5,0,-1,0
1532064097446,1,-3,-2,-4,6,-1,0,-2
1532064097451,0,15,5,5,2,-2,1,0
1532064097456,-2,0,0,-5,-3,0,1,0
1532064097461,-2,-9,-4,29,7,1,1,0
1532064097466,0,-7,-4,-27,-3,-1,0,0
1532064097471,-1,2,3,1,-6,0,-2,-1
1532064097476,0,4,-1,-8,-3,-1,0,-1
1532064097481,0,6,-4,-19,-4,-4,-3,0
1532064097486,-1,-6,-2,12,1,0,0,0
1532064097491,-1,0,-3,-20,-4,-4,-1,-1
1532064097496,3,10,3,-1,0,-1,1,0
1532064097501,0,6,-1,5,3,0,-2,-1
1532064097506,-3,-18,-1,2,-6,-1,0,0
1532064097511,-3,-15,-11,-17,-6,0,-3,-2
1532064097516,0,-4,-2,12,5,1,-1,-1
1532064097521,-2,-6,-1,1,1,-1,0,-1
1532064097526,2,9,0,4,2,0,0,-1
1532064097531,-3,11,3,0,4,0,-2,0
1532064097536,-1,-3,-2,5,-10,0,-3,-1
1532064097541,1,5,2,7,1,0,3,1
1532064097546,-4,0,-4,-10,-6,-3,-3,-3
1532064097551,0,-2,0,-14,1,-1,-2,-1
1532064097556,0,1,-1,-1,3,1,3,1
1532064097561,2,0,3,14,-3,0,1,0
1532064097566,0,7,3,-1,2,-3,-4,0
1532064097571,1,-5,-2,10,1,0,2,-1
1532064097576,-1,2,-2,-11,-1,-1,0,0
1532064097581,-3,-16,-1,4,-1,-1,0,-2
1532064097586,0,6,-1,-3,0,0,-1,-2
1532064097591,0,9,3,2,-2,1,-2,1
1532064097596,0,1,4,37,5,1,0,0
1532064097601,-3,-11,-7,-45,-2,-2,-5,-1
1532064097606,0,-1,3,5,4,-1,1,-2
1532064097611,1,2,0,7,-2,-1,0,-1
1532064097616,-2,-12,-2,3,5,0,-1,-2
1532064097621,0,15,6,10,4,1,-2,0
1532064097626,1,-2,-6,-13,-6,0,0,-1
1532064097631,-1,-1,2,4,-2,-2,-2,0
1532064097636,-3,-1,-1,3,-1,-3,-4,-2
1532064097641,0,-1,-1,-8,-3,0,-2,0
1532064097646,0,10,1,21,6,2,-1,1
1532064097651,-1,-5,-2,-18,-7,-2,-1,-2
1532064097656,-1,-17,-7,-4,-4,0,1,0
1532064097661,0,6,3,17,-3,-2,-1,-1
1532064097666,-1,-2,-1,-8,-3,0,-1,0
1532064097671,2,17,5,20,7,1,1,1
1532064097676,1,-2,3,-7,0,-1,-1,-1
1532064097681,-5,-16,-11,-2,-1,-2,-2,-1
1532064097686,-1,-3,0,-9,-6,-2,-2,-3
1532064097691,-2,-6,-3,17,2,1,-1,-1
1532064097696,3,14,2,-25,0,0,1,-1
1532064097701,-3,-9,-1,14,-2,0,0,1
1532064097706,0,-6,-3,1,3,-2,0,0
1532064097711,-1,4,-2,8,-1,0,-2,0
1532064097716,1,-2,1,10,2,1,2,-1
1532064097721,3,13,5,14,0,-2,2,-1
1532064097726,-3,-14,-7,-11,0,-1,-1,0
1532064097731,-2,-19,-5,0,-4,-3,-3,-3
1532064097736,-1,13,4,-7,0,-1,-2,1
1532064097741,2,2,3,10,-1,-2,0,-2
1532064097746,-1,10,-1,6,0,0,-1,-1
1532064097751,1,-13,-2,-26,-2,1,2,-1
1532064097756,-4,-9,-8,19,-2,-1,-16,-3
1532064097761,-1,10,0,-30,-18,-3,9,3
1532064097766,1,-3,1,1,3,-1,-1,0
1532064097771,-3,-5,-4,-18,-1,-3,-1,-1
1532064097776,-1,10,0,9,-5,-1,-3,0
1532064097781,-2,-14,0,13,-1,0,-4,-2
1532064097786,-2,-2,0,3,2,0,-2,-2
1532064097791,-2,-11,-4,-7,-1,0,0,-2
1532064097796,1,4,2,-8,2,-1,2,-2
1532064097801,2,16,2,2,1,0,-1,3
1532064097806,0,-1,-1,12,-3,0,2,0
1532064097811,-3,-15,-6,-13,3,-1,-3,-1
1532064097816,-3,-7,-1,-6,-3,-2,1,1
1532064097821,0,-1,-1,-1,3,1,-3,-3
1532064097826,0,8,2,-20,-2,-1,-5,-1
1532064097831,1,2,-1,-1,1,1,1,0
1532064097836,-2,0,1,8,-8,-1,2,-2
1532064097841,-1,1,-2,-8,6,-1,-1,0
1532064097846,-2,-4,-1,7,-13,1,-3,-1
1532064097851,3,8,5,13,11,0,5,1
1532064097856,-4,-29,-7,-25,-1,-3,-1,-4
1532064097861,0,9,3,1,3,1,-6,0
1532064097866,0,8,1,2,1,0,3,-1
1532064097871,1,3,-1,8,-5,-2,-1,-1
1532064097876,2,0,1,-4,-1,1,0,-2
1532064097881,-2,-5,-3,-2,-2,1,-1,-2
1532064097886,-2,-3,0,-5,-1,-2,-2,0
1532064097891,3,17,2,6,-5,-1,-3,0
1532064097896,0,-7,-1,-11,3,1,2,0
1532064097901,0,1,-2,9,5,1,-3,-3
1532064097906,-2,-13,-5,-25,-10,1,1,-2
1532064097911,-3,-1,1,12,3,-1,-2,-2
1532064097916,1,8,-4,-31,-7,-1,0,1
1532064097921,0,6,1,7,-2,-2,0,-2
1532064097926,1,6,3,18,5,1,0,0
1532064097931,-2,-10,-7,1,-6,-2,-2,-1
1532064097936,-1,-19,0,-1,-2,-1,0,-2
1532064097941,-2,-1,4,-2,-1,-2,-3,0
1532064097946,-1,2,-2,-18,-3,-3,-1,-2
1532064097951,0,10,2,-12,-2,1,-1,0
1532064097956,-1,3,-2,8,-3,-1,0,2
1532064097961,-2,-9,-3,8,-4,-2,1,-1
1532064097966,2,11,2,7,6,1,1,0
1532064097971,-1,-2,2,12,-1,0,0,0
1532064097976,-4,-13,-3,-8,-3,-1,-3,1
1532064097981,0,-4,-7,4,3,2,-1,-1
1532064097986,-1,-7,-3,-23,0,-1,-2,-1
1532064097991,0,12,1,-11,-6,0,-1,-1
1532064097996,1,17,2,11,1,-1,-2,0
1532064098001,-1,-15,-4,9,1,-4,-1,0
1532064098006,-1,-2,3,8,1,1,-1,-2
1532064098011,-1,-2,-3,3,4,-1,1,-1
1532064098016,0,4,2,7,0,1,-2,-1
1532064098021,-2,7,-4,-35,-7,-4,-2,0
1532064098026,-1,-15,-3,16,-1,0,1,1
1532064098031,-1,2,3,-1,4,-1,0,0
1532064098036,-1,12,3,8,-7,-3,-1,0
1532064098041,1,-9,-5,-2,14,1,0,-1
1532064098046,-3,-17,-5,-17,-6,-3,-1,0
1532064098051,-5,-4,-3,12,-8,-2,-3,0
1532064098056,2,5,1,-16,0,-3,0,0
1532064098061,4,30,5,16,-5,-1,0,-2
1532064098066,0,-22,-3,-8,3,2,1,1
1532064098071,-5,-9,-7,-4,-2,-4,-2,-3
1532064098076,0,3,3,-5,-3,-1,0,1
1532064098081,0,1,3,-6,-1,0,0,-1
1532064098086,0,21,6,27,0,0,-2,0
1532064098091,3,1,-5,-18,4,1,2,-1
1532064098096,-3,-4,-1,15,-2,-1,-2,-2
1532064098101,-2,-13,-6,-13,-3,-1,-2,-3
1532064098106,-1,8,-1,-14,-2,-1,-2,-2
1532064098111,1,-5,6,1,7,1,-1,1
1532064098116,0,4,-4,14,2,-1,-1,-1
1532064098121,-1,-5,3,0,-10,-2,-1,-1
1532064098126,-2,0,-1,4,9,1,-1,0
1532064098131,1,16,3,5,-2,0,0,1
1532064098136,-2,-20,-9,-9,3,0,0,-2
1532064098141,-3,-12,2,-13,-4,-3,-2,-1
1532064098146,-1,-3,-3,23,-4,-3,-3,-2
1532064098151,0,4,4,-19,-4,-1,0,-2
1532064098156,1,9,2,3,4,2,-1,3
1532064098161,0,-1,1,1,-6,0,-3,-2
1532064098166,1,4,2,-6,-3,-2,-1,-4
1532064098171,-1,-1,-2,10,3,2,-2,-3
1532064098176,-2,-15,-2,1,2,-3,1,-2
1532064098181,-2,7,-2,-17,-3,-1,-1,-1
1532064098186,0,-13,-4,-3,0,0,-1,1
1532064098191,0,5,0,0,-4,-2,-2,1
1532064098196,0,5,-2,-5,-5,-3,0,-2
1532064098201,1,4,3,5,6,1,2,1
1532064098206,-1,1,-3,-2,3,-1,0,-1
1532064098211,-2,-20,-4,4,-7,-1,-3,0
1532064098216,-1,-1,2,5,3,-2,-1,-2
1532064098221,-1,5,-3,3,-7,0,0,0
1532064098226,1,8,2,-12,-1,1,0,0
1532064098231,1,-7,-1,7,7,-1,1,0
1532064098236,-1,0,-3,-4,-6,0,-1,-2
1532064098241,-1,-8,0,1,8,0,1,-1
1532064098246,0,0,1,6,-1,-1,1,-1
1532064098251,0,1,-3,-20,-6,-4,-3,-2
1532064098256,-1,12,5,5,-2,3,1,-1
1532064098261,-1,-10,-1,-2,4,-1,-1,-2
1532064098266,-3,-12,-6,3,-3,-1,-2,-1
1532064098271,0,4,1,0,1,-1,-1,0
1532064098276,1,2,1,-3,1,-1,0,0
1532064098281,-2,-2,-1,-16,-9,-2,-3,-3
1532064098286,-1,-2,-2,-2,0,0,0,1
1532064098291,1,-1,-2,-4,2,2,1,-1
1532064098296,1,-2,-1,0,2,-1,0,0
1532064098301,-3,0,-1,24,-5,-3,-6,-1
1532064098306,-1,1,-1,-5,-3,-1,-4,-1
1532064098311,-1,3,1,-2,-4,-1,0,-1
1532064098316,1,-13,-1,1,2,1,-1,0
1532064098321,1,0,3,3,-2,0,0,-2
1532064098326,0,1,-1,-6,0,-1,1,0
1532064098331,-2,3,1,5,-2,-2,-2,1
1532064098336,0,0,-1,-4,0,0,-1,-1
1532064098341,3,-2,-2,-2,1,1,2,2
1532064098346,-2,0,2,3,-3,-2,-2,-1
1532064098351,-2,-4,0,0,-3,-2,-1,-4
1532064098356,-1,-4,-2,-4,0,-1,-2,0
1532064098361,-2,-2,-3,-2,-1,-1,-1,-1
1532064098366,-2,3,0,0,-3,-2,-4,-2
1532064098371,1,3,0,3,-1,-1,1,-1
1532064098376,-3,-9,-3,-2,0,-3,-1,-2
1532064098381,-1,0,-2,0,1,-2,-1,-1
1532064098386,1,0,0,1,1,0,0,0
1532064098391,0,-2,-1,-2,0,2,1,-2
1532064098396,-2,6,-1,-2,-1,0,-2,-1
1532064098401,-1,-3,-4,-3,0,0,-2,0
1532064098406,0,-4,-1,-5,-2,0,1,-3
1532064098411,0,0,-1,-2,-4,-2,-2,-2
1532064098416,-2,0,0,0,1,0,-3,-1
1532064098421,0,0,-1,-3,0,1,1,-1
1532064098426,0,0,0,1,-2,-2,0,0
1532064098431,-1,-4,-1,1,-1,1,-1,-1
1532064098436,0,1,2,14,-1,0,1,-1
1532064098441,-1,-3,-1,-7,-2,0,1,0
1532064098446,0,3,1,1,0,-3,-2,-3
1532064098451,-1,-4,-1,-7,-3,-1,-1,0
1532064098456,1,-4,-1,-1,-1,-2,2,-1
1532064098461,0,1,1,4,0,-1,-2,1
1532064098466,-1,-1,-1,-13,-1,-2,-2,-1
1532064098471,-1,-2,0,10,-6,0,1,0
1532064098476,-1,-2,-3,-15,1,0,0,0
1532064098481,-3,-2,0,6,0,-2,-1,-3
1532064098486,1,9,1,-9,1,0,2,-1
1532064098491,-2,4,-5,2,-9,-1,-1,0
1532064098496,-2,-16,1,1,1,1,0,0
1532064098501,-1,4,-2,-3,2,0,-1,-1
1532064098506,-1,2,3,-9,-1,0,-1,-1
1532064098511,-2,-4,-3,1,1,-1,-2,1
1532064098516,-1,4,2,2,-3,-1,-2,-2
1532064098521,1,4,2,0,1,1,1,0
1532064098526,0,-3,1,11,-3,0,-2,0
1532064098531,1,6,-1,-7,0,-2,-2,0
1532064098536,1,16,-2,-3,1,-2,0,-1
1532064098541,-4,-30,-3,-1,-8,0,-1,-1
1532064098546,-3,3,2,3,5,0,-1,-4
1532064098551,-2,-3,0,0,5,0,0,3
1532064098556,-1,5,-2,-1,-9,-1,-2,0
1532064098561,1,13,0,-3,6,-1,0,-1
1532064098566,-2,-7,-4,5,-5,-1,-1,0
1532064098571,0,3,4,3,3,1,-1,-2
1532064098576,0,-3,-5,-14,1,-2,-1,-2
1532064098581,0,-4,-2,5,-4,-1,-1,0
1532064098586,-1,-9,-3,-11,-2,-1,-1,0
1532064098591,-1,-3,-2,4,-3,-1,-3,0
1532064098596,-2,4,3,0,2,0,-1,-1
1532064098601,-1,-1,-3,-2,-1,1,0,0
1532064098606,-2,-20,-6,3,2,-1,0,-1
1532064098611,-1,9,5,-2,-6,-2,2,-2
1532064098616,-2,-11,-4,8,-1,-1,0,-1
1532064098621,1,5,0,-7,-2,0,-1,0
1532064098626,0,-1,-3,1,4,-1,-2,-2
1532064098631,-2,-5,-3,-1,-4,-2,0,-1
1532064098636,-1,-6,-5,-2,-2,-1,0,-1
1532064098641,-2,6,1,-1,-1,-2,-4,-1
1532064098646,1,11,1,2,-2,0,-1,0
1532064098651,-1,-12,-3,-1,3,1,0,-2
1532064098656,0,6,2,-1,0,-2,-1,-2
1532064098661,-2,-8,-1,-3,0,0,-1,-1
1532064098666,0,2,-4,-1,-4,0,-1,0
1532064098671,-1,2,0,-2,5,0,-2,0
1532064098676,1,-1,1,3,-3,1,0,1
1532064098681,-1,3,-1,-5,2,0,-1,-1
1532064098686,-2,-6,2,0,-6,0,-1,-1
1532064098691,1,1,-4,15,3,0,0,-2
1532064098696,1,0,0,-23,3,-1,1,0
1532064098701,0,0,-2,8,0,0,-2,1
1532064098706,-1,4,2,-1,-1,0,1,1
1532064098711,-1,-2,-3,-5,-3,-3,-2,0
1532064098716,-1,-3,-2,4,-1,1,1,-2
1532064098721,0,-2,-2,-6,-1,-2,0,-3
1532064098726,-2,0,-2,1,-3,-3,-1,0
1532064098731,-1,4,2,3,3,1,0,-3
1532064098736,1,6,-3,-10,-1,-1,-2,0
1532064098741,-2,-13,-3,-10,-8,-1,-8,-2
1532064098746,-2,1,1,7,6,-1,5,1
1532064098751,0,-2,0,-2,2,1,2,1
1532064098756,-1,-3,-1,4,-2,0,-1,0
1532064098761,1,12,4,21,4,1,0,0
1532064098766,-1,-6,-5,-26,-4,-1,-5,0
1532064098771,-2,-4,0,-4,-1,-1,-3,0
1532064098776,-1,12,2,-2,0,-2,-1,-1
1532064098781,-3,-14,-3,1,-5,-3,-1,-2
1532064098786,0,-5,0,2,2,0,-1,-3
1532064098791,0,2,0,-9,1,0,2,1
1532064098796,-2,-6,-2,13,-2,-1,-4,1
1532064098801,0,12,3,-6,-2,-1,1,-1
1532064098806,2,2,-2,2,-3,-1,0,1
1532064098811,-3,-9,-2,-9,4,0,0,-3
1532064098816,-1,-7,-2,3,-5,-2,-2,0
1532064098821,-2,0,-1,-3,5,0,2,-1
1532064098826,0,4,1,-6,-1,-1,0,0
1532064098831,0,5,-1,-1,-6,-2,-6,0
1532064098836,0,-3,1,20,2,0,0,0
1532064098841,-2,-7,-1,-28,-3,-1,2,-1
1532064098846,-2,-1,-1,8,-2,-1,-5,0
1532064098851,1,2,2,0,0,-1,0,-2
1532064098856,-2,1,0,-6,-1,-1,1,-2
1532064098861,-1,-14,-4,-1,-2,-2,-1,-2
1532064098866,-2,-4,-1,2,1,0,1,-2
1532064098871,-3,-5,-2,3,-7,-3,-4,-1
1532064098876,0,7,0,1,1,-1,-1,0
1532064098881,-1,8,2,3,2,0,1,0
1532064098886,0,-5,-6,-4,0,0,-2,-2
1532064098891,-1,-14,-4,0,1,0,-1,-1
1532064098896,-1,-5,1,-7,-5,-1,0,-3
1532064098901,0,4,-1,7,5,0,1,-3
1532064098906,0,2,1,-3,-3,1,-3,0
1532064098911,1,1,1,21,-1,-1,-1,-1
1532064098916,-2,2,-3,-22,2,0,-1,0
1532064098921,0,3,0,-2,-3,-1,4,2
1532064098926,-2,0,0,2,-1,0,-1,0
1532064098931,-3,-6,-3,2,-2,-1,0,-2
1532064098936,-1,-4,2,-8,3,0,-3,-2
1532064098941,-2,5,2,11,2,1,-3,0
1532064098946,0,3,-1,-13,-4,-2,1,1
1532064098951,1,-9,-6,-9,-2,-1,-2,0
1532064098956,-1,-1,1,2,-1,0,-1,-1
1532064098961,0,-3,-1,-2,-1,0,-4,-1
1532064098966,0,12,3,8,3,-1,3,-1
1532064098971,-2,-12,-1,-13,-9,0,1,1
1532064098976,-2,-11,0,12,4,-2,0,-1
1532064098981,0,-4,-4,-8,-1,1,0,-1
1532064098986,-2,-3,1,21,-3,-3,-3,-2
1532064098991,0,8,1,-26,0,0,1,-1
1532064098996,0,2,0,8,-3,2,0,1
1532064099001,0,1,2,1,-3,-1,-2,0
1532064099006,1,-6,0,8,3,0,0,-2
1532064099011,-2,7,1,-3,2,-1,0,0
1532064099016,0,6,2,-1,-1,-2,-11,-5
1532064099021,-3,-18,-5,5,-1,-1,9,3
1532064099026,-3,0,1,-8,1,1,-3,-2
1532064099031,1,5,1,6,2,-1,2,0
1532064099036,-1,8,-2,0,-4,-1,-2,-1
1532064099041,-2,-5,-2,-12,-3,-2,-4,-1
1532064099046,-1,-4,-1,6,-1,-1,0,0
1532064099051,0,3,-1,11,0,-1,-3,0
1532064099056,-1,-3,-2,-22,-2,-2,0,-1
1532064099061,0,10,2,-1,0,1,-1,-1
1532064099066,1,1,-1,-5,0,1,1,0
1532064099071,-2,-5,1,5,-2,-2,-3,-1
1532064099076,-1,-7,-3,2,1,-1,2,-1
1532064099081,0,4,2,11,2,-1,-1,-1
1532064099086,0,6,1,-5,-2,-2,-1,-1
1532064099091,-1,-12,-3,-1,1,1,1,-1
1532064099096,1,12,0,-1,-3,-1,1,0
1532064099101,0,-9,2,4,1,-1,0,-2
1532064099106,1,-2,-4,-3,-9,-1,-2,-3
1532064099111,-1,7,0,-2,10,-2,-1,-2
1532064099116,-1,-6,-1,-3,1,1,4,1
1532064099121,1,8,0,-5,-3,-2,-2,-1
1532064099126,-3,-5,-5,-3,-3,0,-2,1
1532064099131,-1,2,1,4,-2,0,-3,-2
1532064099136,-2,-3,-3,-6,-3,-1,1,-1
1532064099141,1,2,-2,6,2,-1,1,0
1532064099146,1,-2,1,4,0,-1,-1,-1
1532064099151,1,4,1,-3,-2,-2,2,-2
1532064099156,-1,-6,0,12,-3,-2,-4,0
1532064099161,-1,-8,-1,-8,-1,-1,-2,0
1532064099166,-2,-13,-1,-2,-2,-2,0,-2
1532064099171,1,5,1,3,-3,0,-4,0
1532064099176,-1,4,-1,12,-1,-2,0,-1
1532064099181,-2,3,-3,-28,-10,-3,-2,-3
1532064099186,0,4,1,-18,13,2,0,1
1532064099191,-2,-9,-6,3,-1,0,-1,0
1532064099196,-1,-6,0,1,-1,-2,-4,-1
1532064099201,-1,3,0,6,-1,-1,1,0
1532064099206,0,12,2,-5,-3,1,-3,-1
1532064099211,-2,-15,-2,-9,-4,-2,2,-2
1532064099216,0,-2,-1,-2,1,-1,1,-2
1532064099221,-3,-15,-4,7,-2,0,-5,-1
1532064099226,2,12,3,-3,0,0,1,0
1532064099231,0,8,1,2,-3,-2,-2,0
1532064099236,-4,-16,-2,4,0,-1,-2,-1
1532064099241,1,11,1,6,1,-1,-1,-2
1532064099246,-2,-4,-3,1,1,-1,1,0
1532064099251,-2,2,1,-15,-4,-2,-9,-3
1532064099256,2,5,-3,4,1,1,11,0
1532064099261,-2,-5,-3,-10,4,0,-1,-2
1532064099266,-3,-3,-3,10,-11,-4,-1,0
1532064099271,0,11,4,4,9,-1,-2,-1
1532064099276,-3,-7,-4,-11,-3,2,-3,-1
1532064099281,-2,-13,-2,8,3,-2,-4,-1
1532064099286,0,9,2,-2,-1,-1,-1,-2
1532064099291,-1,-5,-3,-5,0,0,1,-1
1532064099296,-2,1,-2,4,-3,-1,0,0
1532064099301,0,4,1,-4,1,-1,1,0
1532064099306,-2,-4,0,5,-1,-1,-1,-2
1532064099311,0,2,-1,-2,-6,1,1,-1
1532064099316,1,7,3,-3,4,0,-3,-1
1532064099321,1,0,0,0,-4,0,-3,0
1532064099326,1,14,-4,-2,0,-1,0,1
1532064099331,-3,-24,-4,4,-2,0,2,-2
1532064099336,-1,-6,-4,-3,-2,0,-4,-2
1532064099341,0,13,5,-1,2,0,-2,-2
1532064099346,-2,-6,0,5,-14,0,-1,0
1532064099351,4,24,2,-1,14,1,3,2
1532064099356,-2,-8,1,-1,-1,-2,-3,-1
1532064099361,-5,-13,-7,-1,-4,0,1,-2
1532064099366,2,5,4,0,6,2,0,1
1532064099371,0,5,2,10,-5,0,-1,-1
1532064099376,-2,-17,-5,-40,-2,-2,0,-1
1532064099381,-2,8,-1,9,-6,-2,-3,1
1532064099386,-1,-13,-1,5,2,-2,0,-2
1532064099391,0,1,1,-10,1,0,0,-1
1532064099396,1,5,3,13,-2,0,-2,1
1532064099401,2,-1,0,7,0,-1,-1,-1
1532064099406,-2,-4,0,-8,3,0,-1,-1
1532064099411,1,3,-1,8,0,-1,2,-1
1532064099416,-1,9,3,3,-1,1,1,-1
1532064099421,-2,-7,-2,-4,-5,-2,-2,-2
1532064099426,0,0,-1,-9,4,-1,-1,0
1532064099431,-2,-5,1,-3,-4,-2,0,-1
1532064099436,-1,9,0,1,1,-1,-10,-3
1532064099441,-3,-6,1,-1,-5,-1,5,2
1532064099446,-1,-7,0,20,4,-1,-1,-1
1532064099451,-2,1,-1,-28,-9,-3,-1,-1
1532064099456,1,8,1,-1,-1,-1,0,1
1532064099461,1,2,1,2,1,-2,-2,-1
1532064099466,-2,-18,-5,-5,-3,-3,-2,-3
1532064099471,1,0,1,0,-1,-1,-2,0
1532064099476,0,0,0,9,-2,-2,-1,-1
1532064099481,0,13,3,-2,1,0,-3,-1
1532064099486,-3,-10,-2,-7,-4,1,1,0
1532064099491,-1,-4,-4,5,8,1,-2,-1
1532064099496,2,5,2,-5,1,1,2,-1
1532064099501,0,9,-2,-1,-2,1,0,1
1532064099506,1,-12,-1,2,-2,-2,-2,-1
1532064099511,-3,-6,-4,-19,-4,-2,-3,-2
1532064099516,-2,2,-1,15,-2,-3,-2,0
1532064099521,2,-2,0,-6,-1,1,0,-2
1532064099526,-2,2,-2,9,0,-1,-2,1
1532064099531,0,5,2,5,-4,0,0,-2
1532064099536,-2,-9,-3,-6,1,-1,-7,-3
1532064099541,-1,4,1,2,-4,-1,6,2
1532064099546,0,2,0,-1,3,-1,2,0
1532064099551,-3,-16,-1,11,-2,-1,0,-1
1532064099556,-2,10,2,3,1,0,1,0
1532064099561,-2,-17,-2,-1,2,0,-4,-3
1532064099566,0,12,0,-9,-3,-1,-1,-1
1532064099571,1,1,0,7,0,-2,-1,-1
1532064099576,-1,-11,-3,-17,-1,-1,-1,0
1532064099581,-1,2,0,-2,2,1,-2,-1
1532064099586,0,2,-2,-7,-1,-1,1,-1
1532064099591,-2,10,2,2,-5,0,-1,0
1532064099596,-2,-17,0,6,-3,-1,0,0
1532064099601,-1,0,-5,-5,0,-2,-2,-2
1532064099606,0,0,-1,19,1,1,-3,-1
1532064099611,-1,-4,-4,-20,-4,-1,-2,0
1532064099616,3,17,2,-6,-2,0,-4,-1
1532064099621,0,-3,2,-5,1,0,5,0
1532064099626,-4,-15,-6,-2,-6,-1,1,-1
1532064099631,0,7,2,2,3,1,1,0
1532064099636,-1,-2,-3,0,-1,-1,1,-1
1532064099641,0,8,-1,10,0,0,-4,-1
1532064099646,1,16,4,-9,0,-1,-3,-2
1532064099651,-3,-25,-2,-13,0,0,1,0
1532064099656,-3,-3,-3,2,0,1,0,-1
1532064099661,-1,-2,0,0,-1,-4,-5,0
1532064099666,1,6,2,0,0,-1,2,-1
1532064099671,0,-8,-3,5,-1,-2,-3,-1
1532064099676,-3,-9,-2,15,-3,-2,0,-2
1532064099681,-1,4,-1,-25,-1,0,2,0
1532064099686,-1,2,3,-7,2,1,-2,1
1532064099691,1,3,-1,6,-4,-2,-2,-1
1532064099696,0,2,-1,4,0,1,-1,-1
1532064099701,-2,-18,-6,-13,0,-1,-3,-4
1532064099706,-5,-6,-1,3,-6,-2,-5,-2
1532064099711,-1,4,-1,4,1,2,0,-1
1532064099716,-2,-2,0,-2,0,0,2,-1
1532064099721,-1,8,2,9,0,0,-1,0
1532064099726,0,-4,-1,-27,-2,-1,1,-3
1532064099731,-2,1,-1,13,-3,-1,0,-1
1532064099736,-3,-14,-2,-4,1,-1,-2,-1
1532064099741,0,3,-1,6,-2,-1,-2,-1
1532064099746,-1,-1,0,21,1,-2,1,-2
1532064099751,1,16,3,-20,1,0,0,0
1532064099756,2,-6,-1,0,-1,0,2,1
1532064099761,-2,-11,-6,-1,-4,-1,0,-3
1532064099766,1,3,0,-3,-1,1,1,0
1532064099771,0,5,1,3,0,0,-2,-2
1532064099776,-2,8,2,-2,-4,0,0,-1
1532064099781,-3,-22,-3,10,2,0,-1,-2
1532064099786,0,-3,-1,-5,1,1,2,0
1532064099791,-1,4,1,12,-2,-2,-3,-1
1532064099796,0,2,-1,-7,-2,0,0,0
1532064099801,0,2,-2,-7,-1,1,-1,1
1532064099806,0,-1,-2,-2,1,-1,-2,0
1532064099811,0,-7,-1,-12,0,-2,0,-1
1532064099816,2,3,-2,15,-1,-1,-3,1
1532064099821,0,3,3,0,-3,-1,-3,-1
1532064099826,-1,-2,-2,-2,-4,0,-2,0
1532064099831,-2,-3,0,9,5,-1,2,-3
1532064099836,0,15,2,-15,-11,-3,-1,-2
1532064099841,0,-4,-6,-2,6,0,0,1
1532064099846,-4,-35,-1,1,1,-1,-3,-2
1532064099851,-2,11,-2,0,-4,0,-1,-1
1532064099856,-1,-7,-2,-3,4,1,0,0
1532064099861,0,11,3,5,-5,-4,-2,2
1532064099866,2,6,-1,1,-1,-4,-3,-1
1532064099871,-1,-7,-1,0,-2,-1,0,0
1532064099876,-1,-2,-1,-2,0,-1,0,-1
1532064099881,-1,4,1,-9,-2,-1,0,-2
1532064099886,0,5,0,3,1,1,2,0
1532064099891,-1,-10,-4,-4,-3,-2,-2,0
1532064099896,-3,-6,0,-1,0,-3,-3,0
1532064099901,-1,0,1,4,-7,-2,-1,1
1532064099906,1,17,3,-4,7,-1,-2,0
1532064099911,-1,4,-2,1,1,3,-1,0
1532064099916,-1,-28,-11,-13,0,0,1,-3
1532064099921,-2,-19,-1,11,-1,0,-2,-1
1532064099926,-1,9,3,0,-2,0,-2,-1
1532064099931,2,10,3,9,-3,0,0,0
1532064099936,0,6,1,-9,1,-1,1,-2
1532064099941,-1,5,2,-11,-3,-3,-2,0
1532064099946,0,-1,-3,0,-4,-1,-2,-3
1532064099951,-4,-11,-3,3,2,-3,-2,-1
1532064099956,-2,5,2,3,0,1,0,0
1532064099961,1,3,2,0,3,1,2,-1
1532064099966,-3,0,-4,-2,-5,-2,-11,0
1532064099971,-2,-8,-5,-9,-3,-1,7,0
1532064099976,1,6,3,18,2,0,-2,-2
1532064099981,-2,-5,0,-8,-5,-2,0,-3
1532064099986,0,4,1,-10,11,0,2,-1
1532064099991,0,7,3,-1,-4,0,-3,0
1532064099996,-1,-16,-6,-2,-3,-2,-1,0
1532064100001,-1,10,4,5,4,0,0,-2
1532064100006,-1,-15,-3,10,-3,-2,3,0
1532064100011,1,0,-5,-22,-3,-2,-3,-1
1532064100016,0,10,5,13,0,-1,1,1
1532064100021,0,3,0,-2,1,0,-2,-2
1532064100026,0,1,1,8,-2,-2,1,0
1532064100031,0,-2,0,-24,2,0,-1,-3
1532064100036,-4,-14,-3,4,-2,-2,-2,-1
1532064100041,-1,0,-4,-8,-2,-3,-2,-1
1532064100046,0,3,0,6,-4,1,0,-1
1532064100051,2,-4,-1,8,3,-1,2,-1
1532064100056,0,21,4,-6,1,-2,-4,-1
1532064100061,-2,-17,-4,4,-1,0,0,-1
1532064100066,-1,1,1,-4,-2,-1,0,0
1532064100071,-1,-6,-1,7,-4,-2,-3,-1
1532064100076,-2,1,-4,-14,1,0,1,0
1532064100081,1,12,1,5,2,0,0,-1
1532064100086,0,0,-1,2,-10,-2,-1,0
1532064100091,-3,-7,-4,4,1,0,-4,-2
1532064100096,0,-5,-1,5,0,-1,0,-3
1532064100101,1,-1,0,-19,1,-1,0,-2
1532064100106,-2,-1,-1,-1,-4,-1,-1,-1
1532064100111,1,11,0,14,-5,-1,-2,0
1532064100116,-2,-29,-1,-13,4,1,1,-1
1532064100121,-3,3,-2,1,-1,-1,-2,0
1532064100126,1,4,-1,-12,-1,-2,1,-1
1532064100131,0,8,2,1,2,1,1,0
1532064100136,-1,-3,-3,0,-1,0,-2,-1
1532064100141,0,3,0,5,-4,1,0,0
1532064100146,0,0,-1,2,0,0,0,-2
1532064100151,0,0,1,-14,-1,-1,-1,-1
1532064100156,-1,-10,-8,-2,-3,0,0,-1
1532064100161,-1,1,3,4,0,-1,-3,-2
1532064100166,0,5,-3,18,3,0,1,1
1532064100171,-2,-13,-2,-15,-2,-2,-2,0
1532064100176,2,8,3,-1,-2,0,0,-1
1532064100181,-2,-3,-4,-4,-1,-1,-3,0
1532064100186,1,-3,0,-3,-7,-1,-1,-3
1532064100191,-1,2,3,13,12,2,1,-1
1532064100196,-1,0,-5,-14,1,-1,0,0
1532064100201,-1,0,2,4,-1,-1,0,-1
1532064100206,1,1,0,-4,1,0,0,-1
1532064100211,-2,16,1,-11,-5,-1,-2,-1
1532064100216,-1,-17,-2,0,-1,-2,-1,-2
1532064100221,-1,-9,-4,6,1,0,0,1
1532064100226,0,-6,0,-6,1,-2,-1,-1
1532064100231,-1,-5,-3,-8,-6,0,1,-2
1532064100236,-2,18,3,13,2,0,-2,0
1532064100241,1,-2,-2,-6,-3,-2,1,-1
1532064100246,-1,-2,0,-2,1,-1,-2,-1
1532064100251,0,-2,0,3,-1,1,0,-1
1532064100256,0,7,0,-5,-3,-2,-2,0
1532064100261,-2,-7,-5,3,3,-1,-1,0
1532064100266,-2,-6,0,1,5,0,1,-1
1532064100271,0,2,1,7,-7,-1,-1,-1
1532064100276,-1,-12,-3,6,10,0,-3,-1
1532064100281,0,11,2,-3,-3,-2,-2,0
1532064100286,-1,-2,-3,11,-1,0,1,0
1532064100291,-1,-6,-2,-9,-1,-2,-2,-1
1532064100296,0,22,4,-1,-5,0,0,1
1532064100301,-1,-7,-4,-4,-1,0,0,0
1532064100306,-3,-8,-1,2,3,-1,-1,0
1532064100311,1,2,2,7,0,-1,1,0
1532064100316,-1,-1,-1,-6,-4,-1,0,-3
1532064100321,-2,-4,-3,6,-2,-2,-3,0
1532064100326,0,1,0,-10,-1,0,0,-1
1532064100331,-1,-2,-1,3,0,-2,-1,0
1532064100336,0,2,2,0,-4,-2,1,-1
1532064100341,1,1,-1,1,-3,-1,1,0
1532064100346,-2,-2,-3,-1,0,0,-1,-1
1532064100351,-2,-1,0,8,2,0,-1,-2
1532064100356,0,-5,-3,0,-1,-3,-1,-2
1532064100361,1,10,3,0,-6,-1,-1,-1
1532064100366,-1,-13,-2,-6,8,1,0,1
1532064100371,-1,11,-2,-21,-2,-1,-1,-1
1532064100376,-4,-24,-3,10,2,1,0,0
1532064100381,-3,8,-3,-1,-4,-1,-5,-2
1532064100386,1,4,-2,-14,-3,1,-2,0
1532064100391,1,4,0,9,2,-2,-2,1
1532064100396,0,7,1,-6,-4,0,3,-3
1532064100401,1,-2,1,-6,3,2,3,-1
1532064100406,-1,3,-1,10,0,0,-2,-2
1532064100411,-1,-11,-5,-2,-2,-2,-2,-1
1532064100416,1,9,2,6,-4,-2,-2,-1
1532064100421,-1,-14,-3,0,4,0,0,0
1532064100426,-2,3,1,-17,-4,-2,0,0
1532064100431,-3,-10,-5,8,-3,-2,-2,0
1532064100436,-1,3,0,0,0,-1,-3,1
1532064100441,1,2,0,-5,0,0,-1,-1
1532064100446,1,-2,-2,0,1,0,-1,-3
1532064100451,-2,-5,0,-1,-7,0,-1,-2
1532064100456,2,22,5,0,10,2,0,0
1532064100461,-3,-11,-3,-1,0,-2,-3,1
1532064100466,-4,-27,-7,2,-5,-3,-4,-2
1532064100471,-1,2,2,7,2,-1,-2,0
1532064100476,-1,3,0,3,-6,2,-2,0
1532064100481,2,4,-5,-10,-1,-1,2,-1
1532064100486,0,7,1,7,-4,-3,-2,3
1532064100491,-1,-8,-2,11,3,2,2,-1
1532064100496,1,2,2,-24,-4,-2,0,-4
1532064100501,-1,1,-2,-4,1,1,-1,0
1532064100506,0,-1,0,7,-3,1,-2,-1
1532064100511,-1,0,-2,-1,-2,-2,-1,-1
1532064100516,-2,-1,-2,1,-4,-1,-2,0
1532064100521,-2,-12,-3,6,0,-1,0,-3
1532064100526,-1,4,1,-14,-4,-2,-2,-1
1532064100531,-1,15,2,0,3,0,0,0
1532064100536,-1,-14,-1,2,1,0,0,0
1532064100541,-2,-6,-1,2,-1,0,-1,-1
1532064100546,-3,-14,-7,4,0,1,0,-1
1532064100551,-1,-2,1,-5,0,0,-2,-1
1532064100556,-1,2,-2,4,-5,-4,-2,-1
1532064100561,1,16,6,22,-7,-2,-3,-2
1532064100566,1,-1,0,-19,1,-1,0,0
1532064100571,-1,-16,-9,-2,-3,1,0,0
1532064100576,0,2,0,-6,3,-1,0,0
1532064100581,-2,0,1,1,-5,-2,-1,0
1532064100586,0,7,1,-1,0,0,-1,-2
1532064100591,-1,-6,-2,-3,-3,0,-1,-2
1532064100596,1,1,-2,7,2,1,-1,-1
1532064100601,2,-3,2,-4,2,0,2,-1
1532064100606,-1,15,2,4,-1,1,0,-1
1532064100611,0,-11,0,-3,0,-1,-2,-1
1532064100616,0,-10,-4,-3,-6,-2,0,0
1532064100621,-1,2,2,-5,-3,-1,-1,-1
1532064100626,-1,4,1,-2,5,-1,1,1
1532064100631,1,3,3,1,-6,-1,1,1
1532064100636,-3,1,-2,1,-2,-2,-3,-2
1532064100641,1,-3,-3,-7,1,0,-1,-2
1532064100646,1,2,1,10,-3,-1,0,-1
1532064100651,-1,5,-1,-8,0,-1,-1,0
1532064100656,0,1,0,-5,-3,-1,-1,-1
1532064100661,-2,-7,-5,-3,3,-1,-2,0
1532064100666,0,1,3,2,-5,-2,-2,-2
1532064100671,0,-3,-3,16,5,0,-1,-1
1532064100676,-3,9,1,-25,-1,-1,-8,0
1532064100681,-2,-11,-1,4,-2,-1,5,1
1532064100686,3,5,-3,-11,-3,-1,-1,1
1532064100691,0,-9,-2,-2,-1,1,-1,0
1532064100696,0,2,-1,6,2,-1,0,-2
1532064100701,-3,7,0,-4,3,0,-5,2
1532064100706,1,2,-1,-3,-2,0,-1,-3
1532064100711,-1,2,1,-10,-6,-3,-1,-1
1532064100716,0,-7,-3,11,0,-1,-1,-2
1532064100721,0,6,0,4,-2,-1,-4,0
1532064100726,-3,-5,-2,3,2,2,6,-1
1532064100731,4,2,2,18,3,0,3,-1
1532064100736,1,-5,-3,-23,-5,-1,-1,-2
1532064100741,0,1,2,-2,-1,0,1,1
1532064100746,-1,0,-1,-8,-7,0,-4,-1
1532064100751,-1,-2,-1,5,11,1,0,1
1532064100756,-2,3,0,-7,-6,-2,3,0
1532064100761,-1,6,2,13,5,1,1,-2
1532064100766,-4,-28,-9,-3,-4,-2,-5,0
1532064100771,0,1,4,-6,0,-2,-2,-2
1532064100776,-3,-10,-4,6,0,2,0,-2
1532064100781,2,10,4,-5,1,-3,0,-2
1532064100786,-1,-6,-1,5,-1,0,0,-1
1532064100791,-1,5,2,10,-2,-1,0,-1
1532064100796,0,-1,1,-10,-2,-2,-2,2
1532064100801,-1,-3,-1,2,0,4,-2,0
1532064100806,1,6,1,2,0,-3,0,-1
1532064100811,-1,-4,-1,2,-4,-1,-2,-1
1532064100816,1,4,2,7,0,-2,1,1
1532064100821,-1,-4,-1,-6,-7,-2,-1,-1
1532064100826,-1,1,-1,-1,9,0,0,0
1532064100831,2,24,2,-12,-2,-1,-2,1
1532064100836,-4,-18,-1,9,-1,0,2,-1
1532064100841,-2,-15,-8,-17,-4,-3,-1,-2
1532064100846,-1,0,-1,13,-2,1,-4,0
1532064100851,-3,-3,-1,-1,-4,-3,-3,0
1532064100856,2,12,5,6,0,1,-2,0
1532064100861,-1,2,-1,2,0,0,8,1
1532064100866,0,7,1,-8,-3,-1,0,-3
1532064100871,-1,-11,-8,-20,-3,-1,-1,0
1532064100876,-1,-4,-3,-11,0,0,-3,-1
1532064100881,-2,-4,-2,2,-5,0,-5,-1
1532064100886,1,3,3,14,0,0,1,1
1532064100891,-1,-3,-2,-9,0,-1,-4,-3
1532064100896,-1,-2,0,-4,2,1,-3,0
1532064100901,0,-1,0,3,1,-2,0,-2
1532064100906,-2,13,1,-4,-1,-1,-1,0
1532064100911,-3,-30,-5,0,-5,-1,-1,-3
1532064100916,0,2,-2,5,1,0,1,-1
1532064100921,1,14,1,-3,0,1,-1,2
1532064100926,-1,-23,1,-3,-4,-2,3,-1
1532064100931,-3,-1,-7,5,5,1,0,-2
1532064100936,-2,-2,0,1,-1,-2,-1,0
1532064100941,0,2,-1,5,-1,2,-2,-2
1532064100946,-1,9,2,-21,3,-2,-1,1
1532064100951,-1,-4,-3,-4,-6,0,2,0
1532064100956,-1,-1,0,11,2,0,0,-1
1532064100961,0,3,3,7,1,-1,-2,0
1532064100966,2,-3,-4,4,-1,0,1,-2
1532064100971,-3,1,1,-5,1,-1,5,0
1532064100976,0,7,0,8,-3,-2,-3,-1
1532064100981,-1,-21,-4,-3,0,-3,3,-2
1532064100986,0,4,-2,-10,0,-2,-5,-2
1532064100991,-1,8,-1,-4,-4,0,-4,0
1532064100996,0,-10,0,-1,-1,-1,1,-2
1532064101001,-2,8,-1,-3,-12,-2,-3,-3
1532064101006,-2,-6,-1,6,7,1,0,0
1532064101011,0,5,3,3,2,0,0,-2
1532064101016,1,14,-1,-4,0,-1,-1,0
1532064101021,-4,-24,-5,-9,-3,-2,-2,0
1532064101026,-1,2,-1,7,-5,1,-2,-1
1532064101031,0,11,0,7,-1,-1,-1,-1
1532064101036,-1,-5,1,11,-4,1,-3,0
1532064101041,2,5,-2,-2,3,-2,-1,-1
1532064101046,0,1,0,-6,-4,0,0,-1
1532064101051,0,-2,3,7,2,0,1,1
1532064101056,0,4,0,0,-1,-1,1,0
1532064101061,0,-7,-1,-3,2,-1,1,-1
1532064101066,-1,-3,0,2,-6,1,0,-1
1532064101071,0,1,-1,-2,6,-1,-1,-1
1532064101076,-1,0,-2,-1,-2,-1,-1,0
1532064101081,0,7,0,-4,2,0,-1,0
1532064101086,-3,-6,-3,-3,-5,-3,-2,1
1532064101091,1,5,1,4,-1,0,-2,-1
1532064101096,1,4,-1,-3,0,-1,0,-1
1532064101101,-2,-12,-3,-2,-1,0,1,-1
1532064101106,-1,-4,-4,6,2,-1,-3,-2
1532064101111,-1,-1,-1,-8,-3,-1,-1,0
1532064101116,-3,-6,-2,2,2,-1,-2,-1
1532064101121,-1,15,8,-4,-1,0,0,-2
1532064101126,-2,-16,-5,1,0,-3,-2,-3
1532064101131,-1,-6,-2,1,-3,-1,-1,1
1532064101136,-1,-2,-1,6,-4,0,0,1
1532064101141,1,12,1,-6,4,-1,-1,-2
1532064101146,0,-9,-3,7,-1,0,0,-2
1532064101151,-1,-3,-2,-6,-1,-2,-1,-3
1532064101156,-1,-1,-1,-6,-2,-2,-2,0
1532064101161,-1,-6,-2,9,-7,-1,-1,1
1532064101166,0,10,2,-7,4,1,1,-1
1532064101171,0,6,2,4,-2,0,1,-2
1532064101176,-1,-20,-8,-2,0,-1,0,-1
1532064101181,-2,-4,0,2,-3,-2,-4,-3
1532064101186,2,7,4,21,1,-1,0,0
1532064101191,-2,1,-2,-45,-3,-1,-1,-1
1532064101196,-1,8,2,5,0,0,0,0
1532064101201,2,7,-1,0,2,0,0,-1
1532064101206,-1,-8,-4,6,0,-1,-2,2
1532064101211,-1,-4,2,15,0,-1,-1,-2
1532064101216,-1,1,-7,-14,-3,-2,-1,0
1532064101221,0,0,1,0,1,-3,-1,-1
1532064101226,0,10,2,-7,-2,1,-1,-1
1532064101231,0,0,-3,7,1,0,-1,1
1532064101236,1,-6,-1,-6,-2,1,-2,-1
1532064101241,0,8,-1,-1,-1,-2,0,-1
1532064101246,-1,-1,2,-1,1,1,-1,0
1532064101251,-1,-18,-1,17,-1,-1,-1,0
1532064101256,-3,1,-1,-32,-1,0,0,-1
1532064101261,-2,-5,-1,2,0,-1,-3,-1
1532064101266,-1,2,0,-7,-9,-1,-1,0
1532064101271,-1,3,-2,1,8,-1,0,-1
1532064101276,1,-2,2,3,-1,-1,-1,-1
1532064101281,0,-5,-2,5,0,0,0,0
1532064101286,-2,1,-2,-14,0,-2,-4,-1
1532064101291,0,8,2,-8,-4,-2,0,1
1532064101296,0,-7,-2,23,-2,0,0,-1
1532064101301,-1,10,0,-11,1,-2,-2,-1
1532064101306,-1,-11,-5,4,-1,-1,-1,-2
1532064101311,0,5,0,3,-5,0,0,-1
1532064101316,-1,-10,-3,5,3,0,-1,-2
1532064101321,2,15,3,6,-1,1,0,1
1532064101326,1,-1,-1,-18,-1,0,2,0
1532064101331,-4,-14,-4,-1,-1,-1,-2,-2
1532064101336,0,8,4,2,1,-3,-1,0
1532064101341,-1,-5,0,5,1,1,1,-1
1532064101346,0,8,0,-1,0,-1,-1,0
1532064101351,0,2,-1,-4,-2,0,0,-1
1532064101356,0,-1,-2,0,-4,-4,-2,-1
1532064101361,-2,-6,0,-2,2,-2,0,-1
1532064101366,-1,10,2,0,-9,0,1,0
1532064101371,1,-14,-4,-4,7,1,-2,0
1532064101376,-3,-3,-2,2,2,-1,-1,-1
1532064101381,1,9,1,-6,-3,-1,-2,0
1532064101386,-2,-22,-4,10,2,-1,0,-2
1532064101391,-2,9,4,-12,-3,-2,-3,-2
1532064101396,-1,4,3,22,0,-1,-1,-1
1532064101401,-4,-20,-4,-19,-3,-1,-3,-2
1532064101406,2,11,3,-1,3,0,1,-1
1532064101411,2,15,2,0,-1,0,2,-1
1532064101416,-1,-21,-8,-1,-1,1,1,0
1532064101421,0,12,3,5,-2,0,0,0
1532064101426,0,2,-3,-1,0,-1,-1,-1
1532064101431,-1,-11,0,8,0,-1,-1,-2
1532064101436,-2,14,4,-6,0,-2,-2,0
1532064101441,-4,-24,-7,1,1,-2,0,-1
1532064101446,0,17,2,0,-4,-2,-1,1
1532064101451,-3,-11,-2,-7,-1,-1,0,0
1532064101456,2,5,2,-1,-2,1,-1,-2
1532064101461,-1,7,-1,12,1,0,-2,-2
1532064101466,0,-4,1,-20,-1,-3,-1,-1
1532064101471,-3,1,-2,3,-8,-2,-4,1
1532064101476,-1,-11,-4,-5,2,1,-1,-1
1532064101481,-1,-2,-1,-2,-2,1,-2,0
1532064101486,0,5,0,0,2,0,1,-1
1532064101491,1,19,4,9,0,0,-1,-1
1532064101496,-2,-19,-2,-9,0,-1,-1,0
1532064101501,-2,-2,-2,3,0,-1,-2,0
1532064101506,-2,-7,0,11,-3,0,-3,0
1532064101511,-1,-12,-6,-10,3,-1,0,-2
1532064101516,-1,19,4,9,0,1,0,0
1532064101521,-2,-22,-6,-19,-2,0,1,0
1532064101526,2,9,2,2,2,-1,-10,-2
1532064101531,-1,-3,3,8,-9,0,9,2
1532064101536,-2,-8,-9,-4,-2,-1,-4,-2
1532064101541,1,-2,0,0,-4,-2,1,-2
1532064101546,-2,3,-2,-7,1,-1,0,-1
1532064101551,2,6,1,2,2,0,-3,-2
1532064101556,0,-9,-1,0,0,0,1,0
1532064101561,-1,4,2,6,1,-2,1,-1
1532064101566,-1,0,-1,-4,-1,-1,-1,-2
1532064101571,-3,-17,-5,2,-2,-2,-3,-2
1532064101576,-1,5,2,0,-1,-1,0,-2
1532064101581,-1,3,-2,-2,0,0,-2,-1
1532064101586,0,0,1,7,3,2,3,-1
1532064101591,1,5,0,-1,-3,-2,0,-2
1532064101596,-1,-1,1,0,-1,-1,-2,0
1532064101601,-1,-13,-6,3,-2,-1,-4,0
1532064101606,-1,3,1,-9,-1,-2,-1,0
1532064101611,1,7,1,8,-1,0,-1,0
1532064101616,2,10,3,-5,-3,-1,2,-2
1532064101621,0,1,1,-1,1,1,2,0
1532064101626,-5,-37,-11,9,-1,0,-1,0
1532064101631,0,11,-2,-7,3,-1,-2,-1
1532064101636,0,1,1,4,-1,-2,-1,-1
1532064101641,1,14,1,-3,-2,-2,-1,0
1532064101646,0,-2,-3,-2,0,-3,0,1
1532064101651,-2,-3,-1,-1,-4,-2,-3,0
1532064101656,0,8,0,-5,0,0,0,-1
1532064101661,-3,-9,-1,10,0,-2,-1,-3
1532064101666,0,-2,-1,-3,-4,-1,1,0
1532064101671,-2,3,1,15,3,0,-1,-1
1532064101676,-1,0,0,-26,-3,-2,0,0
1532064101681,-2,-4,0,-7,1,-1,-3,0
1532064101686,-3,-4,-4,1,0,-1,1,-1
1532064101691,-1,-2,0,-2,-2,-1,-2,-1
1532064101696,1,4,0,0,2,1,-1,-2
1532064101701,0,-13,-3,0,-3,0,-1,-2
1532064101706,-1,10,3,-12,-1,0,-1,0
1532064101711,-2,-9,-3,-8,-2,-1,-2,0
1532064101716,0,13,-2,-7,0,1,1,1
1532064101721,-2,-17,-3,0,-2,2,0,0
1532064101726,-3,-5,0,6,1,-1,-1,-3
1532064101731,-1,1,-2,-6,-4,-3,-3,0
1532064101736,0,5,1,4,-4,-3,-1,-1
1532064101741,-1,6,-2,-2,4,0,0,-2
1532064101746,0,1,-1,-5,-2,-2,-1,-1
1532064101751,0,-5,0,5,2,0,0,-2
1532064101756,0,-4,-3,6,-1,-1,-3,-1
1532064101761,2,16,5,-15,2,1,3,0
1532064101766,-3,-11,-9,6,-3,-1,-4,-1
1532064101771,0,8,1,-6,-2,0,-1,0
1532064101776,-1,-13,0,3,1,-2,0,-1
1532064101781,0,2,-2,5,0,-1,-2,-2
1532064101786,0,-3,2,0,-6,0,0,-2
1532064101791,1,2,0,-1,9,1,1,-1
1532064101796,-3,-12,-1,-1,-3,-1,-2,-1
1532064101801,-1,9,-2,-1,-3,-1,-2,1
1532064101806,2,6,0,-4,-1,0,-1,1
1532064101811,0,-1,-2,2,-3,-1,0,-1
1532064101816,-1,3,1,4,-1,0,0,0
1532064101821,-1,-6,-2,0,-2,-1,0,2
1532064101826,0,2,1,0,5,1,-1,-2
1532064101831,-1,-6,1,-4,-2,-1,1,-1
1532064101836,0,6,-3,12,0,0,-1,0
1532064101841,-1,-7,1,-32,-6,-1,0,0
1532064101846,-4,0,0,12,2,0,-2,0
1532064101851,-1,-11,-5,1,0,-1,0,0
1532064101856,-4,-19,1,0,1,0,1,-1
1532064101861,-3,14,4,-1,1,-1,-3,-1
1532064101866,0,9,4,-1,-1,-2,0,-1
1532064101871,-1,1,2,-7,-7,0,0,0
1532064101876,0,-1,-3,-3,-2,0,0,-1
1532064101881,0,-8,-3,16,6,-1,-2,-1
1532064101886,2,-1,1,-13,2,-1,-1,-1
1532064101891,0,8,0,3,-2,0,-1,-1
1532064101896,-1,-5,0,-6,-2,-1,-1,0
1532064101901,-1,-8,-6,4,0,0,-3,-2
1532064101906,1,7,-1,-1,-1,-3,0,0
1532064101911,-2,-5,1,14,1,-2,-1,-2
1532064101916,0,11,-1,-15,-5,-2,-2,0
1532064101921,-1,2,2,8,-1,-1,0,0
1532064101926,-1,0,1,-4,-2,-1,1,-2
1532064101931,-1,-18,-3,0,-2,0,0,0
1532064101936,0,-1,2,7,3,1,1,0
1532064101941,0,7,0,-3,-1,-2,1,-1
1532064101946,0,9,0,-3,-10,-2,-2,2
1532064101951,0,-5,-1,-5,4,1,1,0
1532064101956,-1,-4,-5,2,2,0,-1,-1
1532064101961,-1,-3,0,5,-3,0,-2,-3
1532064101966,-1,-4,-2,3,4,3,0,0
1532064101971,0,6,-2,-8,-3,-2,-2,-2
1532064101976,1,3,2,10,-1,-1,0,0
1532064101981,-2,-5,-7,-12,-3,0,-1,0
1532064101986,-2,-13,2,8,1,-1,-1,-1
1532064101991,-1,2,-3,-5,-2,0,-3,0
1532064101996,-1,-17,-4,0,0,-1,-1,-1
1532064102001,1,5,2,2,-4,-1,-1,0
1532064102006,0,2,0,7,-1,-1,-1,0
1532064102011,-3,-3,-5,-19,-1,-1,-2,-2
1532064102016,0,15,1,6,-6,1,0,0
1532064102021,0,-6,4,4,9,1,1,-1
1532064102026,-1,-15,-3,-11,5,0,0,-3
1532064102031,-4,-7,-2,13,-3,-2,-1,0
1532064102036,-3,3,-3,-14,1,0,-2,0
1532064102041,1,9,2,5,-4,-3,-1,-2
1532064102046,4,18,4,6,3,-1,1,0
1532064102051,-3,-16,-10,-13,-7,-2,-2,1
1532064102056,1,-1,0,-4,-1,-1,0,-2
1532064102061,-2,0,1,-6,-3,-2,-1,-1
1532064102066,1,2,-3,-6,3,0,-1,0
1532064102071,2,4,6,5,1,0,2,-1
1532064102076,-5,-4,-5,-5,0,-1,-3,-3
1532064102081,-13,-7,-6,-9,-1,0,0,-9
1532064102086,-5,-22,-6,7,-1,-2,-3,-5
1532064102091,4,11,1,-1,0,-1,0,1
1532064102096,1,9,3,-2,-10,-1,1,-3
1532064102101,-1,-9,3,13,8,0,-1,0
1532064102106,-4,-7,-5,-17,0,-1,-4,-2
1532064102111,1,7,1,-6,0,0,-1,-1
1532064102116,2,7,2,-10,1,0,0,2
1532064102121,-1,-9,-1,27,2,1,-1,-1
1532064102126,-4,-10,-1,-28,-4,-1,-2,-2
1532064102131,1,0,-2,16,-1,-1,0,2
1532064102136,-1,-1,-1,2,-2,-4,-1,-2
1532064102141,0,8,0,-35,-3,0,1,0
1532064102146,-3,-4,0,23,0,-1,-2,-2
1532064102151,-1,-11,-2,-7,-2,-2,-4,2
1532064102156,-1,6,0,-7,-3,0,0,0
1532064102161,0,3,2,4,3,-1,-1,-3
1532064102166,0,-8,-2,3,-7,-2,-1,-3
1532064102171,2,19,0,-7,3,-1,-1,0
1532064102176,-3,-14,-3,-4,1,-1,-1,1
1532064102181,-2,-14,-2,8,-2,1,0,-2
1532064102186,-1,6,3,10,-2,-2,-2,-2
1532064102191,1,-3,1,3,-2,1,-2,-1
1532064102196,2,5,-1,-3,-1,-2,-2,0
1532064102201,0,12,4,1,-3,-2,0,1
1532064102206,1,-7,-6,17,2,0,0,-1
1532064102211,-2,-10,1,-15,-3,0,1,-2
1532064102216,-2,-12,-5,-13,0,0,-3,0
1532064102221,-3,3,3,4,-2,-1,-3,-2
1532064102226,1,0,-1,2,0,-2,1,-1
1532064102231,0,2,2,10,3,-1,-1,-2
1532064102236,1,4,-1,-8,-11,-1,-1,-1
1532064102241,0,8,1,11,6,-1,1,-1
1532064102246,-1,-15,-1,-11,2,0,0,0
1532064102251,-1,2,-5,2,0,0,-2,-1
1532064102256,0,11,4,-1,-2,-2,1,0
1532064102261,-2,-14,-7,18,-3,-1,-1,-1
1532064102266,-3,2,1,-22,0,-2,-1,-1
1532064102271,0,-3,2,-7,-2,-1,-2,0
1532064102276,0,10,1,7,1,0,-1,-2
1532064102281,0,-6,1,3,-1,-1,-1,1
1532064102286,-1,-6,-2,-6,4,1,2,-2
1532064102291,0,2,-1,4,-5,-2,-2,-1
1532064102296,-1,-3,-1,-3,4,0,0,-2
1532064102301,0,10,2,-13,-3,1,-1,-1
1532064102306,0,-6,1,3,-3,-1,-1,-1
1532064102311,-2,-7,-1,3,1,-1,-1,-1
1532064102316,-2,-12,-3,-1,-2,-2,-1,0
1532064102321,1,19,2,2,-1,-2,0,1
1532064102326,-3,-20,-7,-31,-1,-1,-2,0
1532064102331,-1,9,-2,16,-5,-1,-2,0
1532064102336,0,-8,-5,-13,6,0,1,-2
1532064102341,-1,-2,3,8,-2,-1,-2,0
1532064102346,3,20,4,4,0,-2,0,-1
1532064102351,1,-14,-2,-2,1,-3,0,-3
1532064102356,-1,1,2,-9,-1,-1,1,-4
1532064102361,1,8,-4,-6,-4,0,-2,0
1532064102366,-1,-8,-1,6,1,-1,-3,0
1532064102371,0,4,1,-3,-2,0,-1,1
1532064102376,1,1,2,12,1,1,-2,-1
1532064102381,0,7,1,21,2,0,-1,-2
1532064102386,-1,-2,-3,-38,-2,0,-1,0
1532064102391,-1,-3,-3,4,-1,0,1,0
1532064102396,-2,-10,-3,-19,-3,-1,-2,0
1532064102401,-2,-2,-2,16,0,-1,-1,-3
1532064102406,1,8,2,15,-1,0,-2,0
1532064102411,1,2,0,0,-4,1,0,0
1532064102416,0,8,2,7,3,0,-1,2
1532064102421,-1,-6,-1,-11,0,-2,-1,-2
1532064102426,-3,-21,-7,1,-8,-2,-1,-2
1532064102431,-1,-1,-1,-10,5,-2,-2,-1
1532064102436,-1,0,-1,9,-6,-1,-1,0
1532064102441,3,13,2,-10,2,-1,-1,1
1532064102446,-1,0,5,12,0,-2,-1,1
1532064102451,-1,7,-1,-7,1,-2,0,-2
1532064102456,-4,-8,-5,4,-6,-2,-3,-1
1532064102461,-2,-9,-2,-7,-3,-2,-1,-1
1532064102466,0,14,3,2,-2,-1,-2,0
1532064102471,0,4,0,11,1,-1,1,0
1532064102476,-2,-7,0,-2,1,-1,0,-1
1532064102481,-2,3,1,-2,-3,-1,0,-1
1532064102486,1,7,-4,1,0,-1,0,1
1532064102491,-2,-15,-1,0,-2,-2,0,0
1532064102496,-1,3,-2,0,1,-1,-1,-2
1532064102501,0,-11,0,-7,-4,-2,-1,0
1532064102506,0,10,3,3,3,0,1,-2
1532064102511,-2,-18,-10,6,-2,-3,-1,-1
1532064102516,0,-2,2,-18,2,0,0,-1
1532064102521,-5,-10,-7,-16,-7,-2,-3,1
1532064102526,1,10,3,6,-1,0,-3,0
1532064102531,-1,-5,-1,-23,-3,-1,-1,0
1532064102536,0,3,3,13,-7,-3,-1,-1
1532064102541,1,2,1,1,1,0,2,-2
1532064102546,-2,3,-2,-4,3,-1,-1,-1
1532064102551,2,15,2,5,1,0,-1,0
1532064102556,-2,-29,-5,-1,0,0,-1,-3
1532064102561,0,-4,-4,-6,-3,-2,-4,-2
1532064102566,0,-5,-1,9,-7,1,0,0
1532064102571,1,-6,1,6,12,1,0,0
1532064102576,-4,-2,-8,-8,-4,-2,-3,-1
1532064102581,-1,5,-1,-7,0,0,0,0
1532064102586,-2,-8,0,6,-3,-2,-1,-1
1532064102591,0,13,3,13,-5,-2,-1,0
1532064102596,-3,-10,-2,-15,-1,0,0,0
1532064102601,-2,-16,-5,-7,1,-1,-1,-3
1532064102606,1,10,3,11,3,0,1,-2
1532064102611,0,2,-4,-4,-6,-1,2,-1
1532064102616,1,13,3,10,4,-1,0,0
1532064102621,-3,-23,-1,3,0,0,0,-1
1532064102626,-3,-3,-2,3,-4,-3,-7,-3
1532064102631,0,4,4,-5,-2,-1,-2,-1
1532064102636,5,14,5,12,-1,1,-2,0
1532064102641,0,-3,-8,-12,-6,-2,0,-2
1532064102646,1,9,4,-7,1,0,-1,1
1532064102651,-1,-12,-9,8,-5,-2,-3,-1
1532064102656,-6,-18,-3,-41,0,-3,-2,-4
1532064102661,1,14,1,21,2,-1,1,-1
1532064102666,1,5,-2,-9,3,-1,2,2
1532064102671,-3,-6,-1,2,-4,0,-1,0
1532064102676,2,11,0,4,-5,-2,-1,0
1532064102681,4,33,9,13,4,0,-1,2
1532064102686,-3,-21,-3,-18,-1,-1,0,-4
1532064102691,-4,4,3,-12,-8,-2,-4,-3
1532064102696,0,-7,-10,27,11,1,1,-2
1532064102701,-5,-12,-5,-30,-16,-1,-2,-1
1532064102706,5,36,5,11,14,1,2,0
1532064102711,0,-11,7,-3,1,0,0,1
1532064102716,-1,-14,-10,9,8,-2,-3,-4
1532064102721,1,12,6,12,-17,3,1,1
1532064102726,-4,-16,-9,-22,-2,-2,0,0
1532064102731,1,7,2,-6,-5,-1,0,1
1532064102736,0,10,-1,-21,-8,-3,1,1
1532064102741,-2,-2,1,6,8,-2,-1,-2
1532064102746,-1,1,0,7,-6,-2,0,-2
1532064102751,0,-2,-2,0,5,-1,-2,-1
1532064102756,6,42,11,4,5,1,-2,2
1532064102761,-6,-47,-8,-3,1,0,1,-1
1532064102766,-5,-10,-3,-11,4,0,-1,-5
1532064102771,-1,4,-6,-8,-5,-2,-2,0
1532064102776,-1,-4,-5,-6,-8,-1,-2,-1
1532064102781,2,19,0,-5,-3,-3,-3,-1
1532064102786,0,-12,1,9,-2,-2,0,1
1532064102791,1,5,1,-4,0,1,2,-2
1532064102796,0,19,7,8,-8,-2,0,0
1532064102801,-1,-11,0,4,14,1,-2,0
1532064102806,1,7,1,5,-1,-1,-1,2
1532064102811,-1,2,4,-6,3,-1,0,-1
1532064102816,-5,-39,-7,2,-10,-1,-2,-2
1532064102821,-1,-2,1,-3,0,-3,-1,-1
1532064102826,1,20,-1,15,2,0,0,1
1532064102831,-3,-27,0,5,9,2,-1,-3
1532064102836,-1,6,6,-4,-20,-1,0,1
1532064102841,0,1,-2,-12,1,-2,0,-2
1532064102846,-4,-22,-10,-8,-12,0,-4,0
1532064102851,5,45,4,16,2,-1,-1,1
1532064102856,-5,-30,1,-8,7,1,1,0
1532064102861,-5,-17,-8,0,-3,0,-4,-4
1532064102866,2,11,5,9,-1,0,0,0
1532064102871,-2,1,-8,-11,0,-2,0,-2
1532064102876,1,9,7,14,8,1,0,-2
1532064102881,2,4,-1,-15,-1,-1,2,1
1532064102886,-3,-5,-3,11,-9,-4,-3,-1
1532064102891,1,10,2,6,1,0,-1,2
1532064102896,-4,-14,-7,19,5,0,0,-1
1532064102901,-3,14,4,-14,1,-1,-3,-1
1532064102906,1,-4,-4,-20,1,-1,2,-1
1532064102911,-6,-25,-7,5,-12,-3,-2,-2
1532064102916,4,19,5,7,2,1,0,1
1532064102921,2,3,-3,7,0,-1,0,1
1532064102926,-4,-12,-2,-15,0,-1,1,-3
1532064102931,-4,-3,-2,2,-4,-2,-2,-3
1532064102936,0,5,2,-2,4,2,-1,-2
1532064102941,3,9,3,25,3,-2,0,0
1532064102946,2,6,1,-24,-9,-1,-2,2
1532064102951,-3,-12,-1,-35,2,-2,-1,-5
1532064102956,0,5,-1,-7,0,-1,1,-1
1532064102961,-4,-3,2,12,-7,-2,-2,0
1532064102966,-2,-6,-3,4,0,-1,-3,-1
1532064102971,1,8,-3,-9,7,2,1,1
1532064102976,0,-1,6,44,-4,-3,0,-2
1532064102981,-3,3,-5,-40,6,-2,-4,-1
1532064102986,-4,-31,-3,17,3,4,2,-2
1532064102991,0,3,0,-9,-7,-2,-2,-1
1532064102996,0,10,4,-25,-3,-1,-1,1
1532064103001,0,9,3,54,3,0,-1,2
1532064103006,-3,-26,-6,-10,-4,-3,0,-3
1532064103011,0,21,0,-20,3,1,-2,-1
1532064103016,4,-1,-5,12,3,-1,5,1
1532064103021,-1,5,-11,-53,-11,-4,-2,-5
1532064103026,-2,-13,2,47,18,1,-3,-1
1532064103031,0,-12,-1,-20,-10,-1,1,0
1532064103036,0,8,-3,-36,-2,1,0,1
1532064103041,0,17,7,35,-1,1,-4,3
1532064103046,3,-2,0,6,-3,-2,-1,1
1532064103051,3,17,1,15,2,0,0,0
1532064103056,-3,-40,-7,-12,12,2,3,-4
1532064103061,-4,25,5,-44,-15,-2,-5,-2
1532064103066,-6,-34,-16,26,-1,-2,-1,-4
1532064103071,-3,-1,-2,-8,-2,-3,-3,-1
1532064103076,-2,12,0,11,-3,-4,-4,-2
1532064103081,1,-25,-3,15,5,3,6,-2
1532064103086,1,19,2,-33,3,-1,-1,1
1532064103091,-1,-11,-1,90,1,1,-3,1
1532064103096,-3,10,-1,-29,0,-1,-5,1
1532064103101,2,7,4,-3,2,3,3,0
1532064103106,0,2,-5,-53,-8,-3,0,-5
1532064103111,0,-5,2,-23,4,-2,1,-3
1532064103116,-4,17,3,43,-1,0,-3,0
1532064103121,-1,-36,-7,12,0,-1,0,-2
1532064103126,1,6,1,-17,1,0,2,1
1532064103131,-5,-26,-5,10,-7,-2,-1,0
1532064103136,0,3,-1,-9,1,0,-2,1
1532064103141,-1,4,0,3,1,-2,-1,-2
1532064103146,3,28,8,9,3,2,1,-2
1532064103151,2,-5,-3,-24,-6,1,5,1
1532064103156,-5,-12,-2,29,1,-3,-4,0
1532064103161,0,5,3,16,2,-2,-4,1
1532064103166,0,-7,3,4,-3,1,3,-1
1532064103171,-2,-2,-10,-50,-4,-2,-4,-5
1532064103176,-1,0,1,16,-1,-3,-5,-3
1532064103181,0,-19,-7,-34,-3,-1,-1,1
1532064103186,0,12,7,43,-3,-4,-2,1
1532064103191,0,-10,3,-26,0,-1,1,-3
1532064103196,-2,5,-3,34,-1,0,1,-2
1532064103201,-3,-15,-4,3,0,-2,1,-3
1532064103206,-2,4,-1,-18,-3,-2,-3,0
1532064103211,-1,-3,3,6,3,1,0,-1
1532064103216,-3,-5,-7,-13,-9,-6,-6,-3
1532064103221,3,20,10,10,-1,-1,3,0
1532064103226,5,-7,-5,-7,3,0,0,-1
1532064103231,-1,10,-6,14,0,-1,-1,4
1532064103236,-3,-21,-4,-45,-7,-1,-1,-7
1532064103241,-3,5,3,6,0,-2,0,-3
1532064103246,-1,7,1,-3,-4,-1,-2,0
1532064103251,3,-4,4,20,5,0,3,2
1532064103256,1,2,-1,-11,-2,1,3,6
1532064103261,-2,-4,-3,-15,6,1,-6,-7
1532064103266,0,5,-1,-6,1,-1,0,-2
1532064103271,-3,2,2,46,-5,-1,-5,0
1532064103276,2,21,-1,-27,-8,0,0,0
1532064103281,0,-47,-11,-7,-1,-1,3,1
1532064103286,-4,2,1,-15,-2,-3,-4,-2
1532064103291,0,10,4,14,2,1,1,-1
1532064103296,2,-1,5,0,-1,-1,2,-2
1532064103301,2,29,5,-1,3,0,0,4
1532064103306,-1,-14,-2,35,-3,-1,-3,0
1532064103311,-4,-13,-8,-19,-1,-3,-4,-2
1532064103316,0,-2,0,15,-2,-1,-2,1
1532064103321,2,7,-3,-3,2,-1,1,0
1532064103326,-2,2,1,6,0,1,-3,0
1532064103331,0,5,-1,19,-3,-2,0,-2
1532064103336,1,-8,-3,-1,6,1,2,-3
1532064103341,-4,-2,1,-15,-5,-1,-3,-1
1532064103346,-1,8,0,23,3,2,-2,3
1532064103351,3,14,0,-78,-1,0,0,0
1532064103356,-2,-19,-5,22,-8,-4,-4,-1
1532064103361,-4,0,1,4,-3,-2,-2,-2
1532064103366,-2,-4,-4,23,-3,-2,-2,-1
1532064103371,2,20,6,2,3,-1,0,-2
1532064103376,-3,-23,-5,-8,-4,-1,0,-2
1532064103381,-1,9,0,14,5,0,0,1
1532064103386,-1,-7,-1,-10,-2,-1,-1,-2
1532064103391,-3,0,3,18,1,-2,-2,-1
1532064103396,1,7,3,-9,-4,0,1,0
1532064103401,1,5,0,10,1,1,1,2
1532064103406,-2,-13,-3,-15,0,-1,0,-3
1532064103411,-2,-6,-2,3,-4,-1,-1,0
1532064103416,4,30,6,6,6,-1,-2,-1
1532064103421,-1,-29,-1,17,0,-1,0,-2
1532064103426,-3,0,-3,-14,3,0,-1,0
1532064103431,-5,-3,-6,-13,-8,0,-4,-2
1532064103436,-4,-10,-2,12,8,-1,-1,-2
1532064103441,3,24,5,11,-3,-1,1,0
1532064103446,1,4,4,-5,0,-1,0,0
1532064103451,0,-5,-1,16,1,-1,0,-1
1532064103456,2,17,0,-28,-4,0,0,-1
1532064103461,-4,-23,-6,-24,-6,-2,-2,0
1532064103466,1,29,10,-4,-1,-1,0,1
1532064103471,-4,-27,0,5,-6,-1,-1,-1
1532064103476,-7,-13,-8,-4,-1,-1,0,-3
1532064103481,1,4,3,-4,2,0,1,-2
1532064103486,1,20,-1,-9,-9,-6,-2,-1
1532064103491,2,2,2,7,-2,-2,-1,1
1532064103496,0,-25,-3,1,10,1,0,1
1532064103501,-3,3,-7,-48,-16,-4,-3,-2
1532064103506,0,-3,0,13,9,1,0,0
1532064103511,-2,-12,-4,-19,-12,-1,0,-1
1532064103516,1,2,6,3,8,0,-1,0
1532064103521,0,4,4,10,3,0,-2,0
1532064103526,-1,-7,-12,9,-5,-1,0,-1
1532064103531,-1,-19,2,7,4,-1,-2,-1
1532064103536,-4,3,-3,-14,-4,-4,-3,-2
1532064103541,0,5,0,8,-3,3,1,-2
1532064103546,1,8,2,-11,-4,-2,-2,1
1532064103551,-2,-3,-3,10,2,1,-3,0
1532064103556,-2,-17,-3,8,3,0,1,0
1532064103561,-1,13,3,-5,4,-2,-3,0
1532064103566,-3,-17,1,13,-5,-2,0,-3
1532064103571,-3,6,-11,21,4,-2,-3,-4
1532064103576,1,15,-4,-70,-13,-3,-2,0
1532064103581,0,11,-2,5,-5,-2,1,1
1532064103586,-5,-42,-11,-6,-4,1,0,-2
1532064103591,3,10,5,14,16,1,1,-2
1532064103596,2,12,4,14,-4,1,3,0
1532064103601,-2,-16,-6,8,-7,-2,-3,-1
1532064103606,4,36,6,-16,7,-1,2,-1
1532064103611,-1,-18,1,-2,2,0,1,1
1532064103616,-3,-13,-2,4,-9,-2,-2,-1
1532064103621,-4,-14,-5,1,5,0,-1,-3
1532064103626,2,1,1,5,-6,0,-2,2
1532064103631,1,14,2,-10,5,-1,-1,-1
1532064103636,3,20,9,5,-5,0,0,1
1532064103641,-2,-21,-8,18,5,1,1,1
1532064103646,-4,2,1,-42,-12,-5,-4,-4
1532064103651,0,9,3,-3,-1,-1,-2,0
1532064103656,1,9,1,10,-1,-1,-2,-1
1532064103661,0,-10,6,11,5,-1,1,1
1532064103666,-7,-36,-12,5,5,0,0,-3
1532064103671,0,10,-2,-7,2,-2,-1,-1
1532064103676,1,-1,2,15,-13,2,3,0
1532064103681,0,-1,-1,-2,0,0,-1,-2
1532064103686,2,14,4,-3,2,2,-2,1
1532064103691,-4,-9,-5,-8,-10,-4,-2,-1
1532064103696,0,-12,-3,12,12,-3,-1,-2
1532064103701,1,14,3,-10,-5,-1,0,-1
1532064103706,0,-4,1,-3,-3,1,0,1
1532064103711,2,8,-3,8,3,2,0,-1
1532064103716,-1,6,8,2,-2,-3,-3,1
1532064103721,-5,-36,-11,1,-7,-4,-3,-3
1532064103726,-1,4,-5,-9,2,-2,-2,0
1532064103731,0,-10,3,10,-3,-1,0,0
1532064103736,-3,-3,-8,4,2,-2,-2,-3
1532064103741,4,15,4,-3,6,-1,-1,-1
1532064103746,1,11,6,20,-7,0,1,-1
1532064103751,-1,4,-5,-16,-3,0,1,1
1532064103756,-4,-15,-7,-5,-5,0,-2,-3
1532064103761,-1,-15,2,9,-1,-1,0,-1
1532064103766,2,12,4,2,2,2,0,1
1532064103771,-2,-12,-8,-13,-3,-2,-2,-2
1532064103776,2,-1,3,-1,3,0,-1,0
1532064103781,-1,8,1,-3,-1,-1,-1,0
1532064103786,-3,-6,-4,-3,3,-1,-1,-2
1532064103791,-1,2,-1,-6,-6,-3,-2,0
1532064103796,-5,-16,-10,-24,-3,-2,-2,-2
1532064103801,-1,14,-4,-2,-6,-1,-1,0
1532064103806,1,8,7,14,8,-2,3,0
1532064103811,-2,-12,-4,-4,8,2,1,0
1532064103816,-4,-6,-5,2,-2,-1,-1,-3
1532064103821,0,23,3,-9,-2,-1,-1,1
1532064103826,2,-10,0,14,2,-2,-2,-1
1532064103831,-2,4,2,-3,-10,-2,0,-2
1532064103836,1,-5,-2,-7,-15,1,0,2
1532064103841,0,9,2,24,-6,-2,0,-1
1532064103846,1,-2,-1,-16,-3,0,-1,0
1532064103851,-2,-10,-5,-2,7,-1,-2,-2
1532064103856,0,8,2,0,1,-1,0,-1
1532064103861,1,3,0,4,0,1,1,0
1532064103866,0,7,0,1,4,-3,-1,-2
1532064103871,-1,-11,3,7,-7,-1,-2,1
1532064103876,2,17,3,3,10,1,0,2
1532064103881,-4,-27,-5,-10,1,0,0,-1
1532064103886,-1,7,-1,-6,0,-1,-4,-2
1532064103891,1,3,1,3,-4,1,0,1
1532064103896,1,-3,2,-10,1,0,-1,1
1532064103901,2,13,-1,22,4,0,-1,1
1532064103906,-6,-24,-5,-3,-13,-1,-2,-1
1532064103911,-2,3,3,12,5,0,1,1
1532064103916,-1,-1,-3,8,-2,-1,-2,-1
1532064103921,-1,6,5,2,7,1,0,-2
1532064103926,0,8,-1,-12,-5,1,0,0
1532064103931,1,-10,3,0,-7,-1,1,-1
1532064103936,0,3,1,1,5,-1,-1,0
1532064103941,1,2,3,-7,-7,-2,-2,-1
1532064103946,-5,-8,-2,5,3,0,-1,-1
1532064103951,-2,1,-7,-2,-5,-3,-2,-2
1532064103956,1,3,2,8,3,-2,0,-3
1532064103961,0,15,-2,-30,-12,-1,0,-1
1532064103966,2,-10,3,3,3,0,3,1
1532064103971,-2,4,0,1,4,-2,-1,0
1532064103976,-3,-8,-5,3,-5,0,1,1
1532064103981,-1,-4,0,-10,4,-1,0,-3
1532064103986,3,13,2,21,1,1,0,0
1532064103991,0,9,1,-5,-5,0,0,-1
1532064103996,-2,-19,-2,-7,0,-2,-2,-2
1532064104001,-3,-14,-4,1,-2,-2,-4,-3
1532064104006,-1,-7,-3,4,11,3,1,-2
1532064104011,1,14,2,-22,-4,-2,0,0
1532064104016,-1,0,2,-4,1,1,2,1
1532064104021,-2,5,0,4,2,-1,1,-1
1532064104026,-1,4,0,2,-6,0,-1,-1
1532064104031,-2,-9,0,4,7,1,0,-1
1532064104036,-2,-3,0,-3,1,-1,-2,-1
1532064104041,0,-5,-1,-10,-2,0,-1,0
1532064104046,-1,2,2,-2,-2,0,-2,0
1532064104051,-1,7,-1,-3,-3,-2,-2,-2
1532064104056,-1,-1,1,3,-2,-2,-1,-1
1532064104061,0,-2,-2,4,0,1,2,0
1532064104066,-2,6,1,-6,-3,-1,0,0
1532064104071,0,-10,-1,2,-1,-1,0,-1
1532064104076,-3,-12,-1,2,-6,-1,-2,-2
1532064104081,2,16,2,0,12,1,-1,1
1532064104086,0,-11,-1,-10,-3,-3,-2,-1
1532064104091,-3,3,-4,-15,-7,0,-2,-1
1532064104096,-2,-15,-5,1,4,0,0,-1
1532064104101,-2,-12,-3,-1,0,-1,-3,-2
1532064104106,-1,7,1,-3,-4,-2,0,-1
1532064104111,2,6,3,-3,4,0,-1,-1
1532064104116,0,9,1,-21,-6,-1,-1,-2
1532064104121,-1,-8,-3,10,2,0,-1,-2
1532064104126,1,9,1,-3,-2,0,0,1
1532064104131,-1,-7,0,3,0,1,1,0
1532064104136,-5,-8,-4,6,0,0,-1,-3
1532064104141,0,5,2,-1,-5,-1,-3,-1
1532064104146,-2,2,-1,4,-5,-2,-1,0
1532064104151,1,13,3,19,6,0,1,-1
1532064104156,0,11,1,-7,1,-2,0,1
1532064104161,-1,-4,-2,1,2,-2,-2,0
1532064104166,-4,-24,-6,-4,-7,-2,-1,-1
1532064104171,1,4,0,12,7,-1,0,0
1532064104176,1,7,3,8,3,1,1,1
1532064104181,-1,-4,-1,-5,0,-2,0,-1
1532064104186,-1,3,-4,-17,-10,-3,-3,-3
1532064104191,0,3,-3,-4,-6,-1,1,1
1532064104196,-3,-9,1,5,2,-1,-3,1
1532064104201,-1,-2,-2,-1,-3,-3,-1,-2
1532064104206,-2,-18,-5,7,0,0,-1,-2
1532064104211,0,-1,-3,3,5,1,-1,-1
1532064104216,1,6,0,-4,-5,-1,0,0
1532064104221,-1,0,0,3,10,2,-2,0
1532064104226,0,1,-3,-14,-7,-2,-1,0
1532064104231,0,1,2,1,3,-1,-2,-3
1532064104236,1,4,-1,5,-3,-1,1,-1
1532064104241,-1,-1,-2,-10,-8,0,-1,0
1532064104246,-1,-6,3,6,10,-1,0,0
1532064104251,-3,-4,1,-27,-15,-1,-2,-2
1532064104256,1,17,0,30,4,1,-2,-1
1532064104261,-2,-22,1,-10,2,0,1,0
1532064104266,1,10,-2,26,1,-2,-1,-1
1532064104271,-1,-8,-1,3,-3,-2,-2,-2
1532064104276,0,0,-2,-2,2,-2,-3,-1
1532064104281,1,9,-1,3,-10,-1,1,-1
1532064104286,-1,-7,-8,0,2,0,-2,-1
1532064104291,0,-12,-3,5,6,3,0,1
1532064104296,1,13,2,-6,-1,-2,-3,-4
1532064104301,-2,2,-5,0,-4,-3,-1,1
1532064104306,0,22,4,-11,-2,-2,0,-2
1532064104311,-2,-34,-3,12,-2,-2,-1,0
1532064104316,-2,-5,-2,-11,5,1,-1,-1
1532064104321,2,4,4,4,-4,-2,0,0
1532064104326,-3,-13,-1,16,8,2,-1,-3
1532064104331,1,28,0,-30,-12,-3,-2,-2
1532064104336,1,-8,-1,-5,-2,1,-1,0
1532064104341,-1,-9,-3,2,7,-1,-2,-1
1532064104346,-1,4,-1,-9,-8,-1,-1,-1
1532064104351,1,6,2,24,6,3,0,0
1532064104356,0,-10,0,-8,-7,-2,-1,-1
1532064104361,0,2,1,-12,5,0,0,-2
1532064104366,1,14,2,-8,0,1,0,-1
1532064104371,-3,-15,-3,3,-3,-2,-3,-2
1532064104376,-4,-2,2,4,-2,-1,1,1
1532064104381,2,10,-2,-1,-1,0,-1,0
1532064104386,0,2,4,3,2,0,-1,0
1532064104391,1,-10,-5,-8,2,0,1,0
1532064104396,-2,-2,1,1,2,0,-1,0
1532064104401,-1,0,-2,-5,-6,-2,-2,-2
1532064104406,-2,-14,-7,-17,-1,-1,0,-1
1532064104411,2,11,2,8,2,-2,-2,0
1532064104416,2,8,1,0,0,0,3,1
1532064104421,-1,-2,-2,-6,-17,-1,-2,-1
1532064104426,-3,-20,-4,-12,8,-1,-1,-1
1532064104431,-2,-6,-2,-5,2,1,-2,-1
1532064104436,1,9,0,-5,-5,-1,-1,-1
1532064104441,0,10,1,11,6,0,-1,-1
1532064104446,-1,-9,3,4,-1,0,-1,-1
1532064104451,-5,1,-4,-1,-4,-3,-3,-4
1532064104456,-3,-17,-4,-17,-5,-2,0,-1
1532064104461,-1,2,2,8,3,2,0,0
1532064104466,3,6,-1,-6,-6,0,-1,-1
1532064104471,-2,1,-1,-4,-1,-1,-1,0
1532064104476,1,7,-1,11,0,1,0,-1
1532064104481,-1,-1,0,-4,5,-2,-3,-2
1532064104486,1,-3,-1,-1,-3,-2,0,-1
1532064104491,3,14,6,8,-7,1,-1,0
1532064104496,-1,-11,-1,6,6,0,0,-1
1532064104501,-7,-25,-6,-8,-3,-1,-3,-2
1532064104506,-1,9,3,6,-3,-1,-2,-2
1532064104511,2,8,2,-8,5,1,1,0
1532064104516,-1,17,-1,18,-5,-3,-2,0
1532064104521,-1,-4,3,7,7,1,3,-1
1532064104526,-5,-19,-2,8,-1,1,-1,0
1532064104531,1,3,1,-9,-6,-3,-2,-2
1532064104536,1,-4,-1,-3,6,1,-2,-1
1532064104541,-1,-15,-1,3,-8,-1,-1,-2
1532064104546,0,5,3,3,2,-1,-1,-1
1532064104551,-1,0,-3,-6,2,1,1,0
1532064104556,0,13,1,-2,-5,-1,-3,-1
1532064104561,0,-8,-3,-12,-2,-1,1,0
1532064104566,0,0,-2,20,-10,-1,-1,1
1532064104571,-2,2,1,5,3,0,-2,0
1532064104576,1,-15,-6,-3,-5,0,-1,-1
1532064104581,-3,0,3,1,2,-1,-2,-1
1532064104586,1,5,2,0,2,-2,-1,-1
1532064104591,0,2,1,16,2,0,-2,1
1532064104596,0,-1,-2,-14,-5,-1,-1,-1
1532064104601,-1,-1,-2,5,-1,-1,-1,-1
1532064104606,-1,2,3,-2,0,-1,-2,-2
1532064104611,1,8,0,7,-1,1,0,-1
1532064104616,-3,-27,-6,-33,5,-2,-1,-1
1532064104621,-1,1,-4,-1,-2,0,-1,-1
1532064104626,1,21,2,-3,-1,-1,-1,-1
1532064104631,-1,-10,-2,-8,0,1,0,0
1532064104636,-3,3,3,8,-3,-2,-2,-2
1532064104641,-4,-12,-10,-5,-9,-4,-4,0
1532064104646,0,-1,1,-14,-1,0,-1,-1
1532064104651,-1,13,3,2,4,1,0,-1
1532064104656,2,0,-1,22,2,2,1,1
1532064104661,0,-1,-2,-19,-2,0,0,-2
1532064104666,-2,-1,-2,11,2,0,-1,1
1532064104671,1,-6,-2,-2,-2,-1,1,-2
1532064104676,0,3,-3,-19,-8,-1,-1,0
1532064104681,0,-9,-2,-4,0,-1,-2,-2
1532064104686,-1,-5,1,-1,1,-2,-1,-2
1532064104691,-3,-8,0,-12,-3,-1,-2,-1
1532064104696,0,1,-2,-3,0,0,-1,-2
1532064104701,1,13,2,8,-2,-1,0,1
1532064104706,1,-1,1,-4,3,0,0,0
1532064104711,-2,-9,-2,16,-1,-1,-1,0
1532064104716,-4,-8,2,7,-5,-3,-1,-2
1532064104721,1,-1,-2,-1,2,1,-1,2
1532064104726,-1,9,0,-8,-2,1,-1,0
1532064104731,-1,-14,-6,-4,2,-1,-1,-2
1532064104736,-3,-2,0,3,2,-1,-1,-2
1532064104741,1,20,4,-3,-3,0,1,-2
1532064104746,-2,-19,-2,0,11,0,-1,-1
1532064104751,0,-7,-1,1,-2,-1,-1,0
1532064104756,1,14,2,6,-2,0,-1,2
1532064104761,-4,-16,3,16,2,1,-1,0
1532064104766,-1,7,-5,-35,-8,-1,-1,-3
1532064104771,1,-1,-1,-1,1,-2,2,-1
1532064104776,0,-4,1,1,-2,0,1,-3
1532064104781,0,17,7,4,2,-1,0,1
1532064104786,-2,-20,-5,6,-6,-1,0,0
1532064104791,-2,4,-4,-10,-1,-2,-2,-2
1532064104796,-3,-21,-8,-23,-1,0,0,-3
1532064104801,1,20,1,1,3,-1,0,-2
1532064104806,0,-5,0,2,-1,-1,-2,0
1532064104811,-4,1,1,-1,2,-1,-2,-1
1532064104816,1,7,-1,4,-5,-3,-1,-1
1532064104821,-1,-2,-2,-5,0,-1,0,0
1532064104826,1,9,3,10,3,3,0,1
1532064104831,-1,4,-8,-27,-8,-2,-3,0
1532064104836,0,-14,-3,0,3,0,0,0
1532064104841,-1,-6,-1,-3,-6,-3,-2,-3
1532064104846,1,13,1,-6,-5,-3,-2,-1
1532064104851,0,8,0,8,3,-1,1,-1
1532064104856,-2,-16,-2,0,5,0,0,-1
1532064104861,-4,-6,-1,-5,-9,-2,-1,-1
1532064104866,4,9,0,6,7,1,0,1
1532064104871,-2,1,1,-4,-7,-2,-3,-1
1532064104876,-4,7,0,6,4,0,0,0
1532064104881,3,-10,-2,0,-2,0,0,0
1532064104886,-5,1,3,0,1,0,-1,-2
1532064104891,-1,-3,-4,-1,-6,-4,-3,-2
1532064104896,2,23,2,-2,-6,-3,-1,0
1532064104901,-3,-26,-7,1,4,1,1,-1
1532064104906,-1,7,-1,2,-2,-1,-2,0
1532064104911,0,-4,-2,-6,2,1,1,0
1532064104916,-1,-15,0,8,-4,-2,-2,-1
1532064104921,0,5,3,1,1,1,0,-1
1532064104926,0,-2,-6,-4,-4,-1,-1,-1
1532064104931,-3,-3,4,7,4,-1,0,-2
1532064104936,3,13,1,1,-2,-1,-1,-1
1532064104941,1,9,1,5,-3,0,0,1
1532064104946,-3,-17,-2,3,-1,-2,-1,-1
1532064104951,-3,-23,-8,-32,-9,-2,-3,-1
1532064104956,0,2,-2,1,-2,-1,1,-1
1532064104961,0,2,-1,-1,6,1,0,0
1532064104966,0,3,1,-10,-3,-3,-2,-1
1532064104971,1,6,6,25,7,1,3,2
1532064104976,-1,0,-4,-17,-4,-2,-1,-1
1532064104981,-1,2,-3,-7,-5,0,-1,-4
1532064104986,1,2,1,6,2,1,-1,-2
1532064104991,2,24,2,-12,-3,-1,-2,0
1532064104996,-3,-35,-1,33,4,1,2,0
1532064105001,-2,-4,2,13,2,-2,-2,-1
1532064105006,-2,-3,-2,-6,-2,-1,-2,-1
1532064105011,2,5,4,19,1,-1,-1,-1
1532064105016,3,26,8,6,-3,0,-1,2
1532064105021,-4,-12,-6,-20,4,-2,-1,-2
1532064105026,-1,-21,-4,20,0,1,-1,0
1532064105031,-1,-1,1,-4,0,0,-1,-2
1532064105036,-1,3,-5,-4,-7,-3,-2,-2
1532064105041,0,4,1,-1,3,0,1,0
1532064105046,-1,6,0,-1,2,-1,0,-1
1532064105051,1,6,0,40,0,0,1,1
1532064105056,-6,-23,-3,-16,-3,-2,-2,-1
1532064105061,0,9,1,10,-3,-1,-2,-1
1532064105066,-3,2,0,-13,0,-2,0,-2
1532064105071,-1,-15,-7,-4,0,-2,-1,0
1532064105076,0,11,6,-8,4,-2,-2,0
1532064105081,1,7,-1,-9,-10,-1,1,0
1532064105086,-1,-21,-9,-4,0,-1,-1,0
1532064105091,-2,2,1,-14,-4,-1,0,0
1532064105096,0,-3,0,-1,0,-1,-1,-2
1532064105101,1,6,2,6,5,-1,-1,-2
1532064105106,2,11,3,-2,-1,-1,0,1
1532064105111,-3,-25,-3,-7,-6,-2,0,-2
1532064105116,-5,-2,-6,-5,4,-1,-2,-1
1532064105121,-1,-3,-1,-6,-1,-1,-1,0
1532064105126,-2,2,-1,-5,-5,-2,-1,-1
1532064105131,1,14,5,18,2,1,-2,-1
1532064105136,0,2,-1,-7,-4,-1,0,1
1532064105141,-1,-13,-5,-3,6,0,-2,-2
1532064105146,-2,-1,2,14,-11,-3,-2,-1
1532064105151,-1,3,-4,-25,5,-1,-1,0
1532064105156,2,13,3,8,1,1,1,1
1532064105161,-2,-1,-5,-20,-5,-3,-1,0
1532064105166,-2,-15,-1,2,-1,-1,0,-2
1532064105171,1,5,4,26,5,0,0,-1
1532064105176,-2,-2,-3,-9,-4,-1,0,-1
1532064105181,1,-8,-1,-3,-1,-2,-2,-4
1532064105186,0,-3,2,-4,4,1,2,-1
1532064105191,-1,2,1,-5,-7,-1,-3,0
1532064105196,2,11,0,5,1,-1,-2,1
1532064105201,-2,6,2,7,-4,-3,-2,0
1532064105206,-1,-6,-4,0,6,3,2,-1
1532064105211,-2,-8,1,-15,-9,-1,-1,-2
1532064105216,0,2,-2,9,1,-2,-1,-1
1532064105221,0,2,2,1,-1,-1,-2,1
1532064105226,-2,-3,-4,8,-3,-2,-2,-2
1532064105231,-2,-3,-1,-13,-1,-1,1,-1
1532064105236,1,12,2,-11,1,1,1,-3
1532064105241,0,-12,-2,7,-2,1,1,1
1532064105246,-5,-14,-9,-3,-6,-2,-2,-3
1532064105251,0,1,2,-1,2,0,0,-2
1532064105256,-1,-1,-2,-1,-1,-2,-2,-2
1532064105261,0,14,3,4,0,-1,-1,0
1532064105266,0,-4,0,-2,-4,-1,0,1
1532064105271,-2,-11,-4,-8,1,-1,0,-3
1532064105276,0,7,1,23,4,2,-1,-1
1532064105281,0,0,-1,-2,-4,-1,1,1
1532064105286,1,8,2,-3,2,1,-2,0
1532064105291,0,9,-2,0,-4,-1,-2,-1
1532064105296,-1,-15,-2,1,7,1,-1,-1
1532064105301,-2,2,-1,10,-2,-2,-1,-1
1532064105306,0,5,2,-1,-1,-2,-2,-3
1532064105311,-1,-4,0,-4,0,-1,0,0
1532064105316,-1,1,-1,-5,-1,1,1,1
1532064105321,-2,-7,-1,-12,-4,-2,-1,-1
1532064105326,2,24,4,-7,1,-1,-1,1
1532064105331,0,-15,-7,4,-1,-2,-1,0
1532064105336,-2,-11,1,0,-2,-2,0,-1
1532064105341,1,5,0,11,7,3,0,-1
1532064105346,-1,6,-3,-34,-3,-1,-1,0
1532064105351,0,5,-1,-3,5,0,1,0
1532064105356,-5,-5,-5,-3,-2,-1,-2,1
1532064105361,0,-10,-2,20,-5,-1,0,1
1532064105366,1,2,9,21,6,-1,1,0
1532064105371,-2,-1,-1,-1,-2,-1,-3,-1
1532064105376,0,0,-1,-8,3,-3,-1,-2
1532064105381,-1,9,-1,-6,-2,0,0,-1
1532064105386,-1,-11,1,5,-3,-2,-1,0
1532064105391,0,12,-3,-7,6,1,0,-1
1532064105396,-1,-16,2,7,-4,0,-3,0
1532064105401,-5,-2,-1,1,-1,-1,-2,-1
1532064105406,-1,-3,-8,-22,3,-1,-1,-1
1532064105411,3,8,4,26,-7,-1,-1,-1
1532064105416,1,4,-3,-28,-5,-2,0,1
1532064105421,0,-6,1,-1,4,-1,-1,0
1532064105426,-4,-10,-6,3,-10,-3,-2,-2
1532064105431,-3,0,5,2,1,-1,-1,0
1532064105436,-1,-4,-3,19,-2,1,0,-1
1532064105441,-1,-2,1,-8,2,-2,0,-1
1532064105446,0,5,4,11,-4,-2,-1,-1
1532064105451,1,-7,-5,-6,1,-2,0,2
1532064105456,0,11,2,6,1,0,-1,-2
1532064105461,-2,-16,-8,-18,-3,-2,-2,-3
1532064105466,1,6,1,2,3,1,-1,1
1532064105471,3,-2,-1,-6,5,1,0,-2
1532064105476,-3,4,2,2,-4,0,1,-1
1532064105481,-3,-11,-2,-13,-3,-2,-2,-4
1532064105486,0,0,1,-2,1,2,-1,1
1532064105491,0,2,0,1,-1,0,0,0
1532064105496,1,0,-3,7,1,-1,1,0
1532064105501,1,2,2,13,-2,-2,0,0
1532064105506,0,5,-3,-9,-2,-2,1,0
1532064105511,-3,-5,-2,-19,-6,-1,-2,-1
1532064105516,2,3,3,5,-2,0,-2,-1
1532064105521,1,18,2,3,0,1,-1,-1
1532064105526,-3,-30,-9,-23,1,-2,0,-4
1532064105531,-3,2,0,6,0,-1,-2,-1
1532064105536,0,4,1,-12,0,-1,0,0
1532064105541,2,8,1,8,-2,1,0,1
1532064105546,1,10,3,30,6,0,-2,-2
1532064105551,-4,-20,-9,-32,-9,-3,-3,-3
1532064105556,0,3,2,-6,2,0,0,0
1532064105561,1,-4,-3,0,1,0,0,0
1532064105566,1,28,8,6,0,0,-1,-1
1532064105571,-3,-34,-4,1,2,-1,0,2
1532064105576,-5,-24,-6,31,-4,-1,-2,-3
1532064105581,-2,-2,0,-34,-3,-2,-2,-2
1532064105586,0,4,-1,-1,1,1,2,2
1532064105591,2,15,0,6,5,-1,0,0
1532064105596,2,7,3,-4,-4,-2,0,0
1532064105601,-3,-15,-2,0,2,-2,-2,-1
1532064105606,-3,-2,0,4,-5,-1,-1,-1
1532064105611,0,13,3,5,-2,-1,0,-2
1532064105616,-4,-9,-1,-14,3,-1,-2,-1
1532064105621,2,17,2,3,-5,-1,-1,-1
1532064105626,0,-11,-1,-5,-1,-1,0,0
1532064105631,-1,-7,-4,16,4,1,1,-1
1532064105636,-1,3,-3,-48,-6,-2,-3,-2
1532064105641,0,0,0,1,-1,0,1,0
1532064105646,-2,-1,0,4,1,-1,-1,0
1532064105651,-1,0,-3,-9,-6,-1,-2,1
1532064105656,1,16,0,34,1,0,-2,-2
1532064105661,-1,-12,-3,-4,-1,-2,-1,0
1532064105666,-1,-7,0,-1,-5,-1,-1,-2
1532064105671,1,2,2,4,4,-2,-1,-3
1532064105676,2,6,-1,-4,3,-2,-1,0
1532064105681,-2,-8,-5,5,3,1,-1,0
1532064105686,1,19,3,7,-3,-2,0,-2
1532064105691,-3,-19,-1,-3,-1,-2,-2,-1
1532064105696,-4,-3,0,5,0,0,0,-1
1532064105701,-1,9,-5,-37,-10,-3,-2,0
1532064105706,-2,-5,-1,-3,2,1,-1,-1
1532064105711,-1,7,-3,9,-6,0,-1,-1
1532064105716,-2,-17,-6,-26,7,-1,-1,0
1532064105721,0,3,-1,-1,-3,-1,0,-2
1532064105726,-1,-5,-3,-3,-2,-2,-2,0
1532064105731,-3,2,2,-5,-4,-2,0,-1
1532064105736,0,-4,-1,-1,-8,0,0,-1
1532064105741,1,3,0,17,11,1,0,1
1532064105746,2,6,1,-5,1,-1,-1,0
1532064105751,2,-12,-1,2,3,2,1,0
1532064105756,-2,-4,-3,-1,-2,-1,-2,-2
1532064105761,-1,10,1,12,1,-1,-1,-3
1532064105766,-1,-4,-1,4,1,-1,0,-1
1532064105771,1,8,4,4,-4,-3,-1,-2
1532064105776,-1,-2,-2,-5,1,-1,-1,-1
1532064105781,-2,-19,2,11,-2,2,1,0
1532064105786,0,7,0,1,7,1,-1,-2
1532064105791,0,2,3,-4,0,-1,-1,-1
1532064105796,2,-6,-2,1,-4,-1,-2,1
1532064105801,-1,5,2,0,4,-1,-3,0
1532064105806,-3,-9,-1,-10,-8,0,0,0
1532064105811,1,20,2,-3,5,1,1,-1
1532064105816,-1,-4,-3,16,1,-1,1,-1
1532064105821,-3,-15,-7,-8,-6,-4,0,-2
1532064105826,0,-8,-5,-2,-8,-2,-3,-2
1532064105831,0,5,4,1,7,0,-1,-1
1532064105836,-1,6,-2,-1,-5,-2,0,-1
1532064105841,0,-5,-3,7,6,1,0,0
1532064105846,-5,4,-2,-4,0,-2,-1,-1
1532064105851,4,17,4,-8,-10,1,1,0
1532064105856,0,-18,-6,-3,2,-2,1,0
1532064105861,-4,-6,5,-3,-6,-2,-4,-2
1532064105866,1,8,-1,-8,1,-4,-1,-1
1532064105871,-5,-30,-8,-5,-3,0,-2,-2
1532064105876,0,8,-3,3,-3,-2,-1,0
1532064105881,0,-1,2,3,-1,-1,-1,-1
1532064105886,1,9,5,9,2,0,0,-1
1532064105891,-1,-3,-4,-5,-2,-1,1,2
1532064105896,0,-10,-3,4,-6,2,0,-1
1532064105901,-1,-6,-3,4,10,-2,0,-3
1532064105906,3,11,0,2,-3,1,1,0
1532064105911,-3,-16,-1,2,-1,-1,-4,-2
1532064105916,0,12,4,-9,2,-1,-2,-2
1532064105921,2,18,4,32,-1,-1,-1,2
1532064105926,-3,-17,-8,-21,-4,-1,-2,-2
1532064105931,1,2,-2,19,-5,-2,0,0
1532064105936,-4,3,0,-7,-2,-2,-2,-3
1532064105941,0,-10,-1,-21,-2,0,-2,0
1532064105946,-2,-10,-1,7,1,-2,-3,-1
1532064105951,0,8,1,7,1,0,0,0
1532064105956,-2,0,2,29,5,1,-2,1
1532064105961,-7,-8,-14,-88,-20,-7,-4,-4
1532064105966,1,2,3,20,3,1,0,0
1532064105971,-1,-1,0,-8,-4,-3,-1,-3
1532064105976,2,1,3,27,9,1,0,-1
1532064105981,-4,4,-5,-26,-10,-2,-5,1
1532064105986,1,-1,-1,15,3,1,-1,-1
1532064105991,0,22,6,16,0,-1,1,-2
1532064105996,-1,-28,-8,-56,-7,-2,-2,0
1532064106001,0,-1,4,18,3,3,1,-1
1532064106006,-3,3,-3,-32,-6,-3,-3,-1
1532064106011,-3,-7,-8,25,0,-1,-2,0
1532064106016,1,-4,3,15,-1,1,1,-2
1532064106021,1,8,2,-20,2,2,1,0
1532064106026,-2,-1,-2,0,-1,-2,-1,-3
1532064106031,0,6,1,-9,1,-1,-2,0
1532064106036,-3,9,-2,-21,-8,-2,-1,-1
1532064106041,3,-4,1,18,3,0,-1,1
1532064106046,2,13,9,7,2,1,1,0
1532064106051,-2,-9,3,-4,1,0,-3,-1
1532064106056,-7,-15,-7,-25,-6,-5,-5,-2
1532064106061,2,17,0,31,3,1,0,-2
1532064106066,0,-14,-7,-11,0,1,1,1
1532064106071,0,7,-3,-3,-1,-2,-1,-2
1532064106076,2,14,8,4,2,-2,-1,0
1532064106081,1,-16,-1,11,-3,0,0,0
1532064106086,0,2,-1,7,3,1,0,-1
1532064106091,-2,-9,-7,-54,-9,-2,0,-2
1532064106096,0,7,6,12,-2,-1,0,-1
1532064106101,-1,15,3,7,1,-1,1,-1
1532064106106,1,-25,1,16,0,-2,1,-1
1532064106111,-1,3,-6,0,2,0,-1,-2
1532064106116,-2,-12,3,0,-1,0,-1,1
1532064106121,-4,-13,-10,-25,-10,-1,-3,-2
1532064106126,1,13,4,-14,5,-1,-1,1
1532064106131,1,-2,-1,27,4,-2,1,2
1532064106136,-1,8,-4,-26,0,0,1,-3
1532064106141,0,1,0,25,7,0,1,1
1532064106146,-1,-5,-9,3,-3,-1,1,0
1532064106151,2,8,1,-2,-7,-1,0,0
1532064106156,1,-4,1,10,10,0,0,-1
1532064106161,-2,-10,-5,-16,-4,-3,-2,-2
1532064106166,-3,-6,-3,-11,-6,-2,-2,-1
1532064106171,1,0,3,12,9,2,-1,0
1532064106176,-2,-1,-2,14,0,0,0,-2
1532064106181,2,4,2,-6,-3,-1,-1,-1
1532064106186,-2,-7,-4,5,-6,-3,-2,-2
1532064106191,0,10,2,-9,0,0,-2,-1
1532064106196,2,5,1,8,2,1,2,-1
1532064106201,-2,-3,0,5,4,0,-1,-2
1532064106206,-5,-16,-8,21,-4,-1,-2,-4
1532064106211,-1,-7,1,-32,0,-2,-2,-3
1532064106216,1,8,3,9,0,3,3,0
1532064106221,3,17,8,-2,7,-1,1,1
1532064106226,-3,-6,0,13,-12,-2,-3,-1
1532064106231,-3,-11,0,3,4,-1,0,-2
1532064106236,0,-8,-1,4,-6,-3,-5,-1
1532064106241,-1,9,1,6,1,0,-1,-1
1532064106246,-1,-6,5,1,0,0,-2,0
1532064106251,0,2,4,29,8,3,2,-1
1532064106256,0,9,-10,-53,-13,-3,-3,-1
1532064106261,-1,-21,1,22,3,0,0,0
1532064106266,0,8,0,-39,-1,-2,-1,-4
1532064106271,-1,-11,-6,19,-3,0,0,0
1532064106276,1,12,2,-22,-4,-1,0,0
1532064106281,0,1,-2,-1,-2,-1,0,-2
1532064106286,-2,-19,-7,-2,2,3,0,0
1532064106291,1,14,3,-7,-5,-2,0,1
1532064106296,1,-11,3,18,9,2,0,1
1532064106301,-2,-17,-4,5,-15,-1,0,0
1532064106306,0,13,0,19,21,4,1,-1
1532064106311,-2,-5,-3,-34,-3,-1,-1,-3
1532064106316,-2,7,-1,5,-5,-2,-3,0
1532064106321,-2,2,2,13,-2,-2,-2,1
1532064106326,0,-8,-1,-10,-6,-2,-1,0
1532064106331,0,-4,2,7,1,-2,-1,-2
1532064106336,1,7,-4,11,1,-2,-1,0
1532064106341,-1,-12,0,-14,-2,-1,-1,-3
1532064106346,0,11,2,5,-1,-1,-1,-2
1532064106351,-1,-7,-4,-9,-1,-1,-2,2
1532064106356,-3,-3,-4,-3,-6,-3,-1,-3
1532064106361,1,-3,2,8,6,1,1,0
1532064106366,-1,1,1,-7,-3,1,0,1
1532064106371,2,12,1,20,-3,1,0,-1
1532064106376,-4,-22,-7,-39,0,-1,-3,-1
1532064106381,-4,2,-5,0,-7,-2,-4,-2
1532064106386,0,0,2,0,8,1,-1,1
1532064106391,-5,-13,-8,-18,-7,-3,-1,0
1532064106396,2,20,7,15,2,-1,1,-1
1532064106401,-4,-14,-6,-4,0,-2,0,-2
1532064106406,2,14,1,-6,-1,-1,-2,2
1532064106411,-3,-13,-4,2,-2,1,-1,-3
1532064106416,2,13,6,15,1,0,2,0
1532064106421,0,-15,-10,-7,0,-2,0,2
1532064106426,-3,8,2,4,-6,-4,0,-3
1532064106431,1,2,1,-2,-2,-2,-2,1
1532064106436,-1,-11,-3,18,5,0,0,0
1532064106441,0,18,-4,-47,-6,-2,-4,-1
1532064106446,1,2,1,12,-3,0,0,1
1532064106451,-2,1,-1,-8,-3,-1,0,-1
1532064106456,-4,-36,-3,17,0,2,0,-1
1532064106461,1,6,5,13,8,0,0,-1
1532064106466,2,6,0,-5,1,-1,1,-1
1532064106471,-4,-6,-12,-14,-10,-5,-5,-2
1532064106476,1,-6,2,1,-2,0,1,0
1532064106481,-3,-11,-4,6,6,1,-2,-2
1532064106486,-1,4,5,-12,-6,-1,-1,-1
1532064106491,4,11,3,28,5,1,3,0
1532064106496,0,10,2,-15,-5,-4,0,1
1532064106501,-3,-7,-6,5,1,1,1,-1
1532064106506,1,2,2,0,-1,-2,0,-2
1532064106511,-2,-4,-2,-21,-1,-1,-3,-1
1532064106516,-2,1,0,9,-5,-2,-2,-1
1532064106521,3,17,7,7,0,1,-1,1
1532064106526,-2,-15,-4,1,2,2,1,0
1532064106531,0,10,7,-9,-1,-2,0,-1
1532064106536,-2,-31,-14,15,2,1,-3,-1
1532064106541,-2,3,-3,24,-7,-1,-2,-2
1532064106546,-2,6,4,-31,-2,-4,-3,-3
1532064106551,0,-5,-2,13,-1,-1,0,-1
1532064106556,1,21,3,-5,3,-3,-3,0
1532064106561,-1,-1,9,6,-4,-2,0,-1
1532064106566,0,-9,-5,3,1,1,0,0
1532064106571,0,15,6,7,2,0,1,2
1532064106576,-5,-40,-8,-16,-6,-2,-1,-2
1532064106581,4,21,7,-4,8,-1,0,0
1532064106586,-3,-24,-7,-25,-9,-1,-1,-1
1532064106591,1,4,-3,-4,1,-2,-2,-3
1532064106596,1,5,2,-7,-6,-1,-1,0
1532064106601,0,15,7,-5,0,-1,-2,-1
1532064106606,-2,-8,-7,11,-1,0,0,-3
1532064106611,1,-12,-3,2,5,0,-3,-2
1532064106616,-1,4,1,5,-5,1,0,-1
1532064106621,0,6,-5,-4,5,-2,-1,1
1532064106626,2,12,4,-7,-5,-2,-2,1
1532064106631,-1,-7,-2,27,-1,1,-1,0
1532064106636,1,12,1,-10,-1,0,-1,-2
1532064106641,2,8,1,8,2,1,3,-2
1532064106646,-2,-22,-3,-1,10,1,0,-1
1532064106651,-6,-15,-4,-2,-12,-2,-5,0
1532064106656,0,18,1,-15,-4,0,1,-2
1532064106661,1,-9,-9,5,-2,-1,0,0
1532064106666,-1,9,2,12,7,-2,-1,1
1532064106671,-2,-6,0,-29,-2,1,0,0
1532064106676,1,12,3,14,9,1,0,-1
1532064106681,0,-12,-3,-21,5,0,1,0
1532064106686,-5,1,-10,-13,-27,-6,-6,-4
1532064106691,1,-8,-1,3,11,-1,-1,-1
1532064106696,-1,-1,0,24,-1,-2,-3,0
1532064106701,-2,-4,2,-4,-10,-2,-2,-1
1532064106706,1,5,2,22,11,0,1,-1
1532064106711,-3,-9,-1,-10,-5,0,0,-1
1532064106716,0,4,2,-37,0,0,-1,0
1532064106721,0,-3,4,18,-1,0,-1,-1
1532064106726,-1,-2,-1,1,0,-2,-1,-1
1532064106731,0,10,2,4,-1,-2,0,0
1532064106736,-2,-9,-7,-22,-5,-3,-1,-2
1532064106741,0,4,-3,-3,3,-1,0,-1
1532064106746,3,11,2,2,-1,3,0,0
1532064106751,0,-1,1,9,6,-1,1,0
1532064106756,-3,-26,-10,-5,1,-1,-3,-3
1532064106761,-2,0,0,13,-4,-4,-3,-2
1532064106766,1,11,3,-8,1,2,0,1
1532064106771,-1,-2,-2,-18,-6,-2,-3,-1
1532064106776,1,7,3,31,4,1,-1,-2
1532064106781,-1,-7,-4,-16,-3,0,-1,1
1532064106786,-2,-8,3,13,3,2,1,-1
1532064106791,-1,6,1,-1,2,-2,2,-2
1532064106796,-1,6,-2,15,1,0,1,0
1532064106801,0,-3,-1,-21,-1,0,-1,-1
1532064106806,0,-8,3,1,-1,-3,-2,-2
1532064106811,-1,-2,-9,-20,-6,-1,-4,-1
1532064106816,0,6,2,-13,-4,0,0,0
1532064106821,-2,-18,-2,13,2,-2,0,-1
1532064106826,2,6,-3,10,-5,1,2,0
1532064106831,0,6,4,13,0,-1,-1,-1
1532064106836,-1,-6,-7,-42,-5,-1,1,-2
1532064106841,-1,-4,-3,-1,-3,1,-3,-1
1532064106846,-2,-2,-2,6,2,-3,-1,-1
1532064106851,1,-1,1,4,-2,1,-1,1
1532064106856,0,-2,-1,-25,-7,-4,-1,0
1532064106861,0,6,3,1,1,0,-1,-1
1532064106866,-1,2,-2,-9,-3,-1,-1,-1
1532064106871,3,21,6,8,3,-1,0,0
1532064106876,-2,-5,4,-14,-3,-1,-2,1
1532064106881,-5,-14,-10,-1,0,-4,-2,-2
1532064106886,-3,0,-3,-5,-11,-3,-1,-1
1532064106891,0,-3,-1,-3,-2,-1,0,-1
1532064106896,4,10,5,45,18,3,4,0
1532064106901,-1,1,-5,-24,-12,-2,-1,-1
1532064106906,-2,6,2,-3,-6,-1,-4,0
1532064106911,-1,-17,-3,1,-1,0,0,0
1532064106916,-2,-5,-6,-36,-8,-3,-1,-1
1532064106921,0,-7,-2,10,8,3,1,-1
1532064106926,1,-2,1,8,3,-1,0,-3
1532064106931,-4,-8,-9,1,9,-2,-1,-1
1532064106936,0,15,1,-2,1,1,-2,-2
1532064106941,0,1,0,5,-11,-1,1,1
1532064106946,1,14,6,-9,-2,-1,-2,0
1532064106951,-1,-11,4,18,4,0,1,-1
1532064106956,-1,7,-2,-3,-6,0,-2,-1
1532064106961,0,-3,5,7,9,0,0,0
1532064106966,-5,-18,-10,42,9,0,-4,-1
1532064106971,2,5,1,-42,0,0,2,-2
1532064106976,-2,-1,-2,7,2,0,-1,0
1532064106981,2,8,5,9,-4,0,1,0
1532064106986,1,-4,-1,-17,1,-3,0,1
1532064106991,-2,3,1,14,-1,-2,-1,0
1532064106996,-4,-6,0,5,-4,-1,-2,0
1532064107001,1,4,2,-4,-2,0,0,-2
1532064107006,-1,-7,-2,-8,-1,0,0,-1
1532064107011,0,10,1,0,-5,-1,-2,0
1532064107016,-2,-10,-3,33,-1,-2,0,-1
1532064107021,-2,2,4,12,-2,-2,-4,1
1532064107026,3,-20,-6,-23,0,3,5,4
1532064107031,-3,1,-2,10,-2,0,-4,-7
1532064107036,2,14,9,42,4,1,1,-1
1532064107041,0,-13,-9,-27,0,-3,-1,-4
1532064107046,-2,-4,0,8,-1,-1,-4,-2
1532064107051,-1,4,2,9,-10,-4,-3,2
1532064107056,0,-5,-1,-8,5,-1,-1,-1
1532064107061,0,22,5,-1,-2,-1,-1,1
1532064107066,-1,-2,-5,-10,-2,-2,-2,0
1532064107071,-2,-10,-6,-8,-7,-1,0,1
1532064107076,1,9,8,23,3,-1,1,-1
1532064107081,3,-3,-2,-5,9,2,2,0
1532064107086,-3,6,4,-29,0,1,-1,0
1532064107091,-1,6,-1,20,-4,-1,-2,-1
1532064107096,0,-2,-5,-16,-6,-2,-3,-1
1532064107101,-4,-19,-6,-24,-6,-3,-3,-3
1532064107106,-2,7,-3,-1,-4,-3,0,-3
1532064107111,-2,-7,1,-18,0,-1,0,0
1532064107116,1,14,5,-4,0,0,-3,2
1532064107121,-1,-5,0,6,4,2,0,0
1532064107126,-2,-5,-8,24,-8,-3,-3,-2
1532064107131,1,3,1,-15,2,0,3,0
1532064107136,-6,-10,-5,6,2,-2,0,-3
1532064107141,0,7,0,-20,-7,-4,-4,-3
1532064107146,-1,7,1,-3,-3,1,-1,-1
1532064107151,1,-1,1,-1,-2,-1,2,1
1532064107156,-2,-1,1,7,8,-1,-1,-1
1532064107161,-1,-5,-2,-2,-10,-2,-1,0
1532064107166,-1,1,4,6,8,-3,0,1
1532064107171,-2,-3,-2,3,-7,0,-2,-2
1532064107176,-1,-2,-3,1,0,0,-3,0
1532064107181,-4,-14,-3,-4,-2,1,0,0
1532064107186,-1,4,2,12,-2,0,0,-1
1532064107191,-1,-8,-5,-18,6,0,-3,-3
1532064107196,-2,-1,-1,-12,-13,-2,0,-1
1532064107201,2,7,3,20,7,0,-1,0
1532064107206,1,0,2,4,1,-1,-2,-2
1532064107211,1,4,1,-26,-3,-1,1,0
1532064107216,1,-12,-2,-8,-3,-2,-2,-1
1532064107221,-2,0,-7,-14,-2,-2,-2,-1
1532064107226,1,5,5,15,-7,-1,-2,-2
1532064107231,0,12,3,-19,2,-1,0,0
1532064107236,-3,-30,-13,3,-6,0,0,-1
1532064107241,1,-3,3,6,-1,-1,1,-1
1532064107246,-1,10,0,-17,-1,-1,-1,-1
1532064107251,-3,0,-6,15,-7,-1,-3,-2
1532064107256,0,11,6,3,7,-1,1,0
1532064107261,-3,-18,-6,6,-5,-2,-2,1
1532064107266,0,-2,1,-4,6,1,2,-1
1532064107271,-1,-7,-1,25,3,-1,-1,1
1532064107276,0,4,3,5,-7,-4,-1,-2
1532064107281,1,8,3,4,2,0,0,1
1532064107286,-3,-4,-4,-26,-9,-3,-4,0
1532064107291,-2,-13,-4,5,0,0,-1,0
1532064107296,-1,4,1,-2,1,0,-2,-1
1532064107301,1,12,4,8,1,-2,3,-1
1532064107306,-1,-7,-3,2,1,0,-1,-1
1532064107311,-1,-1,1,0,1,-1,0,-1
1532064107316,0,1,-5,-26,-1,-1,0,-1
1532064107321,-1,2,1,0,-7,-3,-1,-1
1532064107326,0,6,1,5,13,2,2,-1
1532064107331,-3,-15,-3,-6,-5,-3,-2,-1
1532064107336,-1,1,-5,3,-2,1,-2,1
1532064107341,-2,-2,3,4,8,1,0,-1
1532064107346,-1,3,-1,-3,-2,0,1,-2
1532064107351,0,11,1,19,0,-1,-1,-1
1532064107356,-2,-14,1,-18,4,0,-1,1
1532064107361,-3,2,-4,26,-5,-2,-3,0
1532064107366,-2,1,-3,-29,-8,-2,-3,0
1532064107371,2,3,3,15,2,-1,2,0
1532064107376,-2,0,1,3,-6,-2,-1,-1
1532064107381,0,8,-1,-6,3,0,-1,-2
1532064107386,-2,-3,0,19,-4,-2,-2,-2
1532064107391,-1,-15,-10,-2,-3,-1,-1,-1
1532064107396,0,1,5,3,-1,-2,0,-3
1532064107401,-1,-4,2,1,-2,-1,1,-1
1532064107406,1,11,-1,0,5,0,-1,-1
1532064107411,0,-1,0,4,1,0,1,0
1532064107416,-4,-33,-9,-37,-1,0,-2,-1
1532064107421,0,3,-3,-35,-6,1,0,-1
1532064107426,-2,-7,-7,-19,-4,-2,-2,-1
1532064107431,-1,14,4,7,-1,0,-1,1
1532064107436,1,15,5,8,0,-1,1,0
1532064107441,-2,-11,1,10,2,-2,0,0
1532064107446,0,-4,0,12,-1,0,1,-2
1532064107451,1,0,-2,-20,-4,-1,-3,-1
1532064107456,0,5,3,15,-5,-1,-1,-2
1532064107461,-1,-1,-10,-2,1,1,-3,-2
1532064107466,1,-6,4,18,4,-2,0,0
1532064107471,0,1,1,5,1,-1,-1,-1
1532064107476,2,5,2,-3,-2,-1,-2,0
1532064107481,2,13,4,11,6,0,1,1
1532064107486,-2,-5,-5,-23,-9,1,0,0
1532064107491,-1,-19,-1,-7,6,-1,-1,-3
1532064107496,-1,21,0,-3,-5,-4,0,-1
1532064107501,-1,-25,-5,-14,7,2,1,-1
1532064107506,0,11,-1,-5,1,-2,0,-1
1532064107511,-1,5,3,6,-6,0,-1,0
1532064107516,0,1,-5,3,-1,-1,0,-2
1532064107521,2,12,4,10,-5,-2,-1,-1
1532064107526,0,-13,0,13,1,-1,-1,-1
1532064107531,1,6,3,-8,0,-1,-1,-1
1532064107536,0,3,2,13,5,1,2,0
1532064107541,-3,-1,-5,-16,-10,-4,-2,-1
1532064107546,-2,-11,0,-3,-2,0,-1,-1
1532064107551,-1,-2,1,2,1,0,-2,0
1532064107556,-1,-3,-3,6,0,-1,-1,0
1532064107561,-2,-5,-3,-9,-8,-3,-3,-3
1532064107566,1,8,0,6,5,0,0,1
1532064107571,1,19,2,1,2,0,-1,-2
1532064107576,-1,-37,-1,7,2,0,1,0
1532064107581,-2,1,-5,4,-2,0,-4,-2
1532064107586,0,-3,-2,7,-5,0,-1,-2
1532064107591,0,6,2,-27,-5,-1,1,0
1532064107596,2,9,-2,-11,-3,0,1,2
1532064107601,-1,0,0,-7,-2,-2,0,1
1532064107606,-1,-3,-1,-6,-4,-3,-3,-2
1532064107611,0,0,2,0,0,-1,0,-2
1532064107616,-2,11,0,15,-3,1,-1,-2
1532064107621,-1,-14,1,4,-1,-1,-1,-1
1532064107626,-3,1,-2,-18,1,0,-1,-1
1532064107631,-1,-10,-1,9,1,-2,-1,-1
1532064107636,-1,2,-3,-16,-5,-4,-3,-2
1532064107641,3,13,4,12,-1,2,1,0
1532064107646,-1,2,0,5,-1,0,0,2
1532064107651,-2,-13,-5,-2,-1,0,0,-1
1532064107656,0,-16,-2,11,6,1,0,-2
1532064107661,-5,0,-2,-64,-8,-3,-3,-1
1532064107666,1,3,3,7,1,0,1,-1
1532064107671,-2,-1,-4,-12,-3,0,0,1
1532064107676,-2,-3,-6,0,-4,0,-2,-2
1532064107681,-1,2,6,35,7,1,0,-1
1532064107686,-1,-3,-1,-3,1,-1,-1,0
1532064107691,-1,1,-1,11,-3,0,-2,0
1532064107696,0,4,3,-11,5,3,1,1
1532064107701,-1,-3,-5,-19,-6,-3,0,-1
1532064107706,-3,-6,0,8,-2,-2,-1,-1
1532064107711,-2,-13,-4,11,-5,-3,-3,-1
1532064107716,-2,1,2,9,0,-1,-2,0
1532064107721,2,12,7,-2,4,0,0,0
1532064107726,1,-2,-5,4,-5,0,-1,0
1532064107731,-5,-4,-8,-6,0,-2,-1,0
1532064107736,0,-15,1,6,1,-1,-1,-1
1532064107741,0,3,-2,4,-4,-1,-2,0
1532064107746,0,7,2,10,3,1,1,2
1532064107751,-1,-7,0,6,-2,-3,-1,-1
1532064107756,-2,7,0,-2,-6,-2,-4,-1
1532064107761,-2,2,1,9,3,0,3,0
1532064107766,-2,-7,-5,3,-1,-1,-3,0
1532064107771,0,0,0,-22,-2,-1,1,-1
1532064107776,0,4,-2,-23,-2,-1,0,-1
1532064107781,0,-14,-3,21,3,-1,-1,1
1532064107786,-1,5,4,-5,1,0,0,-3
1532064107791,1,3,-2,-11,2,0,-1,-2
1532064107796,0,-3,-3,-20,-7,-2,-1,-1
1532064107801,-3,6,-2,-4,2,1,-2,-1
1532064107806,-1,-26,-4,5,2,-1,-2,-1
1532064107811,1,5,7,17,4,-1,-1,-2
1532064107816,1,17,0,-7,-2,-2,0,0
1532064107821,1,4,-1,-1,-6,-2,-2,-2
1532064107826,-3,-16,-6,6,-2,-3,-2,-1
1532064107831,-2,2,1,-18,-5,0,-2,-2
1532064107836,-2,-11,-2,13,3,-1,-2,0
1532064107841,1,5,4,7,1,0,-1,-1
1532064107846,1,11,2,-5,0,0,0,-1
1532064107851,0,-5,-3,-4,-1,-2,-2,1
1532064107856,-1,-2,0,18,1,-1,-3,-1
1532064107861,0,-1,1,5,2,0,0,0
1532064107866,2,10,2,-9,-6,-1,0,0
1532064107871,-1,-8,-4,9,2,0,0,0
1532064107876,0,10,5,-3,0,-1,-1,-1
1532064107881,-2,-9,0,1,2,-1,0,-1
1532064107886,-4,-10,-1,-14,2,0,-1,-3
1532064107891,-1,0,0,25,-5,-2,0,-1
1532064107896,1,6,-3,-6,-1,0,0,-1
1532064107901,1,-6,-4,-24,-3,0,0,2
1532064107906,-2,4,4,8,1,-2,-3,-1
1532064107911,-1,-6,-5,-32,0,0,-1,0
1532064107916,-1,1,2,21,-4,0,0,-1
1532064107921,1,5,0,4,-6,-1,-2,-2
1532064107926,1,0,-2,-11,2,-2,-2,1
1532064107931,-2,-11,-2,3,-3,-1,-1,-2
1532064107936,-1,5,1,-2,2,-1,1,0
1532064107941,1,3,-3,-3,-2,0,0,-2
1532064107946,0,-3,5,4,2,-1,1,-2
1532064107951,1,-7,-5,6,2,-2,0,0
1532064107956,-1,-5,0,-13,-6,-1,-2,-1
1532064107961,-1,-3,-7,24,6,2,-1,-1
1532064107966,0,2,0,-25,-5,1,0,-1
1532064107971,-2,4,3,6,0,0,-3,-3
1532064107976,-4,-6,-2,-8,5,0,-2,1
1532064107981,-1,-3,-2,-22,-9,-2,-1,0
1532064107986,0,4,-4,26,1,-1,0,0
1532064107991,1,14,1,4,-2,0,0,1
1532064107996,0,-9,1,0,1,-1,3,0
1532064108001,-2,-5,1,10,1,-1,0,0
1532064108006,0,0,-3,-2,-6,-1,-2,-1
1532064108011,0,-3,-2,-3,2,2,0,-1
1532064108016,0,-2,-1,19,6,0,-3,-1
1532064108021,-1,5,3,13,1,-2,0,-3
1532064108026,0,0,-4,-25,-12,-1,-2,-1
1532064108031,1,22,9,7,7,1,2,-1
1532064108036,-3,-32,-9,0,0,1,-1,-2
1532064108041,-2,-4,-1,-3,3,0,-4,-1
1532064108046,-3,3,-3,21,-3,-1,-3,0
1532064108051,0,9,3,-19,-5,0,-1,-1
1532064108056,1,9,4,26,-2,0,-1,-1
1532064108061,2,5,0,-13,3,-2,-2,-1
1532064108066,1,-6,-1,1,-2,-1,1,-1
1532064108071,-5,-23,-7,-11,0,-2,-2,-2
1532064108076,-1,10,3,-10,-2,0,2,-2
1532064108081,-1,-5,0,12,-2,0,-1,0
1532064108086,1,16,4,1,-2,-2,-3,-2
1532064108091,1,5,-4,6,3,1,1,2
1532064108096,-1,-14,5,-4,-1,0,-2,1
1532064108101,-2,-8,-8,-4,-1,-3,0,-3
1532064108106,-2,-7,0,-7,-3,-1,0,-2
1532064108111,0,6,1,4,6,-2,-3,-1
1532064108116,0,8,-3,-16,-5,-1,-1,0
1532064108121,1,6,2,-12,-5,-1,-2,2
1532064108126,-1,-4,-3,17,7,1,0,-1
1532064108131,1,11,2,4,-9,1,-1,1
1532064108136,0,-9,-4,-5,1,0,0,-1
1532064108141,-5,0,0,-5,-3,-3,-1,0
1532064108146,-1,-6,-3,-11,3,0,1,0
1532064108151,-2,1,-1,7,-6,-4,-3,-3
1532064108156,1,-1,-6,-3,-1,-2,-1,-2
1532064108161,-1,-2,3,-34,-6,0,-1,-3
1532064108166,-1,2,-2,-6,-4,0,-2,1
1532064108171,0,-2,-3,3,1,2,1,-1
1532064108176,1,10,5,54,5,0,0,0
1532064108181,-1,-22,1,4,0,-1,0,-1
1532064108186,-3,8,-3,-18,-9,-3,0,-2
1532064108191,-3,-14,-2,-1,-1,-1,-1,-2
1532064108196,1,7,-3,-1,5,0,0,0
1532064108201,1,-2,0,9,-1,2,1,0
1532064108206,0,5,4,-5,3,-1,-1,-1
1532064108211,-1,-3,-1,1,-4,-1,0,0
1532064108216,-2,5,-2,-12,-3,-2,-3,0
1532064108221,1,9,2,5,-3,0,-1,1
1532064108226,-2,-14,-5,2,3,-3,-2,-3
1532064108231,-3,-23,-4,3,-5,-2,0,-2
1532064108236,-7,0,-6,-40,-7,-2,-4,-5
1532064108241,0,-2,-4,-20,0,-2,0,-3
1532064108246,1,4,-2,12,-1,-1,-2,3
1532064108251,1,8,2,9,2,-1,0,2
1532064108256,2,9,4,-3,-9,0,1,0
1532064108261,-3,-7,-6,-6,14,2,-2,1
1532064108266,-1,-8,2,8,0,0,-1,-3
1532064108271,0,-4,-1,-7,-6,-2,-2,-1
1532064108276,-2,1,0,-13,4,-1,0,-3
1532064108281,1,2,-1,2,-2,0,0,-1
1532064108286,-2,-5,-5,-6,-1,0,0,-2
1532064108291,-3,4,0,0,2,-2,-2,0
1532064108296,-2,-16,-5,-1,-5,-2,-1,0
1532064108301,-1,7,4,7,0,1,-1,-2
1532064108306,-1,1,-4,-6,4,2,-1,1
1532064108311,0,-4,3,17,5,-1,1,0
1532064108316,2,4,0,1,-2,-1,1,-2
1532064108321,-1,-3,0,8,0,-1,0,0
1532064108326,-1,-2,1,0,-6,-2,-4,-2
1532064108331,-1,2,1,-1,-3,0,0,0
1532064108336,-3,-5,-4,-15,-1,-2,-1,0
1532064108341,1,1,-2,6,-4,-1,-1,0
1532064108346,-1,-2,5,12,3,0,1,-1
1532064108351,-1,-2,-1,-13,2,0,-1,0
1532064108356,-1,13,-2,-2,0,-2,-2,-2
1532064108361,-7,-37,-6,-2,-6,-1,-1,0
1532064108366,1,5,3,-2,1,-2,0,-1
1532064108371,0,-3,2,-11,-2,-1,-2,-3
1532064108376,-1,9,2,26,-1,-1,0,0
1532064108381,3,6,5,-6,8,1,1,-2
1532064108386,0,-4,-3,13,4,1,0,1
1532064108391,-1,-4,-4,12,-6,-2,-1,-1
1532064108396,2,17,8,6,4,1,1,1
1532064108401,3,-4,1,12,1,-2,0,0
1532064108406,-6,-12,-9,-27,-5,-4,-3,-2
1532064108411,-1,-1,-7,-36,-8,-1,-5,1
1532064108416,2,1,4,0,-2,1,-1,2
1532064108421,-1,6,-2,12,-1,-2,-1,-1
1532064108426,3,9,4,4,1,0,1,-1
1532064108431,-1,-6,-3,-5,1,-2,-1,-1
1532064108436,-2,-7,2,-5,2,-1,-2,-2
1532064108441,-2,1,-4,-8,-7,-2,0,-2
1532064108446,0,3,2,-7,2,0,-2,-2
1532064108451,-1,10,0,3,-1,-1,-1,-1
1532064108456,1,-14,-1,0,2,-1,2,-2
1532064108461,1,5,3,1,-3,-1,-2,0
1532064108466,-1,-7,-3,-1,-4,-2,-2,0
1532064108471,2,5,-1,0,1,1,1,-2
1532064108476,0,9,2,-4,0,1,0,-1
1532064108481,-3,-9,-4,-5,-4,-1,1,-3
1532064108486,1,8,3,3,3,0,-1,1
1532064108491,-3,-29,-2,-2,3,-1,1,0
1532064108496,-1,-16,-11,3,-4,-2,-2,-2
1532064108501,-1,9,0,-6,-2,-2,-2,-2
1532064108506,0,4,-1,1,-4,-1,-1,-1
1532064108511,2,12,0,-1,4,0,1,1
1532064108516,-3,-10,1,3,2,1,0,-1
1532064108521,1,9,2,1,1,0,0,-1
1532064108526,1,-4,0,2,-3,-1,1,-1
1532064108531,-3,-21,-4,5,3,-2,0,-1
1532064108536,-1,0,2,-7,-10,-3,-3,0
1532064108541,2,13,5,8,10,1,0,0
1532064108546,0,6,2,-12,0,0,-1,0
1532064108551,1,7,-3,0,-6,0,-2,1
1532064108556,-2,-22,-2,-5,2,0,1,-1
1532064108561,0,9,4,0,-4,0,1,-1
1532064108566,2,8,1,14,2,0,2,2
1532064108571,-1,4,2,-27,-1,-1,0,-1
1532064108576,-1,-6,-5,-2,-2,-1,0,0
1532064108581,-2,2,-4,-1,-3,-2,-4,-3
1532064108586,-1,-1,0,1,3,-2,-1,-1
1532064108591,-2,-6,0,10,1,0,-1,-2
1532064108596,1,13,-1,-4,-2,-2,0,-2
1532064108601,-1,-4,-1,-2,-4,-2,-1,0
1532064108606,-3,-11,-5,1,0,-2,0,-2
1532064108611,1,3,1,0,-1,0,-2,1
1532064108616,0,1,0,-3,2,-2,-1,-2
1532064108621,-3,-9,-3,5,0,-1,-1,1
1532064108626,-3,-6,-4,-10,-4,-1,0,0
1532064108631,0,6,1,-1,-3,-1,0,-1
1532064108636,-1,-3,-1,3,1,-1,-1,-1
1532064108641,-2,-3,-3,-5,-3,-1,-1,0
1532064108646,-1,-3,2,-3,-2,-2,0,-3
1532064108651,0,1,2,15,1,0,1,-1
1532064108656,-1,0,-1,-6,0,-1,-1,0
1532064108661,-2,-6,-8,-18,-9,-4,-3,0
1532064108666,0,0,-2,1,0,0,-2,0
1532064108671,-2,-2,-2,8,1,0,-1,0
1532064108676,0,0,2,-3,-1,-1,-2,-2
1532064108681,-1,2,1,2,3,2,1,0
1532064108686,-2,-3,-1,-2,1,0,-2,-1
1532064108691,0,0,-2,-6,-3,-2,0,-2
1532064108696,-1,3,-2,-1,-2,0,0,0
1532064108701,-2,-1,-1,3,1,0,-1,-2
1532064108706,-2,-4,-2,-4,-2,-1,-1,2
1532064108711,-1,1,0,-2,1,1,0,-1
1532064108716,-1,0,-1,-4,-2,-1,-1,-1
1532064108721,0,0,1,-9,1,-1,1,0
1532064108726,-2,-1,1,9,0,-1,-1,-1
1532064108731,0,0,-4,-19,-2,-2,0,-1
1532064108736,-3,-2,-2,5,-3,-1,-2,-2
1532064108741,0,-1,1,11,1,1,0,-1
1532064108746,1,-1,1,-8,-1,-1,0,-2
1532064108751,-1,-1,0,5,-1,-1,-2,0
1532064108756,-1,1,-1,-10,0,1,0,-1
1532064108761,-2,1,0,7,1,-2,1,1
1532064108766,-1,-1,2,16,-2,1,0,1
1532064108771,-1,0,-1,-8,1,1,0,-2
1532064108776,-1,-1,1,3,0,-1,-1,0
1532064108781,0,0,-1,2,-3,-2,-4,-2
1532064108786,1,-1,0,-2,0,-1,-1,-3
1532064108791,-1,-1,0,2,-2,-1,-1,0
1532064108796,0,-3,-2,-10,-3,-2,0,1
1532064108801,0,-4,-1,-1,-2,-1,-2,-2
1532064108806,-2,-1,-2,-4,-1,0,0,1
1532064108811,-2,1,2,8,-2,-3,-3,-2
1532064108816,0,-1,-1,-12,-2,1,0,-2
1532064108821,-1,-2,-2,25,0,-1,1,-1
1532064108826,1,1,-1,-16,0,2,2,-1
1532064108831,-2,-3,-2,11,-3,-2,-3,3
1532064108836,0,0,-2,8,0,-2,-1,1
1532064108841,0,-1,-2,-10,-1,-1,0,-1
1532064108846,-1,0,-1,3,1,0,0,-4
1532064108851,-1,-2,0,9,0,0,0,-1
1532064108856,0,1,0,3,0,-1,-1,1
1532064108861,-1,-2,-2,-13,0,0,-3,1
1532064108866,0,-1,5,-5,-1,-4,-2,0
1532064108871,0,-4,-1,-16,-5,-1,-1,-1
1532064108876,0,-1,1,9,1,0,-1,-1
1532064108881,-1,0,1,18,3,1,-1,-1
1532064108886,-2,0,-5,-24,-2,-1,-1,-1
1532064108891,-3,0,-3,1,-2,-1,-2,0
1532064108896,-1,-2,-1,-8,-1,0,0,0
1532064108901,-1,1,-3,-3,-2,-1,0,-2
1532064108906,-1,-1,-3,2,0,-1,-1,1
1532064108911,1,1,1,6,2,-1,0,-3
1532064108916,-2,1,-2,4,1,0,-2,-1
1532064108921,1,0,-2,-30,4,2,2,1
1532064108926,-2,-5,-3,46,-10,-3,-3,-2
1532064108931,-3,-2,-4,10,2,-2,-3,1
1532064108936,-2,-1,1,3,-4,-2,-2,-1
1532064108941,1,2,2,0,-1,-1,-1,-3
1532064108946,2,2,-3,-29,1,0,1,-1
1532064108951,0,0,-3,7,-3,-1,0,-1
1532064108956,-3,-3,1,25,2,-1,-3,0
1532064108961,-2,-3,-1,1,-1,0,-1,1
1532064108966,-1,-1,-3,2,-1,-2,0,0
1532064108971,3,0,-1,-7,1,0,4,-2
1532064108976,-1,-1,-4,-26,-2,0,1,-1
1532064108981,-2,-1,-6,2,-4,-2,-1,-1
1532064108986,-1,1,-4,1,2,0,-1,-1
1532064108991,-2,0,2,-6,-1,0,-3,0
1532064108996,-1,0,3,-1,-2,-2,-1,-2
1532064109001,-1,-1,4,0,-2,-2,-2,-1
1532064109006,-2,-1,2,-3,0,2,2,-2
1532064109011,0,0,0,-3,1,-1,-1,-2
1532064109016,1,-2,-2,1,0,0,1,-1
1532064109021,-1,-2,1,-2,-2,0,-2,0
1532064109026,0,-1,-2,1,2,1,-1,1
1532064109031,0,0,2,4,-2,0,-1,-1
1532064109036,1,2,1,-17,2,1,2,-2
1532064109041,-3,-2,-3,7,-2,-1,-2,0
1532064109046,-3,-4,1,7,-4,-2,-5,-1
1532064109051,-1,-2,2,-6,-1,0,0,-1
1532064109056,1,0,0,2,0,0,1,-1
1532064109061,1,1,5,-3,2,-1,0,-1
1532064109066,-1,0,3,17,0,-1,-1,0
1532064109071,0,-1,-1,-19,-2,0,-1,0
1532064109076,-1,0,0,0,0,-1,-1,-2
1532064109081,0,-1,0,-6,-2,1,0,-1
1532064109086,-1,-2,-2,13,-2,-2,-2,-2
1532064109091,1,0,0,1,1,0,1,-1
1532064109096,-1,-2,-2,3,0,-1,-2,0
1532064109101,-1,-2,-2,-1,-1,-1,-1,-3
1532064109106,-2,1,-3,-10,1,-1,-2,-1
1532064109111,0,-1,-3,4,-1,-1,0,0
1532064109116,-2,0,-2,-11,-4,-3,-3,-1
1532064109121,0,-1,-1,8,-1,-1,-1,-1
1532064109126,-1,0,0,-5,1,-1,-1,0
1532064109131,-1,-2,-3,3,-2,-2,-2,-2
1532064109136,0,-1,0,6,-1,0,-1,-1
1532064109141,0,0,0,-8,-3,-1,1,-1
1532064109146,-2,2,-1,-5,-1,-1,0,-1
1532064109151,-2,-1,-2,-5,-1,-1,-1,-1
1532064109156,-1,-1,0,3,-2,-3,-2,-1
1532064109161,0,0,-2,-2,0,-1,-1,-1
1532064109166,0,-2,-1,-8,-3,0,0,0
1532064109171,0,-1,0,3,0,1,0,-2
1532064109176,0,-3,-1,0,-1,-2,-1,-1
1532064109181,0,-2,-2,-4,-1,-1,-2,0
1532064109186,0,-1,0,1,-1,0,1,-1
1532064109191,-2,0,0,6,1,0,-1,-2
1532064109196,-1,0,-2,-16,-1,-2,0,-1
1532064109201,-1,3,1,5,-2,-2,-2,0
1532064109206,0,-3,-2,-7,-1,-1,-3,-1
1532064109211,-1,0,0,-2,0,-3,1,-1
1532064109216,-1,-1,-2,3,-1,1,0,0
1532064109221,-3,-2,-1,0,0,-1,0,-1
1532064109226,-1,1,0,-2,-3,-1,-1,-1
1532064109231,0,1,-1,3,-3,-1,-2,1
1532064109236,-1,-1,-2,-6,-1,0,-1,-1
1532064109241,0,0,0,2,0,-1,1,-1
1532064109246,0,-1,1,1,-1,0,0,0
1532064109251,-1,-1,1,-6,0,-1,-2,-2
1532064109256,0,1,-1,5,-1,0,0,-1
1532064109261,0,0,-1,-4,-1,0,-1,2
1532064109266,0,-2,0,-1,0,-2,-1,-1
1532064109271,-1,-1,-1,1,-1,0,-2,0
1532064109276,-2,-1,0,0,-1,1,-1,-1
1532064109281,0,-1,-1,-2,-1,-1,-2,-3
1532064109286,0,-1,0,0,-3,0,-1,-1
1532064109291,-1,-1,-2,-4,-1,-2,0,-2
1532064109296,0,-1,-1,-3,-1,0,-1,-1
1532064109301,-3,-3,-2,8,-3,-1,-1,0
1532064109306,0,-1,-1,-10,2,-1,2,-2
1532064109311,-2,-1,-4,0,-4,-3,-3,1
1532064109316,0,-2,1,10,0,0,-1,-2
1532064109321,2,1,-2,-6,0,0,0,0
1532064109326,0,-2,-1,2,0,1,-1,-2
1532064109331,-1,-1,0,7,0,1,0,0
1532064109336,0,-3,-3,-6,-2,-1,-2,-2
1532064109341,0,-1,0,3,-1,-1,-1,-1
1532064109346,-2,-1,-2,-2,0,0,1,0
1532064109351,0,0,-2,-9,0,-1,1,-1
1532064109356,0,1,0,3,0,0,0,0
1532064109361,-1,-1,0,-5,2,0,1,-2
1532064109366,-1,-1,-1,4,0,-2,-2,-3
1532064109371,0,0,0,-6,-1,0,0,-1
1532064109376,-1,-1,0,4,0,0,0,1
1532064109381,0,-2,-1,4,-2,-1,-1,-1
1532064109386,0,-2,-1,-22,-2,-2,1,-3
1532064109391,-4,-3,-3,0,-5,0,-4,1
1532064109396,0,-1,0,4,-1,-1,-1,0
1532064109401,-2,0,-1,-4,-2,-1,-2,-2
1532064109406,1,0,0,3,0,-1,-2,1
1532064109411,-2,0,-1,11,1,-2,1,-2
1532064109416,-1,0,-2,-9,0,-1,0,0
1532064109421,-2,-1,0,2,-1,-2,-1,-1
1532064109426,-1,-1,-1,1,-1,-1,0,0
1532064109431,1,0,0,-10,-1,0,-1,-1
1532064109436,-1,0,1,21,0,-2,1,-1
1532064109441,-1,0,2,-14,1,-1,-2,-2
1532064109446,-1,-1,-3,-1,-1,0,-3,0
1532064109451,0,-1,-1,-2,0,0,-1,-1
1532064109456,-1,0,-1,-2,-2,-1,1,-2
1532064109461,-1,-2,2,3,0,0,-1,-1
1532064109466,-1,0,0,2,-5,-1,-1,1
1532064109471,-2,0,0,1,-1,0,1,-3
1532064109476,-2,-2,0,-3,-1,0,0,0
1532064109481,-2,0,-1,3,3,-1,0,-1
1532064109486,0,14,0,1,17,-3,-2,0
1532064109491,2,3,3,12,-22,0,2,-1
1532064109496,-2,2,-8,-31,-35,-1,0,2
1532064109501,0,-13,-2,-3,12,2,4,0
1532064109506,-2,-13,-11,0,-25,-1,-1,-3
1532064109511,0,16,7,4,29,-2,-2,-1
1532064109516,-5,-28,-6,-2,1,-2,-3,-4
1532064109521,1,12,10,2,-11,-1,-4,1
1532064109526,-2,-2,-5,-6,9,-1,-2,-2
1532064109531,0,3,1,-2,0,-2,-2,-1
1532064109536,0,10,5,17,4,1,1,-1
1532064109541,-1,1,-6,-7,5,1,-1,1
1532064109546,1,-2,4,21,3,1,0,0
1532064109551,-1,-6,-5,-25,-4,1,-1,1
1532064109556,-3,0,-1,-5,1,0,-2,0
1532064109561,0,-1,-3,1,-4,-3,1,0
1532064109566,-1,-1,2,0,-7,-1,-1,-2
1532064109571,0,-4,0,3,1,3,2,-1
1532064109576,1,3,1,1,11,-1,-1,-1
1532064109581,-2,-3,-3,-1,-4,-3,-2,-1
1532064109586,-2,-2,0,5,-7,0,-2,-1
1532064109591,-2,3,0,-24,-30,0,-1,1
1532064109596,0,-4,1,-3,-1,-2,-2,0
1532064109601,-2,-13,-12,-8,-19,-4,-2,-1
1532064109606,-1,14,6,6,8,-4,0,-1
1532064109611,-1,-18,-4,10,15,-2,0,-1
1532064109616,1,16,-1,-1,-2,-1,-3,-2
1532064109621,2,4,3,2,-2,0,2,0
1532064109626,1,-4,1,-5,6,0,1,-1
1532064109631,-3,-16,-7,0,2,1,-3,-1
1532064109636,-2,3,1,-4,1,-1,-1,0
1532064109641,2,8,2,3,5,-2,-2,0
1532064109646,-1,-6,1,-6,-5,-1,-3,-3
1532064109651,1,7,1,1,-6,-3,0,1
1532064109656,1,-5,-2,4,4,-1,1,-1
1532064109661,-2,1,1,0,-2,1,-2,-3
1532064109666,0,2,0,-4,-3,0,0,1
1532064109671,0,0,-1,2,3,0,1,0
1532064109676,-2,-8,-3,0,3,-1,-3,-2
1532064109681,-4,1,2,0,3,-1,-2,-1
1532064109686,-3,-6,-2,-5,0,2,1,0
1532064109691,0,4,1,2,4,0,-1,-2
1532064109696,0,0,-1,-5,-13,-4,-1,-1
1532064109701,0,2,0,1,5,1,-2,-2
1532064109706,-3,-19,-4,-2,2,-3,-1,2
1532064109711,-3,5,1,0,-3,-4,-3,-1
1532064109716,1,6,1,7,1,-1,0,0
1532064109721,2,-5,0,-7,-7,0,-1,-1
1532064109726,1,-2,-6,-3,-3,1,-2,-1
1532064109731,1,3,3,0,-1,-2,-2,1
1532064109736,-2,-22,-6,-2,3,-1,-2,-3
1532064109741,-1,7,4,7,22,2,1,-1
1532064109746,1,20,3,-8,-15,-3,-2,-1
1532064109751,-1,-26,-1,1,1,-1,-2,-2
1532064109756,0,11,-2,0,-1,-1,-1,-1
1532064109761,-1,-3,-2,-1,-4,-3,0,-1
1532064109766,-1,1,0,0,8,2,2,1
1532064109771,1,6,-2,0,0,-1,0,-1
1532064109776,0,7,3,1,1,0,1,-1
1532064109781,-2,-10,-2,2,2,1,-1,-2
1532064109786,-2,6,-1,-2,-2,-2,-1,-2
1532064109791,-2,-3,-4,-1,-5,-1,-1,-2
1532064109796,-1,-1,3,0,10,2,0,0
1532064109801,0,6,-1,-4,-5,-4,-1,-3
1532064109806,-3,0,1,-3,-10,0,-3,0
1532064109811,-2,3,-2,2,6,-1,-1,1
1532064109816,-3,2,5,4,4,2,2,0
1532064109821,-4,-20,-10,-2,-1,1,1,0
1532064109826,-3,-5,0,-3,1,-1,-3,-1
1532064109831,-2,-1,1,-6,-2,-2,-2,-1
1532064109836,-2,3,-1,2,-3,0,1,1
1532064109841,2,11,4,-4,-4,-3,-2,-2
1532064109846,1,-8,-1,2,4,1,3,0
1532064109851,-1,-7,-1,4,-3,1,1,-1
1532064109856,2,2,1,-4,-1,-1,-3,-3
1532064109861,0,1,-3,1,3,0,0,0
1532064109866,1,-3,2,2,-5,-1,-2,-4
1532064109871,1,4,-3,-9,-15,-4,-2,0
1532064109876,-1,-17,-4,-3,1,0,-2,-2
1532064109881,0,-2,-3,-9,-6,-2,-2,-1
1532064109886,2,4,1,9,7,-2,0,0
1532064109891,-2,0,-1,-1,2,1,-1,0
1532064109896,0,-1,-3,-3,-4,-2,0,-1
1532064109901,1,11,3,2,0,0,-1,-2
1532064109906,0,-18,-4,-5,-5,0,1,-1
1532064109911,0,-2,-3,-1,5,1,0,-2
1532064109916,0,-2,-4,-2,0,-2,-3,-1
1532064109921,0,3,2,1,1,1,1,-1
1532064109926,-1,3,0,-4,-1,-1,1,1
1532064109931,0,-1,1,1,-2,0,-1,-1
1532064109936,0,3,2,-1,-2,-1,-2,-1
1532064109941,-2,-2,1,3,-1,-1,1,0
1532064109946,-3,-2,-8,0,3,3,0,-2
1532064109951,0,4,-5,-1,3,1,2,-2
1532064109956,0,-2,-2,1,-4,-1,-1,0
1532064109961,-3,-6,0,0,-3,-2,-3,-2
1532064109966,0,2,7,-5,-3,-4,-3,-3
1532064109971,0,1,5,4,-6,0,1,0
1532064109976,0,2,1,-3,5,2,1,-3
1532064109981,-2,-5,0,2,2,3,3,-1
1532064109986,-1,-2,1,-1,-3,-2,-1,-3
1532064109991,0,6,2,-4,0,-2,-3,-1
1532064109996,-2,-7,0,0,-5,-1,-1,1
1532064110001,-1,1,-1,-3,-9,-3,-2,1
1532064110006,0,6,0,-3,-2,0,-2,-1
1532064110011,-2,0,1,7,16,3,1,0
1532064110016,-1,0,-1,0,-11,3,-1,3
1532064110021,1,7,-2,-2,9,-1,-1,-2
1532064110026,1,13,0,-4,0,-1,-1,-1
1532064110031,-3,-47,-7,8,8,-1,-1,-1
1532064110036,-3,4,-3,-17,-12,-2,-1,-1
1532064110041,-1,-2,-1,1,-4,0,0,0
1532064110046,0,9,-1,3,-7,-2,-1,0
1532064110051,0,12,6,-5,3,-2,0,0
1532064110056,-3,-9,-3,-2,6,0,1,0
1532064110061,-1,-5,-1,3,-13,-4,-3,0
1532064110066,-2,-6,-2,3,8,1,-1,-1
1532064110071,2,8,1,-10,-1,1,-1,0
1532064110076,-1,1,0,0,-3,-3,-1,-2
1532064110081,1,-1,-2,-8,-1,2,-1,1
1532064110086,-2,1,0,8,5,-1,1,-1
1532064110091,-3,-17,-11,-1,-6,-5,-6,-5
1532064110096,2,10,4,8,0,-2,-4,-2
1532064110101,-2,-1,0,-14,2,2,4,1
1532064110106,-1,5,-2,2,0,3,0,2
1532064110111,0,-6,1,3,9,-2,-1,1
1532064110116,-1,-18,-5,-5,-8,-2,0,-3
1532064110121,-1,-1,-5,9,-5,-5,-5,-2
1532064110126,-1,-21,-4,-5,-3,-1,-1,-1
1532064110131,0,25,3,-2,4,3,2,1
1532064110136,-1,2,4,7,2,0,0,0
1532064110141,-1,-7,-5,0,9,0,-1,-1
1532064110146,0,10,5,1,-8,-6,-3,-1
1532064110151,0,-16,1,28,-5,-1,-1,-1
1532064110156,-3,2,-3,-43,3,0,1,0
1532064110161,0,2,4,11,5,3,0,0
1532064110166,1,8,-2,-8,2,-1,-2,-1
1532064110171,0,8,3,-7,-17,-3,-2,-1
1532064110176,-1,-6,-1,13,7,0,1,1
1532064110181,1,3,0,-8,-9,-4,-4,-3
1532064110186,-2,-5,-2,-12,2,-1,-1,-1
1532064110191,0,7,-2,4,1,0,2,0
1532064110196,0,8,-4,1,1,3,1,-2
1532064110201,-2,-18,-4,1,1,-2,-1,0
1532064110206,-2,1,4,8,-1,0,-2,-1
1532064110211,0,5,-2,-12,-4,-2,-2,-1
1532064110216,-1,4,1,0,-3,-2,-1,-1
1532064110221,-1,-1,1,-5,-2,1,-1,-1
1532064110226,0,4,0,-4,1,2,-1,0
1532064110231,-1,-3,2,-1,-1,-3,-1,-2
1532064110236,-1,-20,-8,21,-1,0,0,-4
1532064110241,1,4,0,-38,-2,-1,-1,-1
1532064110246,-1,-4,-1,3,-6,0,-1,1
1532064110251,1,9,2,6,6,2,1,0
1532064110256,-1,4,3,1,-3,-3,-4,-1
1532064110261,-1,4,-2,2,0,-2,1,0
1532064110266,-3,-21,-5,-8,2,1,3,-3
1532064110271,0,10,1,4,-4,-1,-2,0
1532064110276,-1,7,2,6,1,-1,-1,1
1532064110281,-1,-9,-3,13,0,1,-3,-3
1532064110286,0,4,1,-7,-2,0,1,0
1532064110291,-3,-5,-6,-7,-4,1,1,-1
1532064110296,1,4,3,3,-1,-4,1,-3
1532064110301,-1,6,1,1,-1,-3,-2,-1
1532064110306,-2,-10,-2,13,-2,-1,-3,-1
1532064110311,0,-6,-1,-20,-5,-1,0,-3
1532064110316,-2,-2,-3,-3,-3,2,-1,0
1532064110321,-3,-3,-5,4,2,2,0,1
1532064110326,-1,-6,-1,-1,1,-1,0,1
1532064110331,0,2,1,4,-4,-4,-2,0
1532064110336,0,1,1,-10,0,-4,-3,-2
1532064110341,-1,-4,0,0,0,-2,-3,-2
1532064110346,-1,4,-2,-5,-8,0,1,0
1532064110351,-1,-12,0,23,3,-1,1,-2
1532064110356,0,0,-1,-22,-2,-2,1,0
1532064110361,-1,-6,-1,7,2,1,-2,1
1532064110366,1,1,0,-1,2,-2,-2,-2
1532064110371,0,2,-5,-14,-4,0,-1,1
1532064110376,0,-5,-2,6,3,-2,0,0
1532064110381,2,5,5,2,-1,-3,-1,-3
1532064110386,-1,0,-1,-9,-1,-1,-1,-2
