1532289842128,0,2,-1,-3,-1,2,-10,1
1532289842133,-12,-3,-2,-1,-3,-4,-11,-12
1532289842138,5,-7,-4,2,-14,-7,2,2
1532289842143,12,5,0,-3,2,7,-4,14
1532289842148,24,2,4,5,1,-2,-24,6
1532289842153,-26,-7,-2,-4,-22,-41,-12,-17
1532289842158,1,0,-4,-7,5,37,6,2
1532289842163,-4,3,0,5,27,39,2,-9
1532289842168,5,-2,-3,-8,-9,-12,5,4
1532289842173,11,1,-2,-5,-4,-6,-12,7
1532289842178,-16,-3,5,9,-23,-39,3,-1
1532289842183,1,-3,-3,-3,-8,-5,-2,-3
1532289842188,2,1,-1,-2,17,34,-3,0
1532289842193,-1,-3,-4,1,-13,-20,-10,2
1532289842198,-13,-3,-3,-6,4,-15,-3,-3
1532289842203,-2,-1,-2,0,4,12,7,-7
1532289842208,5,-2,-4,-6,-9,-28,-3,-9
1532289842213,3,1,1,-8,11,21,9,5
1532289842218,4,0,2,14,15,14,6,-3
1532289842223,0,0,2,2,-3,-4,-13,1
1532289842228,-9,1,4,0,-6,-17,-9,5
1532289842233,-1,-8,-24,-12,-3,2,-5,-1
1532289842238,-3,2,5,6,9,21,7,-2
1532289842243,6,1,0,3,-8,-18,-5,-1
1532289842248,-3,-5,10,2,-3,-9,2,3
1532289842253,6,6,4,-5,8,22,26,8
1532289842258,0,-8,-10,-5,2,1,5,-2
1532289842263,6,11,13,3,-9,-7,5,6
1532289842268,-4,-7,-2,5,-1,3,116,-3
1532289842273,6,-5,-19,-1,8,13,60,1
1532289842278,0,-1,0,-3,-6,1,76,-5
1532289842283,-2,0,-1,1,-15,-35,65,-7
1532289842288,-11,4,21,0,15,26,2,0
1532289842293,23,-10,4,-4,-9,-19,-24,-3
1532289842298,3,-1,-40,0,3,9,-33,5
1532289842303,1,-3,-2,7,0,5,-60,3
1532289842308,0,5,-11,-16,-10,-10,-81,-2
1532289842313,-16,-5,18,-2,-4,-5,-77,-4
1532289842318,3,4,11,7,4,-2,-45,9
1532289842323,5,-1,-4,4,15,26,-29,3
1532289842328,-1,-2,-3,1,-7,-4,-20,-2
1532289842333,3,5,-1,3,15,26,-25,-1
1532289842338,-19,1,13,-2,-9,-35,-11,-11
1532289842343,-1,10,12,-4,-1,-1,3,7
1532289842348,-6,-13,-33,-3,-6,-4,-4,0
1532289842353,-2,1,-3,-5,4,10,3,-1
1532289842358,4,2,-2,2,3,21,-3,-17
1532289842363,-8,-3,9,-3,-16,-35,-11,-23
1532289842368,8,0,2,-8,-7,-16,-16,-3
1532289842373,8,6,-2,11,1,0,11,36
1532289842378,5,-4,8,-6,6,19,15,8
1532289842383,-4,-10,-17,-17,-7,-8,-4,-1
1532289842388,-2,2,-5,0,-11,-23,-5,-8
1532289842393,-4,4,0,7,15,18,11,-6
1532289842398,-11,0,13,2,2,19,0,0
1532289842403,6,-5,-5,-4,6,14,20,2
1532289842408,6,3,-4,5,0,-19,6,3
1532289842413,-7,-1,12,4,-8,-11,33,-9
1532289842418,5,0,-2,-5,0,-4,10,8
1532289842423,-9,-4,-10,-2,3,9,-7,-2
1532289842428,3,0,4,1,5,15,-29,3
1532289842433,-7,1,-1,-3,-9,-9,10,-5
1532289842438,-3,-4,-2,-3,-8,-21,10,-7
1532289842443,-1,0,-8,-1,0,12,-5,-10
1532289842448,7,3,7,7,5,10,6,8
1532289842453,-5,-4,-2,-7,-9,-25,-10,-7
1532289842458,-1,1,-5,-6,-9,28,-11,-4
1532289842463,7,-2,3,4,16,7,2,9
1532289842468,-2,-2,1,-3,-10,2,6,3
1532289842473,0,-1,-4,4,16,42,-3,-12
1532289842478,-28,-5,-4,-11,-14,-78,-29,-3
1532289842483,39,1,3,1,-10,-7,0,13
1532289842488,-17,-4,-3,6,17,24,9,-33
1532289842493,12,-3,0,0,-4,-13,-8,20
1532289842498,5,-1,2,10,5,13,-6,0
1532289842503,-16,0,1,-2,-7,-17,-7,-6
1532289842508,-3,-1,3,3,4,2,1,6
1532289842513,6,3,-3,-8,-14,-17,-17,-12
1532289842518,-11,-5,-4,-1,8,13,-3,-13
1532289842523,-13,12,1,3,1,1,-17,8
1532289842528,23,-13,6,5,4,7,6,26
1532289842533,0,7,-5,-12,-7,-9,-9,-6
1532289842538,10,8,0,-2,-14,-28,-7,-1
1532289842543,-16,-23,-8,-6,-6,-7,-5,-16
1532289842548,-9,7,2,5,13,54,-12,-3
1532289842553,0,-1,1,2,-6,-43,-13,0
1532289842558,6,-5,-1,6,0,-15,-7,-3
1532289842563,-3,24,5,-11,2,-21,0,0
1532289842568,-9,-20,-9,-9,-12,-28,3,0
1532289842573,-15,-13,-9,0,-10,19,20,2
1532289842578,11,0,0,-5,5,-5,3,0
1532289842583,-5,-4,0,1,-22,-42,18,11
1532289842588,4,15,7,4,30,53,0,-3
1532289842593,-14,-4,0,-13,-16,-33,-7,-5
1532289842598,3,-1,2,8,8,9,7,6
1532289842603,9,17,-2,-8,0,13,6,2
1532289842608,13,63,5,-6,-7,-37,-9,3
1532289842613,-24,-45,-13,4,3,-3,11,-8
1532289842618,-3,10,-1,-5,-13,13,0,-17
1532289842623,-4,-16,-7,-3,5,16,6,15
1532289842628,12,90,2,0,13,41,-4,3
1532289842633,4,-57,-3,5,13,23,7,13
1532289842638,4,8,7,4,12,15,1,-8
1532289842643,-21,-19,-5,0,-12,2,-24,-50
1532289842648,3,-16,-6,-6,-20,-31,4,56
1532289842653,32,82,17,-3,-3,-4,12,4
1532289842658,-11,-52,1,8,2,5,7,11
1532289842663,8,4,-8,-2,-1,12,15,-10
1532289842668,-15,-37,-7,-1,-2,-6,-3,-24
1532289842673,-8,-25,-3,-5,-1,6,-11,-6
1532289842678,7,30,-4,-15,-14,-24,-13,8
1532289842683,0,3,5,14,-3,-23,-11,2
1532289842688,-5,-42,-3,-1,3,13,6,-9
1532289842693,4,27,3,-3,-25,-46,-13,3
1532289842698,3,15,4,16,39,64,18,3
1532289842703,0,-5,-1,-8,4,3,14,8
1532289842708,9,-12,-3,-3,-4,-5,1,-4
1532289842713,-21,19,6,4,4,15,5,-4
1532289842718,-4,-6,-4,-9,-15,-48,0,-3
1532289842723,0,-12,1,5,8,33,5,7
1532289842728,14,-24,-1,6,-8,-35,4,-7
1532289842733,1,10,-1,-2,14,37,-11,9
1532289842738,-2,-13,-5,-13,-32,-39,-8,-2
1532289842743,-4,18,-3,2,18,38,0,-1
1532289842748,4,-9,-1,-1,3,-2,-3,-4
1532289842753,-15,7,0,1,3,3,-2,-14
1532289842758,-9,-22,-1,6,4,-7,18,0
1532289842763,18,8,-18,-1,-3,-9,3,11
1532289842768,-11,-5,-6,-16,-25,-44,13,-14
1532289842773,2,-11,2,2,17,21,-19,-5
1532289842778,-3,12,7,-1,10,36,1,3
1532289842783,6,1,9,1,-4,-32,2,6
1532289842788,-8,-3,-1,6,0,-6,7,-14
1532289842793,-4,1,0,-3,-9,-23,1,-5
1532289842798,5,9,-2,0,7,21,5,-5
1532289842803,1,-7,3,4,3,7,4,3
1532289842808,-5,1,0,-4,2,8,-2,0
1532289842813,6,1,0,-2,-7,3,15,4
1532289842818,0,-4,-7,-4,-11,-36,-39,-5
1532289842823,-4,-3,1,1,6,13,-68,-4
1532289842828,-5,4,-1,-1,8,18,-35,1
1532289842833,3,-4,-2,0,5,51,10,-4
1532289842838,6,-1,-1,-5,-7,-39,17,7
1532289842843,-2,-1,8,9,14,62,28,9
1532289842848,-22,-1,-5,-9,-11,-11,21,-13
1532289842853,1,-6,-4,0,8,14,-9,-2
1532289842858,8,0,-4,6,-3,-14,16,8
1532289842863,4,2,1,-13,-10,-25,11,1
1532289842868,-7,-1,4,10,5,3,16,4
1532289842873,16,1,0,-2,-12,-8,22,4
1532289842878,-9,2,1,4,6,2,-73,-7
1532289842883,-8,0,2,-1,-11,-23,21,-12
1532289842888,1,-2,0,-1,0,4,-22,-1
1532289842893,4,0,-2,7,12,-32,-17,-7
1532289842898,21,-2,-4,-9,-4,4,42,5
1532289842903,-2,-4,-5,-12,-6,25,-29,14
1532289842908,11,2,2,-3,-2,-5,-20,4
1532289842913,-9,-2,0,0,-8,-19,-48,-7
1532289842918,-5,2,2,4,3,3,24,4
1532289842923,-7,-3,-1,1,2,-38,-1,-12
1532289842928,6,2,-4,0,2,36,4,10
1532289842933,-3,3,-1,-1,-8,-15,-12,-9
1532289842938,-7,1,2,5,5,23,-9,1
1532289842943,3,0,-1,-2,-7,-27,18,-1
1532289842948,7,-6,-2,-5,-8,-12,-5,-1
1532289842953,-20,-4,2,6,6,6,9,4
1532289842958,-4,0,-2,-3,2,17,32,-17
1532289842963,-9,0,0,1,-3,-2,-57,-10
1532289842968,0,-1,-2,1,-1,-16,9,7
1532289842973,5,1,1,-2,3,7,42,5
1532289842978,-10,-5,-4,-6,-15,-28,-22,-10
1532289842983,4,-1,1,3,2,10,0,7
1532289842988,-3,-3,-6,-9,-4,-5,5,-15
1532289842993,-8,-8,-8,-8,-11,-20,53,-11
1532289842998,8,10,6,6,12,14,-89,15
1532289843003,3,-9,-1,3,0,-8,10,-5
1532289843008,3,5,0,1,-5,-3,-3,-2
1532289843013,-7,6,2,-3,-8,-15,11,-8
1532289843018,-5,1,0,-5,-2,19,2,-3
1532289843023,2,-2,-2,-4,2,20,63,2
1532289843028,5,-1,3,5,0,-13,-51,2
1532289843033,-7,-3,1,7,10,-7,-49,0
1532289843038,-17,0,-1,1,0,37,13,1
1532289843043,26,0,-2,-1,-6,-10,27,12
1532289843048,-28,-2,-7,-9,-9,-3,11,13
1532289843053,27,0,-3,5,9,27,81,8
1532289843058,7,0,-2,-5,3,-17,-32,-5
1532289843063,-23,-8,-2,6,1,14,-3,-7
1532289843068,-31,-3,0,-9,-18,-67,23,-34
1532289843073,19,5,7,7,24,93,8,30
1532289843078,-6,-3,-2,-2,-5,-12,17,3
1532289843083,8,5,-2,1,5,12,4,3
1532289843088,6,-5,-3,-3,-8,-41,-14,-1
1532289843093,-15,-4,1,4,2,-10,7,-5
1532289843098,18,1,3,2,-1,6,-5,2
1532289843103,1,3,-2,-7,-8,-18,-30,-8
1532289843108,-2,-1,1,2,4,7,-8,1
1532289843113,1,-1,-4,-5,-7,-29,-9,-6
1532289843118,-8,2,6,4,2,7,-13,8
1532289843123,-3,-2,-7,-8,-8,-11,60,-10
1532289843128,-4,0,-1,-5,4,31,71,-6
1532289843133,15,-1,-4,-8,-13,-2,-69,-2
1532289843138,-10,-3,-2,1,7,-24,10,-22
1532289843143,-16,-1,6,7,0,3,-28,-6
1532289843148,16,4,3,13,31,104,93,18
1532289843153,-15,-3,1,3,-6,-43,-55,0
1532289843158,-6,-2,-3,-8,-9,2,88,2
1532289843163,-12,-6,-4,-9,-8,-48,-31,-1
1532289843168,19,-1,-1,1,2,-5,-18,14
1532289843173,-9,5,1,-3,-6,2,4,-12
1532289843178,3,-1,0,-1,-9,-16,-2,4
1532289843183,6,2,-4,-4,10,23,-11,0
1532289843188,3,-5,-3,-3,-12,-29,-9,-6
1532289843193,4,-2,-4,-5,2,3,6,7
1532289843198,-3,-4,-4,-4,-4,6,7,0
1532289843203,2,0,-2,-4,3,6,14,-4
1532289843208,-2,-2,-1,-2,0,1,-46,-9
1532289843213,1,-1,1,7,0,-15,-1,0
1532289843218,2,-2,-1,2,2,15,38,4
1532289843223,-4,2,-2,-12,-5,-11,-69,-10
1532289843228,13,1,0,4,-1,-12,-24,-1
1532289843233,-17,-6,-3,-8,-4,21,11,-11
1532289843238,3,0,-2,-1,-7,-29,-30,-6
1532289843243,1,5,7,15,2,-2,29,4
1532289843248,0,2,-5,-4,-9,-85,-29,-1
1532289843253,8,-3,-1,-4,12,67,-65,6
1532289843258,2,1,-4,-1,3,19,28,-2
1532289843263,-8,-2,0,-4,2,42,-23,-8
1532289843268,23,2,4,6,2,1,-14,22
1532289843273,4,0,3,8,0,-33,-23,7
1532289843278,14,2,-2,2,3,-11,4,8
1532289843283,-32,-9,-2,0,-4,-11,-3,-5
1532289843288,16,3,2,0,2,25,29,8
1532289843293,9,4,-1,-1,-2,-6,-28,-4
1532289843298,-8,-3,-1,1,-1,8,-16,-2
1532289843303,14,4,3,8,7,0,-36,17
1532289843308,-11,-4,-5,-1,0,14,13,-14
1532289843313,-9,-1,0,-4,-6,-7,28,-1
1532289843318,5,-3,4,1,1,-2,-1,3
1532289843323,3,4,-8,-3,-5,-33,7,0
1532289843328,1,-1,-2,-9,-5,-3,0,-5
1532289843333,-3,-2,2,4,-4,-18,-6,1
1532289843338,-3,1,1,2,-2,-3,-4,-2
1532289843343,5,-3,-2,-8,-3,-3,8,7
1532289843348,-7,1,0,5,1,8,-3,-1
1532289843353,7,0,18,6,7,-10,-7,2
1532289843358,-6,-4,-19,-5,-5,-1,5,-5
1532289843363,-4,-2,-5,-8,-5,-14,0,-3
1532289843368,-7,2,-3,-3,1,17,7,-6
1532289843373,4,2,-3,3,0,14,8,5
1532289843378,9,-1,16,11,0,-11,-22,6
1532289843383,-27,-3,-2,3,3,-8,-15,-18
1532289843388,4,-2,-10,-9,0,8,1,3
1532289843393,-2,3,4,-3,-1,2,26,-6
1532289843398,2,-2,4,0,0,3,-7,0
1532289843403,7,2,-7,1,-2,18,4,3
1532289843408,-10,-4,2,5,2,16,-6,0
1532289843413,-1,-1,-10,-4,-6,-9,-12,-3
1532289843418,-4,1,2,-1,0,-14,4,-2
1532289843423,-1,-3,3,-6,-1,-10,8,0
1532289843428,0,-1,1,2,2,-9,-5,2
1532289843433,3,0,-4,-3,-4,-13,3,3
1532289843438,-5,-1,-2,-1,-4,-5,6,-4
1532289843443,1,-2,1,0,-1,-1,12,-4
1532289843448,-3,0,2,7,7,4,6,-1
1532289843453,2,-1,-3,3,0,1,0,0
1532289843458,-1,3,2,-6,-1,9,-1,-2
1532289843463,6,0,-2,-1,-4,-1,-2,0
1532289843468,0,-1,0,-4,-2,1,-6,-1
1532289843473,-2,-1,-2,-12,-2,1,-6,1
1532289843478,-1,0,11,13,3,0,1,-4
1532289843483,-2,-4,-13,-8,-7,-32,0,-1
1532289843488,-3,-4,-7,-6,1,-6,3,-3
1532289843493,-6,-7,1,4,-2,3,11,-3
1532289843498,6,-2,-3,-8,-3,8,4,2
1532289843503,11,18,11,13,0,9,14,14
1532289843508,5,5,4,6,3,8,0,0
1532289843513,5,0,3,8,7,2,0,-1
1532289843518,-10,-8,-4,-8,-6,1,-6,-6
1532289843523,1,-8,-7,-13,-2,16,-3,-5
1532289843528,-6,-4,2,2,-6,-10,6,0
1532289843533,2,-2,2,-6,-1,5,104,-2
1532289843538,-7,-5,-13,-2,-4,-4,82,0
1532289843543,5,1,-3,-6,-3,-2,13,-4
1532289843548,-1,-1,-3,-11,-6,5,-41,-2
1532289843553,-2,0,1,7,-2,-3,-73,0
1532289843558,3,-1,0,1,6,1,-50,1
1532289843563,-6,-2,3,1,1,-1,-42,0
1532289843568,-5,-3,0,4,3,-3,-28,-11
1532289843573,0,0,-4,-5,-1,-9,-35,9
1532289843578,0,3,-3,-13,-9,-4,-16,1
1532289843583,-1,-5,-3,2,0,-4,-17,-2
1532289843588,-2,0,-1,-2,0,-4,-2,-3
1532289843593,1,-4,-4,8,2,0,-11,-14
1532289843598,1,1,4,4,6,4,-40,19
1532289843603,1,1,3,-1,2,-3,-8,-1
1532289843608,2,1,-4,-1,-2,1,0,3
1532289843613,-8,-1,-4,-7,-4,-3,-20,-5
1532289843618,-1,-3,2,12,4,1,-21,0
1532289843623,-5,-2,4,-1,1,-1,-19,-2
1532289843628,-2,5,-5,-2,-5,-2,-11,1
1532289843633,-6,-11,-7,-10,-5,-3,-13,1
1532289843638,10,8,-1,-6,-3,-3,16,-10
1532289843643,3,-7,1,6,1,-1,22,7
1532289843648,-6,2,6,1,0,4,19,-7
1532289843653,-2,2,-1,2,0,-3,11,-2
1532289843658,-3,-4,-3,4,4,-3,13,-4
1532289843663,7,1,1,-1,-3,0,6,0
1532289843668,-13,-4,-6,-11,-4,-8,15,-4
1532289843673,2,1,0,-1,-2,3,2,-6
1532289843678,-10,-1,-2,-5,-4,-3,-3,0
1532289843683,9,4,2,6,3,0,11,-2
1532289843688,2,-4,1,2,-1,0,15,14
1532289843693,-5,4,1,1,2,4,4,-6
1532289843698,-3,-3,-1,1,-2,-1,4,-5
1532289843703,-5,-1,-3,-6,-4,-1,4,-1
1532289843708,6,-3,-3,1,-1,-1,2,-2
1532289843713,4,3,0,-4,-1,2,-98,-1
1532289843718,-4,-2,0,-4,-3,-2,-39,-1
1532289843723,-10,-3,0,-1,2,-4,-25,-12
1532289843728,1,-7,-2,-2,-2,1,15,11
1532289843733,-4,2,-2,-4,-1,-2,41,3
1532289843738,12,4,1,-1,-3,-1,13,3
1532289843743,-24,-1,0,0,1,1,15,-9
1532289843748,2,-2,1,2,2,2,18,-2
1532289843753,4,-2,2,4,-2,-3,20,6
1532289843758,2,3,1,5,1,-2,6,-1
1532289843763,-7,-3,-4,-13,-4,2,18,-2
1532289843768,-4,-3,0,9,-1,1,-3,2
1532289843773,2,-2,-4,-17,-5,-8,7,-2
1532289843778,0,1,-2,3,2,-1,6,-4
1532289843783,24,1,-5,-8,-1,-2,0,9
1532289843788,-41,-4,2,1,1,5,5,-16
1532289843793,19,1,2,10,2,-3,3,4
1532289843798,-4,1,-1,-3,1,-1,-3,1
1532289843803,3,-3,-4,-4,-5,-1,-1,0
1532289843808,12,4,0,-1,-1,-2,-8,1
1532289843813,-1,0,-1,0,0,0,10,3
1532289843818,-9,-6,-1,-3,-2,1,6,-5
1532289843823,1,-1,2,12,5,2,-7,1
1532289843828,6,3,-3,-2,1,-5,-2,-1
1532289843833,-7,-2,-3,-6,-4,-1,4,0
1532289843838,8,-2,-2,-3,-3,-3,-2,4
1532289843843,-5,3,0,2,-2,-1,2,0
1532289843848,5,2,3,3,2,0,-4,-2
1532289843853,-3,-2,-2,0,0,2,0,-2
1532289843858,-5,-3,-2,-5,-5,-2,1,-1
1532289843863,-3,0,4,3,0,-1,3,-2
1532289843868,0,6,1,6,2,-1,-8,0
1532289843873,1,-9,-3,-4,-4,-3,-3,1
1532289843878,-4,-4,-6,-14,-7,-1,8,-1
1532289843883,-1,-1,2,-1,-4,-1,4,0
1532289843888,4,-2,-1,-3,2,-2,10,-1
1532289843893,-1,2,2,3,4,1,9,3
1532289843898,1,4,1,7,3,0,4,-5
1532289843903,5,-1,-1,0,1,-2,-6,-5
1532289843908,-15,-4,-2,-1,1,1,-11,-7
1532289843913,3,-2,-1,1,-4,-1,-1,5
1532289843918,-9,-4,-1,-7,-2,-1,8,-8
1532289843923,-3,0,-3,0,-3,0,4,3
1532289843928,6,-1,1,-4,-2,-1,-1,3
1532289843933,1,1,-2,8,1,-2,-8,-11
1532289843938,7,-1,0,1,1,0,-6,-1
1532289843943,-1,1,-2,-5,-3,0,-1,5
1532289843948,2,-3,-3,-4,-2,1,3,-3
1532289843953,-14,0,3,6,5,4,-4,-2
1532289843958,10,0,-1,7,-3,-5,-14,-2
1532289843963,-4,-5,-4,0,3,-2,-7,0
1532289843968,9,-3,-3,-10,-10,-5,-12,0
1532289843973,-1,1,-3,-8,-2,-1,-14,2
1532289843978,-4,-3,-1,2,3,1,-4,0
1532289843983,9,5,0,6,3,-5,-16,1
1532289843988,-24,-6,0,-9,-1,3,-10,-3
1532289843993,8,1,-1,2,-6,-1,5,-1
1532289843998,-6,-3,-1,-6,-3,-3,-6,3
1532289844003,8,-2,0,4,0,0,-5,-1
1532289844008,-9,-2,2,5,2,1,3,-1
1532289844013,-4,1,-1,-1,-2,-2,-3,-3
1532289844018,-3,1,0,-1,-3,0,2,0
1532289844023,-4,-3,0,-2,-4,1,3,-6
1532289844028,6,-3,-7,-5,2,-3,0,-4
1532289844033,0,3,4,0,0,0,8,7
1532289844038,0,2,2,3,0,2,6,1
1532289844043,-6,0,1,2,-3,-2,2,-1
1532289844048,7,0,2,7,5,6,6,1
1532289844053,-4,-5,-4,-3,1,-3,-1,-10
1532289844058,0,1,-1,-6,1,4,6,2
1532289844063,-7,-2,2,1,-1,-4,3,-1
1532289844068,4,0,2,15,0,-3,-1,1
1532289844073,3,0,-4,-19,-5,1,5,1
1532289844078,-3,0,0,5,-2,-3,2,-3
1532289844083,-8,-8,-3,-7,-3,0,2,4
1532289844088,7,7,-1,-5,-5,-6,2,3
1532289844093,-2,3,5,7,1,0,2,3
1532289844098,3,1,3,7,1,2,-2,0
1532289844103,-9,-5,-6,-6,0,0,3,-6
1532289844108,5,-4,-5,-10,-9,-1,5,2
1532289844113,-4,-1,-1,1,4,-2,2,-2
1532289844118,-1,-2,-1,0,2,-2,5,0
1532289844123,14,3,1,4,8,8,-3,4
1532289844128,-16,0,1,-3,-1,0,1,-4
1532289844133,-1,-4,1,3,-4,-4,0,-6
1532289844138,-3,0,-2,-6,-1,0,-5,-5
1532289844143,-3,-2,-3,-2,-5,-4,-3,-2
1532289844148,7,5,1,6,0,-1,-6,2
1532289844153,-3,-2,-2,-3,0,-5,-19,-3
1532289844158,-1,-4,-5,-15,-3,4,0,-7
1532289844163,1,1,-1,3,0,2,2,10
1532289844168,6,0,-6,-10,-7,-7,1,-10
1532289844173,-2,-2,0,3,-3,-2,4,8
1532289844178,0,-2,0,7,23,-6,0,0
1532289844183,-8,1,4,0,20,4,10,-2
1532289844188,4,0,-1,-2,8,-2,67,-4
1532289844193,-6,-7,-2,1,1,-2,64,5
1532289844198,-2,-1,-2,-5,-14,-2,17,-8
1532289844203,-3,0,0,-3,-17,-7,-2,-3
1532289844208,0,-1,-1,3,-11,1,-48,3
1532289844213,7,-2,-2,-7,-8,7,-41,-5
1532289844218,-2,5,-1,2,-9,4,-20,7
1532289844223,1,1,3,12,-2,1,-26,-9
1532289844228,-11,-4,0,-2,-6,-8,-18,-4
1532289844233,-15,-3,-7,-15,-7,-2,-8,-8
1532289844238,11,-1,4,14,-3,-18,-6,9
1532289844243,2,1,-2,-4,2,18,8,-1
1532289844248,1,-5,-7,-12,-7,-6,0,3
1532289844253,-2,1,-1,0,1,-3,-5,-4
1532289844258,-4,-2,2,4,-1,2,-12,-4
1532289844263,2,1,-2,3,3,-3,0,-1
1532289844268,0,-1,2,4,4,3,-3,-4
1532289844273,2,2,1,2,-1,-8,-8,5
1532289844278,-2,-2,0,-4,-4,0,-4,-4
1532289844283,5,-5,-1,-4,4,8,-29,0
1532289844288,-7,-2,-2,1,7,8,-16,3
1532289844293,0,2,3,3,-3,-9,-14,-5
1532289844298,2,3,0,-3,-4,-8,17,-4
1532289844303,-2,1,-2,-5,-6,-3,25,-4
1532289844308,6,-1,1,-2,-12,-15,6,5
1532289844313,0,-1,1,9,11,16,19,3
1532289844318,-6,-4,-11,-19,-29,-34,14,-9
1532289844323,-4,-2,0,6,32,47,26,3
1532289844328,2,3,0,0,-13,-35,-8,2
1532289844333,0,-3,-1,0,5,37,-5,0
1532289844338,-2,0,1,-1,-12,-43,-9,2
1532289844343,0,3,2,2,7,25,-12,-4
1532289844348,-4,-1,0,7,-3,-23,-3,-1
1532289844353,3,1,0,-9,-1,-14,-7,-2
1532289844358,-4,-4,1,9,23,58,-26,3
1532289844363,7,-3,-7,-11,-14,-16,-17,-3
1532289844368,-13,-2,-1,2,11,14,2,-6
1532289844373,12,5,4,4,-2,-13,-3,1
1532289844378,-2,0,1,-5,-21,-43,7,-5
1532289844383,-1,-3,5,5,8,43,-5,7
1532289844388,4,-2,-1,-5,-19,-13,-10,-3
1532289844393,-5,1,-12,-9,-2,-11,-15,-4
1532289844398,-1,-4,-14,-5,23,43,-22,3
1532289844403,-4,-4,-1,-3,-22,-51,-5,-5
1532289844408,3,-1,-1,-4,-9,-6,2,2
1532289844413,-1,2,11,10,20,45,-2,-4
1532289844418,2,0,0,-1,-30,-85,-8,6
1532289844423,-3,2,-6,-4,28,51,-4,1
1532289844428,-19,-3,3,-8,12,35,9,0
1532289844433,1,-3,-2,7,-17,-20,-12,2
1532289844438,-6,-3,-2,-1,7,0,-1,-9
1532289844443,12,-3,-2,-1,-2,-21,2,-7
1532289844448,-5,2,2,2,10,24,26,18
1532289844453,4,1,-3,-2,-8,-35,28,4
1532289844458,2,3,1,6,23,63,3,3
1532289844463,-8,0,4,3,-5,-14,15,-2
1532289844468,7,2,1,3,2,12,4,-11
1532289844473,0,-6,-10,-6,-7,-25,3,2
1532289844478,-11,-7,-4,-9,-10,-3,11,0
1532289844483,-5,-1,-3,-12,-46,-115,7,-4
1532289844488,3,2,3,16,66,101,9,1
1532289844493,4,3,10,3,-8,-11,8,-4
1532289844498,-5,-4,16,12,12,17,-11,-7
1532289844503,-10,3,-21,-16,-14,-12,-12,10
1532289844508,11,2,-9,-9,-27,-45,-3,6
1532289844513,-3,-3,1,-2,-10,-26,-4,-2
1532289844518,14,4,2,5,30,70,8,0
1532289844523,-10,-7,5,8,1,9,10,0
1532289844528,-1,2,8,3,-13,-22,2,-9
1532289844533,0,-2,-12,-5,10,21,8,4
1532289844538,-3,-1,-1,-7,-19,-7,8,-2
1532289844543,-4,-3,-1,4,-1,-27,2,-3
1532289844548,8,-1,-5,-5,-1,4,-2,-1
1532289844553,0,4,5,7,8,6,3,0
1532289844558,4,4,-1,1,-9,-23,5,2
1532289844563,-4,-5,-9,-23,-21,-25,2,-4
1532289844568,-1,-2,3,7,22,43,-4,-1
1532289844573,-5,-3,1,-1,6,51,-3,-5
1532289844578,-3,0,-4,2,9,-4,5,5
1532289844583,0,0,2,10,2,5,-1,-2
1532289844588,-4,-2,0,-2,-18,-49,-10,-2
1532289844593,2,-4,-2,-8,0,34,-1,4
1532289844598,-2,-1,-1,3,8,-2,5,1
1532289844603,6,1,3,3,6,13,2,-2
1532289844608,-1,-2,-5,-9,-17,-22,-7,-3
1532289844613,-9,-2,0,2,-2,-8,-3,-5
1532289844618,-1,-2,-4,-2,-7,-14,-2,4
1532289844623,3,1,5,7,22,33,1,3
1532289844628,1,-2,1,-9,-8,-5,-5,-1
1532289844633,-1,-1,0,-2,3,7,0,-4
1532289844638,-3,-7,-18,-2,-3,-10,-2,-1
1532289844643,-6,-5,2,5,-1,1,-1,0
1532289844648,4,6,1,-1,-6,-12,-14,-2
1532289844653,-2,0,-2,-5,-4,-4,-4,-1
1532289844658,0,2,5,3,21,16,3,-2
1532289844663,-1,-3,-3,-1,-6,-2,1,2
1532289844668,-1,-3,-1,3,1,-6,5,-2
1532289844673,3,-4,0,1,-4,-20,0,-1
1532289844678,-23,-12,3,1,7,21,8,-7
1532289844683,6,9,0,0,6,29,2,-2
1532289844688,-2,0,-2,-6,0,18,4,0
1532289844693,7,4,-1,0,-16,-85,-23,3
1532289844698,2,-3,-5,-4,-22,-33,-6,0
1532289844703,-5,-1,5,4,7,17,-8,-8
1532289844708,-2,-5,-10,-5,-4,14,-8,3
1532289844713,-5,-3,-4,1,15,25,0,-3
1532289844718,-1,1,2,-2,-5,-5,-18,-1
1532289844723,-10,-2,-4,-5,-22,-67,-10,-7
1532289844728,23,-4,14,-5,11,94,29,11
1532289844733,-24,23,63,3,0,-54,4,2
1532289844738,-11,-17,-93,-9,-11,-26,-13,-7
1532289844743,21,-1,10,-2,-7,-3,-47,11
1532289844748,-5,-7,-6,2,3,44,-30,-4
1532289844753,5,-8,-5,0,1,16,2,3
1532289844758,7,13,34,0,-2,-13,57,4
1532289844763,-8,0,-7,-2,-13,-25,39,0
1532289844768,-6,-5,-1,2,14,-14,14,1
1532289844773,4,1,1,3,7,50,-7,0
1532289844778,2,5,12,1,-8,-15,-28,-3
1532289844783,2,-3,-14,-3,9,27,-9,-3
1532289844788,-5,2,24,8,-2,-85,-9,-1
1532289844793,-7,2,-33,-11,-6,42,9,-6
1532289844798,8,0,9,-1,1,28,9,3
1532289844803,-1,-1,3,6,1,2,8,-1
1532289844808,-2,5,-5,-4,-8,-10,2,-1
1532289844813,12,-5,-12,-1,-3,-47,3,2
1532289844818,-26,-7,10,-6,-10,47,-6,-6
1532289844823,3,6,22,-1,6,4,3,3
1532289844828,-10,-9,-25,3,-5,-55,-10,-4
1532289844833,-1,3,46,3,3,12,-1,-6
1532289844838,11,-9,-64,-5,-7,-67,-14,2
1532289844843,-3,-1,3,5,16,44,28,2
1532289844848,3,-1,-11,-6,5,-4,5,2
1532289844853,-1,-4,0,0,-2,-1,6,2
1532289844858,-1,7,25,2,7,-12,-14,-33
1532289844863,-7,-4,-8,-3,-1,35,-4,19
1532289844868,6,-6,2,-3,3,22,-3,4
1532289844873,-3,-5,-4,-3,6,1,-14,-12
1532289844878,-6,1,9,-8,-16,-74,-33,6
1532289844883,3,2,14,0,-4,-34,-15,0
1532289844888,6,4,-7,8,11,20,1,12
1532289844893,-3,-3,3,-14,-5,1,0,1
1532289844898,-1,-3,6,4,-19,-56,-6,-11
1532289844903,-2,-2,-16,-7,6,60,17,-1
1532289844908,1,1,20,15,5,-21,27,7
1532289844913,2,5,7,40,10,26,14,-10
1532289844918,-2,-7,-21,-37,-5,-16,-4,5
1532289844923,-5,-8,-8,-23,-27,-38,-33,-4
1532289844928,2,3,8,-6,-6,1,-46,6
1532289844933,3,-1,-12,20,10,7,-33,-3
1532289844938,0,-4,-7,-2,2,23,0,-5
1532289844943,-4,-1,8,-14,-4,-33,16,-2
1532289844948,14,5,10,-11,-11,-4,29,-1
1532289844953,-11,-12,-31,-2,5,9,35,-1
1532289844958,-7,-5,11,23,11,-1,19,-1
1532289844963,1,-1,-4,5,2,-7,17,-1
1532289844968,6,4,10,3,10,18,19,-9
1532289844973,2,0,2,-11,-8,-4,8,1
1532289844978,-5,-5,-6,-1,-4,-10,17,-1
1532289844983,1,2,8,7,10,7,0,0
1532289844988,-4,-2,-5,-1,1,-5,8,0
1532289844993,1,1,4,-12,0,12,6,1
1532289844998,-4,-2,-6,0,-6,-18,-10,-2
1532289845003,-2,1,-1,8,0,-19,-16,-6
1532289845008,-4,-3,-1,-2,-4,-6,-8,6
1532289845013,-2,0,-2,-13,-4,1,-2,1
1532289845018,1,-2,-3,3,1,2,2,1
1532289845023,-1,-2,-2,4,-5,-10,-9,-2
1532289845028,-5,-1,2,-2,6,-7,7,-1
1532289845033,3,1,-1,-9,-5,-2,-8,0
1532289845038,-2,-3,-6,3,-5,-14,9,-2
1532289845043,0,1,2,3,12,-7,-5,1
1532289845048,-7,0,1,-3,0,14,2,3
1532289845053,7,3,-1,-2,-3,-9,1,-7
1532289845058,-2,-3,-2,2,3,2,4,-2
1532289845063,-1,1,0,-2,-11,10,25,1
1532289845068,-4,0,1,5,13,28,26,4
1532289845073,-2,-1,-1,-2,-1,-3,13,2
1532289845078,-1,-2,-1,22,9,-26,14,0
1532289845083,1,-1,6,2,1,20,5,0
1532289845088,7,-4,-6,-21,-8,8,-20,0
1532289845093,-11,-5,-10,-27,-10,3,-20,-4
1532289845098,-3,-1,2,10,-3,5,-29,-1
1532289845103,-1,0,-3,0,-1,-22,-12,-1
1532289845108,7,2,3,38,6,-9,-17,3
1532289845113,0,1,1,-40,-4,7,-19,-2
1532289845118,-1,-2,-6,-11,-12,-12,3,-6
1532289845123,-8,-5,-1,18,7,-2,-8,-4
1532289845128,-2,1,4,19,3,0,1,3
1532289845133,6,4,15,64,25,12,3,4
1532289845138,-9,-3,6,-36,-10,17,-12,1
1532289845143,5,-2,-25,-40,-18,-50,-11,-10
1532289845148,-1,4,7,60,22,11,-2,1
1532289845153,0,-1,8,-69,-11,52,25,6
1532289845158,-8,-13,-41,-44,-23,-20,-25,-10
1532289845163,-4,-7,-9,-17,-26,7,15,2
1532289845168,-3,-2,-7,-20,-16,-20,-18,-3
1532289845173,2,-1,8,61,11,-21,-23,-3
1532289845178,12,8,27,36,27,14,-31,8
1532289845183,-17,2,4,-1,-21,-55,-41,-8
1532289845188,4,5,4,10,33,3,18,6
1532289845193,0,-1,5,1,-1,4,16,4
1532289845198,-6,-1,-1,-6,5,17,28,-6
1532289845203,2,-3,-7,1,-2,-12,12,2
1532289845208,-1,-4,0,-24,-19,-8,-1,-3
1532289845213,-5,-1,-14,-10,-5,-34,-4,-3
1532289845218,-1,-2,-6,0,-4,-28,2,3
1532289845223,7,1,6,17,18,86,10,-2
1532289845228,-7,0,6,5,-1,-6,8,8
1532289845233,4,-1,2,-5,6,13,13,-10
1532289845238,4,9,21,76,20,30,31,11
1532289845243,-1,1,-1,-68,-9,-35,-21,-3
1532289845248,-27,-19,-34,-9,-29,12,8,-19
1532289845253,8,-4,-19,-3,-13,-26,-10,18
1532289845258,14,0,-10,56,8,0,-9,1
1532289845263,18,13,28,-75,35,20,18,6
1532289845268,-4,-11,-46,-36,-45,-4,-4,5
1532289845273,-11,2,6,45,-13,43,27,-3
1532289845278,-11,7,12,-1,-13,-19,-35,-14
1532289845283,0,-5,-1,91,7,-40,-15,5
1532289845288,7,7,33,6,29,9,-3,-2
1532289845293,-3,0,-7,-11,11,-11,0,-4
1532289845298,-7,-1,2,-26,-1,26,10,1
1532289845303,8,2,-2,5,1,12,5,-7
1532289845308,2,1,5,-11,-1,-23,-8,-4
1532289845313,-8,-7,-8,-16,-9,-23,-27,-9
1532289845318,8,-3,-4,4,7,6,9,12
1532289845323,1,0,-1,-2,-6,-2,1,4
1532289845328,1,-3,-10,-19,-6,4,0,-1
1532289845333,10,10,28,71,12,-8,-1,4
1532289845338,-4,-2,-14,-83,-13,2,-16,-5
1532289845343,-12,-7,-10,-26,-24,-3,62,-5
1532289845348,3,0,-28,-49,-15,-23,-36,1
1532289845353,6,-4,4,6,-2,-6,15,-3
1532289845358,-5,-3,11,25,12,-3,14,12
1532289845363,-7,5,-1,36,12,10,-10,-32
1532289845368,0,-10,14,22,5,1,3,9
1532289845373,-3,-14,-4,-12,2,-10,-4,0
1532289845378,27,25,9,0,3,15,1,10
1532289845383,-8,1,1,4,0,3,-2,9
1532289845388,-12,7,13,7,3,6,10,-13
1532289845393,-13,-12,-23,-23,-4,-1,9,-6
1532289845398,-2,-8,-11,-20,-9,-7,11,-10
1532289845403,-4,-2,-6,19,2,-2,-8,4
1532289845408,6,5,7,0,3,-9,-3,-4
1532289845413,-10,6,5,-17,-6,-7,-16,4
1532289845418,-16,-28,-20,-5,-6,-4,-14,-20
1532289845423,-6,-26,-17,4,2,5,-10,3
1532289845428,5,-21,1,4,4,13,-5,0
1532289845433,10,35,17,-10,-1,1,-10,-13
1532289845438,13,35,44,8,1,4,8,7
1532289845443,16,57,2,12,3,1,9,22
1532289845448,-14,8,5,-3,-1,-7,-7,-49
1532289845453,-3,-35,-42,-10,-4,-8,8,34
1532289845458,-1,-21,-12,-2,3,1,35,10
1532289845463,-3,-26,-7,2,1,-4,-8,13
1532289845468,15,18,16,0,-2,-3,-4,18
1532289845473,14,14,21,-3,-1,-1,-7,-16
1532289845478,-17,-30,-26,-4,-3,-2,-11,-8
1532289845483,-6,13,14,3,2,1,2,-7
1532289845488,-10,-2,-6,1,-2,0,0,-3
1532289845493,-10,-8,-6,-5,-2,-3,-12,-2
1532289845498,-4,1,1,-6,-3,-5,-5,3
1532289845503,-72,-58,21,-1,-2,-3,-18,-35
1532289845508,3,-59,-78,-4,0,-6,-4,16
1532289845513,57,85,30,5,4,3,5,10
1532289845518,30,52,21,3,-3,0,3,6
1532289845523,31,20,5,2,2,1,-7,7
1532289845528,-11,9,15,-2,-3,1,0,7
1532289845533,-28,-28,49,-4,-2,-7,-8,-5
1532289845538,-29,-45,-90,-2,1,-8,-18,-20
1532289845543,-7,-46,-2,-6,-2,-2,-4,2
1532289845548,10,20,33,2,1,5,8,19
1532289845553,28,62,9,7,1,8,7,2
1532289845558,5,22,40,0,0,7,-8,-5
1532289845563,5,1,-11,0,-1,1,4,-3
1532289845568,-13,-28,-21,-5,-5,-1,15,-11
1532289845573,-9,-30,-2,-7,-5,-2,12,-5
1532289845578,-9,-9,-11,-2,3,1,12,5
1532289845583,3,-5,-6,-1,-3,-2,2,-5
1532289845588,10,10,5,3,2,1,-3,-11
1532289845593,-25,-22,-25,-7,-3,-3,-4,-10
1532289845598,-2,-12,1,-3,-4,-1,-10,-3
1532289845603,12,19,28,2,0,2,-9,5
1532289845608,-2,11,-26,-3,-2,0,-10,1
1532289845613,17,-20,-7,0,0,0,-3,1
1532289845618,-17,-6,-25,-6,-3,-4,-3,0
1532289845623,22,13,28,3,1,-3,5,8
1532289845628,-59,-3,0,-2,-2,-6,0,-28
1532289845633,34,20,5,-5,-6,-4,-6,6
1532289845638,-8,-62,-57,-5,-3,-1,0,4
1532289845643,8,11,-5,5,2,2,2,-4
1532289845648,-3,0,11,1,1,0,0,2
1532289845653,-23,-15,-10,-1,2,0,-7,-8
1532289845658,11,32,44,1,-1,1,-18,-2
1532289845663,-10,5,-34,-1,-2,-2,-15,1
1532289845668,12,-6,5,-1,-2,-1,-6,1
1532289845673,-11,5,1,1,0,1,-4,-2
1532289845678,12,12,22,2,1,-1,5,4
1532289845683,-5,-11,-12,0,0,-4,1,0
1532289845688,16,16,19,2,2,0,8,6
1532289845693,-6,-14,-1,-3,-3,-7,4,1
1532289845698,-8,1,20,2,0,1,3,-4
1532289845703,3,3,-39,-6,-4,2,12,-4
1532289845708,6,-9,2,3,-2,1,6,4
1532289845713,-14,-16,-11,0,2,1,7,-13
1532289845718,-5,1,-11,0,2,1,10,-6
1532289845723,6,6,21,0,0,-1,8,8
1532289845728,-9,1,7,-2,-1,-1,-1,2
1532289845733,-10,11,-12,1,0,2,-2,-3
1532289845738,-48,-30,9,-3,-3,-5,-7,-15
1532289845743,56,21,4,3,2,0,5,15
1532289845748,-10,-9,21,-2,-5,0,3,-1
1532289845753,32,6,14,2,3,-6,-12,6
1532289845758,-33,-2,-48,-3,-4,3,-6,-26
1532289845763,-18,-14,-31,-3,2,-1,7,1
1532289845768,8,21,29,3,1,0,1,1
1532289845773,-5,-9,7,-2,-4,-1,-1,5
1532289845778,22,18,10,2,1,-4,0,9
1532289845783,-14,-12,8,-1,-3,-4,-2,-9
1532289845788,17,12,-14,-2,1,0,-3,3
1532289845793,-15,-15,-10,-5,-3,3,1,-2
1532289845798,16,4,19,1,1,-10,0,6
1532289845803,-11,-6,-18,-1,-4,-12,-2,-8
1532289845808,-19,2,2,-1,-2,-8,0,-4
1532289845813,-6,8,-4,-3,1,3,5,4
1532289845818,30,-3,42,-2,0,10,28,12
1532289845823,-1,-18,-42,-6,10,38,16,2
1532289845828,9,-16,-3,-3,-2,-4,9,-7
1532289845833,-12,-16,-6,5,-9,-54,-24,-3
1532289845838,3,13,26,0,-4,8,-17,2
1532289845843,-18,9,24,3,-7,-38,-20,-2
1532289845848,-19,-4,-10,-1,6,62,8,-9
1532289845853,25,0,-5,0,4,4,10,19
1532289845858,5,0,-11,-1,-2,-4,-7,-6
1532289845863,-6,2,8,2,2,7,7,-1
1532289845868,5,1,-5,-1,1,-14,-19,4
1532289845873,-8,-6,-1,-5,-14,-57,-32,-8
1532289845878,-8,0,-8,-6,-10,9,0,-1
1532289845883,11,4,41,9,23,38,19,8
1532289845888,9,11,-27,-1,-1,-25,-3,4
1532289845893,9,-19,-12,-3,7,27,23,-15
1532289845898,11,-10,-3,-3,-1,-4,0,-3
1532289845903,3,13,21,-2,-27,-84,-23,-5
1532289845908,-5,-7,8,2,-4,7,4,4
1532289845913,-35,-6,-13,-7,-24,-100,-25,-17
1532289845918,18,6,-13,13,49,105,25,33
1532289845923,4,-1,19,0,9,-5,-1,-3
1532289845928,6,1,-6,1,4,-14,-7,2
1532289845933,1,-2,-12,-2,2,19,7,0
1532289845938,-7,-1,5,-6,-15,-26,-16,-11
1532289845943,-5,3,-4,-2,-1,11,-10,-2
1532289845948,1,0,11,-2,-8,-13,6,7
1532289845953,-28,-6,-30,-1,4,38,8,-9
1532289845958,-8,-17,7,3,-4,-21,15,-16
1532289845963,-25,-32,-21,-5,-4,6,-6,5
1532289845968,51,43,8,0,-1,-11,4,8
1532289845973,21,59,35,4,4,26,10,21
1532289845978,-9,-16,-20,-6,-7,-23,-11,-10
1532289845983,-47,-64,-26,-6,-7,-7,-4,-13
1532289845988,3,26,-1,-3,-7,-23,-15,0
1532289845993,-14,-15,-6,-4,-6,4,-8,-14
1532289845998,-35,-51,-17,-3,-3,-6,-3,-14
1532289846003,-6,-26,4,2,3,9,5,-7
1532289846008,-11,-4,-7,-2,-5,-18,2,-6
1532289846013,7,9,3,3,2,4,5,-7
1532289846018,-3,-4,3,-1,-1,-3,-2,10
1532289846023,0,1,0,0,1,4,6,-10
1532289846028,-8,-14,1,-3,-4,-8,-1,1
1532289846033,15,6,3,0,1,4,5,2
1532289846038,-21,-22,-14,-4,-2,-6,-8,-6
1532289846043,-4,-7,-2,-3,-2,5,-6,-7
1532289846048,18,31,6,2,-1,-6,-2,26
1532289846053,29,47,21,7,3,4,9,-36
1532289846058,0,-3,-5,-2,-2,-2,-6,5
1532289846063,-17,-33,-7,-6,-3,2,-2,6
1532289846068,-13,-14,4,1,1,-2,11,12
1532289846073,11,14,-4,-1,0,0,-4,8
1532289846078,-16,-14,-7,-2,-1,-1,-2,-17
1532289846083,1,-8,2,-2,-5,-1,-2,6
1532289846088,4,4,-3,0,1,-1,-12,2
1532289846093,-1,2,-2,-3,0,1,-4,7
1532289846098,-1,-6,-3,-3,-10,-12,2,-4
1532289846103,0,0,4,6,22,21,-1,14
1532289846108,-12,-17,-7,-3,-5,-10,2,4
1532289846113,15,9,1,-2,-9,-5,8,7
1532289846118,10,22,9,5,12,15,2,3
1532289846123,-5,0,-1,-1,-4,-7,4,-3
1532289846128,0,1,3,2,-8,-1,-1,-1
1532289846133,0,-5,-2,0,0,-4,-3,6
1532289846138,-4,-6,-6,-4,-6,-8,-3,-5
1532289846143,-4,-6,-2,0,1,0,0,-4
1532289846148,3,-1,0,-1,3,-2,-4,-8
1532289846153,-2,3,-2,-2,-4,-2,-4,-1
1532289846158,-4,-2,-1,-2,-1,0,-2,-17
1532289846163,-13,-16,-6,-3,-2,2,-2,-5
1532289846168,4,1,-1,-1,0,-4,-4,-19
1532289846173,2,17,6,3,-1,-2,-6,5
1532289846178,0,13,1,-1,-1,1,8,8
1532289846183,2,-3,1,0,0,2,1,6
1532289846188,-2,-5,-4,-1,-2,-4,3,-5
1532289846193,0,-14,-4,-1,0,1,-2,10
1532289846198,1,12,0,0,1,-5,-3,30
1532289846203,-8,0,1,0,-2,0,9,-21
1532289846208,17,10,4,3,0,2,4,31
1532289846213,-3,-2,-4,-1,0,2,1,5
1532289846218,-5,-13,-4,-1,-1,0,-4,-14
1532289846223,-1,0,-3,-2,-4,-2,-2,11
1532289846228,-4,-3,-1,-1,0,-2,-2,-6
1532289846233,-1,1,1,-3,0,-3,4,-8
1532289846238,-2,-18,-4,-2,-3,-3,0,1
1532289846243,-7,-1,-1,1,-1,0,-1,-9
1532289846248,3,19,6,1,0,1,-2,-15
1532289846253,1,0,-1,0,-2,0,-1,7
1532289846258,-2,1,-3,-1,-1,-2,2,-13
1532289846263,-2,-9,-2,-1,-3,0,-3,-5
1532289846268,3,-7,1,-1,0,-1,-3,3
1532289846273,-18,-16,-11,-4,-3,-3,-5,-15
1532289846278,1,-11,4,1,-1,0,1,5
1532289846283,17,31,7,1,0,-1,1,-8
1532289846288,0,8,1,-1,-1,-2,-1,6
1532289846293,2,3,0,-1,-1,1,3,-8
1532289846298,-10,-23,-10,-1,1,-1,-3,-9
1532289846303,-5,-7,-3,-4,-2,-3,-2,0
1532289846308,2,4,-1,-1,-1,-3,1,-7
1532289846313,-2,-10,-1,0,1,-1,-2,6
1532289846318,-4,-1,-2,-1,-1,-2,-2,-11
1532289846323,0,-8,-1,-1,-1,-3,-2,14
1532289846328,-7,16,1,-1,-2,-1,-2,-22
1532289846333,2,2,-1,0,0,-1,0,5
1532289846338,1,2,0,-1,-1,2,-2,2
1532289846343,-1,-7,-6,0,1,0,0,-5
1532289846348,-7,-34,-6,-2,-1,1,-1,10
1532289846353,7,27,6,-1,-2,-1,1,-3
1532289846358,2,11,2,-1,-3,1,2,-1
1532289846363,3,10,3,0,0,0,-1,-7
1532289846368,-3,-6,-2,-3,-2,-2,-2,-5
1532289846373,-3,-8,-2,-1,-1,0,0,8
1532289846378,-8,-12,-2,-2,0,-1,-1,-14
1532289846383,-1,-1,-1,-2,-3,-2,-3,-1
1532289846388,4,11,1,0,-1,-2,-3,3
1532289846393,-4,-2,0,-1,1,0,2,1
1532289846398,0,5,0,0,-3,-3,-4,-21
1532289846403,-8,-12,-5,-1,-2,-1,-1,-1
1532289846408,-1,-8,-2,-1,1,0,1,4
1532289846413,0,10,0,-1,0,0,0,7
1532289846418,4,9,2,0,0,-1,0,-24
1532289846423,4,-2,-1,1,0,1,1,7
1532289846428,3,8,2,3,0,-1,-2,-3
1532289846433,-6,-14,-4,-3,-1,-1,-2,3
1532289846438,0,6,1,2,2,2,1,-6
1532289846443,2,4,-1,1,-1,1,2,8
1532289846448,-4,-8,-3,-2,0,0,-1,-6
1532289846453,0,-7,0,-1,-3,-2,-1,-4
1532289846458,3,14,1,-2,0,-2,1,11
1532289846463,-4,-14,-4,-2,-2,-2,0,0
1532289846468,-4,-11,-5,0,-2,-1,-1,-2
1532289846473,2,15,3,1,1,0,-2,-13
1532289846478,7,10,0,0,-1,-2,-1,24
1532289846483,-2,2,2,-1,1,1,-1,-1
1532289846488,2,-3,-1,-4,-1,-1,1,3
1532289846493,-7,-9,-5,0,-1,1,0,-5
1532289846498,-7,-28,-5,0,1,-1,-2,7
1532289846503,3,15,3,-2,-3,-3,-1,-5
1532289846508,-1,-9,-1,0,-2,0,2,1
1532289846513,5,16,4,0,0,-2,-1,-3
1532289846518,-2,-4,-3,-2,-1,0,0,10
1532289846523,4,1,0,-1,-2,-2,-1,14
1532289846528,7,5,-1,-2,-3,0,1,-2
1532289846533,-4,-5,-1,0,-2,0,0,5
1532289846538,-7,-12,-5,-2,-1,0,-1,-3
1532289846543,-4,-9,-1,-1,0,0,-7,-10
1532289846548,-2,5,3,0,-1,-2,-2,-3
1532289846553,3,-13,-1,1,0,0,1,-4
1532289846558,3,18,4,0,-1,0,-3,8
1532289846563,-11,-16,-4,-1,-2,0,0,-17
1532289846568,1,3,0,0,1,1,0,-1
1532289846573,3,-5,-1,-1,-1,-1,1,1
1532289846578,-2,-8,-1,0,-1,-2,0,5
1532289846583,2,3,1,-1,-2,-2,-2,6
1532289846588,-9,-3,-3,-2,-1,-3,-5,-12
1532289846593,1,4,0,0,-1,-1,0,6
1532289846598,2,-1,0,-1,1,2,1,3
1532289846603,0,2,-1,0,0,-3,2,-1
1532289846608,-1,3,-1,0,0,-1,-2,1
1532289846613,2,0,-1,-2,0,-2,0,5
1532289846618,1,1,0,0,0,0,0,-4
1532289846623,-1,2,-2,1,0,-1,1,-9
1532289846628,-4,-4,0,-1,0,-2,-3,1
1532289846633,-4,0,-3,-2,1,0,-1,-13
1532289846638,2,-6,-3,0,-2,-1,-1,-4
1532289846643,0,15,3,-2,0,-3,-2,-3
1532289846648,-1,-2,-1,0,-1,-1,1,1
1532289846653,-3,0,-1,-1,-1,1,-4,-8
1532289846658,-1,0,-1,-1,-1,0,-2,-6
1532289846663,-2,-11,-3,1,1,0,0,-3
1532289846668,1,-4,-1,-1,1,-3,0,1
1532289846673,-4,-2,0,-1,-1,0,0,2
1532289846678,-3,1,0,-2,-3,-1,0,-15
1532289846683,3,1,-1,0,0,0,0,-6
1532289846688,0,1,-1,-1,-1,0,-2,4
1532289846693,-2,-2,-3,-2,-2,1,-2,2
1532289846698,-4,-3,-1,-1,-1,-1,-3,-2
1532289846703,2,-1,-1,-1,0,-2,0,10
1532289846708,-1,0,0,-1,-1,-2,1,4
1532289846713,0,-4,-1,0,0,-1,1,-5
1532289846718,1,-1,-2,-1,0,0,0,-1
1532289846723,-4,3,-1,-1,-1,0,1,-12
1532289846728,0,1,1,-1,-1,0,-1,-4
1532289846733,1,-4,-1,-2,-1,-1,0,8
1532289846738,-2,3,-1,-1,-2,-2,-2,-12
1532289846743,-1,-4,-1,0,1,0,-1,11
1532289846748,-2,1,-1,0,-2,-1,1,-4
1532289846753,-5,-10,-4,-1,-1,1,-3,-6
1532289846758,4,8,3,0,0,-2,-2,-4
1532289846763,2,11,2,0,-1,-2,-2,17
1532289846768,-3,-2,-1,-1,-1,-1,-2,11
1532289846773,1,0,-1,0,0,-1,1,2
1532289846778,-8,-7,-5,-4,0,-1,-2,-11
1532289846783,-4,-1,0,0,0,-2,-2,-14
1532289846788,4,7,1,-1,1,0,1,-1
1532289846793,2,0,-1,-1,-2,0,-2,0
1532289846798,-2,-3,-1,-2,0,-1,0,7
1532289846803,-5,-14,-4,-1,-1,-1,0,-4
1532289846808,-3,-4,-3,-3,-2,0,-2,-9
1532289846813,-9,-4,-2,-2,1,-1,-3,-7
1532289846818,16,19,4,2,0,1,2,-10
1532289846823,1,4,-2,-1,-3,0,0,-2
1532289846828,-2,-3,-2,0,0,0,2,1
1532289846833,-1,-3,-1,0,-2,0,0,-1
1532289846838,-11,-16,-10,-4,-2,-2,-1,5
1532289846843,-2,-14,0,0,0,0,0,-8
1532289846848,8,28,8,1,0,1,-1,-3
1532289846853,-1,1,1,0,0,-1,1,-3
1532289846858,-4,-1,0,-2,-2,-2,-1,-2
1532289846863,-2,-11,-5,-2,0,3,1,1
1532289846868,-2,-11,-4,-2,-1,0,-1,1
1532289846873,2,4,0,0,-1,-1,0,2
1532289846878,0,-5,-1,0,-2,0,0,23
1532289846883,-2,1,-3,-2,-2,-2,-2,-35
1532289846888,-1,-9,-1,1,-3,0,-3,-8
1532289846893,6,11,1,-1,1,-1,1,16
1532289846898,-6,-8,-2,-1,0,0,-2,-6
1532289846903,-4,-2,0,2,-3,-1,-3,0
1532289846908,1,4,1,2,-1,0,-2,10
1532289846913,4,7,0,0,-2,-1,1,-11
1532289846918,-5,2,1,2,-1,-2,0,-8
1532289846923,0,3,0,-1,2,0,0,6
1532289846928,-5,-7,-3,-4,-3,-3,0,-7
1532289846933,1,-2,0,-1,-1,1,-3,4
1532289846938,-2,-5,0,1,4,2,0,0
1532289846943,-4,0,-2,0,-3,-3,-3,-11
1532289846948,13,8,3,1,3,4,4,46
1532289846953,-4,-6,-1,-3,-1,-1,1,-8
1532289846958,4,2,1,-1,-2,0,2,-5
1532289846963,-3,-1,2,-3,-1,-1,-2,7
1532289846968,-7,-8,-4,-1,1,-3,-1,-17
1532289846973,-1,-11,-1,0,1,1,-4,-14
1532289846978,1,8,3,0,0,3,2,2
1532289846983,3,5,0,-1,-2,0,3,6
1532289846988,-2,4,-2,-5,-7,-8,-1,-7
1532289846993,1,-5,-2,0,0,0,2,-5
1532289846998,-1,-5,2,3,8,11,-1,-3
1532289847003,0,2,0,-1,0,-1,0,8
1532289847008,-5,-8,-3,-3,1,0,-1,-6
1532289847013,-3,3,-3,-5,-3,-7,1,4
1532289847018,0,-5,-2,-3,-5,-6,-2,1
1532289847023,-2,-3,-1,-1,0,-2,-1,3
1532289847028,2,1,3,3,0,1,1,1
1532289847033,-1,4,2,0,-1,1,2,-5
1532289847038,5,0,-2,0,-2,0,0,6
1532289847043,0,-5,-3,-2,-3,-3,-3,-2
1532289847048,-3,-11,-2,-2,-1,-2,-3,-6
1532289847053,-3,1,0,0,0,-1,-5,-4
1532289847058,-4,-5,-4,-3,-4,-5,-3,-21
1532289847063,0,0,0,0,-1,0,1,-6
1532289847068,1,2,-1,0,3,2,0,-2
1532289847073,0,0,-1,1,-1,1,-1,11
1532289847078,-2,-2,-2,-3,-2,-3,-1,1
1532289847083,-1,2,0,-2,-2,-1,0,6
1532289847088,-2,-1,-3,0,-2,-2,0,-4
1532289847093,-1,-1,0,1,-2,-1,1,1
1532289847098,-1,-3,-1,-1,-1,-2,0,3
1532289847103,0,5,2,0,-1,2,1,0
1532289847108,-2,0,-2,-1,0,0,-2,-3
1532289847113,-2,-6,-2,0,0,-1,-1,-2
1532289847118,1,3,-1,-1,-2,-1,-2,4
1532289847123,3,-7,0,1,-1,-2,-3,-3
1532289847128,-9,0,-1,-1,-1,-1,-3,-21
1532289847133,4,-1,-1,0,-1,0,1,5
1532289847138,1,9,1,-1,-2,-1,1,6
1532289847143,-1,-2,-2,-2,0,0,0,-1
1532289847148,2,-1,-1,-1,-1,1,1,3
1532289847153,-3,-4,-1,-1,0,0,0,0
1532289847158,-4,-7,-1,-1,0,-2,-2,-9
1532289847163,4,5,0,-1,-1,-1,-1,6
1532289847168,-3,-1,0,-2,-2,0,-4,-7
1532289847173,3,2,-1,-1,-1,-1,0,6
1532289847178,-1,-4,-2,-1,-1,-2,-2,5
1532289847183,-2,3,-1,0,-1,-1,-2,-23
1532289847188,-3,-1,0,-2,0,-1,4,16
1532289847193,0,-4,0,-2,-1,-1,-2,-11
1532289847198,-3,-2,-3,0,0,-1,-2,2
1532289847203,-1,-9,-1,0,-2,0,-1,-2
1532289847208,1,17,3,-1,0,-3,-1,-8
1532289847213,-6,-6,-3,-1,-1,-3,0,5
1532289847218,7,14,4,2,-1,-1,1,-3
1532289847223,4,6,-1,-2,-1,0,1,7
1532289847228,-1,-9,-1,1,-1,0,-2,-4
1532289847233,0,2,0,1,0,0,2,-10
1532289847238,-3,-5,-3,1,-3,-2,-2,4
1532289847243,-4,-4,1,-1,0,0,-1,-5
1532289847248,1,-1,0,-1,-2,0,-2,2
1532289847253,-1,-4,-2,-1,-1,-1,-1,3
1532289847258,-3,-7,-3,-1,0,-1,1,-15
1532289847263,-4,-1,0,-1,1,0,2,4
1532289847268,4,9,4,2,1,1,0,-6
1532289847273,-1,5,0,-2,-2,-2,-2,3
1532289847278,2,-5,-2,-2,-1,0,1,3
1532289847283,1,17,3,1,0,-1,1,12
1532289847288,-7,-7,-3,-1,-1,-1,0,-1
1532289847293,2,-4,-3,-1,-2,-2,-2,-15
1532289847298,1,-2,-2,0,0,0,-1,3
1532289847303,0,5,-1,1,-1,0,-3,-3
1532289847308,-3,-6,-2,0,-3,-2,0,2
1532289847313,1,5,0,0,0,0,-1,9
1532289847318,3,-3,-2,-1,-1,-2,-1,2
1532289847323,-6,-3,-2,0,-1,0,2,-15
1532289847328,-2,-3,-3,0,0,-1,-1,-9
1532289847333,-1,-3,-2,0,0,0,-1,5
1532289847338,-4,7,1,0,-1,1,0,5
1532289847343,3,-7,-3,-2,-1,-1,1,-10
1532289847348,3,11,0,-1,-2,-1,-2,8
1532289847353,-1,-3,-3,-2,-1,-1,-1,-2
1532289847358,0,-2,1,-1,0,-1,-2,-1
1532289847363,-5,-8,-1,-2,-2,-1,-3,-6
1532289847368,-1,-2,-1,0,0,-1,-1,2
1532289847373,-1,2,1,-1,-2,0,-1,-1
1532289847378,-3,-3,-3,-1,0,-1,-2,4
1532289847383,2,-7,-3,0,1,0,0,17
1532289847388,3,1,1,-1,0,-2,-1,5
1532289847393,-1,5,0,-1,1,0,2,-5
1532289847398,-1,7,3,-2,-3,-2,-1,-19
1532289847403,-1,-8,-2,-1,-1,-1,-1,1
1532289847408,-2,-9,-4,0,0,0,0,1
1532289847413,-2,-9,-2,-1,-3,-2,-1,3
1532289847418,6,11,2,-1,-1,-1,1,5
1532289847423,-1,4,-1,-2,-1,-2,-1,4
1532289847428,-6,-4,-1,-2,-2,-1,1,-6
1532289847433,-3,-9,-3,-2,-1,1,-1,-3
1532289847438,-4,-7,-2,-2,0,0,-1,-2
1532289847443,2,2,-1,-1,-1,-1,0,6
1532289847448,-1,-3,0,-1,-1,0,0,-9
1532289847453,-2,-1,-4,-2,-2,-2,-3,1
1532289847458,0,2,0,-1,1,0,0,-7
1532289847463,-2,-4,-1,-1,0,0,0,-2
1532289847468,0,1,0,-1,0,1,-1,0
1532289847473,-5,1,0,-2,-1,0,-1,-21
1532289847478,-2,-8,-3,0,0,0,-1,-2
1532289847483,-2,-1,-2,0,-1,-1,1,-7
1532289847488,4,0,-1,-1,-1,-3,0,4
1532289847493,0,5,1,0,-1,-1,-1,-4
1532289847498,-3,-5,-1,-2,1,-3,1,-4
1532289847503,1,-4,-1,-1,1,-1,-2,11
1532289847508,-1,3,2,-2,1,-2,0,-8
1532289847513,3,6,0,0,-1,0,3,0
1532289847518,-4,-3,-1,0,-2,-1,1,-9
1532289847523,-4,-11,-4,0,1,0,0,3
1532289847528,3,-5,-3,-2,-3,-1,0,13
1532289847533,-4,8,-1,-1,-2,0,-4,-2
1532289847538,-3,-6,-4,-1,-3,-2,-3,1
1532289847543,5,13,1,1,-2,-1,-3,-4
1532289847548,-1,-1,-1,-1,0,-1,-4,-10
1532289847553,0,-1,-2,-2,-1,-3,0,8
1532289847558,-3,-8,-3,-3,-1,-1,0,2
1532289847563,0,5,2,1,-1,-1,-1,-5
1532289847568,-4,-10,-2,-1,-2,-1,0,-2
1532289847573,1,2,-1,0,0,-1,0,3
1532289847578,3,14,3,0,0,1,1,2
1532289847583,-4,-8,-2,-1,-1,-1,1,-2
1532289847588,-1,-3,-1,0,0,-1,-1,8
1532289847593,-1,-2,1,-1,-2,-1,0,0
1532289847598,-2,-1,-1,-1,-2,-2,-1,-6
1532289847603,2,-7,0,-2,0,-1,1,9
1532289847608,2,11,1,-1,-1,0,0,6
1532289847613,-6,-3,-2,1,0,-1,-2,-9
1532289847618,1,-2,2,-1,1,2,0,12
1532289847623,-1,-1,-3,-1,-3,-2,0,-13
1532289847628,-3,-11,-1,-1,-1,-1,1,-1
1532289847633,2,-5,-1,0,-1,0,-1,-9
1532289847638,2,-2,-1,-1,-1,0,1,10
1532289847643,-5,-9,-2,-3,-2,-3,-2,-2
1532289847648,4,12,2,-1,-1,0,-1,5
1532289847653,-2,6,1,-1,1,1,0,-14
1532289847658,-4,-2,-1,1,0,-1,1,-1
1532289847663,-2,-4,0,-1,0,-1,-1,3
1532289847668,-1,-2,-4,-2,-3,-2,-1,-6
1532289847673,-3,-6,-1,0,-2,0,0,1
1532289847678,3,2,-2,1,0,1,-1,14
1532289847683,0,-2,-1,0,-1,-1,-3,1
1532289847688,-2,-2,-2,1,-1,0,0,-2
1532289847693,0,3,-1,-2,-2,-1,0,2
1532289847698,-1,-3,0,-1,-1,-1,0,-11
1532289847703,-1,3,0,-1,-2,1,-1,-3
1532289847708,4,-1,-2,-1,-1,0,3,8
1532289847713,-2,-6,-4,-2,0,0,0,5
1532289847718,0,-3,-2,-1,-2,-1,-1,2
1532289847723,2,8,0,-2,1,-1,-1,0
1532289847728,-5,1,1,0,-1,0,-4,-8
1532289847733,0,0,-1,-1,0,-1,1,12
1532289847738,-4,-6,-3,-2,-2,-2,-3,-8
1532289847743,0,2,0,-1,-1,0,0,-5
1532289847748,-4,-3,-3,-3,-3,0,-3,-6
1532289847753,6,-2,1,1,0,1,-3,-16
1532289847758,2,6,2,0,1,1,3,4
1532289847763,-7,-11,-6,-1,-2,-1,-1,0
1532289847768,3,-8,0,1,-1,-2,1,0
1532289847773,2,22,5,2,0,-1,1,1
1532289847778,-2,-2,-2,-1,-1,-1,-2,-7
1532289847783,1,5,1,-1,-1,-1,-1,2
1532289847788,-5,-5,-1,-1,0,1,0,-1
1532289847793,3,-8,-2,-1,-2,-2,-1,30
1532289847798,-4,0,-2,1,-2,-2,-2,-12
1532289847803,0,1,0,0,0,-1,2,2
1532289847808,1,-2,-2,-2,1,-3,-1,3
1532289847813,-1,-2,-1,-3,0,-2,1,-6
1532289847818,0,0,-1,-1,1,0,1,5
1532289847823,-5,-7,-2,-1,0,-1,-1,-14
1532289847828,0,1,-1,0,0,0,-2,-2
1532289847833,-3,-11,-2,-2,-2,-1,-2,1
1532289847838,3,13,3,-2,-1,-1,-2,11
1532289847843,1,-5,-2,0,-1,0,-1,-22
1532289847848,-1,4,0,0,1,-2,1,3
1532289847853,-4,-9,-2,-2,-1,0,0,-2
1532289847858,-2,-1,-1,-1,-2,-2,-1,-1
1532289847863,-5,-3,0,-1,-1,-1,-2,6
1532289847868,4,6,-1,-1,0,0,3,25
1532289847873,0,-5,-4,1,0,0,0,-7
1532289847878,-4,-10,-2,-1,-1,-1,-1,-5
1532289847883,1,6,0,-1,-1,1,-1,-2
1532289847888,3,10,1,-1,0,-1,1,5
1532289847893,-1,7,0,-1,-2,0,0,0
1532289847898,1,1,1,-2,0,0,0,-7
1532289847903,-6,-3,-1,-3,-3,-1,-2,2
1532289847908,-7,-12,-4,-1,-2,-3,-2,-8
1532289847913,3,-1,0,0,-1,-2,1,-5
1532289847918,0,0,0,-1,0,-1,-1,-4
1532289847923,1,-7,-3,-1,-1,-3,0,1
1532289847928,1,7,0,-2,-2,-1,-2,1
1532289847933,-4,-6,0,2,0,-1,-2,-10
1532289847938,-2,4,0,-1,-2,-1,-3,2
1532289847943,1,-5,-1,-1,-2,-2,1,0
1532289847948,-6,-7,-4,-3,-2,-1,0,-4
1532289847953,-1,-4,-3,-4,-2,-1,-2,7
1532289847958,3,3,-1,1,-1,-1,-1,-9
1532289847963,-6,-2,0,-2,-3,-1,-1,-17
1532289847968,2,7,0,0,-2,-2,-1,-16
1532289847973,0,3,1,-2,0,0,2,5
1532289847978,-1,-7,-2,-1,0,-1,0,4
1532289847983,1,2,0,0,-2,-2,-1,7
1532289847988,-2,-7,-2,-2,-1,0,0,-6
1532289847993,-3,-6,-2,-2,-1,-2,-2,-2
1532289847998,-1,11,0,0,-1,-1,0,-4
1532289848003,1,-1,-1,0,2,1,0,3
1532289848008,-2,-4,-1,0,1,0,-1,-3
1532289848013,-3,5,0,1,-2,0,-1,-2
1532289848018,1,-5,-3,1,0,1,1,17
1532289848023,-1,-7,-3,0,-1,-2,1,6
1532289848028,1,1,1,2,0,0,-1,-1
1532289848033,-1,3,0,-1,-1,0,-1,1
1532289848038,3,-8,-3,-2,-1,-2,-1,21
1532289848043,-8,0,-1,1,-2,0,-3,-16
1532289848048,5,7,2,0,0,-1,2,7
1532289848053,-1,-4,0,0,-3,-1,1,-5
1532289848058,-1,4,0,-2,-1,0,1,-9
1532289848063,-1,-3,-3,-2,0,-1,-1,4
1532289848068,-3,-4,0,0,-1,-1,-5,-9
1532289848073,0,12,2,1,-1,1,0,6
1532289848078,-1,-3,0,0,-1,-1,-2,-3
1532289848083,8,2,1,0,-1,-2,2,20
1532289848088,-8,-6,-2,-1,-3,-3,-2,-10
1532289848093,4,-1,-1,0,0,-1,1,5
1532289848098,-2,-4,-1,0,-1,-1,-1,-6
1532289848103,-1,2,-1,-1,0,-2,0,-2
1532289848108,-1,-7,-2,0,-2,-1,-1,8
1532289848113,0,9,0,-1,0,-1,-1,-2
1532289848118,-1,-2,-2,0,-1,-1,0,-7
1532289848123,1,1,1,-1,-1,1,-1,-1
1532289848128,3,4,0,-1,-1,-1,0,-3
1532289848133,-6,-6,-2,-2,-2,-3,-3,-21
1532289848138,-4,-6,-2,-1,-1,0,0,-5
1532289848143,4,7,-1,-3,0,0,-1,6
1532289848148,0,-1,-3,-1,-1,-1,-1,9
1532289848153,-3,-5,-2,1,0,0,1,3
1532289848158,0,0,1,-1,-1,-1,-1,-4
1532289848163,-1,-4,-1,0,-1,0,0,-5
1532289848168,-1,-2,0,0,-1,0,3,0
1532289848173,-1,-7,-2,-2,-2,-2,-2,3
1532289848178,-1,11,0,-1,0,0,1,-15
1532289848183,1,2,0,1,-1,-1,-3,2
1532289848188,0,3,2,-2,-1,1,0,-3
1532289848193,-1,-1,-3,-1,-1,-1,-2,2
1532289848198,-5,-7,-2,-1,-1,0,0,6
1532289848203,-2,-13,0,0,-1,0,-3,-14
1532289848208,3,14,2,-1,-1,-1,0,-3
1532289848213,-1,-4,-1,-1,-1,-1,-1,-8
1532289848218,4,-1,-1,-2,-2,-3,0,3
1532289848223,-2,3,-1,-1,-1,0,0,-7
1532289848228,0,-2,0,-1,0,0,0,0
1532289848233,-1,1,1,0,-1,0,1,0
1532289848238,2,-1,-3,-3,-1,1,-1,2
1532289848243,0,-5,0,0,-2,-2,1,7
1532289848248,-5,-6,-2,-1,-2,-2,-2,-1
1532289848253,0,2,-1,-1,-2,-2,1,-16
1532289848258,-4,-6,-3,1,-1,-2,-1,-10
1532289848263,1,-3,-3,0,2,-1,0,11
1532289848268,6,14,2,-1,-1,-1,0,2
1532289848273,0,-1,-2,0,-1,0,0,5
1532289848278,-4,-4,-1,-1,-2,0,-1,-5
1532289848283,-2,3,0,-2,-2,-1,0,-10
1532289848288,-2,-7,-5,-2,1,-2,2,15
1532289848293,-3,-6,-1,-1,-1,-2,-1,-2
1532289848298,5,12,3,-1,-2,-1,1,-2
1532289848303,1,4,0,0,0,-1,0,-5
1532289848308,-3,-4,-3,-1,0,0,-1,7
1532289848313,-2,-2,0,-1,-1,0,1,-13
1532289848318,-2,-4,-2,0,-1,-1,-1,10
1532289848323,5,-1,-1,-1,-1,0,1,27
1532289848328,-3,-8,-3,-1,-3,-2,-3,-8
1532289848333,1,-2,-1,0,0,0,0,11
1532289848338,2,10,2,-1,2,-1,0,-5
1532289848343,-2,6,1,0,0,-1,-1,-5
1532289848348,0,-4,-2,1,-1,-3,-1,-5
1532289848353,-2,0,-3,-1,-1,-1,-1,9
1532289848358,-2,-11,-1,-1,-2,-2,-2,-4
1532289848363,-6,4,3,-1,0,0,-3,-9
1532289848368,-3,-2,-1,0,0,0,-2,-9
1532289848373,1,3,-1,-1,0,0,-2,-15
1532289848378,3,-4,1,1,-1,-2,1,1
1532289848383,-2,-3,-2,-2,-2,-3,0,-2
1532289848388,-4,-3,0,-3,-1,-1,-1,2
1532289848393,0,-4,-2,-1,-2,-1,-1,3
1532289848398,1,-5,-2,0,0,-2,-1,6
1532289848403,2,1,1,-2,-2,0,1,1
1532289848408,0,0,-3,-3,-1,0,1,-12
1532289848413,-5,-10,-1,0,1,-2,-2,5
1532289848418,4,7,2,1,0,3,1,13
1532289848423,1,2,0,-2,-2,0,0,-7
1532289848428,-1,-1,0,1,-1,-1,-2,5
1532289848433,1,-2,-1,-2,-1,-2,-1,5
1532289848438,-6,-4,-3,-1,-2,0,-3,-8
1532289848443,-1,-4,-2,2,2,0,0,-2
1532289848448,-1,-2,-1,0,0,1,2,-3
1532289848453,2,4,1,0,0,-1,-2,0
1532289848458,-3,0,-1,-2,-2,-1,0,-5
1532289848463,1,-3,-2,-2,-2,0,0,0
1532289848468,1,4,0,0,-2,-2,1,-2
1532289848473,-1,-2,1,1,-3,-1,1,9
1532289848478,-2,2,0,-1,1,1,1,-9
1532289848483,-3,-5,-2,-1,0,0,-2,0
1532289848488,3,-8,0,0,0,0,0,20
1532289848493,-1,10,2,-2,-3,0,-1,-1
1532289848498,0,-5,-3,-1,0,-1,-2,-5
1532289848503,1,3,0,0,0,-3,-2,-4
1532289848508,-3,-1,-1,0,-1,-1,-2,-11
1532289848513,2,-1,-3,1,0,-1,-1,3
1532289848518,-8,-10,-2,-1,-2,-1,0,-6
1532289848523,-2,1,-2,0,0,-2,0,-1
1532289848528,4,2,0,0,-1,1,1,4
1532289848533,2,-1,-1,-1,0,-1,0,4
1532289848538,0,2,-2,-3,-2,-2,-3,1
1532289848543,-3,-6,-4,0,-2,-1,-1,0
1532289848548,-4,-7,-2,-1,0,-1,0,-10
1532289848553,1,7,2,-2,0,0,-1,-14
1532289848558,0,1,0,1,-1,0,0,15
1532289848563,-2,1,0,-1,0,0,-2,-3
1532289848568,-5,-6,-5,-2,-2,-1,0,-5
1532289848573,0,-1,2,0,0,-2,-2,-13
1532289848578,0,5,-1,-1,-2,-3,1,2
1532289848583,0,-5,-1,1,-1,1,-1,3
1532289848588,-2,2,0,0,-1,-2,0,1
1532289848593,0,-1,-1,1,-1,-1,-1,-1
1532289848598,1,1,1,0,0,-1,-2,-5
1532289848603,-1,0,-2,-1,-1,-2,-1,5
1532289848608,-3,-1,-3,-2,-2,-1,-2,-10
1532289848613,-2,-10,-3,-1,-1,-2,1,8
1532289848618,2,6,1,-1,0,-1,0,-4
1532289848623,-4,0,0,0,-3,-2,-1,-13
1532289848628,0,-3,-1,-1,0,-2,-1,-2
1532289848633,-3,1,-2,-1,0,0,0,0
1532289848638,-4,-2,-3,-2,0,-1,0,-2
1532289848643,0,1,0,-2,1,-1,-1,10
1532289848648,1,-1,-2,-1,-1,-1,-1,3
1532289848653,2,-2,1,1,0,1,-1,0
1532289848658,-4,-3,-2,-1,0,0,0,8
1532289848663,-1,-8,-2,-2,0,0,1,-6
1532289848668,3,2,1,-2,-2,1,0,1
1532289848673,0,7,1,-1,0,-2,-1,-4
1532289848678,0,-5,-2,-2,-2,-2,-2,-12
1532289848683,-3,-1,-2,0,-1,0,-1,-7
1532289848688,-2,-5,0,-1,0,-1,1,2
1532289848693,-4,-6,-4,0,-1,-1,-1,-8
1532289848698,-4,-4,-1,0,-1,0,-2,-3
1532289848703,1,2,-1,0,-1,-1,2,-2
1532289848708,0,2,1,-1,-1,-1,-2,-5
1532289848713,-2,-4,-1,-1,-1,-1,1,10
1532289848718,-1,3,0,0,-2,-1,-2,4
1532289848723,-1,-6,-2,-1,-1,-2,0,-2
1532289848728,-2,5,2,0,-1,-2,-1,2
1532289848733,0,0,-1,-1,-1,0,0,-11
1532289848738,-1,-5,-3,-2,0,1,0,8
1532289848743,-2,-9,-2,-2,0,0,1,0
1532289848748,-3,4,0,0,1,-1,-4,-1
1532289848753,-2,6,-2,0,-1,1,-1,-11
1532289848758,0,1,1,0,0,-1,0,-15
1532289848763,1,0,0,-1,-2,0,-1,9
1532289848768,-2,-8,-2,-1,-1,-1,-1,4
1532289848773,-3,-3,-1,-1,-2,-1,1,8
1532289848778,-2,-2,-2,0,-1,-2,-2,-2
1532289848783,1,6,1,-2,0,0,1,7
1532289848788,4,-2,-2,-2,-1,1,0,10
1532289848793,-2,-3,-3,0,-2,-2,-1,-3
1532289848798,0,-4,0,-1,-2,0,2,-8
1532289848803,-3,-4,-2,-1,-1,-2,-1,-10
1532289848808,-2,-2,-1,-2,0,0,1,-2
1532289848813,1,4,0,-3,1,0,0,14
1532289848818,-5,-5,-1,-1,0,-1,-1,-3
1532289848823,7,5,2,0,1,1,0,1
1532289848828,-2,6,-1,0,-2,-2,-1,-8
1532289848833,1,3,-2,-1,1,-1,-3,5
1532289848838,-3,0,-3,-1,0,-1,-2,3
1532289848843,-2,0,1,0,-1,-1,0,-10
1532289848848,-1,0,0,1,0,-2,-2,-5
1532289848853,-1,-4,-2,-3,0,-2,0,7
1532289848858,3,-1,0,-2,-1,2,1,3
1532289848863,-2,1,0,2,0,0,-1,-9
1532289848868,-1,-1,-1,-1,-1,0,0,-2
1532289848873,-3,-3,0,-2,0,0,-1,-4
1532289848878,1,-1,-2,0,0,-3,-1,7
1532289848883,0,1,-1,-3,-2,-1,0,-15
1532289848888,1,-1,-1,-1,0,-2,0,-11
1532289848893,-1,-3,-2,-1,0,0,-2,2
1532289848898,-2,-6,-3,0,0,2,0,-6
1532289848903,-2,2,1,-1,-1,-2,-2,2
1532289848908,-1,-1,-1,0,-1,0,1,-1
1532289848913,2,1,-1,-1,-4,0,0,-14
1532289848918,0,-2,-2,-2,-2,-1,0,1
1532289848923,-4,-2,-2,-1,-1,0,-2,-3
1532289848928,0,1,2,0,0,0,-1,5
1532289848933,-1,-2,-1,-1,0,-2,-1,1
1532289848938,-3,0,0,0,-1,0,-2,-3
1532289848943,3,1,2,0,-1,1,0,22
1532289848948,-4,-1,-1,-1,0,-1,-1,4
1532289848953,-2,0,0,0,-1,0,-2,1
1532289848958,4,6,1,0,-1,0,-1,-1
1532289848963,-1,-1,-3,-2,-1,-1,0,-6
1532289848968,-1,-4,-1,0,-1,-2,0,-5
1532289848973,1,-1,1,1,1,0,-1,1
1532289848978,0,1,0,0,-2,-3,-2,0
1532289848983,-6,-5,-2,1,0,2,2,-8
1532289848988,0,-4,-1,-2,0,-1,0,-9
1532289848993,2,8,0,-1,0,1,1,-1
1532289848998,-3,-17,-2,-1,1,-1,-1,-5
1532289849003,2,11,0,-1,1,-2,-2,5
1532289849008,-4,-24,-4,0,0,0,0,25
1532289849013,5,38,2,0,0,0,-4,1
1532289849018,-10,-1,-2,-2,-3,-2,-2,-4
1532289849023,10,0,-1,-1,-2,-1,-1,-1
1532289849028,2,22,0,-3,-1,0,0,-12
1532289849033,-3,-37,-5,-1,-1,-2,1,-3
1532289849038,-6,-12,-2,-1,0,-1,-2,3
1532289849043,-2,-13,-1,0,-1,-2,1,-5
1532289849048,-3,2,-2,0,-2,-2,-2,-5
1532289849053,-1,1,-1,-3,1,-2,1,2
1532289849058,2,5,0,-1,0,-1,1,-4
1532289849063,-2,-2,0,-1,-1,-1,-3,-1
1532289849068,0,-4,1,-1,-1,0,-3,-7
1532289849073,-8,-10,-1,1,-2,0,0,1
1532289849078,3,4,-1,-1,0,-1,1,-8
1532289849083,-5,2,-2,-1,0,-2,-1,0
1532289849088,1,6,-2,-1,-2,-1,-1,-14
1532289849093,4,1,0,-1,0,-1,-1,7
1532289849098,0,9,-1,-1,0,0,-2,5
1532289849103,-4,-3,-1,0,-1,-1,-2,-5
1532289849108,-1,-6,-3,0,-1,0,1,1
1532289849113,-4,-9,-2,-1,-2,-1,2,-3
1532289849118,5,10,0,-1,-1,0,-1,-1
1532289849123,1,-1,0,0,0,-1,1,18
1532289849128,-1,-4,-1,-1,0,-2,-2,1
1532289849133,-2,-4,-1,-2,-2,0,-3,3
1532289849138,1,-2,0,-2,0,0,-1,5
1532289849143,-1,-1,0,-3,-3,0,-2,-7
1532289849148,-1,3,1,-1,-1,-1,-1,1
1532289849153,0,-2,-1,-1,0,-1,0,-6
1532289849158,3,0,0,-1,0,-2,0,-8
1532289849163,-6,-6,-3,0,1,1,-1,-9
1532289849168,4,0,1,0,0,-1,-1,6
1532289849173,1,7,1,0,-3,-3,-1,-4
1532289849178,-6,-14,-4,-1,-2,0,-1,1
1532289849183,2,11,3,1,0,-1,0,-4
1532289849188,-3,3,0,0,0,1,0,-5
1532289849193,2,-1,-1,1,1,-1,0,4
1532289849198,9,3,0,-2,-1,0,2,-2
1532289849203,-6,-13,-5,-2,-2,0,-1,2
1532289849208,-5,-7,-3,-1,-2,-2,-2,-1
1532289849213,0,6,2,-1,0,0,-1,-9
1532289849218,0,-2,-1,-1,-1,0,1,1
1532289849223,0,3,0,0,-1,-1,-1,-5
1532289849228,1,0,0,-1,-1,-1,-1,1
1532289849233,-5,-9,-5,-2,-1,1,-2,-1
1532289849238,1,6,1,1,0,-2,0,2
1532289849243,2,10,1,-1,-1,0,-1,0
1532289849248,1,1,-2,2,0,-1,4,2
1532289849253,-7,-7,-4,0,-2,-1,0,-3
1532289849258,0,-9,-1,0,1,0,-2,1
1532289849263,2,12,2,-2,-1,-1,-2,-26
1532289849268,-5,-9,-3,-1,0,-1,0,4
1532289849273,8,13,4,1,0,-1,-1,-12
1532289849278,0,1,-3,0,-2,-1,1,3
1532289849283,1,-5,0,1,-2,-1,2,2
1532289849288,0,1,-1,-1,-2,0,-2,-5
1532289849293,-3,-6,-1,-2,-2,-2,0,7
1532289849298,0,3,0,-1,-1,0,-1,0
1532289849303,-3,-8,-1,0,0,-1,-1,-1
1532289849308,1,2,0,0,0,-2,-1,-2
1532289849313,-4,-11,-3,0,0,-1,0,3
1532289849318,6,17,3,-2,-2,-2,0,0
1532289849323,-4,0,-1,-1,0,0,-3,6
1532289849328,2,-3,-1,-2,1,-1,-1,-8
1532289849333,-6,-1,-1,0,-1,-2,0,3
1532289849338,-5,-7,-2,-1,0,-2,2,-14
1532289849343,1,-4,-2,-2,-1,0,0,5
1532289849348,2,0,-1,-2,-1,0,0,-1
1532289849353,2,1,0,-2,-1,0,-1,-4
1532289849358,-3,-2,-2,0,-1,-1,-3,3
1532289849363,-2,-2,-1,-1,-2,-1,0,1
1532289849368,-1,-1,0,-2,0,-2,0,1
1532289849373,-2,-2,-2,-2,1,-1,0,-1
1532289849378,0,-3,-1,1,-1,-1,-1,-9
1532289849383,-2,-5,-2,0,0,-1,-2,-1
1532289849388,2,4,3,0,0,1,-7,4
1532289849393,-1,2,-2,0,-3,-1,-5,-5
1532289849398,-1,1,-1,0,-1,-1,-1,1
1532289849403,-3,-3,-3,0,-2,-3,2,8
1532289849408,-3,-4,-3,-2,-1,1,4,-6
1532289849413,2,-1,-1,0,0,-2,3,2
1532289849418,-2,-1,-2,-2,-2,1,0,1
1532289849423,1,-1,-1,-1,-2,0,1,-5
1532289849428,-1,0,-1,0,-2,-1,-1,7
1532289849433,2,0,1,0,-1,0,2,23
1532289849438,1,-2,-2,-3,1,-2,0,4
1532289849443,0,4,1,0,1,0,-4,-6
1532289849448,0,9,0,0,-1,-1,-1,-5
1532289849453,-2,2,0,0,-2,-1,-1,-7
1532289849458,-2,-14,-2,0,0,2,2,5
1532289849463,-4,0,0,0,0,0,0,-8
1532289849468,-1,-2,-1,-2,0,-1,-2,-1
1532289849473,0,0,-2,-2,-1,0,-2,-4
1532289849478,1,0,-1,-1,-2,-1,-8,7
1532289849483,1,5,1,-1,1,-1,-5,-2
1532289849488,-2,-2,0,1,1,-1,-2,-5
1532289849493,-1,-3,-3,0,1,0,2,1
1532289849498,-4,-2,-3,0,0,2,4,-7
1532289849503,0,-1,0,-1,1,2,0,0
1532289849508,3,5,-2,-2,-2,-2,1,3
1532289849513,-4,-3,0,-2,-1,-1,1,-4
1532289849518,0,3,-1,0,1,-1,0,-5
1532289849523,-2,-1,-1,-1,-1,-1,-2,3
1532289849528,-4,-7,-2,-1,-2,-2,-4,-5
1532289849533,-1,2,-2,0,1,1,-1,-4
1532289849538,-3,0,-2,-1,0,-2,-3,-2
1532289849543,-1,-3,-2,-1,-2,-2,35,0
1532289849548,2,-2,-1,0,0,0,17,0
1532289849553,1,-4,-1,-1,-2,-1,4,-16
1532289849558,0,7,2,0,-1,-2,-5,4
1532289849563,-2,-4,-3,-3,-2,-1,-17,-5
1532289849568,3,-5,-1,-1,0,1,-7,10
1532289849573,-2,-1,0,-1,-2,-1,-5,-7
1532289849578,0,3,0,0,-1,-1,-3,8
1532289849583,2,-5,-2,-1,-2,-2,-7,3
1532289849588,-8,-6,-3,-2,-1,-1,-2,-12
1532289849593,6,-9,0,0,1,1,-5,-13
1532289849598,-1,5,1,-1,-2,-2,0,-2
1532289849603,-1,0,-1,-1,-1,-1,-4,3
1532289849608,-1,4,0,0,0,0,-1,-6
1532289849613,-2,-5,-1,-1,-1,1,-5,-4
1532289849618,-1,4,1,1,-1,-1,0,-2
1532289849623,-3,-6,-5,1,0,-1,-1,3
1532289849628,0,1,0,0,-2,0,1,2
1532289849633,-5,6,-1,0,-1,-1,0,-5
1532289849638,3,-6,-2,0,-1,1,3,11
1532289849643,2,7,0,1,0,-1,-2,2
1532289849648,0,-7,-1,0,0,-2,-3,9
1532289849653,0,4,1,-2,0,-2,2,2
1532289849658,-6,-4,-3,-3,-1,0,-1,-7
1532289849663,-1,-6,-3,-1,-1,-1,-1,11
1532289849668,3,-1,-2,-1,0,0,2,13
1532289849673,-2,-1,2,1,-1,0,-1,-2
1532289849678,0,0,-1,0,1,-2,0,-4
1532289849683,-2,-4,1,-2,0,0,0,0
1532289849688,-4,0,-1,-2,-2,-2,-3,-12
1532289849693,0,-1,-2,-1,-2,-2,-1,11
1532289849698,0,-3,-2,0,-2,0,-1,0
1532289849703,3,2,0,1,0,0,1,-6
1532289849708,-1,-1,-2,-1,0,-1,2,-5
1532289849713,-2,0,-1,2,1,0,2,-6
1532289849718,-2,-5,-1,0,0,-2,0,-7
1532289849723,3,0,0,-1,-1,-1,0,9
1532289849728,-4,0,-1,-2,0,-1,0,1
1532289849733,0,-5,-2,0,-1,-1,-1,-3
1532289849738,1,10,2,-2,-2,-2,0,0
1532289849743,-4,-5,-2,-1,-1,-2,-1,-4
1532289849748,-3,-2,1,-1,-1,0,0,-10
1532289849753,2,-2,-2,-1,1,0,1,6
1532289849758,2,-6,1,0,-1,0,0,-5
1532289849763,-1,1,-1,-1,-1,-3,0,7
1532289849768,-2,-2,1,-2,1,-1,0,2
1532289849773,0,3,1,-3,-2,0,1,-7
1532289849778,-8,-8,-3,-2,-1,0,-1,2
1532289849783,7,-8,0,1,-1,2,0,-8
1532289849788,0,14,3,0,-2,-1,-3,-4
1532289849793,1,4,1,0,0,-3,1,2
1532289849798,0,0,-2,-1,0,-1,0,7
1532289849803,-3,-3,-1,-2,-2,0,-4,-9
1532289849808,-2,-11,-2,1,-2,-1,-2,-4
1532289849813,0,4,0,-1,-3,-2,-2,5
1532289849818,-2,-4,-3,-3,-1,-2,-1,-2
1532289849823,-4,-1,-2,-1,-1,0,0,1
1532289849828,3,-1,-1,0,0,0,1,-5
1532289849833,0,-2,-2,-1,0,-2,0,2
1532289849838,3,-2,-1,-3,-3,-1,2,4
1532289849843,-5,-4,-3,-1,-1,-2,-2,-17
1532289849848,-1,-2,0,0,-1,-2,-3,0
1532289849853,3,7,1,0,1,1,-1,12
1532289849858,-3,-2,-1,0,-3,-1,0,-13
1532289849863,2,7,2,0,-1,0,-1,17
1532289849868,0,-3,-4,-3,-2,-1,-1,10
1532289849873,-4,-7,-3,-1,0,-1,-2,-14
1532289849878,0,-1,1,0,0,0,-2,4
1532289849883,1,0,-1,0,0,-1,0,24
1532289849888,-4,-4,-2,0,1,-1,-2,-4
1532289849893,-3,-4,-2,0,-1,-1,0,1
1532289849898,5,0,0,-1,0,1,-1,1
1532289849903,-4,2,0,0,-1,-2,-2,-15
1532289849908,1,3,0,-1,-2,0,-1,6
1532289849913,-3,-2,-2,-1,-2,0,0,-12
1532289849918,-5,-3,-4,-1,-1,0,0,2
1532289849923,-1,-3,-2,-1,1,1,1,-13
1532289849928,3,9,1,0,0,-1,-2,-4
1532289849933,-2,-3,-2,-1,-2,-2,-3,-4
1532289849938,-2,-1,1,0,-1,1,-1,-1
1532289849943,3,-2,-2,0,-1,0,3,40
1532289849948,-1,-4,-1,-2,-1,0,2,-11
1532289849953,2,3,2,1,0,-1,1,-3
1532289849958,-2,5,1,0,1,-1,-1,-7
1532289849963,0,6,0,-1,-1,-2,-2,-11
1532289849968,0,-2,-1,0,-2,-1,0,4
1532289849973,-2,-8,-2,-2,1,-2,-3,12
1532289849978,0,-2,0,-1,-1,-1,0,-6
1532289849983,-3,-1,1,-1,-1,0,-2,-12
1532289849988,0,-1,-2,1,-2,-1,0,-10
1532289849993,2,1,-2,-1,-2,0,-1,2
1532289849998,-4,-6,-2,0,-2,-3,-4,-7
1532289850003,0,3,-1,-2,-1,-1,0,5
1532289850008,-4,-3,-2,-2,0,-1,1,0
1532289850013,-3,-8,-2,-3,-1,-2,-3,0
1532289850018,5,12,2,0,0,-1,-2,-1
1532289850023,-2,-1,0,-1,-1,-2,-3,-7
1532289850028,0,-1,-1,-1,-1,-3,-1,-1
1532289850033,-7,-1,-3,-1,-1,0,2,-6
1532289850038,0,-1,-1,1,1,0,0,1
1532289850043,-1,-8,1,0,-2,-1,0,-10
1532289850048,-2,-2,-1,-2,-2,1,-1,2
1532289850053,6,6,1,-1,-2,0,0,1
1532289850058,2,-2,-4,-2,-2,-1,1,18
1532289850063,-3,4,1,3,0,1,-3,-18
1532289850068,-1,-5,-3,-2,0,-2,1,11
1532289850073,-3,-5,-2,-1,1,0,-1,-3
1532289850078,2,6,2,-1,-1,-2,-1,-2
1532289850083,3,7,-1,-1,0,-1,2,1
1532289850088,-5,-3,-1,1,0,0,-2,-4
1532289850093,-2,0,0,0,0,0,0,1
1532289850098,-3,-4,-2,0,-1,-1,0,-1
1532289850103,-2,-8,-3,-1,-1,-1,-1,-4
1532289850108,-1,1,1,-1,-3,-1,-2,-3
1532289850113,5,5,0,-2,0,0,2,14
1532289850118,-2,-4,0,-2,-2,0,0,-6
1532289850123,-3,-6,-2,-3,-2,-1,0,-4
1532289850128,0,7,0,0,0,-1,1,6
1532289850133,0,3,1,-1,-1,-2,-3,-7
1532289850138,-1,5,0,0,0,-1,0,-4
1532289850143,1,6,0,-2,-1,0,0,-4
1532289850148,3,-5,-2,-2,0,1,-1,8
1532289850153,-6,-5,-3,-1,-2,-2,-1,-1
1532289850158,2,-2,-1,1,-1,0,-1,-3
1532289850163,-2,-2,-2,-1,-2,-1,-1,-2
1532289850168,-2,-4,-1,0,-2,0,0,-7
1532289850173,0,2,-1,-1,-2,-3,0,8
1532289850178,1,-6,-4,0,-1,0,1,20
1532289850183,-2,-2,0,1,1,1,-4,-3
1532289850188,1,-1,-1,-1,-1,-2,0,-1
1532289850193,-1,-1,0,-1,-2,0,-3,-2
1532289850198,-4,-1,-2,-2,-1,-1,-1,-11
1532289850203,-3,-10,-3,-2,0,-1,-1,5
1532289850208,3,16,3,-1,1,-1,-2,-3
1532289850213,0,-1,-1,-1,-1,0,-1,1
1532289850218,-1,-11,-2,-1,-1,-2,0,5
1532289850223,-4,5,-2,0,-2,-1,-1,-6
1532289850228,1,0,-2,-1,-3,1,-2,-5
1532289850233,4,0,1,0,0,1,1,28
1532289850238,0,1,2,-1,0,-2,-1,-6
1532289850243,2,-4,-1,-2,0,-2,1,-1
1532289850248,-3,-5,-3,-1,-2,-2,-1,1
1532289850253,-4,-8,-3,0,0,-2,0,-10
1532289850258,-4,3,0,0,1,-1,-2,-14
1532289850263,0,4,1,0,-1,-1,-1,1
1532289850268,0,-5,0,0,-1,1,1,-1
1532289850273,-1,-1,-1,-1,-1,-1,-1,1
1532289850278,-2,-6,-4,-1,-1,1,-2,4
1532289850283,-3,2,1,-1,0,-3,-2,-15
1532289850288,-1,6,3,-1,2,0,-1,-3
1532289850293,3,-2,-1,0,-2,1,0,14
1532289850298,-3,0,-2,-2,-3,-1,-1,-1
1532289850303,5,2,0,0,-1,0,1,14
1532289850308,-5,-4,-1,-1,-1,-1,-2,-10
1532289850313,-1,2,-2,-2,-2,-2,-2,-24
1532289850318,2,-4,0,-1,0,0,1,-1
1532289850323,-2,-5,0,-1,-2,-1,-2,7
1532289850328,2,-2,-1,0,0,-1,1,4
1532289850333,-3,-3,-1,0,-1,1,0,-5
1532289850338,-2,-8,0,-1,-1,-1,-2,-2
1532289850343,3,6,0,-2,-1,-3,-1,-3
1532289850348,0,1,-2,-1,-1,0,-1,-3
1532289850353,1,-1,-2,0,-1,-3,1,6
1532289850358,-2,-4,-2,-2,-1,-1,-2,-10
1532289850363,-3,-8,-2,0,1,1,-1,6
1532289850368,3,5,2,1,2,0,2,0
1532289850373,-3,0,-2,-1,0,-1,-1,-6
1532289850378,-3,1,1,-2,-2,0,-1,2
1532289850383,0,-3,-2,-1,0,1,-3,-2
1532289850388,2,4,1,-1,-2,-1,0,-8
1532289850393,-1,-1,-2,1,-1,0,0,-2
1532289850398,-2,-2,0,-1,-1,0,-1,-6
1532289850403,-1,9,1,0,-2,-1,-3,-7
1532289850408,-4,-10,-4,-1,-2,-2,0,2
1532289850413,0,2,1,-1,0,1,-3,9
1532289850418,1,5,-3,-2,-1,-1,0,2
1532289850423,-1,-11,-1,-1,0,0,2,-12
1532289850428,-5,0,-1,-1,0,-1,0,11
1532289850433,-1,-2,-1,-1,-1,-1,-2,-18
1532289850438,-1,0,-2,1,-1,1,-1,-3
1532289850443,-1,9,2,-1,-3,-1,-1,8
1532289850448,0,-7,-3,-1,0,-1,0,-4
1532289850453,-4,-1,-1,-1,0,-2,-2,-7
1532289850458,0,-4,-2,-2,1,-3,0,9
1532289850463,6,-3,1,0,0,0,0,27
1532289850468,1,2,1,-2,-2,0,-2,-6
1532289850473,-1,2,-1,-2,0,-2,-2,-2
1532289850478,-4,-1,-2,0,0,0,1,-11
1532289850483,-3,-18,-4,-1,-1,-1,-1,-6
1532289850488,0,9,2,1,0,0,0,7
1532289850493,1,-2,0,0,-1,1,-2,-4
1532289850498,2,7,2,0,0,-1,0,4
1532289850503,-8,-4,-3,-3,-1,0,0,-17
1532289850508,3,-11,-3,-2,-1,0,-3,4
1532289850513,0,5,1,-1,-1,0,0,-3
1532289850518,-3,-4,-2,-1,0,-2,0,2
1532289850523,2,11,-1,0,0,-2,1,3
1532289850528,0,-4,-2,0,-2,1,0,14
1532289850533,-2,-7,-2,0,-1,0,3,3
1532289850538,1,-3,-2,0,-1,0,-2,1
1532289850543,2,7,0,-1,0,0,0,-1
1532289850548,-6,6,0,-1,1,-3,-1,-2
1532289850553,-1,-7,-1,-1,0,-1,3,-11
1532289850558,0,5,1,0,-3,-1,-2,-6
1532289850563,-1,-4,-3,-1,-2,0,-1,-1
1532289850568,-2,-6,-1,0,-2,0,-1,-3
1532289850573,-1,1,-1,-1,1,0,-3,2
1532289850578,0,-4,-2,0,0,0,0,2
1532289850583,-6,1,2,-2,-2,-1,-3,-12
1532289850588,0,-3,-3,-2,-1,-1,-1,-16
1532289850593,0,0,0,1,-1,-2,0,3
1532289850598,2,6,0,-1,-1,1,0,6
1532289850603,0,-12,-4,1,-1,-2,2,-6
1532289850608,-4,4,1,-3,0,0,-4,-18
1532289850613,-2,-2,-1,-2,0,0,2,-1
1532289850618,1,-6,-2,-1,-1,-1,0,4
1532289850623,-2,3,-1,0,-2,0,0,0
1532289850628,1,0,-1,0,-1,0,0,-6
1532289850633,3,3,-1,0,0,0,0,9
1532289850638,-2,-2,0,-2,0,0,-2,-4
1532289850643,-4,-5,-2,-3,0,-1,-1,5
1532289850648,2,0,0,0,0,-1,1,-5
1532289850653,-3,-2,-2,-1,-2,-1,0,-1
1532289850658,-3,-4,-1,0,1,-1,-2,-5
1532289850663,-3,-4,-3,-2,-1,-3,-1,0
1532289850668,0,3,0,0,-3,-2,1,-11
1532289850673,7,1,1,0,0,-1,2,2
1532289850678,-3,-3,0,0,-1,-2,-1,1
1532289850683,-2,-1,1,-1,0,1,-1,3
1532289850688,-2,-2,-2,-2,0,-3,0,7
1532289850693,-3,-7,-3,-1,0,1,-2,-8
1532289850698,0,8,0,1,-1,-3,-2,-13
1532289850703,1,8,1,-1,-2,0,-1,-2
1532289850708,-3,-6,-1,-2,-2,-1,-3,2
1532289850713,1,3,0,0,-1,1,-1,-6
1532289850718,-4,-11,-4,-1,-2,-1,0,14
1532289850723,-4,-5,-2,0,-1,-1,1,-13
1532289850728,3,5,1,0,-2,-1,-1,-8
1532289850733,-2,2,-3,-1,1,-2,-2,4
1532289850738,-2,-2,0,0,-1,-1,-1,-4
1532289850743,0,-8,-2,0,-3,-1,-1,0
1532289850748,0,8,2,-1,0,-1,-2,-2
1532289850753,-2,-2,-1,0,-1,-1,-1,0
1532289850758,2,3,0,-1,-1,-1,1,0
1532289850763,-2,0,-2,-1,-1,0,-2,-3
1532289850768,-4,-6,-3,-1,-1,0,-1,-2
1532289850773,2,3,0,0,-2,-2,0,5
1532289850778,0,5,0,0,-1,-1,-1,0
1532289850783,2,4,3,1,0,1,-2,2
1532289850788,0,-1,0,0,-1,-1,0,2
1532289850793,-3,0,0,-2,1,1,0,-10
1532289850798,-4,-4,-2,1,-1,0,0,5
1532289850803,-4,-5,-1,-1,-1,-3,-1,3
1532289850808,5,2,-1,-1,-1,-1,0,23
1532289850813,1,6,2,0,-2,-1,1,1
1532289850818,0,-4,-3,-2,-2,0,0,-2
1532289850823,-2,-1,0,-1,1,0,-3,1
1532289850828,-3,-3,-1,-1,-1,-1,-1,-5
1532289850833,-1,-4,-2,-3,0,-1,0,4
1532289850838,0,6,2,1,-1,-1,-1,-5
1532289850843,0,-5,-1,-1,1,-1,1,3
1532289850848,-2,1,-1,-1,0,-2,-1,-7
1532289850853,0,8,1,-1,-2,-1,-2,-12
1532289850858,-5,-9,-3,-1,-1,-1,-2,3
1532289850863,4,4,1,0,-2,-1,1,-17
1532289850868,-2,-7,0,-1,0,1,0,-3
1532289850873,-2,-3,0,-2,-1,-1,-1,11
1532289850878,4,2,-1,-1,-1,1,2,14
1532289850883,-3,-3,-4,0,-2,-2,-1,1
1532289850888,-3,-4,-2,-1,0,-1,-1,0
1532289850893,1,3,0,0,0,-2,0,26
1532289850898,-2,-3,-1,-1,0,-1,0,-13
1532289850903,-1,0,-1,1,-1,-1,-2,-6
1532289850908,-4,-5,-2,-1,-2,-2,-3,-3
1532289850913,-1,6,0,0,-1,0,-2,-6
1532289850918,-3,-6,2,0,2,-2,-2,14
1532289850923,6,0,0,-1,0,-2,1,14
1532289850928,-2,7,1,0,-1,-1,0,-9
1532289850933,-1,-9,-2,0,-3,1,1,0
1532289850938,-1,0,-3,-1,0,-1,-1,4
1532289850943,-9,-1,-1,-2,-2,-1,-3,-26
1532289850948,2,-1,-1,-1,2,0,0,-1
1532289850953,3,-4,-1,-3,1,0,0,8
1532289850958,-5,-1,0,-1,-1,-1,-2,-20
1532289850963,-4,-6,-2,0,0,0,0,2
1532289850968,-1,2,0,0,0,-2,0,9
1532289850973,-2,-5,-2,0,-1,0,-4,-21
1532289850978,3,18,3,-1,-1,-1,-3,2
1532289850983,4,-9,-1,1,-1,0,2,34
1532289850988,-2,-2,1,-1,0,1,2,-6
1532289850993,0,-6,-1,-1,0,0,1,6
1532289850998,-6,-7,-3,-2,-1,-1,-1,-6
1532289851003,1,3,-2,0,0,0,-2,-7
1532289851008,2,0,-1,-1,-1,0,-1,7
1532289851013,-2,-2,-2,-1,-2,-3,0,-7
1532289851018,-1,-9,-2,0,1,-1,-1,-8
1532289851023,0,7,0,-3,-2,-1,0,4
1532289851028,-1,-6,-1,0,-3,-1,-1,-4
1532289851033,-3,-1,0,-1,-1,-1,0,-3
1532289851038,5,2,0,-2,-1,-2,1,-2
1532289851043,-2,-4,-3,-2,0,0,0,0
1532289851048,5,16,2,-1,-1,0,-1,3
1532289851053,-3,5,-1,-1,-1,-1,0,-1
1532289851058,-4,-5,-1,0,-2,0,-1,-11
1532289851063,-2,-4,-1,-1,-4,0,0,7
1532289851068,-1,-7,-4,-1,0,-1,-1,-3
1532289851073,-2,7,2,0,0,-2,-2,-6
1532289851078,4,11,3,0,-1,0,0,13
1532289851083,-5,-1,-3,-1,-1,-2,0,-4
1532289851088,-2,-5,-2,-1,2,-2,-4,-7
1532289851093,-3,-3,-2,-3,-2,-1,-2,-7
1532289851098,-1,-7,-4,-3,-1,-1,-1,3
1532289851103,2,1,-2,-2,-1,-1,0,1
1532289851108,-1,-1,0,-1,-2,-2,2,7
1532289851113,7,8,4,1,0,-3,2,3
1532289851118,-4,1,-1,1,-2,-1,-1,-16
1532289851123,-2,-1,0,-2,0,-1,-2,-6
1532289851128,-4,-5,-4,0,-3,-1,0,-1
1532289851133,-4,-11,-4,-3,-1,0,-1,3
1532289851138,1,-3,0,0,0,0,1,6
1532289851143,0,0,0,0,0,-2,0,-11
1532289851148,1,12,4,0,0,1,0,6
1532289851153,4,2,0,0,-2,-1,0,19
1532289851158,0,-1,-1,-2,-2,-1,-1,5
1532289851163,-4,-2,-1,-1,0,-2,-1,-6
1532289851168,2,-9,-1,-1,0,1,0,-3
1532289851173,-1,4,0,0,0,0,0,-5
1532289851178,-1,-5,-2,-2,-1,-1,-1,-1
1532289851183,-2,-1,-1,1,0,-2,-1,-1
1532289851188,-2,-8,-1,-1,-1,0,-1,0
1532289851193,-3,3,0,1,1,-1,0,-9
1532289851198,0,1,-1,-1,0,-1,-1,-8
1532289851203,-3,-1,-2,0,-1,-1,-2,1
1532289851208,1,-3,-3,0,0,0,1,12
1532289851213,0,-1,-2,-1,-1,-1,-2,-12
1532289851218,-2,-3,0,-2,-2,1,1,3
1532289851223,2,2,1,-1,0,-2,0,7
1532289851228,-2,-1,-2,0,0,-4,0,-6
1532289851233,-4,-5,-3,-3,0,-2,-2,-3
1532289851238,0,-3,0,0,-1,-1,-1,-12
1532289851243,0,5,2,-1,0,0,-2,-3
1532289851248,1,0,-1,-1,-2,0,-2,-1
1532289851253,2,2,-1,0,-1,-1,0,-4
1532289851258,-1,1,-4,-2,-2,-2,0,-1
1532289851263,1,-10,-1,0,-1,-1,-1,-2
1532289851268,0,7,0,-1,-2,1,-1,-16
1532289851273,-5,-6,-1,-2,-2,0,0,0
1532289851278,-1,-3,-1,-1,0,-1,-3,2
1532289851283,3,7,-2,1,-2,-1,-2,-6
1532289851288,-2,-2,-1,-1,-1,-2,-1,-9
1532289851293,2,-4,-2,0,-2,-1,1,16
1532289851298,-6,-5,-1,-1,0,-1,0,-7
1532289851303,-4,0,0,-2,0,1,0,-8
1532289851308,2,7,1,-3,1,-2,-1,-7
1532289851313,-1,-2,-1,0,-1,-1,-1,1
1532289851318,-4,-3,-2,-1,-1,-1,0,-10
1532289851323,1,2,1,-2,0,-1,1,4
1532289851328,0,-2,0,-1,-1,-1,0,8
1532289851333,-1,-1,-1,0,-2,0,0,2
1532289851338,-1,-5,-3,0,-2,1,-4,0
1532289851343,-1,0,1,0,-1,0,-1,-6
1532289851348,-3,-10,-3,-1,-2,-2,-2,-10
1532289851353,-1,0,-1,-1,1,-1,-1,1
1532289851358,3,15,4,0,0,-1,2,3
1532289851363,-4,-4,-4,-1,1,-1,-1,7
1532289851368,-1,-5,-3,0,1,1,0,5
1532289851373,1,-11,-1,-1,-1,0,-3,0
1532289851378,3,6,1,-1,0,-1,1,4
1532289851383,-1,-1,-3,-1,-3,-3,1,2
1532289851388,0,-4,0,-2,-2,-1,0,22
1532289851393,0,-5,0,1,-1,0,2,-3
1532289851398,1,0,0,-1,0,0,-2,1
1532289851403,0,-2,-2,-3,-1,0,-3,-1
1532289851408,-3,-4,-1,0,0,-1,-1,-7
1532289851413,-3,0,1,-1,0,-1,-3,-9
1532289851418,2,1,2,0,-1,0,-1,7
1532289851423,-1,1,0,-1,-1,0,1,3
1532289851428,-6,-6,-2,-2,-1,-1,-1,-12
1532289851433,3,16,2,-1,0,1,2,-4
1532289851438,-2,-6,-1,-1,0,-1,-2,-10
1532289851443,0,-7,-1,1,-1,0,1,6
1532289851448,6,5,0,0,0,2,0,20
1532289851453,-2,0,-3,-1,-2,-1,-1,5
1532289851458,-7,-7,-3,-2,-2,0,-2,-17
1532289851463,1,0,-1,1,0,-1,-3,-16
1532289851468,-2,4,0,-2,0,-2,-1,3
1532289851473,-1,-2,-1,-1,-2,-1,-1,-1
1532289851478,1,3,0,-1,-1,-2,1,9
1532289851483,-3,-6,-2,1,-1,-2,1,-13
1532289851488,-4,-5,-2,-1,0,-2,-2,-15
1532289851493,0,5,2,1,0,-1,-3,-3
1532289851498,4,2,-2,-1,-2,0,0,-3
1532289851503,-3,-4,-1,-1,-2,-1,-1,7
1532289851508,-1,0,1,-2,-1,1,0,-8
1532289851513,1,3,0,-2,-1,-3,0,1
1532289851518,1,0,1,0,0,0,1,3
1532289851523,-1,3,-2,-1,-2,-2,-1,0
1532289851528,-6,-6,-4,0,-1,-1,-3,-6
1532289851533,-3,-10,-3,0,1,0,-1,1
1532289851538,3,8,1,0,-1,-2,-1,4
1532289851543,2,-4,0,-3,-2,0,-1,2
1532289851548,0,11,1,0,-2,-1,-1,-10
1532289851553,0,-2,-4,-3,-3,-1,1,-7
1532289851558,-2,-7,-4,-1,-1,-1,-1,2
1532289851563,-1,0,0,-1,0,1,0,-3
1532289851568,2,6,2,0,-1,0,1,2
1532289851573,-2,-5,0,-1,0,-1,-1,-4
1532289851578,-2,3,0,0,1,-1,0,-1
1532289851583,-1,-1,-2,-1,-1,0,0,5
1532289851588,-2,-4,-1,0,-1,-2,-1,6
1532289851593,1,-2,-3,0,-1,0,0,-9
1532289851598,-1,-9,-1,-1,0,1,0,0
1532289851603,-2,12,3,0,-2,-1,-1,-5
1532289851608,2,-2,-2,0,-2,-1,0,-2
1532289851613,-1,3,-1,0,-2,0,1,-10
1532289851618,0,4,1,0,-2,-3,-2,7
1532289851623,0,0,-1,-1,2,0,-1,-1
1532289851628,0,-3,-3,-1,-2,-1,0,-6
1532289851633,-7,-9,-2,-3,0,-1,-2,-7
1532289851638,1,3,1,-1,0,-2,0,-4
1532289851643,0,1,-3,-2,-1,-3,-1,-10
1532289851648,-1,-5,-1,-1,-2,0,1,17
1532289851653,2,6,1,-1,-1,-1,1,-1
1532289851658,-1,-1,-2,0,0,-1,1,11
1532289851663,-2,-4,-1,-1,0,-1,1,-12
1532289851668,-6,-7,-3,-1,-1,-1,-2,-16
1532289851673,5,2,-1,1,-1,0,-1,15
1532289851678,2,5,-1,-2,-1,-1,-1,-1
1532289851683,-2,-1,-1,0,-2,-1,0,2
1532289851688,-2,-5,0,0,0,-1,-1,-7
1532289851693,-1,5,0,-2,-1,-1,0,4
1532289851698,-4,-5,-2,-1,-2,-1,-2,-7
1532289851703,1,-2,-1,0,0,0,-1,7
1532289851708,0,-1,-1,-1,-1,-1,0,1
1532289851713,-3,-6,-3,-2,-2,-1,0,10
1532289851718,-1,-5,-1,-1,-1,0,0,-7
1532289851723,-1,-3,0,0,-1,0,-1,-14
1532289851728,-1,0,0,-1,-3,0,-1,-9
1532289851733,3,-4,-1,-2,-1,-1,0,15
1532289851738,2,4,0,-1,-2,-2,-1,7
1532289851743,-5,0,-1,-1,-1,0,-2,0
1532289851748,-3,-8,-3,-1,-2,0,1,-1
1532289851753,-3,-1,0,0,-1,0,-1,-13
1532289851758,3,7,-2,-1,-2,0,1,11
1532289851763,0,1,1,0,-1,-2,-1,-8
1532289851768,-1,0,0,-2,0,-1,-1,-3
1532289851773,2,-1,0,-2,-1,-2,0,-7
1532289851778,-3,-4,-1,-1,1,1,-1,-1
1532289851783,-1,2,-1,0,0,0,-3,0
1532289851788,0,-11,-2,0,0,0,1,5
1532289851793,-1,6,1,0,-1,-1,-1,3
1532289851798,0,-1,-1,-1,-2,0,-1,-3
1532289851803,-1,-3,-1,-1,-1,0,-3,1
1532289851808,-3,-4,-3,-1,0,-3,-1,6
1532289851813,2,1,0,-2,0,0,-1,11
1532289851818,0,0,0,-1,-1,0,1,-3
1532289851823,-2,-2,-2,-2,0,-1,1,2
1532289851828,-2,-8,-4,-2,-1,-1,0,-2
1532289851833,3,-1,1,2,0,-1,-1,-1
1532289851838,1,5,1,-1,0,-2,1,2
1532289851843,0,-2,-2,-1,-1,-1,-1,0
1532289851848,-4,0,-1,1,0,0,0,-4
1532289851853,-2,-5,-4,-1,-2,-2,1,-4
1532289851858,0,-3,-1,0,0,0,-1,-6
1532289851863,2,1,0,-1,-1,-1,0,0
1532289851868,-1,-4,-2,-2,-3,1,-2,3
1532289851873,-1,6,-1,-1,-3,0,-2,8
1532289851878,-1,-3,-3,0,-1,-2,-3,-5
1532289851883,-3,0,0,0,-1,-2,0,-2
1532289851888,3,0,0,0,-1,0,1,4
1532289851893,-3,-1,-1,-1,-1,-1,1,1
1532289851898,-1,0,0,0,-1,-2,0,-9
1532289851903,1,-1,-1,0,0,1,0,5
1532289851908,-1,3,2,-1,-2,-2,-1,-7
1532289851913,-2,-6,-2,-1,-1,0,-2,2
1532289851918,-1,1,-1,-1,1,1,0,2
1532289851923,2,11,2,0,1,-2,-1,-9
1532289851928,1,1,-2,-2,0,-2,-1,11
1532289851933,-3,-7,-2,-1,1,0,-1,-11
1532289851938,-6,-7,-2,0,0,-2,-1,-13
1532289851943,0,-6,-3,-2,-2,-1,3,-10
1532289851948,0,4,0,0,0,-1,-3,3
1532289851953,2,3,0,-2,-1,-1,1,15
1532289851958,-1,-4,-2,0,-1,-1,-1,-8
1532289851963,-6,-3,-1,-1,-1,-2,-4,-11
1532289851968,3,4,0,0,1,0,-1,-5
1532289851973,-2,-1,-1,0,0,-1,-2,-3
1532289851978,-1,0,-1,-2,-2,1,1,7
1532289851983,-1,4,0,0,-2,0,0,2
1532289851988,-3,-1,-2,-2,-2,0,-2,-10
1532289851993,-2,-5,-3,0,-1,-2,-1,10
1532289851998,1,-13,-1,-2,-1,-1,-2,1
1532289852003,0,9,4,0,1,0,-2,-4
1532289852008,-1,3,0,0,-1,-3,-1,-12
1532289852013,4,3,-1,-1,0,0,2,21
1532289852018,-1,-1,-1,-1,0,0,0,4
1532289852023,-2,-9,-4,-2,-1,0,0,13
1532289852028,-1,-3,-1,0,1,0,0,-11
1532289852033,-2,-3,-1,-3,-1,-1,-2,-15
1532289852038,-1,3,-1,-1,-1,-3,-1,3
1532289852043,1,-2,1,1,-1,0,-1,-1
1532289852048,2,0,-2,-2,-1,-1,-1,7
1532289852053,-3,-2,0,-1,0,1,-2,-5
1532289852058,-1,0,-1,-1,-1,0,0,-1
1532289852063,-1,0,0,-1,1,0,0,6
1532289852068,-3,-8,-1,-1,0,-1,-1,-17
1532289852073,-3,1,0,1,0,-2,1,-2
1532289852078,4,8,-1,1,0,1,-2,18
1532289852083,6,9,4,-1,0,-1,-2,4
1532289852088,-3,-2,0,0,0,0,1,2
1532289852093,0,0,-2,1,-4,-1,-2,-8
1532289852098,-4,5,0,-1,-2,-2,-1,-7
1532289852103,1,-3,-3,-1,-1,-1,-2,-6
1532289852108,1,-3,1,0,1,0,0,8
1532289852113,-3,-1,1,-1,1,0,-2,-7
1532289852118,1,-6,-1,0,-2,0,-2,0
1532289852123,-2,-8,-4,-2,-3,1,-3,5
1532289852128,-2,-2,0,-1,-1,0,1,0
1532289852133,0,13,1,-1,0,-3,1,-17
1532289852138,0,-4,-1,-1,1,-1,1,-12
1532289852143,1,8,-1,0,-1,-2,0,-1
1532289852148,0,0,-2,-2,-2,0,0,9
1532289852153,-2,-6,0,-1,-1,0,-1,-3
1532289852158,-4,-2,1,0,-1,-1,-2,-3
1532289852163,-1,-5,-1,-2,-1,0,0,0
1532289852168,0,2,-2,-1,0,0,-1,-5
1532289852173,1,-4,-1,-2,0,-3,-2,-1
1532289852178,4,13,4,0,0,-1,1,4
1532289852183,-3,-9,-2,-1,-3,0,0,-6
1532289852188,0,3,0,-1,-3,-1,0,3
1532289852193,1,-1,-3,-2,0,1,-1,6
1532289852198,0,-2,-1,-1,-1,-2,-1,-5
1532289852203,1,0,0,-2,-1,-1,2,-15
1532289852208,-2,-2,-1,-1,-2,1,-2,3
1532289852213,1,-4,-2,0,-1,0,0,2
1532289852218,-1,0,-1,-1,0,-1,-3,2
1532289852223,-3,-2,-2,0,1,-1,-4,-7
1532289852228,-1,-1,0,-2,-1,-3,-8,1
1532289852233,0,0,0,0,-2,-2,-3,2
1532289852238,-3,-1,-1,-2,0,0,1,-2
1532289852243,-1,-3,-2,1,0,0,3,0
1532289852248,0,-7,-2,-1,1,-2,5,-4
1532289852253,2,1,1,0,-2,-2,4,4
1532289852258,0,1,-2,-2,-2,-1,2,4
1532289852263,-2,-7,-1,-2,0,-2,0,-8
1532289852268,-2,-1,-1,-1,1,1,-1,-10
1532289852273,-3,4,-1,-3,-2,-1,0,9
1532289852278,3,3,-1,1,1,1,-1,21
1532289852283,-2,-1,0,-1,-2,-3,1,4
1532289852288,-1,-3,-1,-2,-2,-2,-1,-2
1532289852293,-3,0,1,-2,0,0,-2,0
1532289852298,-4,-7,-4,-1,-2,1,-3,-11
1532289852303,0,7,0,0,1,0,0,14
1532289852308,-1,3,0,1,-1,-1,1,3
1532289852313,3,4,1,-2,-1,1,-1,-2
1532289852318,-6,0,-1,-1,0,-1,-2,-16
1532289852323,-1,-4,-3,-1,-1,-2,0,-18
1532289852328,3,-3,-4,-3,-3,-1,4,8
1532289852333,1,-1,0,1,1,0,-3,-9
1532289852338,-1,-2,0,0,-1,1,-3,-2
1532289852343,-2,-1,0,-1,1,1,-3,-2
1532289852348,-2,1,-1,-1,-2,-1,-3,0
1532289852353,-2,-4,-3,-2,0,-2,-2,4
1532289852358,0,-2,-1,-1,0,-2,-1,-4
1532289852363,-1,4,1,3,-1,-1,0,-4
1532289852368,1,1,0,-1,-3,-1,-2,3
1532289852373,0,-2,-2,-1,-2,0,-2,-2
1532289852378,-4,-6,-2,0,0,-1,-2,-5
1532289852383,2,-7,-1,0,-1,0,-1,8
1532289852388,3,14,2,1,1,-1,-1,0
1532289852393,-6,-4,-2,1,0,-2,-2,-14
1532289852398,-3,-1,-1,-4,-1,-1,-1,2
1532289852403,1,-8,-5,-2,-3,-1,3,26
1532289852408,-1,1,-1,-2,-1,0,0,-1
1532289852413,0,-1,0,-1,0,-1,2,-4
1532289852418,3,1,0,2,0,-1,1,0
1532289852423,0,2,0,0,-2,-2,-2,-4
1532289852428,-4,-9,-2,-1,-2,0,-2,-3
1532289852433,-1,-1,-2,0,1,-1,1,2
1532289852438,0,-3,-1,-2,0,0,0,-4
1532289852443,-2,0,1,-1,0,-1,-3,0
1532289852448,1,0,-1,0,0,-1,0,-1
1532289852453,-3,0,-1,-1,-1,-1,0,-3
1532289852458,-2,-2,-1,-1,-2,-1,0,-2
1532289852463,-1,-2,-1,-1,-1,-1,-2,-9
1532289852468,1,1,-1,0,2,-2,-1,-1
1532289852473,6,11,3,0,-1,-1,2,28
1532289852478,4,-1,-1,0,-1,-1,0,2
1532289852483,-10,0,-2,-2,-3,-3,-3,-9
1532289852488,-6,-16,-4,-2,-2,-1,0,-10
1532289852493,5,5,0,0,-1,0,0,2
1532289852498,3,2,1,-2,0,-2,0,0
1532289852503,1,5,2,0,0,-1,-1,-4
1532289852508,-2,-5,-2,-2,-2,-3,0,11
1532289852513,-5,-6,-1,-1,0,-1,0,-14
1532289852518,0,0,-1,-1,-2,0,0,1
1532289852523,0,-3,-1,-1,0,-1,-1,-2
1532289852528,-4,1,0,1,0,1,0,-10
1532289852533,1,-2,-1,-1,-1,1,-3,8
1532289852538,4,-1,-1,1,-1,0,1,18
1532289852543,-1,0,1,-1,0,-1,-1,-5
1532289852548,-1,-3,-1,-1,0,0,-2,-6
1532289852553,0,1,1,-1,-3,-2,-1,-10
1532289852558,-4,-2,-1,0,-3,0,-1,-5
1532289852563,-3,-4,-2,-1,-1,-2,0,-1
1532289852568,1,10,2,0,2,0,-2,-1
1532289852573,0,0,-1,-2,-1,-2,-1,4
1532289852578,-1,1,0,-2,1,0,1,1
1532289852583,-2,-2,-2,-4,-2,0,0,-5
1532289852588,2,1,-2,1,-1,1,1,2
1532289852593,-1,-6,-3,0,-2,-1,0,0
1532289852598,1,1,-1,-2,-3,0,-1,0
1532289852603,-1,-4,-3,1,0,0,0,2
1532289852608,-2,6,1,0,1,-1,-3,0
1532289852613,3,0,-1,-1,-1,0,3,3
1532289852618,-2,-3,0,-1,1,-2,-2,-5
1532289852623,-1,0,0,-2,0,-1,-3,-10
1532289852628,2,-4,-2,-1,-1,0,1,8
1532289852633,-5,-5,-1,0,1,-2,1,-14
1532289852638,-3,-2,-4,0,0,-2,-2,-2
1532289852643,0,-7,-3,0,-2,-1,-2,-11
1532289852648,5,21,4,-1,-2,-2,-1,-2
1532289852653,-8,-10,-5,-2,-2,0,-3,-9
1532289852658,-1,0,1,0,0,-2,-1,6
1532289852663,8,17,3,0,0,1,1,27
1532289852668,-1,-9,-3,-1,-2,0,-1,2
1532289852673,-2,-3,-1,-2,-1,-2,-4,-6
1532289852678,-4,-3,-4,-1,-2,-1,0,-6
1532289852683,-2,-3,0,-1,0,1,0,4
1532289852688,-5,-3,0,-2,-1,-1,0,-13
1532289852693,5,2,1,0,1,1,0,15
1532289852698,0,-3,-2,-1,-2,-1,-3,-5
1532289852703,-3,0,-2,2,1,0,-1,0
1532289852708,-1,-4,-3,-1,-1,0,-1,-2
1532289852713,2,7,0,0,-3,-1,-3,-4
1532289852718,0,-1,0,0,0,-1,0,3
1532289852723,0,6,2,0,-2,0,0,-4
1532289852728,-4,-5,-3,-2,-1,-1,-3,-4
1532289852733,1,-4,-1,-1,1,2,2,22
1532289852738,2,-2,0,-2,0,0,0,-3
1532289852743,-4,-5,-4,-1,-2,0,-2,-3
1532289852748,-4,-15,-3,-1,1,-2,-2,-8
1532289852753,1,10,2,-1,-1,-1,0,0
1532289852758,2,2,0,0,0,0,0,6
1532289852763,-6,-5,-1,-1,0,1,-1,-18
1532289852768,1,-4,0,-2,-3,-1,1,13
1532289852773,-3,-7,-4,-1,-1,-3,-2,-8
1532289852778,-4,0,-2,-1,-1,-1,-1,-4
1532289852783,2,1,-2,0,-1,-2,-1,-13
1532289852788,2,1,-1,-1,0,-1,0,4
1532289852793,-5,-6,-3,-1,-1,2,-2,3
1532289852798,2,5,1,0,-1,0,1,-2
1532289852803,1,0,-1,-2,-1,-1,-2,9
1532289852808,-2,-2,-2,1,-1,-2,0,-6
1532289852813,-2,-3,0,0,-1,0,-2,-7
1532289852818,-5,-7,-2,-2,-1,0,-4,-9
1532289852823,2,-1,-1,-1,0,-1,-1,3
1532289852828,3,3,-3,-1,-2,-1,-3,3
1532289852833,-4,-5,-4,-1,0,-1,-1,-15
1532289852838,1,7,0,-1,-1,1,0,-4
1532289852843,0,1,1,1,1,0,1,-1
1532289852848,-3,-1,-1,0,-2,1,-1,0
1532289852853,-3,-5,-2,-2,-2,-1,-1,-1
1532289852858,-5,-2,-1,-1,-1,-2,-1,-4
1532289852863,9,-8,1,1,-1,-1,3,1
1532289852868,0,7,2,-1,0,0,-1,-6
1532289852873,1,4,1,0,-1,-2,-1,2
1532289852878,-4,-4,-2,-2,-2,0,-1,-4
1532289852883,-2,-2,-1,-1,-1,0,0,2
1532289852888,-2,-5,-2,-1,0,-2,0,2
1532289852893,0,-3,-1,0,0,-2,-1,-8
1532289852898,1,1,1,0,-2,0,-1,13
1532289852903,0,3,1,1,-1,-1,-2,-2
1532289852908,-2,-1,-1,-2,0,0,-2,-6
1532289852913,-2,2,0,-3,0,-1,-1,5
1532289852918,6,-1,-1,-1,1,-2,-1,14
1532289852923,1,1,1,1,-1,-1,0,7
1532289852928,-2,0,-1,1,-1,0,1,-4
1532289852933,-4,-9,-2,1,0,-2,-3,-1
1532289852938,0,16,3,1,1,-1,0,-2
1532289852943,1,2,-2,-1,-1,-1,-3,-3
1532289852948,0,0,1,-1,0,1,1,-3
1532289852953,-1,1,-1,0,-2,-1,0,-11
1532289852958,-1,-7,-2,-1,0,0,1,-3
1532289852963,0,-1,-2,-1,-1,-1,0,6
1532289852968,-3,-7,-1,0,-1,0,-1,2
1532289852973,0,-4,-1,-4,-1,-1,0,-4
1532289852978,2,6,0,-1,-1,0,-2,-3
1532289852983,1,1,-1,-2,-1,0,-1,13
1532289852988,1,-1,-1,0,-1,-1,-2,0
1532289852993,-2,0,0,-2,-2,1,1,9
1532289852998,-6,-6,-3,0,-1,-1,-1,-9
1532289853003,-3,-2,-3,-1,-1,1,1,-6
1532289853008,1,-1,-1,0,0,-2,0,4
1532289853013,3,-4,-1,2,-1,-1,-1,5
1532289853018,-2,-6,0,-1,-1,-1,-2,-10
1532289853023,-2,0,-1,-2,-1,0,0,-2
1532289853028,1,-3,-1,-2,-2,-2,0,2
1532289853033,-1,2,-1,0,-1,-2,-1,8
1532289853038,-3,-7,-2,-1,0,-2,2,-17
1532289853043,-5,-4,-3,-1,1,-1,-2,-25
1532289853048,-2,-1,-1,-1,0,-1,2,9
1532289853053,5,15,3,-1,0,-1,0,-5
1532289853058,2,0,-2,-1,-1,-3,0,13
1532289853063,-5,0,0,0,0,-4,0,-6
1532289853068,-3,-1,-3,-1,-1,-3,-2,-1
1532289853073,-3,-3,-2,-1,1,0,-1,-15
1532289853078,-3,-4,-1,-1,-2,1,0,-2
1532289853083,0,-7,-1,-1,-1,-1,0,7
1532289853088,5,11,3,0,0,2,-3,4
1532289853093,-2,-2,0,0,-1,-2,-1,1
1532289853098,3,1,-1,-2,-2,-1,0,12
1532289853103,-3,-4,-1,0,-2,-1,-1,-4
1532289853108,0,2,-2,-1,-1,-1,-1,1
1532289853113,-4,2,-2,-2,0,1,1,-12
1532289853118,1,2,0,2,0,0,1,1
1532289853123,-2,-1,0,-2,-1,-4,0,7
1532289853128,-1,-6,-1,-1,-1,-1,0,-5
1532289853133,0,-2,-1,-2,-1,-1,-2,3
1532289853138,-1,-5,-2,-3,-3,0,-2,4
1532289853143,-2,4,2,0,0,0,-3,-13
1532289853148,-2,-1,-1,-1,-1,-1,-1,5
1532289853153,0,0,0,0,0,0,0,1
1532289853158,0,-7,-4,-1,0,-2,0,7
1532289853163,1,-1,-2,-2,-2,-2,-1,4
1532289853168,2,-3,0,-1,1,-1,-1,-9
1532289853173,-1,-3,-1,0,-1,-1,0,3
1532289853178,1,0,-1,1,-1,1,-1,2
1532289853183,-3,-4,0,-1,-1,-1,-1,-8
1532289853188,-6,-6,-3,1,0,0,0,14
1532289853193,4,7,1,-1,-2,-2,-1,-8
1532289853198,-4,-3,0,0,0,-1,-1,-13
1532289853203,1,4,-2,-1,-3,-1,-1,12
1532289853208,-7,-6,-3,-2,-1,-2,-2,-13
1532289853213,3,-4,-3,-2,-1,-1,-1,-6
1532289853218,-2,1,0,0,-2,-2,2,4
1532289853223,1,-1,-1,0,-2,0,1,3
1532289853228,-1,1,0,0,0,-2,1,-4
1532289853233,-4,-6,-2,1,0,-2,-2,3
1532289853238,2,10,2,-1,-1,-1,-2,-5
1532289853243,0,-3,0,1,-1,0,-2,-2
1532289853248,2,7,2,-1,-2,-2,0,-8
1532289853253,-1,-1,1,0,1,-1,0,-3
1532289853258,-2,-4,0,-1,-1,-3,0,1
1532289853263,-1,5,-1,0,0,-1,-1,-1
1532289853268,1,-6,-1,-1,-1,0,0,-1
1532289853273,0,-3,0,0,-2,-1,0,8
1532289853278,-3,1,-2,0,0,1,-2,-3
1532289853283,0,1,1,-2,-1,-2,-1,-2
1532289853288,2,0,-1,-1,-1,0,-1,8
1532289853293,-2,-3,-2,-1,0,-2,-2,4
1532289853298,-2,-5,-1,-1,-1,-3,0,-8
1532289853303,-2,0,-2,1,-1,-1,0,-7
1532289853308,-1,-2,-1,-2,-1,0,0,-3
1532289853313,-1,2,-2,-2,-1,-1,-1,2
1532289853318,-1,-1,-1,-2,0,-1,-1,3
1532289853323,0,-2,0,0,-1,2,0,3
1532289853328,-2,-2,-1,0,-1,-1,-1,-8
1532289853333,-1,0,-1,0,0,-1,1,-8
1532289853338,2,3,0,1,1,-1,2,6
1532289853343,1,-5,-2,-1,1,-3,1,-4
1532289853348,0,9,-1,-2,-2,0,-2,3
1532289853353,1,-8,-1,0,0,1,0,-4
1532289853358,3,-1,-2,0,-1,1,-2,0
1532289853363,-1,-2,-2,0,-1,1,0,15
1532289853368,-4,-2,-3,-1,-2,-1,-2,-1
1532289853373,-3,-2,-1,-1,-1,0,0,-4
1532289853378,-1,-2,-1,0,-1,-1,-1,-4
1532289853383,0,2,-1,-3,-1,-1,-1,2
1532289853388,-1,-1,-3,-2,-2,-1,0,-4
1532289853393,1,2,-1,1,-1,-1,0,7
1532289853398,0,-4,-2,-2,1,0,0,3
1532289853403,-7,-1,0,-2,0,0,-4,-24
1532289853408,0,-2,-1,0,-1,-1,3,1
1532289853413,3,1,0,1,-1,1,1,13
1532289853418,0,0,-1,0,-2,-2,0,1
1532289853423,-2,-4,-3,-2,-2,-1,-2,0
1532289853428,-1,-6,-3,-1,-1,-2,0,-6
1532289853433,3,6,4,1,0,-1,-1,-4
1532289853438,-1,3,2,-2,0,-1,-2,-1
1532289853443,1,-3,-1,-1,-1,-1,1,6
1532289853448,-3,5,1,-1,1,-2,-1,-2
1532289853453,-4,-3,-1,-2,-1,-2,-1,-1
1532289853458,1,-2,-1,0,0,1,0,-7
1532289853463,-1,2,0,0,-2,-1,1,7
1532289853468,-1,-4,-1,2,-1,0,-1,2
1532289853473,0,0,-1,-3,-2,-1,-1,-16
1532289853478,-5,-1,0,0,-3,0,-1,-9
1532289853483,-3,-4,-1,-1,-1,0,-3,4
1532289853488,1,-5,0,-1,-1,0,-1,0
1532289853493,-3,10,0,-1,-2,0,-3,4
1532289853498,-3,-7,-4,-2,-2,-1,-1,-1
1532289853503,5,7,4,3,1,-1,1,-1
1532289853508,1,3,-2,-2,-1,0,1,-5
1532289853513,1,1,-1,0,1,-1,1,0
1532289853518,-5,-2,-2,-1,-2,-1,-1,0
1532289853523,-4,-5,-3,-2,1,0,-2,-2
1532289853528,0,1,1,0,1,-1,0,-3
1532289853533,1,-3,-1,0,-3,-2,2,5
1532289853538,-1,-5,-1,-1,-1,1,1,-1
1532289853543,0,-3,0,1,-1,-2,-1,-1
1532289853548,-1,-2,0,-2,-1,-2,-1,1
1532289853553,-4,-5,-4,-2,-1,0,0,2
1532289853558,1,-1,0,-1,-2,-1,1,-2
1532289853563,0,1,1,-2,0,1,1,-2
1532289853568,2,0,2,1,1,-3,-2,1
1532289853573,-1,2,0,-3,0,-2,-1,0
1532289853578,-1,1,-2,-1,0,-1,-1,-4
1532289853583,-2,-3,-3,-1,0,1,0,4
1532289853588,-1,-7,-3,-1,-1,1,2,1
1532289853593,-3,4,0,0,-1,0,-1,-1
1532289853598,0,1,-1,0,-1,0,-2,2
1532289853603,1,3,-2,-2,-2,-1,0,0
1532289853608,-2,0,0,-2,0,1,-2,-3
1532289853613,-2,-7,-2,0,0,-1,-1,-3
1532289853618,4,-1,0,-2,-2,-3,1,22
1532289853623,-6,-4,-1,-1,-4,-4,-2,-20
1532289853628,-4,1,0,1,1,-2,-3,-12
1532289853633,2,-9,0,-1,-1,0,2,16
1532289853638,0,4,1,1,1,-1,-2,-11
1532289853643,4,2,1,0,-1,-2,0,6
1532289853648,-3,-1,-1,-1,-1,-2,-1,-3
1532289853653,-4,-5,-1,-1,-1,-2,0,-6
1532289853658,-1,-4,-2,-2,0,-1,-1,2
1532289853663,-1,-1,-1,0,-1,-1,0,2
1532289853668,-3,-1,-1,-3,-1,-2,-1,1
1532289853673,-2,1,-1,-1,0,-1,-2,-7
1532289853678,2,1,-1,0,-1,-1,0,-14
1532289853683,-1,0,-1,-1,0,-1,0,-4
1532289853688,2,2,1,-2,-3,1,1,8
1532289853693,-3,-3,-2,-1,0,0,-2,-5
1532289853698,-3,-5,0,1,-1,-1,-3,-14
1532289853703,3,2,1,-1,-1,-1,-2,15
1532289853708,0,0,-3,0,-1,0,1,3
1532289853713,-3,-3,-3,-2,-1,-2,-1,-11
1532289853718,-3,4,2,-1,0,-1,-1,-3
1532289853723,-4,-4,-2,-1,0,-1,0,4
1532289853728,1,2,0,-1,-2,-2,0,3
1532289853733,2,-3,0,0,-1,-1,-3,6
1532289853738,-1,0,-1,0,2,-1,0,9
1532289853743,-2,-2,-1,-1,-2,0,-1,-8
1532289853748,-1,1,0,-1,1,-1,1,-1
1532289853753,-4,-2,-2,-1,0,0,-2,-4
1532289853758,5,1,-1,-3,0,-1,1,15
1532289853763,-3,2,-2,-1,0,-2,0,-2
1532289853768,-1,-8,-3,0,-2,0,-1,-2
1532289853773,0,12,1,0,-2,-2,-1,-5
1532289853778,-4,-1,0,1,0,-1,2,13
1532289853783,3,2,0,-1,0,1,1,-4
1532289853788,-4,-3,-1,-1,-2,0,-2,-9
1532289853793,-1,0,-1,-2,-2,-1,2,0
1532289853798,-7,-6,-2,-2,-2,-1,-5,-12
1532289853803,0,8,1,0,-1,0,-1,2
1532289853808,3,-1,-1,0,0,0,-1,5
1532289853813,2,-2,0,1,0,0,0,16
1532289853818,-1,-4,0,1,-3,-2,-1,0
1532289853823,2,1,-1,-2,0,-2,0,1
1532289853828,-1,0,-1,-1,-1,0,-2,-5
1532289853833,-3,-2,-2,-1,-2,-2,0,0
1532289853838,0,-3,-2,0,-1,1,2,-6
1532289853843,0,4,0,0,0,1,-1,-3
1532289853848,1,3,1,0,-2,1,-1,3
1532289853853,0,-3,-2,0,1,0,-1,-2
1532289853858,-3,-1,-1,-3,-1,-2,0,-2
1532289853863,4,1,-2,1,-1,-2,2,-2
1532289853868,-5,-2,-1,-3,0,-1,-2,-9
1532289853873,-1,4,1,-1,-1,-1,0,-3
1532289853878,-2,-3,-1,0,0,0,-1,-7
1532289853883,-2,1,1,0,0,0,0,-2
1532289853888,-3,1,1,1,0,-1,1,0
1532289853893,2,-1,1,-2,-1,-1,-2,7
1532289853898,-2,3,1,0,-2,0,-1,2
1532289853903,-1,-6,-1,-2,0,-1,0,0
1532289853908,-1,-2,-2,0,0,-2,1,-7
1532289853913,-1,-9,-2,-1,0,0,0,-7
1532289853918,3,16,2,-1,0,0,-1,1
1532289853923,-1,-3,0,0,-2,-1,-1,5
1532289853928,-3,-2,0,-2,1,-2,-1,-1
1532289853933,-2,-3,-2,-1,-1,0,0,-4
1532289853938,2,2,-2,-2,-2,-1,-1,10
1532289853943,-4,-8,-3,0,-2,-2,-1,-11
1532289853948,2,3,-1,-2,-1,-3,-2,0
1532289853953,-2,-2,0,0,0,0,-2,-15
1532289853958,0,-3,-2,1,-1,-1,2,2
1532289853963,1,1,0,-1,-1,0,1,18
1532289853968,-1,-11,-1,1,0,0,0,3
1532289853973,-3,2,0,-1,-1,-2,-2,5
1532289853978,1,-1,-1,-1,-1,-1,-1,0
1532289853983,-3,-11,-4,-2,-1,-1,-1,0
1532289853988,1,11,2,-2,-1,0,-1,4
1532289853993,-2,0,-2,1,0,0,-2,-5
1532289853998,-2,-4,-3,0,-1,-2,-4,-2
1532289854003,3,4,1,0,0,0,2,-4
1532289854008,-1,-1,-2,-2,0,1,-1,-4
1532289854013,-1,2,0,-1,-4,0,1,-2
1532289854018,-4,-5,-1,-1,0,-2,-2,-1
1532289854023,-1,-4,-1,0,0,0,-3,-1
1532289854028,-1,-1,-1,0,-2,-3,0,2
1532289854033,1,1,0,-1,0,-2,-1,2
1532289854038,-2,-3,-3,-2,-1,-1,0,3
1532289854043,-1,-3,0,0,-1,-1,0,-2
1532289854048,1,8,1,1,0,-1,-1,-3
1532289854053,1,-2,-3,0,-1,1,-1,3
1532289854058,-1,0,1,0,-1,1,-1,-6
1532289854063,-3,-5,0,-1,0,-2,-3,-1
1532289854068,1,4,-1,0,-1,0,-1,0
1532289854073,1,3,-3,-1,-2,-1,0,-3
1532289854078,-1,1,0,-1,-1,1,-1,-3
1532289854083,0,4,0,0,-1,0,-1,-3
1532289854088,-2,0,-1,-2,-1,-2,1,5
1532289854093,0,-1,0,-2,0,-1,1,-17
1532289854098,-1,-3,-2,0,-2,1,1,4
1532289854103,-4,-1,-2,-1,-1,0,0,-2
1532289854108,-1,-6,-2,-1,-1,0,0,-2
1532289854113,-3,0,0,-1,0,-2,-1,-1
1532289854118,-1,-1,-2,-2,-1,0,-2,-3
1532289854123,-2,-3,-5,-1,-1,0,-1,-2
1532289854128,1,-5,0,1,-1,1,-1,-1
1532289854133,2,1,-2,-1,-2,-2,1,2
1532289854138,-3,-3,-1,-1,-1,-3,0,-3
1532289854143,-1,-3,-3,-2,1,-1,-1,-3
1532289854148,0,-2,-3,0,-1,0,0,6
1532289854153,-6,-9,-3,-1,-1,0,0,-3
1532289854158,4,10,2,-1,1,-1,-1,-16
1532289854163,1,9,2,-1,-2,-1,-1,-5
1532289854168,1,-4,-1,-2,-1,1,0,3
1532289854173,-1,-3,-1,-1,-1,0,1,-4
1532289854178,-2,-3,-2,-1,-1,-1,-2,-11
1532289854183,-2,-4,-1,-1,-1,1,-1,3
1532289854188,-1,2,-2,-1,-1,-1,-2,-1
1532289854193,1,-8,-1,0,0,-1,-3,8
1532289854198,-1,-3,0,-1,0,-2,0,0
1532289854203,1,0,-1,0,0,0,0,1
1532289854208,-2,-3,-2,0,-1,-2,-1,-4
1532289854213,-4,-6,-2,-1,0,-1,2,3
1532289854218,-1,1,-1,0,1,0,0,4
1532289854223,5,6,1,-1,0,1,1,19
1532289854228,-1,9,1,0,0,0,-1,-6
1532289854233,1,2,-2,-1,0,-2,-1,0
1532289854238,0,-9,-3,1,-2,-1,-3,3
1532289854243,-2,2,-1,-1,-3,-2,-2,-2
1532289854248,-1,-3,-1,-1,0,0,0,-5
1532289854253,-2,0,1,-2,-1,0,-2,-4
1532289854258,2,0,-2,0,0,0,0,3
1532289854263,-3,-3,-2,-1,-2,-2,-3,-4
1532289854268,0,-4,-2,-2,-1,-3,0,6
1532289854273,-2,5,0,-1,0,-1,0,10
1532289854278,-2,0,-1,-3,-2,-1,0,-16
1532289854283,-5,-5,-2,0,-1,-1,-4,-6
1532289854288,0,1,0,-1,-1,0,1,-1
1532289854293,0,0,-1,1,-1,-1,1,-10
1532289854298,0,1,-1,2,-3,-3,-1,9
1532289854303,-2,-6,-1,-1,-3,-1,0,-5
1532289854308,-4,1,0,-2,-1,-1,-2,-4
1532289854313,0,1,0,0,-1,1,-1,-5
1532289854318,-2,-3,-1,-2,0,-1,-3,-4
1532289854323,-1,1,-1,0,2,-1,0,-1
1532289854328,-2,-1,-2,-1,-1,-2,0,-1
1532289854333,3,0,0,0,-1,-1,0,5
1532289854338,-4,-6,-1,-1,-1,-2,0,0
1532289854343,3,-2,-1,0,-1,0,-1,4
1532289854348,1,-2,0,-2,-1,0,-1,-8
1532289854353,-3,-1,-3,-3,0,-2,-3,-7
1532289854358,0,-11,-1,1,0,-1,2,11
1532289854363,0,12,-1,0,0,0,0,-3
1532289854368,0,-7,-1,-1,-1,-1,1,2
1532289854373,2,11,2,0,-1,-1,1,-1
1532289854378,0,-3,-2,-1,0,-1,1,-2
1532289854383,-3,-5,-1,-1,-1,-1,-1,-4
1532289854388,1,3,1,1,-1,0,0,4
1532289854393,-2,-4,-1,-2,-2,0,0,7
1532289854398,-3,-1,0,-1,0,0,-1,-4
1532289854403,2,0,-1,0,-1,0,1,3
1532289854408,0,0,0,-1,0,0,-1,-3
1532289854413,-4,-6,-1,0,-1,-2,-2,-3
1532289854418,-4,-6,-2,-1,-1,-1,-1,-3
1532289854423,1,12,1,0,-2,-3,-3,-20
1532289854428,-1,0,0,-1,-1,-2,1,18
1532289854433,0,1,0,0,1,-1,2,0
1532289854438,-5,-5,-3,-2,1,-1,-4,-8
1532289854443,-1,-8,-4,0,-2,-2,0,9
1532289854448,2,11,1,0,1,0,-1,2
1532289854453,3,3,-1,-1,-2,-1,0,1
1532289854458,-1,-1,0,-1,-1,-1,1,-3
1532289854463,-2,-4,-2,-2,-1,1,-1,-1
1532289854468,-2,-4,-3,-1,-1,0,0,0
1532289854473,-1,-6,-1,0,0,-1,-1,-4
1532289854478,0,5,-2,0,-1,-1,0,0
1532289854483,-3,-6,-1,-1,-1,-1,0,5
1532289854488,0,-5,-1,-2,1,-1,0,-4
1532289854493,0,4,0,0,0,-1,-3,-3
1532289854498,3,-4,0,0,-1,-1,-1,1
1532289854503,-2,-1,-1,0,0,-2,0,-2
1532289854508,-3,-8,-4,-2,-1,-1,0,-4
1532289854513,1,5,1,-1,-1,2,1,3
1532289854518,4,4,2,-1,0,-2,0,-2
1532289854523,1,-4,1,0,-2,-1,1,-1
1532289854528,0,1,-2,0,-1,-1,-1,-1
1532289854533,-2,-5,-2,0,-3,0,-2,3
1532289854538,-1,-1,-1,-1,-2,0,-2,-3
1532289854543,-3,2,-2,-2,0,0,-3,-6
1532289854548,1,-9,-3,0,0,-1,2,-15
1532289854553,-2,-4,-2,-2,-1,-3,-1,4
1532289854558,1,4,-1,-1,-2,-1,-1,8
1532289854563,2,0,2,0,1,0,0,-13
1532289854568,-5,3,-1,0,-1,0,-3,-12
1532289854573,1,-2,-2,-3,0,-2,0,2
1532289854578,-7,-1,-1,-1,-2,-1,-3,-13
1532289854583,2,-2,-2,-1,-1,0,1,18
1532289854588,1,1,1,-2,0,-2,0,10
1532289854593,-1,0,0,-2,-1,0,0,4
1532289854598,1,-7,-2,-1,-1,0,-2,4
1532289854603,-2,0,0,-2,-2,-2,-2,-7
1532289854608,-3,-3,-1,-1,-3,0,0,0
1532289854613,-1,-9,-2,-1,-1,0,0,3
1532289854618,2,4,2,1,-1,-1,0,-2
1532289854623,-2,12,1,0,-3,0,-1,-5
1532289854628,0,2,0,1,-1,-2,2,11
1532289854633,-2,-11,-3,1,0,-1,0,-3
1532289854638,-4,-6,-2,0,-2,0,-1,-2
1532289854643,1,-6,0,-2,0,-1,1,2
1532289854648,-1,5,-1,-2,0,-1,-3,-5
1532289854653,-3,-3,-1,-1,-1,-1,-2,-4
1532289854658,1,-1,1,-1,-2,-1,0,0
1532289854663,2,6,0,1,0,-1,-1,0
1532289854668,2,3,-1,-1,-2,-1,0,5
1532289854673,-8,-1,-1,-2,0,0,-3,-7
1532289854678,-5,-10,-2,-2,0,-1,-2,-7
1532289854683,6,-4,0,-3,1,0,-1,2
1532289854688,3,9,0,0,0,-2,1,-1
1532289854693,3,2,0,0,-2,0,4,1
1532289854698,-2,-2,-2,-1,-2,-2,0,2
1532289854703,-7,-7,-2,-2,-1,-3,-3,-7
1532289854708,-1,-2,-1,-1,-1,0,1,0
1532289854713,4,-5,0,0,-1,-2,-1,2
1532289854718,-4,0,-1,0,-1,0,-2,-3
1532289854723,0,-2,-1,-2,-1,0,-1,1
1532289854728,1,4,0,-1,-2,-1,-1,-3
1532289854733,-5,-7,-3,-1,-1,-1,-2,-4
1532289854738,2,1,0,-1,0,0,-1,1
1532289854743,-4,-5,-3,1,0,-3,1,2
1532289854748,4,2,0,1,-1,1,3,0
1532289854753,-1,4,0,-3,-1,-2,-1,-8
1532289854758,-2,-3,0,0,0,-2,1,7
1532289854763,1,1,-2,0,-1,0,-1,-3
1532289854768,-4,-4,0,0,0,0,-2,-3
1532289854773,2,0,-1,-1,-2,-1,0,5
1532289854778,-1,3,-2,-2,0,0,-2,-8
1532289854783,-2,-2,-1,-1,0,0,-1,-1
1532289854788,-3,-3,-2,-2,-1,-2,-3,-6
1532289854793,-4,-3,-2,1,-1,0,-2,5
1532289854798,4,-4,-1,1,-1,-1,0,-7
1532289854803,-1,1,1,1,-2,2,-1,-4
1532289854808,0,3,0,-2,-2,-1,-2,-5
1532289854813,2,-2,0,-1,-2,1,1,13
1532289854818,-4,8,0,-1,0,-1,0,-5
1532289854823,1,-8,-1,1,-2,-2,-2,5
1532289854828,-2,0,-1,0,-1,0,-2,-10
1532289854833,-6,-3,-1,-1,1,-1,0,-9
1532289854838,0,-3,-2,-1,1,-2,1,3
1532289854843,6,7,-1,-1,1,-1,0,7
1532289854848,-5,-2,-1,1,0,-2,-1,-1
1532289854853,-2,-4,-2,1,0,0,0,-6
1532289854858,-1,5,1,0,-1,0,-1,8
1532289854863,2,-5,-2,-2,0,0,2,20
1532289854868,0,-5,-1,-2,0,-2,-1,7
1532289854873,3,6,-1,-1,-1,-2,-1,-3
1532289854878,-4,-6,-1,2,0,0,-2,-5
1532289854883,-5,-7,-3,-1,-2,-2,-1,-13
1532289854888,0,1,0,0,-2,1,-1,4
1532289854893,2,8,1,-2,-1,-1,-1,2
1532289854898,0,2,-1,-1,-2,0,0,2
1532289854903,-7,-2,-2,-2,-1,-2,-2,-15
1532289854908,0,-5,-2,-1,1,1,2,6
1532289854913,2,-1,-1,0,-1,-1,-1,23
1532289854918,-2,1,0,-1,-1,-2,0,1
1532289854923,-1,0,0,0,-1,-1,0,-5
1532289854928,1,-1,0,-1,0,0,2,-4
1532289854933,-2,0,-1,-1,-1,-1,1,3
1532289854938,0,-1,0,0,0,-1,-1,-1
1532289854943,-1,-3,-2,-1,-1,-1,0,3
1532289854948,-1,-4,-2,-2,-1,-2,1,-9
1532289854953,-2,0,-1,-1,0,-2,-2,1
1532289854958,1,-6,-1,0,-1,-1,-1,10
1532289854963,-2,-1,-1,-1,0,2,-1,-12
1532289854968,-5,-3,-2,-1,-1,0,-2,-4
1532289854973,1,0,-1,-1,0,0,-1,6
1532289854978,5,8,-1,0,-1,-1,0,4
1532289854983,-1,-8,0,0,-2,-2,0,0
1532289854988,2,1,0,-1,-1,1,0,-1
1532289854993,-4,-3,-1,-1,-2,-1,0,-12
1532289854998,-3,-3,-3,0,0,-1,0,-5
1532289855003,1,4,0,0,-1,1,-1,0
1532289855008,1,2,0,-1,-2,-2,-1,-1
1532289855013,-1,-3,-1,2,-1,0,-1,-3
1532289855018,-3,5,0,-1,-1,0,-3,-7
1532289855023,2,-6,-2,-2,0,-2,-1,-6
1532289855028,0,10,1,0,-1,0,0,2
1532289855033,-2,2,1,-1,-1,-1,-1,-8
1532289855038,-4,-5,-3,0,-1,-1,-1,-1
1532289855043,-2,-3,-1,0,-1,0,1,-9
1532289855048,-1,0,-1,-3,0,0,0,14
1532289855053,3,-6,0,-1,0,-3,2,1
1532289855058,-2,2,-1,-1,-1,-1,-1,-10
1532289855063,-2,-2,-1,-1,0,-2,-1,9
1532289855068,-1,-3,-2,-1,0,-1,-2,-2
1532289855073,-6,0,-3,-3,0,2,-1,-8
1532289855078,0,-11,-1,1,-1,1,-1,9
1532289855083,5,21,4,0,0,0,0,0
1532289855088,-2,-3,-2,1,-2,0,-1,0
1532289855093,-1,-6,-2,0,0,-1,-2,-1
1532289855098,-1,2,0,1,0,0,0,-5
1532289855103,-4,-5,-2,-1,-1,-1,-1,-15
1532289855108,-2,6,0,-2,-2,0,-2,9
1532289855113,1,3,0,-1,0,-2,0,1
1532289855118,0,-1,1,-2,-1,-2,-1,-4
1532289855123,-2,-2,-3,-1,0,-3,-1,8
1532289855128,-1,-3,-3,-2,-2,-2,-2,-1
1532289855133,0,1,0,0,-1,0,1,9
1532289855138,2,-3,-1,-1,0,-1,1,17
1532289855143,-2,1,-1,0,0,0,-1,-6
1532289855148,2,4,2,0,-1,-1,1,-2
1532289855153,-1,3,0,-1,-2,0,-1,5
1532289855158,-1,-1,-1,-1,0,-2,0,-9
1532289855163,-3,-11,-4,-1,-3,0,-1,8
1532289855168,0,-4,-2,-1,-1,-3,-3,-11
1532289855173,-1,4,1,1,0,0,0,3
1532289855178,-3,-1,0,1,0,-2,0,-9
1532289855183,2,-5,0,-2,1,0,-1,3
1532289855188,-3,-3,-2,-1,2,-1,0,0
1532289855193,0,1,0,0,0,-3,-3,-4
1532289855198,-2,-5,-3,-1,-1,0,-1,-3
1532289855203,-2,-5,-2,-2,0,-1,-1,2
1532289855208,-3,2,0,1,0,-2,-1,-8
1532289855213,-2,-4,0,-2,0,-2,-1,-2
1532289855218,4,11,3,0,0,0,0,5
1532289855223,0,0,-2,0,-2,0,0,1
1532289855228,1,-8,-3,-3,-1,0,0,-4
1532289855233,-2,7,-1,-1,-2,-1,0,-7
1532289855238,-2,-6,-1,-1,-3,-1,-2,-14
1532289855243,1,2,1,0,-3,-1,-2,1
1532289855248,-3,-7,-2,-1,-1,-2,-3,0
1532289855253,2,-1,-2,-1,-1,1,0,11
1532289855258,-2,-9,-1,-1,0,-1,0,-8
1532289855263,-3,6,0,-1,0,-2,-1,-11
1532289855268,0,-3,0,1,-3,-1,0,-4
1532289855273,0,-3,-1,1,-1,0,0,9
1532289855278,-4,-3,-2,-2,1,0,-1,1
1532289855283,-3,-2,-1,-1,0,-1,-1,-4
1532289855288,-1,0,0,-1,0,-2,-2,-9
1532289855293,-1,-3,-3,0,-2,-2,-3,-7
1532289855298,2,-2,-1,-2,-1,-2,1,11
1532289855303,-1,2,-1,1,-1,-1,-1,-3
1532289855308,-1,-2,-1,0,0,0,0,5
1532289855313,-1,-3,1,-2,0,-1,-3,-5
1532289855318,-2,2,-2,0,-2,0,2,-7
1532289855323,3,-10,-2,0,0,-1,0,1
1532289855328,-2,-6,-1,-1,-1,-1,0,2
1532289855333,-2,6,1,1,0,-1,0,-8
1532289855338,-1,0,-2,-2,-1,-1,-2,-3
1532289855343,-1,7,-1,-1,-2,-1,0,-1
1532289855348,-1,-2,-1,-2,-1,-1,0,1
1532289855353,3,-2,0,1,0,-2,0,-6
1532289855358,-1,1,0,-2,-1,-2,-1,-4
1532289855363,-1,1,-1,-1,-1,-1,-1,-6
1532289855368,1,1,0,1,-1,1,-1,-6
1532289855373,-3,-2,-1,-1,-3,0,-1,3
1532289855378,1,1,-2,1,-2,-1,2,3
1532289855383,-2,-8,-1,-3,0,-1,0,-3
1532289855388,3,6,2,-2,-2,-1,-1,6
1532289855393,3,15,3,0,-1,-2,-1,-1
1532289855398,0,-3,0,1,0,0,-1,0
1532289855403,-2,0,0,0,0,-2,-1,1
1532289855408,-3,-8,-2,-1,0,-1,-1,8
1532289855413,3,-4,-2,-2,-2,0,1,19
1532289855418,-3,1,-1,-3,-1,-2,-3,-5
1532289855423,-1,-2,-3,-1,0,-2,1,7
1532289855428,2,6,1,0,1,-2,1,-5
1532289855433,-7,-5,-1,-2,-1,0,-2,-12
1532289855438,2,0,1,1,1,2,-2,-2
1532289855443,-1,-2,0,-1,-1,1,-1,5
1532289855448,-1,1,1,1,-1,0,1,2
1532289855453,2,-3,-1,-1,-1,0,1,1
1532289855458,-3,0,-1,0,-2,-1,-1,-2
1532289855463,0,1,0,-2,-2,0,-3,-3
1532289855468,-6,-2,-1,-2,0,-2,-1,-3
1532289855473,-3,-7,-2,0,1,-1,1,3
1532289855478,6,5,2,-1,-1,-2,1,10
1532289855483,0,-4,0,0,0,-2,-2,-4
1532289855488,-1,-4,-1,-2,0,0,0,-1
1532289855493,-5,-3,-2,-2,0,-1,-3,-10
1532289855498,-2,-3,-3,-2,-2,-2,-1,2
1532289855503,1,2,0,1,0,0,1,-1
1532289855508,-1,2,-4,0,0,-1,-1,-2
1532289855513,-2,-8,-3,-1,0,-1,-1,0
1532289855518,1,0,-1,1,-2,-1,-2,-2
1532289855523,-2,-1,0,0,-2,0,0,6
1532289855528,-3,-2,-1,0,-3,-2,0,-6
1532289855533,3,-2,0,0,1,0,-1,-11
1532289855538,-1,3,0,-2,0,-2,-1,3
1532289855543,4,-8,-1,1,0,1,3,24
1532289855548,1,4,0,-1,1,-1,0,-3
1532289855553,-4,-3,-1,0,-1,0,-1,-1
1532289855558,-3,-1,-2,-1,0,-1,-2,-7
1532289855563,-1,1,-2,-1,-1,0,0,-7
1532289855568,3,-3,-1,-3,-3,-2,1,12
1532289855573,0,1,-2,1,-2,0,-1,-2
1532289855578,-3,-4,0,-1,0,0,-3,-14
1532289855583,-3,-4,-3,-3,-2,-2,1,3
1532289855588,4,-1,1,0,1,1,-2,1
1532289855593,1,12,2,-2,-1,-2,-1,-3
1532289855598,-3,0,-2,0,-1,-2,1,-18
1532289855603,1,-1,-1,-1,0,-2,1,-2
1532289855608,-3,0,-1,-2,-1,-1,-2,1
1532289855613,-2,-6,-1,-1,1,0,0,3
1532289855618,-2,-7,-3,0,0,0,0,0
1532289855623,-1,9,2,0,0,1,-1,-10
1532289855628,-2,2,0,0,-1,0,1,-2
1532289855633,3,0,-1,-1,-2,0,-2,-2
1532289855638,1,-1,0,-1,-1,-1,1,7
1532289855643,-4,-2,-2,-1,0,-2,-1,-10
1532289855648,0,-4,-2,-1,-2,1,-2,1
1532289855653,-1,0,-1,-1,-1,-3,-2,-2
1532289855658,-2,-3,-1,-2,0,1,1,11
1532289855663,-5,-7,-2,-1,-1,-3,-2,-11
1532289855668,1,3,1,-1,1,-1,0,-5
1532289855673,3,0,0,-3,-1,-2,-2,15
1532289855678,0,-2,0,-1,-1,-2,0,2
1532289855683,0,3,0,-1,-3,-1,0,5
1532289855688,0,-6,-3,-1,-1,0,1,-4
1532289855693,-2,-2,-2,-1,0,-2,0,-5
1532289855698,-3,-2,0,-1,-2,0,-2,-3
1532289855703,-3,-6,-2,-2,-1,0,-2,0
1532289855708,-3,-1,-2,-1,0,0,-2,-5
1532289855713,-4,1,-3,-1,0,0,-2,-15
1532289855718,2,-6,-1,1,0,0,0,-1
1532289855723,0,0,0,0,-2,1,-1,0
1532289855728,0,-3,0,-2,-1,-1,1,2
1532289855733,-1,1,-1,0,0,1,0,3
1532289855738,-5,-4,-1,-2,1,1,0,-10
1532289855743,-2,3,-2,0,0,0,-2,-2
1532289855748,1,-3,-2,-1,-2,0,-2,-1
1532289855753,1,-1,0,0,-3,1,-4,-4
1532289855758,-2,1,-1,0,-1,-2,-1,1
1532289855763,-5,-4,-2,-2,-1,-2,0,-3
1532289855768,-1,1,0,-2,1,1,-1,2
1532289855773,1,0,0,0,-1,-2,0,4
1532289855778,0,0,0,-3,-2,-1,-1,3
1532289855783,0,2,1,1,-2,-1,-3,-14
1532289855788,-5,-2,-1,0,-1,-1,-1,-15
1532289855793,3,1,-1,-1,-1,0,2,-12
1532289855798,-2,-4,-2,1,-2,-1,0,1
1532289855803,-2,-7,-3,-1,1,0,-2,3
1532289855808,1,-4,0,-1,-1,-2,0,4
1532289855813,-4,2,1,-1,-2,-2,0,-8
1532289855818,1,2,1,-2,-2,0,-2,2
1532289855823,0,-2,-1,-1,-1,0,0,5
1532289855828,3,4,-1,1,-1,0,0,-1
1532289855833,1,-5,-1,-1,1,0,0,4
1532289855838,-7,-1,0,0,0,-2,-1,-8
1532289855843,-1,2,1,-3,-1,0,-1,-17
1532289855848,3,0,-1,-2,-1,-1,1,17
1532289855853,1,-2,-1,1,0,-2,-1,6
1532289855858,-1,-2,-2,-1,-1,-1,-1,-5
1532289855863,-5,-5,-2,-1,0,0,-1,-10
1532289855868,1,5,1,0,-2,-1,0,11
1532289855873,2,-1,-1,-1,0,0,0,-4
1532289855878,-4,-2,-1,0,-2,2,-3,-6
1532289855883,0,-4,-1,1,-2,-3,0,8
1532289855888,2,1,1,0,-2,-1,-1,-1
1532289855893,-5,-3,-1,0,-1,0,-2,1
1532289855898,3,0,-1,-1,0,-2,1,12
1532289855903,3,0,-1,1,-1,1,2,22
1532289855908,-1,-1,-1,0,0,0,-2,-4
1532289855913,1,-1,-2,-2,-1,-2,-3,1
1532289855918,-4,-6,1,0,1,-2,-1,-10
1532289855923,0,8,1,-1,2,1,-2,-11
1532289855928,-3,-5,-2,-1,0,-2,-1,-3
1532289855933,-3,-1,-2,-1,-2,-1,-1,6
1532289855938,0,-2,-4,0,-1,1,-2,1
1532289855943,-1,1,1,1,-1,-1,0,4
1532289855948,-2,-2,-1,-1,0,-1,-1,-7
1532289855953,1,0,0,0,-3,-1,-2,1
1532289855958,1,3,-1,-2,0,-1,0,7
1532289855963,-1,-7,-3,-3,-3,-1,1,-15
1532289855968,-2,1,0,-1,-2,-1,-3,-13
1532289855973,-2,1,-1,0,-1,-3,0,14
1532289855978,4,-7,-1,-2,0,-2,-2,-5
1532289855983,-3,7,2,0,0,0,-2,-9
1532289855988,-3,-7,-2,0,-2,1,-1,-3
1532289855993,0,5,1,-1,-1,0,-1,-3
1532289855998,-1,3,-2,0,-4,-1,0,-2
1532289856003,-1,-3,-1,0,1,0,2,7
1532289856008,1,-2,-1,0,-2,-2,1,0
1532289856013,-4,-3,-1,-2,1,0,-1,-8
1532289856018,2,2,-1,0,0,-1,-1,-2
1532289856023,-2,-3,-2,0,-1,-1,0,-1
1532289856028,0,0,0,0,1,-1,-1,1
1532289856033,-2,-2,-2,1,-2,-1,-1,18
1532289856038,-2,2,1,-1,-1,0,1,-10
1532289856043,-3,-7,-2,1,-1,0,-1,-2
1532289856048,1,0,1,1,0,-1,0,7
1532289856053,2,-1,-1,-2,-1,-1,1,-2
1532289856058,0,-1,1,-2,0,1,-2,-1
1532289856063,-4,8,1,0,-1,-2,-2,-4
1532289856068,-2,-3,-2,-1,-1,-5,-3,-6
1532289856073,1,-2,0,-1,-9,-7,0,-3
1532289856078,-3,1,-1,0,2,2,1,2
1532289856083,2,-7,-2,0,2,0,1,12
1532289856088,2,2,0,-1,-1,1,2,24
1532289856093,-3,-1,-2,-1,2,2,-1,-9
1532289856098,-2,1,1,0,-4,-6,-3,-7
1532289856103,-1,6,-2,-1,-2,-5,1,3
1532289856108,-2,-3,-1,-2,2,0,2,0
1532289856113,3,11,2,-1,0,1,0,-5
1532289856118,0,0,-2,-1,-3,-1,-1,12
1532289856123,-2,-6,0,-2,-1,0,-2,-10
1532289856128,-4,0,-4,0,-1,-4,-1,-8
1532289856133,-1,-4,-2,0,2,2,0,-4
1532289856138,-4,-1,-3,-3,-1,-1,-1,-4
1532289856143,1,5,1,0,0,-1,-1,5
1532289856148,6,3,0,-3,-2,0,-1,5
1532289856153,-1,-1,0,-1,1,1,-1,-7
1532289856158,1,0,-1,1,1,0,2,4
1532289856163,-5,-10,-4,-2,-2,-1,-1,-5
1532289856168,-5,-8,0,0,1,1,0,-4
1532289856173,2,13,3,-1,-1,-1,-1,1
1532289856178,1,0,0,-2,-2,0,0,10
1532289856183,1,-2,0,-1,-2,1,-1,-5
1532289856188,-4,-4,-3,0,-1,0,-4,-10
1532289856193,-3,-6,-2,-1,-1,0,0,-3
1532289856198,-1,-3,-2,-1,1,-2,-1,-18
1532289856203,0,0,2,0,-2,1,-1,6
1532289856208,0,3,-1,1,-1,0,-1,3
1532289856213,0,-6,0,-1,-1,-3,-3,3
1532289856218,-2,2,1,-1,-1,-3,-1,-2
1532289856223,-2,-3,-1,-3,-1,-2,-2,-2
1532289856228,-1,-1,-1,-1,-1,-1,-1,-3
1532289856233,1,-5,-1,0,1,1,-1,-3
1532289856238,-1,3,0,-2,-1,0,0,7
1532289856243,-1,-5,-1,-1,-1,-2,1,3
1532289856248,3,7,1,-1,0,1,-2,-7
1532289856253,-3,-3,-3,0,1,-1,0,3
1532289856258,-2,-2,-1,-2,-1,-1,-3,-7
1532289856263,-2,0,-1,0,1,1,1,-8
1532289856268,-2,-3,-2,-2,-3,0,0,6
1532289856273,-1,-2,-1,0,-1,-1,1,3
1532289856278,0,-1,-1,1,-2,-2,-2,-2
1532289856283,-2,6,0,0,-1,-1,-1,-6
1532289856288,0,-1,-2,-2,0,-2,0,-10
1532289856293,0,-3,-1,-1,0,1,-2,-2
1532289856298,1,1,0,-1,-3,-1,-2,6
1532289856303,0,-5,0,-1,-2,0,1,6
1532289856308,-1,0,-1,-1,1,-1,-1,-10
1532289856313,-3,-6,-2,-2,-2,-1,-1,1
1532289856318,-1,-6,-2,0,-1,1,-1,-1
1532289856323,0,5,-2,-1,1,-1,-2,-2
1532289856328,-1,2,-1,0,-3,0,-1,3
1532289856333,-2,-2,-3,-2,-1,-1,0,-3
1532289856338,-3,-6,0,-1,1,-2,1,1
1532289856343,6,4,2,2,1,0,-2,21
1532289856348,-4,-4,1,0,-2,-1,0,0
1532289856353,1,4,0,-1,-1,-1,-2,-1
1532289856358,-1,1,0,-3,-2,-1,0,4
1532289856363,1,-4,-4,-2,-1,-1,0,-5
1532289856368,-3,-1,-1,-2,0,-2,0,-3
1532289856373,-2,-3,-1,0,-1,0,-2,-9
1532289856378,0,0,-1,0,-2,0,-1,1
1532289856383,-4,-5,0,0,-2,-3,0,-6
1532289856388,1,0,0,-1,-3,0,0,1
1532289856393,-2,1,-2,-1,-3,-2,0,0
1532289856398,-7,-12,-3,-1,1,0,-2,-4
1532289856403,3,6,-1,1,-3,0,0,-7
1532289856408,1,7,0,-1,0,-1,-1,2
1532289856413,0,-2,0,0,-1,-1,2,2
1532289856418,1,3,-2,1,-1,-1,0,-5
1532289856423,-6,-9,-4,-2,-1,0,-3,0
1532289856428,-4,-4,-2,0,1,-2,-1,-3
1532289856433,3,5,0,-1,0,-1,-1,15
1532289856438,-1,1,-2,0,0,-1,-1,-15
1532289856443,-2,-4,-3,0,1,-1,0,6
1532289856448,1,-5,-1,-1,-1,2,0,0
1532289856453,0,4,2,-2,-1,-1,-2,0
1532289856458,2,3,0,0,0,2,1,3
1532289856463,0,-6,-1,-1,0,0,0,5
1532289856468,-2,-3,0,1,0,-1,-1,-6
1532289856473,-2,-3,-2,-1,-1,-1,1,-19
1532289856478,1,2,-1,-2,-2,-2,-1,6
1532289856483,-2,-5,-4,-1,-3,-2,-1,-8
1532289856488,0,0,-2,0,0,-2,-1,3
1532289856493,1,3,1,0,0,2,0,-5
1532289856498,-1,2,0,-3,0,-2,0,-1
1532289856503,-2,-3,-1,-1,-1,-2,-1,1
1532289856508,-1,-1,-1,-1,0,-1,-2,-12
1532289856513,-2,-3,-1,0,2,1,0,5
1532289856518,0,1,0,-1,-1,0,0,0
1532289856523,0,0,-1,-3,-2,-1,0,4
1532289856528,-3,-3,-1,1,0,0,-2,-3
1532289856533,-1,7,0,-1,-1,-1,-2,0
1532289856538,0,8,0,1,0,-1,-2,-1
1532289856543,1,5,-1,-1,-3,1,0,-2
1532289856548,-5,-23,-3,-3,-2,-1,1,5
1532289856553,3,8,-2,-1,-2,0,1,-1
1532289856558,-3,43,-1,-3,-2,-2,-2,3
1532289856563,-5,-23,0,-1,0,-3,-2,-9
1532289856568,6,0,-2,-2,-1,0,1,-6
1532289856573,0,6,0,0,-1,1,1,-1
1532289856578,-6,-21,-6,-2,-1,0,-1,4
1532289856583,3,6,1,-2,1,-1,1,-3
1532289856588,-4,5,1,0,2,0,-2,-16
1532289856593,-2,-13,-2,-2,-2,-1,-1,0
1532289856598,7,-1,2,1,-1,-1,-1,-1
1532289856603,-4,2,-2,-1,0,-2,-1,5
1532289856608,1,-3,-2,0,-1,-1,-1,5
1532289856613,3,3,0,1,0,-3,0,-12
1532289856618,-2,-5,1,-1,0,0,-1,0
1532289856623,1,-2,-1,1,-1,1,0,4
1532289856628,0,5,0,-1,-2,-1,0,3
1532289856633,-5,-2,-2,0,-2,-1,-1,-8
1532289856638,-2,-12,-1,0,0,-1,2,-2
1532289856643,-1,-4,-1,0,-1,-2,-2,-11
1532289856648,3,18,3,0,0,-1,-2,2
1532289856653,-2,-6,-2,-2,-1,0,0,6
1532289856658,1,-8,0,0,0,0,1,4
1532289856663,-1,6,-1,0,-1,0,-1,9
1532289856668,-4,-10,-4,-2,-2,-3,2,-5
1532289856673,-3,-1,3,0,-2,-2,-4,-7
1532289856678,1,-2,-2,-1,0,-1,-1,8
1532289856683,-1,2,0,-2,0,0,-1,-3
1532289856688,-2,0,-1,-2,0,1,-1,9
1532289856693,0,-5,-3,-2,-3,-1,1,-7
1532289856698,-1,-3,-1,0,-1,0,-3,-17
1532289856703,2,6,2,-2,0,-2,-3,-2
1532289856708,1,-4,0,-1,-3,-1,0,8
1532289856713,-6,-5,-1,-1,-1,-1,-2,-2
1532289856718,-2,-7,-2,-2,0,-3,-1,2
1532289856723,-1,-2,0,1,-2,-1,-1,-1
1532289856728,3,4,0,0,-1,0,-1,3
1532289856733,6,5,1,1,2,1,-2,12
1532289856738,-3,-7,0,0,-1,0,0,-8
1532289856743,-4,-1,-1,0,-1,0,-1,-5
1532289856748,-2,2,-1,-1,-1,0,-2,-2
1532289856753,0,-4,-3,-2,1,-1,1,22
1532289856758,1,-1,-2,-1,0,0,1,4
1532289856763,0,-3,-1,-1,-2,-1,2,5
1532289856768,-2,0,-3,-2,0,-1,-2,-8
1532289856773,-1,-3,0,-1,-2,-1,1,-1
1532289856778,-4,-1,-1,0,-1,-2,1,-4
1532289856783,-1,-8,-2,0,-1,1,-1,-2
1532289856788,3,11,3,-1,-1,0,-1,14
1532289856793,0,5,1,2,0,-1,1,-4
1532289856798,0,2,0,1,-3,-1,-2,2
1532289856803,-2,-1,-2,-4,-1,0,0,-3
1532289856808,-2,-6,-3,0,-1,0,0,0
1532289856813,-2,-10,-3,-1,-1,-2,-1,0
1532289856818,-1,-3,0,-1,0,-2,-2,-6
1532289856823,-2,3,-1,0,2,0,0,-7
1532289856828,1,1,0,-2,-2,-1,0,17
1532289856833,-2,-1,-3,-1,-1,1,-1,-7
1532289856838,2,0,0,-1,-1,1,0,8
1532289856843,0,2,0,-1,-2,-2,-1,-7
1532289856848,-4,-3,-1,-1,2,-2,-2,-11
1532289856853,-5,-8,-1,1,0,-1,-1,-1
1532289856858,2,-4,-2,1,-2,1,-1,5
1532289856863,3,11,3,0,-1,1,-1,-3
1532289856868,-1,0,1,0,0,-2,-1,10
1532289856873,-3,-2,0,-2,-2,-1,-3,-3
1532289856878,-1,-2,0,-2,-1,-2,-1,-4
1532289856883,-3,-3,-3,-1,-1,-1,-1,-2
1532289856888,-2,-4,-2,0,0,1,0,0
1532289856893,4,-1,0,-2,0,-1,0,23
1532289856898,-5,3,-1,-1,0,-1,-3,-10
1532289856903,1,0,0,1,-2,0,-2,1
1532289856908,-6,-3,-1,-1,1,-1,0,-7
1532289856913,1,1,0,0,-1,0,0,-3
1532289856918,0,2,-1,-1,-3,-1,0,5
1532289856923,0,-2,-1,-1,1,0,1,6
1532289856928,2,6,0,1,-1,-1,0,-5
1532289856933,0,1,-1,-1,-2,0,-1,-3
1532289856938,-2,-2,-2,-1,-1,0,1,2
1532289856943,-2,-5,-2,0,0,-1,1,-6
1532289856948,1,1,-1,-1,0,1,-1,3
1532289856953,-4,-1,-1,-1,0,-2,-2,-13
1532289856958,0,0,-1,-1,-2,-1,-2,-10
1532289856963,2,-7,-2,-1,-3,0,-1,2
1532289856968,-1,4,0,0,-1,0,-2,-3
1532289856973,1,0,0,-1,-2,0,0,4
1532289856978,-1,-5,-1,-1,-1,0,0,-3
1532289856983,-2,2,0,-2,0,-2,0,-2
1532289856988,-1,-5,-1,-1,0,-1,0,-8
1532289856993,-2,-3,-2,-1,-1,1,1,-6
1532289856998,1,9,1,-1,-1,1,1,-2
1532289857003,1,9,3,0,1,-1,0,15
1532289857008,2,-5,-3,-1,-2,-1,0,-8
1532289857013,-4,-1,-1,0,0,0,-2,-6
1532289857018,1,-3,-3,-1,-2,-2,0,0
1532289857023,-4,-5,-2,1,0,1,-2,3
1532289857028,0,-3,-3,1,0,-2,0,4
1532289857033,-2,-2,0,-3,-1,-1,0,-14
1532289857038,0,4,0,0,-1,0,-1,-4
1532289857043,-2,0,-1,-2,-3,-2,0,1
1532289857048,0,-4,-1,-2,-2,0,0,2
1532289857053,0,-16,-1,-2,1,-1,-2,0
1532289857058,1,8,1,-1,-1,-1,2,9
1532289857063,0,-1,0,0,-1,0,0,-1
1532289857068,-3,-4,-2,-2,-2,-1,0,3
1532289857073,0,1,-2,1,0,-1,0,4
1532289857078,3,0,-1,0,-1,-2,-1,21
1532289857083,2,3,0,0,0,-1,0,-3
1532289857088,-4,-3,-2,0,-1,-1,-1,-9
1532289857093,-3,3,-1,-2,1,0,0,-1
1532289857098,-2,-5,-2,-2,-1,0,0,-4
1532289857103,-1,-1,-1,-1,-1,-2,-1,1
1532289857108,0,-5,0,-1,0,0,-1,-4
1532289857113,2,8,1,1,-3,-2,0,6
1532289857118,-4,-3,-2,0,-2,-1,-2,-15
1532289857123,-1,-1,-1,-1,-1,2,0,-3
1532289857128,-3,1,-1,-3,-1,-2,-1,-8
1532289857133,-2,-5,0,0,1,2,-1,-3
1532289857138,0,4,1,-3,0,-1,-1,-5
1532289857143,-3,-5,-2,-1,-2,-1,-1,10
1532289857148,1,-1,0,-1,-3,-1,-1,3
1532289857153,1,1,-4,-2,-1,0,1,2
1532289857158,-3,-8,-2,-1,2,1,-3,-10
1532289857163,1,0,0,1,-1,-1,-1,-5
1532289857168,-2,-1,-1,0,-2,-1,-2,-2
1532289857173,4,3,-1,-1,-3,-2,-2,7
1532289857178,-6,-4,-1,-1,-1,0,0,-2
1532289857183,-2,-10,-2,-1,-2,0,0,0
1532289857188,2,11,2,-2,-1,1,-2,-27
1532289857193,0,2,-1,0,-2,0,-1,-4
1532289857198,1,-7,-1,0,-1,-1,1,9
1532289857203,-4,-2,-3,-2,-1,-1,-1,-8
1532289857208,-5,-6,-1,0,0,-1,0,2
1532289857213,-4,1,-2,0,-2,-1,1,1
1532289857218,4,7,1,-1,0,-1,0,-1
1532289857223,-3,-5,-1,-2,-1,0,0,-2
1532289857228,1,7,2,0,-1,-1,0,12
1532289857233,-3,-2,-2,-1,-1,-2,-4,-16
1532289857238,-4,-5,-2,0,-2,1,1,14
1532289857243,-1,0,-2,-1,-1,0,0,2
1532289857248,4,-4,0,-1,-1,-1,-2,0
1532289857253,-1,3,1,1,1,-1,-3,-7
1532289857258,2,10,3,0,-2,-1,-2,-16
1532289857263,-2,-1,-2,-1,-1,-1,-2,-6
1532289857268,-1,-10,-3,-1,-2,-1,1,3
1532289857273,2,1,1,-1,0,-2,0,5
1532289857278,-1,-5,-4,0,0,1,-1,-4
1532289857283,-2,2,-1,0,1,-2,0,0
1532289857288,0,-4,-3,-1,-1,0,0,6
1532289857293,-2,3,2,-1,1,-2,0,-7
1532289857298,-3,0,-2,-2,-2,-3,0,0
1532289857303,2,-1,-1,-1,0,0,0,-14
1532289857308,-5,-6,-2,0,-1,0,-1,3
1532289857313,0,-7,-1,-1,0,1,1,5
1532289857318,1,-3,-1,1,-1,0,1,0
1532289857323,-4,4,0,-2,-1,1,-2,-1
1532289857328,0,-2,0,1,0,0,-1,-3
1532289857333,0,-7,-1,-1,-1,-1,0,-1
1532289857338,-3,0,0,0,0,-3,-2,-1
1532289857343,2,-4,-1,-2,-4,-2,1,2
1532289857348,2,3,-2,-1,-2,-1,-1,6
1532289857353,-1,-2,-3,-2,-1,0,1,3
1532289857358,0,-5,-2,-1,-1,-1,-2,0
1532289857363,-4,0,-2,-1,-2,-1,-3,-7
1532289857368,-2,-10,-3,0,1,0,-1,-19
1532289857373,-2,12,1,1,-2,-2,-2,-4
1532289857378,3,4,0,-1,-2,-1,-1,2
1532289857383,3,2,-1,0,0,1,-1,5
1532289857388,-1,-4,0,-3,-1,-1,-2,3
1532289857393,-6,1,-2,0,-2,0,0,-3
1532289857398,-1,0,-2,-1,-1,2,0,3
1532289857403,-1,1,0,-1,-2,-1,-1,-2
1532289857408,0,2,-1,-1,0,-1,-1,1
1532289857413,1,-2,-2,-2,0,-2,-2,1
1532289857418,-3,0,-2,-1,-1,0,-1,-5
1532289857423,1,0,-2,0,-1,-1,1,-4
1532289857428,0,1,0,-1,-1,-1,0,0
1532289857433,0,0,-1,0,-1,0,0,2
1532289857438,-3,-5,-3,-1,0,-2,0,-3
1532289857443,-3,-8,-1,-2,-1,0,-1,-5
1532289857448,-1,11,2,-1,0,1,0,-1
1532289857453,1,-1,-2,-3,-2,0,0,2
1532289857458,0,-4,-1,-2,-1,-1,0,3
1532289857463,1,1,-1,1,0,-1,1,6
1532289857468,-3,-7,-3,-1,-2,0,-3,-2
1532289857473,-1,7,2,-1,0,0,-1,-1
1532289857478,3,-5,3,0,1,0,-1,6
1532289857483,-1,1,0,-2,-2,-3,-1,-4
1532289857488,-1,-1,-3,-1,-2,-2,2,9
1532289857493,-1,-10,-4,0,-1,-1,-1,-10
1532289857498,0,4,-1,-2,0,-1,-1,14
1532289857503,1,1,-1,-1,0,0,0,3
1532289857508,-2,-4,-1,-1,-2,-2,0,-2
1532289857513,-1,-6,0,-2,-2,-1,-1,6
1532289857518,1,3,1,1,-2,-1,0,7
1532289857523,-3,-4,-2,-2,0,-1,-1,-6
1532289857528,1,-5,-3,-1,0,0,1,-3
1532289857533,-1,0,-2,-1,-1,0,-1,6
1532289857538,0,1,-1,-1,-1,1,1,-1
1532289857543,-1,-1,-2,0,0,-1,-1,1
1532289857548,0,3,-2,1,0,0,1,2
1532289857553,1,1,1,0,0,-1,1,-12
1532289857558,0,2,0,-2,0,-1,-1,-3
1532289857563,-3,-3,-2,-1,-2,-1,-1,-1
1532289857568,-3,-4,-1,-2,0,-1,-2,-4
1532289857573,2,7,2,1,0,1,0,1
1532289857578,-1,-2,-2,-1,0,1,-2,-3
1532289857583,-3,-7,-2,0,-1,-1,0,8
1532289857588,1,-2,0,0,-1,-2,-2,-8
1532289857593,0,-2,-1,0,-1,-1,-1,21
1532289857598,-3,-2,0,0,1,0,-1,-2
1532289857603,1,-2,-1,-1,2,0,-2,-3
1532289857608,-2,-3,-1,0,-1,0,0,-4
1532289857613,0,0,-2,-2,-1,-2,-2,-1
1532289857618,2,0,0,0,-1,0,-1,-2
1532289857623,-3,-3,-1,0,0,1,1,-2
1532289857628,-1,5,2,0,-1,0,0,-1
1532289857633,-3,-5,1,-2,-1,-2,-3,-6
1532289857638,0,1,-1,-2,1,-2,-1,3
1532289857643,1,-4,0,-1,-1,0,-1,-2
1532289857648,-5,-7,-3,-2,0,-2,0,3
1532289857653,2,11,1,-1,-1,0,-1,-10
1532289857658,3,-1,0,1,-2,0,0,6
1532289857663,-1,4,0,0,-2,0,0,-9
1532289857668,-1,-1,-1,0,0,0,1,4
1532289857673,-6,-13,-4,-4,-1,-1,0,-9
1532289857678,0,-3,0,-2,-1,-2,-2,-6
1532289857683,0,5,-1,0,0,-3,-1,9
1532289857688,-2,1,0,0,0,0,0,-3
1532289857693,-4,-1,-1,-2,-1,-1,-3,-8
1532289857698,3,3,-1,2,-1,-1,1,1
1532289857703,5,0,-1,0,-1,1,0,19
1532289857708,-1,-6,-2,-2,-1,-1,-1,-3
1532289857713,0,12,1,1,0,-1,2,5
1532289857718,0,0,0,0,0,0,0,-3
1532289857723,-2,-3,1,-2,-2,-2,-1,-2
1532289857728,-1,-2,-3,-1,-1,1,-1,-4
1532289857733,-2,-6,-2,-1,-2,-1,-1,2
1532289857738,-3,-1,-2,-2,0,0,-2,-7
1532289857743,-2,2,-3,-1,-2,-2,0,-11
1532289857748,0,3,1,-1,1,-1,-1,1
1532289857753,-1,-5,-1,-1,0,1,0,-5
1532289857758,0,-2,0,-1,-2,-1,1,3
1532289857763,1,10,0,-2,-1,-1,-2,9
1532289857768,-5,-1,1,0,-2,-2,-3,-10
1532289857773,1,-7,-4,-1,-1,-3,0,21
1532289857778,3,4,0,0,1,0,0,1
1532289857783,-1,1,0,-2,-1,-2,0,-6
1532289857788,2,12,3,1,-1,-1,-1,5
1532289857793,-2,-3,-2,0,-1,1,0,-2
1532289857798,-4,-6,-2,-2,0,-1,-2,-7
1532289857803,2,-2,2,0,0,-1,-1,2
1532289857808,2,2,-2,-1,0,-1,0,-1
1532289857813,-8,-6,-1,-1,0,-1,1,-20
1532289857818,-1,-6,-1,-1,-3,0,2,-16
1532289857823,2,9,2,2,0,0,-1,-8
1532289857828,-1,-4,-1,-2,-1,-1,-2,-4
1532289857833,-1,-3,-2,0,-1,-1,1,8
1532289857838,-2,-3,0,1,-1,1,-2,-1
1532289857843,-2,-5,-2,-1,-1,0,1,0
1532289857848,-2,0,-2,-2,-1,0,-1,-3
1532289857853,-1,-3,-1,-1,0,0,-1,-5
1532289857858,-3,-7,-4,-2,0,-1,-2,3
1532289857863,0,13,3,2,1,-1,-2,-6
1532289857868,2,4,2,0,-1,0,2,10
1532289857873,4,-2,1,0,-1,0,0,20
1532289857878,1,0,0,-1,-1,-3,-1,8
1532289857883,-3,-11,-5,-1,-2,-1,-1,2
1532289857888,-5,-9,-1,-1,-1,-2,0,-3
1532289857893,2,6,1,-1,-2,-2,-3,-12
1532289857898,-5,-4,0,-2,-1,-1,2,8
1532289857903,3,1,0,-1,0,2,0,-8
1532289857908,-2,4,0,-1,-1,0,-1,-5
1532289857913,0,-4,-3,0,-1,0,-1,-1
1532289857918,-3,4,1,-2,-1,0,-2,-2
1532289857923,-5,-8,-5,-2,-2,-3,0,-5
1532289857928,2,0,0,-1,1,1,0,3
1532289857933,4,11,2,-1,0,0,1,7
1532289857938,-5,-1,0,-1,-1,-2,-1,-11
1532289857943,-4,-7,-2,-1,0,1,0,6
1532289857948,5,0,2,0,0,1,0,22
1532289857953,0,1,-1,-1,0,0,0,-6
1532289857958,3,-2,-2,-1,-1,-2,-3,-16
1532289857963,-4,-7,-2,-2,-2,-3,-1,3
1532289857968,-2,-5,-2,-1,-2,-2,1,-10
1532289857973,-1,-2,-1,-2,-2,2,-3,0
1532289857978,1,3,-2,0,-2,0,-1,5
1532289857983,1,-5,-1,-1,-2,1,-2,-6
1532289857988,-5,-4,-3,-1,-2,-2,-2,-9
1532289857993,-2,-4,-1,-1,2,-3,1,-7
1532289857998,3,13,4,0,0,-1,0,-11
1532289858003,0,-1,0,-2,-1,-3,-1,0
1532289858008,3,-1,-1,0,0,-3,0,9
1532289858013,-6,-1,-2,0,-1,-2,-2,-13
1532289858018,-4,-10,-3,-1,0,-1,-2,7
1532289858023,1,-1,-1,-1,-1,0,1,-1
1532289858028,4,8,1,0,-1,-1,2,0
1532289858033,-3,-7,-2,-2,-1,-2,0,-5
1532289858038,-1,-3,-4,-1,-1,-1,0,3
1532289858043,-4,-4,-2,-1,0,0,0,0
1532289858048,0,2,3,-1,0,0,-2,-5
1532289858053,6,2,1,0,1,0,1,25
1532289858058,-3,-1,-3,0,0,-2,-1,3
1532289858063,-3,-4,-2,-2,0,-1,-4,-9
1532289858068,-4,2,-1,-3,-1,0,-2,-5
1532289858073,1,0,1,0,-2,-1,-2,-6
1532289858078,1,-2,-1,-1,-1,1,2,4
1532289858083,3,7,0,-1,0,-1,0,7
1532289858088,-6,-8,-3,0,1,0,-3,-20
1532289858093,-5,-5,-2,-2,0,0,-1,7
1532289858098,1,1,-2,-2,-3,0,0,2
1532289858103,1,-4,-2,-1,-1,-1,1,-4
1532289858108,-2,-5,0,0,-1,-2,-3,-5
1532289858113,0,1,2,-2,0,-1,0,-7
1532289858118,-1,-2,0,-1,-1,0,0,3
1532289858123,-2,-1,-1,0,-2,0,-1,-5
1532289858128,-1,1,-3,0,-1,-3,0,3
1532289858133,-5,-5,-2,0,0,1,0,-6
1532289858138,-1,-8,-2,0,-3,0,-1,-10
1532289858143,-1,6,2,0,-1,-2,-2,2
1532289858148,2,-1,-2,0,-1,2,3,-1
1532289858153,-2,1,-1,0,1,0,-1,-8
1532289858158,-1,-2,-2,-1,-1,-1,-1,4
1532289858163,2,-2,-1,-1,0,-1,-2,4
1532289858168,-5,0,-2,-1,-1,-1,-2,0
1532289858173,6,-2,1,1,-1,-2,1,-12
1532289858178,-4,0,0,-2,-1,-1,0,-6
1532289858183,-1,-6,0,-1,-2,-1,1,1
1532289858188,2,3,-3,-1,-1,1,-1,9
1532289858193,-3,-1,-1,1,-1,0,0,-7
1532289858198,-1,0,-1,-1,1,-1,-2,-2
1532289858203,-2,-1,0,-1,-1,0,0,-1
1532289858208,-3,0,0,-2,0,0,-1,-5
1532289858213,0,0,-2,-1,-2,-1,-1,4
1532289858218,0,0,1,1,0,-2,-1,5
1532289858223,-1,2,-2,0,0,-2,0,5
1532289858228,0,-5,-1,-1,0,1,-2,-6
1532289858233,-3,-1,-2,-1,-1,-1,-2,2
1532289858238,-1,1,0,-1,-1,-1,0,1
1532289858243,0,-1,0,0,-2,-1,-2,-7
1532289858248,-5,-4,-3,-1,-1,0,0,16
1532289858253,-4,-13,-3,-1,-1,-2,-1,-6
1532289858258,10,31,6,1,-1,-2,1,20
1532289858263,0,0,-1,0,-3,-2,0,-1
1532289858268,1,-2,-1,-1,0,-2,0,-2
1532289858273,-2,-2,-1,-1,0,-2,1,6
1532289858278,-3,-9,-2,0,2,1,0,-5
1532289858283,0,-1,-1,-2,-1,0,0,-2
1532289858288,-2,3,1,-1,-2,-2,-1,-4
1532289858293,0,-2,-2,-2,-2,-2,-1,3
1532289858298,1,-6,-1,-3,-2,-1,-1,-3
1532289858303,-1,2,-1,-1,-1,0,-1,-2
1532289858308,-2,-3,-1,0,-1,-1,0,-4
1532289858313,0,2,2,0,0,-1,-2,-10
1532289858318,-7,-8,-3,0,0,-1,-1,-2
1532289858323,0,4,-1,-1,-1,1,-1,0
1532289858328,5,0,1,0,-1,-1,2,15
1532289858333,0,1,-3,-1,-1,-1,-1,1
1532289858338,-3,-2,-2,-1,-1,-1,-1,-2
1532289858343,-6,-8,-1,-1,-1,-1,-3,-13
1532289858348,-1,1,1,2,-2,-1,-2,-8
1532289858353,2,2,-2,-2,-2,0,1,4
1532289858358,-1,0,-1,1,-1,-1,-2,-2
1532289858363,0,-2,-2,-1,0,0,1,11
1532289858368,-5,-1,-3,-2,-1,-4,-1,-16
1532289858373,2,2,1,2,1,2,-2,0
1532289858378,-1,-3,0,-3,-2,-2,-2,-3
1532289858383,2,0,0,0,0,-1,0,5
1532289858388,-4,1,-1,-1,1,-2,-2,-14
1532289858393,-2,-3,-1,-3,-1,0,1,3
1532289858398,1,0,0,-1,1,0,0,-5
1532289858403,-1,-2,0,-3,0,0,-1,2
1532289858408,2,-9,-1,-2,-1,1,2,6
1532289858413,-1,14,1,-1,-2,-2,-1,0
1532289858418,-5,-2,-2,-1,-1,1,-1,-6
1532289858423,0,-4,1,1,0,-1,-1,-3
1532289858428,1,-1,-2,-1,0,-1,-1,-9
1532289858433,-2,-5,-3,0,-1,-1,0,0
1532289858438,0,-2,-3,-1,0,-2,-1,3
1532289858443,0,4,-1,-1,0,0,0,-3
1532289858448,0,-1,0,0,2,0,0,7
1532289858453,0,0,-1,0,-2,-1,0,6
1532289858458,-4,-4,-2,-2,-2,-1,-2,-6
1532289858463,-4,-7,-2,0,-2,-1,-2,0
1532289858468,10,7,3,0,-1,1,0,24
1532289858473,-1,-3,-2,-1,0,0,-1,-1
1532289858478,0,-3,-1,-1,-1,0,2,2
1532289858483,-5,6,-1,-1,0,0,-1,-5
1532289858488,-1,-1,-1,-1,-3,-1,-1,-2
1532289858493,1,-4,-1,-2,-1,1,-1,1
1532289858498,-4,0,-1,-1,1,1,-3,-8
1532289858503,0,-1,0,-1,-1,0,-2,-8
1532289858508,-2,-5,-2,0,-2,-1,0,-2
1532289858513,1,-1,-2,-1,-1,-2,0,6
1532289858518,-2,-2,-2,-1,-1,-3,1,6
1532289858523,-2,-4,-2,-1,-1,-1,-2,-5
1532289858528,-2,-3,-2,-1,-1,0,0,-1
1532289858533,0,1,0,0,0,-2,-2,-6
1532289858538,-3,-4,-2,-1,-2,0,-2,1
1532289858543,-2,-4,-3,-1,-2,-3,-1,-5
1532289858548,-1,0,0,-1,-2,0,1,23
1532289858553,1,7,2,1,1,1,-1,-5
1532289858558,2,2,0,-1,-1,-1,-1,3
1532289858563,-3,-6,-2,-2,-1,-1,1,-7
1532289858568,-6,-10,-4,-2,0,0,-3,-14
1532289858573,-2,-4,0,-2,-2,-2,-1,4
1532289858578,0,3,1,1,-1,-1,0,-3
1532289858583,0,-1,1,0,0,-2,-5,0
1532289858588,0,-4,-2,-1,1,0,-2,-3
1532289858593,-1,-1,-1,-2,-1,-1,-1,-2
1532289858598,-3,-2,-2,-2,-2,-1,-2,1
1532289858603,3,-1,0,-2,0,-1,0,16
1532289858608,-3,-2,-1,-2,0,0,0,-15
1532289858613,1,3,2,-2,1,0,-1,8
1532289858618,0,6,0,-1,0,0,0,-9
1532289858623,-4,-1,-1,0,0,-1,-2,-11
1532289858628,-1,-2,-2,0,-2,-2,-1,-2
1532289858633,-1,-10,-2,0,-1,-2,-3,-1
1532289858638,2,3,1,1,1,0,-1,-11
1532289858643,1,3,0,0,-1,0,2,2
1532289858648,-2,-2,-1,0,-1,-1,-1,-3
1532289858653,-3,-2,-1,-2,-3,-1,-1,-3
1532289858658,-1,-6,0,2,-1,-2,0,4
1532289858663,-1,-2,-1,0,-3,-2,-1,-5
1532289858668,-2,-4,-2,-1,1,-1,1,-6
1532289858673,0,-2,-2,0,-1,0,0,2
1532289858678,4,0,-1,0,-1,0,-1,19
1532289858683,-5,0,-2,0,0,1,-2,-14
1532289858688,-3,-4,-2,-1,0,-1,0,5
1532289858693,-2,0,-3,1,-3,-2,-2,-12
1532289858698,0,2,0,-1,1,-2,-2,-5
1532289858703,1,-2,0,1,0,0,2,2
1532289858708,1,0,1,-1,-2,0,0,3
1532289858713,-1,-4,-1,-1,-1,1,0,1
1532289858718,-1,-1,0,-2,-2,-2,1,0
1532289858723,1,4,1,-1,0,-2,-1,2
1532289858728,-1,0,0,-3,-2,-1,-1,0
1532289858733,-4,-6,-4,-1,1,1,1,-2
1532289858738,-1,7,0,0,0,-1,0,-1
1532289858743,0,7,1,-2,-2,-1,-2,-7
1532289858748,1,2,0,-1,1,-1,1,-11
1532289858753,0,1,-2,-2,-1,-1,-1,-3
1532289858758,-1,-8,-4,-3,-1,0,-2,1
1532289858763,-1,-1,-1,0,-1,0,-1,-7
1532289858768,-1,1,0,1,0,-1,-1,-4
1532289858773,-1,0,1,-2,-1,-2,0,-1
1532289858778,-2,-5,-2,0,-1,1,2,-1
1532289858783,0,-3,-3,0,0,-1,0,5
1532289858788,1,-1,0,-1,-1,-2,-2,2
1532289858793,0,5,1,-1,-1,-1,1,0
1532289858798,0,-8,-2,-1,-2,-2,0,0
1532289858803,2,0,1,0,0,0,0,1
1532289858808,-1,-3,-1,-2,-1,0,-1,13
1532289858813,-1,-2,0,-1,0,0,0,-22
1532289858818,-3,-4,-3,-1,-2,-1,0,-2
1532289858823,0,1,0,-1,-3,-1,-1,10
1532289858828,-1,-2,-2,0,-1,1,-1,-4
1532289858833,-3,-2,-1,-2,-1,-1,-4,-7
1532289858838,-1,-4,1,-1,-1,-1,0,-1
1532289858843,0,8,0,1,0,-1,-1,-1
1532289858848,-2,3,0,-4,-1,0,-1,2
1532289858853,0,-1,-3,1,0,0,-1,9
1532289858858,-1,-2,0,1,-1,-1,0,-4
1532289858863,0,-2,-1,-2,-2,0,1,9
1532289858868,-3,-1,-1,0,0,0,-2,-8
1532289858873,5,3,-1,-1,-1,-1,-1,15
1532289858878,0,-5,1,-2,-2,-2,0,-15
1532289858883,-8,-8,-2,-1,0,-1,-2,-8
1532289858888,2,-6,-2,0,-2,-2,0,15
1532289858893,-1,2,1,-2,-1,0,1,8
1532289858898,0,4,-1,0,1,2,-2,0
1532289858903,-1,0,-1,-2,-1,-3,1,5
1532289858908,-2,-5,-2,-1,0,-1,0,-10
1532289858913,1,-3,-1,-1,0,0,-3,0
1532289858918,-2,1,-1,-2,-1,-1,-1,4
1532289858923,1,0,-1,1,0,0,1,-8
1532289858928,-2,-1,1,-1,0,-1,-2,2
1532289858933,0,1,1,1,-1,-3,0,-1
1532289858938,-1,-3,-2,-1,0,0,-2,-2
1532289858943,-3,4,-1,-1,-1,0,0,-1
1532289858948,5,0,-1,0,-1,-1,1,6
1532289858953,0,3,2,0,1,1,0,-4
1532289858958,-6,-5,-4,-1,-1,-1,0,-10
1532289858963,3,-7,-1,-1,0,-2,1,5
1532289858968,-5,-1,-1,-1,-3,-3,2,6
1532289858973,0,0,-1,-1,0,0,-1,-15
1532289858978,2,0,0,0,0,-1,-2,2
1532289858983,-2,-3,-1,-1,-1,0,-1,-6
1532289858988,-1,1,0,-1,0,1,-2,-2
1532289858993,-1,-3,-1,0,-2,-3,0,4
1532289858998,0,2,1,1,1,-2,0,6
1532289859003,0,-3,0,-1,-1,-2,-2,-1
1532289859008,-1,-6,-2,-1,0,0,1,-9
1532289859013,-4,1,-1,-1,0,0,-1,3
1532289859018,-2,-3,-2,-1,0,-2,0,2
1532289859023,4,5,2,-1,-1,1,-1,27
1532289859028,2,1,0,-1,-1,-1,-1,-2
1532289859033,-2,-2,-3,-1,0,-1,-2,-1
1532289859038,0,1,0,-1,1,-2,1,3
1532289859043,-6,-9,-2,-1,-1,-2,-2,-24
1532289859048,-3,3,0,0,0,-1,-2,3
1532289859053,3,-2,-1,-2,-1,-1,2,7
1532289859058,-1,-3,-1,-1,-2,-2,-2,2
1532289859063,1,1,-2,-2,0,-1,-1,2
1532289859068,-1,4,-2,1,0,1,-2,-8
1532289859073,-2,-5,-3,-1,-2,0,0,-3
1532289859078,-1,1,0,-2,-1,-2,-3,0
1532289859083,0,-1,-1,-2,-1,0,0,-5
1532289859088,-3,-1,-1,0,-1,0,-1,-2
1532289859093,-3,-3,0,1,0,-1,-3,-1
1532289859098,0,1,0,0,-3,0,-1,4
1532289859103,-1,0,-3,-1,-2,-2,-1,-18
1532289859108,-2,-5,-1,-1,0,-3,0,-6
1532289859113,0,-2,-2,-2,-1,-2,0,8
1532289859118,1,5,2,0,0,1,-1,-8
1532289859123,-3,-5,0,-2,-1,-2,-3,-1
1532289859128,3,6,0,-1,-3,-1,-1,2
1532289859133,0,-2,-2,-1,-2,-2,-2,-6
1532289859138,-4,-2,-2,-2,0,-2,-1,-2
1532289859143,-3,-9,-1,-1,0,2,2,3
1532289859148,-1,5,1,-1,-1,1,-1,-4
1532289859153,2,5,1,0,1,-1,2,4
1532289859158,1,-2,-2,0,-1,-1,-2,2
1532289859163,0,1,-1,-1,-2,-2,-1,0
1532289859168,-3,-6,0,-1,0,-1,-1,-1
1532289859173,-1,-3,1,0,-2,-1,0,-4
