1532061744716,19,4,-2,0,-1,4,-1,2
1532061744721,-20,-8,-1,0,1,-1,0,-1
1532061744726,3,0,-2,-2,-3,1,-2,-5
1532061744731,-5,-2,1,0,-2,-11,-2,-1
1532061744736,-1,1,1,-3,-8,0,-2,1
1532061744741,6,-4,-2,4,6,12,2,-2
1532061744746,-2,-2,0,-3,1,-1,2,5
1532061744751,-5,2,1,-1,-4,-1,-3,-3
1532061744756,8,-3,-4,0,-1,-3,-1,-1
1532061744761,-5,0,2,-1,-4,-7,-2,-2
1532061744766,-6,-1,1,-1,-3,-1,-2,-1
1532061744771,0,0,-2,1,-1,6,2,-1
1532061744776,4,0,-2,0,3,-2,0,4
1532061744781,-1,1,-2,1,2,4,0,-1
1532061744786,10,-1,-3,-5,1,-1,-1,2
1532061744791,11,10,2,-1,-9,-7,-6,-6
1532061744796,-16,-6,-3,-6,2,1,7,-1
1532061744801,-11,-9,-5,4,-2,-2,-3,1
1532061744806,-2,-2,0,2,1,2,1,-1
1532061744811,-7,-5,-2,1,-3,-6,-3,0
1532061744816,19,6,3,2,4,8,5,4
1532061744821,4,4,1,-9,0,4,-3,-1
1532061744826,-7,0,3,-1,-3,-7,-4,-8
1532061744831,9,2,1,1,-6,-6,-2,1
1532061744836,-6,-1,2,1,-3,-1,-2,0
1532061744841,-3,-6,-1,0,4,5,5,-2
1532061744846,20,7,-1,1,7,7,-3,-1
1532061744851,-29,-6,-1,-8,-4,-4,0,-7
1532061744856,1,-2,-1,-3,-4,-8,0,-2
1532061744861,4,7,-3,1,-1,-2,-1,2
1532061744866,-7,-13,-1,1,-1,2,1,-1
1532061744871,-1,-23,-12,-6,6,2,-1,-3
1532061744876,10,4,-1,-3,-9,-8,-4,3
1532061744881,1,8,-4,-17,-13,-4,-3,8
1532061744886,-36,0,3,25,7,3,-4,-17
1532061744891,13,2,-4,16,8,9,5,4
1532061744896,-9,-5,-11,-14,-11,-5,-1,0
1532061744901,5,4,-1,-4,-9,-15,-5,-6
1532061744906,-3,-2,-4,-14,-3,6,2,13
1532061744911,-15,1,3,3,8,13,3,-13
1532061744916,42,7,1,1,1,0,-8,0
1532061744921,-56,-14,-1,0,-1,-5,5,-8
1532061744926,1,4,-5,5,-5,-1,-21,1
1532061744931,-9,-10,4,-11,0,1,29,8
1532061744936,63,13,2,-13,-1,2,-12,7
1532061744941,-28,-20,-1,13,6,4,21,-5
1532061744946,14,11,4,15,0,3,-2,-1
1532061744951,4,8,2,4,-4,-8,-15,2
1532061744956,-15,-5,2,1,1,1,4,-8
1532061744961,23,3,2,-7,5,8,-10,9
1532061744966,3,4,6,-7,-4,-9,3,0
1532061744971,4,1,2,-1,-7,-1,-10,1
1532061744976,-8,-5,10,5,11,3,6,5
1532061744981,-5,13,9,-1,9,7,-6,-11
1532061744986,-13,-21,-10,-10,3,3,9,-1
1532061744991,-10,6,3,0,-6,-6,-4,-2
1532061744996,1,-1,2,-9,-7,-5,-6,-2
1532061745001,-20,-7,-3,2,-4,-3,5,-1
1532061745006,26,2,0,-15,-4,-4,4,9
1532061745011,-2,-1,-2,9,9,1,-5,-1
1532061745016,-34,-4,-4,29,-3,-3,-3,-9
1532061745021,37,1,-8,-26,-6,-9,-6,5
1532061745026,-27,-12,-3,-11,-5,6,3,-2
1532061745031,-12,-6,-3,-13,-6,-4,-5,-4
1532061745036,-2,7,3,-7,0,2,2,0
1532061745041,4,1,11,32,7,4,3,7
1532061745046,1,6,-3,-34,-10,-9,-7,-10
1532061745051,25,18,0,3,0,-1,3,2
1532061745056,-31,-14,-3,2,-2,0,-1,2
1532061745061,16,-9,-5,-11,-12,-10,-14,-6
1532061745066,-38,-34,-5,9,7,-4,5,-19
1532061745071,28,18,3,-2,-5,-1,-10,5
1532061745076,-5,0,-4,-4,-2,-6,2,-4
1532061745081,-7,5,1,13,4,6,-4,0
1532061745086,15,6,4,-19,-17,-3,8,15
1532061745091,-16,-5,1,-6,6,2,-2,-13
1532061745096,0,-13,-7,-15,-1,-8,-9,-6
1532061745101,14,20,3,12,2,-1,-1,-1
1532061745106,17,15,2,31,9,3,1,1
1532061745111,-13,-28,-10,-32,-14,-2,8,9
1532061745116,1,9,6,28,7,2,-1,0
1532061745121,-4,-3,7,-13,-1,-2,-1,-4
1532061745126,-1,1,-9,19,7,5,-1,-2
1532061745131,12,-12,-13,-21,-8,-10,-2,5
1532061745136,-20,-10,-9,19,3,7,1,-1
1532061745141,-11,-6,-11,-10,-8,-2,3,-4
1532061745146,-14,8,5,32,19,10,3,-3
1532061745151,-1,-4,-10,-14,2,5,-1,0
1532061745156,-16,-16,-8,-18,-7,-6,-2,-7
1532061745161,23,-3,-4,-3,-17,-16,-10,-8
1532061745166,-16,-14,-4,-20,-12,-7,-4,1
1532061745171,9,21,7,22,10,5,3,2
1532061745176,6,6,-11,-15,-8,-4,-9,-7
1532061745181,17,7,2,36,5,7,18,10
1532061745186,-25,-20,-18,-50,-17,-14,-8,-5
1532061745191,-2,-7,-2,-3,-6,-4,-4,8
1532061745196,-4,12,2,14,12,12,5,-9
1532061745201,21,-2,-8,1,-4,-1,-6,2
1532061745206,5,17,4,31,14,9,3,0
1532061745211,9,11,16,38,9,-5,-27,-7
1532061745216,0,0,-1,12,-9,-8,10,11
1532061745221,-11,-16,-10,-40,-8,-2,16,-2
1532061745226,16,19,2,-5,3,7,-8,-2
1532061745231,-22,-7,-5,6,3,-2,2,-13
1532061745236,0,2,8,7,6,-1,-8,1
1532061745241,22,13,0,-16,1,-5,-6,3
1532061745246,-3,-3,4,7,-14,-10,3,6
1532061745251,21,4,6,21,6,10,7,7
1532061745256,-7,1,3,0,4,-1,1,5
1532061745261,-28,-16,-1,-11,-10,-4,-10,-18
1532061745266,-4,-8,2,-10,-2,-7,-9,-11
1532061745271,-22,-12,-3,4,3,5,13,0
1532061745276,23,10,0,6,8,10,13,11
1532061745281,-13,7,3,-5,9,9,5,6
1532061745286,27,7,5,9,-2,3,-1,8
1532061745291,-2,0,-4,-13,-9,-11,-4,-6
1532061745296,-4,-6,-4,-19,-10,-10,-6,-4
1532061745301,5,6,2,11,-11,-6,-5,4
1532061745306,-5,-8,-2,15,7,-2,-6,-9
1532061745311,0,-1,-2,-9,5,8,10,4
1532061745316,4,4,2,-1,5,7,3,2
1532061745321,-6,-4,1,10,8,9,-3,-2
1532061745326,2,-2,-3,-18,-9,-5,2,2
1532061745331,-5,1,1,-5,-2,-3,-5,-9
1532061745336,-7,-5,-1,-1,2,-8,-7,-5
1532061745341,1,-5,-1,-11,-3,4,3,6
1532061745346,3,2,-3,-15,-8,-2,2,2
1532061745351,3,16,4,8,5,1,3,0
1532061745356,-3,-8,1,5,2,-2,-3,-5
1532061745361,-1,-1,-2,9,5,-10,-6,0
1532061745366,-2,-6,1,22,-7,1,-2,1
1532061745371,-9,-11,-4,9,0,-4,-3,-8
1532061745376,-5,4,1,-10,-8,-1,2,6
1532061745381,11,7,-6,-18,0,5,3,3
1532061745386,0,0,-6,-29,-2,1,-1,-4
1532061745391,-2,-6,-4,9,-10,2,3,1
1532061745396,-3,-5,-5,-5,1,-4,-4,-4
1532061745401,-1,9,3,12,19,6,2,1
1532061745406,7,3,6,3,12,4,2,3
1532061745411,-9,-5,-5,-14,-15,-9,-2,3
1532061745416,7,1,-3,21,-9,-4,-5,-4
1532061745421,-6,-13,0,-45,-6,-3,1,-4
1532061745426,22,2,0,12,-10,0,0,4
1532061745431,-31,-25,7,14,2,6,-2,2
1532061745436,1,5,1,5,3,-5,-5,-9
1532061745441,-6,-6,2,1,-6,-8,-8,-8
1532061745446,-1,4,-1,-24,-1,0,1,-2
1532061745451,16,14,7,4,6,1,2,5
1532061745456,5,10,4,-22,-7,2,4,11
1532061745461,-12,-27,-3,11,-1,-5,-3,-5
1532061745466,4,-5,1,-8,5,-1,0,-1
1532061745471,-5,7,-1,0,2,3,3,-1
1532061745476,16,38,3,8,4,5,1,2
1532061745481,5,-8,-2,14,4,-2,-1,-2
1532061745486,-30,-42,-11,-4,-4,3,2,-1
1532061745491,-47,-11,-1,6,1,-4,-3,-7
1532061745496,9,-17,-3,-25,-11,-2,-2,-6
1532061745501,17,26,2,24,2,2,0,13
1532061745506,-30,15,2,7,3,-5,-3,-13
1532061745511,37,9,-1,-13,0,-1,-5,-2
1532061745516,27,37,12,17,3,1,-9,16
1532061745521,-6,-33,-5,-6,-10,-3,14,-7
1532061745526,-17,-28,-2,24,10,-5,-9,-9
1532061745531,-23,-6,-9,-50,-10,-2,-2,-8
1532061745536,-5,-9,-1,10,-2,-7,-4,3
1532061745541,16,44,6,-3,-10,3,-5,4
1532061745546,10,15,9,11,12,7,8,1
1532061745551,22,8,4,-8,3,-2,-1,-3
1532061745556,1,-4,1,-8,-4,-3,-1,-2
1532061745561,1,-4,0,12,4,0,-2,8
1532061745566,14,1,-3,-2,-4,-4,0,12
1532061745571,-36,-8,-4,1,-3,-3,-7,-23
1532061745576,8,-11,-5,-2,3,4,6,-5
1532061745581,-32,6,-1,12,2,1,-4,-8
1532061745586,25,36,0,-17,-7,-3,0,7
1532061745591,27,-30,-13,17,-1,0,4,17
1532061745596,-64,-50,-6,2,4,1,0,-10
1532061745601,-6,40,4,-22,1,1,-3,-13
1532061745606,61,61,11,15,-6,-3,0,17
1532061745611,-13,-77,-15,9,-2,-4,-2,-4
1532061745616,-56,-52,-19,-19,1,-2,-7,-26
1532061745621,-31,-17,-7,7,-4,2,3,-6
1532061745626,-6,21,-2,-7,-3,-5,-5,-10
1532061745631,21,43,1,-14,-8,-1,1,12
1532061745636,21,29,7,-11,-4,1,5,14
1532061745641,3,-70,-13,-3,2,3,1,5
1532061745646,0,0,0,18,8,-1,2,1
1532061745651,33,58,21,3,6,6,5,38
1532061745656,-16,-25,-4,10,0,-1,7,-3
1532061745661,1,-3,7,0,2,-1,-7,-9
1532061745666,-9,-12,4,-18,-6,-1,-2,0
1532061745671,0,-13,-8,16,7,-2,-1,1
1532061745676,-17,-7,-4,10,0,-1,0,-8
1532061745681,-1,16,8,12,6,2,-7,-24
1532061745686,-12,-16,1,-27,-13,-6,2,7
1532061745691,2,0,-5,13,3,1,1,-4
1532061745696,6,-3,-10,-17,-4,0,0,13
1532061745701,7,12,-15,-2,0,-4,3,16
1532061745706,0,-4,-18,-17,-4,1,2,-3
1532061745711,0,-8,7,7,4,1,3,-1
1532061745716,6,5,13,15,0,0,1,11
1532061745721,4,2,2,-12,-2,3,3,-4
1532061745726,-9,-7,1,3,-6,-2,-6,-13
1532061745731,-7,2,12,10,0,-5,-12,-19
1532061745736,7,3,25,-23,-6,-3,3,12
1532061745741,-10,-19,-20,2,-3,-5,-5,-3
1532061745746,-5,1,3,-3,2,1,2,-3
1532061745751,0,-6,-11,0,-1,2,3,-1
1532061745756,3,-8,8,-19,-10,-1,-5,1
1532061745761,3,6,13,2,-9,-3,2,1
1532061745766,-1,7,7,19,15,6,-5,-5
1532061745771,3,-1,-3,-1,4,-2,2,0
1532061745776,0,-10,-14,-28,-10,-6,-4,2
1532061745781,-1,5,1,-1,0,1,1,3
1532061745786,-2,-3,-7,-14,-12,-14,0,3
1532061745791,2,2,-1,-2,-6,9,4,-2
1532061745796,-1,-1,2,28,15,15,-1,-10
1532061745801,0,2,3,30,5,-1,-2,1
1532061745806,0,-1,-1,-10,0,-2,-4,-3
1532061745811,-3,-7,-6,-1,-9,-5,0,2
1532061745816,3,3,-8,-21,-4,-3,2,4
1532061745821,-2,-1,-7,11,2,-1,0,1
1532061745826,0,1,-12,-2,-1,-1,-3,-3
1532061745831,1,2,-4,-19,-3,-7,-3,-11
1532061745836,-4,-8,0,50,5,0,2,3
1532061745841,26,19,11,-9,-1,7,16,24
1532061745846,-44,-19,-3,-22,-10,-23,-13,-11
1532061745851,13,4,7,22,-14,-12,-8,3
1532061745856,39,7,5,-16,5,20,14,16
1532061745861,-38,7,-5,8,28,27,0,-16
1532061745866,-29,-25,-6,-45,6,-10,1,-5
1532061745871,8,2,-3,6,-10,-8,-10,-12
1532061745876,-6,-15,-5,4,-15,-13,-10,-7
1532061745881,29,13,2,-1,4,17,14,16
1532061745886,2,11,3,1,14,12,5,-5
1532061745891,-23,-12,-2,6,11,-5,0,-2
1532061745896,23,4,-5,-2,-18,-21,-5,13
1532061745901,59,4,-6,-21,-12,-14,-8,2
1532061745906,-63,-8,-2,-14,-1,2,-1,-11
1532061745911,13,-4,7,50,12,2,2,7
1532061745916,-29,-8,-3,-18,0,3,-2,-7
1532061745921,-8,0,-3,-19,-8,-10,-9,-10
1532061745926,21,11,8,32,3,4,2,1
1532061745931,9,1,2,-14,-1,5,8,9
1532061745936,-14,3,-3,2,3,3,-4,-8
1532061745941,-12,-7,-9,1,-4,-9,-6,-11
1532061745946,28,6,10,-4,-3,6,1,18
1532061745951,-2,-3,-4,-22,6,9,1,-7
1532061745956,1,9,1,2,-3,-1,-3,-1
1532061745961,5,1,9,8,2,-7,-2,8
1532061745966,-56,-10,5,-4,-6,0,-6,-31
1532061745971,-21,2,22,-4,2,7,0,0
1532061745976,-3,8,1,4,-1,-7,2,-4
1532061745981,-2,8,0,-27,-11,-3,0,0
1532061745986,49,0,-8,18,5,9,9,13
1532061745991,-8,-11,7,66,-3,-2,-7,-5
1532061745996,-9,7,5,-5,20,9,3,0
1532061746001,12,-5,-10,19,-10,-9,-4,1
1532061746006,22,5,-4,-53,-22,-3,-3,2
1532061746011,-22,-8,-8,-62,-8,-4,2,-5
1532061746016,19,9,9,61,-3,-6,-1,5
1532061746021,-6,-12,-3,-8,5,2,1,5
1532061746026,55,8,8,9,2,-2,1,10
1532061746031,-30,26,29,16,7,5,5,-8
1532061746036,3,-8,-28,-26,3,2,2,2
1532061746041,-28,-14,-2,-15,5,0,-2,-12
1532061746046,4,-9,3,35,-3,-5,-3,-1
1532061746051,10,18,-26,-15,-10,-4,-6,-1
1532061746056,14,-4,14,-14,3,0,-1,-2
1532061746061,-44,-36,-17,-20,-11,-2,-4,-12
1532061746066,-12,-25,-12,34,4,4,1,2
1532061746071,-2,8,-2,-12,4,-6,-2,-1
1532061746076,-35,4,3,3,1,6,9,2
1532061746081,28,7,4,-1,1,-1,1,1
1532061746086,3,13,9,0,3,4,3,-3
1532061746091,8,-13,-14,-9,0,-2,1,1
1532061746096,-15,-9,-6,-19,-11,-7,-12,-16
1532061746101,27,69,9,-12,-1,5,7,22
1532061746106,3,-22,16,20,6,-1,5,11
1532061746111,-14,-40,-51,4,-1,-6,-11,-12
1532061746116,52,48,24,-20,-1,0,2,0
1532061746121,-35,17,17,27,0,-3,-4,12
1532061746126,7,-42,-11,26,-3,-4,-5,-8
1532061746131,-17,-49,-32,-22,11,9,7,-6
1532061746136,-25,-39,-6,-23,-6,-3,-4,-14
1532061746141,11,29,-10,29,4,-5,-3,-8
1532061746146,4,75,26,-48,-8,1,-4,3
1532061746151,15,-3,7,12,-4,-1,1,19
1532061746156,2,-52,-41,-18,-3,-3,-2,-2
1532061746161,-19,-14,13,24,3,1,1,-6
1532061746166,-6,17,-6,-8,-8,-8,0,3
1532061746171,85,118,6,-14,0,0,9,15
1532061746176,-12,-78,32,16,15,8,-3,17
1532061746181,-20,-32,-25,-8,-5,-3,-10,-30
1532061746186,-32,-4,-28,-4,-3,-3,-5,-10
1532061746191,0,48,23,2,-1,-1,1,0
1532061746196,23,65,19,6,-4,-2,4,14
1532061746201,2,3,12,-19,2,2,6,8
1532061746206,-9,-60,3,22,5,1,-4,-11
1532061746211,19,-72,-35,-9,-9,-4,-4,2
1532061746216,-17,-9,-46,-8,1,0,-2,-5
1532061746221,41,-14,2,4,-5,-2,-3,1
1532061746226,18,66,15,-15,-3,0,-1,-1
1532061746231,3,-6,27,-3,4,4,4,17
1532061746236,-44,-63,33,12,-6,-10,-7,-24
1532061746241,-9,29,-11,-17,3,6,2,-8
1532061746246,19,-16,2,1,-4,0,4,9
1532061746251,6,109,57,16,11,3,-5,0
1532061746256,29,-80,-36,6,2,1,4,12
1532061746261,-75,-17,3,-2,-5,-8,-13,-37
1532061746266,15,32,5,8,2,4,1,-1
1532061746271,22,-6,-11,14,-3,-5,-4,4
1532061746276,47,108,18,-19,-9,0,1,8
1532061746281,-3,-13,-19,-8,-4,-3,0,1
1532061746286,-1,23,-32,2,-1,-4,2,16
1532061746291,9,-21,-1,-6,-2,2,6,11
1532061746296,-51,-13,-36,6,3,-2,-6,-26
1532061746301,30,26,7,2,-4,-2,1,3
1532061746306,-37,-79,-23,-14,-1,-4,-7,-24
1532061746311,-42,38,8,5,-2,1,-1,-10
1532061746316,30,-11,11,12,0,-5,-4,19
1532061746321,-39,-34,-18,-17,-7,-1,-6,-16
1532061746326,3,112,37,19,20,17,20,28
1532061746331,39,-49,-32,-20,-8,-6,-1,16
1532061746336,-2,27,-10,11,6,6,-4,-32
1532061746341,-5,17,24,-5,-13,-9,-11,-7
1532061746346,33,-18,-20,-3,0,2,6,11
1532061746351,-55,-68,-7,-2,3,2,-2,-8
1532061746356,67,124,31,-11,-10,-1,10,16
1532061746361,-31,-96,5,-3,-1,-4,-4,3
1532061746366,-29,112,16,4,3,-3,-14,-33
1532061746371,-17,-115,-40,-9,-6,-3,-3,-7
1532061746376,15,97,37,14,3,-3,-3,19
1532061746381,15,-31,-31,-16,-9,0,13,5
1532061746386,20,-60,-12,-8,-10,-2,0,-8
1532061746391,22,102,59,-4,-6,-4,2,23
1532061746396,-33,-92,-9,7,14,3,-1,-9
1532061746401,-46,0,-29,-6,5,-11,-29,-66
1532061746406,-12,34,21,0,-12,-8,-9,-4
1532061746411,19,122,13,4,2,4,1,-3
1532061746416,32,59,22,-5,-2,1,8,34
1532061746421,49,-9,10,13,13,5,9,30
1532061746426,-7,-52,-33,1,-1,-8,-15,-3
1532061746431,-56,-48,-9,2,-1,4,4,-25
1532061746436,-4,-1,-32,-2,16,1,7,6
1532061746441,28,81,11,-2,-2,9,10,18
1532061746446,-12,-76,-29,-10,-13,-10,-1,-4
1532061746451,-11,-10,-19,-28,-49,4,-10,-14
1532061746456,-9,34,-26,-13,-29,-7,-2,-4
1532061746461,8,1,-5,1,-13,-3,4,20
1532061746466,69,96,89,13,20,5,12,36
1532061746471,-48,-52,-47,27,38,-5,-21,-49
1532061746476,-35,45,-8,14,57,-11,-13,-30
1532061746481,36,126,37,43,89,9,6,10
1532061746486,-11,-35,-13,-72,-81,-13,-7,16
1532061746491,-2,-79,-14,-1,9,3,16,3
1532061746496,-23,-34,-8,-14,-7,-1,2,-5
1532061746501,33,27,12,25,12,4,2,23
1532061746506,-19,-57,0,16,18,0,-1,-9
1532061746511,20,62,-7,-26,-32,-10,-5,1
1532061746516,-23,-67,-8,1,-9,-1,-13,-17
1532061746521,6,-45,8,2,-4,-5,6,-2
1532061746526,-21,-1,-13,21,94,-2,-7,-15
1532061746531,4,-33,-11,7,-14,19,19,13
1532061746536,-5,1,7,-28,-96,-10,6,17
1532061746541,17,61,3,-49,-60,7,2,45
1532061746546,3,70,-27,-3,-6,1,-33,-15
1532061746551,-61,-34,-14,19,52,-13,-3,-89
1532061746556,12,63,13,17,32,-4,7,11
1532061746561,-3,74,13,-5,-24,2,6,9
1532061746566,16,-15,-19,10,-14,2,21,28
1532061746571,34,126,38,9,16,-4,0,23
1532061746576,-15,-18,0,-19,-24,-3,-35,-19
1532061746581,-34,-97,-48,-13,-11,-7,-7,-10
1532061746586,11,47,7,9,19,11,24,0
1532061746591,3,-17,-9,-8,-7,-8,-26,10
1532061746596,0,21,-15,10,13,5,14,-9
1532061746601,17,10,15,6,12,-1,2,13
1532061746606,-13,-42,16,-4,-10,-5,-12,-20
1532061746611,5,-15,39,-6,-13,3,-3,-3
1532061746616,20,28,39,8,11,6,27,29
1532061746621,-9,-16,7,4,8,-6,-100,-7
1532061746626,-11,-13,-16,-1,-6,8,96,-28
1532061746631,14,16,-3,-18,-10,-3,36,25
1532061746636,-9,49,-19,3,7,-6,-32,-12
1532061746641,-2,-57,-53,1,10,1,-98,-4
1532061746646,-22,-44,-27,-2,-7,4,75,5
1532061746651,-6,18,8,8,6,-6,-1,11
1532061746656,-6,-43,-3,8,14,5,2,-3
1532061746661,-16,16,8,-7,-9,0,24,-17
1532061746666,3,20,16,-4,-17,-15,-57,1
1532061746671,9,15,17,11,29,8,1,8
1532061746676,-13,-46,-20,-25,-33,-7,-35,-15
1532061746681,8,78,52,5,-26,-10,36,-2
1532061746686,-12,-85,-19,-5,-4,-2,-32,6
1532061746691,-1,0,7,11,49,13,-10,1
1532061746696,7,7,7,21,-12,13,12,7
1532061746701,9,4,0,-22,-31,-6,29,-1
1532061746706,5,118,22,-5,-8,-7,-34,0
1532061746711,-5,-101,-33,-1,-13,-6,10,0
1532061746716,-2,0,-1,22,41,5,9,1
1532061746721,-6,-11,-3,-12,0,2,32,-6
1532061746726,-3,15,3,7,6,3,-30,-11
1532061746731,36,124,42,3,-10,-6,-19,21
1532061746736,-28,-41,-38,-9,6,-2,-20,6
1532061746741,-5,-6,-18,3,4,4,114,28
1532061746746,-25,13,6,-3,-1,-3,-56,-88
1532061746751,7,38,15,5,-4,-6,-16,-8
1532061746756,7,-23,2,-14,-15,-7,0,-6
1532061746761,1,-14,1,1,19,4,-18,2
1532061746766,20,15,5,21,6,6,19,47
1532061746771,-7,-32,-20,-34,-22,-2,10,0
1532061746776,-1,1,17,-34,-26,-9,-13,-10
1532061746781,-5,-25,-5,20,9,6,-1,-3
1532061746786,7,-2,4,-39,-9,3,9,11
1532061746791,-4,-12,-2,14,-4,1,-16,-9
1532061746796,7,4,-2,36,14,-1,13,8
1532061746801,16,8,10,-1,16,2,-11,-13
1532061746806,-8,-14,-9,-43,-7,2,-1,-6
1532061746811,-5,6,24,36,3,-2,-3,3
1532061746816,-1,6,-8,-21,-12,-5,6,4
1532061746821,0,-11,-8,-50,9,3,1,-13
1532061746826,7,3,-3,49,7,-1,-9,3
1532061746831,-5,13,-4,-39,-10,-5,3,1
1532061746836,24,-10,3,68,4,5,10,2
1532061746841,-38,-10,-8,80,-13,-9,-24,-10
1532061746846,-7,-12,-11,-30,2,-1,2,8
1532061746851,3,9,-8,-61,-6,4,5,-1
1532061746856,12,13,9,-49,15,2,-2,-11
1532061746861,8,-12,-14,-16,-19,-7,-1,3
1532061746866,-6,6,4,11,2,-2,-1,6
1532061746871,-1,2,-3,15,6,-1,1,-5
1532061746876,-12,1,7,52,8,1,-5,-1
1532061746881,2,1,2,-19,-2,-2,-1,-2
1532061746886,-2,-1,-8,-37,-12,-2,-1,2
1532061746891,-3,-14,-1,59,-7,-5,-10,-2
1532061746896,0,1,-9,-61,2,0,4,4
1532061746901,-7,1,2,16,1,-4,-5,-5
1532061746906,10,4,-3,-40,6,6,7,3
1532061746911,3,-1,3,47,7,3,2,1
1532061746916,-12,-4,2,35,5,0,-2,-2
1532061746921,50,3,1,-5,1,0,2,5
1532061746926,-39,-11,-1,-16,-7,-3,-5,-1
1532061746931,-1,-3,-10,-42,-2,-2,0,0
1532061746936,-10,-1,1,13,-2,0,2,-3
1532061746941,-1,-2,1,-2,7,-1,-3,-7
1532061746946,17,2,2,13,1,-2,-2,6
1532061746951,2,-1,1,12,-3,-1,0,4
1532061746956,3,2,1,0,3,1,2,0
1532061746961,-14,-7,-4,-21,-3,0,-2,-3
1532061746966,7,0,-3,34,4,0,0,3
1532061746971,-9,-3,0,0,-5,-4,-3,-1
1532061746976,4,6,2,-20,-5,-2,1,1
1532061746981,-11,-2,1,-3,5,1,-1,-2
1532061746986,9,2,4,31,-2,1,0,2
1532061746991,13,42,3,-10,-2,2,-2,6
1532061746996,2,-22,-8,-15,-2,1,3,2
1532061747001,-20,-28,-7,12,6,-3,-3,-16
1532061747006,-2,-3,0,10,-5,-5,-5,-3
1532061747011,-1,-9,-2,-13,-3,1,-1,-2
1532061747016,5,22,3,-5,-1,-1,2,2
1532061747021,-7,4,1,8,-2,-1,-2,-3
1532061747026,7,1,8,15,6,1,3,1
1532061747031,-1,-8,-11,-29,-8,-8,-2,-3
1532061747036,-5,1,2,7,0,1,0,5
1532061747041,-1,6,15,14,11,3,-2,-3
1532061747046,-1,-17,-27,-22,-12,-1,-13,-5
1532061747051,2,4,21,14,1,0,16,5
1532061747056,-5,-7,-15,-2,1,-1,-1,-3
1532061747061,1,10,0,-10,-5,0,3,3
1532061747066,13,64,20,16,8,2,1,4
1532061747071,-8,-4,-1,-2,-3,-2,-5,-4
1532061747076,-23,-96,-30,-12,-4,-4,-4,-14
1532061747081,3,49,8,-3,-5,-2,-1,2
1532061747086,17,56,11,8,0,-1,6,10
1532061747091,1,-49,-16,-10,-4,1,-2,5
1532061747096,-14,1,13,-3,-1,0,-1,-9
1532061747101,-3,4,-2,-1,1,2,-2,-4
1532061747106,-3,-22,-3,8,5,0,1,-2
1532061747111,5,18,-3,-6,-4,-2,-2,2
1532061747116,10,9,3,-8,-2,0,1,4
1532061747121,-9,-26,-10,-3,-2,-2,-4,-2
1532061747126,5,34,10,-1,0,-2,2,2
1532061747131,-4,-19,-8,2,3,1,-3,-4
1532061747136,-4,-33,-7,-4,-2,-1,0,2
1532061747141,-1,8,-2,-4,-4,-4,-2,-3
1532061747146,-5,-22,-2,1,0,-1,1,-2
1532061747151,0,-1,0,6,1,0,-3,-2
1532061747156,4,47,3,-4,-4,-7,-5,-4
1532061747161,1,-19,0,-4,-1,-1,-1,-1
1532061747166,-16,-41,-9,-2,-1,-1,-5,-6
1532061747171,-2,3,-5,-1,-4,-1,-3,-3
1532061747176,9,36,4,-1,0,1,7,3
1532061747181,8,23,7,4,0,1,3,8
1532061747186,1,-45,-8,-2,-2,0,2,3
1532061747191,-11,-6,-4,-2,0,0,-4,-9
1532061747196,6,12,3,4,3,3,2,-2
1532061747201,-4,-8,-4,0,0,-2,-3,-1
1532061747206,1,7,1,0,-2,0,1,-1
1532061747211,-1,10,2,2,2,2,5,7
1532061747216,1,1,0,-3,-2,-2,-6,-1
1532061747221,-3,-10,-4,-4,-3,-4,-6,-6
1532061747226,-3,-1,-1,-1,-1,-1,-3,-2
1532061747231,-1,-4,-2,0,-1,1,-4,-4
1532061747236,1,5,2,0,-1,0,-1,-1
1532061747241,2,1,0,-2,0,2,0,5
1532061747246,-5,-15,-5,1,0,-1,-4,-4
1532061747251,-3,2,-1,-3,-2,-2,-1,-4
1532061747256,1,6,3,3,0,1,0,-1
1532061747261,2,-6,-3,-5,-5,-1,1,2
1532061747266,-3,-1,-3,-1,-2,-3,-1,-2
1532061747271,3,2,-1,0,0,2,1,5
1532061747276,1,0,-1,-3,-2,-1,0,2
1532061747281,-3,-6,-1,0,0,-1,-3,-3
1532061747286,-4,-6,-1,-1,1,-1,-2,-4
1532061747291,1,-2,-2,-3,-4,-2,-1,-1
1532061747296,-3,2,-1,-1,-1,-3,-4,1
1532061747301,-2,-5,-1,0,1,0,-3,-3
1532061747306,-1,-1,0,-2,0,0,2,3
1532061747311,2,3,1,0,0,-1,0,1
1532061747316,-5,-1,0,-1,-3,-1,-4,-4
1532061747321,3,-1,-1,1,1,1,2,4
1532061747326,3,3,0,0,1,1,-2,0
1532061747331,-1,-2,1,-1,0,-1,-3,-4
1532061747336,-2,0,2,-1,0,0,2,1
1532061747341,-3,-5,-1,1,1,-1,-2,-1
1532061747346,-3,-1,1,-1,-2,-2,-1,-2
1532061747351,1,1,1,1,1,-1,0,0
1532061747356,0,0,-1,-2,-3,-1,1,0
1532061747361,-2,-3,0,0,-2,1,0,-2
1532061747366,-1,0,-1,0,0,1,1,-1
1532061747371,3,1,0,0,-1,0,0,1
1532061747376,2,2,0,1,0,-1,0,-1
1532061747381,-1,0,-1,-2,0,3,1,0
1532061747386,0,-2,0,1,-4,-11,-4,-1
1532061747391,0,-1,-3,1,2,2,-2,-2
1532061747396,0,-1,-2,-2,2,4,2,-2
1532061747401,4,0,-1,-2,-5,-10,-2,1
1532061747406,-2,-1,-1,-2,1,6,-4,-3
1532061747411,-1,0,0,-2,-1,-1,2,-3
1532061747416,1,0,0,0,2,5,1,2
1532061747421,-1,-1,0,1,3,0,4,0
1532061747426,-1,-1,0,-1,0,-2,0,0
1532061747431,-2,0,-1,-1,-3,-10,-4,-3
1532061747436,-1,1,0,0,-1,-2,-2,-2
1532061747441,-1,-3,-1,-1,-2,0,-2,-2
1532061747446,1,-2,-1,-2,-5,-6,-1,-1
1532061747451,-3,-3,0,-2,-6,-9,-7,-2
1532061747456,-1,-1,-1,-1,3,10,-3,-2
1532061747461,-1,0,1,1,6,8,2,1
1532061747466,-1,0,-1,2,6,11,3,2
1532061747471,-2,-2,-2,-1,-6,-10,-2,0
1532061747476,0,0,1,-1,-1,-2,-4,2
1532061747481,-2,-1,-1,1,-1,-2,0,-2
1532061747486,-1,-3,-1,0,-1,-1,-1,1
1532061747491,-4,-1,-1,-1,1,1,-1,-3
1532061747496,-2,-1,-1,0,-4,-9,-2,2
1532061747501,-2,-2,-1,-1,0,0,-1,-3
1532061747506,0,-1,0,-3,-7,-5,-3,-4
1532061747511,-1,-1,-1,-2,0,2,-3,-1
1532061747516,1,-1,-3,-2,-2,-2,0,-2
1532061747521,-3,-1,-2,-2,-2,-2,-1,-1
1532061747526,-2,-1,-1,-1,-4,-6,-4,0
1532061747531,1,1,-2,0,3,8,-2,1
1532061747536,1,0,-1,2,2,5,6,1
1532061747541,-2,-2,-3,-2,-9,-15,-6,-4
1532061747546,-1,-3,-1,0,2,4,-3,-1
1532061747551,-4,-1,-1,-1,1,6,5,-3
1532061747556,2,0,-2,0,1,-2,1,0
1532061747561,-3,-1,0,-2,-2,-1,-2,-2
1532061747566,1,3,1,0,-2,-4,0,1
1532061747571,0,-1,-2,-3,-5,-6,-3,-2
1532061747576,-1,-1,-1,-2,-7,-7,-3,-3
1532061747581,0,-1,0,-2,0,2,0,0
1532061747586,-1,-2,-2,-2,-4,-7,-5,-4
1532061747591,2,-1,1,2,11,16,0,1
1532061747596,1,2,0,3,5,7,9,4
1532061747601,2,-1,-1,1,3,3,0,-1
1532061747606,-2,1,-2,-1,-1,1,1,-1
1532061747611,-2,-2,1,-2,-5,-14,-3,-1
1532061747616,-3,-2,-1,-5,-4,-4,-7,-2
1532061747621,-3,-2,-1,-1,-4,-2,-1,-2
1532061747626,-1,1,0,1,1,0,-2,-1
1532061747631,-2,0,-1,0,2,5,2,-1
1532061747636,-1,1,0,0,2,-1,0,-2
1532061747641,-1,1,0,2,2,1,0,0
1532061747646,-4,-1,-1,-4,-5,-6,0,-2
1532061747651,5,2,-1,0,-4,-4,0,2
1532061747656,1,-1,0,-1,0,0,-1,-3
1532061747661,-1,-2,-1,-2,1,1,-1,-2
1532061747666,-3,-1,-1,0,3,4,0,-2
1532061747671,-2,-2,-1,0,1,0,2,-2
1532061747676,-2,0,-1,-3,-5,-5,-2,-2
1532061747681,-1,-1,-3,0,0,0,-2,0
1532061747686,-1,-2,-2,0,0,3,2,0
1532061747691,-1,0,0,-2,-1,-2,-3,-1
1532061747696,0,-2,0,-1,-1,-1,-3,-2
1532061747701,1,-1,-1,-3,0,2,1,-1
1532061747706,3,2,-1,-1,0,0,1,2
1532061747711,-1,-1,-2,-3,-3,-1,-2,1
1532061747716,-1,-2,-2,-1,-1,-2,-2,-1
1532061747721,-2,-1,-1,-3,-7,-9,-2,0
1532061747726,-1,-1,-1,-2,1,-3,-5,-2
1532061747731,-1,0,-1,2,5,8,4,0
1532061747736,0,0,0,-1,1,2,1,2
1532061747741,-2,-1,0,0,-1,1,1,0
1532061747746,-2,-1,-1,-1,-1,-2,-2,-1
1532061747751,-4,-2,0,-3,-5,-8,-4,-3
1532061747756,-2,0,-1,0,-5,-6,-4,-2
1532061747761,0,-1,-2,-2,-2,-1,-4,-2
1532061747766,-3,-2,-1,0,0,1,-2,-2
1532061747771,1,0,-1,0,-2,-1,1,0
1532061747776,-2,-1,-1,-1,-1,0,-1,0
1532061747781,-1,0,1,-2,1,1,-1,0
1532061747786,0,-1,-1,0,0,-1,0,-2
1532061747791,-2,-2,0,-1,-2,-1,-2,0
1532061747796,0,-1,-2,-2,-2,-3,-2,-1
1532061747801,-2,-2,-2,0,1,-3,-1,-1
1532061747806,0,0,-1,0,-1,-1,1,1
1532061747811,1,0,-2,-2,-1,-1,2,-1
1532061747816,0,1,0,-2,-1,-3,-1,0
1532061747821,-1,-1,0,-1,0,1,1,1
1532061747826,0,-1,-1,-2,0,0,0,0
1532061747831,-1,-1,0,-1,-2,-3,-2,-2
1532061747836,-1,-2,-2,-1,-3,1,-1,-1
1532061747841,2,0,-1,1,1,3,2,-2
1532061747846,0,1,-1,0,0,1,1,0
1532061747851,-1,-2,-1,-2,0,-2,-1,0
1532061747856,-1,0,-1,-1,-1,-1,-1,-1
1532061747861,-3,0,-1,-2,-1,-2,-1,-1
1532061747866,0,-1,-2,-1,-1,1,0,-1
1532061747871,0,0,0,-3,-1,0,-1,-1
1532061747876,-2,-2,-1,-1,0,0,-2,-1
1532061747881,0,-1,-2,-2,0,-1,0,0
1532061747886,-2,0,-1,-1,0,-1,-2,-2
1532061747891,-1,-1,-2,0,0,-2,-1,-1
1532061747896,-1,0,0,1,-2,-3,0,-2
1532061747901,0,0,0,0,-3,0,1,-1
1532061747906,0,0,0,-1,-1,-1,1,0
1532061747911,0,-1,0,0,-2,-1,-1,-2
1532061747916,-1,-1,-1,-1,-1,0,-2,-3
1532061747921,0,-2,-1,-1,-1,0,-1,-2
1532061747926,-1,-2,-1,-2,0,0,-1,-1
1532061747931,-1,-1,0,1,-1,-1,0,-1
1532061747936,-1,0,0,-1,-1,0,-1,0
1532061747941,-1,0,0,0,-1,0,-1,-1
1532061747946,-1,-1,-1,-1,-2,-1,0,-1
1532061747951,0,-1,-2,-1,1,-1,-1,-2
1532061747956,0,-2,-2,-1,-2,-2,-1,0
1532061747961,-1,-2,-2,0,1,-1,-2,-1
1532061747966,-1,-1,-1,0,0,-2,-1,0
1532061747971,0,-1,-1,-2,0,-1,-1,0
1532061747976,0,-1,0,-1,-1,0,0,-1
1532061747981,0,0,-2,-3,0,-2,0,-2
1532061747986,0,1,-1,-2,-1,-1,-1,-1
1532061747991,-1,-2,-1,-1,-1,0,-2,-1
1532061747996,-3,-2,0,0,1,-2,0,-1
1532061748001,0,0,0,1,0,-1,-1,0
1532061748006,0,0,-1,1,-1,0,0,-1
1532061748011,0,1,-2,-1,0,-1,-2,-1
1532061748016,-1,0,-2,1,-1,-1,-1,0
1532061748021,-2,-1,-1,1,-1,-1,-2,0
1532061748026,0,-1,0,-1,-2,0,1,0
1532061748031,-2,0,-1,1,-1,-2,0,0
1532061748036,1,-1,-1,-2,0,-1,-1,-2
1532061748041,1,-1,-1,-2,-1,1,-1,0
1532061748046,1,-2,-2,-1,0,0,-2,0
1532061748051,-1,0,0,-1,0,1,0,0
1532061748056,1,-2,-1,-1,-1,-1,-1,0
1532061748061,0,1,0,0,-1,0,-3,-3
1532061748066,-2,-2,1,-1,0,-1,-2,-2
1532061748071,0,-1,-1,-1,0,0,-1,-1
1532061748076,-1,-1,0,-2,0,-2,-1,-2
1532061748081,0,-1,-2,-3,-2,-3,-2,0
1532061748086,0,0,0,0,-1,-1,1,0
1532061748091,-1,0,0,3,6,2,0,-2
1532061748096,0,0,-2,-1,-2,1,1,0
1532061748101,-1,-1,0,-1,1,-1,-2,0
1532061748106,0,-1,0,-2,-2,-2,-1,0
1532061748111,-1,-2,-1,-1,-2,-2,1,0
1532061748116,0,-1,-1,1,-1,0,-1,-1
1532061748121,0,0,0,-1,-1,1,1,2
1532061748126,-1,-1,-1,-1,-1,-1,-1,-1
1532061748131,0,-2,-3,-1,-1,0,0,-1
1532061748136,-2,-1,-2,0,-1,-1,1,-1
1532061748141,-2,-1,0,0,1,0,0,-1
1532061748146,-1,0,-1,-1,1,1,1,-2
1532061748151,-1,0,1,-1,-1,0,0,0
1532061748156,-2,-1,-1,-1,0,0,-2,-1
1532061748161,-2,-3,-1,0,-1,0,-1,0
1532061748166,0,-1,-2,-1,-2,-1,-1,-1
1532061748171,0,0,0,-2,-3,-2,-2,0
1532061748176,1,0,0,0,0,-2,-1,0
1532061748181,-1,2,-1,1,-1,-2,0,0
1532061748186,0,0,-1,1,-2,-3,-2,-2
1532061748191,-1,-1,-1,-1,-3,-3,0,0
1532061748196,-1,-1,0,-2,-1,-4,-1,-2
1532061748201,0,0,-1,2,-1,-2,-1,-2
1532061748206,-1,-1,-1,-1,-1,-2,-1,1
1532061748211,0,-1,-1,1,0,0,-1,-1
1532061748216,-1,-2,-2,1,-1,1,-2,0
1532061748221,0,-3,0,-1,-1,0,-1,0
1532061748226,-2,0,-1,0,-1,1,-1,0
1532061748231,-1,-2,-2,-1,-4,-1,0,-1
1532061748236,-1,-2,0,-1,-2,-2,0,0
1532061748241,-1,-2,-2,-1,-3,-4,1,0
1532061748246,0,-1,2,-2,-1,-2,1,-2
1532061748251,0,0,-1,0,-2,-5,-1,-1
1532061748256,0,-2,-1,-2,-1,-2,1,-1
1532061748261,0,-1,-2,-1,0,-1,0,-1
1532061748266,1,0,-2,2,0,-1,-2,-1
1532061748271,0,-3,-1,0,1,-1,-4,-1
1532061748276,-1,0,-1,-1,-1,-3,1,-1
1532061748281,0,0,1,0,0,-4,-2,-1
1532061748286,-1,-2,-2,-1,-2,-1,1,0
1532061748291,-2,-1,-1,-1,-2,-2,-1,-1
1532061748296,-2,-2,-1,0,-2,0,-3,0
1532061748301,-1,0,-1,-2,-1,-2,-1,-1
1532061748306,0,-1,1,0,0,-2,-1,-1
1532061748311,-2,-1,-1,1,-1,-1,-1,0
1532061748316,-1,-1,0,0,0,-1,-1,0
1532061748321,-1,-1,0,0,-3,0,-1,-1
1532061748326,-1,-1,-2,-1,-2,0,0,-3
1532061748331,-1,0,-1,-2,-2,-1,1,-2
1532061748336,0,-1,-2,0,0,0,-1,-1
1532061748341,1,-2,-1,1,-2,2,0,-1
1532061748346,-1,1,-1,0,-2,0,-1,-2
1532061748351,-1,-2,0,0,-1,1,0,-1
1532061748356,-2,-2,-1,-2,-1,3,0,0
1532061748361,1,3,0,-2,0,2,0,-1
1532061748366,-2,0,-1,-1,0,1,-2,1
1532061748371,12,4,0,-2,0,2,0,1
1532061748376,-16,-8,-1,-1,-2,2,-2,-2
1532061748381,2,-3,0,-2,-1,-1,-3,2
1532061748386,-3,0,1,0,0,0,-1,-2
1532061748391,-6,-4,0,-1,-2,1,-5,-5
1532061748396,2,2,0,-1,0,1,5,1
1532061748401,0,2,0,-1,0,2,-4,0
1532061748406,-2,-2,-1,-1,1,1,0,0
1532061748411,1,-1,0,-1,-1,-2,-1,1
1532061748416,5,1,0,0,0,-5,-2,1
1532061748421,-5,-1,-1,-2,0,-4,-2,-2
1532061748426,2,0,0,0,-1,-2,-2,-3
1532061748431,-4,-1,-2,0,-1,-2,-2,0
1532061748436,1,2,-2,0,-2,1,-2,-2
1532061748441,-3,-2,-3,1,1,1,1,1
1532061748446,-2,-2,-1,-2,-1,0,-1,-1
1532061748451,-1,-4,-1,-1,1,0,0,0
1532061748456,0,0,-2,-2,-2,1,-1,-1
1532061748461,-1,1,-2,-3,-1,1,0,-2
1532061748466,0,-1,-1,0,-1,3,-1,1
1532061748471,-3,0,-1,-1,0,4,1,-1
1532061748476,0,-1,-1,0,1,1,-1,0
1532061748481,-1,0,1,-3,1,2,-2,0
1532061748486,-1,-3,-2,1,0,-1,-1,0
1532061748491,-1,-4,-2,0,-2,-4,-3,1
1532061748496,-5,3,0,-1,-4,-8,-3,-5
1532061748501,-1,-5,0,-1,-2,-2,-2,-1
1532061748506,0,-1,0,1,4,6,3,2
1532061748511,1,1,1,1,3,0,5,2
1532061748516,1,-2,-1,-2,-9,-16,-2,-3
1532061748521,1,-1,1,4,-2,-8,-7,-1
1532061748526,1,1,0,-7,6,9,4,1
1532061748531,-1,0,-2,-5,7,11,5,2
1532061748536,0,-1,0,1,3,-2,-2,-1
1532061748541,-3,0,0,12,4,-5,-1,-3
1532061748546,-1,-3,-4,-12,-14,-14,-7,-2
1532061748551,-3,0,0,3,2,-5,-4,-2
1532061748556,0,-1,-1,-10,-6,-2,0,-1
1532061748561,-1,-1,1,9,-3,-5,-1,-2
1532061748566,1,3,6,4,2,6,-1,0
1532061748571,-1,0,-7,-9,-4,1,1,2
1532061748576,3,3,1,3,2,4,0,1
1532061748581,0,-2,-3,-22,6,0,3,-2
1532061748586,-2,-5,-4,5,-3,-1,-1,-1
1532061748591,-7,-5,1,22,-11,-10,-7,-4
1532061748596,1,1,5,17,8,-2,-2,1
1532061748601,1,0,-3,12,4,9,7,2
1532061748606,0,-5,-10,-50,-10,0,-1,-1
1532061748611,2,3,5,18,11,-2,0,-1
1532061748616,-5,-6,-3,-7,-11,-1,-3,-3
1532061748621,2,3,1,-7,5,1,2,1
1532061748626,-3,-5,0,10,-5,-4,-2,0
1532061748631,8,5,4,11,4,-1,0,-1
1532061748636,-5,2,2,-2,8,2,2,-1
1532061748641,5,2,10,32,1,1,-1,3
1532061748646,-8,-1,-16,-25,0,-6,-5,0
1532061748651,-11,-8,4,18,-16,-6,-8,-5
1532061748656,3,0,-2,-37,-28,-6,-4,4
1532061748661,1,3,4,21,9,11,24,-1
1532061748666,3,3,1,-13,11,-1,0,0
1532061748671,4,2,1,-47,5,0,-3,-2
1532061748676,-2,-1,-17,-43,-17,0,-4,1
1532061748681,-2,1,7,30,13,0,-6,1
1532061748686,-3,-4,1,45,4,-2,-6,-2
1532061748691,-3,-19,-17,9,-33,-12,-3,1
1532061748696,2,-2,-1,-12,9,8,2,-2
1532061748701,-12,-2,-12,-80,-17,-6,-5,-9
1532061748706,-2,6,13,27,1,-6,-1,-5
1532061748711,1,1,-2,40,19,2,1,0
1532061748716,3,-2,4,5,2,6,4,3
1532061748721,1,-2,1,1,2,3,-7,1
1532061748726,3,2,1,-7,-2,1,-1,2
1532061748731,-1,3,3,-18,1,5,0,-3
1532061748736,-2,-6,-10,-3,-12,-10,-11,-4
1532061748741,2,3,2,9,0,0,8,2
1532061748746,-5,-4,-7,-14,-9,-4,-8,-6
1532061748751,-1,4,1,-22,-9,-7,6,2
1532061748756,-1,1,3,37,16,1,-10,-5
1532061748761,0,-4,-4,2,4,11,-2,1
1532061748766,-2,2,1,-10,-1,4,6,1
1532061748771,-1,2,1,1,6,2,-2,-1
1532061748776,-5,-5,-1,17,4,-4,0,-1
1532061748781,-2,-3,-2,-18,-20,-15,-7,-2
1532061748786,0,-3,1,0,-3,-2,1,0
1532061748791,-1,4,2,-19,5,3,2,-1
1532061748796,1,4,-2,5,-1,-2,2,-1
1532061748801,4,-8,-4,-3,-4,-4,-11,7
1532061748806,2,1,2,9,5,4,8,0
1532061748811,-21,-6,0,-7,-3,-2,-6,-11
1532061748816,36,6,7,21,7,4,19,53
1532061748821,-50,-10,-4,-1,3,2,-7,-49
1532061748826,0,9,-2,8,4,4,40,-4
1532061748831,5,-1,0,1,3,1,-1,-12
1532061748836,-3,0,-3,-9,-6,2,-20,-24
1532061748841,16,4,-4,-5,-6,-3,51,32
1532061748846,-2,-6,1,7,0,-4,-10,6
1532061748851,-4,2,-3,-5,-2,0,12,-1
1532061748856,-9,-2,3,9,14,3,-18,-8
1532061748861,5,-3,-3,-9,-14,-9,-24,-1
1532061748866,-4,-2,2,0,-7,-1,-14,-6
1532061748871,5,-1,-1,0,1,1,-9,10
1532061748876,-3,-5,-2,3,4,3,1,-3
1532061748881,0,-4,-2,-1,-3,1,-9,-3
1532061748886,-7,-3,-2,-9,-5,-4,12,-7
1532061748891,4,2,-2,2,-7,-1,7,-2
1532061748896,2,1,-2,1,-1,-1,-10,0
1532061748901,1,-1,-2,1,2,0,7,1
1532061748906,-6,-1,-2,-2,2,-3,9,-7
1532061748911,5,2,-1,-10,1,-1,-6,3
1532061748916,3,-3,0,17,2,-3,-5,0
1532061748921,2,7,-2,7,4,0,0,2
1532061748926,-5,-3,0,-12,5,3,4,-2
1532061748931,2,0,5,40,-2,-3,-11,1
1532061748936,-4,-5,-6,-65,-18,-5,-7,-2
1532061748941,-2,0,0,-5,-4,-2,-2,-2
1532061748946,1,7,-1,-12,5,-1,-2,-1
1532061748951,4,-5,5,28,11,1,-4,-1
1532061748956,2,6,9,44,10,0,-2,1
1532061748961,-1,-11,-5,-30,-12,-2,-1,3
1532061748966,-1,-5,4,7,-4,-1,-1,-1
1532061748971,0,0,-3,-34,0,-2,1,1
1532061748976,0,1,0,10,-4,-4,-1,1
1532061748981,-1,-1,-3,-11,-5,1,-5,-3
1532061748986,2,9,-2,8,-3,-3,-1,-2
1532061748991,-1,5,-12,-13,3,0,3,-3
1532061748996,0,-7,6,-5,4,2,-2,2
1532061749001,2,4,8,4,2,1,1,1
1532061749006,0,1,11,50,12,1,2,0
1532061749011,-4,-11,-29,-82,-31,-8,-8,0
1532061749016,1,5,5,16,7,0,-2,-1
1532061749021,21,-4,-14,3,1,-1,2,4
1532061749026,-35,-17,6,3,12,1,2,-6
1532061749031,-5,3,8,-7,-6,2,-1,0
1532061749036,10,0,-2,36,-1,1,0,2
1532061749041,0,-3,-8,13,7,-4,-2,1
1532061749046,7,2,-2,-22,-9,0,1,1
1532061749051,-2,0,-2,7,11,1,0,-1
1532061749056,-10,-4,-11,-44,-6,-2,-1,-6
1532061749061,1,3,11,13,-1,3,4,1
1532061749066,5,0,-7,-15,-13,-3,-2,-2
1532061749071,-6,-4,0,-2,-1,-2,-2,-1
1532061749076,4,3,5,14,0,-1,0,-3
1532061749081,-6,-5,-3,-5,-1,-4,-2,-2
1532061749086,-3,-6,-6,-14,-7,-7,-5,-3
1532061749091,2,1,5,25,5,2,-5,-4
1532061749096,-2,0,-8,2,6,10,6,3
1532061749101,-9,0,-4,-16,-6,3,0,0
1532061749106,2,0,-4,7,2,-1,-1,0
1532061749111,3,-1,3,-11,-14,-12,-5,0
1532061749116,-2,0,1,18,8,-3,-6,-4
1532061749121,-7,0,-3,-29,-13,4,-1,-2
1532061749126,7,10,10,32,17,9,7,1
1532061749131,-6,-14,-22,-35,-14,-10,-3,-2
1532061749136,-7,-2,-1,-16,-4,-4,-2,-1
1532061749141,-5,-2,0,-2,-4,-6,-2,-1
1532061749146,1,-1,1,1,1,-2,-2,-4
1532061749151,0,4,10,43,8,3,1,0
1532061749156,-4,-4,-5,-13,-3,-1,-2,-2
1532061749161,-1,0,1,-15,-6,-4,-1,-2
1532061749166,1,0,-1,0,4,-2,-1,0
1532061749171,-1,-2,0,-8,-5,1,0,-1
1532061749176,-2,-6,-12,-13,-14,-16,-8,-4
1532061749181,0,3,8,37,16,5,-3,1
1532061749186,1,2,-1,-21,-15,5,7,2
1532061749191,6,5,12,40,21,13,7,3
1532061749196,-1,0,4,-11,6,-1,-1,2
1532061749201,-2,-6,1,10,-6,-7,-3,-4
1532061749206,1,-1,0,8,-7,-7,-4,-1
1532061749211,1,-4,-9,-19,-2,-3,-1,0
1532061749216,10,7,7,-8,-3,6,4,1
1532061749221,-16,-2,0,10,5,-1,-1,-5
1532061749226,4,-2,-5,-18,-3,-1,-2,0
1532061749231,2,4,10,24,10,1,1,-1
1532061749236,8,1,0,7,3,-1,-2,0
1532061749241,-7,-2,-4,-23,-10,-4,1,0
1532061749246,-6,2,-2,-3,-2,-1,1,-4
1532061749251,1,1,1,-13,3,0,-1,-2
1532061749256,-7,-5,-6,-1,-14,-3,-2,-1
1532061749261,7,-3,-5,-5,-10,-4,-4,0
1532061749266,-3,-2,1,28,6,0,1,1
1532061749271,0,-1,1,-2,2,-1,-4,0
1532061749276,-6,-3,-3,-1,-2,2,-6,-5
1532061749281,8,5,2,-22,3,2,5,1
1532061749286,-6,-5,-3,21,3,-5,-7,-1
1532061749291,1,2,-3,-24,-11,-1,-2,-1
1532061749296,-5,-5,-3,-8,-10,-3,0,1
1532061749301,0,0,2,1,5,2,0,0
1532061749306,-3,-5,-4,-2,-6,-2,-5,-4
1532061749311,1,0,2,2,6,0,3,3
1532061749316,-2,1,-1,-21,-2,-1,-4,-1
1532061749321,1,-1,1,16,3,0,-6,9
1532061749326,3,-1,-4,-12,0,0,1,-12
1532061749331,-1,2,-1,-18,-10,-2,-5,-6
1532061749336,-2,-2,0,17,5,0,-8,-7
1532061749341,0,1,-1,-8,-5,-1,4,0
1532061749346,-1,-1,2,23,8,0,-3,6
1532061749351,-2,0,-1,4,-1,-1,-16,-3
1532061749356,-4,-2,-1,5,3,-3,33,12
1532061749361,2,0,-1,-11,-2,0,-2,-3
1532061749366,0,1,-1,-4,2,0,-5,-1
1532061749371,-5,-7,-7,-22,-14,-5,4,-5
1532061749376,2,0,3,18,2,1,-12,-5
1532061749381,-1,0,1,18,4,-2,-4,-1
1532061749386,1,-1,-2,-28,-5,-1,6,3
1532061749391,0,0,1,11,3,-3,-4,2
1532061749396,0,0,0,3,-1,-1,-11,-2
1532061749401,-1,-2,-1,1,2,-4,3,-1
1532061749406,2,-2,-2,-4,-2,0,-7,-4
1532061749411,2,1,1,10,5,1,1,12
1532061749416,4,-4,-1,-4,1,4,-5,-2
1532061749421,-8,-1,-1,9,4,-3,21,-5
1532061749426,1,1,-2,-13,-2,-2,-10,4
1532061749431,13,6,2,16,2,-1,-1,-1
1532061749436,-26,-9,-2,-7,3,2,7,4
1532061749441,0,-1,-1,-4,-1,2,-6,-9
1532061749446,-2,-3,-2,-1,-5,0,7,0
1532061749451,-6,-4,-2,3,1,0,10,3
1532061749456,5,3,0,-1,0,-1,-4,-6
1532061749461,1,-3,0,2,-1,1,-2,1
1532061749466,-1,-3,-2,-7,-5,0,4,2
1532061749471,-3,5,2,9,0,-1,-4,-4
1532061749476,2,1,0,-6,-1,-2,1,-5
1532061749481,2,0,-1,7,1,-1,-6,1
1532061749486,2,4,1,-10,-4,-2,3,1
1532061749491,2,-4,-2,4,1,1,-1,-4
1532061749496,2,0,0,4,-2,-2,-1,-1
1532061749501,-6,-5,-1,1,0,1,-1,-1
1532061749506,17,3,-1,-1,-1,-1,-1,-1
1532061749511,-14,-10,-2,0,0,0,3,5
1532061749516,2,3,-1,1,-2,-1,0,-1
1532061749521,12,4,2,1,-1,-1,-4,3
1532061749526,-11,-5,-1,-5,-2,-1,0,-3
1532061749531,0,0,0,3,1,3,6,-1
1532061749536,-2,-4,-1,-3,0,-1,2,0
1532061749541,1,2,-2,0,1,-1,-6,-3
1532061749546,-2,-3,-2,-6,-3,-1,-1,-3
1532061749551,-2,-1,0,0,-1,-1,1,2
1532061749556,-3,-3,-1,1,-3,0,0,0
1532061749561,-3,-1,-2,0,0,-1,0,-2
1532061749566,-5,-1,-1,-2,-1,-1,2,0
1532061749571,0,2,-3,1,1,-2,-5,-4
1532061749576,17,1,0,-13,-5,-2,-2,13
1532061749581,-23,2,0,11,1,-2,-2,-13
1532061749586,-8,-4,0,-1,-2,1,-3,0
1532061749591,20,2,1,0,2,2,-5,13
1532061749596,8,1,-2,-3,-2,-6,15,8
1532061749601,-13,-6,-3,-4,1,-2,-18,-23
1532061749606,24,1,-1,0,0,0,11,28
1532061749611,-24,1,-1,-1,-2,-4,-30,-50
1532061749616,-9,7,0,1,1,2,15,15
1532061749621,9,2,1,0,0,2,3,10
1532061749626,-12,-4,-1,1,-2,-2,-3,0
1532061749631,17,1,0,-1,-2,-1,0,1
1532061749636,-4,-4,0,-1,0,0,-6,-4
1532061749641,13,-2,-2,-3,-3,0,2,0
1532061749646,-13,4,-2,-3,-1,0,-6,-9
1532061749651,5,-2,0,-1,-1,-2,9,10
1532061749656,-10,-2,0,-1,0,0,-18,-26
1532061749661,-10,-2,2,-2,-4,0,-26,12
1532061749666,37,5,-3,-1,0,-3,40,51
1532061749671,-9,-12,-4,2,3,-3,20,5
1532061749676,-3,16,-1,2,1,0,-11,-17
1532061749681,21,2,3,-4,-3,1,-7,-21
1532061749686,-32,-7,-3,-3,-1,-5,-27,-24
1532061749691,-5,-3,-1,-2,-2,-1,4,8
1532061749696,-3,-7,-1,3,0,-2,0,10
1532061749701,1,0,0,0,-1,-3,15,3
1532061749706,-7,2,0,0,0,-1,-5,-13
1532061749711,-6,-1,-2,-1,-3,0,5,5
1532061749716,2,-1,4,-1,0,0,-10,-14
1532061749721,-3,1,-2,-2,-2,-3,5,9
1532061749726,2,-2,1,1,0,0,0,-4
1532061749731,0,1,0,0,-1,0,-12,-7
1532061749736,8,-2,-2,0,-3,-2,3,3
1532061749741,0,-3,-3,0,1,-1,2,9
1532061749746,-2,0,0,0,-1,-1,6,-3
1532061749751,0,1,0,0,-1,-1,-7,-4
1532061749756,-3,-2,-2,-2,-2,-1,-2,1
1532061749761,-4,-2,-1,0,-2,-1,8,4
1532061749766,-1,0,1,-1,-2,0,-5,-20
1532061749771,-12,-1,-1,0,-2,-2,0,2
1532061749776,14,3,-2,1,1,0,-8,4
1532061749781,-25,-14,-3,0,0,-2,-7,-6
1532061749786,9,1,-1,-1,-2,-1,4,3
1532061749791,2,-1,-1,-1,0,-1,2,0
1532061749796,-8,-4,-2,0,0,1,0,-1
1532061749801,47,3,1,0,0,0,-10,-6
1532061749806,5,6,-1,1,-1,0,19,34
1532061749811,-7,11,0,1,2,1,-18,-24
1532061749816,-3,-2,0,-1,-1,-1,-3,-5
1532061749821,-3,1,0,0,-1,-1,4,3
1532061749826,-1,-5,-1,-1,-1,0,-8,-12
1532061749831,7,-1,0,0,-1,0,6,6
1532061749836,-1,-2,-2,0,-2,0,6,10
1532061749841,-5,1,-1,-1,0,-1,-2,-3
1532061749846,0,-2,-2,-2,-1,1,-2,-9
1532061749851,-8,-3,-1,-1,0,-1,-2,8
1532061749856,-4,-3,-2,0,-1,-2,-9,-6
1532061749861,-6,0,-1,-1,1,-1,5,9
1532061749866,-4,0,0,-1,-1,0,-7,-7
1532061749871,-2,-3,-1,-3,-3,-1,0,-8
1532061749876,3,0,-1,2,0,-1,0,10
1532061749881,-1,3,-2,-1,-1,0,1,-2
1532061749886,-6,-2,-1,-1,0,2,-4,-5
1532061749891,-2,-1,0,-1,0,0,11,2
1532061749896,-1,-4,0,-2,0,0,1,-1
1532061749901,45,3,1,-3,-2,-1,5,9
1532061749906,-60,-5,-3,1,0,-1,-18,-33
1532061749911,15,-11,-3,-2,-1,0,9,7
1532061749916,-10,-1,-2,-2,-2,-1,-4,-11
1532061749921,-1,-2,0,-1,-1,-1,4,6
1532061749926,10,-1,0,-2,0,1,3,5
1532061749931,-4,-1,0,-1,-1,-1,-4,-4
1532061749936,-2,1,-1,0,1,-1,10,4
1532061749941,-15,-1,-1,-1,-4,0,3,-2
1532061749946,11,-3,-2,-1,-1,-1,-6,-3
1532061749951,-10,1,-1,1,0,-1,0,-2
1532061749956,10,0,1,-2,-2,-2,-3,0
1532061749961,-12,-2,-1,-1,1,-3,-2,-8
1532061749966,5,-2,-1,0,0,-2,-3,-3
1532061749971,9,1,0,-2,-3,0,3,11
1532061749976,-3,0,0,-1,0,-2,-4,-15
1532061749981,-11,-2,-1,0,0,0,-7,10
1532061749986,0,-1,0,0,-1,-2,-2,-3
1532061749991,2,0,-2,1,1,0,-16,-2
1532061749996,-6,-1,-1,0,-2,-1,-3,-1
1532061750001,-10,-2,-2,1,1,-1,5,0
1532061750006,11,2,0,-1,0,0,0,6
1532061750011,-5,0,-1,0,0,-1,3,0
1532061750016,0,0,-1,1,-1,1,-1,-2
1532061750021,-2,0,-1,0,-1,-1,-3,-3
1532061750026,-1,-1,0,-1,-1,-2,7,2
1532061750031,0,0,0,0,-3,-2,1,-1
1532061750036,-4,-2,0,-1,-1,-1,4,-1
1532061750041,-4,-1,-1,-2,-2,-1,2,-2
1532061750046,2,-1,0,0,0,-1,-4,-1
1532061750051,-1,-1,0,0,-1,0,-1,-4
1532061750056,0,-2,0,-1,-2,0,1,3
1532061750061,1,0,0,1,0,-2,-1,-2
1532061750066,1,-3,0,0,-1,-3,-5,-1
1532061750071,3,0,-1,0,-2,1,1,2
1532061750076,-2,-3,-1,-1,2,0,2,2
1532061750081,0,1,-2,-1,0,-1,-2,-5
1532061750086,0,0,-1,-1,0,-1,2,0
1532061750091,-1,-2,1,0,1,0,1,-4
1532061750096,4,1,-2,1,-2,-1,-1,2
1532061750101,-6,0,0,0,-1,1,-1,-3
1532061750106,1,0,-1,-1,-2,0,0,0
1532061750111,-4,-1,-2,0,1,-1,1,-3
1532061750116,1,-1,-1,0,0,-1,2,-2
1532061750121,-2,-3,0,0,0,-1,1,-1
1532061750126,-1,-2,-1,-1,-2,0,1,1
1532061750131,1,2,0,-2,0,0,1,-2
1532061750136,-1,-1,1,0,-1,-1,-1,0
1532061750141,-2,-1,-2,-1,0,-1,1,-1
1532061750146,2,1,0,1,0,-1,-1,1
1532061750151,-4,-2,0,-1,-1,-1,-2,0
1532061750156,-1,-2,-2,-1,-1,1,1,0
1532061750161,-2,-1,2,-2,-2,-1,2,-3
1532061750166,0,0,-2,-1,-1,0,3,-1
1532061750171,0,1,0,-1,-1,0,2,0
1532061750176,-2,-3,-1,0,0,0,6,-1
1532061750181,-2,-1,-1,-2,0,0,23,-4
1532061750186,-1,0,-1,-1,0,0,9,-3
1532061750191,-3,-1,0,0,-1,0,3,-2
1532061750196,-1,0,-1,-3,0,-1,-11,-4
1532061750201,-1,-1,-2,0,0,-2,-13,-5
1532061750206,1,-1,-3,0,1,-1,-8,-2
1532061750211,-1,-1,2,-1,-1,-1,-8,-1
1532061750216,0,-1,-1,-1,-1,-1,-12,-1
1532061750221,0,0,0,-2,-1,0,-16,2
1532061750226,-2,-4,-1,0,-2,0,-7,1
1532061750231,-2,-1,-3,0,-2,-1,-5,0
1532061750236,-3,1,-3,0,-1,0,4,3
1532061750241,-2,-2,-2,-1,0,-2,-2,-1
1532061750246,0,-1,-2,-2,-1,-2,-2,0
1532061750251,-1,2,-3,-2,-2,-2,-1,-1
1532061750256,-1,0,0,-1,-3,-1,2,1
1532061750261,1,0,-2,0,-1,0,3,2
1532061750266,0,0,0,0,-1,0,-1,1
1532061750271,0,-2,-2,0,-1,-1,-1,1
1532061750276,-1,-1,1,0,0,-3,2,0
1532061750281,0,-3,-3,-3,0,-1,-2,1
1532061750286,-2,-1,-1,1,1,-2,0,-1
1532061750291,1,-2,-2,-1,1,-2,1,1
1532061750296,0,-3,-4,-1,0,-1,-2,-1
1532061750301,-1,-3,-3,0,-2,-2,1,-1
1532061750306,0,1,-1,-2,-2,0,-1,0
1532061750311,1,0,-1,-1,-2,-1,0,0
1532061750316,-2,-1,0,-1,-1,1,0,-1
1532061750321,0,1,2,-2,0,5,42,5
1532061750326,-1,-3,-1,-3,-2,2,-44,0
1532061750331,-4,-1,-2,2,2,-6,-12,-4
1532061750336,1,1,-1,-1,-2,-1,-4,-3
1532061750341,-2,0,-2,-1,-1,-3,-3,-6
1532061750346,0,0,1,-2,-1,1,-8,-10
1532061750351,-2,-2,0,-1,0,0,20,8
1532061750356,0,-3,0,0,0,-3,-2,-6
1532061750361,-1,-1,0,0,-2,-3,-11,5
1532061750366,1,-2,1,1,0,-1,10,-3
1532061750371,-1,-3,-1,-1,-2,0,-10,-2
1532061750376,-2,-1,0,1,0,-1,7,-1
1532061750381,-1,0,0,-1,-2,0,-6,0
1532061750386,-2,-1,-1,-2,-1,-2,6,1
1532061750391,-1,-1,-3,-1,-2,-1,-3,-1
1532061750396,-1,0,1,-2,-1,1,5,1
1532061750401,-1,-1,-3,0,-1,-1,-11,-2
1532061750406,-2,-1,-2,-1,0,-2,6,4
1532061750411,0,0,-1,-2,0,2,8,-3
1532061750416,0,0,-2,-1,-1,1,-2,1
1532061750421,-1,-1,0,-1,-1,-2,-11,-4
1532061750426,-1,0,0,-1,-2,-2,11,1
1532061750431,1,0,-1,-1,-1,2,0,-2
1532061750436,0,-1,-1,-1,0,0,1,2
1532061750441,-2,0,-1,0,-1,0,0,-1
1532061750446,1,-1,-1,0,-1,1,5,-4
1532061750451,-1,-1,-2,-1,-2,-1,14,7
1532061750456,-4,-1,-1,0,0,-2,-29,-18
1532061750461,0,0,-2,0,1,1,2,-1
1532061750466,-1,-1,-3,-1,-1,-2,1,-1
1532061750471,-1,0,-1,-3,-2,0,-1,-3
1532061750476,0,-2,0,-1,-1,1,10,4
1532061750481,-2,-2,1,-1,0,-1,-3,-1
1532061750486,-2,0,1,-1,-1,1,2,-2
1532061750491,0,0,2,-1,-2,1,-5,0
1532061750496,-1,0,-1,-2,-1,0,6,3
1532061750501,-2,0,0,-3,-1,-1,-5,-1
1532061750506,-2,2,0,-2,-1,0,0,2
1532061750511,-1,-1,1,-1,-2,0,-3,-3
1532061750516,-1,0,-1,-2,-1,0,-1,1
1532061750521,0,-1,0,0,0,-2,-3,-4
1532061750526,-1,-2,0,0,-1,-1,4,1
1532061750531,0,-3,1,-1,1,0,-5,-2
1532061750536,0,-2,-1,0,1,-1,1,0
1532061750541,-2,-1,0,-1,-2,-1,-2,-1
1532061750546,-1,0,-1,-1,-2,0,0,1
1532061750551,0,0,1,0,-1,-1,-5,-2
1532061750556,0,0,0,1,-1,-3,1,2
1532061750561,-1,-1,0,-2,0,-2,1,-1
1532061750566,0,-1,1,0,0,-1,-1,-2
1532061750571,-2,-1,-1,-2,-1,-4,-2,-2
1532061750576,-1,0,-1,-3,-2,-2,1,0
1532061750581,-2,-2,-2,0,-3,-5,-9,0
1532061750586,0,-1,-1,0,-2,-2,-3,-2
1532061750591,-2,-1,-1,-1,-3,-1,-5,1
1532061750596,0,-2,0,-1,-3,0,6,1
1532061750601,1,-1,1,-1,-1,-1,-1,-2
1532061750606,-1,-1,0,-2,-1,-1,-1,0
1532061750611,-1,0,-2,0,0,-1,0,-1
1532061750616,-1,1,-1,-1,0,-1,1,0
1532061750621,-1,-2,1,-1,-2,0,2,2
1532061750626,0,0,-2,0,0,-2,0,0
1532061750631,1,-1,-1,-1,0,-1,-2,0
1532061750636,-2,1,1,-1,0,-1,-1,-2
1532061750641,0,0,-1,1,0,-1,2,0
1532061750646,0,-1,0,-2,-2,-1,-2,-2
1532061750651,0,-1,0,-2,-1,0,-3,-2
1532061750656,0,-1,1,-1,-2,-1,-1,-2
1532061750661,1,0,-2,0,1,0,-1,-3
1532061750666,-1,0,-1,-3,0,0,2,-1
1532061750671,1,-2,-2,-2,-1,-1,0,-1
1532061750676,-1,-2,-2,-1,0,0,-2,-3
1532061750681,-1,-1,-2,-1,0,0,-1,-2
1532061750686,-1,0,0,0,1,1,-1,0
1532061750691,-2,0,0,-1,0,0,1,-2
1532061750696,0,-1,0,-1,-2,1,-1,0
1532061750701,0,-1,-1,-1,-1,0,0,0
1532061750706,-1,-3,-3,-1,0,-3,-2,-1
1532061750711,0,0,-1,1,-2,-1,-2,-2
1532061750716,0,0,-1,-1,-1,-1,-3,-2
1532061750721,-2,0,-1,-1,-1,1,-1,-2
1532061750726,-2,-1,0,-4,-1,-1,0,0
1532061750731,-1,-2,-1,-1,-1,-1,-1,-1
1532061750736,0,-2,0,7,-2,0,-3,-1
1532061750741,1,0,-3,-3,-2,0,-1,-1
1532061750746,0,1,-2,0,0,1,-1,-3
1532061750751,-1,0,0,-9,0,0,1,-1
1532061750756,-2,-1,0,7,-2,-1,-1,-1
1532061750761,-1,-1,1,3,2,0,1,1
1532061750766,-1,-2,-1,3,-1,-2,0,-1
1532061750771,-1,-1,-1,-3,1,-2,0,-1
1532061750776,-1,-1,-2,-8,-2,-2,-1,-1
1532061750781,-2,-2,-1,0,-1,-2,-1,-1
1532061750786,1,-1,-1,0,-1,-1,-2,-2
1532061750791,0,-2,-1,-1,1,0,-1,0
1532061750796,-1,-2,-1,0,2,-2,-2,-2
1532061750801,-1,-2,-1,-2,0,-2,-3,-1
1532061750806,0,0,0,-2,-3,0,0,0
1532061750811,-2,2,-1,4,-1,0,0,-2
1532061750816,1,0,0,-4,-1,1,0,0
1532061750821,-1,-1,-1,-2,-1,-1,-2,-1
1532061750826,1,0,1,-2,0,0,-2,-2
1532061750831,-1,-1,-1,3,0,0,-1,-3
1532061750836,-1,-1,-2,-2,2,-1,0,0
1532061750841,0,1,0,-1,0,0,0,0
1532061750846,-1,-1,-1,2,0,-1,2,0
1532061750851,-1,1,-2,-1,-1,2,-1,1
1532061750856,0,0,0,-3,-2,-1,26,1
1532061750861,-1,-2,-2,-1,-2,-7,-42,-8
1532061750866,-2,-1,-1,0,0,-3,-3,-8
1532061750871,1,-2,-1,0,-1,0,-13,1
1532061750876,-2,-1,-1,-1,0,-2,12,-1
1532061750881,-2,-2,0,-1,-1,3,12,4
1532061750886,3,1,1,-1,-3,-4,-10,0
1532061750891,-1,-2,-1,0,-1,-1,-1,-1
1532061750896,0,0,-2,0,1,-1,-8,0
1532061750901,-1,1,0,-2,1,-1,8,-1
1532061750906,-2,-2,0,-2,-2,1,-3,2
1532061750911,0,0,0,-1,-3,-2,7,1
1532061750916,-2,1,-3,-1,-2,-1,-10,-1
1532061750921,0,1,-1,1,2,1,5,0
1532061750926,-1,-2,-2,0,-1,-1,3,-2
1532061750931,-1,0,1,-2,1,-2,-1,-1
1532061750936,0,-1,-1,-1,-1,-1,-4,-1
1532061750941,0,-2,-2,-2,-2,-1,0,-1
1532061750946,-1,-1,-3,-1,-2,-1,1,1
1532061750951,-1,-2,-3,1,3,1,1,-1
1532061750956,-1,1,2,-2,-5,-1,-8,-2
1532061750961,1,2,0,4,12,1,3,-1
1532061750966,0,-1,0,-1,-2,0,0,0
1532061750971,-1,-1,-1,-4,-1,-1,0,-2
1532061750976,1,-1,2,-1,-8,-3,-3,-3
1532061750981,-2,-3,-4,8,20,-3,0,-1
1532061750986,-1,-2,-3,-9,-10,8,4,0
1532061750991,2,0,-2,2,15,-4,-3,-2
1532061750996,0,-3,-8,-2,2,6,-2,1
1532061751001,4,12,17,2,-7,-3,6,2
1532061751006,-10,-21,-12,-17,-24,-4,-7,-5
1532061751011,1,6,6,8,-7,3,2,3
1532061751016,3,7,11,10,21,0,-1,-1
1532061751021,-2,-7,-13,21,29,4,1,-4
1532061751026,3,6,7,-24,-1,-6,1,-1
1532061751031,0,-6,-19,12,-30,-4,-2,-2
1532061751036,-5,-1,19,-14,-38,-2,-4,3
1532061751041,-5,-3,-15,-10,-5,-4,-7,-4
1532061751046,5,13,13,35,35,-3,2,2
1532061751051,1,-4,-1,4,15,9,6,2
1532061751056,0,4,-7,14,14,-4,1,-4
1532061751061,-2,-9,6,-43,-48,3,6,1
1532061751066,2,6,-1,13,11,-4,-5,-3
1532061751071,1,3,9,35,32,-5,-4,-3
1532061751076,-4,-9,-23,-46,-39,-6,0,-4
1532061751081,2,4,2,12,6,0,2,3
1532061751086,-1,-8,-13,-24,-10,-4,-3,-1
1532061751091,0,1,0,-9,-12,-6,-1,-1
1532061751096,-2,-8,-4,-8,7,0,0,-7
1532061751101,2,4,3,17,2,0,1,6
1532061751106,-5,-8,1,-1,7,-7,-17,-6
1532061751111,0,1,5,17,3,-3,8,1
1532061751116,-4,-8,-10,-37,-10,-9,-15,-4
1532061751121,-1,0,-1,6,9,-3,9,-3
1532061751126,0,0,0,5,-16,-2,10,3
1532061751131,-1,0,4,-23,-12,-1,-8,-4
1532061751136,0,2,2,24,17,2,10,5
1532061751141,0,-2,15,-4,0,1,-4,2
1532061751146,-1,3,14,11,18,7,0,2
1532061751151,-4,-3,5,-15,-18,1,-3,-4
1532061751156,1,5,17,12,20,3,0,-2
1532061751161,-1,-4,10,-1,-8,-1,-6,-2
1532061751166,-3,-1,7,2,-7,5,0,-2
1532061751171,-2,0,4,1,2,7,4,-2
1532061751176,-1,-2,4,2,-10,-3,-6,-3
1532061751181,-1,2,-5,-19,-28,0,3,0
1532061751186,-3,-4,-6,7,-1,0,1,-2
1532061751191,-1,-1,-12,0,6,2,-1,-3
1532061751196,1,4,-11,16,12,6,-2,-1
1532061751201,-3,-2,-8,-10,9,0,-5,-6
1532061751206,-3,-1,-7,15,7,1,1,-1
1532061751211,-2,-2,-12,-28,-22,-1,-3,0
1532061751216,-1,3,1,12,2,1,-2,1
1532061751221,0,-3,-7,-7,-9,-1,-2,-2
1532061751226,3,5,-6,-5,5,5,2,2
1532061751231,0,-1,0,2,2,2,-2,1
1532061751236,1,1,-6,3,15,9,3,1
1532061751241,1,-2,-8,0,-5,-3,-2,0
1532061751246,2,-2,-7,-10,-25,-3,-1,3
1532061751251,2,-1,-3,3,-2,-4,-1,2
1532061751256,3,-3,-9,-17,-12,-1,0,0
1532061751261,3,1,-5,9,11,1,-1,1
1532061751266,3,1,-2,-1,2,0,-1,2
1532061751271,2,5,3,-8,1,-2,1,2
1532061751276,-2,-3,-2,1,3,-2,-1,0
1532061751281,-2,0,1,5,3,-5,-2,-1
1532061751286,-2,-2,-2,-4,-2,-6,0,0
1532061751291,-3,-2,-1,-15,-2,-7,-2,-2
1532061751296,-1,1,0,9,-1,-6,0,-2
1532061751301,-3,-1,-3,-5,-6,-4,1,-2
1532061751306,-2,2,2,6,-1,-2,2,0
1532061751311,-4,1,0,0,6,-3,1,-1
1532061751316,-1,-3,0,-2,-4,-3,-1,1
1532061751321,0,-2,0,-3,-2,-2,0,1
1532061751326,1,4,-1,-9,3,1,0,2
1532061751331,-2,-7,5,2,-5,-3,-2,2
1532061751336,-2,0,2,-1,-3,0,0,0
1532061751341,-1,3,5,-5,-1,-1,0,1
1532061751346,1,2,-4,-7,3,-1,2,0
1532061751351,-2,5,-12,16,4,-4,-3,-3
1532061751356,-1,-1,16,1,-11,1,1,1
1532061751361,-1,-3,2,4,-5,-4,-1,-1
1532061751366,-2,-1,8,-2,-4,1,-3,-2
1532061751371,1,-1,-11,-15,-5,-1,-1,-1
1532061751376,-1,-3,-4,-5,-1,-4,-2,-2
1532061751381,0,-1,-4,12,14,1,-1,-4
1532061751386,-3,-8,-1,-25,-52,-13,-2,1
1532061751391,1,-2,4,-3,2,-1,-2,1
1532061751396,-1,-1,-2,3,-5,-4,-2,-1
1532061751401,0,0,-4,-5,9,-1,-4,-1
1532061751406,0,0,-3,2,10,1,-5,-3
1532061751411,-6,-18,-5,0,-9,3,3,-2
1532061751416,1,1,-5,-10,11,10,5,2
1532061751421,-1,0,-5,18,16,4,1,0
1532061751426,0,7,5,25,19,4,2,-1
1532061751431,-5,-5,-8,-33,-38,-15,-5,-5
1532061751436,1,2,-3,13,15,-1,-2,-3
1532061751441,-1,-1,-15,-33,-41,-3,2,2
1532061751446,-8,-19,-6,0,-6,-4,-1,-2
1532061751451,0,5,11,21,17,5,1,1
1532061751456,-1,-5,-1,10,32,-9,-7,-3
1532061751461,2,5,7,10,-13,-1,-1,-1
1532061751466,2,1,-3,-3,5,0,3,-2
1532061751471,3,2,0,-1,12,19,6,2
1532061751476,-1,2,0,-12,-4,-1,2,0
1532061751481,-4,-7,-2,1,7,-5,-7,-4
1532061751486,-1,0,-4,-3,-15,-11,-4,-2
1532061751491,2,3,3,-4,5,-6,-5,-4
1532061751496,-2,-1,-2,7,0,4,2,1
1532061751501,1,-1,0,2,3,7,5,1
1532061751506,1,2,-6,-3,6,6,3,1
1532061751511,1,1,4,4,8,-2,-1,1
1532061751516,-1,-2,-4,-8,-18,-5,-4,0
1532061751521,-1,-2,1,-5,-2,-4,-3,-1
1532061751526,-1,-2,1,2,2,-1,-2,0
1532061751531,0,1,1,-3,-2,-6,-2,0
1532061751536,0,-2,-1,-16,-5,3,-1,0
1532061751541,-2,-5,-5,20,4,-6,-2,-2
1532061751546,-1,-1,-1,-13,-6,1,-1,-3
1532061751551,-2,-2,0,-10,-22,-2,0,1
1532061751556,-2,0,2,8,22,-4,-1,-1
1532061751561,-2,1,-1,-1,-17,7,1,0
1532061751566,0,-2,-4,-4,-10,0,-1,-1
1532061751571,1,2,0,15,14,1,0,1
1532061751576,-1,-3,-5,-14,-14,-4,-1,-3
1532061751581,0,1,3,11,30,1,0,1
1532061751586,-1,0,-1,0,-1,-4,-2,-2
1532061751591,-1,-2,-2,0,-20,-3,-1,-1
1532061751596,-1,-1,-1,-7,-25,-3,0,-1
1532061751601,-2,1,2,0,15,6,0,2
1532061751606,0,-1,0,-1,-1,2,0,-1
1532061751611,1,0,3,5,19,2,0,-2
1532061751616,-1,-1,0,1,0,-6,-1,-1
1532061751621,-2,-5,-2,-14,-21,-8,-4,-4
1532061751626,1,3,5,8,10,2,2,1
1532061751631,0,-3,-5,-4,9,-2,-2,-3
1532061751636,0,-1,0,9,-1,2,0,0
1532061751641,-1,-1,-2,-13,-11,-4,0,0
1532061751646,0,2,-1,7,13,0,-1,-1
1532061751651,0,3,0,-5,1,0,1,-1
1532061751656,-1,1,-1,0,-12,1,0,-2
1532061751661,-1,2,0,0,2,0,1,1
1532061751666,1,1,5,10,9,0,-1,-1
1532061751671,-3,-5,-9,-13,-13,-3,0,-1
1532061751676,1,0,-1,3,2,3,0,0
1532061751681,1,-1,0,-2,4,-3,-3,-1
1532061751686,-3,-7,-10,-6,-7,-3,-3,-3
1532061751691,0,2,3,2,-2,1,-2,-3
1532061751696,2,0,-1,5,7,3,2,2
1532061751701,0,-1,-2,-6,-5,-4,-2,-2
1532061751706,-3,-4,-3,-5,0,0,-1,0
1532061751711,-1,0,2,3,4,1,-1,-1
1532061751716,-1,-2,-3,-7,-10,-4,-3,-2
1532061751721,6,4,-2,-9,-16,-1,-1,1
1532061751726,3,30,2,-1,5,3,-2,3
1532061751731,-5,-2,-1,1,9,1,0,-4
1532061751736,-9,-43,-4,3,2,-2,-2,-7
1532061751741,-2,-21,0,1,-4,1,-1,-3
1532061751746,-6,20,3,-3,0,-1,-3,-2
1532061751751,-9,-45,-4,-1,-3,-2,-2,-3
1532061751756,2,19,3,1,2,0,-1,1
1532061751761,0,1,1,-2,2,-3,-1,0
1532061751766,7,16,5,1,0,1,1,2
1532061751771,3,22,5,5,5,3,4,6
1532061751776,0,3,1,3,0,0,0,0
1532061751781,-1,1,-4,-2,2,-1,-1,-2
1532061751786,-3,-17,-2,-4,-3,-3,-1,-2
1532061751791,0,3,-4,-6,-10,-6,-2,1
1532061751796,-3,-9,-6,-2,-4,0,-1,-3
1532061751801,0,16,1,0,0,1,0,0
1532061751806,-3,-11,-2,5,5,2,3,-1
1532061751811,0,-3,-3,-1,0,0,-1,-1
1532061751816,3,16,3,4,7,1,0,1
1532061751821,-3,9,0,-8,-7,3,0,-1
1532061751826,-3,-1,0,-7,-12,-5,-2,-1
1532061751831,-8,-31,-8,2,-2,-3,-2,-4
1532061751836,-1,5,1,-2,-2,-1,-2,1
1532061751841,4,2,0,5,8,2,-1,2
1532061751846,4,25,6,0,3,1,0,2
1532061751851,-7,-30,1,-5,-6,-4,-1,-4
1532061751856,-4,-11,0,-3,-2,-2,-2,-1
1532061751861,2,-8,1,6,8,3,2,0
1532061751866,5,18,-4,-12,-11,-4,-2,1
1532061751871,-4,-4,2,-1,-1,0,-1,-1
1532061751876,-4,-11,-5,-1,-1,-2,-1,-3
1532061751881,-4,-7,-4,-2,-7,-3,-3,-4
1532061751886,1,-12,1,6,10,2,3,1
1532061751891,3,13,-4,-11,-8,-1,-1,0
1532061751896,1,3,0,-1,-1,0,3,2
1532061751901,-2,1,-1,-4,0,-3,-2,-1
1532061751906,1,-10,-4,-4,-3,-1,-2,-1
1532061751911,4,35,-2,3,4,1,-1,2
1532061751916,-7,-36,-3,-3,-6,-1,-2,-1
1532061751921,-3,17,2,-3,-4,-4,0,1
1532061751926,-14,-52,-7,-4,-2,-2,-2,-4
1532061751931,2,28,3,3,3,0,0,0
1532061751936,-3,3,2,10,6,0,-3,-2
1532061751941,-1,3,-2,-13,-11,-4,-3,-2
1532061751946,3,-3,2,1,7,-1,-1,1
1532061751951,5,24,1,4,1,0,-3,-1
1532061751956,3,0,-2,-1,-11,-3,1,0
1532061751961,14,30,2,4,6,3,0,5
1532061751966,-2,18,13,7,1,2,-1,-1
1532061751971,-15,-86,-18,-6,-2,-3,0,-9
1532061751976,-2,21,-1,-4,2,0,-1,-1
1532061751981,-6,-42,5,5,2,0,0,-6
1532061751986,12,17,-14,-8,-7,-5,-3,1
1532061751991,8,78,22,7,5,3,1,7
1532061751996,-12,-106,-23,0,2,-1,-2,-8
1532061752001,8,105,10,-1,-2,1,3,3
1532061752006,-24,-105,-9,-1,-1,-1,-3,-9
1532061752011,6,16,1,0,-2,-1,-4,1
1532061752016,5,26,-2,-8,-5,-1,1,1
1532061752021,3,-11,0,8,26,2,-2,0
1532061752026,9,76,5,21,80,-3,-1,0
1532061752031,-20,-82,2,0,-38,13,-1,-7
1532061752036,-2,2,1,-32,-44,-19,-3,2
1532061752041,-4,-13,-3,0,3,-3,-1,-2
1532061752046,7,15,-1,-3,-5,1,2,3
1532061752051,14,44,10,18,42,4,3,8
1532061752056,7,48,8,10,16,7,3,6
1532061752061,-30,-111,-17,-5,-17,-4,-3,-12
1532061752066,3,12,5,3,-5,3,2,4
1532061752071,11,20,-5,2,16,-4,4,10
1532061752076,-2,14,2,3,6,4,-8,-17
1532061752081,-11,-3,-10,-29,-57,-18,-11,-11
1532061752086,-3,-16,-7,-5,-19,-3,-4,-7
1532061752091,13,88,1,-8,-13,-4,1,8
1532061752096,-17,-69,0,6,15,-2,4,5
1532061752101,-4,-18,-15,11,28,5,0,-1
1532061752106,-5,10,3,-5,-19,0,0,-2
1532061752111,2,-6,-2,0,-2,-5,-1,3
1532061752116,24,89,14,6,17,4,3,7
1532061752121,10,58,11,0,1,3,5,11
1532061752126,-29,-104,-23,1,7,-4,-5,-13
1532061752131,-1,6,-3,-3,-2,2,-5,-14
1532061752136,-4,-8,-2,6,-2,-1,-2,-3
1532061752141,9,13,2,-5,-7,0,1,5
1532061752146,15,49,7,-3,-6,1,0,6
1532061752151,-8,-29,5,4,13,-1,-5,-8
1532061752156,-4,-6,-8,-5,-8,-3,-5,-6
1532061752161,13,11,4,9,9,5,8,12
1532061752166,3,20,8,0,2,1,0,6
1532061752171,-14,-49,-9,-4,-7,-6,-7,-14
1532061752176,-4,-10,-2,-3,-8,-1,-1,-4
1532061752181,7,23,8,26,31,11,7,-3
1532061752186,27,62,8,-26,-31,-9,2,30
1532061752191,-36,-65,-16,-16,-15,-16,-27,-28
1532061752196,-9,-28,-25,-1,2,-5,-5,-11
1532061752201,-9,-15,1,4,7,-3,-7,-8
1532061752206,5,10,0,7,1,6,3,-10
1532061752211,19,57,10,-2,-2,4,12,24
1532061752216,7,22,8,-1,7,2,0,8
1532061752221,-17,-38,-14,-3,-3,-3,-7,-11
1532061752226,-3,-5,-5,-3,-7,0,5,-2
1532061752231,1,-5,-4,-11,-4,-4,3,1
1532061752236,-3,-8,-2,1,1,2,3,-1
1532061752241,5,7,1,-4,-5,0,5,9
1532061752246,-7,-7,3,2,0,0,-3,-4
1532061752251,0,-14,-3,6,8,1,3,-4
1532061752256,8,26,4,2,-1,2,-1,-1
1532061752261,-4,-9,3,-8,-7,-3,-4,-4
1532061752266,-10,-12,-1,8,4,-1,-4,-10
1532061752271,-3,-31,-7,0,-2,-1,3,4
1532061752276,14,53,10,-4,-3,4,9,16
1532061752281,-12,-41,-7,-5,-4,-7,-13,-19
1532061752286,-11,-25,-7,0,-2,-3,-7,-15
1532061752291,11,37,3,1,-3,-1,5,9
1532061752296,-6,-37,-6,-3,-1,-1,-5,-4
1532061752301,2,14,3,0,3,4,2,3
1532061752306,4,-2,0,4,4,5,4,7
1532061752311,4,10,0,0,-2,-1,-2,1
1532061752316,3,16,3,-1,-2,-2,2,7
1532061752321,-1,-3,-1,-1,-1,-4,0,3
1532061752326,-4,-11,-4,-1,-2,1,0,-1
1532061752331,1,3,4,1,1,2,0,3
1532061752336,-4,-2,0,0,5,5,2,-4
1532061752341,-3,-5,-1,-2,-4,-3,-2,-1
1532061752346,-2,4,0,-1,0,-2,1,-2
1532061752351,-4,-5,3,2,1,-1,0,-1
1532061752356,-2,-1,1,-5,-1,-2,-3,-2
1532061752361,5,8,1,1,-1,0,2,6
1532061752366,-6,-1,1,1,0,-2,-4,-10
1532061752371,-1,-4,-1,-1,-1,0,-1,-6
1532061752376,-4,-5,0,2,0,-1,0,-4
1532061752381,1,6,-2,-4,0,0,2,2
1532061752386,0,-5,-2,14,2,-1,-2,0
1532061752391,-1,-3,1,-2,-3,2,0,1
1532061752396,2,4,3,-7,0,-2,-2,-2
1532061752401,3,6,5,1,10,4,1,1
1532061752406,0,-3,0,23,-4,-2,-1,-2
1532061752411,-8,-11,-23,-34,-24,-14,-6,-8
1532061752416,-2,-2,2,-5,-8,3,-2,4
1532061752421,-1,2,2,11,5,3,1,1
1532061752426,3,2,0,-25,10,6,2,1
1532061752431,8,10,12,21,14,8,3,5
1532061752436,-4,-2,-1,53,0,-4,23,-3
1532061752441,-3,-12,-6,-32,-12,-6,-26,2
1532061752446,6,-2,-4,-19,-23,-4,-6,2
1532061752451,9,-2,5,27,6,2,22,43
1532061752456,13,18,7,-12,19,5,-22,-18
1532061752461,-45,-19,-4,44,-6,-1,21,0
1532061752466,32,-4,-6,7,9,-3,-26,25
1532061752471,-23,7,-10,-102,-7,-2,-7,-58
1532061752476,-6,-10,-1,15,-33,-9,-5,-2
1532061752481,13,6,0,12,3,0,-1,-7
1532061752486,-9,-1,7,7,-12,-1,18,14
1532061752491,11,2,11,39,30,6,6,18
1532061752496,6,12,11,35,30,8,2,9
1532061752501,-4,-4,-20,-31,-15,-5,-10,-15
1532061752506,-16,-18,-25,-88,-35,-13,10,-21
1532061752511,8,0,1,-12,-3,4,-8,2
1532061752516,-6,2,-4,-2,1,-2,-9,-12
1532061752521,11,3,11,38,-7,1,-35,21
1532061752526,8,11,13,73,41,6,16,66
1532061752531,-7,-10,-10,-4,-23,-6,6,-42
1532061752536,-10,-12,-10,-40,-13,-9,-7,13
1532061752541,10,8,5,-16,18,5,13,-9
1532061752546,3,12,2,-36,29,8,-5,-5
1532061752551,-9,-12,-9,43,-26,-7,0,5
1532061752556,5,10,9,22,-22,-3,2,16
1532061752561,-11,2,14,0,12,4,5,-8
1532061752566,-8,5,12,-6,0,1,7,-39
1532061752571,-3,-6,7,0,9,2,-10,6
1532061752576,8,0,-6,20,6,-1,-8,-13
1532061752581,-23,1,-8,4,-10,-3,21,8
1532061752586,7,7,25,49,4,9,32,-4
1532061752591,-16,20,24,43,54,5,-38,-19
1532061752596,-14,-22,-49,-73,-39,-17,-29,9
1532061752601,9,1,6,31,-2,0,-23,-14
1532061752606,-6,-18,-6,88,-20,-10,-4,-4
1532061752611,8,0,3,3,1,2,6,9
1532061752616,12,14,18,21,35,10,19,34
1532061752621,5,16,-2,0,31,8,34,-16
1532061752626,-18,-26,-57,-91,-79,-27,-48,-30
1532061752631,7,-7,-3,55,-5,-3,7,9
1532061752636,-8,-4,7,12,10,5,10,-4
1532061752641,15,-13,-9,-12,-2,-2,7,11
1532061752646,-2,17,-1,-18,7,4,6,2
1532061752651,8,40,31,-34,-14,-3,-6,-8
1532061752656,-12,-29,28,-39,17,8,13,-8
1532061752661,19,4,5,38,-20,-7,28,19
1532061752666,-23,-5,23,2,20,8,-36,2
1532061752671,-1,-8,-15,-24,3,0,-11,1
1532061752676,-2,6,-8,35,-4,-5,1,-13
1532061752681,6,1,-11,-38,-6,-3,-11,0
1532061752686,8,14,1,37,15,3,10,2
1532061752691,-2,-6,-37,-94,-22,-4,12,6
1532061752696,4,10,1,35,16,6,-6,-7
1532061752701,-19,-26,-9,44,-17,-4,36,3
1532061752706,12,-4,-4,63,5,-8,-29,-12
1532061752711,-4,-9,-1,-4,-12,-9,-8,6
1532061752716,10,11,8,-47,5,1,-31,-10
1532061752721,0,4,1,-25,3,0,4,-4
1532061752726,-2,-5,3,-11,1,5,6,-2
1532061752731,7,2,10,23,21,10,9,6
1532061752736,-10,-24,-54,-72,-41,-16,11,-4
1532061752741,3,4,16,18,2,0,-18,2
1532061752746,0,4,10,-13,2,3,7,3
1532061752751,1,12,-6,20,-1,-1,-5,-4
1532061752756,-6,-13,7,3,3,3,12,2
1532061752761,2,5,-2,-38,4,3,-21,-3
1532061752766,-5,-12,-17,-68,-17,-5,10,-8
1532061752771,-2,-4,5,47,4,-1,0,4
1532061752776,3,7,5,7,5,4,3,1
1532061752781,0,-4,-7,16,-17,-9,-10,-5
1532061752786,0,3,1,-4,11,0,6,3
1532061752791,1,-3,-3,-28,-3,0,-12,5
1532061752796,3,7,2,7,4,4,10,3
1532061752801,-6,-8,-20,-49,5,-1,-11,-13
1532061752806,-11,-10,5,75,-19,-5,11,2
1532061752811,-2,-10,-2,17,-2,-2,-4,1
1532061752816,5,8,14,33,12,4,-2,2
1532061752821,5,16,15,-22,15,7,5,7
1532061752826,-6,-16,-28,-45,-11,-7,-13,-14
1532061752831,-4,-11,-6,25,1,-2,-1,-6
1532061752836,-3,-3,-11,-57,-25,-8,-1,-2
1532061752841,-5,1,10,62,3,-6,-17,-5
1532061752846,4,6,15,-3,13,6,7,2
1532061752851,1,2,5,21,7,6,5,-7
1532061752856,-3,2,6,17,1,-3,-15,7
1532061752861,1,-9,-18,-47,-32,-7,-8,2
1532061752866,3,5,8,14,7,1,-2,-1
1532061752871,-4,-9,-6,-29,4,3,2,-6
1532061752876,-1,2,2,17,-2,-1,2,-6
1532061752881,-2,-4,7,35,14,7,4,5
1532061752886,5,8,1,-30,8,5,-2,7
1532061752891,-3,-9,-8,-19,-27,-10,2,4
1532061752896,0,-1,-4,31,2,0,11,-1
1532061752901,-2,-7,2,31,-1,-5,-14,-2
1532061752906,1,2,-2,-11,14,5,6,1
1532061752911,0,-3,2,-7,4,-2,5,7
1532061752916,-11,-23,-44,-75,-51,-15,-3,-8
1532061752921,3,6,9,58,26,4,14,3
1532061752926,-1,1,-26,-21,-22,-6,-8,1
1532061752931,-1,-5,-5,9,-1,-4,-2,1
1532061752936,3,4,22,-7,25,2,-3,-3
1532061752941,1,3,5,-21,-18,3,23,0
1532061752946,10,0,-2,-6,-1,-4,-46,-7
1532061752951,-34,-6,-9,-18,-3,1,2,-14
1532061752956,-6,3,-3,5,-2,-3,-10,-1
1532061752961,-4,1,-9,-17,-1,-4,-6,-1
1532061752966,10,5,25,40,21,7,20,7
1532061752971,12,2,-4,-5,-14,-2,2,8
1532061752976,-3,2,5,66,38,14,10,-21
1532061752981,-24,-19,-24,-52,-21,-9,-13,-7
1532061752986,12,-1,-8,-9,-2,0,3,-3
1532061752991,-1,22,33,25,14,5,0,6
1532061752996,11,51,-12,13,-8,-5,5,5
1532061753001,7,-14,9,-7,5,2,-2,4
1532061753006,-5,5,18,6,15,8,12,-1
1532061753011,-4,-9,-5,60,-8,-6,0,-2
1532061753016,7,5,1,4,-5,-3,0,3
1532061753021,1,9,0,-14,0,-1,-6,-4
1532061753026,-11,-16,-3,-13,-4,-3,-1,1
1532061753031,6,1,-5,0,6,1,5,3
1532061753036,0,-28,11,-10,-9,-1,-4,-4
1532061753041,15,1,-4,5,4,0,-2,5
1532061753046,-4,14,12,31,-4,-4,3,-7
1532061753051,-31,-6,-45,-47,-4,-2,-1,-1
1532061753056,27,-15,-6,9,-5,-7,-8,2
1532061753061,1,36,11,-3,9,7,2,4
1532061753066,2,1,12,4,-2,0,2,1
1532061753071,4,-4,26,-10,-1,2,-1,1
1532061753076,-17,17,15,27,7,-1,-4,-2
1532061753081,32,12,-30,-32,-4,-2,-1,10
1532061753086,32,6,0,-11,-5,-4,0,5
1532061753091,-80,-19,17,8,5,3,-2,-27
1532061753096,-7,-26,-40,-20,-15,-4,-1,-4
1532061753101,-2,-5,7,14,2,-1,-4,-8
1532061753106,-7,-5,-31,-33,-14,-4,0,-3
1532061753111,28,-4,5,4,3,0,-1,8
1532061753116,-3,-5,-3,-25,-2,0,0,-1
1532061753121,-23,-8,24,26,1,-2,0,-4
1532061753126,-17,-7,5,35,8,-1,-1,0
1532061753131,28,25,-34,-8,1,-4,1,2
1532061753136,-6,-7,-8,-17,-9,3,1,3
1532061753141,5,-19,25,3,4,2,0,2
1532061753146,-19,-18,-3,-30,-11,-7,-2,-5
1532061753151,14,-2,-23,-9,-7,-6,-1,1
1532061753156,15,44,-20,5,0,-7,-1,5
1532061753161,-9,-14,-8,0,8,4,1,-5
1532061753166,-3,7,-23,-6,0,-2,-1,-5
1532061753171,4,-8,40,24,5,6,2,3
1532061753176,-2,-2,-9,-16,-1,-5,-2,3
1532061753181,-19,-10,-13,3,-7,-3,-4,-11
1532061753186,-8,-18,11,5,5,3,0,-1
1532061753191,19,2,-13,-13,-10,-2,-3,1
1532061753196,-19,-2,46,29,10,8,3,4
1532061753201,34,18,-7,-9,-8,-6,-4,6
1532061753206,-16,26,21,0,6,3,-2,-11
1532061753211,4,-25,-51,-32,-8,-3,-1,0
1532061753216,-14,-16,73,67,0,-1,1,-5
1532061753221,-9,6,16,-3,5,2,1,0
1532061753226,39,43,-23,2,0,1,0,12
1532061753231,-16,-15,78,6,3,1,1,-5
1532061753236,9,-4,-18,-40,-7,0,-2,-4
1532061753241,-3,-4,-2,26,0,-4,-3,-3
1532061753246,5,-13,-14,13,4,0,3,2
1532061753251,5,10,-9,-5,-3,-1,-2,-1
1532061753256,6,-14,-9,-7,4,2,0,0
1532061753261,-3,15,23,3,-1,0,-2,-1
1532061753266,-1,-6,-26,-22,-11,-7,-4,-2
1532061753271,7,4,9,12,3,-1,-2,-1
1532061753276,-11,-2,8,1,1,0,-1,-1
1532061753281,1,-1,-31,-23,-8,-2,-3,-1
1532061753286,-12,-10,15,9,1,0,1,-2
1532061753291,3,-3,-14,2,-4,-4,0,0
1532061753296,9,10,2,4,5,2,2,0
1532061753301,-6,-12,-6,-15,-7,-3,-2,-2
1532061753306,0,-6,-5,3,2,0,3,-1
1532061753311,3,7,22,9,-5,-6,-2,0
1532061753316,0,-10,-17,-11,-1,0,5,-2
1532061753321,-7,-8,-4,-6,2,6,4,-1
1532061753326,-8,-8,11,10,3,1,2,1
1532061753331,3,0,-20,-8,-2,-3,-7,-4
1532061753336,-3,0,-5,1,0,-4,-3,-3
1532061753341,-4,-9,-3,-6,-7,-4,-4,-5
1532061753346,-4,-7,4,5,-1,2,5,3
1532061753351,4,9,-15,-4,3,1,2,3
1532061753356,4,6,13,10,2,0,1,4
1532061753361,-4,8,9,-30,-2,-1,-2,-1
1532061753366,-2,-4,-27,13,-8,-4,-9,-4
1532061753371,-6,-22,-31,-14,-1,0,-5,1
1532061753376,-1,-2,-8,-6,0,0,-7,-1
1532061753381,5,4,-11,0,2,0,-6,-1
1532061753386,-5,0,13,-16,-1,-2,-5,-4
1532061753391,0,6,4,19,1,2,0,3
1532061753396,1,1,-5,-3,0,1,-1,-3
1532061753401,-1,-12,-3,3,-3,-2,-1,1
1532061753406,2,-1,10,-9,-2,-2,-1,1
1532061753411,0,0,5,-15,0,1,-3,-11
1532061753416,2,-3,-2,21,6,0,0,5
1532061753421,-1,0,0,-16,-5,-4,-1,-1
1532061753426,0,-1,0,8,-4,-2,-1,2
1532061753431,2,3,0,-13,-5,-1,-1,-1
1532061753436,0,1,2,-8,-2,2,1,-1
1532061753441,-2,-1,-7,14,4,0,-1,-2
1532061753446,-6,-5,2,-12,-3,-1,-1,-3
1532061753451,2,0,5,6,4,3,5,-1
1532061753456,-1,-3,0,8,-3,-2,4,-2
1532061753461,2,-1,-3,-11,-5,-1,4,1
1532061753466,-3,-4,-3,-2,0,1,-4,-1
1532061753471,3,9,9,7,2,-1,-2,2
1532061753476,-8,-13,-1,-10,0,-2,-2,-1
1532061753481,10,33,-28,-6,-9,-4,-2,-6
1532061753486,-9,-15,8,7,8,4,5,0
1532061753491,1,-1,0,-3,-2,-2,-2,1
1532061753496,-1,2,1,0,-3,-2,-4,-1
1532061753501,1,-4,1,-1,1,-3,-4,-2
1532061753506,0,0,3,7,-1,-1,0,-3
1532061753511,-3,-1,0,46,5,0,2,1
1532061753516,0,0,-9,-21,0,-1,-3,-3
1532061753521,-3,-8,1,12,2,0,-4,0
1532061753526,2,4,-4,-7,-2,-3,-3,-1
1532061753531,-1,-5,3,-10,-3,1,-2,0
1532061753536,0,3,3,5,1,2,0,2
1532061753541,-4,-9,3,-1,-2,-1,-2,2
1532061753546,-2,-4,0,2,1,-1,-2,-5
1532061753551,0,5,2,0,0,-3,-3,-6
1532061753556,-2,-3,-4,-15,-6,-2,-1,-3
1532061753561,-3,-4,3,1,2,1,2,0
1532061753566,1,2,-4,-7,2,-2,-1,-1
1532061753571,1,1,3,5,-5,-1,0,4
1532061753576,-1,-1,0,-1,-1,-1,-1,-1
1532061753581,-2,-4,0,-4,-4,-2,-2,-1
1532061753586,3,16,-4,-2,1,0,0,-3
1532061753591,-5,-11,-3,-10,0,-2,-2,1
1532061753596,3,8,-29,-28,-12,-6,-6,-1
1532061753601,-6,-12,10,16,11,-3,-1,0
1532061753606,2,-5,52,15,0,10,6,6
1532061753611,1,1,-2,-12,-5,1,1,-3
1532061753616,-2,-1,1,17,-1,-2,-2,-2
1532061753621,1,-2,1,5,-2,1,-1,3
1532061753626,-4,4,-39,-21,-13,-8,-5,-13
1532061753631,3,-3,3,-10,-5,-2,5,9
1532061753636,5,-3,22,2,-11,0,2,10
1532061753641,-6,2,6,7,12,-4,-3,-8
1532061753646,-3,-5,0,11,-9,-6,0,-3
1532061753651,6,8,-7,-2,2,13,8,8
1532061753656,-3,0,-9,-11,8,-11,-6,-9
1532061753661,1,-9,-8,-5,-13,5,1,1
1532061753666,1,-3,-11,1,36,-3,0,4
1532061753671,-4,-4,7,13,-8,-4,-2,-6
1532061753676,-4,-8,-1,-10,-24,3,-1,-1
1532061753681,0,9,5,-8,-1,0,-2,-2
1532061753686,-5,-9,-6,-28,-9,-5,-8,-5
1532061753691,2,3,-20,-11,13,-7,0,2
1532061753696,11,24,28,47,24,12,7,2
1532061753701,-25,-63,-49,-34,-26,-12,-18,-20
1532061753706,3,17,6,23,14,1,-1,-3
1532061753711,-2,6,18,-16,-10,2,3,-2
1532061753716,-2,-15,5,28,5,1,4,5
1532061753721,10,11,-9,-29,-4,3,10,10
1532061753726,2,-3,-4,20,-1,-5,-1,2
1532061753731,-4,-3,-3,29,13,7,-2,-6
1532061753736,-7,-3,-15,-10,-4,-2,0,-9
1532061753741,-4,12,17,10,5,1,-1,-10
1532061753746,11,-2,-1,2,4,6,6,15
1532061753751,2,2,9,-4,-8,-4,-4,-1
1532061753756,-4,-12,10,-8,2,-1,-4,-1
1532061753761,1,3,2,5,3,1,0,-2
1532061753766,-2,-2,5,-6,-8,3,-1,-1
1532061753771,-2,-4,-5,-5,2,-3,-5,-6
1532061753776,-2,0,-4,-12,-1,0,-2,-2
1532061753781,3,8,5,17,8,4,0,5
1532061753786,-2,-2,-5,0,-8,-3,-3,-1
1532061753791,1,2,1,-10,1,-3,-2,-1
1532061753796,-5,-7,-17,-5,1,-1,-4,-1
1532061753801,3,6,10,14,2,-1,4,6
1532061753806,0,-5,-5,-7,-6,0,-1,0
1532061753811,-3,-3,-3,-3,-2,-2,0,-5
1532061753816,8,6,1,-3,1,2,2,-8
1532061753821,9,5,1,0,-3,-4,-7,12
1532061753826,-7,-3,-3,-5,-6,-2,0,-2
1532061753831,5,-1,-4,-1,-1,0,-2,2
1532061753836,27,6,4,-6,-3,0,7,7
1532061753841,-18,-6,9,5,-2,3,0,-8
1532061753846,-5,-9,-4,-5,-4,0,-9,-5
1532061753851,5,5,-1,0,0,-4,-12,-2
1532061753856,-5,2,-3,-1,1,-4,-5,-1
1532061753861,2,4,1,1,2,0,0,-1
1532061753866,8,-2,0,-4,-3,3,13,15
1532061753871,-15,-4,0,4,-1,-1,2,-8
1532061753876,-6,1,0,-2,2,1,-6,-8
1532061753881,11,1,1,1,2,-1,7,4
1532061753886,-4,14,0,-4,-1,0,3,-7
1532061753891,-34,-17,-7,12,-9,-2,-3,2
1532061753896,26,0,-1,-2,3,-1,-1,2
1532061753901,21,11,-4,-29,-10,-1,8,7
1532061753906,5,8,7,38,18,4,-2,0
1532061753911,4,1,-6,-16,0,-2,2,0
1532061753916,-22,-6,0,11,-11,0,-1,-3
1532061753921,5,15,10,13,18,2,-6,-4
1532061753926,2,4,16,-24,-12,-2,1,0
1532061753931,-3,-26,-25,-28,-16,-6,4,0
1532061753936,-7,-6,-1,9,-6,-1,0,2
1532061753941,4,20,17,25,11,2,-1,0
1532061753946,-5,-16,-6,-19,6,3,-2,-2
1532061753951,-2,7,20,42,11,-1,-3,-2
1532061753956,-7,-15,14,-8,0,2,1,3
1532061753961,-13,-16,-10,-8,32,-15,-5,-6
1532061753966,-5,3,9,5,-14,12,4,-5
1532061753971,17,24,-22,-40,-56,-11,3,1
1532061753976,-9,-13,9,18,2,-7,-6,-4
1532061753981,8,48,17,13,-18,-1,-2,0
1532061753986,-8,-4,7,3,18,-4,-4,0
1532061753991,5,-34,23,3,23,6,-3,-1
1532061753996,-11,-12,-1,1,-8,3,1,-2
1532061754001,-11,-38,-14,-2,-2,-2,-1,-7
1532061754006,2,19,-15,-3,-5,-6,-5,-3
1532061754011,23,24,-2,29,17,11,5,13
1532061754016,-49,3,-12,-72,-20,-19,-16,-22
1532061754021,37,95,-5,21,-1,4,3,7
1532061754026,7,-27,50,-7,-8,-3,-2,10
1532061754031,-67,-73,-24,5,1,-2,-7,-19
1532061754036,-8,-22,-21,15,6,0,2,0
1532061754041,3,6,-11,-28,-12,2,0,2
1532061754046,5,18,-19,-7,-15,-2,5,3
1532061754051,8,-7,43,27,24,2,0,2
1532061754056,11,8,-18,8,-4,0,-4,6
1532061754061,-22,-26,-6,3,-2,-2,-4,-7
1532061754066,3,18,-7,-16,-15,-9,-6,-1
1532061754071,12,26,-5,-24,25,-6,1,1
1532061754076,6,-2,6,17,14,9,4,-4
1532061754081,-14,-53,-8,-26,-91,-3,1,0
1532061754086,-9,-2,-11,11,8,-1,-5,-6
1532061754091,8,13,3,6,-10,1,2,2
1532061754096,8,17,2,-12,13,-6,0,0
1532061754101,-7,-10,9,18,34,0,-1,-2
1532061754106,-7,-24,-16,-12,-13,1,0,-5
1532061754111,6,33,-8,-20,-8,-4,-2,0
1532061754116,12,11,3,7,11,7,4,7
1532061754121,-13,-27,-5,-1,9,2,-3,-4
1532061754126,0,-9,-11,8,-7,-7,-2,0
1532061754131,10,12,1,-3,13,2,2,2
1532061754136,4,2,3,16,6,4,1,3
1532061754141,-2,-18,-4,8,-7,-3,-2,2
1532061754146,9,20,-9,-7,2,-3,0,-3
1532061754151,-3,-3,1,-4,-7,1,0,-9
1532061754156,9,3,-2,-26,0,2,2,1
1532061754161,-12,-3,-2,20,2,-3,-3,-6
1532061754166,8,5,-18,15,17,4,1,5
1532061754171,-6,-40,0,-7,-10,-2,-1,2
1532061754176,-2,23,64,12,0,2,-3,4
1532061754181,12,2,-3,-25,15,5,3,3
1532061754186,-7,-10,2,19,-1,0,-1,-2
1532061754191,-6,-10,-32,-5,-19,-11,-7,-5
1532061754196,2,-1,-25,-29,-4,-1,0,-3
1532061754201,-5,-5,13,-5,-11,-7,-3,-1
1532061754206,-12,-17,-25,-78,-40,-14,-10,-9
1532061754211,12,17,4,1,5,2,2,5
1532061754216,-4,-10,-16,-18,-11,-5,-2,-4
1532061754221,4,13,-9,-24,7,-5,0,2
1532061754226,-1,0,9,24,10,2,1,0
1532061754231,4,4,23,30,4,8,5,3
1532061754236,-5,-18,-9,16,14,-1,-2,0
1532061754241,-2,-5,4,-21,-1,1,-3,-3
1532061754246,-6,-21,-22,-18,-31,-7,-1,-2
1532061754251,1,1,13,9,-2,-1,-2,0
1532061754256,-1,-3,-16,-39,-17,-5,-2,0
1532061754261,0,-1,15,30,13,-3,-2,-2
1532061754266,-2,3,-10,2,17,5,-2,0
1532061754271,3,-5,1,3,-6,4,2,1
1532061754276,-1,11,6,20,-6,-4,-3,-1
1532061754281,0,-1,-15,-79,-16,-5,0,-2
1532061754286,2,7,-16,27,26,5,2,-1
1532061754291,6,26,20,-19,-20,-1,2,5
1532061754296,-4,-7,29,44,27,-1,0,0
1532061754301,-12,-55,-12,36,8,8,0,-2
1532061754306,-3,0,-24,-14,-9,-5,-1,-5
1532061754311,10,35,9,-4,-18,-1,1,4
1532061754316,2,45,9,-16,-13,-1,0,4
1532061754321,-13,-65,-14,-10,5,-8,-4,-9
1532061754326,-11,-30,-9,15,39,-1,-2,-6
1532061754331,0,-12,-6,8,1,9,6,1
1532061754336,5,19,-5,-5,-19,-3,-2,2
1532061754341,6,39,14,21,-2,0,-1,6
1532061754346,3,-3,-3,-31,-7,0,1,2
1532061754351,2,0,4,-9,20,-1,1,-3
1532061754356,0,-3,4,50,-12,-4,0,0
1532061754361,-3,4,-12,-32,5,-2,-4,-2
1532061754366,-2,-7,-2,-27,-24,1,-1,-2
1532061754371,0,3,7,16,21,4,0,-1
1532061754376,-3,-15,6,-6,-10,-1,-1,-1
1532061754381,5,19,5,7,4,-5,0,1
1532061754386,2,9,6,-20,-1,-3,-3,0
1532061754391,-5,-13,6,27,-2,-1,-2,-1
1532061754396,-6,-11,-26,-26,3,-3,0,-5
1532061754401,14,44,19,20,6,0,0,3
1532061754406,4,28,11,-12,-11,2,1,8
1532061754411,-18,-80,-8,31,15,0,2,-1
1532061754416,-14,-19,-19,-52,-25,-8,-8,-16
1532061754421,-12,-31,-6,13,7,-1,0,-6
1532061754426,4,-1,-3,4,-3,2,0,1
1532061754431,3,23,11,16,7,-3,-1,3
1532061754436,7,5,-7,6,3,1,0,5
1532061754441,15,91,7,-20,2,5,4,7
1532061754446,-15,-67,4,3,1,-2,-1,-6
1532061754451,-14,-57,-21,4,-1,-4,-6,-10
1532061754456,3,-3,4,-1,7,0,-1,1
1532061754461,24,74,6,6,-8,-1,3,7
1532061754466,20,86,21,26,8,-1,4,19
1532061754471,-33,-85,-12,-19,-14,4,-7,-15
1532061754476,-14,-18,-21,11,8,-1,-5,-16
1532061754481,-7,-11,-8,-2,-9,0,-2,-3
1532061754486,6,26,0,-1,-3,-2,2,0
1532061754491,22,66,17,20,8,2,4,13
1532061754496,-5,-46,-20,-30,-6,-9,-3,2
1532061754501,-8,-35,0,-2,2,2,0,-3
1532061754506,-4,-12,1,7,4,0,-2,-7
1532061754511,5,26,-2,-17,-12,-5,-2,1
1532061754516,7,21,4,9,4,0,1,5
1532061754521,-6,-18,-19,-1,-2,-2,-3,-5
1532061754526,-4,-7,-13,-22,-2,-4,-5,-4
1532061754531,-1,-7,8,9,7,4,3,2
1532061754536,2,16,16,6,-32,-3,2,3
1532061754541,8,26,13,-5,2,-3,-3,1
1532061754546,0,26,11,7,2,3,5,0
1532061754551,-14,-47,-16,17,6,-1,-2,-12
1532061754556,-5,-21,-5,-39,8,-11,-6,-4
1532061754561,-3,-15,-1,0,-9,10,3,0
1532061754566,5,28,-3,5,-1,-3,-2,-1
1532061754571,15,55,17,1,6,1,5,13
1532061754576,4,-40,0,9,3,4,5,1
1532061754581,-20,-46,-7,10,18,-6,-6,-11
1532061754586,-4,-4,0,-18,-15,1,-4,-6
1532061754591,4,30,11,3,11,-4,-5,-2
1532061754596,4,12,1,13,-16,8,4,7
1532061754601,8,12,-2,-8,35,-9,-3,5
1532061754606,-8,-49,-1,5,-17,11,6,2
1532061754611,-7,-13,-6,-7,-5,-10,-6,-7
1532061754616,11,52,7,11,9,-3,-3,0
1532061754621,-1,-14,11,-15,-1,8,7,6
1532061754626,-19,-34,-12,13,3,-5,-8,-13
1532061754631,7,30,4,23,-10,-2,-2,3
1532061754636,4,32,-11,8,21,6,5,3
1532061754641,4,-15,-3,-25,-35,-9,-2,6
1532061754646,-21,-18,-11,-1,3,-4,-7,-15
1532061754651,0,-2,4,-21,-14,0,-2,0
1532061754656,2,26,9,24,8,-1,-1,-2
1532061754661,5,32,7,-1,4,0,1,2
1532061754666,11,-24,8,7,-1,3,3,11
1532061754671,-14,-16,-21,-3,-13,-11,-11,-14
1532061754676,-5,-5,-1,10,31,0,-2,-4
1532061754681,-4,3,-7,-21,-34,7,0,-5
1532061754686,6,13,3,1,-6,-13,-1,3
1532061754691,6,17,9,3,8,5,5,10
1532061754696,-3,-53,-18,-2,18,-3,-2,1
1532061754701,-25,-26,-19,10,-7,1,-2,-11
1532061754706,4,-2,-5,-1,-16,2,0,1
1532061754711,6,1,2,-25,-27,-3,2,5
1532061754716,-1,14,-2,-7,-8,-2,-4,-2
1532061754721,-2,-13,-16,7,10,-3,-4,-2
1532061754726,4,9,-1,4,19,-2,-2,-2
1532061754731,0,14,-4,-6,10,3,1,-3
1532061754736,-8,-13,8,2,-4,3,5,2
1532061754741,2,1,5,6,-4,-3,-1,-1
1532061754746,5,29,9,2,13,1,0,3
1532061754751,12,28,5,6,35,5,4,9
1532061754756,-8,-82,2,15,-26,1,-2,-4
1532061754761,-11,-32,-3,-24,34,-4,-1,-10
1532061754766,-2,1,-10,-7,-56,-4,-5,2
1532061754771,0,0,4,10,-9,-2,1,1
1532061754776,5,39,4,11,10,-3,-2,1
1532061754781,0,-11,-7,-8,4,5,1,1
1532061754786,1,3,-20,-7,24,1,1,-5
1532061754791,-3,-8,2,11,50,-1,0,-5
1532061754796,-3,2,-10,-43,-79,0,-1,-1
1532061754801,3,8,6,5,-23,-3,1,2
1532061754806,0,-1,6,12,66,-1,-3,-4
1532061754811,-3,-2,-9,-20,-64,3,1,-1
1532061754816,6,24,-1,5,19,-5,-6,0
1532061754821,-9,-40,4,21,2,1,2,0
1532061754826,-1,-15,-3,-12,-18,-7,-2,2
1532061754831,0,1,2,20,48,2,-2,-3
1532061754836,3,32,1,-12,15,5,1,-5
1532061754841,12,41,2,-28,-79,-9,0,11
1532061754846,-9,-64,-3,17,18,3,2,-1
1532061754851,1,19,7,-19,-10,-4,-3,-8
1532061754856,-2,-1,2,16,12,-2,-1,0
1532061754861,4,30,-2,28,30,-4,-5,-3
1532061754866,5,12,9,-3,11,5,3,5
1532061754871,-6,-28,-14,-36,-79,-9,-5,0
1532061754876,-4,0,-1,-22,-6,-4,2,-1
1532061754881,1,-1,5,16,18,1,-1,-4
1532061754886,0,16,8,-11,6,2,-1,-3
1532061754891,-2,-8,-7,6,24,-5,-4,-4
1532061754896,1,2,3,1,-3,2,2,1
1532061754901,-3,-16,14,24,15,2,-1,0
1532061754906,-2,10,-13,-37,-55,-5,-4,-1
1532061754911,2,13,-2,-8,22,6,2,-1
1532061754916,-1,-13,7,3,-66,-8,-3,6
1532061754921,2,32,-28,-40,-5,-6,-3,-2
1532061754926,-4,-6,-2,-12,1,0,0,3
1532061754931,-5,-12,-24,10,17,-1,-4,-10
1532061754936,-3,1,6,16,33,4,2,-4
1532061754941,-1,-10,-3,-7,32,7,1,-3
1532061754946,3,27,12,18,-16,-4,0,-1
1532061754951,1,-1,6,-1,0,1,2,4
1532061754956,-5,-19,-5,12,1,-3,-4,-3
1532061754961,0,6,-7,-6,-18,-1,0,2
1532061754966,-1,-9,16,13,5,1,-1,1
1532061754971,-4,-26,5,5,7,-6,0,4
1532061754976,1,2,8,0,-33,7,1,-3
1532061754981,0,-5,0,35,74,-2,0,-4
1532061754986,-4,-11,-15,-30,-40,5,-2,-1
1532061754991,-1,5,-5,-11,-45,-3,-3,3
1532061754996,1,5,7,8,37,3,0,1
1532061755001,-3,-2,-3,-5,-10,-3,-2,-1
1532061755006,0,4,-8,9,24,-2,-2,-5
1532061755011,1,10,18,20,27,-2,-1,-1
1532061755016,0,-9,-8,-31,-41,-3,1,2
1532061755021,4,12,45,29,19,0,-2,1
1532061755026,1,7,-3,-3,-38,-4,3,-2
1532061755031,-3,-10,-12,-9,-9,-2,-5,2
1532061755036,4,27,11,6,40,0,-1,0
1532061755041,9,42,-1,-5,5,3,4,3
1532061755046,-8,-37,-5,-7,-25,-5,-3,-3
1532061755051,-22,-33,-3,13,4,1,-2,-11
1532061755056,-5,-7,-20,-15,-8,-7,-1,-7
1532061755061,1,9,-4,-12,-5,-6,-5,-2
1532061755066,6,32,26,4,14,3,2,4
1532061755071,8,6,9,20,8,1,3,6
1532061755076,-5,-18,-13,-37,-8,-3,-1,0
1532061755081,-3,-7,-3,-12,-45,-3,-2,-1
1532061755086,2,-2,-7,29,4,0,1,1
1532061755091,2,1,-17,-8,13,1,-2,-4
1532061755096,-2,4,13,13,13,2,-1,0
1532061755101,-1,-14,-4,-4,-14,3,4,0
1532061755106,-2,-1,-4,8,32,-2,-1,-4
1532061755111,-4,-3,-11,-16,-51,-5,-1,-1
1532061755116,-3,-1,-2,19,28,-3,-3,-1
1532061755121,-3,-19,-6,-31,-42,0,-1,1
1532061755126,-7,-19,-12,-19,7,-1,-3,-2
1532061755131,7,21,13,11,15,6,4,2
1532061755136,2,6,-6,22,25,-6,-7,-4
1532061755141,-7,-21,-5,-26,-47,-8,-2,-2
1532061755146,-1,15,13,11,18,-1,-4,-4
1532061755151,1,9,-20,-32,-31,-5,-2,-3
1532061755156,-2,-3,-17,12,23,3,2,-1
1532061755161,-5,-13,-2,22,3,6,1,1
1532061755166,3,7,6,7,7,1,1,1
1532061755171,0,-1,4,4,6,-2,0,2
1532061755176,1,5,8,4,-7,0,2,0
1532061755181,-2,-2,-16,-20,1,1,-3,-2
1532061755186,1,-1,-6,6,4,0,-1,-2
1532061755191,2,7,3,-1,-5,1,-1,0
1532061755196,-2,-17,5,3,0,0,-1,1
1532061755201,4,6,5,11,25,-1,-1,-1
1532061755206,1,22,2,-5,-15,-1,0,3
1532061755211,-7,-36,11,6,5,-1,-2,-5
1532061755216,-3,-8,-12,10,11,1,-1,-2
1532061755221,-3,-11,-24,-21,-33,-6,-3,-2
1532061755226,-2,-1,-20,-1,-7,-2,-2,-3
1532061755231,6,21,-18,1,-3,1,1,3
1532061755236,1,0,-7,-4,3,3,-1,0
1532061755241,3,1,17,32,33,0,1,-1
1532061755246,-3,-14,1,-21,2,1,2,1
1532061755251,-2,-6,17,-15,-42,-12,-3,-1
1532061755256,0,-6,21,-20,-20,-1,-1,0
1532061755261,-2,4,21,3,5,-1,-1,0
1532061755266,-1,-2,12,0,6,-4,-3,-2
1532061755271,-1,-7,10,11,49,5,0,-3
1532061755276,-5,-5,-1,-49,-81,-13,-1,-1
1532061755281,-5,-3,0,17,4,-2,-3,-2
1532061755286,1,-7,-7,-1,27,4,3,-3
1532061755291,0,1,-4,-5,-32,-3,-1,4
1532061755296,-1,-10,-3,10,24,1,0,0
1532061755301,3,3,19,-11,-8,2,4,3
1532061755306,-8,-19,-16,9,-20,-2,-3,-2
1532061755311,0,4,-11,-2,-4,-1,0,-1
1532061755316,4,21,-17,-9,21,5,0,-3
1532061755321,-1,-7,-5,14,-18,-4,0,1
1532061755326,0,3,12,47,83,7,-2,-2
1532061755331,3,7,5,-40,-63,-9,-1,0
1532061755336,4,13,31,43,6,2,-2,4
1532061755341,5,15,-19,-42,2,8,3,2
1532061755346,-2,7,5,-6,-17,-5,-2,-1
1532061755351,-5,-25,-14,29,26,4,-2,-5
1532061755356,0,4,-16,-9,-2,-3,0,0
1532061755361,1,-2,7,35,57,3,2,-3
1532061755366,2,15,11,-44,-90,-13,-5,0
1532061755371,-1,-2,10,1,55,7,2,-1
1532061755376,3,-1,1,-8,-55,-4,-2,3
1532061755381,3,23,0,22,4,-2,-4,-3
1532061755386,-7,-33,-8,0,94,6,3,-7
1532061755391,-2,1,-10,-33,-86,-12,1,7
1532061755396,-1,-6,18,-13,39,7,0,-1
1532061755401,0,-5,-13,1,-14,0,0,1
1532061755406,-1,-5,-14,9,6,-3,-1,0
1532061755411,2,4,2,9,46,6,-2,-4
1532061755416,-1,4,-19,37,28,2,1,-6
1532061755421,-1,-1,-3,-35,-67,-8,-2,4
1532061755426,1,15,6,5,8,5,-2,3
1532061755431,-5,-21,-1,7,10,1,-2,-3
1532061755436,-2,0,-13,-10,-25,-6,-3,-2
1532061755441,5,32,2,13,45,4,-3,-4
1532061755446,12,26,12,22,2,-4,1,4
1532061755451,-5,22,5,-13,10,-1,-5,5
1532061755456,-29,-107,-17,-38,-72,-7,-4,-13
1532061755461,-13,-21,-13,-11,-34,-5,-5,-12
1532061755466,5,19,4,11,-3,2,3,3
1532061755471,10,34,13,12,30,3,2,2
1532061755476,14,36,16,10,33,3,2,8
1532061755481,-6,-16,-23,-9,24,-3,-5,-6
1532061755486,-3,-21,-4,-39,-66,4,4,-3
1532061755491,2,0,-1,29,20,0,2,5
1532061755496,1,11,2,-7,14,1,0,0
1532061755501,2,-2,9,8,7,2,1,1
1532061755506,-4,-5,-13,-2,-11,-8,-3,-4
1532061755511,-3,-13,-8,-8,-25,1,0,-3
1532061755516,2,11,-1,5,-2,-1,-1,1
1532061755521,1,1,9,6,9,1,0,3
1532061755526,-4,-12,-4,8,-8,-2,-5,-4
1532061755531,-1,-1,4,-8,24,0,-1,-3
1532061755536,3,17,-2,15,8,-1,0,-1
1532061755541,4,7,11,15,-25,-1,2,7
1532061755546,-8,-25,-9,-35,3,-1,1,-1
1532061755551,-9,-26,-20,31,-1,-9,-6,-10
1532061755556,1,5,5,-13,19,3,1,-3
1532061755561,-1,-6,3,0,-1,0,3,2
1532061755566,4,19,6,7,-2,0,-1,3
1532061755571,2,7,5,-5,0,1,-2,-1
1532061755576,-1,12,-6,0,24,-1,-2,-5
1532061755581,-3,-12,-11,-30,-43,-14,-4,-1
1532061755586,-1,-10,-3,22,8,3,2,1
1532061755591,-2,-4,-9,-16,10,2,0,-1
1532061755596,-3,-8,-7,7,-18,-9,-4,1
1532061755601,-2,-6,-13,-12,-11,5,-1,-1
1532061755606,0,1,-10,8,-4,-3,-1,-2
1532061755611,6,15,9,8,15,4,5,3
1532061755616,-2,2,11,12,11,2,1,0
1532061755621,-8,-28,-10,-14,15,-2,-4,-6
1532061755626,0,1,-2,-3,3,-4,-2,-2
1532061755631,0,4,3,24,-26,-2,0,-1
1532061755636,5,10,5,-36,-4,4,2,3
1532061755641,-1,10,6,-19,-10,-2,-2,0
1532061755646,-2,-13,0,4,18,0,-1,-4
1532061755651,-1,0,-7,-46,-11,-3,-2,-1
1532061755656,-4,-10,-11,-7,-19,-6,0,-1
1532061755661,1,1,8,22,22,3,1,0
1532061755666,2,8,-7,-16,-11,0,1,0
1532061755671,-1,5,1,-9,-10,1,-2,-4
1532061755676,1,-1,3,14,7,-1,3,-1
1532061755681,-3,-2,11,-4,42,7,-3,-2
1532061755686,-2,4,-1,-15,-47,-7,-3,0
1532061755691,-1,-4,6,-5,-36,-3,-1,1
1532061755696,3,10,0,8,26,6,1,2
1532061755701,0,-2,4,19,7,-2,1,1
1532061755706,-1,-3,0,5,6,-2,0,-2
1532061755711,1,0,-1,-19,13,1,0,-1
1532061755716,-2,-2,1,-7,-18,-5,-4,-1
1532061755721,2,2,1,2,0,0,0,-1
1532061755726,3,27,-3,-24,22,6,-2,3
1532061755731,-7,-29,6,20,-18,-4,-1,-4
1532061755736,-11,-36,-19,6,-4,-1,-1,-9
1532061755741,2,2,-1,-13,-4,1,3,-2
1532061755746,-1,2,2,-4,-6,-2,-5,-1
1532061755751,8,28,8,13,16,2,3,4
1532061755756,1,7,5,1,2,0,-1,2
1532061755761,1,-3,2,14,-6,-2,1,0
1532061755766,3,10,1,15,11,7,3,-1
1532061755771,-2,-4,-2,-1,-6,-2,-4,0
1532061755776,-2,-3,2,21,-6,-4,-1,-1
1532061755781,0,5,-2,14,10,0,1,-1
1532061755786,-3,-7,-1,-31,3,-2,-1,-3
1532061755791,-2,-6,-7,7,2,-1,-1,-2
1532061755796,1,5,1,-6,0,3,0,0
1532061755801,-2,7,4,-11,6,0,0,-4
1532061755806,-3,-9,0,47,-3,0,2,-2
1532061755811,-2,-7,-5,-8,4,0,0,0
1532061755816,-1,3,2,4,-12,-5,-6,-1
1532061755821,-4,-9,-5,-5,-9,-5,-2,0
1532061755826,-5,-20,-14,-22,-18,-5,-3,-4
1532061755831,2,7,0,-8,12,2,3,0
1532061755836,0,3,1,2,0,-1,0,1
1532061755841,-3,-7,-3,13,-12,-2,-2,-1
1532061755846,1,-1,2,-25,0,-1,0,1
1532061755851,-2,0,1,10,0,-1,-3,-1
1532061755856,-2,-5,-10,-46,-21,-8,-1,-1
1532061755861,0,-2,0,27,16,7,0,2
1532061755866,-1,1,-1,-6,-7,-3,-1,0
1532061755871,-1,1,-10,-18,4,4,0,-1
1532061755876,0,2,-1,5,-12,-3,-1,0
1532061755881,-1,3,0,5,-5,-2,-1,-1
1532061755886,6,-5,-5,6,2,-2,-2,3
1532061755891,-1,-3,5,-13,10,4,0,-4
1532061755896,3,0,0,23,-21,-1,1,3
1532061755901,-2,-2,-7,-19,-6,-5,-1,-3
1532061755906,3,6,2,8,-4,-1,1,1
1532061755911,-3,-7,-16,3,9,-2,-3,-2
1532061755916,-1,5,10,2,28,-1,1,2
1532061755921,2,-1,10,-14,-22,5,1,4
1532061755926,-9,-17,-33,-8,-3,-4,-5,-8
1532061755931,4,10,24,11,1,-1,1,1
1532061755936,-3,-2,-10,-15,1,2,-1,-1
1532061755941,-3,-8,20,22,18,3,-7,-1
1532061755946,2,3,0,-14,-5,-1,3,0
1532061755951,-1,1,-4,-1,-31,-2,0,2
1532061755956,2,12,20,-1,11,1,-2,-4
1532061755961,-2,2,1,-5,-6,-6,-2,-4
1532061755966,-7,-8,24,14,10,3,-1,-1
1532061755971,1,-3,-7,-2,6,-1,0,1
1532061755976,1,2,7,0,-5,2,1,1
1532061755981,2,6,-2,-14,1,-2,0,-1
1532061755986,-2,0,0,-4,-5,-3,-1,0
1532061755991,-2,2,2,1,-2,-2,-1,1
1532061755996,1,-2,-3,-4,1,1,1,-1
1532061756001,-2,-5,-4,-3,-1,-2,0,-3
1532061756006,-4,3,5,15,4,2,0,-1
1532061756011,1,-1,-6,-6,-2,-2,-2,-1
1532061756016,-1,-4,-5,-7,1,0,-1,-3
1532061756021,-3,-2,-6,-3,1,-1,0,-1
1532061756026,9,1,2,4,-5,1,4,3
1532061756031,3,3,1,-1,3,-2,-4,-2
1532061756036,-6,0,1,-2,-2,-3,-3,-6
1532061756041,-2,-6,-9,-8,-4,-1,0,0
1532061756046,2,-5,2,5,3,0,-1,-2
1532061756051,1,-5,-2,-1,-1,-1,1,2
1532061756056,0,-1,-8,-1,0,-2,0,2
1532061756061,-1,2,-2,-3,-2,-2,-2,-1
1532061756066,1,4,2,4,-1,0,1,1
1532061756071,-1,-2,0,-3,-1,-2,-1,-1
1532061756076,0,-3,-1,-3,-3,1,0,2
1532061756081,2,2,-4,-2,-5,-1,-1,0
1532061756086,-7,-13,-3,0,1,-4,-5,-4
1532061756091,-2,-2,-3,-3,-8,1,0,0
1532061756096,0,-1,-1,5,5,1,1,0
1532061756101,0,-5,-5,-2,0,-2,-4,-3
1532061756106,0,5,-1,-7,-1,1,1,2
1532061756111,-5,-1,-2,2,-3,-1,-1,-2
1532061756116,1,-3,-2,3,7,3,0,1
1532061756121,-2,0,-2,5,16,1,0,-1
1532061756126,-5,2,-1,2,-8,-1,-4,-2
1532061756131,-2,-2,-3,2,6,2,1,0
1532061756136,0,1,1,-4,-8,-2,-1,2
1532061756141,0,-1,-2,-5,-4,-2,0,0
1532061756146,0,5,1,1,4,0,-1,-1
1532061756151,-1,0,0,1,2,1,-1,-1
1532061756156,0,-1,-2,-2,-2,-1,-2,-1
1532061756161,-2,-1,-3,-1,-3,-2,-1,-2
1532061756166,0,0,1,-2,-2,-2,0,-1
1532061756171,-3,-2,-3,-2,-1,-1,0,-3
1532061756176,-1,-1,-1,-3,-1,0,-1,-1
1532061756181,-1,-1,1,0,-5,0,-1,-2
1532061756186,0,-1,-3,-4,1,2,2,0
1532061756191,0,1,1,-1,1,-1,-1,0
1532061756196,-2,-5,-6,-4,-1,-1,0,-1
1532061756201,3,-1,1,3,-4,-2,1,1
1532061756206,-1,6,1,-1,2,0,0,-2
1532061756211,-2,-2,1,-1,5,0,-2,-1
1532061756216,0,-1,2,1,6,-2,-1,-2
1532061756221,0,-2,-2,4,-1,3,0,0
1532061756226,0,1,2,-1,-5,-1,-1,-2
1532061756231,-1,0,-1,-1,-4,-2,0,-1
1532061756236,0,-3,-1,-3,-1,0,0,0
1532061756241,-1,-2,-3,-1,0,-3,0,0
1532061756246,-2,-1,3,0,1,-2,-1,-1
1532061756251,-1,-1,-2,-2,-7,-2,0,-1
1532061756256,0,1,3,4,5,-1,0,-1
1532061756261,-1,-2,-3,-9,-2,2,0,-2
1532061756266,-1,-3,-4,3,6,-3,-3,-1
1532061756271,0,-2,-2,2,-6,1,-1,-2
1532061756276,-1,2,0,-9,-23,-6,-1,0
1532061756281,-2,-3,-5,-4,-5,-3,0,-1
1532061756286,1,3,1,2,-4,-1,2,2
1532061756291,2,6,0,6,12,1,-2,-1
1532061756296,-1,-4,-2,4,7,4,1,-3
1532061756301,-4,-17,-4,-4,-6,-3,0,-3
1532061756306,-1,-3,1,0,-3,-2,-3,-1
1532061756311,-3,-5,-4,-4,0,-4,-3,-1
1532061756316,0,4,-3,-7,-5,1,-1,-1
1532061756321,1,8,8,-3,-1,0,0,1
1532061756326,0,0,2,0,1,0,0,0
1532061756331,0,-1,0,-4,-4,-2,0,0
1532061756336,-1,-2,-8,-2,-1,-2,-1,-2
1532061756341,0,1,3,-1,6,1,-1,-2
1532061756346,2,15,14,13,2,0,-1,-1
1532061756351,-2,-2,3,-11,-5,-1,-1,-4
1532061756356,-2,-4,4,5,4,-2,-1,-1
1532061756361,2,8,5,1,-2,-1,1,1
1532061756366,-4,-7,-10,-10,-5,-1,-1,-1
1532061756371,-1,0,-4,13,2,0,1,1
1532061756376,0,-4,-5,-8,-5,-4,-2,-2
1532061756381,-2,6,16,0,1,-2,-1,-2
1532061756386,0,-5,-2,6,-1,3,-1,2
1532061756391,1,0,5,1,1,0,-1,-1
1532061756396,1,0,-5,6,6,4,0,0
1532061756401,0,-1,-1,-10,-5,0,0,-1
1532061756406,0,-1,-4,-6,2,2,0,-3
1532061756411,-2,-1,-10,6,-4,-2,-2,1
1532061756416,-3,-2,17,-2,-2,-3,-2,-4
1532061756421,2,2,-4,4,1,0,0,5
1532061756426,-3,-8,-7,-8,0,3,1,-2
1532061756431,-1,2,-6,4,3,-1,-1,-1
1532061756436,0,1,2,5,0,0,-1,4
1532061756441,-4,-12,-3,-4,-3,-2,4,-5
1532061756446,-2,-2,0,-4,-3,-3,-2,-2
1532061756451,1,2,2,-5,0,1,2,-1
1532061756456,-2,-8,-2,-1,1,1,-8,0
1532061756461,-2,-3,-8,-2,0,0,0,-1
1532061756466,0,1,3,5,1,1,-4,-1
1532061756471,4,3,0,-4,1,-2,-2,-1
1532061756476,2,25,3,0,1,0,4,-1
1532061756481,-4,-23,-7,1,-1,0,0,0
1532061756486,0,0,1,-1,-3,-3,-2,-3
1532061756491,-4,-21,-5,-10,-2,-2,0,-3
1532061756496,1,-1,1,-1,-1,1,1,0
1532061756501,21,27,-10,-1,0,-2,-3,6
1532061756506,-18,-13,10,-2,-2,-3,1,-7
1532061756511,-3,-2,0,4,-2,0,-2,-2
1532061756516,-2,3,-3,-2,0,-3,1,-3
1532061756521,-1,3,0,-2,1,-1,-3,-2
1532061756526,8,4,-2,-1,-2,0,0,5
1532061756531,-4,-7,2,2,-1,-1,-1,0
1532061756536,-4,-4,-9,-15,-3,0,-3,-4
1532061756541,-2,7,3,7,0,1,3,1
1532061756546,3,-4,-2,4,-2,-3,-2,10
1532061756551,-7,-2,2,-3,-1,0,11,-9
1532061756556,3,-1,1,5,1,-2,-15,-5
1532061756561,-3,2,-3,-5,0,0,0,-1
1532061756566,0,4,-1,0,1,1,2,-4
1532061756571,4,5,3,-2,-1,-1,3,7
1532061756576,-1,-12,-3,0,1,-1,3,2
1532061756581,-4,-5,-2,1,-1,-1,-2,-3
1532061756586,-5,-8,-4,-3,-2,-4,-2,-5
1532061756591,0,3,1,-5,-1,-2,-4,-1
1532061756596,5,17,-1,-1,-5,-1,2,0
1532061756601,-2,3,6,8,2,-1,-1,1
1532061756606,-7,-31,-12,-6,-2,0,0,-5
1532061756611,-3,-1,-1,-4,1,-1,-4,-6
1532061756616,-2,-15,-6,-8,-3,-1,0,2
1532061756621,2,13,1,0,-4,-2,1,-2
1532061756626,6,25,4,1,0,1,0,1
1532061756631,0,-1,4,0,0,1,-2,2
1532061756636,-1,-12,-2,2,0,-1,0,0
1532061756641,-1,8,0,-3,-2,1,-2,-3
1532061756646,-4,-26,-6,-4,2,1,7,0
1532061756651,-4,-19,-7,-2,-5,0,13,7
1532061756656,-6,2,-1,0,1,-1,-27,-16
1532061756661,4,-5,-3,-6,-1,-2,-9,1
1532061756666,22,16,6,8,0,-2,6,6
1532061756671,-18,5,-3,-3,0,-1,-5,-10
1532061756676,7,11,3,6,-2,0,10,7
1532061756681,1,6,-3,-6,0,0,-1,-1
1532061756686,4,30,5,-8,-4,0,-5,-3
1532061756691,-2,-55,-19,-6,-3,-3,-4,0
1532061756696,-6,-16,-5,3,2,-2,6,-2
1532061756701,-6,-3,-1,-2,-2,0,-2,-4
1532061756706,4,24,4,11,2,-2,1,2
1532061756711,5,23,5,1,-6,-4,-7,0
1532061756716,-4,-3,1,2,3,3,14,2
1532061756721,1,-7,-3,-3,-1,-2,-4,0
1532061756726,-6,1,2,12,-1,-1,-2,-2
1532061756731,0,0,2,3,1,-2,-10,-2
1532061756736,0,-6,-5,-4,-2,-2,2,-4
1532061756741,-4,-9,2,1,-1,-2,6,5
1532061756746,-4,-11,-7,-12,-1,-2,-4,-3
1532061756751,0,11,4,-2,-4,-4,-4,-1
1532061756756,1,5,3,4,-1,2,-2,0
1532061756761,-2,-6,-2,0,4,3,-1,4
1532061756766,-4,5,2,1,0,2,-1,-2
1532061756771,3,3,-5,-17,-2,1,2,0
1532061756776,-6,-33,-3,13,0,-3,-2,-1
1532061756781,-4,5,1,-5,-1,0,7,-5
1532061756786,-5,-20,-5,-4,-1,-4,-11,-1
1532061756791,4,25,5,1,0,1,3,3
1532061756796,-5,1,-1,-7,-1,-3,-3,-2
1532061756801,2,-5,0,4,0,1,2,0
1532061756806,-2,-17,-7,-7,-1,0,-2,-2
1532061756811,0,1,-1,-6,-2,0,1,0
1532061756816,0,9,1,-2,-1,0,3,-2
1532061756821,4,-2,-1,-3,-2,-1,-9,0
1532061756826,-2,1,2,6,1,-2,4,2
1532061756831,-2,-13,-3,-4,-1,-2,-3,-4
1532061756836,-1,1,-2,4,-3,-3,-1,3
1532061756841,0,16,1,0,0,-1,-6,-4
1532061756846,-8,-40,-6,6,2,0,1,-1
1532061756851,0,8,-2,-6,1,0,5,-1
1532061756856,2,-4,-2,3,-2,-2,-3,-2
1532061756861,-2,3,10,4,2,-1,-5,-1
1532061756866,1,11,-6,-22,-7,-4,0,1
1532061756871,3,4,-1,-1,0,1,-2,2
1532061756876,-2,-6,-2,4,-4,-2,0,-5
1532061756881,-3,-3,-5,-11,-2,0,-4,-4
1532061756886,-1,2,-1,5,0,1,1,1
1532061756891,-2,-7,-3,-2,0,-2,-3,-4
1532061756896,0,2,-2,-1,0,-1,-1,0
1532061756901,0,-1,-3,1,-2,0,-2,-1
1532061756906,-2,3,2,-4,0,-2,-1,-1
1532061756911,2,3,0,-1,1,0,2,3
1532061756916,-3,0,2,1,-3,-1,-1,-2
1532061756921,-1,-5,-5,-4,0,-2,0,-2
1532061756926,-4,-14,3,8,2,0,0,-2
1532061756931,1,-4,-1,-5,-1,-1,-2,1
1532061756936,-2,-4,2,-2,-1,0,-1,2
1532061756941,-3,7,-2,-1,-3,-2,-5,-4
1532061756946,6,3,2,3,1,1,3,6
1532061756951,-5,-4,-1,4,0,-1,-1,-4
1532061756956,11,-5,-4,0,2,0,0,1
1532061756961,-4,-1,0,-4,-3,-2,-3,-8
1532061756966,-1,15,6,1,3,2,4,0
1532061756971,-1,3,1,-5,-5,-2,-8,1
1532061756976,-1,3,1,-1,2,1,-1,-2
1532061756981,3,-15,-7,9,0,0,0,0
1532061756986,0,2,0,-12,0,-2,-1,0
1532061756991,-2,0,-1,14,-1,0,3,-1
1532061756996,1,0,-2,-6,-3,-1,-4,0
1532061757001,-1,0,1,5,4,2,-4,0
1532061757006,-3,6,0,-2,1,2,4,-1
1532061757011,2,2,-1,-2,-1,-2,2,1
1532061757016,-2,-8,-1,2,-2,-4,-3,-2
1532061757021,-2,9,-4,-6,-1,-2,2,-2
1532061757026,4,7,6,11,0,-2,-6,1
1532061757031,-5,-25,-9,-21,-4,-1,2,-4
1532061757036,-1,-1,1,13,1,-1,1,3
1532061757041,-7,-4,-4,-11,-2,-2,0,-2
1532061757046,5,16,2,16,-1,-1,0,1
1532061757051,-2,-8,-3,-5,-5,-2,-2,-2
1532061757056,6,-4,1,-4,1,0,2,2
1532061757061,1,6,1,-2,-1,-3,-1,2
1532061757066,-25,-3,-6,-6,0,-1,0,-6
1532061757071,0,1,1,-3,-3,1,-1,0
1532061757076,-3,-6,-2,3,-1,0,0,-1
1532061757081,2,-1,1,5,0,-1,0,0
1532061757086,4,-1,0,-9,-1,-1,-1,-1
1532061757091,9,7,3,5,-1,1,4,3
1532061757096,-12,6,-2,-5,0,0,-5,-4
1532061757101,17,-16,-3,-7,-2,0,1,5
1532061757106,-21,-11,-3,7,-2,-2,-7,-11
1532061757111,6,10,4,6,1,3,0,8
1532061757116,5,3,0,0,-2,-3,-1,1
1532061757121,-8,-6,0,5,0,-2,-3,-5
1532061757126,8,-13,-10,-9,0,-1,6,12
1532061757131,-2,7,2,3,0,-1,-2,-24
1532061757136,1,19,3,0,2,0,-15,-1
1532061757141,-7,-15,-2,-8,-4,-3,2,7
1532061757146,-1,3,-5,-4,-2,-3,3,-12
1532061757151,1,-10,-3,-7,2,-2,0,3
1532061757156,1,-2,7,0,1,0,10,-1
1532061757161,-3,4,-3,5,-2,1,-1,-2
1532061757166,8,13,6,5,-1,0,-2,5
1532061757171,-5,3,0,1,1,-1,-3,-2
1532061757176,14,-6,-5,-11,-1,0,6,1
1532061757181,6,-5,-4,-4,2,0,-1,-1
1532061757186,5,-3,2,1,-2,0,3,5
1532061757191,-3,14,4,0,2,1,-3,-2
1532061757196,-6,-17,-1,-1,-2,-1,3,-2
1532061757201,3,-1,-1,-4,-1,0,0,-3
1532061757206,-4,-3,0,-4,1,0,-6,-4
1532061757211,5,8,-1,10,-4,-3,1,4
1532061757216,-2,1,-3,-7,-2,0,1,2
1532061757221,-6,-2,-2,2,1,-1,-2,-3
1532061757226,0,-7,-3,-3,-2,0,-1,-5
1532061757231,-5,-5,5,8,2,-2,-1,3
1532061757236,-7,-3,-2,-3,-4,-1,-1,-6
1532061757241,-8,3,1,1,-1,-1,11,-3
1532061757246,0,4,2,5,0,-1,-13,14
1532061757251,-1,-4,-14,-19,-6,-2,5,-4
1532061757256,-9,0,-2,4,0,-2,-16,-6
1532061757261,7,6,1,-2,-2,-2,4,4
1532061757266,0,3,1,3,3,0,5,-1
1532061757271,-3,-13,0,-1,2,0,2,1
1532061757276,-5,-6,-3,-7,-5,-2,1,-3
1532061757281,-3,10,4,5,-1,0,0,1
1532061757286,3,8,-2,-1,-1,0,3,-1
1532061757291,-8,-44,-9,-7,-2,-3,-5,-2
1532061757296,-5,3,-2,7,-1,0,2,-7
1532061757301,3,2,3,3,2,-1,-6,-1
1532061757306,-1,-3,-7,-4,-3,-2,-1,-5
1532061757311,0,18,7,-3,0,-1,-3,-3
1532061757316,7,1,0,2,1,0,2,3
1532061757321,14,3,-1,-3,-1,0,2,6
1532061757326,-10,-15,-1,-4,2,0,-2,0
1532061757331,8,-4,-2,-3,-3,0,-5,-2
1532061757336,-4,-4,-2,-4,-2,0,-3,2
1532061757341,0,9,2,-4,0,-1,-8,-5
1532061757346,8,2,1,-4,-2,-1,3,-2
1532061757351,-2,5,4,9,3,1,3,6
1532061757356,1,1,-4,-9,-1,-1,3,1
1532061757361,-9,6,0,-14,-2,0,-3,-3
1532061757366,16,-14,-2,-1,-3,-1,-4,-1
1532061757371,-6,-4,-4,7,-1,-1,-3,-3
1532061757376,2,15,5,6,2,0,3,-2
1532061757381,-12,-13,-2,2,-3,0,-2,-2
1532061757386,4,8,0,-4,-2,-2,1,-5
1532061757391,1,11,3,3,4,3,-3,-2
1532061757396,0,-23,-8,-8,-3,-2,2,0
1532061757401,-4,-1,1,2,-3,-2,7,-7
1532061757406,-1,7,-1,0,-2,-3,-13,-1
1532061757411,5,8,1,-3,-2,-1,3,4
1532061757416,1,5,4,4,2,0,-1,1
1532061757421,0,-12,-8,1,0,0,4,0
1532061757426,-4,-4,0,-11,-1,-1,-6,4
1532061757431,-10,-7,-2,6,-1,-2,-9,-10
1532061757436,5,9,3,10,2,-1,7,2
1532061757441,-14,-9,-3,1,-1,-1,-10,-8
1532061757446,1,-2,-2,-5,0,1,9,2
1532061757451,5,5,2,-6,-1,0,-3,3
1532061757456,-20,-6,0,0,0,-2,3,-7
1532061757461,1,3,1,0,0,1,0,6
1532061757466,-11,-9,-2,3,-1,1,-2,-4
1532061757471,8,4,-1,-10,-3,-2,6,5
1532061757476,4,-2,-3,-7,-2,0,-12,-3
1532061757481,2,0,-1,8,0,-1,-4,0
1532061757486,-8,3,-1,-9,-2,-1,3,-6
1532061757491,-1,0,-1,-5,-2,0,-2,-3
1532061757496,1,-4,0,15,0,0,-1,2
1532061757501,-8,-6,0,-2,0,-1,-5,2
1532061757506,7,1,1,2,1,-1,0,-5
1532061757511,-17,1,-1,-8,1,-2,2,-2
1532061757516,13,-4,-2,-13,-1,-1,21,10
1532061757521,-1,2,1,18,1,-5,-31,-18
1532061757526,-11,0,2,15,4,0,8,-8
1532061757531,3,-2,-1,-21,-9,-3,-11,6
1532061757536,3,5,1,1,-1,-1,1,-13
1532061757541,-9,-23,-4,-7,-2,-3,11,15
1532061757546,10,2,-2,-4,-2,-1,-11,-4
1532061757551,2,10,3,16,7,0,1,-1
1532061757556,-1,0,-4,-11,-5,-1,4,1
1532061757561,5,6,0,0,-1,-2,3,0
1532061757566,-7,-3,0,2,0,0,4,7
1532061757571,2,-1,-1,-2,-5,-2,1,-13
1532061757576,-17,-1,-1,1,1,-1,-12,-2
1532061757581,1,4,-1,-9,0,0,6,-4
1532061757586,-5,-17,-2,15,0,-1,4,1
1532061757591,5,-6,-4,4,1,-2,-1,3
1532061757596,1,-2,2,0,0,-1,-1,3
1532061757601,13,26,-3,-18,-3,0,-5,-5
1532061757606,-27,-17,2,2,-4,-1,0,-5
1532061757611,2,-27,-10,2,0,0,2,-2
1532061757616,-6,-3,1,2,1,-1,-7,-2
1532061757621,3,-3,1,2,2,1,-1,3
1532061757626,6,26,4,-6,-1,-1,-3,0
1532061757631,-4,17,4,2,1,0,-1,4
1532061757636,-5,-16,-4,4,-1,-1,-6,-5
1532061757641,7,-15,-3,-6,-2,1,7,6
1532061757646,-19,-3,0,2,2,0,-6,-5
1532061757651,-4,11,5,14,3,1,-2,-5
1532061757656,5,-4,-3,-16,-4,0,-2,3
1532061757661,-4,2,0,2,-2,1,4,-1
1532061757666,8,-1,-3,-5,-2,-1,-2,0
1532061757671,-4,-1,-1,3,1,0,1,1
1532061757676,8,11,6,14,3,0,1,4
1532061757681,-6,-4,1,14,-4,-3,-2,-3
1532061757686,7,-2,-1,-7,-2,-2,-1,3
1532061757691,-2,7,2,3,0,0,2,-2
1532061757696,5,6,-3,-6,0,-1,-1,-2
1532061757701,0,-6,0,1,1,-1,-2,-2
1532061757706,2,-15,-7,-1,0,-2,0,-1
1532061757711,-2,-9,-1,-8,-3,0,-1,-1
1532061757716,-4,0,-3,-5,-2,0,-2,2
1532061757721,-1,3,-2,-9,0,0,-1,-3
1532061757726,13,13,3,4,1,0,4,5
1532061757731,-19,-7,2,6,-1,-2,-5,-7
1532061757736,-2,-3,1,10,2,0,1,0
1532061757741,-3,6,-9,-30,-7,0,-4,-2
1532061757746,11,-3,-4,-6,-1,1,-1,-3
1532061757751,2,-5,-4,-5,-1,0,10,14
1532061757756,4,11,3,0,1,-1,-16,-15
1532061757761,-8,-14,0,-1,3,1,3,-2
1532061757766,7,10,-1,13,-7,-4,-9,-1
1532061757771,0,-7,-1,-11,0,1,4,-3
1532061757776,-7,-18,-7,11,4,-1,2,0
1532061757781,2,-5,1,-2,-2,-2,8,-1
1532061757786,5,1,1,-5,-2,0,-14,1
1532061757791,0,17,8,25,4,-1,2,3
1532061757796,-4,-13,-21,-79,-18,-4,1,-6
1532061757801,-7,5,4,14,1,-2,-14,-2
1532061757806,14,-1,-1,-16,-1,0,4,4
1532061757811,5,7,2,13,-3,-4,-1,0
1532061757816,-5,-13,5,24,8,1,-11,-2
1532061757821,5,6,0,3,-2,-1,5,3
1532061757826,-7,-7,0,-8,-1,-1,3,0
1532061757831,3,10,-5,-12,-2,1,-4,-2
1532061757836,-4,-11,1,11,0,-1,6,0
1532061757841,5,-2,1,-5,3,2,1,0
1532061757846,-9,4,-4,-3,-7,-3,0,-1
1532061757851,-1,-9,-2,2,-1,1,-4,-5
1532061757856,-1,-4,0,7,-1,-2,4,2
1532061757861,-7,-6,0,-4,1,1,-1,-1
1532061757866,-3,7,1,-2,3,-1,-2,-5
1532061757871,1,-7,-3,-22,-2,-2,1,3
1532061757876,0,6,-3,7,-8,-4,-3,2
1532061757881,0,-6,2,6,2,0,1,2
1532061757886,-4,6,-3,-1,-1,1,4,-3
1532061757891,3,-4,-1,2,-1,1,-4,-4
1532061757896,1,13,3,1,2,0,9,3
1532061757901,0,1,-3,-9,-2,-1,-7,-3
1532061757906,-4,-7,-1,20,1,0,-1,-1
1532061757911,-10,-1,-1,-6,0,-1,-3,-8
1532061757916,4,3,0,-6,-3,-1,12,2
1532061757921,9,3,-1,3,0,0,7,12
1532061757926,-1,5,-1,-6,1,1,-9,-1
1532061757931,2,-4,-4,-7,-2,-2,-6,-2
1532061757936,-3,7,4,6,0,1,1,-3
1532061757941,5,-6,-4,0,1,-2,-8,-3
1532061757946,-9,-12,-2,-3,-2,-1,3,0
1532061757951,-2,1,-2,-12,-2,-2,0,0
1532061757956,6,7,4,17,2,0,-4,1
1532061757961,-3,-2,-3,3,-2,1,6,-6
1532061757966,-3,9,1,-9,-2,0,-3,2
1532061757971,-3,-29,-4,-4,-2,-1,-2,-3
1532061757976,-1,0,-2,5,-1,0,-1,1
1532061757981,17,6,2,-1,1,-1,2,2
1532061757986,-53,-12,1,-2,2,-1,-2,-12
1532061757991,13,5,-5,-8,-5,-2,7,1
1532061757996,-2,9,4,-6,-1,-1,-1,-3
1532061758001,-3,-16,-9,8,0,-2,-17,-3
1532061758006,15,-11,0,-2,-1,-2,1,4
1532061758011,-1,10,3,0,-2,-1,-5,-2
1532061758016,-6,-3,-1,-2,0,-1,12,7
1532061758021,-6,10,0,-10,-2,-3,-11,-7
1532061758026,8,2,1,18,2,-1,6,3
1532061758031,-4,5,0,13,1,1,-2,3
1532061758036,5,10,0,-27,-3,-2,-2,-1
1532061758041,-7,-28,-5,-2,-2,0,4,-2
1532061758046,6,2,1,3,1,-1,3,-2
1532061758051,-3,-7,-5,-12,-1,1,1,-1
1532061758056,-1,2,0,12,2,0,-8,-3
1532061758061,-3,10,2,0,2,0,2,-2
1532061758066,3,2,-2,-10,-1,1,-2,-2
1532061758071,0,9,3,7,0,-1,1,3
1532061758076,-3,-16,-7,-9,-2,0,-8,-1
1532061758081,-4,3,0,2,0,-1,3,-3
1532061758086,8,3,1,2,0,-1,-10,-2
1532061758091,-6,10,2,5,2,0,4,4
1532061758096,10,-12,-3,-11,-2,-2,-9,-4
1532061758101,-5,3,-1,13,-5,-1,3,-2
1532061758106,3,-1,-1,-7,-3,0,3,-3
1532061758111,1,-3,-2,-5,-1,-2,2,-1
1532061758116,-5,8,2,1,1,-2,-2,4
1532061758121,-3,-7,-1,5,1,-1,3,-3
1532061758126,7,10,-1,-18,-4,-1,-2,3
1532061758131,-3,-30,-3,6,0,-1,-3,2
1532061758136,0,0,-1,2,2,1,20,8
1532061758141,-1,8,2,-11,0,0,-14,-8
1532061758146,1,15,0,-4,1,-4,-3,0
1532061758151,-1,-8,-2,1,-2,-1,3,-6
1532061758156,-2,-10,-2,-3,2,0,-9,-2
1532061758161,-8,19,5,-4,-3,2,9,2
1532061758166,11,-14,-7,-3,-1,-2,0,3
1532061758171,-12,-4,-3,2,-2,-1,-4,-7
1532061758176,-5,12,0,-1,-3,-2,-4,-8
1532061758181,4,-19,0,10,-2,-2,4,2
1532061758186,14,7,-3,-6,-2,1,0,1
1532061758191,5,16,5,-1,2,0,2,5
1532061758196,-32,-35,-7,5,0,-2,-9,-10
1532061758201,-4,5,0,-2,-1,-1,2,0
1532061758206,-2,2,3,7,-1,-1,3,-2
1532061758211,2,5,1,-8,-1,-1,-2,14
1532061758216,12,4,1,1,-1,1,-8,-13
1532061758221,2,9,2,-1,-1,-1,0,-1
1532061758226,-12,-24,-6,9,0,-1,1,-2
1532061758231,-1,14,3,1,-1,-1,1,-3
1532061758236,-3,4,2,0,-4,-1,-2,5
1532061758241,2,-23,-8,-4,1,-2,-3,-1
1532061758246,-3,7,3,4,-1,0,4,2
1532061758251,18,11,1,7,-1,-3,-1,-5
1532061758256,-11,-12,-13,-28,-4,-2,3,-1
1532061758261,1,4,-1,-2,-4,-2,-3,-4
1532061758266,-8,-2,1,6,0,0,6,0
1532061758271,5,-1,-1,5,2,0,-9,-2
1532061758276,15,-4,3,12,1,-1,0,4
1532061758281,1,11,-2,-3,1,-2,9,0
1532061758286,-2,0,-2,-14,-4,-1,-17,-5
1532061758291,-7,-4,-1,0,-2,-1,-4,-2
1532061758296,7,-3,1,8,2,0,9,14
1532061758301,-1,3,6,4,0,1,-5,-4
1532061758306,-5,-22,-6,2,1,-1,0,-2
1532061758311,5,5,1,-6,-1,0,1,0
1532061758316,-25,3,-1,-4,-6,-4,-8,-8
1532061758321,23,3,-2,-8,-1,-1,9,11
1532061758326,-4,13,2,-4,-1,-1,-10,0
1532061758331,-4,2,0,0,2,0,3,0
1532061758336,9,0,5,7,2,1,4,-2
1532061758341,-31,6,-1,2,-3,-2,-4,-6
1532061758346,9,4,-1,0,0,-1,0,-5
1532061758351,1,-7,-18,-3,1,-1,-1,0
1532061758356,0,7,6,-1,-1,0,-2,-2
1532061758361,-1,-5,5,-2,-1,1,-7,-2
1532061758366,-2,-26,-6,-2,-1,0,-1,4
1532061758371,-6,3,6,5,0,-2,-3,-6
1532061758376,-2,0,-9,-15,-3,-1,1,3
1532061758381,12,9,0,2,2,1,-3,-6
1532061758386,-1,-7,2,0,-3,0,13,1
1532061758391,-4,-6,-6,-3,-2,-2,-12,-4
1532061758396,4,10,4,6,3,-1,-2,1
1532061758401,-2,3,-4,-6,-3,-2,-6,2
1532061758406,-7,-4,0,6,3,-1,2,-2
1532061758411,-1,2,-2,-3,0,0,3,-5
1532061758416,5,7,-1,-13,-5,-1,-1,0
1532061758421,-8,-43,-9,3,2,0,3,1
1532061758426,1,17,1,-14,-3,-1,0,-4
1532061758431,-4,-15,2,-2,-1,0,2,1
1532061758436,21,4,-10,4,0,-2,-2,1
1532061758441,-24,0,5,1,0,1,0,-1
1532061758446,4,2,-5,9,-1,-1,-2,-1
1532061758451,10,-7,15,-8,0,-2,-3,5
1532061758456,-11,11,2,5,0,1,0,-8
1532061758461,16,11,-13,-6,-2,-2,2,1
1532061758466,-50,-24,-2,2,2,0,-2,-3
1532061758471,10,4,5,6,-1,-2,-2,-6
1532061758476,4,4,-3,10,-2,-2,-1,2
1532061758481,-1,-7,1,-15,-3,-4,-1,1
1532061758486,11,0,5,5,1,0,1,2
1532061758491,-4,1,-5,-11,-1,0,2,-3
1532061758496,-4,-2,4,7,-1,-1,0,1
1532061758501,1,8,2,17,3,1,0,1
1532061758506,8,11,1,-8,-6,-3,-2,0
1532061758511,-6,-3,-4,-7,-2,-1,-1,0
1532061758516,-1,6,-1,6,1,0,0,-1
1532061758521,-3,-24,4,4,0,-2,0,-2
1532061758526,11,0,-7,0,2,-2,-3,-1
1532061758531,-8,1,4,-1,-1,0,0,-1
1532061758536,0,1,-7,1,-1,-1,0,-3
1532061758541,2,5,8,-12,-3,-1,-2,-5
1532061758546,-5,-4,-1,12,4,0,0,1
1532061758551,-3,-5,-11,-9,-1,1,-1,0
1532061758556,-3,-15,-7,-2,-4,-2,0,-1
1532061758561,4,15,3,3,1,0,0,1
1532061758566,-9,-12,-13,-29,-7,-3,-3,-6
1532061758571,9,16,-5,8,-2,-2,1,2
1532061758576,1,2,19,3,2,-1,-1,1
1532061758581,-1,-12,-3,-1,-1,-3,-1,1
1532061758586,-3,1,3,2,-2,-1,0,-2
1532061758591,-3,-3,-2,3,-1,-1,2,-1
1532061758596,-3,-11,-5,-12,-1,-2,-2,-1
1532061758601,0,9,-3,-2,1,-1,-1,-1
1532061758606,7,8,6,4,0,1,-2,-1
1532061758611,-5,-10,0,0,1,2,0,-2
1532061758616,1,2,7,3,3,0,-2,-2
1532061758621,5,4,0,8,-3,-4,-2,3
1532061758626,-6,2,-4,-6,-2,-2,0,-1
1532061758631,1,0,-4,8,0,-3,-1,-2
1532061758636,-1,-13,7,7,2,4,2,7
1532061758641,7,7,-16,-36,-16,-5,-6,-5
1532061758646,4,-3,3,5,-1,0,-5,-1
1532061758651,-5,4,5,-4,-3,-1,1,-3
1532061758656,-1,2,-1,11,5,0,0,0
1532061758661,-3,-3,-7,8,4,5,3,1
1532061758666,5,6,0,-6,-1,0,3,0
1532061758671,0,-2,-4,6,-1,-2,-4,-1
1532061758676,3,-4,-5,-10,-2,-2,0,-1
1532061758681,-6,-3,-2,0,2,0,-2,-1
1532061758686,2,3,-2,-9,-2,-1,0,-2
1532061758691,-4,-4,0,-2,0,0,-1,2
1532061758696,0,-1,-2,-3,-3,-4,0,-3
1532061758701,-3,1,1,4,1,-1,0,-3
1532061758706,17,4,-10,-3,-2,-2,-1,0
1532061758711,-33,-11,4,1,0,1,-2,-4
1532061758716,6,1,-3,-2,-1,-1,0,0
1532061758721,-1,-1,6,3,0,0,2,-2
1532061758726,1,-2,3,-1,0,-1,0,-1
1532061758731,0,-6,-12,-5,-3,-6,-3,-1
1532061758736,-4,1,-9,-1,0,0,0,-2
1532061758741,-3,4,12,7,5,2,0,0
1532061758746,-2,1,4,15,4,0,0,-1
1532061758751,6,-2,-2,-6,-9,-2,-1,-1
1532061758756,-7,0,4,3,-3,-1,-1,-2
1532061758761,7,-6,-16,-10,-2,-1,-2,0
1532061758766,-4,3,4,13,3,1,2,-1
1532061758771,20,12,-1,-5,2,0,0,2
1532061758776,-25,-19,12,8,0,-3,-3,-2
1532061758781,-5,-4,-14,-13,-5,-3,-1,-1
1532061758786,-5,-5,-2,-2,24,-3,-2,-4
1532061758791,4,3,2,1,-38,-3,1,3
1532061758796,4,1,-6,-7,-4,-3,-3,0
1532061758801,-2,3,12,23,-2,0,-2,1
1532061758806,-6,-9,-21,-19,-5,-3,-2,-3
1532061758811,-1,-1,-5,-9,13,-1,1,-3
1532061758816,-1,-4,1,-14,-3,2,1,1
1532061758821,-2,-1,3,5,-1,-1,0,-2
1532061758826,3,4,5,-3,-5,-4,-1,1
1532061758831,-4,-3,4,1,4,-2,-3,-2
1532061758836,3,3,1,11,10,8,1,-1
1532061758841,1,-1,-4,-13,2,-3,-1,0
1532061758846,-3,-1,-6,12,-4,2,0,3
1532061758851,-2,-3,-8,-21,-2,-3,-1,-1
1532061758856,-9,-5,-10,6,-1,-2,-1,-1
1532061758861,14,5,9,6,6,3,1,3
1532061758866,-4,-6,-3,0,-6,-4,-3,-3
1532061758871,2,3,6,-8,-6,-1,-2,1
1532061758876,-6,0,-9,5,3,-3,-1,-3
1532061758881,-5,1,-3,-1,-2,-1,-1,-2
1532061758886,-1,1,2,-1,-7,-1,-1,0
1532061758891,4,0,3,13,11,1,-1,-1
1532061758896,-7,-6,0,-9,-5,-3,-3,-2
1532061758901,0,2,-6,-2,-4,-1,1,-1
1532061758906,-16,2,5,1,0,0,-1,-2
1532061758911,-6,-1,3,4,5,1,-1,-4
1532061758916,12,7,-16,-12,-4,-3,-1,0
1532061758921,-5,-8,-20,4,-2,-4,-2,-2
1532061758926,2,-4,-8,-1,2,2,1,2
1532061758931,2,0,28,4,2,-2,-1,0
1532061758936,-1,-8,-41,-16,-3,-1,0,-3
1532061758941,-3,-4,-8,-15,-1,-2,0,-1
1532061758946,2,1,10,15,-10,-2,-1,0
1532061758951,-2,-3,-16,0,1,0,0,1
1532061758956,5,2,23,0,0,-1,-3,-2
1532061758961,-4,-3,10,8,3,1,1,0
1532061758966,3,3,-3,-5,3,0,-1,-1
1532061758971,-5,-9,5,0,-4,-1,-2,-1
1532061758976,3,-3,4,-5,-5,-2,0,-1
1532061758981,-1,2,-3,0,13,2,-2,-2
1532061758986,-1,1,5,-1,-8,-1,0,-2
1532061758991,1,0,-3,-9,-9,-3,1,-2
1532061758996,1,2,6,4,2,0,-3,0
1532061759001,-1,-3,7,6,-8,-1,0,-1
1532061759006,4,2,-11,-14,7,0,1,1
1532061759011,-3,-1,-3,8,10,3,0,0
1532061759016,1,0,4,12,2,1,0,0
1532061759021,1,6,18,4,-8,-2,-1,-1
1532061759026,1,-3,-11,-4,2,-1,-3,1
1532061759031,0,0,-7,-3,-3,2,0,1
1532061759036,0,3,6,-2,-3,-1,-1,-1
1532061759041,-2,-1,-1,7,3,2,-2,1
1532061759046,0,1,9,-4,-2,-1,0,-3
1532061759051,-2,-7,-13,0,2,-2,-2,-2
1532061759056,3,3,0,9,6,0,0,0
1532061759061,-3,-5,8,-4,-1,0,-2,-3
1532061759066,1,7,5,-2,-4,-1,0,-1
1532061759071,0,-2,7,8,2,-1,-1,0
1532061759076,1,1,16,1,2,-1,-1,-1
1532061759081,-1,-7,-7,-8,-8,-4,-1,-2
1532061759086,1,8,36,15,2,1,1,1
1532061759091,-2,-12,-52,-11,-3,-1,-2,-1
1532061759096,-2,-6,-5,-8,-6,0,0,1
1532061759101,8,6,7,5,0,0,-2,3
1532061759106,-13,-8,-18,3,-1,-1,-2,-1
1532061759111,-3,3,-8,-5,2,0,-1,-3
1532061759116,7,11,12,3,-2,0,-1,1
1532061759121,-4,-6,-15,-8,0,1,0,0
1532061759126,7,1,3,-1,-1,0,-1,-1
1532061759131,-1,2,5,4,1,-2,1,0
1532061759136,-7,-7,-12,-6,-3,-1,-1,-3
1532061759141,5,5,-2,1,2,-2,-1,-2
1532061759146,-1,0,16,-3,-3,-2,-1,-4
1532061759151,1,4,15,5,3,2,0,3
1532061759156,-2,-3,0,-1,0,-1,-1,1
1532061759161,-2,-1,-3,-3,-3,-2,1,1
1532061759166,2,4,11,1,0,-1,0,-1
1532061759171,-2,-3,12,7,-2,-2,-2,-2
1532061759176,2,5,7,-3,-1,-2,0,-1
1532061759181,-6,-4,-9,0,-2,1,-1,-1
1532061759186,-3,-4,-8,-8,1,0,-2,0
1532061759191,5,10,14,6,2,-1,0,1
1532061759196,-3,-6,-7,-10,-2,0,-2,-1
1532061759201,-4,-1,5,-1,1,1,-1,-4
1532061759206,2,-3,-7,1,-1,-1,0,1
1532061759211,0,0,1,-2,-1,-1,0,-2
1532061759216,-1,-3,-12,-5,-3,-3,-2,-2
1532061759221,-5,0,6,5,0,0,-1,-1
1532061759226,-1,-9,-14,-11,-1,-1,-1,-1
1532061759231,-4,-4,-6,-5,-1,0,-1,0
1532061759236,2,2,-1,1,1,0,1,-1
1532061759241,-3,3,-4,-4,-5,-4,-2,-4
1532061759246,2,2,-30,9,0,0,1,1
1532061759251,-6,-6,-5,-16,-6,-3,-2,-1
1532061759256,1,-2,5,1,-2,2,-1,0
1532061759261,-3,-1,-4,-2,-1,0,-2,0
1532061759266,17,-1,8,5,-2,-1,0,4
1532061759271,-22,-2,-2,0,0,0,-1,-7
1532061759276,-4,0,-12,-9,-3,-3,-1,-2
1532061759281,1,-2,3,0,0,-2,-1,-1
1532061759286,-3,0,0,-2,-1,0,0,-1
1532061759291,7,1,6,5,0,1,0,-1
1532061759296,0,1,2,0,0,0,-1,-3
1532061759301,-2,-7,-1,-4,-2,-1,-1,1
1532061759306,-4,0,6,5,4,1,-1,0
1532061759311,7,-1,-1,-5,-4,0,-1,2
1532061759316,4,6,-1,1,1,-1,0,-3
1532061759321,4,2,0,-1,0,0,0,1
1532061759326,-4,-1,1,2,1,-2,-1,-4
1532061759331,2,1,5,2,3,1,1,0
1532061759336,-8,-6,-9,-10,-6,-3,-3,-1
1532061759341,6,-2,3,1,1,2,0,1
1532061759346,1,3,-2,-9,-5,-2,1,-2
1532061759351,6,4,0,1,3,0,1,-1
1532061759356,-12,-7,0,6,2,0,-2,-3
1532061759361,-1,2,-2,-1,0,-3,0,-1
1532061759366,-12,-1,-2,-9,-5,-2,-1,-1
1532061759371,12,-9,-3,-1,-2,-1,-1,-1
1532061759376,1,3,-1,2,-1,-1,2,1
1532061759381,-4,-1,-2,-2,-1,-2,0,-1
1532061759386,25,-2,0,0,1,1,0,7
1532061759391,-24,-3,1,9,0,0,-2,-11
1532061759396,9,0,2,0,2,0,0,3
1532061759401,-1,0,-4,-3,-4,-2,0,-2
1532061759406,-4,-3,-2,-4,-2,-3,-1,-3
1532061759411,1,1,-1,0,-2,-3,-1,4
1532061759416,-2,0,2,1,0,0,-1,0
1532061759421,-4,2,3,1,1,1,0,-4
1532061759426,8,1,1,4,-4,-1,-1,-2
1532061759431,-16,-15,-7,-13,-2,-2,0,-2
1532061759436,2,1,4,5,1,-1,1,1
1532061759441,-2,-1,-6,-6,-2,-1,1,0
1532061759446,-6,-3,-1,-1,0,-1,-2,0
1532061759451,4,5,0,2,0,-1,-2,-3
1532061759456,0,1,-1,-2,-4,-2,-1,-1
1532061759461,2,-1,1,0,2,0,0,2
1532061759466,-9,-5,-3,2,0,0,-3,-3
1532061759471,4,3,1,0,-2,-1,-2,1
1532061759476,-2,1,-1,-3,0,-1,0,-1
1532061759481,1,-7,-4,-3,-4,-3,-2,-1
1532061759486,-7,1,-1,-2,1,1,0,-3
1532061759491,9,4,-4,-3,-3,-2,-1,2
1532061759496,5,-4,6,0,-2,-2,-2,-2
1532061759501,0,2,1,4,-2,0,-1,-2
1532061759506,-5,5,6,1,-1,0,1,-3
1532061759511,1,-7,-9,-2,0,-1,-1,1
1532061759516,-5,-6,-16,-14,-2,1,-2,-2
1532061759521,0,0,0,1,-4,-2,-1,1
1532061759526,1,-1,0,-2,-2,-1,-1,0
1532061759531,1,3,3,4,0,-2,-1,-2
1532061759536,-1,0,0,3,0,-1,1,-2
1532061759541,-2,-2,2,-1,1,0,-3,-2
1532061759546,-5,-1,-3,-1,-1,0,-1,-1
1532061759551,1,0,0,-1,-1,-1,-2,0
1532061759556,-2,-3,-1,1,-2,-3,-1,-2
1532061759561,-1,-1,-3,0,4,1,1,-2
1532061759566,-2,-4,-4,-2,-1,0,1,-3
1532061759571,-2,-1,0,-3,-1,-2,1,1
1532061759576,1,2,0,0,-3,-1,-3,1
1532061759581,-1,1,-4,0,-1,-1,-1,2
1532061759586,-3,-2,0,-2,-1,0,0,-2
1532061759591,1,1,3,1,1,0,1,-1
1532061759596,-1,-2,-1,-3,-3,-1,-1,0
1532061759601,-1,-1,0,1,0,-1,0,0
1532061759606,-1,0,2,5,3,0,0,0
1532061759611,0,0,-6,-13,-3,-1,0,0
1532061759616,-1,-1,0,3,0,-1,-2,-3
1532061759621,0,-1,-1,-3,-2,-1,0,-2
1532061759626,-1,0,1,0,0,-1,0,1
1532061759631,-3,-1,2,6,1,2,0,-1
1532061759636,3,5,-2,-2,1,-1,-1,1
1532061759641,-3,-11,-4,-2,-1,0,1,-1
1532061759646,-1,-6,-1,-1,-1,-1,-1,-1
1532061759651,0,0,1,0,-1,0,0,1
1532061759656,-5,0,0,0,1,0,-1,-4
1532061759661,3,0,0,2,0,-1,-1,1
1532061759666,-4,0,-3,-3,-2,-1,-1,2
1532061759671,-1,-2,-1,0,0,0,-1,-1
1532061759676,1,0,0,0,-2,-1,0,2
1532061759681,-1,3,0,-1,0,-1,-1,-2
1532061759686,-3,-2,-3,-3,-1,-1,0,-1
1532061759691,-1,1,0,-1,-1,-2,-1,-1
1532061759696,-2,-6,2,2,0,1,1,-2
1532061759701,-4,1,1,-1,-1,-1,-1,-1
1532061759706,1,1,1,-1,-2,-1,0,0
1532061759711,-2,-3,-2,0,1,-2,-1,0
1532061759716,-2,1,3,-1,-1,0,-1,-2
1532061759721,0,0,-1,0,-2,0,-1,-2
1532061759726,-4,-1,-1,0,1,-1,-1,-3
1532061759731,3,-2,-1,-1,-2,-2,-2,-1
1532061759736,-4,-3,-3,1,2,0,1,-1
1532061759741,1,1,-1,-5,-3,-3,-2,-1
1532061759746,0,2,0,-1,0,0,-1,-1
1532061759751,-3,1,2,3,-2,-1,-2,-2
1532061759756,1,-2,-3,-3,0,0,-1,-1
1532061759761,1,1,1,1,-2,-1,-1,-1
1532061759766,-4,-2,-2,-3,-1,-1,-1,-1
1532061759771,7,1,-1,-2,-2,0,-1,0
1532061759776,1,-2,-1,1,1,0,0,1
1532061759781,-2,-3,-2,0,1,-1,1,1
1532061759786,1,0,-4,-3,-1,-2,-1,0
1532061759791,-3,1,4,0,0,1,0,0
1532061759796,-2,1,0,1,0,-2,0,-2
1532061759801,1,-1,-1,-2,-1,1,0,0
1532061759806,-2,-4,-3,1,-1,-1,-2,-1
1532061759811,-10,-5,-5,-4,-2,-2,-2,-3
1532061759816,12,1,-3,-3,-2,0,-2,1
1532061759821,-3,0,1,-1,-2,-1,-2,-1
1532061759826,1,-1,2,0,-2,-1,-1,-1
1532061759831,1,2,2,7,0,0,0,-2
1532061759836,-5,-4,-4,-6,-2,-2,-2,-2
1532061759841,-1,-1,-1,0,-3,0,-3,0
1532061759846,1,-1,1,-1,-1,-1,-1,1
1532061759851,-1,-1,-3,-1,-1,-1,-3,-2
1532061759856,-2,3,3,5,1,0,-1,0
1532061759861,0,-1,-4,-1,1,1,0,-1
1532061759866,-3,-2,-3,-6,-1,0,-1,-2
1532061759871,1,1,2,1,-1,-1,1,1
1532061759876,-3,-3,-1,0,-1,-1,-2,-1
1532061759881,0,2,-2,-2,-2,-3,-1,-1
1532061759886,2,-2,0,-1,0,1,0,-1
1532061759891,-1,-1,-4,-1,0,1,-2,-4
1532061759896,-1,3,7,2,0,-1,1,1
1532061759901,-5,-3,-3,-4,0,-2,0,-3
1532061759906,0,1,0,1,0,0,-2,-1
1532061759911,-6,-2,1,0,-2,-2,0,0
1532061759916,6,-2,-3,-3,0,0,-3,0
1532061759921,-8,-1,1,1,-2,-1,-1,-3
1532061759926,5,0,1,0,0,-1,-1,-2
1532061759931,2,1,3,1,0,1,-1,1
1532061759936,-3,-3,-3,1,-1,-1,0,-2
1532061759941,0,-1,-1,-1,0,-1,0,0
1532061759946,-3,-3,-3,-6,-2,-2,-1,-3
1532061759951,-1,-2,0,2,0,-1,-3,-2
1532061759956,-3,0,-5,-5,-2,-2,-2,-1
1532061759961,1,-1,1,0,1,-1,0,0
1532061759966,-3,2,5,2,-2,-2,-1,0
1532061759971,2,-2,-7,-3,-1,0,-2,0
1532061759976,-3,2,-1,1,0,-1,0,-1
1532061759981,0,-4,0,-3,0,-2,-1,-1
1532061759986,-1,0,-3,-2,-2,0,0,-2
1532061759991,0,0,1,-1,-2,-1,0,-2
1532061759996,-2,-3,-2,-1,-2,0,-2,-2
1532061760001,-1,0,-2,1,0,0,0,-1
1532061760006,-2,1,4,4,-1,-1,-2,0
1532061760011,1,-1,-4,-5,-1,0,-1,0
1532061760016,-3,-2,0,-2,0,0,1,-1
1532061760021,2,-1,1,2,-1,0,-2,-1
1532061760026,-8,-2,-1,-1,-1,-1,-1,-2
1532061760031,9,0,1,0,0,-1,-1,-1
1532061760036,-3,-1,-3,-4,-2,0,-1,-2
1532061760041,1,0,1,-2,-1,2,1,2
1532061760046,-1,0,-4,2,2,-1,0,0
1532061760051,-5,0,1,-1,0,-1,0,1
1532061760056,0,-1,1,1,-3,-2,-2,-2
1532061760061,-1,-3,-2,-1,-2,0,-1,0
1532061760066,0,1,-2,-2,-2,-2,0,-1
1532061760071,0,-2,1,7,0,-1,0,-1
1532061760076,0,1,-3,-8,-3,0,-2,0
1532061760081,-1,-1,-2,-1,-1,-1,-1,-2
1532061760086,1,-1,-2,-1,-1,-2,-1,-1
1532061760091,-3,0,0,-3,-2,-1,1,0
1532061760096,1,1,2,4,1,0,0,0
1532061760101,0,-1,2,5,0,-1,-3,-3
1532061760106,-1,-1,-4,-6,-1,0,0,0
1532061760111,-1,0,1,-2,-1,-2,-1,-1
1532061760116,-1,-1,0,1,0,-1,-1,0
1532061760121,-1,1,-3,-2,-1,0,0,1
1532061760126,1,-2,0,3,0,-1,-2,-2
1532061760131,-1,-1,0,-1,-2,0,0,-1
1532061760136,0,-2,-1,0,0,-1,-2,-3
1532061760141,-1,0,-2,-2,0,0,0,1
1532061760146,1,-1,-2,0,0,0,0,1
1532061760151,-2,-4,-5,0,-1,-1,-1,1
1532061760156,-1,-1,-1,-1,0,-3,0,-1
1532061760161,1,0,-2,0,0,-2,0,-2
1532061760166,1,0,1,-1,-1,-1,0,1
1532061760171,-3,-1,-4,-3,-2,-2,-3,-1
1532061760176,0,1,3,2,0,0,-1,0
1532061760181,-2,-1,0,2,-1,-2,-1,-2
1532061760186,1,-2,-3,-5,0,0,-2,0
1532061760191,0,1,-1,-4,1,-1,-1,-2
1532061760196,1,-2,0,0,0,-1,1,0
1532061760201,-1,-1,-4,-2,-1,-1,0,0
1532061760206,-1,1,2,2,-1,-2,0,0
1532061760211,-3,-2,0,-4,-2,-1,-2,-1
1532061760216,-4,0,-2,0,-1,0,0,0
1532061760221,0,-1,-1,-1,0,0,-2,-1
1532061760226,0,-2,0,4,0,0,-1,-2
1532061760231,-1,-1,-3,-2,-2,-2,-1,-1
1532061760236,-1,-1,1,1,-2,-1,-2,1
1532061760241,0,-2,-1,-4,-1,-1,-1,-2
1532061760246,0,-2,-2,-2,-2,-1,-1,-1
1532061760251,-2,0,1,0,0,0,-1,-1
1532061760256,-2,-3,0,2,0,-1,0,0
1532061760261,-1,1,-2,-4,0,0,-2,-1
1532061760266,-3,-1,-1,0,1,0,0,-2
1532061760271,2,0,-1,0,-1,0,0,-1
1532061760276,-1,-2,-1,-1,-3,0,-2,-2
1532061760281,0,1,3,1,1,-1,0,0
1532061760286,-2,1,-3,-6,-2,0,-1,-1
1532061760291,0,-1,-4,0,2,-2,-3,-1
1532061760296,-1,1,5,-3,-5,0,0,0
1532061760301,0,-2,0,0,-2,0,0,1
1532061760306,-1,0,3,3,0,-2,-1,-3
1532061760311,-1,-1,-2,-3,1,0,2,2
1532061760316,0,-1,-3,-2,-1,-4,-3,-1
1532061760321,1,2,8,5,0,-2,1,-1
1532061760326,0,-2,-8,2,-2,0,0,0
1532061760331,0,-2,-6,-7,0,-1,0,-3
1532061760336,0,1,-2,-1,0,0,0,3
1532061760341,-1,0,0,-2,-1,-3,0,-2
1532061760346,-1,0,2,2,2,-2,0,-1
1532061760351,-1,-1,-2,0,-3,-1,-2,-1
1532061760356,1,0,-2,0,-1,0,2,-2
1532061760361,-1,-2,-3,-1,-1,1,-1,-1
1532061760366,-1,-1,5,3,0,1,1,0
1532061760371,-1,-1,-3,-1,-2,-1,0,-2
1532061760376,-1,1,0,-1,1,-1,-2,-2
1532061760381,-1,-1,-2,0,-1,0,-1,0
1532061760386,-1,-3,-3,-4,-3,-2,-2,1
1532061760391,0,0,1,4,0,0,-1,0
1532061760396,-1,-3,-6,-6,-1,-1,-1,-2
1532061760401,0,0,-2,-2,-1,-2,-2,-2
1532061760406,-1,-3,0,-2,-1,-1,-1,-1
1532061760411,0,2,7,9,1,1,1,0
1532061760416,0,-2,-10,-10,-1,-1,-1,-1
1532061760421,1,0,-3,0,0,-1,-2,-2
1532061760426,-3,2,4,-2,-2,-2,-1,-3
1532061760431,-2,-1,8,2,-1,-2,-3,1
1532061760436,-2,-1,-4,0,-1,-1,-1,-1
1532061760441,-3,-1,-3,-2,0,1,-2,-1
1532061760446,0,-2,-3,-1,1,-1,-1,-1
1532061760451,-1,1,1,0,-1,0,-1,-1
1532061760456,0,-1,4,3,-2,-1,1,-1
1532061760461,1,0,-4,-7,-1,0,0,0
1532061760466,1,-2,-1,3,0,-1,1,1
1532061760471,-2,0,-1,-8,-3,-2,-1,-1
1532061760476,0,0,1,2,0,0,-1,-1
1532061760481,0,-1,-1,0,0,0,0,-1
1532061760486,-1,1,-1,1,0,-1,0,-1
1532061760491,1,1,-1,1,1,0,0,-1
1532061760496,-1,1,10,-7,-3,-3,-1,-2
1532061760501,-2,-3,-9,-1,0,-2,0,1
1532061760506,-3,-2,7,-6,-3,-2,-2,-2
1532061760511,3,3,4,10,2,0,1,-2
1532061760516,-2,-7,-12,-5,0,-1,-2,-2
1532061760521,2,7,9,-8,-1,0,0,0
1532061760526,-1,-3,-12,0,0,-1,-1,0
1532061760531,2,-8,3,-10,-3,0,-3,-1
1532061760536,-13,-1,-8,8,2,-1,0,-2
1532061760541,-2,-4,-1,-7,-2,0,-2,1
1532061760546,1,6,-2,5,0,0,-1,0
1532061760551,2,-1,-4,-1,1,-2,1,0
1532061760556,4,4,10,17,3,0,0,1
1532061760561,-4,-6,-14,-20,-4,-3,-2,-4
1532061760566,-2,-1,2,-5,-1,-1,-2,-1
1532061760571,-6,-3,0,2,-2,-2,1,-3
1532061760576,7,1,-7,-9,0,0,0,1
1532061760581,30,6,17,13,2,1,-1,6
1532061760586,-42,-8,3,8,1,-1,-1,-6
1532061760591,-10,-1,-18,-18,-2,-1,-1,-6
1532061760596,-1,-1,6,4,1,-1,-1,-1
1532061760601,-4,3,1,10,-3,-3,0,-2
1532061760606,18,-3,6,-12,0,0,0,3
1532061760611,1,-1,-2,11,1,2,-3,1
1532061760616,-9,-4,0,-8,-3,0,0,-3
1532061760621,4,3,7,13,5,2,3,0
1532061760626,4,3,-15,-18,-10,-5,-2,0
1532061760631,-4,-3,4,3,1,2,-3,1
1532061760636,4,2,-2,-3,-2,-1,2,-1
1532061760641,2,-4,3,3,0,-1,-3,-2
1532061760646,2,5,2,5,2,-1,0,-2
1532061760651,1,-3,-4,-9,-4,-1,0,-2
1532061760656,0,-1,1,10,0,-2,-1,0
1532061760661,-9,-3,-3,-9,-4,-1,0,-1
1532061760666,1,-2,-9,-5,-2,-2,-2,-1
1532061760671,6,2,0,0,-1,-3,0,1
1532061760676,25,3,3,2,3,2,1,3
1532061760681,-40,-10,-5,-5,1,-1,0,-7
1532061760686,-3,-2,7,9,-3,0,-1,0
1532061760691,-6,-2,-3,0,-2,-2,0,-4
1532061760696,1,0,-4,-3,-1,-1,-2,-2
1532061760701,-4,-2,3,2,-2,0,-1,-2
1532061760706,18,3,-12,-8,1,1,0,0
1532061760711,6,2,29,16,3,1,0,1
1532061760716,-24,-2,5,-8,-5,-1,-3,-5
1532061760721,5,-6,-18,-5,-1,1,-2,-1
1532061760726,-4,-2,7,3,1,2,1,2
1532061760731,0,0,-8,-5,-4,-2,-1,-2
1532061760736,8,1,4,-2,0,-1,0,1
1532061760741,1,-1,2,2,-1,-2,0,2
1532061760746,-3,0,1,2,0,0,-1,-8
1532061760751,4,0,-7,-7,0,0,0,3
1532061760756,-3,-2,-5,0,-1,0,-2,-2
1532061760761,1,4,14,8,-2,-1,0,-2
1532061760766,1,-5,-7,-8,0,-1,-2,0
1532061760771,0,0,-4,-2,-3,-1,0,-1
1532061760776,-22,-2,3,1,0,-2,-2,-5
1532061760781,4,2,-6,-3,-2,0,-1,0
1532061760786,3,1,11,-2,-1,0,-1,2
1532061760791,-10,-1,-2,2,2,0,-2,0
1532061760796,14,0,5,6,0,0,-2,4
1532061760801,7,6,-5,-12,-6,-1,-2,-5
1532061760806,-22,-5,9,2,2,1,0,-4
1532061760811,3,0,-4,-1,-2,-2,0,4
1532061760816,2,1,3,1,0,1,1,-5
1532061760821,-3,-2,-9,-7,-1,-1,-3,-2
1532061760826,6,-7,-3,-6,-5,-3,-1,0
1532061760831,0,-3,-4,0,-1,-1,0,0
1532061760836,-1,-1,1,-3,-2,-1,-1,1
1532061760841,4,1,-10,3,1,0,0,2
1532061760846,-3,5,10,5,2,3,-1,-1
1532061760851,2,-1,1,-3,-1,0,0,0
1532061760856,2,0,5,3,0,-1,0,0
1532061760861,-5,-2,-4,1,0,0,-1,-4
1532061760866,10,2,-2,2,-1,0,0,2
1532061760871,-6,2,-3,0,0,0,-2,-2
1532061760876,2,-3,-10,-9,-3,-2,-1,-2
1532061760881,-1,-2,6,7,0,-2,0,0
1532061760886,-7,-2,-2,1,0,-2,-2,0
1532061760891,3,0,5,-7,0,-2,-3,-6
1532061760896,-2,-5,-16,-9,-4,-2,-2,-2
1532061760901,-1,-1,-3,-4,-2,-2,-1,0
1532061760906,0,-2,-6,0,-2,-1,0,1
1532061760911,4,2,1,4,-1,-2,0,1
1532061760916,-25,-4,-4,-4,-3,-1,-2,-3
1532061760921,3,-1,6,-5,1,0,0,1
1532061760926,5,1,-27,-5,-2,-2,0,-6
1532061760931,-12,0,6,4,1,1,0,2
1532061760936,7,2,-8,-1,1,-1,2,2
1532061760941,-4,-3,21,2,-1,-2,-3,-1
1532061760946,-4,-3,-1,1,0,0,1,-1
1532061760951,5,-7,-10,-5,-2,-2,-2,-1
1532061760956,-4,4,0,7,-1,-1,0,-2
1532061760961,1,-2,-11,-5,-1,0,0,-1
1532061760966,5,2,4,-3,0,-3,-1,1
1532061760971,-2,3,12,3,-1,0,0,0
1532061760976,-3,-12,-11,-2,-1,1,-1,0
1532061760981,0,0,-5,1,-2,-3,-2,-1
1532061760986,4,0,6,9,2,-1,0,1
1532061760991,-5,-7,-3,-13,-4,-2,-5,-5
1532061760996,4,0,-18,-6,0,-1,0,0
1532061761001,-2,-2,-1,1,1,1,0,0
1532061761006,0,-2,9,-3,-1,0,-1,1
1532061761011,-1,-2,-1,2,-1,0,-2,-3
1532061761016,6,1,2,0,1,1,0,2
1532061761021,-5,-3,5,-1,-2,-1,-2,-2
1532061761026,9,-1,-5,-1,0,-2,-2,3
1532061761031,-10,1,5,1,1,-1,0,-2
1532061761036,6,6,4,-3,1,2,0,-3
1532061761041,-8,-2,0,5,-1,1,0,-1
1532061761046,2,-2,5,0,-2,-1,-2,-3
1532061761051,5,-7,-22,-12,-2,-2,-1,0
1532061761056,1,0,7,3,-2,-1,-3,0
1532061761061,-1,-1,3,0,0,0,2,0
1532061761066,3,1,-4,0,-1,0,2,0
1532061761071,2,2,11,9,0,1,1,1
1532061761076,-2,-4,-3,-5,0,0,-2,-2
1532061761081,-1,-6,-5,-7,-4,-1,-1,-1
1532061761086,-6,-5,-15,-1,-2,-3,-2,-1
1532061761091,1,2,-5,1,-1,1,-1,-3
1532061761096,-7,-4,-4,2,0,0,0,1
1532061761101,-4,3,18,11,2,1,-2,-6
1532061761106,5,-3,-28,-17,-1,-1,-1,-1
1532061761111,-7,4,-1,6,1,0,0,-2
1532061761116,9,1,2,-4,-2,-1,0,0
1532061761121,1,1,-8,1,1,-1,0,2
1532061761126,-6,-1,13,0,-2,0,-1,-1
1532061761131,-1,0,4,-2,-1,-2,-1,-3
1532061761136,-1,-5,-6,-4,-1,0,-1,-3
1532061761141,-2,3,-10,-3,-1,0,0,-3
1532061761146,-1,3,20,9,1,0,-2,1
1532061761151,1,-4,-24,-5,1,-1,0,-1
1532061761156,-4,3,12,5,-1,-2,-1,-1
1532061761161,3,0,-8,-2,-2,0,-1,-1
1532061761166,-4,-6,-11,-14,-6,-3,-2,-2
1532061761171,-2,-2,0,2,-1,-1,-2,-1
1532061761176,1,0,-2,5,0,-1,0,0
1532061761181,1,-4,-1,-6,-1,-1,-1,-1
1532061761186,-2,7,15,9,2,0,3,-1
1532061761191,-2,-14,-12,-18,-5,-3,-4,0
1532061761196,-6,-2,2,-5,-4,-3,-1,-5
1532061761201,1,-1,-6,-9,-1,-1,-2,2
1532061761206,3,9,29,13,-2,0,-2,-2
1532061761211,5,5,14,5,0,1,0,4
1532061761216,-4,-9,4,-2,1,-1,-2,-4
1532061761221,2,0,7,12,-2,-2,-1,0
1532061761226,-6,-4,-13,-16,-2,-1,-1,-2
1532061761231,-4,-2,-11,1,-1,-1,1,-4
1532061761236,1,6,3,-2,-1,1,1,1
1532061761241,5,-2,21,4,-2,-1,-2,2
1532061761246,9,-12,-52,-12,-3,-1,-1,1
1532061761251,-2,5,3,10,0,0,1,-3
1532061761256,-2,-1,0,-9,0,1,-2,-1
1532061761261,-1,-2,-12,-7,-3,-2,0,-2
1532061761266,1,-1,1,4,1,-1,1,0
1532061761271,3,5,0,-4,0,0,0,2
1532061761276,6,4,5,10,2,0,1,0
1532061761281,0,-1,7,2,0,1,-2,0
1532061761286,-23,3,-7,-13,-1,-2,-2,-6
1532061761291,24,-5,0,10,1,0,0,8
1532061761296,-8,2,-10,-2,-2,-1,-1,-5
1532061761301,-3,-5,-19,-8,-2,-2,-3,-4
1532061761306,1,4,21,10,1,1,1,-1
1532061761311,-9,1,-2,-3,0,-1,0,-4
1532061761316,9,-3,4,-3,-2,-2,-3,3
1532061761321,-1,5,-3,0,-2,-2,1,-1
1532061761326,-4,-13,25,12,0,-1,-3,-1
1532061761331,-6,-4,-25,-27,-5,-3,-2,-2
1532061761336,2,-4,-15,0,-1,-2,0,0
1532061761341,-4,4,19,11,2,-1,-1,0
1532061761346,2,0,6,-11,-3,-2,0,0
1532061761351,-5,-2,-5,7,-3,-1,-2,-4
1532061761356,5,-2,7,5,1,0,0,3
1532061761361,-22,-3,-19,-1,0,0,-2,-2
1532061761366,5,8,7,7,3,1,-1,-1
1532061761371,1,-3,1,1,-1,-1,0,-1
1532061761376,-10,-2,-3,-8,-2,-1,-1,1
1532061761381,1,0,0,9,-2,0,0,-5
1532061761386,2,-1,-2,-1,0,-1,0,1
1532061761391,-10,1,-1,-5,0,0,-1,-3
1532061761396,5,1,4,3,0,-1,0,1
1532061761401,4,-2,5,-2,-1,-1,-1,2
1532061761406,-5,-2,-9,-4,-1,-2,-2,-1
1532061761411,5,1,12,4,0,0,2,-2
1532061761416,-3,-2,-4,-4,-2,-1,-1,1
1532061761421,2,0,2,-4,0,-2,-1,0
1532061761426,-3,-3,-10,-3,-1,-2,-1,-4
1532061761431,-1,4,13,8,-2,0,0,0
1532061761436,-4,0,8,-6,-1,-2,-1,-4
1532061761441,0,0,-7,-8,-3,-1,1,-1
1532061761446,3,1,-10,6,-1,-1,-2,2
1532061761451,-2,0,1,-15,-2,-2,1,0
1532061761456,-8,-1,7,7,-1,-1,-2,-4
1532061761461,11,0,-3,-4,1,2,1,5
1532061761466,-10,-4,-1,-4,-3,0,0,-1
1532061761471,26,1,11,8,1,-2,-1,3
1532061761476,-25,-1,-13,-12,-4,-2,-2,-7
1532061761481,-3,-3,6,7,2,0,2,-1
1532061761486,1,-5,-17,-5,1,1,-2,0
1532061761491,-5,6,14,0,0,0,-1,3
1532061761496,5,0,26,19,3,0,-2,-4
1532061761501,3,0,-21,-21,-4,-2,0,2
1532061761506,1,-4,-18,-7,-2,-1,-1,-1
1532061761511,-24,-8,-2,-1,-3,-3,-3,-5
1532061761516,7,-1,-5,-2,-1,0,0,1
1532061761521,-6,3,15,9,1,0,-1,-3
1532061761526,3,-4,-8,-8,0,1,1,0
1532061761531,-1,-2,-11,7,-2,-1,-1,-1
1532061761536,-11,-2,-23,-19,-2,-3,0,0
1532061761541,17,-16,-32,-11,-4,-4,-5,0
1532061761546,3,6,15,22,4,0,0,1
1532061761551,-6,-5,0,-4,0,-2,-2,-4
1532061761556,3,-2,-21,1,1,1,0,-1
1532061761561,-4,7,0,-1,-2,-1,1,-2
1532061761566,1,6,34,8,1,-2,-3,1
1532061761571,5,3,7,5,4,1,1,0
1532061761576,1,-10,21,12,1,2,-3,-1
1532061761581,-6,-7,6,-4,-2,0,-1,0
1532061761586,1,2,16,17,3,1,-1,-1
1532061761591,-1,-1,-21,-23,-4,0,0,-1
1532061761596,6,9,6,3,-2,-2,2,2
1532061761601,-3,-3,1,4,1,-1,-1,-2
1532061761606,-4,-6,-50,-19,-2,-3,1,-4
