1532381707849,-1,-3,-1,-1,-5,0,-6,0
1532381707854,-2,-2,-1,-5,-8,-17,-1,-2
1532381707859,-1,0,1,0,0,13,0,1
1532381707864,-1,0,1,0,-3,-11,1,-2
1532381707869,0,0,-2,-3,-4,0,1,0
1532381707874,1,-2,-2,-2,5,-7,0,-4
1532381707879,0,-3,-1,0,-3,-9,1,-1
1532381707884,1,-1,0,3,-1,-4,-1,0
1532381707889,-1,1,0,3,2,0,-1,-1
1532381707894,-1,0,-1,-2,1,4,1,-2
1532381707899,-1,-1,-1,-4,0,0,2,4
1532381707904,-1,-4,-3,0,-1,2,1,-2
1532381707909,-1,-1,1,1,-6,-6,-2,0
1532381707914,0,-1,-1,0,-4,4,-2,-1
1532381707919,0,0,-2,0,0,0,0,-4
1532381707924,-1,0,1,0,-5,-21,1,0
1532381707929,-1,-3,-2,-3,4,15,4,-2
1532381707934,-1,-1,-1,2,0,-1,-3,-1
1532381707939,2,0,3,-1,0,0,-2,-3
1532381707944,1,1,-2,-3,-1,15,-1,0
1532381707949,0,0,2,1,2,-16,1,-3
1532381707954,0,-2,-2,-5,0,9,-1,1
1532381707959,-3,-2,-2,4,1,-2,0,2
1532381707964,-1,0,-1,-3,0,-4,-3,-1
1532381707969,-1,-1,1,-1,1,4,-6,-2
1532381707974,-2,1,0,5,0,16,-1,-1
1532381707979,-2,0,-2,-8,-2,-1,-3,-2
1532381707984,-1,-2,0,-3,3,1,-2,1
1532381707989,-1,-3,-3,1,-4,-19,1,1
1532381707994,2,-2,-3,-4,0,13,3,1
1532381707999,1,0,0,3,-6,-3,4,0
1532381708004,-1,-1,2,2,2,2,6,-1
1532381708009,-2,-1,1,-3,-4,-4,-3,-2
1532381708014,-1,0,-3,2,0,-12,0,2
1532381708019,-2,-1,-3,-1,-1,2,-3,-1
1532381708024,-2,0,0,0,0,20,1,1
1532381708029,0,1,-1,0,2,-2,1,-2
1532381708034,-1,-1,2,0,0,1,7,-1
1532381708039,-1,-1,-1,-1,-2,-15,-3,0
1532381708044,2,-2,-1,-4,2,12,-4,-2
1532381708049,-1,-3,-2,-1,2,10,0,1
1532381708054,-1,-3,0,-1,-1,-4,-3,0
1532381708059,1,0,0,-2,-5,-24,-4,-1
1532381708064,-1,0,-1,0,-1,12,2,-1
1532381708069,-1,1,0,10,0,3,5,2
1532381708074,-1,-4,-3,-11,-6,-7,-2,0
1532381708079,0,-1,-2,-4,0,1,-1,-2
1532381708084,-1,-2,0,-2,-2,-17,-1,-4
1532381708089,-1,0,-1,2,2,7,3,-1
1532381708094,-1,-1,1,7,-2,-9,5,-2
1532381708099,0,-1,0,-2,-1,10,0,0
1532381708104,-3,-1,-4,-5,-7,-19,-1,-1
1532381708109,0,-1,-1,0,-1,19,2,-1
1532381708114,0,0,0,2,-3,-7,-5,-1
1532381708119,-1,-2,-1,-2,2,13,5,0
1532381708124,-1,-1,2,1,-5,-22,-3,-2
1532381708129,-2,-2,-3,-3,7,5,-6,-4
1532381708134,-2,-1,-4,-1,-1,-6,-2,1
1532381708139,2,2,0,2,2,9,3,-3
1532381708144,0,-1,-2,1,-1,-12,3,-1
1532381708149,0,1,-2,-2,2,8,3,1
1532381708154,-2,2,2,-2,-2,3,0,-2
1532381708159,-1,-1,-1,2,0,0,0,3
1532381708164,-1,0,0,2,-5,0,-1,2
1532381708169,-2,-1,-7,-6,-6,-10,-1,-4
1532381708174,2,-1,-1,-4,4,14,3,-2
1532381708179,-1,-1,-1,-1,-3,-4,3,-2
1532381708184,-1,0,3,2,4,3,0,-1
1532381708189,0,-3,-1,-4,-4,-3,-3,2
1532381708194,-2,-1,-2,-1,-2,-18,-2,-1
1532381708199,-1,-1,0,0,7,13,-4,0
1532381708204,0,0,-1,3,5,3,0,-2
1532381708209,0,1,0,-1,0,-4,-3,-1
1532381708214,-2,-2,-2,3,-3,-12,2,-1
1532381708219,-1,-3,-3,-6,-2,10,2,-1
1532381708224,0,0,-2,-4,-1,5,1,-1
1532381708229,-1,0,3,0,-2,-10,1,0
1532381708234,-2,0,2,4,3,1,-1,-2
1532381708239,-4,-1,0,5,3,18,-7,0
1532381708244,-2,-1,-4,-3,-2,0,-1,-2
1532381708249,-1,-2,-1,-7,-8,-2,0,5
1532381708254,-1,-2,-2,-2,-2,-16,0,-2
1532381708259,-2,1,1,2,3,-1,-1,0
1532381708264,1,-1,0,-1,-2,-5,2,-6
1532381708269,-1,0,4,2,-1,-5,1,-4
1532381708274,0,0,0,2,-3,5,0,1
1532381708279,0,-1,-2,-1,-6,-12,-3,-1
1532381708284,-1,-2,-4,-6,-8,-5,-6,1
1532381708289,-1,-1,-1,4,4,6,-4,-1
1532381708294,1,-1,-3,-5,7,5,7,0
1532381708299,-2,-2,0,-3,0,-6,0,-2
1532381708304,-1,-1,1,1,0,-7,-2,0
1532381708309,-1,-3,-4,1,-4,11,-2,0
1532381708314,0,1,-4,-4,1,3,-5,-1
1532381708319,0,-2,-2,-1,1,-18,-2,0
1532381708324,0,-1,-1,-1,7,13,-2,-1
1532381708329,-2,0,1,-3,-3,-11,2,-2
1532381708334,0,-2,-1,4,-2,3,2,0
1532381708339,0,-2,-2,-4,-12,-14,4,0
1532381708344,0,-1,3,0,-1,10,4,-1
1532381708349,0,1,-1,-1,-4,-19,2,-1
1532381708354,-1,-1,1,-1,-2,3,-1,-1
1532381708359,-2,1,-1,2,3,-1,-7,-5
1532381708364,-1,-2,-4,-4,1,-3,4,9
1532381708369,-1,-1,-2,-2,3,8,-3,-6
1532381708374,-1,-3,-3,-1,-3,-4,-2,-2
1532381708379,0,1,3,2,0,1,-5,-1
1532381708384,0,-1,-3,2,0,19,-4,0
1532381708389,-2,-1,-1,3,1,-5,-4,2
1532381708394,0,-2,1,-2,-6,4,0,1
1532381708399,-2,-1,-1,-3,9,6,0,4
1532381708404,0,-1,-3,4,9,-7,5,-3
1532381708409,1,-2,1,-1,5,-6,6,-1
1532381708414,0,1,2,1,1,11,-2,-4
1532381708419,1,0,-1,2,0,4,3,0
1532381708424,-1,-2,-4,-8,-6,-6,0,-3
1532381708429,2,2,-1,1,-3,-2,0,0
1532381708434,-1,0,0,-3,-9,-4,-3,-1
1532381708439,-2,-2,0,4,-8,-3,3,-2
1532381708444,-1,1,0,-1,-1,-8,-6,-2
1532381708449,1,-1,-4,-2,-2,7,-4,-2
1532381708454,-1,-1,0,-2,0,-11,2,0
1532381708459,-1,-1,-4,-2,0,5,-1,-5
1532381708464,-3,-1,-2,2,-2,-14,6,-1
1532381708469,-1,-3,-1,-4,-4,3,3,0
1532381708474,-2,0,-2,-1,4,7,-10,-1
1532381708479,0,1,2,3,1,-20,-5,0
1532381708484,0,-1,-4,-5,-6,-6,-3,-2
1532381708489,0,2,1,3,-3,3,0,-1
1532381708494,-1,-1,-3,-3,-2,6,4,-2
1532381708499,0,0,-1,-5,-2,3,2,0
1532381708504,0,-1,2,4,-1,-3,2,0
1532381708509,-1,-2,-4,2,3,8,4,0
1532381708514,1,-1,-1,-1,2,-4,-4,-1
1532381708519,-1,0,-1,-2,1,0,4,2
1532381708524,-2,0,2,2,4,10,3,0
1532381708529,-2,-1,-3,-6,4,-7,-3,-1
1532381708534,-1,2,1,1,6,0,-1,0
1532381708539,0,-3,-5,-10,-5,-2,3,-2
1532381708544,-1,-1,-1,0,1,-2,-3,-2
1532381708549,0,-1,3,3,-3,3,-5,-1
1532381708554,0,2,-4,-2,-1,0,2,1
1532381708559,-1,-1,-2,-4,-7,-2,3,-3
1532381708564,0,0,0,2,-6,0,-5,-5
1532381708569,-2,-1,2,-9,-6,3,-1,3
1532381708574,0,-2,-2,1,-1,-3,4,-2
1532381708579,-1,-2,0,8,5,-5,-5,1
1532381708584,1,-1,-2,-4,3,11,-2,-2
1532381708589,0,0,-1,-3,-1,8,-1,0
1532381708594,-1,0,4,3,3,7,4,2
1532381708599,-1,1,0,-3,-3,-4,2,1
1532381708604,-2,-2,-2,-5,-10,-11,1,1
1532381708609,-1,-1,-4,-2,-7,-8,-3,-1
1532381708614,0,-2,-1,-2,-8,-3,2,-3
1532381708619,1,2,-1,1,-1,16,-2,-2
1532381708624,-1,-4,2,2,-2,-8,-3,-1
1532381708629,0,-2,-1,1,0,-2,-2,1
1532381708634,-3,-1,-1,-1,-2,-2,-1,-2
1532381708639,-1,-2,1,2,1,-1,-2,-1
1532381708644,0,0,-3,-4,-2,-10,-1,-1
1532381708649,-2,0,0,-2,-2,-19,3,-1
1532381708654,-1,-1,-6,-3,3,37,2,0
1532381708659,-1,-4,-3,2,-4,-8,1,-1
1532381708664,-1,0,1,2,5,1,0,-1
1532381708669,-2,0,1,1,1,-7,4,-3
1532381708674,-1,-1,2,4,-4,-21,-6,0
1532381708679,-1,0,0,0,3,-2,-1,-1
1532381708684,1,-1,0,2,0,7,-5,3
1532381708689,-1,1,-1,-7,2,-2,-4,-5
1532381708694,-1,-4,-4,-5,-2,-6,1,7
1532381708699,-1,-1,-1,-1,0,5,3,-2
1532381708704,0,-1,-1,2,1,-5,0,-2
1532381708709,-2,-1,2,5,3,7,0,-1
1532381708714,-1,-1,2,1,-1,-20,-2,-4
1532381708719,-2,-2,-4,-6,7,7,0,-2
1532381708724,-1,2,-1,-3,0,12,4,1
1532381708729,0,-1,-1,-1,-4,1,2,-1
1532381708734,-1,-2,1,1,1,2,0,-2
1532381708739,0,-1,1,-4,-6,-6,1,-1
1532381708744,-2,-1,-3,3,1,3,0,-1
1532381708749,-3,-2,-2,-5,-2,-17,-2,1
1532381708754,1,0,-1,-2,0,-6,-3,-1
1532381708759,1,0,1,3,1,13,-1,-1
1532381708764,-2,0,-2,0,-4,-3,0,0
1532381708769,0,0,-4,-7,-5,-2,0,1
1532381708774,-1,1,1,2,1,-10,0,-1
1532381708779,0,-2,-1,1,-1,-2,1,-1
1532381708784,1,0,0,0,5,-2,1,-5
1532381708789,-1,-1,0,2,2,9,5,5
1532381708794,-2,0,-1,-5,-3,-23,-2,-1
1532381708799,0,-1,0,3,5,24,-3,3
1532381708804,-1,-2,-3,-2,-1,-5,-2,-3
1532381708809,0,-1,1,-1,-1,2,-1,0
1532381708814,0,-1,-2,-1,-1,3,2,0
1532381708819,-2,-3,-4,-3,-6,-5,3,-3
1532381708824,-2,0,1,2,4,12,5,3
1532381708829,-2,-1,-3,-4,-3,-12,1,-4
1532381708834,-2,-4,0,0,3,6,-3,-1
1532381708839,-2,-1,0,-1,-2,-11,-1,-1
1532381708844,-2,-2,-1,-2,1,8,-2,0
1532381708849,0,1,1,8,0,2,-2,-3
1532381708854,-2,-1,-2,-6,3,-4,-1,-1
1532381708859,0,-1,-3,-5,2,-3,3,1
1532381708864,0,-1,3,0,-3,-1,-1,0
1532381708869,-1,-2,-7,-2,-5,2,-1,1
1532381708874,0,1,1,0,-7,5,-3,-1
1532381708879,-1,-2,1,3,3,-6,-5,0
1532381708884,0,-1,-4,-1,0,6,2,-2
1532381708889,0,0,3,0,-3,0,0,0
1532381708894,0,-1,0,-2,-4,6,2,-7
1532381708899,-1,0,-1,-5,-6,-9,0,-4
1532381708904,0,0,0,1,2,7,-2,-2
1532381708909,1,-3,0,2,0,-11,-3,-2
1532381708914,-1,-1,-3,-4,3,16,1,2
1532381708919,0,0,2,6,3,6,5,2
1532381708924,0,-1,-4,-5,-2,-18,-3,0
1532381708929,-2,1,4,3,0,11,1,3
1532381708934,0,-2,-3,-3,-2,-9,3,0
1532381708939,-2,-1,-1,-3,-2,1,-4,-1
1532381708944,-2,-2,-1,0,-3,0,4,0
1532381708949,0,0,-4,-2,-4,-9,1,0
1532381708954,1,-2,-1,-3,-2,-2,-8,1
1532381708959,0,1,-1,-1,2,7,-7,0
1532381708964,1,1,1,1,2,1,-4,-1
1532381708969,-1,-1,2,-1,-1,-26,-1,1
1532381708974,0,-1,-3,-3,1,0,2,-2
1532381708979,0,-1,-2,-2,-1,-6,-3,-2
1532381708984,-2,-3,-1,3,-2,-3,-3,-1
1532381708989,-2,1,-1,-6,2,8,-1,-2
1532381708994,-1,2,0,1,-2,-4,3,2
1532381708999,2,-1,-1,3,1,-5,4,0
1532381709004,0,0,-4,-7,-4,9,1,-1
1532381709009,-3,-2,0,-3,1,0,0,-2
1532381709014,-2,1,0,3,4,-5,1,0
1532381709019,-1,1,4,1,1,4,3,-2
1532381709024,-1,-1,-5,2,0,-1,0,-1
1532381709029,0,-2,-2,1,2,-8,2,0
1532381709034,0,-1,2,-3,-3,-1,-1,0
1532381709039,-2,-3,-2,-5,-7,-17,5,1
1532381709044,-2,0,-1,-3,0,15,-1,-1
1532381709049,0,-2,0,-1,-4,8,-5,-1
1532381709054,-1,-3,1,4,-1,-4,-5,-3
1532381709059,0,-1,-1,0,-4,2,9,2
1532381709064,0,1,-1,2,-5,-7,5,-1
1532381709069,-2,0,-3,-6,-4,4,0,-2
1532381709074,0,1,-2,-1,-1,-2,-1,0
1532381709079,-1,-2,-1,0,-2,8,-7,-3
1532381709084,-2,-1,0,-2,3,-9,-6,-1
1532381709089,0,-1,-1,4,7,-1,-1,-1
1532381709094,-1,0,-1,-2,2,1,-1,-3
1532381709099,0,-1,2,3,4,1,1,-2
1532381709104,-1,-1,1,-1,-3,-5,1,1
1532381709109,-2,1,0,-7,-8,-4,-3,-3
1532381709114,-2,-4,0,4,5,5,-2,1
1532381709119,0,-2,-2,4,2,7,0,0
1532381709124,-2,0,-1,-3,-1,-3,3,-1
1532381709129,-1,-2,0,4,-1,0,1,-3
1532381709134,2,1,0,-4,-2,-7,-1,-1
1532381709139,-1,0,-4,-3,-2,4,-2,-1
1532381709144,-2,-2,-5,-4,-4,-6,-3,0
1532381709149,0,0,-5,-4,0,3,3,0
1532381709154,0,0,1,3,-5,-4,3,-2
1532381709159,0,0,3,1,2,-1,-1,-1
1532381709164,0,-2,2,-1,0,-2,-1,-4
1532381709169,-1,-1,-3,3,2,-8,-2,4
1532381709174,-1,1,-1,-1,2,1,0,0
1532381709179,-2,-2,-1,-8,-7,-21,-5,-3
1532381709184,0,-1,4,2,1,13,1,0
1532381709189,-2,-1,2,0,-3,2,2,-1
1532381709194,-2,-2,-2,3,-1,-5,0,-2
1532381709199,0,-1,-4,-3,-2,-3,-3,-1
1532381709204,0,-1,1,-1,-3,-4,-1,-1
1532381709209,-2,1,1,2,0,-7,-2,-3
1532381709214,0,-1,-2,-3,-3,1,1,3
1532381709219,-1,-1,-1,-2,-2,8,0,-1
1532381709224,-1,-3,-2,1,-1,-9,-1,1
1532381709229,2,1,0,-4,1,4,2,-2
1532381709234,-2,-2,0,-1,-2,-1,-2,-1
1532381709239,-1,1,1,2,2,-3,-1,0
1532381709244,-1,-1,-6,0,-1,13,-1,0
1532381709249,-1,-1,0,-6,3,-6,4,-1
1532381709254,-2,-2,-3,1,0,8,0,1
1532381709259,-1,-1,0,-2,-3,9,0,-2
1532381709264,-1,2,2,4,1,-9,1,-1
1532381709269,-1,-3,-1,-4,-3,5,-6,0
1532381709274,-1,-1,2,3,2,-1,0,2
1532381709279,1,0,-4,-6,-4,-7,-2,-1
1532381709284,-1,0,0,-3,-1,-12,-4,-2
1532381709289,1,0,0,5,-4,16,-1,-3
1532381709294,-1,-3,-3,-5,-1,-13,-5,-3
1532381709299,-3,0,-2,3,2,5,-1,2
1532381709304,-1,0,-1,-1,-2,-4,4,2
1532381709309,1,-2,1,6,-1,-4,3,0
1532381709314,2,-1,-5,-3,1,18,0,-1
1532381709319,-2,-1,0,-5,0,-13,1,-1
1532381709324,-2,-1,-2,-2,3,27,1,-2
1532381709329,-2,1,3,3,1,-17,-2,-1
1532381709334,-2,0,2,0,-7,-7,2,-3
1532381709339,0,0,1,4,-1,4,1,-1
1532381709344,1,-4,0,-2,-5,-10,-2,0
1532381709349,-1,-2,-3,-3,-4,3,-3,0
1532381709354,1,-1,-2,-5,-1,-3,1,1
1532381709359,-1,-1,-5,-6,5,1,-1,-1
1532381709364,-1,2,3,4,7,-4,-1,0
1532381709369,-1,0,-2,-2,6,-3,-1,0
1532381709374,-2,-1,-1,3,0,3,1,-3
1532381709379,-2,-2,1,0,-3,-5,2,-3
1532381709384,0,-1,-5,-8,-4,8,1,0
1532381709389,0,-1,-1,-4,-8,4,-3,1
1532381709394,0,1,-2,4,6,-4,0,-2
1532381709399,2,0,4,4,-1,-1,0,1
1532381709404,1,-2,-2,-5,-3,-10,0,-2
1532381709409,-2,-2,-3,-1,4,1,-2,-2
1532381709414,-2,0,0,0,0,-11,-1,-1
1532381709419,0,-2,0,2,1,13,-2,0
1532381709424,-2,1,0,-2,-3,-12,-2,0
1532381709429,0,-2,-3,-4,-8,3,-9,-2
1532381709434,-2,0,0,0,-5,1,-3,-2
1532381709439,0,0,-3,-6,1,-3,1,-3
1532381709444,-1,1,0,1,1,-1,-1,-5
1532381709449,0,-4,-1,-3,-4,1,5,3
1532381709454,0,-2,-2,-1,-4,-6,4,-2
1532381709459,-1,0,0,-2,9,29,6,2
1532381709464,-1,0,4,1,-1,0,-2,-1
1532381709469,0,-3,-5,1,5,-7,-1,-4
1532381709474,0,-1,-1,-8,2,-1,-3,-1
1532381709479,-1,-1,-1,0,-7,-15,1,0
1532381709484,1,-1,-1,-1,1,-3,-4,1
1532381709489,-2,0,3,4,3,4,0,0
1532381709494,-1,-2,-2,-4,0,0,-6,-1
1532381709499,-1,-1,-2,-2,0,-4,-8,-4
1532381709504,1,1,-2,-3,-1,2,4,0
1532381709509,0,0,-2,1,-5,-14,8,0
1532381709514,0,0,0,4,4,10,1,-1
1532381709519,-1,-1,-3,-2,-4,-1,-8,-4
1532381709524,-2,0,-1,0,-6,-11,0,-2
1532381709529,1,-3,3,2,-4,4,0,1
1532381709534,0,-1,-1,-3,-5,-6,2,0
1532381709539,0,-1,-4,-5,1,-5,0,1
1532381709544,0,-2,3,4,6,-12,1,1
1532381709549,-2,-1,-6,-10,3,5,1,-4
1532381709554,1,-1,0,3,0,4,0,0
1532381709559,0,0,1,1,-1,-7,-1,-2
1532381709564,-1,-1,-3,-3,-4,-1,-3,4
1532381709569,-1,0,1,3,1,7,-3,-1
1532381709574,0,-2,-1,-2,-2,-4,-2,-1
1532381709579,-1,-2,-1,4,-4,-6,7,0
1532381709584,-1,-1,-2,-1,1,6,6,-2
1532381709589,-2,2,3,2,-6,-24,-1,-2
1532381709594,0,-3,-1,0,-2,25,-2,-3
1532381709599,-1,1,-1,-5,-2,4,1,-2
1532381709604,-2,-2,0,-4,-2,-1,3,-3
1532381709609,0,0,-2,-2,1,5,0,-2
1532381709614,-3,1,-3,-6,-5,-20,6,-2
1532381709619,-1,0,0,1,-1,-5,1,2
1532381709624,1,1,0,-3,0,0,3,-4
1532381709629,1,0,1,2,-2,4,4,-1
1532381709634,-2,-2,1,0,-4,2,-1,0
1532381709639,-1,-2,-2,-4,-2,0,0,0
1532381709644,0,-2,-2,3,2,-1,-3,3
1532381709649,0,1,-3,-2,1,-6,-2,-3
1532381709654,-1,0,-1,-1,4,5,-3,-1
1532381709659,-2,-3,-1,-5,-3,-26,-2,-1
1532381709664,0,-1,-5,-5,3,22,-7,-2
1532381709669,-1,0,0,-4,0,3,5,1
1532381709674,-1,0,2,5,-1,9,-2,0
1532381709679,1,1,2,4,-2,2,-2,-2
1532381709684,-1,-1,-2,-6,-1,-2,0,-1
1532381709689,-1,-3,-6,-4,0,1,-5,0
1532381709694,0,0,1,-4,1,-8,1,-2
1532381709699,0,-2,-1,6,0,7,-2,-3
1532381709704,-1,-2,0,2,-8,0,5,2
1532381709709,-1,-2,-2,-2,-3,6,1,1
1532381709714,0,-2,-2,1,-6,-6,2,-3
1532381709719,-1,1,1,0,-7,-5,-2,-4
1532381709724,0,0,-1,4,-2,6,-2,-5
1532381709729,0,0,0,1,-2,-11,0,0
1532381709734,0,-1,-2,-1,2,13,-5,1
1532381709739,-1,0,-4,-2,10,9,2,0
1532381709744,-1,1,0,0,7,-15,-1,-4
1532381709749,-1,0,3,1,5,28,-3,-1
1532381709754,1,1,-4,0,-5,-13,-3,0
1532381709759,0,-3,-3,-7,-5,2,0,1
1532381709764,-2,-1,-1,2,1,0,-5,1
1532381709769,-1,-1,0,-4,-4,-1,0,-1
1532381709774,0,-2,0,1,8,-17,2,0
1532381709779,0,-1,0,2,0,6,-2,-2
1532381709784,-2,-3,-2,-3,-4,-7,0,-2
1532381709789,-2,0,-3,-3,0,-1,-3,-1
1532381709794,-2,0,-2,0,-5,-20,0,0
1532381709799,2,0,-1,1,0,17,-1,-1
1532381709804,-1,3,2,2,1,-2,-1,0
1532381709809,-1,-1,3,2,-5,-4,0,-3
1532381709814,0,-2,-8,-11,-2,3,2,-3
1532381709819,-1,-2,-2,-2,-1,-6,0,0
1532381709824,1,-3,-3,-1,-1,-10,0,0
1532381709829,1,0,-2,2,-6,9,-23,-5
1532381709834,0,1,4,-1,-8,0,-11,6
1532381709839,0,0,0,3,5,-6,-1,-2
1532381709844,-1,-2,-1,-2,6,5,5,-2
1532381709849,0,-1,0,1,5,-17,10,-1
1532381709854,-2,-2,-2,-4,-1,6,4,-3
1532381709859,0,0,0,-2,-6,2,4,0
1532381709864,-1,-1,0,0,-8,-1,-1,0
1532381709869,0,-4,-5,-5,-2,10,-1,-1
1532381709874,-2,-3,0,-2,-1,-3,4,0
1532381709879,-1,1,3,1,-7,0,-3,0
1532381709884,0,1,0,5,-3,2,-2,0
1532381709889,-1,-2,-3,-6,-1,-6,-2,1
1532381709894,0,2,-1,2,9,3,0,1
1532381709899,-1,-1,-3,-2,-1,-4,-1,-4
1532381709904,0,1,0,-5,-2,3,3,-1
1532381709909,-2,0,-1,1,-4,-13,7,0
1532381709914,1,-1,1,0,-3,18,-1,-3
1532381709919,-1,-1,0,-2,-3,-5,-4,2
1532381709924,0,1,1,7,2,7,0,0
1532381709929,-2,-4,-1,1,-5,-11,-1,-4
1532381709934,-1,-2,-3,-6,-7,-6,2,-1
1532381709939,1,-2,-1,-1,0,2,-2,1
1532381709944,-1,-2,-1,-1,1,-3,-2,0
1532381709949,0,2,0,2,10,1,-3,-1
1532381709954,-3,-2,-1,1,3,-10,0,-3
1532381709959,-1,1,-1,3,-2,-1,4,0
1532381709964,1,-1,-1,-1,-4,-19,2,-2
1532381709969,-2,0,6,1,-4,15,-4,-2
1532381709974,-1,-1,-6,-2,2,2,-1,-3
1532381709979,-1,0,-2,0,1,-12,1,0
1532381709984,-1,-2,0,-2,5,11,-1,0
1532381709989,0,0,-2,0,3,-6,-2,1
1532381709994,-1,0,3,1,0,1,0,0
1532381709999,0,2,3,3,0,3,2,-2
1532381710004,-1,-2,-4,-5,-4,-4,-3,-2
1532381710009,1,-2,-2,-6,-2,-3,9,1
1532381710014,-1,1,3,4,0,20,1,1
1532381710019,0,-3,-2,-2,-2,-20,-1,-3
1532381710024,0,-2,0,0,-6,-2,-4,-2
1532381710029,1,1,0,-1,-1,3,-2,4
1532381710034,-1,0,0,-3,0,-22,-1,-1
1532381710039,-1,0,0,0,4,30,0,1
1532381710044,-2,1,1,-1,-6,-1,0,-1
1532381710049,-3,-2,-2,3,-1,-7,0,-1
1532381710054,1,-1,-3,-4,0,1,-2,-4
1532381710059,-2,-2,0,-2,5,3,1,-1
1532381710064,-1,-2,0,2,2,0,-1,-3
1532381710069,0,0,2,-3,-3,3,-2,0
1532381710074,-1,-2,-2,-2,-6,-6,4,-2
1532381710079,-2,-1,-4,-5,1,-8,-2,-3
1532381710084,1,1,0,2,8,12,1,0
1532381710089,-1,-2,-3,-1,-4,-10,-1,-1
1532381710094,1,-1,-2,1,-7,5,0,-1
1532381710099,0,0,0,-1,-1,8,1,-1
1532381710104,-1,0,1,2,-2,-5,2,0
1532381710109,0,1,-1,-1,1,5,-2,2
1532381710114,-1,0,0,1,0,-17,1,-1
1532381710119,0,-1,-3,-1,0,19,1,-1
1532381710124,0,0,-3,-5,-4,1,-1,0
1532381710129,0,-2,-4,-2,-6,-4,0,-4
1532381710134,-3,-3,0,-3,1,0,-1,-2
1532381710139,-1,2,2,6,1,-9,-1,1
1532381710144,-3,-4,-3,0,-1,-1,0,-6
1532381710149,-2,1,-1,-5,-5,7,4,4
1532381710154,-1,0,0,-4,-1,-1,-3,0
1532381710159,1,-2,-3,2,4,8,0,2
1532381710164,-1,-1,-1,-2,-1,7,0,0
1532381710169,-2,-1,-1,0,-3,-21,-2,-2
1532381710174,0,0,0,-2,-1,25,-2,-3
1532381710179,-1,-1,0,1,-3,-5,2,-2
1532381710184,-1,0,-1,-4,-2,0,-1,0
1532381710189,1,-1,-2,-1,0,-4,1,-2
1532381710194,-1,1,-1,-2,-2,11,3,2
1532381710199,-2,0,-1,0,-8,-12,-3,-1
1532381710204,0,-1,-1,0,2,-2,0,0
1532381710209,-2,0,-1,1,-1,-3,-2,0
1532381710214,1,-2,-2,3,-4,-8,1,-2
1532381710219,-1,-1,-1,-1,0,-1,-2,-2
1532381710224,0,0,0,0,1,1,0,0
1532381710229,1,-2,-1,-1,6,5,-4,0
1532381710234,0,-2,2,2,2,0,-3,0
1532381710239,-1,-1,-4,-5,-3,-32,-1,-1
1532381710244,-1,-1,2,-1,0,4,1,-2
1532381710249,-1,-1,-2,0,3,18,1,-4
1532381710254,1,-1,0,2,-2,-6,5,3
1532381710259,1,0,1,-2,-1,12,1,-1
1532381710264,-2,-2,-1,0,0,-11,-2,-1
1532381710269,-2,1,2,-1,4,-2,1,1
1532381710274,-2,-1,-4,-2,-1,-12,-1,1
1532381710279,-1,-1,-2,0,-4,16,-1,-3
1532381710284,-2,0,-1,1,-3,-3,0,1
1532381710289,-1,-1,1,-1,-2,5,2,-4
1532381710294,-2,-3,-4,-3,2,-8,-3,0
1532381710299,0,-1,0,0,-4,-7,-1,1
1532381710304,0,1,1,-3,-1,1,-2,-2
1532381710309,-1,-3,-3,-2,-1,-3,0,-1
1532381710314,0,-2,1,1,-3,-9,-2,-3
1532381710319,-1,-1,1,-1,-9,-10,-3,-2
1532381710324,-1,-1,-4,-5,1,0,0,2
1532381710329,-3,-2,-1,1,5,-17,0,0
1532381710334,0,-1,2,-7,0,5,-1,-2
1532381710339,-1,-2,0,1,2,5,1,1
1532381710344,-1,-2,0,1,-6,-3,-2,-1
1532381710349,0,-1,0,1,-5,-9,6,0
1532381710354,-1,1,-3,-3,4,5,-3,0
1532381710359,-1,-1,0,-1,1,6,-1,-2
1532381710364,0,0,-3,-3,-1,-3,-1,0
1532381710369,1,1,-3,-1,2,1,0,-1
1532381710374,-1,0,-1,3,-2,4,-3,0
1532381710379,-1,1,0,1,0,-8,3,-2
1532381710384,0,-2,-2,-3,-4,3,-1,-1
1532381710389,-1,2,0,3,0,6,-4,-3
1532381710394,0,-2,-2,-1,0,-17,4,-1
1532381710399,-1,0,-3,-6,-2,21,-1,-1
1532381710404,0,-1,0,2,2,-20,0,-1
1532381710409,-1,0,1,-3,-4,11,-6,-7
1532381710414,-1,0,-1,-1,0,2,2,5
1532381710419,-2,-3,-3,3,-1,-6,0,-5
1532381710424,1,1,4,-5,0,4,3,-1
1532381710429,1,-1,-8,-1,-1,-5,0,1
1532381710434,-1,0,-2,-1,5,8,-2,0
1532381710439,0,0,1,-1,3,-7,-1,0
1532381710444,-2,0,0,3,2,1,-1,-1
1532381710449,-1,-1,1,-2,-5,-6,1,0
1532381710454,0,-1,-1,-4,-4,2,-1,-2
1532381710459,0,-2,-2,-3,-4,-22,3,1
1532381710464,-2,-1,-3,-1,3,26,1,-2
1532381710469,0,-1,-1,-1,-3,7,-2,1
1532381710474,-1,0,-2,0,0,-18,1,-2
1532381710479,0,1,3,3,-2,2,-2,-2
1532381710484,0,-2,-1,-5,-3,-22,-4,1
1532381710489,1,-3,-3,-2,0,23,4,0
1532381710494,-2,-1,-2,0,-5,-7,1,-2
1532381710499,-2,0,0,-1,-2,-1,-1,-1
1532381710504,1,-2,-2,-5,-7,-2,-1,-2
1532381710509,-1,0,0,-1,3,-3,-1,-2
1532381710514,-2,0,1,2,4,1,-2,-2
1532381710519,-2,-1,1,1,0,-19,-2,2
1532381710524,-1,1,-1,1,1,19,1,1
1532381710529,0,-2,0,-3,0,-2,-1,-2
1532381710534,-1,-1,0,2,-2,-11,3,-2
1532381710539,-1,0,-2,4,-4,0,0,2
1532381710544,0,-1,-1,-3,-1,-4,1,-3
1532381710549,-1,-2,-2,-3,-6,-17,-2,-2
1532381710554,1,0,1,-4,3,32,0,1
1532381710559,0,-2,-5,-2,0,-6,0,1
1532381710564,-1,-1,-2,-1,-4,-6,2,-1
1532381710569,-1,0,0,4,-1,-4,-1,-1
1532381710574,0,-2,2,0,-3,7,-3,-3
1532381710579,-1,-1,-2,-4,3,19,2,0
1532381710584,-2,-1,-1,-3,-3,0,0,-2
1532381710589,-1,-1,-1,-3,-2,1,0,1
1532381710594,-3,0,-1,1,-1,-7,0,1
1532381710599,-1,0,0,1,5,1,-1,-1
1532381710604,0,-1,-1,5,2,-1,0,-3
1532381710609,-1,0,0,-7,1,-7,-2,-2
1532381710614,1,-1,-1,3,-5,-8,-6,-2
1532381710619,1,0,0,-3,-2,17,-1,-1
1532381710624,0,-1,-1,0,-6,-4,-2,1
1532381710629,-1,-2,0,0,1,2,-2,-1
1532381710634,-1,-1,-1,-1,0,-3,2,-3
1532381710639,-1,-6,-2,-4,-2,-15,-2,-2
1532381710644,0,0,0,1,3,4,2,0
1532381710649,-1,-1,0,0,-3,6,1,0
1532381710654,-1,-2,-2,-2,0,-2,3,-2
1532381710659,-2,2,2,1,1,-5,3,-2
1532381710664,-1,-1,0,0,-1,0,1,-2
1532381710669,-2,-2,0,1,0,-2,5,1
1532381710674,-2,-2,-2,-1,0,-3,1,-1
1532381710679,-1,0,-3,0,-1,0,1,-1
1532381710684,0,-2,-2,-2,-3,1,-1,1
1532381710689,-2,1,-1,1,-3,-9,-6,-1
1532381710694,1,0,-2,-2,-4,-8,1,1
1532381710699,0,0,1,1,-3,24,0,-6
1532381710704,-2,1,-1,1,1,3,-2,-6
1532381710709,0,-1,0,0,3,-3,-1,-2
1532381710714,-2,-2,1,0,0,0,-3,-1
1532381710719,1,-2,1,1,3,-24,2,2
1532381710724,0,-1,-2,-5,-2,-4,0,1
1532381710729,-1,0,-2,3,-2,2,0,3
1532381710734,1,0,2,2,-2,6,0,0
1532381710739,1,-1,-6,-2,-1,3,-3,-1
1532381710744,-1,-1,-4,-6,0,6,-6,1
1532381710749,1,0,1,2,4,-4,-3,1
1532381710754,0,-2,-2,-3,3,0,-2,1
1532381710759,-1,-1,0,-4,0,-6,1,0
1532381710764,-2,0,-1,5,0,-8,2,0
1532381710769,0,-1,-2,-1,-3,-6,2,-1
1532381710774,-2,0,-3,-1,1,6,-1,-1
1532381710779,0,1,2,3,0,4,-3,-1
1532381710784,1,-1,-1,-3,-3,-4,-3,0
1532381710789,0,-2,-1,-3,-6,7,0,-2
1532381710794,0,-1,-2,-2,-6,10,-3,0
1532381710799,0,-1,-3,-4,0,7,2,2
1532381710804,0,1,3,3,5,-7,2,-1
1532381710809,0,0,-1,1,0,12,4,0
1532381710814,-1,0,-2,-1,0,-6,3,-1
1532381710819,-1,-1,-1,-1,5,7,1,1
1532381710824,-3,-2,0,1,-1,-7,-4,-1
1532381710829,0,-2,-2,-4,4,-2,-2,0
1532381710834,-2,-1,-3,-6,1,-2,-5,-4
1532381710839,2,0,-1,-2,-5,-3,-7,-2
1532381710844,2,-1,0,1,-9,0,7,-1
1532381710849,-2,-1,-1,1,-6,-3,4,-1
1532381710854,0,-2,-3,-1,-5,-3,-6,0
1532381710859,0,1,1,-2,1,-6,1,-1
1532381710864,0,0,-1,0,8,-6,-6,1
1532381710869,-2,1,1,5,11,13,-5,0
1532381710874,-2,-1,-1,0,-2,-3,2,-1
1532381710879,-1,-2,-1,-3,-7,-10,-4,-1
1532381710884,0,-1,-2,-1,-3,-7,0,-1
1532381710889,0,-2,1,-5,1,9,3,-2
1532381710894,-2,-2,-3,0,1,2,3,-2
1532381710899,-1,-2,0,1,-2,0,-2,1
1532381710904,-1,-1,0,-2,0,6,3,0
1532381710909,0,-1,-5,-4,-6,-11,-1,-2
1532381710914,0,0,0,-2,-3,0,0,-3
1532381710919,-1,-1,-1,-2,-4,2,6,-3
1532381710924,-1,0,0,1,-1,-3,4,-2
1532381710929,-1,1,4,2,3,0,-1,0
1532381710934,-1,-1,1,-2,4,1,-2,0
1532381710939,-1,-2,-7,-4,-3,-6,-4,2
1532381710944,-1,-2,-2,-7,-7,4,-1,-2
1532381710949,-1,1,-2,-4,-4,-6,-2,0
1532381710954,1,1,1,3,0,-1,-1,0
1532381710959,-1,2,2,-3,-4,-11,-5,-2
1532381710964,0,0,-1,2,4,25,-6,-1
1532381710969,0,-2,1,1,-9,-14,-1,-1
1532381710974,-2,1,-2,-6,-7,2,5,-1
1532381710979,-3,1,-1,4,5,12,5,-1
1532381710984,-2,-2,-4,-2,4,-6,-4,0
1532381710989,1,-1,-3,-2,1,-2,-7,-1
1532381710994,0,-3,-1,1,2,-10,-2,0
1532381710999,-1,-2,1,-1,-3,-2,0,-2
1532381711004,1,2,1,0,-5,3,0,1
1532381711009,-1,-1,-1,2,4,0,4,-1
1532381711014,0,-1,-2,-2,-5,4,5,-2
1532381711019,0,-1,-1,2,0,-9,5,0
1532381711024,-1,0,2,1,0,-6,3,-1
1532381711029,-2,0,-1,0,-3,-4,-2,-1
1532381711034,-2,-1,2,-1,-1,-4,-4,-2
1532381711039,-2,0,-6,-3,4,18,-1,1
1532381711044,-2,-3,-1,0,1,-4,-2,-2
1532381711049,-2,0,-1,-2,-1,-14,1,-1
1532381711054,0,-3,-1,-3,8,12,-2,-1
1532381711059,0,-2,1,0,0,-5,-1,-1
1532381711064,-1,-1,0,-2,-1,-4,2,-1
1532381711069,-1,0,1,0,-4,-5,3,-1
1532381711074,-1,-1,-1,2,-2,-3,4,0
1532381711079,-1,-3,-3,-3,-2,-3,0,2
1532381711084,0,-1,0,0,3,3,2,-3
1532381711089,1,-2,0,0,5,-4,-1,-3
1532381711094,1,0,-3,-1,1,-5,1,0
1532381711099,0,0,-1,-3,-6,5,3,-1
1532381711104,-1,-1,-1,0,-8,-9,2,-1
1532381711109,-1,-1,1,-1,-6,4,0,-1
1532381711114,-1,1,1,-1,-1,-2,0,0
1532381711119,-1,-2,-3,-1,-2,-19,4,-1
1532381711124,-1,0,1,2,4,25,6,-2
1532381711129,-1,-2,-3,-6,-2,1,6,1
1532381711134,-2,-1,3,-1,-4,1,1,-2
1532381711139,-1,-3,-8,0,1,-9,-1,-2
1532381711144,-1,-1,-2,-3,3,-9,-5,-3
1532381711149,0,0,-2,2,3,6,-12,-2
1532381711154,-1,0,0,0,0,-14,-15,-1
1532381711159,-1,-1,3,1,1,7,-5,-1
1532381711164,0,0,-1,0,-4,-3,-6,-1
1532381711169,0,-3,-4,-6,1,5,2,1
1532381711174,-1,-1,0,4,0,-5,0,0
1532381711179,-1,0,0,-4,0,1,0,-1
1532381711184,0,-2,-2,-3,-4,-3,0,1
1532381711189,1,0,1,4,-4,-3,-1,-2
1532381711194,-2,-2,-3,-5,-7,-11,1,-2
1532381711199,-1,0,3,0,1,13,0,0
1532381711204,-2,-1,-2,-2,1,0,1,0
1532381711209,-1,-2,0,0,0,1,0,-2
1532381711214,1,-1,-1,0,-2,-1,-2,-1
1532381711219,-2,1,-1,1,-2,0,0,-3
1532381711224,-1,0,-1,-2,-3,-5,-2,-1
1532381711229,-2,-1,-4,-5,1,-9,2,-1
1532381711234,-1,1,-4,-3,0,7,2,-1
1532381711239,-1,-2,1,4,-2,-3,-1,-1
1532381711244,-1,-1,-3,-3,-3,-1,1,-3
1532381711249,-1,0,4,-1,1,-3,-1,1
1532381711254,-1,-2,-6,2,1,0,-1,-1
1532381711259,0,0,-1,-1,-2,2,-2,2
1532381711264,-2,0,2,4,-1,-18,4,1
1532381711269,1,0,-1,-3,2,32,2,0
1532381711274,0,-1,-2,-6,-4,-3,1,-1
1532381711279,0,-2,1,0,0,1,-1,-3
1532381711284,0,-2,-1,-2,-1,-1,-2,-1
1532381711289,-1,-1,0,3,-4,-7,-1,-1
1532381711294,0,0,3,6,3,5,3,1
1532381711299,-2,-1,-2,-5,4,-3,1,-1
1532381711304,0,-1,-1,-1,4,-3,0,-2
1532381711309,-2,0,-2,-3,4,-3,-1,0
1532381711314,-1,0,0,1,2,3,3,0
1532381711319,1,1,-2,-2,-6,-8,1,0
1532381711324,-1,-4,-2,1,-2,2,-3,-1
1532381711329,0,-1,-1,-4,-4,1,-4,-1
1532381711334,0,0,0,-2,-4,1,1,-1
1532381711339,-1,-2,2,3,-2,-6,-1,0
1532381711344,1,0,-1,4,1,11,-4,1
1532381711349,-3,-2,-6,-4,-8,-17,1,-1
1532381711354,0,-1,-1,4,4,8,2,-1
1532381711359,1,0,0,-3,-3,-8,0,-1
1532381711364,-1,0,-1,-3,0,-1,1,-1
1532381711369,-1,5,1,2,1,-1,-4,-2
1532381711374,-5,-10,-4,-4,-2,-8,2,-1
1532381711379,-2,-4,1,1,0,11,1,0
1532381711384,1,-1,-2,-2,-3,-6,-1,-3
1532381711389,1,0,-1,-2,-2,-2,0,-1
1532381711394,-1,2,1,1,0,1,-3,0
1532381711399,-2,0,-1,0,4,0,-3,-2
1532381711404,0,-2,-2,-2,1,-1,3,-1
1532381711409,-2,-3,-1,-3,-1,5,4,0
1532381711414,0,0,-2,1,-1,2,1,-2
1532381711419,-3,-2,-2,-1,1,-7,-1,-1
1532381711424,-1,2,-2,-4,-4,7,1,-3
1532381711429,-1,-3,-1,4,1,-3,1,-1
1532381711434,-1,0,2,0,0,10,-1,-2
1532381711439,2,-2,0,-7,-3,5,2,0
1532381711444,-2,0,-5,-7,-5,0,-2,-1
1532381711449,-2,-4,-2,0,0,-6,-2,-1
1532381711454,-1,0,1,1,2,-6,-2,-2
1532381711459,-2,-2,-1,5,0,-6,-5,-1
1532381711464,1,-1,2,1,0,12,-2,2
1532381711469,0,-1,-1,0,-1,-2,-2,-1
1532381711474,0,1,-1,1,-1,-5,-1,2
1532381711479,-1,1,-1,0,-1,6,4,1
1532381711484,-2,-2,1,1,1,-8,-1,0
1532381711489,-1,1,1,3,2,2,-1,-2
1532381711494,-1,-1,-3,-5,-8,-20,1,-2
1532381711499,-2,-2,-4,-1,2,14,-2,-1
1532381711504,0,0,0,0,2,-6,0,1
1532381711509,-1,0,-1,2,2,18,2,-2
1532381711514,0,1,0,-3,-2,1,-2,-2
1532381711519,0,0,-1,-1,-3,-16,-1,-2
1532381711524,-2,0,-1,1,1,-1,2,0
1532381711529,2,1,0,-3,-3,11,3,1
1532381711534,-2,-4,0,1,-2,-13,1,-2
1532381711539,0,0,-2,-6,-5,-2,-5,-3
1532381711544,-1,1,0,1,0,10,-2,1
1532381711549,-1,-2,-1,-2,1,-6,-5,-2
1532381711554,1,-2,-3,-1,0,9,1,2
1532381711559,0,0,1,1,0,-8,-3,-1
1532381711564,-2,-1,-6,-4,-4,-21,2,-3
1532381711569,0,0,0,-5,0,6,-2,0
1532381711574,-1,0,-2,0,3,5,-2,1
1532381711579,-1,0,0,4,4,-1,3,-2
1532381711584,-2,0,1,-1,-2,-5,1,1
1532381711589,-2,-1,-1,1,-6,-9,3,-2
1532381711594,-1,-1,-2,-2,-3,-8,-1,0
1532381711599,1,2,0,-2,0,17,2,0
1532381711604,1,-2,1,2,0,0,-1,-2
1532381711609,-2,-2,-1,0,0,0,-1,-1
1532381711614,0,-1,1,-2,-1,-6,-1,-1
1532381711619,-2,-2,-1,2,-1,1,0,0
1532381711624,0,-3,-2,-6,-3,11,-1,-4
1532381711629,-2,-1,0,3,3,-10,3,0
1532381711634,-1,-2,1,2,0,-3,0,-3
1532381711639,1,1,3,-2,1,8,0,-1
1532381711644,-3,-1,-6,0,-2,2,2,1
1532381711649,-1,-1,-3,-2,-6,-17,-1,-1
1532381711654,-1,-1,-1,-2,-3,22,-1,-1
1532381711659,-1,-1,2,2,2,1,-2,-1
1532381711664,-1,1,1,-2,0,-4,-1,0
1532381711669,-1,0,-2,-1,0,-6,2,0
1532381711674,-1,0,-2,-2,-3,-6,-1,-1
1532381711679,0,-1,-1,-2,-1,-10,-1,-1
1532381711684,-1,0,4,4,1,9,-1,-2
1532381711689,0,-1,-2,0,0,-7,0,0
1532381711694,-2,0,-2,-2,-1,8,3,-1
1532381711699,0,-1,-1,-4,-3,-7,2,-2
1532381711704,-1,0,-1,1,1,1,3,0
1532381711709,-2,2,-2,-2,-5,-23,-7,-1
1532381711714,0,-1,0,0,0,22,-1,0
1532381711719,-1,-1,-3,1,-2,7,1,0
1532381711724,-1,-1,1,2,-2,-5,0,0
1532381711729,0,-2,-2,-1,3,10,3,-2
1532381711734,-1,-1,-1,-3,-1,-15,0,-1
1532381711739,-2,1,-1,2,-2,-10,2,-1
1532381711744,0,-1,-1,-1,0,7,-3,0
1532381711749,1,-3,0,1,-2,1,0,-2
1532381711754,-1,0,-5,-4,0,-6,-3,-1
1532381711759,1,-1,0,-5,0,4,3,0
1532381711764,1,1,1,2,1,-8,4,-2
1532381711769,-1,-2,3,0,0,4,0,-1
1532381711774,-1,-1,1,3,-1,-2,1,0
1532381711779,-2,-1,-2,-3,1,-2,-1,-1
1532381711784,0,0,1,-3,-2,-5,-4,0
1532381711789,-2,0,-2,-2,-1,-2,4,-1
1532381711794,0,-2,0,0,-3,10,1,-1
1532381711799,-1,-1,0,0,-3,-2,0,-1
1532381711804,-2,-2,-2,3,0,-6,1,0
1532381711809,0,0,-1,-1,-2,1,-3,-1
1532381711814,0,-3,1,-3,1,7,0,-1
1532381711819,0,-3,-4,4,1,2,-1,-1
1532381711824,-2,-1,-3,-1,0,1,-3,-3
1532381711829,-1,-2,1,-3,-2,2,1,1
1532381711834,-1,1,0,-1,0,-11,0,-2
1532381711839,-2,1,4,5,0,-8,-1,0
1532381711844,0,-2,-5,-6,-1,7,-4,0
1532381711849,-3,0,-4,-4,-1,0,-1,0
1532381711854,0,1,1,5,3,-5,0,0
1532381711859,-1,-1,-4,-4,-3,0,-1,-3
1532381711864,0,-1,-1,2,2,-5,4,0
1532381711869,0,-1,0,-1,-4,5,-1,0
1532381711874,-2,-1,1,-3,-9,-18,-2,-2
1532381711879,-1,1,1,5,1,31,1,2
1532381711884,0,-3,-2,-5,-7,-6,-4,-1
1532381711889,1,1,-1,0,2,3,-4,-1
1532381711894,-2,-1,-1,0,4,-1,-4,-1
1532381711899,-1,1,0,-3,0,-15,1,-2
1532381711904,-3,-2,2,-1,8,1,6,1
1532381711909,-1,-1,-2,1,3,0,4,-2
1532381711914,0,-1,-4,0,8,10,1,0
1532381711919,-2,-1,-4,-8,-1,-10,2,0
1532381711924,-1,1,0,-2,0,5,-2,-1
1532381711929,-1,-2,2,2,-4,-6,3,-2
1532381711934,-2,-1,-1,2,-4,-3,1,-1
1532381711939,-2,-1,-1,1,-3,1,-1,2
1532381711944,0,1,1,-3,-7,-4,-2,-1
1532381711949,0,-4,-3,0,-1,1,-6,-1
1532381711954,0,-1,-2,-3,-3,1,5,-2
1532381711959,-1,-1,-1,0,-3,-2,-3,1
1532381711964,-1,-1,-2,1,-3,-6,1,-1
1532381711969,0,2,-2,-1,1,5,4,2
1532381711974,-1,-2,2,-1,-1,-8,-1,-1
1532381711979,0,0,-3,-1,3,11,-1,2
1532381711984,-1,1,-1,-1,-1,0,-3,-1
1532381711989,-1,-1,0,-1,1,2,-2,-2
1532381711994,-1,-1,0,0,0,0,-2,0
1532381711999,0,0,2,0,-1,-9,1,-3
1532381712004,-1,-1,1,7,2,-1,0,-1
1532381712009,-2,-2,-4,-8,-5,0,1,-2
1532381712014,0,0,-2,-6,-3,-3,0,-1
1532381712019,-1,-3,-3,4,1,-4,-1,-2
1532381712024,-1,2,3,-3,-1,2,-3,2
1532381712029,-2,-2,-5,0,-2,-6,0,-2
1532381712034,0,0,-1,0,1,5,0,-2
1532381712039,-1,-1,1,-1,0,-2,0,-3
1532381712044,1,0,-1,3,0,-1,2,0
1532381712049,1,0,0,0,2,1,1,1
1532381712054,-1,-2,-3,-2,-1,1,1,0
1532381712059,-2,-2,-2,0,0,-3,4,-2
1532381712064,0,-1,-1,-2,-4,-3,0,0
1532381712069,0,1,1,2,2,0,-1,0
1532381712074,-2,0,-1,2,-2,1,-3,-1
1532381712079,-2,0,0,0,2,-5,-4,-1
1532381712084,-2,-2,-7,-9,-2,-1,1,-3
1532381712089,-1,-3,-1,-2,-1,2,1,-1
1532381712094,-1,-1,0,-1,-2,-10,-2,-2
1532381712099,-1,-1,-1,-3,-1,11,-4,-1
1532381712104,-1,0,0,3,3,10,-2,0
1532381712109,-1,0,-1,0,-2,-3,-1,1
1532381712114,1,-1,1,-2,-3,3,2,0
1532381712119,-1,-1,-6,-1,-2,-10,0,-1
1532381712124,-1,-2,-2,4,3,-1,6,-1
1532381712129,0,1,1,-3,3,-2,4,-1
1532381712134,0,-2,0,3,-2,-3,5,-1
1532381712139,1,1,-1,-4,-5,-3,1,0
1532381712144,-1,0,-3,-1,-4,-3,-3,0
1532381712149,0,-1,-1,0,-2,-3,-6,-4
1532381712154,-1,-2,0,-2,-4,0,-3,-1
1532381712159,-2,-2,-1,-1,-2,-3,-1,0
1532381712164,-1,1,-1,-3,-5,-1,1,-1
1532381712169,-1,-2,0,0,-3,2,10,0
1532381712174,-2,1,-2,-1,-2,-11,-5,-1
1532381712179,-1,0,0,4,6,25,1,-1
1532381712184,-1,0,3,-3,3,-6,1,1
1532381712189,-2,-1,-2,1,3,1,-5,-2
1532381712194,-2,-1,-4,-4,-1,1,-3,-1
1532381712199,-1,-3,-3,-2,-2,-11,3,-1
1532381712204,0,0,2,-2,-3,-4,-4,-1
1532381712209,-1,0,-1,1,-1,2,2,-1
1532381712214,-1,0,-1,0,9,19,-2,1
1532381712219,0,-1,0,4,-5,-12,1,-1
1532381712224,1,0,1,-4,-4,6,2,-3
1532381712229,0,0,2,0,-3,-5,2,0
1532381712234,-3,1,0,-5,-2,-3,-3,-2
1532381712239,-1,0,1,0,3,2,2,0
1532381712244,0,0,-4,3,0,-4,4,-3
1532381712249,-1,0,2,-2,-2,-3,0,0
1532381712254,2,1,0,2,2,0,2,-2
1532381712259,0,-3,3,-3,-2,-2,-2,-2
1532381712264,-3,-5,-5,-4,-2,-5,-3,1
1532381712269,-1,-4,-3,-1,-3,2,-1,1
1532381712274,-1,-1,0,-1,-2,1,-4,-1
1532381712279,-1,-1,1,2,2,-14,1,0
1532381712284,-1,-1,0,3,2,14,1,-3
1532381712289,-1,-1,3,4,4,2,-1,1
1532381712294,-1,-2,-4,-2,-3,-1,6,1
1532381712299,-1,-2,-1,-2,-4,-5,2,-1
1532381712304,-2,-2,-2,-4,-3,-5,-1,-1
1532381712309,0,1,3,-5,-2,2,5,1
1532381712314,1,-3,-1,3,2,-1,-3,-1
1532381712319,-1,0,0,-1,0,4,-2,-1
1532381712324,0,1,0,0,0,0,-1,-1
1532381712329,-1,0,3,2,-1,1,-2,-2
1532381712334,0,-2,-4,0,-5,-5,-7,-1
1532381712339,-2,-3,-5,-6,-6,-1,-22,0
1532381712344,1,0,0,0,-2,-3,7,0
1532381712349,-1,0,-1,1,-3,-2,5,-1
1532381712354,0,-4,3,3,1,1,4,-4
1532381712359,1,2,0,5,3,1,1,0
1532381712364,0,-2,-5,-4,-4,-6,-5,-3
1532381712369,-3,-3,-6,-7,3,2,-4,1
1532381712374,-2,3,1,-2,1,0,1,0
1532381712379,1,-1,-1,-2,-1,1,7,0
1532381712384,-1,0,4,5,3,-2,3,0
1532381712389,1,0,0,-1,-1,-1,-4,-1
1532381712394,-2,1,-1,1,2,1,-6,0
1532381712399,0,-3,1,1,0,-1,2,-3
1532381712404,-3,-2,-3,-7,3,2,-1,1
1532381712409,-1,-1,-1,3,-2,-2,1,-2
1532381712414,0,-3,-3,-9,-5,0,4,-2
1532381712419,0,1,2,0,1,0,0,-3
1532381712424,-1,-3,-4,3,-1,0,5,-1
1532381712429,0,0,-1,-1,2,-1,-2,-4
1532381712434,1,-2,4,1,-1,-1,2,0
1532381712439,0,1,-2,0,0,0,4,0
1532381712444,0,2,0,-5,-3,-7,-5,0
1532381712449,-2,-1,-3,-1,3,6,2,0
1532381712454,0,-1,-3,-4,4,5,1,0
1532381712459,0,-1,1,-2,-2,12,-1,0
1532381712464,-1,-1,3,2,-4,-1,-3,-1
1532381712469,1,-2,2,3,-4,-3,4,-2
1532381712474,-1,1,-2,2,-6,-6,-1,-2
1532381712479,0,-3,-2,-4,0,-1,-6,-2
1532381712484,-2,0,-1,0,0,-1,-2,0
1532381712489,0,0,-1,-3,-5,-1,-6,0
1532381712494,-1,0,0,2,2,-1,2,-1
1532381712499,0,2,0,0,-3,-5,-2,-1
1532381712504,-1,-3,1,1,0,0,-1,0
1532381712509,-2,1,0,-3,-2,-3,0,0
1532381712514,0,-5,-4,0,0,1,6,0
1532381712519,-2,1,-4,-3,-8,-5,4,-2
1532381712524,0,0,1,2,2,2,5,0
1532381712529,-1,-1,-1,-1,2,2,-2,-1
1532381712534,-3,0,3,1,-2,-7,3,-2
1532381712539,-1,-4,-4,-7,0,7,1,-2
1532381712544,-3,-2,-4,-5,2,8,-2,0
1532381712549,0,0,0,2,-3,-7,-9,-1
1532381712554,-1,0,-2,0,2,5,-4,2
1532381712559,1,0,1,3,3,-10,1,0
1532381712564,0,1,-1,-1,-7,-1,-1,-3
1532381712569,0,-1,-4,-2,-4,-1,5,-2
1532381712574,-2,2,1,-2,-8,-3,5,-1
1532381712579,-1,-1,0,1,-2,2,2,1
1532381712584,-1,-4,-6,-2,-5,-1,-1,-2
1532381712589,0,-1,1,-2,3,-3,6,-1
1532381712594,0,0,-2,0,5,2,0,0
1532381712599,-2,1,0,-5,6,-2,5,-3
1532381712604,-1,0,1,1,3,-2,2,-1
1532381712609,0,-3,-1,2,-3,-3,-8,-1
1532381712614,0,-1,-1,-3,-1,-2,1,2
1532381712619,-1,-2,0,2,-1,1,1,-1
1532381712624,2,-1,1,0,2,-2,-1,-5
1532381712629,-1,-1,0,-1,0,3,5,-3
1532381712634,-1,-1,3,-2,0,-1,5,-3
1532381712639,-1,-2,-4,2,1,-2,-4,-2
1532381712644,-2,2,0,-1,0,-19,-1,1
1532381712649,0,0,2,-2,5,12,-3,1
1532381712654,-1,-3,-7,-7,-3,0,-3,0
1532381712659,0,0,-3,0,-3,-3,-4,1
1532381712664,0,0,-1,-2,-2,-9,-5,-1
1532381712669,-1,0,1,-2,2,4,2,0
1532381712674,1,-1,-4,2,0,-2,-1,0
1532381712679,-2,-1,-2,-3,-3,2,8,0
1532381712684,0,0,2,0,-1,1,-1,0
1532381712689,0,0,-2,-1,-2,-4,1,0
1532381712694,0,-3,1,2,-2,3,6,-2
1532381712699,-1,-1,-1,-5,-5,-5,-1,0
1532381712704,-2,-2,-2,-2,-2,8,-3,-1
1532381712709,0,-1,-1,2,7,1,-6,0
1532381712714,-1,0,1,0,3,1,-1,-2
1532381712719,-1,0,-1,1,-1,-2,-1,-1
1532381712724,0,-2,1,-1,-3,-1,-1,-1
1532381712729,-1,0,-5,-4,-6,-1,3,-1
1532381712734,0,-1,1,0,-9,-5,-2,0
1532381712739,0,-1,1,0,5,1,-1,0
1532381712744,-1,0,-1,-4,2,5,0,0
1532381712749,-1,-2,-2,-4,-1,-7,0,-2
1532381712754,-1,-2,-1,1,-2,-1,-4,0
1532381712759,-1,-3,-3,-4,-5,-5,3,0
1532381712764,0,1,0,-2,-2,-9,3,-2
1532381712769,1,-1,-1,0,2,0,2,-1
1532381712774,0,-1,0,1,7,32,8,0
1532381712779,0,-1,2,2,-3,-2,-7,-1
1532381712784,-1,-3,-9,-6,-4,-2,1,-2
1532381712789,0,-1,-2,-2,-6,-9,2,-3
1532381712794,1,0,0,-3,-6,-9,-2,0
1532381712799,0,-1,0,1,1,3,-2,-1
1532381712804,-1,0,-1,0,-3,-26,-2,-1
1532381712809,0,-1,-1,3,2,15,3,-4
1532381712814,-1,-2,0,3,-2,-8,1,-2
1532381712819,-3,-4,-5,1,-2,13,1,0
1532381712824,-2,0,2,-5,0,2,-3,-1
1532381712829,-1,-3,-5,-2,-6,0,0,-3
1532381712834,0,0,1,0,0,4,4,-2
1532381712839,-1,-1,0,0,-2,-3,2,1
1532381712844,-2,2,-3,0,-2,-4,0,-1
1532381712849,0,-1,-3,1,1,-1,5,-2
1532381712854,0,-2,-1,0,-3,1,-4,0
1532381712859,-1,0,-3,-5,-7,-10,6,-3
1532381712864,1,-1,1,-1,-3,-2,3,-2
1532381712869,1,-1,0,2,2,2,-8,0
1532381712874,1,0,-3,2,7,18,0,-2
1532381712879,-1,0,4,0,2,-2,-5,-1
1532381712884,-3,1,-6,-3,-2,-1,-4,-1
1532381712889,-1,0,-1,-2,-5,-9,10,-1
1532381712894,0,-2,0,-3,-7,-26,2,-3
1532381712899,1,0,1,2,8,44,-2,0
1532381712904,1,-3,0,-2,-4,-14,-2,1
1532381712909,-4,-1,1,-3,-2,6,-3,3
1532381712914,-3,-3,0,12,7,0,-1,-7
1532381712919,-4,-4,-9,-16,-3,-15,-3,-2
1532381712924,-3,0,-1,-4,-3,-36,-1,-6
1532381712929,3,3,1,-1,0,22,0,-6
1532381712934,1,0,3,1,-1,-43,5,0
1532381712939,2,-1,4,4,14,76,9,8
1532381712944,-3,0,-2,0,2,-38,-29,-6
1532381712949,-4,-4,-4,-2,5,-17,1,-3
1532381712954,0,1,0,-2,-3,1,8,-2
1532381712959,1,-1,1,-1,-14,-31,16,-1
1532381712964,-2,-2,-1,-5,-17,-54,26,-14
1532381712969,2,-1,2,0,-2,42,43,1
1532381712974,-2,0,1,2,6,-4,3,2
1532381712979,14,0,6,-2,-11,-51,13,3
1532381712984,-19,3,-5,2,1,15,-3,-2
1532381712989,8,-6,-8,-5,-13,-28,-28,1
1532381712994,5,7,6,1,-7,11,18,6
1532381712999,-5,-7,-6,-1,8,-31,-103,7
1532381713004,5,3,2,-2,9,41,-19,0
1532381713009,-3,3,3,1,17,19,-91,3
1532381713014,-5,-3,-8,-14,-11,-8,4,3
1532381713019,2,1,5,8,3,33,58,-7
1532381713024,-1,-3,-1,3,-5,2,48,5
1532381713029,-1,-1,-3,-1,-11,-19,38,0
1532381713034,2,-3,3,3,5,20,33,1
1532381713039,-7,-3,-5,-9,-15,3,3,0
1532381713044,0,-2,2,10,16,29,6,-1
1532381713049,-2,2,-3,-7,5,13,18,-1
1532381713054,-3,-2,-1,5,-5,-8,-11,-3
1532381713059,-4,-2,-9,-18,1,-17,18,-6
1532381713064,2,0,1,-3,5,25,-1,5
1532381713069,0,1,5,2,9,-24,35,2
1532381713074,-2,-1,1,6,6,-2,26,0
1532381713079,-5,1,2,5,5,-10,10,-1
1532381713084,4,-6,-13,-3,4,4,-26,1
1532381713089,-3,0,1,-1,-4,-15,-25,0
1532381713094,1,0,4,-10,1,8,-35,-2
1532381713099,0,3,19,29,12,21,-27,-5
1532381713104,3,-9,5,5,-5,2,-20,0
1532381713109,-3,-20,-49,-21,-9,0,-5,-3
1532381713114,-4,-9,-21,-40,-11,16,-20,-3
1532381713119,0,-5,-13,-13,-16,-34,-12,-2
1532381713124,1,14,27,8,-1,10,12,3
1532381713129,-3,3,4,5,0,-21,6,-2
1532381713134,1,-3,2,17,6,-7,-5,-3
1532381713139,-2,6,5,8,-4,-10,12,-2
1532381713144,6,2,-8,6,-2,1,5,8
1532381713149,-1,4,19,18,-2,-4,1,-12
1532381713154,-9,5,-1,-6,-4,-4,-15,8
1532381713159,-6,-5,-8,-6,-6,-3,-11,-24
1532381713164,2,-4,-10,-16,-11,6,-3,2
1532381713169,-1,0,6,-1,-2,17,-8,4
1532381713174,5,1,16,25,4,14,-6,17
1532381713179,-7,0,-9,-26,0,10,-2,-36
1532381713184,-2,-8,-21,-54,-18,-11,-17,-10
1532381713189,5,1,7,-4,-11,-28,-6,5
1532381713194,2,-9,-16,5,-5,-2,-5,-1
1532381713199,5,12,14,42,7,7,2,18
1532381713204,-1,3,1,7,8,7,0,-8
1532381713209,-1,3,7,0,-1,14,6,2
1532381713214,0,11,5,24,2,6,2,-5
1532381713219,-2,-12,-5,-19,-22,-9,0,6
1532381713224,-3,-22,-19,-7,-12,-14,-11,0
1532381713229,-2,-4,8,1,-6,2,-2,8
1532381713234,-5,-4,-8,-20,-8,-9,1,-14
1532381713239,3,8,-5,7,5,-1,7,6
1532381713244,0,17,16,15,6,5,11,4
1532381713249,1,4,6,5,3,4,8,-2
1532381713254,8,0,-12,-6,-11,-5,3,-2
1532381713259,-12,-1,-4,-28,-33,-10,3,-1
1532381713264,5,1,2,-2,-11,5,8,2
1532381713269,-3,0,0,19,9,9,-4,-2
1532381713274,0,4,10,16,0,14,2,1
1532381713279,4,0,-5,-13,-47,4,5,7
1532381713284,-1,3,6,-6,-67,-10,-2,0
1532381713289,-4,-8,-12,-16,-89,-12,-3,-15
1532381713294,1,6,-1,24,-99,4,4,-3
1532381713299,8,-12,-13,-23,-105,2,16,1
1532381713304,-2,-2,-12,-1,-10,2,8,-5
1532381713309,-4,2,5,1,90,-3,3,4
1532381713314,-7,-3,-1,-12,124,-12,-14,1
1532381713319,-4,-11,15,19,112,-6,-11,5
1532381713324,-3,14,13,12,54,-11,-4,0
1532381713329,-3,-6,-24,-9,-11,-7,-5,-3
1532381713334,1,2,6,10,65,5,-15,2
1532381713339,-3,-15,-19,-35,105,2,-46,5
1532381713344,-3,-2,36,0,76,5,-30,-2
1532381713349,2,20,-10,19,76,3,-25,3
1532381713354,-2,11,19,-33,17,-1,-3,-2
1532381713359,3,7,-14,42,3,-3,26,2
1532381713364,-8,-34,-65,-77,24,-14,18,-7
1532381713369,2,3,23,5,-64,0,34,2
1532381713374,-1,20,21,-1,14,-8,21,-2
1532381713379,-1,-11,13,9,-3,-10,16,-7
1532381713384,4,6,23,80,-27,17,24,9
1532381713389,2,1,-1,-34,-100,-14,12,-13
1532381713394,0,-15,-14,-32,-45,-1,20,0
1532381713399,0,18,49,0,71,-23,12,-1
1532381713404,-12,-27,-81,5,113,26,-6,1
1532381713409,-3,14,36,1,86,9,-7,2
1532381713414,-4,-26,-41,17,-30,-3,-18,-1
1532381713419,-1,-4,12,5,-48,0,-18,-4
1532381713424,2,-13,-15,-30,-86,-8,-36,0
1532381713429,5,28,16,-1,-93,4,-38,0
1532381713434,2,-34,-11,-3,-63,32,-25,-1
1532381713439,3,12,7,32,4,25,-10,5
1532381713444,0,21,39,-18,20,-8,5,-2
1532381713449,-6,-27,-38,-7,6,-8,14,-2
1532381713454,1,11,7,5,-87,11,11,-5
1532381713459,-2,-1,-14,15,42,-23,14,4
1532381713464,1,3,15,1,35,27,8,2
1532381713469,-2,-3,15,-15,39,5,6,0
1532381713474,-3,-8,-37,-22,0,-9,-4,-1
1532381713479,2,8,11,2,-86,-7,5,0
1532381713484,-1,4,3,17,-29,-13,11,-2
1532381713489,0,-17,-17,9,38,3,38,2
1532381713494,-1,-2,-3,-3,-23,-60,3,-6
1532381713499,-2,-6,-20,-20,-42,30,-6,0
1532381713504,2,5,18,14,-87,-23,-3,-3
1532381713509,1,5,5,6,-100,7,-11,0
1532381713514,4,4,21,3,-76,8,-5,-3
1532381713519,-1,-4,-34,-7,-5,0,-4,-2
1532381713524,0,2,10,4,-22,2,3,-4
1532381713529,0,-5,-7,-1,15,-26,3,-4
1532381713534,-6,4,13,5,110,20,3,5
1532381713539,-4,6,20,38,112,8,0,11
1532381713544,-7,-5,-15,-34,81,-24,-3,1
1532381713549,-4,-10,-20,-32,47,12,-4,-6
1532381713554,-3,6,9,0,70,-44,4,0
1532381713559,-1,-3,10,5,46,0,1,-2
1532381713564,-1,-3,-25,0,69,4,8,2
1532381713569,-3,-13,9,0,70,-16,-1,3
1532381713574,-3,-6,-13,-8,-8,14,-1,-7
1532381713579,2,-1,-3,-15,-32,16,1,3
1532381713584,4,8,13,20,-68,-17,-5,-4
1532381713589,-1,3,-5,-6,-13,10,-4,-1
1532381713594,-2,3,-6,7,36,37,5,1
1532381713599,-2,16,4,-18,19,-9,1,-6
1532381713604,-4,-10,1,2,5,26,2,-4
1532381713609,0,-17,-52,11,22,50,9,7
1532381713614,-2,5,16,5,48,14,11,1
1532381713619,0,-3,-20,-9,-38,-9,2,-4
1532381713624,1,6,11,-5,41,1,4,-2
1532381713629,-4,2,3,17,92,-20,4,-1
1532381713634,4,-3,-8,-5,-87,-16,-2,-4
1532381713639,3,-6,-11,-11,-64,-6,0,-4
1532381713644,3,2,8,13,-59,-28,10,4
1532381713649,0,-1,14,9,-63,18,2,-2
1532381713654,-2,1,-3,-10,23,-14,2,1
1532381713659,2,-4,0,-9,-78,-4,3,-4
1532381713664,8,-1,4,1,-128,61,-3,-2
1532381713669,7,3,5,-1,-108,-15,-4,-5
1532381713674,-3,2,15,23,99,26,2,3
1532381713679,-8,-5,-10,-25,127,33,-3,1
1532381713684,-9,2,1,8,127,1,-3,8
1532381713689,-3,-4,-14,-32,-2,-7,-14,-2
1532381713694,0,-1,-5,-4,-68,-5,-18,-4
1532381713699,3,4,7,14,-55,-10,-3,0
1532381713704,0,-3,1,4,-6,-16,-4,-6
1532381713709,0,5,21,21,-36,-11,0,1
1532381713714,2,41,23,1,7,-1,2,-2
1532381713719,-6,-40,-50,-4,40,-6,-2,1
1532381713724,-1,2,5,-4,-16,-6,-12,-3
1532381713729,-3,1,1,6,56,-13,29,3
1532381713734,0,-7,0,-9,-9,-10,35,-1
1532381713739,2,12,17,-2,-61,-23,38,-3
1532381713744,1,0,-8,-3,-29,-53,59,-5
1532381713749,-2,-2,2,4,31,28,76,6
1532381713754,-3,-3,0,-1,-13,-11,-6,4
1532381713759,0,0,3,1,-23,-15,-46,-1
1532381713764,-1,-6,-4,0,-2,13,-51,-3
1532381713769,-2,5,3,-3,9,-19,-95,-4
1532381713774,0,-8,-8,-5,11,-18,-15,-1
1532381713779,1,3,5,7,10,22,-41,1
1532381713784,1,4,2,-2,-37,-21,-7,-3
1532381713789,1,2,4,2,-15,-3,44,0
1532381713794,-3,-7,-10,-1,-19,8,26,-2
1532381713799,0,1,6,-2,-17,-15,25,-3
1532381713804,0,0,-10,-9,-13,6,-2,0
1532381713809,0,-5,-2,3,1,3,-24,-1
1532381713814,1,-9,-1,3,-13,-3,-24,0
1532381713819,2,9,21,20,2,0,0,-3
1532381713824,-3,-11,-5,-25,5,15,-24,-2
1532381713829,-3,-9,-33,-7,-38,-8,-36,1
1532381713834,1,9,6,-2,-9,-9,-20,-3
1532381713839,2,-9,-7,-2,-5,3,1,1
1532381713844,0,-2,13,12,0,8,2,2
1532381713849,1,1,7,3,-3,-4,4,-5
1532381713854,0,-5,-2,-3,-6,5,1,-1
1532381713859,-2,4,3,-2,-3,-10,6,1
1532381713864,0,0,-2,2,-11,5,0,0
1532381713869,2,-1,5,-1,-2,-2,-8,-2
1532381713874,-3,-2,0,-1,-1,-3,2,-1
1532381713879,-3,1,3,-3,12,9,11,1
1532381713884,0,1,-6,2,-24,-12,10,0
1532381713889,-2,2,1,-8,8,12,10,-1
1532381713894,0,-1,-2,-3,-12,10,4,-2
1532381713899,0,0,2,0,6,-2,-1,-1
1532381713904,-2,1,4,4,-1,-1,-2,0
1532381713909,0,-1,9,7,10,-5,-1,0
1532381713914,0,-5,-3,-2,13,-2,-4,-1
1532381713919,-3,-1,-3,-7,9,-3,-7,-6
1532381713924,0,4,-2,3,9,2,-7,5
1532381713929,2,2,-1,-1,11,8,-7,0
1532381713934,-2,-6,1,0,7,14,-3,-4
1532381713939,0,0,-17,4,13,18,6,1
1532381713944,1,1,-1,-4,-18,-19,9,-2
1532381713949,-2,-5,-7,-11,-11,-15,5,-2
1532381713954,0,0,-1,5,9,-15,7,1
1532381713959,-2,-2,5,0,9,12,5,-4
1532381713964,1,3,3,1,14,-2,4,-2
1532381713969,-3,-1,1,0,-4,-6,3,-3
1532381713974,0,1,0,0,7,-3,0,-2
1532381713979,5,0,4,-2,1,-16,4,5
1532381713984,-6,-4,-5,2,17,0,1,-3
1532381713989,0,1,-3,1,9,-8,-7,-7
1532381713994,-1,-2,-9,1,6,9,2,1
1532381713999,-2,-12,-11,-9,-4,-3,3,-3
1532381714004,2,-3,0,3,1,8,17,3
1532381714009,1,-4,3,2,-3,5,2,3
1532381714014,-5,-7,-3,0,1,-17,-5,-3
1532381714019,-4,0,22,-13,-11,-11,0,1
1532381714024,-1,-3,-25,2,-1,25,18,1
1532381714029,-4,2,13,23,1,1,2,-2
1532381714034,3,4,-1,-41,-15,-20,-4,4
1532381714039,-3,0,-23,1,-5,-4,-8,-5
1532381714044,0,7,9,-4,3,4,-9,-3
1532381714049,0,6,4,12,10,21,5,2
1532381714054,0,1,1,20,-6,-11,-4,2
1532381714059,-1,1,5,-9,-7,-6,-4,-2
1532381714064,-3,7,-3,-10,-1,0,-4,-2
1532381714069,0,-3,-8,-2,4,3,-6,0
1532381714074,1,2,5,4,-2,15,-8,-8
1532381714079,0,2,-3,4,3,22,2,-1
1532381714084,6,-2,4,8,-6,-46,-5,6
1532381714089,-10,-4,-1,-8,1,-1,-3,-7
1532381714094,4,-3,-7,0,0,-4,2,8
1532381714099,12,2,-1,14,5,-23,3,5
1532381714104,-27,-6,1,-6,12,62,1,-5
1532381714109,9,3,8,9,-15,-51,-6,-13
1532381714114,-2,-6,-9,-23,-8,-2,5,1
1532381714119,-2,-3,-6,-1,6,-1,-6,0
1532381714124,4,-4,-4,-11,-9,-21,0,5
1532381714129,-1,1,-3,-3,-4,32,-1,2
1532381714134,-4,0,2,10,7,19,-7,-1
1532381714139,-1,-1,4,-1,-8,4,2,-1
1532381714144,3,6,7,12,8,6,-5,-7
1532381714149,-4,-3,-6,-8,-9,-10,3,2
1532381714154,4,-3,0,3,6,3,9,0
1532381714159,2,-1,2,-5,1,-12,-1,4
1532381714164,-3,1,-1,10,3,0,6,-2
1532381714169,-2,3,10,13,2,4,-20,1
1532381714174,3,-5,-10,-34,-10,-3,1,-3
1532381714179,-3,-5,-11,-16,-3,1,2,0
1532381714184,-1,-4,-2,-5,0,-4,1,-5
1532381714189,1,2,2,14,0,4,14,0
1532381714194,1,3,8,17,-4,3,-1,1
1532381714199,-3,-3,-9,-14,5,5,-5,2
1532381714204,1,-2,-3,-1,-7,7,3,-1
1532381714209,-1,1,-2,-8,-11,-19,-4,0
1532381714214,1,0,2,8,7,18,-3,-2
1532381714219,1,3,4,15,5,-14,-5,1
1532381714224,3,0,6,1,-5,7,-3,-1
1532381714229,-3,-4,-9,-18,-4,5,-7,-2
1532381714234,-1,-2,-5,-3,2,-14,-1,0
1532381714239,0,-1,-3,-4,-4,24,4,-1
1532381714244,0,1,0,1,5,7,0,-1
1532381714249,1,1,2,6,-3,-11,5,-1
1532381714254,-1,-1,0,5,1,7,6,0
1532381714259,0,1,7,28,5,-6,9,1
1532381714264,-2,0,-1,-25,1,-2,3,-1
1532381714269,-3,-4,-14,-20,-8,1,-5,-2
1532381714274,1,-3,-1,1,5,12,4,0
1532381714279,0,0,3,-1,-10,-14,-6,0
1532381714284,-3,1,3,22,3,-4,4,0
1532381714289,0,0,1,2,2,1,9,1
1532381714294,-2,0,3,-1,5,-7,-9,-3
1532381714299,-2,-3,-7,-11,-10,6,-8,-1
1532381714304,0,-4,-11,-6,-2,-9,-9,-4
1532381714309,1,-1,0,5,0,11,0,0
1532381714314,-1,0,5,14,6,-4,-7,1
1532381714319,-2,-4,-3,-15,2,2,-4,-2
1532381714324,-3,-2,-2,-5,-3,-4,-3,2
1532381714329,-2,-1,0,3,5,-1,-15,-2
1532381714334,-1,-1,1,4,-2,-7,-29,-1
1532381714339,1,-7,7,21,5,-9,-9,-1
1532381714344,-3,-7,-8,-33,-13,-4,-7,-1
1532381714349,-3,-1,0,5,6,1,-10,-3
1532381714354,1,4,-1,-6,-5,4,12,-7
1532381714359,-1,6,-3,-2,0,9,4,1
1532381714364,-2,3,3,13,1,-12,-6,1
1532381714369,2,2,4,-2,-3,0,8,3
1532381714374,-2,1,-4,-1,-5,-6,21,5
1532381714379,-2,0,0,-3,-6,34,6,-11
1532381714384,2,-1,-1,3,5,1,4,-6
1532381714389,-3,-1,1,-2,7,6,5,-6
1532381714394,-1,-4,-2,0,-2,5,5,1
1532381714399,1,0,0,-5,7,-20,12,2
1532381714404,1,1,2,1,-3,1,6,1
1532381714409,-1,-2,-4,-2,-3,2,-1,-3
1532381714414,-1,-3,-1,-3,-2,-18,17,-1
1532381714419,-1,-1,-1,-7,-2,-3,-2,3
1532381714424,0,-1,1,10,3,6,-4,-2
1532381714429,2,1,0,-12,1,-7,5,0
1532381714434,-1,-2,-1,-1,3,10,-3,-2
1532381714439,-2,-2,-6,-11,-7,-8,-3,-2
1532381714444,0,2,1,11,2,-6,2,0
1532381714449,0,-2,2,-2,-3,4,7,2
1532381714454,-1,-3,-5,-12,-6,4,-3,1
1532381714459,1,0,-4,1,-1,-2,-2,-1
1532381714464,-1,-2,-1,-1,5,0,5,0
1532381714469,0,-1,2,18,5,-1,0,1
1532381714474,-1,-1,5,-3,0,-4,-3,-3
1532381714479,0,-1,-4,-4,-1,-13,2,-1
1532381714484,-2,0,-1,-4,-5,0,1,-1
1532381714489,-2,0,-1,-1,-1,-1,-3,-2
1532381714494,1,0,-3,6,-2,-5,-4,-1
1532381714499,-1,0,3,2,-2,-12,1,0
1532381714504,-3,-1,-2,-1,1,3,-1,0
1532381714509,-3,-3,-1,-3,-5,-18,-3,1
1532381714514,-3,-1,-3,-3,-4,15,2,-2
1532381714519,-2,-2,0,0,14,9,-2,1
1532381714524,0,1,-2,-3,-13,17,5,-4
1532381714529,0,-1,1,2,-1,-48,-9,1
1532381714534,-5,-9,-3,0,3,-3,5,-1
1532381714539,1,3,2,-1,1,-3,3,1
1532381714544,-4,-1,3,10,6,6,-6,1
1532381714549,-2,-1,0,-8,0,11,-5,-3
1532381714554,1,2,-2,0,-4,-12,-3,-1
1532381714559,0,-3,-7,-7,-1,-2,-7,-1
1532381714564,2,1,2,10,2,-5,11,-1
1532381714569,3,4,7,-5,-1,3,55,1
1532381714574,1,0,-2,7,-4,-9,28,-2
1532381714579,-2,-1,-4,-18,-6,9,13,-1
1532381714584,-2,-1,-6,-7,-5,-12,-28,-1
1532381714589,-3,1,0,10,1,8,-31,-4
1532381714594,0,1,4,8,8,13,-21,2
1532381714599,-1,2,6,13,3,-9,-46,0
1532381714604,-2,-4,4,-6,-5,-6,-48,-3
1532381714609,-2,-5,-13,-15,-2,10,5,-4
1532381714614,2,0,-3,-5,-1,11,4,-2
1532381714619,-1,-1,-2,-2,-8,-17,-16,0
1532381714624,0,-1,1,-1,6,3,0,0
1532381714629,-1,-2,0,7,0,0,-11,1
1532381714634,-1,-1,-2,-3,-4,-1,6,-1
1532381714639,4,7,11,13,7,28,23,2
1532381714644,-1,0,-4,2,8,3,24,-2
1532381714649,0,-4,-2,-4,-9,4,14,-1
1532381714654,-5,-4,-4,-14,-11,-19,-7,-2
1532381714659,1,-2,-8,-7,-1,1,11,0
1532381714664,0,2,5,4,-3,-3,11,1
1532381714669,0,4,5,13,12,6,1,-3
1532381714674,0,3,2,16,6,-13,-8,1
1532381714679,-2,-5,-3,-19,-13,5,6,2
1532381714684,0,-2,-6,5,-4,-9,15,-3
1532381714689,-2,-4,-4,-15,10,5,-5,-1
1532381714694,0,1,4,5,5,10,-9,0
1532381714699,-2,-2,-1,3,1,6,10,1
1532381714704,-1,-3,-1,-3,-3,-23,0,1
1532381714709,2,3,1,2,-14,19,-4,1
1532381714714,0,-3,-3,-5,-5,15,-2,-1
1532381714719,-2,-1,1,7,20,-11,13,-5
1532381714724,-1,0,-3,-10,-14,-10,4,0
1532381714729,0,1,-2,1,-7,-14,-2,-8
1532381714734,0,-3,3,10,24,-24,19,5
1532381714739,0,-2,-3,-24,-35,18,-5,-3
1532381714744,-3,1,2,9,9,18,3,0
1532381714749,7,2,-9,-12,-10,-17,-8,3
1532381714754,-3,-2,0,-4,3,-3,-10,-4
1532381714759,-3,-10,-8,-9,-12,-19,-2,-1
1532381714764,-3,-1,-7,-20,-2,8,-20,0
1532381714769,-2,-9,1,7,13,2,-18,0
1532381714774,1,12,2,9,-1,-3,-11,0
1532381714779,5,2,2,10,-1,4,-3,-3
1532381714784,3,-2,3,-7,14,10,6,-3
1532381714789,-3,15,7,16,5,-1,16,5
1532381714794,-5,-7,0,-10,-9,0,-7,-4
1532381714799,-4,0,1,9,9,2,7,-3
1532381714804,1,-3,-3,-3,-4,-7,10,-4
1532381714809,0,0,5,10,7,2,-16,2
1532381714814,1,1,-4,-12,-18,5,12,0
1532381714819,-2,-8,-3,-2,4,-4,-2,-2
1532381714824,-2,2,-2,10,-3,-6,9,-1
1532381714829,-1,-6,-5,-19,-2,5,6,1
1532381714834,2,-5,-6,-15,-8,26,-5,2
1532381714839,-3,3,-5,-8,-4,-10,-5,-3
1532381714844,0,-3,-5,-4,-2,7,-2,-1
1532381714849,-7,-4,2,15,-6,-9,14,-5
1532381714854,5,3,6,10,15,-2,9,3
1532381714859,-4,1,6,10,-7,-35,0,-15
1532381714864,-4,-6,-3,-1,-1,-3,2,-8
1532381714869,4,-4,-5,-3,7,3,-3,42
1532381714874,-3,-2,-3,-7,1,-1,-10,-10
1532381714879,8,5,3,6,-20,7,-19,28
1532381714884,1,0,1,0,-4,-3,-7,0
1532381714889,-3,-1,-3,-4,-9,5,-5,-12
1532381714894,1,-2,-2,-2,-4,-6,-11,4
1532381714899,-2,-3,-1,5,7,2,1,-1
1532381714904,-2,-1,0,-1,-6,-2,3,-6
1532381714909,-2,0,0,-8,-15,-7,-2,-6
1532381714914,0,0,-2,3,8,-10,6,-1
1532381714919,-3,-2,-1,-6,9,6,4,-12
1532381714924,-1,2,3,4,21,18,-3,4
1532381714929,0,-2,-2,-1,6,-7,3,-9
1532381714934,-1,-2,-2,-3,-10,1,5,-1
1532381714939,-2,-1,0,1,12,13,4,2
1532381714944,3,-1,-1,-7,-9,-8,-4,2
1532381714949,0,-2,0,3,9,-18,0,-2
1532381714954,-1,-2,0,-2,-4,5,0,-1
1532381714959,0,0,-4,-2,18,-6,-2,1
1532381714964,-1,-2,-2,-7,-24,-3,-1,3
1532381714969,-2,-3,-2,-2,6,5,2,-11
1532381714974,-2,0,2,-1,5,-4,0,-2
1532381714979,-2,-2,-1,1,16,14,3,-1
1532381714984,-1,-1,1,2,17,-4,0,-2
1532381714989,-2,0,-4,-5,4,4,-8,-2
1532381714994,1,0,-1,0,0,1,1,0
1532381714999,0,0,-2,1,-2,2,1,1
1532381715004,-1,-1,0,-1,-9,0,5,0
1532381715009,1,0,0,2,-10,8,2,-3
1532381715014,0,0,1,1,-3,5,-6,-2
1532381715019,-1,0,-2,-3,-8,-12,-1,-3
1532381715024,2,0,-1,-1,-2,-7,-3,7
1532381715029,-1,-2,-1,-1,-3,-8,7,0
1532381715034,-4,-2,-2,-1,-8,-11,-5,-14
1532381715039,1,0,2,2,-1,0,2,-1
1532381715044,0,1,0,2,-2,0,2,0
1532381715049,1,-1,-2,-2,-3,8,-1,1
1532381715054,1,-1,0,2,-1,-4,-1,5
1532381715059,0,-1,1,-2,-6,5,1,1
1532381715064,1,1,-1,0,6,1,10,0
1532381715069,-3,-2,-2,-4,1,2,17,-5
1532381715074,-1,-1,-2,-3,0,4,12,-1
1532381715079,-2,0,1,0,-3,-3,-3,-5
1532381715084,-2,0,-1,-1,-3,0,-22,-1
1532381715089,1,1,1,0,-6,5,-12,0
1532381715094,0,0,1,1,-6,3,11,0
1532381715099,-1,0,-3,-3,-9,7,-3,2
1532381715104,-3,-5,-1,-2,-1,-4,7,1
1532381715109,-3,-2,-3,-2,-6,-5,-5,-4
1532381715114,0,-1,1,-2,3,6,-21,1
1532381715119,-2,-1,-1,2,3,-2,-6,-3
1532381715124,-2,0,-1,0,2,3,6,-2
1532381715129,-2,-2,1,0,4,1,12,7
1532381715134,0,-1,-4,-2,1,-6,12,8
1532381715139,0,-2,1,2,1,-4,2,-3
1532381715144,0,0,-2,-3,2,-1,0,-4
1532381715149,0,-1,0,0,-2,-5,-10,-7
1532381715154,-1,2,-3,-3,3,-15,-2,-1
1532381715159,-2,-3,0,0,2,2,-13,-2
1532381715164,-1,-2,0,1,-2,2,-4,-4
1532381715169,-2,-1,0,-2,-6,7,3,-5
1532381715174,-1,-1,1,3,-2,17,-5,-1
1532381715179,0,2,-1,-2,-11,-2,17,-5
1532381715184,-3,0,0,2,16,18,-6,2
1532381715189,-1,0,-4,-1,-7,-4,-8,2
1532381715194,2,0,0,2,12,0,-17,2
1532381715199,0,-2,1,1,3,-15,-26,-2
1532381715204,0,-1,-1,-1,-2,-12,-13,-2
1532381715209,0,0,1,-1,3,-10,-11,3
1532381715214,-1,-2,-2,-2,1,-8,-5,-6
1532381715219,-4,-2,-1,3,-3,-1,2,-4
1532381715224,0,0,-3,-8,-6,-3,3,-4
1532381715229,2,-2,-1,6,3,1,-6,3
1532381715234,0,-3,-3,-3,-4,-1,1,1
1532381715239,-2,0,-2,-4,0,2,-5,1
1532381715244,-1,-2,-1,-2,-9,-8,1,0
1532381715249,-1,-2,0,-3,-4,-5,-5,-4
1532381715254,0,-2,0,1,0,3,6,-6
1532381715259,-1,0,-3,-1,2,-4,2,6
1532381715264,2,1,1,1,2,-1,9,2
1532381715269,-1,0,-2,-1,3,5,2,-3
1532381715274,-6,-1,0,-1,-5,-5,1,-11
1532381715279,1,-1,0,-2,-1,0,17,-8
1532381715284,3,1,1,0,-4,-1,19,2
1532381715289,1,-1,0,-1,-1,-1,8,-2
1532381715294,-1,-3,-2,-3,-5,-7,1,2
1532381715299,0,-1,-1,-1,-1,0,-16,-6
1532381715304,-1,-1,-2,-2,-6,0,1,-1
1532381715309,-1,1,0,0,-4,4,3,1
1532381715314,-2,-1,1,-2,-5,-4,-16,-3
1532381715319,-1,-1,0,0,0,0,-7,7
1532381715324,-1,-2,1,2,1,3,-12,-2
1532381715329,-2,1,-1,-3,1,5,-21,-4
1532381715334,1,0,0,1,-1,5,-1,3
1532381715339,0,0,-1,-1,-2,-1,6,0
1532381715344,-2,0,0,-1,-1,-3,9,0
1532381715349,-2,-2,-2,1,2,-3,20,-1
1532381715354,0,-1,0,-1,0,-2,14,3
1532381715359,-1,-2,-1,0,-1,-3,13,3
1532381715364,-3,-2,1,1,0,-3,-1,-3
1532381715369,-1,-1,0,-1,1,1,5,2
1532381715374,1,0,-1,0,1,13,-1,-2
1532381715379,-1,-1,1,-1,7,4,35,4
1532381715384,-1,0,-1,-1,1,-3,-2,-2
1532381715389,-2,-2,0,0,-5,-12,6,-2
1532381715394,0,-1,-2,-2,-9,-8,2,0
1532381715399,0,-2,-2,1,-3,-1,-4,-3
1532381715404,-1,0,-2,-2,4,1,2,-2
1532381715409,0,-2,-1,-3,-27,-7,13,-1
1532381715414,-1,0,0,5,-28,5,7,-1
1532381715419,1,2,2,3,-24,6,-5,-1
1532381715424,0,-1,4,4,-10,10,3,1
1532381715429,-2,-1,-7,-18,-2,9,20,0
1532381715434,0,0,6,52,-22,2,7,2
1532381715439,1,0,4,-60,-57,-1,38,-3
1532381715444,-3,-8,-22,-25,-81,-10,-36,-4
1532381715449,-2,-2,-5,-4,-53,-2,-17,-2
1532381715454,0,2,3,31,-13,-10,-13,3
1532381715459,3,3,9,3,6,2,-21,2
1532381715464,-3,-2,-4,-19,31,-10,-7,-1
1532381715469,-2,-3,-5,-5,40,-5,-20,-1
1532381715474,1,-1,-2,-10,-11,-43,0,1
1532381715479,3,3,23,87,-20,-7,0,0
1532381715484,-2,3,5,-28,97,7,21,4
1532381715489,-4,-6,-14,-14,108,9,41,0
1532381715494,-6,-3,-5,-19,124,-13,116,4
1532381715499,-4,-2,-10,-5,18,-13,127,-2
1532381715504,2,2,6,22,7,18,113,-2
1532381715509,-2,4,7,19,82,31,48,0
1532381715514,-5,2,-4,-21,103,39,14,-2
1532381715519,-4,-4,-9,-9,78,17,-38,-1
1532381715524,2,-1,0,11,-21,-3,-59,1
1532381715529,4,2,4,-1,-90,-13,-72,-8
1532381715534,3,-1,-1,-12,-128,-1,-72,-9
1532381715539,2,0,-6,-9,-107,0,-82,-6
1532381715544,2,0,2,10,-98,-5,-68,-2
1532381715549,4,3,5,4,-85,-12,-51,2
1532381715554,1,0,-2,-10,-29,-9,-64,3
1532381715559,-1,-2,-6,-4,23,-7,-60,3
1532381715564,0,-4,0,1,11,-10,-34,2
1532381715569,-1,-3,1,2,23,-7,-29,2
1532381715574,-2,-2,-3,-7,21,3,-27,2
1532381715579,-2,-1,-4,-8,50,-4,-20,2
1532381715584,-3,-1,0,3,31,-5,5,-2
1532381715589,-2,1,1,0,45,-5,3,0
1532381715594,-3,-2,-2,-9,106,2,1,1
1532381715599,-5,-4,-4,-6,123,-5,-2,1
1532381715604,-2,-1,-2,0,74,4,22,-1
1532381715609,1,0,2,-1,8,3,52,0
1532381715614,2,-1,1,-7,-52,10,45,-2
1532381715619,1,1,-2,-2,-74,3,24,-1
1532381715624,2,-1,1,2,-83,2,-2,-3
1532381715629,2,-1,3,-1,-86,3,-18,-2
1532381715634,3,1,0,-1,-89,3,-14,-1
1532381715639,0,2,-1,-3,-58,4,-12,0
1532381715644,0,0,-1,3,-46,0,-11,-1
1532381715649,0,-2,0,5,-18,-4,-2,0
1532381715654,-4,-4,-1,3,3,-8,-9,-1
1532381715659,-2,-5,-3,5,14,-8,-7,-1
1532381715664,-2,-2,-2,5,18,-8,-3,-2
1532381715669,-1,-3,0,0,18,7,-9,1
1532381715674,0,-3,-1,-3,8,11,-10,-2
1532381715679,-2,-1,-1,-2,8,7,-5,0
1532381715684,-3,-2,0,-2,22,-1,-2,-1
1532381715689,-2,-2,-3,-2,11,-6,-5,-1
1532381715694,-1,-3,-2,-3,6,-8,-4,-2
1532381715699,-1,-1,-1,0,4,0,-1,-1
1532381715704,-1,-3,-2,-1,-3,1,-1,-3
1532381715709,-1,0,-1,0,-11,0,0,-1
1532381715714,0,-1,0,0,-11,-2,4,-1
1532381715719,-1,-1,-1,0,-7,-2,2,-2
1532381715724,1,-1,0,0,-4,-1,-2,-2
1532381715729,-1,0,-2,-1,-7,1,-3,-1
1532381715734,-2,-2,1,-1,-4,1,-3,-1
1532381715739,-2,0,0,0,-7,0,-1,-2
1532381715744,-1,-1,-2,0,-8,3,1,1
1532381715749,1,-1,-2,-2,-6,1,3,0
1532381715754,0,0,0,0,-1,-1,3,-1
1532381715759,-2,0,-1,0,4,-1,1,0
1532381715764,-2,0,-1,-1,3,2,3,-1
1532381715769,-2,-2,-1,-1,1,-2,3,-1
1532381715774,0,-1,-1,-1,-3,0,2,-1
1532381715779,-1,0,0,-1,-2,-1,3,1
1532381715784,-3,-1,-1,0,17,-1,2,0
1532381715789,-2,-1,0,0,27,-1,3,0
1532381715794,-2,-2,-3,-2,20,1,3,0
1532381715799,0,-2,0,-2,11,1,1,-3
1532381715804,0,0,0,-1,-5,-1,2,-2
1532381715809,-1,0,1,-2,-10,0,1,-2
1532381715814,0,-1,-1,0,-5,1,1,-3
1532381715819,0,0,-2,1,-2,-2,-1,-1
1532381715824,0,-1,-3,0,0,-1,4,-1
1532381715829,0,-2,-1,0,3,-2,7,0
1532381715834,0,-1,-1,0,-4,-1,3,-1
1532381715839,0,0,0,2,-2,-2,1,-1
1532381715844,0,1,-1,0,-3,-2,-3,-2
1532381715849,0,-1,0,1,-2,-2,-4,-2
1532381715854,0,-1,0,-1,-8,0,-1,0
1532381715859,0,0,0,-4,-1,-1,-1,0
1532381715864,-1,1,0,-1,-4,-1,-3,1
1532381715869,1,0,-1,-2,-12,0,-2,-1
1532381715874,-1,-2,0,-3,6,0,-1,1
1532381715879,-1,-1,-1,-2,5,2,-1,-2
1532381715884,-2,0,0,-3,3,0,1,1
1532381715889,-1,2,-2,-3,-1,1,2,-3
1532381715894,-2,2,-1,-2,0,0,-3,-1
1532381715899,-2,0,0,0,-8,1,1,0
1532381715904,0,-1,0,-1,-5,3,0,-1
1532381715909,-1,-1,-2,-1,5,-2,-1,-1
1532381715914,0,0,-1,-1,9,-2,0,0
1532381715919,-1,-2,0,-1,2,-3,3,-2
1532381715924,-2,-2,-1,-1,11,-2,-2,0
1532381715929,0,0,-2,1,16,0,0,0
1532381715934,1,-2,-1,-2,12,-1,0,-3
1532381715939,-1,1,-2,-1,-1,-1,-1,-2
1532381715944,-1,0,-1,-3,-16,-3,2,-2
1532381715949,-1,-1,-2,-1,-15,1,0,-1
1532381715954,0,1,-1,0,-14,-2,3,1
1532381715959,-1,-1,-1,2,-9,-1,1,0
1532381715964,-1,-2,-1,0,-8,-2,0,-1
1532381715969,-3,-1,0,1,-5,-2,1,1
1532381715974,-2,0,-2,1,-8,-1,0,-1
1532381715979,-2,-2,-1,0,3,-1,-2,-2
1532381715984,-1,-1,-1,-1,9,-1,-1,-1
1532381715989,-1,-1,0,0,2,0,39,-3
1532381715994,0,-1,-2,-2,6,-3,21,-1
1532381715999,-1,-1,-3,-3,4,-1,3,0
1532381716004,-4,-1,-3,-1,5,1,-10,0
1532381716009,0,-2,0,-3,0,1,-24,-1
1532381716014,0,0,-2,0,2,1,-15,-1
1532381716019,-1,-1,-2,-1,3,1,-7,-1
1532381716024,2,-2,-1,-2,-5,-1,-7,0
1532381716029,0,-1,0,0,-7,-2,-8,0
1532381716034,0,-2,0,0,-5,-3,-4,-2
1532381716039,-1,-2,1,1,-6,-2,-6,0
1532381716044,-1,-1,-2,-1,-6,-1,1,0
1532381716049,1,0,-2,-1,-11,-3,-3,-1
1532381716054,-1,-3,-1,-2,-14,-1,-4,0
1532381716059,0,0,0,1,-17,-2,0,-1
1532381716064,0,-2,0,0,-13,0,3,-1
1532381716069,0,1,-2,-2,-11,-1,-1,-2
1532381716074,-2,-1,0,-1,-11,0,-2,0
1532381716079,0,-2,0,-1,-7,1,4,-1
1532381716084,1,-1,-1,-1,-6,-2,9,2
1532381716089,-1,-1,0,-1,-13,-3,0,-1
1532381716094,1,1,0,0,-21,-1,-1,-1
1532381716099,-1,-1,-2,0,-7,-2,0,-1
1532381716104,0,0,1,-1,-24,0,-3,-2
1532381716109,0,-2,-1,-1,-29,1,-7,-1
1532381716114,0,0,-1,-2,-37,0,0,-2
1532381716119,0,-1,1,-2,-45,0,0,1
1532381716124,1,-1,-1,-1,-40,1,0,0
1532381716129,1,-1,0,1,-14,1,0,1
1532381716134,-1,-1,-2,0,-12,-1,1,0
1532381716139,-1,-1,0,-2,15,2,0,-1
1532381716144,-3,-1,-2,-2,18,-2,2,-2
1532381716149,-2,0,0,0,17,-2,0,0
1532381716154,-2,-1,0,4,32,-1,-3,1
1532381716159,0,1,-2,3,12,-1,2,-2
1532381716164,0,0,0,-3,30,-2,0,0
1532381716169,-2,0,-2,-1,23,-1,-2,-1
1532381716174,-2,1,-1,-3,13,-1,-2,-2
1532381716179,0,0,-2,-3,-4,1,-2,-2
1532381716184,-2,1,1,1,23,0,-2,-1
1532381716189,-2,0,0,-1,41,-1,-5,-2
1532381716194,-2,-2,-2,-1,10,-2,-1,-2
1532381716199,0,-2,-1,-1,4,-1,2,-2
1532381716204,0,-1,0,-2,-2,-2,3,-2
1532381716209,1,-1,-1,4,-3,-1,4,-1
1532381716214,-2,0,-1,-11,29,1,2,-1
1532381716219,-4,-2,1,5,23,-2,-1,-1
1532381716224,-2,-2,-1,-7,11,-2,1,0
1532381716229,-2,-2,-2,0,4,-1,-1,-1
1532381716234,0,-1,-2,1,-11,-1,-1,-1
1532381716239,-1,-1,-1,0,0,1,1,1
1532381716244,0,0,0,2,-17,0,-2,1
1532381716249,1,1,0,0,-35,0,1,-3
1532381716254,1,-2,0,0,-67,1,2,-2
1532381716259,3,-1,-2,-4,-63,0,1,-2
1532381716264,-2,-1,1,1,34,-1,-3,-2
1532381716269,-4,-4,-1,-3,49,-3,-2,2
1532381716274,-3,-1,-2,0,58,-1,-5,0
1532381716279,-2,0,0,-1,45,-1,-3,1
1532381716284,-1,-2,-3,0,-31,1,3,-3
1532381716289,-1,0,0,-1,-27,1,-1,0
1532381716294,2,0,1,3,25,-1,-2,0
1532381716299,-1,-1,-1,-2,-4,1,0,0
1532381716304,-1,0,-2,0,24,-3,-3,-1
1532381716309,-2,-1,0,-1,31,-2,-4,-1
1532381716314,-1,-1,-1,0,-28,0,3,-1
1532381716319,0,0,-2,-2,-33,0,-1,-3
1532381716324,3,-1,-1,3,-84,0,0,-4
1532381716329,1,0,0,1,-68,2,2,0
1532381716334,1,-3,1,2,-19,0,0,1
1532381716339,-4,-1,0,0,120,-4,-9,2
1532381716344,-6,-2,-3,1,88,-3,-7,2
1532381716349,-4,-1,-2,-2,105,-3,-6,1
1532381716354,-2,-3,-4,-1,22,-4,-2,-2
1532381716359,0,-2,-1,-4,10,-2,-1,-2
1532381716364,-1,0,-2,-2,12,1,3,-1
1532381716369,-1,-1,0,-4,30,0,-3,-1
1532381716374,-1,0,-2,-3,-1,0,3,-1
1532381716379,-2,-2,-2,-3,50,-2,-1,-2
1532381716384,-2,-1,-1,-4,58,-1,-1,2
1532381716389,1,-1,-1,0,0,0,-3,-2
1532381716394,-1,-1,0,1,-12,0,1,1
1532381716399,1,-1,0,0,-36,-1,3,-1
1532381716404,-4,-1,-1,1,14,-2,0,-1
1532381716409,2,1,0,2,-59,0,5,-1
1532381716414,-1,1,-1,0,-8,1,3,-2
1532381716419,-5,0,-1,-2,94,-2,-6,0
1532381716424,-5,-1,-3,-2,122,-2,-3,1
1532381716429,-4,-1,-2,0,106,-2,-1,1
1532381716434,0,-1,-1,-1,4,-1,3,0
1532381716439,1,0,0,-1,-74,1,7,-4
1532381716444,5,0,0,0,-104,0,3,-2
1532381716449,0,0,0,0,-93,-2,2,-2
1532381716454,2,-1,0,0,-85,1,0,-3
1532381716459,3,-2,0,-1,-100,1,3,-2
1532381716464,0,-1,1,1,-70,1,5,-1
1532381716469,2,-1,0,0,-67,1,3,-2
1532381716474,0,2,-1,0,-29,-2,-1,-2
1532381716479,-1,0,1,-1,-31,0,-1,-4
1532381716484,-1,-1,-1,-2,-21,-4,-1,-1
1532381716489,-3,0,0,-1,-16,0,-3,0
1532381716494,-2,-1,-1,1,5,-1,-2,-1
1532381716499,1,-2,-2,0,-13,0,3,0
1532381716504,1,0,0,-2,8,1,-1,-2
1532381716509,-1,-1,-2,-3,19,1,-1,0
1532381716514,-3,-3,-1,-1,40,-1,-5,3
1532381716519,-1,-2,-2,1,21,-1,-4,1
1532381716524,-2,-3,-1,-2,8,0,-2,-1
1532381716529,2,-2,-1,0,-32,-1,4,-3
1532381716534,1,0,0,1,-57,0,4,-3
1532381716539,0,-1,0,-3,-20,0,3,-2
1532381716544,-2,2,0,-1,7,-1,-3,0
1532381716549,-1,-2,0,0,27,0,-5,1
1532381716554,-1,-1,-2,-3,17,1,-1,2
1532381716559,-1,-1,-1,0,16,-2,0,-1
1532381716564,0,0,-1,2,36,-2,-3,-1
1532381716569,-1,0,-1,-1,34,-3,-3,-1
1532381716574,-3,-1,-1,-3,50,1,-3,1
1532381716579,0,-1,-1,0,3,1,1,0
1532381716584,0,-2,-1,-2,-15,1,5,0
1532381716589,-1,-1,-2,-1,-13,0,2,-1
1532381716594,-1,-1,1,-1,-3,0,1,-1
1532381716599,-1,-1,-1,-1,8,1,-1,-1
1532381716604,0,-3,-2,1,-13,2,-2,-3
1532381716609,0,-1,0,-1,-5,0,-1,1
1532381716614,0,-2,-1,0,-15,-1,-1,-2
1532381716619,-1,0,0,-2,-15,-2,-2,0
1532381716624,0,-1,1,-3,-16,-2,-2,1
1532381716629,0,-1,-2,-1,-9,-2,-1,0
1532381716634,0,-1,0,-3,-14,-1,0,-1
1532381716639,1,0,0,0,3,-1,-1,-3
1532381716644,-3,1,-2,1,4,-2,1,0
1532381716649,-3,0,-1,4,4,-1,-3,-1
1532381716654,0,-1,-1,5,1,-2,-2,0
1532381716659,-1,0,-1,3,-5,0,0,0
1532381716664,-2,-1,2,-1,-10,-2,5,-1
1532381716669,0,1,0,-2,-13,-1,4,-1
1532381716674,0,0,1,-4,-7,-3,1,-2
1532381716679,-2,2,-2,-3,-6,-2,-3,0
1532381716684,1,0,-2,-2,-9,0,0,-1
1532381716689,2,0,-1,-4,-8,-1,0,-2
1532381716694,0,0,-1,-1,-3,0,-3,-1
1532381716699,0,-2,-1,-3,-7,1,-1,-1
1532381716704,1,0,-2,-1,-10,0,-1,-2
1532381716709,0,-2,-1,-3,-8,-3,-5,-2
1532381716714,-1,-3,0,-2,-2,0,-1,-1
1532381716719,0,0,0,-3,-6,-2,-2,0
1532381716724,-1,-2,-2,1,-9,-3,-4,1
1532381716729,0,-1,0,-1,-6,2,0,0
1532381716734,-3,-1,-1,-1,0,-1,-2,0
1532381716739,0,0,-2,-1,-4,-1,1,0
1532381716744,-1,0,0,-1,-4,0,-1,-3
1532381716749,-1,0,-1,-3,-1,1,0,-1
1532381716754,1,-1,-2,-6,7,-2,2,-2
1532381716759,-1,0,1,-4,-2,-1,2,-1
1532381716764,-1,-1,2,-3,-12,-1,-1,-2
1532381716769,-1,-2,-1,0,-20,-1,-2,-2
1532381716774,2,0,-1,2,-22,1,0,-2
1532381716779,-2,0,-2,2,-6,-2,1,-2
1532381716784,-3,-1,-2,3,4,0,-2,1
1532381716789,-2,-1,-1,1,22,-3,3,-1
1532381716794,0,-2,-1,1,7,0,-1,0
1532381716799,0,0,-1,-1,11,-2,2,0
1532381716804,-2,-2,-1,-1,16,-2,-2,-1
1532381716809,-1,-1,-1,0,6,-1,-3,-1
1532381716814,0,-1,-1,-1,15,0,-4,-1
1532381716819,-1,1,-2,-1,19,0,-4,-1
1532381716824,-1,0,-1,-1,19,-3,-2,0
1532381716829,-2,-1,0,-1,24,0,0,0
1532381716834,-1,0,-1,-1,9,-1,2,-1
1532381716839,-2,-1,0,-1,9,-2,0,-1
1532381716844,0,-2,0,0,15,-1,-3,-1
1532381716849,0,-2,-2,-1,4,-1,0,0
1532381716854,-1,0,-1,-1,-19,0,0,-1
1532381716859,0,-2,-1,1,-2,2,2,0
1532381716864,0,-2,-1,-2,3,-1,-2,-1
1532381716869,-2,-1,-2,-1,2,-2,-1,-2
1532381716874,0,0,-1,-1,21,2,2,0
1532381716879,-2,-1,-1,-3,-2,-1,2,-1
1532381716884,-2,0,-1,-3,0,-1,0,-2
1532381716889,1,-1,0,1,1,0,-4,-1
1532381716894,0,0,-1,-2,10,-2,0,-1
1532381716899,-2,-2,-1,-2,15,0,-1,1
1532381716904,1,0,-2,-3,-4,-3,1,0
1532381716909,0,0,-1,-3,-11,-1,-1,-1
1532381716914,0,0,0,-3,-15,-1,-1,-3
1532381716919,0,-3,-1,-2,-15,-1,1,-3
1532381716924,1,0,-1,1,-17,1,2,-2
1532381716929,0,0,-2,-2,-12,-1,-2,-1
1532381716934,0,-1,-1,-3,-8,0,-7,1
1532381716939,0,-1,-1,-2,-9,-3,-4,-1
1532381716944,-1,0,0,1,-7,0,0,0
1532381716949,1,-1,-1,0,-7,1,-2,0
1532381716954,0,-1,-2,0,-3,-1,0,-1
1532381716959,-1,0,1,0,7,0,-1,0
1532381716964,0,-1,0,-1,-3,0,0,1
1532381716969,-3,0,-1,-1,1,-3,2,-1
1532381716974,-2,0,0,-1,0,-1,-2,-1
1532381716979,0,-1,-1,-1,3,0,1,-1
1532381716984,1,0,0,-1,-1,1,3,-2
1532381716989,-1,0,-1,-1,1,-1,1,-1
1532381716994,-1,0,-1,-1,-5,0,2,-3
1532381716999,0,0,0,0,-4,-1,-1,-1
1532381717004,0,0,-3,0,2,2,-3,-1
1532381717009,-2,-2,0,-1,-1,-2,0,-1
1532381717014,-2,-1,-2,-2,-1,-3,3,-1
1532381717019,-1,0,0,-2,-2,-1,-2,-1
1532381717024,-1,-1,0,1,-6,-2,-1,-1
1532381717029,-1,-2,-1,0,-7,3,0,-1
1532381717034,0,-2,0,5,-10,0,-2,-1
1532381717039,1,-3,-1,4,-15,0,0,0
1532381717044,-1,-1,-2,1,-9,-2,0,-2
1532381717049,-2,0,0,0,-8,-1,1,0
1532381717054,0,-2,0,-2,-6,-1,0,-1
1532381717059,0,-1,0,-4,-5,-1,-2,-1
1532381717064,-1,-2,-1,-3,1,0,2,-2
1532381717069,0,-1,-2,-3,1,-2,20,0
1532381717074,-2,0,-3,-4,11,-1,8,-2
1532381717079,-1,-1,-1,-3,9,-1,26,0
1532381717084,-1,-2,-1,-4,9,0,26,0
1532381717089,1,-1,0,-2,8,0,10,0
1532381717094,0,0,-2,1,2,-1,1,0
1532381717099,-1,0,0,1,7,0,-23,0
1532381717104,-1,0,0,0,3,0,-23,0
1532381717109,-1,0,0,1,5,-1,-20,-1
1532381717114,0,-2,2,-3,4,1,-21,-1
1532381717119,-2,-2,0,0,1,1,-12,-2
1532381717124,1,-2,-1,0,-6,0,-9,0
1532381717129,0,-4,-2,3,-6,-1,-11,-2
1532381717134,-1,-3,-1,2,-2,-1,-9,-1
1532381717139,-2,-1,-1,4,-3,-2,-2,-2
1532381717144,1,1,1,4,-6,-3,-6,-2
1532381717149,1,0,-1,2,-6,-1,-4,-1
1532381717154,-1,0,-3,-1,-9,-2,1,0
1532381717159,1,-3,-1,-2,-12,-3,-1,-1
1532381717164,-2,-2,0,-4,-13,-1,-4,0
1532381717169,0,0,1,-2,-10,-2,-3,0
1532381717174,-1,0,-1,-2,-20,-2,3,-3
1532381717179,0,1,-1,-1,-12,0,-1,-2
1532381717184,-1,0,-1,-2,-8,0,-3,0
1532381717189,0,0,-1,0,-2,-2,-2,1
1532381717194,-1,-1,-1,-1,-3,3,5,0
1532381717199,-3,-1,-1,0,-4,-1,4,-1
1532381717204,0,-3,0,-2,-1,-2,3,-2
1532381717209,1,1,0,-2,-47,-1,3,-1
1532381717214,1,-1,0,1,-17,-2,-3,-2
1532381717219,1,0,-2,0,13,1,1,0
1532381717224,-2,0,0,-1,25,0,-1,1
1532381717229,-2,-1,-1,-3,40,-3,-1,-1
1532381717234,0,1,-1,-7,-8,0,2,-2
1532381717239,0,1,0,-1,-14,-1,2,0
1532381717244,-1,1,0,-1,-26,-2,5,-1
1532381717249,-1,0,0,4,15,-2,-3,-1
1532381717254,-2,-1,-2,0,17,1,-2,0
1532381717259,-2,-3,-2,3,27,3,-1,1
1532381717264,1,0,-1,2,-11,2,2,0
1532381717269,0,-1,-1,4,-8,1,2,-1
1532381717274,2,-2,2,-3,29,-3,1,-2
1532381717279,0,-3,0,-6,9,-3,1,-1
1532381717284,0,-2,-3,-4,5,-3,-1,-2
1532381717289,-1,-1,-4,-6,-16,-3,-3,-3
1532381717294,-2,-1,-6,4,23,-2,-2,1
1532381717299,-2,1,0,1,39,-3,-2,0
1532381717304,-2,-1,2,0,24,-1,-3,0
1532381717309,0,-1,2,4,20,2,-2,1
1532381717314,-1,-1,1,0,-6,1,0,0
1532381717319,1,0,0,0,5,0,-2,-2
1532381717324,-2,-2,-1,-2,6,-1,-1,-2
1532381717329,-1,-3,-8,-7,-2,0,-1,-1
1532381717334,-3,1,0,2,1,-1,1,-3
1532381717339,-1,-1,1,3,11,-1,0,2
1532381717344,-2,0,-1,5,16,-1,-1,-1
1532381717349,-1,-1,-1,-9,21,-1,-3,0
1532381717354,1,-2,-4,-6,-9,-1,2,0
1532381717359,0,0,0,-5,-20,1,-3,-1
1532381717364,1,-1,-4,2,-10,1,0,0
1532381717369,0,0,0,2,-16,0,1,-1
1532381717374,0,0,2,-3,-10,0,-1,-1
1532381717379,-1,1,2,-9,-20,0,-1,-2
1532381717384,-1,-2,-3,-3,-4,-1,-1,-1
1532381717389,-3,-1,-1,-7,-1,0,0,-1
1532381717394,-1,-1,-2,2,-11,-2,1,0
1532381717399,1,0,-3,3,-2,-1,-2,-2
1532381717404,0,1,2,11,-6,1,1,0
1532381717409,1,0,3,3,-14,1,1,-1
1532381717414,-3,-2,0,-16,-6,-3,-1,0
1532381717419,-1,-2,-4,4,-31,0,0,-2
1532381717424,-1,1,-3,-8,-3,-1,-1,-1
1532381717429,-1,0,-6,2,24,-2,-8,0
1532381717434,-2,0,0,6,17,-1,-3,-2
1532381717439,-1,0,1,-4,9,-2,-1,-2
1532381717444,-1,-1,1,3,32,-1,-1,0
1532381717449,-1,1,-2,3,5,0,-7,0
1532381717454,-1,-2,1,-2,10,1,-5,-2
1532381717459,1,0,-2,0,-8,-2,-2,0
1532381717464,-3,-1,-1,4,-2,0,2,0
1532381717469,0,-1,0,-9,-1,0,3,-1
1532381717474,-3,-1,-1,-4,11,-2,-2,-1
1532381717479,0,-2,0,-2,-3,0,1,0
1532381717484,0,-1,1,4,-11,1,1,-1
1532381717489,0,1,1,12,0,2,1,-1
1532381717494,1,1,1,-10,8,1,2,-1
1532381717499,-1,-2,2,-9,-5,-2,2,-3
1532381717504,0,-3,-4,3,-4,-1,-1,-3
1532381717509,-2,-1,-3,-4,0,-2,-1,0
1532381717514,0,1,0,7,-11,-1,2,-1
1532381717519,0,-1,2,2,-13,2,4,-1
1532381717524,-1,2,1,-2,4,-8,0,0
1532381717529,-1,-2,3,-1,14,-11,-2,-1
1532381717534,-3,-1,-7,-2,22,-7,-4,-2
1532381717539,-3,0,-2,-4,2,-3,-2,-1
1532381717544,-2,0,-1,1,13,0,-2,2
1532381717549,-1,-3,-2,-4,6,-10,-1,1
1532381717554,-1,-2,2,0,10,-9,-1,2
1532381717559,1,0,1,5,5,1,-1,-2
1532381717564,1,1,2,9,-1,5,-3,-2
1532381717569,1,-2,0,-20,-4,9,1,-4
1532381717574,-1,-4,-9,-2,-3,6,0,-1
1532381717579,-2,-2,-4,-3,6,0,-3,-1
1532381717584,0,0,4,3,17,1,0,0
1532381717589,-1,0,-1,-4,4,-1,1,-1
1532381717594,-1,1,3,-2,0,-1,-2,1
1532381717599,0,1,-1,4,-15,2,1,2
1532381717604,1,0,1,-6,-10,-2,0,1
1532381717609,-4,-2,-5,2,7,0,-5,-1
1532381717614,-1,-1,-1,-7,7,-1,-1,-2
1532381717619,-1,0,0,-1,-2,-1,-1,1
1532381717624,1,-1,-2,-3,-11,-1,2,-1
1532381717629,-1,-1,1,4,-4,4,2,0
1532381717634,1,0,1,4,-13,0,0,-1
1532381717639,0,0,3,-1,-8,-2,-1,-1
1532381717644,-2,-1,0,-2,-1,-1,-2,-2
1532381717649,-1,-1,-5,-4,5,1,1,1
1532381717654,0,-1,0,-2,5,0,0,-1
1532381717659,0,0,1,0,6,1,-2,0
1532381717664,-1,-1,-4,3,-7,0,-2,-1
1532381717669,2,2,-4,2,-5,3,-2,1
1532381717674,-2,-1,3,0,-6,1,-1,0
1532381717679,-2,-2,-3,-2,-6,1,-1,-2
1532381717684,0,-3,-2,-2,-5,3,2,1
1532381717689,0,-2,-1,3,-3,2,1,0
1532381717694,0,1,-1,5,-3,3,0,-1
1532381717699,1,-2,-2,-4,-2,1,5,-2
1532381717704,-2,0,-3,-7,-10,0,0,-2
1532381717709,-2,-1,-2,0,-3,0,-1,0
1532381717714,-2,0,0,1,0,0,-1,-1
1532381717719,-2,-2,1,7,-3,-1,-3,-1
1532381717724,1,1,1,-5,-7,-1,-2,0
1532381717729,-1,0,-1,-4,-4,-3,0,0
1532381717734,-1,1,2,6,3,-2,-2,-1
1532381717739,-1,-2,-1,-7,5,-2,-2,-2
1532381717744,-3,-1,0,-1,5,-3,-3,-1
1532381717749,-1,-2,0,5,4,-4,-10,-3
1532381717754,-1,-2,-5,-4,6,-1,-15,-2
1532381717759,0,1,-1,-2,8,0,-12,0
1532381717764,1,2,-2,2,8,-1,-6,-1
1532381717769,0,3,3,4,6,0,-1,0
1532381717774,1,-2,1,0,-3,1,3,0
1532381717779,-1,-1,-4,-6,-10,-1,6,0
1532381717784,1,-3,0,0,-4,0,5,-1
1532381717789,0,-2,1,-2,-1,1,7,1
1532381717794,0,-3,-2,-3,-5,0,9,0
1532381717799,-1,-1,-2,-5,-8,0,3,-2
1532381717804,-1,-2,-1,1,-5,0,3,-1
1532381717809,-1,-1,-2,-1,-6,-2,0,-2
1532381717814,-1,-1,0,0,-2,-2,1,-2
1532381717819,0,0,-1,1,-2,-1,0,-2
1532381717824,0,-1,-2,-4,-8,-2,1,-3
1532381717829,1,1,-2,0,-4,1,-2,-1
1532381717834,-1,3,2,-2,-3,0,0,0
1532381717839,-1,-1,-6,1,-4,-3,1,-1
1532381717844,-2,-3,1,0,-4,-1,-2,-4
1532381717849,-1,-3,-1,-3,-4,1,-2,-1
1532381717854,-1,-2,1,0,0,-5,0,1
1532381717859,-1,0,2,3,3,-1,1,0
1532381717864,1,-1,-2,1,3,0,-2,0
1532381717869,-1,-2,1,-4,3,5,3,1
1532381717874,-1,-1,-1,-5,4,-2,-4,0
1532381717879,0,0,1,0,4,-1,-2,-1
1532381717884,-1,0,-2,0,6,0,-2,1
1532381717889,-2,1,1,5,5,-3,-4,-1
1532381717894,1,0,0,-3,3,2,-1,0
1532381717899,-1,-2,-2,-3,-9,13,-5,0
1532381717904,-1,-11,-1,-1,-9,4,-4,1
1532381717909,1,-5,-6,1,2,0,2,0
1532381717914,-1,-1,-1,-3,0,-9,1,-1
1532381717919,-2,4,4,3,2,-13,1,-1
1532381717924,-2,4,-1,3,-5,-10,-3,0
1532381717929,0,1,-1,-5,-8,-7,-1,-1
1532381717934,-1,-3,-4,-3,-9,-2,-7,-2
1532381717939,1,-1,-2,6,-2,-2,-5,-2
1532381717944,-2,0,-1,-14,-3,1,-4,0
1532381717949,-2,0,4,6,3,-3,2,-1
1532381717954,-1,0,1,-4,2,1,6,0
1532381717959,-1,-5,-3,-2,7,1,6,3
1532381717964,-1,-2,-2,2,6,0,5,-2
1532381717969,-1,1,-3,2,1,-4,1,-1
1532381717974,-3,1,-2,1,-1,3,0,-3
1532381717979,1,-2,-1,-4,-3,-2,-3,0
1532381717984,1,2,-1,2,0,-1,-3,-2
1532381717989,-2,1,1,-6,-2,-2,-6,-2
1532381717994,-1,-1,-2,4,1,1,0,1
1532381717999,1,2,2,-1,2,-4,-4,0
1532381718004,-4,-2,-3,-4,1,0,2,-2
1532381718009,-2,-6,-1,1,0,-1,-4,1
1532381718014,-2,-2,-2,-1,0,-6,-3,-1
1532381718019,9,-4,-1,-9,-3,-2,-9,0
1532381718024,1,-6,1,-2,-4,-1,-20,0
1532381718029,-9,-6,-1,5,0,5,-14,-5
1532381718034,7,0,0,0,-1,6,-1,3
1532381718039,2,9,1,1,-5,1,1,-2
1532381718044,5,-1,-1,5,-1,2,4,-2
1532381718049,5,1,-4,-12,-4,-1,6,1
1532381718054,-7,-7,-5,-2,-3,0,-4,-4
1532381718059,-3,5,5,-5,0,4,-4,-4
1532381718064,-1,7,-6,-2,-3,1,2,2
1532381718069,-9,-2,0,-1,-2,-1,1,-4
1532381718074,3,2,-1,-2,-3,1,18,1
1532381718079,-2,-1,-1,4,0,-2,2,-3
1532381718084,-3,-4,5,7,2,-1,-8,-1
1532381718089,3,-1,-1,-1,-1,-1,-5,1
1532381718094,-2,-3,-1,-2,-2,-3,-4,1
1532381718099,-5,-5,-1,3,2,2,7,-2
1532381718104,-2,0,-1,-8,-1,0,9,-1
1532381718109,0,1,-2,0,-4,0,13,-1
1532381718114,0,-2,-2,-9,-3,-1,3,-3
1532381718119,-6,-4,0,5,2,-3,6,-2
1532381718124,5,5,1,1,7,2,6,2
1532381718129,4,3,1,6,0,-3,2,1
1532381718134,-1,1,0,-3,1,0,-4,-3
1532381718139,-3,-4,-4,4,-4,-2,-5,0
1532381718144,-5,-6,-1,-10,-5,-4,2,-1
1532381718149,0,-2,0,-5,-1,1,0,-4
1532381718154,1,-4,0,5,-2,-1,-7,1
1532381718159,-1,-2,-2,-3,-2,-1,0,0
1532381718164,-2,-1,5,19,-4,-3,6,-2
1532381718169,1,0,-1,1,-4,-1,1,-1
1532381718174,-2,-1,-8,-25,3,2,-9,-6
1532381718179,-2,-2,-6,-3,2,3,-3,-2
1532381718184,-3,-1,-3,-3,-3,-2,-7,3
1532381718189,4,2,2,21,3,1,6,0
1532381718194,1,4,8,-40,-1,0,10,-2
1532381718199,-1,-1,-10,-11,-8,-10,7,1
1532381718204,-2,-2,-5,0,-15,-2,-3,-3
1532381718209,-2,-2,-2,2,18,4,-13,-2
1532381718214,-1,-4,2,17,-5,-2,-13,2
1532381718219,0,-1,-2,-8,1,-1,-1,7
1532381718224,2,1,-1,-10,6,3,-15,-6
1532381718229,0,-1,2,5,1,3,-1,1
1532381718234,1,2,1,12,-2,0,0,-1
1532381718239,-3,0,2,4,-9,-17,2,-1
1532381718244,-4,-4,-1,-4,8,1,7,-2
1532381718249,4,1,-1,-6,-3,-2,8,-1
1532381718254,0,-2,3,15,-21,-4,11,-1
1532381718259,0,-2,-2,-8,14,18,3,-6
1532381718264,-2,-4,0,2,-3,-7,8,-1
1532381718269,-2,0,-3,-10,8,7,0,2
1532381718274,0,-1,-5,-2,1,-6,3,12
1532381718279,-1,0,4,10,-2,0,-4,-9
1532381718284,0,2,2,2,-2,2,4,-3
1532381718289,0,-1,-3,-8,-4,-12,-2,-4
1532381718294,-1,1,3,17,6,0,4,2
1532381718299,2,-1,0,0,1,0,0,2
1532381718304,2,0,-2,-12,-6,-4,-3,1
1532381718309,0,-1,-1,-4,1,-6,-6,-2
1532381718314,-1,-1,-1,1,5,4,-4,0
1532381718319,0,1,0,1,2,0,-4,-1
1532381718324,1,0,-1,-1,3,1,5,1
1532381718329,-6,-4,-1,-1,-8,-4,-4,-4
1532381718334,-5,-4,-2,3,1,-4,-3,4
1532381718339,9,2,0,-3,0,3,1,4
1532381718344,-10,-3,-2,3,-2,-3,-1,-24
1532381718349,5,1,-1,-2,-7,0,-3,13
1532381718354,-1,0,-5,0,5,1,-2,0
1532381718359,-5,-1,0,-2,-2,-1,4,-2
1532381718364,-1,-1,-2,1,2,-2,1,0
1532381718369,-1,-1,1,-1,-6,-3,-5,9
1532381718374,-8,-1,-3,-3,4,1,-14,-60
1532381718379,7,1,0,0,-5,1,-2,27
1532381718384,0,-2,0,1,2,4,5,3
1532381718389,-6,0,0,-1,1,-4,20,-15
1532381718394,8,0,1,7,1,-3,10,33
1532381718399,-4,-1,-1,-7,-9,-6,3,-15
1532381718404,1,-6,1,-3,4,2,45,6
1532381718409,-1,-3,-9,-13,-3,4,42,-2
1532381718414,-6,-5,-5,-1,-6,-8,23,-6
1532381718419,-5,-4,-3,1,-6,-8,-12,-11
1532381718424,4,2,3,5,-3,0,-19,13
1532381718429,1,1,4,0,0,2,-17,2
1532381718434,1,-1,1,1,4,4,-8,1
1532381718439,-2,-1,2,1,3,2,-3,5
1532381718444,1,1,-3,-1,-11,-7,-21,-10
1532381718449,-4,-2,1,0,3,0,-20,-6
1532381718454,0,1,0,-1,-1,1,-16,1
1532381718459,-2,-3,-1,-1,-2,-1,-7,-4
1532381718464,0,2,-1,-3,3,0,-12,4
1532381718469,0,-1,0,1,-1,0,-12,5
1532381718474,1,1,1,1,-9,-1,2,-2
1532381718479,-3,-1,1,-3,-9,4,2,-5
1532381718484,-1,0,-3,-6,-21,-1,-32,1
1532381718489,0,-1,-2,-2,6,2,-21,0
1532381718494,-2,0,-1,-1,13,6,-1,-3
1532381718499,-1,0,0,-1,-1,-15,1,-1
1532381718504,-1,2,1,2,2,-1,22,-3
1532381718509,0,-4,-1,3,3,-6,4,-1
1532381718514,-1,1,-1,-2,-3,5,-3,2
1532381718519,-2,1,1,3,-9,-3,-9,-3
1532381718524,0,-2,-4,-13,4,0,4,7
1532381718529,-2,-1,0,1,-5,-1,23,0
1532381718534,-2,-2,0,3,9,-4,-4,-2
1532381718539,5,1,3,5,-17,-1,-8,-4
1532381718544,-1,0,2,-5,-2,-1,-5,-1
1532381718549,0,-1,-7,-13,-14,-16,-2,0
1532381718554,-5,-5,-9,-15,-6,-6,-3,-2
1532381718559,0,0,0,-9,-13,-30,-10,1
1532381718564,3,1,3,17,-11,20,14,-5
1532381718569,-4,0,-4,-16,14,20,6,3
1532381718574,0,2,1,9,-11,-4,6,2
1532381718579,3,2,1,23,34,4,8,-3
1532381718584,1,-2,1,-23,-33,-17,0,4
1532381718589,-3,-3,-1,0,-1,-1,-3,-3
1532381718594,-1,-4,3,30,55,20,5,0
1532381718599,-3,-2,-5,-21,-34,-22,-18,-7
1532381718604,3,-1,2,3,-52,-6,6,-1
1532381718609,-2,-4,-5,-19,-7,6,-12,-2
1532381718614,-1,1,-3,-8,0,-5,2,-1
1532381718619,0,-3,1,7,-16,8,5,1
1532381718624,-1,0,-2,3,27,8,-5,-3
1532381718629,-1,0,6,5,44,-1,-5,0
1532381718634,-2,0,6,23,2,-2,-1,-4
1532381718639,-3,-5,-9,-11,0,4,-4,-1
1532381718644,0,-2,-4,-10,13,-10,0,2
1532381718649,-1,-2,-2,0,-4,-3,10,2
1532381718654,1,0,4,12,46,6,4,-2
1532381718659,-1,2,2,2,14,8,5,1
1532381718664,-3,-1,0,3,32,-18,-3,-2
1532381718669,0,0,-1,-1,-18,10,6,-3
1532381718674,-4,-2,-1,0,-12,-2,7,2
1532381718679,0,-1,-6,-14,-23,2,12,0
1532381718684,-1,1,1,5,17,19,3,1
1532381718689,1,0,3,4,-6,-6,2,-1
1532381718694,2,-1,-2,5,3,0,-15,-1
1532381718699,0,-2,2,-2,-23,-1,-23,3
1532381718704,-2,-3,-4,1,6,-4,-38,-3
1532381718709,0,1,1,1,11,-11,-19,2
1532381718714,-6,0,1,-13,-27,-1,-5,-2
1532381718719,-1,1,2,19,17,-2,0,-1
1532381718724,-2,-1,-3,-14,-39,-3,11,-2
1532381718729,-3,-1,0,-4,-19,-7,7,0
1532381718734,0,-1,-2,2,-6,-4,6,-3
1532381718739,0,1,1,0,9,21,26,0
1532381718744,0,-1,-1,1,6,-12,27,-1
1532381718749,0,-5,-4,-3,4,0,13,-2
1532381718754,0,-2,3,10,27,2,14,-2
1532381718759,0,-2,3,54,-19,2,-13,-3
1532381718764,-1,0,-5,-83,3,-7,-7,-2
1532381718769,-2,-1,-6,2,-5,-7,-5,1
1532381718774,-1,-1,-4,-1,-4,0,-1,0
1532381718779,-1,-1,-3,-2,6,-9,-3,1
1532381718784,1,0,7,30,-2,2,-3,1
1532381718789,-1,-1,5,4,-1,-6,0,-3
1532381718794,2,-1,-2,-12,1,-4,-1,0
1532381718799,-2,0,-2,-27,-7,-9,-2,0
1532381718804,-1,-3,-4,13,10,12,-1,-2
1532381718809,0,-2,-3,-15,-6,6,-11,2
1532381718814,0,-1,1,19,17,1,9,9
1532381718819,-1,0,1,-13,1,3,2,-10
1532381718824,-1,1,1,7,-10,-28,-1,0
1532381718829,-1,-1,-4,8,-7,0,-1,-2
1532381718834,5,2,1,-5,13,23,-4,5
1532381718839,-3,1,-3,-9,1,-12,5,2
1532381718844,1,1,1,10,8,9,2,0
1532381718849,1,1,-2,-3,-3,1,3,-1
1532381718854,-3,-2,1,-3,-9,-3,-10,-11
1532381718859,2,-1,0,-12,-1,-1,-3,5
1532381718864,-2,-1,2,14,8,11,1,-1
1532381718869,-1,-2,0,1,4,1,-3,0
1532381718874,-2,-2,-2,-5,-8,-8,2,-1
1532381718879,0,-3,-1,1,9,3,3,-3
1532381718884,-3,-3,-2,2,-14,-4,7,1
1532381718889,1,-1,0,3,-3,-4,-1,-1
1532381718894,-2,0,-1,-10,-7,2,1,-1
1532381718899,-2,-1,3,-1,0,-1,-2,-4
1532381718904,0,-3,-4,1,4,4,-4,1
1532381718909,-3,-2,-2,-7,-4,1,1,-1
1532381718914,0,2,1,7,1,-4,-3,0
1532381718919,1,0,-2,-2,2,-4,-3,0
1532381718924,0,0,2,6,23,8,0,2
1532381718929,-2,2,-3,-7,-23,6,3,-2
1532381718934,-2,-2,-1,4,1,-15,-3,1
1532381718939,-1,-1,-2,-9,-6,4,2,4
1532381718944,-2,-1,0,2,4,6,4,-6
1532381718949,-1,1,1,11,5,-9,4,-6
1532381718954,-2,-1,-4,-9,-11,-5,-7,-2
1532381718959,-2,-2,-1,-5,-7,-2,-4,2
1532381718964,-1,-2,-3,0,1,-1,0,2
1532381718969,-1,0,-1,7,6,5,15,2
1532381718974,-1,0,1,1,-5,-3,4,-3
1532381718979,0,-1,1,5,7,3,3,0
1532381718984,-1,-1,-3,-5,-8,-7,-11,0
1532381718989,1,1,-2,-8,-5,0,-14,3
1532381718994,0,-4,0,0,-5,-2,0,-2
1532381718999,1,-1,-1,-7,1,-1,-7,-1
1532381719004,-1,0,-2,2,-3,0,2,-5
1532381719009,0,0,0,-5,0,1,-4,-4
1532381719014,0,0,-3,-2,1,3,-2,-1
1532381719019,-1,0,0,4,4,-4,-1,0
1532381719024,0,1,-1,0,1,-2,-3,0
1532381719029,-3,-2,0,-4,-2,-6,1,-1
1532381719034,1,-1,0,3,-3,1,0,0
1532381719039,0,-1,0,-3,-1,3,3,0
1532381719044,0,-2,-2,0,-3,4,-1,-1
1532381719049,-2,-1,-1,-2,7,-4,3,-1
1532381719054,-2,1,-1,-2,-3,-1,3,-2
1532381719059,-2,1,-1,0,-1,-6,-2,-3
1532381719064,-2,-2,-2,-1,-1,-3,-2,-2
1532381719069,0,-2,0,1,2,5,-3,-2
1532381719074,-2,0,1,-1,3,2,-3,0
1532381719079,-1,0,-5,-6,-2,-3,-1,-2
1532381719084,-1,0,0,2,5,-2,-4,2
1532381719089,-1,-1,-3,-3,0,2,-12,-2
1532381719094,-3,-2,-1,-5,4,-22,3,-5
1532381719099,-1,-3,-1,-3,1,12,9,4
1532381719104,1,0,0,-1,-5,-13,-7,-5
1532381719109,0,-3,-1,-1,-3,16,-12,-9
1532381719114,-1,0,-2,5,-3,-10,3,8
1532381719119,2,2,-3,-3,-9,-2,-7,-11
1532381719124,0,-2,-1,-1,0,12,15,3
1532381719129,0,0,6,4,0,-18,-4,5
1532381719134,1,-5,-8,-4,-8,10,8,-9
1532381719139,0,6,9,8,0,-13,-1,20
1532381719144,-1,1,-2,-7,-9,7,-4,-23
1532381719149,4,-4,-3,-2,-2,-5,20,22
1532381719154,2,5,5,-2,-3,-4,9,0
1532381719159,-1,-1,-6,1,-1,2,12,-1
1532381719164,-3,-2,2,2,0,-5,-7,8
1532381719169,-5,0,2,3,0,-10,-4,6
1532381719174,0,-3,-1,1,5,12,-15,-14
1532381719179,-2,-5,-4,-8,-9,0,9,5
1532381719184,4,0,0,3,0,-6,-8,-1
1532381719189,0,-4,-6,-6,-3,-1,4,5
1532381719194,15,0,-2,-5,0,15,-14,14
1532381719199,-36,-2,3,4,-1,-9,-18,-29
1532381719204,11,1,-1,-1,-1,1,-11,5
1532381719209,-11,-3,-3,-2,-4,-2,-30,-15
1532381719214,11,2,0,4,-1,-9,-35,10
1532381719219,8,-1,0,3,-1,2,-18,7
1532381719224,26,-1,4,-8,-5,-4,1,-3
1532381719229,-60,1,-9,-2,2,14,19,-31
1532381719234,7,1,-2,0,-2,-2,21,6
1532381719239,8,0,0,2,6,2,17,-5
1532381719244,10,3,6,3,2,3,29,19
1532381719249,4,-6,-1,-1,2,1,22,-13
1532381719254,-10,3,-3,-3,-4,-2,8,-18
1532381719259,1,1,1,-3,-1,1,0,-3
1532381719264,-5,-2,-1,1,2,-3,-1,-7
1532381719269,31,1,3,-4,2,4,-1,16
1532381719274,-38,-6,-2,2,0,-5,6,-9
1532381719279,22,-2,-1,0,1,2,3,0
1532381719284,-13,-2,-2,0,-2,-4,3,11
1532381719289,-2,-2,-1,-2,-3,-3,-5,-51
1532381719294,19,-3,-2,-3,-4,0,3,12
1532381719299,-23,-1,1,-4,-1,4,6,-3
1532381719304,-6,-2,-2,3,3,-3,41,-10
1532381719309,6,-2,1,-1,-3,-4,53,-5
1532381719314,-5,-2,2,2,6,6,44,18
1532381719319,5,-3,-3,-4,1,-6,-8,-4
1532381719324,-10,0,-3,-1,-2,19,6,0
1532381719329,8,8,4,10,12,-22,-13,13
1532381719334,1,-6,3,10,-2,10,-25,1
1532381719339,-3,-9,-10,-29,-40,-15,-40,2
1532381719344,-10,-1,-2,7,34,2,-39,4
1532381719349,4,2,-2,-14,-20,-16,-48,16
1532381719354,-2,4,-1,10,36,38,-3,-5
1532381719359,1,2,-1,6,-15,-11,20,-4
1532381719364,-7,-2,-4,-6,-29,-61,-12,-7
1532381719369,2,3,2,1,-4,46,2,5
1532381719374,-1,3,0,-1,10,3,-13,-2
1532381719379,2,-3,-2,0,13,16,-6,-1
1532381719384,-3,-1,-1,-1,-6,21,-9,0
1532381719389,3,-1,1,4,2,-13,-8,5
1532381719394,1,-2,0,0,-20,-13,-6,-4
1532381719399,3,1,1,8,25,9,5,0
1532381719404,-4,-1,-3,-14,-20,-7,9,1
1532381719409,1,-1,0,-3,5,0,-32,7
1532381719414,-2,-1,-1,7,11,1,-18,-7
1532381719419,3,3,2,18,-38,-15,9,3
1532381719424,-2,-3,-7,-45,5,-23,-22,-4
1532381719429,-4,-4,-4,1,4,19,29,0
1532381719434,-2,-2,-3,-10,0,4,33,-1
1532381719439,0,-1,2,8,14,7,-3,3
1532381719444,0,0,2,17,0,22,12,-4
1532381719449,2,-2,-2,-4,-5,1,8,0
1532381719454,-2,-1,-1,-3,0,-20,-7,-4
1532381719459,1,2,1,2,4,-1,9,-2
1532381719464,0,-2,-1,3,-4,3,-1,-3
1532381719469,-1,-5,-3,-4,10,-9,4,3
1532381719474,2,0,1,-2,-14,-23,9,-6
1532381719479,2,-2,-2,0,-9,-4,3,6
1532381719484,-1,0,-2,-11,-2,3,-4,6
1532381719489,-7,-1,-2,2,-2,-1,-3,-8
1532381719494,-2,-2,-1,-1,-4,12,-15,-29
1532381719499,-1,1,-2,-5,-8,13,-8,16
1532381719504,1,-1,2,8,-7,5,11,0
1532381719509,5,0,0,3,9,-14,2,15
1532381719514,-4,-3,-2,-5,-17,3,-6,-4
1532381719519,-4,-2,-3,-4,21,-6,-3,-8
1532381719524,1,2,1,13,4,2,4,-1
1532381719529,1,-2,-3,-7,-7,2,9,-1
1532381719534,-2,1,2,-2,-8,-25,2,5
1532381719539,-1,-3,-1,-1,7,-3,3,-5
1532381719544,0,-2,-3,-2,-4,2,11,0
1532381719549,3,2,2,4,9,7,23,-3
1532381719554,1,-1,-2,-2,0,-3,5,4
1532381719559,-6,-5,-8,-5,-5,-6,-4,-5
1532381719564,0,3,9,7,10,5,-15,-3
1532381719569,1,3,3,0,1,-2,-25,0
1532381719574,1,-1,1,8,2,-3,-13,2
1532381719579,-1,0,-1,-20,-6,-6,0,3
1532381719584,-2,-2,-4,4,8,0,4,-3
1532381719589,0,-6,-2,0,-1,2,-20,0
1532381719594,-4,-2,-4,-3,3,-2,-30,1
1532381719599,0,-1,-3,-1,0,-3,-22,-3
1532381719604,-3,4,-2,2,-9,2,-3,1
1532381719609,-1,3,1,1,-4,-2,7,1
1532381719614,1,0,0,-1,-5,-1,22,2
1532381719619,1,2,3,0,8,0,20,-7
1532381719624,5,0,-2,4,13,-1,19,3
1532381719629,3,2,7,18,3,0,20,-1
1532381719634,-4,-3,-13,-52,-40,-9,15,0
1532381719639,0,-1,0,2,-1,3,14,-1
1532381719644,0,0,-1,-6,1,-1,4,-4
1532381719649,-2,-2,2,7,18,-2,5,-5
1532381719654,6,3,4,17,22,2,8,7
1532381719659,-3,-3,-5,-11,3,-6,-7,1
1532381719664,-3,-3,-1,-2,1,-7,-4,-3
1532381719669,0,1,-3,-6,-9,-5,-2,-3
1532381719674,2,0,1,9,7,2,6,18
1532381719679,-8,-3,0,-1,-5,0,-8,-35
1532381719684,4,3,2,8,6,5,16,15
1532381719689,-2,-2,-4,-6,-8,5,-8,-3
1532381719694,0,-2,-2,2,-6,7,3,-2
1532381719699,1,1,-1,3,1,0,4,17
1532381719704,-6,-2,-4,-5,-3,2,-3,-7
1532381719709,-1,0,-1,-6,2,1,-2,0
1532381719714,1,-1,-1,2,7,0,3,1
1532381719719,1,0,0,-2,-7,-1,4,0
1532381719724,-2,0,-2,3,-1,-2,-11,-12
1532381719729,1,3,0,-4,1,-2,14,7
1532381719734,-2,-3,-4,-4,1,-8,-4,-8
1532381719739,1,-1,0,-1,0,-2,10,2
1532381719744,0,0,-1,-3,-2,-7,-3,0
1532381719749,-2,-2,-3,-6,-8,-6,-6,2
1532381719754,-1,0,2,3,2,-3,-2,-3
1532381719759,0,-1,0,1,4,-2,2,4
1532381719764,-3,-2,0,1,4,4,-8,-3
1532381719769,2,-3,-1,1,0,0,0,-1
1532381719774,-1,1,-1,-4,6,-3,6,-5
1532381719779,0,-2,-3,-1,1,3,9,7
1532381719784,-2,-2,-1,-2,-1,-1,6,-1
1532381719789,-4,-2,-1,-2,1,-2,-8,-3
1532381719794,-2,-4,-1,1,-6,-1,-7,-18
1532381719799,4,1,3,4,-9,2,1,7
1532381719804,1,-1,-1,-1,-9,1,1,-1
1532381719809,1,0,0,-1,-5,1,-2,-1
1532381719814,-4,0,-2,0,6,-1,-2,1
1532381719819,-2,-3,0,2,11,0,-4,-5
1532381719824,-1,-3,-2,-5,-7,-14,-7,-1
1532381719829,0,-3,-3,-3,-1,-7,1,3
1532381719834,1,2,2,7,5,18,-9,0
1532381719839,-1,-2,-2,2,-3,7,1,-3
1532381719844,2,-1,0,-1,-3,-1,-3,2
1532381719849,-5,0,2,-2,3,-2,-6,-5
1532381719854,1,-1,-1,-3,-3,-4,21,3
1532381719859,-2,-2,-1,-1,2,-1,-7,0
1532381719864,-2,1,2,2,-2,-7,-8,-4
1532381719869,0,-2,0,0,-7,10,9,-3
1532381719874,0,-1,-1,-1,2,-3,-11,-1
1532381719879,-2,1,-1,-2,0,2,-1,-4
1532381719884,-5,-1,-2,-2,4,0,3,-2
1532381719889,2,0,1,0,-1,0,-4,1
1532381719894,-1,0,1,2,-17,-2,6,-1
1532381719899,3,1,0,1,-1,1,4,1
1532381719904,-1,-1,-2,-7,5,6,-3,2
1532381719909,-2,1,-2,1,12,-4,-1,-1
1532381719914,1,-3,-1,3,4,-3,-1,-7
1532381719919,1,0,-1,-11,-7,-1,-2,4
1532381719924,2,-1,1,2,6,6,19,1
1532381719929,-2,-4,-4,-5,-4,-1,-7,-4
1532381719934,-3,-2,1,-2,-3,-5,-1,0
1532381719939,-3,-2,0,1,1,-7,-9,-4
1532381719944,-3,0,-2,2,-1,5,-2,-4
1532381719949,2,-1,0,0,-4,10,3,5
1532381719954,0,0,0,0,3,-8,-28,-2
1532381719959,-1,-3,-3,0,-7,0,4,-3
1532381719964,-1,-2,-3,-6,-11,0,-3,1
1532381719969,-1,0,-3,2,1,-4,-3,-1
1532381719974,0,1,-2,-3,-14,-3,3,0
1532381719979,1,1,1,3,-2,2,0,1
1532381719984,1,1,3,11,-21,-6,2,-5
1532381719989,-1,-6,-9,-10,-30,-5,-8,0
1532381719994,-2,-1,2,-2,7,4,2,-2
1532381719999,-2,1,-5,-6,7,-22,-2,-1
1532381720004,-2,1,-2,0,49,3,1,0
1532381720009,2,0,5,19,8,22,26,-1
1532381720014,-3,-1,-7,-22,-22,-35,-9,-4
1532381720019,-2,-1,0,1,-34,-31,-6,-4
1532381720024,1,-2,0,-9,7,10,5,1
1532381720029,2,5,4,19,63,-16,3,2
1532381720034,-2,-6,3,16,2,3,-8,-3
1532381720039,-7,-7,-13,-15,-9,22,22,0
1532381720044,3,-1,1,-2,-19,-5,12,-3
1532381720049,0,4,-4,-12,-41,22,1,3
1532381720054,-2,-3,7,18,38,14,10,5
1532381720059,1,1,-2,5,38,-11,-8,-4
1532381720064,-2,-1,1,-7,-33,23,-8,-1
1532381720069,-6,-2,-2,3,37,-21,-17,-4
1532381720074,0,-1,-3,-13,-13,0,-2,3
1532381720079,2,3,3,2,6,0,-1,3
1532381720084,-2,0,1,14,33,-6,-4,1
1532381720089,1,-4,-6,-26,-21,-16,-1,-2
1532381720094,0,3,1,-1,-3,-6,1,-1
1532381720099,7,2,7,14,-33,-14,16,0
1532381720104,-1,-1,-6,-16,-66,-21,-16,-3
1532381720109,0,2,-3,-11,-11,-23,-3,-1
1532381720114,-1,-2,1,10,5,-6,8,-1
1532381720119,-3,-4,-2,-15,28,50,-9,-1
1532381720124,3,1,1,8,-87,-2,2,-3
1532381720129,5,-2,3,8,-27,8,1,-3
1532381720134,-5,0,-5,-13,102,11,0,3
1532381720139,-5,1,1,0,102,-1,-11,-2
1532381720144,-7,-2,-1,-3,116,-4,0,3
1532381720149,-2,-2,-5,-4,-76,7,-3,-1
1532381720154,5,0,-1,6,-110,5,6,-5
1532381720159,6,0,2,-4,-128,-12,2,-4
1532381720164,5,-3,4,-5,-113,1,-1,-3
1532381720169,-2,-1,4,11,45,3,1,-1
1532381720174,-5,-3,-3,-4,86,-6,-2,1
1532381720179,-3,1,0,-5,-58,1,4,1
1532381720184,0,-1,-2,3,-68,3,-1,-1
1532381720189,-3,0,2,-1,78,-1,-6,0
1532381720194,-6,0,-4,-2,74,-4,-2,2
1532381720199,-4,-2,-2,-2,101,6,-2,2
1532381720204,-4,-2,-2,0,115,-16,7,-1
1532381720209,-3,-4,0,-1,21,5,4,-1
1532381720214,0,-1,-3,-5,79,-3,4,-1
1532381720219,4,-1,1,8,-30,7,0,-4
1532381720224,1,1,-2,-1,-46,-15,3,-3
1532381720229,-3,3,-1,-3,98,-2,-1,5
1532381720234,2,3,-3,2,-33,40,6,0
1532381720239,-4,1,0,1,71,-13,-6,0
1532381720244,-6,-2,-3,-3,106,-4,-1,7
1532381720249,-4,-1,-3,-1,127,-3,-20,-6
1532381720254,-11,-2,-2,2,67,3,12,-15
1532381720259,-3,-1,-4,-2,127,-8,2,2
1532381720264,-4,-3,-1,-1,89,-7,2,3
1532381720269,-1,-3,-1,1,-53,4,-5,-6
1532381720274,4,-8,-7,-4,-114,-29,-7,-1
1532381720279,7,2,-1,0,-112,49,2,-1
1532381720284,1,-1,0,-4,-69,-11,-3,-6
1532381720289,4,-2,2,1,-128,-27,14,10
1532381720294,3,0,-4,-6,-128,43,-2,-10
1532381720299,-2,-1,1,2,-54,-1,2,-2
1532381720304,4,1,-2,6,-43,10,5,-1
1532381720309,2,1,0,-1,-81,38,8,-4
1532381720314,-1,-1,-1,-4,-64,-5,6,6
1532381720319,0,-1,0,1,-25,-33,20,11
1532381720324,-4,2,0,0,-8,14,-3,-18
1532381720329,12,2,3,3,-8,19,41,8
1532381720334,-13,5,7,4,-1,-26,1,3
1532381720339,-5,-2,-5,-6,-36,-20,-13,-2
1532381720344,2,-1,2,-2,-4,21,-9,2
1532381720349,-6,-4,1,2,5,36,20,-15
1532381720354,3,-4,-2,-8,-36,-47,-28,-8
1532381720359,1,2,12,10,13,34,-21,1
1532381720364,-5,0,-17,-14,-10,-56,-24,6
1532381720369,8,-1,-1,0,-12,-12,-6,-9
1532381720374,3,0,12,0,-4,-29,3,-2
1532381720379,5,-3,-23,-5,-2,6,4,20
1532381720384,-30,-12,4,6,22,17,4,-9
1532381720389,26,-1,-8,0,3,-34,-1,-29
1532381720394,11,8,22,18,12,65,-8,33
1532381720399,1,-8,-6,-9,4,-76,11,-8
1532381720404,2,4,5,3,-5,12,77,-50
1532381720409,-13,-5,-1,-3,5,-20,34,17
1532381720414,15,-3,-12,2,0,12,-17,18
1532381720419,-1,12,24,14,20,38,-5,-47
1532381720424,12,-3,-21,-15,-12,8,-38,116
1532381720429,-32,-5,25,3,5,8,-31,-76
1532381720434,24,-12,-3,2,-4,-20,8,63
1532381720439,-30,-29,-41,4,10,13,-20,21
1532381720444,21,4,8,8,8,19,-26,-85
1532381720449,13,4,-6,19,9,-35,-3,18
1532381720454,1,5,3,-29,-16,-4,4,-24
1532381720459,3,11,7,-19,-2,8,10,12
1532381720464,3,2,10,14,16,16,12,32
1532381720469,-9,-16,-5,0,-11,1,-10,6
1532381720474,-7,-12,-17,10,-5,-17,24,-11
1532381720479,2,-13,-8,-6,-6,-10,13,1
1532381720484,8,23,-4,-15,-18,-23,-4,-11
1532381720489,-10,1,2,-3,-2,26,3,7
1532381720494,-10,-6,3,0,1,-62,-18,-19
1532381720499,15,4,-2,-2,-13,86,15,-27
1532381720504,2,-4,3,-3,-6,-23,-11,-35
1532381720509,11,17,-3,-12,-4,10,2,43
1532381720514,-30,6,1,6,0,-21,5,-45
1532381720519,7,5,10,12,11,-5,-10,32
1532381720524,-5,-7,6,9,4,-12,0,-7
1532381720529,7,10,11,-13,-22,1,-2,23
1532381720534,15,56,16,-15,3,4,7,-30
1532381720539,10,-38,-25,1,-5,-34,-1,24
1532381720544,31,13,7,5,-5,20,17,34
1532381720549,-19,-52,-36,-7,-16,-30,-11,-18
1532381720554,-23,-5,3,3,17,20,4,-16
1532381720559,-13,11,23,13,-9,-9,3,-35
1532381720564,-15,-4,-6,-19,9,-10,-8,-3
1532381720569,-16,14,1,-7,28,-17,6,8
1532381720574,-19,-20,-8,-1,15,13,4,2
1532381720579,-17,4,1,2,3,-25,6,5
1532381720584,2,-5,-5,19,43,19,-7,9
1532381720589,3,9,-7,-57,-74,-39,-27,-12
1532381720594,9,-7,-10,7,18,40,13,-2
1532381720599,23,16,6,-3,-25,-43,-1,20
1532381720604,2,-6,1,5,8,-3,-4,1
1532381720609,-3,-6,2,19,15,20,-23,-1
1532381720614,0,-3,-10,4,-4,13,7,28
1532381720619,-3,-11,5,0,-4,-5,-11,-27
1532381720624,-4,-4,-5,-32,-45,-11,11,7
1532381720629,9,7,1,10,-12,21,5,2
1532381720634,4,-4,-3,-9,-26,9,10,-1
1532381720639,-1,31,8,12,-9,7,17,-23
1532381720644,6,52,6,5,16,11,-11,-11
1532381720649,-23,-65,3,4,8,-15,23,25
1532381720654,12,-12,-27,-1,13,-8,-24,12
1532381720659,-2,-2,2,-6,39,27,-7,7
1532381720664,-4,1,-6,1,11,3,3,16
1532381720669,11,28,15,0,20,-2,-2,-17
1532381720674,-5,13,23,9,14,-18,-6,-10
1532381720679,31,102,85,-7,17,36,29,-13
1532381720684,-47,-105,-97,-10,-27,-42,-22,0
1532381720689,28,27,-24,7,-5,18,15,32
1532381720694,-11,-8,5,-2,26,-10,18,-19
1532381720699,24,13,-6,-5,-7,10,19,34
1532381720704,-2,20,52,8,35,18,14,2
1532381720709,-8,-3,-7,0,0,-10,-23,-13
1532381720714,13,-3,-7,-5,-29,-28,-15,-3
1532381720719,-16,-22,3,25,45,8,-13,8
1532381720724,6,0,8,14,-14,-7,-12,8
1532381720729,-17,-20,-32,-45,-6,-26,-5,-49
1532381720734,4,20,13,-5,-14,8,-3,-1
1532381720739,-21,-30,-17,-12,-32,-29,-20,0
1532381720744,-1,-7,-1,37,-53,1,12,6
1532381720749,21,24,27,13,-60,42,10,-11
1532381720754,2,85,15,-12,-94,-9,5,-3
1532381720759,-9,-116,-41,-1,-21,17,-8,12
1532381720764,-6,18,11,-8,61,20,-5,0
1532381720769,-5,-8,-4,10,77,-15,6,9
1532381720774,-15,-11,-13,-3,39,9,-12,-79
1532381720779,14,78,8,0,31,-23,18,56
1532381720784,11,-16,-1,-7,22,-17,1,0
1532381720789,-2,-13,-2,3,12,24,-7,22
1532381720794,-6,-32,-8,5,-14,14,-3,13
1532381720799,-7,-15,8,-1,19,-3,-13,-12
1532381720804,14,47,-1,-8,2,5,2,6
1532381720809,-7,-30,-6,9,34,-40,-17,-11
1532381720814,7,0,6,3,31,14,14,18
1532381720819,-5,-19,-6,-11,5,16,-8,7
1532381720824,0,9,-1,1,-14,5,10,-11
1532381720829,21,25,7,4,-33,-5,4,0
1532381720834,9,-16,4,1,-2,-7,5,18
1532381720839,-1,11,-6,1,-3,-3,-5,-3
1532381720844,3,-9,-9,-12,-14,-24,-17,-3
1532381720849,-8,0,7,-3,0,46,12,-9
1532381720854,-10,-7,-3,-1,-11,-35,6,13
1532381720859,-15,-10,-12,0,-31,-10,0,-4
1532381720864,6,-1,12,26,-47,-3,3,-8
1532381720869,20,1,7,-19,-5,14,6,9
1532381720874,-4,-6,-11,1,46,7,-20,1
1532381720879,0,2,-12,-1,14,-22,-8,-10
1532381720884,-5,-6,3,-4,31,6,13,-1
1532381720889,3,14,6,10,-3,-11,-1,3
1532381720894,6,-6,0,-6,1,2,6,4
1532381720899,-11,-8,1,-8,26,-9,0,-8
1532381720904,-11,-10,-3,1,26,-2,-7,-7
1532381720909,-2,2,3,6,-11,-4,-8,1
1532381720914,-7,-2,0,-9,4,-2,-18,4
1532381720919,-18,-6,-4,3,4,7,-14,1
1532381720924,-10,-5,-5,-14,-24,3,2,-7
1532381720929,-6,9,2,5,-8,4,15,-1
1532381720934,3,-4,4,0,-35,-9,-11,-4
1532381720939,3,2,-4,12,47,10,4,9
1532381720944,-3,-3,-3,4,55,-14,12,-1
1532381720949,2,0,-14,-24,11,-13,-14,2
1532381720954,-11,-3,-6,-1,58,2,-14,1
1532381720959,-5,-4,-3,-2,3,10,6,-1
1532381720964,0,-1,4,-7,-9,9,-6,-6
1532381720969,-11,-5,2,26,-26,-9,1,-5
1532381720974,4,-4,2,-1,-25,-2,7,-5
1532381720979,-2,-13,-19,-20,-47,-14,26,-6
1532381720984,-8,-3,3,-8,-34,-3,0,3
1532381720989,-17,-11,1,5,-7,-2,2,8
1532381720994,-8,12,1,3,-32,14,14,-18
1532381720999,7,18,14,3,-40,-4,-2,9
1532381721004,2,-1,3,2,-90,-2,-1,-8
1532381721009,-2,0,-3,1,-50,3,4,-3
1532381721014,-5,-5,7,6,-20,-1,3,4
1532381721019,2,-7,5,5,34,2,-10,-19
1532381721024,12,20,-4,-2,106,4,7,0
1532381721029,-3,6,-5,9,93,-10,-2,-1
1532381721034,-6,-3,-7,-22,17,0,8,6
1532381721039,-9,-3,1,-3,21,4,0,-6
1532381721044,-8,-13,-11,-5,-17,3,-9,1
1532381721049,-4,4,-3,-4,-32,-3,1,-4
1532381721054,2,1,-1,7,-34,4,2,3
1532381721059,6,-5,15,3,-64,2,-10,0
1532381721064,-3,-3,3,4,-18,-3,-9,-5
1532381721069,13,2,-2,2,2,-4,-6,13
1532381721074,0,-4,-3,1,-35,5,4,-6
1532381721079,-2,-2,-11,-9,2,14,-10,-22
1532381721084,14,-13,2,1,-53,-9,3,-3
1532381721089,1,-8,0,-1,-23,4,-1,-14
1532381721094,4,0,3,21,-1,11,17,12
1532381721099,-1,0,-4,-12,-36,-29,0,8
1532381721104,-9,3,-3,-9,20,-4,4,-2
1532381721109,-5,0,0,-7,-26,-1,4,-3
1532381721114,11,9,3,20,51,15,2,18
1532381721119,-4,-7,-7,-12,16,-12,-3,-10
1532381721124,-11,-4,-6,-11,52,10,8,15
1532381721129,-1,-1,0,0,47,-8,1,0
1532381721134,5,2,-1,-5,5,33,5,2
1532381721139,4,0,7,7,-102,-25,3,-5
1532381721144,-2,-2,-3,-7,-61,-42,-2,-4
1532381721149,4,11,1,0,79,12,3,16
1532381721154,-9,10,7,7,25,-20,0,-18
1532381721159,4,-7,-1,-9,56,35,-1,-15
1532381721164,22,25,4,1,8,15,-5,13
1532381721169,-25,-39,-1,-4,-17,-18,-7,-14
1532381721174,2,-5,-5,-6,2,-6,0,10
1532381721179,-2,3,1,13,81,8,-2,9
1532381721184,-9,0,2,1,34,4,4,-38
1532381721189,12,13,-2,-3,-8,-33,2,35
1532381721194,1,-4,-4,-11,-16,24,-4,-5
1532381721199,-8,-5,-8,2,8,-31,0,16
1532381721204,-7,2,-2,7,32,33,11,12
1532381721209,6,-34,7,2,19,7,-20,-37
1532381721214,7,1,-8,-5,-47,19,44,19
1532381721219,4,2,2,1,-107,-39,-25,-7
1532381721224,7,7,-5,-3,-30,-7,4,9
1532381721229,-11,0,-3,-2,42,3,-15,-3
1532381721234,7,-11,-7,-7,38,-24,-13,-7
1532381721239,-2,-30,-5,2,11,62,14,6
1532381721244,12,18,3,4,21,-33,-5,14
1532381721249,-4,-6,1,1,43,38,14,14
1532381721254,-3,4,-1,-6,20,-41,-38,-32
1532381721259,-23,30,-5,0,84,-1,1,-19
1532381721264,6,56,1,-2,28,-25,2,4
1532381721269,-8,-40,-2,0,-4,5,14,14
1532381721274,-5,-22,1,2,-37,-32,-3,-3
1532381721279,11,50,3,-4,7,7,0,0
1532381721284,-16,-67,-9,0,66,5,10,-7
1532381721289,2,36,-3,2,84,1,13,1
1532381721294,-3,-22,4,-10,127,21,-6,12
1532381721299,12,29,-12,2,62,-79,-3,4
1532381721304,-6,-52,4,-4,11,51,-20,-25
1532381721309,6,19,-4,-1,-41,25,-9,-1
1532381721314,-12,12,-3,4,1,29,9,-3
1532381721319,13,-32,7,2,-28,22,12,17
1532381721324,-6,-13,-2,-4,-82,-38,-13,3
1532381721329,-2,-5,7,-3,-75,-5,0,-30
1532381721334,-4,54,-6,-9,-54,4,-7,-1
1532381721339,-4,-55,4,-1,10,58,-3,-7
1532381721344,-4,-20,0,0,-36,-42,0,22
1532381721349,10,22,3,3,11,16,5,6
1532381721354,-28,-3,-2,0,-2,-27,-9,-23
1532381721359,-3,13,4,14,-28,-14,-9,9
1532381721364,3,23,-4,-3,-28,18,-11,-3
1532381721369,-9,-38,7,2,-44,-37,-14,-8
1532381721374,1,28,4,11,1,33,-1,-4
1532381721379,0,-17,-3,-13,-33,-5,14,3
1532381721384,-2,-3,4,15,16,72,-7,7
1532381721389,-8,51,1,-9,-7,-9,-1,9
1532381721394,-15,-28,17,6,10,31,10,-67
1532381721399,2,56,-29,-8,-1,-11,1,-14
1532381721404,5,-49,9,-2,-20,-57,1,16
1532381721409,4,44,-14,-3,-22,-41,-10,37
1532381721414,-4,19,1,7,28,45,5,-13
1532381721419,0,4,4,-7,-36,-28,-9,1
1532381721424,14,20,0,2,47,43,13,-7
1532381721429,-2,-9,-1,-6,-51,-56,-5,-6
1532381721434,-12,-16,-7,-3,-20,-16,-10,4
1532381721439,2,-4,5,6,9,-5,11,0
1532381721444,-6,-15,-13,-22,-7,23,-9,-11
1532381721449,1,-17,11,21,26,7,4,-3
1532381721454,3,29,-15,-31,0,22,-10,5
1532381721459,5,-14,-2,5,29,-32,1,17
1532381721464,-1,-2,0,4,-11,-16,-17,3
1532381721469,-8,-18,-5,-6,2,-5,-1,-22
1532381721474,8,22,6,22,-1,-1,1,6
1532381721479,-3,-21,2,-15,-29,4,14,-5
1532381721484,4,21,-3,-2,-1,-5,-1,-14
1532381721489,7,9,-3,-12,-22,-2,-1,9
1532381721494,-23,-64,-1,7,8,42,-7,-13
1532381721499,-7,-9,-1,1,-23,-41,-21,-19
1532381721504,11,14,3,2,-43,-14,0,8
1532381721509,-9,-10,-9,0,31,9,-4,-29
1532381721514,10,28,1,-9,-14,13,8,27
1532381721519,-1,-10,0,0,-5,6,-15,-13
1532381721524,-5,-14,2,13,5,8,-3,2
1532381721529,-1,-11,1,3,23,-19,-5,-16
1532381721534,-1,2,1,-9,13,-32,5,14
1532381721539,-3,-5,-4,-3,19,28,16,2
1532381721544,1,-1,4,-7,14,-17,-7,1
1532381721549,-2,-10,-4,-5,3,-6,2,0
1532381721554,7,23,3,8,5,-5,1,-5
1532381721559,4,8,9,15,10,1,-8,7
1532381721564,-1,-3,-2,3,0,12,-14,-4
1532381721569,-2,-14,-4,-10,-4,1,3,0
1532381721574,5,27,-4,3,-5,-10,0,-1
1532381721579,-10,-1,-3,-7,-9,-19,-7,7
1532381721584,-5,-13,1,6,0,1,-3,-14
1532381721589,13,53,2,-18,2,8,10,-4
1532381721594,-9,-100,-7,1,5,-6,-4,9
1532381721599,2,27,-1,2,23,0,-3,6
1532381721604,-15,6,4,-4,19,-2,-5,-20
1532381721609,15,-11,-3,6,17,16,10,41
1532381721614,7,28,3,2,28,4,2,13
1532381721619,-1,-11,-2,-8,-11,-34,2,-2
1532381721624,2,-24,-1,0,-10,-3,0,-6
1532381721629,-13,-1,5,-3,-7,-3,-6,-7
1532381721634,-3,12,-3,0,6,-11,0,-12
1532381721639,-3,-18,2,10,71,86,6,9
1532381721644,5,15,-6,-11,-80,-89,-2,4
1532381721649,-5,-19,1,3,3,21,-3,-7
1532381721654,2,13,-2,-2,-24,-13,-1,4
1532381721659,-2,1,-2,-2,-14,-13,2,-7
1532381721664,-1,18,3,2,29,37,10,3
1532381721669,-5,-22,-7,-2,-9,3,-15,5
1532381721674,-10,4,-9,-8,-6,-17,5,-7
1532381721679,0,-12,10,4,21,0,26,1
1532381721684,16,-6,-6,13,-21,2,9,10
1532381721689,-5,-10,-6,-34,-2,4,-14,-22
1532381721694,6,20,2,2,10,-23,1,7
1532381721699,2,4,7,-1,-28,-1,-4,9
1532381721704,-6,10,14,9,41,41,16,-5
1532381721709,2,-4,-8,21,-9,-9,-1,1
1532381721714,-3,1,-8,-18,-6,3,-18,-5
1532381721719,-3,5,-7,-5,0,-20,-12,-8
1532381721724,-2,-20,0,-12,24,11,8,10
1532381721729,1,50,1,3,-15,-44,-5,-16
1532381721734,-6,-27,36,3,3,10,11,-7
1532381721739,4,-27,-66,1,-29,-26,-6,-5
1532381721744,-2,-1,-1,1,5,18,-6,4
1532381721749,8,20,3,0,14,6,-17,0
1532381721754,-18,-15,-4,5,-3,-3,10,12
1532381721759,26,29,26,-7,-3,-13,2,3
1532381721764,-1,-8,-9,-6,-10,8,-5,-11
1532381721769,2,-19,11,5,8,31,11,5
1532381721774,7,18,-18,-3,-20,-17,-8,-9
1532381721779,-13,-4,7,6,10,21,-42,11
1532381721784,-3,1,-14,-22,-11,-27,42,-10
1532381721789,1,-41,-66,0,-5,-20,-20,-38
1532381721794,10,31,-4,-5,-21,0,-27,-20
1532381721799,-2,1,-25,-48,-76,-75,24,-8
1532381721804,-2,37,39,10,19,25,-6,-8
1532381721809,-10,-49,19,2,-28,-40,16,-3
1532381721814,6,18,-37,7,-16,53,4,-1
1532381721819,6,-17,13,16,-27,-5,-3,11
1532381721824,-5,-28,-8,-18,-30,-83,-23,8
1532381721829,14,11,-15,-36,-36,3,-19,-32
1532381721834,-1,-12,1,27,96,17,15,28
1532381721839,-9,2,5,6,30,-19,-9,-31
1532381721844,17,26,8,2,63,38,22,26
1532381721849,-14,-48,-34,17,47,-14,-11,-5
1532381721854,-4,-18,10,-9,2,-18,-13,-48
1532381721859,-25,-9,-10,-15,39,0,-4,0
1532381721864,22,14,-6,4,-1,-27,3,6
1532381721869,16,35,16,-13,-6,-9,21,1
1532381721874,9,10,5,29,13,-20,-32,2
1532381721879,2,-13,-20,13,-13,-2,29,-3
1532381721884,-24,-54,-11,-28,-51,21,-4,-20
1532381721889,0,11,24,33,-17,9,20,7
1532381721894,-8,-4,-17,-64,-60,20,6,4
1532381721899,-2,-1,0,16,-5,-14,-22,19
1532381721904,-16,-13,-6,9,-11,4,-1,-6
1532381721909,5,8,-3,-9,22,22,21,0
1532381721914,1,13,-6,-7,-83,-30,-3,-2
1532381721919,6,8,9,-10,-31,-38,-2,7
1532381721924,-10,-33,-2,9,12,22,-7,-6
1532381721929,-5,-2,10,2,-11,39,13,4
1532381721934,-5,-4,-4,2,-15,-13,-14,-25
1532381721939,13,1,4,-3,22,41,2,19
1532381721944,5,-21,12,2,-41,0,3,-8
1532381721949,-2,38,-13,0,-21,-77,2,0
1532381721954,-4,-9,-9,2,12,10,-6,2
1532381721959,6,3,2,8,-18,-5,-5,14
1532381721964,-8,-18,-8,-10,7,28,-3,-7
1532381721969,11,29,17,3,11,15,9,3
1532381721974,-4,8,4,7,44,-11,-7,-2
1532381721979,3,0,-13,-8,-51,-32,1,2
1532381721984,-5,10,-2,0,2,-56,15,-3
1532381721989,-1,-11,4,-2,-4,10,0,-4
1532381721994,-10,-3,-11,3,30,54,0,5
1532381721999,0,-13,1,1,29,6,1,0
1532381722004,-6,-1,-1,-3,25,-17,15,-6
1532381722009,-3,-2,-8,-18,-46,-52,4,-8
1532381722014,5,1,2,4,25,19,12,2
1532381722019,1,12,0,-1,-27,0,-11,0
1532381722024,-8,-16,-15,-10,-14,-11,-7,-2
1532381722029,6,-6,3,0,32,34,-2,0
1532381722034,-14,-7,2,9,15,10,-17,-6
1532381722039,4,4,1,-7,-42,-61,-17,0
1532381722044,-7,-9,-2,1,11,17,-3,8
1532381722049,-9,-17,4,2,8,2,-9,-4
1532381722054,11,9,3,0,-25,-2,9,-6
1532381722059,4,-5,2,7,-10,9,-3,1
1532381722064,1,-7,-10,7,-15,12,4,0
1532381722069,2,5,-2,-5,-13,9,1,-5
1532381722074,-3,-3,0,8,6,-23,-17,19
1532381722079,5,7,7,4,60,16,-5,-9
1532381722084,-3,1,3,-6,-24,-16,13,-7
1532381722089,-1,-8,0,1,13,30,16,12
1532381722094,3,8,-1,-7,-15,-37,6,-8
1532381722099,-4,-4,1,-1,10,-15,2,0
1532381722104,4,3,11,11,30,34,-7,5
1532381722109,-1,-7,5,29,66,13,-6,-13
1532381722114,-9,-8,-14,-67,-84,-30,2,3
1532381722119,-10,1,-17,-6,5,-5,9,1
1532381722124,-8,-6,3,2,-10,-10,-17,-9
1532381722129,0,1,3,8,1,15,10,-1
1532381722134,8,5,4,17,1,-9,-8,-4
1532381722139,1,-5,-1,-8,4,24,-3,-5
1532381722144,-11,1,-3,0,-11,2,-8,-7
1532381722149,11,2,-6,-10,10,-39,23,12
1532381722154,-9,-1,-1,6,25,4,-25,-7
1532381722159,-2,-1,2,1,2,9,15,-8
1532381722164,11,1,2,9,36,15,10,8
1532381722169,-5,-1,-8,-13,-34,-15,-19,-5
1532381722174,2,1,5,12,21,4,-1,1
1532381722179,-8,-6,-6,0,20,9,8,10
1532381722184,1,-6,-2,1,17,8,12,-4
1532381722189,0,-10,1,-9,8,-12,-28,11
1532381722194,-3,-9,-1,3,1,-4,8,-36
1532381722199,3,-8,4,4,-13,2,-3,3
1532381722204,3,-5,-2,-6,-3,-5,-4,1
1532381722209,-1,0,0,4,6,16,14,-3
1532381722214,0,-5,4,18,6,-3,-19,0
1532381722219,1,3,3,-4,-33,-20,-15,21
1532381722224,-5,2,8,4,-13,-3,-38,-26
1532381722229,-1,-7,-10,-3,-21,-10,17,5
1532381722234,9,9,2,9,1,26,14,3
1532381722239,1,13,6,11,0,22,-29,8
1532381722244,-14,4,2,0,-13,-33,15,-15
1532381722249,4,37,-4,-9,-28,4,-27,-26
1532381722254,7,15,-2,6,-14,8,44,-13
1532381722259,-6,-29,-7,-7,-17,-3,-6,15
1532381722264,-1,9,-5,0,-13,2,-22,-4
1532381722269,-2,-15,2,-6,23,13,7,-8
1532381722274,-5,8,-2,-8,1,-32,-14,17
1532381722279,-2,6,0,1,18,5,-7,-6
1532381722284,0,-5,-9,-7,11,17,16,-17
1532381722289,-6,-4,6,8,3,-13,-13,-16
1532381722294,9,-5,-4,-5,2,15,38,20
1532381722299,-45,-20,-4,-4,5,1,-31,-34
1532381722304,59,16,14,4,8,-8,62,54
1532381722309,-14,11,-18,-5,-11,6,-1,6
1532381722314,-8,-19,2,13,-13,-27,-5,17
1532381722319,10,6,-2,-3,17,49,-13,-39
1532381722324,-23,-8,-6,-10,-41,-66,-19,3
1532381722329,0,-3,4,-12,-20,27,-43,-11
1532381722334,-9,46,3,-8,5,-6,10,17
1532381722339,2,-47,13,13,7,-5,23,-2
1532381722344,-1,-15,-55,2,10,18,-36,-12
1532381722349,9,-26,5,-1,-13,-10,49,24
1532381722354,-2,3,-4,6,3,4,-24,-15
1532381722359,-9,14,-12,-33,29,-17,43,13
1532381722364,-11,6,6,4,-6,10,0,34
1532381722369,7,-2,6,2,-29,-8,-22,-16
1532381722374,10,-7,-3,11,2,-14,18,-5
1532381722379,-1,-3,-6,-22,-32,10,-21,-1
1532381722384,6,6,23,10,36,16,37,34
1532381722389,-9,-4,-14,-8,-10,-10,-30,-18
1532381722394,1,21,20,-8,-28,3,-2,0
1532381722399,7,-32,-39,30,52,-13,5,-2
1532381722404,5,4,4,-41,-73,-9,-12,-13
1532381722409,1,14,2,-3,14,0,1,2
1532381722414,4,-21,1,-6,11,14,17,1
1532381722419,-2,29,10,12,8,-36,-12,9
1532381722424,-7,-25,-6,23,1,-3,7,-9
1532381722429,7,-7,-1,-8,-29,-44,-8,4
1532381722434,0,-6,-12,-2,55,59,-25,11
1532381722439,-3,13,7,-20,8,-2,16,-11
1532381722444,-8,-10,-1,11,31,-6,-19,-12
1532381722449,3,10,21,-10,-7,-10,15,4
1532381722454,18,16,13,42,19,8,6,-23
1532381722459,27,-3,-61,-41,-40,-22,27,24
1532381722464,13,23,13,-4,-40,-23,-10,-13
1532381722469,-16,-1,-7,24,56,55,5,14
1532381722474,-39,-2,11,-15,3,-31,-13,-2
1532381722479,-15,21,42,15,-3,45,-10,-6
1532381722484,-14,17,-14,13,-51,-52,38,8
1532381722489,0,-9,-1,-39,13,-39,36,8
1532381722494,-8,-19,-9,19,22,-24,-11,-9
1532381722499,-1,-4,6,-9,-46,-20,2,2
1532381722504,8,-2,6,7,30,38,-4,15
1532381722509,10,-6,-5,7,-35,18,4,-20
1532381722514,16,-11,-14,-8,5,-7,26,-3
1532381722519,13,-16,5,13,-38,-4,4,-3
1532381722524,1,8,12,-8,3,-3,-34,-9
1532381722529,0,-8,16,8,7,4,16,23
1532381722534,-1,-18,-43,-12,-114,23,-15,-19
1532381722539,-1,15,43,-4,1,-8,9,-10
1532381722544,-13,12,-15,12,24,10,-21,-6
1532381722549,-8,-68,-20,-5,18,5,-1,9
1532381722554,23,39,8,-5,-18,-25,1,5
1532381722559,-13,-4,-8,-2,-8,15,-15,-17
1532381722564,16,19,17,25,45,5,12,-31
1532381722569,-10,10,-3,-39,-12,6,-5,2
1532381722574,-14,-8,5,10,21,37,-4,18
1532381722579,-13,3,2,5,10,-7,3,10
1532381722584,-8,-8,9,4,-57,-22,-21,-1
1532381722589,-7,2,-19,7,31,28,-17,-24
1532381722594,-3,-17,-10,-23,12,-37,37,32
1532381722599,-1,21,19,-1,61,2,-11,-60
1532381722604,-3,-13,-18,4,56,1,1,-5
1532381722609,9,0,2,8,-13,15,-18,-3
1532381722614,-1,-14,-38,-16,-47,-30,-5,15
1532381722619,-6,10,-4,-3,27,-3,-5,21
1532381722624,-21,-6,0,-4,-25,44,-6,-3
1532381722629,-2,17,19,-26,18,-25,-25,2
1532381722634,8,51,21,11,60,14,25,-2
1532381722639,-1,-5,-6,12,-85,-44,-11,-7
1532381722644,25,-9,-25,-76,11,1,9,18
1532381722649,9,7,1,17,-16,5,2,-5
1532381722654,10,-2,17,13,43,24,-4,-16
1532381722659,-34,-24,-13,14,34,55,-20,-22
1532381722664,-4,-23,1,-6,-9,-7,1,39
1532381722669,35,91,32,19,-24,-41,-13,3
1532381722674,11,-36,10,-14,-17,-9,-34,-58
1532381722679,33,18,-39,0,-10,25,13,50
1532381722684,-12,-11,-13,-3,-21,-36,-29,-27
1532381722689,0,34,54,12,22,42,0,34
1532381722694,8,-32,-47,5,-34,-33,10,-12
1532381722699,3,-27,-3,3,67,-17,-1,-5
1532381722704,5,34,85,-30,11,34,10,-1
1532381722709,5,-13,-49,4,-12,-14,5,11
1532381722714,-22,-38,-71,-7,-2,2,-23,7
1532381722719,-13,-18,18,1,-9,-5,3,1
1532381722724,-4,7,16,25,41,-23,20,9
1532381722729,-12,-5,53,2,-1,3,-1,-5
1532381722734,-21,17,22,-12,1,39,-8,-20
1532381722739,-6,-22,-17,11,23,-20,-13,10
1532381722744,37,-14,14,4,-25,-3,48,-2
1532381722749,14,41,-9,-15,-37,22,-7,-18
1532381722754,-13,2,-19,-4,14,-71,-13,-1
1532381722759,1,5,-13,-6,-32,-7,-8,29
1532381722764,-18,7,-18,3,-8,17,6,-8
1532381722769,-9,-31,-15,20,32,-2,2,-3
1532381722774,2,-7,21,-7,-2,5,-53,13
1532381722779,8,7,30,4,9,-5,123,-4
1532381722784,1,10,7,19,-20,-3,-21,-32
1532381722789,-6,-27,-19,-16,-18,-21,-2,-8
1532381722794,4,-12,-24,-1,-4,22,-15,2
1532381722799,11,-48,1,-9,-5,5,-5,18
1532381722804,10,2,-65,-2,-10,-10,-23,-1
1532381722809,22,-9,-11,-1,-68,-23,29,-2
1532381722814,4,17,40,-27,62,28,-45,8
1532381722819,-5,4,-6,-5,1,-14,-16,-37
1532381722824,-6,7,15,11,36,-14,1,-1
1532381722829,-28,-24,-10,24,16,21,17,22
1532381722834,-2,36,15,-39,-32,-17,23,-16
1532381722839,-1,14,-2,3,14,8,-39,-4
1532381722844,-19,-20,0,-12,-22,-37,-21,-9
1532381722849,-8,-21,-21,31,44,21,6,10
1532381722854,6,3,47,16,-20,7,26,18
1532381722859,-5,-3,-41,-19,-42,-19,-8,0
1532381722864,4,12,8,14,35,58,15,-13
1532381722869,6,-15,-14,-5,-18,11,-11,-14
1532381722874,2,7,27,-5,-12,-15,23,-5
1532381722879,-5,8,33,3,24,-28,-39,21
1532381722884,14,-32,-31,0,-10,33,53,5
1532381722889,-17,-3,-6,-13,-21,-33,-7,-36
1532381722894,-36,-44,-2,10,-12,30,-21,-1
1532381722899,-4,-31,-63,-11,51,-8,-32,-11
1532381722904,-12,4,0,12,-57,-16,50,-4
1532381722909,-26,-42,1,1,49,60,-20,-13
1532381722914,-9,-5,3,16,-9,-19,12,5
1532381722919,5,45,46,17,16,5,31,-2
1532381722924,-6,-24,-21,-44,-37,-18,-5,-14
1532381722929,-5,5,19,-2,-30,12,35,3
1532381722934,3,5,-20,-7,-13,-32,10,3
1532381722939,-12,-6,-8,-2,-5,20,29,37
1532381722944,0,-7,-22,23,46,-38,-6,-22
1532381722949,7,6,12,-24,-29,29,15,-11
1532381722954,-12,7,4,-4,28,-10,-20,3
1532381722959,2,-24,-7,-22,-34,-5,-18,3
1532381722964,-10,-22,5,2,25,22,15,9
1532381722969,10,19,-32,-6,-31,-45,-35,-41
1532381722974,16,32,9,25,54,10,-15,-16
1532381722979,18,20,33,-22,-62,-57,4,22
1532381722984,13,-1,-1,7,-6,45,-11,-8
1532381722989,-15,-27,-7,12,17,26,24,31
1532381722994,-18,-50,-44,-3,-6,14,-17,-5
1532381722999,0,-7,12,13,32,-4,-6,-29
1532381723004,2,30,21,-9,-25,2,18,14
1532381723009,4,-13,16,48,49,37,15,13
1532381723014,15,9,-14,-66,-46,-5,3,-13
1532381723019,-23,-14,-5,-17,-43,-11,-36,9
1532381723024,-1,-2,3,8,40,-4,-22,-30
1532381723029,15,3,-26,-9,-20,-22,3,2
1532381723034,0,32,7,37,15,3,-5,2
1532381723039,4,8,18,8,19,6,16,10
1532381723044,-15,-3,-14,-21,-54,20,-17,-16
1532381723049,-16,-18,17,9,-14,-33,21,8
1532381723054,32,15,20,9,7,-3,-12,-3
1532381723059,-23,31,-30,-16,-4,11,1,-16
1532381723064,18,7,16,33,38,-9,5,15
1532381723069,-1,2,-16,-13,13,1,2,5
1532381723074,-17,-20,22,0,-42,9,-4,11
1532381723079,3,-16,-3,17,32,-18,-29,-21
1532381723084,3,-2,-20,-18,26,23,-29,6
1532381723089,-10,12,23,-3,11,18,24,-12
1532381723094,-1,-16,-18,7,7,8,18,9
1532381723099,6,-12,-1,17,-20,15,24,21
1532381723104,2,11,-7,-9,6,-31,-14,-15
1532381723109,-4,3,-8,-27,15,-17,-12,2
1532381723114,-15,-14,-8,-4,17,0,3,11
1532381723119,-7,-14,17,20,44,7,15,-21
1532381723124,11,-2,-29,0,-13,-10,15,8
1532381723129,7,-4,4,-6,-7,-2,-7,5
1532381723134,-2,14,-10,5,5,16,26,2
1532381723139,-4,-4,5,-7,-21,-27,-32,9
1532381723144,2,1,13,17,12,18,-4,-9
1532381723149,5,-11,-7,-24,-24,-21,62,4
1532381723154,-8,-19,-15,11,18,-10,-20,-9
1532381723159,8,-2,-4,-15,-17,7,1,-3
1532381723164,4,4,10,-11,-22,2,5,9
1532381723169,0,11,1,11,-12,1,-19,-1
1532381723174,-3,1,15,-1,-9,-9,-13,-10
1532381723179,11,18,-2,27,-2,13,16,3
1532381723184,-8,-2,-7,-51,-62,-12,1,11
1532381723189,0,7,9,26,-20,-40,-2,-16
1532381723194,-9,-15,-13,-41,-6,28,-9,-11
1532381723199,7,1,9,17,11,0,-3,-17
1532381723204,-6,-4,4,13,44,-10,4,34
1532381723209,-5,-4,-2,13,-4,6,1,-27
1532381723214,-7,-11,-9,5,-1,-8,-10,2
1532381723219,3,0,-12,-24,-14,-6,-13,-13
1532381723224,21,11,9,22,12,20,22,5
1532381723229,-5,-13,-6,-23,-17,32,-29,7
1532381723234,-1,-10,8,45,21,-37,8,10
1532381723239,9,-1,-11,-53,11,27,-5,2
1532381723244,4,11,2,41,62,-19,10,10
1532381723249,5,4,-14,-65,-51,8,-25,4
1532381723254,4,3,-6,-11,-20,-3,2,-24
1532381723259,-17,-5,1,25,31,10,12,14
1532381723264,-6,3,7,9,-19,-18,29,-16
1532381723269,9,21,3,9,19,21,-4,18
1532381723274,-3,24,1,5,11,-11,10,8
1532381723279,13,-11,-8,-20,-33,-43,-3,11
1532381723284,0,-16,-8,-7,-6,7,4,-16
1532381723289,9,-38,7,20,20,15,17,46
1532381723294,15,-40,-4,-20,-37,-3,-26,-5
1532381723299,0,6,0,6,21,10,15,12
1532381723304,-17,5,0,-5,-19,-36,-30,-14
1532381723309,-5,28,-2,9,6,-12,-1,-23
1532381723314,-18,7,-5,-9,-15,15,-25,-8
1532381723319,-18,-7,-3,-3,0,-26,-6,0
1532381723324,6,-18,-1,3,13,52,0,11
1532381723329,6,54,1,-7,-15,-12,-10,-4
1532381723334,-5,-20,1,8,17,8,-6,-4
1532381723339,-16,-13,0,15,9,2,-7,-22
1532381723344,-1,-6,-2,-26,-35,12,11,-2
1532381723349,-10,-14,-8,-1,1,45,-5,2
1532381723354,-3,14,-2,-6,-42,-20,43,-1
1532381723359,-3,9,-6,-5,-52,6,7,-8
1532381723364,-8,-37,3,9,-32,-35,-23,6
1532381723369,1,7,3,2,-25,-1,13,-8
1532381723374,17,2,3,11,6,1,-9,-13
1532381723379,17,4,-3,-21,-16,7,-3,-24
1532381723384,12,14,6,9,31,-4,-10,8
1532381723389,-3,-5,-3,3,14,-12,1,3
1532381723394,-9,-3,0,-2,54,6,-11,-12
1532381723399,-7,-3,0,0,5,3,-20,-3
1532381723404,-41,19,-1,3,8,-15,16,22
1532381723409,-24,-11,1,1,47,-13,27,-26
1532381723414,1,2,3,11,49,-5,-21,11
1532381723419,10,14,-2,8,50,11,-4,12
1532381723424,25,9,-4,-29,-16,-6,-8,-20
1532381723429,-6,-9,-4,-5,13,-42,-54,-10
1532381723434,-11,-7,-4,-4,11,-1,45,18
1532381723439,18,1,7,11,3,4,-18,-11
1532381723444,9,5,-5,18,2,15,8,-3
1532381723449,2,-22,-3,4,-8,4,5,9
1532381723454,-7,1,-4,-24,-61,14,-13,27
1532381723459,-34,-49,-11,0,9,-39,-9,-21
1532381723464,54,39,18,10,-6,10,21,11
1532381723469,2,20,8,7,-46,-2,-9,-21
1532381723474,8,6,-2,-14,-23,-10,25,14
1532381723479,-3,8,1,-9,-19,-3,-17,16
1532381723484,-40,-44,-12,-2,8,10,12,24
1532381723489,8,3,1,3,0,1,8,-12
1532381723494,10,15,6,12,13,-6,-18,6
1532381723499,-3,-14,-10,-6,2,3,26,21
1532381723504,9,10,3,9,-2,15,-29,-37
1532381723509,-2,-3,2,-12,32,-19,-11,20
1532381723514,-10,-10,-3,0,-3,-5,-5,-23
1532381723519,-6,1,-8,-17,-1,34,16,-2
1532381723524,-7,-6,-11,-1,-7,8,-9,8
1532381723529,-6,-4,3,-4,-26,-6,-7,19
1532381723534,2,-14,-5,3,24,38,41,-31
1532381723539,19,31,11,14,-3,-9,13,8
1532381723544,-6,-2,-4,-6,19,-3,1,12
1532381723549,12,-13,0,12,-18,-5,25,-19
1532381723554,-12,-21,-7,-12,7,-8,-4,14
1532381723559,15,29,24,2,1,0,28,9
1532381723564,-47,-70,-2,1,17,8,-1,-12
1532381723569,46,3,-1,-7,10,-3,-15,11
1532381723574,34,58,15,20,9,1,9,49
1532381723579,25,-10,-10,-4,-3,-1,37,-32
1532381723584,20,27,6,9,-19,-23,42,8
1532381723589,-18,-28,-1,-8,-25,24,8,-33
1532381723594,-6,-26,2,1,13,-36,-1,-2
1532381723599,-14,-1,-4,-24,-31,2,2,-4
1532381723604,-23,-4,0,5,3,18,-32,-9
1532381723609,-22,0,-4,18,-18,-20,-3,11
1532381723614,-18,-3,1,-11,-31,27,-49,-7
1532381723619,-15,6,3,12,26,-14,3,-33
1532381723624,1,-21,-11,3,1,-9,-13,8
1532381723629,44,35,2,5,-16,-1,-3,9
1532381723634,25,46,16,-7,-14,-1,-55,-17
1532381723639,0,53,19,7,-14,-12,-16,-3
1532381723644,-27,-88,-59,-22,-13,-10,-9,-14
1532381723649,-4,38,-5,6,39,3,-21,13
1532381723654,-42,-83,-14,0,4,-11,37,0
1532381723659,3,-15,4,26,-40,30,-8,15
1532381723664,-4,35,13,-58,-6,-4,2,-19
1532381723669,-50,-29,3,-3,19,-11,-1,3
1532381723674,65,32,-16,1,-13,-14,72,-20
1532381723679,25,71,1,-3,-65,-49,-9,23
1532381723684,9,-41,55,12,11,22,-11,-4
1532381723689,-27,-31,-69,-4,-31,-10,26,11
1532381723694,-28,-13,8,-6,23,19,-16,6
1532381723699,-4,-44,-10,6,22,6,-23,7
1532381723704,3,21,2,-13,-19,-3,31,34
1532381723709,-7,17,10,2,17,-49,-6,-38
1532381723714,7,-36,11,11,-5,-3,-11,17
1532381723719,2,0,-8,-8,-7,-7,-5,-27
1532381723724,4,27,4,12,1,17,7,11
1532381723729,-11,-40,-13,-9,-3,15,-21,-10
1532381723734,-9,16,-15,9,-35,1,-8,-22
1532381723739,-17,-21,12,8,53,31,-27,20
1532381723744,-4,5,-5,-23,-50,-29,-4,-6
1532381723749,21,9,10,12,11,53,13,-22
1532381723754,-4,12,-3,-25,-8,-66,-49,-14
1532381723759,30,69,35,4,-5,9,17,27
1532381723764,-24,-54,47,13,13,64,-18,-15
1532381723769,6,13,-58,-24,13,6,9,-26
1532381723774,17,17,-5,20,26,25,-8,22
1532381723779,-5,-31,-7,-7,-33,9,5,-1
1532381723784,-17,27,10,3,13,-16,-20,2
1532381723789,-3,23,16,-5,-33,-61,16,15
1532381723794,-2,1,6,6,-19,47,37,-16
1532381723799,-3,5,4,9,110,78,24,-2
1532381723804,-63,-40,-22,-23,-26,-37,-12,4
1532381723809,32,9,0,-6,13,-26,-9,14
1532381723814,36,51,51,19,13,-11,-19,-9
1532381723819,7,-44,-49,-22,-53,-12,5,-2
1532381723824,29,23,-11,17,-2,28,30,3
1532381723829,-19,-51,-17,-37,-3,-10,-32,-5
1532381723834,0,-5,-3,7,25,3,-9,10
1532381723839,5,28,37,18,37,5,-20,5
1532381723844,-6,-4,4,1,19,-13,-52,-5
1532381723849,9,18,-10,-2,-29,-28,10,-14
1532381723854,13,29,2,9,70,26,3,13
1532381723859,-11,-1,-8,-19,-70,-19,7,-18
1532381723864,8,2,-13,-27,1,-5,3,8
1532381723869,-15,-19,12,-1,-11,-12,1,-13
1532381723874,6,-6,-2,11,4,19,-18,-7
1532381723879,-17,-6,-1,14,16,-22,-21,-9
1532381723884,2,-23,-10,-2,-6,2,17,-17
1532381723889,10,-27,12,-11,27,32,-25,32
1532381723894,-11,46,-27,-5,-7,-45,16,-11
1532381723899,8,-10,4,6,9,-14,-4,-14
1532381723904,18,17,-2,0,-23,5,21,20
1532381723909,-19,-16,-1,6,19,-15,-6,-24
1532381723914,-4,-5,2,0,-10,25,-1,8
1532381723919,-3,4,14,4,10,-12,10,9
1532381723924,-32,-17,-16,-1,9,25,44,12
1532381723929,18,-8,-3,0,4,-54,-38,-24
1532381723934,17,55,27,-2,5,18,29,4
1532381723939,-4,-16,-19,9,-9,6,-17,-16
1532381723944,17,4,-4,-13,-22,-4,1,5
1532381723949,-25,-8,10,2,13,-5,13,-11
1532381723954,-10,-40,-22,-3,-16,-40,13,11
1532381723959,3,5,8,7,42,47,-6,14
1532381723964,12,26,8,17,-47,-19,12,-4
1532381723969,-7,-6,-14,-33,-4,41,-2,-6
1532381723974,-28,-38,-2,4,16,-11,-6,19
1532381723979,13,15,6,-4,12,-16,8,-3
1532381723984,19,-2,-7,8,11,-13,-3,-9
1532381723989,24,33,13,6,-17,-25,10,-29
1532381723994,4,-12,-5,4,7,-19,-30,-4
1532381723999,7,4,-7,-5,35,1,14,35
1532381724004,-22,-61,12,-6,15,16,-11,-17
1532381724009,-1,43,-1,14,21,21,8,0
1532381724014,-17,-48,-23,-11,-15,-3,-22,30
1532381724019,-21,-25,-1,-2,-26,8,0,-27
1532381724024,-6,45,0,-4,-10,-24,-29,0
1532381724029,25,-6,26,7,-1,43,25,10
1532381724034,21,9,-43,-10,-32,-34,0,-20
1532381724039,-12,30,18,0,-21,-6,-27,9
1532381724044,-3,-45,0,-2,-29,5,13,-19
1532381724049,-28,-14,-5,8,24,-15,24,-5
1532381724054,-12,-17,20,5,12,20,22,2
1532381724059,-4,5,-12,-9,-32,-17,-3,13
1532381724064,40,80,11,9,-4,3,-34,1
1532381724069,0,-1,-9,-6,-47,-17,7,16
1532381724074,-7,-14,1,-1,29,29,-16,-6
1532381724079,-6,-2,2,-1,-17,-29,12,-3
1532381724084,-13,-8,-1,2,8,24,11,22
1532381724089,-35,-38,-11,14,6,21,-2,-48
1532381724094,21,-15,-8,-22,16,7,-49,-4
1532381724099,60,68,37,25,42,11,1,8
1532381724104,20,2,-5,-11,82,10,-7,-2
1532381724109,22,16,2,16,51,-2,-47,20
1532381724114,-39,-14,7,11,5,-6,84,18
1532381724119,-13,-37,-12,-9,-28,30,-8,-9
1532381724124,-3,-9,1,23,30,-6,3,8
1532381724129,-13,-1,-5,-17,11,30,-22,-21
1532381724134,-8,43,40,-3,-23,-21,-15,-18
1532381724139,1,1,-10,-6,-13,-44,-11,3
1532381724144,10,-3,7,4,-22,32,-12,-50
1532381724149,-21,-10,8,-6,-15,12,21,-6
1532381724154,2,-31,-26,-3,-15,-7,14,9
1532381724159,7,-17,4,-9,-11,0,-5,23
1532381724164,7,20,-9,-2,-8,-20,-23,23
1532381724169,-8,-18,17,0,18,-6,33,-10
1532381724174,14,40,-14,-2,6,-12,-11,8
1532381724179,3,10,20,42,10,14,47,4
1532381724184,-48,-78,-34,-71,-28,14,-65,-69
1532381724189,41,99,46,13,18,-8,39,0
1532381724194,42,19,-11,0,-13,5,21,20
1532381724199,-14,-1,-54,-5,-21,-8,-29,-5
1532381724204,-10,-75,4,22,14,28,30,40
1532381724209,-1,-14,2,-1,-8,-5,7,24
1532381724214,6,-11,8,-15,-6,-30,20,15
1532381724219,4,14,19,-2,-4,22,-31,-45
1532381724224,13,34,-1,11,9,17,70,12
1532381724229,-23,-11,-18,-3,7,11,-39,-28
1532381724234,-7,-18,12,3,-6,-5,28,0
1532381724239,18,49,3,-6,1,-4,33,33
1532381724244,-3,-36,2,17,5,-25,-7,-8
1532381724249,19,36,-1,-21,-37,8,6,-1
1532381724254,-12,-17,-11,2,3,-6,-28,-19
1532381724259,-22,-36,6,-5,8,16,-27,5
1532381724264,-4,-24,13,8,3,-24,4,-19
1532381724269,-4,50,-1,17,1,-6,7,7
1532381724274,18,-27,2,-5,-29,14,-6,-13
1532381724279,7,-22,-17,-19,-41,-32,16,42
1532381724284,-7,31,14,7,-31,36,-4,-7
1532381724289,-23,-117,-29,0,25,4,-38,-35
1532381724294,-17,20,10,7,41,14,3,14
1532381724299,11,19,16,6,-22,-11,0,7
1532381724304,7,10,-11,-25,50,18,-95,-9
1532381724309,-33,-11,-5,-5,16,-46,74,15
1532381724314,35,85,4,9,-1,-6,-6,-50
1532381724319,-36,-68,-7,7,18,11,-10,6
1532381724324,36,72,1,7,-9,-5,9,5
1532381724329,-17,-16,-13,-7,-17,-15,-1,10
1532381724334,0,23,52,-4,5,7,36,-26
1532381724339,4,9,-44,-11,-7,-24,-7,13
1532381724344,-2,-26,-21,2,14,-9,11,-5
1532381724349,-14,14,-4,-4,26,16,-21,-21
1532381724354,-7,-67,-13,-1,-4,-18,13,38
1532381724359,38,12,22,0,9,64,26,5
1532381724364,9,-12,0,0,16,-44,-14,3
1532381724369,36,2,2,3,-7,-10,-14,26
1532381724374,-40,-24,6,-5,-8,3,-30,-49
1532381724379,23,57,-12,1,-3,-4,37,18
1532381724384,-1,-5,-8,16,-16,-2,37,43
1532381724389,15,-6,5,-11,-1,-10,12,55
1532381724394,14,-13,-8,0,-7,3,-7,-13
1532381724399,13,-15,7,5,20,-1,-32,-41
1532381724404,6,15,9,9,-37,0,25,22
1532381724409,-2,-38,-5,22,10,45,-40,-8
1532381724414,-9,9,-14,-55,-87,48,24,3
1532381724419,-58,-51,13,10,-2,-29,-7,9
1532381724424,-6,69,-2,4,66,-5,-43,-16
1532381724429,-24,3,40,3,37,-24,-27,-25
1532381724434,-7,-53,-48,9,88,-5,-22,38
1532381724439,-9,24,13,2,61,9,-16,-34
1532381724444,25,0,3,-8,-36,-18,1,-7
1532381724449,21,-22,3,0,-71,10,17,-13
1532381724454,25,4,6,8,-73,-18,2,4
1532381724459,32,-5,2,-14,-101,-11,7,2
1532381724464,19,-19,2,10,-52,-2,5,-19
1532381724469,10,26,-9,-11,-1,-27,11,26
1532381724474,-14,-15,-5,0,103,31,14,-22
1532381724479,-17,21,4,-8,74,-6,38,17
1532381724484,-30,-5,-11,-8,101,21,-1,-7
1532381724489,-34,-40,-5,5,43,16,-19,-12
1532381724494,-8,70,13,11,22,-9,7,15
1532381724499,-16,2,0,-4,30,-8,-27,-9
1532381724504,-24,0,3,-4,-18,10,-8,-5
1532381724509,-33,-15,-48,-13,-23,-25,2,8
1532381724514,6,-22,13,16,28,-27,-23,-13
1532381724519,27,4,-4,-24,-27,19,-29,14
1532381724524,1,-17,5,-6,-37,-1,47,10
1532381724529,-17,-33,-3,-3,-30,3,-10,-89
1532381724534,65,97,15,15,-59,-18,23,33
1532381724539,-9,-5,5,3,-28,-13,-24,-20
1532381724544,6,-13,0,-2,-24,12,-5,36
1532381724549,-87,-6,13,-7,2,1,22,28
1532381724554,-44,-49,-4,13,1,-14,24,-40
1532381724559,13,0,-20,-1,-6,57,8,11
1532381724564,29,4,-17,-19,5,5,-28,4
1532381724569,57,28,-6,0,14,-6,45,-29
1532381724574,8,-28,3,-3,3,0,-2,16
