1532068310617,-15,3,9,26,2,-1,2,-1
1532068310622,-16,-7,10,-16,-4,0,10,-4
1532068310627,26,-9,-22,-5,0,-1,-23,-6
1532068310632,-28,4,-1,-6,-3,-2,-2,-3
1532068310637,-6,13,-1,7,0,2,6,-15
1532068310642,-5,8,-10,15,7,1,-1,6
1532068310647,4,-10,9,-11,-3,0,1,7
1532068310652,3,14,-2,-43,-4,-2,-2,-8
1532068310657,11,5,-2,-7,2,1,0,0
1532068310662,1,-5,-16,33,-5,-5,-2,0
1532068310667,-2,5,12,-5,1,-1,6,5
1532068310672,-10,-4,3,17,5,0,-6,-4
1532068310677,-3,-6,0,-12,2,0,1,2
1532068310682,-5,-14,-9,-4,-3,0,-10,-3
1532068310687,2,1,2,-8,-2,-1,4,1
1532068310692,-1,4,5,13,1,2,2,1
1532068310697,2,10,0,-6,-4,-2,-3,3
1532068310702,-19,-5,5,11,4,-2,3,5
1532068310707,14,4,1,-1,-3,-2,-2,-5
1532068310712,-14,-10,8,-8,-2,1,8,-2
1532068310717,-2,4,-11,24,1,-1,-6,3
1532068310722,4,-1,-3,-26,-8,-5,-6,0
1532068310727,-11,-2,0,-19,-3,0,-1,0
1532068310732,1,19,0,13,-3,-1,3,5
1532068310737,20,-8,6,7,0,2,3,10
1532068310742,-5,-19,6,5,7,1,-5,-7
1532068310747,-6,9,-3,5,-2,0,6,-1
1532068310752,16,-7,-6,4,-4,-4,-16,8
1532068310757,-15,-24,-7,-25,-3,-1,0,-7
1532068310762,14,16,4,10,0,0,1,4
1532068310767,-14,-9,-2,-3,0,1,1,-1
1532068310772,24,11,8,14,3,0,0,8
1532068310777,-13,-9,-7,-35,-7,-2,8,-11
1532068310782,5,0,-3,28,11,0,-16,10
1532068310787,-3,-2,-2,-23,-4,-2,4,5
1532068310792,-7,-18,-6,-28,-13,-3,0,1
1532068310797,22,22,4,15,3,-1,-2,-3
1532068310802,-21,-1,2,0,-2,-1,16,7
1532068310807,19,22,4,28,5,0,-15,-2
1532068310812,-26,-16,-9,-1,3,-1,-4,-9
1532068310817,-1,-17,5,-2,-6,-1,2,-4
1532068310822,14,-6,-3,-6,3,0,-2,-7
1532068310827,-9,-3,-9,-1,-3,-2,13,7
1532068310832,-6,2,-37,-7,0,-3,-12,-5
1532068310837,29,31,9,-3,-1,2,3,17
1532068310842,-11,-17,-3,-8,-3,-3,-9,-15
1532068310847,0,-5,4,-10,-1,1,2,5
1532068310852,1,-7,-4,7,-4,-1,6,-6
1532068310857,-7,7,1,17,2,-1,-13,-8
1532068310862,1,5,-12,-11,-1,-2,2,7
1532068310867,-11,-9,7,3,-1,0,25,-5
1532068310872,31,3,10,-11,-1,-1,-31,2
1532068310877,-44,0,3,-3,-3,-3,-2,1
1532068310882,12,6,-1,4,2,-2,-15,-11
1532068310887,-13,-19,-7,7,-8,-3,-8,-14
1532068310892,6,6,2,-7,1,2,23,-7
1532068310897,-21,-12,1,14,-2,-5,-4,-7
1532068310902,12,7,-2,0,-2,2,1,0
1532068310907,4,11,5,8,8,1,-4,-1
1532068310912,-4,-8,6,-2,1,0,4,4
1532068310917,-2,14,-6,-10,-5,0,-4,-1
1532068310922,-6,-27,6,13,5,3,19,-7
1532068310927,-5,-1,-11,-3,-5,-4,-24,3
1532068310932,-4,-3,6,-3,-1,0,6,1
1532068310937,12,1,-1,10,2,0,-2,-7
1532068310942,4,7,-8,-16,-3,-1,-4,-2
1532068310947,-16,-2,-3,-9,-10,1,5,-3
1532068310952,7,-4,-2,1,2,-3,4,24
1532068310957,27,-12,6,14,2,-1,2,-23
1532068310962,-3,14,-11,-20,-8,-1,-4,15
1532068310967,-14,-14,-5,-1,-3,-1,0,-10
1532068310972,0,8,6,31,5,1,-9,4
1532068310977,-4,-1,-2,-20,0,1,10,-4
1532068310982,11,0,10,12,0,-3,-10,3
1532068310987,3,14,-3,-35,-4,-3,-2,4
1532068310992,-4,-12,2,-13,2,0,3,-11
1532068310997,2,-1,3,10,4,2,14,2
1532068311002,-4,3,0,15,4,-1,-12,-2
1532068311007,2,6,-6,-4,0,1,-6,-23
1532068311012,-24,-3,17,32,12,2,4,0
1532068311017,6,9,-7,-34,-9,-2,8,9
1532068311022,-8,-15,-2,12,2,-1,-2,4
1532068311027,7,-11,-1,7,0,1,2,3
1532068311032,2,5,8,-12,-1,0,-3,-5
1532068311037,-20,15,-9,15,2,0,2,3
1532068311042,5,-14,13,7,1,-1,9,1
1532068311047,19,-8,-3,12,4,1,-3,4
1532068311052,-5,3,-19,0,-8,-4,-5,-12
1532068311057,4,1,-11,15,0,-1,-7,0
1532068311062,-10,10,7,-16,-3,-1,3,-7
1532068311067,7,3,8,-1,0,-3,-3,-3
1532068311072,1,4,3,-15,-3,0,36,5
1532068311077,14,-15,-18,5,0,-5,-42,-12
1532068311082,-10,10,1,-5,-2,1,12,4
1532068311087,-3,-16,-15,-2,-4,-2,-10,0
1532068311092,2,-10,-2,8,0,2,2,3
1532068311097,-7,9,11,-6,1,0,5,4
1532068311102,-4,-36,-10,-4,-2,1,1,-9
1532068311107,1,5,-10,-1,0,-1,0,6
1532068311112,-2,-1,-5,-2,-3,-1,-7,6
1532068311117,4,-7,-6,-1,1,0,5,1
1532068311122,5,20,11,7,-1,-2,-16,3
1532068311127,-6,1,0,13,-6,-2,13,0
1532068311132,-2,-3,8,19,3,-2,-15,-9
1532068311137,3,2,3,-3,6,3,17,6
1532068311142,-3,8,-19,-22,-4,-4,-21,4
1532068311147,0,-9,5,3,-2,-1,2,2
1532068311152,14,26,8,-1,1,1,6,3
1532068311157,-4,-16,6,-16,-3,-2,-3,5
1532068311162,-6,-3,-6,2,-8,-2,5,-9
1532068311167,19,0,-6,10,4,-1,-5,-6
1532068311172,-5,-19,-4,-32,-9,-2,-3,-2
1532068311177,-1,7,3,9,2,-1,0,6
1532068311182,4,14,9,-18,-3,1,6,-2
1532068311187,-4,13,17,13,1,0,3,11
1532068311192,-4,-5,-3,-24,-2,-3,-9,-14
1532068311197,-5,-19,-30,9,-8,-4,-2,11
1532068311202,3,6,-2,10,-1,-2,-3,-8
1532068311207,-4,9,9,-2,3,0,9,-4
1532068311212,-6,-2,2,8,3,1,-1,1
1532068311217,-4,0,18,1,-2,1,2,-11
1532068311222,2,4,-5,-19,-1,-1,5,9
1532068311227,-5,16,5,2,2,-1,-3,-3
1532068311232,-5,-27,-5,-7,-4,-3,-4,5
1532068311237,19,0,-9,11,-1,-1,-2,-7
1532068311242,-24,2,10,9,-1,1,16,24
1532068311247,-7,-3,-9,10,4,-1,-20,0
1532068311252,1,0,9,-44,-9,-4,-2,-6
1532068311257,-11,10,-9,14,4,-1,-1,4
1532068311262,2,43,59,-21,0,2,5,-2
1532068311267,-5,-64,-65,-7,2,-2,-3,-6
1532068311272,-1,4,39,24,-3,1,1,5
1532068311277,0,-10,10,-16,-6,0,-4,1
1532068311282,7,19,5,12,3,-1,2,7
1532068311287,-5,6,15,-6,1,0,13,-6
1532068311292,-1,4,-21,-8,-6,-5,-23,-9
1532068311297,-6,8,17,-18,-2,-2,-2,-5
1532068311302,1,-34,-48,8,1,1,-2,-15
1532068311307,10,20,11,0,-3,-1,-3,1
1532068311312,5,-6,-9,-3,7,2,13,16
1532068311317,-3,2,-3,67,5,-1,-14,-17
1532068311322,-5,18,-6,-90,-20,-6,1,-7
1532068311327,4,-19,5,-1,1,1,-1,1
1532068311332,0,27,-16,0,-3,-2,-5,0
1532068311337,-4,-15,14,10,4,2,7,2
1532068311342,1,-18,-23,-5,2,-2,0,-3
1532068311347,-4,0,-9,-24,-13,-3,-6,-7
1532068311352,2,15,3,-8,6,-2,4,8
1532068311357,-1,-4,9,27,-3,0,4,4
1532068311362,-2,-25,-8,31,-4,-4,-7,-7
1532068311367,-1,11,11,-11,-6,0,-4,2
1532068311372,-2,-17,-10,5,1,0,6,-4
1532068311377,0,14,-7,-34,-1,-3,-3,-1
1532068311382,3,17,19,19,19,4,-2,1
1532068311387,-3,-29,5,4,-6,-4,2,3
1532068311392,-3,15,-24,-1,-14,-6,-4,-5
1532068311397,-3,-33,-22,-26,-3,2,-4,-1
1532068311402,2,20,12,3,-5,-1,-4,-3
1532068311407,-3,-9,-16,34,9,-1,-2,-2
1532068311412,-3,4,15,4,6,1,-1,-7
1532068311417,-1,-4,-11,-1,4,1,-2,-2
1532068311422,4,-2,9,15,2,1,2,-4
1532068311427,-2,12,12,-21,-6,-1,3,6
1532068311432,1,-3,8,55,-2,-3,-3,-3
1532068311437,0,5,-11,-40,-14,-2,4,0
1532068311442,1,0,-23,24,25,8,3,-1
1532068311447,-1,20,28,3,9,2,-2,2
1532068311452,-5,-47,-20,7,0,1,6,-9
1532068311457,2,9,13,-6,22,5,-1,5
1532068311462,-5,-28,-5,-8,11,-4,-3,-6
1532068311467,1,6,-28,-23,-29,-4,-1,1
1532068311472,-2,22,-10,1,-37,-7,-2,3
1532068311477,1,19,7,8,-6,0,-1,2
1532068311482,-5,-57,2,4,-2,-4,-8,-5
1532068311487,2,33,14,0,28,3,3,1
1532068311492,-3,-40,-4,39,2,0,-2,-4
1532068311497,-5,-14,-47,-23,-12,-8,-8,-9
1532068311502,8,36,21,19,9,2,2,1
1532068311507,-8,-21,28,-15,2,-4,-6,-7
1532068311512,0,-6,-6,41,8,3,0,1
1532068311517,1,3,5,17,-6,-1,-2,4
1532068311522,1,47,5,-2,-14,-2,4,-4
1532068311527,-5,-79,-13,30,35,0,-5,-6
1532068311532,3,62,10,-46,-51,-3,-2,5
1532068311537,-8,-67,33,25,9,1,2,-4
1532068311542,-1,-2,-35,25,-6,-6,-9,-1
1532068311547,0,28,25,9,14,4,1,3
1532068311552,1,-10,-4,15,18,6,0,4
1532068311557,1,41,8,5,18,-1,2,2
1532068311562,0,-31,25,-40,-13,3,3,-1
1532068311567,-4,0,-17,-17,-15,-4,-3,-7
1532068311572,2,22,25,7,42,2,-1,0
1532068311577,-4,-7,4,-27,-48,-2,1,5
1532068311582,-2,-8,4,24,17,0,-2,-2
1532068311587,6,22,-1,12,-2,1,3,-1
1532068311592,-3,-15,-14,-7,6,0,1,-4
1532068311597,8,31,-5,-24,3,-1,1,-2
1532068311602,1,-1,-30,17,-2,0,2,1
1532068311607,-2,29,15,-13,-27,-9,-5,7
1532068311612,-12,-76,-4,0,5,1,-3,-11
1532068311617,-1,-16,-41,-37,-7,-4,0,-4
1532068311622,-2,-11,-4,-51,5,-3,0,-1
1532068311627,5,36,-3,12,-40,0,2,4
1532068311632,1,8,20,3,0,-1,-1,3
1532068311637,-6,-8,-2,-7,0,-6,-5,0
1532068311642,1,1,-10,2,-25,-5,-4,0
1532068311647,2,2,26,4,19,4,-1,-4
1532068311652,4,-2,10,5,12,2,3,-2
1532068311657,2,8,-5,13,7,3,-1,-2
1532068311662,-3,-17,-11,-29,-21,-6,-4,1
1532068311667,-1,27,8,-70,3,0,2,1
1532068311672,-6,-36,-34,30,-8,-3,-3,-6
1532068311677,7,13,5,-3,-8,-3,-5,0
1532068311682,-3,9,24,4,17,3,0,0
1532068311687,-2,-11,-15,34,-7,-1,-2,-1
1532068311692,4,9,2,-34,-16,2,0,0
1532068311697,-1,32,11,1,37,2,0,3
1532068311702,-4,-28,-8,16,-22,3,3,0
1532068311707,0,-25,-20,-33,2,-1,-2,-2
1532068311712,2,32,18,32,32,4,3,1
1532068311717,-3,-20,4,38,-28,-4,-1,-5
1532068311722,-7,3,-21,-98,-6,-2,-6,-2
1532068311727,-1,-6,-15,31,4,3,0,1
1532068311732,2,4,-4,-19,1,-4,-2,1
1532068311737,2,9,30,45,26,5,3,0
1532068311742,-3,-7,-11,-9,-13,-7,-3,-1
1532068311747,-1,-5,16,-5,-10,-1,1,2
1532068311752,-1,-2,-31,-18,13,-3,-3,-3
1532068311757,-5,-41,-17,-31,-8,3,-2,-4
1532068311762,4,28,12,45,-5,2,0,2
1532068311767,0,-11,2,-1,9,0,0,-3
1532068311772,8,36,19,17,0,0,2,2
1532068311777,-5,1,-1,-84,-19,-7,-5,2
1532068311782,-7,-8,-11,-21,9,-3,-5,-5
1532068311787,10,8,-2,31,-5,2,13,-5
1532068311792,-1,-4,0,-9,-18,-4,-14,10
1532068311797,3,24,15,22,19,3,5,-1
1532068311802,-2,3,6,8,16,5,4,-3
1532068311807,-6,-21,-4,18,-6,-7,-7,-3
1532068311812,1,-9,-25,-40,-9,0,6,-3
1532068311817,-2,15,11,17,-10,-6,-5,-3
1532068311822,1,-3,-9,12,16,2,0,4
1532068311827,-2,-23,8,8,15,3,1,0
1532068311832,0,-2,-3,37,-4,-3,-1,-8
1532068311837,0,4,-3,-54,-11,-4,-4,-1
1532068311842,5,14,23,39,2,2,15,-2
1532068311847,-7,3,-8,-32,-9,-5,-22,2
1532068311852,10,-3,-2,10,-8,-3,2,-1
1532068311857,2,22,2,36,10,-1,1,1
1532068311862,0,-8,20,3,-7,-2,-2,1
1532068311867,-9,-46,-20,-2,-4,0,3,-9
1532068311872,-3,-8,-20,-21,5,0,-2,1
1532068311877,-1,1,9,14,-2,1,-3,-4
1532068311882,5,9,2,15,0,-3,1,2
1532068311887,3,42,21,12,2,1,3,3
1532068311892,-4,-15,10,-19,0,-2,-2,-3
1532068311897,0,-13,-18,5,-3,0,4,-8
1532068311902,-1,7,-2,5,-3,0,-6,2
1532068311907,1,2,-8,2,3,-2,0,1
1532068311912,-3,12,22,0,7,3,28,8
1532068311917,21,-17,-11,1,-2,-1,-34,-4
1532068311922,0,-8,-14,-6,-3,-2,-3,-4
1532068311927,0,6,1,30,6,3,-2,2
1532068311932,-2,-1,7,-7,0,-1,6,-8
1532068311937,-6,-4,1,16,-3,-1,11,4
1532068311942,-1,5,7,27,1,-1,-5,1
1532068311947,-1,-9,-15,-7,-7,-2,0,-7
1532068311952,0,7,5,34,2,0,1,-5
1532068311957,-7,-7,-5,-25,-1,-3,-14,3
1532068311962,1,13,-6,-8,0,0,-2,-1
1532068311967,-8,-29,6,13,-2,-3,4,-4
1532068311972,-4,-13,-2,2,2,-3,-8,-1
1532068311977,-6,-9,-20,-14,-4,0,6,0
1532068311982,2,-2,1,-15,-4,0,3,-2
1532068311987,6,29,18,-2,0,0,-3,3
1532068311992,-1,1,0,-32,-5,-1,-6,3
1532068311997,-2,-2,4,7,6,1,6,-6
1532068312002,-2,0,-1,5,-3,-3,0,8
1532068312007,0,-2,-8,1,1,0,1,2
1532068312012,-1,5,-7,-22,-3,-2,-11,-1
1532068312017,-5,6,10,36,4,1,6,0
1532068312022,-4,-21,-11,-1,-9,-2,-3,-7
1532068312027,3,11,-15,-1,4,-3,-4,3
1532068312032,-3,13,24,-16,-4,1,-1,1
1532068312037,0,-12,-6,26,2,-1,3,-1
1532068312042,-2,-13,-15,-7,5,2,0,0
1532068312047,2,1,2,-10,7,1,-1,-1
1532068312052,2,20,3,-8,-14,-2,-3,1
1532068312057,-5,-2,16,8,5,5,4,1
1532068312062,0,-6,-4,1,-5,-6,-5,-2
1532068312067,0,20,-3,-21,-7,2,2,-1
1532068312072,-4,-6,-8,2,22,2,-5,-2
1532068312077,-2,-4,-5,-1,-19,0,2,1
1532068312082,0,-4,2,4,2,-1,0,-4
1532068312087,3,1,7,6,32,6,2,-2
1532068312092,-3,4,-7,-3,-40,-10,-4,0
1532068312097,0,-13,-2,-9,12,0,1,2
1532068312102,1,23,10,9,5,3,-1,0
1532068312107,-4,-19,-11,5,3,-1,-1,-3
1532068312112,-1,-8,4,31,22,6,-1,-1
1532068312117,-2,-9,-23,-60,-13,-5,-1,0
1532068312122,-2,15,6,17,3,2,-2,0
1532068312127,-2,-12,8,12,-19,-2,0,2
1532068312132,1,-19,-14,7,6,1,-1,-3
1532068312137,3,18,9,5,-3,0,0,4
1532068312142,-4,-14,10,-8,-2,-1,-1,-1
1532068312147,-2,4,-9,-16,-13,-3,-2,-2
1532068312152,1,9,-4,-13,-6,-1,1,0
1532068312157,-2,26,1,-11,-21,-2,0,0
1532068312162,-4,-46,-12,-12,-4,-2,-2,-6
1532068312167,2,-6,12,11,8,0,1,-1
1532068312172,0,31,4,-10,-3,-1,0,-1
1532068312177,-1,-31,-1,11,7,4,2,-2
1532068312182,1,12,-10,-13,5,-2,-2,-1
1532068312187,-1,5,8,6,-8,-3,0,-2
1532068312192,0,-14,-7,-1,0,-2,-2,-1
1532068312197,3,32,19,4,3,0,-1,2
1532068312202,-6,-27,-7,-34,-1,0,1,-2
1532068312207,-3,3,9,7,-2,0,1,-3
1532068312212,-1,-13,-5,7,-5,2,1,2
1532068312217,-1,-1,-3,-1,4,-3,-5,-2
1532068312222,2,23,-1,7,-11,-1,-1,-2
1532068312227,-2,-21,-8,9,-4,-3,-1,0
1532068312232,1,17,33,18,12,2,2,0
1532068312237,-3,-27,-22,-36,-11,-3,-2,-9
1532068312242,0,2,-11,29,10,0,0,12
1532068312247,1,7,3,-11,3,-1,0,0
1532068312252,0,-1,-7,13,-5,-2,-1,-2
1532068312257,1,-6,1,28,10,0,0,0
1532068312262,-2,14,8,-53,-8,-3,-3,-2
1532068312267,-3,-6,2,23,-5,0,6,-4
1532068312272,-8,-10,-6,11,8,1,-10,5
1532068312277,3,15,-2,-15,-9,-3,0,0
1532068312282,-8,-13,-2,-16,-6,-3,-5,-9
1532068312287,2,2,14,12,-2,-1,-1,2
1532068312292,-8,-16,-23,-18,-9,-2,13,-7
1532068312297,0,6,-3,1,-5,-1,-14,4
1532068312302,8,28,22,9,8,2,1,0
1532068312307,-13,-31,15,7,-4,-2,1,-2
1532068312312,4,-11,-22,-31,-7,-3,-4,-8
1532068312317,0,15,7,4,-3,-1,2,0
1532068312322,1,-28,-4,18,10,4,2,-1
1532068312327,2,33,8,-12,6,1,-6,-1
1532068312332,3,-4,4,6,20,4,2,5
1532068312337,-2,-11,-6,8,-29,-3,3,-1
1532068312342,-5,1,-5,10,1,-2,-3,-4
1532068312347,2,1,-8,-16,0,-1,0,-3
1532068312352,-1,1,13,-7,-3,1,-5,0
1532068312357,-3,0,-10,-14,7,-1,-1,-4
1532068312362,-1,-8,-2,36,2,-1,1,0
1532068312367,1,-6,-19,-36,-9,-4,-1,-2
1532068312372,0,-5,-6,11,-5,-3,-1,0
1532068312377,1,5,7,1,2,0,1,1
1532068312382,0,7,2,-5,-3,-5,-2,-1
1532068312387,3,4,2,30,11,2,-1,1
1532068312392,0,12,1,-9,-6,-1,-1,-1
1532068312397,-5,-30,-2,-3,-6,-3,-2,-3
1532068312402,2,22,2,1,6,1,0,1
1532068312407,-2,-15,5,-3,3,0,0,-1
1532068312412,-1,-13,-19,6,-6,0,-2,-4
1532068312417,0,2,7,9,3,2,3,-1
1532068312422,2,6,6,5,3,3,2,-3
1532068312427,0,17,-2,-7,-9,-1,-4,1
1532068312432,-2,-14,14,11,-2,-2,-2,-1
1532068312437,-5,-12,-23,-22,2,-4,-3,-2
1532068312442,0,4,8,5,5,0,-2,1
1532068312447,0,14,-5,-9,4,0,0,-1
1532068312452,0,-15,-4,-19,-17,-4,1,0
1532068312457,1,20,-8,2,6,2,-7,1
1532068312462,-8,-25,-5,1,-9,-3,0,-2
1532068312467,1,-15,0,19,1,-2,1,-4
1532068312472,1,15,6,-41,4,1,-3,6
1532068312477,0,8,9,-4,-3,-1,5,3
1532068312482,1,3,2,14,-5,-1,-1,-3
1532068312487,-3,-3,-2,4,0,-1,-5,2
1532068312492,-1,1,-8,-5,-3,-2,-1,-6
1532068312497,0,6,4,-7,5,0,1,1
1532068312502,2,4,0,14,0,-2,-3,4
1532068312507,-4,-4,2,-13,-4,-2,3,-1
1532068312512,1,-1,-7,21,4,1,11,-2
1532068312517,-2,-3,-7,-14,-11,-5,-15,-6
1532068312522,0,1,-3,-6,-1,-1,-2,2
1532068312527,-1,4,-2,2,1,0,-2,1
1532068312532,-2,1,6,17,-4,-1,0,-2
1532068312537,1,-5,-4,-14,-2,0,4,1
1532068312542,-1,-5,-6,-9,-4,-3,-2,-1
1532068312547,-1,-2,-6,1,0,-1,0,2
1532068312552,2,6,10,10,4,2,-5,-5
1532068312557,-1,-5,1,16,5,0,3,1
1532068312562,2,3,3,-13,-2,2,0,4
1532068312567,1,8,4,-10,-1,0,2,-6
1532068312572,-3,-12,3,25,1,0,-4,4
1532068312577,-4,-10,-7,-55,-4,-1,15,0
1532068312582,0,0,-1,5,1,0,-18,-5
1532068312587,2,1,-4,-2,-1,0,-1,1
1532068312592,-1,8,6,-1,0,-1,-1,2
1532068312597,0,-1,0,11,0,-1,1,-1
1532068312602,-1,-2,1,-6,3,0,4,-2
1532068312607,-2,-6,-7,-2,-3,0,-2,-3
1532068312612,0,2,-2,-6,2,-2,-5,0
1532068312617,-1,3,5,12,-3,0,0,2
1532068312622,-1,-4,-1,-8,-2,0,2,-3
1532068312627,-1,3,-3,9,-3,-1,-5,-2
1532068312632,-2,3,2,-8,-2,0,4,3
1532068312637,0,-1,-6,-10,-2,-3,-7,-5
1532068312642,-2,1,2,1,0,-1,0,0
1532068312647,-1,-4,-4,-3,0,-1,1,-3
1532068312652,-1,3,1,2,1,1,-5,-2
1532068312657,2,5,-4,16,3,1,4,2
1532068312662,-1,-2,-2,-3,-3,-2,3,1
1532068312667,-3,7,11,-8,-4,-1,-2,-4
1532068312672,-1,-31,-26,-8,-4,-1,3,-4
1532068312677,0,2,15,15,3,1,-4,1
1532068312682,-1,-9,0,-1,0,-2,3,-7
1532068312687,2,3,1,2,1,0,1,-1
1532068312692,-1,16,14,2,-2,-1,-2,3
1532068312697,-1,-3,1,6,3,2,-1,-1
1532068312702,-1,3,-1,1,1,0,-1,-2
1532068312707,-2,-2,-1,-1,-5,-2,-1,4
1532068312712,-1,2,-3,-6,-1,-1,-3,-7
1532068312717,1,-4,-1,2,-1,-1,0,-5
1532068312722,-1,0,1,7,0,0,1,1
1532068312727,-1,-8,-5,-2,-2,-1,2,3
1532068312732,-1,3,1,-3,-1,-2,-3,0
1532068312737,-1,2,2,-2,-1,-1,-3,2
1532068312742,-1,-1,3,-3,-2,-1,3,0
1532068312747,-2,-4,-15,-1,0,-3,-4,-4
1532068312752,-1,-6,8,-1,1,1,-1,-2
1532068312757,-2,2,4,3,0,0,-1,0
1532068312762,-1,7,-5,-6,-7,-4,-3,-1
1532068312767,-1,-4,11,-2,0,0,0,-1
1532068312772,0,17,-3,-8,-2,1,0,-1
1532068312777,-3,-30,-21,4,-1,0,-1,-9
1532068312782,0,-2,4,-2,5,-1,1,2
1532068312787,-1,-11,-6,1,7,0,-2,-2
1532068312792,0,12,2,-7,-11,-4,2,3
1532068312797,-1,6,7,2,-4,-3,-1,-2
1532068312802,0,-4,0,-2,-5,1,-1,1
1532068312807,1,5,-2,5,4,0,1,0
1532068312812,-1,-9,-3,3,4,2,-2,0
1532068312817,0,9,3,2,-3,-1,-2,-4
1532068312822,-2,-10,-16,-6,1,-2,-1,0
1532068312827,-2,3,5,1,-2,0,0,-4
1532068312832,1,-4,0,3,-4,-1,0,-2
1532068312837,0,-5,-8,-7,-1,-2,-2,0
1532068312842,-4,21,-2,4,-1,-3,-1,-2
1532068312847,-2,-39,-15,-4,-9,-1,-2,-1
1532068312852,0,-2,-11,-16,-1,-2,-2,-3
1532068312857,0,4,10,2,4,-1,-1,2
1532068312862,2,0,3,-1,3,1,-1,-2
1532068312867,-1,5,6,-1,0,0,-2,1
1532068312872,0,1,-2,0,-6,-3,-1,1
1532068312877,-1,1,5,-1,0,0,0,3
1532068312882,-3,-17,-14,-4,-1,-1,-1,-3
1532068312887,0,11,-3,-1,-5,-1,-3,-6
1532068312892,-1,-2,-6,5,4,1,15,2
1532068312897,-1,-7,-5,-4,-2,-1,-21,-4
1532068312902,-1,13,4,17,-3,2,3,0
1532068312907,-1,-2,6,-1,2,1,-1,0
1532068312912,0,-4,-13,4,5,0,1,-3
1532068312917,0,-1,-1,3,-5,0,7,0
1532068312922,-2,-1,2,-6,0,-1,-3,-2
1532068312927,-1,4,-1,-1,-1,-3,-2,-1
1532068312932,-2,6,17,-1,-2,0,-5,-3
1532068312937,-2,-9,-12,-1,4,-1,2,1
1532068312942,-1,-5,-7,-8,-4,-2,-4,0
1532068312947,0,6,2,1,-2,0,2,1
1532068312952,1,2,9,0,-1,-2,-5,-1
1532068312957,-2,4,-3,4,0,0,1,0
1532068312962,-1,-8,-1,-2,0,0,2,-1
1532068312967,-1,0,-2,-8,-5,-2,-1,0
1532068312972,0,0,-1,4,1,0,-4,0
1532068312977,-2,1,4,-2,3,0,2,0
1532068312982,-1,-2,5,-5,-1,1,0,-1
1532068312987,2,2,2,2,3,-2,-1,2
1532068312992,-2,-3,-5,-1,-1,-2,-5,-1
1532068312997,-1,10,-6,-6,-7,-1,-1,-1
1532068313002,-1,-22,9,9,4,0,0,4
1532068313007,0,10,-2,-8,-5,-1,-2,0
1532068313012,-6,-13,1,-1,-2,-1,-2,-12
1532068313017,2,-15,-14,6,8,2,3,1
1532068313022,-1,4,-5,-5,-8,-2,0,-2
1532068313027,-2,-11,-5,4,-3,0,-1,0
1532068313032,1,9,10,0,0,1,-1,1
1532068313037,-1,10,8,0,-3,-1,15,2
1532068313042,-1,7,-3,-2,5,-3,-21,-1
1532068313047,-2,-3,2,-5,-2,0,3,0
1532068313052,-1,-5,-7,0,-2,-1,-4,-1
1532068313057,0,5,7,-2,2,-2,-2,-3
1532068313062,-1,-8,2,-8,0,1,3,-1
1532068313067,0,-1,-10,-7,-4,0,-1,-3
1532068313072,0,13,-2,-6,-3,-2,-2,4
1532068313077,-2,1,16,0,-3,-1,-3,-1
1532068313082,-1,-15,0,2,-2,1,4,-3
1532068313087,-3,-5,-20,1,1,0,-5,0
1532068313092,0,-7,-6,3,4,2,2,0
1532068313097,0,13,7,-1,2,0,-4,1
1532068313102,1,14,15,5,-1,-2,2,0
1532068313107,-1,-11,-4,-3,0,1,-1,-1
1532068313112,-1,9,-8,2,4,-2,-2,1
1532068313117,1,5,5,-9,-10,-3,-3,10
1532068313122,-4,1,-12,-5,7,2,3,0
1532068313127,0,15,6,5,4,0,2,2
1532068313132,-1,-26,13,-4,-5,-1,-2,-1
1532068313137,-3,-15,-37,1,2,0,-5,-6
1532068313142,-1,-23,-18,-9,-3,-2,17,-2
1532068313147,-1,14,26,5,-6,-3,-19,-1
1532068313152,-3,12,17,-12,-1,-1,1,-3
1532068313157,-4,-23,3,-4,-3,-2,-1,4
1532068313162,3,14,-5,14,-2,0,0,1
1532068313167,0,-15,5,13,4,0,6,-2
1532068313172,-1,4,3,-6,5,-1,0,0
1532068313177,-3,-1,-10,1,-12,-3,-2,-5
1532068313182,1,3,-10,-4,-4,-2,-5,-3
1532068313187,2,9,12,0,4,3,4,0
1532068313192,-1,-5,-7,15,0,0,-2,1
1532068313197,0,-5,-1,-16,-5,0,2,-3
1532068313202,0,12,9,3,0,1,-4,-2
1532068313207,-2,-13,-13,-2,1,-1,-2,-3
1532068313212,0,-2,1,8,2,-1,3,2
1532068313217,-2,8,17,9,4,0,-3,-4
1532068313222,-1,6,2,-10,-1,0,-2,0
1532068313227,-2,-14,-15,-6,-1,-4,-1,0
1532068313232,-1,-11,-14,-3,9,3,0,-2
1532068313237,1,2,10,3,-14,-2,-3,-4
1532068313242,-1,17,15,-7,-2,-1,-3,2
1532068313247,0,-3,-10,2,-2,0,5,-3
1532068313252,1,-9,-9,-11,-5,-1,-2,-1
1532068313257,-2,-4,-3,5,10,3,1,-1
1532068313262,0,-9,0,0,3,1,-1,-2
1532068313267,0,13,2,4,-6,0,-1,0
1532068313272,-2,-2,2,-24,-6,-4,-2,0
1532068313277,0,1,6,-2,2,2,0,3
1532068313282,1,5,7,6,-1,-1,-3,-3
1532068313287,0,-1,5,-14,2,0,1,-4
1532068313292,-1,-2,-7,15,-2,-2,-2,6
1532068313297,3,15,3,-11,0,-1,3,1
1532068313302,-3,-18,-9,3,1,-2,-3,-1
1532068313307,-1,19,-12,-2,-3,-3,-1,0
1532068313312,-1,-16,-3,-7,-9,-1,-1,-2
1532068313317,1,13,9,5,4,0,1,0
1532068313322,-2,-10,-18,2,6,1,0,-1
1532068313327,2,3,11,-2,-10,0,1,2
1532068313332,1,9,7,0,2,1,0,-2
1532068313337,0,-8,-10,15,1,-1,-2,-3
1532068313342,0,-2,14,-7,-1,1,-1,-2
1532068313347,-3,-8,-14,-12,-1,-3,-2,-6
1532068313352,1,-1,-7,3,5,3,1,-1
1532068313357,-3,6,4,6,-1,-2,-2,-1
1532068313362,1,-5,-1,-28,-2,-2,1,1
1532068313367,-1,14,-1,7,-1,-2,0,0
1532068313372,-1,-1,4,3,-1,-2,-1,-3
1532068313377,-3,-16,-9,-4,2,1,1,0
1532068313382,-4,-10,-14,-6,-6,-1,-3,-3
1532068313387,-1,-3,10,-3,5,0,-1,2
1532068313392,2,18,-5,17,-2,2,-1,-1
1532068313397,-1,3,23,1,1,-1,0,-2
1532068313402,-2,-2,-16,-4,-7,-3,-2,-1
1532068313407,-3,-10,1,-15,-4,-2,-1,0
1532068313412,-2,2,-8,0,1,-3,-3,-2
1532068313417,0,-6,-7,-1,0,0,1,-1
1532068313422,-2,10,10,14,1,0,-1,1
1532068313427,3,1,2,2,7,1,0,-1
1532068313432,-2,-1,6,-6,-1,-3,-2,-2
1532068313437,2,-1,-4,-4,-8,-1,0,-1
1532068313442,-1,12,2,3,2,0,0,-1
1532068313447,0,-27,1,-5,0,3,2,-2
1532068313452,-1,7,-1,-1,4,0,-1,-2
1532068313457,-4,-9,6,4,1,-3,-4,-4
1532068313462,1,0,-1,4,0,1,1,1
1532068313467,2,14,7,-1,-1,0,0,-1
1532068313472,-7,-22,-2,-4,-4,-1,-2,-1
1532068313477,0,15,-8,5,-2,-3,-3,-3
1532068313482,0,5,17,-3,1,1,1,-1
1532068313487,-1,-7,-8,5,-1,0,-1,1
1532068313492,-1,-2,-9,0,-3,-3,-1,2
1532068313497,2,1,13,-1,0,2,1,0
1532068313502,-1,10,14,4,2,-3,0,-2
1532068313507,-2,-13,-8,-10,0,0,1,0
1532068313512,3,9,-1,4,-6,0,-2,0
1532068313517,0,-3,13,-3,2,0,0,2
1532068313522,-4,-6,-19,-1,-8,-4,-3,-3
1532068313527,-1,-8,5,7,6,0,0,2
1532068313532,0,-2,-5,-8,9,-1,2,-3
1532068313537,0,-8,-15,2,-17,-2,-1,2
1532068313542,1,7,1,-8,-3,0,-1,0
1532068313547,-1,-7,2,1,-5,-3,-1,-3
1532068313552,1,10,11,0,-1,-1,-2,-2
1532068313557,-3,0,-13,-5,10,-2,-3,-1
1532068313562,-2,-27,9,-5,1,0,-2,-2
1532068313567,-1,12,-18,5,-7,-3,-1,-2
1532068313572,0,-1,-2,-4,-3,-1,-2,-1
1532068313577,-1,-1,0,-5,-1,0,-2,-2
1532068313582,2,2,5,-1,-5,0,0,0
1532068313587,1,8,4,2,13,1,0,-1
1532068313592,-4,-16,5,-1,-9,-2,0,2
1532068313597,0,-7,-19,-5,-4,-1,0,-2
1532068313602,0,-10,-13,2,-1,-2,-2,1
1532068313607,-7,14,12,3,-5,-2,-3,0
1532068313612,0,0,-6,2,0,-2,-1,-3
1532068313617,-2,-12,-10,-12,4,0,-1,-3
1532068313622,0,2,-3,1,9,2,-1,1
1532068313627,0,6,4,2,-7,0,-2,1
1532068313632,0,-4,6,-1,-2,-1,0,-2
1532068313637,-1,-3,-11,-1,0,-1,0,-2
1532068313642,2,1,28,3,6,3,2,0
1532068313647,-1,-10,-2,-5,-3,0,-1,0
1532068313652,0,6,0,0,1,2,0,-1
1532068313657,2,8,5,3,3,-1,0,2
1532068313662,-1,-6,-9,-5,-3,-3,-1,-4
1532068313667,2,6,-7,5,-1,-1,0,-2
1532068313672,-2,-6,-1,-9,-7,-1,2,1
1532068313677,-2,5,5,-2,1,-1,-3,-2
1532068313682,2,11,-3,-7,-4,-1,0,1
1532068313687,-7,-17,0,-3,-2,-2,-2,-1
1532068313692,-1,8,-17,3,6,0,-2,-2
1532068313697,-3,-16,-2,-6,-6,-2,-1,-3
1532068313702,1,8,-5,0,-4,0,0,-2
1532068313707,0,-11,7,1,4,-1,1,1
1532068313712,-2,-11,1,2,-2,-1,-1,-2
1532068313717,-2,5,4,-1,-2,-2,1,0
1532068313722,-1,4,-4,8,-3,-2,-1,1
1532068313727,2,5,-3,-11,2,0,0,0
1532068313732,0,8,0,0,-6,-2,-1,0
1532068313737,0,-2,2,2,3,2,-1,2
1532068313742,-4,-8,0,0,0,-1,-3,-1
1532068313747,0,-4,-7,-5,-7,0,-1,-2
1532068313752,-1,3,3,1,-1,0,-1,-2
1532068313757,3,10,1,9,0,-1,-2,0
1532068313762,-1,6,12,-7,0,-2,-1,0
1532068313767,-8,-29,-19,-9,-3,-3,-2,-5
1532068313772,0,0,6,0,-1,0,-1,-2
1532068313777,-1,-10,-3,2,1,-3,-1,-1
1532068313782,0,18,5,-8,-2,2,2,1
1532068313787,2,5,7,7,-1,-2,-1,1
1532068313792,-2,12,-5,-2,1,0,-2,-2
1532068313797,-3,-8,4,-1,-1,-1,2,-2
1532068313802,-1,3,-3,6,-4,-4,-2,-1
1532068313807,0,-5,-3,-2,2,2,1,0
1532068313812,-1,3,0,1,-1,-3,0,0
1532068313817,-1,-7,-3,2,0,0,0,-1
1532068313822,0,-12,-12,4,14,-2,-3,-3
1532068313827,1,1,-5,0,-16,0,1,2
1532068313832,0,32,18,-2,5,2,0,4
1532068313837,-5,-30,-20,-9,-7,-1,-3,-5
1532068313842,-2,-17,-16,-2,-9,-2,-1,-2
1532068313847,3,11,9,-1,10,-1,-2,-3
1532068313852,1,-9,4,1,1,0,-1,0
1532068313857,2,26,10,0,-1,1,1,4
1532068313862,-3,-15,0,-5,-1,1,-4,-4
1532068313867,2,8,-2,-5,2,-1,-2,1
1532068313872,-2,-26,-1,11,-2,0,-1,-2
1532068313877,-1,4,-5,-14,0,-3,-2,0
1532068313882,-2,4,1,7,-2,-3,0,0
1532068313887,2,9,2,-12,1,0,2,-4
1532068313892,-11,-2,-4,-3,0,-1,9,5
1532068313897,5,-3,-6,4,-4,-1,-16,-5
1532068313902,2,-4,5,-1,-4,-2,0,-2
1532068313907,-2,11,3,8,2,0,-3,0
1532068313912,3,-4,-1,-8,-2,0,5,4
1532068313917,3,14,21,7,-2,0,1,-9
1532068313922,-14,-30,-17,2,-2,0,-1,-1
1532068313927,-2,-1,-1,1,1,-1,-1,-1
1532068313932,2,2,-4,-12,-3,-1,-4,-4
1532068313937,0,7,0,-5,1,-1,4,7
1532068313942,-1,-2,-2,9,-1,-1,-3,-7
1532068313947,1,-7,-2,-7,-1,-1,7,2
1532068313952,-2,-6,-4,2,0,-2,-9,-2
1532068313957,-2,3,-5,-2,-4,-2,2,-2
1532068313962,2,15,8,2,0,-1,0,1
1532068313967,1,-14,0,8,1,-1,3,-1
1532068313972,1,3,-5,0,-5,-2,-2,-2
1532068313977,-1,-5,0,7,2,0,-1,-1
1532068313982,1,1,-2,-9,-1,1,3,0
1532068313987,1,5,-1,1,-1,-1,-5,5
1532068313992,0,-7,-3,-5,-2,-2,-3,1
1532068313997,-1,-4,-2,-4,1,-1,1,0
1532068314002,1,3,2,1,-2,-1,-5,-2
1532068314007,-1,1,1,-1,-1,-2,-1,9
1532068314012,1,-3,3,2,-1,2,12,1
1532068314017,-5,-4,-10,-4,0,-2,-18,-4
1532068314022,0,3,-1,-8,1,-2,-2,3
1532068314027,-3,1,3,10,1,-2,-2,-2
1532068314032,-1,-6,-12,-17,-7,-1,-3,-7
1532068314037,-3,2,14,7,1,1,7,5
1532068314042,8,2,1,3,0,2,5,4
1532068314047,-3,-6,-2,0,1,0,-8,-8
1532068314052,0,-1,-9,-2,-2,-2,-1,-3
1532068314057,0,0,12,-15,-2,0,1,6
1532068314062,-2,-1,6,-3,-2,0,-1,-1
1532068314067,-10,1,8,5,-1,-2,5,-1
1532068314072,20,-1,-32,-1,3,0,10,-2
1532068314077,-21,-6,0,-1,-5,-4,-18,-3
1532068314082,-3,0,5,1,-1,0,2,-2
1532068314087,4,7,7,1,2,2,-1,2
1532068314092,-5,-8,14,-1,6,-1,-3,1
1532068314097,7,-1,-15,7,-2,-2,8,2
1532068314102,2,1,-1,4,2,0,0,-1
1532068314107,-5,-4,-3,4,-3,-3,-8,-7
1532068314112,-2,0,3,-19,-6,0,-5,-8
1532068314117,7,1,12,4,3,2,5,-7
1532068314122,-4,3,-44,-5,-2,-1,-1,-3
1532068314127,1,-10,4,4,-2,-2,2,-2
1532068314132,-5,2,10,11,-2,-1,-6,3
1532068314137,2,-1,-9,-15,2,-1,3,0
1532068314142,1,1,2,16,-2,-1,4,-1
1532068314147,1,1,-10,-15,0,1,-10,-3
1532068314152,-1,0,2,5,-1,-2,1,2
1532068314157,-2,0,6,-14,-3,0,4,-1
1532068314162,1,-7,7,5,1,0,-3,3
1532068314167,-1,2,0,22,1,-1,4,-4
1532068314172,-5,-6,-8,-17,1,-2,-7,3
1532068314177,2,0,-14,9,1,0,0,2
1532068314182,-1,0,7,-22,-6,-3,-1,0
1532068314187,3,13,10,11,1,-1,0,1
1532068314192,-7,-25,8,13,5,0,-1,0
1532068314197,0,-8,-12,8,-5,-1,1,-5
1532068314202,1,0,-7,-10,1,-2,-1,0
1532068314207,3,23,22,-1,5,3,1,4
1532068314212,-5,-5,23,-3,-5,-2,-1,-5
1532068314217,5,-5,-43,1,1,0,3,-1
1532068314222,-2,4,44,6,2,-2,-2,7
1532068314227,-2,-37,-51,-11,1,-2,11,-8
1532068314232,8,51,25,7,17,3,-11,-2
1532068314237,-7,-50,-4,3,-17,-3,0,-2
1532068314242,3,8,-5,7,-1,0,-1,0
1532068314247,-1,8,-3,-42,-11,-5,-1,0
1532068314252,3,16,8,23,7,0,1,3
1532068314257,0,18,22,29,9,-2,-1,1
1532068314262,1,11,-2,-8,-5,0,0,-4
1532068314267,-4,-26,-9,0,1,0,-3,0
1532068314272,-4,-6,-23,-8,-7,-1,1,1
1532068314277,0,1,17,-2,7,1,6,1
1532068314282,-6,-27,-21,-30,-4,-4,-15,2
1532068314287,-1,5,6,8,-3,-1,-7,-16
1532068314292,-1,-4,-3,-3,-6,-2,4,15
1532068314297,-1,13,6,-3,2,0,-10,-23
1532068314302,-4,7,7,4,5,1,14,-2
1532068314307,1,13,1,-2,0,-3,-14,4
1532068314312,-3,-33,-22,-7,-3,1,-1,-1
1532068314317,1,12,21,-22,-9,-6,3,5
1532068314322,1,1,-10,8,4,6,10,4
1532068314327,0,27,20,3,-5,-3,-4,-4
1532068314332,-6,-23,-9,4,0,-2,2,-7
1532068314337,2,-6,-36,-5,3,2,0,7
1532068314342,-11,-11,14,6,2,-6,-9,-4
1532068314347,3,-2,1,-15,-1,1,3,5
1532068314352,3,21,19,5,-4,2,-2,-1
1532068314357,-1,-2,5,12,-14,-3,-4,0
1532068314362,9,7,-6,0,6,1,1,2
1532068314367,-8,-2,-7,8,3,0,13,-1
1532068314372,-3,-10,-8,-9,-1,-4,-26,-7
1532068314377,2,6,8,-1,6,2,3,2
1532068314382,2,-1,-1,0,-7,0,0,0
1532068314387,4,-5,1,0,2,1,1,5
1532068314392,-5,-6,-13,0,-3,-1,4,-1
1532068314397,3,3,10,1,1,0,19,15
1532068314402,-3,-3,-5,-6,-4,-1,4,-8
1532068314407,12,-20,-47,-1,-3,-1,-30,-13
1532068314412,-15,0,24,20,4,-1,-1,-6
1532068314417,4,5,-8,-15,-6,-3,-12,-3
1532068314422,-9,-17,-15,-5,-2,-2,28,22
1532068314427,6,1,-3,-5,-5,0,-5,-7
1532068314432,-4,15,19,3,-4,-3,-1,-6
1532068314437,2,-1,6,4,6,-1,0,0
1532068314442,9,3,-8,-8,-1,-2,-3,-6
1532068314447,-14,-4,8,-4,1,-1,3,-1
1532068314452,6,0,-17,-9,4,-2,14,1
1532068314457,-8,-1,31,11,-1,-1,-28,-4
1532068314462,3,1,5,-2,-2,2,-2,-4
1532068314467,-40,-6,9,-15,-8,-7,-6,-3
1532068314472,32,3,-6,4,0,-1,-1,0
1532068314477,-4,-17,-43,-13,-2,-3,10,16
1532068314482,7,18,44,-5,1,0,-13,-7
1532068314487,2,3,73,-3,2,1,6,3
1532068314492,-6,11,-4,-11,1,0,7,-1
1532068314497,-5,-5,28,11,0,-3,-1,-10
1532068314502,-4,-3,-16,-2,0,-1,8,6
1532068314507,2,12,-61,-10,-9,-2,-10,-2
1532068314512,4,-3,18,2,2,2,6,1
1532068314517,-4,-4,-7,3,-3,-2,-2,3
1532068314522,3,-1,-16,-6,1,2,5,-3
1532068314527,5,-7,4,5,0,-1,-3,3
1532068314532,-1,2,-21,1,2,1,0,8
1532068314537,-12,-1,-1,4,-1,1,7,4
1532068314542,18,-2,-26,-6,3,1,0,-4
1532068314547,-7,-3,14,7,2,0,0,-5
1532068314552,-29,-8,0,-7,-7,-1,1,6
1532068314557,20,6,3,5,5,1,0,-4
1532068314562,-2,-6,7,-8,-4,-5,-7,20
1532068314567,-7,9,-24,-4,-2,0,-10,-11
1532068314572,-10,-13,-2,-1,0,1,2,-5
1532068314577,-15,5,-3,14,-12,-7,-2,0
1532068314582,-9,-1,-22,-4,-2,0,-8,-18
1532068314587,-1,-23,-57,-3,2,0,4,-3
1532068314592,6,3,51,-2,3,2,6,7
1532068314597,-3,-2,-24,-5,3,0,4,1
1532068314602,-1,4,10,0,-2,-2,-9,-3
1532068314607,0,-1,7,-5,0,-2,3,1
1532068314612,7,7,-32,6,-2,-2,-3,-8
1532068314617,2,-1,10,-8,-4,-2,-2,7
1532068314622,-8,-3,-4,6,1,-1,-2,0
1532068314627,6,3,16,4,4,2,-2,3
1532068314632,6,4,-17,-13,-4,-3,0,-4
1532068314637,-11,-2,68,4,1,1,5,5
1532068314642,18,-3,2,-1,0,0,-7,3
1532068314647,3,1,11,4,-2,-2,3,3
1532068314652,-6,-3,-11,0,-1,-1,-7,-15
1532068314657,-6,-4,-21,-4,1,1,3,2
1532068314662,1,2,-5,-2,-2,-1,-2,-1
1532068314667,9,-4,13,4,-1,1,0,4
1532068314672,1,1,2,-3,-1,-1,2,3
1532068314677,0,5,-9,-2,1,0,0,0
1532068314682,-6,-9,-3,2,-1,-1,0,-2
1532068314687,1,-2,20,-2,-3,-2,3,6
1532068314692,-2,8,-14,-2,3,-1,-1,-2
1532068314697,-3,-11,24,3,-1,0,-3,-1
1532068314702,-5,1,3,-1,-3,-1,2,-5
1532068314707,-2,4,-12,-2,0,-1,-2,-5
1532068314712,7,-8,-3,0,-2,-2,1,1
1532068314717,-1,1,-8,0,2,2,1,-2
1532068314722,-2,-5,4,-2,-5,-2,-1,1
1532068314727,-3,1,4,-2,1,0,-4,-8
1532068314732,-6,0,4,0,-4,-2,11,2
1532068314737,13,4,-11,-4,-1,0,-3,9
1532068314742,-8,-3,-3,-1,1,0,-14,-3
1532068314747,1,-3,-8,0,-1,-1,-1,2
1532068314752,-3,-1,3,-5,-1,0,3,-3
1532068314757,-7,-3,-5,7,-2,-3,5,-2
1532068314762,4,6,-1,0,1,-1,1,1
1532068314767,0,-2,7,-8,-2,0,-2,2
1532068314772,3,2,1,9,0,-1,-1,2
1532068314777,-7,-2,0,-16,1,-1,-4,-7
1532068314782,-1,1,-1,4,-3,-2,-1,-1
1532068314787,-1,-4,-2,-1,-2,-1,-1,-4
1532068314792,-1,2,-6,-1,-1,-1,-3,0
1532068314797,3,-1,1,1,-1,-1,-4,1
1532068314802,-5,-5,-3,-1,-3,-2,2,-1
1532068314807,-3,0,-2,0,1,0,3,0
1532068314812,5,2,3,1,1,-1,-3,1
1532068314817,-5,6,-1,0,-4,0,-3,-3
1532068314822,-2,-13,-4,-5,-2,-1,2,-1
1532068314827,4,0,2,-5,2,0,1,3
1532068314832,-2,1,-7,4,-6,-4,-6,-1
1532068314837,-3,-5,-1,-1,-2,-2,-4,-7
1532068314842,0,3,3,-2,2,1,16,10
1532068314847,0,1,-3,-1,-1,-4,-25,-6
1532068314852,2,0,3,-7,-1,1,17,-1
1532068314857,-3,3,-3,14,2,0,-16,-1
1532068314862,4,1,0,-8,-5,-1,8,-2
1532068314867,2,-3,-22,-1,-1,-2,-15,-2
1532068314872,-29,-1,-3,-7,-2,-2,-15,-13
1532068314877,-3,-11,-10,5,1,-1,8,-2
1532068314882,-3,-9,-35,-1,1,0,-2,-7
1532068314887,-12,-1,12,-2,-2,-1,8,-1
1532068314892,15,3,-3,1,2,1,-1,9
1532068314897,0,-2,6,5,1,0,4,2
1532068314902,7,0,7,1,10,-3,-3,-1
1532068314907,-8,-2,-6,-12,-28,-7,-5,-6
1532068314912,-2,3,7,4,5,0,-4,3
1532068314917,-3,-3,-2,-3,-4,-1,7,-1
1532068314922,-1,-2,-4,0,1,-1,-15,-10
1532068314927,1,2,1,-2,8,-1,0,-6
1532068314932,-2,1,5,3,-1,-1,-4,-2
1532068314937,0,-1,0,1,-4,-2,1,-3
1532068314942,1,0,2,-1,-1,1,4,1
1532068314947,3,0,3,0,3,1,4,4
1532068314952,0,2,6,-3,-4,0,-3,-2
1532068314957,1,5,1,2,2,0,-4,-2
1532068314962,-4,-11,3,-1,-5,-2,7,9
1532068314967,0,1,0,-1,0,0,-9,-1
1532068314972,2,-4,-2,-1,0,0,35,21
1532068314977,3,7,-8,1,2,-3,-42,-23
1532068314982,-2,-12,-2,0,-2,0,1,9
1532068314987,0,4,-1,-2,3,0,1,-12
1532068314992,-2,1,9,0,-1,-1,-4,-4
1532068314997,-1,-2,2,0,-1,0,18,7
1532068315002,-1,3,2,-2,-3,0,-8,-1
1532068315007,3,4,0,0,3,-1,0,3
1532068315012,-1,-4,-5,-4,-4,-3,-10,-5
1532068315017,-3,-4,-1,2,1,-1,5,0
1532068315022,2,3,-2,0,-1,-1,-1,0
1532068315027,-2,-2,-2,-1,3,0,8,3
1532068315032,-2,0,3,-1,-2,-2,-9,-12
1532068315037,1,-5,1,-1,-1,-1,3,9
1532068315042,-1,-1,-2,-2,0,-1,5,0
1532068315047,-1,2,-1,-1,-3,0,-2,2
1532068315052,2,2,3,0,0,0,-6,-4
1532068315057,2,-6,2,-2,1,1,16,2
1532068315062,-2,8,-2,-2,0,0,-25,-10
1532068315067,-2,1,0,0,0,0,2,2
1532068315072,-2,1,-4,-1,1,0,-5,-3
1532068315077,-1,3,1,0,-1,-1,4,3
1532068315082,0,-2,1,-2,-4,0,7,-3
1532068315087,-2,-10,-7,-2,-3,-2,-3,2
1532068315092,3,0,-3,-1,0,-1,-3,4
1532068315097,-2,-3,0,-2,-1,-3,-1,-2
1532068315102,-3,7,5,-1,-3,1,3,-3
1532068315107,2,7,-3,-2,1,-1,-3,-3
1532068315112,-1,-3,-1,0,-1,0,0,-2
1532068315117,-4,-4,2,1,-3,-1,-3,5
1532068315122,0,-4,-4,-1,-2,-1,2,-1
1532068315127,1,3,0,1,-1,-1,4,3
1532068315132,-4,-7,-15,-2,-1,-1,-4,-6
1532068315137,-3,-2,-22,-5,-2,-1,-4,-5
1532068315142,-5,-8,-3,1,-1,-1,1,-1
1532068315147,2,-3,1,0,-1,-1,1,-3
1532068315152,-3,4,8,0,-1,-2,-1,2
1532068315157,-1,0,-2,-4,-3,-1,-3,-3
1532068315162,0,-2,-3,1,-2,-2,3,2
1532068315167,-1,2,-1,-1,-2,-2,-3,-2
1532068315172,-2,-12,-7,-1,-3,-2,-4,-2
1532068315177,0,-7,1,0,-2,0,0,-1
1532068315182,-3,1,1,-1,-3,0,-1,0
1532068315187,-1,-1,5,-1,-2,0,-3,-2
1532068315192,3,5,3,-1,-1,-2,0,7
1532068315197,0,-1,4,1,0,-1,0,-6
1532068315202,3,2,2,-1,-4,0,1,1
1532068315207,-1,-7,-4,-2,0,-1,-2,3
1532068315212,0,-1,-1,1,0,1,-2,-2
1532068315217,3,2,1,-2,-1,-2,-2,-2
1532068315222,0,-1,-1,-3,-2,-1,0,-2
1532068315227,-3,-1,-5,-1,1,-3,-1,3
1532068315232,-1,-5,13,3,2,2,1,-3
1532068315237,1,3,2,-2,-4,0,-1,0
1532068315242,-6,-4,-3,-1,0,-2,-3,-5
1532068315247,2,-3,-1,2,-2,2,3,1
1532068315252,2,7,4,-3,-2,1,-1,1
1532068315257,-3,-12,-3,0,0,-2,0,-2
1532068315262,0,6,-2,-1,0,-1,0,0
1532068315267,-3,-2,0,-3,-3,-1,-3,-5
1532068315272,0,6,-11,-1,0,-2,-3,-5
1532068315277,1,2,13,3,1,0,-2,2
1532068315282,1,-4,-3,-1,-1,0,-1,0
1532068315287,0,-1,-1,-5,-2,-2,-1,-1
1532068315292,-3,-4,-1,0,0,1,-1,-2
1532068315297,-2,2,-7,-2,0,-2,-2,9
1532068315302,2,-2,0,1,-1,-1,2,-3
1532068315307,-3,7,12,-3,-1,-2,-3,-1
1532068315312,0,-3,0,-1,-1,0,11,1
1532068315317,-3,5,-2,-4,-4,-3,-18,-6
1532068315322,-2,-2,8,2,3,2,1,-1
1532068315327,0,-1,-6,0,-1,1,3,0
1532068315332,-2,1,-1,-1,0,-1,-2,1
1532068315337,1,1,2,-1,0,0,7,1
1532068315342,-1,0,-12,-2,1,-2,0,1
1532068315347,-2,-3,-3,1,0,-1,-5,0
1532068315352,4,-2,10,0,-2,0,0,0
1532068315357,-3,-2,5,-3,-1,2,0,0
1532068315362,0,1,0,2,0,-1,-2,0
1532068315367,5,-9,4,1,-2,0,3,4
1532068315372,-2,2,0,0,-2,-2,-3,-4
1532068315377,0,-4,-7,1,2,-1,0,-1
1532068315382,-2,2,13,-2,-1,-1,-2,2
1532068315387,-2,3,0,-1,-1,-1,0,-5
1532068315392,0,-2,-5,-1,0,0,-1,6
1532068315397,-2,-4,-1,1,-1,-1,2,-2
1532068315402,2,3,-7,-3,0,0,1,-3
1532068315407,-2,-5,-1,0,-1,-1,-1,-5
1532068315412,-1,0,-1,-1,0,0,-2,-2
1532068315417,3,5,0,-1,-3,-3,-1,-3
1532068315422,-3,-8,0,1,4,0,0,0
1532068315427,-4,5,-2,0,-2,-1,-4,-1
1532068315432,0,4,-5,0,0,0,3,-1
1532068315437,1,-19,1,1,-2,-1,2,-4
1532068315442,2,4,-7,-2,-3,-1,-1,5
1532068315447,-1,1,3,1,2,1,2,-2
1532068315452,-1,-4,3,-3,-3,-1,-3,-2
1532068315457,-1,8,1,0,1,-1,1,-3
1532068315462,2,-3,2,-2,0,-1,-1,-1
1532068315467,-3,0,8,0,-3,-1,-1,0
1532068315472,0,5,-2,-2,-3,-2,-3,-4
1532068315477,0,-1,-4,1,1,-2,-2,-1
1532068315482,1,-4,-1,0,0,1,3,2
1532068315487,-1,2,-4,-1,-2,-2,1,4
1532068315492,-1,-5,-3,0,-1,-1,-2,-1
1532068315497,-3,7,1,-1,0,-1,-1,6
1532068315502,-2,2,-2,-2,-3,-1,0,-3
1532068315507,1,-4,-2,0,-1,-1,-1,-3
1532068315512,-2,2,2,1,-2,-1,3,-3
1532068315517,-3,-7,0,-1,-1,1,-2,7
1532068315522,-2,0,-4,-1,-5,-2,1,-2
1532068315527,-1,5,-3,-3,1,0,-2,3
1532068315532,-1,-1,0,-2,1,0,5,3
1532068315537,-3,-9,-1,1,-1,1,1,-3
1532068315542,0,3,0,0,1,1,-2,-1
1532068315547,-1,-4,1,1,-1,-2,0,-11
1532068315552,-1,2,-4,-1,0,0,-2,11
1532068315557,5,6,-2,-2,-2,-1,0,-5
1532068315562,0,-8,-3,-1,-3,-2,-2,-1
1532068315567,1,0,5,-1,-1,1,-1,0
1532068315572,0,-1,2,0,-1,-1,-2,-1
1532068315577,-4,-1,-1,0,-3,0,-3,-4
1532068315582,0,-1,-3,0,-1,-1,14,2
1532068315587,2,-4,-2,0,-1,1,-16,4
1532068315592,-1,-3,-2,-1,-1,-2,-3,-4
1532068315597,0,1,-9,-3,1,-1,1,2
1532068315602,-1,-6,5,-1,-3,-2,1,-4
1532068315607,-2,0,-2,0,-1,0,3,-1
1532068315612,-4,-3,-3,-1,-2,-2,-3,-1
1532068315617,1,-4,-2,-1,-2,-2,0,-4
1532068315622,-1,4,0,-1,-2,0,-6,-5
1532068315627,-1,-4,-13,-1,2,-3,-1,8
1532068315632,-1,-1,8,2,-1,-1,-3,-4
1532068315637,2,8,0,-1,-1,-1,2,1
1532068315642,-1,-3,1,1,2,0,-3,-1
1532068315647,-3,-4,-5,-2,-3,-2,1,-2
1532068315652,0,6,-1,-2,0,-1,-3,-7
1532068315657,-3,0,1,-1,0,0,0,2
1532068315662,-3,2,2,1,0,-2,-7,-1
1532068315667,-1,4,4,-2,-1,0,1,-3
1532068315672,1,-12,-2,1,0,0,3,2
1532068315677,-2,1,1,0,0,0,-4,-1
1532068315682,-4,-4,-4,-2,-3,-3,0,-2
1532068315687,4,6,-28,-4,-1,-2,1,0
1532068315692,-2,0,3,-1,1,0,-4,-1
1532068315697,-1,-9,5,-1,0,0,3,-2
1532068315702,1,-1,0,0,0,0,-1,-1
1532068315707,-3,2,3,-1,-1,-2,2,6
1532068315712,1,-10,10,0,0,-1,-1,0
1532068315717,1,3,-2,-2,0,-1,-1,-2
1532068315722,-1,0,0,-1,-1,1,-1,2
1532068315727,-1,0,7,0,0,0,-4,-2
1532068315732,1,8,-4,0,-2,-1,-1,0
1532068315737,-3,-16,3,-2,-1,-1,-1,-1
1532068315742,-3,2,-1,1,2,-1,-4,-3
1532068315747,2,-2,2,0,0,1,3,-2
1532068315752,-2,0,-4,-3,0,-1,-6,-4
1532068315757,-2,4,-4,0,-2,-1,-1,-1
1532068315762,1,1,-6,-1,-2,-1,0,5
1532068315767,0,-13,8,1,-2,1,-1,1
1532068315772,0,3,-2,-2,-1,-1,3,-1
1532068315777,3,6,-5,-1,-1,-1,-1,1
1532068315782,-4,-7,-2,-2,-4,-1,-5,-1
1532068315787,-1,1,5,1,-1,0,2,-5
1532068315792,1,-3,-4,-1,1,0,-2,4
1532068315797,0,1,-1,0,1,-2,-2,-3
1532068315802,0,-2,1,-1,-2,-1,-1,0
1532068315807,0,0,0,0,-2,-1,-2,2
1532068315812,-1,0,-9,-2,0,-2,-4,-5
1532068315817,-1,-6,4,0,-3,1,0,5
1532068315822,2,6,0,-1,0,-1,1,-2
1532068315827,-5,-7,3,-1,0,-1,0,-7
1532068315832,0,-1,-4,-2,-3,0,15,5
1532068315837,-2,3,-6,-1,-1,-2,-20,-4
1532068315842,0,3,12,-1,-1,-3,-3,-3
1532068315847,-1,-2,-2,-2,-1,0,0,-1
1532068315852,-3,5,2,-1,-3,0,-1,-3
1532068315857,2,0,9,1,-3,-1,6,2
1532068315862,-1,-22,-5,0,0,0,-1,-3
1532068315867,-1,4,-1,-2,-3,-2,-4,3
1532068315872,-4,-9,0,1,-1,-1,-3,-6
1532068315877,-3,4,-10,-1,-1,-1,0,0
1532068315882,1,0,-7,-2,0,-1,-3,-1
1532068315887,-3,-3,3,1,1,-1,4,3
1532068315892,1,-1,-6,0,1,-1,-5,-2
1532068315897,-1,-1,0,-2,-1,0,0,-1
1532068315902,-1,2,3,-1,-1,-2,3,-9
1532068315907,-1,1,-1,0,0,0,0,4
1532068315912,1,2,1,-3,-1,-1,-4,-4
1532068315917,0,0,1,-1,-1,0,2,-2
1532068315922,-1,1,-2,0,-2,0,0,1
1532068315927,0,1,-5,-1,0,-2,-1,-6
1532068315932,-2,-3,2,1,-3,-2,-3,0
1532068315937,0,-3,-1,-1,-1,-1,4,2
1532068315942,-8,0,-7,-2,0,-2,5,2
1532068315947,2,3,-10,-1,0,-1,-12,-6
1532068315952,-1,-2,0,-1,-2,1,1,-1
1532068315957,-3,2,0,0,0,-1,-3,1
1532068315962,-12,0,-2,-1,-1,1,2,-5
1532068315967,-4,3,-12,-3,-4,-4,0,0
1532068315972,19,-15,4,2,0,0,0,-2
1532068315977,-10,0,-1,2,0,-1,3,0
1532068315982,1,1,2,-1,-1,0,-6,1
1532068315987,-1,-13,-25,0,-1,-1,0,-3
1532068315992,-3,0,1,1,1,-1,-2,-3
1532068315997,1,-3,-3,-4,0,-1,6,-4
1532068316002,-5,-4,-4,-1,-1,-1,-17,4
1532068316007,3,-2,-7,-3,-3,1,-1,-6
1532068316012,4,3,24,4,-1,0,2,-1
1532068316017,-7,1,1,-2,0,0,3,3
1532068316022,9,-3,0,-2,-3,-3,-7,-2
1532068316027,-15,0,9,0,0,-2,-1,-5
1532068316032,3,-3,-10,-3,-1,-1,0,2
1532068316037,-1,6,3,1,-1,0,-2,0
1532068316042,0,-6,-9,1,-2,0,3,0
1532068316047,4,0,-2,-6,0,-1,-1,7
1532068316052,4,8,-11,-3,0,-3,1,-2
1532068316057,-5,-9,26,6,0,-2,-1,-3
1532068316062,-7,9,-25,-12,-1,0,-2,-3
1532068316067,0,-1,-24,-1,-2,-3,-4,-4
1532068316072,-1,-11,11,0,-3,-1,0,0
1532068316077,6,6,0,0,1,-2,3,-1
1532068316082,-10,-8,4,1,0,-2,-4,-2
1532068316087,2,1,-8,1,0,0,-1,-3
1532068316092,4,0,12,-1,-1,1,20,-3
1532068316097,-4,5,-19,-2,1,1,-20,-5
1532068316102,-6,-7,33,4,-2,-3,-1,3
1532068316107,0,-2,8,-1,-2,1,-2,-1
1532068316112,-1,5,-9,-1,-1,-2,-1,0
1532068316117,-2,-7,1,-1,0,0,5,-1
1532068316122,-4,-1,-6,-1,-1,-1,-1,0
1532068316127,7,1,24,0,-1,0,-1,-4
1532068316132,-7,-1,-12,-1,0,0,-3,10
1532068316137,-1,-6,2,-2,-1,0,2,1
1532068316142,-1,4,-5,-3,-1,1,-2,0
1532068316147,-4,6,3,5,2,-1,1,-1
1532068316152,2,-18,-11,-8,-3,0,-3,0
1532068316157,-5,-18,20,0,0,-1,2,-4
1532068316162,0,2,-1,0,0,1,1,-8
1532068316167,-1,-3,-3,-2,-2,0,-2,11
1532068316172,2,12,-3,0,0,0,-3,-2
1532068316177,3,2,1,-3,-3,-1,2,2
1532068316182,-1,-1,-7,-1,1,-2,-1,-3
1532068316187,1,6,-5,1,0,-1,-1,-2
1532068316192,4,0,9,2,-2,1,-2,5
1532068316197,-3,-6,-5,-3,-1,-2,2,-2
1532068316202,4,6,-4,0,0,-2,3,7
1532068316207,0,-5,0,-1,-3,-1,-14,-11
1532068316212,-1,0,-1,-1,0,1,1,1
1532068316217,0,2,-5,-1,1,0,2,-3
1532068316222,-5,1,7,-1,-2,-1,-3,-5
1532068316227,1,0,-4,-5,0,-1,4,0
1532068316232,-2,-6,6,7,0,-3,-3,-3
1532068316237,1,1,-9,-6,-4,-2,-4,-3
1532068316242,-2,-1,6,0,-1,0,1,1
1532068316247,-2,-4,-1,0,-1,-1,2,2
1532068316252,0,5,0,0,0,-1,-5,1
1532068316257,-4,3,-1,1,-1,-1,1,1
1532068316262,-1,-4,-8,-1,0,0,0,2
1532068316267,1,-2,1,0,-1,-1,2,-1
1532068316272,3,3,-2,-1,-2,1,-3,-3
1532068316277,2,3,5,1,-1,0,1,1
1532068316282,-5,-2,-5,-2,-1,-2,-2,-2
1532068316287,-1,-4,4,0,-1,-1,0,1
1532068316292,0,0,-3,-3,1,0,1,-1
1532068316297,-1,1,-1,-1,0,0,-1,0
1532068316302,-2,2,-1,-1,-1,-1,-2,-2
1532068316307,-1,1,-2,-4,-3,-3,1,0
1532068316312,-1,-1,1,-1,-2,-2,-3,-3
1532068316317,-1,2,-1,-1,-1,-2,-1,1
1532068316322,-2,-3,-1,-1,-2,0,-2,-1
1532068316327,-1,-1,-1,-1,-1,0,-1,-3
1532068316332,-5,-1,-5,-2,-1,-1,-3,1
1532068316337,-1,-2,3,1,-1,-1,-2,-2
1532068316342,-1,2,-1,-1,-1,-1,-1,-1
1532068316347,-2,-2,-3,1,1,-1,-2,-3
1532068316352,-1,-1,-1,-1,-2,0,-2,0
1532068316357,-1,-1,1,-1,-1,-1,-1,0
1532068316362,-2,1,-2,-2,-1,0,1,2
1532068316367,1,-2,2,2,0,0,1,1
1532068316372,0,-2,-2,-2,-3,-2,0,-6
1532068316377,-2,0,2,1,-2,0,-2,-1
1532068316382,0,-3,-5,-1,0,-1,-1,0
1532068316387,0,-2,-1,-1,-1,0,-1,1
1532068316392,0,0,-4,-1,0,-1,1,-2
1532068316397,-3,-2,1,1,0,-1,-2,0
1532068316402,1,4,4,-1,-1,-2,-3,-3
1532068316407,-3,-2,3,0,-2,1,-1,0
1532068316412,1,-1,1,0,0,0,0,2
1532068316417,0,-2,-3,-3,-2,-1,0,-1
1532068316422,0,-3,0,-1,-2,1,1,0
1532068316427,-2,5,-1,-1,-1,-3,-2,0
1532068316432,-2,-3,3,-3,-2,-2,0,-1
1532068316437,0,-3,-6,-1,-2,-1,0,-3
1532068316442,-1,0,1,0,1,-1,0,-1
1532068316447,0,-3,-5,-1,0,-2,-2,-1
1532068316452,-3,0,-1,1,0,0,-1,0
1532068316457,2,3,5,-1,-2,1,1,0
1532068316462,-2,-2,-3,-1,0,0,0,-2
1532068316467,-3,-3,0,-2,-1,-2,-1,-2
1532068316472,0,1,4,2,-2,-2,-1,-4
1532068316477,-1,-1,-1,0,-1,-1,-3,3
1532068316482,1,-1,-4,0,1,-1,-2,-4
1532068316487,1,-3,0,0,-1,1,2,1
1532068316492,-1,-2,-1,-2,-1,-1,1,0
1532068316497,0,-3,-5,-1,-1,-1,-1,-1
1532068316502,-2,-2,-1,0,-1,-1,-1,0
1532068316507,2,-1,0,-3,0,-1,-1,-1
1532068316512,1,-2,-2,-1,2,0,-2,-2
1532068316517,0,1,-2,0,0,-2,-1,-2
1532068316522,-4,-2,2,-1,-2,0,1,2
1532068316527,1,0,0,-1,-1,0,2,-1
1532068316532,-5,-2,-3,-2,-3,-1,-3,-4
1532068316537,3,0,1,-2,-2,-2,-2,-6
1532068316542,1,4,2,-1,-1,-1,0,0
1532068316547,-2,-6,-8,0,0,0,0,0
1532068316552,-1,0,-3,0,-1,0,-3,-5
1532068316557,-5,1,2,-2,0,-1,-1,3
1532068316562,0,-3,-2,0,0,-1,-2,0
1532068316567,-1,0,-1,-3,-2,-1,0,0
1532068316572,1,1,-1,-1,-2,-1,1,1
1532068316577,1,-4,1,-1,-1,-1,-1,-2
1532068316582,-3,-2,-2,0,-1,-1,-1,-1
1532068316587,-1,-2,-1,0,-2,-1,0,5
1532068316592,1,0,-2,1,1,-1,-1,-2
1532068316597,-4,2,-1,-2,-1,-2,-3,-2
1532068316602,0,-2,-2,0,-3,-1,1,-2
1532068316607,0,0,6,2,-2,-2,0,-3
1532068316612,-3,-3,-3,-1,-1,0,0,-1
1532068316617,1,1,-1,0,1,0,-1,-8
1532068316622,0,1,-1,-1,-1,0,-2,-3
1532068316627,0,-1,0,-2,0,1,1,5
1532068316632,1,1,0,-1,-1,-1,-1,0
1532068316637,-2,-1,0,-1,-2,-2,-1,2
1532068316642,-1,-3,-1,0,-1,0,1,0
1532068316647,-1,3,-2,0,-1,0,-2,-2
1532068316652,-4,-4,-1,0,-2,0,0,3
1532068316657,3,-1,-1,0,-1,0,1,2
1532068316662,-1,0,-3,0,-1,-2,-1,0
1532068316667,-1,-1,1,0,0,-3,-2,-3
1532068316672,-3,-3,1,-2,-1,-1,1,-1
1532068316677,1,0,1,1,-2,-2,0,0
1532068316682,-1,-1,0,-4,0,-1,-2,-1
1532068316687,-2,0,0,-2,-2,-2,-1,-9
1532068316692,-2,-1,0,-2,-3,0,1,3
1532068316697,0,3,-1,-1,1,0,1,4
1532068316702,0,-2,-1,-1,-2,-1,-1,-2
1532068316707,0,1,0,0,-2,0,-2,-1
1532068316712,0,0,-5,-3,1,-1,-2,-2
1532068316717,-2,0,5,1,0,0,-1,1
1532068316722,5,-1,3,1,-1,0,3,8
1532068316727,-3,-2,-1,-2,-1,-3,-3,0
1532068316732,1,1,-1,2,0,0,1,0
1532068316737,-1,-2,-1,-1,-2,1,0,-3
1532068316742,-3,0,1,0,0,1,0,-2
1532068316747,0,-2,-3,-1,0,0,0,-1
1532068316752,1,1,0,0,-3,-2,-2,-2
1532068316757,-6,-5,-13,-4,-1,-2,-2,-5
1532068316762,-3,-3,-2,2,2,0,1,2
1532068316767,0,-1,-2,0,-2,-1,-3,2
1532068316772,0,-2,3,-2,-1,-1,-2,-10
1532068316777,-2,1,-2,-1,0,0,-1,2
1532068316782,-2,0,-3,-1,-1,1,-3,-2
1532068316787,-1,-3,1,-1,-2,2,1,-1
1532068316792,-1,2,-10,-5,-1,-2,-1,-7
1532068316797,0,-4,0,3,0,-1,-1,1
1532068316802,-2,0,0,-2,-4,-1,-2,-1
1532068316807,-7,-3,0,0,0,-2,-2,-8
1532068316812,1,-1,-1,1,0,0,0,1
1532068316817,-1,-2,0,1,0,-1,0,-1
1532068316822,1,-2,-1,-2,-1,0,0,-1
1532068316827,1,0,-2,-1,2,-1,1,2
1532068316832,-2,-4,0,1,-1,0,0,3
1532068316837,1,-2,2,-3,-1,0,-1,-1
1532068316842,-2,-4,1,1,-2,-1,-2,-3
1532068316847,-2,3,-4,-1,1,-1,0,4
1532068316852,-1,-1,4,0,0,0,-2,0
1532068316857,3,0,2,-1,0,0,2,5
1532068316862,-3,-3,-4,-1,-1,-2,-4,-5
1532068316867,1,-1,0,-1,-1,0,-1,-2
1532068316872,2,-1,0,0,-1,-1,0,2
1532068316877,0,4,3,0,1,0,0,-3
1532068316882,-6,-4,-1,0,0,-2,-2,-1
1532068316887,3,0,-2,-1,-1,0,0,1
1532068316892,-9,-1,-1,0,-1,-4,-3,-7
1532068316897,-2,-1,-3,-2,-2,-1,-1,-2
1532068316902,2,1,3,-1,-1,-1,1,-1
1532068316907,1,0,0,0,-1,0,-2,-2
1532068316912,-3,-2,-4,0,0,0,-2,-1
1532068316917,-1,-1,-3,-1,1,0,-1,-1
1532068316922,0,1,1,-1,-1,-1,2,0
1532068316927,-1,-2,1,1,1,-1,0,0
1532068316932,4,5,1,-1,0,-1,1,2
1532068316937,-2,-2,1,-1,-4,-1,-1,0
1532068316942,1,-2,-2,-2,-1,1,-2,-2
1532068316947,-2,-3,-2,-2,0,-1,0,-2
1532068316952,0,-1,3,0,-2,-1,-2,0
1532068316957,2,-1,2,0,-1,-1,0,1
1532068316962,-2,2,-6,-2,-2,-3,-1,-4
1532068316967,-3,0,0,-2,-2,-1,0,3
1532068316972,1,-1,-3,-1,1,2,1,2
1532068316977,-1,-2,-2,0,0,0,-2,-5
1532068316982,0,-1,0,-1,0,-1,1,1
1532068316987,1,1,2,-1,-2,-1,-1,-3
1532068316992,-2,0,-1,-3,-3,-1,0,0
1532068316997,-3,-2,-1,-1,0,-1,-1,0
1532068317002,1,1,0,2,0,0,-1,0
1532068317007,0,-3,-1,-2,0,-1,0,-3
1532068317012,0,-1,3,2,2,-1,0,0
1532068317017,-3,-2,-1,0,-1,1,-1,-2
1532068317022,1,-2,1,0,-2,0,-1,0
1532068317027,-2,0,-2,0,-1,-2,-1,-3
1532068317032,1,-1,-3,-1,-3,-1,-2,-1
1532068317037,-3,-2,1,1,-1,-2,2,-2
1532068317042,1,2,0,0,2,0,0,-1
1532068317047,7,2,-2,0,0,-1,-2,1
1532068317052,0,-2,-1,0,-1,-3,-2,-5
1532068317057,1,0,-3,-1,-1,-1,-1,2
1532068317062,-2,0,-2,0,0,0,-3,0
1532068317067,-3,-2,1,-2,-1,0,-1,-5
1532068317072,2,0,2,0,0,0,2,1
1532068317077,2,0,-5,-1,1,0,-2,-2
1532068317082,-3,-2,-1,1,-3,-1,1,-2
1532068317087,0,-1,0,-1,-1,-1,-1,1
1532068317092,-3,-2,1,0,-2,-1,-1,-2
1532068317097,-3,-1,0,0,-1,-1,-1,5
1532068317102,0,-3,-4,-4,-1,-3,-1,1
1532068317107,-3,-2,-1,0,-2,0,-1,-2
1532068317112,1,-2,-5,-1,-1,-1,-1,-1
1532068317117,2,1,-2,-1,0,-1,-2,-2
1532068317122,0,2,1,-1,-2,-1,0,-1
1532068317127,4,-1,-5,1,0,-1,-2,2
1532068317132,0,-1,-1,-1,2,-2,-1,4
1532068317137,-3,-3,-2,-2,-2,-2,0,-3
1532068317142,-2,0,-1,-2,0,-1,0,-1
1532068317147,-3,-1,-1,-1,0,-2,-2,-2
1532068317152,-2,-3,0,-2,-2,-1,-1,0
1532068317157,2,0,-1,0,-2,-1,-1,0
1532068317162,0,0,-1,-1,0,0,1,3
1532068317167,0,-2,-2,1,0,-2,-1,-2
1532068317172,-2,-2,0,0,-1,-1,-2,-1
1532068317177,-1,0,1,-1,0,0,-1,-1
1532068317182,-2,0,-1,-1,-2,-1,-4,1
1532068317187,1,1,2,-1,0,2,2,0
1532068317192,-2,1,0,-1,-2,-1,0,-1
1532068317197,-4,-4,0,-1,-1,-1,-2,-4
1532068317202,-1,1,2,-1,-3,-2,-4,-2
1532068317207,-7,-5,0,-2,-1,-1,-2,-2
1532068317212,1,2,-4,1,0,0,-1,0
1532068317217,-3,0,-1,0,1,-1,-1,0
1532068317222,3,-1,4,-1,0,0,0,2
1532068317227,-3,0,-1,-1,0,-2,0,-2
1532068317232,-1,-1,-1,-2,-2,0,1,-3
1532068317237,3,0,4,-1,-2,1,1,-1
1532068317242,1,-4,-7,0,1,0,1,3
1532068317247,-1,-2,-2,0,1,-3,0,3
1532068317252,2,3,3,-2,-2,-1,-2,-1
1532068317257,-3,-1,-1,0,-1,-3,-2,-1
1532068317262,-1,-1,-1,1,0,0,-2,-1
1532068317267,1,1,-1,-1,-1,-1,-1,2
1532068317272,-4,-3,-2,-1,-1,-1,-1,-2
1532068317277,2,-2,-2,-2,1,0,-3,-5
1532068317282,-2,-3,-1,0,-1,-2,-1,-4
1532068317287,-1,-2,3,-1,-3,0,1,-2
1532068317292,-1,-1,-2,-3,-2,-1,0,0
1532068317297,5,0,-3,0,-3,-3,-3,-2
1532068317302,-1,0,0,-1,-2,-2,0,0
1532068317307,-1,0,-1,-1,-2,-1,-2,-1
1532068317312,-1,-1,0,1,1,0,-1,-1
1532068317317,-2,-1,2,1,-2,-1,2,2
1532068317322,0,-1,-4,-4,-2,-1,-1,-4
1532068317327,-2,0,2,0,0,1,0,1
1532068317332,0,-3,-2,0,1,0,1,0
1532068317337,-1,1,1,0,-2,0,-3,-5
1532068317342,0,-2,2,1,-1,-1,-1,-1
1532068317347,0,0,-2,1,2,0,-2,-1
1532068317352,-1,-3,-1,-1,-2,-3,-1,0
1532068317357,-1,-1,-1,-2,-2,-1,0,-1
1532068317362,-1,0,-3,-2,0,0,0,0
1532068317367,-1,1,-2,-1,-2,0,0,-1
1532068317372,0,-2,-1,-1,0,-2,-1,-1
1532068317377,-3,1,-2,0,-1,-2,1,0
1532068317382,-6,-4,0,0,0,-2,-2,-2
1532068317387,0,1,1,0,-1,-1,0,-1
1532068317392,2,2,2,0,0,-1,0,-5
1532068317397,-3,-3,-3,-1,-1,1,1,0
1532068317402,-1,0,2,-2,-1,-1,-1,-3
1532068317407,-3,-3,1,-1,-2,0,0,-2
1532068317412,1,-2,-1,-1,0,-3,-1,-1
1532068317417,0,2,1,-1,0,-1,-2,-4
1532068317422,-1,0,-2,0,0,0,0,-2
1532068317427,-3,1,1,-1,0,-1,-4,-5
1532068317432,-4,-2,-3,0,0,-1,0,7
1532068317437,3,-1,2,1,-1,-2,1,4
1532068317442,0,0,-1,-2,-4,-1,1,-1
1532068317447,-1,-1,-2,-2,-1,-2,-2,0
1532068317452,-2,-1,1,-3,-3,-1,-1,-3
1532068317457,-3,-3,-1,-2,0,1,0,4
1532068317462,2,-1,-2,2,0,-2,-1,1
1532068317467,0,-2,-4,-2,0,-1,-2,-2
1532068317472,0,2,0,0,-2,-1,-2,-5
1532068317477,-3,-9,-6,-1,2,-1,-3,1
1532068317482,1,0,1,1,-1,-1,-1,-2
1532068317487,0,-1,0,-1,-3,0,1,-3
1532068317492,2,0,-3,-1,-1,0,-1,2
1532068317497,0,0,-1,0,-1,0,0,0
1532068317502,1,-1,1,-2,-2,-1,2,5
1532068317507,-1,-1,-2,1,-1,-1,1,0
1532068317512,-3,-3,-3,-3,-2,-2,-2,5
1532068317517,-4,2,-3,0,-2,-3,1,1
1532068317522,-1,-2,1,-2,-2,0,-1,-2
1532068317527,-2,-1,-3,0,0,-1,-2,0
1532068317532,0,-1,1,1,1,0,0,0
1532068317537,0,2,1,-2,-1,-1,-1,0
1532068317542,0,0,0,0,-1,0,0,0
1532068317547,-2,-1,0,0,-2,-2,-1,0
1532068317552,-1,-1,3,-1,-2,0,-1,-4
1532068317557,2,-3,-2,-2,-1,-1,-2,-2
1532068317562,-5,0,-2,-1,-1,-1,-3,-7
1532068317567,9,1,-1,-1,-1,-2,1,11
1532068317572,-2,0,1,0,-1,-1,-2,-6
1532068317577,1,0,-6,-1,-1,-1,-1,3
1532068317582,1,0,0,0,0,0,2,6
1532068317587,-2,0,0,-2,-2,0,-1,-6
1532068317592,-1,-2,-1,-1,0,0,0,3
1532068317597,-2,0,2,0,1,0,-1,-1
1532068317602,-2,0,-1,-1,-2,-2,-2,-5
1532068317607,-4,-4,2,0,-3,-1,-2,-1
1532068317612,-2,0,-2,0,-1,0,0,3
1532068317617,0,-1,-1,-2,-3,-1,-2,-3
1532068317622,1,0,0,-1,0,-2,-1,1
1532068317627,-2,-1,-4,1,2,-2,-1,-1
1532068317632,2,0,-1,0,-1,0,-1,-1
1532068317637,0,-1,2,-2,-1,0,-1,-10
1532068317642,-2,-2,-4,-1,2,0,1,0
1532068317647,0,0,-2,0,-1,1,1,1
1532068317652,0,1,1,-1,-1,0,0,-2
1532068317657,-4,-6,0,-1,-3,-2,-2,-4
1532068317662,-2,0,-2,0,0,-1,-2,6
1532068317667,-3,-2,0,-2,-1,-1,-2,0
1532068317672,0,-1,-1,0,0,1,1,-2
1532068317677,-2,0,-2,1,0,-2,1,3
1532068317682,-1,-1,1,0,-1,-1,-4,-4
1532068317687,-1,-1,0,-3,-2,0,-3,-7
1532068317692,-4,-2,-2,1,2,-1,-1,1
1532068317697,0,1,3,-1,-1,0,0,3
1532068317702,0,-2,0,-1,-3,-1,-1,-5
1532068317707,0,-1,-4,-1,0,-1,0,-2
1532068317712,-2,0,-2,-1,-1,-1,-1,-1
1532068317717,-1,0,0,0,-1,-1,-1,-3
1532068317722,1,-1,-1,-1,-2,0,-1,-2
1532068317727,-1,0,0,0,-2,0,-1,-1
1532068317732,-1,2,3,-2,-1,-2,-1,-1
1532068317737,-1,0,0,-1,-1,0,0,0
1532068317742,3,1,-1,1,2,0,-1,3
1532068317747,-4,0,2,-1,0,0,-1,-3
1532068317752,4,-4,-1,-3,-1,0,-1,2
1532068317757,2,1,0,-2,-1,1,-2,8
1532068317762,-3,-1,-2,-1,-1,-1,1,0
1532068317767,-1,1,0,-1,-2,0,0,-2
1532068317772,-2,2,1,0,-1,-2,-1,-1
1532068317777,-1,-3,-4,-2,0,-1,-1,0
1532068317782,-2,-2,0,-2,0,-3,-2,-4
1532068317787,0,-3,0,0,2,0,0,4
1532068317792,-3,-2,-2,-1,0,-1,-1,-2
1532068317797,0,-1,1,2,0,-1,1,-1
1532068317802,-1,2,-1,-3,-2,2,-1,-4
1532068317807,0,-3,-2,-2,-1,-1,-1,-3
1532068317812,-1,-3,4,1,-2,-1,-2,-2
1532068317817,0,1,0,-1,-2,-2,0,2
1532068317822,1,3,4,0,-1,0,1,-1
1532068317827,-1,0,3,0,-1,-2,-2,-1
1532068317832,-4,-1,-2,-3,0,-2,-2,-6
1532068317837,1,-1,1,-2,-1,0,-2,-1
1532068317842,-2,-2,-3,-1,-2,-2,-2,3
1532068317847,1,0,-4,0,-1,0,0,1
1532068317852,2,0,0,1,-1,1,-1,1
1532068317857,0,0,-2,-2,1,-1,0,-3
1532068317862,1,1,-3,-1,0,-2,-1,-2
1532068317867,-1,-2,-2,-1,0,0,0,0
1532068317872,0,-1,1,-2,-2,-1,-2,0
1532068317877,-1,0,0,0,-1,-1,0,-1
1532068317882,-1,-2,-2,0,0,0,-1,-1
1532068317887,-1,-3,0,-2,-1,-2,0,0
1532068317892,0,1,-2,0,-1,0,1,-2
1532068317897,-2,-1,-1,0,0,-1,-2,3
1532068317902,1,-1,-1,-1,-2,-2,-3,-1
1532068317907,5,0,-3,-2,-1,-2,0,0
1532068317912,0,0,-5,0,-1,-1,-2,0
1532068317917,0,-1,0,-1,-1,-1,0,0
1532068317922,-2,-3,2,1,-1,1,-2,-1
1532068317927,-2,0,-2,1,0,-1,1,-1
1532068317932,0,1,-3,-3,-2,-3,-2,2
1532068317937,0,-3,0,0,-1,-1,-1,-4
1532068317942,2,-1,-1,-1,-2,-1,-1,-1
1532068317947,-3,1,-6,-2,-1,0,-2,0
1532068317952,-4,-9,8,2,-2,-2,-2,-1
1532068317957,1,0,0,-1,1,0,1,-1
1532068317962,0,-1,-5,-1,-1,-1,1,-2
1532068317967,-3,-2,-1,0,0,-1,-4,-4
1532068317972,-1,0,-2,-3,-3,-2,-1,-1
1532068317977,-2,-3,-1,-1,-2,-1,-2,0
1532068317982,-1,-1,-1,0,1,1,0,-2
1532068317987,0,0,2,-1,-2,0,0,0
1532068317992,1,-1,1,-1,0,0,0,0
1532068317997,-1,0,-1,0,-1,-1,-2,2
1532068318002,-2,3,-5,-2,-1,-2,-2,0
1532068318007,-1,-3,0,-1,0,-2,-2,-1
1532068318012,-1,-1,-2,-1,0,-2,0,6
1532068318017,-2,-4,0,0,-1,1,0,1
1532068318022,-1,1,1,-1,-4,-1,0,-2
1532068318027,0,5,-1,-1,-1,-1,-2,-1
1532068318032,0,2,0,2,-1,-1,0,-2
1532068318037,-5,-5,-1,-3,-2,-3,-1,-2
1532068318042,-2,-3,1,-1,0,-1,-2,-2
1532068318047,-2,4,-9,0,-2,-1,0,-1
1532068318052,-2,-4,2,0,0,0,1,-3
1532068318057,0,3,0,1,1,1,2,2
1532068318062,-3,-3,-4,-1,-1,-1,-2,-5
1532068318067,-2,-2,2,0,1,0,1,-2
1532068318072,0,0,-1,-1,0,-2,-2,-2
1532068318077,0,2,1,-2,-1,-1,-4,-4
1532068318082,0,-3,2,2,-1,-2,0,6
1532068318087,1,-5,2,-4,-3,-1,-3,-6
1532068318092,0,0,-1,0,-1,-1,-2,-2
1532068318097,-1,-2,-1,0,-2,-1,-4,-4
1532068318102,1,0,-2,-2,-1,-2,1,3
1532068318107,1,0,3,0,-2,-1,-2,-2
1532068318112,-3,0,-2,0,1,-1,0,0
1532068318117,-1,0,-2,-2,-1,-2,-1,-5
1532068318122,-1,-1,1,0,0,0,1,-3
1532068318127,2,1,0,1,3,2,3,4
1532068318132,0,3,0,-2,-2,0,-3,-1
1532068318137,-2,-1,1,-2,-4,-1,0,-1
1532068318142,-4,-5,-1,0,-2,-1,0,-1
1532068318147,-2,-1,-2,0,1,0,-2,-2
1532068318152,2,1,-2,1,-1,-1,-1,4
1532068318157,0,1,-2,0,1,-1,-1,0
1532068318162,-1,0,-2,0,0,0,-1,-4
1532068318167,-3,-3,0,-1,-2,0,-3,1
1532068318172,-3,1,-10,-2,-2,0,-1,-5
1532068318177,0,-3,1,1,-1,1,0,0
1532068318182,-1,-1,-1,-1,0,0,-2,1
1532068318187,-1,-1,4,-1,-3,-1,0,-2
1532068318192,0,2,-2,-1,-1,-1,0,-1
1532068318197,0,0,-2,1,0,-1,-1,3
1532068318202,-1,0,0,-2,-1,-2,-1,-2
1532068318207,1,-2,0,0,-2,1,0,3
1532068318212,-1,-4,0,0,-1,-1,-1,3
1532068318217,-2,1,-1,-1,0,-1,-1,0
1532068318222,1,0,3,-2,-2,0,1,-4
1532068318227,-5,1,1,-1,1,-1,-1,2
1532068318232,0,1,1,-1,0,1,0,-1
1532068318237,7,-4,3,0,-1,0,1,4
1532068318242,1,0,-1,1,-2,0,0,0
1532068318247,-2,-2,-1,1,-1,-2,-1,3
1532068318252,-3,1,2,-1,-2,-2,-2,-2
1532068318257,-6,-1,-3,-1,-1,-1,-2,-3
1532068318262,2,1,-2,1,-1,0,-2,0
1532068318267,0,-3,-3,-1,0,-1,-2,0
1532068318272,-1,-5,1,0,0,0,0,0
1532068318277,1,5,-1,0,-1,-2,-1,-2
1532068318282,-1,-3,-1,-1,0,-1,0,0
1532068318287,-2,-1,0,-2,-2,-1,1,-6
1532068318292,3,-2,1,-3,0,0,-1,-1
1532068318297,-1,-1,-3,0,0,-2,1,0
1532068318302,1,1,1,-1,-2,-3,-2,-5
1532068318307,7,0,-1,2,0,-1,2,0
1532068318312,-3,3,7,1,1,-1,-2,1
1532068318317,2,-1,0,-1,-1,0,0,1
1532068318322,-2,1,-1,-2,-1,-2,-1,1
1532068318327,-2,-3,1,0,1,-1,-1,-3
1532068318332,1,-2,-4,0,-3,-3,-1,-3
1532068318337,-4,-2,-1,0,-1,1,0,-4
1532068318342,-2,-2,1,-2,-2,0,-2,-4
1532068318347,-4,0,-3,-1,0,-2,-1,5
1532068318352,9,-2,-1,-2,-2,0,-1,-1
1532068318357,-8,-1,-1,-1,-2,0,1,-3
1532068318362,-3,-1,-5,-1,0,-1,0,2
1532068318367,-1,-1,-2,-1,-1,-1,-1,2
1532068318372,-6,-2,1,-1,-1,0,-2,1
1532068318377,5,3,-1,1,-1,-1,-1,0
1532068318382,2,-3,0,0,-1,-3,-1,0
1532068318387,-1,-1,3,0,-1,0,0,-2
1532068318392,-2,-3,-2,-2,-1,-1,2,2
1532068318397,-2,-1,-3,-3,-2,-1,-1,3
1532068318402,1,-2,0,0,1,0,1,0
1532068318407,1,1,-1,-1,-2,-2,0,1
1532068318412,-6,3,-4,0,0,-1,-2,-2
1532068318417,4,-1,-1,-1,-1,-1,-1,-2
1532068318422,-3,-1,-1,-2,0,0,0,-2
1532068318427,-2,0,-3,-1,0,0,-1,-2
1532068318432,-1,-1,-2,-1,0,-1,0,-5
1532068318437,-2,2,-5,-2,-2,-1,-2,1
1532068318442,0,2,-3,-2,-1,-2,-2,4
1532068318447,-8,-5,0,-3,-2,-1,-1,-3
1532068318452,6,0,4,-1,-2,-2,-4,-7
1532068318457,0,-2,1,-1,-1,0,1,0
1532068318462,0,0,-3,1,-3,-1,-1,-3
1532068318467,-5,-1,-2,-1,1,0,3,2
1532068318472,4,2,-3,1,0,0,0,2
1532068318477,-1,-2,-1,1,-1,1,0,-3
1532068318482,-2,-1,-1,0,0,1,1,0
1532068318487,0,-1,2,-2,-2,-1,0,-3
1532068318492,-3,-3,-1,-1,0,1,-1,-4
1532068318497,1,-3,0,0,0,-1,1,0
1532068318502,0,-1,5,-1,-1,1,-3,1
1532068318507,4,1,-1,-2,-1,1,-1,-3
1532068318512,-2,-3,-2,0,-1,-1,0,3
1532068318517,-2,-1,-2,0,-1,-1,-1,-1
1532068318522,-1,-3,3,0,0,0,-1,-2
1532068318527,0,-1,-2,2,-1,0,-3,-6
1532068318532,-2,-1,-2,-2,-1,-1,-1,0
1532068318537,-1,-3,2,-1,-1,0,0,-1
1532068318542,-1,-1,0,-1,-2,-1,0,2
1532068318547,4,1,0,1,0,1,1,13
1532068318552,-4,-2,0,1,-4,0,1,-6
1532068318557,-1,6,-10,-4,-1,-1,0,-3
1532068318562,3,-1,-3,0,1,-2,-4,-2
1532068318567,0,-6,1,-1,-1,0,-2,-1
1532068318572,1,-1,-1,-2,0,0,0,0
1532068318577,-4,-2,-2,-1,0,1,-2,5
1532068318582,6,0,-1,-1,-1,-2,-1,-6
1532068318587,-1,-2,1,-1,1,-1,0,-1
1532068318592,6,1,1,-2,1,-1,-1,-1
1532068318597,2,-1,2,0,-1,-1,-2,-3
1532068318602,-4,1,0,-3,-4,0,-1,0
1532068318607,-2,-3,-1,-2,-1,-2,-1,-3
1532068318612,-5,-2,0,-2,-2,-2,-2,1
1532068318617,-1,-1,1,1,0,-3,-1,-1
1532068318622,-2,-2,1,0,0,0,0,0
1532068318627,0,3,-5,-2,-1,0,-2,-1
1532068318632,-4,-2,3,1,0,0,-1,3
1532068318637,-1,-3,2,0,-3,0,-1,-1
1532068318642,-1,-1,-1,-1,-1,-2,1,-2
1532068318647,-2,-4,-1,-1,-2,0,-1,2
1532068318652,-1,-1,-3,-1,-1,-1,-3,0
1532068318657,-1,0,-1,-1,1,-1,-1,4
1532068318662,-3,-1,-1,0,1,0,0,-4
1532068318667,2,4,6,-1,-2,-3,-1,-4
1532068318672,-2,-2,0,-1,1,1,1,-1
1532068318677,-2,6,-5,-2,-2,-3,-1,-2
1532068318682,-1,-8,4,0,-3,0,1,4
1532068318687,-1,0,-3,-2,0,-2,-3,-3
1532068318692,-2,-2,-3,0,-1,-1,-1,-3
1532068318697,0,0,3,-2,-1,-1,-2,0
1532068318702,-1,6,-4,-3,-1,-1,-3,-4
1532068318707,0,-2,-2,1,1,0,1,6
1532068318712,-6,0,-2,0,-2,-2,1,2
1532068318717,4,-4,1,1,-1,0,-1,-8
1532068318722,0,0,-5,-2,0,1,0,2
1532068318727,-2,-4,1,-2,-1,0,-3,-7
1532068318732,-1,1,1,-2,-2,-1,0,5
1532068318737,-4,-2,0,-1,0,-2,-1,-1
1532068318742,-3,-2,-1,1,-1,-2,-2,0
1532068318747,6,2,-3,-3,-2,-3,-2,-6
1532068318752,2,-1,-1,-1,1,0,-1,-3
1532068318757,-3,-4,-3,0,0,-1,0,-1
1532068318762,-1,-2,0,-1,0,-1,-2,-1
1532068318767,-1,-1,-1,0,0,0,1,0
1532068318772,2,1,-2,1,0,-2,-1,-3
1532068318777,1,0,2,-2,0,-2,0,2
1532068318782,-1,-2,0,-2,-1,-1,-1,1
1532068318787,-7,-2,-1,0,-2,-2,-2,-1
1532068318792,3,-1,6,1,-2,-2,1,3
1532068318797,-2,-3,1,-1,-2,-2,-2,-2
1532068318802,1,-1,0,-2,-1,1,1,1
1532068318807,-1,0,-4,-1,0,-1,-1,-1
1532068318812,-2,1,-5,-1,0,0,-2,1
1532068318817,-2,-10,1,0,-1,0,0,5
1532068318822,-3,-1,-1,0,1,-1,-1,0
1532068318827,11,2,-1,-3,-1,-2,-2,-4
1532068318832,-3,0,0,-3,-2,0,-1,-4
1532068318837,1,3,-2,-1,1,0,1,1
1532068318842,-4,-5,-1,0,0,-2,-1,0
1532068318847,-1,0,1,1,-2,0,-3,-7
1532068318852,2,-2,0,-1,-2,-2,0,-1
1532068318857,-2,1,-1,-1,-1,-1,-2,-2
1532068318862,-1,1,-2,0,-1,-1,-2,0
1532068318867,-3,-1,2,1,-1,-1,0,3
1532068318872,-1,-2,-2,-1,-1,0,-1,-2
1532068318877,1,1,-4,1,-1,0,-2,-2
1532068318882,1,0,-1,-1,-2,-1,0,2
1532068318887,-1,-2,1,1,-3,-1,-1,-3
1532068318892,-2,-2,-1,1,-2,-1,-3,-1
1532068318897,-1,0,1,-3,-2,-1,0,-2
1532068318902,-2,0,-1,0,-2,1,0,0
1532068318907,-5,2,-1,1,0,-2,-2,-5
1532068318912,0,0,-1,-1,-1,-1,-2,0
1532068318917,-3,1,-1,0,-2,0,2,8
1532068318922,-2,2,-8,-3,-1,-1,0,0
1532068318927,2,-6,1,-1,-1,1,-1,-1
1532068318932,-13,1,1,0,-2,1,0,4
1532068318937,20,-3,-2,-1,0,-1,0,0
1532068318942,3,7,1,0,0,-2,0,4
1532068318947,-1,-9,0,5,-1,0,-2,4
1532068318952,1,2,-1,-2,-2,-1,-1,-2
1532068318957,-12,-2,1,0,-1,0,-1,0
1532068318962,45,-4,-3,-2,-1,0,-1,2
1532068318967,-11,1,-2,1,2,-1,-1,-5
1532068318972,6,-1,3,-1,-2,0,1,-3
1532068318977,-3,-1,-3,-2,-1,0,0,-1
1532068318982,1,0,-2,-1,0,0,-3,-1
1532068318987,1,-1,6,0,-4,-2,-1,1
1532068318992,3,-3,-3,-2,0,-2,1,-3
1532068318997,-1,0,-3,-1,0,0,-2,0
1532068319002,-16,-1,-3,-1,-1,-1,-2,-3
1532068319007,5,3,-2,-2,-2,1,0,-1
1532068319012,-6,1,-3,0,2,-2,-2,-2
1532068319017,-7,-8,3,-1,1,-1,-1,-1
1532068319022,-4,-1,3,-1,-3,-1,2,-1
1532068319027,-3,1,-3,-3,0,-1,1,-2
1532068319032,5,-1,-2,-1,0,-1,-1,1
1532068319037,-6,0,12,-1,-3,0,-3,-7
1532068319042,-9,-7,-1,0,-1,-2,-2,-1
1532068319047,2,4,-4,1,1,-2,-2,-1
1532068319052,-5,-1,1,-2,-1,-1,-2,-13
1532068319057,8,1,-5,-2,-2,-2,-1,2
1532068319062,-8,-1,-1,-2,1,-1,1,0
1532068319067,-5,0,1,-1,-2,-2,-1,-1
1532068319072,2,-1,-1,-1,-1,0,-2,1
1532068319077,-9,2,-2,0,0,-1,-1,-4
1532068319082,1,-1,2,0,-1,-2,-3,-3
1532068319087,1,-2,-4,-2,-4,-2,0,5
1532068319092,0,-3,-1,0,0,0,0,-2
1532068319097,-1,0,-3,0,-2,2,1,4
1532068319102,-3,0,1,0,-1,-2,1,0
1532068319107,0,-1,0,-1,-2,-2,-1,-4
1532068319112,-1,-2,-2,0,0,-1,-2,1
1532068319117,-2,-1,-2,2,0,-2,0,0
1532068319122,2,-1,2,0,-3,-1,-1,-2
1532068319127,-8,-2,-1,-1,1,0,1,-3
1532068319132,2,0,-1,-1,0,-2,-1,2
1532068319137,-4,2,-3,-3,-2,0,0,-3
1532068319142,-1,-5,1,0,0,0,0,-4
1532068319147,1,-1,-1,0,-1,1,0,4
1532068319152,-1,-3,0,0,-2,-1,-2,3
1532068319157,-7,0,-1,0,0,-2,-1,0
1532068319162,1,0,-4,0,0,-2,-3,-4
1532068319167,0,0,0,0,0,-1,-2,-1
1532068319172,8,4,0,-1,-1,-1,-1,0
1532068319177,-5,-1,-13,-2,1,-1,-2,-2
1532068319182,-3,0,-2,0,-1,-1,-1,-1
1532068319187,0,-2,3,-1,-2,0,0,2
1532068319192,-1,0,-1,-1,-1,-1,2,-1
1532068319197,3,-1,-3,0,0,-1,-1,0
1532068319202,-4,2,-2,-2,-1,-1,-1,1
1532068319207,2,-1,-2,-1,-1,0,1,-4
1532068319212,-5,-2,-4,-1,-1,-1,-2,1
1532068319217,12,-1,2,2,1,0,0,2
1532068319222,-9,-2,1,-1,-2,0,0,-3
1532068319227,-1,0,0,0,-1,0,0,-2
1532068319232,-1,-2,2,1,0,-2,0,-1
1532068319237,0,-3,4,-2,-4,-3,-2,-2
1532068319242,1,0,-1,0,0,0,-2,2
1532068319247,0,2,-1,0,1,-1,-2,-1
1532068319252,4,-3,-4,-1,-1,-2,-2,1
1532068319257,6,-1,1,-1,-3,0,0,-2
1532068319262,-1,0,4,3,2,1,0,-1
1532068319267,-2,-1,-1,-3,0,-1,-1,-1
1532068319272,0,-2,1,0,-1,1,0,-1
1532068319277,-6,-2,3,-1,0,-1,0,0
1532068319282,-1,0,-2,-1,-1,-1,-2,-1
1532068319287,3,-2,0,0,-1,-1,0,1
1532068319292,-4,1,-2,-1,-1,-3,-1,-3
1532068319297,-3,-8,0,-1,0,-3,-1,1
1532068319302,0,0,-2,-2,0,0,1,-2
1532068319307,-4,1,0,1,0,-1,-1,-1
1532068319312,0,-9,9,2,1,2,-1,1
1532068319317,-2,1,0,0,0,-1,-1,-1
1532068319322,-1,-1,1,-1,0,-1,0,-2
1532068319327,0,-3,-2,0,0,1,0,-2
1532068319332,2,2,-4,1,0,-1,-1,-1
1532068319337,-1,2,1,-2,-2,-1,-1,-2
1532068319342,1,-2,1,-1,-2,0,-1,-1
1532068319347,-3,1,-2,-1,0,0,-1,-4
1532068319352,-9,0,-2,-2,-2,0,-2,1
1532068319357,-3,-2,-2,0,-1,0,-1,-3
1532068319362,1,3,-3,1,1,-1,-1,1
1532068319367,1,1,-1,-1,-1,0,-2,-1
1532068319372,0,1,-1,-1,-1,0,-1,-4
1532068319377,-4,0,1,-2,-1,-2,-1,5
1532068319382,-2,-3,-1,-1,-2,-1,-2,-2
1532068319387,0,-3,2,0,-2,-3,0,-3
1532068319392,2,1,0,-3,0,-2,-1,-1
1532068319397,-2,1,-4,0,0,0,-1,0
1532068319402,0,-2,0,0,-2,-2,-1,-2
1532068319407,-2,-1,-3,-5,-4,-2,-1,-1
1532068319412,-2,-1,-4,-2,-1,-2,-1,-2
1532068319417,-1,0,-2,0,0,2,0,-1
1532068319422,-1,-1,1,0,0,-2,-1,0
1532068319427,0,-1,-2,0,1,0,2,-1
1532068319432,-3,1,0,1,1,-2,0,-1
1532068319437,-4,3,-8,-4,-2,-2,-2,-2
1532068319442,0,-7,5,0,0,2,2,-2
1532068319447,-2,5,-5,-2,1,-1,-3,-1
1532068319452,-3,-3,1,-3,-2,0,2,-1
1532068319457,7,1,-2,-2,0,0,0,-1
1532068319462,-7,-4,-2,-1,1,-1,-3,0
1532068319467,13,2,2,1,0,0,-1,3
1532068319472,-9,-2,0,0,0,0,-2,-5
1532068319477,1,0,-2,0,1,-1,0,3
1532068319482,-3,1,1,-2,-3,-1,-2,-1
1532068319487,3,-1,2,-2,-1,1,0,-1
1532068319492,2,-1,-1,0,-2,0,0,-1
1532068319497,0,-2,3,0,-3,-2,0,2
1532068319502,1,2,-3,-2,-3,-1,0,1
1532068319507,-7,-3,0,0,-1,-2,0,0
1532068319512,4,0,-4,-3,2,0,-2,2
1532068319517,-6,0,-1,1,-1,-1,0,1
1532068319522,15,-1,-2,-4,0,-2,0,-3
1532068319527,-3,0,-1,-1,-1,-3,1,-1
1532068319532,-1,0,-3,0,-1,-1,-2,-1
1532068319537,0,-1,4,-1,-1,0,-1,-6
1532068319542,-3,2,-1,0,0,-1,-1,0
1532068319547,-1,0,-2,1,-1,-1,-2,1
1532068319552,3,0,0,-2,-2,-1,-2,-5
1532068319557,-5,-6,1,-2,-1,0,1,0
1532068319562,-4,10,-6,-1,-1,-3,-2,0
1532068319567,9,-4,2,-1,1,-2,-2,-2
1532068319572,-14,0,0,1,0,0,0,-2
1532068319577,1,1,-1,0,2,0,1,0
1532068319582,-4,-1,-2,0,-1,1,0,1
1532068319587,-2,0,-1,0,-1,1,-1,-1
1532068319592,2,0,1,-2,-3,-1,2,0
1532068319597,-2,0,-2,-1,-1,1,1,0
1532068319602,2,-2,-1,-2,-2,-1,-2,1
1532068319607,2,-2,3,-2,-2,0,0,-4
1532068319612,-1,0,1,-2,-1,0,0,-1
1532068319617,-5,-1,-5,-1,-2,-2,-3,-3
1532068319622,3,3,0,-2,-3,-1,-1,1
1532068319627,0,-3,0,0,0,-1,-3,-4
1532068319632,-4,0,-2,2,0,-2,-1,1
1532068319637,1,-2,-3,-4,-1,0,0,0
1532068319642,-4,1,0,0,0,-1,0,1
1532068319647,1,2,-3,0,-1,-2,-2,1
1532068319652,-4,0,1,-1,-1,0,0,-3
1532068319657,-1,4,1,-2,-2,0,-1,-2
1532068319662,1,0,0,-2,-1,-1,-1,-2
1532068319667,0,-1,10,0,0,0,-1,-1
1532068319672,-1,-5,1,-2,-1,-1,1,0
1532068319677,7,1,-3,-1,0,-2,-1,-1
1532068319682,1,-4,-3,1,0,-2,-1,-2
1532068319687,-9,2,-4,0,0,0,-1,1
1532068319692,5,0,-1,-1,-1,0,-1,-4
1532068319697,-4,-4,-2,-1,1,0,-2,1
1532068319702,0,-1,0,0,-2,1,-1,0
1532068319707,0,1,-4,-3,-2,0,-1,-5
1532068319712,-4,-2,1,-1,0,0,0,1
1532068319717,-7,-4,-1,-1,-1,0,-1,-1
1532068319722,6,1,0,-1,-2,-1,1,0
1532068319727,3,0,-3,-2,-1,-1,-1,1
1532068319732,-2,-2,-1,-1,-1,0,-2,-2
1532068319737,-1,-2,-1,0,-1,-1,-2,0
1532068319742,-3,-1,0,-2,0,-1,-2,-2
1532068319747,0,-2,-2,0,1,-1,-1,-2
1532068319752,-4,2,-2,0,-1,0,0,2
1532068319757,-1,-1,1,0,-3,-2,-1,-3
1532068319762,2,-1,-3,0,-1,0,1,0
1532068319767,3,5,-5,-3,-2,-1,-2,0
1532068319772,-8,-3,2,-3,-2,-2,1,0
1532068319777,2,1,0,-1,-2,-1,0,-3
1532068319782,3,0,0,3,0,0,0,3
1532068319787,-1,-3,0,-2,-2,-1,-1,-2
1532068319792,-3,0,-1,-1,-1,-1,0,-1
1532068319797,-1,-2,-1,0,0,0,-1,1
1532068319802,-1,-2,-2,0,0,-1,1,-1
1532068319807,-2,-2,-1,-1,-2,0,1,-1
1532068319812,2,5,4,-1,0,-2,-2,-3
1532068319817,1,-6,-2,-1,0,-1,1,0
1532068319822,-3,-3,1,-2,-2,-1,-2,-3
1532068319827,-6,4,1,-1,1,0,-2,-2
1532068319832,1,-5,2,1,-2,-2,-3,0
1532068319837,-1,-1,1,-2,-3,-1,-1,-1
1532068319842,-3,-1,-1,-1,-1,-1,0,-1
1532068319847,-2,0,-6,0,0,-1,1,2
1532068319852,2,1,-3,-1,0,1,0,1
1532068319857,-2,0,1,-1,0,-2,-1,-2
1532068319862,-7,-3,-3,-1,-1,1,-1,1
1532068319867,9,-3,1,0,-1,-2,-3,-6
1532068319872,-9,-2,-2,-2,-3,-1,-2,-4
1532068319877,-1,-2,-2,0,-3,-1,1,0
1532068319882,0,3,-5,-2,0,-1,-2,0
1532068319887,-1,-10,2,0,-2,0,0,2
1532068319892,1,0,3,-2,0,-1,0,-3
1532068319897,0,5,-4,-3,0,0,-1,0
1532068319902,-2,-1,-1,-1,-1,-1,-2,-4
1532068319907,-3,-2,-1,-1,-3,0,-1,-5
1532068319912,6,1,-6,-1,1,-2,-1,1
1532068319917,-2,-1,0,2,-1,0,0,2
1532068319922,1,1,-4,-1,-1,0,1,0
1532068319927,1,-3,5,1,0,-1,0,0
1532068319932,-6,-2,-3,-1,-1,-1,-3,0
1532068319937,2,0,-1,-1,-2,-1,-3,-1
1532068319942,1,1,-2,0,-1,0,-1,-1
1532068319947,-3,2,-4,0,-1,-2,0,-1
1532068319952,-7,-4,-3,0,-1,0,-1,1
1532068319957,1,-1,0,-1,0,0,-2,-4
1532068319962,1,-1,1,0,-1,0,-1,-1
1532068319967,0,-1,-1,-1,-1,-1,-1,4
1532068319972,-6,-1,2,-1,-1,-1,-1,-2
1532068319977,-2,-2,2,-1,-2,-1,0,0
1532068319982,0,-1,4,1,-1,-2,-2,-2
1532068319987,-2,-1,-2,-3,-2,-2,-3,-3
1532068319992,5,1,0,-1,-2,0,-1,-1
1532068319997,-2,2,-3,-1,-1,-1,-2,-1
1532068320002,4,-6,-3,-2,-1,-1,-2,2
1532068320007,0,0,4,-1,-1,-1,0,1
1532068320012,1,1,-1,2,1,0,1,-2
1532068320017,-9,-1,1,-2,0,-1,0,1
1532068320022,7,2,3,-1,-2,-2,-2,-3
1532068320027,1,1,0,0,-1,-2,-1,-3
1532068320032,2,-1,-4,-1,0,-1,-2,-1
1532068320037,-3,-2,1,0,-1,-1,0,1
1532068320042,-5,0,10,-2,-1,-1,0,-1
1532068320047,-2,0,-2,0,-1,0,-2,0
1532068320052,0,-4,-4,0,0,-1,1,1
1532068320057,1,-4,-1,-2,0,-2,-2,-3
1532068320062,-2,-1,-5,-1,1,0,2,0
1532068320067,-8,2,2,3,1,-1,-1,1
1532068320072,7,1,4,1,-2,0,2,2
1532068320077,1,5,0,-1,-1,1,-1,-5
1532068320082,0,-5,-4,0,-1,-2,-3,4
1532068320087,-2,0,-1,-2,1,1,-2,0
1532068320092,-1,5,-5,-2,-2,-2,-3,-3
1532068320097,1,-3,0,0,-2,-1,-1,3
1532068320102,-12,0,-1,-2,-1,-1,-1,-3
1532068320107,4,0,-1,-2,0,0,0,-2
1532068320112,-3,2,-6,-1,0,-1,-2,-1
1532068320117,0,-6,-2,0,-1,0,-2,-2
1532068320122,0,1,3,-1,-1,-1,-1,1
1532068320127,-1,-1,-2,-3,-2,1,0,-1
1532068320132,-7,-2,1,-2,-1,-1,0,-1
1532068320137,0,-1,1,-1,0,-1,0,0
1532068320142,0,-2,-3,-2,0,-2,-3,-3
1532068320147,1,1,-4,-1,-1,-2,-2,-3
1532068320152,0,-7,0,-2,-1,1,-1,3
1532068320157,-2,2,-9,-1,-2,0,0,-2
1532068320162,2,-2,-1,-2,0,-1,2,2
1532068320167,1,0,-3,-2,-1,-2,-2,-1
1532068320172,0,-1,5,0,-3,0,-1,-4
1532068320177,2,3,2,0,1,0,-2,-1
1532068320182,0,-4,-4,0,-1,0,-3,-1
1532068320187,-1,-2,2,0,-2,-1,0,-2
1532068320192,-4,-3,-3,-1,0,-1,0,1
1532068320197,4,-2,0,0,0,-4,-3,-6
1532068320202,-1,2,1,1,-1,0,-1,-2
1532068320207,1,-5,0,-2,0,0,0,-1
1532068320212,0,0,-2,-1,-1,-3,-3,-1
1532068320217,-4,-2,-1,-1,-2,-1,1,-1
1532068320222,-1,3,-1,-2,-1,0,-2,0
1532068320227,-1,-3,2,1,-1,-1,-1,-1
1532068320232,0,-4,4,1,0,0,0,0
1532068320237,0,-1,2,-2,-2,-1,0,0
1532068320242,0,0,-1,0,-1,0,1,-2
1532068320247,-1,-2,-5,1,-1,-2,0,0
1532068320252,-1,0,-2,0,-1,0,0,1
1532068320257,6,-2,-1,0,0,0,-2,0
1532068320262,-2,0,-2,-1,1,0,-2,1
1532068320267,0,1,-1,-1,1,-2,-2,1
1532068320272,2,-6,14,2,0,0,0,-2
1532068320277,2,1,1,-1,0,1,0,3
1532068320282,-10,-6,-2,0,-1,-2,-2,2
1532068320287,-5,-1,-1,-2,-1,0,-2,1
1532068320292,-1,1,0,-1,-1,1,0,-3
1532068320297,-2,-3,-2,-3,-3,0,1,-2
1532068320302,3,1,-3,-2,-1,0,-3,-2
1532068320307,-3,-3,1,0,-2,-1,-1,-3
1532068320312,5,1,2,0,0,0,0,-3
1532068320317,-2,-1,-2,-1,-1,-1,-2,0
1532068320322,-2,0,-1,-1,-3,-2,0,-1
1532068320327,-1,0,0,-2,-1,-1,-1,0
1532068320332,1,-8,0,1,0,1,1,-1
1532068320337,-6,2,1,0,-1,0,2,4
1532068320342,7,-2,-5,-1,0,-2,-1,-1
1532068320347,6,4,-3,-1,-2,-2,-1,0
1532068320352,-4,0,-1,-2,-1,-2,-1,-1
1532068320357,1,0,1,0,-3,0,-2,-1
1532068320362,-1,0,0,-1,-1,-1,-1,-2
1532068320367,-4,-1,-2,-1,0,-2,-1,3
1532068320372,0,4,-1,-1,-3,-2,-3,-2
1532068320377,2,-4,-1,0,1,0,-1,-1
1532068320382,-5,-1,6,0,0,0,-1,-1
1532068320387,1,-2,0,1,0,0,0,0
1532068320392,1,0,-1,-1,-3,-1,0,-2
1532068320397,-2,-1,-3,0,0,0,-1,-1
1532068320402,0,-2,-4,-1,-2,-1,-1,0
1532068320407,-5,-1,3,-1,-1,0,0,-1
1532068320412,0,-3,0,0,-3,-1,-2,0
1532068320417,-3,2,-4,-1,-2,-2,-3,-2
1532068320422,0,1,-4,-2,-1,-2,-1,-1
1532068320427,9,0,-5,-3,0,-1,-4,-6
1532068320432,-5,-8,-2,0,1,-1,1,0
1532068320437,2,1,-2,0,-1,-1,-1,0
1532068320442,-4,-2,1,-2,-1,-2,-1,-2
1532068320447,-18,-2,0,0,-1,1,1,1
1532068320452,5,5,0,0,0,-1,-1,1
1532068320457,2,-2,2,-1,-2,0,-1,-3
1532068320462,-2,-2,0,-1,-3,-2,0,0
1532068320467,-4,-1,3,3,-1,-3,-1,2
1532068320472,2,1,1,-2,-1,-1,-1,-1
1532068320477,-2,-2,2,-1,1,0,0,-2
1532068320482,1,4,-6,0,-2,0,-3,3
1532068320487,2,-4,9,0,0,0,-1,2
1532068320492,0,-1,-2,-1,-2,-2,-2,-1
1532068320497,1,1,-4,0,0,-1,-1,1
1532068320502,-7,-3,1,0,-2,1,1,0
1532068320507,13,-1,-2,-1,-3,0,-1,-6
1532068320512,-2,-1,-2,0,0,0,0,-2
1532068320517,-4,-2,1,-1,1,0,-1,1
1532068320522,-5,-2,-2,-1,-2,-1,-1,-2
1532068320527,-3,3,-4,-1,-2,-2,0,0
1532068320532,1,3,1,-2,0,-2,0,2
1532068320537,4,0,-1,-2,-1,-1,0,-1
1532068320542,2,1,-1,-2,1,-1,0,-2
1532068320547,-2,-2,-3,1,-1,-2,1,-2
1532068320552,-4,-1,0,1,-1,0,-2,-4
1532068320557,1,0,1,1,-2,0,1,0
1532068320562,3,-1,1,0,-1,1,0,0
1532068320567,-2,-1,-5,-2,1,-1,-3,-2
1532068320572,0,1,-2,-2,-1,-1,-2,-3
1532068320577,-3,-2,-1,-1,-1,-3,-1,-3
1532068320582,-2,-3,-2,-2,0,0,0,-1
1532068320587,-3,0,-3,-2,0,-1,-1,2
1532068320592,-10,-2,-1,-2,-1,-3,0,1
1532068320597,6,-3,-1,0,-1,-1,-3,-2
1532068320602,1,5,-9,1,0,0,-1,0
1532068320607,2,-1,1,-2,-2,0,2,0
1532068320612,-3,-2,0,-1,-1,0,1,-1
1532068320617,-2,3,0,-1,-1,-2,-2,4
1532068320622,0,1,-3,-5,-2,-1,-2,-2
1532068320627,-2,-3,1,0,-2,-1,-1,-1
1532068320632,5,1,-2,0,-1,0,-1,1
1532068320637,1,1,-7,-1,0,-1,-3,-4
1532068320642,-1,-6,4,1,-2,0,-1,0
1532068320647,0,-1,0,-1,2,-1,1,2
1532068320652,1,-2,-1,-1,0,-2,-1,-2
1532068320657,-5,-2,-5,-1,-1,-1,-3,0
1532068320662,1,1,0,-2,-1,-2,-1,-2
1532068320667,-1,0,-1,1,-1,1,2,1
1532068320672,-1,-2,-2,-3,-2,-3,0,-1
1532068320677,-2,-1,1,-2,-1,-1,-1,-2
1532068320682,5,-7,1,0,-1,-1,-1,3
1532068320687,0,0,-1,-2,-2,-2,-2,-1
1532068320692,-6,-1,0,0,-2,-1,0,-1
1532068320697,10,3,-2,-1,0,0,0,0
1532068320702,-2,-1,-3,-1,2,0,-2,-3
1532068320707,-6,-1,-1,0,-1,0,0,0
1532068320712,1,-1,2,0,-1,2,-1,0
1532068320717,6,-1,8,0,1,-2,-2,0
1532068320722,-2,0,-2,-2,-1,-1,-3,-1
1532068320727,0,-1,2,-2,-2,0,-2,-3
1532068320732,0,0,0,0,-1,-1,-1,-3
1532068320737,-5,-2,-2,-1,-2,-1,-1,2
1532068320742,2,1,-2,-1,-2,0,-2,-1
1532068320747,-1,-9,5,0,-1,0,1,-2
1532068320752,-2,2,-3,-2,0,0,-1,1
1532068320757,-6,1,0,0,-2,0,-1,-2
1532068320762,1,-4,-3,-1,0,-1,0,-3
1532068320767,1,2,-6,-1,2,0,-1,0
1532068320772,-1,-2,1,-1,-1,-2,0,1
1532068320777,3,-2,-1,-3,-4,-1,1,-1
1532068320782,-14,0,1,-4,-1,0,-1,-1
1532068320787,-5,1,-1,0,-1,-1,-1,0
1532068320792,10,1,2,1,-1,-1,-1,-1
1532068320797,-5,0,-2,-1,2,1,-1,-2
1532068320802,0,1,-1,2,0,0,-1,1
1532068320807,-3,-2,-1,-2,-1,-2,-2,-2
1532068320812,-4,1,1,0,-1,0,-1,3
1532068320817,0,-4,-7,-2,1,-3,-3,-1
1532068320822,-2,1,-2,1,-1,1,-1,-1
1532068320827,2,1,2,-2,-1,-2,1,-1
1532068320832,2,0,-1,-2,0,1,1,-1
1532068320837,-2,0,2,1,-2,-1,0,-2
1532068320842,-1,-5,-1,-2,-1,-1,1,-1
1532068320847,3,2,1,-1,-1,-3,-2,-2
1532068320852,-2,-1,-5,1,1,-1,-2,-1
1532068320857,-1,-6,6,0,-3,-2,0,1
1532068320862,0,3,-3,-2,-2,-1,0,-1
1532068320867,-1,-9,-2,1,1,1,1,3
1532068320872,-2,-1,-1,-1,0,-1,0,-1
1532068320877,-9,0,-3,-1,-1,0,-1,-2
1532068320882,8,-1,0,1,-2,0,-2,-2
1532068320887,-2,1,1,0,0,-1,-1,-2
1532068320892,3,0,3,-3,-1,-2,0,0
1532068320897,-17,-1,-3,-1,-1,0,0,-3
1532068320902,0,1,-1,0,0,-4,-2,-1
1532068320907,0,-1,-3,-2,-2,-1,-1,2
1532068320912,-4,-2,-1,-1,-1,-1,-1,-6
1532068320917,5,2,-5,-2,1,-2,-2,0
1532068320922,-2,-1,0,-2,-1,1,-1,0
1532068320927,0,0,-1,0,-1,-1,0,-2
1532068320932,-1,0,-1,1,-1,-2,0,-1
1532068320937,1,-1,-1,-1,0,1,-2,0
1532068320942,-2,0,4,-2,-1,0,0,-1
1532068320947,1,0,0,-1,-1,-2,-3,-1
1532068320952,-1,-1,-2,0,-2,-1,-1,-2
1532068320957,4,-1,-1,-2,-2,-3,-4,-3
1532068320962,-8,2,1,-1,0,0,0,1
1532068320967,9,-2,-4,-2,-1,-2,-2,-2
1532068320972,-3,-1,1,-1,0,0,-1,0
1532068320977,2,0,-2,0,-1,-1,0,0
1532068320982,3,1,-3,-1,1,0,2,-1
1532068320987,-8,-3,-9,-1,-1,-1,0,-3
1532068320992,-1,0,3,-4,-4,-2,-1,-1
1532068320997,3,-1,0,-1,-1,-1,1,-2
1532068321002,1,-2,-1,-2,-2,-2,-2,-1
1532068321007,1,3,-3,1,-1,-2,0,-1
1532068321012,1,-2,-1,-1,-1,-1,-2,1
1532068321017,-3,1,-3,0,0,-1,-1,-1
1532068321022,-2,-2,-2,0,-1,-1,0,-1
1532068321027,-2,1,1,-2,0,0,-2,-4
1532068321032,-4,-3,-1,1,0,1,0,0
1532068321037,8,3,-2,-2,-2,0,-2,4
1532068321042,-5,0,2,-1,-1,0,0,0
1532068321047,-4,-1,1,0,-1,0,-1,-4
1532068321052,2,-2,-2,0,0,-1,0,-2
1532068321057,-2,-3,-1,-1,-2,-2,-1,-3
1532068321062,-5,-1,-1,-2,0,0,-2,-1
1532068321067,-5,0,-1,-2,0,-1,1,3
1532068321072,-2,-1,-2,-1,0,-1,-1,-3
1532068321077,-1,0,0,-2,-2,0,0,-2
1532068321082,3,-1,-2,-1,0,-1,-1,-1
1532068321087,1,1,2,1,0,-2,-1,-1
1532068321092,0,-1,0,-2,-2,0,-1,2
1532068321097,-2,-1,1,1,0,-1,1,0
1532068321102,-7,-2,-2,-1,-1,-2,-2,-1
1532068321107,2,0,0,0,-2,-1,-2,-1
1532068321112,0,1,-2,-3,-1,-2,-1,0
1532068321117,-6,0,-1,0,-1,-1,-1,1
1532068321122,-3,-6,-2,-1,-1,0,2,2
1532068321127,11,3,-4,-1,-1,-1,-2,-3
1532068321132,-4,-9,9,2,0,1,1,1
1532068321137,4,-2,-1,1,-1,1,-1,0
1532068321142,5,2,-1,-1,-2,0,0,-1
1532068321147,-8,-5,0,-1,-2,-1,1,-1
1532068321152,2,2,-2,0,-1,0,-1,0
1532068321157,0,-1,-2,0,-1,0,-1,-1
1532068321162,-1,-1,2,1,-1,-4,0,0
1532068321167,-5,0,-1,-1,1,0,-1,1
1532068321172,1,1,-3,0,-1,-1,-1,-1
1532068321177,-2,0,0,-2,-1,-1,0,-2
1532068321182,3,2,-4,0,-1,0,0,1
1532068321187,0,-1,1,0,-3,0,-1,2
1532068321192,1,1,-2,-1,-3,-1,-2,-4
1532068321197,0,0,0,-1,-1,-1,0,-1
1532068321202,6,-2,0,1,-1,1,-1,-1
1532068321207,-21,1,2,-1,0,1,0,-1
1532068321212,1,-5,-4,-1,0,-2,-2,-5
1532068321217,0,-1,-3,0,1,0,-3,0
1532068321222,2,2,-1,-1,-1,0,-1,-2
1532068321227,1,-1,0,0,-2,-1,-1,3
1532068321232,-1,0,-2,0,0,0,1,3
1532068321237,3,-1,1,-1,-1,-2,-2,0
1532068321242,-5,2,-2,-2,-1,-2,-1,-3
1532068321247,2,-5,7,0,-1,-1,0,0
1532068321252,2,3,-2,-1,0,-1,-1,-1
1532068321257,-3,4,-3,-2,-2,-1,1,1
1532068321262,-5,-5,1,0,0,1,-2,0
1532068321267,10,2,-4,-2,1,-2,-1,-2
1532068321272,-3,0,1,0,-2,0,-1,-3
1532068321277,7,0,-2,-1,0,2,-1,1
1532068321282,-1,1,-3,-1,0,0,-2,-1
1532068321287,8,0,0,-3,-3,-1,0,-1
1532068321292,-11,-2,0,0,0,0,1,0
1532068321297,-6,-1,-4,-3,0,-1,-1,-2
1532068321302,4,-1,-2,0,-1,-1,-2,3
1532068321307,-2,-1,0,-1,0,1,0,-2
1532068321312,4,-1,-1,0,-2,-1,-1,0
1532068321317,-4,-3,2,1,-2,0,0,0
1532068321322,-1,0,2,1,0,-2,1,-1
1532068321327,-1,-1,-2,-1,-1,-1,0,-1
1532068321332,1,1,-1,-1,0,-1,-1,0
1532068321337,2,0,-2,-1,-1,-1,0,0
1532068321342,-2,1,-4,-1,1,1,0,0
1532068321347,-3,1,-5,0,0,-1,-2,0
1532068321352,1,2,-1,0,0,-1,-2,-2
1532068321357,0,-2,0,-1,-1,0,1,1
1532068321362,-3,2,-6,-2,0,-2,-3,-2
1532068321367,1,-2,0,0,0,1,2,2
1532068321372,-2,-3,3,-3,-2,0,0,0
1532068321377,-3,-1,-1,-1,-1,1,-1,-2
1532068321382,7,-1,-2,1,0,-1,-2,0
1532068321387,-9,-3,2,-2,-1,0,2,-1
1532068321392,1,0,-1,0,-1,0,-2,-3
1532068321397,-4,1,-2,-1,-1,-2,1,4
1532068321402,5,-4,2,-1,-2,0,0,-5
1532068321407,1,-1,0,-1,-1,0,0,-4
1532068321412,-4,-1,2,-3,0,-1,-2,-2
1532068321417,5,-1,-5,-2,1,-1,0,-1
1532068321422,-4,-1,0,-1,-2,0,0,-3
1532068321427,0,-3,1,-1,-1,-1,-2,1
1532068321432,1,-1,0,1,0,-1,-1,-2
1532068321437,0,0,2,0,-3,-1,-1,-2
1532068321442,-4,-1,-1,-2,-1,0,-1,-1
1532068321447,3,-1,-2,-2,-2,-2,-2,-1
1532068321452,-6,0,-3,0,-3,-2,-3,-1
1532068321457,1,1,2,-2,0,-1,-2,-2
1532068321462,-1,0,-4,-1,0,0,0,3
1532068321467,-4,-1,-1,0,-1,-1,-2,-3
1532068321472,5,-1,2,-1,-2,0,2,0
1532068321477,0,1,-4,0,0,-1,-1,0
1532068321482,-7,-1,-3,-3,0,-1,0,-1
1532068321487,1,-2,-1,0,-1,-1,0,-2
1532068321492,-2,-1,-1,-1,-1,0,-1,-2
1532068321497,-1,0,-4,0,0,0,0,-2
1532068321502,-3,3,4,-1,-2,-2,-3,-1
1532068321507,-5,-5,-1,-3,0,0,-1,-2
1532068321512,-4,-1,-2,0,-1,-1,0,0
1532068321517,1,-1,-3,-4,-2,-1,-1,0
1532068321522,-2,0,2,0,-1,1,0,0
1532068321527,1,0,-1,0,0,0,-2,-1
1532068321532,1,-5,1,1,-1,-1,-1,-1
1532068321537,1,-2,2,-1,-3,0,0,0
1532068321542,4,1,0,0,1,-2,1,0
1532068321547,1,0,-1,0,-2,-2,-2,-3
1532068321552,-1,-2,-1,-1,0,1,0,1
1532068321557,-5,0,0,0,0,-2,-3,-4
1532068321562,4,-5,-3,-1,1,-1,-4,-4
1532068321567,-2,3,1,0,-1,0,0,3
1532068321572,5,2,-2,-2,-2,-1,-2,-2
1532068321577,-2,1,-1,-1,1,0,-1,-2
1532068321582,5,0,2,-1,-2,0,-3,4
1532068321587,0,-1,13,-1,-1,-1,1,-1
1532068321592,-2,0,0,1,-1,-1,1,-1
1532068321597,0,0,4,1,0,-1,0,-3
1532068321602,-4,-3,-3,-1,-2,0,0,-1
1532068321607,1,-2,-5,-1,0,-1,0,-2
1532068321612,-3,0,-2,0,0,0,-2,1
1532068321617,-1,-1,-2,-1,0,-1,-1,0
1532068321622,-2,1,-2,-1,-3,-1,-1,2
1532068321627,1,1,-4,-1,1,0,0,3
1532068321632,-2,0,0,1,-2,-2,0,-1
1532068321637,-8,-4,-6,-4,-4,-3,-1,0
1532068321642,-2,0,1,0,1,-1,-2,-4
1532068321647,1,0,-3,0,-1,0,-2,3
1532068321652,2,-3,0,-1,-2,0,-1,-4
1532068321657,-2,-2,0,0,-2,0,0,-1
1532068321662,-9,-2,-2,-1,-3,1,0,5
1532068321667,-3,0,-4,-1,-3,-2,-2,-1
1532068321672,-2,-2,1,-3,0,-1,-2,-4
1532068321677,3,0,-1,1,1,0,0,-1
1532068321682,-1,-1,-1,-2,-1,0,1,-4
1532068321687,0,-2,0,-1,-1,0,-1,0
1532068321692,-4,-4,1,0,-1,0,-1,0
1532068321697,0,-1,-2,0,-1,-1,0,-1
1532068321702,2,-1,0,-1,-1,-1,-3,-2
1532068321707,0,2,-3,-1,0,-2,-1,-2
1532068321712,1,2,-2,0,0,-3,-1,0
1532068321717,-1,1,2,-1,1,-1,-3,-1
1532068321722,-1,-1,1,-1,-2,-1,-1,0
1532068321727,-5,0,-1,-1,1,1,0,-2
1532068321732,8,-2,-3,-3,-2,0,-1,-3
1532068321737,1,-2,-1,0,-2,0,0,-2
1532068321742,-4,-2,-1,0,0,0,-1,-5
1532068321747,-1,1,-9,-2,-3,-1,-3,-1
1532068321752,-3,-6,2,0,-3,0,0,1
1532068321757,1,0,0,-1,-1,0,-2,-1
1532068321762,1,-2,-5,-2,0,-1,-1,-2
1532068321767,0,-4,-2,-1,-1,-1,-1,1
1532068321772,-3,4,-3,0,0,0,-1,0
1532068321777,6,1,-3,2,0,-1,-1,3
1532068321782,-3,-2,0,-2,-1,0,0,0
1532068321787,-1,-3,5,0,-1,1,1,-1
1532068321792,-3,0,0,-1,1,1,0,0
1532068321797,-3,-2,-1,0,-1,-2,0,1
1532068321802,2,0,0,0,-2,-1,-1,0
1532068321807,3,-3,1,-1,-2,-2,1,-2
1532068321812,-2,0,-3,0,0,-1,0,3
1532068321817,6,-1,-5,-3,-1,-2,-2,-3
1532068321822,-1,-1,-1,1,-1,0,0,-3
1532068321827,0,-1,-1,0,0,-1,0,-2
1532068321832,-1,-2,0,0,-3,-2,1,-1
1532068321837,-3,0,1,-2,0,0,1,-1
1532068321842,0,1,0,-1,-2,1,1,1
1532068321847,0,-1,0,0,0,-2,-3,-1
1532068321852,-3,3,1,-2,-1,-2,-2,-3
1532068321857,-1,1,1,-1,0,1,0,0
1532068321862,2,-4,-1,0,0,-2,-3,0
1532068321867,-2,0,-2,-1,-1,-2,-1,0
1532068321872,1,0,-1,-1,1,-1,-2,-1
1532068321877,-3,1,-2,-1,-1,-1,0,1
1532068321882,5,-1,2,1,-1,1,0,1
1532068321887,-5,-2,-1,-1,-3,0,-2,-2
1532068321892,-5,-2,0,-1,-1,1,0,-2
1532068321897,2,-2,-1,1,-1,-1,-2,0
1532068321902,-8,0,0,0,-2,-2,1,2
1532068321907,5,1,6,1,0,-1,-1,-2
1532068321912,-3,0,-2,0,-2,-1,-1,0
1532068321917,-3,1,-11,-2,-2,0,-1,-2
1532068321922,-4,-7,2,1,-1,-1,0,-2
1532068321927,1,2,-4,-1,-1,0,1,2
1532068321932,0,-1,-2,0,0,0,-1,-2
1532068321937,-1,0,-1,-1,-2,0,-1,-3
1532068321942,2,2,-2,-2,0,0,-2,-3
1532068321947,-2,-2,-1,-1,-1,-1,0,0
1532068321952,3,0,3,-1,-2,-1,-1,-2
1532068321957,2,-1,1,-1,-2,-1,0,0
1532068321962,1,2,-2,0,1,-1,0,0
1532068321967,2,-2,1,0,-1,-1,0,-1
1532068321972,-3,3,-1,-1,-1,-1,1,-4
1532068321977,-4,-3,1,-1,1,0,-1,5
1532068321982,1,2,-1,-1,0,-1,-2,-1
1532068321987,0,1,-1,0,-1,0,-1,-2
1532068321992,5,0,-1,-1,-1,-1,1,2
1532068321997,-1,-4,0,0,0,-1,-2,-5
1532068322002,-1,0,-1,-2,-1,0,0,-2
1532068322007,-5,-2,-2,-3,-1,-1,0,1
1532068322012,8,1,-3,0,1,-3,-4,-1
1532068322017,-2,0,1,-2,-2,-2,-1,-1
1532068322022,-1,-1,-1,-1,-1,-2,-1,0
1532068322027,0,0,-5,0,-1,1,-1,0
1532068322032,-4,-2,0,-1,-1,0,0,3
1532068322037,0,2,2,-1,-1,-1,1,-3
1532068322042,1,-3,-3,-1,1,0,-1,0
1532068322047,-2,0,-2,-1,-1,-1,-2,3
1532068322052,0,-1,1,0,-2,0,-1,-3
1532068322057,0,-1,-2,-2,-1,-2,-2,-4
1532068322062,0,1,-1,-1,-1,-1,-1,-2
1532068322067,-2,-1,-1,-1,-2,-1,-1,-3
1532068322072,-1,0,-1,-2,-1,0,-1,1
1532068322077,-4,0,0,1,0,0,0,0
1532068322082,-3,0,-1,0,-1,-2,-2,0
1532068322087,-4,-1,3,-1,-2,-2,1,0
1532068322092,2,-1,-5,-1,0,0,-3,-4
1532068322097,0,-2,-1,0,0,0,-1,-1
1532068322102,-9,0,1,-2,-4,0,-1,0
1532068322107,1,2,0,0,1,-1,-3,-5
1532068322112,-6,-2,0,-2,-2,-3,0,3
1532068322117,-1,-1,0,0,-2,-2,-1,-2
1532068322122,2,5,-3,0,-1,-2,2,0
1532068322127,-3,-6,-2,-2,0,-2,-2,-2
1532068322132,-3,-1,-5,-1,-1,0,-1,-2
1532068322137,2,0,5,1,-2,2,0,-2
1532068322142,-5,-1,-2,0,0,0,-1,-1
1532068322147,7,-2,-1,1,-1,-1,0,0
1532068322152,4,-1,2,-1,0,0,1,1
1532068322157,-3,4,-5,0,-2,-1,0,1
1532068322162,1,-4,-1,-1,-1,1,-1,-3
1532068322167,-4,2,1,-1,-2,-2,-1,-1
1532068322172,0,-3,2,-1,0,-1,-2,-3
1532068322177,0,-1,-2,0,0,-1,-1,-1
1532068322182,-4,-1,-2,0,-1,0,-1,0
1532068322187,-1,-1,1,-1,0,0,0,-3
1532068322192,-4,1,-2,0,2,0,1,-3
1532068322197,0,-2,0,-2,0,0,-1,2
1532068322202,0,-1,2,-3,-2,-2,-1,-5
1532068322207,-1,-1,-1,-1,-1,-1,0,1
1532068322212,-3,0,0,0,-1,-1,-2,-1
1532068322217,-3,-2,1,-2,-2,-1,-2,-2
1532068322222,3,0,2,-2,-1,0,0,1
1532068322227,4,2,-3,1,0,-1,-3,2
1532068322232,0,-1,0,-1,-2,0,-1,-1
1532068322237,-3,-1,0,-2,-2,0,-2,-2
1532068322242,10,0,-1,1,-1,-2,-1,-2
1532068322247,-3,-1,-2,-2,-1,0,-1,1
1532068322252,-3,0,1,-1,-2,-2,-1,-3
1532068322257,2,-1,-1,-1,1,1,0,-1
1532068322262,-5,-1,0,1,0,-2,0,-2
1532068322267,-5,-2,0,-2,-3,0,0,0
1532068322272,5,0,0,-1,0,-1,-2,-2
1532068322277,-5,-1,-4,0,-1,0,-1,-1
1532068322282,1,-7,2,-1,0,0,-1,0
1532068322287,-4,-1,1,-1,0,0,-1,-3
1532068322292,-3,-1,-4,0,-1,0,-1,3
1532068322297,1,-2,-3,1,0,-1,-2,1
1532068322302,0,0,-1,-1,-1,0,-1,0
1532068322307,5,0,0,0,-1,-1,-2,0
1532068322312,-1,-1,10,-1,-1,0,-1,0
1532068322317,1,1,2,-2,-2,-2,0,-1
1532068322322,-3,-1,-3,-1,-2,-1,-2,0
1532068322327,-1,-1,-2,0,-1,-2,-1,-3
1532068322332,2,-1,-3,0,-1,0,0,-2
1532068322337,-11,-3,-2,-1,0,-1,-2,-3
1532068322342,-1,1,1,-1,1,-1,-3,3
1532068322347,3,2,-1,-1,1,0,-1,0
1532068322352,-7,-1,0,-2,-2,0,-1,-2
1532068322357,19,-1,-1,-1,-1,-1,-2,-2
1532068322362,1,-1,-2,-1,-1,-1,-1,0
1532068322367,-2,-1,3,0,-3,-1,-1,-2
1532068322372,-5,0,-3,-3,-2,0,-1,0
1532068322377,0,-2,0,0,0,-1,0,2
1532068322382,-1,0,-1,0,0,-2,-1,-1
1532068322387,2,-3,0,1,1,-1,0,-2
1532068322392,-1,0,-1,0,2,1,0,2
1532068322397,-6,-1,-2,-1,-2,-2,-3,-1
1532068322402,0,0,1,-2,-1,-2,-1,-3
1532068322407,-1,1,-8,-1,-1,-1,-1,-3
1532068322412,1,-7,1,0,-2,0,1,2
1532068322417,-3,-1,1,-1,-2,-2,-1,-2
1532068322422,0,-1,1,0,-1,-1,-1,-1
1532068322427,-3,0,-2,-1,-2,-2,-1,-2
1532068322432,6,0,-5,0,0,-1,-1,-1
1532068322437,3,-1,0,-2,-1,0,1,1
1532068322442,-13,4,-13,-1,0,1,-1,-2
1532068322447,-3,-6,2,1,-1,0,0,3
1532068322452,7,1,1,-1,-2,0,0,-5
1532068322457,0,-1,0,-1,-1,0,0,0
1532068322462,3,1,1,1,-1,-1,-3,-3
1532068322467,-2,-1,-2,-4,-3,-1,0,-1
1532068322472,-6,-3,2,3,-1,1,0,1
1532068322477,-4,-2,-4,0,1,1,-1,-1
1532068322482,-2,-1,3,-3,-4,-1,-2,-4
1532068322487,0,0,2,-2,-1,-1,0,1
1532068322492,-1,-1,-2,-1,0,-3,-2,-1
1532068322497,1,7,1,-2,-1,-2,-1,-2
1532068322502,2,-7,3,-1,-1,1,2,-1
1532068322507,-1,-1,-1,-1,1,-1,2,-1
1532068322512,-1,0,-4,-1,0,-3,-2,0
1532068322517,-4,5,-3,-1,-1,-1,-2,-1
1532068322522,2,0,0,0,0,-2,-2,-1
1532068322527,2,-2,-3,-1,0,-2,-2,4
1532068322532,-3,2,0,0,-2,-1,-2,-1
1532068322537,-5,-3,-1,-1,-3,0,-1,-1
1532068322542,2,-2,-1,1,2,0,0,0
1532068322547,0,0,0,1,-1,1,-1,-3
1532068322552,1,0,-1,-3,-1,-1,-2,-1
1532068322557,-9,-4,-3,-1,-1,-1,-1,-3
1532068322562,0,-2,5,1,0,0,1,-1
1532068322567,5,-1,0,0,-1,0,-2,-2
1532068322572,3,2,0,-3,-1,-2,-1,-2
1532068322577,-4,-5,-2,0,-1,-1,-2,1
1532068322582,-3,4,-6,-2,-3,-2,-1,0
1532068322587,-3,-3,1,-1,-2,-1,0,1
1532068322592,-6,-1,1,0,0,0,-1,-1
1532068322597,6,-1,-2,-2,-1,-1,0,-1
1532068322602,-3,0,-1,-1,-1,1,-1,-1
1532068322607,-1,0,1,0,0,1,-1,4
1532068322612,0,-1,-1,-1,0,-1,-1,-1
1532068322617,1,-1,4,-1,-1,1,1,2
1532068322622,1,-2,1,1,-2,0,1,1
1532068322627,3,0,-6,-2,-1,0,-2,-3
1532068322632,-1,-7,1,0,-2,1,2,0
1532068322637,6,2,4,1,0,-2,-1,1
1532068322642,4,-3,-5,0,0,-3,-2,0
1532068322647,-2,2,-3,0,-1,0,-1,0
1532068322652,0,-1,-1,-1,-1,-1,0,1
1532068322657,2,-4,1,1,0,0,1,0
1532068322662,-1,2,2,-1,-2,0,-1,1
1532068322667,0,-4,1,-3,-2,-1,0,-5
1532068322672,-3,2,-2,-1,-1,0,-1,-1
1532068322677,-5,-1,-4,0,0,-1,-1,1
1532068322682,0,-3,-3,1,0,-2,1,-2
1532068322687,-2,0,3,-1,2,0,-1,-5
1532068322692,-1,0,-4,-1,-2,-1,0,4
1532068322697,2,1,-2,0,0,0,-2,0
1532068322702,-7,0,0,-1,-1,0,-1,0
1532068322707,2,1,0,-1,-1,-1,0,-4
1532068322712,-13,-2,-1,1,0,0,-1,-4
1532068322717,0,-7,0,-2,-2,-1,-1,-1
1532068322722,-1,0,2,-2,-2,-1,-1,0
1532068322727,-2,-3,-2,0,1,-1,0,2
1532068322732,3,2,1,-2,-1,-1,-1,1
1532068322737,-3,0,1,-2,-1,1,-1,-3
1532068322742,-3,2,-13,-1,-1,-1,-3,-2
1532068322747,-1,-2,2,-2,-1,-1,-1,1
1532068322752,1,-1,0,-1,-1,-2,1,-3
1532068322757,1,1,-2,-2,-1,-1,0,2
1532068322762,-4,1,3,1,0,1,0,3
1532068322767,16,-1,-3,-2,-1,0,0,-5
1532068322772,5,-1,5,0,-1,-1,-3,-2
1532068322777,-14,-1,-2,1,1,-2,-2,-5
1532068322782,4,-1,-1,-1,-1,0,0,-1
1532068322787,-7,-8,3,1,0,-2,-1,1
1532068322792,-2,-1,-1,0,-1,-2,-2,-2
1532068322797,-1,-5,1,-2,-2,-2,0,-1
1532068322802,1,-3,1,-2,-1,0,-2,-1
1532068322807,-4,3,-1,0,-1,0,-3,-1
1532068322812,3,-1,-2,-1,0,1,-2,1
1532068322817,0,-2,2,0,-1,1,0,0
1532068322822,0,0,-3,-2,0,-2,-1,-1
1532068322827,-3,2,-2,-1,-1,-3,-2,5
1532068322832,-3,-1,-1,-1,-2,-2,-1,-2
1532068322837,-7,1,-2,-1,-2,-1,1,1
1532068322842,1,-2,2,0,1,-2,-1,-4
1532068322847,-3,-1,-2,-1,0,-1,-1,1
1532068322852,-3,-5,-2,0,-1,-1,0,-1
1532068322857,6,2,2,2,-1,0,-1,2
1532068322862,4,-1,-4,-2,-1,1,-2,-1
1532068322867,-3,-2,7,1,-1,-1,0,-4
1532068322872,-6,1,-4,-1,-1,0,-2,-2
1532068322877,1,-9,6,0,-1,0,-2,-1
1532068322882,0,-2,2,-1,-3,-1,0,-1
1532068322887,0,1,-2,-2,-1,0,-1,2
1532068322892,2,-1,-4,-1,1,0,0,0
1532068322897,-1,4,-3,-1,-2,-2,-3,-5
1532068322902,-4,-2,1,0,0,-1,0,-2
1532068322907,-6,0,-1,1,2,0,1,1
1532068322912,1,-1,2,0,-2,-1,0,1
1532068322917,3,4,-1,-2,-2,-1,-1,-4
1532068322922,-4,0,2,0,0,0,0,2
1532068322927,0,0,-4,-1,-1,-1,-1,-2
1532068322932,-2,3,5,2,-2,-2,-2,-1
1532068322937,3,-3,-3,-4,0,-1,0,1
1532068322942,1,-2,-2,0,0,-1,-3,-1
1532068322947,-2,1,-1,2,-1,-1,0,0
1532068322952,-6,-3,-1,-3,-2,-1,-2,-3
1532068322957,-1,1,-3,-1,-1,-1,-2,-2
1532068322962,-3,-2,0,1,0,-2,1,0
1532068322967,1,-3,-2,-1,-2,0,0,-1
1532068322972,-2,-2,-1,-1,-1,-1,0,2
1532068322977,1,0,-4,-2,-1,2,-1,-2
1532068322982,-3,-3,0,-2,-3,-1,-1,-2
1532068322987,10,-1,0,-3,-2,-3,-3,-3
1532068322992,0,-5,6,2,0,0,0,0
1532068322997,-3,-2,-1,-1,0,-1,0,1
1532068323002,-1,1,-2,-1,0,1,-3,0
1532068323007,4,2,-3,-2,0,-2,1,1
1532068323012,-2,2,-5,-1,-1,-1,-4,-4
1532068323017,5,-5,0,-1,-2,-1,-3,-2
1532068323022,-3,-2,-1,-2,-1,-2,1,-3
1532068323027,-2,1,-1,-1,1,0,-1,0
1532068323032,-2,-1,2,-2,-1,0,1,-1
1532068323037,-2,0,1,1,-1,-1,0,0
1532068323042,3,2,-4,-1,-1,-2,-2,0
1532068323047,-6,-2,0,-1,-2,-2,0,-1
1532068323052,1,1,0,-2,-2,-1,2,0
1532068323057,6,-3,-3,-1,0,-1,-1,-5
1532068323062,1,-1,0,-1,-4,-2,0,1
1532068323067,-5,1,2,1,1,2,-1,0
1532068323072,4,0,-4,-2,0,0,0,-2
1532068323077,2,1,0,0,-1,-2,-1,2
1532068323082,2,0,-1,-3,-2,1,-1,-1
1532068323087,-5,0,7,2,-1,-1,-1,-2
1532068323092,-2,2,-14,-3,-1,-1,-2,-2
1532068323097,-7,-6,-1,0,-1,1,0,0
1532068323102,-3,-3,2,0,1,0,0,-1
1532068323107,-3,-2,-6,-1,-1,-1,-1,0
1532068323112,1,-7,0,3,-1,0,0,-1
1532068323117,0,4,1,0,-1,0,0,-3
1532068323122,4,0,-2,0,-1,-2,-1,2
1532068323127,1,1,-3,-1,1,-1,-1,1
1532068323132,-5,0,-2,-1,0,-2,-1,-2
1532068323137,0,-1,3,-1,-2,-2,-1,-3
1532068323142,-5,-3,2,-2,-1,0,-1,1
1532068323147,5,3,-6,-1,-1,-2,-5,-2
1532068323152,-4,-3,5,1,-2,-1,0,-2
1532068323157,-1,2,-9,-1,0,-1,-2,-1
1532068323162,1,-7,6,2,0,0,0,1
1532068323167,-1,-1,1,0,-3,0,-1,1
1532068323172,-10,6,-2,-2,0,-1,-3,-1
1532068323177,-1,-1,-5,-2,1,0,-2,-2
1532068323182,-3,3,-2,-3,-1,-2,-1,-1
1532068323187,1,-2,-1,-4,0,-1,-1,-1
1532068323192,2,-1,0,-1,-1,1,0,1
1532068323197,-4,0,1,1,-2,-1,0,2
1532068323202,6,1,1,-1,-2,-2,-2,0
1532068323207,-3,0,2,-1,0,-1,-2,-1
1532068323212,-1,-4,-4,-1,-1,-2,-2,-3
1532068323217,-2,-4,0,-4,-1,-1,0,0
1532068323222,-3,-2,0,-1,-2,-1,-1,-2
1532068323227,-5,-1,-4,0,2,-2,0,0
1532068323232,3,-3,-1,-1,-2,1,-3,1
1532068323237,12,-1,0,-2,0,1,-1,-2
1532068323242,-4,1,-3,-3,-1,-1,0,0
1532068323247,0,5,12,2,-2,0,0,-2
1532068323252,-1,-4,8,-2,-1,-1,2,-1
1532068323257,-5,-2,0,0,-2,-1,-1,-1
1532068323262,-2,-1,-3,-1,0,0,-1,1
1532068323267,3,-6,-3,-1,-2,-1,-2,-1
1532068323272,-12,2,0,-1,-2,0,-1,-1
1532068323277,-3,-1,-3,0,1,2,0,2
1532068323282,2,4,0,0,0,-2,0,-2
1532068323287,-4,-1,-3,-4,-1,-2,-1,-2
1532068323292,2,0,-3,-1,0,0,-1,-1
1532068323297,-7,1,-7,-1,0,-1,-1,1
1532068323302,13,-1,6,2,-1,0,0,-3
1532068323307,18,-2,0,1,-1,2,0,0
1532068323312,-18,-4,-6,-1,0,-2,-1,-3
1532068323317,-1,1,5,0,-3,0,-2,-1
1532068323322,-2,0,-2,-1,0,0,-1,-2
1532068323327,-2,5,-8,-1,-2,-1,-2,2
1532068323332,5,-19,11,2,1,0,-2,0
1532068323337,0,0,-1,-1,-1,-1,-1,0
1532068323342,-5,-8,0,-1,1,1,-2,0
1532068323347,-4,0,-1,1,-1,-1,0,0
1532068323352,7,14,4,-5,-4,-2,-2,-2
1532068323357,-4,-5,5,-2,-3,-1,0,0
1532068323362,0,0,0,2,-1,-1,-1,2
1532068323367,-1,2,-1,-10,-1,0,-1,-3
1532068323372,-4,0,-5,0,-1,0,0,-2
1532068323377,1,-9,-3,-1,1,-2,-2,-3
1532068323382,-4,2,-3,-2,0,-2,-3,-4
1532068323387,-8,-2,-26,-1,-1,-1,1,-2
1532068323392,8,1,7,2,1,0,-1,0
1532068323397,-2,-1,0,-1,0,0,-1,-1
1532068323402,-2,-1,1,-1,-1,-1,-1,-3
1532068323407,-12,0,-2,-2,-1,-1,-1,-1
1532068323412,2,1,-6,-1,0,0,0,0
1532068323417,1,-6,7,1,-2,0,0,0
1532068323422,1,5,0,-1,-3,-1,-2,-2
1532068323427,1,0,2,-2,0,-1,-1,-3
1532068323432,-6,3,-7,-1,-1,0,0,3
1532068323437,-5,1,1,-1,0,-1,0,-2
1532068323442,6,3,-6,0,1,2,1,4
1532068323447,-4,-2,8,0,0,0,0,1
1532068323452,-1,-1,-1,0,-1,0,1,-1
1532068323457,-3,1,-3,-2,-1,-1,0,-3
1532068323462,-1,-3,0,-2,-1,0,-1,1
1532068323467,6,-2,0,1,-3,-2,-3,2
1532068323472,6,0,8,-1,0,0,-1,-2
1532068323477,-8,1,3,1,0,0,-2,1
1532068323482,-1,-4,-6,-2,-1,-1,0,-1
1532068323487,9,-1,-1,-1,-1,-1,-1,-4
1532068323492,-5,-7,9,1,-2,0,0,-4
1532068323497,4,2,0,4,0,-2,0,1
1532068323502,4,-1,-1,1,-1,-1,-1,2
1532068323507,-2,2,-4,-2,-1,0,1,0
1532068323512,-7,-3,-3,-2,0,-1,0,0
1532068323517,9,-3,1,3,-1,-1,-1,-1
1532068323522,-10,4,3,-11,-4,-2,-2,-2
1532068323527,1,1,-3,1,-2,-1,0,0
1532068323532,-1,0,-5,0,-1,0,-2,0
1532068323537,-3,-3,-2,-3,-1,0,1,-2
1532068323542,1,0,-1,1,-1,-2,-1,-2
1532068323547,-3,-4,-5,-1,-1,0,-1,1
1532068323552,-2,3,-3,1,-1,-2,0,-1
1532068323557,-11,-2,3,0,-1,1,2,1
1532068323562,2,-1,-10,2,1,-1,-2,-4
1532068323567,-1,-2,-5,-5,-2,-1,-1,0
1532068323572,0,-4,2,2,-2,-1,2,0
1532068323577,-6,-1,0,-1,0,0,-2,-4
1532068323582,3,-2,-2,1,1,0,0,1
1532068323587,-2,1,1,-1,-1,0,-1,-2
1532068323592,1,0,-10,-4,-1,-1,0,-2
1532068323597,8,-1,13,1,0,-1,-2,2
1532068323602,-1,-3,1,-1,0,-2,-1,-1
1532068323607,2,-3,1,1,1,0,-1,-1
1532068323612,2,2,-5,-2,2,-2,-2,0
1532068323617,-2,0,-1,-1,-2,0,0,-4
1532068323622,-6,2,0,0,-3,-1,1,1
1532068323627,9,3,5,-1,1,-2,-3,-2
1532068323632,-6,-5,3,-2,-1,-1,0,0
1532068323637,-4,-3,-2,-4,-1,-1,0,-3
1532068323642,2,1,3,-1,0,0,0,1
1532068323647,-6,-4,-2,4,0,-2,1,2
1532068323652,-2,5,-2,-2,-3,-2,0,1
1532068323657,1,-1,0,0,-1,-1,0,-1
1532068323662,-1,0,-8,-3,-1,0,-2,-2
1532068323667,-3,-1,-1,0,1,-1,-1,0
1532068323672,1,-1,2,-1,-2,0,-1,-2
1532068323677,-3,0,-1,0,1,0,2,2
1532068323682,-4,0,2,0,-2,-2,-3,-2
1532068323687,2,0,1,-3,-3,-2,0,0
1532068323692,-2,-3,1,-1,-1,-2,-1,-1
1532068323697,-2,-2,-4,-1,-1,-2,-2,-1
1532068323702,8,-2,-3,-2,-1,0,-1,-3
1532068323707,-4,-4,0,-1,-1,0,-1,-1
1532068323712,0,1,-5,-1,1,1,-2,0
1532068323717,3,-1,-4,1,-1,-2,-2,2
1532068323722,0,2,3,2,-2,-1,-1,-2
1532068323727,-2,-2,-4,-2,-1,-1,0,-1
1532068323732,0,-2,-2,-1,-1,-1,-1,-2
1532068323737,3,-3,-1,-2,-3,-2,-3,1
1532068323742,-1,3,-3,0,-1,0,-1,-2
1532068323747,-5,2,-11,-3,-1,-2,-4,-1
1532068323752,-2,0,1,0,-2,-1,-3,-1
1532068323757,-3,2,2,-1,-2,0,0,-3
1532068323762,-3,-6,-2,0,2,0,0,3
1532068323767,8,2,-1,1,0,0,-2,-2
1532068323772,1,-1,0,-1,0,0,0,-1
1532068323777,-2,-1,-4,-1,0,1,0,-1
1532068323782,-5,0,-2,-2,-2,-3,-1,-2
1532068323787,5,-2,4,-2,-3,1,-1,-1
1532068323792,0,-1,1,1,-2,0,0,0
1532068323797,-3,-2,0,0,1,-1,-3,-3
1532068323802,-6,-2,0,-1,-2,-1,-1,2
1532068323807,-4,-2,1,-2,-1,1,0,-1
1532068323812,0,2,0,-1,0,0,-2,1
1532068323817,0,0,-3,-2,-1,-1,-1,0
1532068323822,0,-2,1,-1,-1,1,0,0
1532068323827,-4,-1,-1,1,-1,-1,1,0
1532068323832,0,-2,-2,0,0,-1,-1,-3
1532068323837,-4,0,2,-1,-2,0,-1,-2
1532068323842,6,-5,-3,-2,-2,-1,-1,-2
1532068323847,-4,-2,0,0,1,-1,1,0
1532068323852,0,-1,-1,0,-1,-2,-1,-1
1532068323857,-1,-4,3,0,0,0,-1,2
1532068323862,-2,-1,-3,1,1,-2,-1,-1
1532068323867,-1,-7,7,0,-2,-1,-1,0
1532068323872,1,2,-1,-1,-1,0,-1,-1
1532068323877,-4,0,-20,-2,0,-1,-3,-4
1532068323882,6,-4,0,-1,-1,1,0,-1
1532068323887,-15,-3,-3,-1,-2,-1,-1,-3
1532068323892,-1,-1,3,0,0,0,1,0
1532068323897,5,1,-2,-1,-3,-2,-2,0
1532068323902,-6,4,2,-2,-1,-1,-1,-3
1532068323907,3,0,-3,-1,0,-3,-1,-4
1532068323912,-2,1,-4,-2,0,0,-2,2
1532068323917,-6,-7,0,2,-1,-2,1,-1
1532068323922,-5,1,2,-1,-1,-1,1,1
1532068323927,6,4,0,0,1,0,-1,1
1532068323932,-3,-3,-10,-1,-1,-2,-3,-3
1532068323937,1,-1,7,-2,-2,1,1,2
1532068323942,3,-3,1,1,2,-1,-2,-3
1532068323947,-3,2,-1,-3,-2,0,-2,-1
1532068323952,-3,-3,10,-1,-3,-2,0,2
1532068323957,15,2,0,-1,0,-1,-1,-3
1532068323962,0,-5,-5,0,-2,-1,0,0
1532068323967,-3,1,6,1,0,0,-1,0
1532068323972,0,-1,-3,0,0,-1,1,-1
1532068323977,0,-1,-2,-1,1,0,-1,-1
1532068323982,-1,3,3,-1,1,-1,1,0
1532068323987,1,3,-3,-1,-2,-1,0,-2
1532068323992,-5,-7,1,-3,-3,1,1,-3
1532068323997,-7,0,3,0,0,-2,0,2
1532068324002,1,0,-4,-2,-2,0,-2,0
1532068324007,4,1,-1,0,0,0,1,0
1532068324012,-14,-1,0,0,-1,-1,-1,-3
1532068324017,-10,-3,-5,0,-1,0,0,2
1532068324022,8,-1,-5,-5,0,-2,-2,-6
1532068324027,-4,-8,-1,-1,2,0,0,2
1532068324032,6,4,1,1,1,-1,-1,0
1532068324037,-4,-1,1,-2,-2,-1,1,-2
1532068324042,2,0,1,-1,-1,1,-1,1
1532068324047,-1,1,-3,-1,-1,-2,-1,0
1532068324052,1,-6,0,0,0,1,0,0
1532068324057,6,3,-9,-1,0,-1,-2,-3
1532068324062,-7,-12,1,1,0,-1,1,1
1532068324067,1,0,-2,0,-2,0,-2,-2
1532068324072,3,0,-4,-2,-2,-2,-2,-1
1532068324077,-4,0,-2,-1,0,0,-2,1
1532068324082,-5,1,-7,-3,-3,-3,-3,-2
1532068324087,4,-1,-1,-2,-4,0,1,0
1532068324092,-8,-2,-2,-1,1,-2,-1,-1
1532068324097,0,1,4,0,-1,2,-1,0
1532068324102,0,1,1,-1,-2,-2,0,0
1532068324107,0,-1,0,-1,-2,-2,-1,-2
1532068324112,1,0,-3,-1,-2,0,-1,3
1532068324117,1,-1,-2,-1,-2,-1,-1,-3
1532068324122,-2,0,0,2,1,0,-2,-1
1532068324127,-7,-1,-5,-3,-1,-1,-2,1
1532068324132,-2,0,1,-1,-2,-2,-1,-1
1532068324137,6,3,2,0,-1,-3,-2,0
1532068324142,0,-3,1,-1,-1,0,2,-1
1532068324147,1,2,3,0,0,-2,-1,-2
1532068324152,0,-2,1,-2,-3,1,-1,2
1532068324157,3,-4,2,1,0,1,1,2
1532068324162,0,4,-4,2,1,-1,-1,-1
1532068324167,-3,-4,-3,0,-2,-2,-2,-1
1532068324172,0,1,-1,0,0,-1,0,-1
1532068324177,-1,4,-7,-3,0,-1,-4,-4
1532068324182,-4,1,1,1,0,0,0,0
1532068324187,0,-3,-3,-2,-1,0,1,-1
1532068324192,3,1,0,-1,1,0,1,-2
1532068324197,-2,-3,0,3,0,-1,0,-1
1532068324202,-1,-1,-2,-4,-1,0,-1,-3
1532068324207,-1,0,2,1,-1,-1,-2,-4
1532068324212,1,-1,-5,-1,-1,-2,0,-1
1532068324217,-3,-2,0,-3,-2,-1,-1,-1
1532068324222,2,-2,0,0,-1,-1,-1,-1
1532068324227,-6,-2,-2,1,0,-1,0,0
1532068324232,1,0,0,1,1,0,-2,1
1532068324237,-2,-3,3,-1,-2,0,1,-1
1532068324242,-3,1,0,-1,-1,0,-1,0
1532068324247,2,3,4,0,0,0,1,1
1532068324252,10,2,-2,-2,-3,-2,-2,-5
1532068324257,-6,-9,5,0,-1,-2,1,0
1532068324262,-3,-1,4,0,-2,-2,-1,-1
1532068324267,6,-4,-2,0,-2,-1,-2,-1
1532068324272,-1,2,-3,-1,-1,0,-1,-2
1532068324277,-3,-4,-1,2,0,1,1,0
1532068324282,2,-1,-3,1,-2,-1,-1,-1
1532068324287,-3,-4,-2,-2,-1,0,-1,-1
1532068324292,0,1,-1,1,0,-2,0,-1
1532068324297,0,1,-1,-2,-1,-2,-1,-3
1532068324302,0,3,-2,0,-1,0,-1,0
1532068324307,-4,-4,-1,-1,-2,-1,-2,0
1532068324312,-2,4,-10,-1,-1,-1,-1,0
1532068324317,-1,-5,6,-1,-1,0,0,0
1532068324322,-4,-3,0,-2,0,-1,0,-1
1532068324327,8,2,-3,-2,-1,-4,1,-3
1532068324332,-4,1,-2,-1,0,0,-1,-2
1532068324337,-6,-4,-2,1,0,0,-1,0
1532068324342,12,2,3,0,-1,-2,-2,0
1532068324347,-10,-1,-4,0,1,0,-1,1
1532068324352,2,-5,7,0,-4,0,0,-1
1532068324357,2,2,-1,-1,-3,-2,0,0
1532068324362,-10,-5,2,0,-1,-1,-1,-2
1532068324367,-2,-1,-1,-2,-1,-2,-1,0
1532068324372,1,0,18,1,0,0,1,0
1532068324377,-1,-3,3,0,1,1,-1,1
1532068324382,3,0,-3,-1,-1,-1,-1,1
1532068324387,0,1,1,1,-1,1,-1,-1
1532068324392,-3,-1,-7,0,0,-2,-2,-1
1532068324397,-2,1,-2,-1,0,0,2,3
1532068324402,13,2,-8,-4,-3,-2,-2,-3
1532068324407,-2,-3,6,1,0,-2,0,-2
1532068324412,-5,-3,-2,-2,-1,0,0,-3
1532068324417,2,-3,-29,-5,-5,-3,-3,-1
1532068324422,-2,1,-4,0,-1,-1,-1,-3
1532068324427,-1,2,-2,0,0,-1,-3,2
1532068324432,7,3,3,1,0,-1,-2,-1
1532068324437,0,12,-20,-6,-2,-1,-3,-4
1532068324442,-5,-8,5,3,-1,1,3,2
1532068324447,1,1,-2,-1,-1,0,0,-1
1532068324452,-2,-1,3,-2,-3,-2,0,-3
1532068324457,-1,1,4,0,-2,0,-1,-3
1532068324462,-1,6,-2,-2,0,0,-3,3
1532068324467,-4,-3,8,0,-3,1,-2,0
1532068324472,-7,0,-5,-3,-1,-2,-1,1
1532068324477,6,-1,6,0,0,-1,-2,-3
1532068324482,-4,-1,1,-1,1,-2,1,-1
1532068324487,1,-2,-3,-1,-2,-2,0,-1
1532068324492,-17,0,7,0,2,0,1,1
1532068324497,12,0,3,-2,1,-3,-2,-1
1532068324502,-5,0,2,-1,-2,1,-2,-5
1532068324507,-2,-3,0,-2,-1,-1,-1,0
1532068324512,5,0,-8,-3,0,-1,-1,-1
1532068324517,-6,0,7,-2,-1,-3,-2,-1
1532068324522,-1,-8,2,-1,-1,0,-1,-1
1532068324527,0,3,-8,-1,-1,-1,-2,-1
1532068324532,2,-3,11,0,0,0,-1,-1
1532068324537,-5,-1,4,-2,-2,-1,0,-1
1532068324542,-2,-1,-4,0,1,-1,-2,1
1532068324547,-4,2,1,-1,-2,-1,-2,0
1532068324552,14,-3,-4,-2,-3,-1,0,0
1532068324557,-3,-1,0,-1,0,-3,-1,-2
1532068324562,-2,0,2,-1,-1,-1,-2,3
1532068324567,1,-1,0,-2,-1,0,-1,-3
1532068324572,0,-2,-3,-1,-1,-2,-1,0
1532068324577,-4,-1,2,1,-1,-1,1,-1
1532068324582,-5,-1,-2,-2,-3,-2,-1,-1
1532068324587,4,1,-1,-2,0,0,0,-1
1532068324592,-1,-1,-4,0,1,0,0,3
1532068324597,0,0,6,0,-3,2,0,5
1532068324602,2,2,-7,-2,-2,-2,-2,-1
1532068324607,-2,-7,-1,0,0,-2,-1,0
1532068324612,0,-1,-5,0,0,-1,-1,1
1532068324617,-9,-4,11,1,-1,-1,1,0
1532068324622,6,4,-3,-1,0,-1,-1,-4
1532068324627,-4,-1,-2,-1,0,-1,-2,-1
1532068324632,-3,-4,-11,-5,-3,-2,-3,-4
1532068324637,-3,1,-1,-2,0,-1,0,-2
1532068324642,-4,-2,1,0,-2,-1,1,1
1532068324647,0,1,2,0,-3,1,0,1
1532068324652,0,1,-1,-1,0,1,-1,0
1532068324657,-2,-1,-6,-1,1,0,-2,-2
1532068324662,7,1,-1,0,0,-1,1,1
1532068324667,-2,-3,-6,-1,-1,-2,-1,-5
1532068324672,-2,-2,-2,2,2,0,-1,2
1532068324677,-3,1,-32,-3,-2,-1,0,-2
1532068324682,2,-7,5,-1,-2,0,1,1
1532068324687,-4,2,2,0,0,1,-1,0
1532068324692,-1,-3,6,2,0,0,-1,-2
1532068324697,4,6,-2,-4,-1,-2,-2,-3
1532068324702,-6,-2,-2,-1,-1,-1,-1,-1
1532068324707,-1,0,-3,0,0,-1,0,2
1532068324712,4,-2,-3,-1,-2,-1,-2,-1
1532068324717,-2,-7,5,3,-1,-1,0,-1
1532068324722,-5,-1,-14,-2,1,-1,-1,0
1532068324727,2,-3,8,0,-1,1,1,-1
1532068324732,-2,-3,6,-2,-2,-1,0,-2
1532068324737,2,0,3,0,0,-1,1,1
1532068324742,-1,-1,-1,-1,-2,0,-2,-1
1532068324747,-1,-1,-1,-2,-1,-1,1,-4
1532068324752,-1,1,-1,-2,0,-2,-1,-1
1532068324757,-2,0,2,0,0,-1,-2,0
1532068324762,-4,-1,1,-1,-1,0,-3,-1
1532068324767,0,0,0,-2,0,-1,-1,-2
1532068324772,0,0,-1,0,0,1,0,4
1532068324777,-1,-2,2,0,-1,-2,-1,-1
1532068324782,6,3,10,0,-2,-3,-2,-2
1532068324787,-1,1,-2,-1,-2,-1,0,1
1532068324792,5,-6,-5,-1,-3,-2,-2,-2
1532068324797,5,-2,5,-1,-3,1,-2,-2
1532068324802,0,-4,-15,-2,-1,-2,-2,-2
1532068324807,2,4,28,3,-1,-1,-1,0
1532068324812,-2,2,3,-3,-1,-2,0,2
1532068324817,-2,0,0,-1,0,-1,0,0
1532068324822,-2,0,-1,0,0,-2,1,-2
1532068324827,-3,-1,-11,-1,-1,-1,-1,2
1532068324832,-6,2,2,0,0,0,-1,-3
1532068324837,-1,-2,5,1,1,0,0,-1
1532068324842,-4,-2,1,-1,0,-3,-2,-1
1532068324847,1,-1,-4,-1,-2,-1,1,-2
1532068324852,0,1,-1,-2,-2,-3,0,-2
1532068324857,-1,0,-5,1,-1,0,-1,-1
1532068324862,-3,-1,7,0,-1,0,0,-3
1532068324867,2,-1,-7,-3,-1,0,-2,-2
1532068324872,-3,-1,-3,-1,1,0,-1,-1
1532068324877,-14,0,3,-1,-1,-1,0,1
1532068324882,12,1,1,-2,-1,0,1,-3
1532068324887,-10,-4,-2,-1,0,-2,-2,-1
1532068324892,6,-1,-4,0,0,0,-2,-1
1532068324897,0,3,-8,-1,-1,-2,-1,-1
1532068324902,-3,-5,2,-1,-1,-1,-2,0
1532068324907,-4,-1,-6,-1,1,0,0,1
1532068324912,1,-2,0,0,-2,-2,-1,-1
1532068324917,3,1,-4,-3,-1,0,-1,-2
1532068324922,-2,-3,-1,0,0,0,0,0
1532068324927,2,-2,-2,-4,0,-1,-1,-2
1532068324932,-4,2,-1,-2,-1,-1,0,-2
1532068324937,2,-1,-1,-4,-2,-1,-3,-2
1532068324942,-6,-1,0,0,0,0,0,0
1532068324947,7,0,2,1,-2,0,0,0
1532068324952,-4,-1,3,-1,-2,-1,0,0
1532068324957,-1,-3,-3,1,-3,-1,0,0
1532068324962,-2,1,1,-1,0,1,0,-2
1532068324967,-1,1,-1,-2,-2,-2,-2,4
1532068324972,-6,-2,-7,0,2,-1,-1,-1
1532068324977,1,0,2,0,-1,1,-1,-1
1532068324982,-4,-6,-2,-2,-1,-2,-1,0
1532068324987,2,4,-5,1,-1,-1,-1,-2
1532068324992,-1,1,2,-1,0,-1,-1,1
1532068324997,-1,-3,5,-1,-1,-2,1,-1
1532068325002,-1,2,3,0,0,0,1,-1
1532068325007,-2,-2,-6,-2,0,-1,-1,-2
1532068325012,2,6,-8,-2,-3,-3,-2,-2
1532068325017,1,-4,28,1,-2,0,0,1
1532068325022,0,4,-2,-3,-1,-1,-1,3
1532068325027,-1,-9,3,1,0,0,1,-1
1532068325032,2,2,3,2,-1,0,-1,-1
1532068325037,-9,-6,-2,1,2,1,1,1
1532068325042,13,0,-2,-2,-2,0,-3,-2
1532068325047,-3,2,0,-2,-3,0,-1,-3
1532068325052,-1,-3,2,0,-2,0,-1,-1
1532068325057,-4,0,-8,-1,-2,-3,-1,-1
1532068325062,0,0,-1,0,-1,-2,-2,1
1532068325067,1,-4,-5,-1,-1,-1,-1,-2
1532068325072,-2,1,0,-1,0,0,-1,0
1532068325077,6,-4,-6,-1,-2,0,-1,-1
1532068325082,-6,3,1,-1,-2,-1,2,0
1532068325087,8,2,-2,1,1,-1,-2,0
1532068325092,-2,-4,-1,0,0,0,0,1
1532068325097,3,3,1,-1,-2,0,0,-2
1532068325102,-3,-2,-3,-3,0,-1,0,0
1532068325107,-1,-3,0,-1,1,0,1,1
1532068325112,-8,-4,1,-3,-2,0,-1,2
1532068325117,11,0,-5,-2,-1,-2,-4,-4
1532068325122,-3,-2,-3,1,1,1,-2,0
1532068325127,-3,0,0,0,0,-1,-2,1
1532068325132,-5,-2,0,-2,0,0,1,-5
1532068325137,0,0,-3,0,-1,0,1,1
1532068325142,-1,2,-7,0,-1,-2,-1,-1
1532068325147,0,-1,0,-2,-3,-2,-1,-4
1532068325152,2,0,4,-1,-1,1,-2,-1
1532068325157,-6,-4,-3,-1,0,0,-1,0
1532068325162,-1,-2,-3,0,-2,0,-1,-2
1532068325167,-1,2,0,-3,-2,-1,0,-4
1532068325172,1,-5,-15,-2,0,-2,-1,1
1532068325177,-1,-2,6,1,0,0,1,0
1532068325182,-1,-1,2,-3,-1,0,-3,-1
1532068325187,-4,-1,-5,-1,1,-1,0,1
1532068325192,9,0,-1,0,0,-2,0,-2
1532068325197,-2,-2,-2,-1,-2,-2,1,-3
1532068325202,-4,-2,4,0,-1,0,0,1
1532068325207,9,-3,-1,-2,-3,-1,-3,-3
1532068325212,-4,-5,4,0,-3,-2,-1,-2
1532068325217,1,1,-3,-3,-1,-1,-2,-1
1532068325222,1,2,-1,0,0,-1,-2,-1
1532068325227,0,-1,1,-1,-3,1,-1,3
1532068325232,-14,0,1,1,0,-1,-2,-1
1532068325237,1,2,-6,-1,1,-1,-2,0
1532068325242,-2,-2,0,-2,-2,-2,2,3
1532068325247,-3,0,2,0,-1,-2,-1,-4
1532068325252,3,0,-2,-1,-1,1,0,-3
1532068325257,-4,6,3,-2,-2,-1,-3,0
1532068325262,-1,-2,0,-1,-3,-1,-2,-2
1532068325267,-6,-7,-2,0,-1,-1,0,0
1532068325272,9,4,31,2,1,1,1,3
1532068325277,-9,-2,-4,-1,-2,-2,-2,0
1532068325282,0,1,-3,-1,0,-1,-1,-5
1532068325287,-5,1,-2,0,1,-1,1,1
1532068325292,-5,0,-9,0,-1,0,-3,0
1532068325297,7,-3,-12,-4,-1,1,-2,-2
1532068325302,0,-1,4,0,1,0,-1,-2
1532068325307,-3,0,-3,0,0,-1,0,-1
1532068325312,-2,-1,-2,-3,-2,0,-1,-3
1532068325317,2,-1,0,0,-1,-1,1,0
1532068325322,-16,-6,-5,0,-2,-3,-1,-5
1532068325327,2,1,0,-2,-1,-3,0,0
1532068325332,2,-6,-9,-1,-2,-1,0,-1
1532068325337,0,-2,2,1,1,-1,-1,-1
1532068325342,2,2,-2,-2,1,-1,-2,-1
1532068325347,-3,-1,2,-1,-2,1,1,1
1532068325352,-1,0,-1,-1,-1,-1,0,-1
1532068325357,-1,-2,0,-1,-1,-1,-1,-1
1532068325362,3,-1,4,0,-3,-1,-2,-1
1532068325367,-4,0,-2,-1,-1,-2,-4,-2
1532068325372,1,-1,-5,-1,-1,-1,-2,-1
1532068325377,0,1,-1,-1,-1,1,0,2
1532068325382,13,-1,-2,-1,-1,1,-1,-2
1532068325387,0,5,-10,-1,0,-1,-2,-2
1532068325392,-1,-4,1,-1,-2,-1,0,3
1532068325397,-5,-2,2,1,-1,-2,1,-1
1532068325402,5,-4,5,1,0,-1,-1,2
1532068325407,1,2,-17,-2,-1,0,-3,-1
1532068325412,0,-3,3,-2,-2,-1,-2,-4
1532068325417,-12,-2,0,-2,-2,-1,-1,-3
1532068325422,1,5,-5,2,0,-1,0,1
1532068325427,2,-7,1,-2,-3,-2,0,5
1532068325432,-4,0,-7,-2,0,0,-3,0
1532068325437,-1,-4,-8,-2,0,0,-3,-2
1532068325442,2,1,0,0,-1,-2,-2,1
1532068325447,0,0,4,0,1,1,-2,-3
1532068325452,1,-1,5,0,-2,-2,1,0
1532068325457,1,3,-2,-1,-1,-2,-2,-1
1532068325462,-6,-3,-1,-1,-2,0,2,1
1532068325467,5,-2,2,-3,0,-1,-1,-1
1532068325472,-8,-2,-6,1,1,-2,-1,-1
1532068325477,2,3,2,-4,0,-2,-2,-1
1532068325482,-7,-1,-2,0,0,-1,-2,-4
1532068325487,-4,-4,9,3,1,-1,1,0
1532068325492,2,-3,2,0,1,1,1,-1
1532068325497,-2,-2,-1,-2,-2,-2,1,1
1532068325502,-3,-3,-9,-2,0,-2,-2,-2
1532068325507,0,5,6,2,1,1,-1,-2
1532068325512,-3,-5,-4,-3,-4,-1,0,-1
1532068325517,5,-2,0,0,2,0,1,-1
1532068325522,-2,1,-3,-2,-3,0,-1,0
1532068325527,3,-2,0,-2,-3,0,-1,-3
1532068325532,-14,2,-4,-1,-1,-3,-2,-1
1532068325537,-9,-4,-5,2,0,0,-1,-4
1532068325542,-7,-1,4,0,-1,0,1,-2
1532068325547,4,-1,8,3,-1,-1,0,-1
1532068325552,8,16,9,-3,0,-1,-2,1
1532068325557,-13,-25,12,-1,-2,-1,0,0
1532068325562,-5,-6,13,2,0,-2,-2,-3
1532068325567,-12,2,-15,-9,-4,-2,-2,-5
1532068325572,18,-1,6,-2,0,-2,-2,4
1532068325577,6,5,12,2,-1,-2,-2,2
1532068325582,2,-1,-11,-3,0,-1,0,0
1532068325587,-8,-1,-7,9,0,-2,0,1
1532068325592,-6,4,15,-15,-4,0,-2,-2
1532068325597,6,23,-8,-3,0,1,-2,0
1532068325602,-6,-29,12,0,1,2,0,-1
1532068325607,4,0,-10,1,-1,1,-1,1
1532068325612,-2,-1,-3,4,2,0,1,-2
1532068325617,1,-3,4,1,-3,0,2,0
1532068325622,2,9,-31,-9,-4,-2,-1,-3
1532068325627,14,7,11,-5,2,0,0,1
1532068325632,-7,-25,-7,0,3,2,2,-3
1532068325637,4,4,-22,29,-6,-3,-4,0
1532068325642,-14,2,-5,-9,-2,-2,0,4
1532068325647,3,12,-17,-4,0,-1,-1,-4
1532068325652,-3,5,-10,-2,-3,-1,-2,-4
1532068325657,-3,-13,1,-6,1,0,12,-1
1532068325662,4,-15,-5,1,-1,2,-11,2
1532068325667,-5,2,13,4,-1,-1,-2,-1
1532068325672,8,22,-4,-6,5,2,2,-3
1532068325677,-16,-26,-4,-12,-2,-1,-2,-6
1532068325682,16,-8,6,-10,-4,-1,10,5
1532068325687,-27,-7,-5,5,-1,-2,-15,0
1532068325692,2,5,3,5,2,-2,-3,1
1532068325697,6,9,7,-7,1,1,6,-1
1532068325702,1,14,2,-13,2,-1,-5,-3
1532068325707,-6,-4,-2,-5,0,-1,7,0
1532068325712,-3,-10,4,-12,-10,-3,-9,-5
1532068325717,-3,3,-1,5,2,1,0,-5
1532068325722,-20,3,6,10,1,-1,1,-1
1532068325727,20,1,-10,-18,-6,-2,-3,-2
1532068325732,0,-3,-8,8,2,1,5,-3
1532068325737,3,3,-6,-13,-5,-2,-5,3
1532068325742,-2,6,3,12,2,-1,-2,-4
1532068325747,-4,-8,2,-5,-3,-2,15,15
1532068325752,6,-2,-3,4,3,1,2,2
1532068325757,0,1,0,0,-6,-1,10,-20
1532068325762,10,1,-6,-3,0,-4,-51,4
1532068325767,-4,-2,8,6,1,1,6,-2
1532068325772,11,12,-1,12,-3,-1,-1,7
1532068325777,-28,-29,0,-11,3,1,4,-8
1532068325782,19,4,7,17,-5,0,27,-1
1532068325787,-17,-11,-1,-15,1,-1,-11,-10
1532068325792,-1,0,-4,8,2,-1,4,1
1532068325797,8,11,0,-8,0,-2,0,0
1532068325802,-1,1,-5,-4,-1,-2,-6,-14
1532068325807,2,-1,8,14,1,1,-2,4
1532068325812,-6,-7,-6,-27,-12,-2,7,-7
1532068325817,-1,10,-3,27,-1,0,-10,3
1532068325822,-13,-2,1,-9,1,-1,4,8
1532068325827,31,3,2,0,-3,-2,-4,-12
1532068325832,-5,-3,4,4,8,1,1,4
1532068325837,6,7,14,20,14,2,-3,7
1532068325842,-2,0,-12,-59,-17,-6,3,-2
1532068325847,-2,-2,-11,11,-4,1,-4,-5
1532068325852,-6,-16,-5,6,-1,0,0,-8
1532068325857,-3,2,0,-6,-2,-2,-11,5
1532068325862,-2,5,15,15,9,3,4,-1
1532068325867,-8,-5,7,2,1,-2,5,8
1532068325872,2,2,-8,-18,-1,0,-4,-1
1532068325877,7,-2,-12,-39,-13,-5,-5,5
1532068325882,1,-13,7,9,-2,1,18,-14
1532068325887,-4,7,-4,-8,-2,-3,-21,-3
1532068325892,5,-2,4,35,2,0,-6,-1
1532068325897,-9,-6,-18,4,6,2,-4,2
1532068325902,16,6,2,6,-1,-1,16,8
1532068325907,-3,-9,-10,-3,-6,-3,-12,-3
1532068325912,-1,5,0,4,-3,0,0,-1
1532068325917,-4,-4,-9,-17,-4,-1,-2,0
1532068325922,-16,7,0,10,4,1,7,-2
1532068325927,-6,9,13,2,1,4,45,35
1532068325932,0,-29,-9,10,2,-3,-59,-18
1532068325937,29,21,14,41,0,-1,2,18
1532068325942,-45,7,-21,-29,1,-1,-7,-11
1532068325947,7,-17,28,6,-1,2,7,3
1532068325952,-1,17,-17,-19,-7,0,14,5
1532068325957,4,-21,-2,10,3,2,2,1
1532068325962,13,2,16,26,10,3,-5,-9
1532068325967,19,8,0,6,9,-1,-2,0
1532068325972,-51,-41,-10,-43,-31,-9,0,-8
1532068325977,-4,8,3,7,4,1,-3,-10
1532068325982,15,4,-12,-25,-10,-5,-1,4
1532068325987,-12,-5,3,-2,4,-1,-5,-11
1532068325992,13,10,11,3,12,2,8,2
1532068325997,2,3,11,-9,-14,-3,2,3
1532068326002,-5,-12,3,10,11,0,-4,2
1532068326007,-15,-4,-14,12,3,-4,16,-9
1532068326012,-1,21,5,17,-7,-7,-29,8
1532068326017,-7,-15,-2,5,0,-2,-3,2
1532068326022,10,6,4,1,-3,0,0,8
1532068326027,6,-10,-23,-33,5,1,-3,-9
1532068326032,-10,15,-6,16,12,2,14,-7
1532068326037,-13,5,9,-48,-12,-1,-1,-6
1532068326042,23,-3,1,-12,-9,-5,-8,-1
1532068326047,2,7,23,55,-14,-7,-13,3
1532068326052,-21,-11,-36,-42,-5,0,13,-2
1532068326057,3,4,36,-1,4,1,-5,-1
1532068326062,-37,-13,21,46,16,5,-1,-2
1532068326067,27,14,13,-22,-17,0,-3,-6
1532068326072,1,6,-11,25,5,2,28,-1
1532068326077,43,-7,-7,-6,-2,-4,-26,-9
1532068326082,3,13,-3,4,6,4,7,-2
1532068326087,-22,-2,-23,5,-3,-3,-2,-5
1532068326092,10,-4,10,-6,-1,-1,-3,-3
1532068326097,-6,-4,-11,7,-4,1,3,3
1532068326102,1,-1,-9,-29,-5,-2,-11,-1
1532068326107,-2,-5,-12,1,3,-1,-5,-5
1532068326112,8,-5,9,-36,-11,-1,12,5
1532068326117,-12,9,16,-1,4,2,-14,-3
1532068326122,8,7,-11,-21,-2,0,1,3
1532068326127,-25,-3,-8,8,7,1,-7,-5
1532068326132,2,0,2,30,2,-1,0,-3
1532068326137,2,1,-6,-39,-6,-3,7,1
1532068326142,-4,1,-1,54,11,3,3,-3
1532068326147,5,-4,-30,-77,-24,-7,-6,-3
1532068326152,-2,-2,12,35,3,1,-3,4
1532068326157,15,-4,1,-44,-5,-1,5,-2
1532068326162,4,3,6,17,0,1,-5,1
1532068326167,-10,3,-5,-20,-1,1,5,-1
1532068326172,14,0,0,17,0,0,-3,-1
1532068326177,3,-2,1,2,0,-3,0,2
1532068326182,-1,2,-11,-7,-4,-1,2,-1
1532068326187,2,0,8,5,-3,-1,-2,0
1532068326192,20,6,-2,4,12,1,-3,5
1532068326197,-38,-31,-5,-14,6,1,3,-8
1532068326202,35,5,-19,-2,-18,-8,-3,0
1532068326207,-30,-12,-5,-5,-12,-2,-7,4
1532068326212,4,-5,3,14,1,0,-6,-2
1532068326217,0,10,4,-3,-2,1,7,-2
1532068326222,-8,11,-9,-7,5,0,-2,0
1532068326227,31,-6,10,31,15,4,2,2
1532068326232,-12,-1,36,28,5,2,4,0
1532068326237,-2,1,-13,20,-4,0,-1,0
1532068326242,-18,-6,-11,-3,-11,-2,-2,-3
1532068326247,7,7,-6,22,5,0,-4,1
1532068326252,-7,-2,2,-5,4,2,2,-2
1532068326257,9,5,0,43,15,3,4,2
1532068326262,-8,-4,5,-41,-3,-2,-3,-2
1532068326267,0,1,-2,-32,-14,-3,1,0
1532068326272,-3,-8,-8,-24,-6,-3,-8,-6
1532068326277,3,-2,8,9,1,-2,0,7
1532068326282,-3,-1,-6,-40,-9,-2,14,-3
1532068326287,8,14,-2,65,10,-1,-6,-1
1532068326292,-44,-39,-29,-121,-20,-7,-26,-4
1532068326297,5,11,5,90,9,2,6,-4
1532068326302,-1,-11,8,-56,-9,-1,-1,0
1532068326307,-15,14,4,73,5,-4,-5,-14
1532068326312,21,1,-27,-10,-1,1,12,7
1532068326317,-3,-7,19,36,1,-2,-3,3
1532068326322,-4,-8,2,-21,4,1,-2,6
1532068326327,12,8,-1,-14,7,3,0,10
1532068326332,0,6,-4,-10,-6,-2,-2,-11
1532068326337,-11,0,-12,-7,-8,-4,-7,-8
1532068326342,7,15,-1,47,0,2,9,4
1532068326347,-2,37,-41,-45,-17,-3,-3,-2
1532068326352,-19,-78,-20,-3,-11,-4,-8,-10
1532068326357,19,14,-16,43,5,4,1,3
1532068326362,-18,35,51,-20,13,3,7,8
1532068326367,5,-19,-94,-21,-18,-7,-9,-12
1532068326372,2,39,13,45,17,5,-1,1
1532068326377,-7,-52,23,-15,-14,-3,2,-5
1532068326382,8,-15,-47,29,2,0,-5,-3
1532068326387,4,22,37,-1,1,0,-2,5
1532068326392,-4,14,-18,-10,8,-1,-2,1
1532068326397,-3,15,-10,-18,-25,-4,0,5
1532068326402,5,16,32,10,-4,-2,2,-3
1532068326407,-3,-20,16,-30,6,2,1,0
1532068326412,6,22,6,15,55,6,-3,-2
1532068326417,-5,-10,-42,-32,-48,-4,4,1
1532068326422,-7,-45,18,4,-5,-4,-6,-11
1532068326427,3,-1,-63,27,-60,-13,-3,0
1532068326432,1,7,46,-74,18,2,1,3
1532068326437,1,2,51,48,-5,1,0,2
1532068326442,4,48,37,-48,4,1,-3,3
1532068326447,-3,-46,5,2,8,4,-1,-2
1532068326452,-6,4,14,47,1,0,-1,-3
1532068326457,-1,9,-20,-37,11,-3,-3,-7
1532068326462,12,92,-2,24,23,5,5,7
1532068326467,-22,-69,18,-70,-13,-7,-3,-10
1532068326472,-7,29,-55,46,-9,-5,-11,-11
1532068326477,4,26,2,7,27,3,1,1
1532068326482,-2,10,43,38,-5,1,3,-1
1532068326487,13,35,-37,-28,53,6,3,5
1532068326492,-4,-35,-21,46,31,4,1,0
1532068326497,-10,-15,-73,-90,-105,-13,-6,-1
1532068326502,7,6,30,20,29,5,2,2
1532068326507,0,20,55,10,-11,0,-1,6
1532068326512,-4,-40,-31,-75,-17,-11,-6,-8
1532068326517,1,17,56,12,84,13,2,1
1532068326522,-3,-29,-78,3,-11,0,0,-2
1532068326527,-2,-3,13,4,-14,-3,-4,1
1532068326532,0,-7,-5,7,-18,-6,-1,6
1532068326537,3,15,26,48,21,2,1,-5
1532068326542,-10,-45,-29,-81,-8,-5,-6,-9
1532068326547,0,5,-5,50,39,4,-1,-4
1532068326552,7,20,13,11,-48,-2,2,4
1532068326557,-3,-4,-14,16,22,0,-2,1
1532068326562,-2,-3,-3,40,-13,-3,-2,1
1532068326567,-4,-31,-28,-82,-22,-3,-4,-1
1532068326572,5,6,5,25,16,8,6,2
1532068326577,1,-21,19,6,7,0,4,0
1532068326582,-2,6,-43,11,-10,-5,-6,-6
1532068326587,6,32,48,16,28,4,3,-4
1532068326592,-8,-11,-24,-5,-30,-2,-2,3
1532068326597,0,-9,-13,-16,39,4,0,-1
1532068326602,5,5,28,-26,-71,-3,9,1
1532068326607,-14,-16,-70,36,-14,-12,-12,-5
1532068326612,-2,-5,23,7,0,0,-4,2
1532068326617,0,10,-3,8,-7,-1,-2,1
1532068326622,3,-9,20,-1,40,6,0,1
1532068326627,6,11,-12,-10,-3,-1,6,-3
1532068326632,3,8,13,3,-8,1,2,0
1532068326637,-4,-4,0,-13,-17,-4,-4,-2
1532068326642,-2,-14,-14,9,24,2,0,-2
1532068326647,3,11,14,14,-7,0,0,0
1532068326652,3,2,0,-7,10,2,1,-2
1532068326657,-3,-1,7,6,-13,-3,-1,-2
1532068326662,-4,-12,-15,9,16,-3,-4,-2
1532068326667,2,24,15,4,15,-1,-2,3
1532068326672,-3,-8,-34,-2,-3,0,1,-1
1532068326677,-4,-31,-9,6,0,2,2,-5
1532068326682,-1,-3,12,22,-11,-5,-2,-4
1532068326687,-3,7,-7,-61,-22,-7,-7,4
1532068326692,3,7,2,27,10,3,1,0
1532068326697,-1,11,22,-6,-12,0,-4,0
1532068326702,-2,-8,1,19,-3,-7,0,-1
1532068326707,0,-5,7,3,-10,0,1,-4
1532068326712,0,3,13,-16,4,2,1,0
1532068326717,-6,-4,-14,-24,-21,-6,-4,-6
1532068326722,2,2,-13,-14,12,2,1,-1
1532068326727,2,9,60,26,3,2,2,-2
1532068326732,-2,-4,14,-19,-2,-6,-3,0
1532068326737,4,5,3,20,6,0,2,2
1532068326742,-5,-5,-13,-26,-10,-4,-4,0
1532068326747,3,13,-32,-9,26,7,5,3
1532068326752,-2,-30,13,38,-28,-4,1,-1
1532068326757,-8,-12,-1,-28,-6,-5,-6,0
1532068326762,2,4,21,-22,4,3,2,1
1532068326767,-1,-1,-8,35,5,2,-2,-2
1532068326772,1,-26,-14,-22,13,1,2,-4
1532068326777,-2,15,-24,-28,-18,-1,-2,1
1532068326782,-2,2,13,21,1,-1,-4,3
1532068326787,-2,-4,16,7,-1,1,0,-2
1532068326792,1,19,-7,-11,5,0,-1,0
1532068326797,-1,-8,8,14,-5,-3,1,1
1532068326802,5,11,70,-6,8,4,4,0
1532068326807,-3,6,58,38,6,0,-2,1
1532068326812,-3,-1,-8,-18,-13,-2,0,-4
1532068326817,-1,12,-24,21,-5,-8,-7,-3
1532068326822,-3,-22,-14,-18,1,4,3,-1
1532068326827,2,-2,-26,-6,-8,-1,0,2
1532068326832,-1,4,16,20,6,0,-2,0
1532068326837,-2,0,-23,-27,15,1,-2,-5
1532068326842,-2,1,-24,22,-17,-2,-3,-1
1532068326847,-2,-7,-22,-13,-6,-1,-2,-3
1532068326852,2,12,0,-3,17,-3,-1,3
1532068326857,0,-6,-13,8,-8,0,2,0
1532068326862,2,15,-26,-68,-7,-1,3,-4
1532068326867,-15,-58,-26,67,-28,-13,-9,-3
1532068326872,-4,12,-7,-8,27,4,-5,2
1532068326877,3,4,7,-4,1,1,-1,3
1532068326882,0,-8,7,-12,-4,-3,-1,-1
1532068326887,8,24,21,-38,8,5,6,-1
1532068326892,5,6,9,3,2,0,3,-1
1532068326897,-3,-16,0,-2,-15,-3,-2,1
1532068326902,-8,-12,-63,16,-7,-3,-6,-3
1532068326907,2,7,1,-36,9,3,0,-2
1532068326912,-4,-9,2,33,-13,-4,-5,0
1532068326917,11,26,28,-11,0,4,8,1
1532068326922,3,18,-5,37,17,2,-1,1
1532068326927,-12,-17,-45,-47,-15,-3,-1,-3
1532068326932,-10,-55,-25,-17,-17,-7,-6,-9
1532068326937,2,0,61,27,5,1,1,2
1532068326942,5,14,27,44,33,7,3,2
1532068326947,9,28,0,-33,-14,-1,2,2
1532068326952,5,10,21,40,-1,3,4,2
1532068326957,-8,-8,-32,-47,-18,-5,-3,1
1532068326962,-3,-5,-8,1,-5,-1,-3,-1
1532068326967,6,6,28,58,5,4,4,-3
1532068326972,0,1,-14,-19,8,-2,-2,-5
1532068326977,-2,-2,-4,80,2,0,-2,3
1532068326982,-1,-6,9,-40,-21,-4,0,-1
1532068326987,2,-1,-5,-13,24,8,5,-1
1532068326992,-2,6,-9,42,-13,-5,-6,-2
1532068326997,-1,5,-4,-10,1,-2,-5,0
1532068327002,-3,-10,10,-44,-9,-4,-2,1
1532068327007,3,3,-2,27,-2,2,1,-3
1532068327012,-2,9,6,27,-6,-3,-3,2
1532068327017,8,1,11,-33,14,7,11,-6
1532068327022,-14,-28,-20,88,-12,-9,-13,-2
1532068327027,-2,-3,1,-2,-15,-4,-6,1
1532068327032,-3,9,7,-7,-7,-5,-3,-3
1532068327037,0,-10,-26,0,-6,-1,1,-2
1532068327042,4,12,34,-4,12,1,2,0
1532068327047,-1,-14,-35,3,12,0,3,-2
1532068327052,-3,-1,-5,-13,-21,-3,-1,1
1532068327057,1,-3,22,-50,-6,-1,-2,-2
1532068327062,4,1,-12,6,8,3,17,-5
1532068327067,-12,-3,-9,-15,-19,-13,-25,4
1532068327072,3,-5,-1,0,8,5,5,3
1532068327077,1,-1,-1,-32,11,1,-1,0
1532068327082,-4,-3,-4,61,-37,-9,-9,-6
1532068327087,6,10,9,-20,8,5,13,-3
1532068327092,-4,4,-5,7,-5,-6,-5,1
1532068327097,0,3,9,37,6,0,0,0
1532068327102,0,0,2,-35,4,0,-2,0
1532068327107,3,5,13,19,4,-2,5,1
1532068327112,9,23,4,-32,2,4,2,-2
1532068327117,-11,-42,-26,30,-10,-4,-2,3
1532068327122,-6,-16,-2,19,2,-2,-8,-5
1532068327127,-1,-9,-5,-76,-18,-3,-3,3
1532068327132,4,7,-10,26,6,4,6,-6
1532068327137,6,14,19,-8,-3,2,3,0
1532068327142,-4,0,-6,15,2,-4,-3,2
1532068327147,-2,3,10,36,14,2,-1,-1
1532068327152,0,-7,4,-48,-11,1,3,-2
1532068327157,0,4,-12,7,8,0,-2,-3
1532068327162,2,-3,8,1,11,1,1,1
1532068327167,-8,0,-2,-50,-22,-9,-7,1
1532068327172,-3,-2,-11,-34,-8,-3,-3,0
1532068327177,-1,-8,48,32,13,1,-2,-1
1532068327182,4,11,11,3,-3,1,2,1
1532068327187,4,8,5,17,17,8,5,-2
1532068327192,-7,-16,1,-5,-10,-8,-7,-1
1532068327197,4,19,-22,-19,12,6,6,-3
1532068327202,-14,-29,-25,51,-24,-12,-1,-2
1532068327207,5,-3,17,10,7,1,-11,5
1532068327212,10,1,-5,29,-3,1,16,4
1532068327217,-29,-15,-15,-2,-6,1,-4,-6
1532068327222,5,1,-36,1,15,2,-7,-14
1532068327227,-6,-19,0,34,-11,-2,4,-5
1532068327232,8,21,25,32,13,2,8,2
1532068327237,1,-8,-9,8,-15,-5,-1,12
1532068327242,-2,6,23,13,22,5,1,8
1532068327247,-6,-10,-31,-64,-16,-5,-13,-13
1532068327252,-5,4,-16,-27,7,5,-1,-5
1532068327257,10,3,5,8,-8,-4,3,2
1532068327262,5,9,20,-26,21,8,32,1
1532068327267,7,10,112,41,-15,-9,-28,13
1532068327272,-18,-7,1,12,-10,-10,3,-7
1532068327277,-19,0,-10,1,-6,-2,-33,-5
1532068327282,14,-2,27,-34,11,8,7,3
1532068327287,-25,-7,-57,-37,-6,-3,61,13
1532068327292,-12,-2,-28,-46,4,-1,-39,-20
1532068327297,3,-1,-1,22,-8,-7,-14,-12
1532068327302,14,17,-6,-22,11,5,6,-5
1532068327307,6,5,-5,23,24,7,6,0
1532068327312,-2,-3,17,16,5,-3,5,2
1532068327317,1,2,-72,-27,-23,-8,5,6
1532068327322,-5,-5,-7,-47,-10,-2,-20,3
1532068327327,5,2,-4,45,13,4,10,-5
1532068327332,2,-3,11,18,5,-4,-4,13
1532068327337,13,9,-1,-54,-24,1,12,-12
1532068327342,-8,-2,8,3,-11,-11,-34,7
1532068327347,-11,-8,-16,0,-10,-3,-18,-6
1532068327352,8,-1,0,25,14,6,23,0
1532068327357,0,-2,6,-10,8,-1,-3,0
1532068327362,-2,-9,11,10,-12,-1,8,-5
1532068327367,-7,0,6,56,18,1,1,6
1532068327372,17,0,-14,-57,-24,1,-18,-12
1532068327377,-20,-7,0,87,22,2,19,-8
1532068327382,-1,9,-1,-36,-10,0,-27,-1
1532068327387,12,8,-7,73,33,4,-7,-11
1532068327392,-7,-18,-1,-57,-31,-7,11,5
1532068327397,10,8,29,-21,12,3,2,9
1532068327402,2,7,-13,17,22,7,8,-6
1532068327407,0,0,-29,-69,-46,-10,0,4
1532068327412,3,-12,9,47,22,4,2,12
1532068327417,4,4,1,5,-3,-2,-17,-3
1532068327422,-3,10,68,-7,-24,-8,3,5
1532068327427,10,6,58,-13,11,5,8,-6
1532068327432,-4,5,-4,19,-10,-3,9,6
1532068327437,5,-6,5,60,16,0,-13,-6
1532068327442,-1,6,-28,-76,-5,-6,3,2
1532068327447,-2,2,-21,-5,-17,-4,-6,0
1532068327452,-2,-5,19,26,17,3,5,-8
1532068327457,-6,-7,3,-97,-27,-8,-12,-3
1532068327462,-4,-6,-40,52,-8,-7,-7,-1
1532068327467,0,-6,1,-14,-2,1,-5,1
1532068327472,-2,8,4,-2,4,3,-1,3
1532068327477,4,-3,-12,-17,14,1,3,-1
1532068327482,6,-3,-3,-6,-18,4,11,-4
1532068327487,-6,2,-7,-45,9,-5,-11,-3
1532068327492,-1,-18,-3,-18,-10,1,-4,-2
1532068327497,-2,6,0,106,-6,-5,5,13
1532068327502,-5,-1,-14,-59,-10,-4,-3,-4
1532068327507,-4,-26,-28,6,12,2,-6,-9
1532068327512,0,3,-26,9,4,0,-9,-7
1532068327517,4,-14,52,-29,12,1,9,-1
1532068327522,2,11,8,11,11,5,7,-3
1532068327527,-4,1,-44,30,-31,-10,-8,3
1532068327532,-1,3,40,0,3,1,-5,3
1532068327537,8,2,-13,18,-5,-1,10,2
1532068327542,-2,-15,8,11,15,4,0,4
1532068327547,7,4,19,-25,9,5,12,0
1532068327552,-8,-4,-12,37,-3,-6,-22,-5
1532068327557,-2,13,-12,-47,-7,1,1,2
1532068327562,-2,-14,1,66,6,-2,6,3
1532068327567,-2,-6,-11,-20,-13,-5,-1,-1
1532068327572,3,16,-3,-49,-16,3,1,2
1532068327577,-6,-4,-12,19,-4,-1,3,4
1532068327582,3,0,-20,-32,-10,-2,-9,-16
1532068327587,-13,-8,4,18,2,-1,-7,-10
1532068327592,4,6,-1,-10,25,7,16,10
1532068327597,-2,4,-8,3,-10,-7,-14,-8
1532068327602,-6,-9,-7,-34,-14,-3,12,-11
1532068327607,8,12,15,11,18,7,-13,20
1532068327612,-3,4,25,-4,-6,-2,3,-1
1532068327617,-9,-12,-60,95,-18,-10,-3,-12
1532068327622,2,-2,8,12,15,2,10,8
1532068327627,9,-6,24,16,-5,-4,-2,-3
1532068327632,-2,-2,-25,17,7,-2,-4,-8
1532068327637,3,13,-6,37,1,-1,-5,0
1532068327642,5,2,-2,-65,-9,-1,9,5
1532068327647,-6,-16,1,36,-4,1,-4,-10
1532068327652,4,2,2,3,6,2,-11,3
1532068327657,3,4,12,-41,22,3,8,-1
1532068327662,-2,12,-51,39,-53,-11,-11,-4
1532068327667,5,-3,1,8,3,-2,18,5
1532068327672,-3,-9,-8,-36,-15,-6,-5,3
1532068327677,2,1,17,39,25,8,12,12
1532068327682,-1,5,4,-60,1,0,-25,-3
1532068327687,2,11,-3,42,-7,-1,1,-3
