1532066864574,-4,-2,-9,-6,-2,-2,1,-1
1532066864579,-1,-2,4,4,1,-2,0,0
1532066864584,-3,-4,0,-9,-4,-2,0,0
1532066864589,1,0,-6,-9,0,-2,-1,-1
1532066864594,1,2,3,3,0,0,1,-1
1532066864599,-2,-3,-2,-4,-1,0,-1,0
1532066864604,-1,-2,1,-1,-1,0,-1,-2
1532066864609,0,-1,3,18,-1,0,0,-1
1532066864614,0,-2,-5,-6,0,-2,-1,-1
1532066864619,0,0,-5,5,-4,0,0,-1
1532066864624,0,1,4,2,2,2,0,-2
1532066864629,-2,-1,4,15,-1,-2,0,0
1532066864634,-1,-3,0,-15,0,-2,-1,-1
1532066864639,-1,1,0,-7,1,2,3,0
1532066864644,-2,-2,0,14,-2,-2,-3,-1
1532066864649,0,1,-5,-10,0,0,-1,0
1532066864654,-2,-4,-1,-4,-2,0,-2,1
1532066864659,0,0,-3,13,0,-1,0,0
1532066864664,0,-2,-2,-40,-3,0,1,-2
1532066864669,-2,-3,-1,5,-2,-3,-2,-1
1532066864674,-1,-2,-4,-5,-2,0,0,-1
1532066864679,0,0,-1,4,-1,0,-1,-2
1532066864684,-1,-1,-3,8,0,0,-1,-1
1532066864689,-2,0,-2,-5,-2,1,-1,0
1532066864694,2,0,-4,-3,3,1,-1,-1
1532066864699,-3,-1,-6,-11,-3,-1,-2,-1
1532066864704,-2,-3,2,18,2,-2,-3,0
1532066864709,0,2,4,-7,-1,0,-1,1
1532066864714,0,-1,-3,5,-1,0,-2,-1
1532066864719,0,-2,1,1,-4,-2,-1,-1
1532066864724,-1,-1,0,9,-2,-1,-1,-1
1532066864729,1,-1,-7,-8,1,-1,0,-1
1532066864734,-2,0,5,5,-2,-4,-1,-2
1532066864739,-1,-1,-2,-9,-3,-2,1,-2
1532066864744,0,-1,2,-4,0,1,0,1
1532066864749,0,1,-2,11,0,-1,-1,-2
1532066864754,2,0,1,-11,-1,0,0,-1
1532066864759,-1,-2,1,-2,-1,0,-3,-1
1532066864764,-3,-1,-1,1,-2,-1,-1,0
1532066864769,0,-1,0,-1,2,2,-1,-1
1532066864774,0,-1,2,17,-1,0,-2,0
1532066864779,-1,-3,-4,-8,-1,0,0,1
1532066864784,-1,2,0,1,0,0,-1,0
1532066864789,-1,0,-1,0,0,0,0,-1
1532066864794,-1,-2,-4,-17,0,-2,-2,-2
1532066864799,0,-1,1,15,1,0,-1,0
1532066864804,-1,0,-1,-1,-2,-3,-1,-1
1532066864809,0,-1,-3,-1,-3,-1,0,0
1532066864814,-1,0,-2,-15,1,1,1,0
1532066864819,0,-2,-5,15,-3,-3,-3,-1
1532066864824,1,-5,7,-41,-3,-2,-2,-3
1532066864829,0,2,0,7,0,-1,1,1
1532066864834,1,-3,-1,6,0,-1,-1,-2
1532066864839,1,0,-6,-11,1,0,0,-1
1532066864844,-2,1,-7,17,-4,-2,-1,-2
1532066864849,-1,-1,10,-6,-1,-1,-2,1
1532066864854,-2,-3,-3,-10,-2,1,-2,-3
1532066864859,2,1,-11,1,0,0,2,0
1532066864864,-2,-1,19,-17,-7,-3,-2,-2
1532066864869,0,0,-9,-6,0,-2,-2,-1
1532066864874,-1,1,6,21,0,-1,1,1
1532066864879,0,-2,0,-26,1,-2,-2,-2
1532066864884,-2,-1,-8,15,1,1,0,0
1532066864889,0,-1,0,-7,-1,-1,0,-1
1532066864894,0,-1,3,9,0,0,0,0
1532066864899,-2,-1,-1,9,-1,-1,0,0
1532066864904,2,0,-8,-2,5,3,2,-1
1532066864909,-2,-1,6,-25,0,1,0,-2
1532066864914,-5,-5,-17,-10,-9,-4,-4,-2
1532066864919,-1,1,4,20,0,1,0,-2
1532066864924,0,-2,-1,-25,-2,-1,-2,0
1532066864929,0,1,-5,9,0,1,0,-1
1532066864934,-1,1,-5,-2,1,0,0,-1
1532066864939,-4,-2,23,-25,-6,-4,-3,-1
1532066864944,0,-1,-12,4,3,2,2,-1
1532066864949,-2,-3,10,43,-2,-3,-2,-2
1532066864954,1,1,7,-13,5,2,1,-1
1532066864959,-2,-1,-19,-36,-10,-2,-3,1
1532066864964,-3,-7,3,-5,-3,-2,-5,0
1532066864969,2,1,-17,-9,6,2,3,1
1532066864974,-3,-4,19,10,-1,-3,-1,-1
1532066864979,1,3,4,-18,1,0,-1,0
1532066864984,1,2,-1,16,4,1,0,-2
1532066864989,0,-3,-14,-68,-6,1,-2,-2
1532066864994,2,3,-5,35,0,1,0,-1
1532066864999,-2,-6,11,41,-2,-4,-2,-1
1532066865004,-2,-1,0,2,-3,-2,-2,0
1532066865009,1,1,-10,8,2,0,1,1
1532066865014,0,-4,12,-18,2,-1,1,-3
1532066865019,1,5,2,45,4,0,0,-1
1532066865024,2,7,-10,4,-5,1,0,1
1532066865029,-7,-12,26,37,-9,-8,-6,-4
1532066865034,1,5,-14,17,6,3,3,1
1532066865039,-2,-8,2,-48,0,-2,-1,-4
1532066865044,-1,-2,8,36,4,0,1,1
1532066865049,-2,-1,-4,30,-5,-3,-4,0
1532066865054,-2,0,0,3,-4,-2,-2,-2
1532066865059,-4,-3,-20,-43,0,1,0,1
1532066865064,2,0,-15,12,4,2,2,0
1532066865069,-2,-6,24,0,-1,-4,-4,-1
1532066865074,-2,-3,-5,-14,-3,-2,-1,-2
1532066865079,2,2,4,11,3,2,0,0
1532066865084,-1,-2,-10,-17,-2,0,-1,-2
1532066865089,-2,0,2,16,2,0,1,1
1532066865094,0,-2,-3,-27,0,0,1,2
1532066865099,0,0,5,16,1,-3,-1,-1
1532066865104,-3,-2,13,-12,-2,-1,-2,-1
1532066865109,2,4,-17,13,3,5,2,0
1532066865114,-2,0,7,3,-2,-3,-3,0
1532066865119,0,-4,5,-36,-3,1,-1,-2
1532066865124,-2,-3,-6,23,0,-2,-2,-1
1532066865129,3,6,0,-68,-1,2,-1,-3
1532066865134,0,5,4,29,0,-1,-1,0
1532066865139,0,-5,-15,17,-2,-3,0,0
1532066865144,0,3,8,10,2,-2,-2,0
1532066865149,-1,-4,-10,-15,0,-1,0,-3
1532066865154,-1,1,3,-22,-5,-1,-1,0
1532066865159,2,-1,1,-4,4,2,2,1
1532066865164,0,1,-1,23,3,0,2,-2
1532066865169,-2,-5,9,-32,-11,-6,-3,-1
1532066865174,0,-3,-3,3,1,2,0,-1
1532066865179,-2,1,2,26,1,1,-2,0
1532066865184,-1,0,-11,-28,-4,0,0,-2
1532066865189,-1,1,-1,16,0,-1,-1,-1
1532066865194,-1,-3,7,1,-1,-2,-3,0
1532066865199,1,2,22,-13,-2,0,1,-1
1532066865204,0,-1,96,9,1,-1,0,-1
1532066865209,-2,-2,44,24,-3,-1,-3,-1
1532066865214,-1,-2,16,-12,-3,-2,-1,0
1532066865219,0,1,-18,7,-1,-2,-2,-2
1532066865224,-2,-4,-20,-6,0,-3,-1,-2
1532066865229,3,1,-28,22,6,3,2,-1
1532066865234,-1,-2,-34,-26,-9,-1,-3,0
1532066865239,-1,-1,-47,21,1,0,-1,0
1532066865244,-3,-1,-47,-2,-3,-1,-3,1
1532066865249,-1,-1,-26,-14,-2,-1,-2,0
1532066865254,0,1,-22,15,-1,-1,0,-1
1532066865259,2,1,3,7,8,3,1,-2
1532066865264,-1,-3,-7,-17,-5,-1,-2,-2
1532066865269,-1,1,-10,3,0,0,1,-1
1532066865274,-1,-1,3,-11,2,1,0,-2
1532066865279,-2,2,14,8,-5,-4,-3,-2
1532066865284,1,-1,-5,-2,1,-2,0,-2
1532066865289,-1,0,-2,0,0,2,-1,1
1532066865294,-1,-1,-1,2,2,-3,0,0
1532066865299,-1,1,5,-19,-6,-3,-1,0
1532066865304,-1,-2,-5,16,2,0,-2,-1
1532066865309,0,2,2,-28,-2,-2,0,-1
1532066865314,-1,-1,9,-4,-2,-1,-2,-1
1532066865319,-2,-4,3,1,-2,0,-2,1
1532066865324,1,0,-3,-9,-2,-1,-1,-1
1532066865329,0,1,4,10,1,1,1,0
1532066865334,-1,0,2,1,0,0,-2,-2
1532066865339,-1,1,-4,-6,-3,0,-1,0
1532066865344,-1,1,-2,-6,-1,0,-1,0
1532066865349,0,0,-2,-2,3,1,-1,-2
1532066865354,-2,0,-1,14,-5,-3,-2,-1
1532066865359,-2,-2,-1,3,0,0,1,-2
1532066865364,0,-1,6,-9,-3,-1,1,-2
1532066865369,-1,0,0,9,1,-3,-1,-1
1532066865374,-2,-4,-17,-20,-3,-1,-3,-2
1532066865379,-1,-1,4,-5,-1,0,1,-1
1532066865384,-1,-1,1,11,-1,1,1,-2
1532066865389,-2,-1,0,-3,-2,-3,-2,-1
1532066865394,0,-2,6,1,1,0,0,0
1532066865399,-1,0,-3,1,0,-1,-1,0
1532066865404,1,-2,-4,-14,5,1,0,0
1532066865409,-1,0,0,20,-1,-1,-1,-3
1532066865414,-1,0,3,-10,-2,-1,0,0
1532066865419,0,2,-1,4,-2,-1,-2,-2
1532066865424,-2,0,2,3,-3,-1,-1,0
1532066865429,-1,-2,-2,-2,-6,-1,-1,0
1532066865434,1,-1,1,7,5,0,0,-1
1532066865439,-1,0,1,2,0,0,-1,-1
1532066865444,-1,-1,-4,-8,-3,-2,-3,-2
1532066865449,0,-1,-4,-2,-2,-2,1,1
1532066865454,0,0,-1,-4,-2,-1,-1,0
1532066865459,-1,0,3,0,-2,-2,-2,0
1532066865464,0,2,1,-6,5,3,0,0
1532066865469,-2,0,3,4,-1,0,1,1
1532066865474,-3,-2,1,17,-4,-3,-1,-2
1532066865479,-1,-2,2,-19,-1,0,0,-1
1532066865484,-2,1,-5,-1,-6,-1,-2,0
1532066865489,0,1,4,-5,1,-1,-2,-2
1532066865494,1,1,-4,-4,1,-1,-2,1
1532066865499,-1,-1,-2,4,-3,-2,-2,-1
1532066865504,-2,-3,-1,-4,-1,-1,0,-2
1532066865509,0,-1,1,3,-2,-1,0,0
1532066865514,-2,1,-4,-7,3,2,0,1
1532066865519,0,-1,-2,-3,0,0,-1,-2
1532066865524,-1,0,-4,-1,-3,-3,-1,-2
1532066865529,1,0,-1,2,-2,-1,-1,-2
1532066865534,-1,1,4,1,0,1,2,1
1532066865539,0,-2,3,-16,-2,-1,-2,0
1532066865544,-2,-2,-2,3,-2,-1,-1,0
1532066865549,-1,2,0,10,1,1,1,1
1532066865554,-1,-3,-3,-11,-3,-1,0,-4
1532066865559,-2,-3,-8,-5,-1,-1,-1,0
1532066865564,0,0,1,3,3,0,-2,-4
1532066865569,-4,1,5,1,0,0,-3,-3
1532066865574,1,-1,6,7,0,-1,0,0
1532066865579,-1,-1,-4,4,1,-2,1,-1
1532066865584,-1,-1,1,-9,-5,-1,-2,-1
1532066865589,-1,-3,-9,10,3,0,0,0
1532066865594,-1,-5,-6,-11,-4,-2,-2,-2
1532066865599,-2,-2,5,-14,-16,0,-2,0
1532066865604,1,0,2,-6,0,-2,0,1
1532066865609,-1,1,0,-4,-3,-1,-1,0
1532066865614,0,2,3,3,0,-2,0,-1
1532066865619,-2,2,-6,1,5,0,0,0
1532066865624,-2,1,0,-2,-3,0,0,-1
1532066865629,-1,-2,-2,-7,-1,-1,-3,-1
1532066865634,-1,-1,-1,2,1,-1,0,0
1532066865639,2,1,1,9,3,-1,0,-3
1532066865644,0,-1,1,11,5,2,-1,0
1532066865649,1,-2,-2,-7,1,-2,1,-1
1532066865654,-1,4,6,-2,-7,-1,-2,-1
1532066865659,0,-2,1,18,4,1,2,-1
1532066865664,-3,-5,-1,-3,-1,-1,-2,-1
1532066865669,-1,-3,-9,-7,-4,-1,-1,0
1532066865674,-2,-1,7,-1,-1,-3,-4,-1
1532066865679,-4,-8,-10,-7,-16,-6,-6,0
1532066865684,0,-3,-4,2,6,3,4,0
1532066865689,1,1,2,1,-3,3,2,-1
1532066865694,-5,-9,-17,-23,0,0,-1,-3
1532066865699,0,2,6,7,4,-2,-2,2
1532066865704,1,5,-2,-8,-12,-4,-4,-2
1532066865709,-4,-8,-17,-7,-2,-3,-3,-1
1532066865714,1,5,10,21,2,0,0,2
1532066865719,2,3,-1,-13,1,1,1,-2
1532066865724,1,3,12,11,-6,2,0,0
1532066865729,-4,-4,-38,-19,4,-4,-3,-3
1532066865734,0,-5,3,1,2,2,0,-3
1532066865739,-3,-2,-1,15,3,-1,-2,-2
1532066865744,-4,-3,1,-5,-6,-1,-3,-2
1532066865749,1,5,14,7,7,-1,0,1
1532066865754,0,2,-5,-4,-6,-1,1,-1
1532066865759,2,9,18,5,6,1,-2,-1
1532066865764,-3,-6,-2,-11,8,-2,0,-1
1532066865769,-1,1,13,21,-6,-1,1,0
1532066865774,-4,-1,-7,-7,-7,-4,-5,-1
1532066865779,2,2,8,22,6,2,2,0
1532066865784,-2,0,2,-6,-3,-3,-3,-1
1532066865789,-1,-3,-2,-6,-1,0,-1,-2
1532066865794,3,5,4,5,5,1,2,0
1532066865799,-2,-4,-8,-6,-4,-1,-1,-3
1532066865804,-1,-2,-4,2,0,-1,-2,0
1532066865809,0,0,3,-3,2,0,2,-1
1532066865814,0,-2,2,5,2,0,-2,-1
1532066865819,1,2,-2,-3,-2,1,0,0
1532066865824,-1,-3,-5,-1,0,-2,-1,-1
1532066865829,-1,1,9,-4,-6,0,0,0
1532066865834,2,-1,-1,17,11,3,1,0
1532066865839,-3,-4,-7,-41,-5,-3,-3,-3
1532066865844,1,4,1,6,0,1,1,2
1532066865849,-2,-3,-6,-5,-4,-2,-5,-1
1532066865854,0,2,6,-6,-2,-1,2,-1
1532066865859,-5,0,6,7,-2,-1,-4,-1
1532066865864,1,-2,-2,8,-1,-1,-1,-1
1532066865869,-3,-6,5,-25,-4,-3,-2,-1
1532066865874,-1,-1,-5,-5,0,-1,1,-1
1532066865879,2,12,-2,4,-2,0,3,2
1532066865884,-3,-19,1,-10,-4,-3,-1,3
1532066865889,-1,11,2,10,4,2,-2,-2
1532066865894,-5,-18,-4,-6,-1,0,-1,0
1532066865899,-2,-1,-6,-1,-1,0,-3,-3
1532066865904,2,3,4,-9,2,1,2,1
1532066865909,1,-2,-2,15,-5,-2,-1,-3
1532066865914,-1,9,3,4,-2,-2,-1,4
1532066865919,3,-13,1,-2,-1,-1,1,0
1532066865924,7,-1,-7,0,-2,-4,-2,-7
1532066865929,-2,-1,8,-5,2,0,1,-5
1532066865934,-1,3,-2,-9,-6,-2,0,-3
1532066865939,3,2,1,9,-1,-1,0,3
1532066865944,5,1,4,-4,1,0,1,5
1532066865949,-9,-5,1,-2,2,0,-2,1
1532066865954,4,-7,-17,5,-4,-2,-3,-7
1532066865959,-3,-2,0,4,4,2,0,-1
1532066865964,1,0,-4,2,-2,-1,-2,-3
1532066865969,4,9,3,1,-2,1,0,2
1532066865974,6,27,2,-4,-4,-1,-1,4
1532066865979,-10,-11,5,4,5,1,0,-1
1532066865984,-11,-44,-18,12,-2,0,-1,-5
1532066865989,15,1,1,-1,8,-2,-1,1
1532066865994,-16,-8,0,-6,-1,-2,-6,-8
1532066865999,6,21,4,-3,-1,-2,0,-4
1532066866004,-8,19,1,-13,-5,0,1,4
1532066866009,11,-5,3,16,-1,2,1,5
1532066866014,-6,-3,3,-7,0,3,5,20
1532066866019,-47,-7,-11,-5,-7,-8,-11,-21
1532066866024,18,2,-5,2,2,0,1,-13
1532066866029,22,13,-1,-9,-4,-3,-2,6
1532066866034,-20,69,17,6,1,-2,0,-5
1532066866039,-30,-99,-43,-5,-2,-1,-1,-11
1532066866044,-2,16,9,1,-2,-3,-4,2
1532066866049,-8,-2,3,-2,-3,-1,-1,-6
1532066866054,8,11,4,4,-1,1,0,1
1532066866059,27,30,14,1,4,2,4,12
1532066866064,-3,-1,-2,3,3,0,3,-3
1532066866069,-5,-9,-7,-17,1,-3,-3,-1
1532066866074,1,-30,-4,-13,6,1,-1,-4
1532066866079,8,7,-1,7,-3,-2,-4,-3
1532066866084,-6,15,-2,-1,-6,-3,-3,3
1532066866089,-2,-8,-1,1,-10,-1,1,0
1532066866094,2,-18,-12,5,3,0,-3,-9
1532066866099,10,13,3,-4,0,-1,0,2
1532066866104,1,16,8,-2,3,3,0,3
1532066866109,-15,-21,-6,-7,-4,-3,-5,-4
1532066866114,2,-15,-6,7,-6,-2,-2,-6
1532066866119,1,12,1,-2,0,1,0,3
1532066866124,-2,-5,0,-3,-6,-2,-1,0
1532066866129,1,11,3,20,12,5,3,-1
1532066866134,0,1,1,-2,1,0,0,-3
1532066866139,7,4,0,-2,2,0,1,-1
1532066866144,-4,-4,-3,6,0,0,-2,-2
1532066866149,0,-3,-3,-26,-3,1,-1,0
1532066866154,2,-4,2,-3,-6,-2,-3,0
1532066866159,2,3,3,0,-1,1,0,3
1532066866164,-1,-4,-2,-4,-2,-1,0,0
1532066866169,-3,-1,-2,0,-1,-3,0,-4
1532066866174,0,-5,-4,0,-8,-3,1,0
1532066866179,0,-3,-4,-5,0,-1,-2,0
1532066866184,-2,0,-2,-2,-2,-1,-3,-1
1532066866189,-3,-1,-2,12,5,1,-1,-1
1532066866194,1,3,-1,-5,3,0,0,0
1532066866199,0,1,3,2,-3,-1,2,1
1532066866204,-1,-2,0,-4,4,0,-1,-2
1532066866209,-1,0,1,2,-3,-3,-4,-3
1532066866214,3,1,5,5,13,4,7,5
1532066866219,1,0,0,8,-6,1,-3,-3
1532066866224,-4,-2,-1,14,-4,-6,-12,-9
1532066866229,-1,1,3,-26,0,1,1,-3
1532066866234,-2,-4,-1,9,-1,-1,0,1
1532066866239,2,-2,0,9,15,0,3,2
1532066866244,1,2,-1,-7,-4,1,4,1
1532066866249,-1,-3,-2,23,-1,1,-1,2
1532066866254,-1,-2,2,-36,-4,-2,-2,-1
1532066866259,0,3,8,2,-5,-1,0,1
1532066866264,0,0,4,5,-1,-1,1,-1
1532066866269,1,4,-1,-2,5,0,1,-2
1532066866274,-1,-5,-5,0,-6,-3,-2,0
1532066866279,-1,0,2,-7,-7,0,-1,-3
1532066866284,-2,-2,-3,1,4,-2,-2,0
1532066866289,0,1,0,-3,1,1,2,1
1532066866294,-3,-6,-4,0,-7,-3,-3,-4
1532066866299,-1,-1,3,6,1,-2,-3,-2
1532066866304,0,-2,-8,-12,-3,1,3,2
1532066866309,-2,-2,2,9,3,1,2,0
1532066866314,-2,-3,-3,8,3,-1,-5,-3
1532066866319,-2,5,3,-3,1,0,-2,-2
1532066866324,-2,-2,3,3,-2,-2,-1,-1
1532066866329,-3,-3,0,-5,-6,-5,-5,-3
1532066866334,1,2,5,3,-5,-3,-1,1
1532066866339,0,1,2,-1,12,5,4,1
1532066866344,0,0,0,14,-1,1,-1,-3
1532066866349,1,0,3,0,-6,1,0,1
1532066866354,0,0,12,1,9,2,5,5
1532066866359,1,-1,4,-5,-5,-1,1,3
1532066866364,-3,-2,-2,-10,1,-2,-6,-8
1532066866369,-4,-4,-7,16,-8,-10,-12,-10
1532066866374,0,1,-5,-12,-7,0,0,0
1532066866379,-5,-7,-6,-6,-11,-4,-6,-4
1532066866384,-1,-2,-1,1,0,-1,-3,-4
1532066866389,-1,-1,-2,-8,-5,-2,-2,-2
1532066866394,1,-3,0,-7,-3,-1,0,0
1532066866399,-1,-2,0,-6,2,0,0,1
1532066866404,0,-1,-3,9,-3,0,-1,-2
1532066866409,-1,-3,-2,1,-6,-2,-3,-1
1532066866414,1,1,2,-9,8,-1,2,0
1532066866419,-1,-4,-3,-5,-4,-1,-1,-1
1532066866424,-1,-4,0,0,0,-1,-1,-3
1532066866429,-2,0,-1,2,-2,-1,0,-2
1532066866434,0,2,1,-10,-4,-1,1,-1
1532066866439,0,11,1,-1,-3,0,1,4
1532066866444,-2,-4,1,5,5,0,0,3
1532066866449,1,-20,-6,-18,-1,-3,-2,-9
1532066866454,1,2,6,-3,-3,2,4,3
1532066866459,0,-2,-3,2,0,-1,-4,-5
1532066866464,-4,11,2,-2,-9,-4,-11,-8
1532066866469,-2,2,3,16,0,-2,-1,2
1532066866474,-1,-5,-5,-14,0,-1,-2,1
1532066866479,0,2,0,-9,-3,-1,5,4
1532066866484,0,-2,1,-3,0,1,0,1
1532066866489,-1,4,0,22,-3,0,-1,1
1532066866494,0,-3,-1,-28,-1,-1,0,-3
1532066866499,-1,-2,1,-5,-4,-1,-2,-1
1532066866504,2,-1,-2,5,4,2,-1,-1
1532066866509,-2,3,5,-1,-1,0,1,-1
1532066866514,1,5,1,15,-3,-1,0,0
1532066866519,-3,-6,-6,-9,-1,0,0,-1
1532066866524,0,-1,-3,-14,-1,-2,-1,-2
1532066866529,3,11,2,-9,4,-1,0,3
1532066866534,-1,-11,1,7,-4,-1,-3,0
1532066866539,-4,-9,0,17,3,0,-1,-5
1532066866544,-1,-3,1,1,-1,-1,3,-2
1532066866549,2,5,3,1,2,1,1,2
1532066866554,-3,7,1,-3,1,-1,0,1
1532066866559,4,5,0,6,-1,-3,-1,7
1532066866564,-4,-7,1,-3,-6,0,2,2
1532066866569,10,-30,-3,1,4,-2,-3,-8
1532066866574,-6,4,-1,4,-4,-1,-3,-5
1532066866579,0,5,3,-8,7,-1,0,-1
1532066866584,-2,7,-7,-15,-9,-4,-4,1
1532066866589,-4,7,4,0,4,2,1,3
1532066866594,0,-16,-4,7,4,0,-1,-1
1532066866599,-1,4,5,1,-3,1,2,0
1532066866604,-2,-13,-1,6,2,-3,-2,0
1532066866609,-4,2,-5,-15,-8,-2,-2,-2
1532066866614,3,4,-5,-3,-2,-2,-2,-1
1532066866619,-6,-3,-2,-9,1,0,-2,-2
1532066866624,0,-3,-4,-5,-6,0,0,-2
1532066866629,-1,0,0,5,3,1,0,-1
1532066866634,-3,3,2,-19,0,-1,-2,-3
1532066866639,2,0,9,20,-5,2,0,1
1532066866644,-1,3,2,14,0,1,-2,-2
1532066866649,-2,8,-2,-7,-4,-3,-2,1
1532066866654,-2,-5,1,0,3,1,1,2
1532066866659,-1,-16,-5,-8,0,-1,0,-3
1532066866664,3,0,4,2,-1,-1,0,-4
1532066866669,0,8,2,10,1,2,-2,0
1532066866674,3,14,-1,29,-2,-1,-1,1
1532066866679,-4,-8,-6,-41,-7,-2,-3,-3
1532066866684,-2,-11,1,-7,4,0,0,-1
1532066866689,-3,4,0,-18,-6,0,3,0
1532066866694,3,-5,0,29,8,1,-2,-1
1532066866699,-4,5,3,-9,-13,-2,-2,-1
1532066866704,1,-6,3,9,9,2,1,0
1532066866709,-1,-1,2,-5,-1,-1,-1,-2
1532066866714,0,6,-3,-5,8,-1,-3,-2
1532066866719,-2,-1,-2,4,-10,-1,1,3
1532066866724,11,4,1,-17,9,1,0,-3
1532066866729,-5,7,1,-4,0,-1,-1,-3
1532066866734,-5,-12,3,9,-10,-4,-3,2
1532066866739,1,8,0,0,2,-2,-2,-1
1532066866744,-1,0,1,16,0,-1,-1,0
1532066866749,-1,-9,-2,-20,-2,0,-1,-3
1532066866754,-4,-8,-5,-12,-4,-1,0,-2
1532066866759,0,-1,0,-2,1,3,0,1
1532066866764,-4,1,-1,3,-9,-1,-1,0
1532066866769,0,1,1,11,8,-1,-1,-1
1532066866774,2,4,6,-3,-3,-1,0,-2
1532066866779,-2,-6,1,11,-2,-4,-4,-4
1532066866784,-3,1,-2,-1,5,-1,1,-1
1532066866789,-6,-17,0,7,20,-1,-1,1
1532066866794,2,1,-1,0,-21,1,-2,-2
1532066866799,2,4,3,-14,-12,-2,-3,-1
1532066866804,-2,8,1,-5,-7,-3,-2,-1
1532066866809,-4,-10,-4,3,-8,-3,-1,1
1532066866814,0,-2,-3,-1,11,-2,-1,-1
1532066866819,5,8,2,12,12,1,0,0
1532066866824,-3,-4,-2,-3,-8,0,-2,1
1532066866829,-1,-5,0,-2,-4,-1,-2,-1
1532066866834,-5,-4,2,-4,4,1,-2,-1
1532066866839,1,2,-2,-8,-1,0,1,-1
1532066866844,-2,6,-3,0,4,0,0,1
1532066866849,2,-12,0,1,-8,1,1,0
1532066866854,0,6,2,-1,-5,-1,-2,-1
1532066866859,-3,-3,3,11,1,1,2,-1
1532066866864,-4,-5,-2,-7,3,-1,-3,-1
1532066866869,3,5,-1,-2,-7,0,1,1
1532066866874,0,8,-1,-6,0,-2,-2,-3
1532066866879,-2,-5,2,6,2,0,0,-1
1532066866884,1,2,-2,1,3,0,-1,-1
1532066866889,-1,5,3,8,-9,-1,-3,-1
1532066866894,-2,-6,-3,-19,5,0,2,1
1532066866899,0,-6,-4,-2,-5,-4,-3,0
1532066866904,1,4,2,-2,2,-1,-1,-3
1532066866909,-1,-1,-2,-2,1,-3,0,0
1532066866914,2,2,0,4,2,0,-1,1
1532066866919,-1,-4,0,1,-3,0,-1,0
1532066866924,-2,-4,3,2,-4,-1,-12,-4
1532066866929,1,6,1,7,1,0,11,2
1532066866934,-2,-3,0,-9,-4,1,-1,-2
1532066866939,-1,0,-1,-4,-1,-2,0,0
1532066866944,0,-4,2,2,0,-3,0,0
1532066866949,3,3,0,-3,3,-1,-4,-4
1532066866954,-2,-4,3,-8,-9,-1,-1,0
1532066866959,0,1,2,5,8,-1,-1,0
1532066866964,-1,3,2,-2,-2,-1,0,-2
1532066866969,-2,-3,-3,-3,-1,2,-3,1
1532066866974,1,-3,0,16,7,0,2,-1
1532066866979,0,-3,-3,-28,-10,-1,-2,-5
1532066866984,-1,1,0,1,-5,0,2,1
1532066866989,-2,-5,1,7,4,0,0,0
1532066866994,-1,-9,-2,-9,1,-4,-6,-2
1532066866999,1,6,2,10,-1,0,-1,0
1532066867004,-3,-2,4,-3,-2,0,1,-1
1532066867009,-1,2,-2,-5,-3,-3,-3,-2
1532066867014,0,2,3,0,-5,-3,-1,-1
1532066867019,-1,-3,0,8,7,1,-2,0
1532066867024,-1,-3,-1,-8,-4,-1,1,-2
1532066867029,-2,0,2,4,-3,0,-3,-3
1532066867034,2,-1,0,-6,-5,-2,-1,1
1532066867039,-1,-4,-1,8,6,0,2,-1
1532066867044,0,0,1,3,0,-1,-1,1
1532066867049,1,2,-1,13,8,1,-1,-1
1532066867054,-5,0,1,-13,-1,-1,-1,-3
1532066867059,-2,1,1,-5,-7,0,-2,-1
1532066867064,-1,-2,1,11,4,-1,1,1
1532066867069,-3,1,1,1,-5,2,-1,2
1532066867074,1,-7,1,0,0,-2,1,0
1532066867079,0,9,2,4,3,-3,-3,-2
1532066867084,0,-2,1,-1,-2,-1,0,0
1532066867089,3,5,4,-8,-2,-1,-1,-2
1532066867094,-3,1,0,6,2,0,1,0
1532066867099,-4,-7,1,-2,-2,-1,0,-3
1532066867104,2,0,0,9,7,1,0,0
1532066867109,0,0,-1,-9,-7,0,-1,0
1532066867114,0,2,-3,11,-3,1,1,0
1532066867119,0,-1,1,-9,-1,-1,0,1
1532066867124,0,-1,1,-2,0,-1,1,0
1532066867129,-1,-1,0,-1,-5,-1,-2,-1
1532066867134,0,0,-1,3,2,0,1,-1
1532066867139,-1,-2,-2,1,0,-2,-1,0
1532066867144,-2,-2,1,-7,-8,-2,-2,-3
1532066867149,-3,-5,0,-10,-3,-4,-5,-2
1532066867154,1,0,3,8,-1,0,1,0
1532066867159,-4,-6,1,0,0,-1,-3,-2
1532066867164,1,3,3,-6,0,0,-1,0
1532066867169,-3,-2,-1,3,3,-3,-10,-2
1532066867174,-2,0,4,-12,-3,-1,5,-1
1532066867179,1,1,0,-6,-4,-3,1,2
1532066867184,-2,0,-2,14,-9,-1,-1,-1
1532066867189,-1,0,-2,-26,2,1,2,-1
1532066867194,-2,-5,-3,-2,-5,-1,-5,-1
1532066867199,0,2,-1,11,4,1,-1,-2
1532066867204,0,2,-3,-20,0,-1,1,-1
1532066867209,-4,-3,-4,14,-6,-5,-3,0
1532066867214,-4,1,1,-11,-1,-1,-2,0
1532066867219,2,-1,4,10,1,1,2,-1
1532066867224,0,3,2,10,-1,-3,-2,-1
1532066867229,0,-2,0,-7,1,1,2,0
1532066867234,-2,-1,-3,-4,2,-3,-1,-1
1532066867239,-4,-5,-1,5,-6,-4,-6,-1
1532066867244,1,0,3,-3,3,2,2,-2
1532066867249,-1,-3,-1,2,6,0,0,-3
1532066867254,-2,1,1,3,-11,-2,2,2
1532066867259,1,4,1,-3,11,1,-2,-1
1532066867264,1,-3,1,0,-2,0,-1,1
1532066867269,2,2,2,4,3,1,1,1
1532066867274,0,-3,0,-8,-2,-1,-2,-3
1532066867279,-2,-4,-1,-2,-5,-2,-1,2
1532066867284,-1,0,-2,-11,-1,0,-1,0
1532066867289,-2,1,2,8,-6,-2,0,0
1532066867294,1,0,0,5,2,1,-2,0
1532066867299,1,1,2,-9,3,1,2,-1
1532066867304,-3,-4,-1,15,0,-2,-3,-1
1532066867309,-1,-3,2,-15,-2,0,-1,0
1532066867314,0,-2,1,-9,-4,-3,-1,-1
1532066867319,-2,-1,0,-2,0,-2,0,-2
1532066867324,-2,-1,-3,5,-7,0,-1,0
1532066867329,2,-3,0,6,3,-1,0,-1
1532066867334,-1,-1,0,0,7,0,-1,-1
1532066867339,2,2,0,14,4,2,2,0
1532066867344,0,-1,1,-23,0,-1,0,-2
1532066867349,-2,-1,-3,-3,-8,-1,-1,-1
1532066867354,-1,-3,-1,0,0,0,-1,-1
1532066867359,-2,-2,0,-4,-6,-2,-3,-1
1532066867364,0,-3,2,5,3,-1,0,2
1532066867369,0,0,3,3,3,-1,-1,-2
1532066867374,0,-2,1,-4,-4,-1,-1,-2
1532066867379,-2,0,2,0,-1,0,-2,0
1532066867384,-3,-3,0,17,1,-2,-2,-2
1532066867389,-2,0,2,-21,-1,-1,-2,1
1532066867394,-2,-1,1,1,-6,-2,2,-1
1532066867399,0,-1,2,5,4,1,0,-1
1532066867404,-2,-3,1,-1,-1,-1,-1,-1
1532066867409,-1,-3,0,2,-1,-2,-1,-2
1532066867414,0,2,0,6,-2,1,-1,-1
1532066867419,-3,-3,2,-6,1,-1,2,-2
1532066867424,0,3,1,-10,-2,-1,1,-2
1532066867429,0,-3,0,2,0,-1,-3,0
1532066867434,1,4,-1,-12,-2,0,-1,2
1532066867439,-2,-3,-1,14,0,-1,-2,-1
1532066867444,-1,-2,-3,-2,-3,-1,-1,0
1532066867449,-1,0,1,1,8,2,2,0
1532066867454,0,1,0,13,2,0,-1,1
1532066867459,-1,-2,-1,-12,-6,-5,-3,-3
1532066867464,-1,0,2,0,-3,-1,0,-2
1532066867469,0,3,1,-2,0,0,2,-2
1532066867474,0,-2,-1,0,5,1,1,-1
1532066867479,1,4,-1,-5,-1,2,-1,0
1532066867484,-2,0,3,-7,-1,-1,-1,0
1532066867489,0,1,1,6,-3,-4,-1,0
1532066867494,1,-5,4,1,-3,0,-3,-2
1532066867499,-2,1,1,0,0,0,-1,-3
1532066867504,0,1,-1,-20,2,2,0,-1
1532066867509,-3,-1,0,6,-3,-1,-1,0
1532066867514,-1,0,2,7,-2,-4,-3,-1
1532066867519,2,0,2,-11,0,-1,1,0
1532066867524,-1,2,2,15,3,0,0,-1
1532066867529,-1,0,1,2,1,-1,0,-1
1532066867534,1,1,1,-8,-6,-4,-2,-2
1532066867539,0,-2,0,3,-1,0,0,1
1532066867544,-3,-3,-1,-3,0,-1,0,-1
1532066867549,-1,1,-2,1,-6,-2,-1,0
1532066867554,0,-5,0,-2,3,1,-1,-1
1532066867559,1,4,4,-2,-2,-1,-1,-3
1532066867564,-3,-7,-4,-5,1,1,-4,-1
1532066867569,-1,0,0,1,8,2,1,-1
1532066867574,-2,1,-2,-7,-15,-1,1,0
1532066867579,-3,-2,-2,2,4,0,1,-1
1532066867584,1,-4,2,12,-4,-1,2,4
1532066867589,-1,-4,0,-29,6,-2,-1,-2
1532066867594,-1,-1,-3,10,10,0,-1,-2
1532066867599,-1,-3,-1,-6,-8,-3,-3,1
1532066867604,0,3,-3,-1,10,0,0,-3
1532066867609,-1,-5,-3,1,-11,0,-2,-1
1532066867614,1,5,0,2,2,1,1,0
1532066867619,-4,-4,-1,-3,0,-1,0,-1
1532066867624,1,1,-2,7,1,0,-2,-5
1532066867629,0,-4,1,-5,-5,-1,0,3
1532066867634,0,5,0,5,5,-2,-2,0
1532066867639,-3,-3,2,2,-2,-1,-2,2
1532066867644,2,-4,-1,7,-7,2,2,0
1532066867649,1,5,9,11,-8,-3,-2,0
1532066867654,1,3,-2,-47,5,-2,0,-2
1532066867659,-1,3,0,20,-17,-3,-2,-2
1532066867664,-2,-1,0,-2,7,-1,-2,2
1532066867669,0,4,-3,-1,1,0,-1,-2
1532066867674,-6,-15,-1,-3,-4,1,1,2
1532066867679,4,8,1,-4,10,0,0,-2
1532066867684,0,4,6,-17,-8,-2,-1,-1
1532066867689,-3,-15,-3,17,3,-1,-1,-4
1532066867694,-2,-1,3,2,-3,-2,-2,0
1532066867699,-1,-3,-3,-5,2,2,0,2
1532066867704,3,4,-2,-1,-8,-1,-2,-2
1532066867709,0,0,-2,-5,7,-1,2,-1
1532066867714,-1,-4,3,4,-4,2,-1,-3
1532066867719,-1,1,2,10,0,1,2,0
1532066867724,-3,4,3,-4,-7,-2,-1,0
1532066867729,-2,-1,-2,-18,-5,-1,-2,-1
1532066867734,1,2,-3,11,21,3,-1,-3
1532066867739,2,-1,3,-14,-13,-2,-1,2
1532066867744,-3,-5,1,-7,3,-3,-3,-2
1532066867749,-2,-9,1,-7,-6,-1,-3,-3
1532066867754,1,0,-3,13,4,-1,0,-2
1532066867759,0,5,0,-25,-10,-2,0,0
1532066867764,-2,-10,0,-10,9,1,-3,-3
1532066867769,-1,3,0,17,-2,-4,-2,0
1532066867774,-2,4,4,-7,-10,-3,-2,-2
1532066867779,-1,12,-2,7,13,2,2,0
1532066867784,-1,-32,5,-10,-1,-3,2,3
1532066867789,5,3,3,-7,4,1,1,-3
1532066867794,-7,-1,5,42,-2,-1,1,-2
1532066867799,-5,-7,-4,-15,-3,-5,-4,-4
1532066867804,-2,5,-6,-6,-8,3,-2,2
1532066867809,-1,1,0,1,6,0,-2,1
1532066867814,1,0,0,-6,5,-1,-1,1
1532066867819,1,-3,2,5,2,2,3,-1
1532066867824,-3,6,2,-14,-7,-2,-1,-1
1532066867829,-2,-3,-2,5,-4,-3,-3,0
1532066867834,-1,3,2,20,1,0,1,-4
1532066867839,-4,1,3,-7,-2,-1,-1,1
1532066867844,-1,-2,3,8,1,0,-3,-1
1532066867849,-1,-4,1,-1,5,-2,-2,-3
1532066867854,-1,4,2,10,-6,-1,-1,1
1532066867859,-2,-2,0,-12,5,0,-2,-3
1532066867864,-1,-5,0,-5,-3,-3,-1,-1
1532066867869,-1,0,-2,-1,-1,-1,-1,0
1532066867874,-2,-4,1,-1,3,-3,-1,-1
1532066867879,1,3,0,5,-3,0,1,-2
1532066867884,2,3,-3,9,7,2,3,-2
1532066867889,-2,-6,-1,-2,-6,-3,-2,0
1532066867894,-1,3,-2,-3,0,0,0,-1
1532066867899,0,-2,0,-6,-12,-1,0,1
1532066867904,0,0,2,0,10,-1,1,-2
1532066867909,-2,-5,-1,0,-4,-1,-2,0
1532066867914,3,4,-2,-2,-10,1,1,0
1532066867919,-1,-1,-1,-1,-5,0,-1,-1
1532066867924,-2,5,0,6,-2,-1,-3,-1
1532066867929,-4,-6,-6,-1,-2,-2,0,-1
1532066867934,0,-3,-5,0,3,-2,-2,-3
1532066867939,0,1,-4,6,1,0,1,-1
1532066867944,1,-3,-3,-4,-3,2,0,-2
1532066867949,0,1,-1,-3,-2,-1,-3,-2
1532066867954,-1,-1,-1,-5,-3,-3,-3,0
1532066867959,0,1,-2,3,8,1,0,2
1532066867964,1,-1,2,0,2,-1,-1,-1
1532066867969,-2,-1,-2,16,-2,0,-2,-2
1532066867974,0,-2,-3,0,4,-1,-1,-1
1532066867979,-4,-4,2,-10,-8,0,0,-1
1532066867984,1,-4,1,-16,-1,-2,-1,2
1532066867989,5,2,5,-11,-7,1,1,-3
1532066867994,-1,-2,0,22,7,1,0,0
1532066867999,-2,2,3,0,-4,-2,-3,0
1532066868004,-2,-4,-2,-1,-4,1,-1,-1
1532066868009,0,0,1,-7,0,-1,0,-3
1532066868014,-3,2,3,-5,1,0,3,-2
1532066868019,0,-1,1,-5,0,-1,1,0
1532066868024,-2,0,0,4,-6,-3,-2,-1
1532066868029,-1,-3,-1,-6,1,1,-1,0
1532066868034,-1,5,2,-2,-6,-3,-4,-1
1532066868039,1,-3,3,5,5,-2,-1,0
1532066868044,-1,-3,-4,-1,0,0,-1,-3
1532066868049,-1,2,1,4,2,0,1,1
1532066868054,-2,2,3,-2,-7,-2,-1,-1
1532066868059,0,3,-2,2,-1,-1,-2,-1
1532066868064,-2,1,-3,2,0,-1,-2,1
1532066868069,1,-6,4,-7,-5,-2,0,0
1532066868074,-2,-2,-2,-6,-6,-1,-2,0
1532066868079,-2,-2,1,4,-2,-2,-2,-2
1532066868084,0,-2,2,-7,-2,0,-1,-1
1532066868089,-4,-3,-3,2,-1,1,-2,0
1532066868094,2,1,-2,-6,6,0,0,-1
1532066868099,-1,-8,-1,4,-4,-1,0,-3
1532066868104,0,0,3,9,1,0,-1,-1
1532066868109,-3,0,0,-16,0,-1,-1,-2
1532066868114,0,-2,4,2,1,-2,-2,1
1532066868119,-3,5,1,-4,-1,1,0,0
1532066868124,0,-6,-2,2,0,-2,-1,0
1532066868129,1,3,0,6,4,-2,-1,1
1532066868134,2,-7,8,-8,-1,-1,0,-2
1532066868139,1,1,6,-3,1,-1,-1,-1
1532066868144,-2,-2,1,-4,-5,-1,0,1
1532066868149,-1,3,1,0,-3,0,0,1
1532066868154,-2,-1,2,-1,8,1,-1,0
1532066868159,0,-2,3,2,4,-1,1,-2
1532066868164,-1,2,2,-5,-5,-2,0,0
1532066868169,-2,-4,-2,5,1,-1,-1,0
1532066868174,-1,2,-1,0,0,-3,0,0
1532066868179,-1,-1,-2,-6,-1,-1,-1,0
1532066868184,-1,0,1,5,-8,0,-1,-1
1532066868189,-2,-5,2,2,-3,0,-2,-2
1532066868194,0,-3,-2,3,3,2,-1,-1
1532066868199,-1,2,0,3,4,1,2,1
1532066868204,0,-1,1,-7,0,0,0,0
1532066868209,1,-2,1,1,-4,-2,-1,1
1532066868214,-1,-1,-2,5,-3,-1,-1,-1
1532066868219,0,-1,0,-1,1,-1,-2,-2
1532066868224,-1,-1,3,-2,-1,-3,-2,-1
1532066868229,-1,0,-1,5,3,0,0,-1
1532066868234,-2,-6,1,-8,0,-1,1,1
1532066868239,1,0,2,4,-2,-1,-2,-2
1532066868244,-3,-2,-2,-16,1,-5,-3,-1
1532066868249,-1,-3,2,0,-6,-3,-2,-1
1532066868254,-1,1,2,1,3,0,0,-2
1532066868259,-1,-6,0,3,-1,0,-1,0
1532066868264,3,-1,2,7,7,0,0,-1
1532066868269,-2,2,6,-10,-9,0,0,0
1532066868274,-1,1,-5,5,-1,0,0,-1
1532066868279,0,-1,-6,-4,-2,-1,-1,-2
1532066868284,-1,0,-4,0,3,0,1,-3
1532066868289,-3,-5,-10,-4,0,-2,1,-1
1532066868294,-1,1,-7,0,-1,-2,-2,-2
1532066868299,1,2,-4,-8,-5,-1,-3,2
1532066868304,0,-2,-2,0,-6,-1,0,0
1532066868309,0,-1,-6,1,1,-2,1,0
1532066868314,-1,-1,-2,-3,-5,-2,0,-3
1532066868319,-2,-2,-5,-2,2,1,0,-1
1532066868324,0,-2,-1,12,4,0,0,0
1532066868329,1,2,-3,-23,-5,0,-2,0
1532066868334,0,-2,-3,-3,-4,-2,-3,-1
1532066868339,-1,1,-3,-3,-1,-1,1,0
1532066868344,-5,-8,-1,12,-5,-1,-1,-3
1532066868349,2,2,-2,-6,11,1,0,-1
1532066868354,3,-1,0,5,0,-1,0,0
1532066868359,1,2,-2,-3,0,-1,-2,-1
1532066868364,1,3,-1,-2,-2,1,0,-1
1532066868369,-3,-5,3,7,2,-1,-1,-2
1532066868374,-2,-1,1,-8,-4,1,0,2
1532066868379,-2,-1,3,15,-2,0,0,2
1532066868384,1,0,-1,-21,-3,-2,-1,0
1532066868389,-3,-6,0,8,3,1,0,-2
1532066868394,-3,-1,1,4,-1,0,-1,-2
1532066868399,-1,-5,4,-1,-4,-1,-2,-2
1532066868404,0,4,2,16,2,2,-1,1
1532066868409,0,-1,1,-19,-4,0,-3,1
1532066868414,-2,-2,3,-1,0,-2,0,0
1532066868419,0,1,-1,-2,0,1,2,-1
1532066868424,1,-4,0,0,-3,-1,-1,-2
1532066868429,3,2,3,2,3,-1,-2,-1
1532066868434,-1,-1,6,-1,-7,-1,-3,-2
1532066868439,0,-1,4,-3,2,1,1,0
1532066868444,2,0,-2,-2,4,0,0,0
1532066868449,-2,0,-1,2,-2,-1,-1,0
1532066868454,-1,-2,-2,-8,-2,0,-1,1
1532066868459,1,1,1,-2,1,-4,0,0
1532066868464,-3,0,1,0,-6,0,-2,-2
1532066868469,-1,1,2,-2,3,2,-2,-1
1532066868474,0,-1,2,-7,-2,-1,-1,0
1532066868479,0,-1,-1,2,7,-1,-2,-1
1532066868484,-2,0,4,-11,-10,1,-1,2
1532066868489,1,0,2,16,-2,-2,-2,0
1532066868494,0,1,2,-1,3,-2,-2,-2
1532066868499,-3,-6,-2,1,-8,-4,-1,-1
1532066868504,0,-1,-2,-15,6,-3,-2,-1
1532066868509,1,1,4,2,-1,0,2,0
1532066868514,-3,-4,2,6,1,-1,-1,-2
1532066868519,0,0,4,-3,-5,1,-1,-1
1532066868524,-2,0,2,8,-1,-2,-1,0
1532066868529,1,1,5,10,-5,-3,-1,0
1532066868534,-1,-2,-3,-39,-5,-2,-3,-1
1532066868539,-1,-1,3,-1,-1,1,0,-2
1532066868544,-3,-3,2,-6,-3,-1,-2,0
1532066868549,1,0,1,2,2,-1,0,-1
1532066868554,0,1,0,12,-2,-1,1,0
1532066868559,-5,-6,-1,-4,-3,-1,-2,-1
1532066868564,2,-2,5,-11,1,-1,1,0
1532066868569,-1,2,2,-1,-4,2,1,-3
1532066868574,-2,0,2,24,3,0,-2,-1
1532066868579,-1,1,1,-4,-3,-1,-2,-1
1532066868584,-2,-2,-1,7,2,-1,0,-1
1532066868589,1,-3,0,18,2,0,0,0
1532066868594,2,-1,0,-46,-1,0,1,-3
1532066868599,0,3,4,1,-1,-1,-1,0
1532066868604,-1,2,3,20,-3,0,0,0
1532066868609,0,0,1,-25,4,-2,-1,1
1532066868614,2,1,-3,-4,-1,0,3,-1
1532066868619,-4,-7,-2,17,-2,-1,-2,-1
1532066868624,-3,-1,0,-6,1,-2,-4,0
1532066868629,-1,1,-1,2,0,0,-1,0
1532066868634,1,-4,1,23,1,-1,0,0
1532066868639,3,5,-1,-23,3,2,0,-1
1532066868644,-3,-3,-2,2,-2,-1,-1,-2
1532066868649,-1,-1,-5,-1,-4,-1,-3,-1
1532066868654,0,3,-3,9,2,-1,-1,1
1532066868659,0,-8,-5,-12,4,0,1,-2
1532066868664,-6,-5,-3,-10,-8,-5,-3,-1
1532066868669,-3,0,-1,0,3,-1,-1,-1
1532066868674,-1,0,-1,3,-2,-1,-2,-1
1532066868679,1,-2,1,13,-3,0,-1,-1
1532066868684,3,4,-3,-2,1,1,1,-1
1532066868689,-3,-4,-2,-14,-5,-2,-2,0
1532066868694,-4,-5,-3,13,-8,-1,-2,-3
1532066868699,-1,3,-3,-1,9,0,2,1
1532066868704,2,-2,-6,-4,1,-1,-1,0
1532066868709,0,1,-4,1,-4,0,0,-1
1532066868714,-2,0,2,5,0,-1,0,-1
1532066868719,-2,-3,-6,1,-2,-1,0,0
1532066868724,2,-2,-5,-14,-9,-1,-2,0
1532066868729,0,-3,-2,14,9,1,0,-3
1532066868734,-1,1,2,18,6,0,0,0
1532066868739,0,1,1,-30,-13,-1,-1,-2
1532066868744,-3,-5,-1,4,-2,1,-2,0
1532066868749,-2,2,1,-1,-6,0,0,0
1532066868754,-1,-4,-1,12,1,-1,1,0
1532066868759,2,4,5,1,4,-2,0,0
1532066868764,-1,3,5,-4,0,1,1,0
1532066868769,-4,-7,-4,-5,-2,-2,-3,-1
1532066868774,2,0,0,1,0,2,-2,1
1532066868779,-1,3,4,8,1,-2,0,-2
1532066868784,1,1,4,0,1,0,0,-1
1532066868789,-1,-2,0,-8,2,-1,1,-1
1532066868794,0,5,-1,-4,2,0,-1,-1
1532066868799,-2,-3,0,5,-6,-1,-2,1
1532066868804,-5,-3,-2,-8,5,-1,1,-3
1532066868809,0,-2,2,4,-3,-2,-3,-1
1532066868814,2,5,3,9,-1,-2,0,-2
1532066868819,1,-1,-2,-31,0,0,-1,-1
1532066868824,-5,-4,0,28,-1,-3,-3,-1
1532066868829,0,1,0,-13,-4,-2,-1,-2
1532066868834,-3,-2,1,-12,-3,-2,-2,0
1532066868839,3,1,0,9,8,1,-1,0
1532066868844,0,0,3,6,1,-2,-1,0
1532066868849,0,-1,0,1,1,-2,-1,0
1532066868854,0,1,4,-5,0,0,-1,1
1532066868859,-3,-1,1,3,-4,-2,-1,0
1532066868864,2,0,-1,-9,3,1,0,-2
1532066868869,0,1,2,9,0,-1,-1,-1
1532066868874,-1,0,3,-8,-5,0,-3,-2
1532066868879,0,-3,2,5,9,-1,-2,-1
1532066868884,-1,0,5,1,-9,0,1,-2
1532066868889,0,1,2,-1,2,0,0,1
1532066868894,-2,-3,-2,-4,4,-1,-1,-1
1532066868899,-1,2,1,2,-7,-1,-2,-1
1532066868904,3,5,2,3,5,-1,-1,-1
1532066868909,-3,0,2,-3,-3,0,0,0
1532066868914,-4,-3,-2,-21,-7,-3,-2,-2
1532066868919,-4,-8,1,2,-8,-3,-3,-2
1532066868924,2,3,0,1,6,-1,0,1
1532066868929,-1,-3,3,0,-4,-1,-2,-3
1532066868934,0,-1,1,1,-5,-1,-1,-1
1532066868939,-1,-2,0,-6,1,0,-1,-1
1532066868944,3,-1,1,7,0,1,-1,0
1532066868949,-1,-1,1,0,-7,-1,-1,0
1532066868954,1,-2,0,-4,-3,-1,0,-3
1532066868959,-1,1,2,3,3,-1,0,-1
1532066868964,-2,-4,-1,0,-2,-2,-2,0
1532066868969,1,0,0,-3,-6,0,-1,-1
1532066868974,-2,-1,0,-1,0,-3,-1,0
1532066868979,1,-1,4,-2,-2,-1,0,1
1532066868984,-1,-3,1,-1,0,-1,-2,-1
1532066868989,0,6,1,3,-4,-1,-1,-1
1532066868994,-1,-5,0,0,5,0,0,-1
1532066868999,0,2,-1,-4,-7,-1,-2,-1
1532066869004,1,0,-3,-4,0,-1,2,1
1532066869009,-2,-1,0,6,8,1,-1,-1
1532066869014,-1,0,-1,-4,-4,-2,-2,-3
1532066869019,-1,0,-4,-4,-6,0,0,-1
1532066869024,0,-3,0,3,-4,0,0,0
1532066869029,-2,1,-3,-9,1,0,-1,1
1532066869034,-3,-2,-3,0,-3,-1,-1,-1
1532066869039,0,-4,-2,-1,2,-2,-1,-1
1532066869044,-2,-1,1,-4,-4,-3,0,-2
1532066869049,1,-1,-3,5,4,0,1,-2
1532066869054,-3,-2,-2,-4,0,-1,-2,1
1532066869059,1,-1,-1,0,2,0,0,-1
1532066869064,-1,2,-1,-8,-4,-1,-2,-1
1532066869069,0,-6,0,5,0,-2,-2,0
1532066869074,1,5,1,-1,-1,-1,1,1
1532066869079,0,-2,1,-3,6,0,0,-1
1532066869084,0,1,-1,7,-10,-2,-2,0
1532066869089,-2,0,0,-5,-3,-2,-1,0
1532066869094,-3,-2,-1,1,-2,1,-1,-1
1532066869099,-2,0,-1,2,0,0,-3,-2
1532066869104,-3,-5,2,-2,1,-1,-1,-1
1532066869109,2,1,2,1,-1,-2,1,-1
1532066869114,-1,-2,1,0,-6,0,-2,-2
1532066869119,0,-1,-1,-4,5,-2,0,-2
1532066869124,-2,1,3,13,-2,1,0,1
1532066869129,-4,-7,0,-5,-2,-2,0,-3
1532066869134,2,2,0,-1,0,-3,-1,0
1532066869139,-1,-1,1,0,-4,0,0,2
1532066869144,0,3,3,-6,4,-1,-1,0
1532066869149,-2,-2,1,6,7,-2,0,-1
1532066869154,-1,2,2,-6,-9,1,1,2
1532066869159,1,-3,-2,3,5,-1,0,0
1532066869164,0,3,-2,-8,-3,-2,-1,0
1532066869169,-1,-1,-2,4,1,0,-2,-2
1532066869174,1,0,1,24,13,0,-2,-4
1532066869179,-3,-6,2,-35,-30,-1,-1,-2
1532066869184,-3,-10,-4,-8,-3,-4,-3,-2
1532066869189,2,6,1,-2,-6,-1,-3,-1
1532066869194,1,0,0,-6,-1,-1,0,-1
1532066869199,-2,-2,0,15,7,-1,-2,-2
1532066869204,-2,-2,3,9,2,1,3,-3
1532066869209,-2,-5,0,-14,-9,0,1,-1
1532066869214,-2,-2,0,6,-3,-2,-3,0
1532066869219,1,3,1,6,7,-1,0,-1
1532066869224,-2,-1,2,-7,-2,1,-1,0
1532066869229,0,-3,2,6,4,-1,-1,1
1532066869234,3,2,3,-6,-1,0,1,0
1532066869239,-1,-6,1,3,-4,0,-1,-2
1532066869244,2,4,1,0,0,-2,-2,-1
1532066869249,-2,0,1,-1,0,0,-1,-1
1532066869254,-2,-5,2,-8,-3,-1,-2,-3
1532066869259,-1,1,1,-1,0,0,1,0
1532066869264,1,0,1,2,3,0,1,-1
1532066869269,-2,-3,0,-2,4,-1,0,0
1532066869274,-1,1,1,-8,-7,0,1,2
1532066869279,0,1,0,-10,0,-2,-2,0
1532066869284,0,-4,0,0,-9,-2,-3,-2
1532066869289,-3,-5,2,2,3,1,-2,-1
1532066869294,-2,-3,3,-4,-3,-2,-2,-1
1532066869299,0,3,3,8,2,2,-1,-2
1532066869304,2,1,2,-4,4,0,1,1
1532066869309,0,-4,2,-8,-10,-3,-2,-1
1532066869314,1,-3,0,3,7,-1,-1,-1
1532066869319,0,3,5,4,1,-1,-1,-2
1532066869324,-2,-2,1,-3,3,0,0,-1
1532066869329,-1,0,2,1,-3,-2,-2,-1
1532066869334,-1,-4,-1,-2,-1,-1,1,0
1532066869339,-1,3,2,5,-1,0,1,-1
1532066869344,1,-8,-2,-3,-3,-1,-3,0
1532066869349,2,9,1,2,-2,0,-2,-2
1532066869354,0,0,-1,-2,-1,-1,0,-2
1532066869359,-1,-1,-1,-4,-1,-1,-3,-2
1532066869364,-2,-2,-1,-1,1,-1,0,0
1532066869369,-1,-3,-1,5,-1,1,0,0
1532066869374,0,1,0,-2,-1,-3,0,0
1532066869379,-1,-4,-1,-2,-1,-3,-3,-1
1532066869384,-1,-2,-2,1,1,-3,-2,-3
1532066869389,0,4,0,3,-1,-1,1,-1
1532066869394,-3,-4,-1,4,1,-1,-1,-2
1532066869399,-1,-1,-3,-1,-3,0,-1,1
1532066869404,0,1,0,4,-1,0,0,-1
1532066869409,-1,-2,-4,-15,-4,0,1,-1
1532066869414,1,3,-1,2,3,0,-2,0
1532066869419,-1,-4,-3,8,-1,0,0,-2
1532066869424,0,5,-3,-5,2,1,0,0
1532066869429,-1,-2,-2,-1,-6,-4,-2,0
1532066869434,1,3,2,-1,1,1,0,-1
1532066869439,-3,-2,1,11,1,-1,0,-2
1532066869444,-1,-4,1,7,0,-2,0,-2
1532066869449,1,0,-1,-4,4,0,1,-1
1532066869454,-1,-2,-2,-9,-2,-1,0,-1
1532066869459,1,3,1,1,-1,-3,-2,-1
1532066869464,-2,-1,0,1,-3,0,1,1
1532066869469,-2,-2,-2,5,6,1,0,1
1532066869474,-2,-4,-1,-1,-6,-3,-3,-1
1532066869479,1,2,-1,-4,1,-1,1,-1
1532066869484,-2,-1,1,-3,-2,-2,-1,-1
1532066869489,-2,-6,0,-2,1,-2,-1,0
1532066869494,-2,0,2,-1,-3,-3,-1,0
1532066869499,-2,-5,1,-2,1,-1,-1,0
1532066869504,-2,0,1,-6,-2,-1,-2,-1
1532066869509,0,-2,-1,6,-5,0,-1,0
1532066869514,1,-4,0,6,1,-1,-1,0
1532066869519,2,5,3,-15,1,0,-1,-1
1532066869524,-2,-4,0,-1,-4,-2,-2,-1
1532066869529,-3,-2,2,3,-4,-2,-3,-2
1532066869534,1,0,2,3,4,3,-1,0
1532066869539,1,-5,-1,-12,-3,-2,-1,0
1532066869544,0,1,1,-1,0,0,0,-1
1532066869549,-1,-1,1,-1,0,-1,0,-1
1532066869554,-1,0,-1,-1,-3,-1,0,1
1532066869559,-3,1,0,4,0,-1,-1,-1
1532066869564,-1,-3,1,4,2,1,0,-2
1532066869569,1,2,1,1,7,-2,-2,1
1532066869574,-3,-2,-1,-8,-3,-2,-2,-1
1532066869579,-1,-2,1,3,0,-1,0,0
1532066869584,0,1,0,-5,-7,-1,-1,0
1532066869589,-2,-2,0,-7,3,2,-1,-2
1532066869594,-2,1,2,3,-2,-2,-1,0
1532066869599,0,-1,-1,-5,0,0,-1,0
1532066869604,0,0,1,3,3,-1,-1,0
1532066869609,0,1,4,-2,-4,0,0,0
1532066869614,-2,-2,0,-2,-2,0,-1,-2
1532066869619,-1,-3,0,-3,-8,-3,-2,-2
1532066869624,-2,0,-1,3,8,1,-1,0
1532066869629,1,3,3,-5,-2,0,-1,-1
1532066869634,-1,-3,1,-1,-3,-1,-1,0
1532066869639,-2,1,1,8,-4,-3,-2,-2
1532066869644,0,-2,-1,1,8,2,-2,-1
1532066869649,1,-4,-2,-2,-4,-3,-2,-1
1532066869654,0,2,4,-1,3,0,-1,-1
1532066869659,0,-1,2,-1,-1,0,-1,0
1532066869664,-1,-1,1,2,-4,-1,2,-1
1532066869669,0,2,1,-1,4,2,1,0
1532066869674,-3,-2,-1,0,-1,-1,-1,-2
1532066869679,2,1,0,0,1,1,-1,1
1532066869684,-1,-1,2,-5,-3,-1,-2,-2
1532066869689,-1,1,1,2,-4,-1,0,0
1532066869694,-1,-1,0,-1,-6,-1,2,-1
1532066869699,-1,-2,2,-2,1,-1,0,-1
1532066869704,-2,-1,2,-1,2,1,-1,1
1532066869709,0,0,0,-4,-4,-1,-2,-1
1532066869714,-1,-2,-2,3,0,-1,-1,-2
1532066869719,-1,0,-1,2,3,2,-1,-1
1532066869724,1,1,0,-10,-3,-1,-2,-1
1532066869729,1,-3,0,-2,-2,-2,-1,-1
1532066869734,-2,2,1,1,4,-1,-1,0
1532066869739,-3,-7,0,-7,-4,-3,1,-1
1532066869744,-1,2,0,2,-3,-2,-1,-3
1532066869749,-2,0,-1,1,1,0,-1,0
1532066869754,1,-4,-2,-4,-4,-1,0,-2
1532066869759,0,1,-5,0,4,-1,-1,0
1532066869764,-2,-2,-2,-1,0,-2,0,-3
1532066869769,-1,-2,0,-1,0,-1,0,0
1532066869774,2,0,2,7,-1,0,0,0
1532066869779,-2,3,1,3,-1,1,0,-1
1532066869784,-2,-1,-4,2,-4,-2,-2,1
1532066869789,-2,0,-1,-2,-1,2,-2,-2
1532066869794,-1,2,0,13,2,-1,-2,-2
1532066869799,-2,-6,1,-24,-2,1,-1,1
1532066869804,2,4,0,4,-2,1,-1,2
1532066869809,0,0,-1,-1,2,0,1,-1
1532066869814,-2,-1,-3,-4,-1,0,-2,0
1532066869819,-2,-2,3,9,-2,0,-1,-2
1532066869824,1,-3,3,0,3,0,0,-2
1532066869829,0,0,-1,-5,-4,-3,-2,0
1532066869834,-2,-4,1,-2,-2,1,0,-2
1532066869839,3,1,-3,-2,-2,-1,-1,2
1532066869844,-1,-2,-1,1,0,-2,-2,-1
1532066869849,-2,0,0,6,-2,-2,0,-1
1532066869854,0,1,2,-6,0,-2,-1,1
1532066869859,-5,1,0,13,0,0,-1,-1
1532066869864,-1,-4,1,-35,-6,-3,0,-1
1532066869869,3,1,2,30,1,0,-1,0
1532066869874,-1,-2,0,-6,-4,-1,0,1
1532066869879,3,2,5,-6,6,1,-1,1
1532066869884,-3,-2,-2,0,-1,1,0,-1
1532066869889,-1,-4,1,-2,-1,-1,-1,0
1532066869894,-3,0,-2,-2,-2,-1,-2,-1
1532066869899,-1,-1,-1,7,-1,-1,-1,-1
1532066869904,-1,0,3,5,1,-1,0,-1
1532066869909,1,-1,1,-14,-5,-1,1,-1
1532066869914,2,2,6,18,3,0,-1,0
1532066869919,0,0,5,-23,-2,-1,0,-1
1532066869924,-5,-6,0,-7,-8,-3,-3,1
1532066869929,-2,2,2,6,5,2,0,0
1532066869934,-1,-3,0,-10,3,-1,0,-1
1532066869939,2,1,2,11,-2,0,-1,-1
1532066869944,-1,1,1,10,-1,-1,-1,-3
1532066869949,-1,-7,-4,-17,0,-3,-3,-2
1532066869954,1,4,-1,-2,-1,1,1,-1
1532066869959,-2,0,-2,6,2,0,0,0
1532066869964,-3,-8,1,2,-10,-3,-5,-1
1532066869969,-1,2,2,6,1,1,0,1
1532066869974,1,-1,-2,9,-1,0,0,-1
1532066869979,1,0,-2,-18,-4,-2,-2,-2
1532066869984,0,0,4,2,0,0,-2,0
1532066869989,-2,1,1,-3,-2,0,0,0
1532066869994,-2,-5,0,-9,-2,-1,-2,-2
1532066869999,-1,0,-3,9,-1,0,1,-1
1532066870004,0,-1,0,4,4,0,0,-2
1532066870009,-3,-2,0,-2,-1,-2,-2,-1
1532066870014,3,1,3,-8,-2,0,0,-1
1532066870019,-2,-2,-6,-1,1,2,-3,1
1532066870024,-1,1,-6,-9,-1,1,0,-1
1532066870029,-3,-2,2,14,-3,-3,-1,0
1532066870034,-2,-1,-2,-9,-1,-2,-1,0
1532066870039,-1,-4,-2,0,-2,-1,-2,-2
1532066870044,-1,0,-1,5,-3,1,-1,1
1532066870049,2,0,-1,-7,-2,1,0,-4
1532066870054,-1,-2,-3,-1,0,-1,-2,1
1532066870059,-3,-3,3,9,-5,-2,0,-2
1532066870064,1,3,1,24,7,1,-1,0
1532066870069,-2,-1,-3,-43,-1,-1,0,0
1532066870074,-2,-2,-2,-2,-1,1,-2,1
1532066870079,-1,-1,2,1,4,1,0,-1
1532066870084,1,8,0,7,-1,0,1,-2
1532066870089,-4,-2,-1,10,0,-1,-2,-2
1532066870094,1,5,-3,-1,-3,0,-2,-1
1532066870099,1,-2,-1,-5,0,-2,0,1
1532066870104,3,0,5,-3,5,0,1,0
1532066870109,-3,-4,1,2,-4,-1,-1,-1
1532066870114,-2,-5,1,-4,-5,0,0,-2
1532066870119,1,5,3,22,4,0,1,-3
1532066870124,-2,-6,-9,-36,-3,0,0,0
1532066870129,1,-2,-2,5,1,-1,0,0
1532066870134,-4,-3,2,-5,-2,-2,0,-2
1532066870139,1,-3,0,0,-2,-1,-1,1
1532066870144,-1,-3,4,5,0,-2,-2,-1
1532066870149,1,3,3,-3,-1,2,-2,0
1532066870154,-2,-4,3,11,2,-1,-3,-1
1532066870159,-2,-2,3,-8,-3,-1,-1,-1
1532066870164,-1,2,0,-13,-5,-2,2,-1
1532066870169,0,0,-3,5,1,-1,-2,-2
1532066870174,0,-2,1,12,3,-1,-1,0
1532066870179,-4,-3,-2,-13,-7,-4,-3,-2
1532066870184,2,0,0,4,9,1,-2,1
1532066870189,-1,-2,-2,-12,-3,-1,0,0
1532066870194,0,0,0,15,14,-1,-1,-2
1532066870199,-1,2,-1,-2,-10,3,2,0
1532066870204,-3,-4,-5,-9,-2,-1,-2,-4
1532066870209,0,1,-3,14,-8,-2,-1,1
1532066870214,-2,-4,-3,-9,1,1,-2,1
1532066870219,1,1,-2,-1,8,-2,0,0
1532066870224,0,0,4,10,-7,-2,-2,-1
1532066870229,2,1,-1,-4,5,0,1,0
1532066870234,1,0,3,-5,-8,-2,-1,-1
1532066870239,0,-3,-4,-2,0,1,-2,-1
1532066870244,0,1,2,1,-2,-3,0,0
1532066870249,-1,2,3,-2,1,-1,0,-2
1532066870254,-2,-6,-1,-16,-5,-1,0,-1
1532066870259,-2,1,2,3,1,-1,-1,0
1532066870264,-2,-3,-3,-3,0,-2,-3,-1
1532066870269,-1,-2,-2,-2,-1,0,-1,-1
1532066870274,-1,3,4,16,2,0,0,1
1532066870279,1,-1,1,-19,0,-1,1,-1
1532066870284,-2,-1,1,8,3,-1,1,-1
1532066870289,-1,-1,0,-2,-5,-1,-2,-1
1532066870294,0,2,-3,-17,0,0,-1,-1
1532066870299,0,-6,0,12,1,-2,-2,0
1532066870304,1,5,1,10,9,-2,-2,0
1532066870309,0,-2,-2,-19,-13,0,-1,-1
1532066870314,-3,-2,-1,2,-2,0,1,-2
1532066870319,-1,1,2,16,-5,-2,0,-1
1532066870324,2,0,-4,-41,2,-1,-2,0
1532066870329,-1,-2,2,4,4,-1,-2,-2
1532066870334,-1,1,-1,0,-4,-2,0,1
1532066870339,-4,-1,-1,0,1,0,-1,-1
1532066870344,-4,-6,-2,5,-5,0,-2,-1
1532066870349,1,2,3,6,5,-1,-2,-1
1532066870354,0,0,0,-14,-6,-3,-1,-1
1532066870359,-3,-6,-5,-1,0,-2,-2,-2
1532066870364,0,0,1,6,-5,1,1,-1
1532066870369,-1,-1,-1,0,1,-1,0,0
1532066870374,0,0,-4,-2,-2,1,-2,0
1532066870379,1,1,3,4,-1,-2,-1,-2
1532066870384,-2,0,1,0,-2,0,2,0
1532066870389,-2,-2,1,6,2,-1,-1,-3
1532066870394,1,3,1,1,6,-2,0,-1
1532066870399,0,0,-3,-10,-9,-3,-3,-2
1532066870404,-4,-5,-1,2,-11,-1,-1,-1
1532066870409,-1,-5,-2,3,5,-2,-2,0
1532066870414,2,2,0,-2,-2,-1,-1,-1
1532066870419,1,3,2,6,1,-3,-2,-1
1532066870424,-2,-2,-1,0,1,-1,0,-1
1532066870429,0,0,-2,-2,-5,0,1,-2
1532066870434,-2,-3,-2,7,5,1,-1,-1
1532066870439,-1,-3,-4,-5,-2,-3,-1,-1
1532066870444,-3,0,1,4,-5,-2,-2,-2
1532066870449,2,-5,-2,8,-1,-2,1,1
1532066870454,2,1,1,-18,-8,-2,-2,-1
1532066870459,0,-1,-3,5,12,2,1,1
1532066870464,1,1,4,6,-1,-2,0,-1
1532066870469,-3,0,3,5,0,0,-1,0
1532066870474,1,0,-2,-5,0,-2,1,-2
1532066870479,0,-2,0,-6,-10,-1,-2,-2
1532066870484,0,-1,-2,5,4,-1,-1,-2
1532066870489,-3,-2,-3,-2,2,1,-2,0
1532066870494,-1,-1,2,9,11,1,0,-3
1532066870499,-1,-1,2,-5,1,1,-1,-1
1532066870504,-2,-2,-1,-1,-12,-1,0,1
1532066870509,3,3,5,13,13,1,0,-1
1532066870514,-3,-4,-1,-22,-6,-2,-2,-2
1532066870519,-2,1,-1,17,5,1,1,0
1532066870524,2,2,0,-13,3,-1,0,-1
1532066870529,0,1,-2,-5,-11,2,-1,0
1532066870534,-2,-6,1,10,5,0,-1,0
1532066870539,-1,-4,-7,-9,-7,-1,0,0
1532066870544,3,4,2,1,-1,-1,0,0
1532066870549,-1,-2,-3,-12,-1,-2,1,0
1532066870554,-3,-2,-1,1,-5,0,-2,1
1532066870559,-1,1,-5,-9,-8,-4,-3,0
1532066870564,-1,-8,-4,2,5,0,0,-1
1532066870569,1,4,2,-3,2,-4,-1,-3
1532066870574,3,1,-1,6,-6,0,0,-1
1532066870579,0,0,-1,7,5,1,0,-3
1532066870584,1,1,0,-25,-2,1,2,0
1532066870589,-7,-8,-1,-5,-22,-5,-5,0
1532066870594,-5,-6,-10,-8,-12,-3,-2,0
1532066870599,-1,-4,2,-14,-3,-1,-1,-3
1532066870604,2,0,0,4,3,0,-1,-2
1532066870609,-1,0,2,5,2,0,-1,-3
1532066870614,0,5,4,-2,17,0,0,-2
1532066870619,-6,-14,-13,-23,-18,-2,0,0
1532066870624,-2,-7,-2,7,-1,-1,-3,1
1532066870629,1,0,0,-5,-4,0,0,1
1532066870634,1,2,7,7,1,0,-1,0
1532066870639,1,4,2,3,12,2,0,1
1532066870644,-1,3,1,3,-1,0,0,0
1532066870649,-1,-3,-1,-2,-1,-1,-2,0
1532066870654,0,0,-2,3,-2,-1,0,-1
1532066870659,1,4,7,-3,1,0,1,-1
1532066870664,1,4,-1,12,-2,1,-2,0
1532066870669,0,2,0,-11,2,0,1,0
1532066870674,-2,-3,0,-3,-4,-2,-2,-1
1532066870679,0,1,3,2,-1,-2,-2,-1
1532066870684,-1,1,0,1,-2,-1,-1,-1
1532066870689,1,1,-1,0,2,-1,0,-1
1532066870694,-1,0,2,1,-1,1,0,0
1532066870699,0,-3,-2,0,-3,-1,-1,0
1532066870704,-2,-4,0,6,3,-2,-1,-2
1532066870709,0,2,1,0,-4,0,-2,-2
1532066870714,-1,-2,-2,-2,0,0,1,0
1532066870719,0,2,3,1,1,-2,1,0
1532066870724,0,-2,-3,-8,-1,0,0,0
1532066870729,0,0,-4,0,-1,-1,0,-1
1532066870734,-2,-1,-2,-2,-3,-2,0,0
1532066870739,-2,1,1,2,6,-1,-1,-1
1532066870744,1,2,3,1,-2,0,2,0
1532066870749,0,2,1,0,4,0,1,-1
1532066870754,-1,-2,-1,-1,1,-1,-2,0
1532066870759,1,0,1,-4,-10,0,0,0
1532066870764,-2,-4,-2,-1,2,-1,-2,-1
1532066870769,2,1,-2,2,0,-2,-2,-2
1532066870774,-2,-2,-3,-4,-2,-1,-1,-1
1532066870779,1,1,1,3,0,-1,-1,-1
1532066870784,-1,0,1,1,-1,0,0,-1
1532066870789,-1,-2,1,3,3,0,0,-2
1532066870794,2,2,1,2,0,0,0,-1
1532066870799,-1,1,0,0,-2,-1,0,-2
1532066870804,0,0,3,-2,3,0,-1,-1
1532066870809,-4,-4,0,-6,1,-2,-2,-1
1532066870814,-1,2,3,4,-2,0,-1,-1
1532066870819,-1,-3,2,0,4,-1,-2,0
1532066870824,0,2,1,-2,-6,-3,-1,-1
1532066870829,-1,-2,1,4,0,1,2,-1
1532066870834,1,-1,1,-9,0,0,-1,-3
1532066870839,-1,1,0,6,-2,0,0,0
1532066870844,-4,0,2,-11,3,-1,-1,-2
1532066870849,-1,-2,-1,-2,-3,-3,-2,0
1532066870854,0,2,1,1,3,1,1,1
1532066870859,-4,-3,0,-2,-2,-2,-2,-2
1532066870864,3,-1,-2,-1,-5,1,-2,-1
1532066870869,3,6,3,0,0,0,-1,-2
1532066870874,0,-1,-1,1,-2,2,-1,-2
1532066870879,-2,-1,1,3,-1,-2,-1,0
1532066870884,-4,-3,0,3,2,-1,-2,0
1532066870889,-2,-4,0,3,2,-1,-1,-1
1532066870894,-4,-3,-2,-3,-11,-2,-4,-2
1532066870899,-2,-2,-5,-5,3,1,-2,-1
1532066870904,-1,-2,0,-9,-9,-2,-1,-2
1532066870909,-1,3,3,9,6,0,0,-1
1532066870914,0,0,-1,-1,-1,0,0,-1
1532066870919,0,-2,-1,-2,1,-1,-1,-2
1532066870924,-2,-3,-3,3,-1,-1,-1,0
1532066870929,-2,-2,-2,-5,-4,-2,-1,-1
1532066870934,-2,-2,1,11,2,0,0,1
1532066870939,2,0,1,-19,-4,-1,-3,1
1532066870944,-3,-1,0,13,4,1,-2,-1
1532066870949,0,-2,-5,-9,-11,0,1,1
1532066870954,-2,-3,-3,-5,0,-3,-3,-1
1532066870959,2,2,1,5,1,0,0,-1
1532066870964,0,-3,-4,-9,1,-1,0,-2
1532066870969,-3,-3,1,-4,-1,2,-1,0
1532066870974,-2,-4,1,-1,1,0,-2,-1
1532066870979,1,4,2,16,1,0,0,0
1532066870984,-1,-4,-1,-20,-3,-1,-2,-1
1532066870989,1,1,-2,1,-5,-2,-3,-1
1532066870994,0,-2,-4,2,3,1,2,-2
1532066870999,-3,-4,1,-11,0,1,-2,-1
1532066871004,-1,0,0,7,2,0,-1,-2
1532066871009,1,-1,-1,0,1,-3,-1,-2
1532066871014,0,1,2,-4,-3,-1,-1,0
1532066871019,-1,1,-1,3,-2,-2,0,-1
1532066871024,-3,-3,-1,-2,-4,-2,-1,-1
1532066871029,-2,-1,0,4,6,1,0,0
1532066871034,-1,-1,-2,2,-2,-1,0,0
1532066871039,-1,-3,-3,-2,1,0,0,-1
1532066871044,0,1,0,8,-1,0,-1,-2
1532066871049,1,0,-1,0,1,-1,1,-2
1532066871054,-1,0,2,-3,-3,-2,-2,0
1532066871059,-3,-6,-1,-3,-2,-2,-3,-2
1532066871064,2,2,2,17,0,0,0,-1
1532066871069,0,2,-1,-23,2,1,-1,0
1532066871074,-1,2,2,4,-1,-2,-2,0
1532066871079,0,-2,3,-2,-2,-1,2,-1
1532066871084,-1,-1,-2,-1,3,-1,-2,0
1532066871089,-2,-2,1,2,-2,-3,-1,-2
1532066871094,1,-1,-1,-9,-2,1,0,1
1532066871099,0,3,0,4,-7,0,-2,-2
1532066871104,-3,-3,1,1,2,0,-1,0
1532066871109,-1,-1,-1,-6,3,0,-1,0
1532066871114,-2,-3,0,2,1,-1,0,-2
1532066871119,-1,-3,-1,7,-4,-2,0,0
1532066871124,1,2,0,-2,-3,0,0,-1
1532066871129,-2,0,-1,-6,-3,-1,0,-1
1532066871134,-2,-2,1,8,6,-1,1,-1
1532066871139,-3,-4,-4,-14,0,-3,-4,0
1532066871144,0,-2,-4,-6,-5,-1,0,-1
1532066871149,-3,-5,-3,-2,-3,-1,-2,-1
1532066871154,0,0,0,12,-5,0,-1,-1
1532066871159,-2,-2,2,-5,0,-2,-2,0
1532066871164,-1,0,1,0,4,2,-1,0
1532066871169,1,-1,3,1,-3,-2,-1,0
1532066871174,-2,-4,-6,-1,-2,-2,-2,-2
1532066871179,1,0,3,5,3,0,1,-2
1532066871184,-1,-5,-5,-5,-7,-2,0,-2
1532066871189,-1,-1,1,9,4,2,2,0
1532066871194,1,3,1,-17,-5,-2,-1,1
1532066871199,-1,2,0,10,8,0,-1,-1
1532066871204,0,-5,-1,-1,-4,-2,-2,-3
1532066871209,-1,0,0,2,-4,-3,0,-2
1532066871214,-1,-2,-3,-4,-7,-2,-1,1
1532066871219,0,4,1,-6,-2,2,1,0
1532066871224,-2,-1,2,1,4,-2,-3,0
1532066871229,-2,-4,-1,4,-3,-1,-4,-2
1532066871234,-3,-4,-1,-3,-1,1,0,-1
1532066871239,2,1,0,13,2,0,2,-2
1532066871244,-1,3,5,-26,-9,-4,-3,-1
1532066871249,-1,-1,3,9,2,-1,-3,1
1532066871254,-2,-1,-2,-8,0,0,-2,-2
1532066871259,-3,-5,0,-1,-2,-2,-3,-1
1532066871264,0,-1,-2,7,6,1,1,-1
1532066871269,1,3,2,-4,-5,0,-1,-1
1532066871274,0,-1,-1,-1,1,-3,-1,-1
1532066871279,-1,-3,-1,2,-5,-1,-1,-1
1532066871284,0,-2,-2,3,3,-1,0,0
1532066871289,0,-1,-1,-11,-1,-1,-1,-1
1532066871294,-1,-3,1,8,1,0,-1,-2
1532066871299,1,3,-1,-2,-4,-1,-1,0
1532066871304,0,-3,-1,0,1,0,0,0
1532066871309,0,0,-2,-1,-2,-1,1,-1
1532066871314,2,2,5,0,-1,-1,0,-2
1532066871319,-3,1,-1,2,8,2,1,0
1532066871324,-2,-1,1,12,-3,0,-1,-1
1532066871329,3,1,-3,-5,-2,-1,0,-1
1532066871334,-1,2,1,1,-4,-1,-3,0
1532066871339,-1,0,1,-2,-2,-2,0,-1
1532066871344,0,-1,-4,-6,2,0,0,-1
1532066871349,-2,-5,0,2,-3,1,1,-1
1532066871354,-1,0,-1,-5,-1,0,0,0
1532066871359,-1,-2,3,3,-5,-1,-2,0
1532066871364,2,1,-1,-4,6,1,1,-2
1532066871369,-4,-10,-9,2,-13,-2,-3,0
1532066871374,0,1,1,-2,3,-1,0,-2
1532066871379,-3,-4,-3,-3,-3,-1,-2,1
1532066871384,-1,0,-1,4,-4,-2,-1,-2
1532066871389,2,-2,3,2,5,-1,0,-2
1532066871394,-1,0,-2,13,8,-2,0,-3
1532066871399,-3,-4,-8,-29,-17,-4,-5,1
1532066871404,-2,-1,2,4,-3,0,-1,-1
1532066871409,0,5,5,8,5,2,0,-1
1532066871414,-2,-3,-1,4,-1,-1,-2,-2
1532066871419,3,4,2,-1,4,1,0,-1
1532066871424,0,-2,3,-5,-1,-2,0,0
1532066871429,-1,3,1,-1,5,2,0,1
1532066871434,0,-1,2,-2,0,1,-2,-2
1532066871439,-1,-1,-3,3,-1,-1,-1,0
1532066871444,-2,-1,0,4,-2,0,0,0
1532066871449,-1,-3,-4,-6,2,-2,1,-1
1532066871454,0,3,-2,-9,-4,0,0,0
1532066871459,1,-5,1,-2,1,1,0,-1
1532066871464,-1,-2,-4,2,-7,-4,-2,-2
1532066871469,-1,1,4,3,1,-1,-2,-2
1532066871474,0,-2,0,-14,-5,-2,-1,-1
1532066871479,0,3,2,3,-2,-2,-1,0
1532066871484,-2,-4,2,3,3,1,-1,-1
1532066871489,-2,-2,0,1,2,-1,-1,-1
1532066871494,0,0,2,-7,-6,0,-2,0
1532066871499,-1,-2,-2,10,8,-2,2,-1
1532066871504,1,2,0,-8,-5,-2,-4,1
1532066871509,-3,-3,-3,-6,-1,-1,-1,0
1532066871514,1,-1,-1,0,0,2,-1,0
1532066871519,0,-2,0,2,1,1,0,-1
1532066871524,-1,-1,-1,2,-1,1,-1,-2
1532066871529,1,-1,-1,-14,-2,-3,0,-2
1532066871534,-1,0,-2,6,-1,-1,0,-1
1532066871539,0,0,0,-5,3,0,0,0
1532066871544,-1,1,0,3,-5,-2,0,-1
1532066871549,-1,-2,-1,-1,5,0,-2,-1
1532066871554,-2,-1,1,-1,-1,-1,1,1
1532066871559,-2,-3,-1,6,-2,-2,-4,-1
1532066871564,0,5,2,-10,-1,-1,-2,-1
1532066871569,1,0,1,2,-6,-1,1,0
1532066871574,-1,-3,-4,3,6,-2,-1,-2
1532066871579,-4,-1,2,4,2,1,-1,0
1532066871584,1,2,1,-6,-2,-2,0,0
1532066871589,1,3,2,0,-2,-1,-1,0
1532066871594,-2,0,2,6,-2,-2,-1,-1
1532066871599,1,2,0,-3,-3,-3,-2,-1
1532066871604,-2,-2,-3,-2,2,-1,0,-2
1532066871609,0,1,1,1,-2,1,2,-1
1532066871614,-2,-3,1,11,0,0,1,1
1532066871619,0,0,-3,-16,-1,0,0,0
1532066871624,-2,-4,-1,-2,-2,-1,-1,0
1532066871629,-3,-4,0,-6,-5,-3,-1,1
1532066871634,0,0,-2,-2,1,-1,0,-2
1532066871639,1,2,2,11,-3,-1,-1,-3
1532066871644,-1,0,-1,-4,1,0,-3,-3
1532066871649,-2,-2,0,5,-3,-2,-1,0
1532066871654,-1,-2,0,8,3,0,0,-1
1532066871659,0,0,-2,-20,-7,0,-1,0
1532066871664,1,1,0,6,6,0,0,0
1532066871669,-3,-7,-3,-3,2,0,-3,-2
1532066871674,-2,-1,1,-14,-5,-1,0,-2
1532066871679,-2,-7,-4,1,-3,-2,0,-2
1532066871684,3,2,1,8,-2,2,0,0
1532066871689,1,7,3,2,0,-1,-1,-4
1532066871694,1,-1,-2,7,1,-2,0,-3
1532066871699,-3,-5,-1,0,5,0,-1,-1
1532066871704,-2,0,0,-10,-3,-1,0,1
1532066871709,0,1,-3,5,-2,-1,0,-1
1532066871714,-2,1,0,-4,0,0,0,-1
1532066871719,1,3,2,5,0,-1,0,-1
1532066871724,-2,-4,-5,-2,-1,-2,-2,0
1532066871729,0,0,-1,-3,1,1,-2,-1
1532066871734,-2,-5,-6,-7,0,-2,-2,0
1532066871739,-2,-2,-1,-4,-1,0,-1,-2
1532066871744,1,2,1,-2,1,0,0,0
1532066871749,-3,-5,1,5,4,0,0,0
1532066871754,0,1,1,-6,-5,-2,-2,0
1532066871759,1,3,1,3,5,-1,1,1
1532066871764,-4,-4,-2,-7,-4,1,-1,0
1532066871769,-1,0,-1,-7,-1,-1,1,0
1532066871774,-1,0,1,6,-5,-3,-3,0
1532066871779,0,-2,-1,13,-1,-2,-1,-4
1532066871784,1,2,1,-3,2,-1,-1,0
1532066871789,1,2,0,0,-3,-1,-1,-1
1532066871794,1,0,-1,-3,0,1,1,-1
1532066871799,0,-3,-3,6,-1,0,0,0
1532066871804,0,-2,-3,-8,1,-1,-1,-2
1532066871809,1,-1,3,5,4,1,-1,0
1532066871814,0,0,-3,-3,-8,0,-2,0
1532066871819,-1,-1,0,1,3,-1,-1,-1
1532066871824,-3,-1,0,10,-3,-3,-1,-3
1532066871829,-1,-2,-5,-17,-1,-1,0,0
1532066871834,-1,-5,2,11,3,-1,-2,1
1532066871839,1,4,2,-12,-6,-1,-1,-2
1532066871844,-1,-4,-2,4,-3,-3,-2,1
1532066871849,0,1,0,1,-2,-1,-2,-1
1532066871854,0,2,-1,5,1,0,1,-2
1532066871859,-1,-6,-3,-19,-1,-2,0,-1
1532066871864,-1,-5,0,-19,0,-1,-1,-2
1532066871869,-4,-2,3,14,-1,-1,-2,-2
1532066871874,0,-2,-1,-7,-3,-1,-1,-1
1532066871879,-2,1,3,10,0,2,0,0
1532066871884,2,1,2,-1,3,0,-1,-1
1532066871889,0,-1,0,2,-2,-1,-1,-1
1532066871894,0,-1,2,-13,-3,-2,-2,-1
1532066871899,1,-1,-1,1,-1,0,-1,-1
1532066871904,0,2,0,2,1,0,0,1
1532066871909,0,1,1,0,2,0,-3,-1
1532066871914,-1,-1,0,4,0,1,-1,-1
1532066871919,0,-1,-1,-2,-2,-2,-2,1
1532066871924,0,0,1,-8,-2,-1,0,0
1532066871929,-1,-2,0,9,4,0,2,-1
1532066871934,-3,-1,-1,-2,-2,-1,-1,-2
1532066871939,-1,1,5,-2,-2,0,-1,-1
1532066871944,1,-3,0,-4,1,-1,1,0
1532066871949,-1,-1,0,-1,-5,-2,-3,0
1532066871954,-1,-2,0,-4,-1,1,-1,-1
1532066871959,-1,1,0,8,-4,-2,-1,-1
1532066871964,-1,0,-1,-4,4,-1,0,-1
1532066871969,1,2,0,-3,-4,0,1,0
1532066871974,-2,-3,-2,0,-3,-1,-2,1
1532066871979,-1,-4,-3,-6,-1,-1,-1,-2
1532066871984,1,0,-1,-3,-5,0,0,0
1532066871989,-3,-3,-1,8,4,-2,-2,-1
1532066871994,0,0,-2,-2,0,-1,0,1
1532066871999,-1,-2,-2,0,-8,-2,-1,0
1532066872004,-2,0,-3,-1,4,-1,-2,-1
1532066872009,2,-1,-1,-10,2,1,2,0
1532066872014,-1,0,2,13,1,-3,-2,0
1532066872019,-1,-1,-1,-11,-2,0,1,-2
1532066872024,-2,-2,1,7,-1,-1,-2,0
1532066872029,3,-2,-2,-6,-8,-1,-3,0
1532066872034,1,4,1,8,7,1,1,0
1532066872039,0,5,1,1,5,1,-1,0
1532066872044,-3,-3,-4,0,-3,-1,-1,-1
1532066872049,-3,-2,1,0,0,-2,-1,-1
1532066872054,-1,-4,-6,-3,-5,0,-1,0
1532066872059,0,0,1,-2,3,0,-2,-2
1532066872064,-1,1,0,3,-1,-1,-1,-1
1532066872069,-3,-1,0,1,-2,-1,-1,-1
1532066872074,2,1,2,-3,4,-1,-1,-1
1532066872079,-1,-2,1,10,-2,0,-2,-1
1532066872084,0,2,2,0,-1,-2,-2,1
1532066872089,-1,-6,-4,-10,-1,-1,0,-1
1532066872094,0,1,2,4,-4,-2,-3,-2
1532066872099,0,-1,0,-1,-1,1,1,0
1532066872104,-1,1,-3,-2,-5,-4,-1,0
1532066872109,-3,1,1,-1,-2,0,0,-2
1532066872114,-2,-4,-1,-5,-4,-1,-1,1
1532066872119,1,-1,-1,-10,0,-1,0,-1
1532066872124,-1,0,2,1,3,2,-1,-1
1532066872129,-2,-4,-1,2,-4,-2,-2,-2
1532066872134,-1,-1,-2,0,3,3,0,-2
1532066872139,-1,-3,2,1,0,-1,-1,-2
1532066872144,0,0,0,3,0,-1,0,0
1532066872149,0,-1,-1,-5,-6,0,-2,0
1532066872154,-2,-5,1,-1,5,0,1,-1
1532066872159,-1,-1,0,3,-2,-1,-1,-1
1532066872164,0,-1,-2,-13,0,-1,1,-1
1532066872169,-1,1,2,3,-1,0,-1,1
1532066872174,0,0,-2,1,-9,-2,-1,-1
1532066872179,-1,-5,-4,-3,1,-1,-1,0
1532066872184,1,2,1,3,0,0,-1,-3
1532066872189,-1,4,-2,-5,1,-1,2,-1
1532066872194,-1,0,3,-4,-3,0,-2,-2
1532066872199,1,1,-1,-2,-2,-1,-2,0
1532066872204,0,-4,0,5,1,2,-1,0
1532066872209,0,-2,-4,-15,3,0,0,0
1532066872214,-5,-3,0,6,-2,-3,-1,0
1532066872219,-3,-2,2,4,-3,-1,-3,1
1532066872224,-1,-3,-4,-2,-3,0,1,0
1532066872229,2,6,2,14,5,0,1,-2
1532066872234,-1,0,1,-9,-3,-2,1,-1
1532066872239,-2,-7,-2,-7,0,-3,-1,-2
1532066872244,-2,-1,-3,-2,-6,-3,-2,0
1532066872249,0,0,2,6,1,0,-3,-1
1532066872254,-1,-1,-2,-3,-4,-1,-1,-2
1532066872259,3,-1,-2,-2,-2,-2,0,-2
1532066872264,0,0,1,0,-5,-1,1,-2
1532066872269,1,-1,1,-3,7,-1,0,0
1532066872274,-1,-2,-6,-7,2,1,-2,1
1532066872279,-1,2,3,8,2,2,-2,2
1532066872284,-3,-3,-1,1,-4,-2,-4,-1
1532066872289,0,-2,-1,-7,-1,-1,0,-1
1532066872294,-1,-1,-4,-3,0,0,0,-2
1532066872299,-1,0,0,9,1,-1,-1,1
1532066872304,1,1,1,-17,0,0,1,-2
1532066872309,-3,-1,4,10,-2,-1,-3,-1
1532066872314,0,-3,0,0,-2,-1,-2,-1
1532066872319,0,3,1,5,-1,-1,1,-1
1532066872324,1,3,2,4,-1,-1,-1,0
1532066872329,-1,-9,-2,-5,-6,-2,0,-1
1532066872334,3,1,2,1,10,0,1,1
1532066872339,0,7,0,-6,-3,0,1,-3
1532066872344,-3,-4,1,4,-2,-1,-2,-2
1532066872349,-2,2,-1,-1,-1,-2,0,-2
1532066872354,-3,-1,0,3,-3,-1,-1,-1
1532066872359,-1,-5,-4,-6,0,0,-2,-1
1532066872364,0,-3,0,-7,1,-1,-1,-2
1532066872369,-1,-2,-3,2,0,1,-1,-1
1532066872374,-1,0,0,-5,-7,-2,0,-1
1532066872379,0,1,1,3,1,-3,0,0
1532066872384,-4,-1,-1,5,1,0,-1,1
1532066872389,0,-1,0,-3,-2,-1,-2,0
1532066872394,-1,1,-1,7,-2,-2,-1,-2
1532066872399,0,-1,-2,-12,-1,-2,-2,-2
1532066872404,-2,0,2,9,-4,-1,-1,-2
1532066872409,-2,-3,3,3,4,-3,-1,-2
1532066872414,2,4,-2,2,5,0,-1,2
1532066872419,-3,-2,0,-2,-1,1,-1,-1
1532066872424,-1,-1,-2,-5,-2,-2,-2,-1
1532066872429,-3,0,-4,1,-5,0,-1,-1
1532066872434,-2,-3,1,-4,-4,0,0,-1
1532066872439,-4,0,2,-5,-3,-2,-2,0
1532066872444,2,-1,-2,-1,4,0,-1,2
1532066872449,0,-1,2,-4,-1,1,3,1
1532066872454,2,3,1,-2,-3,-1,-2,-1
1532066872459,0,-3,-3,6,3,-1,1,-1
1532066872464,-1,-4,-3,1,0,-3,-3,-1
1532066872469,-2,0,0,-1,0,-1,-3,-1
1532066872474,-3,-3,-3,-4,-3,-2,-1,-1
1532066872479,-1,0,0,0,1,2,1,-1
1532066872484,-1,-1,1,7,-2,-3,2,-2
1532066872489,2,3,-1,-1,2,-1,0,-1
1532066872494,1,2,-1,-6,-1,0,0,-1
1532066872499,-1,-1,1,-11,-6,-3,-1,0
1532066872504,-1,-1,0,1,7,2,0,-2
1532066872509,-2,-11,-1,-2,-3,-1,-2,-1
1532066872514,1,0,1,-3,4,2,-3,-1
1532066872519,-1,-1,0,-3,-8,-2,-2,1
1532066872524,0,-1,0,5,7,1,1,-1
1532066872529,0,4,1,-2,-3,-2,-2,1
1532066872534,0,-2,2,6,4,1,0,-1
1532066872539,1,-2,-3,0,4,0,-1,0
1532066872544,-1,-2,0,-9,-3,-1,0,-2
1532066872549,2,2,1,5,-4,0,0,-2
1532066872554,-4,-6,-3,10,-3,-3,-1,-2
1532066872559,1,1,-2,-5,-3,-1,-2,0
1532066872564,-2,-1,0,-1,-1,-2,0,0
1532066872569,0,-2,-1,-5,-1,-2,-1,-1
1532066872574,3,2,0,-7,-7,-2,0,-1
1532066872579,1,-1,2,12,0,1,1,-1
1532066872584,-1,-2,0,3,-1,0,-2,0
1532066872589,-1,-1,-8,-17,0,0,-3,0
1532066872594,0,-6,3,-3,0,1,-1,0
1532066872599,-1,-1,-1,0,-1,-2,-2,-2
1532066872604,2,5,5,0,2,-2,-1,1
1532066872609,0,-1,0,3,-2,1,-3,-1
1532066872614,-2,0,-2,1,2,0,-1,0
1532066872619,0,-1,-1,-1,1,-1,-2,-2
1532066872624,-1,-3,-1,-2,-6,-1,-3,-2
1532066872629,-1,0,1,-3,-4,-2,-1,-1
1532066872634,-1,-1,0,-4,1,1,1,1
1532066872639,-1,0,2,1,1,1,-1,0
1532066872644,0,0,-2,-7,-6,-1,-1,-1
1532066872649,0,2,2,6,6,2,1,-1
1532066872654,2,2,1,5,-5,-1,0,-1
1532066872659,0,-1,-1,-4,4,1,0,-2
1532066872664,-1,-1,-1,-7,0,1,0,0
1532066872669,-4,1,2,3,-3,-2,-1,-1
1532066872674,-2,0,0,-8,-5,-3,-2,-1
1532066872679,-1,-2,1,-5,1,0,-1,-2
1532066872684,0,0,-1,1,0,0,-4,-1
1532066872689,-2,-3,0,-5,0,0,-2,-1
1532066872694,-3,0,2,10,-3,-1,-3,-2
1532066872699,-1,-2,2,2,-1,-2,1,1
1532066872704,2,2,-2,1,0,-2,0,0
1532066872709,-1,-3,-3,1,-6,-2,1,-1
1532066872714,0,0,0,-3,4,-1,-3,-1
1532066872719,0,0,-1,4,-5,-2,-2,-1
1532066872724,-2,-3,-1,-19,0,0,0,-1
1532066872729,-1,0,1,12,-5,-3,-1,0
1532066872734,-1,0,0,0,5,-1,-1,0
1532066872739,-4,-3,-4,-1,-4,0,-1,-1
1532066872744,-3,-1,2,4,-3,-1,0,-1
1532066872749,-1,-1,0,-4,3,1,0,1
1532066872754,-1,0,-1,-7,-8,-1,-1,1
1532066872759,0,0,0,-9,10,1,0,0
1532066872764,1,-2,-1,10,-2,-2,-2,-1
1532066872769,-1,0,0,-8,-4,-1,-1,-2
1532066872774,-1,-3,-2,1,1,-1,0,-1
1532066872779,3,3,3,2,2,1,-1,-2
1532066872784,1,-2,-7,-14,-4,0,-1,-1
1532066872789,1,3,2,5,1,-1,-1,1
1532066872794,0,-1,-1,-4,-5,-1,-2,-2
1532066872799,-1,2,1,2,3,0,-1,-1
1532066872804,-3,4,3,8,0,0,0,-1
1532066872809,1,0,-2,-2,2,-1,-1,-1
1532066872814,-1,1,1,-1,0,-1,1,0
1532066872819,0,-3,-2,-4,-8,-3,-1,-1
1532066872824,2,2,2,6,5,-1,-2,-1
1532066872829,-3,-2,-1,0,-8,-3,-3,-2
1532066872834,0,-1,2,5,1,-2,2,-1
1532066872839,-2,-1,0,-8,4,-2,-2,-2
1532066872844,-1,-6,-3,-5,-10,0,1,1
1532066872849,-4,-2,3,2,-5,-2,-2,-2
1532066872854,-3,-3,0,12,-1,-1,-3,-1
1532066872859,1,-2,-2,-19,0,0,-2,-1
1532066872864,0,0,0,-1,-4,-4,-3,-1
1532066872869,1,0,0,-6,5,2,1,-2
1532066872874,-4,-2,-3,-3,-3,-2,-1,-1
1532066872879,0,-1,-1,5,0,-2,0,-1
1532066872884,0,1,2,1,1,-1,2,-2
1532066872889,1,-2,-1,-7,0,-1,0,0
1532066872894,-1,-3,-1,-2,2,0,-2,-2
1532066872899,0,1,-1,4,-2,0,1,0
1532066872904,1,-1,0,-3,-2,-1,0,0
1532066872909,-1,1,0,2,2,-1,-1,2
1532066872914,-1,-5,-1,-7,-5,-1,0,0
1532066872919,-2,-5,-3,-4,-3,-2,-1,-1
1532066872924,-1,-2,1,2,-2,-1,-2,-3
1532066872929,0,0,-1,13,9,0,0,-2
1532066872934,1,3,0,-8,-1,2,-1,1
1532066872939,0,1,3,7,-4,-2,-1,0
1532066872944,0,1,1,4,-1,-1,-2,-1
1532066872949,-1,-3,-2,-8,-3,-1,-2,-1
1532066872954,3,-2,-7,-4,-2,-2,0,0
1532066872959,-2,1,1,7,1,1,0,-2
1532066872964,-1,-2,-2,0,10,1,1,-2
1532066872969,-1,-2,0,-1,-6,0,2,-1
1532066872974,-2,-6,-9,-4,1,-1,0,0
1532066872979,-2,-3,1,-8,-2,-3,-3,-2
1532066872984,-1,2,0,-9,-1,2,0,0
1532066872989,-3,-3,-2,0,-4,-1,-1,-1
1532066872994,-2,-3,-1,-2,-3,1,-1,0
1532066872999,3,4,-1,-9,-5,-2,-1,-1
1532066873004,-1,-2,2,14,-3,1,0,-1
1532066873009,0,-6,-2,-11,4,0,-2,0
1532066873014,-1,0,2,-3,-2,-2,1,0
1532066873019,-2,-1,3,5,-2,0,-1,-2
1532066873024,-4,-3,2,7,1,-2,-2,-2
1532066873029,0,5,-5,-4,-5,-2,-1,1
1532066873034,-1,1,3,11,1,-1,0,-2
1532066873039,0,0,-3,-11,-1,2,1,-2
1532066873044,0,1,0,6,7,0,0,-1
1532066873049,-4,-5,-3,1,1,0,-1,-1
1532066873054,-2,-2,1,-18,-8,-2,-4,0
1532066873059,0,2,0,4,0,-2,-3,-1
1532066873064,-4,-7,0,-16,1,0,2,0
1532066873069,3,1,3,-4,-2,-1,-1,-2
1532066873074,3,1,1,13,3,1,0,-1
1532066873079,-3,-2,4,-7,-7,-1,-2,-1
1532066873084,2,-4,-12,-11,-3,-3,-4,-1
1532066873089,-1,3,1,0,-1,-2,1,0
1532066873094,-2,-3,1,0,1,1,1,-1
1532066873099,2,3,3,3,7,0,1,2
1532066873104,-1,-1,3,7,-4,1,1,-3
1532066873109,-2,0,-2,-24,-6,-1,-1,0
1532066873114,0,1,-2,8,9,0,-1,-2
1532066873119,-1,-3,-3,1,4,-1,-2,-1
1532066873124,-1,1,0,-8,-2,-1,-1,-1
1532066873129,1,-4,-2,15,-6,1,-1,-2
1532066873134,-2,-3,-1,6,-17,-4,-3,1
1532066873139,1,-1,-2,1,6,0,-1,-2
1532066873144,-2,-5,-2,4,1,0,0,-1
1532066873149,-1,-1,1,-3,-1,-1,-1,-2
1532066873154,0,2,3,0,-3,-1,-1,-1
1532066873159,1,2,1,-10,-3,-1,-1,1
1532066873164,-3,-4,1,-3,1,-3,-3,-1
1532066873169,1,3,-3,10,3,-3,-2,-2
1532066873174,-2,-6,-1,-2,1,-2,-1,-2
1532066873179,2,-1,2,7,-6,0,0,-2
1532066873184,3,8,-2,-9,-1,-1,0,-2
1532066873189,-2,-3,-1,-5,1,1,0,0
1532066873194,-2,-3,1,3,-4,-1,-1,2
1532066873199,-2,-1,1,13,26,0,-3,-3
1532066873204,-3,-5,-2,-5,-16,-1,-1,-1
1532066873209,1,0,1,6,-5,-1,0,-2
1532066873214,3,5,2,0,1,-1,0,-2
1532066873219,-3,-5,0,-26,-5,-3,-1,1
1532066873224,2,0,0,5,-3,0,-1,-2
1532066873229,-2,-1,-3,-4,5,-1,0,-1
1532066873234,0,0,1,-3,-2,-1,1,-1
1532066873239,1,0,2,3,0,0,0,0
1532066873244,0,-1,-2,2,-3,-2,-1,-1
1532066873249,-3,-1,-1,-2,-1,-1,-2,-1
1532066873254,-2,-3,0,6,-6,1,-2,-1
1532066873259,-1,0,-1,-4,-1,0,0,0
1532066873264,0,1,1,1,-2,-1,0,0
1532066873269,0,4,3,5,-5,0,1,-1
1532066873274,-2,1,3,1,3,-1,1,-1
1532066873279,-3,-1,-1,7,-4,-1,-1,-2
1532066873284,-1,-4,-7,-11,3,0,0,0
1532066873289,-1,-1,3,2,-2,-1,-2,0
1532066873294,-2,1,1,4,1,1,-3,-1
1532066873299,-3,-5,0,-4,-2,-1,-2,1
1532066873304,3,1,4,11,1,-1,1,2
1532066873309,1,-2,-3,-2,3,-2,0,-1
1532066873314,2,0,-1,-13,-3,-1,0,-1
1532066873319,0,1,0,11,-3,-2,-2,-2
1532066873324,-1,3,4,-3,4,2,1,-2
1532066873329,-3,-4,-2,-9,-6,-2,-2,0
1532066873334,0,1,5,6,-2,-1,-4,1
1532066873339,-2,0,-1,-4,1,-1,1,-1
1532066873344,-1,-4,0,-21,-9,-1,-2,-1
1532066873349,0,0,1,-1,1,1,-1,2
1532066873354,-1,-6,-9,4,1,-2,-1,-1
1532066873359,-1,3,2,-3,1,1,-1,-1
1532066873364,0,0,2,3,-1,-3,-3,-2
1532066873369,0,0,2,9,-3,1,1,-2
1532066873374,0,-1,0,-13,0,-1,0,-1
1532066873379,-4,-4,-2,1,-5,-3,-1,-1
1532066873384,-1,0,-1,5,2,0,-2,-1
1532066873389,2,1,2,-5,-1,0,-1,-2
1532066873394,0,-2,-1,-4,-2,-1,-2,-1
1532066873399,2,-1,0,13,-4,-1,0,0
1532066873404,-2,1,3,5,4,1,-1,0
1532066873409,0,0,-1,6,-1,-1,-1,-1
1532066873414,-1,-1,0,5,-1,-2,-2,1
1532066873419,-3,-4,1,-23,-3,0,-1,-2
1532066873424,-1,1,1,5,1,1,0,-1
1532066873429,-2,-1,-2,-12,-6,-3,-1,-2
1532066873434,-2,2,-1,6,-2,-2,1,-3
1532066873439,-2,-7,-2,-5,-5,0,0,-1
1532066873444,0,-2,-3,7,3,0,-1,0
1532066873449,1,-1,0,6,2,-1,0,-2
1532066873454,0,4,2,-9,1,0,1,0
1532066873459,-1,0,-2,8,3,-1,0,-1
1532066873464,-1,2,0,-6,-8,0,-1,-1
1532066873469,0,0,1,8,2,0,2,-1
1532066873474,0,-2,-6,-25,-2,-1,0,0
1532066873479,-3,-4,-1,9,-5,-2,-4,0
1532066873484,-2,-5,-2,-2,5,-3,-1,-1
1532066873489,1,1,1,-1,2,2,1,0
1532066873494,-1,-1,-1,3,-3,-1,-2,-3
1532066873499,-1,0,-1,-10,3,1,-1,0
1532066873504,-1,-1,-3,0,-3,-1,-2,0
1532066873509,-3,-1,1,-5,-4,-1,-2,-2
1532066873514,1,-11,-2,-2,0,-1,-1,-2
1532066873519,1,3,1,1,-2,1,0,-1
1532066873524,1,-1,-2,9,1,-4,-3,-2
1532066873529,-2,-2,-3,-8,-3,-1,-1,-1
1532066873534,-1,0,2,3,3,1,2,1
1532066873539,0,-1,0,2,-8,-3,-2,-1
1532066873544,-1,-2,0,16,2,-1,-1,-1
1532066873549,-2,-2,-3,-25,-1,-1,-2,0
1532066873554,-1,3,2,3,-1,0,1,1
1532066873559,0,-1,1,-2,-6,0,-2,1
1532066873564,1,1,1,-19,5,-1,-1,-1
1532066873569,0,-1,0,7,3,-1,-1,-1
1532066873574,-1,1,-2,-3,-6,-3,-4,-1
1532066873579,1,0,0,-6,4,-1,0,-2
1532066873584,-2,2,1,1,-6,0,-1,-1
1532066873589,-1,-7,-2,-1,-2,-1,0,-1
1532066873594,0,4,3,-5,3,-1,-1,0
1532066873599,1,1,-1,7,-1,-1,1,-1
1532066873604,-1,-3,-2,-11,-3,-1,-1,-1
1532066873609,1,-2,0,4,-3,-1,-1,-1
1532066873614,-4,-6,-1,2,-7,-1,-1,-2
1532066873619,1,2,2,-7,-5,-1,1,-2
1532066873624,-4,0,-4,0,4,-1,-1,-2
1532066873629,-1,-3,3,2,0,-3,-1,1
1532066873634,0,0,-5,5,5,0,0,-1
1532066873639,-1,0,-3,0,-6,1,-2,1
1532066873644,-1,-2,0,8,-1,1,1,0
1532066873649,-2,-2,-1,-18,-4,-1,-2,-1
1532066873654,-2,-1,5,21,0,-1,-1,1
1532066873659,0,1,-1,19,-2,-1,-1,-1
1532066873664,2,1,0,-47,-3,-2,0,-2
1532066873669,-3,-3,0,7,0,-1,-1,2
1532066873674,1,1,1,-3,3,-1,1,-1
1532066873679,-1,0,0,6,-2,1,-1,1
1532066873684,0,0,1,4,-1,-3,-3,-2
1532066873689,-3,-2,1,-4,-7,0,0,-1
1532066873694,-2,-5,-1,-1,7,0,-1,-1
1532066873699,0,3,1,-13,-2,-3,0,-3
1532066873704,0,-8,-1,10,-1,-1,-3,-1
1532066873709,1,8,0,2,0,-2,0,-1
1532066873714,-2,0,-1,-12,-6,-1,-2,-1
1532066873719,-3,-4,1,-6,-2,-2,-1,-2
1532066873724,-1,1,0,1,-1,0,-1,0
1532066873729,-3,0,-2,1,-2,-1,-2,-2
1532066873734,3,2,1,5,-2,0,1,0
1532066873739,0,0,1,-4,8,0,-1,-1
1532066873744,0,2,2,2,0,1,0,-1
1532066873749,-1,-3,-2,-9,-2,-2,-2,0
1532066873754,-4,-5,2,6,-5,-3,-2,-3
1532066873759,0,-1,-1,-7,-4,0,-1,-1
1532066873764,1,-1,-2,6,-3,-2,-1,-2
1532066873769,1,0,-2,7,1,-1,0,1
1532066873774,1,-1,1,6,-1,1,1,0
1532066873779,1,-1,0,-3,4,-1,1,2
1532066873784,-1,-1,-2,-12,-4,-3,-2,-2
1532066873789,-2,-7,-2,-3,0,1,2,0
1532066873794,2,4,-3,0,2,-2,-2,-2
1532066873799,-3,-7,-1,3,-4,-2,-2,-1
1532066873804,1,2,1,0,1,1,1,-1
1532066873809,1,-3,-5,-2,6,0,0,-3
1532066873814,-2,-3,2,-12,-6,0,1,-1
1532066873819,-3,0,-3,4,4,-1,-1,1
1532066873824,0,-2,-1,-4,-4,0,0,0
1532066873829,0,0,1,4,3,0,-2,-2
1532066873834,0,2,1,4,0,0,0,1
1532066873839,1,2,2,-3,3,1,1,-2
1532066873844,-2,-5,-3,-1,-7,-4,-2,2
1532066873849,-2,0,0,4,-2,-4,-1,0
1532066873854,-1,-1,-2,-8,-3,-1,0,-1
1532066873859,-2,3,2,9,2,-1,1,-1
1532066873864,-2,-5,0,1,0,0,-2,-1
1532066873869,1,-5,-2,-10,-1,-2,1,0
1532066873874,0,0,-2,6,-1,-3,-2,2
1532066873879,0,3,1,-8,-1,0,1,-2
1532066873884,-1,-5,0,12,1,-1,-1,-2
1532066873889,-2,-3,-2,-17,-7,-1,-2,-1
1532066873894,-2,-6,0,7,11,-1,-1,-2
1532066873899,1,-1,-1,-2,-10,0,-1,0
1532066873904,1,2,-2,-7,-11,-1,0,-2
1532066873909,-3,1,3,7,-2,-2,-5,-1
1532066873914,-1,-3,0,-2,1,1,0,0
1532066873919,-3,-2,-1,0,-4,-3,-1,-1
1532066873924,-2,3,2,9,7,0,0,0
1532066873929,3,4,2,-2,2,2,2,-2
1532066873934,-1,3,2,9,-5,-2,-1,-1
1532066873939,0,-1,1,6,6,3,0,0
1532066873944,-2,1,2,-9,-2,-1,0,-1
1532066873949,-3,2,-3,4,0,-3,-2,-1
1532066873954,1,1,-1,-10,2,-2,-2,-1
1532066873959,-3,-5,0,3,0,-2,-2,-2
1532066873964,-1,0,0,-2,-2,0,0,1
1532066873969,0,-1,-1,-3,0,0,-1,0
1532066873974,-2,2,0,8,-3,0,-1,0
1532066873979,0,-6,-8,-15,-2,-3,-1,-2
1532066873984,-3,-2,2,9,4,0,1,-1
1532066873989,3,2,3,10,-5,1,1,-2
1532066873994,1,2,1,-14,4,2,0,0
1532066873999,-3,-2,-1,8,-8,-2,-4,-1
1532066874004,-2,0,-1,-9,3,-2,-1,-1
1532066874009,1,-3,0,16,-1,-1,0,1
1532066874014,1,-1,-2,-16,-3,-2,1,-1
1532066874019,0,0,2,-15,1,-2,-1,-1
1532066874024,-2,1,1,2,-9,0,-1,1
1532066874029,-1,-3,-2,-11,6,0,-1,-1
1532066874034,-2,-2,-1,5,-16,-1,-2,-2
1532066874039,0,1,1,-4,6,1,0,0
1532066874044,0,2,-1,1,13,-3,-2,-4
1532066874049,1,-2,-1,-5,-13,0,0,-1
1532066874054,-2,-5,-4,-3,1,0,-2,-1
1532066874059,-1,-1,-2,4,-6,-1,-1,0
1532066874064,0,0,-1,-2,2,1,-2,1
1532066874069,-3,-1,2,3,3,0,-2,-2
1532066874074,-4,-5,-4,14,-2,-1,-2,0
1532066874079,0,2,3,-28,1,0,1,-1
1532066874084,1,0,-1,4,2,2,1,0
1532066874089,-4,-6,-2,-3,-7,-3,-2,1
1532066874094,0,4,4,-8,0,-1,0,0
1532066874099,2,2,0,8,-1,2,1,0
1532066874104,-1,-3,1,-8,-7,-2,-3,-1
1532066874109,-2,-2,-3,3,4,0,1,-1
1532066874114,-2,-2,1,-1,5,0,-1,0
1532066874119,0,-2,0,5,-8,0,-1,-1
1532066874124,2,1,0,-3,2,1,0,1
1532066874129,-3,-3,-1,-6,-1,0,1,0
1532066874134,1,1,0,0,0,-3,-3,-2
1532066874139,2,4,2,7,1,-2,1,-1
1532066874144,-3,-3,-1,3,-2,0,-1,-1
1532066874149,0,2,4,14,9,0,-2,1
1532066874154,-1,0,2,-10,-6,-1,0,-1
1532066874159,0,-3,2,-6,-2,-1,1,-2
1532066874164,-2,-2,-1,12,-3,-1,1,-2
1532066874169,-1,-4,-1,-12,-1,-3,-5,-1
1532066874174,-2,-1,2,13,5,0,-2,0
1532066874179,1,0,1,11,1,0,-1,0
1532066874184,0,-7,-3,-12,6,0,2,0
1532066874189,1,1,0,-3,0,-2,-1,0
1532066874194,-1,0,-1,2,-2,-1,1,0
1532066874199,-3,-2,0,-2,5,-1,-2,1
1532066874204,2,3,2,3,-11,-1,0,-1
1532066874209,0,-4,1,2,2,2,0,-1
1532066874214,-1,0,0,3,-2,-2,-1,-1
1532066874219,-4,-7,-4,-21,-4,-3,-3,-5
1532066874224,-2,0,-2,14,0,-1,-2,0
1532066874229,3,5,2,-6,2,-2,1,-2
1532066874234,0,-5,0,-1,-7,0,-1,-1
1532066874239,-1,2,-2,7,5,-1,-3,-2
1532066874244,-1,-6,-2,-3,-2,-1,-2,-1
1532066874249,-1,4,-3,-10,-8,-1,0,-1
1532066874254,-2,-3,-1,7,6,-1,1,-1
1532066874259,-1,0,1,5,-2,2,0,1
1532066874264,1,0,-1,-12,-4,-1,-1,-2
1532066874269,-2,0,1,-3,-2,-2,-1,-1
1532066874274,-1,1,0,-1,0,0,-1,-1
1532066874279,2,-1,-2,5,-3,-1,0,-2
1532066874284,-3,-6,2,-12,-5,-2,-1,0
1532066874289,0,-2,-1,-2,-1,0,0,-2
1532066874294,-2,-1,0,-4,-6,1,-1,-1
1532066874299,1,1,2,9,7,0,0,0
1532066874304,1,3,0,-5,1,-1,1,1
1532066874309,0,0,-1,-6,3,0,0,0
1532066874314,0,-3,-2,-5,0,-1,1,-1
1532066874319,-2,-4,-2,-2,-9,-2,-3,3
1532066874324,-2,2,-1,-1,-3,-1,-2,-1
1532066874329,-1,-2,0,1,1,-1,-1,-3
1532066874334,-1,-1,-2,4,1,1,-1,-1
1532066874339,0,-3,-1,-3,3,1,0,-1
1532066874344,-4,-1,-3,-1,-8,-2,-1,-2
1532066874349,-1,-1,-1,6,1,-1,-1,0
1532066874354,-1,-1,1,-10,-6,-2,-1,-1
1532066874359,-1,-1,-1,6,-1,-1,0,-1
1532066874364,0,-1,0,-18,-5,-2,-3,-1
1532066874369,-3,-4,4,16,2,-1,0,-2
1532066874374,-1,1,-2,-17,0,-2,-2,-1
1532066874379,-3,-6,-5,-1,-8,-3,-2,-1
1532066874384,0,4,1,10,7,1,-1,-1
1532066874389,2,-4,-4,0,8,-1,-1,0
1532066874394,1,2,1,-6,-13,0,2,0
1532066874399,0,2,2,-4,0,-1,-1,-2
1532066874404,-2,1,1,0,-2,0,0,0
1532066874409,0,3,1,-6,-7,1,-1,0
1532066874414,-2,-4,-3,10,9,-1,-3,-1
1532066874419,-2,-5,1,-6,-7,-2,-2,-1
1532066874424,1,-1,-3,-17,-4,-2,-2,-1
1532066874429,-2,0,2,5,-1,-4,-2,-1
1532066874434,0,1,0,3,3,0,1,-1
1532066874439,-1,1,4,-6,-2,0,0,-1
1532066874444,0,-2,1,28,10,-1,2,0
1532066874449,2,2,-2,-38,-11,0,-1,1
1532066874454,-1,-5,-1,3,-1,-2,-1,-1
1532066874459,-2,0,-1,3,1,0,-2,-1
1532066874464,-1,1,3,6,1,-1,3,-2
1532066874469,0,4,0,-1,-1,-1,-2,1
1532066874474,-2,-2,3,10,-3,-2,-3,-1
1532066874479,1,2,-4,-2,11,-1,-1,-1
1532066874484,-1,-5,-1,-10,-16,0,0,-1
1532066874489,-2,-1,1,11,5,-1,-1,0
1532066874494,0,-1,0,-3,8,-1,-2,-1
1532066874499,2,2,2,10,4,0,0,0
1532066874504,-2,-2,3,2,-1,-3,-4,-1
1532066874509,-2,0,1,0,-6,-1,-1,-1
1532066874514,0,0,-1,1,-4,1,-1,-2
1532066874519,0,-1,-2,-15,-1,-2,0,-2
1532066874524,-2,-3,-1,-13,-3,-2,-1,0
1532066874529,-2,0,1,13,-1,1,-3,-1
1532066874534,0,4,3,-3,1,-1,1,-2
1532066874539,-1,-7,2,7,-6,0,-1,1
1532066874544,4,1,2,3,2,-1,-2,-3
1532066874549,1,-5,-5,7,11,-3,0,-3
1532066874554,-2,0,-1,-12,-10,1,-1,0
1532066874559,-2,0,-1,0,-2,0,-1,0
1532066874564,3,4,1,2,4,0,1,0
1532066874569,-2,-3,-1,0,1,0,-1,-3
1532066874574,1,-3,-2,-4,-2,-2,-2,-1
1532066874579,-1,-3,-2,0,3,0,-1,-1
1532066874584,-1,0,1,-4,2,0,-2,-2
1532066874589,-3,0,-1,3,0,-1,-3,1
1532066874594,-3,0,-1,-5,-2,-2,-2,-1
1532066874599,-1,-2,3,10,-6,0,-1,0
1532066874604,1,3,-1,-2,2,-1,2,0
1532066874609,1,-2,-1,2,4,1,2,0
1532066874614,-1,2,-4,0,-11,-1,-1,-2
1532066874619,0,-1,0,-10,-2,-2,-1,-1
1532066874624,-2,-3,-1,15,4,2,0,0
1532066874629,-2,-4,-1,-4,-6,-2,-2,-1
1532066874634,3,-2,3,5,7,-1,-2,1
1532066874639,-1,4,2,1,-8,-1,1,-2
1532066874644,1,-1,0,-9,1,-1,-1,0
1532066874649,0,-2,-2,-9,0,1,0,-2
1532066874654,0,-5,0,1,3,-2,-1,-3
1532066874659,-2,0,-2,1,1,2,-1,0
1532066874664,1,-1,0,-4,-2,-1,-3,-1
1532066874669,-2,-2,1,5,-4,-3,1,-1
1532066874674,-1,-1,-1,-5,3,-1,1,0
1532066874679,0,1,3,-8,-7,0,-2,-1
1532066874684,-1,0,-3,18,5,-1,-2,-1
1532066874689,-3,-2,-2,-17,-12,-2,-2,-1
1532066874694,-1,-1,-2,2,-3,0,-1,1
1532066874699,-1,1,-1,4,18,-2,-1,-3
1532066874704,-1,2,1,-2,1,1,0,-1
1532066874709,0,-2,-1,6,4,0,2,-1
1532066874714,-3,-5,-1,-9,-4,1,-1,-1
1532066874719,2,4,2,1,-3,-1,-1,0
1532066874724,-1,-1,-5,3,-2,-1,1,-2
1532066874729,-1,-2,2,-23,-7,-3,0,-3
1532066874734,-3,-2,0,-5,-9,-3,-3,-1
1532066874739,-1,-3,1,-1,1,0,-1,0
1532066874744,-1,-1,-1,4,3,-2,-3,0
1532066874749,0,-1,-1,4,4,1,1,0
1532066874754,0,-1,1,-5,0,-1,-1,-1
1532066874759,0,1,1,-1,-2,0,-2,-1
1532066874764,0,2,3,5,3,0,0,-2
1532066874769,-1,-3,-3,-7,-11,-3,-1,-2
1532066874774,-2,-1,-1,-1,1,-2,1,1
1532066874779,0,0,2,2,1,1,-1,1
1532066874784,-1,-2,0,-2,1,-1,0,-2
1532066874789,-2,-2,-1,-8,-8,-1,0,1
1532066874794,0,4,3,20,8,0,-1,-2
1532066874799,0,-2,0,-11,0,-2,1,-1
1532066874804,0,-2,-1,-24,-1,-3,-1,1
1532066874809,1,4,4,18,11,1,-2,0
1532066874814,-2,-4,-1,-14,5,-1,1,1
1532066874819,0,-1,-2,-8,-12,0,1,1
1532066874824,2,-1,1,11,-1,0,1,-1
1532066874829,-1,-1,-1,-6,-3,-2,-2,-1
1532066874834,0,1,0,0,-4,-1,0,-1
1532066874839,-4,-5,-5,4,6,-4,0,-1
1532066874844,0,-1,0,-4,-2,2,0,0
1532066874849,0,2,0,-2,-4,-1,-2,-1
1532066874854,-1,-3,0,-1,5,0,-1,0
1532066874859,-3,-1,1,12,-1,-1,-1,-2
1532066874864,-3,-3,-2,-19,-5,-3,-5,-1
1532066874869,2,4,0,13,6,0,1,-1
1532066874874,0,2,3,2,3,-1,0,-1
1532066874879,1,-1,-3,4,-5,0,1,-1
1532066874884,-1,1,0,-13,3,1,0,-1
1532066874889,-1,-5,2,7,-3,-2,0,1
1532066874894,-2,1,-3,-1,-5,-2,-2,1
1532066874899,-2,-1,2,-1,5,-2,-1,-2
1532066874904,0,0,1,10,-1,1,-1,-1
1532066874909,-1,2,-2,-7,0,1,-1,-4
1532066874914,0,-3,-2,3,-4,-1,0,-2
1532066874919,-1,1,0,-1,-4,-1,-1,0
1532066874924,-3,2,1,3,-3,-1,-2,0
1532066874929,-3,-1,0,1,-1,-2,-2,1
1532066874934,-2,1,0,-12,-8,-3,-3,-1
1532066874939,1,-5,-4,-8,2,0,1,-1
1532066874944,1,-2,0,24,-2,1,3,-2
1532066874949,-1,-2,0,-18,8,0,-1,1
1532066874954,-1,-2,-2,-2,-10,1,-1,0
1532066874959,-1,4,1,-16,-1,-1,-2,-1
1532066874964,-3,-2,0,12,-4,-1,-2,0
1532066874969,-1,-4,0,0,-2,-1,0,-4
1532066874974,0,0,-1,-6,5,2,2,-3
1532066874979,-2,-3,0,0,0,0,0,0
1532066874984,1,2,3,-9,4,-1,-1,1
1532066874989,-2,-1,-1,7,-6,-1,-1,-1
1532066874994,0,-2,-2,-8,2,1,-2,-1
1532066874999,-2,-1,1,10,2,-1,-1,-2
1532066875004,-2,0,-2,-20,-8,-1,1,0
1532066875009,0,0,-1,-2,0,-1,0,0
1532066875014,1,1,4,17,-5,-3,-2,-1
1532066875019,-1,-2,-5,-9,-2,1,0,0
1532066875024,0,-2,2,4,1,-3,-2,-1
1532066875029,1,3,1,6,1,1,1,0
1532066875034,-2,-2,-1,-15,-2,-2,-1,-3
1532066875039,0,-1,2,2,4,-1,0,-2
1532066875044,-1,-3,-3,-6,-1,-1,1,-1
1532066875049,-1,2,-1,8,-7,-3,-3,-1
1532066875054,1,-1,2,3,10,3,1,-1
1532066875059,-2,-1,-1,-1,-2,-1,0,-1
1532066875064,-3,-3,-1,4,-2,-1,-3,-2
1532066875069,-1,-6,-1,-6,1,-3,1,-2
1532066875074,3,4,4,1,-5,-1,0,0
1532066875079,0,-3,-4,-1,6,2,-1,0
1532066875084,1,0,1,17,1,2,2,-1
1532066875089,-4,-4,-1,-24,0,-2,-1,-1
1532066875094,-6,-4,-3,4,-13,-3,-4,-2
1532066875099,1,1,4,3,1,-1,-1,-1
1532066875104,0,-2,-2,2,0,-1,-1,-1
1532066875109,0,1,2,0,0,0,0,0
1532066875114,0,0,1,6,-6,-1,1,-1
1532066875119,-1,0,1,-13,11,-2,-2,-1
1532066875124,-1,1,1,8,-11,0,0,1
1532066875129,2,3,1,0,3,1,-1,0
1532066875134,-1,-1,1,0,9,1,0,0
1532066875139,-3,-3,1,6,-10,-2,0,-1
1532066875144,0,3,2,1,8,0,0,-1
1532066875149,-2,-1,0,3,-7,-1,0,0
1532066875154,3,1,4,7,5,0,-1,-2
1532066875159,0,-1,2,-15,-26,-3,-4,-1
1532066875164,-1,-2,-2,6,10,-1,-1,-1
1532066875169,-2,-1,1,-12,-1,1,0,0
1532066875174,-4,1,-3,-3,-7,-1,2,-1
1532066875179,-2,-2,-4,-1,7,0,0,1
1532066875184,-1,-3,0,-1,-4,-1,-3,-1
1532066875189,1,1,2,16,-1,0,1,0
1532066875194,-2,-3,-1,7,5,-2,-3,0
1532066875199,1,1,-1,-8,-1,-2,-2,-1
1532066875204,-3,-4,1,-9,-6,-1,0,-2
1532066875209,0,1,-1,7,4,-1,-2,-2
1532066875214,1,-2,-3,-7,-3,-2,0,-2
1532066875219,-2,0,2,9,-5,0,0,-1
1532066875224,2,-1,0,-1,4,0,-2,-1
1532066875229,2,0,1,-3,-4,-1,-2,-1
1532066875234,-2,1,0,1,3,-2,1,0
1532066875239,-1,0,-1,-7,1,1,-1,1
1532066875244,0,-1,-2,-3,3,2,1,-1
1532066875249,-3,-6,-1,2,-13,-2,1,-1
1532066875254,0,-1,-1,1,1,-1,-3,0
1532066875259,0,4,1,4,6,-1,0,-3
1532066875264,-2,-2,0,-11,-4,-2,-3,-3
1532066875269,2,3,-1,11,15,0,0,-2
1532066875274,-4,-5,-3,-10,-12,-1,-2,1
1532066875279,-1,-1,1,5,-3,-2,0,1
1532066875284,-1,0,-2,0,-3,-1,-1,-1
1532066875289,0,2,1,-2,-4,-1,1,-1
1532066875294,1,0,1,1,8,0,1,0
1532066875299,-1,-1,-2,0,0,1,0,-2
1532066875304,-2,0,1,7,-7,-3,-1,-1
1532066875309,0,-5,-2,3,6,0,-3,0
1532066875314,-2,1,1,-2,-2,-1,-2,0
1532066875319,2,2,0,8,-6,-1,0,0
1532066875324,0,-4,0,-6,5,0,0,0
1532066875329,-2,-6,-2,-10,-11,-4,-2,1
1532066875334,2,3,-1,4,4,1,0,0
1532066875339,-1,-1,3,-11,-3,1,1,0
1532066875344,0,2,1,13,1,-1,-1,-1
1532066875349,0,0,1,-3,-2,0,0,-1
1532066875354,-1,-9,-5,-5,-6,-2,-1,-2
1532066875359,-4,-5,0,-6,3,-2,-1,0
1532066875364,0,-2,-4,-7,3,1,0,-2
1532066875369,0,1,1,9,-5,0,-1,0
1532066875374,1,3,2,0,4,2,0,-1
1532066875379,0,-5,-4,-6,0,-1,-1,-1
1532066875384,-3,-1,0,0,-7,-2,-2,-1
1532066875389,2,5,0,-2,12,1,2,0
1532066875394,0,-2,0,-3,-7,-2,-2,-3
1532066875399,-1,-4,-2,-4,1,-1,-1,-3
1532066875404,-2,-3,-3,1,-5,-3,-1,0
1532066875409,0,-1,0,-10,2,0,-1,-1
1532066875414,-4,0,-2,-3,-7,-4,-2,0
1532066875419,-1,1,-1,9,0,-1,-1,0
1532066875424,0,-1,-1,-15,-1,-1,-1,-1
1532066875429,-1,0,-1,-3,-1,1,-3,-1
1532066875434,-2,-1,2,1,-3,0,-1,0
1532066875439,0,5,3,0,4,-1,0,-1
1532066875444,0,-1,-1,-7,0,0,1,-2
1532066875449,-1,-6,-2,4,-5,-2,0,1
1532066875454,2,0,-2,-8,1,-1,-1,0
1532066875459,-1,0,1,11,-2,1,0,0
1532066875464,2,2,3,-2,4,-1,1,-1
1532066875469,-4,-4,-2,1,-5,-2,0,-1
1532066875474,-2,-2,-1,-3,3,0,-2,-1
1532066875479,0,2,4,3,1,-1,-2,-1
1532066875484,-1,-3,-2,3,-7,-1,-1,-1
1532066875489,-4,-3,-1,-9,-6,-3,-3,0
1532066875494,1,-1,-1,3,6,0,-1,-2
1532066875499,1,1,0,4,-4,-1,1,-2
1532066875504,-1,0,1,-5,0,-2,0,0
1532066875509,-3,2,-1,4,0,2,0,0
1532066875514,0,-1,1,-1,4,0,1,-3
1532066875519,-1,-4,0,-3,-9,-1,0,1
1532066875524,-1,2,1,2,3,0,0,-2
1532066875529,0,-1,0,-4,0,-2,-1,-3
1532066875534,-1,1,3,6,-1,-1,0,-1
1532066875539,0,-6,0,4,6,1,1,-2
1532066875544,0,2,-3,-1,0,-1,-3,0
1532066875549,0,-1,2,2,-5,0,-1,-1
1532066875554,-2,0,-4,-4,-2,1,-2,0
1532066875559,-2,1,1,-2,4,0,-2,-3
1532066875564,-3,-3,2,-16,-4,-2,-1,0
1532066875569,1,1,0,10,1,-1,0,-2
1532066875574,-1,-1,1,-9,1,-1,0,0
1532066875579,-3,-3,-4,-5,-6,-1,-2,1
1532066875584,-2,-1,1,3,4,-1,-2,0
1532066875589,1,2,2,2,-8,-1,1,-2
1532066875594,-1,0,1,9,2,-1,0,-1
1532066875599,0,-1,-5,-14,0,-3,-1,-1
1532066875604,1,-1,1,3,4,0,-2,0
1532066875609,1,4,1,2,-1,-1,-2,-2
1532066875614,0,-3,0,-2,-5,-1,0,0
1532066875619,2,1,0,0,8,1,2,1
1532066875624,-4,-5,-3,-9,-7,-3,-3,-2
1532066875629,0,-1,-2,-2,0,-1,-1,-1
1532066875634,-1,0,-1,-8,-7,-2,-2,0
1532066875639,1,1,2,6,2,0,-1,0
1532066875644,-1,2,1,4,-1,-3,-2,1
1532066875649,-2,-5,-4,-4,1,0,-1,1
1532066875654,0,2,3,-5,0,0,1,-3
1532066875659,-1,-4,0,12,-4,-1,-1,-2
1532066875664,-1,-1,-1,-4,-2,0,-1,0
1532066875669,-2,-4,1,-5,1,-2,-1,-2
1532066875674,0,-1,-1,0,0,0,0,0
1532066875679,0,4,3,14,0,1,0,-1
1532066875684,3,2,-1,-1,2,0,0,0
1532066875689,-4,-10,-1,-20,-9,1,-2,0
1532066875694,-1,1,2,4,2,-1,-2,-2
1532066875699,-3,0,2,1,-3,-2,-3,-1
1532066875704,0,-3,-5,7,2,0,1,-2
1532066875709,0,4,0,-7,-1,-1,1,-1
1532066875714,0,-3,-2,8,0,-1,0,-1
1532066875719,0,-2,0,-16,-5,-2,-2,-1
1532066875724,-1,3,-1,5,-1,-2,-2,0
1532066875729,-1,-2,-1,-1,0,1,-1,1
1532066875734,-1,-1,0,-3,-5,-2,-1,-1
1532066875739,-1,1,-2,2,4,1,1,-1
1532066875744,0,-2,3,-2,-3,1,-1,-2
1532066875749,1,-1,0,0,2,0,-1,-2
1532066875754,-1,-3,-1,4,-4,0,0,1
1532066875759,0,-2,-2,-5,-1,0,-3,0
1532066875764,0,1,3,-4,0,-1,-1,-1
1532066875769,-2,0,-1,7,-10,-3,0,-2
1532066875774,-4,-1,0,1,11,0,-1,-2
1532066875779,0,0,-1,-8,0,-2,0,-3
1532066875784,-2,-1,2,18,-1,1,0,-2
1532066875789,-1,1,-2,-20,1,-2,-1,-2
1532066875794,2,1,2,-2,-5,-1,0,0
1532066875799,1,1,1,3,-1,-1,-1,0
1532066875804,0,-1,0,2,-2,0,-1,-1
1532066875809,0,-2,-3,-5,0,1,0,-1
1532066875814,0,-1,2,11,-3,-1,-2,-1
1532066875819,-4,1,-2,-3,4,2,-1,-1
1532066875824,-1,0,-1,-5,-7,-2,0,-1
1532066875829,-1,-2,-2,11,9,0,-2,2
1532066875834,0,4,2,-2,8,0,-1,-2
1532066875839,-2,-7,-3,-12,-26,-3,1,-1
1532066875844,1,1,2,0,9,0,-2,-2
1532066875849,0,1,3,-10,-3,0,-1,1
1532066875854,1,2,1,19,2,2,1,1
1532066875859,-2,-3,-1,-17,7,-1,-3,-4
1532066875864,-4,-1,0,-6,-5,-1,-1,2
1532066875869,1,3,1,3,-2,-1,0,0
1532066875874,1,-2,0,-1,1,0,-1,1
1532066875879,-1,0,4,8,0,-1,0,-1
1532066875884,-1,-2,-1,3,2,1,1,-3
1532066875889,0,3,1,-4,2,0,1,-1
1532066875894,-2,-2,-2,-2,-2,-2,0,-1
1532066875899,-2,-2,-2,5,0,-2,-1,0
1532066875904,2,-3,-1,-2,-4,-2,-2,0
1532066875909,-4,1,0,2,-1,-1,-1,-2
1532066875914,-1,0,0,-1,-2,0,-1,-1
1532066875919,-1,0,0,-9,-2,-2,0,0
1532066875924,-2,-1,-1,7,6,-1,1,1
1532066875929,1,1,1,12,-9,-4,-3,2
1532066875934,-1,2,3,-14,3,1,0,0
1532066875939,1,-1,3,17,6,0,1,0
1532066875944,2,2,-4,-6,-6,-1,0,0
1532066875949,-2,-5,2,-8,-3,-1,-1,-2
1532066875954,-2,-4,-2,1,-1,-1,-2,0
1532066875959,0,0,1,4,-3,-4,-2,-2
1532066875964,-1,-2,2,-10,-2,1,-2,-1
1532066875969,-1,0,-1,7,5,0,-2,-2
1532066875974,-1,-2,-3,-2,-7,-2,-1,-2
1532066875979,-1,1,-1,-18,1,0,-1,-1
1532066875984,-2,-3,-2,14,4,1,0,2
1532066875989,-3,-4,-1,4,7,-1,0,-1
1532066875994,0,1,-1,-22,-15,-2,1,-1
1532066875999,0,-1,-1,5,-1,-1,0,0
1532066876004,1,4,0,4,1,0,0,-2
1532066876009,-2,-10,-3,-4,-3,-1,-2,0
1532066876014,-3,-5,-1,2,2,-2,-4,-1
1532066876019,-1,-1,1,1,-10,-2,0,-2
1532066876024,-1,2,2,-5,1,-2,0,1
1532066876029,1,1,-2,16,5,0,1,-1
1532066876034,0,0,-2,-19,1,1,1,-1
1532066876039,0,1,-2,1,2,-1,-1,-1
1532066876044,-1,-5,0,-4,-5,-3,0,-3
1532066876049,1,2,1,8,0,0,4,0
1532066876054,-1,-3,-2,-9,0,-2,-1,-1
1532066876059,0,0,1,-3,-1,-2,-3,0
1532066876064,-2,-1,-2,7,10,0,0,-1
1532066876069,0,-1,2,-6,-6,0,-1,-1
1532066876074,3,2,1,-3,-1,-1,-1,0
1532066876079,-3,-1,0,6,1,1,0,-1
1532066876084,-3,-3,0,1,-4,-4,-2,1
1532066876089,2,2,-1,-10,-3,-1,0,-1
1532066876094,-2,-2,2,6,1,-2,-1,-1
1532066876099,0,-2,0,5,-3,-2,0,-3
1532066876104,-1,-4,1,-10,-4,-2,-1,-1
1532066876109,-5,-4,-6,-10,-2,-1,-3,-1
1532066876114,-3,-2,-1,-2,-3,-2,0,1
1532066876119,1,-1,-4,12,0,-2,0,0
1532066876124,2,4,3,9,0,0,-2,-2
1532066876129,0,0,1,-15,1,0,1,-1
1532066876134,-3,-2,1,11,-4,-1,-2,1
1532066876139,-2,0,0,-4,2,-1,-2,1
1532066876144,-1,-2,0,1,-2,1,0,0
1532066876149,2,3,3,-1,3,0,-1,-1
1532066876154,0,-2,3,-1,0,0,-1,-2
1532066876159,4,4,1,4,0,1,0,1
1532066876164,0,-1,-2,-10,-1,-1,-2,-2
1532066876169,-3,-4,-2,-7,-2,-2,0,-2
1532066876174,-4,-4,2,6,-8,-3,-4,-1
1532066876179,-1,-2,-1,-2,1,0,1,-1
1532066876184,-3,-1,-2,-2,-1,1,-1,-1
1532066876189,-1,-2,3,4,0,-2,0,-1
1532066876194,3,4,0,-6,2,1,1,1
1532066876199,-1,-11,0,1,3,0,-2,-1
1532066876204,0,1,0,0,3,-2,0,-1
1532066876209,-1,-1,0,-11,-3,-1,-2,0
1532066876214,2,2,1,0,-2,-3,-1,1
1532066876219,0,2,1,7,1,0,-1,0
1532066876224,0,-3,0,-12,0,-1,1,-2
1532066876229,1,-2,2,10,-3,-2,-2,-1
1532066876234,-1,2,-4,-1,2,0,1,0
1532066876239,-3,-4,1,-8,-2,-1,-2,-1
1532066876244,0,3,2,0,-3,-1,0,-1
1532066876249,2,4,3,3,1,1,-1,0
1532066876254,1,2,0,-2,3,2,-1,-2
1532066876259,0,2,2,-2,8,0,0,0
1532066876264,-3,-3,-1,-13,-9,-1,-1,-1
1532066876269,-4,-4,1,27,-1,-4,-3,1
1532066876274,-2,-1,-1,2,-3,-2,-2,-1
1532066876279,-3,-2,-2,-14,-2,0,-1,0
1532066876284,1,2,3,13,5,0,0,1
1532066876289,-2,-1,-8,-15,-3,0,0,-3
1532066876294,-1,-2,2,-11,-3,0,1,-1
1532066876299,1,3,1,16,4,0,1,-2
1532066876304,-5,-5,-2,9,-8,-3,-4,1
1532066876309,-2,1,1,-4,-1,2,-1,0
1532066876314,-1,-2,-1,13,4,0,2,-2
1532066876319,0,0,-1,-23,-5,-1,0,-2
1532066876324,1,0,1,3,3,0,-1,-3
1532066876329,0,2,2,3,2,-2,-1,2
1532066876334,-1,-5,-3,-21,-4,-3,-2,-2
1532066876339,-2,0,0,10,-3,-3,0,-1
1532066876344,-3,-5,1,-6,-2,-1,-2,-2
1532066876349,1,-2,-4,2,1,1,-2,-2
1532066876354,1,1,1,5,3,-2,-1,-1
1532066876359,-2,-4,-2,-12,-6,-3,-3,-1
1532066876364,-2,1,-3,-3,3,-1,1,0
1532066876369,0,-2,0,1,1,0,-1,0
1532066876374,0,2,3,4,-3,0,0,-1
1532066876379,0,1,0,3,-1,-1,-1,-1
1532066876384,-2,0,1,-14,-2,0,-2,-2
1532066876389,1,0,3,-3,0,-1,-1,0
1532066876394,0,-3,-2,-2,-2,0,-1,0
1532066876399,-2,0,-1,11,-4,-1,-1,1
1532066876404,0,-2,-4,7,1,-2,1,0
1532066876409,-4,-2,1,-24,0,-1,2,-1
1532066876414,-1,0,1,3,-1,-2,-2,0
1532066876419,1,0,1,-4,-4,0,0,-3
1532066876424,-1,-1,-2,2,4,2,0,0
1532066876429,-1,-2,0,7,1,-1,-1,-1
1532066876434,-2,0,0,8,2,0,-1,-1
1532066876439,1,-1,-2,-17,3,-2,2,1
1532066876444,-4,-7,-4,-8,-4,-4,-5,-2
1532066876449,0,1,2,3,-6,-2,-1,1
1532066876454,0,-2,-4,-12,2,-1,0,-2
1532066876459,0,0,0,20,0,-1,1,-1
1532066876464,2,5,2,-2,-3,-2,-1,2
1532066876469,-3,-1,0,-3,-1,-1,-1,-2
1532066876474,-3,-2,1,12,1,0,-2,-1
1532066876479,0,-5,-1,-19,-1,-1,0,-1
1532066876484,-2,1,1,4,-3,-2,-1,0
1532066876489,2,-1,1,6,1,0,-2,-1
1532066876494,1,-4,-2,-9,1,1,1,-1
1532066876499,-2,1,1,7,1,-1,-4,1
1532066876504,0,2,0,0,1,0,0,-3
1532066876509,-3,-5,0,0,-8,-2,-2,-2
1532066876514,-1,-5,-3,-1,2,1,1,0
1532066876519,0,1,0,-3,-1,0,0,-1
1532066876524,1,0,0,5,-1,-1,-2,-1
1532066876529,0,2,0,0,-1,0,1,-1
1532066876534,0,0,1,2,2,-1,-1,-2
1532066876539,-3,-1,0,-5,-1,0,-2,1
1532066876544,0,0,3,-1,-4,1,0,1
1532066876549,-1,-1,-2,1,2,0,-1,-2
1532066876554,-1,0,-2,-9,-1,-2,-1,0
1532066876559,0,0,0,8,0,-1,-2,-1
1532066876564,0,-2,-1,3,1,2,1,0
1532066876569,3,2,3,-3,2,1,-1,-1
1532066876574,-1,-6,1,14,-3,-3,-2,-3
1532066876579,0,-3,-5,-28,-3,0,-1,-1
1532066876584,1,1,2,-6,-4,-1,-2,-2
1532066876589,-3,-9,-1,-4,-3,-4,-1,-1
1532066876594,0,2,2,5,6,-1,-1,1
1532066876599,-2,-6,-1,1,-10,-2,-3,-1
1532066876604,1,0,-1,1,5,-2,-2,1
1532066876609,1,5,-2,-9,-3,-1,-1,0
1532066876614,-1,-2,1,-3,-5,-2,-2,-2
1532066876619,-1,-1,2,6,-2,-1,-2,-2
1532066876624,-3,-4,0,-2,1,-1,0,-1
1532066876629,-3,-4,2,3,-2,-1,-1,0
1532066876634,-1,3,1,-6,-6,-1,0,0
1532066876639,1,2,1,3,7,-1,0,-1
1532066876644,0,-1,-2,-2,-5,0,0,-1
1532066876649,1,2,2,-3,3,0,0,-1
1532066876654,-2,0,-1,-5,-5,-1,-2,-1
1532066876659,0,1,1,12,6,1,1,-1
1532066876664,-1,-2,-2,1,-3,-2,-1,0
1532066876669,1,-2,-1,-18,-1,-2,-1,-2
1532066876674,0,2,2,-2,-1,-2,-1,1
1532066876679,-1,0,0,5,2,0,0,-2
1532066876684,-2,0,1,4,-13,-2,-2,0
1532066876689,1,1,-1,-1,8,0,0,0
1532066876694,-3,-3,0,-1,-5,-1,-2,-1
1532066876699,0,0,-1,2,6,3,0,0
1532066876704,0,-2,2,2,0,-1,1,-1
1532066876709,0,-2,-1,2,-3,-1,-1,-1
1532066876714,-3,3,-1,-3,0,1,1,-2
1532066876719,-3,-5,1,0,-8,-2,-2,0
1532066876724,0,1,-1,2,9,0,-3,0
1532066876729,-2,-3,-5,4,-2,-1,-2,0
1532066876734,2,2,-2,-2,-1,0,-2,-2
1532066876739,0,0,-1,1,-2,0,-1,0
1532066876744,0,-5,-2,-8,1,-1,-1,-2
1532066876749,1,3,3,13,-1,0,1,1
1532066876754,0,-6,-2,-16,-1,-3,0,-1
1532066876759,0,-1,-2,0,-1,0,0,-1
1532066876764,-1,1,-1,-2,-2,1,0,-3
1532066876769,0,0,-1,5,0,-1,0,1
1532066876774,1,-2,2,11,4,1,0,-1
1532066876779,1,-2,0,-27,-6,-1,-1,-1
1532066876784,-3,2,2,3,1,-1,-3,1
1532066876789,-4,-2,-1,-7,-6,-1,-2,-1
1532066876794,-1,0,0,1,3,-2,0,1
1532066876799,-2,-1,-1,7,1,-2,1,-1
1532066876804,0,-1,1,-1,-1,0,0,-1
1532066876809,-2,1,0,5,0,0,-1,0
1532066876814,1,0,-1,-1,1,-1,-1,0
1532066876819,-3,0,0,9,1,-2,-1,-1
1532066876824,2,2,0,-24,-4,-2,0,-2
1532066876829,1,0,1,9,2,-1,-1,2
1532066876834,-1,-4,-1,-7,-5,-1,-2,1
1532066876839,0,-2,-1,3,1,-3,-2,-1
1532066876844,-1,-3,-3,4,2,0,0,-2
1532066876849,-2,-1,-1,-14,-6,-2,0,-1
1532066876854,-1,0,-1,4,-2,-2,-2,-2
1532066876859,0,0,1,1,0,-1,0,-2
1532066876864,-1,1,1,1,-4,-2,-1,-1
1532066876869,1,-1,1,3,0,-2,2,1
1532066876874,-4,-3,-2,-6,-6,-2,-4,-1
1532066876879,-1,-2,-1,-1,0,0,0,-1
1532066876884,0,1,0,5,3,-1,0,0
1532066876889,-1,0,1,-8,-7,-1,-1,-3
1532066876894,2,2,0,7,11,1,2,1
1532066876899,-1,2,3,-9,-1,-1,0,-1
1532066876904,-2,-2,-1,-2,-5,-3,-3,-1
1532066876909,-3,-3,1,-4,1,-1,0,-2
1532066876914,1,1,2,3,-2,0,0,0
1532066876919,2,2,1,3,5,1,1,2
1532066876924,-1,-7,2,0,0,0,-1,0
1532066876929,-3,-4,-9,-1,0,-3,-4,-1
1532066876934,-3,1,2,-4,-3,-2,-1,-1
1532066876939,-1,-4,-1,17,-4,-1,-1,0
1532066876944,-1,1,1,-13,-7,0,-2,0
1532066876949,1,1,0,11,8,1,1,0
1532066876954,-2,-3,-1,-3,-1,-1,0,-1
1532066876959,-3,0,-1,-6,-1,0,-2,0
1532066876964,1,0,2,12,-2,-1,2,-1
1532066876969,-1,-2,-1,-6,-2,-1,-2,-2
1532066876974,0,2,-2,-7,-5,-2,0,-1
1532066876979,1,2,4,13,4,0,2,0
1532066876984,-5,-4,-5,-19,-5,-4,-3,1
1532066876989,-1,-1,1,-7,2,0,-2,0
1532066876994,-1,1,1,6,-2,0,0,-2
1532066876999,-1,-4,0,-8,0,-1,-1,0
1532066877004,5,4,0,2,-3,0,0,-2
1532066877009,-3,3,2,5,0,-2,0,0
1532066877014,-2,-2,2,3,-1,-2,-3,-1
1532066877019,-2,0,-4,-14,-7,-3,-2,-2
1532066877024,-2,-3,-2,-1,5,-1,-2,-2
1532066877029,1,1,1,-1,-1,-1,-1,0
1532066877034,3,0,1,-1,2,1,-1,1
1532066877039,-2,-2,0,-2,-6,-3,-4,-1
1532066877044,1,-2,0,-2,-1,-1,-1,0
1532066877049,-3,-2,1,12,-2,-2,-2,-2
1532066877054,-1,-7,-4,-5,6,0,1,-1
1532066877059,-1,-1,0,-1,-2,-3,-1,-1
1532066877064,-1,-2,-1,9,-4,-2,-2,-1
1532066877069,0,1,4,5,1,0,0,-2
1532066877074,-2,-4,0,4,-3,-2,-1,0
1532066877079,0,0,-1,-11,-2,-3,-1,0
1532066877084,-1,1,3,3,3,-1,0,-1
1532066877089,2,1,1,-2,-1,-2,2,-1
1532066877094,-2,-1,1,6,0,-1,-2,-2
1532066877099,-4,-1,-1,-4,-1,-1,-2,-3
1532066877104,0,-1,0,-1,-4,-1,-1,0
1532066877109,0,-3,-1,-2,4,1,-1,-1
1532066877114,-3,-3,-4,-11,-9,-3,-3,-2
1532066877119,1,1,3,14,5,2,2,0
1532066877124,-2,-4,-1,-12,0,-2,0,-1
1532066877129,-1,-1,-2,0,-2,-1,-3,0
1532066877134,-1,-2,-1,-3,-2,-2,0,-2
1532066877139,0,0,0,9,2,-1,-1,-2
1532066877144,-2,-3,0,-1,6,0,1,0
1532066877149,0,0,-2,-3,0,0,0,-2
1532066877154,-1,1,3,-5,-8,-1,0,0
1532066877159,-2,-4,-1,-7,-5,-2,-2,1
1532066877164,2,3,0,9,-7,0,-1,0
1532066877169,-2,0,-1,-6,5,-2,0,0
1532066877174,1,7,3,16,1,-3,-1,-1
1532066877179,1,2,1,-13,-4,0,0,-1
1532066877184,-1,-2,-3,4,8,1,1,-1
1532066877189,-5,-2,-2,-9,-7,-3,-4,0
1532066877194,1,5,0,3,0,2,0,-1
1532066877199,0,-1,2,1,2,-1,-1,0
1532066877204,-1,2,1,4,1,0,1,-1
1532066877209,-1,-3,-1,-5,-4,-2,0,-2
1532066877214,0,0,-3,-2,3,-1,0,1
1532066877219,-2,-2,-2,-7,-1,-1,-1,-2
1532066877224,-1,0,1,4,1,0,-1,-1
1532066877229,0,3,3,9,-5,-1,0,-1
1532066877234,-1,-6,-1,-4,-1,-3,-2,0
1532066877239,-2,-2,0,8,-1,-3,-3,0
1532066877244,1,-2,-5,-9,0,-1,-3,-1
1532066877249,1,1,2,-9,-2,1,1,0
1532066877254,-1,-3,0,-4,0,1,-1,-2
1532066877259,-2,-5,-3,7,-1,0,-1,-1
1532066877264,1,4,5,2,0,0,1,0
1532066877269,-1,-5,-6,-6,-1,-1,0,-2
1532066877274,2,1,2,1,3,0,0,0
1532066877279,-1,-2,-1,4,-6,-1,-1,0
1532066877284,-2,-2,1,10,15,-2,0,-3
1532066877289,1,-1,-2,-29,-23,-3,0,-1
1532066877294,-2,0,-2,-4,-2,0,-1,1
1532066877299,1,0,1,-5,-2,-1,0,-2
1532066877304,0,-1,1,5,0,-1,-1,0
1532066877309,-2,-3,0,-4,4,0,-1,-2
1532066877314,-2,-3,-1,6,-4,-2,-3,0
1532066877319,-2,0,3,-2,8,3,-1,1
1532066877324,1,2,-1,7,-3,-1,-1,0
1532066877329,2,1,-3,-16,0,-2,-1,-1
1532066877334,0,-3,0,3,-2,1,0,-2
1532066877339,0,1,0,0,-1,-3,-3,-3
1532066877344,-1,-1,3,-2,-7,1,0,-1
1532066877349,0,3,0,6,6,1,1,-1
1532066877354,2,-5,-1,12,3,-1,1,-1
1532066877359,0,1,0,-20,0,-1,-2,0
1532066877364,-2,-5,-1,-8,-3,0,0,-1
1532066877369,0,1,2,4,-1,-2,-2,0
1532066877374,-1,-2,-1,-3,-1,1,0,0
1532066877379,-2,-1,1,6,0,-1,0,-2
1532066877384,2,1,1,-8,-5,-1,-1,1
1532066877389,-1,-5,1,7,2,-2,-4,-2
1532066877394,-1,3,3,-3,-1,-1,0,-3
1532066877399,0,-2,-2,-10,0,2,0,1
1532066877404,-2,-3,0,0,0,-1,-1,-2
1532066877409,-4,-1,2,6,-1,-2,0,0
1532066877414,-1,-6,-3,-9,-7,-2,0,-1
1532066877419,2,2,0,8,9,-2,1,0
1532066877424,-1,-2,-2,-12,-1,-1,-2,-1
1532066877429,0,-1,1,6,3,1,0,-1
1532066877434,-1,1,0,-8,-4,-2,0,0
1532066877439,-2,-5,1,7,-3,0,-1,-3
1532066877444,0,-3,-5,-3,-1,0,0,-2
1532066877449,-1,1,-1,0,0,-1,0,0
1532066877454,-4,2,1,-6,0,-1,-3,-3
1532066877459,0,0,-2,0,-1,-2,1,1
1532066877464,-1,-2,0,3,0,-1,-1,0
1532066877469,0,0,-1,-1,0,0,-1,-3
1532066877474,-1,2,1,-2,0,-3,-2,-2
1532066877479,1,1,1,-3,-6,-2,0,2
1532066877484,-3,5,2,1,-2,-3,-1,-1
1532066877489,1,-6,0,7,2,1,-1,-3
1532066877494,1,1,-1,-6,2,-1,-2,-1
1532066877499,0,1,-3,-5,-8,-3,-1,-1
1532066877504,-3,1,1,13,6,-2,-1,2
1532066877509,-2,-3,0,-10,0,-2,-2,1
1532066877514,0,4,1,0,2,1,0,0
1532066877519,-2,-2,1,-6,-2,-1,-1,-2
1532066877524,0,-3,-2,-2,1,0,0,-1
1532066877529,2,0,1,-1,2,0,1,1
1532066877534,1,-1,0,-1,1,1,1,-1
1532066877539,-4,-5,-1,2,-6,-2,-4,-2
1532066877544,0,-1,3,0,-4,-1,-1,-1
1532066877549,-1,-2,0,2,1,-1,-3,0
1532066877554,-2,5,-3,-6,-2,0,-2,-1
1532066877559,-5,-17,-4,3,0,-1,1,-2
1532066877564,2,2,0,2,1,-2,-1,0
1532066877569,-1,0,0,1,-1,0,-1,0
1532066877574,0,11,-1,-3,-1,-2,2,-1
1532066877579,0,-5,1,-1,1,0,0,-1
1532066877584,-2,-2,1,-3,-3,-1,0,-2
1532066877589,4,11,-1,4,-1,-2,-2,-1
1532066877594,-3,-6,-1,0,-1,-1,-1,3
1532066877599,-3,-8,-1,0,0,-2,-1,-2
1532066877604,-1,-3,0,-6,-1,0,-1,-1
1532066877609,-1,2,0,8,-7,-1,-1,0
1532066877614,0,11,5,-3,-5,-2,0,-1
1532066877619,-4,-5,0,9,14,2,3,0
1532066877624,0,-10,-2,1,-6,-1,-1,-1
1532066877629,3,9,1,-4,-8,-1,-1,-1
1532066877634,-2,-8,-9,1,7,3,1,-3
1532066877639,-4,-4,7,-9,-5,-2,0,-1
1532066877644,-1,-1,4,7,1,0,-2,-2
1532066877649,3,-1,-2,-3,7,0,1,-1
1532066877654,5,3,2,5,-3,-2,-3,-2
1532066877659,-5,-8,-5,-7,-4,-2,-1,-2
1532066877664,-1,-1,-2,-5,1,-1,-2,0
1532066877669,0,11,3,2,1,0,-1,0
1532066877674,-2,-9,0,-10,-7,-3,-2,-1
1532066877679,-1,0,-3,10,4,-1,-1,-1
1532066877684,1,2,0,-17,-5,-2,-1,-2
1532066877689,-3,-3,3,11,4,1,1,-2
1532066877694,-1,1,2,-2,3,1,1,0
1532066877699,-2,-3,1,1,-5,0,0,-2
1532066877704,2,4,3,6,-2,-1,0,-1
1532066877709,0,0,-7,-1,15,-3,-3,0
1532066877714,-2,5,0,-10,-25,-2,0,-1
1532066877719,-5,-27,-1,2,2,-1,-2,-2
1532066877724,0,0,1,5,-1,1,-1,-3
1532066877729,0,-1,5,1,2,-1,0,0
1532066877734,-3,0,-2,-1,-1,0,0,0
1532066877739,-1,5,1,-7,-6,0,-2,1
1532066877744,0,-5,0,6,3,-1,-1,1
1532066877749,0,-2,-1,-9,-15,0,-1,-1
1532066877754,0,-7,-1,0,5,1,-2,-1
1532066877759,3,5,1,-2,-2,-2,0,-1
1532066877764,-2,-3,-4,-9,-8,-4,-2,0
1532066877769,-1,5,3,0,1,1,0,1
1532066877774,-1,0,2,0,-6,-2,-3,-1
1532066877779,0,4,1,6,23,0,1,0
1532066877784,-1,-2,-1,-4,-12,1,-1,-1
1532066877789,-2,-6,-2,1,0,-2,-1,1
1532066877794,2,2,-1,-2,1,0,-1,-1
1532066877799,-1,3,-4,-2,-1,-2,-2,-1
1532066877804,-3,1,2,2,1,-1,0,-1
1532066877809,-2,1,0,1,5,3,2,0
1532066877814,-2,-1,0,2,3,-1,-1,-1
1532066877819,3,3,-3,-1,1,1,0,1
1532066877824,-2,-7,-2,-2,-3,-2,-2,-1
1532066877829,-1,0,-2,-4,-7,-1,-2,-1
1532066877834,-3,0,4,1,4,-1,0,0
1532066877839,0,2,1,-4,-7,-2,-1,1
1532066877844,0,0,0,3,3,-2,1,-1
1532066877849,-2,-6,-4,-8,-4,0,-1,0
1532066877854,-1,-2,1,-1,2,-1,0,-2
1532066877859,-2,-3,-2,-4,-7,0,-2,-1
1532066877864,-3,-1,0,8,6,1,2,-5
1532066877869,0,-5,1,-6,-3,0,-1,-3
1532066877874,0,1,-2,1,1,-1,-2,-2
1532066877879,-3,-2,0,-15,-11,-4,-2,0
1532066877884,-5,-3,-2,3,2,0,-1,0
1532066877889,3,4,-3,3,-1,-1,-2,-2
1532066877894,2,2,0,2,4,3,0,-1
1532066877899,2,3,3,2,-2,0,0,-1
1532066877904,-2,2,0,-3,0,1,0,1
1532066877909,-1,3,1,-2,-1,0,0,0
1532066877914,-2,-6,-2,4,3,-2,0,-1
1532066877919,-2,-3,-2,3,3,2,0,-3
1532066877924,2,2,0,-6,-6,-2,-3,0
1532066877929,0,0,1,4,-1,-2,-1,-1
1532066877934,-1,0,-5,-4,1,-2,-2,-2
1532066877939,-2,-1,1,3,1,-2,-1,-2
1532066877944,1,-5,-3,1,0,-1,0,-3
1532066877949,1,3,2,-4,-1,-1,0,-2
1532066877954,-2,-4,1,2,-1,-1,0,-2
1532066877959,-1,1,-1,-3,-4,-1,-2,-1
1532066877964,0,0,1,-2,2,-2,-1,1
1532066877969,-2,-1,1,2,-3,-2,-1,1
1532066877974,-1,-2,2,0,-2,1,0,-1
1532066877979,-1,0,1,-9,-2,0,0,-1
1532066877984,1,-2,-1,0,-1,-1,0,-1
1532066877989,0,0,2,4,2,1,-1,-1
1532066877994,-2,-4,0,-2,-3,-2,-1,0
1532066877999,1,3,3,3,-2,-1,0,0
1532066878004,-1,-1,-4,-8,0,-1,-2,-2
1532066878009,0,-1,2,2,-2,-1,0,2
1532066878014,-2,-3,-2,-4,-1,-1,1,0
1532066878019,-1,-5,-4,1,-2,-1,-2,-3
1532066878024,-2,-1,2,-5,-3,-2,-1,-1
1532066878029,0,-1,-4,1,2,-1,1,-1
1532066878034,1,0,2,-6,-2,-1,-1,1
1532066878039,1,-1,1,5,3,-1,0,-1
1532066878044,0,0,0,8,1,0,-1,1
1532066878049,1,1,-2,-9,0,1,-2,0
1532066878054,0,5,0,-5,-2,-2,-2,1
1532066878059,-3,-4,-4,6,-3,-1,-3,-2
1532066878064,1,2,-9,5,4,1,1,0
1532066878069,-3,-8,0,-6,-3,-3,-2,-2
1532066878074,-3,-5,7,-9,0,-3,-4,0
1532066878079,1,9,17,0,1,2,2,1
1532066878084,1,2,-20,-7,-3,-1,1,-2
1532066878089,-2,-7,-8,-8,-2,-2,-1,-3
1532066878094,2,14,14,7,2,2,2,-1
1532066878099,-2,-12,6,-8,-1,0,1,-2
1532066878104,-5,-3,3,23,-6,-4,-4,0
1532066878109,-4,-12,2,13,-2,-2,-4,-2
1532066878114,0,-4,-16,-22,7,1,-1,1
1532066878119,-1,8,10,2,-5,-2,-2,0
1532066878124,2,4,1,3,4,3,4,0
1532066878129,0,0,-29,-23,1,2,2,-2
1532066878134,2,17,14,35,-2,1,-1,1
1532066878139,7,22,23,22,1,3,8,-4
1532066878144,-14,-33,64,0,-1,-4,-18,0
1532066878149,3,18,0,17,1,1,2,2
1532066878154,-9,-45,-43,-13,-1,-7,-4,-5
1532066878159,-1,-7,-44,-3,-10,0,-2,6
1532066878164,6,20,-23,6,-1,1,6,-3
1532066878169,2,23,-5,-25,-6,0,2,-2
1532066878174,-7,-20,-1,-2,-2,-2,-6,-5
1532066878179,0,-5,14,-7,2,-3,-1,1
1532066878184,-6,-15,16,18,-1,-3,-4,-2
1532066878189,-1,1,-16,-3,1,3,0,0
1532066878194,0,13,-41,-26,-15,1,8,-3
1532066878199,-12,-17,-12,18,-1,-5,-6,0
1532066878204,3,1,-58,-14,-1,3,1,1
1532066878209,3,22,45,-1,18,3,4,3
1532066878214,-1,19,-76,20,7,1,4,1
1532066878219,-19,-57,33,-42,-15,-9,-13,-9
1532066878224,11,30,-64,15,38,5,10,3
1532066878229,-1,-3,63,-4,-26,-1,1,-3
1532066878234,-14,-44,37,26,-5,-5,-14,0
1532066878239,4,25,22,-5,1,0,-4,2
1532066878244,2,5,-9,-48,2,4,6,-3
1532066878249,-2,-15,29,75,-2,-4,-1,-3
1532066878254,3,12,36,-86,14,-6,-3,-4
1532066878259,3,-4,-20,19,-8,1,1,0
1532066878264,-9,-21,51,3,-12,-8,-9,0
1532066878269,6,5,-37,11,4,2,3,-3
1532066878274,7,13,26,24,-3,1,3,-2
1532066878279,8,7,-1,-19,9,-5,-5,-4
1532066878284,10,6,-18,6,22,13,20,3
1532066878289,-18,-26,-40,-61,-26,-15,-13,-2
1532066878294,3,17,-1,53,7,4,5,6
1532066878299,4,29,88,-47,-8,1,-3,5
1532066878304,0,-6,3,-12,-9,-2,-6,-6
1532066878309,-1,-7,-4,76,-7,0,4,-2
1532066878314,8,11,0,-81,2,5,7,-1
1532066878319,0,2,-35,83,28,-2,2,-2
1532066878324,-8,-13,7,-23,-38,-7,-10,0
1532066878329,7,-1,4,-28,28,1,-1,1
1532066878334,5,-3,-7,1,-19,-1,-1,-2
1532066878339,6,-6,-41,-38,4,3,3,-6
1532066878344,-1,0,17,63,-13,-4,-2,0
1532066878349,0,-4,-1,-23,4,-2,-6,0
1532066878354,1,-2,0,38,3,0,1,0
1532066878359,4,-1,-27,-22,7,3,4,-2
1532066878364,1,2,13,-18,-8,-1,-3,-2
1532066878369,-4,1,-4,-6,6,-1,0,-1
1532066878374,-1,0,20,30,1,0,-1,1
1532066878379,-5,-6,-10,28,-4,0,-2,1
1532066878384,-4,1,10,-29,-2,-5,-6,-1
1532066878389,-1,-2,-2,5,1,1,1,0
1532066878394,-3,-3,-6,-50,0,0,0,-4
1532066878399,-8,-3,-1,37,-4,-2,-6,1
1532066878404,0,-2,-6,11,4,-2,5,2
1532066878409,2,1,-3,-18,2,1,1,-1
1532066878414,-1,0,7,17,-1,-1,-1,-1
1532066878419,-1,1,-23,-36,-8,-4,2,0
1532066878424,0,0,5,34,5,0,-1,1
1532066878429,-2,-4,2,-18,-2,1,-2,2
1532066878434,-3,-3,5,0,-2,-4,-5,0
1532066878439,-1,-1,-3,3,-8,1,1,-1
1532066878444,-1,-1,-1,-22,7,0,0,-2
1532066878449,1,0,5,9,-4,-2,-3,0
1532066878454,-2,5,3,19,7,2,-1,0
1532066878459,-1,8,-7,-21,-3,-1,3,-1
1532066878464,-5,-24,-3,2,1,0,-1,-3
1532066878469,-3,-2,-2,8,-2,-2,-2,-2
1532066878474,-2,2,3,1,-2,-1,0,-1
1532066878479,2,-11,-3,4,3,-1,2,1
1532066878484,-2,9,0,8,3,-2,-2,-1
1532066878489,-1,-2,-11,-37,-9,0,0,-3
1532066878494,-1,1,6,-6,-5,-3,-1,-1
1532066878499,-1,-1,4,1,-2,1,1,-2
1532066878504,-3,2,4,9,1,-4,-5,-1
1532066878509,-2,-4,-3,-3,-11,-1,-2,-2
1532066878514,1,2,-2,-23,7,1,1,-2
1532066878519,-4,2,24,38,3,-1,-5,0
1532066878524,1,1,-7,-29,1,-2,-2,-1
1532066878529,0,-1,8,15,0,-2,-2,0
1532066878534,2,-2,-22,0,33,1,3,0
1532066878539,-6,-11,8,8,-27,-1,-3,1
1532066878544,0,12,-22,-21,-3,0,0,0
1532066878549,-2,-10,11,14,5,0,0,-2
1532066878554,5,8,-1,8,-10,-4,-5,-1
1532066878559,3,9,-14,-9,3,1,1,-3
1532066878564,-5,-3,5,10,-1,3,1,-1
1532066878569,-8,-15,-2,-6,-1,-3,-2,-1
1532066878574,-6,-24,2,16,-1,-3,-1,-5
1532066878579,5,10,-11,-8,-3,-5,-4,-2
1532066878584,5,13,10,-4,2,4,0,1
1532066878589,2,4,-10,1,7,2,2,-1
1532066878594,-1,-2,3,-3,-7,-1,0,-2
1532066878599,1,3,-14,-7,4,-4,-1,2
1532066878604,0,-5,3,-2,-7,-1,4,-1
1532066878609,1,3,-5,10,10,-1,-2,-2
1532066878614,-1,2,-4,-5,-10,-2,-1,0
1532066878619,1,-5,-7,4,15,0,3,-4
1532066878624,-1,0,-5,-10,-3,0,1,-2
1532066878629,2,5,17,-6,5,3,4,-1
1532066878634,-3,-6,-44,13,2,-2,-2,-2
1532066878639,-1,1,7,-11,-7,-3,-6,2
1532066878644,0,1,3,10,4,0,-1,1
1532066878649,-3,-6,4,3,-5,-2,0,0
1532066878654,2,8,11,15,-5,2,3,-1
1532066878659,-3,-3,-10,-15,4,-3,-3,-4
1532066878664,-1,-6,0,-1,-7,-6,-6,-3
1532066878669,0,-1,0,-8,-9,-2,-1,0
1532066878674,2,5,10,7,14,1,1,-2
1532066878679,0,0,-4,6,-3,-1,0,-1
1532066878684,-2,-3,6,6,-6,-1,-1,1
1532066878689,-1,-2,-11,-12,-1,0,-3,0
1532066878694,-2,3,9,4,0,-1,-3,-1
1532066878699,1,0,-36,-6,1,1,1,-2
1532066878704,-4,-11,41,6,-5,-6,-7,-2
1532066878709,0,4,-8,-5,-1,-1,0,0
1532066878714,1,-2,-7,-2,-4,1,1,1
1532066878719,-2,-2,-2,-2,-3,-2,-2,-1
1532066878724,1,2,-23,-1,2,0,1,0
1532066878729,1,5,16,-3,-3,-1,-1,-2
1532066878734,1,6,-13,6,1,0,1,-2
1532066878739,-9,-20,4,-13,-1,-3,-4,1
1532066878744,2,4,-1,-3,-5,-4,1,0
1532066878749,0,1,-5,3,2,0,0,0
1532066878754,1,2,4,22,2,2,2,1
1532066878759,-2,-8,8,-14,-6,-3,-1,-4
1532066878764,0,8,2,4,4,-1,0,0
1532066878769,0,-6,-3,2,-3,-1,-1,0
1532066878774,-2,-1,-2,4,-2,-1,-2,-2
1532066878779,-1,3,0,3,-5,-1,0,0
1532066878784,1,-3,-7,-5,1,2,2,0
1532066878789,0,-1,12,-9,-3,-2,0,-3
1532066878794,-1,-1,3,2,-4,-2,0,0
1532066878799,0,0,-2,2,3,-2,-2,0
1532066878804,1,0,0,-6,2,1,1,-1
1532066878809,-2,0,-12,2,0,1,-2,-1
1532066878814,-1,-2,4,-2,-5,-2,0,-2
1532066878819,-1,-2,3,0,0,0,1,-1
1532066878824,-1,2,1,-8,-2,1,0,0
1532066878829,-3,-2,-8,6,-8,-1,-1,1
1532066878834,-2,-3,21,-32,1,-2,-2,-1
1532066878839,0,6,-32,-3,-1,-2,-3,2
1532066878844,-2,-6,0,5,3,-1,-1,-3
1532066878849,-2,-11,-3,2,12,1,-1,-2
1532066878854,0,-2,-8,2,-10,0,-1,1
1532066878859,2,8,13,0,0,0,1,-2
1532066878864,1,2,-1,-3,-1,-1,-2,-1
1532066878869,0,3,11,5,3,-2,0,0
1532066878874,-4,-6,-10,8,0,-1,-2,-2
1532066878879,2,-2,1,-5,-2,-1,-1,-1
1532066878884,2,1,7,4,-2,-1,-1,-1
1532066878889,1,-3,-8,-3,-1,0,1,-1
1532066878894,-2,-5,-2,-2,0,-2,-2,1
1532066878899,0,1,12,-9,1,0,0,-1
1532066878904,-2,0,-1,-7,-2,-2,-1,1
1532066878909,-1,-2,-4,10,-2,0,-2,-2
1532066878914,-1,0,-4,-21,0,-2,-4,-4
1532066878919,0,-4,-12,2,-1,1,-1,-2
1532066878924,0,4,2,11,-3,-3,-2,-1
1532066878929,-4,-4,-14,-36,-5,-2,-2,-1
1532066878934,0,0,8,8,0,-1,3,2
1532066878939,-1,3,10,8,-2,-3,-4,-2
1532066878944,-2,-3,4,-6,-1,0,2,-1
1532066878949,1,3,5,19,0,0,-1,0
1532066878954,0,-4,2,-12,-4,-2,-3,-1
1532066878959,-2,-1,-7,-2,0,-2,0,0
1532066878964,1,1,-12,-12,-5,0,0,0
1532066878969,-2,-1,-12,21,-1,-3,-1,-1
1532066878974,0,1,12,13,2,0,0,-1
1532066878979,3,0,12,-13,-4,1,-1,0
1532066878984,-3,-3,16,3,2,0,0,-1
1532066878989,2,2,5,-18,-1,0,3,-1
1532066878994,-1,-2,-7,-2,-3,-1,0,1
1532066878999,-2,1,4,5,2,-1,-2,-2
1532066879004,0,2,-2,1,-1,-2,-1,-1
1532066879009,0,-4,-5,0,-12,-3,-1,0
1532066879014,-1,0,-8,6,-2,-2,-3,-1
1532066879019,-2,-1,-1,2,-1,0,2,1
1532066879024,0,-1,-9,11,4,0,1,-1
1532066879029,-1,2,6,-4,0,-2,-2,1
1532066879034,0,-2,-5,9,-1,-1,-3,-2
1532066879039,-1,0,0,1,3,3,1,-1
1532066879044,0,-3,1,-4,-1,-1,-1,0
1532066879049,2,2,4,-9,-1,0,-1,-4
1532066879054,-1,-4,0,-13,-4,-2,-1,-3
1532066879059,-2,-2,-3,12,0,-2,-2,-1
1532066879064,-2,-2,9,4,-2,1,-1,0
1532066879069,1,2,-1,-5,5,1,0,0
1532066879074,-1,-1,-3,-16,0,-1,-1,-1
1532066879079,1,0,4,-7,-1,0,0,0
1532066879084,-1,-2,11,6,-1,-2,-3,0
1532066879089,-1,1,7,-10,0,1,2,1
1532066879094,-1,0,4,11,6,1,1,0
1532066879099,-1,-2,-2,-2,-2,-1,0,0
1532066879104,1,-1,-12,-11,-3,-2,-3,0
1532066879109,-1,-1,-13,0,0,-1,0,-1
1532066879114,1,1,-5,-2,-2,-1,-1,-1
1532066879119,-1,-1,-3,8,-1,-1,0,1
1532066879124,-1,1,-6,-8,1,1,-2,-1
1532066879129,0,0,-1,9,0,-1,-2,-2
1532066879134,-2,-1,0,2,-5,-2,-1,0
1532066879139,0,-1,-2,2,-1,-1,-1,0
1532066879144,-2,-3,-1,-2,0,-1,0,0
1532066879149,2,0,-7,-22,1,1,2,-2
1532066879154,-3,-3,9,15,-2,-4,-2,-1
1532066879159,-2,0,3,7,0,-2,-3,0
1532066879164,-2,-2,-9,-14,-1,0,2,0
1532066879169,-2,-1,-1,11,0,-2,0,0
1532066879174,-1,0,-4,-22,0,1,-1,0
1532066879179,-3,0,0,8,-2,-2,-1,-1
1532066879184,-1,2,6,6,1,1,5,0
1532066879189,-10,-6,-2,-1,-5,-4,-6,0
1532066879194,-3,1,-5,-6,-2,-1,0,-1
1532066879199,-4,-2,4,-4,0,1,-3,-1
1532066879204,-5,-3,-7,-9,0,1,-3,-2
1532066879209,-4,1,0,14,1,1,0,-2
1532066879214,-7,0,12,8,0,-2,-3,0
1532066879219,-6,0,2,-15,-2,-2,-1,0
1532066879224,-3,-4,-1,8,-5,-4,-4,-2
1532066879229,-4,-3,9,-14,-1,-1,-2,-1
1532066879234,1,7,-5,5,-2,0,-1,-2
1532066879239,1,-15,-7,-13,1,-1,3,-1
1532066879244,2,1,7,31,-2,-2,-5,0
1532066879249,2,-2,-2,-8,-4,-2,5,-1
1532066879254,2,-1,-9,1,-3,-2,0,1
1532066879259,3,5,5,0,2,0,-1,-2
1532066879264,4,-1,1,-15,1,1,1,-1
1532066879269,2,-1,-3,11,-4,0,-4,0
1532066879274,4,1,1,3,6,0,-1,0
1532066879279,4,2,-6,4,2,-1,1,0
1532066879284,3,-2,-3,-24,-5,-3,-1,-2
1532066879289,2,9,11,31,2,-1,-3,-1
1532066879294,3,-4,-3,-1,-2,-1,-1,-1
1532066879299,1,-17,-6,-1,-5,0,-2,-1
1532066879304,0,-13,-2,-10,-1,-1,2,-1
1532066879309,3,-2,4,4,0,-1,1,0
1532066879314,3,9,-1,-4,0,2,0,-1
1532066879319,0,3,9,-6,-3,-2,-2,-2
1532066879324,2,3,-4,4,-6,-1,-1,-1
1532066879329,1,3,5,-5,4,0,-1,-1
1532066879334,3,-3,-2,7,-3,-2,-3,-2
1532066879339,-1,2,-7,7,4,1,-1,-1
1532066879344,-1,1,-1,-29,3,1,3,-1
1532066879349,-3,-5,-3,16,-7,-1,-4,0
1532066879354,-1,1,-3,-9,-1,1,3,0
1532066879359,-2,0,4,16,-5,-4,-2,0
1532066879364,0,3,3,-2,-1,-3,-2,-1
1532066879369,0,-3,-7,-7,-2,-1,-1,0
1532066879374,-3,-3,5,-6,0,1,1,0
1532066879379,-2,4,-6,1,-1,-1,1,-2
1532066879384,-4,0,7,13,1,0,-2,-1
1532066879389,-1,-1,-6,-19,-1,-2,-1,-1
1532066879394,-2,-12,-2,4,-4,-1,-1,-1
1532066879399,-2,2,2,-9,-1,0,0,1
1532066879404,0,0,-4,5,2,0,2,0
1532066879409,-1,2,2,3,-1,-3,-2,0
1532066879414,1,1,-4,-9,1,-1,-3,-1
1532066879419,-2,-4,-3,0,-7,-2,-2,-3
1532066879424,-2,-7,0,1,-1,-1,1,-1
1532066879429,0,0,-4,-13,0,1,0,-1
1532066879434,-2,-1,3,3,1,-2,-1,0
1532066879439,-2,3,0,14,0,1,1,-2
1532066879444,2,8,-2,-19,3,-1,-3,3
1532066879449,-5,-4,-1,-4,-2,1,1,1
1532066879454,1,-6,-1,11,0,-2,-1,-3
1532066879459,1,3,0,-19,-2,-2,-3,-2
1532066879464,2,1,-4,2,-2,0,0,-2
1532066879469,-1,-2,3,17,0,-4,-3,-2
1532066879474,0,1,-6,-7,1,1,2,0
1532066879479,-1,-1,4,1,2,-1,2,0
1532066879484,-1,0,-2,4,-1,0,0,-1
1532066879489,-2,-3,-1,-5,0,0,-2,-1
1532066879494,-2,-3,5,3,-2,-1,-1,-1
1532066879499,0,0,-3,-5,-2,0,-2,-1
1532066879504,-2,-3,1,6,1,0,-2,-1
1532066879509,-1,-2,1,4,0,0,0,0
1532066879514,-2,-1,1,3,-5,-1,-1,-2
1532066879519,1,3,-4,-29,5,0,0,2
1532066879524,-2,-1,1,8,-4,0,1,0
1532066879529,1,-7,0,1,1,0,0,0
1532066879534,-2,1,-2,-1,0,-1,0,-1
1532066879539,0,-2,1,-1,-2,-3,-1,-1
1532066879544,-1,1,1,7,-2,-3,-1,-2
1532066879549,0,1,-4,-11,-1,0,0,-2
1532066879554,0,1,-3,-1,1,2,1,-1
1532066879559,-3,-4,7,16,-5,-3,-4,0
1532066879564,-3,1,-2,0,-1,1,-3,0
1532066879569,0,-2,-1,-3,-1,1,0,-2
1532066879574,-1,1,-3,-5,0,-1,-1,1
1532066879579,-1,-2,-3,-10,1,0,1,-2
1532066879584,-2,-5,6,7,-2,-1,-1,-1
1532066879589,0,0,-2,17,0,-2,1,-1
1532066879594,0,1,-1,-20,-3,-2,-1,-1
1532066879599,1,1,-2,16,-1,0,0,-1
1532066879604,-1,0,4,-3,2,0,-2,0
1532066879609,-1,-1,-3,0,0,-1,0,-2
1532066879614,-1,-1,-2,-3,-1,-3,-3,-1
1532066879619,-3,0,0,7,-6,1,-1,1
1532066879624,0,0,-2,1,4,-1,-1,-1
1532066879629,0,-3,2,-9,-1,-3,0,-1
1532066879634,0,-3,2,0,-1,1,0,-1
1532066879639,-1,-2,-1,-4,1,-3,-2,-1
1532066879644,-2,-1,-1,13,-3,-4,0,-1
1532066879649,-2,-5,7,-23,-1,-1,-2,-1
1532066879654,-1,1,0,11,-3,-2,-1,0
1532066879659,1,0,-2,-1,0,1,1,0
1532066879664,2,0,-1,-6,-2,0,-1,-2
1532066879669,0,2,-4,0,0,-1,1,0
1532066879674,0,-1,3,-1,-2,-1,-1,-2
1532066879679,0,-2,4,0,0,-2,-10,1
1532066879684,0,-2,-2,1,1,1,8,-2
1532066879689,-1,0,-1,1,-2,0,-2,0
1532066879694,0,0,-2,-4,2,-2,-1,1
1532066879699,1,1,0,18,2,1,0,-1
1532066879704,-2,-3,-1,-13,-5,-1,-6,-1
1532066879709,0,0,-3,2,-3,-3,-2,0
1532066879714,-1,0,0,1,3,1,1,-1
1532066879719,0,-1,-5,7,5,1,1,-2
1532066879724,0,-1,6,-4,-9,-1,-2,-1
1532066879729,-1,1,2,6,-2,-2,-1,0
1532066879734,-1,-5,-2,3,0,0,-4,-1
1532066879739,0,-1,-1,-7,-1,-1,2,-1
1532066879744,-1,-1,0,2,-2,0,0,1
1532066879749,1,-1,0,8,2,-1,-1,-2
1532066879754,0,0,-5,-37,-2,0,1,-2
1532066879759,-2,-2,3,32,0,0,0,-2
1532066879764,-1,2,-6,-11,1,-1,-1,1
1532066879769,-3,-3,6,-3,-4,-3,-4,-2
1532066879774,0,2,-3,-7,1,-2,1,1
1532066879779,0,-1,5,-2,-2,-2,-7,-1
1532066879784,2,2,-2,-25,1,0,7,-3
1532066879789,-7,-10,4,18,-8,-4,-4,-3
1532066879794,0,-1,-2,1,2,0,1,0
1532066879799,0,1,0,-21,-2,-1,3,-1
1532066879804,-1,0,-1,23,4,-1,-5,1
1532066879809,4,3,1,-44,6,5,10,-2
1532066879814,-6,-4,4,27,-7,-4,-14,-1
1532066879819,0,-1,-1,-17,-2,-1,2,2
1532066879824,5,-1,3,-1,1,0,2,2
1532066879829,-4,1,-6,-5,2,2,1,-5
1532066879834,1,0,2,11,-1,1,3,0
1532066879839,0,0,1,-11,1,0,1,0
1532066879844,-2,-9,-11,-7,-11,-5,-3,0
1532066879849,3,2,-5,-7,0,-1,-8,-1
1532066879854,-3,-5,4,24,-2,-2,-2,-4
1532066879859,2,1,-2,-4,1,-2,1,0
1532066879864,3,6,3,26,6,3,6,-1
1532066879869,-5,-5,-6,-35,-6,-2,-2,5
1532066879874,-2,-8,5,-21,-5,0,-3,-7
1532066879879,-2,-3,5,10,-8,-3,2,2
1532066879884,-2,0,2,-12,-1,-1,-6,1
1532066879889,1,5,8,38,6,1,2,0
1532066879894,5,10,1,-9,5,1,5,3
1532066879899,-4,-8,16,23,-5,-2,0,-2
1532066879904,-2,0,82,-17,-1,0,15,-1
1532066879909,2,-2,49,8,-1,-1,-25,-1
1532066879914,1,2,37,-1,3,-2,-5,-6
1532066879919,0,0,-13,-15,-1,1,-7,-3
1532066879924,-4,-3,-41,14,-1,-2,1,-3
1532066879929,0,-3,-32,-8,0,-1,13,3
1532066879934,-2,-2,-28,-5,-2,-4,-12,2
1532066879939,1,3,-15,-5,3,0,21,2
1532066879944,-3,-4,-18,-10,0,-5,-31,-3
1532066879949,-3,-1,-16,5,-2,2,35,2
1532066879954,0,-1,-19,1,-1,1,19,5
1532066879959,-5,-3,-9,-4,-1,-5,-18,-17
1532066879964,-1,2,-9,2,0,2,-17,-3
1532066879969,2,9,1,27,2,-1,2,0
1532066879974,-5,-14,-18,-35,-9,-4,-22,-5
1532066879979,-1,1,6,7,-1,1,13,4
1532066879984,-3,-1,1,2,-1,-1,2,1
1532066879989,0,-7,-2,-1,6,-2,-5,-9
1532066879994,1,4,5,-6,-2,0,14,10
1532066879999,1,0,-5,-22,0,1,-28,-12
1532066880004,-2,-2,-8,7,-1,-2,-3,-2
1532066880009,1,2,-1,-2,-3,1,1,2
1532066880014,-2,-1,1,3,-1,-1,6,-2
1532066880019,1,-2,-5,-4,0,-3,-3,5
1532066880024,0,2,-1,1,-1,-1,10,-2
1532066880029,3,1,-5,-12,-4,-1,-2,-2
1532066880034,0,0,3,9,4,4,9,-2
1532066880039,-1,1,3,-4,-2,-2,-31,4
1532066880044,-1,0,6,5,1,-1,7,-1
1532066880049,-1,-3,0,-5,-1,0,-8,-1
1532066880054,-2,1,2,18,-4,1,5,-1
1532066880059,1,0,3,-14,0,2,6,0
1532066880064,1,-2,-9,20,-2,-2,-18,2
1532066880069,-1,-2,-4,-43,-1,-1,-26,2
1532066880074,-3,1,0,23,5,1,29,-1
1532066880079,0,-2,1,0,-1,0,17,4
1532066880084,0,0,-8,-10,-1,1,-8,-3
1532066880089,-1,1,0,1,-3,-2,-2,-1
1532066880094,1,1,1,-4,0,-2,-13,-3
1532066880099,-1,-2,-4,-11,2,0,5,2
1532066880104,-2,-4,4,2,3,-2,0,0
1532066880109,-1,-3,1,5,-6,-2,2,-4
1532066880114,1,0,8,-7,8,0,-7,0
1532066880119,0,-1,6,-3,-1,-1,5,3
1532066880124,0,0,9,19,-3,-2,4,-1
1532066880129,0,0,4,-11,6,0,6,-1
1532066880134,-4,-7,1,-42,-19,-7,-11,-1
1532066880139,0,1,8,8,1,1,-2,-2
1532066880144,-1,-2,0,-2,0,2,10,-2
1532066880149,-1,-2,-1,9,-2,-2,-9,0
1532066880154,-1,1,4,5,0,0,-10,-4
1532066880159,-1,-1,2,-7,0,2,10,-1
1532066880164,-1,-2,1,-5,-3,2,25,2
1532066880169,-2,-2,-1,10,-2,-2,-19,-1
1532066880174,-1,1,1,7,-1,-1,-2,-1
1532066880179,-2,-1,-4,6,-1,-2,-4,-5
1532066880184,-3,-2,-4,-1,-2,-1,-1,0
1532066880189,-1,1,-3,18,3,1,9,-2
1532066880194,-1,0,-2,-24,-3,0,-6,0
1532066880199,-1,0,2,-10,-6,-4,-1,-1
1532066880204,-1,0,5,-5,-2,0,-3,1
1532066880209,-3,0,2,5,3,1,2,2
1532066880214,1,3,2,4,-1,-1,-2,-2
1532066880219,-2,-4,1,-5,4,-1,3,-2
1532066880224,1,-4,1,-12,0,0,-3,-2
1532066880229,0,0,1,-2,-6,-2,1,-1
1532066880234,-2,1,-1,15,4,0,2,-2
1532066880239,0,-1,5,13,-2,1,3,0
1532066880244,-2,-2,-2,-40,-5,-1,-7,-4
1532066880249,0,-2,1,1,2,1,3,1
1532066880254,0,1,0,11,4,-1,-1,1
1532066880259,-1,0,-1,-4,-3,0,-3,0
1532066880264,3,6,0,24,4,-2,-2,1
1532066880269,-4,2,1,-8,-5,0,3,0
1532066880274,-2,-16,2,-3,-2,-2,-2,-2
1532066880279,-2,-5,-5,16,3,-1,-10,0
1532066880284,0,2,-1,-2,0,0,9,-2
1532066880289,1,-2,-1,-27,-7,-1,0,-3
1532066880294,1,8,0,14,0,-3,-1,1
1532066880299,-3,-13,1,-5,0,-1,-1,0
1532066880304,2,-1,2,-6,0,-1,-8,0
1532066880309,-2,3,3,10,-1,-2,2,0
1532066880314,2,1,-1,40,5,3,0,-1
1532066880319,-2,1,0,-20,-7,-4,-2,-1
1532066880324,0,-3,1,-7,-1,-1,-3,0
1532066880329,-1,-5,-3,15,-3,0,5,-1
1532066880334,-1,-5,-2,8,0,-2,-12,0
1532066880339,2,5,-3,6,0,0,-6,-1
1532066880344,-1,-2,1,-2,0,0,5,1
1532066880349,1,-3,2,6,-1,-2,-6,-3
1532066880354,-1,-2,0,-23,1,-1,9,0
1532066880359,1,3,6,8,-1,-1,-1,0
1532066880364,0,-1,2,6,-1,0,5,2
1532066880369,-2,-4,3,15,-1,-2,-10,-1
1532066880374,-1,1,3,-17,-4,0,-5,-1
1532066880379,-1,1,-1,-3,0,-1,3,-1
1532066880384,-1,-2,-2,11,1,-2,1,-4
1532066880389,-1,-2,-3,-3,0,0,-11,1
1532066880394,-1,-1,0,-1,1,0,9,1
1532066880399,-1,-1,-3,1,-3,1,3,-2
1532066880404,-1,0,-7,-12,2,0,-2,1
1532066880409,1,-1,-8,5,0,-1,13,4
1532066880414,-4,-3,2,-13,-7,-4,-22,-13
1532066880419,0,2,3,12,5,2,1,0
1532066880424,0,0,4,18,-2,-2,-5,-2
1532066880429,-1,-1,2,-47,-4,-1,4,-3
1532066880434,0,0,-11,16,0,-2,4,0
1532066880439,0,2,-2,-17,-1,0,4,0
1532066880444,-3,-4,-8,6,-3,-2,-6,-2
1532066880449,-1,-1,4,-7,-1,-2,-4,3
1532066880454,0,1,8,-1,-2,-3,-6,1
1532066880459,1,1,2,4,0,0,0,-1
1532066880464,-1,-2,1,-4,0,0,-4,0
1532066880469,-1,-2,5,-2,-1,1,7,-1
1532066880474,1,1,6,-9,4,1,-1,-1
1532066880479,-4,-4,0,-16,-8,-3,-4,-3
1532066880484,-2,-3,2,2,-5,0,-2,-1
1532066880489,1,-1,-2,5,4,-2,4,-1
1532066880494,0,-1,-1,7,0,-2,1,-1
1532066880499,-1,-1,0,13,1,0,1,1
1532066880504,-1,1,-2,-2,-1,-1,-11,-2
1532066880509,0,0,-4,-8,-3,-3,8,-2
1532066880514,0,0,0,-16,-2,1,-1,2
1532066880519,0,-3,1,17,1,-1,7,5
1532066880524,-2,-1,4,-2,0,-1,-11,-3
1532066880529,2,1,5,14,5,2,-4,-2
1532066880534,-2,-3,0,6,2,0,2,0
1532066880539,-1,0,5,-10,-6,-2,1,1
1532066880544,1,1,8,18,-3,-1,6,0
1532066880549,-3,-2,-3,-8,-1,0,-6,-2
1532066880554,-2,-1,1,12,-1,0,1,4
1532066880559,-3,-2,-4,4,2,0,-5,-3
1532066880564,0,0,3,10,-5,-4,5,1
1532066880569,0,-1,3,-39,-1,-3,-2,-3
1532066880574,0,0,6,-4,-2,0,1,2
1532066880579,0,1,0,18,6,-2,-2,-3
1532066880584,-1,-2,3,-3,-2,0,2,0
1532066880589,-1,0,4,30,3,0,3,3
1532066880594,0,-1,-3,-25,-4,-2,-1,-1
1532066880599,2,-2,4,-21,-4,-1,0,-2
1532066880604,-3,-2,-3,19,3,-2,-4,-1
1532066880609,0,0,2,-15,1,2,-1,-1
1532066880614,-1,0,1,16,2,0,2,0
1532066880619,-2,-2,4,-2,-5,-3,-7,-1
1532066880624,-2,-2,-5,-27,1,0,2,-1
1532066880629,-1,-1,-1,37,-2,-1,-2,-1
1532066880634,1,2,3,-32,-2,2,1,-4
1532066880639,-1,-1,-1,-6,2,0,2,0
1532066880644,-2,-4,-2,0,-2,0,-2,-2
1532066880649,-2,-1,0,6,2,1,-2,-2
1532066880654,-1,-2,-4,2,2,-2,-1,-1
1532066880659,-3,-3,-6,-13,-6,-1,-4,-1
1532066880664,0,0,2,-1,1,0,1,1
1532066880669,1,0,3,-8,1,0,-2,-3
1532066880674,0,-4,2,2,-1,-1,-1,-2
1532066880679,0,0,4,2,-1,1,0,-2
1532066880684,0,0,2,-15,2,-3,-2,-2
1532066880689,-1,-3,-4,3,-2,-2,-15,-2
1532066880694,-1,-1,2,12,-2,1,17,4
1532066880699,0,0,2,-1,1,0,-4,-2
1532066880704,1,2,-2,-6,-4,0,-1,0
1532066880709,-1,-1,3,2,-1,0,1,0
1532066880714,-1,-1,-4,-1,-1,-1,-4,-3
1532066880719,-1,0,-1,2,1,-1,0,-1
1532066880724,0,0,6,-5,0,1,5,-1
1532066880729,-2,0,0,1,-4,-2,-7,-1
1532066880734,-3,-2,1,0,2,-3,-4,2
1532066880739,1,1,4,18,-7,0,4,-2
1532066880744,0,-2,1,-20,-3,-2,-2,0
1532066880749,-1,0,1,-8,0,2,8,0
1532066880754,-1,-1,-3,13,-2,-2,-14,-2
1532066880759,0,0,-2,-12,0,-1,8,0
1532066880764,1,0,-4,2,0,-1,-7,-1
1532066880769,0,0,3,8,-2,0,8,0
1532066880774,-3,-4,-8,-21,-7,1,19,2
1532066880779,-2,-1,-2,-4,1,-2,-22,-4
1532066880784,-1,-2,-1,5,1,0,2,-1
1532066880789,-1,-2,-3,-11,-1,-2,-3,-2
1532066880794,1,2,0,17,4,0,-4,-3
1532066880799,0,0,-3,10,0,-2,2,-1
1532066880804,-1,-1,-2,-23,-4,2,1,-1
1532066880809,-3,-2,-8,2,-1,-2,-4,0
1532066880814,-1,0,5,-6,-4,0,-3,1
1532066880819,-1,-1,-5,10,6,0,4,2
1532066880824,2,0,2,-2,3,1,-3,0
1532066880829,-2,0,2,3,-4,0,-7,-2
1532066880834,-2,-3,-3,-11,-1,-1,7,1
1532066880839,1,0,0,-4,1,0,-3,0
1532066880844,-1,1,2,5,0,1,4,0
1532066880849,0,-1,1,-6,-2,-3,-2,-1
1532066880854,0,-1,2,-4,2,2,-6,-3
1532066880859,0,0,2,-6,-2,-2,4,2
1532066880864,-2,-2,2,0,2,0,0,-2
1532066880869,-4,-3,7,12,-1,0,1,0
1532066880874,0,0,1,-5,2,-2,-3,-2
1532066880879,-2,0,3,26,-8,-1,-4,1
1532066880884,-2,-3,-1,-13,0,-3,-6,0
1532066880889,1,1,3,-10,-1,2,3,0
1532066880894,-2,0,-5,10,-3,-1,-2,-2
1532066880899,1,0,-1,-15,6,0,0,-3
1532066880904,-4,-3,-10,4,-7,-5,-8,-2
1532066880909,2,1,1,-13,1,-2,11,-1
1532066880914,0,0,3,17,0,0,-5,1
1532066880919,-2,-3,-3,-14,-1,0,-2,0
1532066880924,2,2,7,-21,0,2,0,-1
1532066880929,-4,-2,-3,14,-2,-2,-4,1
1532066880934,1,3,2,-12,1,1,1,-1
1532066880939,-2,-2,3,-6,2,-3,-2,-1
1532066880944,-1,1,1,30,1,0,3,-1
1532066880949,3,2,4,-10,7,1,1,-4
1532066880954,-5,-7,-2,-4,-12,-5,-5,0
1532066880959,-1,1,2,-17,1,0,-3,0
1532066880964,-2,-3,-2,-3,-3,-3,1,-2
1532066880969,0,-3,-2,-19,-1,-1,1,0
1532066880974,0,2,4,3,0,0,0,0
1532066880979,0,0,0,7,-2,1,1,1
1532066880984,-1,1,2,12,2,-1,-1,-1
1532066880989,1,1,-5,-4,-1,1,-1,-3
1532066880994,-1,0,-2,-16,0,0,-2,0
1532066880999,-2,-4,-5,3,-4,-1,-2,2
1532066881004,2,2,2,5,1,0,3,1
1532066881009,-1,0,3,2,-4,-3,-3,0
1532066881014,0,1,4,-3,3,0,0,-1
1532066881019,0,0,4,-1,0,-1,-1,1
1532066881024,-1,-2,2,1,-3,0,-2,-1
1532066881029,2,1,3,-17,4,0,2,0
1532066881034,-4,-3,-1,11,-5,-3,-2,1
1532066881039,-2,-2,5,-26,-4,-2,3,-1
1532066881044,1,-2,-3,-32,0,0,2,0
1532066881049,-3,-5,-1,52,-4,-4,-6,-1
1532066881054,0,4,6,0,7,2,-1,2
1532066881059,-3,-1,-1,7,-9,-1,-1,-2
1532066881064,0,0,1,0,1,-1,1,1
1532066881069,0,-1,0,-11,0,-1,-4,-3
1532066881074,0,-4,1,-8,-6,-1,5,-4
1532066881079,-2,-2,2,10,3,-2,-9,-2
1532066881084,-2,-1,8,-7,1,0,4,3
1532066881089,-1,-2,-2,6,-5,0,1,0
1532066881094,2,2,1,-3,3,0,-4,-2
1532066881099,0,2,-1,-7,2,0,11,1
1532066881104,-2,-4,-6,3,-5,-1,-3,-3
1532066881109,-4,0,1,16,3,-1,-1,-2
1532066881114,0,-3,-3,-6,1,0,-6,0
1532066881119,3,1,4,9,0,-1,-2,-1
1532066881124,-3,-2,-1,4,-3,-2,-4,-2
1532066881129,-1,-3,-11,-10,-1,-2,-2,-3
1532066881134,-1,2,-3,7,-2,-3,-2,-4
1532066881139,0,-2,-9,19,2,2,6,3
1532066881144,-3,-2,0,6,-1,-5,-10,-2
1532066881149,0,-1,2,-14,-1,1,4,-1
1532066881154,0,-2,-4,-1,-1,-1,-5,-1
1532066881159,0,0,-1,23,-3,0,-6,-2
1532066881164,0,0,-7,1,0,1,15,1
1532066881169,-3,-2,0,-14,-4,-1,-6,0
1532066881174,0,1,-3,15,2,-2,4,-1
1532066881179,0,-1,-1,-18,-3,0,-3,-2
1532066881184,0,1,-2,3,-1,0,-5,0
1532066881189,0,3,2,-2,0,-1,-1,0
1532066881194,-2,-3,-2,5,-3,0,2,-1
1532066881199,-1,-1,-1,-10,3,-3,0,-1
1532066881204,1,0,0,19,1,0,-4,-2
1532066881209,1,-2,-1,7,-2,0,4,2
1532066881214,-1,-3,-7,0,-5,-1,-12,0
1532066881219,-2,0,3,-3,-2,0,2,-3
1532066881224,2,-1,6,-4,-1,-1,1,0
1532066881229,-3,-2,5,21,-4,-1,-3,-2
1532066881234,-2,-3,1,10,-2,0,2,1
1532066881239,-1,1,-3,-1,1,-2,-5,-2
1532066881244,1,1,-6,-5,1,1,10,1
1532066881249,-1,-1,-4,8,-1,0,-3,0
1532066881254,0,1,2,1,2,-1,0,-2
1532066881259,-1,-2,-9,-53,-4,-2,-1,0
1532066881264,0,-1,-3,0,1,-1,-6,-3
1532066881269,-1,-1,1,16,-5,-2,0,-1
1532066881274,0,0,4,-26,-1,2,-1,-3
1532066881279,-3,-3,2,14,1,-2,-2,-2
1532066881284,0,0,2,9,0,-1,-3,-1
1532066881289,2,0,5,-24,1,-1,-3,0
1532066881294,-1,-2,7,19,2,-2,1,0
1532066881299,-2,-3,-2,-17,-11,-1,-1,-1
1532066881304,-3,0,-7,-17,-1,1,-1,0
1532066881309,1,0,-4,-2,-2,-1,0,-2
1532066881314,-1,0,-2,1,0,-2,7,-1
1532066881319,0,0,-7,-2,3,0,0,-1
1532066881324,0,1,1,-7,2,-1,-3,-3
1532066881329,-2,-2,0,-32,-5,-2,-1,1
1532066881334,-3,-2,4,-14,-3,0,-1,0
1532066881339,0,0,1,35,2,1,0,-2
1532066881344,0,1,1,-12,2,0,3,-1
1532066881349,-4,0,-5,27,8,1,3,0
1532066881354,0,-1,-4,-19,-1,0,-2,0
1532066881359,1,1,1,-6,-2,2,4,1
1532066881364,0,-1,0,-7,-3,0,-7,-2
1532066881369,1,-1,-2,-14,-3,-1,-1,-2
1532066881374,-1,1,5,19,-4,-1,-3,-1
1532066881379,-2,-2,5,4,1,-1,-3,0
1532066881384,0,0,4,-7,-3,1,4,1
1532066881389,-1,-2,0,-24,-1,-2,-8,0
1532066881394,-1,0,0,23,2,-1,4,-1
1532066881399,-1,-1,1,-10,2,-1,-2,-1
1532066881404,-2,-1,-1,7,-2,0,-1,0
1532066881409,-1,-1,4,3,2,1,2,-2
1532066881414,1,1,3,-3,1,1,-2,0
1532066881419,-1,0,-3,14,-1,-2,-1,0
1532066881424,-1,-2,-1,1,-4,-1,-13,0
1532066881429,-2,1,1,6,-4,-1,9,0
1532066881434,0,-4,0,-32,-2,-3,-6,-1
1532066881439,-1,0,3,11,-4,-2,0,-2
1532066881444,1,1,6,-8,0,1,0,1
1532066881449,0,0,5,13,4,0,-2,0
1532066881454,-4,-3,-4,-29,-6,-1,-1,-3
1532066881459,-1,-1,1,-18,1,-1,1,1
1532066881464,-1,-2,3,12,1,-2,-1,-1
1532066881469,1,1,1,-12,0,2,0,-1
1532066881474,0,0,-1,10,0,-1,-1,1
1532066881479,0,0,-2,-5,1,0,-3,-2
1532066881484,-2,-1,-1,13,0,-3,-2,-3
1532066881489,2,-1,-3,-4,0,1,0,1
1532066881494,-3,-2,-5,3,-3,-1,-3,-1
1532066881499,-1,1,5,8,-2,-1,-1,-1
1532066881504,-1,-2,-2,-1,0,-4,1,1
1532066881509,-1,-1,0,5,-2,-1,-3,-2
1532066881514,2,0,3,-2,0,0,2,-1
1532066881519,0,0,-5,0,2,0,-8,-1
1532066881524,-5,-6,-6,-18,-5,-6,4,-1
1532066881529,-1,1,-2,-3,0,0,-4,2
1532066881534,0,0,1,13,2,0,5,-2
1532066881539,0,-2,-1,2,-1,0,1,-3
1532066881544,1,0,-1,8,0,1,-2,-1
1532066881549,0,-1,-3,7,0,-3,-2,-1
1532066881554,0,-1,-2,-18,-1,2,-3,1
1532066881559,0,-1,3,7,-2,-1,1,-2
1532066881564,-1,1,-6,9,-3,-1,1,-1
1532066881569,-1,-1,-2,-10,-2,-2,-6,-3
1532066881574,-1,-1,0,14,-2,-3,-1,-1
1532066881579,0,0,1,-7,0,-2,-1,0
1532066881584,1,1,1,-6,4,1,2,-2
1532066881589,-2,-1,2,8,-6,-1,1,1
1532066881594,0,0,0,1,1,-2,-1,-3
1532066881599,-1,-1,3,2,-3,0,-6,0
1532066881604,0,-2,2,-8,1,1,3,-2
1532066881609,0,1,2,8,-2,1,3,-1
1532066881614,0,0,-2,9,1,0,-3,1
1532066881619,0,1,-2,-45,-3,0,3,-1
1532066881624,-3,-3,1,-15,-5,-1,-5,-1
1532066881629,-1,-3,-2,-5,-2,-2,-3,1
1532066881634,-2,-1,-2,6,-2,0,1,-1
1532066881639,-2,-1,1,29,1,0,-4,-1
1532066881644,2,0,-1,-18,0,0,5,0
1532066881649,-2,-2,-1,17,0,-2,-8,-2
1532066881654,-4,-2,-1,8,-4,-3,9,3
1532066881659,0,0,1,-4,0,-2,-2,-2
1532066881664,-3,0,3,18,0,-1,-2,0
1532066881669,1,0,-2,-15,0,1,2,1
1532066881674,-1,0,3,21,1,0,-4,0
1532066881679,0,-2,-1,-15,-3,-1,-1,-1
1532066881684,-1,-1,-2,7,-1,-1,-2,0
1532066881689,-1,0,-1,2,-2,-2,1,0
1532066881694,1,0,1,0,0,0,-4,-3
1532066881699,0,1,0,6,-1,0,1,-1
1532066881704,-4,-4,-1,-4,-3,-1,-3,0
1532066881709,-1,0,-3,6,-1,-1,1,0
1532066881714,1,0,2,-4,3,1,-2,-1
1532066881719,-1,-4,1,7,-3,-1,-5,-1
1532066881724,1,1,-5,-20,1,-3,6,-2
1532066881729,-4,-5,-1,8,-3,-2,0,-1
1532066881734,1,1,3,15,-1,-2,-4,-1
1532066881739,0,0,-4,-8,2,-1,2,1
1532066881744,-1,1,1,16,1,0,-4,-3
1532066881749,-3,-4,-4,-40,-7,-2,-1,-1
1532066881754,1,2,0,-16,1,0,-1,0
1532066881759,-1,-3,-2,5,0,0,-2,2
1532066881764,-1,0,4,-5,-2,0,0,-3
1532066881769,1,2,0,21,1,-1,1,0
1532066881774,0,-4,1,-3,-1,-1,-5,-2
1532066881779,-3,-1,3,7,0,1,0,-2
1532066881784,0,1,0,-14,1,1,3,0
1532066881789,0,0,1,34,0,-1,-4,-2
1532066881794,-6,-3,0,18,-2,-2,-3,-1
1532066881799,-1,-1,1,-10,-1,-1,-1,-1
1532066881804,-1,-2,-1,1,-2,0,-11,-1
1532066881809,-2,0,2,-3,1,-1,12,1
1532066881814,1,2,-1,10,2,0,-1,-1
1532066881819,0,1,0,-10,-2,-2,4,0
1532066881824,-1,0,3,1,2,0,-11,-3
1532066881829,-1,-2,-3,-11,-4,-2,0,0
1532066881834,-1,-3,-2,-6,-6,-4,-2,-1
1532066881839,-2,-1,-3,16,1,0,2,-2
1532066881844,0,-5,-7,-35,-2,-1,-2,-1
1532066881849,-1,2,1,12,0,-1,-3,0
