1532162674583,-3,-3,-2,7,0,-9,-34,-9
1532162674588,-3,0,-1,-10,-5,-1,17,-5
1532162674593,-2,3,1,5,3,1,35,1
1532162674598,-3,-2,1,7,1,-8,-17,-4
1532162674603,-3,2,-4,-5,-5,-7,5,-12
1532162674608,-8,-3,-8,-12,-8,-3,33,-3
1532162674613,3,0,2,-1,0,0,-16,-1
1532162674618,-1,-1,2,9,6,-5,0,-1
1532162674623,2,-1,-2,-8,-4,-2,-31,-2
1532162674628,3,4,-4,-1,-2,-2,-6,-1
1532162674633,-17,-6,-2,1,1,0,17,-3
1532162674638,22,7,2,5,5,2,-36,0
1532162674643,10,-1,1,0,-1,1,13,0
1532162674648,-14,-1,1,11,9,3,13,-2
1532162674653,5,-5,-4,-9,-3,0,-11,-3
1532162674658,-8,-2,-3,-8,-11,-3,5,-1
1532162674663,-3,-4,-3,0,1,-3,12,-2
1532162674668,3,1,-2,1,-1,0,0,-1
1532162674673,10,3,2,9,7,1,2,0
1532162674678,-6,-2,0,-4,1,2,-2,-1
1532162674683,2,0,1,0,-3,-1,-5,-3
1532162674688,-7,0,-3,-1,-2,0,-18,-1
1532162674693,-3,0,-2,3,3,-2,2,0
1532162674698,0,-2,-3,-2,-1,2,-3,-3
1532162674703,-6,-3,0,1,-4,-2,11,1
1532162674708,-1,0,0,-7,0,1,-1,-3
1532162674713,2,-1,-1,3,3,1,-2,-1
1532162674718,-1,-1,-2,0,-1,-2,2,2
1532162674723,-5,-1,0,0,-1,-2,5,-3
1532162674728,-1,-1,0,0,-1,0,-3,0
1532162674733,3,-2,-2,-10,-6,-4,2,-1
1532162674738,-6,-2,0,1,0,-5,-6,-1
1532162674743,-4,-1,2,0,1,-2,5,-2
1532162674748,4,0,0,1,-2,-1,-1,-1
1532162674753,0,-1,3,11,7,8,4,2
1532162674758,-2,2,-2,-7,-1,-3,-1,-1
1532162674763,0,0,-6,-10,-12,-3,19,-1
1532162674768,0,-2,-1,-2,0,-3,10,1
1532162674773,1,2,-1,0,-2,-3,16,-1
1532162674778,-5,-2,3,5,4,1,49,0
1532162674783,1,0,-1,3,2,0,86,1
1532162674788,-1,-2,-1,-3,-2,-8,68,-1
1532162674793,-1,0,-1,0,-2,13,21,-1
1532162674798,-2,-3,0,-4,-1,-6,-56,-1
1532162674803,-2,-1,-2,0,1,-4,-68,-1
1532162674808,0,0,0,1,2,-4,-25,-1
1532162674813,11,0,-1,1,-2,0,12,0
1532162674818,-7,0,-1,-3,-1,2,18,0
1532162674823,-6,-2,-1,1,3,4,-21,-3
1532162674828,2,1,3,-4,-2,-1,-57,0
1532162674833,-3,-1,-9,-5,-4,-5,-61,-2
1532162674838,10,-4,0,1,-2,1,-39,0
1532162674843,0,0,-1,0,1,-2,-42,1
1532162674848,-5,-1,4,6,1,2,-53,-1
1532162674853,-2,-2,0,-7,-3,-3,-46,0
1532162674858,1,-1,1,-1,-4,2,-31,1
1532162674863,0,-1,0,1,-1,-5,-20,0
1532162674868,0,0,5,-4,-3,-2,-6,-4
1532162674873,-3,1,-5,4,1,6,19,-2
1532162674878,-2,-3,-3,3,4,-2,25,0
1532162674883,1,0,2,9,3,6,28,-1
1532162674888,12,-2,-4,-7,-2,0,21,3
1532162674893,-14,-3,-4,-5,-5,-4,21,-3
1532162674898,-4,3,2,-1,-4,-2,18,-3
1532162674903,2,-3,-6,-1,-2,-11,24,0
1532162674908,-3,-1,0,2,6,26,28,1
1532162674913,3,-1,0,-2,-1,-1,13,1
1532162674918,1,-3,0,3,2,1,9,-2
1532162674923,-6,-1,-1,-3,-2,3,-5,-2
1532162674928,0,-1,-3,-1,-4,-9,-3,-2
1532162674933,1,1,8,1,-1,-5,-3,-1
1532162674938,-2,-5,-11,-2,-1,8,1,0
1532162674943,1,-1,1,-1,2,3,3,1
1532162674948,-10,-4,-3,-2,-2,-10,4,-3
1532162674953,-1,-4,3,-1,-2,-4,11,-2
1532162674958,-2,6,5,3,0,-2,4,-2
1532162674963,-17,0,-2,-8,-2,-2,7,0
1532162674968,18,2,-4,-2,-3,7,7,1
1532162674973,-3,-4,-3,9,6,-3,3,0
1532162674978,17,0,4,-2,-1,3,-3,-2
1532162674983,-20,-8,-4,2,1,-3,-2,-4
1532162674988,-2,10,-3,-3,0,34,1,1
1532162674993,-18,-3,23,-5,-6,-44,-9,-4
1532162674998,10,-7,-36,-2,-3,7,-6,0
1532162675003,15,9,11,13,12,22,-9,1
1532162675008,-12,-7,-9,-11,-6,-14,-16,-4
1532162675013,11,-2,-2,1,-1,14,-4,1
1532162675018,-11,1,4,-1,-7,-14,-3,-2
1532162675023,-9,-6,-5,-10,-8,-12,0,-1
1532162675028,11,3,-1,4,7,1,2,0
1532162675033,1,4,-2,-4,0,2,3,-4
1532162675038,-6,-1,5,-6,-5,2,5,1
1532162675043,0,0,-4,-2,-5,-1,5,-1
1532162675048,-6,1,11,1,2,-6,4,-2
1532162675053,0,-7,-18,-5,-2,0,4,1
1532162675058,-2,3,18,5,4,-5,-1,-3
1532162675063,11,3,-10,1,2,6,6,3
1532162675068,-14,-4,-1,-3,0,-11,0,-2
1532162675073,2,0,-2,0,-2,5,0,-2
1532162675078,-2,1,-1,-2,-2,3,-1,-1
1532162675083,4,1,2,-1,-1,-6,0,1
1532162675088,3,-3,1,8,-3,-5,1,3
1532162675093,-3,4,1,5,5,7,-3,1
1532162675098,-4,-3,-7,-15,-7,-4,-5,0
1532162675103,1,-2,1,-6,-5,-4,0,0
1532162675108,-4,-2,1,-1,1,-4,-3,-4
1532162675113,3,-2,-5,6,1,1,-2,0
1532162675118,1,0,5,3,6,1,2,1
1532162675123,2,-3,-1,4,-2,2,-1,-1
1532162675128,-4,-2,-6,-7,-10,-4,0,-2
1532162675133,-1,1,-1,0,2,-3,-5,-4
1532162675138,-3,-1,1,3,-2,-4,-1,-1
1532162675143,0,1,4,16,9,2,0,2
1532162675148,3,-1,1,-14,-3,1,-2,-1
1532162675153,0,-1,-5,-8,-7,-1,-1,4
1532162675158,-3,-1,-4,-9,-4,-1,0,-3
1532162675163,0,-4,-2,-9,-8,-3,-5,-6
1532162675168,0,0,0,7,4,-5,1,3
1532162675173,1,0,1,1,1,1,1,1
1532162675178,-2,2,4,5,7,4,2,-6
1532162675183,-2,0,0,2,0,-2,-6,-17
1532162675188,-2,-4,-8,-7,-2,-3,-2,12
1532162675193,0,1,-3,-8,-3,0,4,11
1532162675198,0,-2,-1,8,-1,-2,0,16
1532162675203,3,3,3,-5,1,1,3,-4
1532162675208,-1,-1,1,12,6,1,-3,-20
1532162675213,-1,-1,-1,-6,-1,0,2,-2
1532162675218,-1,0,2,8,7,0,1,-3
1532162675223,2,-5,-8,-16,-12,-7,-2,11
1532162675228,-4,-3,-6,-6,-8,-1,-3,-5
1532162675233,1,-2,0,2,4,7,3,-1
1532162675238,14,-1,-1,-1,0,-2,-1,-7
1532162675243,-21,-1,4,5,6,-2,4,3
1532162675248,-6,-4,0,5,1,3,-3,3
1532162675253,4,-1,2,-8,-7,-7,-3,-7
1532162675258,7,5,-2,3,10,16,4,2
1532162675263,7,-2,-6,-5,-13,-4,-5,-3
1532162675268,-8,-3,1,0,0,-8,6,8
1532162675273,-19,-4,-2,2,-3,-10,-10,-9
1532162675278,-12,-2,-2,-3,-5,-7,5,1
1532162675283,20,3,2,-2,13,16,-1,4
1532162675288,6,-1,0,7,3,-1,3,-5
1532162675293,6,1,-2,-4,-4,-7,-3,2
1532162675298,-12,-5,-3,-5,-7,-3,-4,-3
1532162675303,-2,1,3,3,-1,-4,6,2
1532162675308,0,-1,-2,9,5,0,0,0
1532162675313,7,3,-1,-7,-1,7,-4,1
1532162675318,-8,-1,-1,-5,-9,-12,-3,-3
1532162675323,-1,-6,-9,-2,-2,17,8,-1
1532162675328,10,1,3,1,4,-10,-6,-1
1532162675333,-7,3,7,13,5,9,4,0
1532162675338,1,0,-1,11,3,-2,-6,-2
1532162675343,-1,-1,-3,-25,-6,-8,-5,-3
1532162675348,-4,2,-2,-4,-9,3,-3,-2
1532162675353,2,-4,-7,-8,-10,-2,0,-1
1532162675358,0,-1,-1,-1,1,-5,-4,-2
1532162675363,1,1,6,16,5,-1,-4,0
1532162675368,-4,0,3,-4,0,3,4,0
1532162675373,1,2,1,11,8,1,-2,0
1532162675378,4,-1,-4,-8,-6,3,-2,-1
1532162675383,-6,-2,-4,5,1,-7,-1,-2
1532162675388,2,0,-3,-13,-5,-4,-4,0
1532162675393,-2,-1,3,4,-6,-3,-2,0
1532162675398,-3,-2,-4,-8,1,3,-1,0
1532162675403,-1,2,1,8,1,-4,-2,-2
1532162675408,-1,-3,-1,0,3,-1,0,-9
1532162675413,4,1,-3,-11,-5,2,1,7
1532162675418,1,0,3,6,-1,-2,0,8
1532162675423,0,0,0,-1,6,-2,0,-1
1532162675428,0,-3,-4,-5,-10,-3,-2,-2
1532162675433,-4,-1,-2,0,-1,-1,-1,-9
1532162675438,-1,-1,-1,4,7,-5,-4,-2
1532162675443,0,3,10,-7,-7,0,1,1
1532162675448,-1,-3,-7,-1,0,0,0,2
1532162675453,-4,-5,-4,-4,1,-1,-3,-2
1532162675458,-2,-2,0,0,-1,0,-1,-1
1532162675463,2,-2,4,3,3,-2,-1,-3
1532162675468,3,3,5,4,2,2,2,5
1532162675473,2,0,-2,4,-1,-4,-3,2
1532162675478,-2,-5,-7,-8,-1,-1,-1,-5
1532162675483,-5,-4,-8,-12,-9,-3,-2,-4
1532162675488,-1,2,2,-3,-10,1,0,0
1532162675493,-1,-2,3,9,11,1,1,0
1532162675498,-3,0,2,-4,-7,-2,-2,-2
1532162675503,0,-1,-1,1,4,0,-2,3
1532162675508,2,-1,-3,-6,-4,1,0,-1
1532162675513,8,0,-2,-2,-1,-1,0,-1
1532162675518,-9,-2,-1,0,2,-1,1,-3
1532162675523,-2,-3,-1,1,-2,-3,0,2
1532162675528,-1,4,4,1,4,1,-2,1
1532162675533,-2,-4,-10,-4,-2,0,-3,-4
1532162675538,5,-1,0,-2,-5,2,0,1
1532162675543,0,2,1,1,2,-3,-3,-2
1532162675548,-3,-2,-1,-1,-1,-2,-1,-2
1532162675553,1,2,2,1,-1,0,-2,0
1532162675558,1,0,-3,-7,-4,0,-2,-2
1532162675563,-6,-2,-1,10,-1,-2,-5,-5
1532162675568,-1,-2,-1,2,11,1,-5,1
1532162675573,2,-1,-5,-15,-15,-2,4,6
1532162675578,1,0,2,7,9,2,2,-2
1532162675583,-2,-1,-3,-13,-12,-5,1,-7
1532162675588,-4,-4,0,4,-2,-4,1,-12
1532162675593,-9,-1,-1,4,7,0,-7,-20
1532162675598,3,3,1,-1,4,-1,2,31
1532162675603,8,1,-2,-2,0,3,14,28
1532162675608,12,0,-1,-1,-2,5,8,0
1532162675613,-9,0,1,-7,-1,-3,-5,-8
1532162675618,-13,-6,-1,2,-1,-1,-9,-22
1532162675623,-2,-2,0,-3,-2,-3,-3,-10
1532162675628,-3,1,0,5,2,-2,3,1
1532162675633,4,-1,-3,-4,-2,-1,7,0
1532162675638,0,0,-2,-6,-4,-4,-3,-13
1532162675643,-4,0,-1,4,-1,-1,-2,7
1532162675648,3,0,2,11,14,1,3,-2
1532162675653,4,3,5,4,-10,3,-2,3
1532162675658,-5,-4,-6,-16,-6,-3,4,9
1532162675663,-3,-1,-3,-2,-5,1,-4,-16
1532162675668,-5,-2,-5,-6,-7,-3,-1,6
1532162675673,-2,-2,4,9,13,-1,-4,1
1532162675678,5,1,1,3,-2,1,7,3
1532162675683,2,-2,-6,-6,-3,-2,-1,2
1532162675688,-3,-1,0,2,-2,1,-7,-2
1532162675693,-4,-3,-3,-3,0,1,2,1
1532162675698,16,0,0,2,-2,0,0,-3
1532162675703,-15,0,4,8,9,3,-16,-5
1532162675708,-13,1,-1,-9,-3,-4,-21,-3
1532162675713,10,-1,-7,-13,-9,-10,6,4
1532162675718,-1,1,1,3,0,-6,-17,-4
1532162675723,11,-4,-8,-2,-4,-3,4,1
1532162675728,-3,-1,3,14,7,5,13,0
1532162675733,-11,-2,2,-3,6,3,4,-1
1532162675738,-1,-4,-9,-10,-12,-5,2,-5
1532162675743,-5,-2,1,-6,-11,-5,3,2
1532162675748,6,0,-1,0,0,3,0,2
1532162675753,2,1,2,3,0,0,-1,1
1532162675758,-3,-1,1,5,7,1,-1,-1
1532162675763,-2,0,-3,-5,-2,-1,-2,-3
1532162675768,0,-2,-3,-10,-8,-2,1,-2
1532162675773,0,-2,2,7,3,0,2,3
1532162675778,-5,1,1,-1,0,2,11,-1
1532162675783,3,0,-1,3,4,2,15,0
1532162675788,2,0,-2,-2,1,-4,-10,-1
1532162675793,-3,1,-1,-1,1,-5,3,6
1532162675798,-2,0,0,-1,-6,-1,2,-3
1532162675803,2,0,1,-4,0,-1,1,-1
1532162675808,-1,-3,-3,-1,0,4,7,4
1532162675813,-3,-1,2,8,5,0,-9,-4
1532162675818,-1,-2,-2,-1,-2,0,1,1
1532162675823,-1,-1,-2,-1,1,-5,-6,-3
1532162675828,-1,1,0,-5,-7,1,7,-3
1532162675833,0,-3,-1,-3,-4,0,-15,6
1532162675838,0,2,3,5,4,3,-2,-1
1532162675843,-2,1,-1,1,0,1,-6,-4
1532162675848,-1,0,0,10,6,0,0,-3
1532162675853,0,-4,-5,-13,-7,1,12,0
1532162675858,-2,-2,-4,-1,2,-3,-9,-3
1532162675863,2,2,4,3,-1,5,4,4
1532162675868,-2,-3,-9,-19,-14,-11,-2,-1
1532162675873,-1,1,-2,-1,-6,-4,-16,-4
1532162675878,-1,1,0,-4,-2,0,-2,-1
1532162675883,1,-3,-2,5,3,8,2,2
1532162675888,-1,-1,5,6,6,-7,-12,-6
1532162675893,-1,-3,-2,-2,1,-2,-11,-3
1532162675898,-1,-2,-2,-2,-5,-2,-2,-2
1532162675903,14,3,2,-1,2,1,-2,1
1532162675908,-16,10,0,2,-2,-3,2,4
1532162675913,1,11,-2,-4,2,-1,-2,-7
1532162675918,-3,-22,-1,0,-4,6,12,1
1532162675923,-23,-40,-4,-3,-2,-10,-8,-8
1532162675928,25,-22,-2,-1,-1,1,-18,2
1532162675933,-38,-2,0,5,0,-1,12,0
1532162675938,58,11,1,-4,2,1,9,4
1532162675943,3,18,-3,-6,-4,-6,-20,-2
1532162675948,-2,-6,-2,-1,-5,8,45,-2
1532162675953,9,-9,4,5,6,-3,-25,5
1532162675958,-26,9,-2,0,1,1,5,-4
1532162675963,-4,-8,2,-3,-2,0,-18,9
1532162675968,1,10,-6,-8,-6,0,-1,2
1532162675973,12,-9,-2,-6,-2,-5,25,-14
1532162675978,-25,-3,-7,-5,-3,-12,-87,-5
1532162675983,17,45,6,12,9,4,34,11
1532162675988,-14,-33,2,-1,1,1,45,-4
1532162675993,-6,5,1,3,4,11,16,1
1532162675998,-10,3,0,-3,-5,1,33,-4
1532162676003,-22,-35,-1,-1,-1,-11,-90,-12
1532162676008,13,31,-1,0,-1,-15,-42,-5
1532162676013,-15,-18,-2,-2,3,-4,6,-1
1532162676018,26,33,9,0,6,19,38,21
1532162676023,-11,-25,-2,7,-2,0,30,-3
1532162676028,-6,13,-1,0,0,-5,-13,-9
1532162676033,6,9,-6,-14,-10,-4,-24,-1
1532162676038,-19,-2,2,16,11,0,17,0
1532162676043,5,5,-6,-20,-7,-6,19,-5
1532162676048,-3,-10,-3,-11,-15,-6,-17,-1
1532162676053,-1,4,1,9,5,8,12,3
1532162676058,-1,-17,-1,2,-3,-11,5,-10
1532162676063,18,11,3,6,6,8,22,6
1532162676068,6,16,2,1,4,1,-5,1
1532162676073,0,2,1,11,4,-5,-1,1
1532162676078,-2,-6,-3,-17,-12,7,-34,-7
1532162676083,-20,-10,-7,-8,-1,-17,-29,-10
1532162676088,-5,-6,1,0,2,9,-10,2
1532162676093,3,-6,0,0,-4,14,13,3
1532162676098,3,7,3,12,13,-12,-7,0
1532162676103,3,6,0,-7,-11,1,14,-4
1532162676108,-4,-9,-3,0,-4,1,2,0
1532162676113,4,6,-5,-7,-7,-5,-2,-2
1532162676118,0,-5,-1,0,2,4,-36,-1
1532162676123,0,7,0,0,-2,0,-1,-4
1532162676128,-5,-1,1,4,5,2,1,1
1532162676133,8,-2,-2,-2,-1,-13,-2,-4
1532162676138,-6,-7,-2,-2,1,23,1,0
1532162676143,-1,-2,0,-2,-4,-7,-4,-1
1532162676148,0,1,0,-5,4,4,-1,-3
1532162676153,2,-1,0,-1,3,9,42,9
1532162676158,0,-5,-6,-10,-15,-24,4,-1
1532162676163,2,6,1,5,5,34,13,0
1532162676168,2,-1,-3,0,-3,-7,6,2
1532162676173,-3,0,-4,-10,-6,-25,-16,-4
1532162676178,-4,-2,3,2,3,-3,6,-2
1532162676183,5,4,1,3,2,2,4,0
1532162676188,-1,-2,0,-3,2,9,-8,-5
1532162676193,1,-1,3,2,4,4,-25,5
1532162676198,3,-3,-4,6,4,-1,21,0
1532162676203,-5,-4,-4,-15,-16,-7,2,-8
1532162676208,-4,-4,-7,-4,-2,3,43,4
1532162676213,2,4,8,7,4,-2,-28,-1
1532162676218,0,-3,-8,0,0,-3,5,2
1532162676223,3,6,4,12,4,-3,-41,-3
1532162676228,-4,-7,4,-11,0,10,61,5
1532162676233,-1,-4,-17,-5,-11,-2,-29,-13
1532162676238,1,2,5,4,-1,-5,32,6
1532162676243,-4,-3,0,-4,-4,-7,3,-3
1532162676248,-2,1,1,6,8,1,-38,-2
1532162676253,1,0,2,5,-6,8,11,0
1532162676258,0,1,2,-6,-7,-11,-3,1
1532162676263,0,-3,-7,-6,-1,4,13,0
1532162676268,0,-1,0,1,-4,-4,-21,-1
1532162676273,0,-2,9,1,4,15,102,2
1532162676278,-2,1,-6,11,10,-20,-35,-4
1532162676283,0,-4,-1,2,0,-5,11,8
1532162676288,-1,1,-9,-2,-1,-2,-29,-1
1532162676293,0,-3,6,-5,-1,-6,51,1
1532162676298,-5,-6,10,15,14,15,-27,-15
1532162676303,5,3,-8,-9,-5,15,18,14
1532162676308,3,-2,-15,-3,-9,-7,18,2
1532162676313,2,3,5,7,3,-1,-31,-6
1532162676318,-2,-1,-4,-26,-14,17,-2,-1
1532162676323,-1,-1,5,6,9,-24,5,-8
1532162676328,-1,0,7,0,-4,3,-4,-2
1532162676333,-2,-3,-7,-2,-7,-31,-29,0
1532162676338,1,-3,0,4,-1,74,24,-2
1532162676343,-4,-3,0,9,28,-2,-10,-4
1532162676348,2,0,0,-1,-6,-67,-12,4
1532162676353,-4,-6,-14,-12,9,-19,-18,-4
1532162676358,-3,2,2,-3,-7,34,-3,0
1532162676363,-2,0,1,-1,-11,1,-11,-6
1532162676368,1,5,12,10,4,20,0,-1
1532162676373,-2,-5,-12,-2,-3,9,-4,1
1532162676378,1,-4,2,-7,-10,-77,-5,3
1532162676383,-2,-1,-6,1,17,16,5,4
1532162676388,-4,-2,7,6,-13,-113,-11,-6
1532162676393,6,4,-1,-1,19,127,11,9
1532162676398,-1,-2,-7,-3,-2,-128,-5,-2
1532162676403,1,1,1,4,5,37,6,-1
1532162676408,-2,-1,-2,-2,2,79,-10,-2
1532162676413,-3,-5,-2,-4,-21,-59,-21,-5
1532162676418,2,5,-1,3,-8,-98,-17,-1
1532162676423,2,3,8,8,12,59,12,2
1532162676428,-1,-4,-9,-8,-12,-19,-12,-2
1532162676433,-2,-1,-4,-14,0,85,5,-2
1532162676438,-3,0,1,-3,-10,74,6,-2
1532162676443,-4,-5,-9,-8,-22,-100,-18,-5
1532162676448,2,8,6,7,28,95,15,2
1532162676453,1,4,3,-5,-10,-98,-18,-3
1532162676458,0,-3,-2,12,16,-29,4,5
1532162676463,-4,-6,3,-9,-13,62,-5,-2
1532162676468,0,1,2,-3,-12,-30,-6,-5
1532162676473,-1,0,-3,-11,-21,-84,-28,-3
1532162676478,-1,1,2,-3,2,45,-10,-4
1532162676483,0,-2,11,4,4,-52,-11,2
1532162676488,-2,-3,-7,-5,1,83,-28,-2
1532162676493,5,2,6,14,20,3,-24,7
1532162676498,-2,-7,-2,-13,-14,33,-1,-2
1532162676503,-2,-4,2,3,4,-95,7,0
1532162676508,3,-1,-2,-3,-8,-41,-1,2
1532162676513,-2,-1,-10,8,3,40,4,-2
1532162676518,4,4,7,6,16,32,23,3
1532162676523,-1,2,-2,-6,-7,58,14,-2
1532162676528,0,3,-18,-1,7,-107,10,3
1532162676533,-3,3,3,-5,-7,-19,-11,-3
1532162676538,0,-7,-5,-7,-7,33,-2,0
1532162676543,1,1,-15,-6,-12,-4,-1,-1
1532162676548,0,-3,-7,-5,-3,7,3,-3
1532162676553,1,-3,8,9,11,61,20,3
1532162676558,-1,5,9,8,9,39,4,-2
1532162676563,-6,-10,3,-5,-2,38,1,-1
1532162676568,-6,0,4,1,5,-1,-3,-8
1532162676573,8,3,14,-4,-11,-53,-12,-4
1532162676578,-2,2,-4,-2,6,71,7,2
1532162676583,6,1,7,0,3,-51,-7,-1
1532162676588,-12,-7,-9,9,-16,-77,-14,-3
1532162676593,-6,-6,-11,-13,-1,48,11,0
1532162676598,8,5,-12,-7,2,-17,1,1
1532162676603,-22,-3,16,3,-9,14,-7,-5
1532162676608,8,4,3,-3,1,10,0,1
1532162676613,2,-6,-9,-2,-18,-39,-4,0
1532162676618,-3,3,6,14,17,-50,-5,2
1532162676623,-3,2,6,-12,-15,-11,-2,-7
1532162676628,10,2,2,0,14,13,4,7
1532162676633,-5,1,-12,-2,-17,-58,-11,-2
1532162676638,-1,-4,0,-1,4,-1,-1,-2
1532162676643,-2,1,-14,-4,-19,-58,-11,-5
1532162676648,1,0,-14,-2,-8,38,-2,-1
1532162676653,0,1,12,9,19,-8,9,4
1532162676658,-7,-2,8,-6,-21,-49,-13,-6
1532162676663,7,-3,5,5,22,19,12,3
1532162676668,-5,-3,-7,-6,7,35,12,1
1532162676673,-1,-7,-17,-7,-8,33,-23,-8
1532162676678,-13,1,-5,4,5,-40,8,2
1532162676683,10,-2,9,0,-3,-22,-7,-4
1532162676688,-1,-4,-17,-11,-19,35,-13,-5
1532162676693,-3,-1,9,2,1,-78,7,2
1532162676698,7,1,-3,2,18,54,3,3
1532162676703,-4,-8,-12,-2,-1,-2,-6,0
1532162676708,-2,-1,3,8,-8,-38,-7,0
1532162676713,3,4,10,-7,20,116,28,6
1532162676718,-1,2,3,-2,-5,-46,-7,-1
1532162676723,1,4,6,-2,-4,-70,-2,1
1532162676728,2,-1,13,3,13,49,7,1
1532162676733,-3,2,7,5,-8,-13,-12,-4
1532162676738,2,-5,-7,-2,0,0,5,0
1532162676743,0,-2,-14,-11,-13,33,-5,-1
1532162676748,-1,-2,4,-1,-5,-61,-1,0
1532162676753,0,2,3,6,2,-25,-3,1
1532162676758,-2,-4,3,9,2,-22,-10,-4
1532162676763,1,-2,1,1,14,70,8,1
1532162676768,-2,-3,-14,-5,-11,-17,4,-1
1532162676773,2,1,-20,-2,-17,-37,-11,-4
1532162676778,-3,-5,5,2,3,18,2,-1
1532162676783,1,4,-23,-15,-2,-16,-5,1
1532162676788,8,1,-5,-4,3,35,0,-1
1532162676793,-9,-14,-16,-5,-8,-87,-8,1
1532162676798,3,6,6,5,6,54,6,-2
1532162676803,-3,-3,-2,-3,-13,-27,-8,-3
1532162676808,-1,6,8,10,27,30,19,3
1532162676813,2,-1,-2,-5,-24,-70,-15,-3
1532162676818,3,-8,5,-1,3,29,-5,2
1532162676823,-2,5,3,-4,-5,22,6,0
1532162676828,2,0,11,3,10,12,-3,0
1532162676833,-8,2,19,0,7,19,7,-3
1532162676838,17,9,-20,1,-11,7,-3,2
1532162676843,-1,7,10,6,27,96,4,1
1532162676848,-9,-7,-9,-1,-14,-115,-17,-3
1532162676853,4,4,4,7,16,63,14,0
1532162676858,-7,6,10,-6,-2,-10,-2,-4
1532162676863,-1,-12,7,-1,-18,-31,-7,-3
1532162676868,-9,-19,-17,-3,-2,0,4,-1
1532162676873,8,29,2,-9,-13,13,-11,-2
1532162676878,0,3,13,5,12,-41,6,1
1532162676883,4,1,3,1,-13,-26,-2,1
1532162676888,-11,-2,0,-3,5,32,-3,-3
1532162676893,7,-7,-7,1,-6,-3,-9,-2
1532162676898,-16,0,-16,-6,1,63,5,-4
1532162676903,-2,0,-1,8,2,-59,-4,2
1532162676908,4,1,3,-3,-8,10,2,-4
1532162676913,-1,-5,-20,-9,-10,-21,-6,-1
1532162676918,4,-4,4,2,19,87,4,2
1532162676923,-5,-2,5,5,0,-64,5,2
1532162676928,3,2,3,-1,-16,-53,-10,0
1532162676933,0,-3,1,-3,8,114,4,-3
1532162676938,-3,-10,3,0,-10,-114,-6,1
1532162676943,-14,-6,-7,0,-1,-7,-8,-11
1532162676948,3,1,-2,-6,-25,-18,-16,-6
1532162676953,2,8,0,9,35,47,23,11
1532162676958,-1,-16,4,1,-7,-29,-2,0
1532162676963,8,10,-16,-8,-4,27,0,1
1532162676968,-7,4,9,-9,-9,1,-10,-6
1532162676973,-24,-5,-2,0,5,-14,6,-2
1532162676978,32,2,6,6,7,21,7,4
1532162676983,-7,0,5,0,4,-15,-1,-3
1532162676988,-1,-1,-3,-6,1,-9,4,-1
1532162676993,-2,-4,3,-1,-8,22,-8,-2
1532162676998,3,10,-2,-2,-1,49,7,4
1532162677003,-21,-9,14,4,-3,-61,1,2
1532162677008,39,3,1,5,7,43,5,0
1532162677013,4,2,-3,3,0,-79,-5,3
1532162677018,-8,-3,-13,-7,9,16,-1,-4
1532162677023,2,3,3,7,-21,-25,-12,-2
1532162677028,-10,-2,-3,-3,29,75,24,5
1532162677033,-2,-4,-3,-9,-21,-89,-12,-4
1532162677038,-4,2,0,-4,-7,28,-8,-4
1532162677043,12,-3,-8,9,29,-7,18,8
1532162677048,-11,12,22,8,-3,0,4,0
1532162677053,0,2,-10,-8,-36,-66,-13,-8
1532162677058,-5,3,0,10,47,71,13,5
1532162677063,8,-6,10,-5,-2,-18,0,1
1532162677068,2,-7,-3,8,0,2,-1,1
1532162677073,-9,-4,32,5,14,37,3,-3
1532162677078,-6,6,-24,-10,-38,-94,-17,-6
1532162677083,1,1,-8,-17,-33,15,-16,-6
1532162677088,0,-4,-26,6,53,74,20,5
1532162677093,-26,-4,25,4,-3,-93,-4,-2
1532162677098,23,-6,-1,3,-4,2,5,2
1532162677103,6,-1,-1,6,8,-8,-6,1
1532162677108,-3,-1,-10,-3,-20,-21,-12,-2
1532162677113,-6,-7,16,5,4,3,-2,-6
1532162677118,-13,-1,-7,-4,1,36,10,-1
1532162677123,0,-7,-7,-6,-5,-13,0,-3
1532162677128,-8,6,-8,-3,-25,-21,-16,-5
1532162677133,14,3,4,12,30,-26,17,7
1532162677138,-4,-7,-10,-2,-14,-17,-11,-4
1532162677143,-5,6,21,-5,-16,12,-6,-2
1532162677148,-7,-4,9,-2,13,39,-6,-6
1532162677153,17,-3,-17,-11,-7,3,9,5
1532162677158,-4,2,-8,-6,-7,49,-15,-2
1532162677163,-2,-7,-10,5,17,-34,11,4
1532162677168,-1,1,-2,2,-14,-55,-12,-4
1532162677173,6,5,8,0,14,121,22,3
1532162677178,-3,-9,8,2,-6,-59,-5,-1
1532162677183,0,6,-1,3,11,29,2,-1
1532162677188,-2,-7,1,-8,-7,-42,1,1
1532162677193,-12,3,-22,-5,-9,38,-5,-4
1532162677198,17,3,6,-2,-5,-122,-10,1
1532162677203,-11,3,-3,-1,4,64,6,-6
1532162677208,9,0,-1,6,5,-33,-5,6
1532162677213,-1,-23,-15,-8,-20,14,-16,-6
1532162677218,-10,11,24,4,11,-45,9,2
1532162677223,-4,-5,-12,-8,-13,-30,-9,-5
1532162677228,1,1,-23,-4,3,27,5,-1
1532162677233,-2,-3,-11,-6,-17,-5,-15,-5
1532162677238,1,6,12,-2,-11,7,-1,-3
1532162677243,1,1,6,6,14,-2,6,5
1532162677248,-3,-3,0,-5,-1,-8,1,-2
1532162677253,-5,0,13,5,5,-20,-18,-1
1532162677258,-2,-5,-25,-2,6,64,22,4
1532162677263,4,7,9,-1,-1,0,0,0
1532162677268,0,-5,-1,-1,-14,11,-7,0
1532162677273,-5,1,6,5,-1,-96,-4,0
1532162677278,-38,-4,9,1,15,83,5,-4
1532162677283,61,6,3,-7,-21,-4,-6,7
1532162677288,-11,-11,-3,-2,-1,-12,-8,-7
1532162677293,4,0,-9,-3,6,64,25,2
1532162677298,-1,2,14,-2,-10,-14,1,-1
1532162677303,-23,-3,0,0,4,42,-8,-3
1532162677308,8,4,14,-3,-3,-34,-1,-14
1532162677313,2,0,-14,-2,0,-12,-6,-3
1532162677318,-10,-3,1,-1,-2,20,2,-5
1532162677323,-4,-3,-6,0,1,7,-7,4
1532162677328,-15,11,5,2,10,4,8,7
1532162677333,20,-10,13,-2,6,68,9,-1
1532162677338,-5,-1,-34,-5,-10,-50,-19,-6
1532162677343,4,-1,-6,4,11,10,9,0
1532162677348,-16,0,7,0,-9,8,1,0
1532162677353,-15,0,-15,-4,-2,-1,-2,2
1532162677358,43,-3,16,5,2,35,-3,3
1532162677363,-15,4,-8,5,-11,-91,-10,-7
1532162677368,4,-5,-6,-10,-8,-57,7,7
1532162677373,-8,-2,-15,-18,-9,-38,-15,-7
1532162677378,2,1,13,-8,-11,2,-8,0
1532162677383,-10,-8,-2,26,10,7,2,-1
1532162677388,4,4,5,1,4,72,0,-1
1532162677393,10,-1,-6,-4,-22,-103,2,3
1532162677398,-15,-7,-7,-7,26,44,-4,-5
1532162677403,-2,-1,3,-12,-26,-7,2,-1
1532162677408,2,-5,-5,1,10,3,-1,0
1532162677413,3,5,12,19,5,19,-1,4
1532162677418,-5,-1,0,1,-13,-56,-4,-3
1532162677423,-2,-4,26,-3,39,103,24,3
1532162677428,14,-1,-3,-12,-3,10,-13,1
1532162677433,-15,-4,4,0,-21,-71,-6,-7
1532162677438,-2,-2,-2,8,14,21,22,2
1532162677443,-4,-5,-17,-10,-21,-35,-30,-4
1532162677448,0,-2,-2,-1,-7,-44,5,-3
1532162677453,4,0,10,0,14,51,1,1
1532162677458,-3,2,1,8,-16,-65,-8,-1
1532162677463,-3,-1,-15,1,12,58,0,-3
1532162677468,-2,-2,-4,-7,-6,-8,2,0
1532162677473,2,3,-5,-9,-16,20,-3,0
1532162677478,3,2,2,5,6,2,1,1
1532162677483,0,-1,1,2,7,-20,-2,-2
1532162677488,-2,4,-3,1,-8,38,0,-2
1532162677493,2,3,-20,-7,2,-21,-1,-1
1532162677498,-1,0,8,2,-15,-26,-8,1
1532162677503,0,-3,-5,-8,7,15,10,2
1532162677508,-1,-2,-6,3,-5,-39,-6,-1
1532162677513,0,-1,10,8,12,82,7,0
1532162677518,-4,-8,-4,-12,6,82,4,-1
1532162677523,-1,1,0,-7,-11,-44,-5,-2
1532162677528,-2,-2,3,-9,-10,-16,-11,-5
1532162677533,9,8,9,14,31,7,25,8
1532162677538,1,0,12,-5,-17,-44,-10,-3
1532162677543,-4,-5,-10,-9,-9,52,-1,-5
1532162677548,1,0,9,13,26,-36,9,4
1532162677553,-2,-4,-3,6,-1,-8,-6,-3
1532162677558,-2,-2,-7,-9,-13,-30,-6,-2
1532162677563,1,-1,-3,-2,-2,30,2,-1
1532162677568,-1,-3,3,3,3,15,3,0
1532162677573,-3,-1,-5,8,2,-26,-8,-3
1532162677578,1,0,-11,-6,15,35,12,3
1532162677583,-4,-2,-12,-10,-14,-58,-9,-3
1532162677588,-1,-1,-3,8,-1,24,3,-1
1532162677593,-2,-3,1,-5,-13,-37,-3,-2
1532162677598,5,-1,0,1,5,-13,-7,-1
1532162677603,-14,2,1,11,-5,-41,8,-2
1532162677608,-2,4,2,-2,10,45,2,1
1532162677613,-1,-1,-9,-3,-2,-1,-2,-2
1532162677618,1,-1,-6,-5,-11,-41,-6,-1
1532162677623,3,-4,-5,4,7,32,6,1
1532162677628,-1,-2,0,5,-4,-2,-3,-1
1532162677633,0,-5,1,-8,-9,-23,-10,-2
1532162677638,-2,3,3,5,10,12,11,0
1532162677643,3,1,8,-5,-1,-7,-6,-2
1532162677648,-1,0,3,4,-3,-11,1,0
1532162677653,2,1,-2,-10,-10,21,-6,-2
1532162677658,-1,-2,-4,12,-3,41,2,3
1532162677663,1,2,9,4,26,-4,6,3
1532162677668,-1,-5,-5,-13,-9,-2,0,0
1532162677673,0,0,2,-1,-6,-19,-6,-1
1532162677678,-2,1,1,1,-10,30,4,-1
1532162677683,-1,-3,-3,-8,5,21,-2,-2
1532162677688,1,2,16,3,1,-67,-7,-1
1532162677693,-5,-2,-15,4,-3,-9,0,-4
1532162677698,-2,0,3,-5,5,20,4,0
1532162677703,2,0,6,10,-2,-9,-6,-2
1532162677708,-1,-3,-7,-10,5,68,5,-1
1532162677713,-3,-3,5,-2,-13,-39,-5,-2
1532162677718,-1,-1,-4,-1,6,0,-2,-1
1532162677723,1,1,-10,1,-6,-14,0,-1
1532162677728,-2,-3,-6,1,-2,28,-4,-2
1532162677733,-1,1,6,5,11,21,7,0
1532162677738,-2,-1,-7,0,-2,-38,-7,-1
1532162677743,-2,-2,6,-1,-16,-61,-4,-1
1532162677748,0,1,0,3,9,1,10,1
1532162677753,1,0,5,-4,0,30,0,0
1532162677758,-1,0,-10,-6,-1,-35,-5,-2
1532162677763,0,-2,0,0,-12,-48,-3,0
1532162677768,1,-1,2,9,1,27,-2,0
1532162677773,-1,-3,-9,-14,-2,-81,-6,0
1532162677778,1,-6,-2,3,17,61,10,2
1532162677783,0,0,-11,-9,-13,-15,-10,-2
1532162677788,-3,-7,-10,1,-5,34,12,0
1532162677793,0,-2,4,5,16,114,4,2
1532162677798,-1,-3,-11,5,0,-30,-4,-1
1532162677803,-1,1,8,-3,0,11,-2,-1
1532162677808,0,-1,1,-6,-1,-46,-5,-2
1532162677813,1,-1,2,-3,-17,-89,-2,2
1532162677818,-2,0,-4,-12,-7,12,1,-3
1532162677823,-1,-2,-1,5,10,25,4,1
1532162677828,-2,3,-1,2,-9,-11,-5,-1
1532162677833,0,1,8,5,-2,30,-1,-3
1532162677838,-1,-3,1,0,5,-33,-3,1
1532162677843,0,0,8,-8,-16,8,1,-1
1532162677848,-2,-2,-8,-5,6,10,-7,-1
1532162677853,0,-1,-12,-2,7,10,3,-1
1532162677858,-2,0,10,12,-5,-14,-3,-3
1532162677863,0,-4,-6,-5,3,-34,-4,0
1532162677868,0,2,-4,2,1,26,3,0
1532162677873,-2,0,8,-6,3,12,-4,-2
1532162677878,0,-2,-3,-2,-4,27,2,-1
1532162677883,2,1,0,5,1,-68,-2,2
1532162677888,1,0,7,4,1,25,-1,-1
1532162677893,0,4,-3,-1,-1,36,-3,-1
1532162677898,-1,3,-12,-2,-9,-87,-9,-1
1532162677903,-1,-2,-14,-4,7,9,3,2
1532162677908,-2,-2,-10,-7,-13,-63,-10,-3
1532162677913,-2,-3,-4,4,16,77,13,-1
1532162677918,-2,-2,5,-6,-8,-3,-3,-2
1532162677923,0,0,1,5,2,19,-1,-2
1532162677928,-1,2,0,2,0,-22,3,0
1532162677933,-3,6,1,-4,-10,-33,-11,-5
1532162677938,1,0,5,-6,-4,40,1,-1
1532162677943,2,-2,-1,1,1,18,4,4
1532162677948,-1,-2,3,-3,-10,-5,-2,-2
1532162677953,0,-1,1,-1,15,22,2,-1
1532162677958,-3,0,2,0,-8,-17,-9,-3
1532162677963,1,3,-1,0,3,-7,6,-2
1532162677968,3,3,-1,0,2,10,5,4
1532162677973,0,-3,6,1,-7,-23,-5,-1
1532162677978,-1,-2,-7,-2,2,30,2,0
1532162677983,-1,1,-3,-5,-9,-5,-8,-2
1532162677988,-2,-1,0,-4,-10,-68,-10,-3
1532162677993,2,-4,0,7,28,91,24,5
1532162677998,0,1,5,4,-1,-44,-6,0
1532162678003,-2,-1,-1,-6,-5,17,1,-3
1532162678008,-1,1,-6,-7,0,0,1,-1
1532162678013,-1,-4,-4,1,-9,-2,-8,-1
1532162678018,1,0,9,4,8,31,13,2
1532162678023,-1,0,-11,3,-5,1,0,-1
1532162678028,0,-1,10,2,13,40,3,-1
1532162678033,1,0,-9,-9,-18,-55,-5,-2
1532162678038,0,-2,-2,0,7,43,2,2
1532162678043,-2,-1,5,-3,-2,7,-3,-2
1532162678048,-3,-2,0,10,-5,15,-1,-2
1532162678053,1,2,7,-2,6,-49,-3,-1
1532162678058,0,-4,-3,-6,-12,-33,4,-1
1532162678063,-1,-2,3,-4,5,25,-4,1
1532162678068,0,0,-2,-4,0,16,-2,-1
1532162678073,-3,-1,-4,-2,-9,-39,-6,-1
1532162678078,0,-2,-6,1,21,78,14,1
1532162678083,0,0,3,9,-11,-25,-4,0
1532162678088,1,-3,1,1,15,15,3,0
1532162678093,-3,-3,-10,-7,-7,1,-10,-2
1532162678098,-4,-3,5,-8,-13,-25,-3,-6
1532162678103,-1,4,-3,0,-7,7,1,-2
1532162678108,-2,-1,1,4,14,-3,6,1
1532162678113,-1,-3,7,5,2,-7,2,0
1532162678118,0,-2,-13,-1,-11,-91,-13,-2
1532162678123,-2,-1,-1,-3,12,45,5,-2
1532162678128,0,-4,0,-7,-14,-23,-5,-1
1532162678133,-1,1,-4,5,7,6,7,0
1532162678138,-2,1,-1,-10,-8,-15,-7,-4
1532162678143,1,-3,12,11,3,29,0,1
1532162678148,-1,-3,0,-1,-1,-18,-3,0
1532162678153,-2,-5,-11,-8,-5,21,-1,-1
1532162678158,-1,4,4,-2,9,2,-3,0
1532162678163,-1,-1,-9,-3,-15,-61,-7,-3
1532162678168,-1,-1,6,9,23,57,23,2
1532162678173,0,0,1,3,-5,-4,-5,1
1532162678178,-3,-3,7,2,-3,-18,-8,-2
1532162678183,-2,-1,-1,-9,3,7,0,-2
1532162678188,1,1,-13,-2,-11,-29,-11,-1
1532162678193,-1,0,0,-1,-8,-12,-4,-2
1532162678198,3,1,-9,1,19,20,12,5
1532162678203,-1,2,1,-2,2,-2,-3,-1
1532162678208,-1,1,0,-3,-9,-8,-3,-2
1532162678213,-2,-3,0,4,0,-25,-7,-4
1532162678218,0,-1,4,2,-6,40,5,-1
1532162678223,-3,-4,-8,-2,6,-5,5,-2
1532162678228,-1,2,4,-6,-15,-59,-12,-1
1532162678233,-1,-3,-7,-3,6,58,5,0
1532162678238,-2,-2,3,5,-6,-26,-4,-2
1532162678243,0,-3,2,3,7,18,3,0
1532162678248,0,-3,-3,-1,-9,-7,-8,-3
1532162678253,0,0,4,-2,7,-9,15,2
1532162678258,-2,-2,-7,-9,-7,-4,-9,-2
1532162678263,2,4,6,-1,-2,-9,-9,-1
1532162678268,-1,-3,2,2,-10,-16,0,1
1532162678273,-2,-4,11,-2,0,-17,-2,-1
1532162678278,-1,0,4,2,5,47,1,0
1532162678283,1,-3,-3,5,-10,-69,-4,-1
1532162678288,0,0,0,0,14,8,-1,0
1532162678293,-1,0,-4,-10,-19,20,-6,-2
1532162678298,0,-1,-4,-1,-2,-5,13,2
1532162678303,0,-1,2,2,2,29,0,-2
1532162678308,-4,-2,0,-1,-10,15,-6,-3
1532162678313,4,1,4,13,19,-92,5,7
1532162678318,-2,1,3,-4,2,67,-1,-3
1532162678323,0,3,-2,-8,-1,37,3,-1
1532162678328,-1,-2,-4,-4,-9,-51,-2,-1
1532162678333,-1,-1,3,-5,-5,25,1,-3
1532162678338,-1,0,-1,0,-5,-49,-7,-3
1532162678343,-1,-4,-5,0,-13,-12,-3,-2
1532162678348,0,3,0,-5,4,-7,-2,1
1532162678353,-4,-2,1,-1,-3,10,-4,0
1532162678358,-1,-2,0,6,-1,-23,-4,-2
1532162678363,0,-1,-10,-10,0,51,6,-1
1532162678368,-1,-1,-6,-2,-15,-73,-6,-2
1532162678373,-1,-4,-5,-10,0,16,5,0
1532162678378,-1,0,-2,-3,-8,-5,-9,-1
1532162678383,0,0,2,5,5,7,-1,0
1532162678388,-1,-2,7,8,13,39,0,-1
1532162678393,0,1,-1,0,-7,-81,-5,0
1532162678398,-2,-2,-7,-11,-17,13,-8,-4
1532162678403,-2,0,4,2,13,48,5,-1
1532162678408,-2,-6,-10,-5,-12,-46,-7,-1
1532162678413,-2,0,0,1,0,1,0,-3
1532162678418,0,-1,0,5,6,1,-1,0
1532162678423,-2,-3,10,-5,-3,4,-3,1
1532162678428,-2,-3,-8,-7,4,-19,0,-1
1532162678433,-2,-1,0,-3,-7,-26,-3,-1
1532162678438,0,3,-5,-1,0,-5,-1,-2
1532162678443,0,-2,1,5,-3,3,-6,-2
1532162678448,0,-1,1,2,14,40,14,2
1532162678453,-1,-1,-4,0,-4,-7,-3,0
1532162678458,-1,-1,2,-1,-5,-30,-5,-1
1532162678463,2,-1,-11,2,2,-27,-1,3
1532162678468,-2,0,3,-2,-9,-40,-3,-3
1532162678473,-1,-2,-16,0,-8,48,-6,1
1532162678478,0,0,-5,-7,20,60,12,4
1532162678483,-1,0,2,-3,2,-11,-4,-2
1532162678488,1,1,4,7,2,-5,4,-1
1532162678493,-1,0,3,-1,-5,-32,-4,-2
1532162678498,-3,2,4,-10,-15,-14,-9,-3
1532162678503,1,-1,-6,-4,4,-13,3,0
1532162678508,-1,1,3,3,-2,12,-1,-1
1532162678513,-2,-2,1,0,1,-10,-5,-3
1532162678518,1,3,5,1,-10,-26,4,-1
1532162678523,-1,1,3,5,10,28,3,-2
1532162678528,0,-1,0,0,-3,-7,-6,-1
1532162678533,0,-4,-2,-4,-3,-45,-4,-3
1532162678538,0,-1,-3,-3,-8,3,0,-1
1532162678543,1,-2,-6,3,3,6,4,0
1532162678548,0,-1,-1,-2,-17,-95,-10,-1
1532162678553,0,2,-1,1,22,30,17,5
1532162678558,-1,-5,-9,0,1,-17,-1,-1
1532162678563,-1,2,4,0,-1,14,1,-1
1532162678568,-1,-3,8,-1,-2,34,-8,-1
1532162678573,-2,0,-4,1,-6,-51,1,-1
1532162678578,-2,-4,-3,-4,-5,-3,-3,-1
1532162678583,-2,-4,0,-1,-5,-21,-2,-1
1532162678588,1,0,-4,-3,3,37,2,-3
1532162678593,0,3,3,6,5,50,0,0
1532162678598,2,2,4,-11,-11,-55,-6,-2
1532162678603,0,0,-1,3,13,55,8,1
1532162678608,-1,0,1,3,4,13,3,2
1532162678613,-2,2,-3,0,-4,-1,-1,-3
1532162678618,-2,-1,-8,1,-4,-6,-6,0
1532162678623,-3,-2,12,-4,-2,-25,-1,-1
1532162678628,2,1,-5,3,2,-34,2,2
1532162678633,-2,-1,1,0,-6,-16,-9,-3
1532162678638,-1,-2,3,2,13,47,20,3
1532162678643,-2,-2,-7,3,-9,-20,-6,-3
1532162678648,-3,-3,-8,-12,6,53,6,-2
1532162678653,-1,0,-3,-10,-18,-11,-4,0
1532162678658,-1,-1,4,3,-9,-44,-13,-4
1532162678663,1,4,2,5,24,127,22,5
1532162678668,-1,0,0,1,-10,-108,-5,0
1532162678673,-1,-3,1,-2,11,64,4,-1
1532162678678,-1,-5,-5,3,-2,-31,-9,-3
1532162678683,0,1,-4,0,-5,8,3,1
1532162678688,-1,-3,2,2,7,10,2,-1
1532162678693,1,1,-12,-7,-6,-9,3,0
1532162678698,0,-1,6,8,-3,-10,0,1
1532162678703,-1,-3,-3,-12,-8,19,-11,-5
1532162678708,1,-2,-6,-1,10,71,6,3
1532162678713,0,-3,1,3,0,-25,-1,-1
1532162678718,0,2,5,-2,6,61,7,1
1532162678723,-1,0,-2,-2,-12,-62,-9,-2
1532162678728,-1,-1,-1,3,3,23,-2,0
1532162678733,-1,-3,5,-2,-4,-34,-4,1
1532162678738,2,0,-10,2,12,80,9,1
1532162678743,0,0,8,-2,1,-10,-1,3
1532162678748,-2,0,-3,0,-12,-82,-11,-4
1532162678753,0,0,-1,8,19,69,16,4
1532162678758,-4,-5,-3,-1,-5,-49,-14,-3
1532162678763,-2,-1,-5,-6,-9,7,2,0
1532162678768,1,0,-4,-2,-1,2,-2,0
1532162678773,-1,-3,0,-4,-6,-19,-7,-3
1532162678778,1,1,3,-3,-3,2,-2,-1
1532162678783,1,-1,-2,4,1,-63,-1,1
1532162678788,1,0,4,1,1,4,7,2
1532162678793,-2,0,3,4,1,60,-4,-4
1532162678798,-1,-2,0,-7,8,-14,6,2
1532162678803,-1,0,-6,-4,-8,-8,-8,-3
1532162678808,-2,-1,3,-6,-8,-16,4,-1
1532162678813,0,0,2,0,3,-27,-3,0
1532162678818,-1,1,-3,3,-6,-15,-8,-1
1532162678823,-1,-6,-6,-6,-3,47,-2,-3
1532162678828,0,4,5,9,16,20,4,2
1532162678833,0,-3,-1,-3,-4,-37,-2,0
1532162678838,-1,-2,2,0,-3,-25,-4,-1
1532162678843,-1,-1,-1,-7,-2,-3,2,0
1532162678848,-3,-1,-5,2,0,31,-4,-4
1532162678853,1,-2,-1,-6,-9,-38,-2,1
1532162678858,-2,-2,-2,2,9,-14,-4,-2
1532162678863,0,1,6,5,0,50,6,0
1532162678868,0,2,-9,-3,-6,-68,-5,-1
1532162678873,-1,0,0,-3,-3,53,-11,-4
1532162678878,0,2,2,-2,-6,-93,8,0
1532162678883,-1,4,-1,0,10,40,0,-1
1532162678888,-3,-3,3,-4,-7,11,-4,-2
1532162678893,0,-3,-3,-1,-1,-20,-3,-1
1532162678898,-3,-4,-6,-8,-11,22,-6,-4
1532162678903,1,-1,2,4,6,23,12,-1
1532162678908,1,1,-4,1,0,-41,-6,3
1532162678913,-1,-1,-6,-8,-7,-15,1,1
1532162678918,-2,-3,0,-7,3,24,-2,-3
1532162678923,-4,-5,-2,0,-15,-96,-9,-5
1532162678928,-1,0,7,1,13,124,6,-3
1532162678933,0,1,4,6,1,-16,1,0
1532162678938,0,-1,-9,-2,-1,10,-2,0
1532162678943,-2,-2,-1,-5,-18,-70,-15,-4
1532162678948,0,1,3,2,13,68,8,1
1532162678953,-1,1,4,4,6,-45,-1,-1
1532162678958,-1,-2,5,-2,3,26,3,1
1532162678963,0,-1,-2,3,1,-21,-5,0
1532162678968,-2,-3,-4,-6,-9,31,-3,-3
1532162678973,-1,1,-1,-6,-13,-84,-9,-2
1532162678978,2,0,9,3,10,69,13,1
1532162678983,-1,-1,-5,3,7,-21,-3,0
1532162678988,1,0,3,-7,-7,-32,-3,-2
1532162678993,-1,-1,-6,-2,0,10,1,-1
1532162678998,-2,-2,-3,1,-5,38,-4,-3
1532162679003,-1,0,0,0,5,-2,-3,1
1532162679008,2,1,0,-1,-4,-3,-1,0
1532162679013,-2,-2,0,-2,-10,-22,-3,-1
1532162679018,-2,-2,-6,-6,2,25,4,-3
1532162679023,-1,0,9,2,6,-32,0,0
1532162679028,-4,-5,-13,-6,-1,6,-1,-2
1532162679033,-2,0,-2,4,2,5,2,1
1532162679038,-2,0,-2,-4,-8,-12,-5,-1
1532162679043,0,2,2,2,4,18,1,0
1532162679048,0,-3,-1,-2,-8,-61,-7,-1
1532162679053,2,2,-3,0,9,64,14,0
1532162679058,0,0,-1,2,-6,-60,-6,-1
1532162679063,0,-2,1,5,7,37,4,1
1532162679068,-1,0,-5,3,3,20,3,-1
1532162679073,0,0,0,-7,0,3,1,-1
1532162679078,2,2,3,3,-7,-45,-9,-1
1532162679083,0,3,-2,3,12,37,5,-1
1532162679088,-1,-2,1,2,-7,4,0,1
1532162679093,0,-1,8,-2,-4,-32,-2,0
1532162679098,1,0,1,8,17,21,5,0
1532162679103,-3,-3,-4,-11,-18,-36,-10,-3
1532162679108,-2,-4,-4,-3,2,13,0,-2
1532162679113,-1,0,3,3,-5,-2,-6,-3
1532162679118,-2,0,-2,4,-1,-25,4,-1
1532162679123,2,-1,-3,4,6,27,6,3
1532162679128,-2,1,1,-5,-4,-35,-1,-2
1532162679133,-2,-3,-4,2,-6,32,-6,-2
1532162679138,-1,3,0,-3,1,-22,-5,-2
1532162679143,-1,-2,-2,-1,-8,15,-3,-3
1532162679148,2,2,3,2,16,-10,9,3
1532162679153,-1,-1,2,-4,-3,-6,-3,-1
1532162679158,-1,-4,-6,-5,-7,-12,-5,-1
1532162679163,-2,-3,1,-2,-10,-77,-7,-1
1532162679168,1,0,1,4,15,71,16,3
1532162679173,-4,-3,-4,-4,0,-8,0,-1
1532162679178,-2,1,0,0,1,10,2,1
1532162679183,-3,-4,-6,-7,-1,15,-2,-2
1532162679188,-1,-2,-3,-2,-22,-81,-14,-3
1532162679193,2,1,-2,4,14,80,13,1
1532162679198,-2,-2,6,2,4,14,-3,-2
1532162679203,-1,-1,-7,-3,-3,84,-2,-2
1532162679208,0,2,1,2,-10,-100,-4,0
1532162679213,-2,-3,1,-3,-2,2,-2,-1
1532162679218,-2,-4,-4,-1,-13,-24,-7,-1
1532162679223,1,6,0,0,13,64,11,2
1532162679228,-2,-1,-4,0,2,1,-4,-3
1532162679233,0,5,3,2,-6,-11,-7,-2
1532162679238,1,0,-2,4,6,17,4,0
1532162679243,-1,-2,-4,-4,-4,-41,-4,-2
1532162679248,0,0,0,-1,1,46,0,1
1532162679253,0,1,-2,1,-9,-64,-4,-1
1532162679258,-1,0,-1,-5,6,88,5,1
1532162679263,-3,0,3,-2,-4,-38,-3,-1
1532162679268,-2,-1,1,2,-9,-7,-7,-3
1532162679273,-2,-1,2,0,12,43,1,-1
1532162679278,-3,-3,-9,-11,-13,-23,-5,-2
1532162679283,-2,-5,-3,-6,-9,-28,-2,-4
1532162679288,1,-1,-19,-5,-1,23,0,0
1532162679293,-2,0,1,4,2,-21,-2,-2
1532162679298,-1,1,1,1,-1,4,1,-1
1532162679303,0,0,6,4,6,18,4,2
1532162679308,-4,-2,-6,0,-6,-55,-6,-3
1532162679313,0,-2,-3,-2,2,19,3,1
1532162679318,0,-1,-6,-1,-3,-68,-4,0
1532162679323,-2,-3,1,-10,-4,54,2,0
1532162679328,-2,-1,5,3,-3,5,-5,-2
1532162679333,1,1,-1,2,9,-23,13,2
1532162679338,-1,-4,6,4,7,70,0,-1
1532162679343,-1,-2,0,-4,-8,-86,-6,-1
1532162679348,0,-2,0,-3,-3,-1,-4,-1
1532162679353,-3,-4,-8,-2,2,37,0,-3
1532162679358,-1,1,0,-10,-14,-30,-5,-3
1532162679363,0,1,-1,6,7,-13,0,0
1532162679368,0,0,11,-4,-3,-32,-3,-1
1532162679373,1,0,-4,4,8,-7,4,3
1532162679378,-1,0,3,1,-2,-51,0,1
1532162679383,0,-2,-4,-2,-6,60,2,-2
1532162679388,-1,1,0,6,10,-58,12,2
1532162679393,0,0,1,3,1,2,-7,-1
1532162679398,0,-1,3,0,-6,-14,-2,0
1532162679403,-1,-1,-10,-2,-1,-14,-3,-1
1532162679408,0,-1,-2,-4,-5,52,-4,-1
1532162679413,-2,-3,3,3,-5,-19,1,-2
1532162679418,1,2,-8,-1,9,51,6,-1
1532162679423,-4,-7,-8,-1,-5,-23,-7,-2
1532162679428,0,0,3,-1,1,3,0,1
1532162679433,-3,-1,-8,-9,-8,51,-10,-4
1532162679438,1,0,5,1,-7,-11,-2,0
1532162679443,2,3,4,11,11,-23,8,2
1532162679448,-1,0,-1,-5,0,3,-1,-3
1532162679453,-2,-1,-1,-8,-11,-13,-3,-1
1532162679458,-1,1,5,6,3,7,-3,-1
1532162679463,0,2,-3,1,5,14,-3,-1
1532162679468,-3,-3,-4,-4,-8,-39,-5,0
1532162679473,2,-2,-4,-1,-1,34,6,1
1532162679478,-3,-3,-2,0,12,50,4,-1
1532162679483,0,1,-6,3,3,-29,3,1
1532162679488,-1,-1,2,1,6,3,-7,-3
1532162679493,-3,2,1,-11,-26,-30,-8,-3
1532162679498,1,-1,-13,13,28,48,17,2
1532162679503,-2,1,10,-4,-9,-31,-1,-1
1532162679508,-1,-3,-4,1,5,28,0,0
1532162679513,-1,0,0,-1,-6,-14,-5,-2
1532162679518,-1,-2,0,-7,-4,-7,1,-3
1532162679523,0,-5,6,6,9,-21,1,2
1532162679528,0,1,-7,-1,-2,-26,-6,-3
1532162679533,0,-3,6,0,0,33,2,0
1532162679538,-1,-2,-7,9,6,-14,-3,0
1532162679543,-2,-3,2,-18,-13,-18,-5,-2
1532162679548,-2,0,-2,0,1,-11,-3,-1
1532162679553,-3,-1,-3,0,-6,-33,-4,-2
1532162679558,0,1,3,3,13,63,7,-1
1532162679563,1,0,-4,1,-3,-22,-2,-1
1532162679568,-2,-3,4,-3,-4,13,-4,-2
1532162679573,1,2,-5,-5,-8,-53,0,1
1532162679578,-1,1,1,-2,0,14,2,-2
1532162679583,-3,-3,-2,2,2,23,-2,-1
1532162679588,-1,-1,-8,-8,-11,-62,-9,-1
1532162679593,0,1,3,2,2,42,6,2
1532162679598,-1,-1,-4,-3,-4,-11,-5,-1
1532162679603,0,-3,-3,0,-1,-27,2,-1
1532162679608,-1,0,15,5,3,13,-2,-1
1532162679613,-1,-1,-1,5,2,-1,-4,-2
1532162679618,0,-1,-1,-2,-6,21,-1,-1
1532162679623,2,0,-2,3,7,-25,2,2
1532162679628,-2,-5,-6,-3,-9,-42,-3,-1
1532162679633,0,5,0,-4,4,62,2,-1
1532162679638,0,1,1,-2,-7,-44,-3,-2
1532162679643,0,5,-4,7,11,86,9,1
1532162679648,-1,3,4,0,7,39,5,1
1532162679653,-3,-5,-2,-4,-12,-80,-11,-1
1532162679658,1,-1,-1,-1,4,51,4,-2
1532162679663,-1,-3,-14,-4,-8,-20,-10,-3
1532162679668,0,0,-6,5,5,-13,3,2
1532162679673,-3,-1,-4,-10,-4,24,-4,-3
1532162679678,1,0,6,-4,-8,-23,-3,1
1532162679683,0,-2,-8,-5,-5,31,-5,-3
1532162679688,-1,2,8,1,4,26,6,0
1532162679693,-2,-2,4,5,2,10,-6,-1
1532162679698,-3,-6,-8,-4,1,0,5,1
1532162679703,-1,2,3,-2,-3,-9,-5,-4
1532162679708,-2,-1,8,0,-10,-32,-2,0
1532162679713,0,0,-9,-1,3,3,4,-1
1532162679718,0,1,2,3,-4,16,0,0
1532162679723,-2,-1,9,2,5,-59,-4,-1
1532162679728,0,0,-6,-5,-10,12,-3,-2
1532162679733,0,-4,-2,-13,-14,-26,1,-1
1532162679738,1,1,-1,6,17,27,6,2
1532162679743,-2,-3,-6,11,5,9,3,0
1532162679748,-1,0,4,1,3,6,-8,-2
1532162679753,0,0,3,-6,-8,-32,3,-1
1532162679758,-1,0,-9,-6,-10,-19,-5,-2
1532162679763,1,-2,5,-1,2,-27,1,-1
1532162679768,0,-1,0,4,10,21,2,0
1532162679773,1,2,1,7,1,17,1,0
1532162679778,-2,-1,3,-7,-14,-14,-5,-4
1532162679783,0,1,6,5,15,54,7,4
1532162679788,-2,0,-17,-11,-4,-4,0,-2
1532162679793,-1,-3,2,5,2,-21,-7,-1
1532162679798,0,-2,-4,-3,-9,-13,-6,-1
1532162679803,-1,-2,-2,4,7,53,11,0
1532162679808,-2,-2,2,-6,-4,-13,-1,-1
1532162679813,0,1,5,7,0,-18,-9,-2
1532162679818,0,-1,2,-7,9,83,19,2
1532162679823,0,-1,-5,-7,-15,-40,-9,-1
1532162679828,-3,-3,-3,-3,6,3,2,0
1532162679833,-2,-2,4,3,-3,-7,0,-3
1532162679838,0,-1,0,2,0,-28,-7,1
1532162679843,-1,-2,-1,-3,-11,-18,-6,-3
1532162679848,0,0,5,8,7,-40,6,1
1532162679853,-1,2,-6,-4,-5,-1,-6,-4
1532162679858,1,-2,4,3,9,-4,3,2
1532162679863,-3,-3,8,3,12,34,1,-2
1532162679868,0,-1,-7,-9,-18,-13,-5,-2
1532162679873,-1,-3,-9,-7,-7,16,5,2
1532162679878,1,1,4,13,16,54,-1,-2
1532162679883,-2,-2,-4,-15,-14,-22,1,-1
1532162679888,0,-3,0,-6,6,-5,1,-1
1532162679893,-2,-2,0,1,0,4,-2,2
1532162679898,-1,1,-1,-3,-9,-10,-3,-1
1532162679903,-1,0,4,16,9,-6,-3,-1
1532162679908,0,1,2,3,-1,34,0,0
1532162679913,-1,-3,-6,-7,-8,20,-1,-1
1532162679918,-2,-3,-3,2,12,-63,-6,-3
1532162679923,-2,2,0,-12,-18,-15,-4,-2
1532162679928,1,0,-8,-2,6,42,6,4
1532162679933,3,2,9,6,-2,-32,-3,1
1532162679938,-4,-5,-5,2,-5,9,-5,-4
1532162679943,1,-1,-7,-9,7,21,6,2
1532162679948,-2,-2,-6,-6,-11,-4,-4,-4
1532162679953,0,-1,0,-6,8,5,3,2
1532162679958,-2,-2,-5,-7,-11,-1,-4,-1
1532162679963,1,2,5,13,0,-27,-2,-1
1532162679968,-2,-1,6,3,14,3,-4,-1
1532162679973,0,-2,-4,0,-10,-10,-1,-2
1532162679978,1,2,6,5,9,15,1,1
1532162679983,-3,-5,-14,-13,11,13,-4,-3
1532162679988,-1,-2,-4,-14,-30,6,-4,-2
1532162679993,-2,-2,-2,0,5,-2,-3,-2
1532162679998,5,5,7,9,0,22,3,2
1532162680003,2,5,16,35,30,25,1,3
1532162680008,4,1,4,25,0,-54,9,7
1532162680013,-3,-8,-25,-44,38,50,0,-1
1532162680018,-5,-1,-5,-12,-52,-22,-4,-3
1532162680023,2,5,9,3,-2,32,2,-1
1532162680028,-1,0,7,16,24,58,5,-1
1532162680033,1,1,3,5,-40,-9,-3,1
1532162680038,-2,-7,-10,-11,34,65,-5,-2
1532162680043,-6,-7,-15,-28,-38,4,-16,-15
1532162680048,1,1,2,-3,-12,2,-5,4
1532162680053,-1,0,-1,0,-14,-43,-11,-7
1532162680058,3,4,5,22,-1,-33,13,6
1532162680063,-2,-1,1,-2,17,-65,-8,0
1532162680068,-5,-4,-2,-4,0,-35,3,-6
1532162680073,-2,1,5,12,8,-45,3,1
1532162680078,-5,1,7,1,0,-21,-3,-10
1532162680083,2,-2,-3,8,-17,-54,1,4
1532162680088,0,-3,-18,-43,5,-40,-4,2
1532162680093,-3,-1,-2,-3,-3,46,6,-2
1532162680098,1,3,10,19,-7,15,-3,1
1532162680103,1,-1,4,10,18,-46,-5,1
1532162680108,-8,-5,-7,-15,-20,-28,-12,-9
1532162680113,0,2,7,32,-15,-26,5,3
1532162680118,-5,-6,-17,-45,32,3,0,-3
1532162680123,-2,-1,-3,-3,-29,20,-1,-2
1532162680128,2,2,10,18,12,-12,-5,2
1532162680133,1,2,9,13,22,59,1,-4
1532162680138,-1,-1,2,10,-36,-73,-6,-2
1532162680143,-1,-3,-12,-9,7,19,0,-1
1532162680148,-1,-3,-6,-27,-22,-23,-3,-5
1532162680153,-1,-2,0,2,6,18,-5,-5
1532162680158,5,1,0,3,24,67,9,6
1532162680163,-5,-3,-6,-22,15,17,-3,-3
1532162680168,1,2,7,27,-19,-7,17,1
1532162680173,1,-3,-3,-13,3,40,4,0
1532162680178,0,1,-2,7,-6,-88,-6,-4
1532162680183,4,7,11,30,20,46,8,7
1532162680188,-3,-9,-14,-34,-14,34,-3,-1
1532162680193,0,2,7,4,13,-33,-6,-1
1532162680198,-2,-2,0,-13,-7,25,-3,0
1532162680203,-1,-2,1,11,-18,-39,-2,1
1532162680208,1,4,13,13,24,53,5,-4
1532162680213,3,4,3,16,7,-11,-1,4
1532162680218,-4,-9,-22,-33,-21,-28,-3,-2
1532162680223,-4,0,0,-2,1,2,6,0
1532162680228,1,-3,1,9,10,14,0,0
1532162680233,-2,3,-8,-6,-9,-47,-5,-6
1532162680238,4,9,21,31,20,4,7,10
1532162680243,1,-5,-14,-16,-7,60,4,0
1532162680248,-2,5,-3,-16,-17,6,-9,-4
1532162680253,-3,-3,-4,-3,7,5,15,0
1532162680258,-1,-12,-3,9,-10,-19,-5,-3
1532162680263,-1,1,11,5,10,87,10,-3
1532162680268,3,0,-3,-4,9,25,-5,6
1532162680273,-4,5,6,-4,-2,-41,-7,1
1532162680278,1,5,23,-4,-1,-21,-5,-5
1532162680283,0,-21,-46,11,-6,-33,1,3
1532162680288,-3,-1,0,6,12,12,2,-7
1532162680293,-2,-17,9,-28,-34,-11,0,-1
1532162680298,-5,-6,-28,0,3,11,1,-5
1532162680303,-3,6,21,-9,-5,-19,-5,-3
1532162680308,4,3,4,19,10,-25,-2,3
1532162680313,-1,-2,-3,-5,-9,11,-3,-1
1532162680318,-2,5,19,0,5,11,2,-2
1532162680323,0,-4,-26,-4,-8,-20,-1,1
1532162680328,-2,5,-5,-5,-9,-39,-9,0
1532162680333,-1,-2,6,-10,6,-34,6,-1
1532162680338,1,1,-9,-2,6,62,15,3
1532162680343,-1,6,2,-20,-1,-16,-3,0
1532162680348,-3,-2,16,16,-6,47,4,-2
1532162680353,2,-3,-20,-9,-9,-43,-1,1
1532162680358,-2,5,6,8,0,-23,-1,0
1532162680363,0,0,5,-5,-12,-7,-2,-2
1532162680368,-2,-6,-3,0,14,9,4,-1
1532162680373,0,0,5,17,-1,15,-3,-3
1532162680378,2,-1,-6,21,1,-26,2,4
1532162680383,-2,0,12,-33,-5,68,5,-1
1532162680388,1,0,-4,4,-7,-68,4,-1
1532162680393,2,0,-9,1,4,19,-21,3
1532162680398,-3,-3,6,-13,-8,-12,-2,-2
1532162680403,-1,2,-9,11,-1,-29,-6,-5
1532162680408,-1,-5,21,17,3,-6,-5,-5
1532162680413,-2,-8,-11,-4,5,39,11,0
1532162680418,0,-1,-6,-10,1,-26,-9,-1
1532162680423,1,2,11,0,-15,-62,-4,0
1532162680428,-2,-5,-9,-12,10,71,6,-3
1532162680433,1,7,8,12,3,-2,-5,-1
1532162680438,-3,-1,3,6,-1,35,-5,0
1532162680443,-1,-6,4,-8,11,-46,3,0
1532162680448,2,2,-4,4,-19,9,-3,2
1532162680453,-3,-5,-6,-12,0,-2,10,2
1532162680458,-1,2,-13,-16,1,-16,-5,-2
1532162680463,0,3,4,6,8,4,0,-1
1532162680468,1,6,7,24,13,9,-3,-1
1532162680473,-2,-5,-12,-15,-22,-3,-5,-1
1532162680478,-2,2,-1,-19,-17,-7,-3,-2
1532162680483,0,-6,-5,6,7,-4,-1,0
1532162680488,1,-2,-3,-4,0,-15,0,0
1532162680493,1,4,11,23,10,11,-1,-1
1532162680498,0,1,2,-7,3,7,5,-2
1532162680503,-4,-5,-11,-16,-20,-12,-14,-4
1532162680508,1,1,-7,-9,7,23,23,5
1532162680513,-2,-4,-4,-12,15,56,-7,-5
1532162680518,0,-2,-1,5,-11,-45,-11,1
1532162680523,1,2,2,5,4,7,-1,0
1532162680528,-1,1,3,9,6,-15,-7,-1
1532162680533,-3,-1,-3,-3,-12,-1,3,-2
1532162680538,0,-3,-6,-10,5,20,0,-2
1532162680543,0,2,3,4,-6,-19,-4,0
1532162680548,-5,-7,-4,-3,-8,-6,-6,-1
1532162680553,0,3,1,-3,4,-8,0,-1
1532162680558,0,-2,-1,7,4,10,1,1
1532162680563,-1,4,7,4,-2,0,2,-3
1532162680568,0,-1,-4,-3,-2,3,-3,0
1532162680573,-1,-1,-3,-13,-9,9,2,1
1532162680578,-1,-3,-1,6,0,-28,-6,-3
1532162680583,-1,2,2,-1,4,21,10,3
1532162680588,1,-4,-1,5,1,-16,-4,-1
1532162680593,0,-5,-1,2,-3,-6,-4,-1
1532162680598,-4,-2,-7,-5,1,53,5,-4
1532162680603,1,1,-1,-3,-7,-49,-4,-2
1532162680608,2,5,-2,-7,11,-49,-2,3
1532162680613,-2,0,2,10,0,-5,-5,-1
1532162680618,0,-3,2,4,0,15,0,0
1532162680623,0,-3,-1,-9,-4,-6,1,-1
1532162680628,2,1,-3,-3,3,7,1,3
1532162680633,-4,-4,-2,-2,-2,-2,-5,-4
1532162680638,-1,-3,-6,-7,-6,1,0,-2
1532162680643,1,6,9,14,7,0,-3,-1
1532162680648,-1,-3,-4,-6,-8,-16,-1,-2
1532162680653,1,-2,-1,-3,1,15,2,0
1532162680658,-2,-1,-1,-9,-1,4,0,-1
1532162680663,-3,2,-2,2,4,-6,-3,-3
1532162680668,-1,0,1,2,-4,-2,-3,1
1532162680673,-1,-2,2,5,4,7,0,1
1532162680678,-2,6,3,-1,-3,-29,-4,-3
1532162680683,-2,-9,-8,-1,4,76,9,-1
1532162680688,0,-1,-4,-5,-2,-12,-4,-1
1532162680693,0,-2,3,5,-7,-6,-2,0
1532162680698,-5,-1,-6,-8,3,-13,3,-2
1532162680703,1,4,3,1,-1,-30,-2,1
1532162680708,0,-4,-5,-4,-2,25,4,-1
1532162680713,-1,-2,-1,4,7,56,1,-3
1532162680718,2,-3,0,-5,-13,-37,-7,5
1532162680723,0,1,2,8,1,-23,0,-2
1532162680728,-4,-1,-2,-15,-2,14,1,-3
1532162680733,-2,6,6,9,5,-7,0,0
1532162680738,0,-8,-13,-14,-8,60,6,-3
1532162680743,-3,-1,-3,-3,1,-56,-2,0
1532162680748,1,0,2,9,4,-10,1,4
1532162680753,3,6,9,21,25,61,7,0
1532162680758,-3,0,10,2,-7,11,-2,-1
1532162680763,-2,-8,-17,-26,-9,-20,-2,1
1532162680768,-3,-2,-2,0,-5,2,-1,-4
1532162680773,-2,-2,1,-1,-3,-17,-1,-2
1532162680778,2,3,5,15,2,-7,1,2
1532162680783,0,3,6,6,17,19,-2,-5
1532162680788,-2,-6,-2,-10,-15,9,3,-1
1532162680793,1,-3,-5,-8,-2,-35,-5,-1
1532162680798,-1,-2,-2,-1,-2,1,-1,-2
1532162680803,0,4,9,4,-2,-7,0,0
1532162680808,0,-1,-3,10,8,-2,-1,-3
1532162680813,1,1,2,0,-5,-5,-3,1
1532162680818,0,-4,-12,-12,-11,14,0,0
1532162680823,-2,-4,-5,-5,-2,21,0,-4
1532162680828,3,3,1,-2,-4,-4,-1,3
1532162680833,-3,-3,-4,-1,-7,-3,-2,-1
1532162680838,0,4,11,12,16,-1,4,-2
1532162680843,-1,-3,-6,-2,-12,20,-2,-1
1532162680848,-3,-5,-8,-14,-11,-9,0,-3
1532162680853,-2,-1,-1,-6,-6,-12,-2,-2
1532162680858,-1,0,-1,0,7,-10,-5,-2
1532162680863,0,3,4,8,2,1,1,1
1532162680868,2,3,8,13,7,13,-3,-1
1532162680873,1,-1,-5,-6,-8,-29,0,4
1532162680878,-3,-7,-7,-11,-6,3,-2,-3
1532162680883,-3,-4,-6,-5,2,2,-2,-2
1532162680888,-1,-1,3,2,-2,-23,3,-1
1532162680893,2,3,4,4,14,-26,-2,4
1532162680898,0,1,2,8,4,5,0,-1
1532162680903,-3,-3,-3,-8,-8,-18,0,-1
1532162680908,-2,-1,-6,-10,-4,7,-5,-1
1532162680913,-1,-1,-1,-4,-6,13,1,-1
1532162680918,-2,-2,-3,-3,2,-2,0,-1
1532162680923,2,8,15,36,11,3,2,3
1532162680928,0,-3,-4,-7,5,3,2,1
1532162680933,-5,-3,-11,-16,-8,-7,-7,-4
1532162680938,-1,0,-2,-5,-8,-10,-1,-1
1532162680943,0,-1,-1,-8,-1,8,-1,-2
1532162680948,-2,1,10,22,5,-7,1,-3
1532162680953,2,-5,-3,7,0,13,-1,0
1532162680958,-2,-2,-2,-13,-3,-4,-3,1
1532162680963,-4,-5,-12,-13,-6,1,0,-3
1532162680968,-2,7,8,-6,-1,-23,-4,-1
1532162680973,0,-6,-8,1,-3,5,-3,-2
1532162680978,-1,-3,6,13,9,-1,-1,-1
1532162680983,4,0,-5,2,6,47,9,5
1532162680988,1,5,12,3,3,-13,-4,-2
1532162680993,-2,-3,-3,-9,-5,-7,3,0
1532162680998,-1,4,-20,-4,-7,-5,3,-1
1532162681003,-2,-12,49,-5,-8,-22,-6,-1
1532162681008,0,3,-89,-1,4,4,0,-1
1532162681013,1,4,11,5,6,13,5,1
1532162681018,-3,5,15,-11,-5,47,2,-2
1532162681023,1,-9,-13,-4,-4,-60,-4,0
1532162681028,-1,-9,16,4,-1,11,0,0
1532162681033,-2,1,-3,3,6,21,1,-3
1532162681038,1,-1,-9,-5,-7,1,-4,-2
1532162681043,-2,9,7,0,3,10,1,-2
1532162681048,0,0,23,-1,-2,29,-5,0
1532162681053,-1,-1,2,1,-6,-40,1,-1
1532162681058,-1,-6,-10,-11,0,-14,-4,1
1532162681063,0,-1,-12,-2,0,12,-3,-1
1532162681068,-1,-1,2,0,-1,-17,-1,-1
1532162681073,-1,2,4,3,6,15,2,-4
1532162681078,1,-2,4,1,4,14,0,0
1532162681083,3,7,-26,-9,-16,-20,-3,2
1532162681088,-2,-10,4,-3,-3,-22,-1,-2
1532162681093,-2,-2,5,-4,5,47,0,-1
1532162681098,1,7,11,17,13,7,2,0
1532162681103,-1,1,30,1,2,-3,-5,-3
1532162681108,1,-4,-48,-6,-8,-26,4,3
1532162681113,-1,-9,-18,-9,-5,-23,-1,-1
1532162681118,1,11,-6,-1,-9,-16,-1,1
1532162681123,-4,1,1,3,10,-7,2,-2
1532162681128,3,3,28,2,3,49,0,2
1532162681133,-2,-2,-10,-5,0,-10,1,-2
1532162681138,1,5,26,15,9,-1,3,0
1532162681143,0,-1,-43,-8,-15,13,1,-3
1532162681148,-3,6,72,-5,0,-49,-9,-2
1532162681153,-3,-15,-96,-15,-10,2,-1,-1
1532162681158,-3,-12,11,-7,-4,2,-3,-3
1532162681163,1,4,4,10,1,-13,-2,-2
1532162681168,1,-12,11,4,-1,-24,1,-2
1532162681173,-1,8,29,5,3,9,-2,-1
1532162681178,-2,-13,-3,8,-3,1,-2,-2
1532162681183,-1,-1,6,-19,-6,-10,-7,0
1532162681188,0,0,-3,-9,-3,33,5,-1
1532162681193,-2,-14,-27,4,-2,35,3,1
1532162681198,-2,-6,-26,-6,0,-56,-3,-2
1532162681203,0,-1,29,9,7,-17,-5,0
1532162681208,0,6,15,6,-2,14,0,1
1532162681213,-1,-3,34,-3,-2,-8,-2,-1
1532162681218,2,25,-39,9,12,37,4,2
1532162681223,-1,-12,-16,-15,-8,-2,5,0
1532162681228,-3,2,-25,-9,-18,-21,-12,-3
1532162681233,0,1,15,7,11,40,3,0
1532162681238,1,-4,19,-7,-6,10,-3,-2
1532162681243,0,5,6,13,8,-29,-2,-1
1532162681248,1,2,-43,7,12,-4,-1,-1
1532162681253,-3,-2,38,-6,-8,3,-5,-2
1532162681258,0,-5,-7,-9,-7,-43,-3,3
1532162681263,-2,-5,-10,-4,7,23,6,0
1532162681268,-1,0,23,1,1,13,3,-3
1532162681273,2,11,3,2,-7,-6,-3,-2
1532162681278,-3,-15,7,4,7,-19,3,-2
1532162681283,-3,-4,13,-4,-8,-8,5,-2
1532162681288,-1,-8,-38,-3,-4,-30,1,2
1532162681293,0,9,1,10,11,19,5,0
1532162681298,-2,-1,7,-16,-17,-6,-5,-2
1532162681303,-2,1,-1,11,-1,0,-1,0
1532162681308,-1,-3,7,-6,4,55,3,1
1532162681313,-3,-6,11,-8,-6,-48,-4,-2
1532162681318,0,-2,-9,1,0,0,-2,-1
1532162681323,-2,-17,-1,1,0,38,-4,-2
1532162681328,-2,16,-30,7,6,53,4,0
1532162681333,0,-1,-1,-1,-15,-114,-14,0
1532162681338,1,-6,-1,-1,10,66,4,0
1532162681343,-1,6,4,-7,-5,-8,-6,-2
1532162681348,-2,-11,-2,-2,-4,-27,-3,0
1532162681353,1,9,7,4,0,51,3,0
1532162681358,-2,-9,28,-7,1,-37,-6,-2
1532162681363,2,-3,-77,-2,0,-1,1,0
1532162681368,-1,15,38,0,-5,-1,3,-3
1532162681373,0,-5,-36,0,2,-28,0,2
1532162681378,3,4,9,11,5,-1,1,-1
1532162681383,-2,1,6,4,3,-8,-1,-3
1532162681388,-1,-22,18,-16,-10,30,1,2
1532162681393,1,30,55,-2,-18,-100,-10,-2
1532162681398,2,-6,-103,-4,6,63,6,2
1532162681403,-1,9,30,6,6,8,1,-1
1532162681408,-2,1,-5,6,6,-7,0,-2
1532162681413,-1,-4,11,-1,4,16,-1,-2
1532162681418,1,5,23,3,0,1,4,2
1532162681423,3,3,16,3,-2,7,6,2
1532162681428,0,-5,-19,-3,2,-31,-5,0
1532162681433,0,-19,3,-3,-3,36,4,1
1532162681438,-3,16,-5,-9,-11,-1,-4,-2
1532162681443,-4,-5,-13,1,3,-27,2,-4
1532162681448,0,2,14,-3,1,13,2,-3
1532162681453,2,-1,-9,7,2,-42,-1,0
1532162681458,1,-7,38,-2,0,8,-6,0
1532162681463,-3,-12,15,-13,-5,15,1,0
1532162681468,-2,0,-22,-4,-5,-3,0,-4
1532162681473,-3,-2,-14,-2,0,15,0,-3
1532162681478,-3,4,5,-3,-12,8,-3,-1
1532162681483,1,5,13,5,2,-49,-6,-1
1532162681488,1,-1,4,6,4,-9,6,0
1532162681493,-2,-4,-13,-6,-10,2,-6,-4
1532162681498,-2,-5,9,1,5,49,6,0
1532162681503,0,-1,-16,-15,-10,-46,-7,0
1532162681508,1,-2,-5,-2,-5,35,-4,0
1532162681513,-1,4,-2,4,9,0,8,2
1532162681518,-1,0,-1,1,-3,16,-6,-4
1532162681523,-2,-1,-6,7,-8,-4,6,0
1532162681528,-1,0,3,-1,2,-5,-5,-1
1532162681533,0,0,-7,-1,4,9,1,-1
1532162681538,-3,-3,-3,0,-3,-37,6,1
1532162681543,1,3,-5,-5,6,29,2,2
1532162681548,-2,-2,1,-1,-12,-36,-8,-4
1532162681553,0,2,3,0,5,22,10,1
1532162681558,-1,-6,-13,-6,-7,-14,-4,-2
1532162681563,2,2,-2,1,3,40,4,2
1532162681568,-3,2,6,4,3,8,-5,-3
1532162681573,0,-6,-10,-8,-4,-26,4,2
1532162681578,1,2,1,6,4,-38,6,2
1532162681583,-1,0,1,-8,-29,25,-2,-5
1532162681588,1,-6,19,10,18,24,-4,0
1532162681593,1,9,-39,3,7,17,-2,-3
1532162681598,-3,-1,9,1,2,-26,0,-5
1532162681603,0,1,1,2,-12,-46,-8,2
1532162681608,-16,-7,-9,-13,-10,43,0,-7
1532162681613,15,1,9,-1,4,51,-4,0
1532162681618,1,3,10,4,-4,-66,-5,0
1532162681623,1,10,24,10,15,44,5,-2
1532162681628,1,-5,-27,-12,-11,-40,4,3
1532162681633,-5,-5,0,-13,-14,-33,-6,-2
1532162681638,0,-2,-9,-2,7,62,-2,0
1532162681643,-3,0,13,3,20,34,-3,-2
1532162681648,4,7,13,11,14,-13,1,3
1532162681653,-4,-4,16,10,6,15,1,-1
1532162681658,5,22,0,-9,-23,-41,-6,2
1532162681663,-2,-27,-32,-9,-1,0,-2,-2
1532162681668,3,-2,3,-1,4,-22,13,4
1532162681673,0,5,-5,7,15,-3,-2,2
1532162681678,-3,-3,14,7,8,-20,-4,-2
1532162681683,1,4,-3,-3,0,28,0,1
1532162681688,0,5,-7,-8,-19,-26,-6,-3
1532162681693,-4,-17,-8,-3,-1,6,-1,-3
1532162681698,-3,-5,4,0,6,4,2,0
1532162681703,-1,1,-2,2,6,-17,-2,-1
1532162681708,2,-6,0,2,0,8,-1,-3
1532162681713,-1,7,12,1,-6,-31,-10,-1
1532162681718,0,-4,-16,7,8,17,0,0
1532162681723,1,8,-24,-17,-17,27,8,2
1532162681728,-1,-13,17,-8,-14,-54,-11,-1
1532162681733,-5,2,2,-6,0,-35,4,1
1532162681738,-6,-12,-4,-4,6,49,-1,-5
1532162681743,0,14,20,10,15,73,4,0
1532162681748,0,14,19,11,-5,-76,-11,0
1532162681753,-6,-9,-18,-20,-7,42,1,-4
1532162681758,-1,-19,-10,-5,-14,-52,-1,-1
1532162681763,-1,1,-1,0,4,-11,-2,-1
1532162681768,-2,4,6,4,12,80,0,-1
1532162681773,1,3,38,7,-1,-17,1,0
1532162681778,-3,-2,-38,-8,-8,-6,-2,-3
1532162681783,0,6,23,9,4,-18,-7,-2
1532162681788,2,-16,-54,-3,-7,6,0,1
1532162681793,-1,-4,18,-7,-5,-11,0,1
1532162681798,-1,-6,16,-4,0,20,4,0
1532162681803,-2,-5,-30,-5,-11,-29,-3,0
1532162681808,-2,4,51,10,17,11,2,-3
1532162681813,0,4,-12,9,-2,18,-3,0
1532162681818,2,0,32,5,-6,23,0,2
1532162681823,-2,7,-35,-22,-3,-40,1,-3
1532162681828,0,4,-21,0,-3,1,-1,-1
1532162681833,-3,-4,-11,1,0,20,6,-1
1532162681838,0,11,4,3,2,-10,-5,0
1532162681843,-1,-2,23,14,7,-11,2,0
1532162681848,-1,-6,-12,-6,-1,12,2,-1
1532162681853,-2,12,6,-4,-11,-16,-6,-2
1532162681858,4,-14,-15,-1,2,-17,5,4
1532162681863,-2,-8,-2,-2,-10,24,1,-1
1532162681868,-1,1,-12,-9,6,-5,6,2
1532162681873,-1,-1,5,6,5,-11,-7,-4
1532162681878,-1,10,28,3,3,-1,-3,-2
1532162681883,0,-12,-23,-2,-10,-30,-2,0
1532162681888,-1,-7,11,0,0,65,5,1
1532162681893,-2,-6,0,-5,-1,-17,-5,-2
1532162681898,-2,-1,-5,-6,5,43,8,0
1532162681903,0,0,-3,3,4,-8,-1,0
1532162681908,-2,2,16,12,9,-11,-1,-3
1532162681913,1,-4,-4,4,-5,-2,-1,0
1532162681918,-1,3,-4,-9,-7,7,0,0
1532162681923,-3,-12,30,-11,2,-9,-1,-3
1532162681928,1,12,-11,-5,-7,-20,-5,-1
1532162681933,-4,-12,-28,1,7,17,2,-3
1532162681938,-2,8,-4,10,5,-5,-1,0
1532162681943,-2,0,12,4,-4,-19,-3,0
1532162681948,-4,2,-4,-7,-4,18,-2,-1
1532162681953,-1,1,-10,-3,-4,11,1,0
1532162681958,-1,-11,-14,-6,-7,7,-1,0
1532162681963,-1,1,-2,0,3,-29,-1,0
1532162681968,-1,0,-9,2,-5,-13,-4,-1
1532162681973,2,1,9,2,2,7,2,4
1532162681978,-3,-2,-1,-5,-3,-9,-4,-4
1532162681983,-1,1,1,8,12,29,0,-2
1532162681988,3,-3,-16,-1,-15,-21,3,3
1532162681993,-2,-1,4,-12,3,-1,1,0
1532162681998,-2,3,-2,-7,-18,-31,-6,-2
1532162682003,-1,-3,-7,1,5,-12,-7,-2
1532162682008,0,0,12,6,15,48,0,-1
1532162682013,0,0,2,5,-2,19,6,1
1532162682018,-2,0,-5,-9,-7,-44,-6,-2
1532162682023,-1,-1,1,1,-14,-3,1,-1
1532162682028,-2,-3,-3,-1,15,-18,-1,-3
1532162682033,2,3,3,12,39,26,-1,0
1532162682038,-1,1,0,-8,-57,-6,7,1
1532162682043,1,0,2,-14,-4,2,2,3
1532162682048,-1,-4,-10,-12,-22,-12,2,-2
1532162682053,-1,4,-1,0,-3,-17,5,-1
1532162682058,0,-4,1,9,33,25,-2,0
1532162682063,-1,-3,-4,-6,-5,-10,-6,-4
1532162682068,-1,-2,-2,-2,-6,-2,0,-2
1532162682073,-3,-2,-1,-3,-7,-5,0,0
1532162682078,1,5,6,11,15,3,4,1
1532162682083,-2,-3,-2,3,-4,11,-1,-2
1532162682088,1,5,0,5,6,-8,-2,0
1532162682093,-1,-8,12,-12,-23,-9,-4,-1
1532162682098,-2,-4,-16,-1,15,3,2,-3
1532162682103,-2,1,0,3,-2,23,4,0
1532162682108,-1,-1,1,1,2,-5,-4,-2
1532162682113,-3,5,5,13,1,1,-9,-7
1532162682118,1,1,3,1,7,7,0,2
1532162682123,-2,-7,-13,-25,-16,-10,0,1
1532162682128,-2,0,-3,-4,-5,-7,-3,-2
1532162682133,-1,1,-6,-5,13,5,-1,-2
1532162682138,0,2,4,7,-7,-5,-3,-2
1532162682143,0,2,5,23,20,8,-1,0
1532162682148,-1,0,0,-24,-26,-7,-1,1
1532162682153,-1,-2,-7,6,4,0,-1,1
1532162682158,-3,-4,-5,-11,17,-10,7,0
1532162682163,1,-3,-4,-4,1,6,-8,-1
1532162682168,-4,-8,-4,-1,3,1,5,-2
1532162682173,1,0,-1,1,-6,5,2,0
1532162682178,1,1,3,-2,-2,-18,-2,0
1532162682183,-2,2,1,14,10,6,-2,-3
1532162682188,-1,2,1,-1,9,-7,0,0
1532162682193,1,0,-4,-3,-7,0,4,3
1532162682198,-2,-2,3,3,15,7,-7,-4
1532162682203,1,1,3,2,-22,-8,-3,-3
1532162682208,3,-2,-3,6,0,-4,1,3
1532162682213,-3,-7,-10,-18,-10,-5,1,-1
1532162682218,1,1,1,4,0,-8,-5,0
1532162682223,-1,-2,-3,-8,9,10,7,-2
1532162682228,-3,-7,5,7,-14,-21,0,-1
1532162682233,4,4,6,13,22,3,-1,3
1532162682238,-3,-3,-2,-11,-22,-9,-2,-1
1532162682243,-2,-2,2,4,0,-1,-1,-1
1532162682248,0,2,0,1,11,18,3,0
1532162682253,-2,-4,-6,-6,-8,-6,0,-3
1532162682258,-2,-1,4,8,23,4,-2,-2
1532162682263,2,3,2,-1,-5,2,5,0
1532162682268,0,2,2,8,5,-2,1,-1
1532162682273,-2,-1,-3,-4,-10,-1,-6,-2
1532162682278,1,0,-3,-8,-3,1,3,0
1532162682283,-3,-3,-4,-9,-20,-8,-3,-1
1532162682288,0,2,2,6,13,-6,-5,-3
1532162682293,-2,-3,-2,-1,-8,0,-1,1
1532162682298,-1,0,-1,3,-12,-11,-3,-2
1532162682303,-1,-2,2,0,14,28,0,-1
1532162682308,-1,-2,-6,-1,-3,-11,0,-1
1532162682313,1,0,1,-2,1,0,2,0
1532162682318,-1,0,-3,-2,-7,6,1,-1
1532162682323,-2,-4,-5,-7,-11,-28,-7,0
1532162682328,-1,0,2,3,4,-18,4,-1
1532162682333,0,0,1,2,2,-1,-4,-4
1532162682338,-3,-3,2,0,-3,-5,0,-1
1532162682343,-1,-6,-4,-4,-3,-11,0,0
1532162682348,-1,3,3,5,4,19,1,0
1532162682353,0,-2,-2,-3,-3,-15,0,1
1532162682358,-1,-3,-6,-7,-14,-11,-2,-2
1532162682363,0,2,0,4,5,24,5,-2
1532162682368,-2,-3,-3,-4,9,-2,-4,-1
1532162682373,-2,3,2,2,-2,8,-1,-4
1532162682378,1,1,0,-1,0,-4,-2,2
1532162682383,-1,-1,0,1,7,-4,-1,-1
1532162682388,-2,2,0,-4,-11,4,-2,1
1532162682393,-3,-2,-5,0,-12,-4,-4,-3
1532162682398,0,0,0,-5,8,12,4,3
1532162682403,0,2,-1,-2,-5,-14,-2,-1
1532162682408,0,0,1,-1,8,11,1,-1
1532162682413,-1,-1,1,3,2,0,0,-1
1532162682418,-1,-3,-1,-1,-10,-8,-5,-4
1532162682423,0,-1,2,2,9,1,-1,-1
1532162682428,0,-1,-3,2,1,-34,-5,-4
1532162682433,-1,3,0,4,-2,-5,-1,0
1532162682438,-1,-1,-2,2,20,17,-1,1
1532162682443,1,-1,-5,-5,-7,0,-1,1
1532162682448,-1,0,0,-2,-16,3,-3,-2
1532162682453,-3,-7,-5,-4,-6,-5,1,-2
1532162682458,-1,-3,-2,-2,1,13,0,-1
1532162682463,-1,-1,3,1,2,-27,-3,-2
1532162682468,1,1,1,4,-3,18,1,-1
1532162682473,0,5,1,-9,-6,-1,-3,0
1532162682478,-2,-3,-2,-1,-9,-3,1,-3
1532162682483,-1,2,0,-1,7,-2,-1,0
1532162682488,-2,0,-2,-1,-4,-7,-3,-3
1532162682493,2,0,1,2,9,6,2,2
1532162682498,-2,-3,0,-2,-3,-3,2,-1
1532162682503,-1,1,4,5,0,29,4,2
1532162682508,-1,2,2,2,17,9,-1,0
1532162682513,-1,-2,-5,-6,-7,-2,-1,-2
1532162682518,2,2,1,4,-5,-8,-5,-2
1532162682523,0,4,8,6,7,3,3,-2
1532162682528,0,-7,-13,-1,8,3,-4,-1
1532162682533,0,-1,2,0,-13,-7,1,0
1532162682538,0,-2,-3,-10,4,5,-1,1
1532162682543,0,3,3,6,1,7,6,-1
1532162682548,-1,-1,2,-2,-3,4,4,-1
1532162682553,0,-3,-1,4,3,-26,2,0
1532162682558,1,1,1,5,-7,14,3,2
1532162682563,-1,-2,-2,-11,-5,4,0,-1
1532162682568,1,-9,-7,1,2,-32,-4,4
1532162682573,-1,3,1,1,-1,7,1,1
1532162682578,-3,0,-1,-5,-11,2,4,-4
1532162682583,-1,-2,-5,-6,-6,-6,2,-1
1532162682588,-1,-1,-3,-6,2,25,4,0
1532162682593,-1,-5,4,2,2,18,-2,-1
1532162682598,0,-1,-9,2,1,-16,-4,-1
1532162682603,-2,0,4,6,2,4,-1,-3
1532162682608,-3,-1,32,-3,-8,-16,-5,-3
1532162682613,2,4,-33,2,-1,7,-8,2
1532162682618,0,1,10,-2,3,10,5,0
1532162682623,1,-9,-18,4,-3,10,-8,1
1532162682628,-1,-1,-4,-15,-12,-20,9,-1
1532162682633,-2,0,10,-2,2,0,2,-3
1532162682638,-1,-1,-2,3,2,-3,0,1
1532162682643,-3,-2,-4,-8,0,-16,0,-1
1532162682648,0,2,2,10,7,4,0,-2
1532162682653,0,-2,0,-7,-6,16,1,-4
1532162682658,0,1,-1,-2,-4,-4,1,1
1532162682663,-1,-5,-1,0,-1,-15,-2,-2
1532162682668,0,3,0,-2,6,21,1,1
1532162682673,0,-7,-8,-7,-7,-20,-1,-2
1532162682678,0,-1,2,6,2,2,5,2
1532162682683,0,3,5,-3,0,25,5,1
1532162682688,-3,-4,-14,-2,3,-13,-4,-2
1532162682693,-2,4,7,-5,3,-2,2,0
1532162682698,-2,-2,3,0,-6,-12,-6,-3
1532162682703,0,2,-1,9,7,2,-2,1
1532162682708,-1,4,9,-2,-8,-10,-4,-1
1532162682713,-1,-5,-9,-3,-1,15,-1,0
1532162682718,-1,-2,-7,-6,-3,-12,0,-2
1532162682723,0,0,-1,-6,2,-1,2,1
1532162682728,0,1,20,5,-1,4,-3,-1
1532162682733,1,-5,-22,0,8,-1,-2,-1
1532162682738,-2,-1,-2,-4,-4,-7,-3,-1
1532162682743,-1,-1,2,-6,0,19,2,-1
1532162682748,-1,0,-7,0,-3,-10,3,1
1532162682753,0,2,12,6,-2,19,5,0
1532162682758,-1,-3,-2,0,7,-5,-6,-5
1532162682763,0,0,0,-1,-10,-27,-7,2
1532162682768,-1,0,10,-1,-1,3,-1,-3
1532162682773,-1,-3,-18,5,4,-2,3,0
1532162682778,-1,3,6,-5,-6,-1,-3,-2
1532162682783,0,-2,5,3,-4,4,2,-2
1532162682788,0,-5,-36,0,-2,2,1,0
1532162682793,-2,2,16,1,4,-21,-3,0
1532162682798,0,-4,2,2,0,21,2,0
1532162682803,1,1,0,-2,-2,-1,2,0
1532162682808,-1,1,1,-1,1,33,2,-2
1532162682813,-1,1,7,2,0,-36,-7,-3
1532162682818,3,2,-7,5,0,4,2,6
1532162682823,-2,-7,-4,-10,2,-10,-7,-4
1532162682828,-2,0,5,0,-8,2,1,0
1532162682833,-3,-7,-13,-5,3,20,7,0
1532162682838,-1,2,4,-2,-7,1,2,4
1532162682843,-1,0,-3,8,5,-2,0,0
1532162682848,1,1,-7,-5,-7,-15,2,2
1532162682853,-1,-1,13,-3,4,-2,-4,-3
1532162682858,0,-10,-10,-5,-3,-9,-5,-2
1532162682863,-1,7,2,2,-6,-1,3,-1
1532162682868,-2,-5,-7,-8,-5,-1,-1,-2
1532162682873,2,8,18,4,0,-4,3,1
1532162682878,-3,-4,-5,2,3,-1,-4,-5
1532162682883,-1,-3,1,-3,2,1,5,-1
1532162682888,1,-4,-10,0,-3,-9,-1,-2
1532162682893,-2,-3,-6,-4,-8,2,3,0
1532162682898,-3,-1,5,-6,2,5,-1,-1
1532162682903,0,-3,-6,-2,-7,-11,0,0
1532162682908,1,3,8,7,5,5,3,1
1532162682913,1,-4,1,-2,-6,-10,-2,-1
1532162682918,0,4,-2,6,11,-15,0,-1
1532162682923,-4,-5,-4,-17,-19,6,1,-4
1532162682928,0,2,-2,3,5,-4,7,2
1532162682933,3,3,5,5,1,9,-1,1
1532162682938,-1,-2,6,0,4,10,4,0
1532162682943,1,-1,1,8,9,-5,-5,-3
1532162682948,-1,-3,-3,-4,2,10,3,0
1532162682953,-5,-1,-1,-7,-5,-2,2,-3
1532162682958,2,-3,-7,0,-4,3,2,1
1532162682963,0,1,1,3,6,5,0,0
1532162682968,-1,-1,6,1,1,-2,-1,-1
1532162682973,-2,-1,0,7,0,-11,-6,-2
1532162682978,0,-4,0,-15,-15,-3,3,-1
1532162682983,-1,-4,-21,-3,-4,-4,0,-1
1532162682988,-2,-2,4,1,3,-7,-6,-2
1532162682993,0,-1,-7,-6,-13,-2,1,1
1532162682998,0,3,4,3,5,1,2,-1
1532162683003,-2,-2,1,4,0,0,-1,1
1532162683008,0,-1,-4,1,0,1,-2,-1
1532162683013,-2,-1,1,2,1,7,0,-1
1532162683018,-2,-2,-6,-7,2,-6,0,-3
1532162683023,-1,-2,4,-2,-1,-15,-6,-1
1532162683028,-2,0,-8,-8,-16,-10,-2,-1
1532162683033,-1,2,5,-1,2,2,0,-1
1532162683038,-1,-1,5,1,4,11,5,2
1532162683043,0,2,-1,10,7,3,-2,-1
1532162683048,-2,-4,-4,-9,-5,-5,2,-3
1532162683053,-2,-1,-1,-1,5,33,7,0
1532162683058,-1,0,-2,1,-12,-67,-20,-2
1532162683063,0,4,10,12,10,26,6,1
1532162683068,-2,-5,-7,-8,0,-14,-1,0
1532162683073,0,-3,-3,-5,-2,0,-3,-1
1532162683078,-2,-7,-12,-2,0,17,4,-1
1532162683083,1,2,4,-2,-4,-6,-4,-2
1532162683088,-2,0,17,9,4,1,1,-2
1532162683093,-3,2,-10,0,6,-1,-4,0
1532162683098,0,-1,1,-1,5,5,3,-1
1532162683103,-3,-4,1,-6,-11,-8,2,0
1532162683108,0,1,1,3,9,18,1,0
1532162683113,1,0,0,-2,-8,-9,0,0
1532162683118,0,3,-2,-1,-8,4,0,-2
1532162683123,-2,-3,-3,-5,-5,2,2,0
1532162683128,2,-3,-10,-6,1,-10,-3,1
1532162683133,0,-3,-2,-1,-6,-9,3,-1
1532162683138,-1,0,1,-4,0,4,2,-1
1532162683143,1,4,8,4,-4,-21,-2,-2
1532162683148,-1,-3,-1,-2,1,3,3,0
1532162683153,0,-4,-5,-4,-2,0,4,-1
1532162683158,0,-1,0,2,18,4,-1,0
1532162683163,-1,0,0,-1,-7,-2,-1,0
1532162683168,-1,0,0,2,-1,2,-5,-2
1532162683173,0,3,1,-3,0,4,-10,0
1532162683178,-1,-3,-3,0,-7,-6,-1,0
1532162683183,-1,2,3,7,-3,-22,-16,-1
1532162683188,0,-2,-2,2,14,0,2,1
1532162683193,-1,-2,-4,-11,-8,-3,7,-2
1532162683198,0,-2,0,-1,-9,15,13,-1
1532162683203,-1,-1,-1,0,4,3,4,-2
1532162683208,1,4,8,4,-9,-5,2,-2
1532162683213,3,-1,-3,2,-1,-6,2,2
1532162683218,-3,-5,-4,-13,4,3,7,-3
1532162683223,0,1,0,-3,-13,-1,4,-2
1532162683228,-1,-2,-1,-2,0,3,2,-1
1532162683233,-2,2,4,10,6,7,3,-1
1532162683238,0,2,0,10,3,-9,-3,-1
1532162683243,-3,-6,-9,-19,-2,-5,4,-1
1532162683248,1,0,-2,-15,-22,22,8,0
1532162683253,-2,-2,0,6,3,-19,-1,-2
1532162683258,-1,1,2,4,-5,2,-2,-1
1532162683263,-1,0,3,4,0,-4,4,0
1532162683268,0,0,-1,4,4,-7,-1,0
1532162683273,0,-3,-4,-2,21,6,6,-2
1532162683278,-2,-3,-3,-7,-35,-22,2,-2
1532162683283,1,-2,0,3,7,10,-3,0
1532162683288,0,0,2,2,-1,-9,3,0
1532162683293,0,3,5,9,2,1,-2,0
1532162683298,-1,-3,-2,1,12,13,5,0
1532162683303,-3,-7,-10,-16,-17,-8,3,0
1532162683308,-2,-3,-4,-4,8,3,0,-1
1532162683313,0,0,2,2,-11,11,5,0
1532162683318,0,0,2,-1,-7,-7,-2,-2
1532162683323,-2,2,2,5,1,3,0,-4
1532162683328,-2,-3,-3,0,1,-8,-7,0
1532162683333,0,-2,-1,-2,0,2,2,0
1532162683338,-1,0,2,2,8,2,0,1
1532162683343,1,4,7,8,-3,0,-5,1
1532162683348,0,-7,-8,-5,-5,-2,6,0
1532162683353,-1,-5,-6,-14,-15,-5,2,0
1532162683358,-1,0,-5,-9,4,-1,-3,-4
1532162683363,0,0,1,4,7,25,-1,-1
1532162683368,-2,3,6,8,5,-19,0,-1
1532162683373,0,-1,-3,1,-5,-5,-2,1
1532162683378,-2,-4,-4,-7,-1,-4,-3,0
1532162683383,2,1,2,3,9,-1,0,0
1532162683388,-3,1,-2,-6,0,4,-5,-1
1532162683393,-3,-2,-1,-1,3,4,-3,-2
1532162683398,-2,0,-2,2,-1,0,-4,0
1532162683403,0,3,2,2,-5,-36,-5,1
1532162683408,-2,-7,-5,2,6,-2,1,-1
1532162683413,-1,-1,-7,-14,-10,13,7,0
1532162683418,1,2,6,15,29,-7,-1,-1
1532162683423,-1,-4,-5,-5,-34,9,7,0
1532162683428,1,0,-2,-7,-4,4,-1,-1
1532162683433,0,3,0,1,-13,-14,-7,-1
1532162683438,0,1,4,10,12,11,2,-1
1532162683443,-3,-3,-6,-4,23,9,2,-3
1532162683448,0,0,2,0,-2,-10,2,0
1532162683453,-1,-3,-2,1,3,-7,1,-3
1532162683458,-1,0,0,-1,3,-2,2,0
1532162683463,1,-2,1,-2,-19,-8,11,-1
1532162683468,-1,1,-4,-1,-12,18,4,0
1532162683473,0,-1,1,4,11,-14,1,-1
1532162683478,-1,0,4,8,0,8,-4,-1
1532162683483,-1,0,1,2,5,12,2,-1
1532162683488,-1,0,1,1,0,0,0,1
1532162683493,0,0,1,5,18,-8,-7,-1
1532162683498,1,1,0,-4,-1,-11,-5,-1
1532162683503,0,-3,-4,-5,-13,18,8,-2
1532162683508,1,1,3,-1,-10,-17,5,0
1532162683513,-2,-3,0,-7,-8,-42,-1,-4
1532162683518,-1,-1,1,0,-3,23,-2,-1
1532162683523,0,4,5,6,9,-7,3,1
1532162683528,1,0,3,10,7,21,7,1
1532162683533,-3,-3,-4,-7,-8,8,4,-2
1532162683538,-2,-3,-6,-15,-17,-15,2,-2
1532162683543,0,-1,-1,4,7,-6,-4,-2
1532162683548,0,2,4,9,11,5,-3,-1
1532162683553,-2,-2,-6,-9,-11,6,1,-1
1532162683558,3,0,5,7,8,7,4,4
1532162683563,-3,-2,-4,-6,-3,-1,7,0
1532162683568,-2,3,3,1,2,-19,0,-3
1532162683573,0,-5,-6,-1,-9,-3,3,-3
1532162683578,-2,-1,-1,1,14,-7,-4,-1
1532162683583,-2,-1,3,1,17,14,2,-1
1532162683588,1,-1,-1,-3,-34,-16,5,1
1532162683593,-4,-2,-3,-6,6,17,1,-2
1532162683598,-2,-2,-5,-6,-11,-7,2,-3
1532162683603,0,-1,1,1,29,1,3,-1
1532162683608,-3,-2,-1,4,-4,-6,2,-1
1532162683613,2,2,2,5,12,7,-8,1
1532162683618,-4,-3,-3,1,-18,-7,-4,-2
1532162683623,1,-1,0,-9,-23,-5,-11,1
1532162683628,-1,-2,-5,-7,4,10,-3,-2
1532162683633,-1,2,5,6,-10,15,13,0
1532162683638,0,-1,0,6,3,-23,1,0
1532162683643,0,-3,-7,-9,-1,12,4,-2
1532162683648,0,-2,-1,-1,15,-40,4,0
1532162683653,-1,-3,-1,7,1,1,6,-1
1532162683658,1,1,2,1,-8,-3,2,-2
1532162683663,-1,1,0,5,6,41,7,2
1532162683668,-1,-2,-3,-9,-3,13,0,-2
1532162683673,-1,-1,-1,-1,-7,4,1,-1
1532162683678,0,-1,0,1,16,-3,-1,0
1532162683683,0,-2,-3,-1,-16,-17,6,-2
1532162683688,-3,-1,-1,-1,8,5,-3,-1
1532162683693,0,0,-2,-4,-17,8,-11,-1
1532162683698,2,0,-1,-2,8,24,9,0
1532162683703,-1,0,-3,-4,-4,-67,-5,1
1532162683708,0,-1,-2,-1,-1,44,4,0
1532162683713,0,-1,0,-3,-1,-6,-4,-3
1532162683718,-2,-1,-3,-7,-8,12,4,-1
1532162683723,-2,-1,0,2,2,9,0,-3
1532162683728,-1,-1,-1,1,-2,-8,1,0
1532162683733,0,0,1,0,11,1,5,1
1532162683738,-2,-2,-2,-4,-6,4,1,-2
1532162683743,-2,0,2,2,-1,-8,-5,-3
1532162683748,-1,-1,-1,-1,-1,4,1,-1
1532162683753,0,0,-2,0,1,-6,-5,-1
1532162683758,-2,-2,-1,-1,-7,-9,0,0
1532162683763,0,1,1,3,1,-2,-1,-2
1532162683768,-1,-1,-3,-2,-3,1,-3,-1
1532162683773,-1,0,-2,-3,1,12,5,0
1532162683778,-1,0,1,0,-2,-10,-3,-1
1532162683783,0,-1,0,0,1,-11,-8,-1
1532162683788,0,0,1,3,2,-3,3,-2
1532162683793,-1,0,0,1,5,7,-2,-1
1532162683798,-3,-3,-2,-4,-9,-11,6,-1
1532162683803,1,3,7,3,5,23,16,2
1532162683808,-2,-3,-3,-4,-7,-20,-32,-6
1532162683813,-2,0,0,-1,0,-2,3,-4
1532162683818,-2,0,1,-1,3,5,3,-9
1532162683823,-2,-1,2,-1,-3,5,0,8
1532162683828,3,0,-6,-7,-1,2,21,12
1532162683833,-1,-2,2,0,-1,-7,0,-5
1532162683838,-3,-1,-6,0,5,3,-10,-17
1532162683843,-3,-1,-1,0,-5,-4,0,11
1532162683848,-3,-3,1,1,-4,3,12,-10
1532162683853,-6,-3,-4,-1,6,-2,0,-11
1532162683858,5,0,-3,2,-1,-1,21,23
1532162683863,8,3,2,5,8,1,-5,31
1532162683868,3,-1,8,-1,-3,-2,6,-1
1532162683873,-2,-1,-3,-4,-3,7,3,-13
1532162683878,-6,-1,3,0,2,-2,5,-13
1532162683883,-3,-4,-6,2,-1,-6,0,-8
1532162683888,-2,-6,-5,-5,-14,-10,-3,-3
1532162683893,2,2,2,1,8,7,-1,-10
1532162683898,0,-1,-2,-6,-13,3,-24,4
1532162683903,-1,1,2,-3,1,-6,-18,-2
1532162683908,0,1,-2,7,9,10,-7,1
1532162683913,-1,-2,0,-1,-4,-30,-5,3
1532162683918,0,-1,-4,-8,-15,-5,3,5
1532162683923,-1,-1,-4,-6,0,15,0,-13
1532162683928,-2,-2,0,-3,-4,10,3,-5
1532162683933,2,3,9,1,-1,40,9,10
1532162683938,-1,-3,3,3,-1,-75,8,3
1532162683943,-3,0,-2,-3,-7,13,8,-12
1532162683948,-4,-3,-3,0,5,15,5,-5
1532162683953,0,2,-2,0,-5,-21,-3,9
1532162683958,-1,-1,4,-7,-8,34,-4,4
1532162683963,-2,-3,-11,-5,0,-17,-11,-19
1532162683968,0,1,4,5,11,54,0,12
1532162683973,-2,-2,-7,-9,-18,-6,-2,2
1532162683978,1,3,-1,0,6,-1,17,26
1532162683983,1,-3,0,1,-4,-36,0,-9
1532162683988,-22,3,-1,-2,-4,-59,-3,-3
1532162683993,27,-3,-2,7,12,32,11,-7
1532162683998,1,-2,-7,-5,0,39,-1,-8
1532162684003,1,-2,-2,-4,-7,-19,5,0
1532162684008,-1,1,-2,-2,3,30,7,1
1532162684013,-10,-3,3,2,2,-12,-3,0
1532162684018,1,-1,0,3,-2,-7,-4,0
1532162684023,-2,2,1,3,-4,-17,-4,-1
1532162684028,1,-3,-1,-1,3,11,-8,-13
1532162684033,-4,-3,-4,-4,11,-9,2,4
1532162684038,6,1,3,4,1,-11,-10,6
1532162684043,-4,-3,-6,-4,-5,-1,1,-4
1532162684048,5,1,2,1,-5,-19,-2,2
1532162684053,-2,-3,-3,-2,-3,39,11,-4
1532162684058,-6,-4,-5,-4,-1,-28,5,-10
1532162684063,0,-1,-4,-1,7,37,6,1
1532162684068,6,3,-1,-1,-3,-14,-2,2
1532162684073,-2,-1,1,2,1,1,-11,3
1532162684078,-5,-2,-2,0,2,-13,-23,-29
1532162684083,-3,0,1,-5,-6,37,5,8
1532162684088,7,-1,3,0,1,-25,7,20
1532162684093,-1,0,-6,-7,-10,-22,-2,8
1532162684098,-1,0,13,4,4,20,1,0
1532162684103,0,-5,1,1,6,1,-5,-15
1532162684108,-2,2,-8,-2,-2,9,-5,-7
1532162684113,-2,2,-3,1,-6,-20,-8,4
1532162684118,1,0,1,-1,-4,-31,4,-4
1532162684123,-2,1,4,3,4,19,-1,-7
1532162684128,1,0,-2,-1,3,23,3,5
1532162684133,-1,-2,5,4,0,-15,4,2
1532162684138,1,0,-7,-5,-15,-47,-5,6
1532162684143,-1,2,-7,0,-1,-7,4,-2
1532162684148,-2,-1,5,0,-6,-10,0,-11
1532162684153,-5,-6,-6,-2,2,35,-4,-9
1532162684158,-1,1,0,0,2,0,6,7
1532162684163,4,2,2,7,11,35,2,6
1532162684168,-1,1,0,-7,-5,-6,-11,-7
1532162684173,-3,-1,5,-3,-2,-18,-3,1
1532162684178,-2,-2,6,1,2,31,-1,-6
1532162684183,-6,-7,-9,-4,-6,6,1,-4
1532162684188,0,-2,0,2,5,18,7,-3
1532162684193,1,3,2,1,-1,-41,-11,9
1532162684198,1,0,-4,-2,2,20,3,12
1532162684203,1,-2,-1,1,-2,-14,-1,-3
1532162684208,-2,-2,-2,3,-3,-2,-1,-7
1532162684213,-1,-3,-8,-4,-8,-10,-1,-8
1532162684218,-2,-3,0,-2,6,20,5,-2
1532162684223,0,3,7,5,2,-25,-7,0
1532162684228,0,-8,-8,-4,-4,-14,1,-1
1532162684233,-1,4,-3,-3,-4,-11,1,-14
1532162684238,0,0,-4,3,12,60,1,15
1532162684243,-1,0,6,-2,-3,-14,-1,2
1532162684248,1,4,2,1,5,5,-1,4
1532162684253,-1,0,0,-1,1,-16,7,5
1532162684258,1,1,10,3,6,38,4,-5
1532162684263,-5,-4,-8,-5,-9,-24,-16,-1
1532162684268,0,-2,2,5,-3,-18,-8,-12
1532162684273,-4,-4,-6,-2,-1,24,-6,-4
1532162684278,-1,-1,1,-1,-4,-8,5,4
1532162684283,1,-1,0,-4,2,20,14,13
1532162684288,-1,-1,-2,-3,5,12,3,2
1532162684293,-2,0,3,-1,-6,1,-6,-6
1532162684298,-1,1,-7,0,0,-36,-3,-11
1532162684303,1,1,1,2,1,2,5,-3
1532162684308,0,-2,-7,-3,-8,-28,-5,2
1532162684313,-2,0,2,-3,0,34,-3,5
1532162684318,-1,-3,-6,-4,-5,-21,0,-2
1532162684323,-3,-2,3,0,-2,13,0,-2
1532162684328,0,-1,-5,1,6,11,6,1
1532162684333,1,2,4,4,-3,-39,-2,5
1532162684338,-1,-4,-7,0,-4,12,-4,-5
1532162684343,0,0,-5,-9,-8,10,2,-1
1532162684348,-2,-5,1,-1,-3,-36,0,3
1532162684353,1,4,0,1,4,9,-6,-3
1532162684358,-3,-1,-2,1,5,15,3,1
1532162684363,0,-2,-1,-3,-3,1,-4,-3
1532162684368,2,4,5,3,5,-30,0,3
1532162684373,-2,-3,-3,0,-3,-3,1,-2
1532162684378,-2,-1,3,1,5,14,0,-6
1532162684383,-1,-1,2,3,-6,-37,-10,-2
1532162684388,-3,-3,1,-1,-8,29,-5,-7
1532162684393,2,1,-4,2,5,-10,2,11
1532162684398,-1,-3,2,-8,-1,-11,-5,-3
1532162684403,0,-4,-5,1,3,13,5,-1
1532162684408,0,0,-1,-3,-4,1,-1,-4
1532162684413,0,-3,4,2,-3,-11,0,-8
1532162684418,-1,3,0,2,1,5,2,-2
1532162684423,-1,1,3,2,2,-13,-3,17
1532162684428,2,-1,-4,-7,-6,7,10,26
1532162684433,-2,-3,-12,-7,-7,-9,3,-5
1532162684438,-2,-1,-5,-2,-5,-25,-7,-19
1532162684443,-2,-2,4,5,7,24,-3,-12
1532162684448,-1,0,8,2,-8,7,1,-1
1532162684453,2,-4,-4,-6,0,7,7,11
1532162684458,1,3,-3,-5,7,13,7,7
1532162684463,-2,-2,-1,-1,-7,-21,-2,-10
1532162684468,-3,0,5,4,6,-10,-8,-6
1532162684473,-1,-3,-2,2,-1,24,-3,-10
1532162684478,0,-2,6,7,5,-4,-23,-3
1532162684483,-2,-5,-4,-8,-3,-3,2,6
1532162684488,3,-1,-8,-7,3,9,14,8
1532162684493,0,-1,0,-2,2,-11,-20,-2
1532162684498,-2,-2,-5,0,-9,-3,0,-6
1532162684503,-1,2,1,3,4,-8,-3,7
1532162684508,-5,-3,-3,-3,-1,-4,-7,-23
1532162684513,-2,-4,-2,-7,-3,16,9,14
1532162684518,5,3,5,6,7,-21,26,8
1532162684523,1,-1,-13,0,5,14,7,-4
1532162684528,0,3,-7,-1,-2,-5,-4,-4
1532162684533,-3,-1,4,1,4,-6,0,-11
1532162684538,-4,-2,-3,-6,-9,15,2,0
1532162684543,1,-1,2,-2,1,88,0,1
1532162684548,-2,-1,-4,1,-3,-47,-6,-2
1532162684553,0,0,0,1,-1,0,0,1
1532162684558,0,-1,-2,0,-8,-19,-5,4
1532162684563,0,0,0,-2,-2,-20,1,-4
1532162684568,-1,-1,1,3,2,42,-6,-1
1532162684573,0,-1,0,-6,-3,-6,9,2
1532162684578,-2,-1,3,0,-1,-17,-4,-2
1532162684583,-4,1,3,3,8,7,-4,-14
1532162684588,0,-2,2,-4,-10,-8,-4,12
1532162684593,-3,-1,-5,2,1,-30,-7,-7
1532162684598,-1,-2,-3,-4,-4,15,4,1
1532162684603,0,-1,-7,-8,-15,-52,-13,7
1532162684608,-2,0,-2,-2,17,61,33,-3
1532162684613,-1,-1,6,5,9,11,1,0
1532162684618,-1,0,-24,-6,0,9,-14,-11
1532162684623,-3,-3,2,-2,-19,-35,7,-4
1532162684628,0,-2,-3,-8,-13,-19,-10,10
1532162684633,1,1,0,4,3,12,-4,-8
1532162684638,-1,-2,5,6,8,23,8,1
1532162684643,-1,-1,0,-5,0,8,8,0
1532162684648,1,0,-1,2,-5,-49,-8,5
1532162684653,0,3,8,6,0,15,-2,2
1532162684658,-2,-3,-9,-7,-8,-20,-8,-4
1532162684663,1,0,0,-5,-1,26,12,-6
1532162684668,0,-2,1,1,2,8,-8,3
1532162684673,-1,0,2,0,-13,-21,8,3
1532162684678,0,0,3,2,11,14,-13,6
1532162684683,-1,2,-3,4,2,-10,-6,-2
1532162684688,-1,1,1,4,12,-2,-1,-4
1532162684693,0,-2,-4,-6,-11,-4,-18,-4
1532162684698,-2,-1,-2,-4,-11,-31,34,-9
1532162684703,0,0,2,2,5,-3,-6,8
1532162684708,0,0,0,2,-4,26,3,-5
1532162684713,0,-2,-3,-1,6,-5,6,9
1532162684718,2,0,5,-2,0,17,-9,-1
1532162684723,1,0,-2,-3,-14,-42,3,-7
1532162684728,-2,-1,-1,0,-6,10,-6,-8
1532162684733,-1,0,-2,1,7,11,2,-4
1532162684738,0,-1,8,1,0,-6,-5,8
1532162684743,1,-1,-7,1,6,17,0,-3
1532162684748,0,0,1,1,4,-8,-3,-2
1532162684753,-3,-2,-3,-5,1,2,7,1
1532162684758,-3,-1,0,-1,0,0,-16,-1
1532162684763,-1,0,3,4,4,4,10,0
1532162684768,-1,-1,0,-5,-7,-18,-4,-8
1532162684773,1,-2,-5,-4,-3,-3,4,6
1532162684778,1,1,-1,2,0,3,6,2
1532162684783,-1,-1,1,-1,0,-2,-12,2
1532162684788,1,1,0,1,2,-7,-6,-6
1532162684793,0,0,-3,1,-4,0,-1,-3
1532162684798,-2,-2,-6,-4,-14,-13,-2,-1
1532162684803,0,-2,-2,-7,15,53,-26,0
1532162684808,-1,-1,0,-4,-16,-61,7,-5
1532162684813,-1,0,0,3,0,-7,-2,13
1532162684818,-3,-1,1,1,2,0,-2,-2
1532162684823,-1,-1,-1,0,-1,6,9,-5
1532162684828,1,-2,-5,-4,4,19,-11,-6
1532162684833,-1,0,4,1,-5,-19,5,-6
1532162684838,1,-1,-6,-2,2,35,3,-1
1532162684843,-1,-1,-1,-3,-2,11,-1,-8
1532162684848,-1,0,0,-3,2,-1,7,-2
1532162684853,-1,-2,4,0,-4,-5,-6,-5
1532162684858,1,1,-1,2,1,-20,2,4
1532162684863,-2,0,-1,-4,6,21,6,-3
1532162684868,-1,-3,1,1,-5,-8,2,-1
1532162684873,-1,0,2,2,0,1,-5,1
1532162684878,-2,-3,-3,-3,-3,13,4,-1
1532162684883,2,1,2,1,3,13,1,-6
1532162684888,1,1,-6,-2,2,-21,-2,1
1532162684893,0,-3,-3,-1,-10,-5,2,1
1532162684898,-1,-2,0,-1,1,10,8,1
1532162684903,0,-2,-4,-3,-4,-5,1,-6
1532162684908,-2,-1,3,3,2,-1,-8,1
1532162684913,-2,-1,0,0,-3,-6,6,5
1532162684918,0,2,-3,-3,7,4,2,-6
1532162684923,0,-3,-1,-1,-2,18,3,11
1532162684928,1,0,-2,-2,-6,-12,-2,-7
1532162684933,-2,0,0,1,0,-23,-5,7
1532162684938,0,-1,1,3,1,15,8,1
1532162684943,-3,-2,-1,0,3,-6,-16,-8
1532162684948,-1,-3,-3,-4,-3,2,21,-1
1532162684953,-1,0,-2,0,2,1,0,-5
1532162684958,-2,-1,-2,-1,-4,3,-6,5
1532162684963,0,0,-2,-1,-9,-27,-10,-4
1532162684968,-2,-2,-1,-1,5,3,-4,6
1532162684973,-1,-2,-1,-7,-9,38,8,-5
1532162684978,-1,-1,0,2,7,-39,0,-4
1532162684983,-3,0,1,3,-5,-4,-7,-12
1532162684988,-1,-2,-1,-2,-4,1,-1,15
1532162684993,-1,0,0,2,3,-5,3,6
1532162684998,0,0,-2,-5,-3,22,2,6
1532162685003,0,-1,-3,-2,7,5,-3,-6
1532162685008,-3,-1,2,2,3,9,-4,-9
1532162685013,-2,-2,2,-3,1,-10,-3,-2
1532162685018,2,1,0,0,-5,-17,-2,-3
1532162685023,0,-3,0,2,-1,-1,7,1
1532162685028,-1,-3,-1,-1,7,6,0,-1
1532162685033,0,-1,-1,-1,-6,14,9,-2
1532162685038,0,1,1,0,0,-4,6,-1
1532162685043,-1,1,1,2,1,-12,-10,1
1532162685048,1,0,-1,1,-2,-1,-2,-1
1532162685053,-1,0,1,1,5,-5,-7,-2
1532162685058,-1,-3,-4,-4,-4,6,4,-1
1532162685063,-1,0,-1,-2,-3,10,11,0
1532162685068,0,-1,-1,-1,-10,-3,-16,2
1532162685073,-1,-3,-3,-3,7,-16,-14,-3
1532162685078,0,0,1,1,0,12,13,0
1532162685083,-1,-1,0,-2,2,0,-5,-1
1532162685088,0,1,1,-1,1,2,11,-5
1532162685093,1,-1,-1,-1,-4,-4,-1,0
1532162685098,-1,-1,-1,0,3,6,-4,-1
1532162685103,-2,-1,-3,-5,-8,-14,5,0
1532162685108,-2,-1,-1,-2,-6,4,-30,0
1532162685113,1,1,1,1,-1,7,58,4
1532162685118,0,1,2,2,4,-39,-62,-4
1532162685123,0,-1,0,3,9,30,9,-1
1532162685128,-2,-2,-2,-3,-4,-8,-11,-1
1532162685133,-1,-2,0,-3,-6,-2,10,0
1532162685138,-1,-3,0,-4,-5,6,-7,-3
1532162685143,0,-2,1,0,-1,-5,1,2
1532162685148,-1,1,-9,-1,1,0,14,-3
1532162685153,0,-1,-2,2,7,2,-13,-2
1532162685158,-3,-1,-6,-4,-15,-2,5,-2
1532162685163,0,-1,-2,-5,-5,4,-3,3
1532162685168,-1,1,3,2,-3,1,-6,-3
1532162685173,-1,0,-1,2,5,-25,19,-2
1532162685178,-1,-4,-2,-1,-2,6,-5,0
1532162685183,-1,0,1,3,7,6,6,0
1532162685188,0,-2,-1,-3,-3,-9,-9,-1
1532162685193,-3,0,0,-2,-3,1,-12,-4
1532162685198,-2,-1,3,1,1,22,1,-2
1532162685203,-1,-1,-4,-3,5,-14,14,0
1532162685208,-1,-1,1,-5,-3,-1,8,-1
1532162685213,-2,-1,-2,1,-1,-4,-40,-4
1532162685218,-1,-1,0,0,-1,-5,20,6
1532162685223,0,-1,0,-3,-6,3,-22,-2
1532162685228,-1,-1,0,1,1,-22,1,-4
1532162685233,-2,-2,-1,-2,-10,1,-6,1
1532162685238,-1,1,0,0,16,13,12,-2
1532162685243,0,2,0,1,4,4,-11,-1
1532162685248,1,-1,-4,-5,-8,11,6,1
1532162685253,-3,-5,-3,-5,-10,-7,8,-1
1532162685258,1,-2,1,4,0,0,-1,2
1532162685263,-1,-2,-4,-1,-1,-5,2,-1
1532162685268,-1,0,6,9,10,3,1,-3
1532162685273,0,1,-1,-1,3,13,-4,-1
1532162685278,-2,-1,-1,-4,-4,-22,11,-1
1532162685283,-2,-3,1,-1,-2,-5,-6,-7
1532162685288,-1,0,0,3,1,1,4,10
1532162685293,3,0,-2,-1,-15,-1,2,0
1532162685298,0,0,2,-1,6,12,0,2
1532162685303,0,2,-2,-6,-10,-4,-1,-3
1532162685308,0,-3,2,-4,-10,-18,-5,-3
1532162685313,-1,0,-4,3,12,-1,-17,-1
1532162685318,0,-2,1,3,-2,4,3,-4
1532162685323,-2,-2,-1,0,-2,-1,2,0
1532162685328,0,-2,-1,-6,-2,7,-1,-3
1532162685333,1,2,4,4,8,-2,2,-4
1532162685338,-1,1,-1,-4,-10,-1,-1,4
1532162685343,-1,-1,0,0,6,3,2,4
1532162685348,0,0,-1,-1,-2,-5,4,0
1532162685353,-1,0,3,1,1,-5,-4,-1
1532162685358,0,-1,-1,2,2,5,-1,-3
1532162685363,3,-2,-4,-7,-13,-10,2,1
1532162685368,-1,1,-4,-6,-6,-2,-8,-3
1532162685373,-1,1,0,-1,9,4,1,1
1532162685378,-1,-1,1,4,11,4,-2,-4
1532162685383,-1,-2,-4,-2,-17,-7,3,-5
1532162685388,1,-2,1,2,1,2,-1,3
1532162685393,-2,-2,-2,-3,-2,-1,0,-2
1532162685398,0,0,-1,-3,-2,-1,1,1
1532162685403,0,-2,-2,0,2,0,-2,-1
1532162685408,0,-2,-1,-1,-4,-1,1,-4
1532162685413,-2,-1,-1,1,3,-4,-4,-3
1532162685418,-2,-3,-2,-5,-4,-2,-5,0
1532162685423,-1,1,1,2,4,6,1,0
1532162685428,-1,1,1,4,5,1,-4,-2
1532162685433,0,-2,-1,-3,-7,-3,-1,0
1532162685438,0,-2,-4,-3,-2,-4,-2,-2
1532162685443,0,-1,1,1,3,2,-3,0
1532162685448,0,-2,-2,3,-1,-3,0,1
1532162685453,-2,-3,1,-4,-3,-1,-3,-1
1532162685458,0,-2,-1,4,-1,6,-3,-3
1532162685463,-2,-3,0,-6,-7,-14,-4,0
1532162685468,-1,1,-7,-1,1,6,1,-3
1532162685473,0,4,4,3,11,7,6,3
1532162685478,-2,2,3,4,0,4,2,-1
1532162685483,0,0,-1,5,6,1,-5,-1
1532162685488,-2,-1,0,-3,-4,-6,-1,-1
1532162685493,-1,0,0,1,-6,-2,0,1
1532162685498,0,-1,-4,-5,-3,-2,2,-1
1532162685503,0,-2,-2,-5,-1,-1,4,0
1532162685508,0,-1,-3,-9,-5,0,3,1
1532162685513,-1,2,-2,-1,-6,-1,-4,-4
1532162685518,0,2,3,4,3,0,-1,0
1532162685523,0,2,2,4,3,1,1,-1
1532162685528,0,-3,-3,-6,-8,-3,3,1
1532162685533,0,-1,0,2,6,-1,3,1
1532162685538,-3,-1,-4,-3,-6,-7,0,-4
1532162685543,0,0,-2,-5,-3,-2,5,1
1532162685548,-2,1,3,2,7,1,3,-1
1532162685553,1,-2,-1,-2,1,3,5,0
1532162685558,-1,-1,1,1,-6,-6,1,-1
1532162685563,-2,-3,-1,-2,5,6,-1,-4
1532162685568,-1,1,1,1,0,1,-3,-1
1532162685573,-3,-2,-6,0,-15,-9,-8,-9
1532162685578,3,-4,-5,-7,8,1,-2,1
1532162685583,-2,-2,-5,0,1,0,-4,-4
1532162685588,-1,0,4,5,-2,-5,-2,-2
1532162685593,1,-4,-3,-4,-4,0,-1,0
1532162685598,-2,1,3,2,-4,-2,-3,-3
1532162685603,0,0,0,-2,-4,2,4,2
1532162685608,0,-1,-4,-3,3,0,2,-2
1532162685613,0,1,1,1,8,1,-3,-1
1532162685618,-1,3,-2,-9,-11,-2,2,2
1532162685623,1,-13,2,11,7,2,1,1
1532162685628,0,10,2,-5,1,-4,0,0
1532162685633,-8,-13,-9,-13,-2,-2,1,-3
1532162685638,4,7,6,6,-2,2,5,3
1532162685643,-4,4,-3,-3,-5,-3,-9,-7
1532162685648,1,-3,-2,1,8,2,2,5
1532162685653,2,-2,1,8,-1,-1,-4,3
1532162685658,-2,-1,-5,-8,1,2,-1,-3
1532162685663,1,15,5,-2,-7,-4,-1,0
1532162685668,-4,-7,-4,2,3,-2,-4,-3
1532162685673,-2,1,0,-3,-3,1,4,1
1532162685678,3,8,-2,2,-1,0,1,-2
1532162685683,-1,0,3,4,5,2,4,3
1532162685688,-8,18,1,-2,0,1,0,-4
1532162685693,3,-32,3,0,-2,-4,-2,1
1532162685698,1,13,-9,-9,-5,2,-2,1
1532162685703,-8,-16,0,1,4,2,0,-1
1532162685708,1,4,0,-5,-12,-6,-2,-2
1532162685713,2,15,3,5,3,2,-4,-3
1532162685718,-1,-5,-4,-2,-6,-10,-10,1
1532162685723,-3,-12,-4,-7,13,5,-6,-2
1532162685728,1,-10,1,11,8,0,-4,-3
1532162685733,0,13,0,-10,-12,0,3,1
1532162685738,-9,-35,-1,3,0,-4,-3,-6
1532162685743,11,34,0,0,4,6,14,8
1532162685748,1,-4,-1,0,-3,-3,3,-2
1532162685753,0,-3,0,5,4,-4,0,-2
1532162685758,-4,-6,0,2,2,-5,-2,-3
1532162685763,0,-5,-1,-8,-19,-11,1,-3
1532162685768,0,0,1,-2,-3,1,9,1
1532162685773,0,-1,-11,-8,-2,2,3,0
1532162685778,-2,-13,1,-1,5,5,3,0
1532162685783,-1,5,2,5,-8,-1,-6,-4
1532162685788,0,-14,4,1,1,-4,-11,-5
1532162685793,-10,-16,-3,1,0,-7,-2,-2
1532162685798,2,6,-1,-3,-5,0,3,1
1532162685803,0,10,-6,-6,-2,-8,0,-1
1532162685808,-2,8,1,2,4,9,3,-1
1532162685813,0,-10,0,0,-1,-2,-1,-2
1532162685818,-1,17,3,2,1,1,-3,-3
1532162685823,2,-3,0,4,9,6,6,1
1532162685828,-7,-54,-9,-12,-10,-6,3,0
1532162685833,6,30,-1,-4,-4,4,9,1
1532162685838,-1,13,-3,-8,-8,-8,-7,-7
1532162685843,-3,-18,3,1,-8,-6,-5,-4
1532162685848,2,13,4,4,5,-6,-7,-4
1532162685853,-5,-37,-4,3,10,11,1,0
1532162685858,7,35,3,0,-4,4,-3,-3
1532162685863,-2,-6,-3,-4,1,-2,3,2
1532162685868,2,9,-11,-7,-12,-7,-3,-1
1532162685873,0,-4,0,-4,-2,-5,-9,-4
1532162685878,-3,-8,0,3,2,5,8,2
1532162685883,-2,-1,2,4,-3,-1,-8,-2
1532162685888,1,15,-3,2,0,5,2,0
1532162685893,-3,1,2,-2,21,-5,-2,-1
1532162685898,1,-10,-7,-24,-52,-10,8,6
1532162685903,-1,1,-3,3,11,1,3,0
1532162685908,-10,-22,4,1,1,0,-8,-1
1532162685913,2,15,1,11,6,8,-2,-3
1532162685918,-3,-12,0,1,18,14,-7,0
1532162685923,0,1,-4,-3,-15,-22,-14,1
1532162685928,-7,-24,-2,-7,-2,-1,-5,-1
1532162685933,-1,19,-4,-7,-10,-19,-11,0
1532162685938,0,-4,2,8,13,14,-6,-2
1532162685943,0,4,0,2,1,-1,-16,-2
1532162685948,1,-1,-2,0,4,18,-24,-1
1532162685953,1,5,3,-2,-6,-11,-28,3
1532162685958,-1,-4,-1,5,7,-17,-13,-2
1532162685963,-4,-16,1,-5,9,16,-22,0
1532162685968,7,-1,-6,-1,-8,-11,-1,2
1532162685973,-2,5,0,-2,0,14,-12,-2
1532162685978,-5,-12,2,3,3,-3,-4,1
1532162685983,3,13,-1,-2,4,4,-6,-2
1532162685988,3,22,3,1,5,10,2,0
1532162685993,2,-3,-1,-2,-22,-7,-2,1
1532162685998,-2,-3,3,7,22,5,-2,-3
1532162686003,-2,-2,-4,-3,-9,6,11,-1
1532162686008,0,9,2,-1,-5,-4,15,-2
1532162686013,1,3,-4,1,-2,-12,6,-1
1532162686018,-2,-8,2,4,3,2,16,-2
1532162686023,-2,-3,-4,-6,-12,1,25,-3
1532162686028,2,29,-1,5,11,-5,11,1
1532162686033,-2,-6,1,-3,1,10,18,-3
1532162686038,1,0,2,9,7,-17,17,4
1532162686043,1,9,-2,-13,-15,-7,3,-2
1532162686048,-5,-9,4,5,4,3,5,-3
1532162686053,-2,9,2,1,-3,1,5,-2
1532162686058,-1,-9,-9,-10,-8,-4,0,-1
1532162686063,-1,-13,-6,-1,4,-4,10,0
1532162686068,2,0,4,3,12,8,2,-2
1532162686073,0,2,1,3,-21,24,15,3
1532162686078,-1,0,1,2,5,-5,-4,4
1532162686083,-2,-2,3,-3,-1,-4,15,-1
1532162686088,-3,-12,-7,-11,-8,-1,7,-2
1532162686093,1,16,0,-5,0,-6,0,-1
1532162686098,-7,-35,5,5,-1,3,-1,-4
1532162686103,0,8,-4,2,-1,-2,1,1
1532162686108,2,7,0,1,3,7,-8,3
1532162686113,-1,1,-2,-7,-7,-20,-3,0
1532162686118,1,7,1,-2,-1,-1,-3,-3
1532162686123,-1,-3,6,10,6,-1,6,0
1532162686128,0,-10,-7,-9,-9,-7,3,2
1532162686133,-4,-1,3,8,10,2,2,-2
1532162686138,1,10,-3,-3,-7,3,-12,-3
1532162686143,0,-5,0,3,9,11,-4,0
1532162686148,4,28,-1,-6,-18,-4,16,0
1532162686153,-5,-29,7,4,1,-6,2,-1
1532162686158,1,13,-8,-4,-3,0,6,-1
1532162686163,-8,-9,2,2,2,1,-8,-2
1532162686168,4,5,-6,-3,0,-5,-3,0
1532162686173,0,-30,-6,-2,2,2,6,2
1532162686178,-1,-3,-4,-6,-12,-16,-4,-1
1532162686183,2,50,7,5,4,0,-2,0
1532162686188,-3,-7,2,2,3,-4,-3,0
1532162686193,0,3,-6,-6,-3,-8,-11,-3
1532162686198,3,14,-3,-7,5,12,19,-1
1532162686203,-1,-25,-2,0,1,2,2,-1
1532162686208,-4,-5,6,6,4,6,-2,-2
1532162686213,2,17,-2,3,4,-9,3,0
1532162686218,-4,-23,1,2,2,4,0,0
1532162686223,0,-8,-8,-11,2,-4,-1,0
1532162686228,-3,-5,-3,-5,-13,-1,2,-7
1532162686233,0,-4,3,4,5,5,-7,1
1532162686238,2,9,-1,-4,-5,-7,5,-1
1532162686243,-1,-7,0,1,2,-3,4,0
1532162686248,-2,1,-4,-2,2,-7,1,-2
1532162686253,-2,-3,-2,-2,1,6,1,-3
1532162686258,-1,10,0,2,-4,-4,2,2
1532162686263,0,-2,-4,-3,-4,1,-2,-2
1532162686268,-3,-15,3,7,6,2,-7,-2
1532162686273,1,16,3,1,-8,-1,2,0
1532162686278,-3,6,-7,-12,2,0,-18,-3
1532162686283,-3,-10,0,-6,-8,-2,-5,0
1532162686288,0,3,-1,-3,-5,-5,-9,-2
1532162686293,0,-3,2,3,11,5,-8,-2
1532162686298,1,2,0,2,5,4,-17,-1
1532162686303,1,4,2,10,-3,-7,-18,-2
1532162686308,-5,-8,1,-2,5,-2,-9,2
1532162686313,-2,-13,-10,-5,-6,-3,-6,-3
1532162686318,-3,-5,3,0,-2,2,-12,-4
1532162686323,1,1,-1,7,8,-7,-8,1
1532162686328,0,-7,-3,-5,-6,2,-10,1
1532162686333,-3,0,2,1,-5,-1,0,-3
1532162686338,-1,-9,-4,-6,-12,-5,-5,0
1532162686343,3,19,4,2,10,12,-9,-1
1532162686348,1,3,1,13,13,-10,-14,-1
1532162686353,-1,-1,-8,-13,6,13,-4,0
1532162686358,-1,-3,0,2,-13,-8,4,-1
1532162686363,-1,9,2,-1,0,0,-9,-2
1532162686368,4,-10,-4,-5,0,1,7,0
1532162686373,0,0,-2,-1,2,1,2,1
1532162686378,1,5,4,7,6,2,3,0
1532162686383,-7,-20,-6,-6,-7,2,4,-1
1532162686388,-1,9,0,-2,-10,-9,-2,-1
1532162686393,-3,-3,-4,-5,-6,-6,-5,-3
1532162686398,3,12,6,5,6,9,0,0
1532162686403,-2,-16,-1,-4,-2,1,7,-2
1532162686408,-4,-8,3,0,-7,-3,-3,-2
1532162686413,-1,6,-5,-2,-2,-1,0,1
1532162686418,-4,-8,-1,-6,-1,-5,-6,-4
1532162686423,0,-11,-4,-2,4,3,13,1
1532162686428,-1,-3,-2,0,-5,-1,7,0
1532162686433,0,3,1,1,-4,-9,-1,0
1532162686438,-1,-1,0,-1,-1,2,0,-3
1532162686443,0,-6,0,5,12,9,0,-1
1532162686448,0,6,-1,0,13,2,3,2
1532162686453,-5,-5,3,3,4,0,-3,0
1532162686458,-4,-36,-4,-2,-12,-5,-4,1
1532162686463,8,42,0,0,-8,-10,4,4
1532162686468,-1,0,0,1,6,2,0,-3
1532162686473,-3,-19,-4,-3,-9,-1,-3,1
1532162686478,0,5,0,-1,8,5,-2,-1
1532162686483,-4,-26,-4,-7,-10,-7,-3,-4
1532162686488,-1,3,1,2,1,5,-7,-2
1532162686493,5,11,0,2,0,-2,12,5
1532162686498,-1,-14,-1,2,2,3,7,2
1532162686503,0,0,4,3,3,2,-2,0
1532162686508,1,7,-4,-8,-11,-4,-1,-1
1532162686513,-5,-19,-4,-1,3,2,8,-4
1532162686518,1,11,0,3,1,-2,0,0
1532162686523,-2,3,-2,-5,-4,-11,1,0
1532162686528,-3,-8,-2,0,9,5,2,-3
1532162686533,-1,-24,2,-1,1,2,-11,3
1532162686538,0,16,-2,0,0,3,6,-2
1532162686543,1,-5,-4,0,-3,-3,1,-1
1532162686548,-2,1,2,1,-10,-7,-9,-3
1532162686553,0,1,-3,1,10,5,3,0
1532162686558,-2,-4,-2,-6,9,-5,5,5
1532162686563,-2,-5,-2,3,-3,1,-2,-2
1532162686568,-4,-24,-5,-4,-10,-3,1,0
1532162686573,3,18,6,6,7,7,-2,-1
1532162686578,1,2,3,7,8,3,1,0
1532162686583,-1,7,2,0,-3,0,0,0
1532162686588,-2,-2,-5,-6,-6,-5,-6,-3
1532162686593,0,2,-4,-13,-6,-10,1,-2
1532162686598,-2,4,-4,-5,-4,-3,-9,-3
1532162686603,-1,-6,-1,1,2,6,2,0
1532162686608,0,6,3,5,9,3,-1,-1
1532162686613,1,4,5,5,-1,-2,-8,0
1532162686618,-2,0,-7,-5,4,-3,6,-1
1532162686623,-1,0,-4,-7,-14,-1,0,1
1532162686628,-1,1,1,2,5,0,1,-3
1532162686633,0,5,-3,-1,-6,-4,-2,-2
1532162686638,-2,-1,0,2,0,-3,-5,-3
1532162686643,-1,0,3,4,10,4,-11,-1
1532162686648,0,-2,-1,0,-3,-2,8,3
1532162686653,-3,-4,-8,-16,-20,-1,-1,-2
1532162686658,0,-2,-3,-6,-15,-9,-8,-1
1532162686663,-2,-2,-1,-7,-4,-1,-11,-1
1532162686668,2,8,5,4,9,5,-12,0
1532162686673,0,5,3,11,11,-1,-9,-1
1532162686678,0,0,0,-1,0,5,-12,0
1532162686683,-1,-3,-7,-10,-7,-8,-4,0
1532162686688,-1,0,2,3,9,11,-10,1
1532162686693,-2,1,-1,-5,-32,-12,-8,-3
1532162686698,0,1,5,4,7,3,-13,-1
1532162686703,0,-1,-5,-4,-7,-4,-6,-1
1532162686708,1,2,-1,0,-6,0,-8,2
1532162686713,-3,-2,-2,-1,-3,-1,-7,-2
1532162686718,-2,0,-3,-5,-2,-1,-7,-2
1532162686723,-1,1,2,5,1,-3,-13,-1
1532162686728,-1,0,0,-4,-3,-3,3,-1
1532162686733,1,2,-3,-2,5,-1,-7,0
1532162686738,-1,-1,-1,-1,-6,-1,0,0
1532162686743,1,1,3,8,10,7,2,-1
1532162686748,0,-3,-1,-4,-9,-6,15,0
1532162686753,1,0,-2,-4,-1,-1,17,-1
1532162686758,1,0,-3,-5,-7,-4,7,0
1532162686763,0,1,0,2,0,1,10,-1
1532162686768,-2,-1,-2,1,-2,-3,11,0
1532162686773,0,2,4,7,9,4,2,0
1532162686778,-2,-1,-2,-4,1,0,0,-2
1532162686783,0,-2,-3,-1,0,-2,8,1
1532162686788,-1,-2,-3,-1,-1,1,4,1
1532162686793,0,1,1,-3,-1,-2,-6,-2
1532162686798,-1,-1,-2,-1,4,-6,-2,0
1532162686803,-1,0,3,-2,-2,-3,-3,-2
1532162686808,0,-1,2,2,1,-3,5,-1
1532162686813,-2,-2,2,4,7,5,-1,-3
1532162686818,2,-4,-9,-10,-16,-11,4,-2
1532162686823,-1,-1,-4,-4,11,7,5,0
1532162686828,-1,0,-2,-3,-6,-5,1,-1
1532162686833,-2,-2,-2,-2,-2,-4,2,0
1532162686838,1,1,4,6,-1,1,-9,0
1532162686843,-1,2,0,3,6,4,1,0
1532162686848,1,-1,-1,0,1,4,0,-3
1532162686853,0,1,3,2,1,-12,-10,-1
1532162686858,-3,-1,-2,-2,-6,7,4,-1
1532162686863,-1,-1,1,0,2,-2,-6,0
1532162686868,-2,-1,1,2,1,-3,-7,-2
1532162686873,0,-3,-1,2,3,-6,0,0
1532162686878,-1,-2,-3,-6,-5,1,5,-2
1532162686883,-1,0,0,-2,8,10,-2,-1
1532162686888,1,-1,5,21,9,20,7,-1
1532162686893,0,-1,-6,-20,-15,-28,-14,-2
1532162686898,-1,-3,-9,1,-9,-12,4,0
1532162686903,-1,-2,0,-19,-13,5,-1,0
1532162686908,-2,-1,-7,-12,-3,-4,0,-3
1532162686913,0,0,6,12,7,14,9,-1
1532162686918,0,-1,6,0,4,6,-4,-4
1532162686923,-2,-2,0,8,6,-2,3,4
1532162686928,0,1,6,4,2,-2,-11,-2
1532162686933,-2,-1,-4,-15,-8,15,10,-3
1532162686938,-3,-3,-6,-2,-3,-20,15,-2
1532162686943,-2,0,3,8,2,0,3,-16
1532162686948,2,2,-1,-1,1,-10,-5,33
1532162686953,2,0,-1,8,1,2,10,7
1532162686958,1,2,5,1,4,7,-7,1
1532162686963,0,-3,-3,2,0,2,11,-9
1532162686968,-3,-3,-5,-6,-4,3,0,-7
1532162686973,-1,0,-1,-1,-1,-8,-13,-4
1532162686978,0,-2,1,-2,3,8,22,2
1532162686983,-1,0,-4,0,-2,-12,39,-3
1532162686988,-2,-1,-2,-4,5,13,114,-8
1532162686993,-4,-5,-5,-5,-11,-25,127,1
1532162686998,-2,0,2,0,1,-6,105,-3
1532162687003,-1,-3,-3,3,2,4,66,4
1532162687008,-1,-1,-5,-8,-7,22,-42,-5
1532162687013,-2,-2,1,1,1,-21,-109,-2
1532162687018,-2,-2,-4,1,0,3,-128,-1
1532162687023,1,-1,-1,3,-1,9,-128,5
1532162687028,-2,0,0,-5,-6,-3,-113,-3
1532162687033,-1,-6,-1,-1,0,14,-84,-4
1532162687038,4,5,1,-1,1,-14,-59,3
1532162687043,-1,0,1,1,5,12,-70,0
1532162687048,-1,-4,-2,0,3,-4,-75,-5
1532162687053,2,3,2,3,-1,12,-52,1
1532162687058,-3,-4,-1,-7,-12,-18,-14,1
1532162687063,-2,1,2,8,7,10,29,-2
1532162687068,2,2,-1,-11,-7,-28,50,-9
1532162687073,-2,-3,-7,-5,-3,18,71,-2
1532162687078,0,2,-1,4,6,46,73,7
1532162687083,0,2,4,4,0,-32,44,-2
1532162687088,0,1,5,9,-1,-32,28,0
1532162687093,-3,-6,-12,-14,-17,-10,27,-7
1532162687098,-2,-1,-5,-2,1,5,15,-2
1532162687103,-5,-3,-2,-5,-6,-10,10,6
1532162687108,3,0,8,6,18,43,18,-2
1532162687113,0,3,0,2,3,9,14,1
1532162687118,0,-3,1,1,0,-29,0,-4
1532162687123,-2,-2,1,-5,-2,12,8,1
1532162687128,-5,-4,-4,-1,-8,-15,10,-1
1532162687133,3,4,3,-2,-1,-20,21,0
1532162687138,-2,1,0,6,7,7,-7,2
1532162687143,-1,0,1,-5,-6,-26,2,-2
1532162687148,-2,-2,-1,-2,-10,-24,7,-1
1532162687153,-3,-3,-5,-4,6,43,0,-2
1532162687158,-5,-2,-3,-5,-11,-26,1,-3
1532162687163,2,-5,-1,2,8,28,5,0
1532162687168,8,16,6,9,14,-31,-5,4
1532162687173,-2,-2,2,5,-6,-44,-8,1
1532162687178,-1,0,5,2,0,6,-3,-4
1532162687183,-1,-2,-3,-15,-12,12,2,-1
1532162687188,-2,-4,-3,-4,0,15,-2,-1
1532162687193,0,3,0,7,8,6,-8,-2
1532162687198,-3,-1,-6,-3,-11,-8,-9,-9
1532162687203,-2,0,2,-1,0,7,-2,-2
1532162687208,-1,-5,-2,-3,-2,8,6,15
1532162687213,1,0,2,-1,-3,1,0,-1
1532162687218,-2,0,2,1,6,16,-5,-2
1532162687223,1,-2,-1,4,-4,-62,-9,-6
1532162687228,-2,-6,-8,-6,-9,2,-3,-5
1532162687233,-3,-2,-8,-4,-5,-3,-4,-1
1532162687238,-1,-2,-1,-2,2,43,12,3
1532162687243,4,1,7,0,-3,-12,-4,1
1532162687248,-3,-1,0,3,14,14,-4,-3
1532162687253,-3,-2,1,-1,-4,-23,3,-2
1532162687258,3,-2,0,-4,1,-2,1,-1
1532162687263,1,1,-1,-2,-3,4,-4,0
1532162687268,-4,-3,-1,-3,-1,22,10,0
1532162687273,-2,0,2,2,-2,-5,-5,-8
1532162687278,2,1,1,-1,-3,-1,0,21
1532162687283,-2,-1,2,6,3,7,-4,-3
1532162687288,0,-1,-4,-2,-5,-14,-2,-11
1532162687293,-1,1,-2,-2,10,11,5,8
1532162687298,-2,-2,-2,-2,-10,-12,-2,-7
1532162687303,-1,0,-3,-5,-1,20,-7,1
1532162687308,-2,-1,-1,1,-7,-16,-5,-4
1532162687313,-2,1,3,6,7,-1,-3,-2
1532162687318,0,-2,-6,-5,-6,10,1,-4
1532162687323,-2,0,-4,-1,10,1,-1,0
1532162687328,-1,-1,-1,0,-2,-5,5,-5
1532162687333,-1,-3,3,0,-5,5,-8,0
1532162687338,0,0,-1,1,8,15,-3,-10
1532162687343,2,1,-3,1,-1,-4,-1,13
1532162687348,0,-1,-1,-7,-7,-19,4,8
1532162687353,-1,0,0,-5,-4,24,-6,-5
1532162687358,-1,-3,-1,-2,-9,-43,-13,-5
1532162687363,-6,-2,2,4,-2,-9,-7,-25
1532162687368,1,-2,-8,-1,2,15,1,9
1532162687373,5,4,-4,-2,3,13,15,23
1532162687378,1,1,0,-1,-1,-6,-2,-4
1532162687383,-1,-3,0,-1,9,22,1,0
1532162687388,-2,-1,-1,2,3,-4,-8,-12
1532162687393,-3,1,3,4,-2,12,0,-13
1532162687398,-1,-1,-6,-6,-13,-36,-3,9
1532162687403,0,0,-3,1,1,-4,5,-5
1532162687408,-3,-2,0,-4,-7,9,-2,-3
1532162687413,-1,-1,2,-1,-2,12,-1,-4
1532162687418,0,1,4,8,17,5,2,-9
1532162687423,0,-1,-2,-6,-9,-6,6,15
1532162687428,0,-1,-3,-5,-9,1,-3,0
1532162687433,-2,2,3,0,5,-14,0,-2
1532162687438,-3,-5,-2,2,-14,-17,-2,-5
1532162687443,0,2,2,1,18,28,-2,-1
1532162687448,1,0,-3,0,3,-8,-1,0
1532162687453,0,2,-2,-2,-5,-4,0,-1
1532162687458,-1,0,-2,-1,3,12,5,-4
1532162687463,0,0,0,-5,-8,-9,-3,5
1532162687468,-1,-1,3,3,4,40,2,-4
1532162687473,-3,-1,0,1,-1,-46,-6,-7
1532162687478,-1,-4,-3,-3,-4,-10,-5,2
1532162687483,2,-1,-7,-6,-11,-11,2,-9
1532162687488,0,-1,3,0,2,14,3,20
1532162687493,0,-2,-3,-1,0,15,0,-2
1532162687498,-1,-1,-1,-2,-3,1,0,-3
1532162687503,-4,0,2,2,-3,-6,-1,-8
1532162687508,-3,-4,-4,-1,1,7,-2,-9
1532162687513,-1,-1,0,1,-5,-6,-2,-4
1532162687518,1,-1,1,-3,9,9,7,7
1532162687523,-1,-4,1,0,-6,-1,2,7
1532162687528,-1,6,1,3,10,2,-2,-5
1532162687533,-2,-4,1,2,-7,-32,-18,-1
1532162687538,-2,-1,4,-4,-7,13,0,-13
1532162687543,2,3,-7,-2,0,3,4,11
1532162687548,-3,-1,0,1,-6,-12,-1,-2
1532162687553,0,1,-1,1,6,16,4,1
1532162687558,0,-1,1,0,1,21,-2,0
1532162687563,0,-3,-4,-8,-8,-6,1,-2
1532162687568,0,1,1,0,-10,-45,-10,-10
1532162687573,1,-2,-4,-2,6,11,2,13
1532162687578,-1,-1,-2,2,-4,-4,-3,-1
1532162687583,0,0,-2,-1,5,30,8,-1
1532162687588,2,1,-1,-1,1,-32,-7,-2
1532162687593,-3,-4,-2,-3,-3,-2,0,-7
1532162687598,-1,1,-2,1,3,3,5,4
1532162687603,0,1,1,1,-2,3,4,3
1532162687608,0,-3,1,-5,-4,-3,-15,-3
1532162687613,-3,-1,0,5,4,9,0,-10
1532162687618,1,0,0,-4,-6,-14,2,10
1532162687623,-1,0,0,0,-2,-11,-6,-9
1532162687628,2,-2,-1,-4,-11,0,6,2
1532162687633,1,-5,-4,-4,6,4,1,11
1532162687638,-1,-1,-4,-1,4,12,-1,-5
1532162687643,-4,-2,0,1,2,-7,-2,-6
1532162687648,-3,0,1,2,-5,25,5,-4
1532162687653,1,1,-3,-4,-14,-54,-12,-5
1532162687658,1,0,-3,-5,4,9,2,2
1532162687663,-3,0,-3,1,2,-7,-1,1
1532162687668,-4,-1,-2,-1,0,10,5,1
1532162687673,-1,0,1,0,1,14,-1,-4
1532162687678,1,-1,0,1,0,-8,-4,1
1532162687683,0,4,-2,4,-1,-12,-3,-2
1532162687688,-3,-3,-1,-2,-9,3,0,-3
1532162687693,0,-2,-3,-2,3,9,4,-2
1532162687698,-1,2,-2,-2,2,3,0,2
1532162687703,-1,-3,-1,0,1,-1,1,0
1532162687708,0,-2,0,1,2,2,-7,5
1532162687713,1,2,-1,-3,-3,7,1,-7
1532162687718,-1,1,-3,3,-4,1,-3,4
1532162687723,0,2,4,3,-7,-32,-12,-5
1532162687728,0,-7,-5,-9,12,8,10,-1
1532162687733,1,-2,-5,-5,-15,-19,-4,-10
1532162687738,2,2,0,3,4,19,4,9
1532162687743,0,0,3,1,2,2,-1,-1
1532162687748,-3,1,0,3,-2,-11,-4,-2
1532162687753,-4,-5,1,-1,8,21,3,0
1532162687758,-1,-4,-1,-1,9,16,1,-8
1532162687763,-2,-4,-2,0,11,30,2,2
1532162687768,2,-2,-1,0,-2,7,3,-1
1532162687773,1,3,1,-4,-1,-31,-3,-1
1532162687778,-2,0,0,1,-12,-7,-4,-2
1532162687783,1,-1,-1,0,3,-8,-2,3
1532162687788,-2,-3,-1,-5,-4,3,1,-7
1532162687793,1,-3,7,3,4,20,9,0
1532162687798,0,-3,-3,2,3,-9,-8,-5
1532162687803,0,-2,-7,-6,-10,4,-2,8
1532162687808,2,6,2,1,9,-8,-1,-5
1532162687813,0,-4,-2,-2,-2,-1,5,15
1532162687818,-3,-3,-1,1,14,25,5,-2
1532162687823,-2,-4,-1,-2,-13,-40,-6,-4
1532162687828,0,1,2,3,-4,0,-2,-3
1532162687833,-2,-1,-1,-3,-4,9,-5,-5
1532162687838,-2,1,-1,1,-3,-19,1,0
1532162687843,-1,-2,3,3,7,30,1,0
1532162687848,1,2,0,-4,-6,-14,-2,2
1532162687853,-3,-2,-4,-4,-5,-4,-2,-5
1532162687858,1,-1,1,-3,-2,9,4,2
1532162687863,0,1,0,-2,-11,-11,1,-4
1532162687868,-2,-1,0,-1,13,13,2,8
1532162687873,2,-1,0,2,0,-5,-1,-3
1532162687878,2,0,-2,-3,-1,7,0,-2
1532162687883,-1,3,2,0,5,-6,2,-3
1532162687888,-3,-5,-4,-1,-5,16,4,-7
1532162687893,1,-2,0,1,-3,-23,-14,-8
1532162687898,0,2,-2,0,-4,-7,5,12
1532162687903,1,0,-1,-2,4,4,-4,-3
1532162687908,0,0,1,-1,-4,4,1,-1
1532162687913,-3,0,-1,-2,5,14,8,-6
1532162687918,0,-2,6,1,-2,-14,-9,-4
1532162687923,-4,-2,-9,-1,0,14,-1,-1
1532162687928,-1,0,2,-2,-3,-16,-4,2
1532162687933,-2,1,-1,1,4,11,0,-3
1532162687938,1,-1,-3,-1,-3,-20,-2,6
1532162687943,0,2,-1,-3,-3,8,5,2
1532162687948,-1,-4,-2,0,1,1,-3,-3
1532162687953,1,2,0,2,3,7,4,1
1532162687958,-1,0,-2,-1,2,3,-6,-8
1532162687963,-2,-7,-4,-7,-9,-1,-8,-8
1532162687968,2,2,1,-1,-7,-17,1,4
1532162687973,1,-1,0,2,4,0,7,4
1532162687978,0,2,0,-1,4,9,1,3
1532162687983,1,2,2,6,9,1,0,4
1532162687988,-2,-4,-5,-6,-6,-5,-1,-7
1532162687993,-3,-3,-3,-2,-9,-9,-4,-5
1532162687998,-2,-1,-3,-2,1,-2,3,6
1532162688003,0,0,1,1,-1,-4,3,-1
1532162688008,-1,1,0,7,19,17,1,2
1532162688013,1,-1,-4,-8,-8,-5,-1,2
1532162688018,-2,-3,-1,-7,-18,-23,-3,-5
1532162688023,0,2,1,1,1,-16,-4,0
1532162688028,-2,-3,-2,-1,-4,-12,0,1
1532162688033,-1,0,0,4,8,24,-1,1
1532162688038,-1,1,-1,-1,0,3,0,-13
1532162688043,-1,-1,2,4,4,16,7,15
1532162688048,3,1,-2,-7,-28,-50,-9,1
1532162688053,1,-3,-2,-1,12,-6,-4,-3
1532162688058,-3,-1,-1,3,-1,14,9,-11
1532162688063,-1,-4,-1,0,7,12,4,5
1532162688068,1,2,0,1,-5,-11,-2,10
1532162688073,0,-4,-2,-2,1,2,-2,0
1532162688078,-2,-2,-5,-6,-5,3,1,-1
1532162688083,-2,0,3,2,8,24,5,-10
1532162688088,-2,1,5,4,7,-9,-7,-5
1532162688093,-1,-2,-2,-2,-6,-12,-5,1
1532162688098,3,2,-4,-8,5,2,-1,-1
1532162688103,-1,-4,-5,-7,-27,-25,-2,-1
1532162688108,-2,-1,-2,-2,9,6,0,-2
1532162688113,-3,0,0,4,3,11,3,-1
1532162688118,-1,-2,6,6,2,2,-4,-1
1532162688123,1,0,-6,0,6,23,-4,1
1532162688128,-1,-2,-3,-2,-2,4,5,-3
1532162688133,-1,0,-1,1,4,5,-1,-8
1532162688138,-2,0,1,-1,-8,-9,4,6
1532162688143,0,0,3,-3,-6,-21,-12,0
1532162688148,-2,-1,1,-1,4,13,-9,-2
1532162688153,0,1,-2,-3,-3,20,2,-3
1532162688158,0,-2,-2,-3,3,-21,-4,-3
1532162688163,-1,0,1,-1,-10,-37,-4,1
1532162688168,-2,-1,0,2,10,28,9,-7
1532162688173,-3,1,3,-2,-12,-16,-13,6
1532162688178,2,1,1,4,6,-10,18,-1
1532162688183,-1,-3,-4,-6,-14,8,6,-3
1532162688188,-2,-3,0,0,16,17,-1,-2
1532162688193,0,2,-2,5,11,-11,-2,-1
1532162688198,-1,1,1,-3,-8,2,-6,1
1532162688203,-1,0,0,0,-1,-9,-1,-6
1532162688208,-2,-4,-4,-8,-15,6,5,1
1532162688213,0,-1,2,-2,-2,6,10,-1
1532162688218,-1,-1,-1,4,8,7,-23,-4
1532162688223,-1,0,0,-2,-2,-2,5,-1
1532162688228,-3,-1,-3,-3,-6,-13,2,-3
1532162688233,1,-1,1,1,13,17,4,7
1532162688238,1,-3,-3,-3,-23,-36,-3,0
1532162688243,-1,1,0,-3,15,21,-2,-4
1532162688248,0,0,-1,3,3,-4,0,-3
1532162688253,-2,-2,-2,-7,-24,-24,-14,-1
1532162688258,-2,-2,0,3,8,31,26,-3
1532162688263,0,1,2,2,13,6,8,0
1532162688268,-1,-3,0,-2,-6,-13,-7,-2
1532162688273,-2,1,-1,2,1,-1,-13,-2
1532162688278,-1,-3,-5,-6,-3,-2,-9,2
1532162688283,-1,-2,-3,-4,-16,-14,4,-3
1532162688288,1,0,0,-1,10,6,3,5
1532162688293,0,-1,0,1,0,-1,8,-4
1532162688298,-2,0,-2,0,-3,0,-10,-2
1532162688303,-3,-2,-2,1,12,-6,-3,-12
1532162688308,3,0,-2,-2,-11,5,4,17
1532162688313,1,1,-5,-6,-9,-34,-16,-5
1532162688318,-1,0,1,1,8,9,16,0
1532162688323,-1,0,1,4,1,-18,-12,4
1532162688328,-4,-2,0,-1,-11,-13,4,-8
1532162688333,-1,-3,0,-1,-2,-18,-21,0
1532162688338,-1,-1,-1,-1,7,1,3,3
1532162688343,2,-3,-6,-5,-12,-9,-17,-1
1532162688348,0,1,2,-1,4,20,18,-2
1532162688353,-3,-1,-7,0,-2,-12,-6,0
1532162688358,0,0,1,-1,-2,-8,5,-4
1532162688363,1,0,1,5,12,43,2,1
1532162688368,-1,-1,-3,-2,-8,-20,11,-2
1532162688373,1,-1,1,-3,-2,14,3,2
1532162688378,1,-1,-2,-1,6,22,-5,0
1532162688383,-2,-2,-2,-3,-5,-38,-1,1
1532162688388,1,1,0,1,-9,20,-5,-3
1532162688393,-1,-2,-1,-3,11,10,9,-2
1532162688398,-2,-4,-3,-1,-10,-37,-8,1
1532162688403,0,-2,4,1,8,59,15,4
1532162688408,1,0,3,3,7,-13,-18,-3
1532162688413,0,-2,0,-3,-8,8,3,1
1532162688418,-1,0,-2,0,-4,-2,3,1
1532162688423,-2,0,-4,-2,-4,-20,2,1
1532162688428,-2,-2,-2,0,1,39,-4,-2
1532162688433,-3,1,2,0,2,4,9,-5
1532162688438,-2,0,2,0,2,-2,8,1
1532162688443,0,2,-1,0,-8,-12,-11,-2
1532162688448,-1,-1,-1,-1,3,-14,3,-2
1532162688453,-2,-4,0,-4,-12,-44,-10,-4
1532162688458,0,1,7,5,8,82,-29,-2
1532162688463,-1,-2,-1,0,-7,-44,8,-2
1532162688468,-1,0,-2,-2,3,28,-2,-2
1532162688473,0,-1,-3,-1,-5,5,11,0
1532162688478,-1,1,-1,-2,0,-26,-19,-2
1532162688483,1,0,-2,-5,-4,9,2,1
1532162688488,0,0,0,-2,-8,-28,-1,2
1532162688493,0,0,2,3,18,8,-7,0
1532162688498,-1,-3,-4,-4,-9,-26,-8,-3
1532162688503,0,-2,0,4,9,10,-4,1
1532162688508,-3,-3,-2,-4,-13,-41,-6,-5
1532162688513,1,0,-1,1,2,32,12,5
1532162688518,1,1,-1,-4,-1,-3,14,2
1532162688523,-1,-1,-5,-6,-6,-8,-15,-3
1532162688528,0,-1,-3,2,5,-2,-5,-1
1532162688533,-2,1,2,1,-1,2,23,-2
1532162688538,0,0,-2,0,4,29,-3,-2
1532162688543,0,-1,0,-4,-6,-1,-8,5
1532162688548,-1,-1,3,1,4,5,-11,0
1532162688553,-2,-1,-3,-1,-6,-50,-32,-3
1532162688558,-2,-3,-2,1,6,54,10,-1
1532162688563,-1,2,1,1,5,6,4,-2
1532162688568,1,0,1,0,-2,-11,4,6
1532162688573,-1,-1,-1,-3,-4,-12,11,-2
1532162688578,-3,-2,-5,1,1,19,17,-1
1532162688583,-1,0,0,-1,-3,-48,-19,-1
1532162688588,1,-2,-1,-3,4,56,10,-2
1532162688593,-2,-2,-1,-1,-11,-15,7,-2
1532162688598,1,-3,-2,1,10,7,-1,1
1532162688603,-2,-2,1,1,3,19,7,-1
1532162688608,-2,0,-3,-1,-7,-17,35,-1
1532162688613,2,0,-5,-4,3,-13,-38,2
1532162688618,0,-1,-2,-3,-6,10,-11,0
1532162688623,-2,-2,-2,0,-2,-5,6,-2
1532162688628,-1,-1,-1,0,2,-1,-8,-3
1532162688633,1,0,2,4,3,17,15,0
1532162688638,-2,0,-1,-2,-3,-27,-2,-2
1532162688643,-2,-1,-1,-3,0,8,6,-4
1532162688648,0,-1,-2,-4,-7,-6,0,0
1532162688653,-2,0,0,2,4,19,21,-1
1532162688658,0,-1,0,-1,-4,-30,-19,-1
1532162688663,-1,-1,-1,1,1,14,15,-3
1532162688668,-2,-1,-3,0,4,-7,-32,1
1532162688673,0,-2,-2,-3,-1,12,-3,-3
1532162688678,-2,-2,0,-1,-1,-16,10,-4
1532162688683,3,2,2,0,1,25,-27,5
1532162688688,0,-3,0,-1,-4,-14,16,3
1532162688693,0,-1,0,2,4,1,7,1
1532162688698,-1,-1,-2,0,-2,-15,1,-1
1532162688703,-2,-1,-3,0,-3,3,5,-2
1532162688708,0,-3,1,-4,0,-2,-8,-1
1532162688713,0,-1,-2,-2,-1,14,10,0
1532162688718,0,1,1,1,0,-8,13,1
1532162688723,-2,-1,-2,-1,0,-6,-1,-4
1532162688728,0,2,1,1,3,7,8,2
1532162688733,0,-1,0,-1,-2,5,42,0
1532162688738,-1,1,1,-1,1,-2,-11,0
1532162688743,-2,-1,-2,-1,-4,4,14,0
1532162688748,0,1,1,2,1,-3,-3,-4
1532162688753,-2,-2,-2,-4,-3,7,-17,-2
1532162688758,0,-2,-1,-2,-1,-6,2,-2
1532162688763,-1,-2,-1,-4,-3,-1,17,-2
1532162688768,-1,0,-1,-1,1,-4,-57,-3
1532162688773,-3,0,1,0,-1,-1,2,-2
1532162688778,0,-1,-2,-1,0,-2,8,4
1532162688783,-2,-2,1,3,5,2,-11,-2
1532162688788,-2,-1,-1,1,2,-1,-11,-5
1532162688793,3,0,-3,-7,-10,2,39,9
1532162688798,-3,0,-1,1,0,-5,-22,-2
1532162688803,-2,-1,1,-2,0,6,11,2
1532162688808,-2,0,-2,1,-1,-2,22,1
1532162688813,-1,-2,-1,0,1,-2,-41,-3
1532162688818,0,-1,-1,-4,-3,-3,14,0
1532162688823,0,-1,0,3,3,-3,3,-2
1532162688828,-2,-2,-2,-3,-7,-5,-10,-4
1532162688833,-3,-2,1,2,3,0,-6,1
1532162688838,-1,-1,0,-2,-3,2,-1,2
1532162688843,-2,-3,-2,1,2,-6,-16,-6
1532162688848,0,-1,-1,-2,-3,-8,5,-2
1532162688853,0,0,-2,0,0,2,-3,-1
1532162688858,-2,-1,-1,-1,-4,-4,10,-2
1532162688863,1,-1,-2,-3,1,1,-17,2
1532162688868,-1,-1,2,2,4,1,16,0
1532162688873,-1,0,1,2,3,3,9,-1
1532162688878,-1,0,1,-1,-4,-4,-20,-3
1532162688883,0,-1,-2,0,0,1,12,-1
1532162688888,-1,-3,-1,-6,-6,-3,-14,1
1532162688893,-3,-1,-1,2,0,-2,-20,-4
1532162688898,2,-2,-3,-3,0,6,23,2
1532162688903,-1,0,-1,-3,-3,-3,-14,2
1532162688908,-1,0,-1,2,3,-3,-1,-2
1532162688913,-1,-2,1,0,1,0,1,1
1532162688918,-2,-1,1,1,1,-2,-5,-1
1532162688923,-1,1,-2,-2,-3,-1,1,1
1532162688928,-2,-2,-3,-5,-3,-3,10,2
1532162688933,-2,-1,0,-1,-3,1,-6,-5
1532162688938,0,0,-1,-1,2,-3,-6,-1
1532162688943,0,-2,-1,-1,-1,3,9,0
1532162688948,1,1,-1,-2,-1,-1,0,-2
1532162688953,-1,0,-2,-4,-5,-1,-1,0
1532162688958,2,1,0,3,4,-1,-11,1
1532162688963,-1,-1,0,0,-1,-1,3,-1
1532162688968,0,-2,-5,0,-2,-1,-6,-2
1532162688973,1,-2,1,0,1,5,4,1
1532162688978,-2,0,1,0,1,-1,-20,0
1532162688983,-2,-1,-2,-5,-5,-9,1,-2
1532162688988,-1,-2,1,1,0,3,7,-1
1532162688993,-1,0,-1,1,1,-2,-5,-2
1532162688998,0,-2,-3,-3,-7,6,-2,-3
1532162689003,-1,-1,-2,-3,-2,2,-3,2
1532162689008,-1,1,0,1,-1,-13,-3,-1
1532162689013,-5,-2,-1,-1,-1,-3,1,-1
1532162689018,-2,0,1,-1,1,3,13,-6
1532162689023,-1,-1,1,3,0,4,-19,-3
1532162689028,2,0,-2,0,1,8,5,0
1532162689033,0,0,-1,-4,-4,-4,-4,0
1532162689038,0,0,0,-2,-5,-7,6,2
1532162689043,0,0,0,1,-1,-2,2,-4
1532162689048,-14,-2,3,-1,-2,-7,2,-4
1532162689053,11,1,0,3,7,19,-5,0
1532162689058,3,0,-1,0,0,-1,-1,-2
1532162689063,-1,-4,-5,-11,-10,-11,12,2
1532162689068,-13,1,0,1,0,2,-11,-4
1532162689073,10,-2,-4,-3,-6,-7,-1,1
1532162689078,-2,0,0,2,2,-2,0,2
1532162689083,3,1,2,4,7,-13,-2,-1
1532162689088,-2,-2,-2,1,-3,0,3,-1
1532162689093,-3,-1,0,-2,-4,-20,-3,-2
1532162689098,-6,-3,-2,-1,4,25,3,-1
1532162689103,0,-1,-1,0,-2,-5,-1,0
1532162689108,1,-2,-1,-5,3,26,4,-1
1532162689113,-1,1,3,2,0,-22,-5,-1
1532162689118,2,-1,-1,0,-4,-14,-1,-1
1532162689123,-7,-2,-1,-2,-2,1,0,1
1532162689128,7,-2,-1,0,-2,8,-1,-9
1532162689133,-27,-4,-1,-1,3,26,2,-6
1532162689138,25,3,0,-3,-3,-6,2,7
1532162689143,0,-1,1,0,-5,-24,-9,-4
1532162689148,6,1,-2,1,1,23,-3,0
1532162689153,-1,-2,0,-1,2,0,-3,-7
1532162689158,-9,-2,-2,-2,0,-1,7,23
1532162689163,8,4,1,1,1,10,3,0
1532162689168,-6,-3,1,0,-3,-17,2,-3
1532162689173,-4,-2,-5,-4,-6,0,-1,-4
1532162689178,-8,-1,-2,-3,-2,-5,-14,-11
1532162689183,3,-2,-1,-1,1,0,3,1
1532162689188,-4,1,0,0,3,-10,2,4
1532162689193,2,-1,-3,-2,-2,3,1,0
1532162689198,0,-2,-3,-2,-4,-6,6,-4
1532162689203,-7,-1,-3,-2,-3,3,-5,-1
1532162689208,3,1,2,0,3,5,14,2
1532162689213,5,3,0,1,2,-2,-1,4
1532162689218,-1,-1,-2,-1,-3,-7,2,-3
1532162689223,-4,-2,-2,-3,-1,-6,4,-2
1532162689228,1,-1,-3,1,1,-10,8,-1
1532162689233,7,1,-1,-4,-3,1,2,3
1532162689238,-11,-2,-2,-3,-2,0,0,-4
1532162689243,-3,-3,-2,2,3,-1,-2,-2
1532162689248,9,1,0,-3,-6,-11,-2,4
1532162689253,-2,-1,-1,-1,-3,-2,-5,-5
1532162689258,-5,-1,4,3,4,3,-13,-6
1532162689263,0,1,1,0,1,16,-1,1
1532162689268,-1,-3,-5,-5,-8,-37,-7,0
1532162689273,4,1,-2,-2,1,13,-1,3
1532162689278,-8,-4,-2,-2,-2,-23,-4,-2
1532162689283,6,2,1,2,1,1,-15,-3
1532162689288,-2,-2,1,1,-1,-2,-3,-3
1532162689293,2,-3,-1,-1,-3,-5,2,-3
1532162689298,-4,0,-2,-2,-2,5,9,1
1532162689303,-3,0,0,-1,-1,3,7,0
1532162689308,3,1,1,1,-2,-5,-1,-1
1532162689313,-5,-4,-2,-2,-4,-12,4,-1
1532162689318,5,0,1,2,4,16,4,-1
1532162689323,-4,-3,-2,0,-2,-4,2,-1
1532162689328,4,-2,-2,-1,-3,-8,1,1
1532162689333,-2,0,2,1,3,25,6,1
1532162689338,3,2,3,2,2,-1,-18,-4
1532162689343,0,0,-3,-1,-3,-6,10,-3
1532162689348,-4,-1,0,-1,2,14,-5,4
1532162689353,-1,1,-1,2,0,-7,-3,-2
1532162689358,1,-3,-4,-9,-8,-8,-12,0
1532162689363,-4,-3,-2,-2,-2,9,6,0
1532162689368,-1,-1,0,1,-1,6,2,-1
1532162689373,-2,1,2,0,-1,-4,9,0
1532162689378,1,0,3,5,4,3,21,1
1532162689383,-1,-1,-2,-1,1,-1,-9,-2
1532162689388,-2,-1,-2,-2,-3,-2,-3,-2
1532162689393,2,0,-3,0,-1,-3,25,2
1532162689398,-3,-1,0,0,-2,-1,0,-5
1532162689403,-1,1,2,0,-1,-1,-3,-3
1532162689408,2,-1,-1,1,3,8,32,1
1532162689413,-2,-2,-1,-2,1,-2,-17,1
1532162689418,1,0,-1,-2,-5,-3,7,-2
1532162689423,-1,-1,-1,-3,-2,0,15,1
1532162689428,-3,0,0,-1,2,1,-25,-2
1532162689433,0,-2,-3,-3,-4,-6,-1,0
1532162689438,1,-1,-3,-3,-3,1,3,0
1532162689443,-1,1,1,0,0,-11,-13,-2
1532162689448,-2,-1,-1,-1,0,3,3,-3
1532162689453,1,-1,-3,-2,-1,0,5,-3
1532162689458,2,-1,-1,-1,0,-2,-8,-6
1532162689463,0,0,0,1,1,5,5,10
1532162689468,-1,0,0,-1,0,2,-1,0
1532162689473,-2,0,-1,4,1,-5,-5,0
1532162689478,1,-2,-2,-3,-2,-1,1,-5
1532162689483,-1,-3,-1,0,0,1,-2,-2
1532162689488,1,0,-2,-2,-3,-3,-5,0
1532162689493,-1,2,2,1,1,2,-1,-2
1532162689498,-2,1,0,2,1,1,-5,0
1532162689503,3,0,-2,-1,-3,-3,-7,-2
1532162689508,-2,-2,-3,-4,-2,0,-1,-1
1532162689513,-1,0,0,-3,-4,-2,-7,-2
1532162689518,0,-1,0,0,3,7,1,2
1532162689523,-1,0,-1,-2,1,0,-2,-3
1532162689528,-2,0,0,2,3,6,-4,-2
1532162689533,-1,-2,-2,-1,-1,-4,-2,-1
1532162689538,-1,-1,-1,-2,-5,-10,-1,1
1532162689543,0,-1,-3,-1,0,14,7,0
1532162689548,-1,-1,0,-1,-2,0,0,0
1532162689553,-2,0,0,-1,-1,-10,-7,-1
1532162689558,-2,0,-1,0,-1,0,0,-1
1532162689563,-4,-1,1,0,0,0,0,-1
1532162689568,2,0,-3,0,-2,-29,-2,1
1532162689573,1,-2,-1,-5,-2,7,-2,-1
1532162689578,-2,-1,-2,0,-2,0,0,-1
1532162689583,-2,-3,0,-3,-3,8,0,-2
1532162689588,-3,-1,2,0,1,-4,2,1
1532162689593,-1,-1,-1,-1,-2,-9,-6,0
1532162689598,-2,2,0,0,1,9,1,-3
1532162689603,-16,1,-1,0,0,-2,3,-2
1532162689608,20,-1,-1,-3,-3,4,-1,4
1532162689613,1,-2,-1,0,0,-3,-1,-1
1532162689618,1,-2,-2,-2,-3,-13,-2,1
1532162689623,0,1,0,1,0,14,2,0
1532162689628,-6,-3,-1,-2,1,26,-4,-4
1532162689633,-1,-2,0,0,-1,0,-2,-1
1532162689638,0,1,4,3,6,-4,1,3
1532162689643,4,0,-2,-1,-1,-7,-4,0
1532162689648,-7,3,3,-2,-3,-3,-2,-3
1532162689653,6,-3,-7,-1,0,4,0,0
1532162689658,-3,-1,-2,-1,-1,-1,-3,-3
1532162689663,2,-1,-3,-3,-3,-11,-5,0
1532162689668,-4,0,-1,-1,-1,4,-2,-3
1532162689673,-5,1,1,0,-1,-11,-4,0
1532162689678,1,0,-3,-1,-3,2,-2,0
1532162689683,3,-1,-1,3,2,1,2,1
1532162689688,-1,-2,-4,-5,-3,-21,2,0
1532162689693,-1,0,-2,-2,-1,21,4,0
1532162689698,-1,0,-1,-1,0,-2,-6,-1
1532162689703,1,-1,0,0,-1,-8,-7,0
1532162689708,-2,-1,0,2,-1,0,-2,-2
1532162689713,-2,-1,-1,-2,-4,-7,0,-1
1532162689718,0,-1,0,-1,1,3,2,-2
1532162689723,0,-2,1,-2,-1,-2,4,-2
1532162689728,-1,1,1,0,0,0,3,0
1532162689733,0,2,-2,-1,0,-3,3,-1
1532162689738,-2,-1,4,-1,-1,1,2,-2
1532162689743,0,-4,-5,-2,-1,-2,-1,-1
1532162689748,-1,-4,-2,-3,-2,3,-6,-2
1532162689753,1,1,0,-2,-1,0,-6,0
1532162689758,0,0,-2,-3,-3,-2,-2,0
1532162689763,1,0,1,1,2,-2,-1,0
1532162689768,-2,-2,-1,-1,0,2,2,0
1532162689773,-4,-2,0,0,-1,0,1,0
1532162689778,1,0,-4,2,-2,-4,3,-2
1532162689783,0,-1,-4,-5,-2,-3,2,-1
1532162689788,-2,-1,-1,2,0,2,2,0
1532162689793,0,-2,1,1,1,0,0,-3
1532162689798,0,-2,-3,-4,-3,0,1,0
1532162689803,1,0,2,1,-1,5,-1,-1
1532162689808,0,-1,1,1,1,-11,-1,-1
1532162689813,-1,-2,0,3,1,-1,-1,-2
1532162689818,0,-1,-1,-4,-2,-2,-2,-1
1532162689823,0,0,-1,0,-3,-5,0,-1
1532162689828,0,-1,-1,-2,-1,1,3,-1
1532162689833,0,0,-1,-2,-1,-3,1,-1
1532162689838,0,-2,-3,-4,-2,1,0,-1
1532162689843,0,-2,-2,-2,-2,0,-1,0
1532162689848,-1,1,0,2,4,1,0,-1
1532162689853,-1,-1,2,3,2,-2,1,-1
1532162689858,0,-2,-2,-3,-2,3,-2,-1
1532162689863,2,-2,-3,-5,-1,-2,0,0
1532162689868,-5,-2,-2,-2,-2,0,0,-3
1532162689873,1,1,1,-1,-2,-2,1,-1
1532162689878,1,1,0,3,-1,-1,-2,0
1532162689883,0,0,0,-2,-3,-2,0,1
1532162689888,-2,-3,-1,4,1,-2,-1,2
1532162689893,-1,0,0,-5,0,0,-3,-1
1532162689898,-2,-2,-2,-3,1,0,0,-2
1532162689903,-1,0,-2,-3,-5,-3,-2,1
1532162689908,0,-1,-1,0,0,-1,-2,-3
1532162689913,-3,1,0,2,1,-3,-2,-2
1532162689918,-1,-1,-2,0,-2,-1,0,-1
1532162689923,0,0,0,1,1,0,-1,-1
1532162689928,-3,-2,-1,0,-1,0,1,1
1532162689933,-1,-1,0,2,1,0,1,-1
1532162689938,0,0,-2,-3,-2,0,-1,0
1532162689943,-3,-1,-3,-4,-3,-3,0,-1
1532162689948,0,1,1,0,0,0,0,-1
1532162689953,-1,-1,-2,-1,0,-1,1,0
1532162689958,-2,1,-1,1,0,0,-1,0
1532162689963,0,-1,2,3,0,-1,1,-2
1532162689968,1,-3,-3,-4,-4,-3,-2,1
1532162689973,-1,-2,-2,-2,-2,0,1,-1
1532162689978,0,-1,1,2,-3,-1,-2,0
1532162689983,0,2,8,4,1,-1,-2,-1
1532162689988,1,-3,-7,-3,-3,0,1,0
1532162689993,-3,1,4,-2,-1,-1,1,-2
1532162689998,-3,-3,-4,2,2,-1,-1,-1
1532162690003,3,1,-2,-5,-3,-2,-1,-2
1532162690008,-1,-1,2,0,-2,-3,-1,0
1532162690013,3,2,-1,-1,0,0,-1,0
1532162690018,-2,-1,1,-1,0,1,1,-1
1532162690023,-3,1,-1,-1,0,1,-1,0
1532162690028,0,-1,-2,-2,-1,1,-1,-1
1532162690033,-2,-2,-1,2,1,-1,-2,0
1532162690038,-1,-1,-2,-4,-3,-2,0,-1
1532162690043,-1,-4,-3,0,0,-1,0,-2
1532162690048,0,3,3,-1,1,-2,0,0
1532162690053,0,-1,-2,-2,0,1,0,-1
1532162690058,0,-2,-1,3,-1,-1,-1,0
1532162690063,-1,-1,-3,-7,-2,1,2,0
1532162690068,-1,-1,1,-1,-1,1,1,0
1532162690073,0,-2,-2,-1,-2,-2,0,1
1532162690078,-1,-1,1,-1,1,0,1,-1
1532162690083,-2,-1,-1,1,-1,-1,-1,-1
1532162690088,0,0,1,-1,-2,-3,-1,0
1532162690093,1,-3,-7,-3,-3,-1,0,1
1532162690098,-1,-3,-2,-2,-1,-2,-2,-2
1532162690103,-4,-4,0,1,0,0,-1,-4
1532162690108,-1,1,1,0,3,0,1,0
1532162690113,-1,0,0,0,-1,0,0,0
1532162690118,-1,-1,0,-1,-3,-1,-1,-1
1532162690123,2,0,-2,-1,1,0,0,-1
1532162690128,-2,-2,2,-1,-1,0,0,-1
1532162690133,1,-1,-1,0,-1,-1,-1,0
1532162690138,-1,0,1,0,-1,-2,1,-1
1532162690143,-2,0,-1,0,0,-1,0,-2
1532162690148,0,-1,-3,-4,-3,-3,-3,-1
1532162690153,-3,-2,-1,0,2,0,0,-2
1532162690158,3,2,0,-1,-1,1,2,2
1532162690163,0,-4,-5,-7,-3,0,0,-1
1532162690168,-2,-2,-2,1,0,0,0,-2
1532162690173,0,2,2,0,0,-1,-1,0
1532162690178,-3,-2,-2,0,1,-1,-2,-2
1532162690183,-1,1,3,3,0,0,-3,-1
1532162690188,-3,-1,-3,-3,-2,0,-2,-1
1532162690193,-3,-3,-2,-1,-1,-3,-4,-2
1532162690198,0,1,2,0,0,0,-2,-1
1532162690203,1,2,1,0,-1,-1,-1,1
1532162690208,-1,0,-3,-1,-2,0,0,-2
1532162690213,-1,-2,-2,0,2,0,0,-2
1532162690218,0,1,0,-3,-1,0,2,0
1532162690223,-3,-1,-1,0,1,-1,1,-1
1532162690228,0,-1,1,2,3,0,2,0
1532162690233,2,0,-2,-3,-6,-2,0,1
1532162690238,-1,-1,-1,-1,-2,0,-1,0
1532162690243,0,-4,-7,-3,-1,0,1,-1
1532162690248,-1,0,3,2,0,-2,-1,0
1532162690253,-1,1,0,-1,0,0,-1,-3
1532162690258,0,-1,-2,-3,-2,-3,-1,0
1532162690263,-1,0,-1,-4,-2,-1,1,0
1532162690268,0,-2,2,-2,-2,-3,-1,-2
1532162690273,1,-2,-2,1,1,0,0,0
1532162690278,-7,-1,0,1,2,-1,1,-2
1532162690283,-1,-1,0,-1,0,-1,-1,1
1532162690288,2,-1,-3,-1,-3,0,1,-2
1532162690293,-1,-1,-1,-5,-3,-3,0,1
1532162690298,0,-2,-2,-2,-2,-2,0,-2
1532162690303,0,1,1,2,2,0,-1,-1
1532162690308,0,-2,-1,0,0,1,2,-2
1532162690313,0,0,0,1,-1,-2,-4,-1
1532162690318,1,-1,-3,0,-1,-2,-1,-1
1532162690323,-3,-2,-2,1,-1,-3,2,-2
1532162690328,0,3,2,0,-1,1,-1,0
1532162690333,-1,-1,-3,0,0,0,2,0
1532162690338,-1,-2,2,0,-2,-1,-5,-2
1532162690343,0,-1,-4,-2,-2,0,2,2
1532162690348,-1,0,-2,-3,-2,1,-1,0
1532162690353,-2,0,2,-1,-2,-1,0,-1
1532162690358,0,-1,-2,-1,3,1,-3,-1
1532162690363,-3,0,-4,0,1,2,-2,-2
1532162690368,-2,-2,1,-4,-2,0,1,1
1532162690373,1,0,0,-3,-3,0,-6,0
1532162690378,0,-1,-2,-1,-1,-1,0,-1
1532162690383,-1,-1,2,2,1,-5,-3,-1
1532162690388,-1,0,-1,0,1,0,0,-1
1532162690393,1,4,8,1,0,0,3,-2
1532162690398,-1,-6,-11,-2,-4,-2,0,-1
1532162690403,0,-1,2,0,-1,1,1,-1
1532162690408,-3,-1,-4,-2,-3,-1,-1,-2
1532162690413,0,-1,0,0,1,1,4,0
1532162690418,0,-2,-1,-1,1,-1,-3,1
1532162690423,0,0,0,-1,3,1,-3,-2
1532162690428,0,-2,-2,-3,-5,-3,-4,0
1532162690433,-1,0,-2,0,1,1,-1,0
1532162690438,-2,-1,2,1,1,-1,-1,-2
1532162690443,1,-1,-1,0,-2,-2,0,0
1532162690448,0,0,1,1,2,-1,-2,-3
1532162690453,-1,-2,-3,-2,-1,-2,-2,-1
1532162690458,-2,-1,-2,-3,-3,1,-1,1
1532162690463,-3,-2,-1,-4,-4,-3,0,-3
1532162690468,1,-1,-2,0,2,-2,3,0
1532162690473,-2,-2,0,0,0,0,1,1
1532162690478,0,1,1,1,0,0,4,0
1532162690483,-3,-6,-6,-9,-4,1,2,0
1532162690488,1,2,1,-1,0,1,1,-2
1532162690493,-1,-1,-3,1,-3,-3,-1,0
1532162690498,0,1,2,-2,0,1,-1,-1
1532162690503,-1,0,-2,0,-1,0,0,0
1532162690508,-2,-1,-1,-1,-2,-1,1,-1
1532162690513,-1,1,1,2,0,1,-3,-1
1532162690518,-1,0,-1,2,2,-3,0,1
1532162690523,-2,-2,-1,1,-2,-2,1,0
1532162690528,-1,-3,-3,-4,-2,0,1,0
1532162690533,-3,-2,-2,-2,0,-2,-1,-3
1532162690538,0,-1,1,-2,-1,-2,-5,-2
1532162690543,0,1,0,1,3,0,-1,0
1532162690548,-2,1,3,3,2,0,0,-1
1532162690553,-3,-3,-7,-4,-3,-1,1,0
1532162690558,-4,0,-1,-2,-2,-2,1,-3
1532162690563,2,1,-1,0,0,-2,0,0
1532162690568,1,0,0,-2,0,-1,1,2
1532162690573,-3,-2,-1,-1,-1,-1,2,-1
1532162690578,-1,-3,-2,-2,-1,-3,-2,-3
1532162690583,0,0,4,1,0,2,-1,0
1532162690588,1,-1,-4,0,-2,0,-5,0
1532162690593,0,-1,2,1,2,1,-9,-3
1532162690598,-1,-2,-3,-1,-2,0,-4,1
1532162690603,-3,-2,-3,-1,-1,-1,-3,-3
1532162690608,-1,-3,-1,3,-1,0,1,0
1532162690613,0,1,1,-6,-2,-2,3,-3
1532162690618,-2,0,2,-2,-3,-2,2,-1
1532162690623,0,-1,-7,1,1,0,6,-1
1532162690628,1,-3,-2,-2,-2,-2,-1,1
1532162690633,0,0,-1,0,0,-2,-1,-1
1532162690638,0,0,1,2,-2,-1,-2,-1
1532162690643,-3,-2,1,0,0,-1,-1,-1
1532162690648,-2,0,0,-1,0,0,-1,-3
1532162690653,0,-2,-2,1,-1,-1,-1,0
1532162690658,-1,-2,-1,-4,-3,0,-1,1
1532162690663,1,-1,-2,-2,-2,0,-3,1
1532162690668,-2,-1,-1,-2,-1,-1,0,0
1532162690673,-1,1,-1,-1,-1,-1,-1,-1
1532162690678,0,-1,1,1,0,0,-1,-1
1532162690683,1,0,-1,1,-1,-3,-2,0
1532162690688,-1,-2,-3,-1,-1,2,-1,-1
1532162690693,-1,0,1,2,1,-3,0,1
1532162690698,-1,-3,-4,0,-1,0,0,-1
1532162690703,-1,-1,-2,-3,-1,-1,0,-1
1532162690708,-1,1,-2,-2,-1,-1,3,-1
1532162690713,-2,-2,1,1,0,1,3,0
1532162690718,1,3,0,-3,-2,-2,2,-1
1532162690723,-1,-3,-1,-4,-4,-2,0,-2
1532162690728,-3,0,0,2,2,0,0,-1
1532162690733,1,0,-1,-2,0,-1,1,-1
1532162690738,0,-2,-1,2,2,-1,0,-1
1532162690743,-1,-2,-2,2,-2,-1,0,-2
1532162690748,-4,-1,-1,-7,-3,-3,-2,-2
1532162690753,2,2,2,1,2,2,-1,-2
1532162690758,-1,1,0,-2,-1,-1,-2,-2
1532162690763,-1,-1,-2,-2,0,0,-1,0
1532162690768,-1,1,0,1,-1,1,-1,-1
1532162690773,-2,-3,-5,-3,-1,-1,-2,0
1532162690778,0,-1,1,1,0,-1,-2,2
1532162690783,-1,-1,3,1,0,1,-2,-2
1532162690788,-1,2,5,0,2,-1,-3,-3
1532162690793,0,-3,-6,-4,-3,-1,-1,-1
1532162690798,-2,-1,-3,-3,-3,-2,2,1
1532162690803,-1,1,1,0,-2,-1,-2,-1
1532162690808,1,0,-1,-2,-1,1,1,0
1532162690813,0,1,2,1,-1,1,0,1
1532162690818,0,-1,-2,-1,-1,-2,0,-2
1532162690823,1,-1,0,-2,0,0,0,0
1532162690828,0,-3,-2,1,0,2,0,-1
1532162690833,2,0,0,-2,-3,-4,0,-2
1532162690838,0,-2,-3,1,0,1,2,1
1532162690843,0,2,1,0,-1,-1,1,-1
1532162690848,-4,-3,-2,0,-1,-2,-4,-4
1532162690853,-2,-1,-1,-1,0,2,-4,-1
1532162690858,-1,1,-1,-4,-3,-1,-2,-1
1532162690863,0,-2,-1,0,1,-1,0,-2
1532162690868,-1,-1,-2,0,1,-1,1,1
1532162690873,-1,-1,0,-1,-3,-2,2,-1
1532162690878,0,-1,-1,1,2,1,-3,0
1532162690883,-2,2,0,-1,1,1,-3,1
1532162690888,0,0,-2,-2,-1,-2,-2,0
1532162690893,0,0,-1,2,1,1,0,0
1532162690898,-2,0,2,0,0,0,2,-2
1532162690903,0,-3,-1,-3,-1,0,0,-1
1532162690908,-1,-2,-1,-1,-2,-2,1,0
1532162690913,-2,0,-1,-3,-3,-1,1,-2
1532162690918,-1,0,0,2,2,-1,2,0
1532162690923,0,-1,2,-2,-1,-1,2,-1
1532162690928,0,0,-1,-3,-3,-2,1,0
1532162690933,0,-1,0,1,-1,-2,1,-2
1532162690938,0,-1,0,-1,-2,-2,-2,-1
1532162690943,0,0,0,2,1,0,0,1
1532162690948,-1,-1,-1,-1,-1,2,0,-2
1532162690953,-4,-3,-3,-2,-1,0,-1,0
1532162690958,3,1,0,0,0,-1,1,1
1532162690963,-1,-1,-1,0,1,-2,-1,-1
1532162690968,-1,-1,-1,-1,-1,-4,-3,-3
1532162690973,-1,-2,-3,-2,-1,-1,-3,-1
1532162690978,-2,-3,-2,-1,1,0,-2,-1
1532162690983,-2,-2,1,0,0,0,-2,-1
1532162690988,1,2,0,-1,-2,-1,-2,0
1532162690993,-1,0,-5,-1,-1,-1,-3,0
1532162690998,-2,0,0,0,1,0,-2,-3
1532162691003,-1,2,-3,0,-1,0,-1,-1
1532162691008,0,-2,-3,-2,-1,0,-2,0
1532162691013,1,0,3,1,0,-1,-1,-2
1532162691018,-1,-1,-1,1,0,1,2,-1
1532162691023,-1,-4,-5,-5,-5,-2,1,-1
1532162691028,1,0,2,2,1,1,-1,0
1532162691033,0,0,-2,-2,-4,-1,-1,1
1532162691038,-2,0,2,0,1,0,1,-1
1532162691043,-1,-2,-2,0,-1,-2,1,-3
1532162691048,-2,-2,-2,-1,0,1,3,-2
1532162691053,2,0,2,0,1,2,4,0
1532162691058,0,-1,-3,0,-1,0,-1,0
1532162691063,0,-1,-2,-2,-2,-2,-1,1
1532162691068,-1,0,0,0,-1,-1,0,1
1532162691073,-3,-1,3,0,0,1,-1,2
1532162691078,-1,-1,-1,-2,-1,0,-1,-3
1532162691083,1,-2,-2,-3,-1,-2,0,-1
1532162691088,0,0,0,0,-1,-1,-1,-2
1532162691093,0,-1,-1,-1,0,-3,0,1
1532162691098,-4,-3,-2,-5,-3,-2,1,0
1532162691103,1,2,3,1,1,1,-1,0
1532162691108,0,-3,-2,0,0,-1,1,-2
1532162691113,-2,1,-1,-1,0,0,-1,-1
1532162691118,1,0,-2,-3,-3,-1,-1,0
1532162691123,-3,-1,-1,-2,-2,-1,-2,0
1532162691128,-1,1,0,1,1,1,-1,1
1532162691133,0,-2,-1,0,1,0,0,-1
1532162691138,0,-2,-1,-2,-3,-2,-1,1
1532162691143,-1,0,0,0,1,0,1,-1
1532162691148,-1,-1,-3,-4,-2,-2,0,-1
1532162691153,0,0,-1,-2,-1,-1,-1,-3
1532162691158,2,0,2,-2,0,-2,-2,-3
1532162691163,-2,-3,0,1,2,0,-2,-1
1532162691168,0,-1,0,-1,-1,-2,0,-1
1532162691173,-2,-2,1,-3,-2,-1,-2,-2
1532162691178,-2,0,0,2,0,0,-2,-1
1532162691183,-1,0,-3,-2,-2,1,-1,-2
1532162691188,0,0,-2,-3,-3,-4,-1,-2
1532162691193,-1,0,-2,-2,2,-1,-2,1
1532162691198,-1,2,5,1,-1,1,0,-2
1532162691203,-1,-3,-7,-1,-1,1,0,-1
1532162691208,-1,-1,1,-2,-3,2,-1,-1
1532162691213,0,0,0,1,-1,-2,-1,-1
1532162691218,-1,-4,-4,-2,0,-3,0,0
1532162691223,-3,1,4,2,-1,-2,-2,-1
1532162691228,2,-1,-2,-2,-1,0,1,1
1532162691233,0,-1,-2,1,0,0,-2,-1
1532162691238,-3,-1,-2,0,0,0,-2,-1
1532162691243,0,-2,0,-3,-2,0,-2,-1
1532162691248,-3,-1,-2,1,-1,-2,-1,-1
1532162691253,-4,-1,-2,-1,0,0,-2,-1
1532162691258,-1,0,-1,0,-2,-2,1,-3
1532162691263,-2,-2,0,0,-1,-1,0,-1
1532162691268,0,-1,2,1,1,0,-2,-1
1532162691273,0,-1,-3,-2,-1,0,3,1
1532162691278,-1,3,5,-2,0,-1,-2,0
1532162691283,0,-4,-6,-1,1,0,0,1
1532162691288,-2,0,-3,-2,-1,0,0,-1
1532162691293,-2,-4,-2,-1,-1,0,-1,-1
1532162691298,1,1,-1,0,0,0,-1,1
1532162691303,-1,0,0,-1,-1,0,0,-4
1532162691308,0,0,1,3,0,0,-1,1
1532162691313,-1,0,-2,-2,-2,0,-1,-2
1532162691318,-4,-5,-4,-4,-4,-2,-1,-1
1532162691323,0,1,1,0,1,-2,-1,1
1532162691328,1,-2,-1,-2,-1,1,-1,0
1532162691333,-2,-1,0,-1,0,0,0,-2
1532162691338,1,-1,-2,1,0,0,1,1
1532162691343,0,1,1,0,2,-1,1,-1
1532162691348,0,1,0,-3,-4,-2,-1,-1
1532162691353,-2,-1,-3,-2,-2,-2,0,-2
1532162691358,-3,-2,-3,0,0,1,-1,0
1532162691363,-1,-1,0,0,0,0,-3,-1
1532162691368,-1,1,1,1,1,1,-2,0
1532162691373,1,-2,0,-3,-3,-1,0,1
1532162691378,-2,-1,0,-1,-1,-3,0,-1
1532162691383,-1,-2,0,1,-2,-1,1,0
1532162691388,-2,-1,-1,-1,-2,-1,-2,1
1532162691393,2,3,4,-1,-1,1,-2,0
1532162691398,-2,-4,-7,-2,-1,0,-2,-3
1532162691403,0,-2,1,1,0,-2,-3,-1
1532162691408,-3,-3,-3,-2,-3,-1,0,-2
1532162691413,2,-2,-1,-2,0,-1,-1,0
1532162691418,0,0,2,-3,-2,-2,0,-2
1532162691423,0,1,-1,-1,-1,0,1,-1
1532162691428,-1,-1,0,-4,-1,1,0,-1
1532162691433,-1,1,-1,1,-1,-1,-1,2
1532162691438,2,1,-1,2,-1,-1,1,0
1532162691443,-1,0,-3,-1,-1,1,0,-1
1532162691448,0,-1,-1,1,1,-1,0,-1
1532162691453,-4,-1,-1,1,0,-2,0,-1
1532162691458,1,1,0,0,1,-1,0,2
1532162691463,-1,0,1,-3,-2,0,-1,-1
1532162691468,-1,-1,-3,-2,-1,-1,0,-2
1532162691473,-2,-3,-1,0,1,0,1,-1
1532162691478,1,-2,0,-1,-1,0,-1,-2
1532162691483,-2,-2,1,-1,-3,0,-3,-1
1532162691488,0,-3,-5,-2,-2,-2,1,1
1532162691493,-2,-3,-2,-2,-1,-2,0,-1
1532162691498,0,1,1,1,1,1,0,-1
1532162691503,-2,-1,-2,-2,1,-3,1,0
1532162691508,-1,1,2,0,0,0,-1,-3
1532162691513,-3,0,0,1,0,-1,0,0
1532162691518,-1,-2,-2,-1,0,1,0,0
1532162691523,1,3,2,-2,-2,0,-1,-1
1532162691528,-1,-2,-2,-1,-2,-3,0,0
1532162691533,0,0,-2,-1,0,0,-1,-1
