1532142671789,1,31,-8,-1,-7,-7,-1,4
1532142671794,17,73,3,-1,-1,-2,-7,-3
1532142671799,1,-33,6,-2,3,1,0,4
1532142671804,-7,-43,-4,0,2,6,9,-3
1532142671809,-10,-20,-7,-3,-7,-1,0,1
1532142671814,-2,-1,-8,-3,4,-2,-7,-13
1532142671819,-7,10,4,1,4,-2,1,-1
1532142671824,-6,-39,-2,-3,3,1,0,2
1532142671829,11,23,5,5,3,1,3,8
1532142671834,-3,-9,-11,-3,-8,-2,-2,-6
1532142671839,-6,-13,0,-2,-8,-1,-2,-8
1532142671844,-3,-25,-4,-1,4,-1,-2,-2
1532142671849,8,18,12,1,6,-2,1,-1
1532142671854,-13,19,13,3,-2,-1,3,4
1532142671859,-5,-67,-20,-2,-8,0,0,1
1532142671864,-8,49,4,-1,-2,-6,-7,-4
1532142671869,2,-8,-1,-2,-3,3,4,2
1532142671874,-2,34,12,1,3,0,0,2
1532142671879,30,-4,7,2,4,-1,-3,-2
1532142671884,-43,-50,-19,-3,-3,-4,-3,-1
1532142671889,8,-6,6,-1,-1,1,-7,-3
1532142671894,10,4,-6,1,-2,-3,-10,1
1532142671899,0,12,-1,-1,2,2,12,3
1532142671904,6,4,2,2,-6,-1,0,5
1532142671909,6,0,-7,-5,2,0,-3,-6
1532142671914,-19,-37,-5,1,0,3,12,0
1532142671919,-13,3,0,0,-3,-8,-24,-3
1532142671924,16,25,11,3,1,-1,4,-3
1532142671929,-14,-32,-13,4,7,-1,-1,-3
1532142671934,0,20,2,-2,0,1,1,2
1532142671939,-5,-7,-8,-2,2,-2,6,5
1532142671944,3,-22,-7,-5,-14,-2,-6,-4
1532142671949,-7,37,11,-3,1,4,1,-1
1532142671954,2,-24,-11,0,2,2,7,2
1532142671959,-8,3,4,0,-2,-4,-13,-5
1532142671964,-3,-1,-6,-2,-2,-4,-2,3
1532142671969,13,-59,-4,-3,5,-4,1,0
1532142671974,5,93,16,5,2,-2,-5,-1
1532142671979,-3,-13,-8,-4,1,15,40,2
1532142671984,20,-7,-2,-2,1,-11,-50,-5
1532142671989,5,13,3,2,-1,1,16,3
1532142671994,-27,-42,-2,-3,-1,-10,-42,-16
1532142671999,24,31,6,4,0,5,13,4
1532142672004,-2,2,6,2,1,2,-10,-5
1532142672009,-26,-6,-13,-8,-7,-2,5,-2
1532142672014,-8,-31,-6,-3,2,3,4,2
1532142672019,3,33,4,4,0,7,15,0
1532142672024,-3,-12,0,-2,-3,-13,-7,-3
1532142672029,17,63,28,7,1,-5,-13,1
1532142672034,-7,-100,-49,-13,-9,-8,14,4
1532142672039,15,25,-1,-2,-5,-1,-38,-4
1532142672044,-8,-12,-2,2,4,4,26,3
1532142672049,79,4,0,1,3,6,22,2
1532142672054,24,14,8,1,-3,-4,-10,2
1532142672059,32,-14,-2,-3,-6,-14,-9,-1
1532142672064,-25,-26,-5,2,-3,1,-34,-5
1532142672069,16,54,3,-4,-7,-8,12,-8
1532142672074,21,11,15,3,4,8,20,11
1532142672079,52,5,-1,-2,1,-3,-5,9
1532142672084,-66,-10,-5,-5,-2,2,13,-33
1532142672089,-14,-29,-8,0,1,2,-16,-1
1532142672094,18,5,0,-3,-4,2,-19,2
1532142672099,-35,-8,-2,-2,-4,-11,-10,-8
1532142672104,14,-17,5,0,4,2,30,14
1532142672109,-50,-9,-18,-4,-1,-2,-48,-17
1532142672114,-34,8,6,1,2,1,-4,-5
1532142672119,-25,17,8,2,6,-2,18,-3
1532142672124,38,-2,-2,-3,-1,1,11,12
1532142672129,-24,-13,-5,0,-3,-1,10,1
1532142672134,26,10,8,2,-1,-3,1,5
1532142672139,-31,0,2,-1,1,12,17,-3
1532142672144,-45,-7,-18,-4,0,-8,-37,-7
1532142672149,8,20,10,-2,-10,2,5,-2
1532142672154,25,6,2,3,2,2,7,-5
1532142672159,6,-100,-6,2,1,-1,1,4
1532142672164,41,76,21,6,1,1,13,5
1532142672169,-6,-59,-26,-7,-5,-4,-3,-1
1532142672174,4,36,3,-4,-10,-5,-2,-2
1532142672179,-20,7,15,6,6,2,-2,7
1532142672184,91,41,-11,-5,-3,2,10,8
1532142672189,-75,-66,-11,0,-7,-11,-5,-3
1532142672194,56,78,13,0,0,4,10,5
1532142672199,-61,-41,-26,-4,-1,-4,6,-3
1532142672204,27,-14,-1,-5,-3,1,-46,6
1532142672209,-15,12,12,6,9,8,5,6
1532142672214,-14,-8,-8,-3,-1,-4,-11,-21
1532142672219,-24,39,2,1,-2,-1,-16,-11
1532142672224,17,-29,-11,-1,-5,-8,-6,-16
1532142672229,24,26,-2,-3,-9,-1,3,8
1532142672234,12,-29,-4,-3,-1,4,0,-9
1532142672239,13,43,10,-2,-1,2,-1,-1
1532142672244,11,48,-14,-2,8,-1,1,-1
1532142672249,19,37,7,3,6,0,-1,1
1532142672254,-17,-33,-6,-2,-2,-5,9,-8
1532142672259,-58,23,9,-3,-4,1,-9,2
1532142672264,-86,-80,-9,-6,-5,3,21,0
1532142672269,37,58,-3,-3,0,0,-1,4
1532142672274,-14,-22,-7,-1,-1,-4,-6,4
1532142672279,-4,23,0,0,4,3,0,0
1532142672284,-13,-8,10,4,0,8,36,6
1532142672289,-28,-21,1,-2,-6,-14,-20,-8
1532142672294,-3,-5,2,0,-8,0,7,2
1532142672299,-68,-41,-8,-3,-3,-4,-4,-5
1532142672304,22,34,22,7,-3,6,18,13
1532142672309,-5,-61,-21,-6,-4,3,1,-18
1532142672314,-33,-13,3,0,4,2,6,6
1532142672319,51,0,-15,-2,-3,-2,-5,-10
1532142672324,-28,74,10,0,-1,-5,-6,-4
1532142672329,38,-24,-3,-7,4,-5,-2,-7
1532142672334,-20,-18,-7,0,3,-3,-13,-7
1532142672339,45,-92,-29,-11,-8,-9,-21,-35
1532142672344,-9,28,9,-2,-9,-3,5,5
1532142672349,20,28,7,-2,-3,0,1,6
1532142672354,19,-46,-27,-8,-6,-1,-5,2
1532142672359,61,24,3,-4,1,5,6,4
1532142672364,40,-29,-3,3,2,-3,-2,-14
1532142672369,17,-3,4,-3,1,-4,4,0
1532142672374,-18,4,-2,-1,7,6,3,7
1532142672379,-18,38,12,0,5,-1,0,0
1532142672384,9,-19,-6,-1,4,0,-3,-8
1532142672389,-13,-7,2,3,1,5,8,-3
1532142672394,51,14,2,-1,-3,-2,5,3
1532142672399,88,0,19,6,4,10,6,18
1532142672404,-49,-12,-20,-11,-2,-4,2,-10
1532142672409,-2,53,15,9,5,2,1,5
1532142672414,-44,11,-2,-3,0,-3,-1,-10
1532142672419,-23,3,-2,-4,-3,-2,-1,-12
1532142672424,-41,-32,1,1,-6,3,0,-3
1532142672429,-8,-14,-1,4,12,-1,1,2
1532142672434,-21,40,9,4,3,-3,-4,7
1532142672439,-84,-50,-21,-12,-9,-9,-20,-39
1532142672444,1,0,2,2,6,12,10,8
1532142672449,-20,-5,-9,-6,-6,-11,-20,1
1532142672454,21,5,2,0,-1,3,33,0
1532142672459,16,15,-3,-2,-5,-8,-51,-9
1532142672464,75,-33,-6,-4,1,5,-4,1
1532142672469,29,-12,6,3,0,5,0,1
1532142672474,-2,10,2,2,0,0,8,5
1532142672479,-6,30,-2,-4,-8,-2,4,-10
1532142672484,-9,23,3,-2,0,-5,1,14
1532142672489,-42,-32,4,2,-1,5,5,6
1532142672494,17,-1,-14,0,-1,-1,-14,-14
1532142672499,-80,-11,5,8,4,0,15,9
1532142672504,32,34,6,-1,-2,-8,-8,6
1532142672509,3,-26,-7,-4,-1,3,13,1
1532142672514,-118,-22,-2,-1,-3,-5,-21,-20
1532142672519,-19,11,0,2,2,5,11,10
1532142672524,34,18,7,0,5,-4,2,-5
1532142672529,29,18,-1,1,-2,4,2,11
1532142672534,51,23,12,1,3,3,3,6
1532142672539,108,-26,-10,1,4,0,7,21
1532142672544,18,2,-11,-9,-10,-12,-23,-23
1532142672549,-3,8,-1,-4,-3,3,-5,-4
1532142672554,10,-1,2,-5,-2,-1,8,0
1532142672559,47,-15,-4,-2,-7,-2,6,12
1532142672564,-46,-41,5,4,4,6,6,-12
1532142672569,-13,35,4,5,4,2,-4,-3
1532142672574,28,24,2,1,0,-5,-6,8
1532142672579,44,-1,-4,-3,2,-12,-8,23
1532142672584,-16,-7,-9,-3,-1,0,-8,-3
1532142672589,-12,-20,-3,-3,-3,-4,1,1
1532142672594,-30,-9,4,-1,0,-1,-5,-10
1532142672599,8,35,7,2,3,5,11,1
1532142672604,14,11,-13,-4,-5,-9,-12,-4
1532142672609,18,21,5,0,-2,-3,-1,-3
1532142672614,2,19,-1,-1,-2,1,0,10
1532142672619,66,-40,-2,0,2,4,9,5
1532142672624,31,-15,-3,0,-3,-1,0,-12
1532142672629,-44,-10,-9,-8,-5,-1,-1,-10
1532142672634,-38,-7,9,-3,-2,-2,-4,-16
1532142672639,-36,6,14,7,-2,5,10,9
1532142672644,-53,59,17,9,6,5,7,12
1532142672649,-9,-14,-22,-5,-1,-6,-8,-3
1532142672654,31,3,-2,-4,-4,2,5,16
1532142672659,-65,-2,11,5,4,-1,-7,-22
1532142672664,-46,13,7,2,8,-2,1,4
1532142672669,-53,6,13,5,1,-1,-5,0
1532142672674,-10,-11,-2,0,0,9,17,10
1532142672679,-23,10,-9,-9,-7,-6,-15,-3
1532142672684,5,-37,-13,-5,-3,2,7,8
1532142672689,11,-8,10,5,9,3,2,0
1532142672694,29,46,-3,4,4,-7,-12,1
1532142672699,16,23,6,1,3,1,3,-7
1532142672704,42,-10,3,0,-1,9,16,15
1532142672709,37,4,-1,-2,-6,-6,0,9
1532142672714,45,28,21,1,1,-9,-12,3
1532142672719,-16,-21,-22,-2,0,-1,1,3
1532142672724,26,-16,-29,-4,-4,-5,-4,-7
1532142672729,35,0,1,5,2,5,7,-3
1532142672734,-16,-39,-4,-2,-2,0,-5,-4
1532142672739,6,34,10,-2,0,0,4,4
1532142672744,25,-18,9,-3,-1,-2,0,8
1532142672749,30,6,5,1,-2,-1,3,1
1532142672754,-43,-34,-21,0,0,-2,-5,-12
1532142672759,-67,17,7,9,15,0,1,0
1532142672764,-25,19,-7,-3,-1,-3,-10,3
1532142672769,-13,-6,4,-6,-4,-3,3,-6
1532142672774,-29,14,3,-4,-1,3,5,-5
1532142672779,-22,-18,0,-6,-4,2,8,7
1532142672784,-23,-43,-4,1,-5,-8,-14,-7
1532142672789,16,-8,-1,-1,2,1,-3,-4
1532142672794,-7,-28,-4,2,0,-5,0,2
1532142672799,18,4,-8,-3,-6,-1,-7,-1
1532142672804,24,29,14,0,2,1,2,0
1532142672809,-55,8,12,-9,-6,1,-5,-22
1532142672814,15,-39,-25,0,-3,-5,1,4
1532142672819,50,20,13,11,1,1,2,3
1532142672824,52,19,4,3,3,2,4,3
1532142672829,44,-11,-1,2,2,2,20,-1
1532142672834,11,26,10,-4,-13,5,7,5
1532142672839,-8,-21,-9,-15,0,-14,-36,7
1532142672844,-41,-9,3,6,-5,0,0,-6
1532142672849,-17,-23,-11,3,7,-1,-3,8
1532142672854,116,78,14,11,6,7,2,17
1532142672859,10,3,-10,-1,-4,2,20,0
1532142672864,-49,-15,9,-1,-3,3,5,-6
1532142672869,8,15,-14,-8,-3,-2,-11,-1
1532142672874,41,-22,-15,2,-2,-5,-7,-5
1532142672879,-20,-69,-14,-8,-4,-3,-2,-5
1532142672884,-48,7,-4,-3,1,-3,2,-3
1532142672889,-16,-1,3,0,-4,4,-5,-2
1532142672894,-33,-8,30,-6,2,-4,-6,-5
1532142672899,6,45,-10,3,-3,-1,7,-5
1532142672904,33,-28,-15,-4,-2,-6,-4,20
1532142672909,18,33,44,-8,-12,-2,-6,-20
1532142672914,40,3,-27,14,13,-1,-3,11
1532142672919,0,-2,13,4,0,2,18,-29
1532142672924,10,33,8,3,8,7,-14,9
1532142672929,59,-21,25,-4,5,5,7,32
1532142672934,-25,21,11,16,-4,-7,-14,-42
1532142672939,-30,0,3,0,7,-2,2,18
1532142672944,19,-2,-1,1,-2,2,12,7
1532142672949,-1,20,15,-17,-6,-2,3,5
1532142672954,-5,-50,4,-8,-5,0,8,15
1532142672959,33,-27,-45,9,4,10,-7,3
1532142672964,37,36,-1,7,-2,-5,-5,-21
1532142672969,-12,66,-20,2,0,-6,-8,9
1532142672974,-22,-15,14,-7,-6,-2,4,-4
1532142672979,-5,27,59,-10,-3,0,3,6
1532142672984,-59,-40,-36,-8,0,3,4,8
1532142672989,-33,-4,-20,4,0,4,9,8
1532142672994,26,-14,-46,-2,-3,-7,-10,-13
1532142672999,-56,-10,-12,-7,-8,-7,-9,-12
1532142673004,14,53,42,1,-2,-6,1,-9
1532142673009,-16,-28,-22,1,8,6,-3,2
1532142673014,-15,-2,10,2,4,10,14,44
1532142673019,36,-7,-14,-1,-4,-5,-7,-2
1532142673024,-30,-14,37,-7,-6,-4,-4,-34
1532142673029,-31,18,-34,-1,-8,-14,-14,-16
1532142673034,-74,-29,-17,-8,-4,5,0,-4
1532142673039,-34,68,-7,2,12,4,6,3
1532142673044,-7,-62,-17,-3,3,-1,-3,24
1532142673049,7,-7,19,9,1,3,19,1
1532142673054,-54,-13,4,-6,-3,-3,-12,-11
1532142673059,-14,-29,11,1,-7,1,3,-6
1532142673064,12,45,-45,-10,-3,-3,-9,-9
1532142673069,-12,-15,13,3,3,2,-4,-5
1532142673074,-22,17,-17,-6,-4,2,0,4
1532142673079,90,-21,33,-9,-2,2,8,17
1532142673084,23,18,28,14,3,2,3,-3
1532142673089,42,4,-8,2,-4,-2,-5,-11
1532142673094,64,-29,-17,1,3,-6,-4,-4
1532142673099,9,4,6,-3,-4,-3,-4,1
1532142673104,-31,32,-1,5,-1,-1,-2,-3
1532142673109,-78,12,19,-4,1,2,0,-3
1532142673114,7,18,6,-1,0,-4,0,-3
1532142673119,-40,-27,-13,2,1,-2,-3,-8
1532142673124,-34,10,11,3,0,1,5,-2
1532142673129,43,-18,-16,-7,-1,-5,-7,-13
1532142673134,59,-6,-2,-14,-4,-1,-6,-5
1532142673139,-32,-32,-30,-8,-6,-4,-11,-21
1532142673144,-32,-23,-4,-5,2,1,15,24
1532142673149,23,-60,-12,-15,-7,-5,-4,19
1532142673154,76,39,-31,-8,5,7,9,5
1532142673159,-3,36,51,44,5,-4,-8,-4
1532142673164,-6,-35,76,24,4,3,4,14
1532142673169,-51,5,12,7,4,0,-8,-8
1532142673174,-44,-5,2,-12,-5,-6,-6,-18
1532142673179,-8,-3,-29,-20,-11,-7,-6,-5
1532142673184,25,5,-28,-4,8,21,10,11
1532142673189,-32,-26,-17,-4,-6,-8,-6,-18
1532142673194,-66,-13,-1,-12,-5,-8,-6,10
1532142673199,5,-10,-26,0,5,11,8,7
1532142673204,22,20,17,-11,-13,-13,-11,-8
1532142673209,19,-31,-55,-3,-4,-5,-6,-16
1532142673214,39,-17,-1,9,7,11,7,-6
1532142673219,-8,-20,10,2,2,-1,-16,-31
1532142673224,-33,50,-7,-4,-2,-2,3,-3
1532142673229,35,83,10,3,0,-4,4,19
1532142673234,4,-6,34,6,-1,-6,-8,-19
1532142673239,-27,-21,15,-4,-1,-1,7,25
1532142673244,64,-78,-67,-10,-1,-12,-10,-7
1532142673249,33,34,-1,11,9,18,6,1
1532142673254,50,-70,10,13,7,-1,1,10
1532142673259,24,70,19,1,5,4,8,14
1532142673264,30,0,43,-18,-13,-9,-5,14
1532142673269,-53,7,-46,3,-2,-4,4,15
1532142673274,13,-43,-56,1,-1,-9,-22,-35
1532142673279,-3,-10,-5,-12,-7,-5,4,4
1532142673284,25,46,-45,-5,1,2,2,1
1532142673289,12,-50,52,4,2,6,13,35
1532142673294,-9,44,29,8,0,6,8,4
1532142673299,7,-13,2,4,-6,7,2,7
1532142673304,-55,20,-9,-8,-2,-9,-7,-19
1532142673309,8,19,-1,5,5,0,-4,2
1532142673314,-19,-30,4,6,4,5,2,7
1532142673319,-34,5,14,2,-4,-7,-10,-19
1532142673324,-20,15,-3,-3,-5,-7,-10,-30
1532142673329,75,8,-3,-13,-7,0,4,10
1532142673334,-31,-1,-21,-4,2,6,6,1
1532142673339,-37,-28,-8,2,5,-7,-6,-2
1532142673344,16,14,3,-2,-3,2,1,-20
1532142673349,20,-44,-21,-4,3,-4,-3,26
1532142673354,56,2,22,1,-4,-3,16,40
1532142673359,66,77,-5,-4,7,-1,-18,-20
1532142673364,24,-34,45,10,-6,-8,-7,-58
1532142673369,-5,-21,-60,-1,4,-4,-8,0
1532142673374,36,44,25,-2,11,0,5,-2
1532142673379,29,-10,-33,-1,-1,4,12,39
1532142673384,14,-3,-10,-4,-1,-1,-1,17
1532142673389,18,45,35,1,2,4,4,-1
1532142673394,-22,-37,-11,-3,-2,2,-2,-22
1532142673399,-2,-18,13,-3,5,0,-3,-3
1532142673404,26,72,3,-6,3,0,-5,-13
1532142673409,19,-59,-6,0,-3,-4,1,0
1532142673414,-55,18,-15,-1,-2,1,7,22
1532142673419,47,53,47,8,-5,1,4,11
1532142673424,22,-57,-7,-8,-4,-1,-9,-11
1532142673429,21,34,16,-2,-7,-4,0,14
1532142673434,-13,-43,-104,-11,-19,-7,-17,-21
1532142673439,-87,-31,8,0,11,0,9,18
1532142673444,19,42,54,7,0,5,-2,2
1532142673449,-21,-17,-40,-19,-10,-3,-5,-22
1532142673454,-7,20,32,9,7,1,-2,0
1532142673459,21,-36,-5,8,4,-2,-4,-6
1532142673464,-10,4,6,5,7,-1,6,18
1532142673469,-10,34,62,-4,0,7,8,-2
1532142673474,43,12,1,-5,6,7,3,-7
1532142673479,-15,-43,-78,7,4,-12,-12,-19
1532142673484,-41,-35,-16,1,-5,-3,-1,-6
1532142673489,10,15,-5,2,-2,-1,-1,-2
1532142673494,-20,-8,16,-5,1,-3,3,-1
1532142673499,-3,6,34,-2,3,4,5,-6
1532142673504,53,-2,-22,-15,-17,-6,-13,-2
1532142673509,-83,-40,-38,7,-1,-6,-14,-43
1532142673514,-54,-2,17,-1,5,0,2,14
1532142673519,-20,-30,16,-1,-1,8,-2,-13
1532142673524,-39,65,-11,-1,-7,-3,-2,6
1532142673529,-16,-12,19,-7,-4,-3,-4,-10
1532142673534,8,-92,-30,-3,3,2,9,4
1532142673539,43,61,8,-6,-7,-1,20,5
1532142673544,50,7,-14,-1,-9,5,3,22
1532142673549,11,-23,11,3,11,-4,-12,9
1532142673554,3,0,5,1,-5,-6,-6,-13
1532142673559,25,10,10,-8,-15,0,-10,-14
1532142673564,-11,15,-2,16,11,-4,-2,2
1532142673569,53,9,12,-2,-35,0,3,7
1532142673574,33,2,-11,-5,14,-11,-18,-2
1532142673579,72,12,-8,-7,-13,10,14,12
1532142673584,-3,19,-1,11,12,-9,-2,-16
1532142673589,-58,-42,-6,3,58,21,1,-28
1532142673594,-52,-50,-11,-6,-64,0,10,-4
1532142673599,-29,29,10,-6,-34,-14,-5,5
1532142673604,-14,31,3,-6,-18,-9,-5,-7
1532142673609,32,-73,3,7,13,-10,-1,10
1532142673614,-18,20,-6,-4,25,9,1,-9
1532142673619,2,1,-14,-4,32,4,5,1
1532142673624,-17,27,10,6,7,-8,8,-1
1532142673629,-104,-34,3,10,17,0,-11,-22
1532142673634,-15,-20,-4,-1,11,-2,-9,-4
1532142673639,26,36,1,-5,3,-1,11,6
1532142673644,27,7,0,-1,2,-1,1,7
1532142673649,-8,-40,-9,-6,4,-5,-6,-2
1532142673654,13,-15,2,4,17,-7,-4,1
1532142673659,-3,32,3,-6,-44,-3,6,0
1532142673664,14,-8,16,-3,-17,-1,4,-2
1532142673669,12,24,-21,-3,3,-5,-7,2
1532142673674,-23,-27,-12,-8,1,-6,4,2
1532142673679,10,6,-20,5,-23,1,12,13
1532142673684,-9,-13,-9,1,39,9,-11,-15
1532142673689,19,34,75,0,-28,-5,7,25
1532142673694,-1,0,-23,9,20,3,0,25
1532142673699,-15,-6,-6,-7,9,-2,-9,-57
1532142673704,9,22,61,-9,-13,-2,5,0
1532142673709,12,-18,-57,-1,-9,-7,-5,-7
1532142673714,-88,2,43,4,11,5,-2,-12
1532142673719,4,17,-17,9,14,2,4,24
1532142673724,-17,-52,-53,-10,-10,-6,0,2
1532142673729,1,23,33,-1,2,3,1,-5
1532142673734,18,4,-3,2,-3,1,2,-3
1532142673739,-24,3,16,-3,12,0,-1,3
1532142673744,18,11,10,7,7,-2,0,-6
1532142673749,-2,12,-20,-3,-27,-3,-1,9
1532142673754,29,-3,-7,0,11,-5,-3,-3
1532142673759,0,-2,9,-2,12,3,1,2
1532142673764,22,-6,-6,1,-32,-5,6,8
1532142673769,-17,-4,-9,-1,0,4,-10,-1
1532142673774,14,11,-8,-2,4,2,0,-3
1532142673779,-18,-34,-28,-3,6,-3,-4,-4
1532142673784,-13,-88,-70,-7,-2,0,-1,7
1532142673789,-40,19,5,-2,3,-4,-6,-4
1532142673794,20,-10,3,-7,-10,-5,-5,-17
1532142673799,24,25,24,4,10,5,7,12
1532142673804,43,41,16,5,1,1,-1,-2
1532142673809,11,11,-1,-2,-4,-5,4,25
1532142673814,21,15,17,0,1,6,-1,2
1532142673819,-42,-25,-22,-5,6,-5,-6,-30
1532142673824,14,-4,9,1,-5,4,1,5
1532142673829,14,-7,-2,-8,-15,1,3,9
1532142673834,-12,5,4,7,30,-2,-2,-9
1532142673839,18,1,11,2,-9,7,-3,4
1532142673844,-6,13,4,-1,-7,2,9,19
1532142673849,1,-7,-5,-2,-6,0,-17,-21
1532142673854,-17,-13,-15,-8,-10,-4,0,3
1532142673859,-7,34,21,0,13,3,9,9
1532142673864,54,-39,-29,3,7,0,1,11
1532142673869,14,7,9,5,4,-5,-2,5
1532142673874,10,-32,-33,-3,2,-2,-4,-25
1532142673879,-2,-31,-12,-14,-7,-9,-10,-9
1532142673884,-65,15,13,-4,-9,-2,-1,-2
1532142673889,18,-15,-19,-9,0,-5,1,-9
1532142673894,-6,22,12,9,-5,2,-1,7
1532142673899,6,10,13,-1,-5,-1,5,10
1532142673904,1,21,8,-13,9,0,-1,1
1532142673909,23,10,11,25,9,4,0,-10
1532142673914,-20,5,22,18,15,0,1,-1
1532142673919,13,14,-6,-3,1,-11,0,14
1532142673924,-4,8,15,5,6,0,-3,-6
1532142673929,-21,-7,-4,-16,-8,-7,-2,-19
1532142673934,4,-10,-10,-8,-8,-3,1,4
1532142673939,2,-15,-13,-5,-4,-1,1,4
1532142673944,-6,2,-5,-7,-1,-2,-1,1
1532142673949,-1,-10,-3,-2,-3,-3,-6,-11
1532142673954,-7,1,-13,-9,-15,-1,1,6
1532142673959,55,-8,-4,0,4,3,0,3
1532142673964,-44,12,3,7,-4,-3,-9,-15
1532142673969,-1,4,4,1,5,2,3,3
1532142673974,1,0,5,-5,-1,-1,1,6
1532142673979,-3,10,18,-2,-3,2,4,4
1532142673984,27,14,-5,4,0,-1,-1,4
1532142673989,-8,-26,-35,0,4,-2,-4,-12
1532142673994,-3,4,11,-3,-1,0,-3,-1
1532142673999,-24,-2,9,8,0,0,-1,1
1532142674004,15,-1,4,-12,-8,-1,2,3
1532142674009,-6,11,9,-6,0,0,3,0
1532142674014,1,-43,-20,21,3,-3,-6,-5
1532142674019,5,-1,6,6,1,2,-2,8
1532142674024,-5,-3,-3,1,2,-4,-4,-11
1532142674029,5,5,3,-9,-2,-19,4,14
1532142674034,-1,-10,-5,-14,-7,14,0,1
1532142674039,5,10,-9,-1,-5,-2,-1,-9
1532142674044,-5,-22,4,3,2,2,-3,-2
1532142674049,17,3,4,-2,-3,-1,2,1
1532142674054,-34,39,5,-4,-4,-7,1,5
1532142674059,-19,-3,-21,4,3,0,-7,-2
1532142674064,-1,-8,1,1,-1,-5,-2,-4
1532142674069,-18,-16,10,9,5,7,5,5
1532142674074,-10,-55,-12,-11,-3,-2,1,3
1532142674079,5,35,-1,-8,-2,2,-2,-12
1532142674084,11,3,-10,-4,-1,-6,-5,0
1532142674089,-2,9,12,14,4,-2,5,10
1532142674094,22,92,9,-4,-5,5,-11,-10
1532142674099,-7,-12,0,1,-1,-4,1,-8
1532142674104,-1,12,5,0,2,-13,9,3
1532142674109,-9,-31,-3,-9,-5,7,-11,0
1532142674114,4,-8,19,1,0,-1,8,11
1532142674119,-3,-43,-30,-1,0,1,-2,0
1532142674124,-4,11,-4,-3,-2,0,-6,-6
1532142674129,-1,-5,10,-1,-2,0,3,2
1532142674134,-2,13,-11,2,0,-3,-2,-6
1532142674139,-6,-11,26,4,0,-6,-1,1
1532142674144,1,-13,-14,-1,-1,2,0,0
1532142674149,2,-17,-16,-4,-1,-2,0,1
1532142674154,4,18,1,-8,-2,-4,-6,-10
1532142674159,1,9,20,-3,-1,2,4,4
1532142674164,-6,-5,15,13,3,6,0,0
1532142674169,9,36,11,1,-1,2,-4,-4
1532142674174,-25,-50,-14,-8,-5,-7,0,-1
1532142674179,-3,-20,-17,-7,-2,0,-1,3
1532142674184,4,29,28,3,-2,0,-2,-6
1532142674189,1,15,-25,0,1,0,-5,-4
1532142674194,6,41,36,-1,-1,-1,2,2
1532142674199,-7,-64,-29,7,2,-1,-3,0
1532142674204,10,53,14,-1,-2,3,-2,0
1532142674209,-6,-61,-48,-7,-1,-1,-1,-3
1532142674214,2,-11,-3,-1,-1,-1,0,1
1532142674219,-4,49,12,-8,-3,0,0,-1
1532142674224,15,-19,-12,-14,-6,-3,-1,-3
1532142674229,-5,4,13,-2,0,2,2,8
1532142674234,19,21,23,17,4,1,2,-3
1532142674239,3,8,-5,8,2,-1,-1,-3
1532142674244,-8,-11,17,8,1,2,-2,-3
1532142674249,-5,15,-1,-11,-4,-3,-1,-3
1532142674254,5,-12,-16,-9,-1,0,1,6
1532142674259,3,6,11,-5,0,0,1,1
1532142674264,-12,-33,-27,3,0,0,-1,1
1532142674269,11,22,-5,4,1,1,-1,-3
1532142674274,6,-11,16,5,2,0,1,2
1532142674279,-5,24,12,-1,-3,-2,0,-2
1532142674284,0,-36,-39,-11,-5,-3,-3,-4
1532142674289,2,11,14,-3,-3,-2,-2,-2
1532142674294,-6,-40,-24,-4,-2,1,1,0
1532142674299,14,42,29,2,1,0,1,4
1532142674304,-27,-23,-8,-9,-1,1,-2,-3
1532142674309,-6,6,0,8,-4,-1,-2,-6
1532142674314,4,-9,-7,5,3,-1,-1,2
1532142674319,17,-10,-7,4,-17,-4,-5,-1
1532142674324,-4,46,9,2,3,3,-1,3
1532142674329,-3,-1,7,-1,-3,-2,1,4
1532142674334,-3,-23,-7,-1,-1,-2,-5,-5
1532142674339,-7,-33,-13,-4,3,-1,-2,-11
1532142674344,3,12,-2,-3,15,3,3,-3
1532142674349,-2,-5,5,-1,-22,-1,4,6
1532142674354,1,25,21,-8,-2,-2,-2,5
1532142674359,-16,-49,-39,2,3,-2,-4,-17
1532142674364,0,-25,4,-2,-5,-1,1,4
1532142674369,5,32,10,4,9,3,0,-5
1532142674374,-2,1,24,10,1,-1,3,5
1532142674379,0,-13,6,-7,-5,-2,1,4
1532142674384,-4,16,-23,-21,-8,-11,-12,-10
1532142674389,5,27,-22,-9,2,-1,0,-2
1532142674394,6,-15,6,32,3,4,0,0
1532142674399,3,12,20,2,7,2,3,3
1532142674404,-7,-1,1,6,-1,0,0,2
1532142674409,-1,-6,16,-6,0,-3,0,-4
1532142674414,-7,-16,-27,-21,-7,-3,-3,-4
1532142674419,8,27,1,1,-3,0,0,3
1532142674424,9,-6,-4,-2,-4,-1,1,2
1532142674429,-11,-14,-6,0,-1,-2,-3,-4
1532142674434,1,-12,1,-2,-5,-1,0,-1
1532142674439,-4,-7,6,-1,0,0,1,4
1532142674444,5,18,-3,1,-2,1,2,0
1532142674449,-8,23,42,3,3,-1,-4,-4
1532142674454,1,-36,-53,4,-3,0,-6,-3
1532142674459,8,21,8,8,8,2,0,6
1532142674464,-20,-23,-18,2,-4,-4,-6,-9
1532142674469,7,-3,4,5,1,-1,0,2
1532142674474,-11,4,-2,-14,-5,-2,2,3
1532142674479,-5,7,13,-11,-8,0,1,2
1532142674484,6,7,-11,1,1,3,2,0
1532142674489,-1,-2,-8,7,2,2,-1,0
1532142674494,4,2,12,-3,-1,-4,-1,-2
1532142674499,-6,-16,-18,-5,-5,-4,-1,0
1532142674504,-7,23,27,3,5,0,-1,-3
1532142674509,-10,-53,-12,-2,-2,0,0,0
1532142674514,19,59,17,5,5,-3,-5,-4
1532142674519,-1,-9,-2,3,2,0,0,1
1532142674524,3,4,10,7,-3,0,2,3
1532142674529,-5,21,18,-8,-1,-3,-4,-4
1532142674534,1,-62,-45,-2,-1,1,0,-2
1532142674539,-23,3,9,0,0,-1,-6,-4
1532142674544,13,-43,-2,3,-1,-3,-1,2
1532142674549,13,19,9,1,3,-1,0,1
1532142674554,-33,1,7,-6,-4,0,3,1
1532142674559,8,2,-16,-7,-1,-3,-3,-1
1532142674564,25,38,15,-1,-4,-5,-5,-1
1532142674569,2,0,-17,-9,0,3,1,0
1532142674574,-6,19,13,4,2,3,3,4
1532142674579,-18,-60,-15,12,-1,-1,1,-2
1532142674584,-20,-63,0,-1,1,1,-3,-4
1532142674589,24,53,-12,-2,-3,-3,0,0
1532142674594,-10,-14,1,0,-1,-2,-5,-5
1532142674599,-9,-10,6,-5,-4,0,-2,-2
1532142674604,6,13,-10,-12,-9,-3,-1,-1
1532142674609,4,9,-8,2,4,1,1,0
1532142674614,7,20,23,3,0,-1,0,1
1532142674619,-15,2,-9,-11,-4,-1,0,-2
1532142674624,-1,-27,-18,5,2,-1,-1,-3
1532142674629,18,52,10,-8,-7,-6,-3,-1
1532142674634,-21,-63,-32,1,7,1,-2,-1
1532142674639,14,-7,-8,17,6,1,2,9
1532142674644,3,8,-6,-17,-7,-4,-1,-2
1532142674649,1,23,19,0,-1,3,-1,-3
1532142674654,2,26,8,2,-3,0,1,-3
1532142674659,0,-27,11,-4,-3,0,-2,0
1532142674664,-14,0,-17,-9,-2,-4,-2,1
1532142674669,-1,-21,-16,-4,-1,0,2,0
1532142674674,1,23,22,9,4,2,-1,2
1532142674679,-3,10,6,7,-2,0,2,4
1532142674684,11,16,14,3,0,0,1,2
1532142674689,-4,-7,-10,-3,0,1,-1,0
1532142674694,-2,10,0,-8,-7,-2,-3,-9
1532142674699,-1,-24,-17,-10,0,1,2,1
1532142674704,-4,5,19,14,3,1,-1,-5
1532142674709,-2,-2,16,6,3,0,1,-2
1532142674714,13,5,-22,-5,-2,-4,0,4
1532142674719,-2,1,17,4,0,-3,-3,-4
1532142674724,10,-2,-12,-13,-2,0,2,5
1532142674729,-5,33,19,-9,0,0,2,3
1532142674734,-2,-12,-23,12,0,-3,-4,-6
1532142674739,-3,6,-3,15,2,-2,-5,-9
1532142674744,-7,4,11,-2,0,-1,1,0
1532142674749,15,-14,-29,-15,-6,-2,-1,0
1532142674754,2,10,16,-3,1,-3,0,5
1532142674759,0,30,5,2,0,0,1,-6
1532142674764,3,-6,-7,-1,-1,-3,-1,5
1532142674769,-3,-21,-6,2,-1,-2,-1,6
1532142674774,1,21,3,-7,-4,2,1,-20
1532142674779,-14,-28,-8,-5,-2,0,-1,-5
1532142674784,7,4,11,8,4,-2,-2,-4
1532142674789,-6,-10,-5,3,2,-2,0,5
1532142674794,-12,-10,-5,-9,-6,-3,-3,5
1532142674799,-2,2,2,-5,-3,0,-1,-3
1532142674804,-3,3,-2,0,-2,1,0,8
1532142674809,14,-5,-5,10,6,0,-2,-9
1532142674814,-19,7,15,2,-1,1,1,2
1532142674819,8,-16,-34,-11,-5,-5,-2,1
1532142674824,-6,-2,10,0,2,0,-5,-5
1532142674829,-1,8,2,11,6,4,1,3
1532142674834,2,4,11,-1,0,-1,-1,-2
1532142674839,-1,-11,-9,-7,-4,-3,-1,2
1532142674844,12,13,-25,-8,-4,0,2,2
1532142674849,-18,-21,14,0,-3,-1,-2,-2
1532142674854,-2,16,2,6,-1,0,-1,1
1532142674859,8,-14,14,3,2,1,1,5
1532142674864,-10,-7,-10,-4,-2,-2,-3,-2
1532142674869,2,3,-10,-5,-4,-3,-2,-7
1532142674874,-9,-3,-6,-6,-3,-1,1,5
1532142674879,2,8,7,5,2,-1,-3,-2
1532142674884,-12,16,15,5,1,0,-1,-2
1532142674889,-6,-25,-11,-4,-1,-2,-4,-3
1532142674894,5,-5,-3,-5,-3,-1,1,3
1532142674899,2,3,-5,-11,-5,-3,-2,-4
1532142674904,-2,-1,12,15,3,1,-2,0
1532142674909,5,10,3,4,1,1,0,4
1532142674914,2,-2,-2,0,-3,-1,-2,-15
1532142674919,-6,1,7,0,3,0,1,1
1532142674924,3,-15,-12,-12,-7,0,0,0
1532142674929,0,-2,-5,-2,-2,-3,-3,-5
1532142674934,8,4,10,7,1,-2,-1,7
1532142674939,-4,9,2,2,-1,-1,-2,-5
1532142674944,4,-6,3,-2,1,-3,-2,-2
1532142674949,-11,2,-6,-5,-5,0,1,-1
1532142674954,8,11,-4,-6,16,5,2,0
1532142674959,1,-3,-2,0,-7,-11,-4,-1
1532142674964,-6,7,1,0,-10,-2,-3,-7
1532142674969,1,-2,3,1,-10,-3,0,1
1532142674974,-6,-9,1,-2,8,3,1,1
1532142674979,4,-4,-1,5,6,6,3,6
1532142674984,8,4,-3,-5,0,-1,-2,-6
1532142674989,3,16,1,-2,-2,-1,3,5
1532142674994,5,-11,-2,3,-3,-1,2,3
1532142674999,-5,4,-6,0,2,1,2,1
1532142675004,0,-9,0,0,0,0,-1,-2
1532142675009,-5,1,1,-1,1,1,-3,-3
1532142675014,5,-1,-5,-5,-5,-3,-2,-2
1532142675019,-10,-8,1,0,-6,0,2,1
1532142675024,9,18,0,2,6,2,3,0
1532142675029,0,-3,1,-3,3,-3,-2,1
1532142675034,3,7,2,7,-4,-1,-2,-1
1532142675039,-5,-18,10,5,0,0,1,-3
1532142675044,-13,4,-7,-2,0,0,0,4
1532142675049,-1,-3,3,2,0,-1,-2,-1
1532142675054,1,-4,-8,-15,-11,-2,-4,-2
1532142675059,-3,1,-9,-6,0,1,0,0
1532142675064,-10,-5,7,4,1,2,1,1
1532142675069,4,-22,-10,2,5,0,-3,-3
1532142675074,12,13,20,11,-2,-1,1,3
1532142675079,-10,16,13,-2,0,1,-1,-2
1532142675084,14,-7,-18,-10,5,-1,1,-3
1532142675089,-12,-39,-11,-4,-16,-8,-2,1
1532142675094,-7,-4,1,3,6,3,-2,-4
1532142675099,2,6,4,3,-4,0,-6,-3
1532142675104,-3,-3,3,-3,3,-1,0,-3
1532142675109,-6,13,-3,-1,7,3,-1,-5
1532142675114,6,-4,-3,-3,-14,-2,4,8
1532142675119,-2,3,-7,-7,12,-4,-6,-8
1532142675124,-8,-12,-7,-6,1,-2,-3,0
1532142675129,5,12,1,2,-6,1,-1,-3
1532142675134,-6,0,6,9,0,-1,-1,1
1532142675139,-11,-19,-2,-1,1,1,2,1
1532142675144,16,15,-3,-1,-8,-3,-1,-2
1532142675149,5,2,2,-3,-1,0,1,-3
1532142675154,-4,4,-4,-6,-1,0,0,0
1532142675159,-3,-16,-9,-9,-9,-3,-1,-3
1532142675164,-11,-29,-8,-4,-3,1,0,-2
1532142675169,6,23,10,11,9,-1,-4,-3
1532142675174,-2,4,14,12,5,0,-2,-1
1532142675179,13,11,-1,-5,-3,0,3,3
1532142675184,-33,-25,-21,-20,-11,-4,-3,-3
1532142675189,2,5,-3,-5,22,6,1,-2
1532142675194,-4,-8,-13,-6,-24,-16,-5,-2
1532142675199,10,17,24,23,20,3,-1,6
1532142675204,1,-5,3,2,-19,-2,1,-1
1532142675209,-5,-7,-12,-12,2,1,-1,-2
1532142675214,-2,-5,-12,-11,10,1,2,-3
1532142675219,0,4,0,-3,-7,0,0,1
1532142675224,6,-2,15,16,12,0,-6,2
1532142675229,-2,6,3,-1,-3,0,1,-1
1532142675234,-5,-15,-10,-13,-7,0,-1,-7
1532142675239,2,-2,-23,-18,-12,-5,-4,-4
1532142675244,0,-4,7,9,9,3,1,2
1532142675249,11,0,-7,-2,-13,-4,-3,-2
1532142675254,-7,9,17,18,26,5,1,5
1532142675259,-5,-6,3,-2,-24,-3,1,-8
1532142675264,-1,6,-5,-2,-5,-2,-4,-3
1532142675269,-13,-14,5,-5,-7,-2,-1,1
1532142675274,5,-4,-11,-9,3,0,-1,3
1532142675279,2,5,0,5,11,1,-1,-5
1532142675284,10,7,7,1,0,-2,-1,2
1532142675289,-5,-1,-4,-1,-4,-3,1,1
1532142675294,-1,-1,-7,-10,-6,3,1,-5
1532142675299,-12,-8,-6,2,-3,-2,0,-2
1532142675304,5,0,3,6,-10,1,-2,-3
1532142675309,1,1,4,2,16,-2,-1,4
1532142675314,7,4,17,14,-4,-1,-3,6
1532142675319,0,21,-7,-4,1,3,3,3
1532142675324,4,-23,-1,-4,-1,-3,0,-3
1532142675329,3,-10,-8,-7,-6,-4,-1,0
1532142675334,6,-1,-11,-6,0,-2,4,4
1532142675339,7,-1,3,-3,-8,-2,0,3
1532142675344,-16,-4,2,3,2,1,-2,-3
1532142675349,4,12,-9,-7,-7,-2,1,-1
1532142675354,-7,-6,3,1,-2,-2,-4,-2
1532142675359,7,-2,6,8,5,1,1,2
1532142675364,6,10,0,-9,3,-1,1,-1
1532142675369,-8,-13,-4,-1,-11,3,-1,0
1532142675374,1,11,10,10,-10,-3,-2,-3
1532142675379,-3,3,-19,-20,-4,-6,-1,-2
1532142675384,3,8,6,14,1,-2,2,-1
1532142675389,11,29,14,5,3,3,1,4
1532142675394,-22,-29,-7,-6,4,3,-1,-5
1532142675399,-7,-8,6,5,-1,-1,-4,-4
1532142675404,15,3,-13,-14,-3,-4,2,4
1532142675409,-4,-9,-10,-12,-5,-3,1,0
1532142675414,12,21,-7,7,6,-2,-2,-3
1532142675419,-5,3,26,14,7,2,-1,3
1532142675424,10,3,-4,-7,1,-1,0,-3
1532142675429,-7,-25,3,8,2,0,0,0
1532142675434,18,-6,-21,-26,-15,-7,-2,-6
1532142675439,-3,-14,4,14,14,3,-2,-1
1532142675444,-11,11,17,13,4,4,-2,3
1532142675449,-1,19,-6,-1,-8,-3,-3,1
1532142675454,-11,-5,-5,-11,-2,0,4,-2
1532142675459,10,-15,-22,-5,-3,-3,-3,-1
1532142675464,0,-4,11,4,1,-2,0,0
1532142675469,-5,6,8,6,7,1,-1,0
1532142675474,21,4,8,2,1,1,-3,0
1532142675479,-23,-7,-3,-5,-5,-2,1,-1
1532142675484,-14,-4,-17,-10,-7,-2,-4,-7
1532142675489,-2,-5,-8,-4,-2,-4,-3,-4
1532142675494,14,-4,5,3,3,-2,1,8
1532142675499,10,-2,1,-2,-7,0,-3,-2
1532142675504,-12,-9,11,8,4,1,1,2
1532142675509,6,-1,2,4,2,0,-2,-8
1532142675514,-1,9,-2,-2,-2,0,0,-3
1532142675519,4,-3,0,-1,1,-1,-1,4
1532142675524,-8,-2,-3,-3,0,-1,-1,-1
1532142675529,4,8,2,1,-1,0,-1,1
1532142675534,-15,-9,-6,-4,0,-1,2,-1
1532142675539,8,6,1,-2,-4,0,-1,3
1532142675544,9,28,13,8,4,2,1,10
1532142675549,-23,-30,-8,-3,-4,-3,-3,-11
1532142675554,-8,7,4,0,1,-2,1,3
1532142675559,15,11,4,-2,0,-2,-3,1
1532142675564,9,0,-5,-1,0,-2,-3,-2
1532142675569,-6,1,6,4,4,1,0,-2
1532142675574,-15,-22,-6,-7,-9,-3,2,1
1532142675579,9,-4,-15,-8,-2,-1,1,-6
1532142675584,-9,0,2,-6,-4,-2,-2,-4
1532142675589,18,24,10,9,1,-2,0,10
1532142675594,-13,-11,4,5,1,3,-3,-13
1532142675599,3,12,5,2,1,-1,2,0
1532142675604,-2,-18,-18,-14,-8,-4,1,-3
1532142675609,-7,-3,-4,-2,2,1,1,1
1532142675614,10,16,13,10,4,0,-6,-4
1532142675619,2,39,7,3,3,1,-3,0
1532142675624,-20,-36,-13,-7,-5,-3,-6,-8
1532142675629,-10,-37,-24,-22,-11,-4,1,-5
1532142675634,7,6,-3,11,7,4,-4,-7
1532142675639,-19,7,9,10,4,4,0,-2
1532142675644,10,10,2,-2,2,-1,1,-1
1532142675649,23,10,2,-1,-1,-1,0,3
1532142675654,-22,-8,-9,-8,-3,-4,-3,1
1532142675659,7,-16,-21,-17,-11,-6,1,5
1532142675664,-2,6,10,18,12,6,0,1
1532142675669,0,-1,7,7,0,-1,-8,-3
1532142675674,5,15,3,0,1,0,4,0
1532142675679,0,-14,-3,-5,-4,-4,-1,0
1532142675684,0,-15,-14,-12,-5,-1,-3,-14
1532142675689,18,20,2,2,1,2,0,-1
1532142675694,15,7,-5,-5,-5,-3,-1,4
1532142675699,-2,-19,-16,-18,-10,-5,1,3
1532142675704,5,22,-5,4,2,-1,2,-4
1532142675709,-18,-15,-9,-5,-4,-2,1,2
1532142675714,-16,-17,-18,-16,-11,-3,0,2
1532142675719,0,-2,-14,-9,-4,-1,-1,-5
1532142675724,9,12,22,18,10,3,-5,0
1532142675729,2,15,15,5,4,2,0,4
1532142675734,20,7,-1,-2,0,0,1,-9
1532142675739,-9,-22,-9,-3,-5,-7,-5,-1
1532142675744,-5,-11,-17,-14,-7,-3,0,-3
1532142675749,-3,4,-6,6,-1,2,1,-2
1532142675754,3,10,9,2,2,0,4,5
1532142675759,-3,1,0,0,3,2,1,-2
1532142675764,-3,2,-3,-2,-1,-1,2,1
1532142675769,0,0,4,-3,-1,-3,-1,-1
1532142675774,14,1,-4,-6,-3,0,1,5
1532142675779,1,8,6,10,9,0,-6,-7
1532142675784,-9,4,17,7,0,0,0,1
1532142675789,5,4,-5,0,-1,-3,-1,1
1532142675794,-1,2,-4,-2,-1,1,2,7
1532142675799,-10,-16,-5,-9,-10,-4,1,-1
1532142675804,-9,-5,5,8,7,3,-3,-13
1532142675809,7,6,-3,-2,-1,-2,-2,-3
1532142675814,-1,2,2,0,0,-1,-1,2
1532142675819,-12,-8,0,-2,-1,0,-1,-3
1532142675824,10,6,-9,-7,-6,-4,1,6
1532142675829,26,-3,-2,-3,-4,-1,-2,0
1532142675834,-10,-1,-1,2,1,0,-2,-2
1532142675839,1,-3,-1,-1,0,0,2,1
1532142675844,-4,-3,-3,-1,-1,-1,-1,-2
1532142675849,-10,1,1,2,2,0,-4,0
1532142675854,-9,-6,5,-1,0,1,2,2
1532142675859,-2,1,-1,0,-2,1,-2,-7
1532142675864,2,1,-6,-2,-2,-1,-1,-3
1532142675869,-5,-1,-2,-2,-2,-1,0,-5
1532142675874,-13,-12,-2,-2,1,-2,0,0
1532142675879,2,-5,-2,1,1,-2,-3,5
1532142675884,-5,12,7,3,-2,0,-3,-4
1532142675889,5,1,-2,-1,7,-2,-1,1
1532142675894,-2,5,-2,-2,-2,-1,-2,-6
1532142675899,-3,-1,-2,-4,-4,1,2,1
1532142675904,-2,-11,-7,-4,0,-3,-1,1
1532142675909,-8,-5,-2,-1,-6,-1,-1,-2
1532142675914,-13,-4,-2,-4,7,-2,-2,-3
1532142675919,5,3,3,4,-5,-5,-1,3
1532142675924,-4,-6,-5,-5,0,2,2,3
1532142675929,-2,1,0,-1,-8,-2,0,-1
1532142675934,3,1,-2,-2,-5,-2,-1,-2
1532142675939,-2,-1,3,6,15,6,0,-3
1532142675944,-2,2,-2,-5,-7,-3,-3,0
1532142675949,-6,-4,-5,-1,1,0,1,-1
1532142675954,-2,10,7,4,-2,-1,2,0
1532142675959,14,-6,-6,-4,-9,-3,-1,-3
1532142675964,8,19,-10,-10,-1,-1,-1,-3
1532142675969,8,-2,6,9,4,-1,-5,-3
1532142675974,-1,0,2,2,-3,0,-1,-2
1532142675979,-7,2,6,0,3,1,-1,3
1532142675984,-3,-9,-2,-1,0,-1,1,3
1532142675989,-6,-4,-10,-9,-5,-3,0,0
1532142675994,-1,2,-5,1,3,0,-2,0
1532142675999,-2,1,1,1,0,-2,0,-1
1532142676004,5,-1,5,0,-1,-4,0,2
1532142676009,-20,-13,3,-3,1,1,1,-4
1532142676014,11,8,2,0,-8,-2,-2,-2
1532142676019,-3,-6,-12,-8,-2,-3,-1,2
1532142676024,0,5,1,6,-1,0,1,4
1532142676029,-9,4,5,0,2,2,2,-4
1532142676034,13,12,4,2,3,0,-2,-3
1532142676039,-3,-2,5,2,2,-1,-2,-4
1532142676044,-4,-9,-4,-2,-1,-1,-2,-1
1532142676049,-5,-4,6,-2,-2,1,1,2
1532142676054,-3,-7,-14,-9,-3,-3,-4,-3
1532142676059,-5,3,0,0,2,0,3,-1
1532142676064,-8,-11,6,5,2,0,-2,-3
1532142676069,0,8,-8,-2,-1,-1,-4,3
1532142676074,-7,2,0,0,-2,-2,0,5
1532142676079,-10,-12,-2,-5,-9,-1,1,1
1532142676084,-10,-3,-4,3,-1,2,1,0
1532142676089,1,8,6,1,21,5,-3,-3
1532142676094,5,1,1,-2,-18,-10,-4,-3
1532142676099,3,12,-3,0,-6,2,-1,-2
1532142676104,-18,-12,-5,-6,-19,0,0,-5
1532142676109,-6,2,-2,7,26,-2,-3,1
1532142676114,-3,-10,6,6,3,4,2,0
1532142676119,3,-7,-2,-2,-4,0,-2,-2
1532142676124,5,-10,0,-6,-1,-3,-1,-5
1532142676129,8,-4,-9,-7,-11,-1,0,0
1532142676134,15,3,-8,-2,-10,-4,-2,-6
1532142676139,6,8,10,14,23,5,0,0
1532142676144,8,5,6,1,4,0,-3,1
1532142676149,8,15,-7,1,-8,-2,-2,-3
1532142676154,-9,-2,-2,-8,4,0,0,-1
1532142676159,-19,-2,7,7,-10,-3,1,0
1532142676164,-8,-9,2,2,7,1,0,1
1532142676169,-7,2,-4,-9,-1,-1,-2,-2
1532142676174,-9,-6,-4,-2,4,-1,-1,-1
1532142676179,-5,-5,-7,-6,-16,-3,-1,-3
1532142676184,-2,4,0,1,2,3,0,-1
1532142676189,9,7,6,6,4,-2,1,0
1532142676194,23,4,4,2,-9,-2,1,2
1532142676199,17,1,-6,-4,-9,-1,-1,-6
1532142676204,-6,-14,-2,-1,6,3,-1,1
1532142676209,0,-12,8,1,2,0,1,0
1532142676214,9,57,-5,-5,-3,-2,-2,-2
1532142676219,8,-53,-6,-4,-6,-3,1,1
1532142676224,10,24,-7,-5,24,2,-1,-1
1532142676229,-9,0,4,4,-20,-6,-1,-2
1532142676234,4,-2,3,5,2,1,-1,2
1532142676239,-14,-19,7,-2,-1,-1,-1,1
1532142676244,8,19,-13,-7,-3,-2,0,-4
1532142676249,4,-8,-6,-7,2,-2,-1,1
1532142676254,-6,-12,4,9,7,0,-3,-1
1532142676259,-1,15,8,9,-2,2,-3,-1
1532142676264,-10,-23,0,-6,-5,1,3,0
1532142676269,1,-4,-9,-16,-7,-2,-2,1
1532142676274,-6,-23,-24,-5,-3,-2,0,-7
1532142676279,26,39,12,11,11,2,1,0
1532142676284,-4,5,9,4,-6,-3,-3,-1
1532142676289,-6,2,5,0,-15,1,0,0
1532142676294,-1,-14,-5,-9,13,-2,-2,0
1532142676299,2,17,-12,-9,-8,-3,-2,1
1532142676304,-9,-16,13,17,7,3,2,1
1532142676309,11,29,2,2,0,-3,-4,1
1532142676314,2,13,-3,-4,-2,0,0,2
1532142676319,2,-24,-9,-5,-6,-4,0,-1
1532142676324,-4,0,-2,-5,-1,-1,-4,2
1532142676329,-19,-27,-3,-8,3,2,2,-1
1532142676334,-6,13,5,6,-3,1,-1,-2
1532142676339,2,14,-2,0,9,1,0,0
1532142676344,3,-16,-2,-2,-5,0,-1,-1
1532142676349,-7,14,1,-3,-6,-2,0,2
1532142676354,7,-4,-7,-7,-1,-1,-3,-1
1532142676359,-6,-14,-5,-3,-1,-2,-1,-3
1532142676364,3,5,8,11,2,1,-2,-3
1532142676369,8,13,4,4,4,-1,-1,0
1532142676374,-2,9,0,3,3,-2,-1,-1
1532142676379,-4,-9,0,-2,-2,-1,1,3
1532142676384,4,-12,-10,-6,1,-1,0,0
1532142676389,-9,15,3,0,0,0,-2,-4
1532142676394,0,5,1,2,0,1,2,1
1532142676399,-2,-24,3,5,1,-3,-1,-2
1532142676404,6,2,-3,-2,-3,-2,0,1
1532142676409,-8,11,-2,-8,-2,-1,2,0
1532142676414,2,-15,-8,-5,12,2,1,-1
1532142676419,8,16,4,5,-19,-4,-3,0
1532142676424,1,2,2,-3,-11,-4,-3,0
1532142676429,-4,2,3,0,1,0,-1,0
1532142676434,-4,-7,-3,-5,-6,-2,1,-1
1532142676439,0,12,-6,-11,3,0,1,-1
1532142676444,-7,-25,0,2,6,3,3,0
1532142676449,12,17,12,11,3,-1,-2,0
1532142676454,-10,-4,2,-1,7,2,0,0
1532142676459,1,-8,-1,0,-3,-2,-3,-4
1532142676464,0,19,1,-2,-2,0,-3,-2
1532142676469,-11,-24,-8,-6,-1,0,-2,1
1532142676474,3,2,-3,1,-4,1,2,1
1532142676479,-7,-2,-1,-3,-1,-2,0,0
1532142676484,3,-5,0,2,5,3,-2,-1
1532142676489,-10,-9,-1,1,-2,-3,1,0
1532142676494,9,18,-4,-4,-8,-3,-6,-4
1532142676499,-1,8,-2,0,-1,-2,-2,0
1532142676504,-2,4,-1,0,2,-1,0,0
1532142676509,2,-7,-1,-1,5,4,-1,0
1532142676514,-4,-4,-3,-1,-9,-5,2,0
1532142676519,5,7,2,3,-1,2,-2,-1
1532142676524,-2,-9,-3,1,-4,-1,1,-2
1532142676529,-1,15,0,-8,-8,2,-2,-3
1532142676534,-10,-38,-12,-16,-2,0,-3,-3
1532142676539,6,10,8,19,10,4,0,1
1532142676544,-3,0,11,7,6,-1,-1,-1
1532142676549,22,54,1,-1,-2,0,0,0
1532142676554,-10,-34,0,-4,-5,0,-1,-1
1532142676559,1,3,-7,-10,-1,-4,1,0
1532142676564,-12,-20,-7,-4,-7,-3,-1,-2
1532142676569,-4,-14,-6,1,9,1,0,-1
1532142676574,8,21,9,3,12,0,-1,0
1532142676579,-4,-4,-1,-1,-14,-6,-1,1
1532142676584,-3,-18,-5,-5,0,-1,0,-2
1532142676589,-3,-2,-2,-3,-6,-2,0,0
1532142676594,10,24,2,3,6,-3,-1,0
1532142676599,-6,-19,-5,-3,12,3,-2,-2
1532142676604,-1,-2,-3,-7,-10,-3,-2,1
1532142676609,-6,-5,-2,-1,-6,-2,-1,0
1532142676614,-6,-17,5,9,2,4,1,1
1532142676619,7,19,6,6,4,-3,-1,-1
1532142676624,2,-25,-3,-7,-3,-2,-1,-1
1532142676629,0,-8,-12,-6,-3,-1,-2,-4
1532142676634,2,17,2,2,-3,0,-1,0
1532142676639,-6,1,-1,-4,-4,0,0,0
1532142676644,-6,1,-5,0,3,-1,-3,-2
1532142676649,-3,-14,7,7,0,-1,1,0
1532142676654,2,-2,0,3,-4,0,-1,2
1532142676659,-6,-16,-4,-10,-3,2,0,-5
1532142676664,3,-10,-4,-4,0,-3,-1,0
1532142676669,2,21,7,11,5,2,1,2
1532142676674,-3,12,-2,-4,-5,-2,-2,-1
1532142676679,-3,-14,7,7,2,2,-1,3
1532142676684,6,9,0,2,0,-1,-2,-4
1532142676689,-8,-16,-4,-10,-5,-5,-2,-1
1532142676694,-5,-15,-3,2,1,-1,-2,-2
1532142676699,3,18,0,-4,-2,-1,0,1
1532142676704,-4,-7,-2,1,0,1,2,-1
1532142676709,0,9,-1,-5,0,2,0,-1
1532142676714,4,2,-2,-6,-6,-2,-1,-3
1532142676719,-3,-11,-4,1,-2,0,2,-3
1532142676724,2,12,8,9,5,3,0,2
1532142676729,-12,-6,-2,-2,-4,-1,0,-1
1532142676734,19,8,-2,-1,-1,-2,-3,-3
1532142676739,7,33,-2,-4,-1,-1,-1,0
1532142676744,-5,-11,-10,-6,-2,-1,1,0
1532142676749,-2,-6,1,0,-6,-3,-2,-1
1532142676754,-12,-14,-4,1,1,1,-1,1
1532142676759,10,-2,4,8,2,-1,-4,0
1532142676764,-6,12,5,3,2,0,-3,-1
1532142676769,-1,-9,-4,-3,0,-1,-2,-2
1532142676774,0,-2,-8,-6,-3,-1,-1,0
1532142676779,0,-11,0,-2,1,0,1,0
1532142676784,0,13,-2,-2,-1,-4,-2,-1
1532142676789,0,1,-3,-1,0,-1,-3,-5
1532142676794,-5,-13,-2,2,2,-1,-2,0
1532142676799,-1,-2,0,1,0,-1,-2,-1
1532142676804,1,39,2,-1,-1,-1,1,-1
1532142676809,12,-28,-7,-4,-2,-5,-3,1
1532142676814,-3,15,5,-1,-1,0,1,-1
1532142676819,-7,-11,-9,-8,-3,0,-1,-1
1532142676824,1,-4,-4,1,-1,0,0,0
1532142676829,-7,-10,5,5,-3,-1,-1,-1
1532142676834,0,0,-2,-2,-2,0,3,2
1532142676839,-10,-9,4,1,2,2,-2,-5
1532142676844,3,-15,3,-1,2,-2,0,-1
1532142676849,-2,5,-5,-6,-2,0,1,0
1532142676854,2,2,3,7,3,-9,-5,-5
1532142676859,-11,-7,2,-1,-2,-1,1,1
1532142676864,15,17,-3,-1,-1,0,-3,-2
1532142676869,-4,0,3,2,4,0,1,2
1532142676874,0,7,-3,-5,-7,-4,-1,2
1532142676879,-4,-7,-6,-4,0,3,0,-2
1532142676884,-7,-12,1,-2,-1,0,0,-1
1532142676889,-2,-3,-6,-7,-4,-1,-4,-3
1532142676894,9,7,4,2,1,-1,0,3
1532142676899,-2,8,9,9,3,0,2,-4
1532142676904,5,7,0,1,-2,-2,-1,1
1532142676909,-4,-1,4,-1,1,-2,0,4
1532142676914,-6,-2,-6,-14,-10,-3,-4,-8
1532142676919,12,17,-10,-2,4,-2,0,2
1532142676924,-8,-13,18,20,3,1,1,1
1532142676929,1,1,1,5,5,1,0,0
1532142676934,2,6,6,3,2,1,2,9
1532142676939,-4,-11,-12,-11,-6,-2,-2,-7
1532142676944,0,-4,-13,-14,-7,-4,-5,-12
1532142676949,-2,-4,-2,3,-1,-1,-1,-3
1532142676954,-2,1,1,-3,-2,4,2,-3
1532142676959,12,16,-5,-5,-4,-6,-6,1
1532142676964,-5,-16,-6,1,-9,-1,1,5
1532142676969,-3,11,10,5,5,2,0,4
1532142676974,-3,-5,-4,1,1,1,0,-9
1532142676979,2,3,4,2,-2,-2,-1,2
1532142676984,-1,-2,-5,-4,-2,0,-1,-2
1532142676989,0,-9,-11,-8,-4,-1,-1,0
1532142676994,-4,-13,-11,-2,-7,0,2,2
1532142676999,-4,6,8,1,1,1,0,-1
1532142677004,-2,-4,0,-1,8,2,-1,0
1532142677009,6,5,6,7,1,2,1,3
1532142677014,-6,14,13,6,3,-2,-3,-2
1532142677019,-6,-30,-17,-6,-3,1,-1,-3
1532142677024,5,2,-9,-5,-2,-3,0,3
1532142677029,-8,-2,4,-3,1,-3,-3,-3
1532142677034,5,18,4,4,-3,2,1,0
1532142677039,8,-18,9,4,2,-1,0,3
1532142677044,-5,34,9,-1,0,1,1,1
1532142677049,1,-21,-23,-1,0,-4,1,-3
1532142677054,-10,-21,2,-1,0,1,-1,-3
1532142677059,-3,-2,-19,-7,-1,0,-1,3
1532142677064,6,-3,14,5,4,1,0,-4
1532142677069,-16,-3,3,3,4,-5,-4,-9
1532142677074,14,20,-1,0,4,0,-2,1
1532142677079,-3,-1,20,1,-1,3,3,7
1532142677084,5,3,-27,-19,-7,-4,-3,-4
1532142677089,1,-14,-11,7,-1,1,-1,0
1532142677094,9,17,2,5,5,2,1,4
1532142677099,-27,6,2,-1,-4,-5,-1,-6
1532142677104,-4,15,1,-3,-5,-2,-4,-2
1532142677109,5,2,1,-5,-6,-1,-3,-1
1532142677114,-1,-21,-1,-1,1,0,0,-1
1532142677119,16,36,-2,-2,-7,2,2,3
1532142677124,-35,-16,10,0,1,-2,1,-2
1532142677129,27,3,-8,4,0,-4,-5,-3
1532142677134,-4,13,2,1,1,-1,-3,0
1532142677139,7,13,7,-4,-6,-1,0,0
1532142677144,-8,-21,-7,0,0,3,3,1
1532142677149,-5,-10,1,2,-7,1,1,1
1532142677154,5,-8,1,3,1,1,2,1
1532142677159,21,18,1,-7,9,2,0,0
1532142677164,-30,24,17,4,-2,-1,-2,-8
1532142677169,6,-35,-27,-3,-5,-5,-6,-4
1532142677174,-3,-24,-5,0,-1,0,-2,-1
1532142677179,-15,-6,-2,-3,-2,3,1,-4
1532142677184,15,2,10,-1,2,4,2,6
1532142677189,10,39,-1,0,1,0,-3,-4
1532142677194,5,15,8,4,0,2,0,1
1532142677199,-7,-15,1,2,-2,2,-1,1
1532142677204,6,11,2,0,-3,-1,-3,-2
1532142677209,-25,-20,0,-2,1,4,0,-2
1532142677214,-5,-18,-3,-3,6,0,-1,-2
1532142677219,4,-3,2,1,-4,-5,-2,-1
1532142677224,4,-2,-10,-3,-3,-2,-3,-1
1532142677229,5,19,6,-3,0,0,1,3
1532142677234,-10,-10,-1,-3,-5,-3,1,1
1532142677239,-7,-8,-3,1,1,1,2,-1
1532142677244,4,-22,-8,2,0,-1,-2,-3
1532142677249,14,21,-3,-5,-3,0,-4,-4
1532142677254,-17,-26,2,-2,2,2,3,-3
1532142677259,1,19,5,-1,-2,-2,-3,2
1532142677264,0,-39,-14,-4,-2,-3,-1,-1
1532142677269,-11,6,10,1,2,0,2,0
1532142677274,6,-3,-6,-4,-3,-1,-1,1
1532142677279,-4,-12,1,0,-1,0,-1,-1
1532142677284,9,4,-4,0,-2,-2,1,0
1532142677289,1,1,8,7,11,-2,1,3
1532142677294,-14,-26,1,2,2,-2,-2,-2
1532142677299,7,52,-3,-3,-5,-2,-2,0
1532142677304,-1,-2,-6,-1,1,3,0,-1
1532142677309,-1,8,4,-2,-2,0,1,0
1532142677314,6,5,0,-1,-2,-2,-1,3
1532142677319,-5,-24,0,-2,-5,2,2,-4
1532142677324,2,8,-5,-3,-3,-2,-2,-2
1532142677329,-29,-46,-10,-4,-3,-2,-2,-6
1532142677334,7,19,0,1,3,-1,1,2
1532142677339,1,5,4,-2,1,-2,-2,-4
1532142677344,2,5,0,-2,1,3,0,3
1532142677349,1,3,0,2,-1,2,-1,0
1532142677354,1,-8,-2,-4,-3,-2,-2,-2
1532142677359,-11,-25,0,-2,-1,-1,1,2
1532142677364,10,20,-15,-6,-2,-2,-4,-5
1532142677369,1,17,9,8,2,0,1,3
1532142677374,4,17,4,0,-2,-1,-1,1
1532142677379,-5,1,1,2,-2,-2,-1,-3
1532142677384,-2,-45,-2,2,1,1,1,2
1532142677389,-3,5,-3,-3,-4,-3,-3,-8
1532142677394,0,10,-7,-11,-4,-5,-2,1
1532142677399,-9,-27,-3,-9,-3,0,1,-1
1532142677404,9,45,4,13,0,0,1,1
1532142677409,-6,-31,1,-2,1,-3,-3,-1
1532142677414,-1,-2,4,6,-2,5,-1,0
1532142677419,-3,-5,-17,-28,-9,-4,-3,-1
1532142677424,0,-13,-17,-18,-5,-2,-1,3
1532142677429,-3,-7,26,34,5,3,2,2
1532142677434,5,39,9,17,3,-2,-4,-12
1532142677439,1,-9,-6,-16,-6,-2,-3,-2
1532142677444,-14,-22,12,11,7,2,4,1
1532142677449,11,30,-4,-3,2,-2,-3,4
1532142677454,2,12,6,15,6,1,-1,0
1532142677459,10,0,7,14,7,2,-1,0
1532142677464,-18,-6,5,1,2,-1,-2,-1
1532142677469,-6,-22,-29,-36,-16,-5,1,-2
1532142677474,-9,1,-3,-6,-7,-1,1,-3
1532142677479,-17,-11,-9,-3,-3,2,1,-1
1532142677484,-1,-7,1,-5,-2,-3,-2,-4
1532142677489,-4,-15,-2,-6,5,-2,-2,-1
1532142677494,6,19,1,7,2,-3,-3,-4
1532142677499,7,4,0,0,3,1,2,5
1532142677504,-12,-26,12,13,8,2,1,-1
1532142677509,7,22,-5,3,2,-2,-1,-2
1532142677514,0,-13,-13,-23,-6,-3,-1,0
1532142677519,4,4,-2,7,-2,-1,-3,-7
1532142677524,1,4,11,9,0,1,0,2
1532142677529,2,0,-4,-2,-3,1,-1,2
1532142677534,-3,3,-9,-20,-9,-1,1,-3
1532142677539,7,-32,7,8,-6,-6,-1,-1
1532142677544,-4,2,-5,-4,4,0,-5,-6
1532142677549,0,28,-3,0,-5,-2,-1,1
1532142677554,6,11,5,5,-3,-3,0,0
1532142677559,-3,-6,-6,-15,-6,2,3,3
1532142677564,-2,-20,-9,-8,-5,0,0,1
1532142677569,-13,-1,6,21,5,-1,-1,-7
1532142677574,-1,-17,0,3,3,0,1,10
1532142677579,1,-3,-3,-8,-1,-1,-3,-15
1532142677584,3,-10,2,5,3,-1,1,1
1532142677589,1,-1,0,-5,-1,1,2,9
1532142677594,6,-5,-5,-11,-3,1,-1,-3
1532142677599,-11,13,0,3,2,-1,-6,-6
1532142677604,8,12,8,9,2,1,3,5
1532142677609,-4,-5,-5,-6,-5,-4,-2,-3
1532142677614,9,0,4,4,0,1,0,4
1532142677619,2,4,-9,-14,-5,-2,1,4
1532142677624,-7,-20,1,1,1,1,-3,-8
1532142677629,9,9,3,7,1,-3,-2,7
1532142677634,-8,-4,-2,-6,0,2,-3,-9
1532142677639,10,16,3,2,0,1,0,-4
1532142677644,-24,26,-9,-2,-1,-5,-1,0
1532142677649,8,-11,-8,-15,-2,2,0,-2
1532142677654,2,-2,9,13,1,-1,-1,-1
1532142677659,3,12,4,8,5,1,1,6
1532142677664,6,2,3,-8,-2,0,1,4
1532142677669,-1,3,-4,6,-1,0,-1,-12
1532142677674,3,11,6,5,0,-5,-3,-4
1532142677679,5,2,12,8,2,1,1,9
1532142677684,0,-14,-8,-7,-3,-2,-1,1
1532142677689,-8,-6,-12,-13,-5,-2,-3,-5
1532142677694,1,-2,-5,-2,0,0,0,-1
1532142677699,-3,-10,-3,4,1,1,0,-1
1532142677704,2,1,-1,-6,-2,-1,-2,-3
1532142677709,3,5,3,0,-4,-5,-4,-2
1532142677714,-2,4,0,5,3,2,1,4
1532142677719,-1,-4,-2,-7,-3,-3,-2,7
1532142677724,-7,-4,-5,1,-1,2,-2,-8
1532142677729,4,-1,6,3,0,2,2,0
1532142677734,-4,-14,-3,-5,2,0,0,4
1532142677739,-2,32,-4,-1,-3,-1,-2,-7
1532142677744,-2,-4,-3,6,2,-3,-2,-7
1532142677749,3,-9,-4,-12,-2,-2,0,-1
1532142677754,6,9,2,2,-3,-3,-3,-6
1532142677759,-9,-15,-8,-7,0,1,1,6
1532142677764,13,15,9,14,2,-1,0,8
1532142677769,-10,0,8,4,3,2,-1,6
1532142677774,-11,1,6,-5,-3,-3,-4,-5
1532142677779,8,3,1,5,-1,-1,0,-2
1532142677784,0,-8,-3,-6,-2,-1,0,-2
1532142677789,-14,-16,-9,-8,-5,-2,-1,-2
1532142677794,-5,0,-6,-1,-1,-1,1,-1
1532142677799,2,-5,0,-1,-1,0,-2,-4
1532142677804,-4,-6,-3,-5,-3,-2,0,1
1532142677809,1,2,3,1,1,1,-2,-6
1532142677814,16,5,1,6,5,-1,-1,3
1532142677819,-16,-14,-1,1,3,-1,0,-4
1532142677824,-18,9,-4,-3,-2,-1,-3,13
1532142677829,30,-16,4,5,2,-2,0,-14
1532142677834,-30,14,-7,-9,-6,-2,-2,-6
1532142677839,26,23,13,3,1,0,1,6
1532142677844,-6,-14,3,10,4,0,1,4
1532142677849,-8,7,1,-3,-3,-3,-2,-4
1532142677854,0,-20,-9,-8,-6,-1,-3,-6
1532142677859,-5,-7,-14,-11,-7,-2,4,2
1532142677864,4,-4,2,3,0,1,0,0
1532142677869,-1,19,10,10,8,2,-2,7
1532142677874,-9,-10,-5,-2,1,-1,-1,-3
1532142677879,-2,10,2,0,0,-1,-3,0
1532142677884,6,-4,-2,-7,-5,-4,1,-4
1532142677889,0,-8,-10,-7,-3,0,-2,3
1532142677894,3,10,2,1,-2,-1,1,6
1532142677899,-10,-17,-5,-4,-1,-1,-3,-9
1532142677904,12,7,0,-2,-1,0,0,-3
1532142677909,-15,-2,10,7,1,1,2,4
1532142677914,-2,-13,-7,-12,-5,0,-1,-2
1532142677919,4,-1,-7,0,-4,-3,-3,-2
1532142677924,2,0,-6,-1,1,0,-1,-4
1532142677929,-2,7,8,7,-3,0,0,6
1532142677934,0,-3,12,11,4,1,1,0
1532142677939,-2,-1,12,5,0,1,0,-2
1532142677944,-2,-1,1,-2,-1,-1,-1,-3
1532142677949,-3,-11,-9,-12,-4,-1,1,4
1532142677954,-4,4,-24,-10,-3,-3,-4,-8
1532142677959,0,-11,-2,6,6,0,-2,1
1532142677964,3,11,5,3,2,-1,-1,0
1532142677969,-8,-15,-5,-9,-2,-2,-1,-3
1532142677974,8,-7,-7,-2,-2,-2,-1,0
1532142677979,1,22,5,5,1,2,1,1
1532142677984,-4,-6,5,2,-1,-1,-1,-2
1532142677989,0,-4,1,5,3,0,-1,1
1532142677994,-2,1,1,-1,-4,-3,-1,-1
1532142677999,-7,-17,-12,-11,-8,-3,-3,-2
1532142678004,6,2,-5,1,-1,0,2,5
1532142678009,-4,5,11,10,-1,1,-2,-4
1532142678014,1,-1,6,2,0,1,-2,-7
1532142678019,-2,1,2,0,0,-2,-1,-1
1532142678024,-2,-10,-2,-5,-3,0,-2,-1
1532142678029,0,-2,-13,-7,-4,-2,0,-2
1532142678034,2,0,0,0,0,0,1,0
1532142678039,0,1,-2,-3,-1,-2,-1,-3
1532142678044,-2,-1,-4,-1,-3,-3,-1,2
1532142678049,0,2,-2,-1,0,-1,-2,-4
1532142678054,3,1,1,-2,-1,-1,0,1
1532142678059,-7,-9,2,-1,-2,-3,0,-2
1532142678064,1,-5,1,2,0,3,-1,-1
1532142678069,5,7,-2,0,-1,-1,-3,2
1532142678074,0,-3,1,-1,0,-2,0,0
1532142678079,1,2,-1,0,0,-1,-3,2
1532142678084,-9,0,0,0,0,0,1,-1
1532142678089,2,-10,-2,-5,-3,-2,0,-2
1532142678094,6,5,0,-2,-1,-2,-1,2
1532142678099,-6,-8,-10,-4,-2,0,-1,0
1532142678104,1,7,5,7,2,0,-3,-7
1532142678109,-7,-10,-2,2,2,1,1,2
1532142678114,4,5,-7,-14,-5,-4,0,3
1532142678119,-2,-7,-1,0,-3,0,-1,-4
1532142678124,-3,0,5,11,5,0,0,-2
1532142678129,4,10,12,7,4,0,-2,3
1532142678134,-5,-3,2,3,3,1,-1,-1
1532142678139,0,-4,-1,-5,-3,1,-1,-4
1532142678144,0,-7,-16,-16,-8,-5,-2,-2
1532142678149,0,-1,-12,-7,9,0,-2,1
1532142678154,0,-2,5,0,-10,1,2,0
1532142678159,2,4,-2,6,-1,0,-2,1
1532142678164,-1,2,2,-4,-6,0,-1,0
1532142678169,0,2,-10,1,-1,-3,-1,-1
1532142678174,0,1,16,2,2,0,1,1
1532142678179,-1,0,5,2,0,1,2,2
1532142678184,-3,2,2,7,6,1,-2,-4
1532142678189,-1,6,0,-3,-3,-2,0,0
1532142678194,-2,-11,-1,-13,-3,-2,0,-5
1532142678199,2,-2,-13,-4,-5,-3,-1,0
1532142678204,-1,-3,-9,-9,-3,-2,-1,1
1532142678209,2,3,-6,13,5,2,2,-1
1532142678214,1,5,37,14,5,3,1,1
1532142678219,-4,-6,-11,-15,-7,-1,-3,-4
1532142678224,3,4,9,13,1,-2,1,1
1532142678229,2,-6,-17,-17,-9,-5,-5,-2
1532142678234,-2,-1,-16,-3,3,2,-1,-2
1532142678239,-3,-1,12,2,1,0,2,0
1532142678244,1,5,3,-4,0,1,0,4
1532142678249,-4,-17,0,-2,-1,0,0,-6
1532142678254,-2,2,4,9,0,1,1,0
1532142678259,3,-2,-3,-9,-5,-3,-1,0
1532142678264,-3,-6,-16,-2,-1,0,-1,0
1532142678269,-1,6,11,9,3,2,1,3
1532142678274,3,-4,-8,-7,-4,-3,1,-1
1532142678279,1,3,-3,-1,-2,-2,-1,1
1532142678284,-17,-13,-4,-4,-2,1,0,-5
1532142678289,4,2,0,-1,-1,-1,-2,0
1532142678294,0,2,1,6,5,0,0,-1
1532142678299,1,4,10,4,-4,0,1,2
1532142678304,3,10,-7,6,4,-1,-1,0
1532142678309,-1,-5,2,-12,-3,-3,0,-2
1532142678314,-1,-4,-10,-10,-5,-1,-2,-4
1532142678319,0,9,5,4,-2,-1,-1,1
1532142678324,0,-19,-5,-4,0,0,-1,-2
1532142678329,-7,-2,-5,-3,3,-2,-2,-1
1532142678334,2,7,0,1,-1,-1,-2,0
1532142678339,-5,-8,-8,-4,-3,0,0,-4
1532142678344,3,4,12,8,2,1,-2,1
1532142678349,2,2,-6,-7,-3,-1,-3,2
1532142678354,1,0,-2,2,-3,-2,0,2
1532142678359,-6,-6,6,1,-1,-1,-2,-7
1532142678364,0,-4,-14,-8,-5,-2,1,-2
1532142678369,0,0,6,6,5,1,-2,-1
1532142678374,1,-2,3,1,0,-1,2,1
1532142678379,-1,-7,-6,-10,-2,-1,-2,3
1532142678384,7,5,-8,-7,-7,-3,-3,-7
1532142678389,3,5,12,19,7,3,1,1
1532142678394,2,3,-3,-3,0,0,-1,0
1532142678399,-4,-1,-4,-3,-1,-1,-2,1
1532142678404,6,6,6,4,-1,-1,-2,-1
1532142678409,-5,-2,-4,-4,-3,-1,0,-1
1532142678414,-2,1,1,2,-1,0,-1,-2
1532142678419,-5,-4,-1,-5,-1,-2,0,-1
1532142678424,-8,-1,-17,-17,-6,-3,-2,-2
1532142678429,-1,-3,16,18,3,-1,1,0
1532142678434,4,1,6,-4,-1,-1,0,2
1532142678439,7,9,-9,2,-1,-4,-1,-2
1532142678444,-11,-5,7,-1,0,-2,-1,-1
1532142678449,8,16,-19,-17,-6,-2,-3,0
1532142678454,-7,-24,-11,-6,-3,1,1,-2
1532142678459,0,0,12,13,3,2,-1,-1
1532142678464,4,8,12,9,2,-1,-1,2
1532142678469,-5,-5,-14,-21,-6,-1,0,-3
1532142678474,-4,1,-7,10,1,0,-4,-2
1532142678479,2,6,8,-1,-1,-1,2,0
1532142678484,2,-2,-2,6,5,1,-3,0
1532142678489,1,3,8,-1,-2,2,2,1
1532142678494,-9,-8,-7,-16,-7,-4,0,-3
1532142678499,5,-8,0,7,1,0,-1,-1
1532142678504,3,3,4,0,1,0,0,3
1532142678509,-4,-6,-2,-2,0,-1,-3,-2
1532142678514,-8,0,2,-1,0,-2,1,-2
1532142678519,3,6,2,2,1,-1,1,2
1532142678524,1,-3,2,-3,-4,-1,0,0
1532142678529,-4,-1,-10,-2,-4,-2,-1,-1
1532142678534,-2,-10,0,-1,7,-3,0,-2
1532142678539,-2,-12,-10,-14,-10,-2,-5,-2
1532142678544,2,-4,-7,6,1,0,0,-1
1532142678549,2,9,35,19,5,3,-6,0
1532142678554,1,12,-4,8,3,1,1,2
1532142678559,-6,1,-6,-9,1,0,-1,-3
1532142678564,8,8,-11,-12,-6,-2,2,1
1532142678569,-8,-19,-6,-6,-7,-2,-3,-3
1532142678574,2,-6,-7,-7,-4,-2,3,1
1532142678579,7,5,2,12,4,0,-1,-4
1532142678584,-9,5,0,5,-1,0,-2,1
1532142678589,1,1,0,2,2,1,-2,1
1532142678594,3,7,1,-6,-4,0,-2,1
1532142678599,-7,-15,-12,-10,-4,-1,2,-2
1532142678604,-4,2,-3,-8,-2,-1,0,-2
1532142678609,0,-13,-11,3,4,-1,0,-3
1532142678614,12,8,22,8,-1,0,-3,1
1532142678619,0,-2,-2,-3,-2,-1,0,0
1532142678624,-2,3,12,10,6,1,-2,-1
1532142678629,-3,-7,-16,-10,-5,-3,1,-2
1532142678634,0,-8,-10,-8,-3,-2,-4,-2
1532142678639,1,-2,-3,-2,1,-1,-5,-3
1532142678644,8,8,0,4,-1,-1,0,-2
1532142678649,-3,9,15,6,1,0,-1,3
1532142678654,5,2,0,5,0,0,-3,-1
1532142678659,1,5,3,-7,-2,0,1,-2
1532142678664,-7,-25,-20,-16,-6,-4,-2,-3
1532142678669,-2,-1,1,6,0,-1,1,0
1532142678674,-2,9,12,9,2,2,-1,1
1532142678679,-4,4,6,4,3,0,0,1
1532142678684,-1,11,0,-1,-1,-1,-1,-1
1532142678689,-8,-26,-24,-27,-14,-5,1,-4
1532142678694,-11,-10,-15,0,3,0,-2,-5
1532142678699,11,13,25,32,8,2,-2,1
1532142678704,0,2,14,5,2,1,1,-1
1532142678709,-5,12,-2,-7,-3,0,0,0
1532142678714,-6,-7,-8,-9,-5,-1,1,-1
1532142678719,7,2,-14,-11,-4,-3,-3,-2
1532142678724,2,-4,-1,-1,-2,-3,-1,1
1532142678729,-5,9,2,3,4,2,-1,-2
1532142678734,-1,-14,3,0,0,0,1,0
1532142678739,-8,-4,-6,-6,-4,1,0,0
1532142678744,8,15,-5,1,-1,-2,1,2
1532142678749,-12,-25,1,4,-1,-1,1,-4
1532142678754,13,22,9,13,5,0,-6,2
1532142678759,-6,0,13,3,4,0,0,1
1532142678764,-6,-11,-1,2,-2,2,-1,-3
1532142678769,4,-1,-4,3,3,0,1,-1
1532142678774,5,5,-3,-10,-6,0,-2,-1
1532142678779,-13,-16,-21,-8,-6,-3,-3,-3
1532142678784,-7,1,15,10,3,1,3,0
1532142678789,7,14,2,1,0,0,1,-1
1532142678794,-5,-11,-2,-3,-4,-1,0,-5
1532142678799,3,5,-10,-7,-1,-3,-2,2
1532142678804,-1,-10,-5,-12,-4,1,3,9
1532142678809,-1,-10,-4,6,1,0,-3,0
1532142678814,2,17,33,24,11,1,-1,3
1532142678819,-7,-10,-6,-6,-2,0,1,-2
1532142678824,3,-9,-4,-5,-4,-1,0,-3
1532142678829,-23,-4,-12,-6,1,-3,-5,-4
1532142678834,-11,-3,-17,-13,-4,0,-2,-10
1532142678839,1,9,28,29,9,3,0,3
1532142678844,2,0,-1,-3,0,-2,-1,-2
1532142678849,6,3,-1,-6,-2,0,3,2
1532142678854,-16,-18,-23,-22,-10,-5,2,1
1532142678859,16,14,0,-5,-3,-2,-7,-4
1532142678864,-11,-4,1,5,4,0,0,-2
1532142678869,17,14,7,-3,4,0,0,9
1532142678874,-13,-8,-7,-2,-9,-8,0,4
1532142678879,0,10,14,6,0,3,4,0
1532142678884,-1,-17,-19,-18,3,28,2,-8
1532142678889,1,4,19,25,-3,-27,-6,1
1532142678894,20,14,4,-4,-1,-8,-5,2
1532142678899,-31,-13,-12,-4,1,0,-7,-20
1532142678904,-4,-6,3,-7,-7,-12,1,-7
1532142678909,-9,-4,-9,-10,10,13,5,-4
1532142678914,-4,-11,-4,3,-4,-5,1,0
1532142678919,8,1,10,3,-1,6,3,9
1532142678924,-4,3,-2,-13,-6,-5,-7,-7
1532142678929,5,6,-6,12,3,7,0,-6
1532142678934,9,18,22,9,0,2,-2,0
1532142678939,7,-15,-11,-9,0,-3,3,5
1532142678944,-14,-3,6,4,0,-3,-1,0
1532142678949,9,-1,-11,-19,-15,-2,-4,-1
1532142678954,14,1,-13,-2,2,0,2,-3
1532142678959,-4,0,-2,-7,-4,2,3,1
1532142678964,7,-2,7,12,4,-1,-3,3
1532142678969,6,12,11,8,3,-3,-2,7
1532142678974,-14,-13,-4,-9,-1,4,5,-2
1532142678979,13,-1,-20,-7,-3,-4,-5,-5
1532142678984,7,17,12,13,4,-2,-3,2
1532142678989,4,7,9,0,1,3,2,0
1532142678994,-5,-17,-9,-3,-1,1,-2,-2
1532142678999,-20,-11,7,5,1,1,2,2
1532142679004,13,-3,-7,-17,-3,-6,-4,1
1532142679009,-2,5,-15,3,-4,1,-3,-7
1532142679014,-1,10,22,8,5,3,-3,1
1532142679019,-17,-18,-25,-16,-8,-6,-3,0
1532142679024,13,13,11,18,4,2,4,3
1532142679029,5,-3,7,-5,-1,3,0,5
1532142679034,-32,-12,-11,-7,-3,1,-3,-7
1532142679039,7,1,5,4,6,-2,-1,2
1532142679044,3,1,-4,-6,-4,-3,-2,-1
1532142679049,-14,-29,-7,-7,-4,0,2,-4
1532142679054,10,8,-21,-9,-4,-2,-1,-5
1532142679059,8,7,0,-2,-7,-2,-1,8
1532142679064,-19,3,1,14,6,2,-1,-8
1532142679069,-5,-6,12,6,0,2,4,1
1532142679074,11,4,2,0,1,0,-2,2
1532142679079,14,8,-12,-12,-6,-1,-2,-4
1532142679084,-9,-16,-9,-8,-4,-2,1,7
1532142679089,4,8,7,15,5,3,-1,5
1532142679094,4,7,7,-2,-1,0,1,-9
1532142679099,6,5,-3,-4,-3,-3,1,1
1532142679104,-7,-5,-5,0,1,0,-1,2
1532142679109,-8,-8,2,-5,-3,-1,-3,-9
1532142679114,-10,-11,-3,0,-1,1,0,-1
1532142679119,1,1,4,5,0,-2,0,9
1532142679124,7,-16,-13,-5,-3,-4,-4,-16
1532142679129,10,12,-11,-12,-4,-4,-1,-2
1532142679134,9,4,4,5,3,1,-1,6
1532142679139,-13,-6,2,-1,0,1,-1,-1
1532142679144,6,3,6,4,1,-1,2,8
1532142679149,-23,-11,-9,-12,-4,-3,-1,-7
1532142679154,13,9,-3,-1,-1,-4,-1,-8
1532142679159,-12,-3,11,7,5,3,-2,-2
1532142679164,19,15,3,6,3,-3,-2,10
1532142679169,3,7,8,5,6,11,-2,-6
1532142679174,-3,-2,-8,-8,-10,-5,1,4
1532142679179,-8,-10,-6,-7,-2,-1,2,-2
1532142679184,0,0,-3,-3,-6,-6,-3,-5
1532142679189,11,2,-5,-1,1,1,0,1
1532142679194,-17,-6,5,6,4,4,0,2
1532142679199,5,0,-1,-2,-3,0,-4,-10
1532142679204,-12,-7,-7,-7,-2,-3,1,0
1532142679209,2,1,-4,0,-3,-6,-3,-2
1532142679214,-2,-10,-1,-8,-8,-2,1,-2
1532142679219,-1,-4,-6,-6,0,-2,-1,-4
1532142679224,-7,1,7,7,1,3,-1,-4
1532142679229,-3,-2,1,1,-2,-3,-1,4
1532142679234,0,0,6,4,3,2,-2,3
1532142679239,5,1,-8,-12,-4,-3,-1,-1
1532142679244,-8,-11,-13,-5,-2,1,0,-2
1532142679249,-6,11,6,10,6,0,-2,0
1532142679254,11,6,5,4,2,-2,0,0
1532142679259,-6,-6,-2,-3,-3,-2,0,-5
1532142679264,-8,-13,-3,-6,-6,-3,-3,-5
1532142679269,1,1,-9,-12,-5,-4,-2,2
1532142679274,-2,-5,0,5,4,5,1,2
1532142679279,3,6,14,12,3,2,1,2
1532142679284,-1,2,-6,-6,0,2,0,-3
1532142679289,-3,-10,-13,-13,-6,-3,1,0
1532142679294,-2,5,3,10,5,-4,-3,1
1532142679299,6,3,6,2,2,1,-2,-6
1532142679304,-5,4,9,5,2,2,1,1
1532142679309,4,0,4,-1,-1,-1,-1,-1
1532142679314,3,3,-8,-2,-3,-3,-1,-3
1532142679319,-7,3,-3,1,-3,-2,2,1
1532142679324,2,-5,0,-2,3,-2,-2,-1
1532142679329,3,-1,-14,-13,-9,-3,-4,-1
1532142679334,1,1,-9,-7,4,0,0,0
1532142679339,1,6,15,13,4,2,0,-1
1532142679344,-10,-3,3,1,1,0,0,-1
1532142679349,5,-3,-9,-7,-4,-2,-4,0
1532142679354,-2,-2,1,-3,-4,-3,-1,0
1532142679359,2,1,-6,2,4,-1,-1,23
1532142679364,-9,6,2,-1,-3,0,0,-5
1532142679369,3,-15,9,6,1,1,0,2
1532142679374,2,0,-6,-4,0,0,-1,-4
1532142679379,-3,-2,-5,-2,-3,0,0,-7
1532142679384,4,5,5,-1,1,0,-2,-1
1532142679389,-11,-7,6,7,1,2,1,-7
1532142679394,2,-9,-11,-12,-4,-1,-1,-1
1532142679399,9,12,-5,-1,-2,-5,-3,-3
1532142679404,2,4,-4,-1,-1,3,1,2
1532142679409,-2,3,0,-10,2,-2,0,-3
1532142679414,-9,-7,8,18,12,4,0,0
1532142679419,-11,-8,0,-4,-5,-4,-2,-2
1532142679424,1,-3,-5,-9,-9,-4,-2,-2
1532142679429,4,6,-6,-4,0,-3,-6,-2
1532142679434,-8,1,9,17,2,0,1,1
1532142679439,-11,-9,15,7,3,3,2,0
1532142679444,-5,-6,-3,0,0,-1,0,1
1532142679449,-1,0,-4,-3,-1,-1,-1,1
1532142679454,15,3,-9,-15,-6,0,-2,0
1532142679459,12,5,-5,5,0,0,-2,-4
1532142679464,0,2,-5,-3,-3,-1,-2,2
1532142679469,-5,-5,8,6,-5,0,2,3
1532142679474,-6,4,-10,-12,-2,-4,-4,-1
1532142679479,-1,-1,0,-2,-4,1,0,-2
1532142679484,-9,-8,-2,-2,4,0,0,-2
1532142679489,9,14,6,13,4,1,-1,-2
1532142679494,-9,-16,23,14,2,1,1,-1
1532142679499,6,12,-14,-19,0,-3,-4,-3
1532142679504,8,1,-5,1,-2,-1,0,-1
1532142679509,-1,7,12,11,5,2,4,0
1532142679514,-5,-8,-4,-10,-7,-3,-1,-2
1532142679519,-4,-28,-9,-4,3,-1,2,-2
1532142679524,11,15,1,3,3,1,-3,-1
1532142679529,-7,-2,-9,-9,-5,-6,-2,0
1532142679534,2,5,4,3,-1,0,1,2
1532142679539,-5,-5,-2,-3,-3,0,-1,-7
1532142679544,2,-5,-7,-2,-4,-1,0,0
1532142679549,8,-8,-10,-5,5,-1,-3,-3
1532142679554,-2,10,9,9,0,2,1,2
1532142679559,11,11,16,13,-1,0,-2,1
1532142679564,0,-6,-1,-4,-4,-3,-1,-1
1532142679569,-4,-4,-4,-7,-5,1,0,0
1532142679574,0,2,-19,-20,-10,-4,1,-3
1532142679579,-10,-16,12,24,10,6,1,0
1532142679584,0,6,15,2,14,-2,-2,-2
1532142679589,-8,2,-1,-2,-18,1,0,0
1532142679594,2,-6,-8,-9,-2,1,-1,-2
1532142679599,0,13,-14,-7,-5,-2,2,-1
1532142679604,-3,2,0,-3,3,-7,-2,0
1532142679609,-5,-12,-2,-4,-6,1,-1,-1
1532142679614,0,8,1,1,2,0,-1,-2
1532142679619,7,-4,0,-1,-5,-2,-1,-1
1532142679624,-4,-9,-8,-2,-1,2,-1,-2
1532142679629,4,5,-1,-2,1,-3,0,-1
1532142679634,-5,-8,-3,2,-5,-1,0,1
1532142679639,2,-10,0,-2,12,2,-2,-1
1532142679644,0,-2,11,5,-4,-1,0,-1
1532142679649,0,8,1,0,3,-3,-1,0
1532142679654,-7,-16,-6,-5,-8,-2,-1,-1
1532142679659,1,16,-6,-7,-1,-3,1,-1
1532142679664,-5,-15,-13,-13,-3,2,0,1
1532142679669,1,6,3,11,0,-1,1,0
1532142679674,11,19,9,5,19,0,0,0
1532142679679,-12,-6,3,0,-14,-3,-1,-2
1532142679684,-1,-6,-8,-4,18,4,-1,-2
1532142679689,-4,-8,-5,-9,-19,-6,-1,0
1532142679694,8,27,1,-2,-5,1,-1,0
1532142679699,4,-13,0,2,-6,-2,-3,-1
1532142679704,1,12,6,10,9,2,1,1
1532142679709,-3,10,6,5,2,4,-1,-2
1532142679714,-4,-1,1,-4,9,-3,-2,-1
1532142679719,0,0,-5,-12,-17,0,-2,2
1532142679724,-8,-16,-5,2,-3,-2,0,-2
1532142679729,-3,-28,-7,-6,3,1,0,-2
1532142679734,2,20,7,9,-2,-5,-2,0
1532142679739,-7,-7,2,-4,1,0,-1,-1
1532142679744,2,-1,-4,0,-3,-5,-1,-1
1532142679749,2,1,6,6,17,8,1,3
1532142679754,-6,-24,-21,-18,-27,-5,-1,-4
1532142679759,-1,5,-12,-5,5,1,-2,-2
1532142679764,3,9,26,20,7,6,1,0
1532142679769,-8,-1,0,-4,7,-10,-3,4
1532142679774,-1,-13,-3,-1,3,2,-2,-9
1532142679779,-6,4,-7,-7,-4,0,-1,-1
1532142679784,1,-23,-11,-13,-10,-3,-1,-1
1532142679789,3,14,2,4,4,-1,-1,0
1532142679794,0,-2,5,3,2,0,-1,3
1532142679799,1,0,-19,-15,1,-4,0,-1
1532142679804,-4,-7,-1,2,-9,-1,1,-1
1532142679809,10,14,23,22,6,1,-2,1
1532142679814,-16,-30,6,1,4,2,1,3
1532142679819,22,34,2,1,-5,-3,-4,-3
1532142679824,-1,13,-11,-13,-8,-4,-4,-1
1532142679829,-14,-17,-18,-17,-7,0,0,-4
1532142679834,11,6,-5,1,0,-1,1,-1
1532142679839,-9,-33,12,15,8,1,3,0
1532142679844,-2,-6,12,13,1,4,1,1
1532142679849,5,22,-4,-8,7,-1,-2,-4
1532142679854,-3,-6,-2,-3,-8,-6,-2,0
1532142679859,-4,-1,-2,-5,-1,1,-1,0
1532142679864,2,-1,-4,-3,-6,-2,0,0
1532142679869,-8,-20,-6,-1,0,1,1,-2
1532142679874,7,9,-3,0,-5,-1,-2,1
1532142679879,4,14,1,1,4,-1,-2,-2
1532142679884,-1,7,19,14,2,0,1,2
1532142679889,-6,-4,-7,-11,-2,-1,0,0
1532142679894,-2,2,-6,-8,-2,-1,-2,-1
1532142679899,-10,-25,6,16,0,1,3,1
1532142679904,9,34,1,-4,-2,2,-1,-1
1532142679909,-2,-17,1,6,-10,-3,-2,-1
1532142679914,-3,12,-4,-12,-3,0,-2,0
1532142679919,-2,-18,-2,2,2,-1,-2,0
1532142679924,-2,3,-9,-5,4,2,-2,-1
1532142679929,4,8,9,11,-2,-4,0,1
1532142679934,-5,-8,1,0,3,3,1,-1
1532142679939,-2,0,0,-4,-3,-2,1,1
1532142679944,-6,-15,-6,-9,1,-5,-3,-3
1532142679949,3,10,-18,-10,-3,-2,-2,-3
1532142679954,9,3,11,14,5,2,-2,-1
1532142679959,0,18,6,-6,3,-2,-1,0
1532142679964,-2,-7,-5,-2,-6,-3,-1,-1
1532142679969,-6,-15,-3,-6,-4,0,-1,-1
1532142679974,-5,-4,1,4,2,1,1,-2
1532142679979,0,-2,-15,-13,-6,0,2,-1
1532142679984,7,29,19,24,4,-1,-1,3
1532142679989,-2,-8,-3,-3,0,-1,-2,-2
1532142679994,2,12,-11,-9,-1,1,0,-2
1532142679999,0,-9,1,2,3,2,0,-2
1532142680004,0,2,7,4,0,0,1,3
1532142680009,3,12,5,10,1,-1,-1,-1
1532142680014,0,-11,5,-1,4,1,0,0
1532142680019,-1,12,-3,-9,-6,-1,0,0
1532142680024,4,-5,-4,1,1,-1,-1,-1
1532142680029,-4,6,4,7,-1,-2,0,0
1532142680034,4,0,2,-4,-4,-1,-2,-2
1532142680039,-2,-3,-7,-2,-1,-2,-2,-3
1532142680044,-3,-4,-2,-6,-8,0,-1,-1
1532142680049,3,15,5,8,-2,0,1,1
1532142680054,-16,-47,-10,-8,-1,-4,-1,-3
1532142680059,13,9,3,3,-13,2,-1,-2
1532142680064,4,24,1,1,-3,0,-1,0
1532142680069,4,-3,-5,-6,13,-6,-2,0
1532142680074,-5,5,-3,-7,-19,-5,-2,-1
1532142680079,-6,-12,-2,4,8,3,1,1
1532142680084,-1,-6,-4,-5,3,-2,1,0
1532142680089,-2,-2,-2,-2,-9,0,-1,0
1532142680094,4,13,5,8,11,2,-1,0
1532142680099,-9,-10,2,-1,1,-3,0,0
1532142680104,3,1,-6,-8,-6,-3,-2,-3
1532142680109,3,-3,-3,-4,-3,-1,-1,-2
1532142680114,3,22,0,2,3,-1,-1,-1
1532142680119,-10,-20,8,5,0,-1,0,1
1532142680124,-1,-10,-12,-7,2,-1,-3,-4
1532142680129,-5,-5,3,-1,-2,1,0,-2
1532142680134,5,3,-3,8,8,3,-1,-2
1532142680139,-3,9,-2,-6,-3,-5,0,0
1532142680144,-4,-7,11,8,4,3,3,3
1532142680149,-2,-9,3,-7,-6,-2,-1,1
1532142680154,-1,-4,-2,6,1,-3,0,0
1532142680159,5,13,-1,-3,2,-1,-2,-1
1532142680164,-8,-8,-2,0,1,-2,0,1
1532142680169,6,7,-3,-1,-7,0,-1,-1
1532142680174,-5,-10,-4,-10,-1,0,1,-2
1532142680179,-3,-11,-7,-2,-1,0,-1,-2
1532142680184,-1,0,3,1,-1,-2,-2,-1
1532142680189,7,18,0,5,1,1,-2,-2
1532142680194,4,-2,-2,1,4,-1,-4,-3
1532142680199,-2,3,1,-1,-5,-2,0,-1
1532142680204,-8,-6,-4,-2,2,1,1,-1
1532142680209,-4,-7,-4,-4,-2,-1,0,-3
1532142680214,-1,-2,-1,-9,-5,-4,-2,-1
1532142680219,0,-11,0,8,3,2,2,0
1532142680224,0,-8,7,7,0,0,0,0
1532142680229,3,16,2,3,-2,-3,0,-1
1532142680234,-9,8,1,-5,-1,2,1,0
1532142680239,10,-17,-5,-5,-3,-2,-3,-1
1532142680244,0,11,-9,-6,-2,-2,0,-1
1532142680249,-5,-13,0,4,1,-1,-1,-1
1532142680254,-3,-9,14,14,3,0,0,2
1532142680259,1,10,-1,-2,0,0,1,1
1532142680264,-7,-10,-4,-3,-3,-1,-1,-2
1532142680269,0,8,-13,-11,-4,0,-3,-3
1532142680274,-4,-19,-4,-3,-6,-2,1,-1
1532142680279,3,12,1,2,0,-1,-3,-2
1532142680284,2,-1,1,1,0,-3,-2,-1
1532142680289,-3,1,5,2,1,3,-2,0
1532142680294,-6,-11,-4,-6,0,0,0,0
1532142680299,3,-12,-1,-1,-1,1,-1,-1
1532142680304,8,29,1,-2,-2,-1,1,0
1532142680309,-5,-6,4,2,-2,1,2,1
1532142680314,-1,7,-4,-4,-3,-2,0,1
1532142680319,6,14,-6,-5,-2,-2,-2,-2
1532142680324,-6,-12,4,1,1,1,-2,-1
1532142680329,0,-19,-5,8,2,-1,1,1
1532142680334,5,16,-4,-3,-5,0,0,-2
1532142680339,-6,-7,-1,-1,-2,-1,0,-2
1532142680344,0,-6,5,0,1,1,1,1
1532142680349,-2,19,-2,-7,-4,-3,-3,-2
1532142680354,4,-13,-3,2,1,0,-2,0
1532142680359,1,9,-2,-5,-1,-2,-1,0
1532142680364,2,2,2,7,0,1,-1,-1
1532142680369,-3,-11,0,-2,0,1,-1,-1
1532142680374,-1,1,0,0,-4,-2,0,-2
1532142680379,-10,-16,1,1,2,2,1,1
1532142680384,17,27,-3,-1,0,-4,-4,-4
1532142680389,-6,-10,0,-1,-2,-1,-2,-6
1532142680394,1,5,2,0,4,1,-2,-1
1532142680399,-4,-5,-5,-2,-1,1,1,-2
1532142680404,-3,-9,-8,-2,-2,-1,0,1
1532142680409,1,-1,8,5,2,0,1,1
1532142680414,1,4,0,-2,0,1,-3,-2
1532142680419,-4,-4,0,-2,-2,-1,-2,2
1532142680424,-1,-1,-3,-3,-1,-1,-2,0
1532142680429,-1,-5,-4,-2,-3,-2,0,1
1532142680434,1,5,-1,-1,-3,-3,-1,1
1532142680439,-3,3,-2,0,4,0,-1,-1
1532142680444,-5,-11,3,5,0,0,0,0
1532142680449,0,4,-5,-4,0,0,-2,-2
1532142680454,-4,-4,-5,-2,-2,2,0,-2
1532142680459,2,3,10,2,4,-1,0,1
1532142680464,3,19,-4,-6,-7,-3,0,5
1532142680469,4,-45,-9,0,-3,-1,-2,-11
1532142680474,-4,16,1,0,-3,2,-2,0
1532142680479,-3,8,7,2,3,-1,-1,-1
1532142680484,-3,-12,0,4,-7,-2,-1,1
1532142680489,10,24,13,6,4,2,2,7
1532142680494,-1,-10,-12,-6,-2,-2,-1,-4
1532142680499,0,-14,-12,-7,-5,-1,0,-1
1532142680504,-12,4,10,4,0,2,-1,-2
1532142680509,0,13,1,-1,-1,-3,-1,2
1532142680514,6,-18,-4,-3,2,0,-1,-2
1532142680519,3,2,-8,-7,-9,-3,-2,-2
1532142680524,9,10,-8,3,11,1,-2,-2
1532142680529,-10,-7,9,1,-2,-5,-5,1
1532142680534,-4,3,5,3,2,-2,-1,0
1532142680539,3,-2,-4,-3,-5,-3,-1,0
1532142680544,1,-19,-9,-6,2,-1,0,-3
1532142680549,-10,-3,-6,-8,-9,-2,0,-2
1532142680554,7,21,-4,2,3,-1,-1,2
1532142680559,2,3,13,7,2,-1,-4,-3
1532142680564,-7,-6,-2,-1,-4,2,5,-1
1532142680569,0,4,-6,-9,-3,3,-3,8
1532142680574,-11,29,0,-2,3,-5,-3,-10
1532142680579,1,-8,-8,0,-1,1,0,-2
1532142680584,4,12,8,4,6,0,-2,0
1532142680589,1,-20,-11,-4,-7,-1,2,0
1532142680594,0,-10,1,1,3,-1,0,2
1532142680599,-1,20,-1,-3,-12,-5,-2,-2
1532142680604,-4,-19,5,-1,6,4,-1,-1
1532142680609,2,-4,2,1,-6,-1,2,0
1532142680614,5,30,35,16,22,-2,-1,1
1532142680619,-11,-21,-16,-1,0,-1,1,1
1532142680624,2,-42,-10,-6,-3,-2,-3,-4
1532142680629,1,20,-7,-1,2,-1,-3,-5
1532142680634,15,22,-4,-8,-15,3,3,2
1532142680639,-12,-16,3,-2,1,1,-2,-1
1532142680644,0,2,2,-1,2,-3,0,-1
1532142680649,-3,2,-6,-2,9,-2,-5,-3
1532142680654,-7,-38,-3,1,-5,0,0,-1
1532142680659,9,23,-5,-8,-1,0,-1,-1
1532142680664,-10,4,-8,5,-4,-1,-3,0
1532142680669,18,19,1,1,-1,0,0,-1
1532142680674,-12,12,0,0,-8,3,0,-1
1532142680679,3,-19,-8,1,9,-3,-3,-2
1532142680684,6,15,5,-4,-2,0,4,3
1532142680689,-13,-17,3,2,4,0,0,-2
1532142680694,8,-27,-23,-12,-19,0,-3,0
1532142680699,-3,12,8,1,-5,0,-1,-2
1532142680704,-11,-1,4,-1,0,0,0,-2
1532142680709,9,-1,-4,-5,-2,-4,-1,2
1532142680714,-13,-11,-5,-6,6,-3,0,8
1532142680719,1,-2,-3,-2,-1,-2,-3,-17
1532142680724,4,8,1,-3,-10,-5,-1,0
1532142680729,-15,-12,-7,3,-1,5,1,0
1532142680734,6,7,6,8,7,0,0,0
1532142680739,-18,-7,3,3,1,0,2,4
1532142680744,26,9,-9,-6,-6,-2,-1,-1
1532142680749,-11,2,-1,-5,-6,0,-1,-5
1532142680754,-3,36,27,-13,15,-1,2,-2
1532142680759,5,-50,-62,8,13,3,-5,0
1532142680764,-3,3,2,-2,-1,4,-2,-1
1532142680769,-2,-22,4,4,-5,-2,0,-2
1532142680774,5,8,-9,-4,-9,-4,-1,-1
1532142680779,-9,16,18,-1,-2,-2,0,-1
1532142680784,-11,-3,-6,-7,-3,0,-1,-3
1532142680789,8,13,0,2,9,-3,-6,-1
1532142680794,-11,-36,-15,-2,-6,-4,-3,-5
1532142680799,3,5,16,0,-5,1,3,3
1532142680804,-10,-16,-2,3,-7,-1,-1,-1
1532142680809,9,37,42,3,2,3,2,1
1532142680814,-6,-42,-25,7,1,0,-3,-3
1532142680819,5,2,8,2,2,3,4,5
1532142680824,6,1,-19,-2,-2,-2,-4,-3
1532142680829,0,11,-6,-3,10,-1,1,-1
1532142680834,-22,-16,1,-1,-8,-4,-3,-5
1532142680839,19,43,14,-8,-6,0,1,2
1532142680844,-19,-27,-5,5,1,-3,-1,-3
1532142680849,-7,-17,-14,-4,-4,0,-1,-2
1532142680854,-11,-27,8,4,0,4,3,1
1532142680859,24,40,3,-4,1,-6,-6,-3
1532142680864,-11,10,4,-3,-1,-3,-2,-4
1532142680869,6,1,-14,0,-8,-1,1,2
1532142680874,0,-4,-3,0,3,1,0,2
1532142680879,-9,-14,0,-3,-4,0,1,0
1532142680884,7,7,8,3,1,-2,0,1
1532142680889,-9,-9,-9,-4,-11,3,3,-1
1532142680894,12,31,12,6,9,2,3,1
1532142680899,-5,5,2,-3,1,-2,-3,-1
1532142680904,-3,-12,-8,-2,4,1,0,0
1532142680909,1,6,6,5,1,0,-1,2
1532142680914,25,23,-8,-7,-12,-4,-1,1
1532142680919,-42,-66,-21,-15,-17,-2,-5,-10
1532142680924,-1,-2,14,6,19,-3,2,3
1532142680929,5,5,9,-2,-8,0,2,0
1532142680934,-11,-37,-1,3,-1,-3,-1,-1
1532142680939,13,0,6,2,2,2,1,1
1532142680944,4,-11,-4,-8,-13,3,0,-6
1532142680949,-6,-40,-13,-5,1,-1,0,0
1532142680954,20,23,1,1,0,-4,-4,-4
1532142680959,-2,20,10,6,4,5,2,4
1532142680964,2,-8,1,6,9,1,2,1
1532142680969,21,35,15,0,6,-3,-5,-2
1532142680974,-11,-7,-19,-6,-6,1,0,-2
1532142680979,6,10,-2,1,-1,1,1,0
1532142680984,11,31,18,-3,-1,-1,-1,0
1532142680989,-14,-12,-27,-5,-2,-7,-5,-3
1532142680994,-8,-30,16,12,6,2,0,-1
1532142680999,10,41,2,5,-3,1,-2,2
1532142681004,6,-41,-10,-5,-8,2,-1,1
1532142681009,-13,-20,5,-3,-2,-3,-4,-4
1532142681014,-4,-6,-14,-12,-8,-3,-2,-5
1532142681019,-1,-6,-9,-1,1,-2,-1,1
1532142681024,-10,9,27,7,-3,0,0,-1
1532142681029,7,-6,-15,-9,-2,3,3,-2
1532142681034,7,18,22,9,15,-1,-3,0
1532142681039,0,19,10,-2,-1,1,5,2
1532142681044,-2,-9,-36,-8,0,-1,-5,-4
1532142681049,-12,-11,-5,4,1,-2,-1,-1
1532142681054,6,38,13,-2,-5,0,-1,0
1532142681059,-9,-16,-1,0,-1,-2,0,-2
1532142681064,2,14,18,-3,-4,1,-1,-1
1532142681069,-1,4,-9,0,-1,2,0,2
1532142681074,-4,-5,-16,-7,-8,-3,-3,-2
1532142681079,7,-16,4,7,6,-4,-5,1
1532142681084,2,9,1,3,-1,-2,-5,-3
1532142681089,-1,16,5,2,1,0,0,1
1532142681094,7,8,-9,-4,-4,0,-1,-2
1532142681099,4,14,2,-3,3,-2,2,2
1532142681104,-8,-22,11,13,3,3,2,1
1532142681109,-10,-13,-2,1,3,-3,0,-1
1532142681114,-2,-2,-5,-9,-9,-2,-2,-2
1532142681119,-10,10,13,3,-3,-7,-5,-3
1532142681124,1,-16,-14,-7,-3,-1,2,0
1532142681129,-6,-20,-7,-1,7,-1,1,-2
1532142681134,-16,-55,-5,-1,6,1,-1,0
1532142681139,13,9,17,-4,-3,1,1,0
1532142681144,-2,11,-20,4,-1,-2,-4,-4
1532142681149,-8,-13,4,-4,-8,1,4,1
1532142681154,6,-8,-7,1,0,-3,-2,-1
1532142681159,10,36,10,6,3,1,1,0
1532142681164,6,1,-1,-9,0,2,1,1
1532142681169,-2,30,4,1,4,-2,-3,-2
1532142681174,0,3,-6,3,-1,-2,-1,-1
1532142681179,-3,-34,-14,-3,-5,-2,-1,-2
1532142681184,8,37,6,1,0,-1,-2,0
1532142681189,-1,4,-9,-4,-5,-7,-4,-1
1532142681194,-3,3,-7,7,0,-2,1,0
1532142681199,-16,-6,8,4,2,-1,-1,-1
1532142681204,15,1,5,1,-1,1,3,0
1532142681209,-18,-14,6,6,6,2,1,2
1532142681214,15,31,-6,-3,-3,-3,-1,-1
1532142681219,-17,-5,-20,-10,-7,2,-2,-3
1532142681224,-14,-68,-10,0,-4,-5,-2,1
1532142681229,9,21,-12,-3,-8,2,-4,-4
1532142681234,17,85,0,-7,2,2,4,4
1532142681239,-8,-57,-18,2,-1,-2,-2,-3
1532142681244,-18,21,12,-5,-4,-1,-2,-3
1532142681249,24,-7,-1,-3,-2,-3,-6,1
1532142681254,-8,-9,-5,0,-8,-3,0,-1
1532142681259,6,21,17,7,2,4,2,3
1532142681264,-8,12,3,2,2,1,3,0
1532142681269,2,-6,-8,0,2,-1,1,-1
1532142681274,4,35,14,2,-2,-1,-3,-1
1532142681279,0,-33,-5,-2,0,1,-1,-1
1532142681284,-6,-22,2,-6,-3,-7,-6,-7
1532142681289,-12,1,1,-1,-9,-6,0,-3
1532142681294,1,-20,-5,-4,-8,-1,0,-2
1532142681299,1,-4,3,1,-3,-2,0,1
1532142681304,7,-4,-6,-3,-2,2,1,0
1532142681309,-3,-3,-1,-1,-8,0,2,3
1532142681314,-1,-35,6,-1,1,-2,-3,0
1532142681319,18,41,-6,3,-4,-2,-2,-3
1532142681324,-4,-5,7,6,9,-2,-2,0
1532142681329,-5,-13,-1,-2,-2,-2,-3,-2
1532142681334,-15,-13,2,1,-3,2,1,-1
1532142681339,19,33,2,-1,4,-1,0,2
1532142681344,-6,-7,-8,-5,-7,1,-1,0
1532142681349,0,0,30,10,8,4,4,1
1532142681354,1,-50,-17,-1,8,0,-2,1
1532142681359,-4,-16,-20,-7,1,-6,-1,-1
1532142681364,7,37,16,4,5,-1,-2,-2
1532142681369,1,-30,-17,-3,-4,0,-2,0
1532142681374,-4,28,8,4,-2,-2,-2,-1
1532142681379,-19,-4,-7,2,4,-4,-6,-5
1532142681384,2,-21,-8,-6,-4,1,1,-1
1532142681389,3,2,-9,-6,-2,1,0,-2
1532142681394,-4,10,3,2,1,0,0,0
1532142681399,-8,-44,-3,-3,-1,-3,-3,-2
1532142681404,14,49,12,4,9,-1,1,2
1532142681409,-15,-5,-4,-2,-1,-2,-2,-4
1532142681414,2,2,-7,-3,-1,-3,-3,-1
1532142681419,-4,-3,11,-5,-5,2,3,-3
1532142681424,-6,-26,-2,5,2,1,0,-1
1532142681429,15,29,25,7,2,0,-1,0
1532142681434,-4,15,1,-4,-1,0,-1,-2
1532142681439,3,-6,-12,6,1,1,1,6
1532142681444,-5,-20,-10,0,-4,1,-1,-2
1532142681449,-4,-12,5,-3,0,-1,-3,-7
1532142681454,1,-3,-3,-5,-8,-5,0,-1
1532142681459,10,62,23,7,3,1,0,1
1532142681464,15,6,-10,-8,-6,-2,0,5
1532142681469,-1,-2,-9,-2,2,-1,2,0
1532142681474,-32,-44,-14,-5,-1,-2,-6,-10
1532142681479,5,-5,-2,1,6,-3,-1,1
1532142681484,-6,-14,1,-1,1,-8,-1,-2
1532142681489,5,35,33,-3,4,4,1,-1
1532142681494,21,-42,-52,4,3,4,1,4
1532142681499,-48,-12,13,2,2,-1,-2,-4
1532142681504,12,44,-2,-4,-6,0,-4,-4
1532142681509,16,-12,-22,-7,-2,-2,0,4
1532142681514,6,32,14,-3,1,-2,-1,0
1532142681519,-7,-32,1,1,-4,2,1,-1
1532142681524,-17,-18,3,-4,-4,0,-1,-6
1532142681529,12,31,-15,-5,-5,-2,-3,-3
1532142681534,-5,-9,1,1,4,1,2,3
1532142681539,26,18,-10,-5,-6,-2,-3,-5
1532142681544,-10,0,17,2,1,1,1,1
1532142681549,-9,2,-2,2,-4,-3,0,-4
1532142681554,-1,3,11,4,3,2,0,-1
1532142681559,17,12,1,-7,-5,-2,-3,1
1532142681564,-3,11,-5,-2,3,0,0,-1
1532142681569,-19,-28,6,0,-3,-4,-3,-2
1532142681574,2,-19,-25,-3,-4,-1,0,-4
1532142681579,-3,-14,8,4,2,0,-1,-2
1532142681584,-14,-26,-7,-1,-1,1,0,1
1532142681589,25,54,8,0,-4,-3,-2,3
1532142681594,-27,-46,2,5,6,1,-1,-6
1532142681599,8,45,7,-4,-1,-4,-4,-2
1532142681604,10,-15,-17,-5,-3,-2,-3,0
1532142681609,-10,-24,-14,-1,2,1,1,1
1532142681614,-5,21,33,4,-2,1,3,2
1532142681619,9,-17,-14,-5,-2,-1,-2,-1
1532142681624,-2,3,16,2,-1,0,-1,1
1532142681629,5,7,-5,-5,-2,-2,1,-1
1532142681634,-12,-10,6,-2,-3,-1,-2,0
1532142681639,-5,-1,0,3,1,3,3,5
1532142681644,6,22,-3,-6,-4,-3,-3,-5
1532142681649,5,-21,-10,-1,0,0,0,1
1532142681654,10,32,25,0,-2,-1,-1,0
1532142681659,-5,-36,-17,-4,-1,0,2,0
1532142681664,2,19,15,-1,-2,3,1,1
1532142681669,-2,16,9,7,2,1,-1,0
1532142681674,10,-5,4,-2,-1,-1,0,2
1532142681679,-9,-21,-5,-6,-5,-2,0,-3
1532142681684,-1,-27,-11,1,1,0,1,4
1532142681689,-5,-8,1,-1,1,-1,-1,-7
1532142681694,5,32,-1,-4,-2,-4,-2,-2
1532142681699,0,-9,8,4,1,1,0,-1
1532142681704,3,9,-11,0,-1,-2,0,2
1532142681709,-5,-10,17,5,1,2,-1,-2
1532142681714,-2,-3,-4,2,1,1,1,0
1532142681719,14,34,3,2,1,-1,-2,-2
1532142681724,-1,-6,-9,-8,-3,-2,-1,-3
1532142681729,-22,-35,-12,3,0,2,-1,-1
1532142681734,5,18,3,2,-2,-1,0,0
1532142681739,1,6,10,1,-1,-1,1,1
1532142681744,-5,-1,-1,-2,-1,0,-2,-1
1532142681749,-3,-9,-20,-13,-3,-2,0,1
1532142681754,4,-4,-4,-4,-1,-1,-1,0
1532142681759,-6,-2,-2,0,0,0,-3,-3
1532142681764,4,1,4,2,-2,-2,0,-2
1532142681769,-3,-10,-10,0,0,1,-1,-1
1532142681774,2,8,3,-2,-2,-3,-3,-1
1532142681779,-1,6,0,0,-3,-1,1,-3
1532142681784,4,-13,-4,2,2,0,1,1
1532142681789,-3,0,0,-2,-1,-2,-2,2
1532142681794,-1,3,2,-4,-7,-4,-3,-3
1532142681799,-3,-6,-14,-8,-3,1,1,-1
1532142681804,-2,-1,1,2,5,1,2,-1
1532142681809,5,13,8,7,5,3,1,3
1532142681814,1,4,-3,1,2,-1,0,2
1532142681819,-1,-7,2,-3,-3,1,1,-1
1532142681824,-11,-9,-3,-2,-2,1,-2,-1
1532142681829,3,1,-6,-4,-4,5,1,-2
1532142681834,-3,-5,-1,0,7,0,-1,-1
1532142681839,-3,-3,0,1,-2,-4,-2,-3
1532142681844,5,2,-4,-6,-3,-2,-1,-2
1532142681849,-2,-5,-2,0,-2,-5,-1,-4
1532142681854,1,-2,-4,-3,-7,0,0,-1
1532142681859,-4,-7,-19,-9,-5,-2,-1,-4
1532142681864,1,4,-2,2,2,1,-1,1
1532142681869,-11,13,8,1,-3,0,1,-1
1532142681874,3,-10,0,-1,7,3,3,1
1532142681879,7,0,-2,-3,0,-3,-1,5
1532142681884,-7,0,0,0,5,4,2,-5
1532142681889,12,-11,-11,-3,1,-5,-6,-3
1532142681894,-5,8,3,1,2,0,0,0
1532142681899,-4,-5,2,0,0,-1,0,-4
1532142681904,3,1,0,-1,-4,0,0,4
1532142681909,-2,-4,0,0,-3,0,0,0
1532142681914,-3,-1,2,0,4,0,-2,-4
1532142681919,3,0,0,-3,-2,0,-3,1
1532142681924,0,1,0,4,8,0,-2,-3
1532142681929,-1,-3,3,2,-8,-4,-5,-1
1532142681934,-1,2,5,5,5,1,0,0
1532142681939,-4,3,0,-2,-3,-1,1,2
1532142681944,2,-4,-3,-1,-2,-1,0,1
1532142681949,-2,-13,-5,-2,0,1,2,0
1532142681954,1,6,-3,-4,-2,-1,-6,-9
1532142681959,1,7,4,2,-2,-2,-2,-3
1532142681964,0,-1,-1,-2,-3,0,0,4
1532142681969,3,4,3,0,2,-1,1,-1
1532142681974,1,12,-5,-1,-1,-1,3,2
1532142681979,-8,-28,-2,2,1,1,2,1
1532142681984,18,36,-5,-1,-3,-4,-5,-3
1532142681989,-3,-20,-1,-1,0,-2,1,-1
1532142681994,-3,5,7,3,0,0,1,0
1532142681999,-6,-2,-2,-3,-1,-1,0,-3
1532142682004,-4,-10,-4,-3,-1,2,1,0
1532142682009,3,11,3,1,0,1,-3,0
1532142682014,-1,1,5,3,-1,-1,2,0
1532142682019,2,2,-4,-2,-5,0,-1,-2
1532142682024,-3,-8,1,1,5,-1,0,2
1532142682029,-5,-1,-4,-3,0,-3,-1,0
1532142682034,-1,-8,-3,1,-1,0,1,3
1532142682039,0,4,-4,-4,-3,-1,-4,-10
1532142682044,-3,-10,-2,-5,-3,-1,-1,-1
1532142682049,-2,6,3,4,2,2,0,-1
1532142682054,1,1,0,3,0,-2,-1,0
1532142682059,4,1,3,1,1,-2,0,2
1532142682064,-5,-9,-5,-3,-1,-1,-2,0
1532142682069,2,8,-1,-1,0,-1,1,0
1532142682074,-5,-4,-6,-6,1,1,-1,-5
1532142682079,12,12,5,1,-1,1,0,1
1532142682084,-17,-36,-11,-5,-7,-2,-3,-6
1532142682089,-2,2,-2,4,11,2,0,-1
1532142682094,1,1,4,4,-6,-3,0,-3
1532142682099,-3,-9,-6,-1,5,0,0,-3
1532142682104,9,28,2,0,0,1,-1,1
1532142682109,1,-7,0,-2,-2,1,0,0
1532142682114,-3,2,-6,-4,-2,-1,0,0
1532142682119,-6,-12,-2,-3,3,0,0,2
1532142682124,-2,10,10,1,-1,0,3,-4
1532142682129,-8,-24,-12,1,-1,-1,-1,-4
1532142682134,1,-8,-1,-1,2,0,-2,-1
1532142682139,5,9,-4,-3,-5,-2,-2,0
1532142682144,1,20,4,0,2,0,-1,0
1532142682149,-3,-17,-3,-5,-4,-2,0,-3
1532142682154,-3,6,1,0,1,2,0,2
1532142682159,-5,-11,6,4,-2,0,2,4
1532142682164,4,4,-4,-3,-6,-1,-3,-7
1532142682169,-3,8,1,-3,3,-1,-1,2
1532142682174,-2,-20,-1,-4,0,-3,-1,-1
1532142682179,1,15,-2,-3,-4,-3,-2,-8
1532142682184,-1,-21,-3,-1,2,1,-1,2
1532142682189,0,4,-3,-3,-5,-2,0,0
1532142682194,-3,-12,4,0,-1,1,-1,-1
1532142682199,12,18,-4,-1,0,-3,-3,2
1532142682204,-3,-9,-1,1,-2,-2,2,2
1532142682209,1,3,-3,-3,0,-1,-2,-3
1532142682214,2,4,1,-2,-1,-2,0,2
1532142682219,-8,-4,-1,1,-1,1,1,-4
1532142682224,0,12,-1,-1,-1,-2,0,5
1532142682229,-4,-9,2,0,-1,1,0,-6
1532142682234,0,5,-4,-2,-2,0,0,-7
1532142682239,-4,0,-1,-1,-2,-3,-2,0
1532142682244,-7,-25,1,1,2,1,2,0
1532142682249,4,16,3,-1,-10,-3,1,5
1532142682254,-11,-1,-2,-2,1,-1,-2,-6
1532142682259,0,-3,-4,0,0,-1,0,-5
1532142682264,-7,-7,0,1,-1,-2,-2,-2
1532142682269,-1,-3,-1,-4,-3,1,0,4
1532142682274,4,3,-1,-3,-2,-2,-1,1
1532142682279,0,3,-3,-2,0,-2,0,3
1532142682284,2,4,1,0,-2,0,-1,0
1532142682289,-5,-6,2,0,0,-1,-2,-2
1532142682294,3,9,-2,-1,-1,-2,-2,2
1532142682299,1,-5,1,0,1,-1,-1,1
1532142682304,6,2,0,-1,1,1,-1,0
1532142682309,1,-1,-2,0,0,1,-2,-3
1532142682314,2,-1,-1,-2,-1,0,-2,2
1532142682319,-3,-2,0,2,0,0,-1,2
1532142682324,1,-2,-2,1,2,-2,-5,-7
1532142682329,-2,1,-1,-1,-2,1,-2,0
1532142682334,-5,-5,4,1,2,1,1,3
1532142682339,9,1,-7,-4,-1,-3,-4,-2
1532142682344,-8,-13,-3,-1,-4,-4,-1,-4
1532142682349,1,4,-2,-1,0,0,0,-1
1532142682354,1,-2,-2,-2,-3,-2,-1,0
1532142682359,-1,0,-1,-4,-2,-2,1,8
1532142682364,-7,-31,-3,2,1,0,-1,-4
1532142682369,6,26,6,2,1,1,-1,-2
1532142682374,-3,4,-3,-3,-2,0,-2,1
1532142682379,-3,0,3,0,2,1,1,-1
1532142682384,2,5,-3,-3,-4,0,2,4
1532142682389,-3,-15,-1,0,0,-1,-1,-2
1532142682394,4,0,-2,0,-2,-1,-3,-1
1532142682399,-2,4,-2,0,-1,-2,-4,-4
1532142682404,1,5,0,-2,-3,-1,1,1
1532142682409,0,-5,-4,0,1,-3,0,2
1532142682414,-1,4,5,1,3,2,-2,-3
1532142682419,-8,-11,-3,-2,1,0,-1,-4
1532142682424,4,-4,1,-2,-1,-1,1,1
1532142682429,0,8,-4,-2,0,-1,-2,-1
1532142682434,2,3,-1,0,-3,-4,-2,1
1532142682439,1,-13,2,0,-3,0,-1,-1
1532142682444,-9,12,-2,-1,-1,1,-1,0
1532142682449,-1,-4,-1,-1,-4,-1,0,-1
1532142682454,-7,-13,-5,-2,-1,-2,1,-1
1532142682459,6,16,4,-2,-2,-2,-1,-5
1532142682464,4,6,-2,0,-1,-3,0,2
1532142682469,-3,-17,-7,-2,-1,-1,-1,-2
1532142682474,-3,4,16,8,1,2,-3,-2
1532142682479,-7,-8,1,0,0,0,-1,-2
1532142682484,2,9,5,-4,-4,-2,0,1
1532142682489,-14,-10,-5,0,-1,0,-1,-2
1532142682494,9,0,-10,-1,1,1,0,0
1532142682499,-6,-10,15,4,3,2,1,-1
1532142682504,-2,2,3,2,2,-2,-2,-1
1532142682509,6,9,0,-6,-3,-3,-1,3
1532142682514,-8,-9,-9,-6,-2,0,1,-6
1532142682519,4,3,1,4,1,0,1,0
1532142682524,3,29,0,-4,0,-2,-6,-4
1532142682529,-4,-23,-2,2,1,-2,-1,-3
1532142682534,2,8,-6,0,-3,-1,1,1
1532142682539,2,-16,-13,-7,-4,1,1,1
1532142682544,-20,-13,8,4,2,3,0,-3
1532142682549,15,14,0,-1,-1,-1,-3,-1
1532142682554,6,25,-3,-3,3,-1,-1,-1
1532142682559,3,-20,-5,1,0,-2,-2,-1
1532142682564,21,19,-7,-6,-1,-1,2,3
1532142682569,-20,-11,9,5,-2,0,0,-3
1532142682574,-1,-6,-2,2,2,-1,0,-1
1532142682579,-3,15,5,1,-1,-1,-1,0
1532142682584,-6,-27,-2,-1,0,0,-2,-1
1532142682589,4,-9,-10,-3,-1,-1,2,-2
1532142682594,7,5,0,-1,0,0,2,2
1532142682599,-5,12,-4,-2,-3,-3,-3,-2
1532142682604,4,-14,-4,-1,-3,-1,0,-1
1532142682609,-5,1,5,-1,-1,0,1,-2
1532142682614,3,4,2,-1,-1,-2,0,0
1532142682619,1,18,-6,-6,-4,1,-2,-3
1532142682624,-4,-19,5,7,6,2,-1,0
1532142682629,10,1,-5,-2,-3,0,-2,0
1532142682634,-14,-21,3,-1,0,-2,-1,-4
1532142682639,0,28,2,-2,-3,1,1,1
1532142682644,-3,3,2,1,0,0,3,-1
1532142682649,0,-5,0,-1,0,0,-2,0
1532142682654,-7,-15,3,1,-2,-2,-1,-1
1532142682659,7,-2,-4,-1,2,-1,1,1
1532142682664,14,12,-4,-2,-6,-4,-5,-1
1532142682669,-1,-4,1,0,4,-2,0,2
1532142682674,-13,-1,-3,-2,-6,-1,-3,-2
1532142682679,-14,-32,-8,-3,1,-3,-4,-5
1532142682684,15,6,-3,-2,2,0,0,1
1532142682689,3,17,6,4,1,1,0,2
1532142682694,7,-6,-2,-2,-2,0,-2,2
1532142682699,-8,14,5,-1,-1,-3,-3,-4
1532142682704,-17,-41,-3,-1,-1,-1,1,-3
1532142682709,1,14,-5,0,5,1,-2,-3
1532142682714,3,6,4,4,3,-2,0,1
1532142682719,2,4,1,-2,-1,-2,0,2
1532142682724,-8,-15,-6,-1,-4,-1,-1,0
1532142682729,1,-4,-2,-2,0,0,-1,1
1532142682734,2,1,-6,-2,-3,-2,-3,-4
1532142682739,7,-9,-7,-2,-2,-1,2,3
1532142682744,-6,13,14,4,5,-1,1,4
1532142682749,4,7,0,-5,-3,0,-4,-10
1532142682754,-8,-23,-11,-2,2,2,0,0
1532142682759,3,11,1,5,-4,-1,1,0
1532142682764,-2,-4,-4,-3,-5,1,1,2
1532142682769,7,28,3,2,-3,2,0,3
1532142682774,-3,-8,3,-2,-6,-3,0,0
1532142682779,10,-27,1,4,4,2,1,-3
1532142682784,-9,30,-4,-2,-5,-3,-2,-2
1532142682789,-11,-3,10,-1,-2,-1,2,0
1532142682794,4,0,-10,-5,-2,-1,-2,-2
1532142682799,-9,-6,6,3,1,1,1,3
1532142682804,7,3,2,0,-3,-1,1,-1
1532142682809,-1,-9,-7,-1,3,-4,-2,0
1532142682814,-2,6,4,-1,1,0,0,1
1532142682819,0,-9,-3,-2,1,-1,-2,-3
1532142682824,6,8,-3,-1,1,-1,-3,-3
1532142682829,-6,-12,-4,-3,1,-3,-4,-1
1532142682834,-1,0,7,1,-1,-1,0,0
1532142682839,2,11,-4,-3,-4,0,0,-1
1532142682844,3,-2,-2,-4,-2,-1,1,0
1532142682849,-7,-2,4,6,-2,-5,-1,1
1532142682854,1,-9,2,-1,0,1,-4,-2
1532142682859,12,25,7,1,0,-5,0,-1
1532142682864,-3,-6,-12,-3,1,2,1,-2
1532142682869,-7,-15,-7,-5,7,25,6,0
1532142682874,-3,1,2,0,-9,-36,-6,-4
1532142682879,1,-27,-9,-5,-2,-2,-1,0
1532142682884,0,-4,-8,-4,0,1,3,0
1532142682889,1,16,3,-1,1,1,-2,1
1532142682894,-2,-3,-3,3,7,7,1,0
1532142682899,8,13,5,-2,-5,0,1,1
1532142682904,6,39,4,2,2,-3,-1,1
1532142682909,2,-16,4,0,-4,-5,-4,-2
1532142682914,-9,-14,1,-1,1,9,0,2
1532142682919,-8,10,0,0,-1,-5,-1,-7
1532142682924,-8,8,9,1,-3,2,-2,-4
1532142682929,0,-27,-14,-5,-2,-1,-1,0
1532142682934,0,2,-6,-1,-1,-1,-2,-2
1532142682939,5,30,14,7,4,4,0,2
1532142682944,5,-12,-2,-4,-7,-1,0,-2
1532142682949,-4,3,6,3,0,-4,-1,1
1532142682954,4,-13,-10,-5,-4,-2,-5,-2
1532142682959,-4,-3,3,0,0,-4,0,1
1532142682964,8,0,-20,-3,4,0,-4,-3
1532142682969,0,10,5,-3,-7,-8,0,0
1532142682974,1,6,3,7,9,3,3,0
1532142682979,-8,-44,-6,-1,-1,2,-2,-1
1532142682984,0,-12,-7,-6,-5,-1,-1,0
1532142682989,6,26,-2,2,1,0,-2,-2
1532142682994,-2,-13,-1,1,-1,4,2,2
1532142682999,-1,20,11,-2,-4,-3,-4,-5
1532142683004,-29,-45,-18,1,1,-5,-3,0
1532142683009,-5,-6,-3,-5,-3,-2,-2,-2
1532142683014,7,14,-2,-3,-5,-2,0,-2
1532142683019,16,-3,3,3,8,4,1,4
1532142683024,-20,-13,2,-1,-4,-1,-4,-4
1532142683029,22,44,5,1,3,0,0,3
1532142683034,-21,-27,-2,-1,-2,2,1,-4
1532142683039,-21,-22,-3,2,1,4,3,-1
1532142683044,24,27,3,2,1,-4,0,1
1532142683049,-13,-9,-3,-1,0,-2,-2,0
1532142683054,13,9,6,-2,0,1,0,3
1532142683059,-4,7,0,-10,-8,-4,-1,5
1532142683064,-3,-29,-14,-1,1,-1,-2,-16
1532142683069,-4,-1,4,3,1,0,0,2
1532142683074,4,25,15,1,-1,0,-1,-5
1532142683079,0,-15,-21,-3,-2,-1,-3,0
1532142683084,13,8,-6,-5,-1,0,-1,6
1532142683089,-6,-17,-4,0,-2,0,0,-2
1532142683094,-12,2,-5,-3,-2,-1,-5,5
1532142683099,2,10,5,1,0,-3,-3,-14
1532142683104,18,22,14,2,-6,-1,4,5
1532142683109,-15,-24,-13,-1,-2,-2,1,-2
1532142683114,-30,5,2,0,1,1,-1,-8
1532142683119,11,4,-1,3,2,1,-2,4
1532142683124,-14,-2,-2,-3,-1,0,0,0
1532142683129,17,6,1,-2,-1,0,0,-2
1532142683134,7,-1,-9,-7,-5,-3,2,0
1532142683139,1,-13,4,6,-1,1,-2,2
1532142683144,2,8,10,6,8,1,-2,-3
1532142683149,-3,2,9,0,1,1,-2,-1
1532142683154,20,6,-14,-5,-5,-2,-3,-5
1532142683159,-11,1,-3,-5,2,-2,0,0
1532142683164,-7,5,-1,-2,-1,0,1,5
1532142683169,-12,-26,-3,-5,-2,0,1,0
1532142683174,16,-1,-1,-1,-2,0,0,3
1532142683179,-11,7,-2,3,5,-1,-5,-7
1532142683184,-11,-8,-1,1,-1,0,-1,-5
1532142683189,1,4,7,5,1,-2,-3,3
1532142683194,20,14,0,0,1,1,3,0
1532142683199,-25,-18,-2,-5,-6,-3,0,-4
1532142683204,13,4,9,1,5,2,2,4
1532142683209,-12,-10,-10,-6,-4,-5,-4,4
1532142683214,-20,3,9,1,1,-2,-4,-12
1532142683219,14,-5,-7,2,-5,-1,-3,-1
1532142683224,19,14,-1,-2,4,-3,-5,-1
1532142683229,-6,-24,-8,-7,-8,0,2,6
1532142683234,4,42,17,0,3,2,1,-4
1532142683239,-20,-25,-17,-3,-2,-2,-1,-4
1532142683244,-1,-4,-8,-2,-6,-1,-1,2
1532142683249,9,11,-1,-1,-1,1,-1,1
1532142683254,-20,-7,-3,1,-1,0,0,-2
1532142683259,13,-14,4,0,-2,2,2,1
1532142683264,-6,-1,-3,-2,2,3,0,2
1532142683269,1,7,0,2,4,-5,0,-2
1532142683274,0,-8,0,4,-4,-6,-3,0
1532142683279,8,18,1,-2,0,0,2,1
1532142683284,-11,-14,-4,-1,-1,-2,2,4
1532142683289,3,19,5,-2,-4,-2,-5,-9
1532142683294,6,-18,-8,0,-1,1,-1,5
1532142683299,8,9,-2,-6,-6,-1,2,11
1532142683304,-16,-5,0,-3,-7,-2,0,-3
1532142683309,-7,1,-2,-5,-6,0,-5,-24
1532142683314,-10,-26,-22,-6,-4,-6,-8,-1
1532142683319,0,8,5,7,3,4,5,3
1532142683324,11,9,8,1,-5,0,0,5
1532142683329,6,7,3,3,6,1,1,2
1532142683334,-3,-14,-4,-1,2,3,2,2
1532142683339,2,-3,0,-2,-1,-1,-1,-1
1532142683344,3,-2,-4,-2,-4,0,1,-4
1532142683349,-2,-2,-2,1,2,1,-2,0
1532142683354,5,1,8,1,3,0,0,1
1532142683359,5,1,1,1,0,-2,0,-2
1532142683364,-6,-2,2,0,-2,-1,-2,-4
1532142683369,1,-1,-5,-3,-3,-1,1,7
1532142683374,4,-2,1,-1,3,1,1,-1
1532142683379,-4,0,2,-1,-2,-3,-3,-3
1532142683384,1,2,1,0,4,-1,0,-4
1532142683389,0,-1,2,3,-2,-1,1,1
1532142683394,1,-5,-2,-2,-3,1,0,2
1532142683399,20,2,-1,-6,-8,-2,2,4
1532142683404,-28,-11,4,4,7,-2,-6,-15
1532142683409,15,-2,-9,-4,2,-1,-2,2
1532142683414,-7,-5,5,0,-3,-1,0,0
1532142683419,3,7,-7,-2,1,-3,-4,-1
1532142683424,2,-6,-7,-3,-7,-1,1,8
1532142683429,-7,-4,-3,-1,3,2,2,-2
1532142683434,13,5,-3,1,2,0,1,-1
1532142683439,-9,-2,11,-2,-2,-2,1,2
1532142683444,-18,-36,-3,0,6,3,1,1
1532142683449,23,33,-1,1,0,-4,-3,4
1532142683454,25,17,6,0,-3,-2,-1,3
1532142683459,-18,0,-1,4,10,-2,-3,-7
1532142683464,6,7,-1,0,2,-3,-1,5
1532142683469,-17,-19,-3,-2,0,0,0,-3
1532142683474,-4,16,1,2,2,2,1,-2
1532142683479,-10,-31,-4,-2,-1,0,-3,-3
1532142683484,6,11,1,-1,-4,0,2,3
1532142683489,5,4,2,0,-2,-1,-1,-4
1532142683494,0,3,4,-4,-4,-3,0,0
1532142683499,-6,-11,-12,-2,1,3,-1,3
1532142683504,2,2,-1,-3,-2,-1,-1,-8
1532142683509,-24,-4,3,-1,-4,1,2,0
1532142683514,16,5,-2,-1,0,-2,-3,-4
1532142683519,-17,-37,3,-1,-1,0,1,-1
1532142683524,37,31,-1,-2,-4,-2,-6,0
1532142683529,5,1,-5,-4,1,-1,-3,-3
1532142683534,-21,-14,0,-2,-3,-2,0,0
1532142683539,4,20,6,6,4,1,2,7
1532142683544,0,-21,0,0,0,0,2,-8
1532142683549,-29,-17,-1,1,0,-3,-5,-6
1532142683554,19,3,-7,-4,-3,0,-2,7
1532142683559,-20,25,-2,-5,-1,-2,-3,-10
1532142683564,-2,-4,1,3,7,0,1,3
1532142683569,17,3,2,1,-1,-1,2,3
1532142683574,-36,-15,-3,0,1,0,1,-3
1532142683579,7,-3,-2,-3,-1,0,0,-6
1532142683584,11,22,6,-3,-3,-1,-2,1
1532142683589,12,-14,-11,0,0,0,-1,-6
1532142683594,-30,-10,-8,0,0,-3,-4,0
1532142683599,-19,3,0,-2,-2,1,0,0
1532142683604,51,-4,-4,-4,-5,-3,-2,3
1532142683609,-11,0,0,-2,-4,0,-1,0
1532142683614,-5,-7,0,3,1,4,1,-3
1532142683619,-1,12,1,2,2,-1,0,2
1532142683624,-27,5,5,0,-5,-2,-3,1
1532142683629,15,-1,-6,-4,-2,0,0,0
1532142683634,-2,4,1,1,0,-1,-2,-5
1532142683639,-3,-6,-1,-4,-4,-1,1,3
1532142683644,24,-4,-10,-4,-2,0,3,1
1532142683649,6,1,4,1,0,1,1,5
1532142683654,8,3,9,4,3,0,1,-3
1532142683659,13,-10,-10,1,-2,-1,0,6
1532142683664,-9,1,-2,0,-2,-1,-1,-9
1532142683669,-16,-3,-4,-3,-3,-1,2,-4
1532142683674,12,-5,3,-1,0,-2,0,-2
1532142683679,7,6,3,0,-2,0,-2,-1
1532142683684,-17,-2,-1,0,-1,1,1,1
1532142683689,17,9,12,-1,-2,-2,0,-7
1532142683694,-8,-26,-20,1,2,-2,-1,5
1532142683699,10,-2,-1,-1,0,-1,-2,-5
1532142683704,-21,-5,-2,4,0,1,-3,-1
1532142683709,5,9,-3,-8,-4,-2,1,4
1532142683714,-3,4,-1,-1,-2,0,-2,-2
1532142683719,2,5,4,2,0,-1,0,-3
1532142683724,-3,-1,8,8,3,-1,-1,4
1532142683729,-16,-6,0,-2,1,-2,-2,-4
1532142683734,8,4,-1,-6,-2,-2,2,0
1532142683739,4,-10,-4,-5,-2,-1,-2,-3
1532142683744,-22,7,-4,-7,-2,-1,1,2
1532142683749,7,7,0,5,1,-2,-2,0
1532142683754,6,-10,-2,-3,-2,-2,0,-1
1532142683759,-13,1,3,1,0,-2,-2,-2
1532142683764,6,11,-3,-3,-3,-1,-1,2
1532142683769,-8,-4,-2,2,1,1,0,2
1532142683774,7,12,4,-2,-3,0,-2,0
1532142683779,-3,-14,-9,0,1,0,-2,-4
1532142683784,2,-4,-5,-3,-4,-1,-1,-3
1532142683789,-6,-21,-7,2,1,0,-1,0
1532142683794,-9,14,9,0,1,-1,-3,-3
1532142683799,1,-26,1,1,-2,-2,-1,-2
1532142683804,5,36,0,-1,1,-3,-3,0
1532142683809,3,7,3,2,1,0,-3,0
1532142683814,-1,6,-2,-3,1,0,1,2
1532142683819,-3,-7,-3,-4,-1,0,-2,-2
1532142683824,-5,-31,-3,-1,-2,-1,1,-2
1532142683829,0,7,3,2,2,-2,-1,5
1532142683834,-4,-3,-1,1,0,-2,-2,-9
1532142683839,2,8,2,0,-1,-1,-1,0
1532142683844,-5,-4,-2,-2,-2,0,0,-2
1532142683849,-3,1,-1,-2,2,-1,-1,-1
1532142683854,-5,-16,-3,2,-5,-1,-2,2
1532142683859,11,17,0,-2,-2,1,1,-1
1532142683864,-9,-5,-4,-1,0,-1,-1,-2
1532142683869,-6,-7,-2,-2,-2,0,-1,-1
1532142683874,6,-6,2,5,2,-1,-3,-3
1532142683879,3,11,-1,-2,-2,-3,-2,0
1532142683884,1,-1,-1,-1,-4,-2,1,-1
1532142683889,-4,-6,-1,-2,-4,-3,-2,-3
1532142683894,-9,-11,-4,-2,0,-3,-2,-1
1532142683899,3,6,2,4,3,1,-1,0
1532142683904,-2,-2,0,-1,3,0,-2,0
1532142683909,3,0,3,1,-1,1,3,-1
1532142683914,3,24,0,-4,-5,1,-1,0
1532142683919,-17,-4,14,5,2,-1,-3,-1
1532142683924,6,-12,-3,-3,-3,0,-3,-1
1532142683929,-2,7,-9,-3,-2,2,1,-1
1532142683934,2,31,9,3,1,1,1,1
1532142683939,5,-4,-2,2,-1,-3,0,1
1532142683944,-8,-6,0,1,0,-1,-2,-4
1532142683949,-3,-17,-2,-1,-3,-1,-1,-2
1532142683954,-2,-11,-6,-8,-4,-2,0,-2
1532142683959,-3,-3,-1,2,-2,1,-1,0
1532142683964,4,16,-1,2,1,1,-2,3
1532142683969,-15,-24,-5,-4,-3,-2,-3,-2
1532142683974,4,35,11,0,-1,-2,0,-1
1532142683979,10,6,-16,-5,-2,0,0,2
1532142683984,-15,-14,0,-3,0,3,4,13
1532142683989,0,10,2,1,2,-2,-2,-17
1532142683994,-14,-38,-4,3,0,1,2,2
1532142683999,6,6,-3,-5,-3,-2,0,-4
1532142684004,8,17,9,-1,-2,-4,-4,-5
1532142684009,-3,-33,-15,-3,-2,-2,0,6
1532142684014,1,1,-4,1,-1,-1,-3,2
1532142684019,6,7,0,-2,0,0,-3,2
1532142684024,-7,-1,-2,1,-2,-1,2,-8
1532142684029,13,16,8,3,-1,1,1,3
1532142684034,-15,-27,-7,-3,-2,-2,-1,-7
1532142684039,15,17,1,-1,-1,-3,-2,1
1532142684044,-1,3,2,3,0,-2,-1,0
1532142684049,0,15,2,-1,-1,2,-1,1
1532142684054,2,-6,-4,-2,2,-2,0,0
1532142684059,-13,-9,2,-1,-3,-1,1,-1
1532142684064,10,-6,-11,-6,-2,4,2,0
1532142684069,-21,-15,4,5,5,-3,-4,4
1532142684074,24,18,0,1,0,0,-2,-10
1532142684079,-13,-3,2,-5,0,0,0,-5
1532142684084,3,0,1,1,1,-1,-1,1
1532142684089,12,9,-1,0,-4,-1,2,4
1532142684094,-16,-19,-4,-1,1,3,-1,4
1532142684099,-2,1,0,0,-1,1,0,-3
1532142684104,1,-6,-5,-3,-4,-2,-4,-2
1532142684109,4,7,0,-1,-2,-1,-1,-3
1532142684114,2,-6,-2,-4,-3,-3,-2,0
1532142684119,-1,10,2,3,3,3,-1,-2
1532142684124,-9,3,-2,-1,-9,0,-1,0
1532142684129,-1,-24,5,2,3,1,0,-4
1532142684134,8,15,-6,-3,1,0,-4,-1
1532142684139,-3,2,-3,-5,0,-1,0,1
1532142684144,-3,-5,-4,-2,-3,-8,-2,-3
1532142684149,4,-4,2,0,0,-1,-1,1
1532142684154,-2,0,-3,-2,-4,-1,1,1
1532142684159,4,-6,3,1,2,-2,-3,0
1532142684164,1,-15,-2,0,0,-1,0,-3
1532142684169,7,11,-3,0,-3,0,0,-2
1532142684174,12,-1,-4,-2,2,-5,-3,4
1532142684179,-9,3,8,2,-3,-3,-2,-7
1532142684184,5,-1,-1,0,1,-3,-2,-1
1532142684189,-6,1,0,-3,-3,-1,-1,2
1532142684194,-2,6,0,-1,1,3,1,0
1532142684199,10,-9,-8,-2,-5,-3,-1,-1
1532142684204,-11,-5,-1,0,1,-1,-2,-2
1532142684209,-2,6,4,3,0,-2,0,-8
1532142684214,-2,3,-1,-1,2,3,0,3
1532142684219,-9,-29,-6,-3,-2,-1,0,1
1532142684224,-9,14,-1,0,4,4,0,-3
1532142684229,16,21,4,2,0,-3,-3,4
1532142684234,0,-1,2,2,-2,-1,-2,-1
1532142684239,-5,3,11,2,3,1,0,-1
1532142684244,-2,-9,4,-2,-1,-5,0,1
1532142684249,-2,-19,-14,-5,-2,-1,0,-2
1532142684254,-5,-1,4,1,-1,-4,-1,-4
1532142684259,8,5,-6,-1,-2,-1,1,-1
1532142684264,5,1,-2,0,-1,1,-1,-1
1532142684269,0,17,1,-3,2,2,1,4
1532142684274,2,-13,1,1,-5,0,1,-3
1532142684279,-9,0,-2,2,1,3,-2,2
1532142684284,1,-9,2,3,3,-1,-3,-8
1532142684289,3,7,-1,-2,0,-1,-2,-3
1532142684294,-3,-10,-5,-1,-3,1,1,0
1532142684299,-5,1,-5,-2,-3,0,1,1
1532142684304,5,5,5,2,-2,-3,-2,4
1532142684309,-11,-11,-1,-1,0,3,-2,-4
1532142684314,2,2,0,-3,3,-3,-1,-3
1532142684319,5,7,0,1,-5,-4,-1,1
1532142684324,-4,-7,-5,-5,-1,2,0,1
1532142684329,-3,-1,-2,-3,-2,-1,0,-5
1532142684334,-1,4,6,-3,-4,-2,0,5
1532142684339,-6,-11,-11,-3,1,0,-1,2
1532142684344,1,-3,-5,-3,-3,-1,1,-10
1532142684349,2,12,-2,2,0,-2,-1,8
1532142684354,-6,-14,15,4,2,2,0,-1
1532142684359,-5,-12,-12,-4,0,-1,-3,-1
1532142684364,-1,-10,-2,1,-2,0,0,0
1532142684369,-3,-4,-5,-3,-1,0,-1,-3
1532142684374,2,8,3,-1,-2,0,0,1
1532142684379,0,9,3,2,2,0,-1,-1
1532142684384,-2,-3,1,1,0,0,-1,7
1532142684389,-1,1,-1,-2,0,1,-1,-8
1532142684394,-5,-3,-5,0,0,0,-2,2
1532142684399,-6,-10,7,2,-1,2,1,-7
1532142684404,8,9,-4,-4,3,-2,-2,3
1532142684409,-4,1,1,0,-5,-2,-1,0
1532142684414,-10,-41,-9,-4,-1,2,2,-3
1532142684419,18,38,-7,-3,-4,-4,-5,0
1532142684424,1,17,10,6,1,0,0,0
1532142684429,-2,0,1,-1,-1,0,-2,6
1532142684434,0,-2,-2,0,0,-3,-4,-4
1532142684439,-7,-14,0,-5,-3,0,2,-1
1532142684444,0,-7,-7,-3,-1,0,0,7
1532142684449,-1,1,1,-2,-3,-3,-1,-10
1532142684454,0,0,-5,-2,-2,0,-1,-4
1532142684459,0,4,5,3,-1,0,1,5
1532142684464,0,6,0,0,-3,-2,-2,-3
1532142684469,-7,-19,-1,-1,-2,-1,1,-2
1532142684474,2,-4,-9,-7,-2,-2,-1,5
1532142684479,-4,-3,-4,-5,-3,-3,-1,-10
1532142684484,-2,-4,8,10,2,1,-4,2
1532142684489,0,1,3,4,3,0,0,7
1532142684494,4,16,4,3,0,-2,-2,-10
1532142684499,-7,-12,-1,-3,1,1,1,4
1532142684504,-5,-10,-9,-10,-5,-2,1,-1
1532142684509,-5,-4,-7,-5,-4,-2,-1,-12
1532142684514,10,25,5,5,4,0,0,6
1532142684519,16,26,5,2,0,-1,-5,0
1532142684524,-9,-3,3,-4,-2,0,2,5
1532142684529,-12,-6,3,2,1,0,-1,-10
1532142684534,-4,-11,-7,-3,-4,-1,-1,0
1532142684539,0,1,-2,-2,-1,2,4,4
1532142684544,8,7,13,7,2,2,0,-4
1532142684549,-12,-4,-9,-5,-1,-1,-2,0
1532142684554,-8,-30,0,1,-2,-1,0,-2
1532142684559,13,31,0,1,0,-2,-4,-2
1532142684564,2,8,-5,-2,-1,-1,-3,7
1532142684569,8,11,3,0,0,1,1,2
1532142684574,-15,-8,1,0,-2,0,1,-5
1532142684579,-3,-4,2,-1,-2,0,1,3
1532142684584,-2,-33,-13,-4,-2,-3,-4,-8
1532142684589,11,19,6,2,0,-1,0,6
1532142684594,-5,-11,-3,1,0,0,-3,-1
1532142684599,-6,-18,0,0,-2,0,-1,-2
1532142684604,-2,29,5,-1,0,0,1,-5
1532142684609,6,0,-5,-2,0,0,-2,4
1532142684614,3,6,-1,0,-2,-3,0,3
1532142684619,-8,-8,0,-2,0,0,0,-5
1532142684624,2,-9,-9,-1,-2,-2,0,-6
1532142684629,0,-1,6,-1,1,0,-1,4
1532142684634,7,22,2,1,-1,0,-1,-2
1532142684639,-10,-19,-6,-2,-1,0,-1,-2
1532142684644,0,-1,-5,-2,-1,-3,-2,0
1532142684649,3,-6,-3,2,1,0,1,3
1532142684654,-3,5,3,3,0,-1,1,2
1532142684659,-2,-13,2,2,-2,1,-2,-6
1532142684664,-2,3,1,-2,-10,-1,-2,-1
1532142684669,13,0,-5,-2,1,-2,0,-3
1532142684674,-1,-4,-9,-9,-2,-5,-6,-4
1532142684679,-3,2,3,2,5,1,2,0
1532142684684,-5,-4,4,4,-2,2,1,3
1532142684689,0,-2,-2,1,-1,0,-1,-4
1532142684694,-2,0,-1,0,-2,0,0,-13
1532142684699,-1,-5,-4,-5,-4,-3,0,2
1532142684704,1,-3,-7,-4,3,1,2,1
1532142684709,8,5,3,3,1,0,-1,3
1532142684714,0,1,5,1,1,0,-1,5
1532142684719,-4,1,-8,-3,-3,-1,-2,-8
1532142684724,-1,-8,-1,0,0,1,1,2
1532142684729,-1,4,1,-3,-3,-2,-2,0
1532142684734,0,-10,-7,-2,-3,0,-1,1
1532142684739,3,24,9,2,0,1,-1,2
1532142684744,5,-15,-1,-3,0,-1,-3,-4
1532142684749,-17,-33,-10,-1,-1,1,0,0
1532142684754,12,26,-10,-3,0,0,1,-2
1532142684759,-7,9,10,1,1,-2,-2,-1
1532142684764,3,2,-7,-5,-2,-2,0,-5
1532142684769,-4,-2,2,0,-3,-4,-1,-1
1532142684774,-3,-3,12,2,4,2,3,2
1532142684779,0,-13,-9,1,-1,1,-1,-1
1532142684784,-1,14,3,-1,-4,-4,-2,-2
1532142684789,-7,-6,7,2,1,1,1,2
1532142684794,5,20,-7,-6,-2,2,0,-1
1532142684799,-5,-30,-2,2,5,-1,-1,-3
1532142684804,-4,2,4,4,-3,1,-2,-2
1532142684809,-4,-5,-8,-1,0,0,-1,0
1532142684814,-2,-9,2,1,0,-2,-1,1
1532142684819,4,10,-5,-2,-7,-3,-1,-2
1532142684824,3,-1,-4,-3,2,1,1,2
1532142684829,8,17,4,0,1,1,1,6
1532142684834,-4,8,10,0,1,1,1,1
1532142684839,-1,-15,-13,-1,-2,-1,-3,-2
1532142684844,-4,-5,2,3,3,-2,0,-2
1532142684849,5,-1,-3,-1,0,-1,-2,-3
1532142684854,2,17,10,0,-5,-2,-1,4
1532142684859,-3,11,-1,-5,-1,0,-3,-4
1532142684864,0,-8,-13,0,-1,0,-3,-5
1532142684869,-2,-13,-1,2,1,1,0,-1
1532142684874,2,9,5,5,1,1,1,2
1532142684879,-12,-38,-9,-5,-4,-3,0,0
1532142684884,4,15,1,-3,5,1,0,1
1532142684889,-7,-34,-2,-3,-2,-1,-2,-3
1532142684894,3,18,-9,-1,-1,-3,-5,-6
1532142684899,-1,12,2,0,-3,0,3,3
1532142684904,4,-3,2,-1,-6,-7,-4,-2
1532142684909,1,0,-3,-1,-6,5,4,2
1532142684914,-1,-27,-2,1,7,-1,-2,0
1532142684919,-3,13,8,6,7,2,1,-2
1532142684924,0,1,-1,-3,-3,-8,1,4
1532142684929,-2,12,1,-5,0,7,-1,-2
1532142684934,0,-19,-8,-3,-3,-1,0,-4
1532142684939,-1,0,0,-1,-5,-3,-3,-2
1532142684944,-4,-7,-9,-3,2,0,-3,-8
1532142684949,-2,3,-2,-3,0,-5,-3,-1
1532142684954,-1,-10,-4,0,-2,-1,1,5
1532142684959,-1,-5,-1,-1,0,-2,-2,-3
1532142684964,0,10,2,0,1,3,1,2
1532142684969,-1,1,1,-2,1,-3,-1,2
1532142684974,3,-4,-7,0,-3,0,-2,-3
1532142684979,4,13,8,-1,-1,0,0,3
1532142684984,-9,-13,-1,-1,-1,1,1,1
1532142684989,-6,20,-4,-1,-1,-2,-4,-3
1532142684994,3,-14,0,-3,-2,-4,-2,-4
1532142684999,2,-6,4,-1,1,0,2,-1
1532142685004,-6,-9,-9,-3,0,2,2,0
1532142685009,16,37,-8,-5,-4,-3,-2,-4
1532142685014,-13,-9,-4,-2,-1,-3,-2,-1
1532142685019,1,11,7,10,10,2,2,5
1532142685024,5,-7,7,1,-1,1,-1,-1
1532142685029,-11,-18,-5,-5,-6,1,1,-1
1532142685034,3,3,-1,0,5,6,3,1
1532142685039,-6,-4,-1,-3,-2,-1,-1,-2
1532142685044,1,1,5,2,4,0,-2,-3
1532142685049,3,-2,2,1,-1,-1,1,-1
1532142685054,-1,3,-1,-2,-4,-2,-2,1
1532142685059,-3,0,-5,-2,-3,-1,0,-2
1532142685064,-2,3,-2,-2,-1,-3,-1,-1
1532142685069,1,2,3,-1,1,1,-2,-3
1532142685074,-1,-4,-1,1,-2,-2,-1,4
1532142685079,3,0,1,1,0,0,2,9
1532142685084,-1,1,0,-2,-1,-3,-2,-5
1532142685089,1,-11,2,0,0,-2,-2,-1
1532142685094,-7,-3,1,2,-1,0,-2,-8
1532142685099,7,1,-4,-5,-3,-2,-2,4
1532142685104,-6,-1,-3,1,-1,1,3,0
1532142685109,11,8,4,0,1,-4,-6,0
1532142685114,7,-14,-4,0,-1,0,0,2
1532142685119,1,31,11,3,0,-2,0,-1
1532142685124,-6,-28,-20,-3,-2,0,-2,-2
1532142685129,-6,0,11,3,1,0,0,-3
1532142685134,-7,-6,-13,-4,-2,-2,-2,-2
1532142685139,-5,-25,-7,-3,-5,-2,-3,-5
1532142685144,5,15,10,-1,0,2,0,1
1532142685149,-4,-5,-2,2,1,-1,2,0
1532142685154,3,3,1,0,1,-2,-2,-3
1532142685159,-2,-3,-2,-3,-1,-2,-3,-2
1532142685164,-1,5,1,0,-1,-1,0,1
1532142685169,1,0,-2,0,-1,-4,1,-1
1532142685174,-5,-5,3,-1,0,-1,0,-2
1532142685179,4,-3,-5,-3,-2,1,0,3
1532142685184,1,6,4,0,-2,-1,-2,-7
1532142685189,-6,-12,-4,-1,1,-1,0,-2
1532142685194,0,6,1,0,-4,-1,-1,2
1532142685199,-2,0,-1,-1,-1,-4,-2,-8
1532142685204,1,-2,2,0,-3,-1,-2,1
1532142685209,-4,-3,-1,-1,0,-1,0,3
1532142685214,-2,2,-1,-2,0,4,0,-3
1532142685219,1,-5,0,0,2,-2,-4,0
1532142685224,6,10,3,5,-1,-2,-1,3
1532142685229,-1,19,-2,-1,-2,-1,-1,-3
1532142685234,-6,-24,2,0,-3,-2,-2,2
1532142685239,2,-7,-6,-2,2,0,0,-2
1532142685244,-9,2,0,-2,-1,1,0,0
1532142685249,4,-1,2,3,0,-3,-3,1
1532142685254,1,14,1,2,2,1,-1,1
1532142685259,3,7,1,-3,-2,-1,0,-9
1532142685264,-5,-10,-2,-2,0,-1,-1,-1
1532142685269,-4,-7,-4,-2,-1,0,-1,0
1532142685274,0,4,-2,-3,-2,-1,0,-2
1532142685279,1,-12,-3,0,-2,2,1,2
1532142685284,0,11,2,-1,1,1,1,2
1532142685289,2,7,-3,-1,-3,-3,-2,-1
1532142685294,-2,0,1,1,3,-2,-3,-1
1532142685299,-3,3,1,1,-1,-1,-1,-4
1532142685304,-1,-8,1,0,-1,0,0,-2
1532142685309,-4,-7,-2,-1,-2,-1,1,3
1532142685314,1,4,0,-1,-3,-1,1,-7
1532142685319,0,-2,-2,-1,-2,-2,0,8
1532142685324,0,-6,-2,-1,0,0,-4,-9
1532142685329,0,0,1,1,1,0,-1,-4
1532142685334,2,-8,-4,-3,-3,-4,1,3
1532142685339,-2,0,-2,-1,-3,0,-1,0
1532142685344,-5,-4,1,1,-1,-2,0,-2
1532142685349,2,0,-3,-2,1,2,-1,1
1532142685354,1,4,-1,-3,-2,-2,-3,-3
1532142685359,2,7,1,1,1,0,0,5
1532142685364,-3,-2,0,-1,1,-1,-2,2
1532142685369,0,-4,1,-1,1,1,3,9
1532142685374,-5,18,-1,1,0,1,-5,-11
1532142685379,-11,-32,-6,-4,-3,-4,-4,-7
1532142685384,6,3,-3,-2,0,0,-1,6
1532142685389,-2,-3,3,1,-1,-3,-1,-2
1532142685394,0,5,3,1,5,0,2,5
1532142685399,-1,-4,-1,-1,-3,-1,1,-1
1532142685404,1,0,-6,-2,2,-3,-3,-2
1532142685409,4,1,-3,-3,-1,0,1,4
1532142685414,1,-2,0,-1,0,-1,1,0
1532142685419,-2,1,2,0,4,4,1,4
1532142685424,-1,-1,3,2,-2,-2,-8,-21
1532142685429,2,0,-2,1,0,-2,2,3
1532142685434,-2,-3,0,-1,-1,1,-1,-3
1532142685439,-3,-8,-5,-4,-1,1,1,0
1532142685444,0,-8,3,3,7,-2,3,15
1532142685449,13,29,3,-1,-7,0,-3,-10
1532142685454,-14,-32,1,2,0,-1,-2,-5
1532142685459,2,-5,-5,-3,-3,-2,-3,-3
1532142685464,5,7,-5,-4,-6,-1,-1,1
1532142685469,-1,-3,-2,-2,4,0,1,4
1532142685474,-1,14,1,1,2,0,1,3
1532142685479,-7,-7,1,1,3,-1,-3,-7
1532142685484,-3,-12,-4,-2,-8,-1,4,5
1532142685489,0,3,0,-1,0,-1,-3,-2
1532142685494,2,3,-2,-4,2,1,0,-8
1532142685499,-3,-6,0,0,3,0,3,17
1532142685504,3,3,1,-1,-3,-1,-5,-5
1532142685509,-4,-4,-2,-1,-8,-3,-5,-23
1532142685514,1,1,0,-5,6,3,0,4
1532142685519,3,5,0,1,1,-1,-7,-9
1532142685524,-3,3,0,0,-3,-2,5,10
1532142685529,-5,-14,0,-1,-3,2,0,6
1532142685534,0,-3,1,0,0,0,1,-2
1532142685539,5,9,0,-1,-3,0,2,5
1532142685544,4,5,-3,-2,-1,1,-1,0
1532142685549,-4,-8,-3,-3,-1,-2,-3,-6
1532142685554,2,5,-3,2,-2,-2,-1,0
1532142685559,-5,-4,-1,0,-1,-1,0,-2
1532142685564,-7,-11,2,2,0,-1,-1,-2
1532142685569,3,6,-1,1,4,1,2,6
1532142685574,1,4,0,-2,-2,0,-1,1
1532142685579,-1,1,-2,-1,-6,-1,-3,-8
1532142685584,-1,-3,0,0,1,-1,-2,-5
1532142685589,-3,-9,-2,-3,2,1,0,6
1532142685594,-8,-5,-2,1,-5,0,0,-1
1532142685599,2,2,0,0,0,-3,-3,-7
1532142685604,-2,11,-2,-1,4,-4,0,-1
1532142685609,0,-8,10,4,1,3,2,8
1532142685614,1,-17,-4,0,-2,-4,-2,-1
1532142685619,5,11,0,2,0,0,-2,3
1532142685624,-2,-1,-3,-5,0,2,-4,-16
1532142685629,-7,-5,-2,-1,-4,-4,-2,3
1532142685634,2,-2,-2,-2,-6,-2,-2,-1
1532142685639,-1,2,-2,-2,-1,-2,2,0
1532142685644,3,-3,2,0,1,1,2,5
1532142685649,2,5,0,0,2,-3,-1,-1
1532142685654,-3,-7,1,0,1,-1,0,1
1532142685659,-2,1,-2,-3,-2,-2,-2,-2
1532142685664,2,2,-1,-1,-3,1,3,6
1532142685669,-2,-2,-3,-1,-2,0,-6,-6
1532142685674,-1,3,0,-2,3,-3,0,-4
1532142685679,-3,-7,-2,1,-3,-2,-1,-5
1532142685684,-2,-4,-1,-2,-2,-1,-4,-3
1532142685689,-1,6,-3,-2,-1,-1,3,5
1532142685694,3,-11,-1,-3,-2,-1,-2,2
1532142685699,-4,3,-1,0,0,1,-2,-5
1532142685704,5,-11,-3,-1,0,-2,13,3
1532142685709,2,9,-1,0,-1,-3,-31,-5
1532142685714,-7,-1,-1,-1,-2,0,-1,-3
1532142685719,13,12,-3,-4,-1,-3,-8,-5
1532142685724,1,1,1,0,1,0,5,5
1532142685729,-1,9,-1,0,3,1,8,1
1532142685734,-1,-5,1,1,-2,0,0,2
1532142685739,-5,-16,1,0,-2,-2,3,0
1532142685744,-8,-6,-3,-1,-4,-2,-8,-2
1532142685749,12,20,-3,-3,-1,-1,6,-5
1532142685754,-1,6,0,0,-2,-1,-1,-3
1532142685759,-3,-3,-2,-2,-3,-2,6,4
1532142685764,1,-9,0,-1,-2,0,-5,-1
1532142685769,-3,-2,-2,0,0,-3,5,8
1532142685774,0,-4,2,1,1,1,-2,0
1532142685779,-3,-7,-1,-2,0,-2,0,-6
1532142685784,-1,7,-3,-2,1,0,-7,-5
1532142685789,-3,-14,-1,0,-2,-2,2,-3
1532142685794,1,10,-1,0,-1,-1,0,1
1532142685799,-7,-1,2,1,0,1,-2,0
1532142685804,2,-16,-3,-1,-2,-2,-3,-3
1532142685809,1,18,-1,-1,-3,1,2,1
1532142685814,8,0,-2,-1,1,-3,-2,-1
1532142685819,-4,-5,-2,-1,-4,1,-2,-3
1532142685824,-7,0,2,-1,0,-1,2,0
1532142685829,0,-11,1,0,0,-1,1,0
1532142685834,-2,2,-1,-1,-1,0,-1,1
1532142685839,-6,-9,-2,0,1,-1,-2,-1
1532142685844,3,6,-3,0,-4,-1,-3,0
1532142685849,-1,-10,0,0,0,-1,3,-2
1532142685854,-3,5,-1,-2,-1,1,0,2
1532142685859,2,3,0,0,3,-1,1,-1
1532142685864,0,3,0,-1,-1,-3,-2,2
1532142685869,-1,-1,-3,-1,0,1,0,-4
1532142685874,0,-6,-1,0,-2,1,-1,-1
1532142685879,-1,1,0,0,-1,0,0,0
1532142685884,-4,-2,-2,1,3,-2,-1,4
1532142685889,0,-3,-2,-3,0,-3,-1,-2
1532142685894,-1,6,1,-1,1,-1,-1,-2
1532142685899,0,3,0,0,-1,-1,-5,-1
1532142685904,-3,-5,1,-2,-2,-1,-1,-4
1532142685909,-1,-6,-2,-2,-1,-1,0,4
1532142685914,-3,-1,-1,0,2,-1,0,-1
1532142685919,1,-5,0,1,1,-3,-2,1
1532142685924,-2,6,1,0,0,0,0,0
1532142685929,0,-3,-3,-4,-4,-2,-2,-1
1532142685934,1,19,0,-2,0,1,2,-3
1532142685939,-1,-24,-4,-1,-2,-1,0,6
1532142685944,-1,1,4,3,4,0,-4,-15
1532142685949,-2,-3,2,-2,-1,0,0,0
1532142685954,-3,-4,-3,-1,-4,-1,-1,2
1532142685959,-7,-4,-2,-4,-2,0,0,-1
1532142685964,13,17,-5,-3,-3,-1,-2,5
1532142685969,-6,-8,2,-1,0,-1,-2,-7
1532142685974,5,14,-1,2,1,-1,0,5
1532142685979,-1,-9,-2,-2,-1,-1,1,-1
1532142685984,-7,-12,0,0,-1,-1,-4,-7
1532142685989,-3,-2,-1,-1,0,-2,0,1
1532142685994,3,5,-3,-4,-2,1,-1,-1
1532142685999,-1,8,0,0,0,1,1,2
1532142686004,3,3,1,1,0,-1,-1,3
1532142686009,-6,-4,-3,2,0,-1,-1,-9
1532142686014,-5,-9,4,4,1,-1,-2,1
1532142686019,3,-1,-2,-3,-2,1,0,-8
1532142686024,-3,-3,-3,-5,-7,-3,3,15
1532142686029,-1,5,4,2,6,4,3,-1
1532142686034,5,-6,-3,-2,-4,-4,-4,-3
1532142686039,-1,6,1,1,-1,-1,-5,-9
1532142686044,-4,-4,1,-2,-3,-1,2,0
1532142686049,5,-1,-7,-2,-1,0,0,5
1532142686054,-2,-6,1,1,0,1,-2,-3
1532142686059,1,8,3,0,0,-1,0,2
1532142686064,-5,-5,-2,0,1,0,0,-2
1532142686069,2,-4,-2,-3,-2,-1,-2,-1
1532142686074,0,2,1,-1,0,0,2,-1
1532142686079,7,-1,-6,-2,-2,-4,-2,-2
1532142686084,0,-1,-4,-3,-3,-2,-1,0
1532142686089,-3,-4,2,2,1,-1,-2,-5
1532142686094,-3,5,-1,-1,0,-1,-2,-1
1532142686099,-3,-1,2,-1,-1,0,0,3
1532142686104,0,-3,-2,-2,1,1,-2,-3
1532142686109,2,2,-3,-3,-4,-2,1,1
1532142686114,-4,-5,2,0,3,-1,1,-1
1532142686119,-1,2,3,3,6,1,0,-2
1532142686124,4,4,-2,0,-4,1,-1,-3
1532142686129,-3,-3,2,-2,0,-1,-1,0
1532142686134,0,-4,-3,-3,-2,0,-1,1
1532142686139,-3,-4,-3,-5,-6,1,1,-1
1532142686144,-3,3,-1,0,6,-2,-2,-6
1532142686149,1,-6,-3,1,-5,-1,-2,-1
1532142686154,0,0,1,1,-1,1,-1,1
1532142686159,-2,3,2,1,0,-1,-1,0
1532142686164,-1,1,-1,-1,-1,-1,1,-5
1532142686169,4,2,-1,-2,0,-2,-1,7
1532142686174,-8,-6,-2,1,-2,0,-3,-8
1532142686179,-1,-4,0,-3,-2,-1,0,2
1532142686184,0,0,-3,-2,-1,-1,-1,1
1532142686189,3,3,2,-1,1,-2,1,2
1532142686194,0,1,-1,-3,-1,1,-1,-2
1532142686199,-1,0,1,1,0,0,0,-1
1532142686204,-3,-4,0,-1,-2,-1,-2,-4
1532142686209,1,3,0,-1,-1,-1,-1,4
1532142686214,0,2,0,0,-1,-2,-2,-3
1532142686219,-4,-3,0,-1,-1,-1,-2,-2
1532142686224,-2,-3,3,2,1,-2,0,0
1532142686229,1,3,-1,0,-2,0,1,0
1532142686234,-1,-1,-1,-1,-1,0,0,5
1532142686239,0,1,-4,-5,-6,0,0,-8
1532142686244,-4,-6,-3,0,3,-2,-3,0
1532142686249,-4,-2,1,0,1,0,-1,-3
1532142686254,2,0,2,3,3,-1,1,0
1532142686259,-1,0,-3,1,-2,-2,0,-2
1532142686264,-3,0,3,0,1,2,0,-3
1532142686269,1,-8,-5,-4,-2,-3,-1,-5
1532142686274,3,1,0,-5,-2,-1,1,5
1532142686279,0,0,-3,-1,-1,0,-2,-2
1532142686284,0,1,-1,-2,-2,-1,-2,1
1532142686289,-2,0,1,-1,-2,0,-3,-6
1532142686294,0,-4,-4,-3,-1,0,0,-3
1532142686299,-5,-4,-1,-1,2,-1,-2,1
1532142686304,3,1,0,1,1,-1,1,2
1532142686309,-3,4,3,3,1,1,0,4
1532142686314,-1,-15,-3,-2,-3,-3,-5,-6
1532142686319,2,5,0,-2,-2,-1,-3,-5
1532142686324,0,-1,-2,-3,-4,-2,0,2
1532142686329,-1,4,-1,-1,0,-1,-2,-2
1532142686334,-5,2,-1,0,3,0,1,0
1532142686339,-1,-5,2,1,0,0,0,7
1532142686344,-2,1,-1,0,-1,0,-1,2
1532142686349,-1,1,0,-1,1,0,1,-3
1532142686354,1,0,-1,-2,-2,0,-1,1
1532142686359,-5,-9,3,2,2,0,-1,-3
1532142686364,-3,-13,-10,-5,-5,-3,-4,-3
1532142686369,4,4,-2,2,-2,-2,0,0
1532142686374,-2,-1,-4,-1,1,-3,0,-3
1532142686379,1,9,3,0,-2,-2,2,0
1532142686384,-4,-4,1,-1,0,0,-1,-2
1532142686389,1,-5,-3,-3,-3,0,-2,-4
1532142686394,2,5,-2,-1,-1,1,2,-2
1532142686399,-4,-2,-4,-4,-3,-1,4,8
1532142686404,5,-5,2,4,4,0,-5,-5
1532142686409,-4,5,-1,-1,0,-2,-3,-14
1532142686414,3,2,-2,-1,-5,0,0,3
1532142686419,3,3,0,2,3,-1,-3,-3
1532142686424,-4,-2,1,1,0,1,3,-4
1532142686429,-2,-3,2,-1,-3,0,2,11
1532142686434,-1,-9,-2,-2,0,0,1,-3
1532142686439,-2,-2,-2,-2,-3,-3,-5,-9
1532142686444,-1,3,-3,-4,-3,-1,-1,0
1532142686449,3,0,-5,-1,1,-1,-2,-4
1532142686454,2,1,4,2,-3,-2,2,0
1532142686459,0,-1,2,1,5,-1,-1,5
1532142686464,-2,2,2,0,-4,-2,0,-3
1532142686469,-1,-1,0,-4,-1,0,2,2
1532142686474,0,2,-1,-4,-1,1,-2,2
1532142686479,2,-4,-4,-2,-2,0,1,0
1532142686484,2,5,0,-2,-1,-2,0,0
1532142686489,-3,-4,-2,-1,4,1,-1,4
1532142686494,-3,1,1,-1,0,-3,-4,-11
1532142686499,-5,-1,1,0,-1,-2,-3,-3
1532142686504,-3,-11,0,1,2,2,1,1
1532142686509,2,5,-1,-1,-2,0,-1,1
1532142686514,3,8,0,-2,-1,-1,-1,2
1532142686519,-5,0,-2,-6,-3,-2,-1,-3
1532142686524,1,2,-3,-3,-3,-2,0,0
1532142686529,-2,-7,-5,0,-1,-1,1,-1
1532142686534,-1,-3,2,2,-1,-1,-2,2
1532142686539,0,2,-1,1,1,0,-2,-8
1532142686544,-1,1,0,-1,2,-2,0,0
1532142686549,-1,-1,1,1,2,1,1,0
1532142686554,2,3,-5,-4,-5,-2,-3,-5
1532142686559,1,-6,-2,-2,1,1,1,1
1532142686564,1,3,0,-1,-2,0,-1,0
1532142686569,-3,-3,1,1,1,-2,-3,-3
1532142686574,-4,-4,-1,1,2,-1,0,1
1532142686579,2,1,-2,-1,-5,0,2,6
1532142686584,1,2,-1,0,0,0,-4,-4
1532142686589,-2,-2,0,-1,-1,1,-1,-2
1532142686594,-3,-1,1,-2,1,-1,-1,1
1532142686599,0,2,-2,-1,-2,1,0,0
1532142686604,2,3,-1,-1,-2,-1,0,-3
1532142686609,-4,-4,0,-1,-7,-1,-2,-2
1532142686614,2,-3,-4,-3,4,-2,0,-2
1532142686619,1,-3,-2,-2,-2,-1,-1,1
1532142686624,-1,-1,1,0,0,0,1,2
1532142686629,2,0,0,-2,-2,0,-4,-4
1532142686634,-4,0,3,2,-2,0,1,0
1532142686639,-5,-6,-2,0,1,2,1,1
1532142686644,4,9,-2,0,-3,-3,-2,1
1532142686649,-2,-6,-3,-3,4,0,-3,-4
1532142686654,-3,-2,-2,-3,-3,0,2,2
1532142686659,-1,1,1,1,0,-3,-2,-4
1532142686664,-2,-4,-1,0,-1,-2,-2,-1
1532142686669,-2,-3,-2,-2,-4,-2,3,4
1532142686674,-2,-3,-5,-3,-1,0,-3,-1
1532142686679,0,0,1,2,-2,1,-2,-6
1532142686684,-2,-1,2,2,0,0,0,-3
1532142686689,-1,2,2,2,3,-2,-2,1
1532142686694,0,-4,-1,0,-3,-1,0,-1
1532142686699,4,0,-5,-3,-1,-1,1,6
1532142686704,-1,-2,0,-1,1,1,1,-1
1532142686709,-3,-8,-1,-1,-5,-4,-4,-6
1532142686714,-7,-7,1,0,2,2,0,0
1532142686719,13,9,-3,-2,1,-3,-2,0
1532142686724,-2,3,-2,-1,2,1,0,4
1532142686729,0,0,1,-1,-2,1,1,-2
1532142686734,-12,-17,-2,0,0,0,-4,-3
1532142686739,-2,1,0,-2,-1,-1,-2,0
1532142686744,2,1,-3,-2,-1,-1,-2,0
1532142686749,1,3,-1,-1,1,2,0,0
1532142686754,5,8,4,5,-1,-2,1,4
1532142686759,-4,-5,-4,1,-3,2,1,-3
1532142686764,-2,-4,3,-2,4,-1,-1,1
1532142686769,-1,2,-1,-1,-4,-3,-4,-10
1532142686774,1,-2,0,0,0,-3,-2,-2
1532142686779,-1,0,0,-1,-4,0,1,2
1532142686784,2,-3,-4,-1,-3,-2,0,1
1532142686789,0,-1,-2,-2,2,-1,-1,7
1532142686794,2,3,-4,0,1,3,-3,-7
1532142686799,-5,-3,-1,1,0,-1,-3,-7
1532142686804,-2,-3,2,0,-2,-1,0,-2
1532142686809,2,4,1,-3,-2,-2,1,3
1532142686814,2,3,0,1,-3,-2,1,3
1532142686819,-2,-3,-5,-2,1,-1,-1,5
1532142686824,-4,-4,2,1,-3,2,1,0
1532142686829,2,12,-1,1,6,-3,-2,4
1532142686834,0,-13,4,5,0,0,-4,-1
1532142686839,1,5,-1,1,0,-1,-2,-7
1532142686844,-5,-8,-5,-2,-1,-2,-3,0
1532142686849,2,0,-4,0,-3,-1,2,0
1532142686854,0,4,-2,-6,1,0,1,1
1532142686859,-1,-2,0,-1,1,-2,-1,0
1532142686864,0,0,-1,-1,-5,-1,0,-1
1532142686869,-3,-5,0,2,0,0,0,0
1532142686874,1,7,-3,0,-1,-1,0,-1
1532142686879,-1,3,4,2,0,-4,-2,-2
1532142686884,2,1,0,-2,0,-2,2,-1
1532142686889,-2,-6,-5,-3,-5,-3,-2,3
1532142686894,-5,-2,-4,-2,1,0,-6,-9
1532142686899,3,4,3,2,2,2,3,-5
1532142686904,3,3,1,2,1,0,-5,0
1532142686909,-10,-3,1,1,-2,-1,3,1
1532142686914,1,-11,-7,-6,-7,-3,0,5
1532142686919,-2,1,-6,0,0,0,2,3
1532142686924,5,-1,0,-2,-3,-2,0,-4
1532142686929,1,6,-3,-2,0,1,-1,-1
1532142686934,-2,-1,-2,-4,1,-3,0,0
1532142686939,-2,0,3,1,1,0,-1,1
1532142686944,3,-2,0,5,0,-1,-1,-2
1532142686949,-2,-3,3,-1,0,0,-1,0
1532142686954,0,-2,-2,-2,-2,-2,0,-2
1532142686959,0,-5,-5,-5,-2,-1,1,0
1532142686964,-2,4,-3,-2,-2,-1,1,-1
1532142686969,0,-5,1,0,-1,-1,0,-1
1532142686974,0,2,3,1,-1,1,1,-2
1532142686979,1,2,1,0,4,0,1,7
1532142686984,-5,-5,-1,-2,-5,-3,-2,-3
1532142686989,0,-4,-6,-3,4,-1,-3,-10
1532142686994,-1,3,3,1,3,1,-1,2
1532142686999,2,0,-4,-1,-7,-1,-1,-1
1532142687004,-2,3,0,-1,1,1,0,3
1532142687009,-1,-1,6,3,2,-1,0,-1
1532142687014,0,0,0,-2,-2,-1,0,-1
1532142687019,0,-2,-2,-2,0,-2,-1,1
1532142687024,-12,-8,-3,-1,-1,-1,-4,-7
1532142687029,0,-2,-5,-4,-4,2,2,2
1532142687034,1,-3,-4,-4,-3,-3,1,-1
1532142687039,-1,1,2,-4,-4,1,-1,0
1532142687044,3,3,2,2,6,2,0,1
1532142687049,-1,-2,-4,5,2,-2,-2,2
1532142687054,-1,3,6,3,-3,-1,0,0
1532142687059,-4,-4,-2,-3,3,-2,-1,-3
1532142687064,2,-1,0,-4,-6,-1,0,1
1532142687069,-3,-3,-2,-3,-1,1,0,0
1532142687074,1,0,-2,-3,-2,-1,-1,0
1532142687079,-1,-1,-2,-2,-2,-1,-2,0
1532142687084,1,1,0,1,0,0,0,0
1532142687089,-1,0,0,-1,2,-3,-2,-4
1532142687094,-2,0,-5,1,-2,-2,0,-1
1532142687099,-1,-3,1,1,-3,-2,-2,-2
1532142687104,-1,-1,-4,-4,-5,-1,4,6
1532142687109,3,0,0,-1,-5,-1,-3,5
1532142687114,-4,0,3,2,1,-1,-3,-18
1532142687119,-2,0,-2,-1,-4,2,0,-1
1532142687124,-2,-1,-1,-3,8,2,-2,-7
1532142687129,0,-1,1,-3,-8,-1,1,4
1532142687134,4,4,-3,-2,-2,-1,3,9
1532142687139,-3,-2,-1,2,0,-2,-5,-3
1532142687144,0,1,0,-1,-2,-3,-1,-1
1532142687149,-6,-2,-1,-3,-2,1,1,1
1532142687154,3,-4,-7,-1,4,-1,-2,0
1532142687159,-1,-11,-1,0,0,1,0,-2
1532142687164,-3,4,2,0,-8,-1,0,5
1532142687169,0,-5,1,0,9,-2,-4,-4
1532142687174,-1,1,-3,-2,-4,0,-2,-2
1532142687179,-1,2,1,2,0,-2,-1,-6
1532142687184,0,-3,-4,-2,0,3,0,0
1532142687189,3,4,3,1,-2,-1,-2,2
1532142687194,1,-3,-1,-2,0,0,-1,-2
1532142687199,0,0,-6,-3,0,-1,3,8
1532142687204,-2,-5,-3,-4,-5,-1,-6,-6
1532142687209,-7,-3,-7,-2,0,-2,-3,-10
1532142687214,3,2,7,5,2,4,3,5
1532142687219,2,3,4,2,-3,-2,-4,-6
1532142687224,-1,2,4,2,11,-2,-3,3
1532142687229,-1,-5,-2,-5,-7,0,2,5
1532142687234,-1,-6,-5,-3,-4,-3,-4,-7
1532142687239,-5,-3,-3,-4,0,-1,1,3
1532142687244,2,4,0,-1,-3,-1,-3,-1
1532142687249,1,-1,-3,-1,1,1,3,0
1532142687254,-1,-2,6,3,3,0,-2,-1
1532142687259,2,4,-1,-3,-2,0,0,-2
1532142687264,-7,-4,0,2,1,0,-1,-3
1532142687269,5,4,1,2,0,-1,1,2
1532142687274,-5,4,-4,-2,-3,-2,-1,-1
1532142687279,3,-13,-1,0,-2,-2,-1,-2
1532142687284,-2,2,1,-3,3,0,0,1
1532142687289,2,-1,-6,-2,-2,-3,-1,0
1532142687294,0,0,1,0,-1,2,3,0
1532142687299,-1,5,1,-1,-5,-1,-2,-5
1532142687304,-2,-1,2,0,6,0,-4,-12
1532142687309,-1,-4,5,1,-4,0,3,16
1532142687314,3,1,-4,-4,2,-2,-4,-6
1532142687319,1,2,-1,-3,0,0,-1,4
1532142687324,0,1,5,3,-4,-1,0,2
1532142687329,-2,2,-2,0,9,1,-2,-8
1532142687334,-3,-7,-4,-2,-9,-4,0,3
1532142687339,0,-1,-3,0,-2,3,-1,-1
1532142687344,5,5,-2,-1,-2,-1,2,3
1532142687349,-4,-3,1,0,-1,1,-2,-3
1532142687354,-8,-14,-1,-1,0,-2,0,-1
1532142687359,11,12,-1,-1,0,-3,-2,-2
1532142687364,-4,-3,-6,-2,-6,-3,1,1
1532142687369,-1,-2,-2,-2,-3,2,0,-2
1532142687374,2,-1,1,-2,7,-2,0,1
1532142687379,-6,-3,1,3,-1,-2,0,1
1532142687384,0,5,-4,-2,1,1,0,-2
1532142687389,-3,-9,1,0,-1,0,1,4
1532142687394,3,-6,-1,1,-4,0,-4,-6
1532142687399,-4,-3,-3,-3,2,-3,-1,-1
1532142687404,0,1,-2,-2,-3,-1,0,3
1532142687409,-2,2,1,-1,-3,-1,-1,-3
1532142687414,2,5,1,2,-1,0,-1,5
1532142687419,-1,-1,-1,-5,0,-2,-4,-6
1532142687424,-3,-8,0,1,2,0,1,0
1532142687429,1,4,5,4,-3,0,-2,-2
1532142687434,-3,-3,-4,-4,-6,-1,0,4
1532142687439,2,2,-3,0,5,2,-2,-4
1532142687444,0,-4,-2,-4,1,2,-3,-1
1532142687449,2,3,-3,-2,-1,-3,0,-1
1532142687454,0,3,4,3,-2,-1,2,6
1532142687459,-3,-3,-1,1,-6,-3,-3,-6
1532142687464,1,-1,-4,-4,3,-1,1,0
1532142687469,-4,-2,0,1,-2,0,-1,-1
1532142687474,-2,-3,-7,-5,-4,0,-3,-4
1532142687479,-1,-3,-4,2,2,1,3,5
1532142687484,1,-1,5,1,-4,-1,0,1
1532142687489,1,2,-3,-5,-3,-3,-1,-4
1532142687494,-1,3,2,5,1,-1,-3,-2
1532142687499,-1,-4,0,1,2,-2,-3,-8
1532142687504,-2,0,-1,0,-1,0,1,1
1532142687509,3,-5,-6,-4,-3,-1,-3,1
1532142687514,-3,-2,-3,-4,0,0,-1,-5
1532142687519,3,-3,3,1,3,1,1,5
1532142687524,-3,1,2,4,-4,-2,-3,-2
1532142687529,-2,-1,-4,-3,1,0,0,-1
1532142687534,1,-1,-6,-6,-4,-2,1,1
1532142687539,-1,-2,2,1,-5,-2,-4,-7
1532142687544,1,2,-3,-4,3,0,-3,-1
1532142687549,-3,0,1,-1,2,2,0,0
1532142687554,-4,-5,1,2,3,0,0,1
1532142687559,1,1,0,2,1,-1,1,2
1532142687564,-1,1,1,1,-5,2,-1,-1
1532142687569,0,-4,-2,-3,-3,0,1,0
1532142687574,0,2,-3,-2,-4,-3,-3,1
1532142687579,3,1,-3,-1,5,-2,-1,-1
1532142687584,1,4,7,3,-3,-2,0,-2
1532142687589,-1,0,-1,-1,-1,-1,-2,1
1532142687594,-4,-4,-2,-3,-4,-1,1,2
1532142687599,-3,-3,-6,-4,0,-1,-2,-3
1532142687604,0,-4,0,1,2,-1,1,2
1532142687609,-4,12,3,2,-4,-2,0,0
1532142687614,2,-21,-5,-3,7,-1,1,-2
1532142687619,1,-2,-1,-2,-7,-3,0,4
1532142687624,0,1,0,0,3,2,4,4
1532142687629,-4,-3,1,0,-2,1,-4,-3
1532142687634,0,7,0,0,-1,-3,-2,-2
1532142687639,-3,-3,-3,-3,-1,-1,-1,-1
1532142687644,0,0,-1,-2,-4,1,1,2
1532142687649,0,0,0,-2,1,0,-2,-1
1532142687654,1,1,-2,1,1,1,2,0
1532142687659,-3,-3,-2,0,1,0,-1,-2
1532142687664,-1,0,-2,-3,-1,-2,-1,0
1532142687669,3,1,-3,-2,1,-1,2,1
1532142687674,-2,0,-1,-3,-4,0,-3,-8
1532142687679,-1,2,1,1,0,0,-2,-4
1532142687684,-1,-2,-5,-4,-5,-3,-2,-4
1532142687689,-1,-3,5,5,16,0,0,1
1532142687694,2,5,3,-2,-12,-2,1,5
1532142687699,-2,-6,-1,-2,-4,0,-1,-4
1532142687704,0,-1,-1,-3,-1,-2,-2,-3
1532142687709,-1,-4,-5,-3,-2,0,-4,-4
1532142687714,-1,1,-2,-1,0,0,4,4
1532142687719,-3,-1,0,-1,1,1,2,3
1532142687724,0,-2,0,0,3,-1,-4,-5
1532142687729,4,3,-2,1,-6,-4,-1,0
1532142687734,-1,0,4,2,4,-1,-1,1
1532142687739,-2,-3,-4,-5,-5,-1,1,2
1532142687744,0,1,1,0,2,-3,-2,-2
1532142687749,-2,-4,-2,0,-2,-1,1,0
1532142687754,2,-2,3,3,-3,0,-3,-4
1532142687759,0,1,-1,-1,2,-4,-4,-4
1532142687764,1,-5,-4,-2,2,0,-1,-2
1532142687769,-3,-2,-1,-3,3,0,0,0
1532142687774,-1,2,2,2,-4,-2,-1,-2
1532142687779,-1,0,3,4,2,1,0,0
1532142687784,1,5,3,1,0,-2,0,0
1532142687789,-2,-10,-3,-2,-6,-2,-3,-10
1532142687794,-2,-5,-4,-2,-2,-1,1,3
1532142687799,-2,-3,0,-1,1,0,1,3
1532142687804,2,0,-4,-2,-1,0,0,0
1532142687809,-2,2,-1,-1,-2,0,2,2
1532142687814,-1,2,1,0,8,-3,-3,-3
1532142687819,-3,1,2,2,-2,0,-2,-1
1532142687824,-1,-1,-2,-3,-1,-1,0,-3
1532142687829,-1,-1,-3,-3,-3,-2,2,2
1532142687834,1,0,-2,-1,0,-2,-3,-3
1532142687839,-2,-6,-3,-3,-2,0,1,1
1532142687844,1,2,4,4,3,-1,-2,2
1532142687849,0,0,1,2,-2,2,-1,-7
1532142687854,-2,-2,-5,-3,2,0,-2,-4
1532142687859,2,2,0,-3,-6,-2,0,2
1532142687864,-1,-4,-6,-4,1,2,0,-1
1532142687869,2,-1,1,2,0,-4,-2,3
1532142687874,-2,2,-2,-3,-2,1,-2,-3
1532142687879,-1,0,-2,-1,-2,-1,-2,1
1532142687884,-3,2,1,1,2,-2,-1,1
1532142687889,-3,1,0,0,-8,0,-1,2
1532142687894,-6,-7,-2,-2,-2,0,0,-1
1532142687899,8,8,-1,0,-3,-1,-1,-1
1532142687904,-4,-7,-1,-5,-4,1,-1,-1
1532142687909,2,5,-4,-2,-2,-1,0,2
1532142687914,1,0,2,6,0,3,2,-1
1532142687919,-8,-9,-1,0,0,0,1,-2
1532142687924,2,3,-1,1,0,-2,-1,-2
1532142687929,-1,-2,0,-1,-1,-1,1,2
1532142687934,-1,-2,-1,-4,-3,-1,-1,-4
1532142687939,3,2,-3,-2,3,-1,-2,-1
1532142687944,-2,-2,0,0,0,-1,-1,-2
1532142687949,-2,1,-3,-3,-1,-2,-3,0
1532142687954,1,-2,-3,-4,-2,0,1,9
1532142687959,0,-1,-1,0,0,2,0,-6
1532142687964,-2,-2,-4,0,1,-2,-1,0
1532142687969,-1,-1,1,0,-4,-2,0,0
1532142687974,1,-4,0,-1,-1,1,1,-1
1532142687979,1,-1,1,-2,-3,-2,-1,1
1532142687984,0,-2,1,0,-2,-1,-1,-1
1532142687989,0,-1,-1,0,2,1,1,3
1532142687994,0,5,5,0,0,-1,-3,-5
1532142687999,-4,-1,0,0,-1,-1,-1,-2
1532142688004,1,0,1,-2,-2,0,-1,-2
1532142688009,0,-2,-1,-2,-3,0,-1,-1
1532142688014,-1,1,-2,-3,-2,-1,-1,0
1532142688019,-2,-4,-1,1,1,0,0,0
1532142688024,0,2,0,0,2,1,-1,0
1532142688029,-1,-1,-4,-2,-1,-1,-1,-1
1532142688034,-1,-4,-3,-3,-5,-1,0,0
1532142688039,-1,-1,1,1,-1,1,-1,-3
1532142688044,-1,-1,1,0,-1,-1,-1,-2
1532142688049,0,-2,0,-1,2,0,-2,2
1532142688054,0,-2,-3,-2,-5,0,1,1
1532142688059,0,0,-1,-2,5,1,0,1
1532142688064,0,1,0,3,-1,-2,-4,-9
1532142688069,0,-2,-1,-1,-1,-1,-1,1
1532142688074,0,-2,-1,-1,-2,-1,0,0
1532142688079,1,0,2,2,-7,-4,-1,-2
1532142688084,0,-3,-4,-3,5,2,1,5
1532142688089,-1,-2,-5,-3,-1,-2,-2,-7
1532142688094,0,-2,-1,0,-2,-1,-1,2
1532142688099,-1,-1,2,0,-10,0,0,-2
1532142688104,2,2,-3,0,20,1,-1,4
1532142688109,3,-1,-1,-1,-10,1,0,0
1532142688114,-14,-9,-2,-2,-8,-3,-2,-5
1532142688119,-1,0,1,-1,3,2,2,0
1532142688124,3,-1,0,-1,-4,1,-1,-4
1532142688129,2,5,3,0,6,-1,0,5
1532142688134,3,-2,-5,0,3,-1,1,1
1532142688139,-3,-4,-3,-1,1,-2,0,-1
1532142688144,-2,0,1,-2,-5,-2,-2,-2
1532142688149,0,-2,-5,-4,3,-2,0,-2
1532142688154,0,4,0,1,0,-1,0,-1
1532142688159,3,-6,-2,-4,-1,-1,-1,-1
1532142688164,-5,-1,3,2,-2,-1,1,0
1532142688169,-2,-1,0,-2,-5,-1,0,0
1532142688174,0,3,0,-1,2,-1,-3,-4
1532142688179,0,1,-4,-4,2,-1,0,0
1532142688184,-1,-4,0,-2,-7,-2,-3,-3
1532142688189,-1,0,-2,3,7,1,-2,0
1532142688194,-7,-2,6,4,2,-1,-2,2
1532142688199,1,0,0,0,-1,-1,-2,-3
1532142688204,0,0,-1,-3,-9,-2,0,0
1532142688209,-1,-1,-1,0,0,-1,0,-1
1532142688214,7,-3,-5,-5,-1,1,-1,-2
1532142688219,-3,-2,-3,2,-5,0,1,-1
1532142688224,2,8,3,1,0,0,1,0
1532142688229,-5,-2,1,0,-3,-1,2,2
1532142688234,4,1,-2,0,0,0,0,-2
1532142688239,-3,0,2,-1,-1,-2,-3,0
1532142688244,1,-5,-3,0,7,0,-1,-2
1532142688249,-1,2,4,0,-1,0,0,-3
1532142688254,-4,-5,-2,-3,-5,-1,0,0
1532142688259,-2,3,-1,-4,2,0,-2,-1
1532142688264,-3,4,-1,1,2,0,1,2
1532142688269,-3,-5,-4,2,-1,1,1,-5
1532142688274,8,8,0,-2,-1,0,-1,0
1532142688279,-1,-1,-2,-2,0,-4,-1,1
1532142688284,0,-5,-3,-1,-2,1,0,1
1532142688289,1,-1,-1,-2,-3,-2,-1,-5
1532142688294,-8,-7,-2,3,2,-1,0,1
1532142688299,-2,-1,-1,2,8,0,-1,-3
1532142688304,4,-1,-7,-10,-13,-1,-1,0
1532142688309,-1,0,-3,-1,-7,-3,-2,2
1532142688314,-2,12,8,7,-1,1,1,1
1532142688319,2,18,5,5,2,0,-1,-1
1532142688324,-2,-28,-4,-3,-2,-3,-2,-2
1532142688329,1,1,-4,-2,3,1,3,0
1532142688334,-2,-4,-2,-6,-1,-2,-1,-3
1532142688339,-7,-8,-4,-1,-10,1,2,-1
1532142688344,-1,10,5,1,2,3,0,-2
1532142688349,-2,-1,-1,-2,-1,-2,-3,0
1532142688354,2,-7,-5,-1,1,-3,0,0
1532142688359,-1,-3,-2,-2,2,-1,-1,-2
1532142688364,-3,-1,-3,0,-2,-1,-1,-2
1532142688369,0,-4,-1,1,0,0,-3,1
1532142688374,-1,3,4,2,2,-1,-1,-1
1532142688379,0,-6,-2,-2,-4,-2,-1,1
1532142688384,-1,-3,-1,-3,4,0,0,-3
1532142688389,-10,-7,-1,0,0,-1,-2,-2
1532142688394,18,8,3,0,2,-2,-1,-1
1532142688399,-22,-22,-11,-5,-2,-3,-4,-5
1532142688404,5,14,3,4,-1,-1,-1,-1
1532142688409,-4,-5,2,-7,-1,-2,0,0
1532142688414,-6,10,-9,-4,-2,1,3,2
1532142688419,7,-31,-3,-6,-2,-2,-1,3
1532142688424,-5,15,3,2,1,-3,-4,-9
1532142688429,0,4,2,4,-2,-1,-1,-2
1532142688434,1,-4,0,-3,6,-1,-3,-3
1532142688439,0,7,3,7,-4,1,0,2
1532142688444,-5,-12,3,-1,7,1,0,1
1532142688449,9,10,-1,-3,-7,-1,-1,-2
1532142688454,1,0,-3,-4,2,-1,0,2
1532142688459,-2,5,2,-1,0,-1,-5,-6
1532142688464,0,-7,-4,0,-2,-1,-1,1
1532142688469,2,4,0,5,4,-2,1,0
1532142688474,-11,-18,1,0,-7,-1,0,-3
1532142688479,12,10,-11,-6,4,-2,-3,-3
1532142688484,-4,0,-4,-4,-7,-2,1,2
1532142688489,7,-16,5,1,2,-1,-1,1
1532142688494,2,36,8,5,-3,-2,0,3
1532142688499,-5,-5,3,2,2,2,1,-2
1532142688504,-3,-6,-3,-3,1,0,4,3
1532142688509,-4,-9,-5,-3,0,3,1,-1
1532142688514,3,-4,-5,-5,-4,-3,-5,-4
1532142688519,-1,4,5,0,-2,-1,0,-1
1532142688524,-1,12,-5,-5,8,2,-1,3
1532142688529,-4,-5,2,4,-9,-1,-2,4
1532142688534,-5,-13,-1,-3,-1,0,-2,-10
1532142688539,3,9,2,-2,-6,-2,0,0
1532142688544,-4,-1,0,0,-1,-2,0,-2
1532142688549,1,0,-2,-6,7,-1,1,0
1532142688554,0,-8,-9,-1,-5,-1,-3,-1
1532142688559,0,0,4,6,2,0,0,0
1532142688564,0,0,6,2,0,0,-1,0
1532142688569,5,7,-1,-3,-3,-1,-1,0
1532142688574,-13,-12,-1,-1,2,-1,1,2
1532142688579,17,17,-5,-5,0,-1,0,-2
1532142688584,-6,-12,-1,-1,0,-1,0,0
1532142688589,4,6,1,0,-6,0,0,-2
1532142688594,-2,-13,1,1,-1,-1,2,1
1532142688599,-8,7,-2,-1,3,1,-2,1
1532142688604,5,20,-2,0,-6,-2,-2,1
1532142688609,-4,-7,2,1,10,0,1,-3
1532142688614,6,11,5,7,-6,1,1,2
1532142688619,-11,-17,2,-1,4,1,-1,-3
1532142688624,5,-1,-6,-5,-8,-2,-4,-4
1532142688629,-8,1,-7,-6,6,-3,-2,-3
1532142688634,4,0,-7,-5,-5,-1,-2,-1
1532142688639,0,5,8,3,2,2,0,0
1532142688644,1,-6,-1,2,0,1,-1,-1
1532142688649,-3,1,1,2,-3,-3,0,0
1532142688654,-5,-8,2,0,3,4,2,2
1532142688659,-2,-8,-3,-6,-7,-4,2,2
1532142688664,9,4,-12,-6,0,-2,-4,-6
1532142688669,-5,3,2,3,-1,-2,-2,-2
1532142688674,-4,-8,1,2,2,0,0,1
1532142688679,4,10,-2,-1,1,-3,0,0
1532142688684,-2,14,8,1,-3,0,1,1
1532142688689,-15,-56,-12,-11,-7,-4,-2,-2
1532142688694,2,6,-10,-2,3,0,-4,-5
1532142688699,5,5,9,10,0,2,-1,4
1532142688704,3,23,12,5,2,-2,-3,1
1532142688709,5,8,2,0,-6,2,-1,-2
1532142688714,-18,-19,-3,-4,-3,-2,0,1
1532142688719,-2,-1,-6,-6,-6,-1,-1,0
1532142688724,-4,-16,-4,-3,-2,-1,0,-4
1532142688729,0,13,4,4,6,0,0,-2
1532142688734,1,-9,0,-1,2,0,-2,-2
1532142688739,-6,-6,-9,-3,-12,-2,-2,-1
1532142688744,-7,-21,-1,-3,-7,-3,2,3
1532142688749,8,10,2,0,6,2,0,-4
1532142688754,1,15,4,3,0,-3,-4,0
1532142688759,-8,-20,1,1,6,-1,-1,-2
1532142688764,-5,-26,-4,-4,-2,-1,0,1
