1532066134825,-2,0,-2,0,-2,-2,-2,0
1532066134830,-2,-2,3,2,-3,-5,-3,-5
1532066134835,0,-1,-7,-12,1,1,0,1
1532066134840,1,0,-3,9,0,0,0,1
1532066134845,-1,-1,0,-10,0,-2,-2,0
1532066134850,0,1,1,9,-2,-2,-1,1
1532066134855,1,2,0,1,1,2,0,1
1532066134860,-1,-2,-5,-14,-2,-1,0,-2
1532066134865,-1,0,3,6,1,-2,-3,-1
1532066134870,-2,-1,-3,-8,-1,-1,0,-2
1532066134875,-1,-1,2,17,-2,-3,-4,-3
1532066134880,-1,-1,-1,11,-3,-2,-2,-2
1532066134885,-1,-2,-7,-22,0,-4,0,0
1532066134890,-1,-1,5,9,0,0,-1,1
1532066134895,0,-1,-2,-6,3,3,0,1
1532066134900,1,2,-3,8,0,-2,-1,0
1532066134905,0,1,2,3,-4,1,0,0
1532066134910,-1,2,-1,0,-1,-1,1,-2
1532066134915,-1,-3,1,1,-4,-3,-3,-3
1532066134920,-3,0,-1,-9,-1,2,0,-3
1532066134925,0,0,3,14,5,1,-1,-1
1532066134930,-2,-1,0,-15,-3,-2,-4,-2
1532066134935,1,-1,-6,-14,-3,-1,1,0
1532066134940,-2,0,-3,5,0,-2,0,2
1532066134945,-1,0,-1,18,-2,1,0,-1
1532066134950,-4,0,-1,-15,1,-1,-1,-1
1532066134955,3,-1,-6,-3,2,-1,0,3
1532066134960,0,1,-5,-6,-1,-1,-2,-4
1532066134965,0,-3,3,6,-2,0,-1,-1
1532066134970,0,-2,0,5,2,1,-2,-1
1532066134975,-2,1,1,-6,0,-3,-1,-2
1532066134980,0,-2,-1,2,-4,-2,-1,0
1532066134985,-2,1,0,-12,0,0,-2,-2
1532066134990,-2,-1,1,6,-1,2,2,1
1532066134995,0,0,2,-2,-4,-3,-2,-3
1532066135000,-1,-4,0,9,-1,-1,-1,-1
1532066135005,2,1,-2,-2,4,1,3,0
1532066135010,0,-1,-1,3,-1,-3,-1,-1
1532066135015,-3,-1,-1,-5,-5,-3,-5,-3
1532066135020,2,0,-2,-3,0,1,1,3
1532066135025,-2,-3,1,-4,-6,-4,-4,1
1532066135030,0,-1,-3,1,-3,-3,0,-1
1532066135035,0,0,-2,11,1,1,2,-1
1532066135040,-5,-2,2,-32,-4,-1,-4,-2
1532066135045,-2,-4,-7,-5,-1,-2,-1,-1
1532066135050,1,0,2,3,-2,-1,-2,-2
1532066135055,1,2,-2,4,1,2,2,0
1532066135060,0,1,0,13,2,0,1,-1
1532066135065,-2,0,-1,-30,-1,0,2,-2
1532066135070,0,-2,0,-5,-1,0,-3,1
1532066135075,-7,-1,-4,-5,-2,-2,0,-2
1532066135080,6,-1,2,9,-3,0,-3,0
1532066135085,-1,-2,-2,2,-3,-3,-4,0
1532066135090,-5,-1,0,11,0,1,0,0
1532066135095,5,-2,0,-2,4,2,0,1
1532066135100,-4,0,1,6,2,-2,-1,-5
1532066135105,-5,1,-4,-8,1,2,0,-3
1532066135110,3,0,0,7,0,0,1,0
1532066135115,-4,-2,1,13,-2,-2,1,0
1532066135120,2,0,-2,-29,0,2,1,1
1532066135125,2,1,1,17,0,-1,0,0
1532066135130,-5,-2,-4,-43,-6,-6,-4,-3
1532066135135,-2,-3,2,9,-4,-3,-4,-3
1532066135140,-2,-1,-2,9,3,0,1,0
1532066135145,0,-3,5,-4,-3,-2,-3,-1
1532066135150,-2,-1,0,-2,2,1,1,2
1532066135155,-1,-1,-3,-5,-1,-1,1,0
1532066135160,-1,-2,-4,-4,-1,-1,1,1
1532066135165,-3,-1,-1,18,-1,-1,1,-2
1532066135170,8,0,2,4,0,2,-1,3
1532066135175,10,-1,-1,-15,-2,0,-2,-2
1532066135180,-19,-1,5,6,0,-3,-3,-4
1532066135185,1,-3,-7,-7,-2,-1,-2,-1
1532066135190,0,-2,1,16,0,-3,0,-1
1532066135195,-7,0,5,18,0,-4,-5,-1
1532066135200,7,-2,-3,-3,-1,-1,-2,-1
1532066135205,0,3,0,-18,4,2,4,0
1532066135210,-5,1,-2,9,0,0,0,-1
1532066135215,-5,-3,-3,-9,-1,-1,-1,0
1532066135220,2,2,10,17,-2,-1,-1,1
1532066135225,-2,-3,-1,-10,0,0,-1,-1
1532066135230,0,0,0,-7,0,0,-2,-3
1532066135235,-2,-1,-5,-2,-3,-1,0,0
1532066135240,1,1,-3,-15,0,-1,1,1
1532066135245,-1,-3,-4,12,-8,-5,-7,-2
1532066135250,-1,-2,0,5,1,0,-1,0
1532066135255,0,0,0,-6,6,3,0,-2
1532066135260,3,-1,-5,-2,-2,1,0,1
1532066135265,-1,0,2,3,-1,0,-1,0
1532066135270,1,1,0,27,3,3,3,0
1532066135275,-6,-3,-2,-15,-6,-4,-6,1
1532066135280,10,-3,-2,7,1,1,-1,2
1532066135285,-21,-2,-2,-16,1,-2,1,-4
1532066135290,9,-1,-2,-4,-4,-5,-2,-1
1532066135295,2,1,0,-20,2,3,1,-6
1532066135300,-6,1,-5,5,0,-3,0,-2
1532066135305,5,0,2,15,-2,-3,-5,1
1532066135310,-2,0,-1,-11,-1,-1,0,-1
1532066135315,-2,-1,-1,21,-1,0,0,1
1532066135320,3,1,-2,-12,-1,-1,-1,1
1532066135325,2,-1,-2,0,-2,-2,1,-1
1532066135330,-6,0,-1,-3,0,2,-3,-2
1532066135335,10,0,3,34,5,1,3,4
1532066135340,-6,-3,-5,-42,-9,-4,-9,-4
1532066135345,-1,-7,1,-6,-8,-7,-3,-4
1532066135350,0,3,-2,5,5,4,4,4
1532066135355,-3,1,-4,-14,-1,-5,-3,0
1532066135360,-3,-6,3,14,-6,-8,-9,-10
1532066135365,5,4,-5,-12,7,7,8,4
1532066135370,0,2,-4,0,6,6,5,4
1532066135375,-4,-2,-1,-7,-6,-4,-4,-4
1532066135380,-1,-1,1,14,-1,-1,1,0
1532066135385,2,2,-2,4,-1,-1,-3,-2
1532066135390,-2,-4,-1,-1,-4,-3,0,-3
1532066135395,1,0,-1,-8,-3,0,1,1
1532066135400,4,-1,0,16,0,0,2,1
1532066135405,-1,1,-1,-3,3,3,-1,-3
1532066135410,0,-2,-1,-6,0,-1,0,-1
1532066135415,-8,-4,-2,1,-5,-2,-5,-1
1532066135420,7,1,2,2,-1,-2,-3,1
1532066135425,1,0,-1,-9,2,3,3,3
1532066135430,-7,-2,4,-4,-6,-4,-6,-4
1532066135435,9,-1,-3,-8,-2,-3,-2,-4
1532066135440,-4,0,1,7,5,5,-1,1
1532066135445,0,0,-2,7,-2,-4,2,3
1532066135450,-5,-4,-2,2,-4,-7,-10,-5
1532066135455,0,2,-2,-9,1,3,1,1
1532066135460,-1,4,-1,9,11,8,10,2
1532066135465,-4,-5,5,-8,-5,-5,-9,-5
1532066135470,3,-1,-2,9,-3,1,-3,0
1532066135475,-2,1,1,2,5,2,4,2
1532066135480,-1,-2,-5,-16,-6,-3,-3,-2
1532066135485,-1,-3,2,9,-4,-3,-4,-3
1532066135490,0,1,-1,8,1,-1,1,1
1532066135495,-2,-5,-3,-11,-7,-5,-4,-2
1532066135500,-5,-3,2,6,-2,-1,0,-1
1532066135505,2,0,-7,-12,1,2,2,2
1532066135510,2,1,-2,7,4,1,3,0
1532066135515,-4,-1,3,7,-1,-1,-2,-3
1532066135520,0,0,-3,-5,4,1,1,-1
1532066135525,-2,0,8,10,1,1,1,1
1532066135530,2,-1,-3,-5,-2,-1,-3,-4
1532066135535,0,-2,-2,-7,-5,-2,0,-1
1532066135540,-3,-2,-2,17,-2,-2,2,1
1532066135545,0,-1,-5,-15,-4,-4,-4,-3
1532066135550,2,0,1,-3,-3,-1,-1,-1
1532066135555,0,0,0,8,1,-1,-1,1
1532066135560,-3,-1,1,0,1,1,0,0
1532066135565,1,-1,-2,10,1,2,1,-2
1532066135570,2,0,-1,-5,3,1,3,3
1532066135575,1,0,-4,-8,0,0,1,-1
1532066135580,-2,-3,2,4,-2,-4,-3,-1
1532066135585,-1,-3,2,4,-2,-3,-3,-1
1532066135590,-3,-1,1,16,-3,-2,-1,-1
1532066135595,-2,-2,-2,-5,1,1,-1,-3
1532066135600,1,0,-3,-25,-4,-2,-5,-2
1532066135605,-1,-1,-2,12,1,1,3,2
1532066135610,0,-1,0,-3,-3,-4,-5,-3
1532066135615,-2,-1,1,-8,0,1,1,-1
1532066135620,-1,2,-1,4,6,5,4,0
1532066135625,1,0,-2,-1,1,1,0,1
1532066135630,-1,0,-1,-17,-2,-4,0,-1
1532066135635,-4,-1,5,20,-2,-2,-3,0
1532066135640,1,-2,-1,-5,-1,-3,0,-2
1532066135645,-2,-1,-3,-4,-4,-4,-5,-3
1532066135650,-3,-2,3,-2,-2,1,-2,0
1532066135655,0,1,2,-13,2,0,2,1
1532066135660,5,0,-3,1,-4,-2,-3,2
1532066135665,-1,2,-2,0,-1,-1,1,-2
1532066135670,0,0,-1,8,1,1,-3,0
1532066135675,0,2,-3,-2,4,1,3,0
1532066135680,-5,-5,1,0,-5,-2,-2,0
1532066135685,-3,-2,2,2,4,0,-2,-5
1532066135690,-2,-2,-4,-11,0,-1,1,-1
1532066135695,-2,-3,0,10,-4,-4,-4,-3
1532066135700,-2,1,-4,1,-1,-2,-1,-2
1532066135705,1,-2,1,9,-3,1,-3,0
1532066135710,-2,-1,-3,-21,1,0,1,-3
1532066135715,-2,-2,-3,-11,0,0,-9,-1
1532066135720,1,1,-2,-7,0,1,8,4
1532066135725,1,0,-2,5,4,4,0,1
1532066135730,0,-3,0,-2,-1,0,-1,-2
1532066135735,1,2,0,7,1,0,0,2
1532066135740,-3,-1,0,-13,-1,-2,-3,-4
1532066135745,10,-5,-6,-11,-9,-6,-3,1
1532066135750,-27,-2,-1,2,-2,-2,-5,-3
1532066135755,2,-1,-7,-8,-1,1,0,-1
1532066135760,-1,0,1,11,-2,0,-1,-3
1532066135765,-6,-1,2,1,2,-3,0,-2
1532066135770,7,-1,2,7,2,3,0,3
1532066135775,0,0,-2,-19,-2,-1,0,-1
1532066135780,-2,0,-2,-10,-2,0,-3,0
1532066135785,-2,0,-2,-9,2,2,2,-5
1532066135790,2,-2,-1,2,-4,-3,-2,0
1532066135795,-2,-3,4,15,-3,-2,-2,-3
1532066135800,1,-4,-2,-18,-4,-1,-3,-2
1532066135805,-2,-1,-1,-3,-1,-1,-1,2
1532066135810,2,0,0,6,-1,-4,-5,-3
1532066135815,-1,0,-1,-2,3,-1,7,2
1532066135820,1,-1,-7,-7,2,0,1,-1
1532066135825,8,0,1,25,-1,-1,-1,2
1532066135830,-12,-1,-2,-1,-2,-3,0,-3
1532066135835,3,2,-4,1,0,1,-2,-1
1532066135840,-2,1,6,11,2,0,-1,0
1532066135845,7,0,1,-27,-2,-3,-1,-2
1532066135850,4,-6,-7,9,-4,-2,-4,-1
1532066135855,0,1,0,17,2,0,1,0
1532066135860,-4,-4,7,-8,-7,-6,-2,-4
1532066135865,-7,2,-13,-6,-2,1,-1,-1
1532066135870,-1,2,3,2,2,1,1,1
1532066135875,13,-1,-5,-10,-2,-2,0,0
1532066135880,-20,-1,14,18,3,0,-3,-3
1532066135885,3,-1,-5,4,2,2,1,0
1532066135890,22,3,3,-11,1,1,3,5
1532066135895,-18,-1,5,-3,-5,-3,-5,-4
1532066135900,4,2,-5,-1,1,-2,2,2
1532066135905,-12,-2,6,-8,0,-1,-4,-5
1532066135910,-8,1,-5,-13,-5,-4,-1,-4
1532066135915,6,-3,1,0,-1,-1,-1,2
1532066135920,11,6,-2,3,-1,1,3,0
1532066135925,-18,-1,5,9,2,-1,-5,-2
1532066135930,11,-4,-7,-10,-2,-1,5,4
1532066135935,0,-2,0,5,6,2,0,1
1532066135940,-2,-3,-1,2,-4,-3,-2,-2
1532066135945,6,0,-2,-4,-4,-4,-1,0
1532066135950,4,0,4,7,5,5,5,-1
1532066135955,-22,-3,-7,-6,-7,-3,-2,-5
1532066135960,7,-7,-1,-2,3,-1,-3,0
1532066135965,9,0,-1,-7,-6,-5,-1,1
1532066135970,-4,-1,0,6,0,-2,-4,-2
1532066135975,-2,-1,3,0,-3,-3,-4,-2
1532066135980,7,-3,-5,-1,0,2,1,2
1532066135985,-15,-1,-3,-7,1,0,0,-3
1532066135990,-2,-3,1,1,-8,-4,-4,0
1532066135995,0,-1,1,9,3,1,3,-1
1532066136000,-2,-7,-12,-9,-9,-5,-3,-6
1532066136005,0,-2,2,-4,-1,0,3,0
1532066136010,3,2,2,0,-1,-1,1,-2
1532066136015,6,-2,-3,-5,-3,-2,-5,0
1532066136020,9,5,-1,4,-1,-2,2,1
1532066136025,-21,-11,5,11,6,3,1,0
1532066136030,3,-2,-6,-12,-3,-2,-5,-4
1532066136035,6,3,-1,1,2,0,7,6
1532066136040,-20,-4,1,4,2,1,-3,-1
1532066136045,11,5,-6,-5,-6,0,1,-2
1532066136050,-2,-4,0,1,2,-1,-4,-2
1532066136055,11,-4,3,2,4,3,1,1
1532066136060,-24,0,6,-9,-10,-8,-6,-6
1532066136065,26,0,1,1,-1,-3,-3,1
1532066136070,-10,-3,-2,4,1,0,0,-3
1532066136075,6,6,1,-2,-2,-1,-1,-1
1532066136080,4,1,-1,2,-2,1,1,1
1532066136085,8,-3,1,-1,4,3,1,2
1532066136090,-6,-2,-2,-1,-2,-3,-2,-4
1532066136095,27,8,3,4,-1,-2,-4,0
1532066136100,-53,-13,-2,2,4,3,2,-2
1532066136105,-7,-2,-9,1,-4,-3,-1,2
1532066136110,3,-1,5,-9,-4,-2,-1,1
1532066136115,-11,0,-3,0,0,0,-1,-6
1532066136120,13,3,-3,-7,0,-2,-1,2
1532066136125,-9,-1,-3,2,-2,-3,-7,-4
1532066136130,2,-3,-1,2,4,4,-3,2
1532066136135,-6,-6,-4,-7,-3,-2,4,0
1532066136140,1,2,-3,-5,2,0,-1,0
1532066136145,13,3,5,10,-3,-2,1,-3
1532066136150,12,6,2,-5,3,0,1,1
1532066136155,-13,-4,2,1,-4,-4,-4,-5
1532066136160,6,0,12,14,6,3,-2,1
1532066136165,11,-1,-2,-9,0,-2,1,1
1532066136170,-27,-3,-6,-6,-8,-2,0,-3
1532066136175,4,3,-5,-7,0,0,0,-3
1532066136180,5,-18,1,2,-3,-3,-3,0
1532066136185,-21,13,5,12,9,4,-2,-4
1532066136190,15,4,-4,-11,-3,-3,1,3
1532066136195,-14,3,5,13,-2,-3,-2,0
1532066136200,9,6,0,4,4,2,2,1
1532066136205,9,-21,0,-15,-3,-3,-1,0
1532066136210,-17,4,0,2,-4,-3,-4,-5
1532066136215,5,6,0,5,8,7,9,3
1532066136220,12,6,-5,-5,-5,-7,-6,-2
1532066136225,-14,-6,-2,-16,-13,-11,-10,-10
1532066136230,-1,-2,0,9,4,3,5,3
1532066136235,-4,-2,-5,20,3,3,-1,2
1532066136240,6,-1,-6,-26,-3,-2,-1,-4
1532066136245,-3,3,0,-4,7,6,3,3
1532066136250,1,2,-4,4,3,6,5,5
1532066136255,-1,-9,2,-5,-8,-10,-10,-6
1532066136260,2,-1,0,0,-2,1,1,-2
1532066136265,1,2,-3,-1,6,5,4,0
1532066136270,0,-5,1,15,-3,-5,-4,-3
1532066136275,-7,-9,-2,-24,-8,-5,-9,-4
1532066136280,3,5,-2,9,2,2,4,0
1532066136285,-5,1,-3,4,0,-1,1,3
1532066136290,2,-2,-1,-6,-3,-3,-3,-4
1532066136295,-2,1,-1,0,0,1,1,1
1532066136300,13,-16,-4,-1,5,3,4,3
1532066136305,-15,0,-3,-5,-3,-1,-2,-2
1532066136310,-2,0,2,3,-2,-1,-1,-2
1532066136315,8,4,-6,-3,3,1,0,-2
1532066136320,-4,3,-2,-5,-4,-3,-4,-2
1532066136325,3,-4,4,5,-3,-1,0,1
1532066136330,0,-2,-3,-12,3,-3,0,-1
1532066136335,-11,-4,-5,-11,-4,-2,-3,-1
1532066136340,5,6,3,28,-5,-3,-5,1
1532066136345,17,0,-2,-3,0,2,2,3
1532066136350,-28,24,1,3,0,3,0,-1
1532066136355,4,-32,-2,-5,0,-2,1,0
1532066136360,-5,-6,-4,-15,-1,-4,-5,-8
1532066136365,-2,8,4,9,1,0,1,0
1532066136370,18,-1,-2,0,-5,-4,0,0
1532066136375,3,7,6,-8,-3,-4,-4,-4
1532066136380,-9,2,-9,-6,-5,3,3,4
1532066136385,-5,-2,0,0,1,-2,-2,-3
1532066136390,9,-7,-1,3,0,-1,-1,-2
1532066136395,0,4,0,-12,1,0,4,2
1532066136400,-5,-4,2,2,-1,-1,-2,1
1532066136405,6,4,-2,0,-2,-1,0,-3
1532066136410,-6,-6,2,-9,0,-2,0,-2
1532066136415,-4,-8,-3,3,0,-1,0,-3
1532066136420,1,15,4,12,-4,0,-2,2
1532066136425,14,-15,-1,-8,-3,-1,-4,5
1532066136430,-27,5,-1,-1,2,2,-2,-4
1532066136435,0,24,3,2,2,-1,1,2
1532066136440,6,-43,-5,-7,0,-1,-1,-3
1532066136445,-6,-2,-2,18,2,2,4,-9
1532066136450,11,-2,4,22,1,-3,-1,0
1532066136455,16,10,3,-6,1,1,-1,3
1532066136460,-2,-9,-3,18,4,1,1,-1
1532066136465,-10,23,0,6,-3,-4,-3,-4
1532066136470,6,-9,-2,-13,-1,-1,-2,1
1532066136475,-9,0,-4,-1,-9,-4,-3,0
1532066136480,6,23,4,2,-1,-2,1,0
1532066136485,-3,-16,-4,-3,2,1,1,0
1532066136490,2,8,-1,-12,-2,-2,0,-2
1532066136495,-5,-1,-3,11,-1,1,-2,3
1532066136500,-2,1,1,-5,1,0,1,-1
1532066136505,-4,5,-3,-7,-7,-3,-2,2
1532066136510,7,1,2,15,5,0,1,1
1532066136515,-2,-10,-7,-6,-3,-2,-1,-4
1532066136520,-7,-4,0,11,-3,0,-4,0
1532066136525,-3,3,2,-10,1,-1,1,-1
1532066136530,5,-1,-1,-2,-2,-2,-2,3
1532066136535,-2,-5,0,18,4,2,2,-3
1532066136540,6,17,-1,-32,-2,-2,2,-1
1532066136545,-3,-17,2,16,0,0,-3,1
1532066136550,-3,7,-4,-12,-2,0,-1,0
1532066136555,6,-4,-1,7,-3,-1,-5,-2
1532066136560,-20,21,2,0,0,-1,-2,-2
1532066136565,17,-2,3,-4,1,3,3,7
1532066136570,-1,-20,-7,-5,2,-1,1,-1
1532066136575,-3,-5,-5,-17,-3,-4,-5,-4
1532066136580,2,0,4,44,4,0,0,-4
1532066136585,-2,10,-2,-27,-2,-3,-1,-1
1532066136590,-3,5,3,10,-5,1,0,2
1532066136595,-5,7,-1,0,2,1,0,-1
1532066136600,2,-13,-6,-16,-1,1,4,-1
1532066136605,-5,-7,0,12,1,-2,-3,-3
1532066136610,1,1,2,9,-3,-2,-3,1
1532066136615,-12,-4,-1,-20,-2,0,-1,-3
1532066136620,1,5,1,-6,-3,-2,-2,-4
1532066136625,-2,4,2,9,1,0,0,-2
1532066136630,-2,-12,-5,-2,-2,0,1,-3
1532066136635,0,-3,0,-8,0,1,1,0
1532066136640,1,-2,-1,0,0,-2,-2,-2
1532066136645,-5,-4,-5,-37,-5,-4,-1,-2
1532066136650,1,-5,0,0,0,0,-1,0
1532066136655,-5,-1,0,21,3,-1,0,-1
1532066136660,-2,3,-2,-12,0,2,2,1
1532066136665,-6,-8,0,7,-4,-2,-1,-4
1532066136670,12,9,-4,-9,2,0,-1,-1
1532066136675,-7,-25,1,12,-7,-2,-1,1
1532066136680,3,8,-1,-8,-1,0,-2,1
1532066136685,-7,-11,-3,14,-3,-4,-3,-2
1532066136690,-2,-2,3,7,6,2,2,-2
1532066136695,2,14,0,-47,-6,0,1,0
1532066136700,-1,-11,2,8,4,0,-2,3
1532066136705,-1,19,-1,-3,-1,0,-1,0
1532066136710,0,-16,0,21,3,2,-1,1
1532066136715,-2,2,-1,1,4,-1,1,-7
1532066136720,1,2,-1,-5,-2,-2,-1,2
1532066136725,-1,-4,-1,0,-4,0,-2,-1
1532066136730,-2,-7,-1,-34,-5,-1,-3,-2
1532066136735,5,17,2,15,-1,0,-1,1
1532066136740,2,-1,0,6,-1,1,0,-1
1532066136745,-8,-9,-3,-7,2,-2,0,-2
1532066136750,10,-11,-4,-3,-5,-1,-6,-3
1532066136755,-5,3,-1,16,0,0,2,-2
1532066136760,6,-4,1,-42,-10,-5,-5,-2
1532066136765,0,8,-1,12,-1,-1,2,1
1532066136770,5,6,3,5,-5,-5,1,1
1532066136775,-6,6,-1,-4,3,1,-1,-1
1532066136780,-3,-23,-5,7,1,1,-1,-1
1532066136785,2,-5,0,2,0,-1,3,0
1532066136790,1,5,-3,-19,-1,-4,-3,-3
1532066136795,4,4,7,46,-2,-2,-2,2
1532066136800,-2,7,-8,-18,-1,-1,-1,-1
1532066136805,-2,-20,-2,-2,2,0,-1,-3
1532066136810,-4,10,-1,5,3,0,1,-1
1532066136815,4,1,-3,-41,0,0,-3,0
1532066136820,-7,-7,2,-1,-1,-1,-3,1
1532066136825,4,-5,-7,2,4,0,1,-3
1532066136830,-2,3,3,11,3,1,1,0
1532066136835,-1,0,-3,0,0,2,-1,0
1532066136840,-4,4,-2,22,-3,-2,1,-3
1532066136845,1,-5,-2,-4,-4,-2,-3,0
1532066136850,-1,21,2,3,1,-1,-3,-2
1532066136855,-3,8,-3,-3,0,-1,-1,-2
1532066136860,-1,-2,1,-15,-2,-1,1,1
1532066136865,-1,-6,-3,-4,-1,0,1,2
1532066136870,-1,-6,0,27,2,-1,1,-2
1532066136875,2,3,0,-6,0,0,-1,1
1532066136880,-6,-7,-2,3,-3,0,-3,-1
1532066136885,1,-1,-1,21,2,1,0,2
1532066136890,0,-6,-3,7,-8,-4,-1,-1
1532066136895,2,2,6,20,4,3,0,1
1532066136900,-3,-5,0,-3,3,-1,0,-2
1532066136905,0,-4,-2,48,-7,-4,-4,-1
1532066136910,3,3,3,-59,7,4,1,0
1532066136915,-5,0,-3,-2,-10,-1,-6,2
1532066136920,-2,8,-1,35,6,1,2,0
1532066136925,-2,-24,-2,12,0,-3,-5,0
1532066136930,5,1,1,3,-6,-2,-1,0
1532066136935,4,7,3,17,3,0,2,-2
1532066136940,-10,-21,-10,-43,-3,-1,-3,-3
1532066136945,1,4,3,-15,-1,0,5,1
1532066136950,-5,-9,-1,-2,-1,-1,-2,-1
1532066136955,4,-2,3,26,5,1,2,-3
1532066136960,-3,4,-3,-5,-10,-3,-6,-2
1532066136965,-1,-3,-2,-1,1,2,-2,-2
1532066136970,1,17,2,4,-5,-3,-1,2
1532066136975,1,-15,-6,10,8,2,3,0
1532066136980,-12,4,-9,-60,-25,-9,-8,-7
1532066136985,6,18,4,-6,4,2,2,1
1532066136990,-2,-23,-4,2,-7,1,3,2
1532066136995,-9,-45,-4,12,1,-4,0,-3
1532066137000,6,25,8,30,9,4,4,-3
1532066137005,-1,10,0,-5,-3,-2,-5,2
1532066137010,-1,-2,-6,-27,-4,-2,0,-2
1532066137015,1,-1,2,-20,-3,-3,-1,2
1532066137020,1,-22,0,30,1,-1,0,1
1532066137025,2,21,0,-84,-4,-2,1,0
1532066137030,-3,-18,-2,20,0,-1,-3,-2
1532066137035,-7,-21,-1,-9,-3,-1,-3,-1
1532066137040,8,50,3,8,6,2,1,-2
1532066137045,-6,-16,-11,-6,-7,-4,-6,-5
1532066137050,-2,10,0,19,-1,-2,-1,-1
1532066137055,3,33,0,9,1,-1,0,-1
1532066137060,1,-25,2,-68,-10,-3,0,2
1532066137065,-1,-16,-3,16,3,0,2,-1
1532066137070,-1,18,-7,-15,-2,-1,-3,-3
1532066137075,-1,-13,0,15,-2,0,-2,-2
1532066137080,-2,-10,2,3,6,2,2,4
1532066137085,3,17,2,21,1,0,4,2
1532066137090,2,4,4,21,4,0,1,3
1532066137095,-5,-26,-11,-53,-11,-5,-7,-3
1532066137100,-11,-9,2,32,4,1,-3,-3
1532066137105,7,6,-1,-34,-6,-2,-3,-2
1532066137110,3,30,9,23,5,2,8,4
1532066137115,0,-4,-2,5,-1,0,-1,0
1532066137120,-3,-8,-3,-20,-4,-3,-4,0
1532066137125,0,9,3,26,3,-1,0,-4
1532066137130,5,8,7,16,2,1,3,0
1532066137135,-13,-26,-20,5,-13,-5,-4,3
1532066137140,1,5,-3,-39,-1,-1,-1,-1
1532066137145,-2,-14,1,20,-2,-1,-2,0
1532066137150,2,6,-3,-23,-3,-2,-2,-2
1532066137155,4,8,7,-11,6,4,11,-2
1532066137160,-2,8,1,81,15,0,-1,-1
1532066137165,-7,-8,-8,-39,-22,-5,-12,3
1532066137170,5,22,3,27,-5,1,2,5
1532066137175,-5,-37,1,5,2,-3,-3,-2
1532066137180,16,9,2,16,10,2,7,-2
1532066137185,-4,1,-4,-17,3,-1,-2,-5
1532066137190,-5,-1,-2,-9,-3,-3,-5,-1
1532066137195,5,1,7,34,0,-2,-2,0
1532066137200,-8,-27,-4,-46,-11,-1,0,1
1532066137205,2,16,9,15,14,3,9,1
1532066137210,-4,-17,-16,-59,-20,-8,-7,-1
1532066137215,1,-26,-5,44,6,1,-2,0
1532066137220,-14,35,0,-9,-3,-5,-8,-12
1532066137225,11,-4,3,49,-2,0,-1,1
1532066137230,-4,-21,-12,-28,3,0,2,1
1532066137235,10,55,18,-18,4,3,4,3
1532066137240,-2,-29,-1,67,2,1,5,3
1532066137245,-1,23,2,-6,-10,-2,0,1
1532066137250,6,-11,11,14,12,1,0,0
1532066137255,-10,-35,-10,52,-3,-4,-3,-8
1532066137260,6,-4,0,-21,0,1,-6,0
1532066137265,-4,8,4,9,5,3,3,0
1532066137270,1,-2,-3,-30,0,0,-2,3
1532066137275,2,61,5,8,4,4,2,0
1532066137280,-5,-27,-4,-38,-2,0,2,2
1532066137285,2,-57,-13,-17,6,-1,-2,-4
1532066137290,-9,30,7,36,2,-4,-7,-10
1532066137295,0,11,-10,-53,-22,-7,-2,0
1532066137300,7,18,1,12,-1,1,-1,4
1532066137305,-5,7,5,1,-1,1,1,3
1532066137310,-1,-24,-2,7,12,4,5,-3
1532066137315,2,8,1,-19,-1,-4,-7,-3
1532066137320,-2,-11,-15,-27,-19,-7,-3,-3
1532066137325,4,-4,0,-11,-5,-1,-3,4
1532066137330,-20,-5,2,-26,2,0,1,-2
1532066137335,8,3,1,3,-1,-2,-4,3
1532066137340,0,13,4,11,2,1,5,3
1532066137345,0,-14,-2,-26,6,0,-1,-5
1532066137350,9,-11,-2,-10,-9,-2,-3,1
1532066137355,-20,14,-1,-15,0,-3,-2,-2
1532066137360,3,4,3,15,4,1,-2,-3
1532066137365,-1,3,-2,11,4,-1,3,1
1532066137370,19,-2,1,-5,-3,-1,-5,-3
1532066137375,-9,-6,1,20,-1,-1,-4,3
1532066137380,3,4,3,11,4,2,0,3
1532066137385,-7,0,-1,-6,1,-1,-1,-3
1532066137390,-8,-15,-4,-16,-2,-3,-3,-2
1532066137395,4,10,-2,18,-8,1,-7,-1
1532066137400,5,-1,-2,-18,-2,-3,8,5
1532066137405,0,-2,0,2,0,0,-1,0
1532066137410,1,-3,-2,4,-1,-1,-1,-5
1532066137415,-1,5,1,-17,3,2,12,-3
1532066137420,24,3,3,18,-3,-4,-20,-1
1532066137425,-19,-6,-4,8,0,-5,-4,-2
1532066137430,-4,-7,-2,10,-2,-1,1,-1
1532066137435,2,5,-1,-24,3,1,3,-2
1532066137440,-21,-7,1,22,0,0,3,-2
1532066137445,20,0,-4,-30,-3,1,-2,1
1532066137450,-11,-5,-3,19,-7,-4,-5,-2
1532066137455,-4,0,-2,-17,0,-2,-2,0
1532066137460,3,1,2,-9,0,0,2,-1
1532066137465,-7,0,1,9,3,0,-1,-2
1532066137470,-2,-4,-2,6,1,1,1,-1
1532066137475,9,2,-3,-9,-1,0,1,2
1532066137480,-4,-5,2,7,1,-1,1,-5
1532066137485,-4,2,-3,0,0,2,1,-2
1532066137490,-4,-6,-3,8,-3,0,-2,1
1532066137495,1,1,1,11,0,-3,-3,-2
1532066137500,3,0,-1,-31,-2,-1,1,1
1532066137505,-2,-2,2,6,-2,-4,2,-1
1532066137510,2,1,1,-3,2,2,-3,-1
1532066137515,2,3,-1,-9,3,4,2,0
1532066137520,4,1,0,13,-1,0,2,0
1532066137525,-17,-8,-3,15,-7,-3,-8,-1
1532066137530,9,1,-2,-7,2,-1,4,6
1532066137535,-4,0,0,1,-2,-2,-2,-4
1532066137540,-3,-3,-3,-9,0,-1,1,-2
1532066137545,-3,3,4,2,3,1,1,-2
1532066137550,-2,-5,-7,-33,-1,0,-1,-1
1532066137555,-4,-7,-11,-48,-7,-6,-8,-2
1532066137560,-4,-2,2,12,0,-2,0,-1
1532066137565,3,-2,-8,-11,0,3,3,1
1532066137570,-5,-2,0,0,-5,-2,-2,0
1532066137575,3,2,-1,-3,3,4,3,1
1532066137580,-5,-7,-8,-3,-6,-2,-6,-3
1532066137585,-1,4,3,0,1,0,0,-2
1532066137590,-1,-3,-2,1,-1,-4,-3,0
1532066137595,-1,-1,-1,-5,-4,-3,-2,-2
1532066137600,0,1,0,1,0,1,2,0
1532066137605,1,-1,-3,-13,2,1,0,1
1532066137610,0,-2,-4,0,1,0,0,-1
1532066137615,-1,-1,-2,-42,-3,-1,-2,0
1532066137620,-3,0,-2,9,1,-1,-1,-1
1532066137625,0,0,-2,28,-1,-4,-4,-1
1532066137630,0,-1,1,-20,-2,0,2,0
1532066137635,-1,0,-1,7,0,1,1,0
1532066137640,0,-1,-1,4,1,-1,-1,0
1532066137645,0,-2,2,-8,-4,-2,0,-1
1532066137650,-1,0,2,-3,-2,-3,0,-3
1532066137655,-1,-1,1,22,5,3,0,0
1532066137660,-1,-3,-1,-2,-1,-2,-1,1
1532066137665,0,0,6,12,3,1,0,0
1532066137670,2,-1,0,-7,3,0,-1,0
1532066137675,0,-2,-1,9,-3,0,0,0
1532066137680,-2,-2,-4,0,-6,-3,-1,-2
1532066137685,0,-2,0,-14,-2,-2,-2,-1
1532066137690,-1,0,1,9,-3,-1,-3,0
1532066137695,-1,-1,1,16,-1,-4,-3,-4
1532066137700,0,0,-2,-24,1,7,5,1
1532066137705,0,0,-1,5,-1,-4,0,-3
1532066137710,-2,-1,-4,0,-1,-1,-2,0
1532066137715,-1,-2,0,-5,1,-2,0,-1
1532066137720,-3,1,0,21,-3,-3,-4,-2
1532066137725,-1,-2,-6,1,-3,-2,-1,-2
1532066137730,-2,-3,0,-4,-3,-3,-2,-1
1532066137735,1,-1,-1,1,0,-2,-1,2
1532066137740,-1,-2,0,-2,2,0,-1,-4
1532066137745,-1,0,1,6,-1,2,1,3
1532066137750,-2,-1,-2,2,-2,-2,-2,-2
1532066137755,0,0,0,-15,0,2,1,-1
1532066137760,0,0,0,6,0,0,0,0
1532066137765,1,-1,-3,5,-3,-1,-2,-1
1532066137770,-1,0,-1,-6,2,0,0,-3
1532066137775,-5,-2,-3,0,-4,-1,-5,0
1532066137780,1,2,2,2,3,0,0,0
1532066137785,-1,0,-3,-3,-1,2,2,0
1532066137790,-2,-1,0,-4,-2,-1,-2,2
1532066137795,1,0,2,7,0,1,1,-2
1532066137800,1,1,2,1,1,-3,-2,-2
1532066137805,-2,-2,0,9,-2,-3,-1,1
1532066137810,-4,-1,-3,-2,0,0,2,-1
1532066137815,13,4,0,-2,1,1,0,0
1532066137820,-4,-3,-5,-20,-4,-2,-2,-3
1532066137825,1,1,1,3,0,-1,1,-2
1532066137830,-2,-2,-1,-2,-1,0,-5,0
1532066137835,8,3,1,-5,-1,0,2,-1
1532066137840,-27,-12,-2,8,1,-2,-1,-3
1532066137845,1,1,-1,4,-3,-3,-3,-2
1532066137850,-4,-3,-1,-2,-3,0,0,-1
1532066137855,-1,-1,5,6,1,0,3,0
1532066137860,6,3,1,27,0,2,0,1
1532066137865,-5,-2,-5,-13,-3,-3,-2,-1
1532066137870,6,1,7,16,1,-2,-2,1
1532066137875,-2,-2,-5,-60,-5,0,-2,-2
1532066137880,4,1,1,16,1,0,1,0
1532066137885,-5,1,-4,-9,0,1,0,-1
1532066137890,3,0,2,15,-2,0,-1,-1
1532066137895,1,1,-1,-22,1,0,-4,0
1532066137900,-1,-2,-2,-7,-2,-1,-1,0
1532066137905,-5,-3,1,2,-1,-2,-3,-3
1532066137910,4,0,-2,-30,1,3,4,-1
1532066137915,16,2,-1,23,-2,0,-1,2
1532066137920,-1,-2,0,11,2,0,2,1
1532066137925,-2,0,-1,3,0,-4,-3,0
1532066137930,0,0,-3,-10,-2,-4,-2,-1
1532066137935,2,1,3,-3,0,-2,0,-1
1532066137940,0,0,-2,-5,1,0,-1,-1
1532066137945,-5,-3,-5,-9,-3,2,0,1
1532066137950,7,2,4,6,0,-4,-1,0
1532066137955,-10,-5,-1,5,-1,-2,-2,0
1532066137960,0,-2,-4,-7,-3,-2,-1,-2
1532066137965,-5,-3,0,2,0,-2,-2,-1
1532066137970,-1,0,-2,-19,0,0,2,-2
1532066137975,-4,-1,2,10,2,1,0,-1
1532066137980,-4,0,-2,0,-3,2,-1,-2
1532066137985,1,0,4,14,-2,-4,-5,-1
1532066137990,-1,-2,-9,-4,-3,2,-1,1
1532066137995,-5,-2,2,9,5,4,3,0
1532066138000,2,1,0,-6,-2,-3,-1,-1
1532066138005,-1,-1,1,-2,-3,-1,1,-3
1532066138010,-5,-2,-1,-2,-1,0,-1,0
1532066138015,12,2,-1,11,0,-1,0,-2
1532066138020,-4,-1,-1,-9,-5,-2,-5,-2
1532066138025,-1,-1,-1,-2,-2,-5,-2,-1
1532066138030,-1,-1,2,10,-2,2,-1,-2
1532066138035,-5,-2,-1,1,0,1,0,1
1532066138040,0,1,1,-1,1,2,2,1
1532066138045,-1,-2,0,2,-1,-1,0,-1
1532066138050,1,1,0,-1,0,-1,0,-1
1532066138055,-3,-1,-3,-22,-1,-1,2,-4
1532066138060,-1,-2,3,11,-3,-2,-7,0
1532066138065,-2,-4,-7,-10,-3,3,-3,-3
1532066138070,1,1,-1,-3,3,1,2,-1
1532066138075,-3,1,-1,-1,-3,-1,0,-1
1532066138080,-2,-1,-2,-1,1,-1,2,-3
1532066138085,0,3,-1,-19,1,3,4,-1
1532066138090,0,0,-1,7,0,0,-4,-1
1532066138095,-2,0,0,-3,-2,-3,-3,-1
1532066138100,-2,-1,0,8,0,-1,2,-2
1532066138105,0,-1,2,6,0,-1,0,0
1532066138110,0,-1,-2,-6,-1,-2,0,0
1532066138115,-4,-1,0,-4,0,1,2,2
1532066138120,0,1,-2,-19,-6,-4,-3,-1
1532066138125,0,0,0,12,2,3,-3,-1
1532066138130,-1,0,0,0,-1,-2,-1,1
1532066138135,-2,-2,-2,-2,-1,-2,0,-1
1532066138140,2,0,0,-3,2,2,1,-2
1532066138145,-5,0,0,9,0,-3,0,0
1532066138150,7,-1,-4,0,-10,-6,-7,-2
1532066138155,-3,-3,-4,3,-2,0,2,-3
1532066138160,0,1,-1,-24,-1,-1,0,-2
1532066138165,-2,-2,6,16,-4,-3,-1,1
1532066138170,-3,-2,-2,8,2,1,0,0
1532066138175,-2,-1,-1,2,0,-4,-5,-1
1532066138180,-1,-1,-4,-25,-3,0,0,0
1532066138185,1,1,-3,-3,0,0,3,0
1532066138190,-1,-1,3,-3,-1,-3,-1,-2
1532066138195,-2,0,2,2,-2,-1,-4,0
1532066138200,-1,-1,-2,9,1,-1,-2,-2
1532066138205,0,0,0,-1,-3,-3,-2,1
1532066138210,0,-2,-1,2,-1,-1,1,0
1532066138215,0,0,-1,-1,1,2,-2,0
1532066138220,0,0,5,11,2,2,1,1
1532066138225,2,-1,-2,-7,1,0,1,0
1532066138230,-2,0,-1,2,-1,0,-2,2
1532066138235,-1,-1,2,-3,-2,-1,-1,-2
1532066138240,0,-2,-4,7,1,-2,-1,-1
1532066138245,0,0,-2,-21,-4,-5,-5,-3
1532066138250,-5,-1,-1,6,0,5,3,3
1532066138255,0,-3,-4,-22,-1,0,3,1
1532066138260,-2,-2,3,23,2,-1,-4,-1
1532066138265,2,1,-5,-9,0,-1,0,0
1532066138270,-3,-3,3,-2,-2,-4,-4,-3
1532066138275,0,0,-2,-10,0,-2,0,-1
1532066138280,0,0,-1,1,-3,1,0,-1
1532066138285,-2,-3,-2,14,-2,0,-3,0
1532066138290,-2,-3,1,-10,-1,-1,-1,-2
1532066138295,-2,-3,-1,6,-5,-1,-1,-1
1532066138300,-1,1,1,-3,-1,-4,-1,-1
1532066138305,-3,-3,-7,4,-2,1,0,-1
1532066138310,-2,2,20,-5,-1,0,1,0
1532066138315,3,1,0,13,0,0,-1,0
1532066138320,0,1,-1,-6,1,-2,0,-1
1532066138325,-1,0,1,12,2,2,-1,1
1532066138330,-4,-2,-6,-5,-1,-1,0,-2
1532066138335,-2,0,0,13,1,-1,-1,-2
1532066138340,-2,-3,-5,-23,-3,0,-3,1
1532066138345,0,0,0,-6,1,-2,0,-1
1532066138350,3,0,-4,1,0,-1,-2,-1
1532066138355,1,1,-2,-2,0,0,-1,-2
1532066138360,2,0,0,8,2,0,0,-2
1532066138365,-3,-3,0,-16,-1,-4,-5,0
1532066138370,0,-1,-4,5,-1,0,-1,3
1532066138375,0,-1,-4,-6,-1,-1,-1,-2
1532066138380,0,0,-2,0,0,1,3,0
1532066138385,0,0,2,11,2,1,2,-1
1532066138390,2,2,1,-3,1,1,-1,-2
1532066138395,-6,-3,-5,0,-4,-2,-5,-1
1532066138400,-1,0,8,0,-1,-3,-3,-2
1532066138405,-1,0,2,3,-2,2,1,1
1532066138410,0,0,0,-9,1,0,1,-1
1532066138415,0,2,5,16,3,2,1,-2
1532066138420,-1,-2,0,7,0,-2,-1,1
1532066138425,0,-2,-10,0,-2,-1,-3,-3
1532066138430,-4,-1,4,2,0,1,-2,-3
1532066138435,12,0,-11,-23,-7,-4,-2,1
1532066138440,-14,-6,-19,0,-1,-1,-2,0
1532066138445,1,-1,5,9,1,-1,0,0
1532066138450,-2,-1,-1,20,-4,-3,2,-2
1532066138455,8,-3,-7,-12,-1,-2,3,2
1532066138460,-22,-7,-9,-7,-3,-1,-4,-4
1532066138465,0,4,9,-3,2,0,0,-1
1532066138470,-4,-4,-16,-19,-4,-1,0,-3
1532066138475,-1,1,7,10,1,0,2,0
1532066138480,21,6,20,-4,1,-1,-1,2
1532066138485,-18,-8,17,-3,-4,-1,0,-4
1532066138490,11,-3,-39,-1,1,-1,-4,0
1532066138495,-26,-8,5,-4,1,1,-1,-1
1532066138500,13,0,8,-19,-2,-1,-2,0
1532066138505,5,14,27,21,5,3,3,-2
1532066138510,-6,-14,-45,-14,1,-4,0,-3
1532066138515,1,2,3,-4,-12,-4,-4,5
1532066138520,11,-7,-40,-4,0,0,1,-1
1532066138525,-31,-33,-25,-23,-9,-6,-8,-14
1532066138530,10,14,24,-6,1,2,0,0
1532066138535,3,-2,-34,7,-1,-2,1,-1
1532066138540,49,12,-12,8,2,3,7,9
1532066138545,-23,18,68,15,6,3,-1,-2
1532066138550,-11,-23,-35,-26,-5,-3,-6,-8
1532066138555,16,3,-68,-9,2,3,8,1
1532066138560,4,41,48,20,0,0,-3,4
1532066138565,15,35,1,-9,3,1,5,3
1532066138570,64,16,76,24,0,2,8,12
1532066138575,-86,-39,30,23,12,6,-7,-15
1532066138580,17,-10,-17,-11,0,-1,-11,-8
1532066138585,77,24,-12,1,-3,0,27,18
1532066138590,-98,24,-12,0,3,0,-18,-23
1532066138595,97,52,1,-11,-8,-4,3,9
1532066138600,-64,-23,80,8,1,0,0,11
1532066138605,79,-67,-66,-8,2,-2,-11,-8
1532066138610,-12,-54,15,-8,-9,-10,-3,-13
1532066138615,-27,-8,17,4,4,4,-6,-4
1532066138620,-28,20,-56,-15,-5,-2,7,-9
1532066138625,52,9,-18,-16,-7,0,24,8
1532066138630,-4,-6,7,-3,0,1,-7,35
1532066138635,-52,-17,-48,-10,-5,-6,-22,-32
1532066138640,-59,10,-22,0,0,5,31,4
1532066138645,9,57,13,1,-2,-9,-44,-7
1532066138650,-82,-88,-37,-1,-2,4,53,-7
1532066138655,25,82,30,-5,2,-3,-22,17
1532066138660,33,-69,-8,1,0,-1,1,1
1532066138665,-7,-46,-25,-4,-4,-2,6,-12
1532066138670,24,83,-24,-3,-3,-3,-10,-6
1532066138675,39,9,23,-4,-4,0,11,9
1532066138680,-53,-64,-5,6,-1,-4,-6,-4
1532066138685,-84,4,6,6,4,5,-4,7
1532066138690,79,23,12,10,2,0,-15,3
1532066138695,-14,-1,1,-5,-1,0,9,1
1532066138700,26,33,1,-1,-5,-3,-6,4
1532066138705,-38,-3,7,6,1,1,12,7
1532066138710,-15,9,-22,-3,2,1,-6,-12
1532066138715,25,7,30,5,2,-2,4,-2
1532066138720,40,7,12,7,0,0,-6,-3
1532066138725,-80,-28,4,-3,-2,-1,-3,-4
1532066138730,33,19,6,1,0,0,5,7
1532066138735,-8,-18,12,0,-1,-4,-6,-10
1532066138740,18,-1,9,-2,0,-3,-17,-11
1532066138745,9,2,-37,-2,-1,0,4,8
1532066138750,-12,2,-4,-9,-5,-4,1,-2
1532066138755,-12,-28,0,-1,-1,3,5,10
1532066138760,-11,26,-2,0,-3,-4,-6,-18
1532066138765,4,-3,-31,-7,-4,-3,-6,-6
1532066138770,-4,-2,28,7,7,3,-5,-4
1532066138775,-44,-22,1,2,-1,0,4,-1
1532066138780,65,26,-8,-6,-2,0,3,3
1532066138785,8,-2,17,0,1,-1,-4,-1
1532066138790,7,6,14,5,2,2,-1,0
1532066138795,-2,-2,4,-1,-2,-3,3,-1
1532066138800,33,11,-3,4,2,0,0,3
1532066138805,-16,-1,10,1,-1,1,-4,-6
1532066138810,8,1,7,-2,1,-1,-1,7
1532066138815,-6,-1,0,3,-1,0,-3,-6
1532066138820,-26,-5,-2,-2,-3,-2,1,-1
1532066138825,-22,-8,9,-3,-2,-2,-6,-5
1532066138830,-13,0,1,0,1,4,2,-2
1532066138835,12,-1,-1,0,1,-2,1,2
1532066138840,0,-15,2,2,1,0,-2,5
1532066138845,-41,7,2,-1,0,0,-2,-8
1532066138850,0,-11,0,-4,-4,-5,-5,2
1532066138855,13,-3,-2,-7,1,1,3,-3
1532066138860,-9,-2,-1,4,0,-1,1,1
1532066138865,1,14,10,6,-2,-2,-5,-3
1532066138870,10,2,5,-2,-1,-1,8,1
1532066138875,14,5,-1,-11,0,1,4,-1
1532066138880,-85,-23,-6,15,-2,-1,-3,-4
1532066138885,41,10,6,3,-6,-1,-5,4
1532066138890,-60,-14,-1,-1,-3,-2,-9,-1
1532066138895,-42,0,5,2,-1,-2,-2,-1
1532066138900,7,17,-3,-9,1,2,3,-4
1532066138905,24,3,1,-8,1,-2,4,4
1532066138910,19,-3,-1,4,1,-1,-2,-1
1532066138915,-3,-6,-1,-14,-3,-1,1,2
1532066138920,-11,-2,-1,8,-5,-2,-3,-2
1532066138925,29,5,7,19,3,-1,-1,3
1532066138930,-31,-4,-1,-8,-4,0,-1,1
1532066138935,55,-25,-7,-6,0,0,5,10
1532066138940,-25,17,6,0,2,0,-12,-10
1532066138945,-41,-10,-8,-17,-3,-2,-5,-7
1532066138950,48,-1,2,13,0,0,24,16
1532066138955,6,-2,-2,16,-3,-1,-19,-20
1532066138960,-16,-6,-2,7,6,1,2,-1
1532066138965,29,7,-2,-24,1,3,0,4
1532066138970,0,1,-2,2,-7,-3,-5,-9
1532066138975,-75,-9,2,-5,-1,-2,2,-3
1532066138980,64,5,3,12,0,-2,-3,9
1532066138985,-44,-3,-4,4,-2,0,-4,-7
1532066138990,23,14,6,1,0,-1,-5,0
1532066138995,21,-2,2,7,-5,-1,4,8
1532066139000,-14,-10,-10,-20,-3,0,0,-1
1532066139005,-18,-6,3,-1,2,2,4,-5
1532066139010,53,4,-6,0,1,0,-8,-3
1532066139015,17,14,7,13,0,-1,-7,6
1532066139020,-24,-5,9,-1,0,2,17,-1
1532066139025,-42,-2,-15,-18,-12,-7,-19,-4
1532066139030,-4,-7,0,-4,0,-1,6,-1
1532066139035,67,22,10,-3,0,0,-23,-6
1532066139040,-13,-2,1,10,3,2,14,3
1532066139045,6,-2,3,3,5,2,12,-2
1532066139050,37,0,1,0,-1,-3,9,-11
1532066139055,-16,-2,-22,-4,1,1,6,-1
1532066139060,49,3,6,-10,-4,-3,-18,-5
1532066139065,-1,15,3,20,2,2,5,14
1532066139070,-76,-37,-13,-9,0,-2,-19,-4
1532066139075,-16,-2,8,30,4,1,14,4
1532066139080,-52,-15,-10,-40,-8,-4,-10,-10
1532066139085,57,-1,-8,4,3,1,13,6
1532066139090,-88,-10,14,2,-2,1,-13,-18
1532066139095,17,14,-4,-9,0,0,-3,-2
1532066139100,98,8,5,3,-4,-3,-5,17
1532066139105,0,0,-3,7,6,3,6,-11
1532066139110,-28,6,4,-3,-2,0,9,3
1532066139115,51,-5,-9,-2,-1,-2,-6,-1
1532066139120,-18,10,-1,-6,-2,-1,4,-5
1532066139125,20,-5,6,2,-2,0,-4,9
1532066139130,38,0,-8,-4,-1,0,-1,2
1532066139135,-17,7,4,-5,1,0,-5,-3
1532066139140,5,-4,5,14,0,1,3,10
1532066139145,-56,-13,2,-8,-6,-4,-4,-15
1532066139150,17,14,-3,4,2,0,-10,-1
1532066139155,17,-6,6,2,-4,-2,0,-6
1532066139160,-29,3,-2,-5,-5,-1,3,-6
1532066139165,59,8,3,6,0,0,-4,7
1532066139170,-29,-1,-4,-10,-5,-2,3,0
1532066139175,31,8,19,24,5,0,1,6
1532066139180,-45,-15,-42,-43,-9,-4,-7,-10
1532066139185,14,-18,2,-7,-4,-4,-1,-4
1532066139190,43,17,-1,5,3,0,-3,-4
1532066139195,6,-9,-4,-9,-3,-1,3,3
1532066139200,-12,-2,9,18,7,-1,-2,-5
1532066139205,43,8,-1,-1,-3,-1,0,8
1532066139210,-58,-34,-5,-11,-2,-2,-4,-3
1532066139215,-68,-6,-3,-3,-4,-2,1,-8
1532066139220,59,1,-3,4,4,1,-9,8
1532066139225,23,4,0,-11,0,0,0,4
1532066139230,54,7,4,-6,-1,-1,-1,6
1532066139235,-68,3,-3,5,-2,-1,1,-12
1532066139240,-7,-28,-6,-26,-6,-6,5,1
1532066139245,17,2,11,23,6,0,-12,0
1532066139250,24,1,-18,-28,-6,0,1,10
1532066139255,22,8,7,4,12,3,1,4
1532066139260,9,3,-12,-29,-9,-2,0,-7
1532066139265,6,-10,7,16,-4,-3,-2,-9
1532066139270,25,13,4,44,11,2,6,8
1532066139275,72,15,6,-6,6,1,3,10
1532066139280,12,6,-7,-24,-9,-2,4,-3
1532066139285,5,5,13,21,9,1,-12,3
1532066139290,-20,-6,-18,44,-9,-4,-6,-4
1532066139295,-3,-7,0,-20,-2,0,5,9
1532066139300,66,9,13,-4,1,0,-3,9
1532066139305,-37,6,-19,-29,-2,-1,12,12
1532066139310,-33,12,13,49,8,-1,-13,-28
1532066139315,-89,-22,-34,-59,-11,-7,-7,-15
1532066139320,19,-15,-2,-4,-12,-3,-5,4
1532066139325,-19,-2,5,8,2,1,-2,-7
1532066139330,25,-5,-6,-40,-6,-2,4,17
1532066139335,11,22,-2,11,1,-1,5,-5
1532066139340,-30,9,7,2,5,-2,-9,-10
1532066139345,29,-10,-6,-11,-1,-4,9,-3
1532066139350,-48,-12,10,23,6,2,-4,-6
1532066139355,37,-17,-7,-1,-7,-2,-2,6
1532066139360,-29,13,-2,18,5,2,2,-5
1532066139365,-76,-6,0,18,-2,-2,-1,-10
1532066139370,-3,0,-1,-35,-6,-2,1,-2
1532066139375,-22,-16,6,21,-1,-2,2,2
1532066139380,-84,-2,-20,-4,1,-2,-5,-10
1532066139385,24,-2,4,-7,1,3,-6,5
1532066139390,40,8,4,-15,-5,-2,6,11
1532066139395,58,20,12,29,7,5,-2,6
1532066139400,-7,-28,11,66,10,4,6,4
1532066139405,30,-8,-41,-91,-28,-8,-7,-5
1532066139410,9,13,10,33,6,4,0,4
1532066139415,-13,-14,4,19,-2,-1,3,5
1532066139420,-39,0,9,30,9,2,0,-4
1532066139425,4,12,2,11,8,0,-6,-3
1532066139430,-19,-7,-9,-36,-4,-3,0,-7
1532066139435,7,-4,-3,-7,-6,-4,16,7
1532066139440,31,7,5,-7,0,-2,-26,-17
1532066139445,2,-4,-3,14,1,0,0,0
1532066139450,0,5,2,-15,4,0,1,-5
1532066139455,-24,-10,3,17,2,0,-4,-5
1532066139460,23,-13,-8,-10,-7,-4,-2,-2
1532066139465,-16,3,8,15,2,0,0,-1
1532066139470,9,-4,3,17,-4,-1,-6,0
1532066139475,22,-2,-4,-4,-1,-2,-4,-1
1532066139480,31,2,-2,-13,-1,1,5,9
1532066139485,-46,-5,3,4,-1,0,-4,-7
1532066139490,61,6,1,-4,1,0,4,6
1532066139495,-52,-18,-9,-14,-3,0,-6,-9
1532066139500,30,10,2,-1,-5,-1,4,9
1532066139505,-10,1,4,4,-1,-2,-1,-5
1532066139510,20,5,-2,-8,-2,-1,-1,4
1532066139515,-35,-10,0,11,-2,-1,-6,-3
1532066139520,-28,1,8,0,2,1,2,-4
1532066139525,4,5,-4,2,0,0,4,2
1532066139530,4,2,-1,2,-1,-2,-3,-5
1532066139535,-8,0,-5,-16,-1,-2,-5,-7
1532066139540,-4,-4,-5,7,2,2,6,6
1532066139545,-40,1,10,-1,-2,0,0,-4
1532066139550,-46,-10,1,5,3,0,-3,-7
1532066139555,20,-3,-29,-57,-11,-7,-6,-1
1532066139560,3,8,0,-9,-3,0,3,1
1532066139565,14,3,4,1,2,1,1,4
1532066139570,22,3,5,12,-3,-1,0,2
1532066139575,49,-13,2,5,3,-4,-5,5
1532066139580,50,12,-1,-40,-4,-2,-5,-4
1532066139585,-19,-16,-8,14,0,-1,4,3
1532066139590,41,3,-2,-11,0,-1,-2,1
1532066139595,44,-8,-2,19,-3,-3,-5,-5
1532066139600,20,20,8,17,2,2,3,4
1532066139605,16,-4,-3,-3,-1,-1,1,4
1532066139610,-21,13,-2,-10,0,-1,0,-2
1532066139615,-63,4,10,12,0,2,1,-1
1532066139620,89,-16,0,2,2,0,1,19
1532066139625,2,24,-4,-4,-1,-2,-3,-16
1532066139630,-16,-11,0,5,0,0,0,2
1532066139635,-28,6,-2,-10,-4,-1,-1,-5
1532066139640,-13,3,4,11,2,1,2,-2
1532066139645,-2,-8,6,9,-2,1,1,7
1532066139650,-4,-2,-3,-5,-2,-2,-1,-6
1532066139655,10,-3,-5,-30,3,3,2,-4
1532066139660,-22,-24,-5,-14,-10,-5,-10,-13
1532066139665,-4,-5,-8,4,0,-3,0,-3
1532066139670,-73,-4,8,7,1,1,0,-7
1532066139675,11,-5,-1,2,-2,-1,-1,3
1532066139680,-6,-12,0,4,2,-1,-3,-6
1532066139685,60,-7,-2,1,-1,0,-1,11
1532066139690,-98,-21,-9,-5,-5,-4,-3,-19
1532066139695,42,3,-5,-8,3,1,-1,0
1532066139700,-60,-35,-5,-15,-8,-3,-2,-12
1532066139705,37,19,8,24,3,3,0,3
1532066139710,-22,-1,-2,-7,-3,1,1,2
1532066139715,2,-1,7,2,1,-1,-3,3
1532066139720,-45,7,7,12,-1,2,2,-4
1532066139725,5,-18,-4,29,6,1,-1,2
1532066139730,22,2,5,-24,3,0,-1,5
1532066139735,2,4,-13,-34,-15,-6,-1,-17
1532066139740,24,2,0,11,4,1,9,0
1532066139745,29,16,9,-2,0,1,-11,5
1532066139750,-31,13,6,10,4,1,19,3
1532066139755,54,9,-7,14,4,0,-23,-5
1532066139760,31,-5,-3,-10,-5,-2,1,7
1532066139765,-57,-1,1,9,1,0,0,-6
1532066139770,91,27,13,4,6,3,7,4
1532066139775,58,-4,-15,-21,-3,2,13,28
1532066139780,-80,24,-2,10,7,1,-3,-9
1532066139785,-12,-4,-18,-22,-9,-3,1,-7
1532066139790,-12,0,11,1,-1,-2,-5,-5
1532066139795,-3,-6,-1,13,3,1,6,9
1532066139800,59,-7,-22,-82,-14,-5,-9,4
1532066139805,-42,-1,8,3,-5,-1,10,-1
1532066139810,-53,-3,5,15,6,1,-6,-5
1532066139815,39,3,12,24,3,-2,1,1
1532066139820,-101,3,11,6,2,1,1,-9
1532066139825,21,-13,-10,3,3,-2,-25,-7
1532066139830,-60,-30,-31,-9,-12,-3,8,-5
1532066139835,-11,-5,5,-44,-5,-2,3,-6
1532066139840,25,2,-9,-9,-6,0,-26,6
1532066139845,-37,17,27,23,4,1,16,4
1532066139850,37,-16,-11,15,11,3,-4,-6
1532066139855,-5,-8,0,1,7,1,2,-5
1532066139860,-49,-10,11,17,-6,-4,10,-3
1532066139865,48,3,-8,7,0,-1,-3,13
1532066139870,-48,9,7,-29,-8,-5,-8,0
1532066139875,42,15,16,-11,9,4,8,7
1532066139880,45,4,-33,-49,-13,-5,2,1
1532066139885,-18,4,-7,-10,0,0,5,-10
1532066139890,-43,-3,5,-11,-7,-3,-31,2
1532066139895,-23,-2,-6,9,0,-1,1,-6
1532066139900,3,4,16,29,3,-1,-7,1
1532066139905,64,4,7,3,0,-3,2,17
1532066139910,36,11,-7,-13,3,3,0,-1
1532066139915,-76,-4,7,33,-8,-5,-4,-3
1532066139920,42,0,-5,29,9,4,7,9
1532066139925,-14,2,4,-39,5,3,4,-9
1532066139930,22,-1,-10,3,-6,-4,-2,0
1532066139935,88,27,0,-45,-11,-3,-2,2
1532066139940,9,-9,4,26,4,-1,4,-1
1532066139945,-66,-8,4,11,1,-2,-7,-5
1532066139950,42,7,4,8,8,4,14,8
1532066139955,-29,-13,-25,-27,-1,-5,-5,-10
1532066139960,18,7,17,11,2,0,4,-3
1532066139965,-20,-8,6,-20,-9,-5,-8,-2
1532066139970,5,2,4,55,-2,-1,-3,3
1532066139975,-31,-7,2,-14,3,2,6,-3
1532066139980,67,16,12,37,17,6,7,3
1532066139985,-25,-18,-25,-29,-26,-4,-10,-1
1532066139990,-37,-16,-8,15,-5,-5,-4,-4
1532066139995,-16,0,10,-3,-3,1,-5,-2
1532066140000,87,21,-3,-5,3,1,4,1
1532066140005,58,7,11,33,14,4,6,1
1532066140010,34,11,-16,-91,-12,-1,5,3
1532066140015,-66,-22,-5,20,-3,-1,-4,-6
1532066140020,1,1,5,-6,-1,-1,-3,-1
1532066140025,28,4,-6,-5,2,-1,4,-2
1532066140030,14,0,13,15,-5,-5,-8,0
1532066140035,-8,3,19,17,4,-1,-3,0
1532066140040,6,-2,2,12,3,1,1,1
1532066140045,-10,-10,-20,-30,-5,-3,1,-3
1532066140050,-16,-6,8,18,1,1,1,1
1532066140055,51,-3,-9,15,-2,-1,1,6
1532066140060,-7,-8,-5,-9,-6,-2,-6,5
1532066140065,-32,10,5,5,5,1,3,-13
1532066140070,-6,0,-6,0,2,-2,3,-8
1532066140075,27,-5,0,10,-4,-2,-2,7
1532066140080,-45,-9,-3,-15,-3,-1,-3,-7
1532066140085,6,-2,-6,14,2,3,4,4
1532066140090,24,2,-5,6,2,1,5,0
1532066140095,-22,-5,4,14,-2,-2,-6,-3
1532066140100,2,-7,-8,-10,-4,0,0,0
1532066140105,-18,-1,-2,-6,-5,-2,-3,-5
1532066140110,-16,-5,4,17,2,-2,-2,-3
1532066140115,-20,4,-9,-9,1,2,1,-4
1532066140120,64,-2,-3,-11,-3,-1,-2,10
1532066140125,-30,-3,4,2,-5,-6,-8,-4
1532066140130,-9,2,1,2,4,-2,2,-9
1532066140135,-5,7,12,6,2,0,-1,-1
1532066140140,-8,-3,-4,-6,-4,-2,-4,-7
1532066140145,14,-1,3,7,-1,-1,-3,1
1532066140150,-19,0,7,2,-1,-2,2,2
1532066140155,-21,-8,-10,-11,-4,-1,-5,-6
1532066140160,-65,-8,3,7,-6,-1,-1,-5
1532066140165,12,2,4,0,-1,-3,-2,-2
1532066140170,5,3,-1,-5,-2,-2,0,0
1532066140175,6,-5,-11,1,-3,1,3,0
1532066140180,14,-1,2,-2,2,-2,-4,-1
1532066140185,11,-1,-10,1,1,2,2,1
1532066140190,14,-1,-1,7,2,2,3,0
1532066140195,-15,1,9,10,1,-2,0,-2
1532066140200,-9,-13,-10,-14,-5,-5,-7,2
1532066140205,8,8,5,5,0,1,2,-4
1532066140210,0,-4,-7,2,1,1,2,-2
1532066140215,-49,-9,-7,-2,-5,-3,-4,-7
1532066140220,-3,6,13,13,2,-1,-1,-4
1532066140225,14,1,9,2,1,2,3,3
1532066140230,2,-2,2,-2,1,-4,-7,-4
1532066140235,-3,0,-2,-4,-3,-2,4,0
1532066140240,59,15,6,1,-2,-2,1,10
1532066140245,-37,-12,-7,-3,-2,0,-8,-11
1532066140250,13,-2,-1,-4,-6,-4,-1,5
1532066140255,1,1,4,4,1,-4,-12,-10
1532066140260,-2,-2,-14,-10,-15,-2,9,-1
1532066140265,10,0,2,5,23,3,4,3
1532066140270,3,-1,3,-1,-2,4,-4,3
1532066140275,8,7,-15,-4,9,-1,3,3
1532066140280,-16,-21,-2,-6,-13,-7,-10,-6
1532066140285,7,-7,-19,3,-3,1,7,3
1532066140290,7,8,6,3,2,4,8,-1
1532066140295,11,-7,-21,-8,-11,-2,6,22
1532066140300,-25,-11,-5,-8,-2,-13,-10,-21
1532066140305,-2,1,1,6,5,-4,-10,-8
1532066140310,0,0,4,-15,-31,-1,-5,-1
1532066140315,14,5,-2,2,-1,3,4,0
1532066140320,0,12,14,6,4,-1,-2,10
1532066140325,1,-4,-10,-6,-15,6,21,10
1532066140330,1,4,3,7,27,-3,-10,-5
1532066140335,2,4,11,-2,6,7,-1,-11
1532066140340,-6,-5,-14,-1,8,2,5,-3
1532066140345,6,7,8,2,5,-1,-1,1
1532066140350,5,4,2,2,-9,-4,3,-1
1532066140355,-5,-8,9,5,3,-6,-3,3
1532066140360,-5,-6,-9,-3,17,-2,-11,-11
1532066140365,11,15,20,21,40,-1,1,-1
1532066140370,-3,0,-1,-1,4,0,0,-3
1532066140375,2,0,9,-5,-20,-9,-7,-5
1532066140380,-5,-4,-23,-16,-8,10,3,4
1532066140385,0,8,18,-5,-37,2,-12,7
1532066140390,-1,-13,-21,9,28,3,7,0
1532066140395,0,-3,3,1,6,-3,-2,-5
1532066140400,8,12,18,14,13,-1,4,-1
1532066140405,0,-5,-6,-3,8,0,4,-2
1532066140410,-1,-3,-14,-6,-10,-4,-4,0
1532066140415,3,8,-1,3,2,0,3,1
1532066140420,4,0,1,-5,-15,2,8,11
1532066140425,-9,-14,6,3,18,-8,-10,-12
1532066140430,2,11,6,22,41,-3,-8,-17
1532066140435,-6,-6,-11,-48,-95,-20,-8,-4
1532066140440,-12,-3,-22,-50,2,5,-4,6
1532066140445,1,5,-5,-7,3,18,2,9
1532066140450,-1,-7,1,0,10,2,4,11
1532066140455,4,2,13,22,36,-3,-5,1
1532066140460,4,3,1,4,-21,-7,6,-1
1532066140465,0,-4,-10,-9,-17,-8,3,-2
1532066140470,-7,-16,-12,-7,-14,-4,-2,-6
1532066140475,-1,-5,-8,6,15,4,4,3
1532066140480,3,8,18,16,-2,0,-3,-2
1532066140485,-3,-6,-5,-1,2,-2,-2,-3
1532066140490,-1,3,3,-6,-10,-3,-1,0
1532066140495,-4,-3,-2,-3,-1,5,1,0
1532066140500,1,-4,2,7,11,1,0,-2
1532066140505,-2,-2,0,-4,-7,-7,-5,-3
1532066140510,-8,-6,3,-6,-18,-3,0,0
1532066140515,1,-3,-4,5,12,5,-3,-2
1532066140520,-1,-2,1,9,7,-1,-1,-3
1532066140525,5,7,1,-5,-6,-4,2,0
1532066140530,2,0,3,-6,-13,0,2,9
1532066140535,1,1,0,3,16,6,-1,-4
1532066140540,-1,-7,-10,12,19,-1,2,-2
1532066140545,-1,0,-6,-24,-36,-4,-1,-1
1532066140550,-1,1,2,-3,4,4,0,4
1532066140555,-2,3,7,6,18,2,0,-1
1532066140560,3,9,4,0,-16,2,0,3
1532066140565,5,15,5,11,20,-2,-1,-3
1532066140570,-9,-27,-11,-15,-40,-8,-3,-3
1532066140575,-8,-45,-25,0,35,1,-7,-8
1532066140580,-8,-1,-4,-15,-22,-5,-5,-4
1532066140585,3,12,11,14,-8,-4,-4,-2
1532066140590,9,14,-7,-5,-19,-2,5,11
1532066140595,-5,6,3,-9,-24,-16,-9,-12
1532066140600,3,23,59,41,79,8,-2,-9
1532066140605,6,23,-30,-18,-39,11,13,1
1532066140610,7,35,58,29,57,-7,-11,3
1532066140615,-6,-58,30,84,74,-13,-24,-20
1532066140620,1,3,-49,-4,-21,39,45,2
1532066140625,-27,-30,2,-2,30,-23,-27,0
1532066140630,10,30,6,10,24,11,-3,6
1532066140635,10,20,4,21,11,-1,12,8
1532066140640,4,19,16,27,80,-16,-13,-14
1532066140645,-6,-47,-68,-36,-69,1,8,4
1532066140650,-9,-24,-31,-55,-77,4,16,22
1532066140655,-2,45,25,-16,-49,15,7,-3
1532066140660,-10,-38,-56,-26,-63,-27,-31,-24
1532066140665,5,-9,5,61,114,-18,-20,-25
1532066140670,13,8,-7,56,-41,39,41,3
1532066140675,-14,12,-50,-99,-96,-11,0,27
1532066140680,-8,-6,2,-47,-47,-9,4,4
1532066140685,-2,14,55,21,20,-26,-34,-5
1532066140690,15,-9,35,127,127,23,18,-26
1532066140695,-5,18,-30,-43,-85,3,-1,5
1532066140700,-1,-30,-90,-27,-71,3,20,24
1532066140705,-14,-9,73,-123,-118,5,12,11
1532066140710,6,39,125,-7,44,-15,-51,-7
1532066140715,13,-5,37,71,97,6,30,-1
1532066140720,11,1,83,87,121,4,-9,-17
1532066140725,1,14,-60,7,-76,5,4,6
1532066140730,1,-15,-71,-16,56,-3,13,14
1532066140735,-12,-11,-52,-72,-68,-7,-9,2
1532066140740,18,35,49,52,82,3,-13,4
1532066140745,-4,-11,-66,32,51,-4,3,-24
1532066140750,-17,-28,21,-27,36,-23,-7,-17
1532066140755,-2,-19,10,82,84,-3,-10,-17
1532066140760,3,15,-7,-32,-98,38,12,14
1532066140765,11,2,62,37,-53,16,20,11
1532066140770,-19,10,-125,-126,-126,-27,-8,36
1532066140775,3,-1,-26,37,54,5,-7,-8
1532066140780,-14,3,-36,-45,-79,-5,-9,-12
1532066140785,0,2,1,6,-32,-8,-12,1
1532066140790,7,7,53,20,9,-3,0,-17
1532066140795,-4,5,-57,-108,-125,-8,-2,29
1532066140800,-3,5,33,60,126,13,-6,-7
1532066140805,-4,-19,4,6,16,-3,0,1
1532066140810,-6,6,-69,-37,-128,-11,-5,-2
1532066140815,17,32,74,44,59,-1,-6,-8
1532066140820,4,-43,-104,-15,-71,34,44,13
1532066140825,-8,19,17,-13,4,1,-9,0
1532066140830,-5,-13,26,24,7,-10,-18,-17
1532066140835,0,-6,4,-7,-58,5,10,-5
1532066140840,6,22,57,4,20,-27,-16,16
1532066140845,14,4,24,73,126,22,19,1
1532066140850,-12,-31,-45,-45,-128,-7,-7,-17
1532066140855,-20,-11,-60,-25,-7,-1,-22,-2
1532066140860,-1,4,-2,-14,36,-17,-10,6
1532066140865,7,-3,-7,0,21,-2,1,-2
1532066140870,10,44,45,58,118,-7,0,0
1532066140875,0,-20,10,-14,-115,5,11,-8
1532066140880,-11,21,-36,1,6,-4,-17,-15
1532066140885,-4,-44,-55,-16,55,9,7,4
1532066140890,-6,-31,-53,-36,-16,3,4,-3
1532066140895,3,23,39,26,68,-4,-1,-1
1532066140900,-1,-21,-47,-60,-113,-17,2,22
1532066140905,6,21,37,22,-36,7,3,-11
1532066140910,-10,-15,-25,-1,-17,3,-8,5
1532066140915,8,6,-49,-5,22,18,16,18
1532066140920,4,16,59,-3,3,-17,0,2
1532066140925,4,0,12,9,25,-7,-11,-11
1532066140930,-11,-35,-59,-6,9,11,-1,-11
1532066140935,0,7,51,10,-1,0,1,-4
1532066140940,-11,-1,0,8,33,-7,-10,2
1532066140945,-1,24,-27,-18,-25,-10,4,5
1532066140950,17,32,32,-8,-15,7,18,13
1532066140955,-13,-44,-7,8,17,3,-11,-17
1532066140960,-12,8,-14,-12,-9,-6,-19,-18
1532066140965,-1,7,0,-3,3,-7,0,3
1532066140970,-3,14,22,2,-12,-3,-10,-9
1532066140975,4,15,10,10,13,0,-5,-6
1532066140980,10,-1,-8,-13,-6,-3,10,14
1532066140985,1,-10,0,9,-8,9,14,16
1532066140990,-5,-13,-34,6,21,-6,-13,-12
1532066140995,-7,2,-33,-7,-65,-9,-4,12
1532066141000,-13,-33,0,8,53,0,-14,-19
1532066141005,0,9,-31,-27,-111,-11,-12,6
1532066141010,11,9,13,23,57,12,24,18
1532066141015,-3,-49,9,0,-5,0,-2,-5
1532066141020,-11,-6,67,-5,-10,-11,-9,-9
1532066141025,-2,0,20,13,19,12,-10,-25
1532066141030,3,-6,29,8,-2,-1,7,17
1532066141035,31,75,1,-3,-7,2,31,24
1532066141040,-7,-68,12,-9,5,0,15,20
1532066141045,-36,-41,20,4,18,-9,-40,-43
1532066141050,-22,-12,-11,-2,-16,-13,-43,-46
1532066141055,1,20,2,1,12,4,-2,3
1532066141060,25,35,-3,13,-6,10,24,23
1532066141065,13,9,-8,-3,21,-1,13,21
1532066141070,-1,-9,15,0,14,-5,5,4
1532066141075,3,14,6,22,-6,28,5,-10
1532066141080,-10,-18,-39,-36,-31,-7,-12,5
1532066141085,-4,-7,13,6,22,-6,0,-6
1532066141090,2,8,-25,21,21,0,-3,4
1532066141095,2,-11,25,1,21,-16,-4,-4
1532066141100,4,-5,-7,-4,-30,0,1,-2
1532066141105,7,7,-7,-7,-7,20,15,12
1532066141110,4,0,16,16,36,5,1,-10
1532066141115,-19,-20,0,-7,3,-11,-11,-9
1532066141120,-4,2,-23,-7,-34,-13,-17,-16
1532066141125,8,11,17,5,23,-13,6,14
1532066141130,13,8,1,-8,-17,19,13,17
1532066141135,-16,-10,-18,-9,5,-2,-1,-4
1532066141140,-11,-6,-4,0,-5,-1,-15,-20
1532066141145,0,2,6,4,-1,3,0,-5
1532066141150,-3,-10,-7,-12,-24,-10,-1,3
1532066141155,8,7,5,-12,6,-12,-9,0
1532066141160,5,9,-56,31,-43,0,16,8
1532066141165,-5,-5,-55,5,26,14,4,5
1532066141170,-3,-4,-32,-15,-17,11,2,1
1532066141175,1,-2,22,4,23,-10,-6,1
1532066141180,4,6,41,13,28,-3,-4,-7
1532066141185,-1,-4,16,-27,-17,-9,-5,-3
1532066141190,-5,0,-3,-3,-25,-8,-3,-2
1532066141195,5,-1,10,-1,19,6,-1,-6
1532066141200,-3,-5,-9,-3,-6,3,-11,8
1532066141205,8,4,13,21,5,8,12,4
1532066141210,2,-2,28,-16,17,-10,9,-5
1532066141215,-5,-6,11,60,-1,7,13,0
1532066141220,-2,1,-2,-52,-14,5,17,9
1532066141225,28,16,10,-3,-9,-16,-37,11
1532066141230,-50,-23,-3,-74,21,7,-17,-27
1532066141235,9,2,-31,35,11,7,24,-5
1532066141240,-8,9,35,9,2,-6,0,3
1532066141245,3,-13,10,20,0,3,7,-4
1532066141250,9,-2,-18,-16,-30,-9,-19,5
1532066141255,-3,4,-11,-2,2,19,2,7
1532066141260,-2,-2,9,11,39,9,15,-1
1532066141265,-12,-1,3,-36,-18,-13,-5,-6
1532066141270,7,0,0,68,-8,-11,-4,-2
1532066141275,-5,-4,-8,-107,-11,-6,-15,-8
1532066141280,12,8,-27,79,5,-1,2,0
1532066141285,-24,-37,-10,20,-11,-9,-7,-7
1532066141290,3,4,5,3,-5,4,1,6
1532066141295,6,-4,-22,-8,1,-3,-3,-1
1532066141300,2,3,9,-47,2,-2,-13,-4
1532066141305,-2,13,13,27,-7,-2,-16,-12
1532066141310,2,-6,-3,20,20,6,11,7
1532066141315,-3,-1,3,0,-10,-7,-10,-5
1532066141320,0,-1,-28,-31,8,8,9,-1
1532066141325,-1,5,-4,5,4,1,13,0
1532066141330,7,0,-3,-44,-12,-5,1,0
1532066141335,7,11,25,47,11,-1,12,-1
1532066141340,-17,-18,-26,-28,-27,-11,-11,4
1532066141345,2,2,-2,20,7,8,10,2
1532066141350,0,2,4,-13,-5,-1,0,1
1532066141355,2,0,-7,-65,4,-2,-1,-1
1532066141360,10,7,11,84,4,-2,-9,-8
1532066141365,-3,1,11,55,10,2,9,-3
1532066141370,-12,-9,3,8,-24,-5,-19,-2
1532066141375,6,5,33,-26,-17,-6,-12,6
1532066141380,1,4,8,9,44,21,5,-3
1532066141385,20,25,30,-80,25,1,29,-5
1532066141390,-23,-16,-18,67,-14,-2,-39,-14
1532066141395,-20,-24,35,19,-46,-24,2,-4
1532066141400,3,-4,-15,-57,-4,5,-14,3
1532066141405,52,37,36,43,73,29,25,12
1532066141410,-70,-56,-33,37,-32,-5,-7,-5
1532066141415,-2,-13,10,27,0,-3,-20,-11
1532066141420,11,5,0,27,-20,-16,8,1
1532066141425,6,7,18,0,-13,-7,-26,3
1532066141430,30,27,17,-42,13,-2,22,1
1532066141435,2,9,-13,-24,4,5,-10,-2
1532066141440,-45,-46,4,86,3,-12,-6,-8
1532066141445,15,-6,-25,-78,-13,1,-1,9
1532066141450,22,17,3,-29,-7,-15,17,-5
1532066141455,-20,-9,29,82,-1,15,-35,-1
1532066141460,30,32,-11,-98,32,-12,31,2
1532066141465,-39,-30,-14,61,-39,5,2,9
1532066141470,10,-5,-8,-23,23,12,16,18
1532066141475,5,3,-44,-56,-7,-5,-4,-11
1532066141480,4,2,25,34,3,-4,-17,-3
1532066141485,-4,-1,4,58,17,3,-2,-8
1532066141490,-4,-10,-65,-74,-86,-30,5,-5
1532066141495,2,7,35,106,23,20,15,7
1532066141500,2,1,1,9,-8,3,-7,-4
1532066141505,-8,-5,2,-8,-12,-14,-5,-6
1532066141510,13,18,40,42,31,4,-7,-1
1532066141515,6,2,-4,-43,12,9,7,3
1532066141520,0,4,2,4,-1,10,5,5
1532066141525,-21,-27,-63,-61,-43,-21,-16,-7
1532066141530,10,9,34,36,21,5,-4,2
1532066141535,0,-6,-34,-48,-12,-10,5,1
1532066141540,5,10,36,-4,6,-1,8,-2
1532066141545,-5,0,-1,21,5,4,-4,-2
1532066141550,5,1,-2,-58,2,15,10,4
1532066141555,-4,-3,5,61,10,-10,3,0
1532066141560,-7,-2,-6,-20,-4,5,-7,3
1532066141565,0,2,-12,-7,1,1,3,-3
1532066141570,5,3,31,-34,5,0,2,-2
1532066141575,-1,-2,-5,69,9,-1,4,2
1532066141580,0,-3,-4,-30,-12,-10,-9,-2
1532066141585,-9,-6,5,-12,-12,-10,-8,-2
1532066141590,8,8,19,-4,4,5,5,-1
1532066141595,1,-2,-17,-10,1,-5,4,0
1532066141600,1,-1,8,0,-8,2,-7,-2
1532066141605,-8,-10,-21,-57,-7,1,2,-5
1532066141610,3,3,11,42,9,1,-5,0
1532066141615,0,-4,-14,-34,3,1,1,1
1532066141620,-5,-5,-37,-21,-9,3,-1,-1
1532066141625,2,5,15,19,14,2,5,-1
1532066141630,-1,-1,-9,20,3,-2,-2,1
1532066141635,-1,-3,-8,-44,-16,-3,-5,-1
1532066141640,3,5,19,9,4,3,3,-1
1532066141645,-3,1,6,-3,0,-4,-1,-2
1532066141650,2,-1,-4,12,3,-1,-4,0
1532066141655,1,1,0,-28,-11,1,5,0
1532066141660,-1,0,15,24,5,-2,-6,-4
1532066141665,-5,-1,3,4,7,4,0,0
1532066141670,-1,-2,-4,-12,-2,0,1,2
1532066141675,0,3,5,-1,1,-1,1,-1
1532066141680,-1,-4,-5,-24,-3,-8,-3,-2
1532066141685,-1,-2,0,-18,-17,-1,-3,0
1532066141690,-2,2,3,66,29,2,2,0
1532066141695,0,0,-8,-5,-11,0,1,1
1532066141700,0,-2,-5,-10,-14,-2,2,0
1532066141705,-1,0,5,-13,2,-5,-4,0
1532066141710,-1,0,1,0,4,0,-1,-1
1532066141715,0,0,2,-10,3,-2,-1,-1
1532066141720,-1,-1,-11,-22,0,1,10,-1
1532066141725,0,0,5,28,5,-2,-13,-1
1532066141730,-1,1,-1,-1,-1,3,0,-1
1532066141735,-1,-1,-4,-4,-3,-3,-5,0
1532066141740,0,1,6,1,2,4,6,2
1532066141745,0,0,-3,-5,1,-2,4,-1
1532066141750,0,-2,-3,-6,-8,-3,-4,-2
1532066141755,0,0,1,13,2,0,1,0
1532066141760,0,0,0,3,0,2,-3,-1
1532066141765,0,-2,-3,-5,-3,-2,0,2
1532066141770,-2,0,1,8,2,2,-3,1
1532066141775,-1,-2,-2,-9,1,-5,-3,0
1532066141780,-2,-2,0,6,-4,0,0,-1
1532066141785,-1,0,-3,-3,5,5,2,-1
1532066141790,0,1,0,-1,2,2,6,0
1532066141795,-1,0,-2,0,3,1,-1,-1
1532066141800,0,0,-3,-3,-9,-8,-9,-2
1532066141805,1,-2,0,14,3,-6,0,-2
1532066141810,-1,-1,2,-28,-10,3,1,1
1532066141815,1,-1,-3,-2,0,1,-1,-2
1532066141820,1,-3,-2,3,-2,-3,-3,-1
1532066141825,-2,1,0,-21,-8,-2,-1,-1
1532066141830,-1,0,-7,12,-2,-6,-6,-4
1532066141835,0,1,12,2,8,10,6,4
1532066141840,-3,-6,-8,-4,7,5,3,3
1532066141845,2,1,-6,-5,-2,-2,0,-1
1532066141850,0,0,3,12,-1,-7,-5,1
1532066141855,2,3,-4,16,3,-5,-1,-2
1532066141860,-2,-2,3,-19,-12,0,-1,-3
1532066141865,-2,-6,-11,17,2,0,-3,-2
1532066141870,-4,-1,4,-44,-7,-4,-5,-1
1532066141875,1,-4,-6,43,0,1,0,-4
1532066141880,0,2,-23,-39,0,-2,0,0
1532066141885,-4,-3,17,32,2,-4,-4,-1
1532066141890,4,2,10,-11,31,3,3,-1
1532066141895,-2,-4,-14,-3,-22,3,0,0
1532066141900,-2,-4,-3,-51,-34,-15,-7,-1
1532066141905,5,3,0,-7,-11,-1,3,0
1532066141910,-3,-6,-8,2,9,3,1,0
1532066141915,0,2,10,22,11,-8,-2,-1
1532066141920,1,-1,-5,25,17,12,0,-2
1532066141925,-4,-1,-9,8,6,0,1,1
1532066141930,3,3,1,-25,-14,-2,1,-3
1532066141935,-4,-2,-5,-1,-2,-2,-1,-1
1532066141940,-2,1,22,24,1,-1,-3,2
1532066141945,1,-2,2,-28,2,-3,-2,-2
1532066141950,2,0,-6,45,-4,0,-1,0
1532066141955,-1,-4,-1,-25,-5,-2,-1,1
1532066141960,1,4,-5,35,13,3,0,0
1532066141965,0,-4,-15,-27,-9,0,0,-2
1532066141970,-1,0,5,0,-7,-2,-3,0
1532066141975,1,-2,-2,-10,-2,-2,-2,-1
1532066141980,3,1,4,5,1,-3,-1,-2
1532066141985,-2,1,-3,3,5,5,3,-2
1532066141990,-2,-3,-7,8,-5,-1,3,0
1532066141995,-3,-1,0,-19,-4,-1,-3,-2
1532066142000,-2,0,2,3,-1,0,0,-1
1532066142005,-1,-1,4,-2,-4,-4,-3,0
1532066142010,0,-1,-1,6,2,2,-2,-1
1532066142015,-1,2,3,-4,6,1,1,-1
1532066142020,-2,-1,1,-5,-4,-1,0,-1
1532066142025,-1,-1,4,2,-4,-2,-2,-1
1532066142030,-1,-3,-1,-1,-2,1,1,-2
1532066142035,0,-1,-2,7,2,-2,-1,-1
1532066142040,-2,0,0,12,2,4,-2,1
1532066142045,0,0,1,6,8,0,1,0
1532066142050,0,1,-3,-13,-10,-2,0,0
1532066142055,1,-1,-1,-8,-3,-2,-2,-3
1532066142060,0,-1,2,5,2,-4,-1,-2
1532066142065,-1,0,3,14,6,3,3,1
1532066142070,-2,-1,-1,-3,3,1,-1,0
1532066142075,1,0,1,-8,-5,-3,-2,-1
1532066142080,-2,-2,-1,-5,-7,-2,-3,-2
1532066142085,1,0,-1,-3,-4,0,3,1
1532066142090,0,0,5,11,12,-1,-1,-1
1532066142095,-2,-2,-8,-9,10,4,1,-2
1532066142100,0,-3,-5,9,-17,3,0,3
1532066142105,-3,-6,5,-5,-15,-5,-4,1
1532066142110,-2,-1,0,-4,-11,-2,-1,-3
1532066142115,0,-1,-3,8,0,-4,-2,0
1532066142120,2,-3,-5,-9,11,-3,0,-3
1532066142125,-2,-1,1,1,2,0,0,-1
1532066142130,-1,0,-4,0,-2,0,0,-1
1532066142135,-1,0,-3,-7,1,1,0,-1
1532066142140,-3,-2,-2,7,6,0,1,0
1532066142145,1,8,14,-3,-6,-3,-3,-2
1532066142150,0,10,1,0,5,2,1,-1
1532066142155,-4,-23,-4,-3,-9,-7,-1,2
1532066142160,-4,1,1,-2,1,-2,-1,-1
1532066142165,-2,0,-5,-7,1,2,-2,-2
1532066142170,-1,0,0,17,8,0,-1,-1
1532066142175,5,32,8,-16,-9,2,0,3
1532066142180,2,20,6,1,2,-2,0,2
1532066142185,-2,-41,-10,-4,2,0,1,-1
1532066142190,1,31,-7,3,-5,-3,-3,-3
1532066142195,-2,-34,1,4,6,2,3,3
1532066142200,-17,-90,-16,4,24,-4,-5,-7
1532066142205,-6,66,7,-14,-23,0,-9,-8
1532066142210,0,0,1,4,-1,1,-2,1
1532066142215,5,35,3,-1,-4,0,0,0
1532066142220,25,88,18,2,0,1,7,8
1532066142225,2,-11,-4,8,9,0,5,5
1532066142230,0,-47,-6,-5,-4,-1,2,2
1532066142235,4,89,12,-1,0,0,1,0
1532066142240,-26,-126,-36,-5,-2,0,-5,-8
1532066142245,-4,74,-3,0,4,-1,-7,-8
1532066142250,19,25,10,-6,-7,-3,-2,5
1532066142255,2,5,8,2,-2,-3,3,1
1532066142260,-41,-84,-37,-6,-6,-1,-2,-14
1532066142265,-10,25,-12,-2,4,2,-9,-15
1532066142270,3,34,12,1,1,-2,-7,-5
1532066142275,15,38,12,3,2,2,4,9
1532066142280,22,62,21,1,-9,-1,6,12
1532066142285,2,-32,-1,-2,-2,-2,7,9
1532066142290,-3,34,6,3,1,0,1,3
1532066142295,-8,-55,-18,-4,-4,0,0,-1
1532066142300,1,15,4,-3,-5,-1,-3,-5
1532066142305,1,-16,9,5,3,-1,0,-1
1532066142310,-5,-22,-15,-9,-2,-1,2,-4
1532066142315,-4,-11,0,5,1,1,-3,1
1532066142320,4,23,6,-2,-3,0,-5,1
1532066142325,2,-18,1,-2,-4,-4,-1,1
1532066142330,-2,8,-9,-1,5,2,6,4
1532066142335,-7,-31,-13,-5,-2,0,-5,-9
1532066142340,-3,22,13,3,6,-3,-11,-12
1532066142345,2,-5,-10,-2,-5,3,0,1
1532066142350,-7,-16,-4,-4,-13,-2,0,-2
1532066142355,0,-2,-2,0,3,-1,-1,2
1532066142360,9,29,8,-1,-3,-1,3,5
1532066142365,-6,-20,-4,-1,-7,-7,-4,-3
1532066142370,-5,-26,-1,2,11,-2,-3,-5
1532066142375,-5,-3,-1,1,13,11,9,2
1532066142380,8,32,0,-2,-10,-2,-5,3
1532066142385,1,-2,6,2,-1,-3,0,2
1532066142390,-4,-3,13,-3,-7,-6,-10,-8
1532066142395,-5,-7,-13,-7,-4,-9,-3,-7
1532066142400,1,2,3,0,5,3,8,3
1532066142405,3,17,5,3,-3,-2,0,1
1532066142410,-2,-5,-9,5,-5,-1,2,-1
1532066142415,-8,-46,14,0,-7,-4,-6,-5
1532066142420,2,7,-56,-9,-3,-2,7,-2
1532066142425,-3,-6,71,10,23,-4,-7,4
1532066142430,0,20,-8,-1,-8,0,-1,-1
1532066142435,-1,11,-17,-4,-13,-3,-4,-2
1532066142440,6,24,25,2,-13,-2,-1,4
1532066142445,6,-38,1,4,31,3,8,1
1532066142450,-12,-12,-33,-16,-30,4,-3,-2
1532066142455,-8,18,9,4,1,-2,-6,-9
1532066142460,-1,-7,3,-8,-8,0,-2,-2
1532066142465,3,25,-11,-2,-4,-4,-1,-2
1532066142470,2,-12,9,1,17,3,0,1
1532066142475,4,-4,19,4,-1,4,3,4
1532066142480,-3,2,-26,3,2,-5,-3,-2
1532066142485,-3,-4,-1,-14,-5,2,-1,0
1532066142490,0,-13,0,6,-2,-2,-1,3
1532066142495,-1,6,6,2,18,-6,-3,-5
1532066142500,1,-3,4,-4,-8,1,-2,-1
1532066142505,0,-8,-21,11,8,5,5,0
1532066142510,-3,-2,29,-19,-37,-3,-4,1
1532066142515,2,7,-5,-3,6,1,1,0
1532066142520,-1,-7,17,6,7,-1,1,0
1532066142525,0,-4,-27,1,-2,0,-2,-5
1532066142530,-1,6,13,-1,11,-3,0,-4
1532066142535,0,-7,-14,0,-2,-3,-3,0
1532066142540,2,2,14,-2,3,-1,-1,6
1532066142545,-1,9,-6,2,-10,3,2,0
1532066142550,-6,-15,-16,6,18,-1,-2,-7
1532066142555,-2,-7,1,-4,-12,-4,-4,-1
1532066142560,-1,-1,1,5,5,3,2,-1
1532066142565,0,1,-4,-8,-7,-1,0,3
1532066142570,2,-6,-3,2,2,-2,0,-2
1532066142575,-8,14,-10,-5,-5,-3,-1,-4
1532066142580,29,0,2,0,0,-1,1,4
1532066142585,-30,-12,-4,-1,0,-3,-5,-6
1532066142590,-6,-12,-2,-3,-1,-4,-10,-16
1532066142595,28,3,-5,-2,-5,-5,0,3
1532066142600,-21,3,3,5,5,2,2,-2
1532066142605,-6,-1,-1,-1,2,5,2,1
1532066142610,24,6,9,0,-1,-1,1,7
1532066142615,-26,-13,-10,-2,-2,-2,-3,-2
1532066142620,21,13,-2,3,5,-1,3,6
1532066142625,52,14,4,-2,-4,1,6,11
1532066142630,-110,-41,-6,-3,-1,-2,-8,-22
1532066142635,44,10,4,3,2,0,-2,-5
1532066142640,1,-6,0,-3,-4,-3,0,0
1532066142645,33,5,0,3,3,2,0,4
1532066142650,-25,7,4,-2,-3,0,3,12
1532066142655,-28,-17,-6,-8,-5,0,-4,-5
1532066142660,-34,-5,-11,0,1,-3,-6,-13
1532066142665,45,7,6,2,-2,0,0,4
1532066142670,6,-3,-2,-9,-1,0,-1,6
1532066142675,17,-8,-2,-3,-5,-1,4,4
1532066142680,0,-7,3,5,-1,0,-2,-1
1532066142685,-11,4,-10,7,12,-3,1,-5
1532066142690,10,5,-3,-43,-1,2,2,-1
1532066142695,-27,-4,1,-5,8,3,7,-3
1532066142700,50,12,11,84,-5,-5,-6,9
1532066142705,-64,-9,9,-4,-13,-4,-15,-2
1532066142710,14,4,-2,2,6,0,-1,-13
1532066142715,-15,4,-25,-48,-3,0,7,-3
1532066142720,3,10,36,4,2,-2,0,-6
1532066142725,-1,-7,-5,-30,-2,0,2,0
1532066142730,35,22,29,65,7,-1,3,1
1532066142735,-7,-16,-42,-21,-10,-5,-11,-3
1532066142740,-14,-3,37,-11,1,2,-4,1
1532066142745,0,-2,7,-5,-5,1,2,-3
1532066142750,17,3,12,-10,3,1,4,3
1532066142755,3,-8,-42,-17,-3,-4,-6,-4
1532066142760,-3,4,-52,-14,-2,0,9,-4
1532066142765,-7,15,40,-18,-3,-5,-9,-3
1532066142770,35,1,-30,50,0,1,-1,8
1532066142775,-13,-53,-12,15,-6,-3,-9,-3
1532066142780,-16,2,-1,-41,2,3,-3,-3
1532066142785,31,0,-19,-19,1,1,13,-2
1532066142790,5,20,-23,17,-3,-4,-1,-5
1532066142795,-8,16,52,78,-3,-4,-12,5
1532066142800,-4,-18,-29,-29,-14,-4,-12,2
1532066142805,3,5,-24,16,7,2,-2,2
1532066142810,-4,-10,14,-42,2,1,7,-3
1532066142815,14,14,5,-91,-9,2,9,-1
1532066142820,1,1,7,3,8,0,0,-5
1532066142825,-11,-5,0,18,-1,-4,0,-2
1532066142830,6,6,10,-7,-1,0,-4,2
1532066142835,-5,-5,5,-29,-6,-1,4,-5
1532066142840,7,12,26,43,13,2,3,1
1532066142845,-9,-4,1,28,-3,-1,-7,3
1532066142850,-9,-8,-3,-8,1,-3,-5,1
1532066142855,10,7,-3,23,5,1,3,1
1532066142860,-1,-7,9,0,3,-4,4,-1
1532066142865,-1,-5,-5,17,-5,0,2,0
1532066142870,-3,-7,-2,-27,-5,2,-4,0
1532066142875,3,14,14,25,24,-4,1,0
1532066142880,8,38,4,-9,0,9,0,-1
1532066142885,-13,-55,-17,-32,-45,-8,0,-1
1532066142890,-2,-5,-24,0,-7,-3,-1,-2
1532066142895,3,9,3,4,6,-5,1,-1
1532066142900,-2,-9,2,-4,20,5,0,-2
1532066142905,4,23,0,16,3,-1,0,2
1532066142910,-2,3,17,-17,-12,1,0,-2
1532066142915,1,-7,-20,26,5,5,-1,0
1532066142920,-1,4,-12,-45,-11,-7,-1,-1
1532066142925,-2,7,-6,3,11,2,-3,0
1532066142930,0,-8,-4,-4,15,2,0,0
1532066142935,0,5,20,10,-9,0,0,3
1532066142940,1,-3,-17,-14,-25,-5,0,1
1532066142945,-8,-23,-14,-7,1,-2,-4,-10
1532066142950,-1,4,4,5,-2,-3,-1,-3
1532066142955,3,13,7,6,12,3,2,0
1532066142960,-1,-12,-9,9,49,3,3,0
1532066142965,-1,-1,10,-8,-43,-3,0,0
1532066142970,0,13,15,23,15,11,0,-2
1532066142975,-2,2,-6,-14,-54,-6,0,8
1532066142980,-1,-20,-2,1,-7,-4,-2,3
1532066142985,0,1,7,0,35,1,-1,-10
1532066142990,-3,-4,-18,-8,-8,-8,-5,-5
1532066142995,-2,-1,16,6,6,2,-3,-3
1532066143000,-5,-7,-21,-3,-4,-2,1,-3
1532066143005,3,9,-3,-7,13,-1,0,1
1532066143010,0,-2,18,4,-15,2,2,2
1532066143015,0,13,1,1,7,0,-2,1
1532066143020,1,11,11,-2,-23,-4,0,2
1532066143025,-10,-59,-28,-6,-32,-4,-2,1
1532066143030,-2,1,-3,2,7,-3,-2,-1
1532066143035,0,-1,-6,3,3,5,-1,0
1532066143040,-1,5,3,-1,1,-4,-3,-3
1532066143045,2,11,5,2,16,0,2,2
1532066143050,0,-3,0,-1,-5,-2,0,-1
1532066143055,1,1,4,6,6,-2,-2,0
1532066143060,3,18,2,-4,-8,2,2,2
1532066143065,-2,-3,9,9,7,2,2,-1
1532066143070,-3,-15,-13,-8,8,-4,-6,-5
1532066143075,-1,0,27,14,3,1,-3,-2
1532066143080,-3,-13,-12,-15,-6,-3,-2,0
1532066143085,3,25,4,5,6,4,2,1
1532066143090,1,8,3,2,-7,0,1,4
1532066143095,-3,-7,-3,0,2,-2,-4,-2
1532066143100,-4,-6,-1,3,-6,0,-2,-2
1532066143105,4,2,2,7,11,0,-1,2
1532066143110,-2,2,-4,-12,1,-4,-1,-4
1532066143115,-2,-4,-6,0,-3,1,-1,-1
1532066143120,-4,-5,0,17,0,3,0,2
1532066143125,-3,4,-9,-1,9,-5,-2,-5
1532066143130,0,-3,0,-1,-10,0,1,2
1532066143135,2,2,-5,1,-1,0,0,-1
1532066143140,19,-11,-2,-14,-8,-1,-7,3
1532066143145,4,14,2,14,6,2,6,-8
1532066143150,-57,-26,-9,-1,-2,-1,-3,1
1532066143155,9,8,7,-2,-2,-1,0,0
1532066143160,-21,-17,-9,11,1,0,-1,-5
1532066143165,-7,-8,-14,-24,-6,-5,-9,-4
1532066143170,26,12,1,0,1,-2,3,5
1532066143175,-7,10,0,-10,-6,-2,1,-7
1532066143180,-13,-5,-4,6,1,-3,-3,-5
1532066143185,-9,-3,7,-5,-2,-1,-5,-4
1532066143190,12,7,3,5,-1,0,1,2
1532066143195,13,-8,-2,-11,-2,0,0,5
1532066143200,21,16,9,11,8,-1,4,4
1532066143205,-6,-4,4,-7,-8,-2,-3,-2
1532066143210,3,-4,-3,11,5,2,-2,-5
1532066143215,2,-5,1,12,3,0,-1,-1
1532066143220,-8,-5,-14,-23,-8,-3,-2,-5
1532066143225,3,7,1,-23,-8,-3,0,5
1532066143230,4,3,7,9,0,0,-1,-1
1532066143235,-10,-3,-2,-9,0,-2,-5,-6
1532066143240,0,-3,-1,-1,-5,-1,3,0
1532066143245,3,4,12,16,37,3,2,-2
1532066143250,4,3,-6,7,-5,7,1,1
1532066143255,-6,-5,-13,-8,-38,-4,-4,1
1532066143260,-2,0,8,-7,-2,1,-2,0
1532066143265,2,0,4,14,-5,-4,-5,2
1532066143270,0,0,4,1,18,0,-1,-3
1532066143275,-9,-1,1,21,17,0,0,1
1532066143280,14,-4,-4,-9,-8,-4,-1,-1
1532066143285,1,6,1,2,7,6,6,6
1532066143290,0,-1,-8,-8,-4,-6,-3,-4
1532066143295,-9,-11,-9,-6,-4,-1,-3,-8
1532066143300,-8,-4,-1,23,10,-3,-5,-10
1532066143305,2,3,1,2,-3,2,2,2
1532066143310,12,13,20,4,-5,1,5,13
1532066143315,1,3,4,-11,-2,0,4,4
1532066143320,-13,-23,-10,1,9,-1,-5,-11
1532066143325,-1,-9,-3,0,-6,2,-2,-3
1532066143330,-3,-1,-5,-6,-7,-5,-2,-2
1532066143335,60,17,-2,-1,5,1,2,10
1532066143340,-19,-5,3,-2,0,2,3,-2
1532066143345,-9,-1,-6,5,-7,-4,-7,-3
1532066143350,-1,5,2,5,-3,-1,-1,-5
1532066143355,4,-11,-15,-21,-2,-1,0,-1
1532066143360,-5,-3,-8,-11,-9,-1,1,1
1532066143365,8,3,13,15,6,4,7,7
1532066143370,34,-15,-21,-15,-12,-9,-3,0
1532066143375,-59,-33,-23,-24,-6,-6,-22,-41
1532066143380,35,4,27,5,3,4,4,4
1532066143385,-20,7,0,-5,-4,-2,2,-12
1532066143390,62,4,3,0,2,1,0,9
1532066143395,1,7,19,36,17,2,10,9
1532066143400,46,25,-24,-47,-14,-2,3,4
1532066143405,-65,-58,-14,-30,-12,-9,-18,-7
1532066143410,-27,0,0,-12,-10,-2,0,-8
1532066143415,13,3,1,20,1,-1,-1,6
1532066143420,2,8,9,-4,13,4,3,0
1532066143425,16,5,0,-13,-4,0,6,4
1532066143430,-1,3,0,47,1,-2,-6,1
1532066143435,-27,-4,4,37,1,-2,-5,1
1532066143440,-18,-9,-1,17,7,0,-2,3
1532066143445,24,12,-7,-28,-4,1,1,1
1532066143450,-32,-5,-2,-39,1,1,1,-10
1532066143455,23,11,9,1,6,2,4,3
1532066143460,-15,-5,1,9,-5,-3,-3,-3
1532066143465,14,6,-3,0,-5,-2,-1,-1
1532066143470,-4,3,0,2,3,2,1,-1
1532066143475,-4,1,10,-1,-1,1,0,5
1532066143480,4,-1,-5,-4,-7,-3,-2,2
1532066143485,0,4,6,5,-1,-1,-3,-3
1532066143490,-11,-8,2,9,5,-1,0,-2
1532066143495,7,5,3,-16,-1,-1,0,0
1532066143500,-15,-9,-8,-7,-8,-4,-4,-6
1532066143505,15,3,2,16,2,-1,-1,2
1532066143510,-6,0,3,-1,2,-2,-2,-1
1532066143515,-1,-1,-2,-15,-4,0,-4,-1
1532066143520,-1,-2,-8,7,-2,-1,-1,-1
1532066143525,4,3,-3,8,-1,-1,0,1
1532066143530,1,2,2,-7,-3,-1,-1,-1
1532066143535,-3,-2,-10,-7,-3,-2,0,-1
1532066143540,-5,-4,4,11,0,-1,-1,-1
1532066143545,5,0,-4,0,-3,0,0,1
1532066143550,-7,-2,-4,-5,-1,-2,0,-3
1532066143555,5,1,-1,-2,-2,-1,1,1
1532066143560,0,3,4,5,3,-1,1,-1
1532066143565,3,4,3,1,-1,-2,-1,-1
1532066143570,-2,-5,-2,-6,-3,0,-1,-1
1532066143575,-2,-6,-4,-5,-4,-2,-1,-1
1532066143580,0,-4,4,0,1,-1,-2,2
1532066143585,-1,-1,1,0,0,1,-1,0
1532066143590,-5,-2,1,6,-1,-1,-1,-1
1532066143595,2,-5,0,-4,-1,0,1,-1
1532066143600,-4,-2,7,1,0,1,0,-1
1532066143605,3,2,-23,-1,-1,-2,-1,-1
1532066143610,-2,-1,1,-1,0,2,-1,0
1532066143615,-1,2,-3,2,-1,-1,1,-1
1532066143620,0,2,-1,-7,0,-2,-2,-1
1532066143625,0,0,6,5,-3,-1,1,0
1532066143630,0,0,-2,-2,-2,-2,-1,-1
1532066143635,-1,-1,-1,-1,1,0,0,-1
1532066143640,0,3,-4,2,-2,0,-1,-1
1532066143645,0,-4,9,0,-2,-1,-1,-1
1532066143650,-2,-1,-3,-2,-1,0,1,1
1532066143655,1,5,1,-4,0,-1,-1,0
1532066143660,-1,0,-1,1,-2,-1,0,-1
1532066143665,4,5,7,12,4,2,0,-1
1532066143670,-5,-13,6,-8,-1,-2,8,0
1532066143675,0,-3,-2,0,1,0,-10,0
1532066143680,-2,-4,2,-2,-3,-1,1,0
1532066143685,0,0,-3,-3,2,1,-2,0
1532066143690,3,7,-7,-7,0,1,1,-2
1532066143695,0,0,7,-13,-4,-1,1,-2
1532066143700,1,4,-2,-4,2,1,0,-2
1532066143705,-1,4,21,-2,-4,-2,2,-3
1532066143710,1,3,1,-1,-3,-1,-4,0
1532066143715,-3,-1,-7,5,-2,-2,1,-2
1532066143720,2,2,4,-8,2,0,1,1
1532066143725,2,-3,1,-1,2,-1,-1,0
1532066143730,-2,6,-12,-3,1,-1,-1,-1
1532066143735,-3,-4,-2,5,-1,-2,3,0
1532066143740,-3,-5,-2,0,-2,-1,-1,-1
1532066143745,0,0,-5,-6,-4,-1,-2,-1
1532066143750,2,2,0,4,2,0,-2,-1
1532066143755,2,9,-11,-12,-1,-2,-3,-2
1532066143760,0,-2,0,5,-1,0,-1,-2
1532066143765,-1,-2,-5,6,-3,0,-2,0
1532066143770,-1,-5,1,-8,-1,1,1,-2
1532066143775,-2,-3,-6,-3,0,0,0,0
1532066143780,-3,-3,8,7,0,-1,-2,2
1532066143785,0,0,-2,1,-2,-1,0,-1
1532066143790,-2,-6,-1,6,-1,-2,-1,0
1532066143795,2,4,9,-2,1,2,1,1
1532066143800,2,5,-11,-7,-1,-1,-4,-3
1532066143805,-2,1,12,1,1,1,1,-1
1532066143810,0,-1,2,-5,-1,0,-1,2
1532066143815,-1,-5,-6,2,-2,-1,-1,-1
1532066143820,-2,-3,-2,3,-1,-1,-1,0
1532066143825,1,0,-5,-5,-2,-2,-2,-1
1532066143830,-2,-3,5,-1,3,1,-1,-1
1532066143835,-3,-3,-24,-4,-2,-1,-2,-3
1532066143840,0,-4,5,-1,-3,-1,-1,-2
1532066143845,-2,-4,-6,-3,-2,0,0,-1
1532066143850,-2,-12,-44,-6,-2,0,-3,-3
1532066143855,-3,-6,3,3,-1,-2,0,1
1532066143860,0,0,0,-3,0,-1,2,1
1532066143865,1,2,-6,-4,1,-2,-2,-2
1532066143870,-1,2,0,3,-2,-2,-1,-1
1532066143875,1,-1,1,1,0,0,1,-2
1532066143880,0,-3,0,-4,-2,0,-1,-1
1532066143885,-1,-2,0,-3,-1,-1,0,1
1532066143890,-1,2,8,5,-1,1,-1,-1
1532066143895,-1,0,3,0,1,-1,-1,-1
1532066143900,-2,-1,-8,-3,-1,-2,-1,-1
1532066143905,-2,-9,10,3,0,0,1,1
1532066143910,-1,-2,4,0,1,-1,0,0
1532066143915,-2,1,-2,-2,1,0,0,-2
1532066143920,2,-1,-9,-1,-2,-2,0,-1
1532066143925,0,2,-7,-1,-3,-1,0,-1
1532066143930,1,2,-4,-2,0,-1,-1,-1
1532066143935,-1,-4,2,-1,0,-1,-1,0
1532066143940,-1,6,-2,-2,-1,-2,-1,-1
1532066143945,2,2,-10,0,-1,0,-1,-1
1532066143950,-1,-4,1,-2,-1,-1,0,-2
1532066143955,-2,-2,-34,-4,-2,-2,-2,-4
1532066143960,-8,-16,13,3,2,1,1,1
1532066143965,-1,1,0,-1,-1,-1,0,-1
1532066143970,0,0,-6,0,0,0,-1,1
1532066143975,0,-1,1,0,-2,-1,0,1
1532066143980,2,1,-8,-3,0,-1,-2,-3
1532066143985,0,1,13,1,0,0,1,0
1532066143990,-1,-1,-2,-1,-1,0,0,-2
1532066143995,-1,1,5,-1,0,0,0,0
1532066144000,1,2,0,0,-2,-2,-2,-1
1532066144005,1,2,0,-1,-1,-1,-1,-2
1532066144010,-2,-1,1,-3,-1,-2,-1,-2
1532066144015,3,7,-2,0,0,-2,-2,-1
1532066144020,-2,-2,-2,-2,-2,-1,-1,-1
1532066144025,0,-11,-61,-7,-2,-3,-2,-6
1532066144030,-2,-1,19,1,0,2,2,2
1532066144035,3,7,6,0,-1,-2,-1,0
1532066144040,5,24,1,-3,-1,-1,-3,-4
1532066144045,-8,-24,-38,-3,-1,-2,-2,-3
1532066144050,0,3,-6,0,0,-2,-2,-2
1532066144055,-3,-5,11,1,0,-1,0,1
1532066144060,1,4,-5,-2,-1,0,-2,-2
1532066144065,1,5,20,1,-2,0,-2,0
1532066144070,1,6,-17,-3,-3,-3,-2,-3
1532066144075,-2,-3,1,-2,-1,-1,0,-1
1532066144080,-1,-6,-11,-2,-1,-2,-1,1
1532066144085,-1,4,16,0,0,-1,-2,0
1532066144090,-1,-4,1,-1,0,0,0,0
1532066144095,0,0,2,0,0,0,0,0
1532066144100,-5,-16,5,1,-2,1,2,1
1532066144105,1,3,13,1,-1,-1,0,-1
1532066144110,1,4,-1,-4,-1,0,-2,-1
1532066144115,-4,-9,2,1,-1,2,1,-1
1532066144120,0,-4,1,-1,0,-1,0,-2
1532066144125,1,4,10,-1,0,0,-1,0
1532066144130,0,0,-4,0,-4,-2,0,-1
1532066144135,2,1,-11,-1,4,-1,-3,-4
1532066144140,-5,-12,4,-1,-6,0,2,2
1532066144145,-1,1,7,0,1,-2,1,0
1532066144150,0,-1,-2,0,-1,0,-1,1
1532066144155,0,-2,-1,-1,-4,-3,-1,-1
1532066144160,0,2,-1,-1,2,-2,-2,-2
1532066144165,-1,1,2,0,1,0,0,-2
1532066144170,0,0,16,0,1,-2,-1,-1
1532066144175,2,4,3,-2,1,3,-1,0
1532066144180,-1,2,-22,-4,-7,-6,-1,0
1532066144185,-1,0,16,-1,-5,-2,1,1
1532066144190,0,-3,-3,-2,2,0,-1,-1
1532066144195,-1,0,2,0,-2,-1,-1,0
1532066144200,2,3,0,0,1,-1,-1,-2
1532066144205,0,7,-13,-2,3,0,0,-3
1532066144210,-4,-8,-4,0,-1,-1,1,-1
1532066144215,-1,-3,-1,-1,-4,-2,2,-1
1532066144220,0,-3,1,2,0,0,-9,-2
1532066144225,-1,-1,1,1,-2,-4,2,1
1532066144230,-1,0,4,7,58,-1,-1,-1
1532066144235,0,1,4,5,-13,7,1,-1
1532066144240,-4,-2,-8,-15,-58,-9,2,5
1532066144245,4,8,-7,-2,-4,0,-4,-3
1532066144250,-3,-2,-5,-3,-14,0,-4,0
1532066144255,0,-2,3,4,18,-3,3,-2
1532066144260,5,11,29,6,21,1,0,-4
1532066144265,0,-2,1,-4,-6,1,-3,1
1532066144270,1,-1,-1,-1,-10,-3,0,0
1532066144275,-2,-4,2,-2,2,-1,-2,-1
1532066144280,-2,-4,-3,3,4,4,1,-1
1532066144285,-3,-8,5,0,1,-1,-1,1
1532066144290,-1,-2,-1,0,-6,1,1,-2
1532066144295,-2,-1,-6,-5,-7,-2,0,-1
1532066144300,-1,-2,-3,0,6,0,-1,1
1532066144305,0,-3,3,1,8,0,0,-2
1532066144310,0,0,-3,-3,-13,0,0,0
1532066144315,-2,0,-2,-2,-7,0,-2,0
1532066144320,1,-1,-1,0,10,1,1,0
1532066144325,-2,0,-2,-2,-13,-4,-1,1
1532066144330,-2,-1,-1,-1,3,0,-1,-1
1532066144335,0,0,0,0,26,-4,-1,-2
1532066144340,0,-1,1,0,-15,2,0,-2
1532066144345,-1,-2,1,4,4,-2,-1,0
1532066144350,-1,1,-2,-1,-5,2,-2,-2
1532066144355,-1,-1,1,0,1,2,1,0
1532066144360,1,0,-1,-4,0,-2,1,-1
1532066144365,-1,0,-2,-3,-6,1,-3,0
1532066144370,-1,-2,-3,-1,5,-4,0,-1
1532066144375,1,0,5,4,1,1,-1,-3
1532066144380,-2,-1,-11,-10,-19,-1,1,1
1532066144385,-1,-5,1,-1,-12,-2,0,1
1532066144390,0,-3,2,4,29,-4,-4,-2
1532066144395,-3,-2,-7,-7,-13,6,2,1
1532066144400,1,1,2,3,-2,-4,-2,0
1532066144405,0,0,1,-1,2,1,-1,0
1532066144410,1,0,1,4,29,-1,-1,0
1532066144415,1,-2,1,-2,-19,1,-2,-2
1532066144420,-1,-1,-2,1,-1,-3,-4,-6
1532066144425,0,-2,-3,0,11,6,1,-2
1532066144430,-3,1,-4,-4,-15,-3,0,0
1532066144435,2,6,-2,-1,-7,-3,0,0
1532066144440,-2,-12,0,0,3,1,1,3
1532066144445,0,-2,3,5,38,-5,-3,-4
1532066144450,-2,-4,-5,0,-8,7,2,2
1532066144455,1,5,-3,-2,-20,1,1,1
1532066144460,0,16,3,0,9,-3,-2,1
1532066144465,-5,-44,-5,-2,-1,-2,-2,-2
1532066144470,0,3,-1,6,-4,0,-1,-4
1532066144475,0,3,0,-8,-42,-1,1,-2
1532066144480,4,16,1,0,-10,-1,2,4
1532066144485,-2,-3,-2,-3,-3,-2,-1,6
1532066144490,-4,1,2,1,7,1,-3,-7
1532066144495,-5,-6,-1,-3,0,-5,-3,-4
1532066144500,3,1,-2,1,-5,-9,-5,-10
1532066144505,-6,6,2,3,2,9,3,3
1532066144510,5,-15,-3,-5,-13,-1,1,3
1532066144515,-1,13,9,6,23,-1,1,5
1532066144520,-6,-25,-6,-12,-18,-2,-3,-3
1532066144525,-2,10,0,3,-10,-5,-1,-6
1532066144530,1,12,2,-15,-37,-1,-1,4
1532066144535,0,-2,1,1,21,0,4,7
1532066144540,-4,-44,0,6,6,6,2,5
1532066144545,-1,0,0,2,-1,-8,-5,-9
1532066144550,-3,15,-4,2,20,-7,-2,-7
1532066144555,-1,-21,-2,-5,-4,3,-6,-4
1532066144560,-5,-21,-1,2,-17,-3,-2,0
1532066144565,1,6,-7,-5,-3,0,0,-1
1532066144570,-1,19,4,6,19,3,2,4
1532066144575,0,-16,6,2,21,-3,1,1
1532066144580,8,26,4,-7,-6,-1,-2,5
1532066144585,-9,-25,-9,-2,-34,3,3,-7
1532066144590,-2,5,-3,1,-16,0,-4,-6
1532066144595,-2,8,1,6,22,0,3,-2
1532066144600,0,7,1,-2,-1,4,4,6
1532066144605,9,14,0,-3,5,-8,-5,-2
1532066144610,-10,-36,0,-5,-9,-2,-2,-2
1532066144615,5,26,-1,-3,-15,-4,-8,-3
1532066144620,0,22,2,6,12,-4,3,7
1532066144625,27,-31,-6,-4,-1,0,1,6
1532066144630,-12,20,-5,9,16,5,-3,-16
1532066144635,-8,1,-1,-2,0,-6,0,-2
1532066144640,-4,-1,1,-6,1,-2,-3,-3
1532066144645,-6,51,13,-2,-7,-2,-1,2
1532066144650,16,-24,4,-3,-12,0,2,7
1532066144655,-1,2,-6,6,3,2,0,3
1532066144660,-1,-23,-9,-6,-4,-2,-1,-4
1532066144665,-7,-4,2,3,6,0,-1,-3
1532066144670,-2,-24,5,9,51,-2,-2,-3
1532066144675,-3,39,-2,-19,-77,3,5,6
1532066144680,9,-3,-6,1,13,-4,-7,-5
1532066144685,-17,38,-7,-5,-12,-4,-3,-13
1532066144690,4,10,5,1,-5,-4,0,1
1532066144695,-8,-58,3,5,31,0,0,-1
1532066144700,12,44,3,2,3,3,-3,1
1532066144705,7,-19,-4,-3,-32,-1,-3,4
1532066144710,-8,-1,1,-1,-1,-2,-1,1
1532066144715,9,61,5,8,37,-3,0,0
1532066144720,-15,-24,-5,-13,-20,2,3,-5
1532066144725,-2,-99,-11,7,40,3,-2,-2
1532066144730,-16,65,10,-7,-28,0,0,2
1532066144735,29,-19,-8,5,-16,-8,-5,-2
1532066144740,0,7,-1,10,54,8,1,-6
1532066144745,2,-11,8,-1,2,1,2,7
1532066144750,4,-8,-9,-1,9,-1,-4,-2
1532066144755,-11,9,7,-11,-52,2,4,1
1532066144760,-14,-30,-5,4,-14,1,-2,-7
1532066144765,-14,0,7,-3,-6,2,0,1
1532066144770,17,9,-6,3,8,0,0,6
1532066144775,1,15,-2,-1,2,-6,-9,-8
1532066144780,-21,-31,2,-2,-8,-5,1,-2
1532066144785,11,46,-11,-2,13,1,-2,-2
1532066144790,-1,-4,11,-3,-23,-6,3,4
1532066144795,-19,-26,-8,10,32,4,-4,-13
1532066144800,19,-50,0,6,41,-5,1,4
1532066144805,-16,17,2,-8,-4,-4,1,-3
1532066144810,30,2,-14,-25,-51,1,-2,6
1532066144815,-11,-15,-5,-12,-29,-4,-6,-1
1532066144820,-11,-29,-3,-5,-12,-1,2,0
1532066144825,5,56,0,11,20,-2,0,1
1532066144830,-6,-59,-10,-3,8,2,-1,-3
1532066144835,6,-35,5,-3,17,2,3,3
1532066144840,7,55,2,3,-10,1,-3,-3
1532066144845,-4,-35,-1,1,-7,-4,-2,0
1532066144850,-21,-4,1,-1,-18,-6,1,0
1532066144855,15,9,-11,10,50,2,-3,0
1532066144860,-9,43,4,-10,-31,-3,-2,-2
1532066144865,11,1,3,-1,26,3,2,2
1532066144870,-22,41,-6,-5,-11,-3,-5,-7
1532066144875,8,-27,-4,-7,-18,-5,-3,0
1532066144880,3,0,4,10,39,-3,0,-1
1532066144885,-4,-46,-11,-21,-59,-4,-3,1
1532066144890,-7,-5,1,6,22,-1,1,-1
1532066144895,3,37,4,4,-1,3,3,2
1532066144900,-8,-34,-6,-2,-1,-1,-3,-5
1532066144905,11,36,8,-3,-6,-1,-1,3
1532066144910,-1,50,-8,-2,-9,-10,-7,-6
1532066144915,-14,-3,9,0,11,-3,-2,-1
1532066144920,3,34,1,0,2,9,4,2
1532066144925,3,-16,1,-10,-17,3,3,1
1532066144930,4,-18,0,3,5,3,1,0
1532066144935,-11,-1,5,0,-1,-9,-2,-4
1532066144940,2,-56,-7,-4,25,-1,-3,0
1532066144945,-4,11,-1,-9,-22,-1,-5,-1
1532066144950,13,24,3,-4,-33,-5,3,0
1532066144955,-9,-23,-5,5,24,-2,-1,-3
1532066144960,2,-9,0,-9,-43,3,0,0
1532066144965,-7,16,-4,9,26,3,6,-2
1532066144970,5,-24,3,9,33,-2,-3,2
1532066144975,-9,-5,-1,-16,-50,1,5,-1
1532066144980,15,32,-2,7,23,-4,-5,5
1532066144985,4,3,-3,-12,-31,-7,-4,-4
1532066144990,-10,-14,6,10,36,-3,-1,-2
1532066144995,6,0,-16,-12,-26,11,1,3
1532066145000,-5,38,4,-1,-6,-4,2,-1
1532066145005,-5,-22,4,8,8,-2,1,-1
1532066145010,10,-16,0,-6,-10,-1,-4,-1
1532066145015,-1,-11,1,1,11,-1,-1,0
1532066145020,-5,54,0,-1,-14,-3,-1,-7
1532066145025,-8,-4,4,9,25,2,-1,-1
1532066145030,7,-16,-4,-3,-10,2,-1,1
1532066145035,2,18,-1,1,6,4,-2,-2
1532066145040,-1,-6,-2,-2,-26,-3,-5,2
1532066145045,-8,-5,7,14,50,1,-1,-2
1532066145050,8,22,3,-12,-18,-4,0,0
1532066145055,1,-9,-7,-2,-26,2,0,4
1532066145060,-3,-17,1,4,7,-4,0,-2
1532066145065,-1,15,0,-12,-12,-3,0,0
1532066145070,0,-24,-2,3,2,3,1,3
1532066145075,0,10,-7,0,5,-4,-1,-2
1532066145080,1,-4,1,0,-2,0,-1,-4
1532066145085,-1,23,3,2,-14,-3,-2,-1
1532066145090,-6,-14,4,9,55,0,3,-5
1532066145095,3,-8,-9,-23,-72,-4,-4,3
1532066145100,-1,-9,2,7,-4,-2,0,2
1532066145105,8,0,-4,0,5,2,-2,0
1532066145110,-2,-1,-4,0,-4,-2,-3,-1
1532066145115,-6,-14,8,11,8,-4,-2,-4
1532066145120,8,20,-3,-2,12,-2,-3,0
1532066145125,5,16,-3,-8,-28,0,-2,-2
1532066145130,-4,-9,-1,4,4,6,2,-2
1532066145135,0,4,3,4,31,-1,-2,1
1532066145140,-3,-8,-2,-5,-19,-1,0,-2
1532066145145,-2,5,5,7,22,-4,-3,-6
1532066145150,-5,2,-9,-4,-31,-1,-2,3
1532066145155,0,24,4,2,11,2,0,-1
1532066145160,0,-17,1,-2,-6,2,2,1
1532066145165,-6,-21,-5,3,-23,4,-1,1
1532066145170,-2,43,-1,5,9,-3,0,-1
1532066145175,-3,-32,-2,2,-2,-1,1,-2
1532066145180,3,0,0,4,34,-1,-3,-1
1532066145185,9,10,-3,-1,-7,2,1,0
1532066145190,-9,-5,0,-12,-13,4,1,-2
1532066145195,-1,-53,3,9,33,-1,-1,-1
1532066145200,1,25,-2,-1,-6,-3,-2,-4
1532066145205,-6,4,-1,-6,-1,0,-3,-1
1532066145210,1,-25,0,-4,-12,-3,-1,-1
1532066145215,-3,13,0,-1,17,1,1,0
1532066145220,0,-23,-4,-2,-15,0,1,0
1532066145225,1,-13,3,-4,-19,-6,-1,1
1532066145230,-6,-1,-2,3,3,2,-1,-2
1532066145235,2,10,0,0,-16,-1,-2,1
1532066145240,-6,-13,0,3,21,0,2,-2
1532066145245,4,2,-5,0,8,-2,-1,-1
1532066145250,-4,-21,-1,-5,-6,-2,-1,-2
1532066145255,2,30,6,4,14,0,0,-2
1532066145260,0,-4,-1,1,6,1,1,1
1532066145265,-6,10,-8,5,19,-3,-5,-4
1532066145270,2,6,4,3,3,0,-2,-1
1532066145275,-3,10,-2,-4,-13,-2,-1,-3
1532066145280,1,1,0,-10,-6,0,-2,0
1532066145285,0,-3,2,1,2,-2,1,2
1532066145290,5,22,0,-2,-2,-1,-2,-2
1532066145295,-3,-34,-8,-1,-15,-1,0,-2
1532066145300,-9,18,4,0,8,-1,0,-2
1532066145305,7,-32,8,9,27,-7,0,-1
1532066145310,4,-7,-14,-17,-35,1,-2,5
1532066145315,1,4,0,11,48,-1,1,-3
1532066145320,-3,-14,-3,-14,-54,-1,-2,0
1532066145325,1,0,-5,8,32,6,0,1
1532066145330,-4,-9,4,5,6,-1,0,-1
1532066145335,4,11,1,-2,-5,-2,-2,-1
1532066145340,-3,16,0,-3,4,1,-1,-5
1532066145345,-8,18,2,0,-3,2,0,-3
1532066145350,-1,-22,2,2,5,-2,0,-1
1532066145355,-5,1,-5,-2,-7,4,0,2
1532066145360,4,6,3,4,6,-3,-1,-2
1532066145365,2,-15,-1,-5,-11,0,2,0
1532066145370,6,9,2,4,18,1,-1,-1
1532066145375,-7,33,1,-7,-28,-7,0,-4
1532066145380,0,-3,-2,6,5,-2,-3,-2
1532066145385,1,-22,-6,0,7,-1,-1,3
1532066145390,5,21,2,-6,-36,-3,-1,0
1532066145395,-5,-32,-2,6,16,1,0,-2
1532066145400,-10,17,0,-1,-1,-2,-2,0
1532066145405,5,-24,1,-4,5,-1,0,2
1532066145410,5,9,-8,-3,-22,2,-1,-2
1532066145415,6,7,3,2,2,1,-3,-1
1532066145420,-9,-23,-1,0,6,2,1,-1
1532066145425,-5,-3,-4,-5,-13,-2,-2,-3
1532066145430,7,-1,2,1,6,-1,-2,2
1532066145435,-1,-3,-1,-4,-8,1,-2,-1
1532066145440,-3,-4,0,-1,3,-1,1,-1
1532066145445,-4,1,1,-1,1,-2,-1,0
1532066145450,-6,-9,-1,-2,1,0,1,-3
1532066145455,7,-17,-6,-1,-7,-1,-2,1
1532066145460,-2,0,-3,-3,2,-3,-1,-1
1532066145465,-5,-35,0,1,3,0,-1,-2
1532066145470,4,31,1,1,2,0,0,-1
1532066145475,-12,-9,-1,-3,-9,0,2,-3
1532066145480,9,3,-3,-1,7,-2,-3,-1
1532066145485,5,26,5,-1,-3,-1,6,0
1532066145490,-7,-23,-12,0,-1,-1,-19,-2
1532066145495,-7,-4,2,0,-5,-1,4,1
1532066145500,0,-15,-3,3,3,-1,2,-1
1532066145505,2,-2,3,0,-1,-1,0,1
1532066145510,3,-14,-7,-1,-2,3,4,1
1532066145515,-1,23,14,1,-2,-2,-2,-1
1532066145520,-8,-9,0,-1,1,-1,-3,-1
1532066145525,9,11,-6,-2,-3,0,2,2
1532066145530,-1,-16,1,1,2,-1,1,-3
1532066145535,3,7,-5,-1,-2,1,-4,-1
1532066145540,-7,-4,4,-1,-2,-1,0,0
1532066145545,8,11,-27,-8,-5,-4,-10,-5
1532066145550,4,3,32,6,0,-1,7,4
1532066145555,-1,27,-11,-5,-3,0,1,-3
1532066145560,-8,-58,8,3,0,1,1,1
1532066145565,-4,-11,-2,0,-1,-1,-1,-1
1532066145570,5,8,-10,-1,1,-2,-1,1
1532066145575,-5,3,-11,-2,-3,0,-2,-4
1532066145580,0,10,-1,-1,1,0,0,1
1532066145585,-3,-4,6,-1,0,2,-2,-1
1532066145590,-1,-6,-1,-1,-2,-2,1,-1
1532066145595,-1,-14,7,0,-1,0,0,0
1532066145600,-1,-3,-4,-1,0,-1,0,1
1532066145605,5,4,12,3,-1,0,-1,0
1532066145610,0,3,-21,-9,-3,1,-1,-4
1532066145615,0,-2,-2,-2,0,1,-3,-1
1532066145620,0,14,-1,4,18,-2,-1,-4
1532066145625,-7,-9,1,-8,-16,0,-3,-2
1532066145630,1,13,-2,3,-6,-4,-1,3
1532066145635,-3,-16,-18,6,34,-4,-3,-1
1532066145640,-10,-14,-13,-27,-35,6,1,-1
1532066145645,9,36,6,9,8,-3,-1,0
1532066145650,-1,2,-2,-5,-4,-2,-2,-1
1532066145655,1,5,2,0,1,-2,-3,-2
1532066145660,-1,-2,-9,-3,-11,-3,-4,-2
1532066145665,-5,-14,-14,-6,-11,-4,1,-1
1532066145670,-1,0,8,7,21,-2,-1,-1
1532066145675,1,7,9,-8,-27,5,1,2
1532066145680,2,1,2,1,-12,-5,-3,1
1532066145685,0,10,-26,-7,-8,-1,-4,-4
1532066145690,-7,-29,4,8,19,-2,4,0
1532066145695,0,-3,2,-5,-1,0,-2,-1
1532066145700,3,20,22,8,-36,-1,1,2
1532066145705,-6,-9,5,-8,-6,0,1,3
1532066145710,-1,-4,-9,-12,-15,-3,-5,-3
1532066145715,-1,-3,3,5,18,-3,-1,-1
1532066145720,3,11,2,0,7,2,-2,0
1532066145725,6,1,37,4,23,0,1,1
1532066145730,-1,-6,3,10,22,5,1,1
1532066145735,0,4,12,-10,-44,-2,1,1
1532066145740,1,1,-4,2,16,-1,0,-1
1532066145745,-1,-4,-3,10,18,1,-1,-2
1532066145750,2,4,0,6,-12,1,-2,0
1532066145755,-2,0,-9,-7,-15,-2,-3,-1
1532066145760,1,8,6,19,81,-4,-2,-3
1532066145765,-6,-15,-18,-40,-85,-4,-2,2
1532066145770,1,5,6,17,20,2,0,-1
1532066145775,-1,5,0,6,22,4,4,1
1532066145780,-2,-6,-3,-10,-20,0,0,0
1532066145785,3,0,30,19,33,0,2,2
1532066145790,2,3,6,-4,-12,-2,-3,-2
1532066145795,2,3,1,0,18,0,-2,-3
1532066145800,-2,-6,-8,-6,-16,-2,1,-1
1532066145805,-1,-1,-4,5,3,2,-1,0
1532066145810,1,4,0,-9,-22,-1,-3,-1
1532066145815,11,17,14,5,7,-2,-5,-1
1532066145820,-5,-2,-11,0,10,0,1,-3
1532066145825,-6,-11,-9,3,8,0,-1,-1
1532066145830,0,-10,9,-8,-16,1,4,4
1532066145835,-2,-3,-2,7,9,-1,1,-1
1532066145840,3,6,1,8,3,2,-1,-2
1532066145845,-1,-5,-11,-8,-38,-1,0,-1
1532066145850,2,14,-8,-2,8,-3,-7,-6
1532066145855,3,1,-15,-15,-13,1,-5,-2
1532066145860,2,-5,6,7,4,-1,-2,-2
1532066145865,3,22,-6,11,71,-7,-5,-6
1532066145870,-12,-24,-12,-45,-69,3,8,3
1532066145875,-4,-4,-13,0,-1,-3,0,1
1532066145880,-3,-7,11,6,15,-3,-2,0
1532066145885,1,9,-4,-7,5,-2,-6,-2
1532066145890,7,18,-12,-5,-6,-7,-5,-5
1532066145895,-6,-16,1,3,-4,2,3,1
1532066145900,-5,-27,-9,-6,-1,4,4,3
1532066145905,-3,-10,-1,7,4,1,2,-1
1532066145910,1,0,7,9,19,0,-1,-2
1532066145915,-2,-7,-3,5,-4,0,1,-2
1532066145920,3,16,1,-3,-18,0,3,0
1532066145925,-1,-3,2,1,-4,2,-1,1
1532066145930,1,-6,27,10,5,7,4,3
1532066145935,0,6,4,5,9,-4,-3,-1
1532066145940,1,6,-5,-5,-5,-3,2,-1
1532066145945,-3,-2,3,-1,-10,1,1,0
1532066145950,0,0,-9,11,26,-4,-1,-3
1532066145955,-5,-4,-4,-16,-30,0,2,1
1532066145960,3,12,-1,-2,-5,-3,-5,-2
1532066145965,-4,-22,1,0,-10,4,3,2
1532066145970,-1,-2,0,7,10,-3,-2,-2
1532066145975,-1,-7,-2,3,4,-1,-1,-2
1532066145980,0,-3,2,2,-6,0,-2,0
1532066145985,0,4,1,-6,-12,-3,-5,-2
1532066145990,-2,-5,-8,-3,-6,-2,0,-2
1532066145995,0,-3,2,-3,-10,-1,2,0
1532066146000,1,6,-7,-2,7,-2,-2,0
1532066146005,-1,-2,0,5,12,2,1,-1
1532066146010,-2,-4,0,-1,-8,-3,-1,0
1532066146015,0,2,-1,-2,5,1,-2,-2
1532066146020,0,2,-2,1,2,0,-1,0
1532066146025,0,-1,3,3,19,-3,0,0
1532066146030,0,1,-3,-11,-24,1,-1,-1
1532066146035,0,-3,-3,-1,-5,-1,0,0
1532066146040,-1,-1,-3,-5,2,0,-1,0
1532066146045,-1,2,12,3,-2,2,0,0
1532066146050,-1,-1,-4,0,-1,-1,-1,-2
1532066146055,0,0,-8,-2,5,-1,-3,-3
1532066146060,1,3,3,2,5,0,-2,-1
1532066146065,-1,-4,-2,1,14,-1,0,0
1532066146070,-1,-2,-6,-10,-22,-3,-2,0
1532066146075,-1,-3,-2,4,15,2,-1,-1
1532066146080,-2,-6,4,-3,-13,-2,-1,-1
1532066146085,0,2,-5,-1,-6,0,-2,-2
1532066146090,-4,-9,-2,6,44,-3,0,-2
1532066146095,-1,-1,-5,-9,-29,0,1,-2
1532066146100,0,-3,2,-2,1,-3,0,-1
1532066146105,0,0,-4,-2,-1,1,-1,-3
1532066146110,1,1,-1,0,-2,-1,0,-1
1532066146115,-1,-2,0,-5,5,-1,-2,-3
1532066146120,-3,-5,-9,-2,3,1,-3,0
1532066146125,-1,2,-2,-6,-10,-1,1,0
1532066146130,1,3,0,1,-7,-3,-1,-1
1532066146135,-1,-2,-1,0,-1,-1,0,0
1532066146140,-1,-3,0,2,-1,-2,-1,-2
1532066146145,3,3,5,1,4,0,-2,-1
1532066146150,-3,-5,1,1,-1,0,-1,-2
1532066146155,0,1,-3,3,-1,0,1,-1
1532066146160,-1,-1,3,-3,-6,0,-2,2
1532066146165,0,0,-4,0,-3,-1,-2,-1
1532066146170,0,-6,3,0,-6,0,1,0
1532066146175,-2,-1,0,3,8,0,-1,0
1532066146180,1,0,-2,1,7,1,1,-2
1532066146185,-3,-14,11,5,22,0,2,1
1532066146190,2,5,-2,-1,-27,3,1,1
1532066146195,-2,-1,-1,1,3,-1,-1,0
1532066146200,-2,-2,0,0,1,0,-1,0
1532066146205,-2,3,-8,-5,-11,-2,-2,0
1532066146210,-2,1,3,0,10,0,-2,-1
1532066146215,-1,-1,-6,-6,-7,-1,-1,0
1532066146220,-2,-1,-2,-2,-7,0,-1,-1
1532066146225,0,2,3,8,18,-2,1,-1
1532066146230,-1,-1,-9,-4,-13,2,-1,1
1532066146235,0,1,1,-1,-13,-2,-2,-2
1532066146240,0,1,0,-1,5,-2,0,-1
1532066146245,1,1,-3,-3,-9,0,-2,-2
1532066146250,-1,2,3,3,13,-3,0,-1
1532066146255,0,-1,-2,0,2,-2,-2,-2
1532066146260,0,-2,0,-2,-1,0,0,-3
1532066146265,0,0,0,4,28,-1,-1,-2
1532066146270,-2,-1,-7,-14,-36,-2,-3,1
1532066146275,0,0,1,1,1,-2,-2,-1
1532066146280,-2,-1,-2,2,-1,1,1,0
1532066146285,1,0,-1,-6,-12,-3,-4,-3
1532066146290,0,2,1,10,30,-4,-3,-3
1532066146295,0,0,0,-6,-13,3,2,2
1532066146300,0,0,-1,0,7,-5,-4,-1
1532066146305,-3,-5,-7,-9,-41,1,3,1
1532066146310,-1,-2,1,1,4,1,0,1
1532066146315,-1,1,3,3,7,-3,-3,-4
1532066146320,0,-1,4,3,42,-2,-3,-2
1532066146325,0,1,-1,0,-33,3,-1,-1
1532066146330,-2,-2,1,4,-7,-5,0,-1
1532066146335,-2,-1,-4,-3,19,0,0,-4
1532066146340,0,1,-9,-12,-29,-2,-1,0
1532066146345,0,0,5,2,10,-2,0,0
1532066146350,-1,1,-2,0,2,-1,-3,0
1532066146355,1,1,2,-2,3,-3,-3,1
1532066146360,0,-1,5,7,1,4,5,0
1532066146365,-2,-3,-6,6,27,3,4,-1
1532066146370,2,4,-1,-10,1,-2,-1,-2
1532066146375,-3,-3,0,-7,-32,-2,-1,0
1532066146380,-1,-2,2,25,9,-4,-6,-2
1532066146385,-1,2,-5,-2,-7,1,-1,2
1532066146390,3,3,13,-4,12,4,-2,-3
1532066146395,0,2,-4,-1,-13,-6,12,-1
1532066146400,-3,-8,-18,-20,-22,-2,-17,-1
1532066146405,-1,-2,7,10,2,1,3,1
1532066146410,0,1,2,3,8,-4,-3,-2
1532066146415,-1,-1,-2,-11,-5,0,-1,-1
1532066146420,0,-5,-10,1,-21,5,9,-3
1532066146425,-4,-6,-5,-10,-6,-8,-3,2
1532066146430,-7,-23,-40,-23,-45,-2,2,-2
1532066146435,-1,-2,10,21,67,0,-2,1
1532066146440,0,7,-2,-36,-39,-4,0,-1
1532066146445,0,-2,12,30,9,3,-2,-4
1532066146450,3,10,10,-8,-20,2,3,-1
1532066146455,-4,-5,-26,-19,-112,8,3,0
1532066146460,-2,-2,-12,-25,21,-6,0,2
1532066146465,4,-6,15,48,37,18,1,-8
1532066146470,-6,-6,-17,-27,-82,-27,-3,5
1532066146475,3,-4,27,9,52,5,2,-3
1532066146480,-2,-1,-16,16,6,-4,0,-7
1532066146485,0,23,-14,-26,-9,-1,-3,1
1532066146490,-5,-20,-1,31,15,0,3,2
1532066146495,-1,-9,2,-4,-20,0,-6,-3
1532066146500,4,-1,13,-17,-32,-1,3,-1
1532066146505,-5,-5,0,3,-2,-5,-3,0
1532066146510,5,12,7,0,9,7,1,-1
1532066146515,3,14,43,53,96,-4,-6,-5
1532066146520,-2,-4,-29,-31,-14,-3,1,4
1532066146525,1,-7,-8,-47,-89,1,4,3
1532066146530,1,6,19,21,19,3,0,-1
1532066146535,-1,-5,-7,5,-19,-8,-2,-2
1532066146540,4,18,20,13,55,1,-6,-4
1532066146545,0,1,19,20,35,-12,-7,-11
1532066146550,-4,-5,-8,-58,-47,8,4,3
1532066146555,-6,-6,-36,-30,-67,-11,-2,7
1532066146560,6,25,-34,0,-5,-2,-9,-3
1532066146565,-12,-58,52,4,-13,6,16,14
1532066146570,0,-5,17,36,49,-3,1,-5
1532066146575,1,-4,-9,-8,-13,-1,-3,-4
1532066146580,-1,-10,-7,-6,-10,2,2,1
1532066146585,7,21,-13,6,8,-3,-8,-4
1532066146590,3,5,10,27,35,1,-7,-3
1532066146595,-3,-8,-5,5,-9,8,11,6
1532066146600,2,3,9,19,3,5,6,1
1532066146605,4,14,-3,19,74,3,-2,-5
1532066146610,-1,3,4,-36,-77,-7,-4,0
1532066146615,-1,3,-23,-15,-7,-2,-8,-6
1532066146620,0,-8,22,29,63,12,4,-4
1532066146625,1,5,-4,2,-14,0,-6,-6
1532066146630,0,-2,-1,-10,-32,-10,0,-1
1532066146635,-1,2,1,13,18,8,5,6
1532066146640,-3,-17,8,-5,-15,-1,2,1
1532066146645,-2,-5,-12,-16,-17,0,-4,0
1532066146650,6,9,10,30,15,-7,-2,-9
1532066146655,2,9,7,-15,29,-12,-4,-1
1532066146660,-12,-12,-3,-23,-52,-6,-9,3
1532066146665,-1,6,-19,-31,-61,12,11,7
1532066146670,1,-1,0,7,29,5,4,-2
1532066146675,0,1,7,27,5,-4,2,-3
1532066146680,-2,-4,1,-2,1,-6,-5,-1
1532066146685,0,2,-5,-5,-8,-9,-11,-5
1532066146690,-3,-5,-5,-7,2,7,4,3
1532066146695,1,-6,-6,8,72,17,1,-2
1532066146700,-2,0,1,0,-11,-7,-4,-1
1532066146705,0,2,-1,15,3,5,1,-3
1532066146710,-1,-1,0,-11,-26,-9,0,-1
1532066146715,-1,0,-10,-51,-23,0,-7,0
1532066146720,1,5,8,8,9,-5,-2,0
1532066146725,-4,-10,-6,-1,10,3,2,1
1532066146730,5,16,17,26,50,7,1,-1
1532066146735,-2,-4,-4,-15,-45,-19,-16,-13
1532066146740,0,-7,7,-2,55,8,12,0
1532066146745,3,7,0,4,-12,13,9,5
1532066146750,-4,-1,-3,51,58,7,-2,2
1532066146755,-4,-4,1,-86,-48,-10,-6,-3
1532066146760,2,4,4,23,19,0,-4,-4
1532066146765,1,7,3,3,24,0,-8,-6
1532066146770,-1,-9,-14,-36,-6,2,-2,-1
1532066146775,1,4,5,39,15,-3,4,2
1532066146780,1,-5,16,-4,-42,-6,-2,2
1532066146785,-4,-3,-5,-26,-24,-2,0,3
1532066146790,-4,-2,-3,25,6,-2,-5,-2
1532066146795,-2,-4,13,34,17,0,3,5
1532066146800,3,23,-3,-6,-25,-10,-7,-5
1532066146805,-2,0,4,16,28,-1,-4,-2
1532066146810,-5,-14,-10,-1,12,-2,1,2
1532066146815,-3,-2,-3,15,-20,-5,-1,-3
1532066146820,0,-5,3,-5,-11,-1,1,0
1532066146825,3,4,-5,12,70,5,1,-4
1532066146830,1,9,-9,-15,-13,-6,-10,-5
1532066146835,-2,0,-2,7,-12,3,2,1
1532066146840,-4,-1,-10,-11,-16,2,1,1
1532066146845,0,-5,9,9,-7,-7,-1,-2
1532066146850,0,-2,-3,3,-6,3,1,1
1532066146855,1,16,-8,8,-21,1,-2,-2
1532066146860,2,18,-19,-9,-6,-5,-11,-8
1532066146865,-11,-19,-22,2,-20,-7,1,-2
1532066146870,-6,-22,10,-13,-13,3,5,4
1532066146875,-2,-1,5,17,9,1,0,-2
1532066146880,2,2,10,32,19,-7,1,1
1532066146885,0,8,-27,-52,-47,-7,-6,-1
1532066146890,1,8,-3,-7,-25,-7,-10,-4
1532066146895,-4,-21,21,15,20,-6,5,-4
1532066146900,-2,-9,6,34,14,6,8,6
1532066146905,4,12,-11,-32,-27,-11,-8,-1
1532066146910,0,3,5,-3,9,-1,2,-1
1532066146915,9,29,10,2,-20,-8,-6,-2
1532066146920,-6,-14,13,9,3,5,6,2
1532066146925,-6,-17,-36,-16,-15,2,1,-1
1532066146930,1,1,23,29,10,-4,5,0
1532066146935,-4,-6,-28,-82,-51,15,9,9
1532066146940,0,-3,4,-37,12,-1,-6,-4
1532066146945,-2,-7,-5,-8,34,0,-7,-9
1532066146950,-1,-6,-34,-30,4,3,-1,-5
1532066146955,-3,-6,21,34,21,3,-6,3
1532066146960,0,-4,-4,-50,-1,7,-3,-3
1532066146965,3,16,7,14,-26,-7,1,5
1532066146970,0,-10,-10,6,7,-6,0,-1
1532066146975,-3,-6,-27,-52,-34,13,8,2
1532066146980,-4,-3,-8,17,9,-2,-3,-1
1532066146985,4,7,14,24,-1,-6,-3,-2
1532066146990,-2,-15,29,-15,-18,1,3,6
1532066146995,-4,-10,4,27,8,-2,3,2
1532066147000,0,3,4,-16,-22,-5,-1,0
1532066147005,-1,-10,-3,1,-5,6,6,2
1532066147010,2,8,-1,0,19,1,-2,-1
1532066147015,0,-5,-8,-1,-4,-5,-5,-1
1532066147020,0,-6,-1,9,1,0,2,-3
1532066147025,1,7,21,8,14,-1,-3,0
1532066147030,0,12,-2,-32,-26,1,-3,-3
1532066147035,2,3,-4,39,69,0,-1,-4
1532066147040,-1,-2,-10,5,-7,-7,-3,-2
1532066147045,-2,-4,1,7,-53,6,6,6
1532066147050,-3,-1,-12,-49,16,5,-4,-2
1532066147055,1,-2,1,8,11,1,1,-3
1532066147060,5,12,-9,-34,-20,-4,5,-3
1532066147065,-5,-13,9,17,19,-7,-8,-5
1532066147070,0,2,3,17,5,-2,-2,2
1532066147075,8,5,5,-18,-25,-8,-4,5
1532066147080,-29,-7,-7,25,15,2,0,-14
1532066147085,7,10,18,0,5,0,1,-3
1532066147090,-4,1,-20,6,-12,-3,-1,-1
1532066147095,18,1,8,-3,-10,-4,-5,2
1532066147100,-17,-1,1,8,-5,-3,-6,-7
1532066147105,11,-1,-10,0,15,7,7,4
1532066147110,-5,3,9,5,-6,-2,0,1
1532066147115,-1,-7,-5,4,-2,-1,1,0
1532066147120,15,1,34,3,2,1,-1,7
1532066147125,-6,4,1,-12,-4,-2,-3,-2
1532066147130,7,3,7,16,4,-4,-2,-1
1532066147135,0,1,-15,4,-8,-3,-1,-4
1532066147140,3,-8,-16,-4,-4,0,0,3
1532066147145,1,8,8,-5,-2,-2,-6,-3
1532066147150,-2,-11,17,5,-5,0,2,2
1532066147155,-11,-8,-23,2,-4,-3,-3,-5
1532066147160,4,6,-2,-16,-5,-1,-2,0
1532066147165,-8,-12,19,21,12,1,3,4
1532066147170,1,3,-32,-27,-5,0,0,-1
1532066147175,-6,1,13,7,9,-2,-2,-4
1532066147180,4,-2,-12,-13,-32,-1,-3,1
1532066147185,-2,-6,-18,-17,-6,-4,1,0
1532066147190,-3,3,8,20,-2,-2,0,0
1532066147195,-2,-2,0,-14,-8,-2,0,-1
1532066147200,4,1,-16,10,21,5,3,0
1532066147205,-1,-10,31,33,43,1,0,3
1532066147210,-5,-3,-4,-12,-60,5,1,2
1532066147215,-3,2,-12,-7,-7,-7,-4,-4
1532066147220,0,-9,7,-1,9,1,1,2
1532066147225,-2,5,-9,-11,-7,-2,-3,-3
1532066147230,-1,-3,-15,10,46,-4,-2,-5
1532066147235,2,15,-1,-12,-29,-1,-6,1
1532066147240,0,1,-3,-5,-9,0,-1,1
1532066147245,-3,-5,11,16,2,2,4,2
1532066147250,1,-1,-12,-43,-3,-3,-1,-6
1532066147255,-2,1,5,15,2,4,-1,1
1532066147260,11,-12,-9,11,-2,-6,-8,7
1532066147265,-22,0,-10,-24,-14,-3,-8,-10
1532066147270,-3,-5,11,31,9,3,3,1
1532066147275,5,17,-10,-21,-23,-6,-5,-7
1532066147280,-3,-8,1,0,17,10,10,4
1532066147285,16,9,4,14,-6,-1,-3,3
1532066147290,-10,-14,3,27,-8,3,1,1
1532066147295,-1,7,0,-8,12,-6,-5,-5
1532066147300,4,9,15,5,-4,-7,-4,0
1532066147305,-1,7,-24,-10,-7,2,0,-2
1532066147310,-2,-4,0,8,14,1,2,-1
1532066147315,-2,-14,19,20,39,5,8,2
1532066147320,-4,-4,-15,-19,-30,2,2,1
1532066147325,1,8,-11,1,39,-3,-4,-3
1532066147330,4,13,-14,-30,-58,-4,-8,0
1532066147335,-3,1,-9,6,1,0,-1,1
1532066147340,-1,1,6,8,1,2,0,-4
1532066147345,-3,-3,-10,-15,-25,-7,-1,2
1532066147350,5,1,15,10,49,-4,-1,-1
1532066147355,-2,-3,10,-17,-30,6,1,1
1532066147360,-2,8,4,15,9,-10,-5,-6
1532066147365,2,-5,0,-13,1,7,2,1
1532066147370,-2,-4,-3,5,4,1,0,1
1532066147375,2,0,-16,-7,2,-2,-1,-4
1532066147380,-11,-28,16,6,7,0,3,3
1532066147385,-1,-5,6,-4,-12,-3,0,0
1532066147390,3,7,7,4,14,1,-3,-3
1532066147395,0,8,-7,-13,-14,-2,1,1
1532066147400,-5,-9,-17,3,-4,2,3,-2
1532066147405,1,-6,14,5,-5,1,1,1
1532066147410,0,8,5,0,4,-3,-5,-2
1532066147415,-1,-3,4,2,2,0,0,1
1532066147420,1,5,-4,1,5,1,0,-1
1532066147425,0,0,0,-2,-7,-1,-1,-1
1532066147430,3,4,-8,-5,-9,-6,-3,-3
1532066147435,-3,-8,7,7,27,9,1,1
1532066147440,-1,1,-9,-13,-28,-4,-2,2
1532066147445,-2,-2,0,4,38,-1,-1,-1
1532066147450,1,0,4,-15,-41,0,-1,-1
1532066147455,0,-1,-3,-12,-35,0,1,0
1532066147460,-2,-5,-11,0,3,-2,-2,-2
1532066147465,-2,-6,-2,0,-11,-1,-2,-1
1532066147470,2,4,7,5,10,1,-2,-1
1532066147475,-1,-2,-1,-1,-4,0,-2,0
1532066147480,0,4,-2,1,5,-1,0,0
1532066147485,0,-3,3,-1,0,-1,0,1
1532066147490,1,4,-4,-6,-3,-1,-3,-3
1532066147495,0,-3,-4,-1,-2,0,0,-3
1532066147500,0,3,-3,2,-3,0,0,1
1532066147505,-2,-6,-7,1,7,-3,1,-1
1532066147510,1,1,5,1,-19,3,10,0
1532066147515,0,-2,-1,6,-7,-1,-15,0
1532066147520,-2,0,7,-2,8,-3,-3,-1
1532066147525,-2,-3,-6,-3,-7,0,2,2
1532066147530,-1,4,-3,2,13,0,-1,-2
1532066147535,-1,-5,-8,-2,-1,-2,-2,0
1532066147540,-1,-2,8,-1,3,0,-2,0
1532066147545,-1,-2,-3,3,-2,0,3,-2
1532066147550,0,-3,-3,3,23,-1,-2,-2
1532066147555,2,9,3,-12,-24,-4,1,-2
1532066147560,0,0,0,4,7,0,-4,-1
1532066147565,-1,-7,-9,-7,-9,-5,1,-1
1532066147570,1,5,4,7,23,5,3,0
1532066147575,-1,9,-6,-2,-5,-2,-2,-1
1532066147580,-2,-13,5,0,-3,1,0,0
1532066147585,1,1,3,0,4,-1,-1,-1
1532066147590,0,1,-4,0,-6,1,2,-2
1532066147595,0,-3,4,7,24,0,-3,-1
1532066147600,3,3,11,-11,-28,-2,-1,1
1532066147605,0,-2,-1,-1,4,1,2,0
1532066147610,1,-1,0,1,-8,0,-1,0
1532066147615,4,10,6,6,16,-1,-1,-3
1532066147620,-11,-28,-21,-11,-9,-3,-3,0
1532066147625,-1,1,7,3,0,0,3,1
1532066147630,-2,-1,0,-3,-5,-2,-2,-1
1532066147635,-1,-5,1,2,-3,-3,-1,-1
1532066147640,5,13,-16,5,16,0,-3,-4
1532066147645,-4,-8,2,-1,1,0,0,2
1532066147650,-1,-5,-9,-12,-32,-2,-1,0
1532066147655,1,-3,5,3,-6,-1,1,1
1532066147660,-2,2,-2,8,8,0,1,0
1532066147665,0,2,3,-2,2,-2,-1,-1
1532066147670,-5,-9,1,0,5,2,2,1
1532066147675,-3,-7,1,-2,1,2,0,-1
1532066147680,3,9,-3,-3,4,-1,-3,-2
1532066147685,-3,-15,4,4,1,-1,1,1
1532066147690,-2,-2,2,0,-1,0,0,0
1532066147695,-1,-1,2,0,-2,1,0,-1
1532066147700,-2,-2,1,5,18,1,-1,-3
1532066147705,1,7,-8,-15,-33,-2,-1,0
1532066147710,0,-6,13,4,4,2,1,-1
1532066147715,-2,-4,8,0,-10,0,-1,0
1532066147720,-1,-3,-13,-3,2,-3,-2,-2
1532066147725,1,4,-3,10,47,0,-1,-3
1532066147730,-1,2,-10,-21,-40,-2,-3,1
1532066147735,-1,-1,-5,0,0,-2,-1,0
1532066147740,2,1,3,0,-3,1,-1,0
1532066147745,-2,2,-4,-3,-9,-3,-3,-1
1532066147750,0,1,-5,7,17,-2,-2,-2
1532066147755,0,4,-5,-1,2,2,-1,-1
1532066147760,-3,-4,7,-2,-10,-6,-2,0
1532066147765,2,1,-1,3,4,4,2,-2
1532066147770,2,5,4,3,8,-1,-1,-1
1532066147775,1,0,-2,-4,-7,0,-1,1
1532066147780,0,1,1,1,-3,-5,-2,-1
1532066147785,-3,3,-1,-3,-1,0,0,-2
1532066147790,-4,-6,0,2,3,2,2,-1
1532066147795,1,1,1,8,32,-1,-1,-1
1532066147800,-2,-6,12,-11,-30,1,2,0
1532066147805,2,2,-1,0,-5,-2,-4,-2
1532066147810,3,5,-2,2,1,-2,-1,-2
1532066147815,-3,-6,4,1,17,0,0,-1
1532066147820,2,6,3,14,46,2,-1,-2
1532066147825,-2,0,-9,-14,-42,1,-1,1
1532066147830,-2,-3,-3,1,-1,-1,-2,0
1532066147835,-2,-2,-1,-3,-11,-1,0,1
1532066147840,-2,1,-4,-3,-1,-3,-2,0
1532066147845,1,2,2,4,14,-2,0,-2
1532066147850,0,10,-16,-5,-1,-5,-4,-3
1532066147855,-5,-11,-5,-2,-14,-1,1,-1
1532066147860,1,0,-1,2,1,0,0,1
1532066147865,1,0,-13,-4,-10,-2,-2,0
1532066147870,-5,-10,-3,0,3,5,4,-1
1532066147875,-2,-12,9,-6,-23,-4,0,2
1532066147880,0,-3,2,6,23,1,-1,-1
1532066147885,-2,-3,-5,-1,-7,0,0,-1
1532066147890,0,4,-3,-2,4,-2,-2,-1
1532066147895,1,6,6,-1,-7,0,-1,-2
1532066147900,2,12,19,-1,-3,-4,-2,1
1532066147905,-4,-8,0,-3,1,0,-1,0
1532066147910,2,1,1,-3,-3,-2,0,0
1532066147915,-1,2,4,2,11,1,0,-1
1532066147920,1,1,-1,0,7,-2,-1,-2
1532066147925,1,4,-4,-3,-5,-2,0,0
1532066147930,-3,-1,-1,-4,-3,-2,-2,-2
1532066147935,0,2,-9,0,-4,-2,-1,-1
1532066147940,-1,-6,-10,2,-4,0,-1,0
1532066147945,0,2,3,0,1,0,-1,-1
1532066147950,-2,-7,0,-3,-9,0,0,0
1532066147955,0,1,-3,-1,-3,-3,-1,0
1532066147960,-1,-2,6,7,37,-1,0,-1
1532066147965,-3,-1,4,-10,-33,2,2,-1
1532066147970,3,6,-1,-3,-4,1,-2,-1
1532066147975,-1,6,6,0,-2,-1,-3,-2
1532066147980,-1,-1,-1,-1,4,-2,-1,-1
1532066147985,1,-1,-1,4,13,0,-1,-1
1532066147990,0,-2,4,2,4,1,0,-2
1532066147995,0,0,-3,0,6,-2,-3,-2
1532066148000,-1,-3,0,1,18,1,-1,-2
1532066148005,-1,-1,-6,-5,-30,-6,-2,1
1532066148010,0,3,11,1,-3,0,0,0
1532066148015,0,1,-2,0,4,0,1,0
1532066148020,-1,-1,-3,-3,-9,-1,-1,0
1532066148025,-1,-7,-1,0,7,-1,0,-3
1532066148030,-1,0,-3,0,2,-1,-1,1
1532066148035,0,-2,-2,2,22,-3,-2,0
1532066148040,0,1,0,-1,-35,2,2,-1
1532066148045,0,5,2,1,2,-2,0,-2
1532066148050,-2,-2,-4,1,-3,-1,-1,-2
1532066148055,0,-2,0,-2,-1,-1,-1,-1
1532066148060,-2,-1,-9,-1,3,-4,-2,0
1532066148065,1,-2,7,3,9,-1,-1,-2
1532066148070,-1,0,-4,-8,-26,-3,-1,0
1532066148075,-2,-1,4,2,-6,0,1,-1
1532066148080,-1,-4,-3,0,15,-1,2,-1
1532066148085,-1,-1,-6,0,-15,-1,-1,1
1532066148090,0,-1,4,6,4,0,0,-2
1532066148095,1,0,-3,-12,-17,-2,-2,1
1532066148100,0,-2,1,-3,-7,-1,-2,-2
1532066148105,-1,-1,-1,-4,1,2,0,-1
1532066148110,-1,-2,-4,3,10,-1,-1,1
1532066148115,0,-1,-3,3,1,0,0,-2
1532066148120,0,-1,1,2,1,0,-2,0
1532066148125,0,1,-3,-9,-14,-2,-1,-2
1532066148130,0,-1,1,-3,-5,0,-1,-1
1532066148135,-1,-2,-1,0,-4,1,0,0
1532066148140,0,-2,2,3,43,0,-2,0
1532066148145,-1,1,-1,-4,-21,-3,0,-2
1532066148150,-1,-2,-4,-2,-5,-2,-1,1
1532066148155,0,1,0,4,6,2,0,-1
1532066148160,-1,-2,-2,-9,-29,-4,1,-1
1532066148165,-1,0,1,3,18,1,-2,1
1532066148170,-2,0,-2,-3,-1,0,-2,0
1532066148175,-1,-2,-1,-1,10,-2,1,-1
1532066148180,0,-2,-4,0,-13,-1,-2,-1
1532066148185,-1,-1,0,0,1,-3,-1,-1
1532066148190,0,0,2,4,16,0,0,-2
1532066148195,-5,-5,-9,-9,-19,-2,-1,0
1532066148200,-2,-2,-3,-7,-20,-4,0,0
1532066148205,1,-1,2,4,6,-6,-4,-1
1532066148210,0,-1,0,-1,-10,2,5,-4
1532066148215,2,3,4,8,24,9,3,1
1532066148220,-3,-2,-2,-4,-3,-1,-3,-1
1532066148225,-1,-1,-1,-2,8,-5,-2,0
1532066148230,0,1,-2,-2,-5,-6,0,-2
1532066148235,-1,-2,0,-2,-14,-4,-5,-3
1532066148240,-2,-2,-1,-5,-2,-2,-2,-2
1532066148245,-1,0,-4,0,1,-3,-4,-1
1532066148250,-1,0,-2,-1,-17,0,2,-1
1532066148255,0,-2,0,3,6,1,-3,-2
1532066148260,0,0,-2,0,0,2,3,1
1532066148265,-3,-2,-3,-2,6,3,1,1
1532066148270,0,0,-3,-2,3,0,1,0
1532066148275,-1,-1,1,-1,-8,-11,-4,-5
1532066148280,-2,1,2,3,18,-5,-4,-2
1532066148285,-3,-3,-8,-5,-12,12,4,4
1532066148290,0,1,2,2,4,2,3,1
1532066148295,-2,-6,1,2,14,-4,-4,-2
1532066148300,-2,-1,1,-10,-39,-8,-3,-1
1532066148305,0,0,1,8,22,5,2,0
1532066148310,-3,0,0,-4,7,3,-2,-2
1532066148315,1,-1,-2,-5,-11,-2,-1,2
1532066148320,-2,-3,0,2,0,2,-1,-2
1532066148325,1,1,1,-2,-4,-3,-2,-1
1532066148330,-2,-1,-1,-1,-4,-4,-2,-1
1532066148335,0,0,2,-2,1,0,-3,-1
1532066148340,1,2,0,1,-2,0,1,-1
1532066148345,1,0,0,0,-8,-4,-4,-3
1532066148350,-2,-4,-4,-3,6,-4,-1,0
1532066148355,-2,0,2,0,-10,2,1,1
1532066148360,1,-1,-1,1,0,2,1,0
1532066148365,-1,3,4,2,1,0,-1,-2
1532066148370,0,-2,-4,0,3,-2,-1,0
1532066148375,0,0,-1,0,0,1,2,0
1532066148380,1,-4,-3,0,3,3,-1,0
1532066148385,-1,-2,2,-1,3,-3,-3,-1
1532066148390,-2,-1,-1,-1,-2,-7,-5,-3
1532066148395,-1,0,-1,-4,-23,-5,-1,-2
1532066148400,-1,0,2,1,13,12,4,-1
1532066148405,-2,-3,-6,-3,8,-2,-3,-1
1532066148410,-4,-1,-1,-3,-5,-5,-3,-2
1532066148415,1,-1,-1,-4,-13,0,2,0
1532066148420,1,-1,0,0,12,6,1,0
1532066148425,-1,-2,-4,1,-1,0,1,-1
1532066148430,0,1,0,1,4,0,-2,-1
1532066148435,-2,0,-3,-2,-1,-5,-3,-1
1532066148440,-1,0,-1,1,-5,-5,-3,0
1532066148445,-1,-1,-3,-3,-1,-4,-3,-3
1532066148450,-2,-5,-3,2,-10,-1,2,1
1532066148455,-1,1,0,-3,-9,2,1,-1
1532066148460,-1,2,1,4,19,3,1,0
1532066148465,2,2,2,3,-2,2,1,-1
1532066148470,-2,-3,-4,0,3,-4,1,-1
1532066148475,1,2,3,3,-1,5,1,-2
1532066148480,0,2,0,-1,4,0,1,2
1532066148485,-3,-2,-3,-3,0,-7,-4,-2
1532066148490,0,0,-1,-2,-11,-8,-5,-1
1532066148495,3,0,1,2,5,8,3,0
1532066148500,-1,-1,-3,-1,-1,1,3,0
1532066148505,1,-1,-2,-1,9,0,0,-2
1532066148510,-2,-3,-2,-2,-6,-2,-4,-1
1532066148515,-2,-1,-3,-3,-2,-1,1,0
1532066148520,-1,-1,0,0,2,-2,-3,0
1532066148525,-2,-2,-4,-3,-8,-6,-4,-2
1532066148530,1,0,2,1,-10,10,5,-1
1532066148535,1,-1,-2,0,11,13,5,2
1532066148540,1,-1,-3,-1,8,-3,-2,-2
1532066148545,-2,-4,-6,-2,4,-8,-5,-2
1532066148550,-1,-2,-1,-3,-16,-8,-4,-2
1532066148555,-1,-2,0,-3,-6,-6,-5,-4
1532066148560,-4,-7,-2,-4,-9,-6,-4,-3
1532066148565,2,3,2,4,14,22,7,2
1532066148570,2,5,0,4,27,23,17,4
1532066148575,-1,0,-3,1,-1,-9,0,1
1532066148580,-1,-2,1,-4,-9,-9,-6,-2
1532066148585,-1,-3,0,-2,-9,-13,-7,-1
1532066148590,0,-2,1,-3,-3,1,-2,-2
1532066148595,0,-1,1,0,5,-1,0,0
1532066148600,0,-1,-1,-1,-5,-4,-3,-2
1532066148605,-2,-2,-3,-3,-4,-5,-5,-2
1532066148610,0,1,1,-2,-10,-3,0,0
1532066148615,0,-1,-1,0,4,3,-1,0
1532066148620,1,0,2,1,0,3,2,-2
1532066148625,1,-1,-2,0,11,5,2,0
1532066148630,-4,-3,-4,-4,-8,-29,-10,-3
1532066148635,-3,-3,2,-4,-25,-19,-9,-4
1532066148640,1,0,0,0,10,23,7,2
1532066148645,0,1,-2,4,16,16,8,3
1532066148650,-1,1,-2,0,4,-4,-1,0
1532066148655,0,-1,-1,-3,-8,-3,-3,-1
1532066148660,-4,-2,-2,-7,-16,-29,-11,-4
1532066148665,-1,-1,4,-3,-23,-14,-9,-4
1532066148670,5,3,2,5,38,52,16,3
1532066148675,-1,2,-3,5,20,18,13,4
1532066148680,0,0,-4,-1,5,2,4,2
1532066148685,-3,-2,-2,-2,-10,-20,-6,-2
1532066148690,-3,-4,-2,-8,-26,-24,-15,-6
1532066148695,-2,-2,0,-2,-2,2,-6,-1
1532066148700,2,0,0,3,5,7,4,0
1532066148705,0,1,-2,-1,0,-6,0,0
1532066148710,-2,-2,0,1,-3,-8,-5,-1
1532066148715,0,-1,-1,-1,-5,-1,-2,0
1532066148720,-1,1,0,0,-3,-3,-1,-1
1532066148725,1,-1,-1,1,6,7,3,1
1532066148730,-1,0,-3,-1,-8,-4,-1,-2
1532066148735,-2,-2,-1,-3,-10,-8,-4,-2
1532066148740,2,0,2,1,0,-10,1,-1
1532066148745,0,1,0,-1,14,27,0,-2
1532066148750,-3,1,-2,-1,0,-7,3,1
1532066148755,-1,-1,0,-2,-5,-7,-2,-2
1532066148760,-1,-1,-1,-2,-1,0,-1,0
1532066148765,-1,-2,-2,-1,-2,-7,1,-1
1532066148770,-1,-3,-1,-4,-9,-4,-6,-2
1532066148775,0,0,0,0,4,5,2,0
1532066148780,0,0,-1,1,2,4,4,1
1532066148785,-2,-1,0,-1,-5,-11,-2,0
1532066148790,0,0,-1,-1,1,8,-1,-1
1532066148795,-1,1,1,1,1,-5,0,0
1532066148800,-2,-4,-1,-3,-4,-3,-4,-2
1532066148805,0,-1,1,-4,-7,0,-3,-3
1532066148810,0,0,-2,3,4,5,3,1
1532066148815,1,2,-2,2,5,7,6,2
1532066148820,-1,0,-2,1,7,8,2,0
1532066148825,-2,-2,-3,-3,-11,-15,-3,0
1532066148830,-3,-3,1,-4,-6,-12,-12,-4
1532066148835,1,0,1,1,9,23,3,-1
1532066148840,0,1,-1,2,5,4,5,4
1532066148845,0,0,-2,0,1,-1,0,0
1532066148850,-1,-2,1,-2,-5,-12,-1,-2
1532066148855,-1,-3,-1,-2,-10,-13,-7,-4
1532066148860,-1,1,-1,0,-2,4,-2,-2
1532066148865,0,-1,0,-1,3,1,1,-1
1532066148870,-1,-1,-2,-1,-1,-1,-2,0
1532066148875,0,-1,0,-2,-4,-6,-3,0
1532066148880,-1,-1,-2,-1,-2,0,0,-2
1532066148885,-1,0,-1,1,2,3,-1,0
1532066148890,-1,-1,-3,1,-1,-2,1,-1
1532066148895,-2,0,-1,-2,-2,-3,-2,0
1532066148900,-1,1,1,-1,0,-3,-1,-2
1532066148905,-1,-2,-2,-1,1,-1,1,1
1532066148910,0,-3,0,-1,0,1,0,0
1532066148915,-1,-2,0,-1,-4,-4,-1,-2
1532066148920,-1,-1,-1,-2,-2,1,-3,-1
1532066148925,-1,0,0,-1,0,2,0,-2
1532066148930,0,0,0,-1,-1,1,1,0
1532066148935,0,-2,-2,-1,-2,-2,0,-2
1532066148940,0,1,-1,-1,-1,0,0,-1
1532066148945,-1,0,-1,0,1,2,2,-1
1532066148950,-1,-1,-2,-1,0,-2,0,0
1532066148955,-2,-2,0,-1,-2,-2,-3,-1
1532066148960,1,-1,1,-1,0,1,-1,0
1532066148965,0,-1,0,-1,0,-1,-1,0
1532066148970,0,1,-1,-1,-2,-2,0,-2
1532066148975,0,0,-2,0,-2,-1,-1,1
1532066148980,-1,0,0,-2,0,-2,0,-1
1532066148985,-1,-1,-1,-2,-2,1,2,-1
1532066148990,-1,1,-1,0,-1,-1,-2,-1
1532066148995,0,0,0,-2,-1,-1,-1,-2
1532066149000,0,-2,0,-2,-3,-2,-2,0
1532066149005,0,0,-1,-1,0,0,-2,0
1532066149010,-1,0,2,-3,-2,-1,-2,0
1532066149015,-1,0,-1,0,-2,-2,-2,0
1532066149020,1,-2,-2,-1,-1,-1,-1,0
1532066149025,0,-1,0,1,0,-1,0,-2
1532066149030,0,0,0,-2,0,1,1,0
1532066149035,0,-1,-1,-1,-1,-2,0,-2
1532066149040,-2,-1,0,0,0,-2,-3,-1
1532066149045,-1,1,0,-1,0,1,0,-2
1532066149050,-1,0,-1,2,-1,0,-1,0
1532066149055,0,0,-2,-2,0,0,-2,1
1532066149060,-2,-1,0,0,-1,-1,0,-1
1532066149065,0,-1,0,0,2,-2,1,0
1532066149070,0,1,-1,-2,0,-1,0,-1
1532066149075,-1,-1,-1,-1,-1,1,0,-2
1532066149080,0,-1,-2,-1,-1,0,-1,0
1532066149085,-1,-2,0,0,0,0,-1,-1
1532066149090,1,-2,-2,-1,-1,0,0,-1
1532066149095,-2,0,-1,-1,1,0,-1,0
1532066149100,-1,0,-1,-2,-1,1,-1,-2
1532066149105,-2,0,-1,1,0,-1,-2,1
1532066149110,-1,-1,0,-1,0,0,1,0
1532066149115,0,-1,0,0,0,-2,-2,-2
1532066149120,-1,-2,1,-1,-1,1,-1,-1
1532066149125,-1,-1,-1,-1,-1,1,-1,-2
1532066149130,-1,-2,0,-3,-1,-1,0,0
1532066149135,-2,-2,1,-1,2,-2,1,-1
1532066149140,1,-1,-1,-1,-2,-1,0,-1
1532066149145,-2,1,-2,-2,-3,-1,0,-1
1532066149150,0,-2,-1,1,0,-1,0,0
1532066149155,-2,-1,0,-1,-2,-2,-1,-1
1532066149160,-1,0,1,0,1,-1,0,-2
1532066149165,0,-2,-2,-2,0,-2,-3,-2
1532066149170,-1,1,-1,0,-1,0,-2,1
1532066149175,-1,0,-2,1,-1,1,0,0
1532066149180,-3,-1,0,-1,-2,-1,-1,0
1532066149185,0,-1,1,-1,0,0,0,-1
1532066149190,1,-1,0,-1,-1,-1,2,-2
1532066149195,0,-2,0,-1,-3,0,0,0
1532066149200,-1,1,-1,0,-2,-1,0,0
1532066149205,-2,0,-1,0,-3,1,0,-1
1532066149210,-1,0,0,-1,-1,-2,-3,0
1532066149215,0,-2,0,-1,-2,1,-3,-2
1532066149220,-2,0,-1,0,0,-1,-1,-1
1532066149225,0,-1,0,-1,1,0,-1,-1
1532066149230,0,-2,-1,-1,-3,0,-1,0
1532066149235,-1,0,-1,1,-3,2,0,0
1532066149240,-1,0,0,0,0,-1,0,-1
1532066149245,0,-2,0,1,-2,0,-1,-2
1532066149250,-2,-1,-1,-3,1,-3,-2,-2
1532066149255,-1,-1,0,-1,0,-2,-1,-2
1532066149260,1,-3,-2,-3,-2,-1,0,0
1532066149265,-2,0,-1,0,-2,-3,-2,0
1532066149270,-4,0,-1,1,-1,-1,-1,-2
1532066149275,-1,0,-1,-1,-1,-2,0,-1
1532066149280,0,0,-2,-1,0,-1,-1,-1
1532066149285,-1,1,-1,-1,0,-1,0,-2
1532066149290,0,0,1,-1,-1,-2,-2,-1
1532066149295,1,-1,0,0,-2,-2,1,1
1532066149300,-1,0,-1,1,-1,0,1,0
1532066149305,1,-2,-2,-1,-1,-2,-1,0
1532066149310,0,-3,-1,1,-1,-2,-2,1
1532066149315,1,-1,0,-2,-1,-1,0,-2
1532066149320,1,-2,1,-2,0,-3,0,-1
1532066149325,-1,-1,0,-2,1,-2,-1,-2
1532066149330,0,0,-2,-1,-2,0,-1,-1
1532066149335,-1,0,0,-2,-1,-3,-1,0
1532066149340,0,-2,0,-1,-1,-2,-1,0
1532066149345,-2,-1,-1,-1,-1,-1,-1,0
1532066149350,0,-1,0,-2,-3,-1,-1,-1
1532066149355,-1,0,-1,0,-1,-2,0,-2
1532066149360,-1,0,-1,-1,-1,1,-2,-1
1532066149365,-1,-1,0,-2,-2,-3,0,-1
1532066149370,-1,-1,-2,0,-1,0,0,-1
1532066149375,-1,0,-2,-1,-1,0,-1,-2
1532066149380,-1,-2,-1,0,-1,0,25,0
1532066149385,0,-1,-2,-1,-2,-2,-31,-2
1532066149390,-1,0,-1,-1,0,-2,1,0
1532066149395,2,1,-2,1,-2,-1,0,1
1532066149400,-1,-2,-1,0,-2,-2,-2,-1
1532066149405,-1,-2,0,0,-1,0,8,0
1532066149410,1,-2,-1,-2,0,-1,-1,0
1532066149415,-2,-1,-1,-2,-1,-3,-4,0
1532066149420,0,-1,0,-2,-2,-2,-5,0
1532066149425,0,0,1,-1,-1,-1,4,0
1532066149430,-2,-1,0,-1,-1,-1,-6,-2
1532066149435,-2,0,-1,-2,1,1,4,0
1532066149440,1,0,-1,-1,-2,-1,-6,-1
1532066149445,-1,-2,0,0,1,-1,2,1
1532066149450,-1,-2,-1,-2,-1,-3,2,0
1532066149455,1,-1,-1,-1,-1,-1,-1,-1
1532066149460,-1,-1,0,0,1,-2,-5,-3
1532066149465,-1,0,-1,-2,-2,-1,2,-2
1532066149470,-1,-1,-1,-1,-2,0,0,0
1532066149475,-1,-2,-1,-1,-1,0,-1,0
1532066149480,0,0,0,-1,-2,-2,-7,-2
1532066149485,0,0,-1,0,-1,-1,3,-2
1532066149490,-1,0,-1,-1,0,0,0,0
1532066149495,-1,0,-1,-3,2,0,-3,-2
1532066149500,-1,0,0,1,-1,0,-1,1
1532066149505,-1,-1,-1,0,0,0,0,-1
1532066149510,0,0,-1,-2,-2,0,-1,-1
1532066149515,0,0,0,-1,-1,0,-1,-1
1532066149520,-1,-2,-1,-2,-1,-1,-1,0
1532066149525,0,-1,0,-1,0,0,2,-2
1532066149530,-1,-1,1,-1,0,-1,-1,-1
1532066149535,0,0,0,-1,-1,0,0,0
1532066149540,-1,0,0,-3,0,0,-1,0
1532066149545,0,0,-1,-1,0,-2,2,0
1532066149550,1,-1,0,0,-1,-1,-1,-3
1532066149555,-1,-2,-1,-1,-1,-2,0,0
1532066149560,0,-3,-1,-1,-1,-1,-2,-1
1532066149565,1,-2,0,-1,-1,0,-2,-3
1532066149570,0,0,-1,-2,1,-2,-1,-1
1532066149575,-2,0,-1,0,-1,-1,-2,-2
1532066149580,0,0,-1,-2,-1,-2,-2,0
1532066149585,-3,-1,-2,-1,0,0,0,-1
1532066149590,-2,0,0,1,0,-1,0,-1
1532066149595,-1,-2,-1,0,-1,-1,-1,-1
1532066149600,0,0,-2,-1,1,-3,-3,-2
1532066149605,0,-1,-1,-1,-2,0,0,-1
1532066149610,1,-2,0,0,0,0,-1,0
1532066149615,-1,-2,-1,0,-2,-2,-1,0
1532066149620,0,-1,0,1,0,0,-1,0
1532066149625,-2,1,-1,0,-2,-1,0,1
1532066149630,0,0,-1,0,-1,-1,-1,-1
1532066149635,0,-1,0,0,0,-1,2,0
1532066149640,-2,-2,0,-1,-1,-1,-1,-2
1532066149645,-1,-1,-2,0,-1,-2,-2,1
1532066149650,0,0,-1,-1,-1,1,0,-1
1532066149655,-1,-2,0,0,-1,-1,-2,0
1532066149660,-2,1,-2,-1,-1,0,0,-1
1532066149665,-1,-1,-1,-1,-1,-1,2,-1
1532066149670,0,0,-3,-2,1,-1,0,0
1532066149675,0,-1,0,1,1,0,-1,-1
1532066149680,-1,-1,-1,1,-1,-1,-2,0
1532066149685,-1,0,-1,-2,1,0,-1,0
1532066149690,-2,0,-1,-1,0,-1,0,0
1532066149695,0,-2,0,0,0,1,0,-3
1532066149700,0,0,-1,-1,1,-1,1,-2
1532066149705,-2,-1,-1,-1,0,-1,2,1
1532066149710,-1,-1,0,-1,1,0,0,-1
1532066149715,1,0,-1,0,2,-1,1,0
1532066149720,-1,0,-1,-1,2,2,0,-1
1532066149725,0,-1,-2,-2,3,2,0,0
1532066149730,-1,-2,0,-1,4,0,0,-2
1532066149735,-1,0,0,-1,6,-1,0,0
1532066149740,1,-1,1,-2,8,1,0,0
1532066149745,-1,0,3,-1,7,0,0,0
1532066149750,0,-1,-1,0,8,1,1,-1
1532066149755,0,-1,-2,-1,4,6,0,0
1532066149760,-1,0,-1,-2,2,7,1,1
1532066149765,0,-1,0,-1,0,6,4,-1
1532066149770,-1,-2,-1,0,-3,10,4,-1
1532066149775,0,0,0,-2,-7,12,6,-1
1532066149780,-1,-1,0,0,-7,10,8,-1
1532066149785,-1,-1,-2,-1,-7,10,9,0
1532066149790,0,-2,-2,-1,-7,-3,8,1
1532066149795,1,0,-3,-1,-5,-5,2,-2
1532066149800,1,1,-3,-1,-5,-5,-3,-1
1532066149805,0,0,-2,0,-3,0,-8,-2
1532066149810,0,0,-3,-1,-7,2,-6,-2
1532066149815,0,0,-3,-2,-6,-16,-6,-2
1532066149820,0,-1,-2,0,-5,-7,-8,0
1532066149825,-1,-1,-1,0,-4,-4,-7,-1
1532066149830,1,-1,-2,-2,-4,-6,-13,-1
1532066149835,-1,-1,0,1,-6,-15,-9,0
1532066149840,-2,-1,-1,-2,-6,-21,-6,-1
1532066149845,2,-1,0,-1,-7,-21,-6,-1
1532066149850,-2,-1,0,-1,-5,-14,-4,-1
1532066149855,-2,0,0,0,-5,-4,-5,-1
1532066149860,-1,0,0,-2,-4,-3,-4,-1
1532066149865,-1,-1,0,-3,-3,1,-4,-2
1532066149870,-1,1,0,-2,-2,4,-3,0
1532066149875,-1,-1,0,0,-2,7,-1,0
1532066149880,0,-2,-1,-1,-1,7,-2,-3
1532066149885,-2,0,0,0,-1,6,-1,0
1532066149890,0,0,0,0,-2,5,0,-1
1532066149895,-2,-1,-1,-1,-1,4,0,-1
1532066149900,0,-2,-1,-2,-2,2,0,0
1532066149905,0,0,-1,0,-1,-2,-1,-1
1532066149910,0,-2,-2,-1,-1,-4,0,-2
1532066149915,-1,0,-1,0,0,1,0,0
1532066149920,1,-1,0,0,-1,0,0,0
1532066149925,-2,-3,0,-2,-2,-4,-2,-1
1532066149930,-2,0,-1,-1,-1,2,0,1
1532066149935,0,0,0,-2,-1,6,0,-2
1532066149940,-1,0,-1,0,1,12,0,-1
1532066149945,-1,-2,-1,1,0,14,0,-1
1532066149950,0,0,1,0,1,10,0,0
1532066149955,-1,-1,0,-2,-2,13,0,0
1532066149960,-1,-1,-2,1,-1,7,1,-1
1532066149965,0,0,2,-1,0,4,-1,-2
1532066149970,-1,-1,0,-2,-1,3,-2,-1
1532066149975,1,-2,0,-2,1,4,1,-2
1532066149980,-2,-2,0,0,-1,-3,6,-2
1532066149985,0,-1,-2,0,-3,-15,3,-1
1532066149990,-1,-1,-1,-1,0,-16,2,0
1532066149995,-1,0,0,-1,0,-16,-1,0
1532066150000,0,-1,1,-2,-1,-14,0,0
1532066150005,-1,-1,-1,0,1,-11,9,-2
1532066150010,1,-3,0,0,0,-8,4,-1
1532066150015,-1,0,-2,0,1,-7,-1,-1
1532066150020,-1,-1,-2,-1,0,-5,-6,2
1532066150025,0,-1,-1,-1,0,-4,-7,1
1532066150030,-1,0,-4,-1,1,-4,-4,-1
1532066150035,-1,-1,-1,0,2,-6,-2,-1
1532066150040,1,0,-1,-1,3,-7,-5,-2
1532066150045,0,-1,-2,-2,1,-4,-6,-1
1532066150050,-1,0,-1,0,1,-3,-3,-1
1532066150055,-1,-1,-1,-1,1,-3,-5,0
1532066150060,-1,0,-1,-1,0,-2,-1,1
1532066150065,0,-1,1,1,-2,1,-4,0
1532066150070,-1,-1,-2,0,2,-1,-2,0
1532066150075,-1,-1,-1,-1,2,-1,0,0
1532066150080,-1,-2,-1,-1,-2,-1,0,-1
1532066150085,-2,0,-1,0,0,2,-2,-1
1532066150090,1,-2,0,-1,-1,0,-1,0
1532066150095,0,-2,0,0,-1,0,-1,0
1532066150100,0,-1,-2,-1,0,1,-2,-1
1532066150105,0,1,-2,-1,1,-3,0,-1
1532066150110,-1,0,1,1,-1,-2,11,-1
1532066150115,-1,0,-2,-1,-2,-2,-19,-2
1532066150120,-1,-1,0,1,-1,-1,1,-2
1532066150125,1,0,-1,-1,-2,0,-4,-1
1532066150130,0,-1,0,-1,-1,-1,4,-2
1532066150135,-1,-2,0,0,-2,0,5,0
1532066150140,-1,-1,0,-1,-1,-2,-2,1
1532066150145,0,-2,-1,-1,-1,0,4,0
1532066150150,-2,-1,0,-1,-1,0,-5,0
1532066150155,-2,0,-1,-2,0,-1,3,0
1532066150160,-2,-1,-1,-1,0,0,-3,-3
1532066150165,-1,-2,-1,0,1,-1,3,-1
1532066150170,0,-1,-1,0,0,-1,-4,-2
1532066150175,0,-1,0,0,-1,0,-1,-1
1532066150180,-2,0,0,-1,0,1,6,-1
1532066150185,-1,0,-2,-1,-2,1,1,-1
1532066150190,-1,0,-1,0,-2,0,-2,0
1532066150195,-1,1,0,-2,1,0,4,-1
1532066150200,0,1,0,1,-1,0,-1,2
1532066150205,0,-1,0,0,-2,1,-2,-2
1532066150210,0,0,-1,-2,-1,0,-3,1
1532066150215,0,-2,-1,-1,-2,1,3,-2
1532066150220,-2,-2,-1,-1,0,0,0,0
1532066150225,0,0,0,0,2,-1,-2,1
1532066150230,-1,0,0,0,-1,2,0,-1
1532066150235,-1,-1,-1,0,-1,1,-1,-2
1532066150240,0,0,-1,-1,-1,1,-1,-2
1532066150245,-2,-1,-1,-1,-2,0,2,0
1532066150250,-3,-2,0,-1,0,1,-1,-2
1532066150255,-1,-2,0,-1,-1,0,1,1
1532066150260,1,-2,-2,-1,-1,0,0,-1
1532066150265,0,0,1,-2,-2,0,-2,-1
1532066150270,0,-2,-1,-1,0,-1,-2,0
1532066150275,-1,0,-1,-1,0,0,1,-3
1532066150280,0,0,-1,0,-1,-1,-1,-1
1532066150285,-1,-2,-1,0,-1,0,1,-1
1532066150290,0,-2,-1,-1,-2,0,-1,0
1532066150295,-1,-1,-1,-1,0,-1,1,-1
1532066150300,-2,-1,1,-2,-1,0,-1,0
1532066150305,-2,-1,-2,-2,0,-2,-1,-1
1532066150310,-1,0,1,0,-1,-1,-1,-1
1532066150315,-3,-2,-1,-1,-1,-1,0,0
1532066150320,-2,0,-1,-2,0,-1,-2,-1
1532066150325,0,-2,0,-1,0,-1,0,-1
1532066150330,1,-1,-1,-1,-2,0,-1,-1
1532066150335,0,-1,-2,0,-1,-2,0,-2
1532066150340,-1,-3,1,-1,-1,0,0,0
1532066150345,-2,-3,0,0,1,0,0,0
1532066150350,-1,-1,-3,-2,-1,-1,0,-1
1532066150355,-2,-2,-1,-1,-1,2,-1,-1
1532066150360,0,-1,-2,1,-1,-1,-2,-2
1532066150365,-1,1,0,-1,0,-1,0,-1
1532066150370,-1,0,0,0,-2,2,-1,-2
1532066150375,0,0,-1,0,0,1,2,0
1532066150380,-1,-1,-1,-1,0,0,2,-1
1532066150385,0,-1,-2,-1,-2,-2,-1,-1
1532066150390,-1,1,-1,-1,2,-1,-1,1
1532066150395,1,0,-1,0,0,0,-1,-1
1532066150400,-1,0,-1,-3,-1,-1,0,-1
1532066150405,1,1,0,0,0,-1,-1,0
1532066150410,0,-1,0,-2,0,-2,0,-1
1532066150415,-1,0,-1,-1,-1,0,-1,-1
1532066150420,-1,-1,-2,0,0,0,-1,-1
1532066150425,0,-2,-2,-1,-1,0,2,-1
1532066150430,-1,0,0,0,-3,-1,-1,-1
1532066150435,-1,-1,-1,0,-1,2,0,0
1532066150440,1,-1,-1,-1,-1,-2,-1,-1
1532066150445,-1,0,0,-1,-1,0,-2,0
1532066150450,0,-1,-1,-1,-2,0,-1,0
1532066150455,-2,1,-2,0,0,-1,-2,-3
1532066150460,-1,-2,-1,1,0,0,0,-2
1532066150465,-2,-2,-1,0,1,0,-2,0
1532066150470,2,-3,-1,-2,-1,0,0,0
1532066150475,0,1,-1,-1,-1,2,-2,0
1532066150480,-1,-3,-1,-2,-1,1,-2,-1
1532066150485,0,0,-2,-2,1,-3,-3,-3
1532066150490,-2,-1,1,0,0,0,-3,0
1532066150495,-1,-1,1,-3,0,-1,-2,-2
1532066150500,0,0,1,-1,1,-2,1,0
1532066150505,0,1,-1,1,-3,-1,1,0
1532066150510,0,0,-2,-1,0,-4,-2,-1
1532066150515,0,-1,1,-1,-1,-1,-1,-1
1532066150520,-2,0,0,-2,-3,-1,-1,0
1532066150525,0,-1,1,-2,-1,0,-3,-1
1532066150530,-1,-1,1,-1,0,1,-1,0
1532066150535,0,-2,-2,0,-2,1,-1,0
1532066150540,0,-2,0,0,-1,1,-2,-2
1532066150545,-1,-1,0,-1,-2,-1,1,-3
1532066150550,-1,-1,-1,2,-1,0,-1,-2
1532066150555,-2,-1,0,-1,0,-1,0,-3
1532066150560,-1,0,-1,-1,-3,-1,-2,-3
1532066150565,-1,0,0,-1,-2,0,-3,-1
1532066150570,0,-2,-1,-2,-3,1,-1,-1
1532066150575,-1,-1,-1,0,-2,-4,0,-1
1532066150580,-3,1,0,1,-1,-5,0,0
1532066150585,0,-1,-1,0,0,-2,1,-1
1532066150590,0,-1,-2,-1,-1,-3,-1,-2
1532066150595,1,-1,-2,1,-1,-1,-1,-2
1532066150600,-1,0,-1,0,-1,-1,-2,0
1532066150605,-2,-2,-2,1,-1,-1,-1,1
1532066150610,-1,0,-1,-2,-1,-1,-1,-1
1532066150615,-1,-1,1,-1,0,-1,-2,1
1532066150620,0,0,0,-1,1,0,-1,0
1532066150625,1,-1,0,-1,-2,0,-2,0
1532066150630,-1,-1,-1,1,0,1,0,-2
1532066150635,0,-1,0,-1,-1,2,0,1
1532066150640,0,0,-2,-1,-1,0,-1,1
1532066150645,-2,-2,-3,0,-1,0,1,0
1532066150650,0,1,0,-1,0,0,-1,0
1532066150655,-3,-1,0,-2,-1,0,0,-1
1532066150660,1,-1,-1,-1,1,0,-3,0
1532066150665,-1,-1,0,-1,0,0,-1,-2
1532066150670,-1,-2,-4,1,-1,-1,-2,0
1532066150675,-1,-1,-1,0,-1,0,-2,0
1532066150680,1,-2,0,-1,-2,1,0,-1
1532066150685,0,0,-1,0,-2,-2,-1,-1
1532066150690,-1,-1,0,0,0,-1,-2,0
1532066150695,0,0,0,-1,-1,-2,-2,0
1532066150700,-1,-1,-2,-1,-2,-3,-1,-1
1532066150705,-1,0,0,-1,-1,-4,-1,-1
1532066150710,-1,-1,-1,-1,-2,-1,0,-1
1532066150715,0,-1,0,0,0,-2,0,-1
1532066150720,-2,-1,0,1,-1,-1,-2,-1
1532066150725,-2,0,-2,-1,1,-1,-1,-2
1532066150730,-1,-1,0,-2,-2,-1,-1,0
1532066150735,0,-1,0,1,-1,0,-1,-2
1532066150740,-1,-4,-2,0,-3,0,0,0
1532066150745,-1,-2,1,1,0,-1,-1,-1
1532066150750,2,-1,1,-1,-1,-1,0,-1
1532066150755,0,-1,-1,-2,-3,-2,1,0
1532066150760,1,0,-1,-3,-1,-2,0,-1
1532066150765,-1,-2,-1,0,-1,1,-1,-2
1532066150770,-2,0,0,-2,-1,-1,-1,-2
1532066150775,-2,-1,-2,-1,-1,0,-2,0
1532066150780,-1,-1,0,-1,-1,-1,0,-1
1532066150785,0,-1,0,-1,-1,0,-2,0
1532066150790,-1,0,-1,-3,-1,2,0,-3
1532066150795,-1,-1,0,0,0,-4,-2,-1
1532066150800,-1,-1,0,0,0,1,1,-1
1532066150805,-1,-2,-2,-1,-1,1,0,-1
1532066150810,1,-3,0,-1,-1,-1,0,-2
1532066150815,0,-1,1,-1,0,0,-1,0
1532066150820,-1,-1,0,0,-4,-1,0,1
1532066150825,0,1,0,0,3,-1,-1,0
1532066150830,0,-1,-2,-1,2,-1,-1,0
1532066150835,-1,0,-2,-2,-1,-2,0,-2
1532066150840,-1,-1,-1,-1,-2,0,-3,0
1532066150845,-1,-2,-1,-2,-1,0,0,-1
1532066150850,-1,0,-1,0,0,1,1,-1
1532066150855,-3,-1,-1,-1,-1,0,-1,0
1532066150860,1,0,-2,-4,-3,-2,0,0
1532066150865,-1,-1,0,-1,-3,-3,-2,-1
1532066150870,1,-1,1,5,4,3,0,0
1532066150875,0,0,-1,-1,-4,-1,-1,-1
1532066150880,-1,-1,0,1,7,1,0,0
1532066150885,-1,-1,-2,-3,-1,0,-1,0
1532066150890,-2,-1,-2,-3,-6,-9,-5,0
1532066150895,0,-1,-1,1,-1,2,-3,-1
1532066150900,-1,-1,-1,-2,-3,-1,-1,-2
1532066150905,0,-1,-1,-1,2,1,2,-1
1532066150910,-1,1,2,4,-5,-2,1,0
1532066150915,-1,-1,-1,1,3,0,0,-1
1532066150920,0,-1,-2,-9,5,2,1,0
1532066150925,0,0,3,-1,2,0,0,1
1532066150930,-1,-1,-3,-4,-3,1,2,0
1532066150935,1,-1,0,2,-6,-5,-1,0
1532066150940,0,-1,-1,-4,-1,-2,-4,-4
1532066150945,-3,-2,-4,-2,-2,-2,-2,-2
1532066150950,-1,0,2,15,-1,0,-3,0
1532066150955,-1,0,-1,-2,25,2,2,-2
1532066150960,-3,-1,-1,4,-18,-1,0,-1
1532066150965,-2,0,-1,-8,-14,-1,-1,-1
1532066150970,-1,-1,-2,-12,1,1,0,-3
1532066150975,0,0,-2,2,-6,-1,-2,-1
1532066150980,1,0,1,6,10,0,0,-1
1532066150985,0,0,0,-1,2,-1,2,-1
1532066150990,-2,0,-3,-5,-3,2,-2,2
1532066150995,-1,0,-1,-2,0,0,-2,-2
1532066151000,0,-2,1,-1,-4,-1,-2,-1
1532066151005,0,0,0,1,-1,-4,-1,-2
1532066151010,-1,-3,-2,-4,1,-3,-1,-1
1532066151015,-2,-1,-1,-3,0,-1,-1,-1
1532066151020,-3,-2,0,3,-4,-3,-2,-2
1532066151025,0,0,0,0,11,-2,-1,-1
1532066151030,0,1,3,0,11,4,2,-1
1532066151035,-5,-4,-4,14,-19,-3,-4,2
1532066151040,-1,-2,3,-18,-6,0,0,1
1532066151045,-2,-1,-3,4,-4,-2,0,-1
1532066151050,1,-1,3,-4,1,-4,-4,0
1532066151055,1,1,-2,-6,0,-1,4,-1
1532066151060,2,1,-3,-10,3,-2,0,-1
1532066151065,-1,0,2,24,2,-1,5,0
1532066151070,-2,-1,-2,-4,-6,-1,-3,-1
1532066151075,-2,-2,2,-1,-1,2,-1,-1
1532066151080,-3,-1,-2,-2,2,-1,-4,-1
1532066151085,1,1,1,0,1,-3,-2,2
1532066151090,-2,-1,0,11,-10,-12,-3,-2
1532066151095,0,2,3,16,1,-1,-1,-1
1532066151100,1,-1,-6,-1,7,-2,0,0
1532066151105,-2,-2,0,-6,-4,-2,-1,0
1532066151110,-1,-2,-2,20,1,2,-5,-2
1532066151115,-1,-1,0,-16,-9,-1,-1,3
1532066151120,1,3,7,21,10,5,-2,-1
1532066151125,2,-2,-4,-7,-5,2,-4,-1
1532066151130,-1,1,1,1,16,-2,-2,-1
1532066151135,0,-3,-3,2,1,7,0,0
1532066151140,-4,-1,-3,-6,-9,-4,-3,0
1532066151145,2,1,-2,-15,5,5,3,-2
1532066151150,0,-2,-3,18,-1,-5,2,-2
1532066151155,-2,-3,0,-30,-13,-6,-4,-2
1532066151160,-1,-3,-4,-12,2,1,-9,0
1532066151165,-2,-2,-2,14,-3,-3,10,1
1532066151170,3,3,-4,-6,6,4,5,0
1532066151175,1,1,1,-19,1,-1,1,-2
1532066151180,-4,-5,-12,-6,-21,-2,0,0
1532066151185,-3,-1,11,28,-14,-5,-5,-1
1532066151190,0,-1,6,14,3,3,-2,1
1532066151195,1,1,-1,9,-5,-3,2,-1
1532066151200,-2,-4,-1,-3,10,-2,-1,-2
1532066151205,2,1,6,-15,11,-1,2,-4
1532066151210,-6,-4,-23,-45,-9,0,0,3
1532066151215,1,0,9,73,7,1,-2,-2
1532066151220,-4,-2,-2,-36,-46,0,-2,1
1532066151225,0,1,-3,-1,-12,-4,-4,1
1532066151230,1,-2,-5,-65,-9,0,-9,1
1532066151235,3,2,-4,-17,15,0,4,-2
1532066151240,3,1,2,14,33,0,5,-4
1532066151245,1,0,-5,28,21,2,4,2
1532066151250,0,1,5,-11,-16,0,2,-4
1532066151255,-3,-2,-5,-11,7,0,-5,0
1532066151260,0,-1,7,27,-9,-3,-1,-4
1532066151265,0,1,2,-22,6,1,-3,2
1532066151270,3,0,-1,11,3,-2,-2,-5
1532066151275,-4,-1,1,22,-11,-3,0,-1
1532066151280,-3,0,-1,-57,-1,-2,0,-1
1532066151285,3,2,1,1,7,2,3,-1
1532066151290,-5,-8,-17,-28,-21,-8,-4,-1
1532066151295,-3,-3,-4,-26,-23,-5,-8,0
1532066151300,4,2,1,9,23,3,-1,-1
1532066151305,-6,-5,0,29,-6,1,-4,-5
1532066151310,2,2,5,16,0,2,3,0
1532066151315,0,2,2,-11,-3,-4,2,-2
1532066151320,0,-1,-5,12,1,-4,-7,4
1532066151325,-2,-1,1,-21,-8,0,9,0
1532066151330,0,1,-3,19,6,2,5,-4
1532066151335,0,-2,-1,-1,-8,-2,-1,0
1532066151340,0,0,2,3,3,-2,-2,-3
1532066151345,0,-2,-2,-12,-8,-6,-3,-2
1532066151350,-2,-1,6,19,6,-4,-6,-2
1532066151355,-2,-1,0,-16,-7,-1,4,0
1532066151360,0,0,3,6,5,6,4,1
1532066151365,-1,-2,-7,-6,11,-1,-3,2
1532066151370,1,0,3,7,-23,-3,-3,-1
1532066151375,0,-2,-5,-7,-10,-1,-1,0
1532066151380,-2,0,4,17,8,-3,1,-1
1532066151385,-3,-6,-10,-9,-11,-4,-5,-2
1532066151390,2,1,11,19,15,1,1,0
1532066151395,-2,-3,-10,-17,-5,2,2,-3
1532066151400,1,-1,2,6,-4,1,-4,-1
1532066151405,0,-1,-2,-1,2,0,1,1
1532066151410,0,2,-4,4,5,0,-1,0
1532066151415,-2,-2,10,-1,-13,-16,-12,-2
1532066151420,-3,-3,-6,1,-7,-5,7,0
1532066151425,-1,3,8,6,-12,0,-7,-2
1532066151430,6,4,-1,7,26,23,12,2
1532066151435,-3,1,7,23,20,21,16,9
1532066151440,3,2,-7,13,19,8,6,5
1532066151445,-5,0,6,-22,-11,-11,-2,-7
1532066151450,-1,1,-11,-11,-16,-14,-2,-1
1532066151455,0,-6,6,-11,-5,-4,-3,-4
1532066151460,-3,-3,7,-7,-7,-10,-7,-4
1532066151465,-1,1,-26,-6,9,9,1,1
1532066151470,-2,-10,-7,-7,-1,0,1,-1
1532066151475,-6,-17,-11,-7,-3,-2,-6,-4
1532066151480,-2,0,8,1,-7,-2,0,2
1532066151485,2,5,-6,-16,-3,-2,-3,-3
1532066151490,1,6,13,21,6,-5,-2,5
1532066151495,2,4,-23,-20,-10,9,0,-4
1532066151500,-1,-1,0,-14,-11,-8,-4,-1
1532066151505,1,-1,16,4,-5,1,-5,-4
1532066151510,-4,-3,-22,2,-8,-1,2,-1
1532066151515,0,-1,4,-11,3,-16,-6,-2
1532066151520,0,5,-4,-8,-15,7,0,0
1532066151525,-2,-6,3,4,9,5,9,4
1532066151530,-2,-4,10,2,6,3,4,0
1532066151535,2,4,-8,9,12,3,-2,-3
1532066151540,0,3,19,-5,-6,-3,3,0
1532066151545,-2,-5,-10,20,-5,-5,-7,0
1532066151550,1,7,7,-1,-5,-1,-6,-2
1532066151555,-1,-5,-11,18,6,1,6,2
1532066151560,-3,-4,12,-17,6,-3,-6,-5
1532066151565,1,3,0,-3,4,3,-1,0
1532066151570,-2,2,20,3,1,-1,-2,-1
1532066151575,0,4,-5,13,6,-2,-4,0
1532066151580,5,9,3,28,9,5,7,-5
1532066151585,-4,-12,-1,-20,-35,0,3,1
1532066151590,-11,-11,19,-52,-24,-10,-7,-3
1532066151595,-1,0,-1,-15,-13,0,-1,6
1532066151600,0,-3,-5,7,13,-2,-1,-2
1532066151605,4,14,0,-2,15,2,9,-1
1532066151610,2,13,-1,14,13,0,1,-1
1532066151615,-3,-10,1,2,-10,2,-2,-2
1532066151620,-4,-6,-3,4,20,0,-7,-7
1532066151625,-5,-7,-16,-9,-35,-3,-1,-1
1532066151630,2,4,2,6,0,-3,-2,1
1532066151635,-3,5,5,-5,-1,-3,-10,-2
1532066151640,-4,-11,-26,9,-27,-4,9,1
1532066151645,4,9,23,-5,32,1,2,3
1532066151650,5,-7,-7,26,46,21,15,1
1532066151655,-5,-4,-29,-35,-46,-8,-11,-9
1532066151660,2,1,24,12,-5,-1,-6,-4
1532066151665,-6,-3,-13,4,19,-19,-4,1
1532066151670,-3,1,18,-36,-76,-1,-11,-2
1532066151675,5,1,-5,35,62,18,8,-2
1532066151680,-2,-3,-27,-49,-3,7,-1,2
1532066151685,3,5,14,21,49,-1,-11,-5
1532066151690,1,-5,-13,2,-5,-9,-1,-7
1532066151695,-3,-7,4,-3,-40,-11,-11,-1
1532066151700,-5,-4,-9,-9,-39,0,6,2
1532066151705,3,9,20,3,-4,8,2,-3
1532066151710,-1,-4,-15,-7,28,27,-1,8
1532066151715,1,4,1,7,30,5,9,3
1532066151720,4,4,-9,1,0,-8,3,3
1532066151725,-7,-8,25,45,17,-16,-21,-9
