1532061927059,-5,-9,-1,1,3,0,1,0
1532061927064,8,1,1,-1,-1,-1,0,0
1532061927069,-8,-2,-2,-4,1,-1,1,-2
1532061927074,2,-2,-3,-4,0,-2,1,2
1532061927079,-8,2,7,0,-3,3,-1,-5
1532061927084,-1,0,-2,0,-1,-1,-1,-4
1532061927089,-3,-4,-2,3,-2,1,3,2
1532061927094,-2,1,2,0,1,-2,-1,0
1532061927099,7,-3,-12,-11,-2,-3,-1,0
1532061927104,-1,1,1,-2,-1,-1,0,-1
1532061927109,3,3,-1,-2,-1,-1,-1,-2
1532061927114,3,-2,2,4,-2,-1,0,-1
1532061927119,-8,-2,-3,1,-1,-1,-5,-3
1532061927124,4,0,1,4,0,1,2,1
1532061927129,-2,-1,-5,-2,0,-1,-3,0
1532061927134,3,-1,1,-1,-2,0,-2,0
1532061927139,0,1,0,-2,-2,-1,-1,2
1532061927144,1,-2,0,-1,1,-3,-4,0
1532061927149,1,4,4,8,0,0,3,2
1532061927154,-6,-3,1,-2,0,0,-4,-6
1532061927159,-3,-1,-12,-17,-6,-2,0,-1
1532061927164,3,-6,3,0,-1,-2,-1,1
1532061927169,-1,3,-2,-2,0,-1,-2,0
1532061927174,0,-5,-1,0,0,-1,0,-1
1532061927179,-18,0,2,6,1,0,0,-3
1532061927184,-3,0,-1,-4,1,0,-1,-1
1532061927189,0,-2,-6,-9,-6,-3,-4,-3
1532061927194,2,-2,1,2,-1,-1,-1,0
1532061927199,2,0,-1,2,1,-1,-1,2
1532061927204,-2,-1,1,0,-1,0,0,-1
1532061927209,-11,0,1,1,1,0,2,-4
1532061927214,15,0,-2,-4,-2,-3,-1,-1
1532061927219,-5,-1,-3,-1,-1,-1,-1,0
1532061927224,-4,1,3,13,3,0,1,-2
1532061927229,8,-1,-4,-17,-3,1,-4,1
1532061927234,-8,-1,-1,2,-1,1,3,1
1532061927239,6,-7,-3,-8,1,-1,-1,1
1532061927244,6,-2,0,1,0,0,1,0
1532061927249,-4,-4,2,6,2,-1,-3,-2
1532061927254,4,4,-3,2,-3,-1,-2,0
1532061927259,4,12,4,4,0,-1,-1,0
1532061927264,-2,0,2,-7,-1,1,0,1
1532061927269,1,0,-3,1,-4,-2,-2,-1
1532061927274,-4,-7,1,-2,0,0,0,1
1532061927279,-4,0,3,4,1,0,-2,-4
1532061927284,0,-1,-5,-2,-1,-1,-2,0
1532061927289,3,-1,2,6,1,0,0,1
1532061927294,-2,5,-3,-2,-1,-1,-2,-2
1532061927299,-8,-2,6,2,0,-2,-1,0
1532061927304,3,-1,0,-1,-2,0,6,-1
1532061927309,15,1,-4,-1,-1,-1,-9,3
1532061927314,-12,-3,-2,-2,1,0,-2,-3
1532061927319,-1,-2,2,6,0,-1,1,-1
1532061927324,0,0,-1,-8,-1,-1,-4,0
1532061927329,-6,-2,-2,-12,0,-1,2,1
1532061927334,17,6,2,0,-1,-1,5,-1
1532061927339,-31,-6,0,24,-1,-2,-15,-5
1532061927344,3,-7,0,-4,-1,-1,-1,0
1532061927349,5,1,-5,-3,-1,-2,1,-1
1532061927354,-6,-3,3,-8,-1,0,-3,-3
1532061927359,27,4,-6,-19,-2,-1,5,6
1532061927364,-31,-6,-7,9,-4,-3,-5,-11
1532061927369,2,0,1,7,2,0,-1,-1
1532061927374,-2,-2,1,9,-1,0,8,9
1532061927379,5,-1,0,-5,0,1,-1,-5
1532061927384,6,5,-4,-8,-2,-2,-2,0
1532061927389,0,-1,7,-6,2,1,1,-2
1532061927394,0,2,-7,-3,-1,-1,-5,0
1532061927399,-7,-4,-1,2,-3,-1,1,-2
1532061927404,5,-6,-4,-5,1,1,8,5
1532061927409,-13,-1,5,7,-1,-2,8,0
1532061927414,6,2,4,2,3,-1,-23,-7
1532061927419,9,-2,-1,-28,-4,-2,-3,5
1532061927424,1,9,-3,23,2,-1,-4,-6
1532061927429,13,4,1,-14,-2,1,5,2
1532061927434,-26,-15,-6,16,-3,-4,-1,-2
1532061927439,10,3,4,6,3,-1,3,5
1532061927444,-5,1,7,-6,-1,1,-5,-2
1532061927449,2,2,-6,18,2,-2,-1,-3
1532061927454,7,4,-3,-21,-7,-2,6,-4
1532061927459,-4,-10,3,-28,0,2,5,4
1532061927464,-12,-11,4,27,1,-1,-2,2
1532061927469,11,4,1,-24,1,0,-9,-5
1532061927474,4,-10,-6,12,-7,-2,2,5
1532061927479,-22,0,-14,-5,-6,-3,3,-8
1532061927484,3,1,4,-2,2,1,0,0
1532061927489,-9,-7,4,8,4,1,-1,-2
1532061927494,-4,0,-7,1,-1,-1,-2,-2
1532061927499,14,-1,5,37,6,3,1,4
1532061927504,-32,1,2,-17,-1,-4,-1,-6
1532061927509,4,-2,-22,-27,-16,-7,-12,-4
1532061927514,-4,0,13,4,11,4,3,-4
1532061927519,13,8,10,-15,-4,1,-2,2
1532061927524,8,-18,-14,7,-4,-1,0,2
1532061927529,-12,-13,-12,12,2,-1,3,1
1532061927534,3,10,9,-15,5,2,2,1
1532061927539,-4,-5,-5,9,-1,1,-3,-5
1532061927544,8,0,-5,-4,1,-2,0,2
1532061927549,-5,0,3,-6,-1,2,1,-1
1532061927554,3,-4,-6,4,3,0,-1,-3
1532061927559,-9,-2,0,9,1,-1,-1,-2
1532061927564,5,7,-5,-14,-10,-4,-1,-3
1532061927569,-5,-1,0,6,0,2,-1,-1
1532061927574,-3,4,2,4,1,-1,0,-1
1532061927579,-3,-8,-4,-10,1,0,-2,-1
1532061927584,3,-2,-4,-6,-5,-1,-1,-1
1532061927589,-2,-1,11,30,1,0,-2,0
1532061927594,-3,3,1,-20,-4,-2,-1,-1
1532061927599,-4,-8,-8,-18,-8,-3,-3,-2
1532061927604,6,-3,-11,-8,-3,-1,-2,-2
1532061927609,-7,-1,7,21,-3,-4,-2,1
1532061927614,-1,-1,4,12,3,0,0,0
1532061927619,-2,4,-3,0,2,-1,-1,-3
1532061927624,3,4,0,-9,1,0,-1,-1
1532061927629,-1,2,2,-2,-2,-2,1,-1
1532061927634,10,-1,-10,-9,-3,-2,-1,2
1532061927639,-21,0,2,-1,-1,-1,-1,-4
1532061927644,0,2,8,7,4,-1,-1,2
1532061927649,-2,-4,-11,-14,-3,-1,0,-2
1532061927654,-1,-4,2,2,0,-1,-1,1
1532061927659,5,-2,-1,2,-6,-2,-1,-1
1532061927664,2,2,0,-8,-1,3,1,1
1532061927669,-4,1,-3,-16,-6,-2,-2,-2
1532061927674,-5,-6,-7,1,-3,0,-2,-2
1532061927679,4,3,-1,-6,1,0,1,1
1532061927684,0,-1,3,23,5,-1,-1,-1
1532061927689,5,5,10,-7,-9,-2,-1,0
1532061927694,-3,-3,0,-13,-1,2,1,-3
1532061927699,1,3,4,11,-2,-5,-3,-2
1532061927704,4,2,3,-4,0,1,1,0
1532061927709,-3,-7,-8,-17,6,2,-2,0
1532061927714,-4,-2,-2,-3,-6,-3,-2,-2
1532061927719,0,1,0,9,1,-1,-1,-1
1532061927724,0,2,8,10,1,-3,-3,0
1532061927729,2,6,2,5,4,3,2,0
1532061927734,-1,5,3,-14,-4,0,-2,-1
1532061927739,5,-6,-1,7,3,1,0,1
1532061927744,-1,3,-3,-11,-3,-2,-1,-3
1532061927749,-5,0,1,-1,2,-1,0,-4
1532061927754,-2,-2,-1,14,-4,-3,-1,3
1532061927759,-7,-2,-5,-3,-5,-1,-4,-7
1532061927764,29,10,10,-2,5,4,3,6
1532061927769,-36,-5,-2,-13,-6,-3,-4,-8
1532061927774,4,-8,-5,10,0,-2,2,0
1532061927779,2,-1,4,22,-12,-4,-3,3
1532061927784,-1,-2,-5,-26,-4,0,-2,-1
1532061927789,9,0,1,10,4,0,1,2
1532061927794,6,9,1,-14,1,3,0,-1
1532061927799,-15,-15,-5,13,10,3,4,2
1532061927804,-1,-10,-17,-14,-10,-4,-2,-4
1532061927809,3,2,6,28,1,-2,-1,0
1532061927814,2,-2,-8,-8,-3,-3,-2,-2
1532061927819,9,9,2,-17,-2,-2,1,0
1532061927824,-7,-6,1,-4,1,1,0,-1
1532061927829,7,0,-2,-14,-3,-2,2,0
1532061927834,4,0,0,32,5,-1,0,1
1532061927839,-2,6,0,-22,-13,-4,-4,-5
1532061927844,-4,0,-6,-9,0,-4,0,1
1532061927849,19,0,-1,12,-3,0,-2,-1
1532061927854,10,2,-6,-21,-4,-1,0,-1
1532061927859,-20,-7,1,0,6,-2,0,-2
1532061927864,7,1,5,15,4,0,1,1
1532061927869,-27,-10,-14,4,-13,-3,-3,-5
1532061927874,-6,1,6,17,8,2,-2,-4
1532061927879,2,1,-10,-28,-6,0,1,-3
1532061927884,7,1,-4,-3,-1,0,-1,0
1532061927889,7,-3,4,-5,6,1,0,5
1532061927894,-15,8,4,0,2,-1,1,-4
1532061927899,-4,-5,-6,-4,-9,-4,-4,-4
1532061927904,-4,1,6,5,1,0,0,0
1532061927909,25,2,1,-3,2,0,1,4
1532061927914,-34,-20,2,6,1,0,-2,-3
1532061927919,8,4,1,11,4,0,-2,-1
1532061927924,-14,3,7,6,4,-2,-2,-5
1532061927929,4,-8,-11,-7,-3,-2,0,0
1532061927934,7,9,2,-9,-4,0,1,2
1532061927939,4,2,8,9,2,1,1,3
1532061927944,-1,-7,-14,-12,-5,-2,-3,-2
1532061927949,-2,0,3,-2,6,2,3,-1
1532061927954,-2,-10,-1,9,-13,-7,-8,-7
1532061927959,2,9,6,31,6,2,-2,1
1532061927964,-3,11,2,3,-1,0,1,0
1532061927969,8,16,7,-2,5,2,1,5
1532061927974,-7,-24,-11,-25,-3,1,0,-1
1532061927979,3,-20,-5,-5,-1,-2,-3,-1
1532061927984,-2,-8,1,1,-6,-3,-3,-5
1532061927989,-2,11,3,0,5,3,1,-2
1532061927994,2,12,-1,-1,-1,0,2,1
1532061927999,4,18,7,3,5,2,2,3
1532061928004,-4,-33,-3,-4,-2,0,-1,0
1532061928009,-12,-7,-1,1,-3,-4,-3,-6
1532061928014,3,2,0,0,-1,-3,-3,-5
1532061928019,8,14,-5,-9,0,1,1,-2
1532061928024,-7,-13,-5,3,-5,-2,0,-2
1532061928029,1,-1,-5,-3,-5,-2,-2,-1
1532061928034,4,0,4,4,3,1,2,4
1532061928039,0,6,-2,-4,1,-1,1,0
1532061928044,-3,7,-6,-15,-5,0,-3,3
1532061928049,-5,-6,0,4,-1,-2,-1,0
1532061928054,5,0,-2,-3,1,0,0,1
1532061928059,-2,-5,2,3,-1,0,-1,-2
1532061928064,1,12,6,8,5,1,1,-2
1532061928069,-3,-9,-7,-4,-3,-3,-1,-2
1532061928074,1,5,1,1,0,-1,0,0
1532061928079,1,-2,0,2,-1,0,-1,0
1532061928084,-3,-3,-2,-10,1,-1,-1,1
1532061928089,-3,2,2,4,-4,-4,-5,-4
1532061928094,2,4,0,3,2,0,2,1
1532061928099,-4,-6,2,-1,2,-2,0,-1
1532061928104,2,4,-4,-7,0,-1,2,-4
1532061928109,-7,-4,-4,10,2,1,0,0
1532061928114,2,-4,-3,-13,-7,-6,-5,-4
1532061928119,-7,-7,-15,-20,-1,1,-1,-4
1532061928124,16,2,0,6,-2,-1,-1,4
1532061928129,18,4,-3,0,-2,-2,0,6
1532061928134,-25,-9,-1,14,2,-1,-3,-11
1532061928139,-1,0,-1,-30,0,2,2,-3
1532061928144,-9,0,-4,9,-4,-3,-3,-1
1532061928149,3,0,3,-5,1,2,1,3
1532061928154,6,0,1,7,-2,-1,-1,2
1532061928159,-2,-4,-1,3,0,-1,0,1
1532061928164,5,-1,-2,-5,0,0,1,1
1532061928169,-5,-2,-2,-9,-1,2,1,-4
1532061928174,3,-2,-4,-9,2,1,1,0
1532061928179,-4,0,4,0,-2,-3,0,-4
1532061928184,0,0,1,8,2,-1,0,0
1532061928189,-7,-4,-3,7,-3,-1,-3,-2
1532061928194,-3,3,2,13,2,1,2,-2
1532061928199,16,0,-3,-18,-5,-1,-1,2
1532061928204,-2,8,5,11,3,0,0,1
1532061928209,12,6,11,2,1,-2,-2,-3
1532061928214,-3,-28,-8,-11,-2,0,-1,0
1532061928219,3,0,-1,6,-1,-2,-2,1
1532061928224,-14,1,-1,-8,-4,-2,-1,-5
1532061928229,-5,7,1,-12,2,1,2,-3
1532061928234,6,2,-12,2,-3,-2,-2,2
1532061928239,0,-4,6,-8,0,-2,1,1
1532061928244,0,7,-3,1,-3,1,-1,0
1532061928249,-6,-12,0,2,-2,-3,-3,1
1532061928254,-5,-1,6,-8,0,1,0,-6
1532061928259,-5,2,-4,9,-4,-3,-3,-1
1532061928264,-3,-9,-2,12,3,1,-3,-3
1532061928269,-2,1,1,-9,0,0,1,0
1532061928274,8,12,1,3,1,1,2,4
1532061928279,-1,12,6,12,-1,-1,-1,0
1532061928284,-5,-17,5,-10,-3,-2,-2,-2
1532061928289,-5,-20,-13,3,2,0,-2,-4
1532061928294,1,10,3,-18,-3,-2,-1,-1
1532061928299,1,6,-3,4,-1,1,-1,1
1532061928304,4,11,-1,-2,-5,-2,0,1
1532061928309,-3,-11,3,11,4,2,2,2
1532061928314,6,31,2,-9,-4,-3,-1,2
1532061928319,-6,-40,-3,4,-2,-1,-2,2
1532061928324,-4,6,-5,-8,3,3,0,-4
1532061928329,-10,-12,-4,6,-8,-5,-4,-6
1532061928334,-3,1,-4,-16,-5,-4,-1,-3
1532061928339,5,14,-1,1,-3,-1,0,1
1532061928344,1,0,-2,-1,-3,-1,-1,-1
1532061928349,3,13,3,-1,-3,-1,-1,-2
1532061928354,1,1,-6,2,3,0,-1,0
1532061928359,-2,-2,5,1,3,0,0,-1
1532061928364,-3,2,-4,-3,-8,-4,-3,0
1532061928369,-1,-2,-5,-11,1,-2,-2,-1
1532061928374,0,-9,12,8,0,0,-1,2
1532061928379,-1,-3,0,0,3,-1,-1,-5
1532061928384,0,-7,5,1,6,1,1,0
1532061928389,1,3,3,-1,-1,-2,0,1
1532061928394,7,25,3,4,-2,0,0,1
1532061928399,-4,-12,-1,-2,-4,-1,1,2
1532061928404,-2,-17,1,8,6,-3,-2,-1
1532061928409,-4,5,-8,-18,-1,-2,-1,-5
1532061928414,-7,-22,-5,-1,-1,-3,-1,-6
1532061928419,0,21,-7,-3,-4,-1,-2,-2
1532061928424,4,13,11,16,11,7,3,6
1532061928429,2,0,5,-17,-3,-1,1,2
1532061928434,-2,-3,-10,-23,-10,-5,-2,-3
1532061928439,-4,4,-7,-2,0,-2,-2,-3
1532061928444,0,11,3,-8,-6,-4,-2,-2
1532061928449,5,10,6,16,7,1,2,4
1532061928454,-3,-12,5,9,0,2,1,4
1532061928459,-5,-17,1,5,3,1,-3,-7
1532061928464,3,19,-6,1,1,0,-2,-2
1532061928469,0,-7,-1,-3,0,-1,-2,1
1532061928474,-4,-14,-5,-4,1,-1,-1,-3
1532061928479,-6,-1,3,11,-9,-3,-6,-3
1532061928484,-6,-26,-6,-8,-1,-2,-1,-4
1532061928489,3,19,-2,1,-3,1,0,0
1532061928494,-1,0,9,11,4,0,-1,1
1532061928499,0,-18,-4,-6,5,3,3,1
1532061928504,1,16,4,-8,-3,-1,0,-1
1532061928509,-5,-20,-6,-5,-10,-3,-1,0
1532061928514,-4,-18,-9,-8,-1,0,-3,-2
1532061928519,7,32,6,1,5,-1,-1,0
1532061928524,0,-16,-5,-4,-6,-2,1,-1
1532061928529,-8,-5,0,19,-1,-3,-3,-5
1532061928534,5,9,0,14,17,3,2,1
1532061928539,1,3,-5,-11,-9,1,-2,1
1532061928544,-4,-4,5,18,5,0,0,-1
1532061928549,0,-4,-18,-51,-12,-3,-3,-1
1532061928554,2,4,7,2,3,2,1,-2
1532061928559,0,0,-11,4,-10,-4,-2,-1
1532061928564,0,-29,-2,-10,1,-1,-2,-1
1532061928569,5,8,2,15,2,3,1,4
1532061928574,8,21,6,13,-7,-6,-2,-2
1532061928579,-10,-40,4,-15,14,1,-2,-2
1532061928584,-14,-14,-7,41,-26,0,-3,-12
1532061928589,4,27,10,-32,0,3,-1,1
1532061928594,0,7,-6,19,-7,-1,-1,6
1532061928599,4,11,-1,-27,-5,-1,2,0
1532061928604,-4,7,5,-11,-4,-8,-6,-5
1532061928609,0,3,-7,34,4,0,1,3
1532061928614,4,19,12,-57,5,3,3,-1
1532061928619,0,3,-7,56,4,1,0,1
1532061928624,-6,-22,-21,-43,-7,-8,-8,-3
1532061928629,-2,3,19,30,10,0,-2,-9
1532061928634,1,-1,-14,7,0,1,4,3
1532061928639,-3,-13,4,-28,9,3,4,-5
1532061928644,7,21,12,-10,-8,-5,1,2
1532061928649,11,9,0,-6,29,17,15,12
1532061928654,-19,-47,-3,86,-4,-12,-16,-10
1532061928659,-12,-27,-7,3,2,-8,-6,-9
1532061928664,6,33,11,20,21,4,5,4
1532061928669,-19,-66,-21,-33,-55,-13,-10,-7
1532061928674,7,11,12,-12,4,5,5,2
1532061928679,8,15,-7,-25,-12,-3,2,7
1532061928684,10,28,4,-26,9,6,3,0
1532061928689,-2,-8,0,34,19,-2,1,-3
1532061928694,-2,-11,-7,-25,-8,-1,0,-1
1532061928699,-3,3,12,29,-5,-3,-3,0
1532061928704,0,-1,-30,-71,-7,-2,1,2
1532061928709,2,23,5,20,0,-2,-1,-3
1532061928714,-5,-9,-17,-23,-8,-1,-2,-3
1532061928719,-3,-4,2,77,-1,-4,-4,-1
1532061928724,-1,-15,20,21,8,5,3,5
1532061928729,-2,-2,-2,-12,-5,-5,-4,-6
1532061928734,-5,0,-4,-18,-2,-2,0,0
1532061928739,9,12,8,-29,7,4,4,4
1532061928744,-3,-10,-9,6,-3,-1,1,-3
1532061928749,-3,-7,0,37,2,-3,-5,-3
1532061928754,0,0,-3,-54,-9,-1,-2,0
1532061928759,-1,5,1,-3,0,1,2,3
1532061928764,10,-2,-4,20,-7,-2,-4,2
1532061928769,-35,4,9,-11,6,0,-1,-7
1532061928774,6,17,3,-2,9,3,5,-3
1532061928779,-13,-67,-9,-30,-8,0,-2,-6
1532061928784,-10,13,3,45,-5,-6,-8,-6
1532061928789,13,11,0,-41,-1,1,3,7
1532061928794,0,-10,6,22,8,2,2,2
1532061928799,-2,5,2,-7,-4,0,0,1
1532061928804,2,-7,-13,-19,4,2,2,2
1532061928809,4,3,5,10,-3,-1,-1,-1
1532061928814,1,17,4,9,-3,-1,-2,0
1532061928819,9,14,6,-4,4,0,1,2
1532061928824,-10,-20,-3,6,-1,0,-1,-6
1532061928829,4,7,-2,55,10,1,-1,0
1532061928834,0,-3,-2,-23,-7,-3,-2,-3
1532061928839,1,15,2,13,-5,-5,-3,2
1532061928844,1,1,4,-11,6,6,1,1
1532061928849,0,-6,-1,-12,-3,-1,-2,-1
1532061928854,-3,-2,3,24,9,2,-3,-5
1532061928859,0,7,-7,-13,-4,0,0,-1
1532061928864,0,6,2,10,-3,-2,-1,-1
1532061928869,6,2,-5,-18,-3,-2,0,0
1532061928874,1,-2,1,-13,0,1,1,1
1532061928879,-2,18,-6,-15,-8,-3,-5,0
1532061928884,-3,-20,-2,8,-2,-1,2,2
1532061928889,6,18,4,-11,7,2,0,1
1532061928894,6,0,3,9,13,3,4,-3
1532061928899,-25,-40,-12,64,-31,-16,-17,-7
1532061928904,-1,-14,11,-17,9,5,4,-3
1532061928909,-5,-30,0,4,20,1,0,-2
1532061928914,4,13,2,-42,-17,-1,-1,-2
1532061928919,6,37,2,-15,-1,-1,-1,-5
1532061928924,-1,3,1,10,-19,-7,-5,1
1532061928929,4,9,2,-18,-3,-1,0,1
1532061928934,-5,-16,3,39,20,6,3,2
1532061928939,7,-5,-14,-64,-18,3,5,1
1532061928944,-6,1,-38,32,0,-5,-6,-2
1532061928949,0,-12,15,14,-8,-2,2,2
1532061928954,-2,7,-21,1,-1,-5,-7,-3
1532061928959,6,8,13,-41,14,5,6,-1
1532061928964,-12,-15,-25,-32,-27,-9,-9,2
1532061928969,0,2,-3,-7,1,2,0,-1
1532061928974,-5,-8,-2,8,-3,-6,-3,-2
1532061928979,8,4,5,-27,22,8,7,1
1532061928984,8,13,11,-13,2,6,8,-2
1532061928989,-5,-8,-7,16,-10,-8,-5,-1
1532061928994,-7,-10,-4,23,-10,-2,-8,1
1532061928999,3,6,6,10,8,3,2,1
1532061929004,-2,-9,14,38,15,0,0,0
1532061929009,-2,2,-11,-41,-10,-3,-2,-5
1532061929014,3,11,8,3,-3,-2,1,-1
1532061929019,-5,-3,-7,44,2,-2,-5,-1
1532061929024,2,7,-2,-11,7,-3,-3,-2
1532061929029,0,-1,-17,-83,-13,-1,0,0
1532061929034,-6,-6,14,74,-7,-5,-7,-1
1532061929039,-2,6,0,-3,-1,-5,-4,1
1532061929044,-1,-14,9,-4,10,5,3,-3
1532061929049,-2,8,-9,19,3,-3,-3,-6
1532061929054,2,3,-14,-66,-18,0,3,2
1532061929059,1,-1,-3,-5,15,4,5,-2
1532061929064,-3,4,16,33,-7,-6,-4,3
1532061929069,2,5,6,37,3,2,1,1
1532061929074,2,-5,-5,-15,2,3,2,0
1532061929079,0,-1,11,17,-1,-2,-2,1
1532061929084,1,6,-11,-33,-2,0,2,-3
1532061929089,1,3,10,-6,2,0,-2,-2
1532061929094,3,10,-1,-18,3,-4,-2,2
1532061929099,1,6,7,17,-6,5,3,0
1532061929104,-3,-6,20,22,17,3,0,0
1532061929109,-5,-2,-11,-38,7,1,1,-7
1532061929114,-6,-13,-3,47,-5,-6,-3,-1
1532061929119,1,5,1,-1,0,-1,-2,0
1532061929124,2,13,-4,-21,-10,-6,-1,0
1532061929129,0,4,-1,-39,-8,-2,0,1
1532061929134,-1,-6,14,1,9,2,3,-2
1532061929139,-5,-13,-17,-19,-7,-4,-5,0
1532061929144,-1,0,-3,-3,9,3,0,0
1532061929149,1,1,1,3,-11,0,-1,5
1532061929154,11,44,-7,-12,-2,0,2,2
1532061929159,-10,-74,10,4,-1,-1,0,1
1532061929164,-9,-39,-2,-27,5,3,-1,-13
1532061929169,-7,-2,-15,9,-12,-7,-5,-5
1532061929174,-1,3,18,30,21,6,0,1
1532061929179,6,27,-7,-80,-18,0,3,1
1532061929184,0,8,1,41,-4,-4,-4,4
1532061929189,1,-8,17,52,9,3,1,1
1532061929194,-2,-3,-1,-6,-14,-4,-4,0
1532061929199,-2,0,-13,6,5,-4,-3,-2
1532061929204,2,8,3,12,0,-1,1,0
1532061929209,-2,-2,-11,-35,-9,-4,-5,1
1532061929214,-5,-13,-2,-5,-15,-2,1,-3
1532061929219,0,1,-3,20,38,3,1,-2
1532061929224,4,10,4,28,-7,4,2,3
1532061929229,-1,0,-2,10,-3,-4,-2,1
1532061929234,2,-5,-6,-80,10,4,4,-1
1532061929239,-11,-18,-14,37,-29,-16,-14,-8
1532061929244,0,9,3,-18,-5,1,1,-1
1532061929249,-2,-6,7,33,15,0,0,-1
1532061929254,0,-7,-4,-14,-11,0,2,-1
1532061929259,5,25,7,4,3,0,1,2
1532061929264,0,-8,-1,-12,0,-8,-2,-2
1532061929269,0,-5,-8,14,9,10,6,-1
1532061929274,-5,-10,-11,-17,-1,0,-3,2
1532061929279,0,3,1,-6,-3,1,-1,-2
1532061929284,1,8,0,6,-4,-6,-1,-1
1532061929289,2,-2,1,1,0,-1,0,1
1532061929294,-2,-4,-1,21,-3,-3,-3,-2
1532061929299,3,8,8,28,2,1,1,1
1532061929304,-3,-6,-9,-27,-3,-3,-3,0
1532061929309,-2,2,1,-9,-5,-2,0,0
1532061929314,-5,-8,2,24,0,-6,-4,-2
1532061929319,1,1,-1,-13,-2,-1,0,-2
1532061929324,-2,0,0,14,-11,-6,-6,1
1532061929329,2,-1,-10,-12,12,8,3,-1
1532061929334,-2,1,4,37,10,5,-1,-3
1532061929339,-3,-7,-3,-15,4,7,1,0
1532061929344,2,6,-1,-9,0,9,7,1
1532061929349,0,7,5,14,-9,-27,-10,1
1532061929354,10,12,-12,-24,1,11,30,34
1532061929359,-1,-4,-1,8,17,22,-15,-26
1532061929364,-28,-49,-14,-6,8,8,-1,-16
1532061929369,6,7,-5,-7,-14,-14,-1,-1
1532061929374,-16,-14,1,6,-4,-15,-24,-20
1532061929379,1,28,5,6,-10,-13,4,3
1532061929384,16,14,4,-10,-5,-4,-18,-8
1532061929389,-10,-40,-10,-18,-2,-2,38,17
1532061929394,-10,3,2,1,-9,-11,-11,-7
1532061929399,2,0,-4,-20,-7,-1,-5,-1
1532061929404,2,15,-1,-28,4,-4,-12,-1
1532061929409,0,0,11,50,-4,5,-3,0
1532061929414,11,4,-8,-2,10,14,10,2
1532061929419,3,-11,-4,6,10,9,6,14
1532061929424,1,1,-5,-13,-5,-4,14,-2
1532061929429,-1,6,1,-18,0,5,-11,-5
1532061929434,-10,-12,-4,-3,-12,-25,-5,-16
1532061929439,-1,2,4,2,-9,-1,-27,-3
1532061929444,16,-8,-7,-21,2,3,-7,54
1532061929449,-9,6,2,12,17,15,25,-2
1532061929454,25,12,6,10,3,1,-60,-36
1532061929459,-33,-7,-2,-14,-10,-17,12,-8
1532061929464,72,18,4,-2,-9,-12,-3,2
1532061929469,-68,-13,4,1,-3,1,-22,-26
1532061929474,-7,-18,-4,-16,-16,-19,11,24
1532061929479,21,1,1,12,12,10,-4,-30
1532061929484,0,0,-10,13,12,18,-8,20
1532061929489,-5,0,-12,-4,3,3,-11,-8
1532061929494,-15,5,-1,3,3,7,12,-1
1532061929499,12,-3,-4,2,-8,-8,8,35
1532061929504,-1,5,5,-14,-7,-7,28,-28
1532061929509,27,2,1,3,-12,-8,-23,-8
1532061929514,-41,-13,10,11,7,4,-5,-8
1532061929519,33,-4,7,2,6,0,36,48
1532061929524,-6,5,-15,-8,-6,-9,8,-65
1532061929529,-23,-6,2,-11,-16,-23,-28,-4
1532061929534,33,8,-3,-7,-9,-7,4,-15
1532061929539,-28,6,9,12,12,19,31,13
1532061929544,2,-10,11,19,17,27,-9,37
1532061929549,22,16,3,-8,3,7,14,-27
1532061929554,30,3,-7,-8,-11,-10,36,-25
1532061929559,-42,-8,-7,1,6,1,-9,28
1532061929564,-36,9,3,1,-9,-14,-5,32
1532061929569,-2,-26,-11,-2,2,6,-3,-32
1532061929574,32,7,12,1,7,7,-11,16
1532061929579,12,10,-20,-8,-2,-6,0,-20
1532061929584,22,4,18,11,2,-7,8,-8
1532061929589,22,8,1,12,-8,-10,-34,6
1532061929594,8,-14,-13,-27,-15,-31,-3,29
1532061929599,28,2,0,0,-5,24,50,-51
1532061929604,-65,1,-6,-3,9,1,-29,4
1532061929609,-26,-8,0,5,20,27,30,-9
1532061929614,-29,-9,3,1,-9,-2,-25,-30
1532061929619,23,1,-2,-11,-35,-58,-38,-13
1532061929624,-7,-12,-2,10,12,30,13,8
1532061929629,1,8,8,4,27,5,23,-30
1532061929634,41,9,-7,10,28,39,61,91
1532061929639,-37,-22,-6,-1,-3,-21,-31,-12
1532061929644,-1,-10,1,-10,-30,-28,-17,-39
1532061929649,44,12,-2,-4,-10,10,-29,26
1532061929654,-33,-9,4,7,21,21,-3,-26
1532061929659,36,10,6,-4,-11,-16,12,15
1532061929664,19,-11,-8,-3,2,-5,-20,19
1532061929669,-47,-8,-3,-4,-11,-11,-24,-25
1532061929674,-37,-5,3,-7,-26,-27,-27,-23
1532061929679,26,-1,4,-2,-6,-1,-9,32
1532061929684,7,16,-1,8,15,63,51,26
1532061929689,19,4,-1,1,-9,14,-12,44
1532061929694,16,15,-2,18,52,68,3,-3
1532061929699,24,-8,0,-8,21,16,-38,-32
1532061929704,49,1,3,18,-9,-20,4,53
1532061929709,-86,-13,2,-12,-24,30,4,-23
1532061929714,21,40,6,-21,-80,-99,-31,-32
1532061929719,-44,-63,-14,5,28,10,-20,70
1532061929724,-48,-6,-8,9,44,7,-39,-43
1532061929729,97,20,7,33,3,-25,-30,19
1532061929734,-82,-24,-3,-20,-9,-44,107,40
1532061929739,-4,18,2,-12,-33,-35,56,-62
1532061929744,87,29,5,18,8,30,32,-1
1532061929749,26,12,-3,-9,5,51,113,118
1532061929754,-13,8,-5,1,1,127,-128,10
1532061929759,-27,-6,-8,18,33,121,45,-23
1532061929764,-40,-7,16,0,0,113,-9,-13
1532061929769,39,19,-1,-6,46,72,-23,-5
1532061929774,-24,-19,-4,-10,-42,-61,29,9
1532061929779,-40,3,0,-9,-41,-79,-91,14
1532061929784,46,3,-15,-32,-42,-94,-12,-60
1532061929789,7,-13,3,0,0,-36,17,55
1532061929794,-25,-7,-5,12,38,-12,26,-52
1532061929799,-31,7,5,2,-27,-77,-66,-27
1532061929804,-79,-10,-4,-2,10,2,24,39
1532061929809,-2,-7,-4,-3,-10,-86,-17,-28
1532061929814,26,-2,-2,14,44,-3,1,-27
1532061929819,2,12,-2,1,30,36,27,-3
1532061929824,-41,-4,0,-16,-64,-100,34,8
1532061929829,8,-9,0,12,-3,-13,-52,-6
1532061929834,-5,-10,-22,-16,-2,-26,8,24
1532061929839,82,31,-1,-7,-3,-20,-21,-28
1532061929844,0,-1,-4,-6,-32,-29,9,-38
1532061929849,-30,-2,-1,-5,29,13,27,-20
1532061929854,38,-3,16,30,17,0,-7,27
1532061929859,5,13,0,-4,-19,16,27,47
1532061929864,-68,-22,-7,-8,34,6,-5,-19
1532061929869,20,-10,-2,-3,-3,-17,3,-35
1532061929874,-9,-7,2,15,-6,40,-20,-16
1532061929879,-13,-11,-9,-21,-40,-46,24,-16
1532061929884,18,7,2,7,46,-4,7,30
1532061929889,-21,24,-1,-12,-8,4,-53,-9
1532061929894,-23,-13,0,19,5,4,26,5
1532061929899,66,7,5,1,3,-7,33,12
1532061929904,-55,-28,-6,-10,-43,-42,-16,-51
1532061929909,31,-7,-4,0,14,31,38,26
1532061929914,-39,19,-4,-23,9,7,-20,-17
1532061929919,-19,-5,13,51,13,-11,19,-17
1532061929924,54,7,-1,-18,-6,-20,-26,37
1532061929929,29,-8,0,8,-19,-2,40,-16
1532061929934,43,8,-3,-5,-3,-48,29,1
1532061929939,29,15,1,1,44,74,-58,85
1532061929944,-16,-24,-7,-12,-28,-33,-66,-54
1532061929949,-53,-5,1,-14,-51,-45,2,-34
1532061929954,15,2,6,6,80,53,15,22
1532061929959,-49,13,3,4,27,23,-1,-4
1532061929964,46,12,8,13,0,19,20,2
1532061929969,-23,-53,-26,-55,-53,-30,-16,4
1532061929974,0,-8,2,-9,-43,-7,-23,-12
1532061929979,15,5,1,20,43,30,-20,-95
1532061929984,48,5,4,33,4,18,24,29
1532061929989,-24,9,7,12,-12,-46,-8,-1
1532061929994,-42,2,0,-16,-17,24,14,-9
1532061929999,22,-10,-5,-11,-16,-21,25,-1
1532061930004,80,-10,-7,-7,-29,1,-60,10
1532061930009,-15,4,2,23,33,-23,9,-29
1532061930014,13,14,0,-15,-30,1,13,20
1532061930019,-31,-21,-5,8,20,-33,8,6
1532061930024,-24,5,-1,-15,36,44,-10,-7
1532061930029,-1,4,5,-1,-22,-19,-27,-5
1532061930034,-3,23,4,-4,0,3,-27,24
1532061930039,-21,-28,-7,-22,-37,-11,25,-13
1532061930044,-33,-2,3,22,25,-8,-3,-19
1532061930049,23,21,4,22,4,10,17,-3
1532061930054,31,16,1,-9,-24,-9,-20,-52
1532061930059,17,1,6,27,-29,-25,32,49
1532061930064,-44,-58,-19,21,28,28,-59,-2
1532061930069,20,16,8,0,26,52,14,-15
1532061930074,-23,-21,-3,11,12,2,39,52
1532061930079,59,28,4,-18,27,28,-55,-7
1532061930084,10,54,13,9,-15,-25,35,8
1532061930089,5,-19,1,-48,-15,-19,-42,-1
1532061930094,30,-38,-13,38,12,-11,46,-15
1532061930099,-38,-17,-2,33,-19,6,-11,10
1532061930104,-14,16,2,-15,-9,-6,64,3
1532061930109,9,-10,-10,-14,2,1,-46,-2
1532061930114,4,10,5,-48,3,-2,0,9
1532061930119,-6,-1,4,-22,1,-46,-16,-11
1532061930124,17,-5,0,22,-3,-32,26,-24
1532061930129,14,10,0,9,4,-6,57,53
1532061930134,-47,3,0,-20,-8,-2,-14,-18
1532061930139,13,-2,-3,8,3,-16,-25,8
1532061930144,-28,11,2,-15,-29,-81,-17,-12
1532061930149,7,6,-9,-49,2,3,24,24
1532061930154,9,-24,11,80,27,44,59,2
1532061930159,-32,4,-7,-44,13,52,-27,-32
1532061930164,7,32,-4,-9,6,45,-28,17
1532061930169,37,-2,7,29,-7,39,-17,-8
1532061930174,-6,-8,-13,-33,-40,-43,-19,-11
1532061930179,0,21,11,31,23,30,28,5
1532061930184,-14,-32,-2,27,21,14,9,14
1532061930189,-8,15,-1,-9,-4,5,40,-14
1532061930194,22,12,4,25,-4,-3,-65,-5
1532061930199,-6,3,-1,-31,-21,4,13,-1
1532061930204,-5,-6,4,20,4,38,7,4
1532061930209,-5,-2,2,5,9,16,10,0
1532061930214,11,-9,0,4,-2,1,-14,-8
1532061930219,8,-6,-1,8,-6,6,19,-4
1532061930224,-34,-1,-1,-22,3,16,-32,2
1532061930229,41,-5,5,33,9,-2,16,-1
1532061930234,1,13,-7,-48,-6,-8,8,-5
1532061930239,-13,-39,-5,-37,-7,9,35,5
1532061930244,12,7,-4,8,-2,2,27,4
1532061930249,-24,-1,3,-7,6,-5,5,-5
1532061930254,21,10,-1,14,3,3,-10,-4
1532061930259,-17,-11,-22,-33,-18,-1,-31,-7
1532061930264,23,7,4,-32,3,5,38,12
1532061930269,-36,5,7,5,0,-8,4,-5
1532061930274,23,5,6,13,-4,-9,-29,-10
1532061930279,-23,-26,-1,12,2,-2,-61,3
1532061930284,-10,20,-2,7,-4,-5,-128,-2
1532061930289,0,6,-5,10,5,6,-83,3
1532061930294,14,-3,10,-2,2,-7,-26,8
1532061930299,-42,-3,-14,-20,-2,-8,94,-13
1532061930304,19,11,0,4,3,2,127,-4
1532061930309,-15,18,1,-5,2,-2,127,5
1532061930314,0,-22,-3,-17,-5,-1,81,2
1532061930319,-3,-55,1,45,10,2,20,-2
1532061930324,1,-7,-7,-39,-12,2,-27,0
1532061930329,-4,10,0,17,-1,0,-94,7
1532061930334,10,2,1,-2,8,3,-100,-15
1532061930339,17,27,9,28,7,-1,-104,-3
1532061930344,12,-6,1,-7,4,7,-69,6
1532061930349,-3,-17,-6,10,-7,2,-95,-1
1532061930354,-4,3,-19,-33,-5,-4,-43,2
1532061930359,19,14,5,5,5,1,-45,1
1532061930364,-29,-16,-1,7,1,2,-35,-10
1532061930369,-9,-10,-10,4,0,0,-26,-2
1532061930374,-4,7,17,26,8,9,-14,5
1532061930379,-1,29,-22,-42,-10,-4,-5,-1
1532061930384,3,-37,26,31,-3,-10,-3,4
1532061930389,-1,-7,11,23,10,2,-5,-1
1532061930394,-17,-20,-25,-27,-9,-10,-4,-5
1532061930399,17,23,8,-80,-21,-5,7,8
1532061930404,19,32,10,22,16,9,12,2
1532061930409,-18,-40,-17,-34,27,-10,3,-14
1532061930414,8,14,7,71,8,4,3,0
1532061930419,2,12,-1,16,-35,-1,11,10
1532061930424,-5,-79,-22,-9,-5,0,10,-6
1532061930429,-9,28,-16,-53,-28,-10,-2,-7
1532061930434,3,22,-12,3,26,0,2,2
1532061930439,-2,-22,8,6,-22,-2,13,5
1532061930444,-5,-2,-8,-32,-15,2,10,-6
1532061930449,0,-14,0,53,12,-2,5,-2
1532061930454,1,-2,-11,-36,-4,-13,1,0
1532061930459,8,50,50,59,22,5,9,4
1532061930464,9,14,14,-3,50,-8,5,2
1532061930469,1,1,1,-17,-37,11,10,0
1532061930474,-1,-1,10,26,-27,0,7,5
1532061930479,5,3,-10,-31,3,1,5,5
1532061930484,4,24,-9,31,63,-2,3,-1
1532061930489,-12,-57,5,-25,-42,-8,0,-8
1532061930494,-5,-2,-1,17,-3,0,2,-2
1532061930499,-6,-23,-11,5,26,-4,3,-3
1532061930504,7,25,-2,40,-8,9,7,4
1532061930509,6,33,5,-4,17,-3,5,2
1532061930514,-8,-25,-21,-54,-62,-12,-5,-4
1532061930519,-4,-9,-2,30,2,-4,2,-2
1532061930524,1,11,6,24,5,2,2,3
1532061930529,9,44,8,17,35,5,5,5
1532061930534,-1,-10,9,7,7,-1,4,-1
1532061930539,-3,-21,14,-12,6,3,2,-5
1532061930544,-3,-3,-5,-6,-24,-3,2,-1
1532061930549,0,-8,-4,-45,-12,-1,1,3
1532061930554,1,14,7,-3,22,1,1,-1
1532061930559,-1,5,5,36,-1,3,1,1
1532061930564,7,7,-15,-61,-21,-3,3,-3
1532061930569,3,23,5,-3,-46,-13,-4,4
1532061930574,-4,-27,18,29,52,15,7,0
1532061930579,-14,-37,-17,-13,-13,-8,-5,-10
1532061930584,-1,-3,4,18,-13,-2,1,-1
1532061930589,1,-1,-3,-9,28,1,3,-1
1532061930594,4,19,3,-18,-31,-6,0,5
1532061930599,2,9,-5,2,-5,1,2,1
1532061930604,-1,1,-3,-19,-16,-4,-2,-2
1532061930609,-2,-7,-3,67,34,2,2,-5
1532061930614,-3,-5,-7,-57,-20,0,-3,0
1532061930619,0,6,1,7,39,-1,-1,1
1532061930624,-2,-6,-13,-29,-50,-5,2,-3
1532061930629,-2,4,-2,11,-12,4,1,2
1532061930634,-4,-21,-1,24,7,-4,0,-2
1532061930639,-1,8,0,-4,1,-2,-4,-3
1532061930644,0,2,4,1,2,0,-1,0
1532061930649,2,-2,-1,-12,3,4,4,0
1532061930654,4,14,-4,5,-1,-3,-1,-2
1532061930659,0,1,-2,30,11,3,0,0
1532061930664,-4,-16,-5,1,-3,-3,-3,-1
1532061930669,-4,-10,1,2,20,-2,-3,-6
1532061930674,-3,0,-1,-10,-27,-1,1,1
1532061930679,2,13,4,1,11,3,2,-1
1532061930684,-2,-20,6,22,-5,1,3,0
1532061930689,-3,1,-8,-57,-20,-7,-8,-1
1532061930694,0,-1,-2,9,19,-1,-1,-2
1532061930699,-3,-3,-13,-5,-11,-2,-2,-6
1532061930704,4,16,5,-1,1,2,1,5
1532061930709,-7,-28,-9,6,9,1,0,-1
1532061930714,-2,-14,-5,-7,0,-4,-2,-4
1532061930719,11,33,5,3,-18,0,1,4
1532061930724,0,23,7,-2,12,1,1,2
1532061930729,-18,-72,-7,19,-5,-4,-2,-6
1532061930734,-11,12,-17,-4,-3,-2,-6,-9
1532061930739,-1,-8,-4,-22,-13,-4,-3,-3
1532061930744,6,28,-6,-13,4,-1,-2,-3
1532061930749,15,33,23,17,1,4,6,10
1532061930754,-2,-6,8,14,4,-1,-2,3
1532061930759,-3,-14,-15,-50,-4,-4,-3,-6
1532061930764,5,5,-3,-14,24,0,0,5
1532061930769,-1,0,-4,-3,-46,-5,-3,-3
1532061930774,2,-5,7,-1,18,4,3,2
1532061930779,-3,-9,8,41,-5,-1,-2,0
1532061930784,-5,-19,-9,-9,15,-3,-3,-2
1532061930789,-1,7,5,-4,-13,-1,-3,-2
1532061930794,8,18,17,-7,10,2,3,2
1532061930799,4,26,-7,24,-21,-3,1,0
1532061930804,-14,-37,-8,-48,-4,-4,-3,-6
1532061930809,1,6,2,-17,13,2,0,-4
1532061930814,-1,15,3,21,-2,-1,0,2
1532061930819,-6,-25,-8,-6,11,1,-3,-2
1532061930824,15,58,22,6,-14,1,1,5
1532061930829,-8,-14,-8,-1,7,-7,-4,-5
1532061930834,-6,-40,-15,10,-5,-1,1,0
1532061930839,-1,1,10,29,27,0,1,-1
1532061930844,-1,-8,-6,-27,10,3,0,-3
1532061930849,7,33,-3,-1,-53,-6,-1,2
1532061930854,-1,0,-22,2,-4,-5,-2,-1
1532061930859,0,0,9,14,-4,0,0,4
1532061930864,-1,9,5,7,10,0,-3,-4
1532061930869,-1,-10,-9,-13,48,4,4,0
1532061930874,2,-1,-6,-25,-27,-3,-2,-4
1532061930879,-2,0,-6,-18,-21,-4,-1,0
1532061930884,-5,-24,-5,15,-11,-3,-1,-3
1532061930889,-2,-7,-3,17,13,2,0,-1
1532061930894,4,14,10,-41,-1,-2,-1,3
1532061930899,-2,-4,-10,-41,5,1,0,-2
1532061930904,-11,-23,-1,13,-18,-5,-4,-6
1532061930909,2,-5,-5,22,4,-1,-1,0
1532061930914,0,27,2,-1,0,-6,-4,-5
1532061930919,-1,-13,4,23,7,4,5,2
1532061930924,0,2,-13,-12,-9,0,0,3
1532061930929,-3,2,3,2,-11,-3,-4,-2
1532061930934,1,-3,2,-21,3,-1,-1,-1
1532061930939,3,9,3,7,1,-1,-1,-1
1532061930944,3,21,5,13,0,-2,3,3
1532061930949,-1,-16,-5,12,3,-4,-4,-3
1532061930954,-11,-29,-3,6,-11,0,-1,-4
1532061930959,-4,-2,3,-12,1,-4,-4,-4
1532061930964,7,32,7,11,13,3,0,-2
1532061930969,2,-5,1,-3,-18,4,2,5
1532061930974,0,2,6,-13,16,2,3,2
1532061930979,1,-7,-2,-1,19,4,2,1
1532061930984,-1,5,-9,0,-29,-5,-4,-1
1532061930989,-3,-6,3,-13,16,1,2,0
1532061930994,4,-1,0,21,10,4,1,3
1532061930999,0,18,6,15,24,-1,-1,-4
1532061931004,-6,-19,2,-29,-25,2,3,-1
1532061931009,4,4,-3,-15,8,3,2,2
1532061931014,-8,-8,-17,10,-11,-8,-8,-8
1532061931019,6,19,-3,3,-15,-3,0,5
1532061931024,-8,-15,-5,-29,1,-4,-3,-1
1532061931029,-7,-33,-21,9,7,1,0,-6
1532061931034,-2,1,-6,-8,2,-2,-4,0
1532061931039,0,5,3,-8,29,2,-1,0
1532061931044,2,3,4,5,-31,-2,-1,1
1532061931049,4,30,-6,-4,-23,-2,0,-1
1532061931054,-4,-23,-1,-21,5,-1,1,1
1532061931059,-9,-24,-4,-1,-40,-6,-7,-4
1532061931064,-3,-2,-10,-5,25,0,0,-3
1532061931069,-2,19,9,14,6,-1,-4,0
1532061931074,6,22,6,27,13,4,3,0
1532061931079,0,-11,-2,-34,-21,1,0,-2
1532061931084,-3,-11,-3,34,-15,-8,-5,-1
1532061931089,4,14,5,-26,24,0,-1,1
1532061931094,-4,-20,-1,16,-29,-3,0,0
1532061931099,-3,-10,-6,-1,4,0,0,-1
1532061931104,3,-5,4,10,10,3,2,1
1532061931109,2,7,7,30,13,0,-1,0
1532061931114,1,8,10,-16,20,1,1,1
1532061931119,-4,5,-19,-17,-50,-7,-5,-5
1532061931124,-3,-21,-3,22,22,1,-1,0
1532061931129,1,15,4,-12,-30,-3,-2,-1
1532061931134,0,14,4,10,24,3,2,1
1532061931139,0,-12,-3,-8,-21,-1,-1,-3
1532061931144,0,2,6,1,19,5,0,-3
1532061931149,-2,-11,-8,5,12,-2,-2,0
1532061931154,5,14,2,12,-12,2,-1,2
1532061931159,2,21,-3,-5,19,0,2,2
1532061931164,-7,-33,-1,32,2,-1,-1,-7
1532061931169,0,-1,-3,-38,-8,-3,0,-1
1532061931174,0,7,-5,-15,-14,-4,-3,-2
1532061931179,-1,-8,7,47,10,3,1,1
1532061931184,0,1,-12,-70,26,-5,-3,-1
1532061931189,-2,6,-2,18,-21,0,-2,-1
1532061931194,0,8,6,3,-33,-3,-1,-1
1532061931199,-6,-11,-1,-10,17,0,-2,1
1532061931204,-4,-10,-3,-2,-42,-6,-3,-3
1532061931209,-1,-3,-6,-40,17,1,-1,0
1532061931214,-4,-10,-17,11,1,-4,-5,-1
1532061931219,4,6,26,9,1,4,4,4
1532061931224,-2,-6,-1,3,8,-2,0,0
1532061931229,-5,-19,-8,1,1,2,0,-4
1532061931234,3,-1,-4,-1,-4,-1,0,0
1532061931239,-2,2,-4,-8,5,-1,-1,-1
1532061931244,3,8,4,32,8,3,1,0
1532061931249,-1,8,6,-1,-7,-5,-4,0
1532061931254,-4,-24,6,21,28,2,0,-3
1532061931259,-1,5,-7,-36,-29,-2,0,-1
1532061931264,-5,-4,-6,12,-24,-3,-6,-2
1532061931269,1,9,-5,5,-7,-3,-1,0
1532061931274,0,6,10,11,15,2,0,-1
1532061931279,5,11,-2,-13,6,-2,1,2
1532061931284,1,13,5,14,1,1,0,1
1532061931289,-7,-38,-9,-4,3,-2,-3,-3
1532061931294,0,16,-2,-13,-4,-1,-2,-1
1532061931299,0,7,5,35,1,0,1,-2
1532061931304,7,27,16,-24,5,2,4,2
1532061931309,-5,-36,-14,-19,8,2,2,1
1532061931314,-7,-31,-1,6,9,-3,-2,-3
1532061931319,-5,-2,-9,-17,-24,1,-1,-4
1532061931324,2,6,-1,-2,-15,-2,-1,0
1532061931329,4,21,11,16,5,0,0,-2
1532061931334,5,3,8,-4,12,3,1,4
1532061931339,-1,-7,-4,17,0,-3,0,-1
1532061931344,2,8,-1,-28,-1,2,4,0
1532061931349,-3,-11,0,3,10,3,1,0
1532061931354,-3,-5,-10,-16,-22,-5,-6,-2
1532061931359,1,18,3,23,14,-4,-6,-1
1532061931364,-1,-35,-2,15,22,2,2,1
1532061931369,-6,-9,-2,6,-23,-4,0,-7
1532061931374,3,20,7,0,6,2,3,-2
1532061931379,-3,-24,-6,-11,8,1,-1,1
1532061931384,3,23,1,4,-5,-2,-3,0
1532061931389,2,12,5,5,7,-1,0,1
1532061931394,-1,-2,0,24,11,-1,-1,-1
1532061931399,0,-2,2,-80,-13,0,-1,1
1532061931404,0,-5,-5,14,-13,1,2,-2
1532061931409,7,31,9,13,4,2,0,2
1532061931414,-4,-12,-9,-10,-3,-1,1,0
1532061931419,-9,-32,2,25,-8,-3,-5,-5
1532061931424,-7,-4,-19,-15,4,-5,-5,-5
1532061931429,0,3,1,0,-7,-3,-2,-1
1532061931434,1,9,-2,-9,-7,2,1,0
1532061931439,3,7,5,20,17,1,1,3
1532061931444,-2,-8,-2,-3,-1,-1,-3,1
1532061931449,-2,0,-2,14,-5,-3,1,2
1532061931454,-3,2,1,-3,20,2,-1,-2
1532061931459,1,15,-19,2,-31,-5,-3,-2
1532061931464,-1,1,0,13,-4,-3,-1,1
1532061931469,-4,-21,5,6,27,-1,1,-1
1532061931474,-3,-19,-2,25,-12,8,-1,-2
1532061931479,0,5,2,-13,2,-7,-2,-2
1532061931484,1,13,-16,-59,-3,0,-2,1
1532061931489,4,16,4,2,-31,-2,-2,3
1532061931494,-3,2,9,7,8,-3,-1,-1
1532061931499,-9,-46,-5,30,18,2,1,-3
1532061931504,-6,-9,-17,-38,-10,-3,-1,-5
1532061931509,3,14,16,19,20,1,-1,1
1532061931514,7,24,-7,-95,-35,-5,0,3
1532061931519,2,-2,1,22,15,1,1,2
1532061931524,-17,-34,-1,-6,-11,-8,-9,-12
1532061931529,4,2,-6,1,19,4,1,2
1532061931534,-1,27,0,21,-23,-5,-1,-3
1532061931539,0,-17,5,-11,16,1,0,3
1532061931544,4,7,11,30,-6,3,3,1
1532061931549,-1,-12,-5,-35,-35,-3,-2,-3
1532061931554,2,14,-13,45,31,2,-3,4
1532061931559,3,18,20,-17,-21,3,4,4
1532061931564,-7,-21,2,10,4,-2,-5,-3
1532061931569,-9,-20,-14,13,25,-2,-3,-8
1532061931574,6,11,6,-21,-29,-3,-1,-1
1532061931579,3,49,-3,-50,-8,-2,0,3
1532061931584,-9,-53,-3,15,7,0,-1,-4
1532061931589,-4,-11,6,-15,-3,0,1,-1
1532061931594,-5,-27,-4,2,3,-1,0,-6
1532061931599,4,24,2,13,-5,-3,-6,0
1532061931604,16,66,10,-9,-3,1,2,8
1532061931609,-7,-13,11,37,10,0,-3,-1
1532061931614,-3,-31,-24,-60,31,1,-4,-6
1532061931619,3,10,9,-9,-32,0,4,3
1532061931624,0,-15,-33,-8,-15,-4,1,2
1532061931629,2,26,24,-5,-19,2,1,3
1532061931634,-7,-27,7,18,-2,-2,0,-1
1532061931639,0,-1,2,15,24,2,3,-2
1532061931644,11,48,7,10,18,6,1,8
1532061931649,1,3,-1,7,12,7,1,1
1532061931654,-18,-45,8,11,-21,-8,-4,-13
1532061931659,-12,-40,-27,24,7,-4,-7,-8
1532061931664,7,19,12,5,5,4,4,1
1532061931669,6,40,-9,-37,-9,-4,-3,2
1532061931674,3,-1,-4,5,-1,1,3,6
1532061931679,0,-6,-8,-7,6,-2,-1,-3
1532061931684,5,21,30,17,0,0,3,3
1532061931689,-4,-7,2,15,43,-2,-5,-5
1532061931694,-3,9,9,-29,-78,-4,-2,-4
1532061931699,-3,-9,-1,10,14,0,0,-3
1532061931704,0,-2,2,10,8,4,1,2
1532061931709,4,3,-1,-21,-19,-1,0,0
1532061931714,3,14,-11,-4,19,-1,-2,-3
1532061931719,-5,-12,-10,-28,-5,-2,-2,-1
1532061931724,-4,-11,-22,10,0,-5,-5,-5
1532061931729,-6,-20,-20,8,-11,-5,-5,-1
1532061931734,7,16,15,20,13,3,1,6
1532061931739,0,-1,-4,-10,-7,-3,-1,-2
1532061931744,-8,-23,-46,-15,6,-4,-6,-7
1532061931749,2,4,-6,-3,-9,-1,2,-1
1532061931754,-2,2,9,12,-3,-6,-3,1
1532061931759,2,11,16,5,6,2,1,2
1532061931764,-5,-19,8,3,-4,0,0,-3
1532061931769,-2,-7,21,-12,-7,2,0,0
1532061931774,4,9,-5,-18,9,3,2,2
1532061931779,-3,-1,-19,-2,2,-5,-2,-6
1532061931784,-4,7,20,15,-15,-5,-5,0
1532061931789,10,0,12,16,-4,1,3,4
1532061931794,7,-2,-4,-16,20,2,0,2
1532061931799,4,15,23,-8,-21,2,-1,2
1532061931804,3,-3,7,-41,16,4,8,-2
1532061931809,-13,-6,2,11,-10,-6,-4,-10
1532061931814,-19,1,7,114,11,-3,-6,6
1532061931819,18,0,-13,-2,5,-1,0,-2
1532061931824,48,21,8,16,4,0,-3,8
1532061931829,-30,5,6,-49,-2,5,10,-1
1532061931834,8,-7,-2,-14,0,-1,-8,-2
1532061931839,-12,-7,1,12,-2,1,2,-2
1532061931844,-16,-20,12,-10,11,1,-3,-6
1532061931849,14,0,-5,26,-13,-5,-5,1
1532061931854,-7,-8,-40,-8,2,3,6,-2
1532061931859,9,-6,13,-3,-4,0,1,4
1532061931864,-2,3,4,11,5,1,2,-2
1532061931869,7,15,-1,15,2,1,7,4
1532061931874,-17,-19,11,-18,3,2,-10,-6
1532061931879,4,-37,-30,2,5,-3,3,-9
1532061931884,-10,2,-4,6,-12,-7,-19,-6
1532061931889,6,5,-3,11,-2,-2,-6,-3
1532061931894,12,30,-4,-19,1,-1,2,6
1532061931899,-2,26,12,7,9,4,9,2
1532061931904,-25,-44,20,16,1,-2,-2,-9
1532061931909,34,17,4,-24,-5,4,1,7
1532061931914,-15,-5,-8,-15,-1,1,7,-2
1532061931919,35,18,27,19,1,-4,-2,11
1532061931924,-22,-6,-2,-14,-19,-7,-2,-3
1532061931929,-8,-8,-8,-6,0,3,1,-1
1532061931934,31,-2,15,-19,4,-5,-1,0
1532061931939,-45,-4,-13,10,9,4,-2,-9
1532061931944,17,19,-5,27,-4,-2,9,5
1532061931949,-1,29,7,10,-7,-3,-13,1
1532061931954,-19,-58,-2,13,-6,-5,10,2
1532061931959,-4,-20,-19,-24,-10,-5,-16,-12
1532061931964,2,-15,2,-9,22,13,10,3
1532061931969,-13,-15,-30,6,1,-1,1,-7
1532061931974,54,36,12,50,-4,-2,0,14
1532061931979,-31,-13,-9,-44,-7,-4,-4,-3
1532061931984,20,24,1,10,-8,-1,0,-5
1532061931989,10,7,10,14,12,3,4,4
1532061931994,-9,-23,0,24,11,4,4,-8
1532061931999,12,6,-5,3,-13,-2,-9,-1
1532061932004,-23,0,-9,-7,-1,-5,-4,-1
1532061932009,-11,-11,-1,25,4,-1,3,-4
1532061932014,5,17,-10,-28,-19,-3,7,0
1532061932019,-9,-4,10,14,-4,-1,-13,0
1532061932024,-7,6,-6,-11,9,0,-1,1
1532061932029,7,-8,-5,-39,5,-2,-1,-1
1532061932034,-15,0,11,10,8,4,-1,-5
1532061932039,-2,4,-13,13,-9,0,4,0
1532061932044,5,-7,-11,-35,-10,-4,-3,-1
1532061932049,-1,-14,-4,1,-1,-2,-1,-2
1532061932054,-19,-1,-20,-13,-15,-7,-10,-8
1532061932059,2,8,16,6,4,2,4,3
1532061932064,10,1,0,1,-2,1,2,4
1532061932069,-6,-5,-7,-17,3,0,0,-3
1532061932074,0,6,1,-6,-5,-1,-1,1
1532061932079,4,-3,1,8,3,-2,0,-1
1532061932084,-19,-2,9,27,2,1,2,-2
1532061932089,-4,2,-11,-31,-19,-6,-8,-4
1532061932094,-1,11,8,13,8,4,0,1
1532061932099,10,-7,-8,9,5,-1,4,-1
1532061932104,0,1,3,-5,-7,-2,-3,-2
1532061932109,-3,2,23,28,9,4,2,6
1532061932114,10,0,-14,-41,-9,-5,-7,-3
1532061932119,-20,-1,17,9,4,1,3,-2
1532061932124,-3,0,-1,7,-1,0,0,-1
1532061932129,4,-3,1,16,-2,-2,-1,1
1532061932134,-7,2,14,2,1,1,0,-1
1532061932139,10,8,-8,-6,-13,-3,0,0
1532061932144,7,-3,-4,-12,10,3,1,2
1532061932149,-10,-10,-10,-18,8,1,-1,-2
1532061932154,6,14,18,43,3,3,0,0
1532061932159,-7,-21,-39,-57,-15,-8,-4,-4
1532061932164,-2,-2,0,23,-16,-7,-3,-2
1532061932169,1,0,5,1,2,0,0,-1
1532061932174,-8,-1,2,-3,9,0,-2,-2
1532061932179,4,3,1,8,-2,-2,-1,1
1532061932184,0,1,3,1,0,1,0,1
1532061932189,8,-5,-9,-12,3,1,0,2
1532061932194,-1,-2,-2,-18,-9,-7,-5,-6
1532061932199,-1,-4,-3,-2,3,1,1,2
1532061932204,3,-1,3,-1,-4,0,-1,-3
1532061932209,0,3,-2,-3,-3,-4,-2,-2
1532061932214,-5,-8,-8,-3,8,5,3,1
1532061932219,2,2,6,2,4,2,1,1
1532061932224,0,1,-7,2,-10,-3,-5,-2
1532061932229,-6,-7,-5,10,-2,-3,-3,-3
1532061932234,-6,-7,-19,-43,-2,-1,0,-2
1532061932239,-3,2,3,4,8,6,2,0
1532061932244,-4,-1,0,6,-4,-1,3,4
1532061932249,45,12,3,17,-5,-3,0,5
1532061932254,-45,-17,-2,-9,3,0,-3,-10
1532061932259,9,-2,1,14,2,-2,-1,2
1532061932264,-4,3,-4,-14,-1,-2,-2,-1
1532061932269,-2,29,-2,-5,-3,-1,0,0
1532061932274,7,-27,17,4,0,-2,1,0
1532061932279,-10,-26,-22,-6,-2,-1,-3,-5
1532061932284,-2,-7,-13,-1,7,2,0,-2
1532061932289,-13,-3,18,-3,-2,-3,-5,-2
1532061932294,15,26,4,10,-2,2,2,6
1532061932299,-7,9,16,-35,-9,-5,0,-5
1532061932304,2,-15,-25,-27,1,-4,-5,0
1532061932309,-7,2,3,47,12,6,0,1
1532061932314,3,7,-3,-17,0,2,2,1
1532061932319,5,-2,5,-3,-11,-2,-2,1
1532061932324,3,7,0,-7,6,1,2,0
1532061932329,-10,-15,-10,-51,-13,-6,-3,-3
1532061932334,1,0,5,52,0,-2,-2,-1
1532061932339,2,-4,-14,-7,7,0,0,-2
1532061932344,-6,5,10,6,-2,-2,-1,-2
1532061932349,-20,-15,-7,15,4,1,2,-4
1532061932354,12,2,-9,-16,-4,-2,-3,-3
1532061932359,-2,11,9,13,4,1,0,1
1532061932364,3,0,2,-1,1,1,2,1
1532061932369,-4,-12,1,5,-4,-3,0,-3
1532061932374,-5,1,-15,-18,-7,-2,-3,1
1532061932379,3,7,6,9,1,-2,-3,1
1532061932384,0,-7,7,-2,-3,0,1,-2
1532061932389,-3,-6,-6,-20,4,3,0,-2
1532061932394,3,2,0,4,-1,-4,-2,1
1532061932399,-4,-2,-2,-6,1,-1,-1,-1
1532061932404,3,1,0,4,-9,-1,0,1
1532061932409,10,-2,-6,-10,2,1,0,2
1532061932414,-7,-3,5,27,4,0,0,-2
1532061932419,1,-2,1,-1,-4,-1,-5,-1
1532061932424,-3,2,1,-8,-4,-1,-2,-2
1532061932429,11,4,-3,2,-4,-2,0,-1
1532061932434,-20,-18,-2,-9,2,1,0,5
1532061932439,-19,-6,-8,20,-6,-4,-2,-5
1532061932444,-8,-2,1,-23,-1,-1,1,-6
1532061932449,11,-2,-4,12,-4,1,5,5
1532061932454,13,5,-3,-6,-3,-2,0,-1
1532061932459,2,5,5,-1,3,2,-8,0
1532061932464,-2,-3,-6,2,1,2,3,4
1532061932469,-10,-4,4,18,3,-3,-17,-5
1532061932474,2,6,-1,-49,-5,1,6,1
1532061932479,1,3,4,-32,2,0,3,0
1532061932484,4,2,5,68,2,-3,-2,-4
1532061932489,-7,-3,-7,-19,-6,-1,13,7
1532061932494,0,0,1,14,1,0,-15,-16
1532061932499,6,2,3,-3,5,3,2,2
1532061932504,2,-2,-8,-28,0,1,-4,0
1532061932509,-8,-5,-1,4,-4,-4,0,-4
1532061932514,3,4,3,1,1,-1,2,2
1532061932519,3,6,-3,22,5,2,2,-1
1532061932524,-1,-5,-1,-11,-1,0,0,-1
1532061932529,-4,-5,-6,0,-2,-1,-1,-3
1532061932534,2,1,2,32,0,2,-1,-1
1532061932539,4,0,-2,-46,0,0,1,0
1532061932544,-1,2,0,3,-3,-1,-2,1
1532061932549,-1,0,1,-7,4,1,-4,-5
1532061932554,1,-6,-4,12,-3,-2,-2,0
1532061932559,1,1,2,12,0,1,3,1
1532061932564,-2,-3,-4,6,1,-2,-3,-1
1532061932569,-5,-4,-2,-21,-5,-1,-3,-2
1532061932574,2,6,1,-8,-3,-1,3,0
1532061932579,-3,-2,2,23,2,0,-3,0
1532061932584,4,5,4,23,3,2,2,2
1532061932589,-3,-3,-5,-44,-3,1,-1,-2
1532061932594,-3,-1,1,17,-3,-2,-3,4
1532061932599,2,0,3,25,3,0,2,-1
1532061932604,0,2,0,-22,-2,-1,-1,-1
1532061932609,1,-1,-5,-3,-8,-1,3,-3
1532061932614,-2,-1,-4,-7,10,2,1,1
1532061932619,-1,-3,0,4,0,1,-2,-1
1532061932624,2,0,1,2,3,-1,0,-1
1532061932629,-1,2,1,6,-3,-2,-3,-1
1532061932634,0,1,-6,-21,-11,-4,-2,-2
1532061932639,0,-8,-6,8,2,0,-1,0
1532061932644,-2,1,0,-13,-4,0,-1,-1
1532061932649,-3,-5,-1,4,6,-1,-3,-3
1532061932654,1,5,3,8,0,1,-1,1
1532061932659,2,4,3,-5,3,1,1,-2
1532061932664,0,-4,-5,-6,-12,0,1,-1
1532061932669,-1,0,1,-7,-2,-1,-2,1
1532061932674,0,-2,0,23,6,0,1,-3
1532061932679,-1,0,3,12,-1,-2,-1,0
1532061932684,0,0,0,4,0,0,0,0
1532061932689,0,-2,-2,1,-1,-1,0,-1
1532061932694,0,-1,-4,-23,0,0,-1,-1
1532061932699,-1,-2,-1,-4,-5,-1,-2,-2
1532061932704,0,-1,-4,-6,-4,-3,-3,-1
1532061932709,-1,3,2,7,5,0,0,-1
1532061932714,-1,1,-1,-3,0,-1,1,0
1532061932719,-5,-9,-9,-21,-7,-4,-4,-3
1532061932724,-1,3,2,-8,4,-1,0,0
1532061932729,-1,-2,0,7,-3,-2,-1,-1
1532061932734,2,-4,-2,-5,-4,-1,0,0
1532061932739,1,13,6,15,3,2,3,2
1532061932744,-2,-4,-1,-13,1,-1,-3,-1
1532061932749,-2,-13,-7,0,-12,-4,-3,-3
1532061932754,-1,0,-1,-5,-2,0,-1,-2
1532061932759,-2,-3,-2,8,9,2,0,0
1532061932764,0,6,2,6,10,0,-1,1
1532061932769,1,5,1,14,2,2,-1,-2
1532061932774,-2,-4,-4,-12,-7,-3,0,-2
1532061932779,-1,-2,-6,-15,-18,-4,-3,1
1532061932784,-2,-1,2,9,-1,-4,0,-2
1532061932789,-2,-1,-3,-4,2,-2,0,-3
1532061932794,0,-2,2,-3,-2,-1,0,-1
1532061932799,1,0,2,2,1,-1,-1,-2
1532061932804,-1,-1,-1,-3,3,2,1,-2
1532061932809,-2,-1,1,13,0,-1,-2,0
1532061932814,-2,-7,-2,-16,-4,-5,-2,-1
1532061932819,-1,-1,0,10,4,1,0,1
1532061932824,-4,-7,-10,-60,-13,-2,-4,-2
1532061932829,1,5,6,20,5,1,1,-1
1532061932834,-3,3,-6,-31,-5,0,-3,-1
1532061932839,-1,-4,-3,-5,-3,-3,0,0
1532061932844,1,0,1,9,2,2,0,-1
1532061932849,1,3,2,8,4,2,0,2
1532061932854,2,10,8,19,22,1,2,1
1532061932859,0,-3,-2,-9,-8,1,0,-2
1532061932864,-2,-3,-5,-5,-25,-5,-1,-1
1532061932869,-3,-14,0,-11,-8,-3,0,-2
1532061932874,-3,-16,-10,7,-10,-4,-5,-3
1532061932879,2,7,3,-3,11,-1,0,0
1532061932884,0,3,2,14,6,-2,-1,0
1532061932889,0,5,2,-9,-5,-1,-1,1
1532061932894,-1,3,3,0,3,-1,0,1
1532061932899,-2,-2,3,7,5,1,-4,-2
1532061932904,-2,-1,-3,2,0,-1,-2,-1
1532061932909,0,1,-5,-9,-6,-1,0,-1
1532061932914,1,4,10,10,-2,4,0,0
1532061932919,0,-1,-3,-3,1,1,-1,0
1532061932924,2,1,3,7,2,2,1,-1
1532061932929,0,4,3,33,9,1,1,0
1532061932934,1,-1,-4,-38,-9,-2,0,-1
1532061932939,-1,1,-3,0,-7,-2,-1,-1
1532061932944,-3,-6,-4,-1,3,1,-2,-1
1532061932949,-2,-5,-3,13,-1,-3,-2,-1
1532061932954,-1,5,4,18,5,2,0,0
1532061932959,-2,-5,-6,-6,-4,-2,-1,-2
1532061932964,-2,0,1,8,2,-2,-1,-1
1532061932969,1,7,5,-3,8,6,4,1
1532061932974,-4,-7,-13,-41,-12,-7,-5,-4
1532061932979,-2,-4,-2,0,-5,-1,-1,0
1532061932984,1,-3,-3,5,0,0,-2,-2
1532061932989,0,0,1,2,-3,-1,0,0
1532061932994,2,5,5,13,1,0,1,-2
1532061932999,-1,-1,-2,-17,-2,-1,0,0
1532061933004,0,-2,-2,8,4,0,2,-1
1532061933009,-3,-5,-3,-7,-3,-3,-3,-1
1532061933014,0,2,-3,-10,-15,-1,0,1
1532061933019,-3,1,0,9,-3,-2,-2,-2
1532061933024,-3,1,0,-9,-4,-2,-3,1
1532061933029,-2,-11,-7,-23,-6,-3,-4,-3
1532061933034,-2,-2,1,24,17,5,1,-2
1532061933039,0,2,0,4,-2,-1,0,-1
1532061933044,0,4,3,-3,0,-1,0,0
1532061933049,-1,3,-4,-10,-8,-3,-3,-1
1532061933054,-1,1,-7,9,0,-1,-1,1
1532061933059,1,8,5,8,-2,1,0,1
1532061933064,-6,-29,-5,9,8,-2,-2,-2
1532061933069,-2,0,-5,-29,-3,-1,-1,-2
1532061933074,-1,0,12,49,-8,-3,-1,0
1532061933079,-1,1,-11,-18,0,-4,-2,-2
1532061933084,0,7,-4,-2,-2,0,-1,1
1532061933089,1,-1,1,3,-1,-1,1,-2
1532061933094,0,0,3,-1,3,0,0,-1
1532061933099,2,4,8,2,-1,1,0,2
1532061933104,-2,-6,-5,-3,-5,-4,-1,-1
1532061933109,-1,0,-4,-1,7,3,0,0
1532061933114,-1,4,5,-1,8,-1,-4,-2
1532061933119,-2,-6,-3,1,-6,-2,0,-1
1532061933124,0,-1,-3,-13,-9,-2,0,0
1532061933129,0,6,7,5,2,0,-2,2
1532061933134,-1,-7,-8,-2,-2,0,-1,0
1532061933139,0,1,1,-2,2,-3,-2,-1
1532061933144,1,-2,3,2,4,2,1,-1
1532061933149,-2,0,3,7,-5,-3,0,0
1532061933154,-2,-6,-12,-15,-4,-3,-2,-2
1532061933159,0,-4,1,1,7,0,0,1
1532061933164,1,11,3,-1,4,1,-1,2
1532061933169,-3,-10,0,3,1,-2,-2,-2
1532061933174,0,-3,7,7,0,2,0,0
1532061933179,-2,-1,-9,-21,-7,-4,-1,-1
1532061933184,-1,2,5,6,0,-1,0,0
1532061933189,0,-2,-5,-1,-4,-2,-1,-2
1532061933194,0,2,-1,-1,-1,-1,-2,1
1532061933199,-2,-7,1,5,0,-1,0,0
1532061933204,1,3,4,6,-1,1,-1,0
1532061933209,-1,1,-5,-7,-3,-3,-3,-1
1532061933214,0,0,2,-5,4,1,1,1
1532061933219,-1,-3,1,11,0,1,-2,-3
1532061933224,-1,0,4,4,6,2,1,-1
1532061933229,1,0,1,2,-3,0,-1,0
1532061933234,-1,3,-4,-8,-2,-2,-1,-1
1532061933239,2,7,18,5,5,1,0,-1
1532061933244,-4,-17,-26,-2,-4,-5,-3,-1
1532061933249,-3,-1,-3,-9,-2,0,-2,-1
1532061933254,-1,0,-2,9,2,-3,1,-2
1532061933259,-1,-5,-2,-11,-3,0,-1,-1
1532061933264,2,13,24,6,-6,0,1,0
1532061933269,3,12,9,0,3,-1,2,0
1532061933274,-8,-26,-34,-11,-4,-4,-5,-4
1532061933279,-7,-16,-25,-18,-8,-6,-4,-5
1532061933284,-1,-1,-5,-8,-3,-3,-2,-2
1532061933289,1,4,13,6,3,1,-1,0
1532061933294,3,15,18,-2,-6,-3,0,-2
1532061933299,1,-3,-25,14,7,0,1,2
1532061933304,0,4,7,-1,3,-2,0,-1
1532061933309,-3,-4,-3,-14,-2,-1,-3,-5
1532061933314,2,3,-8,9,-6,3,2,3
1532061933319,-4,0,33,6,-9,-5,-6,-3
1532061933324,2,9,3,-2,-2,1,0,1
1532061933329,-3,5,-15,3,15,-1,-1,-5
1532061933334,-2,3,-4,4,6,7,5,2
1532061933339,-2,-7,22,-1,-20,-3,-3,0
1532061933344,-6,-12,-37,-37,-8,-6,-2,-8
1532061933349,-1,-10,2,-3,-7,-1,-1,1
1532061933354,0,10,36,23,11,-1,-4,-1
1532061933359,3,7,-25,-14,5,0,2,0
1532061933364,-2,0,-4,14,-5,2,-2,-1
1532061933369,0,-5,20,3,2,-1,1,0
1532061933374,-1,1,-19,-17,-14,-6,-2,-3
1532061933379,2,-5,11,4,17,5,2,8
1532061933384,-6,-3,1,-17,0,-1,-2,-7
1532061933389,-2,0,-21,0,-3,0,1,-5
1532061933394,-1,-6,16,16,2,-4,-2,2
1532061933399,-3,8,16,15,-2,0,0,-6
1532061933404,0,7,20,26,14,5,4,4
1532061933409,7,-3,-4,-35,-10,-3,-3,2
1532061933414,5,1,-6,9,19,-2,-2,3
1532061933419,-5,-11,-18,-3,4,-2,-2,-6
1532061933424,-1,-8,-4,-1,-7,3,-1,2
1532061933429,-6,-21,-8,6,-12,-4,-2,-3
1532061933434,-4,0,-1,-6,2,0,-2,-2
1532061933439,2,8,-10,-1,-2,-1,3,1
1532061933444,10,20,33,22,8,-1,-1,2
1532061933449,-5,-10,-56,-20,-10,-3,-2,2
1532061933454,-12,-41,-30,-17,-2,-2,-2,-4
1532061933459,-17,-17,22,11,6,-2,-5,-8
1532061933464,3,5,-15,-18,1,-3,-2,-4
1532061933469,7,16,28,22,0,3,2,6
1532061933474,3,13,28,-3,-11,-3,1,0
1532061933479,4,3,-19,-1,-4,1,0,1
1532061933484,-3,-7,7,17,41,1,-1,4
1532061933489,-11,3,19,-27,-41,-5,-10,-10
1532061933494,1,0,-34,-10,-4,1,3,-3
1532061933499,0,-8,26,-10,-14,-2,-1,-3
1532061933504,1,2,-1,-6,0,-7,0,2
1532061933509,3,-3,15,22,16,0,0,5
1532061933514,-5,-3,-15,-22,-15,-3,-5,-6
1532061933519,9,11,-9,30,4,-3,0,3
1532061933524,1,-5,-2,-32,-6,0,-1,-3
1532061933529,-4,-5,-12,-8,3,2,1,-1
1532061933534,5,4,15,-10,-13,-3,1,0
1532061933539,7,-9,-6,-18,9,3,-1,2
1532061933544,-5,-8,-16,21,-25,-1,-2,0
1532061933549,-19,10,-7,14,6,0,1,-4
1532061933554,-14,-3,14,1,-7,-2,0,-2
1532061933559,17,1,9,-3,2,-1,0,4
1532061933564,8,-2,-16,-5,-7,-2,-3,0
1532061933569,-6,-2,-17,3,3,1,1,1
1532061933574,14,13,20,7,-2,1,2,2
1532061933579,3,-11,-6,-9,-5,-5,-3,-2
1532061933584,1,15,6,23,2,2,0,3
1532061933589,3,-15,-17,-18,-7,-4,-3,-3
1532061933594,-23,-7,0,11,5,1,-2,-7
1532061933599,2,0,-1,22,3,-1,0,1
1532061933604,3,8,10,39,-3,2,2,5
1532061933609,6,2,-8,-36,6,2,2,-1
1532061933614,-12,-1,-14,13,4,1,-1,-3
1532061933619,8,-11,-19,-4,6,3,-1,1
1532061933624,35,20,18,34,0,1,0,5
1532061933629,-25,-11,20,-5,3,1,-2,0
1532061933634,-10,-14,-26,-30,-18,-6,-1,-7
1532061933639,-11,-15,-4,-13,-7,-2,-1,-1
1532061933644,22,6,-8,7,-4,-2,-1,2
1532061933649,10,11,-2,23,8,4,10,4
1532061933654,-5,5,16,7,11,3,-5,2
1532061933659,18,8,-4,-5,-9,-2,-2,2
1532061933664,-44,-18,-2,-21,-1,-2,1,-6
1532061933669,6,-9,-11,-18,-12,-9,-8,-4
1532061933674,-28,-3,2,2,-3,-4,1,-4
1532061933679,9,5,12,12,2,2,-2,-4
1532061933684,-4,-8,-13,-14,3,-1,-4,-7
1532061933689,1,8,13,33,-2,-2,2,2
1532061933694,8,-3,-21,-25,-3,-6,-3,-3
1532061933699,-5,0,2,0,-9,-2,-2,1
1532061933704,-11,-22,-9,-11,10,4,1,-5
1532061933709,11,14,26,38,11,3,2,4
1532061933714,9,-9,-5,7,-10,-5,-3,-1
1532061933719,-6,10,18,-25,-4,1,3,2
1532061933724,-2,-5,-23,-8,-12,-4,-2,-1
1532061933729,9,8,-11,-19,-5,0,-2,1
1532061933734,-12,-5,-1,-2,-3,0,-1,-3
1532061933739,-11,-2,-5,10,16,1,3,-3
1532061933744,4,5,-4,-48,-10,-3,-3,-6
1532061933749,19,11,12,-3,2,1,0,23
1532061933754,-42,-31,-18,-23,-5,-4,-8,-22
1532061933759,-1,4,-6,33,-1,-1,0,-3
1532061933764,0,9,16,5,0,-2,1,3
1532061933769,4,18,10,11,6,3,3,-4
1532061933774,14,-16,9,18,5,1,-1,5
1532061933779,-6,-4,-30,-34,-6,-4,-1,-1
1532061933784,8,0,13,20,29,2,1,-2
1532061933789,-2,2,-10,-18,-22,3,-4,-1
1532061933794,14,47,9,27,12,2,5,9
1532061933799,-4,-44,-20,-10,6,0,-3,-5
1532061933804,-3,-4,-9,-15,-43,-6,0,4
1532061933809,-5,-41,-12,-5,-16,-5,-2,-1
1532061933814,-12,11,-15,-25,-11,0,-1,-9
1532061933819,24,57,26,18,14,0,1,8
1532061933824,-1,6,23,11,48,0,0,-1
1532061933829,-26,-51,-34,-31,-32,-4,-8,-18
1532061933834,27,7,19,11,2,2,4,16
1532061933839,-38,-14,-11,-12,-3,-6,-4,-11
1532061933844,10,20,17,5,-3,-2,-1,0
1532061933849,0,13,-5,16,25,1,-2,-3
1532061933854,8,-8,4,-4,-4,0,0,0
1532061933859,7,2,5,1,-15,-1,1,4
1532061933864,-1,-9,-13,9,1,-1,0,1
1532061933869,-28,3,11,0,9,0,0,-9
1532061933874,37,9,-14,-5,2,-2,-1,2
1532061933879,-26,-18,25,14,-5,-2,-3,-1
1532061933884,-11,-18,-40,-35,-29,-3,-3,-5
1532061933889,5,11,8,6,23,0,1,3
1532061933894,-12,1,-7,2,1,2,2,-1
1532061933899,8,-1,11,18,43,3,0,-1
1532061933904,4,7,-4,-10,-52,0,-2,1
1532061933909,0,3,-2,11,2,-2,2,-1
1532061933914,0,-5,-9,-22,-15,-4,-4,1
1532061933919,6,-10,-1,3,1,-2,-1,-1
1532061933924,1,1,-5,6,21,3,-1,2
1532061933929,-1,3,-3,2,-1,-3,1,-3
1532061933934,2,2,8,6,1,-1,-2,0
1532061933939,-3,-19,-20,-23,-11,-5,-2,-3
1532061933944,-8,-6,4,4,9,0,-2,-4
1532061933949,11,12,15,7,-3,1,1,4
1532061933954,-2,-10,9,-1,1,-2,-1,-2
1532061933959,3,17,10,9,-6,3,2,4
1532061933964,-4,-7,-17,-13,13,-5,-3,-3
1532061933969,5,1,-10,-13,-11,-1,-2,-2
1532061933974,-3,2,-23,-9,-1,2,1,0
1532061933979,1,-13,-2,19,11,1,0,-1
1532061933984,-3,-1,-18,-52,-54,-8,-2,0
1532061933989,-1,-5,-10,16,15,-2,-1,-2
1532061933994,-8,-4,0,-19,3,-4,-5,-2
1532061933999,10,14,13,-2,-22,1,4,4
1532061934004,5,-1,19,29,23,5,0,7
1532061934009,-22,5,11,-1,-6,-4,-5,-10
1532061934014,4,-1,7,13,5,2,3,1
1532061934019,6,17,-5,0,6,1,0,0
1532061934024,-10,-25,9,8,4,0,1,-2
1532061934029,9,6,13,-7,-8,-5,0,-1
1532061934034,0,2,4,13,8,3,1,-5
1532061934039,-6,-5,-12,-19,-12,1,-4,5
1532061934044,13,22,1,24,5,5,4,1
1532061934049,-1,-12,28,-4,19,-1,-3,2
1532061934054,-2,-1,-4,-6,-8,0,2,-1
1532061934059,2,8,-9,-4,-29,-3,2,-2
1532061934064,-6,8,12,-3,6,-4,-3,1
1532061934069,27,10,-6,10,0,3,5,6
1532061934074,-25,-10,12,9,10,3,-1,-5
1532061934079,-7,-3,7,-3,1,-3,-5,0
1532061934084,11,-3,-9,4,2,-2,-1,0
1532061934089,1,7,-28,-5,-9,-1,-1,-2
1532061934094,6,-1,-3,-6,-2,-2,0,4
1532061934099,2,-8,18,17,14,1,-1,-2
1532061934104,-7,-2,-9,-12,-13,-1,-4,0
1532061934109,-4,-5,-40,-7,-11,0,-2,-2
1532061934114,9,12,36,16,19,5,1,3
1532061934119,-4,-10,-8,-10,-1,1,3,-4
1532061934124,-1,6,0,-3,20,-3,-2,-4
1532061934129,-1,-1,5,-15,-36,-4,-1,-2
1532061934134,-4,-5,-6,-8,-21,-4,-2,-1
1532061934139,7,13,7,2,4,2,1,0
1532061934144,-1,-12,2,7,11,1,-1,0
1532061934149,-8,0,12,-3,2,-2,-2,-2
1532061934154,1,-10,4,2,4,-2,-2,-2
1532061934159,1,3,-1,-4,2,0,-2,0
1532061934164,-1,3,-14,-6,-10,-1,0,-2
1532061934169,1,-1,6,10,6,0,-1,2
1532061934174,-12,-1,-8,-9,-14,-4,-1,-5
1532061934179,2,1,-12,5,10,3,0,0
1532061934184,-6,0,0,-5,-5,-1,0,2
1532061934189,5,-17,-6,-4,3,-1,-2,-4
1532061934194,15,12,12,12,9,-2,-1,2
1532061934199,1,-15,-19,-13,-9,-3,0,1
1532061934204,-28,-2,7,17,-6,-3,-1,-13
1532061934209,10,6,18,-14,4,0,-2,2
1532061934214,11,2,-9,-4,-13,-5,-4,1
1532061934219,5,-8,17,-9,6,-3,2,0
1532061934224,5,5,-7,-2,-8,-1,-11,-3
1532061934229,-16,-9,-16,-8,-5,-4,0,-6
1532061934234,-4,-7,0,11,7,2,1,2
1532061934239,-8,2,-2,5,-3,-2,-1,-10
1532061934244,0,1,8,13,-1,-2,0,0
1532061934249,11,9,6,21,5,1,0,4
1532061934254,-15,-13,-22,-31,-3,-1,-2,-1
1532061934259,-2,-8,-13,-7,5,0,-3,-6
1532061934264,6,0,13,-11,-7,2,4,4
1532061934269,11,2,-24,-1,2,-2,0,0
1532061934274,5,3,2,10,-5,-2,5,1
1532061934279,-24,-8,13,7,-2,-1,-5,-1
1532061934284,-1,-8,-5,-2,3,-2,5,-4
1532061934289,-7,-2,19,17,5,3,-2,-1
1532061934294,8,10,0,-5,-1,2,-6,-1
1532061934299,1,0,-13,-7,-5,-2,-2,0
1532061934304,3,-1,-5,7,-2,1,1,3
1532061934309,-9,-4,2,-20,-2,-5,9,-5
1532061934314,-3,1,9,18,3,-2,-9,-7
1532061934319,3,9,13,11,-2,2,2,6
1532061934324,1,-1,-23,-22,0,-3,0,2
1532061934329,-13,-5,-2,1,-1,2,0,-6
1532061934334,-3,-5,-7,-5,-6,-3,1,-2
1532061934339,-15,-4,-6,-3,0,-4,1,1
1532061934344,8,1,-2,-3,1,2,-4,-7
1532061934349,1,0,10,3,3,2,17,1
1532061934354,-11,-7,-2,15,6,-2,-43,-5
1532061934359,6,11,9,0,-3,0,-1,-2
1532061934364,0,-14,-8,-29,-2,-3,-2,3
1532061934369,-13,4,7,15,-3,1,0,-2
1532061934374,8,-6,6,18,-1,-1,19,4
1532061934379,12,-6,-12,-15,-4,-3,-4,0
1532061934384,-4,9,7,-3,2,3,3,-1
1532061934389,7,1,-7,9,-2,-1,-5,1
1532061934394,7,4,-11,4,6,5,9,3
1532061934399,-16,-10,-9,-7,-4,-2,-6,-1
1532061934404,-4,-2,3,-3,1,1,1,-1
1532061934409,-4,1,1,-16,-14,-4,-8,-2
1532061934414,-1,0,-2,-1,13,1,3,-2
1532061934419,5,9,11,7,0,2,7,1
1532061934424,-2,-9,-13,-16,-7,-3,15,-3
1532061934429,3,7,-5,9,2,0,-16,3
1532061934434,-1,-11,-13,-22,-11,-6,-2,-2
1532061934439,6,2,4,9,1,2,-11,0
1532061934444,-2,3,8,17,4,1,-4,-4
1532061934449,11,1,-3,-31,-7,-4,2,-1
1532061934454,2,-4,-4,-18,-8,-2,7,-3
1532061934459,2,-2,-4,2,3,1,15,4
1532061934464,9,9,10,23,2,1,-15,1
1532061934469,-17,-8,-2,21,2,-3,-5,-5
1532061934474,-7,-22,-27,-45,-7,-4,2,-3
1532061934479,-2,8,-4,-2,-8,-3,0,-4
1532061934484,9,1,12,7,6,2,8,2
1532061934489,3,8,16,21,-1,1,-5,2
1532061934494,-6,-3,10,4,5,3,-1,-1
1532061934499,0,-11,-15,-13,-13,-6,-4,-6
1532061934504,-2,-7,-3,9,13,4,2,0
1532061934509,-3,5,3,-45,-14,-6,-5,-1
1532061934514,-2,5,17,19,0,3,18,8
1532061934519,15,-15,-7,-15,-1,-2,-12,-6
1532061934524,-23,3,6,23,-2,-4,-10,-5
1532061934529,23,-4,-6,2,6,1,-10,3
1532061934534,-5,11,-2,-18,-9,-3,0,-10
1532061934539,6,4,10,9,2,-1,8,5
1532061934544,0,-5,3,-5,-1,-3,-6,-2
1532061934549,-3,-3,-20,-15,-5,-3,2,-3
1532061934554,-3,-1,2,-1,-5,-3,-7,0
1532061934559,-3,-2,3,5,8,4,13,0
1532061934564,3,-3,-18,-33,-15,-5,-14,-1
1532061934569,-22,-9,-8,-13,0,-1,-7,-5
1532061934574,5,6,7,26,1,0,-4,-1
1532061934579,-9,-3,-7,-23,-8,-4,-3,-2
1532061934584,3,0,-1,12,2,0,9,1
1532061934589,3,-1,4,-2,6,4,4,3
1532061934594,-1,-1,-8,4,-5,-4,1,0
1532061934599,1,3,3,6,-9,-2,-4,-2
1532061934604,1,1,4,-7,1,-1,0,-1
1532061934609,0,1,7,18,13,3,6,1
1532061934614,0,1,-1,7,21,5,1,-1
1532061934619,-3,3,12,69,-8,-1,-4,0
1532061934624,1,0,-11,-18,-9,-3,0,7
1532061934629,-6,-6,9,28,-14,-4,-5,-5
1532061934634,2,-1,-5,-12,5,2,4,-1
1532061934639,0,-2,-3,25,14,0,-2,-3
1532061934644,-2,0,6,-6,3,2,-5,2
1532061934649,2,3,3,-10,6,1,8,2
1532061934654,-2,2,-2,-13,-10,-2,-9,1
1532061934659,-4,1,-1,3,0,-2,2,4
1532061934664,-2,2,11,23,4,0,5,-6
1532061934669,-4,-6,-11,-15,-4,-1,0,-4
1532061934674,2,-1,-7,6,6,3,1,-1
1532061934679,-3,1,-5,-17,0,3,-4,-3
1532061934684,0,-4,-6,-11,-4,-3,0,-1
1532061934689,1,-1,-3,-13,-1,-1,-1,-1
1532061934694,2,6,14,11,-6,3,4,3
1532061934699,0,-3,-2,0,6,2,-6,-1
1532061934704,-3,-3,-5,0,-1,-2,1,-2
1532061934709,0,0,1,2,0,-1,-2,0
1532061934714,-1,-1,-1,10,-7,-6,-3,7
1532061934719,1,0,-1,-26,-16,-4,-7,-4
1532061934724,1,4,2,9,16,5,3,-1
1532061934729,-1,-2,7,13,4,3,4,-2
1532061934734,-4,-8,-17,-19,-4,-4,-4,-1
1532061934739,-1,-1,1,-20,-1,-2,0,-5
1532061934744,-1,-1,3,7,-11,-3,0,-2
1532061934749,0,1,-1,0,2,-1,-3,3
1532061934754,1,3,5,-8,-5,-2,-1,-3
1532061934759,-3,0,7,50,10,-3,-3,1
1532061934764,-1,-5,-9,-38,-6,-1,2,-3
1532061934769,0,1,5,18,8,2,5,0
1532061934774,-4,-5,-5,10,-8,-2,-6,-3
1532061934779,-1,-2,-4,-11,-8,-2,15,-1
1532061934784,-1,0,3,14,12,2,-20,3
1532061934789,-1,-3,-5,0,7,-1,1,-1
1532061934794,-2,0,1,-26,-17,2,-3,-4
1532061934799,1,6,6,-13,1,2,11,6
1532061934804,-2,-1,-9,-18,-14,-3,14,2
1532061934809,-2,-3,-2,-6,-6,-2,-28,-12
1532061934814,2,7,6,18,12,-1,2,-3
1532061934819,-3,-9,-17,-22,-4,-3,-8,-6
1532061934824,1,2,3,-21,-8,1,7,1
1532061934829,-1,4,13,19,9,1,9,3
1532061934834,-2,-6,-18,8,2,-3,1,-1
1532061934839,0,2,6,2,-4,2,-4,1
1532061934844,0,0,0,11,4,-1,-3,-5
1532061934849,-2,-4,-11,-6,-4,1,4,-1
1532061934854,2,3,10,8,2,2,4,-1
1532061934859,-1,-1,-2,-11,-1,-3,-12,1
1532061934864,-1,0,1,-6,-1,-2,-1,0
1532061934869,1,1,5,22,-2,1,-4,7
1532061934874,-2,-5,-7,-14,-6,-3,-5,-6
1532061934879,-2,-7,-15,-11,-2,-2,-4,-2
1532061934884,1,0,8,12,0,-3,-2,-3
1532061934889,1,7,7,9,17,8,7,5
1532061934894,-1,-5,-4,-36,-11,-5,0,0
1532061934899,-2,-1,0,-3,2,-1,7,-3
1532061934904,-2,-1,-1,12,6,2,-14,-4
1532061934909,1,3,-1,-11,-10,-4,6,0
1532061934914,1,-1,9,12,10,0,-1,-2
1532061934919,-1,-3,-1,23,5,1,-3,0
1532061934924,-3,-5,-5,-17,-21,-5,2,1
1532061934929,-1,-3,-4,-7,-4,-2,1,-1
1532061934934,0,5,11,10,-3,0,-3,-2
1532061934939,0,0,-14,-32,1,-4,-1,0
1532061934944,-2,-4,-2,16,16,2,-2,-3
1532061934949,-2,-9,-6,-13,-27,-5,-1,0
1532061934954,-1,1,6,14,2,-1,-2,2
1532061934959,2,3,5,-2,-3,2,2,1
1532061934964,0,0,0,5,0,-3,0,-1
1532061934969,-2,-1,-5,-21,-8,-4,-3,-3
1532061934974,-1,0,-2,5,13,4,2,1
1532061934979,0,1,18,20,1,-1,-2,0
1532061934984,-6,-12,-27,-22,-13,-5,-3,-3
1532061934989,-1,3,-2,17,25,1,-2,-3
1532061934994,0,3,9,3,-13,2,2,2
1532061934999,-2,-5,-1,-2,0,0,-2,-3
1532061935004,1,6,10,14,0,0,3,2
1532061935009,-3,-2,-4,-13,-11,-4,1,-2
1532061935014,0,0,-1,15,16,2,-1,-1
1532061935019,-1,2,-3,-22,-8,-2,-3,-1
1532061935024,-3,-8,-8,19,-3,0,-2,-2
1532061935029,-2,-7,-6,1,4,-1,-1,-1
1532061935034,-1,2,2,16,5,1,-2,-2
1532061935039,0,2,4,-5,0,-2,-1,1
1532061935044,-2,-2,-4,-18,-9,-4,-3,-1
1532061935049,-2,1,-3,-3,2,-3,-2,-3
1532061935054,-2,-4,-3,-10,-9,-4,-1,-1
1532061935059,0,2,-1,16,-9,4,6,1
1532061935064,0,-2,-2,-7,30,9,-3,-2
1532061935069,-1,0,-1,-2,-3,2,-2,-1
1532061935074,-1,0,-3,-20,-1,-2,5,2
1532061935079,-1,-1,1,-8,-7,-4,-10,0
1532061935084,2,6,11,2,-5,-2,-2,0
1532061935089,0,-4,-8,15,1,-1,1,-2
1532061935094,0,3,6,16,4,1,-1,-3
1532061935099,-5,-8,-14,-53,-18,-4,3,-1
1532061935104,0,-2,-2,-3,-2,0,0,-2
1532061935109,0,3,10,2,-13,0,1,0
1532061935114,-1,-4,-14,-11,15,2,9,1
1532061935119,1,2,4,10,2,0,-8,4
1532061935124,1,3,9,4,1,1,-3,-4
1532061935129,-6,-9,-17,-24,-4,-4,-3,-6
1532061935134,0,4,7,3,-9,-2,-3,3
1532061935139,-1,-3,-4,-1,6,1,6,-2
1532061935144,0,-1,3,5,-10,-4,4,2
1532061935149,0,0,2,7,11,3,-1,-1
1532061935154,-2,-4,-8,-27,-16,-6,-4,-2
1532061935159,-1,4,8,45,10,-1,-2,-1
1532061935164,2,0,2,-23,20,0,5,3
1532061935169,4,14,5,29,-6,3,2,2
1532061935174,-3,-22,-10,-17,-13,-2,-7,-3
1532061935179,0,1,8,3,-2,0,-2,-1
1532061935184,0,-1,-3,15,1,-3,1,-4
1532061935189,1,-1,0,-11,1,2,0,2
1532061935194,0,5,7,18,32,5,-1,-2
1532061935199,0,-2,-6,-1,-19,-1,-2,-1
1532061935204,-1,-1,-4,-9,-21,-4,4,-1
1532061935209,-1,-6,-1,-20,-6,-1,-5,-1
1532061935214,0,6,1,16,-9,-3,-3,-3
1532061935219,1,3,10,-1,21,3,2,0
1532061935224,-2,-3,-5,-3,7,0,-2,-2
1532061935229,1,0,-1,7,-20,-6,4,-1
1532061935234,-6,-6,-16,-30,-2,-4,-6,0
1532061935239,1,1,-5,19,17,5,0,0
1532061935244,0,0,5,15,-6,-4,-1,-1
1532061935249,-1,-1,3,5,4,2,-1,0
1532061935254,2,4,6,1,2,-1,1,0
1532061935259,0,1,-8,-24,-9,-4,1,-2
1532061935264,-2,-3,-6,2,-4,0,-1,1
1532061935269,-2,-7,3,4,14,0,0,0
1532061935274,2,6,7,-2,-9,0,-1,-1
1532061935279,-4,-10,-9,-1,0,-2,0,-1
1532061935284,2,-3,5,5,2,4,-2,1
1532061935289,-3,-4,-8,-30,-3,-3,-3,-2
1532061935294,1,2,-3,-4,-14,-4,0,-1
1532061935299,0,-1,9,18,16,3,1,-2
1532061935304,-1,2,1,6,-10,-2,-1,2
1532061935309,0,-2,-5,5,5,4,1,-1
1532061935314,0,-2,4,10,-15,-3,-2,0
1532061935319,1,1,5,3,21,0,1,-4
1532061935324,-3,-1,-6,-18,-33,-4,-4,-1
1532061935329,-1,-1,0,-1,-4,-4,-1,-1
1532061935334,-1,1,-3,13,3,-1,-1,0
1532061935339,-1,3,6,5,0,2,1,-2
1532061935344,0,4,-2,-6,19,3,-2,1
1532061935349,1,0,7,-2,-3,-3,1,2
1532061935354,-3,-7,-9,11,6,0,-2,-2
1532061935359,-2,-7,-22,-64,-17,-5,-3,-1
1532061935364,-1,-3,-2,-10,-6,-3,-2,-3
1532061935369,-2,1,0,5,13,-2,0,-1
1532061935374,1,3,8,9,-6,1,1,1
1532061935379,2,5,8,13,-4,0,-1,0
1532061935384,-1,-5,-4,4,-7,-1,13,2
1532061935389,-1,-2,1,-3,2,-2,-18,-3
1532061935394,0,2,4,-10,1,0,1,-2
1532061935399,-3,-7,-12,15,-4,-2,-2,-3
1532061935404,3,3,5,3,6,0,4,-2
1532061935409,-1,0,-8,-5,3,0,4,0
1532061935414,0,1,2,-1,7,2,3,1
1532061935419,-1,-3,4,0,-3,-1,-4,-3
1532061935424,0,4,1,5,-3,-1,-4,-2
1532061935429,-4,-12,-3,5,-1,-2,2,0
1532061935434,0,3,-2,-1,17,4,-4,-2
1532061935439,-1,-2,2,5,8,2,6,0
1532061935444,0,0,6,1,-15,-1,-4,1
1532061935449,1,9,-10,-11,8,1,-3,-2
1532061935454,-5,-8,-11,-54,-77,-16,-3,0
1532061935459,1,5,4,19,4,0,-1,0
1532061935464,-1,-1,1,-24,-6,0,-4,-2
1532061935469,-1,0,-10,-5,0,-4,-2,-4
1532061935474,-2,-14,-2,9,42,3,0,-2
1532061935479,-2,1,-6,-1,-16,0,0,0
1532061935484,1,5,11,13,7,1,-2,0
1532061935489,0,-3,2,3,1,3,4,1
1532061935494,-1,1,0,6,5,-1,0,-2
1532061935499,-1,-3,-3,-10,-6,-5,-1,-1
1532061935504,0,-1,6,21,23,2,1,2
1532061935509,-3,-7,-24,-18,-16,-3,-2,-1
1532061935514,-2,-1,0,14,-18,-5,-4,-2
1532061935519,1,5,7,0,4,-1,-1,2
1532061935524,-2,-3,-12,-4,-2,0,-1,-2
1532061935529,1,10,20,31,11,0,3,4
1532061935534,-1,-6,-6,-10,9,1,-1,-3
1532061935539,-3,-1,-5,-8,-12,-2,-2,0
1532061935544,1,-4,-4,8,30,-1,-3,-1
1532061935549,1,5,15,-6,-34,-2,0,0
1532061935554,-1,1,-11,-6,-8,-1,-1,0
1532061935559,0,4,10,12,14,0,0,-3
1532061935564,-2,-6,-4,-15,-14,2,-1,2
1532061935569,-2,-5,-13,-12,5,-3,-1,-1
1532061935574,0,-3,1,-6,-2,-1,1,-1
1532061935579,-3,-4,-7,-4,-5,-2,-1,-3
1532061935584,-1,7,3,8,1,0,0,-1
1532061935589,1,-1,6,1,2,2,2,2
1532061935594,3,7,14,14,16,2,1,1
1532061935599,-1,-4,-10,-18,-11,0,-2,-1
1532061935604,0,-2,-1,13,48,3,1,-3
1532061935609,-1,2,5,-18,-59,-2,-2,0
1532061935614,0,8,1,7,28,0,-2,0
1532061935619,0,-5,4,4,-6,2,0,-3
1532061935624,-3,-6,-10,-7,-15,-4,-1,-4
1532061935629,0,-1,13,13,21,2,2,-1
1532061935634,-1,3,3,-7,-4,-1,-1,0
1532061935639,-2,-4,-6,5,0,-3,-2,1
1532061935644,-2,-1,2,8,3,2,1,0
1532061935649,1,3,7,10,7,0,-1,0
1532061935654,-3,-7,-11,-15,-18,-1,-1,0
1532061935659,-1,-1,-2,1,0,-3,-2,-1
1532061935664,1,2,0,-5,-4,-2,-1,-1
1532061935669,-1,-2,-1,9,3,-1,-1,-2
1532061935674,-2,0,3,3,-7,0,-2,0
1532061935679,-1,1,-1,-4,1,-1,-1,-1
1532061935684,-1,7,-2,-5,-12,-3,-2,0
1532061935689,-1,-11,-3,-4,3,-3,0,-2
1532061935694,-3,-6,-6,6,16,0,-3,-1
1532061935699,-1,-1,-3,-4,-10,0,1,-2
1532061935704,2,5,-3,13,9,0,-1,-3
1532061935709,-2,1,-4,-30,-33,-5,-2,0
1532061935714,1,3,2,9,6,1,2,-1
1532061935719,3,1,3,2,-4,-1,-1,0
1532061935724,-1,-3,2,2,-1,-1,-3,-1
1532061935729,0,-1,-5,5,15,-1,-1,-3
1532061935734,-1,-2,-4,4,-5,-1,-4,-1
1532061935739,0,3,2,0,12,1,1,1
1532061935744,-3,-8,-10,-20,-17,-1,0,-3
1532061935749,-1,1,0,14,13,1,0,1
1532061935754,-1,3,-4,-4,-5,1,1,0
1532061935759,-3,-10,-9,-19,-7,-5,-2,-5
1532061935764,1,8,5,-1,-8,0,0,1
1532061935769,-1,7,0,0,8,1,-2,-1
1532061935774,0,-7,10,15,4,1,0,-1
1532061935779,-3,-20,-16,-14,-6,-3,-2,-2
1532061935784,-6,-14,-7,-6,-7,-2,0,-3
1532061935789,1,5,3,5,7,-1,0,0
1532061935794,1,9,5,-4,-3,-1,-1,1
1532061935799,1,3,1,-1,-4,-2,-2,0
1532061935804,0,9,6,1,11,-2,-1,0
1532061935809,-2,-15,-10,5,-11,0,0,-1
1532061935814,-1,-1,-3,-15,-1,-2,-1,0
1532061935819,1,6,5,1,3,1,0,1
1532061935824,1,6,3,5,-1,-2,-2,-1
1532061935829,-2,-6,1,3,8,1,0,-2
1532061935834,-4,-19,-14,-6,-2,0,-1,-3
1532061935839,0,3,4,2,1,-2,-1,1
1532061935844,0,1,3,14,-5,-1,2,1
1532061935849,0,2,-7,-22,1,-3,-3,-3
1532061935854,1,6,2,0,-3,3,-1,3
1532061935859,-2,-5,0,-6,0,0,0,0
1532061935864,-1,-6,-15,-18,-9,1,1,1
1532061935869,-1,1,3,10,12,3,1,0
1532061935874,0,7,3,4,-1,-1,4,-4
1532061935879,0,3,6,13,6,-1,-9,-1
1532061935884,0,1,1,-18,-10,-4,2,-2
1532061935889,-1,-3,-2,-7,-2,0,-10,1
1532061935894,0,-4,-1,3,0,-1,-3,4
1532061935899,-1,3,-3,9,-4,-1,10,3
1532061935904,-1,-7,-3,3,-1,-2,3,1
1532061935909,-1,7,2,7,2,0,-4,-7
1532061935914,-1,1,-9,-15,-4,-3,5,-2
1532061935919,-1,-3,-6,-7,-7,-2,-4,-4
1532061935924,1,5,4,7,12,5,1,3
1532061935929,0,-1,1,-11,-17,-2,5,1
1532061935934,-1,-6,-3,2,-5,-3,8,3
1532061935939,-1,1,-5,-6,0,-1,-10,-6
1532061935944,-4,1,8,-8,-4,-3,-4,-2
1532061935949,0,1,3,20,10,0,-1,-1
1532061935954,0,-3,2,-4,-7,2,6,3
1532061935959,1,6,1,8,1,-1,-9,-8
1532061935964,0,-2,2,2,0,-2,0,-1
1532061935969,-3,3,-1,-1,2,-1,0,0
1532061935974,11,-25,-10,-6,-4,-4,1,4
1532061935979,-6,4,4,4,6,3,1,1
1532061935984,-10,-4,-8,-1,-4,0,-13,-8
1532061935989,15,3,7,-4,-1,-1,-2,1
1532061935994,-5,10,0,2,4,0,0,0
1532061935999,2,3,-5,0,1,1,6,-3
1532061936004,1,-10,9,-1,-5,-2,0,-2
1532061936009,-6,-4,-9,-6,-2,-3,3,1
1532061936014,3,4,9,1,2,2,20,0
1532061936019,7,1,-5,-3,-4,-4,-27,-12
1532061936024,-19,-6,-6,-2,-6,-3,-9,-6
1532061936029,-8,-2,-4,8,2,0,8,1
1532061936034,6,-6,6,-5,5,1,-14,-6
1532061936039,13,14,-8,-10,-8,-2,20,4
1532061936044,10,-1,0,6,-2,1,8,14
1532061936049,-23,-21,-6,-4,-3,-5,-12,-9
1532061936054,-15,5,0,6,3,-2,-19,-5
1532061936059,-12,-13,0,-1,0,-2,-6,-4
1532061936064,12,4,-4,-4,1,-3,-5,-7
1532061936069,3,1,0,-1,-6,-3,-3,-3
1532061936074,-2,11,5,9,5,0,6,2
1532061936079,2,-9,2,-3,2,3,1,10
1532061936084,-1,1,-1,5,-1,2,4,-2
1532061936089,2,-3,-3,-12,-3,-2,-4,-4
1532061936094,2,5,0,4,-2,-2,-7,-5
1532061936099,0,-2,-3,-7,-13,-3,2,2
1532061936104,-2,-7,-8,0,8,2,-4,-1
1532061936109,1,0,-2,1,4,2,5,1
1532061936114,3,1,-3,-6,-2,0,-1,-6
1532061936119,-4,1,9,10,5,3,-17,7
1532061936124,0,-2,-10,-6,-11,-3,25,7
1532061936129,7,9,2,0,1,-4,-44,-7
1532061936134,-3,-4,-3,-7,-6,-3,4,4
1532061936139,-6,2,1,-8,-3,0,13,-4
1532061936144,2,3,4,-2,-2,-4,-5,-3
1532061936149,-4,-2,-2,-2,1,2,7,3
1532061936154,10,0,1,2,-2,-1,-5,0
1532061936159,-3,0,6,11,4,0,1,1
1532061936164,0,4,-5,-3,0,1,-3,3
1532061936169,2,-5,-11,-3,-7,0,11,0
1532061936174,-10,-15,2,0,-1,-1,-7,-5
1532061936179,1,-6,-6,-1,1,0,6,4
1532061936184,-1,-1,0,3,2,-2,-9,-4
1532061936189,2,0,5,3,-2,-1,7,0
1532061936194,-1,4,-1,-5,1,0,-5,2
1532061936199,0,-3,-5,0,-1,-2,19,14
1532061936204,3,-2,-3,0,3,3,-30,-24
1532061936209,-6,-10,-3,-4,-1,-2,37,17
1532061936214,1,3,-1,-2,-4,-3,-46,-12
1532061936219,0,2,6,3,1,-2,11,8
1532061936224,-5,-5,-1,-5,-4,0,-1,-5
1532061936229,5,2,1,1,0,0,-2,5
1532061936234,-2,7,0,5,1,3,32,8
1532061936239,-6,-5,-1,1,4,-1,-22,-22
1532061936244,6,-2,-1,-1,-3,-2,3,11
1532061936249,1,3,1,-3,3,1,-10,-3
1532061936254,0,-5,-4,7,-5,-4,15,8
1532061936259,-1,5,1,-3,1,0,-3,-1
1532061936264,-4,-1,4,1,0,-1,4,-4
1532061936269,1,0,-3,-7,2,1,4,1
1532061936274,1,-3,-15,-8,-9,-4,-7,-7
1532061936279,-5,-6,1,4,1,0,1,-2
1532061936284,5,2,-3,-4,-5,-3,-5,2
1532061936289,-3,-1,8,5,3,2,5,-4
1532061936294,10,-1,-3,-8,0,1,-17,-5
1532061936299,-6,-5,-2,-1,1,0,11,-6
1532061936304,0,-2,3,3,-2,-2,9,11
1532061936309,-1,7,-3,-4,-3,-2,-10,1
1532061936314,-10,-11,-3,-1,3,1,9,-23
1532061936319,3,-4,0,1,-3,-2,-5,1
1532061936324,-3,2,0,1,-2,0,-14,4
1532061936329,13,6,0,0,-1,0,-6,0
1532061936334,-5,5,6,5,3,-1,7,3
1532061936339,-1,-3,-7,-13,-5,-2,-2,-4
1532061936344,-1,3,5,6,2,0,9,-1
1532061936349,-4,-6,-7,-15,-7,-3,-4,-2
1532061936354,-3,0,1,1,-3,-3,-4,4
1532061936359,3,5,3,0,3,0,3,0
1532061936364,2,0,-4,0,-1,-2,0,2
1532061936369,-3,-1,5,4,0,-3,-2,-6
1532061936374,-1,1,0,3,5,3,4,5
1532061936379,2,-1,1,-2,0,-2,-7,1
1532061936384,-4,-3,-1,1,1,1,3,-4
1532061936389,-2,1,1,7,1,0,0,-2
1532061936394,-1,-3,-1,-4,-4,-1,1,2
1532061936399,2,0,-1,-1,-1,-1,1,3
1532061936404,-4,-3,-2,-6,-3,-3,-8,-3
1532061936409,-1,-5,-3,2,2,-2,1,-3
1532061936414,0,2,0,-2,-3,-3,-4,2
1532061936419,-1,-1,1,5,3,3,-1,-2
1532061936424,-1,-2,-1,-5,-4,-2,4,-1
1532061936429,-1,-1,-2,0,0,0,-3,2
1532061936434,-1,-1,1,3,2,1,-2,-2
1532061936439,0,2,2,0,4,-1,-1,0
1532061936444,1,1,0,-3,-1,0,3,0
1532061936449,-1,-2,-5,-1,1,-1,-3,-1
1532061936454,-3,-2,0,0,-7,-4,-3,0
1532061936459,1,-1,-1,-5,0,0,2,1
1532061936464,-2,-1,-2,-3,-3,-2,-2,-1
1532061936469,-1,-1,-1,0,-3,-2,1,-3
1532061936474,-1,2,1,0,-1,-1,-1,0
1532061936479,0,-1,-3,-3,-6,-3,-4,-1
1532061936484,-2,-2,-2,-1,-1,0,1,0
1532061936489,-2,0,2,4,-3,-2,-2,-1
1532061936494,0,-1,-2,-2,4,0,1,0
1532061936499,0,-2,-3,-3,-2,-1,-3,-2
1532061936504,-1,-1,0,-1,0,3,1,0
1532061936509,-1,-1,-2,-4,-11,-2,-1,-4
1532061936514,0,2,2,5,7,2,-1,-1
1532061936519,-2,1,0,0,6,0,-2,-1
1532061936524,0,-1,0,2,0,-1,-1,-1
1532061936529,-1,0,0,-2,1,1,0,-1
1532061936534,0,0,-1,-4,-7,-4,-3,-1
1532061936539,-2,0,-1,0,-7,-1,-1,-1
1532061936544,1,0,0,0,1,-1,1,-2
1532061936549,0,-1,0,-1,-1,2,0,1
1532061936554,-1,-1,-2,0,3,1,0,0
1532061936559,-1,-2,1,5,2,0,-1,-1
1532061936564,-2,-1,3,3,-2,0,-1,-2
1532061936569,-1,-1,-5,-8,-2,-4,-2,-3
1532061936574,-2,-1,-2,-4,-4,-1,4,-1
1532061936579,-1,0,-2,-5,-1,-2,-6,2
1532061936584,-2,-3,-1,4,-1,-2,0,-2
1532061936589,-2,0,-1,1,-1,-2,-3,-2
1532061936594,0,-1,-2,-3,-1,0,6,0
1532061936599,2,1,2,8,-3,0,-6,-3
1532061936604,1,-1,-2,-11,5,0,0,0
1532061936609,-1,-1,-1,3,-1,1,1,0
1532061936614,0,0,0,2,3,-1,-4,-1
1532061936619,1,0,-1,-1,-2,0,5,1
1532061936624,-2,0,-3,-6,-5,-3,-2,-2
1532061936629,0,-2,0,2,1,-1,-1,0
1532061936634,1,-1,0,-2,-3,-1,-2,-4
1532061936639,0,1,-2,0,-1,0,2,0
1532061936644,-1,0,1,1,4,2,3,1
1532061936649,-1,0,2,18,3,0,0,-1
1532061936654,-1,-2,-1,-22,-1,0,0,3
1532061936659,-3,-1,-4,5,-5,-3,-5,-6
1532061936664,-3,-2,-3,-5,-3,-2,-4,-4
1532061936669,4,-2,-2,-2,2,2,11,6
1532061936674,0,0,1,5,-1,-2,-17,-4
1532061936679,2,-1,2,-2,1,0,6,4
1532061936684,1,-2,-1,2,1,1,1,-1
1532061936689,-2,1,-3,-2,-1,1,0,-2
1532061936694,1,1,-1,-6,-3,2,3,1
1532061936699,0,-1,1,3,-1,0,2,1
1532061936704,-1,0,0,-3,-3,-3,-2,-1
1532061936709,-1,-3,-3,-18,-11,-4,-6,0
1532061936714,0,-2,-2,3,2,1,3,-3
1532061936719,-1,1,-2,-1,-1,-1,-1,-1
1532061936724,0,-1,2,9,3,0,2,2
1532061936729,-1,-2,1,-2,4,-1,-5,-3
1532061936734,-4,-6,-10,-16,-11,-5,-2,0
1532061936739,-1,-1,0,0,-1,-1,0,-1
1532061936744,0,0,0,13,-2,-1,-2,-1
1532061936749,-2,0,1,-3,3,0,-1,-3
1532061936754,0,1,3,8,-1,-1,10,4
1532061936759,0,-2,-1,2,0,0,-1,2
1532061936764,-2,5,-5,-23,-8,-4,-14,-7
1532061936769,0,-5,0,-5,0,-2,-2,-1
1532061936774,-1,-4,0,15,2,1,-3,-6
1532061936779,-7,-3,-2,-10,-1,1,13,16
1532061936784,10,2,-1,-2,-1,-3,-3,-10
1532061936789,2,4,-2,3,-2,-3,1,0
1532061936794,-3,2,-2,-3,-3,-1,-7,-6
1532061936799,0,-1,0,-8,-1,-1,0,-4
1532061936804,-7,-3,-2,-6,-4,-1,-2,2
1532061936809,5,4,0,6,1,-1,4,5
1532061936814,-15,-8,0,5,0,-1,-5,-5
1532061936819,-3,1,1,4,2,0,3,-10
1532061936824,5,-4,-4,-1,-2,-1,-9,13
1532061936829,-15,-7,-3,0,-3,-1,0,-3
1532061936834,5,5,-1,0,0,-2,5,0
1532061936839,6,-1,0,-2,0,-2,-22,-9
1532061936844,-19,-2,0,-3,3,1,4,-7
1532061936849,12,1,4,3,0,0,0,3
1532061936854,-18,0,-5,-17,-3,0,-2,2
1532061936859,8,3,2,6,2,1,4,1
1532061936864,7,2,1,5,0,0,4,1
1532061936869,-3,1,3,14,3,2,6,0
1532061936874,6,0,-2,-17,-4,-6,-15,0
1532061936879,-3,-2,-2,-10,-4,-2,1,6
1532061936884,-1,0,3,2,1,1,1,1
1532061936889,-1,-2,-4,3,-5,-1,11,-1
1532061936894,3,3,4,16,5,1,-7,1
1532061936899,-4,-2,-4,-4,-1,-1,3,-3
1532061936904,-1,-6,-5,-5,-1,0,-7,-4
1532061936909,-7,-3,-3,-8,0,-2,-4,-4
1532061936914,8,1,1,5,1,3,8,5
1532061936919,-2,1,-1,0,-3,-1,-8,-4
1532061936924,0,-2,3,3,-3,-1,-3,5
1532061936929,15,5,-6,-16,-1,-1,-9,-4
1532061936934,-10,-5,-3,-5,-7,-2,3,-5
1532061936939,-2,1,-1,4,1,1,7,2
1532061936944,-4,0,1,2,2,-1,-2,0
1532061936949,3,-2,0,7,0,1,-6,1
1532061936954,6,0,-2,-2,0,-2,1,5
1532061936959,-2,-1,0,2,-1,-3,7,-2
1532061936964,-1,-4,-4,-2,0,0,1,-2
1532061936969,-5,-1,-2,-3,-4,-3,-7,-1
1532061936974,2,1,1,1,1,-1,4,-4
1532061936979,-3,-7,-2,-5,-3,-2,-3,-4
1532061936984,14,1,-1,3,2,1,4,2
1532061936989,-30,0,1,-2,0,-2,-3,-6
1532061936994,2,1,-2,4,-3,0,-1,-1
1532061936999,0,1,-1,0,0,-2,-3,0
1532061937004,-1,0,-2,-13,-2,-2,0,3
1532061937009,5,-1,2,2,0,1,10,-1
1532061937014,0,-1,0,14,4,-1,-8,-2
1532061937019,-4,-1,-4,-16,-3,0,-6,-2
1532061937024,0,0,-1,1,-3,-1,11,12
1532061937029,0,-3,2,0,-1,-1,-7,-4
1532061937034,-2,1,-1,-2,0,0,-2,-9
1532061937039,0,-1,0,7,-1,0,-3,-3
1532061937044,-1,1,0,1,1,0,5,0
1532061937049,0,-1,-1,-4,0,-1,9,1
1532061937054,3,-1,0,4,1,0,-6,3
1532061937059,-2,2,-3,1,-3,-4,-3,-1
1532061937064,-4,-6,0,6,1,0,2,-4
1532061937069,5,2,0,3,0,-1,-5,0
1532061937074,1,-1,-1,-8,-1,-3,0,-1
1532061937079,0,2,0,0,2,0,0,-1
1532061937084,-4,-5,-6,-10,-6,-2,-3,-7
1532061937089,1,-1,0,-2,-1,-1,-5,0
1532061937094,3,0,-2,5,2,1,6,2
1532061937099,0,-5,-5,-14,-5,-2,-5,-2
1532061937104,0,1,2,13,6,-1,-2,-6
1532061937109,-2,-1,-2,-17,-5,-1,-5,1
1532061937114,-1,-1,-6,-6,-2,-3,3,0
1532061937119,-1,0,2,2,-3,-2,0,-2
1532061937124,-1,6,-1,2,-2,-2,-2,-2
1532061937129,0,-7,-4,1,0,-1,1,0
1532061937134,-2,1,0,-7,1,3,-1,-1
1532061937139,-1,-3,2,11,-8,2,-1,-1
1532061937144,1,-1,-2,-3,7,0,1,-1
1532061937149,0,1,-3,-5,0,0,-3,-1
1532061937154,1,-1,1,-4,1,-1,0,1
1532061937159,1,-2,-3,4,1,-3,0,-1
1532061937164,-1,0,1,5,-8,-3,-1,-2
1532061937169,-2,0,0,0,0,0,-1,-1
1532061937174,4,-1,1,3,-2,-1,8,-5
1532061937179,-2,-4,-2,14,2,-3,-18,2
1532061937184,1,2,-1,-25,-2,-1,-2,-1
1532061937189,1,0,0,10,2,-1,1,-1
1532061937194,-3,-3,-1,-5,-1,2,0,0
1532061937199,1,2,2,2,2,-2,3,0
1532061937204,-2,0,1,11,-2,-1,-2,-4
1532061937209,-9,-6,-5,-11,0,0,1,1
1532061937214,3,-2,0,1,-6,-3,4,3
1532061937219,8,0,-2,-3,5,2,-8,6
1532061937224,-25,-5,-2,-2,0,0,-3,-8
1532061937229,2,5,2,2,-1,0,0,-3
1532061937234,-6,-4,-2,-4,0,-1,0,0
1532061937239,-7,-1,-3,-6,-3,-1,4,-3
1532061937244,7,0,-1,-1,-2,-1,-2,4
1532061937249,0,-1,2,7,-1,-2,-2,-1
1532061937254,-3,2,4,7,2,0,16,2
1532061937259,1,1,0,-15,0,-2,-18,-4
1532061937264,3,-2,-2,-1,-3,-3,0,1
1532061937269,6,-2,-3,1,0,0,0,-2
1532061937274,4,3,0,2,-1,-2,-6,-2
1532061937279,1,1,2,-1,1,0,7,0
1532061937284,0,0,0,20,3,2,8,-1
1532061937289,-1,-3,-1,-14,0,-5,-16,-4
1532061937294,-2,-4,-7,-21,-3,-4,-6,1
1532061937299,-2,1,2,4,0,1,8,-2
1532061937304,3,-5,-7,-8,-2,-3,-2,-1
1532061937309,-2,2,1,7,-5,-3,-3,-6
1532061937314,-4,1,6,14,4,2,7,0
1532061937319,-2,-7,-7,4,0,-2,-17,0
1532061937324,3,-2,-7,-19,-4,0,-5,-1
1532061937329,-3,-2,-1,-1,1,0,4,0
1532061937334,12,2,1,6,-5,-2,0,4
1532061937339,-18,-4,4,-8,-5,-2,1,2
1532061937344,-2,4,0,7,-1,-2,-8,-15
1532061937349,-1,7,3,-3,2,0,-9,-4
1532061937354,-13,-12,-1,14,5,-1,1,-5
1532061937359,5,5,-4,-17,-11,-1,8,-2
1532061937364,6,13,5,-6,2,1,1,9
1532061937369,2,-9,-6,-7,-3,-1,7,3
1532061937374,1,2,-6,1,1,2,-7,-8
1532061937379,5,-5,4,0,2,-1,5,3
1532061937384,-5,-3,-1,5,-3,-1,-2,-3
1532061937389,2,-3,-5,5,2,-1,5,3
1532061937394,4,7,6,-8,0,2,-4,3
1532061937399,-6,-3,-7,5,1,-1,3,-6
1532061937404,4,-3,-1,-15,-3,-1,2,6
1532061937409,-2,-5,6,21,3,1,1,-2
1532061937414,-3,-8,-16,-22,-8,-1,-7,1
1532061937419,-2,3,4,0,-1,-2,3,-4
1532061937424,1,1,2,10,3,0,3,1
1532061937429,2,-3,1,3,1,0,0,3
1532061937434,-6,1,-5,-11,0,-1,-5,-2
1532061937439,6,2,-4,9,-1,-1,2,-2
1532061937444,-1,-1,2,-16,-4,0,3,2
1532061937449,-2,-6,0,0,-1,-2,-4,0
1532061937454,-1,-1,-2,-1,3,0,-1,-2
1532061937459,-1,0,-5,-4,1,-2,1,-4
1532061937464,-2,-5,-7,3,-12,-4,-3,0
1532061937469,-2,8,4,0,10,6,4,1
1532061937474,0,-2,4,8,1,-2,-3,-2
1532061937479,0,-4,-3,3,5,2,1,3
1532061937484,-1,-1,2,1,0,-2,-2,-2
1532061937489,0,1,-5,-8,-7,-2,1,-2
1532061937494,-1,-6,-4,-4,0,0,-2,0
1532061937499,0,0,5,2,1,-1,1,-1
1532061937504,-2,-3,0,-3,1,0,2,4
1532061937509,-2,4,-4,-6,-3,-2,-2,-4
1532061937514,0,6,4,1,1,0,-2,-1
1532061937519,-5,-15,-2,7,-5,-1,-2,-3
1532061937524,9,-5,-7,-6,-1,1,-2,1
1532061937529,0,1,-1,0,-1,-1,1,1
1532061937534,1,1,0,1,-4,-1,-1,0
1532061937539,-1,0,1,0,0,2,0,0
1532061937544,1,-1,3,9,5,2,7,-1
1532061937549,-15,-4,-5,1,-1,0,-7,0
1532061937554,7,4,4,-2,-4,-2,0,1
1532061937559,2,6,0,-2,0,-1,-2,0
1532061937564,-3,-4,-2,4,-1,-1,0,0
1532061937569,2,2,0,-8,-2,-2,3,-1
1532061937574,-6,-4,-4,-1,-4,0,-6,0
1532061937579,-2,-1,-1,0,0,-1,9,2
1532061937584,0,3,1,6,1,0,-16,-8
1532061937589,3,-2,-3,-5,-3,0,5,7
1532061937594,-2,1,-1,-4,-2,0,-5,2
1532061937599,3,3,0,-2,2,-1,-3,-1
1532061937604,-3,-4,-3,-2,-1,-2,-4,-2
1532061937609,-1,-3,0,-1,0,0,1,2
1532061937614,0,-4,2,17,-2,0,2,0
1532061937619,-1,0,-10,-24,-3,-1,-2,-3
1532061937624,-5,2,3,10,-1,-2,1,0
1532061937629,1,-2,-2,2,0,-1,-3,0
1532061937634,-2,-2,0,-8,-5,-2,0,-3
1532061937639,-2,-1,2,4,3,-1,-3,0
1532061937644,-5,-2,1,0,0,1,3,-1
1532061937649,12,0,-3,-4,-1,-1,-3,1
1532061937654,-4,-3,-6,-10,-4,-3,-1,-2
1532061937659,3,5,2,2,-1,0,-3,-1
1532061937664,-3,-5,-2,-5,1,1,6,1
1532061937669,-1,2,4,3,2,1,7,1
1532061937674,-4,-3,-1,3,0,-3,-15,0
1532061937679,2,-3,-2,-4,-4,-2,1,-8
1532061937684,3,2,-3,-7,0,-1,-3,5
1532061937689,-2,0,1,18,-1,0,-2,-6
1532061937694,-3,-2,-5,-19,-3,-2,0,-2
1532061937699,-4,-4,-1,-2,-2,-2,3,1
1532061937704,-4,2,0,-1,2,1,-1,-1
1532061937709,-1,0,-3,-5,-1,-3,-4,-2
1532061937714,-2,0,1,6,1,0,13,-1
1532061937719,-4,0,2,5,-1,-1,-12,2
1532061937724,-1,0,0,-1,-2,-1,5,-1
1532061937729,2,0,-3,-16,-4,-1,-9,-3
1532061937734,-1,6,-1,2,2,4,15,-2
1532061937739,-4,-14,-9,-4,-1,-1,-12,1
1532061937744,5,-1,-2,-8,-5,-2,-1,-2
1532061937749,-10,2,-2,-11,-2,-3,-1,-5
1532061937754,0,-4,0,0,-3,-2,-4,-2
1532061937759,1,3,3,0,3,2,5,-2
1532061937764,-2,-6,1,4,-2,0,-9,4
1532061937769,2,4,1,1,0,-2,-2,-5
1532061937774,0,-2,1,1,1,-2,-3,-1
1532061937779,-1,1,-1,0,-1,-1,3,0
1532061937784,-4,-3,-6,-4,-5,-2,1,-3
1532061937789,0,-3,-2,-4,-2,-1,0,0
1532061937794,-3,-1,4,10,6,2,-5,1
1532061937799,2,4,-6,-1,-2,-1,2,0
1532061937804,1,2,7,3,0,-1,0,-4
1532061937809,-4,-1,-4,-3,-3,-2,-2,0
1532061937814,3,-7,3,4,0,0,-3,1
1532061937819,2,5,3,2,1,0,2,0
1532061937824,-4,-4,-5,2,0,-2,1,0
1532061937829,-2,-8,-5,-12,-4,-1,-2,-2
1532061937834,0,0,-4,2,-2,-1,-3,-2
1532061937839,0,1,3,2,0,0,1,-1
1532061937844,-2,2,5,7,1,0,-1,0
1532061937849,0,-4,-2,3,-1,0,-1,2
1532061937854,1,2,-4,-7,2,-2,0,-1
1532061937859,-1,-3,-2,-2,-5,-2,-1,-1
1532061937864,-1,0,-3,-2,2,1,1,0
1532061937869,0,1,2,3,0,0,0,3
1532061937874,3,1,-1,-3,-2,-1,-1,-4
1532061937879,-2,1,1,0,-1,2,0,1
1532061937884,-3,-5,-1,0,-1,-3,-3,-2
1532061937889,-1,-3,-3,-4,-4,-4,-2,-1
1532061937894,0,1,-3,0,-3,-1,-1,1
1532061937899,-1,-4,-2,3,2,0,8,-1
1532061937904,-1,1,-1,0,-2,-1,-15,0
1532061937909,-8,0,-1,-6,-3,0,-2,-1
1532061937914,9,-2,-2,-3,-2,-4,-2,1
1532061937919,1,1,-2,-1,4,2,1,1
1532061937924,0,-1,-2,3,-3,0,4,0
1532061937929,1,0,1,3,-2,1,1,-3
1532061937934,-2,-2,-1,-1,-1,-1,-5,0
1532061937939,-5,-1,-3,-4,-1,-1,5,2
1532061937944,1,1,0,-4,2,-1,-6,-3
1532061937949,-2,-2,1,3,-2,0,2,-3
1532061937954,-2,-2,0,1,2,0,-8,-1
1532061937959,3,0,0,-3,2,2,-4,3
1532061937964,-3,-2,-2,-1,-1,-1,-2,-3
1532061937969,2,0,-2,0,-1,-2,0,0
1532061937974,-6,0,0,2,0,-1,5,-3
1532061937979,-2,-3,-1,2,-2,-2,-4,-3
1532061937984,1,-1,-1,-2,0,0,1,-1
1532061937989,0,-1,-3,-6,-1,2,0,-5
1532061937994,-3,1,0,0,0,-1,1,1
1532061937999,-6,-5,-2,2,-3,-2,-3,-1
1532061938004,5,-4,-4,-3,-1,1,2,0
1532061938009,1,1,3,2,0,-3,-2,5
1532061938014,1,1,1,-7,-3,-1,-3,-7
1532061938019,-9,-1,1,7,0,-1,-4,-4
1532061938024,-1,0,0,-1,-1,0,0,-4
1532061938029,1,-2,0,0,1,0,-3,2
1532061938034,-1,1,-2,3,-3,1,3,0
1532061938039,2,2,-1,-10,-1,-1,-2,-3
1532061938044,-1,0,0,2,1,0,6,3
1532061938049,0,-1,-3,0,0,1,-5,-1
1532061938054,-1,-1,1,2,1,-1,-1,2
1532061938059,4,-3,-2,0,-1,-1,2,-2
1532061938064,-3,0,-2,-4,-3,-1,2,-1
1532061938069,4,1,2,6,3,1,0,1
1532061938074,-2,0,1,12,2,-1,1,0
1532061938079,-1,-1,-2,-24,-4,-2,-5,-3
1532061938084,-1,2,1,5,-1,-1,2,-2
1532061938089,-2,0,-1,3,-1,-4,-1,0
1532061938094,-5,-3,-1,6,-1,-1,-1,-2
1532061938099,10,1,4,2,0,0,1,3
1532061938104,1,-2,1,-2,1,-3,-3,0
1532061938109,-1,0,-1,0,-1,-1,0,-3
1532061938114,-3,-2,-3,0,-1,-1,1,2
1532061938119,-3,-1,0,2,-2,-2,0,-2
1532061938124,-2,-2,1,12,2,-1,-1,-4
1532061938129,1,1,1,-16,1,1,2,6
1532061938134,0,4,0,-11,2,1,-3,0
1532061938139,-1,-6,-2,0,-2,-1,-1,-1
1532061938144,-5,0,-2,0,-1,0,-4,-2
1532061938149,-3,-3,0,-11,-2,-2,3,1
1532061938154,3,1,2,2,-2,-1,0,-1
1532061938159,-1,1,3,4,5,1,3,0
1532061938164,-2,-4,-3,-4,-7,-3,-9,-2
1532061938169,-1,-3,0,7,1,-1,-1,-1
1532061938174,1,-4,-5,-11,-3,-2,2,-3
1532061938179,1,0,3,6,0,0,-2,2
1532061938184,-3,0,2,2,4,3,5,1
1532061938189,2,0,-3,-8,-4,-1,4,-7
1532061938194,-2,0,-1,-3,1,-2,-17,-2
1532061938199,0,-1,0,13,3,1,3,-3
1532061938204,0,0,-3,-20,-6,-2,1,2
1532061938209,-2,0,0,-3,-3,-1,-5,-1
1532061938214,1,1,2,6,3,0,6,0
1532061938219,-3,-5,-4,-12,-7,-5,-8,-4
1532061938224,2,0,-2,-3,-5,-1,-1,0
1532061938229,0,-2,-1,7,7,2,1,-1
1532061938234,1,-2,-2,-3,-2,1,11,2
1532061938239,0,2,1,5,0,1,-13,-1
1532061938244,-2,-3,-1,-7,-1,-2,1,-2
1532061938249,-1,-1,0,10,-1,-2,-4,-2
1532061938254,0,-1,1,-1,-4,-2,-1,0
1532061938259,-1,0,-3,0,-3,-2,0,1
1532061938264,0,5,-1,2,2,1,5,0
1532061938269,-3,-4,-3,-18,-3,0,-4,-3
1532061938274,3,1,1,1,1,2,-3,1
1532061938279,-2,1,-1,3,-2,0,0,-7
1532061938284,6,-2,0,1,0,-2,2,6
1532061938289,-3,-1,1,15,2,0,-1,0
1532061938294,-1,-1,-3,-13,-1,-3,-2,-3
1532061938299,-1,-2,-2,-1,-4,-2,-1,-1
1532061938304,-2,1,0,-1,0,0,-2,-1
1532061938309,-2,-2,-1,-1,0,0,-1,-1
1532061938314,-2,-2,-1,1,-1,0,-1,-1
1532061938319,-1,-1,-2,-2,-1,-2,0,3
1532061938324,-2,-3,-6,-8,1,-1,-4,-4
1532061938329,1,-1,0,2,-2,-2,9,2
1532061938334,-2,0,-1,1,-1,-2,-14,-3
1532061938339,-1,0,-3,-4,1,0,5,2
1532061938344,-1,-2,-2,-3,-2,-1,0,-3
1532061938349,0,1,0,-2,-2,0,0,0
1532061938354,-1,0,0,10,4,0,4,-1
1532061938359,-1,-2,-6,-12,-7,-4,-2,0
1532061938364,-1,-4,-5,-4,-5,-1,-1,-3
1532061938369,1,-3,-2,2,5,1,-1,-1
1532061938374,0,-3,-1,3,-4,-2,0,-1
1532061938379,-1,-1,0,-9,3,-1,1,-2
1532061938384,0,1,0,-11,0,-1,-3,-1
1532061938389,1,3,2,5,-2,-1,-1,-1
1532061938394,0,0,0,-3,1,1,-1,-2
1532061938399,-3,-2,1,10,0,1,2,1
1532061938404,-2,0,0,3,-1,-1,-3,-4
1532061938409,-7,-3,-2,-4,-1,-1,-3,-2
1532061938414,4,2,-1,-5,0,-2,2,2
1532061938419,3,1,0,3,1,2,-3,-1
1532061938424,0,-2,0,-9,-1,1,0,1
1532061938429,1,2,0,6,-5,-1,-5,-1
1532061938434,-6,-3,-3,-4,0,-1,2,-4
1532061938439,0,3,1,-1,0,-2,5,3
1532061938444,-1,-3,1,4,0,-1,-1,-1
1532061938449,-1,1,2,0,-3,-2,-1,-6
1532061938454,0,0,-1,-1,-1,2,-2,-1
1532061938459,-1,-3,0,-1,1,0,-1,-1
1532061938464,-2,4,0,3,1,0,-2,0
1532061938469,-1,-3,0,15,-1,-2,-4,-1
1532061938474,-2,-4,-5,-20,-7,-3,1,1
1532061938479,2,0,-1,7,0,-1,6,-1
1532061938484,-3,0,1,3,3,0,-9,-1
1532061938489,5,-1,-1,2,-2,-3,1,-1
1532061938494,-1,0,1,3,1,0,-1,-2
1532061938499,-1,0,1,1,1,-1,-2,-3
1532061938504,1,0,-2,0,-2,-1,3,0
1532061938509,1,-2,-3,-3,0,2,7,-1
1532061938514,-2,1,5,12,0,0,-15,0
1532061938519,-1,-2,-3,-16,-1,-3,2,0
1532061938524,-2,-2,1,8,-1,1,2,0
1532061938529,-3,0,-2,0,3,0,-4,-3
1532061938534,8,-1,-1,-16,-3,-1,3,1
1532061938539,-3,2,1,9,-4,0,0,-2
1532061938544,2,0,0,2,-1,0,-3,1
1532061938549,-2,-1,-2,-5,-1,-1,4,2
1532061938554,-2,4,1,16,2,1,0,-3
1532061938559,-1,-5,-8,-14,-3,1,-5,3
1532061938564,1,-1,-1,-3,-1,-1,1,0
1532061938569,-4,1,0,3,0,0,-2,-3
1532061938574,-1,-1,1,-1,0,0,1,-1
1532061938579,1,0,0,2,0,-2,-1,0
1532061938584,-2,-1,-2,7,0,-1,7,-1
1532061938589,-3,-2,1,-7,-2,-2,-14,0
1532061938594,5,0,-2,-3,1,-1,0,1
1532061938599,-2,-1,0,0,-3,-2,12,-9
1532061938604,1,1,0,-4,0,-2,-18,1
1532061938609,-5,-2,0,1,-3,-1,2,1
1532061938614,-4,-6,-3,-7,-4,-2,-1,0
1532061938619,0,1,3,9,2,0,-3,-1
1532061938624,1,3,2,18,2,0,4,-2
1532061938629,4,-1,-6,-31,-1,1,0,-3
1532061938634,-6,-3,-4,-3,-5,0,-5,-3
1532061938639,1,0,2,5,2,0,2,2
1532061938644,-1,0,-2,-7,0,0,1,-3
1532061938649,-3,7,4,13,-1,0,2,1
1532061938654,11,-3,-2,1,1,-2,-2,1
1532061938659,-6,-4,-2,-11,-2,0,-6,-4
1532061938664,-1,0,2,0,0,0,2,-1
1532061938669,0,-2,-5,9,0,-1,0,-2
1532061938674,-4,-1,-3,-23,-5,-2,11,-1
1532061938679,0,0,2,7,-2,-2,-16,-5
1532061938684,-2,-2,0,-5,2,1,-6,5
1532061938689,2,-1,2,0,2,2,6,4
1532061938694,-8,-4,-4,6,-1,-1,5,0
1532061938699,1,-1,-2,-9,0,-1,-1,-1
1532061938704,-3,0,0,3,0,-1,2,-3
1532061938709,0,-1,1,13,2,-1,1,-1
1532061938714,-6,-3,-3,-16,-4,-5,-7,-3
1532061938719,-4,0,1,2,-1,-2,0,0
1532061938724,2,2,-4,-5,-4,-2,2,0
1532061938729,-6,-8,0,8,4,0,-3,1
1532061938734,-2,-2,1,11,2,0,0,-6
1532061938739,1,-2,-6,-11,0,-1,-5,-1
1532061938744,0,-5,-5,-6,-2,-3,4,2
1532061938749,2,2,-1,-3,2,0,-3,-4
1532061938754,-8,1,-2,-7,-5,0,-2,0
1532061938759,8,-5,-1,6,-1,0,1,3
1532061938764,-2,-2,-2,2,-3,-2,-3,-6
1532061938769,0,0,2,-14,-3,0,-2,0
1532061938774,2,2,-2,0,2,1,0,0
1532061938779,-3,2,0,10,0,0,-1,-3
1532061938784,-1,-5,-2,-4,-3,-2,-2,-2
1532061938789,0,0,-2,-4,-1,-1,-1,-2
1532061938794,1,1,4,20,2,1,0,3
1532061938799,-4,-2,-6,-24,-3,-2,-8,-2
1532061938804,0,3,2,6,-1,-2,1,0
1532061938809,-1,-7,-5,-15,0,-1,2,-3
1532061938814,-1,-1,0,7,-2,-2,-3,2
1532061938819,2,1,0,3,1,2,3,1
1532061938824,-1,1,-1,-12,1,-1,-3,0
1532061938829,0,-1,-1,4,-5,-3,0,-2
1532061938834,1,-4,0,4,0,0,1,1
1532061938839,0,0,0,0,-1,-2,-1,-2
1532061938844,4,-2,2,13,1,2,3,3
1532061938849,-14,0,-6,-20,-5,-3,0,1
1532061938854,2,0,1,4,-1,-1,-2,-1
1532061938859,-4,-6,-5,1,-3,-1,-2,0
1532061938864,-3,-1,0,-1,-1,4,1,-3
1532061938869,3,0,-1,7,0,-2,-4,-4
1532061938874,-2,2,2,-3,2,0,1,-1
1532061938879,-3,1,-1,-10,-4,-3,0,-1
1532061938884,0,-2,0,2,-1,-1,-1,-3
1532061938889,-1,-3,0,3,-2,0,-6,0
1532061938894,2,0,-3,-13,-1,-2,2,-1
1532061938899,3,1,3,5,1,0,1,1
1532061938904,-5,-2,-3,-5,-6,-3,-3,-5
1532061938909,2,2,1,-1,-1,0,1,1
1532061938914,-3,-2,-1,2,2,0,-1,-2
1532061938919,-1,-3,0,2,1,-1,-1,0
1532061938924,0,1,-1,-6,1,-2,-1,0
1532061938929,4,0,0,2,0,-1,3,0
1532061938934,-2,2,-1,2,0,-1,-10,-2
1532061938939,0,0,1,1,1,-1,1,-1
1532061938944,-2,-2,-3,0,1,-2,0,-2
1532061938949,2,0,-2,-4,-3,-2,3,1
1532061938954,-2,0,1,-5,1,1,-6,-1
1532061938959,-3,-5,-1,0,-2,-2,-2,-4
1532061938964,1,-3,-6,-3,-2,-1,-2,0
1532061938969,1,1,2,21,4,3,0,0
1532061938974,0,-1,-4,-18,-4,-2,4,-3
1532061938979,0,3,-2,5,0,1,-3,-1
1532061938984,0,1,0,-4,1,-1,3,3
1532061938989,-1,0,-1,1,-3,-2,-2,-3
1532061938994,0,-2,0,5,1,-1,0,2
1532061938999,3,0,2,5,-3,-3,1,1
1532061939004,-10,-3,2,2,0,0,0,-1
1532061939009,-6,2,2,1,2,0,-7,0
1532061939014,14,-1,-8,-5,-4,-3,-3,-5
1532061939019,-3,0,-1,-4,-2,0,1,2
1532061939024,1,-4,-5,-2,-4,0,7,0
1532061939029,-3,-2,-1,-5,0,-2,2,-3
1532061939034,-7,-2,-1,5,0,-1,-6,-5
1532061939039,1,1,-1,4,1,-2,-3,-1
1532061939044,0,1,1,2,-1,-1,0,-4
1532061939049,2,0,-2,-4,1,0,1,-2
1532061939054,-2,-1,-1,1,-3,-3,2,2
1532061939059,-1,-1,-1,0,0,-1,0,-4
1532061939064,3,3,1,-1,1,0,-3,3
1532061939069,0,-2,-1,4,0,-1,-4,-2
1532061939074,-4,-2,-5,-18,-8,1,16,3
1532061939079,-1,-1,-1,0,6,1,-15,-1
1532061939084,-1,-1,-1,5,-4,-2,0,-1
1532061939089,1,-1,-1,-5,-1,-2,-3,1
1532061939094,-2,-1,2,9,0,0,1,-5
1532061939099,-1,5,4,-1,-1,0,5,4
1532061939104,2,-9,-6,-19,-2,-1,-1,-2
1532061939109,-4,-3,-2,-1,-1,-3,-2,-4
1532061939114,5,0,0,5,-1,-1,-1,-1
1532061939119,0,2,0,-1,-2,0,8,-1
1532061939124,2,3,5,7,2,-1,-13,-1
1532061939129,-1,-4,-4,-13,-5,0,3,1
1532061939134,0,-2,1,3,2,-2,-6,-1
1532061939139,-5,-1,3,24,1,0,3,-3
1532061939144,-7,1,-4,-22,-2,-1,-3,-1
1532061939149,4,-1,-2,0,-2,1,-1,-2
1532061939154,-1,2,2,2,-1,-1,0,1
1532061939159,3,2,1,4,2,2,-1,-5
1532061939164,-4,1,-1,8,0,1,4,1
1532061939169,-3,0,0,-3,-4,-3,-8,-5
1532061939174,-3,0,0,1,3,0,1,0
1532061939179,-1,-3,-5,-3,0,-2,1,-1
1532061939184,-3,1,1,3,2,1,-2,-1
1532061939189,1,-2,-1,-3,1,1,3,4
1532061939194,-1,-2,1,7,0,-1,-2,0
1532061939199,-5,0,-1,0,-2,-2,-3,0
1532061939204,3,-1,-3,-20,-2,-2,1,-2
1532061939209,-1,-4,2,7,0,-3,7,1
1532061939214,-3,1,-1,-2,-1,-2,-8,-2
1532061939219,1,0,0,-5,-2,-1,-5,0
1532061939224,-1,-7,0,8,-1,1,-4,-3
1532061939229,2,3,3,18,3,0,8,-2
1532061939234,-4,-3,-7,-33,-3,-2,-11,-2
1532061939239,-1,-1,-1,-11,-2,-1,5,1
1532061939244,5,2,4,16,0,-1,2,1
1532061939249,0,0,-1,-4,0,-2,-5,-3
1532061939254,-1,-3,1,17,3,3,7,2
1532061939259,-1,0,-6,-17,-4,-3,-3,-1
1532061939264,-2,-2,1,7,-1,-1,7,2
1532061939269,4,3,-1,-3,-1,1,-11,0
1532061939274,-1,2,1,8,1,-2,3,-1
1532061939279,0,-1,0,-3,1,2,5,0
1532061939284,0,2,2,1,2,1,-10,-1
1532061939289,-4,1,0,-8,-5,-4,-1,1
1532061939294,-1,-5,0,8,-2,1,6,1
1532061939299,-5,1,-1,-2,-1,-1,-6,-2
1532061939304,-1,-6,-7,-2,1,0,2,-1
1532061939309,1,-1,-4,-13,-3,-2,-4,-1
1532061939314,-2,-1,0,-6,-1,0,0,0
1532061939319,2,-3,0,4,-1,-2,1,0
1532061939324,-2,0,2,-1,1,-1,-1,0
1532061939329,-4,0,0,9,-1,2,0,4
1532061939334,-3,0,1,-8,-3,-1,2,-9
1532061939339,1,-4,-8,-17,-7,-1,-4,0
1532061939344,-1,2,3,6,2,0,-2,0
1532061939349,-2,-5,-4,-9,-2,-1,0,-1
1532061939354,0,0,1,10,-1,-1,-3,1
1532061939359,0,4,3,4,-1,1,2,3
1532061939364,-1,-3,-3,-12,1,-2,0,-3
1532061939369,-1,-5,-2,1,-4,-2,1,1
1532061939374,0,0,3,10,9,5,-1,0
1532061939379,0,-1,-1,-3,1,-1,-2,-2
1532061939384,-2,1,1,4,0,0,2,-2
1532061939389,2,2,-5,-20,-5,-3,-2,0
1532061939394,1,1,5,-4,-5,-3,-2,0
1532061939399,-1,-3,-2,5,2,0,-1,0
1532061939404,-3,2,1,3,0,1,0,1
1532061939409,3,-5,-3,-3,4,2,-1,-1
1532061939414,-4,-1,-1,-1,-5,-2,-3,-1
1532061939419,-1,6,11,11,-2,-2,-2,0
1532061939424,-1,-1,-4,1,0,-1,-2,0
1532061939429,-2,-8,-10,-19,1,-1,0,-1
1532061939434,7,1,-4,-12,-4,-1,-1,2
1532061939439,1,-4,-4,-4,0,-2,1,-2
1532061939444,1,3,0,-3,-6,-3,-4,-1
1532061939449,1,6,10,16,3,2,4,2
1532061939454,-3,5,-15,-4,0,-2,2,-2
1532061939459,-3,-12,9,-1,0,-1,-4,-1
1532061939464,3,1,1,0,-2,-3,-1,-1
1532061939469,-4,4,7,2,1,0,-2,-3
1532061939474,2,-1,1,3,0,2,2,2
1532061939479,2,14,2,4,-1,0,0,-2
1532061939484,-2,-18,6,-7,-3,-3,1,-2
1532061939489,-5,-5,-20,-12,-2,-1,-3,-3
1532061939494,-3,0,0,2,-4,-1,0,1
1532061939499,0,0,19,3,3,-1,0,0
1532061939504,2,-2,6,-3,0,2,-3,2
1532061939509,0,18,5,6,-2,-2,1,0
1532061939514,-6,-17,-7,1,-1,-3,-3,-5
1532061939519,-1,-6,-15,1,-1,-1,1,-5
1532061939524,-2,9,6,4,1,-1,-1,0
1532061939529,6,4,11,-3,-1,2,0,1
1532061939534,1,8,4,-1,2,-1,-1,2
1532061939539,-5,-6,12,2,0,0,-1,-3
1532061939544,3,2,-33,-13,-6,-1,-1,2
1532061939549,-6,-10,-20,-3,-3,-2,0,-3
1532061939554,-6,2,57,6,3,1,-6,3
1532061939559,0,-1,0,8,3,1,2,-1
1532061939564,18,-4,-2,1,-3,-3,0,4
1532061939569,-3,10,4,9,3,1,1,-6
1532061939574,3,2,-15,-6,-1,-1,2,-3
1532061939579,-6,0,10,3,-1,-2,-2,-2
1532061939584,5,-4,-26,12,4,2,2,2
1532061939589,0,5,20,-14,-1,-3,8,1
1532061939594,-3,-10,-11,8,-1,-2,-7,-3
1532061939599,0,-2,-17,-19,-3,-1,-2,1
1532061939604,-9,0,-2,-12,-6,-2,-3,-7
1532061939609,-3,-8,10,10,1,0,0,0
1532061939614,-1,5,1,-3,-1,-2,3,-1
1532061939619,-4,-6,-9,-4,1,2,2,2
1532061939624,6,5,-2,-5,-7,-6,-2,7
1532061939629,12,-6,-11,1,3,-1,-7,-2
1532061939634,-1,7,3,-4,0,0,2,3
1532061939639,-20,-15,-31,-8,-5,-6,-9,-9
1532061939644,-9,10,19,5,4,3,3,-8
1532061939649,0,-21,-7,-10,-10,-6,-7,3
1532061939654,21,-5,-32,-14,-6,-2,1,4
1532061939659,-3,10,22,2,3,-1,2,-6
1532061939664,-15,-5,-4,2,0,0,-2,1
1532061939669,0,7,8,6,0,0,1,3
1532061939674,-6,-20,-24,-3,-1,-2,-1,-8
1532061939679,5,-2,-8,-3,-4,0,0,4
1532061939684,1,2,6,-5,-1,2,1,-3
1532061939689,-4,-4,-21,5,2,2,-1,1
1532061939694,-9,-3,6,-6,-1,-2,-1,-4
1532061939699,6,7,4,1,1,1,1,3
1532061939704,-2,-3,1,0,-1,-2,-3,-7
1532061939709,-5,3,10,16,5,3,1,-2
1532061939714,0,2,8,-5,-2,1,0,0
1532061939719,9,-4,-8,-1,1,-2,2,3
1532061939724,-5,-3,27,8,-1,0,-2,0
1532061939729,1,4,18,12,-1,-2,1,-1
1532061939734,-2,-20,-89,-34,-6,-3,-4,-1
1532061939739,-21,6,23,6,0,2,2,-2
1532061939744,-4,-11,-23,-7,-1,-1,-1,-5
1532061939749,0,-7,-27,-12,-3,-2,-3,-1
1532061939754,-1,8,19,8,1,1,3,-1
1532061939759,10,-1,-6,-4,-6,-2,-3,0
1532061939764,-7,-6,-6,0,-1,-1,-1,-3
1532061939769,11,5,4,2,-1,0,0,5
1532061939774,-7,7,14,3,1,0,-2,-4
1532061939779,-8,-6,-18,-14,-4,1,-1,-2
1532061939784,0,4,10,11,3,1,2,-2
1532061939789,4,5,-5,-17,-2,-2,-1,-3
1532061939794,-1,1,23,6,-1,-1,0,1
1532061939799,5,-3,-28,-4,-5,-1,0,-1
1532061939804,-8,-1,12,-10,-4,-2,-3,1
1532061939809,-7,-4,-4,0,-2,-3,-2,-1
1532061939814,11,2,-7,8,4,1,0,2
1532061939819,0,6,9,-1,-2,-3,0,-1
1532061939824,3,-7,-25,-19,-4,1,2,1
1532061939829,-2,-5,1,10,3,1,0,-1
1532061939834,-8,5,16,-13,-4,-2,-2,-1
1532061939839,8,-3,2,6,0,-1,0,0
1532061939844,-2,2,-15,4,6,2,0,2
1532061939849,-7,2,20,5,-4,-1,-2,-2
1532061939854,-10,-10,-32,2,5,0,-1,-7
1532061939859,5,11,-15,-1,1,-2,0,0
1532061939864,3,0,17,-1,-2,-2,0,0
1532061939869,-2,8,-7,-7,-3,-2,-1,-1
1532061939874,0,-13,10,-1,-4,-1,0,2
1532061939879,-3,-10,3,-5,-2,-2,-4,-2
1532061939884,25,4,-16,-5,-1,-1,-3,4
1532061939889,-67,-12,0,-2,-6,-2,1,-9
1532061939894,2,8,13,6,-4,-4,-3,-4
1532061939899,-1,3,17,12,4,0,-2,0
1532061939904,18,4,-2,3,0,0,2,5
1532061939909,9,-1,22,-2,1,1,-2,-1
1532061939914,26,8,-4,3,1,2,0,6
1532061939919,-9,-3,-5,-6,-4,-3,-2,-4
1532061939924,-11,-1,-6,9,3,0,0,-9
1532061939929,6,1,15,2,5,2,5,2
1532061939934,-14,2,17,5,-2,0,1,3
1532061939939,48,12,-10,-9,-2,-4,-8,4
1532061939944,-13,-5,12,14,-1,2,1,-2
1532061939949,15,-5,-10,13,3,-1,-3,-3
1532061939954,-15,-1,10,-11,3,1,4,0
1532061939959,-24,-4,-31,-6,-4,0,-4,0
1532061939964,9,-1,11,-11,-6,-5,-6,1
1532061939969,-18,-3,-27,1,0,0,-1,-6
1532061939974,4,2,2,-3,0,0,1,1
1532061939979,-11,-16,-19,-14,-4,-2,1,-4
1532061939984,-3,2,2,-13,3,-2,-2,-2
1532061939989,7,-3,12,3,-3,-1,-1,1
1532061939994,-5,-4,8,5,0,1,4,2
1532061939999,1,-7,-18,1,1,0,-8,-2
1532061940004,-1,0,5,-3,-6,-1,-1,-4
1532061940009,13,5,-1,-7,-1,-1,0,2
1532061940014,1,4,-14,6,0,-3,-4,-3
1532061940019,-15,-9,28,1,0,1,5,-2
1532061940024,-6,-9,-9,6,1,-1,-2,0
1532061940029,30,1,-7,-5,-3,-1,-4,7
1532061940034,-16,0,5,-1,-2,-2,-4,-8
1532061940039,9,11,16,12,1,0,12,3
1532061940044,1,-1,-8,-7,-4,-2,-10,-1
1532061940049,-10,-8,23,-6,-4,-1,0,-2
1532061940054,-12,2,-6,11,0,-1,-3,-3
1532061940059,23,4,15,-8,-1,0,2,2
1532061940064,-9,2,19,5,1,0,2,0
1532061940069,5,-1,7,8,1,0,-2,3
1532061940074,16,-9,-47,-17,-2,-3,-1,2
1532061940079,-45,-1,20,12,0,-2,-2,-5
1532061940084,0,2,-14,-5,-2,-1,5,1
1532061940089,-20,-9,-17,-1,1,1,-3,-5
1532061940094,-6,-8,28,6,2,-2,-8,-6
1532061940099,4,-1,-2,3,1,0,-1,0
1532061940104,3,-2,-1,-3,-1,-1,-3,-3
1532061940109,-3,12,-26,-3,0,-2,8,2
1532061940114,-6,-5,30,2,-1,0,1,-1
1532061940119,19,-8,-34,-12,-1,1,-4,8
1532061940124,-8,14,0,0,1,0,5,-6
1532061940129,1,-4,2,-5,-2,-1,-3,-3
1532061940134,-8,5,-8,2,-1,2,-1,-2
1532061940139,21,0,4,-2,-1,-1,-2,0
1532061940144,-14,0,9,3,2,1,2,-1
1532061940149,7,-13,-38,-6,0,-2,-1,0
1532061940154,6,4,43,-9,-5,-2,-2,5
1532061940159,-38,3,11,4,-1,-1,2,-8
1532061940164,-4,-15,-4,-2,-1,-1,-5,0
1532061940169,7,2,8,-2,1,0,-4,-3
1532061940174,5,1,-1,3,1,0,2,1
1532061940179,7,-2,-17,0,-2,-1,-2,1
1532061940184,1,4,23,11,-4,-3,0,-1
1532061940189,-16,-6,-5,-4,0,-2,-3,-4
1532061940194,6,-5,-11,-10,-1,0,0,-1
1532061940199,-1,2,1,2,0,0,2,0
1532061940204,-5,-1,-15,-18,-8,-1,1,2
1532061940209,3,11,40,14,1,-1,0,-3
1532061940214,9,5,18,1,-2,-2,-1,-1
1532061940219,-8,-1,7,12,2,1,-2,-4
1532061940224,15,-5,1,2,1,0,-3,0
1532061940229,-2,-1,0,-1,0,-1,-4,1
1532061940234,-7,2,12,13,-3,-2,0,-2
1532061940239,14,0,-17,-11,0,-1,0,4
1532061940244,-3,-5,-3,4,-1,0,-2,2
1532061940249,2,0,-8,-5,-2,-1,-2,1
1532061940254,6,-5,-20,-1,3,3,0,2
1532061940259,-30,-3,-2,-3,-2,-2,-1,-6
1532061940264,1,1,-7,-8,0,-2,0,2
1532061940269,-3,-3,-4,-7,-3,-2,-2,-2
1532061940274,1,1,-13,12,-6,-4,-3,-1
1532061940279,10,-1,-1,-13,0,-1,0,1
1532061940284,5,4,18,6,6,2,2,-1
1532061940289,0,-1,-18,-16,-5,-2,-3,-4
1532061940294,0,-3,-11,0,2,-2,-2,1
1532061940299,2,0,6,3,0,1,-1,0
1532061940304,-19,-5,-2,3,-1,-2,5,-5
1532061940309,17,4,-2,9,1,1,1,-2
1532061940314,-5,-2,-17,-32,-2,-3,-8,1
1532061940319,-3,1,15,8,-3,0,-2,0
1532061940324,34,10,-19,-1,1,0,1,4
1532061940329,-3,-4,6,7,-1,1,2,1
1532061940334,1,15,17,9,2,1,1,-2
1532061940339,22,4,11,2,1,-1,-4,1
1532061940344,-28,-18,-8,-6,-2,0,8,-8
1532061940349,0,-4,-5,-1,0,-3,-22,2
1532061940354,-3,-6,-12,-4,-1,-1,-1,-3
1532061940359,8,6,1,-2,-1,0,9,1
1532061940364,0,0,2,6,1,0,-9,0
1532061940369,-3,4,2,-5,-1,0,5,2
1532061940374,-11,-9,-2,0,0,1,-1,-5
1532061940379,-5,-4,0,3,0,-1,2,0
1532061940384,-5,-4,-5,-7,-2,-2,-3,-1
1532061940389,-12,-6,-8,-6,-4,-2,2,-5
1532061940394,15,5,-1,9,1,1,0,7
1532061940399,6,2,-6,-6,-1,-1,0,-4
1532061940404,-14,-2,-3,-1,1,-1,-5,-5
1532061940409,8,-2,-3,-5,-1,-1,0,2
1532061940414,-1,-3,10,6,0,0,6,0
1532061940419,9,-8,-2,0,-1,-2,-3,-2
1532061940424,-14,3,1,-1,-2,0,-7,-5
1532061940429,3,6,-2,-6,0,0,7,2
1532061940434,-1,-10,-5,-6,-1,-1,-8,-3
1532061940439,-11,-1,3,3,1,1,-3,-1
1532061940444,5,2,-1,-2,-2,0,-1,2
1532061940449,6,3,-6,1,-1,2,5,-1
1532061940454,-19,-8,0,2,0,0,-3,0
1532061940459,33,11,4,-3,-1,2,6,5
1532061940464,8,-1,2,6,-1,-2,-6,-2
1532061940469,14,8,11,-1,-1,0,-1,4
1532061940474,-7,9,0,2,-2,-2,-4,-5
1532061940479,-2,-8,-3,0,0,1,6,1
1532061940484,4,7,7,3,-1,-1,-7,0
1532061940489,-10,-5,11,8,0,-1,1,1
1532061940494,15,1,-7,-4,0,0,-1,-2
1532061940499,-12,0,-1,0,-1,-1,-2,-2
1532061940504,2,-2,-3,-2,0,-1,3,-1
1532061940509,2,2,-1,-2,0,2,1,-2
1532061940514,-4,2,-3,-2,-1,-3,2,2
1532061940519,-53,-16,-6,-4,-1,-1,-7,-5
1532061940524,0,-1,-2,-2,1,0,2,3
1532061940529,-7,-12,1,1,1,0,1,-1
1532061940534,7,3,-5,0,-1,-1,-4,-4
1532061940539,-10,2,4,1,0,-1,-3,-2
1532061940544,16,-9,-3,-1,-2,0,4,-1
1532061940549,-10,-2,-1,-1,-1,-1,-7,-1
1532061940554,9,-5,-5,-10,-1,1,11,2
1532061940559,-6,4,2,3,2,-2,-10,-1
1532061940564,4,3,-5,-7,-4,0,3,1
1532061940569,-1,-3,-1,2,-1,-1,8,-1
1532061940574,35,5,-3,0,-2,-5,-7,-2
1532061940579,-33,1,1,0,-1,1,7,-2
1532061940584,-10,-8,-4,-2,-1,-2,-8,0
1532061940589,-2,7,2,1,1,-2,-14,-7
1532061940594,8,-2,-3,-3,-1,-1,4,8
1532061940599,-5,-6,-1,0,-2,-2,-1,-6
1532061940604,35,7,1,-2,0,1,1,11
1532061940609,-68,-7,-5,-5,-5,-1,3,-6
1532061940614,2,7,-1,3,1,0,-4,4
1532061940619,17,3,-3,1,-1,-1,-2,-1
1532061940624,-19,-5,-4,0,-3,-1,-1,-5
1532061940629,28,0,6,3,2,-3,-7,2
1532061940634,-15,-11,-4,-9,-1,3,-5,-6
1532061940639,12,11,1,3,-1,-1,1,2
1532061940644,-6,-1,-3,-2,0,-1,-8,-5
1532061940649,29,8,0,-2,0,0,-3,2
1532061940654,-26,-12,1,5,-1,0,9,-2
1532061940659,13,-6,-2,-4,-1,0,-1,2
1532061940664,17,3,2,0,1,1,15,0
1532061940669,-11,2,-2,0,-1,-2,-9,0
1532061940674,-36,-23,-5,1,-3,-2,-4,-1
1532061940679,14,10,0,-2,-1,0,10,5
1532061940684,-8,-2,-1,1,-2,-2,-10,-6
1532061940689,2,-11,-2,-2,1,0,0,4
1532061940694,23,7,-2,-2,0,-2,-1,-6
1532061940699,-7,-1,-1,-1,0,-3,-2,-2
1532061940704,-8,0,2,2,0,0,-1,-3
1532061940709,8,1,-1,-1,-1,1,3,2
1532061940714,8,7,3,-2,-1,1,-1,1
1532061940719,6,-6,-3,-1,-2,-1,8,-1
1532061940724,-69,-18,-2,-1,-1,-1,-12,-10
1532061940729,8,2,0,0,0,-1,4,1
1532061940734,-21,-2,1,-7,-5,-4,-4,-7
1532061940739,-6,-2,-5,-1,-1,0,-8,-10
1532061940744,11,5,1,0,-1,-1,1,3
1532061940749,-3,2,0,2,-1,0,5,-1
1532061940754,15,0,2,3,1,2,3,3
1532061940759,-6,10,4,-2,-3,-2,-7,-1
1532061940764,-3,3,2,-2,1,0,3,1
1532061940769,22,8,-6,-8,-3,-2,0,4
1532061940774,7,32,9,5,2,3,3,2
1532061940779,-15,-97,-23,-3,-3,-4,-9,-9
1532061940784,14,8,-3,-11,-4,1,4,4
1532061940789,-5,18,7,4,0,0,1,-6
1532061940794,-8,2,2,13,3,-1,-3,2
1532061940799,1,-10,6,-29,2,3,11,4
1532061940804,-1,-23,-13,17,-4,-6,-14,-3
1532061940809,3,7,-3,13,0,1,1,2
1532061940814,-32,-11,-1,1,-2,-3,-5,-4
1532061940819,13,33,10,10,5,-1,-4,-1
1532061940824,2,-6,3,-12,-4,1,12,-2
1532061940829,8,5,-1,-15,-2,-2,-14,-1
1532061940834,7,26,-1,-13,-3,-4,-1,5
1532061940839,-5,-13,-3,-5,-1,-1,-2,-4
1532061940844,13,15,-3,9,4,-1,-1,-1
1532061940849,0,-4,6,7,8,4,9,-3
1532061940854,6,17,-7,-19,-7,1,4,1
1532061940859,-5,-1,-5,-3,-6,-4,-12,-3
1532061940864,-3,-29,-5,0,-1,-2,4,-2
1532061940869,-10,-30,8,12,1,0,3,-4
1532061940874,-1,-6,-8,-6,13,4,1,-2
1532061940879,12,38,2,-14,-10,0,1,3
1532061940884,17,72,21,62,6,0,1,8
1532061940889,-12,-28,-9,-38,-7,-1,0,-5
1532061940894,-14,-49,-21,-32,-2,0,1,-4
1532061940899,6,60,0,7,-4,-5,-4,2
1532061940904,-2,-19,16,14,6,0,-7,5
1532061940909,-19,-76,-14,-4,3,0,1,-5
1532061940914,10,16,9,56,0,-1,1,-1
1532061940919,1,-14,-2,-8,8,2,-4,0
1532061940924,6,39,-5,-22,-9,-2,2,1
1532061940929,7,38,3,-31,-6,-2,0,1
1532061940934,6,-8,5,18,-1,1,-2,2
1532061940939,-5,4,-7,9,-5,0,1,0
1532061940944,-2,-5,8,-13,-1,0,1,0
1532061940949,-14,-61,-33,13,1,-2,-4,-9
1532061940954,9,37,4,-5,-1,-4,-1,-2
1532061940959,-6,-37,25,47,8,3,3,3
1532061940964,-9,-8,-21,-71,-7,-3,0,-3
1532061940969,2,24,4,-7,-4,-1,-2,0
1532061940974,17,-16,6,34,9,0,0,3
1532061940979,-7,37,3,-21,-8,-3,-5,-3
1532061940984,0,-29,13,63,11,4,-1,1
1532061940989,-2,39,-6,-57,-12,-4,-3,0
1532061940994,-12,-82,-23,-2,-7,-5,-1,-13
1532061940999,2,-14,-6,39,11,4,-3,0
1532061941004,-6,-24,-7,-3,-5,0,3,-4
1532061941009,11,62,11,27,0,-4,-1,4
1532061941014,-2,56,29,9,-3,-2,4,3
1532061941019,-15,-94,-42,-12,-10,-6,-4,-10
1532061941024,9,54,7,26,10,3,-2,0
1532061941029,6,40,11,-29,-11,-2,5,8
1532061941034,-13,-46,2,-25,-8,-4,-6,-3
1532061941039,-1,-5,3,-12,6,2,4,-1
1532061941044,8,14,4,22,3,1,0,0
1532061941049,-2,27,-11,-58,-13,-3,-2,-5
1532061941054,7,42,11,-5,-3,-2,-1,6
1532061941059,7,14,7,-11,0,2,1,6
1532061941064,-17,-29,-15,5,1,-4,-1,-11
1532061941069,2,-30,16,43,17,7,3,1
1532061941074,-11,-66,-22,-40,-6,-1,2,-1
1532061941079,4,36,-48,-31,-16,-9,-9,-2
1532061941084,-9,-83,11,-13,5,5,0,-5
1532061941089,-4,-21,-6,61,-4,-2,5,0
1532061941094,5,52,0,-3,2,-1,-9,-4
1532061941099,8,45,22,14,1,3,3,3
1532061941104,-2,-7,0,-6,-2,-4,-3,2
1532061941109,-1,18,6,24,11,2,-1,2
1532061941114,1,2,2,-2,2,1,3,0
1532061941119,0,-16,7,-1,-8,-4,3,0
1532061941124,-2,14,-11,-17,-4,-2,-1,1
1532061941129,-8,-34,-10,6,-4,-3,-3,-7
1532061941134,2,50,4,2,-2,-1,-3,1
1532061941139,0,-21,8,4,3,1,0,-2
1532061941144,-3,-27,-14,-31,-8,-3,2,0
1532061941149,-2,-5,-4,5,0,-1,-6,-1
1532061941154,-2,-14,0,9,-1,0,-1,-2
1532061941159,6,51,15,-10,3,1,1,1
1532061941164,-2,2,0,13,-2,-1,-4,1
1532061941169,1,-1,-5,-9,-2,-2,-5,5
1532061941174,-1,-5,-8,-2,3,1,-2,-3
1532061941179,-1,-26,6,12,-1,0,7,9
1532061941184,0,19,-2,-16,-7,-3,-4,-13
1532061941189,-5,-31,-6,4,-1,-2,1,-7
1532061941194,-4,29,7,0,2,0,0,4
1532061941199,28,64,16,11,3,1,-1,6
1532061941204,-10,-70,-12,-13,-5,-1,2,-1
1532061941209,-10,-7,-15,2,3,-2,5,-8
1532061941214,0,2,-15,-37,-5,0,-7,-6
1532061941219,-9,3,1,29,1,-2,-4,-2
1532061941224,10,58,11,-8,-4,-1,-3,7
1532061941229,3,3,9,0,-1,1,0,-1
1532061941234,-4,-25,-6,-3,-2,-2,3,0
1532061941239,-6,-11,-1,-7,0,-2,0,-5
1532061941244,2,8,-3,8,2,1,0,0
1532061941249,-3,-10,-1,-3,0,2,-2,2
1532061941254,0,-2,3,11,0,1,2,1
1532061941259,-4,-5,1,-3,-3,-1,-5,-5
1532061941264,-2,-6,-8,-8,-1,-3,1,2
1532061941269,1,4,4,2,-1,-2,-1,-3
1532061941274,2,1,2,7,-2,-1,-1,1
1532061941279,-4,1,-1,-6,0,-1,-3,4
1532061941284,-3,-12,-4,-2,-1,-1,-4,-2
1532061941289,1,8,4,-3,-2,-1,1,2
1532061941294,-1,-9,-4,5,-1,-2,-2,-6
1532061941299,-5,-17,-4,-13,-3,-1,4,0
1532061941304,0,17,-1,-4,-2,-2,0,-2
1532061941309,0,5,4,1,-1,1,-4,1
1532061941314,0,-4,-2,12,-1,-1,3,-1
1532061941319,-4,-15,1,-18,0,-1,-2,-3
1532061941324,0,7,-2,9,-1,-1,-1,0
1532061941329,-1,3,1,2,0,0,-1,-2
1532061941334,-1,-3,-1,-7,0,0,1,5
1532061941339,-1,0,-3,-4,0,1,8,-5
1532061941344,-3,8,3,1,-2,0,-6,4
1532061941349,5,-5,2,2,0,-3,9,-4
1532061941354,-3,-6,-7,-6,-1,-3,-11,-5
1532061941359,3,18,2,13,0,0,1,0
1532061941364,-10,-25,2,-9,-2,0,-2,-2
1532061941369,3,3,-3,0,1,-2,1,0
1532061941374,1,4,3,-10,-3,-1,-4,-4
1532061941379,-4,-11,-5,11,3,-2,-5,-3
1532061941384,5,28,1,-9,-9,-2,0,-2
1532061941389,-6,-3,-1,-6,-1,-1,-5,-2
1532061941394,-1,-11,-1,8,1,1,3,-4
1532061941399,-3,-5,-3,-2,-1,0,-10,2
1532061941404,-1,9,0,-2,2,0,5,0
1532061941409,1,0,2,-1,-3,-1,-3,2
1532061941414,0,8,0,-3,0,-1,3,-1
1532061941419,-1,-16,-6,2,-4,-2,2,-1
1532061941424,2,12,2,4,1,-2,-2,-5
1532061941429,-2,1,1,-3,-1,1,-2,-3
1532061941434,-1,-14,0,10,0,-2,4,2
1532061941439,0,2,-5,-8,-2,-2,1,-1
1532061941444,1,-15,-1,-11,0,-1,1,-3
1532061941449,1,20,-2,4,-2,-3,-5,-2
1532061941454,-1,1,4,9,-7,-3,-3,1
1532061941459,-6,-19,-8,-10,5,0,2,0
1532061941464,1,10,-1,-1,-1,-1,-1,0
1532061941469,-1,-1,2,2,0,-1,0,0
1532061941474,-1,-2,-7,-3,-2,0,7,-1
1532061941479,1,-2,1,-2,-2,-2,-13,-2
1532061941484,2,6,0,-6,3,0,-2,1
1532061941489,-4,-7,-2,12,2,1,4,5
1532061941494,-1,-4,1,8,-1,-3,-9,-2
1532061941499,-1,-1,0,-8,-1,-1,-6,-6
1532061941504,1,8,0,-2,-1,-2,2,1
1532061941509,0,-2,-1,-9,-2,-2,-6,-4
1532061941514,0,-3,-3,-11,-1,3,5,1
1532061941519,-2,-7,-4,-10,-1,-1,2,-2
1532061941524,1,7,1,-7,3,1,1,1
1532061941529,-2,-6,-1,-4,-5,0,-3,-1
1532061941534,-3,-2,2,18,1,-2,-2,1
1532061941539,1,8,0,-9,-4,-1,2,1
1532061941544,-2,-12,-3,13,-2,-1,-1,-2
1532061941549,1,8,1,-22,0,0,-1,-1
1532061941554,-3,-13,-3,6,2,1,1,-2
1532061941559,1,8,1,0,-2,0,-2,-1
1532061941564,-10,-28,-19,-1,-1,0,5,-5
1532061941569,9,1,2,-3,-3,0,-10,-1
1532061941574,-1,0,-1,5,-1,-3,-1,3
1532061941579,1,0,3,-2,3,0,2,0
1532061941584,-2,6,3,3,-1,1,-2,0
1532061941589,0,9,1,-5,-3,-1,8,0
1532061941594,1,0,0,7,0,-2,-9,-2
1532061941599,-5,-12,-1,-3,0,-1,0,-3
1532061941604,6,6,3,6,-4,-2,0,5
1532061941609,-5,-6,-3,5,1,-1,-3,-5
1532061941614,1,9,4,-10,2,0,1,-2
1532061941619,-2,4,-1,4,0,-1,2,-1
1532061941624,4,-4,2,-2,0,0,-1,0
1532061941629,-4,5,3,1,-2,-1,6,2
1532061941634,-2,-12,-5,2,-2,-1,-8,-1
1532061941639,-3,-7,0,1,-4,-4,-3,-3
1532061941644,3,20,1,-10,-3,-1,1,1
1532061941649,-4,-29,-6,5,1,-1,-1,-2
1532061941654,-1,0,-1,-16,2,0,3,0
1532061941659,2,-1,1,11,-8,-1,-2,-2
1532061941664,-2,1,-2,2,3,-1,-4,-3
1532061941669,0,13,0,-15,-1,0,0,-1
1532061941674,0,-1,4,18,-1,-1,0,2
1532061941679,-6,-13,-9,-20,3,2,1,1
1532061941684,2,8,3,0,-1,-1,5,-6
1532061941689,-4,-9,-1,32,-6,-4,-13,3
1532061941694,0,-9,-6,-15,-2,0,3,-2
1532061941699,1,7,5,12,0,1,0,-1
1532061941704,0,5,-3,-13,-1,1,9,-1
1532061941709,-6,-3,2,-4,3,0,-8,1
1532061941714,2,-10,-4,-6,-4,-4,1,-4
1532061941719,-3,-8,-9,0,-3,0,0,-3
1532061941724,1,-9,-3,-7,-2,-2,-2,7
1532061941729,2,10,0,4,0,-1,0,0
1532061941734,-1,17,6,-4,1,0,-3,0
1532061941739,1,-9,-1,-5,-1,-2,0,1
1532061941744,0,0,0,-1,-3,-1,-5,-4
1532061941749,-5,-3,-2,15,3,-1,-1,0
1532061941754,-3,2,-2,-2,-1,-1,4,2
1532061941759,1,12,5,21,4,-1,-2,-5
1532061941764,-3,-8,-3,-15,0,2,-2,0
1532061941769,2,-2,-3,-13,-5,-1,0,0
1532061941774,-1,-9,-5,-9,0,1,19,-2
1532061941779,1,6,2,-2,-2,-1,-20,-1
1532061941784,-5,-12,-2,5,2,-2,-3,-4
1532061941789,1,2,-1,3,0,-1,4,1
1532061941794,-1,5,2,7,1,0,-2,-1
1532061941799,0,5,1,0,1,-1,5,4
1532061941804,-1,1,1,1,-1,-1,-2,-2
1532061941809,7,-6,-4,-8,-1,0,1,-3
1532061941814,-5,9,3,1,-1,0,-6,-2
1532061941819,1,-4,2,19,-2,0,2,0
1532061941824,-3,-3,-2,13,-1,-1,-4,2
1532061941829,4,-4,-3,-11,0,-1,-1,-3
1532061941834,1,0,-6,-5,0,0,-3,0
1532061941839,-3,2,2,0,-1,1,3,-2
1532061941844,15,8,-1,-13,1,0,1,1
1532061941849,-1,-1,5,14,0,-1,1,-1
1532061941854,2,7,-9,5,-1,-3,-10,-2
1532061941859,0,-19,1,-11,1,-1,1,-2
1532061941864,-5,7,4,5,-1,-3,-1,-2
1532061941869,-2,-6,-7,-8,-1,0,4,0
1532061941874,1,3,2,-7,0,1,-11,-2
1532061941879,1,7,-1,-1,0,-1,3,1
1532061941884,-2,3,2,4,-4,-2,-4,-2
1532061941889,0,-2,2,-3,-2,0,4,1
1532061941894,-6,-14,-10,-4,-2,-3,1,-2
1532061941899,0,4,-6,-19,-6,-2,-3,-3
1532061941904,-3,-5,3,12,-1,-1,-1,-3
1532061941909,-1,10,2,-2,2,1,1,0
1532061941914,-1,-3,0,11,-3,-2,-3,1
1532061941919,-1,-17,-3,3,0,-2,1,-2
1532061941924,-1,0,-1,-8,-1,-1,-3,-2
1532061941929,-2,-1,-2,4,-2,-1,-1,1
1532061941934,3,12,4,6,4,2,2,-1
1532061941939,0,2,-2,-8,0,-1,1,0
1532061941944,-2,-8,-1,2,-3,-1,-2,-1
1532061941949,0,1,-4,-4,-2,-1,-3,-2
1532061941954,0,-2,3,-10,1,1,-1,-2
1532061941959,-1,-3,-3,0,1,0,1,1
1532061941964,0,9,0,8,1,-1,0,0
1532061941969,-4,-15,-2,2,1,-1,-3,-4
1532061941974,1,-1,2,-10,-5,-1,1,-2
1532061941979,-2,4,0,9,0,-1,0,4
1532061941984,-1,1,-3,-10,-3,1,7,0
1532061941989,3,3,-1,0,-1,-1,-5,-2
1532061941994,-1,-2,3,-4,1,0,0,-2
1532061941999,-1,-6,-2,4,-1,-1,-1,-2
1532061942004,-3,-2,-5,-6,-3,-4,-2,-1
1532061942009,-3,-3,-1,-6,-2,0,3,-1
1532061942014,4,1,-1,-4,-2,-1,0,3
1532061942019,-2,-3,-4,1,2,0,-1,-3
1532061942024,-1,-4,0,0,2,1,0,-2
1532061942029,-1,8,1,1,0,0,0,-1
1532061942034,-1,-6,-1,-1,-2,0,-3,-1
1532061942039,-1,1,0,8,-2,-2,9,3
1532061942044,0,-1,-3,2,0,-1,-9,-2
1532061942049,-2,-2,-3,-7,0,-1,0,2
1532061942054,-2,0,-1,-1,1,0,0,-1
1532061942059,3,17,6,-4,-1,1,0,-3
1532061942064,-2,-13,-3,12,3,1,1,1
1532061942069,-2,-4,-9,-27,-7,-4,-3,-1
1532061942074,-3,-1,4,10,-2,-4,-1,-1
1532061942079,0,0,-2,-4,-2,-1,-6,-4
1532061942084,1,21,5,7,-1,-2,-2,0
1532061942089,-1,-13,-2,6,3,2,0,-1
1532061942094,-3,-8,-10,-14,-5,-3,-1,-3
1532061942099,0,7,3,3,-1,0,-2,-2
1532061942104,-1,-4,1,9,1,-1,0,0
1532061942109,-1,2,1,-7,-2,-3,-2,-2
1532061942114,-3,1,-1,-6,-2,0,-1,1
1532061942119,0,-4,-2,-3,1,3,-1,-1
1532061942124,2,1,-1,-9,-2,0,12,-2
1532061942129,-3,1,3,8,3,-2,-10,-3
1532061942134,5,0,-1,2,-2,0,-2,-1
1532061942139,-3,-8,-1,-1,-1,-1,-2,-1
1532061942144,-1,-6,-8,-27,-5,-2,0,-1
1532061942149,-1,-2,0,16,-2,-2,-1,-1
1532061942154,-1,5,-1,2,2,1,1,0
1532061942159,-1,5,6,0,0,-2,-1,0
1532061942164,-1,-17,-4,2,0,0,-4,1
1532061942169,0,-5,-6,0,0,-2,-1,-1
1532061942174,0,5,-3,-12,0,-2,0,-1
1532061942179,-1,2,0,16,0,-3,-1,-3
1532061942184,0,8,2,-9,-1,-1,-4,1
1532061942189,-1,-4,0,2,-1,0,-1,-2
1532061942194,0,-2,1,1,0,-1,2,-1
1532061942199,0,-1,-5,-9,-2,0,-2,-1
1532061942204,-1,-2,-1,0,-1,-1,-6,-3
1532061942209,0,2,-1,-2,0,2,6,2
1532061942214,-1,2,2,4,2,-1,-9,0
1532061942219,-1,-2,-1,7,-1,-1,1,2
1532061942224,-3,-3,-1,-3,-1,-1,-7,-4
1532061942229,-1,-8,-3,-2,2,2,1,-1
1532061942234,-2,-1,1,-1,-1,0,3,-5
1532061942239,1,1,-1,-2,2,0,3,3
1532061942244,-1,5,3,3,1,-1,-10,0
1532061942249,1,9,4,1,0,-1,4,-2
1532061942254,-1,-14,-7,-8,-1,-1,0,-2
1532061942259,-1,-5,-1,12,1,1,1,-1
1532061942264,-1,-13,-7,-25,-3,-1,1,1
1532061942269,0,3,0,2,-6,-1,-1,2
1532061942274,-1,5,1,3,3,1,-1,0
1532061942279,-1,3,-2,-7,-6,0,-1,-2
1532061942284,-1,-2,2,11,3,0,2,-1
1532061942289,2,-3,1,6,1,-3,-2,-1
1532061942294,-1,0,-1,-3,-3,-2,2,-1
1532061942299,0,6,-1,-11,-1,-1,-3,0
1532061942304,-1,-10,-4,-2,0,1,2,1
1532061942309,-2,-2,-2,-13,-5,1,0,0
1532061942314,6,-7,-2,23,2,-1,-2,-1
1532061942319,-2,-3,-6,-30,-4,-3,-3,-5
1532061942324,-1,3,2,21,0,-3,-2,1
1532061942329,1,4,0,-4,1,0,-1,-2
1532061942334,-1,-1,-1,-2,-1,0,9,7
1532061942339,0,-1,0,0,-2,-1,-9,2
1532061942344,1,4,0,-1,1,-1,2,-4
1532061942349,0,11,3,4,-2,-2,-9,0
1532061942354,-1,6,6,2,0,0,3,-1
1532061942359,0,-8,-7,-3,0,-2,-11,-2
1532061942364,-5,-13,-2,-1,0,0,2,-1
1532061942369,0,-8,-3,2,1,0,3,-1
1532061942374,-1,5,2,-9,-5,-2,-4,-1
1532061942379,1,5,2,9,1,-2,3,-2
1532061942384,1,9,3,3,-1,-1,1,0
1532061942389,-2,-3,-2,-8,-2,-1,-2,-1
1532061942394,-2,-4,-2,7,-1,-1,-1,-2
1532061942399,-2,-2,3,-3,-3,-2,0,-1
1532061942404,0,2,0,1,-1,0,-1,0
1532061942409,1,0,-1,-2,0,0,2,-1
1532061942414,-1,9,3,1,1,0,-2,0
1532061942419,-1,-18,-10,-25,-1,1,1,0
1532061942424,-3,-1,2,9,0,-1,-3,-3
1532061942429,-3,-4,-3,2,-7,-2,-4,0
1532061942434,1,4,0,6,0,0,-3,1
1532061942439,0,7,5,-1,0,0,3,1
1532061942444,-2,-10,-7,-2,-2,-1,1,-5
1532061942449,-1,-4,-7,0,1,1,0,-1
1532061942454,0,3,-1,-5,-4,0,-1,-2
1532061942459,-1,-7,-2,-2,-3,-2,25,0
1532061942464,-2,2,0,5,2,0,-26,1
1532061942469,1,2,3,-1,1,-3,1,-3
1532061942474,-4,-13,-2,-5,-1,-2,-2,-1
1532061942479,1,1,0,5,1,1,0,-1
1532061942484,0,3,1,-4,-2,0,6,0
1532061942489,-2,-2,-1,11,2,0,0,-1
1532061942494,0,-1,-4,-22,-4,-1,-5,-2
1532061942499,-2,0,0,8,0,-1,-6,-1
1532061942504,0,-1,-1,-1,0,1,4,0
1532061942509,0,3,2,21,3,0,-5,0
1532061942514,-2,-4,-4,-16,-2,-2,1,-2
1532061942519,1,12,2,3,-3,-2,2,1
1532061942524,-3,-15,-3,4,-1,0,-15,-2
1532061942529,-1,4,2,1,0,-2,9,1
1532061942534,4,-20,-8,-4,1,0,-7,-3
1532061942539,-5,3,3,0,-3,0,-6,-3
1532061942544,1,3,-3,-16,-3,-1,5,-1
1532061942549,-1,-2,0,-3,-1,1,1,0
1532061942554,1,3,1,11,0,0,-4,-1
1532061942559,-1,0,0,-9,0,-2,-6,2
1532061942564,-1,0,2,13,0,-1,8,-2
1532061942569,0,4,2,-11,-1,-1,-3,-2
1532061942574,-4,-5,-1,9,0,0,-1,-2
1532061942579,2,7,-3,-10,-2,1,-5,-2
1532061942584,-4,-12,-5,-5,-3,0,5,1
1532061942589,0,-2,-2,5,-3,-2,-4,0
1532061942594,-1,7,4,1,0,0,4,-1
1532061942599,-3,-5,-3,5,0,-2,-1,-2
1532061942604,1,6,3,-3,1,-1,-3,0
1532061942609,-2,-3,-3,-3,0,1,4,0
1532061942614,-1,3,0,2,2,-2,-2,0
1532061942619,-1,-7,3,6,0,-1,-3,-1
1532061942624,0,0,-2,-1,-1,-1,1,1
1532061942629,0,-7,-2,-11,0,0,-1,-2
1532061942634,-2,1,-2,4,0,0,0,1
1532061942639,0,-1,-1,-12,0,-2,-3,-1
1532061942644,1,2,1,4,0,1,3,0
1532061942649,-2,-3,-1,-7,-3,0,-6,-5
1532061942654,-2,-7,-4,-1,-3,-2,-2,0
1532061942659,1,-2,2,19,3,2,3,-1
1532061942664,0,9,-5,-21,-6,-1,1,0
1532061942669,-2,-9,3,-1,-1,-2,-2,-1
1532061942674,-2,1,-1,-7,-1,1,0,0
1532061942679,-1,-5,-4,2,1,0,-1,-1
1532061942684,0,5,2,1,1,-1,-4,-2
1532061942689,1,7,4,4,1,1,-5,1
1532061942694,-5,-19,-11,-1,-1,-2,1,-3
1532061942699,0,0,-2,9,-1,-1,-4,0
1532061942704,-1,2,2,1,0,-3,8,1
1532061942709,-1,6,0,-6,1,-2,-2,-1
1532061942714,1,3,3,1,-1,0,-2,1
1532061942719,-2,-1,1,3,0,1,-1,-2
1532061942724,-2,-2,-3,-18,-3,-1,-1,-1
1532061942729,0,-1,-2,8,0,1,1,-1
1532061942734,0,-4,-4,-23,-4,0,0,-3
1532061942739,1,4,0,0,0,0,0,-1
1532061942744,-1,3,2,8,1,-2,2,-3
1532061942749,-4,-14,-3,0,-5,-3,-9,1
1532061942754,-1,3,0,5,1,0,-5,1
1532061942759,-2,-8,-3,-7,-1,0,4,-1
1532061942764,1,4,-2,1,-2,-2,-2,-1
1532061942769,-1,0,1,11,2,-1,3,-3
1532061942774,7,5,2,-8,0,-1,1,3
1532061942779,-2,5,0,4,-2,0,-5,-3
1532061942784,0,-4,-2,0,1,0,-2,-1
1532061942789,0,5,3,3,-2,-2,2,1
1532061942794,-3,-7,-6,9,2,-1,2,-1
1532061942799,-3,-11,-8,-7,-2,-3,-8,-3
1532061942804,-1,-8,-4,-2,-3,-1,-1,-1
1532061942809,-2,3,-5,-14,-3,-1,2,1
1532061942814,0,13,6,-10,-1,1,2,1
1532061942819,-1,-7,-1,-7,-4,0,-1,-3
1532061942824,-3,-4,-5,4,-2,-1,-4,-2
1532061942829,1,2,-1,-4,0,-1,9,-2
1532061942834,-2,-2,1,13,0,-1,-4,-4
1532061942839,0,4,0,-15,0,1,2,-1
1532061942844,0,-2,1,2,-1,0,-4,2
1532061942849,0,-3,-1,6,0,0,0,-1
1532061942854,-2,-2,-2,1,-1,0,1,0
1532061942859,2,4,3,3,2,-3,1,-1
1532061942864,-1,0,3,3,1,1,1,-3
1532061942869,-1,-4,-7,-5,0,-1,4,5
1532061942874,-3,-1,-4,11,2,-1,-7,-4
1532061942879,-3,0,-2,-22,-7,-4,-5,0
1532061942884,-2,-6,-1,13,0,-1,-1,-1
1532061942889,1,8,4,-6,0,0,-3,-2
1532061942894,-2,-11,1,9,-3,-2,7,1
1532061942899,-3,3,-1,4,3,1,-5,7
1532061942904,-1,1,-1,-18,-1,-1,-1,-7
1532061942909,-3,-2,0,12,-1,-2,-3,-3
1532061942914,-1,-19,2,-8,-1,0,10,2
1532061942919,-1,4,0,9,-2,-2,-11,-3
1532061942924,0,3,0,-6,-1,0,1,2
1532061942929,0,-8,-6,-10,-1,-1,-4,-1
1532061942934,-1,15,2,-4,-1,-2,-1,-3
1532061942939,0,-6,-5,8,1,0,5,1
1532061942944,0,1,2,4,-2,-3,-1,1
1532061942949,1,3,-2,18,2,-1,-2,-2
1532061942954,0,12,2,-31,-5,-2,2,1
1532061942959,-2,-14,-6,2,0,-2,-10,-4
1532061942964,-1,-1,-1,-2,-3,0,-3,-2
1532061942969,-1,0,2,-4,3,1,3,-1
1532061942974,1,5,0,8,0,-1,-3,-3
1532061942979,-2,11,3,5,-1,0,0,-1
1532061942984,2,-17,-3,9,2,-1,0,-3
1532061942989,-2,-9,-5,-11,-2,0,-3,0
1532061942994,-1,-3,0,4,-2,-1,-11,-5
1532061942999,-3,8,2,-7,0,1,7,-2
1532061943004,0,5,-4,1,1,0,2,1
1532061943009,-3,-14,2,-20,-5,-2,-2,0
1532061943014,-1,-7,-5,12,2,0,-2,-3
1532061943019,2,3,0,1,-1,0,14,1
1532061943024,-2,6,2,-7,-5,-4,-18,-1
1532061943029,-1,-6,-2,0,-1,0,5,1
1532061943034,0,2,-4,-7,-4,1,-5,1
1532061943039,2,-7,0,0,0,-1,2,-1
1532061943044,-1,7,2,9,1,-1,3,0
1532061943049,0,4,-4,-17,-5,-2,-2,-2
1532061943054,1,11,4,6,-1,0,-5,-1
1532061943059,-1,-14,0,1,0,1,2,3
1532061943064,-2,-7,-7,-8,0,2,4,-2
1532061943069,8,3,2,-10,-1,2,-2,1
1532061943074,-4,-11,-9,11,0,-3,1,-3
1532061943079,3,14,4,2,-2,-1,3,-1
1532061943084,0,-3,2,-5,-2,0,-3,0
1532061943089,-4,-5,-4,6,-1,-2,-1,-2
1532061943094,1,4,0,-13,-1,0,0,-1
1532061943099,2,-3,-2,1,3,1,11,-2
1532061943104,-2,1,0,-8,-4,-2,-14,-1
1532061943109,-1,1,-2,7,-2,-1,-1,-2
1532061943114,0,4,0,-2,-3,-2,2,2
1532061943119,-3,-14,0,10,-2,-1,-5,-1
1532061943124,-1,-2,1,-9,3,3,6,-2
1532061943129,-2,-1,-4,4,0,0,-3,-3
1532061943134,1,-3,4,3,1,-1,-2,3
1532061943139,-1,0,-6,2,-1,1,-3,-1
1532061943144,-1,8,1,-18,-1,0,2,0
1532061943149,0,-2,2,6,0,-2,-2,-2
1532061943154,-1,-4,-2,12,0,-1,2,-2
1532061943159,0,2,-2,3,0,-2,-3,0
1532061943164,1,-2,0,0,1,-1,3,0
1532061943169,-1,7,-1,-4,-1,0,2,0
1532061943174,-1,3,5,2,0,-1,-1,-1
1532061943179,-1,-6,-2,-16,-1,-1,-3,-3
1532061943184,0,-3,-1,15,1,1,3,-1
1532061943189,0,9,5,-5,-3,0,-2,0
1532061943194,-3,-14,-3,5,0,1,0,-2
1532061943199,-2,-3,-7,-24,-3,-2,-5,-3
1532061943204,0,-1,-3,0,-5,-3,2,2
1532061943209,-1,-1,-4,5,3,-1,-2,-3
1532061943214,0,0,4,-2,0,0,0,0
1532061943219,0,6,-1,1,-3,-2,-1,0
1532061943224,0,-2,-2,-1,0,0,0,-3
1532061943229,0,0,1,2,0,-1,-1,1
1532061943234,-3,-8,-6,-2,-3,-2,1,-1
1532061943239,-1,-2,2,8,2,0,-2,-2
1532061943244,0,4,-1,-1,-3,-3,-1,0
1532061943249,-4,6,5,5,-1,-1,1,1
1532061943254,8,-1,-1,-5,1,0,1,-1
1532061943259,-3,-10,-2,3,-2,-1,-3,-1
1532061943264,-2,10,2,-4,1,0,1,0
1532061943269,-3,0,-1,1,-3,-2,-2,-1
1532061943274,0,-1,0,10,2,-1,-1,-1
1532061943279,0,5,-1,-31,-3,0,-1,0
1532061943284,1,-6,0,5,0,-2,-2,-6
1532061943289,2,2,0,-5,-1,0,0,6
1532061943294,-2,2,-2,-8,-3,-1,0,1
1532061943299,0,-2,-1,9,-3,-1,-2,-1
1532061943304,-1,4,2,5,1,0,2,0
1532061943309,-1,-10,-3,6,0,1,-2,-3
1532061943314,-2,3,-3,-14,-2,-1,-2,-2
1532061943319,0,1,0,8,1,1,-1,-1
1532061943324,-1,-5,0,-2,-4,-2,-3,-1
1532061943329,0,0,-3,1,-1,-1,0,-2
1532061943334,-2,0,1,7,1,-1,2,-1
1532061943339,0,-4,-1,-5,-2,-1,-12,-6
1532061943344,0,-3,-4,2,0,0,4,3
1532061943349,0,1,2,-4,0,0,6,1
1532061943354,-3,-6,-7,-7,-1,-1,-4,4
1532061943359,-3,14,4,3,0,-1,3,-3
1532061943364,-4,-5,-4,1,0,0,-3,-2
1532061943369,1,-20,-2,-5,-1,-1,-1,-2
1532061943374,-1,4,3,-4,0,1,1,-1
1532061943379,2,5,0,6,-1,-1,-1,2
1532061943384,-2,0,-2,1,0,0,18,1
1532061943389,-1,6,7,-1,1,-2,-15,-2
1532061943394,1,-5,-2,9,0,-1,-1,-3
1532061943399,-1,-5,-9,-16,-1,-1,-2,-4
1532061943404,-1,3,3,-2,-3,-3,-1,-1
1532061943409,5,-3,-11,-5,-1,0,2,-1
1532061943414,-10,6,23,6,1,0,-3,0
1532061943419,-1,-1,0,4,1,0,5,-4
1532061943424,-1,-4,0,-1,0,0,-6,1
1532061943429,-3,5,-5,1,-2,0,1,-2
1532061943434,6,3,-17,-8,0,-2,-3,1
1532061943439,-2,-8,-1,-1,-3,-1,1,0
1532061943444,2,-1,12,5,1,1,-2,0
1532061943449,-4,-7,-4,2,-1,-3,-4,-2
1532061943454,0,2,-6,-5,0,0,1,-2
1532061943459,-1,-5,4,3,0,-1,2,0
1532061943464,0,-10,-10,-2,-2,-1,-10,3
1532061943469,-5,-1,3,-2,-1,-2,-2,-6
1532061943474,4,0,-4,-6,-2,1,0,0
1532061943479,-1,1,-7,2,0,-1,0,2
1532061943484,0,4,10,3,-2,-1,-1,-2
1532061943489,-2,2,-12,-1,1,2,3,0
1532061943494,-4,0,2,-3,-2,-3,-6,-7
1532061943499,1,-4,-1,2,-1,0,-3,0
1532061943504,-3,-2,31,1,-3,-1,3,-3
1532061943509,-2,-2,-12,-6,-1,-2,1,0
1532061943514,2,2,3,10,-1,0,1,-2
1532061943519,11,12,5,10,3,1,6,2
1532061943524,-15,-20,-30,-16,0,-2,-6,-2
1532061943529,-8,-2,-22,-23,-13,-3,-3,-2
1532061943534,-5,-2,13,0,0,-2,0,-5
1532061943539,1,8,15,9,2,1,-1,2
1532061943544,5,-2,5,2,2,-1,0,-1
1532061943549,2,1,9,6,2,1,-1,4
1532061943554,-1,-2,0,-2,-1,1,0,0
1532061943559,-7,-1,-7,-7,-5,-5,-2,-6
1532061943564,4,3,-1,8,4,1,-1,1
1532061943569,16,7,12,20,3,0,3,1
1532061943574,-19,-14,-13,-3,-4,-2,0,-3
1532061943579,-1,-4,-2,1,2,3,-1,1
1532061943584,0,7,0,-1,-5,-3,0,-3
1532061943589,3,-9,-2,-2,3,-2,-1,-1
1532061943594,4,5,-14,7,-1,0,-1,-2
1532061943599,-4,-4,11,-18,-6,-4,-3,-2
1532061943604,-4,2,-5,5,2,0,2,0
1532061943609,17,17,42,18,2,2,4,6
1532061943614,-38,-28,-25,-28,-4,-4,-7,-1
1532061943619,8,1,5,3,0,-2,-1,-4
1532061943624,4,-4,-17,-2,-1,1,2,0
1532061943629,-9,1,25,2,3,0,-7,0
1532061943634,-22,-7,-13,3,1,2,0,-4
1532061943639,-2,0,-8,-9,-3,-2,-4,5
1532061943644,-4,2,6,0,0,-1,-5,-6
1532061943649,-5,-3,-12,-4,1,2,5,-1
1532061943654,21,7,11,3,0,1,-1,1
1532061943659,5,-8,-12,6,-1,1,0,2
1532061943664,-14,5,26,10,-1,-1,3,-3
1532061943669,12,-7,-10,-5,-3,-4,-3,-2
1532061943674,9,3,-1,-5,1,0,3,6
1532061943679,-1,7,6,3,3,-1,0,-7
1532061943684,5,-6,-18,0,-2,-3,-1,4
1532061943689,-8,2,-17,-15,-4,-4,-2,-7
1532061943694,2,-8,17,2,3,1,-3,4
1532061943699,-2,1,-13,1,-2,0,1,1
1532061943704,2,0,2,3,1,1,-1,1
1532061943709,-7,1,4,-6,-2,-2,-1,-3
1532061943714,0,5,3,2,-1,-3,2,-5
1532061943719,-7,-2,-5,1,1,2,-1,0
1532061943724,5,3,2,2,0,-2,-2,-1
1532061943729,-7,-9,-9,-8,-2,-1,-1,-4
1532061943734,21,10,-8,-10,-1,-1,-1,0
1532061943739,-8,-14,13,5,1,0,1,3
1532061943744,6,1,3,-8,-2,-1,-2,0
1532061943749,-16,-4,-13,2,1,2,3,-4
1532061943754,8,8,6,6,0,1,-3,3
1532061943759,-2,2,12,2,-2,0,-2,-2
1532061943764,4,-4,-45,-8,-3,-2,0,-1
1532061943769,3,0,8,-4,2,-1,-1,1
1532061943774,12,2,-2,-2,-1,0,0,1
1532061943779,-21,-6,-29,-3,0,1,1,-4
1532061943784,5,-6,6,3,2,1,-3,1
1532061943789,4,-11,9,1,-4,-2,-2,-1
1532061943794,-23,-1,1,-1,-1,0,-2,-2
1532061943799,7,3,3,3,2,1,1,1
1532061943804,-1,2,2,-10,-5,-3,-1,-3
1532061943809,-4,-2,-15,4,-4,-2,-2,-2
1532061943814,10,0,4,-1,-1,0,1,2
1532061943819,2,-3,2,6,1,0,-1,0
1532061943824,-10,-1,-9,-12,0,2,1,-1
1532061943829,16,4,-11,-18,-5,-2,0,1
1532061943834,-26,-10,7,5,-1,-3,0,-4
1532061943839,1,3,0,11,-4,-3,-3,-1
1532061943844,1,1,13,6,1,-2,-2,-1
1532061943849,-2,5,14,9,1,0,1,2
1532061943854,11,-2,-16,-6,-2,0,1,2
1532061943859,2,-1,-8,2,2,-2,-3,0
1532061943864,-14,-3,-9,-11,-5,-4,-1,-2
1532061943869,2,0,-5,12,1,0,0,-3
1532061943874,-6,-3,-4,1,1,-1,-4,-4
1532061943879,3,1,-1,-11,-1,-1,0,3
1532061943884,5,1,-2,-7,-2,0,-2,-2
1532061943889,-4,1,12,0,2,-1,0,0
1532061943894,23,2,5,4,1,-1,1,3
1532061943899,-15,4,-15,-13,-2,-3,-1,-5
1532061943904,-21,-26,-19,15,-4,-3,-2,-2
1532061943909,-16,5,8,8,2,-2,-3,0
1532061943914,6,-1,7,3,-1,0,0,-2
1532061943919,20,-4,-3,-3,-1,-2,-1,0
1532061943924,4,12,-2,2,2,2,2,-4
1532061943929,-5,-5,-4,3,3,-1,-1,0
1532061943934,-5,4,6,7,-1,-1,0,1
1532061943939,5,-1,18,7,-2,-1,-2,-6
1532061943944,-3,-5,-5,-19,-4,-3,-3,0
1532061943949,4,-4,-4,-7,0,-1,-1,1
1532061943954,2,13,33,3,0,1,3,1
1532061943959,-7,-13,-15,-1,-1,-2,-3,0
1532061943964,10,3,2,4,2,1,1,3
1532061943969,-4,2,-5,0,-3,-2,-3,-3
1532061943974,-1,-8,-7,-6,-1,-2,-1,-2
1532061943979,15,-1,-3,-5,-2,-3,1,2
1532061943984,-12,0,-11,-1,-2,-1,-1,-4
1532061943989,4,-4,-7,6,-1,-1,-1,0
