1532295750027,-1,0,-1,0,-1,-9,-6,-1
1532295750032,-2,1,-3,-1,-1,-1,7,-1
1532295750037,-3,-1,0,-1,1,-1,-3,0
1532295750042,1,-1,0,-1,-1,0,1,0
1532295750047,0,-3,-1,-1,0,2,1,-3
1532295750052,2,-1,2,0,-2,-1,-4,-1
1532295750057,0,-1,-1,0,-1,0,0,-1
1532295750062,-1,-1,-2,-3,-1,1,2,-2
1532295750067,-1,0,-1,-3,0,-7,-4,1
1532295750072,0,-2,-2,0,0,2,0,-1
1532295750077,-1,-1,-2,0,0,0,1,-2
1532295750082,0,-1,0,-2,-1,-1,-2,-3
1532295750087,-1,1,0,-3,-1,-5,-4,0
1532295750092,-1,0,-2,-2,-2,-7,-1,1
1532295750097,-1,0,0,-1,-1,5,6,0
1532295750102,0,-3,-2,0,1,1,-8,-2
1532295750107,0,1,-1,1,0,4,3,-1
1532295750112,0,-1,-2,0,-1,2,0,1
1532295750117,2,0,-3,0,-2,-2,-1,-1
1532295750122,-4,-1,-3,-1,-1,-2,0,1
1532295750127,-2,-3,-1,1,-1,3,-1,1
1532295750132,0,-1,-1,-1,-1,-1,-1,1
1532295750137,-2,-3,0,0,-1,-1,2,-1
1532295750142,1,-2,-1,-2,-2,0,-2,0
1532295750147,-2,-1,0,-1,-1,-2,-2,-3
1532295750152,0,-2,-1,-2,1,1,1,-1
1532295750157,-1,-1,0,-1,-1,0,-1,-3
1532295750162,0,0,-2,0,-1,-5,-1,-3
1532295750167,-1,-1,-1,-1,-1,5,2,-1
1532295750172,-2,0,0,-2,-2,-7,-6,-1
1532295750177,1,-1,-2,1,0,0,3,3
1532295750182,-1,0,-1,-3,0,0,2,3
1532295750187,-1,-1,2,-1,-2,-4,-3,0
1532295750192,0,0,0,-2,-1,14,3,0
1532295750197,-2,0,-1,0,-1,-12,-10,-2
1532295750202,-1,0,1,1,2,-1,2,-1
1532295750207,0,0,-2,-1,0,-1,-1,-2
1532295750212,-2,0,1,-1,-1,2,0,-2
1532295750217,-1,-1,0,-2,-1,-1,-2,-1
1532295750222,1,-1,0,-1,0,2,2,1
1532295750227,-1,0,-1,0,0,-1,-2,0
1532295750232,-1,-1,-2,0,-2,-2,-2,-1
1532295750237,0,-1,-2,-3,0,0,1,-2
1532295750242,0,-4,-4,1,-2,-3,-3,-4
1532295750247,-1,-2,-3,0,-1,2,5,0
1532295750252,0,0,1,1,1,-2,-2,-1
1532295750257,-1,-1,-2,-1,0,2,0,1
1532295750262,-1,-1,0,0,-2,-5,-5,-1
1532295750267,-1,-1,-1,-2,-2,-1,-1,0
1532295750272,-2,-2,0,-1,0,1,1,-1
1532295750277,-2,-1,0,-1,1,1,0,-2
1532295750282,0,0,0,-1,-1,5,2,-2
1532295750287,0,0,-2,0,-2,-6,-3,0
1532295750292,0,-1,-2,2,-1,-7,0,-1
1532295750297,-1,-1,-2,-1,-1,1,1,0
1532295750302,0,-2,0,-1,-1,-3,0,1
1532295750307,-4,1,-1,0,0,6,0,-2
1532295750312,0,-1,-1,-2,-1,0,-1,0
1532295750317,1,1,-1,1,0,-2,-2,-2
1532295750322,0,-1,0,0,-1,0,0,-1
1532295750327,0,0,-1,-2,2,-1,0,0
1532295750332,0,-1,0,-2,0,0,-3,-3
1532295750337,0,1,1,1,0,7,6,0
1532295750342,-1,0,-3,-2,-1,-10,-12,0
1532295750347,-1,-2,-1,-2,-3,-5,1,-2
1532295750352,-1,-1,0,2,-1,-1,-2,0
1532295750357,0,-1,-2,-3,-2,3,3,-1
1532295750362,0,0,-3,-1,3,6,1,0
1532295750367,1,-3,-2,0,-1,1,3,1
1532295750372,0,0,-2,-1,-1,-8,-5,-1
1532295750377,-2,1,-1,-2,-2,-3,-4,-2
1532295750382,-3,0,2,0,-1,0,0,1
1532295750387,-1,0,-2,-1,0,-3,0,0
1532295750392,-1,0,-2,-2,-2,3,0,0
1532295750397,-2,-1,0,-1,-2,-2,-4,0
1532295750402,1,-1,-1,-2,0,-5,1,-3
1532295750407,-1,0,2,-3,-2,4,-1,-1
1532295750412,-1,-1,0,-2,0,-1,-4,-1
1532295750417,-2,-1,-1,1,-1,-4,-3,1
1532295750422,-1,-1,-3,-1,0,4,3,0
1532295750427,0,-1,1,0,-1,-6,-3,0
1532295750432,0,0,-2,-2,-1,0,3,0
1532295750437,0,-2,0,-1,-2,2,0,-1
1532295750442,-1,2,0,1,1,-9,-5,-1
1532295750447,0,-1,-2,-2,1,7,3,1
1532295750452,-1,0,-1,2,0,-16,-6,-2
1532295750457,0,-1,-2,-1,-1,2,2,-3
1532295750462,0,0,-1,1,-3,0,2,-2
1532295750467,-1,-2,0,0,0,0,0,-2
1532295750472,0,-2,-1,-1,-1,5,2,0
1532295750477,-1,0,-1,1,2,-3,-3,1
1532295750482,-1,-2,-1,-1,0,0,1,0
1532295750487,0,-1,-1,-2,-2,-5,-4,-2
1532295750492,1,-1,-1,0,1,8,8,0
1532295750497,-3,-2,-1,-1,-1,-4,-5,-3
1532295750502,-1,-2,-1,-3,-2,-4,-3,-1
1532295750507,-1,1,-1,2,-1,-1,4,0
1532295750512,0,-2,-1,1,0,7,-1,0
1532295750517,-1,-1,-1,-3,0,-8,-2,0
1532295750522,-1,-1,-3,-1,-1,2,1,0
1532295750527,-1,-1,-1,-2,-1,0,0,0
1532295750532,-2,-2,-4,-4,-3,-5,-6,1
1532295750537,1,-1,0,3,-1,-1,1,-1
1532295750542,0,-1,-1,0,-1,4,4,-1
1532295750547,2,-2,-1,-2,0,-1,-1,-1
1532295750552,-1,0,2,0,-4,1,-2,-2
1532295750557,-2,-1,-1,0,-2,1,0,0
1532295750562,-1,0,2,0,-1,-5,-4,-2
1532295750567,-1,0,-1,1,-1,3,0,-1
1532295750572,1,0,-2,0,1,-1,-1,0
1532295750577,0,-3,-3,-2,-3,0,0,-1
1532295750582,-1,-1,0,-1,-1,-3,-5,-1
1532295750587,-2,-1,-1,0,1,-3,-3,-2
1532295750592,-1,-2,0,0,-1,1,4,-1
1532295750597,-1,1,-4,0,-1,-4,-4,-3
1532295750602,-2,-1,0,-2,-3,-1,2,1
1532295750607,-1,0,0,-2,-2,-6,-3,-1
1532295750612,-1,-1,2,-1,0,-1,5,0
1532295750617,0,-3,0,-2,-1,2,-3,0
1532295750622,-2,0,-2,-1,-2,7,3,0
1532295750627,-2,-1,-2,2,-2,-14,-9,-2
1532295750632,0,-1,-4,-4,-3,-1,3,0
1532295750637,1,-2,0,-1,0,5,5,1
1532295750642,-2,-1,1,-1,-3,-9,-8,-1
1532295750647,0,-1,1,-1,1,2,3,-1
1532295750652,-2,0,-1,0,-1,-2,-2,-1
1532295750657,-1,0,1,-2,0,0,3,0
1532295750662,-1,0,-2,-1,1,-3,-6,-3
1532295750667,-2,-1,-1,-1,0,2,0,0
1532295750672,-1,0,-1,1,1,0,-1,-1
1532295750677,0,2,-1,0,0,-2,-2,1
1532295750682,-1,-1,2,0,0,3,5,0
1532295750687,1,-1,-3,0,-1,-1,-5,-1
1532295750692,0,0,-1,-1,-1,0,1,-4
1532295750697,-4,-1,1,1,0,-10,-3,-1
1532295750702,0,-1,0,-1,-1,1,0,0
1532295750707,0,-1,-1,0,0,1,1,-1
1532295750712,0,-1,-2,-2,-2,-1,-2,1
1532295750717,1,-1,0,-1,-1,4,-2,0
1532295750722,-2,-1,-3,-2,-1,-4,-1,-1
1532295750727,-1,-1,1,-3,-2,1,1,1
1532295750732,-1,-2,0,0,0,5,2,0
1532295750737,0,0,0,-1,-1,-5,-6,-1
1532295750742,1,-2,-1,0,-1,2,2,0
1532295750747,-1,0,1,0,0,10,4,-1
1532295750752,0,1,-1,0,1,-13,-8,0
1532295750757,1,-1,-2,-1,-3,3,2,0
1532295750762,-1,-1,1,2,0,1,0,0
1532295750767,-1,-1,-2,-1,-1,-1,0,-1
1532295750772,1,-1,-3,-2,-2,1,2,0
1532295750777,-1,-2,-1,-2,1,-2,-1,-1
1532295750782,-3,-1,0,-1,0,0,1,-3
1532295750787,0,-1,-2,0,1,10,8,-1
1532295750792,1,-1,-2,-3,-2,-16,-11,0
1532295750797,-3,-1,-2,-1,-2,-3,-1,0
1532295750802,1,0,-2,-2,-2,1,-1,-1
1532295750807,0,-1,-2,0,-1,0,0,-2
1532295750812,-1,-2,-1,1,-2,3,1,-1
1532295750817,0,1,-2,-1,-1,-2,-3,-2
1532295750822,0,0,1,-1,-1,-1,0,-2
1532295750827,-1,-1,-1,0,-1,0,0,-1
1532295750832,-2,-1,0,-1,1,2,3,1
1532295750837,1,-2,-1,0,1,-1,0,0
1532295750842,-3,-1,-1,-1,-2,-4,-2,1
1532295750847,-1,0,-2,-3,-1,-2,-2,0
1532295750852,1,0,0,1,-1,1,2,-1
1532295750857,0,-1,-3,-2,-1,2,1,-1
1532295750862,1,-1,1,-1,-1,1,-1,1
1532295750867,-2,0,1,1,1,-1,-3,-2
1532295750872,0,1,-2,-5,0,5,2,-3
1532295750877,0,0,0,-1,-1,-11,-3,-1
1532295750882,1,-1,-2,-1,-1,1,-1,1
1532295750887,-2,0,0,-1,-1,0,-1,1
1532295750892,-2,-2,-2,1,-1,0,1,1
1532295750897,-2,-3,0,-1,0,2,-2,-1
1532295750902,-1,-1,-3,-2,-1,1,1,1
1532295750907,0,-1,-2,0,-1,-3,-1,-2
1532295750912,1,1,0,-3,-3,-1,0,-1
1532295750917,0,-2,-1,-1,-3,-2,-2,2
1532295750922,-2,-1,2,2,-1,-7,-1,-2
1532295750927,0,-1,-1,0,-2,1,0,1
1532295750932,0,0,0,-1,-1,-4,-2,-1
1532295750937,2,-2,-4,1,0,9,6,1
1532295750942,-5,-1,-3,-4,-4,-8,-10,-4
1532295750947,-2,0,0,1,0,9,7,-1
1532295750952,-3,-1,0,0,0,-19,-13,-2
1532295750957,-1,0,0,2,0,1,1,-1
1532295750962,0,-1,-1,-1,1,7,2,-1
1532295750967,0,-1,-1,-2,1,-3,-2,0
1532295750972,-2,-1,0,-1,-2,2,0,0
1532295750977,1,-1,-2,-1,-1,-1,2,-1
1532295750982,-2,-1,-2,0,0,-1,3,-1
1532295750987,-1,-1,-1,0,-1,-1,-3,-2
1532295750992,-1,-1,-3,-1,0,1,4,1
1532295750997,-2,0,2,-3,-2,-7,-4,-2
1532295751002,0,-1,2,-1,0,3,3,-1
1532295751007,0,-1,0,1,1,-1,0,1
1532295751012,-2,-1,-2,-2,-1,7,3,-3
1532295751017,0,-1,1,1,-1,-4,-1,0
1532295751022,0,0,-1,1,-1,-1,-4,2
1532295751027,-2,-1,2,0,-2,-11,1,-1
1532295751032,1,-2,-1,-2,-2,1,-1,-1
1532295751037,-2,-2,-3,-2,-1,0,-2,-3
1532295751042,1,0,0,2,2,11,6,1
1532295751047,-1,0,-3,-1,-1,-3,-5,-2
1532295751052,0,2,0,-2,-1,-2,-1,-2
1532295751057,0,0,0,-1,-1,0,1,0
1532295751062,0,-2,1,-1,-1,-6,-3,-1
1532295751067,-5,-1,1,-2,1,-1,-2,-2
1532295751072,-1,-1,-1,0,0,1,0,-2
1532295751077,1,1,-4,-3,-3,1,1,-1
1532295751082,-1,-2,-3,0,-1,-3,-2,-2
1532295751087,1,0,0,-2,-1,-3,-2,0
1532295751092,-2,0,-2,-2,0,4,3,0
1532295751097,-2,0,1,0,1,5,1,1
1532295751102,2,-2,-1,-1,-1,-7,-5,2
1532295751107,0,-2,-2,-2,-2,1,1,-2
1532295751112,-2,-1,1,1,-1,0,-1,-1
1532295751117,-1,-1,0,0,-2,-3,-2,-1
1532295751122,-2,-2,-3,-1,0,-4,5,-1
1532295751127,0,0,-1,-3,-1,-2,-7,0
1532295751132,2,1,1,-2,0,-2,2,-3
1532295751137,-1,-1,0,3,1,4,0,0
1532295751142,1,-2,-1,-1,-1,3,3,-2
1532295751147,0,-2,-4,0,0,-4,1,0
1532295751152,0,-1,-1,1,-1,0,-1,0
1532295751157,-1,0,1,1,-2,-2,-2,0
1532295751162,0,0,0,-1,-1,4,0,0
1532295751167,0,0,-1,0,0,2,-2,0
1532295751172,-1,-1,-1,0,0,0,1,0
1532295751177,0,-2,-1,-1,2,-3,-1,-1
1532295751182,-1,0,0,0,-2,-2,-2,-3
1532295751187,1,0,1,1,-1,2,0,-1
1532295751192,-3,0,1,1,-2,0,-1,0
1532295751197,-1,-2,-4,-2,-2,3,-1,-1
1532295751202,-2,-1,-1,-1,1,-4,-3,-1
1532295751207,0,-2,-2,-2,-3,-2,0,0
1532295751212,-1,-1,0,2,2,7,3,0
1532295751217,0,0,0,0,-1,-12,-3,-2
1532295751222,0,1,1,0,0,1,-2,-2
1532295751227,-1,-1,0,0,-2,1,-4,-4
1532295751232,0,-2,0,0,1,-5,-2,0
1532295751237,-1,0,-1,1,1,4,1,0
1532295751242,0,-1,1,0,0,3,2,1
1532295751247,0,1,4,1,-1,-3,0,-1
1532295751252,0,1,1,-3,-3,-4,-4,-1
1532295751257,-1,-1,2,0,-1,-4,-2,-1
1532295751262,-1,0,0,1,0,2,1,0
1532295751267,-4,-2,-1,-2,-3,-2,-3,-2
1532295751272,0,-2,-2,-1,-1,-2,2,-1
1532295751277,1,0,-1,-4,-1,0,-2,-1
1532295751282,-2,-1,-3,-1,0,12,5,0
1532295751287,1,-1,1,-2,-2,-18,-8,-1
1532295751292,-3,-1,-1,0,-2,-1,-1,-2
1532295751297,-1,0,0,-1,-1,-3,-3,-1
1532295751302,1,-2,-1,0,-2,4,2,-1
1532295751307,-1,-1,-2,1,0,1,0,0
1532295751312,0,-1,-1,1,0,-3,0,0
1532295751317,-3,-1,-2,-3,-4,0,1,-1
1532295751322,-1,-3,-2,-2,0,-4,-2,-3
1532295751327,-1,-1,-3,-1,0,3,2,1
1532295751332,1,-1,-2,-1,0,-8,-6,2
1532295751337,1,-1,1,0,0,9,4,2
1532295751342,-1,1,3,-1,-3,-9,-8,0
1532295751347,-1,-1,-2,-3,0,-2,2,-1
1532295751352,0,-1,-2,1,0,4,3,0
1532295751357,-3,-2,-2,-1,0,-1,-4,-6
1532295751362,0,-2,0,-1,-1,1,-1,-2
1532295751367,-4,0,-1,-1,-1,-2,-3,-2
1532295751372,0,-1,-1,-2,0,0,1,-2
1532295751377,0,-1,0,2,-1,3,1,0
1532295751382,-3,-2,-1,0,-3,-17,-4,0
1532295751387,-1,-2,0,-1,-1,7,-3,0
1532295751392,-1,0,-1,-2,-2,-1,-1,0
1532295751397,-1,-1,-1,0,1,-3,-2,-1
1532295751402,0,1,1,0,0,5,3,-1
1532295751407,1,-2,-2,-1,-2,-2,0,0
1532295751412,-3,-2,-2,-1,-2,-1,-2,-2
1532295751417,-1,0,-1,-2,-3,-4,0,-1
1532295751422,1,1,1,0,0,0,-1,-1
1532295751427,-1,0,1,1,1,-1,1,-1
1532295751432,0,-2,-3,-2,-2,1,-3,-2
1532295751437,-2,-1,-1,0,1,0,4,-2
1532295751442,-2,-1,0,-1,-1,-2,-2,0
1532295751447,1,1,-1,0,0,6,5,0
1532295751452,-2,1,-3,-1,-1,1,-3,0
1532295751457,0,-2,-1,-2,-1,-17,-8,-1
1532295751462,-2,-1,-1,-1,-1,2,2,1
1532295751467,-1,0,-3,-1,-3,1,3,-1
1532295751472,0,0,2,-1,-2,-1,-2,-1
1532295751477,0,-1,-2,1,0,4,-2,0
1532295751482,-2,-1,0,0,0,4,1,-1
1532295751487,0,-2,-2,0,-1,-4,-5,-3
1532295751492,-1,-1,-3,-1,2,-1,1,-1
1532295751497,0,0,0,-2,0,1,0,1
1532295751502,0,-2,-3,-1,-2,-1,-1,-2
1532295751507,-1,-1,-1,1,-1,-1,-1,0
1532295751512,0,-1,0,0,2,0,0,-2
1532295751517,0,0,-1,-1,-1,4,1,0
1532295751522,-2,-2,-1,-1,-2,-4,-6,0
1532295751527,-1,-1,-2,-1,1,1,4,1
1532295751532,0,0,1,-1,-4,-8,-12,-2
1532295751537,-1,-1,-2,0,-1,-6,-3,-3
1532295751542,0,2,1,-1,-1,-3,1,-2
1532295751547,-3,-1,-3,-1,0,0,-1,-2
1532295751552,1,-2,0,0,-1,2,3,0
1532295751557,0,-1,0,0,-4,-1,-2,0
1532295751562,0,-2,-6,-4,0,0,-1,-1
1532295751567,-1,0,-1,-3,-2,-3,-3,1
1532295751572,1,1,-1,-1,0,0,1,-1
1532295751577,-2,-1,-1,0,0,-1,-2,0
1532295751582,-1,-1,0,0,-1,-3,-3,-3
1532295751587,-1,-1,1,0,-2,0,1,-2
1532295751592,-2,-1,-2,-1,-1,-2,-1,1
1532295751597,1,0,-2,-1,0,2,2,-2
1532295751602,-2,0,-1,2,-1,-5,-6,0
1532295751607,1,1,1,1,0,0,0,0
1532295751612,1,0,0,-1,-1,-1,0,-1
1532295751617,-1,-1,-1,-3,-1,3,0,0
1532295751622,2,-1,-1,-1,2,3,3,0
1532295751627,-2,1,-1,0,0,-4,-5,-1
1532295751632,-1,-1,-4,-1,0,0,5,3
1532295751637,-2,-1,-3,-3,-4,-1,-1,-1
1532295751642,-1,-1,-1,0,-1,0,-1,-2
1532295751647,-1,-2,-1,1,-2,3,1,-4
1532295751652,-2,0,1,0,-1,1,-1,-2
1532295751657,-1,0,0,-1,-1,-4,-1,-1
1532295751662,-1,0,-2,1,0,3,2,2
1532295751667,-2,-2,-1,-2,-1,-3,-4,-1
1532295751672,-2,-1,0,2,0,-3,1,1
1532295751677,0,-2,1,-1,-2,-2,-2,2
1532295751682,0,1,0,-2,-1,-2,0,-1
1532295751687,-1,0,0,-1,0,-2,1,1
1532295751692,-2,-2,-3,-2,-3,-4,-3,-3
1532295751697,0,0,1,0,2,19,12,-1
1532295751702,0,-1,-3,-3,-1,-23,-11,-2
1532295751707,1,-1,-2,-3,-1,1,-1,0
1532295751712,-3,0,2,2,-1,2,0,-2
1532295751717,0,-2,-2,-1,0,-1,0,0
1532295751722,-4,0,0,0,-1,2,0,-3
1532295751727,2,-1,3,-1,-2,1,2,1
1532295751732,0,0,-3,0,-2,-1,-2,-1
1532295751737,-1,-2,0,1,0,-1,-3,0
1532295751742,0,0,0,-1,0,7,4,1
1532295751747,-2,0,-2,0,-2,-5,-5,-2
1532295751752,1,-1,1,-1,1,1,3,1
1532295751757,-1,1,-3,-2,-4,-7,-7,-2
1532295751762,0,-1,-2,1,-1,4,3,1
1532295751767,-1,-2,-2,-1,-1,-1,-3,-2
1532295751772,0,-1,1,-2,-1,0,-2,-2
1532295751777,-1,-3,-3,2,-3,-6,-4,-2
1532295751782,0,0,0,-1,-1,9,3,1
1532295751787,0,-1,0,2,3,-14,-6,0
1532295751792,-2,-2,-4,-2,0,0,-1,-2
1532295751797,1,0,0,-1,0,-3,-2,-1
1532295751802,-2,0,0,1,0,1,-1,-3
1532295751807,1,-1,0,-2,0,4,3,-2
1532295751812,-1,0,1,-1,-2,-5,-5,-2
1532295751817,0,1,-1,0,0,0,4,0
1532295751822,0,-1,-3,-1,-2,-3,-3,-1
1532295751827,0,-1,-4,-2,0,1,-1,0
1532295751832,-2,-1,-2,0,2,-1,0,0
1532295751837,2,0,0,0,-1,2,0,-1
1532295751842,-1,-2,-2,-1,-1,-1,2,-1
1532295751847,0,-1,-2,-3,-3,2,1,0
1532295751852,-1,-1,-2,-1,-4,-1,-2,-1
1532295751857,-2,-1,1,2,0,-2,0,-2
1532295751862,0,-1,0,-1,0,-2,-3,-3
1532295751867,-2,-1,1,0,0,1,1,0
1532295751872,2,-1,0,-2,-2,6,2,0
1532295751877,-1,-1,-3,1,1,-4,-4,-3
1532295751882,-2,0,1,-2,-1,0,-2,0
1532295751887,0,-3,-1,0,-2,2,-2,-3
1532295751892,0,-1,1,-2,0,-4,2,-2
1532295751897,-3,-2,-3,-2,-1,2,-1,0
1532295751902,0,-2,-2,-2,-2,-3,-1,0
1532295751907,0,1,-1,-1,0,-2,-4,-2
1532295751912,-1,-1,-2,-3,-2,-3,0,0
1532295751917,-2,0,-1,-1,-3,1,1,-1
1532295751922,-2,0,-2,2,0,3,2,-2
1532295751927,-1,-1,-1,0,-1,-1,-3,-1
1532295751932,0,0,0,2,1,3,0,1
1532295751937,-2,0,0,-1,1,-7,-1,0
1532295751942,-2,-3,-3,-1,0,2,2,1
1532295751947,1,-1,-1,-1,1,-3,-5,-2
1532295751952,0,0,-1,-4,-6,-3,2,-3
1532295751957,0,-2,1,0,1,12,3,0
1532295751962,0,0,-2,-2,-1,-13,-11,-1
1532295751967,-1,-1,-1,-3,-8,-3,4,1
1532295751972,0,-1,-4,-1,0,-2,1,-1
1532295751977,-1,-1,-2,0,-1,2,-2,-5
1532295751982,0,-1,0,1,1,3,1,-2
1532295751987,-2,-1,0,1,6,-1,1,0
1532295751992,-1,0,0,-3,-4,2,-2,1
1532295751997,-2,-2,-1,1,3,-9,-8,-2
1532295752002,1,-1,-1,1,3,1,-1,-3
1532295752007,-2,0,1,-7,-8,-1,-1,2
1532295752012,-1,-1,1,1,5,0,2,2
1532295752017,0,0,-3,-3,-10,-1,-2,-1
1532295752022,0,-1,-1,2,16,-8,-1,-1
1532295752027,1,-1,-3,5,-2,12,-3,-1
1532295752032,-3,-1,-3,-3,-9,-10,-2,-3
1532295752037,-1,-1,-1,-2,4,-3,-1,4
1532295752042,1,0,-2,-4,-7,14,0,1
1532295752047,-2,-1,-3,4,7,-4,7,1
1532295752052,0,-1,0,2,4,0,-3,0
1532295752057,1,-1,-2,-1,-5,3,0,-1
1532295752062,0,0,2,-1,4,1,3,-2
1532295752067,-1,0,-2,-1,-1,-2,-4,-2
1532295752072,1,-1,-2,-1,1,4,-2,-2
1532295752077,0,0,0,-2,-12,-7,5,1
1532295752082,0,-1,-1,-4,-9,-7,-4,5
1532295752087,-2,0,-1,1,7,-9,-2,-4
1532295752092,-2,-2,-1,-3,-25,-17,-8,-3
1532295752097,-4,-1,0,0,10,17,2,1
1532295752102,5,1,0,1,0,31,8,5
1532295752107,-1,0,0,0,-5,-27,-15,-6
1532295752112,0,-1,1,4,23,13,2,0
1532295752117,-2,-1,-2,-3,-6,-23,1,-6
1532295752122,-3,-2,0,-2,-11,-3,3,-1
1532295752127,-2,-1,-3,0,1,5,0,7
1532295752132,-1,-1,-1,-1,4,-2,-4,-5
1532295752137,-1,0,-1,-3,-4,4,-2,1
1532295752142,-1,0,-1,-1,3,-5,-2,2
1532295752147,0,-1,2,2,3,20,-2,3
1532295752152,-2,-1,0,3,1,-5,6,5
1532295752157,-1,-1,-1,2,6,2,0,-2
1532295752162,-3,0,-3,0,-2,-7,-2,-5
1532295752167,0,1,-2,-5,-1,3,5,-6
1532295752172,0,-1,-1,-2,-1,-2,-5,-5
1532295752177,-1,1,1,-1,-2,3,1,-1
1532295752182,1,-2,0,-1,1,-8,-5,-5
1532295752187,-3,-2,0,-1,-3,4,3,-4
1532295752192,0,-1,-2,-1,-4,-9,-4,-1
1532295752197,0,-3,-2,0,2,1,-7,-3
1532295752202,-2,0,0,2,-3,-8,8,-1
1532295752207,0,1,-2,1,-1,-8,-16,2
1532295752212,-1,-1,0,-3,-3,2,-1,0
1532295752217,-2,-1,1,0,1,-3,-4,2
1532295752222,-3,-1,-2,-1,-3,0,-1,0
1532295752227,0,-1,0,-3,-6,1,9,2
1532295752232,2,-1,1,-2,1,-3,-9,-1
1532295752237,0,0,-1,0,1,6,5,2
1532295752242,-1,-2,-2,-3,-5,-3,-9,3
1532295752247,-1,-1,-1,-2,1,-1,9,3
1532295752252,-3,-2,-3,-2,-2,-4,0,1
1532295752257,1,-1,-1,-2,-2,5,2,3
1532295752262,-1,0,2,1,-2,-13,-15,-4
1532295752267,-1,-1,-1,-3,-2,11,18,3
1532295752272,-1,0,0,0,0,2,23,-4
1532295752277,0,-1,-1,-1,0,11,-14,2
1532295752282,1,-2,-1,1,2,-8,-8,8
1532295752287,-3,-1,0,-3,-5,-5,-14,-8
1532295752292,-6,-3,-3,0,-2,1,-26,-10
1532295752297,17,2,0,-1,-2,-16,12,14
1532295752302,-2,0,0,-1,0,1,-13,-7
1532295752307,-1,-1,-1,-3,-1,-24,-3,-5
1532295752312,-3,-1,-1,1,0,37,-15,-3
1532295752317,0,2,-1,2,1,-19,-15,-13
1532295752322,-18,-5,-2,2,0,4,32,-3
1532295752327,3,-5,-2,0,-2,0,-4,3
1532295752332,0,1,-1,-2,-5,-22,-67,-5
1532295752337,3,-3,-3,-4,-6,-20,61,-1
1532295752342,1,4,4,4,5,35,10,3
1532295752347,-2,0,1,1,0,-26,-28,-12
1532295752352,-1,-1,-1,-1,1,9,23,1
1532295752357,-12,-5,-1,0,1,-2,-4,8
1532295752362,7,4,-2,-5,-4,5,-1,-25
1532295752367,3,2,-2,1,1,6,-2,8
1532295752372,7,0,-1,-1,1,4,30,4
1532295752377,0,0,1,-3,-3,-8,-4,-7
1532295752382,-5,-4,-3,-2,-6,-21,-13,1
1532295752387,-15,-3,1,2,1,27,18,2
1532295752392,14,0,-2,-3,-3,-14,-7,4
1532295752397,-9,-2,2,3,0,14,9,1
1532295752402,3,-1,-2,-4,-3,22,2,2
1532295752407,2,-1,-1,0,-1,-14,-13,1
1532295752412,-6,-3,-3,1,2,-1,19,0
1532295752417,2,-4,-5,-4,-6,30,-26,-13
1532295752422,-5,-1,0,-1,-2,-67,-1,1
1532295752427,8,4,3,2,9,57,15,3
1532295752432,-11,-3,-5,-6,-4,-24,33,-4
1532295752437,-11,0,-1,1,3,2,-17,1
1532295752442,15,2,-1,-2,-3,18,12,5
1532295752447,3,-2,-4,-3,-4,-33,11,-3
1532295752452,-12,-1,0,4,4,5,-6,-3
1532295752457,-8,-6,0,-3,0,10,-35,-8
1532295752462,11,6,1,2,1,-10,11,20
1532295752467,2,-1,-1,1,-3,0,-4,-8
1532295752472,6,1,3,-2,-3,13,-18,15
1532295752477,-7,-4,-2,-1,1,-12,27,3
1532295752482,31,5,-1,-2,-5,-26,-20,-8
1532295752487,4,0,0,0,2,26,34,8
1532295752492,8,3,-1,0,-6,-32,-25,-11
1532295752497,-7,-1,0,2,2,15,0,5
1532295752502,-24,-7,0,4,5,26,37,0
1532295752507,26,0,-7,-9,-11,-11,-21,4
1532295752512,-20,-10,-5,-4,-2,-4,13,-4
1532295752517,6,1,-3,-1,2,3,-16,-9
1532295752522,-8,-4,0,-1,-2,-14,-25,-6
1532295752527,-10,-4,-2,-5,-6,-19,-4,-9
1532295752532,-5,3,2,1,4,6,11,6
1532295752537,7,2,0,-2,-2,-9,-8,10
1532295752542,-3,-1,-2,-2,-1,14,-19,-15
1532295752547,-19,-5,0,0,2,11,6,-13
1532295752552,7,2,3,1,0,-11,17,8
1532295752557,5,1,-2,-1,-3,-23,-13,-15
1532295752562,-14,9,0,-1,0,19,27,9
1532295752567,34,-10,-3,-1,-4,-46,-32,-14
1532295752572,-3,-3,1,3,10,85,29,26
1532295752577,2,0,1,0,-2,-16,-8,-1
1532295752582,-5,0,1,1,2,2,-8,-9
1532295752587,-15,2,-2,-1,-4,-25,13,-3
1532295752592,5,2,0,-3,-6,-26,13,-13
1532295752597,-7,-8,2,1,2,55,13,12
1532295752602,6,9,-3,-2,1,-15,7,2
1532295752607,-8,5,2,2,2,-3,-16,4
1532295752612,9,-6,-3,-1,-3,1,-11,-4
1532295752617,1,4,1,1,1,2,26,-4
1532295752622,4,-8,4,1,-3,-5,-30,4
1532295752627,-2,2,-6,0,-1,12,-1,8
1532295752632,-2,-4,-5,-5,-6,-8,2,-14
1532295752637,-3,9,2,0,2,-7,12,12
1532295752642,2,-16,-5,-2,-3,11,-7,4
1532295752647,-1,-1,3,1,-1,-4,11,14
1532295752652,-13,-3,0,0,-4,-30,-83,-71
1532295752657,7,-1,-2,3,10,32,16,34
1532295752662,-9,-14,-2,-3,-5,-6,4,-5
1532295752667,-6,13,2,-1,2,17,18,17
1532295752672,3,-3,-2,-2,-5,-43,-17,-11
1532295752677,-20,11,2,0,2,29,7,-19
1532295752682,24,-8,0,-1,5,-1,40,13
1532295752687,-25,-22,-5,-4,-1,-5,-3,0
1532295752692,16,-5,-1,-1,2,16,-8,22
1532295752697,-4,17,0,-1,-2,-43,-23,-20
1532295752702,-2,4,-1,-2,-5,22,13,8
1532295752707,0,-3,-4,0,3,5,-20,-4
1532295752712,-13,0,5,2,4,26,37,9
1532295752717,3,-11,-1,-1,-6,-56,-23,-12
1532295752722,-5,-2,-5,-3,6,37,3,-14
1532295752727,-7,2,4,-1,0,-3,-23,-8
1532295752732,-1,4,0,-1,-2,-21,-15,-25
1532295752737,8,-5,-4,-3,-7,10,-34,0
1532295752742,-14,-2,2,1,4,-5,5,-8
1532295752747,2,-3,3,3,9,0,9,-7
1532295752752,11,2,-1,-7,-34,-33,-17,16
1532295752757,-11,5,-1,-3,-12,14,65,-7
1532295752762,-1,1,-2,-9,-9,24,-3,12
1532295752767,10,5,2,5,19,27,15,37
1532295752772,-3,3,0,1,6,-22,-13,8
1532295752777,-27,-11,-5,-2,1,1,-19,21
1532295752782,49,11,0,0,-2,-9,3,5
1532295752787,19,-31,-5,-5,-8,-16,-2,-25
1532295752792,-28,12,3,5,4,5,31,12
1532295752797,-25,-23,-2,-6,-9,5,-10,-7
1532295752802,23,19,0,2,2,2,6,-17
1532295752807,-6,-20,-1,-4,-10,-11,-23,35
1532295752812,7,1,-1,1,7,13,1,-9
1532295752817,7,-6,0,-2,1,9,32,-13
1532295752822,-34,-5,-2,4,2,-24,-37,-16
1532295752827,-9,10,-1,-1,-7,2,46,4
1532295752832,-19,-9,-4,-2,1,32,6,-31
1532295752837,27,-2,4,1,3,-19,11,39
1532295752842,-5,8,-6,-8,-9,-5,25,-14
1532295752847,31,5,-1,-1,-3,-12,-36,-36
1532295752852,-7,0,-3,-2,2,7,-78,29
1532295752857,12,-3,0,3,6,-22,35,-30
1532295752862,-9,-12,-2,-4,-8,-40,6,-19
1532295752867,-15,16,3,5,12,53,66,10
1532295752872,14,-23,-4,-4,-2,-4,-20,-16
1532295752877,6,13,-2,-5,-6,8,-42,-10
1532295752882,-16,-6,3,1,0,2,-29,4
1532295752887,-7,27,6,4,6,22,-3,26
1532295752892,-3,-3,-3,1,8,-26,41,24
1532295752897,-7,-2,-3,-2,-1,8,-9,-35
1532295752902,33,-1,2,6,6,-15,-52,58
1532295752907,-20,-3,0,-7,-14,3,16,16
1532295752912,21,10,3,-2,-1,65,-7,-29
1532295752917,-25,23,5,7,6,-96,-74,14
1532295752922,-7,0,-4,0,3,18,17,-36
1532295752927,-2,-13,-4,-4,-7,-20,-27,-11
1532295752932,-3,4,-4,-2,-8,-2,19,26
1532295752937,2,11,0,-1,0,32,49,-16
1532295752942,-18,-51,-4,-3,-3,-12,0,-28
1532295752947,44,52,8,4,-1,-25,-50,59
1532295752952,-27,-5,2,3,8,16,1,-13
1532295752957,4,-18,-12,-5,-8,-21,2,-14
1532295752962,-9,-2,-4,-4,1,6,-11,-18
1532295752967,31,-8,2,3,1,-9,70,-31
1532295752972,42,23,8,5,5,-27,36,70
1532295752977,23,6,3,-2,0,46,-56,-5
1532295752982,-17,-3,-5,-6,-6,-2,-31,22
1532295752987,-35,-15,-2,5,18,26,80,-43
1532295752992,-11,-3,-2,-1,-4,4,-30,-23
1532295752997,-1,-13,-2,-2,-10,-17,64,19
1532295753002,-13,9,0,6,3,-77,-21,-32
1532295753007,-13,-12,-9,-21,-33,76,5,2
1532295753012,-3,-2,-2,-2,-7,-27,24,1
1532295753017,-13,-2,2,7,16,10,-14,-10
1532295753022,25,12,0,-6,-18,19,71,15
1532295753027,-71,-10,4,7,-3,-44,-111,-37
1532295753032,45,-12,-4,4,13,48,94,30
1532295753037,62,17,8,1,14,3,-87,30
1532295753042,9,6,1,8,19,13,41,-13
1532295753047,16,-4,-3,4,6,-66,-19,-29
1532295753052,-47,-13,-6,-8,-20,3,2,-57
1532295753057,-27,-9,-6,-8,-13,90,30,9
1532295753062,-2,11,8,6,8,-13,-4,19
1532295753067,-9,-3,-4,-4,29,16,-38,9
1532295753072,-5,-1,1,3,21,2,11,11
1532295753077,11,-2,1,-11,-32,2,8,-4
1532295753082,-12,-2,0,3,-16,-35,2,27
1532295753087,1,-3,-3,3,-10,-4,-2,-36
1532295753092,-5,1,-2,-4,5,-32,-45,-22
1532295753097,9,-4,1,6,14,16,41,61
1532295753102,20,7,-3,-7,-5,21,3,5
1532295753107,-17,-5,0,4,9,-87,-29,4
1532295753112,33,4,0,-2,-6,44,24,-19
1532295753117,-19,4,2,-5,-6,-35,-44,1
1532295753122,-7,-2,-3,5,8,30,19,6
1532295753127,21,4,5,6,19,-3,22,20
1532295753132,-15,-5,-1,-6,-8,-10,-8,-14
1532295753137,-22,-8,-7,-5,-12,-32,6,-34
1532295753142,-10,-3,-2,-7,-15,9,-17,-24
1532295753147,5,-1,-4,-7,-6,29,-19,3
1532295753152,-14,-4,-4,1,-2,-11,-27,2
1532295753157,3,-3,3,4,4,6,55,-24
1532295753162,-2,0,2,2,6,-52,-10,20
1532295753167,10,-1,-1,-3,-1,35,41,17
1532295753172,-7,5,5,5,2,10,-26,8
1532295753177,23,5,-3,9,13,-30,-9,-6
1532295753182,-13,-10,-4,-3,31,22,-47,-31
1532295753187,5,-6,-10,-20,-42,7,16,36
1532295753192,15,6,3,-8,-18,-33,10,-14
1532295753197,-18,-4,-1,0,19,8,5,-17
1532295753202,11,1,4,6,2,10,1,36
1532295753207,7,3,2,6,11,6,-11,-42
1532295753212,10,3,-3,1,-35,-4,-37,68
1532295753217,-15,-5,-2,5,15,2,4,-33
1532295753222,-5,-3,0,-7,-2,1,-15,-14
1532295753227,-1,1,-3,2,-4,8,11,12
1532295753232,0,1,1,3,7,-11,5,6
1532295753237,-6,-3,-1,1,-1,7,-30,-12
1532295753242,-7,0,-1,3,15,-6,1,17
1532295753247,-6,0,0,-7,0,3,1,5
1532295753252,0,2,4,3,-13,-3,-3,-17
1532295753257,4,-3,0,4,2,-22,5,7
1532295753262,-1,-2,0,-4,3,14,1,-24
1532295753267,-13,-5,-4,-5,-3,-9,-1,-36
1532295753272,14,-2,-3,-7,-20,1,27,34
1532295753277,12,2,-1,-3,-2,-7,-5,7
1532295753282,-3,1,-2,-3,-15,6,-23,5
1532295753287,-3,1,1,5,1,-27,2,-3
1532295753292,-12,-3,-4,6,47,19,14,-12
1532295753297,-7,-6,-5,-15,-43,2,-15,-26
1532295753302,-8,-3,-3,-7,-8,0,-14,-7
1532295753307,6,3,3,-5,-12,-8,-21,9
1532295753312,-8,0,-3,2,11,-10,-2,-17
1532295753317,0,0,1,4,15,-2,-10,21
1532295753322,1,3,2,5,-11,-3,10,-12
1532295753327,4,-1,0,4,11,0,-10,-26
1532295753332,-17,-4,-2,-9,-9,-1,17,-18
1532295753337,12,2,-2,-3,-18,-4,-28,27
1532295753342,1,1,0,-1,-2,1,26,12
1532295753347,6,-4,-4,0,-5,10,13,15
1532295753352,2,1,1,8,9,-9,-12,-28
1532295753357,-14,-6,-1,3,20,22,-5,-10
1532295753362,3,2,-3,-7,16,9,-7,27
1532295753367,4,0,-4,-11,-42,8,-29,20
1532295753372,-15,-6,-2,-2,2,-9,8,-14
1532295753377,3,-4,-1,0,-14,-20,-15,12
1532295753382,6,8,6,10,15,-1,30,7
1532295753387,-2,0,0,8,12,3,5,-6
1532295753392,-3,0,3,-5,4,-5,-16,-4
1532295753397,-6,-1,0,-1,0,-1,20,-5
1532295753402,0,-3,-3,0,-12,-2,-17,-11
1532295753407,4,0,-3,0,21,-4,-12,-10
1532295753412,-9,-5,-4,-7,-13,7,11,5
1532295753417,-10,0,1,-2,-7,-7,16,2
1532295753422,16,1,-1,-2,-7,3,0,-4
1532295753427,-4,-1,3,3,1,3,-8,1
1532295753432,15,4,2,8,8,-10,-15,46
1532295753437,0,-3,-6,-3,18,21,25,-41
1532295753442,-10,-3,-5,-10,-38,-13,-11,8
1532295753447,6,2,1,2,-3,3,23,4
1532295753452,1,-1,-1,-1,12,4,6,0
1532295753457,-4,1,-1,0,-3,-10,-13,-9
1532295753462,-6,-1,-1,3,7,0,6,-2
1532295753467,0,0,1,-1,11,-17,16,-23
1532295753472,0,-2,-1,-6,-11,-2,22,15
1532295753477,8,5,5,7,-16,7,-33,12
1532295753482,0,0,3,13,45,14,12,-15
1532295753487,-7,-6,-8,-21,-24,2,-17,12
1532295753492,-5,-3,-4,-19,-19,-31,6,-17
1532295753497,14,1,-2,-6,-26,-19,-6,8
1532295753502,-9,-1,2,6,-10,19,-7,2
1532295753507,-10,4,7,19,33,-10,-27,-5
1532295753512,28,3,-1,3,27,60,10,5
1532295753517,0,-3,-7,-10,-10,2,13,7
1532295753522,-4,0,0,-3,-9,11,-16,-6
1532295753527,-4,-9,-3,5,9,-36,-27,-23
1532295753532,4,3,0,0,4,35,47,29
1532295753537,-1,1,0,0,13,-7,-3,-1
1532295753542,0,-2,-3,-4,-2,3,12,1
1532295753547,2,-1,2,2,7,9,-6,-11
1532295753552,-8,-5,-2,-3,-9,-29,-24,-20
1532295753557,0,-4,-1,-2,5,3,23,36
1532295753562,1,0,-3,-8,-16,-42,-11,-17
1532295753567,11,3,-2,-6,-18,5,-10,21
1532295753572,-17,-2,-1,7,10,10,-17,-25
1532295753577,4,0,1,7,15,-4,-3,17
1532295753582,-19,-2,2,1,10,16,3,-3
1532295753587,-4,2,-4,-4,15,-12,5,-3
1532295753592,2,-1,-4,-9,-46,44,10,6
1532295753597,-10,-1,-2,3,22,-21,-15,-9
1532295753602,15,-2,-1,-1,1,16,7,-6
1532295753607,-2,-1,-2,-4,-21,16,14,-2
1532295753612,-6,0,3,6,20,-37,-8,-3
1532295753617,-6,-2,0,-4,-14,16,4,-24
1532295753622,-3,1,0,-1,-3,14,-5,-7
1532295753627,-4,-4,-2,-4,-10,-16,47,37
1532295753632,11,5,5,15,27,-4,-41,15
1532295753637,2,-2,-4,-7,-7,-3,1,-9
1532295753642,1,-4,-4,-4,-6,-30,1,-8
1532295753647,-6,1,1,-3,1,50,-24,-37
1532295753652,-6,-9,-3,-7,-34,-64,-5,42
1532295753657,6,5,5,10,10,54,6,-23
1532295753662,-2,-4,-5,-6,7,-39,9,4
1532295753667,-14,-2,-5,-3,-5,-3,-1,-22
1532295753672,40,5,2,6,12,25,-27,-13
1532295753677,-5,-2,-1,0,7,-40,-15,0
1532295753682,5,-3,-2,-13,-27,11,9,11
1532295753687,-1,-2,2,2,-16,5,0,3
1532295753692,-11,0,-1,-4,13,-20,14,10
1532295753697,-3,-1,-1,-7,-16,2,5,15
1532295753702,0,-2,0,4,1,1,12,1
1532295753707,7,0,1,3,7,-4,25,19
1532295753712,-13,0,0,-1,0,10,-9,-14
1532295753717,-2,0,0,0,1,-9,2,-9
1532295753722,-7,-2,-3,-2,-1,-29,-30,-22
1532295753727,-21,3,5,7,15,65,42,-35
1532295753732,14,-7,-5,-13,-26,-15,-1,17
1532295753737,14,7,4,4,-2,3,-28,29
1532295753742,-1,1,0,2,5,-1,-17,-6
1532295753747,6,-2,-5,2,6,-20,10,10
1532295753752,-16,-1,-5,-3,-3,-7,-52,-18
1532295753757,-7,-8,-4,-7,-5,10,44,2
1532295753762,-3,3,4,2,-5,-6,-17,26
1532295753767,-1,-1,-3,-3,-3,-7,23,11
1532295753772,0,-2,-2,1,2,4,0,-18
1532295753777,1,4,-2,-1,0,-28,-30,5
1532295753782,8,-2,8,3,-1,31,62,42
1532295753787,3,-9,-2,-1,3,24,-13,20
1532295753792,-14,-1,-5,-4,-7,-43,-13,-48
1532295753797,2,0,1,3,6,20,38,14
1532295753802,-1,1,-2,4,-2,-14,-36,-43
1532295753807,11,10,-15,-7,-9,-8,-3,0
1532295753812,-23,-15,-15,-8,4,15,24,19
1532295753817,-4,-4,-1,-6,-8,-28,-20,-21
1532295753822,-5,-5,-4,-4,0,29,-16,3
1532295753827,-3,-1,4,3,-1,-10,31,10
1532295753832,-5,-1,1,5,5,13,6,-17
1532295753837,12,0,-2,-7,-3,-1,-8,13
1532295753842,-2,0,-4,0,-2,-18,-16,2
1532295753847,8,-1,4,2,-1,-1,-13,6
1532295753852,-2,2,1,-2,-2,-12,-17,-38
1532295753857,-4,-3,-5,-4,-4,-3,-5,-40
1532295753862,3,4,2,0,-3,6,-21,17
1532295753867,-1,-1,-1,0,4,12,18,-7
1532295753872,-2,1,2,3,1,-14,-36,-17
1532295753877,-6,-2,2,-5,-7,5,2,-8
1532295753882,6,2,1,-2,-6,1,-9,9
1532295753887,3,-1,1,2,2,7,-5,6
1532295753892,-3,-2,-1,-1,4,7,37,18
1532295753897,8,1,0,2,5,-16,-5,7
1532295753902,-2,-2,-2,0,-3,-4,2,10
1532295753907,-6,-3,-5,-2,0,9,3,-36
1532295753912,-3,1,-1,-3,-3,-11,3,15
1532295753917,2,-1,1,1,-1,-3,-2,-4
1532295753922,4,5,1,2,-2,-2,11,6
1532295753927,-9,-7,-2,-4,-2,14,-3,-27
1532295753932,9,-3,-2,-2,-6,-13,21,-16
1532295753937,-3,2,1,0,3,1,-12,5
1532295753942,1,-3,-2,-1,3,7,-17,2
1532295753947,-2,6,3,2,1,0,-10,-3
1532295753952,-12,-8,-4,-3,-6,-2,-10,-11
1532295753957,-6,-4,-1,-1,-3,-8,-40,-19
1532295753962,-3,-2,-1,-2,-1,-5,24,-10
1532295753967,-3,0,-2,-2,-2,-7,-2,7
1532295753972,7,0,1,0,0,2,-3,19
1532295753977,-18,-2,0,0,-2,6,12,-1
1532295753982,16,1,1,0,-1,-6,1,2
1532295753987,0,5,0,-1,0,11,8,7
1532295753992,-9,-11,-3,-1,-2,-1,-56,-18
1532295753997,-4,11,2,0,3,-15,39,12
1532295754002,-22,-7,-4,-1,-6,-2,27,-1
1532295754007,1,-2,-4,-3,-3,-5,-7,18
1532295754012,7,0,-2,1,1,14,20,-10
1532295754017,-18,1,0,-1,-4,0,-34,-7
1532295754022,8,0,1,2,3,-11,-11,13
1532295754027,20,2,3,5,4,19,75,19
1532295754032,-5,0,2,4,8,-28,-29,5
1532295754037,16,-2,-2,-4,-16,26,-14,13
1532295754042,-2,3,0,-1,4,26,17,-7
1532295754047,-5,-2,-1,1,0,-4,-12,3
1532295754052,-7,1,-1,0,-1,-7,-8,-10
1532295754057,4,-1,1,4,10,-12,80,18
1532295754062,-6,-2,0,1,-3,4,-76,-14
1532295754067,-1,-3,-2,-1,3,10,53,14
1532295754072,7,1,-1,-6,-6,0,10,8
1532295754077,-11,-7,-6,-5,-9,-23,-15,-43
1532295754082,-8,-6,-3,-7,-9,-21,-68,-5
1532295754087,-2,6,2,9,27,-62,44,18
1532295754092,9,2,1,-7,-33,83,27,-2
1532295754097,-22,-10,-5,-3,0,-40,-17,-12
1532295754102,0,-1,0,3,10,57,-13,-15
1532295754107,25,0,-1,-5,-10,26,-9,-9
1532295754112,-15,2,-3,-3,-6,-62,-67,-5
1532295754117,31,6,5,6,6,0,-20,16
1532295754122,0,0,-2,1,-3,-24,21,1
1532295754127,-21,-7,-1,0,8,23,-25,-15
1532295754132,2,2,2,4,13,19,4,-7
1532295754137,10,-3,0,0,-2,19,-7,5
1532295754142,-3,0,2,2,11,-25,33,3
1532295754147,-1,-4,-2,-6,-16,-24,-22,-7
1532295754152,1,3,0,-1,-5,-8,17,6
1532295754157,1,-1,0,1,8,1,-13,10
1532295754162,6,1,2,6,16,4,21,4
1532295754167,-5,-1,-1,-5,-15,17,-17,-5
1532295754172,-4,-3,-4,-2,-9,8,22,5
1532295754177,2,1,0,-1,-4,-8,-2,6
1532295754182,0,-1,-3,-8,0,-6,4,-4
1532295754187,-1,-4,1,-2,1,-24,-28,-13
1532295754192,-1,0,-1,0,19,62,19,4
1532295754197,1,-3,0,-2,-8,-16,0,5
1532295754202,1,1,-1,1,-8,4,-2,-1
1532295754207,-5,-1,0,1,0,-16,-23,-5
1532295754212,3,1,0,2,9,-16,28,-2
1532295754217,3,0,0,2,2,-9,-7,-4
1532295754222,-2,-1,-1,-1,-2,-5,7,0
1532295754227,-4,-1,-1,0,2,33,0,1
1532295754232,0,-2,0,2,-2,-12,-7,-3
1532295754237,1,0,0,0,-5,9,2,3
1532295754242,-2,0,0,0,-6,-25,14,1
1532295754247,-1,-1,-2,-7,-10,1,-5,0
1532295754252,-1,-1,-2,-4,-4,-6,-13,-2
1532295754257,2,0,1,2,14,12,1,0
1532295754262,4,1,1,4,7,-21,-1,-1
1532295754267,-3,-3,-3,-5,-24,29,0,-2
1532295754272,-4,-2,-2,-1,0,-30,-11,-3
1532295754277,2,-1,1,-1,-4,18,1,2
1532295754282,-1,0,0,-1,2,-20,-17,1
1532295754287,0,1,0,7,23,56,-11,-3
1532295754292,-5,-3,-4,-7,2,-23,0,0
1532295754297,0,1,-3,-6,-9,19,-4,0
1532295754302,0,0,-2,-4,-12,15,11,1
1532295754307,0,0,1,2,0,-34,0,0
1532295754312,1,0,3,8,14,40,18,0
1532295754317,-1,0,0,-2,-4,4,0,-1
1532295754322,-3,0,-2,-3,8,16,-6,-1
1532295754327,-2,-2,-3,-4,-9,-78,-11,0
1532295754332,0,0,-3,-4,2,16,9,-3
1532295754337,0,-1,-2,-2,4,-30,-5,0
1532295754342,0,-1,1,-2,-12,35,9,-1
1532295754347,0,0,1,3,14,15,-14,-2
1532295754352,2,0,3,2,-1,-38,0,-3
1532295754357,-2,-2,-3,-5,1,-3,-23,-2
1532295754362,-2,1,0,3,6,-7,-12,0
1532295754367,1,0,0,-2,-12,20,-8,0
1532295754372,-1,-2,1,2,-9,-11,15,0
1532295754377,-1,-1,-1,2,1,-1,6,7
1532295754382,-1,-3,-1,-4,-11,1,-2,-1
1532295754387,1,2,4,3,15,27,42,11
1532295754392,-2,-1,-3,-6,-7,-10,-31,-7
1532295754397,0,-1,1,4,5,-8,-1,1
1532295754402,0,-1,-6,-5,5,3,9,-1
1532295754407,-1,-1,-1,-3,-15,7,8,-4
1532295754412,0,-1,1,1,-1,-17,8,-7
1532295754417,1,1,3,0,7,20,-37,0
1532295754422,1,0,3,2,3,3,14,-4
1532295754427,-4,-1,-2,-2,1,-7,-18,-13
1532295754432,0,1,-1,-2,-17,-31,9,10
1532295754437,-5,-4,-3,-8,-17,-20,-9,2
1532295754442,-2,-2,1,6,13,-46,-23,0
1532295754447,1,-1,-2,-1,-5,18,38,-2
1532295754452,0,0,0,1,9,48,10,0
1532295754457,-4,-3,-3,-3,-5,-13,-26,-16
1532295754462,2,3,4,1,-3,10,7,13
1532295754467,-1,0,-2,0,11,-23,1,-3
1532295754472,-1,-1,0,2,17,-22,10,-7
1532295754477,-1,-1,-3,-5,-34,-2,-12,1
1532295754482,-1,-2,1,2,3,-4,-2,-2
1532295754487,2,-1,1,1,-1,-2,-1,5
1532295754492,0,1,-3,-3,-1,-9,-10,2
1532295754497,0,-1,-2,2,12,16,9,2
1532295754502,-2,-2,-3,-5,-7,5,-3,-9
1532295754507,-1,0,0,0,-7,-6,-29,-2
1532295754512,0,2,0,0,5,-7,17,-3
1532295754517,1,0,1,3,8,-1,-9,2
1532295754522,-2,1,-2,-2,-8,-12,-5,-2
1532295754527,-2,-4,-3,-5,2,8,1,-7
1532295754532,-1,-1,-2,-1,-24,3,5,1
1532295754537,-1,-1,-5,-3,6,-23,-22,-6
1532295754542,-1,0,1,2,19,36,21,-6
1532295754547,-3,0,-1,2,-7,-21,0,-6
1532295754552,-1,0,-3,-5,-1,-7,-19,-2
1532295754557,0,0,1,-3,1,2,-21,1
1532295754562,1,-1,-1,1,-9,-2,14,1
1532295754567,-1,-3,-1,-3,3,-1,-4,-4
1532295754572,-2,-2,1,-1,-3,0,8,6
1532295754577,-1,1,-1,-1,-1,4,4,1
1532295754582,-3,-2,-6,-3,0,-9,-5,0
1532295754587,0,-1,2,5,4,5,-5,-2
1532295754592,-1,-1,-3,-3,-3,-21,3,-1
1532295754597,-2,0,-2,-2,-2,6,4,0
1532295754602,-1,0,1,0,5,-1,-26,-3
1532295754607,0,0,-3,-2,-6,-5,18,-2
1532295754612,-2,-1,1,1,-1,0,-43,-5
1532295754617,2,1,-1,0,3,12,32,1
1532295754622,-1,0,-2,-4,2,-3,-4,-7
1532295754627,-2,-1,0,3,4,-1,6,-1
1532295754632,-1,-1,0,1,-1,-7,-4,-5
1532295754637,0,-2,-1,-1,5,12,21,-2
1532295754642,1,0,-5,-6,-6,-3,-5,7
1532295754647,0,-2,0,-6,-13,-6,-4,1
1532295754652,-3,-2,-2,-4,-4,-5,5,-1
1532295754657,0,-1,6,6,3,4,-10,1
1532295754662,0,-1,1,7,5,-3,3,3
1532295754667,-3,-1,-4,-5,-1,0,-1,-6
1532295754672,-3,-2,-1,-2,-5,-4,0,-5
1532295754677,-2,-1,-3,-2,2,1,-8,-3
1532295754682,-1,-2,1,0,-4,-3,-4,-3
1532295754687,-2,-1,1,4,3,-1,2,1
1532295754692,3,1,-2,2,3,7,17,12
1532295754697,-1,0,-3,-5,-3,-7,-35,3
1532295754702,-1,1,-1,-1,-5,-3,7,4
1532295754707,-1,-3,-1,1,11,-2,-32,-10
1532295754712,1,-1,-1,-4,-12,-5,68,0
1532295754717,0,0,0,-2,1,1,1,-7
1532295754722,-1,0,1,2,2,-3,-22,-3
1532295754727,-2,-2,0,2,-5,-2,15,-10
1532295754732,1,-1,0,3,6,2,4,-13
1532295754737,-4,-1,-4,-7,-7,-7,-8,-17
1532295754742,-3,-1,-3,-4,-1,-1,-11,-11
1532295754747,1,-2,-1,-1,-5,-5,0,5
1532295754752,-2,1,3,4,4,2,7,5
1532295754757,2,-1,-1,0,6,7,0,7
1532295754762,-3,-2,-2,-1,-2,-6,-4,6
1532295754767,0,1,-3,-6,-3,-1,-10,4
1532295754772,0,-2,-3,-6,-10,11,11,2
1532295754777,-2,0,4,6,4,-1,-17,-6
1532295754782,4,2,1,4,12,11,20,2
1532295754787,-1,0,-2,2,-2,2,-18,-11
1532295754792,0,-2,-4,-5,-5,0,-1,-16
1532295754797,0,-1,0,-3,-4,-6,-20,-13
1532295754802,1,-2,1,1,4,2,0,-16
1532295754807,1,-1,2,2,7,5,12,-7
1532295754812,2,0,-1,0,-9,0,-12,1
1532295754817,-3,-2,-1,-3,5,-2,-6,-8
1532295754822,-1,-1,0,1,-5,-2,34,-18
1532295754827,-4,0,1,1,-1,-3,0,-17
1532295754832,-2,-2,-2,-5,-3,-9,-12,-21
1532295754837,-1,1,-3,-4,-5,-5,-10,-9
1532295754842,0,1,3,6,2,3,-17,0
1532295754847,-2,-3,-6,-11,-5,-10,-16,-12
1532295754852,-2,0,-2,-1,2,4,13,-18
1532295754857,-1,0,0,-1,-4,1,0,-18
1532295754862,-2,-1,-1,-4,-2,0,-8,-24
1532295754867,-2,-1,2,4,-3,-9,-23,-32
1532295754872,0,-2,0,-1,3,-5,-9,-15
1532295754877,0,-1,2,6,1,2,15,-9
1532295754882,1,0,-5,-4,-4,-3,1,0
1532295754887,0,0,-2,-1,-1,4,-12,5
1532295754892,-2,-1,-3,-3,-8,-12,-8,-18
1532295754897,1,1,4,6,4,4,16,-4
1532295754902,-3,-3,0,0,3,-2,-5,-16
1532295754907,3,-1,-4,-6,-8,-1,8,1
1532295754912,-2,0,0,0,0,0,3,-1
1532295754917,2,-1,-2,0,2,7,20,-12
1532295754922,-1,-1,1,-3,-5,-6,-14,8
1532295754927,-1,0,2,3,4,5,11,30
1532295754932,-2,-1,-2,-1,0,-3,-2,42
1532295754937,-2,0,-1,0,-5,-1,5,46
1532295754942,0,0,1,-1,4,-4,-7,33
1532295754947,0,-1,1,2,2,6,3,27
1532295754952,0,-2,1,2,3,2,3,29
1532295754957,4,-1,-7,-9,-7,-1,1,20
1532295754962,-2,0,0,-2,-8,3,7,16
1532295754967,-3,-1,2,3,-1,-1,-16,12
1532295754972,-3,-1,-1,0,7,9,27,8
1532295754977,-2,-1,-2,1,3,-3,-3,8
1532295754982,-1,-1,-3,-1,-3,-6,-24,4
1532295754987,-1,1,0,-3,3,-5,33,2
1532295754992,-1,-2,-1,-1,-5,-3,-17,1
1532295754997,2,-2,-1,-1,0,5,4,3
1532295755002,-1,-1,-2,-1,-4,-7,-4,2
1532295755007,-1,0,3,3,3,5,-2,-3
1532295755012,1,0,-1,0,1,-4,-6,1
1532295755017,-1,-2,-3,-6,-6,-3,-7,2
1532295755022,-2,-1,0,0,-2,-2,-2,-1
1532295755027,-1,-3,-2,-2,-4,-1,10,-1
1532295755032,-1,0,1,2,-1,-3,-2,0
1532295755037,2,2,6,8,3,-7,-41,1
1532295755042,0,-1,-4,-2,3,-3,-5,-1
1532295755047,0,-2,-3,-3,0,7,33,-1
1532295755052,-3,0,-2,-3,-6,1,-7,0
1532295755057,-3,-3,0,0,-1,-2,4,0
1532295755062,-2,0,3,6,4,2,-10,0
1532295755067,2,-2,-5,-2,-7,0,11,0
1532295755072,0,-2,-5,-4,2,1,-10,-1
1532295755077,-3,0,-1,-2,-1,-1,12,0
1532295755082,0,0,0,-2,-1,-3,-10,-1
1532295755087,-2,-2,0,4,1,-5,-1,0
1532295755092,1,0,-1,-1,2,2,9,0
1532295755097,-2,-2,-2,-4,-3,-1,-8,0
1532295755102,-2,-1,-3,-5,-2,2,6,0
1532295755107,-2,0,0,-2,-3,-1,-11,-2
1532295755112,3,0,1,3,5,-4,-8,0
1532295755117,-4,0,1,4,5,0,3,0
1532295755122,0,-3,-3,-3,-7,2,4,-1
1532295755127,-2,0,-1,-5,-3,-6,-21,-1
1532295755132,-3,0,1,-1,-4,-2,5,0
1532295755137,-1,-2,-2,-2,-1,3,8,0
1532295755142,1,-2,1,2,0,-4,-20,-1
1532295755147,-4,-1,-1,1,1,-6,-8,-1
1532295755152,-2,-3,-4,-4,-1,3,5,0
1532295755157,-1,-3,-2,-5,-6,-2,-11,0
1532295755162,-1,-2,-1,-2,1,5,20,0
1532295755167,-1,0,1,2,-2,-5,-38,0
1532295755172,0,1,-4,-3,2,-7,1,-1
1532295755177,-2,2,-2,-3,0,6,17,0
1532295755182,1,-2,0,0,1,1,-12,0
1532295755187,0,0,0,1,-2,2,-1,0
1532295755192,3,1,1,2,-1,4,11,0
1532295755197,-1,-2,-1,-2,1,-7,-5,-1
1532295755202,0,0,-3,-3,-3,2,-4,0
1532295755207,0,0,0,1,3,1,7,-1
1532295755212,-1,0,0,1,-4,-3,-13,0
1532295755217,-2,-2,-1,0,-1,2,15,-1
1532295755222,-1,0,-1,0,-2,-3,0,0
1532295755227,-2,-2,-3,-5,5,0,2,0
1532295755232,-1,-1,-1,-2,-1,-3,7,0
1532295755237,0,0,2,3,0,1,-5,0
1532295755242,0,0,0,2,0,3,9,0
1532295755247,1,-2,-2,-3,-5,-1,-16,0
1532295755252,-2,-2,0,-1,-4,-8,-3,0
1532295755257,-1,1,0,0,0,0,-2,0
1532295755262,-2,0,0,-3,2,0,11,-1
1532295755267,1,-1,0,0,-6,-3,11,-1
1532295755272,0,1,0,1,-2,-1,-26,-1
1532295755277,2,-1,-1,1,7,5,-8,17
1532295755282,-1,-1,-3,-5,-14,-1,13,21
1532295755287,-2,-1,-2,-5,-5,1,-2,20
1532295755292,-2,-2,0,-3,-6,-1,-7,15
1532295755297,0,0,-1,0,2,-5,8,15
1532295755302,0,-1,2,6,10,4,-1,7
1532295755307,-1,-1,0,3,2,2,-1,2
1532295755312,0,1,-5,-1,-4,-3,1,4
1532295755317,-1,0,1,-6,-7,-3,8,0
1532295755322,-1,-4,-2,-3,-2,-4,0,-1
1532295755327,1,1,-2,0,1,1,3,-5
1532295755332,1,-1,1,2,4,6,7,0
1532295755337,0,1,0,2,1,1,-4,-3
1532295755342,0,-2,-4,-4,-2,-2,-3,56
1532295755347,-1,1,-1,-1,0,-3,-9,26
1532295755352,1,-3,-1,-1,1,5,19,8
1532295755357,-1,-2,-3,-1,-5,0,-7,22
1532295755362,-2,-2,-1,0,1,-3,-12,5
1532295755367,1,-1,-3,1,0,-2,4,38
1532295755372,-2,0,-1,-3,-2,-2,-3,33
1532295755377,-1,-1,-2,-2,0,-4,-14,-1
1532295755382,-1,-2,-2,-2,1,-2,19,25
1532295755387,-3,1,1,1,1,-2,5,10
1532295755392,-2,1,0,2,5,-1,-1,3
1532295755397,2,-2,0,1,-2,5,8,60
1532295755402,-3,-1,-2,-1,0,-5,-40,97
1532295755407,-2,-2,-2,-4,-2,6,31,114
1532295755412,-1,-1,-2,-4,-3,-1,-3,76
1532295755417,-4,0,-2,0,0,-4,-11,-53
1532295755422,1,2,1,3,2,5,16,-116
1532295755427,-1,0,2,1,-1,0,-1,-128
1532295755432,2,-1,1,1,-1,-1,0,-114
1532295755437,1,-2,0,-1,-1,-2,-1,-89
1532295755442,0,0,1,-1,-1,-3,3,-90
1532295755447,-1,-2,-1,-3,-3,-6,-13,-35
1532295755452,2,1,1,-1,-3,-2,21,44
1532295755457,-2,-1,-3,-4,-1,-1,-3,95
1532295755462,-1,1,0,-2,-1,-4,-8,97
1532295755467,0,-1,1,2,4,0,1,95
1532295755472,-3,-2,-1,-1,1,-2,-14,-4
1532295755477,-1,-2,-2,-2,-7,-2,5,-31
1532295755482,-1,-1,-1,-2,-4,0,8,-60
1532295755487,0,1,-1,0,1,-2,-19,-76
1532295755492,2,0,0,2,-3,8,13,-65
1532295755497,-1,-2,-1,-1,1,-2,3,-59
1532295755502,0,-1,0,-2,-3,2,5,-66
1532295755507,1,-1,-1,-3,6,1,1,38
1532295755512,0,-2,0,-4,-3,-1,-3,48
1532295755517,-1,-1,0,-1,2,2,-4,51
1532295755522,-2,0,-2,0,-1,-2,-1,34
1532295755527,0,-1,-2,3,-3,0,6,13
1532295755532,-2,0,-3,0,-1,-3,-17,-11
1532295755537,-1,0,0,2,0,0,12,-13
1532295755542,-1,0,0,-2,-3,0,-5,-22
1532295755547,-2,-1,-2,-3,0,0,4,-47
1532295755552,-1,-1,-2,-2,-4,-2,0,-27
1532295755557,2,0,2,1,2,-2,-9,-21
1532295755562,1,0,1,-2,1,6,9,-17
1532295755567,1,-1,2,-1,-3,-1,-6,6
1532295755572,-3,-1,0,0,-1,-6,-8,34
1532295755577,0,0,5,1,-1,-1,-6,26
1532295755582,0,-2,-14,0,-1,-2,-4,3
1532295755587,-1,-3,5,-1,1,2,6,-10
1532295755592,-1,-1,-5,-6,0,3,-7,-9
1532295755597,-1,3,0,0,2,1,-2,12
1532295755602,-1,-2,4,0,2,1,1,3
1532295755607,-3,0,-6,-1,-2,0,10,0
1532295755612,-2,-1,0,0,1,-2,2,38
1532295755617,0,-1,-3,-4,-1,1,3,44
1532295755622,0,0,3,1,-2,-6,-8,71
1532295755627,-2,-2,-8,-1,0,0,1,78
1532295755632,-2,-2,2,-1,-7,-4,4,63
1532295755637,-1,-1,-4,-2,-3,5,2,41
1532295755642,1,1,2,0,7,-1,-4,117
1532295755647,-1,0,1,2,1,0,1,90
1532295755652,-1,0,2,0,1,-3,-10,-22
1532295755657,0,-2,-3,-4,-4,0,4,-1
1532295755662,-2,0,-2,-2,-3,0,-8,-30
1532295755667,-2,-1,-1,-2,-2,0,-3,-56
1532295755672,-1,-1,-2,1,-1,1,9,-62
1532295755677,1,0,1,2,1,-1,2,-76
1532295755682,0,-3,0,-1,-2,-1,-5,-62
1532295755687,0,0,1,-5,-7,-7,6,42
1532295755692,0,0,-2,5,1,3,12,-1
1532295755697,-1,0,-4,-4,-2,-6,-18,-25
1532295755702,-3,-2,0,0,3,0,10,-32
1532295755707,-1,-3,-4,-1,5,8,22,-73
1532295755712,0,-1,1,-3,-4,-2,-19,-51
1532295755717,-1,-2,-2,4,-2,-12,-15,-16
1532295755722,0,0,2,-1,1,4,8,-38
1532295755727,1,2,-6,-1,0,-1,-4,-52
1532295755732,-1,0,-2,-2,0,-2,-1,-11
1532295755737,0,-2,-1,-3,-3,3,0,-8
1532295755742,-1,-1,-2,-1,-6,-4,-7,-20
1532295755747,1,0,4,2,3,-2,1,-24
1532295755752,1,0,-2,1,2,-2,-11,4
1532295755757,-1,2,0,-1,-2,-2,1,-1
1532295755762,1,-1,1,0,-1,1,15,-11
1532295755767,0,0,-1,-3,-3,1,-3,-5
1532295755772,-2,-3,-4,-3,0,-3,-6,-1
1532295755777,-1,-3,0,0,0,4,8,-3
1532295755782,-2,1,-1,1,-5,-13,-30,0
1532295755787,0,-1,-1,-2,0,7,29,-7
1532295755792,-1,1,0,1,0,-2,3,-2
1532295755797,1,0,0,1,2,8,6,0
1532295755802,0,-1,-3,-1,2,6,-1,1
1532295755807,1,0,1,-1,2,1,14,-7
1532295755812,0,0,-2,0,-1,-2,-3,1
1532295755817,1,-1,-1,-1,-3,-4,5,1
1532295755822,-1,-1,2,0,-2,-3,-14,-3
1532295755827,0,0,0,3,1,4,-8,-4
1532295755832,0,0,3,-2,-2,-4,3,2
1532295755837,-2,-2,-9,-3,1,0,2,0
1532295755842,-3,-3,-5,-8,-5,1,6,-31
1532295755847,-2,-1,3,-2,-3,-2,-16,-43
1532295755852,1,0,0,1,2,-4,-4,-42
1532295755857,-3,-2,0,1,1,-3,-2,-39
1532295755862,-2,-2,-4,0,-1,-3,2,-26
1532295755867,-2,-2,-2,0,0,1,-9,-20
1532295755872,-2,-3,2,-3,-7,-5,-8,-21
1532295755877,1,0,1,1,2,1,11,-15
1532295755882,0,0,-4,-1,-2,-1,6,-15
1532295755887,1,0,5,1,2,-1,-4,-13
1532295755892,-1,-1,-5,1,0,-7,-7,-9
1532295755897,-1,1,1,-2,-6,-6,-6,-6
1532295755902,0,-1,2,2,0,0,2,-2
1532295755907,-2,-1,0,-4,-2,-2,-8,2
1532295755912,0,-3,-1,-4,-2,5,9,8
1532295755917,-1,-1,0,-2,-4,-5,-15,3
1532295755922,0,1,1,4,4,0,1,13
1532295755927,-4,-2,-4,-1,-4,-1,-3,15
1532295755932,-1,0,-2,-2,4,-1,3,16
1532295755937,-3,-3,-4,-5,-8,0,-16,10
1532295755942,1,2,0,3,-5,-12,-5,8
1532295755947,2,-2,-2,-1,1,9,-2,6
1532295755952,-2,0,1,5,2,11,11,3
1532295755957,-1,-3,-4,1,6,1,-7,1
1532295755962,-1,-2,0,-3,3,-3,2,2
1532295755967,0,2,1,-1,-4,-4,5,2
1532295755972,0,-1,-4,1,0,1,9,4
1532295755977,-1,1,2,2,2,-10,-24,0
1532295755982,-2,-2,-2,-2,-4,0,5,2
1532295755987,-1,0,0,1,-6,-2,-3,2
1532295755992,1,-1,-1,-2,3,12,9,5
1532295755997,-1,-1,0,2,-1,0,9,7
1532295756002,-2,0,-1,-4,-2,-1,-7,8
1532295756007,0,-3,-3,-2,0,-3,-6,3
1532295756012,-1,0,0,3,4,-1,-6,4
1532295756017,1,-1,0,0,-5,6,7,7
1532295756022,-2,0,-1,0,1,0,0,5
1532295756027,-2,-1,-4,-2,-5,-7,3,7
1532295756032,0,4,2,-3,-5,-7,-13,1
1532295756037,2,-2,-2,0,4,1,13,4
1532295756042,-1,-2,2,3,9,15,-1,0
1532295756047,-1,0,0,1,0,4,1,0
1532295756052,-2,-3,-2,-1,0,-8,-6,0
1532295756057,-1,0,-1,0,1,2,1,-1
1532295756062,2,-2,-3,-1,0,-2,-3,1
1532295756067,-1,0,1,0,7,1,-9,-2
1532295756072,0,-3,-3,-3,-5,0,7,1
1532295756077,-1,1,5,-2,-5,-2,-1,1
1532295756082,-2,-2,-3,0,-6,-7,-1,4
1532295756087,-1,-1,-1,-2,-4,0,6,5
1532295756092,0,-1,-3,-5,3,5,-20,4
1532295756097,0,2,0,-1,-1,-11,1,4
1532295756102,-1,-2,-2,-3,-5,2,-7,2
1532295756107,1,0,-1,0,-5,-6,-4,4
1532295756112,-1,0,-1,0,-3,2,13,0
1532295756117,-2,-3,-2,1,9,-3,-24,0
1532295756122,0,-1,0,-1,-9,-9,0,-1
1532295756127,-2,-2,-2,0,1,0,-1,0
1532295756132,-2,0,0,0,0,-3,-5,1
1532295756137,0,-1,-2,-3,-6,-3,10,0
1532295756142,1,1,2,0,1,6,-3,3
1532295756147,-2,0,-1,2,2,-2,-3,-1
1532295756152,-2,-4,-4,-6,5,4,2,-2
1532295756157,0,-1,0,-3,-6,0,2,3
1532295756162,0,-1,-4,-5,-12,-12,1,1
1532295756167,0,0,0,1,-2,4,3,1
1532295756172,-1,0,1,4,-8,-11,-18,0
1532295756177,0,-1,-1,3,8,2,11,3
1532295756182,-1,1,0,0,5,13,14,1
1532295756187,-3,-1,-2,0,1,6,10,-2
1532295756192,1,0,0,1,-1,-2,-12,4
1532295756197,-2,-1,-4,-2,1,-7,-4,-2
1532295756202,-1,0,0,-1,-2,1,-2,-1
1532295756207,-1,-3,-2,-4,1,-5,-12,0
1532295756212,-2,-1,0,-1,9,9,11,-1
1532295756217,0,0,-2,-3,-5,-1,6,1
1532295756222,0,-1,-1,-2,-12,-12,-18,1
1532295756227,-1,-1,0,-1,-1,-8,3,1
1532295756232,0,-2,-3,-3,-8,-6,-2,-3
1532295756237,-1,-2,3,3,4,6,6,1
1532295756242,0,-2,-3,0,8,2,-8,-1
1532295756247,2,1,1,-2,-4,5,10,2
1532295756252,-1,-2,-4,-2,-4,-4,-1,1
1532295756257,0,-1,0,-1,0,3,-5,0
1532295756262,-2,-1,-1,0,6,5,7,1
1532295756267,0,-1,0,0,1,-3,-8,2
1532295756272,0,1,0,-1,0,0,4,0
1532295756277,-1,0,2,3,-4,1,1,-4
1532295756282,-1,0,-3,1,9,1,-1,3
1532295756287,0,-2,-1,-5,1,-3,-4,-1
1532295756292,-1,-2,-2,-4,-7,-7,2,0
1532295756297,0,-1,1,0,-5,-1,0,2
1532295756302,-2,-1,-1,2,0,9,5,1
1532295756307,-1,-1,2,5,7,-3,-9,-1
1532295756312,0,-1,-3,-2,-11,-8,5,1
1532295756317,-1,-1,-2,-7,1,-1,-1,-2
1532295756322,-1,0,2,-6,-2,-2,10,-3
1532295756327,0,-1,-2,0,-5,-1,-10,0
1532295756332,-1,-1,1,4,-1,2,-3,-2
1532295756337,-3,-2,-3,0,4,5,7,5
1532295756342,0,0,0,-3,-6,-10,-9,-1
1532295756347,-1,0,-3,0,-1,-1,-1,-2
1532295756352,-1,2,3,-3,-2,3,-2,1
1532295756357,-2,-4,-4,0,3,-2,0,-4
1532295756362,-1,-1,1,2,3,3,4,0
1532295756367,1,-2,-2,-2,-2,-5,-2,1
1532295756372,0,-2,-2,-2,-1,4,7,2
1532295756377,0,0,1,-1,-1,5,-2,0
1532295756382,0,-1,0,1,-1,-6,-2,-1
1532295756387,-1,-2,-1,2,0,-3,-5,-3
1532295756392,-1,-1,-1,-1,-2,3,4,0
1532295756397,0,-1,-1,1,-2,-4,-6,1
1532295756402,0,-2,-3,-3,-3,4,4,1
1532295756407,-1,0,-1,0,3,-4,-3,1
1532295756412,-1,-2,-3,-5,-3,-14,3,-2
1532295756417,-2,1,0,2,3,-7,-6,0
1532295756422,0,0,-2,-3,-1,7,2,2
1532295756427,-2,-1,1,-4,-8,3,2,-1
1532295756432,0,-1,2,2,5,6,-5,4
1532295756437,1,-1,-2,-1,3,-1,5,2
1532295756442,-2,0,1,1,-1,-3,3,-1
1532295756447,0,-1,-1,-5,4,1,-5,0
1532295756452,-2,0,-2,0,-5,-11,-4,-4
1532295756457,0,1,0,1,-2,4,3,0
1532295756462,0,-3,-1,-1,1,-2,-8,-5
1532295756467,1,1,-1,-2,0,7,22,-1
1532295756472,-1,0,2,4,5,2,-6,-2
1532295756477,-2,-2,0,-1,-2,3,1,-2
1532295756482,-2,-1,0,-3,1,-2,-5,-1
1532295756487,-1,-2,-3,-6,-5,-16,-13,1
1532295756492,0,-2,0,-1,5,10,8,-2
1532295756497,1,0,0,2,-10,-12,-13,1
1532295756502,-1,1,0,3,3,1,-2,1
1532295756507,-4,-4,-1,-2,-3,4,2,-2
1532295756512,0,-2,-2,-4,-3,-1,-4,3
1532295756517,-1,-1,-2,0,-2,-9,-4,-2
1532295756522,-2,-1,-1,0,-4,-14,-3,-3
1532295756527,0,-1,0,2,1,0,2,-2
1532295756532,0,1,-1,0,0,5,-1,-1
1532295756537,-2,-4,-1,-3,-2,3,-1,-3
1532295756542,0,0,0,-1,1,-2,0,2
1532295756547,-1,0,-2,2,-1,2,0,0
1532295756552,-2,-1,1,2,0,-3,0,-1
1532295756557,-2,-1,-1,-2,2,4,5,-1
1532295756562,1,-2,-2,-3,-1,-3,-12,-2
1532295756567,0,0,3,1,3,5,12,0
1532295756572,0,-2,-1,-1,-3,-7,-9,-2
1532295756577,-2,0,0,-1,3,14,11,-5
1532295756582,-1,0,-1,1,-4,0,2,1
1532295756587,0,0,0,0,-1,-2,0,-1
1532295756592,-1,-2,0,-4,0,-3,-12,0
1532295756597,2,3,1,1,-1,-1,10,2
1532295756602,-1,-2,-2,-3,-2,1,2,1
1532295756607,-1,0,-2,2,4,12,6,-1
1532295756612,0,-1,-1,-1,-8,-16,-17,-1
1532295756617,-2,-1,-2,-1,-3,-8,-7,-3
1532295756622,-1,-1,-1,-2,-2,6,3,-3
1532295756627,0,-1,-4,-3,3,-10,-9,2
1532295756632,0,1,2,0,7,13,17,0
1532295756637,-2,-2,-2,-2,-2,-1,-5,-1
1532295756642,-1,-1,1,1,2,-2,0,-8
1532295756647,1,2,1,0,-3,3,-2,9
1532295756652,1,1,-2,1,0,-3,-4,1
1532295756657,0,0,-2,-1,-3,-8,-14,0
1532295756662,0,1,-3,-3,-4,3,5,1
1532295756667,-2,-3,-5,-3,-4,-6,-13,-3
1532295756672,0,-1,-1,1,0,3,21,1
1532295756677,-2,-3,-3,1,2,-3,-2,-3
1532295756682,0,-1,-1,0,-4,-3,0,1
1532295756687,1,1,0,0,-4,1,-7,-2
1532295756692,0,1,-1,-2,1,0,-1,0
1532295756697,-2,-2,-2,-3,1,-2,7,-5
1532295756702,-3,-2,-1,0,0,0,1,-1
1532295756707,2,-1,-1,0,-2,-3,4,1
1532295756712,-1,-1,-3,-2,-1,2,-8,-4
1532295756717,-2,0,0,-1,4,7,2,-2
1532295756722,-2,-2,-2,-1,-1,-8,-10,1
1532295756727,-1,1,1,-1,0,6,13,1
1532295756732,-1,-2,-4,1,1,1,7,-1
1532295756737,0,-1,0,-1,-1,6,1,4
1532295756742,0,-2,-2,-2,-1,-11,-14,3
1532295756747,-3,-2,-2,-2,-3,6,18,-3
1532295756752,0,-1,-1,-1,0,-1,1,-1
1532295756757,0,0,-1,-3,0,-1,-2,3
1532295756762,-1,0,0,0,-2,3,4,-3
1532295756767,-2,-3,-1,-1,-2,-8,-14,-6
1532295756772,-1,-2,-2,2,2,0,2,2
1532295756777,0,2,-1,-2,-8,-7,-1,5
1532295756782,0,0,-1,1,3,-2,2,0
1532295756787,-2,0,-1,0,0,-3,-8,-4
1532295756792,0,-2,1,1,2,5,6,-6
1532295756797,0,-2,-2,-3,-4,-2,2,-1
1532295756802,0,-1,-2,0,1,6,3,3
1532295756807,-1,-2,-1,-3,-4,-1,-2,1
1532295756812,-1,1,1,0,-1,-5,0,-2
1532295756817,0,-1,0,3,4,2,-2,-5
1532295756822,-2,-1,0,-2,5,-4,-7,-4
1532295756827,-2,-1,0,-1,1,3,-4,-6
1532295756832,1,-2,-2,-1,0,9,2,2
1532295756837,0,0,-1,-4,-7,-13,-5,4
1532295756842,0,-1,-1,0,1,-5,-6,7
1532295756847,-1,0,1,2,3,8,4,-6
1532295756852,-1,0,1,-1,5,-2,-10,0
1532295756857,0,0,1,2,-2,2,8,6
1532295756862,0,0,-4,0,-7,-4,-13,-5
1532295756867,-2,1,0,2,3,3,10,4
1532295756872,-3,-1,-2,1,-2,-3,-11,-5
1532295756877,0,-2,-2,-3,-6,-1,23,1
1532295756882,0,-1,1,0,-2,-3,-6,3
1532295756887,1,0,-1,0,0,0,-3,-3
1532295756892,-1,-1,-2,0,1,-3,8,-6
1532295756897,-1,-1,-2,0,-4,-2,4,-5
1532295756902,-1,-1,-1,-1,2,6,-7,-4
1532295756907,0,-2,0,-3,-3,-5,-5,-1
1532295756912,1,-1,1,-2,0,3,-1,3
1532295756917,-4,-2,-1,-1,6,-16,-18,-7
1532295756922,1,0,2,1,-1,3,13,3
1532295756927,-2,-2,-1,-4,-7,7,-3,-5
1532295756932,2,0,0,-3,2,-1,1,9
1532295756937,0,-2,-1,-2,-5,5,-4,1
1532295756942,-3,-1,-1,1,-4,-9,-20,-7
1532295756947,1,-1,-1,2,6,-1,8,12
1532295756952,-2,-2,-1,-3,-8,1,6,-9
1532295756957,0,1,0,-1,7,10,4,-2
1532295756962,1,-1,1,-1,1,-1,-6,2
1532295756967,-1,0,-2,-1,-4,-5,-10,0
1532295756972,-1,-1,0,-2,-4,3,18,1
1532295756977,0,2,1,2,0,-12,-33,-1
1532295756982,-2,1,-1,3,2,9,40,-5
1532295756987,2,-1,-4,-2,-4,-3,2,12
1532295756992,-1,-2,-4,-2,1,-3,-16,-7
1532295756997,1,-2,-3,-3,3,6,9,4
1532295757002,-2,-2,-1,-5,-10,-4,-11,-5
1532295757007,-2,-1,1,0,-2,0,5,-8
1532295757012,-2,0,-1,1,-9,-12,-5,2
1532295757017,-1,-1,0,2,2,5,3,-1
1532295757022,-1,-1,1,-3,3,-2,-9,-2
1532295757027,1,0,-3,1,1,0,5,3
1532295757032,-1,-2,-2,-2,-3,0,0,-5
1532295757037,0,-1,-1,-3,-8,-12,-10,-2
1532295757042,0,0,-3,0,8,5,9,6
1532295757047,-1,-1,1,-4,-3,-2,-4,-3
1532295757052,0,-1,0,2,6,5,1,-5
1532295757057,1,-1,-1,2,1,3,4,6
1532295757062,-2,-3,-1,1,0,0,-4,1
1532295757067,-3,-2,-2,-2,2,-6,-4,-8
1532295757072,1,-2,-1,-5,-12,-1,-9,-7
1532295757077,-1,-1,1,0,0,-1,14,-4
1532295757082,-1,0,-1,0,-1,-3,-14,1
1532295757087,-2,-1,1,4,4,3,7,0
1532295757092,1,-1,1,1,6,-3,-7,-1
1532295757097,-2,-2,-2,-7,-5,2,2,-1
1532295757102,0,0,-2,-1,-1,-2,2,-3
1532295757107,0,-1,1,-1,-1,2,-1,-6
1532295757112,-1,1,1,3,2,0,0,-3
1532295757117,-2,0,-3,1,4,2,7,1
1532295757122,0,-1,-3,-5,-4,0,-1,1
1532295757127,-1,-2,-2,-4,-6,-3,-4,4
1532295757132,-2,-3,0,-2,-5,0,1,0
1532295757137,1,0,0,0,-2,7,7,5
1532295757142,-1,-1,0,0,0,-3,-8,-5
1532295757147,-1,0,-1,1,1,-2,-4,-4
1532295757152,-1,0,-1,-3,-8,-13,1,5
1532295757157,-2,-2,-1,1,5,-2,-7,0
1532295757162,0,-1,-1,-1,-2,3,2,-1
1532295757167,0,-1,-1,-3,-4,-1,2,2
1532295757172,-1,0,0,0,4,0,-1,0
1532295757177,0,0,2,0,-3,1,-2,-4
1532295757182,-1,-1,-2,3,3,-2,-2,-4
1532295757187,0,-1,-2,-4,-4,-6,-10,-8
1532295757192,-1,-2,-2,-1,-3,0,-1,1
1532295757197,0,0,-1,-1,-2,1,0,2
1532295757202,0,-1,0,0,0,2,-2,0
1532295757207,0,-2,-1,4,2,-1,-2,4
1532295757212,0,0,-3,-3,7,5,4,1
1532295757217,1,-1,-4,-4,-10,-5,-1,2
1532295757222,0,-1,-1,-5,-2,-5,-2,1
1532295757227,1,0,1,-1,-4,-1,4,0
1532295757232,-2,-2,-1,0,0,2,1,-1
1532295757237,-1,-2,-1,0,2,1,-7,-4
1532295757242,0,-1,0,0,-2,1,3,-1
1532295757247,1,0,-2,-2,-4,1,-1,0
1532295757252,-1,0,2,1,2,-4,-3,0
1532295757257,-1,-1,-1,-1,1,2,4,1
1532295757262,1,-2,-2,1,1,-3,-2,2
1532295757267,-1,-1,0,-2,-1,2,2,0
1532295757272,-1,-2,-3,-3,-3,-2,-4,-2
1532295757277,-1,0,0,0,-4,-3,-2,-2
1532295757282,0,0,-2,-5,-3,-1,-2,-3
1532295757287,-2,-1,-1,0,-2,-3,-7,0
1532295757292,0,-1,-2,1,6,0,0,-1
1532295757297,1,0,0,0,0,2,4,-4
1532295757302,0,-1,-1,0,-4,-1,-1,-2
1532295757307,3,-1,-3,-1,-4,-2,-3,3
1532295757312,0,0,0,1,-3,0,1,0
1532295757317,-1,0,0,1,3,2,2,0
1532295757322,-1,0,0,1,-1,-3,-1,-2
1532295757327,-1,-1,-8,-4,1,-1,1,-1
1532295757332,0,-2,-2,-1,1,1,1,0
1532295757337,-1,-1,-2,0,-1,-3,-5,-2
1532295757342,-3,-3,1,-1,2,-3,-1,-2
1532295757347,-1,-2,0,-4,-9,-2,0,-1
1532295757352,1,-1,-10,-6,-2,1,3,1
1532295757357,0,-2,6,3,0,0,-3,-2
1532295757362,1,2,1,4,6,0,1,3
1532295757367,-1,-3,1,1,-2,-1,-2,-1
1532295757372,0,0,4,3,3,2,0,-1
1532295757377,-1,-1,-6,-3,-2,-1,-1,0
1532295757382,0,0,-2,-3,-5,-1,0,3
1532295757387,0,1,4,5,12,2,1,0
1532295757392,1,0,1,2,1,-2,-9,-2
1532295757397,0,0,-1,-7,-8,-6,2,-1
1532295757402,-1,-2,-9,-7,-7,-1,-1,-1
1532295757407,-1,-1,0,-1,-3,-1,2,0
1532295757412,-1,-1,3,7,5,2,-7,-4
1532295757417,1,-2,0,2,4,2,4,3
1532295757422,-1,-1,-1,-3,-5,-3,-3,2
1532295757427,-3,1,-2,-4,-6,-4,-4,-4
1532295757432,-2,-1,0,-2,2,1,4,2
1532295757437,0,-1,-1,0,-1,0,-3,-2
1532295757442,1,0,2,2,7,3,1,-4
1532295757447,1,0,0,3,3,1,1,-3
1532295757452,-2,0,0,-2,-2,-3,-2,-5
1532295757457,-2,-2,-4,-8,-8,-6,-2,-1
1532295757462,-1,-2,1,1,-3,2,7,-4
1532295757467,1,1,-1,-2,2,1,-2,3
1532295757472,-1,0,-1,-1,1,0,4,1
1532295757477,-2,-3,-3,-2,0,-1,-3,-3
1532295757482,-3,-5,-2,-2,-1,-2,-5,-4
1532295757487,1,5,6,3,-2,-1,4,3
1532295757492,2,1,-1,-2,-4,-4,-5,4
1532295757497,-1,-2,-3,-4,1,-6,-2,1
1532295757502,1,-2,-3,-2,-3,1,-5,0
1532295757507,-3,-3,-2,1,5,2,0,-3
1532295757512,0,-2,-1,0,-3,4,6,3
1532295757517,-3,0,-1,1,1,-2,-9,-7
1532295757522,0,-1,1,-1,0,0,7,-1
1532295757527,-2,-2,-2,-4,-2,-3,-4,-4
1532295757532,-1,-3,-2,-2,-5,-4,-2,-4
1532295757537,-1,-2,1,2,2,3,10,1
1532295757542,0,1,2,4,5,-2,-14,-1
1532295757547,0,-1,-1,-1,0,-1,2,1
1532295757552,-2,-2,-3,-4,-9,-6,4,-1
1532295757557,-3,0,-2,-4,-3,-2,-6,-7
1532295757562,-3,-1,-1,0,-6,-2,-1,2
1532295757567,-2,-1,0,1,2,0,-5,-1
1532295757572,0,-1,0,-1,2,2,-1,-5
1532295757577,1,1,0,0,-9,1,2,-3
1532295757582,2,1,0,2,4,4,3,6
1532295757587,-1,0,1,1,1,4,-2,-2
1532295757592,-2,1,-1,-2,2,-2,4,-4
1532295757597,-1,-2,-3,-2,-2,1,-3,-4
1532295757602,-1,0,2,3,2,0,-10,-5
1532295757607,1,-1,1,4,4,3,13,3
1532295757612,-1,-1,-1,-3,-4,-8,5,-6
1532295757617,-2,0,-3,-7,-6,-14,-17,-12
1532295757622,-3,0,-1,1,-3,-2,-3,-6
1532295757627,-2,1,1,1,2,-2,-5,-4
1532295757632,0,-2,1,1,3,4,2,-5
1532295757637,0,-1,-3,-5,-5,-3,2,5
1532295757642,0,-2,0,-1,0,-1,3,1
1532295757647,-1,-1,-2,-5,-1,-2,-2,-2
1532295757652,-1,-2,1,1,-1,5,-3,2
1532295757657,1,0,0,2,0,-3,1,4
1532295757662,-2,-1,-1,-3,1,1,-4,0
1532295757667,0,0,-2,-4,-7,-5,4,4
1532295757672,-2,0,1,0,1,0,0,-9
1532295757677,2,-1,-1,-1,3,5,3,7
1532295757682,2,1,0,3,1,-1,1,0
1532295757687,-1,0,0,2,-3,0,-3,-8
1532295757692,1,-1,-3,-3,1,0,-5,4
1532295757697,-1,0,2,4,1,0,0,-5
1532295757702,0,-1,-1,-5,-4,-3,2,-5
1532295757707,1,-2,-4,-7,-4,0,-3,0
1532295757712,-3,-1,0,-1,-4,-5,-5,-10
1532295757717,0,-1,1,6,5,1,-2,0
1532295757722,0,-2,-1,0,-1,-5,-3,2
1532295757727,1,-2,-3,-5,-2,-1,0,4
1532295757732,0,0,0,1,-4,4,3,1
1532295757737,-1,1,0,-3,0,-6,-8,-6
1532295757742,-2,-1,2,4,1,1,3,-4
1532295757747,-1,-1,-1,1,5,-2,-6,-1
1532295757752,-1,0,-1,-2,0,-1,11,0
1532295757757,-2,-3,1,-2,-9,2,4,0
1532295757762,-1,-2,-1,0,1,3,-2,2
1532295757767,1,0,1,2,5,1,4,0
1532295757772,0,-2,-3,-4,-5,-9,-5,-2
1532295757777,-2,-2,-4,-7,-5,-1,-5,-3
1532295757782,-1,-3,-3,-8,-12,-2,-1,-4
1532295757787,0,-1,0,1,3,3,2,-2
1532295757792,1,1,0,4,3,-3,-5,-4
1532295757797,-2,0,-1,1,-3,-3,4,-12
1532295757802,0,-2,-1,2,0,-3,-13,-3
1532295757807,-2,0,0,-2,-3,-2,-4,-10
1532295757812,1,-1,-3,-3,-1,1,2,-6
1532295757817,-3,-1,0,-1,-4,-4,-8,-22
1532295757822,3,-1,-1,0,6,10,7,-7
1532295757827,-1,-1,0,4,3,0,-5,-10
1532295757832,-1,-2,-3,-2,-5,0,8,-2
1532295757837,1,-1,-2,-3,-1,2,-1,5
1532295757842,-4,-1,0,-1,0,-8,2,6
1532295757847,-1,0,0,1,0,0,-1,5
1532295757852,1,-1,0,0,-2,5,-2,1
1532295757857,0,0,-2,-4,-2,-4,-3,-1
1532295757862,4,0,-2,-2,2,4,8,0
1532295757867,1,1,-1,-1,-3,-2,-2,-6
1532295757872,-2,-1,1,1,3,0,-4,-9
1532295757877,0,0,1,0,2,7,9,-1
1532295757882,-1,-1,0,3,3,-3,-7,-2
1532295757887,-2,-2,-4,-6,-6,-2,3,-14
1532295757892,-1,-1,-4,-5,-6,-4,-5,-9
1532295757897,-1,-2,-1,1,6,0,0,-8
1532295757902,-1,0,4,7,8,4,0,-10
1532295757907,0,-1,-5,-7,-10,-7,-6,-2
1532295757912,-2,-2,-1,-4,-6,-2,-3,1
1532295757917,2,-1,-1,-2,0,5,6,8
1532295757922,-2,-2,-2,-4,-4,1,3,-10
1532295757927,1,1,5,8,10,6,0,5
1532295757932,0,0,2,4,10,4,-1,-10
1532295757937,-2,-2,-4,-6,-15,-10,-1,0
1532295757942,-2,-1,-2,-3,-2,1,0,-2
1532295757947,0,-2,-2,-4,3,3,6,7
1532295757952,0,-2,0,-3,-3,-2,-9,9
1532295757957,-1,0,4,8,9,4,2,11
1532295757962,-1,0,-4,-6,-6,2,1,11
1532295757967,0,-1,-4,-3,-8,-10,-2,17
1532295757972,-4,0,-3,-6,-3,-3,-3,16
1532295757977,-1,-1,-1,1,-1,-1,3,11
1532295757982,-1,0,-1,2,0,0,-5,12
1532295757987,0,1,0,2,3,5,-12,10
1532295757992,2,0,2,4,2,3,18,12
1532295757997,2,0,0,5,4,0,-4,7
1532295758002,-3,-3,-8,-9,-11,-9,6,10
1532295758007,-1,-3,-3,-5,6,1,-5,2
1532295758012,1,-1,-1,1,-7,-2,-3,10
1532295758017,-1,0,0,0,-1,3,0,9
1532295758022,0,0,3,4,8,7,-4,9
1532295758027,-2,-2,0,-1,-8,-18,-4,8
1532295758032,0,-1,-1,-2,3,14,2,15
1532295758037,-1,-1,-1,0,2,-3,-4,7
1532295758042,2,0,-2,-1,3,2,-16,9
1532295758047,-2,-2,-1,-1,-11,-15,12,8
1532295758052,-1,-2,0,2,3,-5,-3,7
1532295758057,-1,0,0,-3,-4,-1,-4,7
1532295758062,-2,-3,-1,-2,-5,-2,-1,-2
1532295758067,0,-1,1,-1,1,8,0,6
1532295758072,0,0,0,3,5,-2,4,5
1532295758077,0,0,-1,-2,-1,1,6,3
1532295758082,0,0,-3,-6,-10,-7,5,-1
1532295758087,-1,-1,1,1,-2,6,-8,1
1532295758092,-1,0,-1,-1,1,-15,1,-2
1532295758097,0,1,0,1,10,24,-4,-1
1532295758102,0,-1,3,2,-5,-12,4,-4
1532295758107,0,-1,-1,-1,-2,2,-3,2
1532295758112,-3,-2,-3,-9,-6,-4,-1,-7
1532295758117,-1,-2,-2,-4,-12,-18,-9,-2
1532295758122,-2,0,-3,1,4,5,-6,-2
1532295758127,1,1,0,4,5,8,11,1
1532295758132,0,0,0,2,1,-4,-7,2
1532295758137,-2,-2,-5,-2,2,3,3,-3
1532295758142,-1,-1,0,-1,-3,0,2,10
1532295758147,-3,-1,-1,-3,-1,-6,-3,-1
1532295758152,0,0,-2,0,-2,2,-2,0
1532295758157,0,-2,1,-1,-4,-5,-6,-3
1532295758162,0,-2,0,1,1,-2,5,-7
1532295758167,0,-1,1,3,3,-1,2,-5
1532295758172,1,-1,-4,-9,-8,3,4,0
1532295758177,1,-2,-2,-5,-7,-6,-6,2
1532295758182,-1,-2,-1,-3,-4,-5,-1,4
1532295758187,-1,-1,0,0,3,2,4,-6
1532295758192,-1,0,3,5,4,7,0,-3
1532295758197,-3,-3,-1,4,4,-2,0,-9
1532295758202,-1,0,-1,-3,-4,-1,-1,-4
1532295758207,0,0,-1,-3,-4,1,3,-7
1532295758212,0,-1,10,2,0,-2,-14,-9
1532295758217,0,3,-11,-3,-1,-4,1,3
1532295758222,1,-8,5,0,3,1,-1,5
1532295758227,-1,-2,1,1,0,0,0,1
1532295758232,-2,-2,-1,-2,-4,-2,2,1
1532295758237,-2,-1,6,1,0,0,1,3
1532295758242,0,3,-7,-1,-1,3,-1,-1
1532295758247,-1,1,4,-4,0,-2,-2,-1
1532295758252,-1,-3,-2,-3,-5,-5,-4,8
1532295758257,-2,1,1,-1,0,-1,-2,13
1532295758262,-1,1,-3,4,1,3,6,10
1532295758267,-2,-3,-2,-3,-4,-2,-11,0
1532295758272,-1,-1,-4,-2,-2,-3,4,-10
1532295758277,0,-1,1,-1,2,0,5,-8
1532295758282,0,-1,-1,-2,0,-1,-1,-1
1532295758287,-1,-1,-4,1,-6,-4,-2,-1
1532295758292,-1,-1,-1,-2,-1,1,-3,-3
1532295758297,-2,-3,-2,-1,-2,-4,-2,44
1532295758302,0,-2,0,2,4,5,2,18
1532295758307,-1,1,-2,3,4,0,-6,4
1532295758312,-2,1,-2,0,0,-1,6,3
1532295758317,1,-2,1,-1,-1,-1,4,-33
1532295758322,-3,2,-1,-2,2,0,-6,-26
1532295758327,1,0,-4,-5,-4,-1,2,4
1532295758332,-1,-1,-2,1,0,0,-3,21
1532295758337,0,-2,1,-1,-1,1,-1,16
1532295758342,-1,0,1,0,3,-3,-7,21
1532295758347,-1,-1,-1,0,1,-2,2,-4
1532295758352,0,-1,-3,-1,1,2,5,-4
1532295758357,0,2,-2,-4,-5,0,-1,16
1532295758362,-4,-1,-1,-1,-4,-1,3,15
1532295758367,-1,-1,0,1,3,6,6,34
1532295758372,1,-1,-2,-1,-5,-2,-1,-16
1532295758377,-1,-2,-3,-3,2,-1,0,-3
1532295758382,1,-2,0,2,-3,1,1,-28
1532295758387,0,-2,0,2,2,1,0,-51
1532295758392,-1,0,-4,0,0,-3,-3,-88
1532295758397,-1,-2,2,1,-2,1,5,-84
1532295758402,-1,-2,2,0,-2,-2,1,-63
1532295758407,-1,-2,-7,-3,-4,-3,-2,-57
1532295758412,1,-1,3,-1,-1,3,4,-46
1532295758417,1,-1,-1,3,1,-1,-3,-28
1532295758422,0,2,2,0,0,-2,2,-33
1532295758427,-1,-2,-2,-8,-2,0,3,-23
1532295758432,-2,-2,-2,-5,-6,-4,-12,-10
1532295758437,0,0,-1,0,0,1,4,-2
1532295758442,-1,-2,0,1,0,-3,-8,0
1532295758447,0,-1,1,3,3,-2,-1,44
1532295758452,-1,-1,-2,-1,3,1,3,26
1532295758457,-1,-1,-1,-2,-3,1,-7,15
1532295758462,-1,-3,0,-1,0,0,-3,-2
1532295758467,-1,1,-7,0,0,-1,0,-2
1532295758472,-2,-2,-1,-2,-2,-2,2,-9
1532295758477,-1,-1,3,2,-1,1,2,-32
1532295758482,1,-3,-5,-4,2,1,4,-25
1532295758487,0,-1,6,2,-3,-3,-5,-8
1532295758492,-1,0,1,3,-3,-1,5,-6
1532295758497,0,-1,-3,-1,-1,-1,-1,-12
1532295758502,0,-1,-8,-6,4,-3,-3,-16
1532295758507,-2,-3,4,-7,-14,0,0,7
1532295758512,1,-2,-2,1,3,1,-5,26
1532295758517,-1,0,-1,-1,-5,2,2,37
1532295758522,-2,1,3,2,-1,-6,-7,87
1532295758527,-1,0,-2,3,5,0,-3,59
1532295758532,-2,1,-2,0,-4,-4,-3,27
1532295758537,-2,-1,0,-1,0,2,4,-21
1532295758542,2,-1,-1,-1,-1,3,1,-40
1532295758547,0,0,-3,-1,1,-1,2,-62
1532295758552,0,-1,1,1,0,-1,2,-66
1532295758557,0,-2,-1,0,0,-6,-2,-62
1532295758562,-2,1,-2,-2,-5,-1,2,-53
1532295758567,0,1,1,1,-4,-4,0,-33
1532295758572,0,-1,2,-2,5,3,-1,-20
1532295758577,-1,-1,0,1,2,3,4,14
1532295758582,-2,0,-1,-1,-5,-10,-11,9
1532295758587,-1,-1,6,1,0,-2,6,16
1532295758592,-1,-3,-12,-6,-1,1,2,26
1532295758597,-2,-1,-1,-3,-2,-2,-6,28
1532295758602,-1,-2,-1,-2,-2,2,0,14
1532295758607,0,0,1,4,5,4,-1,10
1532295758612,1,1,4,3,2,-2,1,9
1532295758617,-1,-2,-3,-6,-7,-7,-15,0
1532295758622,0,0,-1,-3,-2,4,1,-13
1532295758627,-1,0,-4,-3,-4,-3,-5,-9
1532295758632,-2,0,2,1,2,4,7,-6
1532295758637,0,1,2,4,1,-2,0,-6
1532295758642,-2,-4,-5,2,3,-2,3,-7
1532295758647,-2,-2,-2,-1,4,3,-3,-2
1532295758652,-1,-1,-2,-4,-12,-7,-3,3
1532295758657,-1,0,-1,-2,-1,0,-1,16
1532295758662,-1,-2,0,2,4,1,1,24
1532295758667,-1,-3,4,2,-1,-5,-10,35
1532295758672,-1,2,-4,0,0,0,0,30
1532295758677,0,-1,-5,-2,-7,4,4,28
1532295758682,-3,0,0,-6,4,-6,-5,22
1532295758687,-1,-1,-3,-6,-9,-6,-17,-13
1532295758692,-1,-1,5,3,5,6,24,-35
1532295758697,-1,-1,0,3,3,-2,2,-47
1532295758702,0,-1,-1,0,-3,0,-2,-37
1532295758707,0,0,0,0,0,10,24,-22
1532295758712,0,-3,-2,-5,-6,-11,-26,-18
1532295758717,0,0,-1,-1,1,0,-1,-7
1532295758722,0,-2,1,1,1,2,7,-2
1532295758727,-1,1,-3,3,3,2,4,3
1532295758732,-1,-1,0,0,-1,1,-6,2
1532295758737,0,1,-1,-5,-5,-5,-3,4
1532295758742,-1,-2,-1,4,1,0,-8,6
1532295758747,0,0,1,0,-2,1,-3,8
1532295758752,-2,0,-3,-6,-1,-1,-1,17
1532295758757,-3,0,-2,-5,-8,1,-3,16
1532295758762,-1,-2,-2,0,-2,-5,0,15
1532295758767,0,-1,0,2,2,-2,-5,10
1532295758772,-1,-1,1,-1,1,0,-3,4
1532295758777,-1,-2,-2,-1,0,-1,1,5
1532295758782,-1,-1,0,-1,-3,8,5,3
1532295758787,0,-1,-1,0,-1,-6,-1,-1
1532295758792,0,2,1,0,-2,-2,-3,-9
1532295758797,0,-2,-1,1,2,-2,-4,-18
1532295758802,0,1,-1,-1,1,1,-2,-15
1532295758807,0,0,-1,-2,1,1,13,-6
1532295758812,0,-1,6,3,-2,1,3,0
1532295758817,-1,-2,-7,-2,-5,-4,-7,0
1532295758822,-1,-2,-2,-5,2,-3,-1,-1
1532295758827,1,-1,-4,-5,-13,-3,-3,-1
1532295758832,-1,1,2,-2,0,-1,-2,-3
1532295758837,0,-2,1,4,-1,1,0,5
1532295758842,-1,-1,-2,0,0,-2,-3,-3
1532295758847,-2,-1,-1,-4,1,4,6,0
1532295758852,0,-1,-3,-1,-2,-4,-8,-1
1532295758857,1,0,3,0,2,-1,1,-4
1532295758862,-1,-1,0,0,-4,3,6,-6
1532295758867,-3,-1,0,1,1,-3,-4,-8
1532295758872,-2,-2,-2,-2,-2,2,2,-2
1532295758877,-1,1,1,-1,3,5,-2,-4
1532295758882,0,0,1,0,1,-9,-8,-2
1532295758887,1,-2,-1,-1,-2,-1,1,-2
1532295758892,-2,0,0,2,3,4,5,-1
1532295758897,-3,-2,1,2,-1,-7,-11,2
1532295758902,2,-1,-8,-9,-9,-1,-1,4
1532295758907,-2,0,5,-2,-3,2,-1,-1
1532295758912,-3,-1,0,-2,-3,-3,-12,4
1532295758917,-2,0,2,1,2,1,3,5
1532295758922,0,1,3,3,2,2,0,4
1532295758927,3,-1,-1,1,2,-2,-2,6
1532295758932,1,-4,-2,3,0,2,6,-1
1532295758937,-6,-1,-3,-3,-2,-6,-8,-3
1532295758942,1,1,-1,-3,-2,-4,1,-7
1532295758947,-4,-1,-25,-4,0,1,0,-8
1532295758952,-5,-8,20,1,-2,1,-1,-10
1532295758957,8,3,-5,0,2,1,4,4
1532295758962,2,2,4,2,-1,2,6,-1
1532295758967,-1,2,0,0,1,-8,-1,-1
1532295758972,0,5,-18,-3,-1,1,0,0
1532295758977,-1,2,2,-2,-2,7,15,1
1532295758982,12,0,-1,0,2,-5,-1,6
1532295758987,-19,-1,9,0,1,-2,-10,0
1532295758992,-1,-1,-6,-1,-2,-4,-4,9
1532295758997,-2,-3,-3,-3,-3,3,7,9
1532295759002,4,1,1,-1,0,9,1,13
1532295759007,6,1,2,1,3,4,3,12
1532295759012,1,-1,-3,-5,-5,-15,-5,4
1532295759017,-5,-4,-19,0,0,-2,-2,-2
1532295759022,-6,-4,21,-1,-3,-1,-2,-8
1532295759027,1,-2,4,2,0,0,0,-8
1532295759032,0,0,4,-1,0,16,14,-4
1532295759037,7,0,-3,2,4,-7,-15,-11
1532295759042,-6,-2,-12,-3,-8,-18,-9,-7
1532295759047,2,-1,1,-7,-3,1,8,-6
1532295759052,5,-4,-1,-1,0,2,-6,-3
1532295759057,-5,-21,3,1,2,16,11,-3
1532295759062,1,6,3,4,5,-2,-9,0
1532295759067,3,9,21,6,2,-17,-19,-2
1532295759072,-16,-7,-20,-3,-4,-9,15,0
1532295759077,7,-7,0,-11,-5,9,-8,-5
1532295759082,-17,-12,10,0,0,-23,-11,-13
1532295759087,15,9,-9,0,-4,7,6,2
1532295759092,2,3,9,3,2,-5,-3,2
1532295759097,-1,8,-5,-5,-1,-14,2,7
1532295759102,5,0,-14,-5,0,32,14,9
1532295759107,-12,-4,5,7,2,-16,-8,8
1532295759112,3,0,6,2,1,-6,-9,3
1532295759117,-2,4,-11,-3,-5,-1,4,0
1532295759122,-7,-4,0,-1,-2,3,2,-11
1532295759127,-2,-7,-6,-5,-1,6,-1,2
1532295759132,2,1,-1,-1,1,-17,-5,-3
1532295759137,-1,2,8,2,1,27,8,-10
1532295759142,-4,4,-4,1,0,-9,-8,-18
1532295759147,4,-5,-3,-2,0,8,4,3
1532295759152,11,-3,-22,-2,0,3,1,-3
1532295759157,10,9,44,9,-2,-9,-1,-4
1532295759162,-19,-10,-34,-11,0,-14,-3,-14
1532295759167,-4,-6,-6,-5,4,22,14,7
1532295759172,-10,-1,7,-5,-13,-4,-5,5
1532295759177,-22,-9,-10,2,3,-11,-14,-12
1532295759182,50,19,8,9,2,9,6,4
1532295759187,-5,-1,0,6,-1,-14,-9,-1
1532295759192,4,0,-4,-6,5,30,9,2
1532295759197,-16,-9,-3,-4,-8,-32,-15,1
1532295759202,-15,-7,5,0,-5,3,18,12
1532295759207,5,-3,-6,-5,-1,14,-15,-6
1532295759212,6,6,5,5,3,-12,-1,-2
1532295759217,-2,2,-6,-3,-1,-8,-2,-4
1532295759222,-1,1,-4,-3,2,1,-1,3
1532295759227,1,-5,1,1,-4,-2,9,5
1532295759232,-6,-1,3,-2,1,20,2,-3
1532295759237,7,2,-5,-4,-3,-13,-8,4
1532295759242,-3,-3,2,2,2,-10,1,2
1532295759247,-1,-3,-4,-5,-8,9,5,-6
1532295759252,-9,-10,-3,2,4,5,-5,-10
1532295759257,5,-1,-3,-3,-4,-14,-3,0
1532295759262,3,6,6,0,-4,7,-1,12
1532295759267,3,2,4,-5,-3,-1,-9,-5
1532295759272,0,7,-9,-1,-3,-6,6,-5
1532295759277,-16,-2,-2,1,3,-2,3,6
1532295759282,-6,-11,1,2,2,8,-6,4
1532295759287,1,0,-1,0,0,-30,-7,-1
1532295759292,0,4,2,1,5,12,8,2
1532295759297,10,-11,-4,-3,-3,11,3,2
1532295759302,-12,-8,-1,-1,0,6,-1,1
1532295759307,-5,10,-5,-1,-1,-7,-2,-3
1532295759312,3,-1,3,4,-2,-14,-33,1
1532295759317,6,5,-4,-2,8,12,38,0
1532295759322,-1,-2,-1,-7,-9,-4,-5,1
1532295759327,-4,-7,-3,-3,-5,-11,-3,-16
1532295759332,-2,-2,1,-3,1,3,4,4
1532295759337,-1,5,3,2,-16,-14,-21,-1
1532295759342,4,2,17,6,13,21,18,3
1532295759347,-2,-1,-5,-3,-5,-2,5,1
1532295759352,-1,0,1,-5,-4,20,-3,-6
1532295759357,-2,-2,1,-3,0,-8,-5,1
1532295759362,-1,0,-1,4,0,-11,0,1
1532295759367,1,-2,1,1,-5,-47,-39,0
1532295759372,2,0,1,-3,4,50,79,5
1532295759377,-3,0,-5,1,3,15,-7,0
1532295759382,5,8,-7,-3,-2,8,11,-2
1532295759387,-34,-44,-3,0,5,26,-11,-3
1532295759392,6,7,0,1,-9,-95,-49,-7
1532295759397,15,11,-5,0,2,2,-12,-3
1532295759402,-1,-7,-6,-2,-3,-19,5,-2
1532295759407,23,12,6,3,5,64,19,2
1532295759412,-27,-17,-2,-1,-3,-25,-30,2
1532295759417,-3,-4,-17,4,1,1,11,-1
1532295759422,-9,3,9,-10,-15,-18,-23,-1
1532295759427,-30,6,-18,-1,0,3,-6,12
1532295759432,73,5,11,6,7,8,23,15
1532295759437,-13,-2,-4,-2,13,6,13,3
1532295759442,0,-4,-6,-2,-12,13,-2,-2
1532295759447,-21,-9,4,0,-8,-13,7,-21
1532295759452,12,3,-6,-2,-3,18,0,10
1532295759457,-3,-1,9,0,0,-5,-12,1
1532295759462,7,-4,-3,1,9,2,-5,-3
1532295759467,-11,3,3,-4,-9,-46,-7,-9
1532295759472,12,2,0,3,6,33,13,-7
1532295759477,-13,-1,4,1,-4,10,3,-27
1532295759482,-14,-4,-7,-6,4,2,-6,27
1532295759487,29,11,-2,-9,-2,3,5,10
1532295759492,-17,0,-2,-4,-13,-8,-1,-9
1532295759497,3,1,3,-1,-4,-7,-7,3
1532295759502,3,-3,-5,-3,2,-12,8,-12
1532295759507,-1,-2,1,0,-5,-36,-11,3
1532295759512,-18,-3,2,3,2,37,7,-4
1532295759517,6,2,2,1,-2,12,-1,2
1532295759522,-3,1,-4,1,11,0,-7,1
1532295759527,16,2,0,-3,-13,21,18,7
1532295759532,-20,-3,-1,-2,10,-47,-21,-10
1532295759537,5,-1,-1,-4,-1,5,-9,1
1532295759542,4,1,6,3,-9,-9,9,4
1532295759547,0,0,-7,2,3,-9,31,-7
1532295759552,-8,-1,-1,4,-1,35,1,-1
1532295759557,-3,-5,-1,-5,8,-12,-12,5
1532295759562,-4,-3,-7,-10,-6,-12,-9,-10
1532295759567,4,3,6,1,13,48,25,3
1532295759572,0,6,0,-2,-21,-31,-11,4
1532295759577,1,2,8,0,3,-2,-4,1
1532295759582,1,-4,5,7,4,14,-2,-4
1532295759587,0,-2,-4,-4,-11,-14,-24,-10
1532295759592,-18,-6,-1,-2,7,-1,33,4
1532295759597,9,3,-2,1,-8,13,5,7
1532295759602,4,6,-3,1,14,20,21,-3
1532295759607,-8,3,2,-1,-4,-16,-20,3
1532295759612,2,2,1,3,2,-18,-23,-1
1532295759617,-1,-2,-1,-1,0,-12,3,-2
1532295759622,-2,1,-2,-3,5,3,14,1
1532295759627,1,-3,-5,-4,-10,45,9,2
1532295759632,-6,-3,-4,-3,3,-17,-8,-4
1532295759637,-3,-2,-1,-5,-14,-2,-20,0
1532295759642,4,3,0,6,2,-14,-7,1
1532295759647,2,0,-2,4,26,-9,-3,0
1532295759652,-1,-1,0,-8,-3,1,-3,0
1532295759657,2,-4,-1,-6,-12,-5,3,1
1532295759662,1,-1,-2,1,-2,-17,-14,-6
1532295759667,2,2,5,5,1,15,16,-1
1532295759672,-6,-2,-4,0,6,18,15,0
1532295759677,2,-4,-2,-6,1,-24,-17,1
1532295759682,5,0,1,-3,-9,0,7,-4
1532295759687,7,0,-5,-3,-9,-11,-5,-1
1532295759692,-7,-2,1,-1,1,-19,2,-6
1532295759697,-4,0,-3,2,4,50,32,-6
1532295759702,-6,-2,0,1,-6,-1,-14,-4
1532295759707,9,4,5,1,0,-8,0,9
1532295759712,-3,-2,0,0,12,-2,-21,-2
1532295759717,-4,-3,-5,-2,-4,-2,-16,2
1532295759722,-3,-1,-1,-3,0,-6,-16,-3
1532295759727,2,0,-9,-3,7,-5,5,1
1532295759732,-3,-1,6,-1,-6,-5,-11,-6
1532295759737,-5,-1,3,2,0,-1,4,1
1532295759742,1,-1,-5,-6,0,7,-8,-1
1532295759747,-3,-1,1,-1,-6,-6,5,-4
1532295759752,-6,-1,-1,2,-2,-7,-5,0
1532295759757,6,0,-1,-1,4,9,12,1
1532295759762,-1,-1,-1,-2,19,6,-10,2
1532295759767,0,-1,1,-6,-25,-33,-15,-2
1532295759772,1,1,-3,0,8,21,-7,-5
1532295759777,0,-1,3,-2,-8,7,27,3
1532295759782,-3,-2,-6,-1,-8,-9,-26,-2
1532295759787,-2,1,0,9,15,4,-5,2
1532295759792,0,-1,-2,-2,1,-2,-1,3
1532295759797,-3,-3,-4,-6,-2,-22,10,-2
1532295759802,4,-3,0,-2,-13,17,-5,-3
1532295759807,3,0,3,-3,7,9,8,1
1532295759812,-5,-2,-2,-1,-11,-12,-4,-4
1532295759817,-3,-1,0,5,2,8,-21,-3
1532295759822,-2,-3,-2,-2,-5,-18,4,-4
1532295759827,2,-2,-3,-7,7,7,9,1
1532295759832,0,1,-2,-6,-11,4,4,2
1532295759837,-8,-2,-4,-4,4,-4,3,1
1532295759842,1,2,3,4,-8,-2,-2,-1
1532295759847,1,-1,2,6,11,7,-6,-3
1532295759852,2,-1,0,-3,-1,-1,-9,0
1532295759857,1,1,1,1,5,12,18,6
1532295759862,-1,-2,-5,-3,-7,-5,20,1
1532295759867,8,1,-3,0,10,9,-4,6
1532295759872,-10,-3,-2,2,-4,-15,-11,-1
1532295759877,-12,-5,-15,2,2,7,0,-7
1532295759882,-1,2,9,0,-6,-4,-14,-3
1532295759887,0,0,-1,-2,0,-2,7,-5
1532295759892,5,-2,-2,-8,-4,3,11,-3
1532295759897,5,1,-1,-1,-5,1,-13,3
1532295759902,-5,-1,0,3,14,-6,-7,2
1532295759907,-5,-2,-11,-2,-16,0,0,-2
1532295759912,2,3,5,0,-2,-8,-10,1
1532295759917,2,1,3,1,0,3,13,0
1532295759922,1,-2,-7,-4,14,0,-13,-6
1532295759927,-4,1,2,-1,-14,-5,-4,-1
1532295759932,-1,-2,-5,4,13,-4,4,-3
1532295759937,3,-1,-1,-5,-8,1,0,1
1532295759942,-5,-2,-1,2,2,1,0,-1
1532295759947,-4,0,1,1,11,7,2,-5
1532295759952,3,0,-1,-4,-9,-21,-6,0
1532295759957,7,0,3,-1,6,-18,-8,-6
1532295759962,-1,0,-3,1,-6,25,4,1
1532295759967,-7,-4,4,1,2,0,14,3
1532295759972,0,-2,-2,-1,0,2,2,1
1532295759977,5,-1,-2,-1,-3,-4,-2,2
1532295759982,1,2,-2,-2,6,-9,10,2
1532295759987,-7,-3,-3,-7,-1,-8,-30,-5
1532295759992,-1,0,2,3,-5,8,16,-3
1532295759997,3,2,0,0,1,-2,-13,4
1532295760002,-1,-3,8,-2,-11,-13,-7,-4
1532295760007,1,0,3,5,15,20,8,2
1532295760012,-1,-2,-3,-8,-5,2,9,2
1532295760017,-6,-3,6,0,-6,-1,-8,-4
1532295760022,4,2,-6,-4,-2,-5,11,2
1532295760027,2,-2,-1,1,-7,-14,-25,-1
1532295760032,-8,-2,3,2,10,13,0,1
1532295760037,-1,-5,-9,-1,-2,6,3,-2
1532295760042,1,2,0,-1,-1,-3,-8,4
1532295760047,-9,-4,2,-2,-6,-6,14,-3
1532295760052,4,0,-4,-2,0,3,-3,-2
1532295760057,-5,-1,0,0,-1,-4,-9,-3
1532295760062,1,0,-2,2,10,-5,-2,-5
1532295760067,6,2,3,1,-6,0,10,4
1532295760072,-6,-2,-2,0,-11,-16,6,-2
1532295760077,3,-1,0,1,13,23,9,2
1532295760082,-1,-2,-2,-9,-18,-2,-14,-2
1532295760087,-3,-2,0,2,-3,-12,14,-3
1532295760092,-1,1,0,1,6,9,5,-2
1532295760097,-2,-1,0,-3,-8,-3,-2,-3
1532295760102,0,-1,0,7,4,-2,1,-2
1532295760107,1,-1,-10,-7,9,12,-1,1
1532295760112,2,0,-2,-1,-7,-18,2,-4
1532295760117,-2,0,1,-4,-10,-6,-2,1
1532295760122,-3,-3,-3,1,0,6,13,0
1532295760127,2,1,-2,1,-8,-6,-8,1
1532295760132,-4,-1,-2,3,13,3,-9,2
1532295760137,-4,1,1,-3,4,-8,-5,-2
1532295760142,-2,-2,0,-1,-10,13,15,-2
1532295760147,4,0,1,4,7,1,-10,-1
1532295760152,3,-1,-3,-8,-8,-1,15,2
1532295760157,-4,0,-1,2,-2,-9,7,1
1532295760162,-4,0,1,3,9,12,-3,0
1532295760167,-5,-1,0,-5,-5,-2,-3,-7
1532295760172,1,1,1,2,5,3,12,3
1532295760177,-2,-1,-1,2,-5,-11,-5,-4
1532295760182,-3,-5,-5,-5,3,1,2,-4
1532295760187,5,2,2,-4,-11,-1,1,2
1532295760192,1,-1,0,1,0,1,-9,-1
1532295760197,1,3,-1,1,1,-9,-17,0
1532295760202,4,-1,3,-2,8,0,38,1
1532295760207,-6,-2,-6,-1,-6,7,-9,-2
1532295760212,-2,-3,1,-2,0,-5,-14,-3
1532295760217,2,-2,-1,3,-4,-1,14,0
1532295760222,-3,1,0,2,7,1,-12,3
1532295760227,-1,1,-2,-3,6,0,11,3
1532295760232,0,-5,-5,-8,-4,-5,-16,-3
1532295760237,-5,-2,0,-4,-13,11,-2,0
1532295760242,-5,0,-3,-1,-6,-15,-13,-4
1532295760247,0,-1,4,-2,-8,13,56,2
1532295760252,-1,3,-4,4,7,-5,-22,-1
1532295760257,-1,-1,-2,-1,5,3,-4,-3
1532295760262,-4,-1,-3,-5,-8,-9,-16,-3
1532295760267,1,-2,1,1,-1,-11,-6,-2
1532295760272,0,0,3,2,0,2,5,-1
1532295760277,0,-2,-5,-2,6,-30,9,-3
1532295760282,6,-1,-4,-6,-9,37,3,3
1532295760287,-5,0,2,2,2,-13,-41,-2
1532295760292,4,-1,-2,-5,-4,13,38,2
1532295760297,-1,-1,1,1,-2,4,-1,2
1532295760302,1,0,-1,4,13,-26,-19,-2
1532295760307,-3,0,1,1,-6,1,-14,-2
1532295760312,-5,-2,-5,-4,2,-1,3,-7
1532295760317,1,1,3,0,-9,5,0,0
1532295760322,-1,-2,-1,-4,-2,-7,-13,-1
1532295760327,3,-1,1,1,8,4,-11,0
1532295760332,-1,-1,1,4,4,-17,-4,2
1532295760337,-8,-2,-2,-2,9,44,29,-2
1532295760342,0,1,0,0,-10,-4,-5,0
1532295760347,1,-1,-2,-2,0,0,3,1
1532295760352,5,0,-2,-2,0,-5,-16,0
1532295760357,-5,1,2,-1,-2,-8,-25,-2
1532295760362,-1,-1,5,3,3,-2,27,-1
1532295760367,-2,-2,-4,2,4,-1,-6,-1
1532295760372,0,-1,-3,-1,-1,-1,-1,1
1532295760377,4,-2,-5,-11,-14,-6,0,1
1532295760382,-4,-2,2,-1,1,-8,-2,-2
1532295760387,3,0,-2,-2,-5,-3,-6,0
1532295760392,-5,0,4,4,9,7,11,-3
1532295760397,0,-1,-3,1,5,-4,-10,-1
1532295760402,-2,-2,-5,-3,-1,-30,1,0
1532295760407,0,-1,0,-2,-1,41,8,-1
1532295760412,-3,-1,-2,0,-4,-10,-22,-2
1532295760417,-2,0,2,2,-3,-8,-4,0
1532295760422,-3,-1,0,0,2,6,-1,-2
1532295760427,2,0,-7,-1,6,-10,-6,-1
1532295760432,0,-1,-3,-4,-9,7,10,-1
1532295760437,0,2,-1,2,-2,4,-9,4
1532295760442,-12,-5,0,-2,-1,-23,-23,-6
1532295760447,3,3,3,6,12,34,9,2
1532295760452,-1,-1,1,-3,-8,-3,0,0
1532295760457,5,-1,-4,-2,14,-9,6,0
1532295760462,-6,-3,-4,-7,-22,-9,-12,-2
1532295760467,-2,-1,1,-2,-2,8,11,0
1532295760472,0,0,-1,4,2,1,-19,-5
1532295760477,2,0,3,4,7,0,11,2
1532295760482,1,-2,-4,-3,-2,7,4,1
1532295760487,-2,-1,-2,-2,-4,-18,3,-4
1532295760492,1,-1,0,-2,-3,6,2,2
1532295760497,-2,0,-2,-2,-6,0,-8,-3
1532295760502,0,0,-2,3,13,-3,6,-1
1532295760507,-1,-3,1,-3,-12,4,-2,0
1532295760512,-4,2,7,4,0,7,11,2
1532295760517,-1,-1,-8,1,10,-11,3,-2
1532295760522,3,0,0,-1,-8,9,-3,1
1532295760527,-5,-2,-2,1,0,-7,-9,-1
1532295760532,-2,-1,0,1,11,2,-10,-2
1532295760537,-3,-2,3,-4,-10,-6,5,-1
1532295760542,2,1,-1,-4,-5,4,0,0
1532295760547,1,-2,0,3,1,-11,3,-2
1532295760552,3,2,-3,1,-2,1,29,7
1532295760557,-6,-1,0,-2,16,-15,-12,-5
1532295760562,-2,-1,2,5,-4,31,-10,-6
1532295760567,-2,-2,4,-7,-9,0,14,0
1532295760572,0,-3,-9,-4,7,-9,-16,-5
1532295760577,2,0,-1,-2,-9,-5,4,2
1532295760582,0,0,-1,-1,2,-12,6,1
1532295760587,-3,-1,2,3,3,9,-17,-1
1532295760592,0,-3,-1,-1,-6,1,11,-2
1532295760597,-3,-1,0,-2,-6,-9,1,2
1532295760602,4,2,2,5,6,10,-2,4
1532295760607,0,-1,-3,-2,2,-6,-15,-2
1532295760612,0,0,-1,-3,1,-1,6,-2
1532295760617,-1,-1,0,-4,-7,-1,-13,-3
1532295760622,-2,-1,-3,-2,-2,-6,8,0
1532295760627,8,1,-1,6,0,3,-9,3
1532295760632,-1,-1,-3,-2,11,-9,-14,-2
1532295760637,-1,-4,-4,-9,-17,8,34,-2
1532295760642,-5,-2,0,-6,-6,0,-6,-1
1532295760647,1,0,-1,-3,-1,-3,-2,1
1532295760652,-2,-1,1,2,-10,-13,-5,-2
1532295760657,3,2,2,10,9,23,-15,2
1532295760662,5,-1,-3,-2,10,-6,14,-1
1532295760667,-8,-1,-1,-4,-10,-5,0,0
1532295760672,-3,0,-2,-1,-5,3,-29,-6
1532295760677,2,0,-5,-3,-7,0,21,0
1532295760682,4,-1,-3,3,0,1,5,2
1532295760687,-3,-2,9,2,9,-13,2,1
1532295760692,-6,-3,6,-2,-3,19,6,-2
1532295760697,-3,-2,2,1,1,-3,-7,-5
1532295760702,0,1,-1,0,-1,-5,4,0
1532295760707,3,-1,-4,0,-3,-9,-2,-1
1532295760712,-2,-3,-5,0,10,-7,-12,2
1532295760717,-1,-1,2,-5,-16,-1,12,-1
1532295760722,2,-1,-3,-5,-4,-1,-10,-1
1532295760727,-2,1,-2,-2,2,-10,-9,-3
1532295760732,0,0,2,-2,-6,-2,6,-1
1532295760737,5,0,-7,3,5,10,-9,3
1532295760742,-11,-2,0,-2,-6,-11,-35,-5
1532295760747,-2,-3,-1,1,-4,10,22,1
1532295760752,4,0,-2,-1,1,6,6,-2
1532295760757,-1,-1,2,4,5,-9,-28,0
1532295760762,4,0,2,-1,-2,5,8,5
1532295760767,-2,-2,-2,-4,-1,-9,4,-5
1532295760772,-5,0,-4,-3,-2,2,8,0
1532295760777,0,-1,2,3,0,-24,-16,-1
1532295760782,-2,-2,-1,4,13,30,5,-1
1532295760787,-2,-2,-3,-5,-9,-2,1,2
1532295760792,3,0,0,-3,-10,-9,-14,3
1532295760797,-1,0,1,2,1,11,-3,-2
1532295760802,-2,-2,-2,1,4,-2,33,1
1532295760807,-2,-2,-14,-4,-1,-4,-5,-1
1532295760812,-1,0,19,-2,1,1,3,-4
1532295760817,-5,-1,5,-5,-6,-5,-18,-5
1532295760822,0,-1,1,2,-4,-8,-19,0
1532295760827,-1,0,5,3,11,13,4,-3
1532295760832,0,-1,-9,-1,-7,-9,14,2
1532295760837,1,-3,-4,1,1,-4,-10,0
1532295760842,1,0,12,1,3,-14,3,0
1532295760847,-3,0,-5,-1,7,-2,-7,-3
1532295760852,2,1,-4,0,-12,9,2,5
1532295760857,-5,-1,1,-4,5,-2,35,-2
1532295760862,0,-1,-6,1,-8,11,-6,-2
1532295760867,-1,-1,-3,-7,-6,-17,-22,-3
1532295760872,0,-1,1,3,3,2,8,2
1532295760877,-1,-1,-9,-3,0,0,-1,1
1532295760882,8,1,0,1,3,-11,-2,3
1532295760887,-3,-3,-14,3,-2,1,-9,-4
1532295760892,-3,0,11,-2,8,4,-24,-5
1532295760897,-1,-1,-3,-5,-11,9,54,5
1532295760902,-7,1,-1,1,2,-9,-11,-3
1532295760907,1,0,5,1,2,7,2,1
1532295760912,2,1,-14,1,0,-5,16,4
1532295760917,-2,-1,4,3,6,3,-32,0
1532295760922,-1,-3,-3,-3,2,7,28,-1
1532295760927,2,0,-5,-4,-13,5,-11,4
1532295760932,-5,-2,1,-2,-2,-28,-12,-4
1532295760937,0,0,6,5,4,22,11,0
1532295760942,2,1,6,-5,-5,-16,-8,0
1532295760947,-2,-3,-19,-9,-3,27,15,-1
1532295760952,-4,-3,-21,-2,-1,-4,-26,-2
1532295760957,0,0,16,-1,-7,-8,6,-4
1532295760962,4,0,1,6,3,1,5,0
1532295760967,-3,2,13,7,7,-1,5,1
1532295760972,1,1,-5,-3,5,3,-6,-2
1532295760977,3,0,-8,0,-1,-7,-26,0
1532295760982,-1,-2,1,-5,-6,10,51,0
1532295760987,-7,-1,1,-6,-7,-13,-5,-3
1532295760992,-2,-3,13,4,-6,11,13,-2
1532295760997,2,0,-15,1,1,-1,-5,1
1532295761002,-3,0,0,-1,4,-23,-7,-2
1532295761007,6,-1,2,2,2,30,8,4
1532295761012,-6,-3,-7,-6,0,-17,-24,-3
1532295761017,-1,-5,-10,-1,-7,17,21,0
1532295761022,-5,2,6,-6,-4,-7,-16,-4
1532295761027,0,0,4,0,7,-11,6,2
1532295761032,0,-5,0,4,-1,-3,-5,0
1532295761037,0,1,3,4,4,-3,-12,1
1532295761042,-3,-1,-11,-2,-7,7,8,-2
1532295761047,0,2,17,6,4,-8,-13,-2
1532295761052,4,2,-14,-4,4,4,5,0
1532295761057,-2,-5,-4,-9,-7,-13,-4,-4
1532295761062,2,-3,-8,-3,-7,0,-8,-2
1532295761067,-2,-6,-23,-14,-8,-6,-1,-5
1532295761072,-4,-1,9,1,6,0,-13,0
1532295761077,-1,-6,-8,-2,2,-5,0,4
1532295761082,8,5,2,1,-4,3,6,-1
1532295761087,-12,8,12,9,-1,-3,-3,-2
1532295761092,3,5,-15,-3,3,11,9,-1
1532295761097,-12,-1,5,-2,-4,-13,-12,-6
1532295761102,1,-4,-1,-3,-6,-27,-24,-2
1532295761107,3,-5,-13,-1,6,36,-4,-2
1532295761112,1,-6,10,-2,-4,-4,10,3
1532295761117,10,6,-11,-2,-5,-1,0,2
1532295761122,-14,1,15,-1,-2,-1,-6,0
1532295761127,0,-2,0,3,3,-14,-20,-2
1532295761132,0,-5,5,-3,0,7,19,2
1532295761137,3,-4,13,-1,-4,-2,-8,-1
1532295761142,-1,-3,-16,1,1,7,5,0
1532295761147,6,-1,-8,-3,-5,-11,-4,0
1532295761152,-2,-1,4,-2,-1,3,-1,2
1532295761157,1,3,-4,1,0,-3,5,2
1532295761162,-6,-2,-6,-6,3,4,-21,-1
1532295761167,0,2,13,6,-7,-1,21,0
1532295761172,7,18,-21,1,2,-3,9,0
1532295761177,-4,-15,-9,-6,-1,-2,5,-5
1532295761182,7,-40,-34,-9,-1,5,-27,3
1532295761187,-2,12,6,7,4,-9,28,2
1532295761192,-7,0,10,4,-1,2,-6,-12
1532295761197,2,8,6,1,-1,-2,-6,13
1532295761202,11,13,16,5,0,6,17,6
1532295761207,7,-5,-19,-10,1,-3,-2,-1
1532295761212,-2,-6,17,0,-2,-2,-6,-1
1532295761217,-5,2,0,3,0,4,6,-5
1532295761222,-6,2,3,-2,-4,0,4,-4
1532295761227,-1,-1,-6,-1,-5,-6,-9,-2
1532295761232,-2,1,0,0,1,0,-4,0
1532295761237,-1,-5,-6,-2,8,9,5,-8
1532295761242,-5,7,1,-2,-10,-22,-13,-1
1532295761247,-2,-3,4,0,0,28,4,-4
1532295761252,2,-2,-4,-2,-3,-32,-13,-5
1532295761257,-3,-2,-1,1,-1,2,-7,2
1532295761262,3,4,-2,1,11,-5,16,-7
1532295761267,-1,0,3,-5,-7,-4,-1,0
1532295761272,2,-5,-1,-1,-7,10,5,0
1532295761277,-8,0,-5,-2,-3,-3,-6,-14
1532295761282,-4,2,-1,0,-2,3,7,4
1532295761287,6,-4,1,-2,-1,-8,-9,3
1532295761292,-2,0,0,0,3,8,1,0
1532295761297,1,0,2,1,0,-11,2,-2
1532295761302,-3,2,6,4,3,16,6,-3
1532295761307,1,0,-10,-6,2,-8,-1,-2
1532295761312,7,1,-4,-5,-6,1,0,4
1532295761317,-19,-4,-9,-3,0,-1,-2,0
1532295761322,-1,1,18,1,-1,1,1,-1
1532295761327,-1,-3,1,0,-1,-10,-5,2
1532295761332,3,-1,-1,-1,0,6,15,8
1532295761337,-1,1,1,0,1,-2,-22,-18
1532295761342,-1,-1,-8,0,0,3,3,4
1532295761347,4,-1,2,0,-3,-9,-4,6
1532295761352,7,0,1,1,2,0,-9,-10
1532295761357,7,0,-1,-3,1,0,7,2
1532295761362,-6,0,-4,-3,5,-10,-1,-3
1532295761367,-10,-4,0,-2,-13,17,3,-7
1532295761372,-2,0,-2,0,0,-11,-6,3
1532295761377,2,1,-2,-2,0,0,1,3
1532295761382,-2,0,-4,0,0,4,9,-7
1532295761387,4,-1,0,-3,-5,-28,-23,5
1532295761392,-4,-2,-1,-1,1,49,17,-3
1532295761397,3,3,2,5,4,-18,0,6
1532295761402,-2,-1,-5,-3,-1,-1,-3,-1
1532295761407,-1,-1,1,3,5,3,7,-5
1532295761412,-5,-3,-2,-1,-5,-3,-2,0
1532295761417,2,-2,-1,-5,-3,-7,-7,3
1532295761422,4,2,-4,-1,1,19,13,3
1532295761427,-6,-1,0,1,-1,-15,-24,-3
1532295761432,-2,0,0,2,12,-19,-1,-1
1532295761437,-2,-3,-3,-4,-14,13,8,0
1532295761442,7,2,-3,-5,-6,-11,-5,-1
1532295761447,-8,-4,1,0,-6,-1,-3,-5
1532295761452,-3,-2,1,1,-2,-18,-31,3
1532295761457,15,3,-2,-3,17,31,7,4
1532295761462,-9,-2,-4,-5,-23,3,-4,-3
1532295761467,-8,-4,-1,-1,3,3,3,-2
1532295761472,-2,-1,-1,0,-2,-10,9,1
1532295761477,0,0,1,5,0,-11,-8,-2
1532295761482,0,0,-1,-1,5,4,0,1
1532295761487,3,1,1,-1,2,3,0,-1
1532295761492,-6,-2,-1,-3,-4,-6,1,-1
1532295761497,-1,-1,-1,-2,-5,13,2,0
1532295761502,0,2,1,2,3,-10,1,-1
1532295761507,-11,-2,0,-1,1,-14,6,-3
1532295761512,6,3,0,0,7,19,16,3
1532295761517,-2,-2,-2,-3,-1,0,0,0
1532295761522,-3,-4,-4,-2,-7,-4,-14,-2
1532295761527,3,-2,0,3,10,-3,-13,-1
1532295761532,-2,-3,-1,-1,-8,4,39,-5
1532295761537,-2,-3,-2,-2,-1,-14,-26,-2
1532295761542,-4,0,-1,1,-2,-2,-2,1
1532295761547,9,2,0,-1,-1,2,6,-1
1532295761552,-2,1,-3,-3,4,-1,-15,-2
1532295761557,-12,-5,0,-2,-6,-5,-7,-7
1532295761562,0,-2,0,2,7,8,32,-1
1532295761567,10,4,-2,-2,1,4,-10,2
1532295761572,0,-2,-1,0,-4,0,-1,1
1532295761577,-1,-2,1,4,-1,-6,4,2
1532295761582,0,0,-1,0,6,2,-12,4
1532295761587,4,0,-1,-3,-6,7,16,1
1532295761592,0,0,0,1,2,-1,-11,0
1532295761597,-1,-1,-1,-5,-1,-8,6,-1
1532295761602,-2,-5,-1,-4,-11,-5,-13,-5
1532295761607,0,0,2,3,7,0,1,1
1532295761612,-2,-1,-1,-1,0,6,-5,-2
1532295761617,-3,-1,-1,-4,-14,-16,-3,-1
1532295761622,-1,-2,0,0,8,-1,-4,0
1532295761627,-1,0,-1,-2,-4,12,5,1
1532295761632,3,1,-1,-2,-4,-7,-24,1
1532295761637,2,0,1,6,5,6,17,2
1532295761642,-7,-2,-1,2,4,1,-4,0
1532295761647,-6,2,0,1,0,-4,3,-2
1532295761652,-2,-4,-4,-4,-6,-2,-6,-6
1532295761657,-8,-3,0,1,-11,-3,-11,-2
1532295761662,5,-2,-2,-4,9,-4,-1,-1
1532295761667,-2,0,0,-4,-1,2,4,-1
1532295761672,2,0,0,0,-4,-2,-1,3
1532295761677,4,-2,-1,4,2,2,4,2
1532295761682,-4,2,0,0,7,-3,0,-1
1532295761687,-1,-2,-1,-4,-12,-1,1,-1
1532295761692,-1,-1,-2,-3,-4,-6,-4,-2
1532295761697,-1,-3,0,-1,-1,0,-5,2
1532295761702,-1,0,2,4,1,12,23,3
1532295761707,1,-3,-1,0,7,-2,-10,0
1532295761712,-4,-3,-2,-3,-3,-8,-1,-1
1532295761717,0,1,-1,-2,-1,1,-2,0
1532295761722,1,1,-1,-3,-1,-3,-6,-1
1532295761727,-1,-3,-3,-1,-3,-2,1,-2
1532295761732,-3,-1,1,0,-3,-1,10,-2
1532295761737,0,1,-1,-1,3,-6,-24,-3
1532295761742,1,0,-1,-3,-7,5,12,1
1532295761747,-1,0,1,0,1,-5,-13,-4
1532295761752,0,-1,-1,-1,3,-4,12,-1
1532295761757,1,0,-2,-1,-5,-2,-11,0
1532295761762,-1,-1,0,0,-3,-6,-9,0
1532295761767,0,0,-1,2,-3,1,6,1
1532295761772,0,0,0,1,4,1,-6,1
1532295761777,0,-1,0,-1,5,3,14,-1
1532295761782,-1,-2,-2,-3,-8,-4,-2,-2
1532295761787,-1,-1,0,3,7,2,7,0
1532295761792,-1,-1,-4,-4,-8,-2,-8,-1
1532295761797,0,1,-1,-3,-1,2,10,-1
1532295761802,-1,-3,-1,1,-5,0,0,-1
1532295761807,3,0,-1,-3,0,-8,-22,0
1532295761812,-4,-1,-2,-3,3,5,-4,2
1532295761817,-5,-1,0,3,0,-8,-9,-4
1532295761822,-7,-4,-2,-2,0,-1,-5,-6
1532295761827,0,-1,-3,-3,-5,5,13,1
1532295761832,1,0,-1,-2,-3,-4,3,1
1532295761837,4,5,0,1,3,-7,-18,-1
1532295761842,-1,-11,-5,-1,-1,-12,-5,-2
1532295761847,-1,-7,-1,-1,-1,-2,3,0
1532295761852,-3,1,2,1,0,7,6,0
1532295761857,0,-1,-1,-2,-2,3,6,-1
1532295761862,-1,0,1,0,0,10,-2,-2
1532295761867,4,0,-2,1,-1,6,9,1
1532295761872,-7,-6,-4,2,2,-3,-8,-4
1532295761877,2,-2,0,-1,1,-1,5,1
1532295761882,9,-3,-2,-4,-6,-2,4,-7
1532295761887,-7,0,1,-3,-2,-3,-6,2
1532295761892,6,1,0,-1,0,-2,-3,-1
1532295761897,-2,8,-2,3,-2,1,15,5
1532295761902,3,1,2,-1,-2,15,-11,-3
1532295761907,-5,-3,-3,-4,-3,13,11,-1
1532295761912,1,-1,1,-1,-2,-23,-20,-2
1532295761917,-3,-3,1,1,2,-11,7,-5
1532295761922,-1,5,0,1,3,-4,1,5
1532295761927,1,0,-1,-2,0,-1,-1,-2
1532295761932,1,1,1,1,-3,13,11,1
1532295761937,2,2,-5,-1,0,4,8,0
1532295761942,-2,3,-4,-3,-4,-9,-10,1
1532295761947,-18,-11,0,-2,-3,-2,-2,-5
1532295761952,4,-2,2,3,4,-4,1,-1
1532295761957,-5,-7,0,-3,-3,-5,-3,-3
1532295761962,1,3,1,3,0,19,2,1
1532295761967,11,8,0,-2,6,-12,-2,0
1532295761972,10,3,2,-1,-1,3,1,2
1532295761977,-4,-5,0,-1,-9,-4,-1,2
1532295761982,-18,-1,-2,0,-3,-14,-8,-3
1532295761987,11,-1,0,5,2,9,11,4
1532295761992,-10,-14,7,3,3,1,3,-7
1532295761997,3,4,-27,-4,0,14,0,5
1532295762002,-23,-6,21,1,0,-24,-1,-4
1532295762007,37,16,-1,0,-1,-13,-4,2
1532295762012,-8,-1,-2,-4,-3,1,-5,-7
1532295762017,12,-1,2,0,1,9,6,-3
1532295762022,3,0,-6,0,0,-1,-1,1
1532295762027,-18,-6,0,-6,-5,-17,-8,-4
1532295762032,-9,0,-4,0,-3,5,3,8
1532295762037,3,-2,5,2,2,-4,-3,5
1532295762042,7,1,-7,1,8,-14,1,0
1532295762047,-7,-2,1,-4,-11,17,4,-2
1532295762052,-6,0,-5,-1,0,17,4,-3
1532295762057,-3,0,5,-2,-1,1,-3,0
1532295762062,-5,-5,-1,-1,-2,-25,-7,1
1532295762067,0,2,-3,3,3,24,1,-3
1532295762072,-7,-1,-1,-2,-1,-5,0,-3
1532295762077,12,2,1,-2,1,-1,0,-6
1532295762082,5,-5,-2,-1,2,11,6,1
1532295762087,-3,3,-2,0,-3,-1,0,-3
1532295762092,-4,2,2,-4,-7,-40,-18,-3
1532295762097,2,-2,-2,2,4,47,15,5
1532295762102,2,1,-1,0,-5,-12,-6,-1
1532295762107,-16,8,-17,7,3,-13,-2,1
1532295762112,16,6,8,-12,-1,10,8,6
1532295762117,-14,-4,-3,3,4,-30,-11,-1
1532295762122,22,6,5,-4,-3,14,9,3
1532295762127,3,-5,-10,1,2,5,-5,0
1532295762132,6,6,14,4,0,12,12,-11
1532295762137,-20,-2,-4,-9,-9,-53,-18,1
1532295762142,-3,-3,-4,0,-2,46,16,2
1532295762147,4,-5,12,6,16,-21,-5,-1
1532295762152,-11,-4,-7,-6,-13,-15,-9,-3
1532295762157,-6,-11,0,-3,-4,6,-3,-7
1532295762162,0,0,-2,0,-6,-31,-10,-4
1532295762167,8,-4,3,-2,2,22,10,-5
1532295762172,-11,-1,-6,1,5,-1,-4,-8
1532295762177,1,0,1,3,0,-17,-4,-4
1532295762182,7,1,-6,1,5,29,-4,4
1532295762187,-1,0,3,-9,-10,27,10,-1
1532295762192,5,-1,-6,0,4,13,0,2
1532295762197,1,6,5,0,-7,-19,-8,-8
1532295762202,-6,-30,-1,-2,-1,-10,1,-5
1532295762207,2,5,3,3,3,-7,-7,2
1532295762212,-1,-3,-3,6,2,3,-8,-5
1532295762217,5,-2,2,1,5,23,3,-2
1532295762222,-12,7,-3,-1,-1,1,-1,-7
1532295762227,11,3,8,2,6,-46,19,6
1532295762232,7,6,3,-2,2,36,8,0
1532295762237,-4,-4,-3,1,-2,-3,-5,-2
1532295762242,-6,-3,-6,2,3,10,6,8
1532295762247,-4,0,-2,-8,7,-1,-11,-6
1532295762252,-3,1,-7,-6,-22,-7,-6,4
1532295762257,-8,-3,3,0,-10,-13,5,-1
1532295762262,8,0,5,8,14,10,1,6
1532295762267,-3,-1,1,4,-4,-8,-25,1
1532295762272,1,2,-2,-2,6,-19,37,-3
1532295762277,2,-3,-6,-6,-7,8,10,1
1532295762282,3,1,1,-1,-8,-39,15,9
1532295762287,-5,-3,-1,0,11,72,18,0
1532295762292,3,3,-3,0,2,6,-12,-11
1532295762297,6,0,2,2,3,7,-7,10
1532295762302,-7,0,-3,2,0,-2,4,-1
1532295762307,-9,-7,-5,-6,8,-32,-7,-6
1532295762312,2,2,1,-2,-20,-23,-22,-6
1532295762317,1,1,-1,-1,0,20,3,-3
1532295762322,6,-2,-1,0,6,10,-1,3
1532295762327,-1,-3,-1,-6,-19,5,6,3
1532295762332,8,3,1,-2,9,3,-6,0
1532295762337,-17,-7,-5,-2,-13,-37,-8,-3
1532295762342,-1,-1,1,5,13,3,16,2
1532295762347,-2,3,4,5,0,20,-8,-1
1532295762352,2,1,-1,2,8,1,9,2
1532295762357,5,2,-5,-11,0,7,6,-1
1532295762362,-10,-5,-5,-10,-17,10,-3,-6
1532295762367,-2,-3,0,2,-5,-28,-5,-1
1532295762372,1,1,3,1,-5,-15,-9,3
1532295762377,-2,-1,-1,6,22,23,6,3
1532295762382,3,1,-2,-5,-12,2,-11,3
1532295762387,2,1,-1,-3,-1,-30,-7,2
1532295762392,-2,-1,2,3,-1,2,-16,1
1532295762397,-4,-2,-2,2,9,-12,19,0
1532295762402,3,2,1,-1,-2,9,-11,1
1532295762407,2,1,2,0,-3,-3,25,-2
1532295762412,-4,-2,0,-1,6,22,-18,-1
1532295762417,3,0,0,-3,-12,-12,7,0
1532295762422,3,1,-1,2,7,-17,-11,0
1532295762427,0,1,-1,4,8,26,0,2
1532295762432,-5,-2,-4,-4,-10,-14,4,-3
1532295762437,9,1,-1,0,1,1,-19,-1
1532295762442,-11,-5,-3,-10,3,11,23,2
1532295762447,-11,-4,-5,-10,-32,-59,-22,-6
1532295762452,9,2,2,7,15,45,22,2
1532295762457,-2,-1,-2,-1,-5,-12,-14,-4
1532295762462,0,-3,0,3,2,-1,-2,-7
1532295762467,-3,0,-4,-4,3,1,-10,-3
1532295762472,1,-1,-1,0,-9,-15,9,1
1532295762477,2,0,-2,0,1,1,-4,-1
1532295762482,1,1,-2,-5,-4,-19,-13,5
1532295762487,-5,0,2,2,7,-2,-4,-1
1532295762492,0,0,2,-2,-3,12,-1,-4
1532295762497,-1,-1,-3,4,-10,-8,-5,1
1532295762502,1,-1,0,3,13,0,2,-2
1532295762507,-4,-2,-1,-1,5,-2,-1,1
1532295762512,-2,0,-1,-4,-12,12,-11,1
1532295762517,8,0,-1,-1,-1,13,2,0
1532295762522,-11,-4,-3,-2,2,-7,-2,-4
1532295762527,5,-1,-2,3,-1,-5,-15,-1
1532295762532,6,2,5,3,14,10,25,3
1532295762537,-1,1,-3,-12,-24,-8,-12,-2
1532295762542,-3,-2,-1,-2,-7,-19,-3,-2
1532295762547,-2,0,0,1,10,26,7,-1
1532295762552,-1,-2,-5,-2,-12,-7,-12,-1
1532295762557,0,-1,3,6,17,21,2,2
1532295762562,1,2,0,1,5,-12,3,-2
1532295762567,-5,-1,-1,-5,-13,-15,-10,-3
1532295762572,0,-2,-2,0,-3,-1,2,-5
1532295762577,-1,0,1,2,-1,-1,-1,-1
1532295762582,4,2,-2,6,11,14,-5,2
1532295762587,-3,-1,-2,-4,5,-2,5,0
1532295762592,-1,-1,-3,-5,-3,7,-2,-1
1532295762597,1,-2,0,-2,0,-19,-8,-3
1532295762602,-4,-2,2,-1,3,17,17,0
1532295762607,5,1,-2,0,-6,-13,-17,-2
1532295762612,1,-1,0,1,10,-5,9,-1
1532295762617,-6,-3,-3,-2,1,-3,0,-3
1532295762622,-2,-2,-1,-5,-16,-4,20,-2
1532295762627,7,1,1,1,3,-2,4,1
1532295762632,-6,1,-1,-3,-8,17,-12,-4
1532295762637,3,-1,1,8,11,10,20,3
1532295762642,3,-2,-2,-3,1,1,-9,1
1532295762647,-1,-1,-1,-1,-5,-3,8,4
1532295762652,0,-3,-2,-1,0,-23,-2,1
1532295762657,4,0,-2,0,-6,13,-19,1
1532295762662,-1,1,7,-1,7,11,7,-1
1532295762667,-1,0,-6,2,-12,-3,0,0
1532295762672,6,1,1,0,15,11,15,3
1532295762677,-8,-3,-5,-12,-15,-14,-14,-5
1532295762682,-4,-2,0,-2,2,-19,-4,-4
1532295762687,-3,-1,2,2,-4,3,-14,-1
1532295762692,-1,-1,-1,0,-5,-3,35,-1
1532295762697,1,1,3,5,2,-9,-9,3
1532295762702,0,2,-4,0,4,3,2,1
1532295762707,-4,-2,0,-3,0,0,-2,-3
1532295762712,1,-1,-1,-2,-10,2,8,-1
1532295762717,0,-2,0,2,2,8,4,1
1532295762722,-9,-2,-2,-7,-3,-10,-9,-4
1532295762727,3,1,3,1,-8,-22,-7,-1
1532295762732,-2,1,-1,2,8,28,-5,-2
1532295762737,-2,-1,-3,-5,-5,-4,7,-3
1532295762742,8,0,0,4,-4,-1,-15,0
1532295762747,-7,-1,3,-3,-2,-7,7,-1
1532295762752,-1,0,-5,0,0,-9,-11,-3
1532295762757,1,2,1,2,2,-1,1,0
1532295762762,-6,-2,-4,-1,1,-7,-18,-1
1532295762767,-3,0,2,-3,-1,7,29,-2
1532295762772,7,0,1,0,3,6,-14,1
1532295762777,-5,-3,-3,-4,4,-6,2,-2
1532295762782,3,1,0,2,-3,-10,23,5
1532295762787,-1,-3,-2,4,16,20,13,0
1532295762792,-6,-4,-2,-3,-10,-36,-7,-3
1532295762797,0,-1,-1,-7,-12,36,-3,-1
1532295762802,-2,0,0,0,-6,-5,-4,-2
1532295762807,-2,0,-2,1,2,-12,-16,0
1532295762812,-1,1,0,1,15,6,5,-2
1532295762817,3,1,1,1,-6,-9,-4,1
1532295762822,-3,0,-2,-3,-1,2,-9,2
1532295762827,-10,-2,-1,-1,-5,5,5,-3
1532295762832,1,-3,0,2,5,-7,-23,0
1532295762837,-4,-2,0,3,2,-6,-4,-4
1532295762842,12,0,0,-4,3,9,4,2
1532295762847,-9,-4,-3,-5,-6,-10,-6,-2
1532295762852,-3,-3,0,-3,-10,-2,-3,-3
1532295762857,0,-1,-3,1,10,-12,-9,0
1532295762862,4,1,0,1,-6,6,15,2
1532295762867,5,0,-2,-6,-6,-4,-2,0
1532295762872,-6,-2,-1,-3,-12,-9,-33,-4
1532295762877,2,1,0,1,14,19,32,3
1532295762882,-4,-2,4,1,-13,-16,-18,-5
1532295762887,5,1,-6,2,8,6,-1,3
1532295762892,-1,2,-1,-2,2,-10,-2,2
1532295762897,-2,-2,-2,-6,-7,-3,-2,-5
1532295762902,-3,-3,-5,0,-2,-13,-5,-8
1532295762907,2,1,4,2,2,-7,7,-1
1532295762912,11,3,0,3,-4,7,3,5
1532295762917,-10,-1,-2,1,10,-3,-1,1
1532295762922,-8,-4,-1,-8,-7,27,10,-3
1532295762927,0,-2,-1,0,-5,-25,-23,-2
1532295762932,2,-1,-1,2,10,-4,9,0
1532295762937,4,1,2,1,-11,26,-1,2
1532295762942,-3,1,-3,3,21,-16,-6,-2
1532295762947,-3,-4,-2,-8,-25,-3,-25,0
1532295762952,-1,-1,0,-3,6,4,32,1
1532295762957,5,1,1,2,-9,-6,-6,1
1532295762962,-5,1,-1,2,-2,-12,-13,-1
1532295762967,-3,-3,-3,1,13,21,8,-3
1532295762972,-5,0,1,0,-9,-5,2,-2
1532295762977,-2,-2,-3,0,-4,-12,-12,1
1532295762982,4,1,-1,1,5,-1,-10,0
1532295762987,4,1,1,-3,-1,-6,8,-1
1532295762992,-5,-3,-2,0,-4,15,1,0
1532295762997,-2,0,1,1,13,-7,4,-1
1532295763002,5,-1,-3,-6,-10,1,-14,1
1532295763007,-8,0,-1,-7,-10,-12,-5,-6
1532295763012,4,0,1,6,2,19,26,1
1532295763017,-4,-1,1,2,-4,16,-6,-2
1532295763022,-1,-3,-1,3,10,-8,14,1
1532295763027,4,0,-2,2,3,1,-17,1
1532295763032,3,0,-2,-8,-2,-6,1,-1
1532295763037,-2,-3,-1,-1,-7,-17,-5,0
1532295763042,-3,-1,0,4,5,13,9,-2
1532295763047,0,0,-2,0,8,10,4,-1
1532295763052,0,-1,-4,-6,-14,-15,-12,-1
1532295763057,-1,1,-1,-2,4,-11,-8,1
1532295763062,-4,-2,-2,-2,-7,9,24,-1
1532295763067,0,0,0,3,10,-2,16,-1
1532295763072,-2,-1,0,2,7,3,-11,0
1532295763077,3,1,-2,-6,-12,-18,-9,-4
1532295763082,0,1,-2,-1,-4,-17,-10,0
1532295763087,-1,-2,1,2,-3,28,14,0
1532295763092,-6,-1,-2,-3,2,-5,-18,-5
1532295763097,6,-2,0,0,6,25,60,1
1532295763102,3,3,1,1,2,-11,-14,0
1532295763107,-5,-3,-1,0,0,4,9,0
1532295763112,-4,-2,0,0,2,-12,-23,-3
1532295763117,-1,-2,-2,-3,-6,-8,-8,0
1532295763122,1,-3,-2,-5,-6,11,3,0
1532295763127,1,2,1,1,-9,-7,-12,2
1532295763132,-1,-1,0,2,-4,8,23,0
1532295763137,0,0,-1,-3,7,-27,-7,-2
1532295763142,-4,-2,-2,-7,-10,5,-8,-2
1532295763147,-3,0,3,2,8,2,3,-1
1532295763152,1,0,1,2,2,-5,-6,-1
1532295763157,-1,-2,-1,-1,-13,-5,-9,-2
1532295763162,-1,-1,-1,-1,16,17,11,-3
1532295763167,2,-1,0,-4,-13,-3,3,1
1532295763172,-2,0,-1,1,0,-14,-7,-1
1532295763177,-3,-2,-2,-1,-2,16,9,1
1532295763182,-4,-1,-1,-4,-9,11,-4,-1
1532295763187,3,1,-2,2,5,-1,0,-2
1532295763192,0,0,1,-1,-5,-5,6,0
1532295763197,6,-4,-3,-4,-2,-10,-27,-2
1532295763202,-11,-4,2,1,0,-4,-3,0
1532295763207,0,0,-1,-3,-2,7,-4,-2
1532295763212,2,-1,-3,-1,9,-13,1,4
1532295763217,-5,0,-1,-1,1,-8,-23,-2
1532295763222,2,1,0,1,-9,-8,6,2
1532295763227,3,0,1,3,6,12,33,2
1532295763232,-3,-2,-3,-3,5,8,-12,-1
1532295763237,-2,-2,-1,-2,-5,0,-16,-1
1532295763242,0,-1,-2,-2,-7,-8,11,-2
1532295763247,-1,-1,-2,0,5,-11,-14,-2
1532295763252,1,1,1,0,-18,7,8,3
1532295763257,-3,0,-1,2,10,2,5,-3
1532295763262,1,-1,1,-2,-5,-5,-8,-1
1532295763267,1,-1,0,2,-1,-7,-11,-4
1532295763272,3,0,0,2,8,-16,-14,4
1532295763277,-3,0,-1,-1,6,51,24,0
1532295763282,0,1,0,2,-5,-11,-16,-2
1532295763287,0,-3,-3,-1,2,7,15,-1
1532295763292,1,-1,1,-3,-6,-13,4,-1
1532295763297,-4,-2,-1,0,-4,11,12,1
1532295763302,0,-1,0,2,12,0,-5,-1
1532295763307,0,1,-1,-1,0,-3,-10,0
1532295763312,-3,-2,-2,-4,-5,2,1,-2
1532295763317,4,2,-1,-2,4,-15,2,-1
1532295763322,-7,-4,-2,-3,-7,-2,3,-1
1532295763327,4,0,3,3,2,-8,-4,1
1532295763332,1,-1,-2,-4,-3,17,-1,2
1532295763337,-1,0,1,-2,-8,-14,-4,-1
1532295763342,1,0,-1,1,3,3,1,-1
1532295763347,-3,-1,0,1,9,-4,-5,0
1532295763352,-4,-1,-2,-4,-11,-8,-5,-4
1532295763357,3,-1,0,0,7,16,7,2
1532295763362,1,0,-2,-2,-14,-4,0,-2
1532295763367,-2,0,0,4,4,-1,8,-1
1532295763372,-2,-3,0,2,8,10,-21,-3
1532295763377,-2,0,-1,2,-5,-19,3,-2
1532295763382,1,-2,-2,-1,11,6,0,0
1532295763387,2,1,-1,-5,-17,-11,1,3
1532295763392,-3,0,0,-3,-1,2,-9,-4
1532295763397,-9,-5,-1,1,-2,1,23,0
1532295763402,0,0,1,1,13,-24,-14,0
1532295763407,0,0,-2,1,7,58,13,2
1532295763412,0,0,-3,-7,-14,-8,3,-2
1532295763417,-1,0,0,-1,-1,-11,-10,-1
1532295763422,0,-1,-2,-1,-1,0,-4,0
1532295763427,-1,-1,0,-2,-5,-8,19,0
1532295763432,1,-1,-1,0,3,-3,-5,1
1532295763437,-2,0,-1,-2,2,8,-8,0
1532295763442,4,-3,-3,-2,2,-1,9,-1
1532295763447,-4,-1,-4,-8,-11,-22,-31,-5
1532295763452,-1,0,1,6,1,19,19,0
1532295763457,-4,-2,0,-1,0,-16,-5,-1
1532295763462,-1,-2,-1,2,-1,-1,-14,-2
1532295763467,0,-1,-3,-3,-1,1,11,-3
1532295763472,12,1,0,0,7,-6,12,3
1532295763477,-5,-1,-1,-2,5,3,-11,-1
1532295763482,-9,-2,0,-1,-10,11,5,-4
1532295763487,-2,-3,-3,-3,-2,-5,-23,-2
1532295763492,-1,-2,0,0,-2,-5,26,-1
1532295763497,7,5,2,8,7,-1,-4,6
1532295763502,0,0,-2,-6,1,0,5,0
1532295763507,-4,-2,-2,-2,-3,-8,-4,-2
1532295763512,-2,-1,-1,-2,0,0,-19,-4
1532295763517,7,1,0,2,-5,-13,11,0
1532295763522,-6,0,0,0,7,22,12,0
1532295763527,-6,-5,-2,-4,-5,-12,-8,-4
1532295763532,-1,0,-1,0,-2,2,-20,-2
1532295763537,2,0,-1,-1,-3,8,10,-4
1532295763542,2,-1,0,3,1,-5,-11,0
1532295763547,3,1,0,0,4,-15,13,3
1532295763552,1,-1,0,-1,-2,13,-3,3
1532295763557,-11,-3,-2,-5,-4,-6,-16,-4
1532295763562,0,1,0,4,0,-1,22,0
1532295763567,0,-1,-1,-1,-7,-10,-3,-1
1532295763572,-5,-1,-3,-7,-4,-29,4,0
1532295763577,5,-1,-1,-5,1,32,-8,-1
1532295763582,-1,1,-3,-3,-10,-3,-2,-2
1532295763587,-1,-3,1,3,2,6,-8,-1
1532295763592,-1,0,1,2,2,-8,-2,0
1532295763597,-3,-3,-3,0,-3,-7,3,-1
1532295763602,0,-1,-3,-5,-4,-4,-12,-2
1532295763607,0,0,1,2,1,1,5,-1
1532295763612,1,1,0,0,11,24,12,-2
1532295763617,-7,-5,-2,-5,-16,-11,-14,-4
1532295763622,1,-3,-1,-2,7,-8,-1,1
1532295763627,5,2,-1,-2,-12,-11,-16,2
1532295763632,-7,-3,0,2,1,10,-2,-2
1532295763637,-1,0,0,2,3,-5,2,-1
1532295763642,-2,-3,0,1,14,-5,-8,1
1532295763647,-1,-3,-2,-4,-11,1,8,1
1532295763652,-2,-3,-3,-4,2,6,-11,-3
1532295763657,4,1,1,-2,-10,-4,35,2
1532295763662,3,2,0,0,-4,6,-2,3
1532295763667,-1,-1,0,3,7,0,1,0
1532295763672,-3,-1,1,6,4,6,6,-3
1532295763677,-2,-1,-2,-1,7,-6,-2,-1
1532295763682,-5,-5,-5,-11,-19,-11,-30,-3
1532295763687,4,2,0,0,2,14,15,-2
1532295763692,-4,-2,-2,2,0,-11,-7,1
1532295763697,-2,-4,2,3,10,-2,-10,-3
1532295763702,5,0,1,0,-13,-2,9,2
1532295763707,-5,0,-2,-6,10,5,-23,0
1532295763712,1,-2,-2,-3,-14,-5,4,-4
1532295763717,-3,1,-1,4,8,-8,0,0
1532295763722,-1,1,1,-4,0,0,1,-2
1532295763727,0,0,0,2,-2,-3,-2,-1
1532295763732,-3,-2,0,0,4,12,9,-1
1532295763737,-2,-1,-2,-2,-3,1,-6,1
1532295763742,-2,0,0,2,4,-4,3,-2
1532295763747,0,0,-1,3,-2,2,11,1
1532295763752,-3,0,-1,-1,14,-8,-3,0
1532295763757,0,-5,-2,-11,-34,-20,-32,-5
1532295763762,5,0,2,4,12,46,63,4
1532295763767,-1,1,-1,-2,7,-7,-13,-1
1532295763772,1,2,1,0,-10,-6,0,1
1532295763777,-3,0,-1,2,15,-9,-10,-4
1532295763782,-1,-3,-2,-2,-10,-17,8,-3
1532295763787,-1,0,-1,-4,1,7,-10,-3
1532295763792,2,-1,-1,0,-12,2,3,-2
1532295763797,2,3,-1,2,6,7,8,2
1532295763802,-1,2,1,1,-1,-16,-19,1
1532295763807,-6,-2,-1,1,9,18,17,0
1532295763812,-1,-1,-4,-5,-2,1,-9,-2
1532295763817,0,-1,0,-3,7,-5,11,1
1532295763822,3,2,0,4,-9,0,-13,0
1532295763827,-5,-3,-1,-3,-2,-9,4,0
1532295763832,-2,1,0,1,-1,-4,-16,1
1532295763837,3,0,0,-2,-1,9,2,5
1532295763842,0,0,-1,0,1,-4,9,-1
1532295763847,-1,-2,0,-4,-9,0,-5,-4
1532295763852,-2,0,-1,0,7,-3,-5,-1
1532295763857,-1,2,0,4,-4,-11,18,0
1532295763862,-6,-4,-2,-4,3,19,-7,-3
1532295763867,1,2,-1,-1,-21,-13,-1,-2
1532295763872,-2,-1,1,0,3,-1,-2,-1
1532295763877,3,1,-1,-1,-2,27,5,-1
1532295763882,3,0,-1,0,-1,-6,-5,2
1532295763887,-5,-2,-2,3,11,-2,5,-3
1532295763892,-2,-1,-2,-6,-4,-6,-17,-3
1532295763897,0,-1,0,-1,-6,-2,36,-1
1532295763902,-1,-1,0,-2,0,0,-21,-3
1532295763907,7,1,-1,1,-5,5,-1,4
1532295763912,0,-2,-2,-1,3,-12,5,-1
1532295763917,-8,-4,-1,-1,-8,-2,-17,-3
1532295763922,-1,0,0,0,12,-3,18,1
1532295763927,0,0,0,-3,-9,-7,-3,0
1532295763932,-2,-1,0,0,-1,15,12,0
1532295763937,7,0,-1,-3,0,-11,-19,-1
1532295763942,-6,-1,-2,0,-8,7,-10,-2
1532295763947,-1,-2,-1,0,4,-7,8,0
1532295763952,-1,-1,-1,-1,3,2,5,3
1532295763957,-2,-1,0,4,-5,2,-6,-3
1532295763962,6,1,-2,-3,-2,-5,-6,-1
1532295763967,-5,0,-1,-4,-6,0,-23,-3
1532295763972,0,-1,0,2,-1,19,48,-1
1532295763977,-1,-3,-1,-4,0,-8,-11,0
1532295763982,-3,1,0,4,-3,10,1,-3
1532295763987,1,1,1,-1,5,-1,-8,0
1532295763992,0,2,1,0,-6,-12,-3,-1
1532295763997,-1,-1,-1,1,7,-2,-7,0
1532295764002,-3,-3,-3,-6,-9,-13,-16,-3
1532295764007,-1,-4,-1,0,1,6,18,-2
1532295764012,2,-1,0,1,0,-2,-11,-1
1532295764017,2,1,0,0,0,-5,4,1
1532295764022,-4,-2,-1,-2,5,-9,-18,-4
1532295764027,-2,-2,-2,1,-11,-9,12,-4
1532295764032,-7,-3,0,2,10,17,-6,-2
1532295764037,4,-1,-2,0,-4,3,8,-2
1532295764042,0,-1,-1,-4,2,-6,-6,1
1532295764047,3,0,-1,-5,-7,-2,-9,-1
1532295764052,-4,-2,-2,0,2,-2,1,-1
1532295764057,-4,0,1,2,5,3,3,-5
1532295764062,-3,-2,-1,1,-3,-3,-15,-2
1532295764067,4,0,0,0,2,-2,9,2
1532295764072,1,0,-3,-5,-1,1,-4,2
1532295764077,-6,-1,-2,-3,-1,0,-11,-2
1532295764082,-2,0,0,3,4,-8,6,-2
1532295764087,-2,-2,-3,-4,-13,4,9,-1
1532295764092,2,0,-1,-2,-4,-8,-1,1
1532295764097,0,0,-1,0,-2,12,-3,-1
1532295764102,-2,0,0,4,6,1,14,1
1532295764107,-4,-1,-3,-5,3,-5,-12,-1
1532295764112,1,-2,-1,-2,-11,11,3,-4
1532295764117,-1,1,-2,-4,-10,-14,10,-1
1532295764122,1,0,2,2,1,13,-9,1
1532295764127,-1,-1,1,8,10,6,4,2
1532295764132,3,0,-3,-4,-2,-17,-10,-2
1532295764137,-6,-3,-1,2,-3,4,2,0
1532295764142,5,1,-1,-4,3,0,6,1
1532295764147,-1,-2,-2,-1,-10,3,10,3
1532295764152,-1,-1,-1,0,5,-7,-2,1
1532295764157,-2,-3,-1,-4,-4,7,-13,-2
1532295764162,0,1,-1,-1,-3,-4,20,-3
1532295764167,0,2,0,0,8,7,4,-3
1532295764172,-1,1,-1,1,-11,-13,-13,-3
1532295764177,0,-2,-2,-7,11,17,8,-3
1532295764182,-2,-2,-1,-3,-6,-4,-10,1
1532295764187,-2,1,0,2,5,-1,-6,-2
1532295764192,-2,-3,0,-2,-7,-14,-5,0
1532295764197,-3,0,0,2,-1,-7,-11,-2
1532295764202,-2,0,-1,-1,4,2,13,0
1532295764207,-1,-1,0,2,0,-6,-1,-3
1532295764212,-1,-1,-1,-1,3,0,-14,-1
1532295764217,6,-1,3,4,3,12,22,2
1532295764222,-1,-2,-2,0,3,-9,-7,1
1532295764227,2,-1,-3,-7,-14,-11,31,-1
1532295764232,-5,0,0,-1,-4,14,-4,1
1532295764237,-1,0,-2,-1,4,-6,-13,-2
1532295764242,-1,-2,-3,0,-11,1,7,-1
1532295764247,-1,1,-1,2,9,-3,-18,-1
1532295764252,-1,-2,-2,-2,2,-8,3,-1
1532295764257,-2,1,-1,2,-3,9,17,1
1532295764262,-6,-4,-1,-3,-5,-3,-3,-1
1532295764267,0,-1,-1,0,2,3,-11,0
1532295764272,3,-2,-2,-5,-11,-3,8,-2
1532295764277,0,0,-1,2,10,-9,-14,2
1532295764282,1,0,0,-2,-7,0,-15,-4
1532295764287,-2,-2,0,-1,1,-23,7,2
1532295764292,1,0,0,2,5,22,-2,-1
1532295764297,-1,0,-1,-2,-1,-15,-9,-2
1532295764302,2,0,0,3,2,-3,0,0
1532295764307,-1,-1,-2,-3,5,6,-5,-4
1532295764312,-2,0,-1,-1,6,-13,-2,0
1532295764317,-2,-2,-2,2,-7,2,2,0
1532295764322,-1,1,-1,-6,-1,-6,-10,-3
1532295764327,-2,-1,1,3,8,8,3,1
1532295764332,2,0,0,-3,-12,-6,6,1
1532295764337,1,0,0,-4,-6,-8,8,-1
1532295764342,-2,-6,-3,1,11,19,3,-1
1532295764347,0,-3,-1,-4,-13,8,-9,0
1532295764352,-5,-1,0,3,-1,5,-6,-2
1532295764357,3,-1,1,4,-2,-6,27,-1
1532295764362,7,2,0,4,17,6,8,3
1532295764367,-1,-1,-1,-4,-5,-8,-11,0
1532295764372,2,-1,1,-4,-7,11,1,1
1532295764377,0,-1,-1,-2,-3,-4,-8,1
1532295764382,-4,-3,0,-1,4,-7,2,-2
1532295764387,-5,-1,-1,3,0,0,-2,-6
1532295764392,0,0,-2,-3,-8,-8,-5,-2
1532295764397,0,0,1,2,9,2,-2,4
1532295764402,1,1,-1,1,6,1,1,0
1532295764407,0,-2,-2,-5,-9,-19,-3,-2
1532295764412,1,0,0,3,-3,19,9,1
1532295764417,-4,-2,-2,-1,3,8,-27,-3
1532295764422,-1,0,-1,-9,-17,-20,28,1
1532295764427,-1,0,0,2,1,10,1,-2
1532295764432,0,-1,0,4,11,-4,1,-2
1532295764437,1,-1,2,1,0,-4,-3,4
1532295764442,-2,-1,-2,-4,-9,-14,-35,-4
1532295764447,0,0,1,0,-1,11,29,2
1532295764452,-1,0,-1,-1,0,-2,5,0
1532295764457,-4,-1,-2,-7,-13,-6,-8,-4
1532295764462,0,-2,-1,1,4,-12,-8,-2
1532295764467,-6,-2,-2,-2,12,17,-9,-2
1532295764472,0,-1,1,0,-9,-1,-3,-2
1532295764477,-1,0,-1,-4,-5,-4,-5,-1
1532295764482,1,-1,0,-1,-4,4,2,-1
1532295764487,2,-1,-2,4,-2,-2,1,-1
1532295764492,2,-2,-3,1,4,-7,-2,-2
1532295764497,-5,0,-1,-5,5,-3,-11,-4
1532295764502,0,-3,-1,-2,-15,-2,5,-1
1532295764507,-2,-1,1,1,5,10,-17,-2
1532295764512,-1,-1,-1,-3,-5,0,-9,-1
1532295764517,3,-2,-4,-1,2,-7,19,-1
1532295764522,-1,-1,1,0,6,-1,-12,0
1532295764527,1,0,-1,-2,0,-5,-10,1
1532295764532,0,-2,0,1,-6,10,-6,-4
1532295764537,1,1,-1,-1,0,5,14,-1
1532295764542,-2,0,0,2,-1,0,-1,0
1532295764547,-1,1,-1,3,9,-4,-24,-1
1532295764552,-2,-1,-1,-4,-4,-7,35,0
1532295764557,-1,-3,0,1,-1,0,-13,-1
1532295764562,1,2,0,0,0,7,5,-2
1532295764567,-3,-2,0,-4,-7,-8,2,1
1532295764572,-1,0,-2,-1,15,-3,-7,-2
1532295764577,-1,-3,-1,-1,-12,-5,-4,-1
1532295764582,0,1,-2,0,-6,8,7,0
1532295764587,1,-3,0,1,-2,2,-2,-2
1532295764592,-1,-1,0,2,10,-6,-3,0
1532295764597,-1,-3,-1,-1,-2,2,3,1
1532295764602,-3,-1,-1,-2,5,6,-1,2
1532295764607,0,2,1,2,-10,-6,4,-1
1532295764612,-2,0,-1,3,14,2,-5,-2
1532295764617,-1,-2,-3,-4,-3,-14,13,-8
1532295764622,1,3,0,-3,-10,20,-24,1
1532295764627,-4,1,-1,-3,9,2,9,-2
1532295764632,-4,-2,-2,-4,-15,-14,-13,-1
1532295764637,11,2,-1,2,6,3,6,2
1532295764642,-2,-3,-1,1,-2,3,11,-3
1532295764647,-1,0,-2,-3,-1,-7,1,-2
1532295764652,-3,-1,-1,1,1,-8,-4,1
1532295764657,-2,-1,-2,-1,-3,0,-14,-4
1532295764662,5,0,1,4,-1,31,26,2
1532295764667,3,1,0,3,6,-5,-5,1
1532295764672,-1,-2,-2,-4,4,8,1,-1
1532295764677,-6,-4,-3,-4,-18,-14,-17,-3
1532295764682,-1,0,-3,-3,-3,-7,19,0
1532295764687,0,-1,0,2,4,6,-14,1
1532295764692,0,1,0,-2,-12,-6,3,0
1532295764697,3,-2,1,4,5,3,-8,3
1532295764702,-5,-3,-4,-1,12,-17,-18,-5
1532295764707,-2,-1,-4,-12,-23,1,33,0
1532295764712,-1,0,1,0,-1,-1,5,3
1532295764717,-1,1,1,1,5,7,1,1
1532295764722,2,0,-1,2,5,-10,-5,1
1532295764727,-1,-4,-1,0,-5,-18,-14,-3
1532295764732,-5,-2,-1,1,2,6,8,-3
1532295764737,1,1,-2,0,21,14,4,1
1532295764742,4,0,1,-3,-25,-7,-11,3
1532295764747,3,1,-1,1,7,-1,3,1
1532295764752,-6,-3,0,-2,-20,-19,-9,0
1532295764757,-2,0,1,7,8,8,16,-1
1532295764762,-2,-2,-2,-5,8,11,-1,-5
1532295764767,1,-3,-1,-5,-10,-12,-25,-1
1532295764772,3,0,-1,0,-2,9,15,0
1532295764777,-5,0,-1,-4,7,-19,-7,-1
1532295764782,-6,-1,-3,-3,-12,-2,-3,-2
1532295764787,-5,0,-3,3,1,-4,-3,-4
1532295764792,6,1,0,1,11,11,-4,3
1532295764797,-2,-1,-1,1,0,2,-13,2
1532295764802,-3,-2,-1,-3,-8,-3,16,1
1532295764807,4,0,0,3,9,1,3,0
1532295764812,0,-2,-2,-1,-9,-4,-7,-1
1532295764817,0,0,0,0,-7,1,4,-2
1532295764822,-3,-2,0,1,-1,-6,-6,1
1532295764827,-3,-1,0,-1,-1,3,3,-4
1532295764832,1,0,-2,-1,8,5,11,-1
1532295764837,0,2,0,-2,-10,-5,-10,-1
1532295764842,-4,-1,-1,-1,-1,-9,7,-2
1532295764847,0,-1,0,4,3,7,-2,0
1532295764852,-1,0,-1,-4,-2,2,-4,2
1532295764857,0,-2,0,-2,-1,-26,-2,-1
1532295764862,-1,-1,2,4,11,17,-5,-1
1532295764867,4,-1,-1,-4,-5,5,-1,0
1532295764872,-7,1,0,0,-9,-10,0,-2
1532295764877,0,1,0,0,3,21,4,2
1532295764882,1,0,-2,-1,0,-11,-7,-2
1532295764887,-7,-4,-1,-2,1,1,3,0
1532295764892,0,-2,-1,-3,5,0,-6,-3
1532295764897,1,-1,-3,-3,-12,-1,4,-4
1532295764902,3,1,1,-2,1,-15,-2,0
1532295764907,1,-2,0,2,0,16,-2,-2
1532295764912,-2,1,0,2,4,1,7,-2
1532295764917,0,-1,2,4,6,9,25,0
1532295764922,-1,0,-3,-4,2,-16,-10,-3
1532295764927,0,-1,-1,-6,-8,-7,0,3
1532295764932,0,-1,3,2,-2,-5,-12,4
1532295764937,0,0,0,1,3,-3,-6,1
1532295764942,-1,-1,-1,2,7,15,-6,1
1532295764947,-3,-2,-3,-8,-25,-7,9,-3
1532295764952,1,-1,-3,-3,1,0,-5,-4
1532295764957,1,0,-2,1,-3,-3,-7,-1
1532295764962,5,0,1,1,4,-2,3,1
1532295764967,-6,2,-3,2,-5,-6,-5,-1
1532295764972,0,-1,-1,1,6,8,1,-1
1532295764977,-6,-2,-2,-3,-4,6,-3,-1
1532295764982,0,-3,-1,-1,-14,-11,-20,-5
1532295764987,5,0,-2,-2,7,5,48,4
1532295764992,0,-2,-1,-4,1,-7,-14,-6
1532295764997,-1,-2,-1,0,-3,-3,-12,-2
1532295765002,-2,0,1,3,6,0,15,2
1532295765007,1,1,-1,-5,4,-7,-24,-3
1532295765012,-2,0,-2,-2,-14,-6,4,0
1532295765017,-4,-4,0,0,3,-9,-3,0
1532295765022,-1,0,0,0,-1,13,-10,0
1532295765027,2,-1,0,-1,-6,-17,-2,-4
1532295765032,3,-1,-2,-1,9,7,11,-2
1532295765037,-2,1,4,-2,-5,4,-3,-2
1532295765042,-1,-1,-3,3,-4,-7,4,1
1532295765047,1,-1,3,2,8,7,4,2
1532295765052,-2,0,-2,-2,-10,-8,-3,1
1532295765057,-2,-1,-1,0,8,-1,3,1
1532295765062,-3,-2,-2,-6,-5,-27,-6,-2
1532295765067,-1,-2,-2,-2,-4,44,-21,-3
1532295765072,1,1,3,7,4,-4,26,0
1532295765077,0,-1,-3,0,11,18,-3,1
1532295765082,-2,-3,3,-5,-6,9,11,-2
1532295765087,-1,-2,-9,0,2,-18,-18,-1
1532295765092,4,-1,-1,-2,-5,-3,-8,-1
1532295765097,-1,1,-3,-1,-3,1,1,1
1532295765102,-2,-2,2,5,4,2,1,-1
1532295765107,0,1,4,4,6,2,-7,1
1532295765112,-1,-2,-2,-5,16,5,9,3
1532295765117,0,-2,-3,-14,-29,-9,18,-1
1532295765122,-2,-2,-2,1,-1,6,-7,1
1532295765127,-1,0,2,3,1,0,-2,2
1532295765132,1,0,-2,5,16,-8,-32,-2
1532295765137,-5,-3,-2,-5,-10,6,44,1
1532295765142,-1,-1,-1,-2,1,2,1,-4
1532295765147,-1,1,0,1,0,-3,3,-1
1532295765152,0,0,-1,-1,-7,-10,-15,0
1532295765157,1,-1,-1,1,5,4,-17,-3
1532295765162,0,-1,-2,-1,-2,-4,3,-4
1532295765167,-1,0,1,4,3,-20,4,2
1532295765172,-1,-1,-1,-2,3,28,-7,-3
1532295765177,1,0,-2,-4,-3,-14,0,0
1532295765182,-5,-3,-3,-8,-19,2,8,0
1532295765187,-6,-1,0,-3,-4,-10,-5,-3
1532295765192,-2,-3,-2,-1,-2,-8,-7,-3
1532295765197,0,1,1,10,5,-16,-8,-6
1532295765202,2,2,3,4,18,28,41,3
1532295765207,-3,-2,-7,-13,-5,1,-3,-1
1532295765212,3,0,-3,-5,-19,-4,-3,2
1532295765217,-5,-3,0,-2,-4,-6,-12,-3
1532295765222,0,1,4,3,-1,-5,-21,-4
1532295765227,0,-2,0,4,2,9,8,-2
1532295765232,-2,-1,0,2,8,-13,11,-2
1532295765237,3,-2,-3,-5,-4,-11,-28,1
1532295765242,-2,1,-3,-2,6,-3,-6,3
1532295765247,-3,-3,1,-3,-14,12,1,-3
1532295765252,-1,1,0,2,-2,7,24,2
1532295765257,-1,0,-2,1,13,-7,12,2
1532295765262,-2,-1,-4,-7,-20,-6,-11,-1
1532295765267,1,-1,-1,-2,14,13,14,0
1532295765272,-3,-3,-1,-3,-11,-18,-6,1
1532295765277,2,-1,1,2,-4,7,-9,-2
1532295765282,-2,0,-1,4,9,-10,-2,-1
1532295765287,-1,0,0,1,-1,-23,-12,-4
1532295765292,-2,0,0,-1,-6,16,-1,1
1532295765297,3,1,1,3,7,-12,3,4
1532295765302,1,-2,-2,0,-1,-12,-22,-2
1532295765307,-5,-4,-1,-2,0,28,17,-3
1532295765312,-2,0,-1,1,8,2,9,0
1532295765317,0,-1,-2,-5,-14,-1,-20,-2
1532295765322,4,3,-1,0,4,-5,41,7
1532295765327,1,-2,1,2,6,3,5,3
1532295765332,-1,-3,0,-6,-18,-8,-10,-5
1532295765337,-2,-2,-1,1,-6,-1,0,-3
1532295765342,0,-2,-8,-1,-4,-3,-15,-4
1532295765347,1,4,0,3,3,5,-14,0
1532295765352,1,0,1,7,16,16,24,4
1532295765357,-2,-1,2,0,-2,-1,-22,-2
1532295765362,1,-3,0,0,0,-23,2,-4
1532295765367,5,1,0,-7,-10,25,3,2
1532295765372,-7,-6,-3,-1,-4,-14,-8,-3
1532295765377,-7,-1,2,5,2,12,8,-4
1532295765382,2,-3,-1,-1,7,2,-6,0
1532295765387,-1,-3,0,0,-2,-27,-7,-9
1532295765392,-2,2,0,-3,-4,1,-5,7
1532295765397,2,-2,0,-3,3,5,6,2
1532295765402,0,-1,0,1,1,3,-7,-1
1532295765407,3,1,0,2,-4,-12,0,1
1532295765412,0,-3,-4,-2,1,2,-5,-6
1532295765417,-5,-1,-5,-1,1,4,5,-1
1532295765422,-8,-1,1,-1,-4,6,0,-1
1532295765427,9,3,7,3,-3,-4,-1,4
1532295765432,2,5,-6,-4,4,3,7,-3
1532295765437,-7,-7,-21,-6,-3,-3,-8,-4
1532295765442,-7,4,20,0,-3,3,-15,-1
1532295765447,-1,-4,9,4,3,-15,-2,-4
1532295765452,-29,-6,-17,-8,-1,6,-1,-5
1532295765457,38,5,7,2,2,8,14,4
1532295765462,0,1,-9,-5,-1,-1,7,1
1532295765467,29,7,-1,1,-5,7,6,14
1532295765472,23,-1,11,4,3,-9,-38,3
1532295765477,-13,-3,-7,-1,-5,-18,7,-1
1532295765482,-7,-6,-4,2,5,-5,-6,8
1532295765487,-7,-3,0,-2,-3,1,29,5
1532295765492,-2,-1,-1,-4,-4,15,-2,18
1532295765497,1,1,5,1,7,42,4,3
1532295765502,4,0,-1,0,-7,-36,1,7
1532295765507,-11,1,-4,-2,1,8,-19,-4
1532295765512,8,1,0,-7,-10,2,22,-6
1532295765517,-8,3,7,5,10,-14,-17,-17
1532295765522,1,6,0,6,-1,-90,-62,-28
1532295765527,-11,-7,-10,-4,-3,49,10,-20
1532295765532,0,-1,1,4,4,91,51,13
1532295765537,0,-4,-1,-15,7,-3,1,-8
1532295765542,1,-2,-5,-6,-14,81,45,0
1532295765547,0,1,-5,0,1,-64,-15,-6
1532295765552,-2,2,6,7,1,-7,-13,-9
1532295765557,-6,-3,0,3,3,14,1,4
1532295765562,2,-2,-1,-1,5,-6,-12,1
1532295765567,-5,-3,-1,-2,-8,-34,-23,-2
1532295765572,6,6,3,9,14,14,54,4
1532295765577,1,1,-3,2,-2,-22,-21,10
1532295765582,-12,-7,-6,-10,-7,-2,-8,-8
1532295765587,6,5,0,-2,1,32,19,16
1532295765592,-12,-8,-1,-5,1,-37,-37,-10
1532295765597,-14,-3,-2,-8,-22,-1,14,-8
1532295765602,22,2,1,2,5,10,-7,11
1532295765607,-4,-1,1,7,17,9,-2,-2
1532295765612,3,1,-3,-3,-5,-25,-14,-9
1532295765617,-8,-2,-7,-6,-7,-5,0,-4
1532295765622,-9,-3,-2,0,4,20,-1,-12
1532295765627,-4,0,4,7,1,-6,9,-3
1532295765632,2,-1,3,5,14,-6,16,-2
1532295765637,3,0,2,-5,-8,-2,-9,-1
1532295765642,-4,-1,-7,-13,-19,6,7,5
1532295765647,-1,-3,-4,-5,8,-2,-3,3
1532295765652,-2,-1,4,-1,-14,-13,-23,2
1532295765657,2,3,1,4,5,10,11,3
1532295765662,2,0,0,1,12,6,11,4
1532295765667,-7,-2,-1,-4,-14,-8,-9,-1
1532295765672,-2,2,0,2,-26,-38,-17,-1
1532295765677,1,-2,-5,-7,13,-6,21,4
1532295765682,0,0,-2,-6,-26,-2,3,1
1532295765687,-1,-2,0,3,11,14,-6,-4
1532295765692,1,1,-1,1,-4,-2,-9,-4
1532295765697,4,2,6,11,20,-12,-5,0
1532295765702,-5,-2,-4,-4,-7,13,4,-6
1532295765707,-1,-3,-4,-8,-8,-2,-5,-2
1532295765712,2,0,0,-3,2,-2,1,-1
1532295765717,-3,-1,3,0,-4,1,-5,1
1532295765722,-1,-2,1,2,3,3,4,-1
1532295765727,0,-1,0,-3,-11,-3,1,0
1532295765732,-2,-5,-5,-8,9,-4,-24,-2
1532295765737,2,3,3,7,26,49,25,5
1532295765742,0,3,3,2,-28,-32,0,2
1532295765747,1,1,-3,-2,0,13,8,2
1532295765752,-4,-3,-4,-6,-11,-13,-17,-1
1532295765757,-3,-5,-6,-4,-16,-20,-36,-1
1532295765762,1,2,2,5,14,24,28,3
1532295765767,-2,1,-1,0,20,-18,-19,-5
1532295765772,0,-1,-1,-4,-13,-9,12,0
1532295765777,2,-2,-1,-2,4,29,-10,-1
1532295765782,0,-1,1,1,6,0,-7,-3
1532295765787,-3,0,0,3,1,-11,4,1
1532295765792,-1,-1,-1,-2,9,19,-1,0
1532295765797,-1,-2,-2,-2,-13,-43,-8,-5
1532295765802,-2,0,-1,-1,2,6,3,1
1532295765807,-4,-2,-2,0,1,10,11,-2
1532295765812,-2,-3,-2,0,8,-17,-19,-3
1532295765817,0,1,0,-7,-22,19,12,2
1532295765822,0,1,2,0,4,-24,-24,1
1532295765827,0,-2,-3,4,4,-2,-5,2
1532295765832,-1,1,0,-3,-7,-10,-1,-4
1532295765837,-2,-3,-2,0,5,0,14,-3
1532295765842,0,-1,-3,-2,1,10,6,-3
1532295765847,-1,0,2,-1,0,5,0,-1
1532295765852,0,2,1,-1,-11,-26,2,0
1532295765857,0,0,0,-3,-8,18,-29,-1
1532295765862,-2,-2,-1,-1,6,3,20,-2
1532295765867,-3,-1,-1,-2,-8,-6,4,1
1532295765872,-1,-2,1,4,3,3,14,0
1532295765877,-1,-2,-1,-2,0,-19,-5,-2
1532295765882,2,0,1,1,4,27,-1,3
1532295765887,-1,-3,-2,-5,-6,-7,-4,-6
1532295765892,-2,-1,-2,-3,0,5,-6,-3
1532295765897,-1,2,1,3,-3,-10,5,1
1532295765902,1,0,0,2,18,14,-5,3
1532295765907,0,-2,-3,2,1,-14,-2,-1
1532295765912,-2,-2,-5,-4,-9,-1,-2,-2
1532295765917,0,-1,1,1,-2,-6,2,0
1532295765922,-2,-1,-1,2,-2,-33,4,1
1532295765927,-3,0,-1,0,-3,41,-9,0
1532295765932,-1,-1,-3,-1,-3,2,-13,-2
1532295765937,-1,0,-2,-1,1,20,17,-4
1532295765942,-2,1,-1,0,4,-13,-6,2
1532295765947,1,1,1,-1,-2,4,14,1
1532295765952,1,-2,1,1,4,12,1,1
1532295765957,-3,1,-1,1,-2,-45,-29,-3
1532295765962,0,-3,-3,-4,-6,8,22,-2
1532295765967,-2,0,1,-1,-2,-9,-18,2
1532295765972,-2,-1,-3,-2,2,10,11,-2
1532295765977,0,-2,0,-7,2,10,9,0
1532295765982,0,-1,-1,1,-2,2,-14,-3
1532295765987,0,-1,1,-2,-6,-12,1,-5
1532295765992,0,-1,0,1,-2,4,5,-2
1532295765997,-1,0,0,3,-1,-5,-3,-5
1532295766002,-4,-2,-2,-3,26,14,2,-3
1532295766007,-1,-2,-5,-8,-24,-13,-9,0
1532295766012,2,2,2,0,2,1,10,5
1532295766017,-2,0,2,1,-7,8,-2,-2
1532295766022,2,-1,3,5,6,-10,3,-1
1532295766027,-2,-1,-2,-3,6,8,-1,-4
1532295766032,0,-1,-2,-2,1,-19,-3,-1
1532295766037,-1,-4,-4,-6,-4,2,0,1
1532295766042,-2,-1,-1,0,2,30,23,-1
1532295766047,1,1,3,3,-1,-34,-13,0
1532295766052,0,1,1,5,4,25,-4,-1
1532295766057,0,-2,-3,-5,2,-15,-6,-2
1532295766062,-1,-1,-5,-7,-13,-11,-11,-2
1532295766067,-2,-1,3,1,3,3,7,0
1532295766072,-1,-3,-1,-2,-3,-6,-6,-1
1532295766077,1,0,1,3,-2,3,7,3
1532295766082,1,0,1,1,-6,7,-8,-1
1532295766087,2,0,-1,-4,2,0,2,6
1532295766092,-3,-2,0,-2,4,1,1,-4
1532295766097,-2,-3,0,-2,-2,1,5,-2
1532295766102,-3,-2,-1,-2,-14,-9,-10,-2
1532295766107,-2,-2,-3,-1,6,3,1,-1
1532295766112,-1,-2,0,2,4,1,4,-3
1532295766117,3,0,-2,-2,-11,-5,3,3
1532295766122,-2,1,-2,-1,-4,-10,-31,-6
1532295766127,0,-3,-2,-2,-4,16,41,3
1532295766132,-1,-2,-2,0,1,3,-3,2
1532295766137,-2,-1,-2,3,4,-15,-5,-4
1532295766142,0,-1,0,1,1,-4,-3,0
1532295766147,-3,-1,0,-3,-6,-6,-7,-5
1532295766152,1,0,0,-2,-2,0,-5,-4
1532295766157,-1,-2,0,2,2,9,-1,7
1532295766162,-1,2,2,4,-1,-7,27,0
1532295766167,2,-1,-1,1,6,6,2,5
1532295766172,1,1,2,-2,0,11,-2,6
1532295766177,0,1,-2,-1,6,5,15,0
1532295766182,-2,-3,-5,-6,-9,-2,-26,-6
1532295766187,1,1,0,-1,-4,-11,7,-1
1532295766192,2,1,-1,0,4,-1,-7,6
1532295766197,3,0,3,0,0,4,-10,-3
1532295766202,1,1,0,1,1,0,4,4
1532295766207,-6,-3,-3,0,-1,-4,-13,-8
1532295766212,-4,-2,-1,-1,1,-7,-2,-5
1532295766217,-2,-1,-3,-1,-5,0,8,2
1532295766222,-2,1,3,2,1,-2,-7,-4
1532295766227,5,2,-2,1,2,3,-9,9
1532295766232,0,-1,-2,-4,-5,-1,8,4
1532295766237,-3,-2,0,-3,-1,1,-7,-4
1532295766242,1,-2,0,-4,-5,-3,8,-4
1532295766247,1,-1,-2,-1,-1,-6,-4,-3
1532295766252,0,-1,0,4,8,-3,-5,1
1532295766257,0,0,0,2,-5,2,9,0
1532295766262,-1,-4,-4,-3,4,3,-5,1
1532295766267,-3,0,2,-3,-5,3,-4,-7
1532295766272,-2,-4,-7,-3,-4,-14,-11,-4
1532295766277,-6,-3,-2,-1,-4,13,8,-5
1532295766282,1,-1,0,2,5,2,8,8
1532295766287,1,-1,-1,0,2,1,-6,0
1532295766292,-2,-1,1,0,-3,10,19,-11
1532295766297,-2,-1,-1,-1,-2,-7,-12,5
1532295766302,0,-1,-2,-1,1,0,-4,-3
1532295766307,-1,-2,-2,-2,0,-2,-2,-1
1532295766312,-4,-2,-2,-5,-5,-2,-3,-3
1532295766317,0,-2,-1,-2,4,-4,-7,-4
1532295766322,-4,0,4,7,4,7,2,-10
1532295766327,1,0,-2,1,2,-5,-1,9
1532295766332,0,-1,-3,-9,1,-2,0,-3
1532295766337,-1,1,0,0,-4,-2,5,-5
1532295766342,0,-2,-1,-6,-6,-8,-16,15
1532295766347,-1,-3,0,4,0,2,1,-7
1532295766352,-1,0,0,4,4,1,4,2
1532295766357,-4,-2,-3,-3,-1,-2,-6,-4
1532295766362,2,-1,-1,-2,-2,0,2,1
1532295766367,-4,-1,-2,-2,1,0,3,-9
1532295766372,2,-1,-1,-1,-6,-3,-1,8
1532295766377,3,0,0,-1,-3,-8,-1,8
1532295766382,-1,-1,0,-1,1,10,9,-6
1532295766387,-2,-2,-3,-5,-3,-1,1,4
1532295766392,-4,-2,1,-1,-4,1,1,-13
1532295766397,-4,-1,0,0,-1,-12,-19,-8
1532295766402,1,0,-2,-1,-2,11,9,11
1532295766407,1,0,3,-1,1,-9,-14,-1
1532295766412,-3,0,0,0,-1,-2,3,-9
1532295766417,-2,-3,-3,-3,1,-1,9,1
1532295766422,-1,0,-2,-1,-2,1,5,-1
1532295766427,-2,-2,-1,1,-4,0,-4,-6
1532295766432,2,-1,-1,1,2,-1,0,8
1532295766437,-1,-2,-1,-3,1,4,1,-2
1532295766442,-2,-1,-1,-3,-2,0,5,-6
1532295766447,-2,-1,-2,-4,-8,-8,-9,-1
1532295766452,1,-2,2,4,3,-5,-8,6
1532295766457,1,0,0,-1,-2,8,10,5
1532295766462,0,-2,-4,-2,-1,-9,9,-5
1532295766467,0,-3,0,-2,3,2,5,5
1532295766472,-1,0,1,2,-1,0,8,-4
1532295766477,0,0,3,5,9,3,-11,-2
1532295766482,-3,-4,-4,-9,-5,3,-5,0
1532295766487,4,3,2,5,2,1,3,0
1532295766492,-1,0,-3,-4,-5,1,6,-3
1532295766497,2,-1,-1,-1,1,-6,-8,1
1532295766502,-1,-1,1,2,-3,1,2,-2
1532295766507,-4,-2,-2,2,8,5,-1,-5
1532295766512,3,0,-1,-3,-3,2,-3,3
1532295766517,-1,-2,-4,-10,-12,-3,1,-2
1532295766522,0,0,0,1,3,-2,-4,-2
1532295766527,-4,-1,-1,-3,-5,-3,-1,-6
1532295766532,0,-1,0,4,4,2,-1,0
1532295766537,1,1,0,2,-1,2,2,8
1532295766542,1,0,0,4,1,-9,-8,3
1532295766547,-3,-4,-2,-2,-1,2,2,-2
1532295766552,-1,0,-1,-3,0,1,-1,-2
1532295766557,-3,-1,-1,-2,2,-3,-1,-5
1532295766562,1,0,0,-1,-1,-1,-2,0
1532295766567,0,0,-2,-1,-5,1,1,1
1532295766572,-1,-2,-2,-3,-4,-9,-8,-5
1532295766577,-2,0,-1,1,-3,-4,-1,-11
1532295766582,-1,1,0,-1,0,-2,0,8
1532295766587,0,2,0,-1,3,4,1,-2
1532295766592,-1,0,-1,-1,-2,1,0,2
1532295766597,-1,-1,-3,-1,-1,0,4,0
1532295766602,-3,-3,0,-5,-2,-1,-4,-9
1532295766607,1,-2,-2,-1,0,1,6,-1
1532295766612,-1,-2,0,1,-2,0,-9,-3
1532295766617,-2,-1,0,3,4,-2,1,-1
1532295766622,-2,1,0,1,1,1,-1,-5
1532295766627,0,-1,0,-2,-2,-1,0,3
1532295766632,-2,0,-1,4,3,-4,-3,-1
1532295766637,-1,-1,-5,-6,-1,1,2,0
1532295766642,-4,-2,1,-3,-3,-4,-4,-6
1532295766647,1,-1,0,0,-3,2,0,-2
1532295766652,-1,1,1,-2,-4,1,4,-5
1532295766657,2,0,1,6,8,-9,-14,0
1532295766662,0,-1,-2,-4,-4,-7,-9,-1
1532295766667,-1,0,-2,-3,-8,-3,1,-3
1532295766672,0,-1,-3,4,2,6,2,1
1532295766677,0,1,-3,-7,4,1,-2,6
1532295766682,-1,-2,2,3,-3,2,-3,-5
1532295766687,0,0,1,1,6,0,2,0
1532295766692,2,1,-1,-3,-2,-4,-5,1
1532295766697,0,-1,-12,5,-1,4,2,-3
1532295766702,2,1,14,-1,1,-1,3,-1
1532295766707,-2,-1,-4,-6,-5,-6,-2,2
1532295766712,-2,-3,-5,-1,2,1,6,-1
1532295766717,0,0,5,7,5,3,4,-3
1532295766722,-1,0,-6,-1,7,-1,-1,-1
1532295766727,-1,-3,-1,-7,-10,-3,-6,-2
1532295766732,0,0,-2,-7,-5,-5,-3,2
1532295766737,-3,-3,0,-8,-12,-6,-4,-5
1532295766742,0,-1,-1,1,-4,1,-4,6
1532295766747,-1,-1,-3,3,10,2,-1,-1
1532295766752,-1,0,0,2,1,1,-1,-3
1532295766757,-1,-3,1,4,-4,-3,1,-8
1532295766762,0,0,-3,-3,0,0,0,-8
1532295766767,0,-1,4,2,-1,-2,-4,-6
1532295766772,-2,-1,5,-2,3,-2,-6,-8
1532295766777,-3,0,-5,-2,-1,-2,0,-7
1532295766782,-2,-1,3,0,-3,-1,-2,-5
1532295766787,0,-1,-11,-4,0,0,4,-4
1532295766792,0,0,-7,-1,-4,1,0,-5
1532295766797,1,-1,21,0,-3,0,2,-2
1532295766802,-3,-2,-18,-8,-4,-2,-4,-12
1532295766807,-1,-2,-4,-4,-8,-5,1,-4
1532295766812,-4,-1,4,2,1,-5,-2,-14
1532295766817,2,1,-3,3,1,5,0,2
1532295766822,1,0,1,3,7,12,14,-2
1532295766827,1,1,-4,1,0,-4,-5,-8
1532295766832,-4,0,3,2,0,-4,-4,-15
1532295766837,-1,-3,-5,-8,-3,-2,-3,-4
1532295766842,1,0,0,0,-3,3,-7,-16
1532295766847,1,1,0,0,0,0,8,1
1532295766852,1,0,8,4,2,0,-6,-9
1532295766857,-3,0,-2,-3,-1,-6,-3,-1
1532295766862,-2,-2,-7,-4,-7,0,4,6
1532295766867,-1,0,4,1,1,5,3,0
1532295766872,0,0,7,-1,-4,-1,0,-6
1532295766877,-1,-3,-17,-5,-4,-8,-2,-5
1532295766882,1,1,1,4,8,5,1,2
1532295766887,-2,0,4,-1,-3,-1,0,12
1532295766892,0,0,3,0,4,4,5,27
1532295766897,0,-1,-2,-2,0,1,4,29
1532295766902,-2,-2,-4,-4,-7,-12,-10,33
1532295766907,-1,-2,1,2,4,3,6,24
1532295766912,-2,-1,-5,-5,-7,-7,-6,24
1532295766917,1,0,3,2,2,0,0,19
1532295766922,-1,0,-2,4,7,1,2,14
1532295766927,-2,-3,-3,-3,-3,2,7,13
1532295766932,1,-1,-4,-4,-6,3,3,8
1532295766937,-4,-1,-3,-6,-9,-10,-18,3
1532295766942,-2,0,2,3,-1,1,12,5
1532295766947,-1,-2,0,-2,0,2,-5,5
1532295766952,0,0,2,1,4,2,8,4
1532295766957,-3,-3,-1,-4,-10,-11,-9,0
1532295766962,-1,-1,0,2,-2,1,-9,3
1532295766967,1,1,0,3,9,3,7,3
1532295766972,-1,0,-3,-6,-5,3,1,0
1532295766977,-2,-3,-3,-3,-2,-1,-1,0
1532295766982,0,-1,-2,1,1,-3,7,1
1532295766987,0,1,1,5,6,1,-2,0
1532295766992,-2,-1,-2,2,0,-1,-4,0
1532295766997,0,0,0,-1,1,6,11,-1
1532295767002,-2,-1,-3,-6,-11,-4,0,1
1532295767007,1,-1,-4,-8,-4,0,2,0
1532295767012,-2,-2,-1,-3,-1,-8,-18,1
1532295767017,-1,1,2,6,3,5,9,0
1532295767022,1,-1,0,2,2,1,-1,0
1532295767027,-2,0,-1,1,-1,-3,-12,0
