1532114267463,1,0,-3,-1,0,-4,-5,2
1532114267468,0,2,2,2,12,1,-7,0
1532114267473,-2,-2,-1,-2,-8,-2,-1,-2
1532114267478,-2,1,3,0,10,2,3,1
1532114267483,-2,-2,-3,-3,-4,-1,0,-3
1532114267488,1,-1,2,-1,-23,-2,-4,1
1532114267493,2,2,3,23,-2,-2,-11,-1
1532114267498,24,5,8,20,2,-1,17,7
1532114267503,22,-9,-16,-35,-5,0,4,6
1532114267508,-18,3,3,29,3,6,9,-12
1532114267513,12,1,3,34,3,-6,-19,-9
1532114267518,-20,-8,-8,-33,0,1,-12,3
1532114267523,65,6,7,55,-2,6,38,9
1532114267528,-64,-8,-19,-117,-1,-5,-32,-18
1532114267533,11,-3,-21,-81,-4,4,53,18
1532114267538,30,13,43,104,3,-1,-5,8
1532114267543,-13,-1,5,-8,0,-1,-9,-21
1532114267548,5,0,2,-29,-1,0,4,10
1532114267553,28,-2,-2,-3,1,-5,-16,3
1532114267558,49,-1,-12,-31,-13,0,-1,-19
1532114267563,-33,-16,-22,-11,-4,-6,-2,21
1532114267568,-35,14,35,76,-4,4,9,-4
1532114267573,-2,-3,4,-3,-13,-5,-43,-16
1532114267578,21,-2,-7,10,-3,-1,27,5
1532114267583,-5,-5,-14,-27,-10,0,-2,-13
1532114267588,-15,-4,-15,-4,-15,-2,-2,0
1532114267593,19,4,11,42,-12,3,-7,5
1532114267598,-5,-8,-9,-48,5,-2,-6,-5
1532114267603,4,4,14,4,0,-2,-8,-8
1532114267608,-24,2,1,32,9,3,3,17
1532114267613,29,2,3,-42,14,-1,24,-3
1532114267618,35,2,-2,-9,9,2,5,1
1532114267623,-71,7,9,31,20,2,-1,27
1532114267628,5,-7,-11,-16,1,1,-16,-15
1532114267633,2,1,-2,23,0,6,33,3
1532114267638,13,-2,-8,-9,10,-3,-3,17
1532114267643,-12,1,2,0,8,5,19,-17
1532114267648,24,1,0,4,4,-2,-7,-2
1532114267653,-4,-2,-2,-28,-2,-5,-29,-7
1532114267658,15,0,-4,-13,2,1,-3,-4
1532114267663,-10,2,9,53,-5,-1,-9,2
1532114267668,-5,0,-9,-45,1,0,0,-9
1532114267673,14,-7,1,14,-2,-1,-9,9
1532114267678,-13,4,6,-10,4,2,19,-9
1532114267683,1,2,-6,-4,1,-1,-10,3
1532114267688,-4,4,3,1,-5,0,10,2
1532114267693,25,-3,3,28,3,0,1,-14
1532114267698,-33,-9,-5,8,1,-5,-12,10
1532114267703,18,-1,0,-13,-5,0,-12,-4
1532114267708,-102,-1,-2,2,3,5,40,3
1532114267713,27,3,-2,-10,1,-10,0,-6
1532114267718,18,2,4,19,-5,0,11,4
1532114267723,8,-6,-9,-21,1,-4,-22,-2
1532114267728,27,2,3,18,-3,0,-21,2
1532114267733,-62,1,1,-6,-7,4,7,-12
1532114267738,4,0,-2,-3,-1,0,0,0
1532114267743,16,1,2,10,5,-6,2,-4
1532114267748,4,-7,-7,-12,-7,-2,-10,-3
1532114267753,34,0,3,12,-1,2,9,10
1532114267758,19,-1,-8,-44,-20,0,-1,-2
1532114267763,-42,-2,0,-15,0,0,5,-7
1532114267768,37,4,6,35,-5,-3,-10,-3
1532114267773,-46,-11,-13,-30,1,0,-3,13
1532114267778,20,0,5,32,6,0,-2,-6
1532114267783,-11,-1,2,2,0,0,10,10
1532114267788,36,3,1,-10,1,-4,-13,3
1532114267793,-32,1,-1,3,-6,1,0,-5
1532114267798,-9,-3,-12,-28,3,-4,3,1
1532114267803,1,1,6,51,0,-1,1,0
1532114267808,8,0,4,18,3,-1,-6,-9
1532114267813,24,5,2,2,0,0,-10,7
1532114267818,26,3,6,-12,-1,2,-2,1
1532114267823,-55,1,-4,-13,1,0,-1,-6
1532114267828,-32,-7,-2,4,-2,4,10,-1
1532114267833,53,-1,-2,-4,-3,-8,0,0
1532114267838,53,0,1,13,0,0,1,-10
1532114267843,-66,-10,-6,-1,9,-4,-3,-1
1532114267848,-20,-3,-5,-30,-9,-5,-10,-7
1532114267853,1,-7,-6,-8,0,-2,4,-4
1532114267858,-18,-2,-1,-7,-4,-3,-5,-4
1532114267863,32,-3,-8,-4,-14,-4,-15,-3
1532114267868,-25,2,5,12,3,4,18,13
1532114267873,29,-1,4,-3,-14,2,-2,-4
1532114267878,-42,-5,-2,17,12,0,7,-11
1532114267883,-4,12,15,31,0,3,4,2
1532114267888,2,-9,-11,-14,-1,-4,-9,3
1532114267893,13,0,-2,-25,4,1,-4,-1
1532114267898,8,-2,2,7,-8,0,3,8
1532114267903,37,1,-3,2,1,-2,-3,-5
1532114267908,-52,-1,1,3,-3,0,-2,-5
1532114267913,25,6,4,-8,-6,3,9,-2
1532114267918,68,1,-2,9,-2,-4,-9,2
1532114267923,-86,-7,-3,2,1,0,6,-11
1532114267928,19,-1,-5,-1,-6,-7,-10,-2
1532114267933,12,-6,-5,-19,-4,-2,-3,-5
1532114267938,16,9,7,8,-8,10,-46,15
1532114267943,-32,-7,-5,13,16,16,68,-6
1532114267948,-76,-5,-1,-19,-9,-1,-4,-12
1532114267953,-6,-2,4,45,16,0,-6,7
1532114267958,22,-4,-9,20,3,-1,17,-1
1532114267963,2,2,6,21,-5,1,-12,1
1532114267968,-30,-4,-3,-10,8,-17,6,-7
1532114267973,-19,-2,-1,-24,-24,3,-9,-2
1532114267978,13,1,3,-4,-7,-2,-7,3
1532114267983,2,-1,-12,7,3,4,5,-2
1532114267988,-15,-7,-2,-59,-7,-14,3,-4
1532114267993,14,5,18,63,-1,1,-1,-2
1532114267998,14,-2,4,20,4,-3,-3,-3
1532114268003,-37,3,1,3,0,8,-3,2
1532114268008,7,0,-1,-5,9,2,11,-5
1532114268013,16,-4,1,-14,3,4,2,6
1532114268018,-19,0,2,20,9,-6,8,-4
1532114268023,10,-4,-7,-35,-14,-8,-11,-2
1532114268028,-2,-2,0,-1,-11,4,1,-1
1532114268033,6,3,4,-5,-4,6,3,3
1532114268038,23,3,-5,-16,0,-8,1,-1
1532114268043,-6,0,-9,18,1,2,8,-2
1532114268048,-11,-7,10,7,16,0,-4,-2
1532114268053,-4,4,2,11,-3,4,9,2
1532114268058,4,2,9,-8,-8,-1,-2,-2
1532114268063,-7,1,0,-58,2,-2,5,0
1532114268068,-15,-2,-4,64,-1,-1,1,-1
1532114268073,10,1,-5,-31,-4,-1,-9,1
1532114268078,5,-2,-4,18,-3,1,5,-3
1532114268083,-8,-4,-4,-11,-4,-4,1,-4
1532114268088,-1,-2,-4,-12,3,-2,-5,-3
1532114268093,-1,-4,-4,-8,-4,0,2,1
1532114268098,9,5,1,20,0,5,3,5
1532114268103,-10,2,3,5,-5,-5,4,-4
1532114268108,-6,-7,-6,-14,-4,-2,-6,-5
1532114268113,14,0,1,5,1,3,1,-3
1532114268118,-20,-8,-8,-12,0,-4,0,-3
1532114268123,5,3,9,33,1,0,-3,3
1532114268128,-5,1,-6,-17,1,-1,-2,0
1532114268133,5,0,2,-4,-6,0,0,1
1532114268138,7,-2,2,12,1,-3,-1,-1
1532114268143,-3,-1,-2,-2,0,0,1,0
1532114268148,-3,-2,-4,-10,0,-1,-2,-2
1532114268153,-5,-2,-5,-3,-1,1,4,1
1532114268158,1,-3,2,5,-1,-2,-2,-5
1532114268163,-4,-2,-1,4,1,0,1,0
1532114268168,-2,5,3,2,0,-2,0,-2
1532114268173,-2,3,1,-6,-2,2,-1,2
1532114268178,-2,-7,-5,5,-2,-2,2,1
1532114268183,-1,-3,-5,-11,0,-2,-1,-3
1532114268188,1,-1,0,-4,-1,0,-2,0
1532114268193,-1,0,0,3,1,3,1,-1
1532114268198,0,4,6,8,1,-1,0,-1
1532114268203,-2,-1,-1,-14,-3,3,1,3
1532114268208,-3,-1,-3,-1,-1,-1,-2,-1
1532114268213,-7,-5,-5,0,-2,-1,-3,-1
1532114268218,4,2,2,2,-1,2,0,-3
1532114268223,1,-4,-6,-6,-1,-3,-3,0
1532114268228,-2,2,3,1,-1,-1,1,-1
1532114268233,17,-2,0,-1,-3,-3,-2,3
1532114268238,-5,-1,-5,0,-2,3,-1,1
1532114268243,-19,-4,0,-2,0,-1,1,-3
1532114268248,11,-2,-2,-2,0,1,-1,-1
1532114268253,-20,-4,-2,1,1,-2,0,-2
1532114268258,20,5,3,5,2,-2,-3,1
1532114268263,-8,1,-3,-2,-2,-2,0,-1
1532114268268,-11,0,2,0,-1,1,-4,-9
1532114268273,4,-1,-6,-3,-2,0,0,5
1532114268278,-3,-2,-1,0,-1,0,-1,0
1532114268283,4,3,5,-2,-3,-1,-1,2
1532114268288,-3,-7,-9,-3,-5,-6,-3,0
1532114268293,-4,1,-1,0,-3,0,-3,-1
1532114268298,-3,-2,0,0,-2,1,1,-1
1532114268303,30,4,3,2,2,-3,-2,-1
1532114268308,-4,0,-5,-1,1,0,-2,-4
1532114268313,-16,-1,3,0,2,-2,1,0
1532114268318,-6,1,2,0,0,3,0,7
1532114268323,15,-1,-5,-4,-1,0,-1,-3
1532114268328,-14,-1,0,1,-1,-2,-2,-3
1532114268333,21,-1,-2,0,-1,-1,-3,1
1532114268338,-20,1,1,7,4,1,1,-1
1532114268343,11,0,1,0,3,1,-1,-4
1532114268348,4,-2,-2,-4,-2,-3,-1,-1
1532114268353,-5,0,-3,-11,-8,-1,-2,-2
1532114268358,-12,-2,-3,-2,1,1,0,0
1532114268363,3,1,0,4,3,-4,0,-3
1532114268368,16,0,-2,-2,1,0,1,2
1532114268373,-8,-5,-3,4,2,-1,-1,-3
1532114268378,-16,0,2,0,0,1,0,-1
1532114268383,12,-3,-3,-2,-3,-4,-2,-1
1532114268388,6,-1,0,1,0,4,1,0
1532114268393,-9,6,3,0,-1,-4,3,-3
1532114268398,50,-3,-3,-2,-2,-2,-9,1
1532114268403,-75,-2,-2,0,3,2,21,2
1532114268408,4,0,-2,-2,-3,-4,-12,-5
1532114268413,-18,-1,-1,2,-2,0,-2,-2
1532114268418,2,2,2,0,-3,-2,-1,0
1532114268423,24,0,0,-10,-6,0,-5,0
1532114268428,-6,-3,3,8,-5,1,1,-2
1532114268433,5,-3,-4,-5,-5,0,-2,0
1532114268438,-17,3,4,4,1,-4,-1,-3
1532114268443,19,-5,-2,-5,-8,-2,-5,-2
1532114268448,-12,0,2,1,5,4,2,-2
1532114268453,10,2,-1,1,6,-7,-4,-1
1532114268458,-2,-1,-1,-1,-6,12,0,-2
1532114268463,1,-4,2,3,4,0,-2,-1
1532114268468,-8,1,2,-3,-1,-1,-1,0
1532114268473,13,-3,-1,1,-1,-4,-4,-1
1532114268478,-4,0,0,1,-2,-6,2,0
1532114268483,2,-3,-2,-5,-8,0,-1,-1
1532114268488,-3,-1,-2,-2,0,-1,0,0
1532114268493,5,-2,-2,2,-3,2,1,3
1532114268498,-15,1,0,-3,-4,-4,-2,-1
1532114268503,5,1,4,4,3,1,-1,-1
1532114268508,3,-3,-5,0,-7,-1,-3,2
1532114268513,-4,3,1,-1,1,4,-1,-4
1532114268518,3,0,-1,-3,-1,-5,0,-1
1532114268523,5,5,1,0,-7,-2,4,4
1532114268528,-9,-3,-1,1,4,3,-5,-4
1532114268533,6,-6,-6,0,10,1,1,-2
1532114268538,2,-3,-1,3,-26,-7,-5,1
1532114268543,-7,-1,-3,-20,1,4,-18,-10
1532114268548,4,3,5,18,18,-2,30,12
1532114268553,-4,-6,-8,-3,-10,-3,-5,-4
1532114268558,-9,-3,-6,-6,12,-10,-21,-11
1532114268563,-1,2,-3,-13,-30,-1,10,16
1532114268568,4,-7,-3,-18,62,-18,-18,1
1532114268573,23,2,1,-7,-59,14,13,-10
1532114268578,-33,-6,-7,18,18,-6,-15,-4
1532114268583,18,4,5,8,10,10,52,-10
1532114268588,-4,3,-5,-18,-21,-1,-23,37
1532114268593,-8,0,-1,8,32,-4,5,-47
1532114268598,18,1,3,-4,5,5,4,-2
1532114268603,4,-4,1,-14,-4,-3,-8,6
1532114268608,1,-6,-10,-8,-7,-3,4,-1
1532114268613,-3,-3,1,4,10,3,-1,9
1532114268618,-1,1,5,10,9,7,-1,-12
1532114268623,-5,0,-2,0,-65,-13,-6,5
1532114268628,6,1,5,-6,62,4,6,4
1532114268633,-4,-5,-7,-4,10,-3,-6,-3
1532114268638,-3,-2,-3,4,-19,-2,0,-7
1532114268643,-4,-2,1,-5,17,4,-2,3
1532114268648,2,2,3,7,-17,0,7,4
1532114268653,1,0,-6,-4,-3,-3,-6,-4
1532114268658,8,1,1,-4,-3,-3,0,-7
1532114268663,-17,-2,0,3,12,2,0,6
1532114268668,3,-1,-1,-5,-14,-6,2,2
1532114268673,3,-3,-2,3,4,0,-6,-2
1532114268678,-5,2,2,2,-13,1,-7,-10
1532114268683,-1,3,6,5,14,0,3,6
1532114268688,-3,-2,-4,-3,-10,4,2,-4
1532114268693,-11,-2,-4,-2,-6,-11,-2,-2
1532114268698,5,0,0,-7,-2,-1,-1,1
1532114268703,-5,0,0,10,-13,2,-4,-3
1532114268708,-4,-2,-1,3,0,0,1,-1
1532114268713,20,0,-4,-8,0,-2,20,26
1532114268718,-40,-1,-3,7,5,-2,-12,-10
1532114268723,-2,-3,-3,-7,-23,-8,-1,0
1532114268728,11,2,-1,2,-7,3,2,1
1532114268733,-11,2,-1,2,5,1,-11,-7
1532114268738,-2,3,4,-1,1,-2,7,4
1532114268743,2,-2,4,4,11,1,-1,-4
1532114268748,6,-3,-5,-1,0,-1,-2,0
1532114268753,-8,-3,-3,-4,-2,-3,-5,-5
1532114268758,0,-3,-3,-3,-4,2,2,3
1532114268763,0,4,1,-5,-5,0,-8,-3
1532114268768,-1,0,2,4,11,0,6,0
1532114268773,3,0,-1,-3,0,4,-2,1
1532114268778,-10,-1,0,-1,-5,-4,-3,2
1532114268783,7,1,0,0,8,2,3,-2
1532114268788,1,-6,-3,-7,-11,-2,-6,0
1532114268793,-1,1,-1,0,6,-2,-3,-2
1532114268798,1,-1,-1,2,17,1,7,0
1532114268803,-1,-1,-4,-1,3,0,0,-1
1532114268808,1,1,1,-2,-20,1,3,0
1532114268813,-4,-2,2,-1,1,-2,-2,0
1532114268818,3,-1,-5,-1,-19,-4,-13,-1
1532114268823,-4,-1,-1,-4,29,8,-1,-4
1532114268828,5,3,1,10,-25,2,13,12
1532114268833,-6,-3,-5,-3,-2,-4,-1,-5
1532114268838,5,1,-2,-4,0,1,3,-2
1532114268843,-9,-3,0,-1,-10,-5,-6,-3
1532114268848,1,-3,3,0,9,-1,-5,-4
1532114268853,1,1,0,-3,-11,-1,-1,1
1532114268858,7,0,0,0,0,0,4,5
1532114268863,-2,0,-2,3,4,0,-3,-2
1532114268868,0,0,-2,-7,4,-1,4,-1
1532114268873,-3,0,0,3,1,-3,-14,-4
1532114268878,-1,-4,-1,-2,4,-2,7,5
1532114268883,1,-1,-1,3,-7,-2,-6,-3
1532114268888,-1,-2,-3,-5,3,-1,3,-1
1532114268893,9,-2,-4,-2,-1,-2,0,1
1532114268898,-12,-1,2,0,-5,-1,-9,-1
1532114268903,0,0,-1,-1,-5,0,3,-1
1532114268908,0,-1,1,0,8,-3,-3,0
1532114268913,-4,1,1,1,-12,3,6,-9
1532114268918,-11,-4,-3,-3,-2,-2,5,6
1532114268923,9,-3,-4,-1,-3,-3,14,7
1532114268928,-4,0,-2,2,10,1,-1,-2
1532114268933,-25,1,-1,-7,-5,0,-2,1
1532114268938,30,-4,-5,6,3,-1,-1,-9
1532114268943,-19,-1,-2,-7,-6,-1,-19,-6
1532114268948,11,-1,0,-1,6,-2,9,6
1532114268953,1,-1,2,-2,1,1,1,-4
1532114268958,-5,0,1,-1,-6,1,6,-3
1532114268963,0,0,1,1,0,-2,-3,3
1532114268968,7,-1,-4,0,0,-1,-9,-7
1532114268973,-6,-2,-2,1,-3,0,4,3
1532114268978,-3,0,-4,-1,2,-1,-5,-2
1532114268983,14,1,2,1,-2,-2,3,0
1532114268988,-12,-2,-1,-3,-6,2,0,-2
1532114268993,5,3,3,5,6,-3,2,1
1532114268998,-2,-1,-1,-2,-2,0,-4,2
1532114269003,0,0,-1,1,2,-1,2,-1
1532114269008,-2,0,0,-2,17,-2,-3,-4
1532114269013,1,-1,1,4,7,2,1,4
1532114269018,-2,-2,-2,-3,-3,1,4,-2
1532114269023,2,1,5,7,1,-2,-15,-4
1532114269028,-9,-6,-6,-9,-9,-2,2,-1
1532114269033,19,-1,-1,-1,3,-1,-4,-5
1532114269038,-13,1,-1,0,4,-1,2,11
1532114269043,-4,2,-2,-8,-12,-4,-14,-2
1532114269048,34,1,1,7,0,-1,13,8
1532114269053,-47,-4,-2,-3,2,-1,0,1
1532114269058,8,0,-4,-2,3,-3,-1,-4
1532114269063,-5,-1,0,2,-7,3,-3,-4
1532114269068,4,3,1,-2,-11,1,-6,3
1532114269073,10,0,-1,1,-4,0,2,1
1532114269078,-2,-1,2,-2,1,-2,-3,-1
1532114269083,1,-3,-5,3,11,-1,-2,-2
1532114269088,-13,-1,0,-2,-1,-1,-1,-7
1532114269093,6,-4,-4,-7,0,2,3,2
1532114269098,-4,0,6,-4,-25,-3,-7,-4
1532114269103,7,-4,-6,-1,19,-4,10,2
1532114269108,-9,-2,-1,-1,-19,0,-3,-3
1532114269113,-9,0,-1,0,16,-6,-15,-9
1532114269118,13,-2,-2,-2,-5,0,-9,0
1532114269123,-5,0,0,-2,-5,-2,10,2
1532114269128,-3,-4,-2,4,3,-1,-7,0
1532114269133,6,-1,1,-2,-4,0,0,-1
1532114269138,8,3,0,-1,-2,-3,-3,-6
1532114269143,-14,-2,2,1,-5,5,5,0
1532114269148,6,-2,-4,5,5,-1,-1,-2
1532114269153,4,-2,-1,-2,-6,-3,-2,-4
1532114269158,-7,2,3,8,7,1,1,-3
1532114269163,9,-2,-3,-9,-7,-1,-1,1
1532114269168,0,0,-1,-5,-5,-4,-2,-1
1532114269173,-1,-1,2,1,-1,1,-3,2
1532114269178,9,1,-4,-1,-2,-1,12,8
1532114269183,-19,-2,-1,-3,-1,-3,-4,-10
1532114269188,6,0,-2,-2,3,0,2,-2
1532114269193,5,0,-4,3,5,2,2,2
1532114269198,-5,0,-1,1,-5,-2,-7,-2
1532114269203,2,-1,0,8,-5,-1,2,-1
1532114269208,-10,-1,-2,-10,4,-3,-4,0
1532114269213,12,3,3,-2,-6,-1,1,2
1532114269218,-1,-4,-4,-3,-13,2,2,-3
1532114269223,-18,-3,-2,0,28,-1,-3,-2
1532114269228,-1,0,-1,3,1,-5,-1,0
1532114269233,5,-1,-2,-2,-3,3,2,2
1532114269238,1,-1,1,0,-1,-4,-7,-3
1532114269243,-18,4,-1,1,-7,1,4,-1
1532114269248,-3,-1,1,-7,-5,-3,-3,-4
1532114269253,-1,1,0,8,5,-1,-4,-4
1532114269258,2,-3,-2,0,10,0,-4,1
1532114269263,13,-2,-2,-4,-7,1,5,4
1532114269268,0,1,2,1,3,2,-2,2
1532114269273,-7,0,0,-4,-13,-2,2,-2
1532114269278,1,0,0,0,6,1,12,-2
1532114269283,5,-2,0,1,-4,-3,-16,-1
1532114269288,-5,0,0,2,-6,5,-3,-1
1532114269293,4,-1,1,-5,-15,-3,15,5
1532114269298,-9,-4,-7,1,10,1,-4,-2
1532114269303,8,3,1,-2,-6,-1,5,1
1532114269308,-3,-2,-2,4,7,-3,-2,0
1532114269313,-1,-2,0,1,4,-1,0,2
1532114269318,-1,1,4,-2,0,-1,-6,-5
1532114269323,-11,-3,-2,-2,0,-3,0,-1
1532114269328,-5,0,0,0,-11,0,-2,-3
1532114269333,-2,-2,-4,-3,12,-1,-3,-3
1532114269338,4,1,1,2,3,-2,1,3
1532114269343,12,0,0,1,-4,0,0,2
1532114269348,-2,-1,-1,0,5,-2,-3,0
1532114269353,-17,-1,-2,-1,-3,-3,-4,0
1532114269358,-1,2,0,-1,-4,-1,-2,-4
1532114269363,-15,1,1,-1,3,4,3,3
1532114269368,7,0,4,-3,-2,2,2,0
1532114269373,11,-3,-4,3,-2,-3,0,0
1532114269378,-6,-1,-4,-11,-5,-1,2,1
1532114269383,0,-1,1,-7,-13,-1,-6,-4
1532114269388,6,-3,-4,7,16,-1,0,1
1532114269393,1,0,1,0,-2,-5,-9,0
1532114269398,-7,-2,-4,-9,10,-1,-1,-7
1532114269403,13,0,-4,-1,-31,-2,-3,-4
1532114269408,7,0,-1,0,-1,4,4,0
1532114269413,-22,-4,2,4,0,1,1,0
1532114269418,-8,-4,-4,2,-1,0,-3,-1
1532114269423,8,0,3,-3,1,0,0,4
1532114269428,1,1,0,0,2,-4,-11,-6
1532114269433,1,-3,-6,-5,4,0,-2,1
1532114269438,4,2,4,1,-21,1,7,1
1532114269443,-5,-4,-3,2,12,-2,1,0
1532114269448,-4,-5,-6,-5,-7,-1,0,-5
1532114269453,1,-2,1,-5,1,1,-1,-5
1532114269458,-2,-1,-3,1,2,-3,-3,-2
1532114269463,10,0,1,8,11,3,1,-2
1532114269468,-9,1,2,-8,-10,-4,1,-1
1532114269473,9,3,0,-1,2,-1,-10,-4
1532114269478,2,-1,-1,-3,0,3,17,8
1532114269483,-7,-3,-3,4,2,-5,-19,-7
1532114269488,0,-2,1,-3,-19,-2,0,-1
1532114269493,2,-1,-2,1,23,1,-2,-1
1532114269498,1,1,3,2,-4,0,-2,2
1532114269503,-10,-1,-1,-1,-5,2,5,-5
1532114269508,11,-4,-3,1,-1,1,-11,2
1532114269513,11,1,-2,-2,-3,-3,11,1
1532114269518,-16,-4,-3,-5,6,-2,0,0
1532114269523,2,2,-1,-1,-8,-1,2,0
1532114269528,-7,-1,-1,-2,-3,-2,-9,-5
1532114269533,3,-3,-4,1,-2,0,-1,4
1532114269538,-3,1,-6,0,3,1,-3,-5
1532114269543,11,0,0,-4,-7,1,9,3
1532114269548,-2,1,1,8,10,-4,-19,-3
1532114269553,-1,0,-2,-8,-7,0,-2,-1
1532114269558,0,-2,3,4,18,1,4,1
1532114269563,0,-3,-4,-3,-20,-3,-4,0
1532114269568,-5,0,3,-1,12,4,13,0
1532114269573,5,2,1,2,-7,1,-9,-1
1532114269578,-1,-3,-8,-3,-5,0,-6,-4
1532114269583,-23,-5,0,5,-2,-2,-13,8
1532114269588,0,0,-2,-15,-8,-3,10,1
1532114269593,5,-2,2,7,4,1,5,0
1532114269598,3,-1,-1,-5,-11,1,-8,-2
1532114269603,6,2,0,7,8,0,0,-2
1532114269608,-6,-3,-3,1,0,0,-5,-1
1532114269613,20,4,-1,-5,-7,-1,-1,4
1532114269618,-22,-2,1,-2,1,-3,6,-6
1532114269623,3,-4,-5,-2,7,0,-13,-2
1532114269628,-7,-3,-4,-4,-2,0,5,1
1532114269633,4,0,0,0,-2,-3,-1,-5
1532114269638,-1,0,3,3,3,-2,-2,2
1532114269643,6,-2,-4,-1,-2,1,3,-4
1532114269648,0,-3,4,-3,-3,1,-1,6
1532114269653,-13,-3,-4,-4,4,1,-1,-6
1532114269658,10,0,-2,0,-25,-4,-2,-1
1532114269663,-16,-3,-1,1,9,-1,7,10
1532114269668,13,4,2,8,5,0,-7,-4
1532114269673,-15,-4,2,-1,5,1,0,-5
1532114269678,3,0,-3,-6,-11,-3,8,5
1532114269683,11,3,0,-7,-8,1,0,-4
1532114269688,-6,-4,-3,1,-6,0,4,1
1532114269693,-2,-2,1,2,5,1,-5,-3
1532114269698,5,0,0,3,9,-1,7,8
1532114269703,27,2,1,1,-10,-4,-6,0
1532114269708,-39,-1,-2,3,9,2,7,-9
1532114269713,9,-4,-4,-6,-2,-1,-10,-1
1532114269718,-16,-3,1,2,3,0,-7,-8
1532114269723,3,2,-1,-5,-5,-4,2,1
1532114269728,5,-1,4,1,-3,-2,-6,2
1532114269733,10,-3,-7,-5,-8,0,5,-4
1532114269738,-15,-2,-1,-1,1,0,0,14
1532114269743,2,3,3,1,2,-2,4,-2
1532114269748,12,0,-1,-2,-2,-1,-6,-5
1532114269753,-25,2,0,7,0,-2,1,3
1532114269758,4,-1,0,-6,4,3,-3,-6
1532114269763,-9,-1,1,-1,-5,0,1,-5
1532114269768,3,-4,-3,-1,-8,-1,-5,2
1532114269773,1,0,0,-3,1,-2,5,1
1532114269778,4,3,1,4,4,-3,2,-2
1532114269783,-7,-4,-4,0,-2,0,0,-3
1532114269788,16,3,-1,-3,-7,-2,1,1
1532114269793,-30,-4,3,5,-1,1,-2,-4
1532114269798,4,0,-3,-4,-1,-1,-2,-4
1532114269803,-6,-7,-7,-5,0,-4,-4,-2
1532114269808,-7,-2,-4,0,-2,4,1,5
1532114269813,2,5,1,-8,-8,-3,-7,-3
1532114269818,9,-2,-1,7,24,0,-2,-2
1532114269823,-3,3,2,0,-5,2,6,0
1532114269828,4,-1,1,3,4,-5,-13,1
1532114269833,5,2,0,-1,-8,-2,5,2
1532114269838,-4,0,-2,-7,-10,-1,-5,-3
1532114269843,4,-1,0,1,-5,1,4,2
1532114269848,-1,-1,-1,-3,5,1,-3,-6
1532114269853,7,1,-2,0,-2,-1,2,0
1532114269858,3,-1,-1,5,-1,1,2,2
1532114269863,14,0,0,-8,4,-1,-6,-5
1532114269868,-11,-1,-2,-9,-8,-1,8,-4
1532114269873,6,-1,1,7,5,1,-6,1
1532114269878,-14,-2,-2,-11,-6,-7,-6,-6
1532114269883,15,-2,-1,5,10,0,-4,3
1532114269888,3,1,-2,2,1,-3,2,-2
1532114269893,-4,-1,-1,-3,-2,6,-2,0
1532114269898,9,0,1,5,-1,-1,3,-1
1532114269903,-10,1,3,1,-6,-1,0,-3
1532114269908,-3,-1,0,-7,-5,3,-3,0
1532114269913,7,-2,-1,6,7,-1,4,1
1532114269918,-4,3,1,-2,-6,0,-4,0
1532114269923,0,-2,-2,0,-1,-2,0,-1
1532114269928,-20,-1,-2,4,1,-1,0,2
1532114269933,0,0,-5,-1,1,0,10,0
1532114269938,2,0,1,-4,-5,-1,-13,-5
1532114269943,-9,-2,-2,0,1,0,-1,1
1532114269948,-10,-1,-1,0,1,3,1,-7
1532114269953,9,-3,-2,-7,-4,-2,1,-3
1532114269958,-13,-2,1,4,-1,-1,0,9
1532114269963,-16,-1,-5,-2,0,-1,-3,-8
1532114269968,21,1,-1,3,0,-1,2,5
1532114269973,-13,-1,2,0,-3,-2,-11,-5
1532114269978,4,0,-1,6,2,1,1,0
1532114269983,4,-1,-1,0,0,-7,-2,2
1532114269988,1,-2,-4,-10,-3,-1,-1,1
1532114269993,-1,0,4,-5,-7,-3,-1,0
1532114269998,3,-3,-5,-1,-5,-2,-11,-8
1532114270003,-5,0,2,1,10,4,1,-1
1532114270008,-1,0,-1,3,4,-3,-2,-4
1532114270013,5,0,-4,0,-3,-3,-1,4
1532114270018,2,0,-1,-5,-7,3,3,0
1532114270023,-4,1,-1,1,-8,2,4,1
1532114270028,-2,-3,0,-2,2,2,0,0
1532114270033,1,4,4,5,6,1,2,2
1532114270038,-4,-4,-1,-2,7,-1,4,0
1532114270043,-1,-1,-4,-1,3,0,-6,-4
1532114270048,2,0,-2,0,-2,-1,-4,0
1532114270053,6,0,0,-1,-2,0,0,1
1532114270058,12,0,1,-3,-6,-3,-3,-5
1532114270063,-21,-2,-1,-1,0,1,0,12
1532114270068,33,1,-2,-2,-7,1,5,9
1532114270073,-32,-2,-1,-2,-7,-3,-3,-11
1532114270078,3,-2,-3,-2,0,0,-2,-2
1532114270083,0,-4,-2,-5,-3,-6,2,-6
1532114270088,1,0,-2,3,2,-2,-6,-1
1532114270093,5,0,0,-3,-3,1,0,3
1532114270098,-8,1,-1,2,-3,-3,2,-4
1532114270103,8,2,4,2,4,2,-3,-2
1532114270108,-8,-2,-3,0,3,0,1,0
1532114270113,2,0,-1,-2,-1,-1,-3,0
1532114270118,-7,-1,0,1,-1,-2,-1,-1
1532114270123,5,-2,-4,-4,0,-1,0,0
1532114270128,-6,2,0,-2,0,0,7,-1
1532114270133,35,3,2,2,4,0,-16,-7
1532114270138,-33,-4,0,5,6,-2,-1,12
1532114270143,-3,-3,-2,-3,0,-3,-1,-1
1532114270148,-4,0,-2,-6,-1,0,1,-1
1532114270153,34,-3,-1,-5,-5,-1,3,4
1532114270158,-29,5,6,0,-1,-3,-2,-9
1532114270163,-5,-4,-5,0,2,-2,-3,-4
1532114270168,-5,-1,-2,-1,-3,-2,-6,3
1532114270173,-10,3,3,4,7,2,4,5
1532114270178,17,0,-2,-1,-1,0,0,0
1532114270183,-9,-1,-1,0,-3,1,3,-5
1532114270188,5,-2,0,-4,-2,-1,0,3
1532114270193,-15,-3,-3,-1,1,-3,-1,0
1532114270198,15,-1,-1,0,-1,2,2,-1
1532114270203,-15,0,-1,-2,0,1,1,5
1532114270208,3,-4,-2,-3,-3,-1,2,0
1532114270213,-10,-3,-1,-1,-2,-1,1,0
1532114270218,6,0,-1,0,-1,-3,-7,-1
1532114270223,13,1,2,-2,-6,0,1,-3
1532114270228,-6,-2,0,1,4,-1,-15,-5
1532114270233,-12,-2,-3,-1,0,1,-5,0
1532114270238,8,-2,-3,-5,-2,0,8,1
1532114270243,31,2,-3,2,-4,1,-3,4
1532114270248,-60,0,5,3,6,0,9,-9
1532114270253,6,-1,-4,-1,-3,-3,2,0
1532114270258,3,-3,-3,-4,-4,-1,-6,-1
1532114270263,-2,-1,2,0,1,1,0,-2
1532114270268,15,-2,-3,-3,-3,-3,-4,4
1532114270273,-12,-2,0,2,-1,1,8,-1
1532114270278,0,2,5,4,3,0,1,-6
1532114270283,-6,-2,-1,-3,-2,-1,2,3
1532114270288,10,-1,-2,-1,0,-2,-3,-2
1532114270293,-14,-1,0,5,-5,-2,-1,-1
1532114270298,22,-1,-2,-4,0,0,1,3
1532114270303,-8,0,0,-4,2,1,-4,-5
1532114270308,4,1,-1,-1,-2,-2,-4,1
1532114270313,9,1,2,-4,-4,-2,4,1
1532114270318,-12,-3,-4,2,0,0,-9,-9
1532114270323,4,1,0,-3,0,-5,7,2
1532114270328,-3,0,-3,-1,-2,-1,-9,-7
1532114270333,5,0,-2,0,0,-1,-7,-1
1532114270338,4,-5,1,-1,-4,1,9,3
1532114270343,-4,-4,-6,-3,-2,-1,-4,-6
1532114270348,9,0,0,2,-2,0,4,-2
1532114270353,-7,-1,1,-2,0,0,-3,13
1532114270358,1,1,-1,-4,-2,0,-2,-2
1532114270363,3,-5,-3,2,-4,-2,-5,3
1532114270368,1,-1,-3,-13,-5,-3,5,-1
1532114270373,4,0,4,22,9,1,-5,-9
1532114270378,-21,0,-3,-1,0,0,0,-1
1532114270383,-14,-2,-1,-9,-9,-2,9,-5
1532114270388,26,-2,0,-11,2,-2,-16,0
1532114270393,-32,0,-1,2,-2,-1,-3,-5
1532114270398,-5,-3,-2,0,-1,0,-2,-6
1532114270403,6,-2,-2,-3,-6,-1,3,-4
1532114270408,-1,-1,-3,-2,-1,2,-1,5
1532114270413,14,1,-1,-4,-3,-3,0,1
1532114270418,-16,-1,-1,7,0,-1,1,0
1532114270423,3,-2,-4,-7,-5,1,1,2
1532114270428,0,1,1,-1,-8,-4,-3,-4
1532114270433,-10,1,1,2,0,-1,-4,-7
1532114270438,0,-3,-2,3,1,1,3,3
1532114270443,5,-2,1,0,6,-2,5,3
1532114270448,10,-2,-5,-6,-5,-2,-5,-2
1532114270453,-13,-3,-1,8,10,0,9,-10
1532114270458,8,-2,-1,-9,2,-1,1,2
1532114270463,-8,0,0,1,5,0,-5,1
1532114270468,10,3,-1,6,3,-1,1,-2
1532114270473,5,0,2,-3,-4,0,-4,0
1532114270478,-5,-5,-2,-2,-5,-2,-9,-6
1532114270483,6,-4,-2,-4,2,0,8,9
1532114270488,-13,-3,-3,-6,-2,-1,-2,-2
1532114270493,11,1,4,11,-1,0,2,8
1532114270498,-29,4,4,-1,2,-1,-4,-1
1532114270503,35,-1,0,0,-1,0,2,-2
1532114270508,-22,-5,-4,1,0,-2,-15,-6
1532114270513,-2,-2,-7,-11,5,2,5,6
1532114270518,34,2,4,-3,-1,-3,2,0
1532114270523,-23,0,-5,1,0,0,-4,-8
1532114270528,-5,2,3,5,1,-2,7,2
1532114270533,-26,-1,0,-6,1,-1,11,13
1532114270538,-44,-3,-3,-4,0,0,2,-8
1532114270543,17,4,1,3,1,-1,1,4
1532114270548,-9,-4,-6,-14,1,-3,-3,-3
1532114270553,13,-2,-1,-1,-5,-1,-8,-7
1532114270558,19,-1,-1,-2,-2,0,4,2
1532114270563,6,-5,-6,-15,1,1,2,3
1532114270568,-31,-7,2,-5,-5,-1,1,1
1532114270573,21,7,7,24,-1,-1,-7,-4
1532114270578,-5,-6,-7,-4,-5,-4,-12,-3
1532114270583,18,2,0,10,-7,-2,9,0
1532114270588,21,2,-5,-20,-3,-1,-15,-1
1532114270593,-38,-9,-9,-25,1,1,15,-3
1532114270598,11,1,8,35,3,-3,-1,-7
1532114270603,4,1,-5,-51,2,1,-7,2
1532114270608,-7,-1,6,40,3,-1,5,0
1532114270613,12,-4,-7,11,-3,-2,-9,-1
1532114270618,18,4,4,-11,0,3,5,7
1532114270623,-34,-5,-6,-15,-8,-5,-1,-11
1532114270628,8,1,0,-1,3,-1,-8,-2
1532114270633,1,1,-4,-15,2,0,5,0
1532114270638,10,-3,1,26,-2,0,14,5
1532114270643,-28,0,4,13,2,2,-11,5
1532114270648,13,-1,-5,-3,1,-2,0,-5
1532114270653,-60,-6,-2,-12,-2,5,-1,-8
1532114270658,20,0,-4,-18,-2,-3,1,-3
1532114270663,-9,-1,4,9,-6,0,5,5
1532114270668,-7,-1,1,4,7,-1,-5,-3
1532114270673,15,0,-5,-4,-3,-2,0,6
1532114270678,10,3,3,-8,1,0,-11,-7
1532114270683,28,5,6,18,0,-2,-12,0
1532114270688,-38,-7,-2,-4,3,0,-8,-5
1532114270693,14,0,-4,7,4,-1,4,-2
1532114270698,0,-1,-4,-19,-3,-2,-13,-4
1532114270703,29,7,7,16,5,4,16,-1
1532114270708,-36,-6,-7,-11,6,-3,7,0
1532114270713,15,-4,-5,1,-4,-2,-7,-7
1532114270718,-14,-2,-2,6,-7,1,-6,-8
1532114270723,-4,-1,0,-15,-2,-8,-6,0
1532114270728,8,2,-2,4,4,2,0,0
1532114270733,0,-3,0,1,1,-1,5,-4
1532114270738,2,-2,-3,-1,-2,-3,-2,-2
1532114270743,-11,0,-1,-4,-4,-1,-13,-4
1532114270748,12,5,1,-4,-5,0,2,6
1532114270753,-6,-3,0,-3,-5,-4,3,-1
1532114270758,-35,1,1,7,7,1,-7,11
1532114270763,-2,-3,-3,-2,1,-4,-5,-7
1532114270768,-4,-3,-1,-12,-6,1,2,1
1532114270773,20,1,-1,5,-1,-1,-1,2
1532114270778,-11,0,1,-7,-7,-2,9,-2
1532114270783,14,-2,1,5,11,-1,-7,3
1532114270788,-7,-1,-4,-11,-15,1,7,4
1532114270793,4,1,-1,-1,-2,2,-11,1
1532114270798,0,-3,-2,4,12,2,3,-7
1532114270803,-1,-3,-2,-1,-3,-3,4,2
1532114270808,6,-1,0,-6,0,1,-3,-6
1532114270813,23,3,3,-3,-5,-1,-4,6
1532114270818,1,-3,-7,1,-2,-3,-4,-4
1532114270823,-6,3,5,3,2,0,-1,-5
1532114270828,-9,0,-2,-2,-5,2,7,8
1532114270833,-6,-1,-1,2,4,-3,-18,-10
1532114270838,38,0,1,2,-5,-4,0,-3
1532114270843,-16,-6,-4,-3,-3,-2,-2,-8
1532114270848,0,-1,1,2,3,-3,4,-1
1532114270853,-1,-2,-1,4,0,0,4,4
1532114270858,30,0,0,-2,-2,0,1,-10
1532114270863,-18,-2,-4,-5,-9,1,-3,-2
1532114270868,-1,1,1,4,2,-2,-8,-4
1532114270873,4,-5,-3,-3,-4,-1,3,0
1532114270878,10,-1,-3,-8,-3,2,-3,7
1532114270883,16,-1,-2,5,-1,-2,-4,0
1532114270888,-1,-6,-5,0,0,-5,3,-1
1532114270893,-4,3,1,0,-1,2,-2,2
1532114270898,7,1,-2,-1,6,0,2,0
1532114270903,4,-2,-1,-6,-5,0,2,-2
1532114270908,-17,1,2,-1,2,2,4,3
1532114270913,10,-5,-5,1,-2,-5,-5,-2
1532114270918,-4,1,-3,0,0,1,-2,0
1532114270923,2,1,-1,1,2,1,0,0
1532114270928,-1,-3,-2,2,-1,-2,-3,2
1532114270933,-21,0,2,-11,-2,-2,3,1
1532114270938,-8,-2,-2,-8,-4,4,-3,-10
1532114270943,17,-4,-5,0,1,-7,0,1
1532114270948,-11,1,1,2,-2,0,4,-12
1532114270953,-3,-13,-6,-3,-2,-3,-6,-8
1532114270958,52,6,4,6,2,-1,-1,0
1532114270963,-79,-2,0,-1,4,1,-2,-4
1532114270968,10,2,-3,-3,-8,0,4,8
1532114270973,13,1,4,3,-2,0,-4,-4
1532114270978,-12,-5,-4,-2,0,0,-7,-3
1532114270983,18,0,-6,-6,-3,-1,2,2
1532114270988,-2,1,1,-3,-4,-1,-6,-1
1532114270993,-2,2,-1,0,-1,2,2,-5
1532114270998,-7,-5,-2,4,4,0,-8,-2
1532114271003,24,3,-1,-1,-3,-2,4,13
1532114271008,-47,-3,-1,-1,-1,-3,-3,-7
1532114271013,2,-5,0,-3,-2,0,9,-5
1532114271018,-9,-2,-4,0,1,-3,-5,1
1532114271023,7,3,2,6,0,2,3,1
1532114271028,-1,-5,-5,-5,0,-3,-10,-2
1532114271033,21,4,-1,2,0,0,1,4
1532114271038,-24,-1,-2,2,3,2,4,0
1532114271043,4,0,-2,3,0,0,0,-3
1532114271048,5,2,3,-9,-4,-1,-3,-1
1532114271053,-7,-4,0,-7,-5,-2,-7,-5
1532114271058,5,-3,-1,2,1,1,4,2
1532114271063,-1,3,5,0,2,0,-6,-1
1532114271068,-6,-3,-3,1,0,-1,-5,-3
1532114271073,-8,1,0,-3,-4,0,2,5
1532114271078,14,2,-2,-1,1,0,1,2
1532114271083,-8,2,0,0,-1,-1,3,-1
1532114271088,-5,-4,2,-1,-1,-5,-13,-2
1532114271093,10,2,-4,2,0,-1,2,2
1532114271098,20,2,0,-1,1,1,1,5
1532114271103,-29,-5,-4,-4,-1,-1,-1,-4
1532114271108,4,1,0,0,-1,0,-1,-2
1532114271113,-3,1,3,2,1,-1,3,1
1532114271118,29,1,0,0,-1,-3,-1,4
1532114271123,-20,-1,3,0,-1,0,-6,-6
1532114271128,2,-1,-4,-4,-3,3,14,3
1532114271133,-6,-3,3,1,-2,0,1,1
1532114271138,2,0,-3,0,-1,-1,-2,-3
1532114271143,-1,0,0,0,-2,-2,-12,-4
1532114271148,-11,-4,-3,3,4,-2,1,2
1532114271153,4,-4,-6,-11,-7,0,-1,0
1532114271158,-18,1,0,-2,-3,0,7,-2
1532114271163,25,1,2,-2,0,2,1,0
1532114271168,16,1,-2,0,0,-3,-13,-6
1532114271173,-28,-1,0,4,5,2,0,-3
1532114271178,0,-1,1,-2,-2,-1,-7,0
1532114271183,0,0,-3,-1,1,-1,1,2
1532114271188,17,2,0,0,-4,-1,-8,2
1532114271193,17,-1,0,-2,-1,-1,3,-2
1532114271198,-16,0,0,0,2,-1,12,-1
1532114271203,11,-2,-2,2,2,2,6,0
1532114271208,-15,1,0,-5,-2,-2,-4,-2
1532114271213,1,-3,-3,6,2,0,-3,-1
1532114271218,-27,-3,-1,-5,-1,-1,-6,3
1532114271223,-1,1,1,-16,-16,2,-2,4
1532114271228,13,-1,-2,3,1,-1,9,5
1532114271233,2,2,2,10,5,0,-1,-1
1532114271238,0,1,1,2,1,-1,-3,1
1532114271243,15,0,-1,0,-1,-4,5,-3
1532114271248,-28,-4,-4,-5,-3,2,-4,-6
1532114271253,25,-1,-4,-6,-3,-1,10,10
1532114271258,-25,-4,2,2,3,-2,-16,-10
1532114271263,-2,1,-2,0,4,1,2,2
1532114271268,3,1,0,2,2,-1,-1,-4
1532114271273,-4,-1,1,1,-1,-1,2,-3
1532114271278,16,4,-4,-4,-5,0,3,1
1532114271283,7,0,-1,-1,-3,-3,-5,3
1532114271288,-20,-5,-1,0,1,0,0,-6
1532114271293,15,-2,-3,-1,-2,-2,-4,-7
1532114271298,-31,-3,1,-2,-4,-1,2,1
1532114271303,0,0,-1,5,1,-2,-2,-1
1532114271308,-5,-1,2,0,0,1,0,1
1532114271313,4,0,-1,-4,0,-1,-7,-7
1532114271318,-4,2,4,-1,-6,-1,8,15
1532114271323,3,-7,-10,-7,-2,-3,2,2
1532114271328,-11,-1,-2,1,-2,-3,-6,-7
1532114271333,38,2,3,-1,-1,0,-1,2
1532114271338,-40,-6,-3,2,2,1,-10,-13
1532114271343,-7,0,0,3,7,-4,3,1
1532114271348,5,2,0,-6,-6,-1,1,3
1532114271353,-13,-3,-1,-1,-1,-1,-2,0
1532114271358,36,3,1,4,2,2,-4,0
1532114271363,-16,-7,-7,-1,0,0,-1,-8
1532114271368,8,3,2,-2,5,-1,-2,-1
1532114271373,10,-2,-6,-8,-9,-1,-5,3
1532114271378,11,-2,0,1,-2,-1,8,-8
1532114271383,-70,-2,-1,-7,-2,-2,0,-3
1532114271388,20,3,2,13,5,-2,2,-2
1532114271393,-11,-2,3,0,2,0,0,-1
1532114271398,10,0,-3,-1,-1,0,2,-4
1532114271403,24,0,2,2,2,1,-1,3
1532114271408,-1,0,0,-11,-7,-3,-3,-1
1532114271413,-24,1,0,0,-2,-1,-5,-3
1532114271418,13,-2,-2,-1,-1,0,-1,-1
1532114271423,13,1,1,1,-3,0,-17,-6
1532114271428,-5,-4,-2,1,0,-1,6,5
1532114271433,-3,0,0,-4,-1,-2,-3,0
1532114271438,-1,-3,-3,-3,-1,-3,0,-2
1532114271443,5,-3,-3,1,0,0,-1,-1
1532114271448,-9,-2,0,-4,-5,2,-3,-3
1532114271453,-5,-2,-1,-1,1,-1,-2,-3
1532114271458,-8,-1,0,1,0,1,1,3
1532114271463,1,2,5,-5,-4,0,4,0
1532114271468,2,-1,-6,2,4,0,-5,1
1532114271473,-9,1,3,1,0,0,4,-2
1532114271478,16,-2,-4,1,-1,-3,-3,2
1532114271483,-6,1,2,6,-1,0,4,4
1532114271488,0,0,-2,-4,-1,1,4,1
1532114271493,16,1,-4,-2,-3,-1,-12,-5
1532114271498,-22,1,0,0,-3,-3,9,8
1532114271503,6,-1,-2,2,8,-2,2,-1
1532114271508,1,-2,1,-1,-4,-3,-15,-6
1532114271513,-12,-3,-4,-2,1,-2,5,8
1532114271518,4,3,4,-2,-1,2,-8,-5
1532114271523,6,-2,-3,0,-3,-4,5,-3
1532114271528,-13,-2,0,5,4,-1,0,-1
1532114271533,-2,2,1,-1,-2,-1,1,1
1532114271538,12,-2,-1,-4,0,0,-2,0
1532114271543,2,0,2,-2,-5,-1,-1,2
1532114271548,9,0,-3,-1,-1,1,-1,0
1532114271553,-10,-1,1,1,-1,-1,-3,-4
1532114271558,8,-2,-4,0,0,0,11,2
1532114271563,2,2,1,1,1,0,-3,-4
1532114271568,-4,-2,6,-7,-10,-1,4,2
1532114271573,-8,-1,-1,2,1,-1,-1,0
1532114271578,-3,1,2,-1,3,1,-4,-2
1532114271583,1,-4,-9,-2,-2,1,-1,-2
1532114271588,-1,-1,-1,-3,-4,-2,0,-3
1532114271593,-4,-1,-3,-6,-4,-2,3,-2
1532114271598,6,1,4,6,2,-1,0,-1
1532114271603,6,2,-1,-1,0,1,0,1
1532114271608,0,-2,-3,1,6,-1,0,0
1532114271613,-6,-4,-1,-1,-1,-1,-5,-9
1532114271618,23,0,-4,1,-1,1,1,-2
1532114271623,-23,3,3,-4,-4,-3,-10,-1
1532114271628,-27,-6,-1,1,-3,2,-18,-12
1532114271633,1,4,4,2,3,-1,12,11
1532114271638,49,3,-1,3,1,-2,-7,-2
1532114271643,-73,-9,-2,-9,-2,-1,-2,-14
1532114271648,50,0,-5,-3,-1,-4,3,4
1532114271653,-48,-3,-2,-5,-4,-3,-5,-9
1532114271658,-8,-2,0,5,3,3,2,-5
1532114271663,52,2,1,-11,-2,-2,-4,3
1532114271668,-13,2,3,15,17,3,15,7
1532114271673,14,1,-1,7,-14,-3,-3,2
1532114271678,-3,-1,-3,-21,-5,-4,2,5
1532114271683,13,-2,2,4,2,4,1,1
1532114271688,-11,1,-2,-2,-6,-1,-1,-1
1532114271693,21,3,0,3,7,3,-1,0
1532114271698,-22,-1,-2,-1,-2,-2,-2,-1
1532114271703,2,-6,-2,0,2,-4,-4,-3
1532114271708,3,-1,-2,1,2,-2,3,-1
1532114271713,-5,-5,-5,1,4,1,-1,-2
1532114271718,6,-2,-4,-3,-1,-1,-4,-3
1532114271723,-25,-3,-1,-1,0,-1,1,1
1532114271728,5,6,5,3,-2,2,0,3
1532114271733,4,0,3,1,0,0,-4,-2
1532114271738,-4,-3,-3,-5,-2,-2,-5,-11
1532114271743,19,-2,-1,0,0,-1,8,3
1532114271748,-7,-1,-1,-1,-5,-1,-3,-2
1532114271753,-9,-2,-3,-10,-3,-3,-1,-3
1532114271758,4,0,-3,-4,-3,2,0,0
1532114271763,4,1,5,6,0,0,0,0
1532114271768,-5,-2,-2,-1,-2,-1,0,0
1532114271773,2,-4,0,-5,0,-2,0,-3
1532114271778,-10,-2,-4,9,4,0,0,2
1532114271783,4,-2,-4,0,-3,-2,-1,-3
1532114271788,-3,0,-2,-15,-8,-2,2,-1
1532114271793,5,4,3,4,-2,0,-1,3
1532114271798,-14,-3,-2,-2,-2,-2,-8,-5
1532114271803,-1,1,0,7,6,-2,7,0
1532114271808,6,0,-3,-9,-2,0,-11,-3
1532114271813,-3,-1,-1,7,1,-4,-1,-1
1532114271818,-7,-1,1,-6,-1,0,-3,1
1532114271823,10,4,-3,0,-6,1,-3,0
1532114271828,-4,-2,4,-4,-1,-1,1,-5
1532114271833,0,-4,-5,0,4,0,-7,-6
1532114271838,-8,-6,-4,0,-3,-1,8,4
1532114271843,5,2,-1,1,1,0,-1,0
1532114271848,-4,0,-2,2,-2,0,2,-1
1532114271853,-1,0,2,-3,1,-1,-3,-1
1532114271858,0,2,-2,2,-1,0,2,-1
1532114271863,0,0,-2,-2,-2,0,-2,-1
1532114271868,0,-1,-1,4,4,-1,-1,-2
1532114271873,1,-4,-1,-3,-2,-2,1,2
1532114271878,-4,1,6,-6,-6,0,0,1
1532114271883,2,1,-3,1,0,1,0,0
1532114271888,-1,-2,-2,1,-1,-2,-6,-1
1532114271893,-1,-1,0,-1,2,1,3,3
1532114271898,-2,-2,-3,-2,-2,-1,-1,0
1532114271903,2,-2,-4,-1,-1,-1,-3,-4
1532114271908,1,-3,-2,-2,-3,0,-1,-4
1532114271913,0,1,0,-4,-2,1,11,3
1532114271918,0,1,0,2,-1,-3,0,1
1532114271923,-3,-2,0,-3,-2,-2,-2,0
1532114271928,-4,-3,0,-2,2,0,0,0
1532114271933,-1,-1,-1,-5,-10,-3,-1,-1
1532114271938,-4,-2,0,4,1,-1,-2,-1
1532114271943,3,4,1,-1,-2,-1,0,0
1532114271948,-3,-3,-3,2,0,-1,-1,-3
1532114271953,-1,-3,1,-2,-3,-1,-2,1
1532114271958,-1,0,0,3,1,2,1,-1
1532114271963,-1,-1,1,-2,-1,-1,-1,-2
1532114271968,-2,0,0,2,0,0,0,-2
1532114271973,5,0,1,0,-3,0,1,2
1532114271978,5,0,-1,0,-1,-1,0,1
1532114271983,-12,-2,0,5,1,-1,-10,-7
1532114271988,-4,-3,-1,-4,1,0,6,1
1532114271993,0,0,1,-1,-2,-3,-2,1
1532114271998,-1,2,-2,2,2,-1,2,-3
1532114272003,3,-2,0,-2,0,1,-2,2
1532114272008,0,-2,-2,-1,-1,1,3,4
1532114272013,-5,-1,-1,1,1,0,0,1
1532114272018,1,-3,3,-1,-3,-1,-2,3
1532114272023,-2,-3,-9,-3,1,3,2,2
1532114272028,-11,-5,-4,-12,-1,-5,-6,-8
1532114272033,16,2,1,10,-1,-3,-7,2
1532114272038,-20,-1,0,6,-2,-1,-6,-6
1532114272043,10,-1,0,-8,2,1,6,0
1532114272048,2,1,-2,1,-15,-2,0,0
1532114272053,-7,-6,-6,-8,2,-2,-2,0
1532114272058,13,0,-1,-10,-8,0,3,1
1532114272063,-1,3,5,19,16,1,-5,-1
1532114272068,2,2,1,3,2,0,-2,2
1532114272073,0,3,3,-6,1,-2,-3,-3
1532114272078,1,-3,-1,0,-9,1,1,0
1532114272083,-3,-6,-5,-10,4,-4,0,-1
1532114272088,-1,4,1,3,10,-2,0,-2
1532114272093,-2,2,2,0,-3,-1,-3,-2
1532114272098,1,-1,-4,0,11,3,11,5
1532114272103,-4,-1,-5,-7,-21,-4,-4,-6
1532114272108,5,1,0,3,-1,-1,12,0
1532114272113,11,2,-2,-3,5,4,9,6
1532114272118,-2,-2,-1,0,-9,-5,-18,-5
1532114272123,-1,-3,-2,1,10,0,3,0
1532114272128,-2,0,1,2,-20,4,4,-1
1532114272133,-1,0,-1,1,16,0,-16,-2
1532114272138,-2,2,3,1,13,-1,3,-2
1532114272143,4,-2,-2,-2,-8,3,10,-1
1532114272148,-7,-5,-5,-1,-14,1,1,1
1532114272153,1,1,-1,-3,-2,1,10,-2
1532114272158,5,4,5,3,-8,-1,-29,-1
1532114272163,0,-2,-4,-3,11,-7,11,7
1532114272168,-5,-2,2,1,4,-2,-5,-3
1532114272173,-1,-5,-2,-3,-3,-2,7,2
1532114272178,3,-1,1,2,0,1,0,0
1532114272183,16,2,-1,1,-1,4,-6,-2
1532114272188,-19,-2,-1,-3,-9,-2,-19,-5
1532114272193,-5,1,0,-2,1,2,24,4
1532114272198,-16,-2,-2,0,2,1,0,-8
1532114272203,12,-3,-4,0,-11,0,-5,0
1532114272208,-6,-4,-3,-3,1,-1,-6,0
1532114272213,3,-2,-3,-2,-7,-4,-6,2
1532114272218,18,-2,-1,1,-5,0,-2,-5
1532114272223,20,1,1,1,-5,0,5,4
1532114272228,-61,1,0,2,3,4,-6,3
1532114272233,31,0,-3,-4,-1,-9,-4,-6
1532114272238,-15,1,-1,0,-4,0,3,2
1532114272243,-16,-2,-1,3,2,0,-4,-4
1532114272248,13,1,-1,-4,1,-5,1,0
1532114272253,3,-3,0,-3,-4,0,-5,-1
1532114272258,5,-4,-3,-1,5,3,2,1
1532114272263,21,2,4,-1,-2,1,29,6
1532114272268,-31,-3,1,11,4,-2,-12,9
1532114272273,63,0,2,-5,-8,-1,-12,4
1532114272278,-62,0,0,1,-2,0,0,-2
1532114272283,45,0,-1,-2,-11,-1,5,6
1532114272288,-58,0,-1,-6,-10,-1,-20,-30
1532114272293,-8,-9,-4,0,-1,-6,13,4
1532114272298,32,1,0,5,-1,1,-11,-5
1532114272303,-10,0,-1,-18,-16,-4,-44,-8
1532114272308,44,1,0,-2,-7,6,-3,3
1532114272313,-8,-3,-1,20,4,-3,16,0
1532114272318,0,-5,-8,-21,-3,-3,15,-3
1532114272323,-42,-2,4,8,16,-3,-6,-6
1532114272328,6,-1,-3,-12,2,-8,-44,-4
1532114272333,18,5,1,5,6,8,34,5
1532114272338,-25,0,0,3,11,1,4,-2
1532114272343,21,1,0,0,2,-5,-12,-9
1532114272348,-13,0,-2,1,-4,4,-17,12
1532114272353,-27,-6,-4,-7,3,-11,23,-11
1532114272358,20,0,-2,5,5,-2,11,6
1532114272363,-13,1,-4,0,4,2,23,3
1532114272368,28,-3,-2,0,4,1,20,1
1532114272373,30,3,2,4,2,1,0,6
1532114272378,-11,-5,-3,-5,-2,-2,7,-5
1532114272383,-27,0,1,-2,3,0,-13,-3
1532114272388,18,2,4,4,-4,2,26,0
1532114272393,-1,-6,-5,-4,0,-2,-16,-3
1532114272398,27,3,-4,-5,0,-7,3,6
1532114272403,-37,-6,-5,-1,-1,3,-4,-10
1532114272408,28,3,1,1,0,-5,-20,4
1532114272413,36,4,-1,0,-5,0,29,12
1532114272418,-41,-3,0,1,1,-1,12,-11
1532114272423,30,2,-2,-4,-5,-1,-35,-9
1532114272428,23,-7,-3,1,-4,4,47,6
1532114272433,-18,-5,-5,-8,0,-1,-19,-2
1532114272438,12,2,2,1,1,-5,-7,-1
1532114272443,-18,-2,1,-1,-4,-1,-13,-3
1532114272448,-6,3,0,4,2,6,14,4
1532114272453,-5,1,2,-2,2,2,9,-4
1532114272458,-3,-5,-5,-2,-3,-11,-12,0
1532114272463,8,2,-3,-4,-9,1,10,-1
1532114272468,-1,-3,1,-16,-5,2,-7,-1
1532114272473,6,4,2,32,13,15,12,2
1532114272478,-14,2,0,-2,6,12,6,4
1532114272483,-12,0,-3,1,-4,-17,-13,-2
1532114272488,4,3,-2,-2,-2,-10,-2,-4
1532114272493,1,-2,1,-10,-6,11,-1,3
1532114272498,-13,-1,-1,-5,17,8,-6,-4
1532114272503,55,6,3,1,-9,-1,-4,-6
1532114272508,-33,-5,-3,11,-9,-15,-1,11
1532114272513,-9,1,-1,-7,5,10,14,-5
1532114272518,-13,-2,0,-2,-4,-7,-3,2
1532114272523,10,-7,-7,-12,-5,-3,-1,-3
1532114272528,13,0,-1,5,-1,-38,-12,-7
1532114272533,-5,1,-2,-1,-9,14,-5,-3
1532114272538,-2,1,2,1,21,39,6,2
1532114272543,-3,1,3,4,2,-12,-2,3
1532114272548,-1,-6,-7,-7,6,39,10,1
1532114272553,-14,-2,-3,-3,-2,-26,-4,-2
1532114272558,6,2,4,-11,-25,-14,-7,-3
1532114272563,34,3,2,21,4,-3,1,4
1532114272568,-64,1,0,0,-7,-42,-10,-8
1532114272573,6,-3,3,-5,3,49,8,-1
1532114272578,25,1,-6,-1,13,10,8,6
1532114272583,-38,-2,2,-3,1,5,-4,-6
1532114272588,30,0,-6,-4,-8,-6,1,-5
1532114272593,-26,-6,-5,-9,-14,-91,-23,2
1532114272598,-13,-5,1,4,-7,46,-5,-6
1532114272603,11,-1,-3,3,26,62,20,8
1532114272608,8,3,-2,3,8,16,5,2
1532114272613,-4,1,-2,-2,2,-4,-1,0
1532114272618,2,0,-1,5,-15,-50,-10,-3
1532114272623,2,2,3,-4,-1,12,1,-8
1532114272628,0,-1,-5,-10,-4,-21,-7,-4
1532114272633,-15,-3,-5,-11,-3,-3,14,3
1532114272638,13,-1,0,10,4,19,5,19
1532114272643,-2,2,3,1,6,2,-9,3
1532114272648,5,-1,-4,-2,-13,-8,13,-3
1532114272653,-22,2,-1,-6,-12,-14,-6,-5
1532114272658,32,2,1,-5,-6,0,8,-12
1532114272663,-7,-7,-2,-1,-10,-30,-22,-8
1532114272668,-26,-7,-3,8,26,64,4,-4
1532114272673,22,3,-2,-3,-4,-12,19,16
1532114272678,3,-2,-1,4,4,7,-3,-5
1532114272683,3,-1,-1,-1,-6,-18,-2,1
1532114272688,16,1,0,-10,-16,-39,-18,-13
1532114272693,-9,-2,0,10,6,32,1,-4
1532114272698,8,7,3,-24,-14,24,33,19
1532114272703,-2,-4,-12,-3,5,-7,3,-6
1532114272708,-13,-4,-1,28,15,-29,-11,-1
1532114272713,2,0,7,-14,-27,-16,-11,-5
1532114272718,-12,1,5,15,15,21,-9,-4
1532114272723,2,0,-3,-8,-14,1,7,4
1532114272728,-3,2,-1,26,6,-23,1,2
1532114272733,-5,-5,-3,-26,-41,-114,-29,-10
1532114272738,1,-6,-7,-22,22,92,13,-5
1532114272743,19,2,9,67,44,0,16,12
1532114272748,-34,2,-2,-12,1,-11,-7,-8
1532114272753,4,-7,-5,15,8,-29,-13,-5
1532114272758,-10,-10,-7,-15,-51,-83,-26,-7
1532114272763,-8,-2,-10,-57,-5,43,5,-7
1532114272768,14,1,-5,17,-7,6,7,6
1532114272773,-3,-1,1,-15,-25,-33,-10,-6
1532114272778,0,-2,-6,-5,-13,-16,-10,-5
1532114272783,18,0,5,7,16,12,5,-3
1532114272788,22,-1,-4,-25,5,72,4,0
1532114272793,-9,3,2,1,-1,-14,2,5
1532114272798,-11,-1,-1,-5,5,-5,1,4
1532114272803,5,1,0,9,-8,-8,-2,-2
1532114272808,2,0,4,9,-6,-10,-5,-3
1532114272813,18,-6,-23,-49,-31,-17,-15,-9
1532114272818,-1,-2,20,27,53,33,21,14
1532114272823,30,8,2,-20,0,-7,7,-1
1532114272828,-79,-4,-4,7,20,13,1,-7
1532114272833,6,1,3,-1,-11,-34,-6,-8
1532114272838,-11,-7,-8,9,-32,-21,-15,-5
1532114272843,-1,2,15,27,23,55,6,-1
1532114272848,61,5,-8,-26,4,-13,7,4
1532114272853,-37,-1,2,27,-4,-4,-7,-1
1532114272858,2,2,-2,-13,-14,-5,-4,-8
1532114272863,-17,0,-1,11,3,-17,8,25
1532114272868,30,7,10,-28,-11,24,1,0
1532114272873,-6,-6,-9,-39,-6,-7,-1,-2
1532114272878,3,-2,9,28,11,2,0,2
1532114272883,4,-2,-8,8,-4,-1,-4,-10
1532114272888,10,0,0,13,5,-2,-1,-1
1532114272893,6,1,1,0,2,-13,-1,7
1532114272898,-5,-1,-1,-9,-12,0,-8,-11
1532114272903,7,2,1,5,-6,14,7,2
1532114272908,-11,-4,-8,-30,4,-7,7,7
1532114272913,-3,-3,-1,30,4,4,4,-4
1532114272918,-13,-5,0,-5,-4,4,-2,-23
1532114272923,-4,-5,-7,-35,-2,-18,-18,-3
1532114272928,27,2,2,33,-4,0,-5,-1
1532114272933,-2,0,1,-2,4,1,4,-6
1532114272938,10,-3,0,5,1,4,10,19
1532114272943,14,1,0,-2,-3,-11,-5,-4
1532114272948,22,1,3,4,-10,-9,-14,-1
1532114272953,-69,-4,-3,2,18,50,5,-24
1532114272958,19,-4,-11,-31,-2,-12,-9,-10
1532114272963,13,-3,2,18,-3,3,10,24
1532114272968,-24,-5,-4,6,5,-7,-4,-7
1532114272973,41,6,3,5,-8,-15,-9,-7
1532114272978,-15,-3,-3,-5,-2,8,-3,2
1532114272983,-11,0,1,-10,0,1,2,-4
1532114272988,27,4,1,-10,-4,-2,6,10
1532114272993,11,-1,4,17,3,-7,-4,12
1532114272998,-18,-1,-6,-33,-4,5,3,-2
1532114273003,-4,-3,-5,4,-5,-9,-11,-14
1532114273008,-15,0,11,23,4,3,2,-3
1532114273013,-52,3,3,-4,3,4,-4,-17
1532114273018,8,2,-8,-12,3,7,23,16
1532114273023,4,0,-2,-3,2,2,17,12
1532114273028,-3,2,0,-13,1,2,2,14
1532114273033,6,-2,-2,-8,-6,-6,0,-4
1532114273038,4,0,-1,-2,-7,5,12,-1
1532114273043,-6,-6,-3,2,-5,-2,-6,-3
1532114273048,-7,1,-1,-1,-2,2,-4,-4
1532114273053,8,-1,-1,-4,3,-2,-1,2
1532114273058,5,1,-1,2,-3,3,0,3
1532114273063,-5,-3,0,1,0,-2,-21,-18
1532114273068,11,5,2,9,-1,2,17,13
1532114273073,-40,-6,-4,1,6,0,-1,-2
1532114273078,-11,0,-2,-4,-1,-4,-8,-7
1532114273083,7,0,1,1,1,0,0,8
1532114273088,3,-3,-3,0,-1,-2,-6,-6
1532114273093,16,0,2,-2,-2,-5,-3,-2
1532114273098,11,-3,-2,-4,0,1,-5,-1
1532114273103,-5,-1,-2,1,2,0,7,4
1532114273108,-14,-2,2,1,1,2,0,-2
1532114273113,7,0,-2,-2,-3,-2,0,-3
1532114273118,7,-2,-3,0,0,-1,-4,-3
1532114273123,-4,-2,0,0,-1,1,5,4
1532114273128,3,2,1,0,1,-3,-5,-5
1532114273133,3,-1,-1,-2,-4,-1,-3,-2
1532114273138,0,-4,-1,0,0,0,-2,-2
1532114273143,-3,-3,-1,0,-6,-4,1,0
1532114273148,1,1,-1,0,-2,2,-4,-4
1532114273153,1,0,4,-1,-4,-13,-6,-1
1532114273158,6,-4,-5,-3,-7,-1,-4,4
1532114273163,-25,2,-1,3,8,23,9,11
1532114273168,10,-3,-4,0,0,9,-3,-2
1532114273173,0,3,0,2,0,-8,1,0
1532114273178,10,-3,-3,-1,-6,-16,-8,-6
1532114273183,-31,-1,1,-1,1,-2,-1,-7
1532114273188,3,0,-2,1,-1,1,2,-6
1532114273193,1,-1,2,-1,1,-2,-5,6
1532114273198,-3,0,1,-1,0,5,3,-4
1532114273203,47,2,-1,2,-2,-8,-2,4
1532114273208,-30,-2,0,2,1,2,2,-1
1532114273213,-1,-2,-3,-5,-2,2,-2,-4
1532114273218,2,3,-1,0,4,0,-1,-4
1532114273223,18,2,0,5,-5,-3,0,5
1532114273228,8,-2,-1,1,-2,-6,-3,-1
1532114273233,7,2,1,-3,-4,4,0,12
1532114273238,-12,-8,-5,-4,-1,-8,-5,-11
1532114273243,10,0,2,-3,0,-1,1,5
1532114273248,-35,-4,-2,5,2,-2,1,-11
1532114273253,19,2,-1,-6,-4,4,2,8
1532114273258,-7,-1,0,9,5,4,1,-5
1532114273263,-10,-6,-1,-4,-2,-13,-2,-13
1532114273268,43,2,0,-9,-6,-10,-3,5
1532114273273,-2,-5,-3,-10,-5,11,-1,-13
1532114273278,-2,1,-1,-3,7,1,1,18
1532114273283,6,-4,-7,1,-2,-4,-3,-8
1532114273288,-21,-4,0,-3,1,2,1,0
1532114273293,4,-1,0,4,1,-4,1,-10
1532114273298,83,4,4,-3,-7,2,3,7
1532114273303,-75,-8,-2,3,3,1,-20,-11
1532114273308,-2,0,0,-4,-1,0,11,4
1532114273313,-20,-4,-4,1,4,-2,-2,-6
1532114273318,-2,0,-1,3,-3,-6,-8,-11
1532114273323,-6,-3,-1,-1,2,1,11,-2
1532114273328,24,3,1,-6,-7,1,-2,0
1532114273333,-18,-2,1,-4,-2,-8,-2,5
1532114273338,2,2,0,2,4,19,2,-4
1532114273343,23,0,0,3,3,-8,-4,-1
1532114273348,-18,-1,-2,-9,-1,3,-4,-2
1532114273353,23,-1,-5,3,4,-1,4,1
1532114273358,-22,2,6,3,-5,-4,-18,-7
1532114273363,3,0,-1,-1,-7,-2,8,12
1532114273368,49,-2,-3,4,1,-4,1,9
1532114273373,-69,-1,-3,1,4,-4,0,-9
1532114273378,8,2,0,-4,-1,9,-1,-6
1532114273383,-10,-5,-5,-1,-1,2,-6,8
1532114273388,-9,-2,-2,1,-2,-2,-5,-4
1532114273393,18,-1,0,5,-6,-8,-4,-2
1532114273398,-75,-3,-2,1,1,2,6,-5
1532114273403,15,4,2,-8,4,6,3,-4
1532114273408,-10,1,-3,2,-1,-5,0,13
1532114273413,11,3,7,5,-1,3,-18,-8
1532114273418,13,0,-2,-7,-4,-12,16,14
1532114273423,13,-1,1,-3,-7,6,-8,3
1532114273428,-13,2,-2,-2,2,-3,-3,-14
1532114273433,15,-1,-1,2,1,2,-8,-3
1532114273438,2,-4,-5,-4,1,-10,0,-2
1532114273443,40,-1,-3,-4,-6,-4,-2,-4
1532114273448,-50,0,-1,5,4,7,4,-3
1532114273453,24,1,-2,-8,-6,-3,6,6
1532114273458,-13,-4,3,7,5,3,-3,-7
1532114273463,3,-4,-4,0,1,-6,8,2
1532114273468,9,0,1,2,-2,-4,-9,-4
1532114273473,4,1,0,2,4,7,9,1
1532114273478,-14,0,-3,-6,-9,-10,-4,2
1532114273483,-11,0,-2,-6,-11,-1,1,-4
1532114273488,-3,-6,-2,0,8,-1,-5,-2
1532114273493,1,1,-1,-1,-1,0,4,0
1532114273498,2,-2,-4,-1,0,0,3,10
1532114273503,6,3,2,4,4,3,-1,-3
1532114273508,6,-4,-3,-2,-5,-4,-4,-4
1532114273513,-1,-2,-3,-3,-2,-5,-2,-2
1532114273518,12,1,1,1,-1,10,0,-2
1532114273523,27,1,-4,0,1,-6,-1,8
1532114273528,-33,0,4,5,2,1,0,-11
1532114273533,-3,1,-3,2,-6,-1,1,0
1532114273538,-16,0,1,-12,-4,1,-2,4
1532114273543,33,6,9,12,7,3,0,3
1532114273548,-6,-4,-4,-2,-4,0,-2,-6
1532114273553,-34,-10,-6,1,1,1,9,-7
1532114273558,22,-1,-6,-4,-4,-17,-13,0
1532114273563,-48,-2,1,-4,2,4,-3,-7
1532114273568,40,3,2,0,4,5,3,3
1532114273573,0,1,-2,-5,-8,-3,-2,-4
1532114273578,-4,-4,-4,0,-6,-1,4,2
1532114273583,-2,-2,-3,0,0,0,-1,0
1532114273588,-1,-2,-2,-4,1,-4,-2,0
1532114273593,-8,-1,1,-2,-3,-8,-3,3
1532114273598,1,-1,0,2,4,10,1,-6
1532114273603,-5,1,5,-6,-4,-4,0,-2
1532114273608,-8,-3,-3,-4,0,2,3,4
1532114273613,7,1,-1,2,2,0,-2,2
1532114273618,6,0,1,3,4,-6,0,-4
1532114273623,-17,-6,-8,-3,1,-3,-3,-7
1532114273628,2,0,-2,0,-5,-2,-1,0
1532114273633,5,-2,4,-2,3,-1,-1,2
1532114273638,1,1,-2,2,0,0,1,-2
1532114273643,9,-2,-1,-2,-1,4,-2,0
1532114273648,3,2,3,0,0,0,3,-3
1532114273653,-21,4,2,1,0,2,-2,1
1532114273658,-18,-11,-8,-5,1,-6,-2,-6
1532114273663,1,1,-1,-2,-3,2,-3,-5
1532114273668,0,-2,-1,-1,-4,0,-4,11
1532114273673,29,3,2,-1,1,3,2,-3
1532114273678,0,1,-1,-3,-3,-1,-1,2
1532114273683,10,-3,-3,0,-7,-5,3,3
1532114273688,-3,0,0,-1,-3,-3,-4,-8
1532114273693,-20,-2,0,2,0,3,-2,0
1532114273698,-2,-1,-4,-3,-2,-1,-1,4
1532114273703,6,3,1,0,-1,-2,-3,-2
1532114273708,4,1,4,1,3,-2,-1,-1
1532114273713,-5,-5,-6,-5,-5,-3,-3,-2
1532114273718,9,4,5,2,0,3,2,1
1532114273723,-13,0,-5,-4,0,-4,-2,-2
1532114273728,4,0,2,1,-6,4,5,6
1532114273733,-3,-4,-1,-2,3,-7,-2,0
1532114273738,45,0,-3,-3,-5,-5,-6,-8
1532114273743,-15,1,4,-1,0,-1,-2,-8
1532114273748,-25,-5,-6,-3,9,1,14,-4
1532114273753,-17,0,1,3,-9,2,-16,-4
1532114273758,21,0,-1,-4,2,2,-7,-1
1532114273763,60,3,-2,-3,-2,-4,1,17
1532114273768,-69,-4,-2,-1,-1,1,-13,-8
1532114273773,20,0,1,0,4,4,18,5
1532114273778,-20,0,0,0,-2,3,-4,-4
1532114273783,-8,1,1,0,-5,-3,-3,-15
1532114273788,46,-1,-1,0,3,1,-3,7
1532114273793,13,0,-4,4,-2,1,3,9
1532114273798,-46,-9,3,1,1,-2,-1,-2
1532114273803,1,0,-4,-12,0,3,8,-1
1532114273808,-4,2,1,1,-3,-2,0,0
1532114273813,9,2,0,-1,3,2,-3,-3
1532114273818,22,1,2,3,1,-3,3,2
1532114273823,-31,-6,-4,1,0,0,-2,-3
1532114273828,14,0,-2,-7,-5,-4,-8,-6
1532114273833,11,2,0,0,1,1,6,11
1532114273838,-11,2,-5,1,1,-3,0,-4
1532114273843,-21,-4,1,-1,-4,-1,-2,2
1532114273848,6,2,-2,-1,-2,-1,-5,-6
1532114273853,8,-2,-1,-1,-2,-7,2,-2
1532114273858,-10,2,2,-2,-2,13,12,13
1532114273863,30,1,0,2,0,-3,-15,-4
1532114273868,-15,-3,-3,2,0,-4,3,-13
1532114273873,-47,-5,-4,-4,2,2,-22,-8
1532114273878,10,-3,-2,-2,-2,2,35,7
1532114273883,50,4,0,6,6,-1,11,23
1532114273888,-21,0,-1,-6,-9,-1,-8,-9
1532114273893,8,-5,-5,-5,-7,-4,-2,-6
1532114273898,-10,-3,-1,-11,-3,-2,-14,-10
1532114273903,-26,-2,-2,4,0,2,3,4
1532114273908,36,2,6,3,1,-1,4,9
1532114273913,-2,0,0,3,4,4,3,0
1532114273918,14,0,0,1,-1,-2,1,1
1532114273923,-36,-8,-1,-9,2,-8,-14,-8
1532114273928,36,0,0,0,1,7,-2,0
1532114273933,-42,-4,-4,-3,1,-7,-3,-2
1532114273938,28,6,1,0,1,13,1,10
1532114273943,-8,-3,0,6,4,3,3,-6
1532114273948,22,-3,-3,-3,-1,-2,-1,10
1532114273953,28,1,0,-7,-3,-6,-6,-7
1532114273958,-8,-7,1,1,-3,-5,-5,-11
1532114273963,-5,-1,-2,0,-1,-2,-1,0
1532114273968,-18,-1,1,3,1,-2,-1,-2
1532114273973,42,2,0,2,2,3,4,0
1532114273978,-13,-1,0,1,12,-19,-11,-2
1532114273983,12,2,0,0,-27,13,6,-2
1532114273988,-10,0,-1,-2,5,0,-3,0
1532114273993,-2,-4,-1,-2,-4,-12,-5,-12
1532114273998,-7,-3,-3,-1,0,20,2,5
1532114274003,-23,0,1,1,12,-11,4,4
1532114274008,26,1,-3,-1,-6,-2,2,3
1532114274013,-9,-1,1,-3,-2,-2,2,0
1532114274018,-12,0,0,3,1,-8,-10,-8
1532114274023,31,0,-2,-5,1,-3,-1,-5
1532114274028,26,0,0,-2,-6,0,-2,1
1532114274033,-96,-11,1,2,7,0,0,-4
1532114274038,4,0,-4,3,0,2,0,-1
1532114274043,-13,1,2,-3,-2,1,-1,1
1532114274048,8,-1,-4,-3,-5,-4,-3,-1
1532114274053,10,3,1,0,-2,1,1,3
1532114274058,2,-4,-1,-3,-4,-3,-1,2
1532114274063,30,1,0,-3,-1,13,3,2
1532114274068,-4,3,-1,0,-3,-4,-2,-1
1532114274073,-13,3,2,2,0,1,1,16
1532114274078,-5,-3,-1,2,1,-1,0,-5
1532114274083,8,-2,-5,-1,-3,4,1,-3
1532114274088,-6,-1,0,-1,-3,-4,-4,-1
1532114274093,4,-3,-4,-1,-2,-4,-4,-6
1532114274098,-5,0,-1,-2,-2,0,2,6
1532114274103,-1,2,-1,1,2,2,-1,1
1532114274108,8,1,-4,-3,-3,-10,-2,-3
1532114274113,-4,-4,-3,-2,0,3,-1,-6
1532114274118,-15,-1,-1,1,0,0,0,0
1532114274123,15,4,0,1,0,0,-3,-6
1532114274128,-3,2,2,0,-10,-7,-1,10
1532114274133,38,1,-2,-1,-2,-1,-1,-1
1532114274138,-47,-7,-5,-3,0,2,0,-2
1532114274143,1,-3,0,1,1,-3,1,6
1532114274148,8,5,3,0,0,2,-2,-6
1532114274153,40,-1,-2,0,-1,-1,-3,-3
1532114274158,-25,1,2,-2,0,0,1,-6
1532114274163,11,0,0,-2,-3,-1,1,2
1532114274168,-9,-4,-3,1,-1,1,-3,-3
1532114274173,-9,0,-3,-1,2,-1,-2,-8
1532114274178,7,-1,-1,-5,-2,-2,-2,-2
1532114274183,-3,0,2,-2,0,1,-1,1
1532114274188,-1,-6,-5,-2,0,0,0,0
1532114274193,-23,2,1,1,0,-2,0,2
1532114274198,11,2,3,0,1,1,0,1
1532114274203,0,1,3,0,0,-1,1,-1
1532114274208,0,-3,-5,-3,-1,0,-2,0
1532114274213,-12,2,2,0,0,-1,1,-1
1532114274218,5,0,-3,0,-1,-4,-1,-1
1532114274223,6,-2,0,0,0,-3,-3,-3
1532114274228,-9,-3,0,1,0,10,1,-4
1532114274233,-17,-2,4,-1,1,2,-1,-2
1532114274238,8,0,-1,0,-1,0,1,2
1532114274243,-2,-1,-3,-3,-2,-7,-2,-2
1532114274248,-3,0,0,0,-2,-1,-2,-1
1532114274253,-9,-1,-2,-3,-1,-1,1,0
1532114274258,9,0,0,2,4,0,-1,0
1532114274263,5,-1,-3,-2,-7,-1,-1,1
1532114274268,6,1,1,-2,-3,-6,-3,-7
1532114274273,-21,-3,0,-1,0,1,0,0
1532114274278,-6,-4,-3,0,1,0,1,-4
1532114274283,31,-3,-4,0,2,-2,0,-2
1532114274288,-36,2,2,0,1,-2,-1,0
1532114274293,-7,-5,-6,-2,0,4,-1,-3
1532114274298,4,1,2,0,-2,-6,-1,-2
1532114274303,-2,1,1,-1,-2,-4,0,0
1532114274308,8,-1,1,-1,1,3,0,0
1532114274313,4,-1,0,0,0,-6,-1,-5
1532114274318,-7,-4,-4,0,0,-1,-1,1
1532114274323,-5,0,5,1,-3,5,2,-1
1532114274328,1,-3,-4,-2,2,-5,0,1
1532114274333,-9,1,-1,2,-1,-1,0,2
1532114274338,12,0,-1,-2,1,-1,-1,0
1532114274343,-11,-2,-1,-1,-1,-4,-1,-8
1532114274348,-6,-1,1,1,0,0,1,3
1532114274353,-19,4,2,1,0,3,1,8
1532114274358,3,-4,-5,2,1,-2,-1,-5
1532114274363,13,0,-1,-4,-3,-1,-1,3
1532114274368,2,0,1,0,-2,-6,-3,2
1532114274373,-5,1,0,0,1,15,0,-2
1532114274378,-15,2,1,1,-5,-5,2,3
1532114274383,-1,-3,0,-2,3,9,1,1
1532114274388,0,0,0,-1,-3,-3,-2,-10
1532114274393,25,-3,-3,0,2,-1,-1,-3
1532114274398,-31,-2,0,-2,-2,3,0,2
1532114274403,4,0,1,0,-1,0,-1,-3
1532114274408,-9,-3,-3,0,-1,2,-2,1
1532114274413,0,-1,-2,-3,-3,-5,-2,-3
1532114274418,16,0,-1,1,0,-1,-3,2
1532114274423,-1,0,2,-2,-3,-5,-3,0
1532114274428,-2,1,1,0,-2,4,0,-15
1532114274433,20,-3,-2,-4,-2,-6,-1,7
1532114274438,-28,0,2,4,2,-8,-2,-8
1532114274443,-10,-1,-1,-3,-1,11,0,-9
1532114274448,17,-1,-2,-3,-3,-1,-2,7
1532114274453,-10,-4,-3,0,0,-3,0,-5
1532114274458,18,-1,2,-3,-1,1,-1,0
1532114274463,-3,-4,-5,3,-3,-5,0,-3
1532114274468,-3,1,-2,0,2,4,0,2
1532114274473,-14,-1,3,-3,-2,-3,-2,-3
1532114274478,12,-4,-4,-1,-2,-3,-3,0
1532114274483,0,1,2,1,1,0,0,6
1532114274488,-1,-1,-1,-1,-1,1,0,-1
1532114274493,-15,-1,1,1,-2,-3,-3,-8
1532114274498,11,-1,-1,-2,-1,-1,2,3
1532114274503,-13,-4,-2,-1,2,28,2,8
1532114274508,25,-2,-1,1,-2,-2,-3,-9
1532114274513,-35,2,-3,0,2,-4,-2,6
1532114274518,6,1,4,0,-2,-4,-1,5
1532114274523,8,2,-3,-1,1,-4,-2,-5
1532114274528,7,0,0,0,-2,-2,2,6
1532114274533,6,-4,-1,-3,-1,-4,-2,-3
1532114274538,-4,-1,-2,2,-5,8,-2,-2
1532114274543,-7,0,2,-3,0,-8,0,0
1532114274548,-4,-1,1,-6,-9,1,-3,0
1532114274553,7,-2,-2,-1,-2,-5,-2,0
1532114274558,-2,-1,-1,-5,-1,1,1,2
1532114274563,6,-3,-5,5,2,-10,-3,0
1532114274568,-2,2,-1,0,2,17,2,-3
1532114274573,-1,-2,0,-2,-2,0,-3,-1
1532114274578,3,-2,2,-1,0,-2,-1,-2
1532114274583,-7,-2,-4,-2,-1,-8,-1,-3
1532114274588,3,2,3,-1,3,2,-1,2
1532114274593,-12,2,2,2,-1,-3,0,3
1532114274598,5,-2,-2,0,2,2,-1,-14
1532114274603,6,-1,-2,1,3,-3,1,6
1532114274608,0,3,1,-3,-3,6,-1,2
1532114274613,6,0,2,1,-3,1,1,-3
1532114274618,-15,-2,-4,1,2,-1,1,-1
1532114274623,11,-1,-1,-2,1,-3,-2,-6
1532114274628,0,0,-1,-3,-5,-7,-3,4
1532114274633,-1,-1,-3,0,1,9,0,-1
1532114274638,-5,-1,-1,-1,0,-7,-1,-3
1532114274643,-2,-2,-1,1,-4,-3,1,1
1532114274648,5,-1,-1,1,1,-1,0,4
1532114274653,-10,-1,1,0,-1,-1,0,-2
1532114274658,-1,-2,0,-2,-4,0,-1,-1
1532114274663,2,-2,-2,3,6,-1,0,-1
1532114274668,2,-2,-1,0,-3,0,-1,3
1532114274673,-19,0,-1,1,-2,-3,0,-8
1532114274678,4,-1,1,-2,-1,0,-1,5
1532114274683,17,2,-2,-3,-4,-2,-3,-14
1532114274688,-9,-6,-2,-3,3,-5,0,1
1532114274693,2,0,0,2,1,1,-2,0
1532114274698,-4,-6,-4,-2,-2,-4,0,0
1532114274703,11,2,-1,-1,-2,6,-3,1
1532114274708,-5,-1,0,0,3,-2,1,4
1532114274713,-2,0,0,2,-1,1,1,-1
1532114274718,3,-1,-2,0,1,-2,-3,-3
1532114274723,-20,-1,-1,3,1,-5,-1,-9
1532114274728,9,-1,-1,-3,2,0,0,1
1532114274733,-9,-2,-2,1,3,1,0,2
1532114274738,2,0,-4,-9,-9,0,3,3
1532114274743,11,0,2,-1,-4,-10,-1,4
1532114274748,-6,0,-4,0,3,7,-2,-3
1532114274753,-8,2,4,-2,-2,1,3,0
1532114274758,9,-4,-4,-1,1,1,-1,0
1532114274763,7,0,-2,0,0,-4,-2,-10
1532114274768,11,1,2,2,-1,-1,3,9
1532114274773,-9,-4,-4,-4,0,0,-2,7
1532114274778,-5,1,0,3,1,0,-1,-5
1532114274783,6,0,0,-2,-8,0,0,3
1532114274788,-5,-1,-3,-2,4,1,-1,-7
1532114274793,4,1,2,-2,-5,-2,-2,0
1532114274798,-2,-1,-2,-2,2,-4,-2,0
1532114274803,3,0,-1,-1,3,-7,-5,-2
1532114274808,-5,3,1,2,0,16,2,-1
1532114274813,3,-4,-5,2,-1,0,0,0
1532114274818,-4,-2,2,-4,-3,-5,-2,1
1532114274823,3,-1,-1,-2,2,13,0,0
1532114274828,2,-1,0,0,-1,-10,-2,-3
1532114274833,-5,1,-1,-2,1,-1,-3,-4
1532114274838,8,2,3,4,3,4,-1,-4
1532114274843,-9,-2,2,1,-4,-2,-1,2
1532114274848,-2,-2,-4,-3,-2,-4,-1,-3
1532114274853,9,-1,0,-1,-2,-1,-1,3
1532114274858,-26,-1,1,-2,-2,-1,-2,-15
1532114274863,34,-2,1,2,2,3,-1,2
1532114274868,-58,-3,-4,-5,-2,-10,1,5
1532114274873,0,-2,-2,5,5,17,-1,-2
1532114274878,14,-1,-3,-6,-7,-3,-3,2
1532114274883,0,-1,-1,-1,4,2,-2,0
1532114274888,5,-1,0,1,-2,-7,-4,-6
1532114274893,8,1,1,0,2,2,-1,1
1532114274898,-3,-2,-2,0,1,1,1,7
1532114274903,-8,1,-1,3,-3,1,2,0
1532114274908,12,-1,-1,-1,-3,-4,-3,-1
1532114274913,-6,0,-2,-9,-4,-1,1,0
1532114274918,6,-3,0,8,4,0,-1,-2
1532114274923,0,-1,-2,-13,-2,-11,-3,4
1532114274928,-3,-1,0,4,5,7,-1,-10
1532114274933,-7,-3,2,1,-10,-4,0,-10
1532114274938,-15,-2,-1,-1,5,5,0,8
1532114274943,-1,-2,-5,1,-5,-13,-1,2
1532114274948,-1,0,0,0,-2,4,-1,0
1532114274953,-2,-1,-3,-1,-1,1,1,-6
1532114274958,-42,-2,-1,-1,-1,-1,-1,-8
1532114274963,2,2,1,1,-1,1,-1,0
1532114274968,19,-3,-5,-4,1,-2,3,4
1532114274973,-7,2,3,-1,2,4,-1,2
1532114274978,13,-1,-3,4,-10,-12,-4,4
1532114274983,-9,-4,-4,-8,-2,17,1,-9
1532114274988,4,-1,2,-2,-2,-4,0,24
1532114274993,-16,2,1,3,1,-4,-2,-3
1532114274998,-4,0,-1,-1,1,1,-4,-6
1532114275003,3,1,0,1,-4,-6,0,2
1532114275008,12,0,1,-2,1,-2,-1,-4
1532114275013,12,-3,-6,-5,-1,-1,-2,-3
1532114275018,15,-2,0,0,3,-3,-2,5
1532114275023,-35,1,0,1,-2,-2,-2,-5
1532114275028,-2,-1,2,-2,-3,0,-1,-10
1532114275033,9,-5,-2,-1,-2,-3,0,3
1532114275038,-7,1,-1,-2,0,-1,-2,-9
1532114275043,3,-4,1,5,5,2,-1,-2
1532114275048,15,0,-3,-4,-1,-12,-2,0
1532114275053,-15,1,2,0,-2,4,1,-6
1532114275058,0,-2,-4,-3,-1,-9,0,-5
1532114275063,27,2,2,2,-2,11,-1,3
1532114275068,-28,-1,-3,0,1,-3,-1,0
1532114275073,-2,-3,2,-1,-1,-3,-3,0
1532114275078,-30,-5,-4,-1,5,5,-2,-9
1532114275083,5,-2,1,0,-5,-7,-1,3
1532114275088,7,2,-2,1,0,1,1,-4
1532114275093,30,-2,-4,-8,-4,-2,-2,0
1532114275098,-22,0,2,1,2,-1,2,3
1532114275103,-3,1,2,-1,1,2,0,0
1532114275108,9,0,-3,-2,-2,0,-1,0
1532114275113,-4,1,2,4,2,-3,-1,-4
1532114275118,-3,1,3,6,-2,2,-1,5
1532114275123,-2,2,-2,-14,-5,-6,0,-1
1532114275128,9,-5,-2,0,1,2,-1,-7
1532114275133,1,-4,-2,-1,1,3,1,3
1532114275138,-28,-1,0,0,1,0,-1,4
1532114275143,1,-4,-3,3,-1,-2,-2,-3
1532114275148,2,0,3,-3,0,0,-2,-1
1532114275153,-4,1,-3,-3,0,-13,-3,-2
1532114275158,18,-1,-1,0,-2,16,-3,-4
1532114275163,-5,-3,-3,-5,-1,4,2,4
1532114275168,6,0,0,6,2,-3,1,3
1532114275173,2,-1,4,-1,-5,3,-1,-3
1532114275178,2,0,-1,-2,0,-7,1,-2
1532114275183,-14,-4,-4,2,-1,-1,-1,-4
1532114275188,14,-4,-5,-1,5,2,-1,0
1532114275193,-2,1,-2,-1,-5,-1,0,1
1532114275198,-3,-2,-1,-4,2,-3,-1,0
1532114275203,10,-1,-1,1,0,-4,-2,0
1532114275208,-14,-2,-1,-3,-3,-3,2,-1
1532114275213,-7,1,-2,1,0,-4,-1,-4
1532114275218,6,-1,-2,-3,1,7,0,-1
1532114275223,25,2,0,5,1,-6,0,-4
1532114275228,-22,-3,-2,-8,-7,-5,-3,5
1532114275233,1,0,2,-5,-4,11,1,-2
1532114275238,-22,-2,-3,1,0,-2,2,-2
1532114275243,-2,-1,-2,1,1,-5,-1,2
1532114275248,15,-1,0,3,2,7,-2,-10
1532114275253,-24,-1,-1,7,0,-9,-2,16
1532114275258,15,1,0,-9,-2,6,0,3
1532114275263,-19,-1,-1,0,0,-2,0,-2
1532114275268,-4,0,0,0,1,-1,-1,-1
1532114275273,25,2,-1,3,3,-3,-1,-2
1532114275278,-24,0,2,4,-4,-2,-1,-1
1532114275283,-11,-1,-2,-6,-2,-2,-1,1
1532114275288,11,-2,-5,-1,-3,1,-2,-2
1532114275293,3,0,0,-6,-2,1,0,-4
1532114275298,20,-1,-5,0,-1,-6,-3,0
1532114275303,-8,-4,-2,-4,0,0,-2,-7
1532114275308,-7,2,1,8,3,2,0,-1
1532114275313,-4,-1,-1,-2,2,-3,0,0
1532114275318,10,1,0,-1,-3,0,-1,1
1532114275323,-4,-1,1,2,0,-5,-1,3
1532114275328,3,2,2,-6,-3,1,-1,-3
1532114275333,-13,-3,0,-1,0,-2,0,-2
1532114275338,23,-1,0,-2,-3,2,0,-4
1532114275343,-8,-1,-1,2,-1,0,-1,-2
1532114275348,20,-5,-1,1,-1,0,-2,-3
1532114275353,-4,1,-1,0,1,-4,-3,-4
1532114275358,-28,-1,1,0,-1,-9,0,11
1532114275363,11,1,1,0,2,5,-3,-1
1532114275368,2,-2,-1,-1,-1,-2,2,1
1532114275373,2,-5,-3,-2,-1,1,-2,-4
1532114275378,19,1,0,0,1,-3,-1,0
1532114275383,18,2,0,-1,-2,0,3,6
1532114275388,-43,0,0,0,1,-2,-1,-4
1532114275393,2,2,1,3,1,4,-1,-4
1532114275398,-1,-1,-3,-3,0,-9,-2,-6
1532114275403,-2,2,0,-6,-6,14,0,-3
1532114275408,17,1,-1,-2,-2,-4,-1,-1
1532114275413,4,0,-5,1,-3,0,-1,-3
1532114275418,-2,0,4,5,0,-3,0,4
1532114275423,2,-3,-2,1,0,-3,0,0
1532114275428,2,-3,-2,-7,-6,1,0,2
1532114275433,-13,-2,-1,-1,0,-2,-2,-2
1532114275438,4,-1,-4,-1,-1,-2,-1,-7
1532114275443,-6,1,4,7,-2,-6,-2,-2
1532114275448,-10,1,1,-2,2,-2,-1,1
1532114275453,20,-2,-2,-1,1,2,3,5
1532114275458,-24,1,-1,-1,1,-1,-1,-2
1532114275463,-12,-3,0,-1,0,-3,0,1
1532114275468,-2,-1,0,9,-2,0,-2,-3
1532114275473,6,-2,-1,-11,-5,-12,-4,2
1532114275478,6,-4,-1,-7,-5,14,-1,-2
1532114275483,12,0,0,1,2,0,-3,0
1532114275488,-23,2,0,-2,-3,-1,-1,-13
1532114275493,-24,-2,-1,3,0,0,1,15
1532114275498,10,-1,-1,3,0,-3,-1,1
1532114275503,-10,-1,-2,-4,0,-7,-4,-9
1532114275508,-4,-1,2,1,1,1,-2,4
1532114275513,-4,-2,-4,-3,-4,2,0,-4
1532114275518,4,-1,0,3,2,-8,-2,-3
1532114275523,1,1,-3,-6,-3,7,2,7
1532114275528,12,1,0,-2,0,-8,-1,-2
1532114275533,-15,-4,-2,-1,2,6,-2,-7
1532114275538,5,-1,-2,0,-2,-5,-3,4
1532114275543,-1,-2,0,5,-1,-5,-1,-3
1532114275548,9,2,2,-3,-1,-3,1,3
1532114275553,2,-3,-6,-4,2,12,0,-4
1532114275558,-1,-2,-2,-5,-3,-1,-2,-5
1532114275563,-3,0,-2,2,-1,-5,-2,0
1532114275568,-14,1,-1,0,-1,1,2,-1
1532114275573,4,1,0,-1,-1,-10,-1,0
1532114275578,9,-3,-4,1,0,4,0,1
1532114275583,-3,1,-1,3,-2,3,-1,-5
1532114275588,7,0,1,-4,1,-6,-2,1
1532114275593,-10,-3,0,-1,-6,3,0,0
1532114275598,7,-3,-4,1,-1,-5,-2,1
1532114275603,-23,1,-1,-5,-5,-3,1,-5
1532114275608,-12,2,0,3,1,0,-2,-3
1532114275613,12,1,0,-3,-1,-9,-1,4
1532114275618,9,-3,-1,-2,-3,6,-2,-1
1532114275623,-21,0,0,4,0,-4,-1,-4
1532114275628,8,1,0,-1,-4,-1,0,-9
1532114275633,-4,-3,-1,-1,4,1,0,-1
1532114275638,-2,0,-2,-2,1,-1,0,0
1532114275643,36,3,3,-3,-6,-3,-2,8
1532114275648,-17,-8,-4,-2,1,-3,-2,-5
1532114275653,-5,-1,-2,3,1,-1,-2,-6
1532114275658,-7,0,4,1,0,1,3,7
1532114275663,14,-1,0,8,2,-8,-1,-5
1532114275668,17,-1,-6,-8,-1,17,-1,0
1532114275673,6,2,0,-2,-6,-5,0,9
1532114275678,-8,-3,-2,-1,1,1,-2,-7
1532114275683,17,-1,-3,-5,-1,0,-1,7
1532114275688,-20,-1,3,5,-2,-5,-1,-7
1532114275693,-2,-1,-3,2,4,-6,-4,-1
1532114275698,-6,0,1,-4,-8,16,-1,-3
1532114275703,14,0,-1,0,-1,-3,2,0
1532114275708,-18,2,-1,1,-2,-2,-2,13
1532114275713,-10,1,1,-3,3,6,0,-7
1532114275718,-5,0,-2,-1,0,-8,3,5
1532114275723,10,0,-2,1,-1,2,-4,0
1532114275728,4,-2,-1,-7,0,-1,2,-2
1532114275733,-4,-3,-4,-2,-4,-2,-1,0
1532114275738,2,-4,-3,1,1,-4,-3,-2
1532114275743,-1,-1,1,-4,-3,-5,-1,-6
1532114275748,12,-1,0,5,6,7,0,-2
1532114275753,-2,2,0,6,5,-3,1,-2
1532114275758,-2,-2,1,-12,-9,-4,-1,0
1532114275763,27,1,-1,-4,0,6,1,8
1532114275768,-15,-7,-7,-1,0,-6,0,-5
1532114275773,-3,-1,0,-1,1,2,1,1
1532114275778,-7,-3,-5,3,-1,-3,-2,-5
1532114275783,7,3,4,-1,1,-11,-5,-11
1532114275788,-8,0,2,4,5,16,0,8
1532114275793,18,2,0,-4,-7,-1,3,0
1532114275798,-24,1,0,-4,2,-4,-2,-2
1532114275803,-19,-1,0,-3,-2,1,0,-3
1532114275808,20,-2,-4,-3,-2,-7,-4,-7
1532114275813,-9,-3,-1,2,2,0,-2,-6
1532114275818,15,1,1,3,2,0,-1,6
1532114275823,-26,-2,-2,-1,-1,-4,-1,-3
1532114275828,48,4,2,8,1,2,-1,5
1532114275833,-88,-8,-6,-14,-5,6,1,-11
1532114275838,19,-2,-2,0,-4,-3,-3,10
1532114275843,-11,-1,-1,0,3,1,0,-1
1532114275848,8,1,3,1,-3,-9,-1,1
1532114275853,20,-3,-3,0,0,1,-4,-2
1532114275858,3,0,-1,0,1,3,0,-2
1532114275863,-9,1,-1,-2,-4,-1,-4,-10
1532114275868,-9,-2,1,-3,0,-4,3,2
1532114275873,-4,1,1,-1,2,3,0,0
1532114275878,-1,-5,-3,-2,0,-13,0,2
1532114275883,9,-3,0,10,5,24,2,1
1532114275888,-4,0,1,-1,-10,-6,0,-1
1532114275893,6,0,-2,-2,-3,-3,-2,-6
1532114275898,7,-2,-1,-4,-3,-2,0,-5
1532114275903,-7,-2,5,-3,-4,-4,0,1
1532114275908,-1,1,-1,-2,-3,-5,0,-4
1532114275913,-23,-1,1,3,4,3,0,7
1532114275918,4,-2,-4,1,-2,-2,-1,-3
1532114275923,-11,-1,-2,3,4,-4,0,-1
1532114275928,-8,-3,-1,-6,-1,2,-1,-7
1532114275933,26,2,2,2,1,-10,-2,3
1532114275938,-9,-1,2,3,4,10,0,-6
1532114275943,-3,-3,-4,-5,-2,-2,-2,-2
1532114275948,-20,1,-1,-2,-1,-1,1,15
1532114275953,9,-3,-2,-2,-4,-3,-1,0
1532114275958,-4,-1,0,4,4,-1,-2,-4
1532114275963,0,2,-3,0,-2,-3,-1,5
1532114275968,6,3,-1,-4,-6,-10,-2,-1
1532114275973,35,-1,2,-1,-1,5,-2,1
1532114275978,-34,-1,0,2,3,-1,-1,0
1532114275983,22,-1,-2,0,1,-5,-3,0
1532114275988,-33,-5,0,0,4,2,-1,-6
1532114275993,2,-2,-2,-3,-6,-6,0,3
1532114275998,7,2,-1,-3,6,4,-2,-9
1532114276003,-1,-1,0,4,1,2,0,3
1532114276008,7,-2,0,-1,-3,-3,-2,0
1532114276013,1,-1,-2,0,-1,-2,-2,-2
1532114276018,7,-2,-1,-5,-2,-1,0,-1
1532114276023,-23,-1,-2,2,2,-2,-1,1
1532114276028,17,1,3,-2,-4,4,-1,-7
1532114276033,1,0,1,-2,0,-2,-1,4
1532114276038,27,2,-2,-5,-7,-4,-3,-3
1532114276043,-26,-6,-8,-2,3,0,2,2
1532114276048,10,-1,-4,-1,1,-3,-1,-6
1532114276053,-3,2,2,3,0,-4,0,-4
1532114276058,6,0,0,5,0,19,1,0
1532114276063,3,-1,0,-3,-3,-3,-2,-7
1532114276068,13,0,-2,-2,-5,0,0,10
1532114276073,-21,-3,-2,0,0,-2,-1,0
1532114276078,-10,-2,-1,-1,-4,-10,-2,0
1532114276083,2,-2,-2,-2,0,4,1,-4
1532114276088,-1,-2,-3,3,2,1,0,2
1532114276093,24,2,2,5,-1,0,0,3
1532114276098,-28,0,1,-10,-6,-4,1,0
1532114276103,10,1,5,-3,-6,-3,-3,-6
1532114276108,3,-5,-5,-2,1,-5,-1,1
1532114276113,9,-2,-4,0,3,5,-1,-3
1532114276118,0,0,-3,4,8,-2,1,2
1532114276123,3,1,0,-2,-3,-3,0,6
1532114276128,-1,1,-1,0,1,3,-2,0
1532114276133,-25,0,0,0,-1,-1,0,-3
1532114276138,7,-2,1,2,-1,-2,-1,-6
1532114276143,-2,-3,-2,-4,-1,-3,-2,3
1532114276148,-7,-2,-1,1,0,-1,-1,-2
1532114276153,1,-3,-2,-3,1,1,-2,-2
1532114276158,1,0,0,-2,-4,-10,-1,1
1532114276163,2,1,0,-1,-4,-8,-3,0
1532114276168,-5,-1,-1,-5,2,24,2,0
1532114276173,18,0,-3,6,2,-2,0,-6
1532114276178,10,-3,-2,0,-4,1,0,10
1532114276183,-14,-1,0,-5,-4,-3,0,-4
1532114276188,-30,-3,-3,-3,-1,-6,-3,-25
1532114276193,30,-4,-4,-2,1,-2,-2,2
1532114276198,-19,1,-1,2,1,0,-1,0
1532114276203,-3,-2,-2,0,1,1,0,-1
1532114276208,12,3,2,0,0,-4,-1,-1
1532114276213,-6,-2,0,-2,-1,1,-3,2
1532114276218,-7,0,-1,1,0,-4,0,1
1532114276223,32,1,2,-2,-1,1,1,-7
1532114276228,-45,-3,-3,-1,0,-2,1,14
1532114276233,-6,1,0,-2,-6,0,-2,-14
1532114276238,20,-3,-1,0,2,-1,-3,7
1532114276243,-12,0,-2,-5,-2,-1,1,-5
1532114276248,28,2,2,-2,3,2,-2,7
1532114276253,20,0,0,4,0,-2,-3,5
1532114276258,-22,0,-1,-2,1,-2,-1,-4
1532114276263,-8,1,0,-2,-1,0,1,0
1532114276268,2,0,-3,0,-7,-3,-3,-3
1532114276273,0,0,0,0,-2,-1,-1,5
1532114276278,0,-4,-1,4,2,1,-1,1
1532114276283,-26,4,3,-4,0,3,3,-5
1532114276288,0,-5,-1,-2,1,-5,0,3
1532114276293,-11,-2,-3,-2,2,4,-2,0
1532114276298,7,1,0,4,2,-1,-1,-6
1532114276303,12,2,-1,-3,-4,-3,-2,7
1532114276308,-6,0,0,-2,-3,1,-1,-4
1532114276313,1,-3,-3,-5,-3,-2,-2,-3
1532114276318,-2,0,0,3,-1,-8,0,0
1532114276323,12,-2,-3,-4,-1,6,1,1
1532114276328,-10,3,4,2,1,0,-1,-9
1532114276333,8,-6,-6,-1,1,-3,-1,4
1532114276338,24,-1,-1,-4,-3,2,-2,-2
1532114276343,-39,-2,3,1,2,-5,4,6
1532114276348,-4,-4,-5,-1,-1,-2,-3,-8
1532114276353,6,1,2,3,4,10,3,10
1532114276358,-5,-1,1,-1,-5,-9,-2,-4
1532114276363,6,-1,-2,-4,0,3,0,2
1532114276368,0,-1,1,-1,-1,0,1,6
1532114276373,14,-3,-3,1,-2,-7,-2,0
1532114276378,6,-2,-1,0,-1,6,-2,1
1532114276383,-24,-1,-1,-7,-2,-6,-3,-5
1532114276388,-6,1,-1,-4,-2,4,-1,3
1532114276393,-3,0,0,8,0,-2,1,0
1532114276398,-2,2,0,-6,-2,0,-1,-4
1532114276403,16,-2,-1,-2,1,-2,-3,-2
1532114276408,3,-2,0,-3,-5,-3,0,-1
1532114276413,-5,2,0,-2,-2,-6,1,0
1532114276418,-2,3,3,3,2,18,1,-8
1532114276423,10,-5,-5,-2,-1,-4,0,-2
1532114276428,5,-1,-1,0,-1,-1,-3,-3
1532114276433,-3,-3,0,0,-2,-1,-2,0
1532114276438,-1,-3,-8,1,0,-5,-1,0
1532114276443,-4,0,-1,1,-3,-5,-2,-5
1532114276448,4,0,-3,1,2,8,1,3
1532114276453,-8,-1,2,-1,1,0,-1,-11
1532114276458,-2,-1,2,1,-1,-3,-1,7
1532114276463,5,-1,-3,6,1,1,-1,8
1532114276468,-13,-1,-3,-5,-4,-9,-2,-5
1532114276473,15,5,2,-1,2,6,-3,-2
1532114276478,28,1,0,-2,-2,-6,-1,8
1532114276483,-64,-1,1,0,-1,5,-1,-10
1532114276488,3,-3,-1,3,-2,-1,2,-1
1532114276493,1,-1,0,-2,-1,-1,0,-1
1532114276498,-1,-1,0,3,1,-3,-2,-5
1532114276503,13,0,-2,-3,-3,-4,-2,-2
1532114276508,9,-2,1,1,4,-4,0,5
1532114276513,-8,0,-1,-2,1,7,1,-2
1532114276518,-14,-1,-3,-5,-6,-4,0,-3
1532114276523,15,-1,4,1,0,2,-1,1
1532114276528,-12,-4,-3,-2,-1,-4,-3,1
1532114276533,0,0,1,5,3,-1,0,-2
1532114276538,-10,1,-1,-6,1,1,0,-8
1532114276543,6,-2,0,-6,-1,3,0,-1
1532114276548,0,-1,-2,-2,-2,0,-2,-3
1532114276553,16,-1,-4,-2,-1,-1,-2,4
1532114276558,-25,-1,-4,-1,-3,-1,1,0
1532114276563,1,-1,1,3,3,2,-3,-4
1532114276568,28,6,4,2,2,1,1,-4
1532114276573,-39,0,1,-2,-1,-4,1,21
1532114276578,-2,-3,-6,-3,0,-4,0,2
1532114276583,19,-1,-3,2,1,-2,-1,2
1532114276588,-4,0,-4,-6,1,-2,-2,-6
1532114276593,-7,1,1,-4,-3,5,0,-9
1532114276598,-1,0,2,1,-2,-10,-2,-3
1532114276603,8,-2,-2,0,-1,13,1,7
1532114276608,15,-2,-2,1,0,-4,0,5
1532114276613,-25,-2,1,7,2,-3,-2,-14
1532114276618,17,-3,1,-9,-1,3,0,8
1532114276623,1,-2,-1,-6,-3,-8,-3,-4
1532114276628,-21,3,-4,3,-4,0,-1,-5
1532114276633,13,-3,-4,-4,1,0,2,3
1532114276638,5,-1,-2,2,-1,-4,0,-2
1532114276643,5,-2,-4,-2,-4,-3,-3,2
1532114276648,-3,-3,0,0,2,2,-3,-3
1532114276653,3,0,1,-1,1,1,-1,-7
1532114276658,17,-2,-2,-2,-3,-4,0,5
1532114276663,12,0,1,1,-2,-1,1,-2
1532114276668,4,-4,-3,0,1,0,-1,11
1532114276673,-15,-4,-3,-1,1,-4,-2,-10
1532114276678,-3,0,2,2,0,4,-2,-7
1532114276683,14,0,-4,-2,0,-10,1,1
1532114276688,-5,2,2,-6,-6,3,0,2
1532114276693,8,2,0,-3,-3,-1,-1,-4
1532114276698,-2,-2,-1,2,2,-7,0,2
1532114276703,-12,-3,-1,1,3,9,-2,-5
1532114276708,-9,-3,0,-2,0,-7,-3,-1
1532114276713,10,1,-2,1,-5,0,2,1
1532114276718,-15,0,-2,0,2,0,-1,-6
1532114276723,-1,1,2,0,-5,-9,-2,2
1532114276728,-22,-3,2,-4,0,3,-1,-4
1532114276733,48,-2,-4,-2,0,-1,-3,5
1532114276738,-28,-5,-2,2,0,8,-1,-12
1532114276743,-26,1,-2,1,-1,-4,1,2
1532114276748,-3,2,0,-6,-3,5,1,1
1532114276753,-3,-1,0,-4,-4,-3,-2,-5
1532114276758,5,-5,-4,-2,0,-2,0,16
1532114276763,1,2,2,4,4,2,-1,-8
1532114276768,5,-1,-3,-3,1,-3,-2,-2
1532114276773,-9,1,1,1,-3,-3,0,2
1532114276778,6,2,2,-3,-3,-10,-1,-2
1532114276783,6,-2,0,-2,-1,22,0,0
1532114276788,-7,-3,-5,5,4,-6,-1,19
1532114276793,10,-3,-3,-4,-2,3,0,0
1532114276798,-26,-1,2,-1,1,1,-1,-11
1532114276803,3,-1,-4,0,-3,-9,-3,0
1532114276808,17,3,4,-2,-5,-2,0,-6
1532114276813,-31,-6,-4,-4,2,1,-1,-4
1532114276818,1,1,-3,1,-3,-1,0,6
1532114276823,2,0,0,-2,-2,-9,-2,-14
1532114276828,-2,-5,-3,3,1,2,0,-4
1532114276833,14,0,1,4,3,-2,-2,-6
1532114276838,-11,2,2,-11,-3,7,4,20
1532114276843,-7,-4,-5,-6,-1,-6,-2,-4
1532114276848,33,1,0,2,-3,-1,1,0
1532114276853,-17,0,4,3,-2,-3,0,1
1532114276858,27,0,-4,6,6,2,-3,-6
1532114276863,-37,-2,1,-4,-6,-2,-1,4
1532114276868,-15,-4,-4,0,-1,-5,-1,-9
1532114276873,11,1,1,-3,-3,-6,-2,4
1532114276878,3,0,1,2,1,5,-1,-5
1532114276883,0,3,2,1,-4,-1,-1,-2
1532114276888,-2,-3,-3,-1,3,-1,-1,-2
1532114276893,-4,1,-2,-3,1,4,0,-4
1532114276898,-12,0,-1,3,-6,-8,-2,6
1532114276903,-1,-4,0,-1,2,-3,-3,-16
1532114276908,-4,-3,-5,2,3,8,1,0
1532114276913,70,1,-2,-10,-9,-8,-2,9
1532114276918,-95,0,2,0,-1,6,1,-12
1532114276923,22,0,0,1,0,-4,1,0
1532114276928,-9,-2,-2,-1,0,-3,-2,1
1532114276933,-19,-2,-1,2,4,7,0,1
1532114276938,34,0,0,0,-4,-6,0,-3
1532114276943,-2,1,-4,1,1,-6,-2,7
1532114276948,-13,-1,-1,-3,-7,8,0,-4
1532114276953,-8,-2,2,1,-3,-2,-1,3
1532114276958,13,-1,0,-2,0,1,-3,-4
1532114276963,0,-2,1,-2,-2,-4,-1,3
1532114276968,12,0,-1,1,1,-4,1,3
1532114276973,-13,2,3,0,2,2,0,-19
1532114276978,20,-6,-2,-1,1,1,0,2
1532114276983,9,-1,-6,-9,-4,-4,-2,7
1532114276988,29,0,0,0,1,7,-1,0
1532114276993,-60,-1,-1,-1,-5,0,1,-14
1532114276998,9,-3,-1,2,1,-6,-1,-1
1532114277003,1,-2,-2,-1,2,6,-1,-5
1532114277008,4,0,0,2,2,-5,-3,-3
1532114277013,1,-2,-3,-1,1,-4,-2,5
1532114277018,16,2,-1,-5,-5,-1,-1,2
1532114277023,-2,1,1,3,4,3,2,2
1532114277028,-21,2,0,0,-2,-11,-1,4
1532114277033,12,0,-3,4,4,17,2,4
1532114277038,-6,-3,-3,-6,-1,-4,-3,-5
1532114277043,11,-2,-3,-5,1,3,0,3
1532114277048,17,2,3,2,-3,0,0,-6
1532114277053,-37,-2,-1,-3,-2,-7,-1,-3
1532114277058,14,-1,0,-2,0,-3,0,7
1532114277063,-25,-1,0,2,3,4,-2,-5
1532114277068,5,1,-2,-1,3,-8,-2,-3
1532114277073,5,-3,-2,1,-3,-1,-1,-2
1532114277078,8,0,-4,-1,1,1,0,-4
1532114277083,4,1,2,0,-2,0,1,10
1532114277088,-16,1,1,3,2,-2,0,2
1532114277093,12,-1,-1,-8,-6,1,-2,-3
1532114277098,11,1,0,-8,-4,-4,-2,3
1532114277103,-20,-2,-2,3,1,1,1,4
1532114277108,3,-3,-2,-2,-1,2,-2,-11
1532114277113,-24,-3,0,2,0,-10,-2,14
1532114277118,4,2,0,5,2,17,-1,-7
1532114277123,14,0,3,0,-4,-7,-3,5
1532114277128,4,-4,-2,-1,-4,2,1,2
1532114277133,-2,1,-2,-2,3,-2,-1,-5
1532114277138,15,-2,0,2,-3,-3,0,3
1532114277143,-12,-4,-3,0,4,2,-1,-7
1532114277148,-7,3,2,-2,-5,-5,-3,4
1532114277153,8,-3,-4,-2,0,-8,-3,-1
1532114277158,-3,-2,-2,0,3,7,-2,-5
1532114277163,11,2,0,1,-6,-1,2,-3
1532114277168,-12,-3,0,-3,5,0,2,1
1532114277173,10,1,1,0,-3,-1,0,1
1532114277178,-9,0,-1,-2,1,-6,-1,-9
1532114277183,1,-1,0,-3,-2,0,0,-2
1532114277188,35,0,-6,-2,1,-1,-2,4
1532114277193,-45,-2,-1,5,4,0,-3,-7
1532114277198,-4,-3,1,3,0,-2,1,-10
1532114277203,-5,-3,-5,-4,-5,-9,-1,10
1532114277208,8,-1,0,-2,-1,12,-1,4
1532114277213,21,4,0,0,-2,-1,0,-11
1532114277218,-10,-3,-2,4,3,-4,-2,3
1532114277223,3,-3,-2,-1,-1,2,-1,-2
1532114277228,-12,2,2,-9,-4,-3,0,1
1532114277233,11,-5,-1,-2,-4,-4,-2,4
1532114277238,-4,1,0,0,-1,4,-3,2
1532114277243,8,0,-1,-3,-1,-6,-1,0
1532114277248,-12,-1,-2,3,4,9,-1,-7
1532114277253,-15,0,-1,1,2,2,1,4
1532114277258,17,0,-1,6,0,-4,-1,6
1532114277263,-24,1,1,-2,-4,-3,-1,-10
1532114277268,-9,-2,0,-4,-6,-2,-1,-3
1532114277273,12,0,-2,-4,1,2,0,0
1532114277278,16,-2,-1,-3,-4,-2,-2,-5
1532114277283,-28,-3,-3,5,4,4,1,7
1532114277288,-1,-2,-3,-2,-1,-4,0,0
1532114277293,-6,-4,-3,-3,0,-7,0,-7
1532114277298,4,1,-2,-7,-4,1,-2,1
1532114277303,-15,-3,-3,-4,-7,-3,-3,-7
1532114277308,27,2,1,-4,-7,-14,-3,1
1532114277313,27,3,-1,-2,2,28,1,5
1532114277318,-21,-2,1,4,-3,-12,-1,-4
1532114277323,7,-3,-2,-3,2,9,-2,-1
1532114277328,56,0,-2,3,-2,-3,-1,7
1532114277333,-85,-6,-3,-8,-1,-8,-4,-11
1532114277338,34,2,2,2,-5,3,-1,2
1532114277343,-16,1,-1,1,4,-4,-2,-15
1532114277348,-8,-4,1,3,3,3,-1,-1
1532114277353,21,-3,-3,0,-1,-2,0,7
1532114277358,69,4,0,-4,-6,-2,-2,13
1532114277363,-87,-3,-3,-2,-1,-14,-3,-17
1532114277368,-17,-3,-1,1,2,23,-1,-8
1532114277373,29,3,1,1,2,-8,3,7
1532114277378,-34,-4,-2,-2,1,2,0,-7
1532114277383,42,6,1,-6,-6,0,1,16
1532114277388,-57,-3,0,1,3,-4,0,-5
1532114277393,13,-1,-2,-1,3,-1,-13,-14
1532114277398,-31,4,1,-1,-5,-2,16,10
1532114277403,6,0,0,-2,1,-2,-1,4
1532114277408,3,0,-2,-2,-2,-2,3,3
1532114277413,-2,-5,-1,1,3,11,-1,3
1532114277418,3,2,1,2,-1,-1,2,21
1532114277423,-55,0,-1,-3,-5,-7,0,1
1532114277428,20,-2,-3,-2,0,4,-2,1
1532114277433,-1,-2,0,0,5,2,-1,-9
1532114277438,27,2,3,1,-1,-5,-2,-2
1532114277443,-9,-1,2,2,1,3,0,10
1532114277448,24,6,2,5,-1,0,1,11
1532114277453,-22,1,0,0,1,2,-1,-4
1532114277458,-25,-8,-5,-8,-5,-2,0,-9
1532114277463,12,-3,-3,-1,1,0,-1,-3
1532114277468,-10,-2,-3,-6,-1,0,-2,-2
1532114277473,13,1,0,6,-7,-7,0,0
1532114277478,17,4,-2,-1,1,-1,-2,1
1532114277483,-13,-6,0,-1,-1,3,-1,-13
1532114277488,-10,-8,-4,-3,-1,-13,-6,5
1532114277493,-29,-5,-3,-5,-1,5,-1,-23
1532114277498,-44,-1,0,1,-2,-7,-1,2
1532114277503,14,5,6,9,13,5,0,-1
1532114277508,12,0,-3,1,2,4,1,-7
1532114277513,5,1,-2,-1,-4,2,3,0
1532114277518,-2,-1,2,6,5,-1,-4,-1
1532114277523,9,2,3,2,-4,6,1,3
1532114277528,113,9,0,-2,-7,-6,-3,11
1532114277533,-90,-11,-8,-7,-1,-10,-1,-3
1532114277538,9,-2,-3,-3,1,19,0,-5
1532114277543,9,0,0,-1,4,-3,-1,0
1532114277548,25,1,7,19,9,1,2,0
1532114277553,2,0,-6,-8,-14,-3,-1,0
1532114277558,-10,2,-3,7,0,-4,-2,-3
1532114277563,-4,-2,4,-10,-2,-3,0,-1
1532114277568,-10,-3,-4,-5,-2,4,-1,5
1532114277573,36,5,4,-3,-3,-5,0,1
1532114277578,-38,-4,-2,-3,0,-7,-5,-8
1532114277583,5,1,-2,6,-1,9,1,1
1532114277588,-19,-4,-3,0,3,-12,-2,2
1532114277593,48,2,1,1,-7,7,-1,-2
1532114277598,-9,-1,-3,-3,1,-6,-1,-2
1532114277603,-5,0,1,4,1,-7,-2,4
1532114277608,1,-2,-1,-7,-2,2,0,-10
1532114277613,-25,0,1,7,7,2,0,22
1532114277618,10,1,3,-6,-6,-4,-1,-4
1532114277623,-2,0,-1,-1,1,0,-1,0
1532114277628,-8,0,3,0,-5,1,-1,0
1532114277633,18,-3,-3,-1,1,-4,-1,-6
1532114277638,13,-3,1,0,-1,3,0,-3
1532114277643,-35,-1,-3,2,1,-5,0,1
1532114277648,-4,2,0,-5,-2,8,4,8
1532114277653,10,3,0,10,0,-6,0,-1
1532114277658,10,-1,-2,-10,-2,0,-3,5
1532114277663,35,2,0,-4,-3,-2,0,-3
1532114277668,-69,1,3,3,8,-1,0,-7
1532114277673,-4,-3,-4,-2,-2,3,1,-12
1532114277678,16,-1,0,1,-8,-2,-3,0
1532114277683,4,-2,-1,6,0,-4,-2,8
1532114277688,24,-2,-4,-5,2,2,-1,-4
1532114277693,35,3,0,-2,-4,2,0,-6
1532114277698,-41,1,2,-3,-3,5,3,8
1532114277703,96,6,0,-8,-24,-2,0,19
1532114277708,-87,-16,-6,-6,34,2,-3,-31
1532114277713,-7,0,0,2,-28,-16,-4,-3
1532114277718,24,2,2,4,-1,14,0,-8
1532114277723,-16,-4,-7,-8,-6,-6,-2,-1
1532114277728,17,-1,-4,4,-2,2,0,12
1532114277733,8,-1,-1,-15,11,6,0,-2
1532114277738,-17,0,2,15,7,-7,1,-2
1532114277743,-28,-1,3,7,3,1,-1,2
1532114277748,17,1,0,2,3,1,1,3
1532114277753,3,-1,-2,-1,-10,1,2,4
1532114277758,-6,2,0,-6,-5,-1,3,-4
1532114277763,-23,-4,-3,-3,8,4,0,-7
1532114277768,24,2,-2,5,-12,-13,-4,4
1532114277773,3,1,8,4,6,-1,-2,2
1532114277778,10,-1,-2,-1,3,15,-2,-5
1532114277783,15,1,-1,1,1,0,1,8
1532114277788,-57,3,6,5,-9,-1,2,-7
1532114277793,10,-7,-6,-7,7,-1,-3,-2
1532114277798,0,0,1,-3,2,-5,1,0
1532114277803,-3,-2,1,2,3,-3,0,-7
1532114277808,46,2,-1,-2,-10,1,-1,10
1532114277813,4,3,3,2,4,7,1,1
1532114277818,-31,-5,-3,2,0,-6,-1,-4
1532114277823,-4,-3,-2,-8,-5,2,-3,-6
1532114277828,10,0,-1,2,-4,-3,2,8
1532114277833,4,1,-2,-1,1,-2,-2,-3
1532114277838,11,3,1,0,4,4,0,-1
1532114277843,-5,-2,0,1,0,-14,-1,-4
1532114277848,8,-3,-1,-5,-9,13,0,7
1532114277853,-23,-3,-3,3,6,-3,-1,-9
1532114277858,8,0,1,-1,-5,-12,-2,-1
1532114277863,-37,-1,-5,-1,1,4,0,12
1532114277868,18,1,-2,-4,-1,-6,-1,-2
1532114277873,0,-1,3,-3,-2,1,-2,2
1532114277878,-9,-4,-5,-3,-5,-1,-2,3
1532114277883,3,-3,-2,-2,0,-2,0,-3
1532114277888,21,2,1,-5,1,17,3,3
1532114277893,-38,0,2,3,-1,1,1,-2
1532114277898,16,0,0,3,1,-1,-3,0
1532114277903,-13,-1,-1,1,1,-1,-1,-2
1532114277908,4,-1,-2,-2,1,-10,-4,-4
1532114277913,-7,-3,-5,-1,2,4,0,-2
1532114277918,10,0,1,-1,-6,-4,1,-1
1532114277923,-1,1,-2,1,2,3,-3,-3
1532114277928,-3,-2,1,-3,1,-13,1,0
1532114277933,4,-2,-1,-1,-10,7,-2,0
1532114277938,-3,-6,-3,-4,-4,-12,-4,-10
1532114277943,24,3,1,0,7,9,2,43
1532114277948,-27,-3,-2,2,24,-9,-2,-15
1532114277953,-2,-2,-6,-8,-16,16,1,-12
1532114277958,31,-1,-4,-1,-14,-16,1,26
1532114277963,-32,-1,1,-1,-7,12,0,-10
1532114277968,-29,2,1,-4,5,-18,-2,24
1532114277973,10,-4,-1,3,1,-2,-3,15
1532114277978,-13,-4,-5,-1,-2,2,-4,-25
1532114277983,12,2,-1,5,19,-4,3,2
1532114277988,27,4,2,-16,-17,6,1,0
1532114277993,11,0,3,3,11,-7,-3,-6
1532114277998,-38,-3,-2,-5,-7,-1,-1,2
1532114278003,-25,-1,1,5,3,-6,-4,-18
1532114278008,7,-5,-6,9,3,6,-1,0
1532114278013,27,1,0,-10,-6,-1,2,10
1532114278018,-14,4,5,3,15,0,0,-18
1532114278023,1,-1,-4,0,-13,2,3,1
1532114278028,-4,-5,-4,1,-16,0,-4,-7
1532114278033,1,-2,2,2,17,-5,-4,-6
1532114278038,-2,5,6,1,4,4,2,7
1532114278043,-17,-6,-5,-5,-4,-2,0,2
1532114278048,6,0,-4,-2,-12,-5,-4,-5
1532114278053,-15,1,3,10,13,0,0,-6
1532114278058,15,-2,0,-5,-11,-6,-1,-6
1532114278063,4,-2,-8,-4,14,6,-3,-4
1532114278068,9,2,0,0,-1,17,2,3
1532114278073,-6,-1,-6,-7,-10,-6,-1,-1
1532114278078,2,0,1,3,4,5,0,-2
1532114278083,28,-6,-2,-3,-13,-11,-3,-2
1532114278088,-32,-4,-2,-2,-5,-5,-1,-8
1532114278093,12,1,1,-1,-4,-1,-2,0
1532114278098,-13,-3,0,1,5,1,-3,-2
1532114278103,12,-1,0,-6,-12,0,-1,-9
1532114278108,2,-1,-4,1,6,-2,0,-3
1532114278113,-4,-1,-3,1,-6,-5,-1,-4
1532114278118,5,0,-1,-2,0,4,0,-2
1532114278123,46,6,3,3,-1,-1,-4,-9
1532114278128,-61,-8,1,-5,5,-11,-1,6
1532114278133,-10,0,-4,-2,-2,5,-1,-3
1532114278138,-14,-1,-4,-4,5,4,0,0
1532114278143,-4,1,-2,2,-2,-3,-1,-2
1532114278148,33,3,6,2,-6,3,0,1
1532114278153,-12,-3,-3,-2,0,-8,-1,-3
1532114278158,10,-2,1,2,5,0,-1,-3
1532114278163,-10,1,-2,-9,-1,4,1,6
1532114278168,7,1,2,-3,-10,-5,0,3
1532114278173,7,-1,0,-1,1,-2,0,0
1532114278178,26,2,-3,-6,-2,5,1,2
1532114278183,-39,-8,-4,3,-1,-8,-3,-6
1532114278188,9,0,0,-1,6,2,-1,-5
1532114278193,-5,1,1,1,-9,2,0,-9
1532114278198,49,2,1,4,-4,-1,-2,-3
1532114278203,-18,-1,-1,-3,-1,-5,-1,2
1532114278208,-6,-6,-7,-4,5,-3,-3,-3
1532114278213,-27,-2,3,1,-2,1,0,-3
1532114278218,-8,-3,-4,0,2,-3,-3,-2
1532114278223,13,3,1,-1,-1,-10,-3,-2
1532114278228,18,2,-1,0,-2,23,0,-2
1532114278233,-4,-5,-5,-1,2,-5,-3,3
1532114278238,0,1,0,3,-3,0,-2,-1
1532114278243,-4,1,0,0,1,6,2,0
1532114278248,4,0,-2,0,-4,-5,0,3
1532114278253,-2,-2,-2,-1,3,0,-1,-1
1532114278258,-7,-1,0,-2,-1,3,1,4
1532114278263,-6,-4,-6,1,4,-1,-1,-7
1532114278268,9,-2,2,-4,0,0,-1,2
1532114278273,11,-2,-1,-5,-5,-3,-1,3
1532114278278,-1,0,-1,-2,-3,2,0,-5
1532114278283,13,2,2,3,2,-1,-1,-4
1532114278288,-15,-3,-7,-1,2,1,-2,-4
1532114278293,-12,-2,0,0,-7,-2,0,-4
1532114278298,27,1,-1,-2,-3,-11,-2,4
1532114278303,-36,-1,2,3,6,12,0,-2
1532114278308,7,-1,-2,-5,-6,-2,1,0
1532114278313,-18,-3,1,-3,0,2,-1,3
1532114278318,24,2,0,4,-1,-5,-1,7
1532114278323,0,-2,2,-4,7,-6,-2,-9
1532114278328,-22,2,-1,5,-5,3,-2,4
1532114278333,2,0,2,-2,-3,3,1,1
1532114278338,12,-5,-5,-4,-3,-1,-2,-10
1532114278343,-11,-3,0,0,1,-3,-3,3
1532114278348,7,-3,-2,0,3,0,-1,0
1532114278353,-1,1,0,2,-1,-5,0,5
1532114278358,11,1,1,-1,-1,2,-2,-10
1532114278363,-23,2,0,0,1,-4,0,0
1532114278368,1,-1,0,-4,-2,-4,0,-4
1532114278373,7,-5,-1,0,-5,-1,-3,-3
1532114278378,-8,2,3,-1,-2,5,3,6
1532114278383,23,-4,-5,-3,-7,-13,-4,1
1532114278388,-15,2,0,0,0,22,3,0
1532114278393,-2,-2,-2,1,8,-1,-1,-6
1532114278398,-23,0,2,-1,3,-10,-2,11
1532114278403,19,-1,-3,-8,-6,5,-1,1
1532114278408,2,1,0,10,3,-5,1,1
1532114278413,6,-2,3,-4,-2,-4,-1,2
1532114278418,15,2,-2,0,-1,2,-2,-9
1532114278423,-20,-5,-5,-6,7,-5,-1,-2
1532114278428,9,-7,-3,1,-9,0,0,2
1532114278433,-21,0,0,-1,3,2,2,-6
1532114278438,25,1,-4,1,-9,-10,-2,-1
1532114278443,-2,6,4,-6,-1,-1,-1,-4
1532114278448,0,2,5,5,1,-2,1,2
1532114278453,-1,-5,-3,1,8,-3,-2,0
1532114278458,-2,-1,-4,-2,-5,5,0,-2
1532114278463,6,1,-2,5,-2,-6,-1,-1
1532114278468,0,-1,-4,-8,0,-3,-2,-5
1532114278473,-7,1,1,7,-6,-2,-2,3
1532114278478,-3,-2,0,-3,6,6,-2,-3
1532114278483,-4,2,3,-1,-8,3,2,2
1532114278488,0,-1,1,-5,-2,-9,-3,-4
1532114278493,2,0,-1,1,3,3,-1,3
1532114278498,-17,-4,-2,7,4,-4,-2,-12
1532114278503,22,1,2,0,-6,-4,-3,2
1532114278508,-1,1,2,-2,-1,19,3,3
1532114278513,-10,-2,-2,-5,-5,-7,-1,-7
1532114278518,2,-3,-5,-5,-1,-2,0,4
1532114278523,10,6,1,7,5,0,1,0
1532114278528,-2,-3,1,-1,-12,-2,-3,-2
1532114278533,-5,-1,-3,0,-4,0,0,-1
1532114278538,5,-4,-3,-2,4,-2,2,1
1532114278543,-6,-5,-2,3,-4,2,-1,-3
1532114278548,-3,-1,-3,-4,8,-8,-4,-5
1532114278553,1,0,-1,-5,-11,-1,3,4
1532114278558,-2,2,2,0,6,-3,0,1
1532114278563,-5,-3,-7,1,3,14,1,0
1532114278568,16,1,-3,-4,2,-6,1,-1
1532114278573,-24,-2,1,5,4,-5,-5,-4
1532114278578,6,0,0,4,-1,0,0,-1
1532114278583,21,4,0,-1,3,-6,-4,-6
1532114278588,2,-12,-8,-5,4,-1,-2,-4
1532114278593,41,4,1,-5,-12,-3,-1,0
1532114278598,-54,-1,3,-1,1,1,-2,-6
1532114278603,14,3,4,3,-15,2,3,6
1532114278608,7,0,-5,0,-1,2,-1,0
1532114278613,-34,-4,0,-4,8,-6,-1,-1
1532114278618,35,1,1,2,7,5,-3,-5
1532114278623,-30,-5,5,0,0,-1,2,5
1532114278628,-13,0,-2,0,-1,-10,0,4
1532114278633,7,0,-1,-2,-2,4,1,3
1532114278638,4,-1,-7,-5,-6,-1,-3,-2
1532114278643,-12,-3,0,4,5,-5,-1,-4
1532114278648,1,1,3,0,0,-11,-4,1
1532114278653,2,4,0,5,8,20,-1,0
1532114278658,7,-2,-3,-9,-9,2,3,1
1532114278663,-11,0,-2,-2,-3,-2,-2,1
1532114278668,1,0,1,3,-2,-8,-1,-2
1532114278673,2,-7,-2,-2,-1,-6,-3,-6
1532114278678,12,-1,-2,2,-3,-3,-3,0
1532114278683,-13,-3,-2,-4,-2,2,0,-7
1532114278688,8,4,1,4,-3,3,0,-5
1532114278693,-2,-1,-5,-1,0,-7,-1,-1
1532114278698,18,-1,1,-2,-1,9,-2,1
1532114278703,-22,-3,-4,-2,-2,-14,-2,3
1532114278708,9,4,2,-4,-1,8,3,3
1532114278713,6,0,-4,2,-5,0,1,-9
1532114278718,3,-3,-1,-3,2,-5,-2,-9
1532114278723,9,-5,-6,-5,-4,-10,-1,-4
1532114278728,-27,-4,-1,-1,2,15,-3,-4
1532114278733,14,3,2,-1,4,-2,2,5
1532114278738,-3,2,-1,0,-2,-1,1,3
1532114278743,20,1,3,2,1,3,-1,2
1532114278748,-4,-4,-3,-2,-1,-11,-1,-3
1532114278753,-12,-3,0,-3,-2,-1,-1,1
1532114278758,-13,0,2,-6,1,2,0,-2
1532114278763,17,-2,-4,0,1,0,-1,1
1532114278768,9,2,-2,-2,-7,-3,1,1
1532114278773,-9,-5,-1,-2,-2,1,-2,12
1532114278778,-13,-4,-1,-1,-4,-10,-2,0
1532114278783,22,3,0,-4,-3,3,-2,0
1532114278788,-19,-7,-3,1,5,2,-2,-6
1532114278793,-2,4,1,6,2,3,5,1
1532114278798,5,0,0,-1,1,-6,1,2
1532114278803,2,0,3,-3,-7,2,0,2
1532114278808,3,-1,-2,-2,-1,-4,-2,-1
1532114278813,-1,-2,-1,-2,0,-2,-3,-5
1532114278818,-5,-3,-1,2,2,-5,-3,1
1532114278823,-7,0,3,1,2,4,2,-6
1532114278828,21,0,-6,-1,1,-2,1,5
1532114278833,-17,-3,-2,-6,0,-2,0,0
1532114278838,-11,-3,-2,3,-3,5,1,-5
1532114278843,-8,-3,-4,4,1,2,-2,-1
1532114278848,5,1,2,-5,-2,-2,-2,1
1532114278853,17,2,0,-2,-7,0,-2,-1
1532114278858,-17,0,-1,1,-1,1,0,0
1532114278863,2,0,3,2,-1,-1,0,1
1532114278868,-5,0,4,1,1,-6,0,0
1532114278873,-3,-4,-7,-1,3,0,-4,-7
1532114278878,3,3,4,0,-4,-6,0,-2
1532114278883,3,-3,-7,-2,1,6,0,11
1532114278888,-10,1,-1,1,-3,-1,-2,-1
1532114278893,1,-2,0,-5,-1,-3,-2,-2
1532114278898,5,-1,-1,-1,-3,2,-1,0
1532114278903,-4,-2,-1,-4,-3,-11,-1,-1
1532114278908,3,4,0,2,6,4,0,-7
1532114278913,-24,0,0,2,1,-2,0,13
1532114278918,1,-2,-3,-1,0,-7,-2,-3
1532114278923,21,-1,-1,-2,4,3,0,2
1532114278928,-13,-5,-4,-3,-5,-5,-2,-1
1532114278933,11,1,1,1,-1,2,-2,-5
1532114278938,-29,-3,1,-2,-1,3,0,-7
1532114278943,-19,0,-1,-1,-1,-2,-1,0
1532114278948,19,-3,1,4,8,3,0,1
1532114278953,11,1,-1,-2,-4,-1,-1,2
1532114278958,10,3,2,-3,-2,2,-3,0
1532114278963,5,-2,-1,-5,-1,-7,-2,-8
1532114278968,-4,-2,0,1,-1,13,1,3
1532114278973,-12,0,-1,4,-1,-3,-2,-7
1532114278978,11,-1,-2,0,2,1,3,7
1532114278983,-8,1,3,6,-2,-1,-2,-7
1532114278988,-3,-1,-2,-4,-6,-5,-2,0
1532114278993,2,-4,-4,-1,1,-4,-1,-1
1532114278998,-12,0,-2,1,1,-7,-1,8
1532114279003,-14,-1,-1,1,1,22,2,-7
1532114279008,25,1,-2,-1,0,-2,0,3
1532114279013,-3,2,1,-1,1,2,-1,-3
1532114279018,-30,-1,-2,-2,1,-3,0,-10
1532114279023,15,-4,-2,-4,-6,-3,-1,4
1532114279028,-33,0,0,-2,-1,-2,0,0
1532114279033,5,-1,2,-1,0,0,0,-1
1532114279038,22,2,0,2,0,2,0,2
1532114279043,1,1,-1,-3,-1,-6,-2,-2
1532114279048,-4,-3,1,-2,-2,-7,-1,-1
1532114279053,5,0,-1,1,-4,1,1,0
1532114279058,14,-2,1,1,-2,2,-1,-1
1532114279063,-37,0,-3,0,2,-2,-2,-8
1532114279068,5,-2,-2,-1,0,-3,-1,1
1532114279073,-6,3,3,-1,1,-4,-2,-4
1532114279078,12,-4,-9,-7,-1,2,-1,1
1532114279083,0,3,8,4,2,0,-1,-2
1532114279088,3,-2,-5,1,-1,-4,-3,-1
1532114279093,-9,-3,-1,1,1,-1,0,-1
1532114279098,1,0,1,-2,-3,3,0,-1
1532114279103,7,-2,-7,-3,-2,-6,0,2
1532114279108,-11,-1,2,0,-2,1,-1,-1
1532114279113,15,-2,-3,-2,1,0,-1,3
1532114279118,-23,0,1,2,-5,-2,-2,-5
1532114279123,20,7,7,-3,1,-2,2,6
1532114279128,5,-7,-2,3,2,-1,-2,-2
1532114279133,-10,-3,-6,-3,-4,-1,0,-6
1532114279138,4,2,2,4,0,-1,0,6
1532114279143,8,0,-3,-6,-3,-1,-1,-2
1532114279148,-3,2,-2,-4,-3,-5,-1,-3
1532114279153,5,-3,1,1,0,5,0,4
1532114279158,7,-2,-2,2,7,11,0,-4
1532114279163,-4,-4,-2,-1,9,-5,0,-1
1532114279168,1,-1,-6,-1,-11,1,-2,0
1532114279173,-8,-1,-3,-6,4,-2,0,-2
1532114279178,4,0,0,-3,-2,-5,-3,1
1532114279183,-10,-4,-5,1,0,1,-2,-1
1532114279188,-3,2,5,1,6,-4,0,1
1532114279193,23,1,0,1,-2,-1,-1,1
1532114279198,-34,-2,1,-1,1,-3,-1,-6
1532114279203,33,-3,-5,-1,-4,-9,1,5
1532114279208,-71,-1,1,1,3,19,2,-27
1532114279213,32,-4,-4,-3,-4,-3,-5,7
1532114279218,-15,-4,1,-3,-3,-1,1,-2
1532114279223,-18,-3,-3,4,3,-2,-3,-5
1532114279228,26,1,-4,-7,-7,-3,-1,2
1532114279233,-8,0,0,2,1,-1,1,-4
1532114279238,4,-1,-3,-2,0,-3,-1,5
1532114279243,4,1,4,2,-3,0,-2,-4
1532114279248,4,-2,-2,-4,0,-3,-1,2
1532114279253,-9,3,2,-5,1,-4,-1,-1
1532114279258,24,1,2,-1,-9,5,1,5
1532114279263,-18,-2,-1,0,-1,0,0,-2
1532114279268,15,3,0,0,0,-3,-3,2
1532114279273,-12,-1,0,2,-2,-4,1,2
1532114279278,10,-3,-4,-4,-6,-1,-1,1
1532114279283,-5,-1,-1,-4,-3,2,-1,-3
1532114279288,-24,-3,5,4,4,-1,3,-3
1532114279293,25,0,-3,0,-1,-2,-4,-13
1532114279298,-8,-5,-4,-2,5,-5,-2,-4
1532114279303,-7,3,0,-1,-5,8,0,2
1532114279308,15,-1,2,0,-1,-4,-1,6
1532114279313,-25,-1,0,1,1,-1,0,-2
1532114279318,4,0,-2,0,-1,-1,-1,-6
1532114279323,4,-5,-2,-4,-5,-4,-1,3
1532114279328,5,3,1,0,1,-2,-1,-2
1532114279333,-12,-1,-4,-5,-1,-7,-2,0
1532114279338,7,0,4,6,1,9,0,5
1532114279343,-9,-3,-5,-2,-2,-5,-3,1
1532114279348,6,3,1,1,2,2,1,-5
1532114279353,-1,3,4,-3,-4,-3,1,-6
1532114279358,-8,-4,-3,1,0,-8,-2,-1
1532114279363,5,5,5,0,0,6,3,7
1532114279368,46,0,-4,0,-3,-2,-2,-4
1532114279373,-9,-4,-3,-4,-2,1,0,-2
1532114279378,-34,-2,-4,1,1,-12,-2,7
1532114279383,-19,0,2,-2,-5,15,0,-1
1532114279388,19,-2,-1,5,2,-6,0,-3
1532114279393,18,1,-2,4,2,-2,-4,-5
1532114279398,5,-4,-2,-7,-4,-2,-3,2
1532114279403,9,1,0,0,-3,-4,1,1
1532114279408,-73,-4,-5,-1,2,-4,-4,-5
1532114279413,30,3,4,-13,-5,1,-1,4
1532114279418,2,0,-1,0,-3,-2,-1,-7
1532114279423,-25,-8,-1,-6,-6,-6,-4,-6
1532114279428,32,-2,-5,-7,-5,7,0,0
1532114279433,11,-2,-1,4,6,-1,-1,-18
1532114279438,-16,-8,-3,3,-2,-11,-3,3
1532114279443,24,5,-2,-4,-1,3,-2,-10
1532114279448,-45,-1,2,1,1,-2,1,7
1532114279453,-8,-3,-1,5,1,-6,0,-5
1532114279458,27,4,1,-2,0,5,-1,-1
1532114279463,1,-3,-4,-6,-1,-4,1,3
1532114279468,16,3,2,-10,-4,-4,0,4
1532114279473,0,-1,-2,5,-3,1,0,4
1532114279478,17,0,0,5,-1,-6,0,1
1532114279483,-24,-2,3,9,5,5,-3,-4
1532114279488,-21,0,3,2,2,6,1,1
1532114279493,-18,-1,0,-11,-5,-1,1,2
1532114279498,11,-4,-5,3,-6,-2,-3,-19
1532114279503,-6,-2,-3,2,-1,0,-4,-3
1532114279508,43,4,4,-7,3,6,4,10
1532114279513,-30,-4,-9,-2,-10,1,0,-2
1532114279518,23,3,1,14,10,-3,-1,-4
1532114279523,-28,-2,0,3,-2,-12,-1,-3
1532114279528,14,-3,-5,-7,-1,17,-1,4
1532114279533,-13,0,0,1,3,-1,0,-6
1532114279538,13,0,0,-6,-5,-1,-4,-2
1532114279543,-2,-3,-1,0,1,-4,-2,1
1532114279548,5,4,5,0,-4,-9,-2,-7
1532114279553,11,-4,-6,-2,0,9,0,-3
1532114279558,-7,-5,-8,-4,0,-1,-2,-3
1532114279563,-16,1,2,9,2,6,2,2
1532114279568,20,3,-2,-6,-3,-9,-4,4
1532114279573,21,-5,-6,-11,-3,-5,-1,-2
1532114279578,-56,1,-2,4,4,5,4,5
1532114279583,6,4,1,-3,4,1,-1,-2
1532114279588,-25,2,2,5,-3,3,2,-3
1532114279593,-2,1,2,2,2,-13,-2,-4
1532114279598,10,-5,-6,-9,-6,4,0,6
1532114279603,-6,-2,-2,-2,16,1,0,2
1532114279608,30,2,1,5,-16,-2,2,7
1532114279613,-55,-5,0,-2,8,-1,-1,2
1532114279618,3,3,5,1,-12,0,-2,-7
1532114279623,-5,-3,-7,-6,-12,5,-2,-1
1532114279628,14,-4,-3,-2,5,1,-1,4
1532114279633,2,2,3,5,2,-4,0,-5
1532114279638,13,-4,0,-2,9,-5,-4,-4
1532114279643,11,-1,-1,2,-14,0,2,-10
1532114279648,-19,-2,-3,-4,6,-2,0,5
1532114279653,6,-3,-1,3,-9,2,-2,4
1532114279658,-7,1,-4,-1,7,-5,-3,-4
1532114279663,8,4,6,0,4,3,1,-1
1532114279668,40,-2,-2,-1,-3,-3,0,0
1532114279673,-52,-2,-1,-2,1,-2,1,-3
1532114279678,12,-4,-3,-1,-4,-2,-4,-2
1532114279683,-12,-2,-2,-5,0,0,-1,1
1532114279688,19,0,-1,-3,-1,0,-1,-11
1532114279693,-1,-2,-2,2,1,-1,-4,6
1532114279698,-7,-1,0,0,-1,-4,-3,5
1532114279703,-13,0,2,-4,-4,-3,-1,-2
1532114279708,-12,-4,-2,0,-1,-5,-2,-1
1532114279713,22,1,1,-4,-5,15,-1,-6
1532114279718,-1,1,-2,0,0,6,2,0
1532114279723,1,0,-2,0,1,0,-3,3
1532114279728,-14,-1,2,1,0,4,0,6
1532114279733,13,1,0,-3,-1,-7,0,-1
1532114279738,0,0,1,-1,-1,-3,-1,-2
1532114279743,6,0,1,-4,-3,-3,-2,-3
1532114279748,1,-3,-4,-1,-3,-3,-3,-5
1532114279753,-3,0,-2,4,-1,-1,-1,0
1532114279758,12,1,0,0,2,1,-1,0
1532114279763,-12,1,-2,-2,-1,-1,0,0
1532114279768,24,-3,-7,-13,-7,-2,-2,-7
1532114279773,-15,-6,1,8,3,-7,-2,-1
1532114279778,3,0,-1,-4,-5,13,-2,-2
1532114279783,41,4,-1,-3,0,2,2,9
1532114279788,-18,-4,3,3,0,-11,-2,-19
1532114279793,-21,-4,-2,-5,-3,2,-5,5
1532114279798,0,-3,-4,2,5,-3,0,5
1532114279803,17,1,-1,0,3,-1,-1,-15
1532114279808,-15,-1,1,1,-6,3,1,15
1532114279813,-1,1,-1,-1,-5,-2,-1,-6
1532114279818,51,-1,5,1,-1,-6,-3,8
1532114279823,-38,-2,-5,3,3,1,-4,-10
1532114279828,33,3,1,-6,-1,-2,1,12
1532114279833,-4,2,2,-4,-4,-2,-1,-7
1532114279838,-13,-1,3,9,2,1,3,11
1532114279843,17,-2,-3,1,-2,-15,0,4
1532114279848,19,6,7,-2,-4,22,2,-1
1532114279853,6,-2,-2,-7,2,3,1,6
1532114279858,-24,-6,-8,-7,7,2,1,-5
1532114279863,4,2,5,3,-3,-5,-1,-1
1532114279868,-12,-3,-4,1,-3,-7,-2,0
1532114279873,-2,-1,-4,3,1,2,0,1
1532114279878,58,6,8,-2,-4,-4,-2,16
1532114279883,-108,-4,-1,10,3,4,3,-5
1532114279888,26,0,-4,-5,-3,-3,0,-2
1532114279893,23,-2,-2,-7,-8,-4,-3,2
1532114279898,-24,-2,0,7,11,19,4,-2
1532114279903,6,-4,-8,1,-2,-5,-2,-1
1532114279908,-17,1,0,-5,-8,7,0,-6
1532114279913,-17,0,0,-1,4,-5,0,6
1532114279918,23,-1,-3,-1,-7,-10,-5,1
1532114279923,-7,-2,4,-7,-4,-1,-1,2
1532114279928,-29,-1,-3,0,-1,-2,0,-4
1532114279933,-17,1,0,1,-1,1,-2,-14
1532114279938,18,-3,-2,-3,0,-6,0,12
1532114279943,27,1,-1,7,1,4,0,2
1532114279948,-47,-4,-9,-23,-2,0,-3,-13
1532114279953,21,0,3,7,-7,0,-1,2
1532114279958,-13,-2,-4,2,-2,-8,-2,-4
1532114279963,-10,1,2,-18,-2,-2,-2,-4
1532114279968,22,1,4,31,8,7,3,4
1532114279973,0,2,-1,2,4,3,-3,-10
1532114279978,9,-4,-1,-6,-3,-4,-1,5
1532114279983,-30,-6,-3,1,0,-6,-1,-1
1532114279988,-13,0,-2,-7,-2,-1,-4,-6
1532114279993,97,3,0,-6,-8,-3,-2,-3
1532114279998,-25,-8,-3,0,5,-8,0,-9
1532114280003,-40,-3,0,10,5,6,1,2
1532114280008,12,-4,-1,-18,-7,-1,-1,-4
1532114280013,10,-3,-1,-3,-4,-1,1,3
1532114280018,8,3,-1,-6,-3,-7,-3,-7
1532114280023,20,4,3,-1,-1,11,4,6
1532114280028,-17,-2,-4,5,0,-11,-4,-10
1532114280033,21,-3,-4,-7,4,7,0,4
1532114280038,-54,4,4,-2,0,0,1,6
1532114280043,6,-1,-2,9,-4,-5,0,-2
1532114280048,0,0,-2,2,7,1,-1,5
1532114280053,-7,-4,-2,-11,-9,0,-1,2
1532114280058,10,2,2,7,-1,-2,-2,-8
1532114280063,11,-2,-6,-8,-1,-2,-4,-3
1532114280068,4,1,0,1,-4,-4,-1,4
1532114280073,-6,-3,-2,7,4,1,1,-6
1532114280078,8,0,-2,-7,-4,0,3,6
1532114280083,-31,-3,-2,4,-2,-2,-2,-9
1532114280088,7,3,6,-1,4,-5,2,7
1532114280093,-24,-1,-3,-5,-3,1,-2,1
1532114280098,-12,2,0,-6,-7,-2,-3,3
1532114280103,9,-1,-2,12,4,-5,0,-5
1532114280108,56,-1,-2,-3,-6,2,-2,-8
1532114280113,-96,-7,-4,-1,7,-4,-2,4
1532114280118,21,-2,-2,-12,-4,3,-3,-6
1532114280123,66,4,1,15,5,1,-1,7
1532114280128,-10,-2,0,-21,-18,-4,-1,1
1532114280133,30,2,-3,2,2,4,1,-5
1532114280138,2,0,1,8,-1,0,-1,-6
1532114280143,42,-6,-1,-17,-6,-11,0,-5
1532114280148,-51,-3,-2,9,16,14,1,3
1532114280153,25,-1,-4,-2,-17,-1,1,5
1532114280158,4,0,-2,6,1,-2,-2,-3
1532114280163,0,-1,3,5,-4,-8,-1,10
1532114280168,5,-2,-6,-4,7,5,-5,-19
1532114280173,14,3,2,5,2,-1,9,-1
1532114280178,-18,0,0,4,6,2,2,-5
1532114280183,-8,-1,-1,-9,-4,-6,-3,1
1532114280188,-17,-4,1,3,-1,-6,2,3
1532114280193,3,-8,-13,9,10,2,-6,-3
1532114280198,52,1,5,-11,-22,-10,-2,10
1532114280203,-55,0,-4,2,2,7,1,-12
1532114280208,16,3,1,-2,1,7,-1,2
1532114280213,-11,3,3,-4,-4,-4,1,1
1532114280218,5,-2,-6,4,10,2,-2,-7
1532114280223,-27,-3,-7,-19,-6,-4,-4,3
1532114280228,18,0,0,20,-5,-4,0,8
1532114280233,-26,-3,2,-3,2,-8,-6,-9
1532114280238,-21,-1,-1,-14,3,8,0,2
1532114280243,-1,-1,-5,-6,-17,-3,-1,-2
1532114280248,-10,0,2,-4,5,-6,-1,-8
1532114280253,27,1,-2,3,-2,-4,1,5
1532114280258,-10,-3,-3,-4,-4,-3,-5,-1
1532114280263,-13,-3,2,-2,4,1,-3,-4
1532114280268,-1,-7,-4,10,-1,-9,0,0
1532114280273,0,-3,-3,-6,0,15,-1,0
1532114280278,-2,-3,-7,-1,5,3,3,0
1532114280283,1,4,3,6,7,-1,-1,0
1532114280288,-12,1,1,-2,-4,1,3,-1
1532114280293,0,0,2,2,6,-3,-2,-4
1532114280298,-7,-4,-5,-3,7,2,-2,-6
1532114280303,12,0,1,0,-21,-11,0,5
1532114280308,19,-1,-2,-8,-13,10,-2,0
1532114280313,-52,-2,1,0,15,-3,-2,-4
1532114280318,3,-1,-2,3,-4,-2,0,1
1532114280323,42,3,0,1,-6,0,-2,0
1532114280328,-11,5,4,-8,-6,-5,2,1
1532114280333,-2,-3,-1,-3,-3,-2,-2,0
1532114280338,-9,-5,0,8,16,4,0,-1
1532114280343,-14,-1,-1,-2,-11,-2,-2,-3
1532114280348,22,2,-6,-5,-4,-1,-3,-1
1532114280353,17,-1,2,-3,-3,2,0,3
1532114280358,-18,1,0,1,-4,-9,-4,-5
1532114280363,10,-3,-1,-1,4,8,-2,-3
1532114280368,-13,-3,-4,3,3,-4,2,0
1532114280373,6,-1,1,-6,-1,0,0,5
1532114280378,-6,-1,-1,5,-4,3,-1,-2
1532114280383,2,3,-3,-3,6,-4,0,3
1532114280388,-35,-2,5,-2,-1,1,0,-1
1532114280393,8,1,-4,1,0,-6,-2,-3
1532114280398,3,-1,-1,0,-7,-7,0,0
1532114280403,-11,-1,4,-1,4,0,0,1
1532114280408,-5,-3,-10,-3,3,-1,-2,-2
1532114280413,18,0,-1,0,-10,-2,0,4
1532114280418,-2,1,-1,0,1,2,0,0
1532114280423,-6,-2,-1,-2,-2,-7,-2,-1
1532114280428,-7,-4,0,-1,0,3,-3,-2
1532114280433,12,2,2,0,0,1,3,2
1532114280438,2,-3,-1,2,-2,-2,-2,-1
1532114280443,-16,0,0,1,5,-4,1,-1
1532114280448,7,-3,-3,-1,1,5,-1,-2
1532114280453,2,-2,-4,-3,-1,-2,-2,-2
1532114280458,-9,0,-2,0,0,1,4,4
1532114280463,3,-1,4,0,-2,5,2,-2
1532114280468,-5,-5,-11,-3,0,-9,-2,1
1532114280473,-3,-4,-1,0,-1,-1,-1,-5
1532114280478,5,1,2,2,7,4,0,-2
1532114280483,-15,3,-3,-1,-14,-1,1,6
1532114280488,8,2,1,3,1,-1,-2,-1
1532114280493,47,3,2,1,-2,1,-2,-5
1532114280498,-66,-7,-2,-7,-2,0,0,-1
1532114280503,35,-4,-5,4,9,4,-2,2
1532114280508,-51,-1,3,2,2,-2,0,-5
1532114280513,17,-1,-1,-5,-4,-7,-2,0
1532114280518,-6,4,1,-2,-3,2,-1,0
1532114280523,-9,-2,0,1,8,-1,-2,-12
1532114280528,87,0,0,-9,-9,2,0,2
1532114280533,-99,1,0,7,7,4,2,19
1532114280538,15,-1,3,-1,-10,-1,-2,-10
1532114280543,21,-3,-4,2,11,5,3,1
1532114280548,-22,-1,-6,-4,-6,-1,0,1
1532114280553,17,-3,0,-2,-4,-2,-2,-6
1532114280558,22,-2,-3,-2,-6,-1,-2,2
1532114280563,-22,-3,-1,3,7,-2,-2,-3
1532114280568,3,4,8,-5,-9,-2,0,2
1532114280573,11,-1,-3,-4,1,1,-1,-3
1532114280578,-4,0,-2,-2,7,-1,-1,2
1532114280583,20,-1,-1,-2,-16,-7,-2,-3
1532114280588,-36,2,3,4,9,-2,-1,-1
1532114280593,1,-6,-9,-3,-9,4,-1,-11
1532114280598,13,-3,-3,-4,-2,-2,-3,4
1532114280603,-8,-1,-1,2,-2,2,0,4
1532114280608,-4,0,3,3,6,-16,2,-2
1532114280613,53,2,6,-3,2,14,0,2
1532114280618,-38,-9,-4,-2,7,-2,-2,-11
1532114280623,18,-1,-3,-2,-17,-3,-2,6
1532114280628,-53,-1,-2,1,0,0,-1,6
1532114280633,39,2,0,-1,-1,-3,1,-3
1532114280638,5,-5,-4,-4,1,3,-3,-7
1532114280643,-10,-2,3,1,4,1,-1,4
1532114280648,15,-2,-2,0,-1,5,0,-8
1532114280653,1,-1,2,0,8,-5,0,5
1532114280658,3,6,6,4,-13,-4,0,6
1532114280663,-9,-3,-2,-3,-1,-3,-1,-8
1532114280668,32,-1,-6,9,2,21,0,4
1532114280673,-21,1,-2,-3,6,-5,-1,-2
1532114280678,13,3,10,-3,-14,-1,-1,-5
1532114280683,-1,-4,-1,0,10,3,-1,-5
1532114280688,4,-2,-7,1,0,-11,-2,-1
1532114280693,-33,-3,5,-2,-1,8,2,-1
1532114280698,-18,-1,-8,3,4,-4,-1,-1
1532114280703,13,4,2,-2,0,3,4,7
1532114280708,-7,-2,2,-1,3,-1,0,0
1532114280713,-16,-3,-6,3,-1,-6,-2,-8
1532114280718,44,2,1,-4,-5,-2,-3,4
1532114280723,2,2,-1,-4,0,3,0,1
1532114280728,-14,-3,-2,-1,1,-5,-1,-6
1532114280733,18,-1,-1,1,-3,1,-1,6
1532114280738,-26,-1,1,-1,3,2,0,-2
1532114280743,-22,-5,-9,2,2,-4,-3,-3
1532114280748,23,3,5,-2,-2,1,0,2
1532114280753,-4,-1,4,-4,-10,-8,-4,-3
1532114280758,-2,-3,-7,-2,8,3,0,0
1532114280763,5,5,2,7,-3,0,1,-13
1532114280768,11,-2,-1,-11,-12,-6,-2,10
1532114280773,10,6,3,4,3,6,0,-2
1532114280778,10,-8,-6,0,5,1,0,-1
1532114280783,-23,-2,-2,-5,5,-2,-1,-2
1532114280788,5,0,-1,8,8,4,-1,-4
1532114280793,7,-1,-4,-4,-7,-8,-3,3
1532114280798,4,1,-1,-3,-12,1,-2,2
1532114280803,-5,-3,-2,-1,2,-2,0,-3
1532114280808,-2,0,4,1,6,0,1,0
1532114280813,-21,-5,-4,-4,-3,-4,-3,-1
1532114280818,2,3,0,2,-1,1,0,0
1532114280823,-7,-2,1,-2,2,0,0,0
1532114280828,-6,-1,-1,-3,-2,1,0,3
1532114280833,3,-1,0,5,3,-1,-1,-2
1532114280838,-17,1,-3,-4,-1,-7,-2,-4
1532114280843,27,1,-1,-5,-2,6,-1,4
1532114280848,0,0,-2,3,1,0,0,-8
1532114280853,-13,-1,2,-3,-5,0,-1,-4
1532114280858,-17,-6,-5,0,2,-8,-1,-2
1532114280863,11,-5,-3,-3,1,-1,-2,-2
1532114280868,-9,2,1,-6,-4,-4,1,-2
1532114280873,25,-2,-4,-1,-4,2,0,-4
1532114280878,4,-2,0,2,2,-6,0,-2
1532114280883,-11,0,-1,-5,-11,0,-2,0
1532114280888,10,-1,-3,-1,-1,-5,-3,-1
1532114280893,16,-1,-1,1,2,-1,0,4
1532114280898,10,2,3,-1,-18,-2,-1,1
1532114280903,-19,0,-1,2,18,0,1,1
1532114280908,-1,-3,-3,-1,-11,4,2,1
1532114280913,-14,1,-1,3,5,0,-1,0
1532114280918,27,2,-1,-2,-3,-3,-1,-1
1532114280923,-12,-2,-3,-2,-6,-3,-3,12
1532114280928,-14,4,7,3,6,5,-1,4
1532114280933,-41,-5,-2,-1,-1,3,-1,-9
1532114280938,-2,-1,1,-1,3,-3,-2,8
1532114280943,-18,-3,-2,-9,-11,4,-2,0
1532114280948,23,1,-2,5,3,-6,-1,0
1532114280953,-17,-1,0,8,-1,-6,1,6
1532114280958,3,5,3,-6,1,8,0,-3
1532114280963,0,0,-1,-3,0,-7,4,-5
1532114280968,-5,-2,-3,4,2,0,-6,-7
1532114280973,14,0,-1,0,-3,-2,-2,-10
1532114280978,7,-5,-4,0,5,1,-2,7
1532114280983,-8,-2,-1,-7,8,1,-1,-13
1532114280988,3,-2,-1,-6,-16,-5,1,0
1532114280993,10,-1,-2,-1,0,0,-2,-2
1532114280998,11,1,4,9,-4,-15,0,0
1532114281003,20,3,5,2,8,24,0,5
1532114281008,-5,-6,-1,-8,-3,-6,2,-1
1532114281013,-29,-1,-1,-4,-2,-5,-2,-1
1532114281018,2,-1,-5,-5,5,10,1,4
1532114281023,-7,2,1,11,-4,-13,-2,-1
1532114281028,-5,2,-1,0,2,4,-1,-5
1532114281033,-26,-1,-3,-10,-6,-2,-1,3
1532114281038,-5,-4,-1,7,2,-1,0,-4
1532114281043,13,0,-3,-7,4,-3,-3,-2
1532114281048,1,3,1,-8,-16,4,0,9
1532114281053,-7,4,5,30,5,-2,1,0
1532114281058,-25,-2,0,0,0,1,0,-9
1532114281063,18,0,-1,-5,0,-9,1,14
1532114281068,-36,-2,-3,-12,5,22,1,7
1532114281073,15,-4,-4,-3,0,-1,-3,-1
1532114281078,10,4,6,12,-2,0,-2,-3
1532114281083,-1,1,-1,-4,-10,-6,-1,-4
1532114281088,14,-3,-3,-5,10,-11,-4,-4
1532114281093,29,1,-1,3,-9,6,0,-3
1532114281098,0,-3,2,-1,10,3,-2,-3
1532114281103,-24,-4,-2,0,-9,2,0,-4
1532114281108,24,1,0,8,4,-7,-4,-4
1532114281113,-8,-3,-3,-13,2,-1,-1,-1
1532114281118,-1,1,1,-15,-8,-6,2,-3
1532114281123,13,0,-3,1,2,6,-1,1
1532114281128,-28,-3,0,0,7,-2,0,-8
1532114281133,28,1,1,-1,-3,-12,-4,-8
1532114281138,-6,-1,-8,-13,-2,27,3,6
1532114281143,-6,0,2,9,5,-5,-5,-11
1532114281148,-16,-1,-2,14,10,0,0,-6
1532114281153,9,-3,-3,0,4,-1,1,16
1532114281158,-16,-4,-6,-16,-9,-3,0,-3
1532114281163,19,1,-2,1,-8,-3,0,-4
1532114281168,8,2,8,1,-2,-1,-1,0
1532114281173,-19,-4,-6,3,2,-2,-1,0
1532114281178,11,-2,-5,7,1,-4,-2,-3
1532114281183,-7,-1,0,-21,-7,3,1,4
1532114281188,1,0,-1,0,-8,-15,-3,-2
1532114281193,-14,-3,-2,-5,3,19,1,-1
1532114281198,3,3,4,4,1,-9,-3,0
1532114281203,1,-2,-3,4,4,10,2,-2
1532114281208,-4,-2,-2,-1,-4,-7,-1,2
1532114281213,2,-1,1,-8,9,1,-2,-5
1532114281218,6,3,3,4,-23,-1,1,1
1532114281223,-9,0,-4,9,-8,-12,-3,-3
1532114281228,13,-4,-2,-5,-5,0,0,4
1532114281233,-9,-2,-4,-2,-2,-3,-1,-2
1532114281238,1,4,5,1,17,-7,0,-2
1532114281243,-8,-4,-3,-4,-5,3,-2,2
1532114281248,9,2,-2,-3,-9,1,0,-2
1532114281253,17,1,0,0,-3,-3,-1,-3
1532114281258,-7,-1,0,-2,4,1,-1,-2
1532114281263,6,1,-2,-6,-1,-4,-1,1
1532114281268,7,-4,-6,-9,-11,2,-4,0
1532114281273,-10,-2,3,2,8,-4,3,2
1532114281278,-2,0,-2,-2,-4,0,-1,0
1532114281283,2,3,2,0,-5,3,0,0
1532114281288,69,5,4,8,4,-3,-1,-8
1532114281293,-72,-11,-2,-4,3,0,-3,1
1532114281298,3,-1,-8,-8,-13,-2,-2,2
1532114281303,-11,-7,-5,-4,4,4,-1,1
1532114281308,0,-1,-2,0,1,-3,0,-1
1532114281313,24,9,7,2,3,-6,1,2
1532114281318,-9,-1,-1,2,-2,1,-2,-2
1532114281323,-11,-5,-1,-3,-4,-6,-2,-1
1532114281328,-16,0,-1,0,0,1,-1,1
1532114281333,53,2,0,0,-6,-2,-2,-2
1532114281338,-42,-4,0,-1,7,2,1,-4
1532114281343,34,2,0,-4,0,-3,-3,10
1532114281348,-19,-7,-1,-1,-5,-1,0,-1
1532114281353,87,2,-1,-9,-6,2,-1,-5
1532114281358,-51,-11,-1,17,11,-6,-1,6
1532114281363,8,2,2,-2,2,9,3,-3
1532114281368,-10,2,1,-9,-11,-5,0,3
1532114281373,11,-2,-5,3,4,6,-2,0
1532114281378,24,4,4,-3,1,-1,0,-5
1532114281383,-18,-9,-6,2,3,-3,0,-6
1532114281388,-9,3,-4,-4,-1,-2,-2,3
1532114281393,-53,1,1,1,-1,-3,-2,-3
1532114281398,5,0,0,-3,2,-5,2,5
1532114281403,66,0,-1,1,-4,10,-2,-6
1532114281408,-36,-6,-4,5,5,-3,1,2
1532114281413,37,4,-2,-5,-1,-5,-2,3
1532114281418,-29,-2,2,-1,-1,6,-1,-3
1532114281423,-10,-2,4,2,2,-8,-1,-8
1532114281428,25,4,0,-3,-2,3,0,0
1532114281433,9,-1,-6,-6,-5,-8,-3,-1
1532114281438,5,-3,-3,-1,1,1,-1,1
1532114281443,-25,-4,-5,2,-1,-11,-4,-2
1532114281448,32,-1,-2,-9,-11,11,-3,-4
1532114281453,-68,0,5,5,-3,-8,0,3
1532114281458,-8,-1,-2,6,1,3,-3,-2
1532114281463,-24,-4,-4,-9,3,-5,0,-4
1532114281468,33,7,2,0,0,6,0,-3
1532114281473,-4,-5,-2,0,0,-5,-5,-1
1532114281478,-16,7,5,8,5,1,5,23
1532114281483,-73,-8,-6,-6,-4,-4,-1,-3
1532114281488,33,2,1,2,11,-1,-1,-1
1532114281493,-20,-2,-4,2,0,4,-1,10
1532114281498,21,2,-1,-7,-6,-1,-2,-8
1532114281503,15,-1,-3,-3,0,6,0,-3
1532114281508,-4,-5,-5,-6,2,14,0,-6
1532114281513,-46,-1,-1,3,-3,0,-2,0
1532114281518,20,2,-1,0,-8,-8,-2,5
1532114281523,16,3,1,-4,-5,-7,0,-17
1532114281528,-60,-5,-1,-1,2,-4,0,-4
1532114281533,12,-2,-2,-3,1,4,0,-10
1532114281538,40,-1,-3,-3,-1,10,2,6
1532114281543,-69,-4,0,6,0,-5,-1,-5
1532114281548,1,-1,-2,0,3,-2,-4,-6
1532114281553,20,2,0,-1,-5,-4,1,6
1532114281558,-14,-5,-1,-7,-2,-4,-3,-7
1532114281563,21,0,-1,-2,-2,4,0,6
1532114281568,13,-2,-4,0,-1,-6,-1,-7
1532114281573,-8,-2,-2,7,-1,-7,-2,1
1532114281578,-8,-1,0,-1,-1,10,0,-1
1532114281583,20,3,0,0,5,-3,0,3
1532114281588,-5,-1,-3,-1,2,-2,-1,0
1532114281593,0,3,-1,3,-2,-3,-2,-14
1532114281598,-18,-8,-8,-16,-3,-7,-1,4
1532114281603,8,-1,3,6,1,2,-2,-11
1532114281608,1,-2,1,4,2,0,1,10
1532114281613,31,5,4,5,11,-1,1,6
1532114281618,-11,-2,0,-1,-14,0,-3,-7
1532114281623,-1,-2,-11,-5,3,1,1,6
1532114281628,30,4,2,-4,-10,0,1,-2
1532114281633,0,-2,-2,-5,4,7,1,4
1532114281638,-10,2,2,4,6,-3,1,1
1532114281643,9,-5,0,-2,-1,-9,-6,-1
1532114281648,-7,-8,-6,-1,-2,-4,-3,-4
1532114281653,3,-1,-4,-9,-3,7,1,8
1532114281658,-16,4,1,13,8,-1,-1,-9
1532114281663,18,0,5,-3,-1,2,-2,-1
1532114281668,-42,-1,-1,0,2,-8,-3,-9
1532114281673,34,-4,-5,3,-6,-11,-2,5
1532114281678,3,-2,-3,-13,-9,6,1,1
1532114281683,42,1,2,3,-2,-1,0,-1
1532114281688,-36,-2,-2,-1,4,-3,-3,-12
1532114281693,27,-1,0,-1,-5,1,0,-3
1532114281698,-26,1,2,4,6,4,0,1
1532114281703,11,-4,-6,-4,-1,-2,-2,2
1532114281708,17,3,4,3,-3,-8,-1,1
1532114281713,-9,-1,6,0,6,20,-1,-5
1532114281718,12,-1,-3,-2,-1,-9,0,-4
1532114281723,-23,0,0,-7,-1,2,1,1
1532114281728,28,-1,0,-3,-7,-1,-1,1
1532114281733,-23,-2,-2,-2,3,-4,-3,-2
1532114281738,6,4,1,2,6,0,-1,3
1532114281743,27,2,1,-2,0,-2,2,6
1532114281748,-28,-1,-3,0,0,-9,-3,2
1532114281753,-9,-4,-2,4,7,5,-4,-5
1532114281758,24,2,3,-4,-11,-10,-1,3
1532114281763,-30,-2,1,-5,10,18,2,-8
1532114281768,22,-6,-4,9,-16,-7,-1,-3
1532114281773,6,2,1,-8,4,0,1,-1
1532114281778,21,1,-8,-13,-2,-1,-2,-7
1532114281783,-55,2,1,1,-11,-7,2,25
1532114281788,-42,1,1,4,7,1,-3,-13
1532114281793,11,-3,-2,3,0,-4,-1,7
1532114281798,-36,-5,-2,-2,4,9,-2,-5
1532114281803,9,0,-3,-2,0,-12,-2,-4
1532114281808,7,3,7,3,4,10,0,2
1532114281813,13,-1,0,-4,2,0,-2,-6
1532114281818,2,0,0,0,-9,-3,-1,5
1532114281823,-7,-4,-6,-3,-5,0,-1,1
1532114281828,-1,3,-1,0,3,-1,0,-2
1532114281833,-12,-3,-3,-4,2,-11,-4,-3
1532114281838,11,2,4,-4,-5,23,1,-3
1532114281843,16,0,1,2,6,-6,-1,0
1532114281848,-4,-2,-2,-3,-10,-2,0,-1
1532114281853,54,1,-3,9,6,-2,-2,8
1532114281858,-45,0,1,-1,-2,1,-3,-21
1532114281863,8,-4,-4,-7,0,-3,0,2
1532114281868,0,0,1,3,0,2,1,-2
1532114281873,13,-1,1,3,-1,2,-3,-2
1532114281878,2,1,5,1,2,-4,0,1
1532114281883,8,-4,-5,3,-3,-1,-1,-1
1532114281888,15,0,-4,-14,-1,1,2,2
1532114281893,-29,-2,-2,4,1,1,2,-3
1532114281898,11,1,-1,1,2,-2,0,0
1532114281903,-3,2,1,-1,-3,-6,0,-6
1532114281908,9,2,4,2,1,-2,-1,2
1532114281913,-16,-5,-4,-6,-1,0,-3,-3
1532114281918,-2,-2,-1,0,-1,-3,-1,-3
1532114281923,21,1,-5,-2,2,1,1,0
1532114281928,-5,-3,-1,4,1,-7,-4,-5
1532114281933,-10,5,5,-5,-4,0,1,0
1532114281938,8,-3,-6,4,2,0,0,-1
1532114281943,1,2,4,-1,-1,-1,0,-2
1532114281948,3,-4,-7,-2,-1,-1,-2,-1
1532114281953,-15,-1,0,-2,-3,2,-2,-5
1532114281958,7,1,1,-2,-2,-6,2,4
1532114281963,9,-3,-5,-5,-3,-1,-1,1
1532114281968,-8,1,5,-3,-2,-1,-1,-7
1532114281973,-2,-2,0,0,-1,-8,-3,-3
1532114281978,1,0,-5,0,-1,2,0,-1
1532114281983,20,1,2,6,4,4,2,4
1532114281988,1,0,1,0,-1,-5,0,1
1532114281993,-9,-2,-2,-5,-1,8,0,-1
1532114281998,-4,1,-2,-2,-2,-5,-3,-4
1532114282003,1,-5,3,1,0,-7,-3,-6
1532114282008,4,1,0,-7,-7,1,1,6
1532114282013,-6,-4,1,-4,-4,3,-3,-2
1532114282018,-2,-3,-7,-2,-2,2,0,0
1532114282023,5,1,2,1,4,7,3,6
1532114282028,1,-5,-3,8,-1,-6,-4,-1
1532114282033,-1,3,-1,-3,0,-4,0,0
1532114282038,1,0,4,-6,-3,3,-2,-3
1532114282043,-1,0,-5,5,2,12,2,-1
1532114282048,-2,-1,1,-3,-3,-2,-2,-1
1532114282053,0,0,-3,-9,-8,1,-2,-1
1532114282058,-5,1,0,-5,-5,-5,-1,2
1532114282063,-10,-2,-1,13,3,-4,-1,-5
1532114282068,-6,-1,2,1,-5,-3,-1,-1
1532114282073,-6,-1,-7,0,-2,0,-3,-6
1532114282078,28,-1,0,-2,-1,3,-2,2
1532114282083,-15,0,-5,-3,-1,-2,1,-3
1532114282088,-5,-1,1,2,3,-1,1,0
1532114282093,4,-2,-3,3,-1,-4,-2,-3
1532114282098,-12,-1,0,5,5,1,-1,-3
1532114282103,16,0,3,-11,-5,2,3,9
1532114282108,3,-2,-2,-3,4,-9,-2,-2
1532114282113,-8,0,-1,10,6,17,4,3
1532114282118,4,0,-3,-7,2,0,-2,-2
1532114282123,-4,-2,-3,1,3,-5,-3,-3
1532114282128,-4,-3,0,-4,-7,-5,-2,-1
1532114282133,-2,-1,-4,2,3,0,-2,-4
1532114282138,-3,0,6,4,-8,-8,-1,1
1532114282143,-1,-4,-4,-11,-3,0,-4,-6
1532114282148,-1,-3,-6,-6,-3,1,1,0
1532114282153,-1,0,1,6,-2,-6,-3,-4
1532114282158,-4,-3,-1,-2,6,6,1,-1
1532114282163,-1,0,-1,-2,-2,-9,-2,1
1532114282168,17,2,2,-1,-1,-5,0,4
1532114282173,12,0,1,-9,-1,7,0,-3
1532114282178,-21,-1,-4,13,2,0,-1,-3
1532114282183,-32,-3,-1,-1,2,-2,1,0
1532114282188,13,-1,-2,1,3,1,-4,2
1532114282193,-6,0,1,0,0,-3,0,2
1532114282198,10,2,2,-7,-3,-1,1,0
1532114282203,10,-3,-4,6,1,-1,-4,-5
1532114282208,-7,-2,-2,-4,-3,2,2,4
1532114282213,1,0,2,-8,-5,-1,-1,1
1532114282218,12,-2,-2,4,0,-4,-1,-2
1532114282223,-38,0,2,5,2,3,-1,-6
1532114282228,2,3,4,-1,-4,-3,-1,-2
1532114282233,-3,-4,-1,0,1,1,0,4
1532114282238,1,2,-1,0,1,-6,-2,-3
1532114282243,15,-1,-5,-5,-1,-3,0,4
1532114282248,1,-1,-2,5,3,-5,-2,-5
1532114282253,-8,-4,-1,-7,-4,19,3,2
1532114282258,-3,1,2,10,-2,3,3,0
1532114282263,15,0,-2,-9,-2,0,-1,-1
1532114282268,-11,-3,-4,-9,-5,-2,-3,-5
1532114282273,12,0,-3,-2,2,-8,-4,0
1532114282278,-13,-4,1,-4,-2,-5,-3,-1
1532114282283,-4,0,1,8,3,3,-3,0
1532114282288,-6,1,-1,1,1,3,1,-4
1532114282293,-1,-1,-1,-4,-4,-8,-1,-2
1532114282298,1,-4,-3,-1,-3,-1,-1,0
1532114282303,9,4,6,-4,-5,-4,-1,-1
1532114282308,0,0,-1,0,1,6,2,2
1532114282313,15,1,1,0,-2,-15,-2,-1
1532114282318,-13,-1,-2,1,6,20,1,3
1532114282323,2,-4,-1,1,-6,-12,-4,-3
1532114282328,14,0,2,-9,-4,6,1,4
1532114282333,-5,0,-1,2,0,1,-2,-4
1532114282338,2,5,0,2,-1,-6,-2,-1
1532114282343,-4,-5,-4,-1,-1,1,-1,-5
1532114282348,4,-4,-7,-4,3,3,-1,0
1532114282353,-11,-1,1,-2,-4,-13,-3,0
1532114282358,14,4,2,4,1,2,1,3
1532114282363,-7,-3,-1,-6,-2,1,0,0
1532114282368,-7,-1,-3,4,-2,-5,-3,-1
1532114282373,-29,-4,-3,-2,-1,-1,-1,-3
1532114282378,4,-2,-1,1,1,-5,-2,-3
1532114282383,8,1,4,4,2,-1,-2,8
1532114282388,0,1,1,-8,-7,3,1,0
1532114282393,5,1,0,-5,-3,3,0,0
1532114282398,-8,-5,-2,4,4,-5,-1,-2
1532114282403,7,-1,-10,-9,-5,0,-1,0
1532114282408,-6,-2,-1,7,1,-4,-3,-6
1532114282413,7,3,2,-2,-3,-1,2,6
1532114282418,-2,-1,-2,-2,5,1,-2,-3
1532114282423,3,-1,-1,0,-1,-6,1,0
1532114282428,-7,2,4,4,0,0,-3,0
1532114282433,8,-3,-1,-1,-2,1,-2,-2
1532114282438,8,2,-6,-10,-6,-3,2,0
1532114282443,-33,-1,5,5,1,-5,-1,-3
1532114282448,2,0,-1,-1,-2,1,1,-2
1532114282453,7,-2,0,5,2,-8,-2,-3
1532114282458,-8,-4,0,-6,-1,18,-1,0
1532114282463,12,0,-7,-11,-9,-1,-2,-1
1532114282468,-14,1,6,7,-2,-6,-1,-5
1532114282473,-11,-1,-9,4,1,-1,2,4
1532114282478,0,-1,-3,-14,-2,-2,0,0
1532114282483,8,-1,-1,8,3,-3,0,-3
1532114282488,20,-2,1,-2,0,2,-4,0
1532114282493,-48,-4,-3,1,2,5,0,-7
1532114282498,4,0,-3,-5,-14,-8,-1,1
1532114282503,3,3,3,6,1,4,1,0
1532114282508,4,-3,-3,-2,0,-2,-1,0
1532114282513,-5,-1,1,-8,-6,-1,0,2
1532114282518,0,-3,0,4,-1,-4,-3,0
1532114282523,0,-2,3,-7,-1,-2,-3,-4
1532114282528,-5,-2,-2,0,-2,-4,3,0
1532114282533,13,1,0,7,3,3,-2,-1
1532114282538,-2,4,5,-1,2,-2,3,2
1532114282543,0,-2,0,4,-1,-2,-3,-1
1532114282548,0,-3,-6,-2,-2,0,-1,1
1532114282553,0,0,-1,-7,-3,1,-3,-4
1532114282558,-5,-1,-2,-2,-1,-9,-3,-4
1532114282563,9,1,-2,3,3,5,-1,1
1532114282568,-6,2,4,1,3,-1,-2,1
1532114282573,0,-3,-3,-5,-9,-6,1,-2
1532114282578,4,-1,-3,-1,-2,-3,-1,-1
1532114282583,-2,-5,-5,-10,-4,12,2,-3
1532114282588,26,2,0,-1,6,-4,-4,-2
1532114282593,-27,0,0,-4,1,-3,0,0
1532114282598,2,-3,-3,8,1,-4,-3,-3
1532114282603,-2,1,2,2,-1,0,1,0
1532114282608,5,-5,-2,-4,-7,-1,1,0
1532114282613,3,3,2,5,6,3,-2,1
1532114282618,-5,-2,-2,-6,-7,-4,-1,-4
1532114282623,-1,-1,0,5,4,-3,-1,0
1532114282628,4,0,-2,-8,-7,-5,-3,-1
1532114282633,2,-4,-1,1,0,3,-1,-2
1532114282638,-7,2,-1,-5,-1,-2,1,-1
1532114282643,4,4,1,4,0,6,0,0
1532114282648,-8,1,2,9,3,2,1,-1
1532114282653,9,-3,-7,-8,-3,-11,-1,1
1532114282658,17,1,4,6,7,21,-1,0
1532114282663,-31,1,3,1,0,-2,-1,-2
1532114282668,12,-3,-8,-6,-6,-3,-1,1
1532114282673,-16,-1,3,1,1,1,-2,-2
1532114282678,-1,-2,-6,7,0,-5,2,2
1532114282683,9,-3,-2,-22,-8,-6,0,1
1532114282688,-15,-1,-2,4,1,6,-1,-3
1532114282693,17,6,6,1,2,5,0,3
1532114282698,23,0,-3,2,-2,-6,-1,4
1532114282703,-21,-4,-4,3,-1,-2,0,-2
1532114282708,-20,-2,-3,-3,2,-9,-2,-10
1532114282713,42,-1,-2,-8,-4,7,-3,1
1532114282718,-48,-3,2,3,5,-2,0,-6
1532114282723,21,-1,-2,-6,-2,-2,-1,6
1532114282728,0,-2,-1,12,2,-6,-2,-1
1532114282733,18,-1,-1,-2,-3,-5,-2,0
1532114282738,-26,-2,-2,-2,6,3,-3,-9
1532114282743,-5,-1,0,9,-2,-3,-1,-2
1532114282748,8,1,-2,-14,-10,4,0,5
1532114282753,-9,-2,-4,6,-1,-5,1,-4
1532114282758,8,1,3,-8,-5,-5,-1,3
1532114282763,-4,-3,-6,0,8,4,1,-4
1532114282768,-8,2,1,-1,3,-1,0,0
1532114282773,-9,-5,-3,-3,0,5,-5,-2
1532114282778,24,3,3,-3,-20,-10,0,0
1532114282783,33,4,2,5,4,1,-2,-20
1532114282788,-64,-5,0,-1,2,1,1,19
1532114282793,-3,-1,-1,1,5,-9,0,-4
1532114282798,32,-1,-6,-2,-2,7,0,1
1532114282803,-22,2,2,-6,-8,-11,-2,-8
1532114282808,17,-4,-2,0,1,1,1,-6
1532114282813,-53,0,4,3,1,-5,-1,1
1532114282818,-19,-3,0,-1,0,4,-2,-3
1532114282823,30,1,-1,1,-7,-1,1,8
1532114282828,12,-1,0,-7,3,2,-2,-4
1532114282833,-6,-1,-1,3,-10,-6,-1,1
1532114282838,19,1,0,-1,8,-1,-1,-2
1532114282843,-15,-5,-4,-5,-13,-1,-2,2
1532114282848,-8,-1,-3,6,4,-1,-1,-4
1532114282853,25,-1,-2,-5,-3,9,1,-3
1532114282858,-21,-2,-3,-1,-5,-7,-3,-1
1532114282863,7,1,2,-1,2,8,3,8
1532114282868,-6,-2,-3,2,-3,1,-2,-2
1532114282873,15,2,-1,3,2,-1,-1,2
1532114282878,-4,0,4,0,0,5,1,1
1532114282883,-13,-3,-4,-3,-1,-3,-5,0
1532114282888,20,1,1,0,-3,1,0,-3
1532114282893,-2,2,-2,1,4,1,-1,0
1532114282898,-9,-4,2,7,-3,-8,-1,0
1532114282903,28,-1,-2,-7,3,-2,-1,9
1532114282908,9,2,2,-3,0,3,1,-15
1532114282913,-50,-3,-1,2,-2,-1,0,12
1532114282918,-4,3,-1,0,1,0,2,2
1532114282923,-1,-3,2,-2,-1,1,-1,-3
1532114282928,24,0,-2,-2,3,0,-2,-2
1532114282933,3,3,4,-5,-5,0,1,8
1532114282938,4,-4,-6,-2,1,-1,0,-4
1532114282943,-12,-4,-3,-5,1,-2,0,0
1532114282948,-10,1,0,7,-1,-1,-1,-2
1532114282953,22,1,-1,2,-2,-6,-2,-8
1532114282958,-7,-2,-5,-3,2,3,-2,1
1532114282963,5,-1,4,5,1,-2,-3,-5
1532114282968,-10,-1,0,-3,-4,-10,-2,0
1532114282973,13,-1,-1,-10,-5,12,4,5
1532114282978,2,1,-3,1,4,3,-2,-1
1532114282983,-9,2,2,6,2,-1,0,-2
1532114282988,-7,1,2,-2,0,-2,-1,0
1532114282993,3,-5,-2,4,4,-6,-1,-5
1532114282998,-4,-2,-1,-5,-4,-3,-3,-2
1532114283003,-2,-1,-4,0,0,1,-1,0
1532114283008,-5,1,4,-2,-1,2,2,3
1532114283013,25,0,-2,1,-3,-2,-2,-5
1532114283018,-8,-2,3,5,0,0,-3,0
1532114283023,58,0,-6,-6,-4,-3,-2,4
1532114283028,-71,-4,-2,-3,-1,-1,0,-4
1532114283033,3,0,-1,0,3,-10,-4,-8
1532114283038,-5,-2,0,-3,-12,-1,0,3
1532114283043,9,3,6,-2,7,14,2,-6
1532114283048,14,-2,-5,6,3,0,-1,23
1532114283053,-40,-1,0,-2,-1,2,2,-3
1532114283058,0,-1,-3,-1,4,-13,-2,4
1532114283063,-8,2,3,-1,-7,0,1,-1
1532114283068,16,-3,-4,-2,-10,1,-2,0
1532114283073,-15,-2,1,-3,5,8,0,-10
1532114283078,12,0,-6,-7,-3,-1,-1,0
1532114283083,-19,-2,2,13,7,-6,0,0
1532114283088,15,1,1,-6,-11,2,-1,-2
1532114283093,4,-2,-2,3,-2,-5,-4,-1
1532114283098,4,0,2,-4,-4,3,0,-8
1532114283103,-25,-2,-5,-10,-1,-1,1,-1
1532114283108,25,-2,0,3,4,-2,-2,-12
1532114283113,-22,-4,-3,-3,7,-2,1,5
1532114283118,-36,-3,0,2,-1,4,0,-4
1532114283123,2,-1,-1,0,2,0,-1,-4
1532114283128,13,0,-2,-1,4,-8,-1,-1
1532114283133,1,1,0,9,-1,4,1,1
1532114283138,-4,-1,-1,-10,-6,-5,-2,-10
1532114283143,23,2,-7,2,-6,0,1,-7
1532114283148,-2,-1,7,0,1,-1,-1,2
1532114283153,-8,-7,-13,-7,-6,-10,-4,-5
1532114283158,-6,0,-1,0,2,4,-1,-5
1532114283163,8,-2,0,0,-2,0,-3,-1
1532114283168,0,-1,-1,4,-1,-6,0,0
1532114283173,1,1,2,-1,0,-3,-1,4
1532114283178,-30,0,-1,-2,6,1,-1,-16
1532114283183,1,-6,-2,-9,-12,-9,-1,0
1532114283188,8,4,2,-1,-1,6,0,2
1532114283193,-12,-4,-4,-1,5,-1,-1,-6
1532114283198,7,2,4,1,7,9,1,3
1532114283203,8,-1,-2,-2,-4,1,0,1
1532114283208,-1,-3,-8,-2,-4,-8,1,-4
1532114283213,2,0,0,-1,-1,5,-1,-1
1532114283218,9,1,1,0,0,-11,-2,-3
1532114283223,-3,1,3,6,5,8,0,-1
1532114283228,10,0,-1,-3,-1,-1,-3,1
1532114283233,-12,-2,-1,-2,-3,-1,-2,-1
1532114283238,-6,-1,-2,3,-1,-4,0,-1
1532114283243,8,1,0,-7,4,1,0,1
1532114283248,2,0,1,-6,-6,-4,-1,2
1532114283253,-6,1,2,-1,-2,-2,-3,-4
1532114283258,2,-1,-4,-4,-2,0,2,4
1532114283263,6,-2,-3,1,2,-1,0,0
1532114283268,-5,1,2,7,-4,1,-1,-4
1532114283273,-3,2,4,-3,1,-3,-2,4
1532114283278,28,-2,-2,-2,-2,-3,-5,-20
1532114283283,-47,-8,-8,-7,-2,8,1,12
1532114283288,26,3,1,-3,-3,0,1,3
1532114283293,-47,-5,-1,-2,1,7,-1,-6
1532114283298,67,1,-2,-1,-4,-4,-5,-2
1532114283303,-66,-3,4,8,4,-1,0,-6
1532114283308,-9,-4,-5,0,4,-5,-3,-11
1532114283313,18,-3,-3,-3,-4,-1,0,5
1532114283318,-4,3,1,1,7,1,0,-1
1532114283323,23,5,3,0,-5,1,1,0
1532114283328,2,-1,-2,3,5,3,-2,6
1532114283333,-3,-3,-1,-4,-10,-10,2,-2
1532114283338,-23,-2,-2,-6,-2,-2,-1,1
1532114283343,28,1,1,-2,-7,-1,-3,-5
1532114283348,-16,-1,0,1,9,-1,0,-4
1532114283353,20,0,-1,-4,-4,1,-2,-7
1532114283358,-9,-4,-3,-1,2,-2,-1,0
1532114283363,0,1,0,2,-1,0,-2,1
1532114283368,-6,-2,1,-2,0,2,1,-1
1532114283373,4,-2,-4,3,4,-2,1,0
1532114283378,-17,-5,3,1,-7,-2,-2,2
1532114283383,17,-3,-7,0,2,-2,-2,-5
1532114283388,-1,-1,-3,-6,-7,2,1,1
1532114283393,-21,-1,1,0,1,-1,-3,-6
1532114283398,-9,-1,0,0,1,-14,-4,-1
1532114283403,12,1,1,0,-6,2,-2,0
1532114283408,15,-3,-2,2,5,9,3,5
1532114283413,8,1,-1,-3,-3,-4,0,6
1532114283418,-9,-1,-2,-1,-6,4,0,2
1532114283423,14,0,1,0,7,-7,-2,-2
1532114283428,-2,0,1,-5,-8,-2,-1,2
1532114283433,5,-3,0,1,2,-2,-2,1
1532114283438,1,1,-1,3,1,-1,-1,1
1532114283443,6,0,-1,-1,-3,-3,1,7
1532114283448,-9,0,-1,-3,-2,1,-1,-6
1532114283453,-4,3,0,-3,0,1,-1,-2
1532114283458,7,-2,-2,-3,1,2,1,3
1532114283463,3,0,1,-2,-1,-7,-3,-4
1532114283468,28,-1,-1,4,1,4,-3,-3
1532114283473,0,-5,0,-4,0,0,-2,3
1532114283478,11,3,-3,-3,-2,3,2,2
1532114283483,-53,-3,-1,0,1,-1,-2,-9
1532114283488,16,-2,-4,-1,-3,-8,-2,-5
1532114283493,2,2,5,5,2,-1,-2,-1
1532114283498,1,-1,0,0,-1,2,-1,3
1532114283503,22,1,0,-1,-1,-4,1,5
1532114283508,-18,-2,-1,2,2,4,0,0
1532114283513,1,-1,-2,1,4,-2,-1,0
1532114283518,-16,1,3,5,-5,-4,-1,0
1532114283523,36,-1,-5,-9,-5,5,-2,-5
1532114283528,-29,-3,4,-4,-16,-3,-2,4
1532114283533,3,4,4,9,4,4,5,3
1532114283538,1,-1,-2,-1,4,-6,-5,-15
1532114283543,14,0,0,0,6,6,1,2
1532114283548,0,-2,-5,2,7,-4,-1,1
1532114283553,8,1,-2,-6,-2,2,-4,-7
1532114283558,-14,-8,-4,1,3,-5,0,-2
1532114283563,4,1,-1,5,1,-1,-3,-4
1532114283568,-16,-3,1,-10,-2,-1,-1,3
1532114283573,14,1,-3,1,-3,-6,-2,-11
1532114283578,-11,-1,0,-6,-5,-5,0,1
1532114283583,-2,-5,-5,-7,-7,-2,0,1
1532114283588,4,-3,-1,2,-1,-1,1,-1
1532114283593,7,-1,1,-3,-6,-2,-3,-1
1532114283598,5,-1,-6,2,4,4,0,2
1532114283603,-8,4,3,2,-4,-9,-2,-1
1532114283608,1,1,-3,-5,1,-1,2,2
1532114283613,-14,-1,-2,-1,1,-1,-1,1
1532114283618,-7,-1,-2,-10,-3,1,1,2
1532114283623,7,4,5,-1,-6,4,-1,-8
1532114283628,0,-5,-2,3,3,-5,-5,-10
1532114283633,-6,-3,-4,2,2,0,0,2
1532114283638,-7,0,2,4,3,4,2,-1
1532114283643,67,3,-3,-4,-4,-4,-5,-5
1532114283648,-63,-2,0,-3,-4,-1,4,2
1532114283653,4,-2,1,2,-1,1,0,0
1532114283658,-4,-9,-6,-11,2,1,-3,-1
1532114283663,-9,-4,0,11,-1,-2,-1,3
1532114283668,15,6,2,-1,2,3,-2,-7
1532114283673,6,0,-2,-6,-5,-9,-4,2
1532114283678,-14,0,1,4,1,17,2,-2
1532114283683,-27,-5,-4,-4,-1,-9,1,2
1532114283688,9,3,-1,2,1,12,-2,-2
1532114283693,-2,-3,-2,-1,0,-4,2,1
1532114283698,44,2,0,-10,-8,-4,-4,-4
1532114283703,-37,-7,-5,2,8,-2,-2,-4
1532114283708,18,-1,-7,4,-1,-7,-2,-4
1532114283713,-24,-2,0,-3,-2,5,-1,-2
1532114283718,24,0,0,-1,-4,-9,-2,-2
1532114283723,-34,-2,1,-3,2,5,1,1
1532114283728,26,7,6,2,-3,-6,3,5
1532114283733,-16,-8,-3,-9,-2,-1,0,-3
1532114283738,-16,2,0,4,-2,-3,-3,0
1532114283743,-3,-1,0,-4,-2,3,2,10
1532114283748,6,-3,-3,-1,4,8,0,-5
1532114283753,25,1,0,5,1,-8,0,4
1532114283758,-17,-3,-1,2,-4,8,6,5
1532114283763,24,1,-3,-12,-9,-12,-3,2
1532114283768,-19,-2,0,6,15,-2,-2,-9
1532114283773,7,1,2,0,-18,6,-1,-1
1532114283778,-8,-2,-6,0,-1,-9,-1,-2
1532114283783,18,2,3,2,-5,1,1,-8
1532114283788,-10,-1,3,1,3,-6,-2,13
1532114283793,-15,0,-4,-5,5,-9,-1,-6
1532114283798,2,3,6,3,1,31,3,3
1532114283803,6,-1,0,2,1,-1,-3,-2
1532114283808,-16,-4,-4,0,-2,-4,-3,-8
1532114283813,-3,-2,2,0,4,0,-1,-4
1532114283818,5,2,-3,3,-6,0,3,2
1532114283823,-13,-1,-1,-2,0,1,1,0
1532114283828,4,-3,0,2,2,-3,-5,-5
1532114283833,3,1,3,-1,4,-3,-2,1
1532114283838,-4,-1,-1,-3,-6,-1,1,1
1532114283843,5,-3,-1,0,2,3,-3,-1
1532114283848,-5,-5,-5,3,-3,-12,-6,-7
1532114283853,-3,-2,-3,-4,-4,-2,1,6
1532114283858,54,2,-5,-1,-2,17,3,9
1532114283863,-65,2,4,-1,5,6,0,-5
1532114283868,-2,-4,-5,4,0,-5,0,-3
1532114283873,28,-3,-2,-2,-1,-3,-4,1
1532114283878,-32,-5,-4,2,0,-6,-2,-3
1532114283883,40,5,5,-7,-12,-5,4,6
1532114283888,-18,2,-1,-8,-4,1,-1,0
1532114283893,-27,-4,-1,7,1,-1,-1,-2
1532114283898,8,2,1,3,5,-5,-2,-5
1532114283903,8,-2,-3,1,1,-1,-3,-2
1532114283908,-4,-1,-1,4,1,0,-1,0
1532114283913,12,1,0,0,0,-2,-1,-2
1532114283918,-12,-5,-1,-6,-4,-4,-4,-4
1532114283923,1,-2,-4,-5,-3,5,-3,-2
1532114283928,14,0,0,-4,-10,6,2,6
1532114283933,-10,-1,-1,3,1,-1,1,-1
1532114283938,-11,0,1,1,-3,-7,-1,-4
1532114283943,8,-1,-1,2,-1,0,1,-1
1532114283948,-5,0,4,-6,-3,-6,-1,-2
1532114283953,-6,-2,-4,-2,2,5,-2,-1
1532114283958,-5,-1,1,-1,-1,-10,-1,-2
1532114283963,9,3,5,-1,-6,0,0,-1
1532114283968,-1,1,-2,5,5,2,0,0
1532114283973,24,-2,-3,-6,-7,0,2,4
1532114283978,-11,-4,-3,-4,-1,-1,-1,0
1532114283983,-7,1,1,3,1,-5,-1,3
1532114283988,11,-1,-1,0,-1,3,-3,-16
1532114283993,4,0,-3,5,0,-2,-1,-4
1532114283998,21,0,1,-5,-5,-3,0,5
1532114284003,-21,-6,-4,0,5,8,2,-2
1532114284008,1,-1,-1,-1,-5,-12,-1,0
1532114284013,-6,-1,0,0,-3,-2,-2,-5
1532114284018,9,3,3,8,8,2,-2,-12
1532114284023,20,-1,-5,2,7,-3,1,-4
1532114284028,-2,-4,-2,-1,3,-1,0,0
1532114284033,1,0,-3,-1,-1,-2,1,-3
1532114284038,15,2,1,5,0,1,0,-2
1532114284043,4,-1,-3,-1,-3,-11,-3,2
1532114284048,-9,-2,-2,0,3,7,-1,5
1532114284053,4,3,3,1,4,-5,0,-5
1532114284058,11,2,0,-8,-12,-6,-1,3
1532114284063,-13,-3,-2,-2,0,10,-1,-7
1532114284068,1,1,-1,0,-2,-6,-1,0
1532114284073,11,2,1,-1,3,2,2,8
1532114284078,-23,-3,-1,3,8,-1,0,-9
1532114284083,-3,-1,-6,-18,-7,0,-1,-3
1532114284088,-13,1,2,12,-1,-1,-1,5
1532114284093,0,1,-1,2,1,2,-3,-7
1532114284098,-1,0,-1,-1,-2,-7,-2,3
1532114284103,-5,1,5,4,0,12,1,5
1532114284108,-5,-6,-6,-13,0,-4,0,-2
1532114284113,10,1,-1,-4,4,-2,0,-1
1532114284118,-4,3,3,7,-12,-4,-1,0
1532114284123,0,-1,-4,1,1,-6,-3,-2
1532114284128,12,0,0,-6,-5,4,0,0
1532114284133,0,1,-1,2,2,-1,-1,-1
1532114284138,5,-3,-1,-7,2,-3,-1,2
1532114284143,-22,-2,0,2,3,-1,0,0
1532114284148,11,-2,-3,-5,-2,-1,1,4
1532114284153,33,0,-1,5,-1,-4,-2,6
1532114284158,-85,-6,-1,0,7,1,-2,-14
1532114284163,3,3,4,-3,-4,-1,-1,-5
1532114284168,2,-1,-3,-4,-1,0,-1,-2
1532114284173,-24,-2,0,-7,-4,3,-1,8
1532114284178,36,1,-1,4,2,3,-2,5
1532114284183,1,-2,1,6,4,-3,0,1
1532114284188,-7,2,2,-4,-7,-5,1,0
1532114284193,4,-5,1,1,-3,16,-2,-5
1532114284198,27,-3,-4,-4,3,-1,2,0
1532114284203,-42,-2,-1,6,-3,-3,-1,-1
1532114284208,8,2,0,-4,-2,-3,-1,1
1532114284213,-2,-1,-3,-2,-6,-4,-2,-7
1532114284218,3,1,0,3,1,2,-3,3
1532114284223,9,1,0,-8,-1,-2,0,-5
1532114284228,10,1,3,5,5,6,1,5
1532114284233,-8,-6,-6,-1,-7,-8,-3,-5
1532114284238,-5,-1,-1,-1,3,4,2,9
1532114284243,1,1,1,8,4,-5,-1,-7
1532114284248,33,0,0,-8,-5,0,-3,15
1532114284253,-37,-5,-2,4,-1,-14,-3,-13
1532114284258,17,0,-2,-5,-4,8,-1,-1
1532114284263,12,0,-1,0,3,1,2,3
1532114284268,-10,-5,-1,-1,1,-2,-2,-3
1532114284273,15,-1,-2,-4,1,7,-1,0
1532114284278,-3,0,1,-3,-3,0,0,-1
1532114284283,32,2,1,0,-5,-5,-2,1
1532114284288,-15,1,5,6,14,1,0,-5
1532114284293,-6,-5,-7,-3,-12,1,-2,-6
1532114284298,-11,1,-1,-4,-1,-11,-2,-3
1532114284303,4,0,0,7,0,13,0,-2
1532114284308,9,1,0,-3,-8,-5,0,3
1532114284313,26,3,3,1,2,-4,0,7
1532114284318,-39,-2,-3,-2,0,1,0,-5
1532114284323,4,3,-1,2,0,-7,-2,4
1532114284328,2,0,0,-1,-1,10,2,1
1532114284333,11,1,-4,-1,-1,-2,-4,-17
1532114284338,-12,-2,6,-4,0,-3,-1,6
1532114284343,-7,-4,-4,-5,-4,-4,-2,-3
1532114284348,-9,-2,-2,6,4,-1,-2,-5
1532114284353,14,-2,-3,-3,-4,-6,0,-1
1532114284358,12,3,-1,7,-3,4,-1,-4
1532114284363,-9,2,1,-9,3,-1,0,-3
1532114284368,-5,-3,-3,0,4,-6,-2,1
1532114284373,5,1,2,-1,-5,-1,1,3
1532114284378,4,-1,2,-9,-9,1,-2,-3
1532114284383,-6,-1,-4,5,4,6,2,5
1532114284388,49,3,-1,-1,-8,-9,-3,-5
1532114284393,-53,-5,1,12,14,6,1,1
1532114284398,-21,-1,5,-5,-4,-3,-2,1
1532114284403,-3,0,1,-1,0,-4,-2,-8
1532114284408,6,-2,-4,-4,1,5,-1,1
1532114284413,16,3,2,0,-5,-3,-2,-1
1532114284418,21,-2,-5,-5,7,3,1,-3
1532114284423,-40,-3,1,10,4,5,-1,-4
1532114284428,-17,-6,-1,-9,-5,-7,0,-3
1532114284433,-15,0,1,-2,-13,-3,0,18
1532114284438,6,-1,-3,4,7,5,1,-4
1532114284443,14,3,0,-5,0,-3,-2,-2
1532114284448,-10,2,6,12,7,8,2,3
1532114284453,13,-2,-5,-4,4,-2,-2,-4
1532114284458,2,-3,-6,0,-3,1,-4,-3
1532114284463,0,-4,6,4,-6,-4,-1,-1
1532114284468,-5,2,2,0,4,-6,1,5
1532114284473,15,3,1,21,7,-2,0,3
1532114284478,-12,-4,-3,-11,-6,-3,-2,-6
1532114284483,5,-2,-7,-36,-11,3,4,4
1532114284488,-4,-2,-1,1,0,-4,-3,-5
1532114284493,-2,-2,-7,-24,2,-7,-4,-9
1532114284498,-12,1,5,27,3,5,3,5
1532114284503,2,-4,-7,-7,-1,-10,-2,2
1532114284508,-3,2,-3,6,4,0,-2,-1
