1532067880809,23,3,-7,3,3,2,0,2
1532067880814,-10,-4,4,3,0,1,-1,-1
1532067880819,-19,1,-3,2,3,0,0,3
1532067880824,13,17,-9,4,0,-2,0,0
1532067880829,6,-17,-19,-19,-9,-2,0,-3
1532067880834,-8,0,10,2,4,0,-3,1
1532067880839,13,14,22,16,4,0,1,2
1532067880844,-12,-21,-34,-20,-3,2,1,-1
1532067880849,2,13,-52,-7,0,-2,-2,-3
1532067880854,-16,-23,-3,-26,-7,-3,-3,-8
1532067880859,4,1,-2,4,1,0,0,7
1532067880864,6,1,14,4,-3,-2,-4,-4
1532067880869,3,15,15,9,0,1,0,2
1532067880874,-33,-23,-1,-3,-4,-2,1,-5
1532067880879,8,13,5,1,1,1,0,-2
1532067880884,-3,-33,-6,-1,2,-1,0,0
1532067880889,0,-6,21,15,0,-1,1,-2
1532067880894,9,23,9,6,0,1,1,0
1532067880899,-11,-2,13,-10,-1,-1,0,-1
1532067880904,14,11,22,22,2,1,0,4
1532067880909,13,12,32,10,0,-1,1,1
1532067880914,2,1,21,6,3,0,0,2
1532067880919,-7,-10,-22,-8,-1,-1,-4,-2
1532067880924,10,-18,-5,1,-1,-1,-1,0
1532067880929,-10,-11,-9,-8,-1,-2,0,-6
1532067880934,-5,18,4,3,-1,-3,-1,4
1532067880939,13,-22,6,8,-1,-1,3,34
1532067880944,-12,17,0,-11,-2,-1,-3,-46
1532067880949,-5,-11,10,18,4,1,-1,-5
1532067880954,2,0,-53,-21,-5,-1,-1,0
1532067880959,6,13,12,-7,-2,0,-2,-12
1532067880964,-3,-4,13,-1,-1,0,1,11
1532067880969,-4,-5,-10,4,-3,-3,-3,3
1532067880974,11,0,-1,1,-1,-2,-3,-8
1532067880979,-5,-7,17,16,2,-1,1,0
1532067880984,-4,-7,-18,-13,0,0,-2,7
1532067880989,-1,20,3,-13,-3,-4,-3,-4
1532067880994,5,1,20,11,0,3,1,6
1532067880999,-3,-14,-13,4,-2,-2,-2,-7
1532067881004,-9,20,0,-3,1,-2,-1,7
1532067881009,-1,-26,9,1,-6,-1,1,-4
1532067881014,2,7,-4,-10,-4,-3,-3,-3
1532067881019,-4,7,-7,-5,1,-1,-2,-3
1532067881024,0,2,-14,1,0,1,0,-3
1532067881029,-10,0,-5,8,1,1,2,6
1532067881034,8,-6,8,0,4,-1,-2,-1
1532067881039,-13,-1,-3,-3,-5,-2,0,-3
1532067881044,11,-11,-5,-3,2,-1,0,5
1532067881049,2,26,15,3,2,0,1,1
1532067881054,-3,-1,16,8,-5,0,0,1
1532067881059,-2,-21,-10,-1,0,0,-2,-6
1532067881064,-1,5,-11,-1,-2,-2,-3,3
1532067881069,2,-6,15,-3,2,0,0,-1
1532067881074,0,14,-27,5,-5,-3,-3,-5
1532067881079,4,13,30,6,5,5,3,-2
1532067881084,-5,-21,-26,-8,-1,-2,-1,1
1532067881089,0,-8,6,1,-3,0,-2,-2
1532067881094,0,5,4,7,-2,-1,0,2
1532067881099,1,8,-4,-3,1,-1,-1,0
1532067881104,-5,-27,0,-3,-1,1,-2,2
1532067881109,0,3,-15,-3,4,-1,-2,-2
1532067881114,1,8,9,6,-2,2,0,-1
1532067881119,-1,-15,-18,-11,-5,-1,-3,-3
1532067881124,-1,15,4,-3,-1,-1,-2,4
1532067881129,-2,4,13,1,-1,0,0,-5
1532067881134,-1,0,9,-5,-1,-3,-1,1
1532067881139,2,18,-4,17,-1,-1,0,-1
1532067881144,-1,-13,14,4,1,0,1,0
1532067881149,-2,-6,-17,-2,-4,-1,-1,-1
1532067881154,-1,10,8,-13,-4,-4,-3,-2
1532067881159,-3,7,-30,-11,1,0,1,-2
1532067881164,-12,6,37,4,1,0,1,-1
1532067881169,12,-5,1,-2,-2,-1,-5,-2
1532067881174,3,-13,-74,-18,-6,-1,0,3
1532067881179,8,2,41,6,0,0,-3,-1
1532067881184,0,3,11,-3,1,2,1,-2
1532067881189,-5,9,-7,-1,1,-1,-3,2
1532067881194,-1,-16,28,11,1,3,1,-5
1532067881199,-1,-14,-23,5,-6,-3,-2,-1
1532067881204,7,7,4,2,1,-2,-2,1
1532067881209,-6,2,17,-3,2,-1,0,-1
1532067881214,-1,2,-21,3,-5,-3,-2,-4
1532067881219,-4,6,7,-2,-6,-2,-2,1
1532067881224,-7,-6,-39,-5,-2,-2,-2,-4
1532067881229,10,-12,32,3,-3,-1,0,1
1532067881234,1,14,19,-3,2,-2,1,6
1532067881239,-4,-4,-7,-4,1,0,-2,-2
1532067881244,0,-2,-23,-2,-2,-1,-3,-4
1532067881249,-5,-15,-11,0,0,4,4,0
1532067881254,-2,8,23,11,5,0,0,-1
1532067881259,-5,1,-16,-17,0,-4,-4,-1
1532067881264,-2,3,12,-7,-3,-1,1,-3
1532067881269,4,12,-17,5,0,-1,-3,0
1532067881274,-5,-7,-4,1,-3,1,0,-1
1532067881279,-1,0,-2,-11,3,2,2,-1
1532067881284,-3,-8,19,8,1,1,1,-1
1532067881289,-12,-4,-19,-12,-5,-3,0,-2
1532067881294,10,9,15,1,0,1,0,3
1532067881299,-6,7,36,6,0,-4,-4,-1
1532067881304,6,-6,-6,-7,7,1,0,2
1532067881309,-5,-18,-42,-19,-5,-1,-2,-3
1532067881314,5,20,19,5,-2,1,2,2
1532067881319,-4,-11,-6,-2,0,0,1,-1
1532067881324,-2,-10,0,4,1,-2,-1,1
1532067881329,2,15,21,-2,3,1,1,-2
1532067881334,-9,-23,-8,-7,-4,-4,-2,-2
1532067881339,1,3,10,18,8,2,0,0
1532067881344,1,-2,-27,-31,-5,-3,-1,-5
1532067881349,2,4,22,2,-11,1,0,0
1532067881354,-9,-2,-19,5,-2,-3,-5,-1
1532067881359,-3,-7,-49,-5,-4,-3,-1,-4
1532067881364,2,2,13,6,4,0,1,0
1532067881369,6,1,0,6,3,-2,1,1
1532067881374,-5,8,13,3,-1,-2,2,1
1532067881379,-2,3,1,-1,-5,-1,2,0
1532067881384,0,-6,4,-13,1,1,-2,-1
1532067881389,0,8,6,-2,-1,-1,-3,-3
1532067881394,0,-10,-3,11,1,2,-1,0
1532067881399,0,17,3,-2,4,1,-2,0
1532067881404,2,-20,-25,2,-6,-2,0,-3
1532067881409,-2,-3,1,-5,-3,0,-1,0
1532067881414,-3,0,-4,2,-3,-1,-1,-3
1532067881419,1,2,6,0,4,1,-1,0
1532067881424,-1,20,10,-1,2,0,0,-1
1532067881429,0,-25,18,11,1,1,0,2
1532067881434,1,-4,-11,-7,0,-1,0,-1
1532067881439,-3,-24,2,7,5,-3,-2,-3
1532067881444,1,15,1,-14,-23,-4,-1,3
1532067881449,-1,2,-6,6,0,1,1,0
1532067881454,2,4,-4,-18,-6,-2,0,-2
1532067881459,0,-8,-11,-3,2,0,0,-3
1532067881464,-4,13,5,2,4,0,-1,-2
1532067881469,14,-6,3,3,0,-3,-1,-2
1532067881474,-3,-3,14,-6,1,-1,-5,1
1532067881479,-1,12,11,11,-1,-1,0,2
1532067881484,-1,-7,-4,-15,3,0,0,-4
1532067881489,1,-1,-8,20,0,-1,0,1
1532067881494,-3,-8,10,8,2,-2,-2,0
1532067881499,2,-4,-4,-1,-8,-2,-1,-2
1532067881504,2,7,5,4,4,0,0,-2
1532067881509,-3,5,6,-9,-3,-3,-1,-1
1532067881514,0,10,8,8,-1,2,1,-1
1532067881519,-3,-10,0,5,0,-1,-2,0
1532067881524,-2,-17,-8,-7,0,0,-3,-2
1532067881529,-2,6,0,-1,0,-2,1,-1
1532067881534,1,-2,-3,4,-2,-1,0,-2
1532067881539,1,11,15,4,1,0,0,1
1532067881544,0,-4,-5,0,4,0,-1,-2
1532067881549,0,-2,-6,-9,-1,0,0,0
1532067881554,0,4,9,8,-2,1,-1,-1
1532067881559,-3,1,-23,-19,-3,-2,-3,-1
1532067881564,0,-7,3,8,-1,0,0,1
1532067881569,-2,4,2,-5,0,0,0,-3
1532067881574,-1,-5,-4,12,-1,-1,0,1
1532067881579,0,-1,-10,-22,-2,0,-1,-4
1532067881584,-1,-5,1,15,-1,0,-3,-2
1532067881589,-3,4,-2,-15,-3,0,-2,0
1532067881594,0,-2,-1,23,1,0,3,-1
1532067881599,1,1,6,1,0,-1,-1,-2
1532067881604,-1,1,-4,-7,-1,-1,-1,-2
1532067881609,-2,-1,-5,-3,0,-1,-3,-2
1532067881614,-4,-4,-7,-15,-1,0,-1,-3
1532067881619,13,1,14,15,1,-2,-1,-2
1532067881624,-10,-1,-26,-21,-7,-2,-3,-2
1532067881629,-5,-4,3,5,-1,0,8,0
1532067881634,-1,0,3,-10,-1,-2,-5,1
1532067881639,11,1,4,-1,-2,-2,-3,-3
1532067881644,0,1,16,10,7,3,3,1
1532067881649,2,0,-2,-12,-1,-1,0,3
1532067881654,-3,-8,-21,-16,-17,-4,-3,-5
1532067881659,-4,2,5,7,4,2,0,3
1532067881664,-1,-5,10,11,3,1,0,0
1532067881669,-2,-1,-7,-5,-3,-2,9,1
1532067881674,0,-7,20,-7,2,2,-14,5
1532067881679,-7,-3,-2,0,-3,-1,0,1
1532067881684,-2,-2,6,10,1,-2,0,-3
1532067881689,2,-1,2,9,0,0,1,3
1532067881694,0,0,-8,-3,3,0,3,-2
1532067881699,-3,-1,-2,1,-1,0,-5,-1
1532067881704,-2,6,3,-8,2,-1,1,-1
1532067881709,5,3,-1,-4,-2,-1,0,-4
1532067881714,9,1,-12,8,-1,-3,-1,2
1532067881719,0,1,1,0,-1,-1,-4,-1
1532067881724,-3,-5,0,17,-1,-2,2,-1
1532067881729,-5,-3,-5,-11,0,-1,-2,0
1532067881734,0,-2,-6,-6,-1,-2,-4,-2
1532067881739,-11,-2,2,0,-3,0,-1,0
1532067881744,18,13,2,-2,5,-1,-1,-4
1532067881749,4,-5,4,2,-3,0,0,1
1532067881754,-1,-1,2,-4,-3,-3,-2,-2
1532067881759,-3,-3,6,1,2,1,-1,1
1532067881764,-7,1,-9,-5,-3,-2,1,0
1532067881769,-4,-6,-4,5,-2,-1,-1,2
1532067881774,0,1,-10,-3,1,-1,1,0
1532067881779,0,0,20,3,1,-1,-1,-1
1532067881784,-1,4,-5,-2,1,0,-1,-2
1532067881789,-3,-2,-1,0,-3,-1,0,1
1532067881794,13,3,-12,-27,-2,0,1,-3
1532067881799,-2,-3,-11,15,-1,-2,-4,-2
1532067881804,-2,-15,9,6,-3,-3,-4,-2
1532067881809,-4,3,5,-3,3,2,1,-2
1532067881814,-6,-3,-2,2,-2,-2,-1,2
1532067881819,4,6,-5,-7,-1,0,0,-1
1532067881824,3,4,3,1,0,1,2,-2
1532067881829,-6,-3,-1,2,-1,-2,-2,-3
1532067881834,-6,-2,-1,-3,-1,-2,-2,-2
1532067881839,15,3,-3,0,-1,-1,-2,-1
1532067881844,-8,-8,-6,0,-1,2,0,1
1532067881849,-4,2,-2,-2,-1,0,-1,1
1532067881854,9,5,0,6,0,-1,-2,0
1532067881859,-2,-3,3,-3,-1,-2,0,-1
1532067881864,-2,0,-7,-3,-2,-2,0,-1
1532067881869,0,4,-2,-2,-1,1,-1,0
1532067881874,-2,-12,4,3,-3,1,1,0
1532067881879,-5,-6,-2,7,3,1,-2,0
1532067881884,0,5,-7,-18,-2,-1,-2,0
1532067881889,-1,0,-2,0,-2,-1,-1,-4
1532067881894,-3,2,4,-3,0,0,-1,2
1532067881899,2,0,-4,-5,-2,-4,-3,-2
1532067881904,-2,-4,0,0,1,1,1,1
1532067881909,1,-3,-4,-1,-4,-3,-1,-3
1532067881914,-4,-3,-3,-4,0,-1,-2,-2
1532067881919,-3,4,-1,-4,-1,1,-1,-1
1532067881924,1,1,4,5,-1,-1,1,-2
1532067881929,1,-9,-2,4,1,-1,-1,1
1532067881934,-1,5,2,-1,-1,-1,-2,-2
1532067881939,-2,-11,-8,-5,-7,-2,-1,-2
1532067881944,-1,4,-1,3,2,-1,-2,-2
1532067881949,1,4,2,2,0,-1,-2,-1
1532067881954,-3,3,2,6,-1,-1,0,-2
1532067881959,0,0,0,-3,0,-2,-2,-2
1532067881964,-2,2,-1,-2,-1,-1,0,0
1532067881969,-2,-3,1,-1,-2,-1,-1,1
1532067881974,-5,-2,-1,0,-1,2,0,1
1532067881979,-1,-14,-2,-3,2,0,-1,0
1532067881984,-5,6,-3,0,-2,0,-3,1
1532067881989,1,-2,7,-1,-2,-1,-1,-3
1532067881994,-1,0,-3,2,1,1,-1,-2
1532067881999,-4,0,-6,-1,-5,0,-1,0
1532067882004,-4,-3,-3,12,-1,0,0,1
1532067882009,-2,-13,0,-14,0,1,3,1
1532067882014,-2,-4,-5,-3,-2,-2,-3,-1
1532067882019,-3,6,1,-1,3,0,0,2
1532067882024,3,-9,3,4,1,0,1,-1
1532067882029,-1,3,-13,-20,-2,-2,-2,-1
1532067882034,1,-7,3,9,-5,0,1,0
1532067882039,1,2,-4,-11,0,0,-1,-5
1532067882044,3,-1,5,8,-1,0,-1,-1
1532067882049,3,-2,1,-6,3,0,0,3
1532067882054,-5,-6,-20,0,-3,0,-3,1
1532067882059,2,6,8,2,0,1,-1,0
1532067882064,-1,5,-11,-8,-1,-1,-1,-2
1532067882069,-2,-13,5,12,2,-1,-1,-1
1532067882074,1,5,-5,-7,0,-1,-3,-4
1532067882079,-2,-18,-3,-4,1,-2,-2,-1
1532067882084,-3,9,-1,-1,-2,-1,0,-1
1532067882089,7,6,0,4,-1,-1,-2,-1
1532067882094,-2,-1,5,0,-1,-1,-3,-1
1532067882099,-1,7,2,4,-1,1,0,-1
1532067882104,-6,-23,-7,-5,1,-2,-2,-3
1532067882109,-1,10,-3,14,-2,-1,-2,-3
1532067882114,-1,-7,-7,-7,-2,-2,0,2
1532067882119,2,2,3,-5,0,0,0,1
1532067882124,3,5,-1,17,-5,-1,1,-2
1532067882129,-1,-1,0,1,-1,-2,-1,-3
1532067882134,0,5,5,0,3,1,1,-2
1532067882139,-2,1,0,-3,-1,-2,-2,0
1532067882144,-1,-3,-6,0,0,-2,-3,-1
1532067882149,-1,-1,-5,-4,-1,0,-1,0
1532067882154,-6,-1,0,-1,-3,-2,-1,-3
1532067882159,7,6,0,6,1,-1,-1,1
1532067882164,0,-5,-7,-22,-3,-2,-3,-1
1532067882169,0,0,4,18,-3,-1,1,-2
1532067882174,4,5,1,-12,-2,-2,0,-1
1532067882179,-6,-8,5,0,0,-1,-1,0
1532067882184,-3,5,6,-6,0,0,0,2
1532067882189,9,-5,-7,1,-3,1,-2,-3
1532067882194,-5,-29,0,6,1,0,1,3
1532067882199,-1,11,-2,-2,0,-2,-3,-2
1532067882204,1,4,2,-1,-1,-1,-1,-2
1532067882209,-6,5,-7,1,1,-2,-1,0
1532067882214,-2,-10,4,1,-1,-2,-2,0
1532067882219,-1,-6,-4,-6,-4,0,2,-3
1532067882224,4,5,3,-2,-1,0,-1,-1
1532067882229,-3,14,2,-7,0,-3,-3,1
1532067882234,2,-10,3,0,-1,-2,-3,-1
1532067882239,-3,10,-10,-6,-4,-3,1,-1
1532067882244,-3,-1,-2,2,-1,-1,-1,-1
1532067882249,-2,-19,-7,0,0,-1,-2,-2
1532067882254,2,16,-1,-7,0,-2,-1,-1
1532067882259,0,-13,3,-5,0,0,-1,0
1532067882264,-1,12,-2,3,1,-1,-1,-1
1532067882269,5,8,10,-6,-1,0,-2,-1
1532067882274,-1,5,1,-1,0,1,1,-1
1532067882279,-3,7,6,5,-1,0,-2,-1
1532067882284,2,-13,-7,-6,-1,-1,-1,-3
1532067882289,-3,-1,-4,-6,-2,0,-1,0
1532067882294,-1,-1,-3,5,0,-2,0,1
1532067882299,-3,-1,-2,1,-4,-3,-1,-3
1532067882304,2,-4,4,-1,-2,-1,-1,0
1532067882309,-3,5,3,0,3,0,1,0
1532067882314,1,-8,-3,-1,-3,-2,-4,-2
1532067882319,-5,-12,-3,0,-1,1,0,-1
1532067882324,-1,-7,-10,-2,-2,-2,-2,-4
1532067882329,1,8,3,1,-3,0,-1,-1
1532067882334,-1,-3,9,-5,1,0,1,0
1532067882339,0,-2,-1,2,2,1,0,-1
1532067882344,-1,-1,-9,3,-5,-1,-3,-3
1532067882349,-1,-5,-3,-1,0,0,-1,-1
1532067882354,-2,6,1,4,-3,0,0,-3
1532067882359,-1,6,1,-4,-2,-2,-3,-2
1532067882364,1,1,2,0,-2,0,1,4
1532067882369,0,6,-10,-1,-1,1,-1,-4
1532067882374,-6,-24,-6,1,0,0,0,-2
1532067882379,2,12,1,1,1,-2,-1,1
1532067882384,0,-15,1,-1,1,0,-2,-2
1532067882389,-2,3,-8,-1,-4,-2,0,-4
1532067882394,1,-1,5,-2,0,2,3,0
1532067882399,-3,-10,-4,-5,-4,-3,-4,-1
1532067882404,-1,12,1,-2,-2,1,-1,-1
1532067882409,-1,-3,6,-2,-1,-3,-1,-1
1532067882414,-1,4,2,0,0,1,-2,-1
1532067882419,0,-3,-2,-2,-4,-1,0,-2
1532067882424,1,2,-6,2,3,1,1,-2
1532067882429,-1,-6,4,1,1,-1,-1,2
1532067882434,0,2,0,-2,-1,-2,-2,1
1532067882439,-2,3,7,-1,2,-2,-1,-1
1532067882444,0,3,-1,3,-1,-2,-1,0
1532067882449,0,16,-1,-10,-1,-2,-1,-2
1532067882454,1,-14,-1,-2,-4,-1,-1,-2
1532067882459,-3,-20,-15,-1,-2,-1,-2,-3
1532067882464,-4,2,-9,-3,0,0,-2,-2
1532067882469,-1,-7,7,1,-4,-1,-1,-1
1532067882474,1,19,13,-12,3,2,0,0
1532067882479,-4,-26,-17,5,-4,-2,-1,-2
1532067882484,0,3,-2,11,2,-2,-2,-1
1532067882489,1,8,4,-6,0,2,0,-2
1532067882494,-1,0,-4,4,-6,-3,0,1
1532067882499,0,5,6,-4,2,2,1,0
1532067882504,2,2,0,-3,-6,-1,0,1
1532067882509,0,11,1,5,-2,1,-2,-1
1532067882514,-2,-17,-4,0,3,-1,-1,-2
1532067882519,1,9,0,-5,-2,0,-1,1
1532067882524,-2,-9,-2,3,-3,0,-1,-3
1532067882529,-1,1,-4,0,1,-1,-1,0
1532067882534,-1,9,-6,-2,0,-1,0,-1
1532067882539,0,8,11,-1,-4,0,0,-1
1532067882544,-1,-2,4,-6,-2,-1,0,1
1532067882549,-2,-19,-3,1,2,0,0,-1
1532067882554,-1,11,5,4,-3,-3,0,-3
1532067882559,-3,-30,-8,-4,0,-2,-2,-3
1532067882564,2,14,-3,-4,-1,-1,-2,0
1532067882569,0,-5,6,1,-4,-1,-1,1
1532067882574,1,4,2,9,5,1,-1,0
1532067882579,1,10,-2,-4,4,0,-1,-2
1532067882584,-1,1,4,8,-3,-3,0,0
1532067882589,-2,-10,-12,-19,-6,-2,-1,-2
1532067882594,0,-9,-4,-10,1,1,0,1
1532067882599,-3,5,-2,5,-4,-2,0,0
1532067882604,0,4,3,16,-1,3,2,-4
1532067882609,0,5,3,4,-1,-1,0,-1
1532067882614,0,10,6,-3,0,-1,-2,0
1532067882619,-3,4,3,10,0,0,0,-1
1532067882624,0,-23,-3,3,0,0,-1,0
1532067882629,0,-13,-2,7,1,0,1,1
1532067882634,-2,2,-9,-16,-2,-2,-2,-3
1532067882639,2,8,11,5,2,1,0,0
1532067882644,1,18,-4,-14,-4,-4,-3,-1
1532067882649,-1,-15,-3,3,2,3,1,-1
1532067882654,-1,10,4,2,-1,0,2,1
1532067882659,0,-6,-1,-5,-2,-1,1,-2
1532067882664,-5,-14,-18,-20,1,-1,-1,-2
1532067882669,0,6,-3,1,-6,-2,-1,1
1532067882674,1,4,-2,-1,-1,0,0,-2
1532067882679,-1,10,-9,-2,0,-2,-3,-1
1532067882684,-2,-14,9,1,2,2,-1,-2
1532067882689,-1,8,-2,1,0,-2,-3,-3
1532067882694,-2,-27,-4,3,-1,-1,0,1
1532067882699,-1,0,4,-2,-1,-1,1,1
1532067882704,1,4,8,0,1,-1,1,1
1532067882709,1,4,-5,-5,0,-1,-3,-3
1532067882714,-1,7,8,-1,-2,-2,-1,-2
1532067882719,0,-12,-5,4,-1,0,-1,-2
1532067882724,-1,-4,-5,-22,-7,-2,-1,-2
1532067882729,-2,9,-5,-3,4,-1,-1,-1
1532067882734,1,9,-3,3,1,-2,-1,0
1532067882739,-1,-13,-8,-5,-2,-3,0,-2
1532067882744,-1,4,-8,3,-4,-3,-4,-2
1532067882749,-1,-10,-7,3,0,-2,-2,0
1532067882754,0,19,2,0,2,-1,-1,-2
1532067882759,1,1,11,3,-1,1,1,1
1532067882764,-3,-9,-4,2,-1,-2,-1,-3
1532067882769,-2,-12,-14,-8,0,-1,-1,-3
1532067882774,-1,-7,0,-2,-3,-2,0,-1
1532067882779,0,13,-2,-4,1,1,0,1
1532067882784,-2,-17,-8,1,-5,-3,-2,0
1532067882789,2,19,15,1,-3,-1,-1,-1
1532067882794,-1,0,-7,-1,-1,-1,-1,-4
1532067882799,-1,-27,-1,2,2,-1,-1,-1
1532067882804,-1,7,6,-1,-4,-1,-2,-1
1532067882809,-2,-1,3,5,-3,-1,1,-1
1532067882814,1,8,-6,-19,-2,-4,-3,1
1532067882819,-1,4,4,1,0,-1,-2,0
1532067882824,1,-3,1,4,2,0,0,0
1532067882829,-1,2,-4,0,-5,-1,0,-3
1532067882834,-3,-13,-2,0,2,1,-3,-2
1532067882839,1,2,-3,1,-2,-1,-2,-1
1532067882844,-1,-7,3,0,-1,-1,1,0
1532067882849,0,2,1,-1,3,-1,-1,-1
1532067882854,5,14,3,5,1,2,3,3
1532067882859,-3,-12,6,-1,-2,-3,-2,-2
1532067882864,-4,-15,-12,11,10,1,-2,0
1532067882869,-1,9,-1,-2,-3,-1,0,-1
1532067882874,-1,-10,7,-1,-9,-3,0,-3
1532067882879,3,10,0,1,1,1,1,2
1532067882884,1,12,5,-3,-1,-1,-1,0
1532067882889,1,-12,-4,4,2,-1,0,0
1532067882894,-1,-6,-8,-12,-4,-1,-2,-3
1532067882899,-1,7,3,6,4,1,1,2
1532067882904,-2,-10,-2,-8,0,-1,-1,-2
1532067882909,0,2,0,-3,-2,2,-1,2
1532067882914,-1,1,4,3,0,-1,-3,-1
1532067882919,-2,-7,-14,-6,-3,-3,-3,0
1532067882924,1,10,4,18,-4,-1,2,-1
1532067882929,0,-3,-2,-6,-2,0,-2,0
1532067882934,0,-10,3,6,1,1,0,1
1532067882939,1,10,9,-9,1,-1,1,-1
1532067882944,1,-7,-4,-2,-4,-1,-1,-2
1532067882949,-1,9,0,-2,-3,-3,-4,-4
1532067882954,-3,4,0,5,1,-2,-1,-2
1532067882959,0,2,-6,-3,-4,0,-1,-2
1532067882964,-3,-1,4,8,0,-1,0,1
1532067882969,-2,-3,-23,-2,0,-2,-2,-1
1532067882974,0,-16,6,-1,2,0,0,1
1532067882979,-1,-4,-5,10,-3,0,-2,-1
1532067882984,-1,8,-1,-18,8,2,-1,-2
1532067882989,-1,-5,-2,-3,-9,-1,0,0
1532067882994,-1,0,-4,2,-5,-1,-1,0
1532067882999,0,-1,2,4,-1,-1,-1,0
1532067883004,-1,-4,-3,-9,-6,-4,-2,0
1532067883009,-1,-1,5,16,5,-1,0,0
1532067883014,-1,1,-5,-3,2,-3,-2,-2
1532067883019,-3,-5,4,3,-2,-1,1,-3
1532067883024,0,7,1,-7,2,1,-2,-2
1532067883029,-2,-4,2,-5,-3,-2,2,-1
1532067883034,-3,2,-8,0,-7,-2,-1,-2
1532067883039,-2,-2,0,1,3,-1,0,-3
1532067883044,1,-6,2,-5,0,2,0,-1
1532067883049,-3,-8,0,-2,1,-2,-4,0
1532067883054,0,3,0,4,0,1,-2,-2
1532067883059,-1,-2,-4,-1,-1,-2,-2,-3
1532067883064,0,-1,-10,-3,-2,-3,0,-1
1532067883069,-1,-1,11,11,3,2,0,1
1532067883074,0,6,-4,-27,-1,-3,0,-1
1532067883079,2,8,1,0,-3,-1,1,2
1532067883084,-4,-13,-8,3,1,-3,-2,-3
1532067883089,0,3,5,-10,11,2,1,-4
1532067883094,-1,4,2,14,-11,-1,-1,2
1532067883099,-1,-10,-16,-7,-3,-2,-2,-1
1532067883104,1,11,10,7,-9,-2,1,1
1532067883109,0,-6,-9,-18,0,0,-2,-2
1532067883114,-4,-3,7,8,10,-2,-3,-1
1532067883119,1,-3,17,4,5,4,2,-3
1532067883124,0,11,-19,-6,-5,-2,-2,0
1532067883129,1,17,8,9,-3,-1,1,1
1532067883134,-2,-36,-16,-7,-1,-1,-4,-5
1532067883139,-1,-5,9,-7,0,-1,-1,1
1532067883144,-4,3,1,4,-5,-3,-2,-2
1532067883149,6,1,0,0,0,0,1,1
1532067883154,-2,5,-7,4,2,2,20,2
1532067883159,0,-4,-3,-5,-3,-3,-25,-6
1532067883164,-6,10,-3,-2,0,3,3,2
1532067883169,21,-14,2,2,-2,-1,6,3
1532067883174,-9,13,2,0,-1,0,-3,2
1532067883179,-8,-4,-7,-9,0,1,8,7
1532067883184,6,3,0,0,-3,-3,-5,-7
1532067883189,-4,2,-3,-1,0,0,-1,-6
1532067883194,5,-2,0,-4,2,-1,-4,-3
1532067883199,-4,-11,7,13,-1,0,5,3
1532067883204,4,0,-10,-5,-2,-2,-1,0
1532067883209,-6,-5,1,4,-5,-3,1,2
1532067883214,0,15,-3,-8,6,-2,-5,-4
1532067883219,-1,-15,-3,-3,-4,0,-1,-4
1532067883224,-5,-15,-16,8,0,-1,2,-2
1532067883229,-2,7,4,2,-3,-2,-4,-2
1532067883234,0,-1,0,-8,-3,-1,-7,-4
1532067883239,3,5,9,5,3,-1,3,-1
1532067883244,-1,9,3,-13,3,0,-1,0
1532067883249,-7,-12,-9,-6,-9,-2,-2,2
1532067883254,5,11,6,9,-1,2,4,-1
1532067883259,0,-3,-9,-4,1,-3,-12,-4
1532067883264,-6,-16,-13,-4,0,-3,2,1
1532067883269,3,6,-7,-3,0,-2,-3,-5
1532067883274,-1,-6,2,0,0,2,3,0
1532067883279,2,4,-1,-3,-5,-2,-2,-4
1532067883284,-2,7,9,-6,-1,2,0,2
1532067883289,-7,2,6,23,-2,-2,-4,-1
1532067883294,-1,-1,-3,-4,0,-1,-1,0
1532067883299,0,-6,-4,-3,-2,-2,3,0
1532067883304,1,-3,-1,-1,1,1,-2,-2
1532067883309,-1,15,-3,-3,7,3,2,3
1532067883314,-3,-10,9,2,-2,-1,-4,-4
1532067883319,-2,0,-10,0,1,1,2,-2
1532067883324,1,5,11,4,0,-1,-1,3
1532067883329,-4,-6,0,1,9,0,1,1
1532067883334,-1,2,-4,-1,-15,-4,-5,-4
1532067883339,0,1,-2,2,-1,-1,2,-1
1532067883344,-1,-5,-4,-2,-6,-2,1,-1
1532067883349,-1,5,13,4,0,-2,-2,-2
1532067883354,1,-1,0,0,6,1,-2,2
1532067883359,-5,-6,-6,-1,-3,-2,1,1
1532067883364,4,2,4,-2,2,1,-3,-3
1532067883369,-2,6,1,-4,-1,0,2,3
1532067883374,-2,-13,-5,-6,2,-3,-2,-3
1532067883379,-1,-13,0,15,-4,1,2,1
1532067883384,-2,5,0,-13,2,1,-1,-3
1532067883389,-1,-6,-5,-9,-3,-2,-3,-1
1532067883394,1,7,-1,1,-7,0,0,0
1532067883399,2,-5,3,-1,5,-1,0,1
1532067883404,2,5,-6,2,1,0,-1,-1
1532067883409,-2,-4,-1,-5,-4,-2,0,0
1532067883414,0,-4,-3,-3,3,0,-1,3
1532067883419,0,-2,-10,-5,0,-1,0,-3
1532067883424,-3,-18,15,6,-2,1,0,0
1532067883429,-1,4,0,5,3,-1,-3,-1
1532067883434,-1,7,2,-12,0,0,-2,-3
1532067883439,0,8,-2,-7,-22,-2,0,0
1532067883444,-1,2,-2,1,0,-2,0,-1
1532067883449,-2,-2,2,2,-4,-2,-2,-2
1532067883454,1,-2,6,5,11,2,1,2
1532067883459,-1,-8,-9,8,4,-2,-3,-4
1532067883464,-4,5,-14,-5,-3,-1,1,0
1532067883469,-1,10,19,1,-1,-1,0,1
1532067883474,-2,0,3,9,-1,-2,-1,0
1532067883479,0,-7,-4,-6,3,0,0,-2
1532067883484,-3,1,-1,2,-4,-2,-1,-1
1532067883489,1,2,-9,3,3,1,-1,-1
1532067883494,-15,-18,-11,-3,-3,-2,-2,2
1532067883499,0,11,2,-13,-4,0,-3,-6
1532067883504,1,0,13,8,3,0,2,1
1532067883509,0,-10,5,-5,7,1,1,-1
1532067883514,0,6,-12,0,-8,-4,-5,-2
1532067883519,-13,8,9,2,3,0,1,1
1532067883524,29,-9,-4,-15,-3,1,0,0
1532067883529,-8,-1,-1,5,-1,0,-1,2
1532067883534,-2,-1,3,2,1,1,1,-3
1532067883539,-8,0,0,-5,4,-1,1,0
1532067883544,11,3,0,11,-5,-2,-4,-4
1532067883549,0,-7,-4,-7,-6,-4,1,-2
1532067883554,2,-4,-5,-9,0,0,-2,-2
1532067883559,5,3,3,18,0,0,0,3
1532067883564,-12,0,-2,-9,1,-1,0,1
1532067883569,-3,-10,-7,-5,-4,-1,-1,-4
1532067883574,0,5,0,-2,0,0,-3,-4
1532067883579,6,-3,0,-4,1,-1,3,6
1532067883584,-9,0,5,2,-1,-2,-2,-2
1532067883589,-2,0,2,1,-3,0,-1,-7
1532067883594,3,-3,-15,-5,1,3,-1,-1
1532067883599,4,-7,8,-1,-4,-3,-1,2
1532067883604,-5,-3,-7,1,1,0,-3,-3
1532067883609,-2,-1,-5,-15,-4,0,0,3
1532067883614,1,0,5,3,1,-3,1,2
1532067883619,3,11,0,-13,-1,-2,0,-4
1532067883624,-11,-19,-3,25,1,-1,-1,1
1532067883629,1,8,-11,-3,-2,-1,-2,-2
1532067883634,-1,-13,2,1,-2,1,1,0
1532067883639,-1,5,-4,-1,0,-1,-2,-2
1532067883644,-1,6,7,-8,0,0,-3,0
1532067883649,10,-3,-1,3,-1,-1,0,4
1532067883654,-2,6,2,0,-3,-2,-1,-2
1532067883659,-2,0,-3,-3,0,-1,-1,-1
1532067883664,-3,-2,1,-3,-1,-2,-3,-3
1532067883669,-2,-6,-2,1,-4,-1,-2,-1
1532067883674,-1,10,-2,-4,2,1,0,4
1532067883679,-7,-22,0,5,0,0,-4,0
1532067883684,-1,5,2,-18,-5,-1,2,-1
1532067883689,-6,8,-1,3,-1,-1,-1,-6
1532067883694,11,-14,-7,-16,-4,-2,0,4
1532067883699,-2,-6,-1,3,0,0,0,-3
1532067883704,-1,0,-4,-5,2,0,1,0
1532067883709,-4,0,2,21,-1,-3,-2,0
1532067883714,-3,5,1,-2,0,0,1,-1
1532067883719,1,0,5,-3,-1,-1,-2,-2
1532067883724,-2,0,1,1,-1,-1,-1,-3
1532067883729,-1,1,-2,-9,1,0,-1,-1
1532067883734,-4,0,1,6,-1,-1,0,-4
1532067883739,3,5,2,-3,-2,-1,-1,2
1532067883744,-2,1,0,0,1,0,-2,-1
1532067883749,-3,4,0,-4,-1,0,0,-1
1532067883754,-1,-5,-1,-3,-5,-2,-2,0
1532067883759,-2,6,-7,-4,-2,0,-2,-1
1532067883764,6,-9,0,1,1,0,-2,-1
1532067883769,1,8,-1,-3,-4,-2,0,0
1532067883774,-4,-6,-1,10,5,0,0,0
1532067883779,1,1,2,-7,1,2,-1,-1
1532067883784,-3,3,-5,3,-6,-1,-1,-1
1532067883789,2,4,7,1,0,0,0,1
1532067883794,-4,-8,-7,-6,-1,-2,-4,-3
1532067883799,-1,-4,-6,-2,-2,-2,-2,-3
1532067883804,-2,-2,-5,0,1,-1,2,-2
1532067883809,-3,-3,2,3,-1,1,0,-2
1532067883814,-2,7,5,-1,-3,1,-1,-1
1532067883819,-2,-9,-5,0,1,1,-1,-3
1532067883824,2,0,5,1,-1,0,-1,-1
1532067883829,-2,1,-1,-3,-3,-2,-4,0
1532067883834,-2,1,5,0,-1,-2,-1,1
1532067883839,1,-6,-7,6,-2,-1,-1,-1
1532067883844,-6,-1,-1,-3,-5,-1,-4,-4
1532067883849,3,2,-2,0,-2,-2,0,1
1532067883854,-2,3,1,-2,4,1,0,0
1532067883859,1,-1,-4,-4,0,0,0,2
1532067883864,1,-3,6,6,1,-2,0,1
1532067883869,-1,-2,-4,-9,2,1,-1,-4
1532067883874,-2,17,-9,-2,-8,-4,-3,0
1532067883879,-2,-51,8,0,-1,1,2,0
1532067883884,-5,14,6,3,-2,-1,-1,1
1532067883889,9,-7,-2,4,0,-2,-2,-1
1532067883894,1,-1,9,3,0,1,1,1
1532067883899,-2,16,-16,-3,3,-1,-4,-2
1532067883904,-1,-2,-1,-2,-4,1,1,1
1532067883909,-3,1,4,2,-2,1,-1,0
1532067883914,-1,-7,-3,1,-2,-3,-3,-4
1532067883919,1,5,4,-5,-4,-2,-2,-3
1532067883924,3,-8,4,15,5,2,4,4
1532067883929,-2,5,-6,-3,1,-1,-2,0
1532067883934,1,-7,-3,-2,-2,-1,-1,-1
1532067883939,-5,2,3,3,-2,0,1,-1
1532067883944,2,-1,-9,-8,5,1,-2,-2
1532067883949,-3,2,4,0,-1,-1,-2,-2
1532067883954,-2,2,-2,-1,-1,-1,0,0
1532067883959,-2,-18,0,-5,1,-1,1,-4
1532067883964,0,-4,-4,1,-5,-3,-5,5
1532067883969,-4,7,5,-2,1,0,2,2
1532067883974,-1,-13,-1,-9,-3,-1,-2,-2
1532067883979,0,18,-8,-6,0,-1,0,3
1532067883984,5,1,0,8,-5,0,4,-5
1532067883989,0,-4,-9,-3,0,0,-9,-5
1532067883994,16,-2,11,8,2,-1,2,6
1532067883999,-10,-9,-9,1,0,-2,-3,-2
1532067884004,-3,-11,-5,-24,-3,-3,2,-4
1532067884009,-9,4,-4,3,-2,0,5,1
1532067884014,5,4,-3,1,2,1,-1,-1
1532067884019,2,-4,5,7,0,1,1,-2
1532067884024,-3,8,-1,-9,-1,-1,-2,-1
1532067884029,4,-6,19,0,-1,1,1,2
1532067884034,-8,-3,0,-3,-3,-2,-3,-2
1532067884039,2,1,2,2,0,1,2,-1
1532067884044,-5,-2,-2,7,-1,-1,-3,2
1532067884049,2,4,-2,-5,0,-1,-2,-3
1532067884054,-6,-18,-11,-9,-2,1,2,-2
1532067884059,-3,4,10,-2,1,-1,0,0
1532067884064,5,16,3,-1,-5,-2,-3,-2
1532067884069,-4,-11,-5,-5,-2,-2,3,-2
1532067884074,3,4,2,-1,0,-1,-1,-2
1532067884079,0,12,-12,-3,-3,-2,-3,-1
1532067884084,-5,-9,6,3,-1,0,0,-1
1532067884089,4,2,-2,-5,0,-3,-1,-1
1532067884094,-9,0,-6,-1,-3,-2,-2,1
1532067884099,0,-1,2,-1,-4,-1,-2,-1
1532067884104,-4,-8,-5,-4,-4,-1,0,-1
1532067884109,1,10,-1,2,0,0,2,-1
1532067884114,-2,-6,0,1,-2,-3,-3,-1
1532067884119,3,6,3,-2,0,0,-1,-1
1532067884124,-3,-1,0,0,1,-1,-2,0
1532067884129,-1,-1,-7,7,-1,0,0,-1
1532067884134,-2,0,-1,-3,2,2,1,-4
1532067884139,-3,1,-4,-18,-3,-2,-3,0
1532067884144,0,-1,-3,-5,-3,-1,-1,-2
1532067884149,1,-13,1,3,-3,1,2,2
1532067884154,-3,9,3,4,3,0,-1,-1
1532067884159,-1,-20,-9,1,0,-1,0,0
1532067884164,0,3,1,-3,1,1,0,0
1532067884169,-2,2,-7,-2,-4,-4,-4,-4
1532067884174,-5,2,20,-2,-2,-1,-2,5
1532067884179,-2,-4,-4,0,-1,0,-2,0
1532067884184,1,7,-14,-2,1,-1,-2,0
1532067884189,-4,-4,-1,3,-3,2,0,-1
1532067884194,-1,0,3,0,-2,-2,-2,-3
1532067884199,-2,-1,-6,-6,1,-1,-2,1
1532067884204,-3,2,-1,-1,-4,-1,-1,-4
1532067884209,0,3,3,5,-2,2,-1,-1
1532067884214,-1,2,-5,-1,2,-1,-1,0
1532067884219,-1,4,6,2,-3,-1,-1,0
1532067884224,-1,-8,-18,-4,0,-3,-1,-3
1532067884229,-2,-3,-1,2,0,-2,1,0
1532067884234,1,-6,-3,1,-3,-1,-2,1
1532067884239,-1,6,4,1,6,1,2,-3
1532067884244,1,3,6,-3,-3,-1,-1,1
1532067884249,0,-5,-1,-4,1,-2,0,0
1532067884254,-2,12,3,10,-3,-1,0,-1
1532067884259,1,-2,-13,-27,-1,0,2,-2
1532067884264,-3,-21,0,2,-3,-2,-3,-1
1532067884269,0,12,-6,1,2,-1,0,1
1532067884274,-3,-13,-2,-5,0,-2,-5,-4
1532067884279,1,4,0,18,-1,-2,-1,-2
1532067884284,0,-2,-17,-12,-3,0,-2,1
1532067884289,2,3,15,1,0,0,4,5
1532067884294,3,-1,4,-7,3,1,0,-1
1532067884299,-4,-6,0,0,-2,0,-2,1
1532067884304,-3,-4,-2,3,1,0,1,-2
1532067884309,1,1,-6,0,-3,-2,-3,-6
1532067884314,-7,3,-6,0,-1,0,2,5
1532067884319,0,-4,9,0,0,0,-2,-2
1532067884324,1,0,3,5,-6,-3,-1,-2
1532067884329,-1,1,-3,-2,5,-1,-1,-3
1532067884334,-2,-4,4,-3,-1,-1,2,0
1532067884339,-1,1,0,11,-2,-1,-1,-3
1532067884344,-3,-2,4,-3,-1,2,1,-2
1532067884349,0,2,-3,2,-3,-2,-2,0
1532067884354,2,3,-1,0,-3,0,-1,-3
1532067884359,1,-8,-4,-11,1,-1,-1,1
1532067884364,-2,3,-2,15,-3,-1,-1,1
1532067884369,0,2,0,-2,-3,-2,2,4
1532067884374,1,-8,-2,-1,4,0,-2,-4
1532067884379,-2,4,2,2,1,-1,0,0
1532067884384,1,8,5,-2,2,0,-2,-3
1532067884389,-2,-17,-2,-1,-3,-2,-3,-3
1532067884394,1,7,-7,-9,-3,-2,-2,-1
1532067884399,0,-2,0,1,0,0,-1,2
1532067884404,2,-3,-3,-1,-1,-2,1,-1
1532067884409,-2,9,6,7,3,-1,1,-1
1532067884414,-2,-14,-5,-6,-4,-2,-1,-1
1532067884419,0,-5,-9,-6,-3,-2,0,1
1532067884424,-1,7,8,-3,-2,-3,-3,-1
1532067884429,-2,-9,11,-1,-1,0,-1,-1
1532067884434,-1,-3,5,6,2,0,1,1
1532067884439,-1,6,3,-4,-1,1,2,-2
1532067884444,-6,0,3,-3,0,0,1,0
1532067884449,1,4,-5,-1,-2,-2,-3,-1
1532067884454,2,-8,-6,0,-2,1,0,0
1532067884459,0,2,1,-2,-2,0,-1,-1
1532067884464,1,-3,-6,0,-1,-2,-2,-3
1532067884469,1,7,4,-12,0,0,-1,0
1532067884474,-3,-24,3,-15,-9,-3,-2,-1
1532067884479,0,-9,-12,3,-2,-1,-1,-2
1532067884484,0,1,-3,-3,2,-1,0,0
1532067884489,-2,-3,-3,6,-1,-1,1,-2
1532067884494,3,7,2,-1,0,1,0,-4
1532067884499,-4,4,-3,-7,1,-1,-1,5
1532067884504,11,7,-2,-4,-5,0,-4,-5
1532067884509,-5,-8,-4,2,1,-1,4,0
1532067884514,-2,5,6,0,2,0,1,2
1532067884519,6,2,6,3,-3,-1,-1,-1
1532067884524,-4,3,1,-3,0,1,0,-2
1532067884529,3,8,6,1,0,0,-1,0
1532067884534,-2,-4,-6,-3,0,0,-1,1
1532067884539,-6,-17,-4,10,-3,-2,-1,-2
1532067884544,-2,3,3,-8,5,-1,0,1
1532067884549,-1,-4,-7,-1,-2,-4,-4,0
1532067884554,-2,4,3,8,0,0,-1,-1
1532067884559,1,0,-1,-6,0,0,0,-1
1532067884564,-3,-9,-9,-1,0,0,0,-2
1532067884569,-1,-1,3,2,-3,-1,-2,-1
1532067884574,2,-1,-2,0,6,1,1,-2
1532067884579,1,12,4,-9,-3,-2,0,-2
1532067884584,-3,-5,-6,4,-2,-3,-2,-3
1532067884589,-2,4,5,-3,0,1,-1,-3
1532067884594,2,-6,-1,5,-4,0,0,0
1532067884599,-3,-4,-10,-12,1,-1,-4,-2
1532067884604,-2,3,0,-4,-3,1,-3,2
1532067884609,1,-2,2,5,-4,-2,-1,0
1532067884614,3,14,8,5,19,2,0,0
1532067884619,-6,-27,-24,-5,-23,-5,-2,-1
1532067884624,0,2,-6,-3,-6,-1,0,-2
1532067884629,0,-2,17,-12,-2,0,-1,-2
1532067884634,-1,-2,-10,-1,-1,-3,-1,-1
1532067884639,5,17,-6,1,19,8,4,-4
1532067884644,-5,-10,53,-4,-34,-11,-4,3
1532067884649,-1,4,12,7,1,1,1,2
1532067884654,-6,-13,-38,-9,-8,-5,-3,-2
1532067884659,3,11,21,7,11,2,0,0
1532067884664,1,-4,-19,-1,11,2,2,0
1532067884669,-2,-3,-12,3,1,-1,-3,-3
1532067884674,2,-4,10,2,-3,-1,-1,-2
1532067884679,-1,1,-1,4,2,2,2,-3
1532067884684,-1,-4,-16,-1,4,1,-1,0
1532067884689,-3,2,-13,-4,-1,-3,-1,-1
1532067884694,-2,-5,9,2,5,-1,2,0
1532067884699,-4,-7,-6,-2,-6,-5,-2,1
1532067884704,-1,8,7,-1,-8,-3,0,-1
1532067884709,0,-14,-9,0,3,3,-1,0
1532067884714,1,15,-4,-3,-8,0,0,3
1532067884719,-1,-10,11,4,4,-2,-3,-1
1532067884724,1,11,2,-2,5,1,0,-1
1532067884729,-1,-4,-12,3,-5,-3,0,-3
1532067884734,0,5,6,-4,-2,0,-2,0
1532067884739,-1,2,9,1,-6,-2,-1,-1
1532067884744,-2,-7,-7,4,4,2,2,1
1532067884749,-3,-12,-7,-11,-5,-4,-1,0
1532067884754,0,-3,0,-8,-3,0,-1,-1
1532067884759,0,11,1,2,2,1,1,-2
1532067884764,-1,3,-9,-2,5,0,-2,1
1532067884769,-1,5,7,-3,0,0,1,-1
1532067884774,-1,0,-5,-10,-4,-1,0,-3
1532067884779,1,-13,3,1,-6,-2,-1,1
1532067884784,1,-10,-6,-1,6,0,-1,-3
1532067884789,1,0,3,0,2,1,0,3
1532067884794,-1,9,-5,4,-6,1,0,-2
1532067884799,-9,1,-1,-2,-1,-2,-1,3
1532067884804,-6,5,6,3,0,0,0,-3
1532067884809,14,-5,-2,-3,-1,-3,-2,-3
1532067884814,-1,6,-5,4,-1,-2,-3,-3
1532067884819,2,6,5,3,0,1,1,2
1532067884824,0,-13,-1,-4,-1,0,1,1
1532067884829,-10,2,-3,-16,-3,-1,-2,-3
1532067884834,18,-6,13,23,2,-1,-4,1
1532067884839,3,6,-10,0,-3,-2,0,-1
1532067884844,-2,-7,9,12,2,0,-1,-5
1532067884849,9,-1,-8,4,2,2,-1,2
1532067884854,-36,-6,-7,-9,-2,-2,0,-3
1532067884859,6,5,1,5,1,0,-1,-1
1532067884864,0,4,-12,0,-1,-1,-1,-2
1532067884869,-8,0,14,-2,1,0,-2,0
1532067884874,11,-3,5,1,-2,0,1,1
1532067884879,-1,-2,-8,-3,1,-1,0,-3
1532067884884,-8,12,-2,-5,-5,-4,-4,0
1532067884889,-2,-13,-7,5,2,1,1,-1
1532067884894,0,-1,3,-5,-2,1,0,0
1532067884899,-5,-3,-1,-10,-1,0,-5,-4
1532067884904,7,3,-9,-5,1,-2,0,-1
1532067884909,-1,-12,-1,18,-3,-4,-1,2
1532067884914,0,-2,3,2,5,-1,-2,0
1532067884919,-3,-3,-15,-26,-7,-3,0,0
1532067884924,2,3,14,2,0,1,0,2
1532067884929,-3,4,-1,3,-4,-1,1,-3
1532067884934,-6,5,-7,-6,4,1,-1,-1
1532067884939,13,-5,1,5,-2,-1,-2,-2
1532067884944,-1,-3,-2,-7,-1,-1,2,-1
1532067884949,-4,7,-6,-7,0,0,0,-2
1532067884954,3,0,6,5,-4,-2,0,-1
1532067884959,-3,-8,-15,5,1,3,-1,1
1532067884964,-5,11,42,-2,0,0,-1,1
1532067884969,9,0,-7,15,-1,-1,-2,-1
1532067884974,-4,-26,-2,-2,-1,2,3,1
1532067884979,-4,3,-1,5,1,0,0,0
1532067884984,2,5,32,2,-3,-1,0,-2
1532067884989,-5,-9,-24,-13,-3,-2,-2,-4
1532067884994,3,10,-5,-2,3,-1,-1,0
1532067884999,-3,-8,1,-3,-2,-3,-2,-3
1532067885004,-1,-15,-13,0,-2,0,0,2
1532067885009,-2,6,11,2,2,1,-1,0
1532067885014,1,-5,1,-1,-3,-1,-1,-2
1532067885019,-4,-3,-4,-2,0,0,-1,2
1532067885024,0,9,-49,-12,-3,-2,-1,-4
1532067885029,-1,-7,7,2,1,3,3,2
1532067885034,-1,6,41,-1,-2,-2,0,0
1532067885039,4,21,57,8,4,5,1,2
1532067885044,-1,-24,-23,-2,-2,1,-1,-2
1532067885049,-5,-1,36,5,2,-3,-2,-2
1532067885054,0,10,-7,-8,0,0,-2,-1
1532067885059,-1,-4,-24,-2,-2,0,0,-2
1532067885064,3,3,-3,-8,1,0,-1,3
1532067885069,-1,1,-17,0,-7,-2,-2,-4
1532067885074,2,10,15,4,-3,-3,-2,-2
1532067885079,-2,3,-10,-3,-1,-4,-2,-1
1532067885084,-6,-13,-30,3,0,-3,-3,-3
1532067885089,15,20,36,-20,-1,-1,2,-3
1532067885094,-4,-10,3,10,-1,0,0,-1
1532067885099,0,10,11,2,-3,1,-1,1
1532067885104,1,-9,30,13,-1,0,1,1
1532067885109,-6,8,-53,2,1,-3,-4,-1
1532067885114,-8,-8,-6,-22,0,1,1,0
1532067885119,14,-5,-23,-18,-13,-5,-4,-5
1532067885124,2,13,4,-7,0,-3,-4,1
1532067885129,-3,2,17,6,3,2,2,1
1532067885134,-1,-9,-15,-19,-5,0,1,-1
1532067885139,-12,-10,23,10,5,1,1,-1
1532067885144,11,6,-4,-12,-4,-2,-2,-2
1532067885149,-6,-5,6,2,-3,-4,-3,-2
1532067885154,10,-5,-24,1,-1,-2,-3,-3
1532067885159,-6,-4,-7,11,2,-1,0,1
1532067885164,17,0,2,9,-1,0,-1,-2
1532067885169,-15,-2,-8,4,0,0,-3,-4
1532067885174,-2,7,-12,7,0,0,3,2
1532067885179,-9,-8,-6,-9,-2,0,2,0
1532067885184,3,-5,-2,6,4,0,2,4
1532067885189,7,-4,-2,-22,-2,4,4,-2
1532067885194,-6,-4,-2,22,4,2,0,-4
1532067885199,2,0,-8,2,-19,-8,-9,3
1532067885204,-11,-2,12,-5,0,3,1,-2
1532067885209,-2,-1,-6,1,3,-2,-3,-3
1532067885214,8,5,5,-3,6,3,4,3
1532067885219,2,2,-8,-2,-3,0,1,0
1532067885224,0,-6,-32,-10,0,0,-4,-2
1532067885229,-29,-8,-3,-22,-4,-1,39,-1
1532067885234,9,-4,-2,13,-4,-7,-49,10
1532067885239,-10,-3,1,-15,2,0,1,-14
1532067885244,-28,2,-2,0,-3,-2,10,-6
1532067885249,14,6,2,-4,3,-1,-19,-2
1532067885254,3,18,-15,-13,-9,-5,10,-4
1532067885259,-4,-5,-15,1,4,1,0,3
1532067885264,4,-8,47,17,5,2,1,5
1532067885269,10,9,59,-2,-1,1,1,5
1532067885274,-7,-8,7,-11,1,2,6,-1
1532067885279,-2,3,-8,10,2,-3,-10,-1
1532067885284,1,-4,-39,-55,-12,-4,2,-7
1532067885289,-1,-12,-67,-20,-11,-5,-13,-3
1532067885294,-4,0,8,-18,2,1,2,-2
1532067885299,7,-4,79,2,19,6,9,6
1532067885304,-5,-8,-23,36,-27,-9,-8,-3
1532067885309,-13,2,-22,1,-4,-2,-7,0
1532067885314,2,-8,7,3,-1,1,19,-5
1532067885319,25,-3,-6,20,14,3,-6,3
1532067885324,17,26,3,21,8,-2,-9,-3
1532067885329,-9,-11,11,11,-5,-1,-4,4
1532067885334,-3,-2,-14,20,0,-2,5,0
1532067885339,-5,-1,-7,-7,-2,0,1,-4
1532067885344,7,4,21,20,12,2,-2,2
1532067885349,11,6,3,-32,3,2,-1,0
1532067885354,-7,-6,7,12,-6,-1,-2,-3
1532067885359,-3,1,-30,6,-9,-5,-1,-1
1532067885364,-11,-9,6,-12,1,1,-3,3
1532067885369,1,0,10,17,6,-2,1,2
1532067885374,-1,-1,5,-8,-2,-1,-2,-2
1532067885379,7,3,41,17,1,1,2,1
1532067885384,-21,3,2,-34,-1,-2,0,-4
1532067885389,3,15,-65,7,-15,-7,-11,-5
1532067885394,-3,-2,18,-5,-1,3,6,5
1532067885399,-7,-13,-9,-2,1,0,1,-2
1532067885404,-5,-19,-55,-9,8,3,3,-4
1532067885409,14,7,24,21,1,-2,0,2
1532067885414,2,-3,-11,-7,-8,-4,-4,-1
1532067885419,14,-4,-14,7,-5,-3,1,2
1532067885424,-8,-28,-13,-4,2,0,-3,-5
1532067885429,-8,-8,2,2,9,4,1,-8
1532067885434,20,15,3,8,1,-2,0,-1
1532067885439,-4,26,5,-18,-1,2,3,1
1532067885444,9,9,19,21,4,2,2,1
1532067885449,5,22,12,-4,-4,1,10,8
1532067885454,6,-73,7,-11,6,0,10,-2
1532067885459,-42,-3,-55,-14,-2,-5,-37,-14
1532067885464,-8,2,26,15,-1,-3,0,0
1532067885469,-4,14,13,12,-3,-2,-1,-4
1532067885474,-2,18,-77,-9,5,3,5,0
1532067885479,-13,-55,16,-23,-12,-1,9,5
1532067885484,-12,-2,-3,-3,0,0,-6,2
1532067885489,16,5,34,6,2,1,5,8
1532067885494,-5,5,0,1,0,-4,-5,-1
1532067885499,2,9,-69,-4,-1,-3,1,-6
1532067885504,3,7,10,1,-7,0,1,1
1532067885509,0,-17,-42,-9,2,-2,-2,-4
1532067885514,-8,-9,27,5,-4,0,-5,-3
1532067885519,6,22,61,-6,1,1,2,0
1532067885524,5,13,72,26,-5,-5,1,6
1532067885529,-32,-40,-23,-16,-7,-5,-9,-5
1532067885534,1,15,26,1,3,0,-6,-1
1532067885539,5,14,1,16,1,1,7,1
1532067885544,5,16,-17,-16,-9,0,1,2
1532067885549,-7,-31,29,7,0,2,-3,-1
1532067885554,-5,18,-28,-24,-10,-9,-12,-8
1532067885559,4,-14,13,-28,4,6,13,-2
1532067885564,2,-1,-67,24,13,0,-1,-4
1532067885569,3,10,56,35,-1,-3,-8,7
1532067885574,18,82,38,20,6,3,4,7
1532067885579,-27,-25,32,-5,-3,-1,0,-1
1532067885584,-2,-77,-17,-41,-3,-3,-5,-7
1532067885589,12,31,-18,5,0,-1,-3,-11
1532067885594,-6,1,9,3,-1,3,0,4
1532067885599,12,63,31,4,-9,-5,-8,3
1532067885604,8,34,3,0,2,4,5,4
1532067885609,-12,-17,-7,-13,-3,-1,0,0
1532067885614,-3,-23,-51,-9,-5,-2,-1,-5
1532067885619,5,-14,-49,7,1,0,-1,-2
1532067885624,-3,-12,67,8,-3,-1,0,1
1532067885629,7,12,-30,-26,-1,1,0,0
1532067885634,-4,-4,14,10,-5,-2,-3,-1
1532067885639,5,-6,-4,8,1,0,1,3
1532067885644,6,-9,45,3,-3,0,1,2
1532067885649,2,52,13,-10,1,-1,0,1
1532067885654,-15,-14,31,16,6,4,8,6
1532067885659,-14,-51,23,-38,-11,-6,-9,-10
1532067885664,-1,-5,-57,-5,-5,-5,-7,-10
1532067885669,5,-33,34,-2,-1,4,6,1
1532067885674,-2,15,-11,-26,-8,-3,-3,-7
1532067885679,22,40,19,32,8,2,5,1
1532067885684,-29,11,-4,23,13,1,0,-2
1532067885689,18,-23,-40,-22,-22,-7,-8,1
1532067885694,1,-6,-46,-23,-6,-6,-6,-3
1532067885699,0,-2,-16,14,1,-1,0,2
1532067885704,2,3,8,-13,2,4,2,1
1532067885709,-1,20,23,27,12,3,7,1
1532067885714,0,-44,25,-2,-3,0,0,0
1532067885719,-1,7,-10,-2,1,-4,-7,-10
1532067885724,15,29,41,-6,1,3,6,4
1532067885729,11,5,11,5,0,0,2,4
1532067885734,-36,-101,4,-1,-1,1,1,-8
1532067885739,-6,7,-25,-10,-7,-5,-6,-8
1532067885744,8,51,-21,8,2,-2,-1,2
1532067885749,2,-41,-25,-16,0,-1,0,1
1532067885754,-4,21,-2,0,3,0,-4,-3
1532067885759,4,3,-6,0,-5,0,-2,1
1532067885764,-4,18,-18,10,-5,-3,-1,3
1532067885769,2,-13,9,-15,-5,0,0,-1
1532067885774,6,-18,2,20,5,2,3,-2
1532067885779,1,-10,-17,-14,9,1,0,-4
1532067885784,15,22,44,14,11,4,4,1
1532067885789,-22,-5,44,16,-23,-6,-4,0
1532067885794,7,32,-15,-18,-3,-3,-4,-1
1532067885799,0,-28,42,-35,-18,-1,-1,10
1532067885804,-36,-39,-47,-9,2,-3,-7,-11
1532067885809,-7,2,-22,20,15,6,4,-9
1532067885814,8,23,-8,6,1,-2,-6,-2
1532067885819,4,24,38,-10,2,-1,3,7
1532067885824,2,-11,19,17,3,2,3,0
1532067885829,-7,0,-11,-26,-7,-4,-6,0
1532067885834,-11,-8,-49,-26,-14,-6,-8,0
1532067885839,0,4,46,57,12,4,3,-1
1532067885844,9,7,7,-7,-4,2,2,-3
1532067885849,0,-45,-23,-28,9,2,6,-10
1532067885854,7,18,64,51,-1,0,2,2
1532067885859,-2,8,-11,16,0,-2,-2,5
1532067885864,4,-4,36,3,-8,0,-5,9
1532067885869,3,40,-23,-10,12,2,2,-4
1532067885874,2,-20,-26,-31,18,-2,3,-13
1532067885879,2,-2,-18,23,-27,0,5,-7
1532067885884,1,-3,17,4,-6,-3,-5,1
1532067885889,-3,11,-21,-10,-4,-2,-5,4
1532067885894,1,-1,25,-7,9,1,3,4
1532067885899,3,9,-15,-5,23,3,4,-5
1532067885904,4,-12,-38,-30,-21,-6,-3,-4
1532067885909,-9,-9,3,1,-25,-8,-9,2
1532067885914,-2,10,-11,20,-4,-4,-8,5
1532067885919,-2,-12,-23,-23,1,-2,-1,-1
1532067885924,5,3,-8,-6,10,1,4,-5
1532067885929,0,3,32,19,9,-3,-1,-2
1532067885934,6,35,-10,3,-4,0,-3,-1
1532067885939,-3,4,5,16,7,0,-2,-1
1532067885944,-1,-15,-18,-20,-2,-2,0,-1
1532067885949,-3,3,6,22,4,0,-1,0
1532067885954,5,11,10,-3,2,3,2,1
1532067885959,-4,-9,8,-9,-2,-1,-1,2
1532067885964,-1,-13,-64,4,-3,-5,-3,4
1532067885969,4,13,6,2,6,4,6,4
1532067885974,-6,-26,-23,-2,-1,-4,-3,-2
1532067885979,-5,7,-2,4,9,-4,-4,-2
1532067885984,-2,-20,-12,-21,-18,0,3,-3
1532067885989,0,26,10,1,-3,-4,-4,3
1532067885994,-2,-17,-44,9,25,2,-4,-13
1532067885999,0,-1,20,3,29,4,4,3
1532067886004,-5,15,-20,-23,-52,-8,-1,-2
1532067886009,1,-15,12,7,-2,4,2,1
1532067886014,-1,10,18,4,-18,-2,-1,4
1532067886019,2,-5,-65,-3,43,4,0,-6
1532067886024,-4,-3,57,-4,-23,-3,1,1
1532067886029,-4,-12,-29,-3,-9,-1,-2,-1
1532067886034,4,11,32,0,1,0,0,1
1532067886039,0,7,14,-2,-18,-2,-3,0
1532067886044,0,-8,-36,-9,-13,1,0,-3
1532067886049,1,-4,-47,-3,2,-1,-5,-8
1532067886054,-5,-35,42,-1,-16,1,1,2
1532067886059,0,-3,-2,-36,-7,-2,-3,4
1532067886064,-7,-2,-11,27,-7,-3,-4,-3
1532067886069,-4,-1,-2,22,10,-2,-5,0
1532067886074,2,13,-4,-8,6,2,2,-3
1532067886079,3,3,-10,1,-7,3,1,1
1532067886084,3,7,-25,-16,2,-4,-4,-5
1532067886089,5,5,-40,1,7,3,4,0
1532067886094,-8,-13,26,0,-29,0,1,6
1532067886099,2,5,18,11,-31,-6,6,8
1532067886104,7,-2,-10,-9,96,5,3,-13
1532067886109,-8,-5,-8,-13,-62,-1,-8,2
1532067886114,-3,9,-11,12,-12,-7,-13,-10
1532067886119,2,2,3,-11,60,4,-1,-7
1532067886124,-5,-5,-10,-19,-83,-4,0,6
1532067886129,4,-2,24,-16,1,1,13,16
1532067886134,4,4,-14,-6,-5,6,6,5
1532067886139,-6,-7,4,5,2,-9,-22,-18
1532067886144,-1,-4,3,8,9,-9,-9,-8
1532067886149,1,0,21,-4,11,2,1,-5
1532067886154,3,11,5,0,-20,-1,3,9
1532067886159,2,4,7,18,5,2,5,6
1532067886164,0,-3,3,2,-3,0,-2,-4
1532067886169,1,0,-19,-1,-1,-3,-2,1
1532067886174,-1,-15,57,6,0,1,4,2
1532067886179,0,3,-26,7,-5,1,4,0
1532067886184,-5,-9,0,-6,0,2,3,3
1532067886189,3,-6,21,-1,4,-5,-3,-8
1532067886194,1,10,-25,-2,-5,-4,-4,-7
1532067886199,2,0,-5,-2,-1,5,1,6
1532067886204,-8,0,15,1,-9,-4,-5,-7
1532067886209,0,9,37,9,7,2,2,-4
1532067886214,-2,-17,-4,-7,-5,2,3,4
1532067886219,2,3,17,12,0,3,2,6
1532067886224,5,5,11,11,30,1,2,-2
1532067886229,-4,-3,-10,-5,-33,-3,-5,-2
1532067886234,1,10,-17,5,1,-1,-3,-4
1532067886239,-2,-1,2,-7,-9,-4,0,-1
1532067886244,1,-2,-25,-2,-1,2,4,3
1532067886249,-2,17,14,3,18,0,0,3
1532067886254,-1,-9,4,-3,-3,0,-1,-5
1532067886259,-7,-34,-28,0,-3,-4,-5,-7
1532067886264,20,-19,75,14,-2,4,5,7
1532067886269,-5,-14,15,6,6,2,1,-5
1532067886274,4,23,23,-5,-10,3,28,12
1532067886279,-4,6,3,-5,12,-1,-28,7
1532067886284,4,19,-32,3,-6,-6,-11,-11
1532067886289,-1,-9,52,30,34,5,3,7
1532067886294,-8,-11,-40,-66,-52,-12,3,-6
1532067886299,1,-3,-23,2,5,4,9,-5
1532067886304,-2,9,-1,4,-6,-1,-2,4
1532067886309,0,4,-25,-3,4,-2,2,-2
1532067886314,0,10,-20,21,12,3,-12,-2
1532067886319,4,0,34,4,45,3,4,-1
1532067886324,-8,-4,-95,-40,-54,-15,-13,-1
1532067886329,-4,-18,19,18,4,4,5,0
1532067886334,-2,-3,-24,-37,-63,-4,-8,2
1532067886339,4,10,5,34,2,2,5,1
1532067886344,-6,0,18,7,5,-3,4,1
1532067886349,5,12,-4,-12,17,-5,-10,3
1532067886354,5,51,20,3,24,1,-8,-4
1532067886359,-7,-57,-33,-31,-20,-3,4,-11
1532067886364,12,16,35,35,33,7,4,-7
1532067886369,-15,-27,21,21,-18,-2,-1,1
1532067886374,0,35,82,13,14,-2,-11,8
1532067886379,-13,63,61,-8,-9,1,30,4
1532067886384,5,-56,-59,-12,4,2,-23,-2
1532067886389,10,17,-53,-27,-10,-3,-2,-7
1532067886394,7,-11,-18,16,12,1,9,-9
1532067886399,0,28,-51,-2,0,-2,-2,-2
1532067886404,-10,2,94,-1,-7,-3,7,3
1532067886409,-2,0,-19,-8,-16,-1,-1,2
1532067886414,-3,-14,-33,-26,18,-2,-9,-2
1532067886419,12,12,52,3,-11,-3,-5,3
1532067886424,-6,6,-90,7,-12,-4,0,-7
1532067886429,-5,-24,16,-7,17,6,5,3
1532067886434,1,-3,17,26,54,4,8,2
1532067886439,-2,-7,13,-29,-92,-7,-4,5
1532067886444,-10,-3,-52,0,-46,-8,-10,-7
1532067886449,14,48,-19,-4,-18,-3,-4,-16
1532067886454,-17,-58,-46,-11,11,-4,-4,-7
1532067886459,-6,-16,44,25,38,1,-6,12
1532067886464,1,19,-4,-9,15,4,4,8
1532067886469,7,12,-18,-5,1,-4,0,2
1532067886474,8,2,-53,-5,-7,2,2,-3
1532067886479,6,24,-24,-3,6,-2,-6,-5
1532067886484,0,-53,78,-49,6,8,15,2
1532067886489,-28,-31,-24,16,17,3,0,-11
1532067886494,-8,-16,26,49,-2,-6,-12,2
1532067886499,-12,-13,-10,27,-24,-5,-10,0
1532067886504,13,34,18,-16,11,4,3,3
1532067886509,15,29,-5,-37,36,4,8,2
1532067886514,10,-10,-15,29,-1,5,2,-22
1532067886519,-9,3,-5,-42,-81,-17,-2,8
1532067886524,-21,-24,-12,19,2,-5,-6,-6
1532067886529,-7,-8,75,22,-34,-7,-13,17
1532067886534,-2,4,-14,2,25,-5,-3,-1
1532067886539,19,45,-97,-17,42,9,10,-9
1532067886544,0,-15,94,16,8,8,3,9
1532067886549,-8,-49,-10,1,-1,-6,-3,-4
1532067886554,-3,57,1,-22,-8,1,-1,-1
1532067886559,2,-100,-61,27,12,8,5,-12
1532067886564,1,24,-18,-5,3,-1,2,1
1532067886569,-3,10,-18,-2,1,-3,-5,-9
1532067886574,7,7,22,-12,-21,0,0,7
1532067886579,-3,13,6,-10,0,-3,-8,-4
1532067886584,-3,-3,-23,-3,11,0,-4,1
1532067886589,4,0,2,-1,-7,-1,1,5
1532067886594,-9,47,-44,-34,-18,0,3,-2
1532067886599,8,-61,76,16,23,1,-3,-5
1532067886604,-10,-4,-73,46,2,-8,-3,0
1532067886609,-9,15,59,-7,-4,2,-4,-9
1532067886614,-5,-13,-27,5,-11,-3,-9,0
1532067886619,-2,41,25,-8,15,2,-4,2
1532067886624,3,11,5,-32,10,7,15,-3
1532067886629,-5,-14,-46,-12,-29,-7,-4,3
1532067886634,-11,-10,15,-7,-1,-6,-4,3
1532067886639,-3,14,-15,-19,9,1,-1,-5
1532067886644,-3,29,4,16,-9,-1,-2,-4
1532067886649,-10,-64,-18,24,5,-2,-1,-3
1532067886654,12,-7,16,4,1,2,3,1
1532067886659,-10,49,59,-27,-4,-2,-1,-1
1532067886664,-5,-68,33,-25,1,-1,-1,-5
1532067886669,19,27,24,74,16,0,-2,4
1532067886674,12,1,61,30,27,3,-11,4
1532067886679,-7,-3,-50,-10,-12,1,5,-5
1532067886684,2,34,16,-16,0,2,3,1
1532067886689,8,5,2,-35,1,3,5,-3
1532067886694,-1,-16,3,22,3,1,5,-5
1532067886699,21,13,-5,23,10,-1,-4,2
1532067886704,0,-6,-14,1,2,-2,-1,-2
1532067886709,5,-4,-25,-14,-6,0,-2,0
1532067886714,7,25,-12,0,-5,-2,1,-1
1532067886719,-12,-40,-42,-13,-3,-5,-9,-5
1532067886724,4,-9,39,-18,-5,-3,0,1
1532067886729,15,40,30,8,-3,3,19,9
1532067886734,-3,-13,26,-11,-5,0,-8,0
1532067886739,10,1,-16,14,8,1,-2,2
1532067886744,5,12,-9,11,6,2,-4,-6
1532067886749,-4,15,-27,-14,1,-2,-7,-4
1532067886754,4,-28,-4,-1,-7,-1,8,4
1532067886759,7,-21,-91,-39,0,-2,0,-12
1532067886764,-7,-10,70,-41,-8,-2,-7,1
1532067886769,-5,-7,-27,-51,-12,-5,-3,-6
1532067886774,-3,-16,-27,-6,-11,-2,4,-3
1532067886779,8,3,7,13,0,-2,1,8
1532067886784,4,24,0,30,12,3,3,6
1532067886789,-9,-21,-14,-21,12,-4,-6,-3
1532067886794,-3,-12,-20,-20,-22,-2,-3,-3
1532067886799,-9,3,27,25,-4,1,0,3
1532067886804,-4,-10,-62,2,-10,-3,-3,-9
1532067886809,-4,-1,39,18,9,5,4,4
1532067886814,1,24,52,26,14,0,-1,-1
1532067886819,-8,-8,74,25,10,3,1,3
1532067886824,-6,-11,-23,-1,-36,-10,-5,-1
1532067886829,-2,3,-29,-20,-9,0,-3,-6
1532067886834,-14,-25,-36,-28,-10,-2,3,0
1532067886839,-6,-5,10,8,2,3,2,-1
1532067886844,-1,9,9,-14,-13,-5,4,18
1532067886849,1,7,-20,-9,-9,-3,-4,-6
1532067886854,-7,-5,-16,28,13,-6,-16,-22
1532067886859,-19,-29,-47,-71,-21,-23,-17,-10
1532067886864,3,1,-6,46,1,15,9,-4
1532067886869,-5,1,-54,-8,-35,-6,7,18
1532067886874,-4,-4,69,6,-36,-3,1,1
1532067886879,-10,8,-9,49,32,5,-6,8
1532067886884,14,29,76,9,85,6,-9,12
1532067886889,-2,-12,-59,-17,-19,-12,-18,-30
1532067886894,9,19,19,23,14,16,22,10
1532067886899,-1,3,9,4,6,-2,0,-1
1532067886904,-2,4,2,-13,-2,-1,0,-1
1532067886909,3,12,47,57,30,8,-1,2
1532067886914,11,23,29,23,40,1,-6,18
1532067886919,4,-6,24,-3,41,-11,-21,-1
1532067886924,-16,-43,-128,-51,-102,9,43,-31
1532067886929,-10,-5,17,-6,-13,8,9,-10
1532067886934,0,-14,4,0,6,-1,1,-1
1532067886939,8,16,-23,1,-17,0,4,10
1532067886944,2,-4,112,52,39,-7,-29,7
1532067886949,-6,9,17,-32,-2,-9,-12,-5
1532067886954,-2,-15,-67,-36,-32,2,21,-1
1532067886959,1,38,29,23,5,5,2,-9
1532067886964,-3,9,-71,-8,-3,-6,-7,-8
1532067886969,-19,0,17,12,1,3,5,-2
1532067886974,49,18,6,-8,14,-4,-16,14
1532067886979,18,47,-8,-12,-13,3,5,16
1532067886984,-31,-86,-51,11,3,2,8,-28
1532067886989,19,43,-1,23,12,2,0,-6
1532067886994,-30,-13,-47,-24,-13,-6,-5,3
1532067886999,-11,-81,-5,1,-19,-5,-9,-28
1532067887004,12,64,22,-8,2,-4,-7,6
1532067887009,-3,-18,68,37,38,10,2,11
1532067887014,0,-11,-35,-4,-7,-7,-4,-21
1532067887019,14,35,33,43,-8,4,12,12
1532067887024,-8,9,4,46,-4,-9,-9,8
1532067887029,-5,4,11,32,-25,-11,-10,11
1532067887034,-3,6,21,72,4,-2,-8,6
1532067887039,-16,-25,-4,-67,-22,-1,1,-5
1532067887044,23,23,63,127,94,21,16,-2
1532067887049,31,3,-37,-91,-15,2,15,-4
1532067887054,-53,-49,-43,-18,-79,-36,-43,-2
1532067887059,-14,-18,-10,38,7,3,-1,4
1532067887064,39,29,34,8,-4,-3,-2,15
1532067887069,-11,-23,44,71,56,19,15,3
1532067887074,9,5,-6,-34,26,10,20,-21
1532067887079,-2,4,-8,-10,-13,-3,0,-9
1532067887084,1,1,9,-26,-15,-7,-11,6
1532067887089,-1,-1,-13,-25,5,-1,-1,1
1532067887094,-8,-2,12,-10,0,-1,-4,-3
1532067887099,0,-8,38,9,16,2,0,1
1532067887104,6,15,-25,1,-2,5,7,1
1532067887109,-10,-2,40,113,28,3,5,-11
1532067887114,-20,-12,-64,-113,-49,-13,-7,0
1532067887119,-10,-5,-1,8,-39,-13,-22,19
1532067887124,-32,-18,-22,-58,-27,-6,-13,-5
1532067887129,0,-1,6,-9,-7,-3,-11,3
1532067887134,27,29,48,89,63,21,22,3
1532067887139,1,-8,-12,8,32,5,13,-13
1532067887144,-4,0,2,-19,-35,-8,-6,0
1532067887149,-1,-1,-41,-15,-13,-5,-7,-3
1532067887154,6,6,23,4,30,13,18,-2
1532067887159,16,6,-17,-16,-16,2,20,34
1532067887164,-5,5,-5,-10,0,-5,-5,-10
1532067887169,-11,-9,19,-17,-12,-11,-34,-36
1532067887174,-8,-8,10,1,2,1,-5,-2
1532067887179,-5,-9,-35,-12,-6,-4,-3,-12
1532067887184,9,3,14,19,8,3,10,17
1532067887189,10,17,1,-16,-10,1,18,27
1532067887194,-11,22,11,-4,-1,2,9,20
1532067887199,10,-11,-2,15,9,-1,4,7
1532067887204,-6,-28,-30,-18,-3,-1,-9,-34
1532067887209,9,16,-47,-22,-13,-8,-17,-21
1532067887214,-9,3,17,6,1,-5,-9,9
1532067887219,-4,-20,3,0,3,8,3,-20
1532067887224,-11,25,-5,-11,-9,-10,-22,-30
1532067887229,-29,-83,-34,-7,-10,-9,-12,19
1532067887234,35,113,37,23,8,4,-4,-13
1532067887239,2,-30,22,3,1,4,9,24
1532067887244,-53,-92,-46,-15,-4,-5,-3,-5
1532067887249,5,102,-56,0,6,-2,-4,-13
1532067887254,22,47,3,-4,-7,1,7,16
1532067887259,22,127,35,3,3,3,7,12
1532067887264,15,-43,23,4,6,1,3,15
1532067887269,4,-40,20,-12,-6,-1,9,14
1532067887274,-44,-128,-31,-2,-3,-5,-8,-26
1532067887279,17,117,23,12,5,-3,-6,-14
1532067887284,4,16,4,19,29,7,12,10
1532067887289,13,45,22,-5,-7,1,6,13
1532067887294,1,-40,-24,9,16,-2,-1,-2
1532067887299,-5,11,23,-23,-87,-12,0,-7
1532067887304,-44,-117,-92,-3,-8,-5,-9,-10
1532067887309,40,127,2,4,2,-2,-3,0
1532067887314,-8,-55,96,5,-5,1,1,21
1532067887319,-19,-112,-93,19,45,1,-7,-24
1532067887324,30,127,30,1,-2,-1,1,-4
1532067887329,0,4,22,-25,-15,2,6,10
1532067887334,19,88,22,7,22,8,6,12
1532067887339,-3,-19,21,5,6,3,8,12
1532067887344,10,12,0,2,-9,-3,1,1
1532067887349,-13,-47,-1,20,14,0,-9,-13
1532067887354,-4,-29,-21,-28,-13,-5,-6,-15
1532067887359,-1,-20,-8,-1,10,1,-3,-5
1532067887364,9,17,8,7,-10,2,8,21
1532067887369,-14,-38,52,3,11,1,6,-19
1532067887374,-7,-32,-44,-12,-10,-6,-7,-19
1532067887379,0,7,-6,36,10,-3,-4,-12
1532067887384,10,25,7,-52,-8,0,-13,0
1532067887389,-6,30,-6,-43,-21,-4,8,26
1532067887394,-24,-85,-40,2,-11,-4,-2,3
1532067887399,-4,3,9,36,11,2,-5,-18
1532067887404,14,20,14,14,-7,-4,7,37
1532067887409,1,-4,3,27,39,7,1,-32
1532067887414,27,36,-1,20,22,-2,1,44
1532067887419,-45,-8,27,-22,-16,4,-4,-40
1532067887424,10,5,-1,4,-5,2,19,112
1532067887429,-7,-19,-63,-16,-25,-4,-12,-34
1532067887434,1,20,15,25,14,3,8,14
1532067887439,6,8,-8,13,34,1,-11,-17
1532067887444,0,15,73,8,8,1,2,2
1532067887449,-10,-33,-51,1,7,2,4,35
1532067887454,-4,4,-55,-62,-39,-10,-15,-20
1532067887459,-2,11,83,-31,-14,-6,-4,39
1532067887464,-5,-12,-50,16,-6,-4,-13,-50
1532067887469,4,-6,46,22,12,5,7,26
1532067887474,0,24,2,32,7,3,1,-25
1532067887479,8,-3,-5,-28,-4,0,5,19
1532067887484,-4,15,3,-3,7,2,-4,-20
1532067887489,-10,-56,49,20,27,6,6,-6
1532067887494,0,14,-29,-10,-44,-5,2,2
1532067887499,-7,-2,13,10,-10,-5,-8,2
1532067887504,-7,-5,17,-5,6,-1,-1,0
1532067887509,5,-9,-35,-25,-11,-5,-1,-34
1532067887514,-7,7,13,7,13,3,2,-23
1532067887519,12,-1,-32,-45,-3,-1,-7,-5
1532067887524,-7,10,11,15,10,2,-3,-34
1532067887529,4,-6,-3,-22,-15,-2,2,30
1532067887534,-32,3,45,62,21,0,-1,13
1532067887539,-1,-25,-69,-34,-42,-14,-6,-19
1532067887544,2,-4,-27,-8,-2,0,1,10
1532067887549,2,7,-14,1,-11,1,2,3
1532067887554,12,11,30,5,11,7,4,-3
1532067887559,-1,18,37,28,23,4,2,18
1532067887564,-9,-12,-43,-28,-26,-9,-12,-17
1532067887569,-3,-6,-12,2,-9,-1,2,-9
1532067887574,1,7,-6,-8,6,0,-6,-14
1532067887579,-2,-13,20,18,1,4,8,16
1532067887584,9,3,2,-23,-10,-4,2,3
1532067887589,-16,-2,-11,-6,-11,-3,14,-1
1532067887594,20,-2,20,3,11,3,-18,2
1532067887599,2,-3,-63,-25,-26,-7,-5,-16
1532067887604,-1,-2,9,15,6,4,9,-2
1532067887609,2,12,8,19,6,-3,-10,9
1532067887614,1,4,1,-11,0,-3,1,-1
1532067887619,4,12,12,15,16,7,8,5
1532067887624,14,31,26,4,3,-3,0,-10
1532067887629,11,53,28,11,-1,5,17,40
1532067887634,-21,-67,2,-11,-7,-2,2,2
1532067887639,-1,18,-33,8,8,-9,-30,-46
1532067887644,-15,-3,2,-12,-12,-1,4,-7
1532067887649,-2,-46,39,2,-5,-4,-18,-22
1532067887654,42,127,59,-4,-9,4,14,24
1532067887659,-44,-127,-12,-4,6,8,22,25
1532067887664,-15,39,-49,-5,1,-6,-11,-3
1532067887669,-3,56,-7,-1,-3,-7,-21,-21
1532067887674,-13,31,-16,-10,-9,-4,-3,1
1532067887679,42,102,32,4,1,5,10,8
1532067887684,-4,-18,42,11,6,-1,-2,-17
1532067887689,12,-7,-5,4,4,4,13,32
1532067887694,-20,-37,-40,-17,-11,-8,-23,-41
1532067887699,11,61,6,1,-3,0,4,20
1532067887704,-40,-104,-20,-6,2,-1,-8,-25
1532067887709,-9,14,-32,-8,-7,-8,-11,-13
1532067887714,46,89,4,-3,-4,3,11,25
1532067887719,-2,-51,24,6,6,5,17,24
1532067887724,-1,-64,-35,5,5,-5,-13,-7
1532067887729,6,19,3,5,-2,0,1,-3
1532067887734,-4,-16,-19,-2,0,3,13,5
1532067887739,4,43,16,7,2,0,-7,-12
1532067887744,19,38,18,5,3,3,7,20
1532067887749,-6,-29,-35,-8,-4,1,-1,-6
1532067887754,-8,-17,-2,-3,-3,-4,-4,-2
1532067887759,-4,-1,-16,-2,1,1,-4,-6
1532067887764,4,0,5,4,3,3,4,3
1532067887769,-7,-12,-8,-8,-4,-3,-12,-11
1532067887774,-4,-15,-7,3,3,0,6,7
1532067887779,0,-16,1,4,3,-2,2,11
1532067887784,-6,9,-5,-13,-10,-8,-16,-13
1532067887789,7,1,13,-4,-7,0,4,3
1532067887794,-3,-25,5,1,1,4,10,15
1532067887799,-17,-29,-23,-9,-2,-7,-18,-26
1532067887804,11,18,12,1,-4,1,7,5
1532067887809,-2,2,-10,-5,-3,-3,-4,2
1532067887814,-9,-27,-16,1,2,0,-2,-10
1532067887819,1,10,-2,-3,-3,2,4,6
1532067887824,9,37,4,3,1,1,4,10
1532067887829,-7,-9,27,7,3,0,-6,-8
1532067887834,-4,-35,-30,1,7,1,0,-11
1532067887839,4,0,12,15,31,4,2,-3
1532067887844,1,5,-22,-25,-46,-7,-2,4
1532067887849,-1,-4,11,1,-8,3,6,3
1532067887854,-1,10,21,6,-3,0,-4,3
1532067887859,-8,3,-6,2,-5,-3,-12,-13
1532067887864,4,11,14,12,27,7,5,1
1532067887869,-3,-19,11,-2,-3,-6,0,0
1532067887874,-4,-13,-75,-13,-7,-3,-2,-4
1532067887879,-1,-12,17,9,2,-2,-2,-2
1532067887884,3,9,18,4,4,2,2,4
1532067887889,-7,0,-2,-7,-4,0,-1,-3
1532067887894,-2,-7,4,-3,-1,-2,-4,-4
1532067887899,3,1,14,5,-12,-2,0,0
1532067887904,2,4,-6,-9,7,2,1,3
1532067887909,-1,0,-8,7,23,2,-2,3
1532067887914,-6,-4,-10,-7,-19,-1,-3,-9
1532067887919,0,0,-5,-7,-8,-3,-1,2
1532067887924,1,16,24,5,-4,-1,3,3
1532067887929,-2,-34,-18,1,2,-1,0,0
1532067887934,-2,1,3,6,8,-3,-8,-11
1532067887939,-2,-4,4,-12,-8,-2,-2,0
1532067887944,-4,8,-12,4,2,1,1,-2
1532067887949,-4,-40,-7,1,-2,-1,2,-4
1532067887954,4,15,13,-2,-1,-2,-1,1
1532067887959,1,-7,19,8,-3,1,1,4
1532067887964,2,18,8,25,9,2,0,-2
1532067887969,0,16,8,-38,-8,-3,-2,-1
1532067887974,-4,-14,-8,-9,-10,-5,-7,2
1532067887979,5,37,-5,-3,4,0,0,6
1532067887984,-6,-47,-77,0,1,-2,-4,-18
1532067887989,3,3,41,25,1,1,1,1
1532067887994,-4,-12,9,-14,3,-2,-1,-5
1532067887999,0,1,-16,-6,-4,-1,0,3
1532067888004,0,2,-13,-7,-4,-3,-6,-3
1532067888009,2,12,-19,-4,-3,1,-2,-2
1532067888014,3,17,9,0,1,-1,0,0
1532067888019,-7,10,7,5,1,3,2,-2
1532067888024,-3,-37,1,-4,-3,-2,1,4
1532067888029,-2,2,-28,-2,0,-2,-3,-6
1532067888034,-13,-2,21,3,-2,0,3,0
1532067888039,23,3,-7,0,-2,-1,-1,1
1532067888044,9,35,15,1,1,1,-1,-1
1532067888049,-7,-15,1,4,-2,1,-8,-11
1532067888054,6,3,-2,5,1,-1,-3,-2
1532067888059,-5,-11,-19,-7,-2,-1,0,-1
1532067888064,0,10,15,-8,-2,-2,2,2
1532067888069,5,4,7,3,-2,0,2,7
1532067888074,3,3,3,2,0,-1,-2,0
1532067888079,-7,-13,-6,-6,-2,-1,0,-2
1532067888084,3,13,-55,-4,1,-3,-4,-3
1532067888089,-8,-19,35,4,-1,2,8,9
1532067888094,-4,-8,6,-1,-1,-3,-4,-3
1532067888099,-4,1,-6,-1,-2,0,4,1
1532067888104,0,6,6,-1,1,-2,-1,0
1532067888109,5,25,30,5,-2,0,-5,2
1532067888114,2,-26,-2,2,1,2,6,2
1532067888119,-4,0,-63,-5,-3,-1,-3,-5
1532067888124,4,26,65,4,0,-1,0,-4
1532067888129,-1,-3,-4,3,7,3,5,7
1532067888134,-5,-11,-23,3,0,-3,-2,0
1532067888139,-2,10,7,1,0,-1,-7,-6
1532067888144,-6,-25,0,4,-1,-2,-3,-2
1532067888149,2,32,-2,2,-5,1,9,2
1532067888154,-1,12,-29,-1,8,-3,-11,-11
1532067888159,9,15,33,12,-19,1,14,22
1532067888164,8,24,39,14,96,17,24,26
1532067888169,-20,-37,-43,-31,-91,-18,-37,-34
1532067888174,-3,4,-30,-4,-45,-3,-7,-4
1532067888179,-4,-31,35,12,32,-1,-3,-9
1532067888184,0,-9,23,2,-29,3,4,11
1532067888189,7,7,22,11,28,7,15,10
1532067888194,0,6,5,-13,12,-1,-2,-2
1532067888199,-6,-11,-3,2,1,0,-3,-6
1532067888204,6,0,7,5,1,3,5,4
1532067888209,-3,-27,-7,10,24,3,3,2
1532067888214,-4,18,-16,-10,-20,-4,-7,-8
1532067888219,2,3,20,9,31,4,4,2
1532067888224,-5,-26,-31,-14,-14,-6,-4,-5
1532067888229,1,15,-43,1,0,-6,-3,2
1532067888234,8,13,30,17,31,13,12,13
1532067888239,1,27,18,-5,-4,-8,-2,1
1532067888244,-6,-57,-15,-28,-58,0,-2,-5
1532067888249,8,35,12,11,39,-1,-3,-6
1532067888254,3,-12,32,28,104,11,5,5
1532067888259,-7,7,-48,-58,-95,-17,-8,0
1532067888264,2,10,51,29,9,6,6,3
1532067888269,2,13,17,6,21,2,2,-3
1532067888274,1,30,-3,-13,15,-3,-5,-3
1532067888279,-5,-15,8,-19,18,0,-5,-3
1532067888284,-4,-11,-44,-17,-61,-6,6,10
1532067888289,-7,-28,-21,9,1,-6,-10,-11
1532067888294,-3,-5,-30,2,-8,3,5,0
1532067888299,7,11,-47,9,24,4,3,2
1532067888304,-12,-15,85,11,0,-3,-9,-21
1532067888309,7,17,-54,-5,23,4,-1,-1
1532067888314,-7,-16,9,1,-35,-7,-4,-1
1532067888319,2,-25,54,-5,-29,3,9,4
1532067888324,-1,11,-55,-31,3,-4,-1,11
1532067888329,-7,-2,19,31,10,-6,-9,9
1532067888334,2,-34,-26,-45,-27,-5,-8,-5
1532067888339,-8,0,13,27,-7,1,4,2
1532067888344,10,-26,-29,21,51,5,4,-9
1532067888349,4,7,-1,-33,-13,-3,2,-3
1532067888354,-2,17,-3,-3,-30,-5,-1,4
1532067888359,5,23,16,12,12,2,-1,-2
1532067888364,-1,-6,-6,11,6,-1,-3,-6
1532067888369,1,24,8,-8,3,0,0,0
1532067888374,-4,-41,-16,7,-18,-4,-2,-4
1532067888379,0,13,-38,-18,2,-7,-8,-7
1532067888384,1,6,55,8,10,3,1,5
1532067888389,5,-1,24,6,3,0,3,2
1532067888394,1,36,17,-7,-5,-4,-2,-1
1532067888399,-8,-30,7,-1,-9,-1,-1,-1
1532067888404,14,10,25,15,22,2,1,7
1532067888409,-2,2,-43,-11,-9,-1,1,-5
1532067888414,0,-3,13,4,6,2,0,-3
1532067888419,-4,-5,-27,-12,-31,-7,-3,1
1532067888424,-2,3,-6,-35,-20,-3,-2,4
1532067888429,2,-8,-1,38,75,7,4,-6
1532067888434,4,25,-3,-44,-87,-14,-3,3
1532067888439,-6,-12,-4,-2,-28,1,-3,4
1532067888444,-7,-24,-24,26,12,2,-3,-3
1532067888449,3,8,17,-45,10,2,1,-1
1532067888454,-6,-15,-20,40,34,3,0,-2
1532067888459,5,23,32,-7,30,4,1,0
1532067888464,-8,15,-11,1,-27,-5,-3,1
1532067888469,-3,-28,-16,6,-33,-3,-3,-3
1532067888474,8,16,-15,-14,0,1,0,-2
1532067888479,-4,-11,1,8,8,1,1,-2
1532067888484,-6,-10,4,8,21,3,1,-3
1532067888489,1,0,-11,4,-9,0,1,-2
1532067888494,-3,-6,9,-12,-6,-5,-4,0
1532067888499,-3,-2,-29,-16,11,0,-1,-4
1532067888504,-2,-3,-10,22,14,2,4,1
1532067888509,-7,-1,-68,-5,-38,-13,-10,0
1532067888514,-7,-17,8,-7,-8,2,1,0
1532067888519,2,4,20,11,16,3,-1,-2
1532067888524,1,15,4,-24,-10,-1,-4,-1
1532067888529,-1,8,-4,-17,2,-1,1,-1
1532067888534,-2,-16,-13,20,10,-2,-3,-1
1532067888539,-3,-26,8,23,14,0,0,2
1532067888544,0,21,-4,-8,-16,1,3,-1
1532067888549,-1,-36,-3,-7,1,-1,-1,-4
1532067888554,3,26,18,13,14,0,1,2
1532067888559,0,-14,-29,-13,-29,-4,-3,-6
1532067888564,-9,-48,33,2,1,-1,1,1
1532067888569,1,-10,3,4,4,0,-1,-3
1532067888574,-2,-5,29,11,3,1,0,-2
1532067888579,6,34,-24,-9,2,-4,-2,4
1532067888584,1,30,27,9,4,-1,-2,2
1532067888589,-9,-42,-6,4,1,-1,1,-3
1532067888594,1,0,-27,-8,1,3,1,-1
1532067888599,0,1,15,-1,0,2,4,5
1532067888604,-3,16,11,6,1,-2,-4,-2
1532067888609,3,27,-19,-2,0,1,-2,2
1532067888614,11,7,-20,-12,-5,-6,-4,-1
1532067888619,-12,0,22,4,-4,-3,-3,-4
1532067888624,-3,-11,-15,0,0,-1,-4,-3
1532067888629,2,6,7,-7,-1,-2,-2,3
1532067888634,-3,8,48,2,-1,5,2,2
1532067888639,6,0,1,1,-3,-2,0,2
1532067888644,6,13,-28,-4,0,-1,3,3
1532067888649,-3,7,11,2,2,2,0,-1
1532067888654,-7,-19,-9,-3,-5,-6,-11,-9
1532067888659,5,2,-1,-2,0,2,8,4
1532067888664,-14,-9,-6,-1,-1,-5,-5,-4
1532067888669,1,6,-2,-6,-3,0,-4,-1
1532067888674,1,-1,-3,5,3,4,7,4
1532067888679,-3,-6,-30,-7,0,0,-5,-9
1532067888684,12,8,25,2,-3,-3,1,11
1532067888689,-9,23,-5,-4,0,-1,-1,-4
1532067888694,-5,-7,-54,-3,30,2,-4,-11
1532067888699,-2,-5,25,5,-10,3,4,6
1532067888704,4,-3,-13,-11,-21,-2,1,3
1532067888709,2,9,18,7,7,5,8,7
1532067888714,2,11,30,2,4,1,-1,-1
1532067888719,-12,-11,-16,-16,-2,-8,-18,-19
1532067888724,2,7,-11,9,16,1,-5,-9
1532067888729,5,-2,17,15,2,-1,2,2
1532067888734,2,2,-28,-21,-13,-1,7,9
1532067888739,-2,-4,21,3,3,1,1,6
1532067888744,-1,0,16,6,1,1,-5,-1
1532067888749,-4,-11,-13,-37,-3,-6,-2,-5
1532067888754,1,-2,14,23,42,7,5,0
1532067888759,1,6,-19,-20,-62,-10,-8,-7
1532067888764,0,4,-7,5,2,0,-2,-3
1532067888769,3,6,33,17,19,7,4,5
1532067888774,-9,-18,-30,-70,-48,-13,-7,-5
1532067888779,2,-1,-12,7,22,2,4,-4
1532067888784,1,4,-1,-2,9,3,2,3
1532067888789,-1,-3,11,5,-8,-2,-5,-1
1532067888794,0,-1,23,10,-6,-1,-6,-9
1532067888799,-2,-7,10,8,7,0,6,8
1532067888804,3,4,-7,2,19,-1,1,-4
1532067888809,3,6,9,6,21,2,-1,-1
1532067888814,-2,2,-40,-15,-64,-7,-2,2
1532067888819,-2,3,25,14,13,3,-3,0
1532067888824,-4,-8,-18,-17,0,0,0,-6
1532067888829,3,4,11,30,59,4,0,1
1532067888834,-5,-18,-31,-23,-39,-8,2,-5
1532067888839,1,4,-18,-5,25,3,7,0
1532067888844,-6,-9,-7,-3,10,-2,-13,1
1532067888849,2,-2,-13,-12,-29,-4,0,-4
1532067888854,3,15,39,38,55,6,1,3
1532067888859,-2,3,4,1,-9,0,-3,-1
1532067888864,1,-3,15,3,-6,0,6,1
1532067888869,4,10,0,17,21,4,0,-5
1532067888874,4,33,30,18,31,1,-3,3
1532067888879,-12,-65,-10,-30,-68,-9,3,2
1532067888884,1,16,-61,-2,4,-3,-4,-7
1532067888889,-4,-11,-6,-8,-29,-2,0,2
1532067888894,-2,0,62,29,32,4,0,2
1532067888899,5,23,-3,7,19,-3,-6,-1
1532067888904,-1,-10,43,3,-17,-2,0,1
1532067888909,0,8,-21,-13,-14,-7,-5,-2
1532067888914,-3,-20,19,0,-5,4,3,1
1532067888919,0,-2,3,18,27,5,2,-2
1532067888924,-2,-9,3,-1,-5,-1,-1,1
1532067888929,-5,4,-24,-7,-38,-8,-3,0
1532067888934,-4,-14,11,-9,-2,-2,-4,3
1532067888939,0,13,-9,-13,-14,-4,-5,-5
1532067888944,-1,-10,-22,-4,16,3,2,0
1532067888949,4,3,33,-5,5,0,2,2
1532067888954,-3,-2,-26,-1,-13,2,1,-7
1532067888959,4,3,-18,5,7,1,0,0
1532067888964,-1,12,29,-2,-4,-1,-1,1
1532067888969,-2,17,27,11,25,4,0,-2
1532067888974,-3,-42,-23,-9,9,-2,-3,-4
1532067888979,-3,4,-22,-19,-57,-8,-4,-2
1532067888984,0,-6,-10,6,-14,0,1,-1
1532067888989,-2,1,-5,-1,1,-4,-2,1
1532067888994,3,16,15,6,14,0,1,-1
1532067888999,3,5,18,21,43,5,-1,-4
1532067889004,-4,0,-13,-6,10,-6,-2,3
1532067889009,-3,-6,7,-1,-28,-1,-3,1
1532067889014,0,9,-19,-1,7,-2,-1,-2
1532067889019,-1,-7,-8,-9,-6,-1,1,-3
1532067889024,2,0,23,15,17,4,4,-1
1532067889029,2,4,-82,-12,5,-1,-5,-7
1532067889034,-3,7,28,-4,-22,-3,-2,0
1532067889039,-1,19,51,-1,24,0,2,1
1532067889044,-1,2,-4,7,-6,-3,0,0
1532067889049,-2,-12,-5,-13,4,0,-1,0
1532067889054,3,29,-12,-2,-15,-4,-2,3
1532067889059,-10,-63,-16,-10,-6,-2,-4,1
1532067889064,6,27,-19,-10,-1,-3,-2,-10
1532067889069,2,30,26,8,9,2,3,3
1532067889074,-17,-79,-17,-1,1,-3,-1,-4
1532067889079,5,19,-1,-12,-41,-4,0,3
1532067889084,-3,-24,-1,3,-11,0,1,-1
1532067889089,2,-6,10,5,48,3,1,0
1532067889094,4,32,-7,-26,-45,-8,-2,2
1532067889099,-2,11,-9,-3,-40,-6,-3,-2
1532067889104,-6,-15,-6,18,-18,1,-2,-3
1532067889109,4,4,12,-1,6,1,4,1
1532067889114,-1,4,-1,-16,9,-2,-6,0
1532067889119,-8,-27,9,-2,28,2,1,0
1532067889124,0,10,-3,4,-12,-3,-2,-6
1532067889129,2,-12,25,-23,-6,4,5,-5
1532067889134,-6,-10,-14,44,-7,-4,-4,0
1532067889139,-2,15,-57,-16,6,-5,-7,0
1532067889144,1,0,69,11,15,2,5,6
1532067889149,-7,-16,2,14,-8,0,2,-4
1532067889154,7,3,0,27,4,6,5,-4
1532067889159,4,19,-4,-21,23,1,-1,-2
1532067889164,-2,-4,-9,5,-11,-6,-3,5
1532067889169,-19,-18,-11,-20,-28,-7,-10,-7
1532067889174,-4,5,9,-19,1,-3,-2,-1
1532067889179,5,10,16,44,17,4,4,-2
1532067889184,4,-3,-26,-28,4,1,0,-4
1532067889189,-2,-13,-14,-8,-20,-4,-2,1
1532067889194,0,10,-4,2,16,4,1,-1
1532067889199,-3,-7,17,10,38,5,1,-9
1532067889204,11,4,-17,5,-9,0,1,14
1532067889209,-1,-10,-11,2,-52,-8,-3,2
1532067889214,-3,-5,-5,-3,0,-1,2,1
1532067889219,7,18,14,-56,14,4,4,4
1532067889224,-11,-4,9,13,-18,-12,-13,-3
1532067889229,2,-4,-17,-3,16,1,-3,4
1532067889234,2,0,-13,-8,-1,2,1,3
1532067889239,-5,18,5,17,-10,-3,-1,-12
1532067889244,1,-25,-52,-9,12,3,4,-11
1532067889249,1,17,-3,-2,-1,-1,0,-2
1532067889254,-3,-20,22,25,6,0,-1,-1
1532067889259,4,16,-1,1,9,2,-2,5
1532067889264,-5,10,-26,-9,-5,-3,-4,-2
1532067889269,4,9,2,9,4,1,1,0
1532067889274,4,19,38,39,30,8,6,6
1532067889279,16,-5,-27,1,-16,-4,0,-11
1532067889284,-17,-22,-18,-15,-38,-12,-13,-4
1532067889289,2,-10,8,21,6,2,0,-2
1532067889294,2,17,1,-9,-17,-4,-2,0
1532067889299,-1,24,38,35,14,3,3,4
1532067889304,0,-33,-17,1,14,3,4,-4
1532067889309,2,6,11,-2,49,4,1,-3
1532067889314,-5,-5,-39,-43,-85,-13,-4,4
1532067889319,-2,-2,-1,-3,-23,-2,-1,1
1532067889324,-3,16,13,-20,1,3,1,-3
1532067889329,-7,-24,23,13,6,0,-1,-6
1532067889334,2,-7,-12,9,28,-1,4,-4
1532067889339,-6,-15,-11,-27,-4,-4,-4,2
1532067889344,8,30,-6,3,9,3,-2,0
1532067889349,-2,-26,32,-31,-12,-1,3,1
1532067889354,-1,-1,40,117,28,5,2,-6
1532067889359,-12,-24,-43,-89,-49,-13,-13,0
1532067889364,-5,-1,23,63,3,-2,-7,8
1532067889369,4,15,-5,27,5,3,1,2
1532067889374,7,9,-10,5,13,5,4,-5
1532067889379,2,-9,24,41,34,5,7,-4
1532067889384,5,7,15,-27,6,4,9,-2
1532067889389,0,2,-27,-21,-63,-6,2,7
1532067889394,-4,-5,4,-30,11,-1,-4,3
1532067889399,-2,-7,-5,27,12,1,-1,0
1532067889404,1,2,16,-13,13,-2,1,-8
1532067889409,-6,-8,-50,6,-1,0,-6,-10
1532067889414,-9,-19,43,-22,-3,-3,-11,-12
1532067889419,2,6,-5,6,-15,2,1,7
1532067889424,-4,-9,52,9,4,0,-1,0
1532067889429,6,15,11,1,12,-1,1,4
1532067889434,0,-2,-45,-27,-7,-4,2,5
1532067889439,-5,2,18,28,16,4,2,2
1532067889444,5,13,13,-6,0,3,6,2
1532067889449,2,2,6,3,-16,-5,-1,-3
1532067889454,-3,0,-6,-5,15,2,1,2
1532067889459,2,-10,-9,28,9,1,-1,2
1532067889464,1,27,-15,-7,-9,-1,1,-1
1532067889469,-4,-9,28,-2,7,3,-4,-2
1532067889474,-3,-13,-18,-16,0,0,-2,-2
1532067889479,0,-1,6,6,-11,-2,-1,-3
1532067889484,1,-3,7,34,7,1,-1,1
1532067889489,-4,1,0,-1,8,-3,-3,-1
1532067889494,3,4,-11,0,16,4,2,-3
1532067889499,0,-8,4,3,7,-1,-2,-1
1532067889504,-3,-5,-21,-9,-5,-4,-1,0
1532067889509,-3,-2,-6,-2,-18,1,0,1
1532067889514,-4,3,-9,8,-8,-5,-8,-1
1532067889519,1,1,3,6,33,0,-2,-1
1532067889524,2,-8,4,-9,-10,-1,2,-2
1532067889529,12,16,-4,6,36,0,-2,3
1532067889534,-4,100,34,-3,-65,-3,4,-1
1532067889539,-19,-89,-53,-14,-7,-6,-8,-19
1532067889544,9,52,-81,-13,-8,-7,-15,-10
1532067889549,-13,-42,30,-5,-5,0,5,3
1532067889554,9,12,5,-10,20,3,1,9
1532067889559,5,38,26,12,-6,-1,4,5
1532067889564,8,-12,-15,-4,0,3,3,5
1532067889569,2,104,-13,-5,4,-3,-2,4
1532067889574,-15,-112,-40,-5,-6,-2,-3,-20
1532067889579,4,22,-27,1,11,0,1,-5
1532067889584,-5,-13,-1,-32,-41,-3,0,-1
1532067889589,-8,-1,31,25,-4,-1,-2,2
1532067889594,-7,-20,-8,4,-5,-4,-5,-9
1532067889599,15,12,2,9,-1,5,6,27
1532067889604,4,1,45,-16,15,2,2,5
1532067889609,2,18,19,-8,-7,0,-1,1
1532067889614,3,24,-12,-8,8,1,0,0
1532067889619,-2,-21,4,14,20,-1,-2,-12
1532067889624,-5,10,1,17,-9,1,4,4
1532067889629,4,-22,-15,12,2,3,3,-5
1532067889634,-4,4,12,37,6,-4,-7,-10
1532067889639,10,100,32,-56,-14,-3,-3,15
1532067889644,-25,-111,7,25,-9,-5,-8,-1
1532067889649,2,-25,-9,-21,10,0,0,-3
1532067889654,1,-12,-39,-45,-24,-8,-6,-6
1532067889659,0,23,31,28,-3,4,1,-1
1532067889664,4,31,38,-11,32,9,7,0
1532067889669,-2,-17,-61,79,-8,-3,2,5
1532067889674,7,16,49,-28,11,6,2,-2
1532067889679,-10,-20,-13,-4,-33,-10,-9,-15
1532067889684,0,-7,3,0,7,2,1,5
1532067889689,4,-2,21,17,26,5,0,1
1532067889694,-2,3,-19,-5,0,-6,-8,-5
1532067889699,-8,-28,-17,-7,-15,-3,-3,-7
1532067889704,0,4,1,3,15,1,0,-2
1532067889709,4,10,14,-18,25,0,3,3
1532067889714,1,-1,2,-16,-53,-1,3,10
1532067889719,-3,-6,-24,-18,-39,-5,-3,0
1532067889724,3,10,-2,9,16,4,4,-3
1532067889729,-6,-10,0,-25,-16,-6,-1,-4
1532067889734,2,-6,9,24,55,6,-1,0
1532067889739,4,2,-2,13,44,5,4,-4
1532067889744,-3,2,-14,12,-85,-10,0,3
1532067889749,-9,-2,-11,-30,-20,-5,-11,-5
1532067889754,-3,-25,3,11,6,1,1,1
1532067889759,3,3,27,-9,13,6,3,2
1532067889764,-4,-1,-1,4,18,-1,-5,-4
1532067889769,6,-1,-15,-23,-4,0,0,-8
1532067889774,1,4,-1,7,0,1,3,5
1532067889779,-9,-9,9,28,-2,-4,-5,5
1532067889784,1,-4,-6,-4,62,8,2,-6
1532067889789,-3,1,-5,-38,-87,-10,-4,0
1532067889794,3,13,2,13,10,3,5,6
1532067889799,-3,-18,-6,11,-13,-4,-1,-5
1532067889804,-2,10,10,6,31,4,-3,-2
1532067889809,3,-4,2,21,46,2,2,-5
1532067889814,14,1,-4,-25,-14,3,12,40
1532067889819,-12,-8,-14,-23,-17,-8,-10,-32
1532067889824,-5,-13,-2,-9,4,-2,-5,-4
1532067889829,0,1,6,-3,17,-1,-2,-3
1532067889834,0,-8,3,0,-67,-1,3,-2
1532067889839,4,-5,6,10,0,6,3,12
1532067889844,6,13,9,0,23,2,3,0
1532067889849,-10,-17,-6,18,-44,-11,-11,-8
1532067889854,-4,9,14,-2,40,-1,-8,-4
1532067889859,4,13,1,-3,25,3,3,7
1532067889864,-3,-8,-8,-18,-62,-5,4,-3
1532067889869,1,-2,10,-4,16,2,3,1
1532067889874,-6,0,11,4,3,-7,-9,-7
1532067889879,-1,-1,30,22,23,3,-2,1
1532067889884,16,24,9,-18,83,7,5,3
1532067889889,0,40,-14,0,-101,-17,-8,6
1532067889894,-18,-65,24,-8,34,4,-4,-9
1532067889899,4,-9,26,-21,-43,-3,1,-6
1532067889904,6,-3,-23,20,20,0,1,-2
1532067889909,9,63,80,17,24,0,-2,11
1532067889914,-18,-19,25,-8,-4,-5,-2,-4
1532067889919,-1,-48,-32,15,13,0,9,12
1532067889924,-1,3,-25,-4,-24,-1,2,-5
1532067889929,-8,-23,-57,-20,18,-5,-28,-40
1532067889934,11,45,-20,-6,-13,-2,-2,-5
1532067889939,-4,6,-5,-30,9,1,-2,-2
1532067889944,-1,-9,2,30,16,0,1,16
1532067889949,-1,-5,-26,-42,-74,-7,9,16
1532067889954,0,13,-15,11,35,4,-1,-1
1532067889959,-2,-11,-2,-32,-41,-6,-1,-4
1532067889964,-2,3,7,10,-13,-2,2,-7
1532067889969,-3,-18,22,29,67,13,3,2
1532067889974,-1,17,-21,-11,-54,-8,-8,2
1532067889979,8,45,-8,-15,-13,1,4,11
1532067889984,-13,-23,-51,-12,-18,-7,-12,-7
1532067889989,-9,-73,5,-2,21,8,6,-8
1532067889994,9,-13,-7,20,13,-2,3,-1
1532067889999,3,34,-7,26,16,-2,-5,-2
1532067890004,15,59,20,0,-9,-3,-6,4
1532067890009,11,50,2,2,15,2,8,19
1532067890014,-36,-34,17,2,28,-1,-6,-13
1532067890019,-9,-34,-53,-4,-45,-9,-12,-23
1532067890024,-4,-9,-8,-3,-15,-1,-3,-5
1532067890029,6,-10,-16,-7,8,3,4,2
1532067890034,20,53,23,6,9,5,6,15
1532067890039,-5,13,20,6,11,1,0,3
1532067890044,-10,-51,47,7,27,7,4,-1
1532067890049,5,15,-11,-29,-45,-3,4,5
1532067890054,2,3,-4,0,-2,1,1,-2
1532067890059,-7,-21,10,16,21,1,-2,0
1532067890064,9,9,-13,-24,-2,0,-2,2
1532067890069,-5,-10,6,3,2,-1,-3,0
1532067890074,-2,-10,-10,21,-1,-2,1,-5
1532067890079,2,-11,-14,-8,-7,-2,-2,2
1532067890084,1,29,41,22,7,-1,-4,1
1532067890089,-8,-11,1,17,23,6,4,-7
1532067890094,-1,-9,-46,-34,-26,-8,-5,-7
1532067890099,3,-7,-21,-15,20,-3,-5,-6
1532067890104,2,6,-6,1,-13,-1,-2,3
1532067890109,0,-2,90,16,12,7,5,-1
1532067890114,1,-3,-22,-40,-23,-1,3,-8
1532067890119,-2,-2,9,41,28,1,-1,0
1532067890124,5,5,5,-30,13,-3,-2,-4
1532067890129,-5,-7,-23,14,-17,-5,-5,4
1532067890134,-3,-3,-3,6,-10,0,-1,0
1532067890139,6,40,21,11,5,0,1,11
1532067890144,-9,-10,5,9,7,3,2,-12
1532067890149,9,-52,-11,8,-1,3,8,32
1532067890154,-18,-10,8,-41,2,-7,-9,-44
1532067890159,-8,-30,-43,9,-10,-2,-8,-29
1532067890164,6,26,14,3,-4,0,0,-1
1532067890169,4,37,7,-4,4,3,5,22
1532067890174,9,23,2,20,-2,2,30,33
1532067890179,-6,3,24,-32,2,0,-32,-49
1532067890184,-16,-27,-72,7,-17,-9,-11,-24
1532067890189,-2,2,20,9,-1,-3,-8,-13
1532067890194,1,-14,-21,7,-4,1,0,7
1532067890199,11,38,31,19,2,3,15,27
1532067890204,-3,2,0,-12,6,4,12,17
1532067890209,-10,-67,1,-17,5,-4,-23,-28
1532067890214,1,-8,-42,22,-20,-5,-6,-2
1532067890219,-3,-13,12,-7,2,2,4,12
1532067890224,0,-2,13,6,22,-4,-12,-3
1532067890229,3,24,-15,-14,-32,-3,9,4
1532067890234,2,5,11,-3,-1,1,-3,-10
1532067890239,2,0,-15,-10,-4,0,2,6
1532067890244,2,-6,8,6,6,-1,3,7
1532067890249,-5,13,-6,-4,9,-3,-3,-11
1532067890254,-2,-8,4,7,69,5,-8,-3
1532067890259,-2,-3,-38,-25,-84,-13,2,7
1532067890264,1,2,3,-3,13,5,4,5
1532067890269,2,10,7,-2,22,2,1,-6
1532067890274,2,7,40,12,-11,-2,-5,-3
1532067890279,-6,-27,18,10,33,5,4,6
1532067890284,5,-4,14,-10,-9,0,-5,-4
1532067890289,2,28,-19,-4,-21,-3,3,8
1532067890294,-5,-7,-4,-13,-1,3,-1,3
1532067890299,3,2,-18,-34,-3,-4,-2,-4
1532067890304,-5,-5,0,19,-11,-3,-4,-1
1532067890309,0,-11,-8,-15,14,2,0,5
1532067890314,4,4,36,29,61,9,-1,-1
1532067890319,-5,0,-24,-8,-87,-9,0,0
1532067890324,-5,-14,-9,0,1,-2,-3,-6
1532067890329,-1,12,-27,-24,-18,-6,-3,4
1532067890334,-2,-12,19,5,-3,0,1,2
1532067890339,-7,-18,7,-2,28,2,0,-1
1532067890344,3,7,38,5,-16,-3,-1,-3
1532067890349,10,19,-10,-11,31,5,1,-1
1532067890354,0,21,40,-5,-12,-2,5,4
1532067890359,-9,-40,-10,11,11,0,-2,-3
1532067890364,5,17,15,8,-21,-1,1,0
1532067890369,-3,-18,-26,18,0,-2,-2,-3
1532067890374,-1,4,-10,-16,-37,-4,-1,1
1532067890379,-4,2,8,-14,13,-1,-7,-6
1532067890384,0,-9,-4,-7,23,8,7,-1
1532067890389,1,9,-4,30,-6,-3,3,9
1532067890394,3,-10,3,-10,8,5,4,2
1532067890399,-1,-7,11,73,54,4,0,-1
1532067890404,-6,-10,-33,-54,-86,-9,-8,-6
1532067890409,-3,1,-10,-9,3,-2,-6,-3
1532067890414,0,-3,-16,-11,-49,-4,-4,1
1532067890419,7,24,27,9,-20,2,8,2
1532067890424,0,-9,-32,6,70,1,-2,-7
1532067890429,-5,-1,-29,-25,-74,-8,-4,3
1532067890434,-1,8,13,16,30,-2,-8,0
1532067890439,-4,-9,-20,-5,-1,-2,-3,0
1532067890444,4,1,7,-8,16,1,-1,-5
1532067890449,9,13,42,20,38,8,9,0
1532067890454,-4,-6,-36,-5,9,-3,2,-1
1532067890459,-1,2,32,-9,16,1,-3,1
1532067890464,-3,-8,-26,-10,-4,-4,0,-3
1532067890469,0,4,-22,-3,-13,-1,-2,-3
1532067890474,-2,4,36,17,23,2,-3,3
1532067890479,5,3,-8,-1,-2,1,1,-8
1532067890484,-1,2,-2,-7,-45,-3,-2,6
1532067890489,-5,-30,6,28,60,6,4,-1
1532067890494,1,3,2,-27,-83,-8,1,2
1532067890499,-4,-6,-19,-26,3,-2,-5,-2
1532067890504,-3,-9,-24,18,20,-5,-11,-7
1532067890509,4,13,24,-5,-37,2,1,-1
1532067890514,-2,-6,-11,7,13,1,0,-5
1532067890519,0,-5,17,-12,28,2,0,1
1532067890524,2,8,25,-1,-11,0,2,5
1532067890529,-2,-3,-6,5,-1,-2,-4,-2
1532067890534,-1,-5,21,-17,6,1,3,-2
1532067890539,-3,-2,2,9,15,2,1,-1
1532067890544,-1,-2,-12,0,-8,-2,0,0
1532067890549,-3,-15,-41,-6,0,-3,-2,-5
1532067890554,3,20,12,13,8,2,-1,2
1532067890559,-5,-2,-5,-28,8,-8,-5,0
1532067890564,3,-9,1,16,17,5,2,-2
1532067890569,-2,1,-16,7,-10,-2,3,-6
1532067890574,-13,-24,4,9,-37,-10,-13,4
1532067890579,-1,9,10,-5,13,-1,-3,4
1532067890584,5,11,-12,6,25,4,-1,-3
1532067890589,1,3,5,-14,-1,2,4,-1
1532067890594,-2,1,2,22,9,6,1,-4
1532067890599,2,-8,15,0,12,-5,-2,0
1532067890604,0,0,22,4,16,-2,-4,-4
1532067890609,4,24,-11,-1,-30,-3,0,0
1532067890614,-10,-36,-9,-17,12,1,2,6
1532067890619,-1,3,-22,-27,-20,-2,-3,-6
1532067890624,1,8,-2,7,-4,-2,1,-1
1532067890629,1,4,15,27,24,-1,-4,2
1532067890634,3,9,2,-19,13,3,4,-5
1532067890639,-3,-8,-4,2,-51,-6,-1,2
1532067890644,-3,-8,-21,-31,3,-3,-6,1
1532067890649,-6,-29,17,13,-8,2,4,3
1532067890654,5,7,14,-5,14,3,1,-1
1532067890659,0,-7,-12,-19,16,3,0,-4
1532067890664,-3,7,8,33,1,-4,-3,-2
1532067890669,4,7,4,-6,16,3,-2,-6
1532067890674,-1,-12,-21,-41,-21,-5,4,3
1532067890679,-6,-9,-9,-19,-15,-2,-1,1
1532067890684,4,26,0,9,6,4,2,-1
1532067890689,1,0,6,23,13,0,-1,-4
1532067890694,-2,-6,-10,4,12,0,0,-3
1532067890699,12,35,54,-9,2,-1,1,1
1532067890704,-2,4,-23,-10,-30,-5,-2,1
1532067890709,-6,-9,20,27,11,-2,-6,-1
1532067890714,-3,-27,0,-17,0,-3,-1,18
1532067890719,-8,27,-7,-6,-12,-4,-6,-4
1532067890724,-5,-16,11,3,10,3,2,-5
1532067890729,9,-1,-4,0,28,5,5,-7
1532067890734,12,23,-12,-19,51,9,8,-7
1532067890739,-7,1,-25,-4,-90,-10,0,10
1532067890744,-15,-67,5,6,3,-3,-5,-4
1532067890749,5,23,-16,-11,4,-1,-3,0
1532067890754,-4,-23,22,29,19,4,4,1
1532067890759,6,14,0,-7,29,4,3,-2
1532067890764,4,16,40,13,-2,-1,0,-1
1532067890769,0,-2,-48,-9,-8,-2,-2,-2
1532067890774,-2,2,29,-19,-14,-1,-1,9
1532067890779,-13,54,15,10,5,0,-1,-8
1532067890784,-13,-91,-59,14,-17,-7,-9,-17
1532067890789,0,-10,14,-12,12,-1,-6,2
1532067890794,4,16,3,3,-17,-2,1,0
1532067890799,4,0,-18,-15,1,2,0,4
1532067890804,9,40,7,24,17,2,2,3
1532067890809,2,13,-6,-12,8,5,7,0
1532067890814,-5,-15,-14,10,-18,-2,-1,-8
1532067890819,-3,-20,18,25,8,-5,-6,4
1532067890824,5,28,-8,-13,3,2,0,2
1532067890829,2,-1,32,-10,-8,-2,0,3
1532067890834,-3,17,7,7,31,2,-2,0
1532067890839,-7,-45,-30,5,1,1,-1,-5
1532067890844,8,19,5,1,-4,1,-1,2
1532067890849,-5,-1,-9,0,-31,0,5,2
1532067890854,3,11,5,0,9,-2,-6,-9
1532067890859,5,-15,-10,-1,18,2,1,2
1532067890864,-12,-8,-11,-8,21,0,-4,-2
1532067890869,1,4,7,8,-6,-3,-1,-3
1532067890874,-4,-11,-15,-10,1,-5,-5,-3
1532067890879,-3,-21,18,-7,-12,0,2,-2
1532067890884,8,27,-7,-4,-27,0,1,6
1532067890889,-4,4,5,13,12,1,-1,0
1532067890894,-3,-17,-11,-4,-20,-1,0,-3
1532067890899,0,-13,-38,5,36,-2,-4,-2
1532067890904,0,8,19,-13,-57,-7,0,2
1532067890909,1,7,2,0,10,-2,-2,0
1532067890914,-4,-2,-10,-10,12,1,1,3
1532067890919,-3,-13,24,-20,-39,-3,-3,-6
1532067890924,2,0,-8,5,11,0,0,0
1532067890929,0,3,27,12,6,0,-3,0
1532067890934,-3,-8,-64,-10,-13,-2,-2,-2
1532067890939,4,19,-2,2,17,2,3,-2
1532067890944,-2,-9,13,-9,22,4,0,-1
1532067890949,-5,-15,-26,2,-36,-7,-4,-1
1532067890954,2,-4,10,29,5,0,0,1
1532067890959,9,9,30,-4,9,0,-2,3
1532067890964,-3,51,4,2,-21,-5,-1,5
1532067890969,-14,-81,-3,-9,33,1,-4,-12
1532067890974,0,-4,1,12,-28,1,3,-4
1532067890979,-5,-9,-4,-10,-8,-4,-4,-7
1532067890984,13,46,17,19,21,0,-2,15
1532067890989,0,40,27,0,36,0,3,1
1532067890994,-10,-26,-20,-21,-35,-5,-3,1
1532067890999,17,-16,37,20,11,5,12,32
1532067891004,-10,25,-10,-34,12,1,-6,-31
1532067891009,-12,-67,-44,50,10,0,-4,-23
1532067891014,2,-4,-8,-41,-5,-6,-6,-8
1532067891019,7,41,-2,1,-23,-2,-2,-11
1532067891024,0,13,13,-4,3,0,3,56
1532067891029,5,-50,-5,5,7,3,9,92
1532067891034,-13,21,-3,-1,-2,-4,-14,-5
1532067891039,-13,-22,-24,13,-5,-5,-6,-21
1532067891044,-2,0,-29,-6,5,0,-2,-24
1532067891049,12,50,19,-23,-11,1,3,8
1532067891054,2,-11,17,16,4,3,5,16
1532067891059,-1,8,4,-1,35,-1,-5,-3
1532067891064,-1,-31,-9,-8,-45,-3,4,7
1532067891069,9,54,-37,4,-10,0,-1,-30
1532067891074,0,-36,-7,13,-3,0,6,-1
1532067891079,-21,-29,28,2,29,4,-6,-10
1532067891084,-7,-36,-20,20,-23,-5,-4,-11
1532067891089,-4,4,0,-28,-10,-1,-2,-7
1532067891094,11,37,8,11,3,-1,1,-6
1532067891099,9,6,-41,-24,2,6,6,7
1532067891104,11,12,21,9,17,1,5,9
1532067891109,-9,73,40,-1,-8,0,-2,-6
1532067891114,-15,-81,-14,-3,11,1,-3,-4
1532067891119,6,37,-69,-46,-37,-8,-6,-10
1532067891124,27,73,35,8,12,5,4,6
1532067891129,-38,-48,17,6,0,0,0,-8
1532067891134,28,123,21,-2,9,1,2,10
1532067891139,-39,-128,6,0,-9,-1,-5,-31
1532067891144,-20,-42,-26,12,8,0,-7,-29
1532067891149,19,46,-6,-27,-1,1,1,-6
1532067891154,-1,-3,18,5,-7,0,0,14
1532067891159,19,41,33,5,-4,1,15,26
1532067891164,1,14,0,0,7,-2,-8,2
1532067891169,1,-27,-10,-4,5,2,4,5
1532067891174,-7,-11,14,-21,-13,-4,-2,-5
1532067891179,35,90,14,12,0,0,2,20
1532067891184,-12,30,22,-6,3,3,5,7
1532067891189,-51,-93,-50,-4,-6,-8,2,-45
1532067891194,23,95,-14,9,5,-2,-33,-4
1532067891199,-15,48,29,-4,-10,-1,3,-3
1532067891204,12,-59,-64,0,2,0,1,4
1532067891209,26,46,31,1,-2,3,2,19
1532067891214,-15,-28,2,-4,-3,-1,9,-3
1532067891219,-1,-13,-6,5,3,0,-1,2
1532067891224,4,5,19,-1,3,-4,-1,5
1532067891229,11,14,-5,2,-2,0,-2,-3
1532067891234,-8,-5,-12,-1,1,-1,6,-7
1532067891239,-4,-15,-5,-3,-3,0,-5,6
1532067891244,-11,-23,-8,-1,-4,-10,-14,-34
1532067891249,4,18,-70,-6,-1,-5,-12,-12
1532067891254,2,-14,72,16,8,9,11,11
1532067891259,-5,-18,-7,0,-1,2,3,4
1532067891264,-15,-44,-16,-2,1,0,1,-9
1532067891269,15,35,16,0,1,5,9,19
1532067891274,4,3,-1,2,-2,1,10,16
1532067891279,-9,-19,-11,-5,-4,-8,-22,-31
1532067891284,-7,-12,16,4,0,0,-5,-11
1532067891289,7,11,19,2,0,-2,-7,-4
1532067891294,-1,-2,-7,-1,0,-1,7,4
1532067891299,-1,1,-8,4,4,1,9,14
1532067891304,7,13,12,-2,-3,1,0,6
1532067891309,-2,-5,-22,-9,4,2,1,4
1532067891314,-3,9,19,-1,-1,-1,-2,-6
1532067891319,0,-5,74,11,15,-3,-4,2
1532067891324,4,10,19,14,9,3,3,-2
1532067891329,-6,-1,10,3,-19,-5,5,17
1532067891334,4,14,16,-5,-8,-3,-4,3
1532067891339,3,-39,-38,8,31,5,4,9
1532067891344,-21,-20,-19,-17,-45,-9,-9,-23
1532067891349,4,10,49,17,23,4,-2,-7
1532067891354,-2,-2,-35,-15,-12,-4,-3,-7
1532067891359,9,20,7,11,22,4,2,6
1532067891364,-1,-12,-2,11,20,2,3,12
1532067891369,3,-5,-22,-18,-19,-5,-5,-8
1532067891374,5,-4,18,5,4,0,-1,2
1532067891379,-9,7,-3,-7,-23,-2,4,-3
1532067891384,4,8,-19,-8,2,0,2,3
1532067891389,0,3,11,3,-8,-3,-7,-7
1532067891394,-2,-12,-6,3,5,0,0,0
1532067891399,0,7,3,2,-7,-1,-1,0
1532067891404,1,-5,-19,-5,-9,-6,-4,1
1532067891409,2,12,40,6,13,3,0,5
1532067891414,-7,-3,-12,-10,-5,-5,-11,-21
1532067891419,4,16,17,2,-3,-2,-2,2
1532067891424,-4,-8,38,8,6,5,11,14
1532067891429,-4,-11,-21,-2,-4,-7,-15,-17
1532067891434,-5,-9,2,7,10,1,1,-3
1532067891439,-5,-6,-36,-9,-35,-9,-11,-16
1532067891444,9,3,-11,-2,19,5,8,11
1532067891449,2,9,15,-12,-22,1,7,11
1532067891454,-6,-3,-17,-3,17,2,-6,-7
1532067891459,0,-5,-16,12,-22,-3,2,7
1532067891464,7,11,19,4,20,6,12,13
1532067891469,-5,-14,-42,-33,-26,-8,-8,-11
1532067891474,-6,-7,-10,10,-3,-3,-11,-19
1532067891479,-2,-1,5,6,14,4,6,6
1532067891484,6,2,5,-4,3,-4,-8,-3
1532067891489,-2,6,12,14,11,6,12,-4
1532067891494,-7,-5,-3,-18,-5,-3,2,12
1532067891499,2,-5,-13,-11,1,-2,-28,-13
1532067891504,5,8,-3,1,-6,-1,11,-5
1532067891509,12,-8,-23,-1,6,-4,-13,-9
1532067891514,-8,8,-52,9,-1,0,-4,-5
1532067891519,3,-10,5,-4,0,4,11,0
1532067891524,-9,-41,31,-5,-14,-2,-4,5
1532067891529,40,10,31,11,7,8,67,29
1532067891534,20,38,-13,-10,-4,-7,-39,-21
1532067891539,-36,27,-27,-11,-1,-6,-34,-48
1532067891544,-2,-65,-79,-3,2,-1,6,-16
1532067891549,-21,31,17,4,8,0,-18,-30
1532067891554,10,-23,46,-1,-3,3,31,35
1532067891559,22,48,39,-12,-25,-2,2,23
1532067891564,-19,0,-8,-5,-13,-2,-8,7
1532067891569,-1,-23,-41,1,3,0,4,20
1532067891574,16,42,52,16,25,7,-1,0
1532067891579,18,35,25,14,55,12,30,31
1532067891584,-51,-64,-38,-49,-88,-19,-8,-4
1532067891589,5,43,-18,14,11,0,-21,-19
1532067891594,-21,-37,-11,-3,-12,-6,-1,-21
1532067891599,-4,-9,-9,9,23,2,-5,-14
1532067891604,25,43,76,17,26,9,9,21
1532067891609,1,-6,15,-4,-2,-2,-7,4
1532067891614,-12,-16,-9,2,-12,-4,-1,1
1532067891619,3,-18,-12,-10,-13,-3,13,12
1532067891624,11,36,-5,7,12,2,-11,-11
1532067891629,-10,-17,-43,-6,-10,-4,-5,1
1532067891634,1,-3,-5,2,6,3,9,5
1532067891639,-8,-36,-1,-7,-18,-3,-4,-4
1532067891644,6,22,-7,-2,8,0,-3,-9
1532067891649,-8,4,2,0,10,-1,-8,-3
1532067891654,1,-6,12,5,-3,1,8,11
1532067891659,0,-3,-21,-9,-13,-2,0,-5
1532067891664,-1,29,-1,10,11,-2,-5,-5
1532067891669,3,-13,-34,-2,2,-4,-2,4
1532067891674,-6,-8,31,3,29,4,0,-3
1532067891679,-8,-13,-6,-37,-70,-17,-3,1
1532067891684,6,22,3,11,12,4,2,4
1532067891689,1,15,16,3,1,2,1,8
1532067891694,0,-26,-25,-10,-19,-4,-4,-11
1532067891699,-6,-16,-20,10,30,0,-4,-6
1532067891704,3,6,4,-2,0,-2,-1,-1
1532067891709,-3,-1,15,1,-1,1,-1,1
1532067891714,1,25,-7,2,23,0,1,5
1532067891719,0,-22,6,-10,-39,-1,2,3
1532067891724,4,5,-13,2,-1,-2,-5,-7
1532067891729,-4,-10,15,1,2,-2,-2,2
1532067891734,1,12,7,0,-4,0,1,-1
1532067891739,-2,8,-8,2,9,2,1,-4
1532067891744,0,6,-3,0,0,-3,-1,0
1532067891749,-5,-5,13,1,5,-1,-4,-1
1532067891754,-2,3,-8,-8,-15,-3,1,1
1532067891759,-1,4,-5,3,11,-2,1,-2
1532067891764,-1,-3,14,2,1,-2,-2,-1
1532067891769,-1,2,16,4,10,5,2,-1
1532067891774,5,6,-29,-14,-23,-5,1,5
1532067891779,-24,-32,46,19,20,4,3,-4
1532067891784,9,32,-16,-2,7,-1,-5,-5
1532067891789,-5,-16,87,10,1,2,5,4
1532067891794,3,17,-7,-7,-11,-3,-4,-3
1532067891799,7,0,97,26,18,6,6,11
1532067891804,-2,-1,-14,-22,-46,-5,0,1
1532067891809,1,8,0,24,101,2,-3,-8
1532067891814,-10,-3,-48,-64,-101,-11,-1,2
1532067891819,-2,6,-23,-4,33,-2,-11,-10
1532067891824,4,6,12,29,8,4,6,5
1532067891829,-1,-22,-3,-22,73,0,-5,-17
1532067891834,-9,-11,-14,-34,-47,-7,-1,5
1532067891839,6,24,-12,27,15,5,2,11
1532067891844,-5,-12,-33,-28,-8,-4,-3,0
1532067891849,-3,-10,-61,-26,-61,-10,-6,-9
1532067891854,5,1,42,38,55,4,1,-3
1532067891859,6,24,-44,-11,-13,-2,-5,-11
1532067891864,-1,-5,125,29,27,6,6,8
1532067891869,-1,11,27,8,-16,1,2,9
1532067891874,-6,-17,-18,13,2,-1,-4,-8
1532067891879,9,18,-24,5,-6,-2,-1,0
1532067891884,0,1,-61,-5,14,1,-1,-7
1532067891889,-7,-6,-5,-20,-33,-2,-1,0
1532067891894,1,-3,22,31,16,4,3,6
1532067891899,5,-14,-9,-2,25,-2,8,4
1532067891904,-7,-7,-3,-1,-12,-6,-15,-18
1532067891909,-4,-2,-7,10,-20,-1,-9,-1
1532067891914,4,5,-16,18,54,11,4,-5
1532067891919,-4,-13,-27,-33,-58,-8,5,4
1532067891924,-5,-2,-8,-1,8,1,3,8
1532067891929,2,7,-13,3,-15,0,2,6
1532067891934,2,-3,24,15,24,0,-3,-5
1532067891939,1,-1,-26,-9,5,2,-2,-5
1532067891944,0,-4,14,3,4,-4,-3,-4
1532067891949,-6,5,45,-7,-16,-5,-11,0
1532067891954,-3,-11,-17,-2,11,0,5,0
1532067891959,-1,1,-7,-11,-13,-4,-5,-5
1532067891964,3,-16,3,-4,-2,0,3,3
1532067891969,2,8,-12,13,6,0,-2,-1
1532067891974,3,5,0,-7,-1,-1,-2,3
1532067891979,-8,-12,29,6,3,-2,-3,-2
1532067891984,-3,-6,-12,-4,-12,-1,0,-5
1532067891989,5,-1,-16,-8,-11,-2,4,2
1532067891994,-3,9,-3,-6,-11,0,1,-4
1532067891999,3,-3,-27,6,8,0,-1,-4
1532067892004,9,-1,0,12,45,6,6,3
1532067892009,-3,-9,0,2,54,3,3,-3
1532067892014,-10,-6,-36,-52,-66,-20,-8,2
1532067892019,-7,-9,1,6,19,-1,-7,-6
1532067892024,0,2,-5,-2,30,-3,-4,-1
1532067892029,1,14,5,-12,-28,-2,0,4
1532067892034,2,7,5,22,40,5,-1,-4
1532067892039,-2,-4,24,-7,-4,-2,2,2
1532067892044,-2,9,-14,-3,-31,-3,-2,0
1532067892049,5,2,7,30,12,5,5,0
1532067892054,-1,-3,8,-74,-11,-4,-4,-2
1532067892059,-3,-5,1,15,-20,-4,-8,1
1532067892064,-1,1,-30,-1,10,6,3,-3
1532067892069,0,3,0,6,-4,2,3,-1
1532067892074,-1,-6,1,30,-3,0,-2,-4
1532067892079,0,9,-13,-10,5,-1,-4,-1
1532067892084,3,1,18,33,47,6,4,-2
1532067892089,-3,-10,-13,-27,-56,-12,-3,-3
1532067892094,-7,-16,-4,-13,-71,-6,-2,3
1532067892099,-3,-4,4,-26,3,0,-5,1
1532067892104,0,8,4,1,-7,-2,-3,1
1532067892109,1,-4,5,18,29,4,3,-1
1532067892114,4,-1,13,23,47,4,2,-2
1532067892119,1,4,7,46,-12,1,4,-1
1532067892124,-6,-3,-8,-46,-10,-4,-4,5
1532067892129,-4,-12,-27,-14,-27,-9,-8,-13
1532067892134,4,3,9,-7,18,0,-2,-3
1532067892139,1,2,0,-4,9,2,1,-2
1532067892144,-2,1,19,19,-8,-1,-1,-3
1532067892149,0,0,-2,-11,6,2,3,2
1532067892154,-3,-5,-5,24,2,0,-1,1
1532067892159,-3,-6,-8,0,-3,-5,-5,-1
1532067892164,2,2,5,-28,-6,0,0,0
1532067892169,-3,2,-6,-11,-14,-3,-4,2
1532067892174,3,6,9,1,36,7,6,-2
1532067892179,5,11,-9,5,4,5,5,1
1532067892184,-7,-10,-15,-60,-11,-9,-9,-6
1532067892189,0,-1,21,8,15,2,1,4
1532067892194,-2,0,-3,-9,-54,-6,-2,3
1532067892199,6,31,-23,58,26,3,2,-6
1532067892204,-5,-22,-12,-34,-9,-1,7,-5
1532067892209,-2,-1,-13,21,5,0,-4,0
1532067892214,0,0,15,26,25,4,-1,-1
1532067892219,-2,-6,-3,-43,-13,-4,0,-4
1532067892224,4,6,13,37,11,3,-1,2
1532067892229,0,0,-10,-7,-5,1,1,0
1532067892234,1,2,10,31,12,3,4,1
1532067892239,-6,-15,-21,-83,-12,-4,-4,-1
1532067892244,0,1,8,18,3,1,-1,-1
1532067892249,-1,-1,3,2,-15,-3,-1,1
1532067892254,0,4,5,21,10,0,-1,1
1532067892259,1,-2,24,60,19,3,3,2
1532067892264,2,2,8,-2,-10,-2,0,-4
1532067892269,-3,-3,-29,-49,-12,-7,-7,-1
1532067892274,-1,2,-16,22,41,3,-3,1
1532067892279,-7,-23,-6,-71,-54,-7,-2,1
1532067892284,-1,4,4,44,-10,0,0,3
1532067892289,2,1,4,9,6,0,0,-3
1532067892294,3,3,19,21,19,0,-2,-4
1532067892299,6,29,-23,-3,28,4,1,-3
1532067892304,-8,-32,13,-2,4,-8,-4,-2
1532067892309,0,1,24,39,-13,5,1,4
1532067892314,3,-5,45,-66,-5,0,1,-2
1532067892319,-4,2,10,26,-19,-4,-3,3
1532067892324,3,-6,-64,3,19,1,-1,-2
1532067892329,-1,6,-35,8,78,4,-2,-3
1532067892334,-6,-10,-61,-37,-109,-19,-2,-2
1532067892339,0,2,70,35,37,10,6,5
1532067892344,-1,5,-7,24,1,-3,-2,2
1532067892349,-6,-18,-36,-81,-14,-6,-6,-8
1532067892354,1,6,-17,47,28,4,-1,-3
1532067892359,-3,-13,-18,-23,-5,-2,-5,-3
1532067892364,1,7,11,27,-11,1,1,0
1532067892369,0,-3,33,24,-2,4,7,3
1532067892374,-2,23,13,-43,5,0,-3,-3
1532067892379,-7,-36,5,0,-15,-6,-4,-1
1532067892384,1,0,30,23,38,4,-4,-2
1532067892389,1,9,-30,-35,-34,-7,1,1
1532067892394,-8,-13,10,-9,-64,-4,-5,3
1532067892399,0,9,23,23,-11,-1,0,3
1532067892404,-1,-5,24,42,23,2,2,0
1532067892409,-3,-3,3,-15,-27,-6,-2,-2
1532067892414,-1,-2,-44,-11,-11,0,0,-2
1532067892419,-3,-3,-5,2,5,3,0,1
1532067892424,-1,1,-28,-4,6,-3,-3,-2
1532067892429,-3,-7,-9,13,4,1,0,-1
1532067892434,1,2,-11,-29,23,0,-3,-2
1532067892439,-1,-7,-17,-3,-19,-3,-3,-2
1532067892444,1,1,31,-7,-11,-3,-2,0
1532067892449,2,22,-78,40,56,4,-5,-7
1532067892454,-11,-27,11,-38,-81,-8,2,6
1532067892459,2,7,12,4,-13,2,2,-1
1532067892464,2,-2,-10,-12,4,1,-1,-4
1532067892469,-2,-2,-8,-18,-17,-6,-5,1
1532067892474,5,-1,-49,22,44,4,-1,-7
1532067892479,-1,-8,-2,-6,16,-1,3,1
1532067892484,-1,12,-11,9,-13,0,1,0
1532067892489,-2,-6,32,-7,5,-1,-3,0
1532067892494,3,10,20,11,11,4,2,-1
1532067892499,-4,-19,8,-5,-32,-1,3,1
1532067892504,1,4,-6,14,13,3,3,-1
1532067892509,-1,-5,18,1,9,0,0,2
1532067892514,4,8,1,29,18,5,0,-3
1532067892519,-3,5,6,-14,18,-4,-5,-1
1532067892524,-3,-7,2,-49,-22,-6,-4,-1
1532067892529,-1,-6,9,3,0,1,-1,1
1532067892534,1,8,-12,11,-5,-2,-1,-2
1532067892539,4,-28,33,31,28,6,2,3
1532067892544,-3,-9,21,19,19,3,1,1
1532067892549,-2,-7,25,-6,0,1,2,-1
1532067892554,-3,1,-11,-11,-29,-7,-4,1
1532067892559,0,6,-24,9,41,5,0,-4
1532067892564,0,-4,-3,-19,-51,-7,-3,1
1532067892569,-1,0,4,6,-3,1,0,-1
1532067892574,3,9,40,18,34,0,-1,0
1532067892579,-5,-4,-15,-17,-18,-3,-4,-2
1532067892584,4,6,-1,12,25,2,0,1
1532067892589,-1,10,-8,-6,-6,1,0,-2
1532067892594,0,2,1,3,6,0,-1,2
1532067892599,-3,-1,19,-12,-12,-2,-1,-2
1532067892604,2,-2,-14,30,23,0,-3,-3
1532067892609,0,-1,7,6,15,2,-1,1
1532067892614,0,1,11,3,-26,-6,-4,-2
1532067892619,-1,-4,-11,-4,-6,0,0,0
1532067892624,2,8,43,20,23,0,1,-4
1532067892629,0,-5,-4,-23,-26,-3,2,0
1532067892634,3,10,-10,-7,10,3,2,-3
1532067892639,-4,-14,17,20,-5,-3,-2,2
1532067892644,1,4,-7,-11,-4,0,-1,-1
1532067892649,0,-3,-1,10,-2,-3,-1,-1
1532067892654,1,-1,14,-19,7,0,2,-1
1532067892659,4,12,-22,-22,-28,-6,-3,-3
1532067892664,-4,0,-6,23,19,1,0,1
1532067892669,5,21,54,3,7,-2,-5,1
1532067892674,-6,-7,-23,-7,-12,-2,1,-1
1532067892679,0,2,-2,-10,5,3,0,0
1532067892684,-5,-4,-49,-14,-2,-2,-5,-2
1532067892689,-1,-5,-6,-9,1,-3,-3,-1
1532067892694,-2,0,20,-8,-9,1,1,4
1532067892699,-1,6,-32,-3,8,-1,-3,-8
1532067892704,-1,3,-7,-2,-6,-2,0,1
1532067892709,-3,-13,-23,0,5,1,3,1
1532067892714,4,3,27,-9,1,-2,-1,1
1532067892719,1,0,13,6,6,3,2,1
1532067892724,-1,-5,-7,11,-6,3,-2,-2
1532067892729,1,7,17,9,-7,-2,1,-1
1532067892734,1,-1,-17,-27,-2,0,0,-1
1532067892739,-5,-12,-2,15,-4,-3,-5,0
1532067892744,2,2,-12,0,26,-1,-3,-4
1532067892749,-2,-7,-18,-23,-44,-5,-1,1
1532067892754,0,-1,6,12,-25,2,3,1
1532067892759,3,1,49,-2,1,-1,1,2
1532067892764,-3,3,-24,-7,-24,-3,-3,1
1532067892769,-2,-5,5,2,3,1,-3,0
1532067892774,0,3,9,-1,4,-5,-5,0
1532067892779,1,1,-15,10,1,1,0,-2
1532067892784,1,8,-17,-23,1,-3,1,-2
1532067892789,2,6,7,12,-7,-2,-2,-3
1532067892794,-4,-10,-9,5,4,1,-2,0
1532067892799,-2,1,-8,-3,-21,-4,-1,3
1532067892804,0,-2,9,13,5,1,2,2
1532067892809,3,4,6,22,12,1,0,-4
1532067892814,-2,-3,-26,-48,0,-1,1,-3
1532067892819,-8,-11,-24,14,23,-5,-6,-2
1532067892824,0,-3,20,21,-50,-2,3,0
1532067892829,1,2,9,-30,35,4,4,-2
1532067892834,0,-2,1,-16,-57,-5,-1,3
1532067892839,-7,-8,-3,-17,-2,-1,-4,-1
1532067892844,1,2,-7,6,16,0,-4,0
1532067892849,4,2,-5,26,32,2,-1,-5
1532067892854,-8,-22,9,-6,-25,-4,3,3
1532067892859,4,5,-4,-13,-3,0,0,-1
1532067892864,-4,-12,-5,11,10,-1,0,0
1532067892869,0,4,-6,-9,8,-3,-3,-2
1532067892874,1,4,-15,-2,-11,-2,-2,-5
1532067892879,-4,-9,-68,-3,-7,0,-2,-5
1532067892884,2,4,8,5,11,0,-1,0
1532067892889,-5,-12,-21,-19,-17,-3,-3,0
1532067892894,2,0,21,17,23,-1,-3,-1
1532067892899,-1,-4,69,6,6,2,3,2
1532067892904,0,-3,-7,-6,-7,1,-1,3
1532067892909,0,27,-5,-14,-11,-1,-4,-2
1532067892914,-6,5,-20,13,-2,0,-1,1
1532067892919,6,-2,-22,4,8,1,5,-2
1532067892924,-5,-8,64,-2,13,-3,-4,0
1532067892929,-5,-26,-14,-10,38,-1,-4,-1
1532067892934,-2,18,-13,-10,-48,-7,-5,1
1532067892939,2,11,22,12,28,6,4,0
1532067892944,1,-10,-41,-6,-2,-2,-1,-6
1532067892949,-1,-7,-78,-5,-41,-7,-5,-4
1532067892954,4,3,17,20,106,17,3,-1
1532067892959,-7,-25,26,-19,-71,-8,2,3
1532067892964,0,-3,11,21,61,7,3,7
1532067892969,-3,15,18,-13,-63,-6,-3,6
1532067892974,1,2,-21,19,24,0,-1,-4
1532067892979,16,46,18,4,14,1,-1,-7
1532067892984,-8,-30,36,-16,-2,-4,-7,-6
1532067892989,11,36,86,43,-10,6,14,9
1532067892994,-5,5,57,-55,-1,-4,-3,-1
1532067892999,27,16,64,10,14,1,-2,18
1532067893004,-8,77,-19,3,-7,-1,2,14
1532067893009,-60,-103,-5,11,11,1,-6,-28
1532067893014,27,76,-78,-19,-14,-7,-8,-20
1532067893019,0,82,-7,10,-5,6,9,4
1532067893024,-6,-95,-42,-6,9,2,-1,-17
1532067893029,14,54,-17,3,-24,-8,-8,10
1532067893034,-2,42,72,-8,-2,2,8,15
1532067893039,-30,-95,-49,-20,6,-6,-8,-3
1532067893044,25,56,8,14,-7,2,2,4
1532067893049,-11,-36,10,3,18,7,8,2
1532067893054,7,-78,-19,45,24,3,5,-17
1532067893059,5,80,-32,29,-36,-18,-17,10
1532067893064,-24,-54,8,11,-30,-3,-5,7
1532067893069,-4,-1,-19,-79,-1,-2,-7,-11
1532067893074,8,22,-4,-13,13,2,2,4
1532067893079,-6,-36,-5,-23,12,8,9,-8
1532067893084,1,27,-23,46,-9,-6,-4,-5
1532067893089,17,25,45,49,7,-3,-2,9
1532067893094,-11,-36,9,-4,-6,0,3,1
1532067893099,-17,-20,-10,11,-8,-4,-7,-8
1532067893104,10,1,0,-53,-4,-1,1,-2
1532067893109,20,35,12,95,7,-1,4,6
1532067893114,-16,-7,-21,-81,-19,-8,-7,-2
1532067893119,-2,-29,-10,47,4,2,2,-6
1532067893124,-9,12,-42,-91,-6,-14,-16,-5
1532067893129,0,-9,-20,-18,-27,1,1,1
1532067893134,-4,-8,-26,22,-30,-5,0,1
1532067893139,3,1,3,4,16,3,1,-4
1532067893144,5,13,2,11,-16,4,5,-5
1532067893149,-4,2,-13,-31,26,-5,-4,-9
1532067893154,-6,-19,6,12,5,-4,-9,2
1532067893159,4,14,20,-8,6,3,3,1
1532067893164,-3,-2,-19,-2,-31,0,3,-8
1532067893169,3,-12,-7,-23,3,-2,-2,0
1532067893174,0,0,18,36,-4,2,0,8
1532067893179,1,-7,-5,-9,44,4,2,-4
1532067893184,-1,4,4,-2,-38,-5,1,4
1532067893189,1,-3,2,-11,20,0,-6,-4
1532067893194,0,2,-1,15,11,-3,3,2
1532067893199,0,8,-5,-14,2,-2,-1,-6
1532067893204,1,4,3,20,-20,5,2,6
1532067893209,3,10,31,-8,-14,3,6,8
1532067893214,-2,-8,-47,-9,8,-3,-5,-8
1532067893219,-13,-25,-21,2,35,-1,-13,-18
1532067893224,-5,-3,12,-11,-53,-4,-4,-1
1532067893229,2,12,-34,-9,-8,1,-2,-3
1532067893234,0,4,57,17,47,4,6,3
1532067893239,-3,-15,-55,-23,-68,-7,3,5
1532067893244,1,14,20,15,18,5,2,5
1532067893249,-2,0,17,-9,-12,-1,-3,-6
1532067893254,11,29,-30,-3,6,-8,-8,-4
1532067893259,-15,-17,-12,-9,-12,0,4,1
1532067893264,-26,-64,-2,1,7,0,-3,-15
1532067893269,3,-4,-6,10,1,3,3,1
1532067893274,18,21,-9,0,16,1,2,10
1532067893279,14,64,23,1,-18,-4,2,3
1532067893284,-10,-51,18,8,-10,-1,2,4
1532067893289,-17,-31,19,-2,17,2,0,-9
1532067893294,-10,-27,-29,0,-13,-3,-7,-25
1532067893299,24,67,23,-3,6,1,-1,16
1532067893304,27,79,3,3,23,7,8,15
1532067893309,20,86,24,27,-25,-2,4,23
1532067893314,-46,-104,-15,-45,-3,1,3,6
1532067893319,-38,-73,-38,18,12,-4,-5,-50
1532067893324,17,72,-1,7,-2,-6,-20,8
1532067893329,4,16,9,-46,12,10,10,1
1532067893334,-9,12,-21,55,-10,-9,-18,-27
1532067893339,10,26,28,-61,-4,0,2,10
1532067893344,5,55,15,30,-5,0,5,7
1532067893349,-23,-76,4,25,1,0,11,10
1532067893354,20,-2,15,-31,11,5,-6,9
1532067893359,-1,-21,-2,16,5,-2,1,-7
1532067893364,16,28,58,15,8,-1,0,-3
1532067893369,4,41,29,0,-5,3,3,8
1532067893374,-19,-43,-22,-32,-14,-1,11,2
1532067893379,6,3,-3,-1,2,-4,-9,5
1532067893384,29,100,15,-30,-6,2,-10,7
1532067893389,-19,-59,-22,38,12,0,-5,-2
1532067893394,-10,35,-38,-27,5,-5,-12,-29
1532067893399,-1,18,8,24,-8,-3,4,5
1532067893404,-18,-46,-20,2,-16,-3,4,-2
1532067893409,7,8,21,-37,3,-1,-6,-6
1532067893414,19,59,23,29,18,5,9,9
1532067893419,8,-36,-35,47,6,7,7,-5
1532067893424,-33,-58,-59,-70,-22,-14,-12,-15
1532067893429,-1,-1,-15,-23,-23,-9,-17,0
1532067893434,17,6,6,-30,-16,-4,5,20
1532067893439,-13,2,24,-11,24,3,-5,0
1532067893444,13,-18,-54,34,17,8,16,-8
1532067893449,-1,-7,51,-27,34,2,4,-12
1532067893454,4,17,-13,33,-41,-6,7,3
1532067893459,-1,38,39,16,-4,-1,-14,15
1532067893464,-14,-65,-23,-12,10,-2,-4,-15
1532067893469,15,51,-41,-6,-26,-6,-5,5
1532067893474,-10,-13,66,16,45,9,10,0
1532067893479,-2,-79,-9,-36,-25,-1,37,-15
1532067893484,-15,-12,-17,13,-7,-5,-40,-5
1532067893489,-2,-9,-27,0,-11,-9,-15,-12
1532067893494,11,18,26,28,76,6,0,7
1532067893499,2,52,-1,-32,-100,-12,-4,8
1532067893504,-7,-25,26,-13,5,-1,15,3
1532067893509,5,2,-21,-21,-4,3,4,-6
1532067893514,5,39,30,16,-6,-1,-7,2
1532067893519,-7,-21,-4,18,37,4,-2,2
1532067893524,0,32,65,-10,4,0,7,0
1532067893529,-1,11,-9,34,3,-7,-4,-6
1532067893534,-1,-13,1,34,-16,-1,5,0
1532067893539,3,-10,-17,-59,20,2,-3,-1
1532067893544,1,-14,-35,11,-14,-5,-2,-4
1532067893549,-1,-6,6,6,15,4,2,-1
1532067893554,3,-3,-8,13,-23,-5,-4,0
1532067893559,5,-7,8,4,9,-1,-2,3
1532067893564,0,1,-40,15,24,1,0,-4
1532067893569,-3,-9,17,-45,-17,-1,0,-1
1532067893574,-1,-10,-14,-11,-33,1,3,-2
1532067893579,5,15,4,17,23,-4,-7,-1
1532067893584,0,-2,0,24,54,8,9,0
1532067893589,-4,-12,-23,-1,-22,-10,-4,-3
1532067893594,-2,-4,-15,-14,-12,-6,-5,2
1532067893599,-2,17,-5,2,-8,2,-3,3
1532067893604,-1,3,56,72,17,2,3,5
1532067893609,-8,-18,-95,-84,-14,-9,-7,-11
1532067893614,-1,0,15,-2,-8,-1,0,-1
1532067893619,2,6,4,26,79,3,-2,-1
1532067893624,0,23,32,-16,-72,-5,0,-1
1532067893629,-1,-12,2,19,-4,5,1,1
1532067893634,-4,-5,-36,1,15,3,2,1
1532067893639,-2,-3,-5,1,7,-2,-4,-1
1532067893644,-2,-13,67,-18,13,0,-3,-4
1532067893649,-2,13,4,16,-47,-6,-2,4
1532067893654,4,2,15,-11,28,2,0,-5
1532067893659,0,1,-3,16,5,6,4,5
1532067893664,-3,-6,-55,-28,6,1,1,-1
1532067893669,-6,-15,2,-16,37,-4,-6,-6
1532067893674,0,2,-14,-6,-61,-3,1,2
1532067893679,3,7,13,-3,7,2,0,-5
1532067893684,-1,5,-38,-17,-12,-3,1,-2
1532067893689,4,0,49,37,8,1,5,3
1532067893694,-3,-6,-87,-21,-4,-4,-3,0
1532067893699,-1,10,75,4,0,-2,-6,1
1532067893704,-4,-16,-16,-7,-9,0,2,3
1532067893709,2,7,12,17,-7,3,0,-5
1532067893714,1,-1,2,-5,18,1,-1,-1
1532067893719,-2,-4,-19,3,-33,-3,-1,-3
1532067893724,-1,-3,-1,10,24,-4,-4,0
1532067893729,3,10,28,2,36,2,-1,2
1532067893734,-5,-11,-32,-22,-34,-4,-3,0
1532067893739,-1,14,40,11,-17,1,5,3
1532067893744,-3,-14,33,9,19,0,-1,-1
1532067893749,2,1,2,36,1,-2,0,-2
1532067893754,-1,-16,-17,-32,10,-1,1,-4
1532067893759,-5,-6,-25,-4,0,-2,-4,5
1532067893764,-2,9,13,3,12,-4,-7,-8
1532067893769,-1,4,-40,-23,-34,2,9,11
1532067893774,1,3,29,2,-11,-3,-2,-2
1532067893779,1,-6,-5,16,5,-3,-3,-8
1532067893784,0,-2,12,-17,8,-4,-4,-5
1532067893789,-4,-3,22,-7,-40,-2,-4,-3
1532067893794,0,4,-10,9,5,0,-2,-1
1532067893799,5,11,4,-10,-4,-3,-4,-2
1532067893804,-5,33,15,14,7,6,7,-1
1532067893809,4,-37,30,18,2,3,6,11
1532067893814,-3,-25,-45,-61,15,-5,-4,-8
1532067893819,-5,-9,28,9,-10,4,4,12
1532067893824,-2,-14,-3,14,-19,-1,-1,-1
1532067893829,-7,14,-26,-34,-3,-6,-10,-19
1532067893834,-5,23,-22,29,-16,-9,-11,-4
1532067893839,10,16,-10,-14,36,13,9,-1
1532067893844,8,19,12,-1,0,2,3,18
1532067893849,-16,-53,-43,-15,-20,-7,-4,-9
1532067893854,4,-1,18,-4,31,3,-1,-4
1532067893859,-5,8,-19,21,-59,-11,-6,-4
1532067893864,3,7,7,-12,9,5,2,3
1532067893869,2,17,-10,-3,-8,-5,0,1
1532067893874,0,1,16,8,5,2,-2,-4
1532067893879,0,-3,-1,5,3,-4,-2,-2
1532067893884,1,-13,-25,-10,2,-1,2,-5
1532067893889,2,5,20,6,2,3,4,5
1532067893894,-5,2,28,13,-6,3,0,4
1532067893899,1,-13,15,-4,24,1,1,-7
1532067893904,-2,-12,1,3,-26,-3,-3,-2
1532067893909,-5,2,-24,12,4,-2,-4,2
1532067893914,5,20,25,7,-6,3,5,8
1532067893919,0,3,-6,-21,-1,1,-1,-5
1532067893924,-1,-6,0,0,-7,-3,-2,-2
1532067893929,6,11,41,13,1,3,2,3
1532067893934,3,8,-33,-14,-1,1,4,4
1532067893939,-4,-8,47,9,0,1,-1,0
1532067893944,-1,-14,-44,5,4,-2,0,1
1532067893949,-5,-5,35,-23,-8,-6,-4,-3
1532067893954,-3,-2,18,-7,-6,-3,-3,1
1532067893959,-2,9,22,14,9,2,-1,2
1532067893964,3,1,-29,-16,3,-1,-3,-3
1532067893969,4,6,-33,21,4,5,6,-4
1532067893974,-2,-5,22,-16,57,0,-2,-5
1532067893979,-7,-8,-61,21,-95,-13,-10,3
1532067893984,-5,-19,46,9,9,2,5,1
1532067893989,-2,-3,-41,-10,4,1,1,-2
1532067893994,2,4,24,14,6,3,3,4
1532067893999,-4,-4,-31,-21,-6,-4,-2,-3
1532067894004,1,6,-18,5,3,0,-3,-4
1532067894009,5,14,5,-12,-4,-2,-1,-3
1532067894014,-11,-24,30,29,-20,-2,-4,2
1532067894019,2,-3,-7,-62,16,0,1,-1
1532067894024,-1,-4,-18,-17,-5,-3,0,-4
1532067894029,1,-4,31,18,43,6,-2,-1
1532067894034,0,9,-11,17,-45,-5,-1,-4
1532067894039,2,5,4,10,17,0,-2,2
1532067894044,-2,-3,13,-29,-10,-1,-2,-1
1532067894049,-2,-4,-28,3,17,0,-3,-2
1532067894054,3,3,9,17,-2,-1,0,-1
1532067894059,1,0,4,13,3,2,1,-2
1532067894064,-1,2,-6,-39,18,-4,-6,-2
1532067894069,-2,-3,-10,18,-30,-7,-5,1
1532067894074,-1,3,20,-8,-17,1,1,1
1532067894079,-4,-15,-54,-7,13,0,1,-2
1532067894084,1,15,48,46,4,1,-1,-1
1532067894089,-6,-24,21,-22,-10,-3,-4,4
1532067894094,4,9,-4,-11,-3,-2,-1,-1
1532067894099,19,13,12,73,29,3,3,-1
1532067894104,-8,-1,-11,-54,-16,-5,-3,-4
1532067894109,-6,-4,0,8,-7,2,1,0
1532067894114,2,-5,-6,10,11,1,2,0
1532067894119,-9,-3,19,-26,0,1,1,-1
1532067894124,6,4,-14,25,2,1,0,-3
1532067894129,-1,5,8,3,-7,-1,0,-1
1532067894134,-3,0,-28,-45,0,-1,-1,-3
1532067894139,3,0,17,33,6,-3,-2,7
1532067894144,3,1,9,12,-1,5,13,-10
1532067894149,-6,1,-18,-29,-7,-3,-9,-6
1532067894154,-16,-7,-13,26,-5,-3,-8,-6
1532067894159,20,12,-6,-42,-6,-1,25,4
1532067894164,-14,-6,-8,43,4,-3,-21,-3
1532067894169,11,-2,7,-3,3,3,-4,3
1532067894174,-1,2,10,16,2,1,2,7
1532067894179,-5,-10,11,-19,-6,1,3,-3
1532067894184,0,-12,-43,5,-5,-2,-9,4
1532067894189,1,0,-23,-6,1,-1,14,1
1532067894194,-2,-9,2,1,-3,-3,-5,-3
1532067894199,-6,8,-4,-20,-2,-1,-21,-4
1532067894204,2,-1,-5,4,2,3,14,1
1532067894209,-10,-13,1,-17,-9,-4,-11,-3
1532067894214,4,4,-15,-4,1,-1,8,-1
1532067894219,-9,8,7,13,-6,-5,-2,-1
1532067894224,-4,2,0,-1,-1,-2,-6,-3
1532067894229,8,6,16,23,7,2,3,-2
1532067894234,-6,-16,-4,-62,-19,-6,-1,2
1532067894239,0,2,0,0,11,4,-1,-4
1532067894244,-2,11,-19,-1,-8,-6,-9,4
1532067894249,-5,-14,-2,4,16,-1,-1,-1
1532067894254,5,2,-7,-3,5,1,5,0
1532067894259,-1,15,25,9,-16,-3,-1,2
1532067894264,4,2,-57,2,16,4,-1,-2
1532067894269,0,-1,24,-7,-10,-4,2,0
1532067894274,19,4,-3,-1,5,3,31,65
1532067894279,-30,-11,-12,-13,-5,-3,-32,-49
1532067894284,9,4,-5,20,4,3,1,5
1532067894289,-22,-24,6,8,1,-4,-17,-28
1532067894294,5,2,-8,-2,-1,-2,-9,-5
1532067894299,8,15,11,-15,-11,2,30,24
1532067894304,7,11,30,20,29,2,-26,2
1532067894309,6,5,11,4,-7,1,1,9
1532067894314,-7,2,-3,-5,-14,2,-6,-14
1532067894319,-2,-4,-12,-7,-16,-7,4,8
1532067894324,-4,14,-6,8,2,2,3,-13
1532067894329,6,-4,-47,-17,5,-5,-2,5
1532067894334,-9,-8,7,9,9,1,5,-13
1532067894339,1,9,18,-8,-6,-2,-3,-1
1532067894344,5,10,-2,-21,-3,1,6,5
1532067894349,-3,-12,2,10,6,0,4,1
1532067894354,0,-3,12,19,33,3,-6,-13
1532067894359,0,-2,-27,-43,-60,-11,-7,5
1532067894364,1,8,16,17,6,4,6,3
1532067894369,0,0,-20,-5,5,2,5,0
1532067894374,-3,-1,26,15,10,0,-3,-8
1532067894379,1,-21,13,5,8,3,2,11
1532067894384,-3,-4,24,4,0,-1,-1,-6
1532067894389,-2,-10,-22,-5,-16,-3,-3,-2
1532067894394,-1,1,-16,4,23,-1,-7,-3
1532067894399,0,-16,39,15,20,2,-1,-2
1532067894404,-2,-6,16,-27,-36,2,9,6
1532067894409,-6,-11,5,-15,5,1,1,1
1532067894414,-3,-2,1,21,65,-2,-3,-4
1532067894419,3,9,-3,-6,-83,3,4,0
1532067894424,0,-3,-8,12,41,-1,0,1
1532067894429,3,13,-3,-1,3,-2,-3,0
1532067894434,-4,-1,0,-7,-32,-6,-5,-3
1532067894439,2,0,-8,3,49,4,-2,-3
1532067894444,0,-9,-3,-9,-11,-3,-2,-1
1532067894449,-3,-12,38,4,-22,3,6,5
1532067894454,-1,7,-7,-7,0,3,1,-1
1532067894459,1,-1,-36,-3,13,-1,-3,-1
1532067894464,-2,7,10,4,-16,-4,-4,-4
1532067894469,-1,-6,6,14,17,1,-1,-4
1532067894474,-2,-1,53,-3,-15,-1,-2,-3
1532067894479,-1,2,3,2,6,1,-1,0
1532067894484,1,0,4,0,0,2,4,2
1532067894489,5,12,-11,3,2,-1,0,-1
1532067894494,-2,-8,-21,-13,-17,-3,-1,-1
1532067894499,0,0,-36,0,-1,-4,-1,-1
1532067894504,-1,-3,29,17,14,2,4,2
1532067894509,-3,-2,-16,-22,-7,-2,-1,1
1532067894514,-2,-7,-20,-6,-16,0,1,-2
1532067894519,-1,-1,16,6,18,-3,-1,-2
1532067894524,0,-6,-19,8,19,0,-1,-2
1532067894529,1,-8,30,-8,-18,-4,-2,2
1532067894534,-3,2,-4,-22,-46,-5,1,2
1532067894539,0,-1,17,3,-1,-2,-5,0
1532067894544,-6,-12,-1,-4,2,2,1,-1
1532067894549,2,9,-16,3,11,1,0,-1
1532067894554,0,-1,-10,5,6,-1,-1,-3
1532067894559,0,0,12,-5,-1,-4,-3,0
1532067894564,1,5,0,2,-8,-1,1,0
1532067894569,-1,-1,8,3,-1,1,1,2
1532067894574,-3,-14,-8,-7,-3,0,-2,-2
1532067894579,-2,-1,-1,5,4,-1,1,-3
1532067894584,2,1,3,2,12,2,1,-1
1532067894589,-3,1,-16,0,-6,-3,-4,-1
1532067894594,0,-3,-8,-5,-1,-1,1,1
1532067894599,-1,-8,-2,-8,26,-3,-2,-5
1532067894604,-1,-7,-11,0,-22,2,1,0
1532067894609,0,12,10,5,-28,-4,1,2
1532067894614,2,7,-3,11,-4,-2,-5,-3
1532067894619,0,-2,7,-33,-3,3,2,2
1532067894624,0,1,-8,29,17,-2,-1,-3
1532067894629,-2,-2,-4,-6,12,0,-2,-3
1532067894634,-1,0,-8,3,-1,1,0,0
1532067894639,2,5,1,18,11,2,3,-1
1532067894644,-4,-5,7,3,-14,-7,-7,-2
1532067894649,-3,-2,-2,-2,-3,0,0,-2
1532067894654,0,0,-1,-3,7,-3,-2,-2
1532067894659,0,2,8,12,4,4,0,1
1532067894664,-1,0,6,-9,-8,-3,-3,1
1532067894669,-2,-2,-11,13,-5,-1,-2,-3
1532067894674,2,1,-3,-40,10,3,4,-3
1532067894679,0,8,16,42,-5,2,4,-3
1532067894684,-3,-10,-29,23,-6,-2,-5,0
1532067894689,-7,-6,-6,-6,1,-7,-12,2
1532067894694,7,12,19,-41,6,7,8,1
1532067894699,-2,-12,-21,31,-10,-4,-3,-7
1532067894704,-7,3,32,-15,-5,-6,-6,7
1532067894709,2,-1,-6,24,11,3,1,0
1532067894714,-1,0,-4,6,1,-3,-2,1
1532067894719,4,6,-5,-30,0,5,4,0
1532067894724,5,5,14,9,48,5,4,-7
1532067894729,-1,3,-9,-13,-62,-8,-1,0
1532067894734,-3,-3,-7,-4,-14,-4,-2,1
1532067894739,0,3,14,6,24,2,-3,3
1532067894744,-2,-3,-8,-5,9,-7,-5,-3
1532067894749,1,-1,-4,-11,-7,4,4,-1
1532067894754,-1,-1,-4,14,-35,-5,-4,-2
1532067894759,-2,1,14,-4,27,0,-5,2
1532067894764,2,11,7,-5,-19,2,4,8
1532067894769,-2,-19,2,-7,1,2,1,-5
1532067894774,-5,-7,1,11,-2,-2,-6,-6
1532067894779,-1,-2,-18,-5,4,0,-1,-1
1532067894784,6,7,11,0,30,1,3,-2
1532067894789,2,13,7,-7,-37,-1,0,2
1532067894794,-4,-5,0,18,16,0,-3,-1
1532067894799,-4,-1,5,-2,23,-5,-10,-12
1532067894804,-5,1,-24,-31,-70,-3,6,0
1532067894809,0,2,4,16,55,5,3,7
1532067894814,1,3,6,3,-22,-5,-5,-2
1532067894819,1,1,-3,0,32,0,1,0
1532067894824,-1,-1,3,-12,-30,-4,-3,-3
1532067894829,1,-3,-9,-11,-15,2,5,-1
1532067894834,-2,1,-1,14,22,2,2,-5
1532067894839,-1,-1,-2,-10,-36,-3,-2,5
1532067894844,0,-5,8,18,62,3,-4,-1
1532067894849,1,1,9,-18,7,-4,-5,-7
1532067894854,-2,3,-22,-17,-59,-7,-2,3
1532067894859,-5,-13,-7,-17,-44,-5,-3,5
1532067894864,-3,-6,-26,-3,30,1,-4,-3
1532067894869,-1,-6,9,1,-19,-3,-3,-7
1532067894874,0,4,-24,14,30,-1,-5,-5
1532067894879,-5,-7,7,-10,-14,2,3,1
1532067894884,-1,2,-6,-3,2,2,-1,-8
1532067894889,-2,-6,-4,1,5,0,3,3
1532067894894,-6,-9,-38,-13,2,-1,-4,-2
1532067894899,2,6,37,14,-19,2,3,1
1532067894904,-2,-14,2,-2,-5,3,3,2
1532067894909,5,13,17,23,55,2,0,-1
1532067894914,7,13,18,-9,-40,5,12,18
1532067894919,-5,-4,-16,-12,-11,-5,-3,0
1532067894924,-8,-27,-26,-21,-13,-11,-27,-25
1532067894929,-5,-23,-32,15,17,0,-5,-8
1532067894934,8,-5,74,7,80,1,3,2
1532067894939,1,9,-11,-14,-73,-5,9,11
1532067894944,0,6,0,-4,6,2,7,10
1532067894949,-2,-4,-15,-9,-26,-2,-3,0
1532067894954,-1,-1,-3,13,37,1,-4,-4
1532067894959,3,5,4,3,34,2,-1,-1
1532067894964,0,-9,11,-34,-45,-4,1,1
1532067894969,-2,6,-7,-5,-5,-2,-3,-3
1532067894974,-3,-6,-3,8,17,3,1,-3
1532067894979,-1,-1,-3,-15,-11,-1,-2,-4
1532067894984,3,17,-18,1,-24,-3,-4,-2
1532067894989,4,1,54,4,25,3,3,4
1532067894994,-10,-13,-12,-2,-16,-1,2,-2
1532067894999,0,-7,-17,8,1,0,-3,-3
1532067895004,0,1,13,8,21,1,3,0
1532067895009,-2,7,-5,10,4,-4,-7,-56
1532067895014,12,-10,11,-24,6,-1,12,95
1532067895019,-3,-42,68,4,4,11,18,22
1532067895024,-4,-2,-2,2,34,-4,-3,-12
1532067895029,2,4,-14,-9,4,1,3,9
1532067895034,-8,-8,-12,14,-22,0,-6,-19
1532067895039,-2,18,-18,7,6,-4,-9,-5
1532067895044,11,32,-20,-14,-16,-5,-2,6
1532067895049,-7,-58,30,33,31,7,12,15
1532067895054,-5,-5,14,-57,0,2,0,-16
1532067895059,2,2,-10,-6,-24,-8,-5,-1
1532067895064,-5,-13,12,14,2,-4,-2,6
1532067895069,5,24,-13,-10,6,-5,-5,1
1532067895074,0,0,8,18,9,7,2,-12
1532067895079,-3,-19,-3,-13,-11,-2,3,6
1532067895084,1,23,-46,12,33,-3,-7,-6
1532067895089,-2,-4,50,10,21,0,5,-1
1532067895094,-3,-10,34,-13,-20,-3,-1,-5
1532067895099,-4,6,-13,-65,-49,0,-5,3
1532067895104,-6,-13,-22,11,14,-1,-3,0
1532067895109,6,19,-29,-6,-1,-2,-5,-3
1532067895114,-3,1,8,8,2,-6,-2,-10
1532067895119,4,7,17,0,5,0,4,8
1532067895124,2,2,-1,-1,-6,2,2,-3
1532067895129,-2,-5,-12,-10,-2,0,0,5
1532067895134,-2,0,1,-7,-13,-2,-1,-5
1532067895139,0,18,-26,-1,6,-7,-10,-8
1532067895144,0,-27,46,8,-3,4,7,4
1532067895149,-6,5,-3,-4,2,-7,-9,-5
1532067895154,2,3,4,-1,-8,-3,-3,-1
1532067895159,1,-8,-19,16,29,8,10,1
1532067895164,-1,5,-11,-22,-14,-3,1,3
1532067895169,-3,-2,-11,1,2,-3,-6,-4
1532067895174,-3,-4,11,-12,-34,-2,0,-3
1532067895179,-5,0,1,-4,12,3,-1,0
1532067895184,-2,-3,6,1,-1,2,2,0
1532067895189,5,16,-29,-2,2,-5,-8,-5
1532067895194,-10,-26,3,8,7,2,2,3
1532067895199,0,7,4,-2,-11,-4,0,0
1532067895204,0,0,-23,-6,12,2,0,-6
1532067895209,2,9,-1,4,4,2,2,2
1532067895214,-8,-32,17,-4,-4,1,-1,-2
1532067895219,-1,-6,25,-3,1,1,0,6
1532067895224,-5,-10,-12,29,-5,-8,-11,-10
1532067895229,-1,-5,-25,-39,-8,-4,-3,0
1532067895234,2,16,-14,14,3,1,-4,-2
1532067895239,3,5,15,19,9,5,5,3
1532067895244,0,2,-7,-39,-16,-8,-6,-1
1532067895249,1,4,-7,10,19,3,4,-1
1532067895254,-3,14,-1,-17,-28,-7,-1,-5
1532067895259,-4,-7,-17,-5,-6,1,-2,0
1532067895264,4,5,29,8,1,1,4,5
1532067895269,-2,-2,18,40,45,-3,1,-1
1532067895274,-2,1,-41,-62,-37,2,0,-5
1532067895279,0,17,23,31,18,0,-3,-4
1532067895284,-3,-20,-28,-23,-7,-3,-2,-1
1532067895289,-4,-28,29,-5,3,6,7,7
1532067895294,3,3,8,28,19,-1,0,0
1532067895299,3,5,5,-13,-10,-3,0,-4
1532067895304,0,4,30,49,9,-6,-14,-5
1532067895309,-2,-1,-31,-13,-13,-6,-12,-9
1532067895314,-2,-8,-21,-22,5,1,1,0
1532067895319,-1,-11,22,-14,2,4,7,-1
1532067895324,3,12,16,2,-5,3,8,5
1532067895329,-7,-1,23,46,-22,-8,-10,-1
1532067895334,5,18,4,6,10,3,2,0
1532067895339,-3,-7,4,-3,4,-2,-2,2
1532067895344,-2,4,-9,-19,3,3,5,-4
1532067895349,3,-29,-30,0,-10,2,-2,-24
1532067895354,4,27,29,4,9,-7,-11,14
1532067895359,-9,-33,-10,7,12,7,5,-5
1532067895364,-5,0,2,-3,-27,-4,-1,3
1532067895369,4,17,-6,-15,-6,6,9,2
1532067895374,3,12,28,14,5,-2,-3,-2
1532067895379,5,-2,-32,2,6,-2,1,20
1532067895384,-5,2,-66,-7,0,-4,-12,-26
1532067895389,-8,-19,7,-20,-10,2,5,7
1532067895394,12,5,-9,6,9,2,6,50
1532067895399,-11,-3,0,7,-3,1,1,-44
1532067895404,-1,-6,19,4,-7,-5,-4,-6
1532067895409,-1,22,-16,-9,10,-3,-10,-1
1532067895414,-3,3,-26,-12,-7,-2,0,-18
1532067895419,-4,-22,-8,-1,-6,0,0,9
1532067895424,8,9,23,-19,-2,4,10,23
1532067895429,-7,-13,24,24,-2,-5,-5,-9
1532067895434,0,-17,4,-2,2,0,0,-7
1532067895439,5,18,-20,4,-10,-6,-9,5
1532067895444,-1,1,-34,-17,3,0,1,-8
1532067895449,6,11,20,-7,-3,2,3,50
1532067895454,-16,-10,-6,12,3,-2,-4,-81
1532067895459,4,2,-6,-14,-8,-2,-3,38
1532067895464,-5,16,-17,10,5,-6,-18,-17
1532067895469,-5,-16,2,-12,-2,7,10,1
1532067895474,0,12,-11,4,-6,-2,-2,8
1532067895479,-4,-5,34,2,4,-3,-2,-14
1532067895484,-9,-22,11,-13,-17,2,5,14
1532067895489,5,18,-12,-8,-6,-3,-2,3
1532067895494,3,-12,-5,3,0,1,-2,-2
1532067895499,-4,7,6,10,4,-6,-9,-13
1532067895504,0,-18,10,3,-1,6,5,12
1532067895509,-2,9,-16,-14,-11,-8,-7,-19
1532067895514,12,7,37,16,45,14,13,11
1532067895519,2,10,-16,-35,-20,4,2,2
1532067895524,-2,5,23,31,7,-2,-1,2
1532067895529,-6,-37,-3,-19,-8,2,1,-4
1532067895534,-2,-2,-12,7,-11,-6,-3,1
1532067895539,-1,12,26,5,6,-4,-5,-12
1532067895544,6,2,-24,7,28,1,10,7
1532067895549,3,12,12,-5,-24,-1,1,-1
1532067895554,-9,-13,-14,10,5,5,-6,4
1532067895559,3,14,23,-1,-9,-2,-2,-4
1532067895564,1,-2,21,4,-2,1,4,-1
1532067895569,3,9,-8,10,18,-1,-3,-6
1532067895574,-4,-6,-13,-5,-2,0,4,3
1532067895579,1,-11,-20,0,-4,5,7,10
1532067895584,-3,5,-2,-3,1,-3,-3,-1
1532067895589,1,1,6,5,3,-5,-6,-1
1532067895594,-2,3,6,-5,-5,-2,-5,-1
1532067895599,4,1,-1,15,22,-1,-1,-6
1532067895604,-4,-2,-12,-27,-41,-6,-5,-2
1532067895609,-5,-9,-14,-9,8,2,1,-1
1532067895614,4,19,1,-1,-17,-4,-3,-1
1532067895619,-7,-22,-5,5,11,-3,0,0
1532067895624,0,17,5,8,2,4,2,3
1532067895629,-1,-14,4,12,-3,0,1,-4
1532067895634,2,14,-3,-16,-16,-11,-13,-10
1532067895639,-2,2,-16,-15,-8,-3,-1,-1
1532067895644,-4,-15,39,6,10,8,6,5
1532067895649,2,19,6,5,8,-4,-6,-3
1532067895654,0,-8,-7,3,4,2,-1,3
1532067895659,1,-3,-11,-4,-13,-6,-9,-4
1532067895664,0,-5,9,10,3,1,6,-2
1532067895669,3,9,-9,-4,0,3,5,-1
1532067895674,-4,-9,8,-3,3,1,1,2
1532067895679,-2,11,-26,-16,-16,-7,-8,2
1532067895684,2,-3,-4,9,9,0,-1,2
1532067895689,-6,-22,5,-1,-1,1,7,4
1532067895694,-3,-3,-1,-2,-1,-4,2,-2
1532067895699,-3,-12,8,3,7,6,-2,-7
1532067895704,7,17,-17,-5,0,-3,-8,-3
1532067895709,3,6,0,4,-1,-2,-1,1
1532067895714,-1,0,-29,-7,-11,-6,-4,-2
1532067895719,-7,-15,10,8,3,1,9,1
1532067895724,-5,-25,29,-2,1,-6,-10,-8
1532067895729,2,14,19,8,0,0,2,-2
1532067895734,-1,0,-12,-23,2,7,2,1
1532067895739,-2,-9,-25,-15,-25,-5,-3,3
1532067895744,5,16,-27,-8,-13,-3,-7,-7
1532067895749,2,12,1,-2,0,-2,-1,-4
1532067895754,-4,-11,1,1,4,3,4,7
1532067895759,4,9,-20,-15,-8,-3,-6,-8
1532067895764,4,1,10,15,0,2,4,7
1532067895769,0,-3,7,-15,-4,-1,3,3
1532067895774,-1,-21,-6,7,5,-4,2,-3
1532067895779,-4,8,-12,-8,-12,0,-3,-1
1532067895784,-2,-14,7,-2,-5,-3,-2,0
1532067895789,-2,10,-22,13,0,-3,-5,-3
1532067895794,0,9,15,-3,9,3,4,4
1532067895799,-4,-20,-17,-9,-2,-3,-2,0
1532067895804,-1,-9,0,-5,-6,1,3,-1
1532067895809,4,14,4,9,1,-4,-6,-2
1532067895814,1,11,-28,-15,2,-4,-7,-9
1532067895819,-3,-19,2,-3,-1,4,7,3
1532067895824,-5,-7,9,1,-11,-4,-2,-1
1532067895829,1,-15,2,8,6,2,5,1
1532067895834,1,24,0,-11,-3,0,-1,-1
1532067895839,3,3,-14,4,31,-5,-8,2
1532067895844,2,-18,-8,-19,-19,1,-2,-9
1532067895849,-4,4,16,8,-8,-4,-5,0
1532067895854,-1,-5,-21,-8,-14,0,-3,-1
1532067895859,-1,6,19,3,-6,5,9,8
1532067895864,0,3,6,5,9,-2,0,-1
1532067895869,0,-1,-3,-7,0,2,-1,-17
1532067895874,2,-9,18,14,10,10,22,30
1532067895879,0,12,-5,-4,-5,-4,-9,-3
1532067895884,0,1,-7,3,-2,-2,-1,-1
1532067895889,0,-2,22,6,19,9,5,-1
1532067895894,-2,12,-17,3,2,-7,-12,-7
1532067895899,-6,-19,-9,-8,-8,3,5,0
1532067895904,-1,-7,8,3,4,0,6,5
1532067895909,2,6,-1,-8,-2,-3,-2,3
1532067895914,-5,-14,4,22,49,-6,-11,-10
1532067895919,2,10,2,-42,-56,0,-2,-1
1532067895924,2,10,-4,-2,9,-3,-7,-7
1532067895929,4,4,5,0,-1,1,2,1
1532067895934,-6,-28,3,-22,-10,-1,5,-1
1532067895939,1,9,6,11,7,-5,-4,-3
1532067895944,-1,4,0,3,5,-2,-3,3
1532067895949,2,0,-11,-18,2,0,-2,0
1532067895954,3,14,-11,3,-18,-4,-3,-7
1532067895959,4,9,17,31,16,1,-3,-3
1532067895964,-7,-17,5,12,-6,3,9,5
1532067895969,-5,-9,7,19,4,-3,-3,2
1532067895974,0,-3,5,-15,-8,0,-3,-5
1532067895979,1,-2,-16,-6,-6,-5,-3,-3
1532067895984,2,12,-6,4,4,4,0,1
1532067895989,2,2,-5,-1,-2,-1,4,-2
1532067895994,-5,-7,-9,-23,-11,-1,-1,-1
1532067895999,0,4,-4,9,0,-4,-4,-3
1532067896004,-2,-4,22,27,3,-3,-4,0
1532067896009,-1,-5,1,7,59,-1,-1,2
1532067896014,-2,-3,2,-28,-22,3,2,0
1532067896019,-1,0,-4,-27,-27,2,4,1
1532067896024,1,0,-24,-24,2,0,-1,-3
1532067896029,-9,-4,9,-5,-21,-6,-10,0
1532067896034,-2,-9,10,22,13,-1,0,-1
1532067896039,1,8,3,10,19,0,1,-1
1532067896044,0,5,-6,1,-2,1,-2,0
1532067896049,-1,-16,-3,2,-2,-3,0,-3
1532067896054,-3,-9,-4,-11,-23,-1,0,-3
1532067896059,-1,1,-9,-4,-8,-2,-5,0
1532067896064,-2,-2,10,2,-3,-3,-1,0
1532067896069,3,7,-7,-6,-8,2,1,-1
1532067896074,-1,3,8,23,19,-1,0,-2
1532067896079,3,8,-2,12,68,4,2,1
1532067896084,-4,-6,-14,-47,-82,-3,-2,-2
1532067896089,2,24,-53,-7,-12,-9,-10,-9
1532067896094,-14,-8,-6,-4,2,5,2,4
1532067896099,-2,-27,-2,3,7,-1,-3,-6
1532067896104,2,-3,5,13,35,5,5,1
1532067896109,3,8,3,-6,-15,-1,1,-3
1532067896114,7,11,6,-2,-12,-2,-1,4
1532067896119,-2,12,6,7,7,2,-1,-6
1532067896124,-2,1,-2,7,7,-1,-2,-5
1532067896129,1,-8,-10,5,-13,-1,5,0
1532067896134,-1,8,21,-7,8,1,1,-1
1532067896139,-2,-15,41,0,-12,-2,-5,0
1532067896144,-4,6,-9,8,14,-3,-4,0
1532067896149,-2,-15,27,-11,-35,0,1,3
1532067896154,-1,-16,23,30,45,-1,-2,-4
1532067896159,0,14,-55,-41,-53,1,0,-1
1532067896164,2,16,31,11,4,-4,-8,2
1532067896169,-8,-33,22,3,7,8,12,6
1532067896174,-4,-11,-12,1,-8,-1,-1,0
1532067896179,-3,-6,13,11,12,-2,1,-2
1532067896184,2,-8,-36,-6,6,-4,-3,-6
1532067896189,3,12,7,-2,0,0,-6,-4
1532067896194,3,0,-18,-3,-15,-1,-6,-5
1532067896199,-2,5,-25,9,27,9,13,3
1532067896204,6,1,42,-12,-11,2,5,-44
1532067896209,-24,2,-5,-2,5,-4,-10,64
1532067896214,-1,0,-8,7,-1,0,-4,-26
1532067896219,1,6,-3,-3,-15,-6,-9,-5
1532067896224,0,21,-11,4,11,-4,-3,-10
1532067896229,-2,-43,-35,-8,0,6,9,-10
1532067896234,-1,9,21,8,-20,-1,0,5
1532067896239,-7,9,8,4,-5,-4,-3,7
1532067896244,1,-33,-9,2,7,-1,-1,10
1532067896249,10,20,18,3,-2,0,-2,-12
1532067896254,0,12,-12,1,3,-1,1,9
1532067896259,3,-15,30,-1,6,-1,3,-8
1532067896264,-2,9,17,4,-2,2,1,20
1532067896269,4,19,-4,6,9,-3,-5,-11
1532067896274,3,-9,-30,-12,-7,-3,-6,-12
1532067896279,0,-23,20,5,-3,2,5,10
1532067896284,-11,-7,-14,-6,-1,-2,0,6
1532067896289,-1,5,-17,-6,-1,-2,-4,-11
1532067896294,1,-9,2,-4,-8,-2,2,3
1532067896299,10,40,23,-6,-12,-8,-15,-5
1532067896304,5,4,7,16,28,1,-3,2
1532067896309,-11,-9,-24,-23,-26,-2,4,-5
1532067896314,-3,-2,7,-3,-4,5,5,5
1532067896319,-5,-15,5,8,10,0,0,1
1532067896324,0,-1,-19,6,15,-7,-4,-5
1532067896329,6,5,-3,-14,-6,12,1,-6
1532067896334,1,-1,-19,-8,-21,-5,-4,2
1532067896339,-2,21,-13,-1,2,-6,-3,-1
1532067896344,-2,-7,16,-3,-7,4,3,7
1532067896349,3,3,3,9,17,-1,-4,-6
1532067896354,-4,-3,4,-2,0,-1,-4,-1
1532067896359,6,3,-1,-6,-12,-3,-3,-4
1532067896364,5,27,18,4,0,-1,-1,1
1532067896369,-9,-9,-1,-1,-1,-3,5,0
1532067896374,7,15,16,4,1,0,-4,-4
1532067896379,-4,-4,-4,5,-6,4,5,2
1532067896384,-4,-18,12,-2,-4,2,4,6
1532067896389,6,-7,4,14,27,-3,-3,-8
1532067896394,-5,-4,-6,-23,-20,-1,1,5
1532067896399,0,5,-34,-5,3,-5,-7,-5
1532067896404,0,-3,5,-7,-14,1,-2,-1
1532067896409,1,3,-1,3,-2,-1,-1,-2
1532067896414,1,2,12,11,13,-1,-1,1
1532067896419,0,-8,-5,-1,0,0,0,0
1532067896424,-6,-12,-16,-16,-18,1,-1,-4
1532067896429,0,-1,12,7,4,-1,-1,0
1532067896434,2,0,-6,4,15,-1,1,-1
1532067896439,-6,-16,-4,-13,-23,0,2,0
1532067896444,-3,-20,-5,6,6,0,0,-1
1532067896449,2,4,-2,-1,-5,-3,-4,-2
1532067896454,1,9,12,2,2,4,2,0
1532067896459,-1,-3,-6,1,13,2,1,-2
1532067896464,-2,1,-8,4,8,-4,-5,0
1532067896469,6,15,33,-12,-30,2,4,1
1532067896474,-3,-17,-20,1,14,3,-1,3
1532067896479,-4,4,29,7,3,-3,-2,0
1532067896484,0,2,-30,-12,-7,-2,-5,-8
1532067896489,-5,-10,11,5,3,2,2,1
1532067896494,0,7,-4,4,5,-1,1,2
1532067896499,0,-1,-9,-3,-1,0,0,4
1532067896504,7,25,-14,-5,-8,-3,-4,-3
1532067896509,-3,-10,-10,16,33,1,3,1
1532067896514,-8,-12,27,-20,-37,-4,-1,-1
1532067896519,-2,-8,-9,-2,5,0,-2,-1
1532067896524,0,9,0,-5,-14,-3,-2,-1
1532067896529,2,2,-3,3,2,-2,-3,-2
1532067896534,1,2,-19,7,10,0,0,-2
1532067896539,-4,-9,26,0,-4,-1,-2,0
1532067896544,0,-1,12,0,3,0,-1,4
1532067896549,5,16,20,-2,-5,-1,-1,-1
1532067896554,-3,-2,-30,3,4,2,2,-1
1532067896559,2,-10,10,4,4,2,6,0
1532067896564,2,-3,27,7,4,2,4,6
1532067896569,-2,22,-16,-3,-15,-6,-9,-2
1532067896574,0,-36,37,9,3,2,4,-4
1532067896579,0,29,-21,-12,-5,-10,-9,-5
1532067896584,-4,-8,6,3,7,3,3,0
1532067896589,2,7,3,0,-3,-1,1,1
1532067896594,-1,4,-16,-1,0,0,-1,1
1532067896599,3,7,-34,-2,5,-1,-6,-5
1532067896604,-3,-29,17,2,-4,4,6,3
1532067896609,-2,0,6,-1,-8,-1,-2,-1
1532067896614,-1,13,-18,2,9,1,0,-4
1532067896619,-6,-4,-7,-1,-4,-1,2,3
1532067896624,-4,-15,-8,-6,-6,-4,-5,-5
1532067896629,-3,-17,-15,-2,-4,-4,-5,-4
1532067896634,2,2,8,-2,2,-2,-2,-3
1532067896639,2,3,7,2,1,4,4,2
1532067896644,-1,8,-33,-5,-5,-3,-5,-1
1532067896649,-4,-21,17,5,9,6,7,4
1532067896654,-1,8,-6,-3,-1,-2,-2,-1
1532067896659,-1,-11,-3,-1,-4,0,1,0
1532067896664,3,12,-7,5,3,-2,-3,-1
1532067896669,-8,-39,54,-1,-6,-1,-1,0
1532067896674,-1,7,-7,-3,-2,-2,-3,1
1532067896679,-4,-25,-20,2,-1,1,2,1
1532067896684,1,5,-5,0,-1,-1,-1,-4
1532067896689,1,18,-50,-5,-3,-2,-5,-5
1532067896694,-3,-6,47,6,3,2,2,2
1532067896699,-1,2,-15,-4,-3,-3,-3,-4
1532067896704,-1,0,-2,-3,17,0,1,-1
1532067896709,3,12,-6,-6,-18,-4,-4,3
1532067896714,2,20,-1,-3,-2,-3,-6,1
1532067896719,-5,-22,10,3,1,3,3,-3
1532067896724,-3,-15,1,-2,-7,-4,-3,-2
1532067896729,0,0,-21,-7,3,-2,-1,0
1532067896734,1,-5,-8,-1,0,0,0,-2
1532067896739,2,15,23,0,-1,2,0,1
1532067896744,-2,5,2,4,-4,1,1,-2
1532067896749,0,-7,-32,-4,2,-2,0,-3
1532067896754,0,5,36,-1,-5,-2,-1,-1
1532067896759,0,3,21,0,-2,-4,-5,-1
1532067896764,-5,-2,-4,-3,-4,0,-1,3
1532067896769,2,15,-5,-1,-1,-1,0,-3
1532067896774,-2,-6,-22,-4,1,-1,3,-1
1532067896779,-3,-12,-15,-1,2,1,2,0
1532067896784,7,14,23,0,0,-3,-2,1
1532067896789,-1,-4,16,0,-6,2,5,0
1532067896794,-4,-10,20,4,3,4,3,4
1532067896799,-1,-8,-6,2,2,-1,-3,-1
1532067896804,-3,-13,-68,-4,4,0,-2,-4
1532067896809,-1,4,21,-5,5,-5,-2,-2
1532067896814,-2,-3,-4,-18,-35,-2,0,1
1532067896819,-3,16,22,-1,-1,-1,-1,0
1532067896824,-2,-28,-13,-2,-13,-4,-5,-5
1532067896829,6,8,-5,5,13,3,0,-3
1532067896834,-5,-12,13,10,15,5,4,2
1532067896839,-2,-12,7,3,-5,-1,1,2
1532067896844,0,10,16,-2,5,-1,0,0
1532067896849,0,0,-3,-1,-9,-1,-2,0
1532067896854,-2,-15,-32,-1,4,-1,0,-1
1532067896859,3,13,4,-3,1,-3,-1,-2
1532067896864,-5,3,5,1,7,0,-2,-1
1532067896869,3,15,31,-2,-8,0,0,0
1532067896874,1,11,13,4,0,-1,-1,-1
1532067896879,3,0,-44,-1,7,0,2,-2
1532067896884,-1,5,40,-12,-27,-5,-3,-1
1532067896889,-3,-2,-37,-9,-10,-1,-2,-1
1532067896894,-3,2,16,0,4,-3,-3,-3
1532067896899,1,-3,3,2,9,0,-1,-1
1532067896904,0,0,4,3,3,1,0,-4
1532067896909,3,6,-10,-5,-12,0,-2,-2
1532067896914,-5,2,7,7,12,-2,0,0
1532067896919,-1,-22,-55,-11,-8,-1,-3,-3
1532067896924,2,-14,21,6,1,2,6,5
1532067896929,-6,-8,-38,-3,0,-2,-1,2
1532067896934,1,17,28,6,24,-1,-1,1
1532067896939,-1,3,9,1,-27,-1,0,-3
1532067896944,1,-5,-17,0,3,-1,-3,-3
1532067896949,1,-7,-10,3,2,-1,-1,0
1532067896954,3,-5,-22,-4,-4,3,1,-1
1532067896959,1,11,79,6,10,0,2,1
1532067896964,-1,15,-13,-5,3,-4,-4,-2
1532067896969,-3,-18,23,2,-7,0,0,-1
1532067896974,-1,-5,-16,3,-1,-2,-3,-3
1532067896979,0,-2,-9,-3,3,-1,-3,-2
1532067896984,-1,6,-16,-1,-1,-2,-1,-1
1532067896989,-1,-4,-4,-2,5,0,1,-2
1532067896994,1,-2,30,1,4,-3,-3,0
1532067896999,-6,-4,-27,-4,-16,-1,-2,1
1532067897004,3,12,-27,-6,-2,-5,-4,-3
1532067897009,-9,-4,-16,-2,-3,-1,-1,0
1532067897014,3,1,2,-1,-7,-3,-2,0
1532067897019,-2,-6,-7,-2,3,-1,-2,-2
1532067897024,0,1,0,3,4,-1,1,0
1532067897029,1,3,-12,-1,0,-1,0,-2
1532067897034,-2,-7,-7,-2,-7,-2,-2,-1
1532067897039,-3,-3,-1,-4,4,-2,-2,-2
1532067897044,-1,-1,-9,0,-2,1,-2,0
1532067897049,1,2,16,5,1,0,0,-1
1532067897054,-4,-12,-15,-4,-8,1,2,-1
1532067897059,1,9,13,2,3,-2,-2,-1
1532067897064,5,17,-21,-6,-1,-5,-7,-3
1532067897069,-7,-25,7,-4,-4,-1,-1,-2
1532067897074,4,19,29,4,0,3,3,-2
1532067897079,1,-1,-7,0,-2,-2,0,0
1532067897084,-1,-3,-16,-4,-2,1,-2,0
1532067897089,1,2,23,7,3,1,1,-2
1532067897094,0,19,-60,-9,-4,-5,-6,-5
1532067897099,-1,-7,6,-1,-2,1,0,-1
1532067897104,-3,0,41,4,7,0,1,-1
1532067897109,0,-7,-9,7,-2,0,-1,0
1532067897114,-1,-10,-14,3,0,0,3,-1
1532067897119,1,7,4,-3,-2,-3,-1,-1
1532067897124,-3,-5,3,1,22,1,-4,0
1532067897129,-1,2,24,4,-17,0,1,-1
1532067897134,-3,-6,10,-19,-8,1,1,0
1532067897139,3,7,12,4,6,1,-2,-1
1532067897144,-3,2,-16,0,-13,-6,-2,-1
1532067897149,-2,-11,-11,-2,22,2,1,0
1532067897154,-2,0,-7,0,-11,0,-2,1
1532067897159,1,6,7,-2,5,0,1,-1
1532067897164,1,-1,-7,5,6,1,1,-2
1532067897169,-4,-17,-2,1,-13,-2,-2,1
1532067897174,-2,-7,-12,-7,1,0,-1,0
1532067897179,2,2,9,4,-14,2,1,-2
1532067897184,-1,0,7,-22,-1,-1,1,1
1532067897189,-1,9,-38,6,-5,-3,-4,-3
1532067897194,-1,-6,-4,-9,-6,-1,-1,-2
1532067897199,-1,-6,3,9,11,-2,-1,0
1532067897204,1,-2,0,8,-3,0,1,-1
1532067897209,2,10,14,-14,-5,-2,-1,-1
1532067897214,0,-3,11,11,12,1,-1,-1
1532067897219,-2,5,-25,-31,-22,-6,-5,0
1532067897224,-3,-2,6,13,-11,-1,0,1
1532067897229,3,5,8,10,6,-1,0,-1
1532067897234,2,3,3,12,35,3,0,0
1532067897239,1,1,4,-15,-13,-1,0,0
1532067897244,-2,-3,-10,6,-10,1,0,-3
1532067897249,-2,1,15,1,2,-3,-4,-2
1532067897254,-1,-2,-7,10,-9,-2,-2,1
1532067897259,1,0,1,-6,13,1,0,-2
1532067897264,-1,-3,4,3,5,1,1,-1
1532067897269,1,7,-5,-9,-5,-1,-1,-1
1532067897274,-1,-1,4,8,-1,-1,-1,-3
1532067897279,-1,2,-4,-9,-5,-1,0,-2
1532067897284,4,12,19,-2,6,2,0,1
1532067897289,-5,-4,13,-11,-3,-1,0,1
1532067897294,0,-2,-7,0,-18,-2,0,-1
1532067897299,3,10,17,10,10,0,-3,-1
1532067897304,-4,5,-19,-4,-13,-4,-1,-1
1532067897309,0,-1,-2,-13,7,2,0,-3
1532067897314,2,25,14,3,1,-3,-1,-3
1532067897319,-6,-5,-33,16,-8,-4,-2,-2
1532067897324,0,2,13,1,7,1,2,-1
1532067897329,2,1,5,5,8,0,-1,-1
1532067897334,-2,-2,-24,-19,-16,-2,-2,0
1532067897339,-3,-7,-9,13,8,1,1,-1
1532067897344,-4,-9,8,-19,-21,-4,-4,0
1532067897349,-2,3,-11,-9,-3,-4,-1,-1
1532067897354,1,-3,-4,-22,-10,0,1,1
1532067897359,1,0,12,-1,36,4,1,-2
1532067897364,-3,-10,-3,40,-44,-3,-1,1
1532067897369,-1,3,-7,-19,-3,-1,-2,-2
1532067897374,0,-6,6,4,11,2,2,-1
1532067897379,2,0,12,-17,-14,0,2,0
1532067897384,-5,-4,-24,31,22,-1,-4,-2
1532067897389,-1,1,13,5,-11,-2,-3,-1
1532067897394,-3,-2,1,17,0,0,0,0
1532067897399,0,-4,1,16,2,2,0,-2
1532067897404,1,4,-6,-63,-2,-3,-2,-2
1532067897409,1,-4,-10,28,8,-1,0,-3
