1532406084382,-1,1,-2,-2,0,-1,-2,-1
1532406084387,2,2,0,1,2,2,4,-3
1532406084392,1,-2,-3,-3,0,-7,-8,-2
1532406084397,1,0,-1,-2,0,-4,-5,-2
1532406084402,-2,-5,-2,-2,-3,-3,-3,-2
1532406084407,3,2,0,1,2,1,1,2
1532406084412,2,-2,0,-1,-1,3,2,0
1532406084417,0,-2,-1,0,1,4,6,0
1532406084422,-1,-2,-1,-1,-2,-6,-7,-2
1532406084427,-2,-3,-1,0,0,-1,-1,-2
1532406084432,-2,-1,-4,-1,1,0,-1,0
1532406084437,-6,-4,-2,-2,-1,1,-1,-1
1532406084442,8,2,0,0,0,2,4,-1
1532406084447,-4,-4,-1,-1,-2,-4,-7,-5
1532406084452,-1,0,0,-1,2,1,4,0
1532406084457,-1,0,-1,-4,-7,2,3,-1
1532406084462,-7,-3,-2,0,1,-3,-5,-2
1532406084467,1,-1,-1,-1,-1,-3,-3,1
1532406084472,-4,-3,0,0,-5,-2,-1,-2
1532406084477,2,-1,-1,0,3,1,2,-1
1532406084482,-2,1,0,0,1,1,-1,1
1532406084487,1,1,0,1,0,-1,1,-2
1532406084492,-5,-3,-1,0,-2,-2,-8,-4
1532406084497,1,1,-1,0,7,1,-1,2
1532406084502,0,-2,-3,-6,-9,-1,-1,0
1532406084507,-3,-1,0,0,-2,-3,-1,1
1532406084512,1,0,0,-1,-1,2,2,-1
1532406084517,0,0,1,1,4,-2,-5,0
1532406084522,2,-1,0,-1,1,-1,-1,-4
1532406084527,-3,1,0,-2,-2,6,-1,-3
1532406084532,-7,-8,0,0,-1,0,8,-2
1532406084537,2,-1,0,-1,-3,-4,-4,-2
1532406084542,-2,-1,-1,-4,-1,-1,1,0
1532406084547,-2,0,-1,-3,1,1,3,-1
1532406084552,0,2,0,3,5,-4,-6,-1
1532406084557,2,-3,-3,-2,-4,-1,-6,-1
1532406084562,-5,0,-2,-1,-3,0,1,-2
1532406084567,2,-2,0,-1,0,1,1,-1
1532406084572,0,0,-3,-2,-2,1,2,0
1532406084577,1,-1,0,1,1,0,-4,0
1532406084582,2,1,-1,0,1,-3,-2,-1
1532406084587,0,-2,-1,-1,0,-2,-2,0
1532406084592,-2,-2,-1,-3,-1,-1,-1,-2
1532406084597,-1,1,-2,0,-1,1,0,-2
1532406084602,0,0,2,1,2,4,3,1
1532406084607,-3,-2,-1,-3,-3,-5,-4,-1
1532406084612,1,2,-1,0,-2,0,-4,1
1532406084617,-1,-1,-1,1,1,1,3,1
1532406084622,1,-1,1,-2,-2,-2,-5,-4
1532406084627,1,0,-1,1,1,-1,0,-1
1532406084632,0,1,1,-1,-1,-1,-9,-2
1532406084637,-2,-1,0,-3,-2,-2,1,-1
1532406084642,0,-2,-2,3,0,0,0,0
1532406084647,-2,-3,0,-1,2,2,4,1
1532406084652,-1,0,-2,-3,-4,-4,-6,-1
1532406084657,-3,1,-1,-2,1,2,0,-2
1532406084662,-2,0,0,-2,-10,-6,-1,-3
1532406084667,1,-1,-2,-2,1,5,5,1
1532406084672,1,-2,1,1,-1,-4,-1,1
1532406084677,-1,-3,-2,-2,-5,-4,-1,-1
1532406084682,0,-1,-1,-1,8,-1,-4,0
1532406084687,0,-1,-2,0,-4,-2,-2,-2
1532406084692,0,1,0,0,-2,7,11,1
1532406084697,-2,2,-1,1,0,-5,-6,-2
1532406084702,3,1,-3,0,1,-2,0,-3
1532406084707,-4,-3,-2,-2,-3,-3,-8,-3
1532406084712,0,1,-3,-1,6,2,8,-1
1532406084717,-1,-2,-1,-5,-3,-2,-4,0
1532406084722,0,2,-1,0,1,-1,-1,3
1532406084727,-3,-6,2,3,2,-2,-3,0
1532406084732,3,3,-1,-2,-1,-2,-3,2
1532406084737,-2,-3,-3,-5,-2,4,4,-2
1532406084742,-1,0,-1,-2,-1,-3,-1,-1
1532406084747,1,0,0,-1,-4,0,2,-1
1532406084752,-2,-3,1,0,2,-1,-2,-2
1532406084757,-1,0,0,-2,-6,1,8,-1
1532406084762,-2,-2,0,-1,-1,-1,-5,-1
1532406084767,2,1,-3,-2,2,1,1,-1
1532406084772,0,0,-1,0,-2,-1,-6,0
1532406084777,-1,-2,-3,-1,0,-5,1,0
1532406084782,-1,-2,-1,0,-1,3,5,-1
1532406084787,1,-1,-1,0,3,-4,-6,0
1532406084792,0,-1,-2,-1,-3,1,1,-3
1532406084797,0,1,0,1,2,-1,-4,-2
1532406084802,0,-1,-1,0,0,1,4,-1
1532406084807,-2,-1,-1,-1,-4,-5,-3,-1
1532406084812,-2,-1,-2,0,3,-2,-4,-2
1532406084817,2,-3,0,-1,-1,-3,-2,-3
1532406084822,-4,1,-1,-1,-2,-1,1,-2
1532406084827,2,-3,-3,-1,-1,1,-4,-1
1532406084832,-4,-1,-1,1,-2,-4,-2,0
1532406084837,-2,-2,1,2,3,-2,-2,-3
1532406084842,0,-2,0,-3,-6,2,4,-3
1532406084847,-2,1,-1,0,-1,0,-4,-1
1532406084852,1,-3,-1,0,1,-5,-3,-1
1532406084857,0,0,0,-4,-3,1,-1,-1
1532406084862,0,0,0,0,-1,-2,-3,0
1532406084867,0,0,1,0,1,1,2,-5
1532406084872,1,-1,-1,0,-1,0,0,0
1532406084877,-2,0,1,2,6,5,2,1
1532406084882,0,-2,-3,-1,-4,-9,-8,0
1532406084887,1,1,0,-2,-1,-3,-1,1
1532406084892,-1,0,-1,-2,-1,-1,-1,-3
1532406084897,1,1,1,-1,-4,0,2,-1
1532406084902,0,-2,0,0,-2,3,3,-3
1532406084907,-1,1,0,1,4,-2,-3,-1
1532406084912,-1,-2,1,-2,-2,1,-2,-5
1532406084917,-4,-3,-3,0,-5,-1,2,-1
1532406084922,-8,-3,0,-1,0,-1,0,0
1532406084927,6,0,2,1,-2,-2,-1,-1
1532406084932,1,-1,-1,-2,0,1,2,-3
1532406084937,5,0,-1,-1,1,-4,-5,-1
1532406084942,-16,-6,0,1,4,-3,-7,-4
1532406084947,-2,0,-3,-3,-2,2,6,2
1532406084952,-1,-3,-2,1,-2,0,-2,1
1532406084957,-1,1,1,1,0,-2,-3,-4
1532406084962,5,1,-2,0,1,2,2,1
1532406084967,-4,-2,-1,-1,-2,-1,1,0
1532406084972,-1,0,-3,-3,-1,1,-2,-3
1532406084977,0,-1,0,0,-2,2,0,0
1532406084982,2,-4,-1,-2,0,-4,-3,-1
1532406084987,-1,0,2,-1,1,-1,-1,-3
1532406084992,-1,-2,-1,0,0,-1,0,-1
1532406084997,-1,0,-1,0,-2,-2,-8,-1
1532406085002,4,0,-2,1,-1,6,13,0
1532406085007,0,-1,0,1,1,0,1,-1
1532406085012,-1,-1,0,-4,-4,-3,-4,1
1532406085017,-3,-4,-3,0,2,-2,-5,-1
1532406085022,1,2,0,1,-1,0,-1,0
1532406085027,-3,-1,0,0,0,-1,-3,-1
1532406085032,-1,1,0,-1,2,2,7,1
1532406085037,-4,-3,-3,0,-6,-2,-1,-3
1532406085042,6,2,0,0,-2,-5,-6,-2
1532406085047,-1,-1,-1,-1,1,0,-3,-3
1532406085052,1,-1,-1,-1,-4,-2,-2,-1
1532406085057,-7,-5,-1,0,3,1,3,2
1532406085062,-4,-1,1,-3,-3,0,-3,-1
1532406085067,6,0,-1,-2,-2,-4,-3,0
1532406085072,-2,0,2,0,0,2,3,-2
1532406085077,1,2,-1,1,2,-7,-6,-1
1532406085082,-1,-1,-1,1,-3,2,-1,-2
1532406085087,-3,1,-1,-4,-1,2,0,-1
1532406085092,-4,-2,-2,-2,-3,2,1,-1
1532406085097,2,0,0,0,-2,-4,-2,1
1532406085102,0,-1,0,-3,3,-4,-7,-1
1532406085107,-2,-1,0,0,-7,1,0,-1
1532406085112,1,-1,-2,-2,0,-6,-2,1
1532406085117,-3,-1,0,-2,-1,2,0,-2
1532406085122,0,-1,-2,0,-1,-1,1,0
1532406085127,-2,3,-1,0,2,1,2,-1
1532406085132,-1,-4,1,1,1,-2,-3,0
1532406085137,0,0,-3,0,-3,-2,-1,-2
1532406085142,0,0,-1,-4,-2,0,-2,-2
1532406085147,-1,-1,-1,-1,2,3,4,2
1532406085152,-2,2,0,1,-1,-5,-7,-2
1532406085157,1,-1,-2,-1,1,1,-1,-2
1532406085162,0,-2,-1,1,-1,1,6,-3
1532406085167,-2,-2,1,0,-3,-5,-9,-2
1532406085172,0,0,-1,-1,0,1,8,2
1532406085177,0,-3,-3,-3,-3,1,3,-2
1532406085182,-5,0,0,0,-2,3,2,-1
1532406085187,-2,-2,-1,-3,-2,-10,-10,-3
1532406085192,1,0,-2,-1,-1,-1,-3,2
1532406085197,0,-1,2,0,0,-1,0,0
1532406085202,1,1,-1,0,2,0,0,0
1532406085207,-12,-6,-3,-2,-4,3,2,-3
1532406085212,6,1,0,2,-1,-1,-4,-2
1532406085217,-4,1,-2,1,2,3,3,2
1532406085222,3,-1,0,-2,0,0,-3,0
1532406085227,0,0,-2,-3,-3,0,1,-3
1532406085232,-2,-1,0,-2,-2,-1,0,-3
1532406085237,4,0,1,1,1,2,2,1
1532406085242,-6,0,2,1,0,-5,-3,0
1532406085247,0,-2,0,-1,1,1,1,-2
1532406085252,-3,-2,-3,-2,-1,-3,-7,-3
1532406085257,1,-2,0,-1,-1,-2,0,-3
1532406085262,0,-1,-1,-2,1,2,0,3
1532406085267,1,1,0,-1,-3,-4,-6,1
1532406085272,-3,-2,1,-1,1,1,1,-1
1532406085277,-2,0,-1,1,-1,0,-4,0
1532406085282,1,-1,-1,-2,-3,-1,0,1
1532406085287,1,0,-1,-2,2,3,8,-2
1532406085292,-5,-1,0,0,-5,-2,-8,-1
1532406085297,-3,0,0,-1,-1,-3,1,-3
1532406085302,1,-2,-1,1,0,0,-2,-1
1532406085307,1,-1,-1,1,1,-2,-2,-3
1532406085312,-5,0,1,-2,-1,-2,1,-1
1532406085317,3,0,0,0,0,-1,-1,-2
1532406085322,-3,2,-2,-3,-1,-4,-5,0
1532406085327,-1,-1,-2,1,1,1,3,1
1532406085332,2,-2,-2,-2,0,1,1,-2
1532406085337,-13,-6,-2,0,0,-2,-3,-1
1532406085342,3,-1,-1,-1,-1,1,1,-1
1532406085347,1,0,0,-1,-3,-2,-6,-3
1532406085352,-3,-1,-2,1,1,1,-2,0
1532406085357,3,3,0,-3,0,-2,-6,0
1532406085362,0,-2,-1,1,-3,-4,2,-1
1532406085367,-3,-1,-3,0,2,1,-2,0
1532406085372,0,-1,-2,-2,1,1,-1,0
1532406085377,-2,1,0,-2,-5,0,-1,0
1532406085382,-1,-1,-2,-2,1,-1,-5,-1
1532406085387,1,0,0,2,-2,-3,-4,0
1532406085392,0,0,-1,0,-1,0,1,-2
1532406085397,6,0,-2,-1,3,2,-1,-1
1532406085402,-9,-1,0,-1,-2,-2,0,-4
1532406085407,-1,0,-1,-2,-1,-1,3,-1
1532406085412,-1,0,0,0,-3,0,-2,0
1532406085417,2,1,-2,-1,-1,1,1,2
1532406085422,0,0,-3,-1,0,-4,-7,-3
1532406085427,-2,-1,-2,1,1,1,3,0
1532406085432,0,0,-1,1,2,3,1,0
1532406085437,-2,-1,-1,-1,-4,-1,0,-3
1532406085442,1,-2,-1,-4,3,1,0,0
1532406085447,-2,-1,-1,0,-5,-1,-3,0
1532406085452,0,-1,0,-1,-4,1,6,-2
1532406085457,-2,0,0,-2,2,-4,-9,-2
1532406085462,0,0,2,1,-1,0,-3,0
1532406085467,-4,-3,-2,-2,4,-1,8,-2
1532406085472,5,1,1,-2,-2,0,-4,-2
1532406085477,-2,-1,0,0,1,-1,2,-1
1532406085482,-1,-2,-1,-2,-4,3,1,-1
1532406085487,3,1,0,0,0,-3,-5,2
1532406085492,-8,-6,-2,1,-1,-2,-1,-1
1532406085497,-1,1,-2,-1,-1,0,0,-2
1532406085502,2,4,-2,0,0,-4,-7,0
1532406085507,-4,-9,0,-3,-2,4,4,-3
1532406085512,3,1,-2,-1,-2,-2,-3,-2
1532406085517,2,0,1,-1,-3,1,1,-1
1532406085522,-2,-2,-1,2,2,3,6,0
1532406085527,1,2,-2,2,2,-5,-10,1
1532406085532,-1,0,0,-2,-2,-4,-5,2
1532406085537,-3,-3,0,-1,-2,-2,0,-4
1532406085542,1,2,0,-1,-3,-3,2,-2
1532406085547,0,0,0,-1,-2,2,0,-6
1532406085552,-3,-2,-1,0,0,0,0,-3
1532406085557,-1,-1,-3,-3,-5,-2,-1,-1
1532406085562,-1,-2,-2,-3,-2,0,-1,-1
1532406085567,-1,-2,0,-2,-3,-4,-6,1
1532406085572,-1,-1,-1,1,4,-1,3,2
1532406085577,-1,-1,1,-1,-2,-1,1,3
1532406085582,-4,-3,0,-1,-1,0,-1,-2
1532406085587,4,3,-3,-1,-2,-7,-7,0
1532406085592,-2,0,-2,1,1,-4,-3,-2
1532406085597,1,-2,-1,0,4,1,1,1
1532406085602,-4,-2,0,-2,-4,2,1,-1
1532406085607,0,1,1,0,-3,1,2,0
1532406085612,0,1,1,-2,1,0,-1,-2
1532406085617,3,1,0,2,-5,0,-3,-2
1532406085622,0,-5,-2,2,7,0,2,-3
1532406085627,-1,-2,-1,-5,-7,-1,1,-1
1532406085632,6,0,1,0,-3,-4,-3,-1
1532406085637,-6,2,0,0,0,-1,1,-1
1532406085642,0,0,-1,-2,-1,-1,-1,1
1532406085647,-1,2,-2,-1,-1,2,4,0
1532406085652,-2,-3,-1,0,-2,-2,-1,1
1532406085657,0,-3,-2,1,0,-1,-1,-3
1532406085662,-4,1,1,1,-1,0,-3,-1
1532406085667,-1,-1,-1,-1,5,-6,-7,-2
1532406085672,-3,1,-3,-3,-5,-2,-1,-1
1532406085677,-1,2,-1,-1,-1,-3,-5,0
1532406085682,1,-2,-1,-2,-3,0,2,-1
1532406085687,1,0,-1,0,2,3,4,1
1532406085692,-2,-1,-1,-1,0,2,0,-1
1532406085697,-6,-2,0,0,1,-4,-2,-1
1532406085702,6,0,-1,0,-2,-1,2,0
1532406085707,-4,-1,-1,0,2,-3,-2,-1
1532406085712,0,0,1,0,2,0,4,-2
1532406085717,1,-1,-2,-2,-2,-1,-1,-1
1532406085722,0,1,-1,-1,-2,-1,-1,1
1532406085727,-6,-4,-3,2,1,-4,-4,-2
1532406085732,-1,0,-2,-1,2,1,-1,-1
1532406085737,-1,-2,0,-2,-1,0,1,1
1532406085742,0,-2,-1,0,1,-2,-3,-1
1532406085747,1,0,1,0,-3,-1,-2,-4
1532406085752,-1,-2,-3,-2,-3,0,-3,-3
1532406085757,2,1,0,3,1,1,6,2
1532406085762,-1,-2,0,0,0,-3,-2,-1
1532406085767,1,-3,-1,1,-1,2,4,-3
1532406085772,2,4,0,-4,-3,-2,-5,0
1532406085777,2,-2,-2,-4,2,-2,-2,0
1532406085782,0,2,0,1,3,-1,-2,0
1532406085787,1,-1,0,-4,-10,-2,-3,1
1532406085792,-2,-2,-1,-1,1,1,2,0
1532406085797,-5,-1,1,-2,-7,2,-1,-3
1532406085802,0,-1,-2,-3,-2,-3,1,1
1532406085807,-4,-1,0,0,4,-5,-7,-3
1532406085812,-2,0,1,0,-2,-2,-2,-2
1532406085817,1,0,-1,1,4,4,7,2
1532406085822,-2,-1,0,-3,-3,-2,-6,0
1532406085827,-2,-1,-2,-2,-1,1,2,-1
1532406085832,-2,-1,-1,-2,-4,-3,3,-2
1532406085837,1,-1,-2,1,2,1,-4,-1
1532406085842,-2,-1,0,0,-4,-5,-5,-1
1532406085847,-6,-2,-2,0,1,2,1,-1
1532406085852,1,-1,-1,-2,-2,-1,-2,-2
1532406085857,-2,0,-1,1,3,-2,-1,-2
1532406085862,-1,-3,0,1,0,-1,0,1
1532406085867,0,1,1,1,0,1,4,0
1532406085872,-1,-3,-3,-2,-1,-6,-8,-2
1532406085877,0,1,0,-1,-2,-1,1,-1
1532406085882,-1,0,1,1,0,2,4,-1
1532406085887,-2,0,0,1,4,-3,-2,-2
1532406085892,2,-1,-3,-3,-4,-1,-3,0
1532406085897,-3,0,-1,-1,1,1,3,1
1532406085902,-1,-3,0,-3,-3,-2,-2,0
1532406085907,2,-1,-1,-1,-3,-1,0,-1
1532406085912,0,-2,-2,1,2,-3,-3,0
1532406085917,1,2,-1,-2,-2,0,2,0
1532406085922,-7,-8,0,-1,0,3,1,-4
1532406085927,5,-1,-3,0,0,-4,-1,1
1532406085932,-2,-1,1,1,3,0,-2,-3
1532406085937,0,-1,-2,-1,-10,-8,-1,1
1532406085942,1,0,-1,1,3,0,1,0
1532406085947,0,-1,0,-5,-7,-2,-1,-2
1532406085952,-2,-1,-1,-1,-4,-1,-3,-2
1532406085957,0,-3,-1,1,2,3,3,-1
1532406085962,-1,0,0,-1,-2,2,4,-1
1532406085967,-2,-1,-1,0,1,-4,-3,-2
1532406085972,1,0,-3,-2,-1,3,4,0
1532406085977,-2,-1,0,-1,3,-4,-9,-5
1532406085982,2,-1,-2,-1,-5,-1,0,0
1532406085987,-1,1,1,1,1,5,2,0
1532406085992,-2,2,0,1,0,-5,-5,0
1532406085997,-5,-5,0,1,3,4,0,0
1532406086002,-1,0,-2,-1,3,1,1,-2
1532406086007,-2,0,-2,-4,-7,-4,-3,-2
1532406086012,-4,0,-3,0,0,0,0,0
1532406086017,1,1,1,-1,-3,-1,-2,-1
1532406086022,-8,-3,-3,-1,1,-3,-4,-4
1532406086027,11,1,1,0,-1,3,2,0
1532406086032,-8,1,3,-2,-2,2,4,-4
1532406086037,0,0,-2,-1,1,-4,-6,-1
1532406086042,-2,-1,0,-1,-2,-2,-3,-2
1532406086047,1,-1,-3,-3,-1,-1,-4,-1
1532406086052,2,-3,0,-2,-5,-3,-1,0
1532406086057,-1,-1,1,-2,-1,4,5,0
1532406086062,1,-2,-1,0,-1,-3,-5,2
1532406086067,-8,0,-1,2,1,-2,-1,-3
1532406086072,3,-2,0,1,-1,-3,0,0
1532406086077,-2,1,-1,-5,-2,0,-4,-1
1532406086082,3,-2,-1,0,-3,-2,-3,0
1532406086087,-2,1,0,1,3,-1,6,0
1532406086092,2,0,-1,-2,4,4,3,-1
1532406086097,4,-2,-1,0,-4,-3,-2,-1
1532406086102,1,1,1,1,-3,-4,-2,1
1532406086107,-2,-2,-3,-2,-1,0,-1,-2
1532406086112,-7,-4,-1,-3,-1,4,2,-2
1532406086117,3,1,-1,2,1,-2,-1,-2
1532406086122,-5,1,-1,-4,-1,1,3,-1
1532406086127,-1,3,2,-1,-4,-2,-1,0
1532406086132,1,0,-1,0,5,0,-7,0
1532406086137,-3,-3,-1,-2,-1,-1,1,0
1532406086142,-2,0,-1,-1,2,1,1,-2
1532406086147,0,-2,1,1,1,2,-1,1
1532406086152,-1,1,0,-2,-1,-3,0,-2
1532406086157,-1,-2,-2,-3,-4,-1,-3,0
1532406086162,2,-1,-1,0,0,-1,3,-2
1532406086167,-3,0,-1,0,0,0,-2,-2
1532406086172,4,1,1,0,-4,-2,-2,2
1532406086177,0,0,-1,-1,-3,1,6,0
1532406086182,1,0,-1,-2,3,1,-9,0
1532406086187,-2,-2,-3,-3,-8,-11,2,-2
1532406086192,2,2,0,1,1,2,3,0
1532406086197,3,-2,-1,1,1,-2,-2,0
1532406086202,-2,-4,-1,-1,-1,3,-2,-3
1532406086207,-2,-2,-2,-1,0,-7,-13,-2
1532406086212,-1,-3,-2,-2,-5,-2,-2,-2
1532406086217,2,4,2,-1,-1,3,9,1
1532406086222,-5,-4,-1,1,-1,-4,1,-2
1532406086227,6,1,2,-2,1,3,-1,2
1532406086232,-2,-1,-2,1,-2,-1,-1,-2
1532406086237,-3,-3,-3,-2,-1,0,-3,-1
1532406086242,-3,0,0,1,3,1,2,0
1532406086247,-2,-4,-1,0,-4,2,2,-1
1532406086252,-2,-2,-2,-1,-2,-4,-5,-3
1532406086257,-3,0,-1,-2,2,-1,1,-1
1532406086262,1,-1,-1,0,-2,-3,-3,1
1532406086267,3,2,0,-1,3,1,1,0
1532406086272,-4,1,0,1,-1,-2,-4,-3
1532406086277,-2,-4,-1,3,0,0,-3,-2
1532406086282,3,1,-2,-2,-5,-3,1,1
1532406086287,0,-2,-1,1,1,1,-1,-1
1532406086292,0,-3,-1,-1,-3,0,0,-1
1532406086297,-2,-2,1,-2,3,1,-2,-2
1532406086302,0,1,-1,-3,-9,-8,-6,-3
1532406086307,-5,-2,-1,0,-2,2,1,-1
1532406086312,2,0,-1,-2,3,2,-2,1
1532406086317,-1,-3,-4,-3,-2,-6,-6,-2
1532406086322,1,1,0,2,1,-3,-3,0
1532406086327,-4,-4,-1,-2,-1,0,-1,-1
1532406086332,1,2,0,-2,3,1,0,-2
1532406086337,-2,-3,-1,-2,-4,2,-1,-3
1532406086342,-1,2,0,-3,0,2,1,1
1532406086347,7,-4,-3,1,0,-3,1,0
1532406086352,-2,-1,-1,2,1,0,0,-2
1532406086357,0,-1,0,0,1,-1,-1,-2
1532406086362,-1,-1,-1,-1,-1,0,4,-3
1532406086367,-4,0,-1,-1,1,4,3,1
1532406086372,0,-2,0,-2,-4,-6,-12,0
1532406086377,-1,-2,-2,0,-1,-2,0,-2
1532406086382,1,-3,-2,-2,-1,-1,-3,-1
1532406086387,-2,1,0,-2,3,0,1,-2
1532406086392,-1,-3,-1,0,0,-5,-2,-2
1532406086397,-2,1,1,0,-4,-2,-6,-3
1532406086402,-1,0,0,1,4,-2,0,-1
1532406086407,2,-3,-1,-2,0,3,4,0
1532406086412,-12,1,0,-3,-5,-3,-2,-3
1532406086417,0,1,0,1,2,-1,1,0
1532406086422,1,0,-1,-2,0,5,6,-1
1532406086427,-2,-4,-1,-2,-4,-3,-10,-5
1532406086432,5,0,-2,3,2,-2,0,-2
1532406086437,-2,-1,-1,-1,-3,1,2,0
1532406086442,0,0,-1,-1,-3,-2,-7,-2
1532406086447,-4,2,-1,-1,-1,-3,-1,-1
1532406086452,5,-1,2,-4,-3,4,5,1
1532406086457,-3,-1,0,2,3,-5,-4,-1
1532406086462,-1,-3,-1,1,3,0,4,0
1532406086467,-3,0,-1,-3,0,0,-4,-3
1532406086472,-4,-1,-3,-1,0,-1,0,0
1532406086477,5,2,0,-1,-2,1,4,0
1532406086482,-5,-3,1,0,-3,-2,-1,-4
1532406086487,0,-1,-2,-1,0,-2,-7,-1
1532406086492,-2,-1,0,-1,-1,2,11,3
1532406086497,-4,0,0,-2,0,-5,-6,2
1532406086502,0,-3,-2,-1,0,2,0,1
1532406086507,0,0,0,4,1,-5,-4,0
1532406086512,2,-3,-1,-3,-5,4,1,-3
1532406086517,1,1,0,-1,1,2,3,1
1532406086522,3,1,0,0,-2,-1,0,0
1532406086527,0,-4,0,1,5,2,1,-1
1532406086532,0,0,-2,-9,-13,-4,-5,-4
1532406086537,-1,-1,-1,0,-1,-1,0,-1
1532406086542,0,2,0,0,0,-2,-2,-3
1532406086547,0,5,-1,-2,-1,-2,0,0
1532406086552,-2,-7,-1,3,3,-3,-1,0
1532406086557,1,0,-2,-1,0,4,3,-3
1532406086562,-2,-1,0,-2,1,0,-2,3
1532406086567,-4,-1,1,-1,-4,-5,-4,-1
1532406086572,0,2,1,-3,0,-1,-5,-1
1532406086577,-1,-1,-1,-2,-5,-3,-5,-2
1532406086582,-3,-4,-1,0,1,-1,1,-1
1532406086587,-1,-1,1,1,-1,-3,-1,-1
1532406086592,1,5,0,-1,1,-4,-6,1
1532406086597,-1,-2,6,2,1,0,0,-1
1532406086602,-1,0,-7,-4,-1,1,-4,-4
1532406086607,-3,-2,-1,-5,-5,-1,0,-1
1532406086612,6,-1,-1,3,-2,1,3,1
1532406086617,-2,0,1,-1,1,-2,-1,-2
1532406086622,-1,0,3,1,0,0,1,1
1532406086627,-4,0,1,0,-2,-3,0,-2
1532406086632,-3,-3,-1,0,2,-1,2,-3
1532406086637,-1,2,-2,-1,1,2,0,-1
1532406086642,-2,-3,-1,-2,-2,0,-6,-1
1532406086647,1,2,-2,1,0,0,-2,-1
1532406086652,2,-1,0,0,-1,-2,-4,-1
1532406086657,-1,0,-2,-3,-2,-7,-2,-3
1532406086662,-3,-6,0,0,-2,2,6,-1
1532406086667,0,-1,4,-1,-2,5,2,-2
1532406086672,0,-1,-7,1,1,0,1,-2
1532406086677,-1,0,0,-3,1,1,-2,-1
1532406086682,2,0,-2,-2,-3,1,2,-1
1532406086687,-10,0,1,-1,-2,-3,-4,-2
1532406086692,-3,-1,1,0,-1,0,-5,-2
1532406086697,0,0,-3,-2,-2,0,0,-4
1532406086702,-3,1,0,0,0,-8,-9,-1
1532406086707,2,-1,-2,-1,-1,1,2,1
1532406086712,-3,-1,-1,-2,1,4,-4,0
1532406086717,-1,-1,-3,2,-1,0,7,1
1532406086722,0,1,0,0,-1,-4,0,-1
1532406086727,2,0,-2,-1,3,-2,0,-1
1532406086732,-3,-2,1,-2,1,4,4,0
1532406086737,2,0,-4,-1,-1,-1,-4,0
1532406086742,0,0,1,0,0,-3,-3,-1
1532406086747,-2,-1,-2,2,-2,-8,-5,-4
1532406086752,-2,-2,-2,-1,0,1,2,-4
1532406086757,-1,-2,-1,0,1,-2,-6,-1
1532406086762,0,-1,-3,-2,-3,1,-1,0
1532406086767,0,-1,-1,-2,1,-2,-8,1
1532406086772,-1,-3,-3,1,-3,-2,4,-1
1532406086777,-3,-2,-1,-3,-4,-4,-2,-1
1532406086782,-1,3,3,0,-1,5,5,0
1532406086787,2,-1,-6,0,1,-1,2,2
1532406086792,1,0,-1,0,2,-3,-3,-2
1532406086797,-2,-3,3,-2,-1,10,11,0
1532406086802,-1,-2,-6,-6,-7,-8,-8,-3
1532406086807,0,0,-2,1,-2,-7,-2,-2
1532406086812,0,-2,1,1,-1,0,2,1
1532406086817,-4,-1,2,-1,-1,-2,-3,1
1532406086822,1,0,-1,0,1,4,6,1
1532406086827,-2,-6,0,1,0,2,3,-6
1532406086832,0,-2,-3,-1,-1,-4,-7,-2
1532406086837,-1,-2,-2,-1,1,0,7,-1
1532406086842,2,1,-1,-1,0,-3,-5,0
1532406086847,1,2,-3,-1,0,0,0,1
1532406086852,0,0,4,2,4,-6,-5,1
1532406086857,-1,-1,-5,-4,-6,1,-2,-1
1532406086862,-1,-3,0,1,-3,1,0,-1
1532406086867,0,0,0,-3,-2,4,5,0
1532406086872,0,-1,3,-1,-2,-9,-8,-5
1532406086877,0,1,-5,0,3,-1,-4,0
1532406086882,-2,-2,-3,0,3,3,3,-2
1532406086887,-2,0,1,-2,-4,3,-2,-1
1532406086892,-3,2,-1,-2,2,-2,0,0
1532406086897,-1,-2,-2,-1,-4,-2,5,-3
1532406086902,-1,0,4,0,-2,2,1,0
1532406086907,-2,-1,-3,-1,-4,-2,-4,-2
1532406086912,0,-1,-1,-1,0,5,7,2
1532406086917,-1,0,0,2,3,-5,-5,-2
1532406086922,1,0,-2,-3,0,7,6,0
1532406086927,0,-1,0,0,-2,0,0,-2
1532406086932,-2,0,-1,0,-1,-6,-8,1
1532406086937,0,-1,0,-2,-3,1,-3,-1
1532406086942,-2,1,-1,0,2,-8,-4,0
1532406086947,0,0,0,-1,2,3,2,-1
1532406086952,-1,-2,-2,-2,-1,4,3,-2
1532406086957,2,0,1,-2,0,2,1,3
1532406086962,1,-2,-2,-1,-2,2,0,0
1532406086967,-4,1,2,-2,-2,-8,-8,-4
1532406086972,2,0,-4,1,2,5,6,2
1532406086977,0,-1,1,-3,-2,-8,-11,-1
1532406086982,-2,0,1,0,-1,-6,-4,-2
1532406086987,0,-2,-3,-1,0,3,2,-1
1532406086992,0,-1,-1,1,-5,1,-1,-3
1532406086997,-2,0,0,2,5,3,-2,0
1532406087002,0,-1,0,1,4,-1,1,2
1532406087007,-1,-3,-3,-2,-3,2,0,0
1532406087012,-1,-1,-1,-4,-1,1,-4,-4
1532406087017,-1,-1,-2,1,1,-1,-4,-2
1532406087022,0,-1,1,-3,-5,-1,0,-2
1532406087027,1,0,0,2,2,2,-1,1
1532406087032,-2,-1,-4,-5,-2,-6,-6,-2
1532406087037,-2,0,-3,-2,-4,-4,-3,-4
1532406087042,0,-1,2,2,1,3,4,-1
1532406087047,0,-1,-4,0,-2,-3,-2,1
1532406087052,-2,-1,0,1,-1,-1,1,-1
1532406087057,-1,-1,-2,-1,3,-7,-7,-4
1532406087062,0,0,-3,-2,-5,-5,-5,-3
1532406087067,2,-3,-2,-1,1,0,3,0
1532406087072,-1,-1,0,2,1,1,-5,-1
1532406087077,0,0,1,-3,1,3,3,1
1532406087082,0,-2,-4,1,1,-1,-5,0
1532406087087,-2,-1,2,0,3,1,3,-4
1532406087092,0,-2,-1,-4,-7,0,0,2
1532406087097,3,-1,1,-1,-2,-1,-1,3
1532406087102,-2,-1,-1,-1,1,1,2,-1
1532406087107,-1,1,0,0,0,-5,-7,-3
1532406087112,-1,0,0,3,4,3,5,-6
1532406087117,1,0,0,-2,-4,3,-2,0
1532406087122,-3,0,-3,-1,-1,-8,-16,-4
1532406087127,1,-1,0,-1,-1,-1,8,-2
1532406087132,-2,-1,-1,-1,0,-3,-5,-2
1532406087137,-1,-1,2,1,-1,3,6,1
1532406087142,-1,-1,-5,-2,1,3,1,-2
1532406087147,-2,-2,0,-3,-1,1,0,-2
1532406087152,0,1,0,0,1,-1,-5,1
1532406087157,-1,0,-1,0,-4,-3,-1,-3
1532406087162,0,-2,1,0,-2,0,3,-1
1532406087167,0,-1,0,-2,-2,1,-6,0
1532406087172,1,-2,-2,-1,-6,-1,2,-1
1532406087177,-2,-1,-2,0,2,-6,-10,-2
1532406087182,1,0,2,1,1,-5,0,1
1532406087187,-1,-1,-2,-3,-1,2,4,1
1532406087192,-3,-2,-1,-4,2,3,3,-3
1532406087197,-1,0,-2,-1,-2,0,-1,-1
1532406087202,0,-1,-1,-2,-4,3,6,-1
1532406087207,-2,-2,5,0,-2,-2,-9,-2
1532406087212,-1,-1,-6,1,2,-1,-3,2
1532406087217,0,-1,-1,-1,3,-1,2,-4
1532406087222,-1,-1,-1,-2,-4,-1,-2,0
1532406087227,1,1,1,1,0,0,0,2
1532406087232,1,-1,1,1,-3,5,6,-1
1532406087237,-1,-1,-2,-2,-2,-10,-15,-1
1532406087242,-2,-1,-1,-2,-2,-3,1,-2
1532406087247,-1,0,-2,-1,-1,-1,-1,-2
1532406087252,0,-2,0,-1,-1,-3,-1,1
1532406087257,0,-1,-2,-1,0,2,3,-3
1532406087262,-2,-1,0,-2,0,-1,-4,-3
1532406087267,0,0,-2,-2,-3,-3,-2,-1
1532406087272,-1,-1,1,0,-3,3,3,2
1532406087277,-1,1,1,1,4,5,4,-3
1532406087282,-1,-1,-1,2,-1,-7,-11,0
1532406087287,0,-2,4,1,4,-4,-1,0
1532406087292,0,0,-7,-6,-5,8,6,1
1532406087297,-1,0,-1,1,-2,-16,-8,1
1532406087302,0,-1,1,0,0,1,2,-2
1532406087307,-2,-2,-3,-1,-1,1,2,-1
1532406087312,-1,2,3,0,3,-6,-2,-1
1532406087317,-1,-3,-1,-2,-1,4,2,0
1532406087322,0,0,0,-1,1,-1,0,1
1532406087327,0,0,-3,-1,-1,2,2,-2
1532406087332,-2,-3,0,-1,-6,1,-3,-3
1532406087337,1,-1,-3,-2,-4,-2,0,1
1532406087342,-2,-1,2,-1,-1,-1,-10,-1
1532406087347,-2,-1,-2,0,-2,-1,-4,-1
1532406087352,0,-1,-1,-1,1,-5,-4,-1
1532406087357,-1,-1,0,-4,-2,-2,4,-3
1532406087362,-1,-3,-2,1,-4,5,4,0
1532406087367,-1,-1,-2,-2,0,0,1,1
1532406087372,-2,0,1,0,-1,-2,-4,-2
1532406087377,0,-4,-1,-1,-2,5,5,-1
1532406087382,-1,0,-2,-1,3,1,4,-1
1532406087387,0,-1,-2,-1,-4,-3,-4,0
1532406087392,1,-1,0,4,5,-3,2,-1
1532406087397,-1,-1,-3,-5,-3,8,6,0
1532406087402,1,2,-2,-1,0,-2,-6,-2
1532406087407,0,0,0,-2,-1,-3,0,-2
1532406087412,0,0,-3,-4,-7,-23,-13,-1
1532406087417,-1,0,5,4,-3,-1,4,-2
1532406087422,0,-2,-5,-3,4,5,5,0
1532406087427,-3,-3,-1,-4,-1,0,-3,0
1532406087432,-1,-3,-2,-1,2,4,2,-1
1532406087437,0,-1,0,0,2,3,4,2
1532406087442,-2,-1,2,-1,-4,-4,-3,0
1532406087447,0,1,0,0,1,-2,0,-1
1532406087452,-2,0,1,-2,-3,10,8,-1
1532406087457,-3,1,-2,0,-3,-11,-18,-4
1532406087462,1,0,-1,0,-1,-2,-2,-3
1532406087467,0,-1,-3,-1,-3,7,13,2
1532406087472,-1,0,0,-1,0,-14,-21,-3
1532406087477,0,0,-2,-3,-1,4,2,-1
1532406087482,-1,1,0,0,1,-3,-2,-2
1532406087487,1,3,1,2,-4,-3,2,-2
1532406087492,0,6,1,1,4,4,5,2
1532406087497,-2,1,-2,-2,1,0,-3,0
1532406087502,1,-2,-2,-1,-5,-1,1,-1
1532406087507,-1,-3,-1,-1,0,0,-1,0
1532406087512,0,-3,0,2,-2,5,6,0
1532406087517,0,-2,-1,2,2,-13,-12,-1
1532406087522,0,1,-1,-4,0,12,13,2
1532406087527,0,-3,-1,0,-3,-11,-17,0
1532406087532,0,1,-1,0,-1,1,3,-3
1532406087537,2,4,2,1,2,-2,-3,-2
1532406087542,0,4,-1,2,-1,-1,0,1
1532406087547,0,12,1,2,0,0,-3,-3
1532406087552,0,3,-1,-1,-2,5,5,0
1532406087557,1,1,2,1,-1,2,2,-1
1532406087562,-2,-6,0,-3,-3,-3,-7,-2
1532406087567,-1,-7,-1,2,4,0,1,-1
1532406087572,-3,-5,-1,-1,-3,-4,-4,-2
1532406087577,-1,1,0,-2,-3,1,1,-1
1532406087582,2,0,1,-1,1,-2,5,2
1532406087587,0,-9,-2,-2,-1,-3,-5,1
1532406087592,0,-12,0,-1,0,-1,-3,-2
1532406087597,-1,-12,-4,0,-3,2,-1,-1
1532406087602,-3,3,3,-1,-1,-6,-10,-4
1532406087607,-1,7,-5,-1,-1,2,4,-1
1532406087612,-1,1,-2,-1,-1,-2,-6,-1
1532406087617,-4,-4,-2,0,1,0,3,0
1532406087622,-4,-10,-1,2,1,0,2,-3
1532406087627,-2,-9,-2,0,0,-5,-3,-2
1532406087632,-2,-6,-2,-2,0,-1,2,2
1532406087637,-2,-7,-1,-2,-3,1,-1,0
1532406087642,-1,-5,-4,-1,1,0,0,-2
1532406087647,-1,-6,0,-3,0,2,1,-2
1532406087652,-2,-3,-1,-1,-1,-4,0,-2
1532406087657,-1,-3,-2,-2,1,-2,-6,-1
1532406087662,-1,-3,-2,-1,-2,-4,-6,-1
1532406087667,-1,-2,0,-3,-2,3,1,0
1532406087672,1,1,-1,0,-2,1,0,-1
1532406087677,-1,3,3,1,0,2,0,-2
1532406087682,-1,1,-4,0,1,-4,-2,0
1532406087687,0,3,2,-1,-3,-5,-6,-4
1532406087692,0,1,1,3,0,-4,-2,-2
1532406087697,0,0,0,-1,-3,3,4,-2
1532406087702,-1,0,-1,0,0,1,0,-2
1532406087707,0,4,1,1,2,-1,-1,2
1532406087712,0,3,0,-1,2,3,1,4
1532406087717,0,2,-1,0,-4,0,-1,-2
1532406087722,0,5,0,0,0,-6,-5,0
1532406087727,0,5,-1,-1,1,1,2,-3
1532406087732,0,0,-2,-1,0,-1,0,-3
1532406087737,0,0,-1,-1,-4,1,3,-2
1532406087742,2,-3,-2,-1,-2,-1,-1,-2
1532406087747,0,-5,-2,0,-2,-2,-1,-1
1532406087752,0,-2,-2,-2,-2,1,-1,-2
1532406087757,-2,-1,-2,-1,2,-2,-3,1
1532406087762,-2,-3,0,-1,-3,-4,-2,-3
1532406087767,0,-2,0,-1,-1,0,1,-1
1532406087772,-1,0,-2,0,-3,0,0,0
1532406087777,0,-2,-1,-2,-1,-3,-1,0
1532406087782,-2,-1,0,0,-1,0,-2,-3
1532406087787,-1,-1,-1,-1,-1,-1,2,0
1532406087792,-1,0,0,-2,-1,1,-1,-2
1532406087797,-3,-2,-2,0,1,-3,-2,-2
1532406087802,-1,0,0,0,-1,5,6,1
1532406087807,1,1,-3,-1,-1,1,-1,1
1532406087812,0,0,-3,1,1,-11,-11,-3
1532406087817,0,-1,-3,-2,-1,1,2,1
1532406087822,-2,-3,-3,-3,-2,-3,-4,-2
1532406087827,-2,-1,-2,0,-2,2,2,0
1532406087832,0,-1,-2,-1,1,2,4,-1
1532406087837,0,-2,-2,-2,-2,-2,-3,-3
1532406087842,1,1,-1,0,-1,4,7,1
1532406087847,-1,2,4,1,-1,-3,-7,-1
1532406087852,-2,0,-8,-2,-1,0,-2,-2
1532406087857,0,0,3,1,1,-1,0,-1
1532406087862,-1,1,1,-2,-1,-1,-3,-1
1532406087867,-2,-2,1,-1,0,-1,-1,-1
1532406087872,-1,0,-2,-1,-2,-3,-2,1
1532406087877,0,0,-1,1,-1,1,0,0
1532406087882,1,0,3,-2,-1,1,-2,-2
1532406087887,0,-1,-6,-2,-1,-2,-1,-3
1532406087892,-1,-2,3,0,-2,-1,-4,-3
1532406087897,0,0,-1,0,2,-2,0,-2
1532406087902,1,0,0,1,0,-3,-2,0
1532406087907,0,0,-1,1,-2,-1,1,0
1532406087912,-1,-1,3,-2,0,1,1,1
1532406087917,0,-1,-4,-2,0,0,-1,-1
1532406087922,-1,-1,-3,-1,-1,-1,0,-2
1532406087927,-1,1,-1,-1,1,-3,0,0
1532406087932,0,0,0,-2,-1,1,0,-3
1532406087937,-1,1,-1,-2,-1,0,5,0
1532406087942,-3,-1,0,-1,-1,-5,-6,-2
1532406087947,-2,-2,-2,-1,-1,0,-2,-2
1532406087952,0,-2,0,-1,-2,-2,-3,0
1532406087957,0,0,2,-1,0,-2,-1,0
1532406087962,-1,-4,-5,1,-2,2,-1,-3
1532406087967,-1,1,0,-1,0,0,-2,0
1532406087972,-2,-1,0,3,1,-1,-1,-1
1532406087977,-1,0,-4,-5,-1,-2,-2,-3
1532406087982,-1,-1,1,-1,-1,-1,0,1
1532406087987,0,0,0,-1,0,0,-3,-1
1532406087992,-1,1,-1,-2,0,0,0,0
1532406087997,-1,0,1,0,-2,-1,-2,-2
1532406088002,0,-1,-3,-2,-2,-2,-3,-3
1532406088007,-1,-2,0,0,0,0,0,-2
1532406088012,0,-1,1,-1,0,1,1,1
1532406088017,-2,-1,0,0,0,-2,-1,0
1532406088022,0,0,-1,1,2,-1,-4,-1
1532406088027,-2,-1,0,-2,0,0,1,1
1532406088032,0,0,-2,-1,-1,-1,-1,-5
1532406088037,-1,-1,-2,-1,-3,0,-3,0
1532406088042,-2,-1,2,0,-2,0,0,-1
1532406088047,2,-1,-3,0,1,0,-1,0
1532406088052,-1,-1,-1,-2,-2,0,0,2
1532406088057,-1,-1,1,1,1,0,1,0
1532406088062,0,-1,-2,0,-1,-4,-2,-3
1532406088067,0,-1,1,-2,-1,-1,2,-1
1532406088072,0,-3,-1,-2,-2,0,-1,0
1532406088077,-1,-3,-2,-2,-2,0,-1,-3
1532406088082,0,0,1,-3,0,1,1,-1
1532406088087,-2,0,-1,1,-2,-2,-3,-3
1532406088092,-2,-1,0,1,0,-2,1,-3
1532406088097,1,-2,-2,-2,1,0,-1,-1
1532406088102,-1,0,0,-2,2,1,1,1
1532406088107,-1,0,-1,-2,-3,-1,-2,0
1532406088112,-2,1,0,-1,-2,-1,-2,-1
1532406088117,-2,0,0,0,-2,-2,-2,-2
1532406088122,-2,-1,-1,0,-1,0,-2,-1
1532406088127,-1,-1,0,0,-1,1,0,-3
1532406088132,-1,-1,-1,0,0,-1,0,0
1532406088137,0,0,-3,-1,0,-1,-1,-1
1532406088142,-1,-1,-1,-2,-3,0,0,-1
1532406088147,-3,0,-2,-1,-2,0,-1,-3
1532406088152,-1,-2,-2,-1,-2,0,-1,-2
1532406088157,0,-1,0,-3,-1,0,0,1
1532406088162,0,0,-2,-1,0,-2,-1,1
1532406088167,1,-3,-1,1,1,-1,0,0
1532406088172,-1,-1,1,-3,0,-3,-3,-2
1532406088177,0,-1,0,-2,-1,0,-1,-1
1532406088182,-2,-1,-1,-1,-1,-1,-2,-2
1532406088187,-3,-3,-2,-1,-2,-1,-2,-2
1532406088192,1,0,-1,-1,-2,-1,1,0
1532406088197,-1,-1,0,0,-1,-1,-3,-1
1532406088202,-1,-1,-2,-3,-1,-1,0,-1
1532406088207,0,-2,-1,-1,1,0,-1,-2
1532406088212,-1,0,1,1,1,0,-2,0
1532406088217,0,0,-4,-1,0,-1,2,-1
1532406088222,1,2,-2,-1,-1,0,-2,-2
1532406088227,0,1,1,-1,-1,0,-2,0
1532406088232,-2,-7,-1,-1,-1,0,-4,-4
1532406088237,0,-2,2,-1,0,-2,-4,1
1532406088242,-4,3,2,0,-2,0,-1,1
1532406088247,0,1,-1,-1,-1,-1,0,-2
1532406088252,1,0,1,-2,-1,-2,-1,0
1532406088257,-2,-1,-1,2,0,-2,-1,1
1532406088262,-1,-3,-2,0,1,-2,0,0
1532406088267,-1,-3,0,-1,-3,-1,0,0
1532406088272,0,0,-3,-1,-2,-2,-1,-2
1532406088277,-2,-1,-1,0,0,-2,-1,-2
1532406088282,1,-3,-1,-2,-1,-1,1,1
1532406088287,-3,-1,0,-2,-1,0,0,-2
1532406088292,-1,0,-3,-1,0,1,2,1
1532406088297,0,0,-2,-1,-1,-1,-1,-2
1532406088302,1,0,0,1,3,6,4,-2
1532406088307,-1,0,1,0,0,-1,0,1
1532406088312,-1,-1,-6,-1,-2,0,0,-3
1532406088317,-4,-1,-1,-2,-4,-1,-3,-4
1532406088322,-1,-2,0,-1,-2,-5,-3,0
1532406088327,0,-1,-2,-1,1,-2,-1,0
1532406088332,0,2,3,0,-1,-1,-3,1
1532406088337,0,-2,0,-2,-1,-3,1,-1
1532406088342,0,-2,0,0,1,-1,1,-1
1532406088347,-1,-1,-1,-1,0,-1,0,0
1532406088352,-2,0,2,0,1,-3,1,-1
1532406088357,-2,-1,-2,-1,0,0,-2,-1
1532406088362,1,-2,-3,-2,-1,0,-4,-2
1532406088367,-2,-1,0,-1,-3,-1,-5,-3
1532406088372,2,1,-1,0,1,4,4,2
1532406088377,-2,6,2,1,1,1,-2,-1
1532406088382,2,-2,0,-1,-1,-2,1,0
1532406088387,5,1,-3,-1,-3,-2,-3,-1
1532406088392,-13,-11,-3,-2,-3,-2,-1,-5
1532406088397,-1,2,0,-1,-1,0,0,2
1532406088402,-1,1,0,0,1,-2,-3,-3
1532406088407,4,2,3,4,-2,0,1,0
1532406088412,1,1,-2,-3,-1,-2,-2,-1
1532406088417,-3,-4,-2,-2,-1,-1,0,-1
1532406088422,2,2,0,1,-2,-1,-1,-1
1532406088427,-4,-3,-2,-2,-1,-1,-1,-2
1532406088432,1,0,1,1,-1,-2,-3,-1
1532406088437,0,-1,0,-2,-1,-1,-2,-3
1532406088442,-2,0,0,-1,1,-2,-2,-1
1532406088447,0,-2,0,0,-1,0,0,-2
1532406088452,0,0,-2,-1,-1,0,-2,1
1532406088457,4,-2,-2,-3,-1,0,0,-2
1532406088462,-6,-2,0,-1,-2,-1,-1,-1
1532406088467,-1,-3,-3,-3,1,-1,0,-2
1532406088472,1,0,-1,-2,-3,-2,-1,-2
1532406088477,1,-1,-2,1,-2,1,3,-2
1532406088482,-1,-1,-1,0,0,0,0,-1
1532406088487,-3,-1,-1,-2,-1,0,0,0
1532406088492,2,-1,-2,-1,1,-2,-2,1
1532406088497,-2,-2,2,2,3,1,0,-3
1532406088502,-1,0,4,1,-4,-1,-1,-2
1532406088507,-1,0,-6,-3,-1,-2,0,0
1532406088512,-1,0,1,0,-2,-1,0,-1
1532406088517,-1,-1,-1,-1,-2,-2,-2,0
1532406088522,-1,-2,-2,-1,0,-1,-1,-1
1532406088527,-2,-1,3,0,0,0,0,1
1532406088532,-1,1,0,-1,1,-1,-2,-2
1532406088537,1,-1,-1,-2,-1,-1,-2,1
1532406088542,1,0,-2,-1,-1,1,-1,-2
1532406088547,-1,-1,0,-3,-3,-2,-1,-1
1532406088552,1,0,-2,-1,-2,-1,0,0
1532406088557,0,-1,0,-2,-2,-2,-1,-2
1532406088562,-1,-1,-3,-3,-1,-1,-3,-1
1532406088567,-1,0,0,0,-1,-1,1,-3
1532406088572,-1,0,-2,-2,-1,1,0,0
1532406088577,-1,0,4,1,2,-2,-2,-2
1532406088582,-1,-1,-6,-1,0,0,-2,-3
1532406088587,-3,-2,-2,-4,-2,-1,-3,-2
1532406088592,-1,0,0,0,1,0,-1,-1
1532406088597,-1,-1,-2,1,1,2,1,0
1532406088602,-1,-1,-2,0,0,-1,-1,-2
1532406088607,0,0,-2,-2,0,-1,-2,0
1532406088612,0,-1,1,-1,-3,-2,-3,-3
1532406088617,0,-2,-4,-1,-2,-1,0,0
1532406088622,-1,0,2,-2,-2,0,0,-2
1532406088627,0,-1,-1,1,-1,-2,-1,-2
1532406088632,-2,-1,0,1,0,-2,0,0
1532406088637,0,1,-2,0,0,-2,0,-1
1532406088642,-2,-2,-1,0,2,1,1,2
1532406088647,-1,-1,2,1,-2,-1,0,1
1532406088652,-2,-2,-6,-3,-2,-2,-3,-2
1532406088657,0,-1,0,-2,-1,-1,-1,-2
1532406088662,-2,-2,0,0,-1,-1,2,-2
1532406088667,-3,-3,0,2,1,0,-2,-3
1532406088672,-1,-1,0,-1,-2,-3,-1,-2
1532406088677,-1,0,-2,-2,-2,-1,-3,-1
1532406088682,0,-1,1,-1,-3,-2,-2,-1
1532406088687,0,0,0,0,1,-1,-2,0
1532406088692,2,0,1,-1,-1,-1,-1,-1
1532406088697,-2,-1,-1,-2,-1,1,1,-3
1532406088702,0,1,5,1,-3,2,2,2
1532406088707,1,0,-5,-1,1,-4,-4,-1
1532406088712,0,-2,-1,0,0,-2,-3,-3
1532406088717,0,-2,1,-1,-1,-1,0,0
1532406088722,-2,0,-3,-2,1,-2,-4,1
1532406088727,0,-1,0,1,0,-9,-12,-3
1532406088732,-1,-2,-4,0,1,-4,-1,0
1532406088737,1,0,0,-1,-3,-2,3,-2
1532406088742,1,1,0,0,1,-4,-7,0
1532406088747,-1,-1,-2,0,-3,-3,-6,0
1532406088752,0,-1,-2,0,3,6,5,2
1532406088757,-1,0,-3,-2,-1,-8,-8,-3
1532406088762,-1,-1,-1,0,-1,1,5,-2
1532406088767,-1,-1,-1,-1,-2,0,-2,-4
1532406088772,-1,1,-2,-2,2,-1,4,-2
1532406088777,-1,-1,-2,-4,-1,2,8,2
1532406088782,-2,0,-1,0,-1,1,9,3
1532406088787,-1,-1,0,2,-2,-8,-18,-1
1532406088792,0,0,0,1,4,5,14,-1
1532406088797,-1,0,-1,1,-1,-10,-25,-1
1532406088802,0,2,1,0,1,-5,-1,-4
1532406088807,-2,0,-1,-2,-4,-1,-9,-4
1532406088812,-2,-2,-1,-2,-1,-1,-6,-1
1532406088817,-1,0,1,2,-1,6,6,0
1532406088822,0,-3,-4,1,3,5,2,-2
1532406088827,0,-1,-1,-5,-4,-4,6,2
1532406088832,-3,1,0,-3,-2,-13,-23,-4
1532406088837,-1,1,-2,-3,-2,-2,-8,-4
1532406088842,0,-1,-2,-2,-2,9,15,2
1532406088847,-3,-1,-1,2,4,-2,-10,-2
1532406088852,1,-2,0,-1,-4,-4,-3,-3
1532406088857,-2,-3,0,0,-1,1,1,0
1532406088862,-2,-3,-1,1,1,0,-1,-3
1532406088867,0,-2,-2,-4,-1,8,10,2
1532406088872,-2,-2,-1,1,-2,-5,0,0
1532406088877,-2,0,-1,-2,-2,-4,-3,-1
1532406088882,0,0,2,1,-2,3,4,-1
1532406088887,0,-1,-6,-3,0,0,-4,-1
1532406088892,-2,1,-1,0,-2,6,10,3
1532406088897,0,1,-1,-2,0,1,6,1
1532406088902,-2,1,2,-2,1,-11,-12,1
1532406088907,-2,-1,-1,0,0,-4,-9,-2
1532406088912,0,0,1,1,0,4,5,0
1532406088917,-2,-3,1,0,-2,-12,-7,-5
1532406088922,0,0,0,0,0,0,2,1
1532406088927,0,1,2,1,2,2,5,-1
1532406088932,-1,-2,-3,-3,-3,6,6,0
1532406088937,0,-2,0,-1,-3,3,-2,-1
1532406088942,-2,-3,-4,-3,-1,3,-1,-1
1532406088947,0,1,1,0,-1,-8,-10,-4
1532406088952,-1,-1,1,-1,1,-2,5,-1
1532406088957,0,-1,1,1,1,-4,-8,-2
1532406088962,-2,-1,-1,1,0,-3,-1,0
1532406088967,-2,2,-1,-2,-3,5,9,1
1532406088972,0,-1,0,0,-2,1,-5,-2
1532406088977,-1,3,-3,-1,2,4,7,1
1532406088982,-2,0,-1,-3,1,0,1,-2
1532406088987,1,-1,0,0,2,4,6,1
1532406088992,-1,-2,0,3,-2,-6,-7,-3
1532406088997,-1,-3,-1,-3,-1,0,1,-2
1532406089002,1,-3,0,-1,-2,-2,-1,0
1532406089007,-2,-4,-1,-4,-3,-4,-2,-2
1532406089012,0,-2,0,-1,1,-1,1,1
1532406089017,-1,-4,-1,1,-2,2,0,-2
1532406089022,0,-1,-1,1,0,-1,-2,-1
1532406089027,-2,-4,-1,-1,0,2,0,-1
1532406089032,0,-4,-1,-4,-8,-4,-3,-4
1532406089037,-1,-4,-4,-1,1,2,3,-1
1532406089042,0,-1,-2,0,-3,-3,-4,-1
1532406089047,0,-1,0,1,1,2,2,1
1532406089052,-1,-1,-2,-2,-1,0,-3,-1
1532406089057,-2,-1,-1,-1,0,0,1,1
1532406089062,-2,-3,-2,-1,-2,0,-1,-1
1532406089067,0,0,0,1,-2,0,-1,-1
1532406089072,1,1,-2,-2,2,4,0,1
1532406089077,1,0,2,1,-2,-5,-11,-4
1532406089082,-1,-2,-1,-1,0,2,2,-2
1532406089087,-2,-3,-1,-1,-5,-4,-5,-2
1532406089092,0,-1,1,1,3,1,2,-2
1532406089097,-1,-1,-2,0,3,4,4,1
1532406089102,0,0,-2,-1,-1,-1,-2,0
1532406089107,-1,-2,-1,0,-1,1,1,-1
1532406089112,-2,-1,-1,-4,-2,1,-2,-1
1532406089117,1,0,-1,0,-1,-3,0,0
1532406089122,-2,-1,-1,-1,-2,-1,-1,-3
1532406089127,0,-1,-1,0,-1,-7,-10,-3
1532406089132,0,0,-1,-1,-1,-4,-3,-1
1532406089137,-2,0,0,0,3,3,4,-1
1532406089142,1,-1,-1,-3,-2,-3,0,-2
1532406089147,-1,2,0,-2,0,1,2,-2
1532406089152,-1,0,-2,0,2,0,-3,-3
1532406089157,0,0,-2,-2,-4,-2,-1,-1
1532406089162,0,0,1,-1,-2,-2,1,-1
1532406089167,0,1,0,-1,1,0,-1,-3
1532406089172,-2,0,-1,0,-8,-6,-5,-2
1532406089177,0,-1,-1,0,0,1,0,-3
1532406089182,0,-1,0,1,1,0,-3,0
1532406089187,-2,-1,-2,0,0,-1,-4,-1
1532406089192,-1,-1,0,0,1,1,-2,-1
1532406089197,0,-2,-1,-2,-8,-6,-2,0
1532406089202,-1,0,-2,-2,-6,-5,-4,-1
1532406089207,-1,-2,0,0,4,0,2,-2
1532406089212,1,1,0,0,2,0,-3,-3
1532406089217,-4,-1,-1,-1,0,-3,-1,0
1532406089222,0,-2,0,0,1,7,2,-3
1532406089227,0,-1,-1,1,-5,-3,-2,1
1532406089232,-1,1,0,1,1,0,4,-2
1532406089237,-1,-2,0,0,2,1,-1,1
1532406089242,0,0,-2,-1,1,-5,-3,-1
1532406089247,1,0,1,-1,1,2,2,-1
1532406089252,-1,-1,-1,0,0,-1,-5,-2
1532406089257,-2,0,-1,2,-2,-1,-2,-1
1532406089262,0,-1,0,-2,-3,-3,-3,-1
1532406089267,-1,-3,-3,-1,-3,2,0,0
1532406089272,0,-3,-1,-1,0,-1,-2,-1
1532406089277,-2,-2,-1,-1,0,0,0,-3
1532406089282,0,1,-1,0,1,0,-1,2
1532406089287,-1,-1,0,-1,-2,-1,0,2
1532406089292,-1,-1,-1,0,-1,-1,-1,1
1532406089297,-1,0,-1,-2,-1,0,-2,-1
1532406089302,-2,-2,-1,1,0,-2,0,-2
1532406089307,1,-3,-1,-1,-1,0,0,0
1532406089312,-1,-1,-1,-1,1,0,1,0
1532406089317,0,0,-1,-2,-1,0,-1,-1
1532406089322,-1,-1,0,-1,-1,-2,-2,-1
1532406089327,0,0,0,0,0,1,1,0
1532406089332,0,-2,-2,-3,-3,-2,-1,1
1532406089337,1,-2,-1,-2,2,-2,1,-2
1532406089342,0,-2,-1,-2,-1,-1,0,-1
1532406089347,-2,0,-2,-2,-1,0,-1,-2
1532406089352,1,-2,2,1,-2,-1,-1,-1
1532406089357,-2,-1,-1,-3,0,1,-2,0
1532406089362,0,0,-1,-1,-2,-1,0,1
1532406089367,-1,-2,-1,0,-1,-1,0,-2
1532406089372,0,0,-1,0,-1,0,0,1
1532406089377,0,-1,0,0,0,1,0,1
1532406089382,-1,0,-1,-2,-1,-3,-1,-1
1532406089387,-1,0,-1,-1,1,1,1,-1
1532406089392,-2,0,0,-2,-3,0,-1,-3
1532406089397,0,1,-1,-1,-2,0,-1,-1
1532406089402,0,0,0,0,0,-1,-1,-2
1532406089407,1,0,0,-1,-1,-2,-1,1
1532406089412,-2,-1,-1,-1,-1,0,0,-2
1532406089417,1,0,2,1,-4,-2,-2,0
1532406089422,-2,-1,-2,-2,1,0,-2,0
1532406089427,-2,-1,-3,0,-2,-1,-1,1
1532406089432,1,-1,-1,-1,-2,0,-2,1
1532406089437,0,-1,-2,1,-1,-1,-2,-3
1532406089442,-2,-1,-1,0,-1,-2,-3,-3
1532406089447,-1,-1,0,2,2,0,3,-2
1532406089452,-2,1,0,-2,-2,-1,0,1
1532406089457,-1,1,0,0,0,0,-1,-1
1532406089462,0,-1,-1,-1,1,0,-2,0
1532406089467,1,-3,-1,-4,-7,-2,-2,-1
1532406089472,-2,0,0,1,-1,-1,0,-2
1532406089477,-1,0,-1,-1,0,0,-4,-1
1532406089482,-1,-1,0,0,-3,-2,-1,-2
1532406089487,-1,-1,-3,-1,0,-1,-4,-3
1532406089492,1,2,-1,2,4,3,6,2
1532406089497,-1,0,-2,-3,0,-2,-3,-2
1532406089502,0,-2,-1,0,1,1,2,-1
1532406089507,-1,-1,-2,-1,-2,-2,-4,-4
1532406089512,-2,-1,0,-1,-2,-2,-3,-3
1532406089517,-1,-1,0,-3,-2,0,0,-1
1532406089522,-1,-1,0,0,-3,0,1,0
1532406089527,-1,-1,1,0,-3,0,1,0
1532406089532,0,-1,-1,0,0,-4,-2,-2
1532406089537,-1,-3,0,0,-1,0,-2,0
1532406089542,-1,-3,0,-1,-1,0,-2,-1
1532406089547,0,1,0,0,0,-2,1,-1
1532406089552,-1,-1,0,-1,0,-1,-1,-1
1532406089557,0,-1,-1,-1,-1,-3,-1,-1
1532406089562,0,-1,-1,-2,-1,-3,-4,-2
1532406089567,-1,1,1,0,1,-1,1,-1
1532406089572,0,0,-1,0,-2,0,-2,-2
1532406089577,0,-1,-2,1,0,-1,0,-2
1532406089582,-2,0,0,0,1,0,1,-1
1532406089587,1,-1,-2,-1,2,0,-1,0
1532406089592,-2,0,-1,-3,-3,0,-4,-2
1532406089597,0,-1,0,-1,0,-1,1,-1
1532406089602,-3,-2,-1,-2,-1,-2,0,-1
1532406089607,1,-1,1,0,-1,1,-1,1
1532406089612,0,0,-2,0,-2,-2,0,-1
1532406089617,0,-1,-1,-2,-2,-2,-2,-3
1532406089622,0,0,0,-1,-4,0,-1,-1
1532406089627,-2,-1,-2,-1,1,-3,-1,-1
1532406089632,-1,-2,-2,-1,1,0,-1,-3
1532406089637,1,0,-1,-2,-1,1,0,-1
1532406089642,1,0,-1,1,-1,-1,-2,-1
1532406089647,-2,-2,0,-4,-2,-2,-4,0
1532406089652,0,1,0,-1,0,-2,0,-1
1532406089657,-2,-1,1,1,2,0,3,0
1532406089662,0,-1,-1,0,-1,-1,2,-1
1532406089667,-1,-2,-1,-1,-1,1,2,-1
1532406089672,-2,0,1,-1,-1,-2,-3,-3
1532406089677,0,0,1,-1,-1,-3,-3,-1
1532406089682,-1,-1,-1,-1,-1,0,-2,0
1532406089687,-1,-2,-1,-2,-2,-1,-1,-2
1532406089692,-2,0,0,-1,-3,-1,0,-3
1532406089697,-1,-2,0,0,-2,0,0,-2
1532406089702,0,-1,-1,0,-1,-1,-3,-1
1532406089707,0,1,-1,0,0,-1,-2,-1
1532406089712,-2,-4,-2,-1,1,1,-1,0
1532406089717,-3,-2,-3,0,0,-1,-3,-2
1532406089722,0,0,0,0,-1,-1,0,1
1532406089727,-2,0,-1,-2,0,-3,-4,-4
1532406089732,1,0,-1,-1,-1,-1,0,-2
1532406089737,-1,0,-1,0,-1,0,1,0
1532406089742,-1,-1,2,-1,-2,1,-2,-5
1532406089747,-1,0,0,0,-2,-2,0,1
1532406089752,0,0,-1,-1,-2,-1,-3,-1
1532406089757,-1,-1,-1,-1,-1,1,-2,0
1532406089762,2,0,-1,-2,-2,-1,-2,-1
1532406089767,-3,-2,-2,-1,-1,-2,-1,-2
1532406089772,-1,0,1,0,-2,-1,0,-1
1532406089777,0,0,-1,0,-1,0,-2,-1
1532406089782,0,-3,-2,0,-1,0,0,0
1532406089787,0,-1,-1,-2,-1,0,-1,-2
1532406089792,-1,-1,-1,-1,-1,0,-1,0
1532406089797,0,0,-1,-1,0,-2,-1,1
1532406089802,-2,1,0,-1,-1,0,-2,0
1532406089807,0,-1,0,1,-1,-1,0,-3
1532406089812,0,-2,-2,-2,-1,-3,-2,-2
1532406089817,0,0,-1,-1,-2,-1,-1,-1
1532406089822,-1,0,-1,-1,-1,0,-2,-1
1532406089827,-1,0,-1,0,-1,-2,-1,-2
1532406089832,0,-2,-1,0,-1,-2,-3,-2
1532406089837,0,0,-1,-1,1,-1,1,1
1532406089842,-1,-1,0,-1,-1,-2,1,-1
1532406089847,1,-1,-1,-2,0,0,-1,-1
1532406089852,0,-1,-2,-2,-1,-1,-1,0
1532406089857,-1,-1,0,-1,1,1,-2,-1
1532406089862,0,-1,0,-1,0,1,-1,-1
1532406089867,0,1,-1,1,-1,2,1,-1
1532406089872,-1,0,0,-1,0,0,0,-1
1532406089877,-2,1,-2,-1,-3,-1,1,-4
1532406089882,-3,1,0,0,-1,0,-1,1
1532406089887,-1,-2,0,0,-2,0,-1,0
1532406089892,-1,-3,-1,0,0,-1,-1,-1
1532406089897,0,-1,0,0,0,-2,0,1
1532406089902,-2,-2,-1,-1,0,-1,1,-3
1532406089907,0,-2,-1,0,0,1,1,0
1532406089912,-2,-1,-2,1,-2,1,0,-1
1532406089917,-1,-3,-1,-2,-1,-1,-2,1
1532406089922,2,-1,-1,0,0,-1,-2,-1
1532406089927,0,0,0,1,2,0,-2,-1
1532406089932,1,-1,-2,-2,-3,-2,-1,-1
1532406089937,-3,0,0,-2,0,0,0,-3
1532406089942,-1,-1,-3,-2,-2,-1,-3,0
1532406089947,-2,0,-1,0,-2,0,-1,-1
1532406089952,-2,0,0,0,0,1,-1,-1
1532406089957,0,1,-2,1,1,-2,-1,-3
1532406089962,-1,-1,0,-2,0,-1,0,-2
1532406089967,-2,0,-1,-2,-1,-1,-3,-2
1532406089972,-2,0,1,-1,-1,-1,-1,0
1532406089977,0,-1,-1,0,-2,-1,0,0
1532406089982,-2,-1,0,-2,-1,-1,-1,-1
1532406089987,0,-1,-2,-1,-1,-2,-1,-1
1532406089992,0,0,-1,-2,0,0,0,-2
1532406089997,-1,-1,0,-1,-1,1,-2,-1
1532406090002,-2,0,0,0,1,0,-2,-2
1532406090007,0,0,0,-2,-1,-2,-3,1
1532406090012,-1,-2,1,-1,1,-2,0,-1
1532406090017,0,-1,-1,-1,-2,1,1,-2
1532406090022,0,-2,0,0,1,-1,0,1
1532406090027,-2,1,-1,-1,-4,-1,0,0
1532406090032,-1,0,0,0,-1,-1,-1,1
1532406090037,-2,-1,-2,-1,-2,-1,-2,-1
1532406090042,0,-2,-1,1,0,-1,0,-2
1532406090047,-1,-1,-1,-1,-1,-2,0,-2
1532406090052,-1,0,0,1,0,-1,-1,-3
1532406090057,-1,-1,-3,-1,-3,-1,-2,-1
1532406090062,-2,0,-1,0,-1,-1,-4,0
1532406090067,-1,-1,1,-1,-1,-2,0,-2
1532406090072,1,-2,-2,3,-1,-1,0,0
1532406090077,-1,-2,1,-1,1,-1,-2,-1
1532406090082,-2,-2,-1,-3,-3,0,-1,0
1532406090087,0,-2,-1,0,0,0,-1,-1
1532406090092,0,-1,0,-1,-2,-1,-2,0
1532406090097,1,1,-1,0,-2,-1,1,-1
1532406090102,0,1,-1,0,-1,-1,0,-1
1532406090107,-1,0,-1,-2,-1,0,0,0
1532406090112,-1,-1,-1,-3,0,-1,-2,-1
1532406090117,-1,-2,0,-1,-1,-2,-1,1
1532406090122,-1,0,1,0,0,-2,1,-1
1532406090127,0,0,-1,-1,1,3,1,-1
1532406090132,0,1,-1,0,0,0,1,-1
1532406090137,-2,-1,0,1,-1,-2,-3,-2
1532406090142,-2,-3,-2,0,-1,0,1,-1
1532406090147,-1,-2,-2,-1,-2,-4,-1,0
1532406090152,0,-1,-2,-2,1,-1,-1,-2
1532406090157,-2,-1,0,-1,0,0,0,-1
1532406090162,0,0,0,-1,-2,-1,-1,-1
1532406090167,0,-2,-1,1,-1,0,-1,-2
1532406090172,-1,1,-2,-2,-1,0,0,0
1532406090177,-1,-2,-1,-1,-2,-1,-2,-2
1532406090182,-1,0,-2,-2,-2,-1,-1,1
1532406090187,0,0,0,-1,-2,-2,-2,-3
1532406090192,-2,-1,2,-2,-1,-1,-1,-2
1532406090197,1,-2,0,-2,-2,-2,0,0
1532406090202,0,0,-1,-1,1,0,-2,-2
1532406090207,0,-2,0,0,-2,0,-2,1
1532406090212,-2,-1,0,0,1,-2,0,-1
1532406090217,0,0,-1,1,1,0,1,-2
1532406090222,-1,0,-1,-1,0,-1,-1,-1
1532406090227,-1,0,-1,-2,-2,0,0,-4
1532406090232,-1,-1,-1,-1,-1,-1,-3,-4
1532406090237,-1,0,0,-1,-2,0,-2,0
1532406090242,0,0,1,-1,1,-1,-2,0
1532406090247,0,-1,-2,-1,0,-2,-2,0
1532406090252,0,1,-1,1,1,-1,-1,1
1532406090257,0,-1,-3,-1,-2,-1,-1,0
1532406090262,1,-2,0,-2,-2,-1,0,-1
1532406090267,-1,-1,-1,0,0,-1,-1,0
1532406090272,-2,-1,-1,-1,-2,-1,-1,-1
1532406090277,-1,0,0,2,-1,-1,-1,-2
1532406090282,-2,-2,-1,1,1,1,-2,-2
1532406090287,0,0,-2,-1,0,-1,-1,-2
1532406090292,1,-1,-1,-1,-3,0,-3,-1
1532406090297,-2,0,-1,-1,-1,0,-2,-3
1532406090302,1,-1,-3,-1,-3,-1,0,0
1532406090307,-2,1,0,0,-1,-1,1,-2
1532406090312,-2,-1,-1,-2,0,-1,0,0
1532406090317,0,-1,-1,-1,0,-1,-2,0
1532406090322,-1,1,-1,-1,0,-1,1,-1
1532406090327,-1,0,0,-1,-1,1,-4,-3
1532406090332,-2,-3,-1,0,-1,0,1,-2
1532406090337,1,0,-1,0,-2,0,1,-2
1532406090342,-1,-1,-1,-2,-2,0,-1,0
1532406090347,-1,0,-1,1,-1,0,-1,2
1532406090352,-2,-1,-1,-1,-1,0,-1,0
1532406090357,1,-1,-1,-1,0,-1,-1,0
1532406090362,0,-1,0,-1,0,-1,0,0
1532406090367,1,-2,0,-1,-2,-1,0,0
1532406090372,0,0,0,1,0,0,-2,-2
1532406090377,-1,-2,-1,-1,1,-1,-1,2
1532406090382,0,0,-1,0,-1,-1,-2,-2
1532406090387,-2,-2,-2,-2,-2,-1,-1,-1
1532406090392,-1,0,0,0,1,0,-1,0
1532406090397,-1,-2,1,-2,-2,-1,-1,0
1532406090402,-1,-1,0,-1,-1,-1,0,-2
1532406090407,-1,-2,-1,0,-1,-2,1,-1
1532406090412,0,-1,-2,-2,-3,0,-1,0
1532406090417,1,0,1,0,-1,0,-1,-2
1532406090422,-2,-1,0,1,-1,-1,0,0
1532406090427,0,1,-1,1,1,-1,-1,-2
1532406090432,-2,-2,-3,0,-1,-1,0,0
1532406090437,-1,-1,-1,-1,-2,-1,0,-2
1532406090442,1,1,-1,0,-3,-3,-2,-2
1532406090447,-1,-1,0,-3,-1,-1,1,0
1532406090452,0,-1,-1,-2,-1,-1,0,-1
1532406090457,0,0,-3,-1,0,-2,-1,-2
1532406090462,-1,-2,0,1,0,0,0,0
1532406090467,-1,-2,0,-1,-1,-2,1,1
1532406090472,0,-2,-2,-2,-2,-1,-2,-1
1532406090477,0,-1,1,-1,-1,-2,1,-1
1532406090482,0,-1,-1,0,0,0,-2,0
1532406090487,-2,-1,0,-2,-1,-1,0,-3
1532406090492,-2,-1,1,-1,-1,-1,1,-3
1532406090497,0,-2,-3,1,-2,-1,-1,-1
1532406090502,0,-2,0,-1,-1,0,-2,1
1532406090507,0,-1,0,0,-2,0,-3,-1
1532406090512,-1,-2,-1,-1,-2,0,-1,0
1532406090517,-2,0,-1,0,-2,1,-2,-2
1532406090522,-1,-2,-1,-2,1,-1,-1,-1
1532406090527,0,-1,-1,-1,-1,-2,0,-1
1532406090532,0,1,0,0,-1,0,0,-1
1532406090537,-1,1,0,0,1,-3,-1,0
1532406090542,0,0,-2,-1,-3,-1,1,-4
1532406090547,0,0,0,-1,0,0,-1,0
1532406090552,-1,-3,-1,0,0,-1,-1,-1
1532406090557,-1,-3,0,-1,-1,0,1,1
1532406090562,-2,-2,-2,0,0,-1,-3,-1
1532406090567,-2,-1,-1,-2,-3,0,-2,-3
1532406090572,-1,0,-1,-1,-2,-2,1,-2
1532406090577,-1,0,-1,-1,-1,1,-1,-2
1532406090582,-1,0,-1,-1,-2,-2,0,-2
1532406090587,1,-1,-2,-1,-1,0,0,-1
1532406090592,-1,-1,1,0,-2,-1,-2,-2
1532406090597,1,-1,-1,-3,-1,-1,0,-1
1532406090602,0,0,0,0,0,-1,1,1
1532406090607,0,-1,-2,-1,0,0,-2,0
1532406090612,0,0,-2,-1,-1,-2,0,0
1532406090617,-2,-2,0,1,-1,-3,-1,-2
1532406090622,-1,0,1,0,-2,-1,-2,0
1532406090627,-1,0,0,0,-1,-1,1,-1
1532406090632,0,-1,-1,0,0,1,0,-1
1532406090637,0,0,-1,-1,-1,-1,-1,-1
1532406090642,0,-1,-1,-1,-1,-1,0,0
1532406090647,-1,0,-1,0,1,-1,1,1
1532406090652,-1,0,0,-1,1,-1,0,-1
1532406090657,-2,-1,-1,-1,-1,-1,-1,-2
1532406090662,0,0,-1,0,-1,2,-1,-3
1532406090667,-2,0,0,0,-2,0,0,-1
1532406090672,-1,-1,-1,0,1,-2,-2,-1
1532406090677,-1,-1,0,-1,0,-1,-1,0
1532406090682,-2,-1,1,0,0,-1,-1,-1
1532406090687,-1,-2,-2,-1,-1,0,-2,-2
1532406090692,0,1,-1,0,-1,-1,0,0
1532406090697,-1,0,-2,-2,-1,1,-2,-1
1532406090702,0,0,-1,-3,-1,-1,-1,-2
1532406090707,0,1,-2,-1,1,-1,-2,-4
1532406090712,0,0,-1,-2,-1,-1,-1,-3
1532406090717,-1,0,-1,-1,-1,-1,-2,0
1532406090722,-3,0,-1,-1,-1,-3,0,-4
1532406090727,2,-1,-2,0,2,1,-3,0
1532406090732,-1,-1,-2,-2,-2,1,0,0
1532406090737,-2,-2,1,-1,-1,0,0,2
1532406090742,-2,-3,-1,-3,1,-1,-3,-3
1532406090747,-1,-2,0,0,-1,-1,-1,0
1532406090752,0,0,-2,0,-1,0,-1,-3
1532406090757,0,1,-1,0,-1,-1,-1,-1
1532406090762,-1,-2,1,0,-1,0,-2,2
1532406090767,-1,-1,-1,-1,-1,-1,-1,0
1532406090772,-1,-1,-2,0,-2,0,-1,-1
1532406090777,-1,1,0,-1,1,-1,-2,-3
1532406090782,0,-1,-1,-1,0,1,2,1
1532406090787,-2,-2,0,-1,0,-2,-1,-1
1532406090792,-1,0,1,-1,1,-2,-1,0
1532406090797,-2,-2,-1,-1,-1,0,-1,1
1532406090802,-1,-1,-1,0,-2,-2,-1,0
1532406090807,-1,-1,-1,-1,-1,-1,0,-1
1532406090812,0,-2,1,-1,-2,-1,-1,-1
1532406090817,-2,0,-1,1,-1,-2,-1,-3
1532406090822,0,-1,-1,-1,2,-1,1,-1
1532406090827,-1,-3,0,-1,-1,0,0,-2
1532406090832,-1,-1,0,-2,-2,-1,-2,-1
1532406090837,0,0,0,0,-2,-1,-1,-2
1532406090842,0,-1,-3,0,-2,-1,0,-2
1532406090847,-2,-2,-2,-1,2,-1,0,-2
1532406090852,-2,-2,0,-2,0,-2,0,-1
1532406090857,1,-1,-1,0,0,1,-1,1
1532406090862,1,0,-1,-1,-2,0,-2,-1
1532406090867,-1,1,0,0,0,-2,0,-1
1532406090872,-1,1,-1,0,0,1,-1,-1
1532406090877,-2,-2,-1,-2,-2,-2,-1,-2
1532406090882,1,0,-2,-1,-1,-1,-2,-1
1532406090887,-1,-2,1,0,-2,-1,-1,0
1532406090892,1,-1,0,1,1,0,-2,1
1532406090897,-1,-2,-1,-1,1,-1,0,-1
1532406090902,-1,-2,-2,0,-1,-1,-1,-3
1532406090907,-3,-1,0,-1,-1,0,-1,-2
1532406090912,0,1,-1,0,-2,-1,0,0
1532406090917,0,1,1,-2,-1,0,1,-1
1532406090922,-3,-2,-2,1,-2,-1,-1,-1
1532406090927,0,0,-2,-2,-2,-1,-1,-2
1532406090932,-1,-2,1,-2,-1,-1,-3,0
1532406090937,-1,0,0,1,-3,-1,-1,-2
1532406090942,-2,-1,-1,-2,0,1,0,0
1532406090947,2,0,-1,-1,-2,0,-2,1
1532406090952,-1,-2,-2,-1,-2,0,-1,-2
1532406090957,1,0,-2,1,-1,0,-2,-1
1532406090962,-1,-1,0,-2,-2,0,-1,1
1532406090967,-1,0,-1,-1,-1,-2,-1,-1
1532406090972,-1,-1,0,-2,-1,-2,0,-4
1532406090977,-1,-2,0,-2,-1,0,0,-4
1532406090982,1,-1,0,-1,-1,-2,-1,0
1532406090987,-1,-2,-2,-1,0,-1,0,0
1532406090992,-1,1,-2,-1,-1,-2,0,0
1532406090997,0,-1,-3,0,-2,-1,0,-2
1532406091002,-2,0,0,-1,-1,-1,0,-1
1532406091007,-1,-1,-1,2,-1,0,0,-1
1532406091012,0,-2,-1,0,-1,0,-2,-2
1532406091017,-1,-2,-1,1,-1,-1,-2,1
1532406091022,-1,0,0,1,0,-1,1,-2
1532406091027,-1,-1,-1,-2,0,0,0,-1
1532406091032,-1,-1,0,1,0,-1,0,-2
1532406091037,-2,-1,-1,-3,-2,-1,-2,-2
1532406091042,0,0,-2,0,-1,-1,-1,-1
1532406091047,0,-1,0,0,-1,0,-1,-2
1532406091052,-3,-2,0,3,0,-2,0,-1
1532406091057,0,-1,-3,-3,0,-1,0,-1
1532406091062,-1,-2,1,0,0,0,-2,0
1532406091067,0,0,1,-1,-1,-1,-2,-1
1532406091072,0,-2,-3,-1,0,0,-1,-2
1532406091077,0,-1,0,2,-1,-1,0,-1
1532406091082,0,-2,-3,-1,0,-1,-4,-1
1532406091087,0,-1,0,0,0,-2,-1,-2
1532406091092,-1,1,0,-2,-2,0,0,1
1532406091097,-2,0,0,-1,-1,0,-1,-3
1532406091102,1,0,-3,-2,-3,0,-1,-1
1532406091107,0,1,0,-1,-2,-2,-2,0
1532406091112,1,0,-2,-1,-1,-1,-1,-3
1532406091117,-1,-1,0,-2,0,-2,-1,0
1532406091122,-2,-1,1,0,0,0,0,-2
1532406091127,-1,-1,-2,0,1,-1,0,-1
1532406091132,-1,-1,-2,-1,-1,1,0,0
1532406091137,0,-2,-1,-1,0,-1,-1,-1
1532406091142,-1,-2,1,-2,0,0,1,0
1532406091147,-1,-1,-2,0,-2,-1,0,-2
1532406091152,-1,0,0,0,1,0,0,0
1532406091157,1,1,-3,-1,-1,0,0,-1
1532406091162,0,0,1,-1,-2,-1,-1,0
1532406091167,-2,-1,-1,-3,-1,-1,-1,0
1532406091172,-1,-1,1,0,-1,1,0,-2
1532406091177,-1,-1,0,0,-1,-2,-2,0
1532406091182,-2,2,0,-1,-1,-1,0,0
1532406091187,-1,1,-2,-1,0,-1,1,2
1532406091192,0,-1,-1,-2,1,-1,-1,-1
1532406091197,0,0,-1,-2,-1,-1,-3,-2
1532406091202,0,0,-1,0,0,-1,0,0
1532406091207,0,1,0,0,-2,0,-1,-2
1532406091212,-2,-1,-1,0,-2,-2,-1,-3
1532406091217,-1,-1,1,0,-1,-2,1,-2
1532406091222,-1,-2,-1,1,-1,-3,-1,-2
1532406091227,-1,0,-1,0,-1,0,1,-2
1532406091232,-1,-1,-1,-1,2,-1,-1,2
1532406091237,-1,1,0,-1,0,0,-2,-1
1532406091242,0,-1,-2,-3,-2,0,0,-1
1532406091247,-2,-1,0,-2,0,-1,-1,-4
1532406091252,0,0,0,0,0,-1,0,0
1532406091257,0,-1,-1,0,-1,0,-1,-1
1532406091262,0,-1,-1,-2,2,-1,-1,0
1532406091267,0,-1,1,0,-2,-1,-1,-1
1532406091272,0,0,-1,0,-1,1,-1,1
1532406091277,-1,0,-2,-2,-1,1,0,2
1532406091282,-2,1,0,-1,-4,-1,0,-2
1532406091287,1,-1,-1,0,0,-2,-1,-1
1532406091292,-1,-2,-1,-1,0,-1,-1,-2
1532406091297,-1,-2,-2,-1,-2,-1,0,-2
1532406091302,0,-1,0,-2,1,-1,-1,-1
1532406091307,-1,-1,-1,-2,0,0,0,-1
1532406091312,-1,-2,0,-2,-3,0,-2,-1
1532406091317,0,-2,-1,1,1,1,-2,-1
1532406091322,-2,-1,-1,-1,-3,-2,1,-2
1532406091327,0,-1,1,-2,-1,-1,-1,-2
1532406091332,-1,1,0,-2,-1,-2,-2,0
1532406091337,1,-1,0,0,-2,-1,0,0
1532406091342,-1,0,0,-1,-1,1,-2,0
1532406091347,-1,-1,-3,0,-2,-1,-2,-1
1532406091352,-1,0,0,0,-1,-2,-2,-2
1532406091357,-2,-1,0,0,0,-1,-2,-2
1532406091362,-1,-1,-3,1,0,0,-2,-2
1532406091367,0,-1,-1,-1,-2,0,0,-1
1532406091372,0,-2,-1,-1,-1,0,1,0
1532406091377,0,-1,-1,-2,0,0,-2,-1
1532406091382,-2,-1,0,0,-2,-1,-2,-1
1532406091387,0,-2,0,-2,-1,1,-2,-1
1532406091392,-3,-1,-1,0,0,-2,-1,0
1532406091397,-1,-1,-2,-2,-3,-1,1,-1
1532406091402,-1,-1,-2,0,1,0,0,1
1532406091407,-1,-2,0,0,1,-1,0,0
1532406091412,1,0,-1,-1,-2,1,-1,0
1532406091417,-1,0,1,0,-1,-1,-1,-1
1532406091422,0,-2,-2,0,-1,0,0,-2
1532406091427,-1,0,-2,-1,-1,-2,0,-1
1532406091432,-1,0,-2,-2,-2,-1,-3,-4
1532406091437,0,1,1,-1,-1,-1,1,0
1532406091442,0,-2,-1,-1,-1,-1,1,0
1532406091447,0,0,-1,-1,0,0,0,1
1532406091452,-2,-1,-1,0,-1,-1,0,-1
1532406091457,-1,-1,-3,-2,-1,1,-2,-2
1532406091462,-2,-1,-1,-3,0,0,-1,0
1532406091467,-2,-2,-2,-1,-3,-1,-2,-1
1532406091472,0,-1,0,0,-2,-1,0,-1
1532406091477,-2,-1,0,-1,0,-1,-2,0
1532406091482,0,-1,1,-2,-1,-2,-2,-1
1532406091487,0,-2,-3,0,-1,0,-2,-1
1532406091492,1,-1,-1,-2,0,-1,-2,0
1532406091497,0,-2,-1,0,1,-1,-1,-1
1532406091502,-1,0,-1,-2,-1,-1,-1,-2
1532406091507,-1,-1,1,-1,-2,-2,0,-1
1532406091512,0,-1,-1,0,-1,-1,-1,0
1532406091517,-1,-2,-1,0,-2,-1,1,-2
1532406091522,-1,1,-1,-2,-2,-1,-1,1
1532406091527,0,-1,0,-2,-1,-2,1,-1
1532406091532,0,0,0,1,-1,0,-3,-2
1532406091537,-1,1,-1,0,-2,-2,0,1
1532406091542,-1,-3,2,0,0,1,-1,-2
1532406091547,-1,0,-1,0,-1,-2,-2,-1
1532406091552,0,-1,0,-2,1,-1,1,-2
1532406091557,0,-1,-1,-1,0,0,-1,1
1532406091562,0,-1,-1,-3,-1,-1,0,-2
1532406091567,-2,0,-1,-1,-1,0,-1,0
1532406091572,0,-1,-2,-1,-3,-2,1,0
1532406091577,0,0,-1,-1,-2,-1,-1,1
1532406091582,-1,0,-2,0,-2,-1,-1,-3
1532406091587,-1,-1,-1,-1,0,0,-1,0
1532406091592,-1,0,0,-3,-1,-1,-1,-2
1532406091597,-1,1,-1,-1,1,-2,-1,-3
1532406091602,0,-1,0,0,1,-1,-2,-1
1532406091607,0,-1,0,0,-2,0,-3,-2
1532406091612,0,-2,-1,0,-1,-1,0,1
1532406091617,0,-3,-2,-3,0,-1,-1,-3
1532406091622,-1,-1,0,0,-2,-1,-1,-2
1532406091627,0,-2,-1,0,0,0,-1,-1
1532406091632,0,-3,0,-1,0,-1,-1,0
1532406091637,-1,-1,-1,-1,0,-2,1,-1
1532406091642,-1,-2,-1,-1,0,-2,0,0
1532406091647,-1,-1,0,1,-2,-2,-1,-1
1532406091652,-1,-2,-1,-2,-3,-1,-1,-1
1532406091657,-1,0,0,-1,-2,0,-2,-2
1532406091662,-2,-1,-1,-1,0,-1,-1,0
1532406091667,0,0,-1,0,2,-1,-1,1
1532406091672,-1,1,0,-1,-1,0,0,0
1532406091677,-2,-2,-1,0,-2,0,-1,-2
1532406091682,-1,0,0,0,-2,1,1,-1
1532406091687,-1,0,-2,-1,0,-1,0,-1
1532406091692,-1,-2,-1,-2,-1,-1,-1,-3
1532406091697,0,-1,-1,-2,0,-1,0,0
1532406091702,-2,0,-2,-1,-1,0,0,-1
1532406091707,0,-3,0,-3,-1,-1,-2,0
1532406091712,0,-1,0,0,0,-1,-1,-1
1532406091717,-1,0,0,1,0,-1,-1,-1
1532406091722,0,0,-3,-1,-1,1,1,-1
1532406091727,0,0,-1,-1,-1,-2,0,-1
1532406091732,0,-1,-2,-4,0,0,-2,-2
1532406091737,1,0,0,-1,-2,-3,-1,-1
1532406091742,1,-1,-1,1,-1,-2,-3,-1
1532406091747,-1,-1,1,-3,0,0,-1,1
1532406091752,-1,-1,1,0,0,-2,-3,-1
1532406091757,0,-2,-1,-1,0,0,0,-1
1532406091762,-1,0,-1,-2,-1,-1,0,-2
1532406091767,-1,-1,-1,0,-1,-2,0,-1
1532406091772,-3,-2,-2,0,-3,0,-2,-1
1532406091777,-3,1,0,-2,-1,0,-2,-4
1532406091782,0,-2,2,1,-1,0,-1,-2
1532406091787,-1,-2,-1,-1,1,-2,0,-2
1532406091792,0,1,-1,-2,-1,0,-2,-2
1532406091797,-2,-2,-1,-1,0,-1,0,-2
1532406091802,-1,-1,-2,-2,-2,-1,-1,1
1532406091807,-1,0,0,-1,-1,-2,-1,-2
1532406091812,-1,-1,0,0,-1,-2,1,0
1532406091817,0,0,-1,-2,-2,1,-2,-2
1532406091822,-1,-1,-2,1,0,-1,-2,-4
1532406091827,-1,0,0,-1,-2,1,-1,-2
1532406091832,-1,1,-2,-1,-1,0,0,-1
1532406091837,-1,0,-1,0,0,0,-2,0
1532406091842,-2,-1,0,-2,-2,-2,0,-2
1532406091847,-2,-1,-1,-2,-2,-2,-2,-2
1532406091852,-1,-1,0,2,-2,0,1,-1
1532406091857,-1,-1,-1,-1,-4,0,-1,-2
1532406091862,-1,-1,-2,-2,-1,0,-2,0
1532406091867,0,-2,0,1,-2,1,-1,-1
1532406091872,-1,1,-1,-1,0,-3,-3,1
1532406091877,1,-2,0,-2,-1,-2,-1,0
1532406091882,-1,0,-2,-1,-1,-1,0,0
1532406091887,-2,0,-1,-1,-1,0,-1,-5
1532406091892,-1,-1,1,1,0,-3,1,1
1532406091897,0,-1,-1,-1,-1,1,-1,0
1532406091902,-2,-1,2,-1,-1,1,0,-1
1532406091907,-3,-1,-2,-1,0,-1,-2,1
1532406091912,0,0,-1,0,1,0,-2,0
1532406091917,-2,-2,0,0,-2,1,0,-2
1532406091922,-1,-2,-2,1,-2,-1,-1,-2
1532406091927,-1,0,0,-1,1,-1,0,1
1532406091932,-1,0,-1,0,-2,-1,-1,-1
1532406091937,-1,-2,0,-2,-1,-1,-1,-2
1532406091942,0,0,0,-1,1,-1,-2,-2
1532406091947,0,0,-2,1,1,-1,-1,1
1532406091952,-2,-3,-3,1,-2,2,0,-1
1532406091957,0,-2,0,-3,-1,-3,0,0
1532406091962,-1,0,0,-1,0,0,-1,-1
1532406091967,-1,-1,-2,-1,1,-1,-1,-2
1532406091972,-1,0,1,-1,1,-2,-1,-1
1532406091977,-1,0,-1,0,-1,0,-2,-1
1532406091982,-1,-2,0,0,-1,-1,-1,-1
1532406091987,0,-1,0,-1,-3,-2,-1,1
1532406091992,-2,0,-2,0,0,-1,0,-3
1532406091997,-2,-2,0,-1,0,-1,-1,-2
1532406092002,-2,-1,0,-2,-2,0,-1,1
1532406092007,0,-1,-2,-2,-1,0,1,-2
1532406092012,-1,-1,-1,0,1,1,-1,0
1532406092017,0,0,1,1,0,1,-2,0
1532406092022,0,0,-1,-2,1,0,0,0
1532406092027,0,-2,-1,-1,-1,0,-1,-2
1532406092032,0,-1,-1,-2,-2,-3,0,-1
1532406092037,-1,0,-1,-1,-1,-1,2,1
1532406092042,0,-1,-2,-1,-2,-2,0,-1
1532406092047,0,0,1,0,0,-1,-2,0
1532406092052,0,0,-1,-4,-2,0,-1,0
1532406092057,1,2,-1,0,0,-1,-1,0
1532406092062,0,-1,-1,-2,-1,-1,0,-1
1532406092067,-1,0,-1,1,0,-1,2,-3
1532406092072,-1,-1,0,0,1,-1,-1,-1
1532406092077,-1,-1,-1,-2,-3,-1,0,-1
1532406092082,0,-2,0,-2,0,0,-1,-1
1532406092087,0,0,-1,1,-2,-2,-2,-1
1532406092092,0,-2,0,0,-2,-1,-1,-2
1532406092097,-2,-2,-3,0,-2,-1,-1,-1
1532406092102,0,1,0,1,1,-1,0,-2
1532406092107,-2,-2,-1,0,-1,0,-1,1
1532406092112,-2,-1,-2,-1,-2,-2,-2,0
1532406092117,-1,-1,-1,-1,2,-1,1,-2
1532406092122,-1,0,1,1,-2,-2,-2,-3
1532406092127,-1,0,-2,-2,0,0,-2,-1
1532406092132,0,0,-1,-2,-1,-1,-1,-1
1532406092137,-1,-1,0,-1,-1,0,-2,0
1532406092142,-1,-2,-1,1,-1,-1,-2,-1
1532406092147,-1,-1,-2,-2,-2,-1,-1,-3
1532406092152,-1,-2,2,-1,1,-2,-1,-1
1532406092157,0,0,0,-1,0,-1,0,-2
1532406092162,-1,-1,-1,-3,0,-1,-2,-2
1532406092167,-1,0,1,0,0,-2,-2,-1
1532406092172,1,-1,0,-1,-2,0,0,1
1532406092177,-1,0,-2,1,1,0,-1,3
1532406092182,-1,0,-2,0,-3,-1,1,0
1532406092187,-1,-1,-1,-2,0,-1,-1,-2
1532406092192,-1,-1,-1,0,-1,0,-2,0
1532406092197,-1,0,0,-2,-1,-1,-1,-1
1532406092202,-1,-1,-1,0,0,-1,0,1
1532406092207,0,-1,-1,0,0,-1,-1,-1
1532406092212,0,-1,0,2,0,-2,-1,-1
1532406092217,1,-1,-2,-1,-1,0,0,-3
1532406092222,-1,-1,-2,-1,-1,-1,-1,-1
1532406092227,-1,-1,0,-1,-2,0,0,-1
1532406092232,0,-1,0,-3,-2,-1,0,-1
1532406092237,0,0,1,-1,-1,-2,-3,-2
1532406092242,-1,-1,-2,-3,-1,-2,-1,-1
1532406092247,0,-1,-1,-1,1,-1,0,-2
1532406092252,-1,0,0,-1,1,-1,0,-2
1532406092257,-1,-1,0,-1,-2,-3,0,-2
1532406092262,-1,1,0,0,-1,0,0,-1
1532406092267,0,0,0,-1,-1,0,1,-4
1532406092272,-1,-1,1,-1,-2,-2,0,-1
1532406092277,-1,-2,1,1,-4,-1,-2,0
1532406092282,1,-2,0,0,-1,-2,0,0
1532406092287,-1,0,0,-2,0,-1,1,1
1532406092292,-1,0,-2,0,0,-2,-1,-3
1532406092297,-1,1,-2,0,0,-1,0,-1
1532406092302,0,0,-2,-1,-1,0,-2,-1
1532406092307,1,-1,-2,0,-1,-1,-2,1
1532406092312,1,0,-2,-1,0,1,-1,-1
1532406092317,0,-2,-1,0,-1,0,-1,0
1532406092322,-1,0,-1,0,0,1,-2,-1
1532406092327,-1,-1,0,-1,-2,-1,-1,0
1532406092332,1,1,-1,0,1,1,0,2
1532406092337,-2,-2,-1,-1,0,0,-1,-3
1532406092342,0,-1,2,0,-2,-1,1,0
1532406092347,-1,-1,-1,1,-1,-1,-1,-2
1532406092352,-1,-2,0,0,-2,-1,-2,-2
1532406092357,1,-1,-1,-2,1,0,-1,0
1532406092362,-1,0,-1,-1,0,-1,-1,-3
1532406092367,-2,-2,0,-1,1,-1,-1,0
1532406092372,0,-2,-1,0,-1,-1,-1,1
1532406092377,-2,-2,1,0,1,-2,-2,0
1532406092382,-1,-2,-1,-2,-2,-2,-1,-1
1532406092387,-1,1,-2,-1,1,-1,-2,-1
1532406092392,-2,1,-1,-2,0,0,-1,-1
1532406092397,-2,0,-2,-2,-2,-2,-1,-1
1532406092402,-1,-2,-1,-1,-1,-1,-1,0
1532406092407,0,-2,0,-1,-1,-1,0,-1
1532406092412,-1,-1,-2,-1,-2,-2,0,-1
1532406092417,-1,0,-1,0,-2,1,-1,-2
1532406092422,-1,0,-1,-2,-1,-1,-2,0
1532406092427,0,1,-1,-1,-1,-1,-1,1
1532406092432,-1,-2,-2,0,-2,-2,0,-2
1532406092437,-1,-2,-1,0,-1,0,0,-2
1532406092442,-2,0,-2,-1,-1,-1,-1,-2
1532406092447,-1,0,0,0,0,0,-2,-2
1532406092452,-1,0,0,-3,-1,0,-3,-2
1532406092457,0,0,0,0,0,-1,-1,-1
1532406092462,0,0,0,-1,-1,-1,0,-2
1532406092467,0,-1,-1,0,-1,-2,0,1
1532406092472,-2,-2,0,-2,-1,0,-1,-2
1532406092477,-1,0,-3,-1,0,-1,-2,-2
1532406092482,0,0,0,-1,0,0,0,0
1532406092487,-2,-1,-1,-3,-2,-1,0,-2
1532406092492,-1,-1,-1,0,0,-1,0,0
1532406092497,0,-2,-1,0,0,-1,0,0
1532406092502,-1,-1,0,2,1,-2,-3,1
1532406092507,0,-1,-3,0,-2,-1,-1,-1
1532406092512,-1,0,0,0,-1,-1,1,0
1532406092517,-2,-1,0,0,-1,0,-1,-4
1532406092522,1,0,-1,0,-2,-1,-1,-1
1532406092527,-3,-1,0,0,-1,1,0,0
1532406092532,-1,0,-1,-1,-2,-2,-2,-3
1532406092537,-2,-1,0,-1,-1,-1,1,0
1532406092542,0,-1,1,-1,0,-1,0,0
1532406092547,0,-1,0,-2,-2,-1,-1,0
1532406092552,0,0,0,0,0,0,-1,-2
1532406092557,-1,-2,-2,-2,-1,0,-1,0
1532406092562,0,-2,0,-2,-1,-1,-1,-3
1532406092567,1,-1,0,0,-2,0,-1,-3
1532406092572,-1,-1,0,-1,-1,1,-1,-3
1532406092577,0,1,0,-1,-1,-1,-1,0
1532406092582,0,-3,-1,-2,-2,0,-2,-1
1532406092587,-2,0,0,1,1,-2,-1,-1
1532406092592,-1,-2,1,-1,-1,0,-2,0
1532406092597,-1,0,-1,-2,-1,1,-1,-1
1532406092602,-3,-2,-2,-1,-1,0,-1,-1
1532406092607,0,0,-1,-2,-2,0,-2,-3
1532406092612,-1,-1,-1,0,1,0,1,-1
1532406092617,1,-1,2,0,1,-1,1,1
1532406092622,1,-2,-4,-1,1,-1,-1,-3
1532406092627,-1,-1,-2,1,-1,-1,-2,-2
1532406092632,-2,0,-1,0,-1,-3,-3,-2
1532406092637,1,-1,-2,-1,-2,0,0,-1
1532406092642,-1,1,0,-1,1,-2,0,-2
1532406092647,-1,-1,0,-2,-2,-1,-1,-2
1532406092652,0,0,0,-1,2,0,-1,-2
1532406092657,-1,0,-2,-1,-1,0,-2,-1
1532406092662,-1,1,-1,-1,-2,-2,-1,2
1532406092667,0,-2,1,-2,-4,-2,0,-2
1532406092672,-1,-1,0,-2,-2,-1,-2,0
1532406092677,-1,-3,-2,-1,-1,-1,-3,0
1532406092682,0,0,0,-3,0,-1,-1,-3
1532406092687,-2,-3,0,0,0,-1,0,0
1532406092692,-1,1,-1,-3,-2,1,-1,-3
1532406092697,0,-1,-1,-1,-2,0,-1,-3
1532406092702,-1,-1,-2,0,-4,0,-1,-1
1532406092707,-1,-1,-2,-1,0,-1,0,1
1532406092712,-1,-3,-1,-1,-3,-1,-1,-2
1532406092717,-1,-1,-1,-1,0,-3,-1,-2
1532406092722,-2,-2,-1,1,-1,0,-1,-2
1532406092727,0,1,0,-1,0,-1,-1,-2
1532406092732,0,-1,-1,0,-2,-1,-1,0
1532406092737,0,-2,0,-1,0,0,-1,-2
1532406092742,-1,-2,0,0,-1,-3,0,0
1532406092747,1,0,-3,-1,-1,0,-1,-1
1532406092752,-2,0,0,-1,0,-1,0,-1
1532406092757,-2,-1,1,-2,-2,-1,0,-1
1532406092762,-2,-1,-1,0,-2,0,0,-1
1532406092767,-2,-2,-2,-2,-1,-1,1,-2
1532406092772,-1,-1,-2,0,0,0,-1,-1
1532406092777,1,0,1,-2,-1,-1,-1,1
1532406092782,-1,1,0,0,-1,1,0,0
1532406092787,0,0,-1,-1,-1,-2,-1,-2
1532406092792,0,-2,0,-1,0,-1,-1,-1
1532406092797,0,1,-3,0,1,-2,-1,1
1532406092802,1,0,-2,0,0,-2,-1,-2
1532406092807,0,-2,0,-1,-1,1,-2,-1
1532406092812,-3,0,-1,-2,-2,0,0,-1
1532406092817,-3,-1,-1,0,1,1,-1,-1
1532406092822,0,0,-1,-2,-2,-2,-1,1
1532406092827,-2,0,-2,-1,0,-1,-1,-1
1532406092832,0,-2,-2,-1,1,-1,-2,-1
1532406092837,1,-1,-2,0,-3,0,-1,-4
1532406092842,0,-1,0,0,0,0,-2,1
1532406092847,-2,-3,-1,-1,0,-3,-1,-2
1532406092852,0,-1,1,0,-2,-1,0,-1
1532406092857,-1,-1,-2,-2,-3,-2,0,-3
1532406092862,-2,-1,-1,-2,-1,-2,-2,-1
1532406092867,1,0,0,-1,-2,0,-1,-1
1532406092872,-1,0,-2,-1,0,-1,0,-2
1532406092877,-1,0,1,0,0,0,0,0
1532406092882,-1,-2,0,-1,0,1,0,-2
1532406092887,-1,-1,-2,-1,1,0,-1,0
1532406092892,0,1,-1,0,0,0,0,-2
1532406092897,0,-1,0,-3,-1,0,-1,-3
1532406092902,0,-1,0,-1,-2,0,-1,-1
1532406092907,-1,1,-1,-1,0,0,0,0
1532406092912,0,1,-1,-1,-2,-1,-2,1
1532406092917,-2,-1,0,-1,-1,-1,-1,0
1532406092922,-2,-3,-1,-2,1,-1,-2,-2
1532406092927,0,-1,-2,0,1,-1,-3,-2
1532406092932,0,-1,-2,0,-2,-2,-1,2
1532406092937,-2,0,0,-2,1,-1,-1,-1
1532406092942,1,0,-1,-1,-1,0,0,-1
1532406092947,0,-3,0,-1,-3,-1,-1,-1
1532406092952,-1,-1,-2,-1,0,-1,-2,-1
1532406092957,-1,-2,0,-1,0,1,-1,1
1532406092962,0,-1,1,-1,-1,-1,0,-1
1532406092967,0,1,0,-2,-1,0,-1,-1
1532406092972,0,0,1,-1,1,-1,1,-1
1532406092977,1,0,-2,0,0,-3,0,-2
1532406092982,-2,0,-1,-1,-1,-1,-2,-2
1532406092987,0,-2,-2,-1,0,1,0,-1
1532406092992,-1,-1,0,-3,1,-1,-1,-1
1532406092997,-1,0,-1,0,0,-2,-2,-2
1532406093002,0,-2,-1,0,-1,-3,1,1
1532406093007,1,0,-2,-1,0,1,0,-3
1532406093012,0,0,-2,0,-1,-1,0,-1
1532406093017,-1,-1,-1,0,1,1,-2,0
1532406093022,-1,-2,1,0,1,0,0,0
1532406093027,-1,-1,-1,0,-1,0,-2,-1
1532406093032,-1,-1,-2,-1,-1,-1,-1,-2
1532406093037,-1,-3,-3,0,0,-2,1,-3
1532406093042,0,-1,-2,-1,-1,1,-1,-2
1532406093047,0,-3,0,-1,-2,-2,0,-1
1532406093052,0,1,0,-2,-2,-1,0,-1
1532406093057,-2,0,-1,-1,1,-1,0,1
1532406093062,-1,-2,0,0,-1,1,-2,-2
1532406093067,1,-2,-1,0,0,-2,-1,0
1532406093072,0,0,-2,1,1,0,0,0
1532406093077,1,0,0,-1,-2,-1,-1,-2
1532406093082,0,-1,-2,-1,0,0,-1,-2
1532406093087,-2,0,-1,1,2,-1,-1,-2
1532406093092,0,0,1,-2,-3,-1,0,0
1532406093097,-1,0,0,-1,-1,0,-2,1
1532406093102,0,0,-1,0,-1,-1,-1,-2
1532406093107,-1,-2,0,-1,1,0,-1,0
1532406093112,-2,-3,0,-2,-1,-2,-1,0
1532406093117,-2,-1,-1,-1,0,0,-1,-1
1532406093122,-1,-2,0,-1,0,-1,0,0
1532406093127,-1,-2,-2,-1,-1,0,-1,-2
1532406093132,-2,-1,-3,0,-2,-1,-1,-1
1532406093137,-2,-1,-1,-1,-1,-2,-1,-2
1532406093142,1,-1,-1,-1,-3,-1,-2,-2
1532406093147,-1,-1,-2,0,-1,0,-2,-1
1532406093152,0,-1,0,-1,0,-1,-1,0
1532406093157,-1,0,0,-1,-1,-1,0,0
1532406093162,-1,0,-2,0,0,-1,-1,0
1532406093167,-2,-1,-2,1,-2,-2,0,1
1532406093172,0,0,0,0,0,-1,0,0
1532406093177,1,-2,1,-2,-1,0,-2,0
1532406093182,0,-1,-2,-2,1,0,-2,-1
1532406093187,0,-2,-2,-1,-2,0,-1,-4
1532406093192,-2,-1,-2,0,-1,0,-4,-1
1532406093197,-1,0,0,-2,0,-1,-2,-2
1532406093202,0,-2,-2,-2,0,0,1,-3
1532406093207,0,-1,1,-2,-1,-1,0,0
1532406093212,-1,-2,0,-1,-1,0,1,1
1532406093217,0,2,-2,0,-1,0,-1,0
1532406093222,-2,0,1,1,-1,-1,-1,-1
1532406093227,0,-1,0,0,-1,0,-1,-3
1532406093232,0,-1,0,-1,0,-1,-1,-3
1532406093237,0,-2,-1,-2,-1,-1,0,0
1532406093242,-1,-2,-1,-1,0,-3,-1,0
1532406093247,-1,0,1,0,0,-1,-1,1
1532406093252,-1,0,-1,-1,-1,1,0,0
1532406093257,0,0,-2,-2,-2,1,0,0
1532406093262,0,-1,-2,-1,-3,-1,-2,0
1532406093267,-1,0,-1,-1,0,1,-2,-1
1532406093272,1,0,-2,0,-1,-2,-2,-2
1532406093277,-1,0,-1,-1,0,-2,-2,-1
1532406093282,-1,-1,-1,0,-2,-2,-1,-1
1532406093287,0,-1,-1,-2,-2,0,-2,1
1532406093292,-1,-1,0,-1,2,1,0,-2
1532406093297,0,-1,-1,-1,-2,-2,-1,-1
1532406093302,0,-1,2,0,-1,0,0,-2
1532406093307,-1,0,-1,-1,-1,-1,0,0
1532406093312,-1,0,-2,-3,-1,0,0,-1
1532406093317,-1,-1,-1,1,-1,-2,0,-3
1532406093322,-3,0,-1,-2,-1,0,-2,-3
1532406093327,-2,-2,-1,0,-1,-2,-2,0
1532406093332,-1,0,0,1,0,-1,-2,0
1532406093337,-1,-3,0,1,-1,-1,1,0
1532406093342,0,-1,-1,-1,-1,-1,-1,1
1532406093347,0,0,-2,-1,0,0,-2,0
1532406093352,-1,-1,-1,0,-3,-2,-1,2
1532406093357,0,-1,-2,-2,0,-1,-3,-1
1532406093362,0,-2,-1,-2,0,1,-1,-2
1532406093367,-2,0,-2,-1,0,-2,1,-4
1532406093372,-1,-1,-1,-1,-2,-2,-1,0
1532406093377,-1,0,-2,0,-1,1,-2,-1
1532406093382,0,-2,0,0,0,-2,-3,0
1532406093387,-2,-1,0,1,0,-2,-2,-1
1532406093392,0,-1,0,-1,0,0,-1,-4
1532406093397,-1,-1,-1,0,0,-1,-1,0
1532406093402,-1,-2,-2,-1,-2,-2,0,0
1532406093407,-1,-1,0,1,-3,-2,-2,-1
1532406093412,-2,-1,0,0,0,0,-1,-1
1532406093417,-2,1,1,-1,-2,-1,-1,1
1532406093422,0,-1,-2,0,1,0,-1,-2
1532406093427,-1,-2,-1,-1,-2,0,0,-1
1532406093432,-2,-2,-1,-2,-1,-2,-1,-1
1532406093437,1,-1,-1,-1,0,-2,-1,-2
1532406093442,-1,-1,-1,-1,-2,1,-1,-1
1532406093447,-1,0,-1,0,1,1,0,0
1532406093452,-1,-1,-1,-1,-2,-1,1,-1
1532406093457,-1,-1,0,-1,-2,-2,-1,-1
1532406093462,-1,-1,-2,0,-1,-1,-2,-3
1532406093467,0,-1,-1,0,0,-1,-1,-4
1532406093472,-1,-2,1,0,-1,0,0,0
1532406093477,-1,-1,-1,-1,1,-1,-1,0
1532406093482,-1,1,1,-1,1,0,-1,-1
1532406093487,-2,-2,0,0,-3,0,-1,1
1532406093492,-1,0,-2,-1,-2,-2,-3,-3
1532406093497,-1,0,0,0,-1,-2,1,0
1532406093502,-1,-1,0,0,-1,-1,0,0
1532406093507,1,-1,-1,-2,-1,-1,-1,-1
1532406093512,0,-1,-3,0,-2,-1,-1,-2
1532406093517,0,-1,0,-1,0,1,-1,-1
1532406093522,-1,0,0,1,-1,-1,1,-2
1532406093527,-2,-2,0,-2,1,-1,0,-1
1532406093532,0,0,-2,-1,0,1,-1,0
1532406093537,-1,-1,-1,0,-3,-3,-2,-1
1532406093542,-3,-2,0,-2,0,-1,-1,1
1532406093547,-1,0,-1,0,-1,-2,-1,-1
1532406093552,-1,-1,-1,-1,-2,-2,-1,0
1532406093557,-2,-1,-1,-2,-1,1,-1,0
1532406093562,-1,-1,-2,-2,-1,-1,-2,1
1532406093567,0,-1,0,-1,-1,-1,-2,1
1532406093572,-1,0,-3,0,1,-1,-1,0
1532406093577,0,-2,-1,-1,1,0,-1,-2
1532406093582,-2,-1,-1,-2,-1,-1,-1,1
1532406093587,0,0,1,-1,-2,-1,-2,-2
1532406093592,1,-1,-2,0,-1,-1,-2,1
1532406093597,0,-1,0,-1,-3,-3,0,-2
1532406093602,-1,0,0,0,-3,-1,-1,0
1532406093607,-1,0,-1,0,-1,1,-1,-1
1532406093612,-1,-1,-1,0,0,1,0,-2
1532406093617,0,-1,0,0,0,-1,0,0
1532406093622,0,0,0,0,1,0,0,-2
1532406093627,-1,-1,-1,0,-1,0,-1,-1
1532406093632,-1,-2,-1,-1,-2,-1,-2,0
1532406093637,0,2,1,-1,-1,-1,-2,0
1532406093642,0,-2,-2,-1,-4,-1,0,0
1532406093647,-2,-2,-2,-1,-1,0,-2,-1
1532406093652,-2,-1,0,-1,0,-1,-3,-1
1532406093657,-1,0,0,0,1,0,-1,-1
1532406093662,-1,1,-1,0,-1,0,-2,-2
1532406093667,0,0,1,-2,0,-1,-1,0
1532406093672,1,-2,0,1,-1,0,-3,-2
1532406093677,0,0,-2,-1,-3,0,-2,1
1532406093682,1,0,-2,-3,-1,0,0,-3
1532406093687,0,-2,-2,0,0,-1,-1,-1
1532406093692,0,1,1,0,0,-3,0,0
1532406093697,-1,-2,-1,-2,1,-1,-1,-1
1532406093702,0,-2,-1,1,1,0,-1,0
1532406093707,-1,-2,-3,-2,1,-1,-1,-3
1532406093712,0,1,0,0,-2,-1,-1,0
1532406093717,0,-1,0,0,-2,-1,-1,-2
1532406093722,0,-2,-1,-1,0,0,0,1
1532406093727,0,0,1,0,0,-2,-1,-2
1532406093732,-2,-2,0,-1,0,0,-1,-2
1532406093737,-1,0,0,-2,-2,-1,-1,-2
1532406093742,-1,-1,-1,-1,1,-1,-1,-1
1532406093747,-1,-1,-1,0,0,-1,0,1
1532406093752,-1,-3,0,-1,-2,0,-1,-3
1532406093757,-1,0,0,-1,-1,-1,-1,-2
1532406093762,-2,-2,1,-2,0,-2,-1,-3
1532406093767,-1,-1,0,1,-2,0,-1,0
1532406093772,-1,0,-2,-1,-4,-1,0,0
1532406093777,-2,-2,-1,-1,0,-1,-1,-4
1532406093782,0,-1,-2,-2,-1,-2,-2,-1
1532406093787,-1,-2,0,0,-1,-1,0,0
1532406093792,-1,-2,-2,-1,0,1,1,1
1532406093797,-2,0,0,-2,0,-1,-1,0
1532406093802,-1,0,0,-1,0,-1,0,-3
1532406093807,-1,0,-2,-2,0,-1,0,-2
1532406093812,0,-1,-2,0,0,0,-1,-2
1532406093817,1,-1,-1,0,-2,-1,-1,0
1532406093822,-2,-1,-2,1,-1,-1,0,1
1532406093827,0,-1,0,-1,0,-1,0,-1
1532406093832,-3,-2,0,0,-1,-2,1,-1
1532406093837,-2,0,-1,1,-1,-1,-1,0
1532406093842,-1,-2,-1,-1,-1,1,0,1
1532406093847,0,1,-1,1,-1,-1,-1,-2
1532406093852,0,-1,0,0,0,0,0,-2
1532406093857,-1,-3,-1,0,0,-1,-1,1
1532406093862,-1,-1,-1,-1,0,-1,-1,-2
1532406093867,-2,0,0,-2,-2,0,-2,-3
1532406093872,-1,0,-2,-2,1,-1,-2,0
1532406093877,0,-1,-2,0,-3,0,-1,-1
1532406093882,-1,0,0,1,0,0,-1,-2
1532406093887,-1,-1,-1,-2,-1,-1,0,-2
1532406093892,-1,-1,-1,-1,-2,-2,0,-3
1532406093897,0,-2,1,-2,1,-1,-1,2
1532406093902,-1,0,0,1,1,-1,0,1
1532406093907,-2,-1,-2,0,-1,-1,-1,-1
1532406093912,-1,-1,0,-1,-4,-2,-3,0
1532406093917,0,0,-3,-2,-1,-2,-1,-1
1532406093922,0,-1,-1,0,-1,-1,-2,-1
1532406093927,-1,-1,1,-2,1,-1,0,-2
1532406093932,0,-1,-1,-1,-2,-1,0,0
1532406093937,-1,0,0,1,-1,0,-2,0
1532406093942,-1,0,-1,-2,0,-1,-2,-2
1532406093947,-1,-2,-1,-1,0,0,-3,0
1532406093952,-2,0,-1,-1,0,1,-2,-2
1532406093957,-2,-1,-1,0,1,-1,-1,-3
1532406093962,-1,-2,0,-1,-3,-1,-1,0
1532406093967,0,-1,-2,-3,-2,0,-1,1
1532406093972,-2,-1,-1,0,1,0,-2,-1
1532406093977,0,-2,-2,0,-2,-1,-1,1
1532406093982,-2,-1,-2,-1,0,1,-1,-2
1532406093987,-2,-1,1,-3,0,-2,-2,0
1532406093992,-2,0,0,0,-2,-2,0,0
1532406093997,-1,0,-3,0,0,-2,-1,-3
1532406094002,0,0,0,-1,-3,-2,-2,-3
1532406094007,0,1,0,1,-1,-2,-2,-2
1532406094012,-1,-2,-1,-2,-2,-2,-4,-1
1532406094017,0,-1,0,-2,1,-1,-1,-1
1532406094022,-2,0,-2,-2,0,-1,0,-1
1532406094027,-1,-1,-1,1,-1,-1,-1,-2
1532406094032,0,-1,1,-2,-1,-1,-1,0
1532406094037,0,-1,0,-1,1,-1,1,0
1532406094042,0,-1,-1,0,-2,-1,-1,-1
1532406094047,0,-1,0,-1,-1,-2,0,-1
1532406094052,-2,1,-3,0,1,0,0,0
1532406094057,-2,-1,0,0,-1,1,-1,-2
1532406094062,1,0,-1,-1,1,1,0,-1
1532406094067,1,-2,-1,-1,1,1,1,-1
1532406094072,0,-2,-1,0,-3,-1,0,0
1532406094077,-1,1,-1,-2,-1,-1,-1,0
1532406094082,-1,0,1,1,-2,-1,0,1
1532406094087,0,0,-3,1,-3,-1,0,-1
1532406094092,0,0,0,0,0,-2,-1,-1
1532406094097,0,-1,0,0,0,-1,-1,-3
1532406094102,-2,-1,0,-2,-3,0,-1,-2
1532406094107,0,0,-1,-1,0,-1,-1,-3
1532406094112,2,0,-2,-1,-1,0,-1,0
1532406094117,0,0,-1,-1,-1,-1,-2,2
1532406094122,0,0,-1,0,1,-2,-1,-2
1532406094127,0,0,-1,-1,-2,-1,0,1
1532406094132,-1,0,-1,-2,-1,-1,0,-4
1532406094137,0,0,0,-1,-2,0,-1,-2
1532406094142,0,-1,-1,-1,-2,0,-2,0
1532406094147,-2,-2,-2,-1,-2,-1,-1,-1
1532406094152,-1,-1,0,-2,0,-1,-1,-1
1532406094157,1,-1,0,0,-1,0,0,-2
1532406094162,-2,0,-2,-1,-2,-2,0,-1
1532406094167,-1,-1,1,1,0,-2,-2,-3
1532406094172,0,0,-2,-1,-1,1,0,-1
1532406094177,-3,-1,0,-1,-1,0,-2,-2
1532406094182,0,0,-2,-3,0,-2,0,0
1532406094187,0,-1,0,-1,-4,-1,-2,-2
1532406094192,-1,0,1,0,-3,0,-2,-1
1532406094197,0,0,0,-2,-1,-1,0,-2
1532406094202,0,-1,0,0,-1,-1,-1,0
1532406094207,0,0,-3,0,1,0,0,-1
1532406094212,1,-1,0,0,0,-1,-2,1
1532406094217,-1,1,-3,-2,0,0,0,1
1532406094222,-1,-2,-1,0,0,0,-2,-2
1532406094227,1,-3,2,-2,1,0,0,0
1532406094232,0,0,-1,-1,-2,-1,1,-3
1532406094237,-1,-2,0,0,-2,1,-1,1
1532406094242,-1,-3,-1,-1,0,-2,0,-1
1532406094247,-1,0,-1,1,0,-1,0,-1
1532406094252,-1,0,-2,-2,1,0,-1,-1
1532406094257,0,-1,0,-1,0,-2,0,-1
1532406094262,-1,-1,-1,-1,-1,-1,0,0
1532406094267,0,-1,-2,-2,-1,-1,-1,0
1532406094272,-1,0,0,0,1,-3,-2,-3
1532406094277,0,-2,-2,-1,1,0,-1,-2
1532406094282,0,0,-1,-1,-1,-1,-1,-1
1532406094287,-2,-1,1,-1,0,-1,-3,-2
1532406094292,0,0,-2,-1,-2,1,1,-1
1532406094297,0,0,-1,1,-3,-1,0,-1
1532406094302,0,-1,-2,1,-1,-2,-1,-2
1532406094307,-1,0,-3,-2,-1,-2,0,0
1532406094312,0,-1,-1,0,0,-2,-1,-1
1532406094317,-1,0,0,-2,-2,0,-1,-2
1532406094322,0,-1,-2,-2,-2,-2,0,1
1532406094327,0,-2,-2,-1,-3,0,0,0
1532406094332,-1,-1,0,-1,-1,-1,-1,-1
1532406094337,0,-2,-1,0,0,0,-2,-1
1532406094342,-2,0,-1,-1,-1,-1,0,-2
1532406094347,0,1,-1,-1,-1,0,0,-2
1532406094352,1,-1,-1,-1,-1,-1,-1,2
1532406094357,1,-1,-2,0,-1,-1,0,0
1532406094362,-2,0,0,-2,-1,0,-3,-1
1532406094367,-1,-1,-2,-1,0,0,-1,0
1532406094372,-3,-1,-1,0,0,2,-1,0
1532406094377,-1,1,-2,-1,-1,-1,1,-2
1532406094382,0,-1,-1,0,-3,0,-2,-1
1532406094387,-1,0,-2,0,-1,-2,-1,-1
1532406094392,-2,-1,1,-2,-2,-1,-2,-1
1532406094397,-1,-3,0,-2,-1,-1,-2,0
1532406094402,-1,0,-1,1,0,-1,-1,-1
1532406094407,-1,1,0,-2,-1,-2,-2,-3
1532406094412,0,-1,-1,-2,-3,0,-1,-3
1532406094417,-1,0,0,-1,0,-2,-1,-1
1532406094422,0,-1,-1,-1,-2,0,-1,-1
1532406094427,0,-1,-2,1,-1,-1,-1,0
1532406094432,-1,-2,-3,-2,1,-2,0,-1
1532406094437,1,-1,-1,-1,2,-1,-2,-3
1532406094442,-2,0,0,-1,0,-1,0,1
1532406094447,-2,-1,-1,0,1,0,0,-1
1532406094452,-1,-2,-1,-2,-2,0,-1,-1
1532406094457,-1,-1,-3,0,-2,-1,-1,-3
1532406094462,-1,-2,-1,0,1,-1,-1,0
1532406094467,-1,-2,-1,-2,-2,-1,-1,0
1532406094472,-1,0,1,0,1,-2,0,1
1532406094477,-1,-2,0,-1,0,-1,-2,-1
1532406094482,0,-1,-1,-2,-1,-1,-1,-1
1532406094487,-1,-1,0,-2,-2,0,-1,1
1532406094492,1,1,-1,1,-2,-1,-2,-2
1532406094497,-2,0,-1,-1,-2,0,-2,0
1532406094502,0,0,-1,-1,1,0,0,-3
1532406094507,0,-2,-2,-2,0,1,-1,-4
1532406094512,1,-1,-3,-4,-1,-1,-2,-2
1532406094517,-1,-1,0,-2,-1,0,1,-2
1532406094522,0,0,-1,-2,-1,-1,-1,-1
1532406094527,-1,-2,-3,-2,-1,-2,-1,-2
1532406094532,0,-2,-1,0,-1,-2,0,1
1532406094537,-1,-1,-1,-2,-2,0,0,1
1532406094542,-1,0,-2,-2,-2,0,-1,-1
1532406094547,-2,-1,1,2,-1,-1,-1,0
1532406094552,1,-1,-3,0,0,-2,-2,0
1532406094557,-2,-1,0,-1,0,-1,0,0
1532406094562,-2,-1,0,0,-1,-2,0,-1
1532406094567,-1,0,0,0,-2,-1,-1,0
1532406094572,4,1,2,0,-1,0,-1,-1
1532406094577,2,0,1,-1,1,-1,0,2
1532406094582,-3,-3,-5,-2,0,-1,-2,-4
1532406094587,1,3,0,-2,-1,-3,-1,0
1532406094592,-2,-5,-2,-2,0,-2,-1,-2
1532406094597,5,1,2,-1,0,1,-1,-2
1532406094602,-2,-2,3,0,0,1,-1,-2
1532406094607,4,-2,-1,-1,0,-1,-1,1
1532406094612,-7,1,0,2,-1,0,0,-2
1532406094617,0,-5,-2,-1,-2,-3,-2,-1
1532406094622,-4,0,0,0,-1,0,1,-2
1532406094627,2,0,-2,0,-1,-2,-3,-1
1532406094632,1,-3,0,0,-2,0,-1,0
1532406094637,-2,-9,-3,0,-2,-1,-1,-5
1532406094642,4,-9,0,-2,-1,0,-1,2
1532406094647,-7,-11,1,2,1,1,0,-2
1532406094652,0,-1,-3,-1,-1,1,-1,1
1532406094657,-6,1,-2,-1,-2,1,0,0
1532406094662,4,2,-1,1,-3,-2,-1,0
1532406094667,-7,5,0,-2,0,-2,1,0
1532406094672,3,8,1,-2,0,-1,0,-2
1532406094677,2,3,-2,-1,-1,-2,-1,-3
1532406094682,-4,8,1,-1,-1,0,-1,0
1532406094687,0,-8,-3,-2,-3,0,1,-1
1532406094692,2,-1,-1,1,-1,-3,-1,-4
1532406094697,2,0,0,-2,-1,-2,0,2
1532406094702,4,-7,0,-1,1,0,-2,-1
1532406094707,3,-6,-1,0,-2,0,-2,-1
1532406094712,2,-2,-1,-2,1,-2,-1,2
1532406094717,9,-9,-1,0,0,1,0,-2
1532406094722,-6,-8,-2,0,-2,0,-2,-3
1532406094727,-1,2,1,-1,-1,-2,-2,-3
1532406094732,1,1,-2,-1,-2,-1,-1,-1
1532406094737,5,9,-1,1,-1,1,-1,1
1532406094742,1,0,-2,-1,0,-2,-1,3
1532406094747,-4,3,0,-1,0,0,0,-2
1532406094752,-3,-2,-2,0,-2,1,-1,-3
1532406094757,-14,1,0,-2,-2,-2,-2,0
1532406094762,0,2,1,1,-1,0,-1,-1
1532406094767,4,2,-2,1,0,0,-2,-2
1532406094772,4,-1,-2,-1,0,0,-3,-2
1532406094777,-12,3,1,2,-1,0,1,-1
1532406094782,-1,7,0,0,-2,1,1,1
1532406094787,3,3,-1,-2,-1,-1,1,1
1532406094792,2,-2,-2,0,1,-2,-1,2
1532406094797,-2,-5,-2,-1,1,-3,-2,-3
1532406094802,4,0,1,1,2,-3,-2,-1
1532406094807,-3,-1,0,-1,0,-1,0,0
1532406094812,-1,0,-2,0,-2,-1,0,-1
1532406094817,-7,-4,2,-2,-2,-3,-2,-3
1532406094822,2,1,-2,-1,1,-1,1,0
1532406094827,0,2,-1,-1,0,1,-3,0
1532406094832,-7,-2,0,0,0,-2,-3,1
1532406094837,-2,0,-1,1,-1,-1,-3,1
1532406094842,-3,0,0,-2,0,0,0,-1
1532406094847,0,0,0,-1,-1,-1,0,0
1532406094852,-3,-2,-1,-1,-1,0,1,-2
1532406094857,3,0,-1,0,-3,-1,-1,-1
1532406094862,0,-3,0,0,-2,-2,-1,-1
1532406094867,-1,-2,0,-2,1,0,-3,-3
1532406094872,-3,-3,1,-2,-2,-2,-1,2
1532406094877,4,0,-2,-1,-1,1,-1,0
1532406094882,2,0,-2,0,-1,0,0,0
1532406094887,-7,-5,-1,0,0,-1,-1,-1
1532406094892,-2,3,1,1,1,1,0,-4
1532406094897,1,2,-1,-1,0,0,-1,-1
1532406094902,-2,0,-1,1,0,-1,-2,-1
1532406094907,4,2,0,-2,-3,0,-2,-2
1532406094912,-1,0,-1,-1,0,-1,-2,-3
1532406094917,-2,-1,0,2,2,-1,0,2
1532406094922,6,0,-1,-2,0,-2,-2,-2
1532406094927,2,-1,0,-1,-2,-3,1,0
1532406094932,-2,-2,-1,2,-2,-1,0,1
1532406094937,0,-1,-2,-2,-1,1,0,-1
1532406094942,-4,-3,1,-1,-1,-2,-1,-2
1532406094947,0,-2,-3,-1,1,-1,1,-4
1532406094952,-5,-4,-2,-1,1,0,-1,-3
1532406094957,2,1,-1,0,-1,-1,-2,-1
1532406094962,-1,-1,0,-1,0,1,2,-2
1532406094967,-3,-1,1,-2,-1,-2,-1,-2
1532406094972,-2,-2,-1,0,0,0,-1,1
1532406094977,0,-2,-1,-2,-1,-3,-2,-2
1532406094982,-1,-1,-3,-1,0,-1,-2,-1
1532406094987,-6,-7,-1,-1,-3,0,0,1
1532406094992,-1,-2,0,0,0,-1,-1,-2
1532406094997,0,-4,0,0,-1,-2,-4,-3
1532406095002,0,0,-1,0,-1,-1,2,-2
1532406095007,1,1,-1,0,-1,1,0,-3
1532406095012,-1,-2,-1,-4,-3,-2,-1,0
1532406095017,-1,0,-1,0,-2,-1,1,-2
1532406095022,-2,1,-1,-1,-2,1,-1,0
1532406095027,1,0,-2,0,1,-1,-1,1
1532406095032,2,4,0,-2,-1,-1,-3,0
1532406095037,0,-2,1,-1,0,0,0,-4
1532406095042,-5,-3,0,-2,-1,-1,-4,-2
1532406095047,5,5,-1,0,-1,-2,-1,-1
1532406095052,-7,-10,-1,0,-1,0,0,2
1532406095057,-1,0,0,-1,0,-1,-1,-3
1532406095062,-3,-2,0,-1,-1,-3,0,0
1532406095067,-2,-1,0,-2,1,-1,-2,-2
1532406095072,3,2,-1,-2,0,-2,-1,-2
1532406095077,1,-2,-3,0,0,0,-1,0
1532406095082,1,-1,1,-1,-2,0,-1,1
1532406095087,0,-1,-1,-1,0,-2,-2,1
1532406095092,-1,-2,-1,-1,0,-1,0,-2
1532406095097,0,-4,-2,0,-1,0,2,1
1532406095102,4,-1,-2,-1,1,-2,-3,-2
1532406095107,-5,-2,-1,-1,-3,-1,-1,-2
1532406095112,0,-3,-1,-1,0,-2,0,-1
1532406095117,-3,-1,0,-2,-2,-1,-1,-2
1532406095122,2,-3,-1,-1,0,-2,0,0
1532406095127,1,-2,0,0,-2,-1,-1,1
1532406095132,0,1,1,0,0,1,0,-2
1532406095137,0,3,-1,1,1,-1,-3,-2
1532406095142,-4,-3,0,-1,-3,-1,-2,-2
1532406095147,0,-2,-1,-1,0,1,1,-2
1532406095152,-1,1,-1,1,-2,-1,-3,-3
1532406095157,2,-1,-2,-2,1,1,2,1
1532406095162,-5,1,-1,0,-1,1,0,0
1532406095167,-2,1,-1,0,2,0,0,-1
1532406095172,0,-1,-1,-2,-1,0,0,-1
1532406095177,0,0,0,-1,-1,-1,-1,-1
1532406095182,0,-2,1,0,0,0,-1,-1
1532406095187,-1,-2,-1,-2,-2,-1,-1,-2
1532406095192,2,0,-2,-2,-1,-1,-3,-1
1532406095197,-2,-3,0,0,0,-2,-1,-1
1532406095202,0,3,-1,-2,0,-1,-1,-2
1532406095207,2,-2,-2,0,0,0,1,-2
1532406095212,-1,1,-1,-2,0,-1,-3,0
1532406095217,2,1,0,0,-4,1,-2,-1
1532406095222,1,-3,-2,-1,1,0,2,1
1532406095227,-3,0,-2,-2,-2,0,-1,0
1532406095232,1,-5,-3,1,-2,-1,0,-1
1532406095237,2,5,0,-2,0,-1,-1,0
1532406095242,-2,-2,-1,0,0,0,0,1
1532406095247,1,1,0,-1,-1,-1,-1,-1
1532406095252,-3,0,0,-3,-2,0,2,0
1532406095257,-3,-5,-1,0,1,1,-1,-4
1532406095262,-2,0,-1,0,-1,-1,-1,-1
1532406095267,0,1,-1,-1,-2,-1,-1,0
1532406095272,1,1,-2,0,0,-1,-1,0
1532406095277,-4,-8,-2,-1,-1,0,-1,-2
1532406095282,-9,0,-1,-2,-1,-2,-2,-1
1532406095287,-2,-1,1,1,-1,0,2,1
1532406095292,1,1,0,0,-2,-1,-2,-1
1532406095297,-7,-3,-2,-1,-1,-1,-1,-4
1532406095302,4,0,-2,-2,0,0,-1,1
1532406095307,1,-1,1,0,-1,0,-2,-3
1532406095312,-2,-2,-1,0,0,0,-1,-1
1532406095317,-3,1,0,1,0,-1,1,0
1532406095322,1,-4,-1,1,-2,-1,0,-1
1532406095327,-5,-1,-1,1,-2,-2,-3,-5
1532406095332,5,3,1,1,-2,-1,-1,0
1532406095337,0,-1,-2,-1,1,-1,-2,-3
1532406095342,0,1,0,0,-2,-1,-3,-1
1532406095347,3,1,-1,-1,0,0,-1,0
1532406095352,2,3,2,-1,0,0,1,0
1532406095357,-3,-8,-3,1,-1,-1,-1,1
1532406095362,-5,-1,-2,-1,0,0,1,-4
1532406095367,-1,-2,0,-3,-1,-2,0,1
1532406095372,-9,-2,0,0,0,1,-2,-2
1532406095377,-7,0,-2,-1,0,-2,0,-3
1532406095382,-2,1,-1,0,0,0,-1,3
1532406095387,-4,2,-1,0,-2,-2,-1,0
1532406095392,10,2,-1,-2,-1,0,1,-1
1532406095397,0,4,1,0,1,-1,-1,-1
1532406095402,-3,8,0,-1,-2,-4,-2,1
1532406095407,-20,2,-6,-1,3,1,6,4
1532406095412,21,-26,-4,2,1,2,-4,-5
1532406095417,-19,16,-2,-1,-1,-2,-3,1
1532406095422,33,5,-3,0,-2,0,-2,0
1532406095427,-5,-22,-1,-2,-4,-5,-5,-4
1532406095432,-22,12,1,1,3,0,5,5
1532406095437,-2,7,2,1,0,0,-1,-1
1532406095442,29,-20,-4,-4,-3,-5,-5,-4
1532406095447,-39,20,7,1,0,1,0,2
1532406095452,-23,-3,-3,-4,-4,-2,-4,-4
1532406095457,23,2,1,-1,-1,-1,-5,3
1532406095462,-12,-7,1,-3,-1,-2,-5,10
1532406095467,19,-22,-6,-3,3,5,3,3
1532406095472,-25,-19,-4,-5,-4,-6,-14,-11
1532406095477,-1,-11,-2,-4,0,1,-11,3
1532406095482,-6,-3,1,-3,-2,-2,-5,-6
1532406095487,2,2,1,-3,-4,-4,-15,-4
1532406095492,-9,0,3,-1,-1,0,-4,1
1532406095497,11,5,-1,-2,0,-2,-18,-6
1532406095502,-18,2,0,1,0,2,10,-2
1532406095507,-31,-10,0,0,-1,-1,0,-5
1532406095512,-26,-5,-1,0,-3,-4,11,-4
1532406095517,-5,-1,1,2,-2,0,10,-4
1532406095522,-7,-4,-3,-1,-1,-3,0,-3
1532406095527,31,-2,1,-2,1,3,23,-6
1532406095532,32,11,-1,-3,-4,-1,10,0
1532406095537,10,3,-1,-1,-1,-1,2,-1
1532406095542,-2,6,-2,2,1,-2,-1,-1
1532406095547,-1,8,-4,4,0,-4,-15,-11
1532406095552,9,5,-3,1,-2,-4,-21,4
1532406095557,13,5,-3,1,2,-3,-17,24
1532406095562,4,3,0,-1,-4,-3,-21,-3
1532406095567,8,0,-1,4,4,-1,-5,6
1532406095572,-2,2,0,-2,-7,-3,8,-5
1532406095577,-8,-2,-2,-1,-4,-4,21,-6
1532406095582,2,1,1,0,1,-4,15,0
1532406095587,-1,1,0,-2,-2,-1,3,-13
1532406095592,9,5,4,2,2,1,5,9
1532406095597,6,-1,-2,1,1,3,5,-1
1532406095602,1,2,2,-2,-1,-2,9,0
1532406095607,-6,-1,4,1,1,1,8,-1
1532406095612,-4,0,4,0,1,0,6,-2
1532406095617,-2,-2,6,-1,-3,-4,5,5
1532406095622,-2,0,5,1,-2,-2,9,-1
1532406095627,-3,1,2,1,-1,-2,3,-8
1532406095632,-3,2,7,0,1,0,3,0
1532406095637,-3,3,7,2,0,-2,-1,-1
1532406095642,-4,2,9,-1,2,-2,-2,-6
1532406095647,-2,-5,9,0,1,-3,-6,0
1532406095652,2,-7,3,1,-1,-1,-9,-3
1532406095657,-2,-9,1,-1,-1,1,-8,1
1532406095662,0,-6,0,-2,2,2,-10,-1
1532406095667,0,-5,-6,-1,-2,2,-6,3
1532406095672,0,-8,-6,0,2,4,-6,0
1532406095677,1,-6,-7,-2,1,3,-2,-2
1532406095682,-3,-10,-12,-3,2,0,-6,-4
1532406095687,-3,-19,-9,-4,-1,0,-3,-5
1532406095692,-3,-15,-11,-1,-1,1,-1,-6
1532406095697,-1,-14,-11,0,-2,2,1,-4
1532406095702,-2,-5,-5,-1,0,5,0,-6
1532406095707,-5,4,-1,1,0,1,3,-4
1532406095712,-6,8,0,-1,0,2,6,-4
1532406095717,-3,11,-2,-1,2,2,6,-1
1532406095722,-4,9,-9,-1,2,1,4,-3
1532406095727,-3,7,-12,-1,2,0,10,-4
1532406095732,-2,5,-8,-2,-1,0,5,-2
1532406095737,-2,7,-7,-2,-1,-2,4,-1
1532406095742,-1,2,-9,0,-2,-2,-3,-2
1532406095747,2,3,-9,0,0,-3,-4,-1
1532406095752,1,3,-8,0,-1,-3,-7,-1
1532406095757,1,2,-11,-2,2,-2,-9,0
1532406095762,1,-1,-2,-2,0,-1,-7,1
1532406095767,1,0,-2,-3,-3,1,-3,-1
1532406095772,0,1,-3,-3,0,3,-1,1
1532406095777,2,1,-7,-2,-1,1,4,1
1532406095782,2,0,-1,-2,-1,2,3,4
1532406095787,2,5,-3,-3,-3,0,-3,0
1532406095792,3,6,-3,-2,-5,0,-4,1
1532406095797,3,9,-8,-2,-2,0,-8,4
1532406095802,3,7,-10,1,0,-4,-2,-1
1532406095807,0,3,0,-2,-4,-3,6,2
1532406095812,0,4,2,-1,-1,-3,-3,-1
1532406095817,-2,3,6,-2,0,-1,-4,0
1532406095822,-1,5,5,-2,-1,-2,-6,-1
1532406095827,-1,0,-1,-2,0,-3,-7,1
1532406095832,0,0,-9,-1,-1,-4,-3,-1
1532406095837,-4,-4,-6,-4,-2,3,-1,1
1532406095842,-1,-6,-1,-8,0,10,-4,-2
1532406095847,-3,-7,0,-7,-1,9,-5,-1
1532406095852,-1,-10,2,-7,0,-2,-4,1
1532406095857,0,-8,3,-5,-1,-4,-6,0
1532406095862,-2,-7,7,-3,-2,-12,-2,-2
1532406095867,-3,-7,10,-3,0,-4,-4,-2
1532406095872,-3,-7,10,-1,0,3,-2,1
1532406095877,-2,-7,14,4,1,0,-2,-1
1532406095882,-4,-7,13,3,-1,2,-2,-3
1532406095887,-2,-5,9,4,3,-2,-4,-2
1532406095892,-4,-5,8,4,3,-5,-2,-2
1532406095897,-3,-4,9,5,2,-5,-2,-4
1532406095902,-4,-3,4,5,-1,-3,-4,0
1532406095907,-3,-4,3,6,-2,-6,-3,-4
1532406095912,-2,-4,4,3,-3,-5,-3,-4
1532406095917,-4,-5,3,2,-3,-5,0,0
1532406095922,-1,-3,1,1,-5,-3,-3,-4
1532406095927,-3,-1,-1,0,-1,-1,-1,-2
1532406095932,-2,-2,2,0,-2,-2,1,-3
1532406095937,-3,-1,0,1,-2,-3,0,-2
1532406095942,-3,-1,-1,1,-1,-4,2,0
1532406095947,0,-1,-1,-1,-3,-4,1,0
1532406095952,-1,-1,-1,0,-4,1,0,0
1532406095957,-1,-2,-2,-2,-4,2,-1,0
1532406095962,0,1,-1,-2,1,1,2,0
1532406095967,1,1,-2,-1,1,3,0,0
1532406095972,0,0,-3,-2,-1,-1,0,-1
1532406095977,2,1,-2,-1,-2,-1,-1,0
1532406095982,2,0,-2,-2,-1,-2,-1,-1
1532406095987,2,1,-1,-2,0,-3,-1,1
1532406095992,1,1,-1,-2,0,-2,0,-1
1532406095997,1,1,-1,-1,1,-3,-2,-1
1532406096002,0,0,-2,0,1,-3,1,-1
1532406096007,-1,1,-3,-2,1,-1,-2,-1
1532406096012,1,1,-2,-1,1,1,-2,-2
1532406096017,0,1,-3,-2,0,1,-1,-1
1532406096022,1,1,-2,0,0,0,-1,0
1532406096027,0,0,-3,-1,-2,0,-3,1
1532406096032,0,0,-1,0,-1,0,1,0
1532406096037,0,0,-1,1,0,0,0,-2
1532406096042,0,-1,-2,-1,1,1,0,-1
1532406096047,0,0,2,-1,0,1,0,-2
1532406096052,-1,0,0,0,0,1,-1,3
1532406096057,0,0,0,-1,-3,-3,-1,0
1532406096062,0,0,-3,-1,1,0,-1,-3
1532406096067,2,0,-2,0,0,-3,-1,-5
1532406096072,-1,0,-1,-2,-1,-1,0,0
1532406096077,0,-1,0,-2,0,0,-1,0
1532406096082,-2,-1,-1,-2,0,2,-1,-2
1532406096087,-2,0,-2,0,-2,0,0,-3
1532406096092,0,-2,-1,0,-1,0,0,-2
1532406096097,-1,0,-2,-2,-1,0,-1,0
1532406096102,-1,0,-2,-1,-1,0,-2,0
1532406096107,-3,-3,-2,0,-2,2,0,0
1532406096112,-1,0,-2,-2,-1,0,-2,-3
1532406096117,0,0,-2,-1,-1,-1,0,0
1532406096122,0,-1,0,-2,-2,-1,0,-2
1532406096127,0,-1,-1,-1,0,0,1,1
1532406096132,-1,0,1,-1,0,-2,0,1
1532406096137,-1,-1,-1,-1,-1,1,-2,0
1532406096142,-2,-1,-2,0,-2,-1,0,0
1532406096147,-1,-1,-1,0,-1,-1,-1,-3
1532406096152,-1,-1,-3,0,0,1,-1,-2
1532406096157,-1,0,-1,-1,1,-1,-1,-1
1532406096162,0,0,-2,0,1,-2,-1,-2
1532406096167,-1,1,-2,-2,-2,-1,0,-1
1532406096172,1,-1,-1,-1,-1,-2,0,-2
1532406096177,-1,0,-2,0,0,-1,-2,-2
1532406096182,0,0,0,0,-2,0,0,-3
1532406096187,1,0,-2,-1,0,-2,-1,0
1532406096192,-1,-3,-1,0,0,0,-2,-2
1532406096197,-2,-2,-2,-1,-2,0,-3,-1
1532406096202,0,-1,-2,-1,1,-3,-1,-2
1532406096207,0,1,0,-1,-1,-1,-2,-1
1532406096212,1,1,0,-1,0,-1,0,-2
1532406096217,0,-1,1,-1,-1,-1,1,-2
1532406096222,-1,-1,-2,0,-1,2,-4,0
1532406096227,0,-2,-1,-2,0,-1,-2,-1
1532406096232,-1,-1,-2,-1,-1,-1,0,0
1532406096237,-2,0,-2,0,0,0,1,-3
1532406096242,0,0,-1,0,-1,-1,1,-1
1532406096247,-1,0,0,0,-1,-1,1,-1
1532406096252,0,0,-1,-1,0,-1,2,-2
1532406096257,0,-2,-1,-2,0,-1,0,-3
1532406096262,0,0,-1,-2,-2,-1,-2,0
1532406096267,1,-2,-1,0,0,0,0,-1
1532406096272,-2,0,-3,-1,-1,0,-2,-1
1532406096277,0,-1,-1,0,0,0,-3,0
1532406096282,0,-1,0,-1,0,0,0,1
1532406096287,-1,-1,0,-1,-2,-2,0,0
1532406096292,0,-1,-2,-2,-1,0,-2,-1
1532406096297,-1,-1,-1,-3,-2,-2,0,0
1532406096302,-1,1,-1,-1,-1,-3,-1,-1
1532406096307,-1,-2,-2,0,0,-1,-1,-1
1532406096312,-1,-2,0,0,0,-1,-1,-1
1532406096317,-1,0,-1,2,0,0,-1,0
1532406096322,-2,-2,1,-2,-1,-1,-1,1
1532406096327,-2,0,-1,-1,0,-1,0,-1
1532406096332,-1,0,0,-2,-1,-1,-1,-2
1532406096337,-1,-2,-1,-1,-1,-1,-1,-3
1532406096342,-2,-1,-2,1,-1,0,-1,0
1532406096347,0,0,-2,-1,-1,0,-3,-1
1532406096352,0,-2,-1,-1,0,-1,-1,-1
1532406096357,0,-1,-2,-2,0,-2,1,-1
1532406096362,-1,0,-2,0,-2,-1,0,-2
1532406096367,-1,-1,-1,-1,-1,0,-2,-1
1532406096372,1,0,-1,-1,-1,-1,-1,0
1532406096377,-2,0,-1,-1,1,-1,-1,0
1532406096382,0,-1,0,-2,-1,-1,0,0
1532406096387,-1,0,-2,-1,-1,1,-2,0
1532406096392,0,-1,0,1,-1,-1,-1,-2
1532406096397,0,1,0,-2,-1,-1,0,0
1532406096402,-1,-1,1,0,-1,-1,-1,1
1532406096407,-1,-1,-2,1,0,-2,-1,-3
1532406096412,1,-1,-1,-3,0,-2,-1,-1
1532406096417,-1,-2,0,-1,-1,-1,-2,-2
1532406096422,-1,-1,-1,0,-1,1,-2,-3
1532406096427,0,-1,-2,-2,0,-1,-2,-1
1532406096432,0,-2,-1,-2,0,0,0,-1
1532406096437,-1,-2,0,-1,-3,-2,1,1
1532406096442,-1,0,-1,-2,1,-2,-1,2
1532406096447,1,-1,0,0,-3,0,-1,0
1532406096452,0,-2,-1,-1,-1,-2,-2,-2
1532406096457,0,-1,-1,-1,0,0,0,-2
1532406096462,-1,-1,-1,-1,0,-2,-2,0
1532406096467,-1,-1,-1,-1,1,-1,0,-2
1532406096472,-1,0,0,-1,-1,1,-1,0
1532406096477,0,-1,0,0,-3,0,1,1
1532406096482,0,-2,0,0,-1,-2,0,-1
1532406096487,1,0,1,-1,-1,0,0,-1
1532406096492,0,0,0,-1,-1,0,-1,-1
1532406096497,0,-1,-2,0,-1,-1,-1,-4
1532406096502,0,0,-1,0,-1,-1,-1,-4
1532406096507,-1,0,0,0,-2,1,-1,0
1532406096512,0,-2,1,0,0,-1,-2,-3
1532406096517,-1,-1,-2,-3,1,0,-2,-2
1532406096522,1,-1,-2,-2,-2,0,-1,0
1532406096527,-2,-2,-1,0,2,-1,0,-3
1532406096532,-2,0,-2,-2,-2,2,0,0
1532406096537,0,2,-1,-1,-2,-1,0,1
1532406096542,-1,-1,-1,0,-1,-1,0,-5
1532406096547,0,-2,-1,-1,-2,-2,-1,1
1532406096552,-1,-2,0,-1,1,-3,-1,-3
1532406096557,-1,-2,-2,-1,-1,-1,-1,-1
1532406096562,-1,0,0,0,-1,-1,0,1
1532406096567,0,-1,-1,0,-1,-1,-2,-1
1532406096572,-1,-1,0,1,-1,0,0,0
1532406096577,0,0,0,-1,1,0,0,-2
1532406096582,-2,-1,-1,-1,-1,0,-1,-1
1532406096587,-2,2,0,-2,2,-2,-1,-1
1532406096592,-1,1,-1,0,-2,-2,-2,0
1532406096597,-1,-1,-1,0,0,-1,0,-4
1532406096602,-1,0,-3,0,-1,1,-1,0
1532406096607,1,-3,0,-1,-3,0,-1,-1
1532406096612,-1,-1,0,0,0,0,-1,0
1532406096617,-2,-1,0,-1,-2,-2,-1,-1
1532406096622,-2,-2,0,-1,0,-3,1,0
1532406096627,-1,-1,-1,-1,0,-2,-2,-1
1532406096632,0,-2,0,1,-2,-1,-1,-3
1532406096637,0,-1,0,-1,-3,-1,0,-2
1532406096642,-1,0,-2,0,-2,0,-2,0
1532406096647,0,-2,0,0,-1,0,0,-2
1532406096652,-2,-1,-2,-1,1,-2,-1,-1
1532406096657,0,-2,-2,-1,1,1,0,0
1532406096662,0,-1,0,-1,1,-1,0,-3
1532406096667,0,-1,-2,-1,-3,1,-1,-2
1532406096672,0,0,0,-1,-1,0,-2,-2
1532406096677,1,-1,1,0,-1,-1,-1,-1
1532406096682,1,1,-3,-2,-2,-3,-1,-1
1532406096687,-2,0,0,-1,1,-2,0,-1
1532406096692,0,-2,-2,-1,-1,0,-1,-1
1532406096697,-1,-1,-1,1,-1,-1,0,1
1532406096702,-2,-1,0,0,-2,2,-1,0
1532406096707,0,0,-2,0,-1,-1,-2,-1
1532406096712,0,-1,0,-1,-1,0,1,-2
1532406096717,-2,0,-1,-1,-2,-3,-2,-1
1532406096722,-1,-1,0,0,-3,0,0,-3
1532406096727,-1,0,-1,0,-1,-1,-1,0
1532406096732,-1,-1,-1,-2,0,-1,-1,1
1532406096737,-1,-2,-1,-2,1,-1,-2,-2
1532406096742,-1,-1,0,-1,0,0,-2,0
1532406096747,0,-1,-2,-1,0,0,0,-2
1532406096752,0,-1,-1,-1,-1,-1,-2,0
1532406096757,0,-1,-1,0,-1,-1,-2,0
1532406096762,0,0,-3,-2,-1,1,-1,-1
1532406096767,-1,-1,0,0,-1,-1,-1,-2
1532406096772,-1,0,-2,-1,-1,-1,-1,-1
1532406096777,-2,0,-2,-1,-2,-1,-2,-2
1532406096782,-1,-2,0,-2,0,-1,-1,-1
1532406096787,-1,-3,-2,-1,-1,0,-2,-1
1532406096792,0,0,0,-1,-1,-1,-1,-1
1532406096797,-1,-2,-3,-1,-1,-2,-1,-1
1532406096802,0,-2,-1,-2,-3,-2,-1,-1
1532406096807,-1,-1,-1,1,0,-2,0,1
1532406096812,1,-1,-1,-2,-1,0,-1,-1
1532406096817,-1,0,0,-1,-2,1,1,-1
1532406096822,0,0,0,-1,1,0,-1,-2
1532406096827,1,-1,-1,-1,-2,-2,0,-2
1532406096832,0,-1,-2,0,-2,-1,-1,0
1532406096837,0,-2,-1,0,-1,-2,-2,0
1532406096842,-1,0,-2,-2,-1,0,-3,-2
1532406096847,0,-2,0,-1,-3,1,-3,-1
1532406096852,-1,-1,-2,-2,1,0,-1,-1
1532406096857,-1,-1,0,-1,0,0,-1,0
1532406096862,0,-1,-1,0,0,-2,-1,-1
1532406096867,0,-1,0,-1,-1,1,-1,-2
1532406096872,-1,-1,1,-1,-3,-2,1,-2
1532406096877,1,-2,-1,0,-1,-1,-1,-2
1532406096882,0,-1,-1,-2,1,-1,-1,-2
1532406096887,-2,0,-1,-2,0,0,-1,-2
1532406096892,-1,0,-2,-2,-1,0,0,-2
1532406096897,-1,1,0,0,-1,-1,-1,0
1532406096902,-1,-1,-1,0,-4,1,-1,0
1532406096907,-1,0,0,-1,-1,-2,1,-1
1532406096912,-1,-1,-2,0,-1,0,-1,-1
1532406096917,1,1,0,-1,0,-2,-2,-1
1532406096922,0,0,-1,-1,1,-1,-1,-1
1532406096927,0,1,1,-1,-2,0,-1,0
1532406096932,0,0,-1,-1,3,-1,-1,-1
1532406096937,0,-1,0,-2,-2,1,0,-1
1532406096942,0,-2,0,0,-2,0,-1,-2
1532406096947,0,-3,-1,-1,-2,-1,0,0
1532406096952,0,-2,-2,0,-1,-1,0,-1
1532406096957,0,0,-1,-1,-1,-1,0,-3
1532406096962,0,0,0,0,-3,0,-1,-2
1532406096967,-1,0,-2,0,-3,-1,-1,-3
1532406096972,0,0,-2,0,-1,1,0,0
1532406096977,-1,0,0,-1,-1,0,-1,0
1532406096982,-1,-1,1,-1,0,-1,0,2
1532406096987,-1,0,-2,-3,-1,-1,-3,2
1532406096992,-1,-1,0,0,-2,-1,-1,-3
1532406096997,-1,-1,-2,-2,0,-1,-1,-3
1532406097002,-2,-1,0,-1,0,0,-1,-1
1532406097007,0,0,-1,1,0,-1,0,-2
1532406097012,0,-1,0,-1,-2,0,0,1
1532406097017,-2,-2,-1,-1,-1,-1,-1,1
1532406097022,-1,-2,-1,-2,-1,-3,-1,0
1532406097027,-2,-2,-1,0,0,-2,-1,1
1532406097032,-1,-1,1,0,-1,0,1,-1
1532406097037,0,-1,-1,0,-1,1,-1,-3
1532406097042,0,-1,-1,1,-1,-1,0,-4
1532406097047,0,-1,-1,-1,-1,0,-2,-2
1532406097052,-1,-1,-1,-1,0,-2,-1,-2
1532406097057,-1,0,-1,0,-1,-2,-1,0
1532406097062,-3,-2,-1,0,-1,0,0,-2
1532406097067,0,0,-2,0,1,-1,-1,0
1532406097072,-2,0,0,0,-1,-1,-4,-1
1532406097077,-2,1,-1,-1,-2,-1,0,0
1532406097082,1,-3,-1,-1,1,-2,-1,-3
1532406097087,-1,-2,-1,-2,-1,-2,1,-2
1532406097092,0,0,1,-1,3,0,-2,0
1532406097097,-1,-2,1,-2,-1,-3,-2,-2
1532406097102,0,-1,-2,0,-2,-1,-1,-1
1532406097107,0,-1,0,0,0,-1,-1,0
1532406097112,0,-3,-1,0,-2,-2,-2,-1
1532406097117,0,0,-1,-1,-2,1,0,-1
1532406097122,-2,-1,-1,0,-1,-2,-1,0
1532406097127,0,0,-1,0,0,0,0,-1
1532406097132,-1,0,-2,0,0,0,0,0
1532406097137,1,-2,-1,-1,-1,-2,-1,-1
1532406097142,-1,-2,-1,-2,-1,-1,0,-2
1532406097147,0,-1,0,-1,-2,0,0,-1
1532406097152,0,0,-1,-1,0,-3,-1,-2
1532406097157,-2,-1,-2,1,0,1,-1,0
1532406097162,-1,1,-1,-1,-3,-1,-1,0
1532406097167,-1,-1,0,0,-2,0,-4,-1
1532406097172,0,-2,-2,0,-2,-1,-1,-3
1532406097177,0,-1,-1,-3,-2,-1,-1,-1
1532406097182,0,-1,0,-2,1,-1,-1,-2
1532406097187,-1,-1,-1,-1,0,-2,-1,1
1532406097192,-2,1,0,-1,-1,-1,-1,0
1532406097197,0,0,-1,0,-1,-1,0,-2
1532406097202,0,-1,0,-1,0,0,-2,-2
1532406097207,1,0,-1,-2,0,-1,-2,-1
1532406097212,0,0,0,-1,-1,-1,-2,-1
1532406097217,-2,-2,1,0,1,-1,0,-1
1532406097222,-2,0,-1,-1,-2,0,0,-1
1532406097227,-1,-1,-1,1,1,-1,-2,-1
1532406097232,0,-1,-1,-2,1,-1,-2,-1
1532406097237,-1,0,0,-1,0,-1,-1,-1
1532406097242,0,1,-1,-1,-1,-1,0,-2
1532406097247,-2,-1,0,-1,-1,-2,0,-1
1532406097252,-1,-1,-2,-1,-1,-1,1,-2
1532406097257,-1,-1,0,0,1,-1,-2,-1
1532406097262,0,-1,-1,0,0,-1,-2,-1
1532406097267,1,-2,-2,-1,0,-1,1,0
1532406097272,-1,0,0,-1,0,-3,-1,-1
1532406097277,-1,-2,-2,0,-2,-1,-1,-2
1532406097282,-1,0,-3,-1,-1,-1,-1,-1
1532406097287,-3,0,-1,-1,0,0,0,1
1532406097292,-1,-2,0,0,0,1,-1,-1
1532406097297,-1,-1,-1,-1,-2,1,-1,-3
1532406097302,0,-2,1,0,-1,-2,-2,-1
1532406097307,0,-1,0,-2,-2,-1,0,-1
1532406097312,-2,1,0,-2,-1,-1,1,0
1532406097317,-1,-1,-1,-1,0,-1,-1,-3
1532406097322,-1,-2,-1,-1,-1,0,-1,-1
1532406097327,-1,0,-1,0,-4,0,-2,-1
1532406097332,-2,0,-1,0,-1,-1,-1,-1
1532406097337,-1,-2,0,-2,-1,-2,0,0
1532406097342,1,0,1,0,0,-2,0,0
1532406097347,0,-2,-1,1,0,0,0,-2
1532406097352,0,0,-1,0,-1,0,-1,0
1532406097357,-2,1,0,-1,-1,-1,-1,0
1532406097362,0,0,0,-1,1,0,-1,-2
1532406097367,-2,0,-1,-1,0,-1,-1,-3
1532406097372,0,0,-2,-1,-1,-1,1,0
1532406097377,0,-1,-2,-1,-1,-1,-1,-2
1532406097382,-1,-1,-1,0,0,-1,-2,0
1532406097387,-1,-2,-2,1,0,-1,-1,1
1532406097392,-1,-1,-1,-1,-1,0,-1,-3
1532406097397,0,-2,0,-2,0,-2,0,0
1532406097402,-1,0,0,-1,0,-1,-1,0
1532406097407,-1,0,-1,-1,-3,0,-1,0
1532406097412,-1,-1,0,0,1,-1,-1,-2
1532406097417,-2,-1,-2,-2,-2,0,1,-2
1532406097422,1,-2,-1,-2,0,0,0,-4
1532406097427,0,-1,-1,-1,-1,0,-2,-1
1532406097432,-1,0,-2,-2,-3,-1,-1,0
1532406097437,0,-3,-1,-2,-1,-1,-2,0
1532406097442,-1,-1,0,-1,0,0,0,-1
1532406097447,1,0,-1,0,1,-1,-1,-3
1532406097452,0,-1,-1,1,-1,-1,1,-1
1532406097457,-2,-1,-1,0,-2,-1,-1,-1
1532406097462,0,-1,-2,0,-2,-1,0,0
1532406097467,0,0,-2,0,-1,-1,-2,0
1532406097472,0,-1,-1,-1,-2,-1,-2,0
1532406097477,1,1,-1,0,0,1,-1,-2
1532406097482,1,-1,-1,1,-1,-2,-2,-1
1532406097487,-1,-1,0,-1,1,1,-1,0
1532406097492,-3,0,0,-1,-1,-1,-1,0
1532406097497,0,-1,1,1,1,0,-2,-1
1532406097502,-2,0,-1,-1,-3,-1,-1,-1
1532406097507,-1,1,-1,-1,-3,-2,0,-1
1532406097512,0,0,0,-1,2,0,0,0
1532406097517,-1,-1,1,-1,-2,-1,-2,-1
1532406097522,-2,1,-2,-1,-1,0,-2,0
1532406097527,-1,-1,0,-1,0,-1,-1,-1
1532406097532,-1,-1,-3,-1,-1,-1,-2,-1
1532406097537,-1,-2,0,-1,-1,0,0,-2
1532406097542,0,-2,0,-1,1,-1,0,-1
1532406097547,0,-1,0,0,0,-1,0,-1
1532406097552,1,-1,-2,-1,-2,0,0,-1
1532406097557,-1,1,0,0,-1,-1,-3,-1
1532406097562,1,0,-1,-2,-1,-2,-2,-1
1532406097567,-1,-1,-1,-2,0,-1,0,0
1532406097572,0,0,0,0,-1,-2,-1,0
1532406097577,-1,-1,-2,-1,-1,-2,0,-1
1532406097582,-3,-1,-1,-1,-2,0,0,-1
1532406097587,-1,0,-2,-2,1,0,1,-4
1532406097592,-1,0,1,-1,0,-1,-1,-2
1532406097597,-2,-1,0,-1,0,0,-1,1
1532406097602,-1,-1,1,0,-2,0,-1,0
1532406097607,-2,0,-1,1,-1,-1,-2,-1
1532406097612,-1,-1,-1,-1,-3,0,0,-3
1532406097617,-1,-1,0,-1,-1,0,-1,-2
1532406097622,0,-2,-1,-2,0,-2,-1,0
1532406097627,0,-2,-1,-2,-1,0,0,0
1532406097632,-1,-2,1,-2,-2,-3,-2,-1
1532406097637,0,-1,-1,-1,-2,-1,-1,0
1532406097642,0,0,-2,-1,-2,-2,0,0
1532406097647,0,-1,-1,-1,-1,-1,-2,-2
1532406097652,0,-1,-1,0,0,0,-1,-2
1532406097657,-1,-2,-1,-2,-1,0,0,-3
1532406097662,0,0,0,-1,0,2,0,-2
1532406097667,-1,-2,-3,-1,-1,0,0,0
1532406097672,0,-1,0,-1,-1,0,0,0
1532406097677,-1,1,-1,0,0,-1,-1,-2
1532406097682,1,-2,0,0,1,-1,-2,0
1532406097687,-2,0,-1,0,-2,0,1,-2
1532406097692,0,-1,0,1,-1,-2,-2,-2
1532406097697,-1,-3,-1,-1,0,-1,1,-1
1532406097702,0,-1,0,-2,-1,0,0,-2
1532406097707,-1,0,0,0,-1,-3,0,-1
1532406097712,-1,-1,-1,-1,-2,1,-1,-1
1532406097717,0,-1,-1,0,0,1,-1,1
1532406097722,-1,-1,-1,1,1,0,-2,-1
1532406097727,0,-4,-2,-2,-1,-2,-2,-3
1532406097732,1,-2,-2,-3,0,0,-1,-1
1532406097737,-1,-2,-2,0,-3,-1,0,-3
1532406097742,-2,-1,-1,2,-1,-2,-2,1
1532406097747,-1,0,0,-1,-1,0,1,0
1532406097752,-1,0,-1,1,-2,-1,-1,-4
1532406097757,-1,0,0,0,-1,0,-1,-3
1532406097762,2,-2,-2,-1,-2,0,-2,-1
1532406097767,-1,0,-2,-1,0,-1,0,-1
1532406097772,-2,-1,0,0,-3,-2,-1,-2
1532406097777,-1,-1,-2,-1,1,0,-1,-3
1532406097782,-2,-1,0,0,2,1,0,-1
1532406097787,-1,0,-1,-2,0,1,0,-1
1532406097792,2,-2,-1,-1,-2,-1,0,0
1532406097797,0,1,0,-1,-2,-2,-1,-3
1532406097802,-1,-1,-1,-2,-1,-1,-1,-2
1532406097807,0,-1,0,1,0,0,-1,-1
1532406097812,-1,1,-1,0,1,-1,-2,0
1532406097817,-1,0,0,0,-1,-1,-2,-1
1532406097822,-1,-1,0,-1,1,0,-2,1
1532406097827,-1,-2,0,-1,-1,0,-2,0
1532406097832,-1,-1,-1,-1,0,0,1,-2
1532406097837,-1,-1,-1,0,-1,-1,-1,1
1532406097842,-1,-1,0,-1,0,0,-2,-3
1532406097847,0,-1,-1,-1,-1,-2,-2,-2
1532406097852,-1,-2,0,-2,-2,0,-1,-2
1532406097857,-1,1,0,0,0,-1,0,0
1532406097862,1,0,0,-1,-2,0,-1,1
1532406097867,1,-1,-3,-1,0,-2,0,-1
1532406097872,-3,0,-2,1,-1,0,-2,0
1532406097877,0,0,0,1,-1,-1,0,0
1532406097882,-2,-1,-2,0,-2,2,-1,2
1532406097887,-2,-1,-1,1,-1,0,-1,-2
1532406097892,0,-1,-2,-1,0,-2,-1,0
1532406097897,1,0,-1,-2,0,-2,-1,-1
1532406097902,-1,-1,0,-1,-1,-1,0,-2
1532406097907,-1,0,0,0,-2,-2,0,0
1532406097912,0,-1,-1,0,2,1,-1,-2
1532406097917,-1,-2,0,-1,-1,0,-1,-1
1532406097922,-1,1,-1,0,-1,-2,1,-2
1532406097927,0,-1,0,-1,-1,2,0,0
1532406097932,-1,-1,-1,-1,-1,0,0,-2
1532406097937,-1,-1,0,-1,0,0,-1,1
1532406097942,-1,-1,-1,-2,-2,-1,0,-2
1532406097947,1,-1,-1,-1,-1,1,-1,-2
1532406097952,-1,1,0,-1,0,-1,-1,-2
1532406097957,-1,-2,0,1,-2,0,-1,-1
1532406097962,-2,0,-2,0,2,-3,1,-3
1532406097967,-2,1,-2,-2,-1,-1,0,0
1532406097972,0,-1,-2,-2,-1,-1,-1,2
1532406097977,0,-2,-1,-1,1,-1,0,-3
1532406097982,0,1,-1,-1,-2,-2,0,-2
1532406097987,0,-1,0,-1,-1,-1,-1,1
1532406097992,-2,0,-2,1,-1,-1,-1,-3
1532406097997,0,-1,-2,-1,0,0,0,0
1532406098002,0,-1,-1,0,0,-2,-1,0
1532406098007,-2,1,0,0,-1,-3,0,-2
1532406098012,1,-2,-1,-1,-2,-1,-2,-2
1532406098017,-2,0,-3,-1,0,1,-1,0
1532406098022,0,-2,0,0,-1,0,-1,-4
1532406098027,-1,-1,-2,-2,0,-1,-1,0
1532406098032,2,-1,1,-3,0,-1,-1,-3
1532406098037,0,-1,0,-2,0,-1,-1,0
1532406098042,0,-4,-1,-2,1,-2,-1,1
1532406098047,0,-2,0,-1,-1,-2,-1,0
1532406098052,-2,-1,-1,0,0,-2,-1,0
1532406098057,-3,0,-2,-1,-2,-2,1,-1
1532406098062,-2,0,0,1,-2,1,0,-3
1532406098067,-1,-2,-1,-1,0,-3,-1,-3
1532406098072,-2,-1,-1,-1,-1,-2,0,0
1532406098077,0,0,-1,0,-3,0,-1,-1
1532406098082,0,0,-1,-1,1,0,-1,0
1532406098087,-2,1,-1,-1,-1,0,-2,-1
1532406098092,0,-1,-2,-1,1,-1,-2,-2
1532406098097,-2,-3,1,-1,-2,0,0,0
1532406098102,-1,0,-2,-1,-1,-2,-1,-2
1532406098107,1,-1,-3,0,-1,-1,-2,-2
1532406098112,-2,0,0,-1,-1,1,0,-1
1532406098117,-1,0,-1,-1,-3,-1,-1,-4
1532406098122,0,-1,-1,-1,-1,-1,-1,1
1532406098127,-3,-2,-2,-1,-1,-1,-2,-2
1532406098132,-1,-1,0,-1,-2,0,-2,-4
1532406098137,-1,-1,-1,0,-1,1,-2,-2
1532406098142,-2,0,-2,-1,-1,0,0,-1
1532406098147,-1,-1,-1,-1,-2,0,-2,0
1532406098152,-1,-2,0,-1,-1,-1,-1,-1
1532406098157,-1,0,1,0,-1,0,-1,0
1532406098162,0,-2,0,1,0,1,-3,-2
1532406098167,0,-2,-2,-1,0,-1,0,1
1532406098172,-1,0,0,0,-1,-1,-1,-1
1532406098177,-1,-1,0,-1,-1,-2,-1,0
1532406098182,-1,-2,0,-1,1,0,0,-2
1532406098187,-1,0,0,-1,1,-2,-1,0
1532406098192,-2,-2,-1,-1,0,0,-2,0
1532406098197,0,0,-3,0,-1,-1,-1,-1
1532406098202,-1,1,-1,0,-1,0,-1,-2
1532406098207,0,1,0,-2,-1,0,-2,-2
1532406098212,0,0,-1,-3,-1,0,0,-1
1532406098217,0,0,-2,-1,-2,-1,-2,-2
1532406098222,-1,0,-1,0,0,-3,-1,-2
1532406098227,-2,-1,-1,0,-1,-2,-2,-1
1532406098232,-1,-1,-1,0,0,-3,-2,-1
1532406098237,-2,-2,0,0,-1,0,-1,-2
1532406098242,0,-3,-1,0,0,-1,1,-1
1532406098247,-1,-1,0,-2,-1,-1,0,-2
1532406098252,-1,0,0,-2,-1,0,-1,-1
1532406098257,0,-1,-1,-1,0,0,0,-1
1532406098262,-1,0,-2,-2,-2,0,0,0
1532406098267,-1,-1,-1,0,0,1,-1,-2
1532406098272,0,0,-1,-1,0,0,-1,0
1532406098277,-1,-1,1,-1,-1,-2,-1,0
1532406098282,0,0,-2,-2,-2,0,-2,0
1532406098287,-1,0,-1,1,-2,0,0,-1
1532406098292,-1,-2,0,0,-1,-3,-1,-2
1532406098297,0,-1,-1,0,-1,0,-1,1
1532406098302,-1,-2,0,-1,2,-2,0,-1
1532406098307,1,1,-1,-1,0,0,0,-1
1532406098312,-1,-1,0,1,-2,-1,0,-1
1532406098317,0,0,0,0,1,1,-2,-4
1532406098322,-1,-1,0,0,-3,-1,-1,-2
1532406098327,0,-1,-1,-1,-1,-1,-1,-1
1532406098332,-1,-1,-2,-2,-2,-1,-1,-1
1532406098337,-2,1,0,-1,-2,0,0,0
1532406098342,0,1,-1,-1,-1,-1,0,-1
1532406098347,-1,-2,-1,-1,-1,0,-1,0
1532406098352,-1,-1,0,-1,-1,0,-1,-1
1532406098357,-1,-1,-1,-1,0,-3,-2,-2
1532406098362,0,-1,-3,-3,-3,0,-1,-2
1532406098367,0,-1,0,-1,1,-2,-2,-2
1532406098372,-1,0,-2,0,1,-1,0,-1
1532406098377,0,-1,-3,-1,-3,-1,1,0
1532406098382,-1,-1,0,0,-2,-1,-1,-1
1532406098387,0,-1,-2,0,0,0,-2,0
1532406098392,0,-1,-1,-2,-2,0,1,1
1532406098397,0,-1,0,0,1,0,-3,-2
1532406098402,-1,-2,-1,-1,0,-1,-1,-2
1532406098407,-1,1,0,2,-1,-1,0,-1
1532406098412,0,0,0,0,0,-2,-2,-1
1532406098417,-1,-2,-1,-1,-1,-2,0,0
1532406098422,0,-1,-1,-1,-1,-1,1,-2
1532406098427,0,0,-2,0,0,0,-1,-3
1532406098432,-1,-1,-1,1,-1,0,-2,-2
1532406098437,-2,1,-2,-1,1,0,-1,1
1532406098442,-2,-2,1,-2,-1,-1,-3,-2
1532406098447,-2,-2,-1,0,-1,-2,0,0
1532406098452,-2,-1,0,0,0,-2,0,0
1532406098457,-1,-3,-1,-1,-3,0,0,-1
1532406098462,0,0,0,0,-2,-1,-1,1
1532406098467,0,-1,-1,-2,-1,-2,-1,-2
1532406098472,-1,-1,0,-1,0,0,-1,0
1532406098477,-1,-1,-1,-1,0,-1,-2,-1
1532406098482,-1,0,0,0,1,1,0,0
1532406098487,0,-1,-2,0,-1,-1,1,-1
1532406098492,-2,0,0,-1,-1,0,0,-1
1532406098497,0,0,-1,-2,-2,-1,-1,-2
1532406098502,0,-1,-1,0,0,-2,-1,0
1532406098507,0,0,0,-1,-2,0,-1,0
1532406098512,0,-2,0,-1,-1,0,0,-2
1532406098517,-2,-1,0,-1,-1,0,-1,-2
1532406098522,-1,-2,-1,-3,-1,0,-1,-2
1532406098527,0,-1,-1,-1,0,-1,-1,-1
1532406098532,-1,1,-1,-1,-1,-2,-1,-1
1532406098537,0,-1,0,0,0,-2,-2,-2
1532406098542,-1,0,-1,0,0,1,0,-2
1532406098547,-2,-2,1,1,-1,0,-1,-3
1532406098552,-2,-3,-1,-1,0,-1,-1,-1
1532406098557,-1,-2,0,-2,0,0,0,0
1532406098562,0,0,-1,-1,0,-2,-1,1
1532406098567,0,-2,-2,0,-2,-1,-1,2
1532406098572,-1,0,-1,1,-1,0,-3,-2
1532406098577,-1,-1,-2,1,1,-1,0,-1
1532406098582,0,-1,0,-1,-1,0,-2,1
1532406098587,-2,-1,0,-1,-2,0,0,-3
1532406098592,-1,-2,-1,-1,1,-1,-1,-2
1532406098597,0,-1,-2,-2,-1,-1,-1,0
1532406098602,1,-2,-1,0,-1,-2,-1,-2
1532406098607,0,-1,-2,0,-1,-1,-2,-1
1532406098612,-2,-3,-1,-1,-1,0,-2,1
1532406098617,-2,-1,0,-1,-1,-1,1,-2
1532406098622,0,0,-1,0,-1,0,0,-3
1532406098627,-2,-1,-1,-2,-1,0,-1,-1
1532406098632,0,-1,-2,-2,-1,-1,1,-5
1532406098637,-1,-1,-2,-2,-1,0,-1,-2
1532406098642,-1,-1,0,-1,-1,-1,0,1
1532406098647,-1,0,1,-1,1,-2,-2,1
1532406098652,0,-1,-2,0,-3,1,-1,3
1532406098657,1,0,-1,0,-2,0,-1,0
1532406098662,-1,0,-3,-1,0,-1,-1,0
1532406098667,-1,0,0,0,-1,0,0,-5
1532406098672,-1,-1,0,-2,0,-1,0,-3
1532406098677,0,-1,0,-1,0,-3,-2,-1
1532406098682,-1,0,-2,-1,0,0,-2,-2
1532406098687,-1,1,0,-1,-2,1,-1,-1
1532406098692,-1,0,0,-1,-1,0,0,-1
1532406098697,-1,1,0,0,-2,1,-1,-1
1532406098702,-2,0,-1,-1,-1,-1,-1,-1
1532406098707,0,-1,0,0,1,-2,-1,0
1532406098712,0,1,0,0,-1,1,-2,-2
1532406098717,-2,-2,-1,-1,-1,-1,-2,1
1532406098722,-1,-1,0,-1,-1,-1,-1,-3
1532406098727,0,-3,0,-1,-2,0,0,-1
1532406098732,0,-1,0,-1,-2,-1,0,0
1532406098737,0,-2,-1,0,0,-1,1,-2
1532406098742,-1,-2,-1,0,-1,-2,0,1
1532406098747,-1,-1,-1,-2,0,-1,0,0
1532406098752,-1,-1,1,-1,-2,-1,-1,-4
1532406098757,-2,0,0,-2,-2,0,-1,-3
1532406098762,-1,-1,0,0,1,-1,-3,0
1532406098767,0,-1,-3,-2,1,0,-2,0
1532406098772,-2,0,-1,-1,-1,0,0,-1
1532406098777,-1,0,-1,-1,-1,1,0,-2
1532406098782,-1,-1,0,-2,-1,-1,0,0
1532406098787,0,-1,0,-1,-1,-1,-3,-1
1532406098792,-1,-1,-1,0,0,0,-1,-2
1532406098797,-1,-2,-2,0,0,-1,-3,-1
1532406098802,0,-1,-1,-1,-2,-1,-2,-1
1532406098807,-1,-2,-2,-1,-4,-2,-2,0
1532406098812,1,-1,-1,0,-2,-2,0,-1
1532406098817,1,0,-2,-1,0,-2,-1,-1
1532406098822,0,1,-1,0,-1,0,-1,-2
1532406098827,1,-1,-1,0,1,-1,-1,-2
1532406098832,-1,-1,-2,0,-2,-2,0,0
1532406098837,-2,1,-1,-1,-1,0,-1,1
1532406098842,-1,-3,-1,0,-2,-1,0,-1
1532406098847,0,0,-2,0,0,-1,-1,0
1532406098852,0,-2,0,-1,0,-3,-2,-4
1532406098857,-1,-1,-1,0,0,0,-2,-3
1532406098862,-2,0,-1,-2,-1,-2,1,-1
1532406098867,0,0,0,-1,0,0,-1,-1
1532406098872,-1,-1,-2,0,0,0,-1,1
1532406098877,0,0,0,0,-1,0,-1,1
1532406098882,0,-1,-1,-1,-2,0,-1,-3
1532406098887,0,0,-1,1,-1,0,0,-1
1532406098892,-2,0,-1,-2,0,-1,-1,-1
1532406098897,0,-2,-1,0,0,-2,-1,0
1532406098902,-2,-2,-3,-2,-2,-1,0,0
1532406098907,0,-1,0,-1,0,0,-2,0
1532406098912,0,-2,0,-2,-1,0,-1,0
1532406098917,-1,-1,0,-2,-2,-1,-2,-2
1532406098922,1,0,0,0,-1,-1,-4,-2
1532406098927,-2,-2,0,-1,-3,0,-1,-3
1532406098932,1,1,-2,-1,0,0,-1,-2
1532406098937,-1,1,-1,-1,-1,-1,1,-1
1532406098942,-1,-2,-1,0,0,-1,0,0
1532406098947,0,-1,-2,-2,-1,-1,0,0
1532406098952,-2,0,-1,0,1,0,-2,-2
1532406098957,-2,-1,0,-1,-2,-1,2,-2
1532406098962,0,0,0,-1,0,1,-2,-3
1532406098967,-1,0,1,-1,-1,0,0,-2
1532406098972,-1,-1,-1,0,2,-1,0,1
1532406098977,-2,-1,-1,0,1,0,-1,1
1532406098982,-1,0,-2,-1,-1,-2,1,-2
1532406098987,-1,-2,-2,0,-1,0,0,-1
1532406098992,-2,0,-1,-1,-3,-1,-1,-2
1532406098997,0,-2,0,-3,-2,-1,0,-1
1532406099002,-1,0,0,-1,0,-2,-1,-1
1532406099007,-1,-1,-1,-2,0,0,-2,0
1532406099012,0,-3,-2,-2,-1,0,0,-1
1532406099017,0,-1,-1,-1,1,-1,0,-1
1532406099022,0,-2,-1,-1,-2,0,-1,0
1532406099027,0,1,-1,0,-2,-2,-1,-2
1532406099032,-1,-1,0,0,-2,-2,0,-1
1532406099037,-1,0,-1,-1,-1,0,-1,-1
1532406099042,1,-2,-1,1,-1,-1,-1,-1
1532406099047,-2,-2,1,-1,-2,0,-2,-1
1532406099052,-1,-2,-1,0,0,-1,-2,-1
1532406099057,-1,0,-3,-1,-3,-1,-2,-3
1532406099062,-1,-1,0,0,0,0,-1,-2
1532406099067,1,0,-2,0,-2,-3,0,-2
1532406099072,-1,-1,-1,0,0,0,0,0
1532406099077,-1,0,-1,-1,-2,-1,-2,0
1532406099082,-1,0,-2,-3,-1,-1,-1,-2
1532406099087,-1,0,0,-1,-1,0,-2,-2
1532406099092,0,0,-2,0,0,-2,-3,-1
1532406099097,1,-1,-2,-1,-1,-1,0,-2
1532406099102,-2,-1,-2,1,-3,0,-1,1
1532406099107,0,-2,-1,-2,0,-1,-2,-3
1532406099112,0,-1,-2,0,1,0,1,-1
1532406099117,-2,-2,1,0,0,-1,-3,-1
1532406099122,-1,1,1,-2,1,-1,-1,-1
1532406099127,-1,-2,0,0,-2,-1,-2,1
1532406099132,1,0,0,0,-2,0,0,0
1532406099137,-1,-2,-1,0,-2,-1,-2,-1
1532406099142,0,0,-3,0,1,-1,1,-2
1532406099147,-1,1,-1,-1,-2,0,0,-1
1532406099152,0,-1,1,-2,-1,-1,-4,-1
1532406099157,-2,-2,-2,-1,-4,-2,-2,-1
1532406099162,-1,0,-1,-1,-1,-1,-2,1
1532406099167,0,1,0,0,-1,0,-2,-3
1532406099172,0,-2,-1,0,0,-1,-1,-2
1532406099177,-1,-1,-1,1,0,-2,0,0
1532406099182,-1,0,1,-1,-2,-1,-2,0
1532406099187,-2,-1,-1,-1,-1,-1,0,1
1532406099192,-1,-1,-1,0,0,0,-1,-1
1532406099197,0,-1,-3,-1,-2,1,-1,-1
1532406099202,-1,-2,-2,0,0,-1,0,-1
1532406099207,-1,-2,-3,-2,-1,-1,-1,1
1532406099212,-3,0,0,-2,-3,-2,-1,-2
1532406099217,0,-1,0,-2,-2,-1,0,-3
1532406099222,0,1,-1,-1,-2,0,1,-1
1532406099227,-1,0,0,-1,0,0,-1,-3
1532406099232,-1,-1,-2,0,1,0,-2,-1
1532406099237,0,-1,0,0,-2,-1,-1,2
1532406099242,0,-2,0,-1,-1,0,2,0
1532406099247,0,-1,0,0,-1,-1,-1,1
1532406099252,-2,-1,0,0,0,-2,1,2
1532406099257,-1,0,-2,-1,1,-2,-2,-1
1532406099262,-1,-1,0,-1,1,-2,-1,-3
1532406099267,-1,0,1,-1,1,-2,-2,-1
1532406099272,-1,1,-1,-2,-2,-1,-2,-2
1532406099277,0,0,-1,-1,-2,1,-1,-2
1532406099282,-1,-2,-1,0,0,-2,-1,0
1532406099287,0,0,-2,0,0,-1,-1,-1
1532406099292,-1,-1,1,-1,-2,0,0,-2
1532406099297,0,0,-1,-1,0,-2,-1,0
1532406099302,0,0,0,0,-2,0,-2,0
1532406099307,0,0,-1,0,1,-2,0,0
1532406099312,-2,0,-1,-1,-1,-1,-1,0
1532406099317,0,-1,0,0,0,-2,-1,-1
1532406099322,0,0,-2,0,0,-1,1,-2
1532406099327,-1,-2,-1,-1,-3,-1,-3,-2
1532406099332,1,-1,-2,1,-1,-1,-2,-3
1532406099337,-1,-1,-1,0,0,-1,0,-2
1532406099342,-1,-1,1,-3,-1,-1,-2,-1
1532406099347,0,0,-1,0,-1,-2,0,1
1532406099352,-1,-1,-2,-1,-3,0,-1,-2
1532406099357,-1,-1,0,0,-1,0,-1,0
1532406099362,0,-1,-1,1,0,-1,-1,0
1532406099367,0,0,-1,0,-2,-1,0,-2
1532406099372,0,-3,0,-1,1,-2,-2,1
1532406099377,-2,-1,1,-1,1,-1,0,-1
1532406099382,0,-1,-2,0,0,-1,-2,-2
1532406099387,-1,-2,0,-1,0,1,0,-2
1532406099392,0,-1,0,1,-1,-1,-1,-3
1532406099397,0,-2,-1,-1,-3,-1,-1,-3
1532406099402,0,0,-1,-1,-1,-1,-1,0
1532406099407,-1,-3,0,0,0,0,0,1
1532406099412,-1,1,0,-2,0,0,-1,1
1532406099417,0,0,-2,-1,0,0,0,1
1532406099422,0,0,0,-1,0,-1,0,0
1532406099427,1,-3,-1,1,0,-1,0,-1
1532406099432,1,-1,0,-1,0,-2,-2,-1
1532406099437,0,-1,-1,-2,0,0,-1,-3
1532406099442,-3,-2,-1,0,1,-1,0,0
1532406099447,-1,0,0,-2,0,-1,-1,-2
1532406099452,-1,-2,1,1,-1,-2,-1,-3
1532406099457,-1,0,0,-1,-2,0,-1,1
1532406099462,0,0,-1,-1,-1,-1,0,-1
1532406099467,0,0,-2,-1,1,0,0,1
1532406099472,-3,-1,-1,-2,-1,-1,-2,-1
1532406099477,-1,-1,1,0,0,-2,-1,-1
1532406099482,-1,-2,0,-1,-3,-1,-2,-2
1532406099487,0,0,-2,-2,-2,-2,-1,-1
1532406099492,0,-1,-1,0,0,0,0,-1
1532406099497,-2,-1,-1,-1,0,0,0,0
1532406099502,0,0,-1,1,-1,0,-1,1
1532406099507,1,-1,-1,2,-1,1,-1,-1
1532406099512,-1,-1,0,0,-3,-1,0,0
1532406099517,1,1,-1,-1,-2,0,-2,-3
1532406099522,0,1,0,0,0,0,-1,-2
1532406099527,-3,-1,-1,-3,-1,-1,-1,-1
1532406099532,-1,1,-1,-1,-1,1,-2,-3
1532406099537,-1,-1,0,1,-1,0,1,-1
1532406099542,-1,0,-2,-1,-2,0,-1,-1
1532406099547,-3,-1,-2,0,-1,0,-1,-1
1532406099552,0,-1,-1,-2,1,-1,0,0
1532406099557,0,1,-1,-1,-3,-2,0,0
1532406099562,0,-1,-1,-2,0,-2,0,-3
1532406099567,-1,-1,-1,1,0,-1,-1,-2
1532406099572,0,0,-2,-1,-1,-1,0,0
1532406099577,-1,-1,-1,-1,1,-2,-1,-2
1532406099582,-1,-1,-2,-1,-1,-1,0,0
1532406099587,-1,0,0,-1,-1,-1,-1,-1
1532406099592,-3,-1,-2,0,0,0,-1,0
1532406099597,0,-2,-2,1,-2,-1,-1,0
1532406099602,0,-1,0,-1,-2,-2,0,0
1532406099607,-1,-2,-1,-1,-2,-1,-1,-3
1532406099612,0,0,-1,-2,-3,-2,-1,-2
1532406099617,-1,0,-1,-2,-2,0,-1,0
1532406099622,-1,-2,0,1,-1,1,1,-2
1532406099627,-1,0,0,-1,0,-1,-1,-1
1532406099632,-1,-2,1,-1,-1,0,-2,-3
1532406099637,-1,-1,-2,-2,1,-1,-1,-3
1532406099642,0,0,-2,-2,-3,-1,0,-2
1532406099647,0,0,-2,-1,-3,-1,-1,1
1532406099652,0,1,0,-1,-2,-2,-1,-1
1532406099657,-3,-2,-1,-1,-1,0,1,-2
1532406099662,-1,-1,-1,0,1,-2,-3,-2
1532406099667,0,0,-1,-1,0,0,1,-1
1532406099672,-1,0,-1,-1,-1,-1,-2,0
1532406099677,1,0,-1,0,-1,0,-1,1
1532406099682,-1,-1,-1,-1,0,-1,0,0
1532406099687,-1,-2,1,-1,-2,0,-2,-1
1532406099692,-1,-1,-2,-1,2,-3,1,-1
1532406099697,0,1,0,0,0,-3,-2,-2
1532406099702,0,0,-2,0,-2,0,-2,0
1532406099707,0,-1,-1,-1,0,0,0,0
1532406099712,-1,-2,-1,-1,-2,-1,-2,0
1532406099717,0,1,-1,-2,0,-1,-1,-1
1532406099722,0,0,0,-1,-1,0,0,-1
1532406099727,0,0,0,-2,0,0,-4,-1
1532406099732,-1,-1,0,-1,-2,0,-3,-3
1532406099737,-3,-2,-1,-2,-3,-2,1,3
1532406099742,-1,-1,-1,-1,-1,-1,-3,-2
1532406099747,-2,-1,-1,-1,-2,0,-1,-2
1532406099752,-1,-1,-1,0,0,-1,-1,-4
1532406099757,0,-1,-1,-1,-1,0,-2,-1
1532406099762,-2,1,-2,-1,-3,-1,-1,-1
1532406099767,-2,-1,-1,-1,0,-1,-1,-1
1532406099772,-1,0,-1,0,-1,0,0,1
1532406099777,-1,-1,-2,-1,0,0,-2,-1
1532406099782,-1,-1,-1,-2,0,-1,-1,0
1532406099787,0,2,0,0,-1,-3,-2,-2
1532406099792,0,0,2,1,-2,0,-2,0
1532406099797,0,0,-1,-1,-1,0,0,-1
1532406099802,-1,-1,0,-1,0,1,-2,-2
1532406099807,-2,-1,-1,-1,-1,-1,0,-2
1532406099812,-1,-1,-2,-1,0,-1,1,1
1532406099817,-1,-1,0,-1,-1,-1,-1,-2
1532406099822,-2,-2,-1,0,-1,0,-1,-1
1532406099827,-1,-1,-2,-1,-2,0,-1,-1
1532406099832,-1,-1,-2,-3,-1,-1,-1,-1
1532406099837,-2,0,0,0,-1,-1,-2,0
1532406099842,-1,-1,-1,-1,0,-2,0,-1
1532406099847,1,-1,-1,0,1,-1,-1,-1
1532406099852,0,1,0,-1,0,0,-1,0
1532406099857,0,-1,0,-1,0,1,0,-1
1532406099862,-1,-2,-1,-1,-1,0,-2,-2
1532406099867,0,0,-2,-1,0,-1,-2,-2
1532406099872,1,-2,0,-1,-2,-3,0,0
1532406099877,-1,0,0,-3,0,-1,0,-1
1532406099882,-2,0,-2,0,-1,-1,1,0
1532406099887,0,-1,-1,0,-2,1,0,2
1532406099892,-1,-1,-1,-1,-1,1,-1,-2
1532406099897,0,-1,0,-1,0,0,-2,-3
1532406099902,1,0,0,-1,0,0,-3,-2
1532406099907,0,0,-1,0,0,-1,0,0
1532406099912,0,0,0,-2,-1,-1,-1,0
1532406099917,1,-1,0,0,-3,0,0,-2
1532406099922,0,-1,-1,1,2,0,-2,0
1532406099927,0,-1,-1,0,2,-1,-1,-1
1532406099932,-1,1,1,-1,-1,-2,-1,0
1532406099937,-1,-1,-1,-1,-2,-1,0,0
1532406099942,-1,-1,0,0,-2,-1,-1,-1
1532406099947,0,1,-2,-3,-2,-2,-1,-1
1532406099952,-1,-2,-2,-1,-1,-2,0,-3
1532406099957,-2,-1,-1,1,-1,-2,-2,1
1532406099962,0,-1,0,0,-3,-2,0,0
1532406099967,-1,0,0,-1,-2,-2,-1,-4
1532406099972,-1,-1,-1,-2,-1,0,0,-1
1532406099977,-1,-1,0,-1,-1,0,-1,0
1532406099982,-2,-1,0,-1,1,-1,0,-1
1532406099987,0,0,-2,0,-1,0,-3,-1
1532406099992,0,-1,-1,0,0,-2,0,-2
1532406099997,0,-1,0,1,0,0,-1,-1
1532406100002,-2,-2,1,-2,-1,-1,1,1
1532406100007,-3,-1,0,0,-2,-1,0,-1
1532406100012,0,-1,1,0,0,-1,0,-1
1532406100017,-1,0,-1,-1,0,-1,-1,-1
1532406100022,-1,-1,0,-1,0,0,-1,-1
1532406100027,-1,-1,0,-1,0,0,0,0
1532406100032,0,0,-1,-1,-2,1,-3,-2
1532406100037,-1,-1,-1,-1,-2,-2,-1,-2
1532406100042,-1,0,-3,-2,0,0,0,-2
1532406100047,-1,0,0,-2,-2,0,0,-2
1532406100052,-1,0,1,0,1,0,0,-1
1532406100057,0,-1,-2,-1,1,-2,-1,-1
1532406100062,1,0,-1,0,-1,-1,-1,-1
1532406100067,0,-1,-1,0,1,1,0,1
1532406100072,-3,0,-2,-1,-1,-1,-2,-2
1532406100077,-1,-1,1,0,-2,0,-2,1
1532406100082,-1,-3,0,0,1,0,-2,-1
1532406100087,-1,-3,0,-2,0,1,-1,-1
1532406100092,0,-1,-2,-2,-1,-4,0,-1
1532406100097,-1,-1,-1,-2,0,-3,-1,-4
1532406100102,-2,1,-1,-1,-1,0,-1,-1
1532406100107,1,-1,0,-3,0,-2,0,-1
1532406100112,-1,0,-1,0,0,1,0,0
1532406100117,0,-2,-1,-1,-1,-1,0,-1
1532406100122,-1,-1,0,-2,-1,-3,-1,0
1532406100127,-2,0,-1,1,0,-2,-1,-1
1532406100132,1,0,-2,-3,-1,-1,-1,-1
1532406100137,-1,0,0,-1,0,-2,-1,-1
1532406100142,-1,-1,1,-2,-2,-2,-1,-1
1532406100147,-2,0,-2,0,-3,-2,-1,-1
1532406100152,-2,-2,-1,0,-1,-1,-1,-2
1532406100157,0,-2,-1,0,-1,0,-1,-1
1532406100162,2,0,-1,1,-2,1,-2,-2
1532406100167,-2,-3,-1,-1,1,0,-1,-3
1532406100172,0,0,0,1,1,0,0,0
1532406100177,-1,-1,-2,0,-1,0,-1,-1
1532406100182,-1,-2,-2,1,0,-2,-1,-1
1532406100187,-1,-2,-1,1,-1,-1,-1,-1
1532406100192,0,-1,-1,0,0,-1,-2,-3
1532406100197,-2,-1,-1,0,0,-1,-1,-1
1532406100202,-1,0,-1,-1,-1,-2,-1,-1
1532406100207,-1,0,1,-1,-1,0,-2,-3
1532406100212,-2,0,0,0,-2,0,-3,-1
1532406100217,-3,1,-1,-1,-2,-2,-1,-1
1532406100222,-1,-2,-2,-3,-2,0,-1,0
1532406100227,-1,-1,-2,-1,0,-2,0,-2
1532406100232,0,0,1,-1,0,-2,-1,-2
1532406100237,0,-1,0,-2,-1,0,-2,-1
1532406100242,0,-1,-1,0,1,0,0,-1
1532406100247,-2,1,1,1,1,-2,-1,0
1532406100252,-1,-2,-1,0,-1,0,0,-2
1532406100257,0,-1,-1,1,-1,0,0,0
1532406100262,-1,-2,-1,0,-1,-3,-1,-1
1532406100267,1,-1,-1,-1,-2,0,-1,-3
1532406100272,-1,0,-1,0,-3,-2,0,-1
1532406100277,0,-1,0,0,-1,-1,-1,-1
1532406100282,0,-2,-1,-1,0,-1,-1,0
1532406100287,0,0,1,-2,2,-1,0,-1
1532406100292,-2,-1,0,-1,2,-2,0,-4
1532406100297,-1,0,-2,-1,0,-1,-1,-2
1532406100302,-1,0,-1,0,-1,-3,-1,-4
1532406100307,-1,-1,-1,-1,-1,-1,-2,2
1532406100312,0,-1,-1,-1,-2,-1,1,0
1532406100317,0,1,-2,-1,-2,-1,-1,-3
1532406100322,0,-1,-2,0,-2,-1,-1,-1
1532406100327,-1,0,-1,-1,-3,0,0,1
1532406100332,-1,-2,-1,-1,0,0,-1,-1
1532406100337,-2,-1,-1,-2,0,0,0,-1
1532406100342,-2,-1,0,-1,0,1,1,-1
1532406100347,-1,-1,-1,0,-2,0,-1,0
1532406100352,-2,0,-1,-3,1,-1,-1,-1
1532406100357,-1,-1,0,-2,0,0,0,-1
1532406100362,0,-1,-1,-1,-2,-1,-1,-2
1532406100367,-1,-2,0,-1,-1,-1,-1,0
1532406100372,0,-1,0,0,0,-1,-1,0
1532406100377,1,-1,-1,-1,1,1,-1,-2
1532406100382,0,-2,-4,-2,0,0,-1,0
1532406100387,0,-3,-2,-1,-1,-2,-1,-2
1532406100392,-1,0,-1,-2,-3,0,-2,-1
1532406100397,0,-2,1,0,-3,-2,0,-1
1532406100402,-1,-1,0,-1,0,0,-1,-1
1532406100407,-1,-1,0,-1,0,0,-2,-2
1532406100412,0,0,-1,-1,-2,0,0,1
1532406100417,-1,-2,0,0,-1,-2,-2,-2
1532406100422,-1,0,0,-1,0,-2,0,-1
1532406100427,-2,0,0,0,-1,-1,1,0
1532406100432,-2,-2,-2,0,-1,-1,-1,-3
1532406100437,-1,-2,-1,0,2,1,-1,-1
1532406100442,0,0,-1,1,0,1,0,-1
1532406100447,0,-1,1,-1,-2,-2,-1,-1
1532406100452,-1,-1,0,0,-1,-2,-2,2
1532406100457,-1,0,0,-2,-1,-1,1,1
1532406100462,-1,0,-1,-2,-1,1,-1,0
1532406100467,-1,-1,0,-1,1,-1,-1,-1
1532406100472,0,-1,-2,-1,0,-2,0,-2
1532406100477,0,-3,-1,-1,-3,0,-1,0
1532406100482,-2,0,2,0,-3,-1,0,-4
1532406100487,0,0,-1,0,-2,1,-1,-1
1532406100492,0,-1,-2,0,0,0,-2,0
1532406100497,-1,0,-2,-1,0,-1,0,-2
1532406100502,-2,-1,0,0,-1,-1,1,-1
1532406100507,1,-2,-2,0,-1,0,-1,-2
1532406100512,-1,-2,-2,-1,1,-1,-1,-3
1532406100517,0,0,-1,0,-1,-1,-1,-1
1532406100522,0,0,-1,-2,-3,-1,-2,0
1532406100527,-2,-1,-1,0,0,-1,-2,-1
1532406100532,0,-2,-1,-2,-2,-1,-1,-1
1532406100537,-2,-2,-1,-1,2,0,-2,-2
1532406100542,-2,-2,0,-1,-1,-1,-1,-2
1532406100547,-1,0,-1,-1,0,-2,0,0
1532406100552,-1,0,-1,0,-2,-1,0,-1
1532406100557,-1,1,0,-1,-2,0,-2,0
1532406100562,-1,-2,-1,-1,0,-1,-2,0
1532406100567,-1,-2,-1,-1,-1,1,-1,-3
1532406100572,0,-2,0,0,-2,-1,-1,-1
1532406100577,-1,-2,-1,-3,-1,-2,-1,-2
1532406100582,0,1,-1,-1,-1,-1,-2,-2
1532406100587,-1,0,-1,0,-1,-1,0,-3
1532406100592,0,-1,-1,0,-1,1,-1,0
1532406100597,0,-1,0,-1,-1,-2,-1,0
1532406100602,-1,-2,0,-1,-2,0,-1,-2
1532406100607,-1,1,0,-1,-2,-1,-1,0
1532406100612,0,0,-1,-2,-1,0,1,-1
1532406100617,-1,-1,0,0,-1,-1,0,-1
1532406100622,-1,0,-1,0,-1,-1,-1,-2
1532406100627,0,0,0,-1,0,-3,-3,-1
1532406100632,-1,0,1,-2,0,0,-1,-2
1532406100637,-2,0,-2,0,-1,-1,-1,1
1532406100642,-2,-2,-1,-2,-1,-1,0,1
1532406100647,0,-1,-2,1,-2,0,0,0
1532406100652,-1,1,-2,-1,-2,0,-1,-3
1532406100657,0,-1,-1,-1,-1,1,-1,-2
1532406100662,1,1,0,-2,1,-1,0,-1
1532406100667,0,-3,0,-1,-1,-2,-2,-3
1532406100672,0,-2,0,0,-1,-2,0,0
1532406100677,0,-1,-1,-1,-2,0,0,0
1532406100682,1,-1,1,-2,-2,-1,0,-3
1532406100687,-1,0,-2,-1,-1,0,-1,-1
1532406100692,-2,-1,0,1,0,-1,-1,-4
1532406100697,1,-1,0,-1,0,-1,-1,-4
1532406100702,-1,0,-2,-1,0,-1,0,-2
1532406100707,0,1,-2,-1,-1,0,1,-1
1532406100712,0,-1,0,-3,-1,-1,0,2
1532406100717,-2,0,1,-1,-1,-2,0,1
1532406100722,-1,0,-1,0,-2,-2,-1,-1
1532406100727,-1,-1,0,-1,-1,-1,-1,-1
1532406100732,0,1,-1,-2,-3,-1,-1,0
1532406100737,-1,-1,-1,0,-1,-2,-2,0
1532406100742,-1,-1,-1,-2,-1,-1,0,-1
1532406100747,0,-2,-1,1,0,-1,-1,-1
1532406100752,-1,0,-1,-1,-1,-1,-3,-4
1532406100757,-2,-2,-1,0,0,0,0,-2
1532406100762,-1,-1,-1,0,-1,-1,-2,-1
1532406100767,-1,0,-1,-1,-1,-1,-1,-1
1532406100772,-2,0,-1,-1,0,1,0,-2
1532406100777,-1,-1,-1,0,0,-1,0,-2
1532406100782,-1,-1,0,-1,0,-1,1,-1
1532406100787,0,1,-2,-1,1,1,-1,0
1532406100792,-1,-2,0,-1,1,0,-1,1
1532406100797,-2,0,-1,-1,0,0,0,0
1532406100802,0,-2,0,-1,1,0,0,0
1532406100807,0,0,-1,0,-1,-2,0,-2
1532406100812,-1,-2,-2,-1,-2,0,0,-2
1532406100817,0,-1,0,0,-1,-1,-2,-2
1532406100822,0,-1,-1,-1,-2,0,-1,-2
1532406100827,0,-1,0,-1,-1,0,-1,1
1532406100832,-1,-1,0,1,0,-1,-2,0
1532406100837,-1,-1,-1,-1,-1,-3,-1,0
1532406100842,-1,0,-1,-1,0,-1,-2,-1
1532406100847,0,-3,-1,-1,0,0,0,-1
1532406100852,0,-1,-1,0,-3,-1,-1,-1
1532406100857,-1,-1,-2,-1,-1,-2,-3,-2
1532406100862,0,-1,-2,-2,0,-1,-1,-2
1532406100867,-1,-2,0,0,-1,-1,-1,-4
1532406100872,0,0,-2,0,-2,-2,-1,-2
1532406100877,0,-1,-1,0,-1,-1,-1,0
1532406100882,-1,1,-1,0,0,-1,-1,1
1532406100887,-1,0,-1,-1,-2,0,-1,0
1532406100892,-1,0,-2,-1,1,-1,-1,0
1532406100897,-2,0,0,-2,0,1,1,-1
1532406100902,-1,-1,1,0,-2,-2,-1,0
1532406100907,-1,-2,-1,-1,0,-2,-2,-2
1532406100912,-2,-1,-1,0,-1,0,1,0
1532406100917,-2,-1,-2,-1,0,-3,-1,-1
1532406100922,-1,-1,0,-2,0,-2,-3,-2
1532406100927,-1,-1,-1,-2,-1,-2,-1,-3
1532406100932,1,-2,-1,0,-1,-3,-1,-1
1532406100937,1,0,0,-2,-1,-2,2,-1
1532406100942,-1,0,-2,-1,0,-1,1,0
1532406100947,-2,0,0,0,-2,-1,0,-1
1532406100952,-1,-3,-1,-1,-2,-2,-3,-3
1532406100957,-1,0,1,-1,-2,1,-2,2
1532406100962,-1,-1,-2,2,-1,-4,-1,-2
1532406100967,1,-1,-1,-2,-1,1,-1,-1
1532406100972,-1,-2,1,0,-1,-2,-1,-2
1532406100977,0,0,0,1,0,0,-2,0
1532406100982,0,-2,-1,-1,-1,0,-1,-2
1532406100987,-2,0,0,0,-1,-1,0,-1
1532406100992,-1,0,-1,-1,0,-1,-1,-1
1532406100997,-1,-1,0,-1,0,-1,0,0
1532406101002,-2,0,-2,-2,-1,-1,0,1
1532406101007,-2,-1,-2,0,0,0,-1,0
1532406101012,-2,0,-1,-2,-2,-1,-1,-3
1532406101017,0,-1,-1,0,-3,-2,0,-2
1532406101022,-1,-1,0,0,-1,0,-1,-1
1532406101027,-2,-3,-1,-1,-2,0,-2,0
1532406101032,-1,0,-2,-1,-1,0,-2,-2
1532406101037,-1,0,-1,-1,-1,0,-2,-1
1532406101042,-1,-1,-1,-2,-2,0,-1,0
1532406101047,-1,0,0,0,-2,-4,1,-2
1532406101052,1,0,0,0,-1,1,1,-1
1532406101057,-2,1,-1,-1,0,-1,0,-1
1532406101062,-1,-2,0,0,2,-1,-1,-1
1532406101067,-2,0,0,-2,1,1,1,0
1532406101072,0,-2,-3,0,-2,-1,0,0
1532406101077,-1,-1,0,0,-1,-1,-2,-2
1532406101082,0,-1,0,-2,-1,-2,-1,-1
1532406101087,0,0,-3,0,0,1,-2,-2
1532406101092,-1,-1,-1,-1,1,-2,0,1
1532406101097,-1,-2,-2,-2,-1,-2,0,-1
1532406101102,-1,-1,-2,-2,0,0,-2,-1
1532406101107,0,-2,0,-3,-1,-1,-2,-4
1532406101112,-2,0,0,-2,0,-1,-2,-1
1532406101117,0,0,-1,0,0,-2,0,0
1532406101122,-1,-2,-1,0,-1,-1,0,1
1532406101127,1,0,-1,0,-2,-2,-2,-1
1532406101132,-1,-1,-1,1,0,0,-1,-1
1532406101137,0,0,-2,-1,-1,0,-1,-1
1532406101142,0,-1,0,1,-2,-1,1,-2
1532406101147,-1,1,0,-1,-1,-1,-1,1
1532406101152,0,-2,0,0,-3,-1,1,0
1532406101157,-1,-1,-2,-1,1,1,-1,-1
1532406101162,0,-2,-1,0,-1,-1,0,-3
1532406101167,-1,-2,-1,0,-2,-1,-2,0
1532406101172,1,0,1,-1,0,0,-1,-1
1532406101177,0,-1,0,-1,1,-1,-1,-1
1532406101182,1,1,0,0,0,-1,0,0
1532406101187,-3,-1,-1,1,0,0,-1,-1
1532406101192,-2,-2,0,0,-1,1,-3,-1
1532406101197,-2,-2,0,0,-1,0,-2,-4
1532406101202,-2,-1,0,-3,-1,-1,-1,-1
1532406101207,-2,-1,-1,0,0,-1,-1,0
1532406101212,1,-1,0,0,-2,0,-2,2
1532406101217,0,-1,0,0,-3,0,-1,-2
1532406101222,0,0,-1,-2,-1,-2,-2,0
1532406101227,1,0,0,0,-1,-3,0,-1
1532406101232,-2,0,0,-2,1,-2,-1,-1
1532406101237,-3,0,-1,0,-1,-3,-1,0
1532406101242,-1,-2,-1,1,0,0,-2,-1
1532406101247,-1,-1,-2,-2,-1,3,0,-3
1532406101252,-1,-1,-1,-2,-2,0,0,-3
1532406101257,0,1,0,-1,-1,-1,-1,-1
1532406101262,0,-1,1,0,-1,0,-2,-3
1532406101267,-1,-1,-1,-1,-3,0,-1,1
1532406101272,-1,-1,-2,-1,0,0,-1,0
1532406101277,0,-2,-3,-1,1,-1,-2,-1
1532406101282,-1,-1,0,-1,0,1,-1,-1
1532406101287,0,-1,-1,0,1,0,2,-1
1532406101292,-1,-1,-1,-2,-2,0,-1,-1
1532406101297,-2,-1,0,-2,-1,-2,-2,0
1532406101302,0,1,-1,1,-1,-1,-2,-2
1532406101307,0,-2,0,-2,-1,-1,-1,-1
1532406101312,-2,-1,-2,1,-1,-2,0,0
1532406101317,0,-2,0,-1,-2,-1,0,-2
1532406101322,-2,0,-1,0,-2,-3,-2,-3
1532406101327,-1,-2,0,-2,-1,0,-1,-1
1532406101332,-1,-1,-1,-2,-1,0,-1,0
1532406101337,0,0,-2,-1,-1,1,-1,-1
1532406101342,-2,-1,-1,-2,0,0,0,1
1532406101347,-1,0,-1,-1,-1,-1,-3,-1
1532406101352,-1,-3,-1,-2,-1,-1,-2,-1
1532406101357,-1,-1,0,-1,-1,1,-1,-1
1532406101362,0,-1,0,-1,-1,-1,1,-1
1532406101367,0,-2,-1,0,1,0,-2,-2
1532406101372,-1,-1,0,1,-1,0,-1,-4
1532406101377,-1,-2,0,-1,-2,0,-1,0
1532406101382,0,-1,-1,-1,-1,-1,0,1
1532406101387,0,-2,1,1,0,-2,-1,0
1532406101392,-1,0,0,-1,0,-1,-3,-1
1532406101397,1,0,-1,-1,-1,-1,0,-1
1532406101402,0,0,0,0,0,1,-2,0
1532406101407,1,0,-2,-1,-1,-3,-2,-1
1532406101412,0,-1,1,-1,1,0,1,-2
1532406101417,-1,0,0,1,0,-1,-1,-2
1532406101422,-2,-1,-1,-2,-2,-1,-2,-2
1532406101427,0,-1,0,-1,-1,-2,1,-1
1532406101432,0,0,-2,-2,-1,-1,-1,-1
1532406101437,0,-1,-1,-1,1,0,-2,0
1532406101442,-1,0,0,0,-1,-1,2,-2
1532406101447,-1,-1,-3,0,-1,-2,-2,-1
1532406101452,0,0,-1,0,0,-2,0,0
1532406101457,0,-2,-1,-2,-2,-1,-2,-1
1532406101462,0,-3,0,1,-1,-2,-1,-1
1532406101467,-2,0,0,1,0,0,-1,-1
1532406101472,-1,-1,0,0,-2,-1,-2,0
1532406101477,-2,0,0,-2,-1,0,-1,-1
1532406101482,-1,-2,-1,-1,-1,-1,-3,-1
1532406101487,-2,-1,0,-1,-1,-2,0,-3
1532406101492,0,0,1,0,-1,-2,-1,-2
1532406101497,-1,-1,-1,0,-2,1,1,0
1532406101502,-1,-1,-1,-1,0,-1,-2,0
1532406101507,-1,0,-1,-2,-1,1,0,-1
1532406101512,0,-1,-2,0,-1,0,-2,-2
1532406101517,0,0,0,-1,-3,-2,-1,-1
1532406101522,0,-1,-2,-2,-1,-1,-1,2
1532406101527,0,0,2,-2,-2,0,-3,-2
1532406101532,0,-1,-2,0,-2,0,-1,-4
1532406101537,-1,-1,-1,-1,-1,-1,-1,-1
1532406101542,-2,-1,-1,0,-1,-2,-3,-2
1532406101547,0,-2,-2,0,-1,-1,-2,-2
1532406101552,0,-2,-1,-1,-1,-2,-2,1
1532406101557,0,0,-2,0,-1,0,-2,-1
1532406101562,0,-2,0,-1,-3,-1,0,-1
1532406101567,-1,-1,-2,-1,-1,-2,0,-2
1532406101572,0,-1,-1,0,0,0,-2,-3
1532406101577,-1,-2,-1,0,0,-1,-1,1
1532406101582,-1,-1,-1,0,-2,0,0,1
1532406101587,0,0,0,0,1,0,-1,0
1532406101592,-2,0,1,-1,-1,0,1,-1
1532406101597,1,-2,-1,0,-3,0,0,-3
