1532062126241,-1,0,-1,0,-6,-4,-5,-1
1532062126246,1,-3,-1,1,1,4,1,-2
1532062126251,-1,3,-1,1,0,1,0,-2
1532062126256,-1,-3,-2,-2,-1,-4,0,-4
1532062126261,-1,-3,-2,-3,-8,-7,-3,-3
1532062126266,-2,-4,0,0,5,5,2,2
1532062126271,0,3,0,-1,5,6,1,2
1532062126276,-1,1,0,0,0,-3,-4,0
1532062126281,-1,-2,-1,-2,-8,-12,-3,-2
1532062126286,-2,-1,-1,-1,-6,1,-2,-2
1532062126291,1,2,-1,1,6,4,3,1
1532062126296,-1,-4,1,-4,4,3,1,0
1532062126301,-1,4,-1,0,-5,0,-1,-1
1532062126306,0,-7,-3,0,3,-2,0,0
1532062126311,-2,-1,-1,2,-3,-3,-3,-1
1532062126316,0,1,0,-1,-6,-3,0,-2
1532062126321,-1,-1,0,1,7,6,1,-1
1532062126326,0,1,0,2,4,3,0,-1
1532062126331,-1,1,1,-1,-5,-1,0,-1
1532062126336,1,1,-1,4,10,1,0,2
1532062126341,-1,-3,-2,-2,-5,-3,-3,-1
1532062126346,0,1,-1,-3,-4,-7,-3,-3
1532062126351,-1,-5,-1,0,-2,-1,-2,-1
1532062126356,2,2,1,0,0,-1,0,0
1532062126361,0,-1,-2,1,1,1,3,2
1532062126366,1,2,1,-1,-3,0,-1,1
1532062126371,-2,-3,-3,-5,-4,-2,-2,-1
1532062126376,-1,-5,-3,0,-2,-1,-1,-1
1532062126381,0,-3,2,0,3,-4,-1,-1
1532062126386,0,2,-1,1,0,4,2,2
1532062126391,-1,0,0,0,4,4,1,-3
1532062126396,-2,0,-2,-1,-6,-2,0,-2
1532062126401,0,1,-1,-1,-3,-5,-1,-1
1532062126406,-1,-7,-2,0,-6,-6,-2,-2
1532062126411,0,1,-1,-1,-3,-1,-4,-1
1532062126416,-1,1,0,1,6,0,2,1
1532062126421,3,9,0,3,1,0,1,0
1532062126426,-3,-5,1,-2,-1,-3,-2,0
1532062126431,-5,-13,-5,-1,-3,-2,-2,-4
1532062126436,1,-3,1,2,-2,4,2,1
1532062126441,-4,-6,-2,4,6,2,-3,-3
1532062126446,0,4,0,-4,-3,0,1,-2
1532062126451,2,4,2,6,2,2,2,2
1532062126456,1,8,-3,-13,-8,-7,-2,0
1532062126461,-1,0,-1,-8,-6,3,1,3
1532062126466,-4,-13,-6,9,8,-3,-3,-6
1532062126471,-1,-3,0,5,0,-2,2,0
1532062126476,9,1,-1,-15,-8,-1,-2,1
1532062126481,-1,5,1,-10,-2,0,0,2
1532062126486,12,1,-3,-2,-8,-13,-6,-2
1532062126491,-30,-16,-5,-4,-5,6,0,-1
1532062126496,-15,3,5,16,13,6,1,-7
1532062126501,-5,-5,0,-4,2,-2,-2,-6
1532062126506,-2,14,4,0,-5,-1,1,0
1532062126511,1,2,-1,-26,-3,-11,-5,2
1532062126516,5,-8,-5,-17,-12,0,1,0
1532062126521,1,-1,1,11,12,14,5,1
1532062126526,5,1,-2,-11,3,0,4,0
1532062126531,11,12,2,5,-6,-3,3,-6
1532062126536,-5,-8,-1,6,-6,-9,-8,3
1532062126541,-1,-11,-5,3,-4,-4,-1,-2
1532062126546,5,-5,0,-11,7,8,1,1
1532062126551,3,2,1,34,6,0,3,1
1532062126556,-1,1,0,0,2,-1,-1,-2
1532062126561,2,7,4,-6,-5,-2,-5,-3
1532062126566,4,2,3,18,-1,2,3,3
1532062126571,-14,-10,-5,-31,-13,-6,-9,-1
1532062126576,1,1,-9,-25,1,-2,0,-1
1532062126581,-3,-9,-1,11,-12,-7,-3,0
1532062126586,-2,5,4,-14,-8,-7,-3,-4
1532062126591,14,7,4,45,24,16,33,4
1532062126596,1,-9,-13,-16,-4,2,-1,-1
1532062126601,-17,3,2,-13,-4,-1,-16,-5
1532062126606,-14,-3,-3,0,0,1,-2,-9
1532062126611,8,1,0,-2,-3,-7,1,-4
1532062126616,1,1,3,26,-1,-5,10,5
1532062126621,5,-3,-2,22,7,0,-8,-4
1532062126626,-6,-6,-8,-11,-1,1,13,13
1532062126631,6,1,-2,-26,4,4,-14,-6
1532062126636,2,5,6,28,10,3,4,0
1532062126641,2,-2,-3,-30,-12,-6,-2,0
1532062126646,-4,-1,-2,26,-4,-3,-9,-2
1532062126651,3,0,-6,-26,-7,-8,-1,4
1532062126656,44,7,-1,-1,-9,-7,-20,-5
1532062126661,3,5,14,20,12,5,6,-5
1532062126666,12,1,-2,22,4,9,9,3
1532062126671,-12,-8,-11,-9,-5,-4,-1,-3
1532062126676,-3,-3,-10,-14,-10,-5,-8,-8
1532062126681,1,-2,-1,7,-5,0,-19,-3
1532062126686,-2,0,4,-1,11,4,6,0
1532062126691,12,7,12,5,2,2,-6,2
1532062126696,-17,-4,3,2,3,4,7,3
1532062126701,7,0,5,39,5,-2,7,0
1532062126706,-6,-4,-6,-55,-12,-5,-1,1
1532062126711,-3,-9,-31,-18,-16,-7,-23,-12
1532062126716,-11,-4,2,-2,-2,-3,8,6
1532062126721,-5,-2,-6,-8,2,4,8,1
1532062126726,3,5,11,18,4,-1,2,-3
1532062126731,-1,4,10,6,-3,-2,5,10
1532062126736,-9,-5,-4,-8,0,4,-8,-11
1532062126741,12,0,1,-6,16,13,7,9
1532062126746,-3,-4,-3,-3,-8,-3,0,-4
1532062126751,8,4,2,5,-1,-6,1,4
1532062126756,-3,4,5,10,0,-4,-1,-3
1532062126761,-39,-14,-3,-14,-5,-5,6,-5
1532062126766,0,-9,-5,1,-5,-2,-11,-2
1532062126771,-7,-3,-2,3,1,-3,0,-4
1532062126776,10,11,7,7,1,1,0,4
1532062126781,3,-5,-7,-6,-3,-1,4,-1
1532062126786,-6,-7,-1,2,2,4,-17,-3
1532062126791,-3,1,3,2,4,3,5,-2
1532062126796,-3,-4,2,1,1,2,-4,3
1532062126801,6,10,-3,-2,1,-8,-4,0
1532062126806,-4,-7,-3,6,-7,-8,0,-5
1532062126811,3,4,8,4,6,7,5,1
1532062126816,-5,-2,0,0,1,1,-7,0
1532062126821,2,-2,0,-10,-6,-1,0,2
1532062126826,0,5,1,-6,0,-5,3,1
1532062126831,-2,-9,0,4,-2,-1,-3,-5
1532062126836,-4,0,3,6,6,0,6,0
1532062126841,4,0,2,9,-1,4,1,2
1532062126846,1,4,-2,-3,3,2,-2,0
1532062126851,0,3,3,-4,-2,1,6,4
1532062126856,-4,-7,-4,-11,-6,-4,-7,-4
1532062126861,4,2,0,8,-4,-6,-1,1
1532062126866,-5,1,-4,-12,-2,-1,-2,-3
1532062126871,-2,-4,5,1,12,2,-2,-3
1532062126876,-5,-7,-11,-14,-11,-4,3,0
1532062126881,-1,-3,-1,-1,-4,-2,18,-7
1532062126886,-2,1,-10,-11,-11,-5,-19,-4
1532062126891,1,3,3,-1,-2,-3,1,-2
1532062126896,-4,-6,-2,3,1,-3,-4,-2
1532062126901,2,-1,-3,-11,-5,-1,-2,5
1532062126906,1,10,3,9,9,0,9,2
1532062126911,-3,-16,-2,5,-9,0,-4,-1
1532062126916,-3,9,2,11,9,8,3,0
1532062126921,-2,-5,-5,-18,2,-2,-9,-5
1532062126926,2,-9,0,10,0,1,6,0
1532062126931,0,6,-1,-4,-4,-6,-15,-2
1532062126936,1,4,7,9,-4,-3,6,4
1532062126941,0,3,1,6,-1,1,2,4
1532062126946,-4,-2,-8,-21,0,3,-16,-6
1532062126951,-1,2,-1,4,-4,-1,3,-4
1532062126956,-1,1,3,-3,2,2,-2,2
1532062126961,0,-1,-6,-1,-5,-7,-10,-5
1532062126966,1,4,2,15,-7,-5,10,2
1532062126971,0,0,1,-4,5,3,-1,2
1532062126976,1,-10,0,0,5,5,-4,-4
1532062126981,-3,12,-1,-5,3,0,3,1
1532062126986,-6,-31,1,0,1,-1,-1,-1
1532062126991,-1,5,-4,-8,-3,-2,-3,-2
1532062126996,-3,-13,-13,1,3,2,1,-4
1532062127001,4,7,6,-2,-2,1,2,4
1532062127006,-1,8,-3,-29,-6,-4,3,-6
1532062127011,-2,2,3,17,-5,-7,-9,-3
1532062127016,2,5,3,0,-1,1,4,2
1532062127021,-1,-8,-7,-19,-4,-4,-6,-2
1532062127026,0,3,6,10,0,-1,-1,0
1532062127031,0,8,-1,-4,2,-3,4,0
1532062127036,-1,-2,-2,3,5,3,2,-2
1532062127041,-2,-11,-1,-1,0,1,-16,0
1532062127046,3,4,3,9,7,7,-1,2
1532062127051,1,14,-4,-8,-3,0,3,3
1532062127056,-7,-25,-1,-2,-9,-7,-5,-6
1532062127061,-1,-9,-1,7,-2,-1,5,-4
1532062127066,-2,-2,-5,-12,-2,-3,-1,1
1532062127071,1,-2,-4,10,-4,1,-6,2
1532062127076,3,14,3,-7,3,-1,-2,0
1532062127081,-1,0,0,-3,-3,-6,-1,-1
1532062127086,1,5,1,3,-5,1,3,1
1532062127091,-1,-3,-3,1,3,5,5,1
1532062127096,2,4,3,4,-2,-4,1,0
1532062127101,-2,-7,-4,3,2,4,0,-3
1532062127106,-2,-7,-1,-9,2,0,-4,-1
1532062127111,-6,-13,3,-1,-1,-3,-1,1
1532062127116,-1,0,-8,-8,-6,-4,4,-6
1532062127121,1,11,12,9,0,-1,-14,9
1532062127126,5,7,-4,1,1,3,-4,1
1532062127131,1,-5,1,3,5,3,5,1
1532062127136,11,3,-11,1,-10,-7,-15,-6
1532062127141,-35,-12,1,-9,2,-2,25,4
1532062127146,2,-3,-3,13,-4,-7,-2,-6
1532062127151,-8,-4,1,-4,2,6,-6,-3
1532062127156,1,5,3,-11,2,-2,6,2
1532062127161,5,9,-9,-4,-5,-4,-1,-3
1532062127166,2,2,5,4,-4,-3,-1,2
1532062127171,2,0,-1,7,1,-4,0,-2
1532062127176,-7,-10,-3,-2,2,1,2,-3
1532062127181,10,-4,-2,8,-3,3,-3,-2
1532062127186,-6,-3,-1,-16,-6,-8,-8,-4
1532062127191,4,1,-6,-20,-10,-1,1,-2
1532062127196,-2,1,0,-2,6,6,0,2
1532062127201,3,4,4,3,3,2,-5,-4
1532062127206,1,-5,-2,5,8,5,7,2
1532062127211,-3,3,3,12,-6,-4,-3,0
1532062127216,-3,-19,2,-11,-1,-5,-4,-1
1532062127221,1,3,-5,-4,-5,0,-1,-3
1532062127226,0,6,2,5,5,4,5,2
1532062127231,3,0,-3,-6,-3,-3,7,-1
1532062127236,0,13,3,4,-1,1,-15,-1
1532062127241,3,-2,1,3,-5,-3,4,0
1532062127246,-3,-8,2,5,0,-3,-7,1
1532062127251,-4,-10,-3,3,-3,-10,5,-4
1532062127256,-1,6,-1,-4,5,12,-2,1
1532062127261,3,0,-5,-5,10,9,8,4
1532062127266,-1,11,0,4,-5,-4,-14,-9
1532062127271,0,1,-4,-4,0,-3,-1,1
1532062127276,-4,-7,-2,2,-7,-7,-7,-5
1532062127281,1,-2,-1,2,4,2,-2,-3
1532062127286,1,-2,1,0,1,1,6,2
1532062127291,0,3,4,-2,1,-5,-9,-2
1532062127296,-2,2,-1,8,2,-1,4,3
1532062127301,4,-5,-5,-21,-5,0,-3,-3
1532062127306,-2,1,2,0,-1,-1,12,0
1532062127311,-1,8,-7,-7,-6,-4,-18,-3
1532062127316,-1,-20,-1,-1,1,-2,7,-1
1532062127321,-3,0,2,8,6,4,-6,1
1532062127326,-1,3,0,3,-3,-4,-11,-11
1532062127331,1,2,-1,-8,0,3,3,-2
1532062127336,0,0,0,0,0,-3,2,4
1532062127341,-2,-2,1,4,-6,-5,-5,-7
1532062127346,-2,-7,-6,-6,2,4,2,1
1532062127351,-1,-4,-1,4,1,0,-12,4
1532062127356,1,9,0,-4,-8,-1,1,-5
1532062127361,0,1,2,5,3,1,4,-3
1532062127366,1,8,1,0,4,4,-1,3
1532062127371,1,-4,1,-7,3,4,4,2
1532062127376,-3,0,0,-3,-2,-4,18,0
1532062127381,-2,-10,-8,-12,-9,-9,-25,-5
1532062127386,-2,4,1,7,2,3,7,1
1532062127391,-1,-11,-2,-1,0,-2,-5,-6
1532062127396,-1,6,3,1,-2,0,4,7
1532062127401,4,2,-6,-14,-5,-6,-1,-9
1532062127406,-3,-10,-2,2,-6,-5,1,1
1532062127411,-4,1,-1,6,4,7,-8,-2
1532062127416,0,6,3,2,6,5,-12,-2
1532062127421,-2,-7,3,4,-4,-6,-4,3
1532062127426,1,0,-3,-12,-4,-2,-4,2
1532062127431,1,-4,2,8,-5,-8,13,-1
1532062127436,0,1,-5,-6,-1,5,9,5
1532062127441,-2,-1,-1,6,4,0,-24,-19
1532062127446,-4,0,-1,-2,-3,-3,-2,7
1532062127451,-4,-1,0,0,1,-1,8,-3
1532062127456,0,-5,-6,1,-11,-2,-1,-4
1532062127461,1,10,3,-2,11,3,17,8
1532062127466,-1,-5,-2,-2,2,1,11,-4
1532062127471,-2,-2,-2,4,-1,-4,-13,0
1532062127476,-1,3,3,5,-4,-6,-17,-2
1532062127481,-2,-1,1,1,-3,0,5,1
1532062127486,1,2,1,-1,4,1,-1,1
1532062127491,5,-5,-4,-13,-5,-1,27,8
1532062127496,-2,-8,4,5,8,4,-20,-11
1532062127501,-1,-6,-7,-6,-5,3,9,5
1532062127506,1,3,3,2,0,1,-3,3
1532062127511,0,12,2,0,3,4,11,2
1532062127516,-3,-17,-4,-2,-5,-7,-4,-1
1532062127521,-1,2,1,1,-5,-3,7,4
1532062127526,0,0,3,8,-7,0,-6,-3
1532062127531,-2,-6,-5,-12,7,0,-25,-4
1532062127536,0,10,0,-8,6,8,5,-1
1532062127541,0,7,2,12,2,0,1,-3
1532062127546,-2,-8,-10,-10,-11,-9,20,3
1532062127551,-3,-7,0,7,-9,-3,-33,0
1532062127556,-1,0,0,3,2,-1,2,-3
1532062127561,3,0,3,2,3,5,13,5
1532062127566,-1,1,-1,-4,2,3,-6,3
1532062127571,1,-4,2,5,2,5,10,-2
1532062127576,1,17,-3,-7,-5,-6,1,2
1532062127581,-4,-21,-5,-13,-13,-9,-13,-2
1532062127586,-5,-6,0,11,0,-2,-3,-4
1532062127591,0,-8,-2,0,5,5,3,-7
1532062127596,1,9,3,1,1,-1,7,5
1532062127601,-1,11,5,12,1,0,-7,-6
1532062127606,-1,-1,-3,-22,-3,-2,-5,-4
1532062127611,-2,-4,-7,1,-7,-3,-3,2
1532062127616,-1,0,-1,-3,-6,-4,25,3
1532062127621,0,0,-2,-7,-6,-6,-18,-1
1532062127626,-1,-2,-2,7,9,8,-2,3
1532062127631,-2,6,4,-1,0,-1,6,-1
1532062127636,0,-11,-2,2,1,5,3,-7
1532062127641,-2,12,-2,-6,-7,-4,-6,6
1532062127646,-3,-11,1,3,-1,-6,-7,-6
1532062127651,-2,-4,-3,-1,0,-1,7,2
1532062127656,-3,-3,-5,-4,-6,-1,-15,-7
1532062127661,0,-2,4,1,7,7,9,3
1532062127666,1,1,-3,-15,-2,0,4,6
1532062127671,0,6,5,9,-3,-4,-6,-8
1532062127676,-4,-10,-5,-15,-4,-7,-9,3
1532062127681,1,6,-3,0,2,7,1,-1
1532062127686,2,-1,4,7,3,2,7,0
1532062127691,-2,-1,-2,-11,-4,-1,0,2
1532062127696,0,4,2,-4,0,-3,-2,0
1532062127701,-2,-11,-10,-6,-9,-9,17,-3
1532062127706,0,11,2,7,7,0,-21,-7
1532062127711,-1,-15,0,10,-1,-6,3,2
1532062127716,1,4,-6,-18,1,6,-2,-3
1532062127721,-1,-3,2,9,3,2,17,1
1532062127726,-3,-2,2,-3,-8,-1,-13,-17
1532062127731,-1,7,-3,2,6,1,1,-3
1532062127736,0,0,-2,-4,-1,-1,3,5
1532062127741,-1,-9,-2,4,-2,-4,0,-2
1532062127746,-2,-1,2,4,0,-4,-24,-3
1532062127751,1,2,-2,-4,-3,2,5,2
1532062127756,0,8,2,17,7,2,4,-3
1532062127761,-3,-10,-1,-14,-9,-5,-6,-2
1532062127766,1,7,6,3,-1,-2,5,2
1532062127771,-2,-2,-13,-7,1,6,-1,3
1532062127776,2,-2,0,-7,0,-2,-3,7
1532062127781,3,9,4,8,0,3,-4,-3
1532062127786,0,-6,-10,-15,4,-2,14,8
1532062127791,-3,1,5,-7,-2,-1,-10,-10
1532062127796,1,-1,6,6,-7,0,4,0
1532062127801,-1,-1,-4,2,1,-3,12,1
1532062127806,0,-10,-6,12,0,4,-14,0
1532062127811,1,5,0,-8,-3,-4,8,1
1532062127816,-2,4,2,6,0,-6,-14,-1
1532062127821,-1,-3,0,4,-3,-3,2,-5
1532062127826,-3,-2,3,8,-6,-6,2,1
1532062127831,-1,-4,-2,2,1,5,3,1
1532062127836,0,0,-3,2,15,14,3,-2
1532062127841,-1,-5,-4,2,5,-1,-6,3
1532062127846,-1,5,-1,-6,-3,-5,4,-2
1532062127851,-1,-3,0,-8,-8,-3,-7,-1
1532062127856,0,-4,2,17,-6,-7,12,-3
1532062127861,-1,2,-5,-10,0,2,-26,11
1532062127866,0,-7,-4,-1,-5,-1,10,-10
1532062127871,0,9,4,-5,1,-2,-5,-4
1532062127876,0,-3,-1,2,0,-3,-2,-2
1532062127881,-3,-9,-1,-11,-6,-1,-1,-2
1532062127886,-4,-6,-5,-1,0,2,4,1
1532062127891,1,3,7,5,6,-1,-1,2
1532062127896,-3,4,-6,-7,-10,-3,-3,0
1532062127901,2,3,6,9,5,1,1,-3
1532062127906,-1,4,5,14,-4,-3,-2,3
1532062127911,0,-2,-6,8,-2,-2,5,-4
1532062127916,-2,-1,1,7,1,-5,-12,-3
1532062127921,-1,-11,-1,-7,-4,-3,-9,-4
1532062127926,0,1,-8,-8,0,1,3,-2
1532062127931,1,-1,4,0,9,7,-4,5
1532062127936,1,-2,3,14,-11,-4,-2,0
1532062127941,0,9,1,-1,3,2,3,-4
1532062127946,-2,0,2,3,5,0,-6,5
1532062127951,-1,-5,-7,-2,-9,-8,11,-5
1532062127956,-4,-10,-4,-13,-4,0,-22,0
1532062127961,2,5,8,11,11,6,-1,-3
1532062127966,-1,3,-4,-18,-9,-5,1,1
1532062127971,-1,-8,-4,2,0,1,1,0
1532062127976,0,4,2,0,4,2,4,-2
1532062127981,-1,8,1,18,-4,-4,4,1
1532062127986,-1,-6,4,-6,-5,-1,1,-1
1532062127991,-4,-4,-2,6,3,-5,-19,-1
1532062127996,-2,-2,-2,-16,-8,-3,9,0
1532062128001,2,4,4,4,5,3,-2,0
1532062128006,2,7,-3,3,9,5,7,-2
1532062128011,-3,0,-1,-7,-8,-6,-6,-2
1532062128016,-1,-7,-1,0,1,-3,2,1
1532062128021,-2,-4,-3,0,-7,-4,2,1
1532062128026,0,-2,-3,-3,-4,2,-7,1
1532062128031,3,12,2,-5,9,10,4,1
1532062128036,-2,-5,0,2,2,-2,-1,1
1532062128041,-4,-18,-6,-5,-2,-2,-3,-2
1532062128046,1,-1,6,20,0,-3,2,0
1532062128051,1,4,3,-11,-3,1,9,-1
1532062128056,0,7,-5,-4,8,3,-8,-3
1532062128061,-3,-3,-11,-22,-4,-6,3,0
1532062128066,0,-1,1,14,-5,-4,-12,0
1532062128071,-1,-3,2,-3,-3,-5,1,1
1532062128076,0,-1,2,7,-1,1,3,-2
1532062128081,-2,-4,-2,-5,0,2,2,2
1532062128086,-2,4,3,8,6,0,13,-5
1532062128091,-3,-7,-5,1,-5,1,-13,-2
1532062128096,-2,2,-1,0,2,2,-5,-5
1532062128101,-1,7,4,6,-3,-3,-3,1
1532062128106,-2,-13,-15,-22,-7,-1,7,-4
1532062128111,1,4,6,6,-3,-4,2,2
1532062128116,-2,-9,0,1,8,2,12,4
1532062128121,1,11,3,-4,3,3,-3,-3
1532062128126,2,14,4,1,-2,-4,-6,0
1532062128131,-6,-13,-3,-7,-2,0,-5,3
1532062128136,-4,-4,-9,-5,-8,-9,-4,-5
1532062128141,0,4,1,-3,-2,3,12,5
1532062128146,-2,-8,-9,-3,6,3,-11,-4
1532062128151,1,7,-1,-10,-6,0,4,-4
1532062128156,4,7,8,3,3,2,2,-1
1532062128161,0,4,-1,-1,-2,-5,-5,-2
1532062128166,-4,-9,-1,-6,-7,-6,-3,4
1532062128171,1,-3,-4,4,-4,-5,-2,-3
1532062128176,-4,-7,-1,1,4,8,1,-2
1532062128181,2,2,4,3,8,9,-4,-3
1532062128186,18,10,2,-15,0,2,18,22
1532062128191,-32,-14,-3,5,-1,-3,-10,-19
1532062128196,1,10,3,12,-2,-7,-1,0
1532062128201,-6,-19,-5,-9,-6,-5,4,-1
1532062128206,-1,-1,3,-3,-5,-1,-5,1
1532062128211,6,-7,-4,-6,0,-3,4,0
1532062128216,1,7,0,20,2,3,-5,9
1532062128221,1,10,3,4,0,-2,-5,-4
1532062128226,-5,-6,0,6,2,1,-1,-7
1532062128231,3,-9,0,-2,9,4,4,6
1532062128236,-1,12,2,10,-10,-5,-14,-7
1532062128241,3,-20,-11,-38,-10,-4,-4,0
1532062128246,-5,11,1,3,-8,-4,-5,-6
1532062128251,3,4,2,14,2,2,9,0
1532062128256,2,-8,-4,-42,-2,0,-5,6
1532062128261,3,7,4,22,1,0,-4,4
1532062128266,-24,-17,-13,-11,-6,-5,-12,-3
1532062128271,31,10,5,4,2,1,5,6
1532062128276,-10,-7,-6,-7,-1,-2,-8,-2
1532062128281,13,9,2,4,-4,-11,-17,-3
1532062128286,-2,-11,10,20,9,8,12,2
1532062128291,58,23,-5,19,7,9,-1,4
1532062128296,-6,-15,-17,-72,-14,-6,6,-1
1532062128301,14,10,4,1,5,-3,0,-3
1532062128306,-32,-6,8,-17,-5,-2,2,-2
1532062128311,-18,-11,2,43,-3,-2,-18,-8
1532062128316,11,4,2,22,11,8,8,-1
1532062128321,2,-12,-10,12,-4,-3,2,2
1532062128326,-6,13,0,-13,9,-2,-13,-18
1532062128331,-17,2,2,-8,-5,-6,2,1
1532062128336,2,7,9,23,3,1,1,-1
1532062128341,-3,-7,20,31,9,5,-1,0
1532062128346,-11,-7,-9,-6,-16,-7,1,-1
1532062128351,-10,0,-13,-9,-10,-4,-4,-8
1532062128356,-11,2,-1,-3,3,3,0,-6
1532062128361,9,-1,-4,2,0,5,6,6
1532062128366,12,11,19,34,11,3,1,1
1532062128371,-9,-6,1,-3,-9,-10,-5,-2
1532062128376,5,-9,-7,-14,-16,-14,-5,3
1532062128381,-7,6,5,-1,12,23,10,2
1532062128386,11,3,-10,-15,6,2,0,-2
1532062128391,-9,2,10,-1,4,-3,4,3
1532062128396,-4,-11,-14,-29,-13,-7,-2,-3
1532062128401,-4,-2,1,5,-9,-13,-8,-6
1532062128406,5,1,-5,38,10,9,5,2
1532062128411,-5,-4,-9,-67,-7,-1,8,7
1532062128416,7,-1,6,15,-3,-6,-8,-6
1532062128421,-11,-2,-3,1,-12,-9,-3,-3
1532062128426,9,-1,1,15,8,4,2,0
1532062128431,0,5,15,-9,12,8,0,6
1532062128436,-4,-4,-8,10,5,5,3,-1
1532062128441,-10,-6,-6,-19,-12,-2,1,-6
1532062128446,6,-1,0,-6,-5,-10,-4,-1
1532062128451,-1,-4,-5,2,-3,-4,-5,-2
1532062128456,-1,4,9,6,7,6,3,0
1532062128461,-5,-5,-14,-6,-2,-1,-2,-3
1532062128466,5,4,-4,-15,-7,-4,0,0
1532062128471,-3,-3,10,15,-2,-3,2,-1
1532062128476,-2,-6,-16,0,-9,-4,-8,4
1532062128481,-6,-8,3,10,7,0,1,-4
1532062128486,2,0,-5,-11,-7,-9,-5,-3
1532062128491,-3,3,-7,9,-8,4,-3,-1
1532062128496,-2,4,6,5,9,6,22,0
1532062128501,-1,1,-2,-8,5,4,-10,-1
1532062128506,-2,-11,-2,-12,0,-1,7,3
1532062128511,4,0,5,16,3,-3,-7,1
1532062128516,3,4,1,1,-7,-5,-2,-2
1532062128521,1,16,3,5,0,-5,-2,0
1532062128526,2,12,-2,1,-7,1,15,2
1532062128531,-8,-28,-11,-5,12,6,-7,-3
1532062128536,-2,-5,5,10,5,-4,-11,-3
1532062128541,-5,-3,-5,-25,-13,-4,2,1
1532062128546,9,16,13,21,9,6,-9,-4
1532062128551,1,-3,-13,-45,-8,-1,34,9
1532062128556,1,-7,-1,10,-1,0,-28,-12
1532062128561,-7,2,-5,-14,-1,-5,5,4
1532062128566,4,6,3,-9,-7,-8,-9,-3
1532062128571,-4,10,1,14,0,7,2,1
1532062128576,-1,-22,1,4,18,12,10,5
1532062128581,-2,1,-4,-8,-6,-5,0,-2
1532062128586,-2,-10,-3,-5,-2,2,5,0
1532062128591,1,15,-2,-10,-7,-7,-27,-4
1532062128596,-2,1,5,3,-1,-5,5,2
1532062128601,-2,0,2,13,1,2,-17,-1
1532062128606,-5,-21,-13,-6,-1,1,13,-1
1532062128611,-3,1,-2,4,2,2,-10,-4
1532062128616,1,12,5,10,-5,-3,-13,2
1532062128621,8,4,6,10,7,7,21,-4
1532062128626,8,10,-5,-12,-3,-4,-14,10
1532062128631,-40,-9,0,7,-3,-7,-2,-14
1532062128636,7,0,2,-1,-1,-1,2,-1
1532062128641,-8,-19,-8,-4,-7,-4,0,-2
1532062128646,2,-4,-9,-12,2,4,5,-2
1532062128651,15,20,0,-3,1,2,-8,6
1532062128656,-17,-5,-4,-5,-5,-2,7,-4
1532062128661,-1,3,8,6,0,-1,-11,-7
1532062128666,-12,-10,-2,-14,2,0,-7,5
1532062128671,-40,-23,0,3,-2,-3,9,-1
1532062128676,37,12,-2,-6,-6,-5,-16,-1
1532062128681,23,5,-4,-4,0,2,22,9
1532062128686,3,9,4,2,1,-1,0,-4
1532062128691,17,8,4,-1,1,-8,-16,5
1532062128696,-49,-15,1,1,-5,3,22,3
1532062128701,-11,-33,-18,-7,4,1,-5,-26
1532062128706,2,2,-2,-3,-5,-6,-17,0
1532062128711,7,6,6,7,2,5,38,4
1532062128716,49,19,-3,-5,-4,-6,-19,6
1532062128721,-39,21,1,-4,-4,-5,11,-3
1532062128726,16,-27,3,7,6,7,-14,-4
1532062128731,29,2,-10,-1,0,1,0,-7
1532062128736,-9,-4,2,-2,2,0,2,2
1532062128741,3,5,0,-16,2,2,3,8
1532062128746,5,9,6,13,-10,-8,6,-2
1532062128751,-28,-8,1,6,0,-1,-14,-7
1532062128756,14,6,0,8,2,-1,3,-4
1532062128761,-27,3,-7,-11,-5,-2,-8,-5
1532062128766,-16,-1,19,-7,1,1,15,-1
1532062128771,18,-8,-4,-10,1,1,-25,9
1532062128776,-14,-5,-13,1,-3,-4,1,-7
1532062128781,22,0,3,7,0,1,-9,-1
1532062128786,-2,8,-11,-4,0,1,3,2
1532062128791,4,0,-1,-2,-1,-2,7,-1
1532062128796,-12,-2,9,5,0,-1,5,2
1532062128801,11,-7,-5,-2,-3,1,-9,1
1532062128806,2,-8,-9,1,1,-1,17,2
1532062128811,4,7,2,3,1,-3,-12,-1
1532062128816,-17,2,2,-25,-5,4,18,-5
1532062128821,1,-1,1,15,-1,-5,-14,1
1532062128826,-6,0,-2,-15,-2,-1,-2,-4
1532062128831,-7,-11,4,8,-2,-3,6,-4
1532062128836,5,-7,-4,1,0,-1,0,5
1532062128841,2,0,4,0,1,-1,3,6
1532062128846,-5,2,3,1,-2,-1,-3,-3
1532062128851,8,1,-2,-7,1,-1,4,2
1532062128856,-2,-1,2,-3,0,-2,0,-3
1532062128861,2,-5,-5,-3,-2,-2,-2,1
1532062128866,-2,1,-2,11,1,-1,-7,-3
1532062128871,-3,0,-1,-10,-1,0,-7,-1
1532062128876,8,7,2,17,-1,0,14,3
1532062128881,0,-14,2,2,1,-4,-16,-3
1532062128886,-10,-10,-3,-4,-6,0,-1,-5
1532062128891,0,-1,-2,4,3,4,-4,4
1532062128896,-1,6,-1,-5,0,0,0,3
1532062128901,6,3,1,-3,-3,-4,4,-10
1532062128906,-1,1,0,-4,0,1,-1,16
1532062128911,-3,4,0,2,1,3,15,-8
1532062128916,-3,-13,-10,-1,-1,-4,-13,-9
1532062128921,0,3,3,10,-4,-1,7,6
1532062128926,-2,-3,-1,-1,-1,-2,3,0
1532062128931,-5,9,3,-3,-3,-6,-20,-4
1532062128936,4,-1,-1,-1,3,4,4,-3
1532062128941,0,-12,-5,-8,1,0,3,7
1532062128946,-8,7,-1,-8,-3,-3,-14,-13
1532062128951,4,-8,-1,4,0,2,10,10
1532062128956,-11,2,2,0,1,1,-1,-14
1532062128961,12,3,1,-5,-5,-6,0,13
1532062128966,5,-1,-6,0,-4,-1,-5,-3
1532062128971,3,4,-2,5,6,8,21,-11
1532062128976,-4,-9,-3,-10,0,-4,-39,8
1532062128981,-4,22,6,-3,-1,3,20,1
1532062128986,-2,-10,2,10,3,-1,-6,0
1532062128991,-4,-17,-14,-1,-9,-7,-7,-5
1532062128996,0,3,4,1,-3,-1,9,1
1532062129001,-3,-4,-2,-3,6,7,-2,2
1532062129006,2,14,5,2,1,-1,-4,-4
1532062129011,3,1,1,-17,-6,-3,5,3
1532062129016,2,-7,-1,10,-2,-3,8,3
1532062129021,0,9,-3,-9,-2,-2,-11,-4
1532062129026,-3,-10,-1,12,4,2,11,-6
1532062129031,-3,-12,1,4,1,2,-24,19
1532062129036,2,4,0,2,2,0,-10,-15
1532062129041,-1,-2,1,-3,-4,-2,1,-4
1532062129046,1,-4,-10,-4,2,2,-11,-5
1532062129051,-13,-4,-2,-3,-5,-9,11,-15
1532062129056,0,7,0,-2,2,6,-6,5
1532062129061,-4,-6,-2,1,7,5,-3,2
1532062129066,-4,-1,2,5,-1,-3,17,-5
1532062129071,10,5,-3,-3,-5,-9,-4,3
1532062129076,0,0,1,5,-7,-2,6,-2
1532062129081,-1,2,1,2,6,5,-13,8
1532062129086,1,1,-2,-13,0,0,2,0
1532062129091,0,-10,2,12,-2,-3,-7,-14
1532062129096,0,0,1,7,4,1,5,10
1532062129101,1,-3,-3,-8,-2,0,11,-4
1532062129106,-1,-2,0,-4,-3,-3,-6,-3
1532062129111,0,4,1,3,2,2,-3,10
1532062129116,2,3,-3,-6,-3,0,16,-9
1532062129121,-5,-4,-1,5,1,0,-9,-7
1532062129126,1,1,0,-2,-4,-4,-6,6
1532062129131,8,1,-1,-8,0,-4,15,-5
1532062129136,-7,-2,-1,-10,2,2,12,7
1532062129141,0,-4,-8,2,-1,-4,-20,-16
1532062129146,2,1,1,7,6,7,1,9
1532062129151,4,5,0,4,1,2,8,1
1532062129156,-6,6,5,-1,-2,-4,-4,-5
1532062129161,9,-11,-8,-7,-6,-8,9,11
1532062129166,-1,-6,-1,0,-1,0,-9,-15
1532062129171,-6,3,1,-6,0,4,-1,-11
1532062129176,6,-4,-3,1,-4,-5,-16,-5
1532062129181,-5,2,2,-5,1,4,6,-8
1532062129186,0,7,2,18,1,-1,9,4
1532062129191,-1,-1,2,4,3,6,0,1
1532062129196,-1,-3,-8,-36,-5,-2,0,7
1532062129201,-1,-1,1,1,-2,0,-4,-3
1532062129206,-1,0,-6,-9,-2,-1,5,0
1532062129211,6,-4,4,29,2,-6,-17,-1
1532062129216,-4,-4,0,2,3,1,7,-3
1532062129221,-1,3,3,-5,-6,-7,-10,3
1532062129226,2,3,-1,-23,2,4,-4,-1
1532062129231,-6,2,-3,16,-2,0,11,5
1532062129236,12,-2,1,14,-1,2,-8,-1
1532062129241,-2,-2,1,16,0,-2,1,-3
1532062129246,7,-5,-2,8,-2,-2,-7,-3
1532062129251,-5,4,-2,-5,-1,0,0,-4
1532062129256,-1,-1,0,-8,-2,-4,7,2
1532062129261,-5,-4,-3,-2,-3,-5,-11,-4
1532062129266,-4,-4,3,3,-5,-5,-6,4
1532062129271,0,-2,-4,-6,-4,2,-10,-3
1532062129276,19,8,4,1,8,4,-8,3
1532062129281,-1,8,6,9,1,3,9,-4
1532062129286,-6,-11,-7,-9,-2,-3,13,9
1532062129291,-6,-8,-4,-14,-1,-3,-9,2
1532062129296,-2,-3,-2,8,-4,-3,-1,-1
1532062129301,-3,-6,1,13,2,1,4,1
1532062129306,-2,6,3,-9,-3,-3,1,-5
1532062129311,0,3,0,-12,-1,1,4,4
1532062129316,-8,-8,-1,-9,-2,0,-7,-10
1532062129321,13,-1,-1,11,1,1,2,-2
1532062129326,-5,5,0,-8,-2,-5,-12,-1
1532062129331,-1,-9,-1,-7,-2,-6,-2,-13
1532062129336,-9,1,-2,1,-2,0,-7,3
1532062129341,5,3,2,-3,0,0,10,1
1532062129346,-2,-4,-5,-4,-2,-1,-2,-2
1532062129351,2,-8,-1,-1,-4,-1,-17,-2
1532062129356,-6,1,0,-9,-1,-2,32,11
1532062129361,-1,2,3,15,0,-2,-16,-3
1532062129366,1,-2,-2,-14,-1,4,11,4
1532062129371,-1,7,3,7,6,2,1,5
1532062129376,-1,-3,-6,-16,-6,-1,-8,-5
1532062129381,-12,-3,0,-12,3,1,7,10
1532062129386,4,1,-1,8,0,-3,-6,-6
1532062129391,-18,-6,-5,-14,-1,-1,13,-12
1532062129396,-3,-3,-1,0,0,-4,-16,-2
1532062129401,-2,8,1,-3,-3,-2,-2,-2
1532062129406,-7,-8,-2,7,5,6,6,-12
1532062129411,3,-8,-2,0,-1,-3,-3,10
1532062129416,-1,1,2,8,-1,-1,3,-4
1532062129421,-2,-3,2,-10,-2,-1,11,3
1532062129426,-11,4,3,5,2,-1,-5,-5
1532062129431,3,2,-2,16,-1,0,8,4
1532062129436,-4,-2,2,26,3,-1,-8,4
1532062129441,1,0,-4,-24,-6,1,8,-1
1532062129446,7,-6,0,7,2,5,-4,-4
1532062129451,4,7,0,-4,0,-3,-6,-6
1532062129456,-6,-4,-1,-8,-1,1,2,-2
1532062129461,-2,3,1,9,3,0,-7,-6
1532062129466,4,-2,-2,19,-1,-5,9,13
1532062129471,-1,-4,0,-15,-3,0,-17,-6
1532062129476,2,0,-2,7,1,-2,10,-3
1532062129481,-2,-12,-3,-9,-3,-2,0,1
1532062129486,-3,2,-3,-22,-3,1,-6,-2
1532062129491,0,1,2,10,-3,-4,1,-3
1532062129496,4,7,1,-18,3,4,9,5
1532062129501,-2,-2,-4,2,-5,-4,3,1
1532062129506,-5,-9,-1,13,-5,-4,-12,2
1532062129511,1,6,0,-4,2,3,6,7
1532062129516,0,0,1,2,0,3,0,-5
1532062129521,-13,4,0,-10,-1,-1,2,-3
1532062129526,0,-9,-3,5,-1,-5,15,-12
1532062129531,1,6,-2,-34,-5,-1,-19,9
1532062129536,-7,-17,-8,11,2,1,-6,-9
1532062129541,5,2,-1,9,-1,-3,-2,5
1532062129546,4,11,6,-24,-1,-1,6,3
1532062129551,-9,0,2,17,2,0,9,-8
1532062129556,2,-7,-8,-3,-8,-4,-1,0
1532062129561,2,0,-1,-9,0,-3,-6,9
1532062129566,1,6,-2,10,0,-2,-15,-5
1532062129571,2,1,4,9,-2,0,6,-2
1532062129576,-2,7,-1,5,0,-3,-2,-2
1532062129581,1,-5,-1,-4,2,2,-4,-4
1532062129586,-1,9,4,8,0,-3,-3,8
1532062129591,3,-12,-10,-4,-1,-3,-10,-7
1532062129596,2,-1,0,-1,-1,-2,0,5
1532062129601,2,2,-2,1,0,5,13,4
1532062129606,1,2,2,-5,1,0,-18,-9
1532062129611,1,1,0,1,-1,-2,21,4
1532062129616,-1,-2,-4,-13,-4,-4,-15,-1
1532062129621,-2,-5,-1,0,-1,-4,-13,-16
1532062129626,1,-3,0,2,1,0,-10,-1
1532062129631,6,1,1,-9,-4,0,14,15
1532062129636,-6,0,-1,8,6,5,1,-2
1532062129641,-1,1,-1,-1,-1,-3,0,-4
1532062129646,-1,-6,-4,-7,-6,-1,2,3
1532062129651,-1,1,-1,-1,7,6,13,-12
1532062129656,1,3,5,-1,-2,-4,-5,9
1532062129661,-4,-4,-4,2,2,1,-18,2
1532062129666,-1,-1,-2,1,-3,-3,11,-2
1532062129671,-3,0,1,-10,-3,-1,3,4
1532062129676,0,0,1,-4,-3,-1,0,-8
1532062129681,1,3,2,12,2,-1,15,3
1532062129686,-5,-4,-2,-1,-4,-2,-12,2
1532062129691,-2,-2,1,10,2,0,-6,-7
1532062129696,-1,2,3,11,4,1,-20,-8
1532062129701,-6,-4,-3,-9,2,2,0,-6
1532062129706,-4,-1,-2,-2,-2,2,4,2
1532062129711,1,7,0,-4,0,-2,-6,-5
1532062129716,2,-2,1,-6,-5,-4,4,2
1532062129721,0,-2,0,8,-6,-5,6,-2
1532062129726,0,0,0,-11,2,6,-2,7
1532062129731,-2,-6,-3,0,7,4,0,-3
1532062129736,-2,1,-1,-3,-7,-5,8,0
1532062129741,-1,0,1,-4,-2,-2,11,-11
1532062129746,-4,-1,-2,-2,7,2,-41,-3
1532062129751,1,-2,1,5,-1,-2,-7,0
1532062129756,-2,2,-1,-6,0,2,5,-1
1532062129761,1,0,0,2,-3,-1,-3,-2
1532062129766,-2,-4,-1,-10,-8,-5,16,5
1532062129771,5,3,0,0,0,1,1,1
1532062129776,-4,-11,-4,7,6,1,-10,-3
1532062129781,0,-1,-1,0,-3,-3,-4,7
1532062129786,-4,-2,0,2,-3,-6,6,-9
1532062129791,0,1,-2,-2,-1,1,-8,-1
1532062129796,3,1,-2,-11,-6,-5,6,9
1532062129801,-6,-2,-5,4,-3,4,-2,-4
1532062129806,4,1,0,-4,5,1,9,4
1532062129811,-4,2,0,-2,-1,-4,-13,-3
1532062129816,-1,3,1,-1,0,0,11,2
1532062129821,1,-9,-5,-2,-1,-2,-22,7
1532062129826,0,1,0,-1,-4,-1,7,-3
1532062129831,4,-1,0,-2,-4,-1,2,-8
1532062129836,0,3,0,-4,-5,-2,1,-1
1532062129841,1,1,-1,-5,0,1,-6,8
1532062129846,0,-3,1,16,6,5,11,-2
1532062129851,-4,2,0,-9,-1,0,-7,0
1532062129856,-1,-3,-2,11,0,0,-2,4
1532062129861,-3,-7,-2,-7,-4,-4,11,-9
1532062129866,0,-2,-4,-6,-6,-5,-11,-1
1532062129871,-1,-2,1,2,0,4,7,4
1532062129876,3,1,2,-3,7,5,-3,-1
1532062129881,-1,1,1,-4,-1,1,9,-2
1532062129886,8,4,0,0,-2,-2,-4,1
1532062129891,-5,-10,-5,-2,-5,-8,-1,-7
1532062129896,-1,-1,-2,-10,-6,-3,1,-6
1532062129901,0,1,2,6,7,9,2,3
1532062129906,-5,1,1,4,3,1,-2,-12
1532062129911,3,-5,-2,6,0,-4,-7,8
1532062129916,-6,-6,-6,-7,-4,-1,-10,-7
1532062129921,4,-1,-3,-8,2,-3,-7,1
1532062129926,1,2,1,1,0,2,18,4
1532062129931,6,1,1,1,-1,-3,-15,-2
1532062129936,-5,-1,2,6,-2,-3,-1,-3
1532062129941,1,2,1,2,-1,-2,-1,-1
1532062129946,0,-3,-3,-13,-4,-5,-7,-12
1532062129951,-8,-2,-1,1,-4,1,-1,6
1532062129956,0,-1,-1,0,1,-1,-1,1
1532062129961,-4,-3,1,3,-6,-5,-1,-5
1532062129966,2,-1,-1,4,1,1,5,5
1532062129971,-3,1,-1,-9,2,-1,6,3
1532062129976,0,2,-1,-2,-2,-1,-7,-17
1532062129981,0,2,1,-4,0,-2,-4,7
1532062129986,-6,-10,-6,12,-5,-6,9,12
1532062129991,6,1,0,-7,1,1,8,-5
1532062129996,-2,0,2,1,-1,1,-15,-6
1532062130001,2,4,-2,-5,4,3,8,4
1532062130006,-2,-1,0,-2,-3,-1,-5,-7
1532062130011,-3,-3,-1,3,-5,-10,-4,-2
1532062130016,3,1,-2,-2,-3,-6,4,3
1532062130021,-3,-4,-3,-1,-4,4,5,-7
1532062130026,-1,3,0,-3,8,8,-7,-3
1532062130031,0,-4,-2,4,2,0,12,-6
1532062130036,-2,0,1,7,0,-1,-5,20
1532062130041,-1,-2,-1,-3,-3,-5,-3,-8
1532062130046,-2,1,-1,-11,-4,-4,-11,2
1532062130051,0,9,-1,-13,-4,0,9,-2
1532062130056,0,-7,0,2,2,-1,16,1
1532062130061,-1,-6,-3,16,0,-1,-33,-5
1532062130066,1,-1,-1,-3,1,2,10,5
1532062130071,0,1,-1,-4,1,-1,-2,4
1532062130076,-2,2,1,0,-4,-2,-10,-6
1532062130081,2,1,1,-5,3,4,8,1
1532062130086,1,0,1,8,0,-2,-5,-11
1532062130091,-2,-2,-3,3,-4,-9,-7,9
1532062130096,0,-4,-5,-16,0,5,7,0
1532062130101,0,-1,-2,-6,-2,-1,-2,-3
1532062130106,-2,-3,3,16,-3,-1,-7,2
1532062130111,-2,6,3,-4,2,3,2,-10
1532062130116,-1,-1,-2,0,-4,-4,5,-4
1532062130121,1,-4,-5,-4,0,-2,-6,6
1532062130126,5,-3,-3,-10,-1,-1,-5,1
1532062130131,-3,-3,0,7,-4,-3,3,-7
1532062130136,-2,3,3,2,0,-1,-19,0
1532062130141,1,8,2,-2,-3,-3,8,1
1532062130146,-3,-1,-1,5,0,1,8,1
1532062130151,-1,-1,0,-1,3,5,-5,1
1532062130156,10,-4,-5,-4,1,0,3,-4
1532062130161,-21,-3,2,3,-6,-7,0,6
1532062130166,0,-1,-1,-1,0,-3,0,-3
1532062130171,3,2,1,-5,2,3,5,-3
1532062130176,-5,3,0,11,5,3,-5,10
1532062130181,-3,-7,-2,2,-5,-3,2,-7
1532062130186,4,2,-2,-7,-5,-10,7,5
1532062130191,-5,-7,-4,-8,-2,4,-17,-2
1532062130196,11,-1,5,29,7,7,6,-11
1532062130201,3,-2,2,-10,0,-4,2,6
1532062130206,-11,0,-2,-15,-5,-3,5,1
1532062130211,7,-1,-2,0,-2,-2,1,-2
1532062130216,-5,0,1,12,1,-3,0,-3
1532062130221,3,4,2,-14,-2,-1,-4,-2
1532062130226,-4,-7,-1,-4,-1,0,-12,7
1532062130231,0,-1,-1,5,-6,-1,8,4
1532062130236,8,-1,1,5,5,2,-8,9
1532062130241,-10,1,-4,-16,-1,1,1,-7
1532062130246,-1,1,1,9,0,-1,-1,-5
1532062130251,-8,-8,-1,-3,-2,-1,6,3
1532062130256,0,0,-1,-14,-3,-3,3,1
1532062130261,8,1,0,1,1,2,2,1
1532062130266,-1,0,-2,-1,0,1,-5,-2
1532062130271,-4,0,-3,11,1,-2,-2,-8
1532062130276,3,2,-1,-10,-4,-4,3,0
1532062130281,1,-3,0,7,-2,-3,-1,-10
1532062130286,-2,2,-1,-15,-4,-2,-7,-4
1532062130291,2,0,-2,1,2,2,2,-1
1532062130296,-7,-1,-4,-13,0,3,5,8
1532062130301,-4,-4,-4,11,0,-2,-6,-9
1532062130306,5,-7,1,3,3,2,20,-7
1532062130311,0,0,0,2,2,-5,-12,11
1532062130316,-5,-1,-3,-10,-8,-7,-1,1
1532062130321,4,2,0,10,-1,0,-6,-3
1532062130326,1,5,2,2,-1,-1,1,1
1532062130331,-3,-4,0,1,0,0,-4,-4
1532062130336,-5,-4,-2,-2,-2,-1,3,-7
1532062130341,4,4,0,-2,3,4,15,5
1532062130346,-1,-1,-2,1,-1,-3,-18,-4
1532062130351,-1,-1,2,-6,-4,-5,4,0
1532062130356,-1,0,2,32,-1,-3,-15,-10
1532062130361,-1,-4,-5,-25,-3,7,5,1
1532062130366,-1,-1,-1,0,4,-1,-6,1
1532062130371,3,0,-3,-9,-1,2,19,-9
1532062130376,-5,-10,3,27,3,1,-9,0
1532062130381,-2,-1,-4,-23,-1,-4,-4,-1
1532062130386,1,0,1,9,-2,-1,-1,-2
1532062130391,-1,1,1,-5,0,-2,0,6
1532062130396,-1,4,-1,-7,2,1,5,-1
1532062130401,-2,-2,1,12,-1,0,-4,-4
1532062130406,0,3,-1,-5,2,0,5,4
1532062130411,-2,-4,-2,-4,-2,-3,-8,-6
1532062130416,-2,-2,0,-7,0,0,10,11
1532062130421,4,0,-1,8,1,-4,-7,-2
1532062130426,-2,4,1,1,-1,0,14,0
1532062130431,-3,-3,-1,7,2,2,-27,5
1532062130436,3,2,1,-2,3,4,5,-1
1532062130441,0,-2,1,-11,-4,-5,-1,1
1532062130446,-1,-2,0,-5,2,3,4,2
1532062130451,8,-1,-2,15,-2,-4,3,10
1532062130456,-7,-5,-2,-16,-5,-1,0,-21
1532062130461,0,-1,2,12,-1,-7,-2,-8
1532062130466,1,3,-2,4,-1,3,-5,0
1532062130471,0,-4,-1,-10,7,6,3,1
1532062130476,-2,2,-1,-3,-4,-5,-3,-3
1532062130481,-1,-2,0,8,0,0,-3,-2
1532062130486,-5,3,-4,-11,-5,-4,-7,5
1532062130491,-5,1,0,2,2,3,-1,-10
1532062130496,0,0,-3,-18,-3,0,3,7
1532062130501,-1,-2,0,-2,-2,-2,-5,0
1532062130506,-3,-3,-1,8,-6,0,-4,-3
1532062130511,1,7,2,-13,5,5,4,3
1532062130516,-3,-5,-6,1,-1,1,-6,-1
1532062130521,1,-5,0,6,1,-1,3,8
1532062130526,-2,-1,0,5,-1,-5,4,2
1532062130531,-1,-2,1,-3,-8,-4,-5,-13
1532062130536,1,2,-1,-4,3,2,2,-4
1532062130541,-1,-1,-2,2,1,1,5,5
1532062130546,1,-1,0,9,0,-2,-4,5
1532062130551,-2,-2,-4,-19,-3,-2,-2,3
1532062130556,-1,-1,-1,-9,-1,-1,5,0
1532062130561,0,1,-2,10,1,5,4,3
1532062130566,-1,1,0,0,-1,-5,-3,-5
1532062130571,-6,-4,-1,8,-7,-6,1,3
1532062130576,3,5,3,4,-3,-3,1,2
1532062130581,1,2,0,-16,9,6,-5,0
1532062130586,-1,-7,1,20,3,3,5,-7
1532062130591,1,1,-3,-14,-4,-3,8,6
1532062130596,-2,-1,-3,-3,-7,-8,-14,-9
1532062130601,0,4,3,4,1,-2,3,1
1532062130606,0,2,-2,-11,-1,0,-4,-4
1532062130611,-2,-7,-2,4,-2,-3,9,-3
1532062130616,-3,0,1,-1,-4,-3,-4,3
1532062130621,-1,1,0,1,2,4,2,0
1532062130626,0,-3,-2,-8,3,2,-5,-5
1532062130631,-3,0,0,2,-3,-6,-6,0
1532062130636,3,-1,-1,-5,-4,-1,0,-2
1532062130641,-1,-2,2,3,-2,0,0,-3
1532062130646,-1,-7,-6,-14,-1,-1,-9,-3
1532062130651,6,0,0,6,0,0,-2,-3
1532062130656,0,2,4,6,8,8,1,-5
1532062130661,-3,-8,-3,-3,-5,-5,0,-1
1532062130666,-1,5,0,-1,-2,-2,-4,-3
1532062130671,-3,1,0,-7,-1,-2,-10,-2
1532062130676,-1,2,-3,-6,-6,-6,-2,2
1532062130681,-2,-10,-3,10,-4,-2,-4,-1
1532062130686,-1,-2,1,-7,2,3,6,3
1532062130691,-1,1,0,1,1,2,-5,-3
1532062130696,-2,1,-4,-5,-4,-5,7,0
1532062130701,-3,4,-1,-2,-5,-1,-9,-1
1532062130706,1,-6,-4,-3,-1,-3,-10,-2
1532062130711,-1,1,1,3,-1,0,-3,0
1532062130716,1,-2,0,0,4,-1,4,3
1532062130721,1,3,-1,-4,-5,-3,-3,-6
1532062130726,-2,-2,-2,-7,-4,1,3,1
1532062130731,1,5,2,7,1,-1,-3,0
1532062130736,-2,-5,0,-2,2,5,-1,0
1532062130741,0,-2,-2,-1,0,-3,1,-2
1532062130746,2,2,4,8,-3,-3,13,11
1532062130751,-2,-2,-1,-11,3,4,-7,-8
1532062130756,-2,-3,-6,-18,-10,-3,-4,-2
1532062130761,-1,-3,-1,10,1,-1,3,9
1532062130766,8,2,1,-2,-1,-1,-7,-5
1532062130771,-4,-1,-1,0,-2,-2,-1,4
1532062130776,3,-4,2,8,2,1,0,1
1532062130781,0,6,2,-9,-1,0,0,0
1532062130786,-3,1,-1,5,1,-1,-5,-2
1532062130791,-1,-9,-2,1,0,-2,3,-3
1532062130796,0,0,-1,-4,0,-3,-6,-3
1532062130801,-2,-3,0,0,-7,-9,1,1
1532062130806,-2,2,0,-3,1,5,1,0
1532062130811,0,1,0,1,5,5,-2,-4
1532062130816,-2,-3,-1,0,-3,-3,0,2
1532062130821,1,1,0,2,1,0,-1,-3
1532062130826,-1,-1,-1,-6,-3,0,2,-3
1532062130831,0,1,0,0,-3,0,2,4
1532062130836,0,-2,1,4,3,-1,3,-2
1532062130841,-1,-2,-2,1,-1,-2,-3,-3
1532062130846,-2,-6,-1,-4,-7,-4,-1,1
1532062130851,-2,0,1,1,0,-1,10,-1
1532062130856,0,2,2,3,2,1,-12,-1
1532062130861,-1,-3,-3,-4,0,0,7,1
1532062130866,-3,-4,-1,0,2,0,-8,-9
1532062130871,1,2,0,3,-2,-2,11,1
1532062130876,-1,1,-1,-2,0,-3,-4,0
1532062130881,0,8,1,-2,1,1,1,4
1532062130886,-3,-19,-3,-3,0,-2,-3,-7
1532062130891,2,3,1,0,-2,-4,-2,0
1532062130896,-1,1,1,7,0,6,0,-3
1532062130901,-1,1,1,-1,1,1,-5,-1
1532062130906,-2,1,-5,-7,0,-1,9,2
1532062130911,-3,-3,-1,5,-4,-5,-8,-4
1532062130916,1,0,-1,-11,2,3,2,0
1532062130921,0,-3,0,5,1,3,5,2
1532062130926,0,4,0,-4,2,-1,0,0
1532062130931,-2,-5,-3,0,-3,-3,-6,-4
1532062130936,0,0,-1,13,-4,-7,-2,0
1532062130941,0,0,-2,-7,2,2,1,-1
1532062130946,0,4,-1,-6,-5,-3,-2,-2
1532062130951,-2,-5,-2,-1,1,1,-7,4
1532062130956,0,-4,-2,-2,-1,-2,3,-2
1532062130961,-1,-2,0,4,-2,-2,-11,-5
1532062130966,-1,2,0,7,1,0,2,1
1532062130971,1,1,0,1,-2,0,-2,-3
1532062130976,-1,0,-3,-10,-1,1,2,-4
1532062130981,-2,-7,-1,-9,-4,-6,-3,0
1532062130986,-3,-11,0,9,1,1,-1,2
1532062130991,3,5,1,0,3,2,9,8
1532062130996,-2,0,0,-3,0,1,-9,-11
1532062131001,0,6,-2,0,-4,0,2,-2
1532062131006,-1,0,-1,-3,-5,-7,-5,-3
1532062131011,1,-3,-3,-17,2,2,8,1
1532062131016,-1,-3,-3,4,-1,-2,-1,3
1532062131021,1,0,0,-8,1,3,1,-1
1532062131026,-1,4,1,5,3,3,4,-2
1532062131031,-1,-2,1,12,-2,-2,3,9
1532062131036,-2,0,-2,-4,-5,-6,-17,-12
1532062131041,1,-1,0,2,3,6,1,4
1532062131046,0,1,-1,-1,0,-2,4,-7
1532062131051,-3,0,-3,-4,-1,0,-5,-7
1532062131056,0,-2,0,-6,-4,-4,5,1
1532062131061,-3,-2,0,-7,-7,-5,1,0
1532062131066,0,5,0,1,4,5,-3,-2
1532062131071,-2,-11,-2,4,0,-2,-7,-3
1532062131076,-1,4,2,10,-1,0,12,3
1532062131081,-3,-10,-6,-2,-3,-5,-5,-9
1532062131086,0,3,2,0,-6,-4,0,6
1532062131091,0,1,0,1,7,4,-3,-4
1532062131096,-1,3,-1,5,6,6,2,5
1532062131101,1,2,-1,-2,0,0,1,-4
1532062131106,-3,-3,-1,2,-5,-5,-10,1
1532062131111,-3,0,-2,0,-4,1,-1,-4
1532062131116,1,-4,-1,2,-1,0,0,4
1532062131121,3,6,2,7,2,-1,0,1
1532062131126,0,-1,-2,-16,2,1,4,-1
1532062131131,0,-1,3,-1,-5,-3,-5,-2
1532062131136,-3,-2,1,-6,-2,4,3,0
1532062131141,-2,-2,0,12,2,-1,-6,0
1532062131146,2,1,-2,-1,-1,-2,3,-1
1532062131151,0,1,-2,-7,-1,2,-3,1
1532062131156,-3,-2,-4,-4,1,1,-1,1
1532062131161,-2,-2,-1,4,1,-3,3,-1
1532062131166,-1,1,2,6,2,3,-5,-2
1532062131171,-1,1,-2,-14,-7,-6,-5,-3
1532062131176,1,-3,0,-4,-8,-2,7,1
1532062131181,0,1,0,1,6,5,-2,5
1532062131186,-1,0,-2,4,1,-1,-5,-5
1532062131191,-2,3,0,4,-3,-4,-1,-5
1532062131196,0,-7,-3,-3,0,-2,-1,0
1532062131201,0,-2,-1,-4,-6,-3,0,-1
1532062131206,1,0,3,0,1,1,5,3
1532062131211,-1,-8,-5,2,-2,-2,-5,-1
1532062131216,-2,0,-2,-2,-2,-4,0,-1
1532062131221,-1,0,-1,-3,-5,-1,-2,-3
1532062131226,-1,1,0,-2,-1,2,1,0
1532062131231,-2,2,-1,-2,0,0,0,-5
1532062131236,-1,0,0,1,2,2,-3,1
1532062131241,0,-3,-2,-2,-4,-2,0,-1
1532062131246,-1,-1,-2,-4,-4,-5,-3,-2
1532062131251,1,0,0,2,1,2,3,2
1532062131256,0,-3,-1,0,-4,-6,-4,-1
1532062131261,-4,0,1,-3,-1,3,-2,-5
1532062131266,0,-1,-1,-2,2,-1,3,1
1532062131271,-2,-1,1,4,2,0,-2,-1
1532062131276,1,1,1,5,1,1,1,-1
1532062131281,-2,1,-3,-13,-9,-6,-4,-4
1532062131286,-2,-2,-2,0,3,-1,-2,0
1532062131291,1,-2,0,3,4,6,3,2
1532062131296,2,3,1,-1,0,1,1,0
1532062131301,-3,-1,1,-2,-4,-5,-3,4
1532062131306,-1,-5,-4,-2,-6,-7,-5,-1
1532062131311,1,3,-1,-7,0,4,-6,1
1532062131316,1,1,-1,-1,4,2,-3,0
1532062131321,1,-2,1,11,0,0,4,-1
1532062131326,-2,1,2,-6,-4,-2,3,9
1532062131331,-3,-6,-5,3,-9,-6,0,3
1532062131336,0,-3,-5,-8,-1,-1,3,-2
1532062131341,-1,0,-1,-4,5,2,-2,0
1532062131346,0,0,3,1,-2,1,4,-1
1532062131351,2,3,0,-2,-1,-3,3,1
1532062131356,-4,-3,-2,-8,-6,-3,-4,-2
1532062131361,1,0,-1,-10,3,2,-3,2
1532062131366,-2,-5,-5,1,2,2,-9,-6
1532062131371,-2,-2,2,11,-1,-5,-4,-8
1532062131376,-5,-2,-3,-24,-7,-6,0,2
1532062131381,2,5,-1,-6,6,6,13,4
1532062131386,-5,-2,0,2,4,2,-3,-11
1532062131391,0,-4,-5,0,-3,0,9,2
1532062131396,6,1,2,15,0,2,-12,-6
1532062131401,-1,0,-3,-1,1,-3,-7,5
1532062131406,-5,3,0,10,-1,-1,9,1
1532062131411,3,1,3,-14,-1,-1,-2,-1
1532062131416,-2,4,-1,7,-1,3,4,0
1532062131421,3,-5,-2,2,0,1,7,2
1532062131426,6,-2,-3,1,-1,-2,-13,-3
1532062131431,-15,1,3,10,3,-1,-2,-6
1532062131436,-5,-1,2,2,3,2,4,0
1532062131441,6,2,3,5,0,1,-2,0
1532062131446,-3,-2,-3,-10,-4,-3,2,5
1532062131451,4,-4,-2,-8,-5,-1,-2,-2
1532062131456,3,0,0,-12,-1,-3,1,-2
1532062131461,-10,-6,-5,7,-3,0,-4,-1
1532062131466,3,2,5,21,5,2,3,-7
1532062131471,3,1,0,-16,0,1,-6,0
1532062131476,-3,2,1,-1,-2,-5,-3,-2
1532062131481,-2,-5,-8,-3,-2,-2,-6,-12
1532062131486,3,0,0,-6,-2,2,6,10
1532062131491,2,7,1,11,4,4,9,-2
1532062131496,-6,-11,0,6,4,1,-14,0
1532062131501,1,-2,-3,-9,-7,-7,1,-2
1532062131506,1,-2,-4,-7,-2,-6,-6,-4
1532062131511,-4,-1,1,6,-3,-1,8,3
1532062131516,2,4,2,0,3,4,7,3
1532062131521,-3,2,3,-3,-2,-1,0,-4
1532062131526,-7,-10,-4,-4,-5,1,6,0
1532062131531,1,3,-2,-6,-1,-5,-1,6
1532062131536,-1,-1,-2,6,-7,-6,-27,-7
1532062131541,1,-1,6,14,2,1,6,1
1532062131546,-2,5,1,11,7,7,8,0
1532062131551,-1,-5,-4,-34,4,3,0,-4
1532062131556,0,-1,-2,3,-4,-3,4,7
1532062131561,-2,-2,-1,6,-2,-4,3,5
1532062131566,1,4,2,-16,-2,1,6,-4
1532062131571,0,-5,-2,11,0,-3,-24,-4
1532062131576,0,-3,0,2,-1,-1,10,0
1532062131581,1,-2,-2,-9,-3,-2,-4,-4
1532062131586,1,2,1,6,0,-3,0,0
1532062131591,-1,7,0,0,-1,-1,0,0
1532062131596,-2,-14,-3,-2,2,1,5,-3
1532062131601,-1,1,-1,-8,-4,-4,-4,-3
1532062131606,0,0,-1,-10,-3,-1,-8,2
1532062131611,-4,0,2,8,-3,-3,9,8
1532062131616,9,4,-1,-5,0,-2,-5,-2
1532062131621,-2,0,1,5,3,6,-1,-4
1532062131626,-1,-4,-3,3,5,0,-7,1
1532062131631,-1,-5,-1,-8,-4,-4,1,-3
1532062131636,-1,1,-1,-11,-2,-5,12,-5
1532062131641,-7,-5,-3,-2,-10,-7,-17,4
1532062131646,1,1,-1,1,2,2,0,2
1532062131651,1,2,-1,9,-2,-1,-1,-7
1532062131656,-3,-3,2,8,0,-1,-1,1
1532062131661,-1,0,-3,1,2,0,2,-5
1532062131666,-2,-2,0,-6,-7,-3,-1,1
1532062131671,-1,-13,-4,1,2,1,-4,-4
1532062131676,-4,6,0,3,0,4,4,2
1532062131681,15,-1,3,7,-1,-4,7,4
1532062131686,-13,0,-5,-18,-4,-3,-21,-11
1532062131691,2,2,0,-2,-2,-1,-10,-3
1532062131696,-4,-6,-4,2,-1,2,0,3
1532062131701,-3,0,-1,-8,-3,0,-14,-4
1532062131706,1,-4,-4,-5,-2,-2,-7,0
1532062131711,1,7,4,25,1,1,-6,-5
1532062131716,-4,-8,-6,-22,-2,0,2,-1
1532062131721,-1,1,0,2,0,-1,-4,2
1532062131726,-1,-1,2,-3,-5,-3,10,-1
1532062131731,-2,-1,-2,5,0,-4,-1,1
1532062131736,1,5,1,3,1,1,-5,-3
1532062131741,-5,-4,-3,-1,0,1,13,-1
1532062131746,0,-4,-2,-5,-1,-2,-8,3
1532062131751,-2,-1,1,13,2,-1,9,-9
1532062131756,-1,1,-1,0,1,-2,8,6
1532062131761,12,1,-3,14,-7,-3,-14,2
1532062131766,-1,2,2,-2,1,4,8,2
1532062131771,-3,0,-2,-8,-4,-2,8,-9
1532062131776,3,-4,0,4,3,-1,-4,5
1532062131781,4,8,3,-8,2,1,-11,3
1532062131786,-4,0,-1,0,1,0,9,-2
1532062131791,3,-4,-1,14,-5,-2,-9,-1
1532062131796,-5,-1,1,17,-1,-1,-2,2
1532062131801,-3,-6,-8,-30,-3,0,3,1
1532062131806,4,6,1,0,1,-4,-8,-9
1532062131811,-4,3,5,-7,2,1,5,8
1532062131816,0,-6,-2,11,5,1,-9,-8
1532062131821,-3,0,-2,-20,-5,-3,-4,1
1532062131826,4,3,6,2,-4,0,5,3
1532062131831,0,-6,-7,5,1,1,10,10
1532062131836,-6,-2,-2,-12,-4,-3,-25,-9
1532062131841,-3,-1,3,18,4,-1,4,-3
1532062131846,-3,-6,-3,-8,-4,-2,0,1
1532062131851,5,2,1,0,6,3,5,1
1532062131856,-1,2,1,9,-1,-2,3,-3
1532062131861,-4,-1,1,-2,3,4,23,2
1532062131866,1,2,-3,10,-2,-4,-28,-7
1532062131871,-2,-3,0,-14,-9,-8,-5,-4
1532062131876,-1,-9,-10,-12,-5,-3,4,-2
1532062131881,0,-3,4,21,3,2,-4,-4
1532062131886,0,-1,-1,-11,0,1,9,4
1532062131891,-3,3,-4,-29,-1,-2,4,6
1532062131896,1,5,1,1,-7,-6,-12,-17
1532062131901,2,-1,-2,0,-5,-1,0,7
1532062131906,-3,-2,-2,10,8,4,4,-5
1532062131911,0,0,-2,-2,4,6,-6,-5
1532062131916,1,-1,-3,-4,-2,-1,4,9
1532062131921,-4,0,5,1,-3,-5,-4,-2
1532062131926,0,2,3,1,-7,-6,3,0
1532062131931,-1,5,-1,-4,-4,-2,-7,-1
1532062131936,-1,-11,-6,-7,1,3,8,-1
1532062131941,-1,1,-2,-3,-2,-3,-5,-2
1532062131946,-4,-9,-2,1,1,-1,-10,-1
1532062131951,2,3,1,12,0,-2,1,-5
1532062131956,-2,5,0,-17,-2,1,-6,1
1532062131961,-1,1,-1,-29,0,2,-1,-4
1532062131966,0,-5,-3,-10,-4,-3,-8,6
1532062131971,1,-4,1,13,-1,-1,-3,-4
1532062131976,-1,3,0,9,1,-1,0,1
1532062131981,-2,-5,2,15,1,-3,-2,6
1532062131986,7,2,0,-20,1,1,15,3
1532062131991,-12,-4,2,1,-2,1,-10,-19
1532062131996,-1,-2,-3,-9,-2,-1,0,3
1532062132001,-1,3,-2,8,-4,-1,0,2
1532062132006,-2,-1,-3,7,2,3,3,-2
1532062132011,2,-3,-3,-5,0,-1,2,3
1532062132016,-1,6,3,-6,-2,-1,5,-3
1532062132021,-3,-3,-3,-2,1,-2,-5,-5
1532062132026,-2,-1,-5,2,-7,-3,6,-1
1532062132031,2,-8,-2,-6,0,0,-1,3
1532062132036,-4,-2,1,14,-2,-1,-5,-1
1532062132041,2,3,1,-2,-4,-2,-3,1
1532062132046,-1,3,3,5,3,3,5,-3
1532062132051,2,4,-1,-4,-1,-4,-2,2
1532062132056,0,2,2,-6,0,1,-1,-2
1532062132061,-1,-1,-2,8,2,1,5,0
1532062132066,-4,-4,-1,0,-4,-1,-10,-2
1532062132071,-1,0,0,9,8,4,2,-1
1532062132076,1,-2,-4,-10,-4,2,-4,-1
1532062132081,-1,-1,0,12,4,2,-7,-4
1532062132086,0,3,3,-5,-4,-4,9,-3
1532062132091,-3,-7,-2,19,-3,-4,-10,-1
1532062132096,-5,-4,-3,-10,-4,-4,-5,0
1532062132101,4,-1,-4,1,1,1,-2,-2
1532062132106,-4,-3,7,20,1,-1,10,3
1532062132111,7,6,-1,-28,-3,-3,-11,-3
1532062132116,-7,-4,0,-8,-4,-1,4,0
1532062132121,-1,-3,-4,-7,-1,1,-3,1
1532062132126,-5,-1,1,5,3,1,3,-6
1532062132131,-1,0,-2,-11,-3,1,4,0
1532062132136,3,-2,0,1,0,0,-2,3
1532062132141,-3,1,4,14,-1,-5,0,-1
1532062132146,-1,-4,-8,-23,-8,-5,-6,-3
1532062132151,-6,4,0,3,1,2,6,4
1532062132156,2,-8,-3,7,1,0,-2,-9
1532062132161,-2,-3,0,17,0,-1,-2,-1
1532062132166,1,0,0,-2,0,-3,-1,1
1532062132171,-2,-4,-1,-1,-5,-3,-4,-3
1532062132176,0,4,1,-2,-2,-3,1,-1
1532062132181,1,0,-4,-22,-6,-1,0,3
1532062132186,-1,-3,-3,0,-1,6,1,-1
1532062132191,-1,0,-1,-2,2,0,3,2
1532062132196,2,4,5,22,6,3,1,4
1532062132201,-2,-5,-2,-8,-3,-6,-6,-8
1532062132206,0,2,0,-3,-3,-5,-3,-2
1532062132211,-3,-15,-3,2,1,5,2,-2
1532062132216,1,0,-3,-11,1,2,2,1
1532062132221,-3,1,-3,0,1,0,-2,1
1532062132226,1,1,-1,1,-3,-4,-3,-2
1532062132231,0,2,5,8,-2,0,1,-1
1532062132236,-1,-1,-3,-9,-2,-4,-2,0
1532062132241,0,-1,-6,-7,-2,1,1,-1
1532062132246,-1,1,11,6,1,-3,-1,-1
1532062132251,-2,-2,-8,8,-1,-3,-2,1
1532062132256,-7,-1,9,-2,-2,0,-2,0
1532062132261,9,14,7,8,-1,2,5,-3
1532062132266,-7,-19,-57,-24,-6,-5,-8,-4
1532062132271,-1,3,14,-6,0,1,1,3
1532062132276,1,-2,7,8,0,-1,0,0
1532062132281,-4,-5,10,-1,3,1,-1,0
1532062132286,1,3,1,5,1,2,1,-1
1532062132291,1,-2,-4,-10,-5,-5,-3,-1
1532062132296,1,-1,-6,2,-2,-1,1,2
1532062132301,-1,0,-4,-4,0,0,0,-1
1532062132306,3,1,9,2,0,-2,-6,-1
1532062132311,-3,-3,-4,1,-1,1,0,1
1532062132316,2,3,5,1,3,3,4,1
1532062132321,-4,-5,-5,-4,-2,-3,-2,-2
1532062132326,0,0,5,4,1,-2,-1,1
1532062132331,1,0,-1,-6,-4,-1,-1,-2
1532062132336,-1,-1,-11,0,-1,0,-1,-2
1532062132341,-2,-2,11,4,-1,0,1,0
1532062132346,-1,-2,-3,-4,0,-1,-2,-1
1532062132351,-1,0,-5,3,-2,-3,1,-4
1532062132356,1,0,-4,-9,-3,0,-3,-3
1532062132361,-3,-1,-3,4,1,-2,-2,2
1532062132366,0,0,12,0,3,3,1,-2
1532062132371,0,0,-7,3,2,2,2,0
1532062132376,0,0,2,-13,0,-4,-3,0
1532062132381,0,-3,18,16,2,0,-5,0
1532062132386,-1,1,2,0,-3,-1,1,1
1532062132391,0,-2,-6,-6,-3,-3,-1,-2
1532062132396,1,0,0,6,2,-1,-1,0
1532062132401,0,0,-9,-13,-4,-1,0,-2
1532062132406,-1,1,3,6,1,2,1,1
1532062132411,1,2,1,6,1,-1,1,-1
1532062132416,-2,1,2,-4,-4,-2,-3,-1
1532062132421,-2,-2,-5,-11,-1,-2,-2,1
1532062132426,0,-1,-5,8,1,2,1,2
1532062132431,-1,0,5,-13,-2,-3,-2,1
1532062132436,2,0,0,7,0,-1,-2,-2
1532062132441,-2,-1,-4,-1,-1,-1,1,-2
1532062132446,-1,-1,-3,-9,-2,-2,0,-2
1532062132451,-1,-1,-1,-6,-3,-1,-2,2
1532062132456,0,-1,5,8,3,2,1,-1
1532062132461,0,-1,-4,-6,-1,-4,-5,1
1532062132466,0,0,1,-1,-4,2,-2,-2
1532062132471,-3,-1,5,4,0,0,1,-2
1532062132476,0,-2,-11,-4,-1,0,-1,1
1532062132481,-1,-1,-4,6,-2,0,0,-2
1532062132486,-1,0,6,-11,-1,-1,-1,-2
1532062132491,1,0,-1,6,-1,-2,-2,1
1532062132496,-1,-1,-1,0,-2,-1,0,0
1532062132501,-1,0,-1,-1,1,0,4,-1
1532062132506,0,1,1,8,1,-1,0,-2
1532062132511,-1,-2,-1,-4,-3,-5,-4,-2
1532062132516,0,1,-1,3,-3,-1,0,-2
1532062132521,-1,1,-5,-3,2,3,-1,1
1532062132526,-1,0,-2,-2,0,-2,0,0
1532062132531,-1,1,-1,-1,1,0,0,0
1532062132536,-2,-1,-4,-4,-1,-2,-2,-2
1532062132541,-1,-3,0,-1,-2,-1,-2,-2
1532062132546,0,0,2,5,0,1,-1,0
1532062132551,-1,-1,-4,-4,-2,-1,-2,-2
1532062132556,-1,-1,1,3,-3,-2,1,-1
1532062132561,-2,-5,-8,-7,-2,-2,0,-1
1532062132566,0,0,6,0,2,2,-3,-1
1532062132571,-1,-2,-7,-5,0,-1,0,-1
1532062132576,-1,-1,-3,-11,-7,-5,-5,1
1532062132581,-2,-3,0,5,-5,1,0,0
1532062132586,-1,-1,1,3,3,1,-1,2
1532062132591,0,2,2,5,5,2,2,2
1532062132596,-2,1,2,6,6,4,3,-1
1532062132601,0,-2,-7,-15,-6,-5,-1,-3
1532062132606,-1,-2,-4,1,-5,-3,-2,-2
1532062132611,0,0,1,-2,-2,-2,-1,0
1532062132616,1,0,-3,-4,-1,-2,-3,-2
1532062132621,0,0,3,-2,-1,-3,-2,-1
1532062132626,-2,-1,-2,-1,-1,1,3,0
1532062132631,-2,-2,0,0,-1,0,-3,2
1532062132636,-1,-1,-1,0,-2,-1,2,0
1532062132641,1,-1,2,6,1,-1,-4,2
1532062132646,-1,-1,0,-6,-1,-2,-1,-3
1532062132651,-2,-2,-9,1,0,-4,-2,-2
1532062132656,0,-1,14,-4,0,0,-1,-2
1532062132661,1,5,14,7,3,-2,0,0
1532062132666,-1,4,2,-16,-9,-4,1,-4
1532062132671,0,-4,11,18,4,7,-1,5
1532062132676,0,1,17,15,3,3,0,1
1532062132681,-2,-5,-19,-18,-4,-3,-3,-2
1532062132686,2,4,8,-3,-2,1,0,3
1532062132691,-1,0,-5,2,-5,-4,1,-6
1532062132696,-2,-1,-4,8,-1,0,-1,-2
1532062132701,-1,0,12,4,-2,-1,0,-2
1532062132706,0,-4,-7,-3,-1,-2,-1,-2
1532062132711,0,-2,-2,-5,-3,0,-2,-2
1532062132716,-1,-2,-10,-3,2,0,1,2
1532062132721,-3,-1,-6,-1,1,-2,4,0
1532062132726,-4,-2,-6,5,1,3,0,0
1532062132731,-1,-1,2,-6,2,-1,-1,0
1532062132736,0,0,3,11,-2,-8,-5,-5
1532062132741,-3,-3,-17,-13,1,5,1,-1
1532062132746,-1,-1,10,5,-1,1,-1,3
1532062132751,2,9,47,3,-3,-1,6,0
1532062132756,-4,-13,-80,-27,-6,-4,-3,-4
1532062132761,0,3,27,12,4,1,-4,4
1532062132766,0,-4,-13,-6,-4,-5,-3,-1
1532062132771,-3,-4,-14,-39,-10,-3,-3,-2
1532062132776,-1,0,5,9,-4,-2,0,-2
1532062132781,1,1,1,-2,3,1,1,-2
1532062132786,-1,-2,-8,5,3,0,0,-1
1532062132791,-2,-1,1,10,1,-2,-3,-4
1532062132796,0,-1,6,-10,-3,1,4,1
1532062132801,-1,-3,-11,3,0,1,2,-1
1532062132806,-1,2,16,5,0,-2,-7,-1
1532062132811,-1,-5,-18,-3,2,1,7,-1
1532062132816,-1,1,13,4,7,2,-3,-2
1532062132821,1,1,7,13,-10,-2,1,-1
1532062132826,-1,-4,-13,-27,-11,-5,-2,-3
1532062132831,-2,-3,-8,-3,-2,-1,-3,-3
1532062132836,2,2,7,0,-1,5,1,2
1532062132841,-2,-2,0,-1,-1,-2,0,3
1532062132846,0,-3,-12,-23,-4,-3,-1,-1
1532062132851,-2,-1,-5,22,-7,-4,-5,-2
1532062132856,1,1,16,2,6,-1,0,-2
1532062132861,-1,-1,-9,3,3,-8,-7,-2
1532062132866,-2,-2,5,-20,-3,0,-3,-2
1532062132871,-1,1,0,-5,-1,2,1,-1
1532062132876,0,-1,1,5,1,1,0,3
1532062132881,1,1,0,10,3,3,0,-2
1532062132886,-1,-2,-1,22,5,1,3,0
1532062132891,2,2,1,-18,12,-2,-6,0
1532062132896,-1,0,-1,-7,-21,-2,-1,-2
1532062132901,-1,-3,-9,4,-15,1,-1,-2
1532062132906,1,-1,-6,-19,-3,-1,1,-2
1532062132911,0,0,0,6,-6,-3,-1,3
1532062132916,0,0,0,-10,5,-2,-3,0
1532062132921,0,-1,3,3,2,0,-1,-3
1532062132926,0,1,3,26,3,0,0,2
1532062132931,-1,-2,-9,-14,0,0,-1,-3
1532062132936,-4,-4,-3,-20,-4,-3,-3,-3
1532062132941,-1,-1,-5,-5,-1,-8,-4,-2
1532062132946,-1,2,7,16,2,5,5,0
1532062132951,0,0,-4,-11,-7,1,1,-2
1532062132956,0,1,11,29,-12,-7,-2,0
1532062132961,-3,-6,-23,-63,-1,-2,-2,-2
1532062132966,0,-1,-2,22,15,5,-1,5
1532062132971,0,0,9,4,-5,-2,-1,2
1532062132976,1,-1,-9,6,8,0,-1,-2
1532062132981,0,1,12,6,-13,-1,-2,-2
1532062132986,-1,-2,-10,-6,1,-1,-2,0
1532062132991,-2,-3,-6,5,5,0,5,0
1532062132996,0,2,5,-1,3,0,-3,1
1532062133001,-2,-2,-1,10,4,-6,-1,-3
1532062133006,0,0,1,7,7,3,-1,-3
1532062133011,0,-1,-3,5,-8,-2,-1,-1
1532062133016,-1,-2,-4,-14,3,1,2,-1
1532062133021,0,-1,1,-4,-4,1,0,0
1532062133026,-2,1,-3,-16,-10,-4,0,-2
1532062133031,-1,-2,-2,1,1,-2,0,-2
1532062133036,-2,-1,-1,-2,-1,1,-2,0
1532062133041,1,0,2,5,5,3,0,2
1532062133046,-1,1,3,-8,-2,-5,-2,-1
1532062133051,-2,0,-2,-20,-2,1,-1,-3
1532062133056,-1,-3,0,19,14,-2,-2,-2
1532062133061,-1,-2,3,-1,-7,2,0,-1
1532062133066,-1,-1,1,9,1,-1,2,-1
1532062133071,-2,-1,-3,7,-1,0,0,1
1532062133076,-1,1,4,-6,-12,-2,-5,-1
1532062133081,0,-1,-4,-6,27,-1,2,2
1532062133086,0,1,4,6,-9,1,2,-1
1532062133091,1,0,0,0,-6,-4,-2,1
1532062133096,0,-3,-2,8,4,6,1,0
1532062133101,0,0,1,16,3,-3,-2,1
1532062133106,1,0,-1,0,2,-1,-3,-3
1532062133111,-2,-3,-1,8,0,-3,-5,-1
1532062133116,-1,-2,-9,-15,-8,-4,-2,0
1532062133121,-1,0,2,-5,-2,0,7,0
1532062133126,-2,-2,-14,-13,0,3,3,-1
1532062133131,0,-1,4,14,2,1,1,-1
1532062133136,-1,-1,1,-5,-4,-4,-6,-3
1532062133141,-1,-1,-4,10,-3,0,-4,-2
1532062133146,-2,0,6,6,-2,-4,-1,0
1532062133151,-2,-6,-20,-21,-3,0,-3,0
1532062133156,2,2,-3,-16,-4,-1,2,-2
1532062133161,0,-1,4,4,-10,1,2,0
1532062133166,-1,-2,-2,8,4,0,-2,-3
1532062133171,-1,1,6,9,4,-1,-5,0
1532062133176,-1,-2,-3,-4,-2,0,3,-1
1532062133181,-1,-2,-3,-8,-8,-2,-3,-3
1532062133186,1,0,0,-8,11,2,-2,-3
1532062133191,1,1,6,0,-9,0,2,1
1532062133196,0,0,2,9,16,3,1,2
1532062133201,0,1,2,0,-5,3,-2,1
1532062133206,0,-1,0,-3,-6,-2,-1,0
1532062133211,2,0,0,-2,5,1,3,-2
1532062133216,-1,1,0,-1,16,-4,1,0
1532062133221,-1,-1,-1,2,-13,-1,-3,-2
1532062133226,1,0,3,-2,-3,-4,-1,1
1532062133231,0,-1,0,1,0,-4,1,-2
1532062133236,-1,0,-1,0,-10,2,2,1
1532062133241,1,1,-3,-1,15,4,-4,-1
1532062133246,-1,-2,0,-11,-4,-4,5,-1
1532062133251,-1,0,1,16,-2,-3,1,1
1532062133256,-1,-1,0,1,7,3,-4,-1
1532062133261,1,1,-4,-15,-13,-6,0,2
1532062133266,-1,-1,0,2,-5,-2,-2,-2
1532062133271,-1,0,0,-8,5,1,-3,-2
1532062133276,-2,1,3,8,-10,-4,0,-2
1532062133281,-1,-1,1,2,4,2,-1,-2
1532062133286,-1,-1,-4,-1,1,1,-4,-1
1532062133291,-5,-11,0,-5,-4,-1,-2,-4
1532062133296,0,0,3,7,-4,0,2,0
1532062133301,-3,-2,-1,-2,1,-2,1,0
1532062133306,0,3,4,4,0,0,0,2
1532062133311,1,6,-2,2,1,2,1,0
1532062133316,0,2,0,-6,-6,-1,0,-1
1532062133321,0,-3,-3,-1,1,-2,-2,0
1532062133326,0,-2,-3,-4,-3,-5,-4,-2
1532062133331,0,-4,-4,-1,3,4,-2,-1
1532062133336,-1,4,-1,-5,-3,-1,-3,-1
1532062133341,0,11,1,5,3,1,2,0
1532062133346,-4,-9,-1,1,-2,-2,-1,-1
1532062133351,-2,1,5,-2,-2,1,-1,-3
1532062133356,-3,-11,-7,-3,-2,1,0,-4
1532062133361,1,3,0,1,0,0,-1,0
1532062133366,0,4,2,2,-2,-1,-1,-2
1532062133371,4,4,1,-3,0,0,-2,0
1532062133376,0,1,0,-3,-4,-1,-1,-1
1532062133381,0,-7,-2,-1,-1,-1,-1,-2
1532062133386,-1,1,-1,1,2,1,1,1
1532062133391,-1,1,3,-1,-3,-1,0,-1
1532062133396,0,-1,-7,-4,0,2,-1,0
1532062133401,-1,-5,0,9,12,-4,-1,-2
1532062133406,-1,-4,-11,-9,-10,3,0,-1
1532062133411,-1,-4,-3,1,2,0,-1,0
1532062133416,-2,-3,11,0,-6,-2,-1,-2
1532062133421,-1,-1,8,-17,24,2,1,-3
1532062133426,-1,1,-7,6,0,-3,-2,0
1532062133431,-2,-5,1,-1,-15,-1,1,3
1532062133436,-1,-4,-8,17,-1,-7,-3,0
1532062133441,1,5,5,-2,-1,6,1,1
1532062133446,1,2,5,2,8,0,0,-1
1532062133451,-3,-3,-6,0,-2,1,-1,-4
1532062133456,-2,4,-3,-29,-8,-2,-1,-2
1532062133461,-1,-13,0,23,20,0,0,-2
1532062133466,0,6,7,12,-17,0,-2,0
1532062133471,-1,5,-4,-19,-5,-3,1,-1
1532062133476,-1,-5,1,10,2,0,-1,-2
1532062133481,0,7,-6,0,1,-2,-3,-1
1532062133486,-3,-15,-9,-25,4,-2,0,0
1532062133491,-3,-4,-3,11,-7,-7,-5,-1
1532062133496,0,-3,-1,-4,-1,3,3,1
1532062133501,0,8,-4,3,-11,1,0,1
1532062133506,3,5,9,4,2,-3,0,0
1532062133511,1,3,-2,-3,6,1,0,-2
1532062133516,-5,-15,17,-5,0,-2,-1,-4
1532062133521,-5,-16,-22,6,-1,-3,-5,-4
1532062133526,-2,8,14,-8,-26,-2,1,2
1532062133531,5,14,-7,2,5,2,0,3
1532062133536,3,13,14,3,-2,1,-2,4
1532062133541,-3,-16,-4,-9,-13,-5,-2,-2
1532062133546,0,-1,-8,4,14,3,1,-4
1532062133551,-1,0,9,4,1,-3,-5,-4
1532062133556,1,-3,-2,0,1,-1,1,0
1532062133561,0,4,-3,-8,-6,0,0,1
1532062133566,-1,-3,-8,2,3,-2,-2,0
1532062133571,-2,-6,1,-1,-4,-1,1,0
1532062133576,-1,6,-6,2,6,0,-3,-3
1532062133581,-2,5,6,-3,-9,-2,0,0
1532062133586,1,-6,1,-9,-2,-7,-4,-3
1532062133591,2,16,-3,1,4,-2,1,-1
1532062133596,1,-2,13,33,11,12,10,3
1532062133601,-6,-13,-14,-28,-13,-3,-6,2
1532062133606,1,-1,-9,7,3,-3,-1,1
1532062133611,0,5,17,-10,3,2,-4,1
1532062133616,-6,-55,-15,0,-2,-5,-1,-6
1532062133621,1,13,11,5,0,3,2,-2
1532062133626,-1,6,0,12,4,4,1,0
1532062133631,-1,5,-6,-1,-1,-2,-1,-1
1532062133636,2,13,-9,-9,-3,-1,-2,1
1532062133641,1,0,5,5,-6,-2,-1,-1
1532062133646,-4,-14,7,1,5,-1,-3,-4
1532062133651,-3,-9,-16,11,-9,-3,2,-3
1532062133656,1,15,-3,-14,-23,-4,-1,2
1532062133661,1,2,2,-13,-13,0,-4,0
1532062133666,4,17,-2,1,6,9,6,3
1532062133671,-2,-14,18,10,8,-3,-1,3
1532062133676,3,17,3,-1,26,-8,-2,-3
1532062133681,-7,-23,-41,-3,2,13,2,-6
1532062133686,2,1,5,2,-19,-3,-5,3
1532062133691,-1,-4,-1,-17,-8,-2,-1,-1
1532062133696,-2,8,-5,-8,-12,-7,-7,-3
1532062133701,6,16,17,18,34,1,5,2
1532062133706,-5,-22,-14,-3,-13,3,0,-4
1532062133711,-2,-2,-8,-3,3,3,1,1
1532062133716,2,5,7,4,7,0,0,0
1532062133721,-1,8,1,-2,-14,-9,-3,-2
1532062133726,1,9,4,-5,0,-3,-4,0
1532062133731,3,18,8,3,4,1,-1,0
1532062133736,-3,-21,-14,-3,4,7,4,-1
1532062133741,-5,-9,3,3,-6,-1,-4,-2
1532062133746,-4,-3,-2,-6,-6,-7,-3,-1
1532062133751,0,3,-3,0,-8,-10,-3,-1
1532062133756,0,-10,-1,-3,3,4,0,-1
1532062133761,0,-4,2,0,-2,-2,-1,0
1532062133766,0,4,8,4,14,6,1,-1
1532062133771,1,12,0,-2,-1,-1,2,-1
1532062133776,1,10,-1,2,-3,0,1,2
1532062133781,-6,-25,-18,-27,-15,-8,-6,-3
1532062133786,-2,-4,-4,-11,0,-3,-2,-2
1532062133791,0,-9,2,34,9,3,-1,-2
1532062133796,-2,5,-14,-45,-13,-6,-3,0
1532062133801,12,13,7,9,-2,-1,2,0
1532062133806,10,8,-1,14,10,-1,3,3
1532062133811,-27,-16,-3,-21,-1,1,-6,-11
1532062133816,1,6,4,22,-4,0,1,0
1532062133821,-2,1,3,3,-2,-3,-2,1
1532062133826,-2,-4,-2,-7,3,0,-1,-1
1532062133831,4,-6,-6,3,3,2,2,1
1532062133836,3,2,-2,6,-1,0,-1,1
1532062133841,-4,5,8,2,0,-4,-1,-1
1532062133846,-6,-6,-6,1,-8,-3,-3,-2
1532062133851,2,-5,-2,-1,8,-2,-2,0
1532062133856,-5,7,-9,-17,-19,0,-2,-2
1532062133861,5,-13,5,-7,-13,0,-1,3
1532062133866,-4,-6,-3,-7,-12,-5,1,-4
1532062133871,4,-18,-9,-8,3,0,-2,0
1532062133876,-2,-8,2,5,5,-2,1,-4
1532062133881,-6,1,1,8,6,3,9,0
1532062133886,4,20,5,7,35,3,-1,1
1532062133891,-4,-30,-6,-4,-10,2,-4,-2
1532062133896,4,12,3,3,-5,-4,-3,2
1532062133901,0,5,3,2,-5,-2,-3,-1
1532062133906,-2,0,-1,-7,-1,-2,-1,-3
1532062133911,6,17,4,5,5,-2,0,2
1532062133916,-3,-10,-6,0,-3,0,-3,-2
1532062133921,1,5,-3,-3,0,-2,1,-1
1532062133926,-6,-25,15,11,4,2,-2,1
1532062133931,1,6,-3,-26,-9,-3,-1,0
1532062133936,-1,-1,5,22,-1,-1,0,-1
1532062133941,1,9,1,-19,8,1,-1,-1
1532062133946,-3,1,-8,-18,-10,-2,-2,2
1532062133951,-1,0,2,9,-5,-1,3,1
1532062133956,-1,-1,-2,-3,2,-2,0,0
1532062133961,2,3,-6,-5,3,0,1,-2
1532062133966,-3,-3,3,12,-6,-1,-6,-3
1532062133971,0,-6,-12,-2,-1,1,1,-1
1532062133976,3,31,11,-3,11,-1,-2,-1
1532062133981,-4,-25,8,19,9,1,-1,-4
1532062133986,-2,-21,-23,-27,-29,5,-1,1
1532062133991,5,20,19,6,-3,-4,1,4
1532062133996,-9,-33,-7,-13,-24,-2,-2,-5
1532062134001,4,28,10,-6,-5,-4,-4,-1
1532062134006,0,10,-12,7,12,-9,0,-3
1532062134011,0,-10,-4,-3,14,15,4,2
1532062134016,3,11,-2,2,3,-2,-2,3
1532062134021,2,3,5,3,-5,3,5,2
1532062134026,-4,-4,-5,-1,2,-5,-5,-7
1532062134031,0,7,0,1,0,-4,-3,-4
1532062134036,-3,-5,1,-1,9,3,-2,-6
1532062134041,-4,-11,-8,12,30,2,3,-3
1532062134046,3,16,11,-3,-36,5,6,5
1532062134051,0,5,-3,-14,1,-4,0,0
1532062134056,-3,-13,3,20,-3,5,-4,4
1532062134061,-1,-13,-12,-9,1,-3,-1,0
1532062134066,3,8,2,0,11,-5,-1,4
1532062134071,-3,-8,-6,-15,-15,-7,-6,-6
1532062134076,2,8,-9,-12,2,-2,-1,-5
1532062134081,-3,0,8,8,-2,2,-4,3
1532062134086,23,-1,-3,1,6,0,6,5
1532062134091,-52,-15,-7,-5,-8,-2,-1,-8
1532062134096,-3,4,29,3,4,-3,0,-2
1532062134101,-5,-6,-31,7,-7,-4,-7,-3
1532062134106,-2,-7,-5,-11,3,2,3,-2
1532062134111,14,7,-5,8,-1,-4,-1,2
1532062134116,0,-11,-17,-6,5,1,-1,-1
1532062134121,-7,0,8,-3,-11,-4,-2,-3
1532062134126,-6,2,1,5,-1,1,-5,-4
1532062134131,10,2,10,13,9,2,0,0
1532062134136,-5,-6,-11,-7,-4,-2,1,0
1532062134141,8,6,3,-6,-8,-3,0,-2
1532062134146,-6,-2,-3,9,8,-1,-2,-2
1532062134151,4,-2,-2,-4,-4,-3,-1,0
1532062134156,2,-1,-3,0,-3,0,0,0
1532062134161,-1,-1,-1,1,0,2,0,0
1532062134166,-4,1,6,-9,-17,-4,0,-1
1532062134171,3,-5,-4,2,0,-2,0,-2
1532062134176,-1,0,-7,-4,-3,-2,-3,-1
1532062134181,0,-2,6,3,7,-3,-3,-1
1532062134186,-4,-1,3,4,13,-4,-2,-5
1532062134191,7,1,14,6,5,6,2,4
1532062134196,1,1,-1,-2,-5,-2,-2,2
1532062134201,-2,4,-1,-5,-4,0,0,-4
1532062134206,-2,-3,-1,-3,-6,-5,-2,-6
1532062134211,1,-8,-21,0,1,-3,0,-2
1532062134216,1,2,0,4,8,1,-3,3
1532062134221,-3,-5,-5,-3,-4,-1,1,1
1532062134226,-1,-6,-11,-1,1,1,2,0
1532062134231,3,3,24,5,2,-1,0,0
1532062134236,1,1,-16,0,-1,0,0,-2
1532062134241,0,-5,26,-6,-10,-4,-4,0
1532062134246,-2,2,0,3,6,1,-4,0
1532062134251,0,-2,-9,-2,-2,2,5,0
1532062134256,-2,-13,-1,0,0,-2,-3,-4
1532062134261,1,25,2,-3,-5,-3,2,2
1532062134266,-1,-15,3,2,8,4,4,1
1532062134271,-3,-5,-10,-4,-5,-4,-5,-4
1532062134276,-2,2,0,0,-2,0,1,-2
1532062134281,-2,-17,-8,1,1,-1,0,-3
1532062134286,-2,10,5,0,-6,0,-3,0
1532062134291,4,6,2,5,8,7,3,1
1532062134296,1,7,2,-3,2,1,-1,-1
1532062134301,0,8,-2,-1,-2,3,0,0
1532062134306,0,-4,4,0,-4,-4,0,-2
1532062134311,-3,-14,-9,-3,-6,-5,-7,-2
1532062134316,0,-5,1,-1,-2,-2,0,-1
1532062134321,1,4,-4,0,3,2,-2,1
1532062134326,1,-1,1,2,-3,-3,0,-1
1532062134331,0,6,-12,-2,5,0,-2,-2
1532062134336,-1,6,28,-2,-2,-2,-1,1
1532062134341,1,-5,-21,-3,0,1,-2,-3
1532062134346,-1,-8,11,3,10,4,1,2
1532062134351,0,4,-4,24,-3,-4,-6,-3
1532062134356,-3,-16,-15,-7,-7,-4,-3,-1
1532062134361,-2,1,-1,0,0,2,0,-2
1532062134366,-1,7,-3,-4,-5,-5,0,-1
1532062134371,1,15,13,7,1,1,0,1
1532062134376,0,-23,-4,1,3,3,2,-1
1532062134381,-3,-11,-4,-1,-1,-2,-2,-1
1532062134386,-2,-1,-8,5,13,-3,-5,-3
1532062134391,0,-8,-2,-13,-10,1,5,3
1532062134396,-1,12,4,3,-5,-4,-3,-2
1532062134401,-1,-1,-2,-6,1,1,-1,0
1532062134406,0,4,0,-2,-2,4,0,1
1532062134411,-1,-15,-2,-8,2,-9,-2,-2
1532062134416,-1,0,-5,-3,2,3,-4,-1
1532062134421,0,4,8,10,0,-1,0,2
1532062134426,-2,-1,-12,-6,-1,-3,-3,-3
1532062134431,-3,-8,12,-9,-7,0,-4,-2
1532062134436,-2,1,-8,-2,2,-3,1,2
1532062134441,3,5,-1,6,-2,-2,3,2
1532062134446,0,9,12,-4,-6,1,2,-1
1532062134451,-1,-12,-3,-8,0,1,-1,0
1532062134456,-3,-11,-15,-6,-3,-3,-3,-2
1532062134461,-1,11,10,4,2,-3,-3,-4
1532062134466,0,5,0,4,0,2,-1,0
1532062134471,-1,-1,-7,-5,-3,0,0,1
1532062134476,1,8,11,9,5,3,2,1
1532062134481,0,-6,-5,-10,-2,-4,-3,-1
1532062134486,-4,-2,4,2,-2,1,1,-3
1532062134491,4,4,-4,17,2,0,-1,-4
1532062134496,-3,4,-1,-1,-11,-4,-4,0
1532062134501,1,-3,1,-1,1,1,0,0
1532062134506,0,1,-5,-1,-1,1,0,0
1532062134511,-4,-9,4,-4,5,1,-2,-1
1532062134516,0,7,4,-1,-1,-1,1,-3
1532062134521,0,3,2,1,-1,0,1,-1
1532062134526,-4,-42,-9,-2,-6,-4,-4,-3
1532062134531,2,9,-1,-1,-1,1,3,-2
1532062134536,3,8,0,-2,4,2,-1,-1
1532062134541,-2,-3,0,-3,-2,-1,0,-3
1532062134546,2,11,-2,-5,-1,1,1,-1
1532062134551,-2,4,-5,-8,-7,-4,-3,1
1532062134556,-1,-8,9,3,2,-2,0,-2
1532062134561,-2,0,-3,3,-1,0,-4,-1
1532062134566,0,-1,-18,-5,0,-1,-2,0
1532062134571,-2,-3,-3,-3,-4,-2,1,-1
1532062134576,1,12,29,5,4,1,0,-1
1532062134581,-4,-11,-30,-14,-7,-7,-1,0
1532062134586,2,11,16,6,-5,-1,-2,1
1532062134591,-2,-2,-3,0,5,4,0,-1
1532062134596,1,-4,-18,-1,1,1,1,1
1532062134601,-1,-2,13,0,-1,1,-1,-2
1532062134606,-2,6,6,-1,-5,-4,0,-1
1532062134611,-4,-9,-13,-6,-3,-3,-1,0
1532062134616,-4,-8,-10,1,2,1,1,-2
1532062134621,3,0,4,3,-4,-1,1,0
1532062134626,-2,-2,-20,-26,-6,-5,-4,-5
1532062134631,5,21,65,10,6,9,6,2
1532062134636,-1,-16,-94,-17,-3,-2,0,-1
1532062134641,13,7,39,15,4,1,-3,-15
1532062134646,3,19,-1,-7,1,-2,0,14
1532062134651,10,-16,2,6,-3,-5,-4,-2
1532062134656,7,10,-25,-20,-4,6,10,-4
1532062134661,5,-20,8,-11,-2,-2,-8,7
1532062134666,-20,-5,30,5,1,0,1,-6
1532062134671,-18,16,-20,-10,3,1,-5,-2
1532062134676,-4,-15,39,10,-3,-4,-2,-1
1532062134681,5,-6,-28,-6,-4,-1,0,0
1532062134686,3,1,-10,-7,1,-2,2,-5
1532062134691,0,1,5,18,-4,1,-2,5
1532062134696,-5,2,8,-4,-3,-3,-5,-1
1532062134701,-11,-8,-1,-3,-1,2,2,2
1532062134706,6,-10,-25,6,2,0,-2,-1
1532062134711,1,4,-8,-8,-2,-3,4,-2
1532062134716,3,4,11,-1,1,0,-4,-1
1532062134721,-7,5,-8,3,0,-1,-1,-2
1532062134726,0,-4,5,7,11,-2,-4,-2
1532062134731,1,-9,-5,-5,3,2,0,-4
1532062134736,-3,3,-5,-11,-7,1,1,2
1532062134741,-3,0,-17,4,2,1,2,2
1532062134746,-4,-5,-2,-6,-5,0,0,-3
1532062134751,-3,0,13,-4,0,-5,-5,-1
1532062134756,0,1,33,10,-2,-5,-6,-2
1532062134761,-2,6,10,5,4,0,0,0
1532062134766,3,-2,-9,2,-1,5,6,0
1532062134771,0,0,-30,-8,0,4,1,0
1532062134776,0,2,24,0,4,1,5,0
1532062134781,2,3,11,-7,-4,-5,-3,2
1532062134786,-1,0,22,4,-9,-5,-8,3
1532062134791,-6,-14,-46,-20,-10,-6,0,0
1532062134796,-1,3,-7,3,2,0,0,0
1532062134801,-2,3,11,-3,1,-3,1,-2
1532062134806,1,-3,-2,6,0,0,-1,1
1532062134811,0,2,3,2,-3,-2,-4,-2
1532062134816,1,-2,-12,2,3,0,2,-1
1532062134821,-3,1,-12,-6,2,0,-2,-1
1532062134826,0,0,8,-1,-11,-2,-1,-4
1532062134831,0,-1,-6,9,1,-2,-2,-3
1532062134836,0,1,16,6,1,-1,-6,1
1532062134841,-7,-1,4,8,4,7,9,-4
1532062134846,-3,-9,-19,-14,-3,-3,12,-6
1532062134851,1,2,-2,-9,4,-2,-4,-3
1532062134856,6,10,28,17,5,7,17,7
1532062134861,-2,-5,-46,-36,4,6,17,-4
1532062134866,-1,-1,0,18,2,-3,-4,-5
1532062134871,-1,-1,5,-11,-13,-4,-13,2
1532062134876,-2,-3,-6,-5,-3,-4,-3,1
1532062134881,1,-2,7,8,-8,-4,-3,1
1532062134886,0,2,3,20,4,0,-7,-2
1532062134891,2,2,17,5,4,0,13,-1
1532062134896,-2,-4,-11,-15,-8,-3,-10,-4
1532062134901,-2,-4,0,22,-6,-5,-16,2
1532062134906,2,2,-1,-19,1,2,1,1
1532062134911,5,5,17,-15,13,0,20,5
1532062134916,1,2,-1,18,2,2,8,-1
1532062134921,-5,-6,-11,-30,-18,-9,-3,-6
1532062134926,7,4,5,-8,8,0,-30,6
1532062134931,-4,-1,4,45,-7,4,13,-4
1532062134936,-7,-8,-17,-45,-8,-5,-4,0
1532062134941,2,3,4,-34,10,4,-2,3
1532062134946,1,1,-8,-16,-1,1,15,-11
1532062134951,-8,-6,16,74,-17,-13,-18,-1
1532062134956,3,3,1,6,15,3,-2,0
1532062134961,1,1,1,29,-6,-1,-2,2
1532062134966,-1,-3,-6,-37,1,0,-1,3
1532062134971,2,3,1,-26,5,4,-3,-5
1532062134976,0,14,0,27,-14,-7,-1,-5
1532062134981,-1,-19,7,1,4,0,1,0
1532062134986,9,16,1,41,13,6,19,-1
1532062134991,-23,7,-10,-46,-11,-5,-30,-3
1532062134996,-1,-40,-2,34,8,-2,-6,4
1532062135001,-5,-3,-12,-79,-7,0,9,-9
1532062135006,-6,-8,-8,25,-20,-5,9,-4
1532062135011,4,3,6,32,14,5,21,8
1532062135016,7,18,7,-9,4,-3,-14,-6
1532062135021,3,14,9,11,7,4,-4,-5
1532062135026,-4,-17,6,-10,-2,2,13,-3
1532062135031,2,13,-10,-28,0,-5,-30,-2
1532062135036,1,-4,-3,-45,-2,4,15,3
1532062135041,0,-5,11,87,6,-4,9,6
1532062135046,-6,3,-10,-21,-19,-9,-29,-9
1532062135051,9,15,4,5,-2,-2,0,4
1532062135056,6,-6,-1,-40,0,4,4,-6
1532062135061,-20,-46,-8,11,6,0,0,-2
1532062135066,-3,-15,-3,-30,1,5,19,5
1532062135071,-3,-15,0,29,5,2,19,-7
1532062135076,13,14,-6,6,-12,-6,-25,1
1532062135081,-3,44,17,26,4,-4,-25,0
1532062135086,1,-3,7,18,4,1,1,2
1532062135091,13,-33,-6,-34,8,5,15,-4
1532062135096,-37,1,-1,70,8,-4,-25,-5
1532062135101,11,6,-24,-48,-21,-3,8,3
1532062135106,-4,15,3,20,-3,-2,-14,-4
1532062135111,-2,5,-3,-11,-5,-3,-12,-6
1532062135116,3,1,6,81,7,1,24,4
1532062135121,-2,-10,-4,-42,-6,-1,-3,-1
1532062135126,2,0,0,15,-2,-4,-11,2
1532062135131,5,17,0,-36,3,8,10,-2
1532062135136,-5,0,-11,-38,-3,-2,3,-8
1532062135141,16,13,2,39,15,3,8,2
1532062135146,-30,-54,-11,-43,-20,-9,1,1
1532062135151,-8,7,6,18,2,0,-13,-5
1532062135156,-1,-7,7,18,15,2,-5,-1
1532062135161,-7,6,-18,-81,-38,-6,-6,0
1532062135166,8,8,5,-6,7,2,4,3
1532062135171,-3,-13,-2,59,8,-9,6,8
1532062135176,-8,-7,-16,-42,-16,-3,-26,0
1532062135181,17,29,40,4,14,10,17,4
1532062135186,-6,-26,-23,-7,-3,-1,0,-1
1532062135191,-6,7,-18,30,0,-5,-5,1
1532062135196,24,8,20,-83,-15,-3,7,10
1532062135201,-31,-14,-24,23,-4,-5,17,-28
1532062135206,6,20,5,14,8,2,-27,0
1532062135211,1,-6,5,-16,-7,2,0,2
1532062135216,4,10,-16,-5,-1,-2,5,4
1532062135221,-2,-12,9,11,10,1,-3,5
1532062135226,-4,8,5,-2,3,-1,4,-1
1532062135231,4,0,-7,-9,-5,-3,-8,-2
1532062135236,1,1,4,25,1,4,16,1
1532062135241,2,-11,1,4,0,1,4,5
1532062135246,13,10,-3,9,-1,0,-14,14
1532062135251,5,2,10,2,3,2,12,-4
1532062135256,-4,4,-2,-39,-2,-3,-1,-4
1532062135261,8,-55,-5,69,2,-1,-3,5
1532062135266,-1,3,0,4,-6,0,4,-1
1532062135271,1,-7,0,-10,-6,-6,-7,3
1532062135276,-3,0,7,28,1,-1,-1,3
1532062135281,0,7,-7,-32,10,1,-4,-6
1532062135286,0,3,16,19,1,-6,-10,-7
1532062135291,1,0,0,-24,-10,-1,-3,-2
1532062135296,-8,-2,-5,34,23,5,12,-5
1532062135301,31,20,2,20,-5,-4,-17,10
1532062135306,-23,-6,-5,-30,-3,1,8,-6
1532062135311,-26,-9,-2,-17,-3,-1,0,0
1532062135316,-9,-11,0,-7,-10,-2,-12,-9
1532062135321,1,9,-5,9,2,-3,-1,7
1532062135326,9,2,2,-4,2,0,-5,2
1532062135331,0,-42,-3,-1,3,1,-8,-9
1532062135336,0,-3,-2,1,-4,-4,16,1
1532062135341,-14,4,1,-10,-7,-7,-27,-13
1532062135346,5,11,4,8,9,4,-3,-8
1532062135351,-1,19,5,22,5,2,-8,-1
1532062135356,10,-21,-11,10,-10,-1,-11,-4
1532062135361,-5,-5,-3,-6,2,-4,-1,14
1532062135366,3,7,0,15,3,6,26,-7
1532062135371,2,5,10,-8,-2,-2,11,-4
1532062135376,-7,-11,-11,-2,-17,-7,-8,4
1532062135381,-5,13,11,31,9,4,8,1
1532062135386,-5,-9,-11,-49,-9,-2,3,2
1532062135391,13,10,-17,-10,2,-2,3,3
1532062135396,1,13,21,-30,3,1,2,-1
1532062135401,-7,-8,2,15,-6,-1,-2,-7
1532062135406,1,6,10,35,12,-3,-2,0
1532062135411,2,3,2,10,-2,2,3,-1
1532062135416,-5,-23,-10,0,11,0,-6,-4
1532062135421,-2,-2,0,-37,-17,-3,0,-7
1532062135426,0,5,1,10,7,0,-13,0
1532062135431,0,10,-2,-4,-7,1,0,2
1532062135436,1,-14,-1,-2,0,-1,-1,-1
1532062135441,-8,6,-1,-22,7,-1,-13,-9
1532062135446,2,-3,-9,12,1,-2,6,3
1532062135451,-2,-6,-3,-25,-13,-4,-7,2
1532062135456,0,15,0,3,2,0,8,-5
1532062135461,1,1,-2,-13,-12,-2,-6,-1
1532062135466,0,-5,0,-11,-3,-4,-3,3
1532062135471,1,-2,3,10,10,2,2,0
1532062135476,-2,0,-7,-42,-15,-5,-3,0
1532062135481,-5,-2,2,36,12,2,3,0
1532062135486,9,2,3,-8,11,2,8,1
1532062135491,0,-3,4,-15,-16,-1,5,4
1532062135496,-2,6,-3,-7,-7,-3,-8,1
1532062135501,2,-2,1,14,16,3,-5,0
1532062135506,-1,8,-9,-3,-7,0,4,0
1532062135511,-2,-19,0,8,15,3,0,-5
1532062135516,1,7,-1,18,-7,-2,-3,3
1532062135521,1,4,1,3,1,0,4,1
1532062135526,0,-4,4,0,-9,-2,-1,1
1532062135531,-2,8,-3,21,-4,-5,-9,0
1532062135536,1,9,3,-7,3,2,8,-1
1532062135541,7,-19,-7,-21,6,3,1,-4
1532062135546,-2,-5,-3,26,-11,-2,-1,1
1532062135551,-3,0,2,-13,-2,-3,-3,0
1532062135556,-2,36,8,36,13,1,-8,-4
1532062135561,-2,7,-7,-54,-7,-4,0,1
1532062135566,1,-12,-5,12,-5,-5,-12,-8
1532062135571,-1,1,-3,-26,-2,1,1,-2
1532062135576,-1,-12,2,35,7,1,2,-2
1532062135581,-1,14,2,-14,-12,-5,-15,2
1532062135586,-3,-5,-2,-37,-8,-4,0,-4
1532062135591,-4,1,-12,2,-5,-2,-7,0
1532062135596,0,-3,8,17,7,4,-4,-2
1532062135601,2,-1,-5,-7,2,4,2,-2
1532062135606,-1,-10,4,2,4,-1,3,2
1532062135611,4,15,6,-7,1,-2,-1,2
1532062135616,-3,-20,-7,-12,-15,-4,4,2
1532062135621,-3,-2,-1,18,-2,-2,1,-3
1532062135626,6,3,-7,-43,-1,0,0,0
1532062135631,0,-3,-1,12,11,5,4,-2
1532062135636,0,5,0,-3,-2,0,1,0
1532062135641,-4,-7,1,-1,-4,-2,1,-2
1532062135646,-4,-2,-9,22,4,1,3,-1
1532062135651,-1,-1,10,14,-1,-3,1,1
1532062135656,-7,-5,-11,6,2,0,-8,-2
1532062135661,11,4,25,-4,-8,-4,-2,3
1532062135666,0,4,-13,4,6,0,-7,3
1532062135671,-2,7,12,-5,2,5,-3,-9
1532062135676,-2,-10,-15,-27,-7,-3,5,-1
1532062135681,-3,-1,5,31,6,5,7,-9
1532062135686,1,5,8,-9,-2,0,1,10
1532062135691,1,-1,-14,-42,-5,-3,1,1
1532062135696,-2,-4,10,49,0,-4,2,-3
1532062135701,-2,-9,-10,-1,12,3,10,-1
1532062135706,-7,3,10,76,2,-8,-8,-5
1532062135711,1,-1,-1,19,-2,1,1,3
1532062135716,3,10,5,-4,1,-1,-6,-1
1532062135721,-3,-8,-12,-25,-8,-3,-3,2
1532062135726,-4,-7,4,-27,3,5,11,-10
1532062135731,-2,-5,-6,-4,-3,-4,4,12
1532062135736,2,13,0,-16,1,1,-4,-4
1532062135741,-10,3,-4,3,-6,1,19,8
1532062135746,12,-4,-1,-19,-6,-4,-26,-3
1532062135751,-7,-14,-5,15,5,-4,2,-2
1532062135756,-3,8,-7,-25,-8,-2,0,-3
1532062135761,-3,1,4,7,0,0,4,-1
1532062135766,-2,8,4,-12,2,1,0,2
1532062135771,1,-1,0,13,7,2,7,-2
1532062135776,0,-10,-3,6,-9,0,-2,2
1532062135781,-3,1,-13,3,-8,-8,-7,6
1532062135786,-2,6,11,-2,-5,-1,-6,-18
1532062135791,2,-13,-6,-7,0,-1,-7,-4
1532062135796,0,-1,8,1,3,3,8,1
1532062135801,0,-1,-15,-33,-7,-2,-9,-1
1532062135806,2,10,-1,11,17,5,11,6
1532062135811,0,2,-6,-4,-17,-2,6,-2
1532062135816,-1,-25,8,19,11,0,-9,-2
1532062135821,0,13,3,6,-2,-5,-26,-1
1532062135826,-4,0,-4,-8,-3,-2,12,5
1532062135831,-2,-4,4,2,11,3,-13,-14
1532062135836,1,10,-8,-29,-13,-2,3,-1
1532062135841,0,-3,4,48,1,-5,-10,-2
1532062135846,-4,-7,-5,-16,-6,0,-1,-3
1532062135851,-3,-1,-2,-17,-1,-1,-2,6
1532062135856,8,1,7,-2,3,-2,-2,3
1532062135861,2,8,-7,-12,10,3,11,-4
1532062135866,-2,-8,16,40,-11,0,-1,2
1532062135871,-2,-4,11,2,0,-2,-11,1
1532062135876,-2,8,-5,-14,0,3,-2,-3
1532062135881,0,1,0,-40,1,2,5,4
1532062135886,-5,2,5,48,2,-1,-3,-14
1532062135891,4,3,-2,-3,-2,1,-8,-3
1532062135896,-4,-5,-5,1,1,-2,-1,0
1532062135901,3,-9,5,-16,4,5,4,-1
1532062135906,-2,2,-12,-16,-6,-5,-6,3
1532062135911,-3,-3,-4,-17,-12,-2,4,-1
1532062135916,-1,-2,-5,2,-1,-2,-3,-5
1532062135921,-1,-4,-2,16,-3,1,-1,1
1532062135926,2,3,2,-5,12,3,2,5
1532062135931,0,9,-9,-18,-16,-5,5,0
1532062135936,-3,-25,-4,-21,-7,3,9,2
1532062135941,0,3,3,13,4,2,1,-2
1532062135946,-1,11,-2,-13,-11,-5,-1,2
1532062135951,-2,-26,4,16,10,-2,7,-3
1532062135956,-4,-2,-4,0,-4,-2,1,2
1532062135961,1,2,4,22,-1,-2,-3,-2
1532062135966,-1,-8,-6,-19,-1,-1,1,0
1532062135971,2,8,1,-5,-2,0,-3,0
1532062135976,0,-4,-6,-11,4,-1,-7,-2
1532062135981,-2,-11,7,48,-2,-5,-3,4
1532062135986,-1,-4,-5,-29,-12,0,3,1
1532062135991,2,15,-2,-5,5,0,1,0
1532062135996,-2,-11,0,-9,-2,0,-1,3
1532062136001,1,9,-7,-24,-13,-4,2,-1
1532062136006,1,4,5,4,7,2,-1,-1
1532062136011,-5,-9,-2,16,-1,0,-2,0
1532062136016,-3,-10,-1,3,8,-2,-2,-4
1532062136021,1,-2,6,10,3,-1,-2,2
1532062136026,-2,-9,-5,-4,0,1,8,11
1532062136031,0,8,1,13,2,0,-3,-13
1532062136036,2,10,-2,-30,-4,0,-2,1
1532062136041,-2,-13,-7,3,-6,-3,-10,-9
1532062136046,0,-9,2,7,9,0,13,7
1532062136051,-1,8,-6,-25,-9,-3,-12,4
1532062136056,-6,-12,-4,16,2,-4,-15,-2
1532062136061,7,11,1,-5,9,-1,-4,-7
1532062136066,-1,10,-2,6,-12,-2,-15,-3
1532062136071,-2,-16,-8,-34,-3,-3,4,2
1532062136076,1,25,7,16,-1,-2,5,-2
1532062136081,-1,-15,-1,-6,2,4,6,1
1532062136086,-2,-12,-1,0,7,0,-8,-5
1532062136091,-1,11,-2,23,0,-1,5,5
1532062136096,1,9,10,-26,-4,0,1,-2
1532062136101,-9,-16,-2,36,16,0,3,0
1532062136106,6,-2,-9,-22,-19,-4,-4,-3
1532062136111,1,8,2,1,-4,0,1,-2
1532062136116,0,-15,-4,5,-1,-3,-5,-2
1532062136121,0,7,2,-8,-2,-1,-1,0
1532062136126,-1,4,-4,-39,-7,-3,6,4
1532062136131,-5,-19,-7,13,9,8,8,-19
1532062136136,0,3,-3,12,-8,-4,-11,-1
1532062136141,-1,6,1,-15,-10,-2,-2,-2
1532062136146,-4,0,-3,1,12,3,-4,-6
1532062136151,0,12,3,-7,-12,-6,-1,6
1532062136156,-1,6,0,32,9,0,1,0
1532062136161,-1,-6,-3,-24,-19,0,-1,-1
1532062136166,-2,17,4,8,7,3,14,0
1532062136171,10,-10,0,-6,-4,-2,-12,3
1532062136176,-2,1,2,10,3,-1,5,-4
1532062136181,0,12,2,-6,-6,-4,5,1
1532062136186,0,-9,4,18,4,-1,-1,-4
1532062136191,-9,-20,-3,-3,-1,-3,-1,2
1532062136196,0,3,-9,8,-4,-1,1,2
1532062136201,1,10,-2,-12,0,-1,-9,-3
1532062136206,-2,-3,0,-28,4,4,4,-1
1532062136211,-3,-1,-3,58,1,-6,-3,-3
1532062136216,1,8,2,-23,-14,-4,-8,2
1532062136221,-2,-14,-4,0,-1,1,-4,0
1532062136226,-1,1,1,4,-3,-5,-7,-4
1532062136231,-1,-10,1,-14,2,3,-6,4
1532062136236,-1,-4,-1,3,2,3,12,-2
1532062136241,-2,7,-1,5,-1,-2,-2,-3
1532062136246,1,1,-5,8,-2,0,-3,0
1532062136251,-2,-5,4,9,15,-1,-5,3
1532062136256,-3,3,-3,-9,-20,-1,-4,-3
1532062136261,1,-8,-2,-24,-1,-2,-2,-1
1532062136266,1,2,6,53,8,1,5,0
1532062136271,-3,2,-9,-12,-14,-4,-1,-2
1532062136276,-2,-2,-1,-18,8,-1,3,0
1532062136281,1,4,4,31,6,0,3,2
1532062136286,-2,0,-16,-29,-21,-6,-8,-3
1532062136291,-1,-17,0,10,2,-1,2,6
1532062136296,-4,3,2,14,15,3,6,2
1532062136301,1,2,2,-2,0,-1,1,0
1532062136306,-1,-10,2,-8,-5,-1,3,11
1532062136311,0,5,-3,-11,-8,1,-2,-14
1532062136316,-1,8,0,-19,-7,-5,0,-2
1532062136321,-1,-12,-8,-12,2,2,-3,-5
1532062136326,0,5,7,13,3,-3,-5,-1
1532062136331,-1,11,6,18,5,0,-9,4
1532062136336,3,-8,-2,16,2,1,-4,-3
1532062136341,2,13,4,5,5,3,6,-1
1532062136346,-3,-22,-13,-11,-9,-2,-14,-4
1532062136351,0,32,3,4,12,1,12,2
1532062136356,-1,-23,-1,-4,-8,-1,3,-1
1532062136361,-1,1,0,-2,-6,-6,-17,-2
1532062136366,-1,-4,2,6,9,1,8,1
1532062136371,2,-3,0,-22,-7,1,7,-5
1532062136376,-3,-7,-4,11,10,2,5,1
1532062136381,2,0,-3,-21,-12,1,18,13
1532062136386,-2,-3,6,27,12,2,-2,-22
1532062136391,-2,-9,-8,-31,-15,-6,-2,0
1532062136396,0,12,3,6,8,-2,4,-2
1532062136401,-2,-6,0,23,-2,0,1,-4
1532062136406,-4,-5,-5,-12,-19,-8,13,9
1532062136411,-1,-5,1,-9,0,1,-20,0
1532062136416,4,1,0,5,-5,0,4,-6
1532062136421,-1,-1,-2,6,11,2,-3,-3
1532062136426,3,5,-3,-3,-1,1,2,2
1532062136431,-3,2,13,10,1,0,5,-4
1532062136436,0,0,-1,5,5,3,-5,5
1532062136441,-1,4,2,0,-11,-4,3,-1
1532062136446,-4,-13,-1,15,0,-4,-1,3
1532062136451,0,-10,-5,-10,-6,-4,1,-1
1532062136456,-2,4,-7,-9,1,0,-3,0
1532062136461,-1,0,2,2,1,-2,-3,-2
1532062136466,-1,-2,2,2,-4,1,-7,-5
1532062136471,0,2,-6,-40,-2,2,-6,4
1532062136476,0,1,7,30,1,-3,-9,-13
1532062136481,0,9,-5,-15,-1,1,-1,-4
1532062136486,-3,-4,-2,2,5,-3,-3,-3
1532062136491,3,6,5,-1,-6,0,4,-1
1532062136496,-2,4,-2,-20,-11,-1,15,3
1532062136501,-2,-12,-7,-5,-3,-3,-19,-8
1532062136506,0,2,2,-1,-3,0,-3,2
1532062136511,0,3,0,33,13,0,1,3
1532062136516,0,-3,-7,1,-1,3,1,4
1532062136521,-1,9,7,7,-4,0,4,2
1532062136526,3,3,2,-9,4,0,6,-1
1532062136531,-5,-31,-12,-13,-8,-5,8,-1
1532062136536,-3,16,6,1,3,-5,-24,-3
1532062136541,2,5,0,6,11,3,15,0
1532062136546,2,16,-4,-39,-10,2,-10,-6
1532062136551,-3,-19,1,49,15,1,-2,1
1532062136556,-5,-7,-1,-18,-5,-2,0,-3
1532062136561,11,-6,-2,-4,-6,-4,-7,3
1532062136566,1,7,1,-1,7,1,-2,3
1532062136571,2,15,-1,-17,-12,1,5,-3
1532062136576,3,-2,-2,-4,4,4,-1,-1
1532062136581,-12,-2,-6,-5,-5,-5,-14,0
1532062136586,2,0,-1,10,2,0,-4,2
1532062136591,2,13,0,-6,1,2,12,-4
1532062136596,-1,-14,2,38,8,2,5,0
1532062136601,-1,1,-9,-87,-22,-3,5,15
1532062136606,0,-7,1,20,10,2,5,-14
1532062136611,-4,1,1,0,2,3,-16,3
1532062136616,1,-5,0,-13,-8,-2,-11,-1
1532062136621,-1,-8,-1,27,11,0,4,-1
1532062136626,-2,2,-7,4,-3,-3,3,4
1532062136631,1,8,4,-11,-16,-4,1,-2
1532062136636,-1,-5,-9,-15,0,-3,4,1
1532062136641,-3,0,-2,9,2,0,-10,-5
1532062136646,-1,1,0,-11,1,1,8,0
1532062136651,-3,0,2,20,2,-3,3,-5
1532062136656,-2,-15,-6,-40,-12,-5,0,3
1532062136661,-2,-19,-5,2,3,4,5,-5
1532062136666,-4,13,2,-3,-1,-1,-8,-3
1532062136671,1,-7,0,-1,0,-2,2,4
1532062136676,0,11,3,5,5,3,12,-2
1532062136681,-3,-4,2,8,-3,-4,-17,-6
1532062136686,-1,-4,0,11,12,1,-2,2
1532062136691,-1,14,3,11,-4,1,1,-1
1532062136696,-1,-10,-4,-6,-7,-4,6,4
1532062136701,0,4,0,2,6,2,-4,-13
1532062136706,-1,1,3,7,-1,-4,-12,1
1532062136711,0,3,-7,-6,-6,-3,-3,3
1532062136716,-1,-9,7,14,11,4,-3,-1
1532062136721,-3,-19,-9,14,-1,-3,-2,4
1532062136726,2,10,-5,-41,-10,-3,4,1
1532062136731,-5,-24,0,-37,-4,-6,-6,-11
1532062136736,-1,-2,4,35,11,1,-5,4
1532062136741,0,-8,-3,-11,-6,0,17,2
1532062136746,-1,15,3,14,-6,0,-18,-6
1532062136751,0,-29,-4,17,10,0,-3,0
1532062136756,-1,10,1,-17,-5,-3,-2,-5
1532062136761,0,6,-1,-13,9,0,3,-4
1532062136766,-5,-5,4,-9,-22,-6,-2,-1
1532062136771,3,19,1,-14,10,6,9,0
1532062136776,-4,-20,-7,39,-7,-2,9,0
1532062136781,1,5,4,-15,4,0,6,-2
1532062136786,2,-6,1,25,4,1,5,3
1532062136791,0,2,-6,-31,-5,-2,-2,-2
1532062136796,1,23,-2,-33,4,-1,-4,1
1532062136801,-6,-31,-10,-18,-13,-4,-2,-1
1532062136806,1,0,-1,10,4,0,5,1
1532062136811,-2,-2,1,3,-9,0,-14,3
1532062136816,2,23,4,5,-5,1,3,-3
1532062136821,0,-7,-3,20,6,-1,-3,4
1532062136826,0,1,5,-7,9,4,2,-4
1532062136831,-2,0,-10,3,2,-2,19,4
1532062136836,-2,-6,-2,-15,-13,-5,-6,-4
1532062136841,0,15,6,13,10,3,-5,-4
1532062136846,1,-8,-5,-14,-14,-1,7,6
1532062136851,1,15,3,-13,1,1,-3,-1
1532062136856,-1,-29,-2,-6,-7,-3,-5,-3
1532062136861,-3,15,5,33,7,-2,-3,-3
1532062136866,-2,-3,-5,-20,-8,-3,7,-3
1532062136871,2,1,1,11,3,0,-9,1
1532062136876,1,8,2,-12,7,3,-4,-7
1532062136881,6,-16,-13,-14,-3,-3,9,7
1532062136886,-4,0,3,28,-5,-1,0,-4
1532062136891,2,10,6,19,3,4,1,2
1532062136896,-3,-24,-10,-10,5,2,-4,0
1532062136901,1,20,6,5,-6,0,-3,2
1532062136906,-1,-2,3,-5,5,0,1,5
1532062136911,-1,-8,-6,-7,-5,-2,-10,-9
1532062136916,-1,7,4,27,12,-3,-5,5
1532062136921,-1,-6,-3,-57,-15,-1,-1,-6
1532062136926,1,5,-5,3,2,-1,-15,4
1532062136931,-4,-16,8,23,6,0,-5,-1
1532062136936,0,-3,-7,-67,-16,0,4,-3
1532062136941,-4,0,-9,53,-6,-4,7,2
1532062136946,-1,-2,-2,5,10,0,11,0
1532062136951,2,-2,1,-2,3,-1,1,-1
1532062136956,2,10,3,15,5,2,-2,1
1532062136961,-1,-6,3,-13,-3,2,-6,-6
1532062136966,-2,0,-8,-4,6,1,8,-5
1532062136971,-1,12,5,11,-4,0,-1,-6
1532062136976,-5,-1,-4,6,-9,-4,6,4
1532062136981,9,17,4,8,5,1,-12,3
1532062136986,-3,-11,-3,-2,1,-2,-8,-5
1532062136991,0,3,-6,-5,2,-2,1,4
1532062136996,-1,17,7,7,-4,-1,10,-1
1532062137001,0,-15,6,7,-3,1,9,2
1532062137006,7,-3,-2,-3,-7,-4,-20,-1
1532062137011,-17,-10,3,3,8,2,9,-14
1532062137016,18,18,-12,0,-7,-3,-11,-3
1532062137021,-17,-18,5,-9,-5,-2,1,-2
1532062137026,-10,-16,-12,-11,-3,-2,1,-8
1532062137031,2,2,10,5,-8,-5,-6,9
1532062137036,-3,13,5,6,6,-1,-19,-6
1532062137041,3,-16,-1,-8,0,1,1,1
1532062137046,2,11,-16,-5,-2,-1,7,2
1532062137051,1,7,1,3,-5,-4,-11,1
1532062137056,-4,-11,1,13,6,-1,6,1
1532062137061,3,15,8,-13,0,3,10,3
1532062137066,-2,0,6,19,6,9,-3,0
1532062137071,2,-6,-19,-35,-9,-3,-8,-2
1532062137076,-1,3,12,3,-5,-4,0,0
1532062137081,-3,3,-2,12,0,-8,7,4
1532062137086,-3,-8,3,-6,-7,-2,-2,-5
1532062137091,3,1,-2,-3,1,10,5,1
1532062137096,-2,-10,-3,-26,16,9,13,2
1532062137101,-5,5,-7,24,-26,-6,-16,-6
1532062137106,4,-3,-2,-53,-16,-14,1,-4
1532062137111,-3,-3,1,-14,-3,-3,-9,0
1532062137116,-3,-8,4,20,-5,1,1,2
1532062137121,1,4,-11,0,14,3,-2,-8
1532062137126,-4,3,-1,-39,-17,-2,-6,-2
1532062137131,-1,-1,4,-8,4,-5,7,-5
1532062137136,-3,-5,-9,12,-2,-2,-4,-3
1532062137141,0,-4,4,3,6,-1,-1,3
1532062137146,-1,-1,2,9,8,2,10,-1
1532062137151,-2,-1,-6,1,2,1,2,0
1532062137156,2,13,2,8,2,-2,-2,1
1532062137161,3,-7,8,7,14,3,0,-1
1532062137166,-9,-5,-16,-57,-17,-3,-8,0
1532062137171,11,-1,0,17,1,1,3,1
1532062137176,-4,-20,-3,-5,-7,-5,1,1
1532062137181,0,8,1,4,1,3,2,-5
1532062137186,2,6,-1,6,4,1,2,-1
1532062137191,-2,6,0,22,8,-2,6,1
1532062137196,-1,1,-5,-25,-14,-2,-5,0
1532062137201,-1,5,6,-7,-2,0,-6,-3
1532062137206,-1,-14,-2,34,5,0,0,1
1532062137211,-1,13,-1,20,-1,-2,1,0
1532062137216,1,-2,-5,-10,0,-1,-2,1
1532062137221,0,2,1,-1,2,1,5,0
1532062137226,3,8,11,14,-3,-4,-6,2
1532062137231,-3,-11,-3,0,6,-2,-3,-3
1532062137236,-1,-2,5,-8,5,4,0,-3
1532062137241,-1,0,-12,-26,-7,-1,-3,0
1532062137246,2,-1,7,25,7,3,-6,1
1532062137251,0,-7,-6,-12,6,2,2,-1
1532062137256,-5,-4,-1,-21,-29,-9,-5,-1
1532062137261,3,10,4,7,3,-1,2,0
1532062137266,-1,12,-6,-33,2,-1,-1,1
1532062137271,-5,-27,1,24,3,0,-1,-1
1532062137276,-2,3,-9,-10,6,1,0,-3
1532062137281,-3,1,4,-17,-5,-4,-3,-3
1532062137286,-1,-10,3,55,6,-5,-4,1
1532062137291,0,21,4,-18,-14,-2,3,-1
1532062137296,-2,-17,-9,11,12,5,0,-2
1532062137301,-1,-5,-2,-19,-6,4,1,1
1532062137306,1,-5,5,8,6,2,-11,2
1532062137311,-1,-2,-6,-10,-5,-1,14,-2
1532062137316,1,11,5,22,-3,-6,-1,2
1532062137321,0,9,-2,13,-2,-1,0,-3
1532062137326,1,-9,-2,5,6,6,8,0
1532062137331,2,18,-1,-13,0,2,-11,-1
1532062137336,2,-2,2,2,2,-3,-1,-1
1532062137341,-1,-5,-4,0,15,-1,-4,-2
1532062137346,1,8,-8,0,-13,0,2,0
1532062137351,-1,3,6,-13,-5,0,5,0
1532062137356,-2,-5,-3,19,2,1,3,-2
1532062137361,-1,-5,2,12,0,-2,-4,2
1532062137366,-1,-5,-2,-10,4,1,12,-4
1532062137371,0,2,1,-10,1,0,7,-1
1532062137376,3,-2,-1,-4,-5,0,0,3
1532062137381,-2,2,-4,2,-8,-2,3,-3
1532062137386,0,1,-2,-13,-4,-4,3,-1
1532062137391,3,10,-2,-4,0,-1,-2,-2
1532062137396,-8,-49,2,18,11,1,0,-4
1532062137401,-1,-2,-3,-1,-16,-3,0,1
1532062137406,-2,-20,-5,-5,0,-4,-2,-4
1532062137411,-1,10,2,28,0,2,-7,-2
1532062137416,2,13,-1,-1,1,-1,-3,0
1532062137421,2,0,0,7,6,-2,-3,1
1532062137426,-2,-8,6,18,-3,-1,6,-1
1532062137431,-1,-6,-4,8,3,3,-4,-1
1532062137436,0,6,3,9,4,0,1,-1
1532062137441,-5,-11,-6,-14,-7,-3,-12,-2
1532062137446,0,5,5,4,-7,-2,-4,1
1532062137451,0,-21,-6,-1,1,0,-4,1
1532062137456,-1,2,-2,-17,-10,-3,1,-2
1532062137461,-2,14,-1,3,6,-5,-4,-5
1532062137466,-1,3,8,21,17,2,-2,0
1532062137471,-1,0,0,2,-10,0,0,1
1532062137476,2,-1,1,-10,-4,1,-8,-5
1532062137481,-1,-1,0,-14,1,1,1,1
1532062137486,1,4,0,5,5,2,1,1
1532062137491,-2,2,-6,8,3,-4,0,-4
1532062137496,0,10,8,-11,-17,-2,-3,-4
1532062137501,0,-7,1,4,4,2,9,-1
1532062137506,-2,3,-2,-3,-2,-1,-2,-2
1532062137511,-3,-5,1,7,5,-4,-5,1
1532062137516,0,4,-5,-17,2,-1,5,0
1532062137521,1,-3,1,30,-3,2,-1,1
1532062137526,2,13,2,-43,-6,-2,-9,1
1532062137531,-2,-12,0,3,5,1,4,1
1532062137536,0,5,2,-34,4,2,1,-1
1532062137541,-5,-30,-4,-12,-12,1,0,0
1532062137546,-1,1,-5,10,3,-1,-5,-1
1532062137551,1,14,1,-8,-12,-2,-2,-2
1532062137556,-3,-7,0,4,10,-2,-4,-7
1532062137561,2,19,2,-1,7,-3,-2,-1
1532062137566,-5,-17,-5,-6,-10,3,0,-2
1532062137571,0,-3,-3,-11,-2,-2,2,-2
1532062137576,-3,-12,-3,14,-1,-2,-8,-2
1532062137581,0,32,0,-17,-3,-1,5,0
1532062137586,-4,-16,-1,16,2,-3,1,-2
1532062137591,-1,-1,0,18,1,-3,-6,1
1532062137596,-2,3,-1,-13,-8,0,4,3
1532062137601,-2,-6,-3,36,-6,-5,-6,1
1532062137606,2,0,-7,-29,6,3,6,-3
1532062137611,-1,10,-2,2,7,6,17,-2
1532062137616,-2,-9,-11,-1,-19,-7,-6,-2
1532062137621,-1,0,1,-10,4,2,1,0
1532062137626,0,-4,2,14,1,0,6,1
1532062137631,0,-3,-2,5,-9,-3,-8,-2
1532062137636,1,-6,3,10,10,5,7,0
1532062137641,0,8,-3,-30,3,2,4,1
1532062137646,-5,-12,-4,48,-10,-4,-9,0
1532062137651,-1,5,4,-18,-2,-1,-4,-2
1532062137656,1,14,1,2,1,-1,2,1
1532062137661,-1,-11,4,-12,2,0,-4,-2
1532062137666,2,11,-8,-7,5,1,-2,-1
1532062137671,-4,-10,-5,-7,-6,-2,5,-1
1532062137676,-6,-14,1,25,2,-2,-5,-1
1532062137681,0,-7,-9,-23,-9,-1,2,-2
1532062137686,1,12,10,2,9,0,-2,-2
1532062137691,0,-3,-1,7,-1,2,2,2
1532062137696,4,5,-4,-18,0,-4,-4,1
1532062137701,-4,-15,-4,8,5,4,-3,-3
1532062137706,-1,11,2,3,0,1,0,-1
1532062137711,0,-4,3,-25,-4,1,-2,0
1532062137716,2,10,-2,4,-6,-4,0,2
1532062137721,0,-1,2,24,0,-4,-1,-1
1532062137726,-2,1,0,-5,-3,-2,-4,-4
1532062137731,2,-3,4,7,3,-1,0,0
1532062137736,-2,7,-1,6,12,5,2,1
1532062137741,-3,-5,-11,-49,-23,-5,-4,-2
1532062137746,0,0,2,-4,-5,-1,-2,0
1532062137751,-2,-3,-4,8,1,-3,-4,0
1532062137756,1,1,5,-8,-2,1,2,-6
1532062137761,3,4,-1,13,7,2,0,0
1532062137766,1,5,2,1,0,1,-4,1
1532062137771,-4,-9,-5,-7,-7,-2,-1,-3
1532062137776,0,11,-2,10,6,3,-1,1
1532062137781,-1,2,6,22,2,-2,-6,-3
1532062137786,0,2,-3,-28,-8,-1,8,-1
1532062137791,0,5,0,13,5,-5,-9,-2
1532062137796,-2,-3,-2,-21,-11,-2,-2,-3
1532062137801,-4,-4,0,26,-3,-2,-4,0
1532062137806,2,1,1,-2,5,1,-3,-1
1532062137811,-1,-4,0,10,-1,-1,-3,-2
1532062137816,-2,-4,-9,-6,-1,0,-10,1
1532062137821,-2,2,11,-17,-2,4,4,-2
1532062137826,0,-5,0,18,2,1,8,-4
1532062137831,-1,-5,2,-12,5,-2,-8,-4
1532062137836,-2,1,1,6,-3,-2,4,-1
1532062137841,1,7,-4,-11,-3,-4,-3,1
1532062137846,-4,-12,-6,-4,-2,0,-2,1
1532062137851,0,14,4,11,0,-1,-2,-1
1532062137856,0,-13,-6,-37,-7,0,2,0
1532062137861,-2,-1,1,43,6,0,-3,0
1532062137866,0,2,3,2,3,-1,0,0
1532062137871,-2,-6,-9,-17,-5,-1,-9,0
1532062137876,1,-1,2,8,4,3,3,2
1532062137881,1,-16,-1,0,-1,-3,-5,1
1532062137886,2,19,-3,-11,-5,-3,-2,-1
1532062137891,-1,12,0,6,-1,0,0,0
1532062137896,-3,-7,1,7,-6,-2,-4,-3
1532062137901,-1,-3,1,2,12,-1,0,-1
1532062137906,-2,-4,-10,-9,-21,-5,-9,-2
1532062137911,-1,-5,3,4,-2,-2,5,-2
1532062137916,0,7,-1,-15,-5,-5,-3,-3
1532062137921,-2,2,2,9,0,3,14,1
1532062137926,-2,-15,2,21,11,-1,-3,0
1532062137931,1,0,3,14,4,2,0,-1
1532062137936,-6,-3,-9,-17,-12,-4,-8,0
1532062137941,1,13,-2,-9,0,-1,-1,-1
1532062137946,-2,-16,-2,-15,-2,-4,-1,-2
1532062137951,1,4,0,-1,-8,-1,0,2
1532062137956,1,6,4,28,16,2,7,3
1532062137961,-1,-12,-2,-32,-12,-1,-9,-4
1532062137966,-3,-20,-5,-25,-2,-2,7,3
1532062137971,-2,-4,-6,2,-9,-4,-2,0
1532062137976,2,8,4,15,8,2,-6,1
1532062137981,-1,-8,0,13,6,2,1,-3
1532062137986,-2,5,1,-20,-13,-3,-5,1
1532062137991,-1,0,0,6,6,2,3,-2
1532062137996,-1,-7,-9,-4,-8,-5,0,-2
1532062138001,1,1,4,-1,7,0,-5,-2
1532062138006,3,12,5,12,4,1,6,2
1532062138011,1,-2,-3,-12,8,4,0,-2
1532062138016,-2,16,4,6,-10,-2,5,-1
1532062138021,-1,-15,-7,-24,-7,-2,-2,-4
1532062138026,-1,11,3,-4,0,1,7,2
1532062138031,1,6,-1,-19,-7,1,4,1
1532062138036,0,-6,-1,18,10,0,-2,-1
1532062138041,-1,-10,-6,-3,0,-5,5,2
1532062138046,-1,1,-4,-8,-5,2,-5,-2
1532062138051,-1,-8,-1,5,7,0,-1,-2
1532062138056,0,-6,-4,9,1,2,-7,1
1532062138061,0,10,1,14,-4,-4,2,0
1532062138066,-1,-4,-3,-2,-4,-3,-8,-1
1532062138071,-2,-4,2,-2,-2,-1,8,-1
1532062138076,1,-2,-1,2,8,-2,1,-3
1532062138081,-1,7,-1,-1,-10,1,-2,0
1532062138086,-1,-2,2,5,0,-3,2,-3
1532062138091,-1,-10,-5,12,1,-2,-6,0
1532062138096,2,24,5,-3,-5,-2,-5,2
1532062138101,-1,-24,-5,-5,5,3,14,2
1532062138106,-5,0,-1,9,5,4,-1,-5
1532062138111,-1,1,-3,-39,-13,-6,-4,-3
1532062138116,0,1,3,20,4,2,-4,-1
1532062138121,1,5,2,0,2,-2,0,-2
1532062138126,1,6,5,18,5,1,-1,-1
1532062138131,-2,-8,-7,-39,-22,-4,2,1
1532062138136,0,1,0,-4,3,0,3,-3
1532062138141,0,9,-3,-13,-7,-2,-9,-2
1532062138146,1,0,0,19,4,-3,0,-2
1532062138151,-3,-24,1,32,10,4,-1,0
1532062138156,-1,10,-1,-47,-6,2,-7,-1
1532062138161,0,7,1,8,1,0,8,-1
1532062138166,-1,-6,1,14,15,-1,-7,-2
1532062138171,-2,5,-3,-2,-18,-6,-6,-1
1532062138176,2,4,1,-3,2,0,6,-1
1532062138181,-4,-11,-3,19,0,1,-6,2
1532062138186,1,9,-2,-15,-7,-3,2,1
1532062138191,-2,0,11,5,7,0,-4,-1
1532062138196,-2,-16,-7,6,10,-1,8,2
1532062138201,-3,4,-9,-61,-29,-5,-1,-4
1532062138206,1,-7,-5,-14,-6,2,-3,-1
1532062138211,1,7,3,18,11,-1,-5,-2
1532062138216,-2,2,8,21,-3,-5,-6,-2
1532062138221,0,-8,3,21,15,2,1,0
1532062138226,-1,-13,-7,-40,-27,-5,-13,0
1532062138231,2,11,-8,-19,4,-1,3,0
1532062138236,0,9,-1,-1,-5,0,5,-3
1532062138241,1,-3,0,7,6,-4,-4,0
1532062138246,-2,10,4,5,5,0,-1,-5
1532062138251,-2,-3,-12,-12,-2,1,-4,3
1532062138256,-2,-4,1,9,-1,-1,-6,-3
1532062138261,0,3,1,-2,0,2,-5,0
1532062138266,1,-1,1,9,14,2,3,1
1532062138271,0,10,4,-7,-17,-4,-1,0
1532062138276,-5,-21,-8,-8,9,-2,3,-1
1532062138281,0,6,4,15,-14,-4,-2,-1
1532062138286,0,-4,1,6,6,5,1,0
1532062138291,1,1,1,7,13,4,-2,-4
1532062138296,1,-1,0,-1,-8,-3,-7,2
1532062138301,0,1,-10,-16,3,-5,3,2
1532062138306,-3,-13,0,35,5,-3,1,0
1532062138311,-1,6,-2,-15,-3,3,4,1
1532062138316,0,-9,5,8,-3,0,-3,-1
1532062138321,2,-2,0,-17,8,3,3,-1
1532062138326,-1,17,5,19,-5,-3,1,-3
1532062138331,-2,-9,-20,-13,-3,-1,-1,-2
1532062138336,-3,-19,-5,-30,-13,1,6,0
1532062138341,-2,2,1,11,-3,0,-5,-2
1532062138346,2,6,2,0,2,-1,4,0
1532062138351,2,8,10,6,-2,-4,-4,-3
1532062138356,-2,-3,-5,0,6,-2,3,0
1532062138361,-4,-4,-4,-4,-13,-4,-5,-1
1532062138366,-1,-1,-6,-17,2,0,-2,0
1532062138371,-1,-6,1,-12,1,-2,-5,-2
1532062138376,-1,14,12,24,1,2,0,1
1532062138381,1,-1,1,13,12,3,3,1
1532062138386,-3,7,-7,-22,-15,-5,-3,0
1532062138391,0,2,-4,-3,-2,-1,-4,-2
1532062138396,1,-3,-4,16,5,1,4,-1
1532062138401,-1,10,5,19,6,2,-3,-2
1532062138406,0,-16,1,7,5,2,-2,-1
1532062138411,-1,14,0,0,1,-5,4,1
1532062138416,-3,-18,-7,-15,-9,-2,-5,-4
1532062138421,0,-10,2,-2,-7,-2,-3,-3
1532062138426,1,8,-4,-4,3,2,1,0
1532062138431,1,-6,2,5,0,0,6,0
1532062138436,2,12,-2,0,1,-2,-1,0
1532062138441,0,0,-4,-21,0,1,0,0
1532062138446,-4,-15,-1,22,-3,-3,11,1
1532062138451,1,-8,0,1,0,-4,-8,0
1532062138456,-3,-13,-4,13,1,1,7,1
1532062138461,0,6,1,-24,-12,-1,-3,-3
1532062138466,0,-4,1,-21,1,0,-5,-1
1532062138471,-1,0,0,23,5,5,3,3
1532062138476,1,15,12,15,18,1,-5,-2
1532062138481,-3,-24,-17,-74,-31,-6,1,-1
1532062138486,-1,4,1,20,8,-1,-3,-2
1532062138491,-2,-4,1,-7,-2,-1,-5,0
1532062138496,2,0,2,-39,-8,-2,-2,-3
1532062138501,-2,10,0,33,9,0,11,0
1532062138506,0,6,-2,-26,-2,1,-6,-1
1532062138511,-1,-3,-1,-11,-2,-1,10,-3
1532062138516,-3,5,-3,-5,-1,1,0,-2
1532062138521,1,8,1,7,5,2,0,1
1532062138526,1,-9,0,7,-14,-5,0,-1
1532062138531,-2,-1,0,2,7,-1,-3,-1
1532062138536,0,-3,-7,-10,-12,-7,-2,1
1532062138541,-1,5,6,17,16,5,-2,-3
1532062138546,0,-16,-4,6,5,2,-7,-2
1532062138551,-3,-4,3,8,1,0,-1,0
1532062138556,-4,1,-3,-5,-11,-3,-5,-2
1532062138561,2,9,0,17,8,-4,-5,0
1532062138566,-4,-30,-6,0,-5,-2,-2,2
1532062138571,1,4,3,0,-7,0,5,-2
1532062138576,-1,-11,-7,-14,-2,1,0,-2
1532062138581,1,16,4,14,12,6,1,3
1532062138586,-3,3,6,24,-9,-4,-3,-2
1532062138591,-1,-1,-13,-13,-5,-2,-11,-2
1532062138596,-1,6,-1,6,0,-2,-6,-6
1532062138601,-1,-6,-2,0,2,-2,-10,0
1532062138606,2,10,0,-5,8,2,1,1
1532062138611,-1,-11,5,19,-5,-2,0,-3
1532062138616,1,0,-4,-4,1,-2,-1,-1
1532062138621,-2,0,-8,-13,-3,-3,-4,-3
1532062138626,0,6,0,-7,0,-1,4,0
1532062138631,1,3,5,-12,-6,-3,-2,-1
1532062138636,0,-11,-2,2,4,3,-2,1
1532062138641,-2,-18,-3,3,-9,-3,-6,2
1532062138646,0,25,2,-8,-1,2,14,0
1532062138651,-2,-19,-5,4,2,0,6,0
1532062138656,1,11,11,13,4,1,2,-1
1532062138661,-3,-8,-10,-17,-8,-3,-2,1
1532062138666,0,-1,-8,-21,-9,-3,-6,-3
1532062138671,-2,9,2,6,12,6,-9,-2
1532062138676,-1,-4,-1,10,-7,-5,2,-1
1532062138681,-2,-4,6,0,-1,4,-4,-3
1532062138686,-1,3,-6,-10,3,2,-2,-2
1532062138691,0,-3,1,13,8,-1,5,0
1532062138696,0,6,-5,-33,-9,-2,-5,0
1532062138701,-1,-7,-4,-18,-11,-7,1,-1
1532062138706,-1,-6,1,-7,-15,-6,-1,-1
1532062138711,0,0,-2,-2,5,3,-1,1
1532062138716,0,-1,6,20,6,1,12,1
1532062138721,2,19,2,4,-1,1,22,2
1532062138726,-2,-11,6,-4,2,1,-5,-1
1532062138731,2,9,3,-1,-2,-1,-1,1
1532062138736,-2,-11,-6,-4,2,-1,2,1
1532062138741,2,7,2,16,4,-1,-1,-2
1532062138746,-1,-4,-2,-10,0,-3,-2,-2
1532062138751,1,10,-2,-7,-4,-2,0,0
1532062138756,-3,-14,-1,6,3,-1,-7,-2
1532062138761,1,-3,2,7,6,0,-1,0
1532062138766,1,5,1,-10,6,1,-3,-1
1532062138771,-3,-20,-4,-15,-18,-6,-7,-2
1532062138776,-1,11,-5,-1,-6,1,10,0
1532062138781,0,1,2,16,0,-4,-6,-4
1532062138786,3,9,0,14,13,7,8,5
1532062138791,2,-2,3,-6,1,1,-2,-1
1532062138796,-2,-5,1,18,-1,-2,-1,3
1532062138801,-3,-1,-5,-29,0,2,9,-3
1532062138806,0,8,0,-5,-7,-4,-1,-2
1532062138811,-1,3,-8,0,-3,0,8,1
1532062138816,1,0,0,-24,-4,2,-3,-3
1532062138821,-2,17,5,28,-7,-3,-1,-1
1532062138826,-2,-14,3,-3,3,2,-1,0
1532062138831,-1,-17,2,10,3,-1,3,-3
1532062138836,-2,6,-6,8,3,-2,-4,-3
1532062138841,0,2,-1,-35,-10,-3,-6,-5
1532062138846,-2,5,-2,15,-6,-6,-1,2
1532062138851,-2,1,6,31,7,5,-11,-5
1532062138856,1,8,-5,-21,-9,0,6,-1
1532062138861,-1,-24,-5,7,5,0,-1,0
1532062138866,1,5,7,-13,-2,-1,0,-4
1532062138871,-3,-10,-2,-5,9,0,3,-3
1532062138876,-5,-10,-2,23,-8,-4,-6,0
1532062138881,0,7,-5,5,2,2,3,-1
1532062138886,-2,-11,3,-10,-8,-1,0,-1
1532062138891,-2,13,-2,-8,0,-2,1,-1
1532062138896,-1,-1,3,13,4,1,1,2
1532062138901,-3,-9,-5,-7,-1,1,12,-8
1532062138906,3,5,-3,-5,-1,2,11,-1
1532062138911,-1,-1,0,27,-2,-4,-8,-2
1532062138916,-3,-13,-1,-1,3,-2,4,-1
1532062138921,1,4,6,12,2,3,-8,-3
1532062138926,-4,2,-13,-32,-13,-4,-6,2
1532062138931,0,5,-1,0,1,1,4,-1
1532062138936,3,14,7,-12,-8,-2,-1,4
1532062138941,-3,-21,-13,-19,-9,-3,5,0
1532062138946,4,29,3,3,7,3,2,-3
1532062138951,-5,-47,-3,-5,-2,-1,-3,2
1532062138956,0,9,0,-5,0,-3,-19,-2
1532062138961,3,4,6,0,-1,-2,11,4
1532062138966,-2,-1,-4,8,5,1,-1,-1
1532062138971,0,4,-2,-8,-7,0,2,-1
1532062138976,-2,1,-1,13,7,0,-3,-2
1532062138981,-2,0,2,14,4,0,-15,-2
1532062138986,-2,-14,-5,-4,-4,-5,-4,0
1532062138991,3,13,8,10,12,2,0,-4
1532062138996,-4,-15,-7,-14,-15,0,5,-3
1532062139001,1,16,-1,-6,4,0,-1,1
1532062139006,-2,-21,-1,-4,-2,-2,2,-3
1532062139011,-2,12,-3,-14,-12,-3,-7,-2
1532062139016,-2,-16,-13,-24,5,3,23,5
1532062139021,-3,-12,-3,1,-3,-2,-11,-2
1532062139026,0,-4,0,7,6,0,-9,0
1532062139031,3,12,5,0,4,0,0,0
1532062139036,3,15,7,31,-8,-2,-6,-3
1532062139041,-5,-26,-6,-16,2,-1,19,3
1532062139046,-1,5,0,7,2,-1,-16,7
1532062139051,-2,5,-7,-5,-18,-4,11,-6
1532062139056,-3,-7,2,2,3,-1,-12,14
1532062139061,4,14,7,-3,3,3,-7,-14
1532062139066,-1,-9,-2,-2,5,0,2,0
1532062139071,-6,-5,-3,-2,-5,-10,-17,-3
1532062139076,0,-20,2,8,-1,4,3,0
1532062139081,-1,3,-3,11,-5,0,0,8
1532062139086,0,4,1,-9,1,3,2,-5
1532062139091,1,4,-3,-16,-1,0,5,5
1532062139096,-1,5,2,14,6,-6,-7,-1
1532062139101,1,4,1,8,0,-2,-9,-1
1532062139106,-3,-19,-5,-19,-8,-1,-14,-7
1532062139111,-4,2,-2,6,-2,0,6,-2
1532062139116,2,14,3,14,5,2,-3,-6
1532062139121,-1,-1,-2,-8,4,4,-6,1
1532062139126,4,3,2,6,-8,-3,14,3
1532062139131,0,-4,-8,-12,-4,-3,-6,1
1532062139136,2,14,0,-16,4,-3,4,-5
1532062139141,-4,-1,1,-12,-5,-2,7,-1
1532062139146,-3,-15,-8,-16,1,3,-1,0
1532062139151,-1,1,9,28,5,2,-3,-2
1532062139156,0,7,1,-14,-4,-1,-2,-2
1532062139161,0,-2,2,5,0,-4,-4,-1
1532062139166,-1,-7,-3,14,-1,-1,3,-2
1532062139171,-2,13,-8,-15,-1,-1,0,-1
1532062139176,-1,-10,5,2,-2,1,3,-2
1532062139181,2,3,11,-1,5,1,-4,1
1532062139186,0,9,-24,-16,-3,-1,-6,-7
1532062139191,1,-17,16,24,6,0,1,10
1532062139196,2,7,-2,3,-2,0,-2,-2
1532062139201,-1,-5,-7,8,1,0,5,-1
1532062139206,3,8,10,11,5,0,5,2
1532062139211,4,1,-12,-27,7,-2,-5,-6
1532062139216,-7,-4,66,17,-9,1,-23,4
1532062139221,2,2,10,5,4,1,-9,4
1532062139226,1,6,5,9,-4,-2,-5,4
1532062139231,1,0,0,6,-1,4,14,-2
1532062139236,0,7,-21,-17,-2,-4,1,-3
1532062139241,-1,-17,-9,-18,-10,-6,3,1
1532062139246,-6,-8,5,0,-7,-7,-16,-2
1532062139251,-2,11,-6,-14,1,2,19,-2
1532062139256,1,-4,-18,13,9,2,2,1
1532062139261,-1,13,11,16,-4,-1,16,2
1532062139266,0,-20,-10,-9,-1,-5,-5,-4
1532062139271,-2,-6,-10,-3,-10,-5,-5,2
1532062139276,-1,6,-8,-23,6,1,-5,-4
1532062139281,1,8,14,5,2,-2,6,-4
1532062139286,-1,7,1,9,-4,1,6,0
1532062139291,0,-4,1,2,-2,-2,-11,-2
1532062139296,1,-10,-4,-15,-2,-1,12,-1
1532062139301,-4,-4,-10,4,4,1,2,0
1532062139306,2,9,3,-14,-10,2,-1,-2
1532062139311,0,-9,4,16,5,2,-1,0
1532062139316,-2,-4,-9,-5,2,-4,0,-2
1532062139321,-2,-3,-3,1,-1,-1,-9,-6
1532062139326,-1,3,-4,-20,-6,5,8,-1
1532062139331,1,8,7,4,1,4,-14,0
1532062139336,1,2,-3,-1,-4,-1,5,3
1532062139341,-3,-11,-9,-2,-3,-1,-5,-2
1532062139346,0,1,7,17,7,-4,3,-1
1532062139351,1,19,2,16,-4,-5,-10,-2
1532062139356,-3,-33,-11,-45,-2,2,11,-1
1532062139361,0,5,-2,12,-1,-1,5,2
1532062139366,0,4,3,-2,0,0,1,-1
1532062139371,-2,0,1,10,0,0,0,2
1532062139376,2,11,-2,15,-2,-2,2,-3
1532062139381,-2,-15,-4,-2,-2,-4,-8,-1
1532062139386,1,3,5,-5,3,1,-2,4
1532062139391,-3,-7,-4,-9,-4,-1,2,-2
1532062139396,-1,1,2,31,1,-3,-4,-2
1532062139401,-2,0,-4,-13,-9,-3,-2,0
1532062139406,-2,-9,2,10,5,1,-11,-1
1532062139411,-2,-8,-4,4,5,6,10,2
1532062139416,-1,2,-7,6,-3,-1,-15,1
1532062139421,0,8,-1,-11,0,0,11,-3
1532062139426,-1,-2,-4,13,-3,-4,-2,1
1532062139431,0,-8,4,12,-1,0,-1,-3
1532062139436,-3,2,-8,-43,-6,-1,2,0
1532062139441,0,5,1,10,4,-1,-10,-1
1532062139446,-1,2,-2,-3,-3,1,4,-3
1532062139451,0,-2,-2,-15,2,0,2,-1
1532062139456,-2,-2,3,22,-3,-5,-3,-2
1532062139461,-2,0,-2,-4,-3,-4,-2,0
1532062139466,-1,3,2,9,1,-1,3,-5
1532062139471,-3,-4,-7,-30,-6,-2,-1,3
1532062139476,-1,-1,2,14,1,-3,-4,-3
1532062139481,-1,-3,-4,-13,0,2,-4,3
1532062139486,1,6,5,2,0,0,15,2
1532062139491,2,-3,1,7,6,0,-16,-3
1532062139496,0,2,0,-11,5,3,0,0
1532062139501,-1,-2,-7,-7,-3,0,1,-2
1532062139506,-2,-3,6,20,6,3,-1,-3
1532062139511,0,1,15,-9,-8,-9,-4,-2
1532062139516,-1,-4,-6,-4,-6,0,0,-1
1532062139521,1,13,7,14,5,3,-4,3
1532062139526,0,1,-7,-16,-2,-2,-4,0
1532062139531,0,-2,2,6,-1,-2,5,-2
1532062139536,0,0,-1,2,-2,-4,0,-1
1532062139541,0,-6,-12,-5,-5,1,3,-2
1532062139546,-3,-5,6,7,5,-4,-3,1
1532062139551,2,-4,4,-21,-4,0,1,1
1532062139556,2,5,4,4,-1,-2,-2,-4
1532062139561,0,0,3,4,-4,-2,-4,0
1532062139566,-3,-9,-15,4,-1,-1,-5,-2
1532062139571,-3,7,-7,1,1,3,8,2
1532062139576,-3,-11,-2,-4,5,2,2,-3
1532062139581,1,-3,3,13,6,-2,4,0
1532062139586,-2,3,-17,-12,-9,-3,-2,-2
1532062139591,-3,-1,11,-20,-24,-5,0,-3
1532062139596,-3,-3,-6,31,7,-2,-3,-1
1532062139601,0,1,18,12,2,-2,-1,-2
1532062139606,1,7,4,0,9,0,-1,4
1532062139611,1,-6,-11,1,4,0,0,1
1532062139616,-1,-5,-5,-25,-6,0,5,-1
1532062139621,-3,-2,-12,-16,-3,-2,-3,-5
1532062139626,1,4,24,23,1,0,-1,3
1532062139631,0,1,-7,-17,-3,-1,0,-2
1532062139636,0,-1,2,18,2,0,-2,0
1532062139641,0,-1,-5,10,11,2,1,1
1532062139646,-3,-2,-20,-86,-23,-5,1,-2
1532062139651,-2,-6,-8,7,-6,-1,-2,0
1532062139656,1,5,6,14,10,-1,1,-3
1532062139661,1,6,-5,-16,-23,-3,-4,2
1532062139666,1,-6,3,9,-1,-1,-1,-2
1532062139671,-2,-7,-2,5,6,3,1,0
1532062139676,-3,-5,-3,-6,0,-2,-3,1
1532062139681,-1,-2,-3,-14,-4,-5,-3,-1
1532062139686,1,0,3,14,1,-5,-2,-2
1532062139691,1,4,-5,3,2,2,0,1
1532062139696,3,0,3,1,-2,2,0,0
1532062139701,1,4,1,3,1,-3,-3,-2
1532062139706,-1,2,5,9,0,-2,-5,1
1532062139711,-2,-23,-9,18,12,2,12,-1
1532062139716,-1,11,1,-20,-11,0,1,2
1532062139721,-2,-14,0,10,0,0,5,-3
1532062139726,1,2,-8,2,5,0,-3,-2
1532062139731,-3,1,6,12,-10,-8,-9,-2
1532062139736,0,6,-5,-9,-1,0,-1,2
1532062139741,1,1,3,2,4,2,4,1
1532062139746,-3,-6,-6,19,3,1,1,-2
1532062139751,-2,-8,4,-23,-1,0,-6,-2
1532062139756,0,3,-1,1,1,-1,-2,-3
1532062139761,-2,0,0,2,-1,-3,-9,-2
1532062139766,2,7,1,-15,4,4,6,0
1532062139771,-3,-1,3,53,1,-1,-3,-1
1532062139776,1,11,-11,-13,-4,-4,-1,-2
1532062139781,0,-4,12,-9,-3,5,8,-1
1532062139786,-7,-22,-6,14,-4,-4,-2,-1
1532062139791,2,17,2,-11,4,0,-1,-1
1532062139796,2,-1,0,-15,-7,-3,-1,-2
1532062139801,-5,-20,-13,10,3,0,-2,2
1532062139806,1,8,4,-13,2,3,9,-1
1532062139811,0,10,1,-12,-5,-1,-3,4
1532062139816,1,-19,-6,6,-1,-1,-4,0
1532062139821,2,17,3,-26,-6,-6,-6,-2
1532062139826,-2,-10,-8,11,3,-5,-14,1
1532062139831,-5,-27,-5,-36,5,11,18,-2
1532062139836,0,6,4,4,-2,5,-2,3
1532062139841,1,-1,1,6,3,4,9,-4
1532062139846,-2,-7,0,-4,-9,-6,-13,0
1532062139851,4,13,2,9,6,-7,-4,0
1532062139856,-3,-8,0,27,-13,-1,-12,-3
1532062139861,-7,-13,-3,21,0,-1,2,-3
1532062139866,2,14,4,19,8,3,7,1
1532062139871,-1,2,-5,-6,3,-7,-5,-6
1532062139876,0,-5,6,-3,-6,-11,-2,-1
1532062139881,-1,6,-9,-36,6,14,20,-5
1532062139886,-4,0,7,57,17,8,0,-1
1532062139891,-1,-1,-9,-4,-14,-4,-3,1
1532062139896,1,15,5,-8,2,-4,7,0
1532062139901,-1,-13,-2,-12,-16,-16,-18,1
1532062139906,-1,1,0,-33,-5,1,0,-2
1532062139911,-1,-10,-3,2,6,7,-5,-6
1532062139916,-2,2,-2,-1,1,-1,-10,-3
1532062139921,1,1,-7,0,-1,-1,1,0
1532062139926,3,7,1,-9,-6,-1,-1,-4
1532062139931,2,4,9,5,-5,-11,-6,4
1532062139936,-7,-16,-20,-34,-8,-2,0,-7
1532062139941,2,7,3,21,7,1,-9,2
1532062139946,2,-9,-1,-5,1,-1,12,3
1532062139951,2,16,-4,-30,-4,0,-2,-1
1532062139956,-1,-8,9,24,12,4,23,-3
1532062139961,1,4,0,8,0,-3,-1,2
1532062139966,-3,-15,-6,-7,1,-1,-6,-2
1532062139971,2,4,-8,-26,-9,-4,-3,2
1532062139976,0,19,6,31,10,6,1,1
1532062139981,0,6,-8,-77,-14,-3,-10,-3
1532062139986,-5,-8,-2,44,-4,-6,3,3
1532062139991,0,-5,-4,5,-1,-1,4,0
1532062139996,2,-3,6,3,-1,-2,-13,1
1532062140001,-2,-13,-6,9,-6,-5,-6,2
1532062140006,4,35,6,-35,8,8,11,-4
1532062140011,-5,-43,-1,33,2,4,-1,3
1532062140016,1,18,0,-6,-7,-6,-9,3
1532062140021,1,-4,-2,5,5,8,6,1
1532062140026,2,-3,-1,3,-7,-3,-4,-3
1532062140031,-4,2,1,21,5,-1,10,-5
1532062140036,1,5,4,11,2,-1,-17,4
1532062140041,-3,-2,-9,-20,-7,-5,-3,-6
1532062140046,0,7,4,1,-1,-2,3,-3
1532062140051,-5,-2,-12,-8,-15,-4,0,0
1532062140056,-1,-14,11,-10,-5,-4,0,-4
1532062140061,1,9,5,27,10,1,16,-4
1532062140066,0,1,1,14,-2,-2,-9,2
1532062140071,1,-6,0,-20,7,1,0,-2
1532062140076,-3,-8,-14,-24,-11,4,10,-3
1532062140081,-2,9,22,40,2,-2,-7,1
1532062140086,-3,-24,-23,-17,-1,2,2,-2
1532062140091,6,23,8,2,8,0,12,13
1532062140096,-6,-10,-7,-31,-8,-1,-11,-15
1532062140101,0,7,2,15,7,0,0,-4
1532062140106,-5,-8,0,-30,-16,-6,-15,0
1532062140111,0,5,4,3,4,1,13,-4
1532062140116,3,-2,-1,1,5,0,-7,18
1532062140121,1,25,2,-1,0,2,15,11
1532062140126,-7,-5,1,-13,-4,-7,-13,-31
1532062140131,-5,-2,-6,7,-8,-3,1,-6
1532062140136,13,14,6,12,13,7,4,9
1532062140141,-23,-23,-8,-9,-3,-3,-15,-2
1532062140146,4,8,2,13,-2,-5,6,3
1532062140151,-3,-8,2,-6,0,4,3,8
1532062140156,-4,-8,-12,2,7,4,6,-12
1532062140161,4,-9,-1,9,-1,-2,-7,3
1532062140166,0,6,-2,-10,-5,0,11,6
1532062140171,-1,-2,3,-2,-6,-7,-16,-9
1532062140176,-4,-5,4,-1,-3,-8,-3,1
1532062140181,3,-10,-19,-1,-8,1,-2,0
1532062140186,1,0,10,33,11,4,1,4
1532062140191,5,10,8,-7,8,1,0,-5
1532062140196,-7,-5,-9,32,2,-9,1,-1
1532062140201,-1,-5,13,-6,-6,4,-4,-5
1532062140206,0,-3,-4,-15,-1,13,4,6
1532062140211,-2,-2,3,55,-3,-5,-13,2
1532062140216,0,4,-6,-24,-4,-1,16,-6
1532062140221,1,-7,-8,-48,4,-5,-10,-8
1532062140226,0,-2,4,-17,-11,-1,1,2
1532062140231,0,2,-5,27,1,-6,-11,-1
1532062140236,-3,-6,5,-2,-3,1,13,-5
1532062140241,3,10,0,7,4,-4,1,1
1532062140246,-1,-26,-2,2,6,2,0,-1
1532062140251,-3,1,-6,-13,8,1,-3,-4
1532062140256,-1,-1,-3,-16,-20,-1,-7,-2
1532062140261,3,3,5,22,7,0,3,1
1532062140266,1,5,-1,-8,-4,-6,-1,-1
1532062140271,1,0,-8,-28,-7,-3,-2,-3
1532062140276,-2,-4,10,25,18,4,-10,6
1532062140281,3,-4,-9,-20,-10,1,10,-1
1532062140286,-4,5,-5,9,-23,-12,-11,-1
1532062140291,-2,-8,-1,-28,-1,2,-4,-1
1532062140296,2,8,-1,-24,-1,6,17,1
1532062140301,-1,-4,0,18,5,-1,5,-2
1532062140306,1,4,0,17,6,-1,-4,0
1532062140311,2,0,-1,-31,-6,0,8,2
1532062140316,-2,-7,-4,16,4,3,14,1
1532062140321,1,1,11,45,12,0,-4,2
1532062140326,-1,2,-11,-14,0,-3,0,1
1532062140331,-4,10,5,9,-1,3,6,-5
1532062140336,0,-11,0,7,10,-2,-18,0
1532062140341,-2,0,-7,-31,-7,-2,1,-3
1532062140346,-2,2,6,8,-4,-2,4,2
1532062140351,-1,1,0,-9,3,-1,-7,-2
1532062140356,-1,-4,-4,12,-11,-3,-2,0
1532062140361,-1,-5,-13,-15,-13,-6,-6,-4
1532062140366,-1,4,7,-23,4,-2,-5,-1
1532062140371,0,-9,-2,32,1,-1,-8,2
1532062140376,1,-2,-3,4,4,-2,-7,-1
1532062140381,-1,2,1,11,1,-1,5,-1
1532062140386,6,10,-1,-10,-3,-2,-8,1
1532062140391,-2,-10,-2,8,5,7,4,1
1532062140396,-2,5,5,-6,-4,-3,2,-2
1532062140401,1,-8,-8,-25,-9,-3,-10,0
1532062140406,0,4,0,12,1,0,0,1
1532062140411,-2,4,-3,-22,-2,3,5,0
1532062140416,-1,-3,-3,20,3,-3,4,-2
1532062140421,4,19,13,11,14,5,-3,1
1532062140426,0,-25,-7,-17,-5,-1,5,-1
1532062140431,-3,-10,2,-3,-4,-1,-1,-4
1532062140436,-1,0,2,15,-8,-1,0,1
1532062140441,1,-1,1,1,-2,-1,2,1
1532062140446,-2,4,-2,2,10,0,8,-3
1532062140451,2,8,1,-3,-1,0,-9,-2
1532062140456,-3,-10,-1,-8,-4,0,-3,-5
1532062140461,-4,-1,-4,12,11,-1,1,-1
1532062140466,-1,2,5,11,-5,-2,-4,1
1532062140471,-1,-6,-6,3,-1,-3,-1,-1
1532062140476,-3,12,-1,3,8,0,-5,-3
1532062140481,-1,-4,-5,-20,-22,-1,-2,0
1532062140486,12,5,-2,-23,3,3,4,1
1532062140491,-19,-4,-2,18,-2,-5,-1,-3
1532062140496,4,2,-6,-25,4,2,-4,3
1532062140501,-1,-5,7,19,9,2,-6,-2
1532062140506,-2,-9,-13,-20,-16,-6,-5,-1
1532062140511,4,1,-4,-24,-14,-2,0,-1
1532062140516,0,-1,-2,-5,0,-2,1,0
1532062140521,-2,-6,2,4,6,-2,2,-1
1532062140526,-1,3,7,20,3,0,0,-1
1532062140531,3,-2,-4,8,8,1,-5,1
1532062140536,-3,-6,1,-10,-1,-1,1,1
1532062140541,2,0,-11,-29,-21,-5,1,0
1532062140546,-5,6,5,15,8,-3,-5,-3
1532062140551,1,7,5,-8,-2,2,1,-1
1532062140556,0,-18,-5,-1,-2,-1,3,0
1532062140561,-1,-1,9,-4,1,0,1,-3
1532062140566,-7,-1,4,32,10,0,-1,-3
1532062140571,1,10,-3,2,2,0,4,0
1532062140576,5,0,3,-9,1,0,5,-3
1532062140581,-5,-13,-10,-15,-2,-3,-5,-2
1532062140586,-8,-16,0,-9,-6,0,8,-2
1532062140591,-1,6,4,20,13,-2,-3,-1
1532062140596,-3,-1,-6,-36,-22,-4,-6,-4
1532062140601,0,3,0,-2,6,1,2,2
1532062140606,0,2,-1,3,-5,-1,-6,-2
1532062140611,-2,7,5,10,-2,-2,4,-1
1532062140616,1,4,-1,-9,0,-2,1,0
1532062140621,-2,-11,-1,17,-10,-5,-11,-1
1532062140626,0,6,1,11,13,5,-2,-2
1532062140631,2,5,1,2,3,-2,-4,2
1532062140636,-3,-17,1,18,-5,-4,-9,-2
1532062140641,0,4,-4,-14,1,-2,5,0
1532062140646,-1,3,-4,-10,-2,0,10,4
1532062140651,1,-5,-3,-5,-5,3,3,-1
1532062140656,1,8,6,15,2,-2,-1,1
1532062140661,2,5,6,25,9,2,2,0
1532062140666,-1,-10,-7,-27,1,-2,-6,1
1532062140671,-7,-6,-1,28,-8,-6,-7,-7
1532062140676,1,3,-10,6,-4,0,2,3
1532062140681,0,-3,0,-14,-6,-1,-1,-6
1532062140686,-3,3,1,-7,-1,-1,-4,5
1532062140691,3,-5,1,4,6,0,-2,-4
1532062140696,-2,6,4,7,3,-5,-2,2
1532062140701,-4,8,-1,14,2,2,8,-5
1532062140706,0,-21,0,-3,3,7,5,0
1532062140711,3,9,-1,-3,3,-2,-1,1
1532062140716,1,7,-1,-11,3,-1,0,-2
1532062140721,0,-11,-5,-5,1,2,4,1
1532062140726,-2,-2,0,23,-4,-4,1,-1
1532062140731,0,-4,3,-20,-5,3,5,0
1532062140736,-4,1,-8,0,-6,-2,1,-5
1532062140741,-3,1,-5,20,7,-3,-10,0
1532062140746,1,10,14,-28,-6,1,-5,-5
1532062140751,1,-9,-12,-16,-9,-8,-13,-3
1532062140756,1,4,-1,7,-1,0,9,5
1532062140761,-1,-22,5,9,4,2,-20,0
1532062140766,1,15,-7,-33,-11,1,10,-4
1532062140771,-4,-16,2,27,-4,-5,-8,1
1532062140776,3,13,2,-17,6,3,5,1
1532062140781,-1,-15,-6,11,0,-2,4,0
1532062140786,-1,-5,0,13,7,-2,-5,-1
1532062140791,0,2,3,-18,-7,-5,0,-1
1532062140796,-1,5,3,13,7,1,-10,-7
1532062140801,-2,8,-1,-16,-15,3,-4,-1
1532062140806,-4,-10,-5,4,1,-3,-1,-4
1532062140811,-1,-3,-5,-2,6,8,9,0
1532062140816,-2,-7,-2,-2,-2,1,-5,-1
1532062140821,4,27,8,-12,0,-5,-5,0
1532062140826,0,-15,1,3,-4,-2,-4,-1
1532062140831,-4,-19,-13,-11,0,-4,-2,0
1532062140836,-3,9,4,26,-3,-4,-4,-1
1532062140841,5,-12,-4,-10,0,0,-2,3
1532062140846,0,8,1,26,0,-1,1,2
1532062140851,2,-13,-3,-14,11,4,7,-3
1532062140856,-4,-9,-4,-39,-13,-1,-4,1
1532062140861,-8,-1,-13,-41,-21,-5,6,-1
1532062140866,9,7,-9,6,3,-3,-15,1
1532062140871,-6,-8,3,1,-3,-2,-3,-5
1532062140876,-2,-2,0,-11,0,1,8,-1
1532062140881,-4,-7,7,65,8,-2,-3,-2
1532062140886,4,35,0,-15,5,3,7,1
1532062140891,-1,-29,0,-11,-9,-4,-4,1
1532062140896,-2,-7,-7,-12,-3,1,-1,-3
1532062140901,-1,4,4,26,15,2,6,1
1532062140906,-1,5,4,1,-10,0,-2,-2
1532062140911,5,8,1,18,7,4,3,3
1532062140916,-2,8,2,-14,2,1,1,1
1532062140921,0,-3,-3,-6,4,-1,2,0
1532062140926,-3,-10,-7,-24,-4,-2,-8,-1
1532062140931,-1,23,4,-10,-8,-5,3,-3
1532062140936,6,-14,-5,-9,-5,-4,-1,-1
1532062140941,-1,1,2,-5,-2,-1,-17,-3
1532062140946,-1,-14,3,46,11,6,9,6
1532062140951,-4,-10,-10,-34,-5,-4,-3,0
1532062140956,1,5,3,12,1,-1,1,0
1532062140961,0,12,3,-16,-6,-4,14,7
1532062140966,14,-5,3,20,6,-2,-11,-4
1532062140971,-11,-2,-4,-7,-2,-1,-5,-1
1532062140976,6,-6,-13,-6,8,1,-10,0
1532062140981,-19,4,5,-32,-22,0,8,-5
1532062140986,-12,-22,-4,-2,-4,-4,3,-3
1532062140991,6,10,8,20,-1,0,3,3
1532062140996,1,6,3,-4,2,0,14,-3
1532062141001,4,13,-1,14,9,4,-4,-4
1532062141006,0,-18,-4,-9,3,1,3,5
1532062141011,-6,5,-1,-1,-9,-6,-9,-3
1532062141016,11,4,8,21,4,-3,-5,-2
1532062141021,-2,-17,-6,-50,1,3,7,-2
1532062141026,-6,2,5,46,2,-2,-4,-1
1532062141031,5,17,2,7,12,4,3,-1
1532062141036,-6,-3,-3,-10,-19,-2,-3,-3
1532062141041,1,-11,-1,3,-2,-4,-6,-3
1532062141046,0,17,-3,-18,5,1,4,-3
1532062141051,1,-2,0,3,-13,1,6,2
1532062141056,-4,-12,0,16,11,3,-3,1
1532062141061,4,5,0,5,3,1,-4,-1
1532062141066,-3,5,-2,-29,-9,-4,-6,-1
1532062141071,-3,-30,-8,-7,-2,-4,-17,-7
1532062141076,-7,8,15,19,-9,-5,-1,9
1532062141081,1,-7,-1,9,3,-2,-2,-5
1532062141086,-6,-4,-5,-31,-8,-2,-6,-3
1532062141091,8,10,0,14,4,1,7,1
1532062141096,-1,-6,-2,39,7,0,-2,2
1532062141101,1,-6,-10,-31,-6,1,10,1
1532062141106,-1,14,9,9,-3,-4,-12,-5
1532062141111,12,-3,3,15,0,-3,-4,6
1532062141116,-33,-10,-7,-13,2,1,2,-12
1532062141121,2,-6,4,25,4,0,7,3
1532062141126,-4,-17,-13,-30,-11,-4,-14,1
1532062141131,3,6,2,-2,-1,3,8,2
1532062141136,9,13,-2,-31,3,4,4,8
1532062141141,1,13,5,46,0,-1,-8,-6
1532062141146,-2,-10,-9,-23,-2,0,2,0
1532062141151,-8,-2,-3,-20,1,-5,-18,-8
1532062141156,7,-5,-2,-16,-14,-3,7,11
1532062141161,-3,1,4,1,3,1,-4,-7
1532062141166,4,9,-5,6,3,1,11,-1
1532062141171,-7,-6,-4,-5,2,0,4,-3
1532062141176,5,10,12,15,1,-2,-3,-10
1532062141181,1,-14,-7,-6,-2,-3,-1,4
1532062141186,-4,4,-10,-6,-1,0,1,-5
1532062141191,-3,-6,8,8,1,0,8,4
1532062141196,-3,5,-4,-4,-4,-4,-6,-5
1532062141201,-2,10,2,-5,-1,-5,-24,-4
1532062141206,-2,6,1,5,-1,-2,19,-4
1532062141211,-3,-2,-1,5,3,3,2,5
1532062141216,-2,-3,0,-7,1,2,12,0
1532062141221,2,6,-12,-15,-8,2,5,-3
1532062141226,-5,-10,0,4,-1,-6,-6,-1
1532062141231,1,13,1,11,-2,0,0,0
1532062141236,2,-3,0,14,1,-10,-15,-3
1532062141241,-1,-4,0,-16,-7,-4,2,2
1532062141246,2,6,9,13,7,14,17,2
1532062141251,1,6,-4,-11,17,5,-2,-1
1532062141256,-3,-7,-12,17,0,-2,0,-6
1532062141261,-1,-1,2,-34,-7,-6,-7,5
1532062141266,2,-5,2,6,-5,-5,0,1
1532062141271,-1,-2,-3,-60,-10,2,3,-2
1532062141276,-1,-7,-3,2,-7,1,0,-7
1532062141281,2,13,10,4,-1,-2,1,1
1532062141286,-4,-21,-1,14,8,-4,-3,-1
