1532319180344,2,-3,-1,-3,-1,-4,-22,1
1532319180349,1,-1,-1,-1,-2,0,-8,2
1532319180354,-1,-1,-2,-2,-1,0,-7,-1
1532319180359,0,0,0,0,4,0,-5,-4
1532319180364,-2,0,-1,1,-1,-5,-14,3
1532319180369,0,-2,-2,0,0,0,-32,-1
1532319180374,-3,0,-1,-2,-2,-2,-33,-4
1532319180379,2,-1,-1,-2,-3,1,-80,0
1532319180384,-5,-4,-1,0,1,2,-4,2
1532319180389,7,1,-2,-5,-5,-8,27,-4
1532319180394,5,-1,-1,0,0,1,28,-1
1532319180399,-4,-1,-1,0,0,1,71,-1
1532319180404,1,0,-1,-1,0,9,40,0
1532319180409,-1,-2,0,0,-3,5,52,8
1532319180414,-2,1,1,-1,-1,-5,-39,-2
1532319180419,-1,0,0,0,-4,-4,-19,-7
1532319180424,-1,-1,-2,-2,1,-4,-8,0
1532319180429,-6,-2,-1,2,3,2,14,2
1532319180434,3,-1,-1,1,4,3,-20,-6
1532319180439,1,0,-2,-2,-5,-13,7,9
1532319180444,-1,-1,0,-2,1,-1,7,-8
1532319180449,-4,-2,-1,-2,0,-5,38,-6
1532319180454,-3,0,-2,-1,-2,-2,-16,1
1532319180459,1,-1,-1,-1,0,8,-16,-5
1532319180464,1,0,0,0,1,-1,-7,1
1532319180469,-4,0,-1,2,0,0,-68,-1
1532319180474,-2,-2,0,0,-1,1,-7,1
1532319180479,-7,-2,-3,-1,-1,1,6,-5
1532319180484,0,-1,0,-2,-4,1,-50,0
1532319180489,0,0,1,0,2,4,-96,2
1532319180494,1,-2,-1,0,-2,-23,-123,-9
1532319180499,2,2,0,-4,-5,10,-119,4
1532319180504,-1,-2,0,-1,4,9,4,2
1532319180509,-4,-1,-2,-2,-1,-7,59,-12
1532319180514,-1,-1,-1,-1,0,8,126,-2
1532319180519,2,-3,-1,-1,1,-10,125,1
1532319180524,0,-1,-1,-2,-3,-3,79,1
1532319180529,3,2,1,1,1,6,60,9
1532319180534,3,2,1,1,2,3,81,1
1532319180539,-1,-2,0,0,1,0,3,-5
1532319180544,-3,-3,-3,-2,-5,-6,12,-9
1532319180549,0,0,1,-1,-2,-3,-113,6
1532319180554,-1,0,0,0,5,4,-98,-4
1532319180559,-6,-1,-1,-1,-4,-8,12,-1
1532319180564,-4,-1,-2,0,0,-4,26,-9
1532319180569,3,-1,-2,-1,-2,-1,85,0
1532319180574,0,-1,-1,-1,-3,2,61,5
1532319180579,2,2,-2,1,2,9,-21,1
1532319180584,-3,-2,-3,-1,1,-8,6,-5
1532319180589,-4,-4,-2,-1,-1,0,20,-2
1532319180594,-5,0,-2,-3,-1,0,44,-2
1532319180599,-4,-1,-2,0,-1,1,61,-4
1532319180604,-6,-3,-2,0,-2,0,38,-5
1532319180609,12,3,-1,0,-2,-4,26,1
1532319180614,-3,-2,-1,-4,-5,-4,23,8
1532319180619,3,-1,-1,-1,-3,-5,28,-7
1532319180624,5,3,2,-1,4,5,-37,6
1532319180629,-5,-3,-2,-3,-5,-3,-3,-4
1532319180634,-2,0,1,1,1,1,-10,-3
1532319180639,-1,0,-1,-1,0,-1,4,9
1532319180644,1,1,1,0,-1,2,-21,0
1532319180649,-3,-1,0,-1,1,0,0,-4
1532319180654,0,0,8,3,0,0,14,1
1532319180659,-11,-3,-7,0,2,6,14,-10
1532319180664,7,1,-3,-3,-2,-3,-9,9
1532319180669,-2,3,0,1,1,2,-3,1
1532319180674,0,-4,-4,-2,-5,-3,-16,-1
1532319180679,-4,2,2,0,4,2,2,-7
1532319180684,-2,-2,1,0,-1,-2,2,-2
1532319180689,-3,-3,5,1,1,-2,14,-2
1532319180694,-2,-2,-4,-2,-2,0,-2,-3
1532319180699,0,-3,-2,-2,-1,-6,-18,0
1532319180704,0,3,-1,-2,-4,-5,12,5
1532319180709,6,-1,2,-1,-1,1,10,0
1532319180714,-3,-1,0,-3,-2,0,2,-3
1532319180719,3,-1,0,3,-1,-2,-6,4
1532319180724,-5,2,0,-1,1,0,-7,-4
1532319180729,-5,0,-2,-2,1,2,1,4
1532319180734,-2,0,0,-2,-1,-2,-15,-3
1532319180739,-5,-3,2,-2,-2,0,4,0
1532319180744,-1,2,-3,1,-2,0,-30,-7
1532319180749,-4,3,-2,-2,-1,-2,-28,-4
1532319180754,3,2,-2,2,1,0,-33,3
1532319180759,-2,-3,0,-4,-1,-1,6,0
1532319180764,-1,-3,4,4,1,1,-5,-6
1532319180769,-3,-2,-9,-3,0,-1,-2,-4
1532319180774,-2,-1,-1,-2,-1,-2,-13,1
1532319180779,6,4,0,0,-4,-2,9,-1
1532319180784,-1,0,2,-1,-2,-2,-66,2
1532319180789,-3,-4,1,2,0,1,-21,-3
1532319180794,2,-7,-4,-3,-2,-3,-14,-2
1532319180799,-11,-6,-2,-4,-2,-5,-1,0
1532319180804,2,1,-2,0,1,3,29,2
1532319180809,1,4,1,0,-1,-1,3,-2
1532319180814,-6,-5,0,1,-1,0,4,-4
1532319180819,3,-2,-1,-1,-1,-2,-13,-1
1532319180824,3,0,0,-1,-2,-3,29,3
1532319180829,-1,-5,-5,-3,-1,2,2,2
1532319180834,-1,2,1,2,1,5,28,-5
1532319180839,9,1,-1,-3,-2,-3,-11,1
1532319180844,-1,-1,-1,0,-1,1,4,2
1532319180849,0,2,0,0,-2,-4,-25,-3
1532319180854,-2,-2,-3,-1,-3,-3,12,1
1532319180859,-1,0,0,0,1,0,-27,-3
1532319180864,-5,-8,-4,-1,0,3,8,-4
1532319180869,0,0,0,1,0,-3,8,1
1532319180874,-1,2,-1,-1,-1,0,0,1
1532319180879,-3,-3,0,2,0,-1,27,-5
1532319180884,2,-2,-3,-2,-2,-2,35,-2
1532319180889,-3,0,-1,0,-1,-1,10,-5
1532319180894,1,1,-2,1,1,0,10,1
1532319180899,3,-1,-1,-1,0,3,-47,5
1532319180904,1,1,-1,-2,-2,-4,-119,1
1532319180909,2,6,1,-2,-1,1,-47,-3
1532319180914,0,-7,-1,-2,-2,0,-14,-2
1532319180919,-3,1,1,-1,0,0,20,-2
1532319180924,-1,-2,0,0,1,0,40,-1
1532319180929,1,-2,-1,-2,-2,0,30,1
1532319180934,-1,2,-1,0,-1,-2,25,-3
1532319180939,-2,0,0,-1,1,0,-9,1
1532319180944,-2,-2,0,-3,-2,0,-1,1
1532319180949,-3,-3,5,2,0,-3,-4,-3
1532319180954,-2,1,-8,-1,0,0,-54,-2
1532319180959,0,-2,-1,1,-2,-2,-41,-3
1532319180964,2,0,-4,-2,-1,-3,16,2
1532319180969,0,-3,0,-3,-1,-1,69,1
1532319180974,-3,0,3,-1,-1,-1,88,2
1532319180979,3,1,-2,-1,-2,-2,54,-1
1532319180984,0,-1,2,-1,0,-1,17,-3
1532319180989,-1,-2,-2,-1,-2,1,-51,-1
1532319180994,1,-1,0,-2,-1,-1,-57,0
1532319180999,-5,-1,-3,-1,-1,-2,-16,-5
1532319181004,-2,-1,0,1,1,0,-32,0
1532319181009,4,-2,-2,-3,-4,-3,-76,2
1532319181014,-1,0,-1,-1,-1,1,-128,-2
1532319181019,0,-1,-1,-2,-1,0,-36,2
1532319181024,-3,-3,-3,0,-3,-1,62,-7
1532319181029,-1,-1,-1,0,-2,-1,53,1
1532319181034,-2,0,-1,0,-1,0,47,-2
1532319181039,0,-1,0,0,-1,1,65,-1
1532319181044,0,-1,0,1,0,-1,54,0
1532319181049,1,0,-1,-1,0,-1,14,1
1532319181054,0,0,0,-2,-1,-1,39,-5
1532319181059,-2,-1,1,1,3,2,21,0
1532319181064,-2,0,-1,-1,-1,0,18,-6
1532319181069,0,-3,0,-1,-1,-3,25,4
1532319181074,-1,0,0,-1,0,-2,-7,0
1532319181079,1,-1,1,-2,-2,-2,-21,2
1532319181084,-5,-1,0,0,-1,-1,-42,-1
1532319181089,-2,-1,-2,-1,-1,0,5,-2
1532319181094,0,1,0,-1,1,-1,21,1
1532319181099,-4,0,-1,1,-2,0,22,-2
1532319181104,-8,-3,0,1,2,3,-73,-11
1532319181109,3,-1,-1,0,0,0,-56,8
1532319181114,2,2,0,0,-1,-2,-18,-3
1532319181119,-2,-2,-1,0,1,1,-42,-3
1532319181124,1,0,-2,-1,-3,-1,-4,1
1532319181129,-10,-2,-4,0,-2,-3,4,-14
1532319181134,-4,-2,-2,-1,-1,-2,31,3
1532319181139,7,-2,-1,0,-1,-2,32,3
1532319181144,1,1,0,1,0,0,1,3
1532319181149,2,0,-1,-2,-1,0,26,2
1532319181154,-2,-1,0,-1,1,-2,30,2
1532319181159,-7,0,0,-1,0,-2,34,-7
1532319181164,-1,-3,-1,-1,-2,-2,31,0
1532319181169,5,3,-2,-1,-1,0,-15,-2
1532319181174,-3,-3,0,-2,-2,-3,7,-6
1532319181179,1,-2,-3,0,-1,-2,-4,5
1532319181184,0,0,-1,-1,-1,0,27,1
1532319181189,-5,-2,-1,0,-2,-2,47,0
1532319181194,3,1,-2,-1,-1,1,44,-1
1532319181199,2,0,0,-2,-1,0,31,2
1532319181204,1,0,1,1,-1,-1,12,-1
1532319181209,-3,-1,-1,-1,0,0,-52,-3
1532319181214,-2,1,-1,-2,-3,-1,-49,2
1532319181219,-2,0,-1,-1,0,-1,-32,-1
1532319181224,0,-2,-2,-3,-1,-2,12,0
1532319181229,-2,-2,-1,-1,0,-1,17,0
1532319181234,1,-1,0,-1,-2,-1,4,1
1532319181239,0,0,0,0,0,0,6,0
1532319181244,-4,-3,-1,-2,-1,-1,-6,-1
1532319181249,3,-1,-1,-1,1,0,10,1
1532319181254,-2,0,-2,-1,-2,1,-5,-1
1532319181259,0,1,-4,-1,0,-1,-15,-3
1532319181264,0,0,-2,-3,-1,-1,-21,2
1532319181269,2,0,-1,0,-3,-1,-3,0
1532319181274,-4,-1,0,-1,1,0,-24,-4
1532319181279,0,0,-1,0,0,-1,-30,1
1532319181284,2,1,-1,-1,-1,-1,-15,2
1532319181289,0,-1,-1,-2,-2,-3,12,-3
1532319181294,2,-1,3,-3,0,-1,5,2
1532319181299,-10,-1,-1,0,0,-1,-10,-9
1532319181304,-1,-3,-2,0,1,0,-5,4
1532319181309,1,1,0,0,-1,0,9,2
1532319181314,0,-3,-1,2,0,-2,4,-1
1532319181319,1,2,1,-3,-2,-1,-4,1
1532319181324,-3,1,-1,-1,-2,-3,-8,-4
1532319181329,-6,-3,-1,0,1,1,-15,-4
1532319181334,0,-2,-1,0,0,-1,-14,-2
1532319181339,2,1,-1,-2,0,-2,-10,2
1532319181344,3,-3,0,0,0,-2,-5,3
1532319181349,1,-1,-1,-1,0,0,3,-3
1532319181354,2,-1,-1,-1,-2,-1,10,2
1532319181359,0,-2,-2,-1,-2,0,1,0
1532319181364,1,2,1,-1,0,1,3,-1
1532319181369,-2,-1,-1,1,-2,-3,0,-2
1532319181374,-4,-1,-2,-1,-1,-3,0,-2
1532319181379,0,-4,-1,1,2,2,4,-3
1532319181384,1,-1,0,0,-1,1,0,-2
1532319181389,-1,-1,-2,-3,-1,-1,0,-1
1532319181394,2,1,-3,-2,-2,2,-3,3
1532319181399,0,-3,0,-1,-5,-2,-1,3
1532319181404,0,0,-2,-1,-3,-6,-16,-4
1532319181409,-4,-2,-1,0,-1,-4,-13,-6
1532319181414,0,0,-1,-1,0,4,15,3
1532319181419,-5,-2,0,0,-2,-1,12,-1
1532319181424,1,-1,-2,0,-1,-1,5,-1
1532319181429,-6,1,0,-1,0,0,1,-2
1532319181434,-1,-2,-1,0,0,-5,-14,-6
1532319181439,-1,-2,0,-1,0,-2,-4,0
1532319181444,-1,-2,-2,0,0,1,2,0
1532319181449,-1,-1,0,0,2,2,-4,-3
1532319181454,-3,1,-1,0,-2,-2,-10,-1
1532319181459,-5,-2,-2,0,3,5,10,-2
1532319181464,-1,1,0,-4,-9,-7,-4,0
1532319181469,3,-1,1,1,2,4,1,1
1532319181474,-1,-3,1,-1,1,0,0,-2
1532319181479,3,-1,-2,-1,1,0,-11,-2
1532319181484,0,-1,-1,-1,1,0,-6,-1
1532319181489,0,-1,0,0,0,0,7,0
1532319181494,0,-1,0,-2,-4,-3,-4,3
1532319181499,0,0,-1,-1,-1,-4,-10,-1
1532319181504,-2,0,-3,0,0,-1,2,-1
1532319181509,0,1,-1,-1,-2,-1,-1,0
1532319181514,-1,-2,1,-1,-1,1,-1,-4
1532319181519,0,-2,-1,-1,-2,-3,-7,-1
1532319181524,0,0,3,0,0,3,3,-1
1532319181529,-1,-3,-2,-1,-2,-3,1,1
1532319181534,-1,0,0,0,0,-1,-1,-2
1532319181539,-1,-1,0,-1,-2,-1,1,0
1532319181544,2,-2,1,-2,-2,-4,-3,0
1532319181549,-5,-8,-10,-5,-2,0,4,-5
1532319181554,-4,-18,-11,-2,-1,1,-7,-1
1532319181559,3,-1,-1,-2,-4,-6,-10,1
1532319181564,-2,-7,-13,-4,-2,-1,-7,-3
1532319181569,-1,-6,-9,-2,-4,-1,-6,-5
1532319181574,-3,-4,8,0,1,-1,-6,-3
1532319181579,-1,-2,-3,-1,0,-1,-6,-3
1532319181584,-2,-7,-5,-6,-2,0,2,-5
1532319181589,0,8,8,0,0,9,6,0
1532319181594,-2,-2,-5,2,1,-12,6,-5
1532319181599,0,1,7,3,2,1,-5,2
1532319181604,-1,3,1,1,-2,-4,-3,-4
1532319181609,-2,1,-4,-3,-3,-2,-18,2
1532319181614,-4,-5,-5,-4,-5,-2,-6,-2
1532319181619,0,1,-3,-2,-1,1,8,4
1532319181624,-1,-1,0,1,-1,1,3,3
1532319181629,-2,0,1,0,-2,-3,2,-3
1532319181634,-2,-4,-4,-3,-1,0,-4,-1
1532319181639,-2,-1,2,0,-2,2,-2,-3
1532319181644,1,2,0,1,2,-2,-1,2
1532319181649,0,1,-1,-2,-6,-8,3,-1
1532319181654,0,-4,-1,-1,6,-3,-5,2
1532319181659,-1,-1,-2,-2,-12,2,6,-1
1532319181664,-2,0,0,2,2,8,3,-2
1532319181669,-1,-1,1,2,4,4,11,-3
1532319181674,-2,-3,-1,-3,-4,-3,5,-2
1532319181679,1,2,2,1,3,-3,-3,4
1532319181684,-2,-1,-1,1,-5,-2,0,-4
1532319181689,-1,0,-1,-1,-5,-26,3,-1
1532319181694,-1,-3,-7,-2,0,34,5,5
1532319181699,-1,5,10,2,8,9,5,-1
1532319181704,1,2,1,0,-3,-3,-3,2
1532319181709,0,-2,-4,-3,2,6,13,4
1532319181714,-2,-6,-1,1,1,-8,9,2
1532319181719,-3,-4,-6,-1,-1,-1,-2,-2
1532319181724,-2,1,5,0,6,7,-17,-6
1532319181729,3,2,1,-1,-9,-8,-16,2
1532319181734,1,0,0,-2,1,-9,-7,-1
1532319181739,-3,-2,-4,0,4,-19,-7,0
1532319181744,-3,-3,-3,-1,-6,11,0,0
1532319181749,0,1,0,-1,-3,-2,-7,-2
1532319181754,0,-3,-3,-1,-3,-1,-5,0
1532319181759,0,-1,0,2,1,-28,-2,-2
1532319181764,0,0,1,-4,0,30,12,-1
1532319181769,-2,-2,-2,-3,-3,0,11,-1
1532319181774,-3,-3,-1,-2,-5,-1,12,6
1532319181779,-1,-1,0,0,3,2,10,-4
1532319181784,-1,-3,-2,1,6,-14,4,0
1532319181789,-1,0,-1,1,1,6,-3,-1
1532319181794,0,4,3,-2,1,-4,-4,-5
1532319181799,-1,-7,-14,-8,-9,0,-14,-1
1532319181804,0,-1,0,1,-5,-7,-4,4
1532319181809,-2,-1,-1,0,5,4,-6,-3
1532319181814,-1,-2,-2,-2,2,-3,-5,-5
1532319181819,1,4,4,1,6,18,-1,2
1532319181824,3,0,-2,-1,-6,-11,-6,-2
1532319181829,-2,-2,0,1,4,5,-11,-4
1532319181834,-2,-4,-4,-4,-1,-4,-20,-3
1532319181839,0,-1,0,-2,-8,-4,-24,-3
1532319181844,-2,-2,-3,1,2,-2,-12,-1
1532319181849,1,2,4,3,-3,-2,20,3
1532319181854,0,1,0,-3,-6,-3,53,0
1532319181859,-1,-4,-1,-1,1,-17,31,-4
1532319181864,0,0,0,-2,-2,12,10,3
1532319181869,0,-1,-4,-2,0,0,-23,-3
1532319181874,1,0,0,0,0,7,-3,-3
1532319181879,-2,-1,1,3,-3,2,10,0
1532319181884,-1,1,1,1,-2,-14,20,-2
1532319181889,-1,0,1,1,8,4,21,0
1532319181894,0,-3,-2,-1,-8,-7,13,-3
1532319181899,0,0,2,-2,-3,4,19,-1
1532319181904,1,0,-2,0,6,-2,2,-2
1532319181909,-3,-3,-2,-3,1,2,-10,-2
1532319181914,-1,7,9,0,-6,-9,-28,1
1532319181919,0,-2,-9,-4,2,8,-25,2
1532319181924,1,-3,-1,-1,-6,-4,-21,1
1532319181929,0,0,-1,0,2,-1,-21,0
1532319181934,1,-4,-3,-4,-8,-10,-9,2
1532319181939,1,2,0,-1,-3,-4,-7,0
1532319181944,1,2,-3,-1,-3,3,1,-4
1532319181949,1,0,-1,2,2,1,13,7
1532319181954,-3,0,-5,-2,-1,-1,9,-2
1532319181959,1,-2,2,1,-1,-2,8,1
1532319181964,-2,-3,0,3,3,4,-4,-1
1532319181969,-1,-2,1,-2,1,3,-9,-3
1532319181974,-3,-5,-12,-3,-8,-7,-12,-3
1532319181979,-1,1,1,0,-1,1,-8,-2
1532319181984,-1,0,-2,-1,1,-2,-10,0
1532319181989,0,0,3,3,-1,3,-8,1
1532319181994,-4,-1,4,-4,0,-1,-6,-3
1532319181999,1,0,-1,3,5,2,-5,1
1532319182004,0,6,2,-3,-2,-9,-9,-1
1532319182009,0,-1,-7,-5,-7,2,-2,0
1532319182014,0,3,3,-1,-4,-5,0,0
1532319182019,-2,-4,-3,0,-1,-1,0,-3
1532319182024,-3,-3,-1,0,1,0,-7,3
1532319182029,-6,-8,-2,4,3,0,-12,-4
1532319182034,4,1,-3,2,6,2,-8,-1
1532319182039,5,7,5,-4,-5,-1,-2,4
1532319182044,1,0,-1,-3,0,0,3,-1
1532319182049,-1,-1,0,1,0,-1,8,-2
1532319182054,-5,-5,-1,1,8,-1,8,-3
1532319182059,-3,-3,-8,-4,0,0,3,-1
1532319182064,4,-1,1,-5,-11,-8,0,-1
1532319182069,1,3,-2,-3,-5,-1,0,-5
1532319182074,5,7,19,6,1,1,2,7
1532319182079,-1,-5,-3,1,1,1,1,-3
1532319182084,-3,-3,-3,-1,5,-7,-6,-5
1532319182089,0,-8,-6,3,12,6,-4,2
1532319182094,-2,-7,-12,-6,4,0,2,2
1532319182099,0,10,3,-10,-11,-4,-7,3
1532319182104,-4,-1,-2,-5,-3,1,-20,-2
1532319182109,2,8,14,5,-11,-3,-51,0
1532319182114,2,1,0,3,1,3,-39,1
1532319182119,-4,-9,-3,6,9,2,-11,-2
1532319182124,-1,-3,-5,-3,2,2,5,-2
1532319182129,-3,-4,-5,-3,2,-1,8,-2
1532319182134,-2,-1,-2,-4,-3,-5,-11,-5
1532319182139,-1,-1,0,-6,-4,-6,-13,-3
1532319182144,1,0,-1,-1,-8,1,-20,-1
1532319182149,0,2,1,2,5,5,-35,-2
1532319182154,-2,1,4,12,15,6,0,-5
1532319182159,1,-2,-2,-5,0,-19,-49,2
1532319182164,-3,-4,-9,-12,-18,-7,-67,9
1532319182169,-2,-1,0,-11,-23,-5,-27,2
1532319182174,-1,-1,-3,0,4,3,-19,1
1532319182179,1,1,4,5,-2,2,-4,0
1532319182184,2,2,2,5,12,0,42,-2
1532319182189,3,0,0,4,4,1,55,1
1532319182194,-1,-1,1,-3,-8,3,79,-3
1532319182199,0,1,3,-1,-2,1,86,-4
1532319182204,-7,-5,-11,-6,-4,-1,65,-5
1532319182209,2,3,2,1,1,-2,48,-2
1532319182214,-1,3,5,-1,-3,0,42,0
1532319182219,-1,2,-1,-1,-5,0,18,-3
1532319182224,0,-5,-1,5,5,5,20,-3
1532319182229,-2,-2,-3,-1,9,-1,32,-3
1532319182234,-2,-2,-3,-4,-11,-6,1,0
1532319182239,-1,-2,-5,-6,-5,-4,-1,2
1532319182244,-1,0,4,1,3,1,9,-2
1532319182249,-1,1,3,1,0,1,2,4
1532319182254,-1,-2,-5,0,0,-2,-14,0
1532319182259,-3,-3,-2,2,1,2,-6,-2
1532319182264,4,9,12,3,4,6,4,-1
1532319182269,-3,-10,-16,-15,-6,-10,-6,-8
1532319182274,0,-2,-6,-7,-11,-5,-10,-3
1532319182279,0,-1,-1,2,-1,2,10,0
1532319182284,-1,1,4,6,3,2,1,1
1532319182289,1,1,4,1,6,1,-5,1
1532319182294,-3,1,-1,-6,-10,-4,-2,0
1532319182299,-3,-6,-6,2,5,3,1,-1
1532319182304,0,2,4,3,5,-1,-8,4
1532319182309,2,2,-3,-3,-5,-12,-1,2
1532319182314,1,-1,0,-3,-3,4,-5,1
1532319182319,-1,1,-3,0,-1,0,-8,-5
1532319182324,-2,-5,-7,-1,-1,-1,-8,-2
1532319182329,-2,-1,1,4,0,-2,-4,0
1532319182334,-1,-2,2,0,3,-2,-8,0
1532319182339,-1,-1,1,-3,-3,0,-5,0
1532319182344,1,-1,-1,-4,-6,-4,-4,0
1532319182349,-1,-1,0,0,-2,2,-3,1
1532319182354,0,0,-1,2,7,-1,-8,-1
1532319182359,-2,-3,0,-3,-11,-1,-8,-3
1532319182364,0,0,-1,0,-2,-4,-3,-1
1532319182369,-1,0,0,2,1,4,-3,0
1532319182374,-2,-1,-1,0,-6,2,-7,-2
1532319182379,1,0,-6,0,5,4,-1,2
1532319182384,-1,0,3,1,1,3,-2,0
1532319182389,-1,-1,-2,-2,-4,2,-5,-1
1532319182394,0,0,-2,0,5,-4,-6,0
1532319182399,-2,-3,2,1,0,0,-6,-2
1532319182404,0,-2,-3,-5,-5,-3,-5,1
1532319182409,-1,1,1,2,7,1,1,-1
1532319182414,0,0,-3,-3,-6,-9,-2,-1
1532319182419,0,0,-5,-4,-5,8,1,0
1532319182424,0,-3,-1,-1,0,2,0,-1
1532319182429,1,4,4,-2,-5,-6,1,-1
1532319182434,-3,-5,-5,-4,2,-2,-1,-2
1532319182439,-1,0,5,2,2,-3,-2,-4
1532319182444,-1,-1,-9,1,-3,0,-3,2
1532319182449,1,-1,-1,-1,1,3,-3,0
1532319182454,-1,0,2,-1,-1,0,-1,-1
1532319182459,0,1,-1,-3,0,-3,-1,-2
1532319182464,-3,0,-3,-3,-3,-3,-1,-5
1532319182469,-1,-1,-2,-1,-5,-4,0,3
1532319182474,-1,0,-1,-2,-2,1,-2,9
1532319182479,-1,-2,-2,0,-2,0,0,6
1532319182484,-1,3,1,2,7,-15,-4,16
1532319182489,-1,-2,-2,-5,-20,10,-4,2
1532319182494,-2,-2,-1,2,4,14,0,5
1532319182499,-1,0,0,2,2,-5,-2,8
1532319182504,-1,-1,2,-1,2,4,0,-3
1532319182509,-1,-1,-2,-1,3,-9,-1,-18
1532319182514,0,1,2,-1,-3,-3,-3,-15
1532319182519,0,-2,0,0,4,12,0,-14
1532319182524,-3,-2,3,0,-7,-6,-3,-10
1532319182529,-1,-1,-1,0,6,2,2,3
1532319182534,0,-1,-3,2,2,0,1,-49
1532319182539,-1,-1,-4,-1,-1,-8,-2,-32
1532319182544,-1,-6,-7,-4,-6,4,-2,-15
1532319182549,1,0,-1,5,4,4,2,5
1532319182554,1,-1,-1,1,-3,-3,-1,33
1532319182559,0,-1,-1,1,2,2,-1,28
1532319182564,-1,1,1,5,9,-52,-6,12
1532319182569,-4,-2,-1,-8,-35,47,-5,10
1532319182574,2,5,-1,-1,17,27,7,9
1532319182579,-2,-5,0,-4,-3,-5,-2,0
1532319182584,2,0,-1,-4,-3,12,0,-1
1532319182589,-1,-1,0,3,10,-28,-5,-4
1532319182594,-2,-4,1,1,-8,-11,-2,-5
1532319182599,-3,2,-1,-1,-3,10,0,1
1532319182604,-2,-3,-1,-3,-1,0,0,-1
1532319182609,-1,2,0,-1,6,-9,-1,-5
1532319182614,-1,-3,-2,-1,-4,3,1,3
1532319182619,-2,-1,0,0,0,-12,-2,1
1532319182624,1,10,4,1,-2,10,2,1
1532319182629,-10,-1,6,4,8,0,5,-5
1532319182634,-7,-9,-9,-8,-17,-12,-6,7
1532319182639,0,-6,-4,1,1,-3,1,5
1532319182644,-4,-7,-4,-1,-3,10,-1,-7
1532319182649,17,19,6,2,11,8,0,2
1532319182654,1,2,-1,-2,0,-12,-2,-5
1532319182659,-3,-28,-8,-2,-9,-7,1,-3
1532319182664,14,28,20,2,-4,12,4,5
1532319182669,-11,-11,-5,-7,-6,-15,-8,-7
1532319182674,1,2,-36,-17,-3,-2,-1,-2
1532319182679,-9,-2,-5,-3,-3,0,-7,-5
1532319182684,-7,-16,-5,-4,1,3,-1,-3
1532319182689,-3,-11,5,-1,0,-8,-6,-4
1532319182694,7,10,13,6,1,1,0,7
1532319182699,-1,1,3,-2,0,2,1,0
1532319182704,0,-3,-3,2,1,3,1,3
1532319182709,-3,2,-5,-2,-2,-3,2,-20
1532319182714,0,-6,3,2,-1,4,8,19
1532319182719,9,16,8,15,12,1,-8,4
1532319182724,-11,-7,-15,11,-7,-5,-22,-31
1532319182729,0,-14,-44,-42,-16,-10,8,14
1532319182734,-6,4,11,-4,3,-2,-10,-18
1532319182739,3,12,29,-3,-5,14,26,5
1532319182744,-4,-5,-7,0,-1,-12,-27,-6
1532319182749,-1,-1,11,8,-6,-19,-23,9
1532319182754,-1,-4,-5,8,4,-3,-1,21
1532319182759,1,9,31,8,4,2,0,17
1532319182764,-2,-4,-24,-15,-6,15,30,-9
1532319182769,8,4,17,19,16,13,7,25
1532319182774,-2,-6,-12,-11,-7,-18,-33,-15
1532319182779,6,4,9,-3,0,0,-3,-16
1532319182784,-3,-6,46,2,-2,0,2,-6
1532319182789,5,9,-35,2,10,18,23,-7
1532319182794,1,3,18,2,-1,-2,6,-7
1532319182799,-3,-5,-1,-4,1,-4,17,-5
1532319182804,2,-1,-1,-15,-15,-17,0,5
1532319182809,-3,-3,6,3,-2,-7,-5,-3
1532319182814,-2,2,10,8,-4,10,11,0
1532319182819,-5,-2,-9,-6,2,2,-10,-6
1532319182824,4,3,-3,-5,6,7,-3,11
1532319182829,-5,-4,1,5,-1,-2,-11,-8
1532319182834,-1,-7,-10,-3,1,-4,-11,-5
1532319182839,-3,2,-22,-4,-4,-7,-2,1
1532319182844,-1,-1,-4,8,3,2,-2,5
1532319182849,-17,-7,0,-11,-11,-13,-19,-8
1532319182854,12,0,3,-3,1,10,17,1
1532319182859,15,-1,-8,2,4,4,-3,1
1532319182864,-11,-2,4,4,3,3,7,-4
1532319182869,-5,4,7,-9,3,3,9,-4
1532319182874,-4,5,10,6,-5,-11,-5,-8
1532319182879,-2,-8,5,0,-9,-10,-5,-8
1532319182884,6,-1,-20,-2,-1,2,-20,-8
1532319182889,12,8,-13,-16,1,1,8,12
1532319182894,-8,-5,-7,9,4,4,12,28
1532319182899,-7,-2,18,-5,-1,-2,-11,3
1532319182904,-1,-1,2,1,6,3,0,1
1532319182909,1,-2,18,10,4,7,20,28
1532319182914,2,2,0,-6,-17,-13,-13,-20
1532319182919,-4,-1,-15,-5,-5,-5,-6,-12
1532319182924,0,0,-1,-2,-2,-2,8,8
1532319182929,4,-3,2,8,3,4,0,-22
1532319182934,1,-2,-2,-2,8,6,5,-6
1532319182939,-4,1,-15,-1,1,0,-2,-1
1532319182944,-3,0,4,0,5,6,2,-5
1532319182949,-2,-3,-1,-2,-13,-9,-7,-7
1532319182954,-5,-1,-5,-2,-2,-5,-7,-3
1532319182959,3,2,-4,-2,-3,1,-3,15
1532319182964,5,-1,0,4,5,9,8,9
1532319182969,0,0,2,3,6,1,-6,0
1532319182974,-3,-2,0,-2,-2,0,-3,-5
1532319182979,-7,-3,-8,-4,-8,-28,-6,-9
1532319182984,4,-2,-6,-18,-37,9,0,1
1532319182989,-2,-1,-2,5,11,1,-1,-3
1532319182994,-3,-1,3,-2,0,12,1,-1
1532319182999,0,-2,-3,5,13,-12,0,3
1532319183004,-1,-1,-2,-1,8,12,-3,0
1532319183009,-1,-2,3,-6,-28,-36,-8,-3
1532319183014,-1,-1,0,0,16,11,8,5
1532319183019,1,0,-6,-3,-10,19,-13,-5
1532319183024,0,-1,-1,0,12,-9,10,3
1532319183029,-2,-2,-2,3,4,5,-1,-2
1532319183034,-3,-1,1,2,-2,-18,2,-3
1532319183039,1,-1,-7,-8,-3,11,-9,-3
1532319183044,-4,-1,2,-1,2,-1,12,0
1532319183049,1,-2,1,4,6,-1,-1,1
1532319183054,0,-1,0,-2,-6,-7,-4,2
1532319183059,-1,1,-1,0,0,-4,-3,2
1532319183064,-1,-2,-1,1,1,-10,-7,2
1532319183069,-1,-4,0,-3,-3,16,0,-8
1532319183074,1,1,-2,-2,-4,-6,-5,-6
1532319183079,0,-2,-1,0,2,5,8,-3
1532319183084,0,0,-2,0,2,-13,-3,-2
1532319183089,-1,0,0,4,1,-26,-3,-1
1532319183094,0,-2,-2,-1,-6,-1,-3,4
1532319183099,-2,1,-1,-2,2,3,-2,-2
1532319183104,0,-1,1,2,3,1,0,-2
1532319183109,-3,-2,0,1,2,-7,2,-2
1532319183114,-2,0,-1,-3,-13,11,-3,2
1532319183119,-2,-1,0,0,12,12,0,4
1532319183124,0,0,-4,-4,-22,-32,-3,4
1532319183129,0,-1,-3,-2,15,43,8,6
1532319183134,-1,-1,-1,-1,-6,-10,-3,2
1532319183139,1,0,0,0,6,18,1,-1
1532319183144,-1,0,0,0,7,-13,-1,-1
1532319183149,-1,0,-2,-1,-2,-4,-2,-3
1532319183154,0,-1,-1,0,-5,5,1,-2
1532319183159,0,-2,-1,-2,-3,-3,0,-3
1532319183164,-2,-2,0,1,5,-5,0,-4
1532319183169,-1,1,1,0,-2,2,-1,-4
1532319183174,1,-2,-1,-4,0,-11,-4,-1
1532319183179,-2,-1,-1,1,-15,-40,-5,0
1532319183184,1,0,-4,-5,-3,32,2,1
1532319183189,-2,-3,1,1,2,4,2,11
1532319183194,-2,-1,-2,-1,2,-2,-3,9
1532319183199,-1,0,3,3,2,19,-3,-6
1532319183204,0,0,-1,-4,-6,-27,-2,-17
1532319183209,-2,-2,-2,-2,-9,-14,3,-24
1532319183214,1,1,0,1,5,-36,-2,-14
1532319183219,0,-2,-3,-4,-6,39,-3,-5
1532319183224,-3,-2,0,0,0,7,-6,3
1532319183229,-1,-1,0,0,2,-6,0,-8
1532319183234,0,-1,0,-2,-2,-9,4,15
1532319183239,-2,-1,0,2,7,0,-17,2
1532319183244,-1,-2,0,-1,-2,18,26,5
1532319183249,-1,0,1,0,2,-5,7,10
1532319183254,-3,-1,0,0,-3,6,-1,-4
1532319183259,-1,-2,-1,-5,-5,-14,-6,-2
1532319183264,-1,-1,-1,3,2,0,-6,4
1532319183269,-2,-2,0,0,-1,1,7,4
1532319183274,3,2,-3,-5,-3,2,-18,-6
1532319183279,0,0,-2,0,3,2,-4,2
1532319183284,2,0,0,0,0,-7,11,3
1532319183289,1,-2,0,1,-1,-2,-8,1
1532319183294,-1,0,0,2,5,5,8,0
1532319183299,0,-2,-2,-4,-8,-15,-22,1
1532319183304,1,1,-1,1,9,30,12,2
1532319183309,0,-1,-1,-1,0,-18,1,0
1532319183314,0,-1,-1,-1,-4,46,27,1
1532319183319,-1,-1,-3,-2,3,-9,-37,-1
1532319183324,-1,-1,1,2,7,10,65,-2
1532319183329,-1,-1,-1,-3,-6,3,-16,-7
1532319183334,-1,-2,1,2,2,-14,7,1
1532319183339,0,0,0,-1,-2,-3,4,3
1532319183344,-1,-1,-2,-2,-5,4,-27,1
1532319183349,-2,0,-2,-2,-2,-10,-10,13
1532319183354,0,-3,-1,1,0,-6,1,9
1532319183359,0,1,0,2,1,6,2,36
1532319183364,-1,-2,-2,-2,-1,-13,-23,19
1532319183369,-1,1,-3,-1,-8,-5,-9,11
1532319183374,-3,-1,-2,-1,3,-3,-13,13
1532319183379,-1,-2,-1,-3,-2,6,26,9
1532319183384,-2,-1,-2,0,-2,-14,-24,8
1532319183389,-2,0,-1,0,0,2,12,-9
1532319183394,1,1,-2,-1,2,4,3,-20
1532319183399,-3,-1,-1,0,0,-3,8,-38
1532319183404,-2,-1,0,-1,-2,-7,-6,-28
1532319183409,0,-2,-1,-1,-1,4,3,-16
1532319183414,-3,-1,-3,0,0,-3,-6,-8
1532319183419,0,0,-1,2,0,-2,4,-3
1532319183424,2,-1,1,-1,-5,-4,-12,-9
1532319183429,1,-1,-3,-5,-5,3,4,12
1532319183434,-2,0,0,-2,-5,-5,-14,10
1532319183439,0,0,-2,-1,3,2,10,7
1532319183444,-1,-2,-2,0,0,-3,-1,-1
1532319183449,-1,0,0,2,0,-3,-3,-11
1532319183454,-1,-1,0,0,-3,-2,0,-19
1532319183459,-1,1,-1,-1,4,1,3,-17
1532319183464,-1,0,0,3,-5,-3,-3,-10
1532319183469,-2,-1,-2,-5,0,-2,-3,-10
1532319183474,0,-1,1,0,2,-3,-4,0
1532319183479,0,-2,0,-5,-21,-2,7,-3
1532319183484,-2,-3,-1,-8,2,-5,-8,-3
1532319183489,1,-1,0,8,8,1,0,4
1532319183494,-2,-1,1,6,-8,0,-1,3
1532319183499,0,-2,-2,-22,-3,-4,2,-5
1532319183504,-1,-2,-3,-2,-9,-5,-2,-2
1532319183509,0,0,0,1,3,3,0,-42
1532319183514,1,-1,1,4,10,2,-1,-29
1532319183519,0,-1,1,11,0,-1,4,-18
1532319183524,1,0,-1,-4,0,-1,-2,2
1532319183529,-1,0,0,1,2,1,1,21
1532319183534,-1,0,0,-2,0,-1,-1,13
1532319183539,-1,-1,0,-2,-4,-2,0,15
1532319183544,-1,0,0,1,5,1,-1,16
1532319183549,0,0,-1,0,-4,-1,-2,10
1532319183554,1,-1,-1,-4,-6,-3,-1,5
1532319183559,0,-1,0,2,3,-2,-6,9
1532319183564,-1,-1,-2,3,3,1,4,3
1532319183569,-2,0,-1,-3,-5,-3,-9,2
1532319183574,-2,-1,-2,-4,-1,-1,3,3
1532319183579,0,0,0,2,3,2,6,1
1532319183584,-1,0,-1,3,0,-1,-2,-3
1532319183589,-2,-2,0,-2,-6,-2,5,0
1532319183594,2,0,-1,0,4,6,18,8
1532319183599,-2,0,-2,2,0,-1,0,-1
1532319183604,-2,0,0,-2,-5,-1,0,-1
1532319183609,-1,-1,-1,-2,0,0,-10,2
1532319183614,-2,-1,-2,-1,0,-4,-10,-2
1532319183619,1,-1,1,2,-1,1,1,-3
1532319183624,0,-1,0,-1,2,0,-8,-2
1532319183629,-2,-1,-1,-2,-1,-1,-2,-1
1532319183634,-1,-1,0,-1,-1,-2,-5,-3
1532319183639,-2,-1,-3,0,0,0,0,-2
1532319183644,-1,-4,0,0,0,-3,-4,-2
1532319183649,2,0,-1,-2,-2,-1,5,2
1532319183654,-1,-1,-3,-3,-2,0,-3,-1
1532319183659,-1,-2,0,-1,1,0,-6,-1
1532319183664,2,2,-1,-2,-2,-1,0,1
1532319183669,1,-3,-1,0,-1,0,3,2
1532319183674,-2,0,-2,-3,-1,0,-5,0
1532319183679,-2,0,-2,-2,-1,-3,-1,1
1532319183684,0,-1,-1,0,1,-1,1,-2
1532319183689,1,1,0,1,-3,-1,0,0
1532319183694,0,-1,0,1,0,-3,-5,-1
1532319183699,-1,0,0,0,-2,-2,1,-1
1532319183704,0,-2,-1,1,-1,-1,2,-1
1532319183709,-3,-1,-1,0,0,-2,0,-5
1532319183714,-1,-3,0,-2,1,-3,0,-5
1532319183719,1,-2,0,-1,-3,1,4,-5
1532319183724,-1,-2,0,-2,-4,1,-2,-2
1532319183729,0,0,-1,0,-3,0,0,-1
1532319183734,0,0,-1,-1,-1,-2,1,0
1532319183739,-2,1,0,-1,0,-2,0,0
1532319183744,-1,1,0,0,2,-1,0,2
1532319183749,-1,0,0,0,2,1,0,2
1532319183754,-1,0,-1,-1,0,0,0,1
1532319183759,-1,-2,-2,-1,1,1,-8,1
1532319183764,-2,0,-1,1,1,1,-15,0
1532319183769,-1,0,-1,0,-1,1,-7,1
1532319183774,-2,0,-1,0,-1,1,-5,0
1532319183779,-1,-2,-3,-1,0,-1,5,-1
1532319183784,-1,1,0,0,-1,-1,8,-2
1532319183789,-1,-2,-2,-1,1,1,4,0
1532319183794,-1,-2,-1,-2,0,-1,3,0
1532319183799,-1,-2,-1,-1,-1,0,0,-2
1532319183804,0,-2,0,-1,0,0,2,-2
1532319183809,0,-1,-2,-2,0,-1,-1,0
1532319183814,-1,-2,-1,-1,-1,-1,0,-2
1532319183819,-1,-1,-1,1,-1,-3,-1,-1
1532319183824,-2,-1,-2,-1,-1,-1,0,-1
1532319183829,-1,0,0,-1,-1,-4,2,0
1532319183834,-2,-1,-1,-1,0,0,-2,1
1532319183839,0,0,-1,0,0,0,0,-1
1532319183844,-1,1,-2,0,-1,-1,0,-1
1532319183849,-1,-4,0,-1,-2,-2,-3,-2
1532319183854,-2,-2,0,1,-2,-1,-2,-3
1532319183859,-2,-1,0,0,-2,0,-1,1
1532319183864,0,0,-2,-1,-2,-1,0,0
1532319183869,-2,0,-1,1,-1,2,1,-1
1532319183874,-1,0,-1,0,0,-2,-1,1
1532319183879,-1,-1,0,-2,-1,-1,2,0
1532319183884,-2,0,-1,0,-2,-1,-2,0
1532319183889,0,-2,-2,-1,0,-1,-3,0
1532319183894,0,0,-2,-2,-3,0,-2,-3
1532319183899,-1,0,0,-2,2,1,-3,-1
1532319183904,0,0,0,-2,-2,0,-1,-2
1532319183909,-2,-1,0,0,-2,-1,0,0
1532319183914,0,0,1,-1,-1,-1,-1,-1
1532319183919,0,-1,-1,-2,-2,-1,1,-2
1532319183924,-1,-2,-1,-1,-1,-3,0,-1
1532319183929,0,-1,0,0,-1,0,-1,-1
1532319183934,-1,0,-2,-1,-2,0,-2,-2
1532319183939,-1,-1,0,0,-1,-2,0,-2
1532319183944,0,-1,0,0,-1,-1,-1,-1
1532319183949,1,1,0,0,0,-3,0,-2
1532319183954,0,0,-1,-2,1,-1,-1,-1
1532319183959,-1,-1,-1,-1,0,-2,-2,-1
1532319183964,-2,-1,0,0,-2,-1,-1,0
1532319183969,-1,-1,-1,0,0,0,0,-1
1532319183974,-1,0,-1,0,-2,-1,-1,-1
1532319183979,-1,-1,-1,1,-1,0,1,1
1532319183984,-2,-1,0,-1,0,-1,-1,-2
1532319183989,-3,-1,-2,-1,-1,-1,-2,0
1532319183994,-2,-1,-2,-1,-1,1,-1,-2
1532319183999,-1,0,0,0,-1,-2,-1,-1
1532319184004,-2,1,-1,-1,0,-1,-1,1
1532319184009,-1,-2,-1,0,-1,0,0,0
1532319184014,-1,0,-1,0,0,-1,1,0
1532319184019,-1,0,0,0,-1,1,0,-1
1532319184024,-2,1,-2,-2,0,0,0,-1
1532319184029,-1,-1,-2,-1,-1,-1,-2,-1
1532319184034,-1,-1,-2,-2,-3,-2,-2,-1
1532319184039,1,0,-2,-2,-2,-1,-3,0
1532319184044,0,0,1,0,0,-1,-1,-2
1532319184049,-1,0,0,0,0,0,-2,-1
1532319184054,-1,-2,-2,0,0,0,-2,-2
1532319184059,-1,0,-2,-1,-1,-2,-4,1
1532319184064,1,-2,-2,-1,-1,-1,-3,0
1532319184069,-1,-2,-1,-2,0,-1,2,-1
1532319184074,0,-2,0,-1,0,-1,1,-1
1532319184079,-2,-1,0,-1,0,1,0,-2
1532319184084,0,-2,-1,-1,0,-1,0,-1
1532319184089,2,1,-2,-4,-3,-2,-1,2
1532319184094,-2,-1,-1,-2,0,-2,0,0
1532319184099,-1,-1,1,0,-1,0,1,-2
1532319184104,-1,-2,1,1,-2,1,-1,-1
1532319184109,0,1,1,-1,-1,0,0,-1
1532319184114,2,0,-1,1,0,-1,-4,-2
1532319184119,1,-2,-1,0,-1,-2,-2,-2
1532319184124,-1,-1,-3,-2,-1,-2,-2,-2
1532319184129,-2,0,-1,-1,1,0,-1,-2
1532319184134,-1,0,0,0,0,1,-2,-1
1532319184139,0,-2,-1,-1,1,-1,-1,-1
1532319184144,1,-1,0,-2,-2,0,1,0
1532319184149,-2,-1,0,0,0,-2,0,-1
1532319184154,0,-1,0,-2,1,1,1,-1
1532319184159,-2,-1,0,-1,-1,-1,-3,0
1532319184164,-1,0,0,-3,-2,-1,0,0
1532319184169,0,-1,-1,1,1,0,0,-1
1532319184174,0,0,0,-1,-1,-2,0,-1
1532319184179,-1,0,1,2,-1,0,0,-2
1532319184184,-2,0,-1,-1,-1,0,-1,-3
1532319184189,1,-2,0,-1,-1,-1,0,-3
1532319184194,-2,-1,-2,0,0,-2,-2,0
1532319184199,0,0,-2,-2,-2,-2,-1,-1
1532319184204,0,0,0,0,-1,-2,-1,0
1532319184209,0,-1,0,-1,-1,0,-1,-1
1532319184214,-1,0,-1,0,-2,-1,0,0
1532319184219,-1,-1,0,-1,-1,-1,0,-1
1532319184224,-1,-1,-2,0,1,0,-2,-2
1532319184229,-2,1,-2,0,1,2,-2,1
1532319184234,-2,-1,-2,1,5,2,0,0
1532319184239,0,-1,0,-7,-8,-5,-1,-1
1532319184244,-2,1,-2,1,-1,-5,-1,0
1532319184249,-1,0,4,-3,3,-5,-1,0
1532319184254,-3,-3,-12,0,-17,0,-1,-2
1532319184259,-1,-2,-3,-1,3,1,1,0
1532319184264,-1,0,0,-1,2,2,1,0
1532319184269,0,-2,-3,1,1,1,-1,-1
1532319184274,-1,1,4,0,5,-3,-1,-1
1532319184279,-1,0,-1,1,2,0,-1,-1
1532319184284,1,-2,-4,-3,-4,-1,0,0
1532319184289,-1,-1,-1,-1,1,1,-1,1
1532319184294,1,-3,1,-1,0,-1,-2,-1
1532319184299,0,-1,-1,0,-2,0,-1,0
1532319184304,-2,-2,2,0,1,0,0,-1
1532319184309,1,2,-3,-4,-3,-2,-3,-2
1532319184314,0,0,0,-1,-1,-1,0,-1
1532319184319,-1,-2,0,1,0,1,0,0
1532319184324,-1,-3,1,0,0,0,0,-1
1532319184329,-2,0,-1,0,-4,-2,0,-1
1532319184334,0,0,-3,0,0,-4,0,1
1532319184339,0,1,0,-1,1,0,-2,-2
1532319184344,-2,0,-1,0,-3,0,-1,1
1532319184349,-1,0,-3,0,-2,-1,-1,-1
1532319184354,0,-1,2,-2,0,-2,0,-1
1532319184359,-2,-2,0,-1,0,-1,1,-1
1532319184364,0,1,-2,-1,-2,-2,-2,1
1532319184369,-1,-1,-2,-2,-1,-2,-4,0
1532319184374,0,0,0,0,-1,0,-2,-1
1532319184379,-2,0,-1,0,0,1,-1,-1
1532319184384,1,0,-1,1,-2,-1,-1,-1
1532319184389,-1,-2,0,0,0,-1,-1,0
1532319184394,-1,-1,1,-3,1,0,-1,0
1532319184399,0,-1,-1,-1,-1,-2,-3,0
1532319184404,0,-1,0,-2,0,-1,-1,-1
1532319184409,-1,-1,0,1,-1,1,1,-1
1532319184414,-2,-2,1,2,0,0,0,-1
1532319184419,0,0,-2,-1,-2,0,2,2
1532319184424,-2,-3,-2,-2,-1,0,-1,-1
1532319184429,0,-4,-1,-1,-1,-2,-1,-1
1532319184434,-1,-1,-2,-1,1,-2,0,-1
1532319184439,0,-1,-1,1,-1,0,-1,-1
1532319184444,0,-2,0,-1,-2,0,1,-1
1532319184449,0,-1,0,-1,-3,0,-2,0
1532319184454,1,-1,1,-1,-1,0,-3,-1
1532319184459,-3,0,-1,-1,-2,-1,-1,-2
1532319184464,1,0,-1,0,-1,-1,-3,-1
1532319184469,0,0,-1,0,-1,-1,-1,-1
1532319184474,-1,2,0,-1,-1,0,0,1
1532319184479,0,0,-2,-1,0,-1,0,1
1532319184484,-1,-2,0,-1,0,-1,-1,-1
1532319184489,0,0,-1,0,-2,-2,1,-2
1532319184494,0,-1,-1,-1,-1,-1,-1,0
1532319184499,-2,-2,-2,-1,-4,-1,1,-2
1532319184504,-2,-1,1,1,-1,0,-1,-3
1532319184509,-2,0,-2,0,-1,0,-1,0
1532319184514,-2,-2,-1,-1,-1,0,-3,-2
1532319184519,-1,0,-1,-2,-1,-1,-4,-2
1532319184524,-2,0,-1,-1,1,0,-1,-1
1532319184529,-1,1,1,-1,-1,0,0,1
1532319184534,-1,-1,0,-2,-1,-1,2,1
1532319184539,-1,-1,0,1,-1,-2,0,-1
1532319184544,-1,-2,-2,1,0,1,3,-1
1532319184549,-1,0,0,-2,-3,-3,-1,-2
1532319184554,-1,0,0,0,2,0,2,0
1532319184559,-1,-1,0,-1,-2,1,-1,-1
1532319184564,-1,-1,0,2,4,-8,-3,2
1532319184569,-3,-2,-1,-4,-13,3,0,-1
1532319184574,0,-2,-1,0,0,4,-1,0
1532319184579,-1,-1,-2,-1,1,0,0,-1
1532319184584,-1,-1,1,-2,2,0,-1,-2
1532319184589,-2,-2,-1,1,2,-4,-4,-3
1532319184594,-2,0,-2,-2,-11,-63,-5,-2
1532319184599,-1,0,-1,-3,-8,67,7,0
1532319184604,-1,0,-1,2,7,20,3,1
1532319184609,-1,-2,0,0,3,7,0,0
1532319184614,-1,-2,-2,1,4,5,0,-1
1532319184619,0,-1,0,-1,-5,-32,-4,-3
1532319184624,-2,-1,-2,-2,-8,-10,0,-4
1532319184629,0,1,-2,-2,0,-7,0,1
1532319184634,-2,0,0,0,-5,4,-3,-2
1532319184639,0,0,1,-1,6,-3,0,1
1532319184644,-1,0,0,-2,-1,7,-1,0
1532319184649,-2,-1,0,0,3,-7,-1,-2
1532319184654,-1,0,-1,-1,1,5,-1,-1
1532319184659,1,-1,0,0,1,-6,-2,-2
1532319184664,-2,-1,-1,-1,-1,-3,-1,-1
1532319184669,0,-1,-1,0,1,-2,0,-1
1532319184674,-2,0,-2,0,-3,7,0,0
1532319184679,0,-2,0,1,2,-4,-1,-2
1532319184684,0,-1,-1,-3,-2,-5,-4,-2
1532319184689,-2,-2,-1,0,-4,-6,-1,-3
1532319184694,0,0,-1,-3,1,18,3,-1
1532319184699,-1,0,-2,0,1,-9,-3,-1
1532319184704,1,-1,-1,-1,-3,-7,-2,-2
1532319184709,-1,-2,0,0,2,3,-2,1
1532319184714,0,0,-1,2,0,2,1,-2
1532319184719,-1,-1,-1,0,-1,-9,-4,-1
1532319184724,0,0,0,-1,0,-3,0,1
1532319184729,0,-1,-1,1,-2,-7,1,-3
1532319184734,-1,-2,-1,-3,-1,1,-2,0
1532319184739,0,-1,-1,0,4,14,3,0
1532319184744,-3,-1,-1,0,-1,-1,1,-4
1532319184749,0,0,-1,-1,1,2,-1,-2
1532319184754,1,-1,-1,0,-1,-5,-2,0
1532319184759,-2,-1,-2,0,-2,-9,-2,0
1532319184764,-1,0,-1,-1,-1,4,0,1
1532319184769,0,0,0,-1,0,0,0,0
1532319184774,0,-1,-2,1,1,1,-2,0
1532319184779,-1,-1,0,-2,-1,-3,-2,-1
1532319184784,2,-2,-1,-2,-6,-3,-1,0
1532319184789,0,-2,0,-1,1,3,0,1
1532319184794,0,-1,-1,-1,0,5,-2,0
1532319184799,-1,0,0,0,0,-3,0,0
1532319184804,-3,-2,-2,0,-1,-4,-1,-2
1532319184809,1,0,-2,-1,-2,-4,-3,-3
1532319184814,-1,-2,0,1,1,3,-1,-5
1532319184819,0,-3,-1,1,-3,-14,0,-1
1532319184824,1,0,2,-1,7,25,4,2
1532319184829,-2,-2,-2,-3,-4,-4,-1,0
1532319184834,-1,-1,0,0,1,-2,-1,1
1532319184839,0,0,-1,1,-3,-7,-3,-1
1532319184844,-2,0,-1,1,2,-9,-3,0
1532319184849,1,1,1,1,-1,1,-2,-2
1532319184854,0,2,2,-5,-10,-25,-4,-1
1532319184859,-1,-1,-3,2,22,60,11,2
1532319184864,0,-2,0,-2,2,-7,-1,-2
1532319184869,0,0,0,0,-8,2,-3,-2
1532319184874,0,0,-4,-2,3,5,5,-1
1532319184879,0,0,-1,-2,-7,-20,-4,-2
1532319184884,-1,0,-2,-3,-3,5,-1,1
1532319184889,-1,0,1,2,2,-23,-4,-1
1532319184894,-2,-1,-2,0,0,14,-1,0
1532319184899,1,-2,-2,-3,-5,-31,-2,0
1532319184904,-3,-1,-3,-7,-37,-63,-13,-5
1532319184909,0,-1,-1,4,28,89,28,5
1532319184914,-2,0,-2,0,-2,-23,-7,-4
1532319184919,-3,-2,-1,-4,-1,35,-3,-4
1532319184924,0,-2,1,3,10,-80,-7,-1
1532319184929,-3,-1,-2,-6,-30,20,-5,-3
1532319184934,-1,-1,-2,1,0,0,-4,-6
1532319184939,-3,-2,0,2,-4,-50,-2,-1
1532319184944,-4,-2,-2,-8,-19,18,8,-5
1532319184949,2,1,2,1,9,4,3,16
1532319184954,-4,-3,-2,-4,-1,-15,-23,-28
1532319184959,0,-1,-3,2,4,12,-11,-5
1532319184964,1,-3,0,-1,-6,-25,16,6
1532319184969,-1,-2,-1,-3,-9,-31,-7,-3
1532319184974,0,1,0,-1,0,17,6,7
1532319184979,1,-1,-2,-1,-11,-3,4,-1
1532319184984,-3,-1,-1,2,10,13,37,-4
1532319184989,-1,0,-1,-6,-10,-18,-3,-7
1532319184994,6,1,2,6,17,43,21,12
1532319184999,-1,-2,0,-2,-1,11,6,-2
1532319185004,-1,-1,0,2,10,-4,-26,0
1532319185009,-3,-2,0,-1,-6,23,-3,-5
1532319185014,-2,-2,0,-6,-30,-73,1,1
1532319185019,-2,1,0,0,23,47,7,5
1532319185024,0,0,0,3,10,24,-20,1
1532319185029,-4,-4,-2,-6,-16,-64,-5,-9
1532319185034,0,-1,-2,3,0,37,8,3
1532319185039,-1,-1,-1,-5,-8,-8,7,1
1532319185044,0,0,-2,2,2,-11,-72,0
1532319185049,1,2,1,4,10,-3,30,4
1532319185054,-2,-1,-3,-3,-6,-8,26,2
1532319185059,-1,-1,-2,-2,0,7,-33,-1
1532319185064,0,2,-1,2,12,48,27,-2
1532319185069,-3,-2,-3,-5,-7,-18,-66,-5
1532319185074,0,-1,2,3,2,-22,15,-3
1532319185079,0,-2,0,7,8,45,22,7
1532319185084,1,-2,-1,2,16,-93,-38,-1
1532319185089,-2,-2,-4,-14,-14,35,-7,-2
1532319185094,-3,-2,-4,-9,-29,-10,-24,-4
1532319185099,-3,-1,0,-3,-19,-78,-11,-7
1532319185104,1,1,2,9,12,119,86,8
1532319185109,1,0,0,3,13,-8,17,4
1532319185114,-3,-1,1,1,11,-15,-48,-4
1532319185119,1,-1,-4,2,0,-4,-25,-4
1532319185124,-6,-3,-1,-5,-10,-45,1,-8
1532319185129,4,2,5,8,10,23,37,8
1532319185134,4,2,3,1,13,26,10,8
1532319185139,1,1,1,1,2,12,11,1
1532319185144,-3,-4,-4,-6,-15,-12,-59,-9
1532319185149,-2,0,2,2,-5,-36,-31,-7
1532319185154,3,1,-2,0,7,-9,25,6
1532319185159,-2,0,0,4,3,11,-3,-2
1532319185164,1,0,-3,-10,7,0,8,-2
1532319185169,-2,-3,-4,-5,-18,8,-2,-5
1532319185174,0,-1,4,-1,-4,2,-18,-4
1532319185179,0,-4,-13,-3,-4,8,9,14
1532319185184,0,2,13,3,-7,2,25,2
1532319185189,1,2,0,4,14,-18,7,-5
1532319185194,-3,-2,0,0,7,-8,-21,-6
1532319185199,-2,-1,0,-4,-4,16,8,-7
1532319185204,1,2,-2,5,0,-2,-1,12
1532319185209,0,-1,-2,1,4,-15,1,0
1532319185214,-1,0,0,-1,-6,-2,-3,1
1532319185219,-1,-2,2,-3,-1,10,8,-2
1532319185224,2,-1,-2,1,4,4,4,2
1532319185229,-1,-2,0,3,-1,-9,-7,-3
1532319185234,-1,-3,-6,-5,-3,6,9,0
1532319185239,1,1,2,-2,3,-1,-3,-1
1532319185244,-1,-3,-1,-3,-4,-46,3,-5
1532319185249,-1,-2,-1,-3,-10,49,4,2
1532319185254,-1,-2,-2,1,4,-4,-2,-1
1532319185259,2,3,0,-1,3,-1,6,9
1532319185264,0,0,3,4,5,11,-3,1
1532319185269,-1,-1,-5,-4,-3,-22,-6,0
1532319185274,-2,0,-1,-1,1,3,3,0
1532319185279,-1,0,4,-2,-2,0,4,-5
1532319185284,-2,-2,-3,-1,-4,6,1,-2
1532319185289,-1,0,0,2,2,-11,-4,1
1532319185294,0,0,-2,3,0,7,10,1
1532319185299,1,2,2,-6,-2,-6,-4,-2
1532319185304,-2,-2,-2,0,-3,6,-3,-1
1532319185309,0,-1,1,1,3,-4,-3,-2
1532319185314,-1,-2,0,0,-1,-3,-2,0
1532319185319,-2,-3,-1,1,-3,3,-1,-1
1532319185324,-1,1,0,-1,1,9,1,-1
1532319185329,0,1,-2,-5,-3,-10,1,-1
1532319185334,-1,-2,-3,0,-2,-1,2,0
1532319185339,-1,-3,-1,0,0,0,-1,-2
1532319185344,1,0,-3,0,0,6,5,-1
1532319185349,-3,-1,-1,5,2,-8,-4,-2
1532319185354,-2,1,0,-1,-2,-5,-3,0
1532319185359,0,-2,-2,1,0,3,-1,-2
1532319185364,-1,-1,-1,-2,-4,-2,-1,-5
1532319185369,0,-1,-1,0,1,1,0,2
1532319185374,-5,-1,-2,-3,-6,0,1,-2
1532319185379,-9,-4,0,3,4,-1,-2,-9
1532319185384,5,-3,-2,-1,-4,0,0,1
1532319185389,10,7,3,0,2,-3,0,12
1532319185394,4,0,1,0,-1,3,-1,2
1532319185399,-4,-2,-2,-2,-1,-1,-2,-2
1532319185404,-9,-5,-3,-3,-1,0,-3,-8
1532319185409,-4,-4,-2,-2,-2,-3,-2,-7
1532319185414,-5,-2,0,1,5,2,1,-1
1532319185419,12,2,1,0,-1,-3,1,7
1532319185424,1,0,0,-2,-1,-3,0,1
1532319185429,-2,-1,-1,0,-2,-3,-4,-3
1532319185434,-3,0,0,1,2,1,-2,-2
1532319185439,-2,-4,-2,-2,-2,-1,0,-1
1532319185444,-1,2,-1,-2,-2,0,1,0
1532319185449,-2,-1,-2,0,-1,-1,1,-1
1532319185454,-1,-1,-1,0,-2,-2,-1,-4
1532319185459,1,1,-2,-3,-2,0,-1,-1
1532319185464,1,1,-2,0,-1,0,-3,2
1532319185469,-5,-2,-2,0,0,-2,-2,-4
1532319185474,1,-1,0,-2,2,-2,-4,0
1532319185479,-5,-1,-2,-3,-5,-1,-3,-4
1532319185484,-2,0,-2,0,1,0,-3,-6
1532319185489,0,-2,-1,-2,-2,-4,-3,-6
1532319185494,1,-2,-2,0,0,0,-1,3
1532319185499,3,0,1,0,0,1,-2,4
1532319185504,-15,-4,1,4,7,11,15,5
1532319185509,8,2,-2,-3,-6,-6,-7,-2
1532319185514,2,0,-1,-1,-3,-2,0,-5
1532319185519,1,0,0,0,0,-2,-2,-4
1532319185524,1,-2,-1,1,0,2,4,0
1532319185529,0,-1,1,0,0,0,4,2
1532319185534,-1,-1,-2,-2,-5,-1,2,1
1532319185539,-2,-3,-1,-1,-2,-2,5,2
1532319185544,4,1,0,-2,-4,-4,-5,0
1532319185549,-5,-3,-1,0,0,0,-4,-3
1532319185554,1,0,0,-1,-2,-1,-6,-4
1532319185559,-3,0,0,-2,-2,-1,-6,-2
1532319185564,-2,-1,-4,-2,-1,-1,-5,-3
1532319185569,4,2,-2,-2,-3,-4,-2,1
1532319185574,-1,-1,-1,0,0,0,4,2
1532319185579,0,1,0,-2,-1,-2,-1,1
1532319185584,-1,0,-1,-1,-1,0,0,-1
1532319185589,-2,0,-1,1,1,0,0,-1
1532319185594,1,0,-2,1,0,0,0,4
1532319185599,0,-1,-1,-2,-1,1,1,-1
1532319185604,-1,-3,-2,-1,1,0,-2,-1
1532319185609,0,0,0,0,-2,1,-1,-1
1532319185614,0,-2,1,-2,-3,-4,-2,-1
1532319185619,0,-3,-1,0,0,0,-1,-1
1532319185624,0,-1,0,0,-1,-3,-1,-1
1532319185629,0,-2,0,1,1,-1,0,0
1532319185634,-1,-1,-1,0,-1,-2,-5,-1
1532319185639,-3,-4,-1,-2,-1,1,-2,-1
1532319185644,-1,1,-2,0,0,-1,-2,1
1532319185649,-10,-3,-2,1,0,1,5,0
1532319185654,2,-1,0,-2,-3,-3,-7,-8
1532319185659,-6,-4,0,-1,-1,-2,2,-3
1532319185664,3,0,0,-3,-3,-2,-3,0
1532319185669,1,0,-2,-2,-2,-1,-2,-2
1532319185674,0,1,1,-1,-2,-1,1,-1
1532319185679,-1,0,-2,1,0,1,-1,-1
1532319185684,-2,-1,-1,-2,-1,0,-1,-1
1532319185689,2,0,-1,-1,-3,-1,-2,-1
1532319185694,2,-1,0,-2,-1,0,-2,1
1532319185699,1,0,0,0,-3,-2,-3,-1
1532319185704,0,-1,-2,0,-1,0,-1,-1
1532319185709,1,0,-1,-3,0,-2,-3,0
1532319185714,-2,-1,-1,1,2,1,3,1
1532319185719,-3,1,-1,0,-2,-1,-2,-1
1532319185724,-1,-1,-1,-1,-1,-2,-1,-1
1532319185729,0,0,0,0,-1,0,-3,-1
1532319185734,-3,-2,0,-1,0,0,-1,-3
1532319185739,3,1,-1,-3,-4,-2,-1,3
1532319185744,2,-1,-2,-2,0,-1,-1,2
1532319185749,0,-1,0,-1,1,-1,-2,1
1532319185754,0,0,-1,-1,-1,1,1,-1
1532319185759,0,-2,-1,-1,1,0,1,-1
1532319185764,0,0,0,-1,-3,-2,-2,-2
1532319185769,1,0,1,-2,-4,-2,0,0
1532319185774,-2,-1,-2,0,-2,-3,-3,0
1532319185779,-1,-1,-1,-1,0,-1,-2,-2
1532319185784,-5,-2,-2,0,1,0,0,-1
1532319185789,-3,0,-1,-3,-3,0,2,-1
1532319185794,1,-1,0,-2,-2,-2,-3,0
1532319185799,-2,0,-1,0,-1,0,0,-1
1532319185804,1,2,1,0,-1,-1,-1,0
1532319185809,-1,-1,-2,-1,-1,0,0,-1
1532319185814,-2,1,1,-3,-2,-2,0,-1
1532319185819,0,-3,-2,0,0,0,-2,0
1532319185824,0,0,-1,-1,-1,-1,0,0
1532319185829,-3,0,0,0,1,1,2,1
1532319185834,-2,-2,0,0,-1,0,-1,0
1532319185839,0,1,-2,-1,0,-1,0,0
1532319185844,-1,-1,-1,-3,-1,-1,0,0
1532319185849,1,-3,-1,0,-1,0,-1,0
1532319185854,-1,-2,-2,-1,0,-1,-1,1
1532319185859,0,1,0,-2,-2,-2,0,0
1532319185864,1,0,-1,-2,-1,0,-2,0
1532319185869,-1,-1,-1,-2,-2,-2,-2,1
1532319185874,0,-2,0,1,1,0,-1,-1
1532319185879,1,2,1,-2,0,-1,0,3
1532319185884,-1,-2,1,0,-1,-1,-3,-1
1532319185889,-1,-1,-1,-2,-2,-1,-3,-2
1532319185894,-2,0,-2,-2,1,-1,0,-2
1532319185899,0,-1,0,0,-1,1,-1,0
1532319185904,-3,-1,-1,-2,-1,-1,1,1
1532319185909,-1,-1,0,-1,-1,-3,0,0
1532319185914,0,-2,-1,1,-1,0,0,-1
1532319185919,0,1,-3,-2,-2,-2,-3,0
1532319185924,0,0,-2,-1,-2,0,-1,0
1532319185929,-1,-2,0,-1,-2,0,-2,0
1532319185934,0,-2,-1,0,0,0,-2,-1
1532319185939,-1,-1,1,-1,1,-3,-2,-2
1532319185944,-2,-1,1,2,0,0,1,-2
1532319185949,-3,-1,0,2,0,-1,0,-2
1532319185954,-2,-2,-1,0,0,-2,0,1
1532319185959,-1,-1,-2,-4,-2,-2,1,2
1532319185964,0,-1,-2,0,-1,-2,-1,-1
1532319185969,0,-1,0,-1,-1,-2,-1,0
1532319185974,-1,0,-1,-1,-1,0,0,-2
1532319185979,-1,1,0,-2,-2,-1,-1,-1
1532319185984,-3,-2,-1,0,0,-1,0,-2
1532319185989,1,-1,-3,-1,-2,-1,-1,-1
1532319185994,-2,0,-2,-2,-3,-2,-4,-4
1532319185999,0,-1,-1,0,-3,1,-1,-1
1532319186004,-1,-3,-1,-1,-1,1,-1,0
1532319186009,-1,-1,1,-1,0,1,0,-1
1532319186014,0,0,-1,-1,-1,-1,-1,2
1532319186019,1,0,-2,-2,-2,-1,-2,-2
1532319186024,3,1,0,-1,-4,-2,-2,0
1532319186029,-1,-2,1,1,1,1,-2,-1
1532319186034,2,0,0,-1,-1,-1,-4,-3
1532319186039,0,0,0,0,-2,1,-2,-2
1532319186044,0,-1,0,-1,2,0,-2,-1
1532319186049,-1,0,-1,-1,0,-2,0,0
1532319186054,-3,-3,-1,1,2,0,2,-1
1532319186059,1,-2,-2,-1,-3,-3,0,0
1532319186064,-3,0,0,0,0,0,-1,-3
1532319186069,0,-2,-2,-1,-2,0,-1,-1
1532319186074,1,-2,0,-2,-3,-3,-1,-1
1532319186079,-1,-2,-1,-3,1,-2,-2,-2
1532319186084,-3,-3,-1,-1,0,0,-2,-1
1532319186089,-1,-1,0,0,-1,0,0,-1
1532319186094,-2,-1,-1,0,-1,-1,0,0
1532319186099,-1,-1,0,0,0,0,1,-1
1532319186104,1,1,-2,-1,-2,-1,2,0
1532319186109,-3,-3,-1,0,1,2,0,-2
1532319186114,4,1,0,-4,-2,-4,-7,-3
1532319186119,0,-1,0,-1,1,-1,-3,-1
1532319186124,0,1,0,-1,-2,-1,-3,1
1532319186129,-3,0,-1,0,2,-1,0,-1
1532319186134,-2,-1,-2,-2,-1,-1,2,1
1532319186139,1,0,0,-1,0,-1,0,-2
1532319186144,0,-2,-1,-2,-2,-1,0,-1
1532319186149,0,-2,-1,-2,-3,-1,-1,1
1532319186154,-1,-2,-2,0,-2,1,1,0
1532319186159,-2,1,-2,1,0,0,-1,-1
1532319186164,-1,-1,-2,0,-1,1,-2,0
1532319186169,1,0,-2,-3,-1,-1,-2,-2
1532319186174,-3,-1,0,-3,-2,-2,0,0
1532319186179,-1,-3,-1,-1,-2,-2,0,0
1532319186184,0,-1,-1,-1,0,-1,-1,-1
1532319186189,0,0,0,0,0,-1,0,-1
1532319186194,1,0,-1,0,-1,-1,0,2
1532319186199,-1,-1,-1,0,-1,0,0,-1
1532319186204,-3,-2,-1,-1,-1,1,1,-3
1532319186209,0,0,-1,0,0,-2,1,-2
1532319186214,-1,0,-2,1,-2,-1,2,0
1532319186219,0,1,0,-1,-2,-1,-1,-1
1532319186224,-1,-1,-1,-1,-1,-2,-2,0
1532319186229,1,-1,-1,1,-3,0,-3,-1
1532319186234,-1,-1,0,1,-1,0,0,1
1532319186239,4,1,-1,-3,-3,-1,-4,1
1532319186244,1,1,-1,0,0,0,-1,-2
1532319186249,0,0,1,-3,-1,-2,-2,0
1532319186254,-1,-1,0,-1,0,-1,-1,-2
1532319186259,-2,-3,-2,0,-1,1,1,0
1532319186264,-2,-3,-1,-3,-1,-2,0,0
1532319186269,1,1,-2,-2,-1,-1,-3,-1
1532319186274,-1,-1,-1,0,0,-1,0,0
1532319186279,-1,-2,0,-1,3,-1,-1,-1
1532319186284,0,-2,-2,1,0,-1,-2,-2
1532319186289,-3,-2,-1,0,-1,0,0,0
1532319186294,-2,-1,0,0,-1,-1,-2,-3
1532319186299,0,1,0,-2,-2,-1,0,-2
1532319186304,0,0,-1,0,-1,-2,-1,1
1532319186309,-2,-1,-2,0,-1,-3,2,-1
1532319186314,0,-2,1,-1,0,-1,2,-2
1532319186319,-2,-2,0,-1,-2,-1,0,0
1532319186324,-2,-1,-1,0,0,-1,0,-1
1532319186329,1,0,-2,0,-2,-2,0,0
1532319186334,-2,-2,-1,-1,1,1,-2,-2
1532319186339,-2,-1,-1,-2,1,1,1,0
1532319186344,2,1,-1,-2,-4,-5,-4,-3
1532319186349,0,-1,-1,-1,-1,0,0,0
1532319186354,1,-2,-3,0,-2,0,-1,0
1532319186359,-1,-1,-1,1,-1,0,1,1
1532319186364,-1,-2,0,-1,-1,-1,-2,-1
1532319186369,0,1,-1,-1,-2,-1,-3,-2
1532319186374,0,-1,-2,-2,-1,1,-2,-2
1532319186379,-1,-1,-2,1,-2,-3,-3,-1
1532319186384,-2,0,-1,-1,0,1,1,0
1532319186389,-1,-2,0,-1,-2,-2,1,-1
1532319186394,-5,-2,-2,0,1,1,1,0
1532319186399,0,0,-1,-1,0,-2,-3,0
1532319186404,-1,-1,-2,-1,0,2,-3,-2
1532319186409,0,0,-1,-2,-1,0,-1,-1
1532319186414,1,0,1,-2,-1,-2,-1,-1
1532319186419,-1,0,-1,-1,-1,-1,-1,0
1532319186424,-2,0,-1,0,0,0,-1,0
1532319186429,1,-2,-2,-2,0,-1,0,-1
1532319186434,1,-1,-2,2,-1,-2,-1,-1
1532319186439,0,-2,-1,-2,0,-2,0,-2
1532319186444,0,0,0,-1,-1,0,0,0
1532319186449,-3,-3,-1,1,2,2,2,-2
1532319186454,5,1,-2,-3,-3,-4,-6,1
1532319186459,0,-1,-1,-1,-1,-1,0,-1
1532319186464,0,0,-1,0,0,0,-2,-1
1532319186469,-2,-2,-1,-1,-1,-2,0,-1
1532319186474,-2,-1,-2,1,0,0,1,0
1532319186479,-1,-2,0,-1,0,1,-2,-3
1532319186484,1,-2,0,-3,-2,-1,-2,0
1532319186489,1,1,-1,-1,-1,-1,-2,0
1532319186494,-1,-1,0,-2,0,-1,0,-1
1532319186499,0,-2,-2,0,0,0,0,-3
1532319186504,-2,0,0,-1,0,-2,-2,-1
1532319186509,-1,-2,0,-1,-2,-1,-2,0
1532319186514,-3,-1,0,0,1,-1,-2,1
1532319186519,-5,-4,-1,1,1,2,1,-1
1532319186524,-2,0,0,0,-3,-3,1,-3
1532319186529,1,0,-2,-2,0,0,0,0
1532319186534,-1,0,0,-1,-2,0,1,-1
1532319186539,0,-2,0,-2,-1,0,1,0
1532319186544,-1,-2,-1,0,-1,1,-2,1
1532319186549,0,-1,-1,-1,-2,-2,0,-2
1532319186554,-1,-1,-1,-1,-1,1,1,-1
1532319186559,0,-1,-3,0,-1,-3,-7,-1
1532319186564,1,0,-2,-2,-2,-2,-1,0
1532319186569,0,1,-1,-2,-1,-3,-1,1
1532319186574,0,-2,-2,-1,0,0,-2,-1
1532319186579,-2,-1,0,0,0,1,-2,-2
1532319186584,-2,-2,-1,1,1,0,0,-3
1532319186589,1,0,-2,-3,-4,-3,-2,0
1532319186594,-1,-2,-1,-1,-2,0,1,-1
1532319186599,-1,-1,0,-1,-1,1,1,1
1532319186604,0,-1,-2,0,-1,0,-1,-1
1532319186609,-3,-2,0,1,-1,1,0,1
1532319186614,-2,-2,0,-1,-1,-1,-1,-1
1532319186619,0,1,-2,0,-3,0,-1,0
1532319186624,-3,0,-2,0,0,0,1,0
1532319186629,-1,2,1,-1,-1,0,-3,-2
1532319186634,-1,-2,-1,-1,-1,-2,-1,0
1532319186639,-1,-1,-1,-3,-1,-1,0,-1
1532319186644,2,-2,-1,0,0,-1,-3,-2
1532319186649,0,-1,-3,1,-1,0,-1,-2
1532319186654,-3,-2,-2,0,1,0,0,-1
1532319186659,-1,-2,0,0,1,-1,-1,1
1532319186664,-2,0,-1,-2,-3,-1,0,1
1532319186669,-2,0,0,-1,-1,1,0,-2
1532319186674,0,0,-1,-1,-1,0,-2,0
1532319186679,-2,-1,0,-1,0,-1,0,-1
1532319186684,-1,-2,0,-1,1,1,0,0
1532319186689,-2,-2,0,0,2,2,3,1
1532319186694,3,1,-3,-2,-3,-2,-2,-1
1532319186699,0,-2,-2,-1,0,-1,0,-1
1532319186704,4,2,-1,-1,-3,-3,-2,0
1532319186709,0,-1,-1,0,1,-2,-2,-1
1532319186714,-1,-1,0,-1,0,-1,0,0
1532319186719,1,0,-1,-1,-1,-2,-1,1
1532319186724,-5,-3,-1,1,-1,-1,1,-2
1532319186729,0,-1,-2,-1,-2,-1,-4,-2
1532319186734,-1,-1,-2,-1,-2,-2,0,-2
1532319186739,-2,-1,-1,0,-2,-3,-3,-1
1532319186744,-2,-3,-1,-2,0,0,0,-1
1532319186749,-2,-1,0,-1,-2,-2,-1,0
1532319186754,0,-1,0,-1,1,-2,0,0
1532319186759,-1,-1,-2,0,1,0,-2,-2
1532319186764,0,1,-1,2,0,-1,1,-1
1532319186769,-1,0,-2,0,-2,-2,-2,0
1532319186774,4,2,-2,-1,-2,-1,-1,-1
1532319186779,0,-1,-1,0,-1,1,2,-1
1532319186784,-2,0,1,-2,0,-1,0,-1
1532319186789,-1,-2,-1,0,0,-1,0,-2
1532319186794,-1,-1,0,-1,1,-1,-2,0
1532319186799,-2,1,-1,-2,-3,-2,-1,0
1532319186804,-2,-1,-1,-1,0,0,-1,-2
1532319186809,1,1,-1,-3,-4,-5,-3,-1
1532319186814,-2,-1,-2,0,-1,0,-2,-2
1532319186819,0,-1,-1,-1,-2,1,0,-4
1532319186824,-1,0,-1,-2,-3,-1,-2,-1
1532319186829,-3,0,-2,0,0,1,-1,-1
1532319186834,-2,0,0,0,-1,-1,0,1
1532319186839,1,0,-2,0,-2,-2,-1,-1
1532319186844,-1,-1,-1,0,0,0,0,-1
1532319186849,3,0,-1,-1,1,-1,-2,-1
1532319186854,-3,-2,0,2,0,0,1,-2
1532319186859,3,2,1,-2,-3,-2,0,2
1532319186864,0,-1,0,-1,-1,-1,-1,1
1532319186869,-3,-1,-2,0,1,0,0,-1
1532319186874,2,1,-1,-2,0,0,-2,0
1532319186879,-3,-2,-1,1,1,0,0,-3
1532319186884,-2,-2,-1,0,-2,1,0,0
1532319186889,0,-1,1,-1,-1,0,-1,-1
1532319186894,-2,1,-1,0,-1,-1,0,0
1532319186899,-3,0,0,-1,2,0,1,1
1532319186904,1,1,-1,-1,0,-2,0,-1
1532319186909,-2,-2,-1,-2,0,0,1,-2
1532319186914,0,-1,-2,-2,-1,-1,-2,-1
1532319186919,0,-2,-1,-1,-1,-1,0,0
1532319186924,0,-2,-2,-1,-2,0,0,0
1532319186929,1,0,0,1,1,-1,0,0
1532319186934,0,0,-1,-1,-1,0,-2,0
1532319186939,-2,-1,-1,0,2,0,-1,0
1532319186944,0,0,2,-2,-2,-2,-2,-1
1532319186949,-2,-1,-2,-1,-1,0,1,-1
1532319186954,0,-1,1,-1,0,-1,2,1
1532319186959,-6,-3,-1,-1,-1,-1,2,-4
1532319186964,0,0,-1,0,2,-1,-2,-1
1532319186969,1,1,0,-2,-3,-1,-1,0
1532319186974,-3,-2,-1,1,-1,1,2,-2
1532319186979,0,0,-2,-2,0,-1,1,0
1532319186984,0,-3,0,-1,0,0,-2,0
1532319186989,1,-1,0,1,-2,-1,-2,0
1532319186994,-1,-3,-1,0,-1,-1,0,0
1532319186999,0,-1,0,0,-2,-1,-1,0
1532319187004,-1,0,-1,-1,-2,0,-2,-1
1532319187009,-2,-2,-1,-1,-1,0,-2,1
1532319187014,-2,-1,0,0,0,-2,-3,-1
1532319187019,1,-2,-1,0,-1,-3,-2,-1
1532319187024,-1,-1,-1,-1,-2,-2,1,1
1532319187029,0,-1,-1,-2,0,0,0,-1
1532319187034,2,2,-1,-1,-1,-1,-1,0
1532319187039,-2,-1,0,2,-2,0,-3,0
1532319187044,0,1,0,0,0,-2,0,-1
1532319187049,1,0,-3,-3,-2,-1,0,0
1532319187054,-2,-1,-1,-1,-1,-2,-1,1
1532319187059,4,2,-2,-3,-2,-4,-3,2
1532319187064,-1,-1,-2,-2,0,0,-4,-3
1532319187069,-2,-1,-1,-2,-1,1,-3,-2
1532319187074,-1,-1,0,-4,-2,-1,-2,0
1532319187079,-2,-2,0,0,0,-1,-1,-1
1532319187084,-2,0,0,-1,1,-1,-1,0
1532319187089,0,-1,-1,-1,-1,-1,-1,-1
1532319187094,-2,-1,-4,-1,0,-2,0,-3
1532319187099,0,-1,-1,1,-2,1,-1,-2
1532319187104,-1,-2,-2,0,0,-1,-1,0
1532319187109,0,-2,1,1,1,-1,1,1
1532319187114,1,-1,-1,-1,0,0,1,-1
1532319187119,0,1,-1,-2,-2,-1,-1,0
1532319187124,1,-2,-3,1,-1,-2,-2,0
1532319187129,-1,-1,1,-1,0,0,1,-1
1532319187134,3,0,-1,1,-2,0,-2,-1
1532319187139,-1,0,0,-1,-3,-1,-2,-3
1532319187144,-3,0,-1,-2,-1,0,0,-1
1532319187149,-3,1,-1,-2,-3,-1,0,-1
1532319187154,-2,-3,1,-1,0,-1,-1,-1
1532319187159,-1,0,-3,-2,1,0,0,-1
1532319187164,-2,0,0,-1,-1,1,1,0
1532319187169,-1,-2,0,-1,-1,-1,-1,-2
1532319187174,-2,-2,-1,-1,-1,-1,-1,0
1532319187179,-1,-2,0,1,-1,-1,0,-1
1532319187184,-1,-3,-1,-1,0,1,0,0
1532319187189,2,-1,-3,-1,-2,-2,-6,-2
1532319187194,0,-1,0,0,-2,-1,-1,-1
1532319187199,-1,0,-1,-1,0,0,-1,-2
1532319187204,-1,-1,0,-2,-2,-1,0,-2
1532319187209,-2,-1,-2,-1,0,0,0,-1
1532319187214,-1,0,-2,-2,-2,1,0,0
1532319187219,0,-1,-2,-4,-2,-2,-1,0
1532319187224,1,0,0,1,-1,1,-2,-3
1532319187229,-2,-1,-1,-1,1,1,0,1
1532319187234,0,-1,0,-1,2,1,-2,-1
1532319187239,0,-1,-1,0,-2,-2,0,-1
1532319187244,0,-1,0,0,-1,0,-2,-1
1532319187249,-1,-2,0,-1,-1,-1,-1,-1
1532319187254,-1,0,-2,-2,-1,0,0,-2
1532319187259,-1,-1,-1,0,0,1,0,-1
1532319187264,-1,0,-3,-1,-1,-2,-1,0
1532319187269,-2,-1,0,0,0,-3,-3,0
1532319187274,-4,-3,-1,0,1,0,1,-2
1532319187279,1,0,1,-2,-1,-1,-2,-1
1532319187284,-3,-1,-1,-1,-1,-1,-1,-2
1532319187289,-2,-1,-1,0,-1,-3,0,-2
1532319187294,-1,-1,-1,1,-1,-1,0,-2
1532319187299,-2,-1,0,0,2,1,-1,-2
1532319187304,1,0,-1,-2,-1,-1,-1,-1
1532319187309,-1,0,-1,-1,-2,-1,-1,0
1532319187314,0,0,0,0,-2,0,-3,0
1532319187319,-1,-2,-2,-1,-1,0,0,0
1532319187324,0,-1,1,-1,1,-2,0,-1
1532319187329,-2,0,0,0,-1,0,-1,-2
1532319187334,0,0,1,-2,-4,-3,-4,-3
1532319187339,0,0,-1,0,0,0,-1,-1
1532319187344,-2,1,-1,-2,-3,-2,-2,1
1532319187349,0,-1,-2,1,-1,0,0,-1
1532319187354,0,-1,-3,1,1,-2,-1,2
1532319187359,-7,-4,-1,1,0,0,1,-2
1532319187364,2,-3,-2,0,0,-1,-3,-3
1532319187369,-1,0,0,-1,0,0,0,-1
1532319187374,-2,-1,0,-1,-2,1,0,-1
1532319187379,-2,-1,-1,-2,-2,-1,1,0
1532319187384,1,1,-1,1,1,0,-4,-1
1532319187389,0,0,-1,-2,-2,1,-1,0
1532319187394,0,0,-1,-1,-1,2,0,0
1532319187399,1,0,-3,-2,0,-2,-2,0
1532319187404,-3,-1,-1,1,-1,0,1,0
1532319187409,0,-1,0,0,0,-1,-1,-1
1532319187414,-1,-2,-1,-1,-1,-1,-3,-1
1532319187419,0,-2,0,0,-1,0,-4,2
1532319187424,-2,-1,-2,-2,-2,0,-2,0
1532319187429,0,0,0,0,-3,-2,-1,-1
1532319187434,-1,-1,-1,-1,-1,-1,1,0
1532319187439,0,-1,0,-1,1,-1,0,-1
1532319187444,-1,-1,-1,0,-1,-1,0,0
1532319187449,0,0,0,-2,0,1,-1,0
1532319187454,0,-2,0,-1,-1,-2,-2,-1
1532319187459,1,-1,0,0,-2,-1,0,0
1532319187464,-1,0,-1,-1,0,0,1,1
1532319187469,-1,-1,-1,-2,-1,-1,0,-2
1532319187474,3,0,-1,-2,-1,-3,-3,0
1532319187479,-2,-1,-1,-1,-1,0,-2,-1
1532319187484,-1,-1,-1,-1,0,-2,0,0
1532319187489,1,-1,-1,-1,-2,-2,-1,0
1532319187494,-3,-1,-1,0,0,1,1,-1
1532319187499,2,1,0,-1,-1,-1,-3,1
1532319187504,-1,-1,-1,-2,-2,0,-2,1
1532319187509,-2,-3,0,0,1,-1,1,0
1532319187514,-2,-2,0,1,-2,-1,1,-1
1532319187519,-2,0,-2,1,-1,-2,0,-1
1532319187524,-1,-2,-1,-2,-1,-2,0,0
1532319187529,-4,-4,-1,1,0,-1,-2,-1
1532319187534,0,0,1,-3,-1,-2,0,0
1532319187539,-1,-2,-2,0,0,-2,-3,0
1532319187544,-2,0,-1,-1,0,-2,-1,-2
1532319187549,-2,-1,-1,-1,0,2,0,0
1532319187554,0,0,-3,0,0,-2,-2,2
1532319187559,-3,-1,-1,-2,-1,0,0,-1
1532319187564,0,-1,-1,0,1,-1,-1,-1
1532319187569,-1,0,0,-1,0,-1,-3,-3
1532319187574,-2,0,-1,-1,-1,-1,-2,-2
1532319187579,-3,-1,0,0,0,-1,0,-1
1532319187584,-3,-2,0,0,1,-1,0,0
1532319187589,-2,0,-1,-1,0,0,1,0
1532319187594,2,0,-1,0,0,0,-4,-1
1532319187599,0,-2,1,0,-2,0,0,-1
1532319187604,0,-2,-3,2,0,-1,0,-1
1532319187609,-2,1,-1,0,-1,-1,-1,1
1532319187614,-2,-1,-1,-1,-1,-1,0,-1
1532319187619,2,-1,-3,0,-1,-2,-2,-1
1532319187624,-2,-1,-1,0,-2,-3,-3,-3
1532319187629,3,0,-2,-3,-1,-2,-1,1
1532319187634,-1,0,-1,-2,0,0,0,-3
1532319187639,-2,1,0,-1,-1,0,-1,-1
1532319187644,-2,-3,-2,0,1,2,1,-2
1532319187649,1,-1,0,1,0,1,-2,-1
1532319187654,-1,-1,-2,0,-1,0,1,-1
1532319187659,0,-3,0,-2,-1,1,1,1
1532319187664,-1,0,-2,0,0,0,1,0
1532319187669,-2,0,-1,1,-1,-1,-2,-2
1532319187674,-1,-1,0,-2,-2,-1,-1,0
1532319187679,-2,-1,1,-1,-1,-1,-1,-1
1532319187684,1,0,-1,0,0,1,-1,1
1532319187689,-1,0,-1,0,0,-2,-1,-1
1532319187694,-1,-2,0,-1,0,0,-1,0
1532319187699,0,-1,-1,-1,-3,-2,0,-2
1532319187704,1,-1,0,-2,-3,-2,-3,0
1532319187709,1,-1,-1,-2,-3,0,-1,1
1532319187714,1,0,0,-1,-2,-3,-2,0
1532319187719,-2,-1,-1,0,3,2,4,1
1532319187724,-4,-1,-1,-1,-1,1,2,-2
1532319187729,0,-2,-1,-2,-1,0,-1,-2
1532319187734,-1,-1,-3,0,-1,0,-4,0
1532319187739,1,-1,-1,-1,-1,-1,-2,-1
1532319187744,-1,0,0,-1,-1,-2,-2,-1
1532319187749,-1,-2,-2,-1,0,0,-1,0
1532319187754,-1,-2,0,1,0,-2,0,-1
1532319187759,0,-1,-1,1,0,-3,-2,-1
1532319187764,-1,-1,-2,0,-2,0,-1,-1
1532319187769,-1,1,-2,-2,-3,-2,-2,-1
1532319187774,0,0,0,0,1,-1,-1,0
1532319187779,-1,-2,-2,-1,-2,-1,-2,-1
1532319187784,-4,-3,0,2,2,0,1,-2
1532319187789,1,1,-1,-1,-1,0,0,-1
1532319187794,-3,0,-1,-1,-2,0,-1,-1
1532319187799,0,1,-2,0,-1,0,-2,-2
1532319187804,-1,-2,1,-2,0,-1,-1,-1
1532319187809,-3,-3,-2,1,0,0,2,-2
1532319187814,-1,-1,0,-1,-2,0,1,-2
1532319187819,-5,-1,-1,-1,0,2,5,-1
1532319187824,1,0,-1,-1,-1,0,-1,0
1532319187829,-1,-1,-1,-1,-1,-2,-2,2
1532319187834,1,0,-1,-1,0,-1,0,0
1532319187839,-2,0,1,0,-2,0,0,1
1532319187844,1,0,0,-1,0,-2,-2,0
1532319187849,0,-1,-1,0,-1,-1,2,0
1532319187854,0,0,0,-2,-2,-2,0,1
1532319187859,-2,-2,-1,0,-1,-2,-2,-2
1532319187864,0,1,-2,-1,0,0,0,-1
1532319187869,-1,-1,1,-1,1,0,-3,-2
1532319187874,-2,-1,-1,-3,0,1,-1,0
1532319187879,1,-2,0,0,1,0,0,-3
1532319187884,0,-1,-3,-1,-3,-2,-3,0
1532319187889,-4,-3,-1,0,0,1,0,-1
1532319187894,-2,-2,1,0,0,1,0,-1
1532319187899,0,0,-1,-2,-1,-1,-3,0
1532319187904,-1,-1,-1,0,0,0,1,-2
1532319187909,-1,0,1,-1,-1,-2,-1,0
1532319187914,-1,-1,-1,-2,-1,0,0,-1
1532319187919,1,-2,-1,0,-1,-2,-2,0
1532319187924,0,0,-1,-2,-2,1,-2,-1
1532319187929,0,0,-1,-1,-2,0,-2,-1
1532319187934,0,-2,-1,-1,-2,-2,0,2
1532319187939,-1,-3,-2,0,0,0,-1,-2
1532319187944,-2,0,-1,-1,-2,0,1,1
1532319187949,-1,-1,-2,-2,-4,-3,-1,0
1532319187954,-1,1,-2,0,-1,0,-3,-1
1532319187959,-1,-1,-1,-1,-2,-2,-1,-2
1532319187964,-1,-1,-1,-1,-1,0,-1,-1
1532319187969,2,2,-1,-1,2,-1,-2,0
1532319187974,-2,0,-1,0,0,-2,1,-2
1532319187979,0,1,0,-3,0,-2,0,0
1532319187984,0,-1,0,-2,-2,-3,0,-1
1532319187989,-2,-3,0,0,-3,0,-1,-1
1532319187994,-1,-2,-1,0,-3,0,-1,-2
1532319187999,-2,0,-1,-1,0,0,-2,-2
1532319188004,3,-2,0,-1,-1,-2,-2,1
1532319188009,-2,0,-2,0,-1,1,-1,0
1532319188014,0,-1,1,1,2,1,2,2
1532319188019,-1,-1,-1,0,0,0,0,0
1532319188024,-1,-1,-1,0,0,1,0,0
1532319188029,0,0,-1,-1,-2,-3,0,-1
1532319188034,0,-3,-1,-2,0,0,-1,0
1532319188039,-1,0,0,-1,-1,1,0,-1
1532319188044,-1,-2,0,-1,-1,-2,0,-1
1532319188049,1,0,-2,1,-1,-2,0,1
1532319188054,0,-1,0,-3,-2,-1,-1,1
1532319188059,1,0,-1,-1,0,-1,-1,0
1532319188064,-2,-1,-1,0,1,0,0,-1
1532319188069,-2,-1,-1,-1,1,-1,0,-1
1532319188074,-2,-2,0,0,-1,-1,-3,-3
1532319188079,3,1,-2,-3,-3,-3,-1,1
1532319188084,-2,-1,-1,0,0,1,0,-1
1532319188089,-3,-3,-1,0,-2,0,0,-1
1532319188094,2,0,-2,1,-1,1,-1,-1
1532319188099,0,-1,-1,0,-1,0,0,-1
1532319188104,-1,-1,-1,0,-1,0,-2,-3
1532319188109,-2,0,-2,-2,0,0,-1,-1
1532319188114,-2,-1,-2,-2,-2,-2,-1,-3
1532319188119,-3,-2,-1,1,-1,0,0,-2
1532319188124,1,0,0,0,-1,0,-1,-1
1532319188129,3,-1,0,-1,0,-1,3,-1
1532319188134,0,-1,0,-1,0,-1,-1,-3
1532319188139,-1,-2,0,0,0,0,0,-1
1532319188144,-2,-1,-1,-1,-2,-1,1,0
1532319188149,1,0,0,-2,-3,-3,-2,0
1532319188154,-1,-1,-2,1,-1,-4,-2,-2
1532319188159,0,-1,-2,-1,-2,0,0,-2
1532319188164,-1,-1,-1,1,-1,-1,-3,-1
1532319188169,-1,0,-1,0,-1,-2,-2,-1
1532319188174,-1,0,-2,0,-2,-1,0,0
1532319188179,1,-1,0,-1,-3,-1,0,1
1532319188184,-2,0,-1,-2,0,-1,1,-2
1532319188189,0,-2,-2,0,1,0,-2,-1
1532319188194,-1,0,-1,-3,-3,-2,-2,1
1532319188199,-1,1,-2,-1,-1,-2,-3,-1
1532319188204,1,-2,-1,-3,-1,-3,-3,0
1532319188209,-2,-2,0,-1,0,-1,-1,0
1532319188214,-1,-3,-1,-1,-2,1,1,-1
1532319188219,1,0,-1,-1,0,-2,0,-1
1532319188224,0,0,-1,-2,-1,-3,-1,-1
1532319188229,1,-1,-1,0,-1,-2,-1,-3
1532319188234,0,-1,0,-1,0,1,-2,-1
1532319188239,0,-1,-2,1,-1,0,-2,-2
1532319188244,-3,-2,-2,0,1,0,1,-3
1532319188249,3,2,-1,-3,-1,1,-1,1
1532319188254,1,0,-1,-2,-1,-2,-1,-1
1532319188259,-1,0,0,-3,-2,0,0,-1
1532319188264,-1,0,0,-1,-3,-1,0,1
1532319188269,-3,-2,0,1,-1,0,0,-1
1532319188274,0,0,-1,-3,-2,-2,2,1
1532319188279,-1,-1,-1,-1,0,-1,0,-1
1532319188284,1,0,-1,-1,-1,-1,-2,-1
1532319188289,-1,-2,-1,0,1,2,-1,-3
1532319188294,-1,-2,-2,-1,0,0,0,0
1532319188299,-2,0,0,0,0,-1,1,1
1532319188304,0,-2,-2,-3,-1,-1,0,1
1532319188309,-1,-1,0,-1,0,1,1,1
1532319188314,0,0,-2,2,-1,0,-2,1
1532319188319,0,1,0,-1,-3,0,-1,1
1532319188324,0,-2,-1,-1,-1,0,-2,-2
1532319188329,-1,-2,-2,0,-2,-2,-2,-2
1532319188334,2,1,0,-1,-1,-2,-3,-2
1532319188339,-1,-2,-1,0,2,-1,-1,-1
1532319188344,0,2,-1,0,-1,-1,-1,0
1532319188349,-1,0,0,-2,-2,-2,0,-2
1532319188354,-2,1,0,0,0,0,1,-2
1532319188359,-1,-1,-1,1,-1,0,0,-1
1532319188364,-1,-3,0,-1,-1,0,0,0
1532319188369,-1,-1,-3,0,-1,-1,0,-1
1532319188374,-1,-2,-1,-1,-1,-3,-1,-3
1532319188379,0,-1,-2,0,-3,-1,-1,-1
1532319188384,0,-2,-1,0,0,0,0,-2
1532319188389,1,0,0,-1,-1,-2,-3,0
1532319188394,-2,0,-2,-1,-2,-2,1,0
1532319188399,-2,-2,1,-1,1,0,0,-2
1532319188404,0,1,-1,0,-1,0,3,1
1532319188409,2,0,0,-2,-3,0,-1,0
1532319188414,0,-2,-1,0,0,-1,-1,0
1532319188419,1,0,-2,-2,1,1,-1,0
1532319188424,-1,-2,0,0,1,0,-2,-1
1532319188429,0,1,-1,-1,0,0,-2,-3
1532319188434,-1,-2,1,0,-2,2,-2,-1
1532319188439,-1,-1,-1,-1,-3,0,-1,0
1532319188444,0,0,-3,-1,0,-2,-2,-1
1532319188449,-3,0,-1,0,1,-2,2,-1
1532319188454,0,0,0,0,0,-1,-1,0
1532319188459,0,-2,1,-1,1,-1,-1,-1
1532319188464,-3,-1,0,-2,-1,1,1,-2
1532319188469,-4,-2,-1,1,0,-1,0,-2
1532319188474,-1,1,-2,-2,0,-1,0,-3
1532319188479,-1,0,-2,-2,-1,-1,0,1
1532319188484,-4,-1,0,1,-3,-1,-2,-1
1532319188489,0,0,-2,-1,-1,0,0,0
1532319188494,-1,-1,-1,-1,0,-1,0,-2
1532319188499,0,0,0,0,-2,0,1,-1
1532319188504,0,-1,-2,0,3,-2,-2,-1
1532319188509,-2,-2,-1,-1,-1,1,-2,0
1532319188514,3,0,-1,-2,-1,-1,-1,1
1532319188519,-2,0,-1,-1,0,-1,-1,-3
1532319188524,1,1,-1,-1,-2,-1,-3,1
1532319188529,0,-2,-1,-2,-1,-1,-2,-1
1532319188534,-1,-2,0,-2,-1,1,0,-3
1532319188539,-1,-2,0,-2,0,-1,-2,-1
1532319188544,0,-1,-1,-2,0,-1,0,-3
1532319188549,2,0,-2,-2,-1,-2,-1,-1
1532319188554,-1,-1,-3,0,-1,0,-3,1
1532319188559,-1,-2,-2,0,1,1,-1,0
1532319188564,-1,-2,0,1,-1,2,2,2
1532319188569,-3,0,1,-1,0,-1,1,-2
1532319188574,-5,-2,-2,-1,-1,-2,3,1
1532319188579,1,0,0,-2,-3,-1,0,0
1532319188584,0,-2,-1,0,1,0,-1,0
1532319188589,-1,-1,1,0,0,-1,1,0
1532319188594,-3,-1,-1,-1,0,0,0,-1
1532319188599,0,0,-1,-1,-1,-2,-3,-1
1532319188604,-1,0,-2,-1,-1,-1,-1,0
1532319188609,-1,-1,-1,1,-2,-1,-2,0
1532319188614,-1,0,0,0,1,0,-3,-3
1532319188619,-1,-2,-2,-1,0,0,0,-1
1532319188624,-1,0,-2,-1,-1,-3,-1,-3
1532319188629,0,-3,-2,0,-1,-2,-2,-1
1532319188634,-2,-1,-1,-1,-1,-1,0,-1
1532319188639,-1,0,-2,1,0,-1,0,-2
1532319188644,-2,0,-1,-2,-2,-1,0,-1
1532319188649,-1,-1,-1,-3,-1,0,1,-2
1532319188654,0,-2,-1,0,0,-1,-2,0
1532319188659,1,1,0,-1,-3,-2,-1,0
1532319188664,1,0,0,0,-3,-3,-3,1
1532319188669,1,0,-1,-1,0,0,-2,0
1532319188674,0,-1,-1,1,0,-2,-1,-2
1532319188679,-1,0,-3,-1,0,-2,-3,-2
1532319188684,-1,-1,-1,0,-4,-3,-2,-4
1532319188689,-1,-1,0,0,1,0,-2,-1
1532319188694,-1,-1,-1,-2,1,-1,0,-1
1532319188699,-1,-1,0,0,-1,0,1,-1
1532319188704,-2,-1,1,-1,1,0,0,-1
1532319188709,-3,-1,1,-1,-1,0,-2,-1
1532319188714,1,0,0,-3,-4,-1,-4,-1
1532319188719,0,0,0,-1,-2,0,-1,1
1532319188724,1,0,-1,-2,0,-2,-2,1
1532319188729,-1,-1,-2,0,0,-2,-2,-1
1532319188734,2,-1,-1,-2,-4,-2,-2,2
1532319188739,-2,1,-2,-1,-1,-2,0,-2
1532319188744,-2,-2,-2,1,0,0,-2,-2
1532319188749,-1,0,0,0,-1,-2,-1,-2
1532319188754,-2,0,-2,1,0,1,-1,-1
1532319188759,-1,-2,-2,1,-1,-1,-1,1
1532319188764,-2,0,-1,1,1,-1,0,-2
1532319188769,-1,0,-2,-1,-1,-1,-1,-1
1532319188774,-2,-3,-1,0,1,1,0,0
1532319188779,-1,-1,0,-2,-2,0,0,-1
1532319188784,0,0,-3,-1,-1,-2,-1,1
1532319188789,4,1,-1,-3,-2,-3,-3,2
1532319188794,-1,0,1,0,1,-2,-2,0
1532319188799,-1,-3,-1,-2,0,1,-2,-1
1532319188804,-2,-1,-1,-2,-4,-1,7,2
1532319188809,0,0,-1,-2,-2,0,-1,-1
1532319188814,-1,-2,-1,0,-1,-1,1,-2
1532319188819,2,1,-1,-1,-1,-1,-2,1
1532319188824,0,1,2,0,0,1,-1,-1
1532319188829,-3,-1,-1,0,0,-1,0,0
1532319188834,-2,0,-1,-1,-1,0,-1,0
1532319188839,-2,-1,-2,0,1,-1,-1,-1
1532319188844,1,2,-2,-1,-1,-1,-2,-2
1532319188849,0,0,-1,0,0,0,0,0
1532319188854,0,-1,-1,-1,-1,-2,-1,-2
1532319188859,0,-1,0,0,1,-1,-1,-2
1532319188864,-1,-2,0,2,-1,-1,-2,-3
1532319188869,0,-2,1,-1,-2,1,0,0
1532319188874,-1,0,-2,-1,-2,0,1,0
1532319188879,-1,0,-2,-2,-2,-1,0,0
1532319188884,-1,0,0,-1,-1,-1,-2,-3
1532319188889,-7,-4,-3,0,1,-1,1,-1
1532319188894,1,-2,0,0,-1,1,-1,-1
1532319188899,0,-1,-1,-1,-1,-2,1,-1
1532319188904,-1,-2,-1,-1,-1,-1,0,-3
1532319188909,0,0,-2,1,-1,0,-3,-2
1532319188914,-1,0,-1,-1,2,-2,1,-1
1532319188919,-1,0,0,-2,-2,-2,-1,0
1532319188924,-3,-1,-2,-2,0,-1,-2,0
1532319188929,1,1,-1,0,-2,-1,-3,-1
1532319188934,-1,0,-2,0,-1,1,-1,0
1532319188939,0,-1,1,1,-2,0,0,0
1532319188944,-1,-1,0,-2,0,-2,-2,-2
1532319188949,-1,-2,-1,0,-2,-1,0,-1
1532319188954,0,-1,-1,-1,-1,-1,-1,0
1532319188959,-1,-3,-1,0,0,1,-1,-2
1532319188964,0,-2,1,1,-1,1,-1,0
1532319188969,0,1,-1,-1,-3,-1,1,0
1532319188974,-1,-1,0,-1,-2,-1,-2,-1
1532319188979,-1,-2,-1,0,0,-1,-1,0
1532319188984,2,-1,-1,-1,-2,-1,-1,1
1532319188989,0,0,-1,0,-1,0,0,-1
1532319188994,-1,0,0,-1,-1,-1,0,-1
1532319188999,0,0,-2,-4,-1,1,-1,1
1532319189004,-2,-1,-1,-1,1,0,0,1
1532319189009,0,-3,0,-1,-1,-2,-2,0
1532319189014,-1,0,-1,-2,-1,-3,-1,0
1532319189019,-2,-1,-2,-1,-1,-2,0,-1
1532319189024,-1,-2,0,-1,-1,0,-2,-1
1532319189029,-1,-1,-2,0,0,-1,0,0
1532319189034,-1,0,-1,0,-1,0,-1,-1
1532319189039,5,2,0,-1,-2,-3,-3,-1
1532319189044,1,0,-1,-2,-1,-1,-1,0
1532319189049,-4,-3,0,-2,-2,1,0,-2
1532319189054,-1,-2,0,0,-1,0,-1,-1
1532319189059,-2,-2,-3,-2,-1,-2,-3,-5
1532319189064,1,0,0,-1,-2,-2,0,1
1532319189069,1,1,-1,0,0,-1,-2,-1
1532319189074,-1,0,-1,-1,2,0,0,-2
1532319189079,-3,0,-1,-1,1,1,0,-1
1532319189084,-2,0,0,-1,-1,0,1,-2
1532319189089,-2,-2,-1,1,0,0,-2,0
1532319189094,-4,-3,-2,0,0,0,1,-3
1532319189099,-3,0,1,-1,0,-2,2,0
1532319189104,0,-2,-3,-1,0,0,-3,0
1532319189109,0,-1,-1,0,0,-1,-1,0
1532319189114,-1,1,0,0,0,-1,-1,-1
1532319189119,-1,-1,0,1,-1,0,-2,0
1532319189124,-1,0,-1,-1,-1,1,-2,-1
1532319189129,-1,0,0,-1,0,-1,0,-3
1532319189134,-1,-1,-1,0,-2,-2,-1,1
1532319189139,-2,-2,0,1,0,2,0,-2
1532319189144,0,0,-1,-2,-3,-2,-2,-1
1532319189149,1,0,0,-1,-1,0,-1,-1
1532319189154,1,-1,0,-2,-2,-1,1,0
1532319189159,-1,0,-1,0,-1,0,1,0
1532319189164,-2,-2,-1,1,-1,-1,0,0
1532319189169,-1,-1,-1,-2,1,0,1,1
1532319189174,-2,-1,-1,0,1,-1,1,-2
1532319189179,-1,1,0,-1,-1,-1,-1,1
1532319189184,1,-1,0,-1,-3,-5,-6,-4
1532319189189,0,1,0,-1,-3,-3,0,0
1532319189194,1,-1,-1,-1,-2,-1,-6,0
1532319189199,0,-2,-2,-2,-1,0,-1,-1
1532319189204,-1,-1,-2,-1,0,1,1,-4
1532319189209,4,1,-1,-2,-1,-2,-3,-1
1532319189214,0,-1,-3,-1,-1,0,-2,-1
1532319189219,-1,-2,0,-1,-1,-1,-1,-1
1532319189224,2,0,-2,-2,-1,-2,0,3
1532319189229,-4,-2,-1,-1,-1,0,-1,-3
1532319189234,-1,-1,0,-1,0,1,1,-3
1532319189239,1,1,0,-2,-4,-2,-2,0
1532319189244,-2,-1,0,0,1,-1,2,0
1532319189249,-1,0,-2,1,0,-2,0,0
1532319189254,-1,-3,-1,-1,-1,-1,0,-1
1532319189259,0,-1,-2,0,0,-1,1,0
1532319189264,0,-2,-1,0,-2,1,-1,-2
1532319189269,-3,-3,0,-1,0,2,0,-2
1532319189274,0,0,-1,-1,0,-2,-2,-2
1532319189279,-3,0,-2,0,-1,-2,-1,-2
1532319189284,2,1,0,-1,0,-1,-1,0
1532319189289,-1,-2,-1,0,2,-1,-2,-1
1532319189294,0,-1,0,1,0,0,0,0
1532319189299,0,0,1,-1,-2,0,-1,-1
1532319189304,2,1,-1,-3,-1,-1,-2,-1
1532319189309,0,0,-2,0,0,-1,0,-2
1532319189314,-1,-2,-1,0,-2,-1,0,0
1532319189319,0,1,-1,-2,-1,-1,-1,0
1532319189324,-4,-2,1,0,0,1,3,0
1532319189329,-1,-1,0,-2,-2,-2,0,-1
1532319189334,2,1,-1,-2,-2,0,-3,-1
1532319189339,-2,-1,-1,0,-1,-3,2,-1
1532319189344,-1,-1,-1,-1,-1,-1,2,-1
1532319189349,0,-1,0,-2,-2,-1,-1,-1
1532319189354,-4,-1,0,-1,-1,0,2,0
1532319189359,2,0,0,-2,-1,-2,0,-1
1532319189364,-2,0,-1,-1,-2,0,0,-3
1532319189369,-1,-1,0,0,0,-1,0,1
1532319189374,-1,0,0,-2,0,0,-3,0
1532319189379,1,-2,0,-1,0,-1,-1,0
1532319189384,-1,-1,-1,1,1,-1,-1,0
1532319189389,3,0,0,0,0,0,-3,-1
1532319189394,-1,0,0,0,0,-2,-1,-1
1532319189399,-2,-1,0,0,-1,0,-1,-1
1532319189404,-2,-1,0,0,0,-1,-1,-2
1532319189409,-2,-1,-2,-1,0,-1,-1,1
1532319189414,0,-1,-3,0,-1,-1,1,1
1532319189419,0,-1,-2,0,-1,-1,-3,-1
1532319189424,1,-3,-1,0,-1,-2,-1,-2
1532319189429,-3,-3,-1,-1,1,2,1,1
1532319189434,-2,-1,-2,-1,-1,1,0,-2
1532319189439,-2,-2,1,0,0,-1,0,-1
1532319189444,-1,-2,0,-1,-1,0,0,0
1532319189449,0,-1,-1,0,-1,0,-1,0
1532319189454,0,0,0,0,-1,0,0,0
1532319189459,-4,-2,0,-1,0,2,0,-1
1532319189464,-3,0,-1,0,0,1,-1,0
1532319189469,-3,1,-2,0,-2,-1,-1,-2
1532319189474,0,-1,0,-3,-2,-2,-2,0
1532319189479,-1,-1,-1,1,0,-2,-2,-2
1532319189484,-6,-3,-1,-1,-2,0,0,-2
1532319189489,0,-1,0,0,-1,0,-1,-2
1532319189494,-1,-1,0,0,-1,-1,-1,-1
1532319189499,0,0,-2,-1,-1,0,-1,-2
1532319189504,-2,-2,-1,1,0,-1,-1,0
1532319189509,-1,1,-1,-1,1,-3,0,-1
1532319189514,-2,-2,-2,0,1,1,0,-1
1532319189519,1,-1,0,-1,-2,-2,2,-1
1532319189524,1,1,0,-3,-2,-2,-3,0
1532319189529,0,0,-2,-1,-2,-3,-2,-1
1532319189534,0,-1,-2,-2,0,-1,-1,0
1532319189539,-2,-1,-1,-2,0,0,-2,0
1532319189544,1,-1,-2,-1,-2,-1,-1,-1
1532319189549,5,0,0,-2,-1,-3,-3,1
1532319189554,-4,-1,1,0,-1,3,0,3
1532319189559,-1,-1,-3,-2,-1,-2,0,-1
1532319189564,0,0,0,-1,0,0,0,0
1532319189569,-2,-1,-1,-3,0,0,0,-2
1532319189574,-2,-2,0,1,0,-2,0,-1
1532319189579,3,1,-1,-2,-4,-1,-2,3
1532319189584,1,0,0,0,-1,0,-1,0
1532319189589,1,-1,0,-2,-3,0,-1,-2
1532319189594,1,1,1,-1,-3,-1,-3,-2
1532319189599,-3,-1,-1,0,-1,0,1,-1
1532319189604,-1,-2,-2,-1,0,-3,-1,-2
1532319189609,-2,-1,1,-2,-1,-1,-1,-1
1532319189614,-1,-1,0,-1,-2,-2,-1,-3
1532319189619,-3,-2,-1,1,-1,0,-1,-2
1532319189624,1,-1,0,-2,-2,-1,-2,1
1532319189629,-2,-2,-1,1,0,0,-1,-2
1532319189634,0,-2,-3,-1,1,-1,-1,0
1532319189639,-1,1,-1,-1,0,-2,-3,-1
1532319189644,-1,-1,-1,-1,-1,0,-1,0
1532319189649,-5,-2,-1,-1,0,1,0,-2
1532319189654,1,-1,-1,-2,0,-1,-1,-2
1532319189659,-1,-1,0,1,0,0,0,-2
1532319189664,-5,-2,-2,1,1,-1,2,-1
1532319189669,0,0,0,-1,-2,0,-3,0
1532319189674,-1,-1,-2,-1,-1,-1,-2,0
1532319189679,0,-2,-2,-2,1,-2,0,0
1532319189684,0,-1,-1,-2,-2,-1,0,-2
1532319189689,-2,0,-2,-1,0,-1,2,-1
1532319189694,0,0,0,-1,0,0,1,-1
1532319189699,0,-3,-1,-1,0,0,-4,0
1532319189704,0,0,-2,-1,-1,0,-2,1
1532319189709,-2,-3,-2,0,-2,0,-1,0
1532319189714,0,1,-1,-2,-1,-2,-1,0
1532319189719,-2,-1,-1,1,-1,0,-1,-3
1532319189724,-1,0,0,-1,-1,1,0,-1
1532319189729,-1,0,-2,0,-2,-2,-3,-2
1532319189734,-1,-2,-1,0,-1,-1,0,-1
1532319189739,0,0,-1,0,-1,-1,-1,-1
1532319189744,-1,0,0,-1,-1,-3,-2,-2
1532319189749,0,0,1,0,-1,-1,0,0
1532319189754,0,-2,0,-1,0,-1,-3,-1
1532319189759,-1,0,0,-2,-1,0,-1,0
1532319189764,0,0,-2,0,-3,0,-2,-1
1532319189769,-2,-1,-2,-2,1,0,-1,0
1532319189774,-2,-1,-2,-2,0,-2,-2,0
1532319189779,-1,0,-1,0,-2,0,1,2
1532319189784,0,-2,-2,0,1,-2,0,-1
1532319189789,-1,-1,0,0,0,-1,1,-1
1532319189794,-1,0,-1,-1,1,-2,0,-1
1532319189799,0,-1,-2,-2,0,-1,-2,0
1532319189804,0,0,-1,0,-2,-1,-1,1
1532319189809,0,0,0,0,-1,-1,0,-1
1532319189814,1,-2,1,-1,-3,0,0,1
1532319189819,-4,-2,1,0,1,-1,-1,-3
1532319189824,1,-1,0,-3,-2,-2,1,1
1532319189829,-1,-3,-2,-1,0,-2,-3,1
1532319189834,-1,-2,-1,1,-2,-1,0,-1
1532319189839,-1,0,-1,-2,-2,0,-1,-2
1532319189844,-2,-1,0,0,1,2,-2,-1
1532319189849,-1,-1,0,-2,-1,-2,-3,-1
1532319189854,-3,0,0,-2,1,-2,-2,-2
1532319189859,1,-1,1,-2,-1,-3,-1,-1
1532319189864,-1,0,-1,1,-1,0,-2,-1
1532319189869,0,-1,-3,0,-2,-1,-1,0
1532319189874,-2,0,0,-1,-2,-2,-1,-2
1532319189879,1,0,-1,-2,-1,-1,1,-1
1532319189884,-1,0,-1,0,-1,0,0,-1
1532319189889,-1,-2,-1,-1,-1,-1,-1,-2
1532319189894,1,-2,-1,-1,-3,-1,-2,0
1532319189899,-1,0,-2,1,-1,-2,0,-1
1532319189904,-1,-2,-2,0,0,-1,-2,-3
1532319189909,-7,-2,-1,0,1,3,2,-1
1532319189914,1,0,-1,-1,-1,1,-2,-1
1532319189919,-1,-1,-1,0,0,0,-1,1
1532319189924,0,-1,1,0,1,-1,-1,-2
1532319189929,0,-1,0,-2,-2,-1,-1,-1
1532319189934,-1,-1,-1,0,-1,0,-1,-1
1532319189939,-1,-1,-1,-1,-2,1,-2,0
1532319189944,0,-2,-1,-2,0,-2,-1,-1
1532319189949,0,-1,-1,-1,-1,-1,0,0
1532319189954,0,0,-1,-1,-2,-2,0,-1
1532319189959,1,-1,-2,-1,0,0,1,-1
1532319189964,-1,-1,-3,0,-2,-1,-1,0
1532319189969,1,-1,-1,-3,-1,-3,-1,0
1532319189974,-3,-2,-2,0,0,-2,-1,-1
1532319189979,-1,0,0,1,-2,-2,0,-1
1532319189984,-1,-1,0,1,-1,-1,1,1
1532319189989,0,0,0,1,-2,-2,0,0
1532319189994,-1,-1,0,0,-1,-1,0,-1
1532319189999,0,-2,-1,0,-1,-2,-1,-2
1532319190004,-1,-1,0,-1,-3,0,-2,-2
1532319190009,-1,-1,0,1,-1,0,-1,-1
1532319190014,-1,0,0,-1,2,-1,0,-2
1532319190019,-2,-1,-2,0,-1,-2,-2,0
1532319190024,0,-1,-1,-1,0,-2,0,0
1532319190029,1,0,-2,-2,-1,0,1,0
1532319190034,-2,-1,-1,-1,0,0,-2,-1
1532319190039,0,-1,0,-1,-1,0,-1,1
1532319190044,1,0,0,-1,-1,0,-1,0
1532319190049,0,0,-2,1,-1,-1,-1,1
1532319190054,2,-2,-1,0,-1,-2,0,-1
1532319190059,-1,-2,0,0,-1,-1,-1,0
1532319190064,-2,-1,-1,-2,-1,0,-2,-2
1532319190069,-2,-1,0,0,-1,-1,-1,0
1532319190074,-2,-1,-3,-2,0,1,-2,0
1532319190079,-2,-1,0,0,-1,-1,-2,-1
1532319190084,-2,0,-1,0,-1,-1,0,-2
1532319190089,-1,-1,0,-2,-1,-2,-2,-1
1532319190094,-2,-2,-1,-1,-2,-1,0,0
1532319190099,-1,-1,-1,-3,-2,-1,0,-1
1532319190104,-2,-2,-3,-1,0,-2,1,-1
1532319190109,-1,-2,-1,-1,0,-2,-1,-1
1532319190114,0,0,-2,0,-1,1,-1,-1
1532319190119,-2,0,-1,-1,1,0,-2,-2
1532319190124,-1,0,0,-2,-1,0,-2,0
1532319190129,1,-3,-2,0,1,0,-1,-1
1532319190134,0,-2,0,-1,-1,-1,1,-1
1532319190139,0,-1,-2,0,0,-2,-1,-1
1532319190144,0,-2,-1,-2,-1,1,-1,-1
1532319190149,-1,0,-1,-1,-1,1,-2,-1
1532319190154,1,-2,0,-1,0,-1,-1,0
1532319190159,0,0,-1,-1,-1,-1,0,0
1532319190164,-1,0,-1,-1,-1,-2,0,-1
1532319190169,-1,0,-2,-1,-2,-1,-2,0
1532319190174,-2,-1,-1,1,0,-1,1,-1
1532319190179,0,-3,0,-1,0,-2,-1,1
1532319190184,3,-1,-1,-1,1,-1,-2,0
1532319190189,0,1,-1,-2,0,-2,-1,-1
1532319190194,-1,0,-1,0,-2,1,-1,-1
1532319190199,0,-1,-1,1,-2,0,-1,-1
1532319190204,-2,0,-1,0,-1,1,1,-1
1532319190209,0,0,1,0,-2,-1,0,-4
1532319190214,0,1,-1,-2,0,-2,-2,1
1532319190219,0,-1,-2,-2,-1,-1,0,-1
1532319190224,0,-2,-2,1,1,-2,0,0
1532319190229,-1,-2,-1,1,-1,-1,-1,0
1532319190234,-2,-3,0,-3,0,-1,-1,0
1532319190239,0,-2,-1,-1,-1,-1,0,-1
1532319190244,-1,0,-2,1,0,1,0,-3
1532319190249,1,1,0,-2,-3,-3,-1,-1
1532319190254,-2,-1,0,-2,-1,-1,0,-2
1532319190259,1,0,1,-2,-1,-1,-2,-1
1532319190264,0,-2,0,0,-1,0,-2,0
1532319190269,-1,0,0,-1,0,0,-1,0
1532319190274,0,0,0,0,0,0,-1,0
1532319190279,-1,1,-1,0,-1,-2,0,0
1532319190284,-1,-2,-1,-1,-1,-2,-1,0
1532319190289,-2,-1,-1,3,1,0,-2,-2
1532319190294,2,1,-1,-1,-2,-3,-3,1
1532319190299,-1,0,-1,0,-1,0,0,-2
1532319190304,-2,0,-1,-1,-1,1,-1,0
1532319190309,-3,-2,-1,1,-1,0,2,1
1532319190314,-3,0,-1,1,-1,1,-1,0
1532319190319,-1,-1,0,-1,-1,1,-2,-1
1532319190324,0,-1,-1,-1,-1,-1,-2,-2
1532319190329,-1,-1,1,-2,-1,-2,-1,-2
1532319190334,0,0,-2,0,0,-2,0,-1
1532319190339,-2,0,0,-1,0,-1,-2,0
1532319190344,-2,-1,-1,0,-1,0,1,2
1532319190349,0,-1,-1,-2,-2,-1,-2,-1
1532319190354,-2,-2,-1,-1,-2,0,1,-2
1532319190359,-2,-2,-1,1,-1,0,0,-1
1532319190364,0,0,0,1,-2,0,-2,-1
1532319190369,-1,-1,-2,0,0,-1,0,0
1532319190374,-1,-3,-1,1,0,0,0,-2
1532319190379,0,0,-1,-3,-1,-1,0,1
1532319190384,1,-1,1,-3,-2,-2,-1,0
1532319190389,-2,-1,-2,-1,-1,-1,-2,0
1532319190394,-1,1,0,-1,0,-2,-1,-1
1532319190399,0,0,0,-1,-2,0,-2,-1
1532319190404,-3,-1,-1,-2,0,-1,0,-3
1532319190409,-3,-1,-1,-1,-2,0,-2,0
1532319190414,0,-1,-1,-2,-1,0,-2,-2
1532319190419,0,0,-1,-1,-2,-1,0,0
1532319190424,-1,0,-2,1,0,-1,0,-1
1532319190429,-1,-1,1,-2,0,0,0,-1
1532319190434,0,-2,-2,0,-3,-2,-1,1
1532319190439,-2,0,-1,0,0,-1,-1,-2
1532319190444,0,-1,-2,-1,0,-1,-1,-1
1532319190449,-1,-1,-2,-1,1,1,1,-2
1532319190454,-2,1,-2,0,-1,1,-1,0
1532319190459,1,-1,1,-1,-3,-2,-2,0
1532319190464,-2,0,-2,0,-1,0,-1,-3
1532319190469,0,-1,-1,-1,-1,1,0,-1
1532319190474,0,-1,0,-1,0,1,0,-1
1532319190479,-2,-1,-2,1,0,0,-2,-1
1532319190484,0,-1,0,0,0,-2,-2,-2
1532319190489,1,-2,1,-2,-1,-1,-3,0
1532319190494,-1,0,0,0,-1,0,-2,-2
1532319190499,-2,-1,-1,0,0,-1,0,0
1532319190504,2,1,-2,-1,-2,-1,-2,1
1532319190509,-2,0,-2,1,0,-2,-1,-1
1532319190514,2,-2,-1,-1,0,-1,-1,-1
1532319190519,-3,-2,-1,-1,-1,-1,1,-3
1532319190524,-1,0,-1,-3,-1,-1,1,-2
1532319190529,-2,-1,-1,0,0,-1,-2,-1
1532319190534,-1,-1,-2,-2,-2,-1,0,-2
1532319190539,-1,0,-1,-1,0,0,-1,0
1532319190544,-2,-2,-1,0,0,-1,0,0
1532319190549,0,-1,-2,1,0,0,0,0
1532319190554,-1,-2,1,1,0,-2,0,0
1532319190559,1,0,-2,1,0,0,-2,-2
1532319190564,-1,-1,0,-2,-1,0,0,1
1532319190569,1,0,-1,-1,-2,-1,-1,-1
1532319190574,0,-1,-1,-1,-3,0,-1,-1
1532319190579,-1,-3,-2,-1,-1,-2,1,-1
1532319190584,-1,0,-1,-2,-1,-1,-2,-2
1532319190589,2,-1,-1,0,-2,-1,1,-4
1532319190594,0,-1,-1,-2,0,-1,-2,-1
1532319190599,-1,-1,-2,-1,-2,-1,0,-1
1532319190604,-1,-2,-1,0,-1,-1,-1,0
1532319190609,-1,-1,-1,-1,-3,1,-1,-1
1532319190614,-2,-1,0,0,2,1,1,-3
1532319190619,0,-1,-2,0,-1,-1,-2,-1
1532319190624,-2,-1,-1,0,0,-2,-1,0
1532319190629,0,-1,0,1,0,-2,0,0
1532319190634,-1,-1,-3,0,-1,-2,-3,-1
1532319190639,0,0,0,1,0,0,-1,-1
1532319190644,-1,-2,0,0,-2,-1,0,-2
1532319190649,-2,0,-2,0,-1,-2,0,0
1532319190654,1,-1,0,-1,0,-3,1,1
1532319190659,0,-1,-1,-1,-2,-1,-1,-1
1532319190664,2,0,-1,-2,-2,-3,-4,1
1532319190669,1,0,-1,-1,-1,0,0,-1
1532319190674,-1,-3,-1,-1,-3,-1,-3,0
1532319190679,-1,-1,1,-2,0,0,0,-1
1532319190684,-2,-1,-1,-1,0,0,2,1
1532319190689,-1,-2,-1,0,0,-1,-1,0
1532319190694,0,0,-3,-1,0,0,-1,0
1532319190699,0,-2,-1,-2,-2,-2,0,-1
1532319190704,-1,0,0,-1,0,0,0,-3
1532319190709,4,2,0,-4,-4,-3,-2,2
1532319190714,-2,-2,0,0,0,1,-1,-1
1532319190719,-1,-1,-1,0,-1,-2,0,0
1532319190724,-2,-1,-1,0,-1,1,0,-1
1532319190729,-4,-2,-2,-2,0,-1,-1,-2
1532319190734,-1,0,2,-2,-1,1,-1,-2
1532319190739,-1,0,0,0,-2,-1,0,0
1532319190744,-1,-1,-2,1,-1,1,0,-2
1532319190749,-1,0,-1,-1,-1,-1,-1,-1
1532319190754,-1,0,-1,1,-2,-1,0,-3
1532319190759,-5,-1,-3,1,3,1,3,-2
1532319190764,-1,-1,0,-2,-3,-1,-2,-1
1532319190769,0,-1,-2,-1,1,-2,0,0
1532319190774,-1,-2,-1,-2,-3,-1,0,0
1532319190779,3,0,0,2,-1,-1,-2,1
1532319190784,0,-1,0,2,-1,-2,-1,-2
1532319190789,0,-1,-2,-2,-2,-3,-1,-2
1532319190794,1,-1,-2,-2,0,-2,-3,0
1532319190799,-5,-2,0,-1,0,0,-2,-2
1532319190804,0,0,-1,-2,0,-1,-1,-1
1532319190809,-1,-1,0,1,1,0,-1,-1
1532319190814,-1,0,0,1,1,-2,1,-1
1532319190819,-2,-2,-1,0,-1,-1,-2,-2
1532319190824,-1,0,-2,-4,-2,-1,-2,-1
1532319190829,-3,-1,-1,-1,-1,0,0,0
1532319190834,-1,-1,-3,-1,-1,-2,1,-1
1532319190839,1,-2,0,0,-1,0,-1,-1
1532319190844,-2,-2,-1,-2,0,-2,1,0
1532319190849,0,0,-3,-2,-1,0,-1,-1
1532319190854,-1,0,1,-1,-2,0,-1,1
1532319190859,0,-1,-2,-3,-1,-1,-1,-1
1532319190864,0,0,1,0,-2,0,0,-1
1532319190869,-2,-1,-2,0,-1,-1,-1,-1
1532319190874,-1,-1,0,1,-2,0,0,0
1532319190879,-1,-1,-1,-1,-1,0,-1,-1
1532319190884,-1,0,0,-2,-1,-1,-1,-1
1532319190889,-2,1,-2,-1,-2,0,0,-1
1532319190894,0,-2,-1,0,0,-1,-1,-1
1532319190899,-1,-1,-1,-1,-1,-1,-2,0
1532319190904,0,-1,-2,-1,-1,0,-2,0
1532319190909,0,-2,1,-2,0,-2,-2,1
1532319190914,0,-1,-1,-3,-1,-2,1,-3
1532319190919,-1,1,-1,-2,-3,-1,0,-2
1532319190924,1,-1,-1,0,0,-1,-2,-1
1532319190929,0,-1,-1,-1,-3,-1,-1,0
1532319190934,0,0,-1,0,-1,2,-1,-1
1532319190939,2,0,0,-2,0,-1,-1,0
1532319190944,-4,-2,0,0,1,2,0,-2
1532319190949,-1,-1,0,1,-1,0,-2,0
1532319190954,0,-1,-1,-1,-1,1,-2,-1
1532319190959,-2,-2,-1,0,1,-1,-1,0
1532319190964,-1,0,-1,-1,-1,-2,-2,-1
1532319190969,0,-1,-2,0,-1,-1,0,-2
1532319190974,-2,-1,-2,-1,2,-2,-2,-1
1532319190979,0,-1,-2,-2,-2,-1,-2,0
1532319190984,0,-2,-2,-1,-1,-1,-1,1
1532319190989,2,-1,-1,-1,0,0,0,0
1532319190994,0,0,-1,0,-2,-1,0,0
1532319190999,0,0,-1,1,1,-1,-3,-2
1532319191004,1,-1,-1,-2,0,0,-1,-1
1532319191009,-1,-2,-1,-1,0,-2,-2,-2
1532319191014,-1,-1,-1,0,-1,0,0,-1
1532319191019,-1,1,-1,0,-1,-1,-1,-2
1532319191024,-1,-1,1,1,-1,-1,1,0
1532319191029,-1,0,-1,0,-1,-2,1,-2
1532319191034,1,0,0,-1,-1,-3,-1,-1
1532319191039,-1,-1,-1,-1,-1,-1,-1,0
1532319191044,2,0,0,0,-2,-1,-2,0
1532319191049,-2,0,-2,-1,0,0,-2,-1
1532319191054,-1,-2,-1,-1,0,0,0,0
1532319191059,-1,-2,-1,0,2,0,1,-1
1532319191064,-1,1,-3,-1,-1,-1,0,-1
1532319191069,-2,-2,1,0,1,0,0,0
1532319191074,-2,-2,0,-2,-3,1,5,1
1532319191079,-1,-1,-1,-1,-2,0,-1,-2
1532319191084,-2,-1,-1,-1,-1,-1,-2,-2
1532319191089,-1,0,1,0,0,-1,-1,-2
1532319191094,-1,0,0,0,-1,-1,-3,-3
1532319191099,0,-2,-1,-1,-2,0,0,-2
1532319191104,-2,-2,0,-1,0,-1,-1,-1
1532319191109,0,-2,-2,-1,-1,-1,-3,-1
1532319191114,-3,-1,-1,0,1,0,-3,-1
1532319191119,0,0,0,1,0,0,-1,-2
1532319191124,0,0,0,0,-1,0,-1,-1
1532319191129,0,0,-1,-1,-2,-1,0,-1
1532319191134,-1,-2,-1,0,-2,-1,-1,1
1532319191139,-3,-1,0,-1,-1,0,-1,-2
1532319191144,0,-2,-2,0,-1,-1,-1,-1
1532319191149,0,-2,0,0,0,0,1,0
1532319191154,-1,0,-1,-1,0,-2,-3,-1
1532319191159,-2,-1,-3,1,-1,-2,1,-2
1532319191164,-1,1,1,-1,-2,-1,0,-2
1532319191169,0,-1,-2,-1,-1,0,-2,-3
1532319191174,-2,-2,1,0,-2,-2,-2,-2
1532319191179,-1,0,0,-2,-1,-1,-1,1
1532319191184,-1,-3,0,1,1,0,-1,1
1532319191189,1,0,-2,0,-2,-1,0,0
1532319191194,1,1,0,0,0,2,-2,-1
1532319191199,1,0,0,-2,-1,-3,0,0
1532319191204,1,-1,-1,-2,-1,0,0,-2
1532319191209,-3,-1,-1,0,-2,0,-1,-1
1532319191214,0,-1,-3,1,-2,-1,-1,-1
1532319191219,0,0,-1,-2,-1,0,0,1
1532319191224,0,-2,1,-1,-1,0,-1,-1
1532319191229,-1,0,0,0,1,-1,2,-1
1532319191234,1,0,0,-2,-1,-3,-2,0
1532319191239,-1,0,0,0,-2,0,0,-1
1532319191244,1,-1,-3,-2,0,0,-1,0
1532319191249,-2,-2,0,-3,0,-2,-1,1
1532319191254,-1,-1,-2,-1,-2,0,-3,0
1532319191259,0,-2,1,-1,-3,-2,-1,0
1532319191264,-2,0,-3,0,0,-3,-1,-1
1532319191269,0,-2,-1,0,-1,-1,0,-1
1532319191274,1,0,-1,-3,-1,-2,0,-1
1532319191279,-1,0,-2,-1,0,0,0,-1
1532319191284,-2,-2,1,0,-2,-1,0,-2
1532319191289,-1,0,-1,-1,-2,-1,-1,0
1532319191294,0,-2,0,-2,0,-1,-2,-3
1532319191299,1,-1,-1,-2,0,-1,-2,1
1532319191304,-2,0,-1,-1,-1,0,0,1
1532319191309,0,0,-1,-1,-2,-1,-1,-1
1532319191314,0,0,1,-2,-2,0,0,0
1532319191319,0,0,0,-1,-2,0,0,-1
1532319191324,0,0,-1,1,-1,-2,-2,-1
1532319191329,-2,-2,-1,-2,-1,-2,0,-3
1532319191334,-2,-2,-2,1,-1,-1,-1,0
1532319191339,-2,0,-1,-1,-2,0,-1,1
1532319191344,-1,-1,-1,-3,0,0,-1,1
1532319191349,2,0,-1,-1,-2,0,0,-1
1532319191354,0,-1,-1,0,-1,-2,-1,-1
1532319191359,-1,-1,-1,-1,-1,0,0,-2
1532319191364,2,-1,-2,-1,-1,-3,-3,0
1532319191369,0,-1,1,-2,-1,0,-3,0
1532319191374,-3,0,-2,0,1,-1,0,0
1532319191379,1,-1,-3,-1,-3,-1,-1,0
1532319191384,-1,0,-1,-2,0,0,0,0
1532319191389,0,0,-1,-1,-1,-1,-2,-2
1532319191394,-1,-2,0,-1,0,-1,-2,-1
1532319191399,-4,-2,-1,0,0,-1,0,-3
1532319191404,-3,0,-1,-1,0,0,2,-2
1532319191409,0,0,-2,-1,-1,0,0,1
1532319191414,0,-1,-1,0,0,-1,-1,-1
1532319191419,-1,0,-1,1,1,-2,-1,0
1532319191424,1,-2,-1,1,-1,-1,-1,0
1532319191429,-1,-1,0,-1,0,-1,-2,-1
1532319191434,-1,1,-2,0,-2,-1,0,-1
1532319191439,0,0,-1,-1,-1,-1,0,-2
1532319191444,-1,-2,-1,-2,-2,0,0,-2
1532319191449,-1,1,-2,0,0,0,-2,1
1532319191454,0,-1,-2,-2,-1,-1,0,-1
1532319191459,1,0,0,-1,1,-1,-2,0
1532319191464,1,0,-1,-1,0,-2,-4,0
1532319191469,-1,0,-1,2,-1,0,2,0
1532319191474,2,0,-1,-2,-5,-4,-2,0
1532319191479,-1,0,-2,-1,0,-1,0,-1
1532319191484,-4,-1,0,0,-1,-2,0,-1
1532319191489,-1,-4,0,1,0,-1,-1,-1
1532319191494,-2,-2,-2,1,0,-1,0,0
1532319191499,-1,0,-2,-1,-1,-1,0,0
1532319191504,-1,-1,0,-2,-1,-1,-1,0
1532319191509,-1,-2,-1,-2,0,0,-1,0
1532319191514,-3,-2,-1,-2,-2,-2,-1,0
1532319191519,0,-2,-1,-1,0,-2,-2,-1
1532319191524,-1,1,-1,-1,0,0,0,-1
1532319191529,1,0,0,-1,-2,-3,-2,1
1532319191534,-2,-1,0,0,1,1,-1,-1
1532319191539,0,-1,0,-1,-1,0,-1,0
1532319191544,-1,0,0,0,0,-1,0,0
1532319191549,0,-1,-1,-2,0,-1,-1,-1
1532319191554,-1,0,0,0,1,0,-1,-1
1532319191559,-3,-3,0,0,-1,0,-1,-1
1532319191564,-2,-2,0,1,-1,0,0,-2
1532319191569,-1,-1,-1,-2,0,-1,-1,-1
1532319191574,-1,-2,-2,-2,0,-2,-2,-1
1532319191579,-2,0,0,0,1,-1,-2,-1
1532319191584,0,-1,-1,-1,-1,-2,0,-2
1532319191589,-1,-1,0,-1,-1,-2,-1,-2
1532319191594,-2,-1,-1,0,0,1,2,-2
1532319191599,2,-1,0,-2,-3,-2,0,0
1532319191604,-1,0,-1,-1,-1,-1,-1,0
1532319191609,-1,0,-2,0,-1,-1,-1,0
1532319191614,-2,-2,-1,-2,-2,-2,-1,-2
1532319191619,0,0,0,-3,-2,-1,1,-1
1532319191624,-1,0,0,-1,-1,-1,-2,0
1532319191629,1,0,-1,-1,0,0,-3,-1
1532319191634,0,1,-2,0,2,-2,0,0
1532319191639,-2,-1,0,0,0,1,1,-1
1532319191644,1,-1,0,-1,-1,-3,-1,0
1532319191649,-2,-1,-2,-1,-1,-1,-1,1
1532319191654,-2,-3,-1,-1,0,1,-2,1
1532319191659,-1,-1,0,1,1,1,-1,-2
1532319191664,-2,0,-1,-1,-2,-1,1,0
1532319191669,-1,-1,0,0,0,0,-2,-1
1532319191674,-1,0,-2,0,-1,-1,0,-1
1532319191679,1,1,-1,-2,-1,-1,-1,0
1532319191684,2,1,-1,-1,-2,-2,-2,0
1532319191689,-2,-1,-1,-2,2,1,-3,-1
1532319191694,0,-1,-1,-1,0,0,-2,0
1532319191699,-1,0,-1,-1,-1,-2,-2,-1
1532319191704,0,0,-1,-2,-1,1,-2,-2
1532319191709,0,-1,0,-1,-1,-1,0,0
1532319191714,-1,1,1,1,0,0,0,-1
1532319191719,-1,-2,-2,0,0,0,-1,-2
1532319191724,-1,-2,0,-1,-1,0,-1,-2
1532319191729,0,0,0,-2,-2,0,-1,-2
1532319191734,-1,0,1,-1,-1,-1,1,0
1532319191739,-1,-1,-1,-2,-2,-1,-1,1
1532319191744,-2,-1,-1,-1,-1,0,0,-2
1532319191749,0,-2,-1,-1,1,0,-1,-2
1532319191754,1,-2,-2,0,-2,-1,-2,0
1532319191759,0,0,1,1,0,-1,1,-1
1532319191764,-1,-1,0,-1,0,0,-1,1
1532319191769,1,1,0,-1,-2,-1,-1,1
1532319191774,-2,-1,0,0,-1,2,2,0
1532319191779,-2,0,-1,-2,-1,-1,-1,-2
1532319191784,0,-2,-1,-2,-1,-2,0,-1
1532319191789,-2,-3,-1,0,1,-1,-1,-2
1532319191794,1,-2,-1,-2,-1,-1,-2,0
1532319191799,-2,-1,-2,-2,-1,0,1,-2
1532319191804,0,0,0,-1,1,0,1,-1
1532319191809,-1,1,0,-1,-1,-3,-1,-1
1532319191814,-1,-1,-1,-2,0,0,-1,-1
1532319191819,-1,-1,0,-1,-1,0,-3,0
1532319191824,0,-2,-1,-1,-2,-2,-2,-1
1532319191829,-1,0,-1,-2,0,-1,-1,-1
1532319191834,-1,-2,-2,-1,-2,-2,-3,-1
1532319191839,0,-3,-1,0,-1,-3,-1,-2
1532319191844,0,0,-1,-1,-1,1,-2,0
1532319191849,0,0,-1,1,0,0,-2,-1
1532319191854,-1,-1,0,-2,0,-1,-1,-2
1532319191859,-1,0,-1,-1,-1,1,0,-2
1532319191864,-1,-2,0,-1,-1,0,-1,0
1532319191869,0,0,-1,-1,-2,-1,-1,1
1532319191874,-1,-1,-1,0,0,-1,-1,-1
1532319191879,-2,-1,-1,0,3,0,-1,-1
1532319191884,0,-1,-1,1,-1,0,1,0
1532319191889,-3,-1,-2,-1,0,-1,-1,0
1532319191894,1,1,-1,2,-1,-1,-1,-1
1532319191899,-1,-2,0,0,-2,1,-3,-1
1532319191904,-3,-1,-2,1,2,-1,-1,-1
1532319191909,0,-2,-2,1,-2,-2,-1,-1
1532319191914,-1,-1,0,0,0,1,1,-1
1532319191919,-1,-2,-2,0,-2,0,-1,-1
1532319191924,-1,1,0,0,-1,-1,2,0
1532319191929,0,-1,-1,-1,-1,0,-1,-2
1532319191934,0,-1,-2,-1,-1,-2,-2,-1
1532319191939,0,1,1,-3,0,-1,-1,-1
1532319191944,0,-1,1,-1,-2,1,-1,0
1532319191949,-1,-1,-1,-1,0,0,-1,-1
1532319191954,0,-1,0,-1,-2,-1,-2,0
1532319191959,0,0,0,0,-1,0,-1,1
1532319191964,2,0,-1,-2,-4,-2,-4,-1
1532319191969,-1,0,-1,0,0,1,1,-1
1532319191974,-2,0,-1,-2,-2,-3,0,-1
1532319191979,-2,0,-1,1,1,-3,-1,0
1532319191984,-1,-2,-2,-2,0,-3,-1,-1
1532319191989,0,-1,0,-1,0,-1,0,-1
1532319191994,0,-2,-2,0,-1,0,-1,-1
1532319191999,-2,-1,0,-1,-2,0,1,-1
1532319192004,-1,-1,1,-1,0,0,0,-1
1532319192009,-2,0,1,0,-1,-1,-1,-2
1532319192014,0,-1,0,-2,-1,-1,-2,-1
1532319192019,0,-2,-1,-1,-2,-3,-1,-1
1532319192024,-2,-1,-2,1,1,-1,0,-2
1532319192029,0,-2,-1,-1,-2,0,-1,0
1532319192034,0,2,-1,-1,-1,-2,-1,-1
1532319192039,-1,-1,-1,-1,-1,1,-1,-1
1532319192044,0,1,-1,-2,-1,-2,-2,1
1532319192049,1,-1,-1,-1,0,0,-1,-1
1532319192054,1,-1,0,0,-1,-1,-1,-1
1532319192059,-2,-1,-2,-1,-1,-1,1,-1
1532319192064,-2,-2,1,-2,0,0,-1,-1
1532319192069,-1,0,-1,0,-1,0,-1,-2
1532319192074,0,-1,-1,-1,-1,-1,0,-2
1532319192079,1,0,-1,0,-1,0,-2,-1
1532319192084,-1,-3,-1,0,-1,1,-1,-3
1532319192089,-2,-1,0,-1,-3,0,2,1
1532319192094,-1,-1,0,-1,0,-1,0,-1
1532319192099,-1,-2,-1,-1,0,-1,0,1
1532319192104,-2,-2,0,-2,-2,0,-1,-2
1532319192109,-1,0,-2,-2,-2,0,-1,0
1532319192114,0,1,-2,-2,-2,2,-2,-1
1532319192119,0,0,-2,-1,-2,-1,-3,0
1532319192124,0,-1,0,-1,1,-2,-1,0
1532319192129,-1,-1,-1,0,-2,-2,-2,-2
1532319192134,-3,-2,-1,0,1,1,-1,-2
1532319192139,1,0,-1,0,-1,-1,-3,-1
1532319192144,1,1,-2,0,-1,-2,-3,-1
1532319192149,-1,-2,-1,-1,1,-1,0,0
1532319192154,0,-2,0,-1,-1,-2,-2,0
1532319192159,2,-1,0,-1,-1,0,0,0
1532319192164,0,0,0,0,-1,0,-1,-2
1532319192169,0,-2,1,0,-1,-1,0,-1
1532319192174,0,-2,-2,-1,0,0,-2,-1
1532319192179,0,0,-1,0,-1,-1,-1,0
1532319192184,-3,-1,0,-1,-2,-1,2,-1
1532319192189,3,0,-2,-2,-2,-1,-2,-1
1532319192194,-2,-2,-1,1,0,-2,0,-2
1532319192199,-1,-1,-1,-3,-2,-1,0,-1
1532319192204,-1,-2,-2,0,-1,0,-1,-1
1532319192209,-1,-1,2,-1,0,0,-2,-2
1532319192214,2,2,-1,0,-3,-3,-1,2
1532319192219,-1,0,-2,-1,0,0,0,-1
1532319192224,0,1,-1,-1,-1,-1,0,1
1532319192229,-1,-1,-1,-1,-1,0,-1,0
1532319192234,-1,-2,-3,-2,-1,0,0,-1
1532319192239,-2,-1,0,-1,1,0,-1,-2
1532319192244,0,-1,-3,1,-1,-1,0,1
1532319192249,-1,-3,-1,1,0,0,-3,1
1532319192254,-1,-2,0,-1,2,-1,-1,-2
1532319192259,0,-1,0,-1,-4,-2,-1,-1
1532319192264,-1,0,-2,-2,-1,1,-1,0
1532319192269,-4,1,-4,-2,-1,-3,-1,-1
1532319192274,-2,-1,-1,-1,-1,1,1,-1
1532319192279,-1,-1,-2,0,1,0,-1,0
1532319192284,1,1,-1,-1,-2,-1,-1,1
1532319192289,0,-1,0,-2,0,0,0,-1
1532319192294,-1,0,-2,-2,-3,-1,-2,0
1532319192299,0,-1,1,-2,0,-2,0,1
1532319192304,-1,-3,0,-2,0,-2,-1,-2
1532319192309,0,1,0,0,0,-2,0,0
1532319192314,0,-1,0,-2,0,-1,0,-1
1532319192319,-1,-2,-1,-1,-1,-1,-1,-1
1532319192324,1,-2,-1,0,-1,-1,-1,-1
1532319192329,2,0,0,-3,-5,-3,0,1
1532319192334,-1,0,-2,-1,-2,0,-1,-1
1532319192339,-4,0,0,0,0,0,0,-2
1532319192344,0,-2,-1,0,0,-1,-1,-1
1532319192349,-3,-3,-2,-1,0,0,-2,-2
1532319192354,-1,0,-1,0,-1,0,0,-1
1532319192359,1,-1,-2,-2,0,0,-1,-1
1532319192364,-1,0,-1,-2,0,0,-1,1
1532319192369,-1,0,0,0,-1,-2,1,0
1532319192374,-2,-1,0,-2,1,-1,-1,-1
1532319192379,0,0,-1,-3,-1,-2,-3,-1
1532319192384,-2,0,0,-1,0,1,0,-4
1532319192389,1,0,-1,-2,0,-2,-2,-1
1532319192394,0,-3,0,0,0,0,-1,0
1532319192399,-1,0,-1,-1,-1,-1,-2,-2
1532319192404,-1,0,0,-1,-2,-1,-3,1
1532319192409,-2,-2,0,0,-1,0,0,-1
1532319192414,-1,-2,-1,0,-1,-1,-1,-1
1532319192419,0,-2,-1,1,0,-2,-1,1
1532319192424,-1,1,-1,-2,-2,-2,0,-1
1532319192429,-1,-2,-3,-1,0,0,1,0
1532319192434,0,-1,-1,-1,-2,-3,0,1
1532319192439,1,0,0,1,-2,0,0,-1
1532319192444,-2,-1,0,1,1,-1,0,-1
1532319192449,0,-2,0,1,1,1,-1,-2
1532319192454,-2,0,1,-2,-2,0,-1,-2
1532319192459,0,-1,0,-1,0,2,-1,0
1532319192464,0,-1,0,-1,-2,-3,-1,1
1532319192469,-1,0,0,0,-1,-2,-3,-2
1532319192474,0,0,-1,-1,-1,-2,-3,0
1532319192479,-1,-2,-1,0,-1,-2,-2,-2
1532319192484,1,-1,-1,-1,-1,-1,-1,-1
1532319192489,-1,-1,-2,-1,-2,0,-1,2
1532319192494,1,-1,-1,-2,-1,-3,1,0
1532319192499,-2,0,-1,-1,0,-1,0,-1
1532319192504,0,-1,-1,-1,-1,-1,0,-1
1532319192509,0,-3,-3,0,0,-1,-1,-3
1532319192514,-2,-1,0,2,0,2,0,-1
1532319192519,-1,0,-1,-1,-1,-2,-2,1
1532319192524,-1,-2,-1,-1,-2,-1,1,-1
1532319192529,-3,-1,-1,-1,-1,-1,1,-1
1532319192534,1,0,-2,0,-1,-1,-3,0
1532319192539,1,-1,-2,-2,0,-1,-1,0
1532319192544,-1,1,0,0,0,1,-3,0
1532319192549,1,1,-1,0,0,-1,-2,0
1532319192554,-1,-1,0,-1,-2,-1,0,-2
1532319192559,-5,-2,-2,-1,-1,-1,1,-1
1532319192564,-2,0,-3,1,-1,-2,0,1
1532319192569,0,-2,-3,-1,-1,-1,-2,-2
1532319192574,0,1,0,-1,-2,0,-1,-1
1532319192579,-2,-1,0,0,-1,-2,0,-1
1532319192584,-2,-2,0,0,0,-1,3,-3
1532319192589,0,1,1,0,0,-2,-1,-2
1532319192594,0,-3,-2,-1,1,-1,-1,-1
1532319192599,0,-1,-2,0,-1,0,-1,0
1532319192604,0,0,-3,0,0,0,-2,0
1532319192609,-1,-1,-1,-2,-2,0,-1,1
1532319192614,-1,-3,-1,-2,-1,-1,0,0
1532319192619,0,0,-1,-1,-3,-2,-1,0
1532319192624,0,-1,0,-2,0,-1,-3,-2
1532319192629,-1,-1,0,-1,-1,0,0,-1
1532319192634,-1,0,0,0,-1,-2,0,-1
1532319192639,0,0,0,-2,-1,0,-2,-1
1532319192644,1,0,0,-2,-2,-2,-2,-1
1532319192649,-1,0,0,-1,-2,-1,-1,-2
1532319192654,-1,1,-1,1,1,-1,1,-1
1532319192659,1,-1,-1,0,-1,-2,-1,0
1532319192664,-2,0,-1,0,0,0,0,-1
1532319192669,0,0,-1,0,-1,-2,0,1
1532319192674,-1,-2,-2,0,1,0,-1,0
1532319192679,-1,-2,-1,-1,-1,-1,1,-2
1532319192684,-1,-2,-1,0,-1,-2,-2,-1
1532319192689,-1,0,0,-3,-1,0,-2,-1
1532319192694,-1,-2,-1,-2,0,-1,0,0
1532319192699,-5,-1,-2,0,1,2,1,-3
1532319192704,1,-1,-2,-2,-1,0,0,0
1532319192709,-1,-2,-2,0,0,0,-1,-1
1532319192714,0,-2,-1,0,0,-1,-1,-1
1532319192719,-2,-2,0,-1,0,-1,1,0
1532319192724,-1,0,-2,0,-1,-1,-1,0
1532319192729,-1,-2,1,0,-1,-1,1,-1
1532319192734,-1,-1,-1,-1,-1,0,-2,-2
1532319192739,-1,-1,-1,1,0,1,-1,-3
1532319192744,0,0,-2,-2,-1,-2,-1,-1
1532319192749,1,-1,0,-1,1,-1,-1,0
1532319192754,-1,-1,0,-1,-1,-1,-1,-1
1532319192759,-2,0,1,-3,-2,-1,2,-1
1532319192764,1,0,0,-1,-1,0,-3,-1
1532319192769,0,1,-3,0,-1,-1,-1,2
1532319192774,-2,-1,-1,-1,-3,-2,1,-1
1532319192779,0,-2,-1,1,2,-1,-1,0
1532319192784,0,-1,0,-2,-1,0,-1,-1
1532319192789,-2,-1,-2,0,-2,0,-2,-1
1532319192794,0,1,-1,-1,1,-1,-1,0
1532319192799,-1,1,-1,1,0,0,-1,-1
1532319192804,-1,-1,-1,0,-1,0,0,1
1532319192809,0,0,0,1,-2,-2,-2,-2
1532319192814,-2,-2,-2,-1,-2,-1,-1,-1
1532319192819,-2,0,-1,-1,0,-1,-1,0
1532319192824,-1,-1,0,0,-1,-3,1,-1
1532319192829,0,1,0,-1,-1,0,-3,-2
1532319192834,1,0,1,-1,-2,-2,-2,-1
1532319192839,-3,-2,-2,-1,0,-1,-2,-2
1532319192844,-1,0,0,0,-1,2,-2,-2
1532319192849,0,-1,-1,0,-1,0,1,-2
1532319192854,2,-2,-1,-2,-2,-1,-3,0
1532319192859,0,-1,0,0,-1,-1,1,0
1532319192864,-1,-1,-1,1,-1,0,-1,0
1532319192869,-2,-2,-1,-1,-1,0,3,0
1532319192874,-1,0,-1,-1,1,0,1,-1
1532319192879,2,-2,-1,-1,-1,-1,-2,-1
1532319192884,-1,0,1,-2,-1,0,1,-2
1532319192889,0,0,1,-2,0,-2,-1,0
1532319192894,-3,-2,-2,0,-1,0,-1,-1
1532319192899,1,0,-1,-1,-2,-3,-1,-1
1532319192904,-1,-2,-2,-1,0,-1,-1,-1
1532319192909,-1,-1,-1,-1,0,0,-2,-1
1532319192914,0,1,-1,0,-3,-1,-2,-1
1532319192919,1,1,-2,-3,-2,-1,-1,0
1532319192924,-3,-1,-2,0,0,-2,1,-1
1532319192929,3,1,-2,-1,-2,-2,-1,-1
1532319192934,-1,-2,-1,1,-1,-1,1,-1
1532319192939,-1,0,0,1,-1,-2,-2,0
1532319192944,-1,-2,1,-1,0,0,-1,-1
1532319192949,0,-1,-1,-1,-2,-1,-2,-1
1532319192954,-1,0,-1,2,-1,0,-1,-2
1532319192959,-6,-3,1,-2,-2,0,0,-2
1532319192964,-1,-1,-1,0,0,-2,0,-1
1532319192969,-2,-1,-1,-1,-3,0,-1,-1
1532319192974,-1,0,-1,-1,-1,-1,0,0
1532319192979,0,-1,-2,0,-1,-1,0,-1
1532319192984,-2,0,-2,-1,-1,1,-1,-2
1532319192989,-1,-1,0,-1,0,0,-1,-2
1532319192994,-1,-2,0,0,-1,-1,-2,-3
1532319192999,1,-3,-3,-2,0,1,0,1
1532319193004,-1,-1,-1,0,0,-1,1,-2
1532319193009,-2,0,0,0,0,-2,-1,0
1532319193014,0,0,-1,-1,-1,0,-1,0
1532319193019,1,1,1,0,1,-1,-2,-2
1532319193024,0,-1,-1,-2,-1,1,-3,1
1532319193029,-2,-1,0,-1,0,-1,-1,-1
1532319193034,-1,1,-1,-2,-2,-2,-1,-1
1532319193039,0,0,-2,2,-2,-1,0,-1
1532319193044,0,-1,-1,0,-2,0,-2,-1
1532319193049,-1,-1,-1,0,0,-4,1,-1
1532319193054,0,-2,-1,0,-1,1,-1,1
1532319193059,-1,-1,0,0,-1,1,-2,0
1532319193064,5,2,0,-2,-2,-4,-3,3
1532319193069,1,-3,-1,-1,-1,0,0,-2
1532319193074,-1,-2,-2,0,0,0,1,-2
1532319193079,-2,-1,-1,-1,-1,0,-1,-1
1532319193084,0,-2,-1,0,-1,-2,-3,-1
1532319193089,-1,-1,0,-1,0,0,-1,1
1532319193094,0,-1,-1,0,-1,-2,-3,-1
1532319193099,3,0,-1,-2,-3,-1,-2,-1
1532319193104,-3,-1,-1,-1,0,0,0,-2
1532319193109,-1,-1,-2,0,-2,-1,-1,-2
1532319193114,-1,-1,-3,-2,1,-2,0,-1
1532319193119,0,0,0,-1,-1,0,0,1
1532319193124,-2,-2,-1,-1,0,0,-1,-2
1532319193129,0,-1,-1,0,0,0,0,0
1532319193134,-1,0,1,0,-1,-1,0,-1
1532319193139,-1,1,-1,-3,1,-3,0,-1
1532319193144,-1,-1,-1,1,-1,-2,0,-1
1532319193149,0,0,0,-4,-2,-1,-1,0
1532319193154,0,0,-1,-1,0,0,-1,0
1532319193159,-1,-1,0,0,-1,-2,0,0
1532319193164,0,1,1,0,-2,-2,0,-1
1532319193169,-2,-1,-1,0,1,1,2,0
1532319193174,-3,-2,-3,-1,-2,0,0,-2
1532319193179,1,-2,-1,-2,-2,-1,-1,-2
1532319193184,0,-2,0,-1,0,1,-2,-1
1532319193189,-1,0,0,1,0,-2,-1,1
1532319193194,-1,-2,0,-1,1,-1,-1,1
1532319193199,-2,-1,-1,-1,0,0,0,-1
1532319193204,-4,0,-2,0,-1,1,1,-4
1532319193209,0,1,-2,-1,-2,-2,0,-2
1532319193214,-1,0,-2,1,0,-1,0,-2
1532319193219,-1,0,-1,1,1,-2,-1,0
1532319193224,0,-1,-1,-1,0,-1,1,1
1532319193229,-1,-1,0,-1,-1,-1,-2,-2
1532319193234,-1,-1,0,-1,-2,-1,-2,1
1532319193239,-2,0,-2,0,-1,0,-1,-2
1532319193244,-2,-2,-2,-1,-1,-2,0,0
1532319193249,-1,-1,-2,1,1,0,1,0
1532319193254,0,-2,-2,-1,0,-2,0,1
1532319193259,0,-2,-2,-1,-2,-2,-2,-2
1532319193264,1,0,-2,-1,-2,-3,0,-2
1532319193269,-1,0,-2,-4,-3,0,-3,-2
1532319193274,0,0,0,0,-2,-2,0,-1
1532319193279,-1,-1,-1,0,-1,-1,-3,-2
1532319193284,1,-1,-1,-1,0,-1,-2,0
1532319193289,-5,-2,-1,-1,-2,0,1,-3
1532319193294,1,-2,0,-2,-1,-1,-1,-2
1532319193299,0,1,-1,-2,0,0,-1,1
1532319193304,2,0,0,0,-1,-1,-1,0
1532319193309,2,0,-2,-2,0,-1,-1,1
1532319193314,-2,-1,-1,0,0,-1,0,-1
1532319193319,0,-2,1,-1,0,0,-1,-2
1532319193324,0,-2,-1,-1,-2,-2,0,-1
1532319193329,0,-1,0,1,-1,-2,-1,1
1532319193334,-2,-2,0,1,-2,0,-1,-2
1532319193339,-1,-3,-1,-2,-1,-2,2,1
1532319193344,-2,-2,1,0,-1,0,-2,-2
1532319193349,0,-1,0,0,0,0,-1,-2
1532319193354,-3,-1,-1,-2,0,-1,-1,-3
1532319193359,-1,0,0,-2,0,-2,0,-2
1532319193364,-2,-1,-3,-1,0,-1,0,2
1532319193369,0,-1,0,-1,-2,-1,-2,0
1532319193374,2,-1,-2,0,0,1,-2,0
1532319193379,0,-1,1,1,-1,-1,-3,1
1532319193384,-1,0,-2,-2,0,-1,0,-1
1532319193389,-1,0,-2,0,-2,-2,-2,-3
1532319193394,-1,1,-2,-1,-1,-3,-1,0
1532319193399,0,-1,-1,-2,-1,-3,-1,-1
1532319193404,0,-2,0,-1,-1,0,0,1
1532319193409,-1,0,0,-2,-1,-1,-1,-1
1532319193414,0,-1,0,-1,-1,0,1,1
1532319193419,-1,1,-2,0,-1,0,0,-2
1532319193424,1,1,0,1,1,-2,-4,0
1532319193429,-1,-1,-1,0,-1,2,0,1
1532319193434,1,0,-1,-2,-1,-2,-3,-1
1532319193439,-3,-1,0,1,1,-1,3,1
1532319193444,-1,-1,-2,-1,-4,0,-2,-3
1532319193449,-1,-1,-1,-3,-2,-2,0,-1
1532319193454,-1,-1,-1,-1,1,1,0,-3
1532319193459,-1,-1,-1,-1,-1,-1,1,-1
1532319193464,-3,-1,-1,-1,-3,3,-1,1
1532319193469,0,-1,-1,0,-2,-2,-1,-2
1532319193474,-1,0,-3,-1,-1,-1,-1,-1
1532319193479,-2,0,-2,-1,-4,-1,-1,-3
1532319193484,-1,0,1,-2,1,-4,0,-2
1532319193489,-1,-1,-1,-1,-1,0,-2,-2
1532319193494,0,-2,0,0,-1,-2,-1,1
1532319193499,-1,0,-1,-1,-1,-1,0,-1
1532319193504,1,1,-2,-2,0,-1,0,0
1532319193509,-1,1,-1,1,0,1,0,-1
1532319193514,-1,0,0,-1,-1,0,0,-2
1532319193519,-1,-2,-1,0,0,0,-1,-1
1532319193524,0,-3,0,0,-2,-2,-2,-1
1532319193529,0,0,-1,-1,0,-2,-1,-1
1532319193534,0,0,0,-1,-1,-2,-2,-1
1532319193539,1,0,0,0,-1,-1,-1,0
1532319193544,-2,-2,-3,0,1,1,0,1
1532319193549,0,-1,-1,1,2,0,0,0
1532319193554,-2,-1,-1,0,-2,0,-1,-1
1532319193559,0,-1,-2,-1,-1,1,-2,0
1532319193564,-2,-2,0,1,-1,0,-1,-3
1532319193569,0,0,0,-2,-3,-3,0,0
1532319193574,0,-1,-1,0,-1,0,-1,-1
1532319193579,-1,-1,-2,0,0,-1,-2,-2
1532319193584,-1,0,-1,0,0,-2,-1,0
1532319193589,0,-2,-1,-1,-1,0,-2,-1
1532319193594,0,-2,1,-2,-2,-2,-1,0
1532319193599,-1,1,-1,0,-2,-1,0,-2
1532319193604,-1,1,-1,-2,-2,1,-2,-1
1532319193609,-2,-1,0,0,-1,0,-1,-3
1532319193614,-1,0,-1,-3,0,1,-1,1
1532319193619,0,-1,-1,-1,-2,-2,0,-1
1532319193624,-1,-1,-2,-2,0,-2,0,0
1532319193629,-2,-1,-1,-1,-2,-2,-1,0
1532319193634,1,-1,-1,0,0,0,-1,-1
1532319193639,0,0,-1,-3,-2,-1,-2,0
1532319193644,1,-1,0,0,0,0,-2,0
1532319193649,-1,-2,-1,-1,-1,-3,-1,-2
1532319193654,-2,-2,-1,-1,-1,1,0,-2
1532319193659,-1,-2,-1,-2,-1,0,0,1
1532319193664,0,1,0,-1,0,-1,0,-1
1532319193669,1,0,-1,1,0,-1,2,1
1532319193674,-2,0,-1,-1,-4,-2,-3,-2
1532319193679,-2,1,-2,-1,-1,1,-2,-2
1532319193684,-2,-2,-1,-1,-2,1,-2,-1
1532319193689,-1,-1,-2,-1,1,0,1,0
1532319193694,0,0,0,0,1,-1,1,-1
1532319193699,-5,-3,-1,1,0,1,0,-2
1532319193704,1,0,-2,-1,-1,-2,0,1
1532319193709,1,-1,0,0,-1,-2,-3,2
1532319193714,-1,-2,0,-1,-3,-2,0,-1
1532319193719,0,-2,1,-1,0,-1,-2,0
1532319193724,-1,1,1,-1,-1,0,0,-3
1532319193729,-2,0,-2,-1,-2,-1,0,-1
1532319193734,-1,1,-2,-2,0,0,0,-1
1532319193739,1,-1,-1,-2,-1,-1,-1,-1
1532319193744,-2,-2,-3,0,-3,-1,-1,-2
1532319193749,2,1,0,-1,0,0,-1,1
1532319193754,-1,0,0,1,-2,1,-2,-1
1532319193759,1,0,0,0,-1,-1,-1,-1
1532319193764,-2,-2,0,0,1,-1,-1,-2
1532319193769,-3,-1,0,0,-2,-2,-1,-1
1532319193774,0,-1,-1,0,0,-2,1,-1
1532319193779,-1,0,-1,-2,0,-1,0,0
1532319193784,0,0,0,-1,-1,0,0,0
1532319193789,-1,-3,-1,-2,0,0,0,-1
1532319193794,1,0,-2,-1,-2,-1,-2,-2
1532319193799,1,-2,-1,-1,1,1,-2,-1
1532319193804,1,0,-1,-2,-2,-3,-2,1
1532319193809,-3,-1,0,-1,-1,0,1,-3
1532319193814,-1,0,-1,-1,-2,-1,-1,1
1532319193819,0,0,-1,-2,0,-2,-1,0
1532319193824,-1,-2,0,-2,-2,-1,-1,-2
1532319193829,-1,-2,0,-1,0,-3,-2,-1
1532319193834,3,0,-1,-3,-3,0,-3,2
1532319193839,-1,0,0,1,-1,-1,0,-1
1532319193844,2,-1,-1,-2,0,0,1,-1
1532319193849,-2,-2,-3,-1,-2,-3,-3,-1
1532319193854,-3,-3,-1,0,0,2,1,-2
1532319193859,0,-1,-2,-1,-2,-3,-1,-1
1532319193864,1,1,-2,-1,-1,-4,-2,-2
1532319193869,0,1,-1,-2,-2,-2,-2,-1
1532319193874,-1,-1,0,0,0,-1,-6,-1
1532319193879,-2,-3,-2,0,-1,-9,2,0
1532319193884,-3,-2,-1,-1,-1,8,0,0
1532319193889,0,0,0,0,-1,3,2,-1
1532319193894,-1,-1,-1,-1,-2,1,0,-1
1532319193899,-1,0,-1,0,0,-3,-2,-2
1532319193904,-2,0,0,-1,-1,-4,-2,-1
1532319193909,-1,-3,0,0,2,2,0,-1
1532319193914,-2,0,-1,-1,-1,-5,-1,-2
1532319193919,0,-1,1,0,-1,2,-2,-2
1532319193924,0,0,0,0,-2,-1,0,-1
1532319193929,0,1,-1,-1,-1,2,-2,1
1532319193934,-2,0,0,0,0,-2,0,-1
1532319193939,0,-1,-1,-3,-1,0,-1,-2
1532319193944,-1,-3,0,0,1,2,0,-1
1532319193949,-2,-1,0,0,-1,-4,-1,-1
1532319193954,-1,0,-1,-1,-1,0,2,-1
1532319193959,-1,0,0,1,-1,2,-2,0
1532319193964,0,-1,0,0,-2,-4,-2,-1
1532319193969,0,0,-2,-3,0,0,0,-2
1532319193974,-1,-1,0,-1,-1,0,-1,-1
1532319193979,-2,0,-1,-1,-1,1,0,0
1532319193984,-2,0,0,-2,1,-1,-1,1
1532319193989,3,-2,0,-3,-1,-3,-1,-1
1532319193994,-1,0,-1,-1,1,0,0,-2
1532319193999,0,-2,-2,0,-2,-1,-2,-1
1532319194004,-3,-1,0,-1,-1,-1,-1,-1
1532319194009,-1,-1,-2,-1,-2,0,-1,1
1532319194014,0,-2,0,-2,-1,-1,-1,-1
1532319194019,0,-1,-2,-2,-1,0,-1,-1
1532319194024,0,1,0,-1,-2,-1,1,-1
1532319194029,-1,0,-1,0,0,0,0,-1
1532319194034,-1,-1,-1,-1,0,-1,0,-2
1532319194039,-1,-1,0,-2,-1,0,0,0
1532319194044,0,-1,-2,-2,-4,-3,0,0
1532319194049,-2,0,-1,0,-1,-1,-1,-1
1532319194054,0,-2,0,-1,-1,-1,-1,-1
1532319194059,-1,-1,0,-2,2,0,-1,0
1532319194064,1,0,-1,-1,1,-1,-2,-2
1532319194069,-1,-1,-1,-1,-1,0,-2,-1
1532319194074,0,-1,-2,0,0,-1,0,0
1532319194079,-2,-1,0,-2,-1,0,0,-1
1532319194084,0,-1,0,1,-1,0,0,0
1532319194089,-1,-1,-1,-1,0,-1,-1,-4
1532319194094,-1,-1,0,-1,0,0,0,0
1532319194099,1,0,-1,-1,0,-1,-1,-1
1532319194104,-1,-1,-1,-1,0,1,-1,-1
1532319194109,0,-1,-1,-2,-2,-1,0,-2
1532319194114,-1,1,-2,0,-2,-1,0,-1
1532319194119,-1,-2,-1,0,-2,0,0,-1
1532319194124,-1,0,-2,0,-1,-1,-2,0
1532319194129,0,-1,-1,-1,-2,-1,-1,1
1532319194134,0,-1,1,-2,1,-2,-1,0
1532319194139,-1,0,0,0,-2,-2,-1,-1
1532319194144,0,-1,0,0,0,0,-1,-1
1532319194149,-1,0,-2,1,-3,-1,0,0
1532319194154,-3,0,0,-1,-1,0,-2,0
1532319194159,-1,-1,0,-2,-2,0,-1,0
1532319194164,-1,-2,-1,-1,-1,-2,0,-1
1532319194169,-1,-1,-1,0,1,0,-1,-2
1532319194174,-2,-2,-2,-1,-1,0,-1,-1
1532319194179,0,-1,-1,-1,-2,1,0,-1
1532319194184,1,1,-1,-1,-1,0,-1,-2
1532319194189,-2,-1,-2,0,0,-2,-1,-1
1532319194194,-1,-1,0,-2,-1,-2,-1,0
1532319194199,-2,-1,-2,-1,0,-2,-1,0
1532319194204,0,-1,0,-3,-1,-1,-2,1
1532319194209,0,0,0,-1,-1,-1,-1,-2
1532319194214,0,-1,-1,-1,-1,-1,-1,-3
1532319194219,0,0,1,-1,-2,-1,-1,-1
1532319194224,-3,-1,0,1,0,0,0,-2
1532319194229,0,-1,0,0,0,1,0,1
1532319194234,1,-2,-2,0,0,-1,-2,-2
1532319194239,-3,-1,-1,-1,-1,-1,0,-1
1532319194244,0,-1,-1,-1,-3,-2,-1,0
1532319194249,0,-1,-2,-3,0,1,0,0
1532319194254,0,-1,-2,-1,-1,-1,-1,0
1532319194259,0,-1,0,-3,-1,-1,0,-1
1532319194264,-2,0,0,-1,-1,-2,-2,-1
1532319194269,-1,-1,-1,0,-2,1,-1,-2
1532319194274,1,0,-1,-1,-3,-2,-1,1
1532319194279,1,-2,0,0,0,-1,-2,-1
1532319194284,-1,-2,-1,0,0,0,-2,0
1532319194289,0,-1,1,0,0,-3,0,-1
1532319194294,-1,0,-2,1,0,-1,0,-2
1532319194299,-2,1,0,-1,-3,-1,-1,0
1532319194304,-1,0,1,-1,0,0,-1,-2
1532319194309,-2,-1,0,-1,0,1,-1,-2
1532319194314,-2,-2,-1,-1,1,0,0,-2
1532319194319,-1,-2,-1,0,0,-1,-1,-1
1532319194324,-1,-1,-2,-1,0,-1,1,0
1532319194329,-3,-1,-3,-1,-1,-1,-1,1
1532319194334,-2,0,0,1,-1,0,-1,1
1532319194339,1,-1,-1,-1,-2,-1,-1,-2
1532319194344,-2,-2,-2,0,0,-1,-1,-1
1532319194349,0,-1,0,0,-1,-2,0,0
1532319194354,0,-1,-1,-3,1,0,-1,-2
1532319194359,0,0,-1,0,-1,0,-1,0
1532319194364,0,-1,-1,-1,-2,0,-1,-1
1532319194369,-1,-1,-1,-1,0,-1,-2,-1
1532319194374,0,-2,-1,-1,-2,-2,0,1
1532319194379,1,0,-2,-1,-1,0,0,0
1532319194384,-2,0,1,0,-1,0,0,0
1532319194389,-2,-1,0,-1,1,-1,0,-2
1532319194394,-2,-1,-1,-2,0,-2,-2,-1
1532319194399,-1,-1,0,0,-1,-2,-3,-1
1532319194404,0,-1,-1,0,-1,-2,-1,-1
1532319194409,0,-1,-1,1,-2,0,1,0
1532319194414,0,-1,0,-1,0,0,-1,0
1532319194419,0,0,-1,1,-2,-1,-2,0
1532319194424,-1,-1,0,-1,1,-2,-1,0
1532319194429,-1,0,-1,-1,-1,-1,-2,-2
1532319194434,-1,-2,1,-2,-3,-1,0,-3
1532319194439,-2,0,-2,-1,2,-1,1,1
1532319194444,0,0,-2,0,-2,-2,-2,-1
1532319194449,0,-2,-1,-2,0,0,-1,0
1532319194454,0,-1,0,-1,0,0,-1,-1
1532319194459,-2,-1,0,0,0,-2,0,-1
1532319194464,0,-1,-1,0,-1,-1,0,1
1532319194469,0,-1,0,-1,-1,0,-1,-1
1532319194474,1,-1,-3,-1,-1,0,-2,0
1532319194479,0,-2,-2,0,0,0,-2,0
1532319194484,0,-2,-2,0,-1,1,1,-3
1532319194489,-1,-1,0,0,0,-1,0,0
1532319194494,0,0,-1,0,0,-1,0,-3
1532319194499,1,-1,1,-2,-2,-2,-1,-1
1532319194504,-1,-1,1,-1,-1,-1,-1,-1
1532319194509,0,-1,-3,-2,0,-1,-1,-2
1532319194514,-1,-1,0,-2,0,-1,0,-2
1532319194519,-1,-2,-2,-1,-1,0,-1,-2
1532319194524,0,1,-1,-2,-2,0,0,-1
1532319194529,0,0,-1,-1,-2,0,1,1
1532319194534,-2,-1,-3,-1,1,0,0,0
1532319194539,-1,-2,-1,-1,-1,-1,-1,0
1532319194544,-1,0,-1,-2,1,-2,-1,1
1532319194549,-1,-1,0,-2,0,-1,-1,-2
1532319194554,0,1,0,-1,0,-2,0,0
1532319194559,0,-1,-1,0,0,-2,-1,-4
1532319194564,-1,-2,-1,-1,-1,-1,-2,-2
1532319194569,0,-1,-2,1,-1,-2,-2,1
1532319194574,-1,-1,0,-2,-1,1,-2,1
1532319194579,-2,0,-2,-1,-1,0,-1,0
1532319194584,0,0,-1,-1,-2,-1,-3,0
1532319194589,0,0,-2,1,-2,-1,1,-1
1532319194594,0,0,-1,-1,-1,0,-1,-1
1532319194599,-1,-2,0,-1,-3,-2,-1,1
1532319194604,2,1,1,-2,0,-1,-1,0
1532319194609,-2,-1,-1,-2,-2,-2,0,2
1532319194614,-1,-1,-2,1,-1,-1,-1,0
1532319194619,-1,0,0,0,1,0,0,-1
1532319194624,-1,-1,-1,0,-1,1,-1,-3
1532319194629,0,0,-1,-2,-1,-1,-1,0
1532319194634,-2,-1,-2,-3,0,0,0,0
1532319194639,0,0,-2,-1,-1,0,-3,0
1532319194644,-1,-1,0,0,0,-1,0,-1
1532319194649,-1,0,-1,-1,-1,0,-1,-3
1532319194654,0,-2,0,1,1,-2,-2,-1
1532319194659,0,0,-1,-2,-1,-2,1,-2
1532319194664,-1,-1,-1,-1,0,-1,0,-1
1532319194669,-2,-1,0,1,1,0,-1,0
1532319194674,-1,-2,1,0,0,1,0,-1
1532319194679,-1,-1,0,-2,-1,-1,0,-1
1532319194684,-1,-1,-1,-1,0,0,-1,0
1532319194689,0,-2,-1,-2,-2,-2,-1,-1
1532319194694,0,-1,1,-1,-1,1,0,-2
1532319194699,-3,0,1,1,0,0,-1,-1
1532319194704,0,-1,-2,-1,0,-1,0,1
1532319194709,-1,-1,0,-1,-2,0,-1,-1
1532319194714,-2,-1,0,-1,0,-1,-1,-1
1532319194719,0,-1,-1,-1,-3,0,-1,0
1532319194724,-1,0,-1,-1,0,0,-2,-1
1532319194729,-1,-1,-1,0,0,-1,-1,-1
1532319194734,-3,-2,0,-1,-2,-1,0,-3
1532319194739,0,0,-2,-1,0,-1,-2,-2
1532319194744,0,1,0,-1,-1,0,0,-1
1532319194749,0,-1,-1,-1,1,-1,-1,-1
1532319194754,1,0,-2,-1,-4,-1,-1,1
1532319194759,-1,-1,-1,-2,-2,-3,0,0
1532319194764,-1,-2,-2,-1,-1,-2,-2,-1
1532319194769,0,0,-1,0,0,0,0,-1
1532319194774,1,-2,-2,0,-1,-3,1,-2
1532319194779,0,-1,-1,-1,-1,0,-1,-1
1532319194784,-2,-1,-1,0,0,-1,1,0
1532319194789,-1,0,0,0,0,-1,-3,-1
1532319194794,0,-1,-3,0,-2,-1,-2,-1
1532319194799,-1,1,0,-2,1,1,0,-1
1532319194804,0,-2,-1,0,1,-1,1,-1
1532319194809,0,-1,-1,-2,0,1,-1,-2
1532319194814,-1,0,-1,0,-1,0,-2,1
1532319194819,0,0,-1,1,-1,0,0,-1
1532319194824,0,-1,-1,-1,-2,0,-1,0
1532319194829,-1,-2,1,0,0,0,1,-1
1532319194834,0,1,-3,0,-2,-1,-1,0
1532319194839,1,-1,-1,-2,-1,-1,-2,0
1532319194844,-2,-2,-1,0,0,0,-1,-1
1532319194849,-1,-3,-1,-1,-1,0,-1,-2
1532319194854,-1,0,1,-1,-1,-3,-1,-1
1532319194859,0,-1,0,-2,-2,0,-1,-2
1532319194864,-1,0,-1,-2,0,0,-1,-2
1532319194869,-1,0,-1,-2,-3,0,-3,1
1532319194874,-2,-1,0,2,-1,1,-1,-2
1532319194879,0,-2,0,2,1,0,0,-1
1532319194884,0,0,-1,0,-2,-1,-1,-3
1532319194889,0,-1,0,-1,1,-1,-1,-1
1532319194894,0,1,0,0,-2,-3,0,1
1532319194899,-1,-2,-2,1,-1,-2,-1,1
1532319194904,-2,-2,-2,0,-1,-1,-1,0
1532319194909,-1,1,-2,0,-1,-2,-1,1
1532319194914,0,-3,-2,-2,0,1,-2,-2
1532319194919,-1,0,-1,-3,1,-1,1,0
1532319194924,-1,0,-2,-1,-3,0,0,-1
1532319194929,-1,-1,-2,-2,0,0,-1,-2
1532319194934,-2,0,0,0,0,1,-2,-1
1532319194939,1,1,-2,-2,-2,-2,0,0
1532319194944,-1,-1,0,-1,0,1,0,1
1532319194949,0,-1,0,-1,-1,-1,1,0
1532319194954,-2,-1,-1,-1,-1,2,0,-2
1532319194959,1,-2,-1,-1,0,-2,0,1
1532319194964,-2,0,0,0,-1,-1,-2,0
1532319194969,0,0,-1,-1,-3,-2,-1,0
1532319194974,0,-1,-1,0,0,-1,0,0
1532319194979,-2,-1,-1,-2,-1,0,0,-2
1532319194984,0,-1,1,-1,-1,-2,-2,-2
1532319194989,1,0,0,1,0,1,-2,-1
1532319194994,0,1,-1,-4,-1,-2,-1,-1
1532319194999,-2,-1,-1,0,0,-1,-1,-1
1532319195004,0,-1,-2,1,0,-1,1,0
1532319195009,-1,-2,0,0,1,-1,1,0
1532319195014,-1,0,-1,-1,-1,-1,-1,-1
1532319195019,-1,-1,-2,1,0,1,0,-1
1532319195024,-1,0,-1,-2,-2,-1,-1,-2
1532319195029,-3,-2,-1,-2,0,-2,-2,-2
1532319195034,0,-1,-1,0,0,-1,-2,0
1532319195039,0,0,-1,0,-2,0,-2,-1
1532319195044,0,0,-2,-1,-1,0,0,0
1532319195049,0,-1,0,-1,0,-1,-2,-1
1532319195054,0,-1,-2,-1,1,-1,-1,0
1532319195059,0,1,1,0,0,-2,0,-1
1532319195064,-2,-3,-1,-1,0,-1,-2,-2
1532319195069,0,0,-1,-1,-2,0,0,-1
1532319195074,0,-1,0,-1,-1,0,2,-1
1532319195079,2,0,-1,-2,-2,-2,-4,1
1532319195084,-1,-3,1,-1,1,0,1,-1
1532319195089,0,-1,-2,1,0,-1,-4,-1
1532319195094,-1,-2,-1,1,0,-1,-1,-1
1532319195099,0,-1,-2,-2,-2,-2,0,-1
1532319195104,-1,0,-2,-1,0,0,-1,-1
1532319195109,-2,-2,-2,-3,-3,-1,0,-2
1532319195114,-1,-1,0,0,-1,0,1,-1
1532319195119,-2,-2,-1,-1,1,0,-1,-2
1532319195124,0,-2,0,0,-1,-2,-3,1
1532319195129,-2,-1,-1,0,0,-1,1,-1
1532319195134,-1,-1,-2,-2,-1,-2,-2,-1
1532319195139,-2,-2,-2,1,1,-1,0,-1
1532319195144,1,-1,-1,-3,-3,0,-1,-1
1532319195149,1,-1,-1,-1,-2,0,-3,-1
1532319195154,0,-1,-1,-2,-2,-1,1,-1
1532319195159,-4,0,1,-1,-1,0,0,0
1532319195164,-2,-2,-2,-3,0,-3,1,-1
1532319195169,0,-2,1,1,2,0,-1,0
1532319195174,-1,0,-1,-1,-2,1,-1,0
1532319195179,1,-1,-1,-2,-1,0,-2,-2
1532319195184,-1,0,-1,1,-1,-1,0,-2
1532319195189,-1,0,-1,-1,-2,-3,1,-1
1532319195194,0,-1,0,0,-1,-2,-1,0
1532319195199,1,0,0,0,0,-1,-1,-1
1532319195204,0,-1,0,0,-2,-3,-2,-2
1532319195209,-1,-1,-2,1,0,0,1,-1
1532319195214,-2,-2,1,-1,-3,-1,-1,-2
1532319195219,0,-1,0,-1,-2,0,0,0
1532319195224,1,1,1,-1,0,-2,-2,-1
1532319195229,-2,-1,-2,-2,-1,-1,1,0
1532319195234,1,1,-2,0,-1,-1,0,-1
1532319195239,-1,-2,-2,0,-2,0,-1,-1
1532319195244,-1,-2,-2,0,0,-1,0,0
1532319195249,2,-1,-1,-1,-2,-1,-1,1
1532319195254,-2,-1,0,0,0,-2,-2,-2
1532319195259,-1,-1,-2,-1,-3,-1,1,0
1532319195264,-1,0,0,-1,0,1,1,0
1532319195269,0,-1,0,-1,0,-1,-2,-1
1532319195274,0,0,-1,0,0,0,0,-2
1532319195279,0,-2,0,0,0,-2,-2,-1
1532319195284,-1,0,-2,0,-1,0,-3,-1
1532319195289,-3,-3,1,-1,0,0,0,-3
1532319195294,-2,-1,-2,0,0,-1,-2,0
1532319195299,-1,-1,0,-1,0,0,-1,-1
1532319195304,-1,-1,-2,-1,-1,-1,0,-1
1532319195309,0,0,-1,0,0,-2,0,-3
1532319195314,-2,-2,0,0,0,0,0,-1
1532319195319,-2,-1,-1,0,-1,-1,0,0
1532319195324,0,-1,0,0,-1,0,-1,0
1532319195329,-1,-1,0,1,0,-2,-1,0
1532319195334,0,-2,0,-1,-1,-1,-1,-1
1532319195339,-1,0,0,-2,0,-1,0,-2
1532319195344,0,-1,0,-1,1,-1,0,-1
1532319195349,-2,-1,0,-1,-2,-1,-2,0
1532319195354,1,1,-1,-1,0,0,0,-1
1532319195359,-2,0,0,-1,-1,-1,-2,0
1532319195364,0,-3,0,0,0,-1,-1,-1
1532319195369,-1,0,-2,-2,-1,-1,0,-1
1532319195374,0,-1,-2,-1,0,-1,0,1
1532319195379,-2,-2,-1,0,1,2,0,0
1532319195384,-1,-1,-2,1,-2,0,-1,-1
1532319195389,-2,-2,-1,1,-1,-1,-3,0
1532319195394,0,-1,-1,-1,-2,-1,-2,-1
1532319195399,-3,0,-1,0,-1,0,1,-3
1532319195404,0,0,-2,-2,-2,0,-1,0
1532319195409,-1,0,0,-1,-3,-2,0,0
1532319195414,-1,0,-1,-1,-1,-1,-1,0
1532319195419,-2,-1,-1,-2,-1,0,-3,0
1532319195424,-1,-1,0,-1,0,0,-1,0
1532319195429,0,0,-2,-1,-1,-1,0,0
1532319195434,-2,0,-1,1,0,-1,-2,0
1532319195439,1,-1,0,-1,0,0,-2,1
1532319195444,-2,-1,-1,-1,-2,0,-1,1
1532319195449,1,-1,-1,0,0,-1,-2,-1
1532319195454,-1,-1,-2,1,0,-2,0,-1
1532319195459,1,-1,-3,0,-1,-1,0,0
1532319195464,-2,0,-1,-1,-1,0,0,-1
1532319195469,-1,-1,0,0,0,-3,0,-2
1532319195474,-1,0,0,-4,-1,-1,0,0
1532319195479,0,-2,0,-1,-3,-3,-1,-2
1532319195484,-2,-1,-1,-1,-1,-1,-2,-1
1532319195489,-1,-1,-1,0,0,2,-1,-1
1532319195494,0,-2,-1,-1,-1,0,-1,-1
1532319195499,0,-2,-1,0,0,-2,-1,0
1532319195504,0,-1,-1,-1,-2,-2,-2,0
1532319195509,-1,-1,-2,-1,-2,0,0,-1
1532319195514,-1,-1,0,-2,0,-1,-1,-1
1532319195519,-1,-1,-2,1,-2,-1,-1,0
1532319195524,2,0,1,-2,-2,-1,0,-2
1532319195529,-1,-2,-1,-2,2,0,0,-2
1532319195534,-2,0,0,-1,-3,-3,0,-1
1532319195539,0,-1,-1,0,-1,-1,-1,-2
1532319195544,0,-1,-1,0,-1,-1,-2,-1
1532319195549,0,-1,-1,0,-1,0,-2,0
1532319195554,0,-1,0,1,0,-1,1,0
1532319195559,0,1,-2,0,-1,0,-2,0
1532319195564,-1,1,1,-1,0,0,-1,0
1532319195569,-2,-1,-3,-1,-1,-1,0,0
1532319195574,-2,0,-1,1,-1,-1,0,-1
1532319195579,0,2,0,-2,-3,0,-1,0
1532319195584,0,-1,-2,-1,0,-2,1,0
1532319195589,-1,0,0,-2,-1,0,-1,0
1532319195594,0,0,-1,-3,-1,-3,-1,-1
1532319195599,-2,-1,-1,1,0,-1,0,-1
1532319195604,-4,0,0,-2,0,0,-1,-1
1532319195609,1,0,0,0,-2,-1,0,-1
1532319195614,-1,0,-1,-1,-1,0,-1,0
1532319195619,0,-2,-1,-1,-1,-1,-1,-2
1532319195624,1,0,-3,-1,-1,-1,-1,-1
1532319195629,-2,-2,-1,-1,-1,0,-1,-1
1532319195634,-1,-2,-1,0,0,2,-1,0
1532319195639,-1,0,-1,-1,0,-1,0,1
1532319195644,-2,-1,-1,-1,-1,-1,-1,0
1532319195649,0,1,0,-2,-1,-1,-1,1
1532319195654,-1,0,0,-3,-2,-1,0,-1
1532319195659,-1,-1,-1,-2,0,-1,-1,-2
1532319195664,-1,-1,-1,1,-1,2,0,-1
1532319195669,0,-1,-1,-1,0,-2,-2,0
1532319195674,-2,-1,-1,1,-1,-1,-2,-1
1532319195679,-2,-1,0,-2,-1,-1,-2,-2
1532319195684,1,0,-2,-2,-1,-2,-1,1
1532319195689,1,0,-1,-1,0,-2,0,0
1532319195694,-1,-1,0,0,-1,-2,0,-1
1532319195699,-1,-2,-2,-1,-1,0,2,-1
1532319195704,-1,0,0,1,-1,-2,-1,-3
1532319195709,-2,0,-1,1,-3,-1,-1,-2
1532319195714,2,0,-2,-2,-1,-1,-1,0
1532319195719,-1,-2,0,0,1,-1,-2,-2
1532319195724,-2,-1,-1,-2,0,0,1,-1
1532319195729,-2,0,-1,0,2,-1,-2,0
1532319195734,-1,-2,-1,-1,0,-1,-1,0
1532319195739,-1,-1,-2,-1,-1,0,0,-2
1532319195744,-1,-1,-1,1,0,-1,-2,-1
1532319195749,-1,0,0,-1,-1,-1,0,-2
1532319195754,-1,-1,-1,-1,0,0,0,-1
1532319195759,0,-2,-1,-1,0,0,-1,0
1532319195764,-1,-3,0,-2,-1,-2,-1,-1
1532319195769,-1,-1,-1,-1,0,0,-3,-1
1532319195774,-1,0,0,-2,-2,0,-1,0
1532319195779,0,0,-2,-2,-1,0,0,-2
1532319195784,0,0,-1,-3,-3,-2,-2,0
1532319195789,0,-1,-1,-1,-1,-1,1,-2
1532319195794,-2,-2,-2,-2,-1,-1,0,-1
1532319195799,-1,0,0,1,-1,-1,-1,0
1532319195804,-2,0,-3,0,1,-1,-2,-1
1532319195809,-1,-2,0,-1,-1,0,-1,-1
1532319195814,0,-1,-2,-2,1,-1,-2,-1
1532319195819,0,0,-1,-1,-2,-1,-2,0
1532319195824,-2,-2,-1,0,0,0,-1,-1
1532319195829,0,-1,-2,-1,-1,-1,0,-2
1532319195834,0,0,0,-1,0,-1,0,0
1532319195839,0,-1,-2,-2,-3,-2,-1,-1
1532319195844,-1,-2,0,0,0,-1,0,0
1532319195849,-1,0,-1,-2,-2,-1,1,0
1532319195854,-1,0,-3,0,0,0,0,-2
1532319195859,-1,-1,-2,1,0,-1,-2,-1
1532319195864,1,-1,-2,-1,0,-2,-1,0
1532319195869,0,-1,-1,-1,0,0,1,-1
1532319195874,0,0,-2,0,-1,-2,-2,-1
1532319195879,-2,-1,0,-1,0,1,1,-1
1532319195884,0,0,0,-1,-1,-1,-1,0
1532319195889,-1,-1,-2,0,-2,0,-4,0
1532319195894,-1,1,-2,0,-2,-2,0,0
1532319195899,-1,-1,-2,-2,0,-2,0,-2
1532319195904,-1,-1,-1,-2,0,0,-1,-1
1532319195909,-2,0,-1,0,-2,-3,-1,0
1532319195914,-1,-3,0,-1,0,0,-1,-1
1532319195919,0,-1,0,-1,-1,-2,-2,-1
1532319195924,0,-2,-2,1,-2,0,1,-1
1532319195929,0,-1,1,-1,0,-2,-1,0
1532319195934,-1,-1,-1,0,-1,0,-2,-1
1532319195939,-1,-1,-1,-1,-2,0,0,-2
1532319195944,0,0,-2,-1,-1,1,1,-1
1532319195949,0,0,-1,0,-1,-1,0,-1
1532319195954,0,-1,1,0,-2,-2,-1,0
1532319195959,-1,-1,-1,-2,1,-1,0,1
1532319195964,-1,0,0,0,-2,1,-2,-1
1532319195969,0,-1,-2,0,0,-1,-1,-2
1532319195974,0,0,1,0,1,-1,-2,-1
1532319195979,-1,-1,-1,1,0,0,-1,0
1532319195984,-1,-2,0,-1,0,-3,0,-1
1532319195989,-1,-1,-1,-3,-1,0,-1,0
1532319195994,0,-2,-1,-2,-2,1,-1,0
1532319195999,-1,-1,-2,-1,-1,-1,-2,1
1532319196004,0,-1,1,-2,-2,-1,-2,-1
1532319196009,1,-1,-1,-1,-1,0,-1,-1
1532319196014,-1,-1,-1,1,-2,-1,0,-1
1532319196019,-1,-1,0,-2,-2,0,0,0
1532319196024,-2,-1,0,-2,-1,-1,-2,-1
1532319196029,-1,0,-4,-1,-4,-1,-1,-1
1532319196034,-1,-2,-2,-1,-3,-1,-1,-2
1532319196039,-1,-1,0,-1,1,-1,1,1
1532319196044,0,-1,0,-2,0,-1,0,-1
1532319196049,0,-2,0,-2,-1,-2,-1,-1
1532319196054,-2,-1,0,0,-1,0,-2,1
1532319196059,-1,-1,0,0,1,-1,-1,-1
1532319196064,0,-1,-2,-1,0,-1,-2,0
1532319196069,-1,0,-1,-1,1,-2,-2,-1
1532319196074,0,1,-1,-3,1,0,-1,-2
1532319196079,0,0,-1,-1,-2,-1,0,0
1532319196084,-1,0,-1,-1,0,0,-1,0
1532319196089,-3,-2,-1,0,-2,-1,0,-1
1532319196094,-1,-1,-2,0,-2,-1,0,0
1532319196099,0,0,-2,0,-2,0,-1,-2
1532319196104,-2,-2,0,-2,-1,-1,0,1
1532319196109,0,1,0,0,0,-1,-1,0
1532319196114,-1,-1,0,-1,-1,1,0,-2
1532319196119,1,-2,-1,0,-2,-1,0,-3
1532319196124,1,-1,-1,0,-2,-2,-2,-2
1532319196129,-3,-4,-1,0,1,0,-1,-1
1532319196134,-1,0,-2,-1,1,1,-1,0
1532319196139,-1,0,-3,-2,0,-1,-2,1
1532319196144,-2,-4,0,0,0,0,-1,0
1532319196149,-2,-2,0,0,-1,0,1,0
1532319196154,-1,-1,-1,1,-1,-2,0,-1
1532319196159,-1,1,0,0,-2,-1,0,0
1532319196164,-1,-1,0,-3,0,-1,-2,-1
1532319196169,1,-1,-1,-3,-1,-1,0,-1
1532319196174,-1,-1,0,0,-1,-1,-1,-1
1532319196179,1,-2,-1,-2,1,0,-2,-1
1532319196184,0,-1,-2,-2,-2,-2,0,-1
1532319196189,-1,-2,-1,-1,-1,-2,-2,-1
1532319196194,0,-1,-2,0,0,1,0,-2
1532319196199,0,1,0,0,-2,0,-2,0
1532319196204,0,-3,-1,0,0,0,0,-2
1532319196209,0,0,-2,-1,-1,-1,-1,-1
1532319196214,-2,-1,-2,-1,-1,0,-2,0
1532319196219,-2,0,1,1,0,-2,0,-1
1532319196224,-3,0,-2,1,1,-1,0,0
1532319196229,1,1,-1,-1,-1,-2,-2,0
1532319196234,-1,-1,0,0,-1,-1,0,0
1532319196239,1,-2,-2,-2,0,-1,1,-1
1532319196244,-1,0,1,0,-1,-1,-4,0
1532319196249,-1,0,-1,-1,1,-2,1,-2
1532319196254,-1,0,0,-1,-3,-1,-1,-2
1532319196259,1,-1,-1,-1,-1,0,-1,0
1532319196264,-1,0,-1,-2,-3,-1,-1,-1
1532319196269,-3,0,-2,0,0,-1,-1,-1
1532319196274,-1,-1,-2,-1,0,-1,-2,-1
1532319196279,0,-1,-2,-2,-1,0,-1,-3
1532319196284,2,-1,0,-1,-1,0,2,0
1532319196289,-3,-2,-1,0,-2,-1,-2,-1
1532319196294,-1,0,-1,-1,0,-1,-1,-1
1532319196299,-1,-1,-2,0,-1,0,-1,-1
1532319196304,-2,-2,-1,-1,0,-1,-1,0
1532319196309,1,-1,-1,0,-1,0,-3,0
1532319196314,1,-1,0,0,0,-1,-1,0
1532319196319,0,0,-2,0,-1,-2,-2,-1
1532319196324,-1,-1,-2,-2,0,0,1,1
1532319196329,0,1,-1,-1,-3,-2,0,0
1532319196334,1,-1,-2,-2,0,0,-2,-2
1532319196339,0,-1,1,0,1,0,-1,0
1532319196344,-1,-1,-1,1,1,-1,-1,-2
1532319196349,-1,-1,0,-1,-1,-1,-1,-1
1532319196354,-1,-1,-2,-1,-1,0,-1,-1
1532319196359,-3,-1,-1,2,-2,0,1,-1
1532319196364,1,1,-1,0,-1,0,-2,1
1532319196369,2,-2,0,-1,-1,-1,-1,-2
1532319196374,-1,1,1,0,1,0,0,-2
1532319196379,-3,-1,-1,-1,-1,0,-2,-2
1532319196384,-1,0,0,0,0,-3,0,-3
1532319196389,-1,-2,-2,0,-1,-1,-2,0
1532319196394,0,-3,-1,-1,-1,1,1,-3
1532319196399,-1,0,-2,-2,-1,-1,0,-1
1532319196404,-2,-1,0,0,0,-2,0,-1
1532319196409,-2,-1,-1,-2,1,0,1,0
1532319196414,0,0,0,-1,-2,-2,-2,0
1532319196419,0,-2,-1,1,-1,0,0,-1
1532319196424,-1,-3,-1,0,-1,-1,0,-1
1532319196429,-1,0,-1,0,0,-1,-1,0
1532319196434,-1,-1,1,1,0,0,-1,-1
1532319196439,1,-1,0,-1,0,-2,-1,0
1532319196444,0,-1,-1,-3,-1,-2,0,-1
1532319196449,0,-2,0,-1,-1,1,-1,-2
1532319196454,-2,-1,0,0,1,-1,-1,1
1532319196459,-1,-1,-1,1,0,-2,-1,-1
1532319196464,-1,-1,1,-1,0,0,0,-1
1532319196469,-1,-1,-1,0,-1,1,-1,-2
1532319196474,-1,-1,-3,-1,-1,-2,-2,-2
1532319196479,-1,-1,0,-2,0,-1,-2,-1
1532319196484,-1,-1,-1,-1,-1,0,0,-1
1532319196489,-3,-1,0,1,-1,-2,1,-2
1532319196494,1,0,-1,-1,-1,-1,-1,0
1532319196499,1,0,-2,-2,-1,-2,-1,0
1532319196504,-1,-1,-1,0,-1,0,-2,-1
1532319196509,0,0,0,-1,0,-1,-1,-2
1532319196514,-1,-2,-1,0,-1,-1,0,-1
1532319196519,-2,-2,0,0,-1,-2,0,-1
1532319196524,1,0,-1,1,-1,-2,-2,0
1532319196529,1,-1,-2,0,-2,-2,1,0
1532319196534,0,-1,-2,-1,0,0,-1,-2
1532319196539,0,0,-1,-1,-3,-1,0,1
1532319196544,-1,-1,0,-1,0,-1,0,-1
1532319196549,0,-2,-1,0,0,-1,-1,0
1532319196554,1,-2,0,-1,-2,-1,1,-2
1532319196559,-1,-2,0,-2,0,1,-1,-2
1532319196564,-1,-1,-1,0,-2,-2,-1,-2
1532319196569,0,-1,0,-3,-1,-3,0,1
1532319196574,-1,0,0,-1,0,-3,-2,0
1532319196579,-1,-2,-1,0,0,-1,-2,0
1532319196584,-2,-2,-2,-1,-2,0,-1,-1
1532319196589,-2,0,-2,0,-1,-2,-1,-2
1532319196594,-1,-1,-1,-1,-4,0,0,0
1532319196599,0,-1,-1,0,-1,0,1,-1
1532319196604,0,0,0,-1,0,-1,0,0
1532319196609,-1,-2,-1,-1,-1,0,-1,-1
1532319196614,-1,1,0,0,-2,-1,-1,0
1532319196619,-1,-1,-2,-1,1,0,-2,-2
1532319196624,-1,0,-2,-2,0,-1,-1,0
1532319196629,-1,1,-1,-1,-2,0,-1,1
1532319196634,1,-2,-1,0,-1,-1,-1,-1
1532319196639,0,-1,0,0,0,0,1,-2
1532319196644,1,-1,-2,-1,-2,-1,-1,-1
1532319196649,-1,-1,-1,-2,0,-1,-3,-1
1532319196654,-2,-1,-2,-2,0,-1,0,0
1532319196659,-1,-1,-2,0,-2,0,0,-1
1532319196664,-2,0,1,-1,-2,-2,0,-1
1532319196669,-2,-1,0,-1,-2,0,0,0
1532319196674,-1,-2,-2,0,1,-2,0,-1
1532319196679,-1,-2,0,0,-1,0,-1,0
1532319196684,-1,-1,-1,0,-1,0,0,-1
1532319196689,-2,0,1,-2,0,-2,-2,-1
1532319196694,-2,1,0,-1,-2,-1,-1,-1
1532319196699,0,-1,0,-2,-1,-3,0,0
1532319196704,1,-1,-2,-1,0,-1,0,0
1532319196709,-2,0,-2,-2,-1,0,0,0
1532319196714,-1,0,-1,-1,-1,0,0,0
1532319196719,0,2,-1,-1,-1,-1,-2,0
1532319196724,0,-1,-1,0,-1,-1,-2,-1
1532319196729,1,0,-2,-1,-2,-2,-1,-1
1532319196734,-2,-2,-1,0,1,1,0,-3
1532319196739,-1,-2,0,0,0,-1,-1,-2
1532319196744,-1,-2,-1,-1,-1,-1,-1,-1
1532319196749,2,-1,-2,1,-1,-1,-1,1
1532319196754,0,-1,-1,-2,-3,1,-2,-2
1532319196759,0,1,-1,0,-3,0,0,-1
1532319196764,-3,-1,-1,-2,-1,-1,0,-2
1532319196769,-1,-2,0,-1,0,-1,-1,-2
1532319196774,0,0,-2,0,0,-1,0,0
1532319196779,-1,-1,-2,-2,0,-1,-1,-1
1532319196784,-1,-1,-2,-2,-3,0,0,0
1532319196789,-1,-2,-1,0,-1,-1,-1,0
1532319196794,-1,0,0,-1,-1,-1,0,0
1532319196799,-1,-2,0,-1,0,-1,-1,-2
1532319196804,-1,0,0,0,1,1,-1,-1
1532319196809,-1,-1,-1,-1,0,-1,0,-2
1532319196814,-1,-1,0,-1,1,-1,-2,0
1532319196819,0,-1,0,-2,0,0,-2,-1
1532319196824,-1,-1,0,0,-2,-1,0,-1
1532319196829,0,-1,-1,0,0,0,0,-2
1532319196834,0,-1,-1,0,-3,-3,-4,-3
1532319196839,-3,-3,-1,-2,-1,-1,0,0
1532319196844,1,-2,-2,-1,0,-2,0,0
1532319196849,1,0,-2,-2,-2,0,0,0
1532319196854,1,-2,-1,1,-1,-1,0,-1
1532319196859,-3,-2,-1,0,-1,0,-1,-2
1532319196864,1,0,-2,-3,-1,-1,-2,-1
1532319196869,0,0,-1,-1,-1,0,-1,0
1532319196874,0,-2,-1,-1,0,0,0,0
1532319196879,0,0,0,0,-2,-3,0,-1
1532319196884,-1,-2,-1,-1,-1,-1,-1,-2
1532319196889,0,0,0,-2,-1,-1,1,-2
1532319196894,0,-1,-2,0,0,0,0,0
1532319196899,-2,-1,0,1,0,0,-1,0
1532319196904,-2,-1,1,-1,1,0,0,-1
1532319196909,0,-1,-3,-2,-1,0,-2,2
1532319196914,-2,-1,0,-2,-2,-1,0,-2
1532319196919,1,-1,-1,-1,-1,-1,-2,0
1532319196924,-2,-1,-1,0,0,-1,-2,-2
1532319196929,-1,-2,-1,0,-1,0,-1,-1
1532319196934,1,-1,-2,-1,-3,-2,-1,0
1532319196939,-1,-1,-1,1,0,0,-2,-2
1532319196944,-2,0,0,0,0,0,0,-1
1532319196949,-1,-1,0,-3,0,-2,-1,-1
1532319196954,-1,-1,0,0,-1,-1,-2,1
1532319196959,0,-1,1,-1,-2,1,-1,-1
1532319196964,-1,-1,-2,-1,0,0,0,-2
1532319196969,-1,-2,-1,-2,-2,-1,-1,0
1532319196974,-2,-1,0,-1,1,0,-1,-1
1532319196979,1,0,-2,-2,-3,-3,-2,1
1532319196984,0,-1,1,-3,-2,0,-2,1
1532319196989,-1,0,0,-1,0,0,0,-1
1532319196994,0,-1,-3,0,-1,0,-1,-1
1532319196999,-2,-1,-1,1,-1,-1,0,-1
1532319197004,-2,-2,-2,-1,0,-1,-2,-1
1532319197009,-2,0,-2,0,-1,-1,0,-2
1532319197014,-1,1,0,-1,-2,-1,0,-1
1532319197019,-1,0,-1,0,0,0,-1,-1
1532319197024,1,0,0,0,-2,-1,0,1
1532319197029,-1,-1,-2,-1,0,0,-2,0
1532319197034,0,-1,0,-2,-2,-2,-1,0
1532319197039,-1,-1,-1,-1,0,-1,0,-1
1532319197044,-2,-1,-1,-2,-1,1,0,-1
1532319197049,-1,-2,-1,-1,-2,-1,-1,0
1532319197054,-1,-1,0,0,0,0,1,-2
1532319197059,0,-2,-1,-2,-3,-2,1,0
1532319197064,-1,-1,-2,-1,-1,-1,0,-2
1532319197069,0,0,-1,0,-2,-1,0,-1
1532319197074,0,-1,-1,-1,0,-1,-1,0
1532319197079,-2,-1,0,-1,1,1,-3,-2
1532319197084,1,-2,0,0,0,0,-1,-1
1532319197089,-1,0,-2,0,-2,-1,-1,-1
1532319197094,-1,0,1,0,-1,0,0,-1
1532319197099,0,-1,0,-2,-1,-2,0,-1
1532319197104,-2,-1,-1,-1,-1,-1,1,-2
1532319197109,-2,-1,0,1,1,-1,-2,-3
1532319197114,0,-2,-2,-1,-1,-1,0,-2
1532319197119,-2,1,-3,-1,0,0,-2,-1
1532319197124,0,0,-1,-1,-2,-1,-1,0
1532319197129,-1,-2,0,-1,-1,0,0,0
1532319197134,1,-1,-2,-2,-1,-2,-1,-1
1532319197139,-1,-2,1,0,-2,0,-1,0
1532319197144,-1,-2,-2,-1,0,0,0,-1
1532319197149,1,0,-1,-1,-1,0,-2,-1
1532319197154,-3,-2,-1,0,-2,1,-1,0
1532319197159,1,-2,-1,-2,1,-2,0,-2
1532319197164,1,-1,-2,0,-1,-2,-3,-1
1532319197169,0,-1,-3,-2,-2,-2,-1,-1
1532319197174,1,-1,0,0,0,-3,1,-1
1532319197179,-1,-2,-2,-1,2,-1,-1,-1
1532319197184,-2,0,-3,-2,0,0,1,0
1532319197189,0,0,0,-2,-1,-1,-2,0
1532319197194,0,0,-1,0,-1,0,-1,-1
1532319197199,-1,1,-3,1,-3,-1,-2,0
1532319197204,-1,-2,-2,0,0,0,-2,-2
1532319197209,-1,-1,-1,-1,-1,-2,-2,0
1532319197214,-1,0,0,-2,-1,-1,-2,1
1532319197219,1,-1,1,-1,-1,-1,-1,-3
1532319197224,-1,-2,0,0,-1,-1,-2,-3
1532319197229,0,-2,0,-2,-2,-1,0,-1
1532319197234,0,0,0,-1,0,-1,-1,0
1532319197239,0,0,0,0,1,-1,0,1
1532319197244,-2,0,-1,-1,-1,-2,-3,-1
1532319197249,-1,-1,-1,-3,-1,0,0,-2
1532319197254,0,-2,-2,-2,-1,0,-3,0
1532319197259,-2,-1,-1,-1,-2,-1,0,0
1532319197264,1,0,-1,-1,-2,-1,-1,1
1532319197269,-1,0,-1,0,0,0,-1,-1
1532319197274,-2,0,-1,-1,-2,0,0,-2
1532319197279,-1,-2,0,-1,0,-1,0,0
1532319197284,0,-1,-2,0,-2,-1,1,1
1532319197289,1,-1,-1,-1,-2,-1,0,-1
1532319197294,1,-1,-2,0,0,0,-2,-1
1532319197299,0,-2,0,0,-1,1,-2,-1
1532319197304,-1,-1,1,-1,-1,0,1,-1
1532319197309,2,0,-3,-2,-2,-2,-1,0
1532319197314,-1,-2,0,0,-1,1,-1,0
1532319197319,-1,1,-1,-1,-2,0,0,0
1532319197324,-1,-1,-2,-2,-1,-1,1,0
1532319197329,-1,-1,0,0,0,0,-2,-1
1532319197334,-1,-1,-2,-1,0,-3,-1,0
1532319197339,1,-1,-2,-2,-1,0,0,0
1532319197344,0,-1,1,1,0,-2,0,0
1532319197349,-1,-1,0,0,-1,0,0,-1
1532319197354,1,0,-2,-2,-3,1,-2,0
1532319197359,-2,-1,1,0,1,0,0,-1
1532319197364,0,-2,-1,-1,0,-2,-1,0
1532319197369,-2,0,-1,0,2,-2,0,-1
1532319197374,0,0,0,0,0,-1,0,-2
1532319197379,-1,0,-2,-1,-2,-1,-1,0
1532319197384,-2,-1,-2,-1,-1,1,0,-1
1532319197389,0,0,0,-2,-3,-1,0,0
1532319197394,-2,-1,0,-3,0,0,0,0
1532319197399,1,-1,-2,-1,-1,-1,-1,1
1532319197404,-1,-1,-1,-1,1,0,-1,-2
1532319197409,-1,0,-2,0,-1,-3,0,0
1532319197414,-1,1,-2,-1,0,-1,0,0
1532319197419,0,-1,1,0,-2,-2,-2,-2
1532319197424,0,0,-1,-2,0,-1,-2,0
1532319197429,0,-4,0,-1,0,-1,0,0
1532319197434,-1,-1,0,-1,-1,-2,-1,-1
1532319197439,-2,2,0,-1,0,-2,0,-2
1532319197444,-2,-5,-16,-2,-2,0,-1,-2
1532319197449,0,2,17,1,1,-1,0,0
1532319197454,0,4,6,-1,0,0,0,-1
1532319197459,1,-13,-5,-2,0,-1,0,0
1532319197464,-1,7,9,2,0,-1,-2,0
1532319197469,-1,-37,-23,-3,-1,1,-2,-1
1532319197474,4,58,19,2,0,-1,1,0
1532319197479,-1,15,0,-1,0,-1,-2,-1
1532319197484,1,-3,-1,-2,-1,0,-2,-1
1532319197489,-1,11,1,-1,0,1,-2,0
1532319197494,-1,-16,-19,-1,0,-1,1,0
1532319197499,-1,-22,10,-1,-1,-1,-1,-2
1532319197504,0,7,3,0,-2,-2,-2,0
1532319197509,-3,-4,2,-1,0,0,-2,-2
1532319197514,-2,-9,-3,-2,-2,-1,-2,-1
1532319197519,-1,5,-3,-1,-1,0,0,1
