1532146345075,-10,-10,6,6,3,2,-8,-6
1532146345080,27,-13,8,2,-2,2,8,9
1532146345085,-16,19,-5,0,4,0,-3,-3
1532146345090,-20,-32,9,5,2,-2,4,1
1532146345095,-12,53,-15,-11,1,-5,-9,-5
1532146345100,9,26,-4,-3,-5,3,4,-1
1532146345105,5,-48,-6,-5,6,1,2,0
1532146345110,-19,21,10,11,0,-4,0,-1
1532146345115,17,-82,-11,-3,-5,4,2,2
1532146345120,-20,22,5,6,0,-10,-11,-6
1532146345125,-7,10,2,0,-2,-2,-6,-7
1532146345130,-9,23,7,-3,-4,-2,-3,-5
1532146345135,6,-16,5,4,0,-1,-7,-4
1532146345140,11,10,-8,-5,0,-4,1,1
1532146345145,32,26,6,3,3,3,-7,12
1532146345150,-9,-4,1,1,-4,-3,3,-16
1532146345155,8,16,-6,-3,-3,0,1,-5
1532146345160,1,-13,-7,-4,7,0,-9,16
1532146345165,16,21,7,2,7,-1,-4,-31
1532146345170,-18,3,1,-2,0,2,3,8
1532146345175,2,5,3,-1,-1,-2,2,8
1532146345180,-25,-14,-4,-7,-4,6,2,9
1532146345185,-14,2,-1,1,-5,0,3,8
1532146345190,5,46,13,7,4,1,-4,-21
1532146345195,5,-27,-5,-7,-3,-1,-2,-6
1532146345200,15,30,8,4,1,0,2,6
1532146345205,72,15,2,-1,-3,1,6,18
1532146345210,-97,-34,-11,-5,-4,-2,-7,1
1532146345215,-8,-24,-11,-2,-5,1,3,-1
1532146345220,-10,5,-3,-3,0,-1,7,14
1532146345225,10,7,1,2,0,-1,-12,-7
1532146345230,30,-21,-8,-3,2,-3,-1,-47
1532146345235,-24,22,7,0,1,1,3,18
1532146345240,27,11,9,5,8,1,-1,5
1532146345245,-67,-53,-4,-2,-5,-2,-9,-11
1532146345250,41,12,-1,-3,-1,-1,3,35
1532146345255,7,3,5,-1,0,-1,-3,-14
1532146345260,2,0,-16,-4,-6,-6,-6,-24
1532146345265,39,52,4,-6,-6,0,7,19
1532146345270,42,-43,-12,-2,-2,-1,-6,10
1532146345275,13,-2,0,4,4,-3,6,11
1532146345280,7,-14,5,5,-2,8,5,-9
1532146345285,-35,-38,-12,-7,-3,-15,-21,-16
1532146345290,54,2,1,-3,-5,4,2,-13
1532146345295,-34,9,6,3,3,-1,-10,-8
1532146345300,24,47,4,1,10,-8,-9,3
1532146345305,10,-9,-8,-3,5,7,24,-7
1532146345310,-70,-9,6,1,1,-1,10,14
1532146345315,72,-26,-22,-13,-7,-10,-24,-33
1532146345320,-53,11,4,6,0,6,57,1
1532146345325,56,-17,-3,1,-3,-5,-45,-12
1532146345330,-68,18,2,0,-4,0,-2,-3
1532146345335,-10,6,5,1,-3,-4,9,36
1532146345340,42,1,4,-2,-5,-8,-1,27
1532146345345,13,30,-1,0,4,4,-9,0
1532146345350,-48,-26,-11,-8,-13,-1,-3,-42
1532146345355,-32,10,-5,-4,-8,0,0,-12
1532146345360,59,-13,-6,-3,-15,-8,-12,2
1532146345365,-28,-18,7,10,28,15,30,28
1532146345370,-14,16,11,5,6,5,-7,8
1532146345375,-11,-6,-3,-4,2,-1,8,14
1532146345380,-69,8,3,-3,-8,4,-20,-28
1532146345385,3,13,1,-1,-8,-2,8,-1
1532146345390,58,-21,-10,0,3,0,14,11
1532146345395,85,-4,11,6,7,13,16,13
1532146345400,-75,-15,-1,6,4,-3,14,2
1532146345405,-100,12,1,-1,-6,-11,-8,-3
1532146345410,-75,-38,2,2,2,0,6,1
1532146345415,27,38,5,2,-1,0,1,-9
1532146345420,12,-16,0,-4,-3,8,5,2
1532146345425,10,35,3,1,8,2,4,-14
1532146345430,20,-7,-6,2,0,-7,-8,23
1532146345435,-63,-28,-4,-1,0,2,1,-5
1532146345440,93,11,2,-2,1,-2,-12,-20
1532146345445,1,-27,-1,2,-2,-1,4,-1
1532146345450,-16,49,7,-2,1,-2,-4,5
1532146345455,42,-71,-2,1,3,0,-3,4
1532146345460,-53,-37,-8,-4,-2,0,-10,-6
1532146345465,8,4,-3,-4,-7,-3,1,5
1532146345470,60,16,1,-2,0,-2,-3,-2
1532146345475,5,32,2,1,-2,-3,-2,1
1532146345480,13,-23,-2,-1,0,0,-7,7
1532146345485,43,-8,-1,-4,-7,-1,7,-6
1532146345490,54,36,4,1,-1,-4,-4,-1
1532146345495,-2,-35,-8,-1,5,-2,-9,-7
1532146345500,35,11,-1,0,15,0,-4,-2
1532146345505,-14,33,0,-3,-9,0,-2,-10
1532146345510,-9,-7,-5,-7,-6,-2,-4,-2
1532146345515,15,28,4,2,2,1,-4,-6
1532146345520,-59,-8,-7,-5,1,-5,-7,-7
1532146345525,4,-49,-3,-2,-3,0,3,-6
1532146345530,-6,8,-1,0,2,-2,-6,-3
1532146345535,-62,6,1,0,-4,-6,-8,-20
1532146345540,2,2,0,-2,-5,-3,-8,-4
1532146345545,-15,5,-4,-3,-2,1,11,13
1532146345550,44,-6,-2,2,-1,2,-6,-27
1532146345555,78,44,4,1,-4,-3,6,31
1532146345560,-15,-23,-6,0,-3,-3,-7,-4
1532146345565,-9,15,1,-4,1,-1,-4,-1
1532146345570,0,-7,-3,-2,-2,4,9,13
1532146345575,2,-15,7,9,21,1,-2,0
1532146345580,7,18,0,-2,-6,1,1,1
1532146345585,-9,0,7,3,2,-2,0,7
1532146345590,50,2,-4,-3,-1,1,2,6
1532146345595,-81,-7,2,-5,-5,1,-4,-9
1532146345600,64,-15,-2,2,6,-1,1,2
1532146345605,2,-10,-10,0,1,-4,-5,-6
1532146345610,-19,18,6,-4,2,-1,-1,2
1532146345615,-3,25,6,-7,-11,4,3,9
1532146345620,-1,-15,17,-4,-4,0,7,3
1532146345625,45,15,3,3,3,2,-2,-1
1532146345630,-68,-10,-25,-4,2,-3,-7,-9
1532146345635,-31,-14,0,-3,1,-1,-2,-21
1532146345640,10,-1,1,4,-1,-1,-1,-4
1532146345645,17,-16,11,-2,-3,-2,3,6
1532146345650,3,10,-11,-4,-5,4,5,13
1532146345655,60,2,0,3,-2,-4,-7,-1
1532146345660,-78,-2,-13,-3,-2,-2,-3,-5
1532146345665,36,-43,-15,-3,3,-4,-1,0
1532146345670,30,33,15,6,1,-1,-1,3
1532146345675,-39,-4,-21,-5,-4,-1,1,0
1532146345680,28,-14,-19,-6,-2,2,-1,0
1532146345685,-14,34,9,0,-14,-4,-6,0
1532146345690,15,-41,-3,-3,5,2,-2,-5
1532146345695,-42,17,11,-2,-1,-3,2,5
1532146345700,67,21,26,3,2,0,1,2
1532146345705,-37,22,26,5,0,-1,6,26
1532146345710,65,-27,14,4,0,-2,0,-4
1532146345715,7,-10,21,-8,-7,-1,-5,-21
1532146345720,-7,-11,-33,7,-3,3,2,7
1532146345725,-1,27,-33,-5,8,-1,-9,-4
1532146345730,-12,-5,-1,4,-8,-4,1,4
1532146345735,6,-7,13,-1,4,3,3,13
1532146345740,17,-6,8,-6,-6,-1,1,-4
1532146345745,108,-4,11,-1,6,-1,4,8
1532146345750,-66,26,5,-1,3,-4,2,-11
1532146345755,103,-49,-26,4,-1,-3,-6,-2
1532146345760,3,98,30,0,-2,-2,-5,-17
1532146345765,-3,-43,-25,2,3,1,2,7
1532146345770,4,2,-3,-7,-5,3,-3,1
1532146345775,-23,-10,-3,-1,-1,-1,4,1
1532146345780,-17,-18,-2,2,1,3,7,9
1532146345785,-2,8,-2,-1,-5,1,-3,-9
1532146345790,7,-36,-8,0,-4,-4,-2,-2
1532146345795,-93,16,-2,-1,-1,-1,-5,-11
1532146345800,2,-17,-8,-1,-5,-2,-1,24
1532146345805,-15,11,16,-3,-6,1,-3,-11
1532146345810,-11,3,8,1,11,-2,3,-7
1532146345815,-4,-44,-8,4,-2,0,1,2
1532146345820,-2,-8,-19,-5,-1,-10,-12,-10
1532146345825,-11,14,7,-2,0,1,3,-1
1532146345830,-78,10,-3,-2,-17,-1,-2,1
1532146345835,60,27,21,2,2,1,4,1
1532146345840,-41,-38,23,-4,-6,2,1,-8
1532146345845,12,-15,-25,2,4,0,1,-7
1532146345850,-5,-13,-27,-2,-5,-1,-5,-4
1532146345855,-9,9,2,0,-3,1,0,-1
1532146345860,-9,11,-2,-2,5,5,1,3
1532146345865,23,21,8,0,-6,-8,-7,-9
1532146345870,-5,12,8,-3,-2,0,5,11
1532146345875,-19,21,-17,-2,-4,-1,2,11
1532146345880,43,-19,2,1,4,-4,-9,-37
1532146345885,-75,-22,7,-2,0,0,3,0
1532146345890,99,40,-1,1,3,-3,-2,11
1532146345895,15,5,-4,-2,-6,-4,-2,1
1532146345900,-21,20,2,0,3,3,3,9
1532146345905,-4,-52,-7,-2,-3,2,-2,-2
1532146345910,-8,5,1,2,3,0,0,-4
1532146345915,-10,9,-2,-4,-6,-1,1,1
1532146345920,36,-1,-2,1,2,-1,-3,0
1532146345925,-65,-7,-3,-3,-6,-2,-1,-11
1532146345930,-18,5,1,-3,2,8,4,7
1532146345935,-10,3,4,0,9,-2,-3,4
1532146345940,-41,-52,-20,-1,-6,-1,2,4
1532146345945,13,17,-2,3,1,0,-7,-18
1532146345950,18,-10,0,-4,-2,-2,-3,-8
1532146345955,-55,14,-5,-6,-1,-5,-6,4
1532146345960,-18,-19,0,3,6,-2,1,6
1532146345965,16,30,7,2,-2,0,0,7
1532146345970,-50,-8,-4,-1,-2,-1,-4,-8
1532146345975,22,4,0,1,1,-1,5,3
1532146345980,43,29,2,-3,3,-1,2,5
1532146345985,-57,-54,-9,-1,-8,1,-7,-22
1532146345990,15,2,9,7,10,-3,0,-3
1532146345995,3,19,-3,-2,-2,-1,-4,3
1532146346000,46,22,-2,-2,-6,-2,3,0
1532146346005,17,7,-1,-2,10,-5,-2,-2
1532146346010,7,2,-1,-2,-9,-2,1,3
1532146346015,2,-43,3,3,8,4,2,2
1532146346020,-21,1,0,1,1,1,1,-5
1532146346025,45,6,7,3,3,-2,-6,-11
1532146346030,8,-3,-1,-2,-3,-2,8,21
1532146346035,-5,37,11,-1,5,-2,-12,-37
1532146346040,-39,-42,-13,-2,-8,-1,4,11
1532146346045,55,13,-13,-2,-5,-4,5,15
1532146346050,-3,7,6,1,1,-1,-4,-4
1532146346055,14,-9,-5,-2,-3,1,5,9
1532146346060,-35,7,11,5,3,0,-2,3
1532146346065,-7,-3,4,-5,-3,-2,-1,-5
1532146346070,12,-8,-5,-1,3,0,0,-1
1532146346075,6,1,-5,-3,-1,-2,2,5
1532146346080,-2,-13,-4,-2,2,1,-5,-6
1532146346085,-9,-1,-1,-3,-5,0,0,-4
1532146346090,-26,0,26,-1,7,-1,-3,-9
1532146346095,14,-2,-13,3,-4,-6,-1,-5
1532146346100,-23,-3,-8,0,-4,3,-1,-2
1532146346105,-1,-7,-3,-1,9,4,4,11
1532146346110,-3,6,-2,-1,-3,1,-7,-7
1532146346115,-5,-8,4,-3,-4,-5,-7,-47
1532146346120,29,17,1,-1,3,-4,0,-1
1532146346125,-13,12,4,3,3,-3,0,5
1532146346130,8,-7,-6,-3,-2,-3,3,4
1532146346135,-4,-13,7,3,-1,0,2,18
1532146346140,32,20,-4,-3,-2,-2,-4,-3
1532146346145,12,-5,9,-2,-2,2,2,2
1532146346150,-44,-30,-16,-3,-3,-5,-5,-5
1532146346155,26,26,5,2,-7,2,2,6
1532146346160,-25,-4,-11,-8,-7,0,-2,-6
1532146346165,9,17,3,2,2,-2,-1,8
1532146346170,26,-13,1,0,3,3,4,4
1532146346175,-34,3,-3,-3,-2,-2,2,6
1532146346180,-5,1,7,1,1,-1,-2,-7
1532146346185,-12,-6,-4,-5,-6,-5,-3,-2
1532146346190,32,-7,-6,-1,-2,0,-2,-4
1532146346195,-11,-11,-6,0,3,-3,-1,2
1532146346200,22,18,2,-3,-1,3,1,14
1532146346205,-8,-4,0,-1,-1,2,2,-9
1532146346210,-2,5,-4,-1,-11,-5,-8,-10
1532146346215,-49,-6,1,-1,0,2,2,2
1532146346220,21,-10,-3,-2,-3,-5,0,-5
1532146346225,4,-7,-3,0,-4,0,-1,6
1532146346230,-9,0,-5,-5,-2,1,-4,-10
1532146346235,8,-4,-2,-4,0,-6,-2,3
1532146346240,-37,-5,2,5,10,6,-3,-5
1532146346245,3,1,2,-1,-5,1,-1,3
1532146346250,-5,-11,0,-3,2,-2,1,0
1532146346255,-2,-1,-8,-3,-3,-2,0,4
1532146346260,18,7,12,-2,2,2,0,-2
1532146346265,13,7,-3,3,1,0,1,-1
1532146346270,-8,-11,-5,0,2,-2,0,2
1532146346275,49,-1,0,1,0,7,2,3
1532146346280,-39,16,-2,-3,3,-6,-4,-5
1532146346285,-62,-14,-1,-3,-4,-3,-2,-6
1532146346290,-1,9,6,2,-2,-3,-1,-2
1532146346295,21,3,0,-1,2,3,-3,1
1532146346300,-8,-8,-2,2,-4,-5,-2,-1
1532146346305,18,-2,-1,-1,0,4,1,6
1532146346310,-22,-2,-5,-1,2,1,0,2
1532146346315,3,-13,2,1,1,1,0,-13
1532146346320,26,13,-3,-2,-4,-2,-4,1
1532146346325,-7,-7,-5,-1,-1,-2,-2,-9
1532146346330,-12,5,4,-3,-1,0,2,2
1532146346335,24,8,3,1,0,-2,-3,2
1532146346340,1,-13,-2,-1,-2,-3,1,-1
1532146346345,0,1,1,1,3,5,1,7
1532146346350,7,2,0,1,0,3,1,-5
1532146346355,3,-7,-4,-2,1,-2,-3,-1
1532146346360,-10,-12,-5,0,-5,0,3,-9
1532146346365,15,7,4,0,3,-3,-9,0
1532146346370,28,-1,-8,-2,-1,-1,-2,-12
1532146346375,-18,12,7,1,3,0,2,9
1532146346380,-7,-16,-11,-2,2,5,-1,-10
1532146346385,19,7,1,-4,-8,-5,-3,1
1532146346390,7,-1,1,1,-1,1,0,3
1532146346395,-18,-5,0,-2,-3,-3,0,-3
1532146346400,-1,1,3,0,1,0,0,4
1532146346405,1,2,0,-1,0,0,2,0
1532146346410,-11,5,2,1,1,-2,-4,-2
1532146346415,14,7,0,-1,-7,-2,-2,5
1532146346420,-7,-7,1,0,-2,-1,-1,4
1532146346425,-10,-1,-3,3,3,-1,1,1
1532146346430,0,1,-4,-3,-4,-3,-2,-5
1532146346435,-10,-7,-1,-2,0,0,-3,-5
1532146346440,7,1,-1,-3,-3,-2,-1,1
1532146346445,-1,-3,-2,0,0,0,1,-3
1532146346450,-7,-4,-3,2,2,-1,0,5
1532146346455,8,4,1,0,0,3,3,2
1532146346460,-54,1,3,1,0,0,0,-7
1532146346465,44,-1,-3,-1,-1,0,1,8
1532146346470,1,0,-3,-5,-1,-2,-3,-8
1532146346475,-1,-2,-4,-4,-3,-2,0,-3
1532146346480,-4,-6,4,4,-1,1,1,2
1532146346485,-24,2,-4,-6,-5,-6,-4,-1
1532146346490,-19,-9,3,3,8,3,7,6
1532146346495,-23,6,0,1,0,1,-2,-3
1532146346500,37,-6,-1,-2,-2,-1,-1,4
1532146346505,-5,-25,0,1,14,-2,-28,-5
1532146346510,3,14,-12,-8,-21,-9,60,-8
1532146346515,28,26,6,2,0,5,2,10
1532146346520,-70,-19,-1,-1,1,-5,-6,-6
1532146346525,-3,4,5,2,-3,-1,4,0
1532146346530,-1,-13,3,-1,2,0,-19,3
1532146346535,12,-9,-1,1,3,-2,-1,3
1532146346540,22,-3,-17,-3,-4,0,-8,-19
1532146346545,-28,-6,1,2,-1,-2,14,-1
1532146346550,40,3,1,-1,-1,0,-11,2
1532146346555,69,35,22,1,-3,4,17,35
1532146346560,16,-8,-8,-1,3,-4,-9,-17
1532146346565,-7,-21,-1,2,-3,4,5,-7
1532146346570,-26,7,-11,-3,1,-2,-17,-6
1532146346575,-12,12,15,1,3,3,7,22
1532146346580,8,-9,-3,0,-4,-6,-4,-19
1532146346585,11,9,-2,-2,-3,1,-1,-8
1532146346590,46,10,0,1,-2,1,-7,9
1532146346595,1,-19,-10,-2,0,-4,0,-5
1532146346600,30,11,1,-3,-2,0,2,15
1532146346605,-18,-6,-1,-2,-3,2,2,-4
1532146346610,3,30,10,6,3,2,-4,4
1532146346615,-8,-9,-14,-6,-2,-3,-7,-15
1532146346620,12,-4,5,2,2,3,5,9
1532146346625,-1,-11,-3,-2,-2,-1,1,1
1532146346630,-15,-13,1,-1,0,-1,2,3
1532146346635,-13,-10,-4,4,1,-3,-8,-14
1532146346640,-7,14,7,2,-2,0,0,2
1532146346645,22,2,-4,-4,-1,-2,4,4
1532146346650,-11,5,3,2,1,-2,-4,0
1532146346655,-18,-14,-11,-3,-1,-1,-6,-16
1532146346660,27,4,4,0,-1,2,4,13
1532146346665,-62,3,-4,-3,-3,-3,0,-3
1532146346670,1,-10,1,3,1,1,-4,-2
1532146346675,-16,-10,-4,-3,-3,1,-1,-6
1532146346680,0,8,-1,-4,1,-2,2,6
1532146346685,26,8,1,1,0,-3,-2,2
1532146346690,-9,-8,0,-2,-2,0,-2,-2
1532146346695,-11,-6,-5,-1,0,-3,-2,-4
1532146346700,-9,4,3,2,2,0,-1,4
1532146346705,11,5,-2,-3,-1,2,-1,1
1532146346710,-3,-10,-5,-1,-2,-1,-3,-1
1532146346715,1,-1,1,1,-2,-1,-2,-7
1532146346720,2,-2,-2,-1,-2,0,1,1
1532146346725,12,2,3,2,0,1,-1,1
1532146346730,-7,-8,-1,-1,-1,0,-3,0
1532146346735,-8,-3,-7,-3,-3,0,-2,-4
1532146346740,0,-6,-1,-3,-1,0,0,1
1532146346745,10,11,4,5,2,-2,-1,2
1532146346750,0,0,1,-2,-1,-1,-1,-2
1532146346755,-2,-7,-5,-2,1,-1,-2,-4
1532146346760,-2,5,-1,0,1,2,0,1
1532146346765,6,0,0,-3,-4,-2,-1,-1
1532146346770,6,-6,-5,-1,0,0,1,-1
1532146346775,-6,-8,0,-2,-7,-13,-9,-5
1532146346780,-1,0,1,4,3,7,5,5
1532146346785,6,0,1,-1,3,6,1,4
1532146346790,-2,-1,-1,-1,-5,-9,-5,-3
1532146346795,-4,0,2,1,5,10,7,1
1532146346800,-3,0,-5,-3,-2,-3,-2,-1
1532146346805,2,0,0,-2,-5,-4,18,4
1532146346810,-3,0,4,1,3,3,-29,-6
1532146346815,-6,-5,-5,-2,-2,-3,-4,-7
1532146346820,2,1,-2,-2,-4,-3,-6,-3
1532146346825,-3,1,-4,-5,-2,-1,2,-5
1532146346830,-3,-9,-4,-2,-3,-4,7,0
1532146346835,4,3,1,0,-1,-1,-1,-4
1532146346840,4,20,0,-1,-2,-1,-3,5
1532146346845,-5,-16,-4,-1,-2,-2,-10,-6
1532146346850,3,1,1,-1,0,0,8,2
1532146346855,-3,21,1,1,0,4,-1,1
1532146346860,-6,-43,-3,-3,-2,-3,24,0
1532146346865,6,9,-2,0,-1,-3,-47,-9
1532146346870,-3,0,-2,-1,1,2,5,1
1532146346875,-2,2,3,2,0,2,3,0
1532146346880,2,8,1,-2,-1,-1,-5,-3
1532146346885,2,28,2,0,-1,1,7,1
1532146346890,-3,-25,2,2,1,2,3,0
1532146346895,1,-7,-5,-1,-2,-4,-14,-3
1532146346900,1,7,1,-1,0,-2,18,-2
1532146346905,1,-19,1,1,1,1,10,5
1532146346910,9,26,-1,-1,-2,-1,1,1
1532146346915,4,-6,-1,-1,-1,-3,7,5
1532146346920,-9,-5,0,-2,-1,-1,-14,-7
1532146346925,-1,-3,-2,0,0,-1,3,-3
1532146346930,-7,0,0,-2,-5,1,12,1
1532146346935,3,14,2,0,13,-1,3,-1
1532146346940,-5,-15,-2,-1,-4,-4,-10,0
1532146346945,6,-1,-6,-2,19,0,-6,-6
1532146346950,-3,-1,-1,-4,-22,0,8,6
1532146346955,-9,-12,-2,-2,-4,-1,-3,-1
1532146346960,14,25,4,3,-1,1,-4,2
1532146346965,-2,-7,-1,-1,0,-3,8,2
1532146346970,5,-8,-1,1,9,0,-12,-5
1532146346975,-7,6,-1,-2,-3,0,5,-2
1532146346980,-9,2,-1,-1,1,1,-6,-2
1532146346985,2,-10,-2,-1,-8,-2,1,1
1532146346990,6,4,-1,-1,4,-1,-2,-4
1532146346995,-9,-10,-4,-3,-7,-2,-8,-2
1532146347000,-1,-5,0,0,1,-2,-2,-1
1532146347005,-8,-5,-2,-3,-5,2,0,-1
1532146347010,-15,7,2,3,1,-1,-3,-2
1532146347015,0,-14,-4,-3,0,3,17,3
1532146347020,3,-3,0,1,2,-4,-12,-6
1532146347025,-14,5,1,-1,-5,-3,-7,-2
1532146347030,1,8,2,-2,3,1,-4,2
1532146347035,10,-4,-2,-1,-1,0,7,2
1532146347040,-8,9,-1,-3,-1,-1,3,-3
1532146347045,-1,-22,1,1,-2,2,-1,0
1532146347050,-1,1,-2,0,2,-4,2,-3
1532146347055,7,-5,0,-2,-1,2,-2,-2
1532146347060,-5,-2,-3,-2,-3,-2,-5,1
1532146347065,9,8,0,0,0,-5,-6,-1
1532146347070,3,1,-3,-2,1,1,14,-1
1532146347075,-16,-2,2,3,-1,0,-5,-2
1532146347080,15,0,-1,0,0,-3,-3,0
1532146347085,2,7,-2,-1,-2,2,10,-1
1532146347090,-7,-9,-2,-1,1,-2,-3,-1
1532146347095,-1,-11,-4,-4,-2,-4,-8,-2
1532146347100,-2,-6,-2,1,0,3,9,1
1532146347105,-1,4,2,2,-1,-1,-5,-1
1532146347110,0,4,2,-1,1,-1,-2,2
1532146347115,5,2,-3,-1,0,-3,-4,-2
1532146347120,1,-3,-3,-3,-2,0,-3,-1
1532146347125,3,-3,-3,-2,-4,-1,9,1
1532146347130,-6,15,2,1,-2,-3,-6,-1
1532146347135,1,-18,1,0,0,1,-2,-2
1532146347140,2,0,-1,0,-1,-1,-2,-1
1532146347145,-1,4,-1,-1,-2,-1,-3,-2
1532146347150,0,-4,-2,-3,-1,0,0,-2
1532146347155,-1,5,1,-1,0,-3,-7,-2
1532146347160,-3,-1,1,-2,-1,0,2,0
1532146347165,-4,2,0,1,-2,0,-1,0
1532146347170,2,-8,-3,-3,0,0,-4,0
1532146347175,-4,7,-1,0,-1,0,2,-1
1532146347180,6,-3,-1,0,0,-3,-8,1
1532146347185,-27,-3,-2,-2,-1,1,18,-1
1532146347190,35,-7,-4,-1,0,-2,0,1
1532146347195,-16,6,1,1,-1,-2,-2,1
1532146347200,-12,-1,5,1,0,1,-3,-7
1532146347205,21,-2,-3,-2,0,-5,-9,0
1532146347210,-17,-4,-3,-1,0,1,4,-2
1532146347215,5,1,-2,1,0,-1,-3,2
1532146347220,2,4,-1,-2,0,5,8,3
1532146347225,-9,-6,0,0,0,-4,-2,-2
1532146347230,1,-1,1,1,-1,-1,-6,-2
1532146347235,10,1,-2,-3,-2,-1,2,1
1532146347240,2,-4,-1,0,0,0,3,0
1532146347245,6,8,-1,-2,-2,1,-4,0
1532146347250,-14,0,-1,-3,-2,-1,2,-5
1532146347255,-21,-19,0,-1,-1,0,0,-4
1532146347260,1,3,-4,-3,-1,0,0,3
1532146347265,8,1,0,2,0,0,-2,-3
1532146347270,-9,-2,2,2,0,-2,-5,-1
1532146347275,18,8,0,-2,-2,-3,-9,-2
1532146347280,-26,-3,-2,-2,-1,0,-3,-5
1532146347285,14,-1,-4,-4,-2,-3,-4,3
1532146347290,0,-4,-1,-1,0,-2,-2,0
1532146347295,3,12,0,1,0,-1,-1,-1
1532146347300,8,24,0,-1,-1,0,1,0
1532146347305,-9,-29,0,2,1,1,-1,-3
1532146347310,9,0,0,0,1,1,14,7
1532146347315,-6,5,-2,-4,-2,-4,-16,-11
1532146347320,-6,-3,0,0,1,4,3,-2
1532146347325,6,5,1,1,-1,-6,-11,-3
1532146347330,-10,4,1,1,-3,1,0,0
1532146347335,1,-14,-1,0,0,-2,4,2
1532146347340,2,-1,-1,0,-1,-3,-3,0
1532146347345,0,4,-2,-2,-2,0,4,1
1532146347350,-2,-3,-3,-3,-1,-3,-8,-4
1532146347355,-2,7,-2,0,1,1,5,1
1532146347360,-1,-12,-4,-1,-1,-2,-4,-2
1532146347365,-5,6,0,-1,0,1,2,3
1532146347370,-16,-2,1,0,-1,-3,-13,-6
1532146347375,17,0,0,2,-1,2,7,2
1532146347380,-1,-1,0,1,1,-1,2,1
1532146347385,-2,5,0,-2,0,1,1,-2
1532146347390,0,-3,-1,-3,-1,0,-7,-1
1532146347395,-10,-1,0,-2,-1,1,13,1
1532146347400,10,2,-1,1,-1,-1,-3,0
1532146347405,-2,6,-1,-1,0,-1,-2,1
1532146347410,2,12,-1,-1,-2,0,-4,-2
1532146347415,2,-11,-1,-1,0,5,8,1
1532146347420,4,-7,-2,-1,-4,-7,-4,0
1532146347425,3,1,1,-2,-1,-1,-3,-2
1532146347430,0,3,0,0,-1,1,7,1
1532146347435,-5,-3,-2,-1,-1,-3,-11,-1
1532146347440,-5,-4,0,-1,-1,0,-2,0
1532146347445,-2,-2,-3,-1,-1,-2,-10,-2
1532146347450,1,-8,-1,-1,0,1,12,-3
1532146347455,-2,6,-1,-2,-2,-4,-5,0
1532146347460,-1,-4,-2,-1,-1,-1,-4,-2
1532146347465,-4,-2,-1,0,-2,1,8,-1
1532146347470,8,1,-1,0,0,-3,-3,1
1532146347475,-1,-2,-1,2,-2,0,-5,0
1532146347480,-14,3,-2,-2,-3,-1,21,1
1532146347485,10,-3,0,0,1,1,-12,-3
1532146347490,-2,0,-1,-1,0,-2,-4,-3
1532146347495,1,-11,0,-1,-2,-2,-3,-1
1532146347500,1,0,0,0,0,-2,1,2
1532146347505,-9,1,2,0,-1,2,3,0
1532146347510,6,-5,-2,-1,-2,-4,-9,1
1532146347515,0,6,0,-1,0,6,5,4
1532146347520,1,1,2,0,0,2,5,-4
1532146347525,-1,5,2,1,1,0,14,2
1532146347530,-1,-2,-1,-1,-2,0,-7,2
1532146347535,-7,-1,-1,-1,-3,2,-2,0
1532146347540,-4,4,2,0,1,0,1,1
1532146347545,10,18,-1,-2,-2,-1,-3,-1
1532146347550,-7,-26,-3,-1,0,0,2,0
1532146347555,2,3,-2,-3,-1,-2,-1,-2
1532146347560,-2,-2,1,0,0,1,-15,-4
1532146347565,4,11,0,-1,-1,-3,5,-5
1532146347570,5,20,3,-1,-2,1,2,9
1532146347575,-5,-28,1,3,0,-2,-7,-2
1532146347580,-12,-2,-5,-1,0,-1,4,2
1532146347585,2,2,0,-2,-1,1,-2,-3
1532146347590,-6,-15,-4,-2,-1,-2,-6,-5
1532146347595,4,6,1,-1,-2,-2,-1,3
1532146347600,1,2,1,-1,0,0,10,-1
1532146347605,-8,-4,0,2,-1,0,-3,-1
1532146347610,7,8,-2,0,-1,-2,1,-1
1532146347615,0,-5,-3,-3,-1,-2,0,1
1532146347620,4,-3,1,-1,0,-1,-4,-1
1532146347625,1,23,0,-1,-1,-1,-2,1
1532146347630,-7,-31,2,-1,0,0,4,-2
1532146347635,-3,-2,-2,1,-1,2,-4,-2
1532146347640,-1,6,-2,-1,-2,0,5,1
1532146347645,1,-1,0,-1,0,1,3,0
1532146347650,-8,1,-2,0,0,-3,-6,-2
1532146347655,-4,-3,0,-2,0,-1,-4,-3
1532146347660,7,1,-2,-1,-2,-2,17,2
1532146347665,-3,-7,-2,0,-1,2,-11,-3
1532146347670,2,17,-1,-2,-2,-1,-5,-2
1532146347675,-3,-5,0,-1,-1,-1,-5,-3
1532146347680,-4,-10,-3,1,0,-2,-6,1
1532146347685,2,-5,0,-2,1,0,11,0
1532146347690,0,-1,-1,-1,0,-7,-6,-3
1532146347695,-16,3,-2,-2,-1,2,1,-2
1532146347700,16,2,1,-1,0,-1,-8,-2
1532146347705,-2,-6,-3,0,-2,-1,9,1
1532146347710,-7,-5,-1,0,-2,1,-1,-2
1532146347715,18,28,1,-1,-2,-1,19,4
1532146347720,-16,-27,-3,-1,0,-3,-43,-12
1532146347725,-3,-4,0,1,-1,-2,-3,2
1532146347730,1,23,2,-1,-1,2,6,1
1532146347735,5,-20,-3,-2,-1,-6,-10,-5
1532146347740,1,13,1,0,-1,0,13,2
1532146347745,3,-2,0,-2,-2,0,1,1
1532146347750,-5,1,-1,1,2,1,-9,-3
1532146347755,7,-1,2,-2,1,0,2,3
1532146347760,-8,9,2,0,-1,-2,8,1
1532146347765,-13,-42,-4,-1,-2,-3,-30,-7
1532146347770,2,2,-5,-1,-1,0,3,-1
1532146347775,-2,-1,-2,-1,-1,-2,-8,-4
1532146347780,0,2,-2,-1,-1,1,6,3
1532146347785,-1,8,2,0,-1,-5,7,3
1532146347790,0,1,1,-2,0,0,-31,-5
1532146347795,2,-27,-4,1,-2,0,-4,-1
1532146347800,-7,-3,-1,-1,-3,-1,0,-3
1532146347805,10,21,1,0,0,0,3,1
1532146347810,-7,-31,-1,-1,0,0,6,-3
1532146347815,8,13,1,-2,0,-1,1,1
1532146347820,-1,5,2,2,-1,0,2,-2
1532146347825,-2,2,-3,-3,-1,0,6,0
1532146347830,-2,4,-2,-2,-2,-1,3,2
1532146347835,-9,-1,-1,0,0,0,3,-1
1532146347840,5,18,0,0,-1,-5,-19,2
1532146347845,-7,-29,-1,-1,-1,3,8,-1
1532146347850,4,5,-1,1,-1,0,7,2
1532146347855,-4,2,1,1,-1,0,-3,0
1532146347860,2,-3,0,0,0,-1,0,2
1532146347865,-1,6,-5,-1,0,-2,-1,-3
1532146347870,0,-7,0,-3,-1,1,1,-2
1532146347875,-4,-3,1,-2,-1,-5,6,5
1532146347880,2,0,0,0,0,2,5,-2
1532146347885,-2,4,1,0,-1,-1,11,2
1532146347890,-1,-2,-1,0,0,2,3,1
1532146347895,-6,-1,-4,1,1,2,-5,-4
1532146347900,7,5,-2,-2,-2,-2,1,0
1532146347905,-8,-1,0,-1,0,0,0,-1
1532146347910,4,2,-1,-2,-3,-1,0,3
1532146347915,9,0,-2,-2,-3,-1,-12,-3
1532146347920,-9,-12,-4,-2,-2,3,21,-2
1532146347925,4,2,-1,-1,-2,-1,-4,0
1532146347930,-13,-4,0,0,-1,-5,-2,-2
1532146347935,-2,5,-1,-1,-2,5,15,0
1532146347940,2,-6,-2,-1,-2,0,-10,0
1532146347945,8,9,2,2,1,1,12,2
1532146347950,-2,-1,-2,-1,-1,-10,-14,-2
1532146347955,0,2,-1,1,-2,0,-5,0
1532146347960,-1,1,-2,-1,-1,1,2,0
1532146347965,2,1,-3,-2,-1,1,5,0
1532146347970,5,20,-1,-2,-1,7,-5,1
1532146347975,1,-29,-1,-1,-1,-11,10,-5
1532146347980,-11,-2,1,0,1,0,-4,-2
1532146347985,4,2,-1,-1,-1,-5,-18,-3
1532146347990,3,0,-2,0,0,0,6,0
1532146347995,0,12,1,-3,0,3,-10,-4
1532146348000,-5,-5,-1,-1,0,2,5,1
1532146348005,1,-5,-1,-1,-2,-2,-11,-2
1532146348010,-1,-4,-2,-2,-2,1,5,-1
1532146348015,-8,5,1,1,0,1,1,0
1532146348020,12,-2,1,-3,-2,-7,-6,-2
1532146348025,3,4,-1,-1,-2,-1,1,3
1532146348030,8,2,0,-2,0,2,3,-1
1532146348035,-6,6,1,0,-2,3,-4,1
1532146348040,-12,-29,-10,-4,-2,-13,-14,-5
1532146348045,-7,1,1,2,1,-2,-5,-5
1532146348050,-4,-2,3,0,-1,-2,-4,0
1532146348055,3,-3,-2,-2,1,-1,-2,-2
1532146348060,1,8,-1,0,-1,3,23,2
1532146348065,-3,-4,0,-1,-1,1,-54,-10
1532146348070,2,8,0,-1,-1,-2,0,0
1532146348075,-1,-5,-7,-3,0,5,-3,-5
1532146348080,4,5,2,0,-1,-8,4,3
1532146348085,-2,-15,1,0,0,-1,8,3
1532146348090,-3,-17,-4,0,-1,-2,6,0
1532146348095,1,9,2,1,-1,-4,-10,-2
1532146348100,2,6,1,-1,1,5,1,-1
1532146348105,1,22,2,1,-1,1,12,1
1532146348110,5,-2,1,-1,0,0,-3,1
1532146348115,-6,0,-1,-1,-1,-4,-2,1
1532146348120,-3,-27,1,-1,-1,4,0,-2
1532146348125,-2,-1,-4,-1,1,-2,15,2
1532146348130,5,4,-1,-1,-1,-1,-26,-7
1532146348135,-4,-6,-5,-1,-1,-3,2,1
1532146348140,0,13,2,-1,1,4,-3,-1
1532146348145,0,-14,-2,-3,-1,-1,-5,0
1532146348150,-5,13,-2,-1,0,1,19,1
1532146348155,10,22,2,0,-2,-2,-3,1
1532146348160,-13,-52,-5,-1,0,0,-8,-1
1532146348165,5,8,0,-1,-1,-4,28,2
1532146348170,-3,-4,-1,0,-1,8,0,-3
1532146348175,-1,2,1,0,-1,0,1,0
1532146348180,-4,13,-1,-1,-3,0,-5,0
1532146348185,8,-1,-2,-2,0,-3,-2,-5
1532146348190,-3,-34,0,-4,-1,8,13,5
1532146348195,1,6,-3,0,-1,-8,-12,-3
1532146348200,5,6,0,3,1,2,7,-1
1532146348205,-5,-3,0,-1,-1,1,-10,-5
1532146348210,5,12,1,1,-1,-3,-4,1
1532146348215,0,-11,-1,-1,1,3,16,3
1532146348220,-3,6,0,-1,-1,-2,7,1
1532146348225,-5,11,-4,-1,-2,-2,-5,-3
1532146348230,-6,-49,-4,0,-1,-4,0,-1
1532146348235,3,3,-1,-1,-1,1,11,3
1532146348240,2,13,1,1,1,-1,-12,0
1532146348245,1,30,1,0,-1,0,2,0
1532146348250,-13,-38,-2,0,2,-3,8,-1
1532146348255,2,1,-1,1,-2,-5,-25,-4
1532146348260,-2,5,1,-2,-2,0,7,2
1532146348265,1,-5,-5,-1,0,1,-3,-1
1532146348270,-9,17,4,-2,-1,-4,9,1
1532146348275,7,-6,1,0,-1,-2,-36,-9
1532146348280,0,4,-1,-3,-1,1,-3,0
1532146348285,4,-6,-1,1,-2,-6,-2,2
1532146348290,-12,14,-2,0,-1,-2,0,-3
1532146348295,1,-3,0,-1,1,-1,-5,3
1532146348300,6,2,-3,-1,-1,1,-2,-1
1532146348305,-1,-10,0,0,1,-2,-6,-3
1532146348310,10,16,-2,0,0,-1,7,-1
1532146348315,-5,2,-1,-2,-2,2,11,2
1532146348320,-3,-1,0,-1,-1,-3,-7,-2
1532146348325,-2,18,1,-2,1,11,33,6
1532146348330,-3,-36,-2,-1,-3,-19,-63,-12
1532146348335,-4,18,0,0,1,3,9,-2
1532146348340,6,-8,-3,-1,-1,-4,-7,-2
1532146348345,-3,-8,0,1,-1,2,1,-1
1532146348350,10,46,3,-2,1,4,13,3
1532146348355,-13,-42,-4,-2,-1,0,-1,-1
1532146348360,3,-2,-3,-2,-1,-1,-2,0
1532146348365,-8,-7,-2,-3,0,-3,-5,-3
1532146348370,10,16,2,0,-1,1,-1,0
1532146348375,-3,36,3,-1,-1,-2,7,2
1532146348380,-9,-27,-9,-4,0,-2,10,-4
1532146348385,5,-14,-2,-1,-1,-2,-28,-6
1532146348390,4,4,-1,-1,-2,1,2,4
1532146348395,-4,8,-2,-1,-1,2,9,0
1532146348400,-3,9,5,1,-1,-3,-8,-2
1532146348405,-5,-5,-1,0,-1,1,2,-1
1532146348410,0,16,-2,-3,-2,-3,-4,-1
1532146348415,4,-22,-4,-2,-1,8,13,-1
1532146348420,1,12,0,-1,-3,-9,-11,-2
1532146348425,-7,-17,0,1,0,-1,-2,0
1532146348430,1,23,0,-1,-2,3,10,4
1532146348435,-1,-38,-5,-3,-2,-7,-4,-2
1532146348440,3,-6,-1,1,1,2,2,-1
1532146348445,-2,2,-1,-1,-1,0,3,1
1532146348450,-1,14,2,0,-1,-1,-4,-2
1532146348455,-8,-14,0,0,2,3,25,3
1532146348460,2,15,-2,0,-1,-1,-43,-10
1532146348465,1,-10,-2,-2,-2,0,-1,-2
1532146348470,-8,-1,-1,0,0,0,23,0
1532146348475,11,8,0,-1,-2,-1,-4,1
1532146348480,-3,2,1,0,-1,2,12,2
1532146348485,0,1,-2,-1,-3,-2,-1,0
1532146348490,1,-21,-3,-1,0,1,-3,-2
1532146348495,0,23,3,2,0,-2,-7,-1
1532146348500,1,-2,-1,-1,1,-2,4,0
1532146348505,-3,-7,-1,-3,0,3,2,-3
1532146348510,0,15,0,-1,0,1,7,3
1532146348515,-5,-34,-1,1,1,-3,-6,-3
1532146348520,3,3,2,-1,0,1,2,0
1532146348525,2,16,0,1,0,-4,5,3
1532146348530,-13,-15,-5,0,-1,-1,-3,-4
1532146348535,13,19,1,-2,-2,1,-6,-4
1532146348540,-8,-22,-4,-1,-2,-4,17,2
1532146348545,-6,-13,-2,-2,-2,-3,-5,0
1532146348550,3,-1,-4,-1,0,0,8,3
1532146348555,-10,-6,-5,-2,1,3,-36,-12
1532146348560,0,-1,4,3,2,2,3,1
1532146348565,10,6,0,0,-2,-4,-3,-2
1532146348570,3,-4,2,1,-1,-3,-7,-3
1532146348575,0,-2,0,-1,0,1,13,0
1532146348580,-2,7,-5,-4,0,1,-1,1
1532146348585,-5,-4,-4,-2,-2,-1,-4,-1
1532146348590,-8,-13,0,-1,0,1,-1,-1
1532146348595,9,9,-2,-2,-4,-5,1,-2
1532146348600,5,6,0,-2,-1,2,0,0
1532146348605,-4,-6,2,-1,0,-2,-1,3
1532146348610,2,3,-1,0,-1,0,-3,-1
1532146348615,-4,-3,1,0,-1,0,2,3
1532146348620,3,3,0,-2,-1,-2,0,-3
1532146348625,4,-1,-2,-1,0,1,-1,-1
1532146348630,-1,0,2,0,0,-5,-4,0
1532146348635,-14,1,-3,-1,-1,3,3,1
1532146348640,1,-5,-3,-1,-3,2,11,-1
1532146348645,-2,-5,-5,-3,-2,-10,-35,-10
1532146348650,0,20,0,-2,-3,0,0,3
1532146348655,-2,-20,2,1,0,-4,4,3
1532146348660,-6,1,-3,-2,-2,0,-5,-6
1532146348665,-10,-26,2,0,-2,2,6,0
1532146348670,11,2,-4,0,-1,-1,-4,-4
1532146348675,12,6,-4,-2,-2,-4,-4,-3
1532146348680,0,1,-1,0,-1,0,-1,2
1532146348685,-1,-1,-1,-2,-1,0,6,3
1532146348690,-9,-11,-1,1,0,0,-3,-5
1532146348695,11,8,6,1,2,-3,7,4
1532146348700,-4,-1,1,0,0,0,-1,0
1532146348705,4,14,0,-2,-1,0,4,0
1532146348710,1,0,-1,-1,-1,-2,-1,1
1532146348715,-11,8,-1,-2,-2,-1,-2,-1
1532146348720,0,-7,-7,-3,-3,1,-3,2
1532146348725,-3,0,3,3,-1,0,3,-1
1532146348730,1,-8,0,-1,1,1,-1,3
1532146348735,-8,1,-6,-3,-1,-2,1,-5
1532146348740,-2,3,0,1,-2,-1,-4,-4
1532146348745,-4,-4,-1,4,5,2,4,4
1532146348750,19,-4,1,-3,-1,-3,-1,4
1532146348755,-5,-1,-8,-4,-4,-4,-4,-6
1532146348760,3,-5,-10,-7,-2,0,2,4
1532146348765,-6,2,-1,-1,0,0,-1,-4
1532146348770,-12,-6,-7,11,6,-1,2,4
1532146348775,22,11,3,2,3,0,-5,7
1532146348780,-24,4,1,-2,-3,-4,-2,-1
1532146348785,5,27,14,-12,-6,-2,0,-14
1532146348790,4,-18,-8,-3,-1,1,1,-2
1532146348795,-37,-20,-6,1,-3,-2,-4,-22
1532146348800,10,-30,-13,10,2,0,-2,9
1532146348805,24,31,8,5,-1,-2,-5,-5
1532146348810,-16,-20,1,-6,-4,-1,-1,-10
1532146348815,13,32,-3,-13,-9,-6,9,19
1532146348820,8,2,4,3,7,6,2,0
1532146348825,2,11,13,6,3,2,-2,13
1532146348830,-9,-24,2,0,-5,-3,-1,-14
1532146348835,-3,8,-6,-9,-9,2,-1,-12
1532146348840,-3,-14,-5,1,5,0,5,8
1532146348845,9,-5,-5,0,3,-1,-4,8
1532146348850,0,24,6,5,3,1,-4,0
1532146348855,-10,-32,-9,3,3,-1,1,7
1532146348860,3,10,2,-7,-9,-4,-5,-5
1532146348865,-8,-30,-14,-5,-1,0,1,4
1532146348870,-4,17,-4,-5,-3,-3,0,-2
1532146348875,0,12,15,0,1,1,1,0
1532146348880,2,-9,-12,-3,-2,-3,-4,-4
1532146348885,-5,-4,-8,1,0,-3,1,-2
1532146348890,-1,0,4,3,0,-1,-3,-2
1532146348895,5,0,6,6,3,-1,-2,1
1532146348900,-2,9,9,1,-2,0,-2,-7
1532146348905,-8,-10,-12,-6,-5,-3,1,-1
1532146348910,7,3,0,-5,-3,0,2,3
1532146348915,-1,-7,1,5,1,2,-2,-2
1532146348920,-3,11,6,-2,-2,-2,-1,-5
1532146348925,-6,-4,-6,-1,-1,-2,2,-3
1532146348930,3,0,0,0,1,-1,-3,0
1532146348935,-3,-3,-6,-2,-1,-1,2,-1
1532146348940,-2,3,-2,-1,-4,-3,-3,-1
1532146348945,-3,1,6,6,0,2,0,-3
1532146348950,-2,-3,-6,-5,0,2,-1,0
1532146348955,-5,-7,3,3,0,-1,-1,-1
1532146348960,1,11,10,-1,-2,-2,2,0
1532146348965,-5,4,2,3,3,2,0,-4
1532146348970,-2,-1,-2,-2,-2,-1,2,5
1532146348975,-3,-7,-5,-2,-1,-1,-2,2
1532146348980,-3,1,-2,-3,-3,-2,-2,-13
1532146348985,-4,-3,-2,-3,-3,-1,-2,-4
1532146348990,0,-1,-8,-6,-3,-2,0,-1
1532146348995,5,1,-3,0,0,0,-2,1
1532146349000,6,3,12,6,0,-1,0,2
1532146349005,1,-1,2,2,2,0,0,0
1532146349010,6,-2,0,2,-1,-2,-2,-1
1532146349015,3,-5,-4,-5,-2,5,1,-1
1532146349020,2,-5,-8,-6,2,-2,0,1
1532146349025,3,-5,-4,-1,0,-3,-1,-1
1532146349030,5,3,9,2,0,1,0,3
1532146349035,3,3,4,0,1,-2,1,12
1532146349040,-1,0,0,0,0,0,-1,-1
1532146349045,-5,-6,-6,0,-4,-2,-5,-26
1532146349050,-4,-2,-4,-2,1,-2,-1,-1
1532146349055,-1,0,0,0,2,0,0,0
1532146349060,-7,-2,-1,-2,-2,-1,-3,-4
1532146349065,-3,-7,-3,-4,-5,-2,1,9
1532146349070,-4,3,2,-1,-3,-2,0,1
1532146349075,-5,1,1,-1,-2,-3,-1,-1
1532146349080,2,2,-10,-3,-1,-1,3,9
1532146349085,0,-1,-3,-1,3,-1,-4,-1
1532146349090,1,3,12,7,1,1,-1,-6
1532146349095,2,-2,3,0,-2,0,1,3
1532146349100,-1,-5,-4,-2,-3,-2,-3,-6
1532146349105,2,-4,-4,-3,0,-1,-1,4
1532146349110,6,4,-4,-2,-1,-1,-1,1
1532146349115,4,0,2,1,1,-2,-1,-6
1532146349120,5,1,4,2,0,0,-1,1
1532146349125,3,-6,-8,-4,-3,-1,4,1
1532146349130,1,-2,-7,-4,-1,-2,-1,0
1532146349135,4,1,-1,1,-1,-2,-2,-5
1532146349140,0,-1,-1,0,-1,0,0,-4
1532146349145,3,0,1,0,-2,0,3,11
1532146349150,2,-1,-1,-1,-1,-1,-2,-7
1532146349155,-1,0,-3,-2,-1,-1,-2,-7
1532146349160,0,-3,3,0,-2,-1,2,4
1532146349165,0,2,4,1,-1,-1,-1,0
1532146349170,-3,3,1,-2,-2,-1,1,6
1532146349175,-2,13,1,-1,0,-2,-4,-6
1532146349180,-5,-13,-3,2,0,-1,-2,-2
1532146349185,-2,-5,-4,-4,-1,-1,-1,-4
1532146349190,-3,5,4,3,0,0,0,1
1532146349195,-2,1,-1,0,0,0,-2,3
1532146349200,0,5,3,1,0,1,0,-3
1532146349205,-3,-2,-4,-2,-1,-2,1,5
1532146349210,-6,-4,-5,-2,-2,0,1,3
1532146349215,-16,-6,0,1,-1,-3,-2,-8
1532146349220,-4,1,-2,-1,1,-1,-11,-11
1532146349225,2,-4,-1,-2,-3,-1,-1,-4
1532146349230,-23,-3,-3,-4,-1,-3,0,-11
1532146349235,28,1,3,4,3,2,-9,-18
1532146349240,2,1,2,-3,-2,-1,-1,4
1532146349245,1,3,4,0,0,1,-1,-8
1532146349250,-35,-11,-6,-4,-5,-4,2,-1
1532146349255,2,-3,-3,0,0,-3,-7,-6
1532146349260,3,6,9,2,2,0,-4,-2
1532146349265,46,15,2,1,2,1,-2,10
1532146349270,-10,-27,-15,-1,-1,-2,0,2
1532146349275,-6,-9,-5,-4,-1,0,5,8
1532146349280,-5,-2,-5,-1,0,0,5,3
1532146349285,-12,5,2,-3,-2,-2,-1,2
1532146349290,11,2,1,-1,0,1,-1,0
1532146349295,2,3,6,0,-2,0,4,8
1532146349300,-14,-2,-1,-2,1,0,-2,-5
1532146349305,8,-6,-1,-2,-2,0,3,3
1532146349310,17,11,3,0,1,2,0,4
1532146349315,0,-10,-6,0,-2,-2,-7,-10
1532146349320,-1,3,0,-3,-2,-1,4,6
1532146349325,-20,-2,0,-1,-3,-1,-3,-6
1532146349330,18,5,-3,-1,1,0,0,1
1532146349335,-11,5,10,1,0,-1,2,6
1532146349340,-22,-3,-2,-1,-2,-1,1,0
1532146349345,18,-8,-6,1,1,-2,1,2
1532146349350,6,3,0,-1,-1,0,-5,-5
1532146349355,-2,5,8,-2,0,2,5,4
1532146349360,-8,-1,-3,0,-1,-1,0,-1
1532146349365,-1,-1,-2,-1,-1,0,0,2
1532146349370,7,0,-1,-2,-3,-2,-4,0
1532146349375,13,-4,-4,-2,-2,-1,-1,-2
1532146349380,9,8,4,-1,1,1,1,-1
1532146349385,3,3,1,-1,0,-2,1,5
1532146349390,75,19,24,0,0,-1,2,7
1532146349395,-53,-4,-18,-2,-2,-3,-3,-8
1532146349400,10,-8,-4,1,-1,-1,-1,-3
1532146349405,-14,-3,-2,0,-1,1,1,-2
1532146349410,-22,-10,-8,-3,-1,1,0,-3
1532146349415,-1,8,9,1,-2,0,1,3
1532146349420,37,3,0,-5,-1,0,2,5
1532146349425,-37,-7,1,1,0,-1,-1,-4
1532146349430,-22,5,0,0,-2,-3,-6,-11
1532146349435,11,-4,-5,-6,-1,0,0,1
1532146349440,-13,4,10,2,0,-1,-1,-2
1532146349445,-1,9,-2,-1,-2,-1,2,-1
1532146349450,3,-17,-12,0,1,-1,-3,-1
1532146349455,-11,-5,-4,0,-1,-1,1,0
1532146349460,39,-3,-2,-2,-2,-2,0,5
1532146349465,-27,2,5,-2,-1,-2,-5,-8
1532146349470,-7,2,1,3,0,-1,0,-2
1532146349475,-16,-3,-2,-1,-3,-2,-1,1
1532146349480,6,6,-1,-2,-2,0,0,1
1532146349485,-10,0,-1,-1,-2,-1,-1,-3
1532146349490,10,10,-5,1,1,1,2,-2
1532146349495,11,-8,9,2,0,0,1,6
1532146349500,-29,-11,-9,-1,-3,-2,-3,-6
1532146349505,13,-3,-5,-2,0,-1,-2,-1
1532146349510,-21,-5,-3,0,-1,0,-2,-3
1532146349515,15,5,-1,0,0,1,0,0
1532146349520,-12,1,0,0,-1,-1,1,0
1532146349525,7,-7,-4,0,-1,-1,-1,0
1532146349530,3,22,6,0,-1,2,1,1
1532146349535,-16,-29,-4,-1,0,0,0,-2
1532146349540,4,9,-6,-1,0,-1,-2,-2
1532146349545,3,-15,-3,-3,0,1,2,0
1532146349550,-6,-2,-1,0,-2,-3,-1,0
1532146349555,6,30,4,-1,-1,0,-1,2
1532146349560,-16,-59,-2,0,1,-2,-2,-1
1532146349565,16,33,2,-1,0,-1,-3,2
1532146349570,-43,-57,-13,-7,-3,-4,-6,-12
1532146349575,6,0,-6,-2,-1,-3,0,-2
1532146349580,3,0,5,1,1,-1,0,1
1532146349585,-4,15,0,0,-1,1,1,-2
1532146349590,2,-15,1,-1,0,0,1,4
1532146349595,10,23,0,1,1,1,2,2
1532146349600,-4,8,-4,-4,-2,-1,0,1
1532146349605,12,-46,-13,-4,-3,-6,-4,-4
1532146349610,7,21,3,3,1,0,-1,1
1532146349615,1,-11,-4,-1,0,-3,-2,-2
1532146349620,3,-1,-5,-4,-3,0,0,-1
1532146349625,-6,-5,4,2,-1,-2,-1,2
1532146349630,-15,-1,13,5,0,5,8,3
1532146349635,12,11,-2,2,0,-1,-5,-1
1532146349640,5,30,-3,2,1,-1,-3,-1
1532146349645,-9,7,0,-4,0,0,-1,-3
1532146349650,24,16,2,-1,-2,-3,1,13
1532146349655,-16,-42,7,0,-1,1,4,1
1532146349660,4,7,2,-5,-3,-2,-1,-1
1532146349665,-7,22,-15,-2,-3,-2,-5,-6
1532146349670,16,52,21,3,2,0,1,4
1532146349675,1,-33,-10,0,0,-1,-1,0
1532146349680,-2,29,3,3,0,1,-1,-1
1532146349685,2,-70,-12,-5,-3,-1,-3,0
1532146349690,-13,-2,-12,-5,-2,-2,-2,3
1532146349695,1,23,4,0,0,-1,-1,0
1532146349700,-5,-4,1,1,-2,0,0,2
1532146349705,-6,1,10,5,1,3,4,2
1532146349710,5,15,-8,-3,-4,-3,-6,-6
1532146349715,7,9,-4,-3,-1,-1,-2,-6
1532146349720,-11,-35,-4,-1,1,-3,-4,-4
1532146349725,-3,14,5,1,0,-1,2,1
1532146349730,-13,-31,-7,-2,0,0,-2,-2
1532146349735,-5,5,2,-2,0,0,0,1
1532146349740,-13,-9,-2,-2,-2,-1,0,0
1532146349745,-3,-12,-3,-2,0,-1,0,-1
1532146349750,-10,46,1,-4,-1,-4,-6,-9
1532146349755,-8,2,21,-5,-2,-1,0,-2
1532146349760,-3,7,-16,7,3,3,1,4
1532146349765,-1,-28,-4,-2,-1,0,-4,-3
1532146349770,-5,-24,-10,-1,-2,-1,1,-3
1532146349775,8,-2,-3,-3,-3,0,-1,7
1532146349780,0,3,4,-2,-1,-1,4,4
1532146349785,5,21,9,2,-1,1,2,3
1532146349790,11,-16,1,-1,0,1,0,-3
1532146349795,14,4,-3,0,-1,0,-2,3
1532146349800,4,-9,0,-1,0,0,-3,-8
1532146349805,6,6,2,2,0,-1,0,1
1532146349810,6,13,0,-3,0,-3,0,-3
1532146349815,-18,-18,-11,-3,-1,-1,-3,-6
1532146349820,-4,-8,-5,-2,-1,-1,-2,-5
1532146349825,-3,15,7,2,-1,0,0,-4
1532146349830,3,-19,-2,-1,0,0,0,0
1532146349835,8,-6,-7,0,-2,-2,-2,-3
1532146349840,3,21,7,0,0,0,1,0
1532146349845,-2,-22,0,1,1,-1,-2,1
1532146349850,-3,11,-6,-2,0,-1,-2,-2
1532146349855,-5,-1,-8,-2,-2,-2,0,1
1532146349860,-26,13,9,-1,-2,1,2,11
1532146349865,-20,-41,-5,-4,-4,0,-1,-7
1532146349870,4,23,-5,1,-1,0,-1,1
1532146349875,7,0,-2,1,1,-3,-3,-2
1532146349880,10,-15,-6,-2,-1,-2,-1,-4
1532146349885,12,38,2,0,-1,1,0,3
1532146349890,-3,-41,6,2,-2,-1,1,-4
1532146349895,-2,9,1,0,-2,0,3,1
1532146349900,6,-13,-5,-4,-4,-3,-3,-3
1532146349905,5,19,-3,-1,2,1,1,0
1532146349910,0,-11,3,-1,0,1,0,-2
1532146349915,-2,2,3,3,0,1,-3,-5
1532146349920,-1,-11,1,2,-3,-2,-4,-2
1532146349925,-9,5,0,-1,0,1,2,0
1532146349930,-7,7,-3,2,0,-2,-3,2
1532146349935,-20,-5,-2,-1,3,3,3,0
1532146349940,-20,-14,-3,-2,12,-1,-3,-4
1532146349945,5,35,-1,-4,-16,-1,-3,4
1532146349950,-6,-40,0,-2,-3,-2,-3,-2
1532146349955,-7,10,1,1,-7,-2,-4,-2
1532146349960,6,7,-4,-3,-1,-2,1,-1
1532146349965,1,-2,-1,2,11,-2,-4,-1
1532146349970,5,-2,-5,-5,-3,7,5,5
1532146349975,-1,-9,-3,-4,0,-8,-8,-3
1532146349980,-3,27,6,2,-2,2,-1,-2
1532146349985,-28,-67,4,3,2,-2,0,-2
1532146349990,-20,30,-23,-4,-1,2,1,-2
1532146349995,-8,21,23,3,0,0,4,4
1532146350000,-7,3,4,-1,-2,-1,0,10
1532146350005,-4,14,-1,-6,-11,1,0,-8
1532146350010,-27,-25,-2,0,12,-6,-4,-12
1532146350015,-14,-11,-9,0,24,2,4,-11
1532146350020,-4,-2,-6,-7,-37,-12,2,-2
1532146350025,-24,11,6,3,9,16,-8,5
1532146350030,-23,-6,4,-2,-10,0,0,6
1532146350035,-4,11,-9,0,4,1,11,4
1532146350040,8,-3,15,4,3,3,-22,-8
1532146350045,22,-3,-10,-3,-3,-11,-3,-4
1532146350050,23,4,3,-1,4,-4,-11,0
1532146350055,28,-4,-9,-2,-9,3,3,2
1532146350060,33,-7,-9,-1,8,-1,7,-3
1532146350065,20,11,0,-3,-5,-6,0,-1
1532146350070,20,6,6,4,3,2,1,1
1532146350075,-15,-19,-10,-6,-8,-6,-7,-3
1532146350080,0,-5,-7,-3,-2,2,1,-3
1532146350085,1,5,3,1,5,-1,0,-2
1532146350090,24,1,2,-1,-4,0,5,5
1532146350095,23,5,2,2,-3,-1,-3,5
1532146350100,13,9,5,3,8,5,2,-4
1532146350105,9,8,-2,-2,-5,-5,0,0
1532146350110,7,-15,-8,-6,-2,-1,4,-2
1532146350115,22,7,-4,-7,-7,-2,-3,15
1532146350120,-1,-4,2,2,3,-3,-4,-16
1532146350125,-8,0,0,2,1,-5,-4,-12
1532146350130,-9,0,3,1,-2,3,0,-5
1532146350135,-6,11,5,0,-1,-1,1,-3
1532146350140,-1,-20,-18,-5,0,3,5,10
1532146350145,13,11,10,-1,0,-2,0,3
1532146350150,17,-8,0,2,-1,-1,-2,-2
1532146350155,9,3,7,4,1,-3,-2,-2
1532146350160,-9,6,-2,-2,-6,-1,1,5
1532146350165,-23,-2,-16,-6,1,2,1,5
1532146350170,-28,1,-7,-2,5,3,0,-5
1532146350175,-7,1,14,9,-1,2,-1,8
1532146350180,5,3,15,5,0,-4,-6,-9
1532146350185,12,-6,-3,-2,-2,-3,-4,-23
1532146350190,21,3,0,-2,-4,-3,1,4
1532146350195,7,-18,-21,-11,-6,-4,-3,-10
1532146350200,5,-8,-9,-4,-1,-1,0,4
1532146350205,10,4,10,1,-2,3,3,12
1532146350210,0,-2,0,1,0,-3,-3,-3
1532146350215,0,-23,0,0,-1,2,1,-2
1532146350220,4,12,0,2,3,0,-2,5
1532146350225,7,2,-2,0,1,0,4,2
1532146350230,1,-23,6,1,-1,-3,0,3
1532146350235,6,33,-1,-4,-3,-1,-1,-6
1532146350240,-1,-32,3,0,1,2,-2,-5
1532146350245,2,31,-10,-2,-1,-2,0,-2
1532146350250,2,-24,-6,1,-2,-2,-5,-2
1532146350255,6,3,-3,-2,0,1,0,-1
1532146350260,3,21,14,3,-1,1,1,-2
1532146350265,0,-4,3,0,-5,-4,-1,0
1532146350270,1,-11,-7,-8,-3,0,-1,2
1532146350275,-8,-7,-15,-5,-1,-1,-3,-5
1532146350280,-5,-1,-4,4,3,2,1,0
1532146350285,-1,7,14,9,2,-4,2,8
1532146350290,0,7,8,1,-1,4,0,9
1532146350295,-4,-10,-3,-4,-2,-3,-3,-16
1532146350300,-3,0,-14,-11,-4,-4,-1,-10
1532146350305,1,-21,-1,-1,-1,3,3,2
1532146350310,0,12,-1,-1,-1,-4,-3,9
1532146350315,-4,11,4,3,1,0,-6,-17
1532146350320,-2,7,9,4,-1,-1,0,6
1532146350325,-2,-43,-13,-8,-5,-4,0,0
1532146350330,-2,4,-5,-7,-1,-1,1,-2
1532146350335,-1,-10,-6,2,0,0,0,8
1532146350340,-2,3,16,9,2,-1,-3,-2
1532146350345,-3,-3,-1,0,0,-1,-2,2
1532146350350,-5,-1,-10,-5,2,3,-1,-4
1532146350355,8,3,-19,-13,-2,-1,0,1
1532146350360,16,7,-2,0,2,3,4,-2
1532146350365,12,15,26,16,2,2,2,5
1532146350370,32,9,4,4,0,-2,-2,-8
1532146350375,79,-16,-13,-2,3,0,-2,-1
1532146350380,87,4,-19,-11,0,0,0,2
1532146350385,99,-13,-4,-1,2,2,-1,-2
1532146350390,32,50,29,10,-2,-4,-2,-4
1532146350395,-23,-22,5,-1,-3,1,1,6
1532146350400,-59,-9,-7,-8,-1,-4,-2,0
1532146350405,-73,-8,-8,-3,3,5,-2,-3
1532146350410,-34,-3,-3,2,-1,-3,0,-5
1532146350415,-4,-1,1,-4,-3,2,0,0
1532146350420,29,-4,-9,-4,-3,-2,1,2
1532146350425,48,2,-7,-2,0,-1,-1,16
1532146350430,80,-3,-3,-2,0,-1,-3,-30
1532146350435,48,4,13,4,0,-1,0,3
1532146350440,103,-9,1,1,-2,0,0,-1
1532146350445,112,9,-11,-6,0,-4,-1,-1
1532146350450,47,-7,-4,-4,-3,1,1,14
1532146350455,12,-1,8,3,0,-2,-4,-16
1532146350460,-7,2,3,2,0,-1,-2,-2
1532146350465,-29,5,1,1,0,-1,-4,-4
1532146350470,-47,-8,-3,1,-2,-2,1,5
1532146350475,-104,5,2,3,2,-1,-1,10
1532146350480,-128,1,-1,-1,-3,-1,-4,-4
1532146350485,-124,1,-1,-2,-1,0,0,-6
1532146350490,-120,-5,7,-1,0,0,-2,-2
1532146350495,-88,6,-4,0,-3,-1,-1,0
1532146350500,-76,-1,8,5,0,-3,0,1
1532146350505,-50,-7,-13,-8,-2,0,-2,-5
1532146350510,-25,-2,-8,-4,-3,-4,0,-3
1532146350515,16,-3,6,2,2,2,1,5
1532146350520,12,1,-3,1,0,-1,2,4
1532146350525,5,5,1,-2,-3,-3,-1,-8
1532146350530,-26,-17,-14,-7,-2,3,-2,0
1532146350535,-15,2,-7,-3,-2,-2,-2,0
1532146350540,-33,6,16,10,2,1,-1,-1
1532146350545,-49,8,18,10,2,1,2,1
1532146350550,-20,0,-3,-1,-2,-2,-1,5
1532146350555,-19,-14,-8,-8,-4,-3,0,-6
1532146350560,-19,20,-6,-8,-4,-1,-1,8
1532146350565,-33,-61,-35,0,0,-1,-6,-9
1532146350570,-24,3,9,2,1,-1,-3,-8
1532146350575,11,-6,8,3,-3,-1,0,4
1532146350580,-14,-6,-5,-6,0,-3,0,-3
1532146350585,9,15,7,-1,3,2,4,3
1532146350590,8,-3,-2,-3,-4,-2,-2,2
1532146350595,11,2,-12,-1,2,2,1,4
1532146350600,18,-5,6,0,-3,0,1,6
1532146350605,10,10,5,-3,-3,-2,-1,-19
1532146350610,18,2,-3,-1,0,-1,0,-1
1532146350615,3,14,5,4,2,-3,-1,-3
1532146350620,8,-4,-1,5,0,1,-1,1
1532146350625,5,9,14,6,0,2,-1,4
1532146350630,7,-2,-3,-1,0,-3,1,-1
1532146350635,9,-4,-16,-11,-8,-2,0,2
1532146350640,3,-14,-11,-5,1,0,-1,1
1532146350645,11,12,9,2,-1,-1,-2,-9
1532146350650,11,11,18,15,5,1,-2,-1
1532146350655,27,-2,5,2,0,0,0,6
1532146350660,-45,-11,4,-2,-2,0,1,-19
1532146350665,21,35,19,-11,-5,-2,3,22
1532146350670,-6,-15,-11,4,0,-3,-1,-6
1532146350675,-1,28,12,-5,-2,-1,-1,-9
1532146350680,25,-30,-35,1,1,1,-2,0
1532146350685,-9,-13,-15,-7,-6,-1,-1,-2
1532146350690,-18,-5,8,-2,0,4,2,4
1532146350695,5,-30,-1,5,1,-2,-1,1
1532146350700,21,78,8,-1,-4,-4,-4,-6
1532146350705,-19,-27,-9,-1,1,2,5,3
1532146350710,22,9,14,0,-3,1,2,52
1532146350715,-18,22,2,3,-2,-1,-9,-55
1532146350720,18,19,7,-5,-2,-6,-17,-27
1532146350725,-13,42,-3,5,1,0,0,-3
1532146350730,-12,-105,-2,1,4,7,13,8
1532146350735,49,79,-21,-20,-9,-8,-15,20
1532146350740,13,-27,-77,-12,-1,-8,7,8
1532146350745,27,-46,10,4,2,1,-14,-10
1532146350750,-12,-4,1,-2,-4,-8,-24,-71
1532146350755,-41,-45,18,5,-1,4,10,14
1532146350760,6,-9,23,-2,-5,2,6,10
1532146350765,17,-8,-4,1,1,1,13,22
1532146350770,-26,13,-2,0,-2,5,-1,4
1532146350775,18,-13,6,3,3,1,5,1
1532146350780,4,-7,-4,-10,-4,0,5,16
1532146350785,-16,12,37,-8,-2,0,0,-16
1532146350790,8,-3,-63,7,0,-3,-10,-16
1532146350795,2,-25,0,12,4,-2,-2,-1
1532146350800,-11,-5,11,-4,-2,1,2,2
1532146350805,1,-21,-1,-12,-1,-1,1,6
1532146350810,23,89,-7,-9,-2,-1,3,5
1532146350815,-8,-20,-2,19,5,-1,-1,-12
1532146350820,7,-21,15,14,5,3,2,14
1532146350825,-17,-13,-12,-3,-3,-4,-7,-16
1532146350830,10,33,21,-12,-8,-6,3,-3
1532146350835,-11,-18,-13,-12,-3,-2,-1,8
1532146350840,-4,1,7,3,3,5,-3,-12
1532146350845,4,28,5,2,0,-1,-4,1
1532146350850,13,-12,-2,0,3,0,3,12
1532146350855,-3,-4,-2,-4,-2,-1,0,2
1532146350860,1,-6,3,-2,-1,-2,-7,-8
1532146350865,1,7,-15,-4,-4,-2,1,4
1532146350870,0,-15,-4,0,-1,0,1,0
1532146350875,3,-9,6,5,0,1,1,2
1532146350880,-4,35,19,2,1,-2,0,-2
1532146350885,0,-32,-40,2,1,-2,-1,0
1532146350890,8,7,10,-2,2,-3,-1,-1
1532146350895,-20,-6,1,1,1,1,-2,-3
1532146350900,3,7,9,-3,0,-1,3,0
1532146350905,0,-5,-10,-7,-10,-3,2,-4
1532146350910,9,13,26,-1,5,2,4,5
1532146350915,-8,-7,-14,-2,-1,3,4,6
1532146350920,-17,-20,-2,2,2,0,-4,-8
1532146350925,9,10,-6,1,2,-3,-2,-6
1532146350930,30,-13,0,-1,-3,-4,-2,1
1532146350935,4,10,-2,-5,-1,0,-1,3
1532146350940,3,11,15,6,3,3,-1,-1
1532146350945,-13,-24,0,-1,-2,-1,1,1
1532146350950,-11,-27,-13,-11,-6,-1,7,-1
1532146350955,9,50,24,7,4,-3,-1,-1
1532146350960,19,17,-9,-7,-5,-2,-4,0
1532146350965,-1,-18,-23,6,4,-1,-6,2
1532146350970,-15,-3,21,11,0,2,1,-2
1532146350975,-6,-44,-15,-7,-3,-3,0,-2
1532146350980,19,59,-8,-11,-14,-5,-5,-4
1532146350985,0,-17,11,1,12,7,0,1
1532146350990,3,-2,-11,-2,0,-3,-1,0
1532146350995,-23,-20,4,-11,-7,0,5,-1
1532146351000,-20,-35,-29,7,2,-2,-4,-1
1532146351005,14,23,-1,-4,-6,-2,-5,-2
1532146351010,2,0,-9,1,-2,0,-1,-1
1532146351015,7,4,-7,-3,4,-1,-1,1
1532146351020,-32,-25,56,11,-1,2,1,-4
1532146351025,10,31,-5,-2,-5,-5,-4,0
1532146351030,-16,-63,-24,-6,-6,-7,-6,-6
1532146351035,2,13,4,3,0,3,0,-2
1532146351040,15,11,11,1,3,2,-1,2
1532146351045,-6,-24,10,3,2,0,0,-2
1532146351050,9,26,12,0,-4,-1,0,-1
1532146351055,10,31,-3,-10,-8,-2,-2,-3
1532146351060,-3,-67,-18,-6,0,-2,1,-1
1532146351065,10,40,11,-4,-4,-2,3,0
1532146351070,-14,-14,-27,6,4,-2,-8,1
1532146351075,6,-14,4,3,0,0,-2,1
1532146351080,-8,4,-6,0,0,-2,2,2
1532146351085,-8,-18,-16,-5,-6,-12,-2,-2
1532146351090,1,3,4,-7,1,7,1,3
1532146351095,5,11,2,2,4,0,0,2
1532146351100,5,-5,-2,4,-3,-3,0,1
1532146351105,0,22,2,3,2,4,1,3
1532146351110,1,13,9,-2,0,0,0,0
1532146351115,8,-12,-5,-3,6,1,-1,0
1532146351120,2,26,-6,-8,-3,-8,-1,0
1532146351125,-16,-10,7,5,-1,9,1,-1
1532146351130,0,8,1,-2,0,-1,0,0
1532146351135,7,14,-1,1,-8,1,0,-2
1532146351140,1,-6,-9,-4,4,1,-1,-3
1532146351145,-4,-4,-2,-3,-2,-6,-4,0
1532146351150,0,4,4,3,0,3,1,-1
1532146351155,-4,-8,2,-4,-6,-6,-1,0
1532146351160,-9,-25,-9,1,3,7,1,0
1532146351165,4,5,0,0,-4,-4,-1,-2
1532146351170,1,1,3,-1,1,0,0,1
1532146351175,-1,3,3,0,-3,-3,1,0
1532146351180,3,-2,7,-2,3,2,-4,-3
1532146351185,1,-3,-6,0,-1,0,-2,-4
1532146351190,-3,1,1,1,-4,-4,2,0
1532146351195,-4,11,-3,-2,3,1,-2,-3
1532146351200,7,7,-10,0,-3,-1,2,3
1532146351205,0,-29,16,-3,-5,-1,-1,0
1532146351210,-3,6,-11,-1,0,-1,-4,0
1532146351215,-7,-4,4,0,-3,-1,0,-1
1532146351220,-6,0,-8,-4,-7,-3,-2,2
1532146351225,2,9,3,0,7,2,0,-4
1532146351230,1,0,-2,-4,-2,-2,-2,4
1532146351235,-3,-2,8,7,1,2,0,-5
1532146351240,16,27,4,0,0,-2,2,-3
1532146351245,-5,-13,11,3,-2,2,2,3
1532146351250,11,6,1,-4,-2,-4,-3,3
1532146351255,-8,5,-9,-6,1,-4,-3,-7
1532146351260,-5,-2,-1,0,-2,-2,-1,-4
1532146351265,4,6,1,-1,-1,-2,1,-2
1532146351270,-17,-25,-11,7,1,0,1,2
1532146351275,3,-6,-8,-4,-3,-3,-4,-1
1532146351280,-7,-11,-2,-4,2,-1,-2,-5
1532146351285,3,18,11,-6,0,2,-1,-1
1532146351290,-10,9,11,2,-3,-2,1,8
1532146351295,12,14,1,-1,-3,0,-1,2
1532146351300,7,-11,-6,-3,-2,-9,-4,-3
1532146351305,3,12,2,8,5,7,3,2
1532146351310,-1,10,-8,-10,-4,-1,1,-7
1532146351315,-9,-36,11,4,1,0,0,2
1532146351320,0,-4,-3,0,0,2,2,6
1532146351325,-4,4,-8,-3,-5,-5,-3,-7
1532146351330,5,-3,0,2,-1,2,0,-4
1532146351335,0,12,4,1,1,-1,1,1
1532146351340,-6,-16,-5,-2,-2,0,-2,-2
1532146351345,-11,-1,-7,0,-2,-3,-2,-4
1532146351350,-4,-35,4,5,2,2,-1,-4
1532146351355,8,43,6,0,3,0,-1,0
1532146351360,11,-11,-4,1,0,1,-1,7
1532146351365,-21,-24,-13,-8,-2,-5,-1,6
1532146351370,7,36,12,-1,1,4,0,-6
1532146351375,-2,1,-2,6,0,-2,2,-8
1532146351380,-19,-39,-26,-13,-5,-2,-3,-3
1532146351385,9,9,34,-2,-2,-2,-2,-8
1532146351390,7,-18,-25,-3,-4,-6,-4,7
1532146351395,0,-3,-10,-8,-1,4,1,1
1532146351400,15,7,16,11,3,-1,-2,-3
1532146351405,6,12,-1,1,0,1,3,5
1532146351410,-4,0,9,-1,2,-7,-3,-1
1532146351415,-3,-15,-8,0,-1,2,1,2
1532146351420,-12,3,-3,-8,-5,-6,3,-2
1532146351425,2,11,-5,-5,-2,-2,1,8
1532146351430,-10,-6,-4,-8,1,-1,-2,-8
1532146351435,-14,-47,-15,4,-3,-5,0,0
1532146351440,5,18,14,0,-2,2,0,3
1532146351445,-21,19,-2,4,-1,-1,-5,-7
1532146351450,5,1,1,-3,3,-1,0,1
1532146351455,11,5,0,1,-2,-4,-2,2
1532146351460,-13,-7,-4,3,1,0,1,1
1532146351465,11,-14,11,-1,-4,-9,-5,1
1532146351470,-12,11,3,0,0,4,2,-4
1532146351475,10,14,0,-6,-6,-8,-6,-2
1532146351480,-4,1,-3,2,0,3,2,3
1532146351485,1,-12,-18,-7,-3,-2,-5,-9
1532146351490,-6,-4,-1,-2,-5,1,-2,-7
1532146351495,1,6,0,-4,1,0,-2,-6
1532146351500,-7,-2,22,3,-1,-3,-4,0
1532146351505,-1,-20,-25,0,-1,-1,3,6
1532146351510,-6,-16,3,4,2,6,-1,-3
1532146351515,16,4,-18,-9,-4,-1,-3,2
1532146351520,11,37,7,2,7,0,2,1
1532146351525,0,-3,6,2,1,1,-2,-10
1532146351530,15,24,19,-7,-3,1,3,-1
1532146351535,-17,-44,-18,6,0,-4,-3,6
1532146351540,-7,0,-21,-9,-5,0,1,-6
1532146351545,1,-1,4,2,3,1,0,3
1532146351550,0,26,-4,-4,-1,-4,-3,3
1532146351555,-1,0,9,6,4,4,0,-5
1532146351560,-17,-30,-13,-4,-5,-6,-2,2
1532146351565,-3,-6,-12,-6,-1,2,-1,-7
1532146351570,8,6,12,2,-1,-5,-2,-5
1532146351575,4,-7,1,-1,1,0,-2,-5
1532146351580,-14,-17,0,4,-2,-4,-3,-4
1532146351585,-6,41,-1,-5,-5,-3,0,4
1532146351590,-2,-14,-9,-2,-1,-2,1,7
1532146351595,-11,-10,0,-5,-3,-3,-1,-12
1532146351600,15,29,16,8,5,0,4,5
1532146351605,9,10,-3,2,3,6,0,3
1532146351610,-13,-36,0,-1,-3,-4,-5,-7
1532146351615,8,11,-6,-6,-2,0,0,5
1532146351620,10,19,10,-3,-1,-2,0,1
1532146351625,-2,-14,5,10,4,2,-1,3
1532146351630,-3,-6,-19,-2,-2,-3,-1,-4
1532146351635,2,4,7,-1,-3,-4,1,1
1532146351640,-9,-2,-12,2,0,1,-2,-3
1532146351645,-7,-16,17,2,-1,3,3,1
1532146351650,-7,-10,-3,-5,-1,-5,-3,0
1532146351655,-1,-14,3,2,-1,0,-2,-6
1532146351660,6,-5,-12,-5,-3,2,1,8
1532146351665,3,9,0,1,-1,-2,1,3
1532146351670,6,12,-1,0,-1,5,-3,-7
1532146351675,-5,11,5,-2,-2,-1,-1,-2
1532146351680,9,-12,4,-1,2,3,-3,-3
1532146351685,0,-15,-9,-3,0,1,2,1
1532146351690,-13,4,-3,-1,-2,-7,0,0
1532146351695,-6,2,1,-1,-2,0,0,5
1532146351700,4,2,2,2,0,6,-1,-10
1532146351705,3,0,-6,-3,-3,-3,0,2
1532146351710,5,12,0,-3,0,1,0,-7
1532146351715,-16,-14,-6,5,0,0,-1,-2
1532146351720,-16,1,-10,2,1,-1,1,0
1532146351725,11,-12,11,3,-4,-5,-4,-1
1532146351730,12,-2,-3,0,0,-4,-2,1
1532146351735,0,-3,-3,-4,1,-1,1,4
1532146351740,-1,2,4,-3,-4,-1,-3,-4
1532146351745,-6,6,-9,-4,0,0,1,-1
1532146351750,2,-1,2,3,3,3,2,2
1532146351755,4,-3,4,0,-1,-3,1,0
1532146351760,-17,-2,-6,-6,-2,-2,0,0
1532146351765,-5,-2,2,0,1,3,-1,4
1532146351770,13,-1,-6,1,1,-1,0,-4
1532146351775,-1,2,2,-1,1,3,1,2
1532146351780,-4,6,11,0,-2,-2,-2,-5
1532146351785,2,-18,-18,-7,-5,-3,-4,-5
1532146351790,0,3,-9,3,-2,-1,0,1
1532146351795,4,-6,9,0,3,2,1,0
1532146351800,7,4,-8,-3,0,-3,-3,-1
1532146351805,-11,0,1,-3,-2,-2,0,-1
1532146351810,8,6,2,-2,0,0,1,7
1532146351815,-6,2,-2,-3,-2,0,0,6
1532146351820,-10,-12,-7,-2,-4,1,2,-15
1532146351825,15,8,5,7,5,-3,-7,-7
1532146351830,2,0,0,-4,-4,-2,-3,0
1532146351835,8,4,-2,-3,-2,1,1,3
1532146351840,20,9,2,2,4,1,0,5
1532146351845,-31,-1,2,0,-3,0,3,-5
1532146351850,7,-7,2,1,0,-2,0,-2
1532146351855,2,3,-4,-2,-2,-1,-3,-1
1532146351860,-3,-13,-3,-3,-2,0,1,2
1532146351865,-7,0,1,-1,1,0,2,4
1532146351870,-1,-4,-4,-4,-1,0,-2,-7
1532146351875,-10,4,-1,1,-1,0,1,-3
1532146351880,3,-19,-5,-1,-2,-2,-2,-2
1532146351885,8,5,0,-1,-1,1,2,-1
1532146351890,-3,3,0,-3,-3,-2,-2,0
1532146351895,6,0,0,-3,4,-2,-2,-3
1532146351900,0,4,2,9,3,2,2,3
1532146351905,2,1,7,-2,-1,0,0,-2
1532146351910,6,-11,-1,6,0,-1,-2,2
1532146351915,-3,3,-4,-1,-3,-2,-3,-4
1532146351920,-15,-6,-5,-7,1,-3,-2,3
1532146351925,-1,4,-16,-6,-3,-1,2,-5
1532146351930,-10,3,13,3,2,2,1,4
1532146351935,56,0,3,0,-1,1,2,2
1532146351940,-51,-12,-14,-7,-5,-5,-7,-6
1532146351945,31,41,2,-2,-1,-1,4,16
1532146351950,-6,-10,-2,-1,1,1,3,-8
1532146351955,1,-11,0,3,-2,-4,-6,3
1532146351960,57,12,10,-2,0,6,3,5
1532146351965,-34,-24,-2,2,1,-4,-8,-15
1532146351970,16,3,-1,-3,-3,0,1,3
1532146351975,-23,6,-5,-4,-1,0,3,1
1532146351980,30,17,14,0,-1,-2,1,-2
1532146351985,-22,-37,-20,-1,1,0,-2,-5
1532146351990,22,19,9,0,-1,0,1,10
1532146351995,-14,-43,-16,-6,-3,-4,-4,-7
1532146352000,-12,20,-9,-3,-3,0,1,-2
1532146352005,12,3,7,1,2,0,-2,5
1532146352010,-7,-9,-13,-3,0,-2,-3,-7
1532146352015,-6,10,3,-1,-3,-1,2,3
1532146352020,1,-5,9,4,2,-1,-6,5
1532146352025,-12,-13,-9,-7,-5,-1,-4,-9
1532146352030,23,4,3,2,1,1,1,2
1532146352035,4,4,-3,-5,-4,-2,-2,-7
1532146352040,6,-12,0,5,1,-2,1,-1
1532146352045,11,10,16,10,4,2,3,4
1532146352050,-19,3,3,1,-2,1,-3,-6
1532146352055,-17,-3,-6,-5,-3,0,-1,6
1532146352060,-13,-4,-6,-1,-3,0,-1,-9
1532146352065,-5,-5,-1,-6,-4,-4,0,-5
1532146352070,-8,16,-2,-1,-1,-2,0,-3
1532146352075,-10,-2,18,13,7,1,-1,-5
1532146352080,-8,-11,-2,-5,-2,-2,-1,5
1532146352085,6,6,1,0,0,-2,-1,1
1532146352090,-29,-19,-8,-5,-3,-3,-1,0
1532146352095,1,9,2,1,2,1,-1,3
1532146352100,-12,-16,-4,-3,-3,-1,-1,-9
1532146352105,1,4,6,0,1,-2,-3,-4
1532146352110,5,7,-3,-4,-4,0,-1,9
1532146352115,-11,-2,8,8,4,1,4,-10
1532146352120,-1,3,5,0,1,0,-3,0
1532146352125,-2,6,-1,1,-1,-2,4,5
1532146352130,1,-9,-7,-5,-3,-2,4,3
1532146352135,-9,0,-9,-8,-5,-3,-17,-6
1532146352140,4,13,9,4,3,2,1,1
1532146352145,1,-4,3,4,1,1,-5,5
1532146352150,-1,1,-3,-3,1,-1,4,-10
1532146352155,-2,-5,-10,-6,-6,-1,2,-1
1532146352160,-4,-4,-2,0,1,1,-6,-4
1532146352165,5,0,-6,-6,-6,1,-1,7
1532146352170,-3,0,5,6,2,1,5,-6
1532146352175,1,4,3,-3,-3,-1,1,1
1532146352180,7,1,1,3,2,-3,-2,8
1532146352185,-3,-3,3,-1,-4,1,2,1
1532146352190,3,1,-3,-5,-1,-1,-7,0
1532146352195,-5,-9,-13,-5,-2,-4,1,-7
1532146352200,3,4,0,2,2,2,4,3
1532146352205,2,-9,2,1,1,2,4,-5
1532146352210,-2,1,-1,-2,-1,-6,-14,-4
1532146352215,0,1,6,4,1,1,1,1
1532146352220,2,-2,1,-1,-3,1,8,5
1532146352225,-7,-2,-6,-5,-1,-2,-3,-8
1532146352230,-1,-5,-8,-1,-4,1,-3,0
1532146352235,13,18,15,7,10,1,2,6
1532146352240,-10,-1,3,-2,-5,-2,-1,1
1532146352245,-11,-8,-5,-2,-1,1,-3,-4
1532146352250,-11,-11,-3,-1,-5,0,2,-3
1532146352255,4,0,-12,-5,-5,-2,-3,-5
1532146352260,10,0,-2,0,-1,-1,-4,0
1532146352265,6,14,8,2,2,-1,-2,2
1532146352270,-18,-19,-3,0,1,1,-1,-14
1532146352275,2,0,-2,-2,-2,1,3,-1
1532146352280,2,-11,-8,-7,-4,-4,-5,-8
1532146352285,1,1,-2,2,3,-4,-1,5
1532146352290,6,10,1,1,2,2,0,3
1532146352295,-4,-4,0,-3,-1,-2,-2,0
1532146352300,-6,-6,-9,-5,-4,-1,0,0
1532146352305,-10,-10,-9,-3,-3,0,-1,-12
1532146352310,9,7,9,3,1,-1,-1,0
1532146352315,2,6,3,1,1,0,-2,3
1532146352320,-12,-11,-5,-3,-2,-2,-6,-3
1532146352325,6,9,-1,1,0,2,10,5
1532146352330,-12,0,8,3,0,-1,-2,3
1532146352335,11,-6,-3,-3,-7,-3,4,0
1532146352340,-1,2,-4,-1,1,3,8,-6
1532146352345,7,1,-3,-3,-3,-12,-41,-5
1532146352350,1,9,1,-2,-2,0,6,3
1532146352355,-2,10,3,4,3,0,-5,6
1532146352360,2,-16,-5,0,-2,-2,1,-7
1532146352365,2,1,-2,-1,-1,1,6,1
1532146352370,8,1,-5,-4,-3,0,2,10
1532146352375,-11,-8,-8,-4,-1,-1,-2,-1
1532146352380,7,13,12,5,4,0,-11,0
1532146352385,-5,1,1,-4,-2,2,4,-12
1532146352390,-6,-7,-1,-1,-2,-7,-6,-2
1532146352395,5,1,-4,-1,-2,3,6,6
1532146352400,7,13,4,-1,2,0,1,16
1532146352405,27,16,-4,0,-2,-4,3,17
1532146352410,-54,-33,-6,-6,-2,2,0,-6
1532146352415,-9,-5,-3,-2,-2,-1,-5,-3
1532146352420,-18,-6,0,-1,-2,-3,-2,2
1532146352425,4,3,-1,0,1,-1,1,8
1532146352430,36,13,-1,-3,-4,-3,1,7
1532146352435,3,-11,8,5,4,3,-2,-2
1532146352440,-14,-12,-4,-3,-4,-1,-5,-1
1532146352445,1,5,9,4,2,2,9,4
1532146352450,5,5,2,7,8,4,-1,-6
1532146352455,-17,-8,1,-5,-3,4,1,-8
1532146352460,21,11,-2,0,-2,-2,-2,-9
1532146352465,-14,-10,-3,-1,-2,2,-1,-4
1532146352470,11,2,-1,-3,0,-3,-3,7
1532146352475,-1,6,-4,-2,-1,0,1,3
1532146352480,3,-5,-3,-3,-3,-11,-6,-3
1532146352485,-10,-15,-11,-8,-6,-2,11,-9
1532146352490,7,-3,8,10,4,1,-2,2
1532146352495,9,-3,-4,-2,0,7,5,0
1532146352500,2,5,-2,5,3,6,-2,-4
1532146352505,7,-2,9,2,0,-3,-6,-3
1532146352510,0,1,-4,-2,-2,0,0,0
1532146352515,10,0,-4,-2,0,1,-6,-16
1532146352520,-1,0,4,2,1,-1,-3,-1
1532146352525,-2,0,-2,-2,-3,-7,-7,-5
1532146352530,-21,-19,-7,-3,-4,-1,4,2
1532146352535,18,1,-5,-5,-3,-2,0,14
1532146352540,8,10,-2,1,1,-1,-5,-6
1532146352545,10,3,-2,-1,-2,-4,-2,3
1532146352550,0,5,7,6,8,4,-1,7
1532146352555,0,-6,-1,-1,-1,-3,-4,9
1532146352560,-8,-13,-10,-7,-7,-4,3,-8
1532146352565,13,17,9,6,4,1,-5,0
1532146352570,-17,-10,-5,-2,-3,-1,0,-6
1532146352575,-2,7,1,-1,-1,-1,0,1
1532146352580,4,2,-1,-5,-2,-2,-1,3
1532146352585,-13,-17,-12,-4,-2,-4,0,-2
1532146352590,7,6,5,-5,-3,1,2,12
1532146352595,-14,0,-1,1,1,-1,-2,-6
1532146352600,9,-3,-1,3,2,-1,-4,-3
1532146352605,-4,-3,4,2,2,1,1,0
1532146352610,-5,-7,-4,-3,-2,-4,-1,-7
1532146352615,-4,5,0,0,0,1,1,7
1532146352620,-8,-8,-2,-5,-3,0,1,-3
1532146352625,-1,16,3,3,5,0,-3,-7
1532146352630,2,-19,-8,0,-1,-2,-3,-10
1532146352635,-8,-6,-5,-4,-5,-2,2,-2
1532146352640,-1,2,-1,5,5,2,-3,4
1532146352645,14,12,4,1,-1,-1,-2,5
1532146352650,-3,9,-2,-3,-2,0,2,0
1532146352655,-9,-2,4,0,0,1,1,-2
1532146352660,-25,-15,-14,-5,-2,-1,-4,-10
1532146352665,8,15,6,0,0,-3,1,-2
1532146352670,-7,3,6,-1,-1,0,0,2
1532146352675,13,11,2,1,-3,-2,-1,3
1532146352680,-6,-12,2,-3,-2,-3,-2,1
1532146352685,-10,0,-2,1,0,0,0,0
1532146352690,5,-1,-2,-3,-1,-1,-2,-2
1532146352695,-20,-13,-4,-4,-2,1,3,-2
1532146352700,21,16,4,2,3,1,2,3
1532146352705,1,2,1,3,1,-2,-2,-1
1532146352710,-3,1,-2,-3,-2,0,0,-2
1532146352715,-5,-9,-3,-1,-1,0,-4,-5
1532146352720,8,-6,1,-2,-2,0,1,0
1532146352725,-49,-13,-5,-7,-6,-1,-1,-6
1532146352730,14,24,-7,-6,-7,-4,1,0
1532146352735,5,-5,1,6,8,0,-6,-5
1532146352740,5,9,7,-1,-2,-3,0,-4
1532146352745,0,-12,-1,0,0,-1,0,11
1532146352750,5,15,7,0,-1,-1,1,-3
1532146352755,-13,-23,-12,-3,-4,-2,-1,-8
1532146352760,-5,2,-3,-2,-1,-1,2,4
1532146352765,2,-2,1,-1,0,2,0,9
1532146352770,-10,-2,-4,-1,-1,0,-3,-13
1532146352775,-10,-9,2,1,0,-1,-1,-3
1532146352780,7,1,1,0,-2,1,-2,-1
1532146352785,7,6,-5,-4,-2,-3,-3,-2
1532146352790,9,-9,-4,-2,-2,-3,-1,0
1532146352795,-1,3,-1,1,0,-3,-1,-1
1532146352800,-12,2,4,3,1,1,0,-3
1532146352805,-9,-7,0,-2,-1,1,0,7
1532146352810,12,-1,0,1,1,0,-1,1
1532146352815,0,-2,-5,-5,-5,-2,2,-2
1532146352820,-10,1,-5,0,-2,-3,-3,-5
1532146352825,9,1,3,0,-1,-1,-1,-7
1532146352830,-5,-8,1,1,4,0,-2,1
1532146352835,0,5,2,-1,-2,1,-1,0
1532146352840,10,7,-4,-2,-2,1,1,1
1532146352845,-19,-11,-3,-2,-2,-1,0,-2
1532146352850,-15,-15,-5,1,-1,-4,-3,-1
1532146352855,11,0,-3,-4,-2,-2,-1,1
1532146352860,0,-4,0,-1,-3,1,-2,0
1532146352865,2,-4,-3,-4,-2,-1,0,1
1532146352870,-2,4,0,-2,-1,0,-1,5
1532146352875,-3,2,2,0,2,1,0,3
1532146352880,9,1,-1,-3,-2,-2,-2,-1
1532146352885,13,6,-1,2,2,-1,-2,-7
1532146352890,8,1,-1,0,-1,-1,1,-1
1532146352895,-12,0,2,2,1,-1,0,0
1532146352900,0,3,-3,-4,-2,-1,1,1
1532146352905,0,15,3,2,3,0,0,-4
1532146352910,-7,-20,-2,-1,-1,0,-2,3
1532146352915,8,8,2,1,0,1,-1,-6
1532146352920,-8,-5,-4,-4,-1,-1,1,-4
1532146352925,7,1,1,1,-2,-2,5,-2
1532146352930,-6,2,-2,0,1,0,-1,-5
1532146352935,3,3,1,-1,-2,-1,-2,-4
1532146352940,-3,-5,-2,0,-6,-3,-3,-3
1532146352945,0,-6,-4,0,7,1,0,-7
1532146352950,2,1,1,-1,1,0,16,-1
1532146352955,-2,-1,0,1,0,-1,-16,-2
1532146352960,-2,4,0,0,-2,2,0,-1
1532146352965,-3,-13,-4,-3,-3,-3,-4,2
1532146352970,6,9,-1,-1,-4,-2,-8,7
1532146352975,-8,-15,-4,-2,-2,3,21,5
1532146352980,2,1,7,1,4,-1,-4,7
1532146352985,-2,2,-4,-4,-4,1,-2,1
1532146352990,13,10,1,-1,1,0,0,2
1532146352995,-3,6,4,3,-4,-2,-1,2
1532146353000,-30,-16,-2,-2,1,-1,-6,-4
1532146353005,3,-10,-3,-2,-2,1,5,-2
1532146353010,5,4,-1,0,-2,-2,-6,0
1532146353015,7,5,-4,-3,-3,-1,0,0
1532146353020,8,3,1,3,13,-3,0,-4
1532146353025,-9,2,4,2,0,0,-3,1
1532146353030,-9,-5,-3,-2,-5,-1,-2,-29
1532146353035,-3,-3,1,1,2,-2,-1,-7
1532146353040,4,5,-1,0,-5,-1,2,7
1532146353045,-4,-7,-6,-5,-3,-3,-3,-3
1532146353050,3,0,0,2,5,-1,0,12
1532146353055,1,3,1,0,-1,0,-2,-3
1532146353060,6,11,1,0,-2,0,0,-6
1532146353065,-8,-9,-2,-2,-1,-1,-3,3
1532146353070,-1,-1,-2,-2,-2,-1,-1,6
1532146353075,-2,-18,-7,-6,-1,-3,-1,4
1532146353080,21,13,-2,-2,-2,-2,-1,6
1532146353085,4,4,3,2,0,1,0,-1
1532146353090,-6,0,3,-1,-1,-2,0,4
1532146353095,-3,0,0,-1,0,-1,-1,12
1532146353100,-6,-4,1,-1,-1,2,0,0
1532146353105,18,15,-4,-2,-1,-2,0,2
1532146353110,-32,-28,3,0,0,2,-1,-4
1532146353115,6,20,-10,-3,0,-1,-1,-1
1532146353120,-18,-18,1,1,-3,0,0,-5
1532146353125,12,13,-6,-3,-4,-4,-5,-5
1532146353130,-4,5,0,0,1,0,1,2
1532146353135,-6,-4,3,-1,-5,-2,0,-2
1532146353140,-13,5,3,1,7,1,0,3
1532146353145,-27,-18,1,-1,-3,1,2,-3
1532146353150,15,6,-5,-1,0,-2,-3,8
1532146353155,-4,1,2,1,-1,-1,-2,-6
1532146353160,13,2,-5,-1,-4,-2,-1,-3
1532146353165,7,-9,-2,0,0,-1,0,3
1532146353170,2,-12,-2,-3,-2,0,-1,-3
1532146353175,10,4,1,-1,0,-2,-3,1
1532146353180,-3,-4,0,0,-3,1,1,-8
1532146353185,-8,0,2,0,1,0,-2,-2
1532146353190,-3,-7,-4,-3,-5,-2,-1,-2
1532146353195,3,4,0,-1,-2,0,0,1
1532146353200,0,-4,-4,-4,1,1,1,1
1532146353205,-7,-15,-1,2,0,0,-1,-1
1532146353210,2,16,-1,-2,-4,1,0,3
1532146353215,6,-1,-5,-2,-2,-7,-5,-11
1532146353220,-7,10,0,1,0,-1,-1,-2
1532146353225,-10,-6,1,1,6,2,-4,-4
1532146353230,-5,-3,3,-1,-2,2,0,-8
1532146353235,-16,-10,0,0,-2,0,1,-1
1532146353240,6,9,-1,-2,-7,-2,-1,1
1532146353245,10,-13,-8,-2,-3,-1,0,-2
1532146353250,8,8,2,0,2,0,-1,1
1532146353255,4,0,4,1,6,1,0,0
1532146353260,4,-4,0,0,-3,0,-2,-1
1532146353265,6,11,5,1,-2,0,2,2
1532146353270,9,4,-4,-2,-2,-2,-3,-3
1532146353275,-6,-5,1,-1,-11,-1,1,-2
1532146353280,-4,-6,0,-1,21,2,-1,0
1532146353285,2,10,-5,-3,-11,-5,-4,-3
1532146353290,-3,3,1,2,24,4,2,-1
1532146353295,6,3,-2,0,-26,-5,-4,0
1532146353300,-7,-13,1,2,10,-2,-4,3
1532146353305,2,-1,-2,-2,-8,-3,0,-1
1532146353310,0,14,0,1,-4,-2,-3,0
1532146353315,-5,-24,0,-1,12,5,0,3
1532146353320,6,-3,-4,-3,-5,-1,0,0
1532146353325,7,8,-6,-5,-4,1,0,-6
1532146353330,-5,-4,0,0,-1,-3,-3,0
1532146353335,2,3,0,-1,0,1,-1,-2
1532146353340,4,-2,-4,-2,-9,-1,-1,1
1532146353345,-8,1,2,-1,4,3,0,5
1532146353350,2,-18,-4,-1,-3,-2,-1,-7
1532146353355,0,9,-1,2,3,2,-2,1
1532146353360,9,-10,0,-2,-8,-4,0,-1
1532146353365,-6,-3,-2,-3,7,2,-2,-2
1532146353370,-2,2,-2,2,-7,0,-1,0
1532146353375,-4,1,-1,0,6,-2,-2,-1
1532146353380,-4,2,4,1,-3,-1,0,0
1532146353385,4,-8,-2,-1,-1,-3,0,0
1532146353390,3,-2,-2,-3,-7,-3,0,2
1532146353395,0,-1,-3,0,6,0,1,-4
1532146353400,3,-8,-2,-2,-2,-1,-1,-1
1532146353405,-8,1,-7,-4,-5,-2,-3,-4
1532146353410,-5,-10,8,2,-1,2,3,4
1532146353415,10,-20,-10,-3,3,-2,-4,-7
1532146353420,7,20,2,2,-1,-2,1,-5
1532146353425,-1,-15,3,-1,-4,-1,0,0
1532146353430,8,-1,-3,-2,-1,-3,-2,1
1532146353435,-1,12,0,0,2,3,2,16
1532146353440,-2,2,0,1,-3,0,-1,-11
1532146353445,-1,-3,0,-3,-3,-4,-3,-4
1532146353450,-3,2,-1,-1,-5,1,2,2
1532146353455,-3,1,0,-3,-4,1,-1,2
1532146353460,6,1,-11,-5,1,-5,-1,3
1532146353465,3,14,9,7,3,3,2,1
1532146353470,-4,-6,2,0,0,-1,-1,-4
1532146353475,-3,5,-3,1,2,-1,-1,-7
1532146353480,-5,-9,-2,-2,-3,2,0,-3
1532146353485,-3,5,4,2,1,-2,0,0
1532146353490,14,-4,-6,-4,-8,-3,-3,1
1532146353495,-12,-7,2,-1,8,-2,-1,-2
1532146353500,-3,1,-3,1,-7,-1,-1,2
1532146353505,5,3,0,-1,1,1,2,4
1532146353510,2,0,0,0,2,1,-2,2
1532146353515,-2,5,-2,-3,-5,-2,0,-1
1532146353520,-13,-20,8,3,0,3,1,-4
1532146353525,-5,8,-3,0,-1,-3,-3,-5
1532146353530,3,8,-7,-3,-3,-4,2,4
1532146353535,-3,-2,-2,1,2,3,-1,1
1532146353540,-5,43,17,3,1,2,-1,6
1532146353545,-6,-40,-5,1,-3,-1,-5,-13
1532146353550,-2,6,-1,-1,1,-1,-1,-4
1532146353555,2,4,-3,-4,-4,-3,0,1
1532146353560,2,-14,-8,-2,0,0,1,4
1532146353565,5,14,0,1,2,0,1,4
1532146353570,-1,-1,-3,-2,1,1,-1,3
1532146353575,6,-5,-1,-2,-4,-2,-2,-4
1532146353580,9,22,3,0,-2,0,0,2
1532146353585,-17,-20,-5,-2,1,-1,-5,-3
1532146353590,-5,-8,-7,-3,-3,-3,-1,-2
1532146353595,3,8,8,5,0,-1,-1,3
1532146353600,-10,-6,-3,-3,0,-2,-2,4
1532146353605,8,14,-3,-2,-1,-2,2,-8
1532146353610,-13,-10,4,-1,3,4,0,-3
1532146353615,-6,-9,-1,2,-1,-2,12,29
1532146353620,8,3,2,1,0,3,-9,9
1532146353625,-2,-2,-4,-4,-4,-5,-12,-66
1532146353630,-11,4,-5,0,0,-5,-5,-8
1532146353635,-1,-5,1,0,-2,-2,-4,-8
1532146353640,-7,-18,-6,-5,-2,-2,5,11
1532146353645,9,22,4,-1,0,4,8,33
1532146353650,-5,-24,1,-1,0,1,-1,-7
1532146353655,4,6,-1,-4,-3,-2,-3,-5
1532146353660,4,0,-10,-3,0,0,3,4
1532146353665,2,22,6,6,3,2,-2,6
1532146353670,-7,-37,1,1,-2,1,0,-3
1532146353675,16,37,-1,-3,0,-1,-1,0
1532146353680,-12,-14,-4,-3,-5,-1,-2,-12
1532146353685,2,-2,0,-2,2,0,0,7
1532146353690,0,3,2,2,1,-2,0,4
1532146353695,0,-17,0,2,1,2,15,31
1532146353700,4,3,3,0,0,3,-16,-18
1532146353705,-7,-10,-1,3,-6,-10,-16,-71
1532146353710,-1,5,-2,-3,-1,-2,0,6
1532146353715,-1,1,-3,1,-3,-1,-6,-13
1532146353720,-4,4,2,1,-1,0,5,11
1532146353725,0,-11,1,0,1,3,6,32
1532146353730,-10,8,-1,-1,-2,1,-2,-10
1532146353735,-3,-9,-7,-5,-3,-2,-2,-9
1532146353740,-1,-10,-6,-3,0,-2,1,-1
1532146353745,2,9,3,0,0,2,0,12
1532146353750,1,-25,-1,-1,-5,1,0,-5
1532146353755,-9,-1,-2,-1,7,-1,-2,3
1532146353760,-5,-6,0,1,-4,-1,-1,-8
1532146353765,3,-3,-4,-7,0,2,4,8
1532146353770,11,31,1,1,-3,2,0,6
1532146353775,-1,-16,5,8,5,2,-5,-14
1532146353780,4,-3,-2,0,0,-2,0,-7
1532146353785,3,-2,-5,-4,0,-1,3,14
1532146353790,4,8,-4,-4,-2,1,1,1
1532146353795,-6,-5,3,-1,-4,-1,-2,-10
1532146353800,12,6,-6,-2,-3,-7,0,-4
1532146353805,0,-9,-7,-3,-3,0,5,11
1532146353810,9,15,6,3,3,0,-4,2
1532146353815,-3,0,5,-3,-2,-1,-2,-8
1532146353820,-4,1,-1,-2,-1,-3,-2,0
1532146353825,-6,-9,-3,1,-1,-1,-1,-10
1532146353830,-1,-1,-4,-3,-3,-3,1,-1
1532146353835,-4,2,0,-1,-3,0,-3,-3
1532146353840,-2,-4,0,-1,0,-1,2,4
1532146353845,5,20,0,2,1,-1,0,8
1532146353850,-4,-5,0,1,1,-1,0,-4
1532146353855,-4,-4,-4,-4,-3,-1,-2,-4
1532146353860,-5,-4,0,0,0,1,-1,6
1532146353865,3,11,2,0,-1,-2,-2,-3
1532146353870,-1,0,-2,0,1,-2,-1,-1
1532146353875,-1,-4,-2,-1,3,3,0,0
1532146353880,-1,-2,1,3,-2,-3,-3,-3
1532146353885,-3,-10,-3,-3,-3,-3,-2,3
1532146353890,1,5,2,1,-1,-1,1,0
1532146353895,6,-1,-7,-3,-4,-2,1,0
1532146353900,0,15,9,8,1,2,-1,-5
1532146353905,-8,-23,3,1,0,0,0,9
1532146353910,8,3,-6,-1,-1,-3,-2,0
1532146353915,-2,-1,-4,-7,-4,-2,-3,-3
1532146353920,-3,-4,-7,-7,-2,-1,2,-3
1532146353925,0,2,9,6,1,1,1,-1
1532146353930,-3,-2,3,1,-8,3,0,-2
1532146353935,2,1,0,1,7,-3,0,5
1532146353940,0,-4,-3,-3,-2,1,-2,3
1532146353945,-1,-8,-7,-4,-3,-2,-2,-9
1532146353950,-3,-1,-2,-2,-1,-2,0,-1
1532146353955,-2,5,2,1,-3,-3,-2,-3
1532146353960,2,-15,-3,-3,1,1,0,1
1532146353965,-2,0,-2,0,3,-3,-1,7
1532146353970,-2,0,-2,-3,-3,-2,1,4
1532146353975,-1,3,-2,0,-2,-3,-2,-6
1532146353980,-5,-4,8,8,3,1,-1,1
1532146353985,-1,-9,-5,-4,-4,-1,-2,-3
1532146353990,-1,4,-3,1,3,-1,-3,4
1532146353995,-5,-11,2,2,-4,0,3,1
1532146354000,-1,1,-6,-4,1,-1,0,-4
1532146354005,2,7,1,-4,-1,0,1,1
1532146354010,-2,2,1,1,0,1,0,0
1532146354015,1,0,1,2,-2,1,-1,0
1532146354020,-3,4,-3,-1,0,-1,-2,-6
1532146354025,0,0,-5,-2,-2,-1,1,5
1532146354030,-1,-5,-2,-2,3,3,-1,-2
1532146354035,1,4,2,3,0,1,-1,3
1532146354040,1,-2,-1,-3,0,-2,-2,-3
1532146354045,-4,-4,-1,-3,-1,0,-2,-5
1532146354050,-2,-5,-1,-1,0,-1,0,2
1532146354055,0,6,2,1,1,1,-4,-11
1532146354060,2,-10,-1,1,-1,-2,0,5
1532146354065,-11,-1,-3,0,0,-1,-3,1
1532146354070,3,27,-1,-3,-3,-1,-1,-2
1532146354075,-7,-37,-3,-4,-2,0,0,3
1532146354080,0,3,-2,-3,-2,-2,-1,-2
1532146354085,3,7,-1,0,4,3,0,2
1532146354090,-6,-6,11,9,0,-1,0,-1
1532146354095,2,6,-9,-6,-4,-2,-1,-2
1532146354100,-4,-1,-7,-6,-1,0,-1,-3
1532146354105,0,-8,7,6,1,-1,-1,0
1532146354110,0,3,1,0,2,-1,-1,-1
1532146354115,3,8,-2,0,1,-1,0,3
1532146354120,-1,-3,5,1,-2,-1,0,-5
1532146354125,0,3,-7,-5,-3,-3,0,1
1532146354130,-1,-9,-5,-4,0,-1,-1,0
1532146354135,-2,2,4,1,-1,-1,-3,-9
1532146354140,-1,0,-4,-5,-2,-2,1,2
1532146354145,-3,-4,-2,-1,-1,0,-1,-2
1532146354150,8,10,1,2,-2,0,-1,2
1532146354155,4,-3,0,-1,0,-1,-3,0
1532146354160,-4,2,1,2,-2,-1,1,-1
1532146354165,3,-4,2,1,2,-2,0,-2
1532146354170,-2,-10,-5,-4,-2,-4,-1,-1
1532146354175,-2,10,0,-2,-2,1,1,4
1532146354180,2,2,0,3,1,0,-1,0
1532146354185,1,-4,3,-1,-3,1,0,1
1532146354190,-1,-1,-3,-2,0,-3,3,-2
1532146354195,1,2,2,3,2,1,-2,-2
1532146354200,-1,-4,-2,-2,-1,-1,-3,-4
1532146354205,-1,-3,-3,-1,-1,-1,0,5
1532146354210,0,-4,-3,-3,-3,0,-4,-7
1532146354215,-1,-1,-3,-2,-4,0,3,3
1532146354220,-2,-3,-1,-2,7,-2,-2,-10
1532146354225,0,4,-1,0,-3,-3,-3,3
1532146354230,-2,-3,-2,-1,-2,-2,-2,-9
1532146354235,0,-2,-2,-1,3,0,-2,-1
1532146354240,-1,1,1,2,-2,0,-1,4
1532146354245,1,-1,-1,1,-3,-2,2,0
1532146354250,-3,-5,0,1,2,1,-1,6
1532146354255,6,4,-2,-2,-3,-1,-2,-3
1532146354260,-1,-4,-3,0,1,-5,-1,0
1532146354265,-4,-1,-2,-4,-10,1,0,-2
1532146354270,6,-2,-4,-3,3,2,0,0
1532146354275,-4,1,3,0,-2,-2,0,-1
1532146354280,1,2,-2,-2,-2,-1,-1,2
1532146354285,-2,-6,0,2,3,-1,-3,-3
1532146354290,-5,-1,2,-2,-2,-1,1,-3
1532146354295,-1,0,-3,-1,0,-3,-2,-1
1532146354300,-2,-2,-2,0,-1,1,4,5
1532146354305,2,9,0,-2,0,0,-4,-5
1532146354310,-1,-12,-4,-3,-2,-1,1,-7
1532146354315,-1,-2,-2,-2,0,-3,-2,5
1532146354320,-4,-3,-2,-2,-4,0,-2,-3
1532146354325,-5,-3,-3,-3,-2,0,0,-2
1532146354330,-2,0,-3,0,-1,1,-2,-3
1532146354335,-2,12,-1,1,2,-1,1,-1
1532146354340,-6,-25,0,-1,-3,-3,-1,1
1532146354345,2,3,-2,-3,-3,-2,-1,1
1532146354350,-2,0,-1,-2,0,-1,-4,-6
1532146354355,-1,-2,0,-1,-2,-1,1,1
1532146354360,-3,3,-3,-2,2,2,-1,2
1532146354365,-6,-5,3,-1,0,3,-1,-7
1532146354370,4,3,0,-1,-4,-2,0,-3
1532146354375,-2,-4,-1,-1,1,-2,-2,0
1532146354380,1,6,-3,1,-1,-2,3,5
1532146354385,3,-3,1,2,2,1,-1,1
1532146354390,-1,5,0,-2,-1,0,2,-1
1532146354395,-2,-5,-4,-2,-2,0,-5,-10
1532146354400,-11,-4,-1,4,1,0,-4,-4
1532146354405,-6,2,0,-2,0,0,0,2
1532146354410,1,-4,0,0,-1,-2,1,4
1532146354415,3,-2,1,-1,-2,0,-1,0
1532146354420,2,11,6,1,-1,0,-2,2
1532146354425,1,2,0,1,-1,-2,4,4
1532146354430,4,2,-2,0,-3,-1,-3,-8
1532146354435,-5,-7,-5,-5,-2,-2,-4,-2
1532146354440,0,1,-2,-2,0,-1,-5,-7
1532146354445,-2,-5,-3,-2,-4,-4,0,-5
1532146354450,0,0,0,-2,1,1,0,-1
1532146354455,-2,-8,3,2,2,2,4,1
1532146354460,8,24,-1,0,4,-2,1,1
1532146354465,-10,-23,-3,-2,-4,-1,-1,1
1532146354470,-1,-4,-3,-3,-2,-1,0,3
1532146354475,0,2,0,-1,1,-1,0,1
1532146354480,0,-1,-3,-2,-2,-1,-1,-4
1532146354485,6,9,3,2,1,-1,0,-2
1532146354490,-2,4,3,1,1,0,-1,2
1532146354495,-1,-12,-1,0,-1,-1,-4,0
1532146354500,-2,-6,-4,-3,-2,-2,1,3
1532146354505,2,0,-2,-4,-1,0,-1,2
1532146354510,-2,-3,-1,1,-2,0,-6,-10
1532146354515,1,8,3,4,0,-2,1,4
1532146354520,-2,-8,-1,-3,0,-1,-3,-5
1532146354525,1,1,-5,-3,-2,-1,-2,0
1532146354530,-3,-1,0,-2,1,1,2,11
1532146354535,3,2,-1,-2,-1,1,0,-7
1532146354540,-1,-3,1,1,-1,-1,0,1
1532146354545,-1,2,-3,-1,-1,0,-1,2
1532146354550,1,-1,-1,-2,-2,0,0,-3
1532146354555,-3,-3,-6,-2,-1,0,1,3
1532146354560,-1,0,0,-2,-1,1,0,1
1532146354565,5,-2,-1,1,0,-3,-6,-7
1532146354570,-5,-4,0,1,-1,-2,1,4
1532146354575,4,4,-3,-2,0,-1,-2,-1
1532146354580,-1,-4,-3,-3,-4,0,-2,-4
1532146354585,0,3,3,-1,0,0,0,6
1532146354590,-5,-3,2,4,1,1,2,1
1532146354595,1,-4,0,-1,-4,-3,-1,-3
1532146354600,0,-4,-5,-3,0,-1,-2,1
1532146354605,0,30,5,0,2,2,-3,-5
1532146354610,4,-23,-7,0,-1,-2,-2,0
1532146354615,-2,3,4,0,-1,0,0,1
1532146354620,-1,-7,-1,-2,-2,-2,0,2
1532146354625,-2,-1,-4,-5,-1,0,2,-1
1532146354630,-2,8,4,1,0,0,-3,-5
1532146354635,-1,0,2,0,-1,-1,-1,3
1532146354640,-4,-1,0,1,1,0,-2,-3
1532146354645,0,-4,4,0,-1,-2,2,-5
1532146354650,0,5,-4,-3,-1,0,0,1
1532146354655,-4,-5,-2,1,2,0,-1,-1
1532146354660,1,8,2,4,0,-2,-2,-2
1532146354665,0,-5,-5,-2,-4,-2,1,-2
1532146354670,-2,-6,-1,-3,3,1,1,0
1532146354675,-3,6,0,0,-2,0,-1,4
1532146354680,0,-4,-3,0,-2,-1,4,3
1532146354685,-5,-8,-1,0,3,-2,-6,-21
1532146354690,0,4,-1,-1,0,-4,-1,-2
1532146354695,1,-1,-3,-2,1,1,1,0
1532146354700,-2,-1,2,-2,-3,1,-2,-1
1532146354705,0,-8,-2,-2,-1,0,0,5
1532146354710,-1,2,-1,-3,-1,-1,-2,1
1532146354715,-1,-1,-1,-1,2,-1,0,-4
1532146354720,-1,-1,-1,-2,0,0,-2,-3
1532146354725,-2,0,0,0,-2,-2,0,1
1532146354730,-4,-5,-1,-3,-3,-1,0,-7
1532146354735,2,1,1,-2,-1,-2,-3,4
1532146354740,2,-3,-3,-2,-1,0,-2,-1
1532146354745,-1,0,3,4,-1,0,1,2
1532146354750,0,1,2,2,1,-2,-1,-1
1532146354755,-2,-2,-2,-4,1,0,0,-4
1532146354760,-3,-4,-4,-7,-3,-2,-1,-1
1532146354765,0,-2,-5,-2,-3,2,-1,0
1532146354770,-1,27,4,2,0,0,1,-2
1532146354775,2,-29,-4,0,0,-3,-5,-4
1532146354780,8,5,-1,0,-2,-1,-1,1
1532146354785,-4,-8,-4,-1,0,-2,4,7
1532146354790,1,4,-3,-4,-1,-1,-5,-5
1532146354795,-5,5,-1,0,-2,0,2,-3
1532146354800,-2,-3,1,0,1,2,2,-1
1532146354805,0,-1,1,2,2,-1,0,1
1532146354810,1,-4,2,-1,-3,-1,-2,3
1532146354815,-2,3,-3,-2,-1,-1,-1,-4
1532146354820,0,-6,-2,-3,2,-1,-2,-2
1532146354825,-1,4,-2,-1,-2,-1,-1,0
1532146354830,-2,-8,-2,-1,-2,1,2,6
1532146354835,-2,-1,2,2,-2,0,-2,-2
1532146354840,-2,6,1,0,-1,-1,2,-6
1532146354845,-1,-4,0,-1,1,-1,-2,-2
1532146354850,-2,-9,-4,-6,-4,-4,-3,-2
1532146354855,2,5,-4,-3,-1,-1,1,3
1532146354860,-1,-2,2,3,1,1,-1,-1
1532146354865,2,2,1,-1,0,-1,-1,-2
1532146354870,-2,-7,-3,-3,-1,0,1,3
1532146354875,-2,1,-6,-2,-1,1,-1,-1
1532146354880,-3,-1,3,0,-1,-2,-3,-1
1532146354885,-2,-8,-1,0,-1,0,1,4
1532146354890,2,1,-2,-1,2,-2,-2,-7
1532146354895,-3,4,3,4,-2,-1,0,0
1532146354900,-3,-5,2,1,0,-2,-1,-1
1532146354905,4,4,-1,0,2,2,-1,-4
1532146354910,0,20,-1,1,-3,-2,0,1
1532146354915,-6,-21,-3,0,1,0,0,-1
1532146354920,7,-8,-7,-2,-4,-4,-3,-2
1532146354925,-3,-1,-2,-1,-2,0,-3,-2
1532146354930,-1,-3,-1,2,0,-2,0,-1
1532146354935,4,8,3,0,-2,2,0,-3
1532146354940,-5,2,1,-2,-2,-2,-2,-7
1532146354945,-5,-6,-3,-4,-3,-2,-4,-4
1532146354950,5,-1,-2,-1,-1,1,1,5
1532146354955,-1,3,2,0,1,-2,0,4
1532146354960,0,-1,2,4,-1,0,-1,-6
1532146354965,-3,4,2,0,0,0,2,-2
1532146354970,4,-5,-3,0,-3,-1,-3,0
1532146354975,6,4,-1,-3,-1,-2,0,1
1532146354980,-4,-2,-6,-5,-4,-1,-1,2
1532146354985,0,0,-2,0,2,0,-2,-2
1532146354990,-5,-3,3,2,2,0,-1,-1
1532146354995,-2,2,-3,-3,0,-1,-1,-1
1532146355000,2,4,-1,-1,-2,-2,0,-1
1532146355005,-5,4,2,-3,-2,-1,-2,0
1532146355010,2,-16,-6,-3,-2,-1,-1,-2
1532146355015,2,3,3,5,3,0,-4,-2
1532146355020,1,-2,1,1,0,1,3,4
1532146355025,6,15,1,1,-2,-5,-2,-1
1532146355030,-19,-22,0,-3,0,0,0,-1
1532146355035,-2,1,-10,-5,-3,-1,0,-1
1532146355040,5,12,-1,1,0,0,-2,2
1532146355045,2,-3,1,2,-1,-1,-1,-1
1532146355050,4,8,0,-1,-1,-1,-4,-3
1532146355055,-7,-5,0,-1,-3,-4,-1,-1
1532146355060,-5,-5,-7,-6,-1,0,-2,1
1532146355065,0,15,-3,-2,-2,1,1,-1
1532146355070,-6,-25,1,1,-3,-3,-1,-1
1532146355075,-3,0,0,1,2,1,0,-2
1532146355080,-4,2,4,2,-2,-1,0,-1
1532146355085,-13,-24,5,-1,2,1,0,0
1532146355090,22,30,-11,-4,-3,-4,-5,-3
1532146355095,2,3,-3,-7,-4,-4,-1,-2
1532146355100,-2,2,3,2,-1,0,0,1
1532146355105,1,-2,6,7,6,2,-1,0
1532146355110,-3,-2,4,0,-1,-1,2,0
1532146355115,-2,-5,1,0,-3,-1,1,-1
1532146355120,-3,-3,-4,-4,1,1,0,1
1532146355125,-13,-36,-5,-3,-5,-3,-1,0
1532146355130,2,0,-9,-1,0,-3,-4,-3
1532146355135,16,17,-1,1,0,0,-3,-1
1532146355140,-6,-9,4,-1,-3,-3,-1,0
1532146355145,2,8,-2,-1,-3,-2,-1,0
1532146355150,-8,0,-3,-2,1,2,-1,0
1532146355155,-8,-12,1,-1,0,0,1,0
1532146355160,6,10,2,-1,2,0,-2,-2
1532146355165,0,3,-1,1,-1,0,-2,-2
1532146355170,-4,-14,3,-1,-2,-1,-1,-1
1532146355175,3,6,-3,0,-2,0,0,-1
1532146355180,2,-1,-6,-4,-1,-4,-2,1
1532146355185,4,10,-3,-2,-3,-3,-1,0
1532146355190,-3,0,5,1,-1,-3,1,1
1532146355195,-4,-4,4,5,2,3,2,-1
1532146355200,-1,-4,-4,-2,-5,-4,1,-1
1532146355205,-6,3,-3,-3,0,5,3,-1
1532146355210,2,3,-5,2,4,3,-1,-1
1532146355215,2,-7,0,-2,-6,-4,0,-1
1532146355220,-4,-1,-2,-4,-3,-8,-2,-2
1532146355225,0,0,2,0,-6,-3,-1,0
1532146355230,-5,2,0,-1,2,1,0,1
1532146355235,3,11,-1,2,0,3,2,-1
1532146355240,1,-2,0,2,4,3,-2,1
1532146355245,0,2,0,-4,-3,-1,-2,0
1532146355250,-5,-12,4,2,3,-1,-1,-1
1532146355255,-12,-2,-13,-5,-3,-2,0,-1
1532146355260,0,-13,-3,-3,-4,-4,-4,-5
1532146355265,25,29,-7,-6,0,-3,-2,0
1532146355270,-11,8,11,10,-1,1,3,0
1532146355275,1,-11,2,-2,1,-2,-2,-1
1532146355280,-6,14,2,4,2,2,2,0
1532146355285,0,-48,-11,-3,2,-3,-4,-4
1532146355290,3,7,-3,-7,-2,-1,-2,-3
1532146355295,10,14,-2,-3,-3,-4,-6,-3
1532146355300,-1,3,2,0,1,5,-1,0
1532146355305,13,47,10,3,3,-1,-4,-1
1532146355310,-24,-24,-8,-4,-8,-4,-2,-4
1532146355315,7,1,-5,-4,-2,-3,-2,-1
1532146355320,-8,-29,-4,-2,-3,0,1,-1
1532146355325,-10,5,8,0,-1,0,0,-2
1532146355330,11,8,12,8,1,4,4,1
1532146355335,-6,17,-2,-5,-2,-4,-4,-4
1532146355340,3,-2,-3,-2,0,-2,-2,0
1532146355345,-6,-13,-4,-5,-1,0,2,-1
1532146355350,5,7,-6,-3,-2,-2,1,0
1532146355355,-7,-19,3,5,4,1,0,2
1532146355360,5,13,5,4,2,-2,-2,-2
1532146355365,-2,4,-2,-1,-2,-2,2,0
1532146355370,-12,1,2,-6,0,2,1,1
1532146355375,5,-53,-5,1,-2,-3,-4,-3
1532146355380,6,38,-11,-8,-2,-4,-5,-6
1532146355385,1,-8,-6,-1,-2,0,-1,1
1532146355390,5,12,2,1,1,-1,0,-1
1532146355395,-13,-8,8,4,2,2,4,2
1532146355400,1,-10,-5,0,1,-1,0,2
1532146355405,-7,-8,-5,-4,3,-2,-2,-5
1532146355410,1,-10,-8,3,0,0,0,2
1532146355415,4,31,36,-2,-1,2,1,0
1532146355420,-7,-32,-25,3,-4,1,0,0
1532146355425,-7,-44,-6,4,-1,0,1,1
1532146355430,20,49,-6,0,-4,-5,-1,2
1532146355435,-3,-6,-13,-3,2,-2,-5,-7
1532146355440,18,40,18,-5,-3,-1,2,1
1532146355445,-6,4,-11,-4,-4,-1,-1,-2
1532146355450,0,-18,5,0,-1,1,0,1
1532146355455,-3,-11,-4,2,0,-1,-1,1
1532146355460,-13,-1,18,-4,-1,0,3,-2
1532146355465,-1,-38,-26,6,3,1,-3,0
1532146355470,7,26,-1,-7,0,0,-5,-1
1532146355475,-6,22,6,-2,2,-4,0,-1
1532146355480,-4,-29,-6,1,0,0,-2,-3
1532146355485,-7,8,31,3,0,3,5,3
1532146355490,0,-20,-19,-2,-1,-6,-5,-4
1532146355495,3,5,-13,0,3,0,-1,1
1532146355500,0,-13,6,-2,-5,0,1,2
1532146355505,-7,-9,7,-1,2,-2,1,-1
1532146355510,4,-12,-18,-5,-6,-1,0,-2
1532146355515,17,40,21,0,-4,0,-1,1
1532146355520,10,20,-8,5,1,0,-1,0
1532146355525,-6,25,12,0,0,-1,-3,0
1532146355530,-11,-29,-4,-1,-1,-1,-2,-2
1532146355535,-3,-5,4,3,0,-1,1,1
1532146355540,0,1,-5,-4,-3,-5,-3,-1
1532146355545,0,24,5,-1,-1,6,2,0
1532146355550,-14,-10,16,0,-5,-2,-2,-3
1532146355555,15,24,-15,-1,0,0,-1,1
1532146355560,-3,-9,7,5,2,2,0,0
1532146355565,4,-27,-13,-1,1,-4,-4,-2
1532146355570,-11,27,5,-1,-3,0,2,0
1532146355575,9,0,3,-3,-3,2,2,2
1532146355580,-7,-10,-13,-2,1,-1,-4,-2
1532146355585,16,10,-15,-4,-7,-5,1,1
1532146355590,-15,-36,-5,4,1,3,1,0
1532146355595,-11,0,-4,-5,-6,-1,0,-1
1532146355600,-6,-1,3,1,3,-2,-1,-2
1532146355605,-15,-5,-10,-1,-7,-5,-2,-3
1532146355610,6,0,10,0,3,1,3,1
1532146355615,-4,-15,-9,-2,-3,-1,-3,-3
1532146355620,-1,12,-5,-3,-1,3,1,1
1532146355625,15,6,-9,-5,0,-2,-6,-2
1532146355630,1,-5,27,3,-3,-1,1,-1
1532146355635,7,15,-17,0,1,1,-1,-2
1532146355640,-6,5,13,0,-5,-2,1,0
1532146355645,-6,-3,11,4,10,-3,0,1
1532146355650,12,13,-14,-4,3,1,0,0
1532146355655,-7,-14,19,-1,-3,-2,-1,-4
1532146355660,-1,-26,-35,-7,-3,-3,-2,0
1532146355665,-4,-23,7,8,0,1,3,1
1532146355670,21,57,6,0,-3,-2,-3,-3
1532146355675,-6,-56,-14,-1,7,2,2,2
1532146355680,-5,-10,1,-4,2,2,-1,0
1532146355685,6,27,34,2,-4,-1,-3,-3
1532146355690,-14,-21,-11,-2,0,1,-4,-1
1532146355695,-1,0,-1,0,-3,-8,0,-1
1532146355700,-2,7,11,-1,1,5,-2,1
1532146355705,-11,-6,-23,-8,-7,4,0,0
1532146355710,6,-5,4,5,17,-5,-1,-2
1532146355715,-8,10,4,1,-1,-2,-2,-2
1532146355720,-2,-16,-6,-3,-4,-3,0,-2
1532146355725,-12,1,6,0,0,0,1,-1
1532146355730,18,21,-6,-5,-4,-3,-5,-1
1532146355735,-1,13,-9,-5,-3,-2,-2,-1
1532146355740,1,-1,0,-1,2,-1,-1,-1
1532146355745,15,10,2,0,-3,0,-3,0
1532146355750,-22,-24,-16,1,-1,3,5,-1
1532146355755,-12,-15,9,5,3,1,-2,-2
1532146355760,7,16,2,-5,-7,-6,-2,-1
1532146355765,15,20,15,-2,2,-3,-4,-4
1532146355770,-17,-46,-5,-1,1,-1,2,2
1532146355775,6,-22,-7,0,7,-3,-1,-3
1532146355780,0,22,3,2,6,-3,-1,-2
1532146355785,-3,-1,-9,-2,4,2,-1,-3
1532146355790,1,-4,0,-6,-6,1,1,1
1532146355795,-14,7,0,-3,-9,4,4,1
1532146355800,-8,-31,-2,0,0,-3,-7,-4
1532146355805,1,0,-14,-2,0,-5,-1,-5
1532146355810,0,15,7,2,0,2,-1,-2
1532146355815,5,6,0,-2,-7,-1,-2,1
1532146355820,-1,0,11,2,-4,-1,1,-2
1532146355825,-7,-5,-6,-1,-2,2,1,1
1532146355830,-7,-29,-11,-6,-6,-2,-3,-3
1532146355835,6,-2,-8,-4,-6,-3,-4,1
1532146355840,-1,40,6,3,2,-3,-1,-1
1532146355845,0,-8,-5,2,1,-5,-2,-3
1532146355850,2,14,18,-2,-1,0,2,1
1532146355855,-5,-12,5,7,3,0,0,0
1532146355860,-5,-3,-1,-2,-5,1,1,2
1532146355865,26,-11,-4,-3,-11,-2,-2,1
1532146355870,-13,-4,-8,-4,7,0,-4,-1
1532146355875,-3,0,-6,-2,1,3,1,-1
1532146355880,7,0,4,4,3,5,0,2
1532146355885,-15,20,7,0,-3,-2,-2,0
1532146355890,2,10,-5,-2,-6,0,0,-4
1532146355895,3,12,13,-3,1,3,2,-1
1532146355900,2,-17,-14,5,2,0,-1,-2
1532146355905,-3,-32,-3,1,5,3,1,5
1532146355910,13,22,4,1,-5,-4,-4,0
1532146355915,-4,22,-6,-7,0,-6,-3,-2
1532146355920,5,20,1,-6,-1,1,3,-1
1532146355925,3,0,-10,-6,-5,-3,3,-2
1532146355930,-9,-14,20,1,-4,2,1,2
1532146355935,22,-13,-15,2,-1,-1,-4,1
1532146355940,2,14,3,1,0,0,1,-2
1532146355945,8,-5,-10,-7,-8,-4,-3,5
1532146355950,-16,3,-4,-1,-3,-6,0,-6
1532146355955,-8,-26,8,1,-3,0,-1,0
1532146355960,-5,-7,-14,-8,-8,-4,-3,-5
1532146355965,-2,-4,0,7,6,3,-1,1
1532146355970,9,6,-1,2,-3,-4,-2,1
1532146355975,-1,-6,2,-3,-7,6,4,3
1532146355980,-13,-33,-10,-1,2,-2,0,-3
1532146355985,13,38,13,-4,-1,-1,-1,-3
1532146355990,3,7,-9,-3,0,-4,-4,0
1532146355995,-2,-16,-9,4,-2,-2,-2,-3
1532146356000,-6,1,11,4,1,1,0,3
1532146356005,-7,3,2,-3,2,2,0,-6
1532146356010,5,9,-11,-4,-2,-5,0,4
1532146356015,2,1,0,0,3,3,2,2
1532146356020,2,-6,-6,-3,-1,1,0,-12
1532146356025,-12,11,12,5,1,4,2,-1
1532146356030,13,-2,-8,-1,-6,-4,-2,-2
1532146356035,-15,-9,-2,-2,-3,-1,1,0
1532146356040,6,0,3,0,-1,-1,-1,3
1532146356045,2,-11,-8,-3,-2,-3,0,1
1532146356050,0,-2,-16,-10,-2,2,0,1
1532146356055,-4,30,20,10,4,-2,-3,-8
1532146356060,-2,11,2,2,-1,-4,-1,2
1532146356065,11,8,21,4,9,5,0,0
1532146356070,-1,-23,-24,-1,-3,2,-2,3
1532146356075,5,15,-1,-5,1,-3,-1,-1
1532146356080,-3,-24,-20,-3,-1,-3,-2,1
1532146356085,-15,-13,-1,-2,2,-2,0,-3
1532146356090,-1,19,20,-1,-1,-1,2,8
1532146356095,10,10,-8,-4,4,2,-4,-16
1532146356100,-12,11,0,1,0,-3,-1,-1
1532146356105,-1,-15,-11,-3,-3,-2,-2,0
1532146356110,9,-4,6,0,-1,4,6,3
1532146356115,-14,6,1,0,6,-12,-2,0
1532146356120,-4,-20,-2,-2,-1,4,0,1
1532146356125,1,35,9,1,-3,-2,-2,-4
1532146356130,-7,6,3,3,3,-1,-3,-5
1532146356135,2,-14,-4,-1,-4,2,1,3
1532146356140,2,-1,9,0,1,-3,-2,-1
1532146356145,-1,-3,-9,3,-1,-8,-1,4
1532146356150,-6,-17,1,-5,1,9,1,-3
1532146356155,-3,-9,-11,-6,-1,-1,-1,3
1532146356160,-6,-7,-11,-1,-3,-2,-4,-4
1532146356165,9,15,4,-1,-4,1,1,-2
1532146356170,-12,-36,9,10,3,-5,-2,-2
1532146356175,11,21,-17,-11,-3,-1,-1,5
1532146356180,-15,-46,4,9,4,3,0,-2
1532146356185,7,13,-7,-3,0,1,0,0
1532146356190,-7,-3,5,-3,-3,-6,-2,-7
1532146356195,4,16,11,-1,-4,2,2,6
1532146356200,12,17,2,-2,-2,2,1,-2
1532146356205,4,-18,6,3,-2,-3,-2,1
1532146356210,-5,11,-3,0,0,-2,-1,0
1532146356215,-5,-7,3,1,2,-1,1,3
1532146356220,5,5,2,-5,2,-1,-1,0
1532146356225,-13,-20,-14,-1,0,-1,-3,-5
1532146356230,9,20,12,-1,1,3,3,1
1532146356235,2,-11,-16,2,-2,-2,-3,-3
1532146356240,-5,-26,7,2,-4,-5,1,1
1532146356245,12,41,-4,-1,1,4,-2,0
1532146356250,1,7,-1,-2,1,-3,-3,-5
1532146356255,-5,-25,-5,-4,-3,-1,1,-1
1532146356260,2,8,-1,-3,-12,-5,1,1
1532146356265,-5,-8,31,1,5,-4,0,-5
1532146356270,-9,-56,-38,3,-1,3,-5,-7
1532146356275,14,8,10,5,0,-3,-1,2
1532146356280,0,13,14,-1,1,3,4,-2
1532146356285,-25,-12,-15,-7,-2,-3,-2,-6
1532146356290,14,-6,-2,-4,-2,-5,-4,1
1532146356295,-5,-5,9,5,4,2,0,0
1532146356300,5,-2,-6,-1,-2,1,-1,3
1532146356305,-6,36,-4,-5,-5,0,0,1
1532146356310,-24,0,7,-2,-3,-5,-2,-6
1532146356315,11,18,-14,-7,-5,0,-4,-3
1532146356320,6,7,-2,1,8,-3,-1,2
1532146356325,-5,-20,-5,2,0,-1,-1,-1
1532146356330,-1,4,3,4,-1,-5,1,2
1532146356335,-9,-12,4,-1,0,9,3,2
1532146356340,4,14,-2,-5,-5,0,-1,-6
1532146356345,-4,-10,-6,1,-2,0,0,1
1532146356350,11,16,6,4,0,-6,-2,-4
1532146356355,-6,-4,0,1,1,4,0,-1
1532146356360,-3,-8,-12,-4,0,2,0,4
1532146356365,-12,-17,1,-1,-7,1,1,-3
1532146356370,26,31,17,-3,-1,0,-1,6
1532146356375,-2,-4,-17,-1,-2,-12,-5,-7
1532146356380,0,0,2,2,0,4,2,2
1532146356385,2,10,20,4,0,-5,-2,-1
1532146356390,2,-19,-22,-1,3,10,3,3
1532146356395,-10,2,4,-5,-5,-4,-1,0
1532146356400,-4,-8,-12,-3,-6,-3,-5,-4
1532146356405,10,5,7,-1,3,-6,-2,1
1532146356410,-6,9,8,3,1,9,3,1
1532146356415,3,7,4,2,3,2,2,1
1532146356420,1,12,7,-2,-4,-2,0,1
1532146356425,-6,-22,-16,-3,-1,-2,-3,-2
1532146356430,-8,13,-4,-6,-8,-10,-3,-7
1532146356435,1,-23,-9,-4,1,2,-1,-1
1532146356440,-3,43,12,5,4,-3,-4,-4
1532146356445,7,-15,-6,2,1,7,2,0
1532146356450,2,8,1,-1,4,0,0,2
1532146356455,-11,-1,8,-2,-3,-8,-1,0
1532146356460,1,-54,-9,-6,-1,-6,-3,-9
1532146356465,10,36,-13,1,1,-4,-4,3
1532146356470,-1,-15,-3,-2,-3,5,-1,-2
1532146356475,-3,6,22,2,2,6,4,1
1532146356480,-11,-9,2,-2,-2,-3,-1,-3
1532146356485,-17,-33,-6,-2,-4,0,0,-1
1532146356490,-1,18,8,1,1,-1,-5,-4
1532146356495,-8,-21,-18,-5,-1,-1,0,0
1532146356500,14,24,13,2,1,-2,-1,4
1532146356505,0,-16,-8,-6,-2,0,2,0
1532146356510,-18,-4,1,-2,-1,-1,1,3
1532146356515,13,55,5,3,0,-1,-2,-8
1532146356520,-2,-73,-13,-1,0,-3,-4,-5
1532146356525,-6,-8,-2,0,7,6,0,-2
1532146356530,3,3,-8,-2,-4,1,1,2
1532146356535,5,1,3,-4,-5,-1,-2,0
1532146356540,12,20,3,-2,-2,-1,3,2
1532146356545,2,-24,-7,1,0,-3,-1,2
1532146356550,10,5,9,6,3,3,3,3
1532146356555,-55,-57,-5,1,1,-4,-3,-7
1532146356560,35,50,-1,-5,-2,4,3,7
1532146356565,-10,-8,6,0,4,-3,-1,-4
1532146356570,17,25,-5,0,0,-4,-5,-9
1532146356575,-10,-5,-5,-3,-2,-4,-2,-4
1532146356580,-11,6,1,2,3,6,3,2
1532146356585,4,-24,-10,-3,-5,1,0,3
1532146356590,-3,-2,-3,0,-2,-2,-2,-1
1532146356595,5,-4,-11,-4,-2,-4,-2,5
1532146356600,-15,2,11,-1,2,2,-1,-10
1532146356605,5,18,-11,0,-6,-5,-5,-2
1532146356610,-12,-13,-2,-1,2,3,-2,-3
1532146356615,12,-6,2,1,2,4,0,2
1532146356620,5,21,-1,0,-5,-4,-2,4
1532146356625,-12,-15,3,-3,-5,-1,0,-3
1532146356630,16,22,4,1,-3,-4,0,1
1532146356635,-1,12,0,3,7,-2,-3,-1
1532146356640,-7,6,-4,0,2,3,-1,-3
1532146356645,-1,-6,3,0,-1,1,1,-3
1532146356650,-5,-15,-3,-3,-1,-1,0,1
1532146356655,7,16,9,-2,-4,-1,0,-1
1532146356660,-14,-9,-8,2,2,-1,0,-1
1532146356665,8,28,1,-1,-1,0,-1,-1
1532146356670,11,-5,2,-2,-2,-3,0,2
1532146356675,2,2,-4,1,0,7,1,1
1532146356680,4,-5,2,-4,-3,-5,-1,1
1532146356685,15,-13,-5,5,0,0,0,2
1532146356690,-31,17,17,-5,-3,-5,-1,-11
1532146356695,2,-48,-32,-1,0,-6,-2,-2
1532146356700,-11,-13,-3,-1,1,1,-5,3
1532146356705,4,13,21,-2,-5,2,2,-4
1532146356710,6,-25,-19,-1,6,6,3,6
1532146356715,5,16,6,0,3,-7,1,3
1532146356720,2,0,2,0,1,4,2,-1
1532146356725,5,26,9,7,2,-1,-2,1
1532146356730,-6,-13,0,-3,-4,-5,-2,-5
1532146356735,6,19,1,-5,-6,-4,-1,-1
1532146356740,9,8,-7,0,2,0,1,1
1532146356745,-6,3,0,-4,4,2,1,0
1532146356750,1,3,-1,-1,-4,0,1,1
1532146356755,25,6,16,5,1,1,-1,4
1532146356760,-11,-30,-19,1,1,1,-1,3
1532146356765,3,20,3,3,-5,0,-2,-7
1532146356770,-8,-9,-7,-2,-1,-3,1,1
1532146356775,-13,3,1,-1,-2,6,-1,-2
1532146356780,15,6,7,-2,1,-3,1,1
1532146356785,-1,-10,-5,-3,-2,-3,1,13
1532146356790,-13,-4,0,1,1,6,1,-6
1532146356795,6,13,-3,0,-3,-3,-1,-3
1532146356800,-24,-21,3,3,-2,2,1,-1
1532146356805,15,1,-8,-8,-1,-3,-3,-1
1532146356810,6,-9,-14,-1,-6,-6,-4,0
1532146356815,0,5,-8,-1,-1,-1,0,0
1532146356820,11,9,18,3,0,-3,0,0
1532146356825,-19,1,5,-3,1,7,3,-5
1532146356830,-2,11,-7,-1,1,-1,-2,4
1532146356835,-11,-24,8,2,2,0,-2,-6
1532146356840,-3,-9,-12,-3,-2,-6,-5,-9
1532146356845,-2,3,3,-2,0,-11,-3,2
1532146356850,3,7,6,2,1,7,3,1
1532146356855,-9,-7,-2,-2,6,4,8,7
1532146356860,6,19,-4,-8,-17,-23,-11,-3
1532146356865,-17,-17,-8,4,12,1,-2,-3
1532146356870,8,1,13,-2,-4,-5,-4,-6
1532146356875,-19,-16,-4,0,-2,-10,-2,-2
1532146356880,30,10,1,1,3,2,2,-1
1532146356885,5,-11,-19,-8,-8,0,-3,0
1532146356890,-12,-5,16,5,3,-4,-3,3
1532146356895,18,6,1,1,-6,7,1,0
1532146356900,-11,16,6,-5,-6,4,4,-4
1532146356905,-11,-14,-15,1,1,7,1,2
1532146356910,14,-17,1,-3,3,2,-4,-3
1532146356915,36,16,-3,0,-1,3,-7,3
1532146356920,-53,-13,-12,-5,1,6,1,-4
1532146356925,3,7,8,-3,-7,-20,-3,0
1532146356930,-13,-3,-9,-2,-9,21,4,-5
1532146356935,-1,-2,9,1,2,-35,0,2
1532146356940,11,-5,-4,-1,-3,-10,-4,-4
1532146356945,-14,0,5,2,3,8,2,-5
1532146356950,11,1,-8,-8,-5,-15,-3,5
1532146356955,-10,4,-5,1,-4,7,-1,-6
1532146356960,2,-15,10,1,6,6,0,5
1532146356965,16,13,4,1,-2,-2,-2,0
1532146356970,4,3,-3,4,3,0,-1,1
1532146356975,-6,-2,7,-6,-3,3,-1,-2
1532146356980,0,8,3,-4,-6,4,-1,-1
1532146356985,-4,-19,-8,3,-2,-1,-2,-2
1532146356990,-6,2,6,0,6,-2,1,2
1532146356995,-6,7,3,1,-5,5,-2,-1
1532146357000,9,-2,-8,2,7,0,-1,1
1532146357005,16,7,3,-1,-2,1,1,5
1532146357010,7,4,-4,-3,2,-3,0,1
1532146357015,-7,-5,-6,0,-3,-1,-2,-6
1532146357020,-5,-6,-2,2,3,1,-1,-1
1532146357025,-13,0,2,-6,-1,-5,0,-7
1532146357030,11,-2,3,0,-1,0,2,1
1532146357035,-18,-10,-10,-2,1,2,-4,-7
1532146357040,8,9,2,0,1,-2,0,4
1532146357045,14,7,3,0,1,0,-1,0
1532146357050,-45,-2,-5,-1,-4,-5,-4,-5
1532146357055,15,1,2,2,4,3,1,1
1532146357060,-4,8,0,-1,-5,-1,1,-1
1532146357065,-7,-25,-5,-6,1,4,1,2
1532146357070,-3,24,3,4,4,-2,-2,-3
1532146357075,-1,-18,-2,-1,-1,1,1,8
1532146357080,-14,-7,-1,3,1,-1,-2,-1
1532146357085,1,6,6,1,-2,1,-2,-1
1532146357090,-3,-6,-9,-7,-3,-3,-1,-4
1532146357095,11,-12,11,1,0,2,0,3
1532146357100,9,5,-2,0,-1,1,-2,-3
1532146357105,-14,3,-6,-1,1,2,1,2
1532146357110,20,-6,-4,-6,-4,-3,-3,-2
1532146357115,-17,2,1,2,2,-1,-1,-4
1532146357120,-1,-6,0,1,0,1,0,1
1532146357125,3,0,1,-3,-5,-3,-1,-6
1532146357130,1,-6,7,7,2,1,1,3
1532146357135,6,17,-6,-6,-5,-1,-2,-4
1532146357140,0,-6,-1,-4,-1,-1,-1,1
1532146357145,-5,4,-5,1,0,-3,-3,-1
1532146357150,-3,-4,-5,0,1,0,0,-2
1532146357155,-4,10,5,0,-1,-3,2,-3
1532146357160,-6,-4,2,3,2,5,-2,-1
1532146357165,-11,3,1,-2,-3,-2,0,0
1532146357170,7,-9,-5,-4,-3,0,-1,0
1532146357175,5,4,-8,-4,3,0,-1,1
1532146357180,-7,6,7,4,-1,-2,1,0
1532146357185,-1,-13,-1,0,-2,-3,-3,-7
1532146357190,3,-12,-3,-1,-2,1,-2,-2
1532146357195,-5,16,-7,-5,-1,-2,2,3
1532146357200,1,-6,-7,-1,-3,-4,-4,-6
1532146357205,-4,-11,-3,-4,-2,0,-2,-7
1532146357210,13,9,-2,3,2,-1,2,5
1532146357215,1,-1,10,3,-2,1,-3,-6
1532146357220,2,-6,-4,-3,0,-2,-2,0
1532146357225,1,11,-1,-1,-3,-2,-1,1
1532146357230,-1,-3,-2,-5,-2,-3,0,3
1532146357235,-1,-12,-9,-4,-3,-1,-1,-2
1532146357240,-1,0,-5,0,1,1,-3,-1
1532146357245,-1,3,8,7,1,-1,-3,2
1532146357250,3,1,-3,-6,-2,-5,-1,-4
1532146357255,5,7,1,4,0,0,1,2
1532146357260,5,4,-1,-1,0,0,0,-1
1532146357265,-4,7,-7,-10,-4,-1,1,1
1532146357270,3,-13,-5,1,1,1,0,3
1532146357275,-9,4,6,3,-1,-1,-3,-1
1532146357280,-4,6,3,1,0,0,-1,-3
1532146357285,5,3,6,2,0,0,0,3
1532146357290,2,1,0,-4,-1,-1,-1,2
1532146357295,0,-5,-7,-6,-3,-2,1,-3
1532146357300,-8,-5,-5,-1,0,0,1,-2
1532146357305,-2,-3,-1,-2,-1,-1,-2,-4
1532146357310,-15,-3,3,0,-2,-2,0,-1
1532146357315,4,-4,-3,-3,0,1,-2,0
1532146357320,5,1,-1,-3,-3,-3,2,-3
1532146357325,-3,-7,-3,1,6,0,0,2
1532146357330,5,2,0,0,-3,-3,0,-2
1532146357335,0,1,1,1,1,0,-1,0
1532146357340,-3,0,2,-3,-5,0,-2,-1
1532146357345,1,-1,-1,-2,0,0,1,2
1532146357350,8,5,-1,5,2,-1,0,3
1532146357355,-3,-3,5,1,0,0,0,0
1532146357360,-4,-5,-4,-2,0,-1,0,0
1532146357365,-2,-4,-7,-5,-4,-1,0,-1
1532146357370,-6,1,1,-4,-4,0,0,-2
1532146357375,2,0,0,1,0,0,1,2
1532146357380,-3,-4,-9,-4,-3,-3,-2,-2
1532146357385,-1,0,3,2,-1,0,0,-2
1532146357390,5,7,8,4,0,1,-2,2
1532146357395,-4,-7,-3,-3,-4,-5,2,-2
1532146357400,3,1,-2,-2,1,5,-3,0
1532146357405,-6,-5,1,0,-3,1,-4,-9
1532146357410,-6,-4,-3,-2,1,-2,0,-3
1532146357415,7,3,0,0,-1,2,1,1
1532146357420,-3,-4,-6,-8,-4,-6,1,-3
1532146357425,-1,-3,-5,-3,-2,-8,-1,0
1532146357430,5,5,9,9,6,7,1,5
1532146357435,-2,-4,4,1,0,-3,-2,-3
1532146357440,1,0,3,1,6,27,6,0
1532146357445,-4,-2,-5,-2,-5,-8,-6,1
1532146357450,4,3,-5,-3,-7,9,5,1
1532146357455,3,-1,-6,-3,11,0,-7,0
1532146357460,-4,-6,-5,-3,-15,-41,-4,-6
1532146357465,0,1,6,2,2,-3,-3,-3
1532146357470,-4,-2,0,-2,-4,-9,-3,-4
1532146357475,2,-2,-7,-5,-2,25,1,0
1532146357480,0,-4,1,0,1,-30,0,-1
1532146357485,-1,-1,1,2,1,1,3,-1
1532146357490,-5,2,-4,-1,1,0,-6,-3
1532146357495,-1,-6,1,-1,-5,-6,-1,-5
1532146357500,-3,1,0,2,7,17,-8,-5
1532146357505,-12,-13,-8,1,0,-22,-3,-12
1532146357510,1,4,3,-1,2,8,1,3
1532146357515,11,2,1,3,-7,-9,-1,-3
1532146357520,-12,-8,-4,-4,-3,8,-5,-6
1532146357525,12,9,2,1,3,13,2,5
1532146357530,0,-5,-4,-2,1,-5,0,1
1532146357535,-19,2,-2,-1,-2,-4,-3,-6
1532146357540,18,4,4,2,0,4,5,5
1532146357545,7,2,0,-4,1,13,0,2
1532146357550,-4,-3,-5,-3,-4,-17,-2,0
1532146357555,-2,-3,1,3,-4,-1,-3,-1
1532146357560,-20,-6,0,0,1,1,0,-1
1532146357565,6,-4,-1,-2,-1,4,0,3
1532146357570,0,-3,-1,-1,-6,-9,-1,0
1532146357575,18,8,4,2,7,5,3,3
1532146357580,4,7,1,-2,2,5,0,6
1532146357585,-39,-8,-2,-1,-4,-1,1,-9
1532146357590,-6,0,2,2,2,6,0,-2
1532146357595,-16,0,-1,-1,-2,-7,2,-4
1532146357600,24,11,5,2,-1,1,0,4
1532146357605,-5,-13,-12,-11,-7,-7,-3,-10
1532146357610,-11,-4,-8,-4,-3,2,-1,-4
1532146357615,5,3,-1,-1,0,-2,-1,6
1532146357620,1,-3,1,3,-1,-3,-1,1
1532146357625,6,7,6,5,3,2,0,8
1532146357630,-1,-3,2,1,1,1,1,-2
1532146357635,-2,-10,-13,-8,-8,-7,-3,-6
1532146357640,-11,-4,0,1,2,4,1,-3
1532146357645,9,8,7,4,1,0,-3,5
1532146357650,-1,-6,-2,-4,1,2,-1,-8
1532146357655,5,5,4,2,0,-2,1,8
1532146357660,-10,-13,2,-3,-5,-2,0,-5
1532146357665,8,3,-2,-4,-1,2,1,-2
1532146357670,15,-2,-5,-5,-2,-2,-1,2
1532146357675,-6,-2,-3,0,0,0,-1,-5
1532146357680,-5,-2,2,-1,-4,-5,-3,3
1532146357685,-1,-5,-4,-2,-1,0,-1,-5
1532146357690,3,-3,-1,-1,-1,-3,-4,2
1532146357695,8,14,5,2,1,0,4,5
1532146357700,-5,-5,-3,-2,-1,5,-5,-10
1532146357705,-11,-3,-3,-4,-3,0,-1,0
1532146357710,-7,-1,-8,-2,-1,1,1,-1
1532146357715,-19,-4,-1,0,1,-4,-3,-1
1532146357720,1,5,2,3,1,-3,1,0
1532146357725,2,-5,-6,-5,-6,-2,0,1
1532146357730,-9,-1,-1,1,-2,1,1,-6
1532146357735,6,6,6,7,2,-10,-3,2
1532146357740,-1,2,11,4,2,8,-4,-4
1532146357745,-4,-7,-3,-1,-1,0,-1,1
1532146357750,25,18,7,2,1,-1,3,12
1532146357755,12,-1,-9,-9,-6,0,1,-2
1532146357760,-29,-13,-10,-3,3,-4,-2,-5
1532146357765,16,12,11,10,5,0,-1,7
1532146357770,-7,-2,4,1,2,0,-1,-1
1532146357775,-2,-10,-7,-6,-5,-1,-3,0
1532146357780,-2,1,-4,-2,-2,0,-2,-3
1532146357785,5,-1,-4,-3,-2,-2,0,-1
1532146357790,-28,-14,-6,-3,0,-2,-3,-3
1532146357795,5,1,-1,-1,-1,-2,1,1
1532146357800,23,9,2,0,-1,-2,2,11
1532146357805,-21,-6,-3,-2,-2,-1,-2,-6
1532146357810,6,6,-1,1,0,-1,-2,-3
1532146357815,-19,-20,-3,-1,0,0,-3,-6
1532146357820,9,8,-2,0,-1,1,-1,-3
1532146357825,11,-2,-2,-2,-1,-1,-2,-2
1532146357830,-10,0,8,3,2,1,-2,-6
1532146357835,3,8,7,4,1,3,1,1
1532146357840,15,2,-1,-8,-7,-7,1,16
1532146357845,-24,-16,-10,-7,-6,1,3,-8
1532146357850,-4,-3,4,5,1,3,0,-8
1532146357855,16,4,3,0,-2,-2,-1,-1
1532146357860,-22,-7,1,3,1,0,-2,-4
1532146357865,1,-1,-7,-5,-3,-4,-1,0
1532146357870,20,-5,-8,-4,0,0,1,3
1532146357875,-6,2,7,5,6,5,-2,2
1532146357880,17,15,3,1,3,-2,4,8
1532146357885,1,-6,-1,-3,-2,0,-4,-4
1532146357890,-4,-2,-5,-2,-3,-2,2,-4
1532146357895,-3,0,-6,-4,-3,-1,-1,1
1532146357900,42,3,1,2,2,-2,-3,5
1532146357905,-15,7,11,7,3,2,-1,-1
1532146357910,10,-2,-3,-2,-1,-1,2,6
1532146357915,-16,-8,0,-4,-1,1,0,-4
1532146357920,12,2,-13,-9,-6,-4,0,-2
1532146357925,-17,-8,2,4,2,-2,-2,-4
1532146357930,-19,-14,0,-2,0,-4,-6,-4
1532146357935,8,0,-5,-2,-1,-1,0,-1
1532146357940,-2,-2,0,-3,-6,-2,0,0
1532146357945,5,-7,-6,-1,1,-3,3,-5
1532146357950,0,6,1,-1,0,3,-2,1
1532146357955,-6,0,10,9,4,2,1,-2
1532146357960,-2,-5,-3,-1,-2,-1,-1,-7
1532146357965,9,7,-5,-3,-2,0,-1,5
1532146357970,2,-4,-2,-2,-2,-1,2,0
1532146357975,2,2,-3,-3,-3,-3,0,-3
1532146357980,-8,-1,-2,3,1,0,0,-6
1532146357985,14,16,11,4,3,3,-1,7
1532146357990,-26,-3,-4,-3,-3,-1,-3,-4
1532146357995,18,-7,-1,0,-2,1,-1,0
1532146358000,-27,-18,-8,-4,-4,-3,2,-9
1532146358005,15,4,-7,-3,0,-2,-1,3
1532146358010,25,24,16,10,7,3,-4,2
1532146358015,-8,-7,2,-3,-2,-2,0,0
1532146358020,-9,6,-1,2,3,2,1,-6
1532146358025,2,-14,-9,-7,-3,-1,1,-10
1532146358030,10,5,-7,-3,-2,-4,3,4
1532146358035,-2,7,11,7,3,3,0,0
1532146358040,-25,-9,4,3,2,4,-1,-3
1532146358045,1,4,4,-1,0,2,-3,3
1532146358050,-7,-7,-8,-7,-4,-3,-2,2
1532146358055,-6,-2,-12,-3,-3,0,-1,1
1532146358060,-5,1,7,6,4,-2,-4,-1
1532146358065,-3,8,10,3,0,0,0,2
1532146358070,24,-1,2,0,0,1,2,4
1532146358075,-55,-22,-11,-7,-5,-3,-3,-1
1532146358080,7,7,-17,-12,-6,-3,-5,-6
1532146358085,8,5,11,12,9,3,-2,-3
1532146358090,-2,0,2,0,-2,-1,-1,-4
1532146358095,19,13,0,-1,0,-1,2,5
1532146358100,-40,-18,-1,-2,-2,-2,-5,-13
1532146358105,2,10,-3,-3,-4,-1,-1,4
1532146358110,-5,-23,-4,-3,-3,-2,-2,-7
1532146358115,12,-4,-4,1,0,-2,-3,-4
1532146358120,12,-4,0,2,1,1,1,8
1532146358125,-30,-1,-4,-4,-4,-1,0,-4
1532146358130,0,3,0,0,-1,-1,2,3
1532146358135,6,2,-3,-2,-2,-2,-5,-2
1532146358140,19,7,7,4,2,1,-2,10
1532146358145,3,1,-3,-3,-3,-3,-3,-1
1532146358150,-7,-11,-8,-5,-4,-4,-1,-2
1532146358155,5,1,-3,-3,0,-1,-2,-2
1532146358160,-15,20,11,4,1,0,-1,1
1532146358165,-11,-21,0,-1,-3,-2,1,-1
1532146358170,-17,-5,-3,-2,-2,0,0,0
1532146358175,32,9,0,-4,0,0,2,3
1532146358180,-43,-30,-11,-3,0,1,0,-5
1532146358185,24,24,3,3,0,0,1,6
1532146358190,8,9,-1,-2,-1,-2,-5,-5
1532146358195,-5,-3,4,1,0,0,0,-1
1532146358200,17,3,-3,-1,1,-2,1,1
1532146358205,-20,-7,-2,-1,0,1,1,2
1532146358210,2,-11,0,0,-1,1,-1,-8
1532146358215,4,-3,-3,-2,-1,-2,-4,0
1532146358220,3,4,-1,-4,-2,0,0,0
1532146358225,5,-14,-8,-1,-1,-1,-4,-1
1532146358230,3,-10,-5,-1,0,1,0,0
1532146358235,-14,9,9,3,-1,-2,-3,1
1532146358240,14,-6,-2,-1,0,-1,0,2
1532146358245,17,4,-3,-1,0,-4,-4,-8
1532146358250,-16,11,2,-2,0,-1,-2,-3
1532146358255,-28,-32,-11,-3,-2,-1,-1,-8
1532146358260,16,16,0,0,-1,3,0,1
1532146358265,8,5,-4,0,0,-1,-1,5
1532146358270,-7,-1,3,1,-3,-1,0,-2
1532146358275,1,-4,4,0,2,-1,1,3
1532146358280,11,6,2,1,6,10,5,-1
1532146358285,-15,-12,-4,-4,-7,-19,-7,0
1532146358290,-39,-8,-3,-2,-4,-3,-3,-4
1532146358295,-5,6,0,-1,0,0,-2,-2
1532146358300,-10,4,-2,-5,-4,-6,0,-4
1532146358305,10,-10,3,2,4,6,1,0
1532146358310,16,14,2,3,3,0,-2,7
1532146358315,-6,-1,5,0,-1,-2,-1,-7
1532146358320,2,-7,-14,-1,-2,-1,-4,-6
1532146358325,-2,7,2,-2,-1,3,2,-2
1532146358330,14,5,-3,-2,-4,-13,1,3
1532146358335,3,6,3,3,5,16,-2,-1
1532146358340,21,-4,2,-1,-3,-1,-3,2
1532146358345,-17,-10,-4,-1,0,1,-1,-2
1532146358350,1,2,-2,0,-1,2,1,-1
1532146358355,-1,-1,-3,-3,-3,-1,-2,2
1532146358360,5,2,4,3,-1,0,-2,-2
1532146358365,5,5,-3,-4,-2,-3,-3,-2
1532146358370,2,-9,-3,-4,-6,-10,1,-5
1532146358375,-3,-3,-6,-3,2,9,0,1
1532146358380,-7,0,9,4,3,5,-2,1
1532146358385,21,17,10,3,4,-3,5,5
1532146358390,-31,-18,-4,-2,0,7,-8,-8
1532146358395,22,4,-4,-2,-4,-10,0,0
1532146358400,-11,-1,-1,-1,-2,-5,-1,-3
1532146358405,15,10,-2,0,2,1,2,3
1532146358410,2,-1,5,1,0,-1,2,2
1532146358415,1,-3,-1,-1,0,-3,0,-1
1532146358420,-12,-14,-6,-1,-2,-1,0,-1
1532146358425,-2,0,1,0,-2,1,-1,2
1532146358430,16,18,3,0,0,2,0,-2
1532146358435,-15,-5,-3,-2,-3,-2,-2,0
1532146358440,10,5,4,3,4,-3,0,4
1532146358445,3,-6,-3,0,-2,1,0,1
1532146358450,9,5,0,1,-1,2,-3,0
1532146358455,-10,-9,-1,-2,-2,-3,0,-6
1532146358460,6,4,-6,-5,-5,-5,-2,-3
1532146358465,-15,-13,-4,-1,0,0,0,-3
1532146358470,20,8,4,-1,2,3,0,4
1532146358475,-27,2,1,1,0,0,-1,-3
1532146358480,4,-1,3,1,-1,-1,-1,2
1532146358485,0,0,-1,-5,-2,-2,0,0
1532146358490,3,3,-4,0,1,-1,-1,0
1532146358495,-1,2,1,-1,-2,3,-1,1
1532146358500,6,-10,-2,-6,-4,-1,-1,-6
1532146358505,8,-1,-4,-2,0,0,0,-3
1532146358510,-6,-5,7,5,3,0,-1,0
1532146358515,-2,2,-3,0,-1,-2,-1,-2
1532146358520,-6,-4,0,-2,-2,0,1,2
1532146358525,12,7,-8,-4,-2,-5,-4,-4
1532146358530,-2,-2,0,-2,-3,-1,-3,-1
1532146358535,9,-1,-1,2,0,-1,-1,0
1532146358540,8,20,4,2,1,1,0,4
1532146358545,-23,-34,-1,-1,-3,-1,-1,0
1532146358550,0,4,-2,-2,-1,0,-2,-1
1532146358555,1,4,-2,-1,-1,0,0,0
1532146358560,-1,-9,-4,-3,-2,-4,-1,-3
1532146358565,0,5,0,0,1,2,-1,-3
1532146358570,-2,-4,-5,-2,-2,-1,-3,-1
1532146358575,6,2,2,0,4,-1,0,1
1532146358580,-9,-3,1,-1,-1,0,0,3
1532146358585,2,-1,-2,0,0,2,-2,-1
1532146358590,10,3,5,-1,-2,-1,0,1
1532146358595,2,0,-5,-2,-3,-2,0,0
1532146358600,-3,2,-2,2,0,-2,-4,-5
1532146358605,-10,-4,0,-1,-1,-4,-1,-2
1532146358610,-1,3,0,1,-1,2,2,4
1532146358615,-1,-5,-1,-3,-1,-3,-1,0
1532146358620,-2,-10,-2,-3,0,2,3,-3
1532146358625,9,-2,-6,-2,-1,0,-2,-5
1532146358630,-11,-2,-2,-1,-1,-3,0,-4
1532146358635,2,-3,3,0,1,-1,0,-1
1532146358640,0,5,1,1,3,-1,-1,-2
1532146358645,-11,5,3,-1,-3,-1,-1,-2
1532146358650,0,-6,-5,-1,-2,-2,-1,1
1532146358655,6,6,-4,-4,-3,-2,-1,-5
1532146358660,7,1,-1,0,-1,3,3,1
1532146358665,0,0,3,-4,-4,-1,-1,0
1532146358670,-10,1,-6,5,11,3,0,-1
1532146358675,3,8,12,2,-5,0,0,0
1532146358680,-7,-9,-7,-5,-2,-2,-2,0
1532146358685,-25,-4,2,1,-4,-1,-2,-3
1532146358690,15,-6,-9,-3,-4,-4,-1,-1
1532146358695,-6,-3,1,0,0,-1,-4,-3
1532146358700,1,2,0,0,-1,-3,0,1
1532146358705,1,-1,-1,-3,-3,-2,1,1
1532146358710,-9,-5,-2,-5,-5,1,-3,-4
1532146358715,6,-4,-7,-2,1,0,0,0
1532146358720,7,-5,3,-1,-2,-1,-1,-1
1532146358725,20,19,-1,-1,2,0,-1,1
1532146358730,-8,0,5,-1,-2,-3,-2,-1
1532146358735,-13,-9,-4,-1,-2,-2,-1,-2
1532146358740,1,5,-8,-2,-6,-6,-1,-2
1532146358745,-7,-1,6,4,6,4,0,0
1532146358750,-5,6,2,-2,-2,0,-2,-2
1532146358755,-8,12,5,-1,0,0,0,2
1532146358760,-14,-28,-5,-1,2,3,0,3
1532146358765,-22,-8,-11,-5,-1,-4,-6,-6
1532146358770,-9,-4,6,4,0,0,1,1
1532146358775,1,5,-3,0,-2,-1,2,1
1532146358780,3,9,3,1,4,-4,-3,-2
1532146358785,10,0,3,0,-5,-1,2,1
1532146358790,1,-7,-5,-6,0,1,1,0
1532146358795,13,-2,-5,-4,-3,0,0,-1
1532146358800,5,0,-2,-1,0,-1,-3,-3
1532146358805,12,-3,0,-1,-2,2,1,-1
1532146358810,0,0,0,-1,-1,-1,0,-1
1532146358815,2,1,-2,0,6,0,0,0
1532146358820,-11,-4,5,-2,-15,2,0,-1
1532146358825,8,13,-6,-1,7,-2,-2,0
1532146358830,11,0,-1,3,0,-3,-3,-1
1532146358835,0,-16,4,0,-4,-8,-2,-1
1532146358840,-11,-5,-2,-1,7,6,0,-2
1532146358845,7,0,0,0,-2,-2,3,3
1532146358850,8,0,-3,-2,-1,7,-1,0
1532146358855,9,0,-1,0,-1,0,-1,0
1532146358860,9,3,3,-3,0,-2,-1,-2
1532146358865,9,-6,0,-1,-1,-2,0,1
1532146358870,1,4,-6,-3,1,-5,0,-1
1532146358875,-5,4,3,1,0,1,0,-1
1532146358880,-11,-9,-1,4,-1,-2,0,-1
1532146358885,3,45,15,4,2,4,1,2
1532146358890,-20,-32,-2,-5,-1,-7,-3,-4
1532146358895,1,3,-8,-2,11,3,-4,-5
1532146358900,-4,3,-6,-4,-39,-5,-1,-1
1532146358905,-5,-11,-6,-3,27,-7,-5,-2
1532146358910,-7,5,4,-2,-17,1,0,2
1532146358915,6,6,-2,3,2,-1,-1,1
1532146358920,-16,-8,3,2,14,1,-1,-2
1532146358925,1,-11,-3,-5,-13,2,0,-1
1532146358930,-4,-4,-7,-3,6,-4,0,-3
1532146358935,12,10,-3,-4,1,-1,-3,-1
1532146358940,11,11,2,2,2,-3,0,0
1532146358945,1,-8,0,3,-4,1,-1,-1
1532146358950,-3,3,-4,1,4,0,-1,1
1532146358955,-15,-18,-4,-5,-11,-2,1,0
1532146358960,5,8,-1,1,2,-1,-1,1
1532146358965,-5,-6,0,-1,-3,-1,-2,-1
1532146358970,9,11,5,6,5,1,1,-2
1532146358975,-6,12,12,4,-3,2,2,1
1532146358980,6,-19,-4,-3,5,-1,-2,-1
1532146358985,-3,-12,-2,0,-1,1,0,-1
1532146358990,7,3,-5,-7,-12,-4,2,0
1532146358995,1,8,3,-1,3,3,1,-1
1532146359000,1,3,-2,-3,3,0,-1,-2
1532146359005,5,0,-3,1,0,-3,-2,-1
1532146359010,0,-4,-2,-1,-6,-1,-1,1
1532146359015,-10,-10,7,-1,-4,-3,1,3
1532146359020,10,28,-5,1,8,-1,-7,-2
1532146359025,1,5,5,3,-3,0,-2,-2
1532146359030,-8,2,2,-2,0,-2,-1,-2
1532146359035,-3,-10,-7,-4,0,-1,-2,-3
1532146359040,-7,8,-3,-2,-4,0,1,1
1532146359045,2,-15,2,2,-2,-2,-1,-2
1532146359050,4,4,0,-3,0,-2,-1,1
1532146359055,2,-12,-3,0,-4,2,0,-1
1532146359060,-1,2,-4,-4,-2,0,0,-1
1532146359065,5,-3,-4,-3,-1,0,-1,0
1532146359070,2,-5,4,4,4,2,0,-1
1532146359075,-3,6,-4,-3,-3,0,-1,1
1532146359080,0,-1,-4,-2,2,-3,-2,0
1532146359085,-8,-12,-1,-5,-7,-1,1,0
1532146359090,3,6,-2,-4,0,2,1,1
1532146359095,-1,15,-2,8,7,0,-1,0
1532146359100,-4,-9,16,8,4,1,0,1
1532146359105,-2,4,-5,-4,-6,1,1,0
1532146359110,-5,-20,0,-3,-1,2,0,-1
1532146359115,-6,-3,-3,-3,-4,-5,-4,-2
1532146359120,-2,-8,-3,-2,0,-1,0,0
1532146359125,5,6,-4,-1,-2,0,0,0
1532146359130,6,7,3,3,0,-1,-2,-2
1532146359135,3,-4,1,-1,-3,0,0,-2
1532146359140,-3,-7,-3,-5,-3,0,-1,1
1532146359145,-3,1,-5,-6,0,-2,-4,-4
1532146359150,-2,2,-9,-2,-1,-3,-3,-3
1532146359155,-2,-7,10,7,-1,-1,-3,-1
1532146359160,-6,7,2,3,4,0,0,-1
1532146359165,-3,1,2,0,2,1,1,-1
1532146359170,-1,-9,-6,-3,-2,-2,-4,0
1532146359175,-3,-1,-8,-3,-6,-1,1,0
1532146359180,-8,-29,1,-3,2,-1,0,-1
1532146359185,9,16,2,1,2,1,0,2
1532146359190,-10,-5,-1,1,-1,-3,-3,-4
1532146359195,6,1,-2,-3,-2,-1,0,0
1532146359200,2,7,0,-2,-2,1,1,-1
1532146359205,-2,-9,-7,-4,-6,-7,-3,-2
1532146359210,2,2,6,-2,0,1,0,-1
1532146359215,0,0,-4,-1,2,1,-2,0
1532146359220,3,19,4,1,-1,1,1,-1
1532146359225,4,7,5,5,2,-3,-3,-4
1532146359230,-1,5,-1,1,0,-1,1,-1
1532146359235,-5,-4,-4,-6,-6,-2,1,-1
1532146359240,0,-12,-4,-4,-1,-2,-2,-2
1532146359245,-5,17,-1,0,1,2,1,-1
1532146359250,-3,-14,-2,-2,-3,-1,-1,-1
1532146359255,-2,-1,-3,-2,1,0,-2,-2
1532146359260,-1,-2,-4,-3,-6,-2,0,0
1532146359265,-1,-2,-4,-4,4,-3,1,0
1532146359270,3,12,6,8,-3,1,0,2
1532146359275,-7,-14,4,2,2,-3,-3,-1
1532146359280,-1,3,-2,-3,-2,0,-1,1
1532146359285,-2,-13,-5,-3,-3,0,-1,-1
1532146359290,-5,-2,0,-2,0,1,1,0
1532146359295,15,10,-3,-6,-4,-5,-3,-3
1532146359300,-1,-2,-2,-5,-1,-1,-2,-2
1532146359305,-3,7,1,5,1,2,0,0
1532146359310,-4,-10,7,5,3,0,0,1
1532146359315,-1,6,-2,0,-2,1,-1,0
1532146359320,0,21,1,0,1,-3,-2,-2
1532146359325,-6,-36,-3,-4,-6,-3,-2,-1
1532146359330,2,6,-5,-5,2,-1,-1,-1
1532146359335,-11,-8,-1,-3,8,1,2,-1
1532146359340,10,7,0,0,-5,-1,1,-1
1532146359345,-1,4,0,-1,-6,-1,-2,-1
1532146359350,-4,-12,-5,-5,-1,0,1,-1
1532146359355,1,2,-6,-4,-2,-3,-1,-2
1532146359360,0,19,2,6,1,0,-1,-2
1532146359365,-3,-12,6,5,1,1,1,0
1532146359370,0,7,5,4,0,-2,-3,1
1532146359375,-2,-3,0,-3,-1,-1,0,0
1532146359380,-1,-1,-7,-8,-7,-3,1,-2
1532146359385,-1,2,-3,-3,3,0,-2,-1
1532146359390,2,-6,-2,-1,-3,-1,0,-1
1532146359395,-3,4,0,0,-1,-1,1,1
1532146359400,3,-5,-2,-5,-1,-1,1,1
1532146359405,0,0,0,-1,-2,-4,-2,-2
1532146359410,5,5,-5,-2,-1,-2,-3,-2
1532146359415,-7,-15,7,0,0,1,-1,0
1532146359420,-1,-1,-8,-2,1,1,-1,-2
1532146359425,2,-3,2,1,-1,-1,0,0
1532146359430,-4,-6,1,-2,-1,-3,-2,-1
1532146359435,-2,21,2,2,-1,0,2,2
1532146359440,2,-9,-3,-3,0,-2,-4,-2
1532146359445,-1,-3,-6,-3,0,0,-1,0
1532146359450,-2,-1,2,1,0,-1,-2,3
1532146359455,-1,6,-1,1,-8,0,0,-3
1532146359460,-5,1,1,-1,9,-4,-3,-3
1532146359465,-1,3,-6,-1,-1,-3,0,-2
1532146359470,-2,-4,-2,-3,0,0,-1,0
1532146359475,-2,-6,-2,-2,-1,-2,-1,1
1532146359480,-2,0,1,0,-2,0,-1,0
1532146359485,1,-2,-1,-2,-5,1,-1,-1
1532146359490,1,-8,2,2,1,1,-1,1
1532146359495,0,-3,-5,-3,2,-4,-1,0
1532146359500,-5,6,-6,-3,-2,1,-1,-2
1532146359505,4,-13,2,3,0,-1,1,1
1532146359510,3,8,8,7,1,1,-1,0
1532146359515,-1,-4,-3,-3,-4,-2,-1,-3
1532146359520,-2,-2,1,-3,-4,-1,-1,0
1532146359525,-6,1,-2,-5,-3,1,0,0
1532146359530,-2,-5,-6,-1,0,-3,0,-2
1532146359535,2,0,5,5,1,-1,0,7
1532146359540,0,1,1,0,-3,-1,0,-6
1532146359545,-5,1,-1,-2,1,3,1,-1
1532146359550,-1,-6,-2,-2,-3,1,-2,-2
1532146359555,3,1,-8,-7,-1,-2,-1,-2
1532146359560,0,-2,2,1,-5,0,2,1
1532146359565,2,3,2,4,3,0,-2,0
1532146359570,-2,1,0,-1,2,-1,0,-1
1532146359575,-2,-4,-3,-2,1,2,0,4
1532146359580,1,-2,-3,-3,0,-1,-2,-4
1532146359585,-1,0,-2,-3,-3,-1,0,-2
1532146359590,1,-1,0,-1,-3,-1,-1,-3
1532146359595,5,3,1,0,1,-1,-1,-4
1532146359600,-2,6,-1,1,-1,-1,0,2
1532146359605,-3,-11,-2,-2,-4,-2,-1,-1
1532146359610,-2,-2,-2,-6,0,0,-1,1
1532146359615,-1,-1,-6,1,-4,0,-1,-1
1532146359620,-2,-2,6,1,3,2,-1,-1
1532146359625,-4,3,1,3,2,-1,-2,-2
1532146359630,0,2,2,3,-1,-2,0,-1
1532146359635,2,-2,-4,-3,-2,-3,-1,-4
1532146359640,-1,-4,-6,-3,-5,2,2,-1
1532146359645,3,4,1,-3,-2,-2,-1,0
1532146359650,-8,7,-2,-3,-2,-1,0,-2
1532146359655,-3,-24,1,2,3,0,-5,-5
1532146359660,2,0,2,5,-1,-3,0,2
1532146359665,1,3,-2,-1,-1,-1,-1,-1
1532146359670,1,1,-4,-2,-2,-1,1,2
1532146359675,-6,3,-2,-2,-1,0,1,-6
1532146359680,-2,-6,0,0,0,0,-2,1
1532146359685,5,3,-1,-1,-2,-1,-3,-6
1532146359690,-1,-3,-3,0,0,0,1,5
1532146359695,0,1,1,0,0,-1,-2,-4
1532146359700,0,-5,-2,-3,-2,-3,0,3
1532146359705,-2,7,-2,-2,-1,-1,-1,-5
1532146359710,-1,-7,-4,1,-2,-2,-3,-5
1532146359715,-2,1,-1,-3,-3,-1,-3,-4
1532146359720,-1,-1,1,1,1,-1,0,-5
1532146359725,-1,2,3,1,0,1,0,-1
1532146359730,2,-2,-3,-4,-4,-2,-1,2
1532146359735,-1,-1,1,2,3,3,2,3
1532146359740,-2,-4,-3,-5,-2,1,0,-2
1532146359745,0,4,-4,1,3,-3,0,0
1532146359750,-2,-1,-2,2,-1,1,0,-1
1532146359755,1,0,4,2,-3,0,1,2
1532146359760,0,-1,-3,-1,-3,-3,-2,0
1532146359765,1,0,2,-3,-1,1,-1,-1
1532146359770,-1,-4,-4,-6,-3,-5,-3,-4
1532146359775,-3,0,-1,5,5,1,2,-1
1532146359780,0,-4,5,3,0,1,0,-1
1532146359785,0,4,-1,-2,-2,-2,-1,-2
1532146359790,-2,-3,-4,-3,-1,0,-2,-1
1532146359795,-4,0,-3,-3,-3,-3,0,-1
1532146359800,0,1,0,0,-1,1,0,-2
1532146359805,0,-7,-1,-3,-1,-3,0,1
1532146359810,0,5,0,1,0,1,0,2
1532146359815,0,-4,-1,-3,-3,-1,-1,-1
1532146359820,-4,-6,-3,-3,1,1,0,0
1532146359825,-1,0,0,1,-1,-2,-2,-6
1532146359830,1,1,0,3,1,0,1,0
1532146359835,0,-3,-3,-2,1,0,-2,-4
1532146359840,-1,-3,1,1,-1,-2,-2,1
1532146359845,-3,1,-2,-4,-1,-2,-3,1
1532146359850,-3,-2,0,-1,2,-2,-2,-1
1532146359855,-2,-3,1,4,-3,2,1,1
1532146359860,5,5,-3,-4,-2,-1,-1,-1
1532146359865,-4,1,-1,1,-1,0,0,1
1532146359870,1,-4,3,1,0,2,-2,-2
1532146359875,2,2,0,-4,-2,-2,-1,0
1532146359880,-3,-5,0,2,-1,-2,-2,-1
1532146359885,-2,-2,-4,-5,-5,0,2,1
1532146359890,-1,-1,-4,-3,1,1,0,-5
1532146359895,-2,0,3,-1,-2,0,1,-2
1532146359900,1,-1,0,-1,0,-2,-2,-1
1532146359905,3,4,0,1,-1,-1,-1,1
1532146359910,-3,-1,-1,0,-3,-1,1,2
1532146359915,3,-3,-6,-6,-1,0,-2,-1
1532146359920,-2,-1,-1,1,0,1,0,1
1532146359925,-2,-1,3,2,1,-1,-3,-2
1532146359930,-1,0,-5,-5,2,2,-4,-7
1532146359935,1,1,7,2,-2,-2,-1,0
1532146359940,-2,9,-5,-4,0,0,0,-1
1532146359945,-6,-14,1,1,-3,0,1,-1
1532146359950,2,1,-1,-1,-2,-2,-1,0
1532146359955,-1,1,-1,1,-1,-4,-3,1
1532146359960,0,0,2,-4,-4,-1,-1,-1
1532146359965,-1,4,0,1,4,2,2,4
1532146359970,-3,-3,3,0,-1,-2,0,-5
1532146359975,-1,-1,-2,-3,-1,-3,-3,-1
1532146359980,-1,0,-1,2,0,-2,-1,-1
1532146359985,0,0,-1,-2,-3,-1,-1,1
1532146359990,2,-2,-3,0,-1,1,1,4
1532146359995,-1,-1,4,5,2,-2,0,1
1532146360000,1,-2,0,-1,0,-3,-2,-2
1532146360005,1,-2,-5,-4,-2,-1,-1,-3
1532146360010,-1,0,-4,-4,1,-1,-1,0
1532146360015,-3,-2,-9,-2,-2,0,0,-2
1532146360020,-3,1,4,2,-2,1,1,0
1532146360025,3,-10,1,3,0,0,0,0
1532146360030,0,3,1,-2,-3,-2,-1,-3
1532146360035,-1,-6,-7,-5,-4,-1,0,-2
1532146360040,3,6,-1,1,2,-3,-1,0
1532146360045,-5,3,4,1,2,0,-3,-4
1532146360050,0,-5,-2,0,1,-1,0,2
1532146360055,-4,1,-2,-3,-2,0,0,2
1532146360060,-3,-5,-1,-1,1,1,-1,-3
1532146360065,-4,-5,-6,-4,-3,-2,0,-1
1532146360070,-3,-2,1,0,-1,2,0,1
1532146360075,12,8,3,5,-2,-3,-1,-1
1532146360080,-4,-6,-6,-4,0,-1,-2,2
1532146360085,1,4,0,-1,1,-1,-2,-1
1532146360090,-1,2,0,-1,-1,1,0,-2
1532146360095,-2,-6,-4,-6,1,1,-1,0
1532146360100,2,-4,-2,-1,-5,0,0,-2
1532146360105,2,3,0,-1,2,-2,-1,0
1532146360110,-3,1,0,1,-1,-1,-2,2
1532146360115,-8,-16,-1,3,2,0,-1,-1
1532146360120,7,6,-1,0,1,0,-1,1
1532146360125,0,6,-1,-2,-4,1,-1,-4
1532146360130,0,-7,-3,-3,-6,-5,-2,-5
1532146360135,-1,3,-5,-3,0,0,-2,0
1532146360140,-2,-2,3,2,0,2,0,0
1532146360145,-4,-10,1,-4,-1,-1,0,0
1532146360150,5,12,-1,0,2,0,1,4
1532146360155,1,1,1,-2,-2,-1,-1,-3
1532146360160,-3,-6,0,1,-2,-3,-2,-2
1532146360165,3,7,-2,-1,-3,0,-1,-2
1532146360170,-2,1,-1,0,-1,0,0,1
1532146360175,0,-13,1,-1,1,-1,-1,1
1532146360180,-1,-4,2,-1,-1,-1,0,0
1532146360185,0,8,-3,-2,0,-2,-2,-3
1532146360190,-4,-17,-7,0,1,0,0,3
1532146360195,3,5,3,1,-2,-1,0,3
1532146360200,0,5,-5,-4,1,-1,0,-7
1532146360205,-2,-3,1,0,-1,0,-1,0
1532146360210,-6,-2,2,1,-1,0,-1,-3
1532146360215,4,10,-1,1,1,0,0,2
1532146360220,-6,-9,3,0,-1,1,-1,0
1532146360225,2,0,3,0,-2,-2,-1,2
1532146360230,-3,-7,1,-1,1,0,-1,-2
1532146360235,4,1,-4,-6,-2,-3,-3,-3
1532146360240,5,8,-6,1,-2,-1,0,0
1532146360245,-1,3,5,2,1,-2,-3,-1
1532146360250,-4,-2,2,2,-3,-2,-1,2
1532146360255,-5,-6,-2,-2,-2,0,1,-1
1532146360260,-2,-4,-5,-4,0,-1,-2,-1
1532146360265,-2,-3,-5,-4,-2,0,0,1
1532146360270,0,-1,5,1,0,1,0,-4
1532146360275,-2,2,0,-2,0,-1,-1,0
1532146360280,-3,-4,0,1,-2,1,-3,-4
1532146360285,4,-2,-1,0,1,-1,0,0
1532146360290,2,3,-3,-4,-3,-1,-2,-1
1532146360295,2,0,-6,-4,2,-1,-4,-3
1532146360300,-3,11,1,1,0,-1,2,1
1532146360305,1,-15,2,4,0,0,-1,-1
1532146360310,2,4,-4,-6,0,0,-3,-1
1532146360315,-4,10,3,2,-5,-2,1,-1
1532146360320,-7,-44,-2,-2,4,2,-3,-1
1532146360325,4,11,-8,0,1,0,-2,-3
1532146360330,3,9,6,4,1,-2,-1,1
1532146360335,-2,-3,1,-2,-2,0,-1,-1
1532146360340,-6,3,-2,-3,-3,-1,1,1
1532146360345,1,-3,-3,0,-3,-3,-2,0
1532146360350,0,-7,-2,0,-1,-2,-1,-1
1532146360355,-2,5,-1,2,1,2,2,0
1532146360360,2,4,-1,-2,-3,-4,-1,-1
1532146360365,-1,-4,-6,-3,0,-1,-1,-1
1532146360370,6,10,7,2,-3,0,1,1
1532146360375,-3,-8,-2,2,4,3,-1,-2
1532146360380,0,0,-2,-3,-2,-1,-2,-1
1532146360385,-4,0,0,-1,2,-2,1,1
1532146360390,-1,1,-5,0,-1,-1,-1,-2
1532146360395,1,13,1,0,-2,-1,1,-1
1532146360400,-5,-37,-2,-4,1,-1,-1,0
1532146360405,3,6,2,0,-2,-1,-1,-2
1532146360410,-4,5,-4,-4,0,1,3,0
1532146360415,-5,-19,-2,-1,-1,-1,-1,-1
1532146360420,3,13,-1,-1,-3,-2,-1,-1
1532146360425,-6,-5,2,-2,0,2,-1,-1
1532146360430,6,-4,-9,-4,-1,-4,-2,-1
1532146360435,2,6,0,-3,-6,1,1,-1
1532146360440,0,9,4,7,9,0,1,0
1532146360445,-5,-8,1,-1,-2,1,2,1
1532146360450,-5,7,0,-4,-1,0,-1,-2
1532146360455,-1,-21,-12,-6,-4,-3,-4,-4
1532146360460,4,20,10,6,3,0,1,0
1532146360465,1,-1,-2,-1,-2,0,-3,-1
1532146360470,-6,-3,2,0,-6,0,0,0
1532146360475,0,-4,-1,-2,3,-4,0,2
1532146360480,-1,-4,-3,-2,-3,-3,0,0
1532146360485,6,9,-4,-3,-1,-4,-2,-2
1532146360490,6,2,5,3,1,1,3,0
1532146360495,-7,-9,4,3,0,3,1,1
1532146360500,-6,4,-9,-4,-1,1,3,-1
1532146360505,-2,-10,0,0,-1,-1,0,-3
1532146360510,5,15,-3,-2,-1,-4,-4,-1
1532146360515,0,5,-1,-3,-1,-3,-6,-2
1532146360520,-1,10,0,-2,-3,-1,-2,-2
1532146360525,10,13,-4,-2,-6,0,-2,2
1532146360530,-6,-20,-1,2,2,1,-1,-2
1532146360535,2,7,5,3,-5,2,0,0
1532146360540,-6,-9,1,-1,2,-2,-2,0
1532146360545,0,7,-2,0,0,1,-1,-2
1532146360550,-3,-7,-2,-1,-1,-2,0,-1
1532146360555,5,-2,-5,-3,3,-3,-2,-3
1532146360560,1,-2,-5,-2,-5,0,1,-2
1532146360565,-5,-6,0,2,-1,1,1,0
1532146360570,-4,-10,-2,-5,0,0,2,0
1532146360575,-2,16,4,4,2,0,0,-1
1532146360580,8,2,1,0,0,0,-2,0
1532146360585,-7,-7,-2,-4,-3,1,0,1
1532146360590,9,5,1,0,-1,0,-1,-1
1532146360595,4,-1,7,5,2,2,3,1
1532146360600,-5,0,-9,-2,-3,-2,-6,-1
1532146360605,-2,-8,-3,-3,2,-1,1,-1
1532146360610,-12,-23,7,3,-2,-1,1,-2
1532146360615,7,-3,-27,-6,-4,-4,-4,1
1532146360620,-3,-2,-1,-4,-2,-2,-1,1
1532146360625,-7,-8,-20,-3,1,-1,1,-2
1532146360630,4,11,24,3,-2,-3,-4,-4
1532146360635,-5,0,6,5,2,-1,-2,-1
1532146360640,-2,16,-1,-2,2,2,2,0
1532146360645,-9,-47,-1,-5,-1,-1,-2,0
1532146360650,-1,28,-9,2,0,1,0,0
1532146360655,4,-14,1,0,1,-3,-4,-1
1532146360660,0,40,10,2,3,0,1,1
1532146360665,8,-27,-3,-5,-5,-6,1,-3
1532146360670,5,26,-12,-4,-1,0,-3,1
1532146360675,-7,-18,11,3,1,2,1,0
1532146360680,0,20,-8,-1,-1,0,1,0
1532146360685,4,18,22,6,1,-1,-3,-1
1532146360690,-12,-45,-16,-1,-1,-1,-1,-1
1532146360695,-5,22,-6,-6,-5,0,0,-1
1532146360700,12,-5,-15,-7,-6,-1,-3,-3
1532146360705,-4,13,10,1,0,0,0,0
1532146360710,4,-5,-1,-1,0,-1,-2,-1
1532146360715,-13,-1,0,-2,0,1,1,0
1532146360720,2,-11,-4,1,1,2,3,0
1532146360725,1,0,4,0,-2,-3,-3,-4
1532146360730,-8,-34,3,-6,-2,1,0,2
1532146360735,14,0,-7,1,6,-4,-4,-1
1532146360740,-1,19,23,7,-1,-1,0,-1
1532146360745,-2,-31,-23,-6,-3,-3,-1,-1
1532146360750,-5,5,6,-1,-6,0,-1,-2
1532146360755,-22,-19,-2,-3,1,-1,0,-2
1532146360760,-10,-11,16,-3,-5,-1,-1,0
1532146360765,19,32,-6,5,3,2,1,1
1532146360770,-1,19,13,2,-2,-1,-1,-3
1532146360775,3,5,-2,0,-3,-1,-3,0
1532146360780,-2,-26,-2,-2,-1,0,1,-2
1532146360785,-19,-3,-11,-5,-4,-1,1,0
1532146360790,17,18,-13,-1,-4,-1,0,3
1532146360795,10,25,13,2,1,-1,0,-2
1532146360800,1,5,4,1,-1,1,-1,0
1532146360805,1,-19,7,-5,1,-6,-4,-2
1532146360810,-5,-35,-22,0,3,-1,1,-1
1532146360815,-16,-15,10,-1,-1,1,2,1
1532146360820,6,0,-11,2,1,-3,-4,0
1532146360825,-5,28,9,6,1,1,0,1
1532146360830,-1,9,1,-5,1,-2,-3,-2
1532146360835,-1,-2,16,-4,-8,3,4,-1
1532146360840,-4,-41,-53,-2,-1,-1,-2,-1
1532146360845,0,15,24,6,2,0,0,1
1532146360850,-1,12,2,2,5,-2,-1,0
1532146360855,5,-7,-9,-4,-8,-1,0,1
1532146360860,-1,-11,6,-4,-5,-2,0,1
1532146360865,3,17,-2,1,1,3,0,0
1532146360870,-17,-47,-2,-1,-1,1,0,-2
1532146360875,15,41,-2,-1,-3,-2,0,-1
1532146360880,3,7,3,-4,0,-4,-2,0
1532146360885,-5,5,7,0,-1,2,0,-2
1532146360890,8,9,-17,-5,-6,-2,0,0
1532146360895,2,-6,2,9,3,-2,-2,-1
1532146360900,-5,-1,2,-1,-4,-1,-1,0
1532146360905,6,-6,-23,-8,-2,-1,-1,0
1532146360910,-2,3,16,2,2,-3,2,0
1532146360915,-3,0,-9,-1,2,-1,-1,0
1532146360920,-10,-14,14,4,1,3,1,-1
1532146360925,-4,12,3,-4,-5,-1,-2,-3
1532146360930,7,6,-6,-2,0,3,0,0
1532146360935,-17,-41,-11,-2,4,-1,1,-1
1532146360940,26,70,19,3,1,0,-1,-2
1532146360945,-4,-44,-16,-3,-1,0,0,-1
1532146360950,1,12,3,-5,-2,-2,0,-1
1532146360955,1,-16,-4,1,-3,-1,-2,0
1532146360960,-10,-2,2,-5,0,0,-2,-2
1532146360965,-6,-7,3,3,1,-1,-3,-2
1532146360970,-7,2,18,0,-2,1,0,-2
1532146360975,16,37,-9,-3,2,-1,-3,-1
1532146360980,-8,-6,3,-6,-7,-3,3,-1
1532146360985,-3,-3,-11,6,1,0,-2,4
1532146360990,4,-8,-2,0,1,0,-3,-5
1532146360995,-5,13,13,-3,2,3,-4,-1
1532146361000,0,4,20,-2,-4,1,-1,-4
1532146361005,-4,-20,-37,-4,-2,1,3,0
1532146361010,0,-23,-5,1,1,-2,-3,1
1532146361015,3,23,6,-3,-4,0,0,0
1532146361020,5,-8,-4,1,6,-1,-5,1
1532146361025,-1,20,10,0,0,2,2,-1
1532146361030,-27,-62,-8,-1,1,-2,0,-2
1532146361035,1,-6,-16,-11,-16,-6,-1,-1
1532146361040,-7,-28,-6,0,3,1,-3,-3
1532146361045,-2,10,15,0,-6,1,1,0
1532146361050,3,30,6,-2,1,-1,-1,1
1532146361055,-7,-16,-13,-2,-1,-2,0,-1
1532146361060,3,-42,-6,1,-2,-3,0,0
1532146361065,-2,6,4,1,0,0,1,0
1532146361070,23,46,-3,-1,-1,-3,-4,-2
1532146361075,8,30,3,-2,-2,0,1,1
1532146361080,-17,-51,-29,0,0,0,0,-2
1532146361085,-2,-8,11,-5,-4,-3,0,-1
1532146361090,3,28,-14,4,5,0,0,-1
1532146361095,-11,-34,-9,5,5,3,-3,0
1532146361100,4,25,9,-1,-4,-4,1,-2
1532146361105,1,5,-2,-2,-2,-2,-2,0
1532146361110,-14,-4,24,4,0,4,3,-3
1532146361115,4,5,14,-2,2,0,1,0
1532146361120,18,37,-10,-3,-3,-5,-2,-3
1532146361125,-5,-7,1,-5,7,-1,-4,-2
1532146361130,5,1,-9,-5,-3,-5,-1,0
1532146361135,-1,-24,-5,-2,0,3,0,-2
1532146361140,-13,-7,29,8,9,1,2,1
1532146361145,12,52,0,1,-1,-2,-1,-1
1532146361150,-2,-58,-9,-7,-4,-4,-2,-2
1532146361155,-5,-4,-1,-5,-5,-2,0,-1
1532146361160,-2,-10,-15,-1,3,4,1,1
1532146361165,-2,1,6,3,1,1,-2,-4
1532146361170,7,32,7,-4,-2,0,1,2
1532146361175,-2,-40,-21,7,-2,-3,-1,-2
1532146361180,11,35,2,-4,-5,-1,-4,-2
1532146361185,-4,-10,-2,-2,-2,-4,-2,-1
1532146361190,0,2,-2,0,0,0,0,1
1532146361195,2,2,7,-3,2,-1,0,-1
1532146361200,-6,-12,-14,4,5,2,-2,0
1532146361205,-5,-41,-18,-6,-4,0,1,-2
1532146361210,2,29,39,6,-5,-5,-4,-2
1532146361215,4,49,-25,-3,0,6,3,0
1532146361220,-9,-69,-9,0,7,0,-3,-1
1532146361225,0,-5,-11,-3,-2,-1,-1,-2
1532146361230,-2,5,-5,2,4,0,4,-2
1532146361235,-3,-4,12,1,0,-2,-2,-2
1532146361240,0,16,-7,-4,-5,-9,-2,-3
1532146361245,0,-10,3,2,4,6,0,2
1532146361250,-9,-14,-9,-1,-2,1,1,3
1532146361255,0,24,7,-3,-3,-4,0,-4
1532146361260,-2,-24,1,3,0,-1,-1,-2
1532146361265,3,18,14,-2,0,-4,-2,-1
1532146361270,-5,-4,-9,-1,-2,-1,0,1
1532146361275,-5,-16,-9,-2,3,2,1,1
1532146361280,12,27,14,-2,-3,-2,1,-2
1532146361285,8,33,-1,1,-1,-3,0,-1
1532146361290,2,-37,6,1,-1,1,-2,-2
1532146361295,-6,-18,-17,-4,-2,0,0,-3
1532146361300,-12,-17,-17,-5,-3,1,1,0
1532146361305,14,46,30,5,3,-1,-2,2
1532146361310,-6,-19,-46,2,-3,0,-1,1
1532146361315,4,5,19,3,3,-4,-1,-3
1532146361320,0,16,-24,-8,-5,-2,1,1
1532146361325,-8,-43,-11,-2,3,-1,-2,-1
1532146361330,-4,0,0,-6,-1,-2,-1,-1
1532146361335,2,-4,17,7,-5,6,1,-1
1532146361340,-4,17,-6,0,6,-1,-1,1
1532146361345,6,12,6,0,-8,-6,-4,-2
1532146361350,6,28,2,0,1,1,1,0
1532146361355,-3,-16,-4,-5,-1,-1,-1,2
1532146361360,1,11,14,3,-2,1,2,0
1532146361365,-3,-8,2,-2,-2,0,0,-3
1532146361370,0,-16,-8,-2,3,-5,-3,-2
1532146361375,1,10,-3,-3,-6,-8,-4,-2
1532146361380,-2,-6,11,2,5,0,-2,0
1532146361385,-7,-3,-5,1,6,1,0,-3
1532146361390,2,4,5,-1,-4,1,-1,0
1532146361395,-4,-6,4,-3,-3,-1,-2,-2
1532146361400,5,16,18,1,-4,-2,-3,-6
1532146361405,-9,-30,-38,-2,-2,0,-2,2
1532146361410,-1,7,9,3,6,2,-1,-3
1532146361415,2,-18,2,2,4,0,2,3
1532146361420,10,32,11,1,-1,-2,-3,0
1532146361425,-1,-12,-7,-3,-6,-1,0,-1
1532146361430,-6,-11,6,-4,-5,-2,-2,-4
1532146361435,-7,0,-8,-5,-1,2,2,1
1532146361440,5,-16,5,2,-2,-2,-2,-3
1532146361445,-3,6,8,2,-3,2,3,7
1532146361450,2,21,-4,-2,5,2,2,-1
1532146361455,4,1,-2,2,5,-2,-1,-3
1532146361460,-13,-17,-16,-9,-8,-8,-4,-3
1532146361465,-3,-22,1,-7,-3,0,0,-1
1532146361470,-3,-1,-4,-1,-8,3,-1,0
1532146361475,8,27,8,2,1,-5,-6,-4
1532146361480,-6,6,1,3,2,6,3,3
1532146361485,11,13,5,0,1,-3,-2,-2
1532146361490,-5,-8,-5,-2,-1,1,1,2
1532146361495,0,-12,-5,-2,-2,-2,0,-4
1532146361500,19,30,-4,1,-2,1,1,0
1532146361505,-9,-7,-5,-3,-4,-5,0,-3
1532146361510,2,28,1,2,0,0,2,0
1532146361515,0,20,9,-6,-7,-5,-2,-5
1532146361520,-9,-26,-6,1,1,-3,-4,-3
1532146361525,-3,-3,4,0,7,-2,0,-1
1532146361530,2,-3,-5,-5,-1,1,-1,1
1532146361535,5,16,-5,-4,-9,-2,-1,2
1532146361540,-11,-33,12,-4,2,4,2,-1
1532146361545,-9,22,10,1,2,-3,0,-1
1532146361550,17,-6,-12,-2,-2,-3,0,0
1532146361555,-11,-6,-22,-4,-6,0,-2,-3
1532146361560,2,6,13,1,2,-3,-3,-1
1532146361565,-4,4,-2,1,-4,-5,-3,-4
1532146361570,-1,-8,6,-2,4,12,2,1
1532146361575,-7,0,-13,-7,-4,-2,2,2
1532146361580,0,8,1,2,-2,-3,-4,-1
1532146361585,-48,-8,11,0,3,5,2,-4
1532146361590,33,7,-2,-2,-6,-2,-7,-19
1532146361595,-18,12,-1,6,8,-2,0,7
1532146361600,3,-10,24,-9,-7,1,3,3
1532146361605,5,9,-47,6,7,3,-3,-2
1532146361610,-4,12,10,-2,2,-3,-3,4
1532146361615,-9,-6,-8,-2,-4,-1,-2,-7
1532146361620,1,22,10,4,2,5,1,0
1532146361625,-3,-23,8,-4,-4,-8,0,-1
1532146361630,-3,-4,-2,2,1,0,3,5
1532146361635,11,-15,3,4,8,7,2,0
1532146361640,-9,15,-5,-3,2,-3,-2,-2
1532146361645,15,21,6,-6,-6,2,1,-2
1532146361650,-3,5,1,1,0,-3,-3,-5
1532146361655,1,12,5,0,0,-2,-3,0
1532146361660,-3,-2,-10,1,2,0,1,6
1532146361665,15,13,7,-1,-3,-2,-1,-2
1532146361670,5,-45,-7,-3,7,-2,-2,-1
1532146361675,-25,56,13,-2,0,-2,0,-8
1532146361680,39,-13,-25,3,-2,-7,-6,0
1532146361685,0,-7,10,0,2,7,4,3
1532146361690,-17,-1,-6,-4,-5,-5,-2,-2
1532146361695,23,-26,-8,-3,-5,-4,0,0
1532146361700,-7,23,8,-3,1,5,3,-7
1532146361705,14,4,2,6,6,1,-1,4
1532146361710,-10,-13,10,3,-1,-4,-4,-2
1532146361715,-1,1,-3,1,-1,-2,0,2
1532146361720,-7,19,7,-2,-7,-2,0,-4
1532146361725,7,-34,-8,-4,-4,-4,-2,2
1532146361730,-28,5,-11,-7,-9,-4,2,-3
1532146361735,14,-14,16,6,4,4,-1,6
1532146361740,-13,13,10,4,3,-3,0,4
1532146361745,22,13,20,0,-1,2,-1,-7
1532146361750,-48,-29,-33,1,5,-2,-1,0
1532146361755,50,-3,0,-6,-7,-4,-4,2
1532146361760,-50,-23,-11,-6,-4,0,-2,-6
1532146361765,-8,32,13,-2,-1,0,-1,1
1532146361770,33,24,19,6,-2,1,2,6
1532146361775,-22,-11,-10,-3,-2,-3,-3,-6
1532146361780,-3,-16,-5,4,3,-1,0,-1
1532146361785,-12,-3,-4,-2,-1,-4,-1,-1
1532146361790,36,8,-2,-3,-3,-2,-1,2
1532146361795,-6,-23,-19,-8,-4,-3,2,0
1532146361800,3,30,34,-3,-7,-6,0,-1
1532146361805,-21,-49,-66,0,2,5,0,-2
1532146361810,8,1,-3,-4,-1,3,-1,2
1532146361815,3,0,16,2,0,-7,-2,0
1532146361820,15,-4,-14,-6,-1,6,1,2
1532146361825,3,12,19,7,0,-2,2,-3
1532146361830,-6,4,1,1,2,5,1,-2
1532146361835,-8,8,14,0,3,5,1,1
1532146361840,3,-31,-20,-3,-4,-3,-3,-5
1532146361845,0,-16,8,0,-3,-8,-4,2
1532146361850,11,0,-4,0,-1,1,-1,-2
1532146361855,-16,-1,9,3,1,1,0,-2
1532146361860,13,-11,-5,-3,-2,2,0,3
1532146361865,11,33,16,-2,-1,-2,-1,-4
1532146361870,-5,3,-25,-1,0,-5,-3,-1
1532146361875,1,2,3,-3,-1,4,1,2
1532146361880,17,-7,-27,0,1,4,2,4
1532146361885,-16,-17,3,-1,-1,-1,-3,-3
1532146361890,8,23,14,-5,-6,-8,1,3
1532146361895,-7,-5,3,5,4,8,0,0
1532146361900,4,0,-4,2,1,-1,-1,-3
1532146361905,-6,7,18,-1,-2,2,1,0
1532146361910,-3,-2,-3,-6,-5,-10,-5,-4
1532146361915,0,-6,-10,1,2,3,-2,-1
1532146361920,2,12,22,2,7,-3,-2,0
1532146361925,-1,-13,-26,-2,0,-2,-2,0
1532146361930,-15,-4,5,-1,-4,-1,0,-1
1532146361935,21,-13,-22,-5,-1,-3,3,5
1532146361940,-18,9,18,-3,-4,-1,-2,-9
1532146361945,8,1,-14,2,0,-2,-5,5
1532146361950,-2,1,7,-3,3,1,0,-5
1532146361955,-7,-10,-21,3,-3,-6,-2,-3
1532146361960,-9,12,11,2,1,9,2,2
1532146361965,9,2,0,-6,-3,0,1,-2
1532146361970,12,-5,7,0,-2,-3,-1,0
1532146361975,-6,13,6,-1,1,7,1,0
1532146361980,5,-16,-8,3,0,-5,-1,2
1532146361985,-4,-8,-9,-2,1,-4,-4,-1
1532146361990,-13,-3,4,0,-1,2,2,6
1532146361995,6,3,5,-3,-5,-8,-2,-5
1532146362000,-16,15,2,-2,-1,1,0,-2
1532146362005,10,-1,-1,-1,-2,0,-1,-3
1532146362010,-2,2,0,1,4,-2,-3,0
1532146362015,27,7,-3,-1,-2,-3,-1,5
1532146362020,-31,-25,6,-1,0,-1,-1,-2
1532146362025,0,-4,-7,-3,-2,-4,-2,1
1532146362030,-12,-4,8,3,1,3,-1,-1
1532146362035,-5,9,-1,-1,4,5,-3,-8
1532146362040,9,14,-14,2,-1,-1,-2,-1
1532146362045,5,-13,-5,-2,0,-1,0,0
1532146362050,-8,-22,-1,-1,0,1,0,-1
1532146362055,-11,-3,4,1,0,-2,0,2
1532146362060,4,2,-2,-4,-3,-3,-2,0
1532146362065,-4,-7,7,0,-1,3,0,-1
1532146362070,14,12,-19,-3,-6,-1,-1,2
1532146362075,-36,-10,3,-3,-4,-4,-3,-11
1532146362080,22,3,-2,-1,-2,-4,2,4
1532146362085,3,3,-4,-2,3,2,-2,1
1532146362090,-11,7,6,-1,1,2,1,4
1532146362095,-9,3,-4,-3,-2,-3,-4,-9
1532146362100,22,-22,-16,-3,1,-4,-1,2
1532146362105,-8,-1,-6,2,-2,3,3,-2
1532146362110,7,35,43,1,-3,-2,-2,-1
