1532063046764,-2,-6,-5,-12,-8,-1,-2,0
1532063046769,0,3,1,5,0,0,1,-1
1532063046774,-3,-10,-2,-2,0,1,-1,-1
1532063046779,0,3,5,14,1,-1,-2,-1
1532063046784,-3,-2,-2,-12,0,-1,-1,-2
1532063046789,1,13,2,1,0,0,1,0
1532063046794,-4,-18,-11,-13,-7,-2,0,-1
1532063046799,-3,-6,2,-12,-7,-1,-1,-2
1532063046804,2,6,-1,7,1,-1,1,-1
1532063046809,4,13,1,-4,3,-1,-1,2
1532063046814,-1,1,8,-5,2,1,-1,-1
1532063046819,-3,-18,-10,18,2,0,1,-1
1532063046824,0,9,2,-6,1,-1,0,-2
1532063046829,-2,-5,-4,-10,-2,0,0,-3
1532063046834,0,13,1,8,-1,-2,-3,0
1532063046839,0,-3,-3,-9,-4,0,-2,-1
1532063046844,1,-4,-2,8,-2,-2,-2,-1
1532063046849,0,4,3,-17,-3,0,-1,-1
1532063046854,1,7,1,10,4,0,0,0
1532063046859,-5,-10,1,19,0,-1,-2,-1
1532063046864,-4,-19,-14,-23,-5,-3,-2,-2
1532063046869,-1,-5,3,8,-1,-2,-1,-1
1532063046874,2,13,2,-9,0,-1,1,1
1532063046879,2,5,4,12,3,0,-1,0
1532063046884,0,8,5,9,3,-1,1,1
1532063046889,-1,-1,-4,-5,-3,-1,-2,-1
1532063046894,-3,-6,-3,-10,-3,-1,-3,-1
1532063046899,-4,-5,-2,4,3,1,0,1
1532063046904,-1,7,4,-8,-1,-1,1,0
1532063046909,-2,-12,4,8,-1,-1,-2,0
1532063046914,-2,1,-11,-3,4,1,-1,0
1532063046919,0,0,-3,-11,-3,-1,-2,-1
1532063046924,-2,5,1,11,-1,0,-2,-1
1532063046929,0,5,1,6,2,0,2,1
1532063046934,0,-14,0,9,3,0,1,-1
1532063046939,-3,-3,-1,-22,-4,-3,-3,-3
1532063046944,-2,1,0,6,-1,2,-1,1
1532063046949,-1,1,-4,-12,0,0,-3,-1
1532063046954,-2,3,1,20,-5,-3,-4,0
1532063046959,-1,8,-7,-22,0,-2,1,-1
1532063046964,0,-1,15,21,0,0,0,-1
1532063046969,-2,-11,-6,-3,1,-1,-2,-1
1532063046974,0,-4,-5,-9,-3,-1,0,-3
1532063046979,0,-2,2,12,5,0,-1,0
1532063046984,1,9,3,-5,-1,0,1,1
1532063046989,-1,2,4,8,0,0,0,-1
1532063046994,-1,-6,-4,-13,-1,-2,-1,-2
1532063046999,-1,-2,-5,-2,-9,-3,-1,0
1532063047004,2,0,-5,-2,1,1,-1,-1
1532063047009,-2,-7,1,15,4,-1,0,-1
1532063047014,0,12,-1,-1,-7,-1,-2,1
1532063047019,1,5,1,-6,-1,0,1,0
1532063047024,-2,-11,-3,5,3,-1,0,-2
1532063047029,1,4,1,7,-4,-2,-1,0
1532063047034,1,9,11,11,7,1,-1,1
1532063047039,-3,-9,-3,10,-8,-2,-1,-2
1532063047044,-2,-12,-13,-2,1,-1,2,-3
1532063047049,0,12,4,-4,-3,1,0,0
1532063047054,-1,-8,-4,-7,2,2,2,-2
1532063047059,1,6,2,4,2,-1,0,0
1532063047064,0,13,7,-13,0,1,1,-2
1532063047069,-2,-15,-10,0,-2,-2,0,-2
1532063047074,-1,6,1,-9,-9,-3,-3,0
1532063047079,1,-4,0,-2,7,1,0,-1
1532063047084,0,-1,0,8,-1,-1,-3,0
1532063047089,2,3,-1,-15,0,-1,0,-2
1532063047094,0,-4,4,5,0,0,3,1
1532063047099,-2,-4,1,2,-1,2,-3,-2
1532063047104,-3,1,0,-4,-2,0,-3,-3
1532063047109,0,-5,0,0,3,0,-1,1
1532063047114,-4,-5,-5,-1,2,-1,0,-4
1532063047119,2,4,4,4,5,0,1,-2
1532063047124,0,2,-2,9,-4,0,-1,0
1532063047129,1,-4,-3,-4,-1,0,1,0
1532063047134,-2,-4,-3,-7,-3,0,-2,1
1532063047139,-3,-2,0,5,3,0,0,-1
1532063047144,-2,-1,-1,-16,-1,-1,-1,-3
1532063047149,-7,-9,-3,15,-15,-7,-8,-1
1532063047154,1,6,2,-7,0,-4,-1,0
1532063047159,4,3,-2,-7,-4,-2,0,1
1532063047164,-1,-1,0,-2,-1,0,0,-1
1532063047169,2,-3,-7,-6,4,2,2,1
1532063047174,9,-4,-1,-4,-2,-1,-1,1
1532063047179,-18,-1,0,-10,0,-1,-3,-5
1532063047184,8,0,-3,4,-1,-1,-1,1
1532063047189,-4,0,1,0,1,-1,0,-2
1532063047194,0,-3,-3,4,-1,3,-2,0
1532063047199,5,-2,0,2,1,0,-1,2
1532063047204,-3,0,0,-7,-3,-2,-1,0
1532063047209,0,-2,1,0,0,-2,-3,-1
1532063047214,-3,0,-1,-1,-2,-2,-2,-4
1532063047219,2,4,1,-2,0,0,2,-1
1532063047224,-4,-13,-2,3,-1,-2,-4,-3
1532063047229,-3,-2,-1,-1,2,0,-2,2
1532063047234,-1,-8,-4,4,3,-1,0,0
1532063047239,2,1,-2,4,-3,0,-3,-1
1532063047244,1,7,-3,-13,-5,-2,4,3
1532063047249,-1,3,3,-5,0,1,0,-3
1532063047254,-4,-9,-3,-1,0,-1,-2,0
1532063047259,1,1,1,5,2,2,4,1
1532063047264,-1,2,0,-1,1,-1,-3,0
1532063047269,0,0,0,-2,0,-1,-1,-2
1532063047274,-2,4,-1,0,-2,0,4,0
1532063047279,1,-1,-2,5,-1,-1,0,-1
1532063047284,-1,-2,1,-12,-5,-1,-1,0
1532063047289,0,-4,2,0,3,1,-2,-1
1532063047294,-2,-7,-3,-5,-4,-3,0,-2
1532063047299,-1,-6,-4,5,1,-2,-1,0
1532063047304,-2,3,0,3,2,-2,-1,-2
1532063047309,1,-3,-3,-3,-3,0,1,-1
1532063047314,-1,0,3,-2,1,1,-3,-1
1532063047319,0,2,2,1,-3,-1,2,2
1532063047324,-2,-1,-2,7,2,0,-3,-2
1532063047329,-2,0,-2,-19,-8,-5,-4,-2
1532063047334,-2,3,0,2,-2,1,1,-1
1532063047339,1,-2,-2,-1,5,1,-2,-1
1532063047344,-1,1,3,5,-2,-1,2,0
1532063047349,-4,-4,-1,8,1,0,2,-2
1532063047354,5,0,-1,4,1,-1,-2,1
1532063047359,0,1,-3,-7,-2,-2,3,-1
1532063047364,1,0,-3,-6,-1,-1,-6,0
1532063047369,5,4,1,8,1,0,2,2
1532063047374,6,1,0,-6,-4,-1,-3,-2
1532063047379,-28,-12,0,1,-3,1,6,2
1532063047384,-3,-3,-7,6,-2,1,-3,-3
1532063047389,-13,3,-1,1,-6,-2,-3,-3
1532063047394,11,3,3,6,1,0,0,0
1532063047399,8,2,5,10,4,2,-3,1
1532063047404,-9,-3,-2,-12,1,-1,5,0
1532063047409,14,1,-3,-4,-2,0,-10,0
1532063047414,-8,0,4,29,3,1,15,4
1532063047419,-4,-2,-5,-5,-4,-6,-15,-8
1532063047424,4,-3,-10,-63,-12,-3,-3,1
1532063047429,15,9,2,-9,6,-2,2,-1
1532063047434,-20,-15,-4,-9,-2,-2,-1,4
1532063047439,-27,1,-3,33,-2,-1,-6,-6
1532063047444,-3,-2,5,8,0,1,4,0
1532063047449,3,-1,-2,4,0,-1,14,10
1532063047454,9,2,-1,3,-1,-1,-17,-8
1532063047459,5,4,-1,-15,-2,1,-1,-2
1532063047464,19,4,4,33,8,2,6,6
1532063047469,-54,-13,-7,-16,-4,0,-7,-15
1532063047474,13,1,-1,2,1,-1,-1,0
1532063047479,37,8,0,-9,2,0,4,4
1532063047484,-31,-4,2,22,-1,0,5,2
1532063047489,-11,-3,10,34,-2,-3,5,0
1532063047494,87,32,-1,-17,5,1,-3,8
1532063047499,-75,-20,-19,-62,-20,-10,-6,-7
1532063047504,-44,-22,-1,2,6,-9,-9,-8
1532063047509,31,7,2,9,-10,0,0,-5
1532063047514,-44,-7,3,5,16,9,4,-2
1532063047519,99,12,5,-11,13,11,12,12
1532063047524,1,6,0,2,-5,-3,-7,-1
1532063047529,-30,-16,-2,8,0,-3,-8,-10
1532063047534,21,-8,1,4,-9,-7,1,10
1532063047539,5,7,0,11,4,0,3,-4
1532063047544,-26,0,-3,15,-1,-1,-8,-10
1532063047549,-19,-7,-4,-15,-4,-1,5,-6
1532063047554,-3,1,-8,-28,-17,-6,-19,-2
1532063047559,-31,-7,4,63,1,1,0,-2
1532063047564,25,4,-1,-9,3,0,0,2
1532063047569,15,6,-1,-4,5,0,-7,5
1532063047574,-28,-3,-4,-20,0,-1,7,-5
1532063047579,-5,-6,2,-6,-4,-2,-2,-1
1532063047584,14,3,-2,3,-6,0,-1,1
1532063047589,20,16,6,-2,11,2,2,8
1532063047594,-24,-9,-1,23,1,0,2,-4
1532063047599,10,-13,-10,-54,-18,-6,-6,2
1532063047604,26,6,1,-6,3,2,2,-5
1532063047609,3,-9,-10,-8,-8,-1,2,6
1532063047614,-38,6,6,21,3,-1,-2,-11
1532063047619,8,14,3,19,4,-1,-1,2
1532063047624,2,23,5,-7,0,2,4,5
1532063047629,-4,-48,-5,-2,0,0,-1,-4
1532063047634,0,-10,-9,8,-4,-2,-2,-5
1532063047639,-4,2,2,-6,1,-3,-1,-2
1532063047644,-2,20,0,11,-12,-3,-2,0
1532063047649,10,-16,-1,-5,3,2,-4,3
1532063047654,1,-2,0,11,7,3,6,-2
1532063047659,-12,-8,-4,-3,2,0,-2,-4
1532063047664,12,13,7,10,10,2,0,0
1532063047669,9,23,7,51,6,1,5,0
1532063047674,-13,-31,-28,-80,-40,-11,-11,-5
1532063047679,-2,12,10,3,8,1,-1,-1
1532063047684,2,-9,4,23,0,-1,0,0
1532063047689,1,9,-1,-9,6,1,3,-2
1532063047694,2,26,7,-15,3,0,3,2
1532063047699,-5,-42,3,2,-3,0,-1,1
1532063047704,-5,-6,-14,-32,-15,-1,-4,-3
1532063047709,-7,-8,-11,-18,-5,0,-2,-2
1532063047714,9,48,13,17,14,2,0,2
1532063047719,-1,-28,-10,-38,-26,-6,-2,-1
1532063047724,-5,-21,-6,16,11,-2,0,-1
1532063047729,-1,9,3,-10,1,-1,-8,-2
1532063047734,0,-2,-2,-15,-6,-4,0,-5
1532063047739,0,20,1,38,6,1,1,-2
1532063047744,1,-18,-9,-13,6,5,5,1
1532063047749,2,10,2,-10,-5,-2,-3,1
1532063047754,3,1,9,24,8,2,0,5
1532063047759,-5,-3,-15,-21,-7,-4,-2,-4
1532063047764,1,-8,-1,-12,-1,0,-2,-2
1532063047769,0,9,3,-1,-3,0,-1,0
1532063047774,-3,-12,5,39,9,0,-1,0
1532063047779,0,4,-1,1,-7,1,1,0
1532063047784,2,2,-5,-17,-1,1,0,2
1532063047789,-1,3,-1,3,2,-1,0,-3
1532063047794,-3,-14,-2,-13,-3,-1,-1,-3
1532063047799,0,4,2,0,2,0,-3,1
1532063047804,1,2,6,-28,1,0,1,-1
1532063047809,2,0,1,32,3,2,1,2
1532063047814,-15,-14,-6,25,-4,-3,-4,-2
1532063047819,21,5,0,8,8,-2,-1,2
1532063047824,-17,1,6,30,-6,-2,-4,-2
1532063047829,18,8,2,5,5,0,4,0
1532063047834,-33,-21,-18,-72,-17,-4,0,-6
1532063047839,-8,3,2,-4,3,1,-2,1
1532063047844,2,-4,0,2,-1,-3,-1,1
1532063047849,-2,-3,-2,12,-4,-4,-3,-4
1532063047854,12,2,1,5,2,1,0,3
1532063047859,-3,2,-1,12,4,-1,1,-1
1532063047864,4,-3,3,1,-2,-1,-1,2
1532063047869,-8,-5,-15,-51,-5,-3,-1,-3
1532063047874,0,-1,3,42,3,3,4,-3
1532063047879,-2,-3,-1,33,2,0,-6,4
1532063047884,4,2,0,13,-7,-3,-6,-4
1532063047889,11,-1,0,5,-10,-5,-4,4
1532063047894,15,10,-1,-14,5,2,3,2
1532063047899,-53,-26,-1,30,-4,-3,-6,-3
1532063047904,2,-3,-1,-45,5,2,7,-2
1532063047909,-15,-1,-4,24,-15,-3,-7,-1
1532063047914,7,3,4,17,2,-1,-6,2
1532063047919,16,10,2,4,5,1,3,1
1532063047924,0,-6,-2,-21,2,-1,1,0
1532063047929,-14,-4,-4,-15,1,2,2,-2
1532063047934,9,4,5,30,11,0,2,-1
1532063047939,-4,-2,-9,-72,-31,-8,-8,-6
1532063047944,0,-4,3,18,3,-1,-3,-2
1532063047949,8,4,5,-5,-6,2,2,-1
1532063047954,-1,1,5,21,17,4,2,2
1532063047959,3,7,1,-36,7,1,4,4
1532063047964,7,-4,-11,25,-9,-2,-1,-9
1532063047969,22,12,12,9,8,3,1,9
1532063047974,-38,-22,-5,-7,-9,-4,-3,-9
1532063047979,-5,-4,4,15,0,-3,-4,-5
1532063047984,5,0,0,15,-4,-1,-3,8
1532063047989,-1,0,-7,-19,3,-2,0,-1
1532063047994,21,5,3,17,3,0,1,-2
1532063047999,13,10,2,-33,-4,-1,3,-1
1532063048004,-23,-17,-9,23,-9,-6,-6,-5
1532063048009,-1,-1,3,-1,1,1,3,2
1532063048014,1,10,-2,-24,-1,-3,-2,0
1532063048019,10,8,4,7,4,0,2,-1
1532063048024,3,5,-1,-5,5,1,0,0
1532063048029,-15,-28,-13,-17,-4,-4,-3,-6
1532063048034,1,15,4,-35,-12,-1,-5,2
1532063048039,6,-24,4,27,4,3,2,1
1532063048044,-3,6,-2,-9,2,3,1,-1
1532063048049,-4,9,2,33,9,1,0,-3
1532063048054,21,19,-11,-92,-16,-5,-5,1
1532063048059,-14,43,13,30,-7,1,1,5
1532063048064,-5,-7,4,13,6,1,3,-3
1532063048069,-19,-59,-19,25,0,-1,-7,-8
1532063048074,-8,-31,2,-18,3,-2,-2,-5
1532063048079,4,-1,-6,-16,0,-1,-4,-5
1532063048084,13,50,8,5,-3,3,7,9
1532063048089,0,26,12,-5,9,5,6,5
1532063048094,7,-47,-2,23,8,3,-2,-3
1532063048099,-5,3,-16,-9,-12,-6,-4,-10
1532063048104,6,1,5,22,-4,-3,-7,2
1532063048109,-17,26,12,1,-2,-1,-2,-4
1532063048114,2,31,6,0,-7,0,4,6
1532063048119,-1,-50,-5,19,12,3,4,0
1532063048124,-7,-24,-11,-15,-3,-2,-3,-4
1532063048129,9,5,4,-21,-2,-2,-2,2
1532063048134,-3,10,1,28,-4,-1,-1,0
1532063048139,4,21,3,1,5,2,-1,0
1532063048144,-1,-1,0,-6,-3,-5,-1,-1
1532063048149,1,-12,-5,-13,1,-1,-2,-1
1532063048154,-4,6,-1,2,-2,-3,1,-1
1532063048159,3,3,-1,10,0,-2,-2,-1
1532063048164,-2,-16,-3,-13,4,0,-2,0
1532063048169,2,2,-10,-14,-10,-3,-1,0
1532063048174,-3,-7,-13,5,-3,-2,1,-2
1532063048179,-1,-8,26,5,3,0,-3,0
1532063048184,-1,-1,0,-3,2,1,1,-2
1532063048189,1,1,-14,-4,-6,-3,-4,-2
1532063048194,-1,-1,2,-6,-4,-2,-2,0
1532063048199,2,0,-10,-3,2,-1,3,0
1532063048204,1,7,6,7,-1,-3,-1,0
1532063048209,0,-8,2,0,3,1,-1,-2
1532063048214,-5,-15,-9,1,2,2,-1,-1
1532063048219,-1,-11,-7,0,0,-1,-1,-4
1532063048224,2,19,3,-6,-4,0,0,1
1532063048229,1,-2,3,-9,-3,-4,0,2
1532063048234,-3,6,2,6,2,-1,-1,-1
1532063048239,-7,-45,-5,-1,0,-1,-3,-3
1532063048244,-3,-1,-3,-3,-2,-1,-3,-5
1532063048249,2,4,2,-3,0,0,0,-2
1532063048254,3,15,6,4,-1,-2,2,1
1532063048259,5,13,-2,1,-6,0,1,2
1532063048264,-1,-12,-5,-8,4,1,-1,-1
1532063048269,-1,-4,2,1,-2,-2,0,-3
1532063048274,0,0,0,4,1,2,0,0
1532063048279,0,11,-4,-6,0,-1,-1,-1
1532063048284,-3,-7,0,-5,-6,-2,-2,-1
1532063048289,0,6,2,1,2,1,-1,-1
1532063048294,1,-9,-2,2,2,-1,-2,-1
1532063048299,1,8,-2,-1,-1,0,0,0
1532063048304,0,0,5,-4,-5,-1,2,-1
1532063048309,0,-3,-3,-4,-1,-2,-1,-2
1532063048314,-1,-5,-3,0,-4,-1,0,-1
1532063048319,0,11,1,-1,0,-2,-2,0
1532063048324,-3,-8,-2,3,0,0,-2,-1
1532063048329,0,-1,-1,0,1,0,-2,-1
1532063048334,-1,-3,-2,1,-3,0,-1,-2
1532063048339,-1,6,-2,-6,-1,-1,-2,0
1532063048344,0,-2,-3,-4,-1,-1,-2,0
1532063048349,0,-2,1,-3,0,-2,-1,-1
1532063048354,0,2,8,11,-1,3,2,1
1532063048359,-1,0,-4,-14,5,2,0,-3
1532063048364,-2,-5,-4,-2,-5,-1,-1,-2
1532063048369,-1,2,-3,-5,-2,-1,-1,1
1532063048374,-1,-1,1,-2,1,-1,-3,-1
1532063048379,-2,1,3,7,-1,-2,0,0
1532063048384,-1,-3,1,0,2,-3,-1,-2
1532063048389,1,2,2,-4,-2,-2,-3,-2
1532063048394,-2,-5,-4,1,1,0,-2,-1
1532063048399,0,-1,-1,0,-2,-1,0,-1
1532063048404,2,1,4,9,3,2,1,0
1532063048409,-1,-2,-4,6,-4,0,2,0
1532063048414,0,-2,-3,-6,0,-1,-2,0
1532063048419,-2,-5,-12,-43,-12,-4,-4,-4
1532063048424,-1,-1,0,2,-1,-1,0,-1
1532063048429,0,2,2,9,0,0,1,-1
1532063048434,-2,0,2,6,1,-3,0,-1
1532063048439,-1,3,2,9,2,1,-1,0
1532063048444,-2,-2,-1,-4,-1,-2,-2,1
1532063048449,-2,-2,-1,-5,-3,-2,-1,-2
1532063048454,-3,-2,-4,-5,-7,0,-1,-1
1532063048459,2,2,5,10,9,3,1,0
1532063048464,-1,-1,-4,-5,-1,-1,-1,-1
1532063048469,0,0,-1,1,2,1,-2,0
1532063048474,0,-1,-1,0,-4,-2,1,-2
1532063048479,-1,-1,1,8,-2,0,-1,1
1532063048484,-1,-1,-1,0,1,-1,-2,-1
1532063048489,-1,-2,0,-3,-3,-3,-1,-1
1532063048494,0,-1,-1,-6,1,0,0,-1
1532063048499,-1,0,1,3,-3,-1,1,0
1532063048504,0,-1,0,6,1,1,0,1
1532063048509,0,1,1,0,-2,-1,-2,-2
1532063048514,-2,-1,0,-6,2,1,-2,-2
1532063048519,-1,-2,-5,-17,-7,-4,-2,-2
1532063048524,-1,-3,-2,1,-1,-1,-1,1
1532063048529,0,-1,2,4,1,-1,1,-2
1532063048534,0,0,-4,8,0,-2,-2,1
1532063048539,2,0,5,14,3,-1,0,0
1532063048544,-1,-1,-3,-12,-4,-2,-1,-3
1532063048549,-2,-1,-1,-1,0,-2,0,-1
1532063048554,-2,-1,-1,-1,1,0,1,0
1532063048559,0,0,1,5,4,-1,-3,0
1532063048564,2,-1,0,-1,-10,1,-2,-2
1532063048569,-1,-2,-1,3,11,1,1,1
1532063048574,-3,-2,-3,-1,-5,-3,-1,-1
1532063048579,-1,0,-1,4,1,-1,0,1
1532063048584,-1,-2,0,-4,0,0,0,-3
1532063048589,-1,-2,-4,-5,-5,-1,-3,-2
1532063048594,1,-2,-2,1,0,-1,-1,-2
1532063048599,-1,0,3,6,1,-1,0,0
1532063048604,-1,1,0,-9,2,-3,0,0
1532063048609,-2,-4,-8,-19,-10,-2,0,-1
1532063048614,0,1,4,2,1,0,-1,-4
1532063048619,-2,-2,-4,-2,-4,-1,-1,0
1532063048624,-1,-2,2,10,-1,-1,-1,-1
1532063048629,-1,1,1,1,-1,1,-1,-2
1532063048634,0,1,-1,-4,-2,1,0,1
1532063048639,-2,1,-1,-1,-2,0,0,0
1532063048644,0,1,-2,1,2,1,1,1
1532063048649,-1,-1,-1,2,-1,-3,-2,0
1532063048654,0,-2,-2,0,-3,0,-1,-1
1532063048659,0,0,0,2,1,-2,0,-1
1532063048664,1,1,-1,-2,2,-2,-2,-2
1532063048669,0,0,0,2,-2,0,0,0
1532063048674,-3,-11,1,-13,0,-2,-1,1
1532063048679,-2,-2,-10,-17,-8,-2,-2,-2
1532063048684,-1,-1,-2,1,2,0,0,-1
1532063048689,0,2,3,-1,0,-1,0,0
1532063048694,-1,2,0,4,0,0,0,0
1532063048699,-2,-1,3,7,1,-1,-2,-2
1532063048704,-2,0,-2,-1,0,0,1,1
1532063048709,0,-1,0,-2,0,-1,0,-1
1532063048714,0,-1,-2,0,1,-3,-1,-2
1532063048719,0,1,-2,1,-6,0,-1,0
1532063048724,0,1,0,0,4,-1,-1,-1
1532063048729,-1,-1,0,-3,1,1,-1,0
1532063048734,-2,0,-2,5,-2,-1,-2,-1
1532063048739,0,0,2,0,2,0,1,-1
1532063048744,-2,-2,-1,-3,-4,-2,-1,-1
1532063048749,-1,-1,0,-1,-3,0,0,-1
1532063048754,0,0,-1,-4,-1,-1,1,0
1532063048759,1,0,2,3,-1,-2,1,-1
1532063048764,-1,-4,-4,-4,-1,-1,-3,-1
1532063048769,1,-2,-2,0,3,2,1,-2
1532063048774,-1,-2,-9,-21,-8,-3,-3,-3
1532063048779,-2,0,1,3,2,1,-2,-1
1532063048784,-2,-3,-5,-5,-4,-1,-2,-1
1532063048789,0,-1,1,3,2,0,-2,0
1532063048794,0,-1,2,4,1,-1,0,-1
1532063048799,0,-1,0,-1,-5,1,1,-2
1532063048804,-2,0,0,1,5,2,1,0
1532063048809,-2,-2,-2,-2,-3,-1,-3,-2
1532063048814,0,0,0,3,3,0,0,1
1532063048819,1,-2,-2,-6,2,0,-1,0
1532063048824,2,0,0,-2,-6,-1,-1,-1
1532063048829,-2,-1,0,5,1,-2,-1,0
1532063048834,0,0,2,-3,-3,0,0,-1
1532063048839,-1,-1,-1,9,1,-1,-1,-2
1532063048844,0,-2,-2,-3,0,1,-1,0
1532063048849,-1,-1,-2,-3,-1,-1,-1,-1
1532063048854,1,1,2,5,-1,-2,-1,0
1532063048859,0,-2,-1,0,-1,-1,-1,-1
1532063048864,-1,-1,0,-5,-2,0,-1,-1
1532063048869,-1,0,0,1,-3,-1,0,-1
1532063048874,0,0,1,3,-2,0,-1,0
1532063048879,0,-1,0,-2,4,1,1,-1
1532063048884,0,-2,-2,0,-4,0,0,-1
1532063048889,-2,-2,2,-4,-2,-1,0,-1
1532063048894,0,1,-1,1,2,-1,-1,-1
1532063048899,-2,0,0,-4,0,-4,-1,0
1532063048904,0,-1,1,-2,0,-3,-1,0
1532063048909,-1,-1,-2,-3,-2,-1,-1,0
1532063048914,-1,-2,-1,-1,-1,-1,0,-1
1532063048919,-1,-2,1,-3,-1,0,-1,-1
1532063048924,0,-1,-1,2,0,-1,0,-1
1532063048929,1,-1,0,3,0,-1,0,-2
1532063048934,0,0,0,-4,0,-2,0,0
1532063048939,-1,0,1,0,0,1,-1,1
1532063048944,-1,-2,0,2,-1,-3,-1,0
1532063048949,-1,-1,-3,-2,0,-1,-2,-1
1532063048954,-2,1,-1,-1,-1,0,0,0
1532063048959,0,-1,-1,-1,-3,0,-1,-2
1532063048964,0,0,-1,0,-2,0,-1,-1
1532063048969,0,1,1,-6,2,1,0,-1
1532063048974,-1,0,-2,22,0,0,0,-1
1532063048979,-1,0,-1,-5,-3,-2,1,-1
1532063048984,0,-1,-1,1,1,0,-2,-2
1532063048989,0,-1,0,-3,-1,0,0,-1
1532063048994,0,0,1,-4,0,0,-1,-1
1532063048999,-1,0,3,1,0,-1,0,-1
1532063049004,1,0,1,5,-1,0,0,-3
1532063049009,-1,-2,-8,-8,-5,-2,-1,-1
1532063049014,-2,-1,-1,-4,0,-2,-1,-1
1532063049019,-1,0,-2,1,-6,0,0,-2
1532063049024,-2,0,3,-5,1,-1,1,-1
1532063049029,0,-1,2,-1,1,-1,0,-1
1532063049034,0,0,0,4,-1,-1,0,0
1532063049039,0,-1,-1,6,3,-1,0,-1
1532063049044,-2,0,0,5,-5,-1,-1,-1
1532063049049,-1,-1,-2,-4,-3,-2,-1,0
1532063049054,1,-1,-3,-6,0,0,0,-1
1532063049059,-1,-1,0,2,1,0,0,0
1532063049064,1,-1,0,0,-1,-1,-1,2
1532063049069,-2,-1,1,5,2,0,1,-2
1532063049074,-4,-1,0,-1,-3,-1,-1,1
1532063049079,-1,-2,-1,-4,-2,-2,-3,-2
1532063049084,-1,-1,-1,0,0,0,-1,-1
1532063049089,-1,-3,-7,-9,-3,-1,-2,-3
1532063049094,0,-1,1,1,2,0,1,-2
1532063049099,-2,0,-4,-5,-3,-1,-1,-2
1532063049104,-1,-1,-1,-2,-1,-2,0,1
1532063049109,0,1,3,9,2,-1,0,1
1532063049114,0,-3,0,-3,-1,-1,0,-3
1532063049119,-1,-3,-2,-4,0,-1,0,1
1532063049124,0,0,1,0,2,-1,-2,-2
1532063049129,-1,0,1,-3,-3,-1,1,2
1532063049134,0,-2,-1,0,-3,-2,-1,0
1532063049139,-1,1,2,-3,2,-1,-1,0
1532063049144,-1,-4,-11,-15,-4,-1,-1,-2
1532063049149,-3,1,0,-2,1,0,1,-1
1532063049154,-1,0,-1,-2,-1,-1,-2,0
1532063049159,-1,-3,0,-8,-3,-1,-1,-1
1532063049164,1,5,4,5,2,0,0,0
1532063049169,0,2,0,6,0,-2,-2,-1
1532063049174,-1,-9,-4,-9,0,1,0,-1
1532063049179,-1,-1,-1,-3,-2,1,-2,-1
1532063049184,-1,0,0,2,-1,-1,-2,0
1532063049189,-1,0,-4,-5,-1,0,-1,-1
1532063049194,0,1,-2,-6,-2,-2,-2,-1
1532063049199,-1,-1,0,5,2,-1,0,1
1532063049204,-3,-7,-1,-2,-3,-2,0,0
1532063049209,1,1,3,8,0,0,-1,-1
1532063049214,-2,2,-1,-1,0,0,-3,0
1532063049219,-2,-16,-4,2,0,0,0,-3
1532063049224,-2,5,2,0,0,-1,-3,-2
1532063049229,-1,1,-2,-2,-3,-2,-3,-1
1532063049234,-1,-10,4,7,2,0,0,0
1532063049239,1,3,-10,-11,-4,-3,-3,-2
1532063049244,0,-1,3,2,1,1,0,-1
1532063049249,2,-5,0,0,0,0,0,-2
1532063049254,-1,11,-3,-2,0,-1,-1,-1
1532063049259,-1,-6,3,6,1,-1,-1,0
1532063049264,1,3,0,2,1,-1,1,0
1532063049269,-1,-4,-3,-3,-3,-1,-1,-1
1532063049274,1,5,-2,1,-1,0,-1,0
1532063049279,-1,-5,1,2,0,1,1,-1
1532063049284,0,8,1,-6,-3,-2,-3,0
1532063049289,-1,0,3,3,0,0,1,1
1532063049294,-2,0,-4,-2,-2,-1,0,-4
1532063049299,-4,-13,-6,1,1,0,-1,-3
1532063049304,-3,-6,-4,-3,-2,-2,-1,-1
1532063049309,0,0,-6,-2,-2,-1,-3,-1
1532063049314,2,2,8,-1,-1,-1,1,0
1532063049319,0,3,-11,-3,-2,0,-1,-2
1532063049324,1,1,1,1,0,0,0,2
1532063049329,0,8,0,-1,1,2,2,0
1532063049334,0,-3,4,-2,-1,-1,0,0
1532063049339,0,6,2,1,-3,-1,-2,1
1532063049344,-1,-3,4,3,1,-1,1,-1
1532063049349,0,2,0,1,0,0,0,-1
1532063049354,-3,-15,-7,-6,-4,-2,0,-1
1532063049359,0,6,4,2,5,1,-1,0
1532063049364,1,4,-2,-2,-3,-2,0,-1
1532063049369,-4,-16,2,4,0,-2,-1,0
1532063049374,-2,8,-2,1,0,1,-2,-1
1532063049379,2,4,3,2,2,1,0,-1
1532063049384,1,2,-2,-4,-3,-2,-1,-1
1532063049389,0,3,-2,0,0,-3,2,-2
1532063049394,1,4,1,2,1,1,0,-1
1532063049399,-1,-7,-3,-3,-2,-1,-2,-2
1532063049404,-5,-7,-5,-2,-1,0,-1,-4
1532063049409,-3,-11,2,1,-2,-3,-3,-2
1532063049414,2,5,-4,8,4,2,2,1
1532063049419,0,10,7,-13,-2,-1,-1,1
1532063049424,0,-3,-13,4,-1,1,1,-1
1532063049429,-1,0,9,-2,-1,-2,1,0
1532063049434,1,0,-2,1,-3,-1,0,-1
1532063049439,0,4,-1,7,-2,-1,-2,-1
1532063049444,0,-2,-8,-11,-2,-2,-2,2
1532063049449,-2,0,-6,2,-2,-2,-2,-2
1532063049454,4,5,4,-4,-4,-1,-2,1
1532063049459,0,0,5,2,0,-3,1,1
1532063049464,-2,-8,1,2,-1,0,0,-3
1532063049469,-3,-18,-11,-5,-1,0,0,-2
1532063049474,-1,-5,0,-1,-1,-1,-3,-3
1532063049479,-1,8,1,2,1,-1,-1,-1
1532063049484,2,9,6,2,2,1,0,4
1532063049489,1,9,0,-5,-2,1,-2,-1
1532063049494,-3,-5,0,-1,0,-2,0,-2
1532063049499,1,-2,0,0,4,0,-2,-1
1532063049504,0,0,1,1,0,-2,-2,-2
1532063049509,0,0,-1,-5,-3,1,-2,2
1532063049514,-2,-5,-9,-6,-5,-3,-1,0
1532063049519,1,4,-1,0,-2,-1,4,1
1532063049524,-2,-4,3,1,3,0,-1,-3
1532063049529,-3,0,4,5,-1,-3,-4,-5
1532063049534,0,0,2,12,1,-2,0,0
1532063049539,-1,-1,-4,0,0,1,2,2
1532063049544,-2,0,14,2,1,0,-2,-2
1532063049549,0,1,-12,-21,0,0,0,3
1532063049554,-5,-5,-5,-29,-11,-3,-2,-5
1532063049559,10,-8,-4,2,0,-2,-1,0
1532063049564,-14,4,3,14,-1,-1,1,-4
1532063049569,-5,3,5,-14,-1,-1,-2,0
1532063049574,7,3,4,11,4,2,0,1
1532063049579,7,-5,-14,-21,-14,-2,-4,5
1532063049584,-7,0,3,-2,3,1,-2,-3
1532063049589,13,5,1,12,4,-2,1,3
1532063049594,-2,-3,-5,-21,-4,-1,-1,-1
1532063049599,-7,1,5,14,-1,-1,-1,-6
1532063049604,11,-2,-5,11,4,1,1,5
1532063049609,0,9,10,9,6,2,2,2
1532063049614,-3,-2,-8,11,-9,-1,-5,-2
1532063049619,-2,0,4,-2,1,-2,0,-4
1532063049624,-5,-8,-7,15,-4,0,-3,-6
1532063049629,-2,-6,-2,-3,4,-1,-1,-4
1532063049634,4,4,6,9,6,1,-2,3
1532063049639,-6,1,1,-19,-3,2,2,0
1532063049644,0,-3,-2,14,2,-2,-2,2
1532063049649,4,-2,0,-7,-2,-1,-1,0
1532063049654,1,-3,1,-5,-3,-2,-2,2
1532063049659,7,3,1,9,3,-4,-3,-3
1532063049664,-8,-7,-15,-30,-10,-3,-2,-6
1532063049669,-1,2,3,3,-5,1,1,-2
1532063049674,0,-1,0,-23,12,3,4,-3
1532063049679,11,3,-3,3,-9,-2,1,4
1532063049684,7,2,-2,16,3,-3,-4,1
1532063049689,-28,-10,-4,37,2,-2,-2,-4
1532063049694,-9,-17,-10,-10,-10,-4,-2,-7
1532063049699,-8,-2,0,2,-1,-2,-3,0
1532063049704,4,3,2,-13,-3,2,3,2
1532063049709,19,10,8,3,-3,0,3,5
1532063049714,-3,2,6,11,10,0,3,-2
1532063049719,-9,-1,5,27,4,0,-1,-5
1532063049724,8,-2,-9,-24,-4,-3,-1,1
1532063049729,9,4,-2,-9,3,2,-1,4
1532063049734,-8,-9,-16,-12,-11,-5,-5,-2
1532063049739,-2,-4,3,0,3,1,0,-5
1532063049744,0,2,8,-5,12,3,4,0
1532063049749,-3,-2,-4,-11,-7,-1,0,-2
1532063049754,-5,1,4,27,-1,-3,-4,0
1532063049759,0,0,-2,24,-2,-1,-2,0
1532063049764,0,3,3,-3,2,1,1,0
1532063049769,-4,-7,-19,-36,-10,-4,-2,-3
1532063049774,7,3,3,2,4,-2,3,1
1532063049779,-7,-4,-5,-42,-1,-1,0,-4
1532063049784,-3,4,4,20,-15,-4,-5,3
1532063049789,0,-1,5,14,1,-1,-3,-1
1532063049794,0,-2,1,13,-1,0,-3,0
1532063049799,0,5,-2,-18,5,0,-1,0
1532063049804,3,2,-1,-18,1,0,4,-1
1532063049809,0,5,4,4,-5,-2,-4,-3
1532063049814,-5,-14,-4,-7,0,1,-1,-1
1532063049819,-6,1,-3,-4,-3,-1,-3,-4
1532063049824,2,-5,-3,5,-4,-2,-4,0
1532063049829,-2,1,-2,9,2,-1,-2,0
1532063049834,2,9,4,-2,-5,0,2,0
1532063049839,1,-3,-1,-6,4,0,-1,0
1532063049844,-2,2,-2,1,1,-1,-2,-1
1532063049849,0,-4,0,-2,0,0,1,-1
1532063049854,1,1,1,-7,0,1,-1,3
1532063049859,-1,-2,-1,6,0,1,0,0
1532063049864,-3,-3,2,-1,1,-1,0,-3
1532063049869,-2,-5,1,0,-1,-2,-1,-3
1532063049874,1,7,1,0,-1,0,-1,0
1532063049879,0,-6,-2,4,-3,-2,-1,0
1532063049884,-2,-6,-2,-2,1,0,-1,-3
1532063049889,-1,-10,-2,-2,-6,-5,-2,0
1532063049894,-1,4,-2,-2,2,-2,-1,-3
1532063049899,1,3,1,9,2,0,-1,1
1532063049904,3,8,-2,3,0,2,1,1
1532063049909,-2,-6,-6,-12,-5,0,-3,0
1532063049914,5,14,-1,-8,1,0,-1,-1
1532063049919,-2,-13,-1,0,-6,-2,0,3
1532063049924,-5,-7,-1,16,3,-2,-2,-4
1532063049929,-3,4,-2,-9,1,2,-1,-2
1532063049934,-1,-11,2,7,2,-1,0,-1
1532063049939,0,4,0,-5,-1,1,1,0
1532063049944,2,2,-1,-9,-6,-1,1,0
1532063049949,1,12,1,7,1,0,-1,-2
1532063049954,5,26,4,-1,-1,-2,2,-1
1532063049959,-4,-20,-4,-1,-2,-1,0,-1
1532063049964,-4,-3,-6,-6,2,-1,-3,-4
1532063049969,-1,0,-2,1,-2,-1,-2,-2
1532063049974,-3,-5,-5,-1,0,-3,-1,-4
1532063049979,0,16,14,6,0,-1,-2,-1
1532063049984,1,-3,5,-3,-2,-1,-2,1
1532063049989,0,-6,0,2,2,1,1,-1
1532063049994,0,3,-5,-2,-3,0,1,1
1532063049999,2,0,-8,-13,-3,-1,1,-1
1532063050004,-1,0,0,-4,-5,-2,0,0
1532063050009,-2,-3,7,22,3,0,-2,1
1532063050014,-5,-24,-4,-4,1,0,0,1
1532063050019,-2,2,-1,-19,-4,0,-2,-2
1532063050024,2,-1,-2,-6,0,0,1,0
1532063050029,-3,-3,1,15,-3,-4,-3,1
1532063050034,-1,0,0,0,2,-1,-1,0
1532063050039,-1,0,2,25,2,0,0,-3
1532063050044,0,9,-3,-23,-1,-1,1,1
1532063050049,1,-4,-3,-8,-3,1,0,0
1532063050054,-5,-6,2,8,-1,-3,-3,-4
1532063050059,-2,-7,-3,-2,-1,0,0,0
1532063050064,-1,-4,-1,8,-2,-2,0,-2
1532063050069,1,2,0,-2,2,1,2,1
1532063050074,0,-5,-6,-7,-1,1,0,-1
1532063050079,-1,1,-3,-4,-1,-2,-2,-4
1532063050084,-4,-6,1,6,-2,0,-2,-1
1532063050089,1,-6,-1,-9,0,-1,0,2
1532063050094,1,5,2,2,0,1,-3,0
1532063050099,1,4,0,-1,-9,-1,0,1
1532063050104,-1,-4,-1,2,4,1,0,0
1532063050109,-4,-3,-4,-21,0,-1,-3,-10
1532063050114,-1,0,0,-4,-4,-1,0,-1
1532063050119,1,1,-1,2,3,0,-2,0
1532063050124,1,-2,0,16,-4,-2,-2,0
1532063050129,0,3,1,8,-3,1,-3,2
1532063050134,0,0,0,2,4,0,0,0
1532063050139,-1,-4,-3,-33,-7,-3,-3,-2
1532063050144,-1,-1,-2,0,-6,-1,0,2
1532063050149,-1,0,-4,-7,3,-1,1,-1
1532063050154,-2,-3,2,-9,-7,0,-3,-1
1532063050159,0,2,1,24,9,4,1,0
1532063050164,-2,-1,-1,1,1,-1,-2,-1
1532063050169,0,11,0,1,-2,-1,1,0
1532063050174,-2,-18,-1,-2,-8,-4,-4,-3
1532063050179,-4,5,-2,7,0,1,-3,-3
1532063050184,-2,-4,0,-3,16,4,-1,-3
1532063050189,-2,-4,0,3,4,0,2,-1
1532063050194,1,8,-1,-3,-3,-2,1,1
1532063050199,1,-1,-3,-2,-5,-4,-1,1
1532063050204,1,-2,-2,-5,-8,-2,-2,0
1532063050209,0,-1,0,0,-1,-2,-2,-2
1532063050214,-1,0,-1,4,2,1,-1,-1
1532063050219,-4,-7,-4,-5,-5,-1,-1,-1
1532063050224,-1,4,-4,-4,-2,-1,1,0
1532063050229,1,1,-1,-1,-4,-3,-1,0
1532063050234,-1,0,-1,2,-3,-2,-1,0
1532063050239,1,-1,-3,0,1,0,-1,-1
1532063050244,0,0,0,-4,0,1,-2,-2
1532063050249,-1,-5,-3,0,-3,-1,0,-1
1532063050254,-1,1,-1,1,2,0,0,-1
1532063050259,0,0,2,2,-3,-1,1,0
1532063050264,-1,-1,2,-2,-5,-2,-2,-2
1532063050269,1,-1,-1,-2,-2,0,-1,1
1532063050274,0,2,0,0,-2,1,0,2
1532063050279,1,6,-2,-5,5,-1,-1,1
1532063050284,-3,-12,-1,-3,-6,-1,-2,-2
1532063050289,-3,-4,-3,0,0,-2,-1,-2
1532063050294,-1,3,1,-1,0,-1,0,-1
1532063050299,0,-2,0,0,0,0,-1,-2
1532063050304,0,3,0,0,-2,-1,1,-1
1532063050309,1,1,-1,-2,-1,0,0,-1
1532063050314,1,-3,1,0,1,-1,-1,-2
1532063050319,-1,0,0,0,-3,-2,-1,1
1532063050324,1,0,1,-3,0,-1,0,0
1532063050329,-3,-9,1,-2,-3,-2,-1,-3
1532063050334,0,-2,-3,0,-1,-1,-1,-2
1532063050339,-1,-2,0,0,0,0,0,0
1532063050344,0,6,5,-1,2,1,-1,1
1532063050349,1,0,-1,-1,-4,0,-1,-2
1532063050354,-2,-2,-3,1,2,-1,-2,1
1532063050359,0,-3,4,2,4,1,1,-1
1532063050364,-1,-2,0,-1,-4,-2,-2,-1
1532063050369,0,3,0,0,2,0,-1,1
1532063050374,-1,-1,-1,0,-2,1,0,-2
1532063050379,0,-2,-1,-1,-1,-2,-1,-1
1532063050384,-2,-2,-1,-1,0,-2,-1,-1
1532063050389,0,0,-2,-1,-4,-1,-2,0
1532063050394,0,0,1,-2,-1,-2,0,0
1532063050399,-1,-2,-2,0,-2,-2,-1,-1
1532063050404,0,-2,-4,-5,-3,-1,1,-1
1532063050409,-1,-2,-1,0,0,1,-1,-1
1532063050414,0,-1,0,-2,-1,0,-1,0
1532063050419,-1,0,1,0,0,-2,-3,-1
1532063050424,0,-1,1,1,1,-1,-1,1
1532063050429,0,1,2,1,1,-1,0,0
1532063050434,-1,0,-2,-1,-1,-1,1,-3
1532063050439,-3,0,0,-5,-7,-3,-2,-1
1532063050444,-1,-2,-3,-1,-2,0,0,-2
1532063050449,1,0,-1,-1,3,2,2,1
1532063050454,-1,0,-1,-1,1,-1,-2,-1
1532063050459,-2,-1,-5,-3,-3,-2,-1,-1
1532063050464,-3,-8,0,2,-3,-1,-3,-1
1532063050469,-1,0,-2,0,0,-2,-3,0
1532063050474,-1,1,0,0,-4,1,-1,0
1532063050479,-1,-1,0,0,0,1,1,0
1532063050484,1,1,-1,-2,-1,-1,1,-1
1532063050489,-3,-2,-2,-1,-2,-1,-1,-2
1532063050494,-1,2,0,-1,-1,-1,-1,-3
1532063050499,0,-2,-1,1,1,-2,-1,-1
1532063050504,-1,0,-1,-1,-1,-1,-2,-1
1532063050509,0,1,0,0,-1,-2,-1,1
1532063050514,0,-1,-4,-1,-6,-1,1,-1
1532063050519,-4,-7,-4,1,5,-1,-1,-5
1532063050524,-3,0,-2,-3,-2,-1,0,-3
1532063050529,0,0,-2,-1,-1,-1,-1,-1
1532063050534,-1,0,0,0,0,-2,-1,0
1532063050539,1,2,-1,-1,0,2,2,0
1532063050544,-1,0,-3,0,-2,-1,-2,-1
1532063050549,-4,-1,-2,-3,-1,0,-1,-2
1532063050554,-1,-1,0,-1,2,-1,0,-2
1532063050559,-1,-2,-1,-1,-3,-1,0,-1
1532063050564,1,1,0,2,3,1,-2,2
1532063050569,-1,0,-2,-2,-5,-1,-1,-2
1532063050574,0,-1,0,2,2,2,-1,0
1532063050579,-1,-1,1,-1,-2,0,-2,-2
1532063050584,0,0,-1,0,1,-1,0,0
1532063050589,-1,-2,-1,-1,-3,-4,1,0
1532063050594,-1,-2,0,-1,-2,-1,-1,-3
1532063050599,-1,1,-1,0,-1,-1,-1,0
1532063050604,0,-2,-1,-3,0,-3,0,-1
1532063050609,-1,0,-1,-1,-1,0,-1,0
1532063050614,-1,0,-1,0,0,0,1,1
1532063050619,0,0,0,0,1,0,-1,0
1532063050624,-3,-1,1,-1,-1,-2,-1,-2
1532063050629,0,-2,-5,-4,-1,-1,2,-2
1532063050634,-1,-1,2,2,1,0,-1,0
1532063050639,-1,0,1,0,-2,-2,-1,-1
1532063050644,-1,0,-2,-1,-2,-1,-2,-3
1532063050649,0,0,1,1,2,-1,0,-2
1532063050654,-1,-1,-1,-1,-3,0,-1,1
1532063050659,0,0,-1,-3,-3,-1,0,1
1532063050664,0,-1,1,-1,1,-1,1,-1
1532063050669,0,-2,0,2,-1,-2,-2,-1
1532063050674,-1,-1,-1,1,0,-1,-2,-1
1532063050679,0,0,0,0,1,1,-1,0
1532063050684,-2,-1,-1,-3,-3,0,-2,0
1532063050689,0,-2,-1,0,-1,-1,-1,0
1532063050694,-2,-2,-3,1,1,0,-1,0
1532063050699,-1,-1,1,-4,-1,-2,-3,-1
1532063050704,1,0,-2,-1,-2,-1,-1,0
1532063050709,1,0,0,1,0,-1,-2,-1
1532063050714,-1,2,6,0,1,0,0,0
1532063050719,0,-2,-5,0,2,0,3,-2
1532063050724,0,-2,-2,0,-1,1,1,-1
1532063050729,-2,1,2,-5,-1,1,-2,-2
1532063050734,-1,-3,-3,-2,-3,-2,-1,-1
1532063050739,-1,1,3,2,-1,-1,-1,0
1532063050744,-1,-1,-2,-2,-1,-1,-1,-3
1532063050749,0,0,-1,-2,1,-1,1,0
1532063050754,1,0,0,1,0,0,-1,0
1532063050759,0,2,1,-1,-1,2,-2,-1
1532063050764,0,1,3,4,3,1,2,-1
1532063050769,1,-2,-3,-5,-2,-1,-1,-1
1532063050774,-1,-1,-1,-1,0,-3,0,0
1532063050779,1,0,-1,1,2,-2,-3,-2
1532063050784,0,-1,-2,0,-3,-3,-1,-1
1532063050789,-1,-1,-4,-4,-4,-2,0,0
1532063050794,0,-1,-3,-1,-2,0,-2,1
1532063050799,0,0,1,0,0,0,-1,0
1532063050804,0,-1,0,0,0,-1,0,1
1532063050809,-1,1,-1,-1,-1,0,-2,-1
1532063050814,0,-1,1,1,-1,-1,-2,-2
1532063050819,-1,-3,-6,-2,-3,-2,1,-2
1532063050824,1,-1,0,1,-1,1,-1,-2
1532063050829,0,-2,-2,4,2,0,-1,-2
1532063050834,0,-2,1,-2,-2,0,2,0
1532063050839,-3,-2,-4,0,-2,0,-1,-1
1532063050844,-3,-1,0,-1,0,0,-1,0
1532063050849,0,-1,-1,0,-1,-1,1,-1
1532063050854,-1,-3,0,-3,-3,-2,-2,-2
1532063050859,0,0,2,-4,3,1,-1,1
1532063050864,-2,-1,-5,-3,-5,-3,0,-2
1532063050869,-1,0,1,-1,-2,0,-1,-2
1532063050874,-1,0,-3,0,1,1,0,-1
1532063050879,0,-2,-2,1,-1,-1,0,1
1532063050884,0,2,2,1,-1,0,0,-1
1532063050889,1,-2,-1,-3,-1,-1,0,-1
1532063050894,0,-1,-3,-3,-3,-2,-1,-1
1532063050899,-1,1,0,0,0,-1,-1,-3
1532063050904,-2,-1,0,1,0,0,-2,-1
1532063050909,0,1,-1,0,-1,-1,-1,-2
1532063050914,-1,-1,-2,0,1,0,0,-1
1532063050919,-1,-1,2,2,-1,-1,0,1
1532063050924,-1,-2,-5,-3,1,-1,-1,0
1532063050929,0,-3,-2,-1,-1,0,-1,1
1532063050934,0,0,0,2,2,1,1,2
1532063050939,-2,0,1,-3,-4,0,-3,-1
1532063050944,0,-4,-1,1,1,1,-3,-2
1532063050949,0,0,0,0,0,-2,-2,-1
1532063050954,-2,0,-3,-4,-2,-1,-2,-1
1532063050959,-1,-1,-2,-1,-2,-2,0,-2
1532063050964,-1,0,3,-3,1,-2,-2,1
1532063050969,-1,-2,-3,-1,-4,-1,-1,0
1532063050974,-1,-1,-1,1,-1,-2,-2,-2
1532063050979,0,-1,-1,-1,2,0,2,1
1532063050984,-1,-2,-2,-2,-5,1,0,-2
1532063050989,-1,2,3,0,1,0,-1,0
1532063050994,0,1,1,-1,-2,0,0,-2
1532063050999,-1,-1,0,-2,0,0,-2,-2
1532063051004,-1,0,0,1,0,0,2,-1
1532063051009,-1,0,0,0,1,1,0,-1
1532063051014,-1,-1,1,1,0,1,-2,-1
1532063051019,0,-2,0,5,-1,1,-1,-1
1532063051024,-1,-1,-3,-5,-4,-1,0,-1
1532063051029,-1,0,0,1,-1,-1,-1,0
1532063051034,0,-1,0,-1,3,1,1,0
1532063051039,-2,-2,-3,-3,-2,-2,-1,-2
1532063051044,0,0,1,1,1,1,-1,0
1532063051049,1,0,-2,-2,1,0,0,0
1532063051054,-2,-2,-2,-3,-5,0,0,0
1532063051059,-1,0,3,-2,3,0,-2,0
1532063051064,0,-3,-3,0,0,-1,1,-3
1532063051069,0,-2,0,-3,-2,-3,-1,-1
1532063051074,-2,0,-2,1,0,-1,-2,-1
1532063051079,-1,-2,-1,-2,-2,-2,0,0
1532063051084,0,-1,7,0,-3,-1,-1,-1
1532063051089,-1,-2,-2,0,2,1,1,0
1532063051094,0,-2,-1,-2,-2,-1,-1,0
1532063051099,-1,-1,-2,-1,-1,0,1,-1
1532063051104,-1,0,-2,1,0,0,-1,0
1532063051109,-1,-2,-1,-7,-5,0,-2,0
1532063051114,-1,-2,-4,0,-1,-3,-1,-2
1532063051119,-1,-1,-3,0,-5,-2,-3,-3
1532063051124,1,-1,-2,3,4,-2,0,0
1532063051129,-3,0,4,-2,0,0,-2,-1
1532063051134,-2,-1,-2,-2,-3,-2,-3,1
1532063051139,0,0,-5,-3,-5,-1,-1,0
1532063051144,-4,-5,-8,-2,-2,0,-1,-1
1532063051149,1,3,4,5,1,0,-1,0
1532063051154,1,0,2,-5,3,0,0,-1
1532063051159,0,-3,-2,8,-3,-2,-3,1
1532063051164,-1,3,2,-2,1,-1,-1,-1
1532063051169,1,-1,-7,-2,-1,-1,1,-2
1532063051174,-1,-3,1,-3,-4,-1,-2,-2
1532063051179,0,2,-9,-2,1,-1,0,-1
1532063051184,0,-2,5,-1,-3,-2,-2,-1
1532063051189,-2,-1,1,1,0,-2,-1,0
1532063051194,0,0,-3,3,0,-3,0,-1
1532063051199,0,0,5,-2,-1,0,0,-2
1532063051204,0,1,-6,-2,-2,-1,0,0
1532063051209,-3,0,6,1,-2,-2,-1,-3
1532063051214,0,-3,-3,3,-4,-1,-1,-2
1532063051219,-2,-3,-5,0,8,2,-1,0
1532063051224,-2,0,-1,3,-2,-2,-1,0
1532063051229,2,0,-4,-15,1,1,0,1
1532063051234,2,0,-6,-4,-1,1,0,0
1532063051239,-1,-2,4,-5,-2,-1,-1,-2
1532063051244,1,1,-2,19,4,-1,1,-2
1532063051249,0,-4,-2,-10,-3,-4,2,-3
1532063051254,-2,1,2,-4,-3,0,-3,2
1532063051259,-1,-3,-16,0,-6,-2,-2,-1
1532063051264,0,-1,3,-9,1,1,-1,0
1532063051269,-1,-2,-1,12,2,2,0,-1
1532063051274,0,-1,4,2,1,-1,0,-4
1532063051279,-1,1,11,-1,-1,1,-2,-1
1532063051284,0,0,-6,2,-3,-2,0,-1
1532063051289,0,3,1,-15,-1,-1,1,-2
1532063051294,-2,-2,9,39,4,-2,-5,0
1532063051299,2,-1,5,-13,0,1,-3,1
1532063051304,-1,1,2,-7,-3,-2,-4,-1
1532063051309,0,-3,-3,11,5,-1,1,0
1532063051314,0,0,-4,-22,-10,0,4,-1
1532063051319,-2,-2,1,11,-1,-3,1,-2
1532063051324,-1,-4,-13,1,-6,-4,-2,0
1532063051329,-2,-3,-6,-9,-1,0,0,-1
1532063051334,0,4,13,8,3,-2,0,0
1532063051339,-2,-3,-2,3,1,2,2,-1
1532063051344,-3,-4,2,-29,-13,-4,-6,0
1532063051349,-1,0,2,8,1,1,-2,1
1532063051354,-2,-1,-25,-7,-1,1,-1,0
1532063051359,0,1,4,6,-1,-3,0,0
1532063051364,0,2,5,-11,-4,-4,0,-1
1532063051369,-2,-5,3,-16,-2,-2,-2,-2
1532063051374,1,-2,-17,13,2,1,3,-2
1532063051379,-3,1,24,-1,-7,-5,-4,0
1532063051384,-1,-2,0,5,5,1,0,-1
1532063051389,-2,0,-3,8,-1,-1,-1,1
1532063051394,1,1,5,7,7,1,2,1
1532063051399,2,1,-6,14,-1,1,1,0
1532063051404,-3,-8,-2,-21,-17,-2,-5,-1
1532063051409,1,2,6,2,3,0,0,0
1532063051414,-3,-5,-16,-7,-3,0,-1,-1
1532063051419,0,2,5,14,2,0,0,-1
1532063051424,2,5,18,10,10,-2,0,-1
1532063051429,-3,-7,-15,-7,-8,-2,-3,-4
1532063051434,0,5,26,-5,-41,0,1,5
1532063051439,-3,-10,-54,-19,3,-1,-1,-1
1532063051444,-4,-6,20,-6,-7,0,-4,-1
1532063051449,0,2,-2,0,8,-2,-2,-3
1532063051454,1,-1,-7,10,13,0,1,-2
1532063051459,-3,0,18,-6,-9,-2,-3,-1
1532063051464,1,1,-17,-7,0,-2,0,-2
1532063051469,0,2,-1,10,5,2,-1,-1
1532063051474,-2,-2,1,2,6,0,-2,-3
1532063051479,2,9,4,-4,-1,0,1,-2
1532063051484,-1,-7,-33,13,8,0,-1,-2
1532063051489,-5,-12,17,-20,-5,-4,0,0
1532063051494,-2,-2,4,12,-4,-1,-6,-1
1532063051499,0,-3,-13,-5,3,-1,-1,-1
1532063051504,-3,3,-1,-3,0,1,0,1
1532063051509,3,7,-1,13,-5,2,1,0
1532063051514,-1,2,-25,-16,1,-4,1,-2
1532063051519,-5,-12,30,5,-2,-2,-7,1
1532063051524,0,-1,-17,-3,-7,-1,0,-2
1532063051529,-1,-2,2,0,4,1,-2,2
1532063051534,0,3,9,10,11,2,0,-1
1532063051539,-1,2,-8,0,5,0,1,0
1532063051544,1,0,6,2,-8,1,3,1
1532063051549,1,3,-9,-9,-24,-5,-2,0
1532063051554,-2,-3,9,1,5,0,-1,0
1532063051559,1,-1,-13,-5,6,-1,-1,-1
1532063051564,-2,-1,7,4,6,2,-1,0
1532063051569,0,1,-8,-3,-3,0,1,-4
1532063051574,-2,-3,4,12,0,0,0,2
1532063051579,0,4,9,-1,-4,-2,0,-1
1532063051584,0,-2,-21,-6,3,-3,-1,-3
1532063051589,3,8,11,-5,5,2,-1,1
1532063051594,1,4,1,8,2,2,2,1
1532063051599,1,4,23,1,1,2,-3,-1
1532063051604,1,0,-9,6,-1,-2,0,-1
1532063051609,-3,-2,-7,0,2,1,0,-1
1532063051614,2,-2,3,6,1,0,0,-1
1532063051619,-2,-1,-10,-8,-7,-1,-3,2
1532063051624,0,1,-6,-17,-3,1,-1,0
1532063051629,1,-2,4,0,0,-2,-3,0
1532063051634,2,3,-9,6,1,-2,2,1
1532063051639,-3,-11,9,-34,-4,-2,-1,-5
1532063051644,-2,1,11,36,1,-1,-4,0
1532063051649,-3,0,1,50,4,-1,-2,1
1532063051654,-3,-4,1,-13,-6,-4,-3,-3
1532063051659,2,1,-30,9,-4,-1,1,-1
1532063051664,3,7,21,-15,31,1,1,-1
1532063051669,-8,-12,13,17,-19,-1,0,-4
1532063051674,1,4,23,18,23,-1,-3,-1
1532063051679,-1,-5,-20,-12,-16,2,-1,0
1532063051684,-1,-3,8,4,-4,-1,-3,1
1532063051689,2,1,-9,-13,9,0,0,-2
1532063051694,-2,0,-4,-16,-4,-4,-2,-4
1532063051699,-2,1,16,0,6,0,6,0
1532063051704,-1,1,2,10,-1,-2,-1,-1
1532063051709,0,-2,-15,-30,0,-1,1,0
1532063051714,-4,-11,-15,-16,-10,-3,3,-4
1532063051719,3,8,-7,11,3,1,-3,0
1532063051724,-1,0,6,-12,-6,1,-1,0
1532063051729,0,-2,-12,2,-7,-3,-2,1
1532063051734,-2,0,21,-2,-5,1,0,-2
1532063051739,0,3,-10,3,-1,-1,0,-2
1532063051744,-5,-9,9,-3,-9,-5,-6,-3
1532063051749,4,8,4,-3,11,2,4,3
1532063051754,0,-1,-9,3,1,2,0,2
1532063051759,-2,-3,5,2,-4,-2,-1,-2
1532063051764,2,3,3,3,3,1,0,-3
1532063051769,-3,-3,-6,4,-9,-5,-5,-4
1532063051774,-5,-7,33,-24,-10,-1,-6,0
1532063051779,-2,-5,-12,-8,2,1,4,3
1532063051784,1,0,-11,-1,-5,0,0,0
1532063051789,2,-1,-2,6,2,-1,-2,-4
1532063051794,1,-2,-11,1,-4,-3,0,-3
1532063051799,0,4,11,2,-3,-3,-5,-2
1532063051804,0,-2,15,4,3,4,2,0
1532063051809,0,2,15,-16,-2,1,0,0
1532063051814,2,1,-8,7,3,3,-3,2
1532063051819,-3,-4,5,8,-1,-2,-1,-2
1532063051824,-3,-7,-13,-3,-8,-2,0,-3
1532063051829,-1,-1,3,-4,0,-1,-1,0
1532063051834,0,2,-21,-1,-2,-1,2,0
1532063051839,4,6,6,22,3,1,2,3
1532063051844,-2,1,22,-15,0,0,-1,3
1532063051849,-5,-3,-12,-5,-4,-2,-4,-2
1532063051854,-2,4,12,-3,2,0,-5,-4
1532063051859,2,-3,-5,18,2,2,2,1
1532063051864,1,-1,-17,-11,-7,-4,-3,-1
1532063051869,-1,0,-2,4,-2,2,6,1
1532063051874,-5,2,18,0,-10,-7,-36,-3
1532063051879,3,0,-4,-11,12,4,22,2
1532063051884,0,-8,-2,14,-5,-4,0,5
1532063051889,-2,-3,1,-4,1,-2,-4,-5
1532063051894,1,-10,-19,-2,-5,1,4,-1
1532063051899,-3,2,-14,3,-4,-4,-9,-3
1532063051904,1,9,3,-12,-1,-1,-5,-2
1532063051909,5,28,-17,-13,0,0,5,2
1532063051914,-1,-39,-5,16,3,3,11,4
1532063051919,-10,-13,-13,-18,-2,-3,-8,-7
1532063051924,-1,-1,-22,3,-2,0,3,-3
1532063051929,0,0,29,11,2,0,1,-1
1532063051934,8,34,1,-4,-1,1,6,6
1532063051939,-8,-34,0,7,-4,-1,-1,-6
1532063051944,-7,11,-17,-14,0,-1,-5,-7
1532063051949,1,4,5,7,4,0,-2,0
1532063051954,0,7,-11,-5,-1,0,4,-2
1532063051959,7,13,16,-1,-2,1,-4,4
1532063051964,1,6,9,1,-2,-4,-6,1
1532063051969,4,4,-1,-8,5,1,2,0
1532063051974,-8,-12,0,2,-1,-2,3,-5
1532063051979,-1,-21,-13,-6,-2,-2,-1,2
1532063051984,-2,-4,39,1,-4,0,4,0
1532063051989,-1,-6,-3,-2,0,1,-7,-1
1532063051994,-4,8,-1,-4,1,-4,-6,-7
1532063051999,-2,14,16,5,0,2,-1,-3
1532063052004,-2,-28,-13,-2,-1,-1,1,-1
1532063052009,0,-2,-2,-2,-2,-3,-5,1
1532063052014,2,4,3,2,0,0,6,1
1532063052019,-1,10,-8,-7,-5,-4,-7,-1
1532063052024,1,5,-15,-1,0,1,1,2
1532063052029,-3,-8,-2,-2,1,2,2,0
1532063052034,-1,-7,-5,2,0,0,-2,-1
1532063052039,1,8,7,-2,-2,-3,-2,-2
1532063052044,-2,0,-5,0,1,0,4,3
1532063052049,-1,-5,-4,3,-2,0,2,-1
1532063052054,1,-1,-2,-2,1,-1,-2,0
1532063052059,2,7,3,-1,-2,-1,-6,5
1532063052064,0,3,-1,1,3,1,5,-2
1532063052069,-6,-16,-6,-3,-2,0,1,-3
1532063052074,0,3,0,0,-1,-1,2,-1
1532063052079,0,1,1,-4,-1,-1,-3,1
1532063052084,0,-1,-4,3,-1,-1,-1,-1
1532063052089,-1,-1,-4,-2,0,-2,-4,-1
1532063052094,-1,-4,5,-3,-3,-1,-3,0
1532063052099,0,1,-2,-1,-1,1,4,-2
1532063052104,3,-1,-7,1,0,0,-5,-1
1532063052109,-4,-2,-4,-1,-2,-1,-2,-1
1532063052114,-1,-3,-4,-1,-1,0,-2,0
1532063052119,-2,-1,-6,-1,-2,-2,-4,-4
1532063052124,-1,2,10,3,0,1,4,-1
1532063052129,0,-3,-1,-2,-1,-3,-3,-2
1532063052134,0,-2,-5,0,0,-2,2,0
1532063052139,1,1,4,1,0,-1,1,-2
1532063052144,0,-1,-3,-2,0,-1,-3,-1
1532063052149,-2,-2,-1,1,0,-1,-3,-1
1532063052154,-1,-1,0,-2,-1,0,1,0
1532063052159,-2,-2,0,0,1,0,2,0
1532063052164,2,-6,1,-1,0,0,-1,1
1532063052169,-9,2,-2,-1,-2,-1,0,-3
1532063052174,-3,-1,-4,0,1,-1,1,-1
1532063052179,1,2,5,0,-4,-1,-2,-2
1532063052184,-4,-7,-25,-7,-2,-1,0,-4
1532063052189,3,-1,9,3,1,1,-3,1
1532063052194,0,0,-6,2,-1,1,0,1
1532063052199,-2,2,1,2,2,-1,3,-3
1532063052204,0,1,-1,-2,-4,-3,-1,0
1532063052209,1,-4,-4,-3,-2,-2,-3,-4
1532063052214,-3,-2,0,-1,-2,-1,-5,0
1532063052219,2,-2,-3,-1,2,1,8,2
1532063052224,-2,4,4,1,0,0,-1,-3
1532063052229,0,0,0,-1,0,-3,-1,-1
1532063052234,0,2,2,-2,-1,0,-1,-1
1532063052239,-2,-2,-1,0,0,-1,-2,-1
1532063052244,-1,-1,2,0,0,-1,-1,-1
1532063052249,0,-1,1,0,-1,-2,1,0
1532063052254,-1,-2,-5,-2,-2,0,-1,-1
1532063052259,0,0,0,0,0,1,-2,-1
1532063052264,-1,-1,4,0,-1,-1,-2,-1
1532063052269,1,0,-1,-2,0,-2,-1,1
1532063052274,0,-3,-1,-1,-1,-1,1,-1
1532063052279,11,4,2,-1,-1,-2,-3,0
1532063052284,-28,-13,-2,-2,0,-1,-2,-1
1532063052289,-1,-1,-3,-1,0,0,-1,-2
1532063052294,-4,-2,0,-1,-1,-1,0,-2
1532063052299,-3,-3,-2,-1,-2,0,-1,1
1532063052304,6,-1,-5,-4,-3,0,-1,-1
1532063052309,-1,-1,1,0,0,0,0,-1
1532063052314,-1,-4,-3,-7,-2,-1,0,-2
1532063052319,-3,1,-1,-2,-1,-1,-1,-1
1532063052324,4,5,4,13,1,1,-1,-1
1532063052329,-3,-3,-3,-2,-3,0,0,0
1532063052334,7,3,2,1,-1,0,-1,-1
1532063052339,-3,-2,-5,-5,-1,-2,-2,-2
1532063052344,2,1,4,-5,-3,-1,-2,-1
1532063052349,3,-1,-1,0,0,-1,-1,1
1532063052354,-2,0,-1,1,-2,-2,-1,-1
1532063052359,-3,0,-2,-1,-1,1,0,2
1532063052364,12,7,-1,1,-1,-1,0,-1
1532063052369,-25,-19,-3,-2,0,0,-1,-1
1532063052374,1,3,-2,-1,0,-1,-1,-1
1532063052379,-18,-1,1,0,0,-1,0,-5
1532063052384,5,2,-1,1,-1,0,-1,-1
1532063052389,6,2,1,-1,-1,-1,1,-1
1532063052394,-4,-3,-1,1,0,-1,-2,-2
1532063052399,1,-4,2,4,1,0,0,0
1532063052404,1,0,-8,-4,-2,-2,-1,-1
1532063052409,4,3,4,-1,-1,-2,0,0
1532063052414,-2,-2,-4,3,1,-1,-1,-1
1532063052419,6,4,1,-1,-2,-1,-2,-2
1532063052424,-2,-2,6,3,1,0,0,-1
1532063052429,13,3,-3,-1,-2,-2,-1,-1
1532063052434,-25,-12,-6,-1,-2,0,-1,-1
1532063052439,0,-2,0,-1,1,0,-1,-1
1532063052444,-5,-4,-3,-2,1,-1,-1,0
1532063052449,6,3,-2,0,-1,-1,-2,0
1532063052454,5,4,3,-1,2,-1,-1,-2
1532063052459,-2,-2,-2,0,-1,-3,-1,0
1532063052464,-3,-4,-3,-1,-2,-1,-1,-2
1532063052469,-1,0,-1,-2,-1,1,0,0
1532063052474,6,8,0,0,-4,-2,1,-1
1532063052479,-4,-1,-4,-2,-2,-1,-1,0
1532063052484,6,2,0,-1,1,-2,-1,0
1532063052489,-3,-2,1,0,-2,-1,-1,-1
1532063052494,2,-2,-2,-1,0,-1,-3,-1
1532063052499,3,-2,-1,0,-2,-1,-2,-1
1532063052504,-4,0,-4,-1,-1,-1,-1,-1
1532063052509,-4,1,1,0,0,-1,0,-3
1532063052514,2,0,2,-1,1,-2,1,1
1532063052519,1,2,3,1,-1,1,-2,-1
1532063052524,-2,-1,-1,-2,-1,-1,-1,-1
1532063052529,6,3,-5,-1,0,0,0,0
1532063052534,0,-5,0,2,0,-2,-1,-1
1532063052539,1,0,-1,-1,-1,-1,-1,-1
1532063052544,-3,-2,1,-1,-1,-1,-1,-2
1532063052549,5,5,-1,1,-2,-1,-1,1
1532063052554,0,0,1,-1,0,-1,-1,-1
1532063052559,-1,-6,-3,-2,-1,-1,-2,1
1532063052564,-2,7,-2,-3,-2,0,-1,-1
1532063052569,1,0,3,3,-1,-1,-1,-1
1532063052574,1,0,-1,-2,0,-1,-2,-2
1532063052579,-1,-2,-1,-1,-2,0,0,0
1532063052584,2,3,-2,-1,0,-1,0,0
1532063052589,-4,-2,-5,-2,-2,1,-1,-2
1532063052594,-4,1,2,-2,-1,-1,0,-1
1532063052599,5,-1,-2,-1,0,0,0,1
1532063052604,1,-2,3,-2,-1,0,-2,1
1532063052609,-5,-3,-4,-1,0,-1,-1,-2
1532063052614,2,-2,-1,0,-3,0,0,0
1532063052619,8,5,1,1,-2,0,0,-1
1532063052624,-13,-9,-3,-3,-1,-1,-2,0
1532063052629,1,0,-1,-1,-1,0,-2,-2
1532063052634,1,0,-2,0,-2,0,0,-1
1532063052639,-1,-4,1,0,-1,0,0,-1
1532063052644,2,1,-2,-1,0,-1,1,-3
1532063052649,-1,-3,-2,-1,-1,-1,-1,0
1532063052654,0,-2,-1,-2,-1,1,0,0
1532063052659,1,-1,-4,-1,-1,-1,0,-1
1532063052664,1,4,-1,1,-1,-1,-2,-2
1532063052669,-4,2,-1,-1,-1,-1,1,0
1532063052674,0,-5,-1,-2,-3,-2,-3,-3
1532063052679,2,0,-1,0,1,0,-3,-1
1532063052684,2,4,1,-2,0,-1,0,0
1532063052689,-6,-2,1,-1,-3,-1,-1,-1
1532063052694,-3,0,-2,-4,-1,0,0,-1
1532063052699,-1,2,1,-1,-1,0,-2,-4
1532063052704,-1,-7,3,2,0,-1,0,0
1532063052709,4,7,-3,-2,-1,0,0,-1
1532063052714,3,4,2,0,0,0,0,2
1532063052719,-4,-4,-4,-3,-3,-2,-1,-2
1532063052724,2,-1,-2,-2,-1,-1,-1,0
1532063052729,-4,-5,1,0,-1,-1,-1,1
1532063052734,-2,0,-3,-1,0,-1,0,0
1532063052739,-4,-4,0,-2,-1,0,1,-1
1532063052744,-3,3,1,-1,-1,-1,-3,-3
1532063052749,0,-3,0,-2,-1,-1,-1,-1
1532063052754,0,1,-2,2,-1,0,-2,-1
1532063052759,1,2,0,0,0,-1,-2,0
1532063052764,3,-2,-1,0,-1,-2,0,0
1532063052769,-3,-3,0,-1,1,0,-1,1
1532063052774,0,0,-2,-1,0,0,-1,2
1532063052779,-5,-3,-1,0,-1,-1,0,-1
1532063052784,-1,-4,-2,0,-2,0,0,0
1532063052789,-2,-1,0,0,1,0,-1,-2
1532063052794,21,4,-7,0,-3,0,-2,1
1532063052799,-46,-10,5,2,-1,-1,0,-5
1532063052804,12,-3,0,-1,-1,0,-2,0
1532063052809,6,2,-1,0,-1,-1,2,-1
1532063052814,6,5,1,0,2,0,2,3
1532063052819,6,-1,-3,-2,-1,0,-4,-6
1532063052824,-6,-2,0,0,0,0,-1,-3
1532063052829,-3,-2,-1,0,-2,-2,-2,-4
1532063052834,-4,-2,-2,-2,-2,-1,-1,-1
1532063052839,10,1,0,-1,1,0,1,4
1532063052844,-6,-6,1,0,-1,-1,1,0
1532063052849,6,0,-4,-2,-1,-1,-3,-1
1532063052854,-9,-6,3,1,-1,-2,1,-2
1532063052859,5,1,-5,-1,-1,-1,-2,-2
1532063052864,2,1,-1,-1,-2,-2,0,2
1532063052869,-3,-6,-1,-1,-1,0,0,2
1532063052874,-6,-3,-1,-2,-2,-1,-4,-6
1532063052879,4,2,2,0,0,1,-1,0
1532063052884,1,-2,-3,-2,-1,-1,-1,0
1532063052889,-3,0,4,1,0,0,0,1
1532063052894,-4,-2,-3,-1,-1,-1,-1,0
1532063052899,3,2,-1,-1,-1,-2,-1,1
1532063052904,-1,0,-8,-3,-1,1,0,1
1532063052909,-2,0,14,2,-1,-1,-2,-4
1532063052914,-3,-1,9,-2,-1,-1,-2,1
1532063052919,3,1,-1,-2,0,-1,-1,1
1532063052924,-6,-4,-8,-1,1,0,-1,-1
1532063052929,8,0,3,0,-3,-2,0,3
1532063052934,0,0,-4,-1,0,-1,1,-2
1532063052939,-4,1,17,5,-1,0,-2,-1
1532063052944,1,-3,-20,-4,-1,1,-2,-2
1532063052949,5,-1,11,-1,0,1,-1,0
1532063052954,-2,3,16,5,1,0,1,-1
1532063052959,1,-5,-34,-9,-1,0,-1,1
1532063052964,-3,0,15,4,0,-1,0,-1
1532063052969,1,0,-27,-6,-1,0,-2,-2
1532063052974,-2,-2,2,-2,-3,-2,-1,-1
1532063052979,0,3,5,-1,-1,1,1,0
1532063052984,-3,-5,-7,1,0,-1,0,0
1532063052989,2,-1,0,2,-1,-2,2,0
1532063052994,2,0,-2,0,-1,0,-1,0
1532063052999,-2,-4,-1,2,-1,0,-1,-1
1532063053004,-4,-2,-7,-12,-4,-2,-2,-2
1532063053009,3,2,2,1,0,-1,-1,0
1532063053014,-1,2,4,2,0,0,-1,1
1532063053019,-4,-6,-15,-4,-2,-4,-1,0
1532063053024,-2,0,11,2,0,-1,0,0
1532063053029,2,0,0,0,0,-1,-1,0
1532063053034,0,-1,-5,-5,-1,-1,-2,0
1532063053039,-1,-2,-1,2,1,-3,-1,-2
1532063053044,-1,-1,-18,-7,-4,-1,-1,-1
1532063053049,1,0,2,3,0,-1,-2,-1
1532063053054,-1,-1,-2,-2,-3,-1,1,0
1532063053059,1,1,6,-1,1,-1,0,-1
1532063053064,-1,0,5,4,17,-8,-1,-2
1532063053069,1,-2,2,-3,-21,7,2,-1
1532063053074,-2,-4,-6,-5,-4,-1,-3,1
1532063053079,2,0,-1,-2,-1,-1,-1,0
1532063053084,-1,-1,2,0,-6,2,-2,1
1532063053089,1,1,-1,-2,3,-4,-2,-2
1532063053094,0,0,7,3,2,2,-1,-1
1532063053099,0,-2,0,1,-2,0,1,0
1532063053104,-1,1,3,-1,-3,-2,-1,1
1532063053109,0,-2,4,-2,2,-2,-2,0
1532063053114,-1,-1,-4,0,-3,-2,0,-2
1532063053119,-1,-1,4,1,3,-2,-2,-2
1532063053124,0,-2,3,1,-1,1,-1,-2
1532063053129,-1,0,-3,-1,0,-1,0,-1
1532063053134,0,-1,0,-1,2,0,-2,-1
1532063053139,-1,-2,-1,-1,-2,-2,-2,-3
1532063053144,0,-2,2,0,-3,0,1,0
1532063053149,0,-1,-2,0,1,0,1,0
1532063053154,-2,1,0,0,-2,0,1,-1
1532063053159,-1,0,1,-2,-1,1,-2,-1
1532063053164,0,0,1,0,-2,1,-1,-1
1532063053169,-1,-1,0,-1,4,-3,-4,-1
1532063053174,0,0,-1,-2,0,0,-1,0
1532063053179,-1,-2,0,-2,-1,-1,-1,0
1532063053184,-1,-1,0,-1,-2,-3,0,-2
1532063053189,-2,1,1,-1,1,-2,0,1
1532063053194,-1,-4,-1,-2,-2,0,0,-1
1532063053199,0,2,-1,0,-2,0,-1,-1
1532063053204,0,0,2,1,-2,0,0,0
1532063053209,-3,-2,-1,0,0,-2,-1,-1
1532063053214,-1,-1,-3,0,-1,-2,0,-3
1532063053219,0,1,0,-1,1,-1,0,-1
1532063053224,-2,-1,-1,0,-2,-2,-3,-1
1532063053229,0,-1,-2,0,0,0,2,-3
1532063053234,-2,-1,-3,-2,-2,-1,-1,0
1532063053239,0,2,8,-1,-1,1,0,1
1532063053244,1,0,0,-1,0,1,0,1
1532063053249,0,-4,0,1,-2,-1,-2,-1
1532063053254,-1,-4,-2,0,0,-3,-1,-3
1532063053259,0,0,-4,0,-1,-1,-1,-1
1532063053264,-1,1,2,0,-2,1,-1,1
1532063053269,0,-1,-1,-2,1,0,-1,0
1532063053274,-1,-3,-2,-1,-1,-2,0,0
1532063053279,-1,-1,-3,-1,-1,-2,0,-1
1532063053284,-1,-2,-2,-1,0,0,-1,-2
1532063053289,1,3,0,0,0,-1,-1,1
1532063053294,-2,1,1,0,-1,0,-2,-2
1532063053299,-2,-2,-2,-1,-1,-1,-2,-1
1532063053304,0,1,1,-1,-1,-1,-1,0
1532063053309,-1,0,0,0,-1,-2,0,0
1532063053314,-2,0,1,-2,1,-1,-1,-1
1532063053319,0,2,0,1,-1,0,0,0
1532063053324,-2,-3,-3,-2,-1,0,-1,-1
1532063053329,-2,-5,-3,0,0,0,-3,-2
1532063053334,1,-2,0,-1,-1,0,0,1
1532063053339,-1,-3,-3,-3,0,-1,0,-1
1532063053344,-3,4,0,0,-2,-1,0,-1
1532063053349,1,1,0,0,0,0,0,0
1532063053354,0,1,0,1,-1,-2,-2,-1
1532063053359,1,0,-1,-1,0,0,-2,0
1532063053364,-1,-1,-2,-1,0,0,-1,-1
1532063053369,-1,-2,-1,-1,1,-1,-1,-2
1532063053374,-1,-1,-1,-3,-8,-2,-1,-1
1532063053379,1,-1,0,-2,-2,-1,-1,-1
1532063053384,0,0,-2,2,3,1,1,0
1532063053389,0,0,0,1,0,-1,-2,0
1532063053394,0,0,-2,0,-1,-1,-1,-1
1532063053399,-1,-1,-1,-1,-3,-2,-1,-1
1532063053404,-1,-1,-1,-2,-3,-2,-2,-3
1532063053409,0,0,-1,-2,-1,-2,1,0
1532063053414,1,0,-1,1,1,0,0,0
1532063053419,-1,-3,-2,0,-2,0,-1,-2
1532063053424,1,-2,0,0,0,-1,-1,-2
1532063053429,-1,1,-1,0,-2,-2,-1,0
1532063053434,0,0,0,-1,-3,-3,0,0
1532063053439,-1,-2,-3,0,1,0,-2,-1
1532063053444,0,-2,-1,-1,0,0,0,0
1532063053449,0,-1,0,-2,-2,1,-1,-2
1532063053454,-2,-1,-2,-1,1,-2,-1,-1
1532063053459,-1,0,0,0,1,-1,0,0
1532063053464,-1,-1,-5,-1,-1,-1,1,-1
1532063053469,-1,0,2,0,-2,-2,-1,0
1532063053474,0,6,-1,-1,1,1,0,-1
1532063053479,0,-2,-6,-1,-1,0,1,-2
1532063053484,0,-3,3,-1,-1,-1,-1,-1
1532063053489,-1,5,-1,1,-1,0,0,0
1532063053494,-2,-5,-5,-2,-2,-1,0,0
1532063053499,0,-1,-1,-1,0,0,-1,-1
1532063053504,-1,0,3,1,-2,-1,0,1
1532063053509,-3,-3,-5,-2,-2,0,-2,-1
1532063053514,1,6,2,1,1,-2,0,0
1532063053519,-2,1,1,1,-1,-2,-1,0
1532063053524,1,-3,-1,0,-2,-2,0,0
1532063053529,-2,-1,0,-1,-1,-2,-1,0
1532063053534,1,-2,0,0,-1,-1,0,-1
1532063053539,-1,-2,-1,0,-1,-1,-1,0
1532063053544,1,1,-2,0,-1,1,-2,-2
1532063053549,0,-2,-2,-1,0,1,0,0
1532063053554,-1,-4,-2,1,0,0,-1,0
1532063053559,-1,-2,1,-2,-1,0,0,-2
1532063053564,0,-2,-2,-1,-3,-1,-1,-2
1532063053569,-1,-3,2,-1,-1,-1,-2,-2
1532063053574,0,0,5,3,0,-1,-1,0
1532063053579,1,2,1,0,0,-2,1,0
1532063053584,-1,-5,0,-2,-1,-2,-1,1
1532063053589,-1,-2,-2,-1,-2,-1,-2,0
1532063053594,-1,0,-1,-2,0,1,-3,-1
1532063053599,-2,-1,1,-1,-1,0,-1,-1
1532063053604,-2,1,-3,-2,-1,1,2,-1
1532063053609,0,-1,-1,1,-1,0,0,0
1532063053614,-2,-2,2,-2,-1,-1,-1,-1
1532063053619,-1,-11,-2,-1,-1,0,-1,-2
1532063053624,0,-1,-1,-1,1,0,-1,-1
1532063053629,-2,1,1,-1,-1,0,-1,-2
1532063053634,-1,-2,-1,-2,-1,-1,-1,-1
1532063053639,-1,-1,-1,0,-1,-1,-1,-2
1532063053644,0,1,-4,0,0,-1,-1,-1
1532063053649,0,-2,3,-1,-1,-2,-2,-2
1532063053654,0,-2,-2,-1,-2,0,-1,0
1532063053659,0,3,0,-1,-1,-1,-1,0
1532063053664,-2,-3,0,1,-1,1,-3,0
1532063053669,0,2,-2,-2,0,0,0,0
1532063053674,-1,-2,-1,-1,0,-1,0,0
1532063053679,0,2,0,0,-1,0,-2,-1
1532063053684,-1,0,-2,-2,-1,-1,1,-1
1532063053689,-1,-2,-1,-2,-1,-1,-1,0
1532063053694,0,-1,0,-1,-2,0,-1,-3
1532063053699,0,0,-7,-4,0,-1,0,0
1532063053704,-1,4,7,1,-1,0,-2,-2
1532063053709,-1,-2,-3,-1,-2,-3,0,-1
1532063053714,-1,-1,0,-1,0,0,-1,-2
1532063053719,-2,-2,-2,-1,0,-2,-1,-1
1532063053724,0,0,-3,-1,-1,-1,0,0
1532063053729,-1,0,-1,1,0,1,0,1
1532063053734,-1,1,1,-1,0,0,-1,-1
1532063053739,0,1,-2,1,-1,-1,-1,-1
1532063053744,0,-1,-1,-2,-1,0,0,-2
1532063053749,0,-2,-1,1,-1,1,1,-1
1532063053754,-2,-3,-4,0,-1,-1,-1,-1
1532063053759,-1,1,-1,0,0,0,0,0
1532063053764,-1,0,2,0,-1,-2,-2,-3
1532063053769,-1,-2,-4,1,-1,-2,-1,-1
1532063053774,-1,-3,-4,-3,-1,0,-1,-1
1532063053779,-1,2,9,1,-2,-1,-1,0
1532063053784,0,0,-2,-1,0,-1,-1,-1
1532063053789,-1,6,2,-1,0,-1,-2,0
1532063053794,-1,-8,-1,1,0,1,-1,-1
1532063053799,0,2,-4,0,0,0,-1,-1
1532063053804,0,-2,-1,-2,-1,0,0,0
1532063053809,0,0,1,0,1,0,-2,-1
1532063053814,-1,1,0,-1,-2,-1,0,1
1532063053819,0,-1,-2,-1,0,-1,1,-2
1532063053824,-2,-3,-1,-1,-3,-2,-2,0
1532063053829,-3,-2,-3,0,0,0,0,-2
1532063053834,0,-1,-2,-2,-2,-1,0,-1
1532063053839,-1,0,1,-1,0,0,1,-1
1532063053844,-2,-8,-2,-3,0,0,-3,1
1532063053849,0,0,-2,-2,-2,-1,-2,-1
1532063053854,-1,0,-2,-2,-2,-2,-1,-2
1532063053859,-1,0,1,0,-1,-1,-3,0
1532063053864,1,-1,-2,-1,1,0,1,-1
1532063053869,-1,0,3,-1,0,-2,-1,0
1532063053874,0,-2,-5,-3,1,-1,0,-1
1532063053879,0,1,-2,1,-3,-1,-1,-1
1532063053884,-1,0,-4,-2,0,-1,-3,0
1532063053889,-1,-2,-3,0,0,1,-1,-2
1532063053894,-1,0,0,0,0,0,0,0
1532063053899,0,-1,-1,-2,-2,-3,-2,2
1532063053904,-1,0,-4,0,-3,-2,2,0
1532063053909,-1,-2,2,-1,-2,-1,-1,0
1532063053914,-1,2,2,0,1,-1,0,-2
1532063053919,-1,3,-1,1,-1,-1,1,-2
1532063053924,-2,-5,1,0,-1,0,1,-2
1532063053929,-1,2,-3,-2,1,-1,-1,-2
1532063053934,0,2,3,0,0,-2,-2,1
1532063053939,-1,-4,-1,-1,-1,-1,-2,1
1532063053944,0,3,0,1,-1,0,-1,-1
1532063053949,-1,-2,-1,0,1,-1,0,0
1532063053954,-1,-2,0,-1,-1,0,-1,0
1532063053959,-1,1,0,-2,0,-2,-1,0
1532063053964,-1,-2,0,-1,-1,-2,-1,0
1532063053969,-3,-2,-2,-2,-2,-1,0,1
1532063053974,-1,-3,1,0,0,0,0,-2
1532063053979,1,4,-3,1,0,-1,-1,0
1532063053984,0,1,5,-4,-2,1,-1,-2
1532063053989,-1,-1,0,-1,-2,0,0,-2
1532063053994,0,3,2,2,0,-1,-1,-1
1532063053999,-2,-11,-1,-1,0,0,0,-3
1532063054004,-2,2,-1,0,0,0,0,-3
1532063054009,0,1,-1,0,-1,-1,-1,-1
1532063054014,0,-2,-4,-3,-3,-2,-1,0
1532063054019,-1,-4,-1,0,0,0,-1,0
1532063054024,-1,0,-1,0,0,-1,-1,-1
1532063054029,0,-2,-2,-2,0,-1,-2,-1
1532063054034,-2,-1,-2,-1,0,1,0,-1
1532063054039,0,0,1,-2,-1,-1,-1,-1
1532063054044,0,-3,-2,0,-1,-2,0,-2
1532063054049,0,2,0,-1,0,0,1,-1
1532063054054,0,0,0,0,-1,0,-1,-1
1532063054059,-1,0,0,0,-1,-1,-2,0
1532063054064,2,1,1,1,0,0,-1,1
1532063054069,-2,-1,-2,0,-1,0,-1,-1
1532063054074,-1,-5,-3,-1,-1,-1,0,-1
1532063054079,-2,0,1,-2,-2,0,-1,-2
1532063054084,-2,1,-1,-1,-2,0,-1,0
1532063054089,1,-4,-1,1,0,-1,0,-1
1532063054094,-1,3,-2,-1,-1,1,-2,-1
1532063054099,0,0,0,-1,0,1,0,1
1532063054104,-1,-4,1,-1,-1,0,-3,-2
1532063054109,0,0,-1,0,-1,-2,0,0
1532063054114,0,1,1,-2,-1,-1,-1,-2
1532063054119,1,2,0,-2,0,-2,-1,-3
1532063054124,-1,-4,0,-3,-1,-1,1,-1
1532063054129,-2,0,-1,-1,-1,-2,1,-1
1532063054134,0,-4,1,2,-1,-1,-1,-2
1532063054139,-1,-1,-3,-1,-1,-1,0,-1
1532063054144,-1,2,-2,-2,0,0,-1,0
1532063054149,0,2,0,1,0,-2,-4,0
1532063054154,-2,-7,-1,-1,-1,-2,-2,-1
1532063054159,1,9,1,0,0,0,-1,0
1532063054164,-3,-12,-3,0,-1,-2,1,-1
1532063054169,-2,-2,-1,-2,-3,0,-1,-1
1532063054174,-1,1,-1,-2,-1,-2,-2,0
1532063054179,0,0,-1,-2,-1,-1,-2,-2
1532063054184,0,1,-1,-1,-1,-1,-1,0
1532063054189,-1,-7,-1,-2,-1,-1,0,-1
1532063054194,-1,1,0,0,-2,0,1,-1
1532063054199,-3,-2,-2,0,1,0,0,-1
1532063054204,0,4,6,0,0,-1,-2,0
1532063054209,0,1,0,-1,0,0,-2,0
1532063054214,0,2,0,-1,0,-1,0,-1
1532063054219,-1,-4,-1,0,-1,-1,-1,-1
1532063054224,1,1,-4,0,0,-2,1,-2
1532063054229,1,1,-1,0,-1,-2,1,-2
1532063054234,-1,-3,-2,-1,-2,-2,0,0
1532063054239,-2,3,-1,-1,-1,0,0,0
1532063054244,0,-6,-1,0,0,0,-1,1
1532063054249,-1,-3,-2,0,-1,-2,-1,-1
1532063054254,-2,6,0,-1,-1,-1,-1,-1
1532063054259,-1,-8,-2,0,-2,0,-1,-2
1532063054264,-1,4,2,0,-1,-2,-2,-1
1532063054269,-1,1,0,-1,-1,-1,-2,1
1532063054274,2,1,0,-1,-1,-3,-1,-1
1532063054279,-1,-2,0,0,-1,-2,-1,0
1532063054284,1,0,-2,-1,0,0,-2,-1
1532063054289,-2,1,1,0,-1,-1,1,-1
1532063054294,-2,-2,-1,-1,0,0,0,-1
1532063054299,0,1,0,-2,-1,-1,-2,0
1532063054304,1,4,1,1,0,0,0,-2
1532063054309,-1,-7,-2,-2,1,-1,-2,-1
1532063054314,-4,3,-2,-2,0,0,1,0
1532063054319,-1,-1,0,-2,-2,-1,0,0
1532063054324,0,5,0,0,-1,0,0,-1
1532063054329,1,3,-2,-1,-2,-1,-1,-1
1532063054334,1,-6,-4,-1,-1,0,0,-1
1532063054339,-2,-1,2,-2,0,-1,-3,-1
1532063054344,-2,1,-4,-1,-2,0,0,-2
1532063054349,-1,-1,-1,-2,0,-1,0,0
1532063054354,1,-1,2,3,0,-1,-1,-2
1532063054359,1,-1,-2,-2,-1,0,-1,0
1532063054364,0,-4,0,-1,0,-2,-1,2
1532063054369,1,-2,0,0,-1,1,-2,0
1532063054374,-1,1,0,0,-1,0,-1,-1
1532063054379,0,-2,1,0,0,0,2,0
1532063054384,1,3,0,-2,-1,-1,0,0
1532063054389,-1,-7,-4,0,0,-1,-1,1
1532063054394,1,0,-1,-2,0,-2,-3,0
1532063054399,0,-2,-1,1,-1,-2,-2,-1
1532063054404,-1,-1,1,0,-2,-1,0,-1
1532063054409,-1,2,-4,-2,-2,0,-3,-3
1532063054414,0,-2,6,0,-2,2,-1,0
1532063054419,-2,2,-1,-1,-1,-1,-2,0
1532063054424,-3,-10,-5,0,1,-1,-1,-1
1532063054429,-1,0,2,0,1,0,1,0
1532063054434,-2,0,-7,-4,-2,-3,0,0
1532063054439,0,-4,1,0,1,-2,0,-1
1532063054444,-1,1,-2,-1,-1,0,0,-2
1532063054449,-1,-1,-1,0,-1,0,-1,1
1532063054454,-1,0,-1,-1,-1,0,0,0
1532063054459,1,0,-1,-1,-2,0,-1,-1
1532063054464,-1,-2,-4,-1,-1,-1,-3,-1
1532063054469,0,-1,2,-1,0,0,0,-2
1532063054474,-2,1,1,-2,-1,-1,-2,0
1532063054479,-2,-6,-4,0,-1,-1,1,-1
1532063054484,0,0,1,-1,-1,0,-1,0
1532063054489,0,2,-2,-2,-1,-2,0,-1
1532063054494,-1,1,0,1,0,-1,-2,-1
1532063054499,-2,1,-1,-2,1,0,0,-2
1532063054504,0,5,0,-1,0,-1,-1,0
1532063054509,0,-2,0,0,1,-3,-1,-1
1532063054514,0,-6,-3,1,-1,0,0,0
1532063054519,-1,-1,-3,-2,-3,-1,-1,-2
1532063054524,-1,0,0,-2,0,-1,-1,-1
1532063054529,0,4,1,0,-1,0,-1,-2
1532063054534,-3,-2,-6,-4,-1,-2,0,-2
1532063054539,-1,-1,1,0,-1,-1,0,0
1532063054544,0,0,-3,0,-2,0,-1,-1
1532063054549,-3,0,1,0,-1,-1,-1,0
1532063054554,-1,-7,-2,0,1,0,0,-1
1532063054559,-1,-2,0,-1,0,-1,-2,-2
1532063054564,-2,-1,-2,0,0,0,-2,1
1532063054569,-1,-3,-1,0,0,1,-1,-1
1532063054574,1,1,-1,0,-2,0,-1,-1
1532063054579,1,0,0,-2,0,1,-2,0
1532063054584,0,-2,1,-1,-1,-1,1,-2
1532063054589,-3,-8,-2,-1,-1,-1,0,-1
1532063054594,0,0,2,0,-1,0,-1,-1
1532063054599,-2,-2,-1,0,1,0,0,0
1532063054604,-1,-1,-2,0,0,-1,-1,-2
1532063054609,0,1,-1,-3,-1,0,0,-1
1532063054614,-1,-1,1,0,-1,-1,-3,-1
1532063054619,-2,1,0,0,-1,-1,-1,-1
1532063054624,0,2,3,-1,-1,-1,-1,0
1532063054629,-1,2,-1,-2,0,-1,0,0
1532063054634,-2,-4,-2,0,0,-1,-1,0
1532063054639,0,0,-1,-1,-1,-1,0,0
1532063054644,-1,-2,-1,-1,0,0,1,0
1532063054649,0,2,-1,-1,-1,-1,-1,-1
1532063054654,-1,1,0,1,-1,-1,-1,-1
1532063054659,-1,-1,-4,-1,0,1,-1,-1
1532063054664,0,-2,0,1,-1,-2,0,1
1532063054669,-3,0,-2,-2,-2,0,0,-1
1532063054674,2,-1,2,-1,-2,-1,0,-1
1532063054679,-2,5,1,-1,0,-1,-1,-1
1532063054684,0,1,-2,1,-1,0,-1,-1
1532063054689,0,1,1,-2,-1,-3,0,0
1532063054694,0,-7,-3,-2,0,-2,-1,-1
1532063054699,0,3,-2,-1,0,-2,-1,-2
1532063054704,-1,-7,-1,-2,-1,0,-1,-1
1532063054709,-1,-2,-2,-1,-1,0,-2,-1
1532063054714,1,6,2,-2,0,0,1,-1
1532063054719,0,-5,-1,-1,-3,-2,-1,0
1532063054724,0,0,-2,-1,0,-2,-2,-2
1532063054729,-1,-3,-1,0,1,-2,0,0
1532063054734,-2,-1,1,0,-1,0,-2,-1
1532063054739,-1,-1,-2,0,-1,0,0,-2
1532063054744,1,1,0,-2,-1,0,1,-2
1532063054749,2,0,-1,1,-4,1,-1,-1
1532063054754,-2,1,2,0,0,-1,-1,0
1532063054759,0,1,-6,-3,-1,-2,-2,-1
1532063054764,-1,-3,-2,-1,0,-2,-3,0
1532063054769,0,-1,-1,0,-1,-1,-2,-2
1532063054774,0,-2,-4,0,-2,-2,-1,-1
1532063054779,0,1,0,0,-1,0,0,0
1532063054784,-1,-1,0,1,-1,-1,-1,1
1532063054789,0,-1,-5,-2,0,-1,-3,-1
1532063054794,0,0,0,0,-1,1,-2,-1
1532063054799,-1,-4,1,0,-2,-1,-1,0
1532063054804,-1,2,-1,-2,-1,-1,0,-2
1532063054809,-1,-5,0,0,0,-1,-1,-1
1532063054814,0,0,-2,1,-2,-1,-1,-1
1532063054819,-1,-3,0,0,1,0,0,-1
1532063054824,0,-1,-2,-1,-2,0,0,-3
1532063054829,-1,-1,1,-1,-2,0,-1,0
1532063054834,0,0,-1,0,0,-2,0,-2
1532063054839,0,-1,1,2,-1,0,-1,-1
1532063054844,-1,-2,-1,0,-1,0,0,0
1532063054849,0,3,0,0,1,-2,0,0
1532063054854,0,0,-1,-1,-1,1,-1,1
1532063054859,-1,-6,-1,-1,-2,-1,-2,0
1532063054864,2,1,0,0,-2,0,-1,-2
1532063054869,-2,0,-3,-3,-1,0,0,-2
1532063054874,-1,3,1,0,0,1,-1,-1
1532063054879,0,-1,-3,-2,-1,0,-2,-1
1532063054884,-1,-1,1,1,1,-1,-1,0
1532063054889,1,2,-3,-1,-1,-3,0,-1
1532063054894,-1,-7,4,2,-1,-1,-1,-1
1532063054899,-1,0,0,0,0,0,-1,-2
1532063054904,-2,-3,-3,-2,-1,-1,-3,-1
1532063054909,-1,-2,2,1,1,-1,-1,-2
1532063054914,-1,1,-1,-3,-2,0,-1,-2
1532063054919,-1,-2,-1,-1,-2,-1,-1,0
1532063054924,-2,0,-1,0,-1,-1,0,-1
1532063054929,-3,-1,0,1,-2,-2,-2,-1
1532063054934,-1,0,-1,-2,-1,-2,1,-1
1532063054939,2,1,0,-1,-1,-1,-1,-3
1532063054944,-2,-1,-2,-2,0,1,-1,0
1532063054949,-1,-3,-1,-2,-1,-1,0,-2
1532063054954,-1,5,-3,-1,-2,-3,1,-1
1532063054959,-1,1,0,-1,-1,-2,0,1
1532063054964,-1,-1,-1,-1,-2,0,-1,1
1532063054969,-1,-2,0,0,1,2,-1,1
1532063054974,0,2,1,1,0,1,0,-1
1532063054979,1,-2,-9,-1,0,-2,1,-1
1532063054984,-1,1,7,2,-1,-3,-1,0
1532063054989,-1,-1,-1,0,-3,0,-2,-1
1532063054994,0,-3,-1,-2,0,-2,-2,-1
1532063054999,-2,-1,1,-1,0,1,-1,-1
1532063055004,-1,-3,-2,-2,0,0,0,-2
1532063055009,0,-1,-2,-2,-1,-1,-1,0
1532063055014,0,-2,-3,0,-2,-1,0,-1
1532063055019,-1,2,0,-1,0,0,-3,0
1532063055024,0,-1,-4,-1,-1,-2,0,-1
1532063055029,-1,-1,-5,-1,0,-1,-1,-2
1532063055034,-2,0,6,-2,-3,-1,-1,0
1532063055039,-1,-1,-1,0,-1,0,-1,-1
1532063055044,-1,-2,-2,-1,-2,-1,-1,0
1532063055049,1,3,1,0,-1,-1,0,0
1532063055054,-1,-1,-2,-1,1,0,-1,0
1532063055059,-1,0,1,0,-1,-1,0,0
1532063055064,-1,-2,1,1,0,0,-1,0
1532063055069,-1,-6,-5,0,-2,-2,-1,1
1532063055074,-2,-2,-3,-1,0,0,-2,-1
1532063055079,-1,-1,-1,-1,-1,-1,-1,0
1532063055084,0,1,0,1,1,0,-1,-1
1532063055089,-1,0,1,-1,0,0,-2,-1
1532063055094,-1,-4,-5,-2,-1,0,-1,-1
1532063055099,1,0,2,-2,0,-1,1,0
1532063055104,-1,0,-2,-1,-1,-1,-1,-2
1532063055109,0,-9,1,-1,0,-2,0,0
1532063055114,-1,0,-6,-1,0,-1,-1,-2
1532063055119,-1,-1,-1,0,-2,-1,-1,-2
1532063055124,0,-3,1,-2,-1,0,-2,1
1532063055129,0,2,0,-1,-2,0,-1,-1
1532063055134,-1,-1,0,-1,0,-1,-3,0
1532063055139,-2,-2,0,1,-1,-1,-1,-3
1532063055144,0,2,0,-3,-1,0,-1,-1
1532063055149,-1,0,0,0,-1,0,-1,-1
1532063055154,-1,-2,-2,-2,-1,-1,-2,-2
1532063055159,1,0,0,-2,-2,-1,-1,0
1532063055164,0,-1,-4,-2,-2,0,1,1
1532063055169,-1,5,1,0,-1,-1,0,0
1532063055174,0,0,-1,0,-1,0,0,-2
1532063055179,-1,-3,-1,0,-1,0,0,-1
1532063055184,0,-1,0,1,0,-1,0,-4
1532063055189,0,-3,-1,-4,-1,0,0,-1
1532063055194,0,1,1,0,-1,-2,-3,1
1532063055199,-2,-4,-2,-4,1,-1,-1,0
1532063055204,0,-2,0,0,-1,-1,-2,-1
1532063055209,0,-1,0,0,-2,0,0,0
1532063055214,-2,-2,1,-1,-1,-1,0,0
1532063055219,-1,1,-2,-1,-1,-1,-1,0
1532063055224,-1,0,0,-1,0,-1,1,0
1532063055229,-1,-1,3,0,-1,-1,-1,-2
1532063055234,-2,-3,-4,-1,-1,0,-1,-3
1532063055239,-2,-2,-1,0,0,-1,-1,-2
1532063055244,-1,-1,0,-3,-1,-1,-2,0
1532063055249,-1,3,-3,-1,-1,-2,2,-3
1532063055254,0,-2,-1,-1,0,-2,0,0
1532063055259,0,1,0,0,-2,0,0,0
1532063055264,-1,-2,-1,-2,-2,-2,-2,-1
1532063055269,-2,-2,-2,-1,-1,1,-2,0
1532063055274,-1,0,2,1,-1,-1,-1,0
1532063055279,-1,-2,-4,-3,-2,0,-1,-2
1532063055284,-1,-2,-1,2,0,0,0,-1
1532063055289,-1,-1,-1,-2,-2,0,-2,0
1532063055294,0,0,1,-2,-1,-1,0,1
1532063055299,0,2,0,0,-1,1,-1,-1
1532063055304,-1,2,-3,-1,-1,-2,0,0
1532063055309,-2,-12,-4,-1,0,-2,0,0
1532063055314,0,0,0,-1,0,0,0,0
1532063055319,-1,-2,0,0,-1,2,0,0
1532063055324,0,2,-1,0,0,0,-2,-1
1532063055329,0,-5,1,-1,-1,-1,-1,-2
1532063055334,-1,0,-1,-3,-2,-2,-1,0
1532063055339,0,-2,0,-1,-1,0,-2,-1
1532063055344,-2,-3,-1,-2,-2,0,0,-1
1532063055349,0,2,-1,0,0,1,0,0
1532063055354,0,-1,-1,0,-1,-1,0,0
1532063055359,-1,0,-4,-1,0,-1,0,0
1532063055364,0,1,7,0,-1,0,-1,-1
1532063055369,0,3,-2,-1,-1,-2,-1,0
1532063055374,-1,-1,1,0,-1,-1,0,-2
1532063055379,-2,1,-1,0,-1,0,-1,0
1532063055384,-2,-2,-3,0,-1,0,-1,1
1532063055389,-1,1,0,1,-1,1,0,-2
1532063055394,-2,-1,-1,0,-1,1,-1,-1
1532063055399,-1,-2,-1,-1,-1,-1,0,-1
1532063055404,-2,-3,-2,0,-2,-1,-1,0
1532063055409,-1,2,2,2,-2,-1,-1,-1
1532063055414,1,0,-3,-2,-1,-1,-1,-1
1532063055419,0,-3,0,-1,-1,-1,-1,-1
1532063055424,0,-4,-3,-3,-2,0,1,-1
1532063055429,0,2,-2,0,0,-3,0,0
1532063055434,-3,-9,-1,2,0,0,-3,-2
1532063055439,-2,0,-6,-2,0,-1,-2,0
1532063055444,0,0,-1,-1,-2,-1,-1,-1
1532063055449,0,-3,-2,-3,-1,-1,-1,0
1532063055454,1,1,0,0,1,0,-1,0
1532063055459,-2,0,1,-1,0,-2,-2,-1
1532063055464,-2,-3,-4,0,0,0,-1,1
1532063055469,1,1,0,-1,-1,-1,-1,-1
1532063055474,-2,2,-1,-1,-1,0,0,0
1532063055479,-1,-2,-1,0,-1,-1,0,-1
1532063055484,0,1,3,-2,-2,0,0,-2
1532063055489,-1,0,-3,-2,-2,-2,0,-1
1532063055494,-1,3,-3,-2,0,-1,0,-1
1532063055499,0,-5,1,-2,1,-1,0,-2
1532063055504,-1,0,0,0,-1,0,-1,0
1532063055509,-1,-1,-1,-2,-1,-2,-1,-3
1532063055514,0,-1,1,0,-1,-1,1,-2
1532063055519,1,2,-1,1,-1,-1,1,2
1532063055524,0,4,-2,-2,1,0,0,-1
1532063055529,-2,-5,-3,-1,1,0,0,0
1532063055534,-1,0,6,-1,-2,-1,-1,-1
1532063055539,-1,2,0,0,-2,0,-1,-1
1532063055544,-1,-2,-3,-1,-1,-2,-1,-2
1532063055549,-1,2,0,-1,-1,-2,-1,1
1532063055554,0,-1,-3,-1,-1,0,0,-1
1532063055559,-2,-4,1,-2,-1,-2,-2,1
1532063055564,1,-5,-2,0,0,0,-1,-1
1532063055569,-2,1,-1,0,0,-1,-1,-1
1532063055574,-2,-3,-2,-1,0,0,-1,1
1532063055579,0,2,3,0,-2,-2,-1,-2
1532063055584,-1,0,0,-2,0,-1,0,-1
1532063055589,-1,-3,-2,-1,-1,-1,-1,0
1532063055594,-1,-1,-1,0,-1,-3,-2,0
1532063055599,0,-1,0,1,0,0,-1,-1
1532063055604,-2,-2,1,-1,2,-2,-1,1
1532063055609,1,-2,-2,0,1,1,0,-1
1532063055614,-1,0,4,0,-2,-2,-2,1
1532063055619,-1,0,-2,-1,-1,-1,-2,-1
1532063055624,0,-3,-1,-2,0,-3,0,-2
1532063055629,-1,-1,-2,-1,0,-1,-2,-1
1532063055634,0,8,-3,-1,-1,-2,-1,-1
1532063055639,-1,0,2,-1,-2,-3,1,-2
1532063055644,-1,-7,-2,-1,1,0,-2,-1
1532063055649,-1,0,0,0,-1,0,-2,0
1532063055654,1,-1,-2,-1,-1,0,-1,-1
1532063055659,0,2,1,-2,-1,-1,-1,-2
1532063055664,1,3,2,1,-1,1,1,-1
1532063055669,-1,-2,-6,-3,-1,1,0,-2
1532063055674,1,-5,-3,0,0,-2,-1,-1
1532063055679,0,-1,-1,-1,-1,-1,0,0
1532063055684,0,-1,0,0,-1,-2,0,-1
1532063055689,-1,1,1,-1,-1,-1,0,-2
1532063055694,-2,-1,-2,-2,-1,0,-1,0
1532063055699,-1,-2,-1,-1,-1,-1,0,-1
1532063055704,0,1,-2,0,-2,-1,0,1
1532063055709,0,0,2,0,-1,-1,0,-1
1532063055714,-3,-3,-2,-1,-3,-2,-1,-2
1532063055719,0,0,-1,-1,-1,-1,-1,-1
1532063055724,-2,1,-3,-1,-1,-1,-1,-1
1532063055729,-1,-2,2,0,-1,-2,-1,-1
1532063055734,0,-1,-2,-1,1,0,-1,-1
1532063055739,0,-2,-1,1,-2,1,-1,-2
1532063055744,-1,-1,-4,2,-1,0,-2,-1
1532063055749,-2,-2,-2,-3,-2,-2,-2,1
1532063055754,0,-1,1,-1,-1,-2,0,-3
1532063055759,-2,-1,-2,-1,-1,-2,-1,0
1532063055764,0,0,1,0,-1,-2,-3,-1
1532063055769,0,-2,1,0,-1,-1,0,-2
1532063055774,-1,1,-1,1,-1,0,-1,0
1532063055779,1,4,-1,-1,-1,0,-1,-1
1532063055784,-2,1,3,-1,-1,-1,0,0
1532063055789,0,-3,-2,-1,-2,-1,-1,-1
1532063055794,-1,-2,-2,-3,0,-1,1,0
1532063055799,0,0,-3,0,-1,-1,-1,-1
1532063055804,-2,-1,-1,0,-1,-2,0,0
1532063055809,1,1,1,0,-1,0,-1,-1
1532063055814,2,1,-2,0,0,-2,0,-2
1532063055819,-2,-3,2,0,0,-1,-2,-2
1532063055824,-2,-4,-5,-3,-3,1,-1,1
1532063055829,0,0,0,2,-1,0,-1,0
1532063055834,-2,-2,-3,-4,-2,0,-1,0
1532063055839,-2,1,1,-1,1,1,-2,1
1532063055844,-1,0,1,-1,-1,-2,0,-2
1532063055849,-2,0,0,0,0,-2,-1,0
1532063055854,-1,-1,-1,-1,1,0,-1,-1
1532063055859,-1,-3,-2,-1,-1,-2,0,0
1532063055864,-1,-2,-4,-1,-2,1,-2,0
1532063055869,-2,2,6,0,-2,1,-1,0
1532063055874,-1,-3,-1,-1,-1,-3,-1,-2
1532063055879,-1,-3,-3,-2,-1,0,-1,-1
1532063055884,-1,0,1,0,0,-1,-1,-1
1532063055889,0,-1,-3,-2,0,0,-2,2
1532063055894,-1,0,-1,-1,0,-1,0,1
1532063055899,-1,-10,-1,-1,-1,-1,1,0
1532063055904,-1,1,2,0,-1,0,0,0
1532063055909,0,1,0,-1,0,-1,-2,-1
1532063055914,-1,-2,-7,-1,-1,-1,-2,-1
1532063055919,0,2,0,-1,-1,-2,-1,-2
1532063055924,-1,1,2,-1,-2,-1,0,-2
1532063055929,1,-2,-1,-3,0,-1,-2,0
1532063055934,0,-2,-2,0,-2,-1,0,0
1532063055939,0,1,-2,-1,-1,-1,0,1
1532063055944,1,-1,-2,-1,1,-2,-2,-1
1532063055949,-2,0,0,-1,-1,-2,1,-2
1532063055954,-2,0,1,-1,0,0,0,0
1532063055959,-1,0,0,0,-1,-2,-3,0
1532063055964,0,-2,1,-3,-1,-1,1,-2
1532063055969,0,0,-1,-1,-1,0,0,0
1532063055974,-1,-2,-2,0,-1,-1,-2,-2
1532063055979,0,0,0,-1,-2,0,-1,-1
1532063055984,-1,1,0,-2,0,0,0,0
1532063055989,-1,-3,-6,-2,-2,-2,-1,-1
1532063055994,0,7,4,-1,-2,1,0,0
1532063055999,-1,1,1,0,0,0,0,-2
1532063056004,0,-1,-3,-3,0,0,-2,-2
1532063056009,-1,-1,-3,0,0,0,-2,0
1532063056014,-1,0,0,0,0,-1,-2,0
1532063056019,-2,0,0,-1,-1,-1,-2,1
1532063056024,-1,0,-1,0,1,-1,0,-2
1532063056029,-1,0,0,1,-1,0,1,0
1532063056034,-1,-3,-2,1,0,-2,-1,0
1532063056039,-1,-2,-2,0,0,1,0,0
1532063056044,0,-3,-2,-1,-2,-2,0,0
1532063056049,-1,-1,4,-2,-2,-1,-1,-3
1532063056054,0,0,1,-1,0,-1,-1,-2
1532063056059,-2,-2,0,-1,-1,-1,0,-1
1532063056064,-1,0,0,-1,0,-1,-2,0
1532063056069,0,-2,-2,0,-1,-1,0,-1
1532063056074,-1,-3,0,-1,-1,1,0,-1
1532063056079,0,-2,-1,-1,0,0,1,-2
1532063056084,-1,0,1,3,-1,0,-1,0
1532063056089,-2,-1,-2,-2,0,-1,-1,0
1532063056094,-2,4,0,1,-2,0,-2,1
1532063056099,-1,-1,-1,0,-2,0,0,0
1532063056104,0,-2,0,-1,0,-2,-1,-1
1532063056109,-1,0,-2,0,0,-2,0,-1
1532063056114,0,-2,-2,-1,0,-2,-1,-2
1532063056119,0,0,8,0,-1,-1,-2,-1
1532063056124,-2,-1,-4,-2,-1,-1,0,0
1532063056129,0,-3,-2,0,0,-1,-1,0
1532063056134,-1,-4,1,0,0,-2,0,2
1532063056139,1,-1,-2,0,0,0,-1,0
1532063056144,-1,-2,-1,0,-2,0,-1,0
1532063056149,0,1,0,-2,-1,0,0,-1
1532063056154,-1,-3,1,0,-1,0,-1,-2
1532063056159,-1,-3,-4,-2,-1,-1,0,-2
1532063056164,1,0,1,0,-1,-1,-2,-2
1532063056169,0,-1,-2,0,-1,0,0,-2
1532063056174,0,-2,1,0,-1,-1,0,0
1532063056179,-1,-1,-3,-2,-2,-1,0,0
1532063056184,0,-1,0,-3,1,-1,1,-2
1532063056189,-1,0,-1,-1,-1,-1,-2,0
1532063056194,-2,-1,0,-1,0,-1,0,-1
1532063056199,-1,0,2,0,0,-1,-2,-1
1532063056204,-2,0,-2,-2,-2,-1,-1,1
1532063056209,0,0,1,1,-1,-1,0,-1
1532063056214,0,0,0,-1,-1,-1,0,-2
1532063056219,-1,-3,-4,-2,-1,1,-1,0
1532063056224,0,3,0,-1,-1,0,-1,-2
1532063056229,-3,-8,1,-1,0,-1,0,-2
1532063056234,-1,-3,-2,-1,0,-3,1,0
1532063056239,-1,0,0,0,0,0,0,0
1532063056244,-1,-1,-1,0,-2,-1,0,0
1532063056249,0,1,-7,1,0,0,-1,-1
1532063056254,-1,0,7,-1,-3,-1,-3,-1
1532063056259,0,-1,-3,-1,0,-1,-1,-1
1532063056264,-2,-2,0,0,-2,-1,-3,-3
1532063056269,-1,2,-2,-1,-1,-1,-2,-2
1532063056274,1,-1,-3,0,-2,-1,-1,0
1532063056279,-1,-1,-1,-2,-2,0,0,-2
1532063056284,0,-1,-1,1,-2,1,0,0
1532063056289,0,1,2,-2,-1,-1,0,1
1532063056294,0,-1,-4,-1,0,-1,0,-3
1532063056299,1,-4,-1,0,-1,-1,-1,0
1532063056304,0,0,-3,-3,1,1,-1,1
1532063056309,-1,-2,0,-1,0,-2,-1,-3
1532063056314,-2,0,2,1,-1,0,-1,-1
1532063056319,-1,0,-2,-1,0,-2,-1,-1
1532063056324,-1,-1,-2,0,-2,-2,-1,-1
1532063056329,-1,0,-1,0,0,1,-3,1
1532063056334,0,-1,-1,1,-2,0,0,-1
1532063056339,-1,-1,-2,-3,-1,-2,-1,-1
1532063056344,-2,-1,-4,-2,-1,0,-1,0
1532063056349,-1,-8,1,-1,-1,-1,0,-1
1532063056354,-1,0,-3,0,0,0,-1,0
1532063056359,-2,0,0,1,-2,0,-1,-1
1532063056364,1,-2,2,-2,0,-1,0,0
1532063056369,0,-2,-1,0,-1,-2,-1,0
1532063056374,-1,-2,-2,-2,-2,-1,1,1
1532063056379,1,-2,-3,-1,0,-1,-3,-2
1532063056384,-2,1,6,0,-2,-1,-1,-2
1532063056389,-1,1,0,0,0,-1,-1,-2
1532063056394,0,-1,0,-1,-1,-2,-2,0
1532063056399,-1,0,0,0,-2,-1,0,-1
1532063056404,-1,-1,-4,0,-1,-1,0,-3
1532063056409,0,1,-1,-1,-2,0,0,0
1532063056414,-2,0,3,0,0,-1,-1,-1
1532063056419,-1,-2,-6,-3,0,-1,-1,-1
1532063056424,-1,-2,2,1,-2,1,-2,-1
1532063056429,-1,0,0,0,-1,0,0,0
1532063056434,-1,-1,-3,-1,0,0,-1,0
1532063056439,1,1,0,0,-2,0,-1,2
1532063056444,0,-2,-1,-1,1,-2,1,-1
1532063056449,0,1,-1,-1,-2,-1,0,0
1532063056454,0,-2,-4,-3,-1,0,-1,-1
1532063056459,-2,3,3,0,0,-1,0,0
1532063056464,-3,-10,-3,-2,0,-2,-2,-1
1532063056469,-1,-1,-2,-1,-2,0,-1,-1
1532063056474,0,-1,-1,-1,0,1,-2,-1
1532063056479,-2,-2,1,1,0,0,1,-2
1532063056484,0,2,0,0,-2,1,0,-2
1532063056489,-1,1,-1,0,-2,-2,0,-1
1532063056494,-2,-2,-1,0,-1,0,-1,-1
1532063056499,-1,0,2,0,-1,-1,0,0
1532063056504,-1,0,-7,-2,-3,-2,0,1
1532063056509,0,-2,-3,1,0,0,1,0
1532063056514,0,-1,6,-1,-1,-1,0,-2
1532063056519,-1,-1,-1,1,-2,-2,0,-2
1532063056524,0,1,-1,-1,-1,-2,-1,-2
1532063056529,0,0,-1,-1,-1,-1,-1,-1
1532063056534,0,-3,-4,-3,0,-1,0,-2
1532063056539,0,-1,-1,-1,0,-1,-2,-1
1532063056544,0,-1,0,0,0,1,1,-2
1532063056549,1,0,1,-2,0,2,0,1
1532063056554,0,0,-3,0,-2,-1,-1,-1
1532063056559,0,-1,-1,-3,-2,-2,1,-1
1532063056564,-1,1,-2,-1,-1,-1,-3,0
1532063056569,-1,1,0,-1,-1,-1,0,-1
1532063056574,0,0,-1,-1,0,-1,1,1
1532063056579,1,-2,0,0,-1,-1,0,1
1532063056584,0,-3,-1,-1,0,-1,0,-1
1532063056589,-2,-2,-1,-1,-1,1,-1,-1
1532063056594,-1,0,-1,0,-3,1,0,-1
1532063056599,-2,-1,-3,1,-1,0,-1,0
1532063056604,-1,-1,0,-2,-1,-2,-1,0
1532063056609,-1,-1,0,-2,-1,-1,-3,0
1532063056614,-1,1,-4,-3,-1,-1,0,-2
1532063056619,-1,-1,-1,-3,-1,-2,0,-1
1532063056624,0,0,1,0,-1,0,-1,-2
1532063056629,-1,-1,-2,-1,0,-2,-3,-3
1532063056634,-1,-2,-4,-2,-2,-2,-1,-2
1532063056639,1,-2,-1,-2,1,0,1,-2
1532063056644,-1,-1,0,0,-1,-2,1,0
1532063056649,0,0,0,0,0,-1,-1,-1
1532063056654,0,-1,1,0,-1,1,-3,1
1532063056659,0,1,1,1,0,-2,-2,-1
1532063056664,0,-2,-5,-2,0,1,-1,0
1532063056669,-2,0,9,1,0,0,1,1
1532063056674,-1,-1,0,0,1,-1,-1,0
1532063056679,0,-2,-6,-5,-4,1,-2,0
1532063056684,-1,0,1,-1,-1,0,2,-1
1532063056689,-1,-2,-2,-1,-1,-1,-2,-1
1532063056694,1,-2,-2,-1,0,0,0,-1
1532063056699,-1,-1,1,1,0,-2,-1,-1
1532063056704,0,-1,0,-1,-1,0,-1,-1
1532063056709,0,-1,-3,-2,-1,1,0,0
1532063056714,-2,-2,-1,0,-1,-1,-2,-1
1532063056719,1,-1,-5,0,-1,0,-2,-1
1532063056724,0,0,4,0,0,-1,-1,0
1532063056729,0,1,0,0,-2,-1,-1,-1
1532063056734,-1,-1,-7,-2,-2,-2,-1,-1
1532063056739,-1,-2,-1,0,0,0,0,-1
1532063056744,-1,0,1,1,-1,-1,-1,-1
1532063056749,-2,-2,-4,-5,-1,-1,1,-1
1532063056754,-2,1,1,-1,-1,-1,0,-1
1532063056759,1,0,-1,-1,0,-1,-1,-1
1532063056764,0,-1,-1,0,-1,0,0,-1
1532063056769,0,-2,-4,-2,-1,-1,0,0
1532063056774,0,1,0,1,0,0,0,-1
1532063056779,-1,-2,0,0,-1,-1,-1,0
1532063056784,-2,-1,-1,-1,-1,-1,-2,-1
1532063056789,-1,-1,-2,0,-1,-1,-2,-2
1532063056794,0,-1,0,-3,-2,1,-1,-1
1532063056799,0,-1,0,0,-2,-2,-2,-1
1532063056804,0,-2,-3,-1,0,-2,-1,0
1532063056809,1,0,2,0,-2,-1,0,0
1532063056814,-1,-1,-2,0,0,-1,0,0
1532063056819,-2,2,1,0,0,0,-1,-2
1532063056824,-1,0,-1,0,-1,0,1,-2
1532063056829,-1,1,-1,0,-1,-1,0,-3
1532063056834,-1,0,0,-1,-1,-1,1,0
1532063056839,-2,0,0,1,1,0,1,-1
1532063056844,-1,0,-2,-3,-1,0,0,1
1532063056849,-1,-2,-1,0,0,0,-1,-2
1532063056854,-2,-1,-3,0,-1,-3,-3,-1
1532063056859,-1,-1,7,-1,-2,0,-2,-2
1532063056864,-1,0,-2,-2,-1,0,-1,-2
1532063056869,-1,0,-1,0,-2,-2,-1,0
1532063056874,-1,-3,-2,0,0,0,-2,-1
1532063056879,-2,0,-4,0,-1,0,0,0
1532063056884,1,1,0,-1,-1,-2,-2,-2
1532063056889,0,0,0,0,0,0,-1,-1
1532063056894,0,-1,1,-1,-1,0,-1,-2
1532063056899,0,-1,-1,-1,0,-1,-1,-2
1532063056904,1,-1,-1,0,-2,-1,0,1
1532063056909,-2,0,0,2,0,-1,-1,-1
1532063056914,-1,-1,-1,-3,-1,-2,-1,-1
1532063056919,-1,-1,0,-1,-1,0,0,-1
1532063056924,-2,-3,0,-1,-1,1,-3,-1
1532063056929,0,-2,-1,-2,0,1,-1,-1
1532063056934,-1,0,0,1,-1,-1,0,-2
1532063056939,0,0,-3,-2,-2,-2,0,-2
1532063056944,-2,0,0,-1,1,-1,-1,0
1532063056949,-1,0,1,1,-1,1,-2,0
1532063056954,0,-1,2,1,0,-1,-1,-2
1532063056959,0,0,-2,0,-2,0,-1,-1
1532063056964,-1,0,0,0,0,-2,0,-1
1532063056969,1,0,-2,-2,-1,-1,-1,0
1532063056974,0,-2,0,0,0,0,-1,-2
1532063056979,0,0,1,1,-1,-1,0,0
1532063056984,-2,-2,-1,0,-1,-2,-1,0
1532063056989,-1,-1,-3,-5,-2,0,-1,-1
1532063056994,0,0,-2,0,0,1,-1,1
1532063056999,-2,-1,-1,-1,0,0,-2,-2
1532063057004,-2,0,0,1,0,0,-2,-2
1532063057009,-2,-3,-3,1,-1,-2,-1,-2
1532063057014,0,1,5,1,0,0,0,-2
1532063057019,-1,-2,-4,-2,0,0,-1,0
1532063057024,1,-1,-2,-2,-1,0,0,2
1532063057029,0,-1,3,-1,1,1,-1,-1
1532063057034,-1,-1,-1,-1,-2,-1,0,-2
1532063057039,1,-2,-1,-1,0,-1,-1,-2
1532063057044,1,0,6,2,-2,-3,-2,-2
1532063057049,-1,-1,-2,-1,-2,-1,-1,0
1532063057054,-2,-2,-1,-2,-2,-2,0,-2
1532063057059,-1,-1,1,1,0,-1,-2,-1
1532063057064,0,-3,-4,-1,-2,1,-2,-1
1532063057069,2,0,-2,-1,-2,-3,0,-1
1532063057074,0,-1,-2,0,-1,0,-1,0
1532063057079,-1,0,-1,-1,-1,-3,-1,1
1532063057084,-1,1,0,1,1,-1,-2,-1
1532063057089,-2,-2,-1,0,0,-2,-2,-2
1532063057094,-2,-1,-1,-2,-2,0,-1,-1
1532063057099,-1,-3,-4,-3,0,0,1,-2
1532063057104,-1,0,5,-1,-1,-1,0,-2
1532063057109,0,-1,0,0,-1,-1,0,-4
1532063057114,1,1,-1,1,0,-2,-1,-1
1532063057119,0,-1,-1,1,-1,1,-2,-1
1532063057124,-2,-1,-6,-1,-1,0,-3,-1
1532063057129,-1,-2,-2,-1,-1,-1,1,0
1532063057134,-2,-2,-2,-2,0,-2,-1,-1
1532063057139,0,0,0,-1,-1,-2,-1,1
1532063057144,1,0,-2,-2,-2,-3,-1,0
1532063057149,-1,0,2,-2,-1,-2,-1,-2
1532063057154,-1,-2,1,-2,-1,0,-1,0
1532063057159,-1,0,-3,1,0,0,-2,-1
1532063057164,-2,-2,2,-1,-1,-1,1,-2
1532063057169,0,0,-2,0,1,-2,-1,2
1532063057174,-1,0,0,-2,0,-1,-2,-1
1532063057179,-1,0,0,-2,0,0,0,-2
1532063057184,-2,-2,-4,-1,-1,0,0,0
1532063057189,-1,-1,3,0,-1,1,1,-1
1532063057194,0,-1,-1,-1,-1,0,-1,-1
1532063057199,-1,-2,0,-1,-2,-2,-1,0
1532063057204,0,0,-2,0,0,-1,-1,1
1532063057209,-1,-1,0,-2,0,-1,-1,1
1532063057214,-1,-2,-2,1,-2,-1,0,0
1532063057219,0,-1,-1,0,1,1,-1,-2
1532063057224,-1,-3,-5,-1,-1,0,0,-1
1532063057229,-2,2,-3,-2,-1,-1,0,1
1532063057234,0,0,2,0,-2,1,-1,-1
1532063057239,-1,-2,-1,-1,-1,-2,0,1
1532063057244,-1,-2,-1,-2,0,-2,1,-3
1532063057249,-2,0,-1,1,0,-2,-1,0
1532063057254,0,1,-1,0,-1,-1,-1,-1
1532063057259,0,0,-2,-3,-1,-2,-1,-1
1532063057264,2,-2,0,0,-1,0,-1,-1
1532063057269,0,-1,-2,-2,-1,-1,-1,-1
1532063057274,0,1,3,2,1,-1,0,-2
1532063057279,-1,-2,0,0,-1,1,-1,-1
1532063057284,-2,-1,1,3,-3,-1,-2,-2
1532063057289,-2,-3,-5,-5,-1,0,-3,-1
1532063057294,-1,0,6,0,1,0,-1,-1
1532063057299,-2,-3,-4,0,-1,-1,0,-1
1532063057304,0,2,1,0,0,0,-2,0
1532063057309,-1,-2,-2,0,-1,1,-2,-2
1532063057314,0,-2,-5,-2,0,-2,-1,0
1532063057319,0,-1,1,0,1,-2,0,0
1532063057324,0,-1,-2,-1,0,-1,0,-2
1532063057329,0,-1,0,0,-2,-1,-1,-1
1532063057334,-2,0,-3,-1,1,-1,0,0
1532063057339,0,0,3,1,0,0,-2,0
1532063057344,0,-1,-6,-3,1,-1,0,0
1532063057349,0,0,3,0,-1,-2,-1,1
1532063057354,-1,-2,-5,-2,-1,1,-1,0
1532063057359,-1,0,0,-2,-2,-1,-2,-2
1532063057364,0,0,2,0,1,0,-1,-1
1532063057369,0,-2,-3,-3,-1,-2,-2,-1
1532063057374,-1,-3,-4,0,-1,-2,-3,0
1532063057379,-1,-2,0,-3,-2,0,-1,-1
1532063057384,0,1,-2,-2,-1,-2,-1,0
1532063057389,0,-1,2,2,-1,2,-1,-2
1532063057394,-1,-1,-1,-1,-1,-2,0,-2
1532063057399,0,0,0,-1,0,0,-1,-2
1532063057404,-1,-1,1,-1,-3,-1,0,-2
1532063057409,-2,1,0,0,-1,-1,-1,0
1532063057414,-1,0,-1,-2,-2,-1,0,0
1532063057419,-1,-2,-4,0,0,-2,-1,1
1532063057424,1,1,4,1,-2,-1,-2,-1
1532063057429,-1,1,0,1,0,-1,-2,-1
1532063057434,-1,-1,-4,0,0,0,-1,-2
1532063057439,-2,1,0,-3,-2,-3,0,0
1532063057444,-2,-1,-2,1,0,2,-1,-1
1532063057449,0,-2,0,-1,-1,-1,-1,-1
1532063057454,-2,-2,2,0,-1,-1,-1,0
1532063057459,5,0,3,3,1,-1,0,0
1532063057464,-8,-5,-5,-4,-2,-1,0,1
1532063057469,0,1,1,1,-1,-1,-1,-1
1532063057474,1,0,0,0,-1,0,0,0
1532063057479,-2,-2,-4,-2,-1,1,-1,0
1532063057484,0,0,-2,-1,-2,-2,0,0
1532063057489,-1,-1,-1,-1,1,-3,-1,1
1532063057494,-2,-2,-2,-2,-1,-2,-1,-1
1532063057499,-1,0,0,2,-1,-2,0,-1
1532063057504,0,-2,5,-1,-2,-2,-2,2
1532063057509,-1,-2,-7,-3,-1,0,0,-1
1532063057514,0,0,4,-1,-2,-2,-1,-1
1532063057519,-3,0,-4,-1,-1,-1,-1,-1
1532063057524,0,0,2,0,0,0,-1,0
1532063057529,-1,0,-1,0,1,0,-2,0
1532063057534,-2,-1,0,0,-1,-1,0,-1
1532063057539,-2,-1,-2,-2,0,-1,-1,-2
1532063057544,0,0,-1,-1,-2,-1,0,-1
1532063057549,0,-3,-6,-3,-2,0,-1,0
1532063057554,-1,-1,0,1,0,0,0,-1
1532063057559,0,0,0,0,-2,0,-1,0
1532063057564,1,0,-3,-1,1,-2,0,-3
1532063057569,0,-1,0,0,-1,0,0,1
1532063057574,-1,-1,0,-3,0,-1,-1,-1
1532063057579,-3,-2,-1,0,-1,0,-1,-1
1532063057584,0,-1,-2,1,0,0,-1,0
1532063057589,-1,-1,3,1,0,-1,-2,-1
1532063057594,0,-2,-2,-2,-3,0,0,0
1532063057599,-1,0,2,0,-1,-1,-2,-2
1532063057604,0,-1,-4,-3,1,-2,-2,-1
1532063057609,0,-1,-3,0,-1,-1,0,-2
1532063057614,0,-2,3,-1,-1,-2,-2,0
1532063057619,0,-1,0,-2,-1,-1,0,-1
1532063057624,0,0,-4,0,0,-1,0,-1
1532063057629,-1,-1,1,-1,-2,-1,1,-1
1532063057634,1,0,-2,-1,-1,0,-1,-1
1532063057639,-1,-4,-3,-1,-1,-2,1,-1
1532063057644,-1,1,3,1,-2,0,-2,0
1532063057649,-1,-2,-2,-3,-1,-1,-1,-2
1532063057654,-1,1,-3,-2,0,-1,0,0
1532063057659,-1,2,3,0,0,0,-2,0
1532063057664,-1,-1,1,1,-2,-1,1,0
1532063057669,-1,-2,-1,1,-2,-2,1,-1
1532063057674,0,-2,0,0,-1,-1,0,0
1532063057679,-3,0,-1,-2,-2,-3,0,-3
1532063057684,-1,-2,-2,-1,-2,1,0,-1
1532063057689,0,1,2,0,-2,1,-1,-1
1532063057694,-1,-3,-4,-1,0,-1,-1,-2
1532063057699,-1,1,0,-1,0,0,-1,-1
1532063057704,-1,-1,1,-2,-2,-2,0,-1
1532063057709,0,0,3,1,0,0,-2,-1
1532063057714,-1,0,-1,1,-1,-1,-1,0
1532063057719,-1,-2,-5,-2,-2,-1,0,-1
1532063057724,-1,0,-1,-2,-2,0,1,-1
1532063057729,-1,-1,-1,1,0,-1,-1,-2
1532063057734,-1,0,0,0,0,0,-1,0
1532063057739,2,0,0,0,-1,-1,-2,0
1532063057744,-1,-2,-2,2,-1,-1,-1,0
1532063057749,0,-1,-2,-3,0,-1,1,1
1532063057754,-2,-1,-1,1,1,0,-1,-1
1532063057759,-2,0,0,0,-1,1,-1,0
1532063057764,-1,0,0,-1,2,-1,-2,-2
1532063057769,-1,1,-2,-2,-1,-1,-2,-1
1532063057774,-1,0,-2,1,-1,-2,-2,-1
1532063057779,-1,-1,2,-1,-1,1,0,0
1532063057784,-1,-1,-1,2,0,-1,-1,-1
1532063057789,-1,0,1,-1,0,-1,0,-1
1532063057794,-1,1,1,-1,-1,2,0,-1
1532063057799,0,-1,-4,-1,-1,0,0,0
1532063057804,-1,1,-3,-1,-1,0,-2,-1
1532063057809,1,-1,0,1,-2,0,-1,-1
1532063057814,-1,-1,-1,-2,1,1,0,-1
1532063057819,-1,0,0,-1,-2,1,-2,-1
1532063057824,-1,-1,-5,-2,0,-2,-1,-2
1532063057829,-2,-3,-2,-1,0,-2,-1,-1
1532063057834,0,-1,0,-1,-1,-1,-1,-1
1532063057839,-1,-1,-1,0,-1,-1,1,0
1532063057844,-2,-1,0,0,-1,0,0,0
1532063057849,0,-1,0,-1,-2,-2,0,1
1532063057854,-2,0,0,-1,0,-1,-2,-1
1532063057859,-2,1,1,-1,0,0,-2,-1
1532063057864,0,-2,-8,-1,-2,-2,-1,-1
1532063057869,-1,-1,7,2,-3,0,-1,0
1532063057874,0,-2,-3,-1,-1,-2,1,-2
1532063057879,1,0,-2,-2,0,-2,0,-1
1532063057884,0,-2,3,-1,-1,-1,-1,-2
1532063057889,-2,-1,-5,0,0,-2,-1,-2
1532063057894,0,-1,-1,0,-2,-1,-1,-2
1532063057899,1,0,-2,-1,-1,0,0,0
1532063057904,1,-1,6,0,-1,-1,0,-2
1532063057909,-1,-2,0,1,0,-1,0,0
1532063057914,-2,-2,1,0,-1,0,-2,-1
1532063057919,-2,-2,-1,-1,1,-1,-1,-1
1532063057924,0,0,-1,-4,0,0,-2,0
1532063057929,-2,1,-1,-2,2,0,0,0
1532063057934,0,0,-2,-1,-1,0,1,0
1532063057939,0,-1,0,-1,1,0,-1,-1
1532063057944,-2,0,-3,-2,-2,-2,0,0
1532063057949,0,-1,-2,-2,0,-1,-1,-1
1532063057954,0,-2,-2,-2,-1,-1,1,0
1532063057959,0,-1,-2,-2,0,1,-1,-1
1532063057964,0,0,3,2,-1,-2,-1,1
1532063057969,-1,-1,-2,-5,-1,-1,0,-1
1532063057974,-1,0,-1,-1,-2,-1,-2,0
1532063057979,-1,1,2,2,-2,-1,-1,-3
1532063057984,-1,-1,0,0,-1,-2,0,-2
1532063057989,1,0,-1,2,-1,-1,-1,-1
1532063057994,-1,-2,-1,0,0,-1,-1,-2
1532063057999,-1,-2,-1,-2,0,-1,0,-1
1532063058004,-1,0,-4,-3,-2,2,-3,0
1532063058009,-1,-2,0,-2,-1,0,-1,-1
1532063058014,0,-1,2,0,1,0,0,2
1532063058019,-1,-2,-5,0,-2,0,-2,1
1532063058024,-1,0,0,0,0,-3,-1,-3
1532063058029,0,-1,-3,0,-2,-2,-1,-3
1532063058034,-1,0,0,-2,0,-1,-1,-1
1532063058039,-1,-2,0,-1,0,1,-2,0
1532063058044,-2,-1,-1,0,-1,0,-2,1
1532063058049,-1,-2,-1,0,-1,0,-1,-1
1532063058054,-1,2,-1,-1,-1,-2,0,-1
1532063058059,0,1,3,1,-1,-1,-1,0
1532063058064,0,1,0,-1,0,0,-1,-1
1532063058069,-2,-2,0,-3,-1,1,-1,-2
1532063058074,-2,-2,-3,-2,-1,-1,1,-1
1532063058079,-2,0,2,-3,0,-2,0,-3
1532063058084,0,1,3,3,1,0,-1,-1
1532063058089,-1,2,-2,0,-2,-2,-1,0
1532063058094,0,-2,-3,-2,-1,1,-2,-1
1532063058099,-1,0,0,-1,0,-1,0,-1
1532063058104,0,-1,-2,0,1,0,-1,1
1532063058109,0,0,0,0,-1,0,-1,0
1532063058114,0,1,0,-1,0,-2,0,0
1532063058119,0,-1,-3,0,-1,-1,0,1
1532063058124,-1,-1,0,0,-1,-1,1,0
1532063058129,-1,0,-4,-1,0,-1,0,0
1532063058134,-1,1,8,1,-1,-1,-2,-2
1532063058139,0,-1,-1,0,0,-2,-1,-2
1532063058144,-1,-3,-2,-3,-1,0,0,-2
1532063058149,-1,-1,0,0,-1,-1,-1,0
1532063058154,-1,0,-3,-1,0,0,1,-2
1532063058159,-3,-2,-3,0,-2,-1,-1,-2
1532063058164,0,-2,-3,-3,-1,-1,-1,-1
1532063058169,0,0,2,-1,-2,-1,-2,0
1532063058174,0,0,-1,-3,-1,-1,-2,-1
1532063058179,0,0,-2,-2,-2,-1,0,0
1532063058184,-1,0,-2,-2,-2,-2,-1,-1
1532063058189,-1,1,-4,-2,0,-1,0,0
1532063058194,-1,1,6,-1,0,0,-2,0
1532063058199,-1,1,0,-1,-1,-1,-1,-1
1532063058204,-2,-2,-1,-1,-2,-1,0,-1
1532063058209,-1,0,0,0,0,-1,0,-2
1532063058214,-1,-1,-1,0,-1,0,-1,-3
1532063058219,0,0,-4,-2,-2,0,-1,0
1532063058224,1,2,7,1,-1,0,1,0
1532063058229,-2,-2,2,-1,-1,0,-1,0
1532063058234,-1,-2,-2,0,-1,-2,0,-1
1532063058239,0,-1,0,-2,-1,-1,-2,0
1532063058244,0,-1,-4,-1,-2,0,0,-1
1532063058249,0,1,-1,-1,2,0,0,0
1532063058254,-1,-1,-3,0,-2,-1,-2,-1
1532063058259,-1,-1,0,0,0,-2,2,-1
1532063058264,0,0,-2,0,0,-2,1,0
1532063058269,-1,0,1,-1,-1,0,0,-2
1532063058274,-1,0,-6,-1,-3,-2,0,0
1532063058279,-2,0,1,0,-2,0,0,-1
1532063058284,0,1,-4,-1,2,-1,0,0
1532063058289,0,-1,1,0,-1,-1,-2,0
1532063058294,-2,-2,-7,-4,-2,1,-1,0
1532063058299,0,-2,1,1,-1,-1,-2,-2
1532063058304,-2,-1,0,-2,-2,-2,-1,-1
1532063058309,-1,-1,-4,-1,0,-1,-1,-1
1532063058314,-1,-1,1,-1,0,-1,1,-1
1532063058319,-1,1,-2,-2,0,-1,0,-1
1532063058324,-2,-1,3,0,0,0,-1,1
1532063058329,-1,0,0,1,0,-2,1,0
1532063058334,0,-1,0,0,-1,-1,0,0
1532063058339,0,-1,-2,-2,0,0,0,1
1532063058344,0,1,0,-1,0,-1,0,-1
1532063058349,1,-2,-1,0,0,0,-1,0
1532063058354,0,-1,0,2,1,0,0,-1
1532063058359,-1,-1,0,-2,1,-1,-1,1
1532063058364,-2,-1,-1,-1,0,-2,0,-1
1532063058369,1,2,0,-2,-2,0,-1,-1
1532063058374,0,-1,-3,-2,1,-1,-1,-2
1532063058379,0,-2,2,1,-3,-1,-3,-2
1532063058384,1,0,-1,0,-1,-2,0,-1
1532063058389,-2,-1,1,1,1,1,0,-2
1532063058394,1,1,0,-1,-1,-2,-1,-2
1532063058399,0,-1,1,-1,-1,-2,-2,-2
1532063058404,-1,-2,-3,-1,1,0,-2,0
1532063058409,-1,0,2,-1,1,-3,0,0
1532063058414,-2,-2,-3,-2,-2,0,-1,0
1532063058419,-2,-1,-1,-1,0,1,0,0
1532063058424,0,0,-2,0,-2,-2,-2,-2
1532063058429,0,-2,-3,0,-2,-2,-3,0
1532063058434,0,-1,-2,-2,1,0,-1,1
1532063058439,-1,1,1,-2,-1,0,-1,1
1532063058444,0,-2,1,-2,-2,1,0,0
1532063058449,-1,-1,0,-2,-3,-1,0,0
1532063058454,-1,0,0,1,-1,-2,-1,0
1532063058459,0,-1,-3,-1,-3,-1,0,-1
1532063058464,-1,0,-1,-1,-1,-1,-2,-1
1532063058469,0,-1,4,1,0,0,-1,-2
1532063058474,0,-1,0,-1,1,0,-3,-2
1532063058479,0,-1,-3,-1,-1,-1,-1,-2
1532063058484,-2,-2,-3,0,-1,-1,-1,0
1532063058489,-1,-2,-3,-2,0,-1,-1,-2
1532063058494,-1,-2,3,1,-2,-3,-1,1
1532063058499,-2,0,-1,-2,0,-1,-1,-2
1532063058504,0,0,2,1,-3,1,-1,1
1532063058509,-1,0,-3,-1,-2,-1,-1,1
1532063058514,-1,1,4,2,-1,0,1,0
1532063058519,-1,-3,-8,-5,-1,-2,-2,1
1532063058524,-1,-1,2,0,1,-2,-2,-1
1532063058529,0,-1,-2,-2,2,0,-1,0
1532063058534,-1,-1,1,1,-2,-2,-1,-2
1532063058539,-1,0,2,1,-2,0,0,-1
1532063058544,1,-1,-2,-2,0,0,-1,-1
1532063058549,1,-1,-2,-2,-2,0,0,-1
1532063058554,1,-2,-4,-2,0,-1,0,0
1532063058559,-1,-1,-1,1,0,-1,-1,1
1532063058564,0,0,-1,-1,-1,1,1,-1
1532063058569,-2,1,-3,0,0,-2,-1,0
1532063058574,-1,-1,0,-1,-1,0,-1,-1
1532063058579,-1,-3,-1,0,-1,0,-3,0
1532063058584,-1,-1,-2,-1,-2,-1,-1,-2
1532063058589,-1,0,3,1,-2,0,-1,-2
1532063058594,0,0,-4,-2,-2,-2,-2,-1
1532063058599,0,2,8,1,1,-2,-1,1
1532063058604,-1,-1,-3,-2,-1,-2,0,1
1532063058609,0,-1,-4,-2,-1,-3,-1,-1
1532063058614,0,0,-1,-1,-2,1,-1,-2
1532063058619,-1,0,-2,0,0,0,0,-2
1532063058624,-1,0,-1,-1,-1,0,-1,0
1532063058629,-2,-1,0,-1,0,0,0,-2
1532063058634,-1,1,-1,-1,1,0,-1,-1
1532063058639,-2,-1,-2,-1,-1,0,-1,-1
1532063058644,0,-1,-1,-1,-1,-1,-1,-1
1532063058649,-1,-2,-3,-3,-3,1,0,1
1532063058654,-1,-1,3,0,-2,-1,0,-2
1532063058659,1,0,0,-2,-1,-1,1,-1
1532063058664,-1,0,1,0,-1,-1,0,0
1532063058669,-1,0,-1,-1,-1,-1,-2,-2
1532063058674,-1,1,-4,0,1,-1,0,0
1532063058679,0,0,6,-2,-3,0,-3,0
1532063058684,-1,-1,-1,-1,-1,0,0,-1
1532063058689,0,-2,-3,-1,-1,0,-1,-2
1532063058694,1,1,2,0,-1,-1,-1,0
1532063058699,-1,-1,-3,-1,-1,-1,1,-1
1532063058704,-1,0,-2,1,-1,0,-1,-1
1532063058709,-1,-1,0,1,1,0,-2,0
1532063058714,-1,-2,-4,-1,-1,0,-1,0
1532063058719,-2,-1,-4,-1,-1,0,-2,-2
1532063058724,0,-2,0,-2,-2,-1,-1,-2
1532063058729,-2,0,0,0,0,1,1,-1
1532063058734,-1,-2,-4,0,-1,-1,-1,-1
1532063058739,1,-1,-2,2,-2,0,-1,0
1532063058744,0,0,8,1,-2,-2,-2,0
1532063058749,0,0,0,-2,-2,-2,-1,1
1532063058754,0,-3,-2,-2,-2,1,-1,1
1532063058759,0,0,-2,0,-1,-2,-1,1
1532063058764,0,-1,-2,-2,-1,-1,-1,-1
1532063058769,-2,-1,-1,-3,-1,-1,-2,0
1532063058774,0,1,0,0,0,-1,0,-1
1532063058779,-1,-1,-2,-1,-1,-1,0,-1
1532063058784,1,-2,-2,-1,0,-2,0,-2
1532063058789,-2,-2,-1,0,-2,-3,-1,0
1532063058794,0,-2,-4,-1,0,-2,-1,-3
1532063058799,1,-1,2,-1,0,-1,-1,-2
1532063058804,0,-1,-4,-1,-2,-1,-1,0
1532063058809,0,-1,-1,-3,-1,0,0,-3
1532063058814,-2,-1,2,0,-2,-1,-2,-1
1532063058819,-2,-1,-2,0,1,-1,1,0
1532063058824,-1,-1,-3,-5,-1,0,0,0
1532063058829,0,-1,-3,-1,0,-1,0,-1
1532063058834,-2,-1,-2,-1,-1,-1,-1,0
1532063058839,-1,0,4,1,0,0,-1,-1
1532063058844,-2,0,-2,1,-2,-1,0,-3
1532063058849,-1,-1,0,0,-1,-2,-2,-3
1532063058854,-1,1,1,-1,0,-1,-2,0
1532063058859,-1,-1,-2,1,0,-2,0,-1
1532063058864,-1,0,-1,-1,0,0,-1,-1
1532063058869,0,-2,-2,-2,-1,-1,0,0
1532063058874,0,-2,6,-1,0,-1,-1,0
1532063058879,-1,0,0,0,-1,0,-1,-1
1532063058884,0,1,-1,0,0,-1,-1,0
1532063058889,-1,-1,2,-1,-1,-1,0,-1
1532063058894,0,-2,-3,-3,-1,1,0,-1
1532063058899,-2,-3,-4,-1,-1,-2,0,0
1532063058904,-1,-2,3,0,1,-1,0,0
1532063058909,-1,0,-1,1,0,-1,-1,0
1532063058914,-1,-2,-2,0,0,-2,0,-1
1532063058919,0,0,-3,-2,0,0,-1,-1
1532063058924,-1,0,0,0,-1,-1,-2,-2
1532063058929,-2,0,2,0,1,0,1,0
1532063058934,-1,0,-1,1,-1,1,0,-2
1532063058939,-1,-3,-1,-2,-1,-1,0,-2
1532063058944,-1,-2,-2,0,-2,-1,-3,-1
1532063058949,-1,0,-4,0,-1,-1,-2,-1
1532063058954,-1,-2,1,-1,-1,0,-2,-1
1532063058959,-2,-1,-2,-1,0,-2,0,1
1532063058964,0,-1,0,-2,-2,-1,1,0
1532063058969,2,-1,0,-2,-2,-1,0,-1
1532063058974,1,-1,-3,0,-1,-1,-3,-1
1532063058979,0,-2,1,3,-1,-3,-1,0
1532063058984,-1,-1,0,-4,-1,0,0,0
1532063058989,0,-2,0,0,-1,1,2,0
1532063058994,-1,1,-2,-2,-2,-2,-1,-1
1532063058999,0,-1,1,-1,-1,1,-2,0
1532063059004,0,0,0,0,-1,-2,0,0
1532063059009,-2,-2,-1,-1,-2,0,0,-1
1532063059014,-1,2,3,2,-2,-1,2,0
1532063059019,-1,-3,-8,-2,0,1,-1,-2
1532063059024,-1,-1,0,-1,1,0,-1,0
1532063059029,-1,0,-3,-2,-2,-1,-2,-1
1532063059034,-1,-3,-2,-1,0,-1,-2,0
1532063059039,0,1,2,-1,-3,0,0,-2
1532063059044,-2,-1,-1,0,-1,0,-1,0
1532063059049,-1,-1,-1,0,-2,-1,-2,-1
1532063059054,-1,-1,0,-2,2,0,-1,1
1532063059059,-1,0,0,-2,0,0,0,-1
1532063059064,0,-2,1,0,0,0,-2,0
1532063059069,0,-1,1,0,0,-1,-3,-1
1532063059074,0,-2,-2,-1,0,0,0,0
1532063059079,-2,0,-3,-2,1,-1,-1,0
1532063059084,0,-1,-5,-1,0,0,0,-2
1532063059089,-1,1,9,3,0,0,0,-1
1532063059094,-1,-1,-4,-2,1,0,-2,-1
1532063059099,-2,0,3,1,-2,-1,-1,0
1532063059104,-1,-2,-4,-1,0,-2,0,-1
1532063059109,-1,-2,-4,-1,-2,-1,0,0
1532063059114,-1,-1,-1,-2,-2,-1,0,0
1532063059119,0,-1,2,-2,-1,1,0,0
1532063059124,-2,0,-1,0,0,0,-1,-2
1532063059129,-2,0,-4,-2,-1,0,-1,-2
1532063059134,0,-1,1,0,-1,-2,2,-1
1532063059139,-1,-2,-3,-1,-1,-1,0,-2
1532063059144,0,0,-3,-1,-1,0,0,0
1532063059149,-2,-1,6,0,-1,-1,-2,-1
1532063059154,0,0,1,0,-1,-1,-1,-2
1532063059159,-1,0,-2,0,0,-2,0,0
1532063059164,-2,-2,1,-1,-2,-1,-2,0
1532063059169,1,-1,-3,-2,-1,1,0,1
1532063059174,-2,-1,0,-1,-3,0,-1,0
1532063059179,1,1,1,-1,-1,-1,-3,1
1532063059184,0,0,0,0,-1,0,-2,0
1532063059189,0,-1,-5,-1,-1,-2,-1,0
1532063059194,-1,-2,-2,0,0,0,-1,-1
1532063059199,-1,-2,-1,-1,-3,-1,-2,-2
1532063059204,-1,-1,0,0,-2,-1,0,-2
1532063059209,-2,0,-2,-1,0,-1,-2,1
1532063059214,0,0,-1,-1,0,1,-2,-1
1532063059219,-1,0,-2,-1,-1,-1,0,1
1532063059224,0,-1,2,-1,-1,-3,1,-1
1532063059229,-1,-3,-2,-1,-1,-2,0,-1
1532063059234,0,-1,-1,-2,-3,-1,-1,0
1532063059239,-1,-2,-3,-2,0,-2,-1,-1
1532063059244,-1,1,-3,-1,0,0,-1,-2
1532063059249,-1,0,-2,-1,0,-2,-2,0
1532063059254,-2,-1,-1,-2,-2,0,0,-1
1532063059259,-1,0,0,-1,-2,0,-1,-2
1532063059264,0,1,-2,-1,0,0,0,0
1532063059269,-1,-1,1,1,-3,-1,-1,-1
1532063059274,-1,-1,1,1,1,-1,1,-1
1532063059279,-1,-1,0,0,0,-1,0,0
1532063059284,-1,-1,1,-1,-1,1,-1,0
1532063059289,0,0,-4,0,0,2,1,-2
1532063059294,0,-1,5,-1,-3,-1,-2,-1
1532063059299,-1,-1,0,-1,0,1,1,-2
1532063059304,-2,-1,0,-1,0,-1,-1,-2
1532063059309,-1,-2,1,-2,-1,-2,0,1
1532063059314,-1,-2,-5,-2,-1,-3,-2,-1
1532063059319,0,-1,1,-1,-2,-1,-2,-1
1532063059324,-1,-2,1,0,-2,-2,-2,-2
1532063059329,-1,-1,-2,-1,-1,0,0,-3
1532063059334,0,0,-2,-1,-1,0,-1,-1
1532063059339,0,1,-1,-1,-2,-1,-1,0
1532063059344,-1,-1,-4,-1,-2,-2,-1,0
1532063059349,0,0,1,0,-2,-1,-1,-1
1532063059354,-1,0,-3,-1,0,-2,0,0
1532063059359,0,-1,-2,-1,-1,-1,0,-2
1532063059364,0,-1,-2,0,-1,-1,0,0
1532063059369,0,-1,-3,-1,-1,-1,1,0
1532063059374,0,-1,1,1,-1,-1,-1,-2
1532063059379,-1,0,0,-2,-1,-1,0,-1
1532063059384,-1,-1,1,-1,0,0,-2,-1
1532063059389,-1,-3,0,-1,-1,-1,-1,-1
1532063059394,0,-1,-4,-1,-1,-1,-1,-3
1532063059399,-1,0,-3,1,-1,-2,-2,-1
1532063059404,0,-1,1,1,-2,1,-1,0
1532063059409,-2,-2,-1,-2,0,-2,-1,1
1532063059414,-1,-3,2,-1,-1,0,1,-1
1532063059419,-1,-1,0,-1,-1,0,-1,0
1532063059424,1,-1,-5,-2,0,0,1,-1
1532063059429,0,1,7,0,-2,-2,-1,-1
1532063059434,0,0,2,0,1,-1,-2,-1
1532063059439,-1,-3,-5,-1,1,-2,-1,0
1532063059444,-1,-1,0,-1,-1,-1,-1,-2
1532063059449,-1,-1,-2,-1,0,2,-1,-2
1532063059454,-1,0,0,-1,-1,0,0,-1
1532063059459,0,0,1,-2,-1,-2,-1,-1
1532063059464,1,0,1,-2,0,-2,-2,-2
1532063059469,0,0,-3,0,-1,-1,-1,-3
1532063059474,-1,0,0,-1,-1,-1,-1,0
1532063059479,0,-2,-4,0,0,0,0,2
1532063059484,0,0,0,-4,-2,0,0,0
1532063059489,0,0,1,0,-2,-1,-2,0
1532063059494,-1,-2,-2,0,0,0,-1,0
1532063059499,-1,-1,-2,-3,-1,-1,-2,-2
1532063059504,-1,0,0,1,1,-1,0,1
1532063059509,-1,-1,-6,-1,-1,-3,-1,0
1532063059514,-1,1,3,1,-1,-2,-1,0
1532063059519,0,-2,-2,-1,-3,-1,-1,-2
1532063059524,-1,-1,3,0,0,0,0,-2
1532063059529,0,-2,-4,-1,0,0,0,-1
1532063059534,-2,-1,-3,-2,-1,-2,0,-2
1532063059539,-1,0,2,0,1,1,0,-1
1532063059544,0,-2,-3,-2,-2,-1,-1,-1
1532063059549,-1,0,0,0,1,-1,-1,-2
1532063059554,0,-1,-2,-2,-1,-1,-1,-1
1532063059559,-1,-1,0,1,1,0,0,0
1532063059564,-1,-1,-1,0,1,-1,-1,0
1532063059569,-1,0,-3,0,-1,0,0,-1
1532063059574,0,-1,3,-3,-1,0,-1,-1
1532063059579,-2,-1,-4,-2,-1,-1,0,-2
1532063059584,-1,-1,-3,-3,-1,-1,-2,-1
1532063059589,-1,1,-1,0,1,-3,-1,0
1532063059594,0,-3,-4,-1,-1,-2,-2,1
1532063059599,0,0,2,1,-1,-1,-1,-1
1532063059604,0,0,0,0,-1,-1,-2,0
1532063059609,-1,0,-3,-3,-1,0,1,0
1532063059614,-2,0,0,-2,-1,-1,-1,0
1532063059619,0,1,1,2,-1,0,-1,-1
1532063059624,-1,0,-2,0,-1,-1,0,0
1532063059629,1,-1,0,0,-1,-1,-1,-3
1532063059634,-1,-3,-5,-1,-1,-1,0,-1
1532063059639,1,-1,1,-1,0,-1,-2,-1
1532063059644,0,0,-1,-1,-2,0,-1,0
1532063059649,0,-1,0,-3,-2,-1,-1,0
1532063059654,0,-2,-2,-2,-1,0,-2,-1
1532063059659,0,-2,-4,-1,-1,1,-1,-1
1532063059664,-1,-2,-3,0,0,-1,-1,-1
1532063059669,0,1,7,1,0,-1,-1,0
1532063059674,-2,-1,-2,0,0,0,0,-1
1532063059679,-2,-1,1,-2,-1,-3,0,1
1532063059684,-3,-1,-1,0,-1,0,-1,-1
1532063059689,-1,-2,-2,-3,-1,0,-1,0
1532063059694,1,2,2,2,-1,-2,0,0
1532063059699,0,-1,0,0,0,-2,0,-3
1532063059704,-1,-1,1,0,0,0,0,-1
1532063059709,0,-3,-5,0,-3,-1,0,0
1532063059714,-1,-1,-3,-3,-2,-1,-2,-2
1532063059719,0,0,1,0,0,-2,-2,0
1532063059724,-2,-2,1,0,-2,-2,1,-1
1532063059729,1,-2,1,-1,0,0,0,-1
1532063059734,0,-2,-5,0,-1,0,-1,-1
1532063059739,1,-1,0,-1,0,0,-1,0
1532063059744,0,-2,1,-1,-2,-1,-1,0
1532063059749,-1,-1,0,0,0,-1,0,0
1532063059754,-1,-1,2,-1,1,-3,0,0
1532063059759,-2,0,-2,0,-1,0,-3,0
1532063059764,0,0,-1,-1,0,0,-2,0
1532063059769,-1,-2,-4,1,-1,0,-1,1
1532063059774,-2,1,6,0,-1,1,0,0
1532063059779,-1,-1,-2,0,-1,-2,1,-2
1532063059784,-1,0,-4,-1,0,-3,0,-3
1532063059789,-1,1,1,1,-2,0,0,-1
1532063059794,0,-1,-4,0,-2,0,1,0
1532063059799,0,-1,4,0,-1,0,1,0
1532063059804,-1,1,-2,-2,0,1,0,-1
1532063059809,-1,-1,-1,-2,0,-1,-2,-2
1532063059814,-2,-1,-1,-1,-1,0,0,-2
1532063059819,-2,0,-1,-1,-2,-1,-1,0
1532063059824,-1,0,-1,-1,0,0,-1,-1
1532063059829,-1,-1,0,0,-1,0,0,1
1532063059834,-1,1,-2,-1,0,0,1,-1
1532063059839,-2,-1,0,-2,-1,-1,-2,-2
1532063059844,0,-1,0,-2,0,-2,-2,-2
1532063059849,1,0,0,0,2,-1,-1,-1
1532063059854,-1,-1,-3,1,-1,-2,-3,0
1532063059859,-2,0,-2,-1,-1,0,0,0
1532063059864,-2,0,0,-1,-2,1,-2,-1
1532063059869,0,0,1,1,0,-1,-1,-1
1532063059874,-2,-1,-2,-3,0,-1,1,-2
1532063059879,0,-1,-1,-1,-1,-1,1,-1
1532063059884,0,-2,-1,-1,-1,-2,-1,0
1532063059889,-1,-1,-3,-1,-3,0,-2,0
1532063059894,-1,-1,2,0,0,-2,-1,-1
1532063059899,0,-1,0,-1,-1,-1,0,-1
1532063059904,-1,-2,2,-1,0,0,0,0
1532063059909,-1,-1,1,0,0,-1,-1,-1
1532063059914,-1,-2,0,0,-1,-2,0,-2
1532063059919,-1,-1,-3,0,-1,-1,-2,-1
1532063059924,0,1,0,-1,0,-2,-1,-1
1532063059929,0,-3,-1,2,-2,0,-1,-2
1532063059934,-1,0,3,0,0,-1,-1,-2
1532063059939,-1,-2,-4,-1,1,-2,0,-3
1532063059944,0,0,1,0,0,0,-2,-1
1532063059949,-1,-1,0,0,0,0,-1,1
1532063059954,-1,0,2,-2,-2,-2,1,0
1532063059959,1,0,-3,-1,0,-1,1,0
1532063059964,0,-1,-3,-1,0,-1,-1,-1
1532063059969,0,0,-3,1,0,0,0,-2
1532063059974,-2,1,3,-1,-2,1,-1,0
1532063059979,1,-1,-4,-1,0,-1,-2,-1
1532063059984,0,-1,0,-1,-1,0,0,-2
1532063059989,-1,-1,-4,0,1,-1,-1,0
1532063059994,-2,-3,-2,-1,-1,-1,-2,1
1532063059999,-3,-1,1,-3,-1,-2,-2,0
1532063060004,0,-1,0,0,-2,0,0,-1
1532063060009,-1,-1,-2,-1,-1,-2,-2,-1
1532063060014,-1,-2,-4,-3,-1,-1,-2,-1
1532063060019,-1,-2,2,1,-2,0,-2,-1
1532063060024,0,-1,-3,-5,-1,-2,0,0
1532063060029,-2,0,-1,-1,1,1,-1,-2
1532063060034,-1,1,4,0,-2,2,0,0
1532063060039,0,-1,-4,-1,1,-1,0,-1
1532063060044,0,0,3,0,-1,-3,-3,0
1532063060049,-1,-2,-1,-1,-1,-1,-2,-1
1532063060054,0,-1,-3,-1,1,1,-1,-1
1532063060059,0,0,-2,-1,-1,0,-2,-2
1532063060064,-1,-1,-1,1,0,0,-1,1
1532063060069,0,-1,-1,-2,-2,-2,0,-1
1532063060074,0,0,0,1,-1,-1,0,0
1532063060079,-1,-3,-7,-1,-1,-1,-2,-1
1532063060084,-1,-2,-5,-3,-2,-1,-2,-3
1532063060089,1,-1,1,0,1,1,0,1
1532063060094,-1,-1,-4,-1,-2,0,-1,-1
1532063060099,0,2,4,1,0,0,-1,-2
1532063060104,0,-2,-5,-1,1,-2,-1,-1
1532063060109,-2,0,4,-2,-1,-2,-1,-2
1532063060114,0,0,2,-3,0,-1,-2,-1
1532063060119,-1,0,-3,-1,1,-1,0,0
1532063060124,-2,-1,-1,0,0,0,-1,0
1532063060129,0,-2,-1,-2,0,-2,1,-1
1532063060134,-1,-2,-3,0,0,-1,-1,-2
1532063060139,0,0,3,0,0,-1,-2,-1
1532063060144,-1,-1,-4,0,-2,0,-2,-1
1532063060149,-3,-2,-3,-2,-1,0,-3,-2
1532063060154,-2,-3,2,2,-1,-1,-1,-1
1532063060159,0,-1,-2,-4,-1,1,0,-3
1532063060164,-1,-1,3,-1,0,1,0,-2
1532063060169,-1,-2,-4,0,-2,1,0,-1
1532063060174,0,-2,-2,-1,-1,-1,-2,-2
1532063060179,-2,-1,-1,-1,-1,0,0,-2
1532063060184,1,0,-2,0,-1,-1,0,1
1532063060189,0,-1,3,0,-2,-1,-1,-1
1532063060194,-1,-1,-4,0,1,1,0,-2
1532063060199,0,-1,-2,-1,-3,-1,1,0
1532063060204,-1,-2,3,-1,-1,0,-1,0
1532063060209,4,1,0,1,0,-2,0,0
1532063060214,-2,0,-5,-3,-2,-1,1,-1
1532063060219,-1,2,4,3,0,-2,-2,-2
1532063060224,0,-2,-1,1,1,-1,1,-1
1532063060229,0,-3,0,-1,0,1,0,-1
1532063060234,-2,0,-1,-2,-3,-2,-1,0
1532063060239,-1,-2,-4,-2,-1,-1,-1,-1
1532063060244,-1,1,-2,1,-1,0,0,-1
1532063060249,0,-1,-3,-1,0,0,-2,-1
1532063060254,2,-2,0,-2,0,0,-1,0
1532063060259,-1,0,-3,-1,-1,-2,-2,2
1532063060264,12,4,-1,-1,-2,-1,1,0
1532063060269,-30,-16,-4,-1,-1,0,-2,-3
1532063060274,-1,2,2,1,0,1,-1,0
1532063060279,-3,-4,-5,-1,-2,-1,0,-2
1532063060284,1,0,3,-1,-1,-1,-2,-1
1532063060289,8,4,5,0,-1,1,2,0
1532063060294,-2,-2,-1,-2,-1,-3,-2,-1
1532063060299,0,-1,-2,-1,1,0,-1,0
1532063060304,-6,-1,1,2,-1,-1,-1,-1
1532063060309,4,-1,0,-1,0,-1,0,1
1532063060314,2,2,0,-1,-1,-1,-2,-3
1532063060319,3,1,3,0,0,-1,0,0
1532063060324,-5,-3,-4,-3,0,0,-1,-2
1532063060329,3,2,2,0,-2,-2,-1,1
1532063060334,2,-2,-2,0,-1,-1,-1,-1
1532063060339,-3,0,2,1,-1,-1,0,0
1532063060344,-1,-3,-14,-2,-3,-1,-1,0
1532063060349,3,0,13,0,-2,0,-3,0
1532063060354,-5,1,-4,-1,-1,-2,-1,0
1532063060359,0,1,7,1,-1,-1,1,-2
1532063060364,5,4,15,1,0,0,1,1
1532063060369,-19,-17,-14,-2,-2,-1,-3,0
1532063060374,0,-5,2,0,-1,-1,-1,0
1532063060379,2,3,-6,-3,-1,1,-1,0
1532063060384,0,-1,-4,-3,-2,-1,-2,-3
1532063060389,7,6,-2,0,-1,0,-2,-2
1532063060394,-2,-3,1,0,0,-2,-2,-1
1532063060399,-10,-4,-6,-4,-1,-1,-1,0
1532063060404,5,-3,3,0,0,-2,0,-1
1532063060409,7,10,-15,0,-2,-1,1,1
1532063060414,3,-4,10,-2,-1,-3,-4,0
1532063060419,7,3,2,-1,1,-1,-2,2
1532063060424,-8,-2,1,0,0,-2,-1,-1
1532063060429,1,0,0,0,0,-1,0,0
1532063060434,4,0,-8,-3,-2,1,2,-1
1532063060439,-3,-3,2,0,-2,-1,0,-1
1532063060444,-5,-2,0,-2,-1,1,-1,0
1532063060449,2,1,0,0,-1,-1,0,-2
1532063060454,-2,1,6,2,-1,0,0,0
1532063060459,-2,-4,-13,-6,-3,0,-1,-1
1532063060464,-4,-1,-7,-2,0,0,0,-1
1532063060469,3,1,4,0,-2,-1,-2,-2
1532063060474,0,3,-9,-5,-1,0,1,1
1532063060479,5,-6,3,2,-2,-3,-5,-1
1532063060484,-14,-13,1,-1,1,1,-2,1
1532063060489,6,2,10,-1,-3,0,-2,2
1532063060494,1,-2,-3,3,1,-1,0,0
1532063060499,5,2,-10,-5,0,0,2,-3
1532063060504,-5,5,-3,-1,-1,-1,-1,-1
1532063060509,-5,-11,10,-4,0,1,-1,-1
1532063060514,-7,-6,-18,0,-1,0,2,2
1532063060519,7,-3,-10,-1,-2,-1,-3,4
1532063060524,7,4,5,0,1,-1,12,-1
1532063060529,-4,4,9,0,-2,-2,-4,3
1532063060534,3,2,1,-1,-2,-2,-1,-7
1532063060539,-13,6,-24,-9,1,1,5,1
1532063060544,1,-8,3,4,1,-1,-9,-2
1532063060549,9,4,-9,4,-2,-2,-4,-1
1532063060554,15,1,2,-2,1,0,4,6
1532063060559,1,5,10,-5,-2,-1,0,-6
1532063060564,-16,-11,-6,-2,-1,-4,-18,-2
1532063060569,2,1,-3,5,2,0,11,5
1532063060574,-25,-9,6,1,-1,0,-16,-8
1532063060579,9,-2,10,2,0,2,27,6
1532063060584,10,7,-5,-6,-4,-2,-19,-7
1532063060589,3,-1,3,3,2,-2,-8,-1
1532063060594,-41,-15,0,-3,1,0,2,-3
1532063060599,7,0,4,2,0,-1,-2,-4
1532063060604,-1,-2,-5,-1,-2,0,13,1
1532063060609,3,-1,9,0,-1,-1,-3,-1
1532063060614,18,9,-13,-6,-1,0,5,2
1532063060619,-9,-1,7,1,-2,-4,-9,-2
1532063060624,14,4,13,11,1,-1,-3,3
1532063060629,3,6,-23,-10,0,1,3,-4
1532063060634,0,-3,-6,12,1,0,2,1
1532063060639,-4,-2,17,-17,-1,-2,3,-3
1532063060644,8,6,-5,2,-1,-1,-8,3
1532063060649,-17,-9,-3,-4,-3,-2,2,-3
1532063060654,17,14,5,-12,-1,-1,0,-1
1532063060659,1,-1,-6,2,0,-1,-8,1
1532063060664,-15,-6,5,26,3,1,21,5
1532063060669,-11,-5,-4,-6,0,-1,-21,-11
1532063060674,2,-4,0,4,-1,-2,1,3
1532063060679,19,10,1,2,0,1,-4,-4
1532063060684,3,5,-2,-15,0,1,14,8
1532063060689,-16,-3,-6,-1,-4,-3,-20,-2
1532063060694,-4,0,1,4,0,0,-3,-4
1532063060699,-3,-6,1,-1,-2,-1,-1,0
1532063060704,0,3,-4,-6,-1,-1,3,-3
1532063060709,0,-2,-2,4,-1,0,11,0
1532063060714,7,5,4,-12,-1,0,-2,-2
1532063060719,-21,-9,-1,8,0,0,-3,-1
1532063060724,-3,-5,-1,5,-2,0,-5,-3
1532063060729,7,2,0,-6,0,-1,6,2
1532063060734,-5,-4,4,0,-1,-1,0,-1
1532063060739,21,7,-1,4,0,0,-1,4
1532063060744,-63,-26,2,-17,-3,-2,-5,-11
1532063060749,-3,-1,-9,6,0,1,4,-3
1532063060754,0,-7,9,2,-2,-2,-2,-1
1532063060759,-4,4,-4,14,3,-1,-4,-1
1532063060764,22,9,0,-1,2,0,-2,2
1532063060769,7,-2,-1,-16,-8,-2,5,6
1532063060774,-3,2,0,-4,0,0,9,-5
1532063060779,-35,-16,0,1,0,0,-20,-6
1532063060784,1,3,1,1,0,-1,2,-2
1532063060789,1,0,2,7,2,0,4,0
1532063060794,10,2,-11,-14,-3,-2,-2,2
1532063060799,11,0,2,3,-2,-2,2,-2
1532063060804,16,2,-3,-1,-1,1,-2,0
1532063060809,4,1,1,-2,-1,-1,1,-2
1532063060814,-6,4,6,4,-2,0,-2,-1
1532063060819,-15,4,-3,-3,1,0,2,-2
1532063060824,18,-2,-7,-5,-3,-4,-5,-1
1532063060829,-6,-2,-1,-1,-1,-1,1,-3
1532063060834,-1,-1,-1,3,-1,-1,-5,-4
1532063060839,0,-4,13,2,0,-1,-1,1
1532063060844,32,19,2,-1,-2,1,1,4
1532063060849,-37,-17,-1,-1,0,0,-2,-7
1532063060854,-3,-2,3,1,-1,1,0,0
1532063060859,7,7,21,11,0,-1,3,0
1532063060864,7,-4,-31,-9,-3,-1,-3,-1
1532063060869,0,1,-4,3,3,0,0,-1
1532063060874,2,-5,0,-2,0,-2,-2,3
1532063060879,-10,-5,-4,-8,-3,-1,2,-3
1532063060884,-6,-3,-3,-1,-1,-1,0,-3
1532063060889,6,6,15,-2,-2,-1,2,0
1532063060894,-4,-1,-1,4,2,0,-3,1
1532063060899,20,0,-9,-1,0,-2,0,3
1532063060904,-20,-9,-10,-3,-1,-1,-1,-4
1532063060909,8,6,-3,-1,0,-1,0,1
1532063060914,9,2,-14,-2,-3,0,0,1
1532063060919,-11,-6,12,-1,1,-2,-2,-2
1532063060924,5,-3,1,1,-1,0,-3,-1
1532063060929,-2,-1,9,1,2,-1,0,-3
1532063060934,4,0,-15,0,0,0,-1,-1
1532063060939,-10,-2,-15,-7,-4,-2,0,-1
1532063060944,15,4,9,-2,-2,-1,0,1
1532063060949,-23,-13,0,0,-1,-1,-1,-5
1532063060954,-5,0,6,4,1,-1,-2,-2
1532063060959,-3,-3,-5,-7,-1,0,-2,-3
1532063060964,9,3,2,0,0,-2,0,3
1532063060969,9,4,-5,-1,-1,0,-3,-3
1532063060974,-8,4,-3,-1,0,0,0,-2
1532063060979,7,-3,-7,0,-1,0,0,-2
1532063060984,-13,1,15,1,0,0,-1,-2
1532063060989,18,3,-2,-1,0,1,-2,5
1532063060994,17,-3,-2,0,1,0,2,1
1532063060999,0,9,-4,-3,-4,-3,2,-2
1532063061004,-1,-5,-10,-3,0,-1,-1,-1
1532063061009,1,3,3,1,0,-3,-1,1
1532063061014,-1,-4,6,2,0,1,-1,1
1532063061019,-2,-1,-2,-2,0,0,0,0
1532063061024,-1,-1,-4,-8,-1,-1,-1,-2
1532063061029,11,3,-2,0,-1,-1,1,4
1532063061034,1,-5,4,0,-3,-3,-2,0
1532063061039,0,-3,-7,-2,-1,0,-2,-3
1532063061044,2,3,9,3,0,0,-2,0
1532063061049,16,6,-2,1,1,1,11,0
1532063061054,-28,-2,-1,-1,-3,-5,-14,-6
1532063061059,-5,-10,-4,-2,1,0,6,1
1532063061064,22,2,3,0,-2,-1,1,6
1532063061069,-17,0,-1,5,1,-3,-18,-8
1532063061074,9,-1,2,-1,-1,-1,4,1
1532063061079,-12,-4,-3,0,1,0,-4,-1
1532063061084,-5,2,-1,1,2,1,7,-2
1532063061089,10,2,-2,-4,-3,1,4,4
1532063061094,9,3,-3,-3,-1,-1,-3,1
1532063061099,-17,-7,5,1,2,0,-2,0
1532063061104,0,-10,-3,-2,0,-1,-3,-6
1532063061109,-24,-7,-6,-6,-4,-3,-4,-7
1532063061114,2,8,5,0,-2,-1,0,-2
1532063061119,23,2,-4,-2,-1,-1,-1,2
1532063061124,-26,-13,0,-1,-3,-2,-4,-3
1532063061129,-10,-1,-1,0,0,0,1,2
1532063061134,35,-1,-1,-3,1,0,11,1
1532063061139,-11,8,3,4,3,0,-17,-2
1532063061144,-10,-10,-9,-3,-4,-2,-5,-10
1532063061149,1,-2,0,-2,-1,1,7,-1
1532063061154,-2,2,-2,-2,-3,-2,3,-1
1532063061159,8,2,-1,-1,-3,-2,-7,-5
1532063061164,16,11,10,4,4,1,8,11
1532063061169,3,-1,-3,2,2,1,-11,-3
1532063061174,3,-5,-3,0,-3,-1,-15,8
1532063061179,-8,-2,-4,-4,-2,-3,0,-5
1532063061184,-5,4,1,-1,-2,-3,0,-8
1532063061189,4,0,1,-3,0,1,16,-1
1532063061194,-2,2,4,0,0,0,-5,2
1532063061199,-22,-11,-2,-2,0,1,1,-2
1532063061204,-16,-2,0,-4,-1,0,6,2
1532063061209,15,-2,-3,0,1,-5,-9,-3
1532063061214,-18,-8,-4,6,-2,-6,3,-2
1532063061219,12,1,-7,-9,-6,-1,3,-1
1532063061224,-21,-1,0,1,0,-2,-10,-4
1532063061229,29,5,-4,-5,-2,1,-2,3
1532063061234,-5,2,8,2,6,3,-5,1
1532063061239,-37,-8,-5,-5,-9,-3,2,5
1532063061244,18,-1,2,-1,2,1,15,7
1532063061249,-6,6,1,-6,-2,0,0,1
1532063061254,-21,-21,-10,1,-4,-1,-28,-3
1532063061259,24,11,15,15,15,0,25,2
1532063061264,-4,-5,-11,0,-3,-4,-27,-11
1532063061269,-10,2,3,-4,-4,0,30,6
1532063061274,-6,6,2,3,5,2,-14,-5
1532063061279,-3,-7,-1,-3,-2,-1,-7,-12
1532063061284,10,8,3,6,5,-1,6,16
1532063061289,-4,-7,-7,5,2,-1,1,-5
1532063061294,8,3,1,-3,-1,1,33,6
1532063061299,18,10,-2,-7,-5,-1,-4,-7
1532063061304,2,-1,-1,5,4,0,-4,-8
1532063061309,-5,0,3,5,2,-2,-22,6
1532063061314,22,7,3,-3,-2,1,42,-4
1532063061319,1,3,-4,0,2,-3,-56,10
1532063061324,-8,-3,3,-4,-1,1,15,-10
1532063061329,-3,-2,2,3,-2,0,10,3
1532063061334,5,2,-2,-5,-6,-5,-9,-8
1532063061339,-2,-9,-3,-6,-4,-2,14,-6
1532063061344,-18,-2,-2,-3,-5,-2,-5,-14
1532063061349,9,-1,1,5,0,1,-5,13
1532063061354,-19,-2,-4,-1,2,-3,-5,1
1532063061359,11,1,3,1,1,0,-12,3
1532063061364,-23,-1,1,-3,1,-1,-2,-6
1532063061369,0,0,-3,-5,1,-1,3,-7
1532063061374,27,11,0,-2,-2,-1,11,7
1532063061379,-39,-23,-4,3,0,2,-9,3
1532063061384,12,2,-3,1,0,-1,-20,-2
1532063061389,-11,-4,-1,-1,0,-1,8,2
1532063061394,14,8,10,-2,0,0,3,3
1532063061399,4,8,6,3,2,1,-9,-6
1532063061404,-5,-4,2,0,-4,-2,9,8
1532063061409,-3,-2,-1,2,0,-2,-18,-7
1532063061414,-6,-4,-2,-3,-2,0,21,5
1532063061419,4,6,9,1,-2,-1,-1,-10
1532063061424,-2,2,-1,-2,1,2,36,6
1532063061429,-8,-10,-10,1,-6,-6,-71,-2
1532063061434,-5,-8,-7,4,4,2,9,-14
1532063061439,17,7,-6,-4,-3,0,19,5
1532063061444,-2,-9,4,1,-4,-1,-20,-4
1532063061449,-37,-19,-10,-5,1,-3,5,-6
1532063061454,-22,-4,-4,-3,-3,-5,-16,-12
1532063061459,10,-9,-13,-9,-4,-5,-10,0
1532063061464,11,8,5,2,-3,4,53,12
1532063061469,-4,10,14,1,0,-6,-40,-21
1532063061474,-13,4,4,10,11,6,55,24
1532063061479,2,-3,-10,-8,-7,-2,18,23
1532063061484,-6,2,-7,-14,-9,-14,-115,-35
1532063061489,-28,-21,-8,-1,-1,-2,44,-9
1532063061494,-1,1,6,-2,-7,-8,-4,-6
1532063061499,8,4,5,3,2,3,20,-10
1532063061504,20,-1,1,-5,-1,1,1,26
1532063061509,2,1,-5,-4,-6,-3,0,-6
1532063061514,-3,1,4,-6,-7,-2,-30,-16
1532063061519,-10,-6,-4,6,1,3,33,18
1532063061524,-1,-4,4,1,-2,-1,-15,-7
1532063061529,29,6,-5,-2,4,2,12,-3
1532063061534,3,-2,-4,-3,-4,2,4,3
1532063061539,-3,-1,-2,-2,-5,-2,-23,-1
1532063061544,-21,-2,-1,4,3,2,36,-4
1532063061549,20,12,3,-3,-2,0,-34,23
1532063061554,-10,-12,-7,2,1,-1,-29,0
1532063061559,3,0,-1,3,6,-3,-6,-8
1532063061564,1,-6,-5,-4,-4,1,18,3
1532063061569,3,5,3,0,-1,3,28,1
1532063061574,0,-4,-9,-4,0,0,-6,-6
1532063061579,5,-1,16,3,1,0,-16,0
1532063061584,-23,-3,-10,-1,3,-1,3,-11
1532063061589,3,-4,-5,0,-1,2,16,10
1532063061594,16,9,10,10,1,-1,-14,-3
1532063061599,-35,-14,-21,-9,-6,-4,11,-10
1532063061604,-4,1,13,7,2,1,1,2
1532063061609,21,6,0,-3,1,0,-7,-5
1532063061614,-11,-2,4,-4,0,-1,-7,-3
1532063061619,15,7,0,2,1,2,15,-1
1532063061624,7,2,-1,-3,-3,-1,-28,6
1532063061629,-15,-6,-6,-4,-2,-1,4,-5
1532063061634,5,3,-5,-1,-3,0,-1,2
1532063061639,6,3,2,-2,-1,1,0,-7
1532063061644,0,-3,-6,0,0,-1,10,3
1532063061649,2,5,20,5,2,2,7,0
1532063061654,-8,-6,2,-4,-1,-1,-11,-2
1532063061659,-4,1,3,8,-1,0,-3,1
1532063061664,7,3,24,4,2,1,0,0
1532063061669,2,-1,1,1,0,-1,5,2
1532063061674,-9,-4,2,-2,0,-2,-6,-1
1532063061679,2,3,1,-6,0,-1,-2,-1
1532063061684,5,-6,-27,-6,-3,-3,5,1
1532063061689,-4,0,-10,0,-2,1,3,-8
1532063061694,8,-7,5,4,2,1,-1,7
1532063061699,-2,4,-8,-10,-3,-2,-2,-6
1532063061704,17,8,-23,-5,-4,-1,13,0
1532063061709,-16,-7,31,6,0,-2,-17,1
1532063061714,-12,-12,-25,5,-2,-4,-1,-6
1532063061719,4,-1,-3,-6,-1,0,-1,0
1532063061724,1,0,-5,-6,-3,-2,0,-2
1532063061729,9,3,-10,-2,-2,-1,5,4
1532063061734,1,3,3,0,1,-1,-5,4
1532063061739,4,2,2,3,8,7,11,-4
1532063061744,-12,-6,10,0,0,2,1,-2
1532063061749,4,0,0,-4,3,-1,2,-1
1532063061754,-8,-1,-7,-5,-3,-1,5,-2
1532063061759,-3,-3,7,1,-12,-5,-10,-1
1532063061764,23,7,0,-11,12,6,12,1
1532063061769,-27,-20,-26,-3,3,3,8,3
1532063061774,-11,-2,0,22,3,0,-9,-8
1532063061779,-2,-11,-3,-14,-10,-4,-8,10
1532063061784,-12,7,15,21,-8,-6,-22,-8
1532063061789,-13,-9,-18,-22,-6,-2,5,-5
1532063061794,32,8,8,1,3,-2,2,1
1532063061799,9,4,-15,-7,3,-1,4,1
1532063061804,5,-5,12,-7,5,0,-5,7
1532063061809,0,6,7,47,1,1,9,2
1532063061814,-17,-6,-14,-46,-20,-6,-17,-5
1532063061819,4,10,11,15,-1,-3,0,-7
1532063061824,7,-26,-28,-22,-4,-4,12,-1
1532063061829,13,10,10,10,2,-1,-28,-3
1532063061834,21,0,7,-2,8,5,27,11
1532063061839,-10,6,12,25,0,-1,-6,-4
1532063061844,-16,-8,13,7,4,-1,-1,3
1532063061849,21,14,-7,-3,-10,-1,3,0
1532063061854,7,-4,-13,-16,-6,0,-10,-1
1532063061859,21,-10,-8,-56,0,0,2,7
1532063061864,-46,0,0,39,-2,0,2,-12
1532063061869,7,-5,-2,-23,2,0,4,1
1532063061874,48,21,31,0,-10,-4,-11,3
1532063061879,-47,-23,-11,-1,4,1,9,-9
1532063061884,33,18,3,4,7,3,-2,1
1532063061889,-6,-2,12,11,2,0,-2,-1
1532063061894,15,-6,-45,1,-1,-3,3,2
1532063061899,4,6,1,5,5,1,-4,2
1532063061904,-11,0,16,-21,-1,-1,-5,-6
1532063061909,-5,-7,-12,11,3,0,4,-2
1532063061914,-13,-4,9,-16,-11,-3,-1,0
1532063061919,11,-3,-4,-39,-10,-2,-2,-1
1532063061924,-16,-7,1,19,-2,-3,-4,-4
1532063061929,-11,7,1,-3,1,-1,0,-4
1532063061934,-20,-5,7,12,8,2,1,-1
1532063061939,48,-3,-2,16,2,-1,-2,7
1532063061944,-1,22,-3,-28,-2,-1,0,-4
1532063061949,-4,4,29,-6,0,0,3,-3
1532063061954,27,-6,-18,-5,0,0,-3,7
1532063061959,-2,4,8,37,8,1,-3,-1
1532063061964,-11,5,10,-3,-3,-2,3,-1
1532063061969,32,-8,13,-10,0,-1,-1,1
1532063061974,-32,15,2,45,9,6,4,-5
1532063061979,-1,-9,-18,-37,-18,-4,-3,4
1532063061984,46,13,16,18,-1,-3,-14,1
1532063061989,-7,1,-5,-11,-3,-1,1,-5
1532063061994,-22,-12,-14,-23,3,-4,-6,-3
1532063061999,-3,4,-28,21,4,2,4,-2
1532063062004,6,-1,-14,4,2,1,-5,3
1532063062009,-7,-4,-5,3,0,-3,-3,0
1532063062014,2,0,28,-29,-4,-2,1,-1
1532063062019,-10,-2,20,15,2,-2,2,-2
1532063062024,-11,-7,15,5,-4,-1,-4,6
1532063062029,-1,15,32,-12,-3,1,10,-4
1532063062034,-24,-5,9,58,10,1,-7,-2
1532063062039,22,10,-38,-26,-5,-1,-4,3
1532063062044,-39,-10,-10,-35,-20,-5,6,-11
1532063062049,15,6,34,23,12,3,2,7
1532063062054,1,21,86,-1,-1,1,-4,-4
1532063062059,-17,4,-32,12,10,1,-6,-9
1532063062064,22,0,11,21,6,2,2,8
1532063062069,9,13,-44,-8,1,1,3,-2
1532063062074,-48,-7,-16,-70,-30,-4,0,-5
1532063062079,14,-4,4,30,9,5,2,6
1532063062084,-7,-14,-19,-18,3,2,3,2
1532063062089,-24,2,11,50,-2,-2,-6,-13
1532063062094,28,2,24,17,6,-2,4,2
1532063062099,-17,12,28,5,-1,1,-2,-3
1532063062104,45,-1,-16,-3,-4,-1,1,9
1532063062109,-92,-42,-48,-36,-1,3,11,-7
1532063062114,5,0,34,4,-2,-1,5,-3
1532063062119,-7,13,33,8,-4,-3,-12,-4
1532063062124,5,-13,-42,-3,6,3,6,0
1532063062129,32,12,3,8,-3,-1,-5,6
1532063062134,-12,-6,-16,13,2,0,-1,-4
1532063062139,-15,-7,3,-16,-5,-2,4,-2
1532063062144,-20,-25,-32,-21,-7,-2,-1,-7
1532063062149,5,-10,47,-7,-11,-7,-10,0
1532063062154,-16,-22,-101,-3,2,-2,-7,-4
1532063062159,24,6,-3,8,4,0,3,0
1532063062164,20,17,44,6,2,0,-3,3
1532063062169,-12,-16,-41,3,-7,-1,-3,3
1532063062174,-25,-10,3,9,-3,-4,-7,0
1532063062179,65,2,-1,-7,-6,-1,2,11
1532063062184,-39,-6,16,-18,-7,-6,-4,-13
1532063062189,7,-4,-50,-2,-2,1,-13,-9
1532063062194,-6,-19,-56,32,3,-2,2,-3
1532063062199,-13,5,49,4,-4,-1,5,-4
1532063062204,2,8,-24,9,8,4,3,4
1532063062209,20,9,3,-4,-6,-3,-5,1
1532063062214,-3,1,-5,-18,9,2,3,-3
1532063062219,-23,-20,-19,-19,-12,-5,-8,-4
1532063062224,7,21,16,-4,-1,-1,2,4
1532063062229,0,-3,7,-5,-2,-4,3,3
1532063062234,3,-6,4,13,3,-2,-6,-8
1532063062239,-18,-4,2,-22,-4,-2,0,-5
1532063062244,3,2,50,-28,3,1,-4,1
1532063062249,10,8,-57,-17,0,3,1,2
1532063062254,7,6,18,40,-7,-2,-3,7
1532063062259,-7,-3,21,-6,-1,-2,-6,-2
1532063062264,-7,-4,-17,4,-4,-2,-3,-3
1532063062269,13,13,38,-10,53,0,6,1
1532063062274,2,-9,8,-38,-19,6,1,-3
1532063062279,-16,-2,-6,13,-51,-10,-8,-1
1532063062284,6,9,4,0,-1,-2,-1,1
1532063062289,2,-6,-39,-9,-19,-4,7,-3
1532063062294,8,16,-12,-11,25,3,-3,1
1532063062299,-3,-6,-10,1,15,7,0,-1
1532063062304,1,8,53,22,-3,-1,-6,-6
1532063062309,-1,-24,-3,9,-3,-4,-11,1
1532063062314,0,-16,5,39,38,0,-2,-2
1532063062319,-3,-1,-46,-23,67,3,8,-4
1532063062324,1,13,19,-13,-38,10,5,2
1532063062329,-1,-5,14,-11,-66,-16,-4,0
1532063062334,3,18,-2,3,-19,1,-3,3
1532063062339,-3,3,17,22,-2,-4,-2,6
1532063062344,-4,-54,-33,11,52,4,-2,-6
1532063062349,0,9,34,5,-6,1,-2,-4
1532063062354,3,10,17,-31,-13,-4,4,-1
1532063062359,1,55,28,18,49,-4,1,-2
1532063062364,-4,-62,-24,17,16,9,6,1
1532063062369,-9,-18,-5,-39,-73,-5,-7,0
1532063062374,3,0,21,9,63,3,7,-3
1532063062379,-14,-22,-63,-47,-102,-4,5,-7
1532063062384,6,48,-16,14,-12,-13,-6,3
1532063062389,5,5,43,6,12,6,-1,4
1532063062394,10,57,-13,-7,1,0,3,6
1532063062399,1,32,-55,-2,38,1,1,-6
1532063062404,-21,-97,-43,-26,-16,-3,-2,-9
1532063062409,-10,-19,-21,-14,16,-1,-5,-7
1532063062414,-2,-1,-20,15,23,-1,-6,-3
1532063062419,4,21,23,-8,3,3,4,0
1532063062424,3,53,-19,26,-39,-4,-4,2
1532063062429,10,40,13,21,-7,3,1,11
1532063062434,1,37,12,-41,-14,-8,-4,1
1532063062439,-10,-109,11,23,-22,-2,-2,-2
1532063062444,-9,-41,-25,-23,3,-7,-2,-3
1532063062449,-6,-3,-28,54,37,0,1,-8
1532063062454,1,29,5,11,-19,4,0,0
1532063062459,0,4,29,-20,5,-1,1,4
1532063062464,5,23,19,-16,17,1,-3,2
1532063062469,1,12,-19,21,20,3,5,-1
1532063062474,3,12,22,2,-14,1,2,2
1532063062479,3,4,20,25,10,-1,-13,4
1532063062484,-4,-4,2,-14,-1,2,9,-4
1532063062489,6,44,7,-42,-29,-4,1,3
1532063062494,-11,-47,-8,47,54,2,1,-11
1532063062499,-4,0,-10,-6,-30,2,-2,0
1532063062504,5,45,25,40,-25,-9,-3,6
1532063062509,-7,-32,-50,-58,-11,1,-5,-1
1532063062514,2,-19,7,-20,-31,-9,-1,6
1532063062519,5,14,-10,23,32,7,-4,0
1532063062524,-2,-46,-24,1,21,1,11,1
1532063062529,5,16,18,-2,12,0,5,-1
1532063062534,-1,6,16,-4,14,6,15,-6
1532063062539,-3,0,5,-30,-4,1,-1,-1
1532063062544,-1,38,-36,2,-41,-10,-17,1
1532063062549,-4,-19,-5,4,15,2,2,-1
1532063062554,6,8,-8,-33,-11,-3,-4,1
1532063062559,-15,-54,-15,14,0,-2,3,-11
1532063062564,8,43,14,6,33,0,4,-1
1532063062569,1,-25,29,41,61,6,-2,-1
1532063062574,2,8,-15,-23,-95,-9,-10,5
1532063062579,40,127,83,-43,-43,2,13,24
1532063062584,-10,-104,-33,8,22,7,2,5
1532063062589,-49,-5,-25,45,-13,-20,-59,-31
1532063062594,-5,65,3,-16,26,4,25,4
1532063062599,-7,39,25,12,-25,-7,0,-6
1532063062604,24,91,35,8,31,11,12,10
1532063062609,18,12,38,-20,-24,-3,11,11
1532063062614,-7,-45,-12,8,16,3,0,-8
1532063062619,-2,-14,4,19,-1,-5,4,-2
1532063062624,-5,-2,-2,-9,-25,-9,6,-10
1532063062629,4,-11,-18,-72,4,4,11,2
1532063062634,-8,-27,-9,11,-21,-7,-16,-4
1532063062639,-6,-34,-13,48,10,7,5,-3
1532063062644,-4,4,7,-8,5,-4,-16,-3
1532063062649,5,9,7,13,16,-2,3,1
1532063062654,8,5,9,1,-2,5,9,0
1532063062659,-4,32,-20,-32,-25,-7,-6,5
1532063062664,-5,-72,16,22,0,1,-21,-4
1532063062669,-11,-55,-24,3,-20,-3,-3,-4
1532063062674,2,-4,0,0,24,-3,-14,-1
1532063062679,-8,-19,-10,-56,10,-2,9,-10
1532063062684,1,70,7,56,-17,1,-1,8
1532063062689,10,11,35,-21,15,2,11,8
1532063062694,-17,-47,-61,-18,1,-4,-26,-16
1532063062699,-3,0,-5,31,43,2,-4,-5
1532063062704,0,19,13,-9,-35,-9,6,1
1532063062709,3,15,-5,-41,-56,5,3,2
1532063062714,3,2,0,-20,-51,-3,-14,3
1532063062719,1,-3,2,25,21,-3,2,-3
1532063062724,-1,-14,-10,15,35,0,2,-9
1532063062729,9,3,-5,-11,20,6,4,1
1532063062734,-8,6,-4,-45,-16,-5,6,1
1532063062739,-1,-12,-1,-6,-2,-3,-8,-7
1532063062744,1,5,12,-4,24,4,-2,-4
1532063062749,-2,14,1,21,-8,-2,-12,0
1532063062754,5,4,15,9,3,1,33,5
1532063062759,15,-14,-38,-14,3,-2,-22,1
1532063062764,6,22,-14,-25,-12,-1,-4,-1
1532063062769,17,15,32,24,13,6,32,5
1532063062774,14,-14,-4,9,11,0,-10,11
1532063062779,-60,-19,-18,27,-1,-3,-22,-15
1532063062784,35,3,-61,-25,-7,5,58,-16
1532063062789,-19,-3,-2,-37,-8,-12,-109,1
1532063062794,29,14,18,32,10,1,27,-7
1532063062799,-59,0,3,0,-6,4,102,20
1532063062804,-42,-11,23,32,9,-3,-96,-18
1532063062809,-10,3,-23,0,5,2,58,-10
1532063062814,-13,-11,12,-33,-11,-2,11,-3
1532063062819,33,-2,6,-5,-3,-2,-36,0
1532063062824,8,-7,5,-12,-6,-3,-7,16
1532063062829,25,31,48,76,24,4,17,-7
1532063062834,4,22,-8,12,-6,1,38,-9
1532063062839,31,-8,-33,-41,-20,-13,-42,13
1532063062844,-5,10,10,-56,-1,2,8,8
1532063062849,34,4,-9,13,0,2,-19,-11
1532063062854,-5,-3,-12,16,5,2,63,-9
1532063062859,15,-12,11,28,17,-2,-62,3
1532063062864,-8,-1,14,61,4,-3,32,3
1532063062869,-10,-11,-33,-60,-17,-7,-15,-2
1532063062874,-14,4,31,13,2,2,-1,0
1532063062879,21,-1,-12,6,3,7,19,-2
1532063062884,8,-5,26,4,-3,-1,-11,3
1532063062889,2,0,-33,7,11,1,21,4
1532063062894,-16,-8,25,61,7,0,-13,3
1532063062899,-3,-10,-3,16,-10,-3,3,-2
1532063062904,-11,0,-21,-43,-7,-3,0,-5
1532063062909,-13,-1,18,9,-8,-2,19,2
1532063062914,-10,-8,-6,-38,2,0,-36,2
1532063062919,-3,2,11,61,16,0,0,-2
1532063062924,9,11,9,-3,-2,2,14,-3
1532063062929,-18,-9,-1,-13,0,0,-4,0
1532063062934,12,-8,-15,-12,21,-6,-48,4
1532063062939,6,9,13,-19,-13,11,44,-6
1532063062944,-9,0,3,-21,-15,-5,-5,0
1532063062949,-1,-3,10,-6,-1,-1,-3,5
1532063062954,-4,-4,-7,5,2,2,-14,-1
1532063062959,0,3,3,-8,11,0,-2,-1
1532063062964,-7,-3,-1,3,9,-1,-2,-1
1532063062969,-4,-4,-18,-1,18,2,11,1
1532063062974,5,3,13,14,-2,1,-3,0
1532063062979,-8,0,10,-18,-19,-4,-6,-2
1532063062984,3,-5,-28,-16,-42,-1,-7,-2
1532063062989,0,2,9,13,-27,-8,-6,0
1532063062994,-2,-4,-3,3,33,3,-13,-1
1532063062999,-1,-7,-9,1,22,2,4,-1
1532063063004,-5,-1,4,-21,-53,-10,-2,-2
1532063063009,-1,0,-4,35,55,0,1,-1
1532063063014,-7,-13,-30,-56,-80,-10,-14,-2
1532063063019,-2,0,1,0,13,-1,-1,-2
1532063063024,3,4,1,10,47,5,8,-5
1532063063029,-5,-3,5,7,-25,3,-1,1
1532063063034,2,1,10,9,26,-1,-6,-1
1532063063039,2,1,-5,-13,-12,-2,-2,-2
1532063063044,-2,-1,0,-2,15,0,-4,0
1532063063049,-1,0,15,-6,-1,0,3,-1
1532063063054,-2,-1,-7,5,6,-3,-8,-1
1532063063059,1,3,9,11,51,7,5,-2
1532063063064,-3,-1,-9,-17,-55,-4,-2,1
1532063063069,0,-3,-4,-15,-19,-6,-4,1
1532063063074,1,0,0,1,-9,-1,-1,1
1532063063079,-2,-2,-1,-3,-20,-9,-8,-2
1532063063084,3,2,9,22,40,4,3,-2
1532063063089,-1,-1,-6,-33,15,0,1,0
1532063063094,-3,-1,-1,-8,-15,-5,-5,1
1532063063099,0,2,10,11,17,3,-1,-3
1532063063104,-1,-2,-8,-16,3,1,0,1
1532063063109,-1,1,7,9,-7,-3,1,0
1532063063114,1,2,2,10,23,7,3,1
1532063063119,-1,-2,-4,-25,-19,-3,-4,1
1532063063124,0,1,5,44,60,3,0,-4
1532063063129,-9,-4,-6,4,-50,-5,-1,0
1532063063134,0,-2,1,-4,-2,-3,-3,1
1532063063139,0,-1,1,9,-24,1,1,0
1532063063144,0,0,-2,-11,-1,-6,-4,0
1532063063149,1,1,5,8,30,4,-1,-3
1532063063154,-1,0,0,13,8,2,-1,-2
1532063063159,0,0,3,-10,-16,-1,0,-1
1532063063164,-3,-5,-13,-26,-11,-8,-4,-1
1532063063169,-1,-1,-3,-7,-11,2,-3,-1
1532063063174,0,-1,-3,-18,-23,-1,3,2
1532063063179,0,-1,2,-14,25,-3,0,-3
1532063063184,1,1,2,-5,-11,2,2,-1
1532063063189,0,-1,4,6,-20,-3,-4,2
1532063063194,-2,-1,-1,-11,22,-3,10,-2
1532063063199,-2,-2,-5,-13,-13,4,0,-2
1532063063204,1,0,8,42,-4,-3,-1,2
1532063063209,0,-1,-4,-19,-15,-4,-2,4
1532063063214,1,-1,-4,-2,23,2,-2,0
1532063063219,1,2,1,16,28,2,-1,-1
1532063063224,-3,-7,-13,-88,-54,-3,-4,-4
1532063063229,0,-1,4,-1,20,-2,4,-1
1532063063234,-2,-1,-5,12,-10,3,-6,-2
1532063063239,-2,0,3,23,4,-2,-1,0
1532063063244,2,3,3,3,14,1,0,1
1532063063249,0,1,3,3,21,-2,2,-5
1532063063254,0,-1,5,-13,-2,2,1,-3
1532063063259,-1,0,-10,-1,-46,-2,-2,5
1532063063264,-2,-3,-9,-51,-8,-4,-6,-1
1532063063269,1,-1,1,6,4,4,-3,1
1532063063274,17,9,-1,51,0,-5,0,-1
1532063063279,-30,-20,0,25,2,-3,-5,-3
1532063063284,4,2,9,30,6,6,6,3
1532063063289,-10,-1,-5,-5,1,-2,-3,-4
1532063063294,10,2,-1,-9,-9,-1,-2,3
1532063063299,4,7,2,-2,6,-1,1,-6
1532063063304,-2,-2,1,21,6,3,1,-2
1532063063309,-2,-3,-7,-48,-9,-3,-1,-4
1532063063314,-4,-5,4,36,-6,-3,-5,2
1532063063319,33,-1,-6,-21,-10,-3,0,-2
1532063063324,-2,1,-1,11,4,-3,-2,-3
1532063063329,10,1,0,-13,-2,0,5,-3
1532063063334,-22,-6,3,-6,-7,-1,-11,0
1532063063339,8,0,-5,-33,10,1,3,3
1532063063344,0,0,1,21,1,-4,0,0
1532063063349,-5,-2,1,40,-5,0,1,1
1532063063354,22,8,-5,-30,-8,-6,-1,-1
1532063063359,4,-4,2,7,3,-3,-3,0
1532063063364,-19,0,-4,-16,7,4,3,-2
1532063063369,4,-9,8,8,0,-2,-6,2
1532063063374,-3,2,-3,0,-7,-4,0,-2
1532063063379,-29,3,0,-6,-3,1,-2,-6
1532063063384,-3,-1,-1,6,6,2,4,-1
1532063063389,5,-5,-3,8,3,3,-2,0
1532063063394,-12,-6,-3,-8,1,1,0,-1
1532063063399,14,10,-2,0,-4,-3,1,2
1532063063404,-33,-26,3,0,-5,-5,-5,1
1532063063409,-20,5,0,2,2,-1,0,-3
1532063063414,-34,-9,-3,-10,1,0,2,-2
1532063063419,6,-17,-3,-1,-10,-6,-11,-4
1532063063424,15,6,3,5,1,-1,1,-3
1532063063429,26,2,-4,0,3,-1,3,6
1532063063434,-22,2,-1,-2,-2,-2,2,-6
1532063063439,5,-5,0,-3,-4,-2,-2,0
1532063063444,-3,-1,0,3,1,0,-3,-1
1532063063449,16,4,-1,7,1,-1,0,-1
1532063063454,4,-8,0,-4,-4,-2,-3,0
1532063063459,-6,1,-3,-2,-3,-1,2,2
1532063063464,18,6,2,2,3,1,-1,-1
1532063063469,-17,-3,-1,1,0,0,1,-2
1532063063474,11,3,1,2,-3,1,0,0
1532063063479,-9,1,1,-3,-1,0,-3,-4
1532063063484,8,2,-5,7,1,-2,0,4
1532063063489,4,2,3,1,-2,0,-1,-3
1532063063494,5,0,-4,-4,-1,0,1,0
1532063063499,-7,-3,1,0,0,0,1,1
1532063063504,10,12,0,-2,-3,-2,1,0
1532063063509,3,6,-2,1,-1,-1,2,3
1532063063514,-47,-18,-7,-6,-2,-1,-1,-9
1532063063519,19,3,12,11,2,0,-2,3
1532063063524,-6,0,-3,-1,1,0,-2,-2
1532063063529,-10,2,-1,1,-2,0,-2,-3
1532063063534,14,5,0,-6,-2,0,0,0
1532063063539,-5,-2,-3,-4,-3,-1,-2,0
1532063063544,-7,-6,2,9,1,0,-2,-1
1532063063549,19,-6,-2,1,1,0,-1,1
1532063063554,9,17,-2,-2,-3,-2,-2,-4
1532063063559,-10,1,-16,-3,0,1,0,-2
1532063063564,17,7,24,5,-1,-1,0,2
1532063063569,-13,-1,1,7,1,-2,0,-3
1532063063574,11,-5,-7,-12,-2,0,0,1
1532063063579,24,18,-4,-2,-6,-3,-2,0
1532063063584,-35,-18,-5,-3,-1,0,-1,-4
1532063063589,2,-3,8,2,1,0,-1,-1
1532063063594,21,8,6,7,1,-1,0,2
1532063063599,3,1,-16,-18,-3,-1,-1,-2
1532063063604,6,2,-7,-1,0,0,-1,-1
1532063063609,-15,1,12,1,-3,-2,-3,-3
1532063063614,7,-4,-6,-2,0,-2,0,4
1532063063619,-12,-9,4,3,1,-2,0,0
1532063063624,16,9,-6,-6,-4,-3,0,-1
1532063063629,-4,-5,-9,-5,0,0,-1,-2
1532063063634,0,-1,7,6,-1,-1,-1,-1
1532063063639,-9,-2,-4,-1,1,0,0,-2
1532063063644,18,14,4,-5,-2,-1,-1,3
1532063063649,-11,-16,-1,2,-1,-1,0,-1
1532063063654,1,-7,0,3,0,0,-2,1
1532063063659,-14,1,6,2,-1,-1,-1,-4
1532063063664,5,5,-11,-3,-1,1,0,-1
1532063063669,11,1,-3,4,-1,0,0,3
1532063063674,-4,7,-13,-15,-1,-1,1,0
1532063063679,46,11,13,19,-5,0,-3,4
1532063063684,-21,-3,4,0,2,1,-2,-2
1532063063689,1,4,-5,-5,-3,-2,0,-2
1532063063694,-11,-11,-4,5,2,0,-2,-2
1532063063699,7,3,4,-2,0,-1,2,2
1532063063704,-2,-5,-3,-5,-2,-1,-1,1
1532063063709,-7,-1,-1,-1,-1,1,-1,-3
1532063063714,9,1,6,3,-3,-2,1,2
1532063063719,-18,-10,-4,-4,-1,-2,0,-3
1532063063724,7,-4,-1,3,-1,0,-1,-1
1532063063729,-14,-6,-7,-3,3,-1,-1,-3
1532063063734,3,-3,-2,-10,-4,-1,-3,0
1532063063739,-10,-2,3,-3,1,0,-1,0
1532063063744,-6,-5,-4,-2,-2,-3,-1,-3
1532063063749,8,-3,-6,-2,1,0,-1,3
1532063063754,9,9,-9,3,-2,-2,-1,-4
1532063063759,-15,-3,26,2,-1,-2,-3,-3
1532063063764,17,7,-4,0,-2,-1,0,0
1532063063769,-9,-5,2,-2,-1,-1,-3,-1
1532063063774,1,0,3,3,-1,-1,-1,-1
1532063063779,-9,-7,-10,-6,1,0,1,1
1532063063784,-2,-2,2,1,0,-1,0,-2
1532063063789,29,0,7,1,-2,-1,0,9
1532063063794,-38,2,-2,0,2,1,-2,-10
1532063063799,1,-1,-3,-1,-2,0,1,-1
1532063063804,-2,-4,-2,-2,-1,-1,-3,0
1532063063809,-1,3,0,-3,-1,-1,0,-2
1532063063814,5,-11,1,-2,-2,-1,0,3
1532063063819,-4,3,13,3,-1,-2,-2,-2
1532063063824,-14,-10,-5,-1,-1,-1,-1,-1
1532063063829,10,14,-5,-3,-1,-3,0,-3
1532063063834,0,-5,7,2,1,-2,0,0
1532063063839,0,-4,-11,-4,-1,0,-2,-3
1532063063844,7,-6,1,-5,1,0,1,0
1532063063849,8,7,-2,3,-1,-2,-1,-3
1532063063854,11,-1,-11,-7,-2,-1,0,2
1532063063859,-6,-5,8,3,0,-2,-4,0
1532063063864,-6,-2,-4,-4,-1,-1,-1,-1
1532063063869,-10,-4,-3,-3,-1,-1,-2,-2
1532063063874,0,-3,3,2,0,0,0,0
1532063063879,-5,-4,-10,-2,-1,-1,0,-3
1532063063884,-24,-16,-1,-1,0,-3,-2,-1
1532063063889,-5,5,5,-1,-1,-1,-2,-2
