1532494790134,-4,-2,-1,-1,-1,-7,-2,0
1532494790139,3,0,2,3,0,3,6,-1
1532494790144,-4,-1,-1,-4,-1,-5,-7,-1
1532494790149,0,-1,-1,0,-1,-1,-3,-3
1532494790154,-2,-1,0,-1,0,3,1,0
1532494790159,-3,1,-3,-3,-2,-9,-2,-2
1532494790164,-1,-2,-1,-1,1,3,-3,-2
1532494790169,-2,-2,-1,-1,-1,-2,3,-1
1532494790174,1,-3,-3,2,0,-4,-6,0
1532494790179,0,1,-1,-1,-1,-2,-1,1
1532494790184,1,0,0,0,0,-6,0,0
1532494790189,-1,-1,-1,0,-1,1,-1,0
1532494790194,-1,0,1,1,-1,1,4,0
1532494790199,1,-3,-4,-1,-2,-1,4,0
1532494790204,-1,-1,-2,1,0,11,0,3
1532494790209,-2,0,-3,-3,1,-2,-1,-1
1532494790214,0,0,0,2,-2,-2,7,1
1532494790219,-2,-1,-2,-3,-3,0,-13,-2
1532494790224,-4,0,0,-3,-3,-11,-5,-2
1532494790229,5,0,-2,2,1,7,9,0
1532494790234,-2,-2,-2,-1,-1,-1,-2,-2
1532494790239,0,-1,-1,-2,-1,-1,3,0
1532494790244,-1,-2,0,1,-2,-6,-8,-3
1532494790249,-2,-1,3,-2,-2,0,1,0
1532494790254,0,-1,-2,-2,-1,-2,-2,-3
1532494790259,-1,0,-3,-1,-1,0,-4,-1
1532494790264,1,-2,0,-2,-1,-2,2,2
1532494790269,0,0,0,-1,-2,-1,-6,-3
1532494790274,1,-1,-1,-4,-3,-10,-6,-3
1532494790279,-2,-2,1,-2,0,4,13,1
1532494790284,0,0,-1,0,0,-1,0,-2
1532494790289,-2,-3,-2,-1,-1,-2,-1,-1
1532494790294,-1,-1,-2,-1,-2,-2,-6,1
1532494790299,-1,0,-2,-1,-2,-2,-3,0
1532494790304,-1,-1,-3,-3,-2,-2,3,0
1532494790309,-4,0,-1,0,-3,-4,-4,-3
1532494790314,-2,0,-1,-1,0,4,5,2
1532494790319,1,-3,-1,2,1,0,-2,-1
1532494790324,-1,0,-5,-2,-2,-1,-9,-1
1532494790329,-1,-2,-2,-2,-1,-2,0,-1
1532494790334,-1,-1,4,-1,-2,1,-8,-3
1532494790339,-1,0,0,0,-1,-1,2,-1
1532494790344,0,-1,1,-1,0,-1,6,-1
1532494790349,-1,-1,0,-1,0,-4,-10,-1
1532494790354,-1,-1,-2,0,1,2,5,-1
1532494790359,0,-1,3,2,1,-3,-5,0
1532494790364,-1,0,-3,-1,-2,3,3,2
1532494790369,-1,-2,-1,0,0,-6,-2,-4
1532494790374,0,-1,0,-2,-3,5,1,0
1532494790379,-3,-3,-5,-3,-3,-3,-8,-7
1532494790384,0,0,1,-1,1,0,-1,3
1532494790389,-2,-1,-2,-1,-2,-1,2,2
1532494790394,0,-1,0,0,1,1,-1,-2
1532494790399,-1,0,-2,0,1,-3,-1,-2
1532494790404,-2,-3,1,-1,0,-4,-4,-3
1532494790409,-2,-3,-1,0,3,2,1,-1
1532494790414,7,1,-1,-2,0,-1,-1,1
1532494790419,-1,-1,0,-1,-2,0,0,2
1532494790424,1,-1,-1,1,1,-2,0,-2
1532494790429,0,0,0,-1,-3,-3,5,-2
1532494790434,1,0,-2,0,2,9,-10,1
1532494790439,1,1,0,1,0,1,-2,0
1532494790444,1,-1,1,-1,1,0,3,0
1532494790449,-3,-1,-1,-1,-1,1,-5,-3
1532494790454,-1,-3,-1,-1,-1,-5,0,-1
1532494790459,0,-1,0,-1,0,1,4,0
1532494790464,-1,0,-2,1,0,4,1,-1
1532494790469,0,1,1,-1,-2,-8,-6,1
1532494790474,-3,-2,-4,-2,-3,1,2,-2
1532494790479,-1,0,-3,-2,0,2,0,2
1532494790484,-1,-1,-1,4,0,-3,0,-3
1532494790489,0,-1,-1,0,-1,1,-2,-1
1532494790494,-3,0,-4,-3,-2,-6,-3,-1
1532494790499,0,0,-1,-2,-2,2,3,-2
1532494790504,-8,-1,0,0,-1,-3,-2,-1
1532494790509,2,0,0,1,-1,4,2,1
1532494790514,-3,-2,2,2,-1,1,-2,-4
1532494790519,-1,-1,1,0,0,4,-2,-1
1532494790524,-2,-1,0,-2,-1,-2,-1,-3
1532494790529,0,-1,-2,2,1,-2,-2,0
1532494790534,-3,-2,0,-2,-3,-6,5,-1
1532494790539,-1,-1,-3,-1,-4,-5,-9,-3
1532494790544,1,0,0,-1,-2,-3,4,-2
1532494790549,-1,0,0,-3,-3,3,-4,1
1532494790554,-1,-2,-2,0,0,-4,-4,-2
1532494790559,-2,-1,-1,3,1,0,1,-2
1532494790564,0,-1,0,-4,-1,-1,3,-1
1532494790569,-1,-1,-1,-2,-2,1,-3,-3
1532494790574,-1,-1,-3,-1,2,-2,4,2
1532494790579,1,-1,0,-1,-2,-3,-2,1
1532494790584,0,0,-2,0,-2,-12,-3,0
1532494790589,-1,-1,0,0,-1,12,8,0
1532494790594,1,0,-1,-1,-3,-2,3,0
1532494790599,-1,-2,0,0,0,0,-3,-3
1532494790604,1,-3,-4,-2,-3,-2,-4,-2
1532494790609,0,-2,-2,-1,-1,-3,-1,1
1532494790614,-6,-1,0,-1,-2,-4,-3,-1
1532494790619,5,-1,-2,-2,-1,-2,2,0
1532494790624,2,0,-2,1,0,7,-1,-2
1532494790629,-4,1,-1,0,-1,-3,-5,0
1532494790634,1,1,2,0,-2,0,-1,0
1532494790639,-1,0,-2,3,0,0,1,4
1532494790644,-1,-3,0,-1,-2,2,0,-3
1532494790649,1,-1,0,0,0,0,2,-1
1532494790654,-1,0,-1,0,-2,-6,-2,0
1532494790659,-1,-1,-1,-2,-1,2,4,-1
1532494790664,2,-1,-2,0,0,4,2,4
1532494790669,-2,-3,0,0,0,0,-4,-2
1532494790674,-1,-1,-1,0,1,-2,2,1
1532494790679,-1,-2,-1,1,-1,2,1,-1
1532494790684,-1,0,-4,-4,-4,-5,-2,-1
1532494790689,0,0,0,-1,-1,8,6,-3
1532494790694,0,0,1,0,1,4,0,-1
1532494790699,-1,-1,-3,-3,-3,-4,-4,-1
1532494790704,-3,-2,-1,1,0,-1,-2,1
1532494790709,0,1,-2,-2,-2,-7,3,1
1532494790714,-1,0,0,1,1,0,1,-1
1532494790719,-3,1,3,1,0,3,0,-2
1532494790724,-1,0,3,-1,-2,-5,0,0
1532494790729,0,-1,-5,0,-1,-5,-4,-1
1532494790734,-1,0,1,1,1,2,-1,-2
1532494790739,-2,-3,-3,-2,-5,-5,-5,-3
1532494790744,-1,1,-2,-1,-1,3,-3,0
1532494790749,-2,1,0,-1,-1,-2,8,2
1532494790754,4,-2,-1,-3,-1,5,-3,2
1532494790759,0,0,1,2,0,2,-1,0
1532494790764,-1,-1,0,-1,-1,-11,-4,-1
1532494790769,1,-2,-4,1,-1,4,-2,1
1532494790774,-1,0,-1,0,-2,-3,1,-1
1532494790779,0,-2,-2,0,0,2,5,1
1532494790784,-2,-1,-3,0,-2,-3,-14,-2
1532494790789,1,-2,0,0,0,-4,-2,2
1532494790794,-2,-2,0,-3,-2,-3,0,-1
1532494790799,0,-1,-2,-2,-2,-3,2,-1
1532494790804,0,1,0,-2,-2,3,6,0
1532494790809,-2,-2,-2,-2,0,-3,-7,-5
1532494790814,-2,-1,-4,-1,-3,3,0,0
1532494790819,-2,0,1,-1,0,-1,3,-3
1532494790824,-1,0,2,0,0,2,4,-2
1532494790829,-1,0,-2,-2,-3,3,3,-1
1532494790834,-2,1,0,1,1,-8,-9,-5
1532494790839,-2,0,-1,0,1,-3,-5,-1
1532494790844,1,-2,-3,-4,-3,-9,0,-2
1532494790849,-3,1,2,-1,0,13,5,-2
1532494790854,-2,-2,-4,-2,-3,-2,-4,0
1532494790859,-1,0,3,-1,-1,-2,2,1
1532494790864,-1,-1,-2,1,1,1,-5,-3
1532494790869,0,0,-2,-2,-1,-8,-1,2
1532494790874,0,-1,0,-1,-1,4,3,-1
1532494790879,-1,-3,-2,-1,-1,-5,-12,-5
1532494790884,-2,-1,0,-2,0,4,8,3
1532494790889,-1,-1,1,0,0,-3,-7,-1
1532494790894,0,-2,-5,-1,-3,-3,1,0
1532494790899,-1,0,0,-2,0,1,12,0
1532494790904,0,-1,2,2,2,-1,-21,-2
1532494790909,-2,0,-1,0,-1,-1,3,-3
1532494790914,-1,-2,0,-1,1,-13,-5,1
1532494790919,-1,-1,-1,-2,-1,8,5,0
1532494790924,0,-1,-3,-2,-2,1,7,1
1532494790929,-2,-1,1,0,-1,-3,-1,-1
1532494790934,1,0,-1,-2,-2,-2,-3,0
1532494790939,0,0,-1,-1,1,-5,-3,2
1532494790944,-1,-2,-2,1,1,2,6,-1
1532494790949,-1,0,-2,0,0,-2,-6,-2
1532494790954,0,-1,-1,-1,0,3,7,1
1532494790959,-2,-1,0,0,-1,-3,-6,0
1532494790964,0,-2,-5,-1,-2,4,5,-1
1532494790969,0,1,1,1,2,-1,1,-1
1532494790974,-1,-1,1,0,-3,-3,-11,-1
1532494790979,0,0,-2,-1,3,9,6,4
1532494790984,-2,0,2,-5,-13,-12,-2,-4
1532494790989,1,-4,-3,0,-5,-8,-1,-2
1532494790994,1,-1,0,-1,8,14,5,-2
1532494790999,-1,0,-1,-2,-9,-2,-4,0
1532494791004,-1,0,0,-1,2,0,-6,-3
1532494791009,-1,-1,-2,-1,2,0,7,1
1532494791014,-2,1,5,1,-1,-4,-2,-3
1532494791019,1,-2,0,2,-1,-2,10,-1
1532494791024,0,2,0,1,3,2,-10,5
1532494791029,-1,0,-1,-1,-5,-6,-4,-4
1532494791034,-2,0,-1,-1,3,5,1,0
1532494791039,-1,-1,-2,-2,-5,-5,0,-2
1532494791044,-1,-1,-1,0,-3,-2,5,-1
1532494791049,0,0,1,0,-3,-9,-6,0
1532494791054,-3,-1,-2,-2,0,11,1,-8
1532494791059,1,0,1,-1,0,-2,2,5
1532494791064,0,-1,-1,5,5,-2,-4,1
1532494791069,1,0,1,-1,8,1,0,-3
1532494791074,-1,0,-3,-4,-10,0,5,2
1532494791079,-4,-2,-1,0,0,-10,-4,-4
1532494791084,0,-1,-4,-6,-9,19,5,0
1532494791089,-4,-1,-1,6,11,-4,-3,-3
1532494791094,-3,-1,-2,-3,-5,-10,-4,-24
1532494791099,-1,-1,-1,-2,5,3,-1,6
1532494791104,6,-1,2,2,-9,-23,3,33
1532494791109,3,0,-2,-2,1,22,-1,-4
1532494791114,0,0,-2,-1,-7,-5,3,2
1532494791119,-3,0,-1,-2,11,4,-8,-13
1532494791124,-1,-3,2,1,2,12,0,-2
1532494791129,-2,0,-3,-3,1,1,-2,0
1532494791134,-1,-1,1,0,-6,-5,2,0
1532494791139,0,0,-5,-1,1,2,-3,3
1532494791144,-2,-2,-5,-4,1,-3,-1,-4
1532494791149,0,-1,0,-1,-7,-4,0,-1
1532494791154,-1,-1,2,-2,0,4,0,5
1532494791159,0,0,-1,-3,-6,-4,-5,0
1532494791164,-2,0,1,4,11,8,4,-7
1532494791169,-1,-2,-2,-3,-7,-5,4,-1
1532494791174,0,0,0,1,-1,-5,-5,3
1532494791179,2,-1,2,2,1,4,4,2
1532494791184,-4,0,-5,-3,5,6,-5,-11
1532494791189,1,-2,-2,-5,-8,-1,7,23
1532494791194,-1,-1,-1,3,-7,-7,-5,-1
1532494791199,-2,-1,-2,-4,-7,-17,-17,-8
1532494791204,0,1,1,1,7,-2,7,6
1532494791209,0,0,0,1,4,11,0,-9
1532494791214,4,-2,-1,3,4,-4,1,4
1532494791219,-2,-1,1,-5,4,15,-1,-1
1532494791224,-1,-1,-5,-8,-24,-23,1,-3
1532494791229,-3,1,-2,-1,5,1,-1,-2
1532494791234,0,-1,0,0,-4,-4,0,0
1532494791239,1,-1,0,2,-5,-8,-1,-3
1532494791244,-2,0,0,-1,3,5,-4,-2
1532494791249,0,-1,0,2,-4,-16,1,-2
1532494791254,2,-2,-2,-4,-8,15,-4,-8
1532494791259,-1,-2,-1,0,14,13,12,9
1532494791264,1,0,1,0,-9,0,-7,-1
1532494791269,-4,-1,-3,-4,-2,-3,-13,-8
1532494791274,-1,-1,-3,1,1,-8,-1,-1
1532494791279,-1,0,2,-4,0,3,0,-2
1532494791284,-3,-3,-3,-2,-1,1,8,-4
1532494791289,0,0,1,0,-1,-1,-1,6
1532494791294,-1,0,1,0,4,0,-4,0
1532494791299,-1,-1,-1,0,2,-1,2,1
1532494791304,2,-1,1,-2,-9,-9,-1,-4
1532494791309,0,-2,-3,-2,2,9,-1,1
1532494791314,0,-1,1,-3,-20,1,-3,-1
1532494791319,-8,-2,-2,0,29,12,3,-2
1532494791324,0,-3,0,0,0,1,-6,0
1532494791329,2,1,-1,-4,-2,0,-1,-3
1532494791334,-2,-1,-1,0,4,-5,5,4
1532494791339,1,0,0,2,-11,-7,-4,-4
1532494791344,2,1,-1,-1,5,-8,-1,1
1532494791349,-2,-2,-1,-3,-8,1,0,-5
1532494791354,-1,1,-1,2,11,-7,-4,3
1532494791359,-1,-1,-1,0,-7,-2,-1,-2
1532494791364,-3,-1,0,-4,4,2,3,1
1532494791369,2,-2,-2,0,-10,-9,3,1
1532494791374,-2,0,0,-2,5,9,-2,-4
1532494791379,3,-2,-1,0,0,1,-1,-1
1532494791384,0,2,0,2,-1,-4,-1,-1
1532494791389,1,0,0,-1,-2,-2,-2,-2
1532494791394,-2,-3,-2,-5,1,4,2,1
1532494791399,-2,1,-1,-3,-10,-9,-3,-5
1532494791404,1,-3,-1,-2,-1,1,-1,-2
1532494791409,-3,0,0,2,0,-6,1,-7
1532494791414,1,-1,1,-1,6,6,3,10
1532494791419,-3,1,-2,1,-8,-3,-1,1
1532494791424,-6,-8,-1,-3,-5,-5,-1,-4
1532494791429,-4,7,-2,4,5,3,-5,1
1532494791434,-1,0,0,-2,0,-3,1,-1
1532494791439,-11,1,-1,-4,-8,-1,-1,-2
1532494791444,15,1,1,-1,3,4,-3,2
1532494791449,1,-5,0,0,-2,-6,0,-1
1532494791454,-2,1,-2,-1,-4,-5,3,-7
1532494791459,0,-4,-6,1,1,3,-2,1
1532494791464,-5,0,-1,0,2,0,0,8
1532494791469,0,-1,-4,-4,-5,-5,-1,1
1532494791474,3,-1,2,0,1,0,-3,0
1532494791479,1,-2,3,2,-1,-2,-3,-4
1532494791484,-2,0,-6,-3,-2,-2,-2,-3
1532494791489,0,0,3,-1,-3,3,0,1
1532494791494,-8,-3,-3,-1,0,-4,-3,-7
1532494791499,4,1,-1,-2,-6,-13,4,2
1532494791504,-2,0,1,3,4,14,6,-2
1532494791509,-2,-2,-2,2,0,-2,-2,1
1532494791514,0,-1,-1,0,1,3,7,-3
1532494791519,0,0,-2,-3,-6,-7,-13,-2
1532494791524,-1,0,1,1,2,-10,-7,-4
1532494791529,-3,-2,0,1,6,-4,1,-2
1532494791534,1,0,-4,-1,-1,8,12,5
1532494791539,3,0,1,1,4,13,-5,-1
1532494791544,-10,-2,-2,-6,-4,-19,-2,-5
1532494791549,-1,-3,-4,-3,-14,0,4,3
1532494791554,4,0,0,5,10,-5,-20,4
1532494791559,-2,-1,-2,0,4,-21,6,-3
1532494791564,-1,1,3,7,11,15,5,-3
1532494791569,-1,-3,0,0,-15,-15,-2,-8
1532494791574,1,-1,1,2,20,34,12,7
1532494791579,-1,-1,-3,-10,-17,-7,-7,2
1532494791584,0,0,0,-1,6,10,-6,1
1532494791589,-2,0,-2,-3,-4,-16,-1,-5
1532494791594,-2,0,1,1,4,4,3,-15
1532494791599,2,-1,0,-2,-10,1,5,32
1532494791604,0,-1,-1,0,-3,3,-3,-2
1532494791609,-1,-2,0,2,7,6,-2,2
1532494791614,2,0,-1,-6,-11,-19,-6,1
1532494791619,-6,-2,0,2,4,2,6,-9
1532494791624,-3,-2,-1,-4,-7,-2,-5,-5
1532494791629,1,0,0,3,7,13,2,9
1532494791634,-1,-1,-3,1,-5,-5,0,-4
1532494791639,1,1,0,2,4,4,-7,-8
1532494791644,-2,-1,0,0,-5,-4,19,8
1532494791649,-1,0,-1,-4,5,13,-9,-8
1532494791654,-5,-3,-3,-2,0,-9,-5,-1
1532494791659,-1,-1,0,1,-2,1,0,-4
1532494791664,0,1,1,0,2,-1,-1,-3
1532494791669,-2,-2,-2,-3,-5,-2,-4,-3
1532494791674,0,-1,-1,-2,-7,1,2,5
1532494791679,-1,0,1,3,5,-1,-2,-5
1532494791684,-2,0,-1,4,0,-2,-4,-7
1532494791689,-1,-1,0,-7,-4,-1,4,0
1532494791694,0,-2,-3,-5,-11,-12,-4,2
1532494791699,-1,-2,0,0,7,8,2,-4
1532494791704,0,-1,-2,0,-8,3,-1,2
1532494791709,-2,-1,0,1,2,-1,-1,-1
1532494791714,-2,0,-1,1,2,-2,2,-3
1532494791719,0,-2,-2,-1,12,8,4,0
1532494791724,1,-1,-3,-11,-32,-16,-2,1
1532494791729,-5,-2,0,1,5,1,-3,-7
1532494791734,0,-2,0,-4,-6,-1,0,14
1532494791739,2,0,2,3,-11,-12,3,0
1532494791744,-2,-1,-1,4,34,28,-12,-1
1532494791749,1,-1,-2,-2,-4,-10,-1,3
1532494791754,-1,-1,0,-2,-2,-12,0,-7
1532494791759,-1,-1,0,-3,2,22,0,-6
1532494791764,3,1,1,0,-1,-10,-1,4
1532494791769,1,-1,-1,1,-2,13,5,-1
1532494791774,-1,-1,-1,-3,-1,1,-4,0
1532494791779,0,-1,-1,-2,-7,-15,-3,2
1532494791784,-1,0,-1,0,0,1,3,0
1532494791789,0,1,-2,3,1,-3,0,1
1532494791794,-2,-2,-4,-8,-10,0,-3,-5
1532494791799,-2,0,-2,-1,0,-1,-3,1
1532494791804,-1,0,0,3,0,1,-1,-2
1532494791809,1,-1,-1,-1,3,-15,-2,1
1532494791814,-1,-1,0,-2,2,9,4,-2
1532494791819,0,-2,-6,-3,-5,-2,-4,-2
1532494791824,-1,0,2,-2,6,1,-1,-2
1532494791829,-1,0,2,1,2,-2,1,-1
1532494791834,-3,-1,-1,2,-3,-6,-3,-9
1532494791839,2,0,-1,-3,6,4,1,10
1532494791844,0,-3,-5,-6,-16,-13,2,0
1532494791849,1,-1,1,0,0,2,-4,1
1532494791854,0,-1,-1,1,3,7,-2,-3
1532494791859,-2,-2,1,2,3,-4,0,-8
1532494791864,-1,-1,-3,2,6,2,-2,-2
1532494791869,-2,0,-3,-9,-23,-10,-2,2
1532494791874,-1,0,1,3,2,-1,-5,-3
1532494791879,0,-1,-2,0,-4,1,7,0
1532494791884,-1,0,-2,-1,0,-7,-4,0
1532494791889,-2,-3,-5,-3,4,5,4,-3
1532494791894,-1,-2,1,2,1,-1,-1,-1
1532494791899,1,1,2,2,-3,-1,-1,-3
1532494791904,0,-2,-2,-6,0,-2,2,-3
1532494791909,-3,-2,-3,-7,4,4,-2,-1
1532494791914,0,-1,-3,-3,-10,-2,0,-1
1532494791919,1,-1,0,1,3,2,-3,-1
1532494791924,-1,-2,0,5,-1,1,0,-2
1532494791929,0,0,1,1,-1,-4,-2,2
1532494791934,0,-2,0,0,5,-3,1,-1
1532494791939,1,4,0,-1,-3,5,-1,1
1532494791944,-2,-3,-3,1,1,1,-3,-2
1532494791949,-1,-3,-6,0,-1,-14,0,2
1532494791954,-2,1,0,-1,-2,10,2,0
1532494791959,-3,-3,-4,-6,0,-6,-1,-4
1532494791964,-1,0,3,-7,-4,5,1,1
1532494791969,1,2,3,2,6,3,-1,1
1532494791974,-2,-2,0,-1,-13,-20,-3,-4
1532494791979,-1,-4,0,-4,-3,-5,-3,-1
1532494791984,1,0,-5,0,-5,-3,3,1
1532494791989,-3,-1,-4,-5,-6,1,-4,-2
1532494791994,-1,-2,2,7,12,21,0,1
1532494791999,-2,0,1,2,3,0,-4,-1
1532494792004,1,-3,5,0,3,10,3,1
1532494792009,-1,-2,-4,1,-4,-23,-6,-2
1532494792014,0,1,-2,-3,-2,-8,1,0
1532494792019,-1,1,2,1,-5,-4,2,-1
1532494792024,-2,-19,-11,-3,1,-1,4,0
1532494792029,0,20,8,1,3,12,-6,-3
1532494792034,-1,3,-5,-3,0,3,-1,-1
1532494792039,-3,-4,-1,-4,-8,-12,-1,-1
1532494792044,-1,2,2,-3,-3,33,-2,-3
1532494792049,0,-8,-2,-1,3,-17,0,-1
1532494792054,-1,0,1,1,-1,-20,-3,-1
1532494792059,1,1,-3,3,3,-4,1,0
1532494792064,0,2,1,7,1,-7,-1,-6
1532494792069,-1,-5,-3,-5,2,19,-2,5
1532494792074,0,0,0,-5,-3,-8,5,-1
1532494792079,-2,-4,-3,-8,-18,3,2,0
1532494792084,-2,2,-3,-2,0,-2,-4,-1
1532494792089,0,8,3,4,0,5,0,-4
1532494792094,-5,-8,-3,1,4,-11,-6,-4
1532494792099,2,-14,-8,1,2,8,3,1
1532494792104,2,5,-3,3,2,6,-2,-2
1532494792109,-1,2,2,-5,9,-5,-1,1
1532494792114,-2,-7,-2,-1,-8,-13,-5,1
1532494792119,2,3,1,2,-20,4,5,0
1532494792124,-3,-1,-1,-6,12,5,-1,-1
1532494792129,-1,-2,1,4,6,-3,-4,-1
1532494792134,-1,4,-1,-2,3,-5,-2,-1
1532494792139,0,-4,-2,-3,-2,7,6,2
1532494792144,0,-1,0,4,-3,-1,-6,-1
1532494792149,0,-2,-1,-2,-3,6,5,-5
1532494792154,-2,4,-1,-1,0,-18,-6,0
1532494792159,-1,-6,-2,3,6,-16,2,-3
1532494792164,0,-5,-4,-4,-6,15,1,0
1532494792169,-1,7,0,-4,-1,-3,-3,1
1532494792174,0,-1,0,2,-2,5,2,0
1532494792179,-3,-4,-1,-1,4,6,-6,-2
1532494792184,1,0,-1,-1,3,-7,3,1
1532494792189,0,1,-1,0,-8,-3,-1,-1
1532494792194,-2,0,0,-2,2,-2,0,-1
1532494792199,1,-3,-1,1,-2,15,1,-2
1532494792204,-1,2,0,2,-1,-1,1,1
1532494792209,-2,1,1,1,7,3,-2,-3
1532494792214,-2,-3,-3,-6,-10,-12,-1,-1
1532494792219,-1,-1,-3,-4,9,-3,0,-2
1532494792224,2,1,3,-1,-28,1,-5,1
1532494792229,-2,1,0,9,15,-5,1,0
1532494792234,-1,2,-3,-6,5,-3,-3,-1
1532494792239,-1,-5,-3,-5,-1,6,1,-1
1532494792244,-2,-3,-2,-5,4,1,2,0
1532494792249,-1,0,-1,-1,-12,-2,-4,-1
1532494792254,-1,2,2,6,5,10,2,1
1532494792259,-1,0,1,0,8,1,-1,0
1532494792264,-2,-3,-4,-3,-6,-14,-2,-1
1532494792269,0,0,1,0,-6,-12,-1,1
1532494792274,1,-1,3,3,5,9,-3,-2
1532494792279,-2,-3,-2,-4,-7,-2,-2,-1
1532494792284,-3,-2,0,-3,1,5,-4,-1
1532494792289,0,-1,-2,-2,3,-2,3,0
1532494792294,-2,-1,-2,-2,-6,-4,-4,-2
1532494792299,0,-2,0,6,3,-2,0,-2
1532494792304,1,-1,-3,3,5,9,4,0
1532494792309,0,-1,-1,-2,4,7,0,-1
1532494792314,-2,0,-3,1,7,-1,-1,-1
1532494792319,-1,-1,-1,-4,-7,-17,-4,1
1532494792324,-1,0,0,-2,-3,-1,1,-2
1532494792329,-2,0,-4,1,3,8,-2,-2
1532494792334,2,-1,-1,-1,-5,3,2,0
1532494792339,1,1,-2,-2,-9,6,-1,-2
1532494792344,0,-1,0,1,8,-3,-4,0
1532494792349,-3,-3,-2,-4,-3,-1,0,-1
1532494792354,-1,0,0,-3,-7,-16,-3,-2
1532494792359,0,-1,1,1,2,2,2,0
1532494792364,0,-1,1,2,2,9,-2,-1
1532494792369,0,0,0,-4,-9,5,0,-1
1532494792374,0,-2,-2,-9,-20,-57,1,1
1532494792379,0,-1,0,-1,10,48,-2,-1
1532494792384,-2,0,-1,3,3,0,1,-1
1532494792389,-1,0,2,5,0,-23,-9,0
1532494792394,-1,0,-3,-2,5,10,3,-1
1532494792399,-2,-1,2,0,-3,-8,4,1
1532494792404,-1,-1,-2,-7,-7,-10,-1,1
1532494792409,-1,-1,-2,-5,-10,4,3,-2
1532494792414,1,-1,-2,1,3,18,-2,-1
1532494792419,-2,-2,-3,0,-7,-14,9,1
1532494792424,0,-1,-1,1,8,42,3,-2
1532494792429,-2,0,2,-3,-12,-26,-3,-2
1532494792434,-1,-2,-1,0,3,-6,0,-3
1532494792439,-1,1,-1,2,7,-9,-1,0
1532494792444,0,0,0,-2,-7,-21,-2,0
1532494792449,0,0,0,1,5,5,1,1
1532494792454,-2,-3,-2,-2,-5,5,0,0
1532494792459,-1,-2,-1,-6,-1,3,-4,-2
1532494792464,0,-2,-1,-4,-10,-12,-2,-1
1532494792469,0,-2,-3,5,7,-35,-2,-2
1532494792474,0,1,2,-3,-9,48,3,0
1532494792479,-2,1,-2,1,-2,-18,-2,-2
1532494792484,-2,1,0,3,6,-1,-2,-3
1532494792489,0,-2,-2,-1,-3,38,6,0
1532494792494,0,-1,0,-2,-5,-16,-3,-1
1532494792499,-1,-2,-1,-3,-4,-36,-2,0
1532494792504,-2,-3,0,0,-3,51,1,1
1532494792509,-1,0,-1,0,3,2,-1,-1
1532494792514,0,0,0,6,7,-5,0,-2
1532494792519,-1,-2,0,-5,-4,6,-5,-2
1532494792524,-1,0,-3,-4,-3,-21,-1,-1
1532494792529,-2,-2,0,-3,-2,4,-5,0
1532494792534,-2,-2,0,5,2,19,6,1
1532494792539,-1,-1,-1,3,-1,-12,-4,-1
1532494792544,2,1,-3,-3,-3,-1,1,1
1532494792549,0,2,-2,-7,-6,1,0,-2
1532494792554,-2,-2,0,1,6,-14,-1,-3
1532494792559,0,-1,1,5,0,-7,3,-2
1532494792564,-1,0,2,2,5,1,-1,0
1532494792569,0,-2,-3,-1,2,33,-5,-1
1532494792574,-1,0,0,-1,-2,-9,0,1
1532494792579,-3,-2,-3,-4,-3,10,-2,-2
1532494792584,-1,-2,0,-1,0,-20,-1,-1
1532494792589,0,-1,0,-2,-3,-13,-2,1
1532494792594,0,0,-2,-1,0,8,1,0
1532494792599,0,-1,-1,2,0,-3,-5,-2
1532494792604,0,-2,-1,-4,-4,-6,1,-1
1532494792609,-1,-2,-1,-1,-4,-25,-1,-1
1532494792614,0,0,-2,1,3,46,1,1
1532494792619,0,1,0,0,-3,-23,-4,0
1532494792624,-1,0,-1,-2,-3,-28,1,-1
1532494792629,-1,-1,3,6,9,35,3,-2
1532494792634,-3,-1,-5,-3,-3,-9,-5,-1
1532494792639,0,2,0,-3,-1,33,3,2
1532494792644,-3,-1,-3,-1,-2,-9,-3,-1
1532494792649,-1,-2,-2,-1,-4,-2,1,0
1532494792654,0,-1,3,1,-2,-14,-2,0
1532494792659,-2,-2,-2,4,4,6,0,0
1532494792664,-1,-1,-1,-4,-7,-4,-1,-1
1532494792669,-1,0,-1,-1,1,-7,1,1
1532494792674,-1,-1,2,-2,-5,-6,5,-4
1532494792679,0,-1,-1,-2,-2,1,0,1
1532494792684,0,1,3,6,5,4,0,0
1532494792689,-1,-1,-2,-2,-1,-12,-4,-4
1532494792694,-2,-1,-1,-2,-2,-5,-3,1
1532494792699,0,0,-1,-3,-1,12,1,-2
1532494792704,0,-2,9,5,3,2,-1,1
1532494792709,-1,-2,-14,0,-6,-56,-4,-1
1532494792714,-3,0,0,-1,8,39,-7,0
1532494792719,-1,2,-1,-1,-2,-3,1,-1
1532494792724,0,-3,-2,-5,-5,3,0,-1
1532494792729,0,0,3,-2,1,22,-2,1
1532494792734,-1,-1,3,2,-3,-21,1,-1
1532494792739,0,-2,-1,5,3,-4,-2,0
1532494792744,0,-1,-3,-4,0,-5,-7,-1
1532494792749,0,0,3,-1,-3,9,7,-1
1532494792754,0,-4,-8,-8,-6,-5,-3,-1
1532494792759,1,-2,-1,0,4,-4,-2,-2
1532494792764,-1,1,-3,1,-2,0,1,-1
1532494792769,-1,-3,-3,1,0,-10,-3,-1
1532494792774,0,1,2,-2,4,6,1,0
1532494792779,-1,1,3,-1,-5,-15,-3,-2
1532494792784,0,-4,-11,0,-2,8,0,-2
1532494792789,-2,1,4,-2,3,10,2,-1
1532494792794,1,-2,-2,-1,-10,-50,-1,-1
1532494792799,-2,-2,2,-4,4,84,6,0
1532494792804,-2,1,0,1,3,-15,-4,-3
1532494792809,0,-1,-1,1,-3,7,-2,0
1532494792814,0,-1,0,-1,-4,-10,-2,-1
1532494792819,0,0,-3,-3,-3,-5,1,0
1532494792824,0,1,1,-2,3,9,0,0
1532494792829,0,1,0,4,1,-12,2,-1
1532494792834,-1,-1,1,2,2,-1,-1,-2
1532494792839,-2,-2,0,-1,-11,-25,-7,-3
1532494792844,0,-1,-6,-8,1,31,9,0
1532494792849,-1,-1,1,-1,-3,-1,-3,-1
1532494792854,-2,1,2,4,2,-11,-1,-1
1532494792859,-1,-1,0,-4,-7,-35,-4,1
1532494792864,-1,0,1,1,4,30,-5,-3
1532494792869,-1,-1,-1,-6,-3,-2,1,-3
1532494792874,-1,0,-2,-3,-1,16,3,-1
1532494792879,-2,-1,13,2,3,-18,-3,-1
1532494792884,1,1,-16,2,-6,-49,0,1
1532494792889,-1,0,0,-4,-1,9,0,0
1532494792894,-2,-1,-6,0,2,3,-3,0
1532494792899,-2,0,-2,1,1,9,0,0
1532494792904,0,1,4,2,-5,-14,-1,0
1532494792909,-2,-2,-3,0,1,16,1,-1
1532494792914,0,0,0,-2,-2,-20,-2,-2
1532494792919,0,-2,-5,-6,-1,40,2,-1
1532494792924,-1,-1,1,3,4,15,3,-1
1532494792929,0,0,-3,4,-2,-23,-5,1
1532494792934,0,-1,0,-4,0,-13,1,-3
1532494792939,0,0,-2,-3,6,40,6,1
1532494792944,-1,-3,-4,-3,-8,-2,-5,0
1532494792949,0,3,3,-1,-5,5,-8,0
1532494792954,0,-2,4,2,0,-19,6,-1
1532494792959,-1,-2,-10,0,-4,-17,-8,-1
1532494792964,-1,-1,-1,-6,-3,-23,-2,-2
1532494792969,0,-2,-1,-2,-2,-1,-1,-2
1532494792974,-3,1,3,-1,-2,14,-6,-1
1532494792979,-2,0,-5,7,6,-8,0,-1
1532494792984,1,2,4,2,13,17,5,2
1532494792989,-3,-5,-6,-9,-13,-8,-1,-2
1532494792994,-2,-4,-2,-4,-11,-11,-1,1
1532494792999,1,-3,0,2,6,-13,2,0
1532494793004,-2,0,0,-2,-21,26,-6,0
1532494793009,0,1,2,1,8,9,9,-1
1532494793014,1,0,-2,-2,0,20,-2,0
1532494793019,0,2,-3,2,7,-42,-6,-2
1532494793024,0,-2,-1,-1,-9,4,2,-2
1532494793029,-1,-3,-3,-4,2,-2,-4,0
1532494793034,-2,-3,1,4,15,32,4,-1
1532494793039,0,1,-1,-6,-19,0,0,0
1532494793044,-1,1,3,4,7,-59,-8,-1
1532494793049,0,1,-1,-3,-3,7,0,-2
1532494793054,-1,0,-4,-3,6,-20,-1,-1
1532494793059,-1,-3,-1,-3,-4,-3,0,0
1532494793064,-2,-2,-1,-1,2,14,1,0
1532494793069,-1,1,4,9,2,-8,-3,-1
1532494793074,1,1,0,-3,-3,11,0,0
1532494793079,-1,4,1,0,-1,7,0,-2
1532494793084,-2,-5,-1,-2,3,-5,4,-2
1532494793089,1,-2,2,-1,-3,-1,-4,-2
1532494793094,0,4,-3,0,-4,6,0,0
1532494793099,-2,0,-1,6,6,5,1,-2
1532494793104,0,-4,-6,-6,-14,-19,-3,1
1532494793109,-4,-9,-3,-5,-6,-2,2,-2
1532494793114,-2,-3,-5,-5,-3,-45,-12,-4
1532494793119,0,1,4,-2,5,53,4,-1
1532494793124,1,1,4,10,5,3,5,1
1532494793129,1,1,1,2,3,10,0,-1
1532494793134,-4,-5,-7,-12,-15,-31,4,-3
1532494793139,-1,0,-1,-1,14,-7,-2,-2
1532494793144,1,1,2,-3,-28,-8,-2,2
1532494793149,-1,4,3,4,2,-13,-1,1
1532494793154,-1,0,-2,4,6,8,-2,0
1532494793159,-1,-5,-2,-1,-5,0,4,-1
1532494793164,1,0,5,-1,6,11,-4,-1
1532494793169,-1,-5,-5,-3,5,-3,0,-2
1532494793174,0,-3,1,-1,-14,8,-3,-2
1532494793179,0,-2,-3,-3,3,-5,-2,0
1532494793184,-2,0,1,0,-6,-53,-6,-1
1532494793189,2,1,-2,-2,6,66,7,3
1532494793194,1,0,2,9,21,12,-1,0
1532494793199,-1,0,-2,-4,-19,-13,-3,-3
1532494793204,-2,-2,0,5,26,-1,4,-2
1532494793209,0,1,3,-4,3,-25,0,-1
1532494793214,1,-2,-3,3,8,33,0,-3
1532494793219,-3,-2,-9,-20,-61,-42,0,2
1532494793224,-3,-1,-2,0,1,15,-4,-2
1532494793229,0,-1,-5,2,10,13,3,-1
1532494793234,-1,1,0,-2,-10,-16,-1,1
1532494793239,0,-3,3,2,13,-4,0,-2
1532494793244,-1,-2,2,4,13,20,1,-1
1532494793249,-1,0,0,2,-5,-7,-2,-1
1532494793254,0,1,2,-1,-4,-2,4,1
1532494793259,-3,-1,-5,-5,9,-5,-1,-1
1532494793264,0,-2,-3,-8,-4,12,3,-1
1532494793269,1,0,1,3,10,0,-4,1
1532494793274,1,0,-1,1,-12,1,-1,-2
1532494793279,0,-2,4,14,2,6,-1,-2
1532494793284,-1,-1,-5,-11,-3,4,-1,-2
1532494793289,-2,-3,-2,-4,-2,-5,-5,-2
1532494793294,-1,0,-2,-1,-1,-4,-1,2
1532494793299,0,-2,2,-1,12,-2,-5,-1
1532494793304,0,-1,1,4,22,-18,4,-2
1532494793309,0,0,-4,1,-39,22,2,1
1532494793314,1,0,6,4,7,20,6,0
1532494793319,-2,-2,-4,-6,6,9,-2,1
1532494793324,0,-2,-1,0,11,12,-3,-3
1532494793329,-1,-1,0,6,28,-30,7,0
1532494793334,-1,-3,-4,-14,-45,19,-10,-1
1532494793339,0,3,-1,5,-5,-36,2,1
1532494793344,-1,1,0,-2,-10,2,-6,-1
1532494793349,-2,-2,-2,-5,0,-6,-2,-2
1532494793354,-2,-2,-1,5,10,-2,5,-1
1532494793359,2,3,2,5,9,9,0,-3
1532494793364,-2,-4,-5,-10,-6,10,-6,-2
1532494793369,-3,-1,-8,-10,-13,-11,4,-1
1532494793374,-1,-1,0,-3,5,8,-2,-2
1532494793379,-2,-1,-1,-1,-1,-19,-5,-1
1532494793384,0,-1,-1,2,-5,11,11,1
1532494793389,-1,0,2,2,5,4,-5,-3
1532494793394,1,0,0,-1,11,18,3,-1
1532494793399,-2,-1,2,0,8,-10,-9,-2
1532494793404,0,2,1,3,-9,-34,2,0
1532494793409,-1,1,-3,-2,-15,-14,-7,-1
1532494793414,0,-1,1,2,6,-1,3,-1
1532494793419,0,-4,-1,2,-7,-6,-6,-1
1532494793424,0,1,-1,5,4,31,6,3
1532494793429,1,0,-2,-7,0,-3,4,0
1532494793434,-3,-3,-4,-10,-7,-13,-7,-3
1532494793439,-1,-4,-3,-9,-22,3,9,1
1532494793444,0,-2,0,0,-6,1,-12,-1
1532494793449,0,3,7,8,13,-10,-3,-1
1532494793454,0,3,-1,0,-12,-6,0,-1
1532494793459,-1,-3,-1,0,5,13,3,-3
1532494793464,0,0,-1,-3,13,-4,3,0
1532494793469,-2,-4,0,-2,-12,5,-7,0
1532494793474,-1,0,-5,-3,0,-35,-6,-1
1532494793479,-1,-1,-3,0,0,-3,1,0
1532494793484,-1,1,3,4,11,19,4,-1
1532494793489,0,-2,-3,-3,-4,4,-9,-1
1532494793494,-2,-3,-1,2,9,11,8,-2
1532494793499,-1,-1,-2,1,5,6,3,1
1532494793504,-2,-3,-2,-2,-9,1,2,-1
1532494793509,1,0,-2,-2,-8,-1,-13,-3
1532494793514,1,-2,-3,5,11,0,1,-4
1532494793519,1,0,-2,-2,-10,-23,-7,6
1532494793524,-3,-1,-1,-1,7,13,11,-1
1532494793529,-3,-3,-8,-8,-9,-8,0,-4
1532494793534,1,-1,2,-1,6,7,3,-3
1532494793539,1,0,0,0,0,-14,-14,1
1532494793544,3,1,1,3,6,17,16,-1
1532494793549,-1,2,6,-2,-19,-17,6,2
1532494793554,-1,0,-5,1,2,23,-4,-2
1532494793559,-2,0,1,1,15,-3,-15,-6
1532494793564,-2,-1,-9,-4,-33,-40,-10,0
1532494793569,2,1,2,-1,3,10,4,0
1532494793574,0,-3,3,2,-7,-26,-3,2
1532494793579,-1,0,2,5,11,19,5,-2
1532494793584,-2,-2,-11,-9,-4,4,-7,-3
1532494793589,0,0,3,-2,-1,-8,9,0
1532494793594,-2,-1,-3,-2,0,2,-2,1
1532494793599,0,-2,-3,-4,-2,12,8,-1
1532494793604,-2,0,5,6,4,1,-2,-5
1532494793609,0,0,-2,7,8,16,1,0
1532494793614,0,0,2,0,-8,-22,-8,2
1532494793619,0,0,2,2,9,14,11,-1
1532494793624,0,0,8,-1,-6,0,-6,1
1532494793629,-4,-4,-6,-1,14,2,-4,-2
1532494793634,-2,-2,-2,-2,-14,-6,0,0
1532494793639,-1,0,-2,-6,-25,-8,-1,0
1532494793644,1,-2,0,-3,-2,-9,-3,-1
1532494793649,-5,-2,7,5,14,-11,-4,0
1532494793654,-2,-3,-10,-2,26,0,-16,-3
1532494793659,-3,-2,-3,0,-9,-18,-5,-5
1532494793664,0,-2,-2,-9,-32,-8,-4,0
1532494793669,-2,-1,3,6,18,15,-20,-4
1532494793674,-1,-1,-2,-3,-8,-6,16,5
1532494793679,0,0,4,-5,13,11,10,-1
1532494793684,-4,-3,-7,-9,-11,-22,-34,-8
1532494793689,4,0,-4,-3,-5,2,10,3
1532494793694,-4,-2,2,0,0,3,-7,-5
1532494793699,0,-3,5,3,-1,12,6,2
1532494793704,3,2,-8,6,18,6,12,2
1532494793709,1,0,-1,-7,-8,-9,-6,1
1532494793714,-1,1,-1,-4,-6,9,7,-3
1532494793719,-3,-2,-3,-1,-5,0,1,-1
1532494793724,-3,-2,11,7,26,-3,-4,-5
1532494793729,-2,-1,-3,1,-11,-20,2,1
1532494793734,0,2,3,-4,1,21,15,2
1532494793739,0,1,0,-2,-4,0,2,-1
1532494793744,-1,-1,1,-7,-8,11,2,2
1532494793749,-3,-3,1,-3,-6,-4,3,-5
1532494793754,0,2,1,1,-4,-11,-3,0
1532494793759,-2,-5,-10,-4,-1,0,1,-2
1532494793764,-2,-5,-5,1,5,5,-2,0
1532494793769,2,1,4,7,1,22,0,0
1532494793774,3,1,-2,-5,-23,-34,-5,1
1532494793779,-1,-2,-4,3,4,-6,1,-1
1532494793784,0,-2,-1,-2,-4,21,5,0
1532494793789,0,0,0,-4,-9,8,1,2
1532494793794,-2,-3,4,2,7,-14,-4,-2
1532494793799,0,-1,2,-3,4,4,3,-2
1532494793804,-1,-7,-9,-2,-16,-9,-2,1
1532494793809,-1,-3,2,0,-16,-8,-10,-2
1532494793814,3,1,-1,2,17,1,-2,2
1532494793819,-3,-4,-4,-2,9,24,10,-3
1532494793824,-3,-2,0,0,-21,-24,-2,-1
1532494793829,-1,4,5,-1,-19,-21,0,4
1532494793834,-2,-1,-3,-1,6,-5,-12,-3
1532494793839,0,0,3,1,11,35,8,-2
1532494793844,3,4,7,2,3,-9,-11,2
1532494793849,-1,-1,-5,-2,4,-3,2,-2
1532494793854,-4,-5,-4,-4,-22,2,-2,-6
1532494793859,-1,-1,0,1,-8,-14,0,-2
1532494793864,0,-1,10,3,12,5,-2,0
1532494793869,0,-1,-15,-4,-7,11,4,1
1532494793874,-1,1,8,1,6,-5,-4,-1
1532494793879,-1,-1,-6,-6,-10,-2,-2,-3
1532494793884,-2,-1,0,0,0,-7,2,-4
1532494793889,3,-2,5,5,10,12,-1,5
1532494793894,1,1,1,-1,-12,-11,4,2
1532494793899,-3,-4,-4,-3,-31,-7,-5,-1
1532494793904,0,4,0,-4,-1,-24,-3,4
1532494793909,0,-1,-6,-7,-14,-2,4,-3
1532494793914,-1,-2,-2,0,15,0,-2,-2
1532494793919,-3,-3,-1,-3,7,16,-9,-6
1532494793924,-1,0,1,2,4,4,3,-2
1532494793929,1,1,0,-3,1,4,5,-1
1532494793934,-3,-5,-4,0,0,-19,-8,-6
1532494793939,1,2,0,-2,14,7,-2,4
1532494793944,-2,0,2,-1,2,24,9,0
1532494793949,2,1,4,1,-7,-47,-15,-3
1532494793954,0,3,1,-2,12,30,9,0
1532494793959,-3,-7,-4,-2,-6,11,-7,-2
1532494793964,1,-2,0,3,12,-17,-2,0
1532494793969,-4,-3,1,-4,-9,15,5,1
1532494793974,0,1,-5,-1,-14,0,4,0
1532494793979,0,4,10,2,2,1,-7,-5
1532494793984,1,-3,-4,-2,0,-6,9,4
1532494793989,-2,2,-1,-2,0,-1,-2,-6
1532494793994,-5,-1,-4,-4,9,26,-1,-6
1532494793999,2,-1,-1,-2,0,-46,-4,2
1532494794004,-2,-2,-1,-2,-10,0,-11,-7
1532494794009,3,-2,-4,-2,1,-6,2,2
1532494794014,1,2,-2,-3,4,-1,8,9
1532494794019,-2,2,0,4,1,-14,3,1
1532494794024,-4,-5,-11,-7,2,12,8,-4
1532494794029,-2,-2,0,2,7,-1,-15,-1
1532494794034,-2,-2,2,-1,-10,-7,-16,-5
1532494794039,2,3,-3,-2,-1,6,19,2
1532494794044,0,-1,-8,-2,-1,1,-3,0
1532494794049,-3,-5,-2,-1,4,9,2,-1
1532494794054,-1,-2,-5,-3,-13,10,5,-2
1532494794059,-1,-1,-2,0,10,-2,-13,-6
1532494794064,-1,0,1,-1,-17,-27,-1,2
1532494794069,-5,-5,-3,-6,-5,6,-2,-6
1532494794074,1,3,0,-2,0,-11,-5,4
1532494794079,-3,-4,-3,0,-3,2,-1,-12
1532494794084,1,-1,1,3,14,21,-6,13
1532494794089,-2,-1,-1,0,-15,-28,-6,-14
1532494794094,-2,0,0,-2,9,8,8,3
1532494794099,1,1,0,2,4,5,4,0
1532494794104,4,5,5,0,5,1,-4,1
1532494794109,-3,-5,-3,1,-4,3,14,-4
1532494794114,-4,-4,-1,-1,1,-6,2,-4
1532494794119,-1,-4,-7,2,-4,8,0,-2
1532494794124,-4,-1,-8,0,-5,0,-10,-4
1532494794129,0,0,-2,-2,3,20,-4,6
1532494794134,-1,-2,-1,-2,-1,-20,-12,-10
1532494794139,0,1,1,1,5,-9,7,8
1532494794144,-3,-4,1,-1,-11,19,2,-9
1532494794149,-1,0,-1,-2,-3,-2,-7,-3
1532494794154,0,1,-2,-6,-7,-36,0,-7
1532494794159,1,-1,-1,-5,-7,12,-2,4
1532494794164,2,2,2,0,13,20,4,5
1532494794169,-2,-3,-2,2,13,5,-23,-1
1532494794174,3,-1,1,-4,-25,3,22,9
1532494794179,-6,0,-3,-3,-3,-21,6,-7
1532494794184,-5,-5,-2,1,4,0,9,-8
1532494794189,4,3,7,5,-3,-14,2,4
1532494794194,0,0,6,6,11,19,-18,0
1532494794199,1,-1,-2,-3,-4,-1,-15,7
1532494794204,-2,-3,-3,-1,5,-5,-14,-7
1532494794209,4,1,1,2,5,-9,-3,15
1532494794214,-1,-1,-2,-4,4,17,28,-2
1532494794219,0,-1,0,0,-3,-17,8,-2
1532494794224,-3,-1,-2,-8,-9,0,2,-6
1532494794229,0,2,2,0,0,-2,-5,0
1532494794234,-3,-4,-3,5,6,8,-3,-1
1532494794239,1,-2,-1,0,-3,1,-3,4
1532494794244,-1,-3,1,-4,-3,-15,-6,-2
1532494794249,-1,0,-4,-8,-16,5,15,1
1532494794254,0,0,-3,5,13,8,-24,-9
1532494794259,0,-1,2,2,1,0,-8,3
1532494794264,-1,0,-1,2,0,-11,0,-1
1532494794269,-3,-2,-2,-2,3,6,-7,-8
1532494794274,-2,-1,-3,1,-5,-11,-12,2
1532494794279,1,-1,2,4,9,-8,21,-4
1532494794284,0,0,-5,-4,-5,7,-9,-2
1532494794289,0,-1,0,0,-1,-5,1,4
1532494794294,1,3,-1,-2,-1,-9,-4,2
1532494794299,-3,-5,-6,-7,-8,-2,-18,-3
1532494794304,4,6,2,-1,-2,7,10,6
1532494794309,-6,-6,-8,-5,-11,-1,16,-6
1532494794314,2,-1,2,-3,5,-1,1,-2
1532494794319,5,9,3,-2,-1,3,-27,3
1532494794324,-3,-7,-3,2,8,10,47,5
1532494794329,2,-1,-1,1,-7,3,-2,2
1532494794334,-2,-3,-3,2,5,26,27,3
1532494794339,-1,-1,0,-3,-12,6,-4,-6
1532494794344,3,4,6,8,8,-50,-36,0
1532494794349,3,2,1,3,7,9,15,8
1532494794354,-2,-3,-2,-3,-2,14,4,0
1532494794359,0,1,3,1,-4,8,2,1
1532494794364,-2,0,-1,5,2,-22,-5,-1
1532494794369,-2,-2,-5,-7,8,-13,6,-6
1532494794374,-2,-1,-2,-7,-7,-11,-24,-5
1532494794379,-1,-3,0,0,13,2,-5,0
1532494794384,2,-1,4,4,0,22,7,7
1532494794389,-4,-2,-1,3,-1,-8,-8,-8
1532494794394,0,-1,-5,-5,-5,-6,10,6
1532494794399,-3,-1,-4,-5,1,2,-3,-1
1532494794404,0,1,1,-1,-1,10,12,3
1532494794409,2,3,2,2,1,5,-7,-1
1532494794414,-2,1,1,5,3,1,-8,-2
1532494794419,-3,-2,-1,0,-1,-7,8,1
1532494794424,-1,-2,-2,-7,3,4,-5,-5
1532494794429,-1,-1,-5,-5,-19,0,-11,-2
1532494794434,-2,0,2,1,2,-5,3,-5
1532494794439,1,-1,-2,3,2,7,-3,0
1532494794444,-1,0,0,-4,-10,1,-1,0
1532494794449,-2,-1,0,-3,4,-2,-8,-2
1532494794454,0,-4,-1,-1,-2,-15,8,-5
1532494794459,-1,2,-1,4,8,15,7,0
1532494794464,-1,-2,-5,-5,-11,2,-6,-5
1532494794469,0,-2,-2,-6,-1,-8,0,3
1532494794474,-1,1,1,3,4,5,-1,-6
1532494794479,-2,-1,0,1,-1,-11,5,0
1532494794484,-3,1,-1,2,0,6,3,-1
1532494794489,-1,-1,0,2,4,8,6,-3
1532494794494,0,-1,-2,-1,-3,-10,-6,-1
1532494794499,-2,0,0,-2,-7,-5,10,-4
1532494794504,1,-1,-3,1,2,11,3,8
1532494794509,-2,-1,1,2,5,-1,-6,-4
1532494794514,1,1,-2,-6,-5,-6,-2,4
1532494794519,0,-2,0,-3,-6,-3,-5,-2
1532494794524,-1,-1,-1,-1,-2,0,0,-6
1532494794529,-2,-1,2,2,4,1,-5,2
1532494794534,0,1,4,4,5,2,-6,1
1532494794539,0,-2,-2,-1,-3,-10,1,-2
1532494794544,-4,-5,-7,-12,-11,-12,-1,-4
1532494794549,2,-1,-1,-2,-3,11,0,3
1532494794554,-1,-1,-2,-2,-2,0,2,-1
1532494794559,-4,-4,2,3,2,-5,-7,-11
1532494794564,0,0,3,4,2,8,1,2
1532494794569,0,-1,-3,-4,2,-7,-3,-4
1532494794574,-1,0,3,-3,-6,1,1,0
1532494794579,-1,-1,-3,-6,-3,-4,-4,-3
1532494794584,0,3,2,5,7,9,2,-1
1532494794589,-1,0,3,6,6,4,2,0
1532494794594,0,-1,-2,1,-3,-11,-7,0
1532494794599,0,-2,-4,-11,-7,-7,-1,1
1532494794604,-1,-3,-2,-2,-6,1,-4,-2
1532494794609,-1,-1,2,2,1,-1,0,0
1532494794614,1,1,2,1,7,9,4,2
1532494794619,-3,-3,-4,-4,-7,-12,-3,-2
1532494794624,1,0,4,-2,-7,3,1,-2
1532494794629,-2,-1,-8,1,0,9,-2,-3
1532494794634,-2,-1,-4,-1,-3,-17,-4,-3
1532494794639,0,0,-3,-2,0,2,-3,-5
1532494794644,1,0,1,1,1,-3,7,5
1532494794649,0,0,5,4,-2,-5,-1,-1
1532494794654,0,-2,-1,0,2,6,0,-1
1532494794659,-1,0,-2,-4,-8,-4,-1,0
1532494794664,-2,-2,-5,-1,0,-4,-6,-3
1532494794669,-1,4,-1,-3,-1,-7,-1,-2
1532494794674,-1,-7,5,5,4,5,-2,3
1532494794679,0,-3,-2,-1,3,1,-8,0
1532494794684,-1,-3,3,-5,-4,-2,0,-1
1532494794689,-3,3,-4,-5,-3,-6,-1,-3
1532494794694,-3,-3,-1,2,-1,1,2,-10
1532494794699,1,2,5,7,9,8,9,10
1532494794704,1,0,-3,0,0,-5,-1,0
1532494794709,-2,-3,0,-4,-5,0,6,6
1532494794714,-3,-1,-3,-7,-9,-2,2,-3
1532494794719,1,-1,-1,2,4,8,3,0
1532494794724,-4,2,0,1,3,-11,-15,-3
1532494794729,0,-4,-1,0,-1,2,3,-5
1532494794734,0,0,0,-2,-5,6,13,0
1532494794739,-2,0,-3,-5,-5,-6,-3,-2
1532494794744,-1,1,-2,-5,2,3,4,1
1532494794749,-4,-1,2,-1,-2,-5,-11,-8
1532494794754,2,-1,-10,-2,-4,-5,-11,0
1532494794759,-1,-1,1,2,0,5,13,0
1532494794764,-2,-1,0,1,0,0,-10,-6
1532494794769,1,-4,0,-1,2,-2,2,-1
1532494794774,0,1,1,-3,-1,6,7,4
1532494794779,2,0,-2,3,4,-1,-1,6
1532494794784,-1,-1,1,1,4,-2,5,0
1532494794789,0,-3,-8,-2,-9,-8,-2,0
1532494794794,0,2,6,7,3,0,-4,-2
1532494794799,-1,-1,6,-3,-4,-2,0,-5
1532494794804,-1,-2,-12,-5,-2,2,1,6
1532494794809,0,-3,3,-4,-3,2,-9,-5
1532494794814,-1,-3,0,1,-1,1,0,1
1532494794819,-1,1,3,3,3,-2,-9,1
1532494794824,1,3,-1,-2,-3,-4,-6,-4
1532494794829,-1,-5,-5,-3,-1,-1,2,-2
1532494794834,1,-3,-1,4,5,8,11,4
1532494794839,-1,-3,0,0,-1,-2,5,2
1532494794844,-1,-3,-2,-3,-5,-7,-3,-2
1532494794849,1,4,-1,1,0,-6,-10,-4
1532494794854,-4,-2,-1,-3,-4,-9,-7,-1
1532494794859,-8,0,1,3,0,-1,6,-6
1532494794864,6,-2,-8,-10,-6,3,3,-5
1532494794869,-1,1,1,-3,-2,2,1,3
1532494794874,1,2,1,2,3,-3,-3,-2
1532494794879,2,1,-3,0,2,6,-8,-3
1532494794884,-5,-1,2,-1,-1,6,0,-1
1532494794889,0,1,0,0,2,-4,0,2
1532494794894,0,0,-4,-6,-3,-7,-1,2
1532494794899,0,-1,-1,0,-1,4,2,1
1532494794904,-3,-2,3,7,7,5,5,-1
1532494794909,0,-3,-6,-9,-9,-8,-4,4
1532494794914,-1,1,-2,-4,-1,9,-6,0
1532494794919,2,-1,0,-1,0,-3,1,-3
1532494794924,0,2,2,4,4,-1,6,-4
1532494794929,-1,-3,0,4,2,-4,-9,2
1532494794934,-3,-3,-7,-8,-13,-13,7,-6
1532494794939,0,-2,-2,-2,0,4,-12,8
1532494794944,2,0,2,2,1,3,-4,0
1532494794949,-5,1,4,3,2,-2,1,-5
1532494794954,0,0,-1,2,7,3,-5,-2
1532494794959,0,-2,-4,-6,-8,-6,-2,-2
1532494794964,-2,-1,-1,1,-1,-4,3,-1
1532494794969,-1,0,-1,-3,0,-2,3,-3
1532494794974,0,0,0,-3,-7,7,-2,-1
1532494794979,1,2,1,2,2,-5,17,4
1532494794984,-3,-2,-2,1,1,0,-5,1
1532494794989,3,-2,-2,-4,-7,-6,0,-3
1532494794994,-1,2,5,8,7,-3,-6,-2
1532494794999,1,-1,-4,-3,-2,7,-1,9
1532494795004,0,-1,1,-3,-3,0,7,2
1532494795009,-2,-1,0,2,6,7,-14,0
1532494795014,-1,4,1,-3,-2,1,28,-1
1532494795019,-15,-11,-2,-2,-2,-4,-7,-7
1532494795024,16,0,1,0,-4,-2,2,-3
1532494795029,0,-1,0,3,4,3,-6,2
1532494795034,6,1,-1,-1,3,4,9,0
1532494795039,-11,-3,-2,5,0,-6,-8,-6
1532494795044,-3,0,0,-3,-2,-3,-5,-1
1532494795049,2,-3,-1,-7,-6,8,18,-10
1532494795054,-4,-1,-1,-1,-1,-1,-8,-6
1532494795059,-3,1,-2,0,2,3,-9,-8
1532494795064,-1,-3,0,2,0,-9,-16,0
1532494795069,-1,1,-5,-2,1,-1,7,5
1532494795074,-1,-4,-3,-2,-1,-3,-3,5
1532494795079,-3,1,0,-4,0,0,-3,0
1532494795084,6,1,1,3,-1,3,-2,1
1532494795089,1,1,5,9,4,-2,2,10
1532494795094,-3,-5,-5,-4,-1,-9,-8,-1
1532494795099,2,0,-2,-5,-7,0,-3,-4
1532494795104,-9,-2,-2,-7,-4,0,0,-3
1532494795109,-3,-2,-5,-12,-5,-2,13,1
1532494795114,0,0,4,8,1,-4,-8,-4
1532494795119,6,1,2,5,0,-1,-20,5
1532494795124,-6,0,-2,-3,-4,-1,27,-1
1532494795129,-1,1,1,4,0,-3,-7,-3
1532494795134,2,2,-1,-5,-3,-3,-7,-5
1532494795139,-7,-2,-1,0,0,-9,12,-11
1532494795144,0,-3,-4,1,2,4,-20,3
1532494795149,0,-2,-1,-5,-10,-6,-1,0
1532494795154,-6,0,0,-1,0,7,11,6
1532494795159,6,2,1,-1,-1,-8,-10,-3
1532494795164,-5,-6,1,4,2,-3,8,-8
1532494795169,-4,-1,4,7,9,3,0,0
1532494795174,-9,-4,-3,-6,-5,-4,-3,1
1532494795179,0,3,-3,-7,-4,-2,2,1
1532494795184,2,1,1,2,2,3,5,9
1532494795189,-1,0,2,6,6,8,2,0
1532494795194,6,1,4,3,2,4,-4,6
1532494795199,-2,-1,-2,4,5,1,8,5
1532494795204,-7,-4,-2,-8,-6,-8,-12,0
1532494795209,-1,0,-3,-10,-11,-4,-1,-7
1532494795214,-1,-2,-5,-3,-5,-3,1,3
1532494795219,2,0,5,4,1,5,-10,-4
1532494795224,1,2,4,7,11,7,9,-1
1532494795229,15,1,-8,-7,-3,-6,-7,-2
1532494795234,-6,-3,0,-5,-5,-6,-11,-6
1532494795239,-3,-1,-1,-3,-2,3,12,-5
1532494795244,-4,-4,2,5,4,-3,1,-1
1532494795249,-5,2,3,3,5,-4,-5,-2
1532494795254,5,6,-4,-2,0,4,1,-1
1532494795259,-4,-8,-6,-5,-7,1,4,3
1532494795264,7,-1,0,-4,-4,-2,-1,-1
1532494795269,-6,-5,-1,0,-4,-6,-5,-5
1532494795274,15,3,4,7,3,0,-13,1
1532494795279,-1,-2,-3,-3,2,3,14,3
1532494795284,-7,1,-7,-9,-16,-6,-16,-4
1532494795289,-3,-4,-1,-2,1,-3,10,-2
1532494795294,-3,0,-1,-4,-2,4,-9,-2
1532494795299,3,0,2,0,1,-3,23,1
1532494795304,-1,-1,2,5,-1,-5,-9,-7
1532494795309,1,1,-3,1,9,-4,3,5
1532494795314,-6,-5,-6,-14,-14,-5,-4,-4
1532494795319,4,0,0,-2,-4,-10,-22,-3
1532494795324,0,1,-2,-2,-3,-1,10,-1
1532494795329,-3,-2,1,7,4,6,1,-3
1532494795334,-2,-1,4,10,8,-10,12,-12
1532494795339,3,-1,-1,-3,-6,5,-7,0
1532494795344,-3,0,-6,-10,-6,-1,1,-1
1532494795349,-1,0,2,-2,0,7,7,4
1532494795354,-1,-2,-1,-2,0,1,5,0
1532494795359,2,1,3,2,2,-11,3,0
1532494795364,2,1,2,5,3,8,-2,6
1532494795369,-1,1,-2,-3,2,-2,-14,-3
1532494795374,-3,-5,-3,-6,-8,-4,-6,-3
1532494795379,2,4,1,2,2,12,11,-4
1532494795384,-1,-2,0,3,2,7,4,3
1532494795389,-3,-4,-5,-6,-9,-1,0,-1
1532494795394,-2,0,-2,-3,1,-3,-19,0
1532494795399,0,-2,-1,1,1,-8,-18,-3
1532494795404,-2,0,-1,2,6,-2,16,2
1532494795409,0,-2,-1,1,-9,4,-8,0
1532494795414,-4,-3,-2,-2,1,1,8,0
1532494795419,-1,-2,-4,-4,2,4,-10,0
1532494795424,0,-2,0,-1,0,8,21,0
1532494795429,-1,1,-2,-1,3,-6,0,1
1532494795434,-3,1,-1,0,1,-1,0,-2
1532494795439,0,-1,0,0,-1,5,6,-2
1532494795444,2,2,7,12,7,4,-8,-6
1532494795449,-2,-6,-12,-13,-2,-4,-3,4
1532494795454,0,-1,-2,-6,-8,5,7,2
1532494795459,-5,-6,-7,-4,-4,-8,-1,-1
1532494795464,8,5,-1,-4,-4,-1,-5,-3
1532494795469,2,7,6,8,1,2,7,-3
1532494795474,-9,-11,-3,4,8,3,-6,-1
1532494795479,0,1,1,-2,-2,-4,0,-3
1532494795484,-4,-3,2,-6,-4,-7,3,-3
1532494795489,2,2,-7,3,2,-6,-1,-4
1532494795494,8,3,2,-2,1,5,7,4
1532494795499,-12,-6,3,4,-2,3,-3,0
1532494795504,-6,24,-19,-6,-4,-4,-1,1
1532494795509,-1,-24,25,-2,-2,-1,-2,-2
1532494795514,-8,-1,1,7,1,-1,-2,1
1532494795519,-2,-5,2,0,-3,-5,3,-2
1532494795524,-2,-8,-8,-8,-6,-5,-9,-1
1532494795529,-6,6,0,-5,-6,1,-7,-2
1532494795534,6,2,1,-1,-3,4,21,2
1532494795539,6,3,3,3,3,4,-1,4
1532494795544,-5,-4,1,1,9,-1,-8,0
1532494795549,-3,2,-3,2,-5,-6,-9,-2
1532494795554,4,-3,1,1,-2,5,16,1
1532494795559,1,4,-4,-2,-3,-2,-7,-4
1532494795564,-2,-8,1,-2,1,-1,-2,-2
1532494795569,-1,-1,-5,1,-4,0,2,2
1532494795574,1,3,-3,0,1,-4,-7,-1
1532494795579,0,1,-1,-1,-1,-1,1,3
1532494795584,-2,-4,2,2,1,2,-5,-2
1532494795589,1,0,-1,-1,2,4,7,-1
1532494795594,-3,1,-3,-3,-4,-4,-13,-2
1532494795599,1,-2,-3,-7,-5,-2,6,-1
1532494795604,1,-7,2,-4,-3,-7,1,-1
1532494795609,0,2,-1,3,2,9,8,4
1532494795614,0,0,-1,1,3,-5,-9,1
1532494795619,1,-1,-2,-1,2,-2,-3,2
1532494795624,1,-3,-1,-3,-6,-7,-10,0
1532494795629,-2,0,0,4,-1,-2,11,4
1532494795634,1,-1,-1,-3,-2,-3,-6,10
1532494795639,-6,-1,-2,-5,-6,-6,-1,1
1532494795644,0,-1,1,0,3,5,3,-1
1532494795649,-1,-1,-4,-1,-3,-7,-1,-5
1532494795654,0,-1,0,2,4,4,5,-1
1532494795659,3,2,0,1,2,-4,-6,0
1532494795664,-3,-4,0,0,-2,0,-3,3
1532494795669,4,-1,-1,-4,1,2,-4,-3
1532494795674,-2,-2,-2,-4,-3,-3,-5,-8
1532494795679,-1,0,-2,0,-2,3,2,-8
1532494795684,-1,1,-1,0,-1,2,2,-12
1532494795689,0,-1,9,-1,1,2,-3,-5
1532494795694,0,0,-13,1,1,-5,-1,-7
1532494795699,0,0,6,1,-4,-5,-1,-4
1532494795704,-1,-3,-2,-1,0,1,-3,1
1532494795709,-3,1,-2,-2,-3,-2,2,2
1532494795714,0,1,2,-5,1,1,-3,1
1532494795719,1,1,2,2,-3,0,1,2
1532494795724,0,0,-2,0,2,-2,-1,7
1532494795729,-1,-1,0,-2,-4,0,-10,0
1532494795734,-1,-3,2,-1,-3,4,10,-1
1532494795739,0,-3,-6,0,1,-4,-7,0
1532494795744,0,0,5,2,0,-1,8,-1
1532494795749,-1,1,-2,0,1,-2,-2,2
1532494795754,-2,-1,2,2,0,0,3,-1
1532494795759,2,-1,-4,-2,-3,6,5,-3
1532494795764,0,-1,-1,-2,-1,-4,-3,-6
1532494795769,-1,0,-2,-3,-3,1,1,-8
1532494795774,-1,-1,-5,3,1,-1,0,-3
1532494795779,-1,1,3,1,2,3,2,-1
1532494795784,-2,0,-3,-2,-6,-2,-5,-5
1532494795789,0,-1,-7,1,3,0,2,-3
1532494795794,-1,2,14,3,4,1,-4,0
1532494795799,2,-3,-6,-4,-4,-2,0,3
1532494795804,-2,-2,-4,-5,-2,-2,1,4
1532494795809,-2,-2,-3,-5,-6,-7,-5,5
1532494795814,1,0,0,0,0,1,-3,7
1532494795819,1,-1,-2,3,7,5,-1,4
1532494795824,0,-2,1,0,-3,4,-3,-2
1532494795829,-1,-1,-2,-3,-1,-5,3,-7
1532494795834,-1,-1,-3,3,0,-5,-1,-9
1532494795839,-2,1,3,-1,-1,-3,-9,-6
1532494795844,0,-3,-2,-1,-4,0,6,0
1532494795849,0,-2,-4,-5,-1,1,1,0
1532494795854,0,-3,-5,-4,-3,-1,-3,-2
1532494795859,1,-2,5,0,0,0,7,-2
1532494795864,-1,0,-12,0,-2,1,1,-5
1532494795869,-1,0,0,7,8,2,4,-2
1532494795874,0,-1,4,-7,-4,-2,1,6
1532494795879,0,0,-2,-6,-4,-4,-3,5
1532494795884,-2,0,6,-1,-3,1,-7,2
1532494795889,0,-1,-5,4,1,3,5,1
1532494795894,-2,-2,-1,0,-3,1,3,0
1532494795899,0,-2,0,1,0,-11,-5,-1
1532494795904,1,0,1,3,2,14,6,2
1532494795909,-1,1,0,1,2,0,-7,-3
1532494795914,-2,-2,-2,-3,1,-3,-4,-7
1532494795919,-2,-2,-7,-5,-5,-2,6,-8
1532494795924,1,-1,-1,-3,-3,1,-4,-4
1532494795929,0,0,-2,2,-2,1,1,-3
1532494795934,1,0,5,4,5,-3,-3,-3
1532494795939,-1,-1,-8,0,-3,0,3,-2
1532494795944,-1,-1,9,0,6,-6,-3,-3
1532494795949,0,-2,-5,-10,-9,2,-2,2
1532494795954,-3,-2,-6,-5,-7,1,1,-1
1532494795959,0,0,5,5,4,1,-2,1
1532494795964,-2,-1,-2,0,-1,-8,5,2
1532494795969,-1,-2,0,-2,4,9,-3,2
1532494795974,-2,1,1,4,1,-13,0,1
1532494795979,-1,-2,-1,-1,2,3,3,1
1532494795984,-1,0,1,0,0,-2,1,-1
1532494795989,-1,-1,-6,0,-2,-3,-2,-1
1532494795994,0,1,-1,0,-1,5,-2,-2
1532494795999,1,2,1,0,4,3,-2,-1
1532494796004,0,0,9,0,-3,-7,-8,-2
1532494796009,-1,-1,-6,-4,1,-8,1,-3
1532494796014,-1,-1,0,3,-2,1,-3,1
1532494796019,-1,0,-4,-7,-8,1,2,0
1532494796024,1,-1,-1,-5,-1,8,1,0
1532494796029,-1,1,1,3,1,-17,-12,-1
1532494796034,0,1,0,3,3,7,2,0
1532494796039,-2,1,-1,2,1,-2,0,-2
1532494796044,-2,-1,-5,-2,-7,-9,-1,0
1532494796049,0,-1,4,6,5,5,3,0
1532494796054,-1,-2,-7,-10,-6,-9,0,0
1532494796059,0,-2,0,-4,-5,11,0,0
1532494796064,0,-2,-3,-3,1,2,1,1
1532494796069,0,1,3,2,1,6,4,2
1532494796074,0,-1,4,6,-1,-6,3,0
1532494796079,-1,0,-4,0,0,-2,-3,-1
1532494796084,-1,-1,-4,-2,1,-6,-3,-3
1532494796089,-1,-1,3,-4,-6,-3,0,0
1532494796094,0,-1,-3,-5,-2,4,4,-1
1532494796099,-1,0,1,-2,-4,-6,-2,-1
1532494796104,1,-1,3,3,2,-3,-3,-1
1532494796109,-1,-1,-9,-1,1,7,-1,-1
1532494796114,-1,-3,2,1,-1,-2,-10,-3
1532494796119,0,0,0,1,1,3,9,0
1532494796124,-2,-1,-1,1,0,-4,1,2
1532494796129,-1,1,2,-3,-4,-1,1,-1
1532494796134,-1,-1,-4,-3,-2,-1,1,-1
1532494796139,-1,-3,-2,1,0,1,-8,1
1532494796144,0,-2,-5,1,1,-1,-2,0
1532494796149,0,-2,1,-5,-2,-3,3,-2
1532494796154,-1,-1,-6,0,-4,1,-6,0
1532494796159,0,-1,2,2,3,4,1,-1
1532494796164,-1,2,-4,-5,-6,-3,-1,1
1532494796169,-2,-1,2,-4,-5,-3,0,0
1532494796174,-3,-1,0,-4,-4,11,-1,-2
1532494796179,-1,-2,-6,-1,0,-7,-5,-1
1532494796184,-1,0,0,1,3,-9,1,-3
1532494796189,-2,0,-1,2,-3,-5,1,-2
1532494796194,0,-1,1,0,3,4,-4,1
1532494796199,-2,0,1,2,-4,2,2,-2
1532494796204,2,-2,8,-2,0,9,-2,0
1532494796209,0,-2,-16,-2,-1,-7,-3,0
1532494796214,0,1,0,-4,-2,-3,-1,-1
1532494796219,0,-3,2,2,1,-3,-4,0
1532494796224,0,1,-1,3,2,-3,6,0
1532494796229,-1,-2,4,-3,-4,11,1,-1
1532494796234,1,-5,-4,-1,0,-8,-2,1
1532494796239,-2,0,-4,-6,-7,-26,-6,-2
1532494796244,2,2,4,2,4,22,7,0
1532494796249,-1,-3,-1,-2,2,0,2,0
1532494796254,0,1,0,0,-2,5,0,-1
1532494796259,-1,-1,0,-3,-2,-9,-3,0
1532494796264,-1,-3,-10,-1,-8,-5,-1,0
1532494796269,0,1,7,6,1,3,-2,-1
1532494796274,1,-2,-4,3,7,-6,4,-1
1532494796279,0,-2,2,-3,-3,4,-1,-1
1532494796284,-1,-1,-5,-1,-2,-6,-4,-1
1532494796289,-1,-1,3,-3,-3,11,0,-1
1532494796294,-1,2,3,3,-3,-13,-4,-3
1532494796299,1,-2,-4,-3,0,6,3,0
1532494796304,-2,-1,2,0,2,-11,-8,-1
1532494796309,2,0,2,1,0,10,10,0
1532494796314,-1,-2,-4,-8,-3,-2,-2,0
1532494796319,-1,2,2,2,1,7,1,-1
1532494796324,0,0,-3,-2,-7,6,-1,0
1532494796329,-1,-1,-4,1,4,-27,-8,0
1532494796334,-1,2,1,0,-6,-2,6,1
1532494796339,-2,0,0,1,8,3,2,0
1532494796344,-3,-2,-4,-1,-5,15,1,-1
1532494796349,-1,-2,2,2,-6,-18,-20,-3
1532494796354,0,-1,-2,-2,2,1,4,-1
1532494796359,0,-1,-1,-5,-5,-3,-3,-1
1532494796364,0,-2,1,0,6,18,5,-2
1532494796369,-2,-2,-1,1,4,-12,-4,-3
1532494796374,-2,-2,-1,-4,-7,-17,-5,1
1532494796379,-1,-1,0,0,-2,0,-1,-1
1532494796384,1,0,-1,6,6,0,-2,0
1532494796389,0,-1,0,-6,-4,13,4,0
1532494796394,-3,-1,-1,1,7,-3,-1,-2
1532494796399,1,0,-2,-3,-5,-2,2,0
1532494796404,-2,-2,-1,-2,-2,5,-2,-2
1532494796409,-1,-3,0,5,-3,-17,-4,0
1532494796414,-1,-3,-4,1,5,5,2,1
1532494796419,-1,-1,-1,-4,3,7,3,0
1532494796424,0,0,-1,-4,-2,-29,-5,-3
1532494796429,1,1,-1,1,0,8,2,1
1532494796434,0,2,1,1,1,21,7,1
1532494796439,-1,2,-1,-2,-2,-12,-7,-2
1532494796444,-2,-5,-4,-6,-6,-14,3,1
1532494796449,-2,-1,0,-2,1,-6,-2,-3
1532494796454,0,-1,-2,1,-4,12,0,0
1532494796459,0,1,0,3,1,-8,-5,0
1532494796464,1,2,1,7,6,4,3,1
1532494796469,-1,2,3,0,-1,22,2,-2
1532494796474,-1,-2,-4,-7,-2,-4,-6,-2
1532494796479,-1,-4,-5,-3,-1,-13,1,0
1532494796484,0,-2,-1,-5,-4,-8,-6,-1
1532494796489,0,-1,1,0,3,15,5,-2
1532494796494,-2,0,0,2,1,4,1,-1
1532494796499,0,0,1,4,-1,6,1,0
1532494796504,0,0,-2,0,-3,-13,-4,-1
1532494796509,-3,-2,-4,-1,5,9,4,1
1532494796514,1,4,3,-1,1,-9,-2,0
1532494796519,-4,-6,-6,-6,-12,-5,2,-1
1532494796524,-1,3,2,0,-3,6,-3,-1
1532494796529,-3,-5,-3,-4,-1,-4,0,-2
1532494796534,-2,-1,1,0,-5,0,1,-1
1532494796539,1,2,6,3,4,20,4,-1
1532494796544,0,-2,-2,1,10,-9,-3,1
1532494796549,-1,-2,-4,-7,-9,-24,-4,-2
1532494796554,0,-1,0,0,2,-9,2,-1
1532494796559,-1,0,-2,1,-1,5,0,-1
1532494796564,-1,2,0,-1,-2,25,2,0
1532494796569,2,1,1,5,7,-7,-3,0
1532494796574,0,-3,-1,0,-5,-23,-3,0
1532494796579,1,0,-3,-5,1,-1,-3,-1
1532494796584,-1,-4,-2,-11,-8,-4,0,0
1532494796589,0,0,2,-1,-4,5,-1,1
1532494796594,-2,-3,-2,0,-1,7,-1,-2
1532494796599,0,-3,1,3,2,-2,-1,1
1532494796604,-1,-1,0,1,4,-15,-3,-1
1532494796609,1,2,-1,0,-3,7,4,1
1532494796614,-2,-2,-2,-3,-1,8,-3,-4
1532494796619,-1,2,2,2,2,-14,-3,0
1532494796624,-4,-2,-3,-2,1,5,2,-3
1532494796629,1,1,0,2,-9,7,0,2
1532494796634,1,1,4,4,9,13,-1,0
1532494796639,0,1,-3,-2,-5,-22,-1,-2
1532494796644,-2,-2,2,3,1,-1,-4,-3
1532494796649,-3,-2,-3,-4,5,-3,2,-1
1532494796654,0,-1,-4,-9,-9,-2,0,1
1532494796659,0,0,1,2,1,14,0,-2
1532494796664,1,-1,-2,0,-3,-9,4,0
1532494796669,-1,-1,-2,0,4,3,-1,-1
1532494796674,-4,-1,1,3,-1,-11,-5,0
1532494796679,0,-1,0,1,3,7,2,-1
1532494796684,-1,-3,-1,-2,-5,9,-2,-3
1532494796689,-2,2,0,1,4,-25,-4,-1
1532494796694,-2,-4,-4,-4,-3,-6,-2,-3
1532494796699,-2,-2,-2,1,-1,3,0,-2
1532494796704,-1,-1,1,1,1,11,1,-1
1532494796709,0,1,-2,-1,-6,-4,-3,0
1532494796714,1,-3,-1,-5,-1,-2,-3,-6
1532494796719,-1,2,1,0,1,-9,1,2
1532494796724,-2,-5,-1,-1,-3,5,1,4
1532494796729,-1,-2,-3,-1,-4,-2,-1,-3
1532494796734,0,1,-2,-5,-5,-7,0,3
1532494796739,-2,-2,-2,-2,1,8,-1,-5
1532494796744,0,3,-1,0,-4,-4,0,0
1532494796749,-1,0,5,2,2,-1,0,2
1532494796754,1,6,-4,3,1,-8,-1,-1
1532494796759,0,-7,-3,-4,-7,-2,-3,0
1532494796764,-3,0,-1,-2,1,1,-1,-9
1532494796769,1,-2,-1,0,0,15,3,4
1532494796774,1,0,3,3,2,5,1,5
1532494796779,-1,-1,1,-3,-9,-8,-5,-1
1532494796784,4,2,1,1,6,-5,4,4
1532494796789,-3,-5,-4,-3,0,1,-1,-8
1532494796794,-2,-3,0,-3,1,8,3,-3
1532494796799,-1,0,-1,0,-3,18,2,1
1532494796804,-2,0,-1,0,6,-31,-7,-5
1532494796809,-1,-1,-1,-1,-6,-9,-1,0
1532494796814,-1,-1,3,1,-2,-2,0,0
1532494796819,1,0,0,-4,0,4,1,-1
1532494796824,-2,-2,-3,-6,-2,16,-2,-1
1532494796829,-1,0,-1,2,5,-3,-1,-3
1532494796834,-1,0,-1,3,0,0,1,8
1532494796839,0,1,-2,-4,3,-1,-2,-3
1532494796844,0,-1,0,0,-9,-10,-4,1
1532494796849,0,0,-2,-3,1,-2,-1,1
1532494796854,0,-1,-1,-1,-4,14,3,-6
1532494796859,0,-1,-3,1,0,-4,-1,0
1532494796864,0,-1,1,2,-2,-1,-4,-4
1532494796869,-2,0,-1,0,-2,-10,1,4
1532494796874,0,0,1,1,5,-6,-4,-3
1532494796879,-1,0,-3,-3,-1,-1,2,4
1532494796884,0,-1,-1,0,3,4,-1,-3
1532494796889,-1,-2,0,-3,-3,16,1,-4
1532494796894,-1,-1,-3,-1,-4,-24,-3,-2
1532494796899,0,-2,1,2,0,5,3,0
1532494796904,0,0,0,1,-7,1,-9,-1
1532494796909,1,1,0,1,-1,-18,3,-2
1532494796914,-3,-2,-2,-6,0,8,1,-1
1532494796919,-1,-2,-3,-3,-4,-1,-2,-4
1532494796924,-1,0,-1,-4,0,-1,1,1
1532494796929,1,1,0,0,-1,20,2,2
1532494796934,1,1,-3,-2,7,-15,2,0
1532494796939,-2,0,-3,-14,-8,3,-4,-2
1532494796944,-2,-3,-3,-6,-6,4,3,-2
1532494796949,-2,-2,0,0,1,4,-1,0
1532494796954,-2,-4,-2,4,-3,5,1,-1
1532494796959,-1,1,1,8,18,-12,-3,-2
1532494796964,0,1,-1,-6,-10,11,-1,-2
1532494796969,1,0,0,-2,-1,-9,4,0
1532494796974,-1,-2,0,-2,-3,-16,-3,-1
1532494796979,1,-3,1,1,2,7,6,0
1532494796984,0,-1,-2,4,5,-4,-1,1
1532494796989,1,-2,-3,-2,-6,9,-4,-1
1532494796994,-1,-3,-2,-1,-2,-1,2,-1
1532494796999,1,0,-1,-1,1,5,0,1
1532494797004,-1,1,1,-3,-2,-5,-2,1
1532494797009,-2,-2,-7,-6,-2,-6,-2,-4
1532494797014,-3,-1,1,-1,-2,5,1,-3
1532494797019,0,-2,0,3,-8,-7,-2,5
1532494797024,1,-3,4,4,9,19,0,-1
1532494797029,0,0,-3,-3,3,-1,-1,1
1532494797034,-1,3,0,-1,-4,-28,-4,-3
1532494797039,0,0,-2,3,-1,-2,-1,1
1532494797044,1,1,3,8,0,-9,-2,0
1532494797049,-2,-4,-3,-3,6,15,2,-9
1532494797054,-1,-2,-2,-11,-5,9,1,6
1532494797059,-3,-3,1,1,-1,11,-4,-1
1532494797064,0,0,-5,-2,-5,-10,-1,0
1532494797069,1,1,0,1,-4,-5,-3,1
1532494797074,1,0,0,3,3,10,3,-5
1532494797079,-3,-3,-1,-5,3,9,1,0
1532494797084,-2,-1,-2,-3,-3,-2,0,-1
1532494797089,0,5,4,1,0,-14,-2,-1
1532494797094,-1,-2,-2,-2,-3,1,-1,-1
1532494797099,-1,1,-1,-1,-8,-5,0,0
1532494797104,0,-2,1,6,5,5,0,-3
1532494797109,-1,0,-2,-3,-1,9,8,5
1532494797114,-2,-3,-4,-1,11,-1,-5,1
1532494797119,0,1,-2,-4,-4,-11,3,-7
1532494797124,-2,-2,-5,-9,-2,-9,-3,-1
1532494797129,-2,-3,2,2,0,7,1,-7
1532494797134,4,1,-3,1,-7,14,2,12
1532494797139,0,-2,-2,-6,-15,-21,-10,-4
1532494797144,0,0,1,-2,0,-2,1,0
1532494797149,0,-1,2,3,6,12,0,-2
1532494797154,-2,-2,-1,-1,-8,-8,1,-3
1532494797159,-1,-1,2,5,2,7,1,-10
1532494797164,-3,-3,-5,-7,-3,-10,-1,3
1532494797169,1,0,1,1,6,-1,2,4
1532494797174,1,2,3,5,1,6,1,-1
1532494797179,-2,0,-1,1,9,-1,1,1
1532494797184,-2,0,-2,-5,-14,6,-3,-11
1532494797189,0,1,0,1,-2,-26,-7,2
1532494797194,-1,-1,1,0,8,6,4,2
1532494797199,0,0,-2,-1,-1,6,-4,-2
1532494797204,-2,-1,1,4,-5,-4,3,5
1532494797209,-1,-1,2,-3,10,10,-1,-4
1532494797214,0,-3,-4,-7,-28,-30,-8,-2
1532494797219,0,-3,1,-1,3,12,2,3
1532494797224,0,1,3,7,16,0,0,-8
1532494797229,2,-2,-2,-4,-16,0,-2,16
1532494797234,-2,0,3,-1,5,16,1,-2
1532494797239,0,-2,1,4,8,-8,1,1
1532494797244,0,0,-5,-4,-12,-4,1,2
1532494797249,0,-3,-1,-3,-9,-7,-3,-3
1532494797254,-2,-1,-1,1,5,7,2,-3
1532494797259,0,2,1,0,-5,-12,-4,4
1532494797264,-1,-1,-2,3,14,3,2,-2
1532494797269,-2,1,-5,0,-1,3,-1,-8
1532494797274,0,0,-1,-2,1,8,6,10
1532494797279,0,0,-5,0,0,17,1,-2
1532494797284,-1,-5,-7,-1,-2,-3,1,0
1532494797289,-3,-2,-4,-2,-3,-12,-3,-6
1532494797294,-4,-3,1,0,1,-9,-2,-7
1532494797299,0,2,-5,-5,-7,0,1,8
1532494797304,0,3,5,-2,6,13,0,-4
1532494797309,-1,-1,-5,-5,-13,2,-1,-1
1532494797314,-1,-2,-2,2,8,-9,-5,-4
1532494797319,-4,0,1,-5,-2,-2,0,-3
1532494797324,-3,-4,-2,-1,-7,-4,-2,1
1532494797329,-2,2,4,5,9,4,-2,-1
1532494797334,0,-2,-7,-5,-1,3,1,-1
1532494797339,-4,-3,2,3,-9,-11,-8,-3
1532494797344,1,1,2,-2,-10,-9,2,3
1532494797349,-1,-1,-3,1,-3,2,3,-2
1532494797354,1,2,0,-1,6,12,-1,-2
1532494797359,1,-1,0,0,10,12,2,-2
1532494797364,0,3,3,3,-7,-15,0,-1
1532494797369,-3,-3,-3,-4,-13,-2,-2,-4
1532494797374,0,2,0,0,-1,-4,-1,-3
1532494797379,0,-4,1,-3,-9,2,3,15
1532494797384,-3,-3,-1,0,5,-6,-5,-2
1532494797389,-1,-3,-4,0,7,4,5,-4
1532494797394,0,3,5,2,-9,-4,-1,2
1532494797399,-1,-5,-6,-4,-5,8,-3,-8
1532494797404,-1,-4,-2,3,4,4,0,-2
1532494797409,-3,-1,-1,-1,1,-4,1,3
1532494797414,3,3,2,4,16,11,0,0
1532494797419,1,-2,-1,-3,-9,-2,-2,-7
1532494797424,0,-1,-4,-3,-1,4,3,2
1532494797429,-2,0,-1,-3,-6,-24,-11,-3
1532494797434,-3,-3,-4,-5,-14,-8,1,-1
1532494797439,0,1,-1,0,5,-7,2,-1
1532494797444,-1,1,6,0,5,9,2,-4
1532494797449,2,1,-5,0,-9,3,1,1
1532494797454,-3,-5,-2,1,6,6,-1,0
1532494797459,-1,-3,1,-1,5,-6,0,-1
1532494797464,-1,-2,-6,-4,-5,-3,-6,-2
1532494797469,-1,-1,1,0,12,9,1,-4
1532494797474,-3,-1,0,-2,-7,-10,1,8
1532494797479,0,1,1,2,12,-2,2,-2
1532494797484,0,0,2,1,3,4,-1,1
1532494797489,0,-3,0,-1,-1,-6,-5,-1
1532494797494,-1,-2,-2,-2,2,0,1,-6
1532494797499,0,1,-1,1,3,26,6,0
1532494797504,-1,-2,-1,-5,-3,-29,-8,-2
1532494797509,-1,1,2,0,-5,-15,2,-1
1532494797514,-1,-3,-6,-3,-11,9,0,0
1532494797519,-1,4,1,1,-5,-18,1,-3
1532494797524,1,7,1,-1,6,30,7,-8
1532494797529,-4,-15,-8,-4,0,4,-1,11
1532494797534,1,-1,1,0,5,-1,-3,-3
1532494797539,1,1,0,0,-10,-7,-4,1
1532494797544,0,0,-1,1,-2,-3,-1,-4
1532494797549,0,1,-2,3,1,9,2,-1
1532494797554,0,3,-2,-5,-7,-15,-7,-6
1532494797559,-2,-1,-2,-2,-2,0,1,0
1532494797564,-1,-5,-2,-1,-2,-8,0,2
1532494797569,2,1,5,3,6,15,3,5
1532494797574,-2,-4,-4,0,-2,-12,-4,0
1532494797579,1,3,-2,-1,1,7,0,0
1532494797584,0,0,-2,-1,3,-4,1,0
1532494797589,-1,1,1,-5,-3,10,2,-3
1532494797594,-2,-1,1,1,1,-14,-3,-7
1532494797599,-1,-3,-1,2,14,-13,-3,-3
1532494797604,1,1,4,4,-16,-1,-2,6
1532494797609,-1,-2,-4,-2,7,7,-1,-5
1532494797614,1,1,1,-2,-14,6,3,1
1532494797619,-1,-5,-4,-7,-7,-8,-4,1
1532494797624,-3,-1,-1,1,5,4,-4,-1
1532494797629,2,5,3,5,9,-2,9,0
1532494797634,0,0,0,-2,3,10,1,-1
1532494797639,-1,0,1,2,-4,-9,-5,-2
1532494797644,1,2,-1,-3,-3,1,2,-1
1532494797649,-2,-5,-2,-2,0,7,-1,-2
1532494797654,-2,-2,2,3,5,-9,-4,-1
1532494797659,-2,-2,0,-1,-6,1,4,-4
1532494797664,3,-1,3,1,2,2,0,16
1532494797669,1,2,0,3,3,-18,-5,5
1532494797674,-2,-4,-2,-3,1,-5,-3,-4
1532494797679,-2,2,0,-1,-4,-10,2,-2
1532494797684,-3,-8,-7,-4,0,8,1,-6
1532494797689,-1,-1,0,-3,-2,0,-1,-3
1532494797694,-1,-5,-4,1,-2,1,0,1
1532494797699,-3,-2,4,1,4,-2,-2,-6
1532494797704,0,0,-4,2,6,6,-4,-4
1532494797709,0,2,-1,-3,-5,-1,0,2
1532494797714,1,3,-1,1,9,2,1,-1
1532494797719,0,-4,-1,0,2,9,-2,-2
1532494797724,-3,-5,-2,-1,-1,-5,4,-4
1532494797729,-2,-2,1,1,0,-4,-10,-2
1532494797734,0,3,1,0,-3,15,14,1
1532494797739,-2,-1,-2,-5,-8,-21,-14,-1
1532494797744,-2,0,0,0,-4,-9,4,-9
1532494797749,1,0,-2,-1,-3,1,-6,4
1532494797754,-1,-1,-1,-1,-3,0,4,-2
1532494797759,0,-1,-1,3,2,6,11,5
1532494797764,-2,-1,-1,-4,-3,-1,-11,-9
1532494797769,-4,-1,-1,-2,-2,-6,-10,-14
1532494797774,1,-2,-2,-1,-1,2,13,20
1532494797779,1,-3,-3,-3,0,6,-7,1
1532494797784,0,0,-2,-1,-1,-9,-6,0
1532494797789,-1,0,1,-1,-2,-2,-4,-5
1532494797794,-2,2,0,2,4,1,-6,-13
1532494797799,1,-1,-1,0,-6,4,12,5
1532494797804,0,0,0,-4,-20,-13,-29,2
1532494797809,2,0,0,-3,0,14,5,5
1532494797814,-4,-3,-2,-9,-6,-10,1,-5
1532494797819,-2,0,0,0,3,0,-7,-12
1532494797824,0,0,0,5,6,7,10,9
1532494797829,-1,-1,0,0,-4,-10,-1,-7
1532494797834,1,0,1,3,-4,-11,-4,5
1532494797839,2,-1,1,0,0,-3,0,1
1532494797844,-2,-1,-1,2,1,-2,4,0
1532494797849,1,-1,-2,-3,-1,10,-2,0
1532494797854,-1,-3,-3,-9,-5,4,-14,-5
1532494797859,-2,0,0,-1,-2,-1,-5,-4
1532494797864,2,1,2,2,6,-5,17,7
1532494797869,-1,-1,-3,3,-3,-6,19,4
1532494797874,0,-1,1,1,1,1,11,-4
1532494797879,0,0,-2,-1,-3,10,-46,2
1532494797884,-2,-3,-1,-4,-2,-7,10,-5
1532494797889,-4,-3,-1,-1,2,-12,-16,-2
1532494797894,0,3,0,2,3,6,1,0
1532494797899,0,-1,-1,3,-7,-16,9,0
1532494797904,0,0,-2,0,0,12,-11,1
1532494797909,-1,-2,-1,-5,0,-21,8,-3
1532494797914,-3,-4,-1,-5,-4,15,-1,-5
1532494797919,-2,-1,2,3,9,-4,-8,-2
1532494797924,-1,-3,-1,-4,-5,0,3,-1
1532494797929,-1,-2,-2,-6,-9,0,7,2
1532494797934,2,-1,0,1,0,1,1,5
1532494797939,1,-1,-1,7,7,5,1,2
1532494797944,-2,-1,-1,-3,-4,-1,-10,-1
1532494797949,1,0,0,0,0,5,30,0
1532494797954,-2,-3,-4,-4,-4,-6,-15,-6
1532494797959,0,0,0,-4,-3,1,27,4
1532494797964,0,0,0,3,8,1,-11,1
1532494797969,-3,0,-1,3,2,1,-30,-10
1532494797974,0,0,0,5,1,-6,-4,-4
1532494797979,1,0,-2,0,0,2,26,17
1532494797984,1,-3,-2,-3,-2,6,4,-4
1532494797989,-1,0,0,1,-2,-7,-4,1
1532494797994,-2,-1,0,4,7,0,-4,-7
1532494797999,-2,-2,-5,-9,-10,-3,-10,-6
1532494798004,-1,1,-2,-5,-2,2,5,-1
1532494798009,0,-1,0,0,-1,-1,-6,2
1532494798014,0,1,2,3,-3,-7,5,1
1532494798019,-2,-1,1,-1,3,15,2,-4
1532494798024,0,0,0,2,3,-1,3,1
1532494798029,-2,0,-6,-3,-7,-4,-4,-5
1532494798034,1,0,-1,-2,4,9,-1,6
1532494798039,-3,-2,-2,-5,-4,-11,4,-8
1532494798044,-1,0,2,5,0,-1,-2,4
1532494798049,2,0,-2,-4,2,0,-4,-4
1532494798054,-3,-1,0,2,-2,-4,7,-3
1532494798059,0,-1,-1,-2,1,-6,0,2
1532494798064,-1,-2,-5,-12,-10,2,1,-1
1532494798069,-2,-2,-2,0,-3,-1,-3,-1
1532494798074,0,0,-2,-1,6,0,-3,-2
1532494798079,1,0,-1,-2,-6,6,6,1
1532494798084,0,-2,3,3,3,2,1,-2
1532494798089,-1,-1,-1,5,0,-8,-3,-3
1532494798094,-1,-2,-4,-8,-7,-14,-4,-1
1532494798099,-1,0,0,1,4,7,1,0
1532494798104,-2,-1,0,3,3,-4,0,-4
1532494798109,-1,0,2,-1,0,5,-3,-3
1532494798114,-2,-3,-1,4,1,-9,6,-2
1532494798119,-1,-1,1,4,4,-8,-5,-4
1532494798124,-3,-4,-4,-10,-9,-4,3,0
1532494798129,0,-1,-2,0,3,-4,-2,-7
1532494798134,1,1,-1,1,-4,11,-1,-3
1532494798139,1,-1,-2,-4,-3,-3,1,4
1532494798144,0,1,-3,2,-4,-2,-2,3
1532494798149,0,1,0,-2,-2,-2,-3,0
1532494798154,-1,-2,0,0,6,-1,-1,-4
1532494798159,-18,0,2,-3,-5,0,-5,-4
1532494798164,30,2,-3,1,0,-4,-3,0
1532494798169,0,-2,1,-2,-4,-2,1,-1
1532494798174,7,0,-1,0,3,12,6,11
1532494798179,-15,0,0,2,5,4,-4,-2
1532494798184,6,-1,0,1,3,-1,9,-2
1532494798189,-1,3,10,-5,-1,-4,-1,1
1532494798194,-1,-4,-13,-7,-14,9,9,-2
1532494798199,7,-1,4,3,4,4,-4,1
1532494798204,-11,-1,-1,1,1,-2,-4,-4
1532494798209,3,1,-3,-2,7,3,5,1
1532494798214,-7,1,4,-6,1,-13,-5,-6
1532494798219,5,-4,-16,-6,-10,-7,2,2
1532494798224,-6,1,5,5,1,-1,-2,2
1532494798229,-1,-4,-3,2,-5,-1,3,-5
1532494798234,-2,0,4,6,5,1,-6,1
1532494798239,6,-3,-7,4,4,4,-1,-4
1532494798244,-7,-1,7,-5,-2,-7,-2,-1
1532494798249,2,-4,-4,-14,-22,-8,-16,-3
1532494798254,-2,-2,0,-3,-3,0,14,-3
1532494798259,5,0,6,5,2,1,2,1
1532494798264,5,6,-3,4,5,0,-2,0
1532494798269,-12,-6,-6,-8,-8,-4,-10,1
1532494798274,0,-1,8,-4,-5,-3,5,-2
1532494798279,1,-1,-5,4,1,0,-1,-8
1532494798284,-8,0,1,2,2,-1,-4,1
1532494798289,5,3,0,7,9,-6,2,4
1532494798294,-1,-1,-1,-3,6,3,-3,-7
1532494798299,0,-4,-2,-16,-19,-1,-4,0
1532494798304,1,1,1,6,6,-5,-7,0
1532494798309,-3,-2,-6,-4,-2,1,19,1
1532494798314,-1,-1,-3,-2,-3,0,-3,-1
1532494798319,-2,1,6,3,4,3,6,1
1532494798324,-2,-1,-4,0,-2,5,-4,-3
1532494798329,2,1,1,3,1,8,6,3
1532494798334,-4,0,1,0,-3,-8,-9,-4
1532494798339,4,-2,-5,0,-2,5,3,3
1532494798344,-4,-4,0,-3,1,-4,2,-2
1532494798349,-1,2,4,7,9,-2,-20,-2
1532494798354,4,-2,-4,0,-2,2,23,1
1532494798359,-9,0,-1,-3,-4,-2,-2,1
1532494798364,-1,-1,-5,-9,-5,-2,-3,-9
1532494798369,10,-3,1,1,5,3,2,2
1532494798374,-5,0,2,8,8,-2,-17,-3
1532494798379,5,-3,-2,-2,-1,6,12,1
1532494798384,-7,-4,-9,-13,-14,-3,-4,0
1532494798389,-5,1,2,1,1,7,3,-2
1532494798394,-2,1,-1,3,1,-5,-8,1
1532494798399,-1,1,-1,-4,0,-6,-6,-1
1532494798404,-2,3,1,-3,-3,-4,11,2
1532494798409,1,-2,-5,1,-1,-6,-1,-3
1532494798414,-1,-4,1,2,10,-5,-9,-2
1532494798419,-2,-1,6,2,-9,1,0,2
1532494798424,-1,-4,-4,-5,-9,-2,-8,-4
1532494798429,-1,1,-1,1,0,-5,16,6
1532494798434,0,2,-3,0,0,-8,-16,2
1532494798439,-2,-1,-2,-8,-1,-8,-6,-8
1532494798444,4,-1,4,4,3,19,31,6
1532494798449,-3,1,3,5,5,-14,-20,-6
1532494798454,-1,-2,-4,1,-4,2,6,-1
1532494798459,1,-2,-4,-10,-10,-9,-15,-4
1532494798464,-1,0,-3,0,1,2,-13,4
1532494798469,-3,1,-1,-4,0,13,16,1
1532494798474,3,2,3,5,5,5,14,-2
1532494798479,2,-2,3,11,8,1,-4,8
1532494798484,-5,-3,-4,-4,-4,-8,-3,-5
1532494798489,-2,-1,-4,-7,-7,2,-13,-4
1532494798494,1,-1,0,-1,-3,4,8,7
1532494798499,1,3,4,8,9,3,11,-2
1532494798504,-4,-3,-6,-7,-5,-3,-2,2
1532494798509,2,-2,-3,2,2,2,-2,2
1532494798514,-2,-5,-8,-13,-10,2,-5,-9
1532494798519,-2,1,0,0,0,1,0,-2
1532494798524,-10,0,5,4,4,-13,-11,2
1532494798529,9,3,1,3,-1,6,4,1
1532494798534,2,0,1,3,2,1,2,2
1532494798539,0,-1,-4,-2,2,4,8,2
1532494798544,-4,-2,-5,-11,-6,-3,-4,-2
1532494798549,-4,-2,-1,-4,-4,1,-6,-8
1532494798554,-2,2,3,1,-1,-18,4,-4
1532494798559,1,3,5,6,8,1,-12,0
1532494798564,-1,-9,-8,-5,-5,-5,1,-4
1532494798569,-7,-3,-2,-3,-3,-7,-7,-6
1532494798574,3,1,-1,-2,-3,15,15,3
1532494798579,-3,-1,2,2,1,-10,1,-3
1532494798584,6,3,4,8,6,9,2,2
1532494798589,0,-2,-3,-4,-5,-2,-11,4
1532494798594,-5,-2,-1,-3,-6,-2,-12,-5
1532494798599,-5,-2,-3,-6,-6,-16,-9,-10
1532494798604,5,2,5,7,4,-2,0,0
1532494798609,-3,-2,-5,0,4,5,3,4
1532494798614,0,0,-5,-11,-13,-3,-5,4
1532494798619,1,0,-3,-4,-6,-3,2,-2
1532494798624,0,0,1,2,0,-3,-20,-6
1532494798629,-5,0,3,2,-3,-9,-15,-1
1532494798634,3,1,0,3,4,10,27,-6
1532494798639,4,3,2,6,8,-5,-8,-11
1532494798644,-5,-5,-9,-8,-9,-11,2,-2
1532494798649,0,0,-1,-4,-3,0,6,1
1532494798654,-1,-1,-2,-4,-1,-6,-34,2
1532494798659,-2,-1,0,-1,1,11,23,4
1532494798664,3,3,5,9,5,-6,-3,1
1532494798669,3,-2,-2,2,-2,-1,5,6
1532494798674,-1,-2,-5,-10,-6,-3,-4,9
1532494798679,-1,-3,-2,-2,2,3,5,5
1532494798684,-2,1,2,0,1,2,-18,-1
1532494798689,7,1,2,1,2,0,19,0
1532494798694,-3,3,4,8,5,-3,3,-1
1532494798699,1,0,-3,-1,-1,3,-8,4
1532494798704,1,-3,-9,-11,-11,-8,4,4
1532494798709,-6,-1,1,-1,-2,-3,-16,-6
1532494798714,-1,-1,-1,-1,2,6,19,-7
1532494798719,1,2,0,-2,-3,-12,-7,1
1532494798724,1,0,7,8,8,10,2,-1
1532494798729,-2,-1,-6,-1,7,0,7,2
1532494798734,0,0,0,-3,-2,6,17,-3
1532494798739,-2,-2,-1,0,0,9,-1,-2
1532494798744,-1,-1,1,1,5,-12,-28,-3
1532494798749,-3,-2,-4,-5,-12,-13,21,-7
1532494798754,0,1,0,2,1,0,-2,-1
1532494798759,1,-1,-2,-1,1,10,-9,5
1532494798764,1,-2,-2,-1,-1,6,17,2
1532494798769,0,1,0,1,2,-10,-5,0
1532494798774,-1,1,-1,0,5,-2,-27,-6
1532494798779,-1,-2,1,1,-8,-1,27,1
1532494798784,-2,-2,1,3,3,2,0,-3
1532494798789,0,-1,-2,0,-1,5,-7,2
1532494798794,-1,-4,-4,-4,-5,2,5,-5
1532494798799,1,1,-1,-2,2,-1,5,-1
1532494798804,-1,0,-3,-4,0,-6,-4,0
1532494798809,0,-3,1,0,-1,7,4,1
1532494798814,-1,2,5,6,7,0,0,-7
1532494798819,0,-1,-3,0,-1,-7,-9,-2
1532494798824,-2,-4,-6,-9,-9,-2,3,2
1532494798829,-2,-1,1,-2,-1,-3,0,1
1532494798834,0,1,-2,-3,-2,3,7,0
1532494798839,-2,0,2,3,0,-4,-7,-4
1532494798844,0,0,0,3,0,-5,-6,-1
1532494798849,0,-1,2,3,2,1,3,4
1532494798854,1,1,-4,3,1,1,6,0
1532494798859,-2,-2,3,-5,-9,-4,-10,-3
1532494798864,-1,0,-1,-2,-4,1,0,0
1532494798869,1,-2,-8,-4,-2,12,5,-2
1532494798874,1,0,3,0,0,-1,1,0
1532494798879,1,0,-1,1,4,-17,-5,-1
1532494798884,-2,0,2,2,-2,1,-19,-2
1532494798889,0,0,0,0,1,8,20,0
1532494798894,-3,0,-2,-2,0,5,5,-3
1532494798899,0,-4,-4,-3,3,-1,-7,-1
1532494798904,2,-2,-1,0,-6,-12,0,0
1532494798909,0,1,-2,-2,-3,-1,-7,-6
1532494798914,2,-2,-2,-6,-7,-1,-4,0
1532494798919,-3,2,0,-1,2,3,8,-2
1532494798924,0,1,1,6,8,1,-1,1
1532494798929,-1,-3,-1,-5,-5,-3,-6,0
1532494798934,-1,-5,-15,-5,-2,-1,3,-2
1532494798939,-3,-1,3,-2,-2,-1,-1,-2
1532494798944,-1,-1,16,1,0,3,1,-1
1532494798949,1,3,-25,-2,0,2,-2,0
1532494798954,0,-2,9,2,1,-1,-7,-2
1532494798959,0,-1,1,-1,-3,-7,3,-1
1532494798964,0,0,-2,0,1,2,-2,0
1532494798969,-1,1,13,0,1,2,-12,0
1532494798974,0,-6,-2,-3,-5,-1,33,1
1532494798979,-1,0,-17,0,-3,5,-6,0
1532494798984,-2,-1,6,-2,-1,-1,-1,-4
1532494798989,0,-3,0,0,0,-2,-3,2
1532494798994,-3,-1,3,-1,0,1,-11,-2
1532494798999,-1,-1,6,3,-1,1,2,5
1532494799004,0,-2,-13,-3,-2,-4,5,2
1532494799009,-1,-1,8,1,2,1,-2,1
1532494799014,-1,0,-1,-1,0,-1,-3,-2
1532494799019,0,-1,0,0,-1,7,8,-1
1532494799024,-1,0,-3,0,2,5,-7,-1
1532494799029,-1,-1,1,-1,0,-9,1,-3
1532494799034,-1,-1,-4,0,-4,-7,-6,0
1532494799039,-2,0,1,0,1,4,0,1
1532494799044,0,0,-5,-3,-3,7,1,3
1532494799049,-1,-1,2,3,1,-1,4,-1
1532494799054,-1,0,5,-1,-2,-1,0,5
1532494799059,1,-1,0,3,1,5,-8,2
1532494799064,-2,-4,-3,-1,0,-8,9,1
1532494799069,-2,-3,-16,-11,-7,-3,-8,5
1532494799074,-2,1,-2,-2,-5,-2,-2,11
1532494799079,-1,0,0,-1,1,3,2,1
1532494799084,0,0,5,3,2,-3,-9,-5
1532494799089,0,0,3,7,2,4,2,-5
1532494799094,0,-1,-2,5,8,1,5,-7
1532494799099,-1,-2,-3,-9,-8,-2,1,0
1532494799104,-1,1,4,0,3,-4,5,2
1532494799109,-2,-1,-10,-3,-5,-8,-7,-4
1532494799114,-1,-2,13,3,0,3,4,-7
1532494799119,-3,-3,-11,0,2,-4,-2,-12
1532494799124,1,2,-2,-2,-1,4,2,-11
1532494799129,1,1,11,3,0,3,3,-7
1532494799134,-2,-6,-22,-3,-2,1,-3,-4
1532494799139,-1,0,29,2,-2,-5,2,-4
1532494799144,-2,-1,-27,-4,-4,2,0,-4
1532494799149,-2,0,2,1,3,-9,1,-2
1532494799154,-2,3,6,0,1,0,-2,-4
1532494799159,-1,-1,-4,-3,-9,0,-15,-3
1532494799164,-2,0,3,0,3,-16,3,0
1532494799169,0,-2,4,-3,-2,3,3,1
1532494799174,-2,0,-13,2,-1,-4,-8,-3
1532494799179,1,0,-9,-5,2,-5,1,-3
1532494799184,1,1,6,-1,0,8,-8,2
1532494799189,-2,-3,-7,-2,-6,-3,-2,0
1532494799194,1,0,8,-2,-2,3,1,-2
1532494799199,0,-1,-2,0,-2,-2,-10,-1
1532494799204,0,0,1,2,-2,8,8,2
1532494799209,0,-1,1,0,5,-10,-5,2
1532494799214,-1,-4,-6,-6,-3,-1,-5,-1
1532494799219,-1,0,-2,6,0,6,0,0
1532494799224,2,0,1,-1,1,-10,-1,0
1532494799229,0,1,5,-7,-4,0,1,0
1532494799234,-1,-2,-13,3,-2,-8,-5,1
1532494799239,0,4,4,2,5,6,6,2
1532494799244,-2,-3,1,-4,-1,4,1,0
1532494799249,0,0,3,4,-6,9,3,0
1532494799254,-1,0,-2,-8,-2,-11,-2,0
1532494799259,0,-2,-2,-2,-3,6,5,0
1532494799264,-2,-1,3,5,-3,-13,-9,0
1532494799269,-2,-1,-3,-2,2,-4,-2,0
1532494799274,2,2,8,1,4,10,4,2
1532494799279,-1,-1,-3,3,2,9,11,1
1532494799284,-1,-2,1,-6,-6,-5,2,-2
1532494799289,-2,-4,-5,-1,-1,-2,-1,0
1532494799294,-1,-1,2,2,4,-8,-6,1
1532494799299,-1,-1,-3,-7,-3,-6,-3,-2
1532494799304,0,-3,-1,2,-3,8,-9,0
1532494799309,1,0,-1,-1,4,12,11,0
1532494799314,-2,0,0,-2,-4,0,-5,-1
1532494799319,-1,-1,-3,-4,2,-12,-13,-2
1532494799324,0,-2,-4,-2,-7,-2,21,1
1532494799329,0,-1,2,3,-1,9,-10,-2
1532494799334,-2,2,3,0,-4,-18,1,-1
1532494799339,-1,-3,-7,-6,-6,-1,-14,-2
1532494799344,-3,-2,-2,-1,0,-8,-17,-5
1532494799349,0,0,2,0,2,1,20,3
1532494799354,3,1,-3,2,4,7,9,2
1532494799359,-3,-1,-1,1,1,-10,-1,0
1532494799364,-1,-1,1,2,2,11,-6,0
1532494799369,-3,-1,-5,-3,-2,2,-12,-1
1532494799374,-2,-1,3,-1,-1,-7,-3,-3
1532494799379,-1,3,1,6,0,-1,5,1
1532494799384,-1,-1,-3,0,4,24,2,2
1532494799389,-1,-2,-3,-8,3,-18,-7,-1
1532494799394,0,-2,-5,-4,-10,-14,7,-2
1532494799399,-1,0,0,3,0,-3,-3,0
1532494799404,1,1,2,0,0,-1,8,-1
1532494799409,-1,-2,-2,3,4,17,-4,1
1532494799414,-1,0,1,-3,-6,-14,-5,-1
1532494799419,-2,-3,0,-4,-2,1,5,0
1532494799424,-1,-1,-4,-5,-2,13,2,-1
1532494799429,1,2,0,2,-4,-8,-2,2
1532494799434,-1,-4,-1,2,6,5,-4,-2
1532494799439,0,-1,0,0,-1,6,1,0
1532494799444,-3,2,-1,-1,-1,-17,1,-3
1532494799449,1,3,0,-4,-5,-4,-5,-3
1532494799454,0,-1,0,0,-2,-7,-3,-3
1532494799459,-1,0,-1,3,10,4,4,1
1532494799464,-1,-1,-3,-3,-14,-3,-15,-2
1532494799469,0,-1,-4,-8,-2,3,10,-5
1532494799474,-3,0,3,1,4,-4,-3,0
1532494799479,0,-5,-3,1,0,-5,2,1
1532494799484,3,2,-2,3,6,7,4,1
1532494799489,-3,-2,1,2,-6,-28,-10,-2
1532494799494,0,-2,0,-5,-1,18,7,-1
1532494799499,-2,-1,-2,-5,-5,5,-9,-3
1532494799504,-1,-2,4,2,4,-1,10,0
1532494799509,1,-1,0,2,4,5,-1,2
1532494799514,0,2,0,2,4,6,-2,-1
1532494799519,-2,-4,-5,-3,-2,-3,-3,-1
1532494799524,-1,-4,-1,-4,-2,6,2,-1
1532494799529,-1,0,1,4,1,-1,-1,-2
1532494799534,-1,-1,-3,0,1,-26,-4,-1
1532494799539,1,-1,1,-1,-9,-20,2,-2
1532494799544,-2,-2,-2,-6,0,4,-2,0
1532494799549,-2,-4,-4,0,-1,19,3,-1
1532494799554,0,0,0,-2,-3,23,2,-1
1532494799559,-1,2,1,0,0,-14,-4,-1
1532494799564,-2,-2,-1,0,4,-22,1,-1
1532494799569,-1,3,-1,1,-5,-2,-3,0
1532494799574,1,-2,-4,-1,-3,2,3,-2
1532494799579,-2,-1,0,-2,1,12,-10,-1
1532494799584,-2,-2,-1,-2,-4,11,2,-2
1532494799589,0,-1,2,0,2,-6,8,3
1532494799594,-1,1,-3,0,0,8,2,2
1532494799599,-2,0,-2,1,8,-3,6,0
1532494799604,-1,2,2,-1,-3,-11,-12,-3
1532494799609,-2,-4,-7,-7,-5,-1,-6,-2
1532494799614,-2,-3,2,-3,-5,1,-2,-2
1532494799619,0,1,0,0,-2,5,0,-1
1532494799624,-2,1,0,5,5,5,4,1
1532494799629,0,2,6,2,3,-11,-3,-1
1532494799634,-2,-1,2,-4,-7,-11,3,0
1532494799639,-1,-3,1,-1,3,-6,-5,-1
1532494799644,0,-4,-3,-2,-3,11,8,0
1532494799649,0,-1,0,3,8,28,8,1
1532494799654,-2,1,0,-1,-17,-27,-4,-1
1532494799659,-2,-1,-6,-3,0,-9,2,-1
1532494799664,-1,-1,-2,-6,-9,-1,-7,0
1532494799669,-1,-2,-3,-1,-5,-3,-2,-1
1532494799674,0,0,1,5,10,19,-1,-1
1532494799679,0,-2,-1,2,2,10,-6,-1
1532494799684,-1,-1,-2,-6,1,0,17,0
1532494799689,1,0,5,3,-2,-13,-4,-1
1532494799694,-2,-4,-5,-6,-3,-4,-2,-2
1532494799699,-1,2,1,0,-7,-5,1,-1
1532494799704,0,-3,-2,3,3,7,-5,-2
1532494799709,-2,-2,2,2,1,2,-4,0
1532494799714,2,-2,1,6,28,18,6,1
1532494799719,-2,-3,-5,-15,-24,-19,-3,-1
1532494799724,-1,1,0,0,-6,-11,-8,-1
1532494799729,0,0,0,-1,-6,-4,2,0
1532494799734,-2,0,-3,-2,-6,6,-5,-2
1532494799739,1,1,-1,3,12,2,3,2
1532494799744,-2,-3,-2,3,6,3,1,-2
1532494799749,0,0,-6,-6,-8,-1,-3,-2
1532494799754,1,1,3,-2,-7,5,0,-2
1532494799759,0,0,0,3,3,-15,0,-2
1532494799764,0,2,2,4,-3,-16,-5,3
1532494799769,-1,-2,-4,-4,2,5,0,-2
1532494799774,-3,-3,-3,-3,6,8,1,0
1532494799779,0,1,6,2,-3,7,0,-1
1532494799784,-1,0,-1,2,1,-7,-8,-1
1532494799789,1,2,3,0,-7,10,13,1
1532494799794,1,2,-1,0,5,-5,-2,-1
1532494799799,0,-2,-2,-3,-2,-6,4,-1
1532494799804,-2,-2,0,-2,4,5,-13,-3
1532494799809,-1,-5,-4,-2,-1,24,10,-3
1532494799814,1,2,2,-3,-13,-28,-8,0
1532494799819,-1,0,0,5,9,-6,4,0
1532494799824,-3,-2,-5,-3,-2,-2,-4,-3
1532494799829,-3,0,-2,-5,-9,-12,-1,-2
1532494799834,-1,1,4,-1,9,10,2,-1
1532494799839,-1,-4,-5,-1,10,-1,-5,-2
1532494799844,0,0,1,3,0,1,5,2
1532494799849,-1,1,-3,-2,-11,-7,-2,0
1532494799854,0,-5,-4,-4,0,3,4,0
1532494799859,-3,0,1,-1,4,-7,-5,-1
1532494799864,0,1,4,-1,3,19,0,-1
1532494799869,1,-2,-5,2,-1,1,10,-1
1532494799874,0,-1,-2,2,-3,-4,1,-1
1532494799879,-1,-2,2,-2,8,-8,-6,-2
1532494799884,0,-2,-3,-3,-7,-2,6,-1
1532494799889,-2,-3,-2,-1,8,8,-1,-2
1532494799894,3,6,4,3,3,-8,-1,1
1532494799899,0,-2,-2,-1,1,4,-1,-1
1532494799904,-1,4,3,2,9,1,0,-1
1532494799909,0,-3,-4,1,-9,10,1,1
1532494799914,-4,-4,-2,-5,1,-31,-3,-3
1532494799919,-1,0,-2,-5,1,-3,1,1
1532494799924,0,0,3,1,-7,-1,1,2
1532494799929,-2,-2,-1,-1,-1,14,-2,-3
1532494799934,-2,0,2,1,1,-2,0,0
1532494799939,0,2,-4,2,-3,-1,4,0
1532494799944,-3,-2,-1,-2,1,0,0,-4
1532494799949,-1,-2,-1,-2,-1,8,-3,0
1532494799954,0,-2,-3,-1,-8,-8,0,-3
1532494799959,0,3,3,-1,-1,-6,-2,1
1532494799964,-2,-6,-1,-1,6,26,2,0
1532494799969,-1,-1,0,-1,-1,-26,-7,-2
1532494799974,0,-2,-3,-1,0,7,8,-1
1532494799979,2,2,1,1,0,8,-4,2
1532494799984,0,-1,-3,-2,-2,-15,-4,0
1532494799989,-2,0,2,0,9,12,1,0
1532494799994,0,2,1,1,-15,-1,-7,1
1532494799999,-4,0,-4,-4,2,-2,1,-4
1532494800004,1,-5,-1,-3,-6,8,6,-1
1532494800009,-1,-2,2,-3,1,-6,-5,-2
1532494800014,1,-1,-4,3,8,6,1,1
1532494800019,0,-1,-5,-1,-8,-19,-11,-2
1532494800024,-4,-5,-7,-2,-5,0,-7,-4
1532494800029,-1,0,-3,-4,-3,-18,0,-1
1532494800034,-4,1,3,2,7,15,-1,-4
1532494800039,0,-5,0,3,-5,3,0,2
1532494800044,1,2,3,2,2,-14,-6,1
1532494800049,-3,1,-2,-1,3,8,-2,-3
1532494800054,-1,-4,-8,-12,-2,13,9,0
1532494800059,1,1,2,0,3,-19,-1,-3
1532494800064,-5,-2,-1,1,1,-2,-1,-2
1532494800069,0,2,3,4,4,12,2,3
1532494800074,-2,-2,2,2,-5,-9,-2,-2
1532494800079,-3,-2,3,0,1,5,3,-2
1532494800084,0,2,-2,-2,-6,2,-8,1
1532494800089,2,1,4,0,4,-4,1,2
1532494800094,-1,2,1,-4,-7,-14,0,-2
1532494800099,-1,2,-2,-1,3,7,1,-6
1532494800104,1,0,2,0,-4,-8,-1,-1
1532494800109,-3,-7,-8,-3,-1,10,3,-3
1532494800114,2,-2,-4,-2,-13,-1,-2,1
1532494800119,-1,-1,-3,0,0,-5,-2,1
1532494800124,-2,0,-1,-2,0,4,-2,-3
1532494800129,-1,0,-2,-1,-5,7,4,0
1532494800134,0,4,2,6,6,8,0,3
1532494800139,-2,-3,-5,-5,-8,-22,-5,-2
1532494800144,-1,-1,-1,-4,-1,-13,0,-2
1532494800149,0,-1,-1,0,5,4,1,0
1532494800154,-2,-5,2,-3,-18,16,-3,-2
1532494800159,1,2,7,-3,-5,-5,-2,1
1532494800164,-3,-1,-3,1,6,-7,-1,1
1532494800169,-3,1,-1,-3,-6,-5,-2,-6
1532494800174,0,-3,-7,2,8,7,-1,0
1532494800179,-1,1,1,1,5,7,0,-1
1532494800184,3,-2,-1,1,-9,-4,-3,0
1532494800189,0,3,1,2,6,0,3,-2
1532494800194,-1,0,1,-5,0,-5,-6,0
1532494800199,-3,-4,-5,-1,0,8,5,-3
1532494800204,3,1,-4,0,3,-5,3,2
1532494800209,0,1,3,-2,-3,3,-5,5
1532494800214,0,-4,-2,-2,1,-31,0,-2
1532494800219,4,0,4,4,-1,1,-2,1
1532494800224,-1,4,0,1,6,23,1,-6
1532494800229,-4,-7,-5,-3,-16,-8,-2,-6
1532494800234,2,2,1,-1,2,2,1,9
1532494800239,-1,-1,1,1,-2,-4,-7,-3
1532494800244,-2,-2,2,1,-2,3,9,0
1532494800249,2,5,0,0,0,-1,-2,-1
1532494800254,-4,0,-1,-4,5,-3,1,-5
1532494800259,0,5,-2,0,2,-1,2,3
1532494800264,-5,-1,-1,-3,-4,2,-5,-2
1532494800269,-2,-7,-5,-2,-8,-6,-3,1
1532494800274,1,1,2,2,2,9,-2,-3
1532494800279,-1,-4,-2,-3,3,2,0,-1
1532494800284,-1,-1,-3,0,2,-14,-1,0
1532494800289,-3,-2,-2,-2,1,1,7,-3
1532494800294,1,0,-1,4,0,21,-3,0
1532494800299,-2,-3,1,-4,-5,-14,-3,-3
1532494800304,0,-6,-3,0,-3,-22,-7,8
1532494800309,1,-3,-2,-3,0,21,1,-2
1532494800314,0,2,1,1,3,-6,3,0
1532494800319,-3,0,-2,-3,-2,25,0,-3
1532494800324,-1,-5,-3,-1,-13,-13,-1,0
1532494800329,1,1,-1,-2,1,-29,-8,1
1532494800334,-5,-2,-2,-7,-3,-2,3,-8
1532494800339,1,-1,-3,0,-1,3,-1,1
1532494800344,-2,-2,-2,2,4,7,0,-4
1532494800349,2,10,8,4,4,-1,-2,1
1532494800354,-1,-10,-3,3,-1,-3,-1,-4
1532494800359,2,1,0,2,-2,-5,1,11
1532494800364,-1,-3,-2,-2,-2,21,0,-2
1532494800369,0,3,2,2,1,-6,-4,-3
1532494800374,-3,-1,2,0,5,-26,0,-4
1532494800379,-3,-6,-3,-1,-3,6,-1,-6
1532494800384,4,6,4,3,8,10,1,8
1532494800389,-7,-7,-9,-12,-9,5,2,-3
1532494800394,-1,0,-2,-4,-4,1,0,3
1532494800399,-1,-3,0,2,5,-7,2,-1
1532494800404,0,4,1,-1,-4,-2,-4,-6
1532494800409,-2,-3,0,-3,-3,0,-2,-3
1532494800414,0,-1,-3,4,0,21,10,2
1532494800419,-3,-1,-3,-3,-7,-8,1,-3
1532494800424,-5,0,-2,-7,3,-36,-6,-4
1532494800429,-1,-2,-1,0,-1,-1,12,4
1532494800434,-1,1,2,-2,-1,-2,-27,0
1532494800439,-1,1,1,4,-4,10,8,-2
1532494800444,-1,-1,0,0,0,5,7,-6
1532494800449,-3,-6,-7,-4,-6,-7,-14,-2
1532494800454,1,3,-1,-4,-3,2,1,-5
1532494800459,2,-2,-1,0,3,2,2,5
1532494800464,-2,-3,-5,-4,-6,-1,-1,0
1532494800469,4,4,6,6,7,3,6,8
1532494800474,-2,-1,-3,-2,-3,-6,-20,-4
1532494800479,-2,-1,-1,-3,0,5,-1,-7
1532494800484,-1,-2,-1,-3,0,-5,-8,1
1532494800489,-1,-1,-1,3,-2,-1,-6,-2
1532494800494,2,2,2,7,15,4,6,-1
1532494800499,-2,-1,-3,-6,-6,-18,-13,-1
1532494800504,2,-1,-2,-5,-4,9,15,4
1532494800509,-1,2,-1,-1,-1,2,-11,-4
1532494800514,-3,-6,-5,-4,2,-6,3,-5
1532494800519,1,-1,1,4,5,6,1,0
1532494800524,-3,-2,0,0,-3,-3,-5,-3
1532494800529,-1,1,2,0,0,-20,-15,-5
1532494800534,4,1,0,2,2,26,34,17
1532494800539,-2,-1,-2,-3,-4,12,6,2
1532494800544,-2,-5,-4,3,1,-12,5,-2
1532494800549,-3,-3,-3,-6,-5,-5,-12,-7
1532494800554,1,1,0,0,-9,-9,4,2
1532494800559,-3,-1,-1,2,6,-4,-32,-10
1532494800564,1,1,-1,1,3,4,-7,-2
1532494800569,-1,-3,-2,0,-4,8,8,3
1532494800574,-2,0,-1,-3,-7,-13,-41,0
1532494800579,-3,-2,-1,-3,3,-12,22,-7
1532494800584,-1,1,-2,-2,-1,11,4,-5
1532494800589,0,0,-2,0,0,5,-14,4
1532494800594,-1,0,-1,-5,3,-5,24,-3
1532494800599,-1,-1,-1,2,1,-2,9,6
1532494800604,0,-1,0,1,-3,-3,-13,-2
1532494800609,0,-2,-3,2,6,-11,-8,-4
1532494800614,-3,-1,-1,-1,-4,9,10,1
1532494800619,1,0,-1,-3,-1,0,-17,-3
1532494800624,1,-4,1,3,-3,-9,2,-4
1532494800629,1,0,-1,-5,-3,16,8,6
1532494800634,-2,-1,-2,-2,0,-8,-6,-7
1532494800639,-1,-4,-3,-4,-5,1,4,3
1532494800644,-1,-2,2,-2,-2,0,4,1
1532494800649,0,0,1,5,6,16,-2,-4
1532494800654,1,0,-3,0,-1,-15,13,2
1532494800659,-2,-4,-2,-9,-8,7,1,9
1532494800664,-2,-1,1,2,3,-2,-14,-7
1532494800669,0,-3,-2,-1,0,-6,3,-1
1532494800674,-2,-1,-1,-3,-1,4,-12,1
1532494800679,0,0,-2,3,2,6,8,-4
1532494800684,-1,0,0,-4,-4,-2,-1,4
1532494800689,-2,1,-2,0,2,-18,34,-7
1532494800694,3,2,-1,-3,-12,1,-12,14
1532494800699,1,2,0,1,-2,-5,1,0
1532494800704,0,1,-1,2,2,7,1,1
1532494800709,-2,0,-2,0,5,4,2,4
1532494800714,-2,-2,-1,-3,2,-12,-7,-8
1532494800719,0,0,0,3,1,-7,-1,1
1532494800724,-1,1,-3,-1,1,3,3,1
1532494800729,1,-1,-1,-1,-1,3,5,5
1532494800734,-2,-2,-1,0,-5,1,1,-7
1532494800739,0,-1,0,3,3,-3,-8,-2
1532494800744,-1,-2,3,0,6,2,-5,-2
1532494800749,1,0,-1,-1,-8,-2,2,-5
1532494800754,-2,0,-1,-7,-4,0,18,3
1532494800759,0,0,-1,-2,-1,-1,-19,-3
1532494800764,-1,1,1,8,3,3,4,1
1532494800769,-1,-1,0,-1,1,-2,4,1
1532494800774,1,0,-1,-7,0,2,-8,-4
1532494800779,0,-1,-1,0,-2,0,2,2
1532494800784,0,1,0,-2,1,3,2,0
1532494800789,-2,0,1,4,-2,2,-14,-1
1532494800794,0,0,1,8,4,5,2,0
1532494800799,-1,-1,-2,-3,0,-6,3,0
1532494800804,-1,-2,-6,-11,-11,-6,-6,3
1532494800809,-1,0,-1,-3,-3,-5,-17,2
1532494800814,-1,0,-2,1,6,0,17,-5
1532494800819,-1,-3,0,1,-2,9,6,-4
1532494800824,-1,-1,-2,1,-6,-18,-4,-5
1532494800829,-1,-4,-3,-3,-2,6,8,0
1532494800834,-2,-2,-1,-3,-6,-8,-16,-6
1532494800839,-2,1,0,2,4,5,-4,0
1532494800844,0,-1,-1,1,0,6,11,1
1532494800849,0,-1,1,6,3,-3,-3,1
1532494800854,-2,-1,0,-1,1,-3,-12,-5
1532494800859,-3,-1,-1,-8,-8,-8,7,-9
1532494800864,1,0,-1,-3,-4,2,-7,4
1532494800869,0,-2,-6,-11,1,0,6,-1
1532494800874,0,-1,1,2,-6,-1,-11,2
1532494800879,-5,0,1,4,5,-1,4,-3
1532494800884,-2,-1,1,-3,-2,-1,0,2
1532494800889,0,1,0,0,-5,-1,-6,-4
1532494800894,0,2,-1,1,0,0,2,-1
1532494800899,3,-1,-1,0,1,-1,-1,5
1532494800904,-4,0,0,5,7,2,-3,0
1532494800909,-13,-1,-2,-3,-5,5,12,-1
1532494800914,9,-3,-5,-8,-10,-7,-1,4
1532494800919,-4,0,1,5,4,4,1,2
1532494800924,-1,-3,-2,1,1,-1,-1,-4
1532494800929,3,-3,-2,-9,-3,-8,-2,-2
1532494800934,0,-2,-2,-8,-4,-3,9,0
1532494800939,0,2,-1,7,5,6,0,4
1532494800944,-7,-16,-3,4,5,1,3,-4
1532494800949,-2,-16,-3,-5,-2,-3,-3,-1
1532494800954,-13,-20,2,-1,-1,2,-3,3
1532494800959,21,96,15,1,-3,0,-7,1
1532494800964,-29,-50,2,4,5,3,-1,0
1532494800969,30,0,-10,3,-1,-10,0,-5
1532494800974,-18,15,10,-2,1,13,7,-5
1532494800979,-3,-23,-11,-6,-6,-8,-12,0
1532494800984,12,42,5,-2,5,4,5,-1
1532494800989,-16,-22,-2,-3,-8,3,25,6
1532494800994,3,-13,-3,6,3,-13,-1,-8
1532494800999,-1,-27,-2,-1,4,-15,0,-1
1532494801004,-3,10,-7,-9,-8,22,8,2
1532494801009,-6,-4,0,-2,4,1,-17,-6
1532494801014,6,2,-2,2,2,8,-3,-2
1532494801019,-4,-1,3,6,3,0,11,0
1532494801024,2,-11,-2,0,-2,-18,-13,-3
1532494801029,0,13,6,-2,3,1,-3,4
1532494801034,7,6,-1,2,3,0,-1,1
1532494801039,-8,-24,-9,-8,-15,-7,-11,-9
1532494801044,3,1,0,0,-2,-6,-24,1
1532494801049,0,4,5,5,4,15,52,-1
1532494801054,1,4,-2,5,7,-3,-10,3
1532494801059,-4,-11,0,-2,-6,7,24,4
1532494801064,2,-1,-2,-6,0,-5,-1,-4
1532494801069,-3,10,0,-4,-6,-8,-24,-4
1532494801074,2,-10,-8,-8,-6,4,-5,-1
1532494801079,0,-4,3,5,5,4,-5,3
1532494801084,3,5,2,7,2,1,2,1
1532494801089,-4,-3,-1,0,3,-9,-6,-5
1532494801094,0,-1,0,-4,-10,-15,-2,-2
1532494801099,2,-7,0,0,-1,10,-4,-5
1532494801104,0,4,-2,-5,-6,-3,-17,-1
1532494801109,1,-5,1,2,-1,0,4,4
1532494801114,1,0,-4,-3,-2,0,16,1
1532494801119,0,0,1,2,4,8,9,5
1532494801124,0,-6,1,1,-1,5,-6,2
1532494801129,-1,7,1,2,2,-14,-15,-2
1532494801134,0,2,-1,-1,2,5,-1,-1
1532494801139,-8,-9,-2,-5,-6,-13,-37,-13
1532494801144,3,10,1,2,2,15,61,9
1532494801149,-5,-7,-2,-3,-4,6,-6,4
1532494801154,7,-25,-2,3,1,-2,3,-2
1532494801159,0,15,2,5,5,0,-8,-1
1532494801164,-1,2,0,-6,-6,-9,-17,-7
1532494801169,-5,8,-3,-2,-2,16,7,8
1532494801174,8,11,-8,-1,0,-6,-6,0
1532494801179,0,-18,7,-6,-7,-3,6,0
1532494801184,0,0,1,2,2,-5,-3,-3
1532494801189,3,6,6,9,4,1,-4,-4
1532494801194,-21,-9,-4,-6,-4,0,4,-1
1532494801199,14,4,-6,-13,-10,-3,4,0
1532494801204,2,-1,-5,-7,-4,-5,1,0
1532494801209,-1,-5,3,3,4,-6,-10,-2
1532494801214,3,4,1,4,5,1,3,3
1532494801219,-4,-1,-3,-1,0,-3,7,-6
1532494801224,-4,0,0,-2,-4,2,-3,-3
1532494801229,2,-3,-6,-3,-2,-8,-48,-5
1532494801234,0,4,1,1,-2,4,44,-1
1532494801239,-3,-1,0,5,5,3,-8,1
1532494801244,0,-6,-4,1,2,-2,12,-1
1532494801249,-3,-2,-4,-5,-6,-4,-6,-9
1532494801254,-1,3,1,-5,-7,-13,-17,-2
1532494801259,-2,-5,-2,-3,0,1,7,-2
1532494801264,0,0,0,1,-2,0,-5,2
1532494801269,0,-6,-1,6,4,3,11,3
1532494801274,1,3,2,2,1,3,-9,2
1532494801279,1,-7,-6,0,3,3,9,2
1532494801284,-4,4,2,3,0,-3,-11,-3
1532494801289,6,1,-1,-11,-11,-1,-4,-4
1532494801294,-3,2,-2,-5,-1,-3,27,1
1532494801299,6,-1,2,12,9,1,2,6
1532494801304,-1,-1,-1,0,1,0,2,-1
1532494801309,-2,-1,-4,-4,-2,-1,3,5
1532494801314,1,-2,3,4,7,2,-23,-5
1532494801319,-4,-1,-2,-6,-7,-6,-10,-7
1532494801324,0,-1,1,2,4,1,23,3
1532494801329,0,3,-5,-4,-2,2,-1,-1
1532494801334,1,-3,-4,-4,-9,-3,-9,-2
1532494801339,-2,1,0,-1,-1,-2,-4,0
1532494801344,0,-4,2,-1,-2,0,-7,-1
1532494801349,-12,-3,1,1,-1,-4,3,-4
1532494801354,2,1,1,4,4,7,-6,1
1532494801359,-1,11,4,3,6,0,-3,4
1532494801364,3,-13,-8,-6,-5,-5,-4,-4
1532494801369,-1,0,-1,0,-6,1,8,-2
1532494801374,-3,-1,-2,-4,-4,-7,-27,-6
1532494801379,2,-5,-2,1,-3,7,12,-4
1532494801384,-1,7,8,10,13,6,47,7
1532494801389,5,1,-3,-2,0,-4,-5,-1
1532494801394,-10,-7,-8,-16,-15,-4,-10,-2
1532494801399,-12,2,1,1,2,1,-11,-3
1532494801404,10,-3,-3,-2,-3,-7,-5,-9
1532494801409,3,4,3,4,5,7,9,2
1532494801414,0,0,1,4,4,-8,6,-3
1532494801419,0,-5,-3,-3,1,5,11,1
1532494801424,-7,0,-1,-4,-5,-1,-12,-5
1532494801429,-3,-1,1,2,2,-3,-2,-1
1532494801434,4,4,4,4,9,6,17,-2
1532494801439,-3,1,-5,-4,-6,-4,1,-1
1532494801444,-3,-7,-8,-6,-8,-9,-18,-1
1532494801449,0,-2,0,-2,-1,-2,0,-3
1532494801454,-3,1,2,2,4,2,-3,-5
1532494801459,1,9,2,3,1,4,20,-3
1532494801464,0,-16,-6,-1,-2,3,-2,0
1532494801469,0,-2,-2,-1,-1,1,-9,1
1532494801474,2,0,2,0,3,4,1,2
1532494801479,0,-4,0,1,4,-9,0,3
1532494801484,-2,9,3,3,3,2,-13,3
1532494801489,-2,-3,-5,-3,-1,1,1,1
1532494801494,-1,-6,-5,-8,-11,-5,-15,0
1532494801499,1,0,0,-2,-7,-9,13,-1
1532494801504,-3,4,2,2,6,7,-2,8
1532494801509,0,-9,4,6,9,3,4,0
1532494801514,6,8,-4,-3,-8,-11,-3,3
1532494801519,-2,-5,-3,-3,-2,-4,-14,-2
1532494801524,-2,2,2,2,5,-1,-1,-4
1532494801529,0,0,1,2,5,8,-4,-5
1532494801534,-1,-4,-7,-5,-11,-5,-2,5
1532494801539,-2,-5,-1,-3,0,3,-12,-3
1532494801544,1,-1,-2,-5,-6,5,-2,4
1532494801549,0,6,4,2,3,-28,-4,0
1532494801554,-2,-1,1,6,5,6,6,-3
1532494801559,-1,-4,-2,0,-1,-6,-10,-4
1532494801564,-4,1,-1,2,-1,14,9,-5
1532494801569,0,0,-3,-6,-12,-10,-12,-2
1532494801574,-1,0,1,-1,0,-6,3,1
1532494801579,1,-2,1,1,4,1,8,2
1532494801584,-1,3,4,4,1,-6,-12,-4
1532494801589,-2,-2,-5,-2,-3,6,7,1
1532494801594,-2,-3,-3,-7,-5,1,-5,-3
1532494801599,-1,-1,-2,-3,-2,9,-2,0
1532494801604,-1,0,-3,-4,-2,-4,-1,-3
1532494801609,-1,1,4,2,3,3,-17,-2
1532494801614,0,0,2,3,6,-6,31,-3
1532494801619,0,-1,0,-1,-5,8,-7,2
1532494801624,-1,0,-1,1,1,-10,-7,-2
1532494801629,-1,0,0,1,0,0,8,-3
1532494801634,0,-1,-3,-2,4,5,-14,-4
1532494801639,0,-2,-1,1,-3,-6,-1,-1
1532494801644,-1,-1,-4,-2,-2,-4,-1,-4
1532494801649,0,1,0,-1,1,-2,14,3
1532494801654,-2,0,4,2,4,11,-9,-1
1532494801659,-2,-1,1,3,-1,-12,1,-7
1532494801664,-2,-3,-6,-12,-11,-1,-20,5
1532494801669,-1,-1,-1,-3,-1,-9,-1,-3
1532494801674,-1,0,3,1,-2,-11,-7,0
1532494801679,2,0,3,7,7,5,-5,3
1532494801684,0,-3,-4,-1,-3,-2,-3,-4
1532494801689,-1,-1,-4,-7,-7,5,32,1
1532494801694,0,0,1,-1,2,0,-11,2
1532494801699,0,2,0,2,1,0,1,3
1532494801704,0,-3,0,3,1,0,-2,-4
1532494801709,0,-1,-1,-1,0,7,13,4
1532494801714,-1,-1,-1,1,-2,2,-3,-1
1532494801719,0,-1,-1,-1,4,3,0,-2
1532494801724,0,4,1,-1,-1,-3,3,-1
1532494801729,-1,-1,-2,0,-1,-1,-6,0
1532494801734,-2,-1,1,1,1,0,-11,-3
1532494801739,1,0,1,-1,-3,-1,23,-1
1532494801744,1,-2,-4,-5,-2,-6,-18,2
1532494801749,-1,0,-2,1,0,0,10,1
1532494801754,0,-1,-3,-4,-2,6,-5,-2
1532494801759,0,-3,-3,-4,-6,7,5,3
1532494801764,-3,1,3,3,7,-14,-20,-5
1532494801769,0,-1,1,0,-3,-2,2,-3
1532494801774,-2,-3,-3,-1,-2,-6,1,6
1532494801779,-1,-2,-2,-1,-4,2,-12,-4
1532494801784,0,0,0,-2,0,11,23,3
1532494801789,-4,-2,-4,-5,-2,-2,-11,1
1532494801794,1,-3,-1,1,-1,2,7,-1
1532494801799,-3,0,-1,-3,-3,-10,-4,-3
1532494801804,-2,1,1,1,2,1,4,0
1532494801809,-1,0,2,-1,2,2,0,-1
1532494801814,-1,0,0,3,2,4,2,-4
1532494801819,-1,-2,-1,-3,-3,-7,-12,-2
1532494801824,-1,0,-11,-4,-4,1,15,1
1532494801829,0,0,1,-1,-1,2,-6,-3
1532494801834,-2,-2,-5,-3,-2,-3,1,-2
1532494801839,-1,0,3,0,1,-5,-5,0
1532494801844,-1,-1,2,2,-3,-6,0,0
1532494801849,0,0,-3,-1,-2,4,11,-2
1532494801854,0,1,3,1,0,1,-1,0
1532494801859,-1,-3,-6,-6,-1,-2,-3,-1
1532494801864,0,-1,-2,2,-2,1,1,-3
1532494801869,0,0,0,-4,-3,-4,-8,0
1532494801874,-2,0,0,-2,-1,-2,1,-3
1532494801879,-2,-3,0,-3,-3,-4,-7,-1
1532494801884,-1,-3,0,0,1,5,14,-3
1532494801889,0,-3,6,4,3,0,-3,2
1532494801894,0,1,-8,-2,-3,-2,2,3
1532494801899,-2,-1,-1,-2,-1,-2,-5,-3
1532494801904,0,1,3,-1,0,-2,-1,-1
1532494801909,2,-1,1,-1,-2,0,-15,-4
1532494801914,0,0,3,3,-2,2,8,-1
1532494801919,0,1,1,0,2,1,-1,2
1532494801924,1,-3,-7,-6,-8,-6,3,0
1532494801929,-1,0,-4,-2,3,-4,-6,-2
1532494801934,2,-1,-1,-2,-1,5,1,-1
1532494801939,-1,1,-1,2,2,1,8,1
1532494801944,-2,1,3,0,-4,-2,-1,-1
1532494801949,-2,-2,-7,-4,-8,3,-7,1
1532494801954,0,0,1,0,1,-12,-4,-4
1532494801959,0,0,1,3,-1,3,2,-2
1532494801964,-2,0,3,0,4,-7,-6,1
1532494801969,-3,-2,-5,1,1,5,3,0
1532494801974,-2,-1,0,0,-2,3,-4,0
1532494801979,0,-1,-5,-1,0,-1,-1,-2
1532494801984,-2,-1,-2,-2,1,-1,-5,-2
1532494801989,0,0,0,2,-2,-1,-4,-2
1532494801994,0,-4,-5,-4,-3,-1,4,4
1532494801999,0,1,4,0,0,1,1,6
1532494802004,-1,-1,-1,-2,1,2,-4,4
1532494802009,-1,2,8,3,0,-9,7,1
1532494802014,0,1,-2,-5,-3,1,4,-1
1532494802019,-2,-3,0,2,-4,-5,-3,-5
1532494802024,-1,1,-2,-3,2,10,2,-3
1532494802029,0,-1,0,-5,-6,1,-2,-3
1532494802034,-3,-1,3,2,5,-4,-8,-4
1532494802039,0,-1,-4,0,0,3,-11,5
1532494802044,0,0,6,2,0,3,7,-2
1532494802049,-1,-2,0,-1,2,-2,-3,-2
1532494802054,-1,-1,-16,-2,-1,1,-2,0
1532494802059,-3,-2,1,-3,-4,3,6,0
1532494802064,1,1,-5,-1,-5,-9,0,2
1532494802069,1,0,1,2,-1,0,2,-2
1532494802074,-1,-1,4,1,-1,3,6,-2
1532494802079,0,-2,-2,-9,-3,-5,-2,-3
1532494802084,-1,-1,1,0,-2,-6,-4,1
1532494802089,0,0,-9,-3,1,-3,1,0
1532494802094,-1,-3,7,-5,-5,-3,-4,-1
1532494802099,1,1,3,2,2,6,3,-5
1532494802104,-2,-3,5,-3,-7,-3,4,-7
1532494802109,0,-1,-7,3,2,3,-6,-5
1532494802114,-2,1,5,0,4,0,-2,0
1532494802119,1,0,-8,2,-2,3,1,1
1532494802124,0,-2,2,0,1,7,1,0
1532494802129,-1,-2,-1,-4,-4,-4,0,1
1532494802134,-2,1,-1,3,-2,-3,-4,-1
1532494802139,-1,0,1,0,7,0,-3,-5
1532494802144,-1,1,-1,0,-1,-3,-5,-4
1532494802149,0,-2,4,-1,-1,-4,-2,-3
1532494802154,1,-3,-8,-5,-3,1,-10,-3
1532494802159,-2,-2,0,-2,-5,-9,11,-2
1532494802164,-2,-1,-5,-4,1,8,-6,1
1532494802169,-3,-1,0,-1,1,-3,3,1
1532494802174,-1,0,4,-1,-4,0,2,0
1532494802179,-2,-3,-2,2,-1,0,-4,1
1532494802184,0,-2,-1,2,4,-3,-2,1
1532494802189,0,2,0,0,-2,-1,1,-1
1532494802194,-1,-2,-3,-1,3,3,-3,-2
1532494802199,1,2,-3,-3,-8,-3,-1,0
1532494802204,1,0,-1,1,-2,-4,1,-1
1532494802209,0,-1,2,2,3,2,0,0
1532494802214,0,1,-1,-6,-1,1,7,1
1532494802219,-1,0,-4,-6,2,-2,0,1
1532494802224,-1,-3,0,1,-6,2,-5,0
1532494802229,-1,-1,-4,-3,-1,-16,-8,-1
1532494802234,-2,-1,7,-2,-3,-6,2,-2
1532494802239,0,-3,-13,0,-2,7,4,0
1532494802244,0,1,1,-1,2,2,2,1
1532494802249,-1,0,0,-2,-4,6,1,1
1532494802254,-1,-1,0,3,1,-4,-5,-1
1532494802259,-1,-1,6,2,0,2,5,-1
1532494802264,-1,-1,-1,4,6,8,3,-1
1532494802269,-2,-4,-3,-3,-5,-2,1,0
1532494802274,-1,-1,-5,-5,-1,-2,1,-1
1532494802279,-2,-1,1,-4,-1,-7,-6,-1
1532494802284,0,-2,-8,-1,0,9,6,-1
1532494802289,0,1,2,0,-1,-13,-7,0
1532494802294,0,0,-3,2,2,-6,-14,2
1532494802299,0,-1,1,1,2,4,22,0
1532494802304,-1,8,-2,-3,-2,-4,-1,-1
1532494802309,-4,-17,-6,-6,-6,7,-2,-3
1532494802314,-1,-2,1,4,1,6,2,-1
1532494802319,1,0,3,3,9,-13,-9,-3
1532494802324,1,1,1,-3,-11,-13,-4,2
1532494802329,-2,0,-3,-7,-6,-6,5,-1
1532494802334,-1,0,-3,-2,-4,12,2,0
1532494802339,-1,-3,3,-3,-1,-9,-6,0
1532494802344,0,1,1,7,6,16,16,2
1532494802349,0,1,2,5,5,3,-9,-1
1532494802354,-1,-3,-6,-3,-5,-5,2,0
1532494802359,0,2,1,-1,-4,8,-3,0
1532494802364,-1,-4,-1,-2,0,-8,-10,-1
1532494802369,0,1,-2,2,0,1,2,-1
1532494802374,-1,0,0,-2,-1,2,2,-1
1532494802379,0,0,-1,0,2,7,0,2
1532494802384,-3,-4,-1,-1,-4,0,-8,-3
1532494802389,0,0,2,-2,-3,-11,-1,2
1532494802394,0,2,-3,4,10,-7,7,-1
1532494802399,-3,1,1,-3,-8,-12,-8,-2
1532494802404,-1,-5,-4,-2,1,-1,0,0
1532494802409,2,5,-1,-7,-9,12,2,1
1532494802414,-1,-5,-1,-4,-6,-2,-1,-2
1532494802419,-1,-2,1,3,6,-7,-5,0
1532494802424,-1,-3,-2,3,1,11,3,-3
1532494802429,0,4,-2,4,10,-5,-3,1
1532494802434,0,0,-2,-2,-13,-9,-3,-2
1532494802439,0,-2,-2,-3,1,1,4,-2
1532494802444,0,-3,1,-2,-1,7,-3,-2
1532494802449,0,-3,1,1,2,16,-2,-3
1532494802454,-1,-1,2,1,4,-22,-5,0
1532494802459,-2,-2,-3,-1,-8,-7,-1,0
1532494802464,-2,2,0,0,3,-11,-2,-2
1532494802469,-2,0,-1,-3,-12,-10,-1,-1
1532494802474,-2,-1,-2,0,1,12,0,-2
1532494802479,0,0,-1,2,3,11,1,-1
1532494802484,-1,-2,0,-5,-9,-18,0,0
1532494802489,-1,-2,2,7,8,11,4,-1
1532494802494,-1,-2,-3,-8,-7,10,1,0
1532494802499,-3,-3,-1,-4,0,-15,-14,0
1532494802504,0,0,-1,3,2,6,12,0
1532494802509,-1,-1,-3,-3,-1,-4,-5,-2
1532494802514,-1,1,2,1,-7,-25,3,-2
1532494802519,-2,-1,-4,0,0,5,-3,-3
1532494802524,-3,-4,-2,-1,1,1,-4,-2
1532494802529,0,2,1,4,2,9,-4,-2
1532494802534,1,-1,-2,2,5,13,1,0
1532494802539,-1,-1,-1,-5,-7,0,1,0
1532494802544,0,-2,0,-1,-3,-11,-4,0
1532494802549,-2,-3,-1,-5,-9,-9,1,-1
1532494802554,-2,1,1,0,6,0,-4,-2
1532494802559,1,-2,-2,3,3,6,5,0
1532494802564,0,0,-2,2,3,10,1,-2
1532494802569,0,-2,-2,-11,1,-8,1,-2
1532494802574,-2,-1,1,4,7,4,-1,-1
1532494802579,-1,1,3,1,-10,7,-2,1
1532494802584,-1,-2,-2,-8,-4,-8,6,0
1532494802589,-2,-2,-4,0,-4,-9,0,0
1532494802594,0,0,0,0,0,-6,-2,-1
1532494802599,0,-2,-1,0,3,3,0,1
1532494802604,0,0,-2,1,3,9,-4,-1
1532494802609,-1,0,4,5,-2,-12,3,1
1532494802614,-1,4,-3,-5,-7,13,0,2
1532494802619,-3,-6,-3,-5,-7,-15,-3,-3
1532494802624,-1,-1,4,-1,-11,-11,-4,-2
1532494802629,0,1,-1,0,8,22,6,-1
1532494802634,-1,-2,1,-2,-1,-10,-7,-3
1532494802639,2,1,1,2,2,7,2,-1
1532494802644,-2,-3,-3,-1,5,-13,-4,-1
1532494802649,-5,-2,-2,-2,-5,2,-1,0
1532494802654,0,-2,-2,2,2,10,7,1
1532494802659,0,2,5,2,1,15,-4,-3
1532494802664,-1,-3,-5,1,2,-36,-6,-2
1532494802669,1,1,-1,3,3,-1,2,-1
1532494802674,0,-4,-1,-1,0,0,1,-1
1532494802679,-3,-4,-2,-6,-4,3,2,0
1532494802684,-1,-2,1,-2,-1,8,-7,-1
1532494802689,-1,1,-1,-4,-4,-8,-8,-1
1532494802694,0,-1,0,2,-8,-10,2,1
1532494802699,-1,-4,-3,-1,7,6,-1,-3
1532494802704,-1,1,-1,2,0,8,1,1
1532494802709,0,-1,-2,-4,3,2,1,0
1532494802714,-1,-2,-3,0,-1,5,-4,-1
1532494802719,1,4,4,6,5,-17,-1,1
1532494802724,1,1,-4,-5,-3,-18,1,0
1532494802729,-1,-1,-1,-2,0,7,0,-2
1532494802734,1,-2,-3,-1,0,2,-1,-2
1532494802739,-2,-2,-2,-1,-5,12,2,-3
1532494802744,0,-1,2,-1,-5,-6,0,0
1532494802749,1,1,-2,2,4,-6,5,3
1532494802754,-1,1,3,2,0,6,0,1
1532494802759,-2,-4,-4,-4,-2,-13,-3,-2
1532494802764,-2,-3,-1,-6,4,18,-3,-1
1532494802769,-1,-2,1,5,19,2,-3,-2
1532494802774,-1,-1,1,-2,-4,18,2,1
1532494802779,0,0,-5,2,-7,-35,-5,2
1532494802784,-1,3,0,2,-3,-8,0,0
1532494802789,-2,-2,1,-1,-2,1,-2,-3
1532494802794,-1,-3,-1,1,6,-8,1,-1
1532494802799,0,2,3,2,0,19,0,0
1532494802804,0,1,-1,5,4,6,-1,-3
1532494802809,-2,-2,-6,-6,-2,-3,-1,-4
1532494802814,-4,-2,-2,-5,-9,-6,-2,-2
1532494802819,2,0,-2,-6,-6,-9,0,4
1532494802824,-1,1,0,1,-2,4,2,-1
1532494802829,1,-1,3,5,-9,6,2,2
1532494802834,-1,-5,1,-3,7,-13,-7,-7
1532494802839,0,1,-4,-6,6,14,3,-3
1532494802844,1,-5,-2,0,-3,-12,-1,11
1532494802849,-2,0,-1,-1,-7,-2,2,-2
1532494802854,1,3,-1,0,1,-1,0,2
1532494802859,-2,-4,0,2,2,7,-1,-2
1532494802864,0,2,-5,-3,-2,2,-3,-3
1532494802869,0,-2,-6,-4,-4,-13,-3,2
1532494802874,-2,-2,-5,-4,-13,-14,-6,0
1532494802879,-1,-1,-2,0,1,12,4,-3
1532494802884,3,7,5,1,6,5,0,-2
1532494802889,-5,-9,-3,-7,-17,6,2,-2
1532494802894,1,3,2,7,1,-16,-5,1
1532494802899,-1,-3,-4,-5,-8,0,-4,-6
1532494802904,2,2,0,-5,-9,-15,-1,3
1532494802909,0,3,2,1,9,1,5,2
1532494802914,-2,-4,-2,0,4,17,2,-1
1532494802919,-1,1,4,1,-5,-8,-1,1
1532494802924,-2,-8,-4,-1,5,2,0,-7
1532494802929,1,1,1,-4,-4,2,-4,0
1532494802934,-1,-2,5,4,4,12,6,2
1532494802939,-1,-1,-4,2,6,-23,-6,-2
1532494802944,0,6,1,-5,-15,10,1,-3
1532494802949,1,-3,1,3,1,-1,-1,0
1532494802954,-3,-2,-6,-6,-3,-3,0,-1
1532494802959,0,-1,-3,0,-2,3,-1,-1
1532494802964,0,-1,4,5,3,22,8,3
1532494802969,1,4,1,1,1,-9,-9,-2
1532494802974,-1,1,-1,-2,-5,1,1,-1
1532494802979,0,6,1,0,-6,-19,0,2
1532494802984,-4,-8,-7,-3,-1,10,0,-7
1532494802989,0,-3,-1,-1,5,-15,-3,-2
1532494802994,3,2,1,-2,-1,6,0,9
1532494802999,2,4,2,-2,1,3,2,-2
1532494803004,-3,-4,-3,-1,1,4,0,-2
1532494803009,-1,3,1,5,1,2,3,-4
1532494803014,-1,-1,-1,-2,4,-7,-1,-3
1532494803019,-2,-3,-1,-7,-14,11,0,2
1532494803024,-1,0,0,-1,4,-16,-6,-2
1532494803029,-2,-1,1,-1,3,6,-1,-5
1532494803034,1,0,-2,1,0,-4,0,3
1532494803039,-3,-5,0,3,2,-6,1,-2
1532494803044,1,-2,1,0,8,-3,-4,-1
1532494803049,-1,-3,2,1,-12,6,2,1
1532494803054,2,6,3,0,1,6,-1,-2
1532494803059,-5,-7,-4,-5,-6,-15,-6,-4
1532494803064,0,3,3,0,2,4,2,-2
1532494803069,4,8,2,-1,3,3,3,0
1532494803074,-2,-9,-7,-1,-8,-10,-2,-4
1532494803079,1,5,7,3,3,-5,-2,6
1532494803084,0,2,-2,-4,-10,1,1,1
1532494803089,-3,-4,-5,-1,10,-5,-3,-3
1532494803094,-3,1,3,0,-4,7,-1,-1
1532494803099,0,1,-2,0,3,4,-2,0
1532494803104,-3,-4,0,2,-9,-13,0,-2
1532494803109,-1,-10,-5,-7,-6,8,-5,-1
1532494803114,2,3,3,3,7,6,2,2
1532494803119,-2,-1,-2,-3,1,-6,0,0
1532494803124,-2,-3,0,0,2,-5,-2,-2
1532494803129,-2,1,-5,-3,-2,1,0,-1
1532494803134,-3,-2,-4,-4,-6,3,0,-3
1532494803139,4,4,2,3,2,-5,2,0
1532494803144,0,-3,-4,3,4,-2,1,2
1532494803149,0,0,0,-6,-10,2,0,1
1532494803154,-2,-8,-2,-3,-6,-14,-4,-4
1532494803159,-1,2,0,4,9,15,1,-2
1532494803164,-3,-2,-3,-5,-1,2,-3,-3
1532494803169,-2,1,0,2,4,-6,2,1
1532494803174,-2,5,1,-2,-4,-1,1,-6
1532494803179,-3,-6,-4,-2,-9,7,3,3
1532494803184,0,-1,-1,0,1,3,-1,1
1532494803189,-1,-1,0,0,0,-1,-3,0
1532494803194,2,7,3,-1,3,0,-1,1
1532494803199,-3,-4,-6,-6,-2,-10,-1,-7
1532494803204,-3,-8,5,1,-3,6,2,-2
1532494803209,3,-3,-3,3,5,4,-3,10
1532494803214,1,-2,0,3,-5,-8,-3,0
1532494803219,0,1,1,1,6,18,3,1
1532494803224,0,5,2,-3,0,1,2,-2
1532494803229,-4,-4,-1,-2,-5,-11,-1,-6
1532494803234,0,1,-4,-6,3,-4,0,1
1532494803239,-2,-10,-7,-4,-5,-2,-3,-1
1532494803244,-2,-3,-4,-3,-6,-8,0,-4
1532494803249,1,4,2,2,14,14,-5,-1
1532494803254,1,-2,-1,3,0,7,1,2
1532494803259,4,3,4,4,4,-8,-3,3
1532494803264,0,8,2,0,2,3,2,1
1532494803269,-6,-11,-7,-3,-6,-7,-3,-5
1532494803274,-2,-4,0,0,4,5,3,-3
1532494803279,-2,-4,-2,-3,-10,-6,-3,-5
1532494803284,1,4,-1,0,2,0,-2,1
1532494803289,1,0,0,3,-1,1,5,0
1532494803294,-1,0,1,-2,1,-3,-2,-1
1532494803299,-2,-6,-6,-3,0,5,1,-5
1532494803304,0,-2,-3,0,-3,-5,-3,-2
1532494803309,4,6,3,-1,-5,-3,2,1
1532494803314,0,-1,-3,-2,-8,-2,0,7
1532494803319,-1,-5,-3,1,6,3,4,1
1532494803324,0,-1,-3,-2,-1,3,-2,-1
1532494803329,-3,-2,0,-2,-2,-5,-6,-6
1532494803334,-2,-1,-1,-1,-1,-10,1,-4
1532494803339,-2,2,0,0,4,14,1,2
1532494803344,1,2,3,-1,0,-4,-2,4
1532494803349,-2,-6,-5,1,-5,-1,1,-1
1532494803354,-2,-2,-2,-2,-7,-20,-8,-7
1532494803359,2,5,1,4,5,26,14,2
1532494803364,-4,-2,0,-1,4,-4,1,-9
1532494803369,0,1,-1,-3,-5,-2,-4,4
1532494803374,1,-1,-3,-3,-1,-4,-11,-3
1532494803379,4,2,1,-1,5,-4,-5,7
1532494803384,-1,-1,-1,-1,-5,4,1,3
1532494803389,-2,-1,-3,-5,-1,5,-2,-8
1532494803394,1,1,0,3,4,-3,21,11
1532494803399,-3,-2,-2,-2,-8,3,-5,-9
1532494803404,2,-2,-4,-3,0,-10,-8,6
1532494803409,-1,2,1,4,6,-2,-2,2
1532494803414,-3,-3,0,1,-2,7,3,-7
1532494803419,0,-2,1,-1,-2,-14,-22,-2
1532494803424,-1,0,-1,0,-2,2,-13,1
1532494803429,1,-1,0,-3,-7,0,33,-5
1532494803434,-1,-1,-2,-1,3,4,4,8
1532494803439,-1,3,0,0,-1,-9,1,-2
1532494803444,-3,-3,-1,-1,0,5,-2,-4
1532494803449,1,0,2,1,-1,-3,3,2
1532494803454,-2,0,0,0,4,2,3,-8
1532494803459,-2,-3,-5,-5,-8,-6,-8,3
1532494803464,-3,-2,-1,-3,-5,-1,-7,-4
1532494803469,2,2,3,5,7,6,-3,11
1532494803474,-1,-1,-1,-2,-4,2,1,0
1532494803479,-1,0,1,0,-1,-7,12,0
1532494803484,3,-1,1,0,2,0,-9,-1
1532494803489,-4,-4,-4,-3,-4,0,7,-5
1532494803494,-1,0,-4,0,3,1,-7,-2
1532494803499,0,-1,1,-3,-4,-3,-13,-4
1532494803504,3,1,0,4,8,2,27,11
1532494803509,-3,0,-1,-1,-6,5,-2,-3
1532494803514,-1,-1,-1,-2,2,-6,-17,-2
1532494803519,-4,0,-3,-4,-4,-1,25,2
1532494803524,0,-1,1,2,-5,-4,-49,-5
1532494803529,0,0,1,0,0,11,29,2
1532494803534,1,-3,-4,-3,-3,0,20,-2
1532494803539,-3,-2,0,1,2,-4,-1,-2
1532494803544,-2,-3,-3,-3,-3,-8,11,1
1532494803549,-2,-1,0,-3,-3,-7,-14,-4
1532494803554,0,-2,2,0,-4,3,-6,-7
1532494803559,1,1,2,2,4,-1,-9,2
1532494803564,0,-2,-1,-4,-9,10,15,3
1532494803569,1,-2,1,4,3,-17,-16,4
1532494803574,0,-3,0,-2,2,1,16,3
1532494803579,0,-2,-2,0,-2,-10,-7,-2
1532494803584,-2,-2,-2,-2,-1,17,15,-5
1532494803589,0,1,0,-3,-10,-15,-16,-2
1532494803594,-2,0,2,-1,-4,17,-11,-5
1532494803599,1,-2,-1,2,7,2,20,3
1532494803604,-3,-3,-1,1,-3,-13,1,-5
1532494803609,-1,1,-1,0,-1,-7,-19,-5
1532494803614,0,1,-1,2,2,1,-1,-2
1532494803619,-4,0,-3,-1,-6,-5,-9,-9
1532494803624,0,1,0,-1,2,2,6,3
1532494803629,-2,1,1,-1,-1,-8,-14,-6
1532494803634,0,1,-2,-1,-2,-9,-20,-3
1532494803639,0,0,0,-3,-1,12,1,1
1532494803644,-1,1,-1,3,5,-2,6,-3
1532494803649,-3,-1,-4,-4,-8,-2,-7,-4
1532494803654,0,0,-1,1,-3,2,7,6
1532494803659,0,1,1,-1,2,1,1,0
1532494803664,1,0,0,3,7,2,-6,5
1532494803669,0,0,-3,-4,2,3,7,-1
1532494803674,-2,-1,0,-3,0,-7,2,-4
1532494803679,-1,0,-1,-4,-4,-9,1,-2
1532494803684,-2,-2,-1,-4,1,-8,-14,-2
1532494803689,1,0,3,7,-3,12,12,2
1532494803694,-2,-2,-5,-6,-2,1,12,2
1532494803699,0,1,-1,0,3,-6,-20,-7
1532494803704,1,0,-2,2,1,3,-2,2
1532494803709,1,-1,-2,-2,2,-2,0,4
1532494803714,0,-1,3,-2,-2,3,-2,4
1532494803719,1,-2,-4,1,-2,-1,11,1
1532494803724,0,-1,0,-2,-9,-6,-25,1
1532494803729,-3,-3,-1,2,4,0,11,-3
1532494803734,0,-2,-1,-2,-4,-1,-13,1
1532494803739,1,0,2,0,3,1,1,2
1532494803744,0,1,-2,-2,-2,-7,11,-1
1532494803749,-1,-1,0,-1,-1,-3,-1,-1
1532494803754,-3,-4,-3,-3,-2,0,14,-1
1532494803759,-1,-2,0,3,-3,1,6,-2
1532494803764,0,-2,-1,-3,1,-3,-10,-3
1532494803769,1,0,0,-3,-1,8,22,2
1532494803774,-3,1,0,2,-4,-6,-10,-1
1532494803779,-1,-2,1,3,1,2,-6,-2
1532494803784,-1,-1,-2,-2,-3,-2,14,-2
1532494803789,-2,0,1,0,-2,-6,-15,-2
1532494803794,-1,0,-2,-1,0,-3,-3,-1
1532494803799,-2,-1,-4,-10,-5,2,1,3
1532494803804,-1,0,4,1,1,2,-4,-4
1532494803809,1,-3,-3,0,4,3,3,0
1532494803814,1,-1,1,5,6,-3,-15,-3
1532494803819,0,0,-1,-1,-3,2,18,1
1532494803824,-1,0,-2,-2,-2,0,-1,0
1532494803829,-1,-1,-3,1,2,-6,-19,-3
1532494803834,1,0,0,-3,4,13,26,-1
1532494803839,-1,2,1,-3,1,-1,-12,-4
1532494803844,0,0,0,2,0,3,8,3
1532494803849,-1,-1,0,-5,-7,1,-5,4
1532494803854,-3,-2,-3,-3,-4,-10,-18,-3
1532494803859,2,1,4,13,8,5,12,1
1532494803864,0,0,-2,-1,-2,2,2,-2
1532494803869,-1,0,-3,-12,-8,-2,7,0
1532494803874,1,1,0,2,2,-14,-6,-1
1532494803879,-14,-2,6,-9,-10,-6,1,-5
1532494803884,3,4,-13,-4,-4,-1,-6,1
1532494803889,3,-11,1,2,-1,2,-7,-5
1532494803894,-1,0,0,5,8,2,0,2
1532494803899,2,-3,1,-8,-12,-9,-7,-4
1532494803904,-4,-3,-2,-13,-14,-3,1,-4
1532494803909,-1,3,0,0,1,3,-12,6
1532494803914,2,1,2,9,2,3,10,0
1532494803919,-2,0,-2,7,9,2,2,3
1532494803924,-4,-2,-5,-12,-6,-16,-42,-4
1532494803929,2,1,-1,2,0,5,41,3
1532494803934,-2,-1,1,-2,3,5,-14,-3
1532494803939,3,0,-2,-1,-7,-5,1,1
1532494803944,-1,-4,2,5,2,-2,-2,2
1532494803949,-3,-1,-4,0,-5,-13,-8,-6
1532494803954,-2,-1,2,0,2,2,-2,-3
1532494803959,1,-2,-8,-8,-11,-5,-9,-1
1532494803964,0,-2,2,-3,-1,3,10,-3
1532494803969,-3,-2,-1,1,5,0,-4,-4
1532494803974,-2,1,0,0,1,4,13,5
1532494803979,1,0,-3,-1,0,2,13,-1
1532494803984,0,-1,0,0,8,-1,-5,-1
1532494803989,-6,2,2,0,-8,1,4,-2
1532494803994,1,-1,-4,-3,-10,-3,-14,0
1532494803999,0,-2,0,4,4,-8,-10,-2
1532494804004,2,2,2,0,2,11,11,-1
1532494804009,-2,-6,-7,-9,-7,-10,-15,-5
1532494804014,-2,-2,1,6,8,-3,-25,-3
1532494804019,-1,-3,-3,-3,-7,3,53,-3
1532494804024,-1,0,1,1,1,10,-13,6
1532494804029,0,0,3,1,-2,-15,16,0
1532494804034,-4,-2,-7,-13,-11,-13,-11,-14
1532494804039,-1,-2,-6,-3,-3,1,-18,0
1532494804044,0,-1,4,8,4,0,23,2
1532494804049,-4,-1,-4,-6,-4,3,-29,-7
1532494804054,1,0,-1,-2,-8,0,33,5
1532494804059,0,3,2,6,7,8,-12,1
1532494804064,-4,-1,-2,2,2,-8,-17,-4
1532494804069,-1,-1,1,5,0,-6,-7,-1
1532494804074,-1,-2,-4,-4,-9,-8,-6,-2
1532494804079,-1,1,-2,-4,1,7,7,3
1532494804084,-3,-1,-1,-3,-4,-1,3,-1
1532494804089,2,-1,-2,-4,1,3,-7,-2
1532494804094,-2,1,2,6,8,4,12,0
1532494804099,0,1,2,2,0,-2,-12,0
1532494804104,-3,-4,-5,-4,-7,-5,6,-3
1532494804109,1,1,-1,-1,5,3,6,2
1532494804114,0,-1,-1,-2,-7,-2,25,2
1532494804119,0,1,2,3,1,3,-16,-1
1532494804124,0,-1,3,3,3,-1,15,3
1532494804129,1,-1,-5,-8,-8,11,20,-3
1532494804134,2,-1,0,-2,-9,12,4,16
1532494804139,-3,-2,-2,-1,8,-4,-34,-5
1532494804144,-1,-1,1,5,1,0,7,-4
1532494804149,-1,3,2,2,-2,-3,-4,-3
1532494804154,-1,-1,-3,1,4,-8,2,-11
1532494804159,-1,-5,-3,-3,-9,-9,0,-4
1532494804164,-2,-1,-3,-4,-5,-6,-15,-3
1532494804169,2,1,0,1,5,9,15,12
1532494804174,0,2,2,0,1,7,-11,-1
1532494804179,-1,4,2,1,0,-7,-17,-2
1532494804184,-2,-8,-6,-1,-3,-7,28,-3
1532494804189,-1,0,0,2,3,-11,-21,5
1532494804194,0,-3,-1,-2,-1,5,-20,4
1532494804199,1,-3,-3,-1,-2,0,39,4
1532494804204,1,6,6,9,14,1,-17,4
1532494804209,-1,-1,-3,-4,-6,3,5,-8
1532494804214,0,-3,-6,-6,-9,-1,-1,1
1532494804219,-2,0,-1,-4,1,-7,17,6
1532494804224,-1,2,0,-1,1,-5,-7,-2
1532494804229,0,-1,3,6,6,4,27,1
1532494804234,0,1,-3,-2,3,-11,-3,1
1532494804239,-4,-5,-6,-7,-3,4,-4,-6
1532494804244,1,0,-1,-3,-8,8,12,-4
1532494804249,1,2,2,1,-1,2,-24,2
1532494804254,-1,1,5,6,9,-4,4,-5
1532494804259,1,0,1,3,0,7,-4,3
1532494804264,-1,1,-1,1,-2,-5,-19,-2
1532494804269,-2,1,-1,-3,2,-5,5,1
1532494804274,-2,0,-2,2,-1,0,7,-5
1532494804279,0,-2,4,10,12,11,4,1
1532494804284,1,-2,-9,-8,-15,0,-9,6
1532494804289,-2,-3,-2,-3,3,1,-8,-2
1532494804294,-2,-1,-1,-1,-4,-8,5,-4
1532494804299,-1,-1,0,0,-5,3,1,1
1532494804304,-1,1,4,3,4,0,-1,-2
1532494804309,1,-2,-6,-7,-8,-6,4,0
1532494804314,0,-2,-1,-3,-1,6,0,-1
1532494804319,0,3,7,11,10,0,-12,-2
1532494804324,0,-3,-10,-11,-5,-6,-4,2
1532494804329,-1,1,-1,-2,-1,1,6,0
1532494804334,-3,-5,-3,-4,-3,-3,-9,-1
1532494804339,-1,0,0,0,0,-19,-1,-6
1532494804344,-1,-2,2,3,-1,15,2,0
1532494804349,-1,-1,0,1,3,-10,-3,-5
1532494804354,-1,2,0,3,2,8,-7,-2
1532494804359,1,-1,-5,-8,0,-3,-5,1
1532494804364,-3,-3,0,-1,0,2,-25,-4
1532494804369,0,0,-3,-1,-4,-8,31,0
1532494804374,-1,1,2,2,5,-8,-8,-1
1532494804379,-1,-1,-3,-3,-7,14,-2,1
1532494804384,-2,-1,2,1,3,-2,3,0
1532494804389,0,-1,1,1,4,5,-17,-2
1532494804394,-2,-2,0,1,-9,-16,-1,-5
1532494804399,-1,-1,-5,-5,0,2,4,0
1532494804404,-2,-1,-1,-4,-2,-10,-2,-1
1532494804409,-1,0,-1,5,5,-1,-14,-5
1532494804414,0,1,2,4,8,7,15,-1
1532494804419,1,1,1,7,-4,11,0,-1
1532494804424,0,-5,-9,-9,-11,-2,1,-1
1532494804429,-2,-1,0,-3,-2,-5,-10,4
1532494804434,1,1,-2,-8,1,-5,-16,0
1532494804439,0,0,1,0,-3,12,25,4
1532494804444,2,4,5,8,11,8,14,2
1532494804449,-1,-2,-4,-1,-5,5,-6,-2
1532494804454,1,-1,-4,-2,-3,-2,-8,1
1532494804459,-1,-1,0,-1,1,-12,-9,-3
1532494804464,0,1,0,0,-1,0,6,0
1532494804469,0,0,2,2,1,-4,-4,-3
1532494804474,-1,-1,1,1,-3,3,4,-2
1532494804479,-3,-2,-5,-7,-9,-15,2,-1
1532494804484,-2,1,-2,-3,-4,-8,13,-3
1532494804489,-1,-1,-1,-1,2,1,1,0
1532494804494,2,-1,-1,-3,0,10,9,0
1532494804499,-2,0,5,8,6,-3,-16,-5
1532494804504,-1,-3,-10,-9,-7,-13,-5,-4
1532494804509,-2,-3,-3,-8,-7,11,24,3
1532494804514,-1,-1,-4,-5,-7,2,-14,2
1532494804519,-2,-2,-2,-2,-2,-1,-4,2
1532494804524,2,2,7,7,10,19,17,-1
1532494804529,0,1,2,2,0,-21,-14,-1
1532494804534,0,0,-1,3,3,5,4,-1
1532494804539,-1,-3,-3,-5,-7,-7,-11,-3
1532494804544,-1,0,0,0,0,-3,-2,-4
1532494804549,-2,-2,-2,-1,-5,12,5,-1
1532494804554,-2,-2,2,1,-3,-3,-14,-2
1532494804559,0,-1,-2,-2,5,-3,24,-1
1532494804564,-1,0,4,4,1,3,3,0
1532494804569,1,-2,-7,-5,-6,-15,-13,1
1532494804574,-1,-1,-1,-3,0,-3,-4,0
1532494804579,1,-1,-2,-4,-3,5,-11,-3
1532494804584,-1,-1,-1,-2,-4,-3,2,3
1532494804589,-3,1,5,6,7,2,-8,-6
1532494804594,0,-1,8,-1,-2,0,17,-2
1532494804599,-4,-3,-16,-8,-6,-9,-8,0
1532494804604,3,0,4,2,2,0,-5,1
1532494804609,-1,-3,0,0,2,1,2,-1
1532494804614,-2,0,-2,-1,0,-3,2,-2
1532494804619,1,0,5,0,0,2,0,-1
1532494804624,-4,-1,-5,0,0,-3,-1,-4
1532494804629,0,1,-1,-2,-3,-2,1,0
1532494804634,1,-3,3,-1,-1,-1,-2,-1
1532494804639,2,0,-2,-4,-3,-1,-1,1
1532494804644,-7,5,-6,-4,-2,-2,-3,1
1532494804649,2,-7,12,-1,-1,2,2,-2
1532494804654,-1,-1,-18,1,0,1,3,0
1532494804659,-2,-3,-2,-2,-2,-3,-4,-2
1532494804664,0,-2,8,2,-1,-1,-4,-2
1532494804669,-3,1,-1,-3,-1,3,3,0
1532494804674,-1,1,8,0,-5,-3,0,-1
1532494804679,0,2,6,5,2,0,0,1
1532494804684,1,-3,-12,-6,-6,-5,-6,-2
1532494804689,-2,1,1,-3,-1,2,10,-2
1532494804694,0,-1,-5,-1,-2,-1,1,-2
1532494804699,-1,1,2,1,0,-4,-17,0
1532494804704,0,-2,2,6,8,6,29,0
1532494804709,1,1,12,1,2,-3,-4,-1
1532494804714,-3,-1,-23,-8,-6,-2,-1,-2
1532494804719,-1,-1,5,0,-1,0,-2,-2
1532494804724,0,1,16,0,-4,-4,-6,-2
1532494804729,-1,0,2,2,1,0,0,-2
1532494804734,-1,1,4,2,3,1,4,-2
1532494804739,-1,-3,-17,-5,-1,-3,1,-1
1532494804744,-1,-3,1,0,-2,0,-3,1
1532494804749,1,3,3,4,4,5,6,0
1532494804754,-3,-3,13,2,-6,-6,-7,-3
1532494804759,1,-2,-28,-16,-6,-2,3,1
1532494804764,-2,-1,-4,-7,-5,-2,-9,-3
1532494804769,-3,1,-10,-1,-9,-2,-8,1
1532494804774,-1,0,5,3,3,0,3,0
1532494804779,0,-2,11,6,7,0,4,-2
1532494804784,1,-3,-13,-4,-1,1,-10,-1
1532494804789,-1,2,-8,-2,-4,-4,-1,-1
1532494804794,-1,-2,50,8,8,3,-1,0
1532494804799,-3,-5,-72,-6,-8,2,3,-2
1532494804804,-4,1,20,-3,-1,-3,-6,2
1532494804809,-2,-2,-7,-1,-6,-2,-3,-2
1532494804814,0,-2,-3,1,0,0,4,1
1532494804819,0,2,24,8,7,0,-1,-2
1532494804824,2,-1,-8,2,1,-2,2,1
1532494804829,0,-3,-5,-4,-3,0,1,-2
1532494804834,-1,2,-7,-8,-2,-3,0,1
1532494804839,-2,-1,8,-9,-16,-8,-5,-4
1532494804844,1,0,0,3,-3,2,-2,0
1532494804849,0,-1,8,2,0,-3,-7,-2
1532494804854,0,1,-14,3,10,5,3,2
1532494804859,0,0,10,14,12,0,-2,0
1532494804864,1,2,-1,-5,-2,-1,6,1
1532494804869,1,-2,0,-11,-10,-6,0,-1
1532494804874,-4,0,-10,-4,-7,1,-3,-1
1532494804879,0,2,5,0,3,6,4,2
1532494804884,-2,-4,-7,6,4,-1,4,-3
1532494804889,1,-1,-5,5,8,4,6,1
1532494804894,1,-1,-8,-5,-3,-1,0,0
1532494804899,-1,-1,17,2,-3,-2,0,-1
1532494804904,-2,0,2,0,2,-1,-6,-1
1532494804909,-1,-2,-21,-13,-9,-5,-10,0
1532494804914,0,0,12,-2,-2,-1,4,-2
1532494804919,1,1,13,0,3,0,0,0
1532494804924,-1,0,-13,-1,4,8,3,-1
1532494804929,0,1,11,3,-2,-3,4,-1
1532494804934,-1,-6,-31,-5,-1,-4,-2,-2
1532494804939,-3,6,20,-3,-8,1,6,-1
1532494804944,-1,0,3,-1,-1,-4,-5,-2
1532494804949,0,-3,3,5,0,5,6,-1
1532494804954,0,2,-4,3,3,-2,0,1
1532494804959,-2,-1,-4,-3,1,-3,-4,-3
1532494804964,1,-2,8,-4,-3,-3,1,1
1532494804969,-2,0,-3,1,1,4,0,-1
1532494804974,0,0,-5,1,-1,-9,-4,-1
1532494804979,-1,-4,-1,-11,-4,-5,2,-1
1532494804984,-2,-1,2,-2,-4,5,4,-1
1532494804989,0,-1,-3,2,6,-4,-1,-1
1532494804994,0,-2,-5,1,-1,3,0,0
1532494804999,1,2,8,2,-1,-2,-2,2
1532494805004,-2,1,35,2,0,-4,-2,-1
1532494805009,0,1,-14,-1,2,1,-1,0
1532494805014,-1,-2,-10,8,2,1,-5,-1
1532494805019,1,-2,-11,-9,-6,-6,-2,-2
1532494805024,-2,-3,-3,-6,-9,-4,-2,-5
1532494805029,-1,0,14,1,3,-2,-3,-1
1532494805034,1,5,12,0,0,-6,2,0
1532494805039,-2,-8,0,2,9,19,8,0
1532494805044,-1,-1,1,-1,3,-2,-1,-1
1532494805049,-1,-5,-23,-11,-14,-1,-5,-1
1532494805054,-1,-1,-9,-4,-3,-5,-6,-2
1532494805059,0,0,-4,2,-8,-11,-2,-1
1532494805064,1,2,3,4,10,3,6,1
1532494805069,-3,-2,-3,0,4,-1,1,0
1532494805074,-1,-2,4,1,-5,5,7,0
1532494805079,-2,1,-9,0,2,2,-1,0
1532494805084,-1,-3,-2,-7,0,-3,-9,-2
1532494805089,-1,0,4,-3,-12,-5,-3,-1
1532494805094,0,1,0,-2,-4,0,-1,-1
1532494805099,0,1,10,18,12,0,2,2
1532494805104,0,-2,-13,2,5,-7,-3,-3
1532494805109,-2,-4,20,-4,-9,0,1,-1
1532494805114,-1,-2,-20,-10,-5,-3,-4,0
1532494805119,-1,0,2,-2,1,3,1,-2
1532494805124,1,0,-7,6,-3,5,1,1
1532494805129,1,1,14,1,10,-7,-4,-2
1532494805134,0,-3,4,-3,-8,9,8,-1
1532494805139,-2,-3,-4,-5,5,-19,-11,-3
1532494805144,-1,0,-3,-1,-2,5,7,1
1532494805149,-1,-1,-2,3,4,-1,-4,-3
1532494805154,-2,-1,3,1,-3,-3,-2,-2
1532494805159,-1,0,-7,3,-2,2,4,0
1532494805164,1,-2,1,-5,4,1,-1,2
1532494805169,0,-2,-14,-8,-6,-1,0,-2
1532494805174,-3,-2,12,0,1,2,-5,-3
1532494805179,-1,2,-2,3,1,-5,-5,-1
1532494805184,-3,-1,-10,0,-7,-4,1,-2
1532494805189,-2,1,2,2,7,1,4,2
1532494805194,0,2,3,3,3,5,2,-2
1532494805199,0,-3,0,-9,-11,2,0,1
1532494805204,-2,-2,-4,0,-1,-2,-1,-4
1532494805209,0,2,-3,2,1,2,0,1
1532494805214,-2,-5,-12,-4,0,-4,-3,-2
1532494805219,-1,2,17,0,0,3,-2,-4
1532494805224,-2,1,-10,6,-1,-6,-3,-3
1532494805229,-1,0,7,-4,-2,4,2,-2
1532494805234,-2,-3,-2,-4,-3,-9,-4,1
1532494805239,-3,-5,4,-2,0,1,-1,-5
1532494805244,0,2,-25,-5,-4,1,-5,-3
1532494805249,-2,-1,3,-2,-5,-1,-2,-4
1532494805254,1,1,6,6,10,1,2,2
1532494805259,-2,0,31,4,1,1,2,2
1532494805264,-3,-6,-30,-11,-10,-3,-3,0
1532494805269,-1,1,-29,0,0,2,-1,1
1532494805274,1,-1,-5,-4,-3,-2,-3,-1
1532494805279,0,-4,26,2,-1,0,6,-1
1532494805284,2,1,-14,5,3,2,-1,3
1532494805289,0,-3,-8,4,2,2,-2,1
1532494805294,-2,0,-3,1,6,-3,3,-2
1532494805299,-1,-3,-24,-4,-11,-8,0,-2
1532494805304,0,7,22,-3,3,3,3,-1
1532494805309,-1,-10,-1,-12,-3,-1,2,-1
1532494805314,1,-2,3,3,-3,2,1,6
1532494805319,-1,-2,-12,1,2,-2,-1,-3
1532494805324,-1,0,7,3,-4,-2,-2,-2
1532494805329,1,6,20,12,5,-1,-1,-8
1532494805334,-1,-1,-11,-10,2,-4,-4,-1
1532494805339,0,0,21,-1,-3,2,0,2
1532494805344,-1,-18,-33,-7,0,1,-6,4
1532494805349,-2,16,9,4,-1,0,-1,-1
1532494805354,0,0,40,2,-4,-9,1,-3
1532494805359,0,3,-62,-4,5,6,-3,3
1532494805364,2,-3,27,12,4,11,6,-1
1532494805369,-1,-7,-10,-3,-4,-5,-4,-1
1532494805374,-2,0,2,-10,-11,-5,5,-1
1532494805379,-1,1,2,-2,1,-5,-5,1
1532494805384,-2,-2,4,2,2,-1,2,-5
1532494805389,-1,-2,-9,6,0,-2,-1,4
1532494805394,-2,1,4,-7,-3,5,2,-2
1532494805399,-1,-7,-15,-2,0,-2,-5,-6
1532494805404,-1,3,8,-1,-3,0,-3,1
1532494805409,-1,-2,13,1,2,4,10,-1
1532494805414,-1,-2,-11,2,0,-9,-5,1
1532494805419,-1,0,5,1,-2,4,2,4
1532494805424,-1,3,9,-2,4,-11,-1,4
1532494805429,2,-3,-5,2,1,0,0,2
1532494805434,-1,-3,10,-6,-7,-1,-3,-3
1532494805439,-1,3,-30,-6,-3,2,-1,-2
1532494805444,0,-1,8,-3,-6,-15,-7,0
1532494805449,-2,-1,-7,2,9,13,3,-2
1532494805454,-2,-2,8,4,-2,6,4,-1
1532494805459,-2,3,2,5,2,-3,-1,-4
1532494805464,-1,-5,26,0,-7,-7,1,0
1532494805469,0,1,-12,-15,-9,-9,-3,-2
1532494805474,-3,2,2,2,3,3,-3,-6
1532494805479,0,0,3,1,2,3,2,-2
1532494805484,-1,1,-3,-1,1,-1,0,-2
1532494805489,0,-3,9,8,-3,1,1,0
1532494805494,1,1,-47,1,3,2,-2,5
1532494805499,-2,-6,6,-11,1,-5,-2,2
1532494805504,0,-1,-6,-6,-3,10,3,0
1532494805509,-1,-2,-1,-3,1,-2,-1,1
1532494805514,0,0,-1,7,2,-6,-1,-4
1532494805519,1,-2,7,7,5,3,1,0
1532494805524,-2,1,-6,-4,-12,-1,-4,-4
1532494805529,-1,-5,-4,-6,-2,-5,0,-1
1532494805534,-2,-1,5,2,-4,0,-4,-3
1532494805539,-1,-1,-2,-1,-2,-4,2,2
1532494805544,-3,-1,-3,-5,-1,0,-2,-3
1532494805549,1,1,7,3,-3,-2,1,1
1532494805554,1,-1,9,6,8,2,-1,1
1532494805559,1,-1,-9,0,-4,-5,-4,-1
1532494805564,2,0,-1,-6,-3,9,5,-1
1532494805569,-2,-4,-10,-13,-3,-6,-4,-1
1532494805574,0,-1,-14,-6,1,5,-1,-1
1532494805579,-2,-1,-7,-1,-3,0,0,-2
1532494805584,-1,4,24,13,6,-1,0,-1
1532494805589,1,-2,-2,1,-2,0,-3,0
1532494805594,0,0,7,4,-1,-6,0,-1
1532494805599,0,0,3,-6,-7,-5,0,0
1532494805604,0,-4,-14,2,2,-5,-3,-3
1532494805609,0,0,5,4,5,6,3,1
1532494805614,-2,-2,18,-9,-2,1,-4,-2
1532494805619,-1,-3,1,2,-6,6,6,7
1532494805624,-2,-3,-36,-11,2,-2,-5,-1
1532494805629,-2,1,-2,2,-2,-6,-4,-2
1532494805634,1,0,1,4,1,1,1,1
1532494805639,-1,-1,14,-1,2,-4,-3,-6
1532494805644,-1,0,-2,-1,4,3,-4,3
1532494805649,-2,0,1,-3,-13,-5,2,0
1532494805654,-1,-2,-9,-2,3,2,-1,0
1532494805659,-1,1,0,0,-1,-3,-2,-3
1532494805664,0,0,3,-2,2,-3,-4,-1
1532494805669,-1,-2,-4,1,2,-7,-8,-5
1532494805674,3,0,2,1,-2,20,10,2
1532494805679,-1,-3,2,-1,-5,-7,-4,-4
1532494805684,-2,-2,0,0,4,-11,-8,-1
1532494805689,-1,-2,-7,-5,-7,2,-2,-2
1532494805694,-2,0,4,5,3,-6,1,-5
1532494805699,-2,-3,-2,-14,-1,-2,-1,0
1532494805704,0,-1,-1,-3,-6,-1,1,-4
1532494805709,-2,-1,1,1,2,3,5,-5
1532494805714,-1,-2,-2,-2,-3,-3,0,-2
1532494805719,1,1,11,11,5,4,5,-1
1532494805724,-1,-1,-17,-4,-6,-2,-1,1
1532494805729,-1,-2,3,-2,2,-1,0,-2
1532494805734,-1,-5,-11,-4,-5,-4,-5,0
1532494805739,1,1,-1,0,0,1,-5,0
1532494805744,-2,1,19,1,-4,-9,-2,-1
1532494805749,3,3,-4,7,1,0,2,1
1532494805754,-1,-3,-5,-5,4,2,-3,-1
1532494805759,-3,0,1,0,-2,4,1,-1
1532494805764,0,-4,-3,-7,-1,-2,0,-3
1532494805769,-1,-1,-5,4,-2,3,-3,1
1532494805774,-2,-2,-1,-3,-4,-6,0,-2
1532494805779,0,4,10,-2,-2,-3,-2,1
1532494805784,-1,0,3,-2,-4,7,1,1
1532494805789,-1,0,1,-2,4,-7,-2,-1
1532494805794,1,0,0,3,2,5,7,0
1532494805799,0,-4,-6,3,1,-2,1,-1
1532494805804,-1,0,3,0,-1,-2,1,-3
1532494805809,-1,-3,2,-5,-2,1,-2,1
1532494805814,0,-1,0,0,-4,-1,-5,1
1532494805819,0,0,-6,2,-4,1,2,2
1532494805824,-1,0,2,3,8,-3,-2,5
1532494805829,1,1,3,5,5,6,6,1
1532494805834,-2,-3,-2,-9,-9,-1,-3,-1
1532494805839,-1,-1,0,1,-1,-7,-4,-1
1532494805844,2,-1,-6,-6,1,1,0,0
1532494805849,-3,-2,2,-5,-5,-3,-2,-2
1532494805854,-1,1,2,4,4,-7,-4,-2
1532494805859,2,0,-4,5,1,11,3,1
1532494805864,-2,-1,2,0,-3,-2,-1,-2
1532494805869,2,-1,42,-4,-5,-1,0,-2
1532494805874,-1,-1,-40,-10,-3,-6,-5,-2
1532494805879,-2,0,19,-6,-6,-8,2,-3
1532494805884,-1,-1,-39,8,4,3,1,-1
1532494805889,-1,-2,21,4,2,0,-6,1
1532494805894,0,-2,9,3,5,2,6,5
1532494805899,0,-2,-5,-2,3,-4,-4,-2
1532494805904,0,1,17,2,-1,2,2,0
1532494805909,-1,-2,-24,-4,-7,-8,-1,-1
1532494805914,0,1,4,4,3,4,-1,-4
1532494805919,-1,-2,-7,-1,1,0,1,2
1532494805924,0,-2,12,-2,-4,-8,-1,-2
1532494805929,-2,-1,-22,-1,0,1,-4,-3
1532494805934,0,1,11,6,5,7,5,-1
1532494805939,-1,1,4,6,-1,-2,1,-1
1532494805944,0,-5,-11,-20,-3,-5,-3,-4
1532494805949,-3,0,-7,-1,-6,-11,-2,-7
1532494805954,-1,1,11,1,-3,6,1,2
1532494805959,-2,0,-4,-1,3,-1,0,-2
1532494805964,1,1,3,5,-1,-9,-5,1
1532494805969,-1,0,0,-5,3,13,11,1
1532494805974,0,-3,-8,-2,0,-3,-3,-3
1532494805979,-1,0,0,3,-4,-2,-1,-3
1532494805984,-1,-3,-1,-6,-1,2,2,0
1532494805989,1,1,1,-4,0,2,-2,2
1532494805994,-1,-3,10,0,-5,-3,-1,1
1532494805999,0,1,-16,-5,0,8,2,0
1532494806004,-1,0,9,11,2,1,-5,-2
1532494806009,1,-2,-9,2,3,1,-1,-2
1532494806014,0,1,4,1,0,-2,2,4
1532494806019,0,-5,-6,-11,-8,-8,-6,-1
1532494806024,-3,1,3,-2,-6,-4,-1,0
1532494806029,-1,2,-2,7,0,3,-2,-4
1532494806034,1,-3,-7,0,7,-2,1,-1
1532494806039,0,-2,5,0,-3,0,3,-1
1532494806044,0,-2,6,-5,1,1,-1,-1
1532494806049,0,-3,-22,-3,-4,1,-2,0
1532494806054,1,0,7,3,-1,-5,-4,1
1532494806059,-2,-1,1,2,1,-4,-2,-1
1532494806064,0,0,-4,2,4,4,4,-1
1532494806069,2,-2,1,1,0,-3,0,-1
1532494806074,-3,-1,1,3,2,0,0,-5
1532494806079,0,-2,-13,-9,-8,1,-2,0
1532494806084,0,2,1,4,-3,-3,-5,4
1532494806089,0,-1,1,-2,1,-5,3,0
1532494806094,1,0,-2,2,4,7,0,0
1532494806099,0,-3,11,-8,-6,-6,-2,0
1532494806104,-3,-1,-2,-4,-2,0,-3,-2
1532494806109,-1,0,-3,3,-2,0,0,2
1532494806114,0,2,10,-1,0,-8,-3,-2
1532494806119,0,-2,8,3,5,0,2,-1
1532494806124,-1,0,-20,0,-3,4,2,0
1532494806129,0,1,1,0,6,0,-4,1
1532494806134,-1,-4,-9,-12,-14,-4,0,-2
1532494806139,-1,0,1,2,3,1,-1,0
1532494806144,0,0,0,0,-2,4,4,1
1532494806149,-2,2,11,5,-1,-5,-1,-2
1532494806154,-2,0,-7,4,4,3,-1,-3
1532494806159,0,1,1,2,-6,-6,-1,1
1532494806164,-2,-4,-2,-11,4,-5,-3,-2
1532494806169,1,1,-7,-7,-2,10,2,1
1532494806174,0,-1,2,-5,-9,0,-1,3
1532494806179,0,-1,0,9,4,-5,1,-1
1532494806184,-1,0,2,3,8,0,-2,-2
1532494806189,-2,-2,-1,-6,-7,-5,0,-1
1532494806194,-1,-1,16,4,0,2,-1,-2
1532494806199,0,1,-13,4,3,3,-1,0
1532494806204,-1,-2,0,-7,-3,-2,0,-3
1532494806209,-1,-4,-7,-9,1,-1,-4,-1
1532494806214,-2,-1,-2,0,-3,0,4,-3
1532494806219,-1,1,-3,6,-3,-3,-2,-1
1532494806224,1,-1,2,0,6,5,6,0
1532494806229,-2,-1,1,-2,-5,-4,-3,-7
1532494806234,-2,-1,-3,-1,0,-1,-4,0
1532494806239,-1,-3,-4,2,3,1,1,-1
1532494806244,0,-1,-4,-3,-6,-4,-1,1
1532494806249,-2,0,2,3,-3,0,-1,-3
1532494806254,-1,-1,-4,-1,0,-1,-4,-3
1532494806259,-1,-2,4,-4,1,6,-2,1
1532494806264,-1,-1,-2,-8,-12,-4,-7,-2
1532494806269,-2,-2,1,2,2,-1,0,0
1532494806274,0,1,7,0,-1,-5,-2,1
1532494806279,-1,0,-4,-3,-3,-4,-2,-1
1532494806284,-1,-1,1,5,4,-1,-2,-2
1532494806289,-2,0,-1,0,4,0,-2,-1
1532494806294,-1,0,3,-4,-9,3,-1,1
1532494806299,-1,-1,-4,1,4,0,0,-3
1532494806304,1,0,0,4,-9,-6,-1,1
1532494806309,0,-2,-4,-11,-6,-4,1,2
1532494806314,-2,-2,2,-3,-2,-5,0,-1
1532494806319,-1,0,2,-1,-2,1,-4,-2
1532494806324,0,0,-1,0,-5,0,0,-1
1532494806329,-1,0,-1,2,1,-4,-4,-2
1532494806334,-1,0,-10,0,1,3,2,1
1532494806339,-1,1,8,-9,-4,-6,-2,-2
1532494806344,-1,-1,-4,4,5,1,1,0
1532494806349,0,-2,-1,1,-1,-2,2,2
1532494806354,-1,-3,-5,-6,-1,-3,-4,-2
1532494806359,-1,-3,-1,0,-6,-7,-2,-2
1532494806364,0,0,11,3,7,9,1,2
1532494806369,0,0,7,1,0,-2,-1,-2
1532494806374,0,1,-18,-2,0,-1,-1,-1
1532494806379,0,-1,1,-4,4,4,3,0
1532494806384,0,-2,2,1,-3,-2,-1,0
1532494806389,0,0,-1,2,6,-2,-5,-1
1532494806394,0,0,4,2,-6,-2,5,0
1532494806399,0,0,-1,-1,-2,-1,1,2
1532494806404,1,-2,-2,-4,3,7,3,-2
1532494806409,-1,1,0,5,5,7,0,1
1532494806414,-1,-2,4,4,5,0,-2,-1
1532494806419,-2,-3,-10,-8,-12,-4,-1,-2
1532494806424,-3,0,3,4,-4,-10,-1,-2
1532494806429,-1,-1,-4,-8,2,6,5,0
1532494806434,-1,0,9,-4,1,2,-1,0
1532494806439,0,-3,-21,-5,6,0,-4,1
1532494806444,1,2,8,6,1,0,1,-2
1532494806449,-2,-3,-3,-3,-6,-3,-1,-1
1532494806454,0,-1,0,-3,0,-3,-3,-2
1532494806459,0,-1,5,2,2,2,1,-1
1532494806464,-2,0,-3,-1,-6,-7,-6,-4
1532494806469,0,0,-4,-1,0,-5,-1,-1
1532494806474,1,-4,-3,-6,-1,1,4,3
1532494806479,-2,1,5,0,-1,0,-8,-2
1532494806484,-1,-1,-5,1,2,4,0,0
1532494806489,-2,-1,21,5,-1,-3,-1,-3
1532494806494,0,-1,-23,-6,-3,1,0,1
1532494806499,-2,-2,0,-1,-3,-5,2,-3
1532494806504,0,0,0,-3,3,0,-2,1
1532494806509,0,-1,-4,-4,-4,-1,-1,1
1532494806514,0,3,5,5,-3,-4,-3,-1
1532494806519,-1,-1,0,3,9,6,7,-1
1532494806524,-1,-4,-9,-11,-7,-6,-3,-1
1532494806529,-1,-1,-2,-1,-2,-1,-3,-5
1532494806534,0,-1,-4,-1,-5,-3,-2,0
1532494806539,0,0,6,7,1,-2,0,-2
1532494806544,-1,-2,-1,0,2,3,1,-3
1532494806549,0,-2,-7,-6,1,2,-1,4
1532494806554,-3,0,8,4,2,-8,-1,-3
1532494806559,2,3,5,0,0,14,8,0
1532494806564,-1,-1,0,3,0,-3,-2,1
1532494806569,-1,0,-12,-9,-6,-3,-2,-1
1532494806574,0,0,4,-3,0,-6,-2,-4
1532494806579,-3,-3,0,1,-3,-1,-4,1
1532494806584,-2,-1,-5,3,2,1,1,-2
1532494806589,0,-1,2,1,-1,-3,0,3
1532494806594,-1,-1,2,-4,10,3,-1,0
1532494806599,2,-3,2,-4,-6,-6,1,0
1532494806604,1,1,-8,0,3,2,1,0
1532494806609,-1,-1,2,6,-2,3,-1,-3
1532494806614,-1,-1,11,4,0,4,0,-1
1532494806619,-2,0,-16,0,3,-4,0,0
1532494806624,-2,-2,5,-3,1,-3,0,-3
1532494806629,1,0,-3,0,-3,2,2,0
1532494806634,-1,-3,-7,-5,-5,-2,-7,-2
1532494806639,-1,-2,4,-8,-7,-4,-3,-2
1532494806644,0,-2,-4,-1,-5,1,-3,0
1532494806649,0,2,-2,6,4,1,6,-1
1532494806654,0,1,1,4,2,3,4,-2
1532494806659,-1,1,2,5,6,-5,-6,-1
1532494806664,0,0,12,-11,-10,-8,-3,3
1532494806669,-1,-4,-14,-5,-6,-2,-2,-5
1532494806674,0,0,-3,-2,-2,-1,-7,0
1532494806679,-1,-1,0,4,5,1,6,-2
1532494806684,-3,-3,1,1,1,1,2,-1
1532494806689,-1,0,3,1,3,1,2,-1
1532494806694,-1,-1,-5,-5,-4,-2,1,-2
1532494806699,0,-1,-1,-2,-4,-1,-6,-2
1532494806704,0,2,0,5,2,-5,1,-2
1532494806709,-3,-3,0,-7,-10,-6,-4,-2
1532494806714,0,-1,-7,1,3,-4,-1,-1
1532494806719,-1,-1,-8,1,3,17,7,0
1532494806724,-1,-2,-1,-3,-2,1,5,0
1532494806729,-2,-1,1,-2,-1,-3,-2,-1
1532494806734,-1,-1,-2,-3,-1,0,2,0
1532494806739,-1,0,9,-1,-5,-6,-1,1
1532494806744,1,0,-10,3,-4,-5,-1,-1
1532494806749,-2,0,-4,-6,1,1,2,0
1532494806754,-1,1,10,1,-3,1,-2,0
1532494806759,0,-2,-9,0,-2,-2,-1,-3
1532494806764,-1,-1,3,6,10,0,-3,-1
1532494806769,1,2,3,1,0,-4,-2,0
1532494806774,-2,-2,-8,-4,-3,-2,1,-2
1532494806779,0,-1,0,-5,-4,-4,-6,-2
1532494806784,1,-1,-2,6,7,7,3,-1
1532494806789,0,-1,0,-8,-6,-7,-2,-1
1532494806794,1,-1,-10,-4,-1,2,0,-1
1532494806799,-1,0,8,-4,-1,3,-2,0
1532494806804,0,-2,-14,-1,-4,-5,-2,-3
1532494806809,-2,-1,3,-1,-8,-6,-1,-2
1532494806814,0,-2,11,2,3,3,0,0
1532494806819,0,0,-9,2,4,-2,-2,1
1532494806824,-1,0,1,-5,0,3,0,-1
1532494806829,1,1,-2,-1,-1,-4,-1,0
1532494806834,-1,-1,-6,-6,-8,-1,-2,-3
1532494806839,-1,-4,3,4,-1,-5,-5,0
1532494806844,1,0,2,2,-1,3,3,0
1532494806849,1,1,0,5,3,2,-2,2
1532494806854,-2,-3,-11,-10,-4,-6,0,0
1532494806859,-2,1,5,5,6,2,-1,-2
1532494806864,-1,-2,-7,-3,-3,-6,-3,-2
1532494806869,0,1,6,2,0,-4,0,0
1532494806874,-1,1,-6,-1,-5,-3,-1,1
1532494806879,-1,-2,-14,-4,-1,-5,-5,-1
1532494806884,-1,-3,5,-7,-5,0,1,-2
1532494806889,-1,-1,2,3,2,1,1,0
1532494806894,-1,-2,-4,-2,-1,-1,-1,-1
1532494806899,0,1,7,5,0,-1,0,-1
1532494806904,0,-2,-6,1,1,2,0,0
1532494806909,-1,1,-4,-7,0,2,-1,-1
1532494806914,0,0,-3,3,-2,-3,0,1
1532494806919,1,-2,0,-2,3,1,3,-2
1532494806924,-2,1,6,3,3,-1,-2,-2
1532494806929,-1,-2,7,-2,1,-3,-5,0
1532494806934,-1,-2,-8,-1,0,5,-1,0
1532494806939,-2,-1,1,-3,-1,4,4,0
1532494806944,-1,-1,-3,1,-4,-2,-1,-2
1532494806949,-2,-4,-3,-11,-2,-7,-1,-3
1532494806954,-2,0,3,0,2,-2,-4,-3
1532494806959,-1,-2,1,1,5,1,-1,0
1532494806964,1,0,1,-1,-1,1,2,1
1532494806969,-1,-2,-11,-1,-3,3,0,-1
1532494806974,0,-1,3,2,2,0,0,-2
1532494806979,-1,0,-3,-4,-4,-1,-3,-1
1532494806984,-1,-3,3,0,-2,-3,-4,-3
1532494806989,0,0,11,3,4,-3,3,0
1532494806994,0,-1,-21,-2,3,4,-4,-2
1532494806999,0,0,5,1,-4,0,2,0
1532494807004,0,-1,-3,-4,-2,-2,-1,-1
1532494807009,-1,1,-3,3,-3,-5,-3,-2
1532494807014,-1,-1,5,2,-2,-5,-4,1
1532494807019,-1,-2,-1,5,0,2,0,-1
1532494807024,-1,-1,-2,-6,2,6,0,1
1532494807029,-1,-2,-6,-8,-2,-6,-2,-1
1532494807034,0,1,10,1,1,-5,0,-1
1532494807039,0,-1,-10,1,1,-5,-7,-3
1532494807044,-1,0,-1,1,-2,0,13,1
1532494807049,-1,-1,1,-2,-3,1,0,0
1532494807054,-2,-2,-2,-4,0,0,1,-1
1532494807059,0,0,4,-1,-2,-1,-3,-2
1532494807064,-2,-1,-5,0,4,1,-1,-3
1532494807069,0,0,3,9,5,1,-1,-1
1532494807074,0,-1,-3,-4,-12,-5,-1,1
1532494807079,1,-1,0,-3,1,8,5,-2
1532494807084,-1,-1,5,-1,-4,-8,-9,-1
1532494807089,-2,0,-4,-1,2,9,5,-1
1532494807094,0,1,4,5,4,0,-1,-1
1532494807099,-2,-1,3,2,1,-1,1,0
1532494807104,-2,0,-7,1,2,1,-1,0
1532494807109,-3,-3,-3,-4,-12,-7,-2,-1
1532494807114,1,1,0,6,1,-4,-1,-1
1532494807119,-2,-2,-3,-11,-5,-5,-5,0
1532494807124,0,-1,-1,-2,-6,2,9,-2
1532494807129,0,1,1,3,5,0,-2,-1
1532494807134,0,-1,-1,0,2,0,-1,-2
1532494807139,0,0,1,-2,-6,-6,0,0
1532494807144,-1,-2,0,3,3,-1,-8,-2
1532494807149,0,0,-5,-8,-4,-3,-5,-2
1532494807154,-3,-1,4,3,3,3,-1,0
1532494807159,1,2,0,-2,0,3,-4,0
1532494807164,-1,-2,9,-4,-5,-5,0,1
1532494807169,-1,-1,-11,-1,2,1,1,-2
1532494807174,0,-1,1,2,1,-7,-4,1
1532494807179,-1,-1,1,-1,-3,-4,-1,-1
1532494807184,-1,-1,0,-5,-1,-4,-1,-3
1532494807189,2,1,2,7,2,1,2,4
1532494807194,-1,0,6,-9,-2,3,1,-1
1532494807199,-2,-2,-10,0,-1,-2,-2,-1
1532494807204,0,1,-2,3,-2,-1,1,-1
1532494807209,0,-3,-2,-6,-7,-1,-3,0
1532494807214,0,0,-2,2,3,0,4,0
1532494807219,-1,0,3,3,0,-1,0,-1
1532494807224,0,0,7,3,3,-2,1,2
1532494807229,0,0,-11,0,1,1,0,2
1532494807234,-1,-2,-3,-7,-5,6,-1,0
1532494807239,0,0,-2,-4,-2,1,1,-2
1532494807244,0,0,0,3,2,0,-2,-2
1532494807249,-1,0,7,6,0,-1,2,-2
1532494807254,0,-2,-4,-5,-5,-10,-8,-2
1532494807259,-2,-4,-5,-2,4,2,0,-1
1532494807264,-2,-1,-5,0,2,2,1,1
1532494807269,-2,0,3,-1,4,2,-1,-1
1532494807274,-3,-2,-4,-2,-15,-8,0,-1
1532494807279,0,0,26,1,-3,-1,2,0
1532494807284,0,-1,-29,1,2,1,-2,4
1532494807289,-2,-2,-1,-10,-5,-2,-3,-3
1532494807294,1,0,3,7,11,1,5,-2
1532494807299,-2,-1,1,-6,-8,-6,-2,-2
1532494807304,-1,-1,-1,-4,-4,1,1,-1
1532494807309,0,-2,1,1,-2,-9,-4,1
1532494807314,1,0,-3,2,0,16,8,2
1532494807319,1,-1,-5,0,1,-2,0,-1
1532494807324,0,-3,1,-5,-6,-2,-5,-3
1532494807329,-1,-1,-2,4,0,-3,2,-2
1532494807334,-1,-3,-1,-6,0,-2,-4,-2
1532494807339,-1,-1,-6,2,1,1,-2,-1
1532494807344,-2,-2,-1,-6,-8,-3,1,-1
1532494807349,0,0,2,1,1,3,0,1
1532494807354,0,0,-2,0,-2,-3,0,-1
