1532121971394,1,5,-1,2,5,-6,-1,0
1532121971399,0,7,1,4,-1,-5,5,1
1532121971404,-4,-15,-2,-3,-3,-6,-4,-1
1532121971409,0,3,1,1,1,-2,9,0
1532121971414,-1,2,-2,-2,-2,-5,-13,-4
1532121971419,1,-5,-1,5,-1,-5,0,7
1532121971424,-4,5,-5,1,1,-6,-3,-4
1532121971429,0,5,-2,-3,7,-5,-2,-6
1532121971434,0,-7,-2,2,-4,-3,4,5
1532121971439,-2,-2,1,1,-2,-3,-3,-4
1532121971444,2,4,0,-2,11,-3,-2,2
1532121971449,4,-3,0,-2,-17,-1,-4,-1
1532121971454,-13,-9,-5,0,0,-1,-7,-4
1532121971459,-1,19,-1,-3,-3,2,2,-3
1532121971464,-1,-35,-4,-1,-4,-3,1,2
1532121971469,0,9,1,0,0,-1,-5,-1
1532121971474,3,-1,2,-1,7,2,3,3
1532121971479,1,0,-2,-4,-11,1,-5,1
1532121971484,0,22,7,4,2,1,0,-2
1532121971489,-3,-17,-9,-3,3,3,5,0
1532121971494,-3,-4,0,-4,-11,-2,-1,-3
1532121971499,4,-9,0,1,14,-2,3,-3
1532121971504,-3,4,-2,0,-10,3,5,1
1532121971509,-1,-5,0,-1,-3,-3,-12,-3
1532121971514,2,5,1,0,-4,-2,-2,-1
1532121971519,-1,-3,0,-6,1,2,-2,0
1532121971524,-2,-4,0,-2,-2,-3,-3,-1
1532121971529,-3,4,0,2,6,3,4,-2
1532121971534,3,-1,1,-1,2,0,-1,6
1532121971539,0,-6,-2,-4,-1,1,1,0
1532121971544,-1,3,-6,-5,-6,0,-3,-5
1532121971549,10,-1,3,2,0,-4,1,7
1532121971554,-16,14,1,-2,-6,-3,-2,-12
1532121971559,-7,-24,-5,-3,5,-2,-3,-2
1532121971564,0,3,-1,0,-14,4,0,1
1532121971569,0,-1,-1,-2,26,0,-4,0
1532121971574,7,8,1,-1,-32,-1,8,4
1532121971579,-4,4,3,4,-4,-3,-3,-2
1532121971584,-1,-3,-2,3,-2,0,5,0
1532121971589,-2,4,-2,-7,1,1,-2,1
1532121971594,4,-3,2,0,10,2,4,0
1532121971599,-5,-4,-4,-7,0,-1,-8,-6
1532121971604,2,0,1,-1,-3,2,-4,-1
1532121971609,-4,-2,1,2,-16,3,-1,-4
1532121971614,0,1,0,2,24,-2,3,0
1532121971619,0,-4,-1,6,2,-2,1,3
1532121971624,-1,6,0,-4,-26,2,0,-2
1532121971629,-4,5,-4,3,27,-2,0,0
1532121971634,-4,-18,-2,5,3,2,-9,-5
1532121971639,6,8,-1,-3,1,-2,0,1
1532121971644,-3,-2,0,1,19,-3,4,0
1532121971649,-1,22,2,-3,-25,-2,-4,-4
1532121971654,-3,-22,-2,-2,-7,-1,-1,-1
1532121971659,-11,12,-2,3,6,2,2,-11
1532121971664,-10,-20,-2,-10,-5,-1,-6,-3
1532121971669,15,-5,-4,-9,-24,0,-2,1
1532121971674,12,19,7,14,39,-2,-3,5
1532121971679,-2,-11,-6,-4,-18,2,-2,1
1532121971684,-1,7,-3,-2,8,0,3,-4
1532121971689,-9,9,1,-1,-11,1,0,-2
1532121971694,-8,-14,-9,-13,-12,1,-2,-4
1532121971699,11,27,6,-1,-3,-4,1,1
1532121971704,-2,-38,-2,3,-6,0,-1,0
1532121971709,2,-4,1,0,10,-1,-2,0
1532121971714,-4,-1,-4,6,12,2,2,-1
1532121971719,0,4,1,-8,-27,4,3,-2
1532121971724,-7,16,0,-1,30,-2,6,-4
1532121971729,0,-2,1,6,-25,-2,1,-2
1532121971734,-14,-2,0,-1,-1,-1,-5,-1
1532121971739,21,-3,1,2,2,-5,-15,9
1532121971744,8,8,5,0,3,-2,-1,0
1532121971749,-7,-19,-1,-1,4,-7,7,5
1532121971754,12,32,3,0,-9,-4,11,13
1532121971759,-11,-31,-6,1,9,-4,-1,-6
1532121971764,8,13,0,-3,-10,-3,-4,4
1532121971769,-5,-9,-4,0,-13,-5,-9,-8
1532121971774,2,0,-1,-3,16,-5,-5,-8
1532121971779,-6,-1,0,4,1,-3,3,-1
1532121971784,8,-2,0,-2,7,-4,1,2
1532121971789,-12,0,-2,3,7,-4,4,-9
1532121971794,-6,10,-3,-6,-19,-4,2,15
1532121971799,-4,-24,-2,-6,-1,3,0,-5
1532121971804,-5,5,0,15,8,-6,-13,4
1532121971809,-3,-5,-5,-13,-22,1,2,-25
1532121971814,11,-5,-2,-1,15,2,11,2
1532121971819,-9,1,0,6,8,-1,-2,18
1532121971824,-2,-2,-3,-2,-3,0,-5,-8
1532121971829,2,2,0,-1,8,-4,-3,3
1532121971834,-9,-2,-6,8,0,-2,-2,-10
1532121971839,-2,-8,-1,-2,23,0,4,3
1532121971844,-6,0,3,-2,-31,2,-5,-7
1532121971849,11,1,-3,0,4,-6,-8,-37
1532121971854,-1,14,-1,-8,-2,-3,5,38
1532121971859,4,-20,1,3,5,-6,3,10
1532121971864,5,17,3,0,-14,0,2,-5
1532121971869,-4,-10,-3,-2,-10,0,-6,0
1532121971874,0,2,-1,-5,11,1,1,-10
1532121971879,1,3,-1,-5,-17,-2,-2,-3
1532121971884,0,-4,1,11,23,2,-3,2
1532121971889,-3,1,-3,-17,-57,1,0,3
1532121971894,-2,-3,3,14,83,0,0,-9
1532121971899,-1,0,-5,-11,-61,2,-3,3
1532121971904,12,-6,2,7,70,-3,0,7
1532121971909,-10,0,-1,1,-3,0,5,0
1532121971914,-4,-5,-1,-8,-40,0,1,-19
1532121971919,-3,7,4,9,24,2,5,1
1532121971924,-1,-3,-3,-2,-11,-1,1,0
1532121971929,2,2,-1,2,7,-5,-2,0
1532121971934,2,-2,-2,-13,-18,-2,-3,5
1532121971939,5,24,1,6,37,3,2,-2
1532121971944,-7,-32,-4,-6,-29,1,-2,-1
1532121971949,1,12,5,9,18,-2,-1,-8
1532121971954,-10,-14,-11,1,-40,1,4,8
1532121971959,5,-7,-1,-2,15,0,-7,2
1532121971964,5,9,-1,-7,11,1,-7,-4
1532121971969,-19,0,-1,2,20,3,-3,-9
1532121971974,10,0,2,-12,-33,0,-2,4
1532121971979,1,5,3,10,41,0,0,3
1532121971984,-1,5,0,5,-27,-3,0,-4
1532121971989,-4,-4,-3,1,31,2,0,7
1532121971994,3,3,0,1,-33,2,-6,-21
1532121971999,-1,-11,-5,-12,32,3,-4,-4
1532121972004,0,-6,-3,-6,10,0,-3,-3
1532121972009,2,7,3,11,-31,3,3,1
1532121972014,-2,-3,-3,-5,32,0,1,0
1532121972019,8,56,9,17,-42,4,-8,-3
1532121972024,-10,-58,-16,-10,2,-1,-11,-6
1532121972029,-9,-11,1,-5,3,1,-2,7
1532121972034,-3,-13,-1,-8,-35,-1,1,1
1532121972039,-6,-8,-3,-4,-25,1,3,-20
1532121972044,21,21,7,0,43,0,20,28
1532121972049,0,20,0,-3,-17,2,2,-4
1532121972054,-19,-9,-2,22,28,-1,-15,-10
1532121972059,4,-27,0,-3,-1,-3,2,28
1532121972064,-11,5,-8,-5,-38,-6,-2,-8
1532121972069,7,-8,-2,-11,-3,-3,4,7
1532121972074,-1,-12,1,-9,-21,0,0,-4
1532121972079,2,24,4,7,-7,0,-8,-11
1532121972084,1,-41,-17,-22,-66,2,5,-1
1532121972089,-3,-4,-1,5,-7,-5,0,7
1532121972094,9,40,7,25,66,-11,0,2
1532121972099,-6,12,5,1,3,-4,-2,-3
1532121972104,11,26,5,-19,-32,-2,3,-2
1532121972109,3,-11,-1,-6,1,-1,2,3
1532121972114,-15,5,-7,23,48,2,-4,2
1532121972119,17,3,13,0,5,0,-2,-14
1532121972124,-15,-14,-15,-1,26,-2,2,-18
1532121972129,1,-8,-4,-22,-78,-2,-7,26
1532121972134,4,7,7,6,4,2,9,25
1532121972139,-1,-1,-6,14,50,3,11,-3
1532121972144,0,16,3,-12,-64,0,-3,3
1532121972149,-2,11,2,20,81,0,-1,-5
1532121972154,-6,-4,8,-9,-34,-7,-4,-21
1532121972159,2,-4,1,3,14,0,-2,12
1532121972164,0,-17,-9,-5,-9,-2,-3,5
1532121972169,-4,-10,-12,-18,3,-6,2,-10
1532121972174,-1,-1,1,-5,27,3,-3,-6
1532121972179,0,-11,-8,2,4,-3,2,0
1532121972184,6,18,25,12,9,1,1,-3
1532121972189,1,8,-12,-16,-10,-1,17,11
1532121972194,-3,10,10,7,4,5,-6,-14
1532121972199,-8,-66,-34,-37,-48,3,-8,28
1532121972204,0,-24,-6,19,33,5,-9,-4
1532121972209,0,-13,3,-1,-27,-2,-3,3
1532121972214,7,13,9,7,-20,2,-4,16
1532121972219,-4,11,7,4,10,0,2,-13
1532121972224,8,8,-3,-13,-30,0,2,9
1532121972229,-12,-6,1,8,30,-1,-6,-23
1532121972234,-4,-5,-9,-26,-55,-1,4,-17
1532121972239,-2,7,7,19,37,-4,-10,-10
1532121972244,4,17,18,41,51,3,11,8
1532121972249,-1,5,-11,-31,-21,2,-10,20
1532121972254,-4,1,16,2,-40,-1,-5,-9
1532121972259,-9,-24,-46,-15,63,1,10,5
1532121972264,10,18,23,-10,-75,-6,-1,18
1532121972269,2,-8,-22,11,3,-1,-3,-22
1532121972274,-11,-4,-3,14,49,0,-1,-3
1532121972279,-1,6,15,1,6,0,-7,3
1532121972284,2,10,5,2,-1,-3,7,-6
1532121972289,10,27,32,1,7,5,9,1
1532121972294,-1,-12,-11,-20,-37,0,3,12
1532121972299,5,4,3,14,7,-2,2,-26
1532121972304,-13,-8,-12,-7,-7,-4,-2,8
1532121972309,-5,-9,9,12,-13,-1,-11,-3
1532121972314,2,3,-4,-2,28,4,12,10
1532121972319,3,1,-6,-8,-5,-5,1,3
1532121972324,1,9,7,-3,18,-2,-7,-5
1532121972329,0,0,-6,-31,-39,-2,1,-1
1532121972334,1,-7,-20,3,-5,-2,5,-3
1532121972339,-2,-4,4,2,-16,-2,2,2
1532121972344,0,-8,-5,-8,11,0,-1,-6
1532121972349,-3,19,3,9,-16,1,-10,-36
1532121972354,3,-23,20,9,27,-3,-11,-12
1532121972359,-2,0,-28,-15,-33,2,3,23
1532121972364,-6,-5,-3,-4,12,-1,9,7
1532121972369,-2,-5,-1,4,28,-1,-3,-23
1532121972374,0,6,9,7,-27,1,9,39
1532121972379,7,9,17,0,-8,4,0,5
1532121972384,-5,-9,-15,4,-10,-1,-5,-1
1532121972389,1,11,-6,-20,-10,-3,0,-15
1532121972394,-2,-6,-9,7,33,-2,-4,-14
1532121972399,-3,-2,1,3,-2,-2,-2,-13
1532121972404,0,5,12,10,6,-2,0,20
1532121972409,-11,-3,2,2,6,-9,8,13
1532121972414,3,0,-13,-15,-15,-3,11,17
1532121972419,5,-3,14,14,-6,-6,-21,-9
1532121972424,5,11,-10,-20,4,-2,12,-15
1532121972429,4,-7,-3,8,10,-5,1,13
1532121972434,-10,-10,-16,-15,-15,0,-5,-16
1532121972439,-2,12,10,9,2,0,-2,-3
1532121972444,16,9,9,16,4,-1,-9,-6
1532121972449,-12,-11,7,6,8,-3,-4,-13
1532121972454,-2,13,-1,-11,-10,-3,-1,5
1532121972459,-4,6,-7,-4,-1,1,-2,-1
1532121972464,-21,-23,-14,-9,-8,-2,-11,-34
1532121972469,16,-30,-15,1,-5,-1,2,63
1532121972474,4,9,9,0,0,-1,1,-8
1532121972479,8,14,0,-10,-10,-2,9,2
1532121972484,-2,10,3,0,33,1,13,4
1532121972489,-5,2,3,13,-16,2,3,-12
1532121972494,4,-2,3,23,36,-2,-1,-6
1532121972499,-4,-7,2,-12,-13,5,3,6
1532121972504,3,-7,-14,-4,-23,2,-4,11
1532121972509,-2,1,7,6,33,1,2,-4
1532121972514,1,-11,-6,-10,-30,1,-19,1
1532121972519,-8,10,5,1,20,-6,-2,-48
1532121972524,10,16,12,6,-19,1,-3,8
1532121972529,-17,1,-11,-8,15,0,-5,-14
1532121972534,3,-1,-4,-4,-12,-1,1,9
1532121972539,-2,2,13,16,12,0,-7,-4
1532121972544,-2,-9,1,-4,-3,0,0,-6
1532121972549,6,4,-19,-9,-26,-3,3,8
1532121972554,-5,-11,0,-4,24,1,-8,-20
1532121972559,1,-9,-1,-5,-14,0,0,14
1532121972564,2,14,13,14,2,0,13,5
1532121972569,3,14,13,10,4,3,1,-3
1532121972574,-3,-31,-18,-15,-9,4,16,-4
1532121972579,0,-3,3,0,-2,-4,-1,14
1532121972584,-3,-4,-5,-7,2,0,-19,-19
1532121972589,3,-3,-1,-2,1,4,0,1
1532121972594,-3,7,0,-2,0,-1,-34,-13
1532121972599,7,16,4,3,0,1,13,13
1532121972604,34,10,-4,-3,4,2,-1,-6
1532121972609,-26,-43,-8,5,5,1,-4,-4
1532121972614,-1,15,6,4,9,-3,-2,-2
1532121972619,-44,-32,-7,-8,-30,-4,-2,-5
1532121972624,2,2,-9,-19,-7,1,-17,-5
1532121972629,13,13,10,2,-17,1,7,4
1532121972634,-1,2,-1,18,15,-3,-1,-4
1532121972639,21,18,3,-9,0,-1,-4,-3
1532121972644,-9,-2,-7,1,18,-2,13,-5
1532121972649,2,-15,-6,-9,-11,-3,-1,-1
1532121972654,-3,5,1,-1,-15,-3,14,-2
1532121972659,6,0,1,5,4,3,2,2
1532121972664,-12,-9,-4,0,-8,-2,-2,-3
1532121972669,1,20,8,7,13,0,14,4
1532121972674,6,8,-6,-10,-4,-2,-9,1
1532121972679,-1,-14,-4,6,6,1,-9,3
1532121972684,-17,-8,2,-5,-3,-2,-6,-13
1532121972689,11,-1,-4,1,10,-1,-12,15
1532121972694,0,6,8,-4,-7,-1,3,3
1532121972699,4,-2,-5,-3,-8,-2,-15,-5
1532121972704,-15,-13,-3,0,6,3,20,1
1532121972709,2,2,-6,-10,-21,4,-7,-9
1532121972714,0,-2,-1,0,13,-3,3,0
1532121972719,2,-4,-5,-3,6,-1,2,8
1532121972724,0,-8,-3,-3,-20,-4,-12,-2
1532121972729,-3,6,5,0,5,1,0,-6
1532121972734,-3,-2,-2,-2,2,0,1,-1
1532121972739,2,5,0,5,11,2,4,-1
1532121972744,-2,-2,1,-3,-14,3,-1,6
1532121972749,6,6,-1,-6,9,-2,6,0
1532121972754,-1,7,4,-2,-2,-1,-9,-7
1532121972759,0,1,4,5,-18,-5,4,0
1532121972764,-2,-38,-4,2,21,1,7,5
1532121972769,1,-12,-3,-8,-14,-4,0,-6
1532121972774,-2,-12,-3,-8,7,0,-9,-6
1532121972779,-6,5,-3,4,11,-1,-3,-5
1532121972784,1,20,4,8,-3,-3,5,7
1532121972789,-2,19,0,-1,3,-4,-6,-5
1532121972794,2,18,-5,-5,-9,-4,8,2
1532121972799,-1,15,1,-5,-9,-2,1,1
1532121972804,-1,13,-3,-3,13,-5,-11,-3
1532121972809,-2,0,3,10,-7,1,-1,-2
1532121972814,-4,-5,-4,0,-25,-2,2,5
1532121972819,0,-3,1,-5,13,-4,2,-7
1532121972824,4,2,-7,5,-9,-7,-4,7
1532121972829,-1,0,4,-1,30,-2,-1,0
1532121972834,-3,-8,-2,3,-24,-2,-3,-6
1532121972839,1,-4,4,31,22,-1,9,3
1532121972844,-3,-12,-7,-63,-32,-4,-6,-3
1532121972849,-1,-18,-3,4,34,-5,-1,1
1532121972854,-1,-20,-10,-24,-58,-2,-1,1
1532121972859,0,-10,0,1,48,-2,-2,-2
1532121972864,-1,2,3,18,6,4,-6,-3
1532121972869,-1,-10,-4,-2,-21,-4,-3,0
1532121972874,3,4,12,5,22,-1,5,3
1532121972879,1,-1,-8,-4,1,2,5,3
1532121972884,0,13,6,3,-9,1,-1,-6
1532121972889,-7,5,-1,8,-15,-2,1,9
1532121972894,1,7,-1,13,17,-2,-2,-7
1532121972899,-1,2,-3,-15,-21,0,-2,-1
1532121972904,1,3,-2,-1,17,0,-1,-1
1532121972909,-3,1,1,-3,-17,4,-15,-6
1532121972914,-2,-3,1,-4,6,3,13,-2
1532121972919,1,-4,-1,-5,-16,-1,2,0
1532121972924,1,-2,-1,4,7,2,2,2
1532121972929,1,2,7,6,3,-1,0,0
1532121972934,-2,-3,-5,4,11,0,-2,0
1532121972939,0,-1,-4,-14,-41,-1,1,1
1532121972944,-6,0,0,24,39,-2,-2,-3
1532121972949,-3,0,-2,-14,2,3,-5,-3
1532121972954,-3,7,5,2,-1,2,-2,-3
1532121972959,1,0,1,-6,-6,2,3,4
1532121972964,-1,-1,0,4,-13,-1,-3,1
1532121972969,-4,-2,0,7,-13,-2,-7,-8
1532121972974,5,-7,-4,-5,0,1,8,-3
1532121972979,-1,-7,0,3,17,4,-3,-2
1532121972984,1,1,0,0,8,1,-4,-1
1532121972989,1,2,-4,-7,12,3,3,-4
1532121972994,-1,3,-2,-8,-46,0,1,3
1532121972999,-3,1,-3,4,-1,-3,-3,1
1532121973004,1,4,5,9,42,0,3,2
1532121973009,2,-1,-1,-17,-30,1,-1,-4
1532121973014,1,-4,-5,2,-1,0,-9,-2
1532121973019,1,0,1,-4,3,0,-2,-1
1532121973024,-4,-5,-6,-5,-25,-1,-1,-3
1532121973029,0,1,-1,2,44,-2,10,5
1532121973034,-5,2,3,6,-6,-1,4,3
1532121973039,-7,-4,-2,-13,-15,2,-4,-6
1532121973044,2,1,0,1,-13,1,4,7
1532121973049,0,-1,1,0,-7,-4,-2,0
1532121973054,-6,-8,-5,-1,14,0,-5,-9
1532121973059,2,-3,0,5,9,-6,-1,-1
1532121973064,-5,-8,-4,-2,-13,2,-6,-11
1532121973069,5,1,2,0,24,1,6,12
1532121973074,4,4,2,4,-8,0,13,8
1532121973079,-1,1,-4,-5,-9,-1,-2,-2
1532121973084,-2,-5,-4,-6,0,0,5,1
1532121973089,0,-1,-1,7,-13,1,-10,-7
1532121973094,2,3,0,-4,22,-3,-7,0
1532121973099,1,4,4,3,-7,3,0,0
1532121973104,1,-2,-2,6,-3,-6,4,2
1532121973109,-8,-6,-6,-1,-24,1,1,-4
1532121973114,1,-3,-2,-21,5,2,0,-1
1532121973119,-4,-2,-1,4,6,-2,-8,-4
1532121973124,0,1,2,2,-7,0,-3,0
1532121973129,4,5,3,9,5,-2,5,1
1532121973134,0,-3,-2,2,-6,0,-2,0
1532121973139,-1,-2,-1,-3,6,1,-1,-1
1532121973144,1,-1,-1,-7,2,2,1,-2
1532121973149,-1,2,4,7,-2,-5,5,2
1532121973154,4,-1,-3,-4,16,0,-13,-12
1532121973159,1,1,-1,-4,-14,-6,5,-4
1532121973164,2,-5,-6,-2,-13,-4,-13,-40
1532121973169,0,-6,-4,-10,1,-4,-1,18
1532121973174,-1,-2,2,6,-12,-2,-13,12
1532121973179,4,2,2,7,28,-4,-2,-14
1532121973184,-1,0,3,-3,14,-4,-11,7
1532121973189,-1,-1,-1,-6,-36,-3,11,3
1532121973194,-1,2,5,8,16,2,2,11
1532121973199,0,2,3,-2,-6,-3,-10,-6
1532121973204,-7,-2,-4,1,3,-1,4,0
1532121973209,-2,-2,-3,-14,-61,-3,4,4
1532121973214,-2,-1,1,8,56,-1,-1,1
1532121973219,2,0,1,3,-6,2,1,7
1532121973224,1,1,3,6,2,0,3,-12
1532121973229,-7,-8,-7,-3,14,-4,-9,-18
1532121973234,-5,-5,-3,-6,-20,-2,0,17
1532121973239,1,4,2,0,7,-2,-7,-6
1532121973244,2,19,6,3,14,-2,9,3
1532121973249,-8,-20,-7,-7,5,2,-9,-3
1532121973254,4,9,-2,0,-10,-2,11,11
1532121973259,-16,-21,-2,-4,7,0,-7,2
1532121973264,-10,-10,-5,-4,-2,-4,1,-12
1532121973269,11,18,8,1,-2,6,-21,9
1532121973274,4,6,4,3,-9,4,1,-14
1532121973279,8,2,-6,2,-27,-3,5,12
1532121973284,0,-4,0,-7,17,2,6,2
1532121973289,-7,-4,-4,3,18,2,2,-3
1532121973294,-3,-6,-2,-9,-9,-6,-3,4
1532121973299,2,5,1,-3,-26,-4,-1,-9
1532121973304,-3,-4,1,19,43,-1,4,8
1532121973309,2,0,-1,-1,-8,0,3,-4
1532121973314,1,-1,-1,-5,-19,2,7,2
1532121973319,3,2,2,0,6,2,2,1
1532121973324,-9,-6,-5,-12,-3,-2,-1,-11
1532121973329,-6,3,7,4,-24,2,-9,-2
1532121973334,6,6,2,21,21,-3,11,6
1532121973339,-6,-7,-10,2,21,1,-2,-4
1532121973344,14,5,4,3,-1,-2,0,0
1532121973349,-5,2,0,1,12,-4,1,6
1532121973354,-29,-8,3,-13,-26,1,4,-25
1532121973359,27,7,3,-3,-17,3,-25,-7
1532121973364,-28,-4,-4,3,-13,0,10,5
1532121973369,6,-4,-1,-1,-2,-2,-5,1
1532121973374,-10,-3,0,1,7,-2,-5,7
1532121973379,-15,-29,-4,-4,-23,2,-1,-11
1532121973384,8,9,-1,-5,16,-2,-2,-2
1532121973389,3,-2,-1,-2,-30,-1,5,3
1532121973394,36,22,3,6,-2,0,-16,3
1532121973399,18,14,0,-7,52,-3,-4,2
1532121973404,17,-4,-5,-8,-47,-1,-3,7
1532121973409,-30,-16,-3,0,23,0,6,-4
1532121973414,-47,-36,-3,-12,-18,-1,9,-7
1532121973419,-8,10,10,12,16,4,8,-1
1532121973424,30,-6,-6,-10,-65,-2,6,-2
1532121973429,24,35,2,25,106,3,-6,3
1532121973434,-39,-15,-3,-7,-5,-1,-10,1
1532121973439,4,-32,-9,-7,-47,-5,1,-8
1532121973444,-34,-63,1,-7,-64,3,-4,-4
1532121973449,-58,54,8,17,63,-3,-4,-3
1532121973454,28,28,-3,-15,-49,-1,1,10
1532121973459,20,3,3,9,34,-3,-2,-2
1532121973464,-15,-11,-3,-4,45,2,-7,-15
1532121973469,-43,-29,-3,-16,-55,-1,12,9
1532121973474,37,-56,0,18,10,2,10,21
1532121973479,1,94,6,-1,-3,-2,-7,8
1532121973484,-17,-1,-9,-10,13,0,10,-6
1532121973489,68,5,0,1,-27,1,-7,-4
1532121973494,-26,41,0,-10,47,-5,-3,-4
1532121973499,-6,-37,-7,-4,-39,3,-2,1
1532121973504,2,9,15,14,28,1,-7,0
1532121973509,2,22,-5,6,24,-2,19,4
1532121973514,-24,-32,-16,-26,-32,0,14,-1
1532121973519,40,-17,-4,-7,-4,-4,11,-3
1532121973524,14,55,4,9,3,-2,-19,5
1532121973529,-15,-41,0,-17,-74,-5,-8,-9
1532121973534,9,4,15,37,5,-1,1,2
1532121973539,-70,-48,-6,-7,-55,-4,15,4
1532121973544,-55,-57,-14,3,48,-8,9,-19
1532121973549,121,90,1,9,25,-1,28,26
1532121973554,10,73,20,11,18,-9,4,2
1532121973559,-20,-19,-30,-53,3,-2,-20,-8
1532121973564,41,-7,5,-8,6,-4,-8,-2
1532121973569,-33,-75,-13,-7,-93,-10,-36,0
1532121973574,-75,-16,3,19,109,-1,-22,-11
1532121973579,14,-36,7,34,57,-3,-1,-1
1532121973584,11,42,-5,-22,-34,0,-7,1
1532121973589,3,5,-1,2,-1,-1,-15,-3
1532121973594,23,-6,-3,-7,8,-1,-5,-2
1532121973599,-68,-28,6,-1,-3,-1,-1,-10
1532121973604,20,-7,-5,3,16,3,8,6
1532121973609,1,9,4,8,60,2,4,-1
1532121973614,25,-4,-5,34,81,-1,-10,0
1532121973619,37,83,5,-6,-33,-4,3,5
1532121973624,-14,7,9,14,4,-3,15,-4
1532121973629,-13,-20,-8,-25,-9,4,21,-1
1532121973634,20,-13,-4,-9,-44,-4,-2,-2
1532121973639,-3,-24,1,2,1,4,-36,-4
1532121973644,4,-39,-7,-6,-68,2,-27,6
1532121973649,8,-40,10,39,72,2,-22,-5
1532121973654,4,-27,4,13,-40,5,-4,-4
1532121973659,1,-11,6,-6,19,0,-6,2
1532121973664,1,2,-11,-15,0,0,-6,6
1532121973669,-2,21,12,14,5,-1,-6,-6
1532121973674,0,6,-18,-53,-17,3,3,-5
1532121973679,-4,3,25,40,20,1,8,-4
1532121973684,0,13,5,-31,53,-1,2,-6
1532121973689,-7,11,-8,-8,-31,1,3,2
1532121973694,11,18,-6,3,-1,1,2,4
1532121973699,-15,10,-20,3,13,2,-3,-6
1532121973704,-2,8,2,15,-3,-2,2,0
1532121973709,-2,7,-16,-6,-21,-1,-3,-4
1532121973714,-2,1,-8,8,-27,0,1,1
1532121973719,5,11,-12,-21,9,6,4,4
1532121973724,-1,20,5,23,-30,0,3,1
1532121973729,-10,-8,-24,-39,6,-2,-1,0
1532121973734,-2,2,11,5,-10,-4,-11,-5
1532121973739,-3,-29,1,-18,58,2,-4,-1
1532121973744,-1,-66,25,21,13,-5,-7,-2
1532121973749,7,56,10,-7,-39,-1,9,9
1532121973754,-4,43,-6,-9,-16,0,8,-8
1532121973759,-9,7,-6,-18,27,-3,2,-5
1532121973764,-8,-17,7,7,-4,3,-13,1
1532121973769,11,-25,25,15,19,-2,-9,-3
1532121973774,8,42,1,-9,-6,-3,-5,-1
1532121973779,-24,72,-5,-1,-8,1,-4,-9
1532121973784,10,62,-17,-12,17,-3,5,-21
1532121973789,-11,10,-3,3,16,-1,-13,0
1532121973794,-33,-2,-5,6,-13,0,-3,0
1532121973799,-24,1,5,19,0,-5,2,-2
1532121973804,46,8,-7,4,32,2,17,-1
1532121973809,-16,-9,3,6,-4,2,13,-5
1532121973814,25,-12,2,-11,1,0,15,-10
1532121973819,48,-2,2,15,-53,-16,-20,14
1532121973824,-15,5,-1,-11,8,-22,-3,-7
1532121973829,7,16,-5,-5,11,-114,6,1
1532121973834,-36,-28,-5,26,6,-109,2,-8
1532121973839,-37,-18,-15,-39,-44,-17,6,-8
1532121973844,8,-11,4,8,24,104,-28,6
1532121973849,-38,-15,1,-6,-22,127,28,-2
1532121973854,47,-24,7,-10,-4,122,12,4
1532121973859,0,-25,12,38,53,36,-11,3
1532121973864,-16,-29,0,-5,20,-14,-11,1
1532121973869,-5,-61,-11,-16,-14,-18,-7,-4
1532121973874,-4,-1,-4,18,0,-30,-14,1
1532121973879,32,-19,-3,-3,0,-28,1,3
1532121973884,0,7,-5,0,23,-46,-15,-6
1532121973889,-2,10,-4,13,16,-31,-11,2
1532121973894,22,26,-8,-11,17,-20,17,-16
1532121973899,-5,-1,-3,2,10,-13,-15,-8
1532121973904,5,36,-1,-2,-4,-29,13,63
1532121973909,-2,75,-5,-3,36,-17,7,-44
1532121973914,-10,50,-3,-5,-14,-5,-20,5
1532121973919,-2,11,-1,-5,-50,-3,20,-3
1532121973924,16,76,-4,3,-38,-9,-8,-18
1532121973929,5,76,-17,-4,19,-1,7,5
1532121973934,-17,8,-1,0,7,4,-1,0
1532121973939,-41,50,-2,1,-7,0,43,-79
1532121973944,39,-123,2,-9,-54,-5,-8,48
1532121973949,21,46,14,0,-5,5,-23,21
1532121973954,4,97,22,-2,14,0,26,24
1532121973959,32,122,11,-7,0,-1,-3,-14
1532121973964,-45,91,26,2,-37,-1,-17,-31
1532121973969,-12,1,7,11,29,-1,-32,-23
1532121973974,12,8,8,-15,-53,-1,-66,1
1532121973979,1,-51,-3,-2,-3,3,73,-24
1532121973984,-16,6,-8,-3,47,-12,29,22
1532121973989,12,-89,0,9,16,-1,1,8
1532121973994,-15,-122,-5,10,26,3,10,-1
1532121973999,42,-100,-3,-14,-47,3,-48,23
1532121974004,-36,-117,-7,-11,14,-1,-12,-46
1532121974009,-73,-27,-7,3,-42,1,4,-18
1532121974014,28,109,-1,0,18,5,2,35
1532121974019,9,97,0,-14,-32,1,5,43
1532121974024,21,82,-2,19,41,1,10,-16
1532121974029,37,125,-3,-3,13,3,75,23
1532121974034,-22,100,-10,16,-4,0,-31,-26
1532121974039,-20,93,-10,4,-1,-3,-23,-4
1532121974044,-8,80,-9,0,-4,1,46,56
1532121974049,0,-9,7,-7,-24,2,-14,-1
1532121974054,32,-49,-4,-13,-26,6,-2,0
1532121974059,-6,-66,5,25,57,2,33,14
1532121974064,-12,-51,-2,-3,-21,1,-21,-10
1532121974069,-14,-66,-7,-12,-55,3,-13,5
1532121974074,16,-68,-7,-2,45,-5,35,-4
1532121974079,-31,-52,4,14,18,-1,-46,0
1532121974084,7,-2,-4,-9,2,2,0,-19
1532121974089,38,-14,-5,8,4,5,50,10
1532121974094,-22,-37,5,-15,-24,-5,7,16
1532121974099,10,-24,-8,-3,14,1,-21,-25
1532121974104,10,10,4,7,3,0,44,-12
1532121974109,-16,-30,14,-16,-61,-8,-88,18
1532121974114,-27,-36,-10,-1,20,1,15,-81
1532121974119,84,42,-8,10,36,3,40,79
1532121974124,-31,20,-3,-13,-53,0,-45,-22
1532121974129,18,23,-3,8,7,-3,-61,-15
1532121974134,-30,4,-3,-6,17,0,37,8
1532121974139,-23,-11,5,-7,-27,-1,-28,-33
1532121974144,3,6,1,4,39,1,56,32
1532121974149,-3,-10,0,-1,-2,-1,29,6
1532121974154,-29,-10,5,-8,-32,-1,-39,7
1532121974159,11,3,-4,4,5,2,14,-29
1532121974164,2,16,12,10,-22,-1,-74,-20
1532121974169,-1,0,-4,2,25,-4,-19,-17
1532121974174,29,10,2,7,-4,3,27,0
1532121974179,-26,-6,1,-11,-35,0,29,40
1532121974184,40,-7,-3,-21,-47,-8,-87,-40
1532121974189,-1,-11,-5,1,59,5,127,-14
1532121974194,-30,-14,-1,20,8,-5,-128,-10
1532121974199,0,3,-5,0,30,-7,-40,9
1532121974204,-7,-4,-8,3,40,-1,24,-39
1532121974209,28,17,12,6,-9,4,38,81
1532121974214,-5,8,1,-4,-34,0,4,-7
1532121974219,8,-57,1,0,6,-9,-4,0
1532121974224,-30,-8,-9,-7,5,-8,19,-18
1532121974229,-14,-6,4,-11,-8,-8,-37,-31
1532121974234,-15,-7,6,1,48,-6,-12,20
1532121974239,30,7,3,-3,-20,-7,56,43
1532121974244,1,-73,8,-5,-8,-1,-7,-40
1532121974249,48,-65,-11,8,34,-12,-23,-22
1532121974254,41,-17,-8,-13,-32,-6,-24,-10
1532121974259,-52,28,-21,-1,41,5,73,46
1532121974264,5,-30,-3,12,0,-7,24,9
1532121974269,-19,-7,4,-5,-15,-4,8,2
1532121974274,35,60,6,1,-6,1,-8,7
1532121974279,15,68,6,12,1,2,7,-20
1532121974284,-16,114,8,-3,-27,9,32,57
1532121974289,19,82,-15,-18,-93,5,-91,-36
1532121974294,47,43,-16,-6,15,15,57,-86
1532121974299,34,62,1,3,-36,-1,27,15
1532121974304,-30,2,-8,32,84,3,-5,20
1532121974309,-1,44,22,66,10,4,-3,21
1532121974314,-60,-46,-32,-95,-24,-5,-9,4
1532121974319,-30,-66,-9,6,15,6,-60,-48
1532121974324,16,-35,-4,-20,-23,-2,17,10
1532121974329,1,-36,-6,3,18,2,6,9
1532121974334,-58,-7,-2,26,29,1,-10,-43
1532121974339,29,-24,5,-15,-16,-2,-8,20
1532121974344,-61,-41,20,2,-14,-3,0,14
1532121974349,22,16,-15,-17,17,1,10,-16
1532121974354,31,19,4,15,21,1,-2,13
1532121974359,17,9,1,-14,-34,2,42,30
1532121974364,-28,11,-8,29,40,-5,-59,-39
1532121974369,16,25,9,-11,12,2,1,17
1532121974374,35,-50,-2,-1,-21,0,14,4
1532121974379,-14,30,-9,-4,-18,3,0,36
1532121974384,28,-9,-2,8,-3,2,0,-5
1532121974389,-42,-14,-12,-12,12,-3,-11,-14
1532121974394,-23,-25,8,8,-21,-7,-8,15
1532121974399,10,-27,15,11,17,2,-11,-28
1532121974404,40,34,-8,-25,-47,-1,-7,2
1532121974409,2,-37,-1,44,62,-1,8,3
1532121974414,6,-5,19,32,-3,11,31,27
1532121974419,-30,-21,-17,-40,7,-2,-51,-45
1532121974424,13,29,-3,-11,15,-1,5,5
1532121974429,-32,-4,-1,-20,-41,1,-44,-15
1532121974434,-4,16,10,19,12,-1,17,34
1532121974439,-53,-61,6,22,2,-3,-32,-28
1532121974444,4,7,-4,-8,12,0,32,3
1532121974449,-17,9,9,7,-14,1,22,-2
1532121974454,-46,-35,-4,-3,28,-3,-5,4
1532121974459,-37,8,14,34,26,-7,-7,-9
1532121974464,-23,1,7,-35,-74,-4,1,3
1532121974469,-36,-17,-15,-5,3,-74,12,7
1532121974474,13,50,7,-12,-4,-117,-2,8
1532121974479,-26,0,-12,-8,-14,-71,-30,-10
1532121974484,-33,-34,0,15,-1,0,1,-10
1532121974489,18,7,3,-1,10,76,14,-15
1532121974494,11,-5,-18,-51,-100,106,10,6
1532121974499,32,2,20,93,110,83,19,9
1532121974504,54,-11,-13,-59,-54,107,-20,4
1532121974509,67,4,-11,-59,-106,127,-13,1
1532121974514,49,3,1,47,98,127,27,1
1532121974519,39,10,1,-4,-53,90,-5,10
1532121974524,-14,18,18,107,38,12,-3,-2
1532121974529,-18,4,-17,-69,-114,-43,-7,-2
1532121974534,-18,-4,-6,-25,74,-68,5,-6
1532121974539,-12,9,-5,8,-22,-67,24,-3
1532121974544,-25,-12,3,30,34,-71,11,-8
1532121974549,-22,-8,8,4,31,-70,-8,0
1532121974554,-12,-4,4,4,-48,-53,-10,4
1532121974559,-5,-5,0,-33,6,-43,-3,6
1532121974564,2,-4,-1,-28,-30,-48,9,1
1532121974569,-7,-6,0,23,51,-26,-27,-10
1532121974574,8,2,2,5,-11,-23,-7,6
1532121974579,1,-5,1,-1,-21,-20,-6,-10
1532121974584,4,-13,-10,-15,8,-20,8,11
1532121974589,-7,-26,4,13,9,-14,-7,5
1532121974594,0,-23,-2,11,-17,-13,-4,-3
1532121974599,4,1,-5,-22,-2,-12,4,1
1532121974604,18,25,-5,-5,-7,-5,-8,-4
1532121974609,20,36,2,10,60,-8,9,0
1532121974614,36,29,-2,4,-44,-9,-5,-17
1532121974619,18,18,-2,-6,-17,-2,3,1
1532121974624,8,22,2,-4,-4,-9,16,-7
1532121974629,-22,-3,6,26,31,-5,9,-7
1532121974634,-41,2,-1,-10,-18,-4,13,2
1532121974639,-22,6,5,9,-1,3,11,-15
1532121974644,-4,-7,-9,-22,36,0,-14,4
1532121974649,9,0,-1,-8,-51,-1,-4,12
1532121974654,16,-10,2,5,30,1,-11,-5
1532121974659,-3,-7,1,-3,0,2,2,21
1532121974664,7,-7,0,7,27,1,-8,-16
1532121974669,9,-12,4,14,-6,0,6,3
1532121974674,3,-9,-3,-1,3,2,5,7
1532121974679,-12,-8,-3,-11,-25,-3,2,-8
1532121974684,-10,-10,-3,-12,-27,-1,5,4
1532121974689,-25,-4,0,-1,14,1,-7,-8
1532121974694,-19,14,6,18,17,3,14,-1
1532121974699,-8,-17,-6,-19,-12,2,22,-4
1532121974704,-14,13,0,-3,-20,3,13,-5
1532121974709,-4,-21,-1,9,17,1,-8,0
1532121974714,-13,3,-3,4,-24,-1,-23,-6
1532121974719,8,12,0,-11,-2,1,-25,1
1532121974724,0,0,2,8,8,1,-21,15
1532121974729,-5,-8,3,4,0,-4,-8,-3
1532121974734,7,2,1,5,0,0,-11,-3
1532121974739,3,0,-6,-9,8,-1,1,10
1532121974744,-3,-10,-4,3,0,2,-4,-12
1532121974749,3,18,3,-6,-8,0,2,6
1532121974754,-2,1,-4,-1,5,-2,-9,-2
1532121974759,3,8,3,8,1,-1,-5,-4
1532121974764,10,4,-1,-2,-6,-3,1,7
1532121974769,7,14,-3,-5,6,4,4,-1
1532121974774,16,6,-1,-7,-11,2,5,9
1532121974779,7,5,-1,-1,-1,1,-2,-6
1532121974784,4,-1,1,-1,-5,-2,3,3
1532121974789,-3,-5,-3,-5,-3,-8,0,1
1532121974794,-8,-1,2,7,9,-4,-3,-3
1532121974799,-5,-7,0,-1,-1,2,-4,0
1532121974804,-9,-2,2,1,-20,-1,-6,-3
1532121974809,-1,0,-1,-1,12,-2,-1,1
1532121974814,-14,-5,-1,0,1,3,0,3
1532121974819,-4,-7,-3,-2,7,2,7,-4
1532121974824,10,2,-1,0,1,2,2,4
1532121974829,-5,-5,-4,-4,-2,4,2,-2
1532121974834,-5,-12,-3,-6,-14,-3,-6,6
1532121974839,1,15,6,3,0,-3,-9,-2
1532121974844,-14,-31,-7,-1,-6,-7,-4,-4
1532121974849,8,-2,0,0,0,-1,-3,0
1532121974854,12,0,-1,-2,3,2,1,2
1532121974859,17,-2,2,-2,-8,-1,2,-2
1532121974864,0,-4,0,0,3,3,5,3
1532121974869,1,5,1,0,3,-1,5,0
1532121974874,7,-10,1,1,-4,1,0,4
1532121974879,-6,1,-1,-1,-3,-1,0,6
1532121974884,13,6,1,1,0,3,2,4
1532121974889,4,1,-3,1,2,-3,4,8
1532121974894,2,0,-1,-3,-9,0,10,3
1532121974899,9,3,-3,-1,-8,-5,-1,-8
1532121974904,-5,-6,-4,-5,3,-3,-1,-8
1532121974909,3,13,2,-1,-9,2,2,-9
1532121974914,-8,4,4,8,8,-2,6,-9
1532121974919,-3,3,-6,-5,-1,-2,6,-8
1532121974924,2,-19,0,3,4,-5,-6,-19
1532121974929,12,2,0,-4,-5,1,13,8
1532121974934,7,-20,-5,-2,-5,0,-10,17
1532121974939,10,4,2,-3,-5,-4,-19,-1
1532121974944,4,19,-3,-2,-3,-1,5,2
1532121974949,-15,-11,-3,7,6,-2,-14,-12
1532121974954,-8,13,1,2,9,-4,5,-9
1532121974959,1,-20,-5,-5,0,-4,-4,-7
1532121974964,-16,-2,-6,-4,-4,-3,-12,-6
1532121974969,-5,0,6,-1,0,-5,0,-6
1532121974974,-24,-7,-4,-11,-26,-6,2,-4
1532121974979,-17,-19,-11,5,38,-5,1,-4
1532121974984,-9,3,1,0,3,-6,4,1
1532121974989,-10,1,-2,2,5,-4,-4,1
1532121974994,-12,-6,0,-2,-2,1,-4,-7
1532121974999,-7,4,5,-2,-16,1,12,5
1532121975004,-1,1,1,0,0,-4,-9,0
1532121975009,-2,-1,-4,-1,-1,-4,-3,0
1532121975014,19,11,2,3,10,1,16,-2
1532121975019,9,0,-5,-6,-15,-1,12,6
1532121975024,-4,-3,6,4,6,1,5,10
1532121975029,0,-3,-1,0,-4,3,11,7
1532121975034,4,3,-6,-6,-2,2,-17,-9
1532121975039,-3,6,0,-1,-2,-1,-2,-7
1532121975044,-3,-4,-4,-4,-12,-1,-5,-6
1532121975049,-1,-3,0,2,-7,3,-12,-6
1532121975054,6,0,0,0,-3,-1,-4,0
1532121975059,-4,-7,0,-1,-7,1,-5,3
1532121975064,6,3,1,-2,-15,1,3,5
1532121975069,10,1,-1,-1,-2,-4,-11,-5
1532121975074,-4,-5,-1,4,2,0,0,3
1532121975079,-4,0,3,-4,-3,3,-11,-5
1532121975084,1,2,0,2,3,-2,-2,4
1532121975089,2,13,2,0,-4,-4,2,8
1532121975094,1,3,2,-1,-3,-108,-11,3
1532121975099,3,1,-6,-3,-4,-91,-5,1
1532121975104,-8,7,7,7,10,-10,2,6
1532121975109,0,1,1,1,9,59,-5,10
1532121975114,13,-10,0,2,-2,104,-1,1
1532121975119,14,-8,0,-3,-12,91,6,2
1532121975124,27,7,-3,-3,-5,76,6,-4
1532121975129,15,13,-2,-1,-6,62,8,-5
1532121975134,15,7,1,0,0,59,1,-2
1532121975139,5,-6,0,5,1,47,5,-6
1532121975144,-7,-9,-1,-3,4,41,6,-4
1532121975149,-17,-10,3,3,4,16,4,-7
1532121975154,-15,-11,2,-5,1,18,5,7
1532121975159,-20,-6,-3,-2,-3,30,-2,2
1532121975164,-17,-8,-7,-10,-11,13,0,-3
1532121975169,-10,-11,-2,-4,0,-6,-1,-7
1532121975174,-7,-2,0,0,5,9,1,-9
1532121975179,-8,-3,4,5,9,14,2,-7
1532121975184,-5,8,1,3,7,-2,-1,-6
1532121975189,-3,5,-3,-3,3,-9,0,-3
1532121975194,-7,14,-2,1,2,8,-4,-8
1532121975199,-3,19,2,2,4,5,-3,-4
1532121975204,-1,6,-6,-4,4,-4,-4,-2
1532121975209,0,-4,-3,-4,-1,-1,1,0
1532121975214,-1,1,-1,-3,3,5,0,0
1532121975219,-2,-2,-2,-3,4,1,0,0
1532121975224,2,-2,1,1,1,-1,0,-1
1532121975229,-3,-8,0,-3,-1,-2,-5,0
1532121975234,-7,-16,-2,0,0,0,-4,-3
1532121975239,-3,-7,1,1,2,0,-10,0
1532121975244,1,-10,1,2,3,1,2,1
1532121975249,3,-7,-2,-2,-3,-3,5,2
1532121975254,4,6,0,-1,-4,-1,6,0
1532121975259,-6,11,1,1,-5,3,4,0
1532121975264,-7,-7,2,0,-2,0,7,3
1532121975269,-3,7,0,0,1,-3,17,3
1532121975274,-4,11,-8,0,3,1,5,4
1532121975279,-2,4,-4,-1,11,2,-4,13
1532121975284,-1,6,-5,-2,11,-1,-8,11
1532121975289,-3,2,1,-2,5,-3,-11,5
1532121975294,-8,-7,4,-2,-4,1,-5,6
1532121975299,-2,16,0,-2,-10,1,-5,-2
1532121975304,-3,-16,-5,-1,-7,-2,-15,-3
1532121975309,-9,-5,-5,0,-8,-1,-5,-9
1532121975314,-8,5,-4,-2,-10,1,3,-8
1532121975319,-8,39,-3,-2,-7,0,3,-9
1532121975324,0,23,0,-1,-6,-1,6,-8
1532121975329,9,2,-4,-2,-7,-1,-3,-6
1532121975334,11,-10,0,-1,-4,-1,-6,-4
1532121975339,11,-16,-1,0,-5,-1,-2,-4
1532121975344,12,9,3,-1,1,0,-2,-6
1532121975349,9,-7,1,-1,3,-2,0,-2
1532121975354,8,-25,2,-2,1,-1,-1,0
1532121975359,5,24,4,0,1,0,1,2
1532121975364,-1,-7,3,-2,-1,0,-2,-2
1532121975369,0,4,-2,-2,-3,-1,-1,-1
1532121975374,2,2,-1,-3,-2,0,-9,-1
1532121975379,4,-20,-4,-2,-1,0,-1,-3
1532121975384,3,1,-5,-2,-6,-1,2,1
1532121975389,1,-5,0,-4,-7,-1,4,3
1532121975394,2,-43,2,-7,-7,0,1,2
1532121975399,1,-48,-2,-6,-4,-1,-7,2
1532121975404,0,-29,-2,-3,-1,-1,-6,3
1532121975409,2,-7,0,0,4,-1,0,5
1532121975414,-1,19,0,1,7,0,5,-6
1532121975419,3,-4,3,0,8,0,11,-6
1532121975424,7,24,1,3,-3,-1,6,-2
1532121975429,-8,17,1,8,-7,-1,0,1
1532121975434,11,33,1,10,3,0,5,5
1532121975439,10,26,2,8,13,-1,-3,1
1532121975444,11,19,5,6,7,-1,-8,0
1532121975449,7,8,2,3,13,0,-8,-5
1532121975454,1,5,7,4,14,-1,1,-4
1532121975459,2,-6,9,9,5,0,0,-3
1532121975464,-4,8,5,6,1,0,2,-2
1532121975469,-3,-4,3,9,-6,-1,0,-3
1532121975474,-7,29,-4,11,-6,-1,-1,-3
1532121975479,-6,50,-8,11,-3,0,-3,-2
1532121975484,-6,37,-6,11,0,0,0,1
1532121975489,-5,85,-2,5,-6,-1,1,-1
1532121975494,-2,67,-3,-8,-2,-1,-3,0
1532121975499,-5,-44,-8,-15,-2,-1,-2,-1
1532121975504,-8,-85,-7,-20,-4,0,1,1
1532121975509,-4,-116,0,-23,-2,0,0,-2
1532121975514,-3,-51,0,-12,-10,0,0,-1
1532121975519,-7,-10,5,-12,-16,-1,0,-2
1532121975524,-5,-25,3,-5,-10,0,1,-4
1532121975529,-4,-58,-4,0,2,-1,0,-1
1532121975534,-7,-22,-6,-5,4,-1,0,1
1532121975539,-4,7,-7,-7,0,0,2,1
1532121975544,-1,17,-7,-10,-5,0,0,0
1532121975549,0,20,-4,-7,-6,0,-2,-1
1532121975554,-2,4,-5,-4,-5,47,-3,0
1532121975559,-3,-6,-5,0,-4,83,-1,0
1532121975564,-2,1,-2,2,0,84,-1,0
1532121975569,-1,14,-2,2,2,31,0,-1
1532121975574,-3,-1,-3,2,1,18,0,1
1532121975579,-1,-3,-1,2,0,14,0,-1
1532121975584,-4,5,-5,5,1,75,0,-1
1532121975589,0,9,-2,9,0,47,-3,-1
1532121975594,-2,-1,-1,16,-2,26,0,-1
1532121975599,1,-4,3,25,0,23,1,1
1532121975604,0,5,3,9,0,-40,0,1
1532121975609,2,2,-1,-9,4,-11,-2,1
1532121975614,2,-15,-1,-17,0,-22,0,0
1532121975619,-1,-5,1,-22,-2,-30,-3,-1
1532121975624,-2,5,-2,-15,0,-33,-1,-2
1532121975629,0,12,0,-6,-2,-34,-2,-1
1532121975634,1,9,-2,-2,1,-31,-2,-1
1532121975639,3,8,-3,-3,3,-27,-1,0
1532121975644,-1,5,-1,1,2,-27,0,-1
1532121975649,1,3,1,0,-3,-20,-1,0
1532121975654,-1,-4,1,6,-4,-14,-3,0
1532121975659,0,-8,1,8,-3,-4,0,-1
1532121975664,1,-11,0,0,-2,-12,1,0
1532121975669,2,6,0,-1,1,1,-1,-3
1532121975674,2,8,0,-2,-2,7,-2,-2
1532121975679,2,-2,0,-5,-4,-4,0,-1
1532121975684,-2,1,0,-3,-2,-18,-1,0
1532121975689,-4,-3,-1,0,0,-6,-1,-1
1532121975694,-3,-3,1,-1,1,-15,-3,-2
1532121975699,-4,-4,3,-2,-1,-23,-1,-2
1532121975704,0,0,1,-1,-2,-12,-1,-1
1532121975709,-2,2,-1,0,-5,-5,-1,0
1532121975714,0,-1,0,-1,-3,5,-3,0
1532121975719,0,0,-2,-2,0,4,-2,0
1532121975724,0,1,-1,1,-2,9,0,-3
1532121975729,0,2,0,0,-2,4,1,-1
1532121975734,1,-1,-1,-2,-3,7,0,-2
1532121975739,-2,1,-2,-1,-2,2,0,-1
1532121975744,-1,5,0,-1,-1,-6,-1,-1
1532121975749,0,1,0,0,1,7,1,-2
1532121975754,1,-3,-3,1,0,5,0,0
1532121975759,-2,-1,-1,-1,0,-12,-1,0
1532121975764,-1,3,1,1,1,-18,-2,-1
1532121975769,0,1,0,2,1,-23,-2,0
1532121975774,-1,0,-1,-2,1,-17,-2,0
1532121975779,-2,-3,0,0,0,-24,-2,-1
1532121975784,1,-1,0,-1,1,-22,-1,1
1532121975789,-2,0,0,0,-2,-7,-3,0
1532121975794,-2,-1,1,0,-1,-12,-1,0
1532121975799,0,-2,-1,-1,0,-2,-1,0
1532121975804,-1,0,-2,-1,1,-1,0,-2
1532121975809,1,0,-2,-2,2,-17,0,-1
1532121975814,0,-2,-1,-2,1,-14,-2,-1
1532121975819,-1,0,0,-2,-1,-9,-1,0
1532121975824,-1,0,1,-1,-1,8,-2,1
1532121975829,-1,3,-1,-1,-3,13,-1,-1
1532121975834,-2,4,0,1,-2,1,-1,-3
1532121975839,0,-1,0,0,0,-3,0,-1
1532121975844,0,-1,-1,0,-1,-1,1,-1
1532121975849,-1,-2,0,-2,0,-1,0,-1
1532121975854,1,1,1,-2,0,0,1,0
1532121975859,1,2,-1,-2,-2,0,1,0
1532121975864,2,0,0,-1,-1,2,2,-1
1532121975869,0,1,1,0,-1,6,0,-1
1532121975874,-1,-1,0,-1,-1,2,-1,-1
1532121975879,0,0,-1,-1,-1,6,-3,-2
1532121975884,1,3,-1,-1,-1,-1,-4,0
1532121975889,-1,3,-1,0,0,3,-2,0
1532121975894,-1,1,-1,1,-1,5,-2,0
1532121975899,-1,1,0,0,-2,0,0,0
1532121975904,1,-1,-1,0,-1,-1,-1,-2
1532121975909,0,-2,-1,0,-2,4,1,-1
1532121975914,0,-1,-2,-2,-1,-2,2,-1
1532121975919,-2,0,-1,-1,-2,-3,-5,-1
1532121975924,-1,-1,-2,-1,-1,-1,-1,0
1532121975929,1,2,-1,-1,0,-2,-2,0
1532121975934,-2,0,0,-1,1,-5,0,-3
1532121975939,-2,0,-2,-3,-1,-2,3,-1
1532121975944,-1,3,0,-1,-1,0,-1,0
1532121975949,-1,-2,-2,0,-2,-3,-2,1
1532121975954,2,-12,-1,1,-2,-7,-1,-1
1532121975959,-2,0,0,-1,-1,-2,3,-1
1532121975964,-1,3,0,0,0,-1,0,-2
1532121975969,-1,4,-1,-2,0,3,1,1
1532121975974,-2,-1,-1,1,-2,3,-2,0
1532121975979,0,-5,0,-1,0,2,-1,0
1532121975984,0,-5,-2,-1,-1,-1,1,-1
1532121975989,0,-2,-1,0,1,0,1,-1
1532121975994,-1,2,0,0,0,6,-1,-1
1532121975999,-2,-2,-2,1,0,4,-3,-1
1532121976004,-2,-1,0,0,-3,-6,2,1
1532121976009,-2,-1,-1,-2,-1,1,-1,-3
1532121976014,-2,2,1,-3,-3,-2,0,-1
1532121976019,0,3,0,1,-1,3,0,0
1532121976024,-1,1,0,-1,-1,6,-2,-1
1532121976029,-2,-2,-1,1,-2,0,-3,-2
1532121976034,0,3,-2,-1,-2,2,-1,1
1532121976039,0,1,-1,0,-3,-1,-3,-1
1532121976044,-1,0,1,-1,-2,-4,-1,0
1532121976049,0,-1,-1,-2,-3,-6,0,0
1532121976054,-2,1,-4,0,3,-5,-4,-6
1532121976059,-2,0,-3,0,1,-12,1,1
1532121976064,-3,-1,-2,-2,0,-9,0,-2
1532121976069,-3,-1,-2,0,-1,-9,-4,-7
1532121976074,1,-3,3,0,-1,1,-1,5
1532121976079,-1,-5,-4,1,-2,3,6,-1
1532121976084,-1,0,-3,3,0,5,-5,-3
1532121976089,0,-5,-3,2,-1,3,2,-1
1532121976094,-1,-2,-1,3,0,-2,2,-2
1532121976099,0,-3,1,-1,-1,-2,0,-1
1532121976104,0,-1,0,0,0,-4,1,0
1532121976109,-2,-1,1,0,-3,-1,0,-2
1532121976114,-1,-1,1,0,0,-2,-2,-2
1532121976119,-2,0,-1,-3,-2,-4,-8,0
1532121976124,-2,1,-1,-4,-1,-4,1,0
1532121976129,-4,0,0,-4,0,1,0,-2
1532121976134,-3,1,-3,-3,-2,-27,3,0
1532121976139,-1,-1,-3,-2,0,-44,-3,0
1532121976144,-1,-1,0,-2,-2,-26,-3,-2
1532121976149,-2,0,0,-3,-4,-7,0,-3
1532121976154,1,-2,-1,-2,-2,21,1,5
1532121976159,-2,1,-2,-1,-1,24,-4,-9
1532121976164,0,-1,-1,-1,-3,15,0,0
1532121976169,0,-1,2,-1,-1,5,-2,-3
1532121976174,0,0,0,-2,-3,-1,-1,-1
1532121976179,-1,-1,1,0,-3,-21,1,0
1532121976184,0,0,-1,1,-2,-34,1,-3
1532121976189,0,2,-2,1,0,25,-3,2
1532121976194,1,0,-2,9,1,68,-4,-1
1532121976199,2,2,-2,3,0,69,-2,-1
1532121976204,-2,0,-1,1,0,60,0,-2
1532121976209,1,-2,-2,-1,-1,15,0,0
1532121976214,-1,-1,0,-2,-1,-43,-1,-2
1532121976219,0,2,-1,0,-1,-66,1,-1
1532121976224,0,-1,1,-4,-1,-24,-1,1
1532121976229,-1,1,-2,-2,-1,19,-3,-1
1532121976234,-3,2,-1,-5,0,22,0,-2
1532121976239,0,2,-3,-3,0,34,0,-1
1532121976244,-2,4,-1,-2,-1,-16,-1,-3
1532121976249,0,1,-1,-6,-1,-15,1,-2
1532121976254,0,2,0,-4,-2,-25,1,-1
1532121976259,0,1,-1,-3,-1,43,0,1
1532121976264,0,0,-3,0,-1,20,-1,-1
1532121976269,0,-2,-3,0,-2,-17,-2,-1
1532121976274,1,-1,0,-1,-2,-42,-2,1
1532121976279,0,-1,3,1,-1,11,0,2
1532121976284,1,0,-1,0,1,19,0,-1
1532121976289,0,0,1,3,1,19,0,0
1532121976294,1,1,0,3,1,-3,-1,-1
1532121976299,0,3,0,2,2,6,-2,0
1532121976304,3,2,0,1,3,17,-2,0
1532121976309,-1,-1,2,1,1,-30,-1,0
1532121976314,-2,-2,2,-2,-2,-5,-2,0
1532121976319,-2,-3,1,-1,-3,-6,-1,-3
1532121976324,0,-2,0,0,-2,1,-1,-1
1532121976329,-1,-1,1,-1,-1,-5,-2,-1
1532121976334,0,0,2,-1,1,12,0,0
1532121976339,0,-1,-2,-1,-1,-4,0,-1
1532121976344,0,-2,0,1,-1,-18,0,-1
1532121976349,1,1,-2,-1,0,-10,-1,-2
1532121976354,0,-1,-4,-1,-3,-14,0,-1
1532121976359,0,-2,0,-1,-1,-12,-2,0
1532121976364,0,-3,-2,-1,-1,-3,-1,0
1532121976369,-1,-1,-2,-1,0,-4,-1,-1
1532121976374,0,-1,-2,-2,-1,10,0,-1
1532121976379,1,-1,-1,0,-1,-14,0,-2
1532121976384,-2,0,1,-1,-2,13,-1,-1
1532121976389,-2,-1,-1,2,-1,20,1,-1
1532121976394,-1,0,-2,0,-1,7,-1,-4
1532121976399,-1,-2,-2,-2,-2,-2,2,-1
1532121976404,-3,0,-1,0,-1,4,0,-1
1532121976409,-1,1,-1,-1,-1,-5,-4,0
1532121976414,0,1,-1,-1,1,1,-2,-2
1532121976419,0,1,0,0,-1,0,0,0
1532121976424,0,-1,-1,-4,-1,-5,0,-1
1532121976429,-1,-1,0,-2,-1,-3,0,-1
1532121976434,-2,1,-1,1,0,4,-1,0
1532121976439,-1,-1,0,-3,0,3,1,-1
1532121976444,-1,1,1,1,-1,-5,0,0
1532121976449,-1,-1,0,-2,1,11,0,-3
1532121976454,1,-3,0,0,-1,-8,0,-1
1532121976459,0,-2,-2,4,0,-54,0,1
1532121976464,-1,0,-2,-3,-1,-43,-2,1
1532121976469,0,-1,0,6,0,-30,0,-1
1532121976474,-1,3,0,-4,-2,8,-1,-1
1532121976479,-2,0,-2,-1,-1,18,-3,-1
1532121976484,0,1,-1,1,-1,14,0,-1
1532121976489,-1,-1,-2,-2,-4,16,0,-1
1532121976494,-1,-2,-2,-2,0,10,-2,-1
1532121976499,-2,0,0,0,1,4,-2,0
1532121976504,-1,1,0,-1,-1,7,0,-1
1532121976509,1,-1,0,-3,-1,6,0,-1
1532121976514,-1,0,-2,0,-2,-1,0,-2
1532121976519,0,-1,-2,-2,-2,1,-3,1
1532121976524,-1,-2,-2,-2,0,6,0,-1
1532121976529,-1,1,0,-4,-1,1,-1,-1
1532121976534,-1,-4,-1,-2,0,5,0,-1
1532121976539,-1,1,1,-2,0,15,-1,-1
1532121976544,0,0,1,4,-2,20,-2,-2
1532121976549,-1,1,-1,-6,1,29,-3,0
1532121976554,-2,2,3,6,0,17,0,0
1532121976559,0,0,-2,-2,-3,4,1,-1
1532121976564,-1,-4,-9,-6,-4,-10,-1,-3
1532121976569,-1,0,-3,-5,0,-4,-1,-1
1532121976574,0,2,1,2,-2,-13,-2,1
1532121976579,2,4,3,1,-1,12,-1,0
1532121976584,-1,-1,-3,-5,-2,-3,-2,-1
1532121976589,-1,1,-3,1,0,-1,-1,-3
1532121976594,-1,-2,-1,-2,-2,13,1,-1
1532121976599,1,-2,1,10,1,10,1,-2
1532121976604,-1,0,0,-3,0,-39,0,1
1532121976609,-1,2,1,-5,-2,15,-1,0
1532121976614,1,1,-1,-3,-1,4,-1,-1
1532121976619,0,1,-1,-1,-1,-4,-1,-3
1532121976624,-1,-2,-4,-6,-1,16,-1,-1
1532121976629,-1,0,-1,3,-2,-15,0,-1
1532121976634,-2,1,-1,-2,-1,-3,1,-1
1532121976639,-1,0,-2,-3,0,-12,-1,0
1532121976644,2,4,1,2,0,-95,1,-1
1532121976649,0,1,0,1,-1,-55,-1,-1
1532121976654,1,0,-2,-1,-1,14,-2,-2
1532121976659,-2,1,-3,-4,-1,53,-3,-1
1532121976664,-1,3,2,4,0,114,-3,1
1532121976669,-1,2,1,2,-1,15,-1,0
1532121976674,2,1,1,-4,0,1,-1,-1
1532121976679,0,-2,-3,-4,0,7,0,0
1532121976684,1,-1,-1,2,-2,27,1,-1
1532121976689,-1,-4,-1,0,-2,4,-2,-2
1532121976694,-3,-2,-1,0,-1,-12,-1,-1
1532121976699,-3,-3,-1,-4,-1,-23,1,0
1532121976704,-4,-2,1,3,0,70,-2,-1
1532121976709,-1,0,-2,-4,-1,-33,-1,-1
1532121976714,-3,-1,-1,-1,-1,-15,-2,-1
1532121976719,0,-3,0,-1,-1,1,-1,-1
1532121976724,-1,0,-2,1,1,-9,2,-2
1532121976729,-3,0,-1,0,-2,16,-1,-2
1532121976734,-1,2,0,1,-2,-17,-2,1
1532121976739,0,-2,-1,2,1,-10,-2,1
1532121976744,-3,0,0,-3,-1,-9,1,0
1532121976749,0,-1,-2,-1,-1,-3,-1,-1
1532121976754,-1,-1,0,-1,-2,-13,0,-1
1532121976759,1,0,0,-1,-1,8,-1,0
1532121976764,-2,-4,1,0,-1,14,-2,0
1532121976769,-3,-3,-2,-1,-2,0,-2,0
1532121976774,-2,0,-1,-1,0,-7,0,0
1532121976779,-1,-3,0,-1,-1,12,0,-2
1532121976784,1,-1,0,-1,-1,-1,-1,1
1532121976789,1,0,1,-1,-3,-3,0,-2
1532121976794,1,-1,-3,-1,-3,-12,-1,-2
1532121976799,-1,1,-1,0,-2,-4,0,-2
1532121976804,0,-1,-2,1,0,3,-1,-1
1532121976809,-2,-2,0,-1,-2,-4,0,0
1532121976814,-1,0,1,0,-1,-7,-2,0
1532121976819,0,2,0,0,1,7,-1,-1
1532121976824,0,2,-3,-1,0,7,-1,-2
1532121976829,0,1,0,-3,1,-3,1,1
1532121976834,1,2,0,-1,0,-28,-1,0
1532121976839,-1,1,-1,0,0,11,-1,0
1532121976844,0,-1,-2,-1,-1,26,0,0
1532121976849,-1,-1,-2,1,1,31,-3,0
1532121976854,-2,-1,1,-1,-1,13,-1,-2
1532121976859,1,0,0,-1,-2,-31,0,0
1532121976864,-2,-1,0,-1,-2,-4,0,-1
1532121976869,0,-1,-1,0,-1,-5,1,-3
1532121976874,0,-2,-1,-2,1,8,0,-1
1532121976879,0,-4,-2,-1,-1,16,1,-1
1532121976884,-1,-3,0,0,-2,-2,-2,-3
1532121976889,-1,-1,-1,-1,-3,-10,-4,0
1532121976894,-2,1,-2,-2,-2,1,-2,0
1532121976899,1,3,0,-2,1,7,0,-1
1532121976904,0,5,-1,-1,-1,-10,-2,0
1532121976909,-1,2,-3,0,-1,-7,-1,-1
1532121976914,0,0,0,0,-1,3,-2,0
1532121976919,-2,0,-1,-2,-3,-2,-2,-2
1532121976924,-2,0,-1,-2,0,-6,-2,0
1532121976929,-1,0,0,0,-1,-2,1,1
1532121976934,-1,0,-1,0,-1,-1,1,-2
1532121976939,-2,0,-2,-1,-1,0,0,-1
1532121976944,-1,-1,0,-1,-1,0,-1,-1
1532121976949,0,1,-1,0,-1,-1,-2,-2
1532121976954,-1,-2,-1,0,-1,-2,-1,1
1532121976959,-1,1,-2,-1,0,4,-1,-1
1532121976964,0,-2,0,-1,-2,3,0,-2
1532121976969,-2,0,1,0,1,-3,0,-1
1532121976974,-2,-1,0,0,-1,0,0,-2
1532121976979,-1,2,-1,0,-2,0,-1,1
1532121976984,-1,2,-2,0,0,-4,0,0
1532121976989,1,1,-2,-2,0,-4,-1,-1
1532121976994,0,1,-1,-1,0,-2,-3,0
1532121976999,-1,0,-1,0,-1,0,-1,-1
1532121977004,-1,-1,-1,0,-2,-2,-1,1
1532121977009,-2,-2,-2,0,-2,0,-3,-1
1532121977014,0,0,-2,-1,-1,3,1,-2
1532121977019,-2,0,0,-2,0,2,-1,-1
1532121977024,1,1,-1,-1,-1,1,-2,-1
1532121977029,-2,0,-1,-1,0,2,0,-1
1532121977034,-2,-1,0,-2,0,0,-1,-2
1532121977039,-2,-1,0,0,-1,-2,-1,-2
1532121977044,0,1,1,1,-2,2,1,1
1532121977049,-1,0,1,-1,0,1,0,-1
1532121977054,-2,0,0,0,-1,-1,-1,0
1532121977059,0,1,-1,0,-1,5,-3,0
1532121977064,-4,-1,1,-3,-1,0,-4,-2
1532121977069,0,2,-1,-1,-1,-2,-1,-1
1532121977074,2,1,-2,0,-1,-1,2,0
1532121977079,0,0,1,-1,-1,1,1,0
1532121977084,-1,0,-1,0,0,-1,1,-1
1532121977089,0,-2,-3,1,-1,0,-2,0
1532121977094,-3,2,-1,0,-1,3,-2,-1
1532121977099,1,-2,-2,-1,-1,-1,-2,-2
1532121977104,0,-2,-1,0,0,2,-1,-1
1532121977109,-1,0,0,0,-1,5,0,1
1532121977114,0,2,-1,0,0,-1,-1,0
1532121977119,-1,1,0,1,0,0,-1,0
1532121977124,0,2,0,-2,0,-1,0,-1
1532121977129,-1,2,-2,-1,-2,-3,0,-2
1532121977134,1,-3,-2,-2,0,-1,-1,0
1532121977139,0,-2,0,1,-1,1,-1,0
1532121977144,0,-1,-2,-2,0,-2,0,-2
1532121977149,1,1,-1,0,-1,3,2,0
1532121977154,0,0,0,1,-1,0,0,0
1532121977159,-2,3,0,-1,-3,-9,0,0
1532121977164,-1,-1,0,-3,0,-4,-2,0
1532121977169,-1,-1,-2,-5,-3,-2,-2,0
1532121977174,-2,1,0,3,0,-2,-2,-1
1532121977179,-2,-4,-3,-2,-2,21,0,-4
1532121977184,-1,1,-2,-2,0,7,-2,0
1532121977189,-2,2,2,2,0,-3,-1,-1
1532121977194,0,0,2,2,0,-4,-1,0
1532121977199,-2,0,1,2,-1,-8,-1,-2
1532121977204,-1,1,-2,-5,-2,-7,0,-1
1532121977209,1,-2,-3,-6,-1,-5,-2,-1
1532121977214,-2,-1,-4,-4,-1,-3,-1,-1
1532121977219,-2,0,-1,1,0,-6,-3,0
1532121977224,0,0,0,5,2,1,-1,-2
1532121977229,-2,0,1,3,-3,-1,0,0
1532121977234,-1,0,0,-2,-3,2,0,-1
1532121977239,-1,-1,-5,-5,-1,3,1,0
1532121977244,0,-1,1,1,-1,1,-2,-1
1532121977249,2,-2,3,11,3,-1,0,0
1532121977254,-2,1,-1,-13,-2,1,0,-1
1532121977259,-1,2,-2,-2,-1,0,-1,-2
1532121977264,-1,-2,-4,-3,-3,0,1,-2
1532121977269,0,-1,-3,-2,-1,3,-1,-1
1532121977274,-1,-1,-1,5,0,16,-1,0
1532121977279,1,0,1,2,0,10,-1,1
1532121977284,-1,0,1,3,0,7,-2,-1
1532121977289,-1,-1,1,-5,0,2,0,-1
1532121977294,0,-2,-2,0,0,-4,0,-1
1532121977299,-2,0,-1,-4,0,-11,0,-1
1532121977304,1,0,-2,2,-1,-15,0,-2
1532121977309,-1,0,-1,-2,0,-11,0,-2
1532121977314,1,1,-2,-1,-2,-2,1,-1
1532121977319,1,-1,-2,0,-1,6,0,-1
1532121977324,0,-2,-2,-1,-1,8,1,-2
1532121977329,0,0,-1,-4,-1,5,0,1
1532121977334,-2,-1,-3,-1,0,-14,-1,-2
1532121977339,0,-1,0,0,-2,-14,-3,-2
1532121977344,-2,1,-1,-2,-2,-7,-2,1
1532121977349,1,0,-1,0,-2,-25,0,-2
1532121977354,-2,1,0,1,-2,-1,-3,-2
1532121977359,-1,-1,-2,-1,-1,-12,-1,-1
1532121977364,-2,1,-1,-2,-1,-36,-3,-1
1532121977369,-1,-3,-2,-2,-1,-2,-2,-1
1532121977374,-1,-1,0,1,-2,3,2,1
1532121977379,-1,-1,0,-1,0,27,2,-1
1532121977384,-1,0,-1,-1,-2,40,0,1
1532121977389,-1,1,-1,0,-2,35,-2,1
1532121977394,0,2,-1,-2,-1,28,0,0
1532121977399,0,1,1,-3,0,32,-2,0
1532121977404,0,2,0,-1,-2,13,0,0
1532121977409,-2,-1,-2,-1,-2,-3,-1,-1
1532121977414,0,-1,0,-2,0,-6,-3,0
1532121977419,-1,0,0,0,-1,-12,-2,-2
1532121977424,-1,0,0,1,-1,-8,1,-1
1532121977429,0,3,-2,1,1,-9,-1,0
1532121977434,-3,-1,-1,0,-2,-8,1,-1
1532121977439,-1,0,-1,0,-1,2,-1,0
1532121977444,-2,0,-2,0,0,-43,-2,-1
1532121977449,-2,-1,-2,-2,-2,-22,2,-1
1532121977454,-1,-1,0,-2,0,-10,0,-1
1532121977459,1,1,-2,-1,1,-26,2,-1
1532121977464,0,-1,0,-2,0,12,0,-2
1532121977469,0,-1,0,-3,-3,8,0,-1
1532121977474,-2,-1,-1,-1,-3,13,-1,-1
1532121977479,-2,1,-2,-1,-3,5,2,-1
1532121977484,-1,2,0,-1,-3,9,0,0
1532121977489,0,0,-1,-1,-1,4,0,-1
1532121977494,-1,3,0,1,-1,-2,-1,-1
1532121977499,0,-1,-1,-1,-2,-5,-2,1
1532121977504,-1,-3,0,0,0,-3,1,0
1532121977509,-2,1,0,-2,-2,13,-2,-2
1532121977514,0,0,0,0,0,-1,0,-1
1532121977519,1,3,1,0,0,-3,0,0
1532121977524,0,1,-1,0,0,8,-3,-1
1532121977529,-2,0,0,0,-1,-3,-3,-1
1532121977534,0,-3,-1,-1,1,-4,-1,0
1532121977539,0,1,1,0,0,0,0,-1
1532121977544,1,3,-1,0,1,-50,-1,-1
1532121977549,0,-1,1,0,0,-93,-1,0
1532121977554,1,0,0,-1,0,-47,-3,-1
1532121977559,-1,-2,0,-1,0,10,5,0
1532121977564,-1,-2,0,-1,3,44,1,0
1532121977569,-1,-2,-2,0,2,39,-4,1
1532121977574,-2,0,-5,-1,1,-101,-3,-1
1532121977579,-1,2,-2,-1,-3,-42,-4,-1
1532121977584,-2,2,-2,-1,-1,25,1,0
1532121977589,0,-1,-1,0,-1,55,3,-1
1532121977594,-1,0,0,-2,-3,79,0,-1
1532121977599,-1,-1,-2,-1,-1,40,1,-1
1532121977604,-1,0,-3,-2,-1,4,0,-1
1532121977609,1,1,0,-2,-1,21,2,-3
1532121977614,0,-2,-1,-5,-3,28,1,-1
1532121977619,0,-3,0,-2,-1,-6,0,-1
1532121977624,-1,-1,0,-3,-1,0,-3,-1
1532121977629,-1,-2,-2,-1,-2,-6,-2,0
1532121977634,-1,-1,-1,0,-1,0,2,-1
1532121977639,-2,-2,-1,0,-4,-11,-4,-1
1532121977644,-2,-1,-1,1,-2,-5,-2,-4
1532121977649,-1,1,-2,0,-1,-11,-3,-2
1532121977654,1,0,0,0,1,1,-4,-1
1532121977659,-2,-1,-1,-1,0,3,-6,0
1532121977664,-2,-1,0,-2,0,2,-2,0
1532121977669,-2,-1,0,-2,0,-6,0,-1
1532121977674,-1,-1,0,-1,-1,6,-2,-3
1532121977679,1,0,1,-2,-1,1,-1,-1
1532121977684,-2,0,-1,-1,0,25,-1,-1
1532121977689,-2,0,-1,2,1,19,0,-1
1532121977694,-1,3,-1,-1,-1,17,1,0
1532121977699,-1,1,0,-2,-1,-2,-2,-1
1532121977704,0,2,0,-1,-3,-20,-1,-1
1532121977709,-1,2,0,-1,0,3,-1,-1
1532121977714,-1,0,-2,-1,-1,-2,2,0
1532121977719,-1,-1,-4,0,1,-1,2,-1
1532121977724,1,0,-3,-1,0,-1,1,0
1532121977729,0,1,-1,-1,-1,-10,2,1
1532121977734,-2,3,0,0,0,17,1,-1
1532121977739,-1,2,1,-1,-2,24,0,-2
1532121977744,-1,-1,0,-2,-2,30,0,-1
1532121977749,2,3,0,0,-1,14,-4,-1
1532121977754,1,1,-1,-2,0,-11,-3,0
1532121977759,0,2,-2,-1,-2,-17,-2,-1
1532121977764,0,0,-1,0,1,-9,-1,0
1532121977769,-1,-15,-2,-2,2,-22,1,0
1532121977774,1,-17,-2,2,2,-6,1,0
1532121977779,1,-25,0,0,1,-27,-2,-1
1532121977784,1,-26,-1,1,-2,-36,0,-1
1532121977789,4,-46,-1,0,5,7,-1,-2
1532121977794,3,-39,-1,-1,-2,-16,-1,-1
1532121977799,2,72,1,0,1,-6,0,-1
1532121977804,0,88,0,-1,-3,-18,-2,-1
1532121977809,-1,90,0,0,-2,-42,-2,-1
1532121977814,-3,67,0,1,-1,-19,0,-1
1532121977819,-5,22,0,0,-2,19,-1,-1
1532121977824,-5,11,0,0,-2,30,1,2
1532121977829,-7,-4,-3,-1,-3,33,-1,-1
1532121977834,0,-21,-2,0,-1,-20,0,-1
1532121977839,-2,-22,1,-2,-1,-20,0,-1
1532121977844,-1,-12,-4,0,-3,-10,-2,0
1532121977849,2,-17,-3,-2,1,-9,0,0
1532121977854,1,-4,-3,-1,-1,-15,0,0
1532121977859,2,19,1,-1,-3,-4,-1,1
1532121977864,3,20,2,2,0,2,0,2
1532121977869,-1,3,1,1,0,3,0,-1
1532121977874,1,3,0,-1,-2,-3,-2,0
1532121977879,-1,13,0,-1,-3,6,-1,-1
1532121977884,0,9,0,0,-3,5,-1,-2
1532121977889,-1,4,-1,-6,-4,-4,-1,-3
1532121977894,0,4,0,3,-1,-3,0,-3
1532121977899,0,3,-2,-5,-1,0,-1,-1
1532121977904,-2,2,-1,-1,0,4,-1,-1
1532121977909,-1,-2,1,2,-2,1,-1,-1
1532121977914,-2,-4,-2,-3,-1,-14,-2,0
1532121977919,-1,-1,-3,-1,-1,-30,-1,1
1532121977924,0,2,-1,0,0,-4,-3,-1
1532121977929,0,-2,0,1,-1,6,-1,-1
1532121977934,-1,-11,0,-1,-1,22,0,-1
1532121977939,-2,-6,0,0,-1,18,1,-1
1532121977944,0,4,-1,-1,-2,-7,0,-2
1532121977949,3,1,-1,2,-1,-1,0,-1
1532121977954,-1,-4,1,1,0,2,-1,-1
1532121977959,-1,1,-2,1,-2,9,-2,0
1532121977964,-1,0,0,-2,0,0,0,-1
1532121977969,0,-3,-2,0,-2,0,-1,-1
1532121977974,-1,-3,-3,-2,0,24,-2,1
1532121977979,-2,1,-2,1,1,9,-1,-1
1532121977984,0,3,-1,0,0,-2,0,-1
1532121977989,0,3,2,-1,-1,-10,1,-2
1532121977994,-2,6,-1,0,-2,-22,0,-1
1532121977999,0,3,0,0,-1,-33,1,-1
1532121978004,-2,1,0,0,-1,-21,-3,-2
1532121978009,-3,-3,-1,-1,-2,-82,-1,0
1532121978014,1,-3,0,0,0,-54,0,-1
1532121978019,0,-6,1,-1,0,-17,0,-2
1532121978024,-1,-5,-2,-2,-1,22,-1,1
1532121978029,0,-5,-1,-1,-1,34,-2,-2
1532121978034,0,-1,0,-3,-2,25,-1,1
1532121978039,-1,-1,-1,-1,0,16,-2,0
1532121978044,0,-2,1,0,0,4,-1,-2
1532121978049,-1,-1,0,0,-1,-48,1,-2
1532121978054,-1,-2,-1,0,-1,-4,0,0
1532121978059,0,-1,0,1,0,12,-2,-1
1532121978064,-1,2,-1,-1,-2,35,-1,1
1532121978069,-2,2,-2,-1,-1,64,-2,0
1532121978074,-1,1,-1,0,-2,49,-1,-1
1532121978079,-1,-1,-1,0,-1,46,-1,-1
1532121978084,-1,2,-1,-1,-1,23,-1,0
1532121978089,0,1,-1,-1,-1,6,1,1
1532121978094,0,-1,1,-2,0,-16,-1,0
1532121978099,-2,2,-1,-1,-1,-5,-1,1
1532121978104,-1,1,1,-2,-2,-24,-2,-1
1532121978109,1,1,0,-1,1,2,-1,1
1532121978114,-1,0,-2,-2,0,-1,-2,0
1532121978119,1,0,-1,-1,0,-19,-1,0
1532121978124,1,0,-2,-1,-1,-27,1,-1
1532121978129,-2,-1,0,-1,-1,17,-1,-2
1532121978134,-2,-3,0,2,0,17,-1,-2
1532121978139,-2,-1,-1,-2,-1,1,0,-1
1532121978144,0,-2,-1,0,-1,8,-1,-2
1532121978149,0,-1,-1,-2,-1,18,0,0
1532121978154,-1,1,-1,-2,0,-4,1,-2
1532121978159,-1,0,-2,0,-2,0,-1,-1
1532121978164,-2,1,-1,0,-1,-4,0,-2
1532121978169,-3,2,-1,-1,-1,22,-1,-2
1532121978174,-1,1,-1,0,-1,-1,-1,-2
1532121978179,-1,0,-1,-1,-1,5,0,-3
1532121978184,-1,-2,0,1,-1,-11,-2,-2
1532121978189,1,-1,-1,1,-1,-23,-1,-1
1532121978194,0,0,-2,0,0,-17,1,0
1532121978199,0,2,-1,-1,0,-5,-1,0
1532121978204,-1,1,-1,-1,0,-19,1,0
1532121978209,0,0,-1,-1,-2,-10,2,-1
1532121978214,-1,-1,-1,-3,0,7,0,0
1532121978219,0,1,-1,0,-1,13,-1,0
1532121978224,0,3,-1,-2,-1,-1,-1,0
1532121978229,-1,-2,-1,-1,0,-7,-2,-1
1532121978234,0,0,-1,0,0,-9,-2,0
1532121978239,-2,-2,0,-2,0,-11,-1,-1
1532121978244,0,-2,-2,-1,-2,0,0,0
1532121978249,-1,0,-2,0,1,-1,0,0
1532121978254,1,0,-1,1,-3,-8,-2,-1
1532121978259,0,-2,-1,-2,0,-6,-2,1
1532121978264,0,0,0,0,0,-3,-2,-1
1532121978269,0,1,1,-1,0,-5,0,1
1532121978274,-1,0,-1,-3,-1,-8,-1,-1
1532121978279,0,0,-2,-2,-3,-16,-1,-1
1532121978284,-2,-2,-1,0,0,-7,-1,-1
1532121978289,-2,0,-1,0,-2,-10,-1,-2
1532121978294,1,0,0,0,0,11,0,1
1532121978299,0,-1,0,-1,0,10,0,0
1532121978304,0,1,1,-3,1,22,-1,0
1532121978309,-2,-3,1,1,0,13,-1,-2
1532121978314,-1,1,0,-1,-2,8,-1,-3
1532121978319,-2,-1,-1,0,-2,1,0,-1
1532121978324,-1,-2,0,-1,-2,1,-1,-2
1532121978329,1,3,0,-3,-3,5,-1,0
1532121978334,0,0,0,-2,-1,-6,-1,-1
1532121978339,-1,-1,1,0,-1,-7,0,0
1532121978344,-2,2,-1,0,-2,-5,-1,-1
1532121978349,-1,0,-1,-2,-1,-4,0,-1
1532121978354,-3,-2,-3,0,-2,-8,-1,-1
1532121978359,1,3,-1,0,-2,-70,-1,-1
1532121978364,-1,-1,-1,-2,0,-34,1,0
1532121978369,0,-1,0,0,0,-11,-3,-1
1532121978374,-2,-1,1,-2,0,5,-1,-1
1532121978379,0,-1,0,0,-2,31,-1,0
1532121978384,-2,-1,-1,0,0,16,-1,-1
1532121978389,-1,0,-1,-1,-1,9,-2,-1
1532121978394,0,2,0,0,0,17,-2,-1
1532121978399,-1,-1,-1,-2,-1,15,-1,-1
1532121978404,0,1,0,1,-1,6,-1,-1
1532121978409,-1,-2,-2,1,-1,7,1,-1
1532121978414,-2,0,-2,-1,-1,-5,-1,-2
1532121978419,-2,0,-1,-1,-1,-2,0,0
1532121978424,0,1,0,-2,-1,-3,0,-1
1532121978429,0,-1,0,-2,-2,0,0,0
1532121978434,-2,0,-1,-1,-2,-4,0,-2
1532121978439,0,2,0,-2,0,5,0,-1
1532121978444,0,0,-2,0,0,8,-2,0
1532121978449,-2,0,-1,0,-1,0,-1,0
1532121978454,-1,0,0,0,-1,-4,0,-2
1532121978459,-3,1,-1,0,-2,3,-1,-2
1532121978464,-1,0,-1,-2,-1,2,0,-1
1532121978469,-1,1,0,0,-2,1,-2,-2
1532121978474,0,1,-1,0,1,-2,0,1
1532121978479,0,2,-1,-1,-2,4,-2,-2
1532121978484,-1,0,-1,-2,-3,1,-2,-2
1532121978489,0,0,0,0,-1,-3,2,-2
1532121978494,0,0,0,0,0,1,0,0
1532121978499,1,0,0,0,-1,-1,-1,-1
1532121978504,-1,0,0,0,0,-4,-1,-1
1532121978509,-1,0,-3,-1,0,1,-1,-1
1532121978514,0,-2,-2,0,-1,-1,0,-1
1532121978519,-1,0,1,-1,0,8,0,0
1532121978524,-1,-1,-1,0,-1,10,-1,0
1532121978529,0,2,0,0,-2,0,-3,0
1532121978534,2,0,1,0,-3,-4,-1,0
1532121978539,-1,-1,-2,-2,-3,-5,-1,-2
1532121978544,-2,0,-1,-2,-2,-7,-2,-1
1532121978549,1,0,-1,-2,-2,-5,0,-2
1532121978554,-3,-1,-1,-3,-1,1,-1,-2
1532121978559,0,-1,-1,-2,-2,0,0,-2
1532121978564,0,0,-1,0,-2,9,-2,-3
1532121978569,1,-1,0,-1,-1,19,-1,-1
1532121978574,0,2,0,-1,0,7,0,0
1532121978579,0,-1,-1,-1,0,8,0,1
1532121978584,1,0,-1,0,0,-11,1,0
1532121978589,1,-1,0,0,-1,-13,-2,0
1532121978594,-1,-3,0,0,-3,-11,-2,0
1532121978599,-1,-1,-1,-1,1,-12,0,-3
1532121978604,-1,0,-1,1,-1,-6,2,-1
1532121978609,-2,-1,-2,0,1,-5,-1,1
1532121978614,0,1,-3,2,1,-1,0,-1
1532121978619,-1,-1,0,0,-2,-2,0,0
1532121978624,-1,-1,-1,-1,-1,2,-1,-1
1532121978629,-2,1,0,-1,-2,-1,-1,-2
1532121978634,-2,1,-1,-1,-1,-4,-2,1
1532121978639,1,0,-2,-1,0,0,-2,-2
1532121978644,1,-1,-1,1,0,2,-2,0
1532121978649,1,-1,-2,-3,-1,2,0,1
1532121978654,1,0,0,-1,-1,3,-2,-2
1532121978659,-1,0,0,0,0,4,0,-1
1532121978664,-1,0,-1,-2,-1,3,-3,-1
1532121978669,-1,-4,-1,-1,-1,-6,1,-1
1532121978674,-1,1,-3,-3,-2,-5,-1,-1
1532121978679,0,0,-1,-1,0,-5,-1,0
1532121978684,-1,1,-1,0,-2,-5,0,-1
1532121978689,-1,0,0,-1,-2,-2,-2,-1
1532121978694,-2,-2,0,1,-2,-2,1,0
1532121978699,-2,-1,0,0,-2,-2,0,0
1532121978704,-1,-1,-1,-1,-1,0,0,1
1532121978709,0,1,-1,-2,0,-4,1,0
1532121978714,-1,-1,-2,-1,0,-3,1,0
1532121978719,-1,1,0,-2,-2,-2,0,-1
1532121978724,0,-2,0,0,-2,-1,0,-3
1532121978729,-2,0,-2,1,0,3,-1,-2
1532121978734,1,-1,1,-1,-1,-4,0,-2
1532121978739,-1,0,-2,0,0,-9,-1,0
1532121978744,0,0,0,-2,-2,14,-2,1
1532121978749,0,0,0,1,-1,15,-1,-1
1532121978754,-2,-2,1,-1,0,12,0,-2
1532121978759,-1,1,-1,-1,-1,-4,-1,0
1532121978764,0,0,0,-1,1,-10,-1,1
1532121978769,-1,1,-1,-1,-1,-8,-2,-1
1532121978774,0,1,0,0,-2,-73,-1,1
1532121978779,0,1,0,0,0,-10,0,-1
1532121978784,-2,2,-2,-1,-2,-8,0,0
1532121978789,0,1,0,0,-1,-8,1,-2
1532121978794,-1,-1,-1,1,-2,11,-1,0
1532121978799,-1,-1,-1,-1,-1,17,1,-1
1532121978804,-1,-1,-2,-1,0,16,-3,-1
1532121978809,-1,0,-2,0,-1,16,1,-1
1532121978814,-1,0,-2,0,-1,20,-1,-1
1532121978819,0,-1,0,0,0,7,-1,-1
1532121978824,0,1,-1,-1,-1,7,-1,-2
1532121978829,-1,1,0,0,0,0,0,0
1532121978834,-1,0,-2,0,-1,7,-2,-2
1532121978839,-2,-1,-2,0,-1,10,-2,-1
1532121978844,-1,0,0,0,1,-1,1,-1
1532121978849,-2,0,1,-1,-1,-10,0,-1
1532121978854,-2,0,-2,0,-1,1,-1,-2
1532121978859,-2,0,-1,0,-1,-4,-2,0
1532121978864,0,0,0,-1,-1,-7,-1,-2
1532121978869,0,-2,-2,-2,-2,-3,1,2
1532121978874,2,1,-1,-1,0,6,0,1
1532121978879,-1,1,-1,-2,-1,-4,-2,1
1532121978884,-2,0,0,0,-1,-3,0,0
1532121978889,1,0,-1,0,-1,0,-2,-2
1532121978894,-1,1,1,0,-1,4,-1,-2
1532121978899,1,0,-2,0,-2,-2,0,0
1532121978904,-2,2,0,0,-1,0,0,-1
1532121978909,0,2,0,-1,0,-2,-1,-1
1532121978914,-1,0,0,-3,-1,1,0,-1
1532121978919,0,2,-2,0,-2,-1,0,-2
1532121978924,-1,0,0,-1,-1,0,-1,-1
1532121978929,0,0,-1,-1,-1,-1,-2,-1
1532121978934,0,0,-2,-1,1,-1,0,0
1532121978939,0,-3,0,-1,-1,-2,-2,-1
1532121978944,0,-3,-4,-1,0,-6,0,-2
1532121978949,0,-2,-1,1,-2,-1,-1,-1
1532121978954,-2,-1,0,-1,0,-5,-2,0
1532121978959,0,1,0,-1,-2,-4,1,1
1532121978964,-1,-1,0,0,-1,-2,-1,0
1532121978969,0,-2,-1,0,0,0,0,-1
1532121978974,-1,-2,1,1,1,3,0,-1
1532121978979,-2,-2,0,0,0,3,-1,-2
1532121978984,0,-3,0,-2,-1,2,0,1
1532121978989,-1,-3,-2,0,2,0,0,1
1532121978994,1,-2,-2,0,-2,0,0,-2
1532121978999,0,-1,-1,-1,-2,0,-2,-2
1532121979004,-1,1,0,0,0,1,0,-1
1532121979009,-3,3,-1,-1,-1,-2,0,-2
1532121979014,-2,3,-2,-1,0,0,0,-1
1532121979019,0,0,-1,0,1,0,-1,0
1532121979024,-1,0,-2,-1,-3,0,0,-1
1532121979029,-1,-1,1,-2,-2,0,-1,0
1532121979034,-1,-1,1,-1,-1,-1,0,0
1532121979039,-4,-1,-1,-2,-1,-1,0,-1
1532121979044,-1,0,0,-1,-1,-2,-2,-1
1532121979049,-2,0,0,-1,1,0,1,-1
1532121979054,0,0,-2,-1,-2,-2,-1,-1
1532121979059,1,2,0,-1,0,-1,-1,-3
1532121979064,-1,-1,-1,2,-1,-2,-1,-1
1532121979069,-3,-1,-1,0,-1,-2,-1,-1
1532121979074,-1,-1,-1,-2,-1,0,0,-1
1532121979079,-1,0,-2,0,-1,1,-1,0
1532121979084,-1,-1,-1,-1,-1,0,0,0
1532121979089,-1,0,-1,-1,-2,-2,0,0
1532121979094,-1,-2,0,0,-1,-1,-2,0
1532121979099,-2,-1,-2,-1,-1,-2,-2,0
1532121979104,-1,-1,-1,-3,-1,2,-2,-1
1532121979109,-1,-1,-1,0,-1,2,-1,0
1532121979114,-1,0,0,-1,0,1,-2,0
1532121979119,-1,1,-1,-1,1,0,0,-1
1532121979124,-2,-2,0,0,0,-2,-1,-2
1532121979129,0,0,0,-1,-1,0,-2,-1
1532121979134,-2,1,0,0,-2,0,0,-3
1532121979139,-1,-1,0,0,0,-1,0,-2
1532121979144,1,-1,-2,0,-1,-1,0,-1
1532121979149,0,1,1,-1,-1,1,1,-1
1532121979154,-2,2,-1,-2,-1,0,-1,-1
1532121979159,-2,-1,0,0,-2,0,-1,-2
1532121979164,0,0,0,-1,0,-2,-1,-1
1532121979169,0,-1,-1,0,-1,-5,-2,-3
1532121979174,1,-2,-1,-1,0,1,-1,0
1532121979179,-1,-2,0,-1,0,0,0,0
1532121979184,-1,1,-1,0,-1,0,0,-2
1532121979189,-2,-2,-1,-1,-2,-2,-1,0
1532121979194,0,2,1,-1,-1,-2,-1,-1
1532121979199,-1,-1,-1,0,-1,-1,0,0
1532121979204,-1,-1,-1,0,-1,1,-1,-1
1532121979209,0,1,0,-2,-1,2,0,0
1532121979214,1,-3,0,0,-3,-3,0,-1
1532121979219,0,1,0,-2,-1,-6,2,-3
1532121979224,-2,1,0,0,-1,6,-1,0
1532121979229,1,1,-1,-2,1,30,-1,0
1532121979234,0,1,-1,0,1,24,-2,-1
1532121979239,0,2,0,-1,-1,5,-1,0
1532121979244,-2,1,0,0,0,-9,1,0
1532121979249,0,1,-2,-3,1,-25,0,0
1532121979254,-1,-1,-2,-2,-1,0,-1,-1
1532121979259,0,2,-1,-2,0,-5,0,0
1532121979264,-1,1,-1,-1,-1,3,-1,-2
1532121979269,-2,-1,-3,5,1,8,0,0
1532121979274,-2,2,-1,-4,2,14,0,0
1532121979279,-1,-1,-1,-2,-2,7,-3,-1
1532121979284,0,0,0,-1,-2,11,0,3
1532121979289,0,0,-2,5,2,-23,-2,1
1532121979294,1,0,-1,-5,-2,-38,-2,0
1532121979299,0,4,6,3,-2,-18,1,-2
1532121979304,-3,-3,-12,-14,-5,-14,1,-2
1532121979309,-1,0,-2,7,5,12,-1,-1
1532121979314,1,1,2,7,0,6,2,-2
1532121979319,1,-1,-8,-21,-9,5,-1,-2
1532121979324,-1,-2,4,8,6,0,-1,0
1532121979329,0,-3,-6,-20,-17,10,-1,-1
1532121979334,0,3,4,12,6,7,0,0
1532121979339,1,3,5,38,14,-5,0,1
1532121979344,1,7,-1,-34,-24,-28,0,0
1532121979349,0,9,-11,-14,1,-13,-1,0
1532121979354,-1,12,-2,-5,-7,1,-2,-2
1532121979359,-1,4,-1,-13,-5,25,0,-2
1532121979364,-1,-9,5,23,27,32,0,0
1532121979369,-1,-11,-3,-1,5,21,1,-4
1532121979374,1,-9,-2,6,4,8,3,1
1532121979379,1,-1,-7,-18,-31,11,-9,-2
1532121979384,2,8,5,26,10,15,-4,-1
1532121979389,0,11,-2,-28,-25,-1,-2,-2
1532121979394,-2,5,3,14,0,-5,-3,0
1532121979399,-1,10,-2,22,33,-13,10,2
1532121979404,1,3,-8,-31,-29,-11,-9,-3
1532121979409,-7,3,6,19,5,-11,2,4
1532121979414,-5,-8,-4,-6,1,-9,-8,-8
1532121979419,24,3,3,7,12,4,1,4
1532121979424,4,-6,3,11,16,5,-11,-3
1532121979429,-4,-14,1,3,3,12,-5,0
1532121979434,0,-7,-5,-22,-38,12,11,1
1532121979439,-15,-18,-3,-1,5,7,-11,-4
1532121979444,4,7,-5,-9,-6,6,7,0
1532121979449,8,-1,8,22,16,2,-10,-2
1532121979454,-7,-12,-1,-20,-16,-16,1,-2
1532121979459,-10,-31,-5,1,-4,-26,5,-2
1532121979464,-3,-20,-11,-7,-3,-29,5,-2
1532121979469,-5,-2,-6,-14,-17,-28,6,-1
1532121979474,0,10,-2,2,10,-13,0,1
1532121979479,1,10,3,10,7,-2,3,1
1532121979484,-4,5,-1,-25,-20,-5,3,-1
1532121979489,-2,-34,2,-1,13,0,3,-3
1532121979494,3,34,0,3,3,5,7,0
1532121979499,1,64,4,10,3,-4,0,0
1532121979504,-6,32,-8,-18,-14,-7,11,0
1532121979509,2,42,2,16,5,-1,9,2
1532121979514,2,-18,-6,22,25,-8,-1,2
1532121979519,-5,-19,-3,-42,-43,-4,-5,0
1532121979524,-5,-6,-3,7,-6,3,-4,-1
1532121979529,3,-10,1,9,6,-2,-4,0
1532121979534,-1,-5,2,2,5,-17,-8,-3
1532121979539,-6,-20,1,13,8,-16,0,-3
1532121979544,1,-14,0,2,1,-13,-1,0
1532121979549,-4,-4,0,-6,-10,-12,-7,-2
1532121979554,-1,2,4,8,3,33,-1,1
1532121979559,1,7,-1,-16,-3,17,-1,0
1532121979564,0,9,6,13,12,35,-2,-1
1532121979569,0,13,1,-2,1,13,-2,-2
1532121979574,0,3,3,-6,-5,-16,-2,0
1532121979579,1,2,-1,-7,-6,13,-4,-2
1532121979584,-5,1,5,38,36,15,-1,-1
1532121979589,-4,6,-2,-37,-32,-31,0,-1
1532121979594,-2,-1,3,-13,-22,3,-2,-2
1532121979599,1,2,-4,-18,-17,-22,1,2
1532121979604,0,-5,6,33,13,-50,-1,-2
1532121979609,1,8,5,-14,-7,67,2,0
1532121979614,0,-2,0,-1,4,35,-3,-2
1532121979619,-1,-10,2,16,15,20,-1,-1
1532121979624,-1,2,-5,-13,-10,15,-3,-1
1532121979629,-2,-6,-2,-3,-2,-37,-1,-4
1532121979634,-3,-1,-5,-2,2,1,-3,-1
1532121979639,-1,10,3,7,6,21,-3,-3
1532121979644,0,-2,2,4,4,-3,-1,0
1532121979649,1,1,-3,6,0,-6,0,1
1532121979654,-1,4,-2,2,5,6,-1,0
1532121979659,0,-6,-5,-4,0,2,3,-1
1532121979664,-1,-3,2,5,-4,3,1,-1
1532121979669,-2,-7,-5,17,10,15,0,-2
1532121979674,0,-9,-7,-16,-13,7,5,0
1532121979679,-2,-10,-2,2,-2,-10,-9,-1
1532121979684,1,-3,1,-9,-6,11,4,3
1532121979689,-1,-8,3,18,8,-4,-14,-1
1532121979694,-4,-4,0,-3,7,-17,-2,-5
1532121979699,1,-13,-2,-5,-1,-13,1,0
1532121979704,-1,-5,-5,-10,-4,-12,-5,0
1532121979709,-2,-8,-3,1,1,-9,2,1
1532121979714,-9,-17,0,4,-1,-17,-3,0
1532121979719,8,1,0,-5,-2,-9,2,3
1532121979724,-2,-5,1,-2,-3,-3,-6,-4
1532121979729,-10,-3,-3,0,0,-3,-1,-4
1532121979734,10,11,0,3,0,-2,0,-1
1532121979739,17,-2,-1,1,2,4,1,0
1532121979744,3,-4,-2,-4,-5,4,0,1
1532121979749,-2,-3,-2,-2,-2,-4,-2,0
1532121979754,-5,-3,-1,1,-1,-4,4,-1
1532121979759,-7,4,-2,1,2,-3,2,-5
1532121979764,2,3,-2,-5,0,4,2,1
1532121979769,-14,5,1,-3,0,1,0,-5
1532121979774,21,-5,-1,2,5,1,2,3
1532121979779,3,-12,2,1,4,4,-5,0
1532121979784,-4,1,-2,-12,-15,0,-2,-1
1532121979789,-2,2,-2,2,-2,3,4,1
1532121979794,-5,9,-1,3,-6,-2,1,-3
1532121979799,-5,16,-1,1,-3,-3,1,-3
1532121979804,1,2,1,5,1,0,-1,-1
1532121979809,1,5,0,-7,4,-1,4,2
1532121979814,-2,0,3,2,0,-4,-3,0
1532121979819,-3,1,-4,-10,-2,-2,-3,-3
1532121979824,-5,1,-6,-10,-1,-3,1,-2
1532121979829,8,4,-3,-2,-1,-3,1,-1
1532121979834,-1,7,-2,2,1,-2,-3,-1
1532121979839,-4,1,1,4,0,0,-1,-1
1532121979844,1,4,0,2,-1,1,0,-1
1532121979849,8,2,0,0,2,1,-2,1
1532121979854,1,0,0,0,7,-2,-1,0
1532121979859,-8,3,-2,-1,-6,3,1,1
1532121979864,2,-7,-2,-1,12,3,1,-1
1532121979869,5,1,0,3,2,6,-2,0
1532121979874,-2,3,2,10,5,-10,0,0
1532121979879,-3,1,-4,-23,-22,0,3,-2
1532121979884,-1,2,2,-1,-2,5,-7,-4
1532121979889,2,3,1,0,3,0,-1,-1
1532121979894,-5,7,0,13,11,4,-2,-2
1532121979899,-1,-3,-3,-15,-8,-1,2,1
1532121979904,-1,1,4,1,-5,-4,0,-1
1532121979909,-1,3,-2,-3,-13,-15,1,-1
1532121979914,1,2,-1,-5,5,-2,-1,0
1532121979919,-3,2,1,23,12,0,-2,-1
1532121979924,-3,4,-3,-15,-8,13,-3,-1
1532121979929,0,1,0,-5,-1,9,-1,-1
1532121979934,-2,-2,-7,-6,-11,-35,-2,0
1532121979939,-3,-1,0,7,9,-25,-2,-2
1532121979944,0,0,2,3,9,21,1,-1
1532121979949,0,13,-1,14,-13,31,2,1
1532121979954,-3,3,3,-1,-13,-20,-2,-2
1532121979959,-3,2,-5,-30,-18,-68,-2,-3
1532121979964,3,-4,0,4,0,-109,1,-2
1532121979969,1,-7,2,2,21,-74,0,-1
1532121979974,-1,-6,4,11,-9,-43,2,-2
1532121979979,-3,4,-5,16,31,24,-4,-3
1532121979984,2,8,-1,-21,-38,43,-1,9
1532121979989,7,-3,-2,-9,-5,86,1,7
1532121979994,-10,-10,-5,-16,-5,103,-4,-9
1532121979999,-5,-10,0,21,13,65,-14,-13
1532121980004,-13,-7,-1,0,6,110,13,4
1532121980009,13,5,-1,3,3,3,-3,1
1532121980014,-4,-10,1,0,5,33,0,3
1532121980019,1,-10,5,5,12,59,-2,6
1532121980024,9,-45,-1,5,-10,-27,-8,9
1532121980029,-19,-31,3,1,-8,-6,-1,2
1532121980034,2,-12,1,-13,-22,-8,1,0
1532121980039,1,3,5,4,-12,-2,-1,-3
1532121980044,8,29,4,9,5,8,1,-6
1532121980049,2,10,0,-3,-8,22,2,-4
1532121980054,1,5,1,10,15,46,-3,-3
1532121980059,-4,13,-1,-11,11,33,5,1
1532121980064,1,9,-1,10,11,-13,1,-2
1532121980069,-5,-2,-4,7,12,-45,-2,-4
1532121980074,5,8,-3,1,6,1,0,0
1532121980079,2,1,-10,-26,-28,-42,4,2
1532121980084,-3,1,-1,6,15,-40,-4,-4
1532121980089,3,6,-6,-10,2,-62,-1,-5
1532121980094,-6,-3,-10,-6,-14,-51,-1,0
1532121980099,3,1,-6,8,10,23,3,4
1532121980104,-3,0,-3,-4,-6,22,-5,-2
1532121980109,-3,-1,-4,0,5,19,-5,-3
1532121980114,0,5,-14,0,7,-9,-5,-1
1532121980119,-4,2,-10,3,-3,23,-2,-5
1532121980124,-1,2,0,6,12,71,-4,-3
1532121980129,-6,36,5,-4,-12,85,-1,1
1532121980134,-2,1,5,-6,1,125,6,-1
1532121980139,4,11,14,7,-2,119,9,-1
1532121980144,0,4,5,-3,-4,127,3,-2
1532121980149,0,22,6,0,3,67,4,-2
1532121980154,0,13,6,0,3,-35,3,2
1532121980159,-3,30,3,-4,-9,-102,0,2
1532121980164,0,43,1,-1,-2,-128,-2,0
1532121980169,0,9,2,-1,-2,-111,-4,2
1532121980174,1,-7,5,-5,1,-100,-7,0
1532121980179,-2,-37,-2,0,-1,-107,-2,0
1532121980184,8,-32,-1,-2,2,-90,-1,-1
1532121980189,-4,-20,3,0,4,-59,4,-1
1532121980194,16,15,1,0,1,-51,-1,0
1532121980199,-19,-28,-2,0,-3,-50,-3,-5
1532121980204,-1,-3,-5,4,3,-44,1,0
1532121980209,-2,-38,-6,0,-3,-30,-1,-1
1532121980214,-2,-62,-1,-10,-7,-36,0,-1
1532121980219,5,-7,2,-2,-9,-24,-2,0
1532121980224,-9,6,-2,-5,-5,-16,1,0
1532121980229,-1,24,-2,6,2,-12,0,-1
1532121980234,-8,-10,-1,-1,4,-8,-2,-2
1532121980239,0,-66,-13,-5,-10,-8,-4,-2
1532121980244,-3,-45,-8,2,-6,-9,-1,-3
1532121980249,15,-37,-5,1,-2,-7,-1,-1
1532121980254,4,-44,-4,-4,-11,2,-3,-2
1532121980259,10,-30,6,5,6,1,1,1
1532121980264,12,-107,-2,-3,-6,-5,1,-2
1532121980269,29,-13,17,-14,-12,1,1,1
1532121980274,18,16,5,-5,-4,4,-5,-11
1532121980279,21,65,13,3,6,-5,0,5
1532121980284,-5,74,-9,4,3,-1,-3,0
1532121980289,-9,27,-4,0,10,1,-2,1
1532121980294,-9,37,-5,3,-9,0,-1,3
1532121980299,-26,54,4,-1,-2,-3,-1,-1
1532121980304,-11,124,4,-3,-4,-1,-1,-1
1532121980309,-27,87,-22,-5,-3,0,-6,-2
1532121980314,-11,86,-5,-3,-1,0,-5,2
1532121980319,-9,56,-3,3,-6,3,4,1
1532121980324,5,40,4,-9,4,0,-2,0
1532121980329,5,-4,-3,-1,-3,-1,-2,-6
1532121980334,2,1,4,8,16,3,4,1
1532121980339,16,1,-12,-10,-4,0,0,2
1532121980344,3,-11,-4,-3,-13,-2,-4,-3
1532121980349,24,-8,-8,3,-6,-4,0,-1
1532121980354,4,6,-10,-5,-11,0,-1,-2
1532121980359,2,4,6,3,9,3,7,-1
1532121980364,-13,2,5,5,2,-3,0,-5
1532121980369,-22,-50,-4,0,0,1,-3,-3
1532121980374,-19,-15,5,3,-5,2,2,5
1532121980379,-10,-13,6,1,8,-9,3,3
1532121980384,-12,-9,5,8,11,2,0,-3
1532121980389,-6,2,3,-22,-18,3,2,-4
1532121980394,-25,-9,-2,-14,6,3,-6,-13
1532121980399,-18,-1,1,2,6,0,-3,-3
1532121980404,3,-28,-1,6,12,3,-3,2
1532121980409,7,-4,1,7,6,2,2,5
1532121980414,4,-26,3,2,-1,-4,-2,1
1532121980419,16,3,-4,-2,-4,-1,-13,-5
1532121980424,-11,-21,-6,-2,-1,-3,-1,0
1532121980429,-4,-59,-6,0,3,1,0,3
1532121980434,2,-24,1,-3,-7,-2,-7,2
1532121980439,-8,-6,3,6,-3,-1,-5,0
1532121980444,-8,19,3,-4,-3,-1,-7,0
1532121980449,-13,41,8,3,12,-2,1,-4
1532121980454,-10,39,-1,-1,-9,-7,19,-2
1532121980459,-5,-10,-4,5,-2,1,16,-3
1532121980464,5,8,-1,-2,-8,-2,14,-1
1532121980469,-1,22,0,-3,-6,-1,3,-1
1532121980474,24,5,1,5,12,-1,10,4
1532121980479,-3,-18,-4,-2,0,4,-5,1
1532121980484,16,9,2,-6,-5,1,-17,2
1532121980489,-22,-81,-8,3,-12,5,-34,-10
1532121980494,-1,-22,-2,3,7,3,-2,-8
1532121980499,7,-15,-1,-8,-7,0,11,-3
1532121980504,0,-28,2,3,2,-2,16,9
1532121980509,0,26,-3,-1,0,0,3,5
1532121980514,0,26,2,2,1,1,-5,6
1532121980519,-2,-3,-7,-8,-9,-1,-12,-2
1532121980524,-7,1,-4,-8,-7,4,-10,-11
1532121980529,1,16,5,3,17,2,2,-5
1532121980534,-6,6,-3,2,-12,1,-4,0
1532121980539,6,11,4,-2,-7,-2,5,2
1532121980544,0,-6,-2,-1,-4,0,2,2
1532121980549,2,-2,-3,-3,-6,-2,6,-1
1532121980554,7,0,-2,-2,11,-2,-4,-1
1532121980559,-9,10,4,2,2,1,-6,0
1532121980564,8,-20,-4,-1,-12,4,-1,-2
1532121980569,-9,-8,1,9,9,-3,0,2
1532121980574,2,-5,0,-12,-7,3,-2,4
1532121980579,6,18,-6,-3,-3,-5,1,0
1532121980584,-6,12,3,-2,6,-3,-8,-11
1532121980589,3,5,-2,3,3,2,1,1
1532121980594,1,-36,-1,3,-10,-4,-2,5
1532121980599,-5,-20,-6,-3,-4,1,-13,6
1532121980604,5,-1,-6,1,8,-3,-7,-1
1532121980609,8,15,3,-2,-6,-2,-5,3
1532121980614,-8,7,-4,-5,-7,2,14,-7
1532121980619,9,6,1,-3,-8,3,15,-4
1532121980624,-1,-1,-5,-3,1,-5,20,-2
1532121980629,4,1,7,0,-5,3,17,-2
1532121980634,4,0,-8,-2,-1,-1,1,-4
1532121980639,2,28,14,2,7,1,-1,-9
1532121980644,-10,-44,-26,-6,-5,-1,-4,1
1532121980649,-3,-17,-6,-3,-4,0,3,1
1532121980654,-5,3,0,6,15,0,-2,4
1532121980659,3,11,-2,-2,1,3,-7,-3
1532121980664,1,11,10,6,3,-1,-5,4
1532121980669,-1,20,3,1,2,1,-4,-3
1532121980674,-1,18,-1,4,0,0,-7,0
1532121980679,-5,-11,-6,-11,-4,2,-6,-1
1532121980684,0,11,7,0,-3,2,-4,-1
1532121980689,-1,-26,-5,-2,-2,2,2,2
1532121980694,-2,2,2,2,4,0,-2,-10
1532121980699,-2,-14,0,3,-3,-4,-1,4
1532121980704,1,-3,0,-5,-3,-6,-5,-9
1532121980709,8,4,-1,-3,-3,-4,-5,-1
1532121980714,2,-9,-1,-1,-3,0,8,4
1532121980719,9,-15,-6,-1,-3,6,-2,-2
1532121980724,8,1,3,1,7,-3,6,5
1532121980729,2,4,3,8,-3,0,-1,-1
1532121980734,-5,4,-2,-17,-3,2,-1,3
1532121980739,-6,-5,-4,0,-5,1,2,7
1532121980744,5,-9,6,3,-1,1,-8,-7
1532121980749,-20,-56,1,1,5,-1,17,-2
1532121980754,-9,-48,-4,1,0,1,-3,1
1532121980759,-2,-19,0,-1,1,-1,-1,2
1532121980764,3,-5,0,0,1,3,-1,-2
1532121980769,-5,10,-1,-5,0,0,-3,-2
1532121980774,1,19,2,3,-4,-1,-6,-2
1532121980779,-7,20,-2,7,8,-4,-1,-4
1532121980784,-2,13,-1,-5,-10,-1,1,3
1532121980789,5,32,-2,-5,-5,-2,-3,-4
1532121980794,1,40,1,0,0,-1,1,5
1532121980799,0,15,0,-1,-1,-3,-3,-6
1532121980804,-4,18,-8,1,1,1,4,2
1532121980809,2,16,3,2,4,-1,-2,-3
1532121980814,1,-25,-2,-2,-1,0,-5,-3
1532121980819,1,-21,-2,2,2,-4,0,0
1532121980824,-3,-8,-2,-2,-4,-1,2,-1
1532121980829,1,19,-1,-3,-2,-2,-2,1
1532121980834,3,22,0,1,1,0,-8,1
1532121980839,0,6,1,-2,0,-4,-1,0
1532121980844,-4,-2,2,1,-1,-1,5,2
1532121980849,2,-24,-1,-3,-5,-2,-5,3
1532121980854,0,-54,0,4,-1,-3,3,-3
1532121980859,3,-46,-4,-3,-3,-2,-5,-2
1532121980864,0,-5,-1,1,3,0,-6,-2
1532121980869,3,-8,1,5,-4,0,-1,-8
1532121980874,1,25,-1,-4,-6,-3,4,0
1532121980879,3,19,-1,-1,11,2,3,1
1532121980884,2,12,0,-13,-22,2,1,3
1532121980889,0,5,-1,-1,0,0,0,-1
1532121980894,1,27,-1,-1,-3,-2,-2,-3
1532121980899,-2,12,5,8,2,-4,2,0
1532121980904,-1,1,0,1,6,-3,-6,1
1532121980909,2,21,1,-1,2,-1,-4,2
1532121980914,-1,1,0,0,-2,1,-2,2
1532121980919,-4,-32,-3,-4,-4,1,1,-1
1532121980924,-6,-56,-3,-1,8,1,8,-4
1532121980929,-4,5,0,1,7,2,-13,-3
1532121980934,-3,29,-5,-1,8,5,11,3
1532121980939,0,70,3,-2,-4,-1,2,0
1532121980944,-3,-19,1,2,-3,2,9,2
1532121980949,1,-28,-8,-3,-2,-1,6,0
1532121980954,-4,-81,-1,-1,-2,-2,-2,-4
1532121980959,0,-1,-5,-2,-8,1,-6,-2
1532121980964,2,56,2,-6,-8,-3,-8,-3
1532121980969,2,47,1,0,-3,1,-15,2
1532121980974,-4,-2,-2,1,-4,-5,-11,-4
1532121980979,-2,-35,-1,-2,2,1,1,-3
1532121980984,-2,2,-2,2,-1,-3,1,2
1532121980989,0,42,0,-2,1,2,7,-3
1532121980994,4,37,1,0,0,1,3,-1
1532121980999,-1,-4,-4,-1,-1,0,-4,-3
1532121981004,1,33,1,3,6,4,4,0
1532121981009,0,8,0,-2,-4,-3,5,3
1532121981014,0,15,3,3,3,0,-2,-2
1532121981019,0,-10,-2,3,3,0,0,-1
1532121981024,-1,-9,1,-5,-4,0,-2,-1
1532121981029,-2,-49,-3,-2,-1,-4,4,1
1532121981034,-1,-4,-1,-2,-7,-2,-1,-3
1532121981039,-3,16,-3,1,-3,2,2,-1
1532121981044,-4,6,-2,2,1,-1,1,0
1532121981049,4,-15,0,1,0,-2,0,-3
1532121981054,15,-17,0,4,0,5,-1,-2
1532121981059,13,15,6,-4,-4,1,-1,1
1532121981064,10,-32,-6,-7,-8,-2,-2,-3
1532121981069,-6,-17,0,4,13,-1,1,1
1532121981074,-3,-7,-2,-5,-6,-4,-2,0
1532121981079,-1,1,1,0,8,-1,2,0
1532121981084,-1,-9,-4,-3,1,1,-1,-2
1532121981089,1,3,-1,-2,-4,1,1,-3
1532121981094,-8,3,-1,4,2,-1,0,-1
1532121981099,-4,-11,5,4,2,2,-2,-3
1532121981104,-4,-3,4,-1,-1,-1,-3,0
1532121981109,-7,-20,-3,-5,-6,-3,3,0
1532121981114,-13,-8,-5,-6,-2,0,-3,-1
1532121981119,-8,-12,-12,-6,-3,-5,-6,-1
1532121981124,0,16,2,5,5,0,1,1
1532121981129,-2,-7,4,-1,-4,-1,2,-3
1532121981134,-5,1,-6,1,2,2,4,0
1532121981139,26,10,12,-4,-1,-2,0,-2
1532121981144,1,-35,-29,-2,-1,2,-1,-1
1532121981149,-1,7,3,-3,-3,-2,-2,1
1532121981154,-11,1,-1,-2,0,0,-3,-1
1532121981159,-10,-9,-7,-2,-1,-3,-4,-2
1532121981164,4,33,16,5,5,-6,1,2
1532121981169,-7,-14,-9,-6,-1,-3,2,-4
1532121981174,-6,-2,-5,-1,0,-8,1,-3
1532121981179,-9,24,4,0,-1,-1,4,2
1532121981184,0,12,5,1,1,-6,-6,-1
1532121981189,-1,-6,-3,1,-2,-2,-9,0
1532121981194,-2,-6,-5,3,2,-1,-2,-2
1532121981199,4,5,6,-3,-6,-1,3,1
1532121981204,-3,-43,-12,-7,-4,-2,3,-5
1532121981209,7,3,0,3,-4,0,11,2
1532121981214,8,20,8,1,-1,-9,10,1
1532121981219,-7,-21,-10,0,-5,-1,-7,0
1532121981224,-8,8,-2,-3,-6,-1,16,-2
1532121981229,-5,-5,4,-4,1,0,-4,-4
1532121981234,-2,-10,3,9,12,-2,-5,1
1532121981239,-12,-15,-4,0,2,1,-10,-2
1532121981244,-5,-4,6,2,1,-2,-12,0
1532121981249,-2,4,1,-1,-2,-1,-3,1
1532121981254,-3,-27,-6,-4,-3,0,-2,-1
1532121981259,-7,-15,-4,-4,-1,0,-3,-1
1532121981264,-6,-4,-2,2,0,3,-9,-2
1532121981269,0,-1,-6,-4,-2,3,-3,0
1532121981274,-1,7,6,-3,1,4,-9,-2
1532121981279,0,6,-3,4,2,-2,-2,2
1532121981284,-2,4,0,-4,-2,1,3,-2
1532121981289,1,3,0,2,0,0,-7,-1
1532121981294,4,0,-3,-6,-3,0,-7,-2
1532121981299,-3,-7,-4,-3,8,-3,2,-4
1532121981304,1,9,2,1,-5,-2,1,2
1532121981309,2,4,-1,3,-12,-2,-4,-2
1532121981314,5,8,2,-3,-3,2,2,2
1532121981319,1,8,4,1,-8,3,8,1
1532121981324,1,9,-1,0,8,2,-6,-3
1532121981329,1,14,0,-4,-1,-1,7,-2
1532121981334,3,3,-1,-2,-3,6,6,-2
1532121981339,1,-2,-1,1,1,-1,9,1
1532121981344,1,-7,1,-1,1,-3,3,0
1532121981349,-1,-7,-2,-1,-2,1,-1,0
1532121981354,1,-3,0,-1,0,-1,-1,0
1532121981359,0,-9,-2,-5,-4,4,1,1
1532121981364,0,-5,1,0,-3,-2,-1,-1
1532121981369,1,-5,1,0,8,-5,-6,0
1532121981374,0,-5,-3,-2,-4,-1,-5,-1
1532121981379,0,0,0,-1,1,0,0,-2
1532121981384,-1,3,0,-2,-11,-1,2,2
1532121981389,-1,0,-1,1,3,3,7,-1
1532121981394,3,1,1,0,5,-1,1,-1
1532121981399,-1,0,-2,-2,-9,-3,-2,0
1532121981404,0,1,2,0,1,0,4,4
1532121981409,-3,-2,-3,1,0,1,-32,-5
1532121981414,0,0,-1,-8,-7,4,22,-3
1532121981419,5,-20,1,0,7,1,15,2
1532121981424,-1,-32,-2,1,2,0,-2,-4
1532121981429,-1,-20,1,1,2,-9,4,-1
1532121981434,-4,-27,-2,-1,-9,1,-24,-1
1532121981439,-2,-68,-3,1,-1,0,-24,-2
1532121981444,1,-54,1,-2,1,0,-6,2
1532121981449,1,-27,-1,-7,-6,4,0,2
1532121981454,0,29,0,1,0,-2,-11,0
1532121981459,-1,66,-1,1,0,-5,3,-1
1532121981464,3,74,0,2,2,1,-6,3
1532121981469,3,62,-3,-3,-5,-1,4,5
1532121981474,-3,41,2,-1,-2,-6,-4,-12
1532121981479,-8,6,-4,3,3,2,4,-2
1532121981484,-5,-33,-8,3,3,0,6,-9
1532121981489,4,-3,1,4,1,-2,17,4
1532121981494,8,6,5,0,6,4,1,9
1532121981499,-1,-12,1,-1,-2,0,2,-5
1532121981504,-4,20,-1,-2,1,0,3,0
1532121981509,-2,7,-3,0,2,1,8,-3
1532121981514,-2,7,-4,3,-7,-3,2,-2
1532121981519,2,27,2,1,3,-3,-2,0
1532121981524,-2,11,-2,-7,-9,4,-4,-1
1532121981529,-3,-12,-3,-6,5,-2,-3,0
1532121981534,0,-8,-1,1,-4,-1,0,2
1532121981539,0,1,0,0,-2,-5,1,2
1532121981544,-1,4,3,0,0,-3,6,0
1532121981549,-1,-2,-2,-4,-3,-1,-6,-3
1532121981554,-1,-10,-4,-6,-1,-6,0,-2
1532121981559,1,-16,0,-1,-2,-2,0,-1
1532121981564,0,3,2,1,-2,-7,-8,-2
1532121981569,-2,7,3,3,2,-3,-1,-4
1532121981574,-1,-7,-4,-2,1,-6,3,3
1532121981579,-1,9,-2,0,-1,-4,0,1
1532121981584,2,12,3,0,-1,-6,-4,-3
1532121981589,-1,-9,-7,-1,-3,-6,-2,0
1532121981594,0,-5,-1,-1,-3,-4,-1,-1
1532121981599,1,8,0,-7,-1,-2,-3,-2
1532121981604,0,-1,-2,0,1,-5,0,1
1532121981609,1,-1,1,-1,-2,0,5,3
1532121981614,0,-4,2,1,0,1,-3,-5
1532121981619,-2,-10,-2,3,-2,2,0,-2
1532121981624,1,-7,-6,-3,-1,1,6,4
1532121981629,1,-7,1,-2,-2,0,-2,0
1532121981634,-5,-10,-2,-1,-3,1,-6,-6
1532121981639,1,0,1,3,-5,6,-3,-5
1532121981644,0,1,-1,6,7,3,9,-8
1532121981649,0,2,-1,-6,0,-1,2,9
1532121981654,2,-4,2,3,0,3,4,4
1532121981659,-1,2,-3,-2,-7,3,-6,0
1532121981664,4,26,9,6,9,-2,0,-2
1532121981669,-7,-19,-10,0,-3,3,-2,-6
1532121981674,-2,-25,-4,-2,2,-1,0,4
1532121981679,-1,-1,-1,-2,-3,-3,0,3
1532121981684,-2,-14,-5,-6,-8,3,-5,4
1532121981689,2,11,6,-4,1,7,1,-5
1532121981694,1,5,0,-4,2,0,3,-1
1532121981699,-1,-1,-3,0,0,-1,4,-3
1532121981704,-4,1,-4,-1,-1,4,0,-1
1532121981709,-2,3,0,3,0,-1,2,-5
1532121981714,0,1,2,3,0,-1,4,-1
1532121981719,1,3,2,-5,0,1,-1,2
1532121981724,-3,-3,1,-1,-4,1,-6,-1
1532121981729,0,0,0,6,-3,-3,-3,1
1532121981734,-2,0,-1,-1,0,-1,-3,-2
1532121981739,-4,0,-3,-2,-1,0,-3,-4
1532121981744,0,-5,2,-2,-1,-3,-5,5
1532121981749,-3,-2,-2,-4,-2,2,-6,0
1532121981754,1,5,-1,-1,3,-1,-3,1
1532121981759,0,0,-1,-2,-1,-2,-3,-13
1532121981764,-5,-6,0,-8,1,1,-3,6
1532121981769,0,-2,1,-1,-1,0,-4,-4
1532121981774,-1,-4,-3,6,0,-1,2,-5
1532121981779,3,4,3,-6,0,-3,3,-1
1532121981784,1,5,4,13,3,-1,4,-4
1532121981789,0,-4,-2,-8,-5,0,3,4
1532121981794,-1,-3,-4,-13,-4,0,2,-3
1532121981799,-3,-3,-1,1,-1,-1,3,-5
1532121981804,-5,0,-1,2,2,3,5,2
1532121981809,9,4,1,0,1,2,1,15
1532121981814,0,-5,0,5,0,-1,0,-4
1532121981819,0,-1,-1,-4,0,4,2,-5
1532121981824,-1,-1,0,-3,-3,-1,5,9
1532121981829,1,1,-3,-2,-3,-1,-5,-4
1532121981834,-5,0,0,2,-6,-2,-7,-19
1532121981839,-1,1,-6,-7,-1,-1,-1,5
1532121981844,0,3,0,-1,1,-7,4,-1
1532121981849,-5,0,0,0,3,-3,1,1
1532121981854,1,1,3,4,3,-9,-1,-3
1532121981859,-1,-4,1,-1,-1,1,-4,-6
1532121981864,5,1,-5,-8,-5,-3,-1,3
1532121981869,-3,-5,-3,1,0,-7,-4,-10
1532121981874,-1,-2,-1,-2,1,-3,-3,5
1532121981879,-3,-3,-2,4,1,-2,-2,-3
1532121981884,-4,-2,1,-3,-3,-3,-9,-4
1532121981889,-2,3,7,6,0,-7,-2,4
1532121981894,-3,0,-4,-2,0,-4,-4,1
1532121981899,0,-1,-3,-4,-1,-6,1,0
1532121981904,2,-1,-3,-1,-2,0,-1,-1
1532121981909,0,-1,0,-5,-3,-4,3,-2
1532121981914,-1,-4,0,-1,0,0,2,1
1532121981919,-1,-3,0,-1,-2,0,3,12
1532121981924,1,-3,2,2,2,-5,2,11
1532121981929,-1,0,2,6,2,2,5,6
1532121981934,-1,-2,-3,-8,-2,2,4,-1
1532121981939,0,1,6,1,0,-2,2,-9
1532121981944,-1,-5,-6,0,0,1,5,-12
1532121981949,1,2,-2,1,1,1,0,-7
1532121981954,1,2,0,1,1,1,1,-5
1532121981959,-1,3,1,6,1,-1,-1,-5
1532121981964,1,-1,-4,-7,-2,1,-6,0
1532121981969,0,0,-2,-4,-1,0,-7,-1
1532121981974,-6,-9,-11,0,-4,5,-16,1
1532121981979,3,11,3,-12,0,-9,-6,2
1532121981984,0,6,2,-5,-2,1,-3,1
1532121981989,5,9,7,1,2,0,2,0
1532121981994,0,1,1,-2,-1,-1,0,8
1532121981999,-3,-6,-6,-1,-1,3,0,10
1532121982004,-7,-3,-2,10,2,3,-3,-20
1532121982009,6,-2,-3,-3,-2,-1,9,43
1532121982014,2,4,6,1,1,-2,6,2
1532121982019,1,-5,4,14,4,1,3,-9
1532121982024,-3,-6,-7,-6,-2,-1,1,-7
1532121982029,-8,-6,-9,5,-3,-1,-6,-44
1532121982034,1,-1,-4,-8,-2,4,2,17
1532121982039,-1,3,1,3,-4,4,-9,3
1532121982044,-3,3,1,-2,-1,1,3,0
1532121982049,-4,-3,-6,-5,-4,2,4,-23
1532121982054,3,6,6,-5,2,-3,5,24
1532121982059,-2,6,5,-2,-3,-2,6,-11
1532121982064,0,5,2,6,2,-1,-18,10
1532121982069,-5,-1,-2,2,-3,7,-42,-8
1532121982074,-2,-1,-1,-2,-2,-5,-6,-10
1532121982079,-3,-2,3,-5,-2,-2,-12,-2
1532121982084,2,5,7,6,0,2,16,5
1532121982089,-4,4,-3,-10,0,-22,18,5
1532121982094,-1,6,-1,2,-1,-108,-19,-11
1532121982099,-1,8,-6,1,4,-128,-26,3
1532121982104,-2,7,-7,-4,2,-92,10,-3
1532121982109,0,19,1,1,0,23,-4,3
1532121982114,3,16,11,4,1,89,35,-4
1532121982119,-2,-8,-3,-3,-2,115,17,-6
1532121982124,-1,-11,-4,-6,-4,115,25,2
1532121982129,1,-14,1,1,1,84,18,7
1532121982134,2,-10,-4,-2,-6,85,4,-7
1532121982139,0,-4,-3,2,-1,72,-17,-2
1532121982144,-3,-7,3,-4,0,61,-43,0
1532121982149,-1,-13,-1,-1,-1,36,-29,2
1532121982154,-5,-28,-9,-2,-2,32,-34,-10
1532121982159,3,-2,2,-3,0,32,-18,0
1532121982164,1,-2,0,-1,-3,20,2,1
1532121982169,0,-2,-1,-2,2,7,26,0
1532121982174,-2,1,3,3,0,13,44,-4
1532121982179,0,-6,-3,-2,-2,10,54,-1
1532121982184,0,-1,-2,-2,0,7,20,0
1532121982189,-2,-3,1,0,-1,-4,-26,2
1532121982194,-2,-2,1,-1,2,3,-14,0
1532121982199,-2,5,-6,-3,-2,4,-5,0
1532121982204,3,8,-1,3,1,0,-11,0
1532121982209,5,7,1,-8,1,-2,33,0
1532121982214,-2,-2,-3,2,-2,0,3,-2
1532121982219,0,-3,-4,-5,-1,2,-7,-1
1532121982224,0,-10,1,1,2,2,-4,0
1532121982229,-1,-7,-2,1,-2,-3,-29,0
1532121982234,1,-5,-2,-6,-1,0,-29,-3
1532121982239,0,-18,-5,-5,-4,0,-17,1
1532121982244,-3,-20,-4,2,0,0,-2,-2
1532121982249,0,-15,10,-8,3,-2,24,2
1532121982254,-2,-4,3,8,2,-1,12,-1
1532121982259,-3,5,-6,0,1,1,18,-1
1532121982264,-1,8,0,-7,-4,0,11,1
1532121982269,-5,2,-4,2,-4,-2,16,0
1532121982274,-2,11,-2,-1,-1,0,16,-1
1532121982279,4,14,7,1,2,0,11,2
1532121982284,-2,9,-6,-3,-4,0,0,-1
1532121982289,2,15,-3,2,-2,-2,3,-1
1532121982294,0,0,3,-1,-1,0,-3,-3
1532121982299,-3,-12,2,6,1,0,-1,-2
1532121982304,0,-4,-1,-1,-3,-1,-6,-2
1532121982309,-4,10,0,8,0,-1,-7,-1
1532121982314,1,5,-2,-2,-1,0,-10,3
1532121982319,-2,8,-1,-3,0,0,-8,2
1532121982324,-2,-15,0,-3,-1,0,-7,0
1532121982329,2,-7,-3,-3,-7,-1,-11,1
1532121982334,0,-7,-2,0,2,0,-8,-3
1532121982339,-2,3,0,1,2,-1,-4,-4
1532121982344,-1,8,-3,-2,1,0,-6,-2
1532121982349,-3,12,-5,2,2,-1,-5,-3
1532121982354,-1,3,-1,-1,0,-1,-5,-3
1532121982359,0,24,6,0,-3,0,-1,-3
1532121982364,-2,37,3,1,-2,0,-2,-1
1532121982369,0,29,0,-3,-2,-1,-2,-4
1532121982374,2,17,-4,1,-1,0,-1,-2
1532121982379,1,-21,-5,2,-1,0,1,-2
1532121982384,1,-18,5,-3,-1,-1,7,-1
1532121982389,1,-21,4,1,-1,-1,-2,-1
1532121982394,-3,-29,-2,-1,-3,-1,-5,-3
1532121982399,-5,-28,-4,-4,-2,0,11,-2
1532121982404,-2,-15,-4,1,0,0,4,-3
1532121982409,-1,-15,-6,-3,-10,-1,-5,0
1532121982414,0,-2,-5,-2,-1,0,1,-1
1532121982419,0,-3,-6,-1,-4,0,-5,-1
1532121982424,2,-5,0,4,3,-1,5,0
1532121982429,-1,-9,-6,-5,4,-1,5,-1
1532121982434,-5,0,1,4,0,0,-10,-2
1532121982439,0,-1,2,1,1,-1,0,0
1532121982444,2,-4,2,1,-2,0,3,-1
1532121982449,3,-8,-3,-4,-2,0,-13,-2
1532121982454,-1,-5,-6,-7,-5,-1,-12,-2
1532121982459,0,0,0,0,-1,3,4,-2
1532121982464,0,1,1,5,-1,34,6,1
1532121982469,-2,-4,1,4,0,39,9,1
1532121982474,-1,0,1,-3,2,49,8,0
1532121982479,1,-1,-1,-4,0,49,-3,-1
1532121982484,1,-2,1,-2,-2,43,-9,0
1532121982489,0,1,1,-1,1,62,0,-2
1532121982494,-2,2,1,1,3,37,7,0
1532121982499,-1,4,1,-2,1,21,1,-2
1532121982504,-2,-1,-2,-3,-2,-40,-2,-1
1532121982509,-3,-4,-3,-5,-2,26,2,-2
1532121982514,0,0,4,2,-2,74,-10,-1
1532121982519,1,-1,0,3,0,8,-10,0
1532121982524,-1,3,-1,1,0,-52,-21,-2
1532121982529,-5,-1,8,2,3,-88,-2,0
1532121982534,-1,0,2,-1,-1,-32,0,0
1532121982539,0,-2,0,-4,1,-76,-9,2
1532121982544,-3,0,-3,-2,-1,42,-3,0
1532121982549,1,1,-6,0,0,89,1,3
1532121982554,1,3,-3,-1,-1,89,11,0
1532121982559,-3,1,-1,-4,-3,127,2,0
1532121982564,3,3,0,-6,-3,119,7,2
1532121982569,-3,-1,2,12,3,54,-6,-4
1532121982574,-2,-1,-8,-9,-7,13,-14,-1
1532121982579,-2,2,-4,-2,-2,-43,10,-6
1532121982584,-3,0,1,-4,-2,-47,9,0
1532121982589,0,4,0,-1,1,-57,16,-1
1532121982594,1,2,1,5,2,-73,11,-1
1532121982599,-1,3,2,1,-3,-52,-2,-1
1532121982604,0,-1,-4,1,0,-55,2,-2
1532121982609,-2,0,-1,-4,-1,-57,-5,-1
1532121982614,-2,3,2,2,1,-70,2,1
1532121982619,0,1,-2,-3,-2,-37,-1,1
1532121982624,-2,1,1,2,1,-16,-5,-1
1532121982629,1,2,-3,-3,-3,-32,-4,0
1532121982634,0,0,-2,-1,1,-38,-4,-2
1532121982639,3,0,-2,-1,-1,-18,2,0
1532121982644,-1,0,2,1,-3,-3,-3,-2
1532121982649,-1,-5,-1,-4,-1,-9,-4,-1
1532121982654,-3,8,1,1,-4,-14,-1,-3
1532121982659,-1,-3,1,1,1,49,-9,1
1532121982664,-1,-3,-3,-2,0,15,-8,0
1532121982669,0,-1,-1,-1,-3,-40,-2,-1
1532121982674,-2,-6,-1,-1,-1,-71,3,-2
1532121982679,-2,3,1,-1,-1,-67,2,-1
1532121982684,-1,5,-1,-2,-2,-10,1,-1
1532121982689,-1,5,1,2,2,-26,0,0
1532121982694,3,1,-1,-2,0,-14,0,-1
1532121982699,-1,-1,-1,1,-2,19,-3,-2
1532121982704,-1,10,-1,-2,1,-76,-1,-2
1532121982709,-2,8,-2,0,-2,-53,0,-1
1532121982714,-3,2,-1,-1,-3,0,0,0
1532121982719,-1,-9,-1,-3,2,31,0,1
1532121982724,-2,-10,-3,-1,1,110,0,1
1532121982729,1,-4,-1,-2,-1,79,-1,-1
1532121982734,0,-20,-1,-2,1,51,0,-1
1532121982739,0,-23,-3,0,-1,67,2,-2
1532121982744,-1,-16,-2,1,-3,24,0,-2
1532121982749,1,-15,-2,-3,-1,12,1,0
1532121982754,-1,-80,0,-2,0,6,-1,-1
1532121982759,-1,-10,0,0,-1,-27,-2,-2
1532121982764,1,-6,0,0,-3,-39,-1,-1
1532121982769,-1,64,-1,0,-3,-9,1,0
1532121982774,1,72,-2,-1,-1,36,0,-2
1532121982779,-3,48,-2,0,0,3,-2,0
1532121982784,-2,27,-2,-2,0,-10,-9,-1
1532121982789,-1,-1,1,-1,0,11,0,0
1532121982794,0,13,0,0,-1,63,2,0
1532121982799,-3,-3,0,4,0,60,4,-2
1532121982804,0,3,-1,-4,-1,39,4,0
1532121982809,-3,-18,0,4,2,24,-1,2
1532121982814,-1,-5,5,6,-3,-51,-2,-1
1532121982819,-2,-8,-5,-10,-1,-63,-2,0
1532121982824,-2,-12,-5,3,2,-26,-3,0
1532121982829,2,-9,7,4,1,-28,-3,-1
1532121982834,0,-10,11,13,2,0,1,0
1532121982839,-3,-25,-9,-3,-8,11,-4,-5
1532121982844,-1,-19,-8,-18,0,-11,0,-1
1532121982849,-3,-16,-6,-18,-10,-15,-2,-3
1532121982854,-2,15,1,5,5,-25,-1,0
1532121982859,2,18,18,13,-1,-35,0,1
1532121982864,1,11,-17,-3,-1,-25,-7,-1
1532121982869,-2,24,6,0,4,-20,-3,1
1532121982874,14,3,19,16,2,7,-5,3
1532121982879,20,2,12,-16,-5,10,2,3
1532121982884,-24,-18,-7,-17,-1,-34,-11,-3
1532121982889,25,30,-14,-9,-1,-121,-2,-3
1532121982894,-46,-12,-3,15,-6,-122,19,-4
1532121982899,-34,-30,-24,4,-2,10,18,-5
1532121982904,-4,0,-20,-3,-6,-40,34,2
1532121982909,-11,-127,-1,-4,-6,112,25,1
1532121982914,22,-101,14,11,10,98,19,1
1532121982919,22,18,14,31,0,12,12,-1
1532121982924,9,92,-18,-21,0,33,5,-1
1532121982929,15,-64,-11,0,2,-46,-6,-2
1532121982934,9,127,-3,-13,-4,64,-5,-3
1532121982939,-6,78,-17,-13,-5,110,-20,-4
1532121982944,4,112,3,-2,-11,93,-17,-1
1532121982949,-13,30,4,3,-10,34,-12,3
1532121982954,-1,77,9,-6,-9,-21,-10,4
1532121982959,-4,-21,7,2,5,-61,-11,3
1532121982964,12,123,10,7,0,-31,-11,5
1532121982969,2,114,6,-2,11,-20,-1,9
1532121982974,-2,-14,1,-3,5,-84,-3,4
1532121982979,8,127,-6,-6,-5,-48,-6,-1
1532121982984,5,-128,3,8,9,-128,-4,-6
1532121982989,-3,127,0,1,-4,35,-12,-4
1532121982994,3,-31,-6,2,-2,41,-13,-4
1532121982999,-2,100,7,1,-5,-78,-7,-3
1532121983004,-3,-59,7,3,-3,-94,1,-4
1532121983009,-8,89,10,1,-18,-11,7,-2
1532121983014,0,118,12,11,-3,83,2,-3
1532121983019,-3,52,8,9,15,21,-4,-2
1532121983024,0,68,19,28,26,-41,1,-3
1532121983029,4,46,14,5,32,-96,2,-2
1532121983034,5,-94,3,35,21,82,-5,21
1532121983039,3,-128,3,22,12,127,2,7
1532121983044,6,-110,-2,-23,4,116,-1,2
1532121983049,0,-128,2,-6,-7,127,-2,-14
1532121983054,1,27,7,-15,-9,82,-2,-15
1532121983059,3,-63,-4,-11,-7,48,0,-8
1532121983064,1,-82,-15,-3,-20,68,8,-11
1532121983069,-9,-8,-32,-31,-21,-24,6,-10
1532121983074,-4,17,-22,-34,-22,-23,1,-8
1532121983079,-5,36,-19,-17,-17,-26,2,-2
1532121983084,-4,76,-4,-22,-18,31,1,-3
1532121983089,-1,34,-3,-8,-4,-8,-2,-1
1532121983094,-1,26,-6,-6,-2,-24,1,-3
1532121983099,-6,-11,-17,-5,-1,-10,0,-4
1532121983104,-5,8,-11,3,0,-7,-1,0
1532121983109,-7,-25,-7,13,8,-12,-4,1
1532121983114,-6,5,-7,1,5,-62,2,-4
1532121983119,-6,-41,5,2,3,-23,2,-1
1532121983124,-9,1,7,11,3,-7,-2,1
1532121983129,-6,11,4,14,6,-8,0,2
1532121983134,-6,0,0,2,-1,-38,5,-3
1532121983139,-11,-2,-1,2,-1,-30,2,-2
1532121983144,-6,20,1,11,0,-7,1,2
1532121983149,-4,-8,-2,8,0,-14,3,0
1532121983154,-4,1,-3,1,1,-39,2,-1
1532121983159,-3,-22,0,24,3,-10,-5,0
1532121983164,1,12,3,25,1,2,-6,1
1532121983169,4,-23,1,75,2,8,-8,3
1532121983174,2,-10,0,19,0,-76,-2,1
1532121983179,3,-6,-1,1,2,-46,0,1
1532121983184,4,8,-7,-25,2,-26,0,2
1532121983189,1,14,3,-46,4,-10,0,3
1532121983194,1,4,-2,-11,0,17,-3,-2
1532121983199,3,10,0,-32,-5,14,-1,-1
1532121983204,1,5,3,-18,-8,16,2,-1
1532121983209,2,-3,2,-28,-4,4,1,0
1532121983214,1,0,2,-27,-4,-1,1,0
1532121983219,4,-11,4,-24,-4,4,2,0
1532121983224,1,-3,-1,-13,0,20,1,0
1532121983229,1,4,-5,-15,-1,15,-1,0
1532121983234,2,-1,-5,-5,-2,16,-1,-2
1532121983239,1,-5,-2,9,5,14,-3,-2
1532121983244,0,2,0,12,2,10,-3,0
1532121983249,1,-1,0,0,2,-1,-3,-2
1532121983254,0,-5,-1,-1,-5,3,-1,-1
1532121983259,2,-3,-3,-8,-3,9,0,1
1532121983264,-2,4,2,-2,-12,3,0,-1
1532121983269,-2,-7,-1,1,-8,0,0,0
1532121983274,-5,-3,-1,5,8,6,1,-1
1532121983279,-4,0,3,2,10,3,4,-2
1532121983284,0,1,4,-3,7,-7,-1,0
1532121983289,1,1,0,0,-3,-8,3,-2
1532121983294,0,1,2,-2,-7,-2,4,1
1532121983299,-1,0,0,-1,-8,1,1,0
1532121983304,0,4,2,3,-6,-2,-3,-1
1532121983309,-1,5,1,3,-7,-2,-5,-2
1532121983314,2,-5,-1,-1,-5,-2,-4,-1
1532121983319,-1,-5,1,2,-7,-2,-1,1
1532121983324,-1,0,-1,6,-4,2,1,-2
1532121983329,-1,3,0,5,-1,-3,-1,-1
1532121983334,-2,5,0,3,-1,-10,-2,-1
1532121983339,-1,6,-1,6,-3,-3,-4,0
1532121983344,-1,3,0,3,0,-1,-1,0
1532121983349,-2,1,0,-1,0,-2,0,0
1532121983354,-1,1,-3,1,0,-6,-2,0
1532121983359,-2,-1,-1,0,-2,-3,-3,-1
1532121983364,0,2,0,-1,1,-6,-2,-1
1532121983369,-1,0,-2,-1,2,-4,-2,-1
1532121983374,0,1,-2,0,1,2,0,-2
1532121983379,1,1,-1,0,1,-7,1,-1
1532121983384,0,-2,-3,-1,1,-3,3,-1
1532121983389,1,-1,-1,-1,1,0,1,0
1532121983394,-1,2,-2,1,0,2,-1,-1
1532121983399,0,4,-2,0,1,3,0,-2
1532121983404,-1,3,0,2,2,3,0,-1
1532121983409,0,1,-2,1,2,3,-1,0
1532121983414,-1,-1,1,1,0,1,-2,0
1532121983419,-2,-1,2,-1,0,-2,-3,0
1532121983424,-2,0,0,-1,-1,-6,-1,-2
1532121983429,0,-1,0,0,-1,-2,-1,0
1532121983434,-1,-2,1,-1,-2,-8,-1,-1
1532121983439,-1,0,0,0,-2,-5,0,-2
1532121983444,-2,0,0,-2,-2,-4,1,-1
1532121983449,-1,1,-1,-1,-3,-1,-1,-1
1532121983454,-1,0,-4,1,-2,3,1,-1
1532121983459,-1,-2,-1,0,-2,3,1,-1
1532121983464,0,0,-1,-1,-1,2,1,1
1532121983469,1,-1,-1,-2,-2,-3,1,-2
1532121983474,-1,-1,-1,-3,-2,-5,1,-1
1532121983479,0,0,-1,-1,-2,-5,0,1
1532121983484,-1,0,1,-1,-2,-5,-5,0
1532121983489,-1,1,0,0,-3,-6,-5,-1
1532121983494,0,-1,0,-1,-3,-1,-6,-1
1532121983499,0,1,-3,-1,-2,5,-1,-2
1532121983504,0,-2,-1,-1,0,10,0,-3
1532121983509,-2,-5,-2,1,3,13,3,-2
1532121983514,-1,0,0,0,3,11,0,0
1532121983519,0,2,-2,-1,3,6,-1,1
1532121983524,0,7,-2,0,3,8,-1,-2
1532121983529,1,11,-1,-1,4,5,-1,0
1532121983534,0,12,-2,0,3,1,0,0
1532121983539,-1,10,0,1,1,0,-2,0
1532121983544,-3,3,-2,1,-1,-4,2,0
1532121983549,0,-1,-2,1,0,-2,-2,-2
1532121983554,-1,-6,-1,0,0,0,1,-1
1532121983559,0,-8,0,2,-1,-2,1,-1
1532121983564,0,-2,-2,-2,-4,1,0,-1
1532121983569,-2,-5,-1,-2,-2,-3,-2,0
1532121983574,-1,-3,-1,-4,-1,-10,-4,-2
1532121983579,-1,-2,0,-1,-1,-8,-1,-1
1532121983584,0,1,1,-1,-1,-4,1,-1
1532121983589,0,1,-2,-1,0,-2,1,-1
1532121983594,0,5,-1,-1,0,-2,1,-1
1532121983599,0,0,-3,-2,0,-3,-1,0
1532121983604,-1,-3,0,1,0,-1,0,0
1532121983609,-1,-2,-1,1,0,0,0,-1
1532121983614,1,-2,1,1,-3,1,0,-1
1532121983619,1,-3,3,1,-1,1,1,-2
1532121983624,-1,1,-1,0,-2,5,0,-1
1532121983629,1,0,0,-5,-3,8,-1,0
1532121983634,-1,6,-3,0,-1,5,-1,0
1532121983639,-2,3,-3,-1,0,4,0,-1
1532121983644,-2,3,-2,0,-2,4,-1,-1
1532121983649,-2,4,-3,2,0,3,-1,-1
1532121983654,-1,10,-2,0,-1,4,0,-2
1532121983659,0,10,-2,4,1,7,-1,-1
1532121983664,0,5,-3,13,2,5,-3,-1
1532121983669,0,4,-1,4,-1,-7,-2,0
1532121983674,-2,0,-1,-2,1,-11,-1,0
1532121983679,2,-12,0,-4,0,-5,1,-1
1532121983684,1,-8,0,-5,-1,-4,-1,-1
1532121983689,-2,-4,-2,-4,-1,-12,-1,-3
1532121983694,1,-2,0,1,-1,-6,-3,1
1532121983699,0,3,-1,2,-2,-9,-1,0
1532121983704,-2,-1,0,-1,-1,-3,2,0
1532121983709,0,-3,-4,-3,-3,1,-1,0
1532121983714,1,-1,0,-9,-2,-2,1,-2
1532121983719,-1,1,0,-6,-2,-8,1,1
1532121983724,-1,-6,-1,-7,-2,-7,-1,-2
1532121983729,0,-3,1,6,-1,-1,-1,0
1532121983734,-1,-9,4,8,0,3,-2,1
1532121983739,0,-7,3,22,-1,4,-1,1
1532121983744,-2,0,4,-8,-1,2,-1,-3
1532121983749,-1,-2,8,-3,-1,10,-3,0
1532121983754,-1,-6,0,-4,-1,10,-2,-1
1532121983759,-1,1,-8,13,1,16,-4,-1
1532121983764,-3,-1,-10,1,-2,-10,-3,-1
1532121983769,-1,1,-8,-12,-2,-10,-1,-1
1532121983774,-1,-2,-4,-23,-1,6,-2,-1
1532121983779,-1,1,-4,-14,-1,10,0,0
1532121983784,0,3,-3,-3,-1,13,0,1
1532121983789,1,1,-3,0,-1,14,0,-3
1532121983794,0,2,-1,-1,0,0,-2,-1
1532121983799,-1,-1,-4,-13,-1,-8,0,-2
1532121983804,1,0,-4,10,-1,-11,0,0
1532121983809,1,2,-3,3,2,4,-1,0
1532121983814,-1,4,-5,4,-2,-6,-1,-2
1532121983819,-1,0,2,-2,-1,23,-2,-1
1532121983824,-1,-1,5,-6,-2,9,2,0
1532121983829,0,0,3,-8,0,-1,-2,0
1532121983834,1,-2,4,-1,0,1,-5,-1
1532121983839,-1,3,3,-14,-2,-7,-2,-3
1532121983844,-2,1,2,-8,-1,5,0,-1
1532121983849,0,0,-1,-3,-1,5,3,0
1532121983854,-1,-3,-4,-1,-2,0,4,-2
1532121983859,1,-4,-1,0,-1,-11,3,0
1532121983864,1,-2,0,3,-1,-4,2,0
1532121983869,0,-4,1,4,0,-11,1,-3
1532121983874,1,-2,-1,5,-2,-19,1,0
1532121983879,0,-1,1,2,1,-40,0,0
1532121983884,-2,2,0,4,-1,-19,-1,-2
1532121983889,0,0,1,2,-3,-9,0,-1
1532121983894,1,0,-2,3,1,15,0,-2
1532121983899,-1,0,0,-1,0,20,0,-2
1532121983904,-2,-5,-1,-2,-1,19,-2,-1
1532121983909,0,-4,-2,0,-2,8,-4,0
1532121983914,0,-3,-2,3,-1,-42,1,0
1532121983919,-1,-1,-1,-1,1,-14,-2,-1
1532121983924,0,0,0,-1,-1,-22,-5,-2
1532121983929,-2,2,0,-1,0,16,-2,-1
1532121983934,-3,0,0,0,-3,23,0,-1
1532121983939,-2,2,0,-3,0,8,-1,0
1532121983944,-1,3,1,-1,-2,7,-2,-2
1532121983949,-1,1,-1,-2,-1,1,-1,-2
1532121983954,-2,0,-1,0,-2,-4,-1,-1
1532121983959,-1,2,0,2,-1,7,-2,-2
1532121983964,0,0,0,1,0,16,0,-1
1532121983969,-1,-1,-1,1,1,-2,2,1
1532121983974,-1,1,-1,0,1,9,1,0
1532121983979,-2,2,-1,-2,-1,-12,1,0
1532121983984,-1,1,-2,0,-2,-5,0,2
1532121983989,-1,2,-2,2,0,-10,-2,-1
1532121983994,1,0,0,2,-2,-6,-4,0
1532121983999,0,-1,-2,3,-1,-7,0,-1
1532121984004,1,-1,-1,0,0,-2,0,-1
1532121984009,0,-1,0,-1,-1,5,0,0
1532121984014,-3,0,2,0,-1,17,0,0
1532121984019,-1,-1,1,0,1,4,0,-1
1532121984024,1,0,1,-1,2,-4,-1,1
1532121984029,0,-1,1,0,4,-5,0,-2
1532121984034,-1,4,1,-1,2,-3,0,-2
1532121984039,1,0,-1,-6,-2,-11,-1,-1
1532121984044,-1,1,-2,-3,-1,-4,0,-2
1532121984049,-1,1,-4,-4,-2,-13,0,-1
1532121984054,-1,0,-3,0,0,18,1,-2
1532121984059,0,-1,-4,0,-3,13,-1,-1
1532121984064,0,0,-3,-2,-2,9,-1,0
1532121984069,-1,1,-2,0,-3,-2,0,0
1532121984074,-1,1,-1,-1,-3,-4,-2,0
1532121984079,-1,-2,0,-3,-4,-6,-2,-1
1532121984084,-2,0,-1,-1,-3,-10,-1,-2
1532121984089,-3,-4,0,0,-3,-3,-1,-1
1532121984094,-1,-3,-2,-1,-3,-11,-1,-1
1532121984099,-3,-5,1,-2,-4,1,0,0
1532121984104,0,-4,-1,-2,-2,0,-2,-2
1532121984109,-3,-3,-1,-2,-3,2,-2,-1
1532121984114,-3,-3,-2,-1,-1,-4,-1,0
1532121984119,-1,1,-1,0,1,2,-1,-2
1532121984124,-1,2,1,2,4,5,0,-1
1532121984129,2,4,2,4,3,12,1,-1
1532121984134,2,4,2,0,6,7,-2,-1
1532121984139,2,4,1,2,6,-12,-1,2
1532121984144,2,3,0,1,3,-11,-1,2
1532121984149,1,3,0,-2,3,-13,-1,0
1532121984154,0,2,2,-3,1,-4,0,-1
1532121984159,0,0,0,-2,0,6,1,0
1532121984164,1,2,0,2,0,2,3,-1
1532121984169,-1,2,0,3,-1,-10,-1,-1
1532121984174,0,2,1,9,-1,2,0,-1
1532121984179,1,3,2,7,-1,6,1,0
1532121984184,-1,-4,3,1,-2,5,-2,-2
1532121984189,-2,2,1,-4,-3,0,-2,-2
1532121984194,-1,-3,-1,-7,-6,9,-7,0
1532121984199,-1,-30,3,-10,-5,-4,0,-1
1532121984204,-1,1,-1,2,-6,-9,0,0
1532121984209,-1,3,-3,7,-5,-3,-3,0
1532121984214,1,-5,-3,-6,-5,-7,3,-1
1532121984219,0,-64,-3,-15,-3,1,3,0
1532121984224,-2,-40,-5,-27,-3,2,8,0
1532121984229,-4,-2,-3,-2,-3,-2,3,0
1532121984234,-6,21,-5,10,-1,-3,-7,-1
1532121984239,-6,25,-9,18,0,4,-6,-1
1532121984244,-3,5,-5,2,1,-3,-4,-1
1532121984249,-2,11,-3,5,4,4,-6,-1
1532121984254,-2,9,-4,1,1,-1,-4,-1
1532121984259,-1,27,-2,0,1,1,-1,-2
1532121984264,-1,28,-1,1,0,2,-3,0
1532121984269,-1,-3,-1,-12,-1,2,-1,-1
1532121984274,-1,19,2,-6,1,-2,-1,1
1532121984279,-2,25,1,1,-2,-1,-4,-2
1532121984284,-2,27,-1,2,-1,-3,-8,-1
1532121984289,0,-10,1,-4,-2,3,-1,0
1532121984294,-1,-28,-1,-2,-3,-4,2,-1
1532121984299,0,-11,-2,-1,-2,-2,-2,-1
1532121984304,0,-18,-1,0,1,-2,1,-1
1532121984309,-3,-15,0,-1,-1,-4,2,1
1532121984314,-2,-14,-1,-3,2,-4,3,-1
1532121984319,-2,1,-2,-3,0,0,2,0
1532121984324,-2,-11,0,6,-2,0,1,0
1532121984329,-1,-5,-1,7,0,0,1,-1
1532121984334,0,5,-3,8,-1,-1,0,-2
1532121984339,-1,21,1,5,1,1,-3,-1
1532121984344,0,13,3,-9,-3,2,1,-2
1532121984349,0,8,-1,10,-3,3,-2,-1
1532121984354,0,-4,0,7,-2,5,-1,0
1532121984359,1,-2,0,2,-2,5,5,-1
1532121984364,1,-7,-2,-6,-3,2,0,0
1532121984369,0,-2,-4,-5,0,-1,1,-2
1532121984374,1,-2,-3,-17,-1,-2,0,-1
1532121984379,-1,5,-2,3,1,-2,-2,0
1532121984384,1,14,2,6,6,5,-2,0
1532121984389,-1,9,4,-16,5,4,0,-1
1532121984394,0,-1,-3,-9,2,-3,2,1
1532121984399,-1,-4,-2,-10,1,-1,-2,-1
1532121984404,-1,-5,-3,-6,-9,-2,0,-1
1532121984409,1,-6,0,1,-12,0,1,-3
1532121984414,-4,-6,3,2,-7,-2,0,-1
1532121984419,-1,-3,-1,-3,-6,-2,1,-1
1532121984424,-2,-10,-3,4,-1,-2,0,0
1532121984429,1,-3,-1,-3,-2,0,-1,-1
1532121984434,-3,1,1,-5,-2,2,0,1
1532121984439,-3,-1,0,-2,-1,1,0,-1
1532121984444,-1,-2,0,1,2,-1,-3,0
1532121984449,-2,-4,-6,5,-1,0,-3,0
1532121984454,3,-3,-1,-7,0,-2,-2,-2
1532121984459,2,-1,1,-7,-2,-5,-1,1
1532121984464,-1,2,1,3,-3,-1,-1,-2
1532121984469,1,-2,1,0,0,3,0,-1
1532121984474,0,-3,-4,3,1,10,0,0
1532121984479,0,-1,0,0,-1,9,0,-1
1532121984484,1,-2,-4,-5,0,2,0,0
1532121984489,0,-1,1,2,1,-2,-1,0
1532121984494,0,-5,-1,5,2,-6,-2,-2
1532121984499,0,-5,-8,-6,-2,-4,-1,-3
1532121984504,0,0,1,5,-2,-3,1,-2
1532121984509,1,0,-3,-6,0,-1,-1,1
1532121984514,2,3,0,5,0,-3,-1,-1
1532121984519,1,0,-1,6,2,1,-2,-2
1532121984524,-2,-1,-3,-2,0,1,-2,-3
1532121984529,-2,0,-2,-1,-1,0,-1,-2
1532121984534,-2,1,1,-3,0,-6,0,0
1532121984539,-1,2,4,3,2,-2,-1,0
1532121984544,0,-3,1,-8,2,-14,0,0
1532121984549,0,0,5,-3,0,-7,-5,0
1532121984554,0,0,0,-2,-1,5,-3,-4
1532121984559,-2,2,-5,-4,-3,15,-1,-2
1532121984564,-1,0,-3,3,-1,18,0,0
1532121984569,0,-4,-6,2,0,2,5,1
1532121984574,1,-2,0,7,1,12,4,0
1532121984579,0,5,3,8,-2,-2,1,-3
1532121984584,-1,2,-1,3,0,4,-1,-1
1532121984589,-3,16,0,-6,-2,24,1,-3
1532121984594,-2,15,-3,-2,-1,8,-3,0
1532121984599,-1,8,-1,-4,-1,-12,-1,0
1532121984604,0,13,0,-1,-4,-21,-3,-1
1532121984609,1,10,2,3,4,3,-1,-2
1532121984614,-1,10,2,0,-2,18,-1,-1
1532121984619,-1,2,1,-1,2,16,-1,-2
1532121984624,-1,-9,0,3,-1,-5,-2,-2
1532121984629,-4,-25,-2,-2,1,-3,-1,-1
1532121984634,-4,-15,0,-1,-1,8,0,0
1532121984639,-1,1,-2,0,-1,-1,-2,1
1532121984644,-1,11,0,6,-2,18,2,-2
1532121984649,-1,10,-4,-9,-3,5,-1,-1
1532121984654,-3,12,0,-8,-1,-23,-1,-2
1532121984659,-2,-36,-2,-3,-2,-35,2,0
1532121984664,-2,33,-2,-5,0,-4,-1,0
1532121984669,0,6,-3,2,0,39,-5,-2
1532121984674,-2,0,-2,-3,0,75,-3,-3
1532121984679,-1,-5,-2,0,0,87,0,-1
1532121984684,0,-10,-4,-1,-3,-11,5,0
1532121984689,0,-10,-3,-7,-5,-23,-2,-1
1532121984694,1,-15,1,0,-2,-40,2,0
1532121984699,2,1,-4,1,-3,-7,2,-1
1532121984704,2,-19,-3,-6,2,15,-1,0
1532121984709,1,1,3,3,0,-33,-2,2
1532121984714,0,-32,-1,-2,-5,-2,-2,-1
1532121984719,0,-73,2,5,1,-3,0,-3
1532121984724,-3,-44,-2,-3,-3,-8,1,-3
1532121984729,1,-23,1,0,-2,-16,8,-1
1532121984734,0,15,-1,0,-1,-100,3,1
1532121984739,-2,52,1,3,2,-18,3,0
1532121984744,-2,25,-4,-3,1,6,-4,-2
1532121984749,0,10,-2,-4,9,18,-1,-1
1532121984754,1,28,1,0,3,32,-4,-2
1532121984759,-1,30,-1,0,-2,-7,-1,-3
1532121984764,-2,18,-1,3,1,-36,0,-2
1532121984769,-3,7,-2,-2,-10,-23,-2,-2
1532121984774,-1,5,1,-2,-4,-2,-2,0
1532121984779,-4,4,1,1,-3,-9,-3,-1
1532121984784,-3,-5,1,-2,-2,-19,-1,-1
1532121984789,0,-1,2,0,0,12,3,0
1532121984794,-1,-18,-1,-3,0,29,1,1
1532121984799,2,1,2,-1,-1,48,-1,2
1532121984804,1,-4,1,-1,-1,14,-1,-1
1532121984809,-1,-11,-3,-4,-2,-2,-4,0
1532121984814,1,-19,0,0,1,-7,-1,-1
1532121984819,-1,-4,-4,2,2,-14,-2,0
1532121984824,2,-5,1,0,4,2,0,-1
1532121984829,-1,-14,-3,-4,-10,-5,-3,-1
1532121984834,0,-2,-2,1,0,-1,-2,0
1532121984839,0,1,0,0,2,37,-8,0
1532121984844,0,-3,-1,4,2,11,-1,-1
1532121984849,-2,-5,0,0,1,-28,9,0
1532121984854,-2,1,-2,-5,-7,-1,12,-2
1532121984859,-2,0,0,-4,-7,-29,40,-1
1532121984864,-1,3,-3,-1,-1,-6,2,0
1532121984869,1,4,0,3,7,3,-23,0
1532121984874,0,7,-3,0,8,5,-18,0
1532121984879,2,9,-1,-4,2,-7,-19,-1
1532121984884,-1,5,1,-1,0,-3,-1,-1
1532121984889,0,1,-1,4,1,5,7,-2
1532121984894,-3,1,-1,3,0,5,-2,-1
1532121984899,0,11,-1,-5,-7,-10,-5,1
1532121984904,-3,6,-1,-5,-4,-3,-1,0
1532121984909,-1,3,2,1,-3,-8,-3,-3
1532121984914,-1,2,0,4,0,25,-2,-3
1532121984919,-1,5,3,-5,-6,43,-3,0
1532121984924,0,5,0,0,-5,37,-5,-1
1532121984929,0,11,-4,-2,0,17,3,-3
1532121984934,0,1,-1,7,-8,21,3,-1
1532121984939,-1,7,-6,-5,-4,-14,-6,-3
1532121984944,-1,5,-2,-2,3,-2,-7,1
1532121984949,-2,4,3,-3,13,15,-3,2
1532121984954,0,6,1,0,8,-3,0,2
1532121984959,-1,5,-2,0,2,1,-6,-1
1532121984964,-1,-3,0,3,-2,-4,3,-2
1532121984969,1,7,0,-5,-2,1,5,-2
1532121984974,0,-6,0,-3,-1,-24,3,-1
1532121984979,0,1,3,6,1,-25,-1,-2
1532121984984,2,-3,-4,1,-8,3,1,0
1532121984989,-1,-1,-1,-2,-7,-4,0,-1
1532121984994,-1,3,-4,-8,-7,4,-1,-2
1532121984999,-1,3,-3,-1,-7,-2,-2,-1
1532121985004,0,-5,0,1,-3,-15,0,0
1532121985009,0,-1,-1,-1,-2,-5,0,0
1532121985014,-1,-1,-2,-5,1,0,0,-2
1532121985019,-3,-7,-2,0,2,-10,-1,-2
1532121985024,-3,7,0,1,8,1,-3,-1
1532121985029,1,5,-1,-7,-10,7,-2,1
1532121985034,-1,1,-2,-4,-1,12,-3,0
1532121985039,0,4,-1,-2,-1,0,-3,0
1532121985044,0,-3,-6,-2,2,12,-2,-2
1532121985049,1,-6,-3,1,2,-13,3,1
1532121985054,1,-1,-3,7,2,10,0,0
1532121985059,-1,-5,2,3,3,6,1,-1
1532121985064,0,1,3,1,-2,7,3,0
1532121985069,-2,5,-2,-7,-3,15,1,-3
1532121985074,-3,-3,4,3,-3,-5,1,-2
1532121985079,0,-1,2,1,2,1,-3,0
1532121985084,-2,4,1,0,-2,3,-1,0
1532121985089,-1,-5,0,-4,-2,0,-1,0
1532121985094,-1,3,2,2,2,1,5,1
1532121985099,-1,3,0,2,-1,-7,2,-1
1532121985104,-1,-1,-5,-4,-1,-32,0,-2
1532121985109,-1,-5,1,9,8,-21,-1,0
1532121985114,-2,2,0,0,-1,-9,1,-2
1532121985119,-2,1,-2,-10,-7,-10,-1,-1
1532121985124,0,-5,-2,-3,-1,-8,-1,-3
1532121985129,-4,-7,0,1,3,-1,-2,-2
1532121985134,-1,4,-2,-2,6,0,-3,1
1532121985139,-2,-1,0,1,5,1,1,0
1532121985144,-2,5,-1,-2,-9,-7,3,0
1532121985149,0,-3,0,3,1,-2,0,-1
1532121985154,-1,-7,-2,-4,-8,-1,-1,-1
1532121985159,0,-13,-3,-1,0,-12,0,0
1532121985164,1,-8,0,-4,-3,-4,-2,-1
1532121985169,1,-4,2,0,1,-3,5,0
1532121985174,0,-10,0,-1,-2,-11,3,0
1532121985179,-1,-4,-2,-1,0,2,2,-3
1532121985184,-1,-9,-3,-2,4,31,13,0
1532121985189,1,-4,-4,-6,-1,-15,8,-2
1532121985194,0,-1,-3,-1,-3,-36,-10,-1
1532121985199,0,5,0,1,-2,-48,-15,1
1532121985204,-3,1,2,9,0,-44,-16,-2
1532121985209,-5,-2,-4,-9,-8,-13,-9,-4
1532121985214,-3,0,-3,-1,-2,5,-3,-2
1532121985219,2,-2,-2,-4,-6,5,-5,0
1532121985224,0,-1,1,0,-4,4,0,-1
1532121985229,0,-7,1,9,13,26,2,0
1532121985234,1,-3,4,2,-13,-2,2,0
1532121985239,-1,-4,-3,-6,-4,14,2,0
1532121985244,2,-4,2,-6,1,12,1,0
1532121985249,0,-1,1,4,-13,7,0,0
1532121985254,0,1,0,2,31,27,-2,0
1532121985259,-1,1,-1,0,-4,17,4,1
1532121985264,-1,2,0,-2,0,27,2,1
1532121985269,-1,3,0,5,-3,-5,-3,-1
1532121985274,-1,-1,-6,-9,-6,12,1,-1
1532121985279,-1,-1,2,1,0,8,2,-2
1532121985284,-3,-5,-5,3,3,-1,-2,-2
1532121985289,-2,6,2,-2,-2,15,-1,1
1532121985294,0,-2,3,1,-4,10,2,1
1532121985299,-1,1,-2,0,2,1,2,-2
1532121985304,-1,1,-4,-6,-5,-3,-4,-1
1532121985309,1,-2,-1,3,1,5,-3,0
1532121985314,0,6,-2,-5,-13,-10,0,-1
1532121985319,1,7,0,-1,2,5,1,1
1532121985324,1,2,2,2,-5,-4,0,0
1532121985329,-2,2,-1,-4,3,3,-1,-1
1532121985334,-2,9,-1,1,-1,2,-2,-2
1532121985339,0,1,-1,0,4,1,-4,-2
1532121985344,0,2,-1,-1,1,1,-2,-1
1532121985349,0,1,-2,-8,-5,3,-2,-1
1532121985354,0,3,-2,2,-1,6,-1,0
1532121985359,0,-2,-1,-1,4,8,0,-1
1532121985364,-1,0,-5,-4,-2,-1,0,-1
1532121985369,-1,7,0,4,-5,-17,0,0
1532121985374,0,1,1,-1,3,-4,-2,-2
1532121985379,0,0,2,-2,-3,-7,1,-1
1532121985384,1,5,2,0,1,-3,0,-1
1532121985389,0,-3,-4,-2,-2,0,-2,-2
1532121985394,-4,-15,-4,-2,-2,4,-2,0
1532121985399,-2,1,-3,2,2,3,0,-1
1532121985404,0,3,0,-1,-2,0,-1,0
1532121985409,-3,8,-12,-1,1,5,0,-1
1532121985414,1,2,-1,0,-2,7,0,1
1532121985419,0,8,5,0,-3,5,0,-1
1532121985424,1,11,0,-3,-2,9,2,1
1532121985429,-6,-11,-1,-1,0,0,0,0
1532121985434,-3,-6,-1,5,-2,-7,-1,-2
1532121985439,2,-3,-9,-3,-1,0,-4,-3
1532121985444,3,8,-5,2,0,-10,-1,-1
1532121985449,9,-1,-1,-1,2,16,0,0
1532121985454,2,-5,0,-4,0,2,-1,-2
1532121985459,1,4,8,1,-4,-4,0,1
1532121985464,1,-6,9,5,2,15,-1,0
1532121985469,-3,-17,2,-1,-4,22,-1,-3
1532121985474,-2,8,5,-1,-3,15,-2,1
1532121985479,1,0,4,0,1,24,-2,-1
1532121985484,-3,-4,-8,-10,-5,16,-3,0
1532121985489,-1,-4,-3,1,2,8,-1,-2
1532121985494,2,6,-10,0,12,10,2,-1
1532121985499,-2,2,-3,5,-7,-19,5,1
1532121985504,-2,-9,-5,-5,-1,-9,1,-1
1532121985509,-1,23,-3,0,4,-9,0,-1
1532121985514,-3,-17,-8,-6,-9,-8,1,-2
1532121985519,-5,-18,1,0,2,28,-2,0
1532121985524,-4,-13,15,4,-7,18,-6,-2
1532121985529,-1,1,8,2,27,3,-2,0
1532121985534,0,3,8,-7,-24,17,-3,0
1532121985539,-2,-8,-4,-7,-5,49,-3,-4
1532121985544,1,4,1,0,-2,35,0,2
1532121985549,-1,-15,5,-3,11,20,0,-3
1532121985554,-1,-4,3,5,2,33,-4,0
1532121985559,-1,-5,0,4,-2,36,-1,0
1532121985564,-6,-13,-2,-1,14,41,0,0
1532121985569,-5,8,1,-2,-20,-30,4,2
1532121985574,10,-7,-2,-6,5,-43,1,-2
1532121985579,13,-11,-6,-6,-4,-2,-4,-4
1532121985584,13,-8,-8,3,11,99,-3,-2
1532121985589,6,-7,-5,6,3,73,-4,2
1532121985594,-4,16,0,2,-18,5,-6,0
1532121985599,-3,-12,3,-3,17,-54,-3,0
1532121985604,-6,-7,-4,3,-1,-104,-3,-3
1532121985609,-3,22,14,4,-14,-73,1,2
1532121985614,-12,-33,-26,-11,-2,-60,-2,-4
1532121985619,0,30,22,-9,-13,-54,2,-3
1532121985624,-22,-17,-30,-4,-14,-70,-9,-10
1532121985629,-2,-17,-8,0,4,-38,-2,-6
1532121985634,5,-6,6,9,2,-13,5,10
1532121985639,-3,-11,-7,0,7,-27,4,2
1532121985644,2,-12,6,2,30,-34,5,0
1532121985649,-4,-14,-8,-10,-26,-8,-12,-10
1532121985654,3,-17,2,11,-1,8,18,3
1532121985659,-5,-19,-10,-4,-8,-6,3,-1
1532121985664,0,13,0,-1,-39,-21,3,-2
1532121985669,-1,10,-7,0,40,-48,-2,3
1532121985674,0,-4,8,-8,17,18,-7,-1
1532121985679,-7,8,-7,0,7,0,-10,-2
1532121985684,0,15,2,-6,2,-35,-4,1
1532121985689,4,3,9,0,-30,19,4,2
1532121985694,6,23,23,14,-4,7,1,-3
1532121985699,0,32,15,15,7,-9,8,0
1532121985704,-5,-26,-21,-39,-8,6,-4,3
1532121985709,-4,17,-4,-6,-10,23,-5,-8
1532121985714,-6,-29,-23,-10,-3,-6,-5,-8
1532121985719,6,3,-1,4,4,-11,-3,-2
1532121985724,6,13,15,13,6,10,4,2
1532121985729,9,-2,11,3,-12,1,6,3
1532121985734,0,39,16,3,7,-9,-2,3
1532121985739,-20,-26,-24,-3,3,9,-4,-5
1532121985744,-5,20,3,1,8,3,1,-2
1532121985749,-9,4,-5,-5,-7,-2,2,-4
1532121985754,-2,28,2,2,2,-1,-2,4
1532121985759,-5,9,8,-2,4,5,6,-2
1532121985764,10,27,16,2,-1,0,1,35
1532121985769,0,11,2,0,3,3,-6,5
1532121985774,13,70,29,9,5,-3,12,-21
1532121985779,-12,-64,-29,-5,16,4,-1,-14
1532121985784,-2,29,28,14,-8,-2,10,17
1532121985789,-21,-62,-42,-20,3,2,-12,-21
1532121985794,18,-23,7,6,2,-1,-9,-10
1532121985799,10,5,25,-6,-5,0,-10,-3
1532121985804,-6,-14,-8,-18,-3,-1,-9,-7
1532121985809,-11,14,22,7,-3,0,-12,0
1532121985814,-11,5,4,10,5,-1,-2,-1
1532121985819,20,31,-5,-2,-11,-2,7,9
1532121985824,13,16,-12,3,9,-2,7,3
1532121985829,21,21,-4,5,-4,4,7,9
1532121985834,-53,-15,-25,-6,-6,0,0,-13
1532121985839,3,-13,-13,-5,7,3,6,1
1532121985844,3,12,-3,-4,6,1,-8,-7
1532121985849,-78,-59,-4,-2,-8,1,1,-13
1532121985854,46,74,28,8,-19,3,-4,1
1532121985859,90,-74,-54,-7,-4,-1,4,28
1532121985864,-6,-31,-20,-11,-16,-2,-6,-7
1532121985869,-30,37,25,11,-9,-2,2,5
1532121985874,-128,-54,-7,-8,-5,-6,-37,-43
1532121985879,-110,33,32,13,-11,1,-11,-23
1532121985884,113,33,23,-17,-4,-3,11,38
1532121985889,116,-2,-6,-13,25,-1,10,40
1532121985894,-66,-17,14,6,21,-7,11,12
1532121985899,-72,52,8,3,-9,-5,-17,-31
1532121985904,-58,-1,-8,10,7,2,0,-26
1532121985909,-5,-16,3,19,14,1,30,-2
1532121985914,35,-10,-35,-15,-4,0,15,7
1532121985919,-8,-46,-18,-16,-36,-1,-35,11
1532121985924,16,10,-3,1,-19,-8,-18,-1
1532121985929,32,-34,5,-8,0,0,-40,-17
1532121985934,85,-53,-13,5,26,7,95,33
1532121985939,-41,-38,-17,4,11,-6,-14,-19
1532121985944,45,116,25,8,-25,2,-1,1
1532121985949,-10,-18,-31,-2,31,-9,22,41
1532121985954,-69,1,-24,-5,-20,-3,-71,-21
1532121985959,-14,42,9,0,6,1,17,-2
1532121985964,-75,-40,-12,-4,3,4,-18,-35
1532121985969,-5,53,7,8,-21,2,-25,-25
1532121985974,-60,-18,0,-12,-1,2,0,4
1532121985979,124,-17,1,5,-8,4,21,38
1532121985984,-12,-60,-20,-11,-1,-4,16,21
1532121985989,11,20,-4,-6,-21,1,-16,-34
1532121985994,127,59,-1,13,3,-2,-22,-3
1532121985999,-39,-17,-16,14,51,6,97,1
1532121986004,15,-68,-16,16,-7,-3,-14,65
1532121986009,-61,-29,-3,-40,-68,0,-7,-53
1532121986014,-58,38,9,28,35,10,49,-65
1532121986019,43,52,12,-2,56,-4,-6,-19
1532121986024,5,5,9,0,24,2,64,22
1532121986029,-9,-4,17,-2,-36,2,-41,39
1532121986034,13,-4,7,-5,-53,-4,-16,10
1532121986039,-9,18,16,-3,-10,-1,-20,-21
1532121986044,-57,-7,17,0,11,3,23,-2
1532121986049,8,17,10,5,8,1,-17,12
1532121986054,17,-1,16,-17,-2,-4,-6,3
1532121986059,-3,80,24,13,-8,-1,-8,20
1532121986064,-6,69,20,-5,9,0,-17,-19
1532121986069,40,93,8,3,13,2,33,3
1532121986074,-17,-70,-30,-3,5,-1,-13,9
1532121986079,12,-8,3,-9,-9,-1,12,12
1532121986084,-22,-15,-14,-7,-26,0,-29,-28
1532121986089,-21,-22,-2,9,23,-4,14,-1
1532121986094,22,-7,3,1,-14,5,18,24
1532121986099,12,41,35,-3,2,4,-23,-31
1532121986104,-35,-105,-99,-18,11,-1,-29,-15
1532121986109,-2,17,10,10,50,3,10,-5
1532121986114,-3,-48,-16,-13,-20,2,-13,-4
1532121986119,11,-16,15,-4,-27,-3,10,9
1532121986124,22,50,26,4,6,-2,4,-9
1532121986129,2,6,-19,-1,-7,3,21,7
1532121986134,18,33,-1,-7,2,-6,-13,5
1532121986139,1,33,-6,9,-5,1,-19,4
1532121986144,0,13,12,0,9,-1,-4,-9
1532121986149,-16,-4,-14,-8,6,6,-26,3
1532121986154,18,16,15,5,15,-3,1,3
1532121986159,-19,-14,-9,-6,-22,3,-8,4
1532121986164,4,-5,7,10,3,-6,7,0
1532121986169,1,-1,-6,-2,6,-2,9,-5
1532121986174,-3,13,5,1,23,5,-4,0
1532121986179,8,2,-4,-3,12,1,14,12
1532121986184,5,20,-12,-7,2,4,1,-10
1532121986189,26,23,-1,-6,-17,1,18,-3
1532121986194,22,4,-1,7,3,-4,17,4
1532121986199,-4,4,4,4,1,-7,3,4
1532121986204,-20,24,6,-1,-1,1,3,-9
1532121986209,-42,-38,-18,0,-1,2,6,4
1532121986214,0,24,3,-6,-20,-5,0,8
1532121986219,-28,-61,-20,-3,4,-7,-11,-3
1532121986224,-1,-15,12,2,3,-1,-21,-1
1532121986229,-33,-12,3,3,1,-2,-21,-3
1532121986234,16,25,1,-1,-24,2,-17,3
1532121986239,-4,6,-8,-2,-1,3,0,-1
1532121986244,-3,0,3,1,-4,1,12,3
1532121986249,6,2,-2,-1,-4,-8,1,1
1532121986254,-7,13,-6,-6,-12,-2,-4,-1
1532121986259,-6,16,-5,4,6,-2,-7,-2
1532121986264,1,-16,-3,-7,4,-1,6,1
1532121986269,21,17,15,4,-21,-5,4,-3
1532121986274,10,8,3,-6,21,0,-9,-6
1532121986279,3,-14,-3,-12,-12,-5,-13,-6
1532121986284,0,-3,5,5,-1,-7,-13,-6
1532121986289,-4,19,4,-6,2,-5,-4,-2
1532121986294,-17,-36,-16,2,0,-3,0,-1
1532121986299,-11,-3,-5,2,2,-4,3,-5
1532121986304,-1,4,3,3,-35,-8,9,-1
1532121986309,-3,-11,2,0,18,-5,13,8
1532121986314,-11,4,-6,4,-12,0,-20,-7
1532121986319,-3,-7,4,1,10,-1,3,-2
1532121986324,-6,2,-2,6,-1,-2,-17,-7
1532121986329,5,2,-12,-35,-28,0,-5,-1
1532121986334,7,-6,4,10,-21,-7,13,0
1532121986339,19,10,0,-21,-13,2,4,5
1532121986344,-6,8,4,-4,1,6,-7,-6
1532121986349,5,-1,6,6,-5,4,-6,1
1532121986354,-5,0,-11,-11,6,-4,-6,-5
1532121986359,6,-17,-3,-6,-5,3,-2,-5
1532121986364,36,-9,0,-5,-4,7,3,4
1532121986369,15,9,0,-4,-6,-6,-4,-1
1532121986374,11,6,3,7,-5,-2,-10,2
1532121986379,-9,16,2,6,12,7,-9,-3
1532121986384,-16,-2,-7,-10,-14,-2,-2,1
1532121986389,-20,-5,-1,9,6,-3,10,2
1532121986394,-21,12,7,1,14,5,11,-3
1532121986399,-17,-19,-12,0,13,0,9,0
1532121986404,13,3,-2,-2,1,-1,-5,-3
1532121986409,2,14,2,-4,-9,-5,-5,-5
1532121986414,-9,41,1,7,10,4,9,3
1532121986419,1,9,-3,-1,-9,-2,-9,-3
1532121986424,10,30,1,-6,11,-4,-6,-3
1532121986429,3,10,3,2,-2,4,0,0
1532121986434,5,22,0,-4,-8,-3,-4,-3
1532121986439,-3,30,-6,-1,0,-1,-1,-2
1532121986444,6,30,4,-1,6,5,0,-4
1532121986449,-20,-48,-25,-1,-9,1,-6,-3
1532121986454,5,-28,-4,-8,1,-4,-7,-4
1532121986459,-6,-1,6,5,6,-1,-2,0
1532121986464,6,2,-4,-1,-8,1,-2,-1
1532121986469,21,62,8,-5,-5,1,-4,-2
1532121986474,29,41,14,3,-3,-1,-2,0
1532121986479,-12,1,-22,-4,-2,4,0,-2
1532121986484,17,23,16,5,1,2,5,3
1532121986489,-6,6,-27,-5,-7,-2,-4,-4
1532121986494,-5,-20,-8,-3,2,2,2,0
1532121986499,3,22,3,-2,-6,2,-3,-2
1532121986504,-10,3,-6,-2,-6,-5,3,3
1532121986509,-3,19,11,-2,1,6,-1,-1
1532121986514,-9,0,2,0,3,-2,0,0
1532121986519,-4,15,1,1,2,-1,0,0
1532121986524,-5,-1,-4,-2,1,1,-2,-3
1532121986529,2,42,6,0,-5,-4,1,1
1532121986534,-8,17,4,1,2,-2,2,0
1532121986539,-5,-9,-6,-4,-3,-3,-1,-1
1532121986544,4,35,8,4,-6,0,1,0
1532121986549,-11,12,-27,-6,-1,-4,0,-4
1532121986554,-4,22,-3,-2,3,-2,5,0
1532121986559,5,1,8,1,-5,-6,4,1
1532121986564,3,-1,-4,0,2,-6,0,1
1532121986569,13,18,17,6,-2,-3,-3,3
1532121986574,-17,9,-1,3,-2,-3,-5,-3
1532121986579,-2,0,3,0,-2,-3,-3,-2
1532121986584,-4,-8,-2,-1,4,-7,-7,-3
1532121986589,2,-10,6,-1,-3,-6,-3,-2
1532121986594,4,-13,-1,1,2,-5,-2,-1
1532121986599,4,1,3,-9,-3,-5,-3,0
1532121986604,1,-20,-9,-2,-2,-3,-1,-2
1532121986609,7,-18,3,0,0,-5,1,-3
1532121986614,2,-12,-3,-3,-5,-1,-1,-2
1532121986619,2,5,6,2,-3,-4,0,0
1532121986624,-11,-23,-20,-6,-2,0,-1,-3
1532121986629,-5,-22,1,-2,-2,3,1,1
1532121986634,-1,6,-1,-1,3,-2,0,0
1532121986639,-2,10,3,1,0,0,-3,-2
1532121986644,-1,-7,-6,-6,1,4,-2,-1
1532121986649,-1,3,9,2,-1,1,-4,1
1532121986654,0,6,6,5,1,2,-5,-3
1532121986659,1,-48,-19,1,-2,4,4,0
1532121986664,5,-24,-3,-3,-4,0,-2,-1
1532121986669,2,33,0,-2,-5,-1,-7,1
1532121986674,6,18,9,-4,-6,-1,-2,-1
1532121986679,-2,33,1,3,-3,6,-3,1
1532121986684,-6,-20,-9,-5,-8,0,-1,-2
1532121986689,-13,-9,-6,-2,11,-1,13,-3
1532121986694,-7,-7,1,-1,6,5,13,0
1532121986699,-1,10,0,-1,3,-3,3,-2
1532121986704,2,0,11,1,-3,3,5,2
1532121986709,5,20,10,-1,-3,6,-4,-2
1532121986714,0,6,-1,8,9,0,2,1
1532121986719,-5,-13,-7,-7,0,-4,-4,-6
1532121986724,0,19,1,5,-1,5,-6,0
1532121986729,-4,9,-4,-8,-15,-2,-5,-5
1532121986734,4,19,4,6,5,-5,3,3
1532121986739,9,36,10,-5,-15,4,-2,1
1532121986744,-3,2,-4,10,9,2,4,-1
1532121986749,-3,-12,-15,-4,-2,-7,-3,-3
1532121986754,2,6,-4,-7,-12,0,-6,0
1532121986759,4,13,4,1,4,6,-2,-1
1532121986764,8,38,10,6,3,-3,0,3
1532121986769,-3,18,4,-2,-4,-4,-3,1
1532121986774,-5,24,6,1,14,7,-9,-4
1532121986779,-5,37,2,2,-10,-1,-1,-1
1532121986784,-5,-16,-9,-16,-1,-11,-1,-2
1532121986789,1,20,-1,-2,-1,4,1,-3
1532121986794,1,11,4,-7,0,2,1,-2
1532121986799,-3,26,8,3,0,-3,-3,-4
1532121986804,-3,5,-4,1,-8,3,3,-2
1532121986809,6,18,12,0,3,24,2,2
1532121986814,-1,28,-11,3,-11,-29,3,5
1532121986819,3,30,0,2,5,-3,-2,0
1532121986824,-4,-6,-3,-3,6,25,-3,-2
1532121986829,-6,-7,-13,-1,13,-16,-1,-2
1532121986834,5,56,8,-2,-7,-8,-3,-1
1532121986839,-2,-17,0,5,-9,21,4,-4
1532121986844,0,72,7,-6,-10,-8,-1,1
1532121986849,-3,-10,-7,2,-15,-17,-1,5
1532121986854,-5,-21,-19,-6,-13,16,-1,-5
1532121986859,4,38,-1,-3,2,6,3,9
1532121986864,2,42,3,8,5,-16,1,1
1532121986869,5,26,9,3,-6,-2,-3,-9
1532121986874,5,16,11,-3,-7,17,1,4
1532121986879,-2,-22,-12,-3,6,-10,-3,-6
1532121986884,0,-29,-1,-4,-12,-8,-6,1
1532121986889,1,68,5,13,4,10,3,0
1532121986894,-6,-72,-17,-10,1,5,-2,-5
1532121986899,-9,-8,-6,-7,-5,-8,-4,-4
1532121986904,-1,6,9,2,9,-4,2,-1
1532121986909,-3,-24,-3,-7,-2,6,-5,-4
1532121986914,8,62,20,10,12,-6,2,2
1532121986919,-3,8,-1,4,14,-6,1,1
1532121986924,-8,-30,-17,-14,17,9,-7,-9
1532121986929,8,59,10,10,-40,-5,6,5
1532121986934,0,-16,-2,-3,4,-6,3,1
1532121986939,2,-3,8,-6,-10,-1,-1,1
1532121986944,12,42,26,13,1,-4,5,6
1532121986949,-21,-110,-51,-15,15,-7,-10,-28
1532121986954,1,3,5,2,-5,-2,4,28
1532121986959,7,-19,-12,-2,-7,-1,3,5
1532121986964,0,7,11,1,-1,-6,2,0
1532121986969,5,9,2,-4,6,0,8,8
1532121986974,2,11,21,8,4,-2,-2,-10
1532121986979,-11,-59,-24,2,2,-7,-1,-6
1532121986984,-2,-18,-9,-2,-7,-7,2,2
1532121986989,5,-2,24,-2,-7,2,-4,7
1532121986994,4,78,1,-8,6,0,-1,-10
1532121986999,-12,-70,-14,-8,-10,-4,-5,-4
1532121987004,-3,-20,-11,4,5,-1,10,4
1532121987009,5,69,20,9,-29,5,3,1
1532121987014,-18,-49,-19,-14,8,3,-12,-11
1532121987019,6,95,20,-8,0,-1,-2,-4
1532121987024,-6,-23,-3,-1,-14,0,-9,-10
1532121987029,-32,-87,-28,-26,-11,-3,-6,-7
1532121987034,-12,22,-44,-34,-30,-3,-12,-4
1532121987039,-9,-51,-15,-3,-3,4,-7,-5
1532121987044,16,73,27,11,3,-3,-2,2
1532121987049,-3,3,12,26,12,-1,1,-6
1532121987054,2,21,-16,-48,8,5,1,-4
1532121987059,-7,-54,-8,12,-29,-1,1,4
1532121987064,35,-34,-25,-1,10,-4,2,1
1532121987069,34,84,58,24,4,-2,-2,14
1532121987074,10,-20,25,18,-8,2,-3,1
1532121987079,-4,53,-25,-48,-33,-1,6,-1
1532121987084,-28,35,0,1,-6,4,-3,1
1532121987089,-27,-49,-39,-10,10,3,0,-6
1532121987094,-1,28,12,25,-8,-2,5,2
1532121987099,-11,-4,32,14,17,5,11,4
1532121987104,-23,-60,-28,-24,-17,-2,-13,-12
1532121987109,4,54,8,-13,-3,0,-6,-4
1532121987114,44,27,63,39,22,-2,10,-1
1532121987119,-36,78,-13,8,23,1,7,1
1532121987124,-32,-86,-68,-9,-32,1,6,-12
1532121987129,-12,4,-52,-38,31,1,4,-6
1532121987134,-5,-15,17,13,-14,-2,-3,6
1532121987139,30,26,3,-40,-38,-2,-5,0
1532121987144,40,37,66,56,11,1,8,12
1532121987149,-52,-6,-28,-20,10,-1,-1,-19
1532121987154,16,-37,1,30,23,2,-12,12
1532121987159,-1,21,3,1,14,-1,2,-7
1532121987164,-7,21,3,-49,-21,0,-1,-3
1532121987169,18,7,-64,-48,-11,0,-2,-1
1532121987174,-1,81,57,0,-9,-2,5,2
1532121987179,1,-56,-24,-7,15,-1,-6,-5
1532121987184,-11,67,28,42,-3,3,1,-10
1532121987189,31,-13,12,19,6,0,13,10
1532121987194,-51,12,-6,-11,4,-4,-4,-13
1532121987199,17,72,27,52,27,-3,-12,13
1532121987204,-17,-8,-42,-31,-9,-1,-13,-5
1532121987209,18,9,19,5,0,-5,-5,3
1532121987214,6,65,-11,-6,-3,1,16,-1
1532121987219,-26,-98,-18,-6,11,-2,4,-13
1532121987224,1,-35,-14,-2,1,-2,6,-20
1532121987229,0,50,92,75,-9,-3,3,-8
1532121987234,15,-30,-70,-60,-22,0,4,0
1532121987239,23,-19,2,-37,-3,-3,0,6
1532121987244,-6,76,20,-3,16,3,-6,8
1532121987249,12,10,56,43,-12,-1,-10,2
1532121987254,-23,27,0,54,18,0,9,-3
1532121987259,-12,-43,-15,-21,-11,0,7,-8
1532121987264,-10,-54,-71,-75,-20,-3,-1,1
1532121987269,11,12,1,-34,-25,-2,5,3
1532121987274,1,-3,2,2,10,-3,-9,-11
1532121987279,42,20,69,49,5,-7,-12,2
1532121987284,-71,-59,-47,29,23,-5,-31,-15
1532121987289,8,71,0,3,8,-5,-27,16
1532121987294,-1,-120,-20,-8,9,-7,-35,-11
1532121987299,-8,-62,-12,-7,-10,-6,-3,8
1532121987304,20,-12,27,-8,11,-8,19,5
1532121987309,-3,-27,-5,21,9,-8,10,-6
1532121987314,-4,-17,-15,12,-19,-2,-2,-5
1532121987319,0,18,40,36,-14,-2,10,-5
1532121987324,29,-34,-8,-51,-45,-4,-4,-2
1532121987329,-16,-35,-25,-24,-5,-1,-2,1
1532121987334,-10,-37,-40,2,-30,-2,2,-5
1532121987339,28,1,-6,8,1,0,-3,-2
1532121987344,-34,-34,-1,32,19,1,-1,-11
1532121987349,-15,-51,-29,-41,1,-2,-1,-19
1532121987354,10,-19,44,14,12,-2,-1,6
1532121987359,-18,11,-60,-43,-8,-2,-3,10
1532121987364,26,11,27,4,18,4,3,12
1532121987369,21,33,20,20,2,5,5,14
1532121987374,-12,-45,7,11,17,-3,4,6
1532121987379,-16,25,5,17,13,0,6,4
1532121987384,38,40,40,0,-22,0,10,14
1532121987389,-14,68,-8,-10,11,4,2,6
1532121987394,12,51,-34,-5,-8,-2,3,11
1532121987399,16,66,55,7,-2,2,0,4
1532121987404,-72,-101,-72,15,13,1,-9,-15
1532121987409,-3,-76,5,-27,-21,1,-11,-2
1532121987414,-2,0,-34,-75,-10,1,14,2
1532121987419,9,32,-2,14,2,6,0,-2
1532121987424,27,62,41,17,10,-3,1,5
1532121987429,-10,-3,16,47,-16,-2,3,2
1532121987434,25,-34,12,2,18,10,-1,0
1532121987439,-17,3,-70,-17,15,3,1,3
1532121987444,10,15,7,-49,8,-1,0,-4
1532121987449,3,-73,5,21,29,-2,2,4
1532121987454,-11,51,32,-23,-33,2,-1,1
1532121987459,-33,-70,-62,-23,7,-3,-1,-11
1532121987464,16,8,19,29,20,-2,0,8
1532121987469,-11,33,5,-23,14,3,-1,-11
1532121987474,21,-18,44,62,-6,2,1,0
1532121987479,1,36,-10,-50,-37,-1,-1,-12
1532121987484,-12,-15,-17,-63,-34,-3,2,-10
1532121987489,7,-33,26,2,-11,2,1,5
1532121987494,33,59,31,12,9,2,3,10
1532121987499,-73,-86,-104,-8,20,-5,-8,-2
1532121987504,10,15,4,74,52,-2,-3,6
1532121987509,7,50,37,-16,6,-5,-3,0
1532121987514,-9,12,-45,-41,-18,-5,-9,-8
1532121987519,-6,32,22,14,1,-102,-1,2
1532121987524,2,-6,6,7,9,-73,4,-1
1532121987529,10,-2,-8,15,8,-49,-7,-5
1532121987534,14,37,27,28,2,-96,10,12
1532121987539,18,3,9,25,-12,-95,6,13
1532121987544,-11,32,7,-79,-36,-35,4,12
1532121987549,-4,-1,-16,-5,-34,60,-6,33
1532121987554,-4,-83,-45,-19,-17,32,-8,32
1532121987559,23,21,-5,-14,-7,68,3,24
1532121987564,32,18,30,55,19,64,0,-12
1532121987569,-17,-29,90,37,10,86,1,-32
1532121987574,3,-61,-109,-61,-22,82,-2,-56
1532121987579,-31,-51,-9,-4,16,71,-5,-44
1532121987584,10,60,0,-25,-5,77,11,-39
1532121987589,0,-29,-18,-8,14,35,-1,-24
1532121987594,-32,-3,39,43,23,21,7,3
1532121987599,31,18,52,23,12,47,2,6
1532121987604,8,41,-16,15,10,38,-7,0
1532121987609,2,1,15,72,23,-16,3,-2
1532121987614,12,-16,-39,-61,-30,4,-6,-1
1532121987619,-2,8,-20,24,-4,38,0,-3
1532121987624,-28,-87,-24,-71,-5,5,-5,-9
1532121987629,19,35,32,32,6,-22,-2,-5
1532121987634,4,77,82,116,28,11,1,6
1532121987639,13,68,13,-57,-24,18,-1,-5
1532121987644,33,-64,-35,-13,-25,0,-21,-16
1532121987649,-95,-63,-40,-47,-22,94,12,5
1532121987654,48,60,11,12,9,106,-4,-2
1532121987659,-32,-38,-25,-2,10,127,-8,-26
1532121987664,3,-29,41,58,15,121,8,16
1532121987669,-9,-48,-42,-59,-25,118,-11,-19
1532121987674,6,-52,-21,-9,-5,1,15,11
1532121987679,21,96,76,45,21,-102,25,13
1532121987684,-31,-109,-105,-86,-16,-124,0,3
1532121987689,25,19,0,10,2,-128,8,4
1532121987694,-8,16,62,29,6,-103,-7,2
1532121987699,-3,-38,-40,-18,3,-90,-10,-4
1532121987704,0,82,45,69,3,-45,7,22
1532121987709,21,60,31,-4,10,-128,-10,5
1532121987714,-19,13,-18,-46,-7,-126,6,-8
1532121987719,-26,-74,-25,0,-6,-114,6,-8
1532121987724,-2,42,36,15,0,-123,4,0
1532121987729,15,20,-20,12,6,-91,5,7
1532121987734,-6,6,8,2,10,12,-2,-1
1532121987739,27,25,44,2,-8,88,-2,4
1532121987744,-28,13,-60,5,2,127,-13,2
1532121987749,-24,-53,-12,-3,-1,108,-17,-6
1532121987754,3,37,20,-15,3,86,-4,-9
1532121987759,-10,-85,-28,-4,-12,89,-8,0
1532121987764,13,-16,-3,-23,-3,73,-4,-5
1532121987769,5,8,-1,10,6,61,-1,2
1532121987774,-1,-14,22,36,-2,47,-1,-5
1532121987779,4,18,-12,-48,-16,37,-8,7
1532121987784,10,15,40,4,-7,2,-13,-1
1532121987789,26,47,-7,2,2,-9,-1,7
1532121987794,-44,-87,-76,-7,-1,-4,-18,-13
1532121987799,21,56,9,-3,6,-6,2,0
1532121987804,-15,8,21,28,13,-4,18,-3
1532121987809,-4,17,5,-17,-7,89,6,6
1532121987814,5,-58,-1,-20,-6,101,17,-2
1532121987819,-16,11,-33,8,-7,69,3,-7
1532121987824,-19,-72,-31,-23,-10,14,1,-7
1532121987829,42,-9,8,14,3,-29,-4,4
1532121987834,0,39,30,28,8,-106,4,3
1532121987839,10,17,2,-24,-5,-94,-1,7
1532121987844,10,28,6,-9,6,-80,1,5
1532121987849,-7,27,0,-2,-2,-53,3,0
1532121987854,-13,-7,-19,-27,-15,-30,-4,0
1532121987859,11,2,25,36,21,14,6,3
1532121987864,31,23,-8,-6,-7,83,11,16
1532121987869,-19,-57,-26,-32,4,68,-2,-8
1532121987874,1,35,13,-7,0,120,16,12
1532121987879,-6,-87,0,2,-2,116,2,44
1532121987884,-5,-13,2,11,4,113,-6,27
1532121987889,-10,75,58,28,-1,126,-5,14
1532121987894,14,-81,-22,-7,-3,50,-7,-9
1532121987899,-21,-3,-33,-32,-7,-34,3,-21
1532121987904,38,3,19,6,-8,-98,-2,-25
1532121987909,20,18,8,-6,-9,-128,-6,-14
1532121987914,8,16,19,21,9,-128,-8,-23
1532121987919,25,79,35,40,22,-117,8,-12
1532121987924,-41,-43,-9,-20,-5,-77,-6,-17
1532121987929,17,50,2,-6,-11,10,9,0
1532121987934,-25,-89,-71,-48,-7,119,-5,-2
1532121987939,-19,45,30,10,-9,127,-1,-15
1532121987944,-1,64,73,45,17,60,6,-5
1532121987949,14,-72,-34,-8,3,-33,4,3
1532121987954,5,15,-29,-5,-14,-65,-3,4
1532121987959,-45,91,2,-72,-12,-55,1,2
1532121987964,-65,-111,-61,-21,-16,-55,-27,-28
1532121987969,36,58,35,10,4,-42,-8,-2
1532121987974,-3,-17,25,23,18,-39,4,-8
1532121987979,44,-22,0,37,5,-35,-7,-9
1532121987984,-5,81,24,10,8,-29,-2,22
1532121987989,-12,-94,-32,-19,-10,-28,-6,4
1532121987994,-38,76,56,-8,-6,-22,0,5
1532121987999,13,-128,-87,-8,-17,-33,-13,-11
1532121988004,17,24,19,16,15,-18,12,-4
1532121988009,28,78,28,26,2,-120,7,-3
1532121988014,-29,20,17,14,6,-128,4,13
1532121988019,4,-46,-16,-45,-22,-108,-4,0
1532121988024,47,-10,-41,-28,-17,27,-10,3
1532121988029,30,63,81,20,2,121,17,17
1532121988034,-28,-72,-83,-25,0,127,-4,-38
1532121988039,-50,49,12,16,16,127,-4,2
1532121988044,-31,-40,-1,10,-1,116,-15,-15
1532121988049,30,-33,-33,-35,-12,104,-3,1
1532121988054,82,11,59,26,8,42,-1,27
1532121988059,-67,-4,-31,8,8,-2,4,-15
1532121988064,-21,-89,-43,-25,3,-61,-10,-11
1532121988069,35,73,37,15,11,-71,-18,8
1532121988074,-42,-41,-8,-11,5,-69,4,4
1532121988079,3,-29,6,-8,0,-53,-33,-23
1532121988084,110,118,63,33,-17,-55,21,59
1532121988089,-102,-78,-76,-24,3,-51,-5,-38
1532121988094,93,29,-7,-8,-11,-31,-5,6
1532121988099,-47,22,30,11,7,-18,4,-3
1532121988104,59,127,71,42,28,-26,2,-8
1532121988109,-50,-128,-57,-16,-7,-12,-4,4
1532121988114,-75,127,41,0,0,-18,1,2
1532121988119,100,-90,-31,3,-10,-4,-4,-1
1532121988124,-10,-6,-10,3,10,-4,9,-6
1532121988129,15,30,-25,5,2,-2,15,8
1532121988134,69,-1,33,10,21,-3,12,5
1532121988139,-20,91,9,5,7,4,21,11
1532121988144,-71,-95,-31,-3,10,0,-2,-30
1532121988149,85,63,63,7,-7,-5,13,26
