1532122269528,1,-3,-2,-5,29,1,-1,2
1532122269533,-2,1,-5,4,-3,0,3,-1
1532122269538,-3,-6,-3,-20,-6,7,-3,1
1532122269543,0,-1,-4,-17,-10,2,-2,-8
1532122269548,-1,-1,3,30,-5,14,-1,5
1532122269553,0,-5,-4,-14,-1,-3,0,0
1532122269558,-2,-3,-5,-23,-16,3,4,6
1532122269563,-1,-3,-2,12,34,-5,-4,-14
1532122269568,0,2,-1,-26,-4,10,-6,3
1532122269573,0,2,4,17,3,4,1,-1
1532122269578,0,-1,-4,-3,16,5,-4,-2
1532122269583,1,6,-5,-16,-47,12,1,5
1532122269588,-3,-3,1,4,22,5,4,-1
1532122269593,-2,-4,2,23,17,6,-4,-3
1532122269598,-2,-3,-3,-3,1,-2,0,-2
1532122269603,-1,1,-3,-30,-25,3,-2,-5
1532122269608,2,0,-3,14,-16,1,-2,-2
1532122269613,0,-1,4,33,37,11,2,2
1532122269618,-2,-4,-3,-22,-4,-22,-2,-5
1532122269623,0,2,-2,-9,-20,-7,-1,-1
1532122269628,0,-1,1,-3,11,1,1,3
1532122269633,0,-5,0,13,-5,-7,-2,0
1532122269638,0,-3,-3,-4,16,-7,-1,-2
1532122269643,-1,-5,-8,-11,15,-9,-3,-2
1532122269648,-1,-3,-6,-25,-31,-23,0,0
1532122269653,0,3,4,43,-1,-3,1,3
1532122269658,2,2,0,-9,-15,7,-1,0
1532122269663,-2,-2,3,9,5,2,-2,0
1532122269668,-2,1,-1,-9,-2,12,0,-1
1532122269673,-1,-5,-5,-14,20,13,-2,-3
1532122269678,1,-1,0,10,-21,9,-1,0
1532122269683,2,1,1,-4,-3,10,2,3
1532122269688,-2,-3,-4,-13,-9,19,-2,-3
1532122269693,-1,3,5,21,17,7,0,-1
1532122269698,-1,-2,-1,6,-4,12,-2,-2
1532122269703,-1,1,0,-7,-7,-1,1,0
1532122269708,-1,0,4,5,6,14,1,-1
1532122269713,-1,0,-2,-7,-20,2,1,0
1532122269718,-3,-3,-2,-10,8,1,-2,1
1532122269723,-1,0,-2,10,-11,6,-1,2
1532122269728,1,-5,-2,5,-4,7,-1,1
1532122269733,0,-3,-3,-21,1,-1,0,-2
1532122269738,-2,0,1,-4,8,8,1,-2
1532122269743,0,-1,-1,-7,3,-3,-1,-5
1532122269748,-2,-1,1,16,-2,-2,-1,2
1532122269753,0,0,-2,-23,-4,2,0,1
1532122269758,1,0,-3,-4,13,-6,0,-3
1532122269763,-1,0,6,5,-10,6,-1,0
1532122269768,-1,3,-6,-5,-6,-2,0,-2
1532122269773,-2,-3,-8,-4,-1,-15,0,1
1532122269778,0,-2,-1,-23,-10,-9,-1,4
1532122269783,-1,-2,3,2,-2,0,2,4
1532122269788,0,-1,2,7,9,-3,0,0
1532122269793,0,-1,-6,-12,-1,11,-2,-2
1532122269798,-3,1,3,6,-1,8,-1,-3
1532122269803,-1,-4,-7,5,12,9,0,-2
1532122269808,-2,-1,1,1,5,14,0,-1
1532122269813,0,-2,-3,-10,-5,-1,3,2
1532122269818,1,1,5,14,-2,8,-3,26
1532122269823,0,0,2,3,9,3,-1,14
1532122269828,0,3,-1,-9,-6,-15,-1,2
1532122269833,-2,-4,-4,-3,-12,-9,-3,-9
1532122269838,-1,0,-2,14,9,-1,3,-16
1532122269843,-1,-9,-6,-11,-7,-11,-7,-11
1532122269848,-2,0,2,2,-7,-18,2,-6
1532122269853,0,1,4,5,-2,-10,-3,-8
1532122269858,-1,0,-2,3,-16,-13,-1,-6
1532122269863,-2,1,-4,-4,-10,-35,1,-2
1532122269868,-1,-5,-2,-1,-3,-20,-5,6
1532122269873,0,3,1,-1,6,-2,-1,-13
1532122269878,-1,-1,3,0,9,-4,1,-2
1532122269883,0,1,1,0,2,7,0,-5
1532122269888,2,3,10,6,3,5,-1,-3
1532122269893,-2,2,-10,-8,-8,-19,0,5
1532122269898,-1,-8,-7,-8,-9,-2,-4,-5
1532122269903,1,0,-1,2,0,0,2,-3
1532122269908,-1,-4,-4,0,-1,5,-1,1
1532122269913,2,-3,7,6,3,13,-2,7
1532122269918,1,2,0,-7,-4,10,-8,2
1532122269923,0,3,0,-5,0,3,-4,2
1532122269928,0,2,-3,0,-2,-2,1,-2
1532122269933,-1,1,-11,-3,0,6,3,3
1532122269938,-4,-4,-5,-6,-4,3,4,12
1532122269943,1,-1,4,7,3,9,2,6
1532122269948,0,3,3,-2,-2,7,4,0
1532122269953,-4,-5,-1,7,-3,0,2,-7
1532122269958,0,-2,0,-5,-2,3,0,-11
1532122269963,-2,0,-2,-11,-1,-1,-3,-9
1532122269968,-1,-2,-2,6,-1,-3,-4,-8
1532122269973,1,0,3,-2,3,-4,0,2
1532122269978,0,1,-2,-3,-2,-4,-1,-4
1532122269983,1,8,4,2,-1,11,1,-2
1532122269988,-4,-11,-6,-1,-2,-4,1,-3
1532122269993,-2,-4,-3,-2,-4,6,-2,1
1532122269998,-3,-4,-2,-4,-3,10,4,3
1532122270003,-3,-2,-2,-4,1,1,-2,-12
1532122270008,1,4,4,3,0,6,2,4
1532122270013,-1,-1,2,4,3,9,0,0
1532122270018,-1,-3,-3,-6,-2,-2,-3,-3
1532122270023,-1,2,2,6,1,-3,-1,2
1532122270028,3,3,4,3,5,5,-1,-4
1532122270033,-1,-3,-3,-1,2,6,0,1
1532122270038,1,0,-1,-5,-1,-2,-2,0
1532122270043,-1,0,1,-7,-4,-1,1,-2
1532122270048,-1,1,-3,-3,-9,1,-3,-3
1532122270053,-1,-3,-1,8,0,2,0,3
1532122270058,0,-1,-1,-2,2,12,-1,0
1532122270063,1,3,-2,0,-1,4,-2,0
1532122270068,0,0,4,-7,-10,-6,0,-2
1532122270073,-1,3,-1,-12,-5,-10,-3,-2
1532122270078,-2,-5,-2,3,1,7,2,-1
1532122270083,-1,-4,-1,0,3,-5,4,7
1532122270088,1,-3,-1,2,4,3,-10,-8
1532122270093,-1,-2,-3,-1,-5,-7,0,-8
1532122270098,1,5,0,1,-1,-4,-3,6
1532122270103,-2,-2,2,3,-4,-5,-3,8
1532122270108,-4,-3,-4,-4,0,-5,3,-7
1532122270113,0,-3,-2,3,5,1,-2,-1
1532122270118,1,2,1,1,-6,-1,0,0
1532122270123,-1,-1,-3,-4,-10,3,-4,-5
1532122270128,-3,-1,0,4,15,-11,1,2
1532122270133,6,15,0,-1,-12,8,-1,5
1532122270138,-7,-16,-7,-2,0,-1,-4,-4
1532122270143,-7,6,-4,1,7,7,0,0
1532122270148,5,-9,5,1,-22,5,2,12
1532122270153,-7,-18,-2,14,17,1,0,-12
1532122270158,2,5,1,-6,1,4,2,1
1532122270163,0,-2,-2,-6,-6,-1,-3,-5
1532122270168,-2,3,-2,1,2,-2,-6,1
1532122270173,1,2,1,-10,-2,-7,0,4
1532122270178,-1,8,-2,-5,-11,-6,-3,-3
1532122270183,3,-2,5,10,11,-3,2,1
1532122270188,-1,-9,-1,3,2,-5,-2,0
1532122270193,-4,-9,-2,0,0,-5,-2,6
1532122270198,-4,-5,-7,-9,-5,0,-3,-5
1532122270203,2,9,-2,-3,0,-7,-1,-4
1532122270208,0,5,1,2,4,0,-1,-1
1532122270213,-1,0,2,4,-5,-6,-2,2
1532122270218,-1,3,3,6,6,-7,3,1
1532122270223,-1,-6,-5,-9,-7,-12,0,20
1532122270228,0,1,-1,-5,2,-1,1,-15
1532122270233,-2,-3,-1,-7,-4,-7,-5,-2
1532122270238,1,2,2,0,-3,-4,-1,-4
1532122270243,1,-3,-2,3,-1,-1,-1,3
1532122270248,0,-2,-6,-7,1,-8,2,0
1532122270253,1,4,0,-4,-3,-3,4,5
1532122270258,0,0,2,7,1,-6,2,1
1532122270263,0,-5,3,-2,-2,1,-4,-14
1532122270268,-4,4,-3,-6,0,-1,-3,1
1532122270273,-1,7,1,12,5,9,0,-3
1532122270278,1,-9,-4,2,7,-1,-4,3
1532122270283,-1,-4,0,-7,-4,4,-1,-7
1532122270288,-1,3,3,3,-3,10,2,2
1532122270293,0,3,0,-13,-4,0,-1,1
1532122270298,-1,-4,2,19,2,2,2,-2
1532122270303,-2,2,-4,-2,-2,-1,-2,-3
1532122270308,0,-7,-10,-5,-4,3,-2,0
1532122270313,-1,2,3,-1,-2,2,-2,5
1532122270318,-3,-7,0,-2,1,10,-5,-11
1532122270323,0,0,3,0,0,0,-3,-6
1532122270328,-1,3,4,5,-4,1,-2,-1
1532122270333,-1,-2,-4,-4,-4,3,1,2
1532122270338,1,3,-7,-5,-4,-3,-1,0
1532122270343,-1,-6,0,-5,-5,-1,-1,-1
1532122270348,-1,2,1,11,11,1,1,1
1532122270353,1,-4,-1,-12,-12,-1,-2,-2
1532122270358,-1,-2,0,2,4,3,0,1
1532122270363,-2,2,0,-3,-2,-1,-1,-4
1532122270368,-2,1,-2,-3,-5,1,-2,0
1532122270373,1,-5,-1,-2,7,-1,0,-5
1532122270378,-1,-2,-5,-18,-14,3,-3,-2
1532122270383,1,4,8,39,23,6,2,3
1532122270388,0,7,2,-6,-2,3,2,-1
1532122270393,-3,-7,-4,2,0,3,0,-1
1532122270398,1,2,-3,-11,-6,-6,-1,2
1532122270403,0,-6,-2,-12,-6,-5,2,-3
1532122270408,-1,-3,2,8,3,-1,-6,2
1532122270413,-1,2,-1,5,-2,2,-1,-2
1532122270418,1,0,0,2,5,-7,3,14
1532122270423,-1,2,-3,-6,-9,14,-2,-17
1532122270428,-1,-1,-5,-8,-3,1,0,-2
1532122270433,-1,-4,-7,-6,-4,0,-5,-1
1532122270438,1,3,6,9,5,-2,-1,0
1532122270443,0,0,-3,-2,0,-3,-1,6
1532122270448,-1,-4,-1,-5,-1,1,0,0
1532122270453,-1,3,2,0,-1,4,0,-1
1532122270458,-2,1,-1,2,2,0,-1,-3
1532122270463,-1,-8,-1,-2,-2,-4,-1,1
1532122270468,0,0,-2,-2,-3,0,-1,-3
1532122270473,1,-9,-3,0,-2,-10,1,3
1532122270478,-3,2,-1,-3,-4,-1,-6,-8
1532122270483,-1,1,-3,-9,-1,1,1,2
1532122270488,0,3,2,8,0,0,-1,3
1532122270493,-1,1,4,1,5,0,0,-2
1532122270498,2,-1,-6,-13,-10,2,-3,0
1532122270503,-2,1,1,19,9,1,-5,-1
1532122270508,-4,-1,-2,-5,-5,-3,0,-5
1532122270513,1,0,-1,-6,-4,6,3,3
1532122270518,0,-3,-2,2,3,1,-5,1
1532122270523,0,-2,1,-3,-2,-1,0,3
1532122270528,-2,1,0,0,1,1,0,0
1532122270533,-3,6,1,-1,0,-3,-1,-2
1532122270538,0,1,-1,3,4,1,3,0
1532122270543,-1,-11,-4,-6,-8,2,-1,0
1532122270548,1,-3,-5,0,3,-7,-2,-4
1532122270553,-3,-3,-4,-7,-5,0,-2,-3
1532122270558,3,4,2,4,0,-1,1,-2
1532122270563,3,13,1,1,0,-6,-2,9
1532122270568,-1,-16,-1,-7,-4,0,3,-12
1532122270573,-1,2,-2,12,9,-2,-6,-3
1532122270578,-2,-3,-2,-13,-11,-3,1,-3
1532122270583,0,1,2,8,7,-4,1,-2
1532122270588,0,1,-2,-2,-2,-8,-1,6
1532122270593,-1,-3,-1,-1,-3,-12,0,-2
1532122270598,-2,-2,-3,7,5,-1,0,-6
1532122270603,0,-1,1,-7,-5,-3,0,-1
1532122270608,1,6,3,0,-5,-5,-1,1
1532122270613,-1,-4,-2,2,0,-7,-2,-3
1532122270618,-4,-3,-1,3,-1,1,-1,2
1532122270623,-2,0,-1,-4,-3,-9,0,-3
1532122270628,0,-1,-2,-5,3,-5,0,0
1532122270633,0,3,3,11,-5,-4,1,0
1532122270638,2,-2,-2,-5,0,-3,-4,-1
1532122270643,0,12,-4,-6,-4,1,-1,-2
1532122270648,-1,-7,2,-2,-3,0,0,-2
1532122270653,-2,-3,3,-3,3,5,5,5
1532122270658,-3,-3,-6,2,0,-2,1,-6
1532122270663,-1,-7,-5,-4,-4,8,-4,-3
1532122270668,-1,6,0,-8,0,3,-2,-1
1532122270673,-1,0,4,7,4,5,-1,-3
1532122270678,-1,-1,2,-4,-3,3,2,2
1532122270683,-1,-2,-2,1,-5,1,-1,-1
1532122270688,-1,-3,-3,1,-2,4,-2,0
1532122270693,0,-1,-1,-5,1,8,-2,0
1532122270698,-2,3,2,-2,-3,-1,0,-2
1532122270703,1,-3,-2,-3,1,2,0,0
1532122270708,0,-1,2,0,2,5,-1,-1
1532122270713,-2,-2,0,0,-2,5,0,0
1532122270718,-2,1,1,-2,2,2,-1,2
1532122270723,0,-1,-2,-3,1,-2,0,-3
1532122270728,-3,-3,-3,2,-2,2,-2,-3
1532122270733,-1,2,-5,-7,-1,-1,-2,-4
1532122270738,-1,-3,1,-3,-4,5,-1,-5
1532122270743,-2,-3,3,8,1,0,1,4
1532122270748,0,2,0,-5,2,-1,-1,3
1532122270753,-3,-5,-3,1,-8,0,-3,-5
1532122270758,0,-4,-1,0,-1,-2,-2,-1
1532122270763,0,1,3,-1,-4,2,0,1
1532122270768,-1,0,1,0,4,2,0,3
1532122270773,-2,-1,-1,-9,-11,2,-6,-5
1532122270778,-1,1,-1,7,-1,5,3,0
1532122270783,1,0,-3,-5,-2,-2,-5,-6
1532122270788,0,2,2,-1,-1,-1,2,1
1532122270793,-1,-4,-2,-11,-4,1,1,2
1532122270798,0,0,-1,15,0,0,0,-1
1532122270803,-1,-3,-4,-1,5,0,-2,1
1532122270808,-1,-2,-1,-6,-3,-5,-3,-3
1532122270813,0,-2,0,-4,0,3,0,-2
1532122270818,0,2,2,-5,0,2,3,-1
1532122270823,1,0,-2,-2,-6,-2,-3,-2
1532122270828,-2,-1,-2,3,-4,-1,1,-5
1532122270833,0,-1,4,8,8,3,-4,4
1532122270838,0,-2,-2,-6,-2,-2,0,-2
1532122270843,0,0,-1,10,-1,-4,0,1
1532122270848,-1,-4,-3,-6,-10,-6,-1,8
1532122270853,0,1,-3,-5,-2,0,-1,-16
1532122270858,-3,-1,4,1,3,-3,-1,-5
1532122270863,1,0,-1,-2,4,4,3,7
1532122270868,-4,-4,-5,-5,-4,11,-3,-3
1532122270873,1,1,0,-2,3,-4,1,4
1532122270878,-1,-3,-3,1,-1,0,-2,-1
1532122270883,1,0,2,-3,2,0,1,-1
1532122270888,-1,3,2,1,-3,-2,1,0
1532122270893,-2,-4,-1,6,2,-1,-4,1
1532122270898,-1,0,-2,-2,-4,-3,0,-1
1532122270903,0,0,2,-2,7,-2,-1,0
1532122270908,0,1,-2,-10,-12,-7,-1,-5
1532122270913,0,0,0,-3,0,-6,0,9
1532122270918,0,4,-3,6,-4,-6,-5,-6
1532122270923,-2,-3,1,3,0,-1,0,-4
1532122270928,-1,1,5,13,4,-2,-2,-6
1532122270933,0,-3,-6,-10,-3,-8,1,2
1532122270938,0,-4,-3,-5,-3,-3,-1,3
1532122270943,1,4,1,2,3,-11,-2,0
1532122270948,1,2,5,6,-5,-7,-3,1
1532122270953,0,0,1,0,-4,-7,-1,-1
1532122270958,-2,-5,-6,-6,-3,-6,1,3
1532122270963,-3,-4,-3,-7,-3,-5,-3,-6
1532122270968,1,-2,-3,-1,12,2,-2,0
1532122270973,-1,-1,1,3,-15,2,0,1
1532122270978,0,1,0,5,5,2,0,0
1532122270983,-1,0,-2,-2,-5,1,-1,-2
1532122270988,0,-2,-3,-1,3,3,1,-3
1532122270993,-1,-1,-4,-5,-1,7,-2,-2
1532122270998,0,2,5,-1,-3,3,0,3
1532122271003,-2,-1,1,3,1,6,0,-1
1532122271008,-4,-4,-7,-2,1,-2,-1,11
1532122271013,-1,2,-1,-4,1,2,0,-26
1532122271018,0,-3,-2,-4,-5,3,-2,5
1532122271023,2,1,1,11,4,4,0,-3
1532122271028,-2,0,1,-2,2,3,-2,-2
1532122271033,0,-2,0,-2,0,-4,-2,5
1532122271038,-1,0,-1,1,1,7,2,-1
1532122271043,-2,-3,-3,-2,-3,2,4,-2
1532122271048,-1,2,-3,-2,-3,-4,-6,-2
1532122271053,-1,-4,0,1,3,4,-1,5
1532122271058,0,0,0,-7,4,1,1,-3
1532122271063,-2,-3,0,3,-6,5,-3,4
1532122271068,-2,-2,-2,-1,1,-1,2,-4
1532122271073,0,3,4,1,1,0,-1,2
1532122271078,0,-1,-8,-3,1,-2,-1,-2
1532122271083,-3,-5,-3,-6,-1,0,1,-3
1532122271088,0,2,-1,-1,-1,4,-1,-1
1532122271093,-2,-1,0,-14,-10,2,1,-1
1532122271098,0,1,5,10,2,1,1,11
1532122271103,0,1,0,-4,0,-2,-3,-12
1532122271108,0,-4,-2,-3,-1,0,1,-11
1532122271113,-3,-1,-3,0,0,5,-1,-2
1532122271118,-1,-1,1,3,-2,2,-3,1
1532122271123,1,1,-2,-8,-3,2,-2,4
1532122271128,-2,-3,-1,3,-6,2,0,-1
1532122271133,0,-1,0,2,5,-2,2,1
1532122271138,-1,-2,-2,-5,-2,5,-1,-2
1532122271143,2,-3,-2,8,0,6,-5,1
1532122271148,0,3,2,-8,0,6,0,0
1532122271153,-1,-1,-3,4,-3,1,-1,3
1532122271158,-2,-1,-1,-5,-3,0,-2,-4
1532122271163,-3,-3,-3,-2,2,2,2,-2
1532122271168,1,0,3,6,3,-1,-2,1
1532122271173,-1,-1,-1,-1,0,-3,-2,1
1532122271178,-1,2,4,5,6,4,-2,0
1532122271183,0,0,-2,-3,-3,-1,1,-2
1532122271188,0,-2,-2,-2,-1,0,-1,-7
1532122271193,-1,-1,0,-3,-2,5,-1,10
1532122271198,-1,-1,0,-7,-6,-3,-5,-10
1532122271203,-3,0,-3,7,-1,1,0,6
1532122271208,0,-3,-5,-3,-1,0,0,2
1532122271213,-1,-1,0,-2,4,1,-1,-5
1532122271218,2,1,0,-8,-11,-4,2,2
1532122271223,-1,0,1,2,4,-2,-3,0
1532122271228,-3,-4,-2,4,4,0,1,-4
1532122271233,-1,-2,-2,1,-1,2,-1,-1
1532122271238,-2,-2,1,2,-1,-4,-5,-2
1532122271243,0,-2,-2,-5,-8,-9,-2,-3
1532122271248,1,1,-2,-10,1,3,-2,2
1532122271253,-2,1,1,-2,-9,-4,-1,-2
1532122271258,-2,-1,-3,3,6,5,0,-1
1532122271263,-1,3,2,-6,-6,-8,4,-1
1532122271268,0,-3,-4,8,1,-5,-7,2
1532122271273,0,1,-2,-1,0,-9,-2,0
1532122271278,2,1,6,11,4,-16,2,10
1532122271283,-3,1,-5,-7,-3,-8,-1,-16
1532122271288,-1,-2,-1,6,0,-6,0,-1
1532122271293,-2,0,-2,-6,-4,-9,-2,-4
1532122271298,-1,0,-1,6,-3,-7,0,-5
1532122271303,2,-3,1,-2,6,-1,1,19
1532122271308,0,0,-1,-8,-6,-10,-3,-2
1532122271313,0,-1,5,20,8,-18,-2,-2
1532122271318,-2,-3,-5,-10,-4,-12,3,-1
1532122271323,-1,-3,-2,-8,-5,-5,-1,-3
1532122271328,-1,2,-1,9,19,-7,0,-2
1532122271333,0,2,1,4,-16,-4,0,2
1532122271338,-2,-3,-4,-9,2,2,-6,0
1532122271343,-1,-1,3,17,28,7,-1,-5
1532122271348,-1,-1,-1,-11,-20,-5,0,1
1532122271353,1,3,4,-11,-15,-2,3,1
1532122271358,-2,3,-2,1,2,-10,3,-3
1532122271363,-3,-5,-5,-12,-12,0,-5,-2
1532122271368,-2,-1,-1,5,21,9,3,0
1532122271373,2,0,0,-2,3,1,0,10
1532122271378,-4,-2,-6,-7,-1,4,-3,-17
1532122271383,1,1,1,7,7,3,0,1
1532122271388,0,1,1,-11,-20,-3,-1,-3
1532122271393,-1,-1,-2,-1,3,3,-3,0
1532122271398,0,-3,-1,-5,-7,4,0,3
1532122271403,0,0,1,1,-4,-1,-2,-1
1532122271408,-2,1,1,-1,-7,7,2,-1
1532122271413,-1,-2,-2,6,10,9,0,-4
1532122271418,1,0,-1,-17,-12,2,-2,0
1532122271423,0,4,9,35,9,-1,0,1
1532122271428,1,-2,-3,-10,-6,0,0,1
1532122271433,-2,-4,-8,6,16,11,-2,-4
1532122271438,-1,-1,4,6,-7,5,0,0
1532122271443,0,0,-4,-8,-15,5,1,0
1532122271448,-1,0,-1,-8,-13,1,-2,0
1532122271453,0,1,-3,-11,6,4,1,-4
1532122271458,-1,0,7,6,6,2,1,1
1532122271463,0,0,-6,5,-2,5,-6,0
1532122271468,-1,-2,0,-4,1,5,-1,-2
1532122271473,0,-3,1,15,7,1,0,-4
1532122271478,2,1,-3,-1,2,7,1,1
1532122271483,-4,1,5,-7,-2,2,-2,-2
1532122271488,-2,-1,-3,-3,0,7,0,0
1532122271493,-1,-1,1,-3,-10,-2,-1,10
1532122271498,-1,-3,-5,7,9,1,1,-15
1532122271503,0,-2,-3,-5,-2,0,0,-1
1532122271508,0,0,1,-2,-2,4,0,3
1532122271513,-1,3,5,16,0,0,0,-5
1532122271518,0,-3,-6,-3,-5,-1,-6,5
1532122271523,0,-1,-1,-10,-2,-2,2,1
1532122271528,0,1,3,6,1,-2,-3,0
1532122271533,-1,-2,-6,-5,-3,-5,-1,-1
1532122271538,-1,-1,0,0,1,8,-1,1
1532122271543,-2,-1,4,-7,-11,4,2,-2
1532122271548,0,-1,-2,1,13,-3,0,-1
1532122271553,-2,-3,-6,0,-7,0,-3,-4
1532122271558,-1,-1,-1,1,0,-5,-3,1
1532122271563,-1,-3,2,0,26,0,-1,-2
1532122271568,1,0,0,-4,-40,-6,-1,3
1532122271573,-1,-1,4,-2,23,16,0,-2
1532122271578,0,-2,-7,0,-2,13,1,0
1532122271583,-1,-1,0,-7,6,11,0,0
1532122271588,0,1,0,1,11,8,1,-4
1532122271593,-2,-2,1,-4,-14,-1,-2,-5
1532122271598,1,-1,-1,-3,3,0,0,1
1532122271603,-1,2,-1,13,-10,1,-1,2
1532122271608,0,2,1,0,3,2,-1,-2
1532122271613,-3,0,-1,-5,-5,0,0,3
1532122271618,-1,-1,1,-3,3,-1,-3,2
1532122271623,-2,-1,-1,-8,-18,4,-3,-8
1532122271628,0,-2,-6,-1,9,-8,1,-1
1532122271633,1,0,0,4,5,-1,0,-3
1532122271638,-1,-2,-2,1,3,-8,-1,2
1532122271643,3,1,1,-15,-36,-10,-2,3
1532122271648,-3,-2,2,4,8,-7,-1,-3
1532122271653,0,0,-3,6,-3,-4,1,-1
1532122271658,-2,-1,0,3,4,-4,0,0
1532122271663,-1,1,2,3,3,-6,1,-2
1532122271668,-1,1,-1,-2,-4,-9,-1,-1
1532122271673,0,-4,-8,-4,9,-22,-2,0
1532122271678,-2,0,4,-6,-17,-18,2,-1
1532122271683,-2,-3,-1,1,-4,-12,-2,-1
1532122271688,-1,-2,1,-5,6,-5,-1,3
1532122271693,-2,-1,0,-1,12,1,-1,-3
1532122271698,-1,-2,-3,-8,-14,-5,-4,-5
1532122271703,-1,0,0,-2,-10,-7,1,4
1532122271708,-1,-4,-2,14,17,2,-1,-2
1532122271713,-2,-1,-1,-3,-25,-3,-3,-4
1532122271718,-3,-1,-1,6,9,-8,0,-3
1532122271723,2,0,-4,-9,32,-4,2,0
1532122271728,-2,1,6,-2,-17,3,-1,11
1532122271733,0,2,-1,-2,12,7,4,-16
1532122271738,0,-1,-3,3,-2,15,-2,3
1532122271743,-1,-2,0,-9,-6,-4,-1,-1
1532122271748,-1,0,-2,9,13,-5,-1,-2
1532122271753,1,-2,0,-14,-7,-14,1,4
1532122271758,-3,-2,-4,-3,-3,16,1,-5
1532122271763,2,4,5,16,2,-3,-6,1
1532122271768,0,-1,0,-5,-11,9,3,-2
1532122271773,-1,-1,2,5,11,8,1,1
1532122271778,-3,-7,-9,-4,5,-10,0,-3
1532122271783,-5,-8,-10,-12,-16,13,-10,-11
1532122271788,4,0,2,4,32,41,10,1
1532122271793,0,-2,-1,4,-17,-15,-5,6
1532122271798,1,1,-2,-10,4,9,5,-1
1532122271803,-2,-6,1,-2,-12,16,-7,2
1532122271808,-2,2,5,-4,9,23,-5,-8
1532122271813,-2,-3,-5,-8,-1,2,-9,1
1532122271818,1,4,9,34,13,-9,13,2
1532122271823,-2,-1,-1,4,4,-61,-3,2
1532122271828,-1,3,6,1,1,-53,0,-4
1532122271833,-1,-6,-16,-24,-26,32,-4,-1
1532122271838,-2,-5,0,-6,1,-9,-4,2
1532122271843,6,4,11,3,-10,-26,6,5
1532122271848,0,-8,-13,-11,-14,62,0,-1
1532122271853,-3,-5,-1,19,32,33,5,-3
1532122271858,-1,-2,-4,-9,-5,74,-7,-5
1532122271863,-2,1,-1,0,-9,2,-9,-4
1532122271868,1,5,4,-4,15,-52,5,-4
1532122271873,-3,0,6,9,-7,30,8,6
1532122271878,-3,-2,-7,-11,-17,-1,-6,-3
1532122271883,0,1,1,-1,9,51,-2,-1
1532122271888,-2,1,-1,4,1,-5,-5,-5
1532122271893,0,1,0,-5,9,17,-6,-3
1532122271898,0,1,4,7,-3,-48,-1,-2
1532122271903,-2,-2,-4,0,12,11,16,1
1532122271908,-1,-5,-6,-3,-2,24,-2,2
1532122271913,-1,-2,-5,-17,-8,-85,0,-3
1532122271918,2,1,7,-2,5,22,9,4
1532122271923,0,4,1,2,-13,-78,3,3
1532122271928,3,-2,0,12,2,39,3,1
1532122271933,0,1,1,-11,-12,11,-4,-2
1532122271938,0,-1,-7,-7,-11,-42,-8,-3
1532122271943,-3,-5,-6,-4,13,78,-2,-2
1532122271948,-5,-2,1,6,-9,-17,3,1
1532122271953,-1,0,3,0,14,12,-8,-3
1532122271958,-4,-3,0,3,-1,82,-15,-2
1532122271963,-3,-4,-5,-7,-16,75,-10,-7
1532122271968,1,3,3,-2,-11,-6,1,2
1532122271973,-1,0,1,-5,-23,-5,-2,-2
1532122271978,-5,-9,-15,-7,15,11,-1,-5
1532122271983,-2,-2,0,1,-1,-6,-5,0
1532122271988,-2,-1,-3,-18,5,19,-1,-2
1532122271993,-6,-10,-5,14,-27,-8,-3,-4
1532122271998,0,3,-4,-9,2,-41,0,1
1532122272003,-1,2,6,13,-22,-68,-2,5
1532122272008,0,0,1,-3,1,-34,4,-4
1532122272013,0,5,0,3,23,12,0,-2
1532122272018,1,-3,-2,-16,3,-25,5,1
1532122272023,-2,-1,0,-4,0,25,-1,3
1532122272028,-2,0,0,8,26,21,-4,-6
1532122272033,4,3,1,-6,-27,-27,1,5
1532122272038,0,0,-2,0,-26,-54,11,4
1532122272043,3,1,-3,-7,-2,-18,1,0
1532122272048,-1,-3,-1,7,2,-20,-3,-1
1532122272053,-2,-2,-2,-6,-4,19,-3,-3
1532122272058,0,3,10,8,33,-17,1,-1
1532122272063,2,-2,-9,-12,-16,-59,3,-2
1532122272068,0,-1,0,-1,10,33,1,2
1532122272073,4,1,-1,2,11,-65,6,6
1532122272078,-2,-2,2,7,-11,-27,-5,0
1532122272083,-2,0,-4,-8,-44,42,-7,-8
1532122272088,1,-1,-3,7,-11,-93,-3,3
1532122272093,2,4,7,-2,-4,1,1,2
1532122272098,-2,5,3,1,5,5,-10,-3
1532122272103,-4,-6,-9,1,9,22,2,-4
1532122272108,1,0,0,-8,-41,28,5,3
1532122272113,-3,-7,-6,-9,-4,-22,-1,0
1532122272118,-1,-3,2,-4,-8,1,-4,-2
1532122272123,1,4,12,18,29,13,0,2
1532122272128,-4,1,-5,2,-2,28,-7,-3
1532122272133,0,-2,-1,10,28,-3,4,-1
1532122272138,-2,-3,-13,-12,8,117,1,-1
1532122272143,-2,-2,-3,-6,-3,-24,-4,0
1532122272148,1,-3,3,2,7,34,5,2
1532122272153,0,2,1,0,3,-71,-4,1
1532122272158,1,5,7,7,-7,12,5,0
1532122272163,2,-1,1,6,5,-14,4,1
1532122272168,3,5,1,1,25,12,-7,1
1532122272173,-2,0,-3,-7,6,69,3,-3
1532122272178,-2,-6,-4,2,-5,-15,8,-3
1532122272183,0,-4,-7,-2,12,-10,6,-1
1532122272188,3,1,7,2,-9,-41,1,0
1532122272193,-3,-2,-5,2,-4,33,1,-2
1532122272198,-1,0,1,-6,-5,-65,-11,1
1532122272203,-1,1,0,6,15,-52,-2,-1
1532122272208,-2,-5,-4,-15,-49,19,1,-1
1532122272213,0,0,2,-6,-11,-34,-9,1
1532122272218,-1,-2,-2,-1,-24,4,-1,-4
1532122272223,0,3,6,-2,-3,11,-6,2
1532122272228,-2,-4,-7,12,21,-8,-1,-6
1532122272233,-2,-1,2,9,15,21,-1,-4
1532122272238,-1,-3,-7,-8,7,-43,-5,-1
1532122272243,0,0,2,-5,-10,22,2,4
1532122272248,-2,1,5,6,-6,-36,-4,1
1532122272253,-1,-4,1,-8,-11,40,3,0
1532122272258,1,2,7,11,-1,-16,13,1
1532122272263,-3,-7,-11,-7,6,11,-5,-2
1532122272268,-1,-1,-5,0,19,-8,6,7
1532122272273,-1,-1,-9,-13,-11,-15,8,-17
1532122272278,-2,-1,6,6,-20,-18,-23,3
1532122272283,-1,1,3,-3,3,-16,-1,1
1532122272288,0,0,5,-3,-7,-27,-7,-5
1532122272293,-1,-2,-5,13,18,3,1,6
1532122272298,3,4,-4,0,17,-32,17,4
1532122272303,1,4,2,-7,-14,7,5,1
1532122272308,0,-2,-5,0,10,12,-6,4
1532122272313,-2,0,4,-1,21,-9,-11,-4
1532122272318,-2,-2,-4,-8,-59,28,6,-5
1532122272323,-1,1,-2,4,-2,32,2,-1
1532122272328,0,-3,2,3,15,21,0,-5
1532122272333,3,-1,-7,-10,11,15,10,11
1532122272338,0,1,3,1,3,22,-19,-3
1532122272343,0,-2,3,0,6,-3,-2,-3
1532122272348,0,6,17,20,-13,-11,0,-8
1532122272353,-4,-6,-27,-6,-13,57,-3,-7
1532122272358,-1,-3,-5,-25,0,-39,5,7
1532122272363,0,-6,-9,-7,25,-4,1,1
1532122272368,-2,-8,-6,-2,-19,-6,-4,2
1532122272373,1,8,11,12,-20,-40,-5,1
1532122272378,0,2,2,9,32,19,3,-3
1532122272383,-1,2,1,10,-5,-3,0,-1
1532122272388,-1,0,-5,-8,1,17,3,-3
1532122272393,-4,-2,3,0,-22,-36,-6,2
1532122272398,0,3,12,20,22,1,-7,-6
1532122272403,-1,-3,-21,-34,11,11,12,-1
1532122272408,4,-1,-8,5,12,-41,10,2
1532122272413,0,-1,-4,-15,-1,9,-9,4
1532122272418,0,-2,1,-4,-12,8,0,2
1532122272423,2,2,10,7,20,-14,3,2
1532122272428,0,3,3,-7,-6,-31,-6,-1
1532122272433,-2,-3,4,6,15,24,0,-2
1532122272438,-4,2,-4,21,27,29,-19,-4
1532122272443,-2,-2,6,-21,-9,-20,16,-2
1532122272448,-1,-8,-33,-27,11,63,-1,-1
1532122272453,0,3,27,41,8,-29,-3,0
1532122272458,-3,-11,-27,-34,2,13,-5,-6
1532122272463,2,5,4,6,-37,5,-2,1
1532122272468,-4,-8,-2,-5,11,8,-4,-2
1532122272473,-1,-6,-9,-13,-10,-20,-6,-7
1532122272478,1,2,6,10,-4,37,0,-4
1532122272483,1,4,9,28,-11,-55,-3,0
1532122272488,0,1,10,3,-12,-9,3,-2
1532122272493,0,4,-1,-3,-6,-8,-2,1
1532122272498,-1,-2,5,8,1,12,5,3
1532122272503,0,-1,-6,-6,-18,-21,-6,3
1532122272508,1,3,6,13,10,10,-7,1
1532122272513,2,4,13,2,10,10,4,5
1532122272518,4,5,-3,17,2,-30,5,-1
1532122272523,-3,-9,-9,-34,-1,33,-9,-6
1532122272528,-4,-2,4,33,-28,4,-10,-5
1532122272533,-2,-1,-7,-39,-16,23,-3,-1
1532122272538,1,-6,-19,-70,-27,66,9,4
1532122272543,1,6,4,3,1,12,-3,-1
1532122272548,-1,-5,-9,-16,15,21,3,-2
1532122272553,-1,-4,8,22,-6,12,-9,-1
1532122272558,-5,1,12,6,4,112,1,-3
1532122272563,2,-4,-5,6,8,117,-11,4
1532122272568,1,5,14,15,19,-21,7,-1
1532122272573,0,-5,-6,4,-17,-32,6,1
1532122272578,1,-5,-9,-9,-8,-28,-8,6
1532122272583,-4,-3,1,47,1,-19,-1,-5
1532122272588,1,4,-6,-66,12,-9,6,-3
1532122272593,-5,-7,-11,15,-1,-10,-10,1
1532122272598,0,1,6,-1,3,-6,-8,5
1532122272603,0,2,-3,0,-2,-11,3,3
1532122272608,-1,3,20,24,3,4,8,1
1532122272613,-1,0,-7,-10,4,4,-16,-9
1532122272618,0,-3,-7,-15,-32,-6,0,1
1532122272623,1,-1,-1,6,31,-4,0,4
1532122272628,2,2,3,6,-24,0,5,17
1532122272633,-2,1,3,-3,9,2,-8,-19
1532122272638,-3,-7,-14,-2,24,-5,-1,13
1532122272643,-2,-4,-15,-25,-51,1,10,-34
1532122272648,0,-2,3,11,-9,-1,0,1
1532122272653,2,1,-1,4,5,-1,-2,5
1532122272658,-3,2,11,5,7,-4,-17,-6
1532122272663,-3,1,-1,0,-3,-1,-2,1
1532122272668,4,-2,-10,-1,-11,3,5,11
1532122272673,-2,-1,4,-8,-35,-2,4,2
1532122272678,-2,-6,0,2,27,-3,-1,-3
1532122272683,1,5,-4,-3,7,-4,-12,8
1532122272688,-6,-4,-2,3,-2,0,3,-17
1532122272693,-4,1,-3,-5,-28,-2,1,9
1532122272698,-2,-4,-5,-5,0,1,-3,-9
1532122272703,-3,-6,-1,3,-11,0,-4,3
1532122272708,-3,-2,-5,0,-12,-1,6,-1
1532122272713,-3,-4,-5,-8,0,-4,-11,-7
1532122272718,0,2,-6,-7,-4,-1,-6,-6
1532122272723,0,-1,7,7,23,-3,7,-1
1532122272728,-1,-2,-2,0,-8,-2,-4,-2
1532122272733,-4,0,4,12,22,-1,0,5
1532122272738,0,0,4,-11,-13,-5,-3,-4
1532122272743,5,4,-3,-29,-7,1,14,10
1532122272748,-3,-4,-15,-4,-2,3,1,-4
1532122272753,3,3,2,-12,8,-1,0,0
1532122272758,-2,-1,1,6,-11,-1,1,-1
1532122272763,-1,-2,13,28,7,-4,-9,-2
1532122272768,1,-3,-10,-14,-6,-3,0,-2
1532122272773,-1,1,10,30,24,1,4,0
1532122272778,-1,-6,-29,-42,-14,-3,-2,-2
1532122272783,0,2,15,56,17,-2,-9,0
1532122272788,0,-1,-16,-33,-24,-1,-1,-7
1532122272793,1,3,9,0,29,-1,-6,2
1532122272798,-3,-2,10,14,-17,6,4,0
1532122272803,1,1,6,27,10,5,-1,-4
1532122272808,-3,-5,-14,-50,14,7,-5,0
1532122272813,3,-1,-7,5,-10,1,4,0
1532122272818,1,0,-2,-6,9,1,3,-3
1532122272823,-1,0,8,15,-14,0,-5,-2
1532122272828,1,-2,2,9,15,-1,-5,2
1532122272833,-1,-5,-5,-18,-21,-1,-7,-3
1532122272838,2,8,19,40,9,-6,15,6
1532122272843,-2,-3,-9,23,-6,-2,-7,-8
1532122272848,2,-1,-5,-8,23,-4,-1,-10
1532122272853,-3,0,-4,-27,-12,2,1,-2
1532122272858,-2,0,16,24,33,-1,-6,-1
1532122272863,0,3,10,13,14,-1,10,-3
1532122272868,-7,-14,-31,-43,-27,1,1,8
1532122272873,-6,-5,-7,-15,-11,-5,-2,0
1532122272878,2,1,5,22,18,5,4,4
1532122272883,3,6,14,17,0,0,5,-1
1532122272888,0,8,13,15,-7,-2,1,-2
1532122272893,-1,-1,-11,-35,6,-1,2,-2
1532122272898,-1,0,4,23,-22,4,-8,-5
1532122272903,2,-5,0,3,2,-4,-15,-2
1532122272908,-1,-5,-9,-1,-6,0,6,1
1532122272913,-1,-3,-13,-6,-1,-3,-3,-1
1532122272918,-3,4,10,4,16,-2,-3,-6
1532122272923,2,-3,-12,-9,-17,1,-4,1
1532122272928,3,7,13,-19,1,4,3,0
1532122272933,-1,-3,-10,18,-11,1,-3,4
1532122272938,-8,-15,-13,-25,-12,-4,-3,-2
1532122272943,-6,-1,-1,-29,-12,3,-15,-5
1532122272948,-1,2,3,-14,-13,2,2,-10
1532122272953,1,4,8,33,31,-2,-1,-3
1532122272958,1,6,13,3,-12,6,0,5
1532122272963,-11,-12,-23,8,19,-1,10,-1
1532122272968,5,2,9,-11,-25,-2,1,6
1532122272973,0,-5,-9,-12,-10,-4,-4,-2
1532122272978,-1,0,0,18,-10,2,-3,-3
1532122272983,1,-2,0,16,18,0,10,3
1532122272988,2,15,51,52,18,-3,-3,-3
1532122272993,-9,-17,-80,-114,-36,2,-3,1
1532122272998,-1,-7,-5,4,-1,-5,-5,1
1532122273003,0,3,10,23,-10,0,2,-3
1532122273008,-1,5,8,17,4,-3,0,0
1532122273013,4,8,26,1,3,3,10,3
1532122273018,1,-1,-2,39,25,-4,-9,-3
1532122273023,0,-3,-22,-58,-24,3,0,0
1532122273028,4,-2,-5,-1,10,1,1,4
1532122273033,0,2,18,21,8,-2,-2,0
1532122273038,-2,-2,-6,-13,-23,-3,4,-4
1532122273043,-3,3,19,20,45,2,4,-1
1532122273048,-5,-9,-19,9,32,0,2,-3
1532122273053,0,1,2,13,-34,-1,0,0
1532122273058,1,2,-2,-34,-2,-2,-7,-4
1532122273063,-1,3,4,0,-12,-5,0,-2
1532122273068,0,0,13,28,-24,-4,-11,-6
1532122273073,1,-3,-13,-40,-1,-2,5,-3
1532122273078,3,0,3,8,-3,-3,7,5
1532122273083,3,1,2,-5,-11,-4,-2,-1
1532122273088,-2,5,-1,17,45,1,0,0
1532122273093,-1,-4,5,18,-43,-2,-7,-2
1532122273098,0,-1,1,-9,-39,-5,-4,-4
1532122273103,-1,0,-10,-18,61,-1,2,-2
1532122273108,-3,-3,-3,-3,-60,-1,-2,2
1532122273113,5,-3,10,51,29,-1,-3,1
1532122273118,4,11,32,26,10,3,11,5
1532122273123,-2,-11,-70,-85,-45,1,-3,3
1532122273128,-3,-1,-4,2,9,-6,-4,-2
1532122273133,0,4,4,-13,-19,-2,0,1
1532122273138,-2,1,5,21,9,0,0,-1
1532122273143,-1,4,27,35,-9,-3,-1,-2
1532122273148,0,-2,-15,-19,-1,-1,2,3
1532122273153,-1,-1,7,10,35,1,-2,1
1532122273158,0,-1,-11,-12,-19,0,-3,-4
1532122273163,1,3,12,10,0,-3,-1,-3
1532122273168,2,-2,7,1,-2,0,-4,0
1532122273173,-8,-3,-9,-5,8,3,2,-2
1532122273178,-5,-10,-11,-19,0,-3,-4,-8
1532122273183,1,-5,-7,-4,4,4,0,-1
1532122273188,3,5,2,-1,-25,2,3,4
1532122273193,3,4,15,43,8,0,1,-2
1532122273198,-3,-1,-4,8,29,1,-3,-4
1532122273203,-3,-10,-28,-68,-56,4,-3,2
1532122273208,-2,1,14,42,34,-2,0,-6
1532122273213,1,3,-7,-44,-16,-2,-3,-2
1532122273218,-7,-11,-12,14,-20,0,-2,1
1532122273223,4,9,35,32,40,-2,3,-1
1532122273228,-9,-12,-28,-43,-13,1,-7,-6
1532122273233,2,3,12,40,22,1,2,1
1532122273238,3,1,-8,-29,-17,4,3,1
1532122273243,-1,-1,14,32,8,-2,-1,-4
1532122273248,-5,-14,-24,-44,1,-1,0,2
1532122273253,0,2,7,5,2,-5,-3,-1
1532122273258,0,2,-4,-1,23,-3,0,-1
1532122273263,-1,3,7,17,-8,-1,1,5
1532122273268,2,2,-2,7,6,-3,11,5
1532122273273,-23,-4,-2,-8,0,2,-23,-6
1532122273278,-21,-3,-7,-14,4,1,-12,-6
1532122273283,-10,-1,-5,4,-6,0,-1,-5
1532122273288,-2,1,7,9,5,-1,1,-3
1532122273293,10,-4,-5,-23,-21,-1,8,1
1532122273298,8,5,2,-10,-19,-1,-2,3
1532122273303,7,0,-2,11,-12,-3,-8,-3
1532122273308,9,1,0,4,-14,-2,-2,5
1532122273313,5,0,3,18,34,-3,5,3
1532122273318,5,3,1,-3,-24,-6,-2,2
1532122273323,4,-1,1,-1,-15,0,4,5
1532122273328,0,0,1,-2,-11,-2,-4,-4
1532122273333,-2,-3,0,-2,12,0,-4,-3
1532122273338,1,-1,-1,-1,-26,0,-2,0
1532122273343,1,-1,1,4,-2,1,-2,-1
1532122273348,2,5,4,-1,20,1,-2,-2
1532122273353,-5,-3,-4,-7,-70,1,2,5
1532122273358,3,-2,-3,-4,12,-1,1,-1
1532122273363,0,-2,-4,-7,16,0,-3,-1
1532122273368,-1,-5,-2,-4,-45,-2,-1,-4
1532122273373,3,1,1,-5,12,1,1,-5
1532122273378,7,3,1,-4,21,-1,7,4
1532122273383,0,0,-2,-2,-43,0,-9,-4
1532122273388,0,3,2,8,9,-2,4,2
1532122273393,3,2,-4,-6,12,0,-1,-5
1532122273398,0,-1,-1,-2,-15,-2,-3,-3
1532122273403,2,-1,7,13,23,0,7,2
1532122273408,-2,-4,-4,-4,16,-3,-3,-2
1532122273413,0,11,2,-4,-5,0,2,0
1532122273418,1,-14,-5,-12,-47,-3,-8,-8
1532122273423,1,0,1,2,-13,-5,4,4
1532122273428,-4,-6,-7,-5,7,1,-4,-2
1532122273433,-2,-4,-1,-2,6,-3,-1,0
1532122273438,-7,-3,-1,-10,2,-1,0,-5
1532122273443,-3,1,-1,-2,25,-2,1,-2
1532122273448,2,24,-1,-7,-20,-1,0,0
1532122273453,-13,-44,-6,-8,-3,-4,-3,-3
1532122273458,0,-4,-1,13,30,-2,4,5
1532122273463,1,-4,0,1,-8,-4,1,-1
1532122273468,0,8,5,9,12,-5,-3,0
1532122273473,3,19,2,7,24,1,5,18
1532122273478,-2,-16,-3,-5,-24,0,-3,-27
1532122273483,-5,-30,-10,-8,-4,-1,-10,-5
1532122273488,-1,-8,-1,-1,-14,1,-2,-6
1532122273493,5,5,2,-2,2,3,-3,1
1532122273498,2,18,3,7,28,1,4,11
1532122273503,2,14,4,1,20,-3,1,0
1532122273508,-1,-3,0,3,-11,1,1,-5
1532122273513,-1,1,-3,-1,5,-4,-5,-4
1532122273518,-1,6,2,6,14,1,0,5
1532122273523,-2,-4,9,2,-14,-1,-1,2
1532122273528,-5,-11,-15,-9,7,-2,1,3
1532122273533,0,-2,-8,-6,-16,-3,-3,-6
1532122273538,-1,3,0,0,-2,2,-4,-1
1532122273543,1,7,3,9,11,1,1,-3
1532122273548,-3,-7,1,-3,-2,4,2,-1
1532122273553,0,2,0,-3,8,-1,0,-4
1532122273558,-3,-8,-3,-6,1,1,-1,-1
1532122273563,-3,4,-2,-1,7,2,4,2
1532122273568,-3,-1,3,4,13,2,-2,-1
1532122273573,1,2,1,2,3,7,1,-8
1532122273578,2,7,6,6,10,-2,3,5
1532122273583,-4,-6,-9,-7,-14,0,1,-1
1532122273588,-2,-2,0,1,4,-2,-1,-1
1532122273593,-5,1,9,3,-5,2,-3,-3
1532122273598,-5,-5,-12,3,11,2,-5,-4
1532122273603,7,25,1,4,7,-1,-2,-6
1532122273608,-7,-37,-6,-10,-16,1,-3,-1
1532122273613,-2,0,-3,-6,1,-4,-2,-3
1532122273618,-1,-4,2,4,-5,2,1,2
1532122273623,-3,-5,-3,-2,-1,-1,2,-3
1532122273628,0,6,0,6,5,1,2,-2
1532122273633,2,3,3,10,8,1,2,-1
1532122273638,-1,-3,-3,-6,10,1,3,4
1532122273643,0,2,2,0,-38,2,-4,4
1532122273648,-2,2,4,0,-6,-1,-7,-2
1532122273653,-1,-7,-5,-3,2,-3,-1,0
1532122273658,-2,4,1,2,-2,-3,-1,0
1532122273663,-3,-2,1,-2,5,-4,-3,1
1532122273668,1,7,1,-2,-1,-2,-1,2
1532122273673,1,8,-1,-3,-2,0,-1,-1
1532122273678,2,-11,-7,-6,-10,-2,0,0
1532122273683,-3,-10,-1,-2,6,2,0,-1
1532122273688,2,4,2,4,4,0,-1,-2
1532122273693,1,1,2,6,6,-6,1,-4
1532122273698,1,8,-2,-4,-2,0,2,3
1532122273703,-1,-7,0,-3,4,-3,1,5
1532122273708,0,1,-5,-2,-3,1,-1,0
1532122273713,1,1,0,0,0,-4,-2,-1
1532122273718,0,-3,5,7,9,-6,-1,-1
1532122273723,-1,1,-4,0,-14,1,0,-1
1532122273728,-2,-1,0,-4,-2,0,-1,4
1532122273733,-1,-1,3,3,0,-1,0,-1
1532122273738,-4,0,-4,-5,-8,2,-1,-2
1532122273743,-3,-10,-7,-6,26,1,1,-3
1532122273748,3,1,1,3,0,-1,3,1
1532122273753,-3,-2,-4,-5,-8,1,0,3
1532122273758,-1,4,9,13,1,1,5,-3
1532122273763,0,7,10,12,3,0,-7,-5
1532122273768,3,4,-5,-4,-2,2,-13,2
1532122273773,-3,-8,-8,-26,-2,-2,32,-3
1532122273778,2,0,10,14,-1,-1,-6,6
1532122273783,-1,5,7,25,10,-2,-11,-19
1532122273788,-6,-13,-32,-73,-8,-2,32,3
1532122273793,0,3,6,26,1,-5,-24,-4
1532122273798,-4,0,-3,8,19,-2,54,1
1532122273803,7,9,23,21,-12,-4,26,4
1532122273808,-4,1,11,20,2,-2,-21,-11
1532122273813,-3,-3,-15,-7,-4,-5,-1,1
1532122273818,-4,-11,5,-7,-7,-4,-6,0
1532122273823,0,-8,-11,-2,7,-3,-21,1
1532122273828,3,15,5,7,5,-4,6,-4
1532122273833,-2,-19,-2,-12,-2,-5,-2,1
1532122273838,0,3,-2,1,1,-5,-15,-2
1532122273843,-5,-7,-6,-16,-7,-5,0,0
1532122273848,0,1,-4,-13,-2,-2,-3,1
1532122273853,1,7,9,10,3,1,14,4
1532122273858,-1,2,-5,-7,0,-3,-30,-7
1532122273863,0,-2,-18,-24,-1,-2,34,4
1532122273868,3,7,13,18,3,3,7,4
1532122273873,-3,4,-1,3,-2,1,-12,-2
1532122273878,1,-3,-7,-17,-6,-1,-2,3
1532122273883,0,1,3,-6,-3,3,11,11
1532122273888,0,-7,2,15,-3,-12,-36,0
1532122273893,3,3,0,-2,6,-40,31,-10
1532122273898,-1,0,-16,-21,-7,-113,0,-3
1532122273903,-3,0,1,0,1,-126,-11,-2
1532122273908,6,5,17,14,-2,-114,9,1
1532122273913,1,0,9,-20,-6,16,-12,1
1532122273918,-5,-11,-46,-24,-11,88,-10,2
1532122273923,-1,-2,8,17,-2,119,-3,5
1532122273928,-2,-6,0,4,0,120,2,1
1532122273933,1,1,7,22,2,95,-13,1
1532122273938,2,-1,15,27,2,93,4,-3
1532122273943,0,-2,-13,-53,0,76,-8,-2
1532122273948,-5,-7,-2,11,2,67,-3,0
1532122273953,0,-5,-23,-12,-5,43,-4,-3
1532122273958,1,4,3,-48,-11,37,-1,2
1532122273963,1,-2,-1,28,11,31,-5,-2
1532122273968,-2,-2,-9,-34,-7,25,-1,-2
1532122273973,1,4,-6,5,1,13,0,1
1532122273978,-1,-2,10,7,1,10,0,-1
1532122273983,-1,4,3,-3,-2,9,-4,-4
1532122273988,1,-1,-2,14,0,10,15,1
1532122273993,-2,-1,4,4,2,-1,-32,1
1532122273998,1,2,-7,-23,-6,2,26,-4
1532122274003,-2,-4,-7,6,-5,3,7,0
1532122274008,-2,-4,-5,-1,2,4,-12,0
1532122274013,0,2,4,3,-2,-1,21,3
1532122274018,-4,2,14,15,-1,0,-13,-2
1532122274023,-1,0,-3,-2,-3,2,1,-2
1532122274028,-1,-2,-7,-39,-2,2,12,1
1532122274033,-2,2,1,4,-5,-2,-10,3
1532122274038,2,6,6,15,4,1,-3,5
1532122274043,-1,0,-2,-22,-5,0,-6,5
1532122274048,-2,4,7,30,1,1,-6,-3
1532122274053,-1,-4,3,19,4,-1,0,-5
1532122274058,-3,-8,-14,-18,2,0,-4,-4
1532122274063,-1,-5,5,16,2,1,-6,1
1532122274068,0,-2,3,10,4,1,-3,-3
1532122274073,0,-3,-3,-11,-3,-1,-2,-2
1532122274078,1,-3,2,11,0,-1,0,0
1532122274083,-2,-4,-4,-6,-3,0,-7,-7
1532122274088,-1,0,3,2,-1,0,-5,-5
1532122274093,0,0,-5,-18,-2,-1,3,-1
1532122274098,-1,-2,-3,2,-2,0,-8,-1
1532122274103,1,3,4,4,-1,0,1,-2
1532122274108,0,0,-3,2,-2,0,3,0
1532122274113,-1,-4,0,-5,0,-1,-9,2
1532122274118,-2,1,9,11,1,0,-6,-8
1532122274123,-3,-2,-12,-7,-4,0,1,-3
1532122274128,-1,-1,0,-2,1,0,7,0
1532122274133,-1,-1,1,-2,-2,-1,3,4
1532122274138,0,1,5,2,1,0,-3,3
1532122274143,-1,3,14,-7,-1,0,-8,-4
1532122274148,0,-2,-21,-5,-1,0,-3,-1
1532122274153,0,-1,25,5,4,-1,4,0
1532122274158,-1,10,-12,1,-6,-1,0,-2
1532122274163,-6,-15,-35,-18,-3,-1,0,-4
1532122274168,-1,-7,5,0,-1,-1,1,-2
1532122274173,-1,-2,-8,-4,-2,-1,2,1
1532122274178,-1,-4,14,15,0,-1,2,1
1532122274183,1,7,13,8,5,0,-29,-2
1532122274188,0,1,-6,0,-1,0,-3,-1
1532122274193,-2,-1,-3,-1,-1,-1,-10,-5
1532122274198,0,4,15,54,4,-1,5,2
1532122274203,0,-3,-13,-34,2,-1,0,-3
1532122274208,-3,1,5,4,-1,-1,-6,-3
1532122274213,-2,0,-12,4,-1,-1,2,-1
1532122274218,-1,-8,-10,-19,-7,0,-11,-1
1532122274223,0,-1,3,12,-2,0,6,0
1532122274228,0,2,9,-2,-2,0,3,-1
1532122274233,-2,1,-5,-3,-3,0,3,-1
1532122274238,1,-2,1,-6,1,0,0,0
1532122274243,3,-1,19,19,2,-1,10,3
1532122274248,-2,-6,-21,-15,-5,0,3,-2
1532122274253,-3,-9,-4,-8,-3,-1,-4,-3
1532122274258,0,-3,-6,-3,3,-1,-3,0
1532122274263,1,2,3,7,-1,-1,4,0
1532122274268,0,5,11,9,-1,0,-9,1
1532122274273,-1,1,-5,-3,-1,-1,7,2
1532122274278,-1,-1,-1,-9,0,22,-18,-4
1532122274283,0,3,2,1,-1,52,4,0
1532122274288,-1,1,-2,9,6,53,25,-2
1532122274293,0,2,-2,-3,-3,38,-4,-1
1532122274298,0,0,-2,-12,-1,20,10,0
1532122274303,-1,-1,-3,13,-4,11,2,-3
1532122274308,-1,-5,-3,-16,-1,9,-5,-1
1532122274313,2,0,4,1,1,33,-3,0
1532122274318,-1,0,-4,-13,-3,16,3,-1
1532122274323,-4,-4,0,1,-1,24,-5,-1
1532122274328,0,-1,3,-18,-1,5,0,-1
1532122274333,-1,-1,-4,-7,-4,-6,-3,3
1532122274338,-2,-4,-3,4,-2,-18,-5,-1
1532122274343,0,-1,0,-6,1,-22,0,2
1532122274348,0,-1,3,7,-1,-24,-4,0
1532122274353,-1,-4,4,3,4,-14,2,-4
1532122274358,-1,-15,-6,-14,-4,-20,5,2
1532122274363,1,4,3,3,-2,-5,-10,0
1532122274368,1,6,-5,0,0,7,-1,-1
1532122274373,-2,8,-3,3,-2,6,-4,-5
1532122274378,1,8,0,5,2,9,4,-1
1532122274383,-1,3,0,0,-2,2,3,-3
1532122274388,-1,1,0,1,-4,-20,-4,1
1532122274393,0,-1,-2,-6,-1,-102,-1,-1
1532122274398,-1,-1,1,2,0,-36,-2,1
1532122274403,-2,-2,-3,-5,-2,10,-3,1
1532122274408,-3,-1,2,8,2,72,3,-2
1532122274413,0,-1,6,35,0,68,-4,-3
1532122274418,-3,-3,-11,-24,-1,39,-2,-6
1532122274423,-1,0,11,19,5,45,0,-1
1532122274428,-3,-10,-20,-53,-8,40,-5,6
1532122274433,-1,-3,4,-6,-2,-9,-1,1
1532122274438,-1,0,-1,6,1,-37,-1,-1
1532122274443,-1,-2,-2,6,3,-39,0,-3
1532122274448,-1,-1,4,19,1,-53,1,-5
1532122274453,0,0,-2,-11,-1,-17,-9,-1
1532122274458,-1,2,6,6,-9,26,1,-2
1532122274463,-1,-4,-8,-12,-11,9,4,2
1532122274468,0,1,6,11,-3,28,-5,-1
1532122274473,0,-1,-5,-7,1,46,-12,-3
1532122274478,-1,-3,4,3,4,11,1,-6
1532122274483,-2,-4,-5,-5,4,-10,-4,-2
1532122274488,2,3,3,5,1,-12,0,1
1532122274493,0,1,4,4,1,0,4,0
1532122274498,1,-2,-3,-1,2,10,-2,3
1532122274503,0,1,-2,-16,-5,10,2,1
1532122274508,-1,-3,4,7,-4,-2,-4,-1
1532122274513,-1,-4,-10,-9,-6,28,4,1
1532122274518,-3,1,2,4,-2,9,6,0
1532122274523,1,4,8,15,8,-2,1,-2
1532122274528,-1,0,-10,-22,-4,-19,0,-5
1532122274533,-1,-4,0,21,-6,13,9,4
1532122274538,-2,-5,-16,-34,0,49,-5,4
1532122274543,-1,-4,-2,-3,2,-4,-10,-5
1532122274548,-3,1,7,11,4,-26,-4,-5
1532122274553,-1,0,0,2,1,-29,3,-2
1532122274558,2,2,2,4,-1,-31,1,-3
1532122274563,0,-1,0,-1,-3,-22,-2,1
1532122274568,0,0,3,9,2,-10,-3,-1
1532122274573,-1,-3,-5,-16,-1,-15,-5,1
1532122274578,-3,0,8,14,-1,-15,-10,0
1532122274583,-1,0,-5,-8,-2,4,2,-1
1532122274588,-1,-2,1,8,-1,4,5,3
1532122274593,-1,-1,-5,-10,-3,2,-2,-4
1532122274598,-1,3,3,3,1,-11,-1,-4
1532122274603,-1,-4,-2,0,-2,-12,2,1
1532122274608,-1,-1,-3,-16,-6,-10,6,-1
1532122274613,-1,1,0,-3,-4,-1,1,0
1532122274618,-2,-1,2,3,-4,-4,-2,-3
1532122274623,1,3,-2,-2,-6,-13,3,3
1532122274628,-4,-4,-4,-1,3,-19,-32,-10
1532122274633,6,5,1,2,-2,16,41,9
1532122274638,-2,-5,0,0,-7,15,6,4
1532122274643,-5,-6,-2,5,1,0,-18,-6
1532122274648,3,2,9,33,-2,-7,6,0
1532122274653,-6,-4,-11,-30,4,-20,-6,-13
1532122274658,0,2,3,-10,-2,2,-4,5
1532122274663,1,2,10,8,1,17,-3,1
1532122274668,1,1,1,0,0,-18,1,1
1532122274673,-3,-4,1,16,-10,-9,6,-1
1532122274678,5,6,15,27,2,-8,8,-3
1532122274683,-3,-5,-31,-69,-13,97,-5,0
1532122274688,-4,0,-2,6,15,53,-11,-2
1532122274693,4,4,2,1,9,-1,-15,2
1532122274698,2,0,9,24,-3,-12,21,4
1532122274703,-4,-4,3,7,-3,4,2,-1
1532122274708,3,2,0,5,-1,23,-1,0
1532122274713,-2,-2,-6,-14,-3,8,-2,-6
1532122274718,0,-2,-5,6,9,16,-1,-1
1532122274723,-2,-3,-2,-12,1,-35,-13,-3
1532122274728,-1,1,1,-12,-9,-11,2,0
1532122274733,-3,-4,-7,-7,1,28,1,4
1532122274738,-1,-1,-1,0,1,0,-1,-2
1532122274743,-1,2,1,-7,1,-21,3,-1
1532122274748,-2,-2,4,7,7,-12,-2,2
1532122274753,0,-1,4,13,3,-9,-1,0
1532122274758,0,0,-7,-12,0,8,4,2
1532122274763,0,1,3,21,6,-10,-1,-1
1532122274768,0,2,0,-6,-3,-5,0,19
1532122274773,4,-1,2,-2,1,-3,4,-27
1532122274778,3,1,-10,-14,-6,-5,-7,6
1532122274783,-4,-2,7,15,-1,-10,5,-5
1532122274788,-3,-6,-10,-14,-7,-6,-2,-10
1532122274793,2,-2,-5,-13,-9,7,-1,7
1532122274798,0,4,2,4,0,16,24,14
1532122274803,4,4,5,3,-10,-9,-22,-1
1532122274808,-2,-3,-5,-14,-9,-3,4,-2
1532122274813,0,0,4,15,-4,6,8,1
1532122274818,-2,1,-4,-5,-8,2,5,-3
1532122274823,-2,1,1,11,2,4,-5,-1
1532122274828,0,1,2,2,-5,1,-14,2
1532122274833,0,0,2,12,2,-14,-2,8
1532122274838,-4,-6,-7,-15,-2,-21,-13,-5
1532122274843,0,2,-6,-17,-4,-32,0,-5
1532122274848,0,2,12,56,4,-45,-1,1
1532122274853,-3,-4,-15,-53,0,-58,7,-3
1532122274858,-1,-4,8,28,12,-24,-9,3
1532122274863,0,-3,-1,-25,-3,34,-4,-1
1532122274868,-1,-7,-11,-29,-5,26,-2,-7
1532122274873,0,1,2,24,5,32,-7,5
1532122274878,1,-2,4,3,1,16,3,-5
1532122274883,7,-1,7,45,0,-4,13,-2
1532122274888,2,0,-13,-68,-1,20,-5,0
1532122274893,-1,-4,-10,4,-5,26,12,3
1532122274898,-4,1,2,3,1,-21,-8,-7
1532122274903,-9,-3,1,-5,8,-15,4,-5
1532122274908,-4,2,4,7,5,-5,-25,-10
1532122274913,-3,5,0,7,-2,21,11,-1
1532122274918,-3,-4,-5,4,-8,36,-1,-4
1532122274923,1,0,5,4,-6,-28,9,8
1532122274928,-3,-4,-7,-16,-4,-9,3,-2
1532122274933,-3,-4,0,-13,2,-3,-12,-1
1532122274938,3,3,5,8,4,-8,3,0
1532122274943,-1,0,-1,-5,-1,-15,-3,-1
1532122274948,-2,-4,-2,-2,0,3,2,1
1532122274953,-2,1,7,13,3,-5,-13,-1
1532122274958,0,-1,-4,-25,0,-1,9,1
1532122274963,-3,0,-2,-8,-1,-14,2,-1
1532122274968,4,0,1,15,1,4,2,8
1532122274973,0,11,12,15,1,-2,-11,2
1532122274978,-6,-13,-18,-19,7,-2,-6,-34
1532122274983,-1,-6,-5,-11,1,11,-14,-3
1532122274988,4,7,4,13,1,-2,9,-3
1532122274993,-3,-8,-2,1,-4,-3,11,13
1532122274998,10,5,3,-7,-10,-7,-15,-9
1532122275003,-13,0,0,11,-1,4,10,-5
1532122275008,0,0,-2,-1,-4,6,32,-5
1532122275013,-4,-2,-2,-8,-15,-19,-5,1
1532122275018,2,5,0,5,-6,7,11,15
1532122275023,3,0,1,-1,-12,3,7,6
1532122275028,-6,1,4,9,5,-8,-21,-4
1532122275033,-5,-4,-3,-2,3,11,-4,-8
1532122275038,-3,-3,-2,-6,-1,7,8,6
1532122275043,4,3,13,34,0,-40,-7,-7
1532122275048,0,-4,-17,-41,-8,-50,-3,-1
1532122275053,1,-4,4,1,5,-4,-14,-2
1532122275058,1,0,3,2,-2,3,21,6
1532122275063,3,-1,5,6,-7,16,-3,3
1532122275068,1,0,-11,-15,6,-92,-3,-4
1532122275073,1,-2,9,22,7,-72,1,-3
1532122275078,0,-4,-2,-9,-7,-37,-1,11
1532122275083,-2,-3,0,7,5,-22,3,-3
1532122275088,6,6,28,58,-4,65,9,-4
1532122275093,2,3,-22,-9,3,84,3,-7
1532122275098,-4,-4,-38,-81,-6,94,-11,6
1532122275103,-3,-4,-2,-13,-2,109,-4,1
1532122275108,-3,-3,1,1,4,105,8,5
1532122275113,-1,-1,8,20,-1,41,-9,2
1532122275118,-1,6,24,79,2,-27,-8,-14
1532122275123,1,4,-9,-19,2,-59,3,-12
1532122275128,-5,-9,-37,-88,-3,12,-1,8
1532122275133,-1,1,10,4,-2,-48,-3,0
1532122275138,-2,-2,-1,-11,5,-1,-16,3
1532122275143,0,0,7,14,2,15,8,3
1532122275148,-1,3,14,37,0,30,-14,-4
1532122275153,3,-2,-7,-19,3,30,16,1
1532122275158,-4,-3,2,8,2,-5,-14,-5
1532122275163,1,2,-2,-3,2,-19,-3,2
1532122275168,5,-2,-4,-5,-3,-30,-2,4
1532122275173,-3,-4,-5,-13,-3,-1,0,4
1532122275178,-2,-2,9,6,-3,-20,12,-7
1532122275183,5,0,-4,-7,3,6,-26,0
1532122275188,0,-3,0,0,-1,-6,3,-7
1532122275193,2,2,4,4,-5,-6,-3,-7
1532122275198,0,-1,0,5,-1,4,7,4
1532122275203,-1,0,-6,-13,-2,-2,2,3
1532122275208,0,0,3,14,-1,-16,-14,-5
1532122275213,-1,-4,-4,-4,-8,-8,-8,-2
1532122275218,-2,-1,-4,-7,-3,-28,0,1
1532122275223,-4,-1,-4,-5,-2,-35,-4,-2
1532122275228,-2,1,9,19,1,-41,13,4
1532122275233,0,-1,0,2,-6,-9,-1,-2
1532122275238,-1,0,4,19,3,32,-4,2
1532122275243,-3,-4,-15,-40,-1,26,0,-1
1532122275248,-3,-2,7,16,2,23,-3,2
1532122275253,0,0,5,12,2,8,2,2
1532122275258,1,4,0,-7,-5,1,2,-5
1532122275263,-2,-4,0,13,-3,-22,1,-5
1532122275268,-2,1,1,4,3,20,-1,-2
1532122275273,0,0,-5,-12,-2,15,-3,-1
1532122275278,2,0,3,3,-1,21,4,-2
1532122275283,0,0,4,10,-1,26,-3,0
1532122275288,-4,-4,-5,-7,-4,6,-27,-6
1532122275293,0,-1,-3,-2,-5,-8,-1,-6
1532122275298,-3,-2,1,-16,2,16,-13,3
1532122275303,1,-1,-13,-27,-9,-22,9,-2
1532122275308,-7,-7,-3,-32,-1,32,-15,4
1532122275313,-3,1,-4,16,18,-7,-7,-5
1532122275318,1,-1,-1,-1,3,-9,8,6
1532122275323,0,1,11,31,7,1,-14,-1
1532122275328,4,3,8,33,4,5,20,-1
1532122275333,-2,-1,-3,-5,-4,-8,0,-5
1532122275338,-1,-1,0,-15,-5,-15,-1,-2
1532122275343,-2,-5,-9,-6,1,12,-1,6
1532122275348,1,-1,-3,-5,-5,-33,1,-2
1532122275353,0,1,4,5,2,13,8,6
1532122275358,-2,-1,-3,5,-1,-13,-14,-5
1532122275363,-1,-1,1,-7,-8,10,8,2
1532122275368,-1,-2,-4,-14,-2,-9,6,-2
1532122275373,1,-3,-1,-2,-13,-14,5,0
1532122275378,1,1,4,7,6,7,3,2
1532122275383,-3,2,1,-1,7,2,-10,-7
1532122275388,0,-2,1,20,-1,-5,21,-2
1532122275393,-1,-3,1,-7,1,19,2,1
1532122275398,-1,-4,-3,-6,-5,15,0,1
1532122275403,-1,-2,0,1,1,17,7,5
1532122275408,2,3,1,-3,-3,7,-7,-2
1532122275413,-2,2,-2,-4,-1,6,-10,-2
1532122275418,0,-2,-6,-5,0,7,13,-1
1532122275423,2,2,4,7,5,-5,0,1
1532122275428,-4,-1,-4,-5,-5,-29,-9,-10
1532122275433,-1,-2,-1,-10,5,4,7,3
1532122275438,-1,1,0,8,4,-4,-6,-2
1532122275443,0,-2,-2,-1,-4,-12,0,-1
1532122275448,1,1,2,15,2,-2,5,-1
1532122275453,-2,-5,-4,-2,-8,-3,3,0
1532122275458,-3,-5,-15,-37,-6,5,-4,-3
1532122275463,1,-1,2,2,-1,0,-1,-1
1532122275468,-1,1,2,-4,-4,14,4,5
1532122275473,0,1,7,15,-5,-11,-12,-3
1532122275478,1,-1,-5,12,-7,-7,1,-4
1532122275483,-2,-1,3,21,6,4,-2,0
1532122275488,-1,-1,-4,-27,0,6,-7,2
1532122275493,-1,2,-1,-4,0,-8,6,0
1532122275498,-1,-2,0,0,-5,-11,-5,0
1532122275503,0,-2,0,3,2,-2,4,0
1532122275508,0,-1,7,36,0,-15,-1,-4
1532122275513,-1,-4,-20,-49,-13,9,1,-2
1532122275518,1,1,8,21,5,-2,-2,6
1532122275523,2,5,0,2,-4,-7,-5,-1
1532122275528,0,1,-11,-54,-21,-17,-12,-12
1532122275533,-4,-6,8,30,30,54,17,16
1532122275538,-2,0,6,7,5,5,-8,-2
1532122275543,-2,-2,-3,-3,1,8,8,0
1532122275548,3,3,9,23,-8,0,4,2
1532122275553,0,0,-1,-2,-16,-18,-17,-12
1532122275558,4,2,10,22,-3,5,16,1
1532122275563,-4,-4,-6,-19,1,21,-6,-5
1532122275568,0,-1,-1,18,4,-1,2,0
1532122275573,-2,-2,-7,-34,-3,-8,-5,-1
1532122275578,-1,0,-2,-5,1,6,0,3
1532122275583,1,0,0,-6,-9,-14,-9,-4
1532122275588,-1,-1,-3,-4,7,10,6,3
1532122275593,-1,-1,-2,2,-7,-6,-8,-2
1532122275598,0,2,5,17,1,-14,2,-4
1532122275603,-2,-3,-2,-6,-2,13,-1,-4
1532122275608,-2,-6,-27,-72,-8,8,-6,0
1532122275613,2,3,15,11,12,8,7,4
1532122275618,-1,0,-6,11,8,12,-9,-5
1532122275623,-1,-1,1,9,0,2,-3,1
1532122275628,0,0,8,26,4,7,1,2
1532122275633,2,1,-1,16,-5,-16,4,-4
1532122275638,0,-3,-12,-53,-2,3,4,-2
1532122275643,-4,-5,-2,3,-6,-11,-5,-2
1532122275648,0,0,5,5,7,2,-8,3
1532122275653,-2,-1,0,-1,-7,-9,-6,-1
1532122275658,1,2,3,9,0,-24,1,-5
1532122275663,-2,0,3,5,1,7,2,4
1532122275668,-1,-3,-4,-16,-5,-1,0,-2
1532122275673,3,2,4,13,-2,14,3,0
1532122275678,0,1,4,17,-9,-10,0,-1
1532122275683,-1,0,-2,-4,6,-7,-5,-3
1532122275688,-2,-2,-5,-7,-2,14,-1,1
1532122275693,0,0,-2,4,12,12,2,0
1532122275698,-3,-4,-5,-2,-5,-6,-2,-1
1532122275703,-1,1,-3,-17,-7,-6,2,0
1532122275708,0,1,6,26,10,-9,-1,2
1532122275713,0,2,6,20,-4,-22,1,-5
1532122275718,-2,-4,-6,-33,-7,1,-3,-1
1532122275723,2,-3,-8,-22,-11,6,-4,0
1532122275728,-3,-1,6,44,-5,-20,4,-5
1532122275733,-1,-3,-13,-47,-1,4,-10,-2
1532122275738,-1,0,1,0,5,8,-3,-1
1532122275743,-2,-1,-1,0,4,3,1,-3
1532122275748,0,2,-1,-2,1,-6,2,-2
1532122275753,0,2,2,-4,-14,-3,9,6
1532122275758,-2,-1,3,20,4,15,0,-2
1532122275763,0,-4,-6,-26,-6,14,-7,-3
1532122275768,0,2,8,21,3,-7,-4,-3
1532122275773,-1,-4,-11,-29,-7,0,0,-1
1532122275778,2,-1,4,16,-5,-1,-8,-2
1532122275783,1,0,-6,-12,-1,6,5,1
1532122275788,0,-4,-4,-10,-3,2,-2,1
1532122275793,-1,0,4,18,6,-13,-11,-8
1532122275798,-3,-1,-1,-4,-6,-2,-8,-1
1532122275803,2,2,0,12,0,-12,3,0
1532122275808,-3,-3,-5,-14,-4,-3,-7,-8
1532122275813,0,-1,3,18,1,-1,3,0
1532122275818,3,2,-6,-16,-3,2,0,1
1532122275823,0,0,1,7,0,9,1,-2
1532122275828,-2,0,0,0,5,-6,-1,0
1532122275833,-1,-1,3,2,-3,-11,-12,-1
1532122275838,-2,1,-1,0,4,-7,4,-5
1532122275843,-2,-1,2,9,-4,-8,-3,-8
1532122275848,-1,-3,-11,-29,-9,25,-2,4
1532122275853,-1,-2,0,-6,6,9,-4,-3
1532122275858,1,0,0,-9,1,10,4,6
1532122275863,-1,0,12,50,2,-4,4,0
1532122275868,0,1,-9,-49,-1,-7,-3,-7
1532122275873,-1,-3,6,8,6,24,4,9
1532122275878,0,-1,-2,-4,-4,-2,-4,5
1532122275883,-7,-3,0,-11,-1,-9,-5,-6
1532122275888,1,1,5,31,-1,-5,0,-4
1532122275893,-1,0,-2,0,-4,-1,8,-2
1532122275898,-2,-1,-3,-11,-1,-4,-1,0
1532122275903,2,2,0,7,-1,-3,4,5
1532122275908,-2,-1,1,0,-3,-5,0,1
1532122275913,-2,2,1,-9,-4,-8,-10,-8
1532122275918,-3,-4,-5,16,18,8,-12,-3
1532122275923,1,-1,-10,-30,-2,21,9,1
1532122275928,-2,-1,5,13,2,-2,-1,3
1532122275933,1,-2,-4,-11,-3,-3,0,0
1532122275938,-4,-2,2,3,-13,-15,-5,-5
1532122275943,-2,0,0,0,1,-18,-2,-2
1532122275948,2,1,2,25,8,3,-2,-2
1532122275953,-1,-2,-16,-48,-7,4,1,-3
1532122275958,0,-2,5,8,1,11,1,3
1532122275963,0,-3,-8,-22,-6,0,-7,2
1532122275968,-1,-1,6,13,-6,-3,-3,3
1532122275973,-2,4,2,24,3,-16,-10,-11
1532122275978,0,1,0,6,-5,-14,4,-5
1532122275983,-3,-3,-1,-14,-1,22,0,4
1532122275988,1,-2,0,8,-3,-10,-4,2
1532122275993,-1,-1,1,4,-3,-3,-1,-2
1532122275998,2,0,-2,-11,-6,-15,-3,3
1532122276003,0,-2,3,15,2,-1,0,-9
1532122276008,-1,-1,-3,-6,-4,2,1,-2
1532122276013,2,1,2,3,0,-5,3,1
1532122276018,-3,-4,-5,-19,-1,4,-1,1
1532122276023,2,0,-1,-1,5,-9,1,5
1532122276028,0,-2,-2,-8,-3,-3,-5,-4
1532122276033,1,1,5,27,2,-23,4,-3
1532122276038,-1,-3,-12,-43,-13,20,-2,3
1532122276043,-1,-2,1,-1,0,-2,1,3
1532122276048,-1,-3,-4,-10,-2,-5,3,1
1532122276053,-1,-2,7,28,4,-6,-1,0
1532122276058,0,-2,-5,-12,-3,-11,1,-8
1532122276063,1,1,3,2,0,12,3,0
1532122276068,1,2,4,13,0,-12,-2,-3
1532122276073,2,-2,-6,-18,-11,1,7,3
1532122276078,-1,0,6,18,11,3,-2,3
1532122276083,0,1,0,1,2,5,1,1
1532122276088,-1,-2,1,3,0,3,-1,3
1532122276093,-5,-2,-2,-10,-1,7,-1,-4
1532122276098,0,0,0,3,2,0,2,1
1532122276103,0,0,2,9,-1,-11,6,0
1532122276108,-3,-3,-5,-12,-2,4,-2,-4
1532122276113,1,-2,0,0,3,8,-1,6
1532122276118,-1,-1,0,10,-6,-10,-5,-6
1532122276123,-1,0,-1,-2,4,7,-3,-2
1532122276128,-1,-1,-5,-7,7,12,1,1
1532122276133,-1,-1,1,5,2,11,2,0
1532122276138,0,1,3,-2,-3,2,-1,1
1532122276143,0,0,4,29,-5,-12,-5,-6
1532122276148,0,-2,-9,-30,-6,7,0,-3
1532122276153,-2,0,-2,-21,-5,-6,-5,0
1532122276158,-2,-1,1,12,7,5,2,2
1532122276163,-1,0,-4,-6,-2,-2,-4,-2
1532122276168,0,-1,2,9,-2,-19,-1,-1
1532122276173,0,1,1,6,-1,-1,5,0
1532122276178,2,1,0,-10,-6,-4,3,-3
1532122276183,-1,-2,0,2,4,7,3,4
1532122276188,-3,-3,-2,4,-1,3,-10,-3
1532122276193,0,-1,-2,-6,0,11,8,2
1532122276198,0,-1,-2,2,0,1,-2,-1
1532122276203,-1,1,3,4,3,5,1,0
1532122276208,-1,1,3,3,-2,6,-3,2
1532122276213,-1,-2,-6,-15,-4,-8,-1,1
1532122276218,-1,0,1,11,-2,2,4,-1
1532122276223,0,-1,0,4,1,-8,1,2
1532122276228,0,0,-2,-2,-2,-7,5,2
1532122276233,-4,-5,-2,-6,0,16,-16,-1
1532122276238,-1,-1,-2,-5,-1,-5,2,0
1532122276243,0,-3,-9,-21,-5,7,-8,-2
1532122276248,-1,-1,0,3,-4,-9,-6,0
1532122276253,0,-1,-2,-10,-3,8,-1,-1
1532122276258,1,1,0,0,3,7,-1,0
1532122276263,1,0,-3,-12,-4,4,1,1
1532122276268,0,0,2,12,2,-10,-1,-1
1532122276273,-3,0,-1,-2,-1,-3,-7,-7
1532122276278,0,0,-2,-5,0,2,2,0
1532122276283,-1,-1,3,12,4,-4,-1,-2
1532122276288,-1,-2,-2,10,-1,-9,5,0
1532122276293,0,-1,-10,-29,-5,-17,-2,-2
1532122276298,-2,-2,3,7,8,15,-1,4
1532122276303,-1,-2,1,4,0,-5,-2,-2
1532122276308,0,-3,-3,-7,-2,-1,4,3
1532122276313,-2,-1,2,1,-6,-10,2,-2
1532122276318,-2,0,-2,8,-1,-4,-13,-6
1532122276323,0,1,0,4,2,4,-3,-5
1532122276328,-1,-2,-6,-9,-5,-1,-2,-3
1532122276333,-1,-4,-2,3,2,5,3,1
1532122276338,-1,-1,2,3,-8,-12,6,2
1532122276343,-1,0,-2,-2,-3,0,1,0
1532122276348,-2,-2,-7,-18,-1,-1,-6,-1
1532122276353,-1,-1,5,18,1,-19,-1,-3
1532122276358,0,-3,-8,-13,-1,-19,7,0
1532122276363,-1,-2,0,-8,-1,-6,-6,-2
1532122276368,-1,0,4,5,6,-1,-3,1
1532122276373,-1,-2,0,-5,-1,6,-4,1
1532122276378,-1,1,1,14,1,-11,0,-2
1532122276383,-1,1,-2,3,-5,-19,3,-4
1532122276388,-2,-1,-5,-11,-5,-2,1,-2
1532122276393,-1,1,2,9,1,-11,-1,1
1532122276398,1,0,0,-5,-1,-2,-13,-3
1532122276403,0,0,0,2,0,-4,12,-1
1532122276408,-1,1,-1,-3,-1,6,-4,-2
1532122276413,1,0,-1,4,-3,-12,0,1
1532122276418,0,-2,-7,-6,-2,4,2,1
1532122276423,0,-2,-3,-3,0,-7,-3,1
1532122276428,-2,-2,3,10,2,-12,-2,3
1532122276433,-1,0,1,7,-2,-8,2,-2
1532122276438,-1,1,-10,-21,-4,-4,3,-1
1532122276443,-3,-2,8,27,3,6,-12,0
1532122276448,-2,-1,-3,-28,-7,19,2,-3
1532122276453,-2,0,-3,4,6,15,-3,2
1532122276458,-2,0,5,7,-4,-16,3,-1
1532122276463,1,1,-4,1,0,1,4,0
1532122276468,0,-1,-4,0,-1,-13,-3,-4
1532122276473,-1,-1,1,12,0,-11,1,-2
1532122276478,0,-2,-2,-8,-2,12,3,0
1532122276483,0,-1,-11,-26,-7,-3,-2,-3
1532122276488,-1,-2,4,10,1,-3,0,0
1532122276493,-1,0,0,-10,1,2,-7,-2
1532122276498,-1,0,6,-8,-3,4,6,2
1532122276503,0,-3,-2,0,8,24,-3,-1
1532122276508,1,0,2,5,2,-2,1,-2
1532122276513,-1,0,1,2,1,2,-2,-4
1532122276518,-3,-1,2,2,1,8,-4,-3
1532122276523,0,-1,1,-4,-6,2,-1,0
1532122276528,-1,-1,0,3,3,9,0,-1
1532122276533,-1,-2,-2,-5,-6,5,2,1
1532122276538,0,-1,-3,-12,2,21,-6,-1
1532122276543,-1,0,0,7,-1,1,-1,1
1532122276548,-4,-2,-1,2,4,5,-1,-4
1532122276553,0,1,0,-2,-1,3,1,-2
1532122276558,1,-2,-4,-1,-1,-6,2,-1
1532122276563,0,-1,1,2,-4,-17,-2,0
1532122276568,-1,0,-4,-10,-1,10,7,-1
1532122276573,-1,-1,-1,-4,-1,6,-4,0
1532122276578,-2,-1,1,4,-1,-5,-4,-3
1532122276583,0,0,2,10,-2,-1,0,-3
1532122276588,0,-1,1,7,-1,-10,-3,-3
1532122276593,0,-2,-10,-43,-5,14,2,1
1532122276598,-2,-2,-2,8,2,12,-2,4
1532122276603,-1,-1,1,-5,0,5,-4,0
1532122276608,0,2,1,13,-5,-6,-3,-2
1532122276613,0,-1,3,11,2,4,0,-2
1532122276618,-1,-1,-1,1,0,-7,-5,-5
1532122276623,-1,-2,-2,-7,-1,2,0,0
1532122276628,0,-2,0,-2,-4,-1,-9,-1
1532122276633,-2,-1,-3,2,0,0,10,-1
1532122276638,0,0,2,-6,-7,-12,7,3
1532122276643,-2,-1,-3,-3,10,-5,-2,-3
1532122276648,-3,-2,-4,-2,-1,-34,-8,-2
1532122276653,0,0,0,-4,0,-47,2,-2
1532122276658,-1,0,2,10,4,6,0,0
1532122276663,1,1,3,-10,-5,4,6,0
1532122276668,-1,-4,-3,9,2,39,-2,0
1532122276673,-3,0,-1,-6,-2,22,-2,1
1532122276678,0,-1,1,9,-1,21,-1,-1
1532122276683,-2,-1,-5,-15,-6,14,-3,-3
1532122276688,-1,-1,-2,-2,-3,11,-4,1
1532122276693,0,0,2,6,-4,15,-1,-2
1532122276698,-1,-1,-3,-8,-5,-4,1,-4
1532122276703,0,-1,0,19,4,2,-2,-2
1532122276708,0,-2,-3,-22,-2,-13,-2,1
1532122276713,-1,-1,0,18,1,-10,2,1
1532122276718,0,-1,-3,-12,-2,-81,0,0
1532122276723,-2,-3,-7,-18,-6,-6,-3,0
1532122276728,0,0,2,7,-1,-12,5,2
1532122276733,0,-2,-1,-16,-4,8,-5,-1
1532122276738,0,0,-3,21,4,34,-5,-3
1532122276743,-1,0,3,0,-1,12,3,-2
1532122276748,0,0,-3,-5,2,14,-5,-1
1532122276753,-1,-2,-1,-1,2,15,6,0
1532122276758,1,-2,1,6,0,9,-1,1
1532122276763,1,-1,-1,1,-1,-5,5,3
1532122276768,1,0,-3,-8,-6,-1,3,-1
1532122276773,-2,1,1,15,0,-8,-10,-5
1532122276778,-1,-1,-6,-9,-3,0,-1,-2
1532122276783,-1,1,3,-7,1,-1,-3,3
1532122276788,1,0,1,2,-2,-15,2,0
1532122276793,-1,-1,-2,2,-2,-6,2,1
1532122276798,-1,-2,-2,1,6,8,-5,-2
1532122276803,-3,-1,0,4,-2,-3,-4,0
1532122276808,0,2,1,0,4,-4,1,1
1532122276813,-3,-4,-4,-29,-13,-7,1,-1
1532122276818,-2,-1,-1,5,3,1,-3,-1
1532122276823,0,-1,1,7,3,-14,2,0
1532122276828,2,0,0,6,0,-13,3,-3
1532122276833,-2,-2,-2,-19,-2,-1,-13,1
1532122276838,0,2,0,-7,-7,10,8,0
1532122276843,-3,-3,-3,-6,0,-3,-3,-3
1532122276848,0,0,3,15,3,-1,4,0
1532122276853,3,1,-3,3,0,12,5,3
1532122276858,-3,-2,1,2,4,8,-6,-2
1532122276863,-1,0,-2,2,-4,1,0,-2
1532122276868,-1,-2,-6,-9,-6,9,0,1
1532122276873,0,2,3,9,3,4,3,-1
1532122276878,2,0,-4,-15,-8,0,1,3
1532122276883,-1,-1,1,13,4,0,0,-4
1532122276888,-2,0,-4,-21,-8,7,0,-2
1532122276893,1,1,-1,9,0,-3,-1,-1
1532122276898,1,-2,-2,-2,1,10,2,1
1532122276903,0,-1,2,-11,-7,-1,-5,-3
1532122276908,-1,-3,-3,14,7,18,1,1
1532122276913,-2,0,0,5,1,1,-3,-1
1532122276918,-1,-1,2,5,1,9,-1,-2
1532122276923,0,-1,-4,-3,0,-1,6,3
1532122276928,-1,-1,6,4,0,0,-9,-5
1532122276933,0,-1,1,3,-2,3,2,-2
1532122276938,-1,-1,-7,-15,-5,-8,-4,-3
1532122276943,-1,-2,0,2,3,5,2,1
1532122276948,0,-1,1,-4,-7,-3,1,0
1532122276953,-1,1,2,11,3,-1,1,1
1532122276958,-2,-2,-3,-15,-6,-4,0,-1
1532122276963,0,1,-1,5,0,6,-2,-3
1532122276968,-2,0,-1,-6,0,-3,-4,-3
1532122276973,0,-2,-3,8,-1,-5,-10,-2
1532122276978,-1,1,0,-6,1,2,9,1
1532122276983,-1,-2,-1,12,-2,-9,0,2
1532122276988,-1,-1,1,2,8,12,-4,-1
1532122276993,-1,-3,-9,-13,-4,3,1,0
1532122276998,-1,1,7,17,4,3,-6,-2
1532122277003,-1,-3,-4,-13,-5,1,-2,-1
1532122277008,-2,0,-2,-7,-2,-1,0,-2
1532122277013,-1,-3,0,1,-2,0,-1,0
1532122277018,1,1,-1,5,0,6,0,-1
1532122277023,-1,0,3,5,3,4,-2,0
1532122277028,-2,0,2,-1,-7,-5,-3,-4
1532122277033,-2,-1,-4,-3,4,5,0,0
1532122277038,0,0,3,5,-1,-1,-1,3
1532122277043,0,1,1,12,-2,0,-2,-1
1532122277048,-2,-2,-2,-16,-4,-2,5,-1
1532122277053,-1,0,2,1,-2,0,-5,1
1532122277058,1,-2,-2,-4,-1,0,5,1
1532122277063,1,0,-1,2,1,1,0,1
1532122277068,0,-2,1,19,2,2,3,-2
1532122277073,-2,-2,-6,-25,-6,0,-3,-1
1532122277078,-2,-4,2,10,1,6,-4,0
1532122277083,-1,-1,3,4,1,4,-1,-4
1532122277088,0,-1,-4,-6,-1,3,0,3
1532122277093,0,1,6,21,-2,-10,3,-5
1532122277098,-1,-2,-7,-17,3,2,-4,1
1532122277103,-3,1,-1,-7,0,-5,0,-1
1532122277108,0,-2,-1,-4,-3,3,4,3
1532122277113,-1,0,1,8,1,-3,-4,-3
1532122277118,-1,0,-3,-7,-5,-8,2,-3
1532122277123,-2,-2,0,3,-1,-1,-7,-3
1532122277128,0,-2,2,1,2,1,-9,-1
1532122277133,1,-2,0,6,3,1,10,5
1532122277138,-3,-2,-3,-7,-6,-12,-6,-6
1532122277143,-1,-1,-3,-10,-1,1,-1,-1
1532122277148,0,2,-2,-4,-6,-5,0,1
1532122277153,-1,-4,-1,0,-1,-3,-3,-4
1532122277158,2,2,7,15,3,0,-1,0
1532122277163,0,-2,-4,-4,-1,0,-2,1
1532122277168,0,-3,-6,-10,-3,-3,-2,-2
1532122277173,0,1,1,2,1,4,-4,-1
1532122277178,0,-1,3,5,-3,-1,4,0
1532122277183,-1,-3,-6,-21,-10,-10,6,0
1532122277188,-2,0,-5,8,5,11,-17,-7
1532122277193,-3,-2,-5,-14,-3,1,3,-2
1532122277198,-1,-3,3,9,4,4,-9,0
1532122277203,-2,0,1,3,0,3,5,0
1532122277208,-1,1,-2,-3,-2,-8,6,0
1532122277213,-1,-1,4,31,-1,-6,-3,-4
1532122277218,1,0,-8,-34,0,-1,-1,0
1532122277223,-2,-2,3,0,-2,4,-1,6
1532122277228,-2,0,-3,-3,2,7,6,0
1532122277233,0,-2,-3,-6,1,4,1,0
1532122277238,-1,0,4,10,2,0,-2,-1
1532122277243,0,-1,1,5,1,1,1,-1
1532122277248,0,-2,-5,-14,-3,-24,1,-2
1532122277253,-2,0,1,0,3,7,-5,2
1532122277258,0,-2,1,4,-2,3,4,-1
1532122277263,0,-1,-5,-7,-1,0,1,-1
1532122277268,1,1,5,2,-4,1,-2,-4
1532122277273,0,-3,0,12,-3,1,-6,-1
1532122277278,-4,0,-13,-29,-2,2,4,0
1532122277283,0,0,3,11,0,8,-6,0
1532122277288,0,0,-2,-9,0,17,-1,1
1532122277293,1,0,3,10,-3,-3,3,0
1532122277298,-2,-3,-7,-19,-2,6,-1,-1
1532122277303,0,0,8,29,2,3,3,2
1532122277308,-2,-1,-6,-16,-4,-5,-7,-2
1532122277313,-3,-3,-10,-37,-3,18,-7,-3
1532122277318,1,-3,5,13,-1,1,-2,1
1532122277323,-1,-2,-4,-11,0,6,1,-1
1532122277328,1,-1,7,24,2,4,4,1
1532122277333,0,1,-1,8,4,-2,5,-1
1532122277338,-4,-2,8,34,-1,-2,-7,-8
1532122277343,-2,0,-12,-51,-4,7,1,-1
1532122277348,-1,-2,1,17,5,4,-6,3
1532122277353,-2,2,8,24,-3,-8,8,-7
1532122277358,-2,-3,-13,-33,0,17,1,2
1532122277363,1,-1,1,7,0,1,-1,-2
1532122277368,-2,0,-1,-8,-3,-2,-1,-4
1532122277373,-1,-1,1,2,0,-2,-3,1
1532122277378,1,0,6,18,1,-14,2,-1
1532122277383,-1,0,-2,1,-6,-12,2,-4
1532122277388,-1,-1,4,7,-1,13,0,2
1532122277393,0,-1,-11,-17,-3,-1,0,0
1532122277398,-3,1,7,-2,1,10,-5,-2
1532122277403,3,5,-7,-9,0,-4,-5,4
1532122277408,-2,-5,-3,3,0,-8,4,-4
1532122277413,0,-2,2,-3,1,-12,-3,-1
1532122277418,0,-1,1,-7,-8,1,-3,0
1532122277423,0,-3,0,29,7,3,-7,-2
1532122277428,-1,-3,-2,-17,3,-3,2,-4
1532122277433,-1,-1,2,-16,-5,11,-5,2
1532122277438,1,1,-6,-7,0,-4,-6,2
1532122277443,0,0,7,8,-5,-25,13,6
1532122277448,-1,3,0,14,-1,-19,-8,-7
1532122277453,0,-2,2,6,7,-5,-1,-5
1532122277458,0,2,8,21,2,-38,1,-2
1532122277463,-4,-2,-5,-42,6,22,-2,-1
1532122277468,-3,-7,-3,-5,-8,-33,3,6
1532122277473,2,7,-2,-11,-4,-7,-2,3
1532122277478,-3,-2,6,41,6,-4,4,-5
1532122277483,-2,-2,-2,-21,2,7,-1,-7
1532122277488,-2,1,-14,-40,-5,40,-8,1
1532122277493,-1,-4,4,-1,8,28,3,3
1532122277498,3,6,-1,4,1,21,3,1
1532122277503,11,13,22,34,2,24,4,7
1532122277508,0,-14,-12,10,10,34,0,-3
1532122277513,2,2,-5,3,-16,7,4,-6
1532122277518,-1,-4,-7,-6,14,90,-6,4
1532122277523,-7,-3,-3,-27,-3,56,-6,-2
1532122277528,-1,6,8,17,-4,29,-1,2
1532122277533,-4,-2,0,12,-9,-20,-5,-5
1532122277538,0,0,3,2,-2,85,8,-5
1532122277543,-2,1,1,18,-1,12,-3,-4
1532122277548,-1,0,10,10,2,13,-2,-3
1532122277553,-4,-7,-24,-36,1,-15,3,-1
1532122277558,0,1,-1,-14,-12,-80,1,1
1532122277563,-1,-6,-6,5,-7,-52,-11,-3
1532122277568,-2,-1,-4,-8,-3,-12,-2,-2
1532122277573,-1,-4,-6,1,-2,-18,3,-4
1532122277578,-1,4,2,-4,-2,14,-4,-2
1532122277583,-2,-3,5,1,2,0,5,4
1532122277588,-1,-2,-1,1,-1,-15,-6,-4
1532122277593,-2,-3,-5,-1,2,4,2,-2
1532122277598,-1,1,-4,-4,3,-10,7,3
1532122277603,-2,1,1,-3,-2,16,-10,-1
1532122277608,0,-1,-3,-5,-2,-4,-5,1
1532122277613,-2,-3,-3,-1,-6,-10,-1,-3
1532122277618,0,-1,0,8,-1,13,-2,-3
1532122277623,1,-3,4,12,4,6,9,3
1532122277628,-1,0,1,-5,-4,-9,-2,1
1532122277633,-1,-2,-2,2,-1,7,2,1
1532122277638,0,-2,1,4,0,-3,-4,-2
1532122277643,-1,0,-7,-5,-1,-3,1,-5
1532122277648,-1,-2,-1,-1,-2,2,1,1
1532122277653,1,-3,-1,-6,-2,0,4,1
1532122277658,1,-1,-5,-5,-5,10,1,2
1532122277663,1,1,-1,-1,-2,-2,-5,4
1532122277668,0,2,5,12,2,-7,-3,-8
1532122277673,0,2,0,4,-2,-6,-1,-8
1532122277678,-5,-8,-12,-11,-2,11,-6,-4
1532122277683,2,2,17,9,5,13,3,3
1532122277688,-1,8,2,-2,-7,-10,1,6
1532122277693,-6,-15,-31,-14,-6,-9,-6,-3
1532122277698,-1,-5,-2,-10,-3,5,4,4
1532122277703,-2,0,10,20,3,-3,0,-1
1532122277708,-1,-6,-10,0,-4,3,4,-4
1532122277713,-1,3,-5,-64,-1,18,-1,6
1532122277718,-2,1,-5,-6,-4,-7,-4,0
1532122277723,-1,-3,-2,-5,1,13,-3,1
1532122277728,2,2,10,14,0,-15,1,-1
1532122277733,0,1,7,28,1,-11,3,0
1532122277738,0,1,1,12,3,-11,-10,-2
1532122277743,-1,-1,-6,2,-3,-4,8,-4
1532122277748,-2,-5,-11,-16,-3,2,-3,-1
1532122277753,-1,-3,1,1,-2,1,-2,-2
1532122277758,1,2,9,1,2,-19,-1,0
1532122277763,-1,1,0,7,-2,-1,-5,-4
1532122277768,-1,-5,-12,-11,5,2,2,3
1532122277773,-3,0,3,0,-7,-14,-2,-3
1532122277778,0,3,4,3,2,6,-1,-2
1532122277783,0,-2,-5,-6,-4,-63,0,1
1532122277788,-1,-3,-1,-2,4,-29,0,0
1532122277793,0,2,6,13,5,-4,-7,-4
1532122277798,-1,0,-3,3,-3,0,0,-3
1532122277803,0,0,-6,-7,1,34,-6,-3
1532122277808,1,0,5,0,1,21,9,0
1532122277813,1,1,3,10,1,2,1,2
1532122277818,-1,0,0,-2,1,13,-1,-1
1532122277823,-2,-2,-5,-8,-1,23,1,1
1532122277828,-1,-1,3,4,-2,3,-9,-4
1532122277833,-2,0,0,6,1,6,-5,-1
1532122277838,1,-1,1,3,1,7,9,1
1532122277843,0,0,-2,-4,-2,-4,3,-2
1532122277848,-1,-1,2,-11,-6,-13,2,-4
1532122277853,0,-2,-5,4,-1,-7,3,1
1532122277858,-2,-1,1,-4,0,0,-3,2
1532122277863,-1,-1,0,1,-2,0,-1,-1
1532122277868,-2,-3,-7,-2,-1,4,-5,0
1532122277873,0,0,5,0,1,-29,2,-1
1532122277878,-2,0,-2,-1,-3,-83,5,-3
1532122277883,-2,-3,-1,2,2,-19,-7,-1
1532122277888,-1,-2,-3,1,-2,-19,-3,-3
1532122277893,0,0,4,2,0,7,3,2
1532122277898,0,-2,-8,-10,-3,35,-4,-3
1532122277903,-1,0,-2,-4,0,26,2,-2
1532122277908,0,-1,2,2,-1,25,3,0
1532122277913,-2,2,2,3,-1,-11,-8,-1
1532122277918,2,2,2,1,-1,-8,10,2
1532122277923,-2,-4,-5,-4,0,-3,-5,-7
1532122277928,0,-2,0,3,0,14,-3,2
1532122277933,-1,0,5,6,1,15,4,0
1532122277938,0,-1,-5,-7,-5,22,-2,-1
1532122277943,-3,-1,-3,-3,-2,8,-2,0
1532122277948,-3,-1,0,5,-1,10,-1,0
1532122277953,0,0,0,4,-1,12,8,1
1532122277958,0,-1,1,-1,-1,-8,-12,-4
1532122277963,-2,-1,4,3,-1,-3,1,1
1532122277968,2,2,11,18,0,-20,0,-4
1532122277973,-4,-8,-27,-49,-4,3,2,3
1532122277978,-2,-3,3,2,-1,6,-11,0
1532122277983,-1,-1,-2,-5,0,7,1,-2
1532122277988,0,1,2,0,-1,11,-1,2
1532122277993,0,2,4,10,1,6,1,-3
1532122277998,-2,-1,-2,1,-1,-28,4,-1
1532122278003,-1,1,-2,-3,-2,-15,-1,1
1532122278008,-2,-2,-5,-2,-1,1,0,0
1532122278013,0,-2,0,3,-2,11,-4,0
1532122278018,-1,-2,-1,0,0,24,-1,-1
1532122278023,0,-2,2,0,0,10,-4,-2
1532122278028,0,2,2,8,2,-7,-4,0
1532122278033,0,0,-6,-11,-3,-3,7,-1
1532122278038,0,0,2,1,-1,6,1,1
1532122278043,-2,-1,-1,3,1,6,-10,-5
1532122278048,-2,-3,-2,-8,-1,-5,-1,-1
1532122278053,-2,-3,3,6,2,4,-8,-4
1532122278058,1,2,6,13,-4,12,7,2
1532122278063,2,-1,-4,15,-3,0,-7,-3
1532122278068,-1,-4,-19,-41,-4,2,-2,-2
1532122278073,-2,-2,8,15,-2,-55,-5,-1
1532122278078,-3,-5,-12,-31,2,-40,0,-1
1532122278083,0,0,4,16,-5,-40,7,1
1532122278088,-1,2,7,23,1,6,-2,-1
1532122278093,-1,-1,-6,-12,-4,25,2,-2
1532122278098,0,0,1,10,1,19,-5,0
1532122278103,-1,-1,3,5,5,18,-1,0
1532122278108,-3,-3,3,-7,-1,32,-1,0
1532122278113,0,0,2,3,1,29,-1,1
1532122278118,-1,-1,2,1,3,22,-4,-2
1532122278123,0,1,-1,-3,2,19,1,0
1532122278128,0,-1,-3,4,-2,7,2,0
1532122278133,-1,2,3,12,2,16,-3,2
1532122278138,1,-3,-6,-14,-4,12,-3,-3
1532122278143,-1,1,2,0,0,10,2,1
1532122278148,-1,0,2,1,-3,1,0,-2
1532122278153,-1,-3,-6,-13,-4,-7,-2,-5
1532122278158,-1,-1,4,12,0,-2,-1,-2
1532122278163,-1,-3,-7,-6,3,3,2,-2
1532122278168,-1,-2,0,-12,-2,-6,-2,7
1532122278173,0,0,3,10,1,-10,-2,1
1532122278178,-3,1,1,-8,-4,-7,-5,0
1532122278183,0,-3,-4,-11,-4,6,1,-1
1532122278188,0,0,5,25,3,-3,0,-3
1532122278193,-1,1,-3,-31,-3,2,3,-3
1532122278198,0,0,7,28,4,5,1,-2
1532122278203,1,3,-2,-38,-6,-5,3,1
1532122278208,-3,-2,-2,1,-1,-16,-1,-2
1532122278213,-1,-6,0,20,-3,-12,0,-5
1532122278218,0,-1,-2,16,1,-7,-1,-4
1532122278223,-2,-4,-11,-49,-8,-11,-2,3
1532122278228,1,-1,2,4,-3,-29,2,-1
1532122278233,0,2,-1,-12,-3,-53,2,-2
1532122278238,0,2,8,23,5,-4,5,0
1532122278243,2,-2,0,15,3,19,2,1
1532122278248,1,0,-5,-16,-2,40,0,2
1532122278253,1,1,6,13,4,43,1,-1
1532122278258,-2,1,-6,-14,-2,38,-1,-1
1532122278263,-3,-1,0,9,-1,23,2,-3
1532122278268,-1,-5,-6,-16,-6,12,0,-3
1532122278273,-1,2,9,20,5,21,-1,1
1532122278278,0,-2,-2,-12,-1,5,-1,2
1532122278283,-3,-2,0,-5,-3,-4,-3,-3
1532122278288,0,-5,-16,3,0,-10,-4,-4
1532122278293,-2,-4,-2,0,-3,-8,-2,0
1532122278298,1,3,4,-2,-1,-11,-2,-2
1532122278303,0,-1,5,-6,2,5,-2,4
1532122278308,-1,1,-1,-6,0,8,-2,2
1532122278313,1,-1,-3,-13,-1,7,-4,1
1532122278318,-2,0,4,3,3,-4,-10,0
1532122278323,0,2,5,25,-1,-6,1,0
1532122278328,-1,2,7,10,2,8,-4,-6
1532122278333,-1,-1,-3,5,-2,29,2,-5
1532122278338,-1,-4,-11,-1,-2,22,-3,-5
1532122278343,0,2,11,47,3,23,-4,-5
1532122278348,-2,-1,-25,-62,-5,-14,4,-2
1532122278353,-1,1,6,1,-2,-28,1,4
1532122278358,-1,-1,-4,-8,-1,-34,-3,-5
1532122278363,0,-1,-1,-6,-2,-23,1,-2
1532122278368,0,2,12,26,-1,-28,0,-2
1532122278373,0,-2,-6,5,4,-13,-3,-2
1532122278378,0,-4,-1,-41,-4,-6,5,-1
1532122278383,-3,-4,-15,-28,-4,2,-6,-1
1532122278388,2,2,9,25,4,-5,-1,2
1532122278393,2,2,-6,-25,-2,-4,-1,1
1532122278398,-1,1,5,30,0,-7,4,0
1532122278403,-1,-1,2,9,0,-19,-2,-4
1532122278408,-3,-1,-1,-8,-3,11,-1,-2
1532122278413,0,2,2,14,0,22,-2,-1
1532122278418,1,-1,-4,-10,-2,14,-2,0
1532122278423,-1,-1,-4,-13,-5,20,0,1
1532122278428,-1,-3,-2,-3,1,16,6,1
1532122278433,-2,1,5,12,1,-22,4,-5
1532122278438,-1,-1,3,24,1,2,-2,0
1532122278443,0,-1,-5,-27,1,-7,1,-1
1532122278448,-1,1,7,10,2,12,-2,3
1532122278453,-1,-3,-7,-3,-7,3,1,-1
1532122278458,-1,-6,-11,-16,-5,-16,1,0
1532122278463,0,0,13,38,5,-23,2,0
1532122278468,1,-1,3,2,0,-19,-2,-7
1532122278473,-1,-5,-24,-83,-5,14,-3,6
1532122278478,-3,-1,0,7,3,-9,-3,0
1532122278483,0,-4,-6,-17,-2,-2,-3,-2
1532122278488,2,3,19,34,5,-2,-1,1
1532122278493,-2,7,25,23,4,8,1,1
1532122278498,-2,1,-32,-21,-8,4,-4,-7
1532122278503,-5,-12,-9,13,-2,5,-2,-4
1532122278508,-1,-5,-15,-17,-3,-6,-2,-4
1532122278513,0,-2,2,14,2,-3,-1,0
1532122278518,1,4,14,0,1,3,5,6
1532122278523,0,5,5,11,-3,-16,-3,-1
1532122278528,-2,-1,-5,-6,-1,-1,0,-1
1532122278533,0,-1,-1,-8,-1,1,-2,0
1532122278538,-2,1,4,8,0,-1,-1,-4
1532122278543,0,1,-5,-5,-2,0,1,0
1532122278548,-1,-2,4,7,-2,-6,-1,-1
1532122278553,-2,-1,-2,4,-3,-1,-4,-1
1532122278558,0,-1,-4,-12,0,7,2,1
1532122278563,0,2,4,5,2,-4,1,-1
1532122278568,0,0,1,0,5,-3,-5,-4
1532122278573,-1,-3,-4,2,-3,-9,0,0
1532122278578,-1,-2,2,4,2,-1,-1,0
1532122278583,0,0,3,-6,0,-8,0,0
1532122278588,0,0,0,-5,-7,-6,0,-1
1532122278593,-1,-4,-6,11,1,-2,-2,-2
1532122278598,1,1,15,35,7,1,5,2
1532122278603,0,-3,-22,-70,-5,16,-1,2
1532122278608,-3,-2,-1,1,0,0,-3,0
1532122278613,1,0,-3,4,-3,6,-1,-2
1532122278618,0,0,0,6,-5,-1,7,0
1532122278623,-1,1,4,24,5,5,2,1
1532122278628,0,-1,-4,-14,-3,-3,0,1
1532122278633,0,-1,2,0,1,3,-2,-4
1532122278638,1,-1,-1,3,0,0,-1,-2
1532122278643,-1,1,2,6,0,1,0,-1
1532122278648,-2,-1,-3,-7,-3,21,0,2
1532122278653,-2,0,1,6,0,4,-1,-1
1532122278658,-1,-1,-4,-14,-2,7,-2,-1
1532122278663,-2,-1,0,-1,-2,-1,1,1
1532122278668,-1,0,0,3,-1,-4,-8,-4
1532122278673,-1,-1,1,5,1,-4,4,-1
1532122278678,0,-2,-5,-16,-3,-4,-5,1
1532122278683,-2,-1,2,7,3,0,-7,-8
1532122278688,1,-1,1,7,0,3,0,0
1532122278693,-2,-1,-3,-2,-2,4,-2,-2
1532122278698,-3,-2,-2,-12,-2,-9,-1,0
1532122278703,0,0,2,14,1,-13,-2,0
1532122278708,1,-1,-2,-8,-2,-15,-1,-3
1532122278713,-1,-1,1,-7,-2,-14,-3,-3
1532122278718,1,0,2,6,2,1,-1,3
1532122278723,-1,-1,-5,-14,-5,-5,-5,0
1532122278728,-1,0,0,4,1,2,3,0
1532122278733,-1,-1,-2,0,2,-11,1,1
1532122278738,0,1,0,2,-2,0,-5,-4
1532122278743,1,0,-1,7,0,11,5,3
1532122278748,-1,1,1,-6,3,7,-3,-2
1532122278753,1,1,2,2,-5,23,3,4
1532122278758,-3,-1,-1,-9,-1,10,-1,-2
1532122278763,1,0,-2,1,-4,10,0,2
1532122278768,-1,-2,-2,-3,-1,16,6,2
1532122278773,0,-1,-2,2,1,4,-7,-5
1532122278778,-1,-2,-3,-6,0,0,-3,-3
1532122278783,0,-1,4,2,0,10,2,1
1532122278788,0,-1,-2,0,-1,-5,-2,-1
1532122278793,-1,-1,-1,1,0,-3,4,3
1532122278798,-1,-2,-3,-12,-4,2,1,-3
1532122278803,-1,0,0,4,-1,9,-3,-7
1532122278808,0,-1,-1,0,-3,5,0,1
1532122278813,-1,-3,-3,-2,-2,10,-2,-3
1532122278818,0,1,0,9,1,3,1,2
1532122278823,1,0,1,1,-3,-4,2,3
1532122278828,-1,-2,-4,-9,0,0,-3,-3
1532122278833,-1,-1,-3,-4,-1,0,0,1
1532122278838,-1,-3,0,-1,0,-3,-2,-1
1532122278843,-1,1,1,3,-2,-6,1,1
1532122278848,-2,0,-3,3,-2,-4,-3,0
1532122278853,-1,0,0,-2,1,-5,0,-2
1532122278858,-2,-1,-3,-4,-5,-7,-8,-3
1532122278863,0,-1,0,0,0,-4,0,-2
1532122278868,0,-1,0,4,4,-5,-2,-3
1532122278873,0,-1,-4,-5,-2,-6,-3,-2
1532122278878,1,-2,-1,-2,-1,-2,-2,-1
1532122278883,-1,0,2,0,1,-4,3,0
1532122278888,-1,-2,1,2,2,-3,7,1
1532122278893,-2,-1,2,3,2,-2,1,0
1532122278898,0,-2,-4,-8,-3,-1,0,-1
1532122278903,-2,0,0,-1,0,-2,-1,0
1532122278908,-2,-1,-4,2,-1,1,-3,-2
1532122278913,0,1,4,11,1,0,-1,-1
1532122278918,-1,-2,-9,-13,-2,-1,2,-1
1532122278923,-2,-3,-1,-5,0,3,-5,-2
1532122278928,0,0,0,2,-3,-2,0,1
1532122278933,-1,0,-1,-3,-2,1,-3,-2
1532122278938,0,-1,1,7,1,6,1,-1
1532122278943,0,-1,-1,2,-1,1,-7,-4
1532122278948,0,-2,-1,-5,-1,1,6,2
1532122278953,0,-1,-2,-3,-4,-2,-1,1
1532122278958,-2,-1,2,5,3,0,-3,-4
1532122278963,0,0,-1,-1,0,-3,-1,1
1532122278968,0,0,-1,-1,-3,-4,0,-2
1532122278973,2,1,-1,2,0,12,3,1
1532122278978,1,1,2,3,1,5,2,2
1532122278983,-1,-1,-1,-1,-2,-1,-3,-2
1532122278988,-2,0,1,0,-1,-1,-5,0
1532122278993,-1,-1,-3,-5,-2,2,0,-3
1532122278998,-1,3,0,-3,-1,1,0,-1
1532122279003,-1,0,6,18,0,-4,1,0
1532122279008,0,1,-3,-8,-1,-1,1,-1
1532122279013,-2,-5,-11,-24,-1,6,-6,-1
1532122279018,-2,-1,-1,1,-3,4,0,0
1532122279023,-1,1,-2,-5,-1,2,0,0
1532122279028,0,2,1,7,-2,3,-2,-1
1532122279033,-1,0,1,4,-2,-4,-2,-3
1532122279038,1,-2,-1,-4,0,2,1,0
1532122279043,0,0,-2,-1,0,0,1,0
1532122279048,-1,-3,0,2,0,0,-7,0
1532122279053,0,0,0,-2,0,1,6,-2
1532122279058,-2,-2,-2,-1,-1,0,-7,-4
1532122279063,-1,-1,-1,0,1,6,-1,2
1532122279068,0,2,6,2,-1,0,0,-2
1532122279073,-3,-2,-10,-10,0,2,-5,-1
1532122279078,0,-4,-2,2,-2,-11,1,-1
1532122279083,0,0,-2,-1,0,-6,-1,1
1532122279088,-1,-1,0,-7,1,2,-4,-2
1532122279093,0,0,1,10,0,1,0,1
1532122279098,1,2,3,-4,-4,4,2,1
1532122279103,-1,-4,-7,-1,-2,4,-9,-3
1532122279108,-3,-4,-3,2,0,6,7,-1
1532122279113,0,4,13,6,-2,4,-4,-2
1532122279118,-1,-1,-3,-1,1,4,-4,-2
1532122279123,1,2,-1,-2,-3,-6,3,2
1532122279128,-2,-1,1,1,-2,0,-4,1
1532122279133,1,-1,-1,1,-4,-12,2,-5
1532122279138,-4,-8,-17,0,0,-5,-9,-5
1532122279143,2,-2,-2,-6,1,2,-2,-2
1532122279148,2,-3,-2,-6,-2,-3,-11,-1
1532122279153,1,4,11,5,3,15,9,4
1532122279158,1,5,7,1,0,-4,5,2
1532122279163,-2,0,2,5,3,1,2,-2
1532122279168,-2,6,4,1,0,-4,-1,-4
1532122279173,-2,-9,-9,-2,-2,-6,-14,-1
1532122279178,-2,2,1,-1,-2,7,3,1
1532122279183,-4,-5,-8,-6,2,4,2,-1
1532122279188,1,-1,2,-3,1,-5,-5,0
1532122279193,-1,4,2,-3,-1,-6,0,-1
1532122279198,0,0,1,-2,0,6,1,1
1532122279203,-4,-1,-2,0,-4,3,0,-2
1532122279208,1,1,-1,3,-9,-5,2,0
1532122279213,-2,-4,-7,-3,-8,11,-10,-2
1532122279218,0,0,2,-2,-4,103,6,0
1532122279223,-1,0,1,-5,-3,77,-9,-2
1532122279228,0,-1,-3,2,1,11,4,0
1532122279233,-2,1,6,13,4,-32,3,-1
1532122279238,2,-1,-2,-2,-7,-64,3,1
1532122279243,0,2,11,-2,5,-20,-16,-3
1532122279248,-3,-1,-4,-2,1,-16,3,-3
1532122279253,-3,-4,-2,-4,0,-15,-5,0
1532122279258,-1,-2,4,14,3,-26,-2,0
1532122279263,0,-2,-2,-3,-1,-31,8,1
1532122279268,0,-1,-2,0,0,-21,0,1
1532122279273,0,-1,5,14,3,-8,3,-1
1532122279278,-1,-2,-4,-5,2,-13,-7,-4
1532122279283,0,-3,-4,-16,-3,-14,8,4
1532122279288,-1,-1,4,-3,0,0,0,-1
1532122279293,-1,-3,-4,-5,1,6,8,2
1532122279298,-1,1,0,4,0,-8,-8,-1
1532122279303,1,1,0,0,-2,-3,0,-1
1532122279308,0,0,-3,-2,-1,12,5,-1
1532122279313,0,-2,-4,-5,2,6,2,-4
1532122279318,-3,-2,0,-7,-2,26,5,3
1532122279323,-1,3,-1,2,1,0,-11,-5
1532122279328,-3,-1,0,15,6,5,0,-1
1532122279333,0,-4,-4,-18,0,-8,-5,0
1532122279338,-1,-1,-4,-8,1,-13,2,2
1532122279343,-2,0,2,2,0,-11,0,-2
1532122279348,-2,-3,-6,8,-2,-1,-2,-2
1532122279353,-2,0,-7,-9,-4,0,7,-2
1532122279358,-4,3,14,14,1,-1,-7,-4
1532122279363,3,-6,-10,-11,-9,-6,1,3
1532122279368,-2,1,6,1,-1,-6,-8,-3
1532122279373,-1,-7,-8,28,4,-10,1,-5
1532122279378,-1,-10,-16,-43,-2,5,1,0
1532122279383,-1,0,2,8,-3,-6,-2,-1
1532122279388,-3,0,-2,-11,1,-2,-8,1
1532122279393,1,8,5,3,1,1,-7,-2
1532122279398,0,3,7,31,2,10,2,-1
1532122279403,-4,-6,-3,-12,-9,-48,-1,-1
1532122279408,2,0,-7,-18,-2,4,2,2
1532122279413,-3,1,3,0,-5,5,-3,3
1532122279418,0,-2,-1,-7,1,1,0,-2
1532122279423,-2,2,8,14,0,12,-7,-4
1532122279428,0,0,-3,9,4,27,9,1
1532122279433,-1,1,-5,-17,-2,15,-3,0
1532122279438,-2,2,9,15,-1,0,0,3
1532122279443,-1,-7,-11,-10,-2,7,5,0
1532122279448,2,-1,12,3,-2,5,0,-1
1532122279453,0,-3,-11,7,-1,14,1,1
1532122279458,0,5,-4,-50,-7,-16,2,-2
1532122279463,-3,-4,-2,-19,7,39,-12,-1
1532122279468,-3,-3,1,4,-4,-7,3,-3
1532122279473,0,-1,3,-3,-3,-2,0,-2
1532122279478,-1,0,5,25,-2,-12,-8,-3
1532122279483,0,4,0,9,-1,0,5,0
1532122279488,-1,1,-3,-5,2,6,-1,-2
1532122279493,-3,-1,9,15,1,21,1,0
1532122279498,-1,-3,-7,-5,-4,-4,1,1
1532122279503,3,3,0,5,-3,-18,5,-4
1532122279508,-3,1,-4,-1,-2,1,-4,1
1532122279513,3,-3,-6,-11,1,-9,1,-1
1532122279518,0,-2,-2,8,1,5,-18,-5
1532122279523,-3,-6,-11,-25,-2,29,12,5
1532122279528,0,-2,8,19,-3,-8,-18,1
1532122279533,-2,0,-12,-25,-3,5,-4,-1
1532122279538,0,0,4,-1,4,6,-4,-1
1532122279543,2,1,7,18,4,11,4,1
1532122279548,0,0,-2,-7,-4,1,0,0
1532122279553,-2,1,8,9,0,-4,-1,1
1532122279558,0,-3,-2,4,-1,8,7,2
1532122279563,-1,2,9,11,-2,-8,-2,-1
1532122279568,2,-1,5,18,-1,0,9,0
1532122279573,-2,-8,-28,-57,-7,7,-17,-7
1532122279578,1,-3,-3,-7,-2,-4,6,1
1532122279583,-2,0,7,3,0,2,0,0
1532122279588,-2,-5,-6,2,-3,-4,3,-2
1532122279593,0,4,12,16,2,-3,4,1
1532122279598,-1,1,-1,8,-3,10,-8,-4
1532122279603,-3,-4,-4,2,4,-14,-4,0
1532122279608,-3,-3,-3,2,-3,-20,-1,-2
1532122279613,-2,4,3,5,2,-5,0,-2
1532122279618,-2,-8,-8,-14,-5,-12,-1,2
1532122279623,0,3,5,8,5,10,2,-1
1532122279628,1,0,0,-5,0,-9,-9,-5
1532122279633,-1,0,3,-9,-6,-18,4,-3
1532122279638,2,-1,-2,36,2,-10,-1,-10
1532122279643,1,3,3,-9,1,-1,-3,-3
1532122279648,-1,-4,-14,-72,-9,0,-1,3
1532122279653,-3,-4,-2,14,2,4,-5,4
1532122279658,-1,-3,-4,-1,-2,-11,13,3
1532122279663,0,0,-8,28,-2,-8,-5,0
1532122279668,-1,1,-5,-22,5,5,-2,-3
1532122279673,-2,6,12,20,-6,0,3,1
1532122279678,-4,-5,2,-13,-1,-7,-9,3
1532122279683,-3,-8,5,17,6,16,-2,0
1532122279688,0,-1,1,7,-3,-10,6,0
1532122279693,1,1,0,-5,-6,-2,-1,1
1532122279698,-1,3,2,4,2,5,1,-1
1532122279703,-3,-6,-8,-17,-3,4,-1,-3
1532122279708,0,-1,4,19,3,7,-11,-2
1532122279713,-1,-5,-1,-8,1,11,8,1
1532122279718,-1,-2,-1,-4,-1,10,-1,1
1532122279723,2,2,-4,-13,-9,-5,6,2
1532122279728,-1,-2,-1,9,-1,-2,-7,-5
1532122279733,1,-1,3,5,1,-3,2,-3
1532122279738,-1,1,2,5,4,5,2,0
1532122279743,-2,-1,0,-2,-4,-5,-7,-3
1532122279748,1,-1,-6,1,4,21,4,3
1532122279753,0,0,4,5,8,21,-4,1
1532122279758,-1,-1,-6,-13,-12,-24,4,-1
1532122279763,1,-4,-4,-7,-1,-5,-1,-2
1532122279768,2,2,-2,11,-4,6,-2,4
1532122279773,0,-3,-1,2,4,10,7,-1
1532122279778,2,3,5,24,5,9,4,2
1532122279783,-1,0,-11,-33,-5,1,0,-2
1532122279788,0,-2,6,-1,1,7,-6,1
1532122279793,0,0,-4,1,2,1,-2,-3
1532122279798,-2,-1,2,4,-5,0,-3,0
1532122279803,1,2,2,6,0,-4,-2,-1
1532122279808,-2,-3,0,-3,0,0,-5,-5
1532122279813,1,-1,1,-2,-6,4,5,3
1532122279818,-1,0,-2,-8,-1,4,-6,-5
1532122279823,0,2,2,2,1,13,-10,2
1532122279828,-1,0,-2,-3,-2,5,7,-2
1532122279833,0,0,2,9,1,-6,-3,-3
1532122279838,-1,-1,-1,-10,0,1,-5,1
1532122279843,0,3,1,2,-1,3,4,0
1532122279848,2,5,-3,0,-5,1,6,1
1532122279853,1,0,2,3,1,-5,-13,-3
1532122279858,1,-3,-3,-7,0,9,12,-1
1532122279863,-2,-3,-1,3,-1,-2,4,-2
1532122279868,-1,-1,-1,-1,-3,-4,7,2
1532122279873,-2,0,1,-3,-1,-5,-3,-1
1532122279878,-1,1,-1,-8,-1,7,-4,-1
1532122279883,-1,0,0,7,-2,-6,-2,-2
1532122279888,-1,-1,-2,-5,-1,-4,7,2
1532122279893,-1,-2,-1,-5,-5,-5,-3,-1
1532122279898,-2,-2,-1,-1,-1,-1,-5,-2
1532122279903,1,-2,-2,-4,-6,-5,3,-1
1532122279908,0,-2,3,7,0,6,-2,-1
1532122279913,2,0,1,11,-1,-6,-1,0
1532122279918,-1,3,6,5,2,-2,-1,1
1532122279923,1,-8,-12,-22,-3,-1,0,1
1532122279928,-1,-2,-5,-7,0,6,-10,0
1532122279933,0,-1,0,1,-2,4,8,2
1532122279938,1,-1,1,3,0,2,4,3
1532122279943,-1,4,11,13,2,-7,-13,-4
1532122279948,1,5,10,56,3,-15,0,-3
1532122279953,-6,-7,-19,-64,1,13,-4,4
1532122279958,-3,-6,-7,-12,-5,4,-8,-6
1532122279963,-1,0,-2,-4,0,-11,1,1
1532122279968,0,-1,6,10,-1,1,-4,-2
1532122279973,3,5,9,33,0,-24,3,1
1532122279978,-3,0,-3,-7,-1,-6,5,-3
1532122279983,-1,0,0,5,4,5,-8,-2
1532122279988,-2,-2,-3,-6,1,-12,15,-1
1532122279993,2,1,2,6,-1,-20,-9,-1
1532122279998,1,-1,-2,-3,2,2,2,1
1532122280003,-1,0,3,12,-3,-14,0,-3
1532122280008,-2,-3,-6,-23,0,-8,-3,1
1532122280013,1,-1,-5,-7,-3,3,-1,0
1532122280018,1,3,11,24,2,-16,-3,-1
1532122280023,-2,1,-3,9,1,-15,5,-3
1532122280028,-4,-10,-10,-43,0,16,-3,4
1532122280033,0,0,20,42,0,-54,3,-2
1532122280038,-2,-6,-44,-85,-12,-32,-3,-1
1532122280043,-1,2,15,38,12,-10,-4,-5
1532122280048,0,-1,2,-1,-16,15,8,6
1532122280053,-4,-2,-7,8,-1,31,-10,-5
1532122280058,4,7,25,46,-2,-6,-2,-5
1532122280063,4,2,-13,-34,8,19,15,10
1532122280068,-3,-2,-18,-34,-5,-14,-9,-7
1532122280073,6,1,25,45,-20,70,44,29
1532122280078,-1,-1,0,-10,2,-7,-8,-1
1532122280083,-2,0,11,-11,-5,8,-1,-2
1532122280088,-1,-1,-11,13,-3,-2,-10,-5
1532122280093,-5,-2,-9,25,17,-19,-13,-10
1532122280098,0,-2,-7,-32,3,-13,5,-6
1532122280103,0,-2,-3,9,-5,3,0,2
1532122280108,2,0,6,14,6,12,1,0
1532122280113,-1,-4,-18,-42,-6,-8,-6,-7
1532122280118,-3,-3,-2,0,2,57,-8,0
1532122280123,-3,1,2,1,-5,-6,-7,-9
1532122280128,0,0,10,1,3,19,7,2
1532122280133,-2,-1,-12,12,4,-3,-19,-7
1532122280138,1,3,17,39,4,24,9,6
1532122280143,0,-5,-9,-25,-8,17,13,6
1532122280148,-2,0,2,-7,-2,-17,-13,-1
1532122280153,-1,-2,1,-7,5,2,2,-4
1532122280158,1,1,0,-2,-8,-15,4,2
1532122280163,-2,-2,-6,12,-2,-3,0,-3
1532122280168,3,2,3,10,-6,-15,8,0
1532122280173,-2,0,-2,-22,10,19,-7,0
1532122280178,-1,-1,-4,6,-3,-2,-7,1
1532122280183,1,0,-5,-5,0,1,3,1
1532122280188,0,-1,2,6,0,-1,-4,-3
1532122280193,-2,1,-1,-20,-4,-12,-2,-5
1532122280198,0,0,0,8,2,27,7,3
1532122280203,0,0,4,5,-1,4,-19,3
1532122280208,-3,-3,-5,-15,1,-2,9,-5
1532122280213,1,0,2,0,-3,-7,-1,-1
1532122280218,-1,-3,-7,-6,-2,13,-2,4
1532122280223,-2,0,0,-1,-1,-5,2,3
1532122280228,0,1,1,5,0,-9,-8,-1
1532122280233,-2,-1,-3,-12,-2,-12,-10,-8
1532122280238,-3,1,-1,3,-1,-22,2,-7
1532122280243,1,0,1,-4,-4,3,0,-2
1532122280248,-2,-1,2,4,0,6,5,-1
1532122280253,1,-1,2,1,-6,13,6,1
1532122280258,-1,-2,-3,-1,0,-2,-10,2
1532122280263,-2,-2,-3,1,0,20,4,-3
1532122280268,-1,0,-1,4,1,-5,4,1
1532122280273,-1,-2,-4,-18,-9,-5,4,0
1532122280278,-1,-2,4,-2,-3,6,2,0
1532122280283,-3,-1,-2,3,1,35,-4,-1
1532122280288,0,-1,2,29,0,23,0,-3
1532122280293,-2,-3,-11,-28,-1,2,0,-2
1532122280298,-1,-2,3,-4,2,1,-1,0
1532122280303,-2,-3,1,-4,-5,-23,-4,0
1532122280308,1,1,1,1,2,2,-7,-1
1532122280313,-2,1,4,14,-1,-1,10,-2
1532122280318,-2,0,-2,17,1,-18,-10,-11
1532122280323,-2,-4,-6,-28,6,-3,3,-2
1532122280328,0,-1,5,2,3,-17,-13,-4
1532122280333,1,-2,-10,-15,-5,-3,2,7
1532122280338,-1,-2,-1,-8,2,-6,-9,-6
1532122280343,0,0,6,20,1,-16,-4,-1
1532122280348,-1,-1,-5,-14,0,2,21,3
1532122280353,-1,2,6,4,3,-7,-1,-1
1532122280358,0,0,2,9,1,1,4,3
1532122280363,-1,0,-4,-4,-9,-7,5,0
1532122280368,-2,-2,-2,-6,-3,-3,-19,-3
1532122280373,1,-1,-8,-9,-5,20,-6,1
1532122280378,-1,0,-2,3,1,17,10,0
1532122280383,0,1,9,33,0,-6,0,-2
1532122280388,-1,2,-9,-5,2,-10,-2,0
1532122280393,-1,0,5,-16,5,-5,-4,2
1532122280398,-1,0,-3,-13,-4,-5,-4,5
1532122280403,-1,-2,-6,-20,0,-30,-7,-1
1532122280408,-1,-3,-2,5,-5,32,3,4
1532122280413,1,1,3,25,-1,1,-3,-3
1532122280418,0,1,2,8,3,8,4,-3
1532122280423,-1,4,13,22,3,-25,-3,-9
1532122280428,-2,-1,-20,-39,-5,5,-3,0
1532122280433,0,0,1,-15,-4,0,0,-1
1532122280438,-3,-6,-8,-16,-11,-4,6,3
1532122280443,1,-1,5,5,3,-2,-3,1
1532122280448,-1,0,8,33,-3,-18,4,-5
1532122280453,-3,-3,-3,-25,4,1,-1,-5
1532122280458,1,1,-1,-6,3,-10,2,2
1532122280463,2,-1,0,24,-1,6,-3,0
1532122280468,0,1,-3,-31,4,-8,-8,-4
1532122280473,-2,-6,-4,4,-16,1,8,7
1532122280478,0,-1,4,6,-3,6,-12,2
1532122280483,-1,-1,-6,-17,1,5,-1,6
1532122280488,-1,0,5,7,2,-8,1,2
1532122280493,0,1,3,18,3,-2,-5,-1
1532122280498,2,2,-4,-9,1,-1,-4,-5
1532122280503,-2,-2,-4,-5,-5,15,0,0
1532122280508,-1,0,1,4,0,0,-5,-3
1532122280513,0,1,5,8,3,-6,-2,-4
1532122280518,-2,-2,-3,15,-5,-6,2,-3
1532122280523,0,0,-9,-39,-3,4,-2,0
1532122280528,-2,0,1,-1,-3,-8,8,2
1532122280533,-4,-3,-1,9,2,10,-5,-8
1532122280538,-1,-1,2,3,-1,4,-4,-5
1532122280543,-1,0,-2,5,2,5,2,-4
1532122280548,0,-3,-2,-3,-3,9,-3,1
1532122280553,0,1,0,1,-5,-1,0,4
1532122280558,0,1,-2,-3,3,0,8,0
1532122280563,-2,-2,-4,-6,-3,-1,-1,-1
1532122280568,0,-2,0,-1,-3,10,3,0
1532122280573,-2,0,-1,8,1,-6,-5,-3
1532122280578,-1,-2,-1,-5,-4,-9,-14,-3
1532122280583,-2,-1,-2,-6,1,9,12,1
1532122280588,0,0,2,10,2,-4,3,3
1532122280593,-1,-1,-6,-7,-5,-2,1,0
1532122280598,-1,-1,-1,-7,2,0,-17,-6
1532122280603,0,0,6,20,-4,-11,-2,-5
1532122280608,-1,0,-11,-28,-5,4,-1,1
1532122280613,-2,-1,4,5,4,0,-11,-2
1532122280618,0,2,3,15,-3,-6,9,-2
1532122280623,-2,-1,-6,-13,4,6,-6,-1
1532122280628,-1,-1,5,-1,-1,-1,0,-1
1532122280633,3,1,0,1,-2,5,0,4
1532122280638,0,0,1,9,2,30,8,3
1532122280643,2,1,1,1,-4,-13,-4,-4
1532122280648,0,-1,1,7,2,9,0,0
1532122280653,-1,0,7,52,4,-7,-3,-5
1532122280658,-2,-5,-18,-69,-8,6,5,-3
1532122280663,-3,0,7,14,-2,-1,-1,0
1532122280668,0,-2,-8,-14,-3,6,-1,2
1532122280673,-1,-1,-7,-27,-8,6,1,1
1532122280678,-2,-1,3,23,5,-20,-1,1
1532122280683,0,-2,-6,-2,2,6,-4,-3
1532122280688,-2,-2,-3,1,-9,-9,-2,-8
1532122280693,0,-2,0,5,11,7,2,-2
1532122280698,-2,-4,-4,-18,-2,-18,-8,-2
1532122280703,-1,-2,-2,-1,1,14,1,3
1532122280708,1,-1,5,-2,-1,-7,1,-2
1532122280713,0,-2,-7,-23,-3,15,-13,-1
1532122280718,-1,2,6,18,-2,-5,4,-4
1532122280723,1,-1,0,1,0,-7,4,1
1532122280728,-1,0,6,34,5,-12,1,-2
1532122280733,-1,-3,-3,-12,-8,-15,1,0
1532122280738,0,-2,-2,-17,-2,-2,-3,2
1532122280743,0,1,7,15,-3,-11,-9,-1
1532122280748,-1,-2,-7,-13,0,-1,1,0
1532122280753,0,0,-2,-5,1,-7,0,-2
1532122280758,0,1,8,23,5,-10,-1,1
1532122280763,-2,-5,-8,-12,-2,-1,-3,-3
1532122280768,-1,-3,1,0,2,-1,-5,0
1532122280773,-2,3,2,4,-2,-17,3,-4
1532122280778,1,-3,-3,-6,-4,-4,3,0
1532122280783,0,-2,0,-1,4,-3,2,1
1532122280788,-1,-1,0,-7,-2,-3,-6,-3
1532122280793,1,2,3,0,1,14,6,1
1532122280798,-1,1,-1,9,0,16,4,1
1532122280803,-2,1,-4,-14,-3,14,-4,0
1532122280808,0,2,3,10,0,1,-4,-2
1532122280813,-1,-1,-2,-3,-1,5,2,-1
1532122280818,0,2,-1,1,1,0,-2,2
1532122280823,0,1,0,-2,-1,-5,3,-2
1532122280828,-1,1,0,-4,0,7,0,1
1532122280833,0,-2,-1,2,-2,-9,-9,0
1532122280838,-1,-1,1,-2,0,6,1,-2
1532122280843,0,-2,5,9,-1,-11,-1,-3
1532122280848,-1,-1,-11,-8,4,-1,0,-1
1532122280853,0,-4,-7,-19,-6,-1,2,2
1532122280858,1,2,1,-1,0,5,-2,-1
1532122280863,-1,-3,-1,-5,-5,7,0,1
1532122280868,-2,-1,4,12,-2,3,-3,-2
1532122280873,0,-1,-9,-7,-9,-19,2,-1
1532122280878,-1,0,7,16,9,24,-11,0
1532122280883,2,1,0,-1,-6,-3,11,-1
1532122280888,-2,-2,-3,-23,6,19,-11,3
1532122280893,-1,1,3,1,3,0,4,-3
1532122280898,2,-1,-4,-5,-3,-16,3,-1
1532122280903,0,-2,-3,1,-5,-8,-4,0
1532122280908,1,-1,7,22,-5,3,5,-3
1532122280913,-1,-2,-12,-25,2,21,-2,0
1532122280918,-2,-2,-1,0,-2,5,-8,-2
1532122280923,0,0,-3,-8,0,9,4,2
1532122280928,1,-1,0,-4,-7,-7,0,1
1532122280933,-3,-2,5,15,2,11,0,-3
1532122280938,1,1,0,11,-2,-3,5,0
1532122280943,0,-2,-4,-17,-2,8,4,0
1532122280948,-3,1,-4,-13,-3,-12,-7,-6
1532122280953,0,-1,1,11,0,0,5,2
1532122280958,-4,-1,-1,-2,1,1,-14,-4
1532122280963,-1,1,6,31,3,-6,0,1
1532122280968,3,1,-4,-28,3,-3,10,-3
1532122280973,-2,-4,-1,-13,1,11,-3,5
1532122280978,-2,-4,-4,-6,-1,-3,-3,1
1532122280983,2,0,-6,-9,4,10,1,0
1532122280988,-3,-2,3,26,-3,-2,-5,-2
1532122280993,2,1,0,5,-6,1,3,1
1532122280998,0,0,-3,-16,-2,6,8,2
1532122281003,-5,-4,1,11,1,9,-6,-6
1532122281008,0,-1,-1,1,-3,-2,4,5
1532122281013,-1,2,3,0,-2,-18,-5,-6
1532122281018,1,-1,-1,14,-3,-10,-15,2
1532122281023,-2,-2,-3,-13,1,-10,5,-4
1532122281028,1,3,13,48,-24,-9,3,-5
1532122281033,-3,-6,-30,-86,8,41,-2,7
1532122281038,-1,0,8,9,-3,0,2,0
1532122281043,-1,0,-3,-1,1,-3,-13,-5
1532122281048,-1,0,-3,-10,-2,-4,4,3
1532122281053,2,3,13,44,2,-17,-2,-4
1532122281058,-3,-3,-7,-8,-1,-7,-2,-8
1532122281063,0,-2,-3,-11,-4,6,-7,-1
1532122281068,1,-1,-2,-4,4,10,3,1
1532122281073,0,-1,5,12,-3,-19,3,-2
1532122281078,-1,-1,-6,-16,3,8,0,-3
1532122281083,0,3,4,6,-2,-10,7,4
1532122281088,-2,-2,-4,-6,0,-3,-10,-2
1532122281093,-2,-1,2,5,-1,-11,-5,-1
1532122281098,-1,-2,4,5,-3,-8,1,2
1532122281103,-2,2,-3,-13,-1,6,3,-1
1532122281108,-3,-4,-4,-5,-3,-25,-11,-4
1532122281113,-1,-1,-4,0,-1,7,-1,2
1532122281118,-2,-4,-1,-2,-5,-7,1,-4
1532122281123,-1,-3,-3,-12,-4,3,-13,-4
1532122281128,-1,-1,1,-13,7,2,-3,1
1532122281133,0,2,3,1,-2,-3,3,0
1532122281138,1,2,3,16,-6,-27,6,2
1532122281143,-2,-4,-4,-8,0,-27,-12,-6
1532122281148,0,1,-1,-3,2,1,2,0
1532122281153,0,0,3,19,-3,-11,-3,-4
1532122281158,1,1,3,-6,5,20,12,4
1532122281163,0,-1,-4,-8,-9,-7,0,2
1532122281168,1,1,-2,15,8,14,5,-1
1532122281173,-4,-2,-3,-5,7,15,-7,-2
1532122281178,-1,-1,-4,-4,-4,-4,-6,0
1532122281183,2,2,4,2,-1,-4,9,2
1532122281188,0,-1,3,7,-1,4,3,-1
1532122281193,0,-1,2,0,-3,-7,0,-3
1532122281198,0,-1,-4,0,-2,-13,-2,-3
1532122281203,-1,-3,2,6,9,27,-2,6
1532122281208,-2,-3,-3,-12,-2,2,-4,0
1532122281213,-2,-1,1,11,-1,12,-9,-7
1532122281218,-2,2,-3,-7,1,26,-1,1
1532122281223,1,0,0,3,-2,4,-2,-2
1532122281228,-2,-1,-7,-21,15,33,-11,-5
1532122281233,0,-3,-6,-24,-10,13,-1,6
1532122281238,3,4,2,3,11,23,17,2
1532122281243,1,1,1,4,5,-11,3,0
1532122281248,-2,-1,3,6,-1,-14,-5,-3
1532122281253,-1,-2,-5,-2,3,-12,0,-3
1532122281258,-5,-1,0,-6,-3,2,-5,-1
1532122281263,1,-1,7,10,7,-14,2,0
1532122281268,2,-1,3,8,1,-7,-3,-3
1532122281273,-2,-2,-6,3,4,-9,10,4
1532122281278,-2,-4,-6,-33,8,11,-11,0
1532122281283,0,-3,-1,-1,-7,-3,-3,1
1532122281288,0,2,0,0,0,8,0,0
1532122281293,-2,2,9,11,9,35,0,-6
1532122281298,0,-2,-3,19,-4,-29,-5,-6
1532122281303,-1,2,-3,-3,-8,-9,-7,-1
1532122281308,3,0,0,2,0,-10,7,1
1532122281313,-1,-4,-7,-26,-19,-20,-3,3
1532122281318,-1,-5,-9,1,-1,-7,5,5
1532122281323,-3,2,5,1,7,6,0,-6
1532122281328,0,0,-4,-6,-5,-21,-5,1
1532122281333,0,-1,3,4,-5,-2,-1,1
1532122281338,2,-1,-3,2,-9,-7,3,-5
1532122281343,-3,-5,-6,-44,-4,14,-4,4
1532122281348,1,-1,4,10,8,29,-1,5
1532122281353,0,2,-2,-12,-4,1,-3,-6
1532122281358,1,2,8,17,0,2,-2,-2
1532122281363,1,-1,0,21,2,-13,-2,-4
1532122281368,-2,0,1,8,0,4,-1,-4
1532122281373,0,0,-1,-24,-12,-1,-4,0
1532122281378,-1,0,-9,-13,-2,15,7,1
1532122281383,-1,-1,-3,0,2,20,-4,1
1532122281388,-2,-4,-1,1,-6,-9,-4,0
1532122281393,0,0,-3,24,13,9,6,-6
1532122281398,-2,-3,-3,-28,-5,24,-6,3
1532122281403,-1,-3,-2,-2,-3,0,2,0
1532122281408,-1,-4,-6,-8,-5,-11,-1,-1
1532122281413,0,1,-2,8,-4,-23,-1,0
1532122281418,0,-2,-2,3,-5,-16,2,2
1532122281423,1,6,10,26,-1,-18,6,-5
1532122281428,-2,-3,-4,-29,-3,10,-2,1
1532122281433,-3,-5,-9,-19,2,-6,0,-1
1532122281438,0,-1,-4,-9,-6,-1,-9,0
1532122281443,2,0,0,-22,-4,-23,0,1
1532122281448,-2,1,3,27,8,-8,-5,-4
1532122281453,1,0,-1,-3,-6,-20,3,3
1532122281458,-1,-1,0,6,-5,-25,1,-4
1532122281463,0,-3,-4,-9,3,15,-6,2
1532122281468,-2,0,3,5,-6,-8,-3,-6
1532122281473,0,-2,-5,-6,-4,-13,-6,-4
1532122281478,-3,-1,-1,3,2,2,4,-2
1532122281483,1,1,-2,1,-7,-6,-1,0
1532122281488,1,0,6,21,4,6,2,3
1532122281493,-4,-5,-10,-34,-7,13,-3,-1
1532122281498,-2,-1,-5,-6,-6,-6,-4,-1
1532122281503,-1,0,5,-8,-6,5,2,-1
1532122281508,-3,-2,-7,-6,-9,-8,-4,-3
1532122281513,0,0,5,27,11,3,1,0
1532122281518,0,-1,-2,-8,-4,-6,-2,-1
1532122281523,-3,-2,-3,-9,3,23,-3,-1
1532122281528,1,-1,1,-6,-2,-1,1,-1
1532122281533,1,-2,3,17,-3,-13,4,0
1532122281538,-3,-6,-9,-15,-3,9,3,2
1532122281543,-1,0,-3,-1,-1,-2,-11,-7
1532122281548,0,-1,1,-3,-4,9,11,3
1532122281553,2,1,-1,5,3,10,4,1
1532122281558,-5,1,0,-1,3,6,-9,-10
1532122281563,-2,-2,4,12,3,2,3,4
1532122281568,-5,-4,-7,-5,-4,-1,-9,-4
1532122281573,-1,0,5,7,2,2,0,0
1532122281578,0,-1,-5,-17,2,-11,3,-2
1532122281583,1,1,0,22,2,1,-2,-2
1532122281588,-1,-1,2,-3,-5,-5,1,0
1532122281593,-2,0,-9,-28,-4,0,1,2
1532122281598,-2,-2,2,12,-1,7,-24,-6
1532122281603,0,-1,0,5,2,3,3,-3
1532122281608,-1,-2,-2,-5,0,-2,-4,1
1532122281613,0,0,1,9,-6,-5,-4,-4
1532122281618,1,0,1,-1,-6,-3,13,2
1532122281623,-3,-1,-4,-9,-4,11,-7,-1
1532122281628,-2,1,1,1,0,-7,4,-2
1532122281633,-3,-1,-1,4,2,17,-8,-1
1532122281638,-1,0,1,10,5,-1,-1,-2
1532122281643,-1,-3,-4,-9,-1,8,-1,1
1532122281648,1,1,1,-2,3,-13,4,3
1532122281653,-2,2,3,-2,-5,-19,-5,-9
1532122281658,0,-1,-4,-7,3,-3,3,4
1532122281663,-1,-1,0,14,-1,-10,2,-3
1532122281668,-3,-5,-10,-31,-6,18,-11,3
1532122281673,1,-1,-3,-6,0,-4,8,4
1532122281678,1,3,4,10,4,15,-3,-5
1532122281683,-2,-2,-1,4,-2,1,1,-2
1532122281688,-1,-1,3,4,1,-10,1,-1
1532122281693,0,0,2,1,-6,-6,0,-4
1532122281698,0,-1,-5,3,4,-2,6,1
1532122281703,0,0,-2,-26,0,17,-6,4
1532122281708,-3,-1,3,5,5,19,-3,-7
1532122281713,1,-2,-1,-1,2,6,3,2
1532122281718,0,3,8,15,-1,3,1,0
1532122281723,1,0,0,1,-4,-21,-6,-3
1532122281728,1,-1,-3,0,1,7,2,2
1532122281733,-2,-1,1,5,3,-8,-5,-3
1532122281738,-1,0,-2,-5,-3,1,-3,1
1532122281743,0,-1,-1,-1,1,-11,8,3
1532122281748,0,0,3,5,-5,-23,-1,-2
1532122281753,-3,-2,-5,-6,0,-15,1,-5
1532122281758,1,-2,-4,-12,-1,-20,-1,2
1532122281763,-3,-4,2,-14,-8,-16,-1,-3
1532122281768,1,1,-1,23,7,-9,0,-4
1532122281773,0,-1,-2,-5,1,19,-2,1
1532122281778,1,-2,-1,-2,-1,-2,-4,2
1532122281783,-2,0,-2,1,0,-3,5,-4
1532122281788,0,-1,2,7,-5,-15,-5,-2
1532122281793,0,1,1,4,4,2,-3,-2
1532122281798,-1,2,0,-8,-6,3,1,1
1532122281803,-1,-3,-1,5,-6,-17,-5,-2
1532122281808,0,-1,-1,-4,4,0,-1,2
1532122281813,-1,-1,-1,-4,-2,-4,3,1
1532122281818,-3,-2,5,17,2,-15,-3,-5
1532122281823,0,0,-8,-18,0,4,4,0
1532122281828,-1,-1,4,-1,5,8,-3,1
1532122281833,-1,-1,-1,0,-4,-15,-5,-1
1532122281838,-1,-2,1,5,-1,-9,-1,-1
1532122281843,-1,2,4,23,-1,-7,-1,-5
1532122281848,-2,-2,-6,-26,-2,7,1,-1
1532122281853,0,0,3,4,3,-3,-6,-2
1532122281858,-2,-4,-3,-10,-7,2,4,-2
1532122281863,0,-2,-1,11,8,13,1,1
1532122281868,1,3,7,7,-3,2,2,-1
1532122281873,0,1,-4,-11,4,5,1,0
1532122281878,-1,0,-3,1,0,4,-4,-2
1532122281883,1,-2,0,-3,4,-7,-5,1
1532122281888,-1,-1,0,1,-2,4,3,-2
1532122281893,-2,-2,-4,-20,-10,-10,1,-3
1532122281898,1,0,-3,3,1,7,1,1
1532122281903,0,0,5,10,1,4,1,2
1532122281908,0,-3,-11,-20,-11,-6,-2,-1
1532122281913,2,-1,2,9,4,-3,3,5
1532122281918,-3,0,-1,-9,-4,-12,-5,-8
1532122281923,1,0,1,17,4,3,0,-3
1532122281928,0,0,1,-8,-3,5,-2,-2
1532122281933,-1,-2,-7,-10,-6,3,5,0
1532122281938,0,2,4,2,-3,2,-11,4
1532122281943,0,-4,-4,-1,1,2,2,-3
1532122281948,-1,0,1,6,-1,-11,5,-1
1532122281953,-2,0,2,-4,7,1,-2,1
1532122281958,-2,0,-4,-8,-2,-17,-3,-1
1532122281963,0,1,6,25,-3,-16,-3,-4
1532122281968,0,1,-7,-19,9,18,2,2
1532122281973,-2,0,1,7,3,1,0,4
1532122281978,0,-2,1,6,2,-6,7,0
1532122281983,1,-1,-2,-12,-4,-5,-8,-2
1532122281988,2,-2,-2,5,-4,-11,6,1
1532122281993,2,2,7,17,-3,-3,-12,-10
1532122281998,-3,-3,-14,-43,0,36,-3,0
1532122282003,-2,-2,-1,-4,-3,5,1,3
1532122282008,-1,1,0,5,-1,15,-4,-3
1532122282013,0,-1,2,10,-5,4,-2,0
1532122282018,0,1,5,30,-2,-1,14,-3
1532122282023,-5,-4,-11,-35,1,17,-1,1
1532122282028,-3,0,4,2,2,8,-13,-1
1532122282033,0,-3,-8,-4,-3,-6,3,0
1532122282038,-1,-1,2,-2,-6,-11,-2,-4
1532122282043,0,2,1,6,-7,-5,0,-3
1532122282048,1,-1,2,6,-1,-4,2,-2
1532122282053,-4,-2,-16,-26,1,-3,-3,-4
1532122282058,0,0,3,-3,0,-1,-1,3
1532122282063,2,0,2,-3,3,5,1,2
1532122282068,-1,-3,-1,-4,-5,-4,-2,-1
1532122282073,0,2,5,13,-1,0,7,1
1532122282078,0,-3,-3,-2,1,1,-9,0
1532122282083,-2,0,-2,-2,-5,6,-2,-5
1532122282088,0,1,6,40,-3,-16,0,-3
1532122282093,-1,-3,-4,-38,7,18,2,5
1532122282098,-2,-4,-6,-10,-3,19,5,4
1532122282103,0,0,1,-1,-3,-11,0,3
1532122282108,0,-1,1,20,-1,-12,2,-3
1532122282113,1,-1,-2,0,-6,1,3,-2
1532122282118,2,4,5,23,4,-15,0,-4
1532122282123,-4,-4,-5,-10,1,1,-6,-2
1532122282128,-2,-5,-18,-25,-9,-18,0,-3
1532122282133,-2,-4,1,-7,-1,3,-5,3
1532122282138,0,0,5,10,-2,-1,-3,-3
1532122282143,-3,2,2,21,0,-12,2,0
1532122282148,3,-3,-8,-28,-3,-28,2,1
1532122282153,-3,-2,1,7,-4,-6,-2,-3
1532122282158,2,-1,-8,-15,1,-2,3,3
1532122282163,-1,2,3,9,-4,1,-2,-3
1532122282168,-1,1,5,3,4,27,-8,0
1532122282173,-1,1,-2,-11,2,-3,-5,-7
1532122282178,-1,0,8,7,-3,-12,0,-2
1532122282183,2,-1,-6,-14,6,29,1,6
1532122282188,-1,0,4,-3,-3,71,1,5
1532122282193,0,-2,0,8,0,81,1,2
1532122282198,-2,-1,5,20,0,42,-1,0
1532122282203,0,-3,-4,-34,-5,5,-2,-1
1532122282208,-1,-1,4,7,0,-41,-2,0
1532122282213,-1,-1,2,12,-8,-62,1,-2
1532122282218,-1,-1,-11,-23,-1,-39,-3,-1
1532122282223,0,0,2,15,-3,-110,2,0
1532122282228,0,3,0,-24,-4,-76,6,-6
1532122282233,-1,-1,0,1,3,-53,-3,6
1532122282238,-2,-3,-1,4,2,-26,-3,-3
1532122282243,-3,2,7,26,4,26,1,-3
1532122282248,-1,-6,-10,-24,-7,37,1,0
1532122282253,0,-1,5,30,-2,11,1,-8
1532122282258,0,-2,-16,-53,-11,32,-5,4
1532122282263,-2,0,5,9,7,44,3,1
1532122282268,-3,0,-1,-4,-2,20,-6,-5
1532122282273,-1,-3,2,13,1,30,-2,-9
1532122282278,3,7,-2,2,-1,12,-2,1
1532122282283,6,-5,-6,-6,-6,-10,3,4
1532122282288,-1,-2,-4,1,4,3,2,3
1532122282293,0,1,-1,8,0,2,0,0
1532122282298,1,0,7,13,6,3,1,-1
1532122282303,-1,6,-1,-16,3,-1,-1,-2
1532122282308,-4,-7,-6,6,3,8,-4,-1
1532122282313,-1,0,-7,-27,-7,5,-1,3
1532122282318,-2,-4,3,3,-4,2,3,-1
1532122282323,1,0,-1,10,-3,17,-6,-1
1532122282328,1,0,2,20,1,6,-1,-6
1532122282333,0,2,0,4,8,8,8,1
1532122282338,-3,-4,-2,-10,-10,-45,6,1
1532122282343,-2,-2,-5,-13,-2,-9,-17,-6
1532122282348,-1,1,5,5,0,-15,6,1
1532122282353,0,0,1,-2,0,-24,-4,-2
1532122282358,1,0,4,10,2,-18,-1,-3
1532122282363,-1,-3,-8,-5,3,-26,4,0
1532122282368,-1,2,6,28,-2,-28,-11,3
1532122282373,-1,-1,-7,-37,-2,2,9,0
1532122282378,-1,-3,4,24,7,-29,-4,-3
1532122282383,-1,0,1,-13,-6,-12,0,-4
1532122282388,0,2,5,9,3,6,-4,1
1532122282393,0,-3,0,12,3,39,3,-3
1532122282398,-2,-3,-6,-14,-9,9,-9,-4
1532122282403,-2,-1,8,51,3,37,0,0
1532122282408,0,-1,-14,-51,1,31,3,2
1532122282413,1,1,1,16,-5,8,-4,4
1532122282418,-1,-1,-5,-2,4,68,1,-2
1532122282423,-1,-1,4,21,2,46,2,1
1532122282428,0,1,2,16,-1,55,3,-4
1532122282433,-1,-1,-11,-44,-6,32,-5,2
1532122282438,1,2,6,9,1,33,-6,1
1532122282443,-2,0,-6,-21,0,52,1,-1
1532122282448,0,-1,2,31,0,16,2,-1
1532122282453,-1,-1,-3,-10,-5,-7,-9,-4
1532122282458,0,1,3,7,1,-17,10,0
1532122282463,0,-3,-10,-21,-6,-31,2,0
1532122282468,0,1,3,17,-2,-43,-9,-3
1532122282473,2,0,-2,-20,1,-30,7,-1
1532122282478,-3,-1,-5,-2,3,-18,-2,-1
1532122282483,0,-1,4,17,-3,-38,-5,-6
1532122282488,-3,-5,-10,-40,-4,6,-1,5
1532122282493,-2,-2,1,6,-1,-17,-1,0
1532122282498,0,1,0,-1,2,-6,0,-3
1532122282503,0,1,4,4,-1,-7,4,3
1532122282508,0,1,-1,-7,0,-10,-2,-1
1532122282513,0,-1,8,34,-1,0,-5,-2
1532122282518,1,0,-2,-4,-1,-4,2,1
1532122282523,-2,-5,-11,-34,-10,-1,-6,-1
1532122282528,-1,-1,1,2,-1,-1,2,2
1532122282533,-1,-1,-1,11,-1,-6,3,1
1532122282538,-3,1,4,26,2,-11,-5,-4
1532122282543,0,-2,-5,-21,1,-12,1,-3
1532122282548,-2,-3,-9,-12,1,-2,-5,-4
1532122282553,1,2,11,34,0,-15,-4,-3
1532122282558,-3,-3,-15,-33,-3,0,0,1
1532122282563,-1,0,2,6,3,-7,-12,-4
1532122282568,-1,-1,3,11,-2,-4,2,-1
1532122282573,0,-1,-3,-14,3,11,-4,3
1532122282578,1,1,1,-1,-5,-20,4,-1
1532122282583,-1,-3,-8,-13,0,3,-1,-1
1532122282588,-2,-1,2,10,5,9,1,0
1532122282593,-2,-1,-3,-14,-4,-6,2,-1
1532122282598,-2,-2,1,2,-1,-6,0,0
1532122282603,0,0,0,6,-2,-32,-1,0
1532122282608,-2,-3,-5,5,1,1,1,1
1532122282613,-3,2,3,-5,0,-7,-8,-4
1532122282618,0,-2,-6,-19,-2,-17,-3,1
1532122282623,-2,-3,-3,2,-1,10,2,1
1532122282628,-1,1,6,11,3,0,1,-1
1532122282633,2,1,0,-10,-6,-7,3,1
1532122282638,0,0,2,6,2,-13,-5,-2
1532122282643,-1,-2,-9,-7,-4,-23,3,-1
1532122282648,0,0,9,21,3,-6,-4,-1
1532122282653,-1,1,-3,-12,5,5,1,2
1532122282658,0,0,-1,-2,-2,16,3,0
1532122282663,0,-1,-5,-20,-6,3,3,0
1532122282668,-1,-2,-1,-3,-1,13,-5,-1
1532122282673,-1,0,0,11,-1,16,3,-1
1532122282678,0,0,1,2,1,6,1,-1
1532122282683,-1,-1,4,7,4,8,-6,2
1532122282688,-3,-4,-3,-5,-1,2,-2,-4
1532122282693,-1,0,1,4,-4,-5,-4,-1
1532122282698,-2,-3,0,-5,0,11,-1,0
1532122282703,0,0,3,13,1,4,0,1
1532122282708,0,-1,-8,-22,-1,3,-4,-2
1532122282713,0,-2,-4,0,-2,5,0,-2
1532122282718,0,1,3,-5,-2,4,-5,-1
1532122282723,-3,1,-2,-2,-1,4,-3,-3
1532122282728,0,1,4,2,-2,-3,3,1
1532122282733,-2,-1,1,5,4,7,4,-3
1532122282738,2,-2,-5,2,-6,-6,-5,0
1532122282743,0,-2,0,-8,3,7,-5,0
1532122282748,1,0,0,-2,-3,-2,2,1
1532122282753,0,-2,-5,-36,-6,-6,-2,0
1532122282758,0,-1,-2,2,1,2,-2,1
1532122282763,0,1,1,5,-2,1,5,-1
1532122282768,-2,-2,-1,5,3,-1,-7,-4
1532122282773,-1,-1,4,17,6,3,-2,1
1532122282778,-3,-1,0,-3,-10,-17,-1,-6
1532122282783,-3,-2,-10,-27,-5,5,-1,3
1532122282788,1,2,3,0,3,8,5,0
1532122282793,0,0,-3,6,-1,1,-1,-2
1532122282798,-2,-4,-3,3,-1,0,4,0
1532122282803,0,1,3,10,0,-5,-5,-1
1532122282808,0,-1,-4,-8,0,4,2,-1
1532122282813,-1,-2,-1,-1,0,6,-3,0
1532122282818,1,1,0,-7,-1,7,3,2
1532122282823,0,-1,0,3,-2,-3,5,-2
1532122282828,0,-2,-1,12,0,1,-3,1
1532122282833,0,-1,-3,-1,0,6,-6,-4
1532122282838,-2,-2,1,-3,0,8,10,0
1532122282843,-1,-1,-1,-1,-2,-6,-3,-1
1532122282848,0,-1,-2,1,-1,-4,-1,-1
1532122282853,-1,-3,-3,0,-5,-7,2,1
1532122282858,0,2,2,2,1,0,-4,-1
1532122282863,1,-1,-4,-13,-5,-3,4,-1
1532122282868,-2,0,-1,-1,-3,-7,-2,-1
1532122282873,-2,-1,-1,-1,-1,-2,-3,1
1532122282878,-1,0,0,0,0,-4,-3,-1
1532122282883,-2,-1,1,6,2,0,1,0
1532122282888,0,0,4,6,-1,-1,3,-1
1532122282893,-1,-3,-6,-1,-3,-5,-1,-2
1532122282898,0,2,-5,-21,1,-2,3,1
1532122282903,-1,1,6,10,1,3,-5,2
1532122282908,-2,-6,-10,-26,-1,5,-6,-3
1532122282913,0,-3,-1,-7,-2,3,-1,2
1532122282918,0,-1,1,10,-1,-2,-3,0
1532122282923,1,2,3,12,2,-2,1,-2
1532122282928,0,-2,-5,-8,0,-1,-1,1
1532122282933,-2,2,2,10,1,-1,-2,-6
1532122282938,1,-3,-7,-14,-3,9,4,0
1532122282943,-1,-2,-2,1,0,5,-8,-2
1532122282948,-3,0,1,4,-2,2,0,-2
1532122282953,-1,0,-1,14,4,-4,3,2
1532122282958,0,-2,-2,-14,-3,0,0,0
1532122282963,-1,-1,0,-1,0,-4,-6,-2
1532122282968,-1,-1,-1,11,-4,-4,5,-1
1532122282973,0,-2,-3,-16,1,10,-1,2
1532122282978,-3,1,6,25,5,2,-6,-3
1532122282983,-1,-2,-5,-6,-2,7,3,0
1532122282988,1,-1,5,33,-3,-6,-1,1
1532122282993,1,0,-6,-34,-4,-7,-4,-4
1532122282998,0,-2,-6,-1,2,9,6,-1
1532122283003,2,0,1,-1,1,2,1,1
1532122283008,0,3,2,3,-2,-2,0,-1
1532122283013,1,0,4,11,-1,-3,-1,-2
1532122283018,-1,-1,-3,3,-1,0,-5,-1
1532122283023,0,-1,-2,-7,-2,-6,-3,-1
1532122283028,0,2,0,-5,1,-2,2,-2
1532122283033,0,1,6,12,-2,-2,-2,-3
1532122283038,-2,-5,-10,-16,0,7,-6,0
1532122283043,-1,-1,-2,0,0,0,1,-2
1532122283048,0,-2,-4,-20,-2,4,2,2
1532122283053,-1,1,4,3,0,0,-8,-1
1532122283058,-2,-3,-6,2,-5,3,-10,-3
1532122283063,-2,-2,4,12,2,0,-1,-1
1532122283068,-1,1,-3,-3,3,12,0,-3
1532122283073,-1,0,-2,1,-1,6,0,-2
1532122283078,0,1,1,-1,-1,-2,7,-1
1532122283083,-2,-3,-4,-7,-2,-1,-6,-3
1532122283088,-1,0,-1,-1,-1,-4,1,-4
1532122283093,0,-1,-2,3,-3,2,-1,4
1532122283098,-3,-1,5,9,1,-3,-8,-9
1532122283103,0,0,-4,-2,-3,-3,4,-3
1532122283108,-1,-2,1,2,1,0,-3,-1
1532122283113,0,-2,-5,0,-3,2,6,1
1532122283118,0,1,3,2,-1,1,1,3
1532122283123,0,0,0,-16,-2,-5,0,-1
1532122283128,-1,-1,-5,-3,1,15,-3,3
1532122283133,-2,1,9,11,4,2,-12,-5
1532122283138,-1,0,-3,-9,-2,-2,2,0
1532122283143,-1,-1,6,19,1,-2,-2,-1
1532122283148,-1,0,-3,-7,-3,-8,1,0
1532122283153,-2,-3,-4,-4,-1,0,2,-2
1532122283158,0,2,6,10,0,-5,-6,-1
1532122283163,0,-1,-2,4,0,-6,9,1
1532122283168,0,-3,-7,-27,-5,-9,-3,-3
1532122283173,-1,-2,-4,4,2,-2,3,5
1532122283178,0,1,-1,-1,-1,-14,-4,-2
1532122283183,0,-1,-1,1,-1,1,0,-1
1532122283188,-1,0,2,4,0,10,-3,-1
1532122283193,2,1,5,14,-1,14,5,0
1532122283198,0,-1,-11,-19,-3,10,13,5
1532122283203,-2,-2,-3,-3,1,9,-13,-3
1532122283208,0,0,1,4,-3,1,-1,-2
1532122283213,-1,-3,-4,-9,-1,5,-1,-4
1532122283218,2,0,4,9,0,10,3,1
1532122283223,-1,-1,-1,-4,-3,-1,0,0
1532122283228,-2,1,4,8,2,-5,2,0
1532122283233,0,0,3,23,-7,-15,1,0
1532122283238,-1,-4,-9,-27,1,2,0,0
1532122283243,-1,-1,1,-5,0,1,-1,0
1532122283248,0,-1,3,7,1,-1,-4,-1
1532122283253,0,1,1,2,2,-7,3,1
1532122283258,-2,-3,-3,-5,-3,4,-5,0
1532122283263,0,1,-2,0,-1,1,-3,-4
1532122283268,0,-2,-4,-5,-1,-8,1,1
1532122283273,-1,0,0,-1,2,4,-1,-1
1532122283278,-1,-1,5,4,-2,4,6,-1
1532122283283,-1,-4,-10,-3,-2,9,0,1
1532122283288,-2,3,6,2,1,6,5,-1
1532122283293,-2,-2,-5,-8,-1,-2,-7,-3
1532122283298,1,-1,2,10,1,-1,0,-2
1532122283303,1,-1,-3,-7,-3,0,-1,-1
1532122283308,1,-2,-1,3,2,-2,1,0
1532122283313,-1,-2,-6,-15,-2,-1,-2,-1
1532122283318,-1,-1,2,3,-1,-1,1,-3
1532122283323,-1,-2,3,6,1,-5,-2,0
1532122283328,-1,-2,-3,-2,0,7,-1,0
1532122283333,-2,-3,-4,-15,-1,5,-1,-2
1532122283338,0,0,2,14,1,-5,-3,0
1532122283343,-1,1,1,-4,1,-2,2,1
1532122283348,0,0,-3,-9,-3,3,-2,0
1532122283353,-2,-3,2,3,0,6,-2,-3
1532122283358,-1,0,4,2,0,0,-3,1
1532122283363,0,0,-1,13,2,-1,0,-2
1532122283368,-1,-1,-1,-18,2,10,-2,3
1532122283373,-1,-2,0,-5,-3,0,-2,-1
1532122283378,-1,1,-1,-9,0,2,-6,-5
1532122283383,-1,-1,-1,1,-2,0,-1,-2
1532122283388,0,-1,-2,9,-2,-7,-4,-2
1532122283393,-1,-2,-1,-2,1,2,3,1
1532122283398,-1,-3,-5,-9,-1,0,1,0
1532122283403,-2,-1,3,-2,1,5,-7,-5
1532122283408,0,2,-2,6,-1,1,0,-1
1532122283413,0,-1,5,8,1,1,-7,-1
1532122283418,1,-2,-5,2,-4,-4,7,-1
1532122283423,1,0,-8,-30,-2,6,2,0
1532122283428,-1,-2,-1,-2,-1,1,-9,-1
1532122283433,0,-1,-2,-11,-1,-1,4,1
1532122283438,-1,0,2,18,0,-2,-1,-2
1532122283443,-1,-1,2,2,-1,-2,-2,-2
1532122283448,-1,-3,-6,-6,-2,-1,2,1
1532122283453,0,-1,2,2,-3,-1,1,3
1532122283458,-1,-1,3,3,3,4,-9,-3
1532122283463,-1,-2,-5,-13,-2,5,3,1
1532122283468,0,0,1,12,-2,-5,1,-3
1532122283473,-1,-2,-9,-16,-2,3,-5,-1
1532122283478,-1,0,6,1,-1,8,1,1
1532122283483,0,0,-2,-2,-1,0,1,0
1532122283488,1,1,8,15,0,-3,-2,-3
1532122283493,0,-2,-10,-13,-4,3,9,-2
1532122283498,-1,-2,0,2,1,-3,-1,0
1532122283503,-2,0,3,6,-1,2,2,-1
1532122283508,-4,-1,-3,-6,-1,-1,-5,-2
1532122283513,0,-1,3,5,-2,-1,-2,-1
1532122283518,2,3,2,1,2,1,0,-1
1532122283523,-2,-2,-5,2,-2,-1,1,0
1532122283528,-3,-3,-4,-9,-4,4,1,2
1532122283533,-2,-1,2,0,0,5,-9,-3
1532122283538,-1,-1,-4,1,-1,-2,1,-1
1532122283543,-1,-1,0,6,-1,-6,-9,-4
1532122283548,1,-1,1,1,1,6,0,0
1532122283553,-3,-2,-7,-11,-5,-1,1,1
1532122283558,-1,-2,-3,-6,-2,-2,2,-1
1532122283563,0,-1,1,-4,-3,-3,-2,0
1532122283568,0,-2,-1,0,1,-1,1,-3
1532122283573,-1,2,8,13,4,1,0,0
1532122283578,-1,0,-2,-4,-2,-3,0,-1
1532122283583,-2,-2,1,-5,-4,0,-2,-2
1532122283588,0,-1,-9,-10,-3,0,1,0
1532122283593,-2,-1,3,2,1,2,2,1
1532122283598,2,-1,-4,0,-1,-8,-3,-3
1532122283603,0,0,6,8,3,1,9,1
1532122283608,-1,1,-2,0,-1,-6,0,-1
1532122283613,-1,-1,-5,-10,-3,-3,-4,-5
1532122283618,-1,1,1,9,-2,-4,-2,0
1532122283623,0,-4,-3,-10,1,7,1,2
1532122283628,-1,1,1,-3,-2,2,-3,-4
1532122283633,-1,-1,-3,2,2,2,-8,1
1532122283638,-4,-2,1,-2,0,3,4,-3
1532122283643,0,0,0,1,-1,-1,-2,-2
1532122283648,1,-1,-1,7,0,-2,-1,1
1532122283653,-1,-2,-2,-4,-2,2,1,-1
1532122283658,0,-1,-6,-18,-2,0,-6,0
1532122283663,-1,0,-1,2,-1,3,-2,2
1532122283668,-2,-2,4,5,-1,3,2,-2
1532122283673,-2,-1,-1,-4,-1,5,-1,-4
1532122283678,1,-2,2,8,0,2,3,4
1532122283683,-1,1,1,3,1,2,1,-4
1532122283688,-1,-1,-4,-7,-2,1,-1,0
1532122283693,1,-1,1,4,0,-1,0,-1
1532122283698,-1,0,-1,-3,-1,6,1,0
1532122283703,0,1,1,1,-5,-1,-1,-3
1532122283708,-3,-1,-4,8,2,2,-6,-1
1532122283713,1,3,0,-10,0,8,6,3
1532122283718,-2,-3,3,14,0,-2,-12,-5
1532122283723,-1,0,-8,-20,-1,5,4,0
1532122283728,-2,-1,-2,-2,-3,1,1,-2
1532122283733,-1,-1,-4,0,-3,-4,0,-3
1532122283738,1,1,2,6,-4,-1,3,1
1532122283743,-1,-1,0,9,6,-1,-9,-2
1532122283748,-2,-3,1,-4,2,3,-4,0
1532122283753,-1,-1,-2,-1,1,-2,-1,3
1532122283758,-3,-1,-5,-5,-1,2,2,-5
1532122283763,0,-1,0,4,1,-3,3,1
1532122283768,0,-1,1,3,0,5,1,0
1532122283773,-1,-3,-6,-4,-6,0,0,-1
1532122283778,1,-1,0,-5,4,6,-9,2
1532122283783,-1,0,-3,-3,-1,3,5,-4
1532122283788,0,0,3,-3,-2,0,0,0
1532122283793,2,1,3,11,2,0,3,-1
1532122283798,-1,-3,-4,-3,-3,3,7,2
1532122283803,-2,-2,3,5,1,6,-16,-3
1532122283808,1,-2,-2,-4,-3,-2,1,-2
1532122283813,-1,1,1,1,1,-1,0,-2
1532122283818,0,0,1,2,1,-4,2,-2
1532122283823,-1,-1,-7,-21,-5,6,2,4
1532122283828,-1,-1,1,2,1,0,-1,0
1532122283833,-1,-2,2,-1,0,-3,-9,-6
1532122283838,-1,0,3,4,0,0,-1,0
1532122283843,1,1,0,5,-2,-9,0,-2
1532122283848,-1,0,-4,-7,-2,3,-2,1
1532122283853,0,-1,-2,4,0,-8,2,2
1532122283858,-1,-2,-2,-8,0,-6,-3,-4
1532122283863,0,2,1,4,-2,-12,2,-2
1532122283868,-1,-1,-3,14,5,9,7,0
1532122283873,-2,-3,-5,-19,-7,8,-5,0
1532122283878,0,0,3,11,1,5,3,-3
1532122283883,-2,-2,-7,-14,-1,5,-6,-5
1532122283888,0,-1,0,-12,-2,6,-8,0
1532122283893,0,-1,3,7,-1,7,2,2
1532122283898,0,0,-4,7,-3,2,-1,1
1532122283903,-1,0,-6,-24,0,3,1,-1
1532122283908,1,-1,3,3,-1,3,-1,-1
1532122283913,0,-1,-2,-1,-3,3,-2,-2
1532122283918,0,2,3,6,-1,-2,-1,-2
1532122283923,-2,0,1,9,1,2,1,3
1532122283928,-1,-1,-3,-5,-3,-5,0,-2
1532122283933,-2,0,1,-1,0,-4,-8,0
1532122283938,-1,1,-2,-5,-2,-3,2,-1
1532122283943,-2,-2,3,6,-2,-1,3,-2
1532122283948,-1,0,6,18,0,-11,0,-4
1532122283953,-1,-2,-17,-29,-4,-1,1,-1
1532122283958,0,-1,5,-4,0,3,-3,1
1532122283963,-1,0,-2,7,2,-2,-6,-4
1532122283968,-1,-2,-4,-5,-3,-5,-1,1
1532122283973,1,2,7,16,0,-8,3,-6
1532122283978,-2,-2,-8,-7,0,-2,5,-1
1532122283983,-1,-2,-5,-9,-2,-1,-6,3
1532122283988,1,2,4,7,2,-2,0,0
1532122283993,-1,-3,-6,-6,-2,2,2,2
1532122283998,0,-2,-1,-2,-1,1,1,1
1532122284003,-1,0,4,12,-2,-3,4,-1
1532122284008,-1,-1,-3,-8,1,2,-3,0
1532122284013,0,1,4,8,2,4,-8,-1
1532122284018,-2,-2,-8,-12,-5,5,6,1
1532122284023,0,0,3,13,0,-1,0,-1
1532122284028,-1,2,1,-3,-4,-9,0,-2
1532122284033,-2,-4,-4,-23,-3,13,-1,0
1532122284038,1,0,2,2,1,0,-1,0
1532122284043,-1,0,1,16,1,1,1,1
1532122284048,0,0,-2,-26,-2,-2,0,-5
1532122284053,-2,0,0,10,1,6,3,1
1532122284058,-1,1,-4,-3,-1,-1,-5,-2
1532122284063,-2,-1,2,-1,1,4,-4,-3
1532122284068,-1,-2,0,17,-1,-2,5,1
1532122284073,-1,0,2,-6,-1,-4,-7,-3
1532122284078,-1,-4,-5,-4,-2,4,-6,-3
1532122284083,1,1,5,9,2,-4,-2,-2
1532122284088,-3,-2,-7,-9,-2,4,0,-1
1532122284093,2,-1,2,1,-2,-1,5,2
1532122284098,-1,-1,2,-2,0,-3,-2,0
1532122284103,0,-3,0,-5,-1,2,-3,0
1532122284108,-3,0,1,4,2,4,-2,-1
1532122284113,-1,0,0,0,0,-3,3,-1
1532122284118,1,-1,-3,11,1,-5,-9,-4
1532122284123,-2,-2,-3,-16,-2,4,1,-2
1532122284128,-2,-3,-1,-8,-1,3,-1,1
1532122284133,-1,1,0,11,0,6,-1,0
1532122284138,0,3,15,33,0,-5,1,-2
1532122284143,-1,-5,-23,-46,-6,6,-2,0
1532122284148,0,-1,2,-4,0,3,-2,0
1532122284153,-1,2,5,10,0,-2,-3,-3
1532122284158,-1,0,-1,-3,-1,4,-5,-1
1532122284163,2,1,7,26,2,-1,5,-1
1532122284168,-2,-1,-9,-19,-3,5,-7,-1
1532122284173,1,-2,1,0,1,0,2,1
1532122284178,0,-1,-3,-12,-3,3,7,3
1532122284183,-2,-2,3,5,-2,-1,-5,-5
1532122284188,2,0,0,3,-2,3,1,0
1532122284193,0,0,2,3,0,-3,-2,-2
1532122284198,0,0,-3,-10,-1,2,0,-2
1532122284203,-2,-2,-1,-2,-2,-2,-2,-2
1532122284208,1,0,1,5,-1,3,0,0
1532122284213,0,0,4,-6,-4,3,-4,-2
1532122284218,0,-2,-10,-12,-1,0,3,0
1532122284223,-1,-1,-3,6,1,4,0,0
1532122284228,0,0,4,6,1,1,2,-1
1532122284233,0,0,-1,-5,-3,3,-1,-1
1532122284238,0,-1,0,-2,0,-3,-5,-2
1532122284243,-1,1,0,-5,-2,4,-6,-2
1532122284248,0,-3,-6,4,1,11,6,0
1532122284253,-2,-3,-7,-20,-3,-6,-3,0
1532122284258,0,0,7,0,1,11,-3,2
1532122284263,-2,-2,-2,-2,0,6,-6,-4
1532122284268,-1,-1,3,2,0,0,-2,-3
1532122284273,0,-1,1,17,0,-2,3,0
1532122284278,0,0,-1,-3,-1,-1,-3,0
1532122284283,-1,0,-1,-2,0,0,0,0
1532122284288,-2,1,-4,3,1,1,-3,-2
1532122284293,0,-1,3,6,-5,-5,2,-2
1532122284298,-1,-2,-1,2,1,-7,-13,5
1532122284303,-1,0,0,5,-2,-6,0,-5
1532122284308,0,-2,-3,-2,0,-7,-1,-2
1532122284313,1,1,3,1,-2,-2,-4,1
1532122284318,0,-2,2,1,0,-6,6,-1
1532122284323,0,0,4,-3,3,3,0,5
1532122284328,-1,-3,-5,-1,-1,-1,0,-2
1532122284333,1,-1,7,40,1,-11,0,-3
1532122284338,1,-3,-10,-43,-4,2,9,-1
1532122284343,-2,-2,0,-1,0,2,-6,-2
1532122284348,1,1,-1,1,1,4,0,-1
1532122284353,-1,-2,2,-8,-5,-5,-5,-1
1532122284358,0,0,2,17,0,-3,0,0
1532122284363,-1,0,-2,2,-1,0,-2,-4
1532122284368,-1,-2,-2,-6,0,5,6,2
1532122284373,2,3,5,-3,2,6,-2,2
1532122284378,-1,1,1,6,2,1,-1,-5
1532122284383,-1,0,-2,-6,-1,3,1,-1
1532122284388,-3,-2,2,13,0,-1,-3,-2
1532122284393,0,-1,-8,-11,-3,-3,9,0
1532122284398,-2,-2,1,-2,-1,5,-9,-1
1532122284403,0,0,4,3,-3,-1,2,2
1532122284408,0,2,1,0,-3,5,1,-3
1532122284413,-3,-3,-3,-9,3,0,0,0
1532122284418,-2,0,2,-1,-2,2,-2,0
1532122284423,-1,0,-3,6,0,-2,0,-2
1532122284428,2,-3,2,1,-3,2,-3,-1
1532122284433,-1,-2,-6,-15,-4,0,-2,-2
1532122284438,0,0,0,6,-3,0,-1,-1
1532122284443,-4,-2,1,3,2,-1,-1,0
1532122284448,0,-1,-3,-10,0,5,12,3
1532122284453,-3,0,-1,0,-2,-4,-14,-5
1532122284458,0,1,-1,-12,-1,-4,2,-2
1532122284463,-1,-2,-5,-10,1,7,1,0
1532122284468,-2,0,2,-2,1,1,-6,-2
1532122284473,2,0,-1,0,-1,4,7,2
1532122284478,-2,-2,1,10,3,-1,-3,1
1532122284483,-2,2,3,-4,-3,1,1,-1
1532122284488,-1,-1,-11,-13,-4,-2,-2,0
1532122284493,-2,0,-1,2,1,4,-2,-1
1532122284498,-1,-2,1,1,-2,-2,3,0
1532122284503,0,-3,-4,1,-1,3,3,1
1532122284508,-2,-1,4,3,0,2,-5,-2
1532122284513,0,-1,2,1,-1,1,-1,0
1532122284518,0,-1,-3,2,0,5,3,0
1532122284523,1,0,-6,-14,-6,-5,1,-1
1532122284528,-2,-1,1,8,4,9,1,1
1532122284533,-2,0,6,10,-2,-2,-1,-3
1532122284538,-1,-1,-2,1,2,4,-3,0
1532122284543,1,-1,1,-5,-1,0,-1,2
1532122284548,-3,-1,-8,-8,-3,-6,-9,-7
1532122284553,-1,0,-1,-10,-1,4,1,0
1532122284558,-1,-2,8,36,2,0,1,-1
1532122284563,-2,-1,-9,-17,-5,3,-7,-3
1532122284568,0,-1,8,5,0,-4,2,2
1532122284573,-1,-3,-8,2,4,7,-3,-2
1532122284578,-2,0,-2,-9,-7,-3,-3,2
1532122284583,0,-1,4,9,2,2,0,-2
1532122284588,0,-1,0,-13,1,-1,0,1
1532122284593,1,-2,1,2,1,4,-3,-4
1532122284598,0,-1,-9,-14,-8,7,-2,0
1532122284603,1,2,-4,-18,-3,-3,0,-3
1532122284608,-3,-3,1,5,-2,5,-5,-4
1532122284613,1,3,8,-10,-4,9,2,3
1532122284618,-2,-3,-8,8,3,-9,-2,-1
1532122284623,1,3,11,36,-1,5,-2,0
1532122284628,0,0,-4,-36,5,27,0,0
1532122284633,-3,-2,-7,-3,-10,-37,-2,-2
1532122284638,-2,2,8,11,2,3,-3,-4
1532122284643,-2,-4,-8,-15,-4,-9,-6,2
1532122284648,-1,2,2,12,2,32,7,-2
1532122284653,0,-1,-8,-11,-1,43,0,0
1532122284658,-1,2,10,-8,2,20,-5,-2
1532122284663,-3,-5,-8,6,0,-12,2,-1
1532122284668,0,2,8,42,0,-30,-4,-1
1532122284673,-1,-2,-7,-31,-7,-47,2,-1
1532122284678,-2,2,-6,-20,-9,-20,-3,-1
1532122284683,-1,-1,6,15,4,2,-1,-3
1532122284688,0,-4,-9,5,6,-28,2,2
1532122284693,-1,-2,5,24,-1,-3,1,1
1532122284698,0,2,12,20,8,-6,-3,-8
1532122284703,-1,1,-20,-54,-8,-1,-5,4
1532122284708,-3,-7,-8,-24,-3,29,-7,-3
1532122284713,-1,2,2,16,-5,-27,-1,2
1532122284718,-1,-2,-4,-4,-2,0,5,-5
1532122284723,1,3,4,5,2,-1,6,0
1532122284728,0,-3,8,5,-3,3,1,-3
1532122284733,0,-2,-10,4,4,25,-3,-4
1532122284738,0,1,2,16,0,-16,-4,1
1532122284743,1,3,1,-31,4,11,2,-4
1532122284748,-1,-1,0,13,1,8,-6,-2
1532122284753,0,1,12,39,3,3,-14,-7
1532122284758,0,2,-20,-19,-3,10,7,-1
1532122284763,-2,-5,4,10,-5,-10,-4,4
1532122284768,-1,-1,-4,3,-3,15,0,-4
1532122284773,1,-2,1,-30,-9,10,-2,2
1532122284778,3,4,14,29,4,6,7,0
1532122284783,-2,-1,-6,-38,3,-7,-1,3
1532122284788,1,2,-2,12,3,-5,-5,2
1532122284793,-1,-3,-4,-12,-10,-7,5,2
1532122284798,-1,2,8,23,2,5,-1,-5
1532122284803,0,-1,-5,10,-6,6,0,-2
1532122284808,0,1,-2,-26,11,31,1,-1
1532122284813,-2,-1,2,3,-9,-53,-3,-1
1532122284818,0,-1,-8,-30,-5,10,-5,3
1532122284823,-2,-2,4,21,2,9,1,2
1532122284828,-3,0,0,5,-6,-17,-2,-3
1532122284833,-2,-1,-4,8,6,31,-2,-3
1532122284838,-2,-5,-5,-26,-9,-2,1,-2
1532122284843,-1,0,-1,19,14,4,11,4
1532122284848,2,3,9,8,1,-24,-13,0
1532122284853,-3,-6,-18,-9,26,32,5,-6
1532122284858,-3,-5,0,-9,-32,52,-9,-4
1532122284863,3,3,11,-1,20,-78,11,4
1532122284868,1,-3,-20,-40,-14,-25,1,3
1532122284873,1,5,-1,0,-4,-6,10,4
1532122284878,3,2,0,-2,8,-8,-5,1
1532122284883,-1,-3,5,28,-16,31,-13,-3
1532122284888,-1,-1,5,-9,-6,10,4,-6
1532122284893,0,-4,-10,-22,1,-5,-7,0
1532122284898,0,1,-2,7,-3,-18,10,0
1532122284903,-3,-1,0,1,-2,21,-18,-2
1532122284908,-3,-3,-1,5,0,-4,-1,-7
1532122284913,-1,2,1,6,-5,5,0,-3
1532122284918,-2,-1,-2,-13,8,-3,-3,-1
1532122284923,-1,-3,-2,1,-5,32,6,0
1532122284928,0,1,2,7,-2,-33,6,4
1532122284933,-2,-3,2,3,-1,-13,-8,-2
1532122284938,-1,0,-2,-14,0,-18,3,3
1532122284943,0,-2,0,3,-4,1,-7,-3
1532122284948,0,-3,-3,11,5,33,7,2
1532122284953,0,-2,6,18,-6,-7,1,-2
1532122284958,0,2,3,-17,9,-11,7,1
1532122284963,-4,-4,-19,-10,-12,27,-17,-1
1532122284968,2,5,5,7,6,-15,10,-6
1532122284973,2,4,6,4,6,3,2,-2
1532122284978,-3,-7,-4,-2,6,1,-1,2
1532122284983,0,1,7,14,-1,-1,6,-1
1532122284988,-2,-1,-4,0,1,24,0,2
1532122284993,-2,-2,-3,-13,-8,-45,-4,3
1532122284998,0,0,2,7,-1,-3,5,1
1532122285003,0,1,1,-6,-2,-3,-7,-5
1532122285008,-2,-1,-2,-1,0,-3,-5,-2
1532122285013,2,0,1,-2,0,16,8,0
1532122285018,-1,-2,-2,-4,11,-29,1,1
1532122285023,-3,-1,6,8,-13,4,-16,-4
1532122285028,1,4,0,6,17,-22,16,2
1532122285033,0,-1,1,-6,-11,-64,-11,-2
1532122285038,0,0,-1,-1,-4,-10,-1,-3
1532122285043,2,3,6,13,7,-13,11,2
1532122285048,1,1,-5,-6,4,18,-3,-4
1532122285053,-3,-1,-1,-12,-2,26,-4,3
1532122285058,-1,-4,-4,2,-6,-14,-3,-2
1532122285063,0,2,4,4,2,-1,7,-4
1532122285068,-1,-4,6,5,0,4,-14,-3
1532122285073,-2,-1,-12,-7,-7,5,3,-4
1532122285078,-2,-1,-5,-23,-4,7,4,3
1532122285083,0,2,14,33,1,10,-19,-3
1532122285088,-2,-2,-9,4,-7,0,1,-6
1532122285093,-2,-5,-11,-28,3,29,-11,-1
1532122285098,0,6,4,-3,-5,3,3,3
1532122285103,-2,-5,-8,-6,9,10,5,-1
1532122285108,-2,-1,6,3,-14,-19,-5,3
1532122285113,4,4,17,53,5,-10,-3,-2
1532122285118,0,3,-5,-2,-8,24,9,-6
1532122285123,0,-3,-2,-9,-6,19,1,2
1532122285128,-5,-10,-20,-26,-5,21,-10,3
1532122285133,-5,-4,8,-17,5,27,17,3
1532122285138,-4,-6,-4,24,2,-11,-10,-5
1532122285143,0,2,7,6,7,19,0,-3
1532122285148,-1,-2,1,19,-1,-11,4,-4
1532122285153,-1,-1,-5,-22,4,17,4,2
1532122285158,-2,-3,-1,2,-17,-39,-13,-4
1532122285163,-1,1,0,-10,-2,-30,6,-6
1532122285168,0,-3,-2,11,5,9,6,3
1532122285173,-4,-3,-14,-31,0,20,-5,-2
1532122285178,-3,-1,2,-3,4,17,-4,5
1532122285183,1,2,-5,-3,4,-3,24,10
1532122285188,-1,1,7,-5,-7,-2,3,-2
1532122285193,3,4,14,42,-1,-25,-4,-3
1532122285198,-2,-5,-20,-12,0,21,7,-5
1532122285203,-1,-4,-3,-17,-2,16,4,3
1532122285208,-2,5,14,-5,5,1,-20,-2
1532122285213,0,-4,-26,-32,-16,8,2,1
1532122285218,-1,-1,10,17,13,-9,-7,-2
1532122285223,0,0,-7,10,0,-5,2,-3
1532122285228,1,-3,-8,-26,0,13,2,1
1532122285233,-1,1,0,-5,-12,-33,-3,2
1532122285238,0,0,4,-9,-3,-14,-3,-2
1532122285243,0,1,2,9,6,41,6,3
1532122285248,-1,0,2,9,-11,-39,-19,-1
1532122285253,1,3,5,9,8,0,1,-6
1532122285258,2,1,-2,10,-2,1,7,-2
1532122285263,-4,-4,-3,-7,-2,-17,-15,-2
1532122285268,0,-1,-2,-9,0,4,5,-3
1532122285273,1,-2,1,9,-2,8,2,1
1532122285278,-1,1,1,-2,1,2,-7,0
1532122285283,0,-2,-1,-10,-7,-2,-6,-2
1532122285288,-1,0,-2,-6,7,17,5,2
1532122285293,-2,-3,2,11,-1,7,-2,-4
1532122285298,1,0,-1,-2,4,11,2,-3
1532122285303,1,-3,-2,-12,-9,-23,2,0
1532122285308,0,-2,2,10,8,32,8,1
1532122285313,-2,-1,3,2,-13,-24,-13,-1
1532122285318,-1,2,-5,-7,-4,-51,3,0
1532122285323,-1,0,-7,-4,-2,2,0,-4
1532122285328,-1,0,12,32,6,6,5,0
1532122285333,-1,-3,-19,-38,0,18,6,0
1532122285338,1,-1,5,14,-8,-15,0,7
1532122285343,-3,-2,-9,-30,-9,-21,-9,-5
1532122285348,-2,0,-7,-22,2,-4,-2,-2
1532122285353,-1,2,16,34,-1,-16,-12,-6
1532122285358,3,2,2,17,-6,-29,-5,-3
1532122285363,-4,-7,-3,-23,6,22,-5,4
1532122285368,1,2,6,1,2,6,-3,-5
1532122285373,0,1,2,6,2,-17,-3,1
1532122285378,-1,4,1,30,-10,-27,4,3
1532122285383,-2,-3,-1,-51,7,-21,-3,-4
1532122285388,4,2,-13,56,-9,-6,-3,-4
1532122285393,-1,-10,-8,-21,0,-11,3,2
1532122285398,-3,-4,9,-21,-5,2,-16,5
1532122285403,4,4,10,34,14,-5,17,4
1532122285408,-4,-4,8,-19,-13,8,-3,-4
1532122285413,0,5,12,64,20,3,-4,-6
1532122285418,2,-5,-27,-51,0,-2,0,0
1532122285423,0,0,5,7,1,13,-3,-1
1532122285428,-2,1,7,-13,8,11,-1,-4
1532122285433,-2,-5,-13,9,-9,-37,-3,0
1532122285438,-2,0,5,5,2,3,-1,-6
1532122285443,-1,2,-5,-5,0,-2,6,1
1532122285448,-1,1,-4,8,3,-2,-5,-2
1532122285453,-1,1,-1,-23,-3,15,0,0
1532122285458,0,-2,0,5,-5,-10,-11,-1
1532122285463,-1,-1,3,23,-1,4,1,-6
1532122285468,-1,-1,-4,-16,-3,26,1,4
1532122285473,0,-1,-3,-29,-4,47,-4,1
1532122285478,-3,-2,2,-16,1,18,6,-4
1532122285483,-1,0,-3,13,-9,11,-5,-3
1532122285488,0,0,1,-16,2,1,-5,2
1532122285493,2,1,5,-2,2,3,7,5
1532122285498,-1,0,-2,7,-4,-7,-2,-9
1532122285503,-1,0,-1,-3,2,7,-1,-3
1532122285508,-4,-5,-4,0,1,-18,2,0
1532122285513,-2,1,0,-5,-6,-16,0,2
1532122285518,-1,-5,-14,-33,-2,24,7,4
1532122285523,-1,-1,1,8,-3,-50,-8,2
1532122285528,-2,1,8,26,-1,-15,2,2
1532122285533,0,-2,-9,-15,-3,17,0,1
1532122285538,-1,0,7,5,6,2,8,0
1532122285543,-1,-4,-9,-13,-7,2,1,1
1532122285548,2,5,8,37,-2,-34,-4,5
1532122285553,-1,-1,-23,-27,9,5,3,-3
1532122285558,0,3,15,18,-6,-26,6,1
1532122285563,1,2,-4,-45,-5,-6,6,-6
1532122285568,1,-6,-8,13,6,26,-2,8
1532122285573,-1,2,22,74,-2,-8,-7,-4
1532122285578,4,2,-21,-61,-3,12,4,-1
1532122285583,-3,-4,-1,-2,3,38,-3,3
1532122285588,2,2,14,14,-26,-38,15,-7
1532122285593,1,-5,10,-38,10,46,-9,12
1532122285598,-3,-4,-4,23,-1,-44,-1,-1
1532122285603,-1,-2,-2,4,0,-17,-4,-3
1532122285608,1,2,0,-28,9,-3,11,2
1532122285613,-2,-1,-10,2,-4,-7,-9,-5
1532122285618,-1,-2,1,1,-1,22,-6,-4
1532122285623,1,-2,-1,20,5,4,1,0
1532122285628,-3,-2,-4,-14,-2,26,1,-3
1532122285633,0,1,4,14,-1,0,2,-2
1532122285638,-1,-2,-7,-21,-2,43,-3,-1
1532122285643,0,0,0,5,-4,-4,6,1
1532122285648,-5,-3,-7,-20,-1,11,-21,-6
1532122285653,-2,1,-3,-3,-5,10,4,0
1532122285658,0,-1,1,-3,-4,21,-1,1
1532122285663,-2,0,8,13,0,20,8,3
1532122285668,0,-2,-4,-10,-3,-4,5,1
1532122285673,-3,-3,-4,-5,-2,-17,-8,-2
1532122285678,2,5,8,12,9,-6,-2,0
1532122285683,-3,-5,-21,-22,-17,-32,-6,-1
1532122285688,-2,0,6,8,8,-11,-8,-4
1532122285693,0,1,-2,5,-10,-26,-1,-3
1532122285698,-3,-2,3,28,-2,-17,4,4
1532122285703,0,-1,-7,-38,2,-11,-7,-3
1532122285708,-1,-3,0,0,17,38,0,0
1532122285713,-2,-4,-4,-2,-21,-44,4,-2
1532122285718,-1,-1,0,3,1,-16,-3,-5
1532122285723,0,2,3,19,1,-35,-3,-3
1532122285728,-2,-3,-1,6,0,-16,-5,2
1532122285733,0,1,12,24,11,-9,-1,-3
1532122285738,-2,-4,-12,-36,-2,-1,2,0
1532122285743,-1,1,6,17,-5,-31,-5,-2
1532122285748,3,2,-2,3,-1,4,2,-1
1532122285753,-1,0,-2,-14,-7,15,1,4
1532122285758,-1,-1,3,1,3,10,-1,2
1532122285763,-3,-2,-4,-17,9,32,-5,-3
1532122285768,-3,0,-2,9,-16,-10,-2,-3
1532122285773,-1,1,0,-3,-2,1,-2,-1
1532122285778,-1,0,2,3,-4,-2,0,-3
1532122285783,-1,0,4,12,8,18,3,2
1532122285788,-1,-3,-5,-13,-3,-27,6,2
1532122285793,-1,-3,-4,3,6,30,-4,-4
1532122285798,-3,-4,-11,-34,-13,4,-8,-4
1532122285803,-2,-3,2,18,13,17,0,2
1532122285808,-2,-1,-2,0,-17,-46,-4,-6
1532122285813,1,0,-2,-12,3,5,10,3
1532122285818,-2,-2,-1,8,1,-8,-14,-1
1532122285823,1,0,3,3,-3,-11,-1,-2
1532122285828,-1,-1,4,4,1,12,1,0
1532122285833,1,-1,-2,-4,4,13,-2,1
1532122285838,0,-1,-2,-3,-5,-1,6,-1
1532122285843,1,2,3,6,-2,13,-10,1
1532122285848,1,2,-1,-5,4,3,6,-1
1532122285853,0,2,8,22,3,-12,-11,0
1532122285858,0,-3,-11,-33,-1,9,4,-2
1532122285863,-2,-1,4,-4,-4,-15,-2,4
1532122285868,-1,-2,-10,-3,-3,3,-1,-2
1532122285873,1,0,-2,-8,1,15,14,5
1532122285878,0,2,11,35,12,-24,-17,-8
1532122285883,0,-2,-2,3,-12,-24,11,-4
1532122285888,-1,-1,-4,-13,4,18,-5,1
1532122285893,1,2,1,12,-3,-16,7,1
1532122285898,0,0,-1,-10,0,31,4,1
1532122285903,-1,-1,1,20,5,20,3,-4
1532122285908,-3,-2,-1,-8,-1,-3,-9,2
1532122285913,-1,-2,-3,-8,-2,5,-6,-6
1532122285918,0,-1,-1,-2,5,37,13,5
1532122285923,-1,1,-2,-5,-8,-26,-6,-2
1532122285928,0,-2,3,4,-2,-5,9,3
1532122285933,-2,-1,-2,-7,3,9,-15,-5
1532122285938,-2,-1,0,1,-7,-10,-3,-3
1532122285943,1,-1,1,8,3,11,-1,0
1532122285948,0,1,-3,-9,-1,19,4,-2
1532122285953,0,-4,-4,-7,0,-15,3,4
1532122285958,0,0,5,10,8,-7,2,3
1532122285963,-3,0,-6,-10,-9,-11,-7,-3
1532122285968,2,0,1,1,-3,-29,3,2
1532122285973,-1,0,-2,-1,1,9,5,-1
1532122285978,-1,-2,8,12,4,-19,-5,-8
1532122285983,4,2,9,-1,4,22,5,6
1532122285988,0,11,-12,10,-7,-19,0,0
1532122285993,-5,-16,-8,-22,-4,7,4,-1
1532122285998,1,-1,5,-9,-13,29,-8,1
1532122286003,3,4,16,26,10,-58,30,6
1532122286008,-2,-4,-10,-16,-6,36,-1,-8
1532122286013,0,-2,-33,-53,-6,41,3,6
1532122286018,-2,-21,-11,-4,-4,-9,-6,0
1532122286023,-1,16,97,36,-4,-41,-1,-3
1532122286028,3,-19,-93,-19,-3,4,5,-1
1532122286033,-10,-9,9,0,-10,-10,-7,-6
1532122286038,-3,-4,9,33,-1,12,-1,-9
1532122286043,-2,-10,-7,52,5,24,-11,-2
1532122286048,1,8,44,-6,15,12,-1,3
1532122286053,5,9,2,29,6,-15,8,2
1532122286058,1,8,0,-6,2,-22,2,2
1532122286063,-2,4,-11,7,6,-12,5,-1
1532122286068,1,6,17,10,6,-10,-4,-5
1532122286073,-1,-1,-7,-13,4,-3,-11,-3
1532122286078,1,10,10,5,-4,-38,1,-4
1532122286083,2,-3,-26,-27,5,4,-9,-2
1532122286088,-5,-6,0,-17,-10,2,-2,0
1532122286093,0,0,12,-4,1,13,2,6
1532122286098,2,7,0,3,3,-34,-2,0
1532122286103,0,1,-26,-17,7,25,-19,-16
1532122286108,-1,-5,13,-7,-11,7,-2,12
1532122286113,-1,4,8,20,-3,-46,9,-2
1532122286118,-2,0,-6,-7,-2,-4,2,3
1532122286123,-3,-8,-22,-36,-8,-30,-8,-2
1532122286128,-3,-1,17,18,3,-21,-3,-5
1532122286133,2,2,3,9,0,-7,2,1
1532122286138,1,1,-6,-12,-1,3,1,0
1532122286143,-3,-7,-13,-20,-10,39,3,2
1532122286148,0,0,6,14,5,45,-13,-6
1532122286153,1,0,1,5,-3,27,4,3
1532122286158,-2,-3,-8,-10,-3,24,-2,-4
1532122286163,-2,-1,3,14,-1,34,-5,3
1532122286168,-2,-2,1,-22,-2,-41,1,1
1532122286173,-2,0,-5,0,4,-40,-7,-9
1532122286178,-1,-3,-5,-32,-2,21,3,5
1532122286183,-2,-7,-8,-6,-2,-17,2,-1
1532122286188,4,8,16,28,3,-45,8,-1
1532122286193,-2,-3,-8,-2,4,21,-8,-7
1532122286198,-2,-4,2,7,-2,6,4,5
1532122286203,0,0,-11,-30,-8,24,1,3
1532122286208,0,-1,-2,17,-3,5,-2,-2
1532122286213,-2,3,21,67,15,13,-10,-3
1532122286218,1,4,-3,-51,-15,-7,10,-4
1532122286223,-5,-5,-23,-1,3,22,-13,0
1532122286228,-2,-3,11,-10,-11,-45,3,-1
1532122286233,-2,-6,-12,11,2,22,-5,1
1532122286238,0,-3,1,13,4,16,0,2
1532122286243,3,4,10,6,-4,-6,-6,1
1532122286248,-1,-2,1,-2,9,27,6,-5
1532122286253,1,3,0,16,-6,-33,-3,1
1532122286258,-3,3,-15,-27,-3,-27,3,-2
1532122286263,-1,-5,3,-13,-6,-24,7,0
1532122286268,-4,-4,-2,18,3,27,-10,-1
1532122286273,1,0,-2,-30,-10,13,6,2
1532122286278,1,3,10,12,-2,37,0,-4
1532122286283,-2,-1,-3,16,6,23,-8,-3
1532122286288,1,0,-10,-20,-2,22,6,3
1532122286293,1,1,6,1,-5,10,-4,-3
1532122286298,-2,-4,-6,1,1,38,-1,-1
1532122286303,-1,2,2,-6,-2,3,2,-3
1532122286308,-1,-2,-3,-5,-3,18,7,3
1532122286313,0,1,-3,-27,-3,15,5,1
1532122286318,-3,-5,-1,20,-2,-11,-1,2
1532122286323,0,-1,-1,-1,-4,-5,10,-1
1532122286328,-1,2,0,7,3,-8,-12,-4
1532122286333,0,-2,0,-6,-6,-18,9,3
1532122286338,-3,-4,0,14,-1,-20,-10,-8
1532122286343,0,0,-3,-13,-5,-34,-4,-4
1532122286348,-1,-3,-4,6,7,10,-5,1
1532122286353,-3,-3,-4,-24,-5,20,-8,-3
1532122286358,0,0,3,19,10,-36,-1,1
1532122286363,0,2,5,-8,-5,-7,4,3
1532122286368,-1,1,-4,6,1,-17,-8,-9
1532122286373,-1,-1,13,44,9,-1,1,1
1532122286378,-1,-4,-17,-58,-9,-2,-7,-1
1532122286383,0,-1,2,10,-2,-6,-2,1
1532122286388,2,0,4,9,-2,1,9,-1
1532122286393,0,0,2,4,-1,20,6,-2
1532122286398,-1,-3,2,17,12,29,-1,2
1532122286403,0,0,13,49,3,-16,-1,0
1532122286408,-1,-7,-31,-70,-8,14,5,-1
1532122286413,1,7,12,5,0,-28,3,0
1532122286418,-1,-1,3,11,0,-9,0,-2
1532122286423,0,-4,-8,-11,-3,10,-3,2
1532122286428,-5,5,10,28,12,22,0,-3
1532122286433,-3,-9,-31,-54,-14,-20,-3,-5
1532122286438,-2,0,2,1,0,-7,-8,-1
1532122286443,0,3,-2,-8,2,-29,5,1
1532122286448,-2,0,-1,-5,-8,-32,-8,3
1532122286453,-2,-3,2,-5,-6,-12,5,1
1532122286458,1,1,-2,-1,-4,-15,1,-1
1532122286463,0,-2,-3,-2,3,12,-5,-2
1532122286468,1,0,7,32,-2,0,-8,-6
1532122286473,1,1,-4,-42,5,-2,-3,0
1532122286478,-1,1,0,8,2,17,-7,-7
1532122286483,-1,-3,1,-10,-7,12,5,2
1532122286488,0,-1,1,2,-4,-9,-9,0
1532122286493,-1,-1,1,9,-1,6,0,-4
1532122286498,0,2,-2,3,3,6,0,-4
1532122286503,-1,0,-3,-4,-1,-5,-4,-3
1532122286508,-1,-4,-2,-15,-4,10,6,0
1532122286513,-2,0,2,5,4,34,2,1
1532122286518,2,0,1,-1,-5,-33,-2,2
1532122286523,-2,-2,-2,8,4,15,-3,-9
1532122286528,0,-3,-13,-24,-6,-8,-14,1
1532122286533,0,1,8,3,0,1,9,2
1532122286538,0,-2,2,7,0,-4,3,-1
