1532640429530,-12,-12,4,1,-3,-28,-9,-1
1532640429535,15,63,-12,-6,1,-27,-2,-2
1532640429540,-41,-95,-7,-3,-1,-30,-4,-7
1532640429545,17,-9,6,-1,1,-8,-1,4
1532640429550,20,-7,-10,-9,-7,-19,-3,-3
1532640429555,-4,-32,6,-3,-7,-12,11,-2
1532640429560,5,26,4,4,-1,-8,-5,3
1532640429565,5,10,2,2,4,0,0,-3
1532640429570,-2,-1,0,-1,-3,-6,0,3
1532640429575,-6,4,-1,-1,-4,-4,-5,3
1532640429580,0,13,3,5,2,-5,2,1
1532640429585,2,4,2,2,3,-1,5,0
1532640429590,-6,8,0,4,1,-4,-2,-4
1532640429595,-6,-8,-4,-10,-6,1,-2,-5
1532640429600,-4,-13,-8,0,0,-5,-2,-1
1532640429605,10,22,8,5,2,1,-2,-1
1532640429610,-3,-3,-2,-2,-3,0,-1,-3
1532640429615,-7,-19,-8,-11,-5,-1,-3,-3
1532640429620,7,22,3,5,2,-1,1,2
1532640429625,15,17,7,10,5,4,1,-2
1532640429630,-34,-17,-5,-4,-3,-1,-3,-6
1532640429635,0,-7,-2,-9,-3,-1,-3,-3
1532640429640,1,25,3,4,2,-1,3,-1
1532640429645,4,-7,0,-1,0,4,-3,-1
1532640429650,-1,-10,-1,-3,-1,-1,-1,1
1532640429655,-3,6,1,6,0,1,-5,-4
1532640429660,-11,-11,-6,-7,-3,0,4,0
1532640429665,1,8,1,2,2,4,-1,1
1532640429670,2,-6,1,-3,-2,2,1,0
1532640429675,-4,-23,-9,-6,-3,-1,1,0
1532640429680,4,5,4,1,0,1,-4,-2
1532640429685,-1,-1,-4,-3,-3,2,-1,-5
1532640429690,0,-6,-9,-7,-2,-2,-2,-1
1532640429695,3,7,2,1,-1,1,1,0
1532640429700,-1,-12,5,12,4,0,1,1
1532640429705,-3,4,-1,-4,-1,-1,-5,-2
1532640429710,0,1,4,2,1,2,0,-3
1532640429715,1,8,-3,-5,-2,1,-1,0
1532640429720,-1,3,2,-2,-3,0,1,0
1532640429725,-4,-11,-4,0,-1,2,-5,-2
1532640429730,0,10,4,3,-1,0,0,-2
1532640429735,-1,2,2,0,0,0,-1,-1
1532640429740,1,-5,-6,0,-2,0,-2,-2
1532640429745,0,19,6,3,-2,0,1,1
1532640429750,-3,0,-6,-4,-1,-2,4,-3
1532640429755,2,-2,-1,-3,-2,-1,-13,-2
1532640429760,3,-11,3,1,0,-1,1,0
1532640429765,0,5,2,6,-2,-1,-1,-3
1532640429770,1,-5,-2,-2,-2,0,-2,0
1532640429775,-3,2,4,1,2,-2,0,-2
1532640429780,2,4,0,3,3,10,1,3
1532640429785,-2,-3,-1,-5,-1,-5,2,2
1532640429790,-3,-3,-6,-4,-5,1,-1,-2
1532640429795,1,0,-3,2,-1,-3,2,-2
1532640429800,3,4,7,5,6,1,5,2
1532640429805,3,-7,-10,-6,-1,-1,4,-4
1532640429810,-7,-4,-4,-6,0,-7,-13,-4
1532640429815,-2,4,10,3,1,1,2,1
1532640429820,0,-4,-3,0,-1,-2,1,0
1532640429825,2,2,4,2,-1,0,-7,-1
1532640429830,-4,-6,1,-4,-2,-2,6,-3
1532640429835,7,2,-13,-11,-5,4,1,2
1532640429840,-17,-3,4,-1,-1,-11,-13,-2
1532640429845,0,-2,7,8,2,0,5,-5
1532640429850,11,2,1,2,2,6,-4,-7
1532640429855,7,5,-4,-1,-2,-2,8,0
1532640429860,-12,-4,-4,-1,-2,3,2,-5
1532640429865,3,-1,0,-1,2,-2,-10,-5
1532640429870,6,15,-2,-3,-2,-1,2,2
1532640429875,4,-2,-1,2,0,3,-4,-2
1532640429880,2,-5,0,-2,-2,12,17,-2
1532640429885,1,0,3,1,-3,-13,-46,-3
1532640429890,8,2,2,2,5,6,3,6
1532640429895,-15,-3,-4,-8,-6,-9,1,-5
1532640429900,11,9,4,1,1,-10,-19,-1
1532640429905,2,-1,0,1,-2,24,29,-1
1532640429910,2,-4,0,1,0,-10,-30,-4
1532640429915,8,0,3,4,0,-2,8,2
1532640429920,-9,-13,-10,-9,0,-7,-13,-7
1532640429925,-5,-7,-8,-6,-12,-5,3,-1
1532640429930,3,3,10,2,10,7,7,0
1532640429935,-9,-2,-3,1,7,0,1,-3
1532640429940,-5,1,1,-5,-13,-5,-4,-4
1532640429945,-3,-4,-7,-4,4,0,5,0
1532640429950,-8,-4,-7,-4,-19,-2,7,0
1532640429955,-1,-2,0,-1,3,9,-6,-2
1532640429960,12,9,5,5,10,1,17,6
1532640429965,15,5,14,22,16,9,-17,-3
1532640429970,-11,1,-2,-19,10,-5,16,0
1532640429975,-5,-9,-8,-7,-4,-9,7,2
1532640429980,-4,-7,-13,-14,-16,-8,-18,-2
1532640429985,-17,-4,-7,-12,-3,-1,14,4
1532640429990,-2,-9,5,11,4,-1,-11,0
1532640429995,5,1,10,10,-1,3,-7,-3
1532640430000,9,8,7,8,3,9,12,2
1532640430005,3,10,0,-3,-3,-6,-3,0
1532640430010,3,-21,-3,-2,-4,3,-3,-1
1532640430015,-4,5,-12,-12,-6,-2,4,-4
1532640430020,2,-5,-2,1,-4,-1,-1,-2
1532640430025,-3,2,1,-4,1,-3,-2,0
1532640430030,-2,4,-1,1,3,-4,-1,1
1532640430035,0,-1,2,8,-1,15,13,-5
1532640430040,2,7,11,7,10,2,4,-1
1532640430045,-6,-4,-7,-6,-1,-4,16,-3
1532640430050,-9,-6,-3,-4,-10,-4,-12,-7
1532640430055,2,-2,1,2,-2,-7,-13,-1
1532640430060,4,-6,-5,-5,2,4,-6,-3
1532640430065,-3,-3,-4,-6,-13,-4,8,1
1532640430070,6,4,5,2,-11,4,15,3
1532640430075,-3,-1,-10,1,11,1,-5,-3
1532640430080,-2,4,13,5,10,-4,-1,-3
1532640430085,0,0,-3,-1,-2,-3,3,0
1532640430090,3,2,3,1,1,0,-4,-1
1532640430095,-9,-5,-10,-4,-8,-4,-8,-3
1532640430100,-9,3,-7,-1,-6,-1,3,-3
1532640430105,-2,2,18,7,6,2,-10,-5
1532640430110,-2,3,6,1,-4,10,3,-4
1532640430115,-7,-2,-3,-2,1,-6,-4,-3
1532640430120,-8,-8,-8,-7,-8,-6,28,3
1532640430125,-2,-2,-8,-2,3,5,-10,0
1532640430130,-1,12,-4,2,1,10,17,1
1532640430135,-2,-16,4,-3,-3,-11,-6,1
1532640430140,0,-3,-12,-6,-2,-1,-6,-2
1532640430145,0,-2,-4,-5,-11,-3,0,-2
1532640430150,4,0,3,5,-9,8,-7,2
1532640430155,-4,6,13,11,25,3,29,-1
1532640430160,4,1,3,6,6,3,-5,-2
1532640430165,0,0,-5,-3,-9,-5,4,-3
1532640430170,0,-4,-7,-7,-6,-4,-6,-2
1532640430175,3,-2,-3,-8,-14,2,-9,-1
1532640430180,0,-5,-20,-13,-14,-3,-6,0
1532640430185,3,6,12,9,2,4,4,4
1532640430190,0,1,5,17,8,-6,-7,-6
1532640430195,3,3,5,5,-19,-3,-7,-2
1532640430200,-3,5,2,-9,7,-2,-6,-4
1532640430205,0,-27,-23,-15,0,3,0,2
1532640430210,4,7,8,3,9,-3,15,3
1532640430215,-1,1,17,12,5,-7,-34,-4
1532640430220,1,-2,1,4,1,4,5,1
1532640430225,0,6,-7,-3,4,6,1,0
1532640430230,-5,-12,-12,-12,-3,-17,-14,-5
1532640430235,-1,-3,-13,-6,-2,0,4,-3
1532640430240,2,0,8,4,-4,-1,-4,-1
1532640430245,-2,-1,7,3,-3,6,-10,-4
1532640430250,2,-3,-11,-5,6,-9,16,4
1532640430255,-1,1,-2,-4,-2,0,2,1
1532640430260,-5,-3,1,-1,-7,-10,-24,-11
1532640430265,-6,4,-6,-7,-12,4,8,-2
1532640430270,-2,-4,-5,-4,11,-2,0,-2
1532640430275,1,4,-3,-3,-2,4,7,3
1532640430280,-4,10,0,14,5,7,2,-2
1532640430285,-1,-9,19,11,7,-1,-7,-2
1532640430290,-3,1,-6,-4,-7,0,4,-2
1532640430295,3,-1,0,-3,0,0,1,1
1532640430300,3,6,-2,-1,1,3,6,3
1532640430305,0,-3,-7,-4,5,-3,1,-1
1532640430310,-5,-2,-6,-8,-6,1,-6,-7
1532640430315,-4,-4,-9,-8,-2,-6,-5,-8
1532640430320,2,-5,5,-5,-3,0,-3,-1
1532640430325,0,7,-14,4,4,-4,4,-3
1532640430330,6,7,24,10,3,10,14,15
1532640430335,-4,-5,10,2,3,0,-22,1
1532640430340,-10,-13,-8,-7,-10,-16,-30,-48
1532640430345,-4,12,-7,-9,0,-6,-4,-3
1532640430350,2,-6,-13,2,-3,-1,-2,-3
1532640430355,16,12,25,11,6,9,29,22
1532640430360,-11,-3,3,3,6,7,-1,14
1532640430365,-47,-25,-5,-6,-3,-12,-27,-15
1532640430370,3,-1,-8,-1,-4,-6,9,-7
1532640430375,-2,-1,-1,-4,-1,7,14,1
1532640430380,12,-15,-4,-2,0,5,21,13
1532640430385,11,8,-1,-1,2,-4,-15,-2
1532640430390,-16,0,-2,-2,-3,-9,-12,-13
1532640430395,5,1,10,4,0,-2,8,-1
1532640430400,8,6,1,-1,-1,4,19,13
1532640430405,31,-8,-6,-4,-2,7,-39,-13
1532640430410,-36,-43,-22,-14,-7,-12,50,5
1532640430415,30,27,8,0,4,1,-23,34
1532640430420,-31,11,-3,-8,-11,-27,-37,-81
1532640430425,17,-46,-17,-9,-2,7,66,39
1532640430430,6,9,12,8,8,13,-48,21
1532640430435,10,9,-14,4,-1,-15,-16,-49
1532640430440,-4,-8,34,7,5,5,20,27
1532640430445,-15,38,12,3,-3,-9,-2,-5
1532640430450,-8,-28,-12,2,0,5,11,1
1532640430455,-1,-24,-32,-18,-4,6,14,14
1532640430460,36,19,14,13,6,5,-23,11
1532640430465,3,1,9,7,2,-3,27,-11
1532640430470,47,60,36,7,10,10,-12,22
1532640430475,-53,-31,-25,-1,-4,-8,-15,-17
1532640430480,-19,-27,-25,-19,-19,-13,-22,-30
1532640430485,-2,-13,-9,-3,-2,4,9,11
1532640430490,25,29,21,1,3,1,15,-1
1532640430495,6,-10,-3,-3,3,-5,-29,-19
1532640430500,12,4,-5,-3,-2,0,37,16
1532640430505,7,0,9,8,7,22,46,41
1532640430510,20,7,-1,0,-1,-14,-61,-16
1532640430515,-67,-30,-14,-14,-14,-18,-6,-56
1532640430520,-14,4,-10,-3,-1,6,-8,7
1532640430525,5,11,8,6,2,4,11,23
1532640430530,3,-23,2,2,4,0,2,4
1532640430535,2,26,9,11,7,-5,-26,-27
1532640430540,-3,-13,2,-3,-4,-4,12,-17
1532640430545,4,7,-2,-3,1,8,8,13
1532640430550,11,1,-4,-3,-2,1,7,10
1532640430555,-3,3,1,-5,-9,5,-6,-2
1532640430560,-19,-15,-14,-2,10,-27,-15,-5
1532640430565,14,7,5,-6,-15,11,-17,4
1532640430570,-4,10,1,1,2,-3,19,-6
1532640430575,0,-1,2,3,8,-8,-39,-4
1532640430580,-13,-7,-7,-6,-14,-1,-5,-11
1532640430585,2,2,4,2,23,12,9,-3
1532640430590,0,9,-6,-5,-4,-6,13,2
1532640430595,-3,-6,-10,-6,7,-3,-41,-2
1532640430600,-4,-4,7,5,-15,-11,1,-2
1532640430605,8,8,10,5,10,-2,3,-5
1532640430610,-2,3,4,5,2,11,-6,9
1532640430615,-4,-4,-5,-8,-3,-8,11,-15
1532640430620,0,-5,-15,-6,-2,12,8,12
1532640430625,15,11,10,9,-3,-2,7,-5
1532640430630,3,4,1,0,6,1,-8,-16
1532640430635,0,-1,1,1,-7,-6,11,11
1532640430640,0,0,4,-4,-21,12,-5,-3
1532640430645,13,-4,-10,-3,6,-21,-3,-10
1532640430650,5,-5,-10,-4,-12,4,-19,8
1532640430655,-2,3,7,1,2,-13,8,0
1532640430660,-11,-1,4,5,25,4,6,-4
1532640430665,-17,-1,1,-2,-20,3,1,6
1532640430670,-10,0,-5,-6,2,-1,-2,-8
1532640430675,-10,-5,-2,-8,-9,-6,-13,-12
1532640430680,-4,-1,5,12,13,0,-2,-9
1532640430685,18,-1,7,3,0,9,30,8
1532640430690,4,5,-1,-1,1,0,-11,7
1532640430695,-3,-12,-10,-6,-3,-8,-4,-15
1532640430700,4,9,-1,-6,-1,2,9,-4
1532640430705,6,-12,2,2,2,3,1,9
1532640430710,12,3,4,6,-3,5,14,17
1532640430715,-17,0,6,6,5,-4,25,9
1532640430720,6,4,-7,-10,-8,1,7,-30
1532640430725,-8,-4,-13,-8,-5,-3,-4,9
1532640430730,-5,-13,-19,-11,2,3,1,-8
1532640430735,6,4,25,13,0,5,8,8
1532640430740,4,-5,-2,5,4,-8,-17,12
1532640430745,-8,3,8,-3,-7,7,-4,-11
1532640430750,0,-2,-3,0,9,-4,11,-6
1532640430755,4,8,-3,-5,-8,-10,-13,0
1532640430760,0,-17,-6,-6,-4,1,25,4
1532640430765,-6,-17,-10,-8,-5,-8,-8,-6
1532640430770,0,20,11,3,5,-2,-8,9
1532640430775,15,-12,7,7,5,10,-12,-11
1532640430780,14,9,11,14,8,-1,12,-3
1532640430785,-1,13,-5,-2,0,-4,1,3
1532640430790,-21,-5,-8,-6,-6,1,-6,-3
1532640430795,-3,5,-5,-3,-4,5,15,9
1532640430800,-17,-5,-6,-7,-4,1,-15,-5
1532640430805,-14,10,-3,-2,-5,-7,-6,-9
1532640430810,6,3,4,5,6,5,-16,5
1532640430815,19,3,1,-5,2,10,48,18
1532640430820,-20,25,-4,-2,-41,-21,5,-4
1532640430825,-54,-65,-22,-11,-4,9,-5,-19
1532640430830,-6,-6,0,-1,-3,-9,-12,-14
1532640430835,-2,-7,-15,-5,-1,2,-5,-5
1532640430840,19,10,11,3,13,5,22,21
1532640430845,15,27,19,7,5,-1,2,13
1532640430850,-13,-24,0,1,-8,-4,-1,-8
1532640430855,-25,12,-4,-7,0,-3,-11,-16
1532640430860,-5,-19,-2,-5,4,2,-5,6
1532640430865,-21,-23,-14,-4,1,-1,-21,-11
1532640430870,12,13,0,1,4,0,7,8
1532640430875,14,30,8,7,1,3,4,12
1532640430880,-3,7,3,-1,0,-10,-15,-14
1532640430885,38,12,3,3,5,4,17,0
1532640430890,-22,9,-4,0,0,5,11,-4
1532640430895,3,-23,-15,-10,-1,-12,-38,-25
1532640430900,9,-6,4,5,-10,4,5,9
1532640430905,29,12,19,8,4,7,28,20
1532640430910,7,-7,-4,1,-5,-17,-18,-9
1532640430915,-6,11,0,-3,2,-2,-11,-7
1532640430920,11,-21,-13,-9,7,2,-8,-10
1532640430925,15,9,14,8,-1,-7,-12,0
1532640430930,20,18,4,3,0,5,3,4
1532640430935,25,3,6,3,0,-2,11,9
1532640430940,-55,-38,-18,-11,-2,-6,-19,-15
1532640430945,-2,-9,-6,-5,-5,-11,-3,4
1532640430950,6,-9,-12,-6,-3,3,15,1
1532640430955,4,-7,0,-3,-1,-2,13,-1
1532640430960,23,1,7,6,4,13,13,12
1532640430965,-1,9,0,5,4,-3,0,9
1532640430970,-2,-6,-5,-8,-5,-19,-35,-36
1532640430975,-8,-4,-8,-2,-6,-49,-30,-33
1532640430980,16,19,7,7,5,-33,-11,3
1532640430985,-41,-30,-3,-4,0,-25,49,15
1532640430990,27,11,2,5,2,5,3,30
1532640430995,9,4,2,7,-4,-5,-4,-16
1532640431000,-27,-25,2,-4,-3,-77,-4,-14
1532640431005,5,59,-4,-4,-6,-117,-44,-17
1532640431010,-6,-31,-16,-13,-11,-127,2,-9
1532640431015,-36,-13,-3,-3,0,-128,33,10
1532640431020,29,-9,-7,2,1,-20,-31,2
1532640431025,7,32,16,3,5,97,11,8
1532640431030,-13,-20,-2,-4,2,116,5,-2
1532640431035,4,8,3,3,5,127,3,20
1532640431040,13,11,1,-4,-3,-23,11,5
1532640431045,-19,-17,-10,-2,-4,-40,-26,-23
1532640431050,-6,5,0,1,0,-32,15,4
1532640431055,3,-5,-15,-6,-2,-35,-6,0
1532640431060,9,16,8,5,3,-22,11,8
1532640431065,-12,-13,4,7,-13,-38,2,-5
1532640431070,-11,7,10,-3,-7,-67,-13,-12
1532640431075,4,1,7,4,-2,-37,-13,-1
1532640431080,11,10,0,-4,4,-37,4,8
1532640431085,-6,-8,-6,0,12,-117,3,2
1532640431090,-28,-2,1,4,0,-35,1,3
1532640431095,-1,-8,-11,-9,-11,59,-15,-7
1532640431100,-6,-1,-4,-4,1,63,21,9
1532640431105,-44,-8,2,0,-1,58,3,-13
1532640431110,64,12,-2,-1,1,16,-5,10
1532640431115,-13,-15,-1,-8,-2,-17,15,1
1532640431120,-2,6,-10,2,-5,-8,-43,-11
1532640431125,15,-4,8,-9,0,-62,-52,4
1532640431130,-1,5,6,6,2,-74,14,5
1532640431135,-3,7,7,6,-1,-10,-27,-4
1532640431140,-10,10,6,3,5,5,50,10
1532640431145,43,6,-11,-5,1,54,8,20
1532640431150,-18,9,-4,-9,-4,31,9,-29
1532640431155,-15,-40,-6,-2,-3,45,-25,-16
1532640431160,-9,-19,8,1,1,21,-14,0
1532640431165,43,4,-13,-4,-4,42,-10,-34
1532640431170,-31,-13,-15,-4,2,31,17,7
1532640431175,9,9,-4,-3,3,6,28,16
1532640431180,-8,21,13,3,-3,16,-3,-7
1532640431185,21,-3,12,13,2,-41,17,13
1532640431190,25,-2,-2,7,-2,-77,32,44
1532640431195,-55,-2,4,0,-2,-40,-8,-61
1532640431200,9,0,-5,-8,-5,-4,-23,-26
1532640431205,30,-2,5,4,-1,-13,3,9
1532640431210,-29,-7,-1,-8,-3,33,-5,-7
1532640431215,-71,-2,-10,-3,-5,16,-34,15
1532640431220,30,-4,-3,-2,-5,-17,5,2
1532640431225,-9,3,-2,-4,-3,-1,42,-13
1532640431230,7,-2,-11,-8,-4,18,-56,-12
1532640431235,3,0,0,2,4,3,37,23
1532640431240,-3,1,12,10,10,11,3,1
1532640431245,-52,-2,7,3,-1,-3,5,-1
1532640431250,5,3,-2,-2,-2,11,1,-14
1532640431255,-4,-15,-13,-14,-8,44,-23,-17
1532640431260,18,2,-1,2,1,4,-2,31
1532640431265,7,3,6,5,-1,-7,-23,-17
1532640431270,40,3,1,-2,5,2,30,-3
1532640431275,44,6,-4,-1,-1,-7,-34,-4
1532640431280,2,-3,-1,-2,-2,23,-51,-27
1532640431285,-64,-6,-5,0,5,17,54,20
1532640431290,-14,1,5,5,2,1,-36,-11
1532640431295,-12,-16,-3,-9,-11,-59,-33,-5
1532640431300,11,0,10,5,12,-5,-23,20
1532640431305,21,-5,-13,-12,-16,-64,32,2
1532640431310,-4,-3,-2,0,-4,-28,-7,-5
1532640431315,31,1,8,9,9,18,23,25
1532640431320,-26,-7,6,3,-1,32,42,-12
1532640431325,28,-3,-2,1,5,21,-80,12
1532640431330,-19,-5,-5,-5,0,-2,95,-46
1532640431335,21,4,-4,-6,-18,-11,-27,13
1532640431340,46,4,-3,0,-3,-44,23,28
1532640431345,16,3,7,6,9,68,9,-16
1532640431350,-25,0,3,-5,-2,43,-4,15
1532640431355,3,-2,-4,-2,6,6,6,-14
1532640431360,-18,-9,0,-1,-2,59,18,22
1532640431365,5,11,-1,-3,-6,-16,-31,-8
1532640431370,-17,-6,-15,-8,-5,-81,-27,-10
1532640431375,-29,6,11,11,9,84,32,-5
1532640431380,-8,-2,-3,-6,-2,64,-12,-5
1532640431385,-39,3,4,2,4,30,4,1
1532640431390,22,-8,-1,-2,2,127,5,26
1532640431395,-2,14,-2,-1,-12,-27,7,4
1532640431400,-18,3,-2,4,28,-54,-4,4
1532640431405,-4,2,-8,-14,-32,-28,-11,-22
1532640431410,13,-11,1,3,-2,-60,-12,17
1532640431415,-15,5,9,9,-3,-48,0,-34
1532640431420,-7,-18,-5,0,2,-38,9,10
1532640431425,27,11,6,7,27,-73,5,2
1532640431430,-6,4,3,7,-1,-92,-6,3
1532640431435,-5,1,-9,-9,-12,-49,30,-1
1532640431440,4,-7,-19,-17,-23,-18,-19,-14
1532640431445,8,17,9,1,-1,10,4,17
1532640431450,-21,-6,4,-2,-2,20,-1,7
1532640431455,46,-21,-6,1,16,36,13,9
1532640431460,-8,-1,-3,-2,0,41,-3,-2
1532640431465,45,31,16,1,-18,47,15,40
1532640431470,7,19,17,14,9,50,-15,-65
1532640431475,-24,-47,-26,-14,-4,42,0,2
1532640431480,-6,-21,-2,-1,-6,20,-4,20
1532640431485,-1,-5,-8,4,8,-8,-6,-46
1532640431490,4,16,9,4,-6,-53,-10,10
1532640431495,-11,20,9,2,2,-95,-3,-27
1532640431500,6,7,0,4,10,-71,12,0
1532640431505,-4,-14,4,5,-17,-29,-12,13
1532640431510,5,-4,-4,-4,15,12,-2,22
1532640431515,-10,5,-3,-1,20,5,-20,-25
1532640431520,-4,9,5,3,-19,25,10,-17
1532640431525,-4,2,-3,0,2,3,-21,0
1532640431530,-5,-9,-15,-12,-8,25,-1,-16
1532640431535,-2,18,-9,-1,6,87,11,41
1532640431540,-22,-16,27,3,1,10,-11,-40
1532640431545,-4,-17,13,18,33,15,-2,8
1532640431550,-1,-7,-2,-6,-19,-7,-3,-7
1532640431555,-25,8,2,-3,15,11,9,-7
1532640431560,-9,5,-13,-11,-33,43,2,-29
1532640431565,25,-12,-15,-6,10,32,21,7
1532640431570,8,2,-3,-2,2,5,11,28
1532640431575,-1,6,10,4,3,-3,-19,-9
1532640431580,-4,3,-1,1,6,-6,9,5
1532640431585,-9,-12,-7,-9,-3,-79,-5,-3
1532640431590,3,13,-5,-1,-6,-33,-16,-4
1532640431595,10,-2,6,1,-7,-69,18,5
1532640431600,11,-4,0,2,0,-61,2,8
1532640431605,-19,12,-11,-7,-7,9,-14,-19
1532640431610,27,1,-7,-2,0,-13,6,24
1532640431615,-10,-2,7,2,-9,47,5,-7
1532640431620,-6,15,-1,2,6,19,-13,-49
1532640431625,-4,-19,-6,-2,-4,26,-3,6
1532640431630,11,4,5,2,1,30,11,17
1532640431635,-9,-20,0,1,-1,-14,-9,-12
1532640431640,7,15,2,4,6,-26,2,21
1532640431645,1,1,-2,-7,-7,-10,-14,-12
1532640431650,-5,-7,-8,-6,-5,29,-4,-48
1532640431655,15,9,11,11,2,56,3,34
1532640431660,14,6,5,1,1,42,8,9
1532640431665,8,-3,-5,-2,-6,-8,4,1
1532640431670,-17,-11,-10,-8,-3,-30,-4,7
1532640431675,-4,2,-1,0,-4,-11,3,3
1532640431680,-3,-9,-4,-1,3,3,10,36
1532640431685,29,14,11,3,6,18,-4,32
1532640431690,-22,4,-1,3,-1,-17,-22,-60
1532640431695,-5,-3,-6,-4,-5,-38,1,9
1532640431700,14,-1,-5,2,-5,-25,-8,-17
1532640431705,2,5,0,0,4,7,34,30
1532640431710,14,-19,-10,-9,-2,-31,-32,17
1532640431715,18,39,6,4,3,7,12,-12
1532640431720,-21,-36,-8,-4,2,14,5,16
1532640431725,-10,-3,-5,-3,-2,52,0,-17
1532640431730,-14,-3,7,0,2,90,0,-2
1532640431735,6,-3,-3,-5,-1,-44,0,1
1532640431740,7,20,1,-6,-18,-61,-25,3
1532640431745,-46,-16,2,10,5,-128,-4,-23
1532640431750,-2,-1,1,0,-3,30,9,-7
1532640431755,5,13,7,2,-4,108,9,21
1532640431760,-19,-6,1,-2,7,127,-3,-8
1532640431765,3,0,-1,-3,-3,127,-26,-13
1532640431770,-7,-1,9,16,-14,47,55,2
1532640431775,-6,-21,-6,-7,-11,-7,-3,0
1532640431780,4,9,2,-1,3,-42,5,-11
1532640431785,8,4,-5,-4,-7,-90,-14,-5
1532640431790,13,5,2,1,9,-102,3,8
1532640431795,-13,-20,-13,-6,22,-62,10,-10
1532640431800,12,0,-2,-4,-55,-77,-14,-5
1532640431805,4,-4,-6,-3,14,-64,-17,0
1532640431810,-8,2,-1,1,21,-60,16,-2
1532640431815,-9,-8,1,3,35,-44,-8,-4
1532640431820,-1,10,2,1,-16,-33,-5,2
1532640431825,-24,-6,1,3,2,-12,9,-17
1532640431830,-1,-12,-9,-11,-19,-37,-25,-4
1532640431835,11,-2,-2,2,7,-28,-17,7
1532640431840,-1,3,6,11,53,-7,52,3
1532640431845,9,0,-6,-12,-35,-16,-40,-5
1532640431850,-11,-1,1,4,14,-10,-24,-6
1532640431855,1,-2,-7,-10,-12,-11,36,6
1532640431860,5,0,-2,0,-8,5,9,1
1532640431865,2,-5,1,0,2,5,12,6
1532640431870,0,4,0,-3,-11,-6,0,-7
1532640431875,0,-4,-3,-1,-31,-5,-19,12
1532640431880,-4,-1,-7,-10,-36,-8,-23,-30
1532640431885,-11,-5,-5,-2,67,-110,-4,0
1532640431890,-15,-2,-6,-1,-11,-125,-10,-11
1532640431895,7,5,1,0,-14,-116,-3,4
1532640431900,-1,-1,-2,-1,16,-128,-3,21
1532640431905,7,1,9,3,-7,6,3,-20
1532640431910,6,2,4,-2,9,48,1,4
1532640431915,-1,-2,2,1,-2,29,-5,-11
1532640431920,6,7,6,0,9,-38,-6,2
1532640431925,-1,-7,-13,-5,-15,25,7,4
1532640431930,4,0,-1,0,2,22,-4,5
1532640431935,-1,-2,-4,-4,-16,122,3,-11
1532640431940,0,-4,-3,-2,10,121,-2,1
1532640431945,10,6,3,1,-8,71,12,7
1532640431950,3,16,15,13,7,75,5,3
1532640431955,-9,-18,-8,-12,-2,13,-10,-7
1532640431960,-3,0,0,-2,6,-23,-10,9
1532640431965,-7,-5,-4,-4,-12,-87,-3,-25
1532640431970,2,2,-5,-8,2,-123,1,13
1532640431975,6,6,6,7,1,-93,-4,0
1532640431980,0,3,1,3,2,-3,-1,-7
1532640431985,14,-10,10,0,-2,127,17,23
1532640431990,-6,-19,-8,-4,1,124,-6,-22
1532640431995,4,3,3,1,3,119,2,8
1532640432000,-4,-4,-7,-1,3,125,2,1
1532640432005,2,6,-2,4,-2,45,-10,-16
1532640432010,-9,1,0,-6,-4,-16,-2,-1
1532640432015,-2,-3,-2,-1,-2,-51,-4,-5
1532640432020,5,-7,-1,2,5,-56,-6,-6
1532640432025,0,1,0,-2,-7,-79,2,6
1532640432030,2,4,0,-1,3,-66,1,3
1532640432035,-13,-5,-5,-3,-5,-60,-5,-11
1532640432040,-9,2,0,-1,3,-53,-3,-1
1532640432045,5,-3,-1,2,-2,-41,3,2
1532640432050,2,-4,-2,1,-4,-42,-3,-3
1532640432055,5,4,-5,-10,-3,-25,2,1
1532640432060,1,-1,2,1,0,-21,-1,-3
1532640432065,-6,-2,1,-2,0,-12,1,-2
1532640432070,0,4,2,6,-2,-32,-4,-3
1532640432075,0,3,3,6,2,-17,-3,-3
1532640432080,-5,-3,-3,-3,-1,-16,-2,-2
1532640432085,-1,0,0,-1,-5,-18,1,-2
1532640432090,-2,-4,-7,-7,-2,-4,2,5
1532640432095,-6,6,5,2,-2,-17,-4,-2
1532640432100,-5,-17,-11,-10,-4,-10,-2,-6
1532640432105,2,2,2,1,2,-9,4,3
1532640432110,5,2,-1,0,0,1,5,3
1532640432115,6,2,-2,2,1,-5,0,6
1532640432120,1,5,1,-2,4,4,-2,-8
1532640432125,-1,-2,-1,0,-2,-9,-2,-2
1532640432130,-4,-5,-2,0,-1,-1,-2,1
1532640432135,-4,-2,-1,-1,0,-4,-1,-3
1532640432140,-1,3,4,1,2,-3,0,2
1532640432145,-3,-3,-4,-4,-3,-2,-1,4
1532640432150,-2,-1,-3,-3,-1,2,-1,-3
1532640432155,1,0,1,-2,3,2,1,4
1532640432160,1,4,6,4,1,4,-1,-1
1532640432165,-1,0,1,-1,-4,-1,0,-2
1532640432170,-2,-1,-4,-4,1,5,0,0
1532640432175,0,-1,2,3,-2,1,-1,-3
1532640432180,2,-3,-3,0,0,2,-1,-2
1532640432185,-3,-1,-4,-1,-3,1,-2,-3
1532640432190,3,0,4,1,1,-2,1,3
1532640432195,-1,-4,-5,-4,-1,8,-2,-3
1532640432200,-2,2,-5,-4,-1,3,-3,-6
1532640432205,2,-3,2,2,1,4,-1,3
1532640432210,0,-2,-3,-5,-2,3,-1,-2
1532640432215,1,0,0,2,1,0,-1,-2
1532640432220,2,-1,2,2,1,1,1,0
1532640432225,-1,-1,-3,-1,-3,0,-1,-4
1532640432230,-2,0,3,1,0,2,-2,-4
1532640432235,-1,-1,0,-5,-1,-1,-2,-2
1532640432240,-2,-1,-4,-1,-4,-1,0,-3
1532640432245,-2,-3,-6,-5,-4,-4,2,2
1532640432250,-1,-1,0,-4,0,5,1,-2
1532640432255,3,5,12,14,13,5,1,1
1532640432260,-2,-1,-3,-4,0,-1,-3,-3
1532640432265,-3,-1,-4,-2,-11,-3,-2,-2
1532640432270,0,-1,-5,-1,0,2,1,-3
1532640432275,-2,-2,-4,-2,-3,-2,1,1
1532640432280,-2,0,1,1,1,0,-3,-1
1532640432285,0,-3,-5,-3,-2,1,0,-1
1532640432290,-2,-3,-7,-8,-5,-2,0,-2
1532640432295,1,0,0,1,1,-3,1,-1
1532640432300,0,-1,2,5,0,-4,-2,-3
1532640432305,1,-2,1,-1,-1,0,2,1
1532640432310,-2,-1,0,1,0,1,-1,0
1532640432315,-1,-1,-5,-5,0,2,0,-1
1532640432320,-1,1,3,2,-1,0,-1,-1
1532640432325,-3,-2,1,1,0,0,-2,-4
1532640432330,-1,0,1,1,-2,2,-1,-5
1532640432335,1,-1,-5,-7,-1,3,1,-1
1532640432340,-1,-2,-3,4,-3,0,-1,1
1532640432345,-1,2,5,3,1,1,-1,-1
1532640432350,0,1,7,3,2,-1,-2,1
1532640432355,-2,0,-1,3,1,1,-2,3
1532640432360,-2,0,-6,-4,-3,-1,0,-5
1532640432365,0,-2,-8,-5,-4,1,0,-4
1532640432370,1,-1,0,1,-1,0,-2,-1
1532640432375,0,0,-2,-2,-3,0,0,0
1532640432380,-1,0,2,1,-2,-9,-3,2
1532640432385,-2,0,1,5,0,-2,0,-1
1532640432390,-1,-1,-1,-4,0,3,3,-3
1532640432395,-1,1,1,2,0,-6,0,-2
1532640432400,1,1,0,0,-1,3,-3,-3
1532640432405,-1,-2,-4,-8,-3,-1,-3,-2
1532640432410,-1,-3,-4,-1,-2,-1,-1,-2
1532640432415,-2,-2,0,0,1,2,-1,-1
1532640432420,-1,-1,1,2,2,5,0,-3
1532640432425,-1,0,2,-1,-1,0,-8,-2
1532640432430,2,0,-2,0,1,-5,5,-3
1532640432435,-1,-2,1,1,2,-2,2,-4
1532640432440,-1,-3,-2,-3,-1,0,-2,0
1532640432445,-1,-2,-5,-4,-1,-2,0,0
1532640432450,-1,0,2,-1,1,0,-3,2
1532640432455,-2,0,3,1,-2,-1,-2,0
1532640432460,0,-2,1,1,-3,0,1,-2
1532640432465,-1,-2,1,-2,1,3,1,-3
1532640432470,-2,-3,-4,-4,-2,2,0,-2
1532640432475,0,0,-4,-5,0,5,-1,-1
1532640432480,0,0,1,1,-1,3,-3,-3
1532640432485,0,1,2,1,-1,-2,-1,-1
1532640432490,1,1,5,3,2,-2,-1,-2
1532640432495,-2,0,0,-1,0,-4,-2,-4
1532640432500,-2,-1,-4,-4,0,0,0,-1
1532640432505,-1,-2,-4,-3,-2,-2,1,-2
1532640432510,-1,0,-3,0,0,-1,0,-1
1532640432515,-1,-1,-1,0,0,-1,-4,-1
1532640432520,0,0,2,-2,0,0,4,0
1532640432525,-1,0,1,-3,0,-4,-2,-2
1532640432530,-2,-1,1,0,-2,-2,-5,-2
1532640432535,0,1,0,2,0,-1,0,-2
1532640432540,-1,-1,-1,-3,-1,2,-1,-1
1532640432545,0,-1,-2,2,-1,6,1,5
1532640432550,-3,-1,-2,-2,-3,-1,-3,0
1532640432555,-2,0,2,1,-2,-2,-4,-4
1532640432560,-1,-1,1,-1,-2,-1,3,-2
1532640432565,-1,-1,1,-1,0,-2,-4,-1
1532640432570,-1,-1,-3,-2,-2,-1,-1,-4
1532640432575,0,3,3,0,1,-1,2,1
1532640432580,0,0,-2,-3,-1,0,-1,0
1532640432585,-1,-1,-3,0,-3,-1,2,-3
1532640432590,-5,3,6,7,3,0,2,-2
1532640432595,17,0,5,3,-1,-2,-1,0
1532640432600,2,1,0,-2,-3,-1,-3,-3
1532640432605,-17,-1,-3,-3,-1,1,1,-6
1532640432610,5,-3,-7,-5,-3,-3,0,3
1532640432615,-3,-1,-3,-1,-1,-2,0,-2
1532640432620,2,0,-2,2,0,-4,6,3
1532640432625,1,-2,-3,0,-1,3,0,0
1532640432630,-13,2,6,6,2,-3,-4,-6
1532640432635,6,-3,-5,-5,-5,-3,-6,-3
1532640432640,-2,0,-1,-3,-5,-5,-4,0
1532640432645,2,0,0,0,-1,-4,0,1
1532640432650,4,-1,-2,-2,0,3,4,-3
1532640432655,-6,-2,-2,-2,-2,-1,-1,-4
1532640432660,-4,-3,-2,-1,1,1,0,-2
1532640432665,6,-1,1,1,-1,-1,0,1
1532640432670,12,0,1,-3,1,1,-1,1
1532640432675,-27,-1,2,2,1,1,0,1
1532640432680,-4,-2,-1,2,0,4,5,-6
1532640432685,-3,-1,0,-2,-1,-2,-6,0
1532640432690,4,1,-2,-2,-3,-2,-5,3
1532640432695,-1,-1,-2,-1,-1,0,2,-6
1532640432700,6,0,1,2,3,3,-4,2
1532640432705,-1,0,-3,-3,2,6,3,-4
1532640432710,0,-3,-3,-6,-4,3,-2,-1
1532640432715,-7,-1,2,1,-2,-3,-4,0
1532640432720,-9,-1,0,0,-2,-3,-11,-3
1532640432725,4,1,1,1,1,-4,0,2
1532640432730,-2,-3,-5,-4,1,1,-2,2
1532640432735,-8,-5,-6,-4,-2,10,7,-2
1532640432740,11,2,6,5,1,-8,-2,-1
1532640432745,-5,-1,2,1,-5,-16,-11,-3
1532640432750,1,-1,0,3,1,-1,2,-2
1532640432755,5,0,-2,-3,-2,-3,-3,-3
1532640432760,-5,1,-2,-3,5,16,1,-5
1532640432765,5,-1,0,1,-2,-6,2,-2
1532640432770,-7,-1,-1,0,-2,-9,2,0
1532640432775,-3,0,-1,2,0,-4,4,5
1532640432780,2,-2,-4,-3,0,33,2,-2
1532640432785,2,0,-3,0,-1,-12,1,-1
1532640432790,-6,-1,2,0,-2,1,-2,-2
1532640432795,2,-1,-2,-3,-2,-7,-5,-8
1532640432800,1,-1,3,1,-2,11,3,3
1532640432805,-6,-2,-2,1,1,5,0,-2
1532640432810,4,-1,-2,-1,1,-5,-3,1
1532640432815,4,-1,-2,-1,4,15,1,1
1532640432820,-3,0,-6,-7,-5,-21,-3,-3
1532640432825,-5,-1,0,-1,2,3,-3,-2
1532640432830,2,-1,2,0,-2,-1,-2,-3
1532640432835,5,-2,2,1,2,5,1,4
1532640432840,-6,-3,-5,-5,-2,-13,-5,-4
1532640432845,-8,0,-4,-2,-1,5,-1,-3
1532640432850,5,1,1,0,2,-3,5,0
1532640432855,-2,1,4,3,2,9,-1,0
1532640432860,0,-1,1,3,-2,-7,-3,2
1532640432865,6,-1,3,-1,1,-2,4,1
1532640432870,-2,-3,-5,-3,-2,-3,-1,-4
1532640432875,17,-2,0,-1,-2,7,2,3
1532640432880,-16,-3,-2,-2,-1,-7,-1,-2
1532640432885,1,0,1,-2,-3,3,-1,2
1532640432890,-8,0,0,1,-3,7,0,-13
1532640432895,1,0,-3,0,3,24,-1,-4
1532640432900,-1,2,1,3,-3,-6,-3,0
1532640432905,3,-1,-1,-4,0,13,1,0
1532640432910,0,-1,-4,-2,-5,-24,-4,1
1532640432915,-5,0,-3,0,-3,-16,-3,-3
1532640432920,1,1,-3,-4,-2,-14,0,-4
1532640432925,0,0,0,-3,0,13,0,-2
1532640432930,-1,0,3,7,0,11,1,3
1532640432935,-4,-2,-3,-3,-8,-20,-4,5
1532640432940,-4,-1,0,-1,0,11,-2,-8
1532640432945,8,-1,-3,-4,-3,-4,2,2
1532640432950,-2,-1,0,1,2,3,-2,0
1532640432955,-4,-1,6,5,-1,-14,-6,-11
1532640432960,1,-3,-1,-3,-3,-15,-1,7
1532640432965,1,0,-1,-1,-2,-1,-3,-12
1532640432970,-3,-2,-3,-4,0,5,4,4
1532640432975,2,-2,-3,-1,3,3,3,9
1532640432980,-7,-3,-2,0,2,21,5,6
1532640432985,-3,0,1,0,-3,-12,-6,-15
1532640432990,-7,0,-3,-4,-3,0,-4,-3
1532640432995,12,2,-2,-4,-4,-6,0,0
1532640433000,-3,0,-1,2,0,5,-1,0
1532640433005,2,0,3,5,1,2,4,8
1532640433010,-6,-2,-2,-2,-1,8,2,0
1532640433015,-7,-3,0,-3,-2,-8,-2,-11
1532640433020,5,-1,-1,2,2,7,-1,-2
1532640433025,-5,-3,-3,0,-4,-31,-4,-3
1532640433030,6,0,-2,0,-1,11,-1,9
1532640433035,-6,1,0,-2,1,-7,-3,-2
1532640433040,4,0,-3,-1,-1,-3,0,-14
1532640433045,-1,-1,0,0,-2,-33,-4,2
1532640433050,6,-1,0,-2,-5,-15,-3,-3
1532640433055,-6,-3,-2,-1,-2,-3,1,10
1532640433060,0,1,2,-1,2,6,-2,0
1532640433065,0,-1,-2,-1,2,37,4,-6
1532640433070,-2,-1,0,-1,-1,-5,0,4
1532640433075,-3,-1,-2,0,1,18,-1,-3
1532640433080,-1,-3,-1,-3,-4,-5,-4,-2
1532640433085,0,-1,0,3,0,5,-1,0
1532640433090,-1,0,3,0,1,4,-1,-2
1532640433095,2,-1,-3,-1,-1,4,1,-3
1532640433100,2,-1,1,0,2,11,7,-2
1532640433105,-2,0,-4,-7,-4,9,-2,11
1532640433110,0,0,2,2,1,-9,-4,-5
1532640433115,-4,-2,-2,-3,-3,-10,-11,-1
1532640433120,-2,-2,-6,-1,-3,-11,-4,-14
1532640433125,-4,-2,-2,-3,-7,-9,-4,2
1532640433130,1,-1,-2,0,1,-12,3,-4
1532640433135,1,0,2,4,2,2,5,13
1532640433140,-1,-2,-2,-1,-1,-22,-2,-3
1532640433145,-2,-2,0,-7,-3,18,2,-5
1532640433150,0,0,-2,-3,-3,0,-1,0
1532640433155,4,1,2,3,1,-6,7,11
1532640433160,0,0,-2,-2,-6,-18,-9,-16
1532640433165,-2,-1,1,2,5,4,2,-3
1532640433170,1,-2,-2,-3,-1,2,-2,-1
1532640433175,0,1,-2,-2,-1,-1,0,2
1532640433180,1,0,-4,-1,-1,10,0,2
1532640433185,0,-1,-1,4,3,2,2,11
1532640433190,-1,-1,1,-1,-1,17,-3,-16
1532640433195,-4,0,-1,-1,-4,-1,-2,-13
1532640433200,-4,-2,2,2,3,17,-3,13
1532640433205,10,-1,0,-1,-2,4,-1,-13
1532640433210,4,-2,-2,-1,5,13,1,7
1532640433215,-5,-2,-3,-6,-9,-15,-2,-4
1532640433220,2,0,6,3,-1,-7,1,10
1532640433225,-9,1,1,2,-1,-1,-2,-5
1532640433230,-3,-3,-3,0,2,13,1,-5
1532640433235,0,-1,-4,-4,-2,1,0,-8
1532640433240,-1,1,2,0,-2,-8,1,2
1532640433245,3,0,2,-3,-1,-12,1,4
1532640433250,-1,-1,2,-1,0,-7,-2,7
1532640433255,-3,0,0,3,0,-8,-4,-12
1532640433260,-2,1,-1,-1,-2,-6,-2,1
1532640433265,7,0,1,-3,0,-3,-2,3
1532640433270,-2,1,-2,-2,-1,-8,-2,-6
1532640433275,3,-2,-2,0,1,6,1,-2
1532640433280,0,1,-1,2,2,8,3,-3
1532640433285,-3,-2,-1,1,1,32,5,1
1532640433290,1,1,-1,-1,-5,1,1,0
1532640433295,-1,0,1,1,1,5,2,1
1532640433300,-1,-1,-2,-3,-4,-4,-5,-8
1532640433305,-3,0,0,3,0,-10,-2,2
1532640433310,-2,-2,0,1,0,-1,1,-2
1532640433315,1,1,-2,-3,1,1,-5,-2
1532640433320,1,-1,0,0,0,17,2,-1
1532640433325,-7,-3,-1,-1,-5,-17,-7,-3
1532640433330,1,0,-3,0,-1,-4,-1,-7
1532640433335,2,-1,2,0,0,-11,-2,-2
1532640433340,4,-1,-2,-4,-1,-8,2,9
1532640433345,-1,0,0,1,-1,-6,-3,-5
1532640433350,-3,1,0,0,-1,-6,0,0
1532640433355,-1,-3,-1,0,-3,13,4,-4
1532640433360,3,1,-1,3,0,-7,3,10
1532640433365,-6,-1,-3,-4,-3,-2,-5,-17
1532640433370,-1,-1,0,0,-2,-7,-1,4
1532640433375,-2,-1,0,-2,0,-7,-1,-4
1532640433380,-3,-3,0,-1,3,17,-1,0
1532640433385,2,0,-3,0,-2,-22,-3,3
1532640433390,0,0,-1,-4,-3,-6,-1,-4
1532640433395,0,2,3,2,3,-1,0,4
1532640433400,0,-1,0,-1,1,4,-2,-2
1532640433405,1,-2,-2,-2,-4,-8,0,11
1532640433410,-5,-2,0,-3,-1,-5,-3,-16
1532640433415,-1,-3,0,-1,1,7,1,-5
1532640433420,-1,-2,-1,-3,-3,1,-4,-4
1532640433425,-1,-2,2,1,3,20,2,6
1532640433430,2,-1,-4,-4,-4,-7,-4,8
1532640433435,-5,-3,-4,-3,-4,2,-3,-14
1532640433440,2,0,1,3,2,-21,3,6
1532640433445,2,-1,-1,-2,-2,0,0,-4
1532640433450,-2,0,0,0,0,-3,0,6
1532640433455,-1,0,-1,0,1,-1,-1,-12
1532640433460,1,-1,-1,1,0,3,-1,-5
1532640433465,-2,-1,-3,-2,-3,-4,-3,-5
1532640433470,3,1,2,0,2,-2,3,1
1532640433475,1,0,1,-2,-2,-4,2,12
1532640433480,0,-1,2,1,0,5,-3,3
1532640433485,-4,-1,-2,0,0,1,-3,-18
1532640433490,1,0,1,3,-4,-27,-6,-6
1532640433495,-1,-2,-2,-1,0,8,-2,7
1532640433500,0,-1,-4,-5,-2,0,1,-1
1532640433505,-2,1,4,2,2,-4,-3,5
1532640433510,-1,-2,3,2,2,10,2,-2
1532640433515,-1,0,-3,-1,-1,-11,-1,4
1532640433520,3,-1,0,2,1,17,-2,-13
1532640433525,-2,0,-4,-3,-7,-37,-2,2
1532640433530,-4,0,-1,-2,-1,2,-1,-7
1532640433535,2,0,-1,0,0,-7,-1,-2
1532640433540,-4,-2,-3,-1,-3,3,-5,1
1532640433545,0,-2,-2,-2,3,7,1,1
1532640433550,0,-1,-2,-2,-4,-8,0,-3
1532640433555,1,0,-1,0,-3,-19,-4,1
1532640433560,1,0,-3,-4,-5,-13,0,18
1532640433565,-7,-1,2,2,-1,5,-6,-31
1532640433570,0,1,-1,0,-1,-22,-5,-5
1532640433575,-1,-2,-2,-2,2,-47,3,-2
1532640433580,2,-1,0,0,-1,-26,3,1
1532640433585,-1,-1,-1,-3,-1,-7,0,8
1532640433590,0,-1,-1,0,2,-15,1,3
1532640433595,-4,-2,-1,1,-4,-46,-3,-5
1532640433600,-1,-1,0,-1,0,62,0,2
1532640433605,1,-2,-1,-1,-2,59,1,10
1532640433610,0,-1,3,-2,-1,59,-3,-4
1532640433615,-1,-1,-2,-1,-2,-4,-3,-10
1532640433620,-5,-1,-4,0,0,-75,-2,-8
1532640433625,3,-1,1,-2,-1,-3,3,3
1532640433630,-4,-3,-4,1,0,23,-3,1
1532640433635,2,-1,2,-1,1,42,5,2
1532640433640,-4,-1,2,-3,-1,45,-4,-3
1532640433645,-1,2,0,1,3,42,3,-3
1532640433650,-2,0,-1,-1,-3,-36,1,-1
1532640433655,1,1,2,3,0,11,4,3
1532640433660,-2,-3,-5,-2,-2,-77,-2,-2
1532640433665,4,0,2,-2,1,-5,0,11
1532640433670,2,-1,0,-3,-4,49,4,-1
1532640433675,0,-1,1,0,0,74,-3,-4
1532640433680,-1,-1,0,1,-2,42,0,-7
1532640433685,-2,-1,-2,-2,0,3,-2,-2
1532640433690,1,-1,-1,-1,2,7,2,-2
1532640433695,-1,0,-1,-1,0,31,1,2
1532640433700,-2,-2,-1,2,-3,-68,-2,0
1532640433705,-4,-2,-4,0,-2,-43,-2,-9
1532640433710,-3,-2,-4,0,-2,-96,-3,-6
1532640433715,-1,0,-5,0,-1,-123,-4,-11
1532640433720,-1,1,0,-3,1,-84,2,0
1532640433725,0,-1,1,1,-2,-36,-3,-6
1532640433730,2,-1,-1,-1,-1,15,-5,9
1532640433735,-4,-2,0,-2,-2,33,-2,-6
1532640433740,-3,-3,-1,-2,-3,37,-1,-16
1532640433745,0,-1,0,0,1,-1,1,4
1532640433750,0,0,1,0,0,33,1,7
1532640433755,-3,-1,2,-2,0,23,-1,-13
1532640433760,2,-2,-4,-1,2,127,1,3
1532640433765,-1,-1,2,-1,1,82,-1,-3
1532640433770,0,-2,-7,-5,-2,86,2,-2
1532640433775,1,0,9,8,1,43,2,6
1532640433780,0,2,-2,6,2,9,-2,-1
1532640433785,-3,-4,4,1,-3,-60,-2,0
1532640433790,-3,-4,-7,-5,2,-18,-3,-11
1532640433795,0,-4,-4,-6,-4,9,0,0
1532640433800,-1,0,2,-4,-4,-10,-2,-1
1532640433805,1,0,-6,-3,0,1,-1,-3
1532640433810,1,2,10,6,2,-34,0,1
1532640433815,-1,-1,-4,-4,-1,-3,-4,1
1532640433820,2,-2,0,0,3,25,4,9
1532640433825,-3,-4,-8,-7,-6,35,-4,-18
1532640433830,-1,1,-3,-3,-3,16,2,1
1532640433835,0,2,6,4,0,-5,-2,7
1532640433840,1,2,7,7,1,-32,-1,1
1532640433845,0,-2,-1,-6,-1,17,-1,3
1532640433850,1,-3,-10,-7,-3,1,1,-7
1532640433855,-3,1,-10,1,1,-45,-1,2
1532640433860,-2,1,13,0,-1,-7,-1,-3
1532640433865,0,-1,1,3,0,-31,0,-3
1532640433870,-4,-4,0,-4,-4,-35,-5,-3
1532640433875,1,0,-9,-9,-1,30,3,-2
1532640433880,0,3,5,4,-2,-36,0,-2
1532640433885,-4,-9,-6,6,2,-19,-2,7
1532640433890,-2,-2,-3,-5,-1,-25,-1,-2
1532640433895,3,2,-4,1,-1,7,0,0
1532640433900,1,-4,7,-3,-2,80,3,-3
1532640433905,4,6,16,10,1,15,-2,7
1532640433910,-2,-4,-5,-3,-2,40,1,0
1532640433915,-1,16,5,4,1,-20,-2,-1
1532640433920,-9,-15,-18,-18,-5,-51,-7,-18
1532640433925,0,4,-9,-2,-1,-24,3,12
1532640433930,0,10,25,1,0,-1,-7,-20
1532640433935,0,-2,-11,-2,-4,17,0,2
1532640433940,2,2,4,2,0,-46,2,4
1532640433945,-3,11,26,0,-3,-94,1,-4
1532640433950,-4,4,-45,-3,-1,-20,0,2
1532640433955,7,5,41,13,5,-2,2,7
1532640433960,-6,-15,-13,5,1,-41,-7,-6
1532640433965,-2,-14,-11,-9,-4,8,0,-3
1532640433970,-4,-15,-5,-3,-5,-7,3,1
1532640433975,0,2,1,-12,-4,20,0,0
1532640433980,3,-4,-2,1,4,80,3,17
1532640433985,4,36,24,7,1,67,-1,-8
1532640433990,-6,-12,-7,1,1,47,-4,-2
1532640433995,-9,-21,-32,-8,-7,-5,-3,-11
1532640434000,2,9,0,-3,0,-50,-1,1
1532640434005,5,-8,-5,-4,-1,23,-2,0
1532640434010,4,4,17,12,4,2,5,-1
1532640434015,-2,-10,0,2,4,29,-2,-1
1532640434020,-2,12,-1,-4,-4,-51,-4,-4
1532640434025,3,16,2,-7,-3,96,7,2
1532640434030,-6,-69,-29,-6,0,109,1,1
1532640434035,3,18,12,9,2,121,1,-2
1532640434040,1,-1,-10,2,-1,63,0,-1
1532640434045,-9,-14,-7,1,-2,-34,-10,-24
1532640434050,4,24,14,-3,-3,-74,-1,3
1532640434055,-2,-4,-11,-8,-2,-103,-3,-4
1532640434060,-2,-9,0,0,-3,-42,-5,-3
1532640434065,3,11,-4,1,0,-75,0,7
1532640434070,1,2,5,3,0,-69,0,-3
1532640434075,-2,-9,-4,-9,-4,-72,-2,0
1532640434080,-5,17,0,-2,0,-21,0,-1
1532640434085,-1,-9,-3,4,0,-32,0,0
1532640434090,6,14,8,5,-2,-51,-2,-4
1532640434095,-4,-2,1,-2,-1,-29,0,1
1532640434100,2,-8,3,-1,-1,4,-2,-4
1532640434105,-1,-6,-15,-5,-2,-27,-3,0
1532640434110,0,-3,1,-5,0,-26,-2,0
1532640434115,1,10,5,-5,-3,-20,-2,-4
1532640434120,2,-8,-5,3,0,5,0,-2
1532640434125,1,-5,3,-4,-1,-20,-1,-3
1532640434130,-5,12,-7,7,2,-15,-3,1
1532640434135,-3,-7,1,2,1,-7,-2,-4
1532640434140,0,6,-4,-2,-2,-13,1,-3
1532640434145,-4,-12,-4,-2,1,-84,1,1
1532640434150,-7,8,5,2,-1,-120,0,3
1532640434155,-4,-9,-6,5,2,-128,-8,-3
1532640434160,5,4,2,-2,-1,-17,3,2
1532640434165,0,-2,-1,-5,-1,107,3,-7
1532640434170,9,2,8,-2,0,127,-4,-10
1532640434175,5,-2,-3,-3,-1,127,2,-1
1532640434180,-9,-17,-10,-2,1,71,-2,-3
1532640434185,4,-10,-6,1,1,25,2,-1
1532640434190,4,16,0,-3,-4,-27,0,0
1532640434195,-5,-16,4,5,-1,-13,1,-2
1532640434200,-6,0,-1,-1,-1,-46,-1,2
1532640434205,1,-9,-10,-5,-4,-128,-6,-3
1532640434210,-5,11,-11,5,2,-115,-3,-2
1532640434215,5,4,4,0,-1,-128,-4,0
1532640434220,-24,2,2,-5,-4,-99,2,-3
1532640434225,-6,-7,-5,-1,-2,109,-2,-1
1532640434230,7,-3,6,-4,-3,118,4,3
1532640434235,3,23,5,0,2,8,-2,-1
1532640434240,11,4,2,-5,-3,127,4,1
1532640434245,1,2,17,10,7,85,-3,-1
1532640434250,-5,-7,-9,1,-2,-86,-2,-2
1532640434255,0,1,-4,4,2,72,0,0
1532640434260,0,-7,11,1,-2,-44,-3,-5
1532640434265,-1,17,-12,-4,-1,34,2,4
1532640434270,-4,-17,0,-8,-3,39,1,-1
1532640434275,-7,-10,-5,-8,-5,-48,-1,-1
1532640434280,-4,-11,-9,-5,-2,94,0,-10
1532640434285,3,23,5,7,0,-1,-1,2
1532640434290,-3,-10,11,6,3,-26,1,1
1532640434295,1,5,-4,-5,-6,-43,-1,-5
1532640434300,13,-3,4,-2,0,93,0,3
1532640434305,-5,-3,-7,-15,-7,67,-3,-6
1532640434310,0,8,-5,7,4,75,-4,-1
1532640434315,-13,5,15,9,0,-85,0,2
1532640434320,-21,6,4,6,2,-69,-2,-3
1532640434325,16,-6,-2,0,-2,-128,-5,-3
1532640434330,11,1,2,-13,-4,82,2,-1
1532640434335,9,-7,-7,-4,0,127,3,2
1532640434340,3,3,1,3,1,44,-2,-3
1532640434345,-13,-11,-6,-19,-5,-107,-1,-4
1532640434350,-5,4,-6,2,1,-72,-3,-1
1532640434355,14,3,12,14,2,120,7,4
1532640434360,13,-1,11,1,0,107,1,2
1532640434365,-9,-5,4,3,2,125,2,4
1532640434370,13,-1,-10,-10,-6,34,-3,-2
1532640434375,-2,3,-23,-11,-5,10,-1,-7
1532640434380,3,10,12,6,14,-92,-9,-2
1532640434385,-6,-12,-10,4,-5,-72,-2,-4
1532640434390,-11,18,10,-2,4,-79,0,-3
1532640434395,-15,-8,-13,-2,-7,-121,-9,-5
1532640434400,5,-4,-14,-8,-6,-71,-1,0
1532640434405,10,1,8,4,2,86,4,3
1532640434410,-11,4,7,3,0,127,7,3
1532640434415,21,-2,0,-11,0,97,-2,-1
1532640434420,-2,-28,-16,-8,-5,-25,-5,-5
1532640434425,1,-3,-9,11,9,-55,0,2
1532640434430,-1,14,6,11,0,-53,2,-3
1532640434435,-1,-8,0,-2,1,59,0,-3
1532640434440,-9,4,-9,-6,-5,1,-1,-2
1532640434445,6,-2,3,-6,-1,1,1,-1
1532640434450,-2,-10,1,-3,-3,-128,-5,-7
1532640434455,-24,-2,1,2,2,-128,-8,-5
1532640434460,17,8,6,6,-1,112,3,-2
1532640434465,-5,-3,-1,-1,-5,101,2,1
1532640434470,3,-8,1,-2,2,80,0,6
1532640434475,-4,3,-3,-7,6,44,1,-7
1532640434480,-15,0,-5,-1,-8,-128,-5,-6
1532640434485,-12,4,1,8,3,-128,-6,-3
1532640434490,-2,-10,-6,-6,-6,-111,-5,-4
1532640434495,10,-5,2,0,1,83,6,8
1532640434500,-3,9,1,4,1,-97,-1,-1
1532640434505,6,-12,-2,0,-1,-15,-2,-3
1532640434510,8,-8,5,-4,-3,119,1,-2
1532640434515,-6,-5,8,0,0,10,1,3
1532640434520,-7,5,-7,-3,0,-25,3,-1
1532640434525,8,-16,-14,-7,-6,50,-5,-8
1532640434530,-2,1,-1,2,1,78,1,-1
1532640434535,12,7,12,7,1,116,1,0
1532640434540,-9,-8,3,-6,-2,108,3,1
1532640434545,-21,12,-15,-2,1,-117,-4,-2
1532640434550,5,4,-3,-6,-2,116,0,-1
1532640434555,8,-6,-3,-1,-1,98,2,1
1532640434560,1,12,12,2,0,101,1,5
1532640434565,-3,8,-2,0,1,51,1,2
1532640434570,-5,-2,5,2,2,-57,0,-3
1532640434575,-2,5,-1,-7,-6,-99,-1,-2
1532640434580,-4,-6,-7,2,0,-68,-4,0
1532640434585,-12,-1,8,0,-1,-21,1,0
1532640434590,-18,-8,-3,-2,-1,-58,-1,-2
1532640434595,-30,-9,-2,3,4,-85,2,1
1532640434600,38,-2,-14,-9,2,-23,-8,-12
1532640434605,-3,2,1,2,-5,-68,-5,2
1532640434610,22,12,2,-1,24,57,-6,-1
1532640434615,0,-22,-5,-2,-27,-29,-3,0
1532640434620,-20,-3,-7,1,1,-19,1,-2
1532640434625,11,3,5,1,0,-20,1,-1
1532640434630,1,7,6,-1,-1,17,3,2
1532640434635,7,5,1,-3,11,65,0,-1
1532640434640,-14,6,-6,-2,-1,8,1,3
1532640434645,3,-3,0,-2,-7,-42,-1,-4
1532640434650,-14,-3,-4,-2,-7,-118,-2,-1
1532640434655,4,5,-4,3,2,-128,-4,-6
1532640434660,15,-4,3,0,-6,-60,0,1
1532640434665,17,7,6,-1,9,118,5,1
1532640434670,18,0,-1,-3,-9,105,-1,-4
1532640434675,6,15,4,0,-2,127,3,1
1532640434680,3,1,-4,-2,-5,-89,-5,-3
1532640434685,-22,-10,-6,-4,3,-38,-3,-6
1532640434690,0,-13,0,6,5,37,0,1
1532640434695,17,11,2,-5,-16,39,-2,1
1532640434700,-10,-7,8,4,2,127,1,-1
1532640434705,5,6,11,0,1,127,4,2
1532640434710,-13,1,-8,1,-11,27,1,1
1532640434715,6,-14,-12,1,19,-50,-4,-6
1532640434720,-3,0,-3,-4,-1,-42,-5,-3
1532640434725,1,-4,-4,-3,-3,-104,-3,0
1532640434730,-1,4,-2,3,-6,-128,-4,-3
1532640434735,9,0,-8,-3,5,-59,2,0
1532640434740,-5,-1,8,1,7,83,4,2
1532640434745,-22,-14,1,-1,5,127,3,-5
1532640434750,3,5,5,-2,1,74,3,1
1532640434755,-18,-4,-6,-3,-5,-34,-3,-3
1532640434760,18,7,5,3,7,13,-2,4
1532640434765,-5,-4,-5,-2,-16,-128,-2,-2
1532640434770,2,-4,-4,-3,6,-112,-6,-3
1532640434775,-19,-11,0,2,-5,-31,0,-3
1532640434780,-11,20,-6,-7,-6,-82,-9,-9
1532640434785,16,2,-3,1,5,-38,0,2
1532640434790,2,14,1,8,-2,65,5,-1
1532640434795,5,-24,8,4,-4,-34,-4,-2
1532640434800,-27,-17,2,-3,1,65,5,0
1532640434805,14,11,3,-5,-5,46,-5,-1
1532640434810,0,-10,-8,-9,-6,-5,-1,-6
1532640434815,-1,12,-1,-2,2,17,0,-1
1532640434820,11,-6,4,2,-2,118,6,4
1532640434825,-6,-3,3,-1,2,120,0,-1
1532640434830,-14,-10,-5,-2,-5,56,0,1
1532640434835,0,4,1,1,4,67,-1,-2
1532640434840,-9,-12,-3,-3,-12,-26,-5,-6
1532640434845,-7,-5,-7,1,-3,-107,-2,-6
1532640434850,-14,1,2,3,1,-100,-3,-3
1532640434855,-32,-22,-9,-3,-2,-83,-6,-3
1532640434860,32,29,-8,-4,-4,-64,-5,-3
1532640434865,6,-14,8,4,-4,127,5,1
1532640434870,15,16,11,1,3,111,6,4
1532640434875,-14,-6,-10,-4,-3,-65,-8,-5
1532640434880,0,-16,-4,5,8,-10,-4,-4
1532640434885,-25,-5,-2,-2,1,61,0,-3
1532640434890,7,5,5,2,7,100,-1,0
1532640434895,4,3,0,-3,-3,116,7,5
1532640434900,-2,1,4,-1,-5,-12,-1,0
1532640434905,5,-5,-6,-1,2,-82,-1,-1
1532640434910,-12,-9,-17,-2,-7,-119,-10,-7
1532640434915,-7,6,4,0,0,-45,-2,-3
1532640434920,0,-9,-2,1,1,23,-1,4
1532640434925,13,24,10,2,1,127,5,2
1532640434930,-10,-19,-5,-3,-3,-55,-1,-5
1532640434935,19,10,-4,0,-4,-109,-1,0
1532640434940,-9,5,6,3,5,-80,-1,0
1532640434945,10,18,2,-2,-5,71,-1,1
1532640434950,-13,-18,2,-7,-5,101,-1,1
1532640434955,11,13,2,-3,2,88,0,-3
1532640434960,11,-6,-2,-6,-5,72,5,-1
1532640434965,2,-22,0,5,2,-88,3,4
1532640434970,18,47,5,5,7,-106,-4,-4
1532640434975,-8,-33,-12,-6,-6,-59,-6,-4
1532640434980,6,19,15,0,-3,-102,-5,-3
1532640434985,4,-31,-28,-7,-2,-42,-1,0
1532640434990,-18,-20,0,-1,-1,97,-1,-6
1532640434995,1,2,9,7,3,127,6,3
1532640435000,-3,3,-5,4,1,50,-1,-3
1532640435005,-2,4,9,-2,-1,-46,-1,5
1532640435010,-2,-2,-2,-5,-5,-128,-4,-3
1532640435015,-9,2,-6,-10,-20,-75,1,-4
1532640435020,-10,-12,-4,1,17,-21,-1,6
1532640435025,3,8,4,0,0,-29,-1,-2
1532640435030,13,-12,-4,-2,-1,101,1,1
1532640435035,-7,20,8,-1,-4,101,2,-2
1532640435040,8,1,-11,-4,-7,88,-7,-9
1532640435045,-2,2,-1,3,-2,-15,-3,-2
1532640435050,5,1,-3,4,-1,-109,-5,2
1532640435055,9,-1,-1,6,11,-73,1,1
1532640435060,-6,-11,-3,-6,-7,-96,2,-3
1532640435065,10,5,0,-2,8,13,-3,-2
1532640435070,-1,8,12,-6,-6,2,2,-1
1532640435075,4,-9,-5,-2,0,26,-3,0
1532640435080,16,12,0,-1,-5,-9,-1,0
1532640435085,-13,8,-5,-8,-21,62,-6,-8
1532640435090,4,0,12,7,12,127,6,4
1532640435095,-4,-11,-11,6,0,8,-2,-6
1532640435100,-12,-7,2,6,7,-42,1,-4
1532640435105,1,-10,6,-3,2,-105,-3,1
1532640435110,6,29,-8,-6,-6,-65,-3,1
1532640435115,-19,-7,5,-1,15,0,-4,-9
1532640435120,-2,-20,-5,-7,-7,19,4,5
1532640435125,-6,14,-3,1,-10,-1,0,-7
1532640435130,7,-2,-8,3,17,-21,-1,-5
1532640435135,15,11,5,-1,-2,-22,2,4
1532640435140,4,3,4,3,0,37,3,7
1532640435145,-30,-7,-27,-16,-1,44,-3,-2
1532640435150,4,-3,26,11,-5,21,-4,-2
1532640435155,10,8,16,10,-5,43,-2,-4
1532640435160,-10,3,-2,-6,3,-7,-1,0
1532640435165,6,18,5,0,-3,-41,2,-1
1532640435170,-4,-30,-21,-12,-1,-3,-1,1
1532640435175,-10,-15,-6,-11,-1,-39,-4,0
1532640435180,14,36,-4,8,1,-43,-3,-1
1532640435185,6,-3,10,13,-5,-37,-4,1
1532640435190,0,-2,-13,3,-4,1,-2,-2
1532640435195,-5,-9,11,2,1,44,2,-2
1532640435200,-1,-3,6,2,-30,78,4,-4
1532640435205,1,-20,-13,-10,-8,36,0,10
1532640435210,-34,-9,-8,-13,15,-1,-4,-25
1532640435215,-13,28,6,-2,-10,-29,5,2
1532640435220,9,-30,-16,-10,0,-26,-11,-17
1532640435225,10,24,9,8,-7,-68,0,18
1532640435230,6,4,14,6,0,-72,-1,6
1532640435235,2,-17,-12,1,-8,-59,-1,11
1532640435240,-7,20,-2,-5,4,-45,-1,-21
1532640435245,4,24,5,8,0,-35,6,0
1532640435250,8,-5,3,-2,-5,117,0,11
1532640435255,0,-7,0,-6,-8,111,-3,2
1532640435260,-1,1,22,-3,-1,105,4,5
1532640435265,2,-32,-46,-4,-12,91,-3,-6
1532640435270,11,16,18,11,7,-9,-3,-4
1532640435275,-7,15,3,9,0,-46,3,1
1532640435280,-4,-11,-4,-8,27,-40,2,3
1532640435285,-21,2,3,-11,-3,-51,-4,-19
1532640435290,1,-18,-12,-7,15,-66,7,8
1532640435295,15,27,11,3,-22,-68,-10,-2
1532640435300,-6,-22,-2,-1,-5,-50,1,2
1532640435305,11,-3,0,-4,3,-34,7,3
1532640435310,-19,3,-3,0,-36,-43,3,2
1532640435315,-3,-16,-4,12,18,-22,-11,-13
1532640435320,-6,17,3,1,-15,-36,-5,-7
1532640435325,7,-1,-5,9,7,-28,-3,1
1532640435330,-15,12,6,-2,-7,-12,-2,-7
1532640435335,-5,-25,-10,-12,-9,-28,7,8
1532640435340,3,11,-7,1,-14,-26,-7,2
1532640435345,1,-28,11,3,6,-35,2,-4
1532640435350,23,29,3,9,-6,-30,-7,-8
1532640435355,-11,-14,-9,-3,6,-101,0,-18
1532640435360,-2,-7,-4,4,24,-128,-6,13
1532640435365,3,19,8,-6,-28,-97,-9,-1
1532640435370,18,-31,-4,2,-19,57,7,-2
1532640435375,3,18,-13,-20,-23,114,-13,-7
1532640435380,6,1,0,4,21,127,5,0
1532640435385,-3,13,6,9,13,123,0,-8
1532640435390,-7,1,1,-6,3,30,8,5
1532640435395,7,-1,2,-2,2,24,7,5
1532640435400,3,-27,14,5,-2,-8,1,4
1532640435405,-5,19,-9,-6,4,-24,-3,-4
1532640435410,-7,-25,-20,-1,13,-36,0,-4
1532640435415,-5,-13,9,3,12,-20,-5,-3
1532640435420,-1,18,26,4,8,-36,2,0
1532640435425,1,-1,-9,-1,-3,-17,0,3
1532640435430,-4,2,7,-7,5,-38,1,6
1532640435435,0,1,-22,-5,-1,-56,-6,-9
1532640435440,-5,-13,-16,-4,-13,-110,-6,-10
1532640435445,3,1,10,0,8,105,4,3
1532640435450,13,30,0,-6,1,75,-3,-5
1532640435455,-8,-34,-2,-5,7,47,-3,-4
1532640435460,1,9,-15,-10,-30,-37,-4,0
1532640435465,-11,1,-1,8,30,-128,-2,-3
1532640435470,7,19,9,14,12,-118,1,-1
1532640435475,4,-18,11,11,7,-105,2,8
1532640435480,-7,1,-13,-2,1,4,6,-5
1532640435485,17,3,11,-30,-53,36,2,0
1532640435490,-18,-45,-30,7,15,55,-1,12
1532640435495,7,35,32,21,36,80,1,-6
1532640435500,-54,-28,-31,-13,-1,0,-12,-30
1532640435505,26,-10,2,0,1,19,-3,6
1532640435510,-4,9,4,-12,-6,83,0,-4
1532640435515,24,-2,-5,-5,-15,116,5,10
1532640435520,7,13,27,2,7,127,15,23
1532640435525,18,-9,-10,8,12,52,1,-5
1532640435530,-70,3,2,-5,-9,-17,-8,-15
1532640435535,-10,-50,-23,-6,-3,-44,-7,-10
1532640435540,9,6,1,1,-7,-50,-2,0
1532640435545,-2,13,-3,-1,-4,-104,-5,-3
1532640435550,16,-4,5,3,0,-127,0,5
1532640435555,-10,13,5,-1,-7,-128,-2,-4
1532640435560,-13,17,-9,-4,1,-87,0,-1
1532640435565,0,12,-4,-8,5,-23,-2,2
1532640435570,5,-14,6,10,13,0,3,-1
1532640435575,10,6,17,-1,-4,100,8,11
1532640435580,-6,7,-9,-4,23,127,-5,-14
1532640435585,-1,-24,7,0,-4,127,0,0
1532640435590,17,41,-12,-4,-6,46,-8,-6
1532640435595,11,1,-1,5,12,-2,3,3
1532640435600,14,0,1,8,-3,-20,2,8
1532640435605,-13,-3,1,6,1,-54,4,23
1532640435610,-28,-28,-6,-3,-6,-50,-8,-35
1532640435615,13,30,2,-8,-43,-80,-3,-4
1532640435620,-7,-33,-15,13,15,-109,-6,-6
1532640435625,-1,34,11,11,14,-117,1,7
1532640435630,26,-27,2,1,-10,-128,-1,12
1532640435635,-4,6,-2,-8,20,-49,-3,-5
1532640435640,8,-15,-12,-20,-16,17,-2,1
1532640435645,7,16,5,-4,-7,6,1,-4
1532640435650,1,21,4,1,2,118,1,4
1532640435655,-21,7,-7,-11,-3,83,4,-5
1532640435660,9,-12,12,-3,-15,58,-1,8
1532640435665,-12,-13,-20,0,0,60,-7,-22
1532640435670,17,11,13,1,-4,20,2,2
1532640435675,-4,-12,-8,6,17,-12,-4,-5
1532640435680,4,36,-2,-5,-13,105,6,8
1532640435685,-20,-30,2,-12,-13,127,2,-13
1532640435690,-4,2,-8,2,13,100,-4,-1
1532640435695,0,19,9,12,-5,46,0,12
1532640435700,19,-3,7,8,8,-17,-6,-5
1532640435705,-24,0,-1,-4,-12,-55,0,-16
1532640435710,-18,-17,-11,-11,-8,-48,-1,-5
1532640435715,3,0,-6,-6,9,-60,4,1
1532640435720,6,11,-4,-3,-5,-127,-4,0
1532640435725,1,5,-4,0,-1,-112,-4,1
1532640435730,-2,-17,-1,3,-4,-128,0,2
1532640435735,1,-7,4,2,-14,95,5,2
1532640435740,22,15,9,2,5,116,3,-5
1532640435745,-8,-7,-1,-1,2,111,1,2
1532640435750,-50,-22,-7,5,-4,62,-2,-7
1532640435755,27,17,10,-10,-27,-16,-3,5
1532640435760,-9,-21,-13,2,5,-30,1,-7
1532640435765,2,6,1,-7,23,-52,-6,1
1532640435770,16,18,4,3,6,-61,-3,4
1532640435775,-8,11,-12,6,7,-126,-3,-2
1532640435780,-21,-32,-4,13,3,-122,-4,-1
1532640435785,10,-1,7,6,2,-128,1,5
1532640435790,-7,-12,2,-8,-14,-108,2,4
1532640435795,4,4,-8,-7,6,-53,-4,-15
1532640435800,9,18,18,1,-4,99,8,2
1532640435805,-2,-11,4,5,8,126,9,5
1532640435810,17,9,4,-6,3,127,-5,-8
1532640435815,-8,-17,-3,-2,-10,83,-3,-9
1532640435820,-10,-13,-8,-9,-15,14,2,-2
1532640435825,2,19,-6,-4,-4,10,-2,-3
1532640435830,-3,-12,-6,-3,21,-4,0,-2
1532640435835,11,19,4,7,13,-28,2,7
1532640435840,-41,-36,-2,-2,3,-42,-8,-10
1532640435845,2,10,-8,-1,-6,-29,-1,-1
1532640435850,-11,7,-6,-6,-9,-29,-2,-3
1532640435855,2,-5,5,6,-1,-25,0,3
1532640435860,7,8,-1,-7,-7,-54,-2,-3
1532640435865,-25,-7,-10,-6,-3,-84,-5,-4
1532640435870,-4,-41,-4,-2,-8,-56,1,-2
1532640435875,26,53,8,1,-2,-14,-5,1
1532640435880,-2,7,-1,-2,-15,-10,-1,5
1532640435885,5,-12,-7,-3,-9,-58,-4,-2
1532640435890,10,8,7,-2,2,99,3,5
1532640435895,-6,-18,1,0,3,91,4,-4
1532640435900,17,15,5,5,9,44,6,5
1532640435905,-3,-1,-6,1,3,-40,-7,-8
1532640435910,7,-14,-4,0,-10,-120,-2,16
1532640435915,-13,15,-5,-8,5,78,-6,-20
1532640435920,9,24,-3,-1,-18,105,-1,1
1532640435925,-19,-12,1,3,13,127,4,-5
1532640435930,2,6,0,-1,-3,9,2,5
1532640435935,-10,-15,-4,0,-4,-45,-3,1
1532640435940,-5,-8,-6,-7,-17,-66,-2,-4
1532640435945,6,2,6,4,-1,53,7,6
1532640435950,21,21,4,1,-1,48,-3,-4
1532640435955,-18,-30,-2,-7,-14,12,4,6
1532640435960,-2,6,-10,-5,-13,-22,-2,-8
1532640435965,38,0,7,13,8,-21,3,5
1532640435970,-22,5,7,8,9,28,-2,-14
1532640435975,-6,-9,-2,3,4,-115,-1,-3
1532640435980,1,7,8,1,8,-128,0,4
1532640435985,0,-25,-23,-24,-35,-111,-9,-8
1532640435990,22,31,-5,-2,-3,-69,-4,-5
1532640435995,-4,-19,15,10,13,93,3,6
1532640436000,22,12,9,3,41,119,6,9
1532640436005,-33,0,5,3,-27,127,-6,-6
1532640436010,1,-18,-4,-4,14,98,1,-13
1532640436015,-10,-19,-11,-8,-19,45,3,7
1532640436020,0,1,-1,5,9,-38,-2,-7
1532640436025,-2,3,-1,-2,-5,-13,-1,6
1532640436030,-1,0,-6,-4,-3,-121,-28,-7
1532640436035,2,6,-5,0,18,-128,-13,-3
1532640436040,-13,-10,-4,-3,-24,-106,-6,-3
1532640436045,11,1,6,2,12,54,5,-1
1532640436050,-4,4,3,-2,-14,114,8,-5
1532640436055,19,10,2,2,18,123,12,5
1532640436060,-27,-51,-5,-1,2,98,-4,-1
1532640436065,8,-2,0,1,8,-7,1,-2
1532640436070,17,-1,2,1,19,0,7,1
1532640436075,-13,-31,-3,-1,-29,-36,-11,-8
1532640436080,-11,-5,-8,-1,9,-54,4,10
1532640436085,3,8,3,3,10,-55,-2,-9
1532640436090,-3,-3,1,4,7,-104,7,21
1532640436095,7,-2,-4,-4,-4,13,-8,-35
1532640436100,-6,-1,4,-2,-7,82,-3,4
1532640436105,-1,21,-6,-5,5,65,5,-4
1532640436110,8,7,-9,-2,-10,27,3,6
1532640436115,-9,3,0,-1,6,-50,-2,-3
1532640436120,3,12,9,7,11,-52,1,2
1532640436125,6,-2,10,9,16,-106,-2,4
1532640436130,-3,-3,-4,-8,-19,-101,-1,8
1532640436135,-5,-11,-9,-4,-7,-84,-5,-16
1532640436140,14,4,-8,-10,-10,-73,-2,-5
1532640436145,-23,-33,-8,-6,-14,-45,-7,-8
1532640436150,5,12,5,2,-9,19,9,7
1532640436155,21,24,6,8,22,-21,-1,19
1532640436160,-42,-26,-14,-12,-1,23,-6,-38
1532640436165,13,22,12,0,1,7,-1,5
1532640436170,-16,1,-3,3,1,-4,-3,-13
1532640436175,8,13,8,-3,-3,127,14,14
1532640436180,12,16,-1,1,9,107,-1,4
1532640436185,-4,3,-4,-3,-19,117,-2,-3
1532640436190,-31,-38,-7,-5,3,103,-2,-2
1532640436195,0,18,11,10,18,14,-1,3
1532640436200,8,3,1,-2,-19,-27,-4,-10
1532640436205,-7,-8,-10,-1,6,-37,-1,-4
1532640436210,16,13,7,2,2,-27,-4,10
1532640436215,-8,-1,-4,-2,-5,-68,-2,-11
1532640436220,6,-9,4,3,-3,-36,6,11
1532640436225,1,9,-3,0,-5,-61,-6,-2
1532640436230,0,5,-4,-3,-1,-36,-2,-4
1532640436235,-10,-11,-11,-7,0,-44,2,8
1532640436240,27,18,5,5,6,-87,-4,-3
1532640436245,3,0,6,-1,1,-117,6,4
1532640436250,-15,36,-8,-1,-5,-82,-3,-7
1532640436255,-28,-56,-16,-7,-22,75,-12,-15
1532640436260,19,16,8,5,35,122,6,7
1532640436265,2,-15,4,-1,13,110,4,7
1532640436270,4,21,1,1,4,87,-1,-13
1532640436275,7,4,-3,1,7,2,0,3
1532640436280,-6,10,1,2,-4,-23,1,2
1532640436285,4,-13,-4,0,5,-3,0,0
1532640436290,-5,-7,4,-2,-6,-16,-5,-15
1532640436295,-1,9,-1,-6,-4,-46,2,2
1532640436300,8,12,7,-3,-4,102,4,4
1532640436305,-5,-24,-11,-11,-12,127,2,-4
1532640436310,2,-2,2,2,23,127,6,6
1532640436315,4,4,4,1,2,69,-1,1
1532640436320,2,-1,-2,-3,-8,-10,-3,6
1532640436325,-16,4,-7,-9,-4,-24,-7,-20
1532640436330,6,-13,-13,-4,3,-27,-2,1
1532640436335,3,28,3,9,2,-112,1,-8
1532640436340,-6,-6,1,7,-4,-124,-6,-4
1532640436345,14,14,6,2,1,-82,0,9
1532640436350,-1,-23,4,-6,5,-45,-5,-1
1532640436355,1,28,1,-16,-2,46,-4,-3
1532640436360,-8,-22,-10,4,-3,-48,-6,-6
1532640436365,-24,-6,5,6,1,71,1,-5
1532640436370,4,-11,5,2,-5,66,0,0
1532640436375,8,-10,5,-3,-7,97,8,12
1532640436380,-22,15,-7,-6,0,49,0,-7
1532640436385,12,-1,-7,-4,-3,5,-5,-5
1532640436390,5,18,-1,4,-6,-3,6,2
1532640436395,-7,0,1,3,-3,-51,0,9
1532640436400,8,20,5,-2,-3,121,0,-10
1532640436405,7,-9,1,0,-9,123,7,5
1532640436410,-13,-16,4,-4,6,127,0,-6
1532640436415,21,12,-14,1,6,37,-9,-10
1532640436420,11,1,10,5,-8,13,4,-1
1532640436425,-16,2,-4,-2,-1,-36,-3,0
1532640436430,3,-2,2,1,-3,-112,-3,-3
1532640436435,-9,-10,1,-5,-8,-64,-1,0
1532640436440,5,-7,-7,-1,12,-108,1,9
1532640436445,3,18,-7,4,-13,-115,-6,-7
1532640436450,-2,-8,8,3,2,-83,2,1
1532640436455,11,-4,-7,-1,3,-74,-8,-10
1532640436460,-9,0,-2,-6,-23,-40,-4,-7
1532640436465,-8,1,-3,-2,0,-78,-1,-5
1532640436470,-2,-3,-1,2,8,-24,-1,-9
1532640436475,-6,-35,-2,-3,-7,41,7,11
1532640436480,0,10,-3,-5,18,18,0,-2
1532640436485,-10,-17,-3,-2,7,31,-4,-6
1532640436490,9,7,-3,-3,-13,-21,-6,5
1532640436495,-9,-14,1,-7,0,18,3,-11
1532640436500,1,12,3,13,55,64,-2,4
1532640436505,3,-5,-8,-4,-39,-10,-3,2
1532640436510,-6,-3,4,-1,-15,-7,1,-4
1532640436515,5,15,3,-3,-22,11,-4,3
1532640436520,-10,-11,-1,-2,1,67,-2,-10
1532640436525,19,16,11,7,38,54,4,3
1532640436530,0,-24,4,-3,7,127,2,1
1532640436535,-4,0,1,-4,-22,104,0,1
1532640436540,2,-6,-4,6,-21,103,4,-1
1532640436545,8,-3,11,6,13,58,4,4
1532640436550,-15,5,-14,-15,-24,-6,0,-8
1532640436555,6,8,5,15,24,-50,0,1
1532640436560,0,-3,-1,0,-2,-76,-6,-3
1532640436565,11,4,0,-1,-4,-52,5,6
1532640436570,-11,4,7,1,-2,-65,-1,-6
1532640436575,-16,-29,-26,-13,-1,-53,2,10
1532640436580,9,35,12,-2,-3,-75,-8,-21
1532640436585,-16,-28,-6,1,5,-57,-1,-2
1532640436590,5,20,4,-5,-5,-28,-2,-2
1532640436595,19,12,13,5,12,-30,8,8
1532640436600,-51,-66,-22,-3,-11,-44,5,12
1532640436605,4,46,10,12,21,-26,-7,-7
1532640436610,7,4,5,4,-2,-38,-2,-2
1532640436615,2,-4,5,5,8,-72,-1,-8
1532640436620,3,-3,-2,-5,-8,-122,1,23
1532640436625,7,3,-8,-7,-8,-98,-6,-26
1532640436630,3,-32,-3,9,6,91,8,6
1532640436635,6,21,-6,-12,-11,113,-6,1
1532640436640,-1,-11,-1,-4,-5,109,2,-12
1532640436645,5,2,8,-8,-9,45,-1,12
1532640436650,7,19,6,5,-2,-11,8,-2
1532640436655,-16,-14,-11,-2,-13,-16,6,2
1532640436660,11,0,3,-4,-5,-43,-20,-46
1532640436665,-9,-6,-10,-3,-3,-36,-10,-3
1532640436670,22,0,11,4,2,-47,-5,5
1532640436675,-15,-7,-19,6,4,-43,2,-7
1532640436680,5,-5,11,8,-2,-10,8,15
1532640436685,-29,-35,-11,-7,-9,83,-2,-14
1532640436690,9,45,-3,-7,2,-107,-5,-3
1532640436695,-4,1,0,-12,-3,-114,-6,3
1532640436700,8,1,-4,-10,-15,-62,3,-5
1532640436705,2,4,4,0,-17,96,4,10
1532640436710,-5,-13,19,5,7,127,2,9
1532640436715,-6,-10,-8,3,6,127,-6,-25
1532640436720,-11,-12,-4,-2,2,52,0,5
1532640436725,9,29,8,0,5,20,2,2
1532640436730,25,36,1,2,5,-10,2,1
1532640436735,-53,-40,-16,-8,-9,-26,-10,-11
1532640436740,15,30,3,3,0,-65,4,10
1532640436745,-7,-49,-9,0,3,-121,-7,3
1532640436750,15,36,-11,-3,-2,-106,-11,-10
1532640436755,5,-34,20,-3,-9,81,2,8
1532640436760,-9,-18,-22,-8,8,127,3,-8
1532640436765,11,14,32,7,6,110,11,16
1532640436770,-20,-20,-24,-11,-31,19,-9,-10
1532640436775,24,19,21,12,38,-8,5,4
1532640436780,-26,-21,-13,-2,-1,-7,0,4
1532640436785,25,41,-3,0,6,-65,4,7
1532640436790,-24,-44,-16,-8,-20,-20,-11,-6
1532640436795,-6,3,-8,-2,3,-114,-3,-9
1532640436800,16,28,25,13,11,24,-1,21
1532640436805,-7,1,4,0,7,-7,1,-9
1532640436810,0,6,-19,0,6,-44,-3,-7
1532640436815,-4,2,9,2,-10,44,2,-1
1532640436820,8,6,6,4,33,54,5,8
1532640436825,-22,-21,-9,-8,-9,99,1,0
1532640436830,-2,-26,6,-3,-2,89,1,-3
1532640436835,10,21,-1,8,10,-37,-4,-1
1532640436840,-27,-21,-4,-12,-36,-128,-14,-14
1532640436845,8,9,-5,-7,22,117,6,15
1532640436850,-8,-11,0,-2,22,93,3,-16
1532640436855,19,15,11,11,-5,63,4,5
1532640436860,-19,-39,-2,0,-8,32,3,0
1532640436865,10,12,-13,-7,-15,-61,-4,-9
1532640436870,-18,-4,-4,4,-10,-118,0,21
1532640436875,16,7,8,9,7,39,-4,-29
1532640436880,-10,36,1,-6,-7,1,-2,-12
1532640436885,4,-10,-8,-6,-5,-76,-3,3
1532640436890,5,17,9,4,7,4,4,-4
1532640436895,5,17,-8,-4,-5,-62,1,10
1532640436900,25,3,6,1,-9,45,-1,-3
1532640436905,-9,-4,-7,-7,-8,81,-1,-9
1532640436910,16,14,6,3,0,95,6,13
1532640436915,-35,-12,-19,-9,-2,38,1,0
1532640436920,3,12,2,6,-2,-93,-10,-12
1532640436925,0,-4,0,3,-5,65,-2,-7
1532640436930,15,-9,-1,-1,7,91,0,6
1532640436935,-2,10,9,-1,-9,43,-4,-4
1532640436940,22,-31,-2,-2,3,16,8,7
1532640436945,11,49,-10,-7,-28,-128,-11,-2
1532640436950,-87,-63,-26,-7,23,-128,-10,-26
1532640436955,10,6,9,-3,-9,78,-4,-2
1532640436960,12,-1,1,0,0,111,7,6
1532640436965,9,8,11,11,19,-30,2,-4
1532640436970,12,10,-2,-2,-7,-92,-1,8
1532640436975,-11,-39,-16,-6,-6,-128,1,8
1532640436980,0,34,9,-2,10,92,1,1
1532640436985,0,-14,-11,-8,-11,127,-1,-5
1532640436990,-5,-37,-15,-6,3,79,1,3
1532640436995,-4,9,-6,8,9,-35,5,-4
1532640437000,17,16,4,2,-6,-68,-2,0
1532640437005,2,-11,6,0,4,-126,-4,-5
1532640437010,3,2,7,2,-11,-56,0,-1
1532640437015,14,16,2,-6,-10,23,-5,12
1532640437020,-2,-3,-2,-7,-5,-116,-4,-19
1532640437025,-34,-56,-13,9,64,-5,15,13
1532640437030,-7,7,9,-6,-58,102,-26,-26
1532640437035,8,-2,1,0,3,-67,-3,-13
1532640437040,0,6,-7,-1,-15,-78,-8,-8
1532640437045,-4,-4,2,2,-1,-65,-3,-4
1532640437050,21,39,0,4,21,-6,13,9
1532640437055,-18,-40,-4,-6,-2,87,1,2
1532640437060,4,8,5,0,2,91,-1,5
1532640437065,2,3,1,5,-5,-27,-2,-21
1532640437070,8,12,2,-2,6,25,1,9
1532640437075,13,5,-1,-2,-7,-25,-1,-6
1532640437080,-19,-12,-10,-4,9,3,-4,-4
1532640437085,6,2,9,5,19,127,25,10
1532640437090,1,1,-5,-7,-40,-69,-29,-8
1532640437095,-1,-4,4,6,11,-14,3,-1
1532640437100,12,4,-5,6,-12,29,-6,5
1532640437105,-24,-17,-4,-5,-8,36,-14,-6
1532640437110,4,-2,-7,4,4,-24,4,-4
1532640437115,5,-2,5,1,8,-4,9,4
1532640437120,-4,16,-2,1,18,3,2,5
1532640437125,17,24,5,-1,-29,-62,-14,-7
1532640437130,-15,-55,-6,-5,23,23,11,3
1532640437135,17,46,7,2,-10,-3,-7,-5
1532640437140,-30,-45,-14,-10,-9,68,0,-10
1532640437145,3,-5,2,-4,-6,51,0,0
1532640437150,2,-9,-2,-5,19,26,3,-2
1532640437155,6,20,1,-7,-33,67,6,7
1532640437160,4,-5,3,3,-4,-64,-2,4
1532640437165,6,8,5,16,94,46,18,5
1532640437170,-8,9,-2,-9,-75,-44,-17,-8
1532640437175,0,-22,-2,-5,4,-9,-4,3
1532640437180,-7,5,-11,-7,-5,-21,-4,-14
1532640437185,5,6,-4,-5,-26,-21,-2,18
1532640437190,-42,-9,6,6,13,-4,8,-11
1532640437195,-4,-9,1,-3,13,7,2,1
1532640437200,4,5,-6,-4,-8,3,-2,6
1532640437205,4,-11,1,5,-9,-30,-2,-5
1532640437210,11,49,7,7,9,29,8,12
1532640437215,-18,-14,-10,-5,-21,-24,-4,-12
1532640437220,8,-4,-1,-4,43,1,0,5
1532640437225,-2,13,-5,-8,-29,-26,-5,-5
1532640437230,19,20,12,22,30,39,5,9
1532640437235,-12,-13,7,-2,13,53,-4,-10
1532640437240,15,2,5,0,-7,80,7,26
1532640437245,-17,-6,-5,-8,-7,37,-10,-47
1532640437250,12,-6,-11,-6,19,47,12,10
1532640437255,10,7,-4,7,22,-38,-10,7
1532640437260,-15,-25,5,6,-19,-60,-3,-2
1532640437265,5,12,4,3,10,-41,-7,-2
1532640437270,5,3,3,-6,-32,-29,4,-8
1532640437275,-8,-26,-11,-10,-30,-2,7,14
1532640437280,15,24,-6,-9,5,2,6,-16
1532640437285,-15,-23,4,8,0,-54,-23,2
1532640437290,16,7,9,8,22,-13,-3,1
1532640437295,7,10,8,4,-21,-1,5,11
1532640437300,-15,6,-7,-2,-11,-38,-1,-5
1532640437305,10,-8,-3,-6,-28,-41,6,6
1532640437310,-36,-36,-12,-20,-1,-23,-8,-15
1532640437315,-8,-14,-15,10,19,-14,0,-2
1532640437320,14,25,21,16,3,12,4,16
1532640437325,3,4,-3,0,0,20,3,3
1532640437330,5,2,4,-3,10,28,-3,-6
1532640437335,1,17,-8,-12,-4,23,-8,-25
1532640437340,-27,-24,-12,-1,6,-111,0,-12
1532640437345,18,6,6,6,-3,98,6,30
1532640437350,-2,-6,8,-2,-3,103,5,-10
1532640437355,5,7,2,-5,8,127,-6,-6
1532640437360,18,16,6,12,6,95,4,0
1532640437365,-23,-23,-13,-1,-5,-7,-4,-4
1532640437370,-1,12,-12,-6,-3,-32,-2,4
1532640437375,2,-13,-6,-7,11,-72,-6,-10
1532640437380,-1,9,-2,0,-24,-59,-4,4
1532640437385,4,15,4,10,-11,-73,0,3
1532640437390,12,-9,0,-5,-23,-52,8,-3
1532640437395,-12,12,2,0,21,-87,0,-12
1532640437400,-1,-15,-3,-2,1,-28,-2,2
1532640437405,-10,-10,-7,-7,-3,-31,1,0
1532640437410,19,23,0,11,-2,-48,-4,-4
1532640437415,-7,-7,1,-7,0,-36,1,9
1532640437420,-18,1,-14,-15,-3,-4,-1,-2
1532640437425,3,8,12,4,6,-14,-1,-18
1532640437430,10,2,14,4,7,-26,1,11
1532640437435,-21,-25,-10,2,-21,-22,-6,-8
1532640437440,8,-17,4,6,33,22,9,-3
1532640437445,2,4,-6,-10,5,-44,-7,0
1532640437450,17,8,3,-2,5,-10,6,6
1532640437455,-1,-14,-15,6,4,-18,6,11
1532640437460,-15,-16,2,-3,-18,1,-5,-10
1532640437465,-18,1,-12,-10,-12,-11,-2,-19
1532640437470,-5,-20,0,-6,6,-16,-8,1
1532640437475,8,30,21,-2,-11,-28,-6,-14
1532640437480,8,9,-24,15,-5,-67,2,3
1532640437485,-8,-43,0,-1,-3,-97,2,-2
1532640437490,-7,24,0,-4,-11,-128,-5,2
1532640437495,-1,2,7,1,10,-98,0,1
1532640437500,8,-2,21,-3,-2,91,3,2
1532640437505,4,15,-4,0,1,127,2,6
1532640437510,13,-8,3,6,-3,127,5,-4
1532640437515,-37,-17,-11,-5,1,62,-6,-9
1532640437520,8,11,12,2,13,17,-4,-4
1532640437525,-2,-18,1,0,7,-32,3,8
1532640437530,3,15,-17,-7,7,-103,-5,-2
1532640437535,17,22,3,6,8,17,3,7
1532640437540,-4,-33,-8,-10,1,-64,-3,-4
1532640437545,2,23,7,-1,-18,-62,-5,-18
1532640437550,-42,-22,-9,1,3,-83,0,-7
1532640437555,15,4,18,4,-6,85,5,8
1532640437560,-5,-2,-2,-13,-28,119,-5,6
1532640437565,11,21,21,3,16,118,3,7
1532640437570,-3,-26,-8,8,8,110,1,-5
1532640437575,12,16,3,1,8,28,2,-1
1532640437580,-27,-21,-5,-3,1,4,3,-8
1532640437585,3,-12,-8,-15,-19,-51,-12,0
1532640437590,-4,3,-9,-3,11,-24,-3,-7
1532640437595,2,9,-2,1,1,-23,0,2
1532640437600,13,16,-6,-2,19,7,3,2
1532640437605,-6,-16,3,-5,-23,-120,-7,-2
1532640437610,17,36,7,-8,-7,-86,-6,1
1532640437615,-14,-73,-40,-13,-8,-128,-9,-8
1532640437620,-37,13,2,9,3,-128,-7,-14
1532640437625,0,20,0,13,0,-13,2,-6
1532640437630,11,-6,13,2,7,115,2,3
1532640437635,14,13,23,-6,-22,40,-1,3
1532640437640,-9,-34,8,-17,-10,-3,-2,-2
1532640437645,1,20,-69,-3,16,122,6,0
1532640437650,7,5,50,40,9,98,8,5
1532640437655,18,11,7,5,4,127,6,11
1532640437660,-9,-9,1,1,-7,97,-2,-14
1532640437665,-1,-4,12,-14,-16,-38,-8,-1
1532640437670,-10,-1,-28,-13,3,9,2,5
1532640437675,-11,4,-6,4,-6,-90,-9,-12
1532640437680,21,21,6,2,-4,-111,-4,13
1532640437685,-11,-27,-3,-11,-1,-102,-5,-18
1532640437690,-2,7,-21,-9,-3,-107,-8,-5
1532640437695,6,8,18,2,11,26,18,21
1532640437700,-8,-12,-4,-13,-10,90,-7,-3
1532640437705,1,17,-1,0,1,82,3,-8
1532640437710,1,-27,-2,-5,-5,43,-3,-2
1532640437715,5,15,10,4,1,-9,-3,-14
1532640437720,23,39,7,6,-1,-12,1,-3
1532640437725,-6,-13,2,13,14,-53,-1,3
1532640437730,-2,18,-1,-2,14,-8,-1,0
1532640437735,-3,-4,-1,2,-5,16,1,-12
1532640437740,16,16,-10,2,0,-23,-5,0
1532640437745,-1,0,10,2,1,-9,-1,3
1532640437750,-16,-19,-11,-5,-5,66,3,-7
1532640437755,-4,9,-4,2,1,71,-1,1
1532640437760,12,14,10,7,6,38,3,0
1532640437765,2,-15,-14,-7,-1,50,6,3
1532640437770,7,12,-11,-3,-5,-61,-3,6
1532640437775,-8,-7,4,5,3,-29,-1,-13
1532640437780,-4,-12,5,5,-2,86,2,1
1532640437785,-1,10,9,-2,-10,53,-2,0
1532640437790,1,-15,7,-2,1,83,6,14
1532640437795,-5,3,-11,-12,-8,28,-10,-12
1532640437800,6,-11,-1,1,10,-47,0,-13
1532640437805,2,-5,6,-2,11,-14,2,6
1532640437810,-5,22,5,1,-3,-13,-4,-14
1532640437815,-1,13,-7,12,13,-73,4,10
1532640437820,3,5,3,2,-2,-40,-3,-1
1532640437825,7,-9,6,5,4,15,5,4
1532640437830,4,12,4,-14,-16,-57,-3,-4
1532640437835,10,29,-14,-2,4,-73,-2,3
1532640437840,0,-9,9,10,5,77,3,9
1532640437845,-8,-4,10,0,1,112,0,-2
1532640437850,-5,-4,0,-2,26,118,-4,-13
1532640437855,-9,-33,-10,-8,-8,59,-1,-2
1532640437860,-4,5,-9,0,5,-45,0,0
1532640437865,12,-6,5,9,-6,-104,4,16
1532640437870,-21,9,3,1,-8,-111,-9,-15
1532640437875,13,12,-1,-8,-3,-27,1,2
1532640437880,-16,-14,-11,-11,0,-112,-6,-2
1532640437885,15,14,0,-2,-3,45,1,3
1532640437890,-6,-15,5,0,-6,-46,-4,-1
1532640437895,2,-23,-1,-3,-2,104,1,4
1532640437900,1,37,16,-14,-3,108,0,-12
1532640437905,4,-11,-27,0,-5,116,-6,-10
1532640437910,1,26,-2,10,12,64,0,-10
1532640437915,-4,-67,24,12,1,-10,6,12
1532640437920,-16,-28,-1,6,0,-67,-6,-9
1532640437925,11,45,6,2,-6,-113,0,12
1532640437930,-45,-42,-18,-11,-18,-128,-6,-14
1532640437935,17,22,5,1,-1,-128,-3,5
1532640437940,-4,-27,-33,-4,-7,-4,-4,3
1532640437945,-6,12,13,4,3,82,8,3
1532640437950,9,-8,12,8,-13,54,1,0
1532640437955,-6,13,3,-4,-5,33,-2,-3
1532640437960,2,-20,-11,-5,7,-99,0,2
1532640437965,19,75,30,1,4,-78,-2,-2
1532640437970,-31,-82,-58,1,2,-94,-6,7
1532640437975,-3,15,9,3,-18,0,-3,-10
1532640437980,-17,-27,-6,2,4,-9,-3,-11
1532640437985,11,-23,-9,-7,-13,-5,1,-4
1532640437990,21,41,26,-4,6,23,8,13
1532640437995,-13,14,-8,1,20,85,-4,0
1532640438000,9,28,32,-4,-14,127,3,2
1532640438005,-3,-27,-21,-4,2,123,6,-2
1532640438010,10,-14,-10,-11,-6,87,3,11
1532640438015,-1,13,-15,7,11,-3,-6,-31
1532640438020,0,25,12,6,1,-2,4,-1
1532640438025,-29,-24,4,-4,9,-68,-12,-14
1532640438030,20,13,-24,3,3,-75,-1,2
1532640438035,2,15,8,-10,-4,-116,5,11
1532640438040,4,0,-23,-1,-14,-128,-12,0
1532640438045,-31,-26,-16,-3,-4,-128,-6,-9
1532640438050,3,-1,23,-2,-11,-74,-3,-11
1532640438055,24,39,13,-9,-1,-53,0,5
1532640438060,-12,1,-34,-4,2,0,6,-3
1532640438065,0,17,31,6,-8,-75,1,2
1532640438070,10,-19,2,8,-3,103,0,6
1532640438075,15,26,2,-3,-21,83,-6,-1
1532640438080,-8,-29,-2,-10,5,84,6,6
1532640438085,5,16,-12,1,0,53,-7,-7
1532640438090,-2,3,7,3,14,104,8,16
1532640438095,23,2,11,1,-2,97,5,-3
1532640438100,-1,2,0,-9,7,113,2,-12
1532640438105,-8,-27,-31,-7,2,68,-6,-11
1532640438110,9,11,3,7,-2,-90,2,4
1532640438115,-18,3,4,-2,-9,-113,0,4
1532640438120,8,28,-12,-19,-1,-111,-13,-10
1532640438125,-2,-1,-8,9,-2,-34,4,-2
1532640438130,-1,2,17,-2,-6,4,-4,-1
1532640438135,11,-8,-8,1,-3,53,6,9
1532640438140,1,2,23,7,-6,43,3,1
1532640438145,-33,-28,-12,-5,-1,-38,-4,-8
1532640438150,17,12,3,6,7,1,1,5
1532640438155,9,-4,8,-1,-5,-57,-3,1
1532640438160,-2,-10,-14,-7,4,-1,4,5
1532640438165,-11,5,-1,-11,-12,16,-7,-13
1532640438170,-31,-23,-2,1,-5,24,-2,-11
1532640438175,23,32,15,3,5,126,-1,2
1532640438180,-1,-25,6,0,3,127,-7,-6
1532640438185,-5,17,5,4,8,90,5,4
1532640438190,-17,-40,-23,-14,-15,55,-1,8
1532640438195,7,19,12,-4,12,25,0,-13
1532640438200,17,22,10,0,1,-66,1,2
1532640438205,-33,-56,-13,11,6,-35,0,-2
1532640438210,22,20,6,3,3,-81,-2,0
1532640438215,16,-12,-7,3,4,-35,-2,7
1532640438220,-26,-29,-9,-11,-19,-75,-1,0
1532640438225,8,-2,-1,-4,2,63,-2,-24
1532640438230,0,14,7,9,-3,64,1,2
1532640438235,3,-12,13,6,2,71,0,0
1532640438240,-14,22,6,3,-2,17,1,3
1532640438245,2,-5,-15,-4,-2,-31,0,2
1532640438250,-4,-18,14,5,-2,-27,-3,-1
1532640438255,8,0,-3,-2,-7,-30,-2,0
1532640438260,-25,-11,12,-4,-1,-21,-4,-13
1532640438265,0,-29,-28,2,-13,-27,6,13
1532640438270,16,46,-8,5,10,-5,1,4
1532640438275,-15,-21,-8,-5,-1,-85,-2,-8
1532640438280,19,15,0,0,-10,78,3,3
1532640438285,-10,5,12,-1,0,49,-3,2
1532640438290,11,5,-7,-7,-7,23,-2,0
1532640438295,-13,-2,-7,4,4,26,2,2
1532640438300,-3,-32,-4,-2,-3,-46,-4,-7
1532640438305,20,28,12,-1,0,-45,-2,3
1532640438310,2,-5,-7,-5,-2,-18,-3,-1
1532640438315,-26,-19,-1,-5,-6,55,-6,-17
1532640438320,-7,-8,3,0,-4,58,5,5
1532640438325,14,-6,10,-1,0,44,-4,-1
1532640438330,-7,14,-3,-5,-8,-51,-2,0
1532640438335,-1,30,9,3,-2,7,7,4
1532640438340,-26,-49,-16,-2,6,-42,-8,-11
1532640438345,-1,-2,2,0,-1,-46,1,-1
1532640438350,-5,-2,-4,-3,-15,-78,-5,4
1532640438355,13,4,8,0,-3,106,0,-5
1532640438360,-1,-16,-6,0,6,45,2,2
1532640438365,5,56,8,2,16,35,-2,-7
1532640438370,1,-12,5,3,-1,15,0,-4
1532640438375,7,-10,7,-21,-2,-41,-6,8
1532640438380,18,0,-13,0,11,-88,4,1
1532640438385,-36,-33,-13,-5,-15,24,-12,-8
1532640438390,3,9,7,4,6,5,-1,-2
1532640438395,-3,-18,-7,4,0,-64,-4,-1
1532640438400,-2,-10,-5,1,-3,18,2,0
1532640438405,16,15,7,-1,9,33,8,0
1532640438410,-5,-4,-5,3,-7,13,-6,-6
1532640438415,-12,-2,-4,0,-2,-5,-2,3
1532640438420,13,13,8,0,9,13,1,0
1532640438425,3,-9,-1,-1,-2,-8,2,-1
1532640438430,11,2,2,2,-3,127,4,1
1532640438435,0,8,8,4,4,89,1,1
1532640438440,3,9,4,7,24,127,2,0
1532640438445,-3,-16,2,-7,-24,71,2,4
1532640438450,9,26,-4,-12,-19,-8,-3,-4
1532640438455,-6,-27,-12,-3,24,-39,2,-2
1532640438460,7,14,2,-5,-13,-36,-6,-6
1532640438465,-23,-15,3,-4,20,-68,-4,-3
1532640438470,-17,-19,-17,-3,5,-74,-3,-8
1532640438475,1,25,-2,7,-11,-53,1,-2
1532640438480,-4,-1,6,7,4,-47,3,16
1532640438485,6,-13,4,-6,-10,-81,0,-15
1532640438490,-8,-2,-10,-2,1,-44,0,-3
1532640438495,-4,-21,15,16,10,-19,4,-2
1532640438500,-1,17,2,1,-3,-28,6,-1
1532640438505,11,13,-3,-1,-17,-61,-7,16
1532640438510,2,-4,0,-2,3,2,-2,2
1532640438515,1,15,-9,-8,-10,-14,-6,-14
1532640438520,12,-15,-2,-3,4,-103,-5,-6
1532640438525,-46,-13,-11,-2,-11,-63,1,-3
1532640438530,-4,-18,-4,-7,-3,48,-1,-7
1532640438535,9,-8,1,3,-19,66,-4,6
1532640438540,-16,3,9,1,-12,67,7,5
1532640438545,26,3,2,7,14,59,-1,-4
1532640438550,15,-11,12,2,-7,-30,-2,4
1532640438555,-14,13,-16,-14,-24,-80,-1,-12
1532640438560,5,-3,3,-2,10,10,-4,3
1532640438565,10,32,-10,4,10,-44,-1,-8
1532640438570,-10,-43,15,9,7,-39,7,-2
1532640438575,2,18,3,1,-8,-68,-4,-6
1532640438580,-10,4,-3,-7,-4,-54,-5,-4
1532640438585,5,-1,5,-8,-10,-19,1,3
1532640438590,12,21,-12,-10,6,10,3,23
1532640438595,-5,-5,1,10,12,-36,3,-17
1532640438600,3,-21,-2,-12,-30,99,-8,-2
1532640438605,-36,10,-13,-17,32,127,14,-10
1532640438610,1,-8,-22,4,12,97,0,18
1532640438615,8,7,34,15,5,51,-9,-8
1532640438620,10,-3,-10,-3,1,-5,0,-3
1532640438625,2,-18,2,1,-7,-25,-6,1
1532640438630,1,-1,-6,1,2,-40,2,0
1532640438635,2,9,-8,0,3,-16,7,23
1532640438640,3,31,-3,9,-8,-109,-6,-15
1532640438645,13,0,-1,0,-13,21,-5,9
1532640438650,2,14,3,1,7,-11,1,-6
1532640438655,5,1,-4,-3,-7,47,0,3
1532640438660,-6,2,-4,-12,-7,-32,0,-8
1532640438665,5,-16,-8,-4,24,44,6,9
1532640438670,10,11,26,19,0,42,-3,-12
1532640438675,-36,-21,-20,-19,2,43,-2,-3
1532640438680,3,16,14,9,13,-47,3,-1
1532640438685,-2,-18,-12,-2,-5,-128,-6,2
1532640438690,-2,4,13,-5,-5,61,-4,-15
1532640438695,0,-2,-15,-9,4,-29,-1,2
1532640438700,5,9,10,10,-1,63,6,11
1532640438705,10,12,5,10,-5,28,0,-4
1532640438710,-9,-37,14,-8,1,-13,-2,-9
1532640438715,-22,-9,-11,4,0,-104,-5,-7
1532640438720,-22,-61,-28,-7,2,127,0,-9
1532640438725,24,33,19,14,-3,111,-4,3
1532640438730,-2,-2,-5,-13,-8,66,4,1
1532640438735,9,-7,-1,-12,-3,104,3,5
1532640438740,13,28,-5,4,0,18,1,2
1532640438745,-5,-19,9,0,3,-11,-1,-2
1532640438750,-8,4,-8,-1,4,-67,-4,-4
1532640438755,-3,-11,3,0,2,-25,1,5
1532640438760,15,30,4,7,3,-74,-3,-5
1532640438765,0,-4,0,3,-11,-17,1,0
1532640438770,-11,31,3,-1,-6,-96,-6,-8
1532640438775,15,5,1,-8,-3,-12,1,-4
1532640438780,-15,-31,-32,-5,5,7,4,7
1532640438785,1,-7,14,13,-3,-22,-7,-11
1532640438790,-2,7,-3,5,2,-10,2,0
1532640438795,-12,-5,12,4,12,44,4,0
1532640438800,4,14,7,-10,-8,21,-2,0
1532640438805,10,0,-2,-7,-6,70,3,4
1532640438810,-19,0,-5,-2,-2,109,3,-3
1532640438815,12,-2,-7,-2,2,127,4,6
1532640438820,-8,8,-3,-5,-1,55,-11,-16
1532640438825,-2,-7,-3,-1,2,-5,3,8
1532640438830,4,17,-9,-3,-1,-8,-6,-10
1532640438835,-12,-10,-12,-1,-6,-67,-8,0
1532640438840,-2,-6,3,4,-2,-44,3,2
1532640438845,3,15,0,-1,-2,-72,-5,-3
1532640438850,6,6,1,1,0,-69,-1,4
1532640438855,-12,-19,0,3,-1,-95,-2,-12
1532640438860,-1,8,19,7,-6,-70,-5,6
1532640438865,4,-9,-12,-17,-1,22,-5,-11
1532640438870,-10,-24,-1,-10,2,65,6,1
1532640438875,21,12,4,-9,3,-47,-12,-4
1532640438880,-15,12,-4,-13,-3,-47,1,-3
1532640438885,-20,-36,-3,7,21,-89,3,-2
1532640438890,6,27,-5,3,8,-119,-6,-13
1532640438895,10,6,-3,18,-3,52,0,3
1532640438900,5,-3,8,8,0,123,5,-4
1532640438905,3,-2,-1,3,-7,114,3,2
1532640438910,-1,-1,4,-3,-1,87,2,1
1532640438915,-15,8,-15,-12,-12,22,1,-1
1532640438920,12,0,-1,5,16,-8,-2,-3
1532640438925,-4,2,10,0,5,12,4,4
1532640438930,5,-8,3,3,6,-29,-3,12
1532640438935,-3,-7,1,-11,-21,12,1,-13
1532640438940,6,1,-11,-4,-8,-59,-15,-6
1532640438945,-8,4,-4,-7,11,-55,4,-3
1532640438950,-13,-3,-9,0,-26,-91,-11,-9
1532640438955,4,0,1,0,-3,-41,4,3
1532640438960,-12,-16,-3,-5,-39,-106,-1,8
1532640438965,4,13,2,12,39,-105,-5,-4
1532640438970,-3,-15,2,7,34,-47,8,10
1532640438975,21,13,8,-1,-3,103,-4,5
1532640438980,-18,-25,14,-15,-1,127,3,-18
1532640438985,6,43,-41,-9,-24,66,-7,-1
1532640438990,-1,-15,23,7,-13,-82,-1,2
1532640438995,5,5,13,10,26,80,4,5
1532640439000,4,3,4,6,5,122,7,5
1532640439005,4,-1,16,-6,7,83,-2,-4
1532640439010,4,6,-9,-9,-11,52,0,-6
1532640439015,23,9,4,0,3,-41,2,14
1532640439020,-16,-8,-9,-16,-4,-47,-5,-14
1532640439025,-8,4,1,-3,5,-51,1,-8
1532640439030,6,2,-8,-4,-8,-25,-6,-10
1532640439035,-3,-18,4,8,-8,-69,-2,-11
1532640439040,-1,-1,-18,5,-7,-116,1,4
1532640439045,-2,-9,5,6,-13,-128,-6,4
1532640439050,10,16,1,9,1,-48,5,11
1532640439055,-12,5,2,-8,4,-105,-1,-4
1532640439060,5,-16,-1,-6,-4,5,-1,2
1532640439065,-5,3,-3,-10,-26,24,-1,-4
1532640439070,5,5,-5,-6,17,85,2,4
1532640439075,1,-3,39,16,-3,69,1,-10
1532640439080,-10,-16,-38,2,9,30,-4,-6
1532640439085,8,2,29,17,9,119,3,6
1532640439090,-7,-18,-18,-9,0,121,-2,-8
1532640439095,-8,-1,-6,-8,-5,-9,1,6
1532640439100,14,42,17,-3,0,-14,-6,-1
1532640439105,-31,-26,-18,-7,-3,14,0,-10
1532640439110,9,1,1,7,-8,14,3,3
1532640439115,-12,-8,-11,-1,0,8,-3,2
1532640439120,3,6,11,8,3,-25,-2,1
1532640439125,7,4,-3,-1,-9,-71,-3,-3
1532640439130,-13,-5,-4,-5,-3,-61,-4,-4
1532640439135,-12,-4,-27,-14,-1,-50,-3,-8
1532640439140,12,11,12,5,13,-18,5,7
1532640439145,3,2,1,-2,-11,17,-2,-1
1532640439150,-3,-14,-1,-1,1,97,4,-5
1532640439155,-7,4,-3,-9,-8,127,-2,-3
1532640439160,11,9,12,-4,-15,127,5,3
1532640439165,6,4,5,13,17,43,-1,2
1532640439170,-4,-19,3,-2,-3,-8,-1,-4
1532640439175,-9,-17,-12,0,-6,-42,-4,2
1532640439180,-26,-1,4,3,0,-57,-2,-8
1532640439185,6,-14,6,-12,-11,-56,-1,-3
1532640439190,3,9,0,-5,4,-14,6,3
1532640439195,4,8,0,-3,0,-105,-9,4
1532640439200,2,-23,-6,0,4,-30,6,18
1532640439205,-5,-9,-4,-2,-15,-58,-4,-15
1532640439210,-4,-6,-5,-4,-10,-30,-6,-11
1532640439215,1,-11,2,3,0,2,1,2
1532640439220,8,-11,1,0,14,-22,-6,-3
1532640439225,-9,-10,-18,-3,-1,-13,1,-2
1532640439230,-11,-17,0,2,-9,-35,-5,-10
1532640439235,4,12,6,3,8,-10,3,-3
1532640439240,-10,-14,-7,0,3,-100,-5,-11
1532640439245,11,3,0,-3,7,-90,0,0
1532640439250,3,20,7,5,-3,80,4,9
1532640439255,5,-3,-4,-5,-9,110,-11,-13
1532640439260,1,-13,-2,-1,-4,119,3,1
1532640439265,-1,0,0,2,2,45,0,-6
1532640439270,-12,6,-5,-3,0,-14,-1,0
1532640439275,13,2,3,-3,-12,-1,6,6
1532640439280,-1,11,-5,2,7,-24,-2,-9
1532640439285,5,-7,3,-3,0,-3,-1,-1
1532640439290,8,6,6,0,3,-27,0,-1
1532640439295,12,5,-16,-10,-11,-18,-1,-5
1532640439300,8,8,13,2,17,-19,-1,1
1532640439305,-31,-22,-5,-6,-18,11,-6,-6
1532640439310,-1,-8,-9,2,3,-22,-5,-4
1532640439315,-3,-4,-2,11,16,-48,3,-2
1532640439320,9,-5,-11,-4,-10,-61,-2,-2
1532640439325,6,24,15,3,-2,-36,0,3
1532640439330,-1,-4,-2,-7,-1,-128,-1,-4
1532640439335,-1,6,-7,-7,10,69,-2,0
1532640439340,-9,-8,7,13,3,122,2,-7
1532640439345,2,8,3,0,-6,127,3,8
1532640439350,-7,-7,-6,-11,-28,56,-1,-6
1532640439355,2,5,4,1,23,-7,5,-1
1532640439360,-13,1,-2,-3,-6,-42,1,-2
1532640439365,6,4,-12,-4,-1,-91,-6,2
1532640439370,17,8,-5,8,9,-65,3,9
1532640439375,-6,6,10,3,-14,39,0,5
1532640439380,-32,-49,-21,-19,-5,82,-2,-10
1532640439385,11,10,8,-8,-1,94,1,3
1532640439390,-15,-2,-12,5,5,73,-3,-15
1532640439395,12,9,16,9,1,92,3,6
1532640439400,18,23,49,3,-3,83,1,9
1532640439405,4,-5,-38,7,-17,84,5,0
1532640439410,1,15,5,8,37,23,-3,-5
1532640439415,-23,-15,-13,-10,-6,-46,-7,-10
1532640439420,4,12,-4,-5,5,-53,-2,1
1532640439425,-3,-7,18,-7,5,-66,3,2
1532640439430,-8,-2,5,-7,-7,-17,-5,0
1532640439435,8,1,-7,4,-6,-57,3,1
1532640439440,-3,-4,-2,9,-6,-125,-4,4
1532640439445,-6,-1,-17,2,7,-120,0,-3
1532640439450,10,-11,16,5,-3,111,0,8
1532640439455,-12,3,-16,-11,-4,103,-2,-20
1532640439460,10,16,5,-3,-13,85,0,0
1532640439465,-3,-27,11,12,20,54,-1,-2
1532640439470,-22,7,22,-4,-7,-15,3,3
1532640439475,5,-13,-18,-5,-8,-36,1,8
1532640439480,-1,3,-16,-16,-21,-33,-9,-14
1532640439485,8,27,13,-2,0,-12,0,1
1532640439490,3,-20,-12,5,-1,-19,2,3
1532640439495,5,-3,9,9,8,-38,-4,1
1532640439500,-7,14,-10,-3,-4,-119,-5,-8
1532640439505,5,-26,-5,-5,-2,121,2,9
1532640439510,4,-3,3,-4,2,104,-2,-1
1532640439515,0,-5,-12,-4,-8,60,-1,-3
1532640439520,9,7,-9,0,0,40,2,1
1532640439525,-17,-8,17,-4,3,-14,-3,3
1532640439530,20,-4,-4,6,0,15,6,-3
1532640439535,-21,5,3,14,-2,-75,-14,-8
1532640439540,0,-30,-3,-1,4,-20,1,0
1532640439545,3,-4,5,6,-3,-103,1,0
1532640439550,7,52,-18,-12,-16,-124,-3,-8
1532640439555,-15,-23,4,-5,-12,71,3,2
1532640439560,0,-3,1,1,5,126,7,2
1532640439565,12,6,4,-2,-1,127,5,-5
1532640439570,-7,-19,9,-1,-2,30,0,-2
1532640439575,4,2,8,2,-3,-128,2,-1
1532640439580,-1,19,-1,-2,2,-116,-3,3
1532640439585,0,-9,-16,-4,-1,-84,-1,-8
1532640439590,-8,5,-2,-4,-4,24,-5,-2
1532640439595,7,2,10,-2,3,103,6,3
1532640439600,-3,-18,-6,-5,0,88,-4,-3
1532640439605,-4,19,7,-6,0,94,0,-2
1532640439610,3,0,-10,-5,-2,17,-8,6
1532640439615,3,-5,4,6,12,1,-1,-14
1532640439620,-3,13,-1,8,11,-11,1,-5
1532640439625,-5,13,-5,-2,3,-44,-3,-10
1532640439630,1,-11,-4,1,-2,-48,-1,-2
1532640439635,-1,1,2,-6,3,-59,4,6
1532640439640,2,8,-5,0,-2,-47,5,2
1532640439645,-4,-14,-7,-4,-13,12,-9,-7
1532640439650,14,10,3,9,14,26,2,4
1532640439655,-32,-10,0,-4,-4,4,-1,-7
1532640439660,-1,-8,-6,1,3,-38,0,-5
1532640439665,0,9,-2,-1,-6,-110,0,7
1532640439670,-9,-5,-1,-3,2,-127,4,-1
1532640439675,2,0,-5,-2,-2,-97,-8,-9
1532640439680,4,12,2,-2,-15,31,-4,6
1532640439685,-5,-8,3,-7,1,117,5,-7
1532640439690,7,-3,5,5,12,125,5,1
1532640439695,0,1,2,-3,3,114,3,10
1532640439700,-6,-17,-6,-7,-2,63,-5,-12
1532640439705,24,12,-2,3,2,21,2,5
1532640439710,-21,0,3,1,-6,-15,-5,-7
1532640439715,8,2,-1,-5,-6,-41,-3,-1
1532640439720,-3,1,1,3,-1,-26,0,2
1532640439725,10,1,1,4,26,-50,-1,0
1532640439730,-25,-35,-12,-10,-8,-36,-3,-9
1532640439735,13,30,10,7,1,-30,0,1
1532640439740,7,-9,0,4,5,-35,-1,3
1532640439745,-8,0,2,-1,-9,-28,-2,-11
1532640439750,1,-9,-12,-10,-4,-98,-9,-4
1532640439755,9,12,5,0,9,67,-2,5
1532640439760,3,-11,2,-6,-21,63,4,-1
1532640439765,2,-16,6,7,-3,36,1,13
1532640439770,-3,13,-6,-5,-6,26,-2,-9
1532640439775,-5,-17,-9,-5,0,-31,-8,-15
1532640439780,-11,6,5,1,-1,-6,2,-1
1532640439785,-7,-16,-21,-9,-17,-72,-9,4
1532640439790,9,11,15,5,-14,-21,-1,2
1532640439795,22,11,6,13,1,-107,1,-3
1532640439800,-42,-46,-15,-17,-18,-122,-10,-14
1532640439805,-11,15,-6,-4,17,17,2,-5
1532640439810,8,-3,5,12,37,108,7,12
1532640439815,-2,6,-2,-6,-5,127,3,-4
1532640439820,14,7,4,7,-2,127,4,3
1532640439825,-2,12,2,6,-1,48,2,3
1532640439830,-3,-4,-18,-4,-6,17,-3,-18
1532640439835,-9,-16,4,-1,2,0,1,5
1532640439840,2,5,6,3,15,-40,0,-4
1532640439845,0,-3,-4,-6,-3,-26,-2,6
1532640439850,7,2,5,-6,6,-20,0,-4
1532640439855,-9,-8,-4,-3,-12,-48,0,9
1532640439860,-2,1,2,-2,-2,-26,-6,-15
1532640439865,-1,5,2,-5,-5,-20,-5,-7
1532640439870,5,2,3,4,1,-18,0,5
1532640439875,1,3,10,3,5,-47,-2,3
1532640439880,1,-9,-18,-1,-14,-74,-5,5
1532640439885,-3,-11,11,8,1,35,0,-8
1532640439890,-6,-5,-19,-10,-10,83,-1,0
1532640439895,1,4,1,-2,-8,95,1,-8
1532640439900,8,0,-3,6,17,89,3,3
1532640439905,-4,-1,2,1,-2,-4,0,3
1532640439910,0,7,-2,-9,-9,-25,-1,2
1532640439915,-4,-13,-13,-7,0,-10,-3,-5
1532640439920,4,9,2,3,17,-15,2,5
1532640439925,-6,-3,-6,-2,10,-102,-10,-4
1532640439930,7,4,16,5,-13,28,5,-5
1532640439935,0,6,-4,-1,6,12,-5,1
1532640439940,7,4,-6,-1,6,19,0,-2
1532640439945,3,-3,-4,1,-10,15,2,1
1532640439950,-23,-11,7,-4,-2,-64,-2,0
1532640439955,-1,-7,-12,-4,-4,-128,1,-6
1532640439960,-2,8,-5,-2,-1,-123,-2,-1
1532640439965,6,12,-5,1,-9,-94,-5,-4
1532640439970,-3,-9,-23,-7,-3,-128,-10,-9
1532640439975,-9,-8,-2,4,-3,-107,-7,-7
1532640439980,0,38,20,0,-5,-1,0,5
1532640439985,-32,-88,-8,-12,2,111,8,-13
1532640439990,9,24,16,-2,3,127,9,10
1532640439995,3,-11,-4,-6,-3,127,5,2
1532640440000,5,3,-2,-1,7,124,6,7
1532640440005,12,16,5,0,-2,75,-2,-15
1532640440010,1,2,-5,2,0,78,0,-2
1532640440015,9,12,2,1,-5,-46,-11,-2
1532640440020,-9,-44,-4,1,-4,-4,-6,-4
1532640440025,2,26,3,2,7,13,4,5
1532640440030,-3,-20,-1,0,-4,-70,-4,-2
1532640440035,9,10,0,5,10,-16,6,5
1532640440040,12,13,8,-3,-6,-40,4,-5
1532640440045,-16,-11,-7,3,-4,-46,-5,4
1532640440050,-3,-2,0,3,4,-39,2,-6
1532640440055,1,1,-4,-4,-8,-37,-7,0
1532640440060,4,5,-8,-27,-1,-19,1,-2
1532640440065,-9,9,0,-28,-9,-17,2,-4
1532640440070,-2,-2,5,2,7,-28,-4,-1
1532640440075,-3,-3,4,6,-12,16,5,2
1532640440080,3,-3,0,23,7,-22,-6,2
1532640440085,13,30,-2,21,-8,-9,0,-9
1532640440090,-6,-41,-1,5,-22,14,2,3
1532640440095,-10,6,3,1,8,-18,7,5
1532640440100,2,2,0,4,-4,-20,-9,2
1532640440105,-1,0,-7,-3,3,-61,-5,-14
1532640440110,7,4,9,7,22,51,11,4
1532640440115,2,1,1,1,11,19,-7,-1
1532640440120,-6,-6,-2,-7,-10,72,6,-1
1532640440125,0,3,-1,-4,-18,-83,-14,-3
1532640440130,6,8,-5,-1,2,20,0,10
1532640440135,-6,-10,-6,-12,-15,6,4,-11
1532640440140,-2,4,10,3,34,41,10,-5
1532640440145,6,2,2,-3,-11,38,-2,5
1532640440150,5,10,3,-9,3,-27,-3,1
1532640440155,7,-25,-6,-4,15,-2,-1,2
1532640440160,-18,13,-23,8,27,-18,0,2
1532640440165,2,1,28,17,9,33,7,-2
1532640440170,7,28,11,4,-3,-33,-13,-7
1532640440175,-4,6,-4,-12,-10,12,2,-4
1532640440180,1,-24,-19,-23,-15,4,1,-1
1532640440185,8,5,8,9,3,4,7,6
1532640440190,-8,-12,14,4,7,-6,-3,10
1532640440195,4,9,10,-9,0,18,-1,-12
1532640440200,-2,-5,-13,-7,-2,-1,-7,-21
1532640440205,-3,6,-11,-13,3,-17,-11,15
1532640440210,2,-3,-10,10,0,-16,1,-16
1532640440215,-4,-3,-5,0,-21,-21,-1,-3
1532640440220,-10,-8,7,8,-1,-13,-3,-11
1532640440225,12,3,8,3,3,7,-3,8
1532640440230,-12,-7,-9,-3,-1,-9,-4,-4
1532640440235,6,-2,-2,-1,4,2,-1,5
1532640440240,-4,10,-5,2,-8,-3,5,5
1532640440245,10,6,16,3,-1,14,5,-1
1532640440250,-7,-26,-2,-1,-17,-2,-1,-3
1532640440255,-10,-16,-19,-3,-3,12,-4,6
1532640440260,1,-1,2,-2,-16,-17,-9,-12
1532640440265,-11,0,-8,-7,-12,12,3,-3
1532640440270,-4,-7,-3,-3,1,-6,1,-3
1532640440275,5,15,17,11,-13,3,-3,5
1532640440280,-2,6,4,-5,-4,-13,-2,-4
1532640440285,-1,5,-6,2,5,7,2,7
1532640440290,10,0,-3,-4,-6,-21,-4,-12
1532640440295,-17,-1,-3,1,6,13,4,-2
1532640440300,8,-1,15,3,-10,-5,0,7
1532640440305,-3,-16,-22,-15,-4,5,-5,-6
1532640440310,-4,-1,-12,-4,-1,4,1,4
1532640440315,8,14,4,11,11,2,1,-5
1532640440320,-6,-17,14,10,-1,-7,1,4
1532640440325,8,5,-4,5,3,7,-2,-3
1532640440330,2,13,-4,-6,-3,0,-1,1
1532640440335,-3,-2,-13,-3,-1,-1,-5,-9
1532640440340,-2,4,-1,-3,4,2,1,6
1532640440345,-3,-21,0,-5,-2,0,-1,1
1532640440350,-14,-5,-1,11,-2,4,4,-8
1532640440355,4,50,9,-8,12,6,-2,-1
1532640440360,-8,-60,-14,1,11,-1,-7,-3
1532640440365,6,12,6,-12,-2,5,2,-4
1532640440370,-16,-22,-3,-15,-2,4,0,0
1532640440375,6,6,8,11,-6,19,7,1
1532640440380,3,21,1,1,-18,-55,-6,5
1532640440385,-17,-4,0,5,9,13,5,4
1532640440390,-1,20,-1,-5,-9,1,-4,-8
1532640440395,-2,-22,-3,-2,-7,-9,-2,3
1532640440400,10,18,3,-5,21,27,3,-6
1532640440405,7,-1,1,0,-17,10,-4,-1
1532640440410,-11,-3,-3,3,12,-26,-10,-5
1532640440415,3,-14,-3,-2,8,33,5,1
1532640440420,-1,-11,-1,2,-10,-29,-2,-2
1532640440425,7,13,-10,-2,7,1,-3,1
1532640440430,7,-15,-10,-5,-4,10,-1,2
1532640440435,5,0,1,-8,-16,-17,-5,-6
1532640440440,16,12,4,6,1,16,3,1
1532640440445,6,-1,-8,0,-12,1,1,-4
1532640440450,10,-12,9,-1,-5,-17,1,9
1532640440455,0,16,1,-2,1,-2,-4,-6
1532640440460,-1,2,-9,-12,-17,7,3,1
1532640440465,-11,-2,2,4,45,29,9,-8
1532640440470,6,8,-11,9,12,-49,-7,-2
1532640440475,1,-15,19,8,16,4,4,17
1532640440480,-9,15,11,11,-1,-2,-3,-12
1532640440485,5,-1,2,0,-4,-29,-5,-11
1532640440490,-5,-8,2,-8,-15,26,11,16
1532640440495,-8,2,-6,2,22,-5,-6,-19
1532640440500,9,20,3,4,-13,-2,3,16
1532640440505,7,-17,6,1,-5,6,1,-5
1532640440510,-30,-17,-43,-6,-3,11,-2,-7
1532640440515,4,-12,5,1,-13,-14,-4,-2
1532640440520,-6,-14,-2,-9,9,17,1,-1
1532640440525,13,23,1,0,-6,-10,-1,4
1532640440530,2,34,-1,-1,3,3,1,-5
1532640440535,-2,-4,4,-8,-5,-3,-2,1
1532640440540,15,-2,-11,-1,4,1,-2,1
1532640440545,-18,-43,-8,-5,-2,-16,-7,-9
1532640440550,-4,48,12,-5,2,22,1,-5
1532640440555,5,4,7,9,16,24,0,5
1532640440560,0,-6,8,5,2,-13,0,-1
1532640440565,-2,0,-7,-3,-5,-10,-2,5
1532640440570,-15,0,10,6,-7,5,1,-10
1532640440575,13,-2,-5,-10,-9,-8,2,2
1532640440580,2,3,-1,2,1,3,3,-4
1532640440585,-3,29,-4,4,-4,1,-7,19
1532640440590,17,-3,11,8,3,4,4,-15
1532640440595,-24,-19,-10,-3,-24,-12,-4,-3
1532640440600,-22,-4,4,-5,-7,0,-3,-8
1532640440605,11,-8,-7,-6,6,0,2,-3
1532640440610,15,27,5,-2,4,2,0,14
1532640440615,1,-4,0,5,1,-7,1,-3
1532640440620,-5,-3,-9,-5,-7,20,2,-3
1532640440625,-4,25,1,4,-2,1,-4,-6
1532640440630,-1,-34,0,-7,-3,-8,-7,2
1532640440635,-4,-2,-13,-7,3,-3,2,-6
1532640440640,2,12,27,-4,-6,2,-2,2
1532640440645,-10,-22,-63,1,-4,5,-2,-5
1532640440650,6,-12,16,9,5,-1,-1,-5
1532640440655,3,10,-12,-7,-10,-9,-2,1
1532640440660,-1,-15,2,3,6,0,-1,-2
1532640440665,1,1,24,-2,-1,-5,-4,-4
1532640440670,0,-13,-7,-8,-17,0,1,1
1532640440675,9,2,-9,3,10,-1,3,1
1532640440680,-18,0,-7,-10,-1,-3,-4,-4
1532640440685,9,-6,17,-3,-4,-3,1,-4
1532640440690,10,15,-25,6,6,0,-10,-2
1532640440695,-10,-2,12,6,0,3,2,2
1532640440700,-8,-23,-4,-4,-4,-4,-4,-2
1532640440705,-7,-11,-5,-5,-13,8,9,1
1532640440710,5,-7,11,-5,16,-19,1,-3
1532640440715,11,13,4,5,-1,-2,-4,-4
1532640440720,8,17,-14,-2,9,2,4,-2
1532640440725,-6,-4,16,6,3,-5,-7,-3
1532640440730,8,9,12,3,3,-8,7,5
1532640440735,-8,-25,-12,-4,-1,-2,-6,-12
1532640440740,2,-15,-8,-1,-4,-5,2,-1
1532640440745,0,25,5,5,12,9,5,2
1532640440750,-9,5,-4,0,-4,8,-2,-5
1532640440755,15,-8,6,-1,1,0,3,5
1532640440760,-55,5,-15,2,-16,-6,-8,-23
1532640440765,15,18,15,-2,-12,-1,1,-7
1532640440770,0,2,2,5,6,9,-5,-2
1532640440775,-9,-5,-2,-4,-4,-42,-4,1
1532640440780,23,18,15,4,9,4,-2,8
1532640440785,0,-1,21,6,-11,-8,4,7
1532640440790,-12,-45,-20,-3,17,10,-2,-8
1532640440795,7,12,4,-4,-2,12,-2,-6
1532640440800,15,6,-1,7,1,3,2,4
1532640440805,-9,-7,-2,-6,3,-16,-4,3
1532640440810,6,-12,11,-2,-18,-15,4,4
1532640440815,-7,7,-15,-3,-5,4,-8,-4
1532640440820,-3,-6,-1,-5,0,-6,-4,0
1532640440825,-10,-26,-13,-3,1,9,2,-1
1532640440830,-4,0,1,-3,-5,3,-6,-4
1532640440835,-6,-4,-2,-3,-9,12,3,2
1532640440840,17,2,4,6,15,4,4,5
1532640440845,-6,25,-3,1,-2,-29,-9,-6
1532640440850,-2,-12,-9,-4,4,0,-3,-1
1532640440855,-5,1,-12,-7,-7,3,0,-3
1532640440860,5,1,14,1,6,7,1,2
1532640440865,3,8,-1,4,8,7,5,-1
1532640440870,-12,-18,-1,1,-10,0,-6,-7
1532640440875,5,16,-7,4,13,-2,0,2
1532640440880,4,18,15,1,-4,1,2,-3
1532640440885,-7,-20,-13,-7,7,4,1,-7
1532640440890,2,17,10,5,-13,-21,-1,4
1532640440895,8,-19,1,-2,-1,4,1,0
1532640440900,-16,7,-3,-1,-4,0,-3,0
1532640440905,4,-16,-5,-2,-13,-2,-10,-21
1532640440910,8,4,3,-4,0,13,3,5
1532640440915,-7,-5,2,-4,-2,7,2,-9
1532640440920,16,9,-6,2,-10,-10,-3,6
1532640440925,-24,-18,-7,-3,-2,2,1,2
1532640440930,7,30,2,2,-4,4,3,6
1532640440935,0,-14,11,7,-3,-4,1,-6
1532640440940,-9,16,7,-7,-14,-2,-5,-6
1532640440945,-12,-22,-15,-5,4,4,-3,-1
1532640440950,10,18,2,8,7,2,0,2
1532640440955,-6,-8,-3,-1,-13,1,4,7
1532640440960,9,9,3,-1,10,-2,-2,-6
1532640440965,15,1,6,3,11,-1,2,0
1532640440970,8,12,-7,-10,-6,1,4,-1
1532640440975,-1,-9,-3,-1,-3,-4,-4,-2
1532640440980,-3,-7,-6,4,-11,-5,0,7
1532640440985,19,25,10,6,3,1,0,5
1532640440990,23,-15,-6,-2,-1,0,-6,-11
1532640440995,-26,13,5,9,9,2,0,-5
1532640441000,14,-34,-22,-9,-8,0,0,3
1532640441005,1,13,-11,2,-20,2,4,-4
1532640441010,-33,16,15,3,7,-1,-1,2
1532640441015,9,11,7,-11,-10,-5,-5,-2
1532640441020,1,-15,-10,0,10,4,-1,0
1532640441025,-1,-1,8,-8,-10,-2,-8,-4
1532640441030,1,-11,-9,-6,2,1,0,-1
1532640441035,-9,4,-7,-3,-1,-5,0,1
1532640441040,-10,5,3,-8,-8,-2,-2,-4
1532640441045,13,-25,4,-2,-6,-3,1,4
1532640441050,-27,18,-5,-5,13,-4,-2,-6
1532640441055,10,-6,19,0,13,3,-5,0
1532640441060,-4,-15,-14,9,-17,-4,-1,-1
1532640441065,0,6,25,-3,4,-1,4,2
1532640441070,20,-30,-20,3,-8,5,5,3
1532640441075,-31,11,-12,-8,-4,-2,-3,-7
1532640441080,-10,-23,-1,-2,4,-4,-1,-8
1532640441085,5,6,-8,7,5,1,-4,-3
1532640441090,23,19,32,9,9,1,-2,1
1532640441095,9,-22,-20,5,10,2,5,0
1532640441100,-24,-23,8,8,21,1,-1,-7
1532640441105,-4,17,5,-1,-1,-1,2,7
1532640441110,-8,-33,-33,-12,-14,-5,-3,-1
1532640441115,14,22,17,2,-2,0,0,-3
1532640441120,9,10,2,-7,-8,2,-1,-3
1532640441125,5,-1,4,-7,12,-3,2,7
1532640441130,-10,-2,7,-1,-2,0,0,0
1532640441135,-13,-8,-3,4,-8,0,3,2
1532640441140,23,50,25,-5,-7,2,1,3
1532640441145,-26,-57,-43,0,5,-8,-4,-13
1532640441150,-3,8,1,-1,-18,2,-1,-3
1532640441155,2,-1,-6,-6,-1,-6,-1,-2
1532640441160,14,3,4,7,1,0,3,4
1532640441165,-24,8,22,-3,-14,1,-3,-11
1532640441170,-10,-2,-8,4,23,-2,-4,-3
1532640441175,10,0,2,2,-18,-2,-1,6
1532640441180,-5,-9,-8,-4,12,-3,-6,-11
1532640441185,-11,-18,-14,-1,37,6,-5,1
1532640441190,4,-18,9,-3,-5,-4,1,-3
1532640441195,1,40,16,-5,10,-1,2,1
1532640441200,8,7,-14,1,3,-1,-1,-1
1532640441205,-23,-50,-8,5,-3,4,-1,-1
1532640441210,16,42,14,-11,-9,-2,-6,-4
1532640441215,-6,-22,-6,3,4,2,-3,-10
1532640441220,-13,10,-8,-11,-10,-7,-3,-3
1532640441225,28,32,9,-5,-9,0,1,6
1532640441230,-5,-19,-7,2,-6,5,3,6
1532640441235,-10,-2,10,1,1,-3,-4,-9
1532640441240,-2,3,-8,1,-6,0,-3,-2
1532640441245,5,14,-4,-6,-5,-2,-3,-5
1532640441250,-4,-24,45,-4,1,-1,7,5
1532640441255,0,-36,-86,4,5,8,-4,-8
1532640441260,-2,-16,16,2,5,-7,2,12
1532640441265,15,45,10,10,1,-4,0,-7
1532640441270,-42,3,-11,-18,-11,-6,-8,-14
1532640441275,21,-11,4,-1,-4,-1,1,9
1532640441280,-7,-8,24,5,8,6,2,-2
1532640441285,2,0,-26,3,-6,-1,-4,4
1532640441290,-32,-29,-9,5,5,-4,3,-3
1532640441295,-9,23,24,-1,-2,-8,-3,-4
1532640441300,12,4,-24,-7,2,0,0,-1
1532640441305,7,22,23,-2,-5,1,3,2
1532640441310,7,-17,-13,3,2,12,1,1
1532640441315,0,10,0,-2,1,-9,3,4
1532640441320,-2,-21,-2,-4,-12,2,-4,-5
1532640441325,11,12,26,0,2,15,8,-3
1532640441330,6,24,-39,2,-3,-15,-11,-5
1532640441335,-2,-4,6,-1,1,14,3,0
1532640441340,1,-3,-6,1,-3,-11,0,-3
1532640441345,-8,-33,3,-5,2,-2,1,2
1532640441350,24,30,-7,1,-1,15,1,19
1532640441355,-4,-3,15,1,-1,-4,-4,-19
1532640441360,-3,3,-3,-4,0,3,0,1
1532640441365,5,-10,-12,-1,-4,-3,-6,-3
1532640441370,7,-4,25,5,-6,-1,4,5
1532640441375,-1,-5,-15,-6,3,-3,-2,5
1532640441380,-2,5,-4,13,15,-1,-2,-2
1532640441385,4,21,-5,9,-5,-8,2,1
1532640441390,9,-23,0,0,1,-9,3,0
1532640441395,-1,19,15,-17,-24,-10,-2,-1
1532640441400,-23,-6,-22,-2,14,14,4,-7
1532640441405,-3,-8,15,11,1,-3,-3,1
1532640441410,7,0,6,2,4,0,0,-5
1532640441415,8,4,11,-1,-1,-13,4,4
1532640441420,-1,-8,-12,-20,-21,-4,-6,2
1532640441425,-10,-1,-16,-9,11,7,0,0
1532640441430,-5,0,0,-3,-26,-29,-4,-13
1532640441435,-1,1,1,0,-1,35,1,8
1532640441440,-1,2,5,-1,-28,11,2,2
1532640441445,-25,-20,-12,-6,4,11,-3,-7
1532640441450,7,0,3,2,2,18,3,4
1532640441455,-3,-6,-3,-1,22,-11,-11,-6
1532640441460,-1,-9,9,5,4,-5,0,-10
1532640441465,9,9,-8,-6,-9,-19,2,2
1532640441470,-7,13,2,-14,1,-18,0,-8
1532640441475,7,27,3,-9,-21,-25,-5,4
1532640441480,1,-53,-14,16,8,-18,2,1
1532640441485,-6,6,4,6,5,-29,1,-3
1532640441490,-3,4,-3,15,0,-7,3,5
1532640441495,6,-2,10,5,-12,0,-2,-11
1532640441500,7,23,3,-15,1,-5,-4,2
1532640441505,-10,-69,-10,-8,-6,0,-6,-5
1532640441510,1,8,-20,-5,0,20,2,-2
1532640441515,-14,-21,-1,9,0,-8,-4,1
1532640441520,6,7,9,5,5,15,4,1
1532640441525,-13,12,-12,-11,-9,-15,-5,-18
1532640441530,15,-4,6,0,6,5,-1,3
1532640441535,24,13,14,7,-3,13,2,9
1532640441540,-30,-19,-7,-15,-5,10,-3,-5
1532640441545,13,11,0,-4,-28,19,0,5
1532640441550,-4,7,22,-4,19,33,-3,-13
1532640441555,9,-7,9,8,5,19,6,5
1532640441560,-2,3,-21,-5,2,7,-2,-6
1532640441565,12,3,1,7,3,12,0,7
1532640441570,-6,4,-1,-6,-11,-21,-3,3
1532640441575,-12,-13,-13,-3,8,-9,1,-9
1532640441580,3,11,16,-2,0,-11,-4,6
1532640441585,-8,3,-5,-5,4,-21,1,-7
1532640441590,-1,6,5,9,4,-12,-2,-2
1532640441595,-12,-14,-10,-1,14,-21,-2,-4
1532640441600,1,-1,-21,1,-5,-4,3,2
1532640441605,12,31,4,4,2,0,-3,1
1532640441610,-11,-13,10,3,1,-10,-1,-10
1532640441615,-10,-20,-1,-7,-6,3,0,4
1532640441620,17,5,14,0,3,-13,1,-2
1532640441625,-23,38,-25,-2,1,2,-6,-6
1532640441630,-10,-51,6,-5,-7,-2,-3,-2
1532640441635,-2,-8,-25,-1,1,-65,-3,-2
1532640441640,5,10,10,6,1,-115,0,4
1532640441645,5,-11,8,2,10,-23,3,0
1532640441650,6,9,-7,5,0,-91,-7,-4
1532640441655,-8,2,1,-5,4,118,5,1
1532640441660,7,-9,22,-8,-3,114,0,1
1532640441665,2,4,-21,-5,-5,127,3,-1
1532640441670,8,18,-9,-1,-3,69,-2,-1
1532640441675,-4,-9,3,8,0,-116,0,3
1532640441680,-2,-6,-4,-4,-13,-34,-4,-7
1532640441685,5,1,11,3,6,-104,-3,4
1532640441690,-27,8,-11,-5,2,71,3,-4
1532640441695,-1,-13,-5,-7,-10,-3,-8,-8
1532640441700,-18,6,-10,-3,-2,6,1,12
1532640441705,-4,5,5,-7,-3,-62,-5,-7
1532640441710,3,-13,0,4,13,62,1,9
1532640441715,-11,16,2,-7,-20,113,7,-6
1532640441720,-1,11,13,7,4,127,-1,-11
1532640441725,-5,-24,6,7,-1,67,0,3
1532640441730,11,-4,-3,-1,3,-112,3,6
1532640441735,-11,50,29,0,5,-24,-2,-3
1532640441740,18,-23,-28,-3,3,-49,-4,-6
1532640441745,-16,10,11,-2,3,6,-2,-4
1532640441750,5,-26,-18,-9,-22,-37,-3,-3
1532640441755,3,3,3,0,20,-110,-4,-1
1532640441760,-4,11,0,3,-3,-104,-9,-9
1532640441765,15,6,5,2,-2,95,4,7
1532640441770,0,1,9,-2,-1,127,3,-2
1532640441775,5,-14,-8,1,0,125,4,4
1532640441780,-8,8,0,-3,-28,44,3,0
1532640441785,-6,-30,-4,2,16,-18,-1,4
1532640441790,8,22,1,0,5,-10,-2,-2
1532640441795,15,12,1,3,0,-23,-2,-1
1532640441800,-8,-10,-15,-4,-2,-104,-4,-5
1532640441805,8,1,-1,-3,-6,-114,0,2
1532640441810,-3,8,1,-4,-18,-14,0,-7
1532640441815,2,-36,8,3,51,3,-1,0
1532640441820,4,46,1,-6,16,32,-2,-1
1532640441825,0,14,0,5,-2,-10,0,0
1532640441830,-8,-2,-1,4,6,-41,-3,-3
1532640441835,9,9,-6,-1,-15,106,2,0
1532640441840,-27,-16,7,3,-12,118,7,9
1532640441845,-2,-18,3,-11,-1,120,0,-17
1532640441850,0,8,-3,-6,2,85,-2,-8
1532640441855,1,3,-2,7,0,-3,-2,-1
1532640441860,21,7,8,3,-10,-42,0,3
1532640441865,-28,-12,-1,0,0,-27,-5,6
1532640441870,-4,-10,-14,-5,15,-78,-12,-10
1532640441875,-4,-7,-13,-3,-16,-74,1,-1
1532640441880,5,-3,6,9,23,-42,-2,-5
1532640441885,20,21,32,6,-17,-59,5,11
1532640441890,-8,-26,-25,2,-16,-51,-5,-10
1532640441895,-2,-8,-12,-9,0,-48,-1,-1
1532640441900,12,19,29,8,-7,-23,-2,-2
1532640441905,-10,-38,-21,-11,-12,-24,-3,-5
1532640441910,3,10,-1,-2,2,-24,4,8
1532640441915,-11,4,-13,4,-16,-14,2,-1
1532640441920,8,-18,6,3,9,-9,-1,7
1532640441925,-20,-9,-5,-2,1,-14,-3,-8
1532640441930,5,7,8,2,0,-10,-1,0
1532640441935,-10,-23,-5,-5,-6,-14,-3,-5
1532640441940,3,18,-16,-5,3,-11,2,0
1532640441945,7,1,4,4,8,-2,3,1
1532640441950,3,1,-1,1,-2,-16,0,5
1532640441955,-12,2,21,2,-3,-57,-1,-8
1532640441960,-6,-23,0,-7,0,-80,-5,-3
1532640441965,13,-2,-39,-2,-4,47,-2,2
1532640441970,-17,-2,8,8,7,102,1,-9
1532640441975,8,16,18,3,0,115,2,4
1532640441980,-7,3,0,9,6,106,5,2
1532640441985,-12,21,3,-6,1,-7,0,-6
1532640441990,16,-5,11,0,-2,-16,1,10
1532640441995,-14,-8,-31,-5,-3,-5,-8,-9
1532640442000,-5,11,-2,5,4,-21,-1,1
1532640442005,10,4,14,0,0,-23,1,3
1532640442010,-7,10,-12,-8,-4,-25,-2,2
1532640442015,10,10,16,0,8,-29,1,1
1532640442020,-8,-27,-5,-6,2,5,5,-6
1532640442025,9,-20,-5,10,-6,-38,-13,-6
1532640442030,-1,0,-7,3,0,-7,-3,1
1532640442035,7,-3,-6,-1,-6,-13,4,1
1532640442040,2,5,-6,-6,0,-36,-8,-4
1532640442045,-6,8,-2,-5,-1,12,5,6
1532640442050,-3,-9,-2,-5,-1,-109,-5,-12
1532640442055,25,41,17,-2,-4,-123,-4,12
1532640442060,-45,-44,-27,-10,14,-9,-8,-27
1532640442065,7,1,6,-1,6,42,1,-9
1532640442070,5,9,1,-3,-9,67,4,11
1532640442075,-3,-15,1,-3,-11,123,1,-2
1532640442080,2,-11,6,2,0,112,3,7
1532640442085,2,18,0,-8,-4,105,-1,-13
1532640442090,3,-1,1,-2,6,57,3,2
1532640442095,-15,-33,-14,-6,-5,-1,-6,-4
1532640442100,11,20,2,-1,-5,6,6,5
1532640442105,3,-3,-2,6,21,-58,-5,0
1532640442110,6,7,5,2,-9,-48,-2,-5
1532640442115,1,6,-4,5,0,-39,1,2
1532640442120,4,5,0,-6,-5,-29,-4,-2
1532640442125,-4,-4,5,4,-2,-38,1,-8
1532640442130,-1,2,0,0,2,-19,2,0
1532640442135,-1,-11,2,2,3,12,-2,-1
1532640442140,4,2,6,1,-3,-27,-6,-5
1532640442145,5,19,-18,-9,-17,-22,2,5
1532640442150,-29,-14,-9,-3,-4,-128,-4,-4
1532640442155,-5,-14,-10,-8,-10,-39,-1,-2
1532640442160,7,3,5,-5,14,-68,-4,-9
1532640442165,-3,8,5,-6,10,20,1,-7
1532640442170,12,-6,-27,-2,8,108,1,-1
1532640442175,2,-4,29,6,7,116,0,-4
1532640442180,4,9,9,-8,-9,127,3,2
1532640442185,-7,-10,-3,-7,-1,95,-3,-8
1532640442190,5,2,-8,-11,-1,42,-1,0
1532640442195,-12,-6,-9,-9,0,22,-1,1
1532640442200,2,5,2,-6,-9,-15,1,0
1532640442205,0,-2,5,-3,-6,-31,-3,-2
1532640442210,-1,17,-5,9,-15,-40,-2,-7
1532640442215,15,0,-2,2,5,-37,-1,10
1532640442220,1,12,6,0,-9,-33,-3,-11
1532640442225,-1,-21,-21,1,1,-35,-2,-1
1532640442230,1,11,18,0,-1,-22,0,5
1532640442235,-2,-8,-6,-1,4,-22,-4,-4
1532640442240,-18,-8,-13,-2,-4,-18,-1,0
1532640442245,-14,3,6,2,-1,-12,1,-3
1532640442250,11,8,1,11,-3,-18,-1,0
1532640442255,11,-6,7,-3,1,-7,2,7
1532640442260,-24,-23,-9,3,-5,-2,1,-7
1532640442265,13,37,44,2,-2,-3,-6,-8
1532640442270,-2,-51,-34,-13,-4,-7,-5,-7
1532640442275,-22,-9,-2,-1,2,-10,5,-5
1532640442280,24,3,-14,-13,-2,1,-1,0
1532640442285,-2,29,3,-7,-2,-8,2,8
1532640442290,9,-16,6,-10,0,-26,-3,3
1532640442295,-3,9,3,-18,-3,-25,1,-5
1532640442300,-25,-11,5,-4,-3,-70,-4,1
1532640442305,-7,-17,-29,-6,0,-122,-7,-5
1532640442310,5,16,20,-24,-2,91,5,4
1532640442315,0,-28,-4,-8,4,102,9,7
1532640442320,2,8,10,13,-1,127,-1,0
1532640442325,14,16,-14,19,-4,109,1,-2
1532640442330,0,9,0,-5,-3,21,0,1
1532640442335,3,3,6,0,2,-7,-6,0
1532640442340,-3,15,2,7,0,5,0,5
1532640442345,-21,-22,-12,16,0,-106,-3,-5
1532640442350,-3,7,6,15,-5,-119,-1,1
1532640442355,-6,1,-7,15,14,-128,-11,-15
1532640442360,6,-13,-13,-11,-17,-128,-6,7
1532640442365,13,-2,-1,7,-1,106,5,-7
1532640442370,9,7,9,5,-4,112,6,5
1532640442375,14,17,0,5,-14,96,-7,0
1532640442380,-17,-32,-7,3,-1,85,-3,-14
1532640442385,15,6,-2,-10,14,45,0,6
1532640442390,-6,-6,6,-7,0,5,5,2
1532640442395,-15,-4,-12,-13,-4,-78,-7,-9
1532640442400,4,-15,-1,-13,8,-43,4,3
1532640442405,-1,4,2,-19,-7,95,3,3
1532640442410,-2,16,2,5,6,91,-3,-5
1532640442415,-5,-11,-1,4,18,75,5,4
1532640442420,2,16,-1,13,-1,-80,1,-1
1532640442425,-5,-16,-1,6,-15,-105,1,2
1532640442430,10,6,8,16,3,-27,2,12
1532640442435,-10,10,-4,9,-2,-6,-2,5
1532640442440,6,-13,-8,-13,-5,-16,-9,-24
1532640442445,3,4,-10,0,3,-30,2,0
1532640442450,-16,-13,-1,0,7,-37,0,4
1532640442455,12,14,11,11,-15,14,6,2
1532640442460,11,1,20,7,25,61,1,5
1532640442465,-8,0,-18,0,0,61,-8,3
1532640442470,-6,-5,-2,-11,3,15,-3,-20
1532640442475,2,-5,-5,-4,6,-5,5,4
1532640442480,6,1,-1,-4,-6,9,0,9
1532640442485,4,-9,3,-11,-9,13,-5,-12
1532640442490,-2,9,-15,-12,-15,36,-1,0
1532640442495,3,-16,21,0,-2,9,-3,-9
1532640442500,2,15,-28,2,-7,59,-4,5
1532640442505,-18,-31,7,9,4,-113,-4,-4
1532640442510,4,-3,9,2,-2,63,4,5
1532640442515,0,-14,-6,-6,-2,71,6,-1
1532640442520,18,15,18,11,-5,104,9,12
1532640442525,-17,14,6,-1,7,119,-6,-7
1532640442530,2,2,-1,-1,-4,-7,-3,-5
1532640442535,-5,-8,-14,-6,12,-21,-4,-1
1532640442540,2,4,2,-7,4,-45,1,-3
1532640442545,12,4,-12,-7,-4,-75,1,2
1532640442550,0,1,22,1,-2,-124,-3,-2
1532640442555,9,23,-35,1,-6,-107,-1,3
1532640442560,-27,-22,0,-4,-5,-68,-1,-8
1532640442565,19,7,9,-11,-2,46,1,5
1532640442570,-42,-24,-25,-5,1,78,-8,-22
1532640442575,11,5,21,-1,-5,78,2,-1
1532640442580,14,10,3,2,0,87,3,1
1532640442585,-11,-3,-9,-8,-3,-20,-6,-6
1532640442590,8,5,7,3,-3,-71,-1,6
1532640442595,4,-4,-9,2,-5,-64,1,2
1532640442600,-33,-18,-3,-3,-6,-40,-2,3
1532640442605,6,11,6,-2,-1,-11,0,-2
1532640442610,15,17,-4,5,-3,-58,-1,-5
1532640442615,-4,5,20,7,6,-23,0,-1
1532640442620,4,-11,-11,-3,1,26,2,2
1532640442625,-1,-4,-7,-9,-8,36,2,1
1532640442630,-3,-4,-7,-1,16,14,-2,-2
1532640442635,-8,-4,9,3,2,-2,0,4
1532640442640,-10,23,12,4,-11,-56,-5,-12
1532640442645,13,-1,-1,5,-4,-42,-3,5
1532640442650,-4,-9,1,-5,-3,31,2,-8
1532640442655,-9,-8,-10,-8,-8,107,2,-5
1532640442660,2,-1,-1,-4,11,102,6,1
1532640442665,-4,-6,7,1,-3,73,-5,-7
1532640442670,1,7,1,5,15,44,0,5
1532640442675,-3,-7,-4,3,-3,24,-3,7
1532640442680,0,2,-6,-15,-12,-56,-12,-15
1532640442685,-6,-2,-1,-4,12,-41,1,-2
1532640442690,1,2,3,0,-2,-85,-4,3
1532640442695,0,-6,-1,-2,3,-21,-2,-15
1532640442700,5,-2,-2,3,2,-25,-1,-3
1532640442705,-2,-4,-7,3,0,-22,-2,-7
1532640442710,8,-2,-2,6,-7,-111,-3,-5
1532640442715,-5,3,-1,-1,-1,-48,6,3
1532640442720,12,10,6,-4,4,-84,-10,7
1532640442725,17,-1,6,1,-4,-1,3,6
1532640442730,33,3,2,-21,-1,70,1,-3
1532640442735,-38,-8,-6,-13,-13,84,1,-5
1532640442740,10,9,-6,-12,3,79,-2,-5
1532640442745,-12,-8,-5,6,-2,23,-1,-2
1532640442750,7,9,6,20,-6,-6,4,16
1532640442755,10,2,-3,15,-2,-26,-1,-3
1532640442760,-11,-5,13,13,1,-6,0,-6
1532640442765,0,-14,-17,1,2,-8,7,-3
1532640442770,10,34,13,7,-7,35,-5,4
1532640442775,-21,-21,-7,2,1,3,1,10
1532640442780,15,2,5,0,-2,13,-4,1
1532640442785,11,5,-11,-7,6,-6,-3,-10
1532640442790,3,-5,-6,-5,-1,-11,6,11
1532640442795,-5,5,10,2,1,-8,-11,-2
1532640442800,-31,30,55,8,5,-9,8,1
1532640442805,-19,-56,-40,0,-7,18,11,14
1532640442810,-54,-6,-19,-4,9,-9,-17,-30
1532640442815,46,-19,-15,-1,1,-40,-11,-5
1532640442820,0,6,-5,-2,-10,-3,4,4
1532640442825,-61,13,8,-4,-2,5,2,-11
1532640442830,-26,-1,7,1,2,0,11,19
1532640442835,67,14,-2,-4,-1,8,4,4
1532640442840,15,-1,10,2,0,12,2,-5
1532640442845,-3,-15,-9,-7,0,14,-1,-15
1532640442850,-27,-14,-1,3,0,-10,2,-7
1532640442855,23,-16,-2,-8,-4,20,2,1
1532640442860,-3,-4,0,1,4,65,1,-1
1532640442865,1,36,17,3,-1,12,5,20
1532640442870,0,-23,-30,-4,5,16,4,-10
1532640442875,7,14,15,7,-4,42,0,7
1532640442880,10,-8,5,2,6,28,-4,-1
1532640442885,-32,5,-4,4,-5,45,-2,-7
1532640442890,10,10,11,-3,0,32,2,4
1532640442895,0,-13,-25,-7,2,-20,-6,-9
1532640442900,6,8,-5,-9,-3,-60,5,2
1532640442905,-6,5,-1,1,1,-126,-7,-4
1532640442910,3,-6,9,5,-3,-30,0,7
1532640442915,-1,-10,7,0,10,81,5,-2
1532640442920,-20,1,-15,-7,-18,-6,-10,-17
1532640442925,-6,-4,-2,-7,-11,-12,-2,-3
1532640442930,19,2,-5,3,3,-29,1,0
1532640442935,-11,2,11,5,-2,-121,-3,-4
1532640442940,4,23,-4,4,-6,-118,-3,-8
1532640442945,-46,-19,3,-6,-1,-63,1,-11
1532640442950,7,-2,-6,0,5,5,3,13
1532640442955,-21,-1,0,-1,-3,31,0,-1
1532640442960,-3,-18,-2,-5,0,40,-2,-20
1532640442965,7,14,4,0,-2,67,2,5
1532640442970,0,-3,2,0,0,65,-7,-4
1532640442975,-2,-7,-4,-5,2,26,0,11
1532640442980,-25,-21,-12,-6,-7,24,13,-7
1532640442985,37,17,8,3,6,46,-11,-29
1532640442990,-13,-9,2,-1,-2,19,-3,-7
1532640442995,22,10,-4,1,-2,-5,5,24
1532640443000,3,-5,-5,0,0,14,-7,4
1532640443005,17,-8,-2,1,5,23,6,22
1532640443010,8,14,1,1,2,1,1,-7
1532640443015,1,11,4,-1,-3,-12,-2,-12
1532640443020,-9,-6,-1,-2,2,12,-8,-27
1532640443025,27,8,-2,1,2,0,-1,12
1532640443030,25,1,-5,-4,-2,-7,2,-1
1532640443035,21,4,20,1,-6,3,0,-3
1532640443040,-43,-14,-27,-1,-4,2,-5,-10
1532640443045,-52,21,11,6,14,-6,2,-9
1532640443050,30,-4,0,-2,-5,2,10,16
1532640443055,3,8,-3,6,12,-4,-2,-9
1532640443060,7,-19,11,3,1,6,5,8
1532640443065,-4,-2,-5,-2,-6,-5,2,7
1532640443070,-26,-18,-11,0,-2,4,2,-10
1532640443075,20,18,2,-2,0,-7,-1,14
1532640443080,-14,-13,3,2,-2,3,2,3
1532640443085,9,1,-6,-5,-1,0,-7,-13
1532640443090,-31,-10,2,-8,0,-3,6,1
1532640443095,-5,-13,-8,-4,-9,-13,-6,2
1532640443100,45,-10,5,2,-6,-2,0,3
1532640443105,-13,17,8,-2,-8,-7,-3,1
1532640443110,-6,7,-4,3,19,7,-9,-9
1532640443115,-21,-20,-14,-4,5,6,9,-5
1532640443120,9,17,12,-8,2,-3,-6,-3
1532640443125,29,-40,-11,14,23,3,6,-3
1532640443130,-55,9,-3,-4,-8,67,-8,-7
1532640443135,17,-15,-4,-4,-8,114,2,-4
1532640443140,-2,8,10,-1,-1,127,7,3
1532640443145,17,-2,-13,-3,-3,90,3,10
1532640443150,-24,15,-5,0,-13,-12,-14,-14
1532640443155,-45,-35,-9,-4,-2,-64,-9,-16
1532640443160,2,5,6,5,4,-88,-1,7
1532640443165,-7,1,-11,-4,-8,-98,-5,-3
1532640443170,10,-8,1,1,-4,-100,3,12
1532640443175,3,27,5,-1,-2,-96,-2,-4
1532640443180,0,-19,-23,-6,-3,-61,-3,-3
1532640443185,-14,1,5,3,-2,-95,-13,-3
1532640443190,12,0,3,-3,-3,-70,-2,-10
1532640443195,4,-1,-1,-1,-3,-49,-4,-2
1532640443200,13,7,4,4,4,-44,3,8
1532640443205,-17,2,4,-4,-5,-23,-1,-7
1532640443210,6,-4,0,0,2,-15,0,-1
1532640443215,5,9,1,2,-1,-28,-5,-3
1532640443220,-1,2,-6,0,-1,-16,7,9
1532640443225,-7,-3,-3,-9,-8,-3,-1,-7
1532640443230,4,-4,-2,2,10,-6,-1,4
1532640443235,-1,11,2,-1,-4,6,-2,4
1532640443240,3,3,1,-5,-2,2,1,-9
1532640443245,-1,1,-2,-4,4,1,-5,-4
1532640443250,11,10,7,2,-12,-10,-2,5
1532640443255,-21,-14,-2,-3,-14,3,0,-5
1532640443260,5,-2,-1,5,2,3,4,7
1532640443265,-1,-6,2,2,7,1,-1,-4
1532640443270,-4,-7,2,0,-1,-2,0,1
1532640443275,1,-4,-1,-3,-3,4,1,1
1532640443280,2,4,2,4,6,6,-1,-1
1532640443285,0,8,4,1,-1,-9,-1,-2
1532640443290,-3,-6,-4,1,3,4,-2,-5
1532640443295,3,1,4,-3,-1,-2,2,1
1532640443300,1,-1,-2,-4,1,0,0,-2
1532640443305,-5,8,-11,-8,-7,-7,-4,-18
1532640443310,-7,-4,-7,-3,0,-8,0,7
1532640443315,6,8,10,3,0,-3,-3,-6
1532640443320,6,-13,-4,-5,-6,-5,1,5
1532640443325,6,-4,-3,-3,-2,0,-6,-11
1532640443330,7,4,-2,-2,0,-2,2,-3
1532640443335,-19,-2,13,2,5,0,3,9
1532640443340,3,8,-5,-5,-2,-6,-4,1
1532640443345,-3,-9,1,3,1,0,4,13
1532640443350,4,14,0,-3,1,0,2,4
1532640443355,6,-21,4,8,12,2,5,11
1532640443360,4,-1,0,-2,-5,-1,-2,-2
1532640443365,-9,-1,-4,7,3,3,-4,1
1532640443370,24,22,3,-3,-23,-4,-2,-1
1532640443375,-12,17,-10,6,-1,7,3,-8
1532640443380,6,-12,7,-1,-1,4,0,5
1532640443385,-6,-10,-4,-7,-1,1,-2,-5
1532640443390,-1,13,32,0,-4,-1,2,7
1532640443395,19,17,1,-3,1,2,2,-5
1532640443400,-47,-49,-7,6,1,2,-8,-29
1532640443405,-5,-16,-31,-9,-8,6,-6,3
1532640443410,14,13,34,3,9,0,-6,-14
1532640443415,-14,-38,-37,-3,-3,5,-4,0
1532640443420,14,6,10,1,3,0,0,5
1532640443425,11,0,6,-9,-3,5,3,-7
1532640443430,-28,-15,-18,-2,2,-1,-3,-12
1532640443435,18,11,19,8,5,2,2,-2
1532640443440,-1,10,8,2,-3,4,2,7
1532640443445,-5,5,1,4,-2,-1,2,9
1532640443450,4,-5,-13,-5,7,-6,-5,-12
1532640443455,-4,2,-6,-4,-8,5,-6,-10
1532640443460,5,-7,-19,-6,-1,-10,-7,-6
1532640443465,6,17,18,9,3,2,2,2
1532640443470,-3,-19,-7,-1,-3,-9,2,6
1532640443475,6,-2,-11,-15,-10,-40,-4,2
1532640443480,6,23,18,7,7,-24,1,-4
1532640443485,-15,-13,-11,0,2,-98,-2,-5
1532640443490,-14,2,4,8,8,-32,-1,-7
1532640443495,-4,-11,-4,-3,7,94,0,-3
1532640443500,5,10,-5,-4,-6,119,3,7
1532640443505,18,10,3,-2,-2,112,4,2
1532640443510,-38,-27,-11,-7,1,38,-2,-6
1532640443515,0,19,12,-1,3,11,10,-2
1532640443520,6,-15,-8,-6,-1,-15,-1,-1
1532640443525,1,19,32,0,-6,-30,-4,5
1532640443530,6,-14,-41,-5,-18,-26,-6,0
1532640443535,10,-8,3,4,11,-19,-7,-5
1532640443540,-13,7,-4,2,3,-28,4,4
1532640443545,-1,-13,6,2,5,-38,0,-6
1532640443550,32,31,10,5,0,-24,3,6
1532640443555,-1,16,0,-2,-15,4,-6,3
1532640443560,-6,-11,-3,-1,3,29,-3,0
1532640443565,15,9,-11,-4,-9,55,3,8
1532640443570,-5,-2,5,5,17,23,1,-1
1532640443575,-1,2,0,-2,-2,-23,1,4
1532640443580,13,36,6,3,-3,-21,-4,-5
1532640443585,3,-30,6,1,5,-6,2,-2
1532640443590,-16,21,-4,-6,-11,6,-6,-5
1532640443595,-5,-4,-3,-1,-4,-17,1,-5
1532640443600,-12,-14,-5,-5,-5,-45,1,-1
1532640443605,2,11,-10,0,-1,-55,-1,-1
1532640443610,8,-1,5,-1,-4,-29,3,4
1532640443615,-11,-3,4,-2,3,-108,-3,-9
1532640443620,-8,8,-5,1,-4,-125,-5,-2
1532640443625,0,9,0,0,-1,-5,-4,-9
1532640443630,36,-10,15,3,7,90,4,3
1532640443635,-48,-15,-7,-5,-7,127,-1,-7
1532640443640,6,-8,1,-5,-8,127,0,-3
1532640443645,-26,-9,1,6,-8,65,1,0
1532640443650,8,-2,-9,-1,2,39,-1,6
1532640443655,32,8,2,-2,-5,3,1,1
1532640443660,22,0,-1,4,11,-30,3,8
1532640443665,-29,16,2,-12,-14,-14,-5,-19
1532640443670,-12,-42,-22,3,2,-30,-5,-3
1532640443675,15,0,5,4,1,-44,-1,-1
1532640443680,5,0,5,1,-6,-30,1,1
1532640443685,13,6,10,-2,4,-11,3,13
1532640443690,-28,-8,-1,-7,-1,-18,2,-19
1532640443695,-4,2,-25,-7,-14,-26,-9,-4
1532640443700,-12,-16,-8,-2,7,1,-4,-6
1532640443705,-3,-7,-9,3,3,3,2,6
1532640443710,-8,13,22,4,0,-23,2,2
1532640443715,10,5,12,17,20,-4,5,19
1532640443720,11,15,14,0,-5,-1,-2,-24
1532640443725,-13,-39,-17,-12,-6,-9,-12,-5
1532640443730,-14,-2,2,2,8,-6,-1,-1
1532640443735,8,2,0,0,-5,-8,-4,-1
1532640443740,6,-1,-6,-7,0,8,5,6
1532640443745,1,17,-1,9,6,-1,-4,-1
1532640443750,4,33,28,-1,-15,-1,1,1
1532640443755,-27,-14,-40,0,9,5,-1,-10
1532640443760,-2,21,13,6,8,-8,-5,-8
1532640443765,7,-5,-6,-2,-3,-1,3,8
1532640443770,2,0,-22,-11,-7,0,-1,1
1532640443775,-9,17,37,4,3,2,2,-5
1532640443780,-13,-11,-16,-5,-4,1,2,0
1532640443785,5,10,9,5,6,5,2,-7
1532640443790,-5,-16,1,2,8,0,-2,1
1532640443795,12,4,0,-11,-17,1,3,5
1532640443800,14,18,5,4,-1,-1,-1,2
1532640443805,-14,-9,-10,-7,7,4,-5,-10
1532640443810,-20,-38,-10,-6,-3,-7,1,3
1532640443815,41,-17,-5,-5,-4,-1,-2,2
1532640443820,-4,16,-1,1,-4,2,-1,2
1532640443825,-4,-24,-14,5,2,-1,4,2
1532640443830,-3,23,-4,-6,-6,-4,-2,1
1532640443835,-11,-4,-11,-8,-1,0,-12,-15
1532640443840,4,-2,-3,-1,4,2,2,5
1532640443845,-3,-16,13,0,0,1,-1,-5
1532640443850,4,35,-7,-6,0,0,-2,-14
1532640443855,-8,-10,5,12,1,2,1,10
1532640443860,9,15,10,0,-2,-3,-3,-10
1532640443865,4,7,-5,-4,-2,0,0,-1
1532640443870,-3,-26,1,6,-4,-1,3,5
1532640443875,1,6,16,-6,-1,1,-5,-10
1532640443880,-9,-3,-22,4,6,-1,-4,-1
1532640443885,13,5,6,-2,-6,5,1,4
1532640443890,-5,17,-4,6,11,-9,-2,-3
1532640443895,-12,-35,-9,-4,3,-55,3,12
1532640443900,-12,-33,5,-4,-9,18,3,7
1532640443905,0,23,3,-1,-6,18,-4,-9
1532640443910,-8,-25,1,0,-9,10,-1,0
1532640443915,5,8,1,-2,-1,12,-3,-5
1532640443920,7,-1,-3,-4,-5,76,-1,-1
1532640443925,10,5,4,-5,-13,74,3,0
1532640443930,-8,16,2,2,18,80,9,5
1532640443935,-2,-34,-3,1,1,57,-4,-5
1532640443940,8,0,-5,-3,-7,59,-2,-4
1532640443945,-8,-13,-1,-5,5,62,-2,-5
1532640443950,-5,11,9,0,-15,38,2,0
1532640443955,7,-4,4,5,0,52,2,-2
1532640443960,-1,-10,-8,1,14,33,0,-1
1532640443965,1,13,7,0,-10,20,-1,-1
1532640443970,6,-8,-7,-4,0,20,-4,-9
1532640443975,8,10,1,3,13,26,5,22
1532640443980,-5,9,-5,1,4,13,-5,-25
1532640443985,-9,-7,0,7,0,-3,-2,-10
1532640443990,-3,-2,-4,-1,-5,-5,0,6
1532640443995,1,7,-4,-2,-4,-11,-2,-1
1532640444000,-3,-5,0,-5,0,-24,-3,-8
1532640444005,5,6,-3,-1,1,4,2,-2
1532640444010,13,-13,-4,-4,-4,-39,-4,8
1532640444015,-13,27,7,-4,0,-12,-1,-6
1532640444020,-12,-13,-3,-1,-10,-12,-3,2
1532640444025,-13,-22,-8,1,-4,-20,-5,-8
1532640444030,-13,-16,2,-1,-1,-4,1,8
1532640444035,-5,-15,-6,-2,-1,-1,0,-3
1532640444040,3,28,13,9,-1,-43,-9,-6
1532640444045,-1,-6,-11,5,-4,-114,3,-9
1532640444050,12,24,30,2,15,-82,-2,1
1532640444055,-11,-45,-34,0,-7,28,2,1
1532640444060,9,0,0,-12,-2,117,11,5
1532640444065,24,13,11,1,2,127,5,15
1532640444070,-3,-21,10,3,3,127,-4,-20
1532640444075,2,25,7,-4,-1,41,-5,-12
1532640444080,1,-1,9,6,10,-2,-3,-6
1532640444085,-1,9,-14,-18,-11,-36,-2,1
1532640444090,2,-8,-23,-2,-5,-65,0,1
1532640444095,5,18,20,10,3,-72,-1,-4
1532640444100,-4,-21,-15,-3,-7,-73,-1,11
1532640444105,1,18,7,-7,-4,-83,-4,-1
1532640444110,-5,1,-27,1,-7,-43,-3,-12
1532640444115,2,0,-5,-2,4,-46,1,0
1532640444120,8,13,0,-1,-2,-46,-3,1
1532640444125,-8,-23,10,3,4,-24,0,3
1532640444130,-5,-18,-5,-2,-1,-15,-6,-12
1532640444135,4,10,3,4,2,-22,0,-3
1532640444140,6,-16,-1,-1,-1,-30,2,3
1532640444145,-16,1,-12,1,1,-10,-4,-4
1532640444150,-5,16,42,3,-6,-10,0,-1
1532640444155,-8,-36,-36,-2,-3,-28,-7,-7
1532640444160,34,43,17,-4,1,-12,6,11
1532640444165,-50,-78,-30,-3,-10,-10,-1,-9
1532640444170,5,9,5,-4,7,-8,1,6
1532640444175,-1,24,29,-4,1,-9,4,0
1532640444180,-6,-43,-35,0,2,0,-3,4
1532640444185,24,47,6,6,-6,-15,-5,-2
1532640444190,-5,1,-1,-3,-6,-18,-2,-1
1532640444195,2,-4,-8,1,1,2,-3,-2
1532640444200,-11,-14,-2,-1,-1,-6,0,-4
1532640444205,3,7,7,-3,1,-25,-2,-4
1532640444210,7,8,-12,2,-4,19,4,1
1532640444215,-20,-54,-10,-7,0,-11,-8,-6
1532640444220,-4,15,11,3,-1,-1,4,4
1532640444225,1,21,-2,1,7,1,4,13
1532640444230,2,15,-2,-6,-6,-25,-9,-3
1532640444235,12,-6,-4,-6,-2,2,2,2
1532640444240,-1,-2,3,2,11,3,1,5
1532640444245,-19,-7,14,5,1,7,2,-15
1532640444250,21,45,7,5,-6,6,4,1
1532640444255,-12,1,5,2,9,3,-4,-9
1532640444260,-11,-22,-5,-4,-4,-3,-2,0
1532640444265,21,13,-1,-2,7,27,5,10
1532640444270,-16,3,10,-1,-2,-19,-6,-14
1532640444275,1,-23,-20,-5,-9,-14,-4,-16
1532640444280,6,14,8,2,-1,34,7,5
1532640444285,0,-3,1,1,-1,-7,-5,-2
1532640444290,-4,-13,-4,-6,-4,1,-1,1
1532640444295,9,15,4,2,2,5,4,10
1532640444300,-20,-17,-2,-3,-3,-22,-3,-8
1532640444305,23,33,0,-2,1,11,-3,-3
1532640444310,-7,-22,-13,-2,0,19,2,1
1532640444315,5,18,7,2,-2,-3,2,3
1532640444320,-5,-3,2,0,-8,3,3,5
1532640444325,-4,-10,-6,-5,-7,-3,-10,-12
1532640444330,-13,-17,-7,2,1,4,-1,-8
1532640444335,3,6,3,1,3,5,1,3
1532640444340,-10,0,3,-2,2,-7,-1,-4
1532640444345,-5,-15,-14,-3,-2,-1,-5,-5
1532640444350,5,8,-6,-5,-5,4,-3,1
1532640444355,-7,1,-5,-3,0,1,1,-4
1532640444360,7,10,12,8,2,-3,-1,6
1532640444365,23,26,31,2,3,1,4,4
1532640444370,-14,-80,-40,-10,-3,4,0,2
1532640444375,-21,21,-4,2,29,0,-7,-14
1532640444380,4,2,-10,-3,-16,4,0,-12
1532640444385,3,2,16,11,23,5,4,8
1532640444390,6,12,5,10,10,6,3,8
1532640444395,1,1,11,1,-14,-9,-1,-4
1532640444400,-9,-15,1,-5,-2,1,-6,-3
1532640444405,2,2,-30,-11,-23,9,-4,-5
1532640444410,-13,-7,5,10,-1,-5,1,-2
1532640444415,13,-3,14,20,7,-24,-2,11
1532640444420,2,-4,1,-3,-4,-2,1,-4
1532640444425,5,31,20,-1,2,-7,-3,-10
1532640444430,3,-37,-43,-8,2,-1,1,3
1532640444435,-10,2,12,5,-14,9,-2,-5
1532640444440,3,-4,-8,-4,-3,-2,-2,2
1532640444445,7,-9,3,5,-5,-2,1,-2
1532640444450,-4,10,-3,-9,6,3,-2,-1
1532640444455,4,20,-3,-4,-12,6,0,-5
1532640444460,11,-4,-6,-3,21,2,0,11
1532640444465,-9,15,3,-18,4,1,0,-5
1532640444470,-4,23,-7,-7,-11,-1,-6,-14
1532640444475,6,-9,12,-5,11,7,5,7
1532640444480,-5,9,4,-5,-20,-13,-6,-4
1532640444485,2,-4,-22,4,18,9,8,7
1532640444490,6,7,9,7,-13,10,5,6
1532640444495,-15,-4,2,0,-4,-9,-6,-3
1532640444500,3,6,-2,3,-5,-12,0,-7
1532640444505,-11,-26,-1,-2,10,-7,0,13
1532640444510,4,15,16,-7,-5,-4,-6,-18
1532640444515,13,-13,-16,-6,-2,8,3,3
1532640444520,-6,10,-2,3,6,-1,-2,-5
1532640444525,1,-5,2,1,-11,-2,-3,2
1532640444530,-11,-5,5,-4,6,-2,0,2
1532640444535,7,2,10,-9,-13,-6,2,11
1532640444540,-1,-13,-8,6,4,1,-3,-14
1532640444545,-17,3,10,1,-13,-5,-3,-9
1532640444550,2,-18,-16,5,-1,-2,-1,-4
1532640444555,3,19,41,0,-1,1,0,-2
1532640444560,-5,-47,-44,1,-1,1,1,7
1532640444565,-2,3,21,5,1,0,0,-3
1532640444570,4,3,-1,6,3,-4,1,0
1532640444575,-13,-6,-4,-10,-2,-1,-3,-3
1532640444580,0,15,5,-7,-2,-23,-2,0
1532640444585,5,-3,-13,2,0,-29,-1,0
1532640444590,4,-12,16,-13,3,-29,2,2
1532640444595,-14,14,-30,-11,-5,-27,-5,-11
1532640444600,-6,12,12,-16,1,2,2,1
1532640444605,-19,-9,-14,-15,-3,8,4,-2
1532640444610,11,9,7,11,12,18,-7,2
1532640444615,17,28,-10,5,-5,21,1,-2
1532640444620,-2,-21,12,24,-1,30,1,-4
1532640444625,4,2,7,14,-8,10,6,6
1532640444630,-4,21,31,10,2,8,-7,6
1532640444635,-4,-66,-46,6,6,13,0,-6
1532640444640,-2,11,-1,2,7,17,4,0
1532640444645,21,19,3,-2,3,3,-9,-7
1532640444650,-9,-12,0,-6,-10,-26,-2,4
1532640444655,1,13,5,-6,-5,-46,-2,8
1532640444660,1,11,10,-5,-2,-40,-5,-7
1532640444665,0,-10,-12,-4,-6,1,6,-6
1532640444670,5,-17,-3,-5,-5,-33,-8,-8
1532640444675,-10,-4,6,-3,-4,3,-3,-2
1532640444680,-13,-12,-8,-10,-2,-38,-4,-4
1532640444685,7,6,-6,-7,-12,-94,-1,1
1532640444690,-4,4,-2,7,23,-84,5,5
1532640444695,5,10,-2,0,10,92,0,-12
1532640444700,3,3,9,-2,0,127,-2,1
1532640444705,6,6,1,1,-4,127,-4,-2
1532640444710,-7,0,-2,-1,-7,86,5,3
1532640444715,-4,-2,1,-3,3,-11,-4,0
1532640444720,-4,0,-12,-2,2,-27,-3,-2
1532640444725,-6,-13,-2,-1,15,5,6,-2
1532640444730,-4,3,-8,-6,-7,-10,-2,6
1532640444735,5,1,6,-1,2,-21,6,3
1532640444740,-5,-1,-2,-2,-15,-43,-7,-6
1532640444745,18,0,15,13,8,-37,2,5
1532640444750,-25,-20,-22,-9,-14,7,-2,-9
1532640444755,2,6,-5,-1,27,-44,-10,-11
1532640444760,19,13,-3,-5,-7,-23,4,6
1532640444765,-17,-12,-1,-3,-8,-12,-4,6
1532640444770,15,15,13,-5,-1,1,2,0
1532640444775,-9,-29,-24,9,-11,-13,1,-6
1532640444780,-7,-6,-3,3,3,-7,-3,-8
1532640444785,-15,5,5,0,3,-113,-9,1
1532640444790,9,-16,-20,0,-2,-111,1,8
1532640444795,3,9,19,1,-2,93,8,-3
1532640444800,5,8,4,-1,4,104,2,-1
1532640444805,4,-13,-6,-6,-1,127,0,-16
1532640444810,9,16,6,-5,3,91,1,-4
1532640444815,1,10,7,9,14,-20,2,6
1532640444820,-4,-10,-6,-2,-31,-59,-5,-3
1532640444825,11,-7,3,14,17,-11,2,3
1532640444830,-12,8,-3,2,-12,-14,0,-3
1532640444835,6,0,3,-4,-18,-27,-3,-2
1532640444840,-4,8,10,2,21,-15,1,-6
1532640444845,-5,-22,-22,-10,-4,-73,-5,-15
1532640444850,0,4,4,2,4,-100,1,-1
1532640444855,-3,-2,12,3,-5,-114,-3,-8
1532640444860,9,35,8,-9,-3,69,3,-2
1532640444865,-9,-33,-16,-5,-8,112,-2,-1
1532640444870,1,3,13,5,16,127,3,-4
1532640444875,3,0,-9,-12,-17,65,-6,10
1532640444880,5,4,-4,-1,10,-23,-1,4
1532640444885,6,25,27,7,-18,-8,0,1
1532640444890,-19,-20,-38,-3,7,11,2,-2
1532640444895,7,-1,4,5,1,-27,-4,2
1532640444900,-25,-24,-6,12,-27,-41,3,-7
1532640444905,0,12,0,-4,6,-30,-2,3
1532640444910,6,4,17,-5,1,-14,5,10
1532640444915,-4,-2,-7,-23,-20,-15,-3,-23
1532640444920,-4,-6,-7,-5,21,-13,-3,8
1532640444925,6,20,1,4,1,-19,-3,-11
1532640444930,3,-21,-3,-5,-14,-3,-3,-9
1532640444935,8,25,-7,5,6,7,-2,6
1532640444940,-13,-34,-11,10,10,14,-1,-8
1532640444945,-1,-3,18,2,-2,-36,-2,13
1532640444950,6,13,-8,-1,2,-4,-6,-5
1532640444955,-9,-14,0,7,-8,11,4,4
1532640444960,8,12,10,-3,0,-62,1,2
1532640444965,-3,4,-22,-5,0,-110,0,6
1532640444970,-16,-11,4,-7,-13,-110,-1,-6
1532640444975,1,15,10,1,24,-104,-5,-4
1532640444980,12,3,0,0,4,61,4,2
1532640444985,2,0,5,-6,-7,119,2,-6
1532640444990,2,13,8,3,5,127,7,10
1532640444995,-6,-5,-1,-2,-5,127,3,-4
1532640445000,-6,-8,-10,-3,0,41,-4,-4
1532640445005,6,9,1,-6,-8,23,0,-10
1532640445010,3,-2,-10,0,-2,-34,-4,1
1532640445015,1,-3,2,12,2,-9,5,6
1532640445020,9,14,7,21,9,-13,-4,-3
1532640445025,-18,-33,-10,2,2,-12,-2,-3
1532640445030,-4,13,4,-3,-3,-22,-1,-3
1532640445035,5,-1,-6,-5,3,0,2,-1
1532640445040,4,24,28,13,0,23,3,4
1532640445045,-1,-48,-33,2,-3,-25,-12,-1
1532640445050,8,21,8,-4,-8,-51,1,3
1532640445055,-23,-51,-23,-18,0,7,-12,-10
1532640445060,-7,18,5,-14,-14,-21,-6,3
1532640445065,0,17,7,6,-3,13,3,3
1532640445070,4,-13,4,-8,-4,-1,-4,6
1532640445075,2,9,-12,5,6,-2,2,-1
1532640445080,0,0,9,3,1,-40,-3,-8
1532640445085,15,0,5,-4,4,1,2,2
1532640445090,-6,-7,10,2,14,6,2,-3
1532640445095,7,30,-9,-4,-9,-5,-2,-3
1532640445100,-1,-29,-8,-1,-1,10,-1,-5
1532640445105,-7,13,14,5,-3,11,5,3
1532640445110,2,-14,-8,-10,-19,-13,-10,-16
1532640445115,-14,7,-3,-2,14,4,0,-5
1532640445120,3,-10,-6,1,2,6,6,0
1532640445125,8,25,6,2,1,0,2,1
1532640445130,0,-17,-4,-5,2,11,-1,-2
1532640445135,-4,9,4,1,-7,-13,-3,-1
1532640445140,-11,-4,-10,-2,-1,-24,-4,-2
1532640445145,-1,4,-10,-4,-1,-113,-5,11
1532640445150,-1,17,7,1,1,-104,-1,-5
1532640445155,2,-19,-10,-4,-3,-98,-2,2
1532640445160,-3,-2,-4,-1,6,-85,-1,-5
1532640445165,0,-1,2,-8,-18,51,1,2
1532640445170,9,4,-5,0,1,58,2,3
1532640445175,8,-4,7,5,6,86,3,-4
1532640445180,-2,24,7,-3,-1,80,1,7
1532640445185,-4,-16,-6,-5,-9,106,-2,-8
1532640445190,0,-5,-1,-1,-10,62,-2,3
1532640445195,-3,0,-3,2,-9,-75,-4,-6
1532640445200,0,-2,8,-1,0,105,8,2
1532640445205,10,5,0,1,0,93,-1,-4
1532640445210,4,3,6,5,7,127,7,3
1532640445215,-2,-21,-1,-13,-22,91,0,2
1532640445220,-3,24,-11,8,-3,7,-7,-8
1532640445225,-4,-16,3,5,7,-15,4,-3
1532640445230,-5,9,-5,2,5,-57,-2,-3
1532640445235,7,-4,4,-1,-6,-34,0,5
1532640445240,-25,-39,-2,-13,-3,-60,0,-2
1532640445245,18,25,-24,-13,-18,-46,-11,-11
1532640445250,2,8,8,22,8,-73,3,2
1532640445255,1,5,16,9,2,-36,1,14
1532640445260,-10,-15,1,0,4,-11,3,-16
1532640445265,-3,-9,5,-3,5,-61,0,0
1532640445270,-14,2,-11,-16,-3,-47,-4,-7
1532640445275,-1,7,-7,9,11,-2,5,2
1532640445280,7,8,12,4,0,-19,-3,6
1532640445285,-5,-11,2,-3,-1,-34,-2,-7
1532640445290,-3,-12,-8,-8,-1,-25,-1,-6
1532640445295,-4,5,3,-11,-25,5,1,-3
1532640445300,5,0,-9,-7,-3,-9,1,2
1532640445305,5,24,7,14,27,-10,-1,-2
1532640445310,2,-12,4,0,3,1,-3,5
1532640445315,-7,0,2,-6,-5,-2,1,-6
1532640445320,-4,-18,-14,-8,-1,-9,-5,-3
1532640445325,-3,4,-6,0,-5,-5,-2,-1
1532640445330,0,8,7,12,12,-3,8,0
1532640445335,-1,-6,4,5,8,5,-1,-3
1532640445340,8,8,-1,-6,-1,-3,-2,4
1532640445345,-5,-15,-5,-1,-12,6,0,1
1532640445350,2,2,-7,-4,-4,-8,-8,-3
1532640445355,-9,-3,-18,-4,-7,3,2,-9
1532640445360,8,5,10,8,34,7,7,2
1532640445365,-6,-7,12,8,-6,-9,-4,-2
1532640445370,-7,-13,-9,-13,-17,-5,0,-15
1532640445375,3,6,3,0,7,-2,-7,-5
1532640445380,5,11,-7,0,-2,0,1,1
1532640445385,-6,12,6,4,2,-2,0,-2
1532640445390,-10,-19,4,5,-3,-3,-1,-2
1532640445395,-1,0,6,-3,8,8,0,4
1532640445400,-3,6,-21,-22,-30,-2,-8,-14
1532640445405,-2,-11,-1,3,0,-4,2,8
1532640445410,2,7,7,-13,-34,3,-1,-11
1532640445415,-1,8,-22,6,27,2,-2,-2
1532640445420,1,-3,33,19,3,2,6,3
1532640445425,1,-7,-1,-3,9,2,3,7
1532640445430,2,16,-8,-5,-17,-6,-5,6
1532640445435,2,-7,2,-7,-8,1,-2,3
1532640445440,4,3,-2,-1,-16,-2,1,4
1532640445445,-5,-5,-16,-1,6,4,4,2
1532640445450,-6,-5,11,12,14,0,1,-2
1532640445455,1,0,6,-4,-4,0,-1,-4
1532640445460,-7,4,-11,-3,1,-9,-2,-6
1532640445465,14,17,5,-1,-9,3,0,-1
1532640445470,-8,-43,-15,-5,5,-2,-4,-3
1532640445475,-9,2,-7,-4,-2,0,-6,-3
1532640445480,-4,-10,-7,1,2,5,-2,-4
1532640445485,3,1,5,-4,-3,-1,-4,1
1532640445490,7,7,1,-6,6,-1,1,3
1532640445495,0,-10,-15,8,3,4,2,3
1532640445500,12,6,28,7,-14,3,0,4
1532640445505,-25,20,-10,-6,12,-4,-6,-9
1532640445510,-7,-8,-4,-6,8,3,-1,5
1532640445515,1,-33,-1,-10,0,-2,-7,-7
1532640445520,4,24,2,6,2,3,5,7
1532640445525,-8,-53,-5,-4,-11,-2,-2,-6
1532640445530,7,40,1,5,1,3,-1,1
1532640445535,-10,10,8,-4,-3,-3,-3,-4
1532640445540,10,11,-16,3,9,8,-1,2
1532640445545,1,-2,6,2,-1,-21,-1,-8
1532640445550,1,1,10,5,3,9,-1,5
1532640445555,5,-4,4,3,-2,-12,0,-7
1532640445560,1,-9,3,-4,2,4,1,-3
1532640445565,-5,0,-16,-5,-10,-2,-6,-2
1532640445570,-8,-16,-3,-2,-23,-5,0,-4
1532640445575,14,36,4,16,16,0,1,1
1532640445580,-10,-40,-2,1,3,4,-2,0
1532640445585,9,1,-1,-3,3,8,6,4
1532640445590,-3,-14,-2,-7,-6,-10,-1,-8
1532640445595,5,32,0,-5,-10,14,0,-11
1532640445600,7,24,-3,-1,4,-17,-1,-1
1532640445605,-5,-32,-6,0,-4,-93,-4,-6
1532640445610,-1,6,-7,3,7,-94,-2,4
1532640445615,-8,-26,5,0,-3,-86,3,4
1532640445620,-5,18,-13,-7,5,-123,-6,-8
1532640445625,16,-4,5,-3,-21,-46,-3,2
1532640445630,0,2,19,5,21,-62,9,6
1532640445635,7,5,-26,-2,-2,-5,-8,-5
1532640445640,3,-9,18,0,-6,106,5,5
1532640445645,-3,5,10,-1,4,127,4,-1
1532640445650,2,-3,-2,-4,-9,127,-1,-9
1532640445655,-9,-14,6,-5,11,103,0,-2
1532640445660,1,2,-2,6,15,57,-3,-4
1532640445665,0,15,7,4,4,3,2,4
1532640445670,9,3,-1,2,13,9,2,2
1532640445675,-10,0,-2,-1,-10,-29,-3,-6
1532640445680,-3,-8,-8,-7,-16,-47,-4,-5
1532640445685,-5,-17,-1,2,-10,-25,3,2
1532640445690,3,8,0,6,-1,-35,-3,3
1532640445695,-6,-16,-1,1,7,-34,-2,-2
1532640445700,-7,9,-2,-5,-2,-40,-1,-3
1532640445705,10,27,-8,0,-1,-38,-1,-3
1532640445710,-4,-13,-10,-7,-9,-28,-4,0
1532640445715,-3,-8,4,10,-3,-117,-1,3
1532640445720,-10,-3,2,3,1,-121,-6,-7
1532640445725,6,10,7,2,18,-14,5,1
1532640445730,-2,2,1,1,-3,90,1,1
1532640445735,3,0,11,-4,-2,127,6,7
1532640445740,-5,-22,-12,-9,5,126,-4,0
1532640445745,-5,2,-2,1,-5,52,0,-7
1532640445750,1,-4,-4,-4,5,26,-1,-3
1532640445755,4,22,-4,4,5,-62,0,-3
1532640445760,-7,-36,-2,-2,-12,38,-1,-3
1532640445765,2,5,-2,-5,-16,40,-2,-4
1532640445770,-8,-19,-1,3,19,5,1,1
1532640445775,14,27,6,-3,-23,2,0,4
1532640445780,4,32,-9,-4,-1,-36,-4,-5
1532640445785,0,0,7,-1,9,-30,-4,-2
1532640445790,-21,2,-8,4,3,-29,-4,-11
1532640445795,1,-13,5,-6,-2,-31,2,3
1532640445800,-9,-7,26,4,6,-34,-2,-4
1532640445805,4,4,-24,3,0,-24,-1,-2
1532640445810,-5,-5,-5,-2,15,-124,-4,5
1532640445815,4,-5,2,-9,6,49,-7,-4
1532640445820,-3,-32,-32,-4,1,73,2,2
1532640445825,1,16,30,7,2,49,3,0
1532640445830,7,10,-2,-12,-11,42,-2,-2
1532640445835,-4,-12,-1,-10,7,8,2,-3
1532640445840,6,3,-1,-10,-7,-17,-1,8
1532640445845,-11,-11,-4,-5,1,4,4,-12
1532640445850,6,9,1,-1,-9,-11,-4,4
1532640445855,-5,-16,-7,-7,-10,-15,-1,-6
1532640445860,2,2,5,6,-10,-27,-2,-2
1532640445865,-6,5,6,1,8,-20,-1,1
1532640445870,1,-3,-12,4,-25,1,1,3
1532640445875,11,27,9,10,12,-7,-3,3
1532640445880,0,-36,-1,11,-2,-9,1,-1
1532640445885,-11,-10,-13,-1,-11,-53,-4,-6
1532640445890,-1,10,0,1,5,-103,-3,-8
1532640445895,-3,-25,-1,-2,-6,93,4,5
1532640445900,-2,10,9,4,7,77,8,2
1532640445905,17,12,2,-2,-2,85,-7,-2
1532640445910,9,-14,-14,1,2,55,1,3
1532640445915,-13,1,9,1,-5,-19,-4,-21
1532640445920,-1,3,-5,-11,-1,-17,-1,-7
1532640445925,-2,-3,-6,4,6,-13,2,7
1532640445930,2,7,3,-1,-8,2,0,-7
1532640445935,2,-2,-8,2,7,-26,0,4
1532640445940,1,-4,2,-5,2,-8,-3,-2
1532640445945,5,11,-13,-7,-3,-22,-2,-2
1532640445950,0,9,5,2,-3,7,0,1
1532640445955,-5,-5,0,2,-3,-2,-1,5
1532640445960,-10,4,-7,-7,-7,-26,-5,-7
