1532627680156,7,-13,-29,0,5,8,6,-5
1532627680161,1,10,18,-2,-2,4,-2,4
1532627680166,-5,-3,-9,1,-1,-13,-4,0
1532627680171,1,1,2,-8,-3,29,1,-7
1532627680176,-6,-3,-7,1,-1,2,-2,2
1532627680181,-6,-3,4,0,7,-7,-5,2
1532627680186,24,5,11,-4,-4,17,7,9
1532627680191,-3,-5,-13,4,0,-9,-5,-9
1532627680196,-4,4,12,0,-2,-7,-1,-4
1532627680201,-1,-4,-16,0,-4,-8,-3,-6
1532627680206,-8,4,4,-1,1,29,0,2
1532627680211,-1,-4,-6,1,4,33,3,-2
1532627680216,5,-1,5,-4,-7,-16,-10,-1
1532627680221,3,1,-11,1,0,-19,9,5
1532627680226,-9,-5,9,4,3,32,3,-6
1532627680231,7,12,-30,-2,-1,-30,3,6
1532627680236,-9,1,21,-6,-4,5,-11,-1
1532627680241,3,-6,-19,3,0,4,-5,-8
1532627680246,-8,-2,11,0,-1,-26,1,7
1532627680251,1,-7,39,-6,-8,34,-2,-3
1532627680256,1,2,-42,-2,6,5,3,-3
1532627680261,2,-1,-11,-6,-8,-7,-6,-4
1532627680266,-1,2,10,4,-1,7,7,3
1532627680271,2,-2,14,4,2,-26,1,3
1532627680276,-5,-4,0,-3,-2,-11,-5,-14
1532627680281,4,-1,7,-6,-5,7,-4,-2
1532627680286,-4,-1,-7,1,2,-33,-5,5
1532627680291,-2,-3,-14,-1,-6,-13,2,-3
1532627680296,-1,3,8,1,3,-14,0,5
1532627680301,-1,-3,-12,-3,-3,-6,-4,-8
1532627680306,-4,-9,31,3,0,-3,1,-4
1532627680311,-2,-2,-46,-8,-5,-49,-4,8
1532627680316,1,-1,11,-2,0,28,2,-21
1532627680321,1,0,9,2,0,-23,-1,17
1532627680326,-2,-2,2,-1,-2,68,6,1
1532627680331,0,5,33,2,3,-5,-5,-8
1532627680336,0,1,-23,3,-4,-13,0,5
1532627680341,-4,-17,-23,-5,1,15,-9,-29
1532627680346,3,17,-1,4,0,1,10,27
1532627680351,-1,1,-5,2,5,-11,2,0
1532627680356,-1,-1,11,-4,-2,4,-4,-6
1532627680361,-12,1,-12,-1,-1,1,5,9
1532627680366,14,1,-10,-1,-1,-9,-7,-8
1532627680371,9,-8,5,-1,-5,-23,-1,5
1532627680376,-17,-3,4,-6,-5,-10,-1,-10
1532627680381,4,-2,13,-2,2,50,-7,-5
1532627680386,-8,-3,-24,-5,10,25,3,-8
1532627680391,0,-3,3,3,-4,-16,-2,18
1532627680396,4,-4,29,3,-4,-32,-1,-2
1532627680401,6,7,-11,0,4,35,12,4
1532627680406,-1,-4,-30,-2,-8,-22,-7,-7
1532627680411,-5,-2,-3,-1,0,16,-4,-22
1532627680416,-2,-1,-6,6,9,-6,3,9
1532627680421,2,2,16,1,-5,-16,2,8
1532627680426,2,3,10,-3,-2,-9,-6,-6
1532627680431,-5,-3,-25,1,1,13,3,2
1532627680436,4,3,5,2,-1,49,3,4
1532627680441,1,5,20,3,2,-6,1,-10
1532627680446,-6,-9,-19,-8,-3,-10,-7,-3
1532627680451,0,-1,2,-3,2,15,-2,0
1532627680456,0,-1,1,0,-1,-8,0,0
1532627680461,3,2,-4,2,-4,-15,-6,-3
1532627680466,-5,2,8,0,-3,11,0,2
1532627680471,-2,-2,-4,-5,-3,-15,0,-5
1532627680476,2,0,-4,-3,-1,-6,-7,5
1532627680481,0,-1,-3,-3,-4,-5,3,3
1532627680486,-4,-1,2,4,-3,-38,-10,-5
1532627680491,-2,-1,0,-3,7,61,9,2
1532627680496,0,1,-5,7,0,2,1,2
1532627680501,3,-1,-1,2,3,-13,-1,7
1532627680506,-4,-1,3,-2,0,-4,-4,-8
1532627680511,-3,4,2,-3,-4,-11,-7,-8
1532627680516,2,-1,-2,-1,-1,-4,-9,-1
1532627680521,-1,-2,-5,-6,-5,-2,2,3
1532627680526,2,-1,1,1,-4,21,10,12
1532627680531,-2,-1,-2,5,8,-15,-6,-27
1532627680536,-3,-2,-2,0,-4,-11,1,14
1532627680541,3,1,3,6,6,1,5,4
1532627680546,-1,-2,-3,-6,-5,13,-2,-18
1532627680551,0,0,-1,-1,-4,-24,-7,24
1532627680556,1,0,2,-3,9,25,12,-13
1532627680561,-3,-1,-5,-5,0,1,-9,-3
1532627680566,0,-1,2,5,1,-3,6,4
1532627680571,-1,3,23,-5,-9,-19,-9,-7
1532627680576,0,0,-46,1,1,20,2,2
1532627680581,11,-2,22,-1,0,-6,-4,-6
1532627680586,-2,-1,-22,-5,-3,-15,-3,-3
1532627680591,3,-8,-14,6,11,20,12,7
1532627680596,5,11,31,0,-2,-11,6,6
1532627680601,-13,-4,-28,1,2,3,-1,-6
1532627680606,3,-1,10,2,-2,-21,-11,1
1532627680611,5,6,32,0,-6,-18,11,1
1532627680616,-3,-1,-42,2,6,40,0,-1
1532627680621,-3,1,8,-1,-3,-5,0,-9
1532627680626,-5,-4,9,-2,-1,-11,-2,0
1532627680631,-1,1,-10,-3,-6,4,-5,-3
1532627680636,3,-5,20,0,-2,-46,-2,3
1532627680641,1,2,16,5,5,15,6,2
1532627680646,0,3,-18,-4,5,20,2,2
1532627680651,-5,-5,-16,-2,-5,3,-1,-10
1532627680656,-5,-3,7,-1,-7,-20,-11,-11
1532627680661,0,-5,-7,-1,-4,-1,1,9
1532627680666,-1,1,9,2,3,8,11,11
1532627680671,-1,-1,-6,0,2,-8,-11,0
1532627680676,0,-3,6,2,-3,-11,3,-9
1532627680681,-3,0,-3,0,8,5,0,-7
1532627680686,-1,1,6,-4,-5,7,4,0
1532627680691,-3,0,-4,4,-3,-2,-2,4
1532627680696,-4,-5,-2,-6,-4,-1,-4,-7
1532627680701,-2,-2,-5,-6,-3,10,-4,-2
1532627680706,1,1,1,-1,-1,0,-2,-5
1532627680711,-1,-1,-1,3,-1,-8,-10,22
1532627680716,-1,0,2,-5,2,-4,-15,-6
1532627680721,-2,-2,-6,-3,-10,-5,-23,-10
1532627680726,-1,-4,-2,0,0,-8,-15,-5
1532627680731,-2,-2,-3,-2,-3,-3,-8,-3
1532627680736,0,2,6,2,4,11,0,-3
1532627680741,-1,-1,25,4,0,-14,-6,3
1532627680746,-2,-4,-43,-3,-1,30,9,2
1532627680751,2,4,7,8,6,9,34,4
1532627680756,-1,-4,-2,-8,-2,14,21,2
1532627680761,1,-1,17,-2,3,7,17,-2
1532627680766,-16,3,-13,7,0,-13,15,3
1532627680771,10,6,-20,-5,-2,-2,10,-14
1532627680776,-2,-1,6,-2,-8,-12,-3,1
1532627680781,2,2,-9,7,7,18,20,9
1532627680786,-4,-2,21,-10,-4,-9,-2,7
1532627680791,-2,-2,-1,-4,-4,-3,-3,9
1532627680796,-1,-2,-6,4,7,-19,-26,-10
1532627680801,0,-3,-6,-3,-1,12,3,8
1532627680806,2,0,11,3,1,-1,-16,-19
1532627680811,-6,1,2,-1,2,7,-11,3
1532627680816,6,1,5,2,-5,-5,-7,9
1532627680821,-1,-2,-11,0,-3,-9,-5,0
1532627680826,2,-3,21,-3,6,4,-3,-5
1532627680831,-5,-6,-35,-9,-7,-21,-9,-5
1532627680836,-3,-1,2,2,0,50,2,-1
1532627680841,-1,1,-3,-1,0,12,10,2
1532627680846,2,-2,10,2,-4,-4,9,0
1532627680851,-1,-4,17,-4,-1,-8,-3,-9
1532627680856,0,-10,-26,-1,1,-7,7,18
1532627680861,-2,-1,-9,-3,2,-21,-14,-8
1532627680866,1,-7,-16,-8,-6,-3,-5,6
1532627680871,-1,2,34,7,6,35,2,-4
1532627680876,-1,2,-12,-3,-1,-13,2,-4
1532627680881,-5,-6,9,-4,-7,0,2,-1
1532627680886,8,0,13,4,3,1,10,4
1532627680891,-4,-8,-16,-2,4,1,-7,-1
1532627680896,-13,3,17,-8,-8,4,1,-5
1532627680901,12,-1,-9,3,-1,-16,-6,-8
1532627680906,2,3,-1,-1,1,-2,0,11
1532627680911,-1,0,-3,1,-5,0,-5,-1
1532627680916,-3,-1,4,0,-1,-16,-7,5
1532627680921,-7,-1,0,-6,-1,-9,-5,-14
1532627680926,6,-2,-9,-2,-1,12,7,25
1532627680931,2,3,6,5,5,7,17,-2
1532627680936,-5,-1,5,0,0,23,-2,-1
1532627680941,-1,1,-11,-4,-7,-22,-8,-5
1532627680946,0,2,2,1,1,3,-12,-13
1532627680951,-2,-4,-7,-6,-4,2,9,10
1532627680956,1,-1,-13,1,1,-19,-5,1
1532627680961,5,7,5,-2,-4,-25,3,1
1532627680966,4,0,-10,5,8,54,-7,-4
1532627680971,-10,-11,-8,-8,-6,-16,-5,-11
1532627680976,4,17,34,1,0,-10,5,-2
1532627680981,-12,-18,-34,-2,-4,26,-10,-2
1532627680986,8,5,15,4,7,10,7,4
1532627680991,-22,7,-7,-1,3,1,-3,-11
1532627680996,2,-9,-8,-7,-6,-10,-5,14
1532627681001,3,14,1,5,7,7,-4,4
1532627681006,-7,-6,10,-3,-5,-22,-1,-18
1532627681011,9,-3,-2,0,-8,3,-3,20
1532627681016,3,-2,-2,2,0,0,8,-9
1532627681021,-4,-1,8,1,4,-24,-3,-2
1532627681026,-6,-4,-15,-9,-10,-11,-3,-1
1532627681031,3,-2,16,1,6,25,0,-15
1532627681036,-5,2,-17,1,-4,-18,-6,-1
1532627681041,18,-2,-1,0,-4,-4,-1,14
1532627681046,-1,-1,-5,3,13,52,17,-4
1532627681051,6,4,19,-2,-8,-30,-14,-6
1532627681056,-5,-9,7,2,2,9,3,-3
1532627681061,3,6,-24,0,2,1,1,2
1532627681066,-10,2,-2,-2,-5,-40,-6,-6
1532627681071,6,-4,47,-1,-2,-7,-2,1
1532627681076,-2,-9,-67,0,3,0,2,-10
1532627681081,-6,0,24,-1,1,6,5,4
1532627681086,-2,-1,-23,0,-5,-41,-4,1
1532627681091,10,5,30,-5,3,4,9,4
1532627681096,-5,-9,-34,0,-2,-7,-5,-10
1532627681101,-8,1,41,-4,-3,-4,0,-10
1532627681106,-3,-7,-33,4,2,14,3,14
1532627681111,-1,-1,-9,6,4,23,6,-5
1532627681116,4,3,25,-3,-2,-6,-1,4
1532627681121,-12,-6,-20,-8,-6,-10,-3,-12
1532627681126,-2,1,17,-1,-6,-27,-10,3
1532627681131,-2,1,-10,3,3,-4,-4,10
1532627681136,11,-5,-28,2,2,8,3,6
1532627681141,-13,-1,19,2,0,9,0,-12
1532627681146,-1,-5,12,-4,-1,7,-6,-2
1532627681151,4,6,-58,-8,-4,-5,-2,-1
1532627681156,-14,0,43,-2,-1,-17,-8,-4
1532627681161,-3,-3,-1,4,-2,19,-2,5
1532627681166,-5,0,9,2,-4,-3,-2,-4
1532627681171,2,1,-7,1,9,-1,3,2
1532627681176,6,1,19,-6,-4,9,0,-1
1532627681181,1,1,-18,-3,-3,-17,-1,0
1532627681186,1,-6,-6,3,1,-1,-7,5
1532627681191,-6,4,-6,-1,-7,0,2,-7
1532627681196,0,0,7,0,1,28,0,8
1532627681201,9,-2,-2,-3,-2,-6,-6,-6
1532627681206,-1,0,6,-3,0,1,9,-2
1532627681211,-4,5,6,2,-2,-2,-11,-4
1532627681216,15,0,-5,1,-2,-7,-1,-7
1532627681221,-8,1,1,0,6,5,3,7
1532627681226,5,1,10,1,-2,-16,-17,-3
1532627681231,-2,-2,-15,-10,-6,-15,8,2
1532627681236,-9,1,7,5,10,32,10,-6
1532627681241,3,-5,-4,-4,-6,-3,0,8
1532627681246,0,2,-12,-4,0,-11,1,-8
1532627681251,0,-1,10,3,0,8,-1,3
1532627681256,0,-1,5,1,-4,-12,-5,2
1532627681261,0,-1,10,1,7,-5,6,-8
1532627681266,-2,-7,-2,-1,1,11,3,1
1532627681271,1,2,-2,-3,-2,-13,-5,-1
1532627681276,-1,-7,-26,-3,-1,-2,1,-2
1532627681281,0,-1,1,-1,-4,-4,-1,-5
1532627681286,0,0,32,0,-4,-13,4,-3
1532627681291,-2,-7,-37,7,2,-8,-3,14
1532627681296,-8,3,12,-9,-2,-5,-3,-7
1532627681301,22,2,-9,1,1,-18,6,5
1532627681306,0,4,4,-6,1,43,4,-1
1532627681311,-3,-2,18,4,-3,-4,-4,-7
1532627681316,-2,-10,-19,3,0,-23,1,11
1532627681321,-19,-9,-14,-1,-1,2,-10,-7
1532627681326,-8,8,-9,-5,-4,-7,-4,-4
1532627681331,1,-3,11,-3,0,6,1,2
1532627681336,4,1,16,-1,-4,2,-6,-2
1532627681341,-1,-2,-4,4,1,-12,4,0
1532627681346,1,1,11,3,3,2,-1,0
1532627681351,-5,-2,-40,-4,0,-5,-8,-3
1532627681356,-1,1,27,-3,-4,32,-2,-1
1532627681361,0,-4,-34,2,-2,22,8,9
1532627681366,-2,3,24,-1,1,14,-2,-9
1532627681371,1,-5,0,-5,-3,0,-1,-16
1532627681376,-3,7,4,4,-1,-10,10,31
1532627681381,1,3,0,1,1,7,0,6
1532627681386,27,0,1,0,2,-16,-9,-2
1532627681391,-3,-7,4,-10,-4,-1,-1,-14
1532627681396,-3,7,3,4,-1,-28,-5,-8
1532627681401,2,0,12,-2,9,42,6,10
1532627681406,-12,-2,-22,2,-1,-12,0,1
1532627681411,-2,-2,19,3,3,-16,2,3
1532627681416,8,-3,-34,-5,0,45,2,-3
1532627681421,-1,-5,5,-1,-7,-12,-7,-1
1532627681426,-2,-5,18,-4,-2,-30,-2,-7
1532627681431,4,3,-19,2,4,36,5,8
1532627681436,-6,0,19,-1,-1,-16,1,-14
1532627681441,2,1,17,0,-5,-7,0,10
1532627681446,-6,-10,-47,-1,2,0,-8,-4
1532627681451,-5,3,17,2,-3,-1,2,-1
1532627681456,-12,-5,-2,-1,2,-6,2,-3
1532627681461,15,0,-2,0,2,11,2,-18
1532627681466,1,4,0,-1,-3,-12,-3,20
1532627681471,-3,-4,-2,2,6,27,5,1
1532627681476,-2,-1,-8,0,-3,-9,-8,-14
1532627681481,-10,-2,13,-14,-6,-3,-11,-6
1532627681486,-5,-2,-5,0,-2,-46,7,2
1532627681491,6,3,-17,-6,0,51,-6,7
1532627681496,-1,-14,6,0,-2,-14,3,-2
1532627681501,-4,11,-24,4,-3,1,4,4
1532627681506,1,10,-1,4,3,-2,-2,-7
1532627681511,-5,-1,21,-2,-6,-29,-11,-2
1532627681516,8,3,4,-3,2,-8,1,-3
1532627681521,0,-2,3,2,1,16,7,2
1532627681526,-4,-3,-8,-4,-4,13,1,-2
1532627681531,3,-2,-15,4,1,-9,-2,1
1532627681536,1,5,22,0,1,3,-5,4
1532627681541,-17,-11,-30,-8,-8,-15,-5,2
1532627681546,13,4,19,1,0,18,3,-6
1532627681551,3,-7,6,0,-4,-14,-8,-7
1532627681556,9,4,-8,5,2,-27,7,12
1532627681561,-18,-9,2,0,6,5,-7,-15
1532627681566,-9,8,25,-3,-3,34,9,15
1532627681571,0,-1,-51,-3,-4,-29,-6,5
1532627681576,1,1,-8,0,-3,1,3,-6
1532627681581,4,-1,3,-1,-4,-21,-6,-5
1532627681586,-3,-4,3,-3,0,4,3,-3
1532627681591,-8,-2,13,-3,-1,-3,4,-7
1532627681596,-3,0,2,-1,1,2,-5,13
1532627681601,4,3,3,3,0,6,-1,-2
1532627681606,1,-5,9,3,-3,-2,-5,-5
1532627681611,-2,-3,-13,4,3,-5,-3,-2
1532627681616,-3,-4,-22,-18,-10,-4,-7,-11
1532627681621,3,8,5,1,4,12,10,2
1532627681626,-14,-4,-8,0,3,-9,-4,-4
1532627681631,5,0,19,2,2,-14,3,2
1532627681636,-1,3,20,4,4,44,-1,-1
1532627681641,6,-3,-35,1,0,-11,-6,1
1532627681646,-7,-5,-3,-4,-7,-23,-7,0
1532627681651,-1,2,21,7,3,-14,9,0
1532627681656,6,7,-33,-5,-1,-8,-3,-2
1532627681661,-11,-10,20,-1,-2,4,-3,-1
1532627681666,11,-2,-31,0,-2,-2,4,4
1532627681671,-12,-3,6,-3,-7,-15,-13,-10
1532627681676,1,0,28,3,6,13,8,-9
1532627681681,7,1,-10,-4,0,-10,4,19
1532627681686,-1,-4,-12,-2,0,17,-3,-7
1532627681691,5,0,2,-5,-5,-1,-1,0
1532627681696,-9,-7,1,1,-3,21,3,-4
1532627681701,-2,9,4,-1,2,-21,-3,-13
1532627681706,-14,3,36,1,-2,4,1,7
1532627681711,5,-4,-40,-2,6,3,7,8
1532627681716,-9,-1,28,2,0,-5,-5,-5
1532627681721,5,-10,-17,0,-4,3,0,9
1532627681726,-2,4,-3,0,2,-1,1,-2
1532627681731,-3,1,24,-2,-4,2,0,-4
1532627681736,-1,-9,-14,0,1,-16,-3,2
1532627681741,-1,0,-15,-6,-3,3,-2,-2
1532627681746,5,-2,-8,1,0,6,3,7
1532627681751,4,-3,5,2,-2,9,6,1
1532627681756,-1,2,-13,2,8,-5,0,0
1532627681761,-2,1,25,-3,-7,6,-4,-5
1532627681766,2,-2,-13,0,2,-10,-5,-12
1532627681771,2,2,11,-1,-2,4,-6,1
1532627681776,3,-2,-27,-4,-12,-8,-1,-1
1532627681781,-1,2,3,5,2,-22,-3,-5
1532627681786,0,-4,-2,-8,9,9,4,1
1532627681791,-3,0,16,-1,-5,1,3,-1
1532627681796,0,3,-7,1,0,-1,-6,2
1532627681801,0,-2,8,2,0,-6,-3,0
1532627681806,3,-2,-8,0,-4,0,-5,-7
1532627681811,-4,1,-3,-4,3,23,3,2
1532627681816,0,-2,5,-1,-4,-36,-3,-1
1532627681821,2,0,-3,0,4,75,7,-6
1532627681826,1,-2,-4,-2,-7,-21,-11,15
1532627681831,-3,-1,11,-2,2,14,9,-3
1532627681836,1,3,-18,1,4,9,2,1
1532627681841,-2,-2,10,-2,-4,-36,-5,-6
1532627681846,-4,1,0,-2,1,17,1,-6
1532627681851,-7,-3,-12,-3,-7,-18,-12,-4
1532627681856,20,2,8,-4,-2,-1,-3,-2
1532627681861,-6,-2,4,2,1,1,3,-11
1532627681866,6,-2,-14,-3,-4,-18,3,19
1532627681871,-2,-1,18,3,-1,-10,-2,-6
1532627681876,-5,-2,-13,-4,5,10,2,4
1532627681881,0,-18,17,-3,-5,-15,-11,0
1532627681886,-8,22,-11,0,5,15,7,-8
1532627681891,2,-1,-12,0,0,17,6,4
1532627681896,-6,-2,10,-1,-6,-10,-8,-6
1532627681901,0,-4,1,0,2,-16,-2,3
1532627681906,1,-4,11,9,9,26,10,-7
1532627681911,2,-1,-11,-10,-8,-13,-3,12
1532627681916,-5,0,5,-1,-1,-16,-4,-14
1532627681921,2,6,-5,0,-5,-13,-1,12
1532627681926,-1,-7,2,0,-3,-4,-3,-8
1532627681931,-3,-1,-10,-2,3,-1,-5,-7
1532627681936,0,-5,4,0,-4,-7,3,4
1532627681941,0,4,-1,0,2,16,4,1
1532627681946,-5,-4,-4,-2,-3,-7,-6,-25
1532627681951,-11,-5,-2,0,-3,-11,-10,15
1532627681956,3,3,21,1,4,27,16,-3
1532627681961,3,4,3,4,6,9,2,15
1532627681966,-2,-7,-29,-5,-4,-3,-5,-7
1532627681971,-5,-1,-5,-4,-6,-72,-15,-17
1532627681976,2,2,8,4,11,94,17,25
1532627681981,-3,1,-7,-3,-5,1,4,-8
1532627681986,-1,-7,12,2,-6,-41,-6,4
1532627681991,8,3,10,-1,5,34,2,-8
1532627681996,-14,-8,-34,1,-2,-32,-7,-8
1532627682001,6,3,10,4,3,7,2,0
1532627682006,-5,-7,1,-13,-9,10,-5,-3
1532627682011,5,-1,-6,0,-4,-12,-2,4
1532627682016,3,0,11,-1,0,-17,0,9
1532627682021,-4,-1,-5,-5,0,15,-7,-17
1532627682026,3,0,1,6,-2,-22,-5,4
1532627682031,3,0,2,0,2,24,20,10
1532627682036,-4,-3,-4,-3,-6,-12,-11,-11
1532627682041,-4,-2,-7,-5,-3,-9,-8,-10
1532627682046,5,1,2,-6,-1,9,9,24
1532627682051,3,-1,-5,-5,1,5,5,-3
1532627682056,0,1,5,7,1,5,1,2
1532627682061,-3,-1,16,2,-4,-11,1,0
1532627682066,1,-2,-20,2,4,10,-11,-13
1532627682071,-4,1,3,2,-3,-3,-9,2
1532627682076,-3,-5,-4,-5,-9,-52,-8,-4
1532627682081,-4,0,11,7,12,61,17,3
1532627682086,24,6,-8,1,-1,-14,-2,0
1532627682091,5,-8,12,2,2,1,-2,-4
1532627682096,-10,2,-28,-7,-4,-24,-10,-7
1532627682101,0,9,19,-5,-8,-21,-4,8
1532627682106,-10,-12,-25,2,3,18,9,4
1532627682111,2,2,-8,5,3,2,7,2
1532627682116,8,-3,21,-2,3,-1,-5,-7
1532627682121,-1,-3,-12,-8,-10,-17,-6,-1
1532627682126,-11,3,9,-2,-2,17,0,-9
1532627682131,2,0,5,0,-1,-4,-8,0
1532627682136,-4,1,1,4,0,6,6,-1
1532627682141,6,-1,-16,-3,4,23,2,6
1532627682146,-2,0,19,2,-4,-13,-6,-10
1532627682151,-17,-7,-14,-6,-9,-17,3,2
1532627682156,4,0,14,-6,-5,17,-13,-5
1532627682161,-6,0,-10,3,5,-9,11,-17
1532627682166,7,-6,-14,-3,1,-12,-1,9
1532627682171,-12,-5,6,-1,-3,-25,4,9
1532627682176,8,8,-8,1,-2,10,6,3
1532627682181,10,-1,-12,-7,1,0,-14,-9
1532627682186,-12,-1,16,1,-4,-18,1,-2
1532627682191,8,6,3,4,-3,-20,-3,2
1532627682196,-5,-6,4,-5,-9,8,-2,5
1532627682201,-5,-14,-4,0,3,-23,-1,-4
1532627682206,3,6,-3,-1,4,23,4,3
1532627682211,-7,0,-2,2,8,12,0,-9
1532627682216,15,2,3,-1,1,5,-6,-3
1532627682221,4,-1,-4,2,-12,-17,5,12
1532627682226,-18,1,16,-2,6,41,-1,3
1532627682231,5,0,3,3,9,45,5,-3
1532627682236,-11,-4,-14,-4,-1,5,1,1
1532627682241,12,0,-9,0,-1,-15,-4,-5
1532627682246,-1,-4,9,-2,-4,-20,-3,-4
1532627682251,0,2,-1,-4,-11,-41,-4,-11
1532627682256,-5,0,-3,0,-4,-23,-2,-13
1532627682261,-21,-2,17,-5,-5,5,-10,17
1532627682266,39,3,-15,5,2,-3,19,4
1532627682271,0,0,-9,-11,18,49,-7,-5
1532627682276,8,-9,0,5,-1,1,5,5
1532627682281,1,2,7,1,2,-2,-8,-11
1532627682286,-11,-5,-1,-2,-10,-12,-3,-1
1532627682291,3,-1,-8,-1,-4,-8,-5,-2
1532627682296,16,4,4,6,9,3,13,2
1532627682301,-50,-1,-5,-2,-5,-31,-1,-4
1532627682306,59,-7,-2,-1,3,33,-3,16
1532627682311,11,4,-7,-7,-4,2,24,-2
1532627682316,-13,2,8,1,6,13,-25,0
1532627682321,-10,-4,-6,4,-3,-1,5,1
1532627682326,-21,3,3,-1,3,-14,-4,-18
1532627682331,-8,-4,1,-2,-5,-6,-8,-9
1532627682336,3,-3,-2,-1,-8,-32,8,12
1532627682341,1,0,-4,5,11,32,7,-8
1532627682346,-15,-1,-1,-5,-9,-17,-16,5
1532627682351,9,-1,2,0,4,30,14,-10
1532627682356,-11,-2,-3,-3,-1,-8,-9,8
1532627682361,14,0,-4,-3,-7,-17,-4,5
1532627682366,-11,0,3,1,-3,3,4,-13
1532627682371,-1,-3,-6,-4,-5,-2,-7,10
1532627682376,-7,-1,-1,-4,-3,-15,-9,-10
1532627682381,22,4,2,4,5,42,23,10
1532627682386,2,-2,-2,-5,-3,-13,-17,-1
1532627682391,-14,-2,0,3,4,31,12,2
1532627682396,-5,-3,-2,-2,-5,4,-4,-3
1532627682401,7,2,-2,-2,6,8,0,-5
1532627682406,-22,-4,2,6,4,-5,5,10
1532627682411,6,2,-2,0,-10,-19,-15,23
1532627682416,5,4,4,2,3,-38,5,-2
1532627682421,0,-1,-4,-4,-4,-35,-22,-9
1532627682426,-36,-5,9,-3,-2,21,15,-16
1532627682431,-13,-1,-16,-1,-6,-13,-17,-14
1532627682436,19,-2,6,2,3,-9,5,5
1532627682441,7,2,-19,-4,0,1,-3,4
1532627682446,-18,-6,3,-2,-4,-16,-17,-5
1532627682451,-4,3,7,0,-2,8,0,7
1532627682456,-6,-7,-8,0,-3,-4,-2,-7
1532627682461,-9,-10,-3,-4,-5,-4,-3,-4
1532627682466,17,11,0,0,5,-3,3,8
1532627682471,-18,2,4,1,1,-6,14,5
1532627682476,25,5,6,4,-3,-1,0,6
1532627682481,0,-3,2,1,8,18,-1,4
1532627682486,2,-4,-9,-8,-10,-11,-3,-1
1532627682491,-9,-3,-2,1,-2,-34,-21,-16
1532627682496,-7,-3,-3,1,8,39,22,3
1532627682501,-8,2,1,3,-4,-7,10,1
1532627682506,9,2,1,0,0,1,-3,-3
1532627682511,11,-1,-2,-2,1,-21,-7,0
1532627682516,5,-1,-3,-4,-1,9,7,1
1532627682521,-4,-1,0,-3,0,62,-1,0
1532627682526,-14,2,2,0,3,-4,13,-9
1532627682531,-16,-4,0,-1,-9,-7,-8,-7
1532627682536,17,-4,-4,10,24,60,9,11
1532627682541,-10,-4,0,-8,-7,-17,-14,-3
1532627682546,-6,-3,1,-6,-2,-38,4,9
1532627682551,-42,-6,-1,4,6,93,17,-5
1532627682556,34,10,1,-3,-11,-36,-12,-5
1532627682561,-8,0,-2,-1,-3,-24,-9,13
1532627682566,-15,-7,-4,4,6,21,2,-20
1532627682571,18,-2,-1,2,-3,-30,-4,1
1532627682576,-38,-4,-4,-9,-3,5,-3,-8
1532627682581,26,2,-1,-4,-3,5,2,10
1532627682586,10,3,0,-4,-9,-8,1,13
1532627682591,8,0,2,2,7,2,0,-13
1532627682596,-15,-1,-1,-5,-12,-26,-11,-15
1532627682601,9,2,2,2,2,29,9,1
1532627682606,3,-3,0,3,2,-31,3,11
1532627682611,12,0,-1,2,5,33,-5,-15
1532627682616,3,0,-1,-2,-4,-39,-4,4
1532627682621,-17,-1,0,-3,-7,-20,-2,-10
1532627682626,17,2,-3,-3,-2,-20,-16,-1
1532627682631,14,0,2,2,9,25,14,13
1532627682636,-25,-2,-1,2,-5,0,1,-8
1532627682641,8,-2,-1,-3,-1,10,-2,0
1532627682646,12,3,-4,-2,-2,18,-1,-10
1532627682651,15,2,-1,1,-8,-46,2,8
1532627682656,-3,0,0,2,11,53,3,0
1532627682661,4,-1,-1,-2,0,17,11,26
1532627682666,34,5,1,3,3,3,-8,-4
1532627682671,-3,-1,-1,-5,-4,-8,-10,-2
1532627682676,-17,-2,-3,-2,-4,-32,-9,-9
1532627682681,-1,1,2,6,7,-6,13,0
1532627682686,-2,0,1,3,0,36,6,8
1532627682691,-10,-2,1,4,11,28,4,-2
1532627682696,5,0,1,-6,-7,-19,2,4
1532627682701,-2,-2,0,4,-1,-35,-29,-16
1532627682706,-5,-3,-4,-10,-4,-13,4,0
1532627682711,3,3,-2,0,1,17,7,5
1532627682716,-12,-7,-1,-3,0,82,1,0
1532627682721,53,3,2,8,-1,-40,1,-8
1532627682726,-14,-1,-2,-1,-3,3,-13,-8
1532627682731,-11,-2,1,0,2,2,14,12
1532627682736,2,2,2,2,5,-2,3,-3
1532627682741,-20,-3,-1,-2,-6,-3,4,1
1532627682746,5,0,-1,2,6,27,-13,3
1532627682751,-3,-7,-5,-14,-4,-23,-12,-8
1532627682756,-16,0,0,-1,-10,-24,1,0
1532627682761,-10,2,2,4,9,49,3,-6
1532627682766,-6,1,0,0,-3,0,8,-2
1532627682771,-20,-3,-1,1,-2,-17,-11,1
1532627682776,26,2,-1,-2,-2,-25,-16,2
1532627682781,-7,0,0,-3,-1,37,39,-2
1532627682786,-13,-1,1,8,4,1,0,-1
1532627682791,10,-1,0,6,3,-10,-19,-1
1532627682796,2,-4,-8,-23,-14,-49,-31,-5
1532627682801,2,2,-1,0,-8,-18,21,-1
1532627682806,5,7,6,7,22,99,58,23
1532627682811,2,-2,-1,3,1,-15,0,0
1532627682816,19,0,0,9,8,3,0,-7
1532627682821,-16,-5,-8,-14,-10,-38,-31,-10
1532627682826,13,-1,-1,-2,-11,9,-4,3
1532627682831,-7,1,1,1,2,-3,-9,-16
1532627682836,19,-3,-1,9,-6,-22,3,17
1532627682841,-2,-2,-6,-11,3,28,10,-13
1532627682846,14,1,0,-7,-12,-69,-16,-3
1532627682851,14,5,1,2,-6,29,17,2
1532627682856,-16,-4,-2,-6,2,0,-7,-1
1532627682861,-8,1,4,14,-1,-43,-8,11
1532627682866,-8,-5,-9,-6,0,-10,-8,-1
1532627682871,11,-3,-2,-14,-10,-22,1,-2
1532627682876,-24,-1,-1,6,4,5,10,-14
1532627682881,1,1,2,1,12,69,7,9
1532627682886,-8,0,0,-1,-6,-24,-9,4
1532627682891,-1,-6,-2,0,0,16,-7,2
1532627682896,0,1,1,2,3,-6,16,-4
1532627682901,-18,-5,-5,-3,-13,-42,-18,-5
1532627682906,8,1,1,0,2,-17,-6,11
1532627682911,4,2,-2,-3,2,0,1,14
1532627682916,-6,-2,0,2,7,35,-5,1
1532627682921,9,0,1,-6,-8,-27,-9,-4
1532627682926,-41,-2,1,7,7,49,3,-11
1532627682931,27,-3,-2,-3,-6,-24,4,-16
1532627682936,-8,1,-2,-10,-5,9,5,-3
1532627682941,14,5,2,5,8,5,3,3
1532627682946,-5,-9,-3,-3,-7,-18,-3,2
1532627682951,-5,2,0,-3,-1,-30,-4,-23
1532627682956,0,1,1,4,-2,35,9,15
1532627682961,2,-2,-2,4,6,-5,-6,-4
1532627682966,1,1,-4,-14,-7,-15,-13,-3
1532627682971,-19,-3,-1,3,-7,-32,-24,-22
1532627682976,14,-7,-3,-6,-7,-12,-11,28
1532627682981,19,7,5,7,16,65,48,99
1532627682986,13,3,1,0,-3,-14,-4,-6
1532627682991,9,3,0,-1,1,13,-3,9
1532627682996,-8,-4,-2,-1,-5,-14,-10,-44
1532627683001,-27,-7,-3,-6,-6,-17,-29,-40
1532627683006,0,-3,-2,-6,-6,-5,-2,-20
1532627683011,2,-1,-2,-2,-4,6,11,19
1532627683016,-2,2,1,5,10,17,6,0
1532627683021,10,3,0,-2,-5,-31,-10,-5
1532627683026,-5,-1,-2,-1,-2,2,0,-8
1532627683031,-5,-4,-2,-1,0,-2,-4,-22
1532627683036,-7,-3,-3,1,1,28,-3,-15
1532627683041,-6,-5,-4,-4,-6,-46,-24,-28
1532627683046,11,-1,2,0,0,-16,27,72
1532627683051,9,9,18,4,5,10,31,24
1532627683056,-18,-1,-20,-3,4,8,-20,-44
1532627683061,37,0,15,-5,-8,-21,-9,55
1532627683066,4,3,-13,12,15,14,59,-7
1532627683071,-1,-2,0,-2,5,14,-11,10
1532627683076,2,1,5,-5,-9,-27,0,-15
1532627683081,-42,-5,-6,-12,-8,-6,-36,-70
1532627683086,-21,-8,-1,3,-4,-29,-21,-3
1532627683091,23,3,-3,3,-3,-1,14,15
1532627683096,13,4,6,9,17,42,-1,-18
1532627683101,-9,-6,-6,-6,-18,-57,-13,-11
1532627683106,11,2,7,0,-2,8,3,22
1532627683111,-16,-2,-7,-5,2,11,5,-19
1532627683116,-7,-4,2,-2,-6,-24,-17,14
1532627683121,13,0,-3,2,9,58,34,19
1532627683126,-9,0,-1,-5,2,-3,-15,-44
1532627683131,-4,-2,-4,-5,-6,-27,-25,-1
1532627683136,2,-1,-1,-5,-13,-30,8,20
1532627683141,8,3,2,8,5,21,23,11
1532627683146,3,-1,1,2,12,59,-5,-13
1532627683151,-6,-4,-5,-8,-10,-18,-6,-17
1532627683156,3,0,0,-1,-2,-12,0,28
1532627683161,-12,-4,-5,1,6,-10,-10,-34
1532627683166,-7,-2,2,1,-2,11,-29,-17
1532627683171,12,1,-1,5,2,19,23,49
1532627683176,-4,1,3,-3,-8,-14,1,-3
1532627683181,-3,0,-1,-4,3,7,2,1
1532627683186,-1,-2,-2,3,-4,-10,-3,-10
1532627683191,1,0,0,1,5,3,-8,-4
1532627683196,-6,-2,0,1,-4,-11,12,-12
1532627683201,3,-1,-2,1,3,28,-13,4
1532627683206,1,-2,2,-1,2,-33,-13,-7
1532627683211,-5,-3,-3,-1,-11,-9,-23,-9
1532627683216,3,3,1,0,5,23,34,27
1532627683221,3,4,1,0,2,-1,3,-22
1532627683226,-3,-3,-3,0,0,-4,1,-10
1532627683231,-13,-3,-4,-6,-2,-1,3,-5
1532627683236,3,1,-1,-10,0,5,7,6
1532627683241,-2,-1,1,4,-2,2,-1,3
1532627683246,5,1,2,7,-8,-21,-5,4
1532627683251,1,-2,-2,-3,0,-12,-6,-4
1532627683256,-4,-3,0,2,0,19,0,1
1532627683261,4,2,-1,0,-2,-2,7,3
1532627683266,-10,0,-3,-10,-8,-1,-3,1
1532627683271,16,-1,-1,1,0,-4,2,-2
1532627683276,1,0,-1,1,0,1,-6,-4
1532627683281,-9,0,1,3,2,-6,8,16
1532627683286,4,0,1,0,2,2,7,3
1532627683291,-18,-4,-2,0,-2,3,-4,-5
1532627683296,-4,0,-3,-2,2,-3,-5,4
1532627683301,1,0,-2,1,3,-3,-2,-8
1532627683306,6,-1,-2,-6,-2,4,1,3
1532627683311,-6,-2,1,-4,-3,0,-1,-8
1532627683316,3,1,3,6,0,0,2,8
1532627683321,-5,-2,-4,0,7,-9,-3,-2
1532627683326,-4,-2,-3,-11,-4,-7,-5,-2
1532627683331,3,0,0,-5,-2,6,-3,0
1532627683336,-7,-2,-1,1,0,-2,-8,-2
1532627683341,0,-2,-1,-2,-3,-2,3,14
1532627683346,2,-1,0,5,2,2,-2,-2
1532627683351,1,-1,-1,-2,-1,0,-2,0
1532627683356,-1,-1,0,0,-1,-5,-4,0
1532627683361,-1,1,-1,1,0,2,-4,-8
1532627683366,-1,-2,-1,0,2,-4,0,-1
1532627683371,-3,0,0,1,-1,3,3,1
1532627683376,-3,-1,0,-1,-1,-2,7,-3
1532627683381,-4,-1,-3,3,-2,0,-5,-9
1532627683386,-4,-2,-4,-8,-4,-2,0,-5
1532627683391,2,0,2,1,-2,5,4,7
1532627683396,7,0,-1,-1,5,2,2,-1
1532627683401,-1,-3,-2,-5,-9,-10,-6,-3
1532627683406,-3,2,2,2,4,1,3,3
1532627683411,-4,-1,-2,4,4,-5,1,-8
1532627683416,-4,-1,-3,-6,-4,1,1,1
1532627683421,3,1,1,1,4,10,3,-3
1532627683426,1,-1,-3,-6,-12,-7,-6,2
1532627683431,-4,-1,-1,2,0,4,0,-4
1532627683436,-3,-2,0,-1,-2,0,1,-6
1532627683441,6,2,-1,1,3,-11,1,9
1532627683446,-2,-3,0,-1,-8,-3,-3,-2
1532627683451,-5,-2,2,0,2,-3,-7,-4
1532627683456,-1,-2,1,-1,1,-8,3,4
1532627683461,-1,0,3,0,3,9,1,-10
1532627683466,-4,-2,-1,3,3,15,9,2
1532627683471,-1,1,0,2,6,-3,0,-4
1532627683476,2,2,-2,0,-4,-14,-4,0
1532627683481,0,0,0,0,-3,6,-5,-16
1532627683486,-3,0,0,-1,-5,-17,-6,-14
1532627683491,3,-1,-1,4,4,7,11,36
1532627683496,-3,-1,-1,2,6,8,-3,-27
1532627683501,2,-2,-2,-12,-12,0,-4,13
1532627683506,2,0,-1,0,5,-2,-1,-1
1532627683511,0,0,-3,5,-5,-3,0,-6
1532627683516,-1,-1,-1,-8,-1,2,-4,2
1532627683521,-3,0,1,3,-2,-21,-1,1
1532627683526,-3,-1,0,3,10,6,-2,-24
1532627683531,-4,-2,-2,-3,-6,10,-6,8
1532627683536,1,-1,1,-1,6,21,23,18
1532627683541,-4,-1,-1,2,0,-1,-3,-15
1532627683546,3,-1,-2,-2,-5,-51,-5,6
1532627683551,3,1,1,11,17,37,0,-12
1532627683556,-3,-4,-4,-12,-17,-12,-3,-4
1532627683561,1,-2,1,3,16,39,3,2
1532627683566,2,-1,-2,-4,-8,9,-1,4
1532627683571,-1,-4,-2,-3,-2,-24,-6,-8
1532627683576,2,3,1,-1,5,9,1,1
1532627683581,-2,-5,-5,1,-5,-13,7,0
1532627683586,-1,0,2,-1,-10,-19,-5,6
1532627683591,3,2,1,4,8,15,2,-1
1532627683596,-3,-4,1,5,7,3,-6,-6
1532627683601,-1,0,-1,-12,-25,3,1,-2
1532627683606,1,2,4,4,9,-25,-5,4
1532627683611,0,-2,-3,-3,-12,-41,0,6
1532627683616,-3,-3,-1,5,12,13,-2,11
1532627683621,4,2,1,5,12,-6,0,-1
1532627683626,-1,-3,-3,-9,-6,33,4,-3
1532627683631,2,1,0,-3,-2,-11,1,7
1532627683636,2,1,1,4,-8,-24,-8,3
1532627683641,-2,-3,1,3,18,58,12,2
1532627683646,0,0,-2,-3,-2,-12,-1,1
1532627683651,-5,1,0,-3,-4,-38,-7,-12
1532627683656,-2,0,-1,-2,6,66,3,-20
1532627683661,-4,-4,0,-1,-6,-24,-8,-8
1532627683666,-5,-2,-1,4,12,7,2,-6
1532627683671,0,-5,-4,-4,-29,56,11,3
1532627683676,7,3,2,-1,-2,-92,-13,8
1532627683681,0,1,-1,-5,-23,-7,2,-6
1532627683686,-7,-8,-6,-7,17,103,6,1
1532627683691,0,2,1,5,6,-76,5,8
1532627683696,3,1,1,1,-7,-36,-5,-3
1532627683701,1,0,-1,3,5,-3,1,3
1532627683706,-4,-1,-1,-5,-9,-10,-1,4
1532627683711,-5,-4,-4,-9,-11,47,4,-9
1532627683716,-5,-2,1,0,-7,20,-2,-7
1532627683721,-3,-2,-4,-2,-6,-61,-7,-1
1532627683726,8,5,5,6,-5,-9,3,10
1532627683731,-3,-1,-1,-3,14,33,-1,-9
1532627683736,-1,-3,-2,-3,-1,40,5,-2
1532627683741,3,2,2,2,-5,-55,-6,7
1532627683746,2,0,-1,-2,-6,-14,-1,-1
1532627683751,-3,0,-1,0,3,46,1,-5
1532627683756,-4,-6,-2,-2,-2,-38,-3,-2
1532627683761,-4,-4,-2,8,43,42,0,-2
1532627683766,9,3,-1,-13,-57,6,10,11
1532627683771,-8,-1,1,2,-4,-83,-12,-5
1532627683776,-6,-6,-6,-6,21,75,3,-6
1532627683781,-1,-2,-2,1,9,-21,3,1
1532627683786,-7,-5,-2,1,2,-17,-12,-9
1532627683791,3,-1,1,-1,10,96,13,3
1532627683796,4,5,5,7,-26,-50,2,11
1532627683801,-2,0,0,-4,6,17,-9,-9
1532627683806,5,5,4,8,21,-20,4,4
1532627683811,-5,-3,-1,-3,-20,-39,-11,-14
1532627683816,-1,-3,-4,-1,13,53,-2,4
1532627683821,0,-2,0,-3,-18,26,0,0
1532627683826,-3,-2,-2,0,1,-63,-14,-10
1532627683831,0,-1,0,4,9,-10,-1,-23
1532627683836,1,2,1,1,-13,-67,-14,-2
1532627683841,-1,-3,-5,-3,1,65,9,1
1532627683846,-4,-4,-2,-3,9,79,12,3
1532627683851,6,2,1,-1,3,-94,-4,8
1532627683856,-2,-2,-1,2,0,-6,-2,-5
1532627683861,0,2,1,5,7,-36,-7,4
1532627683866,-1,1,1,-13,-27,39,6,-2
1532627683871,5,2,-2,-1,1,9,-1,8
1532627683876,-7,-5,-4,-1,-12,-42,-3,-7
1532627683881,1,1,0,3,3,30,1,1
1532627683886,-11,-1,-1,6,12,-11,0,2
1532627683891,14,-3,-1,-2,1,46,-4,4
1532627683896,-14,-3,-5,-5,3,9,-5,-15
1532627683901,1,-2,2,-1,-2,5,19,11
1532627683906,1,4,2,3,3,-30,-28,0
1532627683911,-2,-3,-4,-3,1,-16,-15,-6
1532627683916,-11,-12,-11,0,11,71,-5,-19
1532627683921,-8,1,9,-5,-20,-74,0,39
1532627683926,35,15,9,8,8,8,34,59
1532627683931,-1,2,-1,3,-3,-10,-6,5
1532627683936,0,-11,-7,-1,-18,6,-25,-24
1532627683941,-6,-5,-9,-4,50,120,17,12
1532627683946,-8,-2,2,3,-15,-82,-16,-15
1532627683951,6,3,4,7,15,-68,6,14
1532627683956,3,6,5,14,33,12,10,15
1532627683961,-3,-3,-5,-8,-37,-16,-20,-34
1532627683966,-10,-8,-6,-9,0,35,2,-12
1532627683971,-2,-1,-1,5,-3,43,9,-7
1532627683976,-3,1,-2,-13,3,26,15,0
1532627683981,6,4,4,6,-18,-92,-21,-3
1532627683986,-1,-3,-4,-3,6,39,-5,-12
1532627683991,3,-1,-3,-5,-18,11,-3,12
1532627683996,8,0,3,-4,-4,-2,9,12
1532627684001,4,2,-2,-6,-1,2,-1,-1
1532627684006,-16,-7,-2,7,9,-19,-3,-17
1532627684011,-15,-2,-1,-4,5,19,6,-7
1532627684016,2,2,15,-4,-9,-8,24,2
1532627684021,13,11,0,3,-1,-16,-28,7
1532627684026,18,3,-7,4,-2,-8,-2,13
1532627684031,-4,-20,-14,-3,4,23,-1,-20
1532627684036,-16,-7,-23,-15,-10,-32,-5,3
1532627684041,-20,-4,5,1,-8,-13,2,-4
1532627684046,-3,3,0,-1,2,4,-1,-1
1532627684051,1,-1,14,-2,1,8,-1,2
1532627684056,-21,2,2,12,5,-14,-7,0
1532627684061,7,-4,-10,-4,1,6,11,-13
1532627684066,-8,-4,2,-2,-1,8,-1,-3
1532627684071,11,6,1,2,1,-5,-15,-1
1532627684076,14,1,5,0,-5,-18,-3,-1
1532627684081,3,1,1,4,0,0,-1,-1
1532627684086,-8,-11,-7,-9,-3,-14,-3,-9
1532627684091,-7,1,-3,-16,-11,-5,2,7
1532627684096,6,6,3,4,2,-31,-5,9
1532627684101,1,6,5,-1,-1,11,1,-5
1532627684106,-7,-14,-11,1,-1,0,-3,-7
1532627684111,-1,0,-15,3,2,12,1,-1
1532627684116,6,0,4,-5,-5,-9,1,2
1532627684121,-1,-2,-2,1,1,0,5,-9
1532627684126,0,-3,18,2,1,4,-4,-6
1532627684131,3,0,-27,2,-2,-20,2,5
1532627684136,-1,2,1,-3,-3,19,-2,-3
1532627684141,-2,-3,-1,-9,-6,33,5,1
1532627684146,1,0,-7,-4,-7,-14,-5,-4
1532627684151,-7,-3,22,15,22,28,1,-3
1532627684156,4,1,-8,-3,-7,47,0,0
1532627684161,-3,-4,-8,-11,-8,-30,-9,-5
1532627684166,1,2,6,-2,5,5,2,2
1532627684171,-2,2,-1,3,-11,-12,-1,-2
1532627684176,3,2,1,7,3,-30,3,2
1532627684181,-2,-2,3,-5,-5,5,-2,-4
1532627684186,-4,1,-4,-2,-3,-9,2,-2
1532627684191,1,3,1,-2,3,-4,2,4
1532627684196,2,2,-2,7,7,28,2,-1
1532627684201,-3,-6,6,-5,-6,-28,-6,-2
1532627684206,2,6,23,2,-6,-9,0,-2
1532627684211,-4,-5,-42,-11,-11,-27,-11,-5
1532627684216,5,1,17,3,15,2,22,11
1532627684221,-1,-1,0,10,11,45,10,-1
1532627684226,0,5,1,-2,-17,-26,-13,-3
1532627684231,-5,-5,13,0,1,19,9,-3
1532627684236,-3,-2,-19,-2,-5,-125,-26,-8
1532627684241,1,-2,-4,-16,-16,79,19,6
1532627684246,1,-3,-5,1,-4,-80,13,-1
1532627684251,-1,1,10,-3,9,43,19,4
1532627684256,1,-1,-2,8,1,-12,-6,-1
1532627684261,-1,1,6,6,7,-16,-8,-2
1532627684266,-7,-5,-5,0,4,32,-12,-5
1532627684271,2,-5,-13,-9,-20,-57,-6,-1
1532627684276,3,3,9,1,5,37,2,3
1532627684281,0,-3,-9,-2,8,-36,-19,-4
1532627684286,-3,-4,-4,-4,-2,-27,15,1
1532627684291,1,4,16,5,5,-21,-6,1
1532627684296,0,-3,-6,-5,-1,59,10,0
1532627684301,-4,-7,-10,-4,-16,-37,-18,-9
1532627684306,1,-1,-13,9,35,94,14,4
1532627684311,-2,0,8,-6,-35,-100,-33,-6
1532627684316,2,0,5,2,-8,99,19,4
1532627684321,2,0,-2,2,11,-21,3,2
1532627684326,-2,2,-1,-14,-11,-34,-37,-7
1532627684331,1,1,14,9,22,72,40,8
1532627684336,-1,-3,-16,-8,-7,-41,-7,0
1532627684341,-4,0,8,7,4,-22,2,-3
1532627684346,2,2,-7,9,-1,40,7,5
1532627684351,-4,-1,2,3,4,-18,-10,-3
1532627684356,-1,-1,2,-14,-7,-34,-12,-4
1532627684361,2,0,3,3,2,1,10,2
1532627684366,-1,0,-5,-6,0,-6,-8,-2
1532627684371,-2,1,3,6,10,99,2,0
1532627684376,0,-2,2,2,-19,-32,-8,1
1532627684381,2,1,-3,-1,14,7,10,1
1532627684386,2,0,5,4,2,-7,1,1
1532627684391,-3,-5,-10,-5,-1,10,-3,-2
1532627684396,-3,1,9,-1,1,-19,-3,-3
1532627684401,-1,0,-6,-1,-11,-21,-5,-2
1532627684406,-3,-5,-2,0,-1,-20,4,-2
1532627684411,3,7,-4,-21,-6,4,1,0
1532627684416,-2,-6,-8,-12,-9,-27,-10,-4
1532627684421,-1,-1,1,7,-3,-1,2,0
1532627684426,1,0,-1,4,8,33,9,0
1532627684431,-1,-2,0,-1,-1,16,-3,-1
1532627684436,-4,-1,-3,1,1,-70,-9,-4
1532627684441,3,4,2,4,4,100,11,4
1532627684446,3,2,1,1,-2,-3,-1,1
1532627684451,-1,2,7,1,0,-41,-6,-2
1532627684456,-3,-2,2,8,8,37,2,-1
1532627684461,-4,-2,-5,-3,-4,-53,-4,4
1532627684466,-1,0,0,-3,1,39,1,4
1532627684471,-2,-2,1,4,10,27,6,3
1532627684476,2,-1,5,-5,-3,6,-5,1
1532627684481,-3,-4,-15,-8,-9,-38,-5,-6
1532627684486,-1,-2,-5,-15,-14,-11,-6,-7
1532627684491,-3,-2,-1,6,4,3,-3,-7
1532627684496,-1,-1,1,9,7,9,1,-6
1532627684501,-1,2,7,3,-1,15,-3,-8
1532627684506,-1,-2,2,5,2,-2,0,-2
1532627684511,0,-1,-5,-2,-5,10,0,-1
1532627684516,-1,-1,-5,-2,-5,-82,-4,1
1532627684521,0,-1,0,1,9,92,11,4
1532627684526,0,1,1,1,2,-14,1,0
1532627684531,0,0,1,3,-1,-9,-2,2
1532627684536,0,3,3,2,5,20,0,3
1532627684541,-5,-5,-5,-9,-9,-25,-6,1
1532627684546,0,-2,0,-1,4,-29,2,8
1532627684551,0,0,13,1,-4,-3,-2,6
1532627684556,-3,-3,-16,-7,-10,26,4,3
1532627684561,1,2,1,2,-2,-25,-3,1
1532627684566,0,0,-2,0,0,5,-2,-1
1532627684571,1,0,10,3,2,-8,-1,0
1532627684576,-2,0,-3,-2,4,19,3,0
1532627684581,1,0,0,0,-1,5,-1,-1
1532627684586,-1,-4,3,-3,-5,-9,-5,0
1532627684591,-1,-3,-10,-6,-2,-10,-3,-2
1532627684596,-2,-1,1,0,6,29,3,3
1532627684601,-2,-3,-3,-7,-6,-31,-6,-1
1532627684606,1,1,2,2,1,19,3,-3
1532627684611,-1,-3,-4,3,2,-8,2,-6
1532627684616,0,-1,-2,-4,2,27,1,-8
1532627684621,-1,1,3,3,-10,-73,-8,-12
1532627684626,0,-2,0,3,6,43,8,-8
1532627684631,0,0,-15,-12,-3,-10,-2,-8
1532627684636,1,-3,-2,2,6,6,1,-4
1532627684641,-3,0,17,5,5,5,-3,-1
1532627684646,-5,-3,-16,-5,-6,-13,-2,8
1532627684651,-1,3,0,5,-3,-15,3,0
1532627684656,0,-1,3,-4,4,22,-1,-2
1532627684661,2,-2,-2,2,6,28,4,-2
1532627684666,-1,0,-5,-1,-5,-30,-7,4
1532627684671,-7,-3,-2,-7,-5,12,-1,7
1532627684676,6,4,11,-4,-8,-15,3,1
1532627684681,-1,-4,-9,-6,-6,-2,-7,-12
1532627684686,-2,0,0,0,-2,-8,-4,15
1532627684691,4,0,-2,-1,-1,-18,2,3
1532627684696,-3,-3,2,5,4,52,9,1
1532627684701,-1,-2,2,0,-1,-15,-2,-1
1532627684706,-2,-4,-7,-9,-6,0,-6,-12
1532627684711,-3,-3,5,-1,0,-3,-2,-4
1532627684716,-1,-1,-1,-1,0,-29,-1,7
1532627684721,-2,-1,-2,0,3,19,5,6
1532627684726,-5,-3,4,4,-1,-2,-2,-7
1532627684731,-1,-1,-17,-6,-7,-22,-9,-20
1532627684736,-5,-2,-2,-6,4,46,2,-6
1532627684741,1,1,2,3,0,-5,-1,13
1532627684746,2,-1,-2,1,-4,-29,0,2
1532627684751,3,1,2,3,4,17,-2,-12
1532627684756,-1,-1,0,1,-4,-25,-10,22
1532627684761,-9,0,-4,-2,0,-6,-3,-16
1532627684766,4,3,2,3,5,10,13,-8
1532627684771,-1,-2,3,-3,-6,-26,-10,1
1532627684776,3,-1,-9,1,-5,17,4,-2
1532627684781,2,-3,1,-1,-3,-2,-5,6
1532627684786,-2,0,2,-2,5,10,4,-2
1532627684791,0,0,2,0,-3,-4,5,3
1532627684796,-5,-4,-2,-1,4,-1,0,1
1532627684801,-4,0,-7,-1,-5,-15,-5,-10
1532627684806,-1,-4,0,-1,2,13,-1,-6
1532627684811,-1,-4,1,-3,1,15,5,6
1532627684816,-3,-1,-1,2,-5,-9,-5,-2
1532627684821,0,1,0,-3,1,-13,4,4
1532627684826,4,0,2,0,-2,-5,-7,-6
1532627684831,-5,-1,-2,0,4,4,1,22
1532627684836,3,2,-2,-5,-5,7,-3,-7
1532627684841,2,0,-3,0,1,0,3,3
1532627684846,-2,2,1,-3,6,-11,-4,-3
1532627684851,2,1,2,-3,-6,-1,-2,4
1532627684856,-6,0,0,-3,-1,-10,-3,-8
1532627684861,4,-1,-1,5,5,16,3,1
1532627684866,-1,-1,-4,-4,-5,20,3,5
1532627684871,-3,-1,-3,4,4,4,6,-8
1532627684876,1,0,8,-1,-4,-23,-16,-3
1532627684881,0,2,-1,-4,-3,5,3,-1
1532627684886,-4,-2,2,5,3,15,11,4
1532627684891,15,1,-1,-7,-6,-17,-19,-2
1532627684896,-31,-6,-1,1,-4,-5,7,-13
1532627684901,14,1,1,1,3,15,-2,5
1532627684906,2,0,-5,-3,-7,-24,-4,10
1532627684911,-1,2,4,6,7,7,-5,-9
1532627684916,11,1,-3,-1,-7,-24,1,13
1532627684921,-14,-5,-3,-9,3,23,1,-21
1532627684926,-6,1,-2,-2,-1,-19,-9,-1
1532627684931,-31,-9,-1,-1,2,-2,6,3
1532627684936,43,6,-2,5,3,-5,6,14
1532627684941,0,2,-2,0,-4,-13,3,-9
1532627684946,18,1,1,1,4,1,-5,7
1532627684951,-8,0,-3,-1,7,68,3,5
1532627684956,-9,-2,-2,-2,-9,-71,-5,-5
1532627684961,1,0,2,-1,-2,17,-1,10
1532627684966,-4,-1,-2,-6,-5,18,6,-4
1532627684971,9,0,-3,-3,-6,-20,7,-2
1532627684976,-3,-2,-2,-3,7,25,-15,-1
1532627684981,3,-1,1,1,-2,-20,1,-4
1532627684986,-10,-1,3,4,10,35,11,-2
1532627684991,6,2,0,3,5,-5,2,2
1532627684996,-3,0,0,-10,-8,8,1,-4
1532627685001,-3,-1,-2,1,-5,-33,-10,-10
1532627685006,-7,-4,-4,-2,-3,8,3,12
1532627685011,5,3,1,-1,-2,1,5,-17
1532627685016,-4,-1,-2,2,4,-10,-2,-2
1532627685021,-2,-3,0,1,-1,-7,-3,1
1532627685026,6,4,2,2,2,62,1,-9
1532627685031,5,1,3,7,1,-12,-2,11
1532627685036,-6,-1,-4,-3,-4,-24,-4,-12
1532627685041,-3,-1,-5,-10,0,26,3,1
1532627685046,0,-3,-2,0,-4,-26,-6,-5
1532627685051,-3,-2,-3,-5,-3,-12,-7,-2
1532627685056,0,1,4,6,11,27,11,-3
1532627685061,-1,-3,-4,-2,-3,-3,0,10
1532627685066,4,0,-1,-6,-7,-22,-4,-4
1532627685071,-2,-2,3,7,3,5,-2,2
1532627685076,-2,0,1,3,-4,-2,1,-2
1532627685081,0,-2,0,6,8,2,3,4
1532627685086,-2,-2,-6,-9,-7,-15,-8,-4
1532627685091,-1,-2,-5,-1,1,-3,-5,-8
1532627685096,2,0,-5,-17,-19,0,1,11
1532627685101,4,1,-1,2,-3,4,2,-1
1532627685106,-7,0,3,11,5,-8,-6,-4
1532627685111,-8,-1,0,-1,6,3,3,-17
1532627685116,-1,-2,-4,0,-2,5,0,-3
1532627685121,0,1,2,-1,3,-6,-3,8
1532627685126,4,-1,-1,-11,-17,-14,0,2
1532627685131,1,1,-4,-4,-12,-10,-1,3
1532627685136,-2,-1,4,7,11,45,5,-1
1532627685141,0,0,-3,2,-14,-18,-6,-2
1532627685146,-5,-4,-1,0,12,12,4,1
1532627685151,1,0,3,-7,-6,-4,-4,2
1532627685156,-1,-3,-5,1,-3,-15,-7,-6
1532627685161,-1,0,1,-1,13,-17,4,2
1532627685166,0,-1,3,19,-16,33,0,-1
1532627685171,0,1,-2,-15,14,11,1,4
1532627685176,-2,-4,-3,-10,-17,-19,-1,-3
1532627685181,-2,0,2,5,0,8,4,3
1532627685186,-5,-4,-3,-8,-3,-25,-8,-8
1532627685191,2,0,2,12,14,5,1,-3
1532627685196,0,1,2,5,8,-2,-5,-1
1532627685201,-4,-4,-6,-8,-7,0,-1,-1
1532627685206,0,1,0,-4,-5,-7,-2,-1
1532627685211,1,-3,-4,-3,-1,2,1,8
1532627685216,1,-1,-3,-3,5,1,1,-5
1532627685221,1,-1,-1,0,-9,1,-1,-2
1532627685226,1,1,1,6,7,-3,0,-3
1532627685231,-1,-1,-2,-1,-7,-7,-2,-2
1532627685236,-2,-1,-2,-1,-5,-4,1,2
1532627685241,1,0,7,5,15,13,1,0
1532627685246,-2,-1,-12,-12,-13,-14,1,0
1532627685251,-1,0,-1,-5,-12,-5,-4,-1
1532627685256,-3,1,2,5,8,7,6,-1
1532627685261,-3,0,0,-2,-3,-1,-2,-1
1532627685266,0,-1,-2,-2,11,-7,-4,-2
1532627685271,-1,-1,2,7,-1,10,8,-1
1532627685276,1,0,-2,4,0,-6,-9,-2
1532627685281,0,-3,-2,-12,-8,18,10,-1
1532627685286,2,0,2,-4,-6,-36,-8,-2
1532627685291,-1,-3,-5,-9,-15,-8,-13,-4
1532627685296,0,1,5,11,-11,2,10,4
1532627685301,0,2,-1,2,26,58,4,0
1532627685306,-1,-1,2,3,8,-19,8,0
1532627685311,-3,-4,-8,-11,-10,-31,1,-2
1532627685316,0,2,-2,2,9,11,-1,-3
1532627685321,0,-1,-3,1,-11,-19,-10,-5
1532627685326,0,4,7,5,-1,19,0,14
1532627685331,2,0,-1,4,16,-5,-1,-2
1532627685336,1,-2,3,-6,6,-8,-2,-2
1532627685341,-3,-3,-5,5,-5,3,-1,4
1532627685346,-1,0,-2,-12,-2,-11,-3,-5
1532627685351,0,-1,0,3,2,18,3,5
1532627685356,0,1,-3,-8,-13,-19,-13,-7
1532627685361,-2,0,1,1,-16,-5,-14,0
1532627685366,-1,-4,-4,-1,8,-8,18,-1
1532627685371,1,1,6,9,1,42,16,-6
1532627685376,0,-2,-2,-2,1,9,-13,-1
1532627685381,-2,-4,-4,0,10,-8,-6,4
1532627685386,0,-1,-1,-2,-11,-7,-7,-1
1532627685391,3,1,1,-2,-7,-10,3,3
1532627685396,0,-2,-2,1,4,0,-6,7
1532627685401,0,-1,-1,-3,7,24,5,-7
1532627685406,-2,-1,-1,4,8,-13,2,-6
1532627685411,-3,-1,-1,-2,-16,1,-6,-3
1532627685416,-1,0,2,1,3,-30,-3,-6
1532627685421,-3,-3,-2,-7,-13,20,1,4
1532627685426,-1,0,0,1,11,-13,0,-3
1532627685431,-1,0,-2,3,7,79,0,-2
1532627685436,-2,-2,-1,-6,-4,-37,4,4
1532627685441,1,1,1,-2,-8,-19,2,-1
1532627685446,0,-1,-3,-6,16,24,1,-5
1532627685451,-2,-2,2,-3,-5,-34,-10,9
1532627685456,-1,-1,-3,0,-11,29,8,-3
1532627685461,1,0,3,8,13,-10,1,-4
1532627685466,-2,-2,-2,3,0,4,-8,-2
1532627685471,0,-2,0,-3,-4,-46,-13,-7
1532627685476,-2,-3,-3,0,3,3,6,1
1532627685481,0,2,0,2,6,1,0,11
1532627685486,1,0,1,-4,-19,17,-1,0
1532627685491,-2,-2,-1,1,7,15,5,-4
1532627685496,0,-2,-4,-5,4,-41,-4,-7
1532627685501,0,-2,-3,-6,-14,9,-1,-6
1532627685506,-2,0,-1,5,1,7,-3,3
1532627685511,-1,1,2,1,7,8,8,1
1532627685516,-1,0,3,6,2,5,-2,-1
1532627685521,1,1,-1,-1,4,-7,-5,-3
1532627685526,0,-1,-3,-4,3,19,3,5
1532627685531,-3,-2,-3,-7,-5,-21,-4,-3
1532627685536,0,0,-1,1,1,-20,-3,-1
1532627685541,-3,-1,1,5,-1,-17,-1,-2
1532627685546,0,-4,-1,-3,-6,20,-3,-3
1532627685551,-2,-3,-2,-1,1,1,-1,1
1532627685556,1,2,1,-6,-12,11,4,2
1532627685561,-1,-1,6,-8,4,-13,-2,-4
1532627685566,5,1,-10,4,-1,6,-2,1
1532627685571,-18,-9,-4,0,4,-11,1,0
1532627685576,10,4,5,-3,-3,12,0,-1
1532627685581,-3,-11,-16,-11,-12,-16,-4,-3
1532627685586,-1,5,6,0,-4,-14,-3,-4
1532627685591,3,4,1,3,1,36,3,4
1532627685596,-6,-1,2,5,4,-14,2,0
1532627685601,2,-1,2,-2,-3,19,-2,-1
1532627685606,0,0,1,2,0,-11,-3,-2
1532627685611,3,-1,-1,0,-3,-22,-3,0
1532627685616,-3,-4,-7,-4,2,31,5,0
1532627685621,0,2,-3,-12,-9,-33,-3,-3
1532627685626,-5,-2,0,-1,2,25,2,-2
1532627685631,1,3,2,5,1,23,0,-1
1532627685636,0,-2,3,5,1,-21,-8,-1
1532627685641,-3,2,-2,9,5,-5,2,-2
1532627685646,-3,0,1,-7,-20,-8,0,8
1532627685651,2,-1,-1,-9,-3,-25,-4,-5
1532627685656,-4,-2,-6,-9,3,57,3,-3
1532627685661,3,4,4,8,2,-10,5,2
1532627685666,-1,-1,2,3,4,-14,-4,-3
1532627685671,1,0,-2,-1,-4,6,-1,1
1532627685676,-3,-2,-1,-3,-3,-20,0,0
1532627685681,-4,-2,1,2,6,1,-2,-3
1532627685686,-2,-1,1,-2,8,25,-6,-2
1532627685691,1,-3,-4,1,-6,-36,5,-1
1532627685696,-1,-2,-4,-9,-2,1,-5,-10
1532627685701,1,-1,-1,-3,-7,16,-1,9
1532627685706,-1,-3,-3,1,7,-12,2,-1
1532627685711,0,-1,1,-2,-8,8,-5,-1
1532627685716,0,1,2,8,9,8,7,2
1532627685721,-1,-1,-1,-5,-5,-3,-4,-4
1532627685726,0,-1,-3,-2,-1,-14,0,-2
1532627685731,0,2,-1,-1,3,2,-1,1
1532627685736,1,-2,-3,0,-1,7,5,1
1532627685741,-2,0,-1,2,5,-6,4,5
1532627685746,-1,1,2,5,1,2,-2,-2
1532627685751,0,0,-2,-1,1,-5,1,-1
1532627685756,-1,-2,-3,-1,-1,11,-8,0
1532627685761,-1,-1,0,0,-6,-25,-2,-2
1532627685766,-2,-1,-2,0,3,-4,-4,-5
1532627685771,1,-2,-2,-9,-9,-6,3,6
1532627685776,1,0,2,6,16,1,-1,-6
1532627685781,-1,0,-2,-7,-34,-1,0,10
1532627685786,1,-1,-1,4,7,13,3,-4
1532627685791,-1,0,0,-3,3,1,-4,-2
1532627685796,-1,-1,-1,-5,-8,-13,-6,-1
1532627685801,-2,-2,-2,1,7,-8,-6,-8
1532627685806,-1,0,0,-2,-4,-5,2,-1
1532627685811,-1,0,0,4,1,-1,1,-3
1532627685816,1,1,-1,3,1,8,3,7
1532627685821,0,0,0,-4,6,6,1,-4
1532627685826,-2,0,-2,-3,-10,-5,-4,3
1532627685831,-2,-1,0,3,8,-7,-1,-5
1532627685836,-1,-1,-2,-7,-10,-21,-3,0
1532627685841,-2,0,1,1,5,16,0,-5
1532627685846,-1,0,-1,0,-5,-21,-3,-1
1532627685851,2,-1,-1,6,11,29,7,1
1532627685856,-2,-1,-4,-10,-24,18,-5,-3
1532627685861,0,-1,-1,2,8,-22,-2,-2
1532627685866,-2,-2,-1,-3,-3,-12,-1,-2
1532627685871,-1,2,1,0,-4,3,-2,0
1532627685876,-1,-1,1,2,10,17,8,3
1532627685881,0,-2,-3,-1,4,-5,0,-3
1532627685886,-2,-3,0,-5,-6,12,2,2
1532627685891,1,-1,-2,-1,-2,-17,-8,0
1532627685896,0,2,2,6,1,32,4,-7
1532627685901,-2,-2,-4,-4,4,3,-2,-3
1532627685906,1,-2,-3,-4,1,-11,1,1
1532627685911,5,-1,-4,-5,-9,-13,-5,-2
1532627685916,-12,-1,0,3,1,-7,0,-1
1532627685921,-3,-2,3,1,2,14,7,-3
1532627685926,-3,-1,-3,1,1,1,-1,-2
1532627685931,-2,-3,0,-1,-11,-45,-18,-6
1532627685936,7,0,0,-3,9,1,9,9
1532627685941,-2,1,-1,-4,-2,4,-1,-2
1532627685946,-3,-1,0,1,1,12,0,0
1532627685951,-1,-1,-3,-1,-4,11,0,-2
1532627685956,-2,-2,-3,-1,2,-20,-7,-2
1532627685961,1,-1,-1,2,1,6,5,1
1532627685966,2,1,0,-4,-2,-15,-1,-1
1532627685971,-2,1,1,3,4,46,6,2
1532627685976,-2,-2,1,6,-4,-24,-9,0
1532627685981,1,-1,-2,-3,0,24,3,2
1532627685986,2,0,0,2,8,1,-27,1
1532627685991,-1,-1,-1,-5,-4,-5,-15,1
1532627685996,-2,-2,-5,-7,-5,-2,16,-2
1532627686001,2,2,1,4,1,10,16,-1
1532627686006,0,-1,1,1,-2,-20,19,0
1532627686011,-4,0,-1,-1,0,-4,8,-1
1532627686016,1,0,2,1,-1,8,0,-1
1532627686021,-1,0,0,-1,2,-12,0,0
1532627686026,-1,-2,-1,-1,1,12,3,0
1532627686031,0,-3,-1,-3,-2,-7,1,2
1532627686036,0,2,0,3,-2,5,-3,-2
1532627686041,1,-1,2,6,1,-7,-8,-1
1532627686046,-2,-2,-3,-9,-5,1,-1,-1
1532627686051,-2,-2,-2,-1,10,-5,1,-1
1532627686056,-1,-1,-2,-1,-3,-11,-3,-1
1532627686061,-3,-2,-2,-9,-6,6,-7,-4
1532627686066,1,1,1,4,-1,-2,9,6
1532627686071,-2,-1,-2,-4,-4,-6,1,-3
1532627686076,0,-1,-1,0,-1,7,-5,2
1532627686081,0,1,-1,2,4,-10,3,0
1532627686086,-1,0,-2,-3,-1,5,-5,-4
1532627686091,-1,-2,0,-5,-3,10,-1,-2
1532627686096,-2,0,-1,-1,-1,-28,3,-1
1532627686101,0,-1,2,3,-2,-4,-7,2
1532627686106,-2,-1,0,3,2,7,0,-5
1532627686111,0,-1,-2,-5,-3,-15,1,-1
1532627686116,-1,-3,-1,-2,0,26,-2,-1
1532627686121,0,1,-1,3,2,-15,-3,0
1532627686126,-1,-1,-2,-5,-1,-21,1,0
1532627686131,-1,-1,2,1,-2,28,1,0
1532627686136,2,-1,-2,0,-1,-5,0,-1
1532627686141,-4,-3,-3,-4,4,37,6,-2
1532627686146,0,1,-1,-2,-8,-49,-19,-5
1532627686151,0,-1,-2,-3,-1,28,11,2
1532627686156,-1,0,3,0,-3,-40,-8,-1
1532627686161,0,1,2,3,0,-4,-1,-1
1532627686166,-1,-3,0,2,1,30,-5,-3
1532627686171,-1,-1,0,0,6,-5,-5,-3
1532627686176,0,0,-2,-4,-2,4,1,-2
1532627686181,-2,-2,-4,-4,-11,-25,-6,-2
1532627686186,0,1,2,3,3,48,13,1
1532627686191,-3,0,2,-1,2,-35,-10,-5
1532627686196,-2,-2,2,3,3,6,-2,-2
1532627686201,-1,-1,-4,-5,-4,6,2,-1
1532627686206,-1,-1,-1,-4,-2,-9,2,-3
1532627686211,1,-1,-1,4,1,-23,0,4
1532627686216,-3,1,-1,0,4,29,-5,-4
1532627686221,-2,-1,-1,-2,-3,-22,-5,2
1532627686226,-1,-3,-2,-7,0,9,1,-3
1532627686231,0,-1,-2,-1,-2,1,3,3
1532627686236,0,-1,0,-1,4,-3,-4,-1
1532627686241,-2,-1,-2,-6,-12,7,5,-1
1532627686246,-1,1,1,2,-4,4,-3,1
1532627686251,-1,-1,0,-1,0,28,5,-2
1532627686256,1,-1,-1,0,-4,-38,-9,1
1532627686261,0,-1,-2,2,1,1,-11,-3
1532627686266,-3,0,1,-2,-4,-5,1,1
1532627686271,0,1,1,1,5,7,4,-3
1532627686276,-1,-2,-1,-1,-1,27,8,-1
1532627686281,1,-1,1,-1,-5,-21,4,0
1532627686286,0,-1,-3,-1,7,-8,-12,-3
1532627686291,-1,-2,-1,0,-2,-20,-2,-4
1532627686296,0,0,-1,-1,6,52,1,-5
1532627686301,0,-2,2,5,3,5,7,11
1532627686306,0,0,-4,-4,0,-16,3,-3
1532627686311,-2,-1,-1,-4,-8,-8,-5,0
1532627686316,-3,-3,-2,0,-1,-10,3,-2
1532627686321,-1,1,1,-1,1,11,0,-2
1532627686326,1,-1,-1,2,9,19,3,3
1532627686331,0,1,2,4,1,-17,-1,-2
1532627686336,0,1,-1,-5,-5,-24,0,1
1532627686341,-2,-2,1,-1,1,0,-8,-3
1532627686346,-2,-1,2,0,-5,-2,2,-1
1532627686351,0,-3,-4,-2,-1,9,3,0
1532627686356,-1,-1,1,2,-2,5,-3,1
1532627686361,-2,-1,-3,-2,-1,-13,-2,0
1532627686366,1,0,-1,-1,-4,-5,-2,0
1532627686371,-1,0,1,0,1,15,3,-2
1532627686376,-2,-2,0,-5,-9,-21,-2,1
1532627686381,-1,0,-1,0,0,-15,-1,-8
1532627686386,0,0,1,4,7,27,7,6
1532627686391,1,-1,-2,-1,4,9,3,4
1532627686396,-2,-3,-4,-6,-6,-13,0,-2
1532627686401,0,0,3,4,4,-6,-7,0
1532627686406,-2,-1,2,-1,-3,7,-2,-7
1532627686411,0,1,2,-1,2,-9,9,4
1532627686416,1,-1,-3,-3,1,6,2,0
1532627686421,-1,-3,-3,-3,2,9,3,-1
1532627686426,0,1,0,2,-3,-8,-4,-2
1532627686431,-1,0,-1,2,0,21,-10,0
1532627686436,-2,1,0,1,2,-26,-2,-5
1532627686441,-1,1,-1,3,-1,20,3,-1
1532627686446,0,-3,-2,-1,-4,-13,6,-1
1532627686451,1,1,1,-3,0,-28,-19,-1
1532627686456,-1,0,0,3,1,17,16,3
1532627686461,1,-2,-2,-4,-1,-1,-3,0
1532627686466,-1,0,-1,-1,-5,2,3,0
1532627686471,-3,-3,-2,-2,-1,-2,4,-4
1532627686476,0,1,-1,-3,-1,9,-7,-3
1532627686481,0,0,0,-3,0,-3,2,10
1532627686486,-2,-1,-1,-1,-3,-3,-6,-4
1532627686491,0,0,-1,-2,-1,-16,4,0
1532627686496,0,0,0,1,0,-5,-7,-4
1532627686501,-2,-1,0,-1,1,4,-1,-6
1532627686506,0,0,0,4,-2,2,-2,0
1532627686511,-1,0,-3,0,-4,-26,-2,0
1532627686516,-1,-1,0,0,3,35,14,2
1532627686521,0,0,2,1,0,1,-5,1
1532627686526,-2,-1,-4,-2,-2,-7,1,0
1532627686531,-2,-2,-6,-6,-4,11,3,-2
1532627686536,-2,-4,-2,-3,5,-3,3,0
1532627686541,-1,1,1,-2,-12,0,0,-2
1532627686546,1,-1,1,-1,2,21,2,0
1532627686551,-2,0,0,4,-3,-27,-7,-9
1532627686556,0,0,-1,1,-1,-7,-3,-1
1532627686561,2,-1,0,0,2,5,-1,10
1532627686566,-2,-2,-4,-3,-3,-8,7,-3
1532627686571,0,-2,-2,-1,1,18,3,6
1532627686576,1,-1,1,1,0,-3,1,2
1532627686581,0,-1,-2,-2,0,-12,-12,-6
1532627686586,0,-1,0,-2,0,14,14,0
1532627686591,-2,-1,0,1,2,-11,-7,-6
1532627686596,-1,-1,-3,-2,-4,8,0,-1
1532627686601,-3,-1,-4,-4,-2,12,6,-4
1532627686606,0,1,0,2,0,-23,-16,3
1532627686611,-2,-2,-1,1,-4,-5,3,-4
1532627686616,-2,0,1,1,1,17,5,4
1532627686621,-1,0,-2,-3,-1,-20,-4,-5
1532627686626,0,-3,-4,-5,0,6,1,-2
1532627686631,-1,-1,2,4,0,6,2,0
1532627686636,-1,1,-1,-2,-4,-10,-4,0
1532627686641,0,-2,-1,0,5,10,2,-3
1532627686646,0,-1,1,3,-2,-10,8,-1
1532627686651,0,0,1,2,-3,4,-3,-2
1532627686656,2,-1,-3,-1,-2,-8,-6,8
1532627686661,-2,-1,-4,-7,0,2,-1,-5
1532627686666,-2,-1,-2,-3,1,-10,-2,-1
1532627686671,-1,-1,-3,-1,-3,17,-3,-1
1532627686676,-1,1,2,4,-1,-16,1,-4
1532627686681,0,1,2,5,-3,-11,-1,-1
1532627686686,0,-2,-3,-2,-2,5,-1,-1
1532627686691,-1,0,-1,-3,0,1,2,0
1532627686696,-3,-2,1,-1,0,-2,-7,-4
1532627686701,-2,-2,0,-1,-2,4,-1,2
1532627686706,-1,-1,-1,0,-2,6,-9,-2
1532627686711,2,2,4,6,9,-14,6,4
1532627686716,1,-5,-8,-11,-14,-15,-1,1
1532627686721,-3,-3,-2,1,3,2,6,-4
1532627686726,-1,-2,2,-2,-1,4,-6,4
1532627686731,-1,-2,0,1,1,-1,-3,-3
1532627686736,0,2,1,0,-10,2,6,-1
1532627686741,3,0,-1,0,1,-15,1,7
1532627686746,0,-1,-2,1,0,-7,3,-1
1532627686751,0,-1,-1,-5,0,8,0,-1
1532627686756,-2,2,0,4,10,4,0,-4
1532627686761,-2,-2,0,0,-13,6,0,-1
1532627686766,-1,-1,-2,-2,-3,6,3,0
1532627686771,-1,1,-1,0,2,-20,1,-2
1532627686776,-3,-4,-3,-5,4,1,-9,0
1532627686781,-1,-1,-1,-2,2,1,-1,-5
1532627686786,0,1,1,-1,0,1,10,0
1532627686791,0,-2,-1,-2,-5,-8,4,-1
1532627686796,1,1,3,7,5,11,-11,0
1532627686801,0,0,1,3,5,-5,4,0
1532627686806,-1,-3,-4,-10,-9,-3,-4,-2
1532627686811,-3,-1,-3,-4,-4,7,5,0
1532627686816,0,0,-3,-1,-2,-1,2,0
1532627686821,-1,-2,-2,-1,2,-3,-8,-3
1532627686826,1,2,4,6,4,-13,3,0
1532627686831,-2,-1,0,4,0,10,-5,-7
1532627686836,0,-1,-3,-4,1,-3,2,3
1532627686841,0,-2,0,-4,-2,2,1,3
1532627686846,-1,-1,-1,0,1,-1,3,-1
1532627686851,1,0,2,0,2,8,-3,1
1532627686856,-3,0,0,2,1,1,2,-8
1532627686861,-2,-2,-5,-5,-11,-11,1,-4
1532627686866,-1,-1,0,-4,1,-4,-1,-1
1532627686871,-1,-1,-1,0,-1,12,-4,2
1532627686876,1,0,0,0,1,-12,1,-4
1532627686881,0,-1,0,0,1,18,-1,-1
1532627686886,-1,2,4,3,0,-27,-6,1
1532627686891,1,-3,-5,-7,-5,15,9,2
1532627686896,-2,0,-1,-5,-5,-18,2,0
1532627686901,-1,0,1,2,4,7,12,-1
1532627686906,0,0,-2,2,-1,-4,-4,-4
1532627686911,-3,1,2,2,-1,12,2,-2
1532627686916,0,-2,0,0,-3,-1,0,3
1532627686921,-2,-1,-3,-7,4,3,2,-6
1532627686926,-1,0,-3,2,1,-14,-9,0
1532627686931,-1,-1,-1,-1,0,6,10,5
1532627686936,-2,0,1,3,-2,-12,-2,-3
1532627686941,3,1,1,2,-1,-2,2,6
1532627686946,-2,-2,-2,-4,-1,19,5,-2
1532627686951,-1,-1,-4,-7,-4,-15,-2,-1
1532627686956,0,-1,-1,0,2,4,-5,-3
1532627686961,-5,-4,-5,-4,-3,-2,3,-5
1532627686966,0,0,-1,3,1,4,7,-1
1532627686971,1,0,-2,-1,-2,-2,-2,1
1532627686976,-1,-1,1,-2,-2,-6,-2,-2
1532627686981,2,2,-1,3,1,-9,-2,0
1532627686986,1,1,-1,-1,0,22,-3,2
1532627686991,-2,-1,2,5,3,-4,-6,-2
1532627686996,-2,-2,-3,0,-2,-15,5,-7
1532627687001,2,-2,-1,-3,-5,9,4,9
1532627687006,0,-1,-4,-5,-3,-8,-2,-1
1532627687011,-1,-1,-1,-4,-2,3,-3,-2
1532627687016,0,0,-1,2,3,3,9,4
1532627687021,-3,-1,1,5,2,-8,-5,-8
1532627687026,-1,-1,1,-2,4,3,-1,0
1532627687031,-2,-2,-1,-3,-14,-17,-2,0
1532627687036,-2,-2,-2,-3,-2,15,4,-3
1532627687041,-3,-1,-2,1,1,2,1,-2
1532627687046,0,-4,-3,-1,0,2,-1,3
1532627687051,-1,0,-1,4,4,9,2,-2
1532627687056,0,-1,-1,-1,0,17,3,2
1532627687061,-1,0,1,-3,-3,-21,-4,-1
1532627687066,-1,-2,0,0,-1,-7,-3,-4
1532627687071,1,0,0,0,5,-1,0,-1
1532627687076,-2,-2,-1,-3,-1,9,0,1
1532627687081,1,0,0,2,2,1,-4,-2
1532627687086,-1,0,-1,2,1,6,9,-4
1532627687091,0,-1,-3,-5,-3,-11,-7,-1
1532627687096,1,-5,-4,-4,-1,-4,0,-4
1532627687101,-1,-2,-2,-5,-4,20,0,-3
1532627687106,0,3,1,3,2,-15,-1,7
1532627687111,-3,0,0,0,0,3,9,-3
1532627687116,1,-2,1,-1,-1,-1,2,4
1532627687121,0,-1,-1,1,1,3,2,-5
1532627687126,-1,-1,-1,-1,-2,-8,6,-1
1532627687131,-1,0,2,0,-5,-1,-10,-1
1532627687136,1,0,-1,-2,-1,-6,-2,-1
1532627687141,0,0,1,-1,1,2,3,2
1532627687146,-2,-1,-1,-1,-2,-5,-2,-4
1532627687151,0,-2,-2,-1,0,-11,2,-3
1532627687156,-2,-1,2,1,0,5,-3,-2
1532627687161,-2,-2,-4,-7,-4,-3,1,1
1532627687166,-1,-4,-1,0,-2,-2,-5,-2
1532627687171,-1,0,-1,0,2,5,7,-2
1532627687176,1,0,-2,1,-4,1,-9,-2
1532627687181,0,-1,-2,0,1,-18,2,-6
1532627687186,-2,-1,-1,-4,-1,2,-2,3
1532627687191,-2,-3,-1,-1,-3,2,6,0
1532627687196,-2,3,2,1,0,-3,-7,-2
1532627687201,1,0,2,5,-2,-6,-6,2
1532627687206,-1,0,-3,-4,-4,1,-1,-5
1532627687211,-2,-1,-2,-2,-1,-1,-2,-2
1532627687216,-1,-1,-2,-1,-2,5,3,2
1532627687221,-1,-2,1,1,-1,-10,1,-1
1532627687226,1,2,-1,-1,0,7,5,1
1532627687231,0,0,1,1,1,4,-4,0
1532627687236,0,-2,-2,-4,-6,-31,10,-3
1532627687241,0,-1,-4,-4,1,19,-2,3
1532627687246,-1,-2,-1,-5,-1,-3,8,-1
1532627687251,-1,-1,-1,0,-1,1,-3,-1
1532627687256,-2,-2,0,0,0,-13,-5,-1
1532627687261,1,1,2,2,1,-1,8,3
1532627687266,0,1,-1,3,-2,2,4,-4
1532627687271,0,-2,-3,-4,-2,1,4,4
1532627687276,-1,-1,-3,-5,1,9,-1,-2
1532627687281,-3,-2,-1,-1,-1,-5,0,-2
1532627687286,-3,-1,0,1,1,9,-1,-7
1532627687291,-2,-1,1,3,3,-7,-2,-4
1532627687296,0,-1,1,0,-4,22,-1,3
1532627687301,0,-2,-2,-2,-3,-29,-6,-1
1532627687306,1,-1,0,-1,-2,4,1,1
1532627687311,-1,-2,-4,-2,0,-7,-1,0
1532627687316,0,-2,-2,0,5,21,16,1
1532627687321,0,1,0,2,1,-14,-15,-3
1532627687326,0,0,3,5,6,-5,-2,-4
1532627687331,0,0,0,-2,-12,-4,2,4
1532627687336,-2,-3,-7,-7,-4,-3,4,-1
1532627687341,-2,-1,-3,-2,-5,13,10,-2
1532627687346,-1,-2,-4,-3,0,-7,-3,0
1532627687351,0,0,4,2,3,9,7,-3
1532627687356,0,2,2,4,5,-21,-10,-6
1532627687361,-1,2,2,3,-5,6,-1,11
1532627687366,-2,-3,-3,-8,-4,-11,5,-2
1532627687371,1,0,-2,0,3,7,-5,0
1532627687376,0,-1,0,1,-1,0,4,3
1532627687381,-1,-1,-2,0,6,9,-1,-5
1532627687386,-1,-1,1,1,-4,-16,-8,0
1532627687391,-2,-3,1,0,-1,8,9,-2
1532627687396,-1,-2,-3,0,4,-17,-6,3
1532627687401,-2,-2,0,-1,2,16,14,-4
1532627687406,1,-1,-2,-1,0,12,-2,4
1532627687411,1,0,-2,0,-2,-28,4,-3
1532627687416,-2,0,1,1,-4,2,-7,-3
1532627687421,-1,0,0,1,-2,0,-4,-2
1532627687426,-2,-2,-2,-6,-6,-8,-2,0
1532627687431,0,-2,-2,0,3,8,2,-2
1532627687436,-3,-1,0,1,2,20,3,-3
1532627687441,0,-1,-3,-4,-12,-7,12,4
1532627687446,-1,-1,0,1,-4,-20,-5,-14
1532627687451,-1,-1,-1,-2,1,-4,-3,13
1532627687456,-1,-1,-2,-2,-3,1,7,-2
1532627687461,0,-2,-1,-3,4,7,-7,-4
1532627687466,0,-1,0,0,0,4,17,1
1532627687471,1,1,3,4,5,5,1,1
1532627687476,1,0,-1,1,2,-1,-4,-1
1532627687481,-1,-5,-7,-11,-7,-1,8,-2
1532627687486,1,0,0,-1,-2,6,-8,3
1532627687491,-2,-1,-2,-2,0,5,3,-5
1532627687496,2,2,5,5,2,-10,-1,3
1532627687501,-1,0,1,4,4,1,-3,-5
1532627687506,2,-2,-1,2,2,16,1,5
1532627687511,-2,-1,-3,-5,-2,-11,4,-7
1532627687516,-1,0,-1,-2,-2,-4,10,2
1532627687521,-1,-1,-1,0,1,-15,-20,0
1532627687526,-2,-1,0,2,2,11,4,-1
1532627687531,1,0,-3,0,-5,-3,-2,-5
1532627687536,0,-3,-2,-3,-2,-2,5,-2
1532627687541,0,-1,-2,-1,0,0,5,9
1532627687546,-1,1,1,0,2,5,1,-1
1532627687551,-1,0,0,-1,-1,-3,-4,-3
1532627687556,-2,-1,-1,-3,-4,-10,-3,-3
1532627687561,-1,0,0,2,1,12,-5,-2
1532627687566,1,-1,0,0,-1,-4,23,-1
1532627687571,-1,-2,-2,-1,-1,4,11,5
1532627687576,2,0,3,5,6,-9,-29,0
1532627687581,0,-1,-5,-3,0,-3,3,-1
1532627687586,0,-1,-1,-4,-2,-2,-5,-4
1532627687591,-1,-3,-2,-1,-2,2,11,-2
1532627687596,-2,-1,0,-1,1,10,13,4
1532627687601,-1,2,3,4,-1,4,2,4
1532627687606,-4,0,-3,-4,-1,-21,-11,-4
1532627687611,0,-2,-3,-1,1,6,-5,-4
1532627687616,0,-1,-1,-3,-5,-3,1,-3
1532627687621,-2,-2,-2,-2,0,0,9,-3
1532627687626,1,1,-2,0,0,4,-11,4
1532627687631,0,0,1,2,4,3,-8,1
1532627687636,-3,-1,-2,1,-1,-3,4,-8
1532627687641,-2,0,2,3,1,4,11,-2
1532627687646,1,-1,-2,-3,-2,-2,5,3
1532627687651,1,-1,0,-1,0,-3,-4,-3
1532627687656,1,-1,-4,-4,1,1,-1,-1
1532627687661,-3,-1,1,1,0,4,8,-7
1532627687666,-2,0,-1,-1,-3,-15,-14,-3
1532627687671,-1,0,0,-2,-4,0,0,-5
1532627687676,1,0,-1,-2,-4,1,7,16
1532627687681,0,-1,1,2,2,10,0,-3
1532627687686,-2,-1,-2,-3,-7,-20,-2,-6
1532627687691,-1,-2,-3,-3,-3,6,-2,-1
1532627687696,-1,0,-2,0,-2,-4,1,-4
1532627687701,0,-2,0,-1,1,-5,-6,3
1532627687706,-1,-1,4,4,2,18,8,1
1532627687711,-1,-2,-7,-11,-4,-8,2,-4
1532627687716,-1,-2,0,0,-1,4,-1,-2
1532627687721,-1,2,-1,-1,-2,-3,-1,-1
1532627687726,-2,-1,-1,3,3,4,3,-1
1532627687731,2,-1,2,2,1,6,7,5
1532627687736,0,-1,-1,-1,2,-8,4,2
1532627687741,0,-1,0,-2,-1,-8,-7,-3
1532627687746,-2,-3,-3,1,0,4,2,0
1532627687751,-2,1,-1,-2,0,3,1,-3
1532627687756,-3,-2,0,-1,-1,-6,3,-4
1532627687761,1,0,-1,0,-1,-8,2,11
1532627687766,-1,-1,-4,-4,-2,7,2,-1
1532627687771,-3,-1,-1,0,3,9,5,1
1532627687776,0,1,2,3,0,-8,-5,-8
1532627687781,0,-2,-3,-3,0,-6,-3,-7
1532627687786,3,0,1,1,2,1,6,10
1532627687791,1,-1,0,1,-3,-2,2,-1
1532627687796,-2,-2,-3,-8,-3,2,-1,-2
1532627687801,-1,-1,-1,-1,-2,-2,-1,-3
1532627687806,1,0,-2,-1,0,7,4,3
1532627687811,-2,1,3,3,2,-13,-4,0
1532627687816,0,-1,0,2,-1,2,1,-1
1532627687821,1,-1,1,-2,-1,0,4,2
1532627687826,-3,-1,-1,-2,0,6,0,-16
1532627687831,-2,0,0,2,-3,2,-3,3
1532627687836,-2,-2,-4,-4,0,-6,0,7
1532627687841,-1,-1,1,0,-1,4,3,-6
1532627687846,1,0,-1,0,-2,-3,-2,3
1532627687851,-3,-2,-1,-5,-4,9,-3,-7
1532627687856,-1,-1,-3,-3,0,-16,-2,-2
1532627687861,-1,-1,2,3,0,8,0,0
1532627687866,-2,-2,-3,-4,-4,-11,0,-2
1532627687871,-2,0,0,2,-3,0,-3,2
1532627687876,-1,0,-1,-1,0,13,3,-4
1532627687881,0,0,-3,-3,1,-5,-1,1
1532627687886,-2,-2,0,0,-2,8,-2,-5
1532627687891,2,-2,-1,0,5,-10,-8,8
1532627687896,-1,-2,-5,-9,-3,-4,1,4
1532627687901,-1,-2,-3,-2,-1,-2,2,-1
1532627687906,0,-2,0,1,-2,7,3,-4
1532627687911,-1,-1,-2,0,-1,-2,6,4
1532627687916,0,0,3,4,5,-1,-2,-1
1532627687921,2,0,-1,-2,-2,2,3,0
1532627687926,-2,-3,-4,-4,-5,-4,8,0
1532627687931,-2,-2,-3,-3,-6,0,-3,-5
1532627687936,-1,1,0,0,3,-2,-3,-4
1532627687941,-1,-1,-1,-1,0,-3,0,10
1532627687946,-2,1,3,2,2,0,-1,-7
1532627687951,-1,1,0,1,1,8,2,2
1532627687956,0,-1,-2,-4,-5,-9,-5,1
1532627687961,-1,-1,0,-2,-1,-2,0,-2
1532627687966,-2,-2,-1,-1,-1,2,0,-2
1532627687971,-2,-1,-2,-1,-3,2,2,-2
1532627687976,-1,0,1,3,2,5,7,-1
1532627687981,1,-3,0,0,0,-9,1,0
1532627687986,1,-2,-5,-3,0,-3,0,2
1532627687991,0,-1,2,0,-1,1,-1,-2
1532627687996,-1,0,-3,0,-1,9,1,1
1532627688001,0,-1,-1,1,-6,-12,1,-2
1532627688006,0,-1,-1,-4,4,-5,-3,1
1532627688011,-1,0,-2,-2,4,1,-3,-2
1532627688016,0,-1,1,-2,-3,-4,3,-1
1532627688021,-2,0,0,-1,0,9,-1,-6
1532627688026,1,2,2,3,-2,7,8,11
1532627688031,0,1,-2,-3,3,-15,0,1
1532627688036,-2,-2,-4,-4,-4,8,3,2
1532627688041,0,0,1,2,-1,-10,-7,-5
1532627688046,-1,2,5,0,-2,0,3,-2
1532627688051,0,-5,-3,-3,-1,6,1,-1
1532627688056,-1,-1,-1,1,0,6,2,-2
1532627688061,0,0,-1,-1,2,-5,2,2
1532627688066,0,0,0,2,1,0,-1,-2
1532627688071,0,-1,2,0,-3,0,-1,-3
1532627688076,0,0,-2,-2,-2,-6,2,-1
1532627688081,-1,-2,-3,-2,2,7,2,-2
1532627688086,0,-1,-1,-3,-1,-9,1,2
1532627688091,-3,1,-1,1,0,-1,-5,-6
1532627688096,-1,0,1,1,-3,-2,0,0
1532627688101,0,-1,0,1,0,4,4,1
1532627688106,-1,0,-2,-4,-3,8,-2,-6
1532627688111,1,-3,-3,-1,0,-11,0,0
1532627688116,-1,2,4,-1,-3,-10,-5,-2
1532627688121,-1,-2,-3,-1,0,7,1,-4
1532627688126,-2,-3,-1,0,0,1,-2,9
1532627688131,0,-1,1,0,-2,12,6,-1
1532627688136,0,0,0,3,0,-16,-4,1
1532627688141,0,1,2,-2,-2,0,-4,-5
1532627688146,-1,-2,-2,0,-2,-1,2,-2
1532627688151,-2,-1,-3,-2,-1,-1,1,-1
1532627688156,1,-2,-2,0,0,15,3,1
1532627688161,-2,0,-1,-1,-2,-19,-6,0
1532627688166,-3,-3,-4,0,2,6,-2,-3
1532627688171,-2,-1,0,-1,2,6,4,-1
1532627688176,-1,-4,-5,-4,-2,-4,-5,-3
1532627688181,-1,-3,-2,-3,-3,8,0,-1
1532627688186,2,0,0,0,3,-19,-3,-2
1532627688191,-1,-2,-1,0,-5,-5,-2,-9
1532627688196,0,-3,2,0,3,2,3,8
1532627688201,0,0,-1,3,1,3,2,2
1532627688206,-1,-1,-3,-5,-2,15,2,-4
1532627688211,0,1,0,1,-1,-16,2,3
1532627688216,-1,-1,-2,-3,-2,-11,-7,-4
1532627688221,0,-2,-3,0,-2,6,0,0
1532627688226,-2,-1,1,1,0,4,3,-2
1532627688231,0,0,-1,-1,-1,21,1,-6
1532627688236,1,-2,-2,0,-2,-20,-1,13
1532627688241,1,1,4,3,2,-3,0,-2
1532627688246,0,-2,-4,-2,-6,-1,3,1
1532627688251,-1,-2,-3,-3,0,-1,-5,-4
1532627688256,-4,-2,0,-3,3,8,7,-8
1532627688261,0,-1,-1,-1,0,4,1,1
1532627688266,1,1,3,4,0,-6,-3,1
1532627688271,-2,-2,-1,1,-2,8,3,5
1532627688276,-1,-3,-2,-2,0,-3,1,-4
1532627688281,-2,-2,0,-3,-1,0,-1,-1
1532627688286,-1,-1,-2,-3,-3,1,-2,-2
1532627688291,0,1,2,-2,-2,-24,-7,1
1532627688296,-1,1,-1,0,1,8,2,-2
1532627688301,-1,-1,0,0,1,22,6,0
1532627688306,-2,0,-1,1,0,-10,-3,-2
1532627688311,0,0,0,0,0,-3,2,0
1532627688316,0,-1,-3,0,-1,0,-1,-1
1532627688321,-1,0,-2,-3,-7,-1,-1,-3
1532627688326,0,1,-2,3,4,0,0,3
1532627688331,-1,-2,-2,-1,-3,-2,2,0
1532627688336,-2,-2,-1,0,2,-1,-6,-15
1532627688341,2,-2,0,2,0,-3,2,17
1532627688346,1,0,-2,-1,1,1,0,1
1532627688351,-2,-2,-2,-5,-5,-5,-3,7
1532627688356,0,0,2,3,1,21,3,-4
1532627688361,-1,-3,-4,-4,-4,-18,-3,-8
1532627688366,0,-1,0,-3,-2,-7,-1,-3
1532627688371,1,-2,0,1,3,16,6,0
1532627688376,-3,-1,1,0,-3,3,-1,2
1532627688381,-3,0,-2,0,2,-5,-5,-4
1532627688386,0,-2,-2,-1,1,-14,1,-2
1532627688391,1,-1,-4,-4,-1,2,-2,-4
1532627688396,-1,0,0,-2,-1,2,2,2
1532627688401,0,1,2,2,2,2,2,-1
1532627688406,-1,2,-1,1,-2,2,-3,-3
1532627688411,-1,-2,-2,0,3,6,3,-1
1532627688416,0,-2,-2,-4,-5,-21,-7,0
1532627688421,0,-1,-2,-1,-1,-11,-1,-2
1532627688426,-3,-1,-2,-2,-2,4,1,-2
1532627688431,-1,1,4,0,-1,1,-1,-2
1532627688436,-1,1,-1,-2,-1,7,6,2
1532627688441,-2,-1,0,-1,0,-11,-5,-7
1532627688446,-1,-2,0,0,0,3,1,-3
1532627688451,0,0,2,4,1,-10,-3,10
1532627688456,0,-2,-3,-3,-4,1,1,-2
1532627688461,-1,-2,-3,-4,0,23,4,0
1532627688466,-2,0,0,-2,0,-24,2,-4
1532627688471,-3,-1,-2,-1,1,2,0,-6
1532627688476,0,0,1,2,1,-4,2,2
1532627688481,-2,1,2,1,-1,-2,0,-3
1532627688486,-1,-2,1,-1,-3,2,-4,3
1532627688491,-2,-1,-3,-4,1,1,4,0
1532627688496,1,-2,0,-1,-1,-7,-4,-1
1532627688501,-1,0,-1,-3,1,10,5,-3
1532627688506,-1,0,2,0,-1,4,0,-4
1532627688511,0,-1,-2,-1,-3,-8,-1,-2
1532627688516,-1,0,0,-1,3,4,1,-1
1532627688521,0,-3,-2,-1,-3,-9,-2,0
1532627688526,-1,-3,-1,0,-1,-5,1,0
1532627688531,1,-1,-3,-2,-4,6,1,-1
1532627688536,1,0,-1,0,5,-1,0,0
1532627688541,-1,-1,1,2,-1,3,0,-1
1532627688546,-1,2,2,-2,-2,4,1,0
1532627688551,-1,-3,-5,-1,-2,2,-1,-1
1532627688556,-1,0,0,3,-1,-8,-1,1
1532627688561,-2,-2,-2,-4,-7,-1,5,3
1532627688566,1,0,-3,-2,0,-2,-1,-6
1532627688571,-1,1,5,-1,1,-3,-6,12
1532627688576,-1,-1,-5,-1,-5,0,3,-4
1532627688581,-1,-2,0,3,3,-4,-2,-1
1532627688586,-2,0,-4,-6,-1,7,0,-2
1532627688591,-3,-1,0,-1,0,-5,1,-6
1532627688596,0,1,-1,-2,-3,1,1,2
1532627688601,-1,-1,-1,1,1,-1,0,-1
1532627688606,1,-1,0,0,-3,4,0,0
1532627688611,2,-2,-1,1,-2,-2,0,-4
1532627688616,-2,-2,0,-1,0,-10,0,-1
1532627688621,0,0,-2,-3,-1,-13,-1,4
1532627688626,-2,0,-2,-1,0,12,-1,0
1532627688631,1,0,-1,1,-3,1,3,-2
1532627688636,-2,-2,-2,-2,1,10,0,-4
1532627688641,-1,-1,0,-1,-1,3,2,-1
1532627688646,-1,-2,-2,2,1,-12,-1,2
1532627688651,-3,0,-2,-2,-5,-12,-3,-7
1532627688656,-2,-1,-1,-3,-6,10,0,1
1532627688661,0,-2,-4,-1,3,-6,2,3
1532627688666,-1,-2,0,0,0,8,1,0
1532627688671,-2,0,1,1,6,5,1,-2
1532627688676,-1,0,2,2,2,-7,-6,-3
1532627688681,0,-1,0,0,0,13,0,1
1532627688686,0,-4,-2,-5,-5,-3,2,-1
1532627688691,0,1,0,-3,4,-6,-3,-3
1532627688696,0,2,2,2,3,4,5,2
1532627688701,-2,-2,-1,-1,-2,6,1,-5
1532627688706,-1,-2,-1,4,0,16,4,1
1532627688711,0,1,0,0,0,-24,-1,1
1532627688716,-1,1,-1,2,0,1,-2,-1
1532627688721,-1,0,0,-6,-2,-8,-3,1
1532627688726,-1,-1,-2,-4,4,0,0,-4
1532627688731,-3,-2,-4,-3,-5,9,0,-1
1532627688736,0,1,2,-1,-4,0,0,-1
1532627688741,-1,0,0,5,1,6,0,-3
1532627688746,-2,-1,-3,0,13,-13,-5,-4
1532627688751,0,0,1,0,3,5,0,7
1532627688756,0,-3,-3,-6,-19,-16,3,4
1532627688761,-1,0,-2,-5,-11,6,0,-2
1532627688766,0,0,1,-2,-6,-9,1,0
1532627688771,-2,-2,2,0,-1,8,3,-7
1532627688776,-1,-1,0,2,10,-2,-1,-4
1532627688781,1,-1,-1,0,1,-4,-4,1
1532627688786,-2,-1,-1,0,-5,5,1,0
1532627688791,1,-1,0,0,-3,6,3,0
1532627688796,1,-1,-2,-3,4,-2,1,-6
1532627688801,0,0,-1,-1,-4,-9,3,3
1532627688806,0,-2,0,1,1,3,2,7
1532627688811,-2,-1,-1,-1,-4,-3,-1,0
1532627688816,-2,-2,-2,0,8,1,-2,-4
1532627688821,-2,-1,-1,-3,-3,-4,-1,-14
1532627688826,0,0,-1,2,-1,-3,1,10
1532627688831,-3,0,-2,-1,0,9,3,-2
1532627688836,-2,-2,-1,1,-4,-9,-4,-3
1532627688841,0,3,2,3,4,0,-4,-2
1532627688846,2,-1,-3,-5,-5,1,3,-5
1532627688851,0,-1,0,-1,0,-6,0,-3
1532627688856,-1,-1,-4,-6,0,7,6,1
1532627688861,0,-4,-4,-3,-1,2,-1,-1
1532627688866,0,1,2,5,-5,-8,-2,-1
1532627688871,0,-2,-3,-2,1,-8,-10,-2
1532627688876,-1,-1,-3,1,3,-1,-1,2
1532627688881,-1,-1,-1,-5,-8,-9,0,-2
1532627688886,-1,0,1,0,-3,4,-1,-2
1532627688891,0,-2,1,2,3,5,6,-8
1532627688896,-1,-2,-1,2,6,1,2,13
1532627688901,-1,-1,0,-3,-6,4,1,2
1532627688906,-1,-2,-1,-5,-3,-2,0,-2
1532627688911,0,2,0,-2,-2,3,0,-3
1532627688916,1,1,-1,0,-5,-12,-4,-4
1532627688921,0,-1,0,2,3,9,1,-2
1532627688926,0,-1,0,3,0,-18,1,-1
1532627688931,-2,-3,-1,-1,-3,0,-3,0
1532627688936,0,-3,0,-1,-6,10,4,-4
1532627688941,-2,-1,-1,0,2,-4,-1,0
1532627688946,-1,-1,0,-1,-1,5,3,-2
1532627688951,-1,-3,-4,-3,-1,1,1,1
1532627688956,-2,-1,1,2,-1,-1,-1,-1
1532627688961,1,0,-3,-3,-4,-6,3,1
1532627688966,-2,-2,-2,0,5,6,-3,-2
1532627688971,-2,-1,-3,-1,-2,-4,-6,-4
1532627688976,-1,-1,1,-1,-5,1,2,10
1532627688981,-1,0,4,5,3,14,7,1
1532627688986,1,0,-4,-6,-4,-18,-4,-1
1532627688991,1,0,-1,0,1,-4,-3,1
1532627688996,0,1,0,-4,-2,-6,-1,-6
1532627689001,-4,-2,-2,0,3,2,-3,-3
1532627689006,-1,-1,0,1,4,6,1,0
1532627689011,-2,-2,0,1,0,11,-1,-2
1532627689016,2,-3,-2,-1,-2,-15,0,3
1532627689021,1,0,1,3,-1,-4,0,0
1532627689026,-1,-3,-2,-3,-6,1,0,-5
1532627689031,-1,0,-1,-3,2,-7,1,3
1532627689036,0,0,0,-1,1,13,0,-8
1532627689041,0,-2,-1,1,1,-7,-1,6
1532627689046,0,0,2,1,-2,6,2,8
1532627689051,0,-3,-2,-1,-1,-1,1,-1
1532627689056,-2,-1,-1,0,-1,3,3,-3
1532627689061,1,2,-1,-1,-1,1,-2,-6
1532627689066,-2,0,-2,-2,1,-17,0,-6
1532627689071,-1,0,1,1,0,-11,1,4
1532627689076,-3,0,-1,-1,-1,1,-5,1
1532627689081,-1,-3,1,4,1,-1,3,-4
1532627689086,0,0,-2,-2,0,14,1,0
1532627689091,1,0,-1,-4,-7,1,3,0
1532627689096,0,-3,-6,-6,-2,-6,-1,-4
1532627689101,0,-2,-2,-3,-1,2,0,2
1532627689106,1,1,2,1,-1,3,0,-2
1532627689111,-1,-1,-4,-2,1,-9,2,1
1532627689116,1,0,2,1,-1,5,-2,-2
1532627689121,-1,-1,0,-1,-1,-5,-1,-1
1532627689126,-1,-2,1,4,6,3,-1,-5
1532627689131,0,-1,0,-2,-9,-2,3,2
1532627689136,-1,0,0,-3,-2,4,2,5
1532627689141,0,2,-2,1,2,2,2,4
1532627689146,-2,-1,-2,-5,3,10,-6,-2
1532627689151,1,0,1,2,-1,-24,2,4
1532627689156,-1,0,-1,-1,-1,5,-1,-8
1532627689161,-2,-2,-3,0,-1,-5,-2,-5
1532627689166,-1,-3,0,0,-3,9,2,-2
1532627689171,-1,-1,-3,0,-2,7,-1,-2
1532627689176,0,-2,1,0,-1,-3,2,2
1532627689181,-1,-2,-5,-3,-2,-2,-1,-2
1532627689186,-1,1,0,-1,-5,-5,3,1
1532627689191,-2,-1,0,-1,7,0,-2,-4
1532627689196,-2,-1,-1,0,0,-3,1,-1
1532627689201,0,0,0,-2,7,15,-2,2
1532627689206,-2,-1,0,0,-3,-14,-1,-1
1532627689211,-2,-1,1,2,-3,-4,0,0
1532627689216,-1,-1,-2,-1,2,-1,-3,-3
1532627689221,-1,0,0,1,3,-1,-2,-1
1532627689226,1,-2,-1,0,-1,2,1,1
1532627689231,-2,-2,1,0,3,13,5,-4
1532627689236,-2,0,-2,-1,1,12,0,-5
1532627689241,-2,0,2,-2,-3,-24,2,7
1532627689246,-1,2,0,1,-1,-2,-3,1
1532627689251,0,3,1,-3,-2,8,-2,-1
1532627689256,-1,-2,-4,-7,-3,-3,-2,-5
1532627689261,-1,-1,0,-2,-2,0,2,-3
1532627689266,-1,-3,-1,0,0,0,1,1
1532627689271,1,-1,-3,0,-1,0,0,-1
1532627689276,0,-2,2,4,-6,-8,-3,2
1532627689281,0,1,-2,-2,12,7,-4,-1
1532627689286,2,0,-2,-2,-7,-5,3,3
1532627689291,-1,-2,-2,-5,-2,14,-1,-1
1532627689296,-1,-1,-1,1,6,-12,-1,-2
1532627689301,1,1,2,2,-3,-3,-3,-1
1532627689306,-1,0,-1,0,0,-3,-2,-5
1532627689311,0,0,-1,0,-2,2,-2,-1
1532627689316,0,0,-1,-1,-1,0,1,1
1532627689321,-1,-2,-1,-3,-8,-16,-2,-4
1532627689326,-4,-1,-2,-4,-5,-10,2,-2
1532627689331,-2,-1,-2,0,1,15,0,-4
1532627689336,0,0,0,2,1,-27,-4,10
1532627689341,-1,-1,0,2,-1,8,2,-2
1532627689346,-1,1,-1,-3,-5,-3,2,-1
1532627689351,-2,-1,-3,-3,-4,-15,-5,-2
1532627689356,0,0,1,1,3,26,3,-1
1532627689361,-1,-2,-3,-1,-1,-5,2,-1
1532627689366,1,0,-1,0,4,10,-2,-2
1532627689371,0,2,-5,-2,-3,-20,1,0
1532627689376,1,0,-3,5,9,6,0,1
1532627689381,5,5,1,2,-16,2,3,0
1532627689386,-1,2,1,1,3,8,-3,-4
1532627689391,0,-3,1,2,0,0,1,1
1532627689396,-1,-2,-1,-9,-14,-23,0,1
1532627689401,-2,-2,-4,2,20,15,-4,-4
1532627689406,-1,0,-4,-1,-10,-11,0,-3
1532627689411,-1,1,3,2,-5,-24,1,3
1532627689416,0,2,4,2,9,30,3,-2
1532627689421,-1,-3,-3,-3,-4,0,2,-4
1532627689426,-2,-3,-2,-5,-4,-22,-1,-2
1532627689431,1,0,1,6,9,13,-10,0
1532627689436,0,-4,-3,-4,-9,-14,1,-2
1532627689441,-1,0,-1,-3,-1,-12,2,1
1532627689446,-2,-3,-1,13,15,26,5,0
1532627689451,-1,-9,-21,-16,-21,-10,3,-2
1532627689456,0,6,-2,-1,10,6,-4,-2
1532627689461,0,0,3,-6,-15,1,-3,-2
1532627689466,0,0,30,-2,6,-26,-4,0
1532627689471,-2,-7,-35,-1,4,3,0,1
1532627689476,-2,0,6,2,-4,15,2,0
1532627689481,1,2,-14,9,6,-28,2,1
1532627689486,0,3,22,8,-1,14,-3,-2
1532627689491,-1,3,12,-8,-7,2,3,-1
1532627689496,-3,-4,-6,-5,-6,-4,-2,-7
1532627689501,0,2,8,0,6,11,9,10
1532627689506,1,1,-6,5,11,14,6,4
1532627689511,0,2,10,2,10,-40,-4,-1
1532627689516,-2,0,-8,1,-16,13,1,-2
1532627689521,-4,-3,-3,-10,-22,-3,-6,-6
1532627689526,-3,-5,-18,-12,-10,-12,1,-2
1532627689531,-3,1,3,9,16,28,5,-2
1532627689536,-4,-5,7,-3,0,18,5,-2
1532627689541,-1,-2,-4,-8,10,-17,-10,-3
1532627689546,1,0,-9,-2,-15,0,4,1
1532627689551,-1,1,2,-4,-11,-29,-4,-2
1532627689556,-1,-6,-6,-2,5,13,4,1
1532627689561,0,2,1,0,-4,14,5,-2
1532627689566,-3,-4,-14,-1,1,11,1,0
1532627689571,-1,1,9,1,6,41,3,0
1532627689576,0,1,-1,3,4,-8,-1,1
1532627689581,-2,-5,-2,-1,1,-8,-2,-2
1532627689586,1,2,0,-3,-5,8,2,-5
1532627689591,-2,-3,12,1,5,-1,-3,1
1532627689596,2,-4,-9,-5,5,-24,0,1
1532627689601,-2,-2,-4,9,12,17,-4,-5
1532627689606,-2,-2,20,-3,7,10,2,0
1532627689611,1,0,-5,-2,-2,1,4,-5
1532627689616,-1,2,-4,-2,-21,-36,0,6
1532627689621,0,1,6,3,8,-13,-3,-1
1532627689626,-2,-3,-10,0,-2,0,3,2
1532627689631,-1,1,-1,-2,2,6,1,-3
1532627689636,0,2,1,-5,8,4,2,-3
1532627689641,-1,-4,5,-2,-9,9,5,-1
1532627689646,-3,1,-4,0,9,2,-8,-4
1532627689651,2,0,1,2,-5,-16,1,5
1532627689656,-2,0,4,2,6,-15,-2,-2
1532627689661,-2,-3,-3,-10,-7,37,4,-2
1532627689666,0,-1,-5,-6,-10,-12,3,2
1532627689671,-1,-2,-2,-6,-17,-14,3,-1
1532627689676,4,1,7,20,21,21,20,14
1532627689681,1,0,-1,4,19,-25,-5,-1
1532627689686,0,-3,-9,-9,-3,41,-1,0
1532627689691,1,-2,3,-5,-34,-4,5,1
1532627689696,-1,-3,-7,-8,6,-1,-1,-6
1532627689701,-4,-1,-2,-13,-18,-27,2,-7
1532627689706,-2,-3,1,5,4,-7,3,2
1532627689711,-2,0,-2,14,15,-11,-10,0
1532627689716,-4,-2,-2,1,-22,-9,2,-4
1532627689721,2,3,5,9,-7,3,10,7
1532627689726,-1,0,-5,-28,-53,-23,9,5
1532627689731,-1,2,2,1,4,31,6,-2
1532627689736,0,1,4,7,3,-44,-3,1
1532627689741,-1,0,-1,9,35,-6,-13,-2
1532627689746,-1,-1,-3,-13,-59,-9,12,-3
1532627689751,-3,-2,-2,-9,7,-13,-2,0
1532627689756,1,1,0,7,25,52,-3,1
1532627689761,-2,-1,0,4,5,5,7,2
1532627689766,1,0,-2,5,25,-2,-3,-1
1532627689771,-1,-1,-1,-4,-11,-11,-1,-2
1532627689776,-1,-1,0,0,-4,-4,2,-2
1532627689781,-2,-1,-3,-4,-25,-7,0,1
1532627689786,-1,-2,-6,-17,8,-3,-3,-2
1532627689791,-1,0,2,6,3,20,3,0
1532627689796,2,1,-2,-13,-19,-64,3,1
1532627689801,1,1,-3,-12,-16,-9,0,-2
1532627689806,-2,0,1,15,34,36,6,0
1532627689811,-1,0,0,-8,-50,-37,-8,-2
1532627689816,-3,-5,-3,2,-5,5,-2,-1
1532627689821,-2,-1,-2,-4,-11,24,4,-4
1532627689826,-1,1,0,5,9,-18,2,3
1532627689831,0,0,3,8,24,12,-5,0
1532627689836,-1,-2,-1,4,12,14,3,-1
1532627689841,0,-2,-4,-14,-41,-30,4,1
1532627689846,-1,-2,-1,9,33,23,-5,-1
1532627689851,0,0,3,16,-7,47,1,-1
1532627689856,-1,-1,-4,-23,-14,-65,1,2
1532627689861,-2,0,-1,-1,21,27,0,-2
1532627689866,-1,-4,-3,-2,-21,-12,7,2
1532627689871,-1,-2,-1,-1,-3,-12,0,1
1532627689876,0,3,2,5,5,18,-3,-2
1532627689881,-1,-2,2,4,5,5,-1,2
1532627689886,1,3,2,2,13,-21,-6,0
1532627689891,-2,-3,-5,-22,-28,-10,8,2
1532627689896,-1,-3,-3,2,3,21,0,0
1532627689901,0,0,-2,-5,-9,-10,-1,-2
1532627689906,-2,1,0,6,3,2,-2,-4
1532627689911,-1,-1,0,3,14,26,2,-3
1532627689916,1,1,1,8,11,-11,2,-2
1532627689921,-1,0,-1,-8,-5,5,9,3
1532627689926,0,-2,0,4,-16,-29,-1,-5
1532627689931,1,1,-1,4,35,24,5,10
1532627689936,-2,2,-1,-2,-15,-3,2,-1
1532627689941,-2,-3,-3,-2,-7,30,0,-1
1532627689946,0,-1,1,-1,-1,2,-3,-2
1532627689951,-2,-2,-4,1,16,-15,-2,-4
1532627689956,-1,-3,3,3,-5,8,-3,-1
1532627689961,0,-2,-3,-5,-7,-26,10,-10
1532627689966,-2,0,-1,-3,-3,11,3,7
1532627689971,1,1,2,3,0,-12,-6,-5
1532627689976,-1,-3,-2,-2,-1,-3,2,3
1532627689981,-1,4,2,-1,-2,-2,-7,-1
1532627689986,-2,-4,-5,-1,4,7,1,-3
1532627689991,-1,-1,1,3,7,-14,1,-6
1532627689996,-1,0,1,4,3,12,-4,-7
1532627690001,-1,-4,0,-4,-9,-7,-3,3
1532627690006,2,1,1,4,17,-4,1,5
1532627690011,-1,0,1,1,-1,3,-3,0
1532627690016,-2,-3,-2,-2,-4,1,-4,-4
1532627690021,0,1,1,1,-10,-5,-2,-2
1532627690026,-3,-2,0,0,4,-5,-4,-5
1532627690031,-2,-2,-4,-5,-11,-16,4,-8
1532627690036,0,0,-1,-10,6,7,2,7
1532627690041,-2,-2,-3,-1,-1,-3,3,-4
1532627690046,0,0,0,6,3,1,4,10
1532627690051,3,4,6,8,8,-16,-3,-5
1532627690056,-3,-2,-3,-1,-7,12,24,-4
1532627690061,0,-2,-1,0,6,45,-4,1
1532627690066,-2,-2,-1,-1,-11,-3,-5,-7
1532627690071,-1,-1,-1,3,11,23,0,4
1532627690076,-1,-1,0,2,-1,-5,-12,-3
1532627690081,-2,-2,-1,-1,-19,-33,-5,2
1532627690086,0,0,-3,-2,-10,13,13,0
1532627690091,0,-3,-2,-2,18,2,6,6
1532627690096,0,-2,-1,-3,22,-3,-8,-2
1532627690101,0,-3,-1,-12,-44,-28,1,-1
1532627690106,0,1,4,8,12,41,3,-1
1532627690111,-2,-1,-3,1,2,17,15,10
1532627690116,-2,-2,3,5,5,-4,-26,-7
1532627690121,0,0,-7,-4,8,-18,-11,0
1532627690126,-4,-4,-6,-3,-6,-6,-1,-8
1532627690131,-4,-4,-2,-9,-12,-24,0,-6
1532627690136,-2,2,1,4,-8,29,8,1
1532627690141,1,1,3,3,17,-8,1,8
1532627690146,1,-1,-2,2,20,5,-6,-5
1532627690151,-2,0,1,-3,-7,-10,-13,0
1532627690156,4,2,-7,4,11,8,27,3
1532627690161,0,0,-2,3,-44,-73,-7,-3
1532627690166,1,1,-3,-12,25,-17,-13,-3
1532627690171,-1,0,1,-2,-1,56,-15,-5
1532627690176,1,0,4,2,9,-1,-3,4
1532627690181,-3,-1,1,15,49,13,15,-2
1532627690186,-2,-4,-4,-23,-54,15,46,0
1532627690191,3,1,-2,-7,-43,-27,-28,-2
1532627690196,-2,-2,-2,5,-13,-26,-12,0
1532627690201,0,0,-1,-4,15,37,6,-2
1532627690206,-3,-1,-1,-1,-29,-55,-11,-2
1532627690211,0,2,5,18,68,39,9,1
1532627690216,-1,-2,-4,-21,-39,-29,3,0
1532627690221,-2,-3,-2,-2,11,39,-10,-4
1532627690226,4,5,4,10,-14,-40,29,8
1532627690231,-1,0,-1,-3,5,-20,-25,-3
1532627690236,-1,0,-4,4,21,-8,-9,0
1532627690241,-3,-2,-2,-4,-10,-34,-8,-3
1532627690246,-2,-1,0,3,27,46,9,0
1532627690251,0,-1,-3,1,33,2,11,0
1532627690256,1,2,3,5,-22,11,1,-1
1532627690261,-1,-1,-1,-14,-29,-9,11,-2
1532627690266,1,0,1,3,-7,-14,-14,-4
1532627690271,-1,-1,-3,1,-6,-20,10,3
1532627690276,-2,1,1,-2,-10,12,-2,0
1532627690281,1,-1,-1,-3,7,-1,8,1
1532627690286,1,0,10,2,7,38,-15,-1
1532627690291,-5,-18,10,-3,-20,-17,0,-5
1532627690296,1,-2,-36,-7,2,6,13,1
1532627690301,0,-14,-14,1,-2,11,3,1
1532627690306,0,15,0,1,7,-2,-15,-2
1532627690311,-2,0,-2,-9,-39,-17,12,-1
1532627690316,1,-1,10,8,40,36,-3,1
1532627690321,2,2,6,-5,-3,-21,-7,1
1532627690326,-1,11,11,-3,1,-2,-15,-1
1532627690331,-2,-21,-53,-6,-17,2,9,-1
1532627690336,-3,-1,7,-5,-22,-28,-3,-7
1532627690341,0,2,3,5,14,20,6,7
1532627690346,-2,-3,7,3,16,52,0,-1
1532627690351,4,17,17,4,-5,-32,3,2
1532627690356,-3,-23,31,5,-6,-2,-9,-2
1532627690361,0,12,-29,-6,6,-13,-4,-6
1532627690366,-5,-33,-26,-2,-10,-21,6,2
1532627690371,-4,5,-2,2,2,4,-1,0
1532627690376,-1,-5,-3,1,13,18,7,0
1532627690381,1,6,26,6,-1,18,-1,0
1532627690386,0,-2,3,-3,-2,-16,-10,-4
1532627690391,0,4,-13,0,-10,-22,-4,-4
1532627690396,3,7,-4,-10,3,4,12,12
1532627690401,-2,0,10,3,11,25,-4,-2
1532627690406,0,1,-14,-3,-15,-2,4,-1
1532627690411,0,-1,13,2,8,24,5,-3
1532627690416,-1,11,14,4,-11,-57,-14,-4
1532627690421,-4,-6,-9,-4,7,27,18,0
1532627690426,-2,-11,-16,0,8,-11,1,-3
1532627690431,-1,3,7,-1,-12,26,-6,-2
1532627690436,1,3,-3,-7,2,18,5,0
1532627690441,-5,-4,7,1,1,0,-19,-1
1532627690446,-2,2,-2,1,1,-15,-3,1
1532627690451,-1,1,5,2,4,-3,0,4
1532627690456,-1,-2,-14,-1,-13,-7,-8,-6
1532627690461,-1,-3,3,2,-4,-5,3,-3
1532627690466,-2,3,7,-4,-21,8,-1,-2
1532627690471,4,5,-1,-1,-4,-52,-7,-2
1532627690476,-8,-14,-10,-13,-11,34,-1,-6
1532627690481,7,4,6,17,30,15,24,15
1532627690486,1,2,1,-11,-6,-12,9,-1
1532627690491,-3,-4,0,0,15,15,8,-3
1532627690496,2,4,-3,4,-28,-26,12,0
1532627690501,-1,-2,-4,-12,15,44,-9,-8
1532627690506,0,0,1,11,-2,13,2,9
1532627690511,3,2,6,4,16,-26,-3,-2
1532627690516,-3,3,1,0,14,-4,-7,-2
1532627690521,-1,-3,-6,-6,-10,-14,-1,2
1532627690526,0,-1,3,4,9,-10,3,0
1532627690531,-3,-1,0,-6,-11,35,3,-6
1532627690536,3,2,2,5,6,-11,6,5
1532627690541,-2,-5,-3,5,-13,-10,-3,-4
1532627690546,-2,-1,-2,-1,0,-11,-1,-3
1532627690551,1,-2,0,-3,61,-2,-4,5
1532627690556,0,0,-4,-8,-60,19,4,-1
1532627690561,0,-1,-3,-12,-14,-11,-5,0
1532627690566,-1,0,4,9,10,-5,2,-3
1532627690571,-2,-2,0,-3,-30,-8,-2,-5
1532627690576,1,1,-2,9,40,18,0,-2
1532627690581,-1,-1,-2,-13,-26,-30,-4,-1
1532627690586,2,4,3,1,13,-5,-9,-3
1532627690591,-2,-1,-2,-9,-42,-15,8,2
1532627690596,-2,2,-1,3,22,0,-13,-10
1532627690601,1,-1,-4,-6,-37,-15,9,11
1532627690606,1,0,1,13,36,16,-9,-1
1532627690611,-1,-1,-5,-15,-52,-11,4,0
1532627690616,-1,-1,-1,5,15,3,-2,-3
1532627690621,1,0,0,-6,-15,-33,-2,-8
1532627690626,0,2,0,-2,-3,-8,4,1
1532627690631,-1,-1,2,11,29,16,-1,-1
1532627690636,-2,-2,-4,-6,-26,-11,2,-1
1532627690641,0,0,1,9,37,35,-6,-3
1532627690646,-1,-5,-4,-13,-18,-33,-2,-1
1532627690651,-1,0,0,-3,4,40,-1,-3
1532627690656,0,-1,0,4,10,-36,5,1
1532627690661,0,1,0,5,-5,34,6,1
1532627690666,-1,0,-1,-7,-5,13,-3,-2
1532627690671,-1,-2,-4,-4,-3,-20,-4,-3
1532627690676,2,-3,-2,0,9,0,0,2
1532627690681,-2,-1,0,1,-12,-14,-4,-3
1532627690686,-1,0,0,-1,7,15,-3,-3
1532627690691,-3,0,3,2,9,13,2,1
1532627690696,0,-1,1,-2,-1,-10,-1,1
1532627690701,0,3,3,2,5,-8,2,-5
1532627690706,-2,-5,0,-4,-7,11,6,1
1532627690711,1,1,-10,4,3,-15,0,2
1532627690716,-1,1,-3,-2,2,20,-7,-1
1532627690721,-4,-5,-4,-5,1,-9,-8,-11
1532627690726,0,1,1,2,-5,-10,0,5
1532627690731,0,1,4,-1,-1,5,5,4
1532627690736,-3,0,4,-7,-7,-7,0,-1
1532627690741,0,-4,0,4,10,1,-2,1
1532627690746,2,8,3,-1,-4,1,0,-8
1532627690751,-1,-9,-5,-7,-17,-18,-1,-3
1532627690756,1,4,-1,2,15,26,3,3
1532627690761,-2,-5,-11,0,3,-9,1,-2
1532627690766,-2,-2,0,-3,-15,-29,2,-1
1532627690771,1,0,-3,1,6,51,2,1
1532627690776,-2,3,10,0,-4,-14,-2,0
1532627690781,-1,-1,1,-1,-3,1,2,2
1532627690786,1,0,-5,-2,-4,-9,-1,0
1532627690791,-2,0,6,-1,0,-12,-4,-1
1532627690796,-1,-4,-5,-4,-5,3,-1,-13
1532627690801,-1,2,4,9,28,-5,-2,13
1532627690806,-2,-2,-3,-3,-6,16,4,0
1532627690811,-1,0,4,3,5,-9,0,1
1532627690816,-1,-2,-3,-5,0,19,-2,-5
1532627690821,-1,0,-1,3,-13,-27,5,-2
1532627690826,1,3,3,5,9,17,-15,-2
1532627690831,-3,1,0,-5,-7,-13,-3,-2
1532627690836,-1,-1,-4,2,6,28,9,3
1532627690841,-1,-2,1,-3,-3,0,-3,-10
1532627690846,-1,-1,1,-3,0,1,7,8
1532627690851,1,-2,2,11,14,-18,-4,-3
1532627690856,-3,-5,-5,-25,-24,12,0,2
1532627690861,-1,3,-3,-6,-9,-27,35,-3
1532627690866,-4,-3,-4,1,1,3,-35,-4
1532627690871,1,2,-1,-1,1,0,3,3
1532627690876,1,3,6,11,14,-8,-5,2
1532627690881,0,-1,-7,-12,-33,16,3,-3
1532627690886,0,-2,-2,-8,13,-37,8,-4
1532627690891,0,0,0,0,-27,31,3,1
1532627690896,-1,-2,3,8,37,14,2,1
1532627690901,-2,1,2,3,6,11,-13,-2
1532627690906,0,0,-2,2,-4,-4,8,3
1532627690911,-2,0,-2,1,-7,-11,-5,-3
1532627690916,4,2,-2,4,6,-39,-1,5
1532627690921,2,-1,3,-1,12,19,-1,0
1532627690926,1,-2,-1,12,13,0,8,-6
1532627690931,2,-3,1,-15,-29,-14,9,-4
1532627690936,0,-4,-6,-9,-87,-67,5,2
1532627690941,1,-2,0,4,33,25,-4,1
1532627690946,-1,-2,-2,-5,-21,-13,-3,-3
1532627690951,-1,1,-1,6,43,1,10,5
1532627690956,-1,-2,1,2,-3,6,31,-1
1532627690961,-1,-1,-1,-4,-13,-16,-44,-5
1532627690966,-3,-2,-2,9,15,19,-1,-4
1532627690971,-1,-2,-9,-13,-18,-14,-12,-5
1532627690976,0,-2,-3,-5,7,-15,-2,1
1532627690981,-1,-2,0,7,13,51,23,3
1532627690986,-3,1,-2,-7,2,-8,1,-4
1532627690991,-2,-2,-2,-1,-4,5,-6,-1
1532627690996,2,1,-3,2,30,27,-7,5
1532627691001,-2,-3,-2,-4,-24,-17,-3,-4
1532627691006,0,0,3,-3,-8,-5,1,2
1532627691011,-1,-1,0,3,8,-9,-12,-1
1532627691016,-1,1,0,-4,-31,-3,27,-2
1532627691021,-2,-4,-1,-3,-11,-34,-17,-1
1532627691026,0,-1,0,0,7,13,9,2
1532627691031,-3,-2,1,2,0,-14,5,0
1532627691036,-4,-1,-1,15,49,31,-15,-11
1532627691041,0,-2,4,-18,-24,-26,13,9
1532627691046,4,0,-13,-8,-18,17,2,1
1532627691051,0,-1,2,3,6,-4,5,-3
1532627691056,0,-4,-7,-9,-10,-7,-11,-1
1532627691061,0,2,-2,5,4,2,7,0
1532627691066,-4,-3,1,-1,-1,-16,-8,-2
1532627691071,0,0,-1,-5,-17,10,0,0
1532627691076,-3,-1,3,11,17,16,-4,-4
1532627691081,2,1,-2,4,14,20,-2,0
1532627691086,-3,-4,-4,-12,-38,-21,1,-5
1532627691091,0,1,0,2,12,-22,6,3
1532627691096,-2,0,3,6,22,30,-10,-5
1532627691101,1,0,-2,-15,-54,20,8,6
1532627691106,-3,-5,1,2,21,-8,-3,-3
1532627691111,-1,0,-9,-3,0,25,3,0
1532627691116,1,-1,4,-8,-12,-3,-8,0
1532627691121,-3,-8,-1,9,20,-23,-2,-4
1532627691126,1,0,-10,-1,-1,20,2,3
1532627691131,-2,-2,-1,-4,-5,-17,-2,-2
1532627691136,-3,-1,5,2,10,29,-7,0
1532627691141,0,5,-4,7,19,14,-3,-3
1532627691146,-1,0,16,-3,-4,8,5,-2
1532627691151,2,3,-13,3,7,4,3,5
1532627691156,-5,-5,-5,-10,-19,-39,-1,-2
1532627691161,-2,1,6,6,13,-1,0,0
1532627691166,0,2,0,6,6,12,8,1
1532627691171,0,1,12,-3,0,7,1,-3
1532627691176,0,3,-1,5,-11,-21,0,3
1532627691181,0,-6,6,-1,2,-1,-3,-5
1532627691186,1,21,-10,1,2,-13,-5,1
1532627691191,-1,0,2,-3,-2,6,2,-4
1532627691196,-2,-13,10,-2,-6,-11,-3,0
1532627691201,1,15,-17,-2,2,0,9,7
1532627691206,-2,-3,7,2,-4,-3,-2,-4
1532627691211,-2,-7,-7,-5,0,-6,4,4
1532627691216,0,3,1,-1,1,-10,0,-5
1532627691221,-2,-5,7,2,-4,-13,-3,-5
1532627691226,1,-7,-3,-2,6,-10,2,8
1532627691231,-4,1,-3,-1,1,42,-1,-6
1532627691236,-2,-5,3,-5,-7,-24,-3,5
1532627691241,-2,-4,-1,8,12,-23,1,-6
1532627691246,0,-3,-7,4,5,13,3,1
1532627691251,0,-2,4,-4,-7,-12,4,3
1532627691256,0,1,-6,-2,-4,3,-7,-2
1532627691261,-1,0,-3,-3,-2,-2,1,1
1532627691266,-2,-1,1,4,3,11,-6,-11
1532627691271,-4,-5,4,11,3,-15,-8,-2
1532627691276,-1,2,-7,-8,-35,10,6,-7
1532627691281,0,-1,-5,4,37,1,-11,6
1532627691286,4,-3,2,-25,-29,2,8,1
1532627691291,0,-1,3,7,-5,2,12,2
1532627691296,0,-1,-11,6,14,7,1,1
1532627691301,-4,-5,2,2,-13,-4,2,-10
1532627691306,-3,-4,-2,-2,-5,-6,1,0
1532627691311,0,-3,-2,4,10,-5,-5,-5
1532627691316,-1,1,-5,-12,-5,10,3,6
1532627691321,2,0,3,0,7,-15,3,0
1532627691326,1,0,3,12,16,-3,2,3
1532627691331,1,-1,-6,1,1,34,-1,-6
1532627691336,0,-2,-3,-4,-1,-12,-4,0
1532627691341,-2,-2,-4,-16,-57,-9,4,-2
1532627691346,-2,-4,-5,-8,-9,-14,0,-3
1532627691351,5,5,6,15,40,8,20,15
1532627691356,2,5,3,4,3,-15,3,1
1532627691361,-2,-2,-2,-2,10,11,-6,-3
1532627691366,1,0,0,-5,-18,4,0,-1
1532627691371,-5,-3,-1,-11,-39,-19,-11,-10
1532627691376,-2,-2,-5,3,7,2,0,-2
1532627691381,1,2,3,3,20,20,8,2
1532627691386,-1,-3,-2,1,6,3,2,-1
1532627691391,-1,1,-3,-7,2,-18,-7,1
1532627691396,0,0,2,0,8,17,1,-2
1532627691401,-1,-2,-1,3,3,-4,-6,-3
1532627691406,-2,-3,-1,0,-7,-5,-5,-4
1532627691411,0,2,-1,-5,0,-5,-2,-1
1532627691416,-1,-2,-2,-2,-5,6,1,0
1532627691421,0,1,-2,-7,-3,-3,1,0
1532627691426,-2,0,2,13,18,13,-3,-2
1532627691431,0,0,-1,1,21,-1,-3,1
1532627691436,1,2,-5,-13,-12,-8,37,10
1532627691441,2,-2,-3,10,15,-7,0,5
1532627691446,-2,-2,-4,-8,-21,11,1,2
1532627691451,-2,-2,0,7,26,-1,-5,1
1532627691456,-2,-2,0,5,6,12,-14,-7
1532627691461,-1,0,4,16,27,-1,-2,-2
1532627691466,0,-3,-2,-27,-30,-8,10,1
1532627691471,-3,-5,-4,-1,-2,-11,0,-5
1532627691476,-2,0,-3,-14,-47,20,-1,-3
1532627691481,-1,-2,0,-4,3,7,10,0
1532627691486,0,1,2,13,13,-18,-26,-4
1532627691491,1,-2,-2,-4,-5,-7,-3,-5
1532627691496,0,1,0,6,7,3,-6,6
1532627691501,-1,-1,-2,-8,-34,-11,0,-5
1532627691506,0,-1,0,6,16,8,-8,0
1532627691511,-3,-3,-5,-15,-11,-29,15,-7
1532627691516,0,2,3,18,60,-18,-17,-1
1532627691521,-1,-1,-3,-20,-25,18,-2,1
1532627691526,0,-3,-6,-13,-17,-47,9,3
1532627691531,2,0,1,10,20,71,-3,5
1532627691536,-1,-2,0,-1,12,-41,16,-4
1532627691541,-2,2,3,17,51,23,-2,-2
1532627691546,-2,-2,-2,-15,-62,14,-13,-9
1532627691551,-1,-2,-1,-3,-18,-21,15,4
1532627691556,2,1,0,6,16,39,-13,5
1532627691561,0,-2,-1,-5,-15,-17,-5,-2
1532627691566,-1,1,0,9,34,11,1,-1
1532627691571,-1,0,1,2,-22,-1,1,0
1532627691576,-1,-2,-2,-3,-5,-14,2,-1
1532627691581,-1,-3,-2,-1,-3,-17,-5,-2
1532627691586,-1,-2,1,6,7,-19,9,2
1532627691591,0,3,-2,-6,5,49,-5,2
1532627691596,0,-1,0,-1,-16,-62,-14,-4
1532627691601,-2,-2,-3,-6,-2,37,0,0
1532627691606,-2,0,1,4,8,-22,3,-2
1532627691611,0,1,0,0,-5,4,-6,0
1532627691616,0,3,2,-1,-8,19,4,-1
1532627691621,-1,-2,-2,-5,-11,-17,3,-1
1532627691626,-1,1,0,6,14,13,2,-1
1532627691631,-2,1,-1,-2,-3,-10,-8,-2
1532627691636,-1,-3,-5,-1,-5,19,0,-4
1532627691641,-1,-3,3,-4,-14,-30,-1,-2
1532627691646,-1,-3,-7,0,18,-5,2,3
1532627691651,0,-2,-1,1,2,69,3,1
1532627691656,0,-1,-1,-1,3,31,-1,-2
1532627691661,-1,2,3,-3,-8,-35,1,-1
1532627691666,-1,-5,6,5,6,-2,-5,-2
1532627691671,-3,-3,-16,-6,-7,-40,3,-5
1532627691676,0,2,4,0,-2,14,7,4
1532627691681,-1,3,2,-3,-3,14,2,-2
1532627691686,-1,-10,-9,1,1,9,-3,2
1532627691691,1,-1,9,-5,-10,-32,-7,1
1532627691696,0,0,-12,-3,0,-1,-8,-3
1532627691701,-2,-3,3,0,2,26,-7,-1
1532627691706,0,3,-8,1,3,-12,2,-1
1532627691711,-2,-2,6,2,0,3,-2,0
1532627691716,0,-2,-5,-4,-14,-52,14,-4
1532627691721,-1,-2,4,1,9,27,3,-2
1532627691726,0,3,3,8,14,63,4,10
1532627691731,0,-2,-5,-11,-28,-19,7,-2
1532627691736,-1,0,4,0,0,10,-4,1
1532627691741,0,0,-7,4,-11,-35,-8,-9
1532627691746,0,4,2,4,5,16,16,-1
1532627691751,0,-2,-7,2,14,-4,-3,2
1532627691756,-3,-4,5,-4,-10,-2,-3,-1
1532627691761,-1,0,-6,-3,-11,6,12,3
1532627691766,0,-1,-2,-4,-8,-6,-8,-3
1532627691771,1,0,5,2,-5,-40,0,0
1532627691776,0,0,0,1,7,15,-22,-8
1532627691781,0,0,-4,0,-1,-20,12,6
1532627691786,-2,3,4,5,39,12,-3,-2
1532627691791,-1,-3,-4,-13,-37,-34,16,-2
1532627691796,-4,-2,1,2,24,31,-6,-5
1532627691801,1,2,0,-1,-56,14,69,1
1532627691806,-3,-5,-6,-25,-43,-68,-50,-7
1532627691811,-3,-2,3,10,32,11,-4,-7
1532627691816,1,-4,-9,-1,-7,7,1,10
1532627691821,-3,-2,-1,-5,27,17,-16,-2
1532627691826,-3,2,5,6,-6,10,33,2
1532627691831,0,1,3,5,-1,-12,-1,1
1532627691836,-3,-3,-5,-9,-7,-32,20,-5
1532627691841,1,-1,10,10,31,20,-41,-1
1532627691846,5,-1,-6,2,-14,4,8,3
1532627691851,0,-3,-8,0,22,-2,-22,-5
1532627691856,0,-1,4,12,50,14,15,0
1532627691861,-1,0,-2,-9,-39,-28,24,1
1532627691866,-1,-2,3,-8,5,9,-31,-3
1532627691871,-2,2,11,8,-15,1,-19,-1
1532627691876,1,4,-1,11,12,-13,9,3
1532627691881,-2,-16,20,-6,-15,50,-18,1
1532627691886,-1,11,-38,-8,-4,-38,27,-1
1532627691891,2,5,4,14,43,31,8,-1
1532627691896,-1,2,0,-4,-9,29,-2,0
1532627691901,0,-7,6,8,33,-36,-24,-3
1532627691906,-2,-1,-3,-4,-26,15,13,2
1532627691911,0,0,61,-10,-38,26,-7,2
1532627691916,1,12,-83,-5,-21,-39,-3,-6
1532627691921,-4,-6,13,14,43,32,6,2
1532627691926,5,10,-1,-1,3,-4,0,0
1532627691931,-2,10,-3,-5,21,6,9,-2
1532627691936,4,22,33,-1,-21,-1,-12,0
1532627691941,-7,-49,-30,-8,-13,-26,-1,-6
1532627691946,-5,-12,-5,0,8,1,-1,-3
1532627691951,0,-3,0,1,-7,1,1,10
1532627691956,-1,-8,17,-5,3,1,-1,3
1532627691961,2,25,8,-18,-12,-18,-2,-2
1532627691966,-2,-2,11,7,13,34,2,-3
1532627691971,-2,-9,-11,-5,-8,-42,-2,-5
1532627691976,-4,-5,21,-1,-23,-30,-5,-2
1532627691981,2,18,-44,3,8,50,-4,-1
1532627691986,-3,-12,30,-2,18,-44,-3,-3
1532627691991,2,8,-20,-10,-38,8,7,0
1532627691996,-3,-6,5,0,-9,-1,-1,-1
1532627692001,0,2,3,3,5,-36,-5,0
1532627692006,-2,8,48,11,1,2,-6,-4
1532627692011,1,4,-91,0,9,14,4,3
1532627692016,-2,-12,6,0,1,0,1,-7
1532627692021,0,2,17,1,1,2,-1,5
1532627692026,1,0,-21,-5,-14,-4,7,3
1532627692031,0,-5,26,5,22,3,-2,-5
1532627692036,-2,-2,6,-6,-2,17,1,-1
1532627692041,2,0,-21,2,-2,-6,-3,-4
1532627692046,-4,-2,-2,-2,-4,-2,2,-2
1532627692051,-4,-28,1,-3,-8,-13,-3,0
1532627692056,3,17,-10,-3,-7,14,1,1
1532627692061,2,-3,26,9,25,31,0,3
1532627692066,0,14,1,-1,-16,-7,-3,-1
1532627692071,-1,-5,1,22,57,9,-11,-6
1532627692076,-1,-7,-1,-13,-19,-19,3,-5
1532627692081,-3,-1,-3,-4,-4,-16,-4,5
1532627692086,3,-5,-6,2,3,24,1,5
1532627692091,-1,9,-1,10,9,-4,0,-1
1532627692096,-2,-3,7,3,2,-5,-4,-4
1532627692101,0,5,-6,-2,-13,-7,0,-3
1532627692106,-4,-6,-9,10,25,11,-2,-5
1532627692111,-2,3,6,-8,-12,-8,10,0
1532627692116,-4,-12,-4,-1,6,4,0,-9
1532627692121,1,-1,-11,-7,-22,-32,13,7
1532627692126,0,1,2,0,28,24,-5,-5
1532627692131,0,0,8,4,1,-2,5,3
1532627692136,-1,-6,-9,-15,-16,10,7,-1
1532627692141,-2,4,-3,2,2,-23,-7,2
1532627692146,1,-3,-1,-16,-93,27,15,8
1532627692151,-3,-1,1,0,14,-6,-4,-8
1532627692156,-1,-3,0,7,45,18,-1,9
1532627692161,2,6,3,-4,-28,-19,-7,-7
1532627692166,3,-4,-2,0,26,-1,-7,1
1532627692171,-3,-4,-3,-7,-22,3,-6,-3
1532627692176,1,0,3,2,-8,-11,1,4
1532627692181,-1,0,1,2,14,2,0,-3
1532627692186,-4,-3,-6,-5,-2,-5,-6,-5
1532627692191,0,0,-5,-2,12,-21,7,2
1532627692196,-3,-3,2,1,-11,-2,-11,-3
1532627692201,-3,0,-2,-5,6,14,-1,-2
1532627692206,2,-2,1,15,27,-32,0,-1
1532627692211,-3,0,-1,-19,-8,24,-2,-6
1532627692216,-1,-1,2,5,6,-6,-2,3
1532627692221,-1,-2,-5,-2,1,-8,0,-5
1532627692226,-1,1,-1,-1,-22,26,1,-1
1532627692231,1,0,2,0,-12,-36,-7,-1
1532627692236,0,1,2,16,15,21,0,0
1532627692241,-2,-2,-6,-25,-57,23,6,-5
1532627692246,0,-3,-1,-9,7,-90,-1,1
1532627692251,1,1,-3,-9,-43,3,-1,1
1532627692256,2,0,1,8,31,52,-2,-1
1532627692261,0,2,2,7,12,-1,-10,-2
1532627692266,-2,2,1,0,-20,-4,3,1
1532627692271,0,-5,-6,-12,-5,-9,0,-1
1532627692276,1,0,-3,-8,-24,-52,9,0
1532627692281,0,-1,2,4,6,-15,0,-4
1532627692286,-2,0,0,1,22,18,-2,3
1532627692291,1,1,-4,4,-8,1,0,1
1532627692296,-2,-11,9,-3,-11,0,-2,-5
1532627692301,-1,6,-20,-5,18,-4,3,1
1532627692306,1,1,11,-2,-5,3,1,-3
1532627692311,-1,-8,-16,1,8,16,7,-6
1532627692316,-1,2,2,-6,-4,-12,-3,2
1532627692321,0,1,0,3,3,0,-12,11
1532627692326,0,10,34,-4,-5,-14,-13,-6
1532627692331,0,-3,-18,1,-1,60,11,2
1532627692336,4,8,-38,2,3,-5,7,0
1532627692341,-3,6,3,-4,-6,-7,10,0
1532627692346,-1,-2,10,5,18,27,1,-1
1532627692351,0,5,13,-3,-1,-18,-4,3
1532627692356,2,4,1,0,-5,-7,11,4
1532627692361,-2,-7,14,6,15,12,1,-3
1532627692366,0,-2,-22,-2,-1,21,2,3
1532627692371,-1,-11,7,-1,3,-22,-3,-1
1532627692376,-4,-3,7,1,-3,14,0,-6
1532627692381,-2,-2,0,0,-11,-19,-13,-10
1532627692386,2,-6,-11,-3,11,11,13,14
1532627692391,2,1,-2,1,-4,0,6,5
1532627692396,-4,-1,10,-3,-5,-9,-8,-2
1532627692401,-2,-2,-2,-2,1,-3,-2,-5
1532627692406,-4,-5,-12,8,7,28,4,-13
1532627692411,-1,4,11,0,0,0,-2,6
1532627692416,-1,-4,-2,-6,-6,-26,-3,-4
1532627692421,0,2,5,7,1,35,3,-2
1532627692426,-1,-6,-10,-7,7,-14,-3,0
1532627692431,-1,5,2,2,3,-2,-3,4
1532627692436,-1,-1,4,1,-9,-31,-4,-6
1532627692441,6,1,1,9,20,52,5,5
1532627692446,-3,0,-3,-7,-13,-9,-1,-5
1532627692451,-2,3,3,7,12,10,3,4
1532627692456,-6,-3,-9,-10,-16,-20,-13,-2
1532627692461,-1,-1,1,-2,1,5,-2,2
1532627692466,-1,1,1,11,13,1,-8,-4
1532627692471,-3,1,1,-2,5,-7,-24,-8
1532627692476,1,-1,1,2,-18,6,-36,10
1532627692481,-2,-4,-1,-5,31,51,-5,1
1532627692486,0,-1,-5,-8,-35,-39,-1,0
1532627692491,-2,-3,-2,-1,-8,-6,-15,-7
1532627692496,1,-1,2,1,19,20,-1,0
1532627692501,-3,-2,-5,-5,3,-7,-13,-4
1532627692506,-1,-1,-5,2,-11,-15,45,-2
1532627692511,4,4,1,-5,-6,-34,-37,-2
1532627692516,2,1,0,14,-8,34,28,-3
1532627692521,-5,-5,-3,-13,20,12,-14,-9
1532627692526,-2,-3,-1,6,7,8,87,5
1532627692531,-1,-13,-5,-13,13,10,-31,-1
1532627692536,3,3,1,6,10,59,-2,2
1532627692541,-1,-2,-3,-3,-19,-67,10,1
1532627692546,-4,-1,-6,-1,-12,-5,-25,-9
1532627692551,-2,0,4,-2,17,13,36,-5
1532627692556,-2,-2,3,11,30,-33,23,5
1532627692561,-1,-2,-3,-16,-64,-25,5,1
1532627692566,0,-4,1,4,26,-1,-17,-6
1532627692571,1,2,1,-2,-37,1,23,6
1532627692576,-4,-3,-3,0,50,10,-10,-4
1532627692581,0,1,0,2,-25,-27,10,-1
1532627692586,0,-1,1,4,41,10,-25,3
1532627692591,0,0,-3,-5,-47,30,-2,-4
1532627692596,-2,-2,0,-13,-26,-40,-20,-7
1532627692601,7,-1,0,8,19,34,6,15
1532627692606,2,0,0,-6,-16,12,-21,2
1532627692611,-2,2,3,5,17,-32,-1,-5
1532627692616,0,-3,-1,-10,10,29,11,4
1532627692621,-4,-1,-1,1,-33,-32,-5,-9
1532627692626,1,-2,-2,-9,-27,6,-15,1
1532627692631,3,4,2,6,-7,-1,13,3
1532627692636,-3,-16,5,-3,-2,-15,5,1
1532627692641,1,12,-14,-8,3,-19,-3,-2
1532627692646,-3,-6,13,4,14,16,-16,-4
1532627692651,1,18,0,3,-3,-15,3,0
1532627692656,0,-3,-21,-4,-10,2,3,-2
1532627692661,-3,-4,25,0,14,-45,0,0
1532627692666,-2,-2,-19,-6,-21,-20,-3,0
1532627692671,-1,-7,-7,-17,-14,-20,-1,-6
1532627692676,-3,17,28,7,18,21,-3,3
1532627692681,-3,-19,-21,3,1,-3,-3,-2
1532627692686,2,20,5,-6,-2,1,-7,0
1532627692691,-2,-12,-11,9,19,18,6,-3
1532627692696,0,5,-1,-8,-15,-3,-1,-8
1532627692701,-1,2,-2,5,2,5,7,4
1532627692706,0,-3,9,4,29,30,-3,2
1532627692711,-2,-7,-3,4,3,-6,2,-3
1532627692716,1,0,21,-6,-22,-26,-9,-2
1532627692721,1,26,-14,1,-3,3,-2,-2
1532627692726,-1,-14,-28,-2,4,13,0,2
1532627692731,0,5,13,6,9,-8,5,2
1532627692736,0,-5,-4,-3,-12,-6,2,-2
1532627692741,0,-6,10,-1,-4,11,-9,-6
1532627692746,-2,-1,2,3,6,-8,-1,-3
1532627692751,0,2,-8,-16,-14,21,4,10
1532627692756,-2,-5,-5,-4,-13,11,7,2
1532627692761,0,-1,2,10,27,19,0,-1
1532627692766,-1,2,-3,-2,-13,-20,-3,-3
1532627692771,-4,-8,4,-2,-3,-1,0,-10
1532627692776,-2,0,-6,2,9,5,-14,5
1532627692781,-1,-4,1,-5,-2,15,-7,0
1532627692786,0,-4,1,-5,-12,-10,-4,0
1532627692791,1,-1,6,10,27,21,0,5
1532627692796,0,1,-6,-3,-11,-15,4,-3
1532627692801,1,-4,-7,4,8,-3,-7,2
1532627692806,0,-1,3,0,1,5,-20,0
1532627692811,-5,-1,-4,7,30,-11,-8,-14
1532627692816,2,-2,-12,-23,-5,-3,21,13
1532627692821,-1,-6,6,1,-20,-7,3,-2
1532627692826,6,3,6,15,16,5,29,14
1532627692831,1,0,2,7,-6,-11,7,4
1532627692836,-3,-3,-2,7,17,23,5,-13
1532627692841,-3,-3,4,4,-2,-66,1,0
1532627692846,-4,-2,-6,-15,-11,24,10,-6
1532627692851,-5,-1,-3,-5,5,-24,1,-5
1532627692856,-2,0,-2,-8,-50,-13,3,0
1532627692861,-5,-2,-3,-8,-1,3,0,-2
1532627692866,-6,0,1,9,11,-4,18,2
1532627692871,-5,-1,-1,-7,-7,-5,-61,-8
1532627692876,-2,1,-1,13,18,3,8,1
1532627692881,1,1,1,2,6,28,-2,0
1532627692886,0,-4,-3,-10,-13,-12,5,-4
1532627692891,3,-1,0,3,1,29,18,2
1532627692896,3,-1,-3,-6,-47,-12,-3,0
1532627692901,2,-2,-1,1,11,1,-2,-7
1532627692906,4,0,0,-3,3,-12,-10,-1
1532627692911,3,1,1,-3,-17,9,22,3
1532627692916,0,1,-2,8,59,26,-13,-5
1532627692921,0,-1,1,-5,-18,-42,9,2
1532627692926,-1,-4,-1,1,-4,15,-14,-6
1532627692931,0,-2,-1,0,-13,8,-1,4
1532627692936,0,2,1,15,28,-18,-5,3
1532627692941,-4,-4,2,-4,8,51,10,1
1532627692946,-2,1,-3,-6,3,-30,0,-2
1532627692951,-3,0,-1,-3,-11,59,-7,-5
1532627692956,-1,-1,-1,-1,-3,-42,-10,-1
1532627692961,0,-2,-4,-3,9,22,-3,0
1532627692966,-1,-1,0,2,-3,-1,2,-1
1532627692971,-2,-3,0,-6,-5,-21,9,1
1532627692976,-1,-2,0,-1,-19,-8,0,-1
1532627692981,-2,-2,2,-1,5,1,-4,-1
1532627692986,1,0,-7,0,-6,-2,-11,-9
1532627692991,0,0,-1,-6,-1,-20,6,3
1532627692996,-2,-4,-3,-7,-16,-13,1,2
1532627693001,3,1,1,8,28,31,-5,-2
1532627693006,-1,2,9,3,-3,0,0,2
1532627693011,0,0,-6,3,0,-23,-5,-5
1532627693016,-2,-5,46,-5,-1,5,-6,-3
1532627693021,2,1,-82,-3,1,1,10,2
1532627693026,0,1,8,-5,-8,-5,-9,-2
1532627693031,0,0,-6,-2,-1,-36,1,-1
1532627693036,-3,-2,4,-3,1,26,-2,-5
1532627693041,0,4,29,3,-8,-7,-4,4
1532627693046,-3,-18,29,3,3,-5,-10,4
1532627693051,4,12,-59,0,4,-12,0,0
1532627693056,1,2,-8,-1,-2,8,4,-5
1532627693061,-1,-7,-11,-7,-8,-15,-2,-6
1532627693066,-1,-2,2,-2,-2,4,7,3
1532627693071,-3,-5,30,2,4,6,2,0
1532627693076,0,-1,-17,3,1,5,-1,-4
1532627693081,-1,3,11,-4,-10,-6,0,-2
1532627693086,-1,-1,-3,-7,-9,-19,-3,-2
1532627693091,-1,-6,1,2,5,24,8,-6
1532627693096,1,6,-9,3,1,-4,0,4
1532627693101,-1,-1,16,-7,-18,-27,-2,2
1532627693106,0,3,-11,-1,1,26,-5,-4
1532627693111,-2,0,8,-1,-4,-1,6,5
1532627693116,0,-2,-7,0,1,-12,-5,-1
1532627693121,-3,0,13,4,7,-11,3,0
1532627693126,-1,-1,-14,-3,-12,15,4,-1
1532627693131,0,0,5,-6,-6,-20,11,-6
1532627693136,-2,0,4,2,10,3,-30,-8
1532627693141,1,-2,0,5,6,11,7,10
1532627693146,-1,3,-3,1,-1,-10,-12,-5
1532627693151,-1,-3,5,-1,-2,-29,-13,0
1532627693156,0,-1,-2,0,13,68,34,0
1532627693161,0,2,3,-1,-28,-34,4,-4
1532627693166,-2,-1,-8,-6,12,-51,11,-2
1532627693171,-1,-4,4,1,-1,88,18,3
1532627693176,0,-2,-7,-10,-37,-37,10,-4
1532627693181,-1,0,4,7,41,52,-31,1
1532627693186,-2,-1,-1,0,-18,-26,19,-3
1532627693191,1,-1,-1,-12,-7,-21,-40,0
1532627693196,-1,0,-4,5,11,10,29,4
1532627693201,-1,-2,1,-2,8,8,-5,-3
1532627693206,2,2,0,2,-11,-30,-37,-1
1532627693211,-2,0,1,1,-5,-5,17,-4
1532627693216,-1,-2,-3,-2,2,-6,0,5
1532627693221,0,-2,5,-2,-7,-2,0,-2
1532627693226,0,1,-6,0,13,36,20,1
1532627693231,-2,-1,4,3,-5,1,-4,1
1532627693236,1,0,-3,0,4,-6,-8,5
1532627693241,-2,-3,-2,-2,-8,0,9,-4
1532627693246,0,0,-3,-2,3,13,-3,1
1532627693251,0,1,0,2,7,-11,6,0
1532627693256,-1,-3,0,-1,0,-4,-11,-4
1532627693261,-2,0,-2,-2,-7,-1,-2,-3
1532627693266,0,2,-2,-1,4,7,4,3
1532627693271,-1,-2,-1,2,7,-20,-2,2
1532627693276,0,1,2,-2,1,17,-7,2
1532627693281,-1,-7,-1,-2,-10,-3,1,-5
1532627693286,0,-4,5,0,3,2,-3,1
1532627693291,0,8,-16,0,0,-6,-2,-4
1532627693296,-1,2,5,-3,-3,-10,-6,-1
1532627693301,-1,-6,44,0,-2,4,0,0
1532627693306,-2,18,-49,-4,-2,-6,-2,-2
1532627693311,-1,-8,3,2,7,10,-9,-3
1532627693316,-1,-3,-5,1,-3,-28,5,5
1532627693321,-2,5,-4,-5,0,29,9,-2
1532627693326,0,-7,14,-2,0,6,-3,1
1532627693331,-2,-4,3,0,-1,6,-1,-4
1532627693336,-3,-1,-7,-6,-5,11,-2,-3
1532627693341,-1,-1,-5,6,-2,-25,5,6
1532627693346,1,-1,7,6,34,24,-5,-1
1532627693351,-1,-1,-4,-3,-10,8,20,4
1532627693356,-1,-4,4,2,-8,-28,1,-3
1532627693361,-2,1,-7,-7,-3,41,0,-6
1532627693366,-2,0,2,1,0,10,0,1
1532627693371,0,-1,6,4,4,-4,-1,3
1532627693376,-3,-3,-4,2,2,-19,-28,1
1532627693381,1,2,-7,-1,5,37,6,-9
1532627693386,-1,-4,1,0,-13,-14,-9,3
1532627693391,0,-1,4,-3,-3,-4,-1,1
1532627693396,-1,0,-3,-2,-7,-14,7,-4
1532627693401,-2,-1,-10,-2,0,-2,-9,-4
1532627693406,0,-4,8,2,-7,-4,12,2
1532627693411,0,1,1,-2,10,3,-1,1
1532627693416,-1,-1,0,2,0,21,4,0
1532627693421,-1,-1,-3,0,-3,-40,-26,3
1532627693426,-1,-1,1,-1,0,8,3,-10
1532627693431,-1,-4,-2,-6,-8,-11,-6,1
1532627693436,0,-1,-2,1,-3,0,4,2
1532627693441,1,-1,-4,-2,-2,-13,-2,10
1532627693446,-1,-2,1,-2,-8,-9,2,1
1532627693451,-1,0,0,1,1,5,-9,2
1532627693456,-1,-1,1,-2,3,8,2,-4
1532627693461,-3,0,-1,0,2,-11,-2,-2
1532627693466,-4,-1,0,-2,-6,-2,-8,-2
1532627693471,-4,-2,-1,-3,-1,1,0,0
1532627693476,0,1,-2,0,2,6,-3,0
1532627693481,1,-1,-3,-3,-9,-16,4,-5
1532627693486,-1,-1,0,-1,-1,-9,1,-1
1532627693491,0,0,1,1,13,29,0,-4
1532627693496,1,1,-2,-3,1,-7,6,-1
1532627693501,-1,0,-3,-2,-5,-9,-1,-1
1532627693506,1,-2,1,-3,-10,-13,-8,-6
1532627693511,9,0,-1,1,6,19,2,4
1532627693516,-4,0,-1,1,0,1,-9,-4
1532627693521,-4,-3,-2,-1,-5,-10,4,-12
1532627693526,2,-1,1,3,11,17,-2,16
1532627693531,3,2,1,-2,-9,-14,-20,-4
1532627693536,-14,-5,13,0,-4,-23,-14,-5
1532627693541,24,0,-35,0,2,8,12,0
1532627693546,9,3,37,-5,-22,-8,9,0
1532627693551,0,-8,-27,0,14,40,15,1
1532627693556,1,-1,-27,-3,1,-3,14,4
1532627693561,-17,-2,9,0,-2,-22,3,-8
1532627693566,-6,-5,-10,-2,0,5,2,-2
1532627693571,3,-1,21,-2,-10,-36,-24,-9
1532627693576,3,2,7,-1,-2,3,-9,7
1532627693581,-3,-4,-2,3,5,0,-5,3
1532627693586,2,1,0,-1,1,9,-3,-2
1532627693591,-6,1,0,-3,-6,-18,11,-2
1532627693596,-1,-2,-8,1,9,2,6,-5
1532627693601,0,-1,8,-1,-4,-12,4,5
1532627693606,-2,1,-4,2,38,48,0,-5
1532627693611,-4,0,-2,-9,-50,-4,13,0
1532627693616,2,-3,-4,1,20,2,8,4
1532627693621,3,3,11,2,-10,-58,-5,2
1532627693626,-3,-2,-7,7,19,58,1,-3
1532627693631,-4,-2,-8,-5,16,1,-5,-2
1532627693636,3,3,8,-1,-12,-6,1,-2
1532627693641,-4,1,0,-4,-5,-45,-3,-3
1532627693646,-3,-1,-10,3,-3,-7,-1,-3
1532627693651,2,2,3,4,9,28,8,2
1532627693656,4,0,2,-4,-11,-33,-2,0
1532627693661,-3,0,-2,2,7,22,1,-1
1532627693666,-1,-3,-5,-3,-4,-21,-3,0
1532627693671,1,0,5,2,2,5,-1,0
1532627693676,-2,-2,-1,-1,3,-6,-4,-4
1532627693681,-1,-2,-3,-1,3,20,2,4
1532627693686,0,0,0,-11,-17,8,-4,-2
1532627693691,-2,0,1,5,6,-27,1,0
1532627693696,-1,-1,-1,3,1,20,-7,-3
1532627693701,0,0,2,-2,3,24,2,3
1532627693706,-1,-1,0,-2,-9,-32,1,0
1532627693711,-2,-2,-5,4,11,23,4,-1
1532627693716,1,-3,-2,-1,-5,6,3,-1
1532627693721,-1,1,2,-1,1,24,-4,-1
1532627693726,0,-4,-7,-4,-7,-16,-2,1
1532627693731,-2,-1,-1,1,-1,-16,-9,-2
1532627693736,1,-1,3,2,3,9,0,1
1532627693741,-2,-2,-2,-2,-5,17,3,0
1532627693746,-2,0,-2,-2,-12,-21,1,0
1532627693751,-1,1,0,3,7,-21,0,0
1532627693756,0,-2,-4,-4,-4,22,3,-2
1532627693761,-1,0,1,7,7,-8,-3,-1
1532627693766,-4,-2,-1,0,-2,-2,-1,-8
1532627693771,-1,-1,0,-3,-2,1,5,3
1532627693776,-1,1,0,0,-5,-4,-2,-3
1532627693781,0,-2,-3,-4,-3,-4,1,0
1532627693786,1,0,-1,1,-2,-1,1,0
1532627693791,-1,-1,1,1,-2,-18,-6,-4
1532627693796,-2,0,0,-1,2,-2,1,0
1532627693801,-1,-2,1,-5,-10,8,0,-1
1532627693806,0,-1,-2,1,0,-4,0,-2
1532627693811,-2,0,0,2,4,6,-2,0
1532627693816,0,-1,0,2,-3,3,2,1
1532627693821,1,0,1,-3,2,-10,1,-1
1532627693826,-1,-1,0,-3,-3,-7,-2,1
1532627693831,-3,-2,-2,-3,-2,-12,-3,-2
1532627693836,-1,1,0,-5,-8,29,4,1
1532627693841,-1,-1,-1,2,1,-18,-10,-2
1532627693846,-2,-3,-3,-5,-5,-21,8,1
1532627693851,2,1,-2,-2,-3,-11,6,1
1532627693856,-2,-2,-1,-2,-3,7,-17,-3
1532627693861,3,0,-1,-3,7,12,-3,0
1532627693866,0,0,0,1,10,1,-11,-2
1532627693871,-1,-3,-2,-12,-26,-10,-7,-1
1532627693876,-1,-1,1,2,1,-6,7,-1
1532627693881,-2,-1,0,-1,1,-1,-2,0
1532627693886,0,0,-1,-3,-3,7,4,0
1532627693891,1,-1,0,0,8,8,11,1
1532627693896,-1,0,1,2,2,3,-5,-1
1532627693901,-3,-1,-2,-5,-8,1,5,0
1532627693906,-1,1,0,4,4,6,2,2
1532627693911,-1,-1,1,0,1,-2,4,-2
1532627693916,-3,0,-1,-2,-2,-20,-3,-1
1532627693921,-1,-1,1,2,-2,5,-2,-4
1532627693926,1,-2,-3,-1,0,7,3,-2
1532627693931,0,-1,-1,1,2,4,-13,1
1532627693936,1,-1,-3,-2,-5,-12,9,1
1532627693941,-2,0,0,-2,7,-3,-7,-3
1532627693946,-2,0,0,-4,-8,-3,-4,-2
1532627693951,-2,-1,0,-1,3,18,0,-2
1532627693956,-2,-2,-2,-3,3,-13,3,-2
1532627693961,1,1,1,0,-4,31,2,4
1532627693966,0,1,-2,1,2,7,9,3
1532627693971,-2,-2,-2,0,3,-19,-5,-3
1532627693976,1,0,-1,-3,-6,-6,-6,3
1532627693981,0,-2,-4,-2,-4,-8,2,-1
1532627693986,-1,-1,-2,-2,3,-3,2,-3
1532627693991,1,-1,-1,-2,-1,16,2,2
1532627693996,-1,1,0,2,2,-5,-6,-4
1532627694001,0,-1,0,-1,0,32,11,-1
1532627694006,0,-1,0,-1,-5,-35,-7,1
1532627694011,-3,-1,1,2,4,-4,1,-5
1532627694016,0,-3,0,1,-4,0,-1,0
1532627694021,-1,1,-1,-3,1,-9,-3,1
1532627694026,-2,-1,0,0,0,10,2,-2
1532627694031,0,1,0,3,6,-4,-20,-2
1532627694036,1,0,-2,-2,-4,2,21,1
1532627694041,-2,-4,-3,-1,0,20,1,-6
1532627694046,-1,-2,1,1,7,1,-8,-1
1532627694051,-1,-1,-2,-1,-3,-13,-3,0
1532627694056,0,-1,-1,1,4,6,-6,0
1532627694061,-1,-2,-2,-3,0,-16,11,0
1532627694066,0,-1,-1,1,-4,-14,-15,-3
1532627694071,-1,-2,-1,1,-3,9,4,0
1532627694076,0,-3,-3,-3,0,12,8,3
1532627694081,0,0,-1,-1,-1,-16,1,-2
1532627694086,1,0,1,0,2,-7,1,0
1532627694091,-1,-1,1,0,1,0,-2,-2
1532627694096,0,-1,-2,-2,-7,7,-2,-2
1532627694101,-1,-2,-2,0,-8,5,-2,0
1532627694106,-2,-2,-1,-3,-2,-4,4,-1
1532627694111,3,2,2,3,-4,1,5,6
1532627694116,-1,-1,0,0,9,13,-8,-3
1532627694121,0,0,1,3,4,-6,-3,0
1532627694126,-1,0,-2,-2,-1,25,1,-2
1532627694131,-2,-1,-2,-1,0,-25,-10,1
1532627694136,0,1,-1,2,-7,1,13,-2
1532627694141,-1,-2,-1,1,-1,7,-3,-1
1532627694146,0,-1,0,2,0,13,10,2
1532627694151,-1,1,-1,-1,-3,-19,1,-2
1532627694156,1,0,2,-1,0,-14,4,3
1532627694161,0,1,-2,0,-3,-7,-4,-2
1532627694166,-1,-1,0,1,3,14,4,-1
1532627694171,0,0,-2,-2,1,-1,-3,-2
1532627694176,-1,-2,-1,-2,1,-11,-4,-2
1532627694181,1,0,-3,-4,-12,-6,-2,0
1532627694186,0,-1,1,6,11,-7,8,3
1532627694191,0,0,1,-9,-23,27,9,3
1532627694196,-1,0,-1,-1,3,-18,-8,-3
1532627694201,1,-2,0,0,4,-2,-5,-1
1532627694206,-1,-2,-2,-1,0,8,-5,-3
1532627694211,0,-2,0,2,2,-34,-2,0
1532627694216,0,-1,1,0,-2,9,2,-1
1532627694221,0,0,2,-2,1,32,8,3
1532627694226,-1,0,-2,-1,-5,-25,-6,-2
1532627694231,-2,-3,-3,-1,5,21,6,0
1532627694236,-2,-1,-2,-2,-3,-2,-3,-1
1532627694241,-1,-2,0,0,4,-13,0,-3
1532627694246,-2,-1,-1,-1,-5,12,6,0
1532627694251,-1,-2,-1,0,-4,-21,-4,-3
1532627694256,-1,-2,-3,-1,3,-17,-4,-3
1532627694261,-1,-1,0,0,1,10,5,1
1532627694266,1,-1,-1,-2,-9,6,-2,0
1532627694271,-2,1,0,0,-2,-1,1,-4
1532627694276,-1,0,-1,-2,3,-2,3,-1
1532627694281,2,2,1,1,-2,1,4,5
1532627694286,-1,-1,1,-1,1,-7,-2,-1
1532627694291,-1,0,-2,-5,-7,-5,1,-1
1532627694296,1,1,0,2,1,35,10,3
1532627694301,0,-1,-3,0,-3,-36,3,2
1532627694306,0,-1,-3,-3,-3,4,0,0
1532627694311,0,-2,1,1,6,12,7,2
1532627694316,-1,-2,-2,-3,8,-5,-2,-2
1532627694321,-2,-3,-2,-7,-21,12,0,-3
1532627694326,-1,-1,0,-1,-5,-7,3,0
1532627694331,-3,-2,-2,-2,6,34,1,-6
1532627694336,0,0,1,4,0,-33,2,0
1532627694341,-1,-1,0,0,5,6,-6,-4
1532627694346,-1,-3,-1,-3,-6,-12,2,-1
1532627694351,1,0,0,1,4,24,15,1
1532627694356,-2,-2,1,1,-2,25,28,0
1532627694361,2,2,-1,0,4,-53,2,0
1532627694366,0,1,1,2,2,2,-3,-3
1532627694371,0,1,1,2,2,-13,-20,-1
1532627694376,1,0,-3,-2,-5,25,-5,4
1532627694381,-4,-3,-5,-9,-4,7,-15,-1
1532627694386,0,0,0,3,5,-8,-18,-2
1532627694391,-2,-1,1,0,-4,-16,-10,0
1532627694396,-1,-1,1,0,-3,-3,-9,-3
1532627694401,-1,-1,1,2,3,17,-2,-3
1532627694406,0,-3,-2,-3,3,3,3,2
1532627694411,0,0,-2,-1,-1,-4,7,0
1532627694416,1,-1,1,0,-1,-21,-13,-1
1532627694421,-2,-2,-3,-2,-3,-16,0,-3
1532627694426,0,1,2,2,-1,9,3,-2
1532627694431,1,-2,-1,0,4,-1,5,0
1532627694436,-2,0,-1,-2,1,8,-5,-1
1532627694441,-1,-2,-2,-5,-1,-23,-1,0
1532627694446,-1,-2,-1,-1,-1,22,-3,-4
1532627694451,-2,0,0,1,-4,14,6,0
1532627694456,-1,-1,-1,0,2,16,-1,1
1532627694461,2,1,3,5,2,-52,-11,1
1532627694466,-3,0,-2,-1,-2,7,4,-1
1532627694471,-3,-3,-5,-7,-12,-8,-1,1
1532627694476,-1,0,0,-1,-2,-11,-9,-1
1532627694481,-2,-3,-2,-2,0,37,5,-1
1532627694486,1,1,0,-2,-1,-18,-2,-1
1532627694491,0,0,0,2,1,-4,-4,-2
1532627694496,-1,0,-5,-4,-1,16,12,1
1532627694501,-1,-1,-1,0,-1,10,5,2
1532627694506,1,-1,0,-1,3,-10,3,-2
1532627694511,-1,-3,-1,-4,-11,9,3,-3
1532627694516,0,0,-1,1,-1,-7,-8,-4
1532627694521,-1,0,-2,-1,1,-9,4,-1
1532627694526,-2,-1,-2,-1,1,-12,-9,0
1532627694531,1,-1,0,0,1,-2,-1,1
1532627694536,-2,-3,-1,-1,-1,10,1,0
1532627694541,0,-1,0,1,3,7,2,0
1532627694546,-2,-1,-4,-1,-3,14,3,1
1532627694551,0,0,-2,-6,-1,-26,-7,0
1532627694556,0,-1,-1,-1,-5,11,2,-2
1532627694561,-2,0,1,1,1,7,-6,-4
1532627694566,-2,-2,-1,-3,-9,-28,-4,0
1532627694571,2,1,1,4,19,42,9,4
1532627694576,-1,0,-1,-1,2,2,-1,2
1532627694581,-1,0,-2,-2,-9,14,4,-2
1532627694586,0,-2,2,1,-2,-42,-4,-1
1532627694591,-2,-1,-1,0,-6,-31,-9,-2
1532627694596,0,-1,-2,-2,-2,-3,0,0
1532627694601,1,-1,0,3,8,14,1,-2
1532627694606,-1,0,-1,0,-1,21,0,0
1532627694611,-1,-1,-2,0,2,0,7,-1
1532627694616,0,-1,2,0,-2,0,-3,-2
1532627694621,0,0,1,2,1,-14,-2,0
1532627694626,-1,-3,-3,-4,-6,-3,3,3
1532627694631,0,-2,0,0,6,8,-3,-3
1532627694636,-2,-1,0,-1,2,-20,-4,-3
1532627694641,-3,-1,-2,0,-3,25,-6,-6
1532627694646,1,2,-1,1,-1,-17,1,0
1532627694651,0,-1,-2,0,-1,6,5,2
1532627694656,0,0,-2,-3,-4,-4,-2,-1
1532627694661,-1,-1,0,-2,-2,1,2,1
1532627694666,1,1,-1,0,-1,-2,-1,-1
1532627694671,-1,-1,0,-3,-3,-11,-3,-2
1532627694676,0,1,-1,2,2,4,2,-1
1532627694681,-2,-2,-4,-4,-3,-14,0,0
1532627694686,-1,-1,0,0,3,38,2,-4
1532627694691,2,0,-1,2,2,-5,5,4
1532627694696,0,-1,-1,-1,-2,-5,-2,-3
1532627694701,0,0,0,0,6,25,3,2
1532627694706,0,-1,-2,-1,-3,-56,-7,-1
1532627694711,-1,0,0,-1,-1,-2,-8,-4
1532627694716,-1,-2,0,-2,-5,2,2,1
1532627694721,0,0,0,0,0,8,1,0
1532627694726,-1,-3,-6,-6,-3,27,9,-2
1532627694731,-2,0,1,1,-4,-19,1,1
1532627694736,0,0,-3,-3,-4,-7,1,-1
1532627694741,-2,-1,-1,-2,-5,1,-3,1
1532627694746,0,1,4,6,9,10,4,3
1532627694751,-1,-2,-6,-3,-5,-25,-5,-2
1532627694756,-3,-2,-1,-3,-4,10,-1,-4
1532627694761,0,-2,-2,-1,-3,3,0,-5
1532627694766,-2,-1,-2,-2,3,12,2,7
1532627694771,0,1,3,1,1,12,-1,-3
1532627694776,-1,-2,0,3,-1,2,0,0
1532627694781,-2,-1,-1,0,3,-23,-7,0
1532627694786,1,-1,-1,-1,-4,3,-2,-3
1532627694791,-2,-1,-3,-2,0,-9,-2,0
1532627694796,-2,-1,-3,-1,-5,1,-6,-4
1532627694801,1,-1,-1,-2,-4,0,5,0
1532627694806,-3,0,1,1,-1,-2,-6,-3
1532627694811,-1,0,2,0,-4,8,2,0
1532627694816,0,-1,0,-1,0,-15,-4,0
1532627694821,-2,0,1,1,3,-2,0,1
1532627694826,-2,-1,-1,-2,-1,-13,-2,-5
1532627694831,0,-1,0,-2,0,6,3,-1
1532627694836,-1,-2,-3,-1,0,-9,-3,0
1532627694841,-1,-1,0,0,-1,1,3,2
1532627694846,-1,-1,-2,-2,-2,23,4,-1
1532627694851,-4,-5,-5,-5,-4,-20,-4,-7
1532627694856,-1,-1,1,-2,-9,3,2,2
1532627694861,2,-2,-2,1,11,-4,-4,-3
1532627694866,-1,1,1,1,0,-9,-7,-1
1532627694871,0,0,1,2,3,12,-7,-3
1532627694876,1,1,2,1,5,4,5,0
1532627694881,0,-2,-3,-2,-6,-18,-5,-3
1532627694886,-3,-3,-2,-4,-4,6,-1,-4
1532627694891,0,-1,-2,0,3,-1,-6,-1
1532627694896,-2,0,0,2,3,1,2,1
1532627694901,0,2,1,3,1,-12,-2,1
1532627694906,-1,-2,-3,-3,2,1,3,0
1532627694911,0,-1,-2,-2,-4,0,2,0
1532627694916,-2,0,-1,0,1,11,3,-2
1532627694921,-2,0,-1,-3,-4,-9,-3,-1
1532627694926,0,-1,0,2,-2,0,5,8
1532627694931,-1,1,0,-1,2,17,5,1
1532627694936,0,0,-1,0,2,-31,-8,-1
1532627694941,-2,0,-2,-2,-3,13,2,-3
1532627694946,-3,-1,-1,-1,-2,-6,-2,-4
1532627694951,-1,-1,-2,-3,-6,-4,-5,2
1532627694956,1,-1,0,-1,-4,3,6,2
1532627694961,-2,-2,-1,-1,0,14,4,3
1532627694966,1,0,-1,-3,-1,3,2,0
1532627694971,-1,1,-1,1,-2,-7,4,-1
1532627694976,-1,-2,-2,-2,0,30,-2,-5
1532627694981,-1,0,-3,1,3,-22,-2,-2
1532627694986,2,0,0,1,-3,-24,-5,0
1532627694991,0,-1,0,0,4,32,12,1
1532627694996,-1,-1,1,-4,-3,-4,0,2
1532627695001,0,0,-4,-3,0,13,5,1
1532627695006,-2,0,0,-1,0,8,2,-4
1532627695011,0,0,0,0,4,-9,-2,0
1532627695016,-2,0,0,0,1,11,0,-7
1532627695021,1,-1,1,1,-2,-30,-3,4
1532627695026,1,0,-2,-1,-4,-11,-4,7
1532627695031,-2,-2,-3,-4,0,5,-4,-7
1532627695036,0,0,0,0,3,3,-4,1
1532627695041,-1,-1,-3,-3,-1,6,-1,-7
1532627695046,-4,-1,-1,2,1,-2,-2,-6
1532627695051,-1,0,1,-1,-2,16,-4,2
1532627695056,1,-1,-4,-1,-1,-27,7,-2
1532627695061,0,0,1,-1,-4,-9,-6,-1
1532627695066,-1,-1,0,-2,-1,1,-1,-1
1532627695071,0,-2,-2,0,-1,13,0,-1
1532627695076,-1,-1,-1,1,0,-28,5,0
1532627695081,-1,-1,0,2,3,22,3,2
1532627695086,0,-1,1,0,-1,1,3,-1
1532627695091,-2,-2,-3,-5,-4,-15,-2,-7
1532627695096,2,1,-1,-2,2,20,6,1
1532627695101,0,0,-3,-4,-2,5,5,13
1532627695106,-3,-1,0,0,2,3,0,-6
1532627695111,-1,-2,1,0,0,-14,-3,-5
1532627695116,-1,0,0,-2,-1,-7,-3,1
1532627695121,-2,0,0,-2,-2,4,5,-1
1532627695126,0,0,-1,-4,-14,-6,-4,-2
1532627695131,-3,1,0,1,3,-3,-3,-1
1532627695136,-3,-1,-3,0,1,-5,-4,-3
1532627695141,-1,-3,0,0,-5,-4,-8,-11
1532627695146,0,-2,-4,-2,2,6,1,6
1532627695151,0,0,1,2,-2,-6,3,0
1532627695156,-1,-1,-1,-3,-4,14,-4,-1
1532627695161,0,0,-1,0,1,-10,-10,1
1532627695166,0,0,-1,-1,0,-3,-4,-7
1532627695171,-2,-1,0,0,2,-7,-4,-4
1532627695176,-1,-1,0,-1,0,9,-2,0
1532627695181,1,1,2,-1,-1,-1,11,6
1532627695186,0,0,1,1,0,4,-1,-3
1532627695191,0,0,-2,-3,-6,-7,-5,6
1532627695196,-2,-2,-4,-1,1,-3,-1,-10
1532627695201,-2,-1,-1,-4,1,8,5,0
1532627695206,1,0,1,0,2,-1,2,0
1532627695211,-3,-2,-1,-1,0,12,10,2
1532627695216,0,1,1,3,-2,-12,-7,2
1532627695221,1,-1,-1,1,3,-2,2,-2
1532627695226,-3,-2,-3,-3,-5,-2,-2,-3
1532627695231,0,0,-1,1,3,6,-4,1
1532627695236,-2,-4,-2,-3,-1,1,4,1
1532627695241,-2,-2,-3,-2,-4,-7,0,-2
1532627695246,0,-3,-4,-4,3,2,0,-5
1532627695251,0,-1,-1,1,1,-5,-1,0
1532627695256,1,-1,1,0,-2,-1,-1,1
1532627695261,-1,-2,0,2,3,6,0,-9
1532627695266,-1,-1,3,0,-1,-1,2,5
1532627695271,-1,-1,-3,-5,-3,-11,-2,-3
1532627695276,-1,-1,-1,0,2,8,6,7
1532627695281,-1,-1,0,1,-3,5,8,-7
1532627695286,-2,-1,-2,0,-2,-4,-3,-2
1532627695291,0,0,0,2,-1,7,-1,7
1532627695296,0,-1,0,0,-2,-17,-7,-3
1532627695301,0,1,0,-1,-3,5,-2,-2
1532627695306,-1,-1,0,4,4,24,5,-1
1532627695311,2,-2,-6,-6,-4,-4,6,1
1532627695316,0,-1,-3,-1,-2,4,3,-2
1532627695321,-1,-1,0,-1,0,-3,-7,2
1532627695326,-1,0,0,-1,2,-8,0,-4
1532627695331,-1,-1,2,1,1,-6,4,4
1532627695336,0,-1,-1,-3,-2,-13,-4,-4
1532627695341,-1,-1,-1,1,0,-1,-4,1
1532627695346,0,1,-3,-4,-4,-2,2,1
1532627695351,-1,-1,1,-1,-1,5,-1,-6
1532627695356,0,0,-1,-2,-2,-10,0,-1
1532627695361,0,2,-1,0,-2,7,-2,4
1532627695366,0,2,1,2,2,1,0,-7
1532627695371,1,0,0,-3,-6,-5,5,5
1532627695376,-2,1,1,3,2,8,0,3
1532627695381,-1,-1,-2,-3,-2,1,0,-3
1532627695386,0,-2,-3,0,0,-5,-1,-4
1532627695391,-2,1,0,1,1,-5,1,0
1532627695396,0,-1,0,-1,-2,-8,-6,-2
1532627695401,-1,-2,0,-1,-2,-1,-1,-3
1532627695406,0,-2,-3,-4,-2,3,0,0
1532627695411,-1,0,0,1,1,-10,-2,-3
1532627695416,-2,-2,0,-1,-1,2,1,3
1532627695421,-1,0,0,0,1,5,-2,-2
1532627695426,1,-2,-1,-1,-1,-9,0,3
1532627695431,-2,0,0,1,1,-3,0,-2
1532627695436,-1,-2,-6,-6,-1,2,-2,-2
1532627695441,-1,-1,-1,-1,-1,2,-1,-3
1532627695446,-1,-1,0,-1,2,5,1,0
1532627695451,1,0,-1,0,-2,-3,-2,3
1532627695456,-1,0,0,1,-1,6,2,11
1532627695461,-2,-1,-2,-2,-2,-8,-5,-8
1532627695466,-3,-2,-1,-3,-1,-19,1,2
1532627695471,0,0,1,2,0,-8,-5,-5
1532627695476,-1,-2,-1,0,0,4,3,-1
1532627695481,1,-1,1,0,1,3,0,4
1532627695486,-1,0,0,1,1,8,3,0
1532627695491,-2,-2,-1,-1,-2,0,-1,-3
1532627695496,-1,-2,-2,-5,-4,-6,3,-3
1532627695501,0,-1,0,-1,-3,1,3,-1
1532627695506,-1,0,-1,-2,0,-3,-1,0
1532627695511,-2,0,-1,1,2,6,3,2
1532627695516,0,-1,0,1,0,-6,-4,-1
1532627695521,-2,-2,-4,-3,0,-7,-2,-3
1532627695526,-1,0,0,-2,-5,4,-2,-6
1532627695531,0,-2,-4,-1,-1,-3,-5,-3
1532627695536,0,0,2,2,-1,15,-1,7
1532627695541,-2,-1,-1,0,0,-11,-2,2
1532627695546,1,-1,1,-1,-3,-1,-2,3
1532627695551,0,-1,-1,-2,-3,-1,2,2
1532627695556,-1,-1,0,0,-1,-1,-3,-11
1532627695561,0,-2,0,-1,-1,2,2,2
1532627695566,0,-1,-1,0,2,4,2,-1
1532627695571,0,-1,0,2,-1,-5,-1,-3
1532627695576,-1,0,-2,-3,1,4,2,-1
1532627695581,-1,0,-1,0,-2,-4,2,-2
1532627695586,0,0,1,1,-2,-20,-6,-1
1532627695591,-1,0,0,-1,0,-3,-6,-6
1532627695596,-1,1,0,2,0,0,-2,4
1532627695601,-2,0,1,1,0,7,0,-5
1532627695606,0,-3,-3,-2,0,4,0,10
1532627695611,-1,-1,-1,-3,-2,-4,1,-4
1532627695616,-2,0,0,0,-1,-1,-16,-2
1532627695621,-1,0,-2,-3,-2,-1,-2,-3
1532627695626,-1,0,0,0,1,12,-3,1
1532627695631,-1,0,0,0,1,-5,-3,1
1532627695636,0,-2,-2,-1,0,-2,4,-4
1532627695641,1,-1,0,1,-1,0,5,0
1532627695646,-2,-1,-1,-2,-4,3,0,-2
1532627695651,1,0,-1,-4,2,1,4,0
1532627695656,-1,-1,-2,1,-2,-3,2,-5
1532627695661,-1,0,-1,0,1,11,-3,0
1532627695666,1,0,-1,0,0,-4,0,8
1532627695671,-1,0,0,2,1,-6,-2,-4
1532627695676,1,0,0,-2,-3,-5,3,-4
1532627695681,0,-1,0,-2,3,2,5,11
1532627695686,0,-2,-1,0,-1,5,4,-6
1532627695691,-1,-2,1,0,0,3,3,-3
1532627695696,0,0,-1,1,-1,-2,3,5
1532627695701,0,-1,-2,-3,-4,-3,2,-1
1532627695706,-1,-3,-3,-2,-3,-4,-2,-8
1532627695711,-1,1,0,2,0,0,-3,3
1532627695716,-2,-2,-3,-3,0,-5,-1,-4
1532627695721,-1,0,-2,-2,-3,-2,-5,-1
1532627695726,-1,0,-1,-1,1,-1,1,0
1532627695731,-1,-2,-2,0,-3,11,-1,-4
1532627695736,-1,-1,0,0,-1,-1,-3,-5
1532627695741,0,0,0,1,1,-20,-10,7
1532627695746,0,0,-1,-3,0,1,-8,-13
1532627695751,0,0,-4,1,-2,-6,-3,6
1532627695756,-1,1,0,-2,-1,1,4,3
1532627695761,-3,0,-1,2,0,8,5,-6
1532627695766,0,-1,-3,-2,-2,-5,-1,-4
1532627695771,0,1,0,-3,-1,0,5,0
1532627695776,0,-1,1,0,0,3,1,-4
1532627695781,0,-1,-3,-2,-5,-2,2,-2
1532627695786,-1,-1,1,0,0,-2,2,0
1532627695791,0,-1,-1,-1,0,1,-1,2
1532627695796,0,-3,0,-3,-2,1,-1,-8
1532627695801,-1,-1,0,3,1,-4,-7,4
1532627695806,0,0,-1,0,1,-2,1,4
1532627695811,-2,-2,-2,-4,-1,15,0,-10
1532627695816,1,1,-1,3,1,-29,-2,17
1532627695821,-2,-2,-2,1,-2,24,5,-11
1532627695826,-1,0,1,1,1,-29,1,3
1532627695831,0,-1,-2,-3,-2,11,3,0
1532627695836,-2,0,1,2,-1,0,1,-7
1532627695841,-1,0,-2,-2,3,-3,-2,-5
1532627695846,-1,-1,1,0,-2,9,5,12
1532627695851,-2,-1,-2,-1,-2,-1,-3,-5
1532627695856,-1,-1,-1,0,0,6,5,3
1532627695861,-1,-1,0,-1,0,-3,-1,0
1532627695866,-2,-1,-1,0,-1,-8,-4,-5
1532627695871,-1,-1,-2,-1,1,12,9,2
1532627695876,-1,-2,0,0,1,-2,-9,2
1532627695881,0,-1,-1,0,3,1,-5,-3
1532627695886,-1,-4,1,1,1,13,-3,-8
1532627695891,1,-1,-3,-1,-4,-6,5,12
1532627695896,0,-1,-1,0,4,-15,4,-2
1532627695901,0,0,1,-2,-3,7,6,-1
1532627695906,-1,1,0,-1,-2,-5,-2,-3
1532627695911,0,0,0,0,0,-4,-10,-7
1532627695916,-2,-1,-3,-2,-2,12,-2,-3
1532627695921,1,-1,-1,-2,0,-16,-9,9
1532627695926,1,-1,-4,-1,1,10,-13,-3
1532627695931,-2,-1,0,0,-1,-9,-5,-1
1532627695936,-2,1,-3,-1,0,14,3,-6
1532627695941,0,-2,0,-2,-4,-14,5,-1
1532627695946,0,-2,-2,-1,3,1,3,2
1532627695951,-2,-2,1,2,-1,16,2,-1
1532627695956,0,-1,0,-3,-8,-38,2,3
1532627695961,0,1,-1,-1,0,-2,4,-1
1532627695966,-1,1,-1,-1,0,11,2,-8
1532627695971,2,0,0,-3,-5,-17,-2,6
1532627695976,-3,0,-1,-2,0,17,3,-1
1532627695981,1,-1,-1,-2,-3,-4,1,0
1532627695986,-2,0,0,3,-1,-5,3,-5
1532627695991,-2,-1,-2,-4,-3,-4,3,2
1532627695996,2,-1,-2,-3,-2,0,-2,-1
1532627696001,-2,0,1,2,1,3,-2,-4
1532627696006,-1,1,2,-1,-2,8,0,-4
1532627696011,1,0,2,3,3,-13,-3,7
1532627696016,1,-1,0,0,-4,3,-1,2
1532627696021,-2,-3,-1,-1,1,-10,-4,-2
1532627696026,-1,0,0,-1,0,16,1,-1
1532627696031,-3,-3,-1,-2,-1,-4,-1,-8
1532627696036,-2,0,1,1,2,3,-3,-2
1532627696041,1,0,-1,-1,1,5,6,14
1532627696046,-1,1,0,0,-7,-7,2,4
1532627696051,0,-1,-1,0,4,-6,0,-1
1532627696056,-2,-2,-2,-5,1,1,-3,-9
1532627696061,-2,-2,-2,1,0,15,0,-7
1532627696066,-1,0,-1,-2,-1,-29,-1,5
1532627696071,-1,-2,-3,0,0,2,-1,0
1532627696076,0,-1,-2,0,-10,7,-2,-2
1532627696081,-1,0,1,-1,-3,-8,-2,0
1532627696086,0,-1,-2,-4,-1,-7,-1,2
1532627696091,-2,0,0,3,2,-1,-2,-9
1532627696096,0,-2,-2,-1,6,0,0,0
1532627696101,-2,-1,-1,-4,-12,1,-1,-5
1532627696106,-1,-2,0,0,1,3,5,11
1532627696111,0,0,1,3,2,3,1,-7
1532627696116,0,0,-2,-3,0,4,-1,-3
1532627696121,0,-1,-1,-1,3,-4,-1,-6
1532627696126,-1,-1,-1,-1,1,2,-1,-2
1532627696131,-3,-1,1,-1,-4,-1,1,1
1532627696136,0,0,0,3,-3,0,2,4
1532627696141,0,1,-2,-1,3,0,-1,-6
1532627696146,-2,-2,-3,-1,-1,-9,-3,0
1532627696151,0,-1,-1,1,3,5,1,3
1532627696156,0,0,0,0,0,-10,-5,-7
1532627696161,-1,-1,-2,-2,-4,17,3,3
1532627696166,-2,-2,-2,-2,-1,-18,1,-10
1532627696171,2,0,0,-1,-3,-10,-3,4
1532627696176,1,0,-2,-1,3,5,3,1
1532627696181,-2,-1,-1,-4,-10,4,0,1
1532627696186,0,0,-1,1,3,-1,-5,-3
1532627696191,-2,-1,-1,-4,-2,-7,-1,-9
1532627696196,-2,-1,1,-3,0,2,5,8
1532627696201,0,1,2,4,4,0,-2,0
1532627696206,-2,-4,-1,-1,-2,12,-1,-7
1532627696211,-1,0,-2,-2,0,0,2,5
1532627696216,0,-2,-1,-2,-9,17,1,3
1532627696221,-1,-2,-1,1,6,-34,-4,-5
1532627696226,-1,1,-2,-2,-2,-6,-1,2
1532627696231,0,0,2,2,3,-2,-4,-2
1532627696236,-4,-2,0,-3,0,12,-1,-3
1532627696241,-1,0,-2,0,1,1,-1,-1
1532627696246,-1,-1,-2,-2,-2,5,1,-8
1532627696251,1,-1,-1,-2,2,18,8,17
1532627696256,0,1,-2,-1,-4,-34,-9,-1
1532627696261,-2,-1,0,-1,0,-1,-3,-4
1532627696266,-1,-1,-3,-1,-2,-2,-1,4
1532627696271,-2,-2,1,0,-2,5,-2,-9
1532627696276,-2,-2,-1,-1,1,2,1,-3
1532627696281,-1,-1,-1,1,-2,5,5,1
1532627696286,-1,-1,1,3,0,-3,0,5
1532627696291,-1,-2,-2,-3,-4,8,-3,-5
1532627696296,-3,-2,-1,-1,-3,-6,0,-7
1532627696301,0,-3,0,0,0,-6,-6,5
1532627696306,0,1,-3,-2,-1,11,9,1
1532627696311,-1,0,-3,-1,-3,-4,-6,-7
1532627696316,0,0,-1,0,5,-5,-5,5
1532627696321,-1,0,-1,-2,2,11,3,-2
1532627696326,1,-1,-3,-2,-2,-3,-1,-2
1532627696331,-2,-1,-2,1,1,-1,1,-1
1532627696336,-2,-2,-2,0,2,-5,-3,-2
1532627696341,-1,-2,-2,-1,0,0,3,4
1532627696346,-1,-1,-1,-1,-3,2,-2,0
1532627696351,-1,-1,0,-2,-2,6,-6,-6
1532627696356,0,0,-2,1,2,-16,-1,2
1532627696361,-2,-1,1,-1,-3,-6,0,0
1532627696366,0,0,-4,0,-1,0,3,1
1532627696371,-1,-2,2,1,-1,2,-1,-4
1532627696376,0,-1,-1,-4,-1,7,-4,-5
1532627696381,0,-1,-3,-3,1,-3,4,6
1532627696386,-1,-1,0,-2,-2,-14,-5,-8
1532627696391,2,0,-2,-1,-4,-3,4,16
1532627696396,-1,-2,0,-2,1,31,-2,-7
1532627696401,-1,1,-2,-2,-6,-45,-2,2
1532627696406,1,-2,-2,0,-7,21,5,-1
1532627696411,-2,0,-1,-2,7,-17,-3,-8
1532627696416,0,1,0,2,4,-10,-1,6
1532627696421,1,0,-2,-3,-1,18,4,0
1532627696426,0,2,0,0,0,0,1,1
1532627696431,-3,-1,-5,-2,-4,5,1,-10
1532627696436,-1,-1,1,0,-5,-14,1,5
1532627696441,0,-2,0,0,2,3,-1,-4
1532627696446,0,0,0,-1,4,2,-5,-2
1532627696451,0,1,1,1,-3,16,4,1
1532627696456,-1,1,1,-1,-4,-13,-2,-1
1532627696461,-3,-3,-3,-4,-6,-7,-2,-5
1532627696466,-1,-2,-1,0,5,16,-2,2
1532627696471,2,-2,0,-3,-8,-13,2,5
1532627696476,-1,-2,1,0,1,2,-5,-2
1532627696481,-1,-3,0,1,-2,4,3,-5
1532627696486,-2,-1,0,0,1,-15,-6,1
1532627696491,-3,-1,-1,-2,6,16,2,-4
1532627696496,1,0,-1,-1,0,-9,0,1
1532627696501,-1,0,-2,-2,-2,4,-4,-2
1532627696506,-2,0,-1,0,-5,2,0,-4
1532627696511,0,-2,-1,0,-1,-5,0,4
1532627696516,-1,0,-2,-1,-3,7,-2,-5
1532627696521,-2,0,1,-1,3,6,9,6
1532627696526,0,-2,-4,-4,-7,-12,-3,-4
1532627696531,0,-1,-2,-6,-11,8,-3,-2
1532627696536,-2,-2,-2,-1,4,17,-3,-4
1532627696541,1,-1,-2,-1,-10,-34,-2,1
1532627696546,-1,-1,1,3,2,4,-4,0
1532627696551,-2,-1,1,1,0,-8,4,-7
1532627696556,1,-1,-4,-5,-10,12,5,15
1532627696561,-2,-1,-2,2,13,5,-3,-7
1532627696566,0,1,0,-1,-1,-3,1,7
1532627696571,-2,0,-3,0,-1,-1,-6,-8
1532627696576,-1,-2,0,2,-1,-4,0,-2
1532627696581,0,-2,-1,-1,-4,4,-2,0
1532627696586,-1,1,-1,0,2,0,-1,-3
1532627696591,-1,-2,-2,1,3,0,-3,1
1532627696596,-1,0,-1,1,3,-11,0,-2
1532627696601,-1,-1,-2,-3,-9,2,1,0
1532627696606,-1,-2,1,-2,1,-1,3,1
1532627696611,0,1,-1,0,0,-5,-3,1
1532627696616,0,-1,1,-1,1,9,5,-3
1532627696621,0,0,-1,0,1,2,0,4
1532627696626,-1,1,1,2,2,11,3,0
1532627696631,0,0,-2,-1,-1,-11,4,-1
1532627696636,-2,-1,2,-1,-3,-15,-12,-5
1532627696641,-1,0,-3,0,3,4,-6,-5
1532627696646,-1,-1,-1,-1,-3,5,2,-3
1532627696651,1,1,0,-1,4,0,3,9
1532627696656,-1,-1,-2,0,2,2,-1,-6
1532627696661,1,0,2,1,1,7,3,2
1532627696666,1,-1,-2,-3,-4,-8,0,-3
1532627696671,0,-1,-1,-2,4,4,-4,-5
1532627696676,-1,1,-1,0,-9,1,-1,0
1532627696681,0,1,0,-3,-4,-18,-6,2
1532627696686,0,-1,-1,-1,1,-7,5,2
1532627696691,-2,0,1,0,0,3,-4,-1
1532627696696,0,1,2,4,4,1,13,3
1532627696701,-1,-2,-5,-1,-1,-1,-5,-3
1532627696706,0,0,1,3,3,6,-1,-2
1532627696711,-2,-1,0,-1,-2,-5,1,-2
1532627696716,-2,-1,-2,-4,-1,-7,-2,-4
1532627696721,-1,-1,1,2,-3,4,1,0
1532627696726,-2,0,-3,-2,7,-10,-1,-6
1532627696731,-1,-2,1,-1,-4,1,-1,11
1532627696736,0,-2,-1,-1,-2,3,0,4
1532627696741,1,0,0,-3,4,4,1,-1
1532627696746,-1,-2,0,-1,-5,-1,-4,-1
1532627696751,2,0,-1,-1,-5,1,1,-3
1532627696756,-1,-1,-2,-2,6,3,5,-1
1532627696761,-1,0,-1,1,-2,-4,-9,0
1532627696766,-2,-1,0,-1,-4,2,1,-1
1532627696771,-1,-3,-4,-1,-1,-9,-2,0
1532627696776,-1,0,0,-1,-2,0,-4,0
1532627696781,0,0,1,1,-2,-1,0,-3
1532627696786,0,-1,-1,-3,1,6,4,1
1532627696791,1,0,0,0,2,1,-1,-2
1532627696796,-1,-2,-1,-1,-3,-5,-3,1
1532627696801,-1,-1,0,0,3,9,4,0
1532627696806,1,-1,-2,-3,-6,-5,-4,1
1532627696811,-1,0,-1,0,-4,-4,0,-8
1532627696816,1,-1,-1,-2,-1,5,-1,2
1532627696821,-3,-2,-3,-2,-3,4,-2,-9
1532627696826,0,1,0,1,1,8,5,5
1532627696831,0,0,-1,0,3,-8,-2,0
1532627696836,-2,-2,-2,0,-2,-2,-2,-5
1532627696841,0,-1,1,-2,-2,-1,1,1
1532627696846,-1,-1,-2,0,5,4,-3,-4
1532627696851,-2,-1,-3,0,-1,8,-2,-3
1532627696856,1,-2,-2,-1,1,-9,0,3
1532627696861,0,2,0,-1,0,-1,1,2
1532627696866,-1,0,0,-1,-3,-6,-3,-2
1532627696871,0,0,0,0,1,8,1,-3
1532627696876,0,0,-2,-2,-3,-9,2,-3
1532627696881,0,-2,-2,0,0,23,1,0
1532627696886,0,-1,-2,-4,-10,-25,-5,0
1532627696891,-1,-3,1,2,4,10,4,0
1532627696896,-1,-1,-1,1,1,-2,-4,-1
1532627696901,1,-2,-2,-1,-4,-13,1,0
1532627696906,-2,-1,-2,-2,8,12,1,0
1532627696911,-1,-2,-1,0,0,-15,-3,-7
1532627696916,-2,-1,-1,1,5,8,2,11
1532627696921,-1,0,1,-2,-3,5,7,4
1532627696926,0,-2,-3,-1,0,-4,2,3
1532627696931,-1,1,-2,-2,-6,-5,-1,-3
1532627696936,-4,-1,1,-3,-1,-3,-8,-10
1532627696941,-1,-3,-3,-1,1,5,-2,3
1532627696946,2,-1,-1,2,-1,-19,2,1
1532627696951,-1,-1,-2,-2,0,4,-1,1
1532627696956,-1,-1,-2,-4,-1,0,0,-4
1532627696961,-2,-1,-1,-3,-5,-3,-4,2
1532627696966,-1,0,-1,2,4,8,-1,-5
1532627696971,-1,-1,2,3,3,-9,-1,1
1532627696976,0,0,-1,0,4,9,2,-1
1532627696981,-1,-3,-4,-9,-13,1,3,0
1532627696986,0,0,2,1,0,0,-2,1
1532627696991,0,-3,-3,-2,1,-14,-1,-1
1532627696996,0,0,-2,1,-3,2,2,-5
1532627697001,-1,0,-2,0,6,3,-7,3
1532627697006,-1,-1,0,-1,-2,5,-1,-2
1532627697011,-1,1,1,-1,-5,3,2,-3
1532627697016,1,-1,2,2,0,5,4,15
1532627697021,0,-2,-1,1,3,-5,-4,-8
1532627697026,1,-1,-3,-2,-7,-14,-3,2
1532627697031,0,-1,-2,-2,-1,5,-4,-1
1532627697036,-2,-1,-1,-1,6,1,-2,-6
1532627697041,-1,0,-1,0,2,1,5,1
1532627697046,0,0,-1,-1,2,8,-2,0
1532627697051,-1,-4,0,-2,-1,8,2,0
1532627697056,0,-1,-4,1,-4,1,1,-3
1532627697061,-1,0,0,1,5,-28,-5,1
1532627697066,-1,-3,-1,-5,-5,-3,-2,-6
1532627697071,-2,1,-1,0,-5,5,2,0
1532627697076,0,-2,-2,-4,-2,3,-1,-1
1532627697081,0,-2,0,2,-3,-1,-1,-1
1532627697086,-2,-1,1,3,8,25,3,0
1532627697091,-1,1,-2,0,1,-25,-7,-4
