1532494290382,-1,-2,-13,-2,0,1,2,-1
1532494290387,0,-1,0,1,-4,5,3,0
1532494290392,-3,1,-1,2,7,-10,-6,0
1532494290397,0,-3,-5,-2,-3,1,1,-2
1532494290402,-1,0,15,-1,-3,-4,-2,-2
1532494290407,-1,-2,-13,-3,-2,1,-2,-1
1532494290412,-1,1,-8,-5,-7,4,2,-1
1532494290417,-2,1,9,2,3,-3,-6,0
1532494290422,-2,-2,1,2,1,-1,1,-1
1532494290427,-1,0,-11,-1,-2,-1,-2,0
1532494290432,-1,1,20,-4,-5,0,1,-1
1532494290437,-1,-1,4,-1,-1,2,0,-1
1532494290442,0,-1,-5,3,2,1,-1,-1
1532494290447,-1,0,-3,-1,2,-4,0,0
1532494290452,0,-1,-10,0,-1,-8,-6,0
1532494290457,0,-2,-11,-3,-3,2,4,0
1532494290462,-1,0,6,-1,0,0,0,0
1532494290467,-3,-3,2,-3,-1,3,1,-1
1532494290472,-1,-2,-1,0,-1,2,0,-2
1532494290477,0,0,-2,-1,0,-7,-3,-1
1532494290482,0,0,-7,-1,5,3,1,-1
1532494290487,1,0,3,2,-2,2,-2,-2
1532494290492,-1,0,-5,-2,-3,-6,-3,0
1532494290497,1,-1,2,2,-1,1,-1,-2
1532494290502,1,-2,-7,0,-1,-1,-1,-2
1532494290507,0,-1,5,0,2,0,0,1
1532494290512,-1,0,2,-3,0,3,1,-1
1532494290517,-2,-1,-22,-2,0,1,1,-1
1532494290522,-1,-1,0,-3,-3,-3,-2,1
1532494290527,0,0,7,2,-1,0,-1,1
1532494290532,1,-1,-22,2,2,-2,-5,-1
1532494290537,1,5,18,1,1,0,-2,0
1532494290542,-2,0,-3,0,-4,-2,0,-1
1532494290547,-1,-1,-1,0,0,-2,-2,0
1532494290552,-1,-1,-2,-5,-7,2,1,-2
1532494290557,-3,-2,-5,-3,-2,1,1,0
1532494290562,1,0,0,1,-1,0,0,-1
1532494290567,-2,0,0,1,1,-2,-2,-2
1532494290572,-2,-3,-1,1,2,0,1,-2
1532494290577,1,0,3,2,-2,0,3,0
1532494290582,-1,2,2,-3,-1,-5,-1,-1
1532494290587,-2,-2,-2,-5,-2,0,1,-2
1532494290592,0,-2,14,-1,0,4,-1,0
1532494290597,-3,0,-20,0,-3,-10,-4,-1
1532494290602,-1,-3,3,0,2,-5,-5,1
1532494290607,0,-1,-4,-2,3,-3,0,1
1532494290612,-1,-2,-4,-1,-1,0,1,-2
1532494290617,0,-2,9,-1,-1,6,1,-2
1532494290622,-1,-2,-7,1,1,5,2,0
1532494290627,0,0,14,0,0,-2,-3,0
1532494290632,0,0,-4,2,7,-4,-5,-2
1532494290637,-1,-3,-8,-2,-2,-3,-2,-1
1532494290642,-1,1,4,-5,-4,0,1,-1
1532494290647,0,0,1,0,-3,-1,-2,0
1532494290652,0,0,-5,2,-1,3,3,-1
1532494290657,0,1,2,-1,0,-1,-3,0
1532494290662,-1,1,29,1,0,-7,-1,0
1532494290667,-1,-4,-42,-1,0,-3,-2,-1
1532494290672,0,1,3,0,-1,-1,0,-1
1532494290677,-1,-2,-16,-1,0,3,2,1
1532494290682,-1,0,16,-4,-2,4,0,1
1532494290687,-1,0,9,2,3,-2,0,-1
1532494290692,-1,0,-3,1,-1,2,1,0
1532494290697,-1,-1,1,0,1,-3,-4,-2
1532494290702,-1,-1,-17,-5,-4,-4,-1,-1
1532494290707,0,0,-1,-2,-2,-2,1,-1
1532494290712,-1,0,6,-2,-1,-1,0,0
1532494290717,0,-2,7,-1,1,4,3,-2
1532494290722,0,-2,-9,0,0,-5,-7,-2
1532494290727,-1,1,11,-1,-3,4,4,1
1532494290732,-2,-1,0,-2,5,1,0,-1
1532494290737,0,-3,-5,-2,-5,0,2,1
1532494290742,-1,0,-3,-3,-3,2,-2,-1
1532494290747,-1,0,6,1,1,-12,-6,-1
1532494290752,-1,0,8,-1,0,0,-2,-1
1532494290757,0,1,0,-3,1,-5,-1,-1
1532494290762,0,1,3,2,1,0,-2,-2
1532494290767,-1,0,-4,-4,-4,-1,-1,-1
1532494290772,0,1,7,2,-2,-4,2,-1
1532494290777,0,-2,-33,-6,6,1,-1,-3
1532494290782,-4,-6,1,1,-2,-1,1,-1
1532494290787,0,5,9,-2,0,-1,-1,0
1532494290792,0,-1,0,-1,1,0,0,0
1532494290797,0,2,17,5,1,-4,-3,0
1532494290802,-1,0,-9,-1,2,0,-1,-1
1532494290807,-2,-1,-3,-5,-5,0,0,-2
1532494290812,-2,-3,-9,-1,-1,-2,-4,-2
1532494290817,-1,0,9,0,-4,-3,-1,-1
1532494290822,0,-2,-11,2,0,0,2,1
1532494290827,0,-3,7,0,1,-1,-1,0
1532494290832,-2,-5,-11,-2,1,2,0,-1
1532494290837,0,1,16,-2,-3,1,-1,1
1532494290842,0,0,-13,-5,-2,-1,-4,-1
1532494290847,-2,-1,25,2,-1,1,0,0
1532494290852,0,0,-39,-3,-3,8,4,0
1532494290857,0,-1,23,-1,0,-8,-4,-1
1532494290862,-3,1,8,-1,-3,-1,0,0
1532494290867,0,-2,0,3,4,0,0,-2
1532494290872,0,0,5,1,-2,-1,0,-1
1532494290877,-2,-2,-16,0,-5,0,1,-2
1532494290882,1,-1,4,0,0,-5,-5,-1
1532494290887,-1,-2,-3,-6,-1,-3,-2,0
1532494290892,-2,-1,0,0,0,5,3,1
1532494290897,-1,-2,-7,1,4,-2,-3,-1
1532494290902,-1,1,10,3,0,0,-1,-2
1532494290907,-3,-2,-14,-2,-1,-2,-3,-2
1532494290912,1,-1,4,1,-3,-3,-3,-1
1532494290917,-1,1,9,-4,-1,-1,0,0
1532494290922,-3,-1,-11,1,-5,-5,-5,-1
1532494290927,1,0,-3,0,-1,0,-3,0
1532494290932,-1,-1,-4,-2,3,-2,1,-3
1532494290937,-2,0,7,-3,-5,0,0,0
1532494290942,0,-2,-20,0,1,6,5,-1
1532494290947,-1,6,6,-1,-2,-1,-1,0
1532494290952,0,-2,5,0,-1,-5,-1,0
1532494290957,-2,-3,-9,0,2,0,0,-3
1532494290962,1,-1,1,-1,-2,4,0,-1
1532494290967,0,-1,0,-3,-2,-4,0,-1
1532494290972,0,-1,0,0,2,-7,-3,-2
1532494290977,0,-1,-10,-2,-3,3,3,1
1532494290982,-1,-1,2,-2,-2,-2,-1,0
1532494290987,-1,-4,11,1,0,1,1,-1
1532494290992,-2,-1,-12,-2,1,-3,-3,-1
1532494290997,-2,-2,-4,-2,-5,4,-1,0
1532494291002,-1,0,0,-1,-1,-7,-3,1
1532494291007,1,0,-8,2,1,-2,0,-1
1532494291012,-2,-1,-4,-4,-3,-1,-1,-2
1532494291017,-1,-1,12,0,4,2,0,-1
1532494291022,-1,-1,6,-3,-9,1,0,-2
1532494291027,-2,-2,-8,0,1,-3,-3,-1
1532494291032,0,-2,9,2,0,0,0,1
1532494291037,-2,-1,-5,1,-1,-1,1,-1
1532494291042,0,0,4,-3,-1,1,-2,0
1532494291047,-2,1,2,0,-1,-1,-1,0
1532494291052,0,-2,0,0,-3,-1,-4,-1
1532494291057,1,-1,11,0,1,3,3,-1
1532494291062,0,0,-10,-3,1,-5,-3,0
1532494291067,0,-3,-7,1,-4,-4,0,-1
1532494291072,-2,1,5,-2,0,7,2,1
1532494291077,-1,0,0,2,2,-6,-4,-1
1532494291082,1,1,4,-2,0,3,-1,-1
1532494291087,0,1,-2,-2,-2,1,-2,0
1532494291092,1,-4,-16,-1,-3,-2,0,-1
1532494291097,-1,3,-17,-2,0,-1,-4,2
1532494291102,-1,-1,15,0,-1,-4,0,-1
1532494291107,0,-3,1,0,0,-2,-2,0
1532494291112,-1,2,2,0,4,1,0,-2
1532494291117,-2,-4,-4,0,-1,2,0,-2
1532494291122,-1,-3,-6,-1,1,-3,0,0
1532494291127,-2,1,3,-2,-2,7,2,0
1532494291132,2,-2,16,-1,0,-7,-1,0
1532494291137,-1,-3,-17,-4,-1,1,4,1
1532494291142,0,-1,1,-1,-2,-1,-1,-1
1532494291147,0,0,2,1,-1,-5,-2,-2
1532494291152,-2,2,2,-1,1,-1,0,1
1532494291157,-2,0,0,-4,-7,-4,-3,-2
1532494291162,-1,-1,2,2,3,4,0,1
1532494291167,-1,-2,-5,-3,-1,2,1,-1
1532494291172,-1,0,-12,-1,-2,-2,-1,-1
1532494291177,-1,1,12,-1,-1,-2,-1,-1
1532494291182,-1,-1,4,4,2,-3,-1,-1
1532494291187,-3,-3,-17,-2,-1,-2,-2,-3
1532494291192,-1,0,15,-3,-2,-3,-1,-1
1532494291197,-1,0,11,-1,1,1,-1,-2
1532494291202,-1,0,-16,0,-2,-1,1,0
1532494291207,1,-1,9,-1,1,5,-1,-1
1532494291212,-3,-2,-13,-3,-4,-3,-2,-2
1532494291217,-1,-2,-6,1,2,-3,0,-1
1532494291222,-2,0,9,-3,-8,-3,1,-1
1532494291227,0,0,-1,0,-1,-3,-2,0
1532494291232,0,-1,-4,-2,-1,-3,-3,-1
1532494291237,0,-1,-6,-2,-1,0,4,-1
1532494291242,-2,-1,0,0,0,1,-3,-1
1532494291247,0,-1,0,2,3,-4,2,-1
1532494291252,1,1,7,-1,-1,2,-1,-1
1532494291257,-1,-2,-5,-4,-3,-3,-3,0
1532494291262,-1,-3,-24,-5,0,5,3,-1
1532494291267,-2,1,7,-4,-5,-8,-6,1
1532494291272,-1,-1,4,1,1,3,-2,-2
1532494291277,1,0,1,2,1,0,-2,-2
1532494291282,-1,-1,10,0,0,0,0,-2
1532494291287,-2,-2,-3,1,-2,-1,0,-3
1532494291292,-1,1,-2,2,-1,-2,2,-1
1532494291297,1,-2,-7,-1,-3,0,2,1
1532494291302,-1,1,-4,-1,-1,-2,-2,-2
1532494291307,-1,-1,5,1,0,-2,0,0
1532494291312,0,-3,1,-1,-1,-1,0,-1
1532494291317,0,-1,-6,0,0,0,0,-1
1532494291322,-1,3,7,1,-1,0,-4,-1
1532494291327,-2,0,-1,-2,1,-2,0,-1
1532494291332,0,1,-5,-2,-1,5,3,1
1532494291337,-1,-2,7,0,0,1,0,0
1532494291342,1,-1,-21,-2,-2,-9,-2,0
1532494291347,-2,-2,0,0,0,-3,-1,-3
1532494291352,-1,0,3,-1,0,-3,-4,-1
1532494291357,-1,-1,-2,-1,-1,3,1,-3
1532494291362,-1,0,7,-2,-4,-1,-3,-1
1532494291367,1,0,-16,-1,-2,3,3,0
1532494291372,-1,0,17,3,-1,-3,-3,-1
1532494291377,0,-3,0,0,-4,-4,-4,0
1532494291382,0,-1,-2,0,3,4,1,-2
1532494291387,-1,-2,-9,-3,2,0,-2,-1
1532494291392,-1,-1,-3,-1,-4,1,-1,-3
1532494291397,-2,0,-1,-1,-1,-3,-4,0
1532494291402,-2,0,9,-2,0,-1,-1,0
1532494291407,0,-2,3,1,1,-1,4,-1
1532494291412,-2,-2,-20,-3,3,5,0,2
1532494291417,-1,1,8,1,-2,-1,-2,-2
1532494291422,-2,-5,-29,-1,0,0,0,0
1532494291427,-1,4,39,0,-3,-1,-2,0
1532494291432,-1,-3,-8,1,-3,-6,-1,-1
1532494291437,0,0,-17,-2,3,-4,-1,-2
1532494291442,0,0,15,0,5,4,3,-1
1532494291447,0,-1,-9,-1,-3,-4,-9,1
1532494291452,1,0,4,-2,-4,4,0,1
1532494291457,-1,-1,-5,-1,0,-6,-3,-1
1532494291462,1,-2,4,0,-2,-3,-2,-2
1532494291467,-1,-2,3,-1,-1,4,3,-2
1532494291472,0,-2,-13,-2,-1,-1,-3,-2
1532494291477,-1,-3,6,0,-2,0,1,0
1532494291482,-1,1,1,0,0,1,6,0
1532494291487,-1,-3,0,1,-4,-3,-3,0
1532494291492,-1,1,10,-1,2,0,-1,-1
1532494291497,1,0,-10,-3,4,-4,-2,-1
1532494291502,-1,0,16,0,-5,-3,2,-1
1532494291507,1,1,-20,-1,1,2,4,0
1532494291512,-2,-3,-2,0,-2,-6,-1,-1
1532494291517,-1,0,4,-1,-2,4,0,0
1532494291522,-1,-1,2,-1,3,-5,-11,-1
1532494291527,-2,0,-9,-1,1,-7,-3,0
1532494291532,-1,-2,9,0,-1,1,1,0
1532494291537,0,1,-23,-2,-2,2,1,0
1532494291542,0,-1,7,0,-1,0,-3,1
1532494291547,0,-5,-3,-2,-3,4,4,-1
1532494291552,-2,1,15,-3,-2,-2,-1,0
1532494291557,-2,-1,-8,3,0,-10,-6,-3
1532494291562,-1,2,11,-2,-1,0,2,-2
1532494291567,-1,-2,-3,2,-1,1,-4,-2
1532494291572,0,0,-15,-2,1,-2,2,-2
1532494291577,-1,-1,15,-6,-5,3,4,1
1532494291582,-1,-1,-29,0,-2,-7,-6,-2
1532494291587,-1,1,25,-3,-2,5,0,0
1532494291592,0,-2,-36,0,3,-3,1,-1
1532494291597,0,3,14,2,-1,-3,-2,0
1532494291602,-2,0,17,0,2,0,2,1
1532494291607,-2,-5,-11,-1,-5,0,-2,0
1532494291612,1,1,12,-1,1,2,0,-1
1532494291617,-1,-2,3,1,1,-4,-1,-1
1532494291622,1,-1,-7,-1,-4,1,2,1
1532494291627,-1,-2,-35,0,3,0,1,-1
1532494291632,0,3,18,-2,0,-5,-3,0
1532494291637,-1,-1,-2,1,-10,-2,-2,-2
1532494291642,0,0,18,1,3,4,-1,-1
1532494291647,2,-1,-18,-2,3,3,2,0
1532494291652,0,-1,-7,-1,-4,-9,-6,0
1532494291657,-2,-2,4,1,2,2,-1,-3
1532494291662,-2,-1,-19,-3,-4,4,1,-1
1532494291667,1,0,55,2,-3,2,4,0
1532494291672,0,1,-60,-2,1,-1,-4,3
1532494291677,-2,0,7,1,0,-4,-3,-1
1532494291682,-2,-3,-12,-2,-1,-5,0,-2
1532494291687,-1,1,3,0,-1,5,-1,-2
1532494291692,0,0,20,2,0,-3,2,-2
1532494291697,0,-2,-8,-1,-1,-2,-5,0
1532494291702,-2,-3,-8,-3,0,-1,-3,-2
1532494291707,-1,1,11,0,-1,0,-1,-1
1532494291712,0,0,4,2,2,5,5,0
1532494291717,-2,-2,-13,-1,-2,-5,-3,1
1532494291722,0,1,11,-1,0,3,1,1
1532494291727,-1,-4,-32,-4,0,-7,-3,1
1532494291732,-3,-2,9,0,-1,1,-3,-1
1532494291737,1,4,56,1,-3,2,5,1
1532494291742,1,-3,-34,1,0,-1,-2,-1
1532494291747,-3,-1,-6,-2,-1,-7,-2,-2
1532494291752,-1,-2,3,0,-3,8,-2,-1
1532494291757,-1,-2,-5,-2,1,-2,5,1
1532494291762,-2,0,8,-1,0,-10,-9,0
1532494291767,0,0,-2,-2,-1,-1,2,-1
1532494291772,-1,-4,7,-1,-1,-3,1,-2
1532494291777,0,0,-4,-1,0,4,0,0
1532494291782,0,-3,-9,2,-2,1,0,-2
1532494291787,0,0,-25,-1,0,-4,-3,0
1532494291792,0,4,19,-2,-1,2,-2,-2
1532494291797,-2,0,-15,-2,-5,4,0,-1
1532494291802,0,2,17,1,5,-3,1,0
1532494291807,-1,0,1,-2,-3,-5,-1,-1
1532494291812,1,0,18,-1,-1,4,3,0
1532494291817,-2,-1,-34,-3,2,0,-5,-1
1532494291822,-1,1,9,1,-2,-4,-1,0
1532494291827,-1,-1,5,1,-2,0,0,-2
1532494291832,0,-3,-8,0,-2,-2,-4,-2
1532494291837,0,-3,-6,-1,-1,1,3,-1
1532494291842,1,1,4,-2,-1,3,4,-1
1532494291847,-1,-1,3,1,0,3,-1,-2
1532494291852,-2,-3,-15,0,-3,-6,0,0
1532494291857,-2,2,11,-2,0,1,-6,0
1532494291862,-1,1,-7,-2,-2,-1,-1,-3
1532494291867,0,-1,6,-2,-2,5,2,-2
1532494291872,-2,-5,-7,1,0,-6,-5,-1
1532494291877,0,-1,-6,-2,0,3,-1,0
1532494291882,-1,-2,11,0,-1,-5,-2,0
1532494291887,-1,5,-22,-2,2,-2,-3,3
1532494291892,-2,-2,2,-2,-2,3,0,-1
1532494291897,-1,0,8,0,1,-10,0,-1
1532494291902,0,-3,-11,0,-3,2,0,-1
1532494291907,-1,-2,6,-1,1,-4,-3,-2
1532494291912,1,0,-10,-2,-5,-5,-2,-1
1532494291917,-1,2,7,1,0,3,5,0
1532494291922,-1,-2,-2,-1,0,3,-2,0
1532494291927,-1,-1,-1,0,-2,-3,-3,2
1532494291932,-2,2,8,1,4,-2,1,0
1532494291937,0,-4,-9,1,-3,3,2,-1
1532494291942,1,0,0,-1,-1,-4,-3,1
1532494291947,0,-1,3,-1,3,-3,1,0
1532494291952,1,-1,8,0,-2,-3,1,0
1532494291957,0,-1,-15,-4,-5,-2,-5,-1
1532494291962,-2,2,13,0,-2,6,2,-2
1532494291967,-1,-3,-9,-2,0,-6,-2,-2
1532494291972,-2,-2,-5,0,-1,-3,-2,-2
1532494291977,-1,-3,5,2,-1,0,-3,-1
1532494291982,-2,-2,7,-1,-6,0,-2,0
1532494291987,0,0,5,0,2,2,5,-2
1532494291992,0,1,7,0,0,2,-1,-2
1532494291997,-2,-3,-17,-4,-1,-4,-2,-3
1532494292002,-1,-1,-8,1,0,-2,-3,-2
1532494292007,0,1,10,-1,-6,0,-3,-2
1532494292012,-2,-1,-15,0,4,0,1,0
1532494292017,-2,1,5,0,2,2,0,0
1532494292022,-1,-1,5,-3,0,-4,0,-1
1532494292027,-2,2,-8,0,-5,-1,-2,0
1532494292032,-1,-2,9,-2,-2,-4,-1,0
1532494292037,0,-1,8,-3,-6,8,0,-2
1532494292042,1,0,-8,-1,3,1,1,1
1532494292047,0,-1,8,0,0,-18,-11,-1
1532494292052,-1,-2,-14,-2,-1,2,1,-1
1532494292057,0,-1,4,1,1,0,-2,-2
1532494292062,-2,-1,-1,-1,0,6,3,1
1532494292067,-1,-1,-6,0,0,5,-1,-1
1532494292072,-1,-3,-11,-2,-2,-2,0,0
1532494292077,-1,-1,5,-1,-2,-1,2,-2
1532494292082,-1,0,-20,-1,2,-2,-3,-3
1532494292087,-1,3,25,2,-1,1,0,-1
1532494292092,-2,0,11,0,-2,1,-1,0
1532494292097,0,-2,-12,-1,0,4,4,2
1532494292102,-1,-2,1,-1,2,-6,-1,1
1532494292107,-1,-3,-13,-5,-1,0,-2,-1
1532494292112,1,3,10,2,0,-2,-1,-1
1532494292117,0,0,-4,-1,-2,-1,-1,0
1532494292122,1,-2,0,1,-2,1,4,-1
1532494292127,-1,-1,8,0,4,-2,-1,-1
1532494292132,-1,-2,-16,-1,-3,-2,-2,-1
1532494292137,-1,-1,-2,0,2,4,-1,-2
1532494292142,-1,0,5,-2,-1,-6,-2,-1
1532494292147,-1,-4,-10,1,-1,3,4,0
1532494292152,0,5,-1,-3,0,0,-1,0
1532494292157,-1,-1,14,2,-3,-8,-7,-1
1532494292162,0,0,-8,3,2,-4,1,-1
1532494292167,-1,-1,3,0,2,0,-2,-2
1532494292172,-1,-2,-4,-1,-1,-2,-1,0
1532494292177,-2,0,-2,-4,-4,-6,-1,0
1532494292182,0,1,8,-2,-2,4,-1,-1
1532494292187,0,-1,-15,-1,-5,-1,-1,-1
1532494292192,1,-1,13,0,1,1,0,0
1532494292197,0,0,-23,1,2,-3,-1,0
1532494292202,-2,-3,14,-3,-4,-1,-2,-1
1532494292207,-2,-3,28,-1,-1,-2,3,-1
1532494292212,-2,-2,-30,-3,-4,3,0,-2
1532494292217,0,-1,1,2,3,-5,-5,-1
1532494292222,-2,3,-1,-2,-2,-1,2,-1
1532494292227,-1,0,0,-1,-1,3,0,0
1532494292232,1,1,9,-1,-1,2,0,-2
1532494292237,-1,-1,0,2,0,0,-2,-1
1532494292242,0,0,-6,-1,-1,1,2,0
1532494292247,-1,-2,-12,-2,0,-3,-1,-1
1532494292252,0,-1,10,0,1,-1,0,0
1532494292257,0,1,5,-2,-3,0,1,-3
1532494292262,0,-3,-9,0,-1,1,-1,-1
1532494292267,0,-1,-23,-1,-2,0,1,-1
1532494292272,-2,2,32,1,-6,0,-2,-1
1532494292277,-2,-1,-20,0,5,-2,-1,-2
1532494292282,-2,-3,1,-3,-3,1,-5,0
1532494292287,-1,0,-6,2,-2,-5,-4,0
1532494292292,-3,-4,-3,-2,-1,-9,-4,-2
1532494292297,1,0,13,0,0,-2,0,0
1532494292302,-1,-3,-17,-2,-1,0,1,-2
1532494292307,-1,0,11,-2,-1,1,-3,0
1532494292312,-3,0,8,0,2,2,4,0
1532494292317,-2,-2,7,-2,-4,-3,-1,-2
1532494292322,1,-3,-8,-2,-1,-2,2,0
1532494292327,-3,-3,11,-1,0,-1,-5,-1
1532494292332,0,0,23,1,-3,1,1,-2
1532494292337,-1,-1,-31,-2,-1,2,-1,-1
1532494292342,0,0,0,0,-4,0,-3,1
1532494292347,-1,1,2,0,4,-7,1,1
1532494292352,-1,-3,-11,-1,-2,0,-2,-2
1532494292357,-2,1,9,-3,1,1,3,-3
1532494292362,-2,-3,-4,0,-8,7,0,-1
1532494292367,-2,-1,-1,-1,-1,-8,-5,1
1532494292372,-2,-3,-17,-2,0,-3,-2,-3
1532494292377,1,-2,4,-2,1,5,4,-1
1532494292382,-1,3,3,2,1,-11,-2,0
1532494292387,0,-1,19,1,-3,6,1,-1
1532494292392,1,0,-1,-1,2,-3,-1,0
1532494292397,0,-1,-1,-2,-2,-1,1,0
1532494292402,0,-1,-4,-1,0,13,4,-1
1532494292407,-1,-2,3,-1,1,-9,-3,-2
1532494292412,-2,-1,2,0,1,0,3,-2
1532494292417,-2,0,-7,-2,-4,-1,1,-1
1532494292422,0,0,1,0,-2,1,-1,0
1532494292427,-1,-3,-2,0,-1,1,1,-1
1532494292432,0,0,9,-1,4,-4,-3,-3
1532494292437,2,4,-8,1,0,6,5,-1
1532494292442,-2,-2,12,1,1,-4,-5,-1
1532494292447,-1,-1,0,-3,-1,-3,0,0
1532494292452,0,-2,-5,-1,-3,3,3,-1
1532494292457,0,0,24,-1,-2,-2,1,-2
1532494292462,0,-1,-29,-1,-1,-9,-5,-1
1532494292467,0,-2,-1,-3,1,1,-1,0
1532494292472,-1,-2,1,-2,-1,-3,-2,-3
1532494292477,-1,-2,5,-2,2,7,4,-2
1532494292482,1,-4,-39,-1,-2,1,4,1
1532494292487,0,4,25,2,0,1,-1,-1
1532494292492,-1,1,-3,1,-2,-5,-1,-1
1532494292497,0,-4,-9,1,1,0,-3,0
1532494292502,-1,-1,1,-4,-5,-2,1,-2
1532494292507,-1,-1,-9,1,1,1,1,0
1532494292512,-1,0,1,0,0,-2,-1,0
1532494292517,-1,1,-5,-1,-1,-2,-2,0
1532494292522,-1,0,10,1,1,2,1,-1
1532494292527,-1,-3,-11,-2,-2,1,-2,-1
1532494292532,1,2,15,-1,-1,1,-1,-1
1532494292537,-2,-3,-36,-2,-2,-7,-4,-2
1532494292542,0,-1,14,1,3,-5,-3,0
1532494292547,-2,1,1,0,-4,3,1,0
1532494292552,-1,-5,-27,1,1,1,-2,0
1532494292557,-1,4,22,-1,-3,0,1,0
1532494292562,-1,1,6,-1,1,-3,-2,-2
1532494292567,-1,-1,-4,-1,-3,-5,-2,-1
1532494292572,0,-3,-1,-1,2,2,-1,0
1532494292577,-2,-2,-8,-1,1,-1,0,-2
1532494292582,1,0,0,-4,-9,-6,-3,0
1532494292587,0,1,5,1,2,0,1,-1
1532494292592,-1,-1,4,-4,-3,0,0,0
1532494292597,0,-4,-9,-1,-1,-1,-1,0
1532494292602,0,0,15,0,4,3,4,-2
1532494292607,-1,-3,-6,-2,-3,-1,-5,0
1532494292612,-2,0,5,2,-3,-7,1,-1
1532494292617,-1,-1,-6,-1,3,4,1,0
1532494292622,-1,0,23,0,-2,-1,-2,1
1532494292627,-2,-3,-4,0,-1,6,1,-1
1532494292632,-2,1,9,-3,3,-7,1,0
1532494292637,1,-1,2,1,-1,1,-3,-1
1532494292642,-1,-2,-14,-1,-3,-4,-2,-1
1532494292647,-1,-1,-3,0,-2,-3,0,-1
1532494292652,0,1,6,-1,-2,3,0,-1
1532494292657,-1,-1,-6,-5,2,-1,1,0
1532494292662,0,-2,-12,-3,-6,3,-2,-1
1532494292667,0,-2,-8,-1,4,-3,1,-1
1532494292672,0,0,-1,2,-2,-1,-2,0
1532494292677,0,0,4,0,-1,-2,0,0
1532494292682,-1,-3,-34,-2,0,4,0,-1
1532494292687,-1,5,31,-3,-1,1,-2,0
1532494292692,1,-3,-21,-3,-1,-3,1,-2
1532494292697,0,1,6,0,-1,-9,-8,0
1532494292702,0,4,3,0,1,-2,-3,0
1532494292707,-1,-3,-5,0,-1,0,1,-1
1532494292712,0,0,-3,-3,0,0,-5,-2
1532494292717,-1,-3,-3,0,-2,2,1,-3
1532494292722,-2,0,7,-1,0,-3,-1,-1
1532494292727,-1,-3,-12,-3,1,-2,-1,0
1532494292732,0,4,34,4,0,0,1,1
1532494292737,-1,-2,-22,-4,-1,0,0,0
1532494292742,-1,-2,4,4,1,4,0,0
1532494292747,0,-3,2,-1,3,-3,1,-1
1532494292752,-4,-4,10,-3,-4,0,-2,-3
1532494292757,-1,-1,0,-3,-3,-5,-1,-1
1532494292762,0,2,9,1,2,1,5,2
1532494292767,0,-1,-2,1,0,0,-3,1
1532494292772,-1,0,-9,0,-2,0,-1,0
1532494292777,-1,-2,-10,-3,1,-1,0,-1
1532494292782,-1,-1,16,0,-1,-2,-1,-3
1532494292787,0,0,-6,-2,-2,-4,0,0
1532494292792,-2,-2,-3,0,2,9,1,2
1532494292797,0,-2,3,1,1,-4,-2,-2
1532494292802,0,-3,15,0,2,-2,0,-1
1532494292807,-2,-2,-41,-3,-4,-1,0,-1
1532494292812,-1,3,10,-5,-3,2,-1,-3
1532494292817,0,0,7,0,1,3,1,-1
1532494292822,-2,-2,-7,-2,-4,-8,-3,-1
1532494292827,-1,1,7,2,4,-1,-1,1
1532494292832,-1,-3,-19,0,-2,-3,1,0
1532494292837,0,0,15,-2,-2,3,3,0
1532494292842,-1,-2,-6,-2,-2,1,-1,-2
1532494292847,-1,-3,-8,-2,-3,-2,-5,-2
1532494292852,-1,3,10,1,1,3,-1,1
1532494292857,-2,2,11,3,0,-8,-3,0
1532494292862,0,-2,-7,-2,1,-2,-2,-1
1532494292867,0,1,2,-2,-2,2,1,0
1532494292872,0,-3,0,1,-1,1,3,-2
1532494292877,-3,0,-12,-3,-3,1,-1,-1
1532494292882,1,-3,12,-4,-2,-1,3,-1
1532494292887,-3,-1,3,-3,-2,0,-1,-2
1532494292892,0,-1,3,0,-1,-3,-3,-2
1532494292897,0,-2,-6,1,1,2,2,-2
1532494292902,0,-1,-18,1,-3,-5,-3,-2
1532494292907,-1,1,13,-1,2,-4,-2,-1
1532494292912,-2,-3,-12,-2,1,1,-1,1
1532494292917,0,-2,6,-3,-1,-2,-2,-2
1532494292922,0,-2,-14,-3,1,2,0,0
1532494292927,1,1,10,2,0,6,2,-1
1532494292932,-1,-1,-14,-2,-7,-7,0,0
1532494292937,-1,-2,1,1,5,-1,-3,1
1532494292942,-2,2,-2,0,0,-3,-3,0
1532494292947,-1,-3,-20,1,-5,0,-1,-1
1532494292952,2,3,13,-1,2,-2,1,-1
1532494292957,-3,-1,25,-1,-2,5,3,-1
1532494292962,0,-1,-34,-2,-2,-2,-1,-1
1532494292967,-2,1,5,-1,0,-6,1,1
1532494292972,0,-2,-4,2,1,3,0,-1
1532494292977,0,0,-14,-1,-2,-5,-1,-2
1532494292982,-3,1,8,0,-2,2,-3,-2
1532494292987,-1,-1,6,-1,-2,3,5,-2
1532494292992,1,-3,-14,2,1,-8,-7,1
1532494292997,1,2,4,-2,-2,12,1,0
1532494293002,-2,-3,3,1,0,-7,0,0
1532494293007,0,0,-7,0,0,3,0,-2
1532494293012,-2,-2,-10,-2,0,3,1,-4
1532494293017,-3,0,10,-1,0,2,2,0
1532494293022,-1,0,10,-3,-6,0,-1,-1
1532494293027,-3,-3,4,-2,-6,-5,-2,-1
1532494293032,-2,1,-9,-1,3,-2,-2,-2
1532494293037,0,-3,-15,-1,-2,-6,-2,1
1532494293042,-2,-1,-1,-1,3,3,1,-2
1532494293047,-1,0,21,4,-1,-1,-6,2
1532494293052,-1,-2,-14,-2,-3,-4,1,0
1532494293057,-1,-1,-9,-2,-2,-1,-2,0
1532494293062,0,0,16,1,2,-2,-1,-1
1532494293067,1,0,-9,-2,1,1,-2,-1
1532494293072,-1,-4,-16,-1,2,0,2,1
1532494293077,0,0,5,-1,-4,-2,1,0
1532494293082,-1,1,10,-1,1,-2,-1,0
1532494293087,0,1,-5,-2,-2,0,0,-2
1532494293092,-2,-2,5,-2,2,-2,-1,-3
1532494293097,-1,-2,-9,-1,-4,1,-3,-2
1532494293102,0,-3,8,1,-3,-4,-2,0
1532494293107,-1,1,-13,1,5,0,2,-1
1532494293112,-2,1,16,0,-1,1,-3,0
1532494293117,0,-2,-5,0,-3,-4,0,0
1532494293122,-1,1,5,-1,0,5,1,-1
1532494293127,-2,0,8,-2,-5,-4,0,-1
1532494293132,-1,-1,-4,0,-2,-1,0,-2
1532494293137,-1,0,2,0,1,-4,-4,-1
1532494293142,-1,-1,-7,0,3,-2,0,-1
1532494293147,-1,-4,-26,-3,0,1,2,-1
1532494293152,-1,4,22,-3,-5,0,-1,-1
1532494293157,0,0,-4,-2,-2,-2,0,-2
1532494293162,-1,-6,-13,-3,-2,0,-2,-1
1532494293167,0,1,8,0,0,0,-1,-1
1532494293172,-1,-2,-2,4,-1,-8,-5,1
1532494293177,-1,1,3,0,0,-5,-3,-1
1532494293182,0,-1,6,2,3,2,3,0
1532494293187,-1,-2,-17,-2,-4,2,-4,1
1532494293192,-1,-1,1,-2,2,-2,0,0
1532494293197,-1,0,-3,-3,-1,-2,-2,-1
1532494293202,-2,1,2,-1,-1,-2,1,-1
1532494293207,-1,0,8,-1,4,-2,2,-1
1532494293212,0,-5,-15,-3,-4,-2,-5,-1
1532494293217,-1,1,28,-1,1,2,-1,-2
1532494293222,-1,0,-3,-1,-2,4,1,0
1532494293227,0,-1,9,0,-2,-4,-4,0
1532494293232,-1,-2,-7,-1,1,-2,-2,1
1532494293237,-2,-4,-11,0,2,3,7,-2
1532494293242,-1,-2,-13,-5,-5,1,0,-2
1532494293247,-3,2,23,0,-1,0,-2,-1
1532494293252,-1,2,11,1,1,0,0,-1
1532494293257,0,-2,-12,0,3,-3,0,0
1532494293262,0,-1,2,0,-2,3,1,0
1532494293267,-2,-3,-35,-2,-2,-3,-2,0
1532494293272,-2,-1,8,-2,4,4,2,-1
1532494293277,0,1,5,-1,-4,-4,-3,-1
1532494293282,0,1,-4,0,-1,3,-1,0
1532494293287,0,-3,4,-1,-1,-2,-1,-1
1532494293292,1,1,10,0,-4,2,-1,0
1532494293297,0,-4,-15,-2,3,0,0,2
1532494293302,-1,-1,8,1,-1,-6,-2,-1
1532494293307,0,0,4,-1,0,0,-3,-2
1532494293312,0,-1,-7,-1,-2,-9,-1,0
1532494293317,-1,1,5,1,0,3,3,1
1532494293322,0,1,-5,-4,-1,-2,-2,-1
1532494293327,0,-2,-17,2,1,0,1,-1
1532494293332,-2,1,16,-3,-5,5,2,-3
1532494293337,0,-2,-5,0,-1,0,-4,-3
1532494293342,-1,-1,7,2,3,-7,-4,-1
1532494293347,-2,0,-2,-1,0,0,2,1
1532494293352,-1,-1,-9,-3,-3,3,-1,-1
1532494293357,-2,-2,-5,-2,-1,-4,-1,-1
1532494293362,-1,-2,-20,0,0,0,1,0
1532494293367,-1,4,26,-1,0,-3,-2,-2
1532494293372,0,1,5,3,0,0,-1,0
1532494293377,-1,-3,-13,-2,-4,1,-3,-1
1532494293382,1,-1,-5,2,2,-3,-2,1
1532494293387,-1,-3,-1,-1,1,0,-1,0
1532494293392,-1,2,3,-2,-4,0,2,-1
1532494293397,0,1,5,-1,4,-2,-1,-1
1532494293402,-2,-2,-4,-3,-1,0,0,0
1532494293407,0,0,4,-2,1,3,6,1
1532494293412,1,-1,-6,1,-2,-1,-4,0
1532494293417,-2,0,-5,0,-3,0,-1,-1
1532494293422,0,1,16,-1,-2,3,-2,0
1532494293427,-3,-1,-5,-2,2,-8,-1,0
1532494293432,-2,-4,-11,-2,-1,1,1,-1
1532494293437,1,0,4,-3,-3,1,-1,0
1532494293442,-1,-2,1,0,0,-2,0,-1
1532494293447,0,0,11,0,-5,0,-2,0
1532494293452,-1,-2,-7,-3,2,-3,0,0
1532494293457,-1,0,13,1,-1,0,-1,-3
1532494293462,0,0,-12,-4,-4,-2,-1,-1
1532494293467,-1,-2,4,0,0,-3,0,-1
1532494293472,-1,-2,0,-2,6,0,-1,-2
1532494293477,-1,-3,-8,-5,-1,0,-1,0
1532494293482,-1,0,4,1,-1,3,0,0
1532494293487,0,0,10,-1,-4,-3,-3,-1
1532494293492,-1,-3,8,-1,-3,-5,0,-2
1532494293497,1,0,1,3,5,2,-1,1
1532494293502,0,-2,-3,-3,-3,0,1,-1
1532494293507,-2,-4,-17,-2,-3,0,0,-1
1532494293512,-1,0,1,-1,-2,0,0,-1
1532494293517,-1,2,5,0,1,-5,-1,0
1532494293522,-1,-5,-16,-3,-2,-1,-2,-2
1532494293527,1,1,9,0,-1,2,3,0
1532494293532,-1,-2,1,-1,-6,0,-4,-1
1532494293537,-2,0,3,0,5,-4,0,0
1532494293542,-2,-2,-9,-2,2,2,0,0
1532494293547,-2,0,-30,1,-4,-3,-6,-2
1532494293552,-3,1,23,-1,1,-4,0,-1
1532494293557,1,0,2,-1,-2,8,0,-1
1532494293562,-1,-1,3,2,0,-14,-3,-1
1532494293567,0,0,-2,0,0,4,0,-1
1532494293572,2,-2,5,-2,-1,1,-1,-1
1532494293577,-1,0,-13,1,-5,1,-2,0
1532494293582,-2,0,9,0,-1,3,0,-1
1532494293587,1,-1,-5,1,2,0,-3,0
1532494293592,0,-2,-2,-1,-3,-3,1,-2
1532494293597,-1,-3,-4,-5,-8,0,4,0
1532494293602,-1,1,12,-1,0,0,-2,-1
1532494293607,1,-2,-30,-2,0,-4,-2,-1
1532494293612,-3,2,9,0,7,3,-1,1
1532494293617,-1,-2,13,2,-1,-5,0,-2
1532494293622,-1,1,9,0,-2,-1,0,0
1532494293627,-2,-1,3,-2,-1,-1,0,0
1532494293632,0,-1,-13,0,-4,0,1,1
1532494293637,0,-1,-2,-3,1,3,-1,-1
1532494293642,0,0,-6,1,3,-8,-2,1
1532494293647,-2,-1,16,-1,-2,0,1,-1
1532494293652,0,-3,-17,-2,-1,0,-2,-1
1532494293657,-2,1,11,-1,-2,-1,1,-1
1532494293662,1,-1,-13,0,-3,4,-2,-1
1532494293667,-1,1,22,2,3,-1,1,-2
1532494293672,-1,-1,-10,2,-1,0,0,1
1532494293677,-2,-2,10,-3,-4,-1,-1,-2
1532494293682,0,0,-22,-2,0,0,1,-1
1532494293687,-1,-3,-1,-3,0,3,1,0
1532494293692,-1,3,27,1,0,-2,3,-2
1532494293697,-2,1,3,2,-2,-7,-6,-1
1532494293702,0,0,5,-1,2,-1,0,-1
1532494293707,1,-4,-3,-3,-5,-3,-1,0
1532494293712,0,0,-26,-2,2,-2,-3,-1
1532494293717,-1,-1,-8,-1,1,6,2,1
1532494293722,-1,0,3,-1,-3,-1,-1,-2
1532494293727,-2,-1,0,1,-1,3,0,-1
1532494293732,0,0,-7,-2,-3,-3,0,0
1532494293737,0,2,5,1,-5,-3,-3,0
1532494293742,-3,-4,-12,-2,2,-3,-3,0
1532494293747,0,-2,-14,-1,3,5,5,-1
1532494293752,-1,4,13,-1,-2,-3,-3,-1
1532494293757,-1,-2,-6,1,2,-3,1,-1
1532494293762,0,-1,11,0,-1,0,1,1
1532494293767,-1,-3,-21,-3,-4,-2,-3,0
1532494293772,-1,-1,24,0,-1,3,2,0
1532494293777,0,-2,-24,0,-1,-3,-4,0
1532494293782,-1,0,5,-2,-2,0,-1,-2
1532494293787,-2,1,1,-3,1,-3,-2,0
1532494293792,1,-1,-9,0,-3,-1,0,0
1532494293797,-1,2,9,0,3,-3,0,-1
1532494293802,-1,-1,5,-1,0,9,3,-1
1532494293807,-2,-1,12,-2,-1,-2,-1,-4
1532494293812,0,-5,-30,-1,0,-6,-1,-2
1532494293817,1,1,4,-4,-1,0,-1,-1
1532494293822,0,0,-3,2,-4,-5,3,1
1532494293827,-2,1,19,1,0,1,0,0
1532494293832,-1,-3,-4,-1,0,-3,-1,-2
1532494293837,0,-4,-16,0,1,0,1,-1
1532494293842,-1,-1,-1,-3,-2,5,4,-1
1532494293847,0,2,15,-3,-2,-5,-3,-1
1532494293852,-1,-1,-1,0,0,0,-1,-1
1532494293857,0,0,-8,-2,-2,1,0,-2
1532494293862,-1,-2,0,1,-2,-3,-4,-2
1532494293867,0,-1,-11,-3,0,-4,-1,-2
1532494293872,-2,1,-6,-2,1,-2,-5,-2
1532494293877,-1,-3,25,1,2,6,-3,-1
1532494293882,-1,-1,0,-1,-5,-6,-2,-2
1532494293887,0,-1,-19,-2,0,-1,-1,0
1532494293892,0,-4,3,0,-4,2,2,1
1532494293897,-1,-2,-10,-2,3,-4,0,-1
1532494293902,1,0,5,2,1,-1,-1,-2
1532494293907,1,1,9,3,0,-1,-2,0
1532494293912,-1,-3,-4,-1,-1,0,1,-1
1532494293917,-1,0,-8,-2,-4,-1,2,-2
1532494293922,0,1,12,-3,-3,-2,-5,-1
1532494293927,-1,0,1,-1,1,-1,1,-2
1532494293932,0,-3,-2,1,1,-3,-2,0
1532494293937,-1,2,4,-1,-2,-1,0,0
1532494293942,-1,-2,-1,0,0,1,-1,-2
1532494293947,0,2,-15,-2,0,0,-1,0
1532494293952,-1,4,18,1,-1,-5,-2,-1
1532494293957,1,-3,-14,-1,-1,-2,-4,0
1532494293962,1,-1,-3,0,2,-1,2,0
1532494293967,0,-1,5,2,-1,3,1,0
1532494293972,-2,-2,-4,-1,-2,2,-1,-2
1532494293977,-2,-1,-9,-2,-2,-1,-1,0
1532494293982,0,2,3,-1,0,0,0,-1
1532494293987,0,-3,1,-1,0,-5,-2,-2
1532494293992,-1,0,-7,-4,0,0,1,0
1532494293997,-1,2,-2,4,-2,2,-1,-1
1532494294002,-2,-2,-26,-3,0,1,-1,0
1532494294007,0,4,50,2,2,2,-4,1
1532494294012,1,0,1,-4,-4,-1,0,0
1532494294017,-2,-4,-18,-1,1,-8,-3,-1
1532494294022,-2,1,7,-1,0,-3,1,1
1532494294027,-1,-4,-22,-3,-4,0,2,-1
1532494294032,-1,-1,-4,2,5,2,-3,0
1532494294037,1,0,16,-1,1,1,3,0
1532494294042,-2,-4,-5,0,-1,-1,0,-1
1532494294047,-1,-4,-10,-1,2,-3,-1,-2
1532494294052,0,-1,5,-3,-1,0,-1,-2
1532494294057,0,-1,1,-1,-3,-3,-3,-1
1532494294062,-1,-1,-6,0,-4,0,-1,0
1532494294067,-1,-1,-6,-2,-4,2,1,-2
1532494294072,-2,1,6,0,1,-12,-5,-2
1532494294077,-1,-1,9,-1,-1,0,1,0
1532494294082,-1,-2,7,-4,-1,1,-3,-1
1532494294087,1,1,21,2,0,-1,-2,-2
1532494294092,-1,-2,-36,-2,-4,0,-1,-1
1532494294097,-1,0,-6,-2,2,0,1,-1
1532494294102,-1,-1,2,-1,-1,-3,-1,-1
1532494294107,-2,-1,1,-1,0,-1,1,-1
1532494294112,-2,-4,2,-2,-2,2,1,0
1532494294117,-1,0,5,2,0,-5,-2,-1
1532494294122,0,-1,-5,-1,1,0,-1,0
1532494294127,-1,-1,-11,-1,-3,-3,-1,0
1532494294132,1,0,0,0,3,4,2,-2
1532494294137,0,-2,0,-1,-3,-3,1,-1
1532494294142,0,-1,0,0,-1,-1,-9,0
1532494294147,0,-1,-4,-2,0,-8,1,-1
1532494294152,-1,-4,-27,0,1,1,3,2
1532494294157,-1,4,28,-2,-2,2,-1,-1
1532494294162,0,2,9,1,1,-4,-3,-1
1532494294167,0,0,20,2,2,4,0,-1
1532494294172,0,0,-19,0,-1,-4,-4,-1
1532494294177,-1,-4,-13,1,-2,1,3,0
1532494294182,-1,-1,-1,-1,0,5,3,-2
1532494294187,0,0,2,0,3,2,-2,0
1532494294192,0,0,19,-4,-5,-4,0,-1
1532494294197,0,-1,-15,-2,-2,-1,-3,-2
1532494294202,-1,-1,1,-2,-2,-3,0,0
1532494294207,0,-2,-11,-1,-2,1,1,0
1532494294212,0,1,15,2,1,0,-1,-2
1532494294217,-1,-2,-2,0,-2,-4,-5,0
1532494294222,1,-1,-12,0,-1,-2,1,-2
1532494294227,-1,0,12,-3,-3,-1,0,-1
1532494294232,-1,-2,8,0,-3,1,-4,0
1532494294237,-2,-2,2,-4,2,4,1,-1
1532494294242,-1,-3,15,2,4,-2,0,0
1532494294247,-1,-1,-38,-2,-3,6,0,-1
1532494294252,0,1,9,0,-2,-7,-8,0
1532494294257,0,2,2,-3,-4,-3,0,-1
1532494294262,-2,-2,12,1,1,7,4,0
1532494294267,0,0,-25,-2,0,-5,-3,0
1532494294272,-3,-1,8,-1,-2,1,3,-1
1532494294277,0,-2,-9,1,-3,-4,-3,0
1532494294282,1,-2,-26,-4,-3,3,-1,1
1532494294287,0,4,28,-2,2,-2,0,0
1532494294292,-1,1,-2,-1,0,-5,-1,0
1532494294297,1,-3,-20,-2,4,1,-1,0
1532494294302,0,2,16,-1,-4,5,2,1
1532494294307,0,-1,12,1,-3,-12,-2,-2
1532494294312,-1,-3,-32,0,0,-3,0,-2
1532494294317,0,2,16,-2,-4,3,3,-1
1532494294322,-2,-2,-8,2,1,-6,-7,0
1532494294327,-1,-3,-7,1,0,10,4,-1
1532494294332,0,1,10,-1,-3,-3,-2,-1
1532494294337,-1,-3,-5,-2,1,-4,1,-2
1532494294342,2,0,-29,-4,-1,-10,2,-2
1532494294347,-2,2,19,-1,-3,-4,-7,-1
1532494294352,-2,-1,12,1,3,8,4,-1
1532494294357,0,-2,-3,2,0,3,1,-1
1532494294362,1,3,11,-1,1,3,0,-1
1532494294367,-2,-3,-42,-1,-2,-1,-1,-2
1532494294372,0,-1,6,-1,-2,-11,-2,0
1532494294377,-3,2,11,0,-2,-6,-1,0
1532494294382,-1,-1,-7,-4,-3,-7,-5,0
1532494294387,1,-2,-3,-1,4,2,2,1
1532494294392,-1,-1,1,-1,3,10,1,0
1532494294397,1,-1,3,1,0,6,0,0
1532494294402,-2,-3,2,-3,-8,-8,-2,-1
1532494294407,1,-3,-28,2,-1,-22,0,0
1532494294412,0,4,15,0,0,39,2,2
1532494294417,-1,0,-8,-1,2,-5,-1,-1
1532494294422,-1,0,10,0,5,6,1,-1
1532494294427,-3,-4,-18,-4,-3,-6,-2,-1
1532494294432,2,2,38,3,2,-9,2,-3
1532494294437,-1,-1,-37,-3,-1,19,-4,0
1532494294442,0,1,7,-2,1,-16,-1,-1
1532494294447,-2,-1,9,1,-2,1,-3,-2
1532494294452,0,-3,-18,0,0,-5,3,-2
1532494294457,-2,0,34,-3,-1,6,3,-3
1532494294462,-1,-2,-14,-3,-3,11,-1,0
1532494294467,1,-1,10,0,3,-13,-3,-1
1532494294472,-3,-4,-10,-3,-6,-4,-1,-1
1532494294477,2,-1,-1,-1,2,-9,-1,-1
1532494294482,-1,-3,-18,-2,-1,0,3,-3
1532494294487,-2,-3,11,-3,1,-11,-2,-1
1532494294492,1,0,5,1,-1,31,-1,-1
1532494294497,-1,1,-10,1,-3,-3,0,0
1532494294502,-1,0,-13,1,0,-12,3,-1
1532494294507,1,2,8,1,0,11,-1,1
1532494294512,0,-1,-6,-5,-2,-10,1,0
1532494294517,-1,-3,5,-2,-3,-11,0,1
1532494294522,0,0,-2,-1,-3,2,1,-3
1532494294527,-2,2,0,-2,-5,2,-5,-2
1532494294532,-1,-1,-5,-1,2,-7,2,-1
1532494294537,1,-2,-1,-1,6,5,-2,0
1532494294542,-1,2,11,1,2,-5,-2,0
1532494294547,0,-3,15,0,-4,14,3,-2
1532494294552,-2,-1,-18,2,-3,-17,-6,-3
1532494294557,-2,-4,-6,-1,0,1,0,0
1532494294562,-1,-1,21,-3,-5,4,-3,-2
1532494294567,0,-3,5,-2,3,-1,5,-2
1532494294572,-1,0,-5,-1,1,-7,-4,0
1532494294577,-1,-2,-4,0,0,-24,-3,0
1532494294582,-1,0,2,-1,0,30,-3,-3
1532494294587,-1,-2,3,-1,-2,5,-1,-2
1532494294592,1,0,-6,-1,0,9,0,0
1532494294597,-2,-2,-12,-1,0,-1,5,-1
1532494294602,-1,1,21,2,-1,-3,3,1
1532494294607,0,0,-6,-1,-1,0,-5,-1
1532494294612,0,-1,-4,-2,-6,-13,0,-2
1532494294617,-1,0,16,-2,-2,-6,-2,-1
1532494294622,2,-3,23,-1,1,2,2,-2
1532494294627,0,-1,-30,-4,-1,13,0,0
1532494294632,-1,0,9,-1,-1,-34,-5,0
1532494294637,0,-1,11,1,0,25,-3,0
1532494294642,-2,-4,-19,-2,-2,-6,3,-1
1532494294647,0,0,-3,-1,0,-6,-1,-2
1532494294652,-2,-1,12,3,-1,5,3,0
1532494294657,-1,-2,-4,-3,-5,-13,-5,-4
1532494294662,0,0,-27,3,6,16,-6,2
1532494294667,-3,4,25,4,3,0,8,0
1532494294672,0,-2,0,-5,-2,3,1,0
1532494294677,-2,0,-13,1,-2,4,0,1
1532494294682,-1,1,12,0,1,-2,-1,-2
1532494294687,-2,-4,-20,-4,-3,-4,-5,-2
1532494294692,0,-3,-7,-2,-1,-26,-4,-2
1532494294697,1,-1,3,0,-1,30,2,-2
1532494294702,-1,1,14,-1,-5,-10,-1,1
1532494294707,-3,-6,-10,-3,0,2,3,-1
1532494294712,0,-4,4,-2,-2,-2,2,-1
1532494294717,-1,1,-2,-3,-2,-4,-5,-1
1532494294722,0,-2,13,1,-2,-1,3,1
1532494294727,0,1,-32,2,2,-14,-3,0
1532494294732,-1,-1,7,0,-1,28,1,-2
1532494294737,-2,-2,-18,-2,0,-16,-3,-1
1532494294742,-1,0,9,0,-2,4,-2,-2
1532494294747,1,0,8,0,-4,-32,-5,-1
1532494294752,-3,0,-8,1,3,15,-1,-2
1532494294757,0,3,11,-1,-2,6,2,0
1532494294762,1,-2,-28,1,1,-9,2,-2
1532494294767,-2,0,3,-2,-2,15,1,-1
1532494294772,0,1,-5,-4,-2,-21,-7,-2
1532494294777,-1,-2,19,-1,-2,-9,1,-2
1532494294782,-1,1,-2,2,-1,8,1,-1
1532494294787,0,0,0,2,1,7,0,0
1532494294792,1,-3,-2,-2,2,9,-1,1
1532494294797,-1,-3,-7,0,-2,-4,-2,-2
1532494294802,0,-1,-5,-3,-3,-21,6,0
1532494294807,0,1,8,0,1,26,-8,0
1532494294812,-1,1,3,0,1,20,11,1
1532494294817,-1,-2,9,1,1,-16,-4,0
1532494294822,-1,1,-14,-3,1,-9,-5,0
1532494294827,0,1,30,-1,-4,13,3,-1
1532494294832,-2,-2,-7,-3,-5,-25,-3,-4
1532494294837,1,0,-5,0,-5,-41,-5,-2
1532494294842,0,-1,6,0,3,34,5,0
1532494294847,-1,1,-17,-2,-2,-6,1,0
1532494294852,1,-1,-1,2,2,6,-1,-1
1532494294857,0,1,3,0,2,19,4,0
1532494294862,-1,-5,-5,-2,-5,-5,-6,-1
1532494294867,-1,-2,0,-1,1,-36,-2,0
1532494294872,0,0,0,-2,2,37,1,0
1532494294877,-1,-3,-14,1,-2,-12,-3,0
1532494294882,0,0,-19,-2,0,-3,-2,-2
1532494294887,-1,3,25,-1,-1,8,1,-2
1532494294892,-1,-2,-5,-1,-2,12,5,2
1532494294897,-2,-2,10,-2,0,-43,-12,-1
1532494294902,-3,0,-10,3,3,28,-6,-1
1532494294907,1,-2,-6,-2,-4,-9,0,-1
1532494294912,-2,-1,1,0,1,7,-2,0
1532494294917,-1,0,0,-2,1,-4,-2,-1
1532494294922,-1,-4,-24,-1,-4,-9,1,-2
1532494294927,-1,1,29,-1,-1,7,-1,0
1532494294932,-1,2,0,-1,-4,-14,-5,1
1532494294937,0,-1,-10,-1,1,16,4,0
1532494294942,-1,1,15,-2,1,-4,-1,0
1532494294947,-1,-5,-23,1,-5,3,-2,-2
1532494294952,-1,0,5,3,-3,-8,1,-2
1532494294957,-2,-2,2,-3,-3,0,6,0
1532494294962,0,-2,2,-3,-1,14,-7,-1
1532494294967,-1,0,-6,2,1,-25,-3,0
1532494294972,-1,-1,9,-1,-2,-11,-4,-1
1532494294977,0,-2,-19,0,1,16,3,0
1532494294982,-1,-1,2,-2,-2,-11,3,-3
1532494294987,1,-5,-8,-1,1,16,0,1
1532494294992,0,5,16,1,1,9,4,-1
1532494294997,-1,-1,10,4,0,-37,-8,-1
1532494295002,1,-2,-3,-1,-1,-11,0,-1
1532494295007,-1,-1,-4,-2,1,-13,-2,1
1532494295012,-1,-1,-6,0,1,15,0,-1
1532494295017,1,-2,1,-2,-3,19,5,1
1532494295022,-1,-1,3,-1,-3,-10,-3,0
1532494295027,-1,1,17,1,-2,-2,-1,-1
1532494295032,-1,-3,-28,-4,3,0,1,-2
1532494295037,-1,2,11,-2,-4,-23,-2,-2
1532494295042,-1,-2,-1,3,2,43,1,0
1532494295047,-1,-1,-9,-3,-1,-5,-2,1
1532494295052,1,2,19,2,-1,-10,-1,-1
1532494295057,0,-1,-22,-2,-2,1,0,0
1532494295062,0,1,12,2,-4,-10,2,0
1532494295067,-1,0,2,-2,-2,4,0,-3
1532494295072,-2,-3,-6,0,2,28,-2,0
1532494295077,0,-2,-12,-4,-4,24,2,-2
1532494295082,0,0,6,1,-1,-41,-3,0
1532494295087,0,-2,-2,1,0,12,0,-2
1532494295092,-2,-1,-10,0,-4,-21,-3,1
1532494295097,-1,0,25,-1,3,12,1,-2
1532494295102,-1,0,-22,-3,-4,3,-1,1
1532494295107,0,-1,0,1,3,17,3,-1
1532494295112,0,-2,-25,-1,-3,-31,-8,-3
1532494295117,0,3,27,2,-1,3,2,-1
1532494295122,-1,-2,5,-1,1,-12,-1,0
1532494295127,-1,0,-19,-2,2,21,0,0
1532494295132,-3,-3,-3,0,-1,-17,-2,0
1532494295137,-1,-1,1,2,3,18,-1,0
1532494295142,-1,-3,-3,-3,-5,-27,-2,-3
1532494295147,-1,1,13,-2,-3,-2,2,0
1532494295152,2,-3,-4,-1,-1,10,1,1
1532494295157,-1,-1,-10,-1,0,-21,-2,-1
1532494295162,-1,-1,2,-2,0,17,3,-1
1532494295167,-2,-3,4,-1,-1,5,-1,-2
1532494295172,-2,1,10,-1,-3,-18,-3,-2
1532494295177,-2,-4,-16,0,-1,8,1,-1
1532494295182,-2,-2,-16,-2,-3,0,-3,-1
1532494295187,1,3,16,-1,-2,-5,-1,-1
1532494295192,0,0,-4,-1,-2,-11,0,-2
1532494295197,0,-3,1,-1,1,31,0,0
1532494295202,-2,2,11,1,4,-21,-5,1
1532494295207,-2,-3,-13,0,-3,-1,-2,-2
1532494295212,-1,-1,5,0,1,-1,0,1
1532494295217,-1,0,-5,-1,0,7,1,-1
1532494295222,1,-2,-5,-2,-2,6,2,-1
1532494295227,0,-1,-2,-2,-4,-35,-6,-1
1532494295232,1,1,18,0,3,22,4,-2
1532494295237,1,-5,-19,-3,-1,-11,-1,-1
1532494295242,-1,1,4,-1,0,10,-2,-1
1532494295247,-3,-1,-5,-2,-5,-26,-1,-1
1532494295252,0,2,27,0,0,44,3,-1
1532494295257,-3,-2,-10,-1,-3,-7,-5,-1
1532494295262,1,2,3,0,-5,-16,-3,-1
1532494295267,2,-1,-5,2,2,10,0,0
1532494295272,-1,-2,-6,-2,-3,-9,-3,-1
1532494295277,-1,1,5,1,0,-4,-6,0
1532494295282,-2,-3,-14,-2,-5,-22,-3,0
1532494295287,-2,0,5,1,5,-7,-1,-1
1532494295292,-2,-5,-16,-1,-1,3,1,0
1532494295297,1,4,11,-1,1,20,2,-2
1532494295302,-1,-1,1,0,-4,-8,-4,-3
1532494295307,1,-2,-17,-4,-3,-15,-3,-1
1532494295312,0,2,14,2,0,14,3,-1
1532494295317,0,-3,-10,0,-2,-5,-3,1
1532494295322,-1,-1,-15,0,0,-10,-1,-2
1532494295327,1,3,17,0,-3,9,1,-1
1532494295332,-2,-2,3,-1,-1,-15,-2,-1
1532494295337,-1,-1,-3,-2,-2,6,2,0
1532494295342,0,-1,-2,0,-1,6,-1,-1
1532494295347,1,0,6,-1,1,-3,0,0
1532494295352,0,0,1,-1,-3,-3,-2,-1
1532494295357,-2,-2,2,0,-1,-1,1,0
1532494295362,0,-4,-9,-1,0,3,1,-1
1532494295367,0,-1,-3,-1,-1,3,1,-2
1532494295372,-1,1,3,0,-1,-23,-9,-2
1532494295377,0,-2,-4,-4,2,4,2,-2
1532494295382,1,1,4,0,4,20,2,0
1532494295387,-2,-5,-14,-2,-6,-11,-9,0
1532494295392,-1,2,18,-2,-2,-9,-1,0
1532494295397,0,-4,-14,2,-1,-12,-4,-2
1532494295402,0,0,11,-3,0,-5,0,-1
1532494295407,-1,-4,-14,-1,-2,14,5,-1
1532494295412,-2,-3,-10,-2,1,4,1,-1
1532494295417,-1,-3,-4,0,-1,0,-1,-2
1532494295422,-2,-1,16,-1,-2,6,1,0
1532494295427,0,1,-6,-2,0,-5,-2,-1
1532494295432,-1,-1,0,-3,-3,2,-1,0
1532494295437,-2,1,7,2,-1,2,1,-1
1532494295442,0,-2,-9,-1,-1,-3,-1,-1
1532494295447,-3,-2,6,1,0,-11,-1,-1
1532494295452,-1,-2,-3,1,0,5,0,2
1532494295457,0,0,-26,-2,-2,-12,-1,-2
1532494295462,-1,0,16,-1,1,6,-2,1
1532494295467,-1,2,27,0,1,-4,-2,-1
1532494295472,-2,-6,-22,-2,-2,11,-1,0
1532494295477,-1,0,5,-2,-3,-6,-3,-2
1532494295482,-1,-4,-21,-3,-4,-10,-1,-2
1532494295487,0,2,15,1,2,7,7,1
1532494295492,0,-1,4,1,2,4,1,-1
1532494295497,-1,-3,0,-1,-2,0,-5,0
1532494295502,-2,-1,1,-1,-2,-10,0,-2
1532494295507,-1,-1,-3,0,-1,6,0,-1
1532494295512,0,-1,-4,-2,-1,-8,-1,-2
1532494295517,-2,2,2,0,3,3,0,-1
1532494295522,0,-1,-14,-1,0,4,3,1
1532494295527,-2,0,10,1,-3,-17,-13,-5
1532494295532,0,0,-9,0,4,21,2,0
1532494295537,-1,-4,12,-1,0,5,0,0
1532494295542,-1,-2,-16,-1,-1,-2,-2,0
1532494295547,0,-1,8,0,-2,-13,-2,1
1532494295552,-2,0,11,-1,-2,-2,0,-1
1532494295557,-1,2,3,-1,2,7,0,-1
1532494295562,-2,0,-5,-2,-2,-11,-4,0
1532494295567,-1,-2,-15,-3,1,4,3,-1
1532494295572,-1,1,2,-1,1,-2,-3,-1
1532494295577,0,-2,1,-2,-1,15,6,0
1532494295582,-1,1,-5,-2,1,-14,-9,0
1532494295587,0,-1,-9,-1,-3,-5,-6,-1
1532494295592,1,0,4,-2,-1,-4,0,-2
1532494295597,-1,-4,-15,-2,-1,3,9,1
1532494295602,-3,0,3,-1,0,-4,-4,-4
1532494295607,0,-1,-7,-2,-2,-7,-3,-2
1532494295612,1,-2,-9,0,-2,4,7,0
1532494295617,0,0,1,-4,-1,6,3,3
1532494295622,-8,-2,-3,2,0,-4,-3,-4
1532494295627,9,2,10,-1,-1,-3,3,4
1532494295632,-1,-2,-4,-1,0,6,4,-1
1532494295637,-1,-1,-2,-2,-1,-1,-1,-3
1532494295642,-1,5,1,-2,-2,-5,0,1
1532494295647,3,-2,3,1,-1,6,4,-1
1532494295652,-3,1,3,0,-1,-1,-4,-2
1532494295657,-2,-1,-4,-1,0,0,-2,-3
1532494295662,-1,-4,-6,-2,-1,-1,4,0
1532494295667,-4,0,5,0,-1,-2,-5,-1
1532494295672,3,0,0,-2,-1,0,1,2
1532494295677,-1,1,6,0,0,-8,-3,-1
1532494295682,-1,-2,-2,-3,-2,5,-3,-2
1532494295687,-3,0,-4,-1,1,-3,4,1
1532494295692,2,-1,7,0,0,0,-1,0
1532494295697,-3,-1,-13,0,-2,-1,1,-1
1532494295702,-1,-2,10,-2,-1,1,-2,-3
1532494295707,1,2,-4,1,0,1,4,2
1532494295712,-7,-4,-6,-3,-2,-2,0,-3
1532494295717,10,-1,12,-2,0,5,9,2
1532494295722,0,-2,1,-1,-2,-10,-5,-3
1532494295727,0,-1,6,0,0,-6,-7,-1
1532494295732,2,0,1,-1,-1,-8,-4,0
1532494295737,-5,-3,-3,-1,-2,3,-1,-2
1532494295742,-1,-3,7,-3,-1,6,3,2
1532494295747,1,2,-7,2,-1,-1,1,-2
1532494295752,-1,-2,-18,0,0,-1,3,0
1532494295757,-3,0,-9,-1,-3,1,-2,-2
1532494295762,-12,-1,-2,0,-1,-6,2,1
1532494295767,7,1,18,-2,0,0,0,-3
1532494295772,2,-2,4,0,0,-5,0,-1
1532494295777,-1,2,-1,0,-1,-1,-4,-3
1532494295782,1,-2,-10,-1,-1,6,3,0
1532494295787,-6,-4,-5,-1,-2,-5,0,-2
1532494295792,2,0,-9,1,1,11,5,1
1532494295797,-7,3,13,-4,1,-3,-5,-1
1532494295802,10,0,-7,0,-1,-1,2,0
1532494295807,-3,-2,0,-1,0,-2,0,-1
1532494295812,4,0,9,-1,-2,-6,3,-2
1532494295817,-6,-2,-13,-1,0,-1,-7,-2
1532494295822,-1,3,-3,-2,-1,-1,0,-1
1532494295827,-2,0,-1,3,1,4,0,0
1532494295832,-1,-2,1,-1,-2,2,-7,-2
1532494295837,1,-3,4,-3,-1,7,2,-3
1532494295842,-2,0,3,3,0,-18,-9,-4
1532494295847,3,-4,-10,-3,-1,-3,-1,0
1532494295852,-4,0,-2,0,-1,-1,1,-2
1532494295857,0,1,-6,1,-1,2,1,-1
1532494295862,2,-4,3,-2,-2,3,-2,-3
1532494295867,-16,-1,4,-3,-3,2,-3,-2
1532494295872,19,1,0,1,-2,1,-2,5
1532494295877,0,-6,-35,-3,-4,-4,1,-1
1532494295882,4,6,16,-1,3,10,0,1
1532494295887,-5,0,-3,2,-1,-2,-2,-1
1532494295892,-5,-1,11,-3,0,1,-1,-3
1532494295897,1,-1,-1,2,0,-1,0,0
1532494295902,-5,-4,-10,-3,0,-6,0,-1
1532494295907,3,0,0,-2,0,2,-2,-2
1532494295912,-4,1,-5,-2,1,-3,-2,-2
1532494295917,-2,-1,14,2,0,-3,-1,-1
1532494295922,-8,-4,-11,1,-1,2,3,0
1532494295927,6,-1,11,-1,-1,0,0,0
1532494295932,1,-1,-29,-1,-2,-3,-1,-2
1532494295937,-1,-2,26,0,-1,-11,-5,4
1532494295942,-1,4,0,0,0,7,7,1
1532494295947,2,-6,5,0,-1,-1,2,-2
1532494295952,-4,2,-3,-1,0,-3,-3,-1
1532494295957,-4,2,9,1,0,0,-4,-4
1532494295962,1,-1,-13,-1,-1,3,-4,0
1532494295967,0,0,-5,-3,-1,-4,2,0
1532494295972,-2,-1,5,0,-3,0,0,1
1532494295977,-13,-1,-6,0,1,-6,-2,1
1532494295982,14,-1,0,0,-1,-5,-4,-2
1532494295987,3,-3,-11,-2,1,7,4,-4
1532494295992,-5,-1,14,0,0,0,1,1
1532494295997,-2,0,-3,-2,-1,3,3,0
1532494296002,9,-1,0,-1,0,-1,3,2
1532494296007,-5,-2,-2,-3,-3,-3,-4,-3
1532494296012,1,0,1,2,1,-2,-2,-1
1532494296017,-1,-1,3,1,-1,-4,-2,-2
1532494296022,-6,0,-2,-1,-1,-13,-2,0
1532494296027,3,-3,1,0,1,15,5,1
1532494296032,-5,-1,7,-2,-2,-3,-8,-2
1532494296037,7,-3,-4,-4,1,2,4,1
1532494296042,-10,2,8,-1,-1,0,0,0
1532494296047,-5,-2,-16,2,0,-8,-10,-6
1532494296052,-2,0,4,-2,-2,1,3,-2
1532494296057,2,-1,6,0,-2,6,0,-2
1532494296062,0,-4,-10,-3,-1,6,-4,-1
1532494296067,1,4,8,-1,-1,-20,3,4
1532494296072,-13,-4,-8,-1,-1,1,-5,-1
1532494296077,7,0,-2,-2,-3,8,-5,-3
1532494296082,11,-1,0,1,3,-6,-6,1
1532494296087,-4,0,2,1,-2,-18,-3,-1
1532494296092,4,-1,1,-2,0,5,4,0
1532494296097,-3,1,-4,0,1,-4,-5,-1
1532494296102,-10,-2,-1,-1,-2,5,2,-4
1532494296107,3,0,2,-3,0,8,-2,0
1532494296112,-1,0,-3,1,0,2,3,1
1532494296117,-4,-2,-1,-2,1,11,9,1
1532494296122,-1,-2,1,1,0,-8,-4,-2
1532494296127,-5,-1,-3,-1,-2,2,-4,-1
1532494296132,2,1,-1,-2,-4,-3,1,-1
1532494296137,-11,-1,0,1,1,-5,1,0
1532494296142,18,5,0,-1,-2,14,2,0
1532494296147,-8,-5,-5,-2,-1,27,4,0
1532494296152,11,0,3,3,0,-35,11,-1
1532494296157,7,-2,0,0,-4,-20,-13,-1
1532494296162,-15,-4,-5,-1,0,-12,3,-2
1532494296167,-6,0,1,-2,-4,7,-5,-4
1532494296172,-17,-6,-1,-4,-4,12,1,-2
1532494296177,45,8,-1,2,3,8,1,4
1532494296182,-36,-9,0,-2,-2,-4,-3,-5
1532494296187,43,2,-3,1,1,4,2,4
1532494296192,2,-1,0,-3,-1,-14,-6,-4
1532494296197,-4,-2,-3,-3,-2,12,6,3
1532494296202,-3,1,1,-1,1,-1,0,-1
1532494296207,-7,0,7,1,-5,-27,-2,-1
1532494296212,-9,-3,2,0,2,-22,-6,-2
1532494296217,-7,-4,-21,-1,-2,22,1,-4
1532494296222,7,1,11,-4,-1,13,5,2
1532494296227,-19,-3,-1,-1,2,3,-12,-3
1532494296232,11,2,7,-1,-1,5,-1,0
1532494296237,-9,-1,-1,0,0,-14,-4,-3
1532494296242,-1,-5,-5,0,-1,-9,-8,0
1532494296247,2,3,-2,0,2,-8,0,-1
1532494296252,0,0,-7,-2,1,16,-4,0
1532494296257,-2,-4,3,-1,1,2,1,-3
1532494296262,-5,1,-4,0,-2,1,8,1
1532494296267,7,-1,2,1,-1,-10,5,6
1532494296272,1,3,-4,0,0,17,-4,2
1532494296277,-14,2,6,0,-2,-13,1,-3
1532494296282,-15,-2,1,-1,-4,-6,-4,-5
1532494296287,3,-3,-4,0,1,5,0,-1
1532494296292,5,-4,-4,1,0,4,-5,1
1532494296297,-9,-1,2,-2,-3,0,2,-1
1532494296302,7,4,-2,0,1,32,2,0
1532494296307,-12,-1,-2,2,1,-37,-10,-6
1532494296312,-10,-3,0,0,-3,2,-2,-2
1532494296317,16,0,2,-3,-1,-15,-4,3
1532494296322,1,-3,-3,-2,-2,3,2,0
1532494296327,-4,0,-1,-3,-2,15,-1,0
1532494296332,-1,1,-4,-2,-2,-5,0,-2
1532494296337,-5,-4,2,-1,0,12,4,-1
1532494296342,-1,-2,-1,-2,-1,-9,-4,-1
1532494296347,0,-1,-4,-1,-1,3,3,0
1532494296352,-3,-1,1,-1,-1,7,0,-2
1532494296357,-3,1,0,2,1,-11,-4,-1
1532494296362,12,-2,0,0,-1,0,7,2
1532494296367,-7,-1,-4,-2,-2,8,3,-1
1532494296372,-7,-1,-1,-1,-1,-11,1,-3
1532494296377,3,5,-2,-1,-1,3,-1,-4
1532494296382,-1,-1,-1,0,-1,-6,-1,0
1532494296387,-28,-3,0,-3,-2,9,-10,-3
1532494296392,21,4,1,2,2,-3,0,6
1532494296397,-1,-1,-4,-1,-1,-4,-6,-5
1532494296402,-29,-4,-2,-1,-2,-9,-1,-3
1532494296407,27,4,2,-1,1,3,5,2
1532494296412,-10,-4,-5,-4,-3,3,-1,-3
1532494296417,6,-7,-5,-3,-2,4,-1,4
1532494296422,8,-3,-1,-2,-1,-1,0,-2
1532494296427,-7,-1,0,2,2,-3,-1,-1
1532494296432,5,1,2,0,-1,-3,-1,2
1532494296437,0,1,0,-1,-2,-3,1,1
1532494296442,-11,-2,3,0,-2,2,-3,-3
1532494296447,0,-3,-6,-1,0,4,6,-2
1532494296452,5,6,4,0,-1,-5,-2,-3
1532494296457,0,-1,-1,-2,-1,0,0,-1
1532494296462,6,1,1,-1,-1,2,-1,0
1532494296467,0,0,-3,-1,-1,0,5,2
1532494296472,-2,-4,-1,1,0,0,-9,-3
1532494296477,-4,0,-7,0,-2,-1,1,-1
1532494296482,1,0,3,1,0,-2,-1,0
1532494296487,7,-4,3,-2,-4,1,-2,2
1532494296492,-22,0,-3,-3,-1,0,4,-4
1532494296497,0,-1,-1,0,-1,-7,-7,-2
1532494296502,6,-1,-7,0,-1,-2,1,0
1532494296507,-5,0,1,0,0,6,-1,1
1532494296512,-4,-2,1,-1,0,-5,-10,-4
1532494296517,-28,1,0,-4,-1,-2,12,-4
1532494296522,53,5,0,2,-2,7,3,8
1532494296527,2,0,-1,-1,2,-7,-6,-10
1532494296532,4,-3,0,-2,-1,1,-1,1
1532494296537,5,5,0,0,1,-11,-7,1
1532494296542,4,-11,-3,-1,-1,0,-2,-1
1532494296547,-7,6,2,-1,-2,0,4,3
1532494296552,20,3,-1,0,0,5,-3,1
1532494296557,4,-1,9,1,-1,-4,0,1
1532494296562,-18,0,-10,-3,0,-5,-4,-2
1532494296567,4,-1,1,0,-1,-2,-1,-1
1532494296572,-11,-3,-2,0,-1,1,0,-1
1532494296577,9,0,1,0,0,12,9,2
1532494296582,-7,-1,1,-3,-2,-11,-21,-5
1532494296587,-3,-6,-7,0,-4,-3,5,-2
1532494296592,-1,5,0,-1,-3,-1,-3,-3
1532494296597,-12,-6,-2,-2,0,3,3,3
1532494296602,8,5,1,0,4,5,9,5
1532494296607,3,-1,-2,-2,-1,1,-1,-1
1532494296612,-1,2,1,2,-1,0,7,3
1532494296617,2,-6,-5,1,-1,-1,-4,-4
1532494296622,-25,-3,-1,-2,-2,5,2,-3
1532494296627,8,2,3,0,1,-14,-8,7
1532494296632,-1,-4,0,-1,-1,0,1,-2
1532494296637,2,2,-1,-1,-2,-2,-2,-2
1532494296642,-5,-3,0,-1,-4,-3,2,-3
1532494296647,-20,-2,2,-1,-1,5,-9,-9
1532494296652,11,-1,-1,-1,-2,-2,3,4
1532494296657,-26,-1,-3,-3,-2,-1,-4,-4
1532494296662,38,1,2,2,1,-2,-1,1
1532494296667,-19,-2,-3,1,-1,1,2,-3
1532494296672,3,-3,-3,-1,2,7,24,-1
1532494296677,0,-7,-2,-1,-2,-1,6,9
1532494296682,-19,1,-4,-2,-2,-6,-21,-2
1532494296687,-2,-1,1,2,-1,1,-4,-7
1532494296692,-2,3,-1,-4,-6,-7,-2,-6
1532494296697,-6,-11,-1,2,0,3,-2,4
1532494296702,-15,-8,-1,-1,0,-2,6,-5
1532494296707,-1,2,-1,-1,0,3,8,5
1532494296712,0,-1,-3,-2,0,-3,-20,-8
1532494296717,7,2,0,-1,-2,-2,13,-5
1532494296722,-13,-1,2,-1,0,-2,-33,1
1532494296727,-7,-3,-2,-1,0,-2,2,-3
1532494296732,11,0,-1,0,0,1,6,10
1532494296737,18,5,0,0,0,-1,-13,-2
1532494296742,-30,-6,-3,-1,-3,0,24,0
1532494296747,27,-1,0,-1,-1,-3,-20,-3
1532494296752,-4,2,1,-1,0,-1,8,7
1532494296757,-19,-1,-3,-1,-1,-1,-11,-6
1532494296762,39,3,1,-1,0,-1,-4,4
1532494296767,9,2,-1,-1,-1,2,11,0
1532494296772,-12,-4,-4,0,1,-2,-10,-4
1532494296777,11,0,-1,-2,0,-1,34,0
1532494296782,-24,0,-1,-2,-3,-7,6,-6
1532494296787,6,-4,0,1,3,7,-17,6
1532494296792,-16,-4,-3,-1,-1,1,10,-9
1532494296797,22,-3,-3,-2,-1,-1,-30,-2
1532494296802,13,-1,-2,0,1,1,13,-3
1532494296807,-14,-5,-2,-2,-4,-4,3,3
1532494296812,-7,0,2,0,1,-2,-7,-6
1532494296817,2,0,-1,0,-1,0,-1,4
1532494296822,-6,0,-2,0,0,-1,6,0
1532494296827,-3,1,-2,-2,-1,0,-1,-6
1532494296832,8,1,1,1,1,2,-7,-1
1532494296837,2,1,0,-1,-4,-3,-7,-4
1532494296842,4,0,1,0,0,1,3,4
1532494296847,-18,-2,0,-3,-3,-3,-26,-7
1532494296852,-9,-2,-3,-2,0,0,18,0
1532494296857,3,-2,0,1,-1,0,-1,0
1532494296862,-19,-3,-1,-1,-1,0,-7,-2
1532494296867,20,0,-2,0,0,-1,-1,2
1532494296872,13,0,0,-2,0,-3,-8,0
1532494296877,5,1,2,0,1,1,-5,-3
1532494296882,-7,0,-1,-1,-1,-3,-13,-1
1532494296887,2,2,-1,0,-1,1,20,3
1532494296892,-7,-2,1,1,-1,0,-3,0
1532494296897,-5,-3,-2,1,-1,0,2,0
1532494296902,14,3,-1,0,-1,-2,-2,1
1532494296907,2,0,0,-1,0,0,11,0
1532494296912,-2,-3,-2,-1,-1,-3,-1,0
1532494296917,-5,-2,0,-2,0,-1,-7,1
1532494296922,-2,-1,-2,-2,-1,-1,3,-3
1532494296927,4,0,0,0,-1,0,4,-1
1532494296932,-17,-2,-2,-1,-1,1,-8,-1
1532494296937,11,1,0,-1,-1,1,7,1
1532494296942,6,-1,-1,1,0,-2,0,0
1532494296947,22,2,-1,0,-1,-1,3,0
1532494296952,-11,-1,-1,-2,-2,0,-2,0
1532494296957,-4,-1,-2,-1,0,-2,-2,-2
1532494296962,-13,0,-2,-1,-2,2,0,-1
1532494296967,-6,-3,-1,-2,-1,-2,-1,-1
1532494296972,-24,-4,-1,-1,-1,-1,-5,-5
1532494296977,28,-1,0,-1,0,-2,-1,5
1532494296982,10,13,1,2,0,2,-3,3
1532494296987,-18,-7,2,0,-2,-5,-5,-9
1532494296992,-3,-2,0,-1,-1,0,1,-4
1532494296997,1,-3,-2,-3,-1,2,20,1
1532494297002,-4,0,1,0,0,0,0,0
1532494297007,17,4,0,-1,-1,0,-5,3
1532494297012,-11,0,3,-1,1,-6,-3,-2
1532494297017,-39,-4,-5,2,-3,-1,9,-5
1532494297022,32,1,2,-1,1,-1,0,3
1532494297027,-11,-1,-2,-1,-1,4,7,-1
1532494297032,10,-1,-1,-1,-2,0,0,1
1532494297037,-8,0,-1,-1,1,0,-12,-1
1532494297042,-7,-6,-1,-3,-2,-1,-1,-6
1532494297047,-10,-2,-3,-2,1,-3,-7,-2
1532494297052,0,-1,-3,0,-2,0,-4,-2
1532494297057,8,0,-3,-1,-1,0,-5,2
1532494297062,-13,-3,-2,0,-1,-2,-3,-6
1532494297067,0,-1,-2,-3,0,0,2,0
1532494297072,10,-2,-1,-1,-1,-1,2,-2
1532494297077,-17,3,1,-3,-3,-4,-7,-3
1532494297082,34,-9,-2,-1,-2,-4,1,4
1532494297087,-6,-1,-1,-1,-1,0,2,-2
1532494297092,4,1,0,2,1,0,3,2
1532494297097,-2,0,-1,-1,-1,-1,-5,-3
1532494297102,-12,-2,-2,1,2,3,1,-4
1532494297107,0,-2,-2,-2,-3,-5,-3,0
1532494297112,4,0,0,-3,-4,-1,-1,-1
1532494297117,-1,-3,-2,-2,-3,-2,-2,2
1532494297122,-11,-1,-1,-3,-1,-1,-2,-3
1532494297127,5,4,5,3,3,4,-2,-2
1532494297132,-6,-1,-4,-1,1,1,0,-1
1532494297137,4,-3,-5,-2,5,-1,-4,-2
1532494297142,-7,0,2,-2,-4,0,0,0
1532494297147,-25,0,2,4,-1,0,0,-3
1532494297152,49,2,0,-6,-5,-5,-2,5
1532494297157,-1,-3,-5,-7,-12,-2,-2,2
1532494297162,-3,0,-3,1,-1,-1,1,-3
1532494297167,-13,0,0,0,-1,2,2,-6
1532494297172,-8,-1,0,2,-2,1,2,-1
1532494297177,7,-1,0,0,9,-1,3,-1
1532494297182,-9,-4,-1,-1,1,-1,-3,0
1532494297187,6,0,1,0,-3,-2,0,3
1532494297192,-8,-2,0,7,4,1,-1,-4
1532494297197,1,2,3,1,6,1,-1,1
1532494297202,-7,1,3,-1,-4,-4,-4,-1
1532494297207,3,-3,-10,-3,4,1,1,1
1532494297212,-6,-1,-4,-5,-3,-1,-2,-8
1532494297217,1,1,3,4,-6,0,-1,15
1532494297222,-1,1,-3,3,5,0,2,-1
1532494297227,5,-2,-4,-8,-8,-4,2,1
1532494297232,-19,-4,0,-4,0,-2,1,-1
1532494297237,20,3,3,0,-3,-2,-2,-12
1532494297242,0,-1,-3,-1,-2,0,1,-4
1532494297247,2,-2,-2,-6,-6,-3,0,-5
1532494297252,-4,1,3,-2,0,0,-3,-3
1532494297257,2,-1,2,0,-2,-3,-3,-5
1532494297262,2,-3,1,-1,-1,0,-1,2
1532494297267,-3,1,0,2,1,-1,-4,-5
1532494297272,-2,-3,-3,-1,-3,-2,0,0
1532494297277,1,0,0,-2,2,2,0,-3
1532494297282,0,-3,-6,-1,4,0,-1,2
1532494297287,-3,1,3,-1,-1,-2,0,1
1532494297292,1,-3,-4,-2,4,1,1,-2
1532494297297,-3,0,1,-2,-9,-3,-1,-2
1532494297302,-3,-1,-3,-3,-5,-3,-2,-4
1532494297307,0,-3,-2,-4,0,-2,1,1
1532494297312,-1,0,0,1,3,-4,0,0
1532494297317,2,1,-3,-2,3,0,-1,-1
1532494297322,2,2,-1,-2,-2,-2,-2,-1
1532494297327,0,-1,0,0,0,1,0,3
1532494297332,-2,-1,-2,-5,-9,-3,-2,-4
1532494297337,0,-2,-2,2,-2,1,0,0
1532494297342,-1,-1,1,0,1,-1,0,0
1532494297347,-4,-2,-1,0,-1,1,-1,0
1532494297352,3,2,0,2,1,3,1,0
1532494297357,2,1,-2,1,1,-3,-1,0
1532494297362,0,0,0,-3,-2,0,-1,0
1532494297367,-2,-3,-4,-6,2,-3,-3,-3
1532494297372,-3,-1,-1,-2,-8,0,-1,2
1532494297377,-1,0,0,-1,-1,1,-1,0
1532494297382,-2,-1,0,-3,2,-1,-1,-1
1532494297387,-1,-2,-1,0,1,0,-1,-2
1532494297392,-3,-2,-1,1,1,-1,-2,0
1532494297397,1,1,3,-2,-5,-1,0,1
1532494297402,-1,-2,-2,1,-1,-1,-1,-3
1532494297407,-1,0,-1,-1,-2,1,-1,-2
1532494297412,-2,0,-1,0,-1,0,0,2
1532494297417,-1,-1,-1,0,-6,-5,-1,-3
1532494297422,1,1,1,-1,1,1,1,3
1532494297427,-3,-1,-1,-2,-2,-4,0,-1
1532494297432,-2,-3,-3,-1,-2,0,1,-4
1532494297437,0,0,-1,0,-1,0,0,1
1532494297442,-2,-1,-1,-1,0,-1,-2,-2
1532494297447,1,-2,1,1,2,1,1,-1
1532494297452,-2,-1,2,0,-1,-1,0,1
1532494297457,-2,-2,-5,-2,-3,-1,-4,-2
1532494297462,-1,0,-1,-1,2,-5,0,-1
1532494297467,-1,0,0,-2,-4,4,2,0
1532494297472,0,0,1,2,0,-4,-4,-2
1532494297477,1,-1,0,-2,-1,1,2,-1
1532494297482,-2,-1,-2,-2,-5,0,-4,-3
1532494297487,-1,-2,-2,-2,1,-3,0,-2
1532494297492,2,-1,-1,1,0,1,2,4
1532494297497,-2,-2,-1,0,-1,2,-4,-4
1532494297502,1,-3,-1,-1,-1,-4,1,-3
1532494297507,-1,-1,2,1,0,0,-1,0
1532494297512,-1,1,-1,-1,-6,-2,-3,-3
1532494297517,2,0,0,0,3,0,-1,1
1532494297522,0,-2,-2,-1,-2,1,-2,-3
1532494297527,1,-1,-2,-1,-2,-7,-4,-3
1532494297532,-1,0,-2,-3,1,18,-3,-6
1532494297537,-3,-2,2,3,-2,-14,8,1
1532494297542,4,-2,-1,1,1,7,-1,12
1532494297547,3,1,3,-1,-1,0,1,2
1532494297552,-1,1,0,-1,-1,-2,1,0
1532494297557,-2,-1,-1,-2,-1,0,-2,-3
1532494297562,-1,-4,-1,2,2,3,-2,-2
1532494297567,1,-1,-1,-2,-1,-14,-5,0
1532494297572,-2,-2,-1,-3,-2,19,-3,-4
1532494297577,1,1,1,4,5,-9,11,2
1532494297582,-1,-1,0,-2,-1,-3,3,0
1532494297587,0,0,-1,0,1,0,-2,-1
1532494297592,-2,-3,-1,-3,-4,-4,-4,-3
1532494297597,0,1,0,1,2,17,2,0
1532494297602,-3,1,0,-1,-1,3,-2,-1
1532494297607,0,-2,-1,1,0,-1,3,-3
1532494297612,-3,-3,-2,-2,0,-7,-1,-2
1532494297617,-1,-1,1,0,-2,7,-4,1
1532494297622,-1,1,0,0,-2,-16,2,-1
1532494297627,-3,-2,0,-3,-2,6,-5,-5
1532494297632,0,-1,-2,-2,-2,-14,1,-2
1532494297637,0,-2,-3,-3,-2,-11,-5,4
1532494297642,-2,0,1,-2,1,9,-1,-5
1532494297647,1,-1,-1,0,-2,-5,-1,1
1532494297652,2,0,2,0,2,2,4,2
1532494297657,-35,0,-3,-3,0,-5,-3,-5
1532494297662,34,-4,-1,-2,-1,-1,-1,-1
1532494297667,-9,1,-1,-2,-3,1,5,-1
1532494297672,-5,-3,0,2,0,-2,20,10
1532494297677,4,1,-1,-1,-1,-8,-17,-7
1532494297682,-25,6,-2,1,0,10,4,-7
1532494297687,30,-8,-1,0,-3,0,3,6
1532494297692,-7,1,-1,-2,-3,0,-6,-9
1532494297697,6,0,1,0,0,2,2,5
1532494297702,3,-1,1,1,-3,-2,-3,2
1532494297707,-12,1,-4,-4,-3,-13,-2,-6
1532494297712,-4,1,0,1,-1,5,-1,3
1532494297717,8,-5,-2,-3,1,-9,4,-4
1532494297722,-5,0,-3,-1,0,-3,-5,-1
1532494297727,-10,0,-1,-1,-4,-3,-4,-4
1532494297732,6,-1,0,-2,-1,2,-8,-2
1532494297737,2,1,-1,-1,-2,4,-5,-2
1532494297742,1,-1,0,1,2,-12,4,0
1532494297747,-3,-1,0,-2,0,13,-1,0
1532494297752,4,-1,-1,-2,0,-33,-2,-1
1532494297757,-1,-1,-1,-1,-1,24,-1,-2
1532494297762,-2,-1,0,0,-2,-19,1,1
1532494297767,-7,-3,-2,0,-1,3,-2,-5
1532494297772,-6,1,-2,-1,-3,-16,-5,-5
1532494297777,-14,-3,-1,0,-2,3,0,0
1532494297782,28,0,0,-3,0,16,-2,2
1532494297787,-4,-3,-2,-1,-2,-17,4,-3
1532494297792,-3,-1,0,1,-3,4,-4,-1
1532494297797,6,0,-1,-1,-1,-6,-1,-3
1532494297802,-7,-1,1,1,1,2,-4,1
1532494297807,-2,1,-1,-2,-1,5,3,0
1532494297812,0,-2,0,-1,1,7,-4,-1
1532494297817,2,-1,-2,-2,-2,-4,-1,0
1532494297822,-7,-1,-3,0,-2,-1,-4,-1
1532494297827,2,0,0,0,-2,0,-4,-4
1532494297832,-1,-3,0,1,-1,0,2,-1
1532494297837,6,1,-1,0,2,2,2,2
1532494297842,-6,0,1,-2,0,-1,-1,0
1532494297847,0,0,-2,0,0,0,-2,-1
1532494297852,-2,-2,-1,0,1,5,1,-1
1532494297857,4,-2,-1,-1,1,-2,-2,-1
1532494297862,-2,-1,-1,-1,-3,1,12,-1
1532494297867,-1,0,2,0,0,-2,-24,1
1532494297872,-2,0,-2,-4,-5,-19,-6,-5
1532494297877,2,0,0,-1,1,6,1,2
1532494297882,-5,-1,-1,0,-1,-11,-3,-1
1532494297887,-1,-2,-1,0,1,6,6,-2
1532494297892,2,0,-1,-2,-1,-1,0,-1
1532494297897,-1,-3,-1,-1,-2,-5,-1,-1
1532494297902,1,-3,-2,-1,-1,2,-5,1
1532494297907,-1,-2,-2,-1,-2,-3,4,0
1532494297912,1,0,0,0,-1,4,0,0
1532494297917,0,0,2,0,-2,-1,2,-2
1532494297922,-1,1,1,-1,1,3,-3,-1
1532494297927,-2,1,0,-1,-1,1,3,-1
1532494297932,-1,0,-2,-2,0,1,0,1
1532494297937,-3,-2,-1,0,-2,6,1,-1
1532494297942,-2,-1,-1,-1,-1,-5,-3,-1
1532494297947,-2,0,-1,-1,-2,1,1,0
1532494297952,1,-1,-2,1,0,3,1,1
1532494297957,-1,-1,-1,-1,-1,-6,-1,-2
1532494297962,-2,0,-2,-1,-1,-2,-3,0
1532494297967,-1,-2,-2,-2,-1,0,-5,-1
1532494297972,0,0,1,-1,0,-2,-3,-1
1532494297977,0,-1,1,-1,-1,8,2,-1
1532494297982,-1,-3,-1,0,0,3,3,-4
1532494297987,-2,-1,-1,-1,-1,-2,5,-2
1532494297992,0,-3,-1,-1,-2,3,1,-1
1532494297997,-1,-1,0,-1,-1,-11,-5,-3
1532494298002,-1,-2,-2,0,0,1,0,-1
1532494298007,1,-1,0,-1,-2,3,1,-1
1532494298012,-1,0,-1,-1,-1,3,-3,0
1532494298017,0,-1,-1,0,0,-6,1,0
1532494298022,-1,-3,1,0,-3,-1,-2,1
1532494298027,0,-1,0,0,0,-4,1,-2
1532494298032,-1,-1,-1,-2,0,-2,0,0
1532494298037,-1,0,-1,-1,0,-2,-1,1
1532494298042,-4,-1,0,-2,-1,-2,-2,-1
1532494298047,-1,0,-3,0,-1,-2,1,-1
1532494298052,0,-1,0,-3,-1,2,0,-2
1532494298057,-1,-2,-1,-1,-2,-3,-2,-2
1532494298062,0,-1,-1,-1,-3,-12,-3,0
1532494298067,-3,-2,1,0,0,15,-1,-2
1532494298072,0,0,-1,1,1,-1,-2,0
1532494298077,0,-1,0,-1,-2,4,-1,-2
1532494298082,0,-2,0,0,-2,-4,0,0
1532494298087,-1,0,-1,-2,-1,-4,-4,-1
1532494298092,-1,-1,-1,0,-1,1,4,-3
1532494298097,1,-1,0,0,0,0,-5,5
1532494298102,-2,-2,-4,-2,0,2,0,-2
1532494298107,1,2,2,2,1,-6,-2,-1
1532494298112,1,1,3,1,-1,1,-4,1
1532494298117,0,-1,-3,0,-1,-4,6,1
1532494298122,1,-2,-2,-1,-1,5,12,-1
1532494298127,-3,-5,-4,-1,-2,-4,13,-3
1532494298132,0,0,-1,0,-1,-5,-20,-2
1532494298137,-1,-2,-3,-2,-1,1,8,-1
1532494298142,-1,-2,-2,-1,0,0,-8,-2
1532494298147,-1,0,0,-3,-2,-4,0,-1
1532494298152,0,-1,-2,1,0,-1,4,0
1532494298157,0,-2,1,-1,-2,-1,-1,-1
1532494298162,-2,0,-1,2,-2,3,-6,0
1532494298167,-2,0,1,-2,0,-4,-1,-2
1532494298172,-3,-1,-1,-1,-2,-3,3,0
1532494298177,-1,-1,0,-1,0,-1,-9,-4
1532494298182,-1,-1,0,-1,1,-1,1,-3
1532494298187,-1,0,-1,1,0,1,-2,1
1532494298192,0,-1,0,-1,0,-2,1,0
1532494298197,-2,-1,-1,0,-1,-2,0,-2
1532494298202,0,2,-1,-1,-1,0,-2,1
1532494298207,-1,-2,-1,0,-1,-3,-4,-1
1532494298212,-2,-1,-3,-2,-2,0,-1,-1
1532494298217,1,0,0,-1,-1,-1,-4,-2
1532494298222,-3,0,-1,-2,-1,-1,-4,-2
1532494298227,0,-1,-2,-1,0,1,-1,2
1532494298232,-2,-1,-1,-2,-1,-1,3,-2
1532494298237,-2,1,-1,1,0,-1,-1,-2
1532494298242,0,0,0,-1,-1,0,-5,-2
1532494298247,0,-1,0,-2,0,-1,3,0
1532494298252,0,0,1,0,0,6,1,-1
1532494298257,-1,0,0,-1,1,0,4,-1
1532494298262,0,-1,1,0,-1,1,0,0
1532494298267,1,0,-2,0,-3,-3,2,-2
1532494298272,1,-3,-2,-1,-1,-2,-1,-2
1532494298277,0,-1,-1,-1,0,-1,-3,-1
1532494298282,-1,-2,-1,0,-1,2,1,1
1532494298287,-2,-1,1,-1,-1,-2,-1,0
1532494298292,-2,-1,-2,-2,-2,-1,0,-2
1532494298297,-1,-2,-1,-2,0,-10,-2,0
1532494298302,-2,-1,0,-2,-2,11,1,0
1532494298307,0,-1,0,1,-1,2,-5,0
1532494298312,-1,1,-2,3,1,-2,3,-1
1532494298317,0,0,-2,-1,-3,-2,-2,1
1532494298322,1,-1,-1,-1,0,4,7,-5
1532494298327,-2,-1,-2,-1,0,-4,-9,3
1532494298332,-1,-1,0,-2,-2,-2,-2,-1
1532494298337,0,-1,0,0,0,4,-2,-2
1532494298342,-1,-1,0,-2,0,-6,1,0
1532494298347,1,0,0,-1,-2,1,-1,-3
1532494298352,-2,-1,-1,-1,-1,2,-6,-3
1532494298357,1,-1,0,-2,-1,2,7,0
1532494298362,-1,-2,-1,-1,-2,-2,-3,0
1532494298367,0,0,0,-3,-1,-4,0,-2
1532494298372,-1,-2,-1,0,-1,1,-1,3
1532494298377,-2,-1,-2,0,1,-7,-1,-1
1532494298382,-2,0,0,-1,0,0,-2,-1
1532494298387,-1,-2,0,-1,-1,-17,-1,0
1532494298392,1,0,-2,-2,1,12,1,0
1532494298397,0,-1,-2,0,-1,0,2,2
1532494298402,0,0,1,0,-1,0,-11,-1
1532494298407,-1,1,0,1,-3,-3,-1,-6
1532494298412,1,-1,-1,-1,-1,-7,3,0
1532494298417,-2,-1,0,0,-1,-3,-6,-2
1532494298422,1,-1,-2,0,-1,-2,2,2
1532494298427,-1,-3,-2,-1,1,6,4,-1
1532494298432,-2,-3,-1,0,-3,-2,-6,-3
1532494298437,0,-2,0,-1,-1,3,0,-2
1532494298442,1,-1,-1,0,0,0,6,1
1532494298447,-2,0,-2,-1,-1,-1,-15,-4
1532494298452,-2,-1,-1,0,-1,-7,3,0
1532494298457,-1,-3,-1,-2,-2,0,2,0
1532494298462,6,0,-1,-1,-1,-8,-6,-2
1532494298467,-20,-3,-1,0,-1,2,7,-1
1532494298472,22,4,0,-3,1,0,-8,1
1532494298477,-1,-3,0,-1,-3,0,3,-1
1532494298482,-2,-1,-2,0,-1,-2,4,0
1532494298487,2,0,-1,-2,1,3,3,5
1532494298492,-7,-2,-1,-1,-1,-3,-14,-3
1532494298497,-11,-1,-1,0,-2,-1,9,0
1532494298502,5,-2,1,3,1,-3,-25,0
1532494298507,1,2,-2,-1,-2,1,12,2
1532494298512,-6,2,1,-2,-2,-3,7,-1
1532494298517,-9,-1,-1,0,-1,0,-1,-5
1532494298522,0,-2,-2,-3,-2,1,1,-1
1532494298527,4,-3,-2,0,-1,0,-2,2
1532494298532,0,-3,0,0,1,-3,-9,-5
1532494298537,-1,1,-1,-1,0,1,3,3
1532494298542,1,1,-1,-3,0,1,8,-2
1532494298547,-5,-3,-1,-1,-1,-6,-6,-2
1532494298552,-3,-2,-3,-2,-1,-2,8,0
1532494298557,6,3,0,-2,-1,-1,-5,2
1532494298562,-7,-3,0,-2,-1,-2,-6,-1
1532494298567,-1,-1,1,-1,1,4,-2,2
1532494298572,5,0,0,0,-1,-3,-13,-2
1532494298577,3,0,1,1,1,3,-4,6
1532494298582,-1,0,-4,-1,-2,-5,-1,-6
1532494298587,-2,-2,-4,-5,-4,-3,3,-3
1532494298592,0,1,5,7,1,2,9,3
1532494298597,-1,-1,0,0,-1,1,0,-5
1532494298602,-16,3,1,1,1,-1,13,6
1532494298607,29,1,1,0,0,0,-1,1
1532494298612,-8,-3,-4,-3,-2,-1,6,1
1532494298617,6,0,-1,-1,-1,-1,-2,-5
1532494298622,-5,-2,-3,-2,-2,0,4,-2
1532494298627,-7,0,0,0,-1,0,-1,-4
1532494298632,0,0,-2,-2,-1,0,4,1
1532494298637,-4,0,0,-2,-1,0,-6,-2
1532494298642,2,-2,0,-1,-2,-2,-3,-2
1532494298647,-3,-1,0,1,0,-1,1,-1
1532494298652,0,-2,-2,-1,-3,-2,-1,-3
1532494298657,-2,-2,0,-1,0,-2,-5,0
1532494298662,1,0,0,-1,0,-1,-1,-2
1532494298667,0,1,-1,-2,-1,-5,-2,0
1532494298672,-5,-2,0,-1,0,6,2,0
1532494298677,1,-1,-1,0,-2,-1,-2,-2
1532494298682,3,-1,0,-1,0,2,4,-1
1532494298687,-3,-2,1,0,-1,-2,0,-1
1532494298692,-2,-1,-1,-3,-1,4,-1,-1
1532494298697,-1,-1,-2,-3,0,0,1,1
1532494298702,0,-1,-1,0,0,0,2,-1
1532494298707,-3,-2,0,-1,0,-5,-3,-2
1532494298712,0,-2,-1,0,1,0,1,-2
1532494298717,1,0,0,-2,-2,-4,-6,-5
1532494298722,-1,-1,-1,-1,-1,1,9,0
1532494298727,-1,0,-2,1,-1,2,-1,-1
1532494298732,-3,-1,1,-2,-1,-1,7,2
1532494298737,-1,-2,-2,-2,-2,-1,-4,-1
1532494298742,-1,-2,0,-1,-2,-3,-4,-2
1532494298747,0,0,-3,-3,-2,2,4,-6
1532494298752,0,0,0,0,0,-4,-10,4
1532494298757,-3,-2,-3,0,-2,-11,2,-8
1532494298762,0,-1,-1,2,3,8,-14,3
1532494298767,-1,0,1,0,1,1,-1,0
1532494298772,-2,-1,-2,-2,-1,-2,0,-2
1532494298777,0,-2,-3,0,0,-6,6,1
1532494298782,0,-1,-1,-1,0,3,6,-1
1532494298787,-3,-2,-1,-1,-1,0,-5,-1
1532494298792,-2,-1,-2,-1,0,0,5,-2
1532494298797,-1,0,-1,1,-2,-2,-26,-1
1532494298802,1,-2,-1,-1,-2,-7,11,-1
1532494298807,-2,-1,-1,0,-1,2,2,0
1532494298812,-2,0,0,-2,-2,-4,-11,-4
1532494298817,1,-1,-1,-2,-2,10,11,2
1532494298822,1,1,0,1,-2,-3,1,3
1532494298827,-2,-1,0,-2,-1,-26,-15,-4
1532494298832,-1,0,-1,-2,3,27,3,-2
1532494298837,-4,-3,-3,0,3,-5,-9,-4
1532494298842,1,3,2,4,1,9,4,3
1532494298847,-2,-2,1,-2,-1,-9,7,-1
1532494298852,-1,-3,-2,-3,-6,3,-13,-3
1532494298857,2,0,1,-1,-2,-6,-8,2
1532494298862,-1,2,1,0,6,3,19,-5
1532494298867,0,0,0,2,1,9,-7,-1
1532494298872,-2,0,1,4,7,-27,13,-6
1532494298877,-1,0,-1,-4,-1,25,3,0
1532494298882,-1,-4,-2,-5,-8,16,-11,-3
1532494298887,-4,0,0,1,3,-31,3,-2
1532494298892,1,1,-1,1,3,9,-19,-1
1532494298897,-1,-6,0,2,0,-21,-1,6
1532494298902,7,2,2,1,1,9,-1,2
1532494298907,-2,-1,-2,-2,-2,3,6,0
1532494298912,-3,-3,-1,-3,-7,-28,0,0
1532494298917,-1,2,2,0,3,36,8,-4
1532494298922,-3,-2,-3,-3,-2,-4,-3,0
1532494298927,1,-3,-1,-2,-3,17,-4,-2
1532494298932,0,1,-2,-1,-3,-23,-11,1
1532494298937,-3,0,-1,-1,-1,-8,-11,0
1532494298942,-4,-2,-2,-3,-1,-7,-6,-3
1532494298947,-1,2,-1,1,-1,15,9,-2
1532494298952,1,-2,1,3,1,18,-5,4
1532494298957,1,1,1,-1,-4,-29,24,-3
1532494298962,-3,-2,-3,-4,-2,13,5,-4
1532494298967,-2,-2,1,0,1,-29,-9,-2
1532494298972,2,1,1,0,-5,6,17,4
1532494298977,2,2,0,1,-1,19,1,7
1532494298982,0,-1,-1,-1,-3,-3,-1,-1
1532494298987,1,-1,-2,-2,-5,4,-10,3
1532494298992,-1,-3,-2,-3,0,-2,8,-3
1532494298997,-2,-2,-1,0,1,0,5,-1
1532494299002,-1,-3,-2,-2,4,-3,-2,0
1532494299007,-1,-2,-2,-6,-9,55,6,0
1532494299012,-2,-1,0,2,0,-46,-11,0
1532494299017,0,-1,-1,-2,-5,-18,-9,-5
1532494299022,0,-1,0,-1,-2,14,5,1
1532494299027,1,-1,-2,0,4,-9,-8,-5
1532494299032,1,1,0,-3,-4,-2,-2,2
1532494299037,-7,-3,-2,-2,0,-14,-11,-9
1532494299042,1,-1,0,2,1,-9,21,1
1532494299047,2,1,2,3,8,18,-3,8
1532494299052,2,0,-1,1,0,18,10,-4
1532494299057,0,-1,-2,0,-2,5,2,-3
1532494299062,-4,0,-2,-2,-1,-17,-23,-1
1532494299067,-1,-4,-2,-1,-7,-28,-2,-2
1532494299072,0,-1,0,-3,-3,19,3,-10
1532494299077,2,-1,-1,-2,1,37,5,5
1532494299082,-2,-1,0,2,-2,-44,-11,1
1532494299087,-3,-1,-1,0,-3,-25,-2,-3
1532494299092,-2,-1,0,-1,2,15,5,-4
1532494299097,0,-2,-2,0,-1,-4,-13,-3
1532494299102,-1,-2,-1,-2,-3,9,-5,-4
1532494299107,-2,-1,-1,0,1,-6,-4,0
1532494299112,-1,-2,-3,-1,-4,-6,-3,1
1532494299117,2,1,-1,-3,0,-1,3,0
1532494299122,0,0,-1,2,2,-6,-14,1
1532494299127,-1,-2,-2,-1,-2,-5,20,-4
1532494299132,1,-1,-1,-1,-2,3,-4,7
1532494299137,0,-1,0,-1,-2,14,-7,-4
1532494299142,2,1,0,0,2,10,-1,-2
1532494299147,0,2,-1,0,4,13,26,3
1532494299152,-4,-3,-5,-4,-4,-8,-10,-5
1532494299157,-2,-2,0,1,-1,-21,3,0
1532494299162,-3,-2,-3,-1,-4,0,-15,-2
1532494299167,-2,-2,0,0,0,8,-5,0
1532494299172,1,-2,-1,-2,2,11,13,4
1532494299177,-4,-1,-2,-2,-1,-11,-8,-7
1532494299182,0,0,0,-2,1,-1,12,-1
1532494299187,1,0,1,1,2,5,-3,2
1532494299192,0,-1,1,-1,-4,-19,-21,-2
1532494299197,-2,-2,-2,1,3,17,9,-3
1532494299202,-3,-1,-2,-2,-1,-11,2,-5
1532494299207,1,1,-2,-2,-1,11,-7,-1
1532494299212,-2,-1,0,-1,0,-5,-1,-6
1532494299217,1,0,-1,0,-3,-18,-6,7
1532494299222,0,-1,-1,0,1,30,12,-1
1532494299227,1,0,1,2,0,-6,-6,4
1532494299232,-2,-1,-1,-1,1,-6,9,-1
1532494299237,0,-1,1,-1,-1,-3,3,-3
1532494299242,-1,0,-2,-3,-2,-6,-8,0
1532494299247,1,-2,0,-3,-2,-1,-8,-3
1532494299252,0,0,1,1,1,3,16,4
1532494299257,-1,1,1,1,0,-2,2,-3
1532494299262,-2,-3,0,0,-2,-12,-14,-5
1532494299267,-1,-2,-2,-1,-1,4,9,-1
1532494299272,-1,0,-1,1,2,7,-3,0
1532494299277,-1,-1,-2,-2,-1,-3,2,2
1532494299282,-1,0,0,-1,-4,-3,2,-3
1532494299287,-1,1,0,-1,0,-6,-11,0
1532494299292,-1,-1,-2,0,1,3,-4,1
1532494299297,-1,1,0,2,0,-13,2,-2
1532494299302,-1,-1,-1,-2,-2,-3,-13,2
1532494299307,0,-1,-1,-1,-3,4,7,-2
1532494299312,-1,-1,-2,-2,-2,-1,-9,2
1532494299317,-2,0,-2,-1,0,2,0,-2
1532494299322,0,-1,-1,-1,-1,-4,-7,-3
1532494299327,-2,0,-2,-1,-2,-2,3,0
1532494299332,0,-1,0,-2,0,0,-4,-2
1532494299337,1,1,0,-1,-1,9,3,1
1532494299342,-1,0,1,-1,-1,-4,2,1
1532494299347,-2,0,-3,0,-1,0,-3,-1
1532494299352,0,0,-1,1,-1,1,2,-1
1532494299357,-1,0,-1,-1,-2,-1,-1,-1
1532494299362,0,-1,0,-1,0,-1,-3,0
1532494299367,-2,0,0,-2,-3,-6,-19,-6
1532494299372,2,2,0,2,2,5,38,9
1532494299377,-2,-3,-2,0,-2,-4,3,-1
1532494299382,0,0,0,0,-1,0,0,-1
1532494299387,0,-2,-1,0,0,1,7,5
1532494299392,-1,0,-1,-2,0,-1,-6,0
1532494299397,-1,-2,-1,-1,-1,-3,-8,-2
1532494299402,1,0,1,-1,0,-1,6,0
1532494299407,0,-1,0,-1,-3,-1,3,-2
1532494299412,-1,-2,0,0,-2,-1,0,0
1532494299417,-1,0,-3,-1,-3,-2,5,0
1532494299422,-2,1,-3,0,-2,-1,-5,-1
1532494299427,-2,1,-1,0,0,0,-3,0
1532494299432,1,-1,0,-1,-1,0,11,1
1532494299437,-4,-3,-1,-3,-1,-1,-5,-4
1532494299442,-1,-1,0,0,0,0,-6,-1
1532494299447,-1,-2,-1,-1,-1,-2,-16,-2
1532494299452,-1,1,0,0,-3,-1,-9,1
1532494299457,1,-1,-2,2,-1,-3,17,3
1532494299462,-2,-1,0,1,-1,-2,-10,-2
1532494299467,0,-1,-2,-1,0,0,-4,-1
1532494299472,0,-3,0,-3,-1,-2,-1,-1
1532494299477,-1,-2,-3,-2,-1,0,-1,-1
1532494299482,-2,1,-2,-3,1,-2,-2,-1
1532494299487,-1,-3,-2,-1,-1,-1,-7,-1
1532494299492,-2,-1,0,-1,-3,-4,0,-2
1532494299497,0,-1,0,1,0,2,8,3
1532494299502,-3,-3,-1,-1,1,0,-8,-4
1532494299507,-1,1,0,-2,-1,0,-11,1
1532494299512,1,-1,0,0,1,5,21,3
1532494299517,-1,-2,-1,-1,0,-1,-6,-2
1532494299522,0,-1,-1,1,0,-2,-2,0
1532494299527,-2,-1,0,0,-1,-3,-5,-4
1532494299532,-1,-2,-2,-3,-2,-3,-3,0
1532494299537,0,-1,0,-2,0,1,8,-1
1532494299542,0,0,-1,0,-1,1,1,1
1532494299547,-1,-1,-2,0,-2,-3,-6,-1
1532494299552,-1,0,-1,1,0,1,3,0
1532494299557,0,1,0,-1,-1,-1,7,-1
1532494299562,1,-1,-1,-1,-2,-1,-9,-2
1532494299567,-1,-1,-1,0,1,0,4,-3
1532494299572,-1,0,-1,-2,-1,1,4,2
1532494299577,-2,-1,-2,-2,-3,0,0,0
1532494299582,-1,-2,-1,-1,-3,0,-11,1
1532494299587,-1,1,-1,0,0,2,16,-1
1532494299592,-1,-3,-2,0,-1,-1,-6,-1
1532494299597,0,-1,-2,-1,1,-2,-7,-4
1532494299602,0,1,0,-1,0,-1,8,5
1532494299607,-1,-2,-1,0,-2,0,-5,0
1532494299612,-1,0,-1,-2,-3,-5,-7,-3
1532494299617,-2,-1,0,-1,1,-1,6,-2
1532494299622,0,0,0,-1,1,-2,-3,-1
1532494299627,-1,-1,0,0,0,-3,-2,-1
1532494299632,-1,-1,-2,-1,0,2,5,0
1532494299637,-2,0,-1,-2,-2,-1,-2,-2
1532494299642,0,-1,-1,-2,-1,0,5,-1
1532494299647,-1,0,-1,-2,1,-2,-5,-3
1532494299652,1,0,0,-1,1,1,-1,-1
1532494299657,1,-1,0,-1,1,1,3,4
1532494299662,-2,0,-2,-1,-2,-3,-4,-1
1532494299667,1,1,-1,0,-1,2,10,2
1532494299672,-2,-2,-2,0,0,1,-6,-2
1532494299677,-1,-1,1,-2,0,0,-2,-4
1532494299682,0,-2,0,-2,0,-1,9,4
1532494299687,-1,0,0,1,-2,-3,-5,1
1532494299692,-2,-2,-1,-3,-1,-2,-2,-3
1532494299697,0,0,-1,-1,-3,-2,0,-2
1532494299702,-1,-3,0,-3,0,-3,-7,-1
1532494299707,-1,0,0,1,-2,2,10,3
1532494299712,0,-2,-1,-1,-1,-2,-7,-4
1532494299717,-1,0,-3,0,-2,-1,6,2
1532494299722,-1,0,0,1,1,-3,-18,-4
1532494299727,-2,-1,-2,-3,-1,-2,5,-2
1532494299732,-1,0,-1,0,-2,0,5,-1
1532494299737,-2,0,-2,-1,-2,0,-3,2
1532494299742,0,0,-1,0,0,1,1,-1
1532494299747,-1,-1,-2,-1,0,-2,-7,-4
1532494299752,-1,-1,-1,-2,-1,-2,-6,-4
1532494299757,-1,-1,0,0,-1,-2,-11,0
1532494299762,0,-2,0,-1,-2,2,24,6
1532494299767,0,-2,-1,-1,-1,-2,-5,-1
1532494299772,-1,-1,-2,-1,-2,1,4,2
1532494299777,-2,-1,-1,0,0,-4,-8,-5
1532494299782,-2,-1,0,-2,0,-1,-6,-2
1532494299787,-1,0,1,-1,-2,-3,-7,2
1532494299792,-1,1,-1,0,2,0,-2,-1
1532494299797,-1,-1,0,-2,-1,0,-2,-4
1532494299802,0,-1,-2,1,0,-3,0,-1
1532494299807,-1,-2,1,0,0,0,2,0
1532494299812,0,-2,-1,-2,-2,0,5,1
1532494299817,0,-1,0,-2,-2,1,-3,1
1532494299822,-2,-3,-1,-1,-1,-2,-4,-3
1532494299827,0,-2,0,-1,1,2,-2,0
1532494299832,-1,-1,1,0,-2,-2,0,-1
1532494299837,0,-1,0,-2,1,-1,10,0
1532494299842,-2,1,1,-1,-2,-1,-4,-5
1532494299847,0,-2,0,1,1,-3,2,4
1532494299852,-1,-1,-1,-2,-2,-4,-9,-5
1532494299857,-1,-1,-1,0,0,2,18,2
1532494299862,-1,1,0,0,-2,-1,-2,1
1532494299867,0,0,0,0,0,-1,1,-3
1532494299872,-1,0,-1,-1,-3,2,5,2
1532494299877,-2,-1,-1,-1,0,-4,-17,-3
1532494299882,-2,0,-1,-3,-1,-4,-1,-3
1532494299887,1,0,-2,-1,0,2,6,2
1532494299892,1,1,-2,0,1,-3,0,5
1532494299897,-1,-1,-1,1,-3,-1,1,-3
1532494299902,-1,-3,0,-2,0,1,0,-3
1532494299907,0,-1,-1,-3,-1,-3,-9,-1
1532494299912,0,0,-1,0,1,-1,5,-1
1532494299917,-1,-2,-1,0,-1,3,6,0
1532494299922,-1,-1,-3,0,-1,-1,-2,1
1532494299927,-1,-2,0,-1,-1,0,-5,-2
1532494299932,-2,-2,1,2,-1,1,6,-4
1532494299937,0,0,-1,-1,-3,-2,-4,1
1532494299942,-1,0,-2,0,0,2,0,-2
1532494299947,-1,0,-2,-3,-1,0,0,-2
1532494299952,-3,-1,0,-1,-1,-4,-12,-5
1532494299957,0,-1,-1,-1,0,-1,3,-1
1532494299962,-1,0,-1,-2,0,-1,-4,-1
1532494299967,-2,-1,-1,-2,-3,-3,-4,-2
1532494299972,-1,-1,-2,-2,-1,0,-3,-1
1532494299977,-1,1,-1,-1,0,-1,1,-1
1532494299982,0,-1,0,-1,0,1,8,0
1532494299987,-1,-1,-3,-2,-1,2,6,-2
1532494299992,-1,0,-1,0,-1,-1,-8,0
1532494299997,-2,-2,-2,-1,-1,-1,-2,-1
1532494300002,-1,0,0,1,-1,-2,-2,-1
1532494300007,-2,-2,1,-1,0,-2,-17,-2
1532494300012,0,0,0,-1,1,2,26,2
1532494300017,-3,0,-3,-3,0,-3,-7,-1
1532494300022,-1,-2,-2,-1,-2,-1,-6,-2
1532494300027,1,-1,0,-1,0,1,9,4
1532494300032,-1,-3,-1,-1,-1,0,-10,-2
1532494300037,0,-2,0,-3,-1,1,1,-2
1532494300042,-1,-1,0,-2,-1,-3,-8,-4
1532494300047,-2,-2,-2,-1,-1,0,7,-1
1532494300052,0,-2,-2,-1,1,-1,-7,0
1532494300057,0,-1,-2,0,0,-1,0,1
1532494300062,-1,-1,0,-2,1,-2,-3,-3
1532494300067,-1,0,0,0,-1,0,1,-4
1532494300072,-1,-1,-1,-1,-2,0,-1,-1
1532494300077,0,-1,1,0,0,2,-2,0
1532494300082,-1,-2,-1,-2,-3,-2,3,-2
1532494300087,0,3,1,0,2,1,8,8
1532494300092,0,2,0,-1,-1,-2,-1,-1
1532494300097,-1,-1,0,0,0,0,3,1
1532494300102,-1,-1,-1,-1,0,-3,-15,-2
1532494300107,1,0,-1,-2,-4,-1,4,-2
1532494300112,-3,-2,-1,-1,0,-1,1,-1
1532494300117,2,0,-2,-2,-3,-2,-5,-3
1532494300122,-1,0,-1,1,1,0,9,4
1532494300127,-1,-1,-2,0,0,-4,-20,-5
1532494300132,-2,0,-1,-1,-1,-3,0,0
1532494300137,-2,-1,0,-2,0,-3,-2,-4
1532494300142,0,0,-1,1,0,0,-3,0
1532494300147,-1,0,-2,-2,-2,-2,18,1
1532494300152,-2,-1,-1,-1,0,-2,-6,0
1532494300157,-2,0,-1,0,-1,-5,-1,-4
1532494300162,1,-1,-1,-2,-2,-1,-2,2
1532494300167,-1,-2,-1,0,-1,-2,-9,-3
1532494300172,0,-1,-2,-2,-1,1,1,0
1532494300177,-1,-1,-1,-3,-2,-2,-2,-4
1532494300182,-1,-1,-1,0,0,-2,-4,-1
1532494300187,-2,-3,-2,0,-1,-1,0,2
1532494300192,0,0,-1,1,-2,3,-2,-1
1532494300197,-1,0,-1,-1,1,1,3,1
1532494300202,-1,1,-2,0,1,-2,-1,-1
1532494300207,-2,-2,-1,-1,-1,0,-2,1
1532494300212,0,-1,-2,0,0,2,1,2
1532494300217,-2,-1,0,-3,-3,-4,-2,-3
1532494300222,1,-2,-2,-1,-2,-3,6,-2
1532494300227,0,1,1,0,-1,1,2,0
1532494300232,-1,-2,-1,1,-1,-1,1,-1
1532494300237,2,0,1,0,0,-1,3,2
1532494300242,-1,-2,-1,-1,0,0,-8,-1
1532494300247,-1,-2,0,-1,-2,1,5,0
1532494300252,0,-1,0,0,-1,-1,5,0
1532494300257,-1,1,-1,0,-2,-2,-7,-3
1532494300262,1,-1,1,-1,0,-2,3,-1
1532494300267,-1,-2,-1,-1,0,-1,1,1
1532494300272,0,-1,-1,-3,0,-1,-2,0
1532494300277,-2,-1,-1,-1,0,0,3,-3
1532494300282,-2,-2,-1,-1,-2,-3,2,-2
1532494300287,0,-2,-1,-2,0,1,2,-2
1532494300292,-3,-1,-1,-3,-3,-5,-12,-5
1532494300297,0,-3,0,-1,-2,0,0,-3
1532494300302,-1,-2,0,-1,0,0,-10,1
1532494300307,3,-1,-1,0,-1,-3,15,4
1532494300312,-1,-1,-2,0,0,-1,3,0
1532494300317,-1,-1,-2,-1,1,2,2,2
1532494300322,-1,1,-2,-1,-1,1,-3,0
1532494300327,-3,-3,-1,-1,-1,-2,-11,1
1532494300332,-1,0,-2,-2,-2,1,4,-4
1532494300337,-1,-2,-1,0,0,-3,-4,-3
1532494300342,1,0,0,0,-2,0,17,-1
1532494300347,-2,1,-1,0,0,-1,-16,0
1532494300352,1,-2,-2,-1,-1,-1,6,3
1532494300357,-1,0,-2,-1,0,-2,-3,-2
1532494300362,-2,-1,-1,-1,-2,-1,-3,1
1532494300367,3,1,1,0,0,0,-3,0
1532494300372,-4,0,0,1,0,0,-2,0
1532494300377,-1,0,-3,-1,0,2,11,0
1532494300382,-1,0,-1,2,0,0,-6,5
1532494300387,-1,-2,-3,-1,-1,0,9,-2
1532494300392,-2,-1,-1,-1,-1,-3,-15,-3
1532494300397,1,2,1,0,0,1,10,5
1532494300402,-1,-1,-2,-2,-2,0,1,-1
1532494300407,0,0,-1,-1,-2,-1,-8,0
1532494300412,0,-1,0,0,1,3,4,-2
1532494300417,0,-2,-2,0,0,-1,-5,-3
1532494300422,0,0,0,0,0,1,3,1
1532494300427,-1,-1,-2,0,0,-2,-1,-4
1532494300432,1,-1,-2,-2,-2,-3,7,1
1532494300437,-1,-2,-1,-2,-2,-1,-6,-1
1532494300442,-2,-2,0,-1,-1,-2,-8,-4
1532494300447,-1,0,0,1,0,-1,3,-1
1532494300452,-1,1,0,0,-1,0,0,1
1532494300457,0,-1,-1,-2,-1,-1,-4,-2
1532494300462,-2,-2,-1,-1,-2,-4,-12,-5
1532494300467,-2,-2,-1,-1,-1,0,10,1
1532494300472,-3,-1,-1,-1,-3,-4,-29,-7
1532494300477,0,1,0,1,2,-2,17,3
1532494300482,2,0,-1,-2,-1,0,-4,0
1532494300487,-2,0,-1,0,-2,-1,-1,-2
1532494300492,-2,0,0,0,0,2,5,0
1532494300497,-3,-3,-2,-1,-2,1,-11,-5
1532494300502,-1,-1,-1,-2,-1,0,0,-3
1532494300507,-1,-2,-1,-1,1,-1,1,1
1532494300512,1,-1,1,-1,-2,-2,-5,-1
1532494300517,0,1,1,-1,-2,1,10,3
1532494300522,-2,1,-1,1,1,0,-2,-1
1532494300527,-1,-2,-2,1,-1,1,-4,1
1532494300532,-1,-2,-1,-2,-2,-1,7,-1
1532494300537,-1,-1,0,-1,0,-2,-9,-3
1532494300542,1,-2,-2,0,0,3,0,0
1532494300547,0,-1,-1,-1,0,-2,1,-2
1532494300552,-1,-1,0,2,1,0,5,4
1532494300557,-3,-2,-1,0,-1,-3,-13,-3
1532494300562,-1,0,1,-1,-1,1,18,4
1532494300567,-1,0,-1,-1,0,1,-3,-3
1532494300572,0,-1,-1,-2,-3,-2,7,1
1532494300577,1,-1,-1,-1,-2,-4,-15,0
1532494300582,0,0,3,1,-1,1,7,0
1532494300587,-1,0,-1,1,-1,-1,1,-2
1532494300592,-1,1,0,0,1,0,2,0
1532494300597,-2,-2,-1,-1,-1,0,-7,-5
1532494300602,-1,-2,-1,-2,-2,-2,-5,0
1532494300607,0,0,0,-1,-3,0,-3,-1
1532494300612,1,-2,-1,0,0,0,2,-1
1532494300617,1,0,-1,0,-1,0,4,2
1532494300622,0,-1,0,-1,0,-1,0,-2
1532494300627,0,0,-1,-2,-1,-2,-2,0
1532494300632,-2,-1,-1,0,-2,-1,-3,-4
1532494300637,-2,-2,-1,-2,-1,-2,0,0
1532494300642,1,0,0,0,-2,0,12,1
1532494300647,0,-2,1,-1,0,-4,-1,-2
1532494300652,-1,0,-2,0,0,0,-2,0
1532494300657,-1,0,-1,-2,-1,1,10,1
1532494300662,-2,-4,-2,-2,-2,-6,-21,-5
1532494300667,1,-1,0,-1,0,0,6,1
1532494300672,1,0,-2,-1,1,0,-1,-2
1532494300677,-2,-1,0,-1,-1,-2,-2,-1
1532494300682,-2,0,-2,0,-1,1,-3,-2
1532494300687,-1,0,-1,-1,-1,2,5,2
1532494300692,-1,0,0,-3,-1,-1,-1,-2
1532494300697,0,1,-1,-2,-2,-3,1,2
1532494300702,-1,-1,0,0,0,-3,-5,-2
1532494300707,-1,-1,0,0,0,2,7,1
1532494300712,-2,-1,0,0,-1,1,10,1
1532494300717,-1,-1,-1,1,0,0,-30,-6
1532494300722,-2,-1,-1,-1,1,1,27,1
1532494300727,0,0,-2,-2,-2,-2,-18,-5
1532494300732,1,0,-1,0,-2,-2,0,2
1532494300737,-1,-2,-2,-2,-1,1,2,-2
1532494300742,1,-1,-1,1,-1,-2,-11,0
1532494300747,-1,-1,-1,0,1,1,3,3
1532494300752,-2,-2,0,-1,-1,0,2,-2
1532494300757,0,-1,0,1,0,-1,2,0
1532494300762,-1,0,0,-1,-2,2,-1,1
1532494300767,0,0,-1,-1,-1,0,4,-1
1532494300772,0,-1,0,0,1,-1,-3,-3
1532494300777,0,0,0,0,0,0,7,2
1532494300782,1,0,-2,-4,-1,-1,4,4
1532494300787,-2,-1,-1,0,0,-3,-12,-3
1532494300792,-1,-1,-1,0,-1,-1,-1,-2
1532494300797,-2,0,-1,-1,-1,-1,-18,-2
1532494300802,0,-2,-2,-2,-2,-3,10,-3
1532494300807,-2,-2,-2,-1,-1,-1,-11,-5
1532494300812,-1,0,0,1,1,0,5,3
1532494300817,-1,-2,-1,-2,-2,-1,6,-2
1532494300822,-2,0,-1,2,-1,-3,-8,-1
1532494300827,-1,-1,1,1,0,0,-7,-3
1532494300832,-2,-2,-1,-2,-2,-1,4,1
1532494300837,0,0,-1,-1,0,-1,4,0
1532494300842,0,-1,2,1,0,2,-2,0
1532494300847,-1,-1,0,-2,-5,-4,5,-3
1532494300852,0,-1,-2,1,-2,-1,-5,-1
1532494300857,-2,0,-2,0,-1,-2,3,-2
1532494300862,0,-2,-2,-1,-1,0,-3,-1
1532494300867,-2,0,0,-1,-3,-4,-3,-3
1532494300872,-1,-1,-1,-3,-2,-2,1,3
1532494300877,-1,-1,0,0,0,-2,-24,-4
1532494300882,-1,0,0,-1,1,2,19,-2
1532494300887,3,-1,-2,0,1,2,4,8
1532494300892,-1,0,-2,-1,0,-2,-6,-3
1532494300897,-2,-2,0,-2,-1,-1,8,1
1532494300902,-4,0,-2,0,-3,-4,-12,-5
1532494300907,-1,-1,-2,-2,0,2,0,-1
1532494300912,2,0,0,-1,1,0,9,4
1532494300917,-1,-3,-1,0,-1,-2,4,1
1532494300922,-2,-1,-2,-1,-1,-2,-8,-1
1532494300927,-2,-1,0,-1,0,-1,3,-3
1532494300932,0,-1,-2,0,-1,0,1,1
1532494300937,0,-1,-1,-1,0,0,6,-2
1532494300942,0,0,1,0,2,1,-6,0
1532494300947,0,-1,-3,0,1,-1,0,1
1532494300952,-1,0,0,-1,-1,-1,-4,-3
1532494300957,-1,-1,0,-1,-1,-1,0,-4
1532494300962,0,0,-1,-1,-1,-1,-13,0
1532494300967,0,1,0,1,1,-1,11,-1
1532494300972,-1,-1,0,-1,-2,-3,-2,-2
1532494300977,1,0,-2,-1,0,0,5,-1
1532494300982,-1,-1,-1,-1,-1,-3,-8,0
1532494300987,-2,0,1,-2,-2,-1,-1,1
1532494300992,-1,-2,-2,-1,0,-1,-4,-3
1532494300997,-1,0,-1,-1,-1,0,1,3
1532494301002,0,-1,0,1,0,1,2,-3
1532494301007,0,-1,-1,0,-1,-2,1,2
1532494301012,0,-2,0,-1,-2,0,-4,-4
1532494301017,-1,0,-1,-2,0,-1,-2,1
1532494301022,-1,0,-1,-1,1,0,-3,-2
1532494301027,1,0,-1,-1,-2,0,6,3
1532494301032,0,-1,-1,-1,0,-1,4,2
1532494301037,0,-1,-1,-1,-2,0,1,1
1532494301042,-1,-1,-2,-2,-2,-1,-3,-1
1532494301047,-2,-1,-1,-1,-1,-2,-13,-3
1532494301052,-2,-1,-1,-1,0,1,13,-1
1532494301057,0,0,0,0,-1,0,7,0
1532494301062,0,0,1,1,-1,0,2,1
1532494301067,-2,-1,-1,-2,-1,-1,-7,-1
1532494301072,-1,-1,0,-2,1,-1,-9,-3
1532494301077,-1,-1,-2,0,0,-1,6,0
1532494301082,0,-1,-1,-1,-2,-1,-14,-2
1532494301087,-1,-1,1,-1,0,1,12,0
1532494301092,0,-1,-1,0,-2,0,-1,-3
1532494301097,-1,-1,0,-3,0,0,-5,-2
1532494301102,2,-1,-1,-1,-2,0,4,0
1532494301107,-1,-1,-2,-2,-2,-4,-10,-3
1532494301112,0,0,0,-1,-2,-2,-3,-1
1532494301117,-1,0,-3,1,-1,-1,2,-1
1532494301122,0,0,-1,-1,1,0,5,3
1532494301127,-1,-1,0,-2,-1,0,2,2
1532494301132,-1,-2,-1,0,-1,-2,-7,1
1532494301137,0,-1,1,-1,-1,2,4,-1
1532494301142,-1,0,0,-1,-1,-1,2,-1
1532494301147,0,0,1,-2,-1,0,6,-2
1532494301152,-1,1,-1,-1,-1,-2,-10,-1
1532494301157,-2,0,0,0,-1,1,5,-1
1532494301162,0,-2,-1,-2,-1,-2,-1,0
1532494301167,1,-2,-2,0,-2,0,2,-1
1532494301172,-3,-1,0,0,1,0,-4,1
1532494301177,1,0,0,-1,-1,-1,1,-1
1532494301182,-2,0,0,0,-3,-2,3,0
1532494301187,-1,0,-1,-1,-1,0,-5,-1
1532494301192,-1,-1,0,0,-1,0,2,0
1532494301197,-1,-1,-2,-2,-2,0,-3,0
1532494301202,0,0,-1,1,2,-1,-1,-1
1532494301207,-1,-1,-1,1,0,1,5,2
1532494301212,-2,1,-1,-2,1,0,-3,-6
1532494301217,-2,-2,0,0,-1,-1,-5,1
1532494301222,-1,0,-1,-1,-2,-2,6,-5
1532494301227,-2,-1,-1,-1,-2,-2,-3,0
1532494301232,1,0,0,0,0,1,0,-1
1532494301237,-1,0,-1,-1,0,-2,-3,0
1532494301242,-1,-2,-1,-1,-2,-1,-2,-1
1532494301247,0,-1,-2,0,0,1,-4,-2
1532494301252,-1,-2,-1,-1,-1,-2,4,0
1532494301257,-2,-2,-1,-2,0,1,-2,-4
1532494301262,-1,-1,-1,0,-1,-2,1,-1
1532494301267,-1,-1,1,0,0,0,0,1
1532494301272,-2,-1,-2,-2,-2,-4,-7,-3
1532494301277,-1,-1,-1,-2,-2,-1,3,-2
1532494301282,0,0,-1,-2,0,0,-3,1
1532494301287,-2,-2,-1,-2,0,-3,-6,-5
1532494301292,0,-1,-2,0,1,2,6,2
1532494301297,-2,-2,-2,1,0,-1,-7,-4
1532494301302,-1,-2,-1,-3,0,0,-15,-1
1532494301307,0,1,0,-1,0,-2,16,-1
1532494301312,-1,-2,-2,-1,-2,0,0,2
1532494301317,-1,1,0,0,-1,0,2,1
1532494301322,2,-2,-3,-1,-1,2,3,0
1532494301327,-1,-2,0,1,-1,-4,-12,-3
1532494301332,0,0,-1,0,1,2,0,-2
1532494301337,0,-1,-2,1,-1,0,2,0
1532494301342,-2,1,-1,0,-1,-1,-4,-5
1532494301347,0,-1,-2,0,0,2,15,0
1532494301352,-1,-1,-1,-1,-2,0,-6,-3
1532494301357,0,-2,0,-1,-2,0,-3,0
1532494301362,-1,0,-1,0,-1,-1,-2,-3
1532494301367,-1,0,-1,0,0,-2,-5,1
1532494301372,-1,-1,0,0,0,0,-1,1
1532494301377,1,0,0,0,-3,-2,5,2
1532494301382,-1,-1,0,0,1,1,3,-1
1532494301387,-2,0,0,-1,0,0,-5,-3
1532494301392,0,-2,-2,-2,0,1,2,1
1532494301397,-1,-1,-1,0,0,-1,-2,1
1532494301402,-1,-2,-2,0,-2,-1,9,0
1532494301407,-2,-2,1,-2,-1,-2,-2,0
1532494301412,1,0,2,1,1,2,9,3
1532494301417,-2,0,-2,-2,-1,-2,-1,-5
1532494301422,-2,0,0,-1,-1,-2,-8,-3
1532494301427,0,-1,-3,-3,-2,1,-4,0
1532494301432,-1,-1,0,-1,-2,-2,2,-1
1532494301437,-1,0,-1,0,-1,-2,-4,0
1532494301442,0,-2,0,-1,-1,0,-1,0
1532494301447,-1,-1,-1,0,-2,0,-2,-1
1532494301452,-2,0,-1,-1,-1,-2,1,-3
1532494301457,1,-2,-1,1,2,0,-1,-2
1532494301462,1,-1,0,-1,-1,1,2,-1
1532494301467,0,-1,-1,-1,-1,0,1,-3
1532494301472,0,0,0,1,-3,-1,1,-1
1532494301477,-2,-2,-1,-3,-2,-4,-10,-5
1532494301482,-2,0,1,-2,-2,0,4,4
1532494301487,1,0,0,0,1,1,-4,0
1532494301492,0,-1,-2,-2,-2,0,0,-1
1532494301497,0,-1,0,0,-1,0,0,0
1532494301502,-1,-1,-2,-1,-2,0,4,-1
1532494301507,-2,-1,-1,-2,-3,-2,-4,-2
1532494301512,-2,-1,-1,-2,-2,-3,-8,-3
1532494301517,-1,-2,-1,-2,0,1,16,3
1532494301522,-1,-1,-2,-1,0,-2,-10,-2
1532494301527,-1,1,-1,0,-2,-1,4,1
1532494301532,-1,-1,-2,-1,-1,3,-6,-2
1532494301537,0,-1,0,0,-2,0,-4,-1
1532494301542,-2,-3,0,0,-1,0,7,-3
1532494301547,0,-1,0,1,1,-2,-7,1
1532494301552,-1,-1,-1,-1,0,-2,1,-2
1532494301557,-1,0,-1,0,-1,1,-1,2
1532494301562,-1,0,0,0,0,0,0,-1
1532494301567,1,-1,0,-1,0,0,2,-2
1532494301572,0,0,-2,-2,-2,-2,-7,0
1532494301577,-1,-1,-2,-1,-2,2,-3,-3
1532494301582,0,-2,-1,-2,0,1,1,2
1532494301587,-1,-2,0,0,-1,-2,2,-1
1532494301592,0,0,-1,-1,-1,-1,-3,-2
1532494301597,-1,0,-1,0,0,-3,-2,-1
1532494301602,-1,0,-1,1,1,-1,-1,-1
1532494301607,1,1,-2,0,0,2,-7,-1
1532494301612,-1,-1,0,0,1,3,10,-1
1532494301617,2,0,1,-1,0,1,-6,4
1532494301622,-1,0,-1,0,0,0,10,0
1532494301627,0,-3,0,0,-3,0,-1,0
1532494301632,-1,0,-2,-2,-2,-1,1,2
1532494301637,-4,-2,-2,-1,-2,-2,-9,-6
1532494301642,1,-1,0,-1,-1,-1,4,5
1532494301647,-2,-1,-1,-2,1,-2,-6,-4
1532494301652,0,-3,0,-1,0,0,-1,-1
1532494301657,-2,-1,-1,-3,0,1,6,-2
1532494301662,-1,0,-2,-2,-1,1,-7,0
1532494301667,-1,-2,-1,-1,-3,-1,7,-2
1532494301672,-1,-3,-1,0,-1,-6,1,2
1532494301677,0,-1,1,0,0,-1,-2,-2
1532494301682,1,1,1,1,1,3,7,4
1532494301687,-1,-2,-1,-4,-1,0,-4,-1
1532494301692,0,0,0,0,0,-3,-5,0
1532494301697,0,0,-1,-1,0,1,14,2
1532494301702,-2,-1,0,-2,0,-4,-8,-6
1532494301707,-1,0,-3,0,-1,-1,2,0
1532494301712,-1,-1,1,-1,-1,-1,-5,-2
1532494301717,-1,-3,-1,-1,-1,-1,-1,1
1532494301722,-1,-2,-1,-1,-1,0,-5,-4
1532494301727,0,-1,-1,-1,0,1,-1,-2
1532494301732,-1,-2,0,0,-1,-4,-10,-4
1532494301737,-1,-1,0,0,-2,-2,3,-3
1532494301742,1,-1,-1,-2,0,0,-5,-2
1532494301747,-1,0,0,-2,-2,-1,-1,0
1532494301752,-1,0,0,-1,-1,-2,-5,-2
1532494301757,-1,-1,0,2,0,0,1,2
1532494301762,0,-2,-1,-1,1,-1,1,1
1532494301767,-2,0,-1,-2,0,0,0,-1
1532494301772,0,-2,-2,0,-2,-1,0,0
1532494301777,-1,-1,-2,0,2,-4,-20,-5
1532494301782,-1,0,0,0,-2,2,19,-3
1532494301787,-1,0,0,2,1,-1,-2,1
1532494301792,-2,0,0,-2,1,1,6,-3
1532494301797,-1,-1,-2,1,1,-1,2,1
1532494301802,-1,-1,-2,-1,-3,-5,-18,-5
1532494301807,1,-1,0,1,1,0,-3,0
1532494301812,0,0,-1,1,1,1,3,0
1532494301817,1,-1,0,-3,-2,3,5,2
1532494301822,-1,-1,1,-3,0,0,-2,2
1532494301827,-2,-1,-2,-2,-1,-2,-1,-3
1532494301832,-1,-1,-1,-2,-1,0,2,-2
1532494301837,0,0,0,1,0,1,-5,0
1532494301842,-1,-1,-1,0,-1,-2,2,2
1532494301847,1,0,0,-1,-3,-1,0,0
1532494301852,0,-1,-1,-1,-2,0,-7,3
1532494301857,0,0,-2,-3,-3,0,6,0
1532494301862,-1,0,1,0,0,0,-4,-1
1532494301867,-3,-3,0,-1,1,-2,9,-2
1532494301872,-1,0,-3,-1,0,0,-1,6
1532494301877,1,-1,1,1,-1,0,-1,-2
1532494301882,-3,-2,-1,-1,-1,-3,-7,-4
1532494301887,-1,-1,0,-1,-1,-2,-6,-3
1532494301892,-1,-1,-2,0,-2,0,1,0
1532494301897,-3,-2,-1,-3,-1,-3,-1,-1
1532494301902,-1,0,-1,0,0,-1,-3,-1
1532494301907,-1,0,0,-1,0,0,2,0
1532494301912,0,-2,1,-1,-1,-1,1,-4
1532494301917,-1,0,-2,-1,0,0,3,2
1532494301922,-1,-2,1,-2,1,-1,-4,-4
1532494301927,-1,0,-2,0,-1,1,5,0
1532494301932,2,0,-1,0,1,-2,0,0
1532494301937,-3,0,-2,0,-1,-3,-27,-4
1532494301942,-2,-2,0,1,0,3,20,-1
1532494301947,0,0,-2,0,-2,0,-2,1
1532494301952,-3,-1,-1,-2,-1,-2,0,-1
1532494301957,-1,-1,0,-2,-2,-3,-3,-4
1532494301962,0,2,-2,-2,-1,0,-3,-2
1532494301967,0,-2,-3,-1,-2,-2,-5,-1
1532494301972,-2,-1,0,1,0,2,1,-1
1532494301977,0,-1,0,-2,-1,-2,3,0
1532494301982,1,0,-2,-1,-1,-1,-1,0
1532494301987,0,-1,-1,0,1,-1,1,-1
1532494301992,-1,-2,-4,-1,-4,-5,-10,-1
1532494301997,0,-3,-1,0,0,3,7,-1
1532494302002,-2,0,-2,0,-2,-1,-1,-1
1532494302007,0,0,0,0,1,1,-4,1
1532494302012,0,-2,-1,0,0,0,0,-1
1532494302017,0,0,-2,-1,-1,-1,5,-2
1532494302022,-1,0,-1,-2,0,0,-22,2
1532494302027,-1,0,-2,-1,-1,0,16,0
1532494302032,-1,-1,1,-1,-1,-1,0,-3
1532494302037,1,0,-1,1,1,-2,8,3
1532494302042,-2,0,-1,-3,-1,-2,0,-2
1532494302047,0,-1,0,-2,-2,-1,-8,-2
1532494302052,0,0,-1,1,1,1,-7,-2
1532494302057,-1,-1,0,-2,-1,1,13,-1
1532494302062,0,-1,1,1,0,0,-9,-1
1532494302067,0,-1,-2,-1,-3,-4,-4,0
1532494302072,-2,-1,-1,-1,0,0,6,-2
1532494302077,-2,-1,0,-1,1,-2,-10,-1
1532494302082,0,-2,-1,-2,-2,-3,6,1
1532494302087,-1,-2,-2,0,-1,1,1,-3
1532494302092,1,-1,-1,1,0,0,-3,2
1532494302097,-1,0,-1,0,-1,-3,-3,-1
1532494302102,0,-1,1,0,-1,0,-14,0
1532494302107,0,-1,-1,1,1,0,15,-2
1532494302112,-2,0,-1,-2,-2,-3,0,-3
1532494302117,0,-1,0,0,0,1,3,1
1532494302122,0,-2,-2,-2,-1,-3,-2,-1
1532494302127,-2,0,-1,0,-1,-3,-15,-5
1532494302132,1,-1,0,1,0,0,5,3
1532494302137,-2,-1,-1,-1,0,0,2,-1
1532494302142,0,-3,-2,-1,1,0,2,-1
1532494302147,-2,-1,0,-1,-2,-2,-7,-2
1532494302152,-1,-2,-1,-2,-1,0,6,0
1532494302157,-1,-1,-2,-2,-2,-2,-6,-2
1532494302162,-2,-1,1,0,0,0,4,0
1532494302167,-1,0,-1,-1,1,2,9,2
1532494302172,-4,-1,-2,-2,-1,-2,-7,-5
1532494302177,-1,0,-1,0,-1,-1,2,-1
1532494302182,0,-1,-2,-1,-2,1,7,-1
1532494302187,-2,-2,0,0,-2,-2,-7,2
1532494302192,0,-1,-1,0,1,-1,0,-1
1532494302197,1,0,-2,-1,-1,-3,-6,-3
1532494302202,-2,-1,0,-2,-3,-2,3,0
1532494302207,0,0,0,-1,1,3,2,1
1532494302212,-2,-1,-1,-1,0,-3,-5,-2
1532494302217,-1,-3,-1,-1,-1,0,0,-2
1532494302222,-1,0,-3,0,-3,-4,1,-3
1532494302227,-1,-2,0,-3,-2,-3,-9,-1
1532494302232,-1,0,0,-1,0,0,5,-1
1532494302237,-3,-2,-1,0,0,-1,-8,-2
1532494302242,0,-1,-3,-1,-1,0,0,-1
1532494302247,0,0,-1,-2,-2,-4,-7,-5
1532494302252,0,-1,-2,-1,-1,-1,-22,-3
1532494302257,0,1,-1,0,0,1,22,4
1532494302262,-1,-1,0,-1,1,-1,-5,-1
1532494302267,-2,0,-3,0,-1,-5,-4,-2
1532494302272,0,-1,-1,1,0,1,1,-3
1532494302277,0,-1,-1,-2,0,0,-3,1
1532494302282,-2,-2,-1,0,-3,-3,-3,-5
1532494302287,1,-1,-1,1,0,2,4,5
1532494302292,-1,-2,-1,0,-2,0,8,0
1532494302297,0,-1,1,-1,-2,-3,-12,-4
1532494302302,-2,-1,0,-2,-1,1,7,-3
1532494302307,0,-2,0,-1,0,0,-2,-1
1532494302312,0,1,-2,-1,-1,-1,8,6
1532494302317,-1,0,-1,0,-1,1,3,3
1532494302322,-3,-1,0,-1,0,-4,-12,-4
1532494302327,0,-1,-1,-1,-2,-2,5,-5
1532494302332,0,1,1,-1,0,0,7,0
1532494302337,1,-1,0,1,1,2,4,1
1532494302342,-1,1,-2,2,0,1,4,1
1532494302347,-1,0,-1,-1,1,1,-7,-1
1532494302352,-2,-1,-1,1,0,-3,3,-4
1532494302357,-1,-1,0,0,-3,0,-7,0
1532494302362,-1,0,0,-1,-2,-1,-9,0
1532494302367,0,-3,-1,0,2,2,10,1
1532494302372,0,-2,-1,-1,0,1,-1,2
1532494302377,-2,-1,-1,-2,0,-2,-2,-4
1532494302382,0,-1,0,-1,1,0,2,-1
1532494302387,1,-1,-1,0,-1,-1,-2,1
1532494302392,-1,-2,-2,0,-1,0,1,-3
1532494302397,-2,0,-2,0,0,-2,-5,-1
1532494302402,-2,-1,-1,-2,-1,-2,2,2
1532494302407,-3,0,0,-3,-1,-2,6,-5
1532494302412,-1,-2,-2,-1,1,2,-1,-5
1532494302417,-1,-1,0,-1,-1,-2,-3,2
1532494302422,0,-1,0,0,-1,1,1,1
1532494302427,-1,-1,-2,0,-3,-2,-12,-2
1532494302432,0,0,0,-3,-4,1,3,1
1532494302437,-2,-1,-1,-1,-2,-1,-1,0
1532494302442,0,0,-1,0,0,1,3,-1
1532494302447,-2,-2,0,-1,-2,-3,-6,-3
1532494302452,1,-1,-1,0,-2,-1,0,5
1532494302457,0,-3,0,-1,-1,-3,-1,-1
1532494302462,-2,-1,-1,1,-3,-3,-3,-4
1532494302467,1,0,-1,-1,1,1,2,4
1532494302472,-2,-1,-1,-1,-2,-2,-1,-3
1532494302477,0,1,-1,0,1,2,-7,-1
1532494302482,-1,-2,-2,-1,-3,-1,1,-1
1532494302487,-2,-1,-1,-2,-2,-4,-8,-1
1532494302492,0,-1,0,-1,1,0,6,-4
1532494302497,0,-3,-1,-2,-1,0,6,1
1532494302502,0,-1,-1,1,-1,-3,-3,-4
1532494302507,-1,-1,-2,-1,-1,0,-1,-1
1532494302512,-1,-1,-1,0,-2,-2,-7,-1
1532494302517,-1,-2,-1,-2,0,0,-2,-4
1532494302522,-1,0,-1,-1,0,1,4,0
1532494302527,0,-1,0,0,0,0,0,0
1532494302532,-1,-1,-1,0,-1,0,-2,2
1532494302537,-1,-1,-1,-1,1,0,6,-3
1532494302542,1,-2,-2,0,0,1,-13,-3
1532494302547,-1,-2,-1,-2,1,0,5,4
1532494302552,0,-2,0,-2,-2,-1,-6,3
1532494302557,-1,0,-2,-2,-2,-4,-1,-4
1532494302562,-1,-1,-1,-1,0,0,4,0
1532494302567,-1,-2,-1,2,-1,-1,-3,-1
1532494302572,-1,-2,-1,0,1,0,-3,-1
1532494302577,-1,0,0,0,-1,-1,1,2
1532494302582,-1,1,0,0,0,-4,1,0
1532494302587,-2,-2,-1,0,-3,0,-1,-4
1532494302592,1,-2,-1,0,-1,-2,0,-3
1532494302597,-2,-1,0,0,-2,0,-6,-2
1532494302602,1,-2,-2,2,-2,1,4,2
1532494302607,0,2,-2,-3,0,2,-7,-1
1532494302612,0,0,0,-1,0,-1,11,0
1532494302617,0,-1,-2,0,0,-2,-11,-3
1532494302622,2,0,0,-2,-1,-1,6,1
1532494302627,-1,-2,0,-1,-1,2,1,-2
1532494302632,0,1,-1,0,1,0,-5,3
1532494302637,1,-2,-1,-2,1,-1,2,1
1532494302642,-2,0,-1,-1,-1,1,-2,1
1532494302647,0,-3,-1,0,0,-1,2,-2
1532494302652,-1,0,-1,-1,-2,-2,-3,-3
1532494302657,-2,0,-1,0,-1,-3,4,1
1532494302662,-1,-1,-1,0,0,1,-1,-1
1532494302667,1,-1,-1,-2,-4,-6,-3,-2
1532494302672,0,-1,0,0,-1,0,-5,-2
1532494302677,-3,-1,-1,-1,-2,-1,2,-1
1532494302682,-2,-2,0,1,0,-2,-15,-5
1532494302687,-2,1,0,0,0,2,11,-1
1532494302692,-2,0,0,0,-1,-1,-4,-4
1532494302697,1,0,1,0,1,1,10,2
1532494302702,-1,0,-1,-1,-1,0,0,1
1532494302707,0,-1,-1,0,1,-1,0,1
1532494302712,-1,0,-1,-1,0,-2,-5,1
1532494302717,-2,0,-1,-1,-1,2,-4,-2
1532494302722,-3,-1,-1,-2,1,0,-1,-4
1532494302727,1,0,1,1,-1,-2,-4,-1
1532494302732,-1,-2,-2,-1,0,-1,0,-3
1532494302737,0,-1,-2,-2,-1,-1,-2,0
1532494302742,-2,-1,0,-2,-2,-1,1,0
1532494302747,-2,0,0,0,-1,-1,-7,-2
1532494302752,-1,-2,-2,-2,-1,-2,-9,-1
1532494302757,1,1,1,-2,-1,2,2,-1
1532494302762,1,0,-1,0,-3,0,4,0
1532494302767,0,1,-1,0,2,1,1,2
1532494302772,-1,-1,-2,-1,-2,-2,-2,0
1532494302777,0,-2,-2,-2,-2,-4,-3,-2
1532494302782,0,0,-1,0,-1,0,0,-1
1532494302787,0,-2,0,0,-1,2,1,1
1532494302792,0,-1,1,-1,-1,-1,-5,-2
1532494302797,0,-1,0,-2,-1,-1,2,1
1532494302802,0,0,-2,0,-1,0,9,5
1532494302807,0,0,1,1,0,-1,-7,-2
1532494302812,-2,-1,0,-1,-1,-1,-2,-1
1532494302817,-3,-1,0,0,0,0,0,-2
1532494302822,-1,-1,0,-2,-1,-2,-4,-2
1532494302827,-3,-1,-2,-2,-1,0,6,-1
1532494302832,0,0,-1,0,-1,0,0,-2
1532494302837,-2,0,0,-1,0,-2,-10,-1
1532494302842,1,0,-2,0,-1,0,6,3
1532494302847,-1,1,-3,-1,-2,0,0,0
1532494302852,-2,1,-1,0,-1,-1,3,-1
1532494302857,0,-3,-2,1,1,0,3,-1
1532494302862,-1,-2,-1,0,-1,-2,-7,-2
1532494302867,0,-2,-1,-2,-1,-2,-4,-2
1532494302872,1,-1,0,-1,-1,-1,1,-1
1532494302877,1,0,0,-1,-3,-1,-1,0
1532494302882,0,0,1,-2,0,0,2,-3
1532494302887,1,-2,0,-1,0,0,9,6
1532494302892,-3,0,-2,0,1,-2,0,-1
1532494302897,-2,-1,0,-2,-1,0,-1,-2
1532494302902,0,0,-1,-1,-1,1,-3,-1
1532494302907,-1,0,-1,-1,-2,-2,-5,-4
1532494302912,1,-2,-1,-1,-1,1,9,2
1532494302917,0,-1,-1,-1,-1,0,-5,-1
1532494302922,-1,-1,0,-1,-1,-1,-1,0
1532494302927,0,-1,0,0,0,1,3,0
1532494302932,-2,-3,2,1,-3,-2,-4,-3
1532494302937,1,0,-4,0,1,-2,-4,-2
1532494302942,-1,-1,0,-3,-2,-2,1,1
1532494302947,0,0,-1,-1,1,0,1,-1
1532494302952,-1,-1,-3,-1,0,1,-1,-1
1532494302957,-2,-1,-1,0,0,-1,-4,1
1532494302962,0,-1,-2,1,0,0,9,-1
1532494302967,-1,-3,-2,0,-3,1,0,1
1532494302972,-1,-1,0,0,1,-2,-4,-3
1532494302977,-1,-2,-2,0,-1,1,0,-3
1532494302982,1,-2,-1,0,0,0,-5,3
1532494302987,-1,-2,0,0,-2,-1,-14,-5
1532494302992,2,-1,-1,-1,0,0,16,-4
1532494302997,-1,0,-1,-1,-3,-3,1,1
1532494303002,0,0,0,0,0,1,-4,-2
1532494303007,-1,-1,-1,0,-2,-1,4,0
1532494303012,0,-3,0,-1,0,-1,-8,0
1532494303017,1,-1,0,0,-1,-2,-1,-2
1532494303022,-3,-1,-3,-2,-1,-1,4,-1
1532494303027,-1,-1,-1,-2,-1,-2,-2,0
1532494303032,-1,1,-1,0,0,0,-2,0
1532494303037,-1,1,-1,0,-2,-1,0,-1
1532494303042,-1,-2,-3,-2,-3,-3,-7,1
1532494303047,0,-1,0,1,0,0,5,-1
1532494303052,-2,-1,-1,-1,-3,0,7,1
1532494303057,-1,-1,-1,-1,0,0,-15,-3
1532494303062,-1,0,0,-2,-1,0,-2,0
1532494303067,-1,1,-1,-1,-2,-2,2,-1
1532494303072,-1,1,0,0,-2,-3,-5,-3
1532494303077,-1,0,0,-1,-1,-1,3,1
1532494303082,-1,-2,0,1,-1,-1,-1,-5
1532494303087,-1,-2,0,-1,0,1,-17,-3
1532494303092,0,0,-1,-1,0,2,18,0
1532494303097,0,-1,-2,-3,-1,1,-1,0
1532494303102,-1,0,-1,0,0,-1,8,0
1532494303107,-2,-1,-2,-1,0,-2,2,-3
1532494303112,1,-1,-1,-1,-1,0,-7,1
1532494303117,-1,-1,0,1,1,-1,-1,-2
1532494303122,-1,-2,0,-1,-2,1,0,0
1532494303127,-1,0,-2,-2,-2,-1,7,2
1532494303132,0,-1,0,1,1,-1,-14,-6
1532494303137,-2,-2,0,-2,-1,1,5,1
1532494303142,-1,-1,-2,-2,-1,-2,-8,-1
1532494303147,0,0,1,2,-1,-1,1,1
1532494303152,0,-4,0,-2,-2,-2,0,0
1532494303157,-1,-1,-1,0,-1,-3,-7,-3
1532494303162,-1,1,0,0,0,2,10,3
1532494303167,-1,-2,0,-1,-1,-2,1,1
1532494303172,-1,0,-2,0,-2,-1,4,2
1532494303177,-1,0,-1,1,-1,-2,-11,-2
1532494303182,0,0,1,-2,0,-1,-3,-2
1532494303187,-1,-2,-2,-2,-1,-2,-2,-3
1532494303192,-2,0,-1,-1,1,2,1,0
1532494303197,0,-2,-1,-1,-2,-2,1,-1
1532494303202,0,0,-1,-1,0,0,4,-5
1532494303207,-2,0,0,-1,0,-1,0,-1
1532494303212,0,-3,-2,-2,-3,-1,-5,-3
1532494303217,0,0,-1,-1,0,1,4,2
1532494303222,2,-1,0,-1,0,-1,-12,-1
1532494303227,-2,-2,0,0,-1,-2,-3,-2
1532494303232,-2,0,-1,-1,0,-3,1,2
1532494303237,-1,-1,0,0,0,2,5,-2
1532494303242,-3,0,-1,0,-2,-5,-13,-3
1532494303247,1,-1,1,-1,-1,0,3,3
1532494303252,0,0,-2,-1,-1,1,-3,1
1532494303257,1,0,-1,-2,-1,-2,8,2
1532494303262,0,0,0,-1,0,1,3,4
1532494303267,0,-1,-1,-1,-1,0,0,-3
1532494303272,-2,0,0,-1,-1,-2,-8,-2
1532494303277,1,-1,-1,0,-3,-2,1,-1
1532494303282,-1,-2,1,-3,-2,-1,5,-2
1532494303287,-1,-2,-2,0,0,-2,-9,-3
1532494303292,-1,-2,-2,0,-2,-1,-3,-2
1532494303297,-2,-1,0,-1,-1,4,2,1
1532494303302,0,0,-2,-1,-1,-2,6,-2
1532494303307,-2,1,-1,0,-2,-1,-15,-3
1532494303312,0,-1,0,-1,-1,1,11,2
1532494303317,-2,-2,-2,-1,-1,-3,-4,-3
1532494303322,0,-1,-1,0,-1,-1,6,-1
1532494303327,0,-1,-1,-2,-1,2,13,0
1532494303332,0,1,0,-1,0,-3,-21,-3
1532494303337,-1,-2,0,0,-1,-2,-1,-3
1532494303342,-1,-2,-1,2,-2,-2,-5,0
1532494303347,-1,-1,0,-2,-1,-2,3,-3
1532494303352,0,-2,0,-2,-1,-1,5,2
1532494303357,0,1,0,0,1,-1,0,-2
1532494303362,0,1,-2,-1,0,0,-4,0
1532494303367,-2,-1,-1,0,-1,-2,2,1
1532494303372,-1,-1,1,-2,-1,-2,-4,-5
1532494303377,-4,-1,-1,-2,1,-3,-3,-1
1532494303382,-1,-1,-2,-1,-2,0,2,-3
1532494303387,-2,-1,-1,0,1,1,0,1
1532494303392,1,-2,0,0,0,-2,-4,0
1532494303397,0,0,-1,-1,0,-1,3,-1
1532494303402,-3,-2,-2,-3,1,-4,-5,-2
1532494303407,0,-1,1,-1,0,0,0,-3
1532494303412,-1,-1,-2,0,-1,-1,1,-1
1532494303417,1,1,1,-1,0,-1,-5,-1
1532494303422,-1,0,0,-1,-1,-1,1,1
1532494303427,0,-1,-1,-1,-1,0,-3,-1
1532494303432,-3,-2,-1,-2,-1,1,-7,-3
1532494303437,1,0,0,0,0,-1,15,5
1532494303442,-2,0,-1,-1,-2,-1,-8,-2
1532494303447,0,-2,-1,1,0,-1,-1,0
1532494303452,0,1,0,-1,0,1,10,-4
1532494303457,-1,-1,-2,-4,-4,-3,-2,1
1532494303462,-3,-2,-3,1,0,-3,-12,-3
1532494303467,-1,0,-1,1,-2,-3,3,1
1532494303472,-1,0,-3,1,0,-1,-5,-1
1532494303477,-2,-1,-2,2,0,0,1,1
1532494303482,0,1,0,-1,-1,-1,2,-4
1532494303487,0,0,0,-3,-2,0,-2,1
1532494303492,0,-1,0,-1,-1,-3,1,0
1532494303497,-1,-2,-3,0,1,-1,-4,-3
1532494303502,-1,-1,-1,-2,-1,-1,1,0
1532494303507,0,0,-1,-1,-1,-1,0,-1
1532494303512,0,-1,-2,0,-2,1,-1,2
1532494303517,-1,1,-1,0,-2,0,13,-1
1532494303522,1,-1,-2,-2,0,0,7,0
1532494303527,0,-1,-1,-2,-1,-1,-2,-2
1532494303532,1,-2,0,-1,-3,-3,-1,0
1532494303537,0,-1,-1,0,-1,-1,-15,-3
1532494303542,-1,-1,-1,-2,-2,-2,2,1
1532494303547,-1,0,-2,-1,0,0,4,1
1532494303552,0,0,-1,-1,0,2,-1,0
1532494303557,-1,-2,-1,-2,-1,-1,-1,-3
1532494303562,-1,-1,0,0,1,0,-4,1
1532494303567,-1,0,-2,0,-1,-2,1,0
1532494303572,-1,-2,-2,-3,-2,1,3,0
1532494303577,-1,0,-1,0,-1,0,-4,-3
1532494303582,0,0,-2,1,0,0,3,3
1532494303587,-1,0,-1,-1,0,-3,-1,-3
1532494303592,-1,1,-1,-1,1,-1,2,0
1532494303597,-1,-1,0,-1,-1,-1,1,0
1532494303602,0,-1,-3,-1,-2,-1,-2,-1
1532494303607,2,-3,1,0,-1,1,-11,-3
1532494303612,-1,0,0,-1,-1,0,16,1
1532494303617,-1,-2,0,-1,-1,-3,-8,2
1532494303622,0,1,0,-1,-1,0,1,-1
1532494303627,0,-2,-1,-1,1,0,-4,1
1532494303632,-1,0,-1,-1,-1,-1,-2,-1
1532494303637,-1,0,0,-1,-1,1,-1,-1
1532494303642,0,0,-1,1,0,1,-1,2
1532494303647,-3,-2,-1,-1,-1,-2,2,-1
1532494303652,0,-2,-1,-1,0,-1,-3,1
1532494303657,-1,-1,-1,0,0,-1,1,-2
1532494303662,-1,-2,0,-1,-1,-3,1,-1
1532494303667,-2,0,-2,-2,-1,-1,1,0
1532494303672,-1,0,-1,0,1,-1,-7,-2
1532494303677,0,-2,-2,0,-2,-4,-3,-3
1532494303682,-2,-2,0,-2,-3,0,7,0
1532494303687,-1,0,0,1,-1,-2,-10,-1
1532494303692,-1,0,1,2,-2,-1,-1,-1
1532494303697,-1,0,0,0,0,-2,1,-2
1532494303702,-1,0,-2,-1,-1,-1,-3,-2
1532494303707,0,-1,0,0,2,2,5,0
1532494303712,-1,-3,-3,-2,-1,-1,-5,0
1532494303717,0,0,-1,-1,0,-3,-12,0
1532494303722,1,0,-1,-1,1,0,6,-4
1532494303727,0,0,-1,0,-3,-1,-2,4
1532494303732,0,-1,0,0,0,-1,0,-3
1532494303737,0,-1,-2,-2,-2,1,1,1
1532494303742,-1,0,-1,0,-1,-1,-5,-3
1532494303747,-3,-1,-1,0,-1,-1,3,-3
1532494303752,-1,0,-1,-1,-1,-2,5,0
1532494303757,0,0,-2,-2,-2,-1,-3,-2
1532494303762,-2,-2,-3,-2,-1,-2,1,-2
1532494303767,0,-1,0,1,-1,1,-2,0
1532494303772,1,-1,0,1,-2,0,3,1
1532494303777,0,-2,-1,-2,0,-1,-8,-2
1532494303782,1,1,-1,-1,-1,-3,2,2
1532494303787,-1,0,-1,0,1,-1,4,1
1532494303792,0,-2,-2,-2,-3,0,-7,-3
1532494303797,0,1,0,-1,-1,-1,-4,-1
1532494303802,1,-1,1,-1,-2,0,1,-1
1532494303807,-1,-4,0,-1,-3,1,0,-3
1532494303812,-2,1,0,-1,-1,1,5,4
1532494303817,-1,-1,-1,1,-2,-2,3,1
1532494303822,-1,-2,-1,-1,-1,-1,-1,-3
1532494303827,0,1,0,-1,0,-1,-4,-3
1532494303832,-1,-3,-1,0,0,-1,-3,-3
1532494303837,0,-1,-2,-3,-2,-2,4,0
1532494303842,0,-1,-1,0,2,3,3,0
1532494303847,-1,0,-1,-1,-1,-2,-9,-2
1532494303852,0,1,-1,-2,-2,-2,1,-1
1532494303857,-1,-1,-1,-1,1,0,0,0
1532494303862,0,-2,-2,-2,-4,0,-1,1
1532494303867,-2,-1,-2,-2,-2,1,2,-1
1532494303872,0,-2,-2,-1,0,-1,-2,-1
1532494303877,-1,-2,0,-1,-1,-4,-3,-4
1532494303882,0,0,0,-1,-1,0,2,0
1532494303887,-1,-2,0,-1,0,-1,1,0
1532494303892,-1,0,-1,-2,0,-1,3,-1
1532494303897,-1,-1,7,0,-1,1,-9,-1
1532494303902,2,0,-10,0,-1,-2,-4,-1
1532494303907,-21,-3,-1,-2,-1,-2,4,-2
1532494303912,19,0,-2,-2,0,-1,-1,-1
1532494303917,-1,-3,-4,-3,-1,2,-8,-1
1532494303922,-3,1,5,0,-2,-8,-3,-2
1532494303927,10,2,-4,-1,-1,-3,0,1
1532494303932,-23,-7,3,1,2,3,-2,0
1532494303937,2,0,-6,-1,-2,1,3,0
1532494303942,4,-3,-2,-1,-1,-2,-4,-1
1532494303947,-4,2,-1,-1,-1,-3,-3,-3
1532494303952,-6,-8,2,-1,-1,2,-5,-3
1532494303957,0,-3,-7,0,-1,-5,15,1
1532494303962,-3,13,3,-1,0,16,-2,-2
1532494303967,-19,-3,-3,0,1,0,-2,-1
1532494303972,24,5,-3,-1,-2,-3,-2,1
1532494303977,-13,-7,2,-1,0,1,-6,1
1532494303982,12,-5,3,-1,-1,0,0,-2
1532494303987,-11,4,-27,-3,-1,-1,3,-1
1532494303992,-16,2,30,-1,-3,10,-11,-3
1532494303997,4,-9,15,-4,-4,-30,-7,-3
1532494304002,4,4,-21,0,3,14,8,4
1532494304007,7,-2,3,-4,-2,-2,3,2
1532494304012,-43,-17,-1,2,0,-6,-4,-5
1532494304017,2,10,-6,5,1,1,-2,1
1532494304022,34,14,13,2,2,-5,-28,-4
1532494304027,-13,-5,-8,0,0,-7,26,8
1532494304032,36,9,-8,0,-3,8,-13,1
1532494304037,-37,-9,6,-3,2,21,18,-2
1532494304042,-48,-27,-17,-4,-4,-13,-8,-4
1532494304047,62,17,38,1,1,5,-14,4
1532494304052,-19,-3,-12,-3,-3,-11,15,-11
1532494304057,27,5,-31,-2,-2,-27,12,20
1532494304062,-21,-2,33,1,0,35,16,2
1532494304067,-21,-8,2,2,-1,-26,-8,-2
1532494304072,17,11,2,-1,4,23,-8,0
1532494304077,1,-4,-3,-3,-2,8,-14,-19
1532494304082,6,10,-6,-2,0,-26,39,6
1532494304087,-4,-6,0,1,1,13,-6,6
1532494304092,-10,2,-3,-1,-2,-4,-11,11
1532494304097,-2,-2,-8,-1,-2,9,12,5
1532494304102,12,0,4,-3,-2,-10,-18,-5
1532494304107,-3,-1,1,0,-3,6,3,-12
1532494304112,8,-4,-4,-5,0,-22,16,14
1532494304117,-11,2,5,1,2,32,1,-9
1532494304122,10,2,0,0,-4,-18,2,5
1532494304127,2,-6,0,2,0,12,-5,6
1532494304132,-7,8,-1,3,2,7,-7,-9
1532494304137,-7,-7,4,-4,-2,-35,-7,-8
1532494304142,14,1,4,-3,1,45,-24,-3
1532494304147,-6,5,-4,-2,-3,-2,25,-5
1532494304152,16,-2,-9,-2,-3,-10,7,7
1532494304157,4,2,0,0,0,50,-1,1
1532494304162,-22,-6,-11,-1,1,-22,-22,-19
1532494304167,-16,-9,-3,-2,-2,-21,3,7
1532494304172,23,3,0,1,0,-12,16,-12
1532494304177,18,4,-4,3,0,-57,-6,27
1532494304182,-4,-6,-12,-3,-1,23,14,11
1532494304187,5,1,-1,-1,0,14,-22,-12
1532494304192,-22,-2,-5,-1,0,2,7,-5
1532494304197,-3,1,7,-2,1,33,9,-2
1532494304202,-12,-14,-1,-1,-2,-50,-30,-14
1532494304207,22,16,6,0,0,5,28,19
1532494304212,-14,-3,4,0,-2,9,0,-6
1532494304217,7,-2,-18,-4,-3,6,-3,-6
1532494304222,-14,-3,5,0,-4,41,16,25
1532494304227,11,5,0,1,7,-13,-22,-16
1532494304232,-27,-8,5,-1,-3,-11,-9,-17
1532494304237,-2,1,6,2,1,-5,0,-3
1532494304242,-8,-5,-2,-4,-3,-14,0,-5
1532494304247,-3,-2,-9,-3,-4,-7,-11,0
1532494304252,3,-2,5,-1,-1,-41,-4,4
1532494304257,-21,-2,11,-1,-2,-29,-4,-9
1532494304262,26,2,-10,1,1,56,17,5
1532494304267,-7,-1,-16,-1,1,-23,-20,2
1532494304272,22,-1,15,2,1,-49,-13,1
1532494304277,-37,-4,13,-1,-5,11,-1,-7
1532494304282,-14,2,-9,-1,0,13,7,-2
1532494304287,-5,-7,2,-4,-3,50,8,-2
1532494304292,12,-1,-16,-2,-2,26,1,4
1532494304297,-1,-5,-3,0,0,-17,-5,1
1532494304302,22,11,22,-1,-1,-9,7,1
1532494304307,-15,-9,-31,0,3,35,-2,-6
1532494304312,-21,0,-3,-2,-5,12,14,7
1532494304317,-3,5,5,2,-3,-59,-17,-7
1532494304322,7,-5,-3,-1,-1,-12,0,-1
1532494304327,-1,1,-1,-2,-7,-10,-2,-5
1532494304332,2,-3,11,4,6,2,-2,2
1532494304337,8,1,10,-4,5,81,12,1
1532494304342,-16,-6,-7,-3,2,-10,-4,-3
1532494304347,-6,-3,6,0,-4,-73,-33,-1
1532494304352,5,2,-5,-4,-7,10,-34,-4
1532494304357,40,2,-12,2,0,-8,-9,6
1532494304362,4,5,-4,-4,1,33,8,-8
1532494304367,7,-4,2,-2,-2,17,28,1
1532494304372,-18,-6,-14,2,1,6,23,-1
1532494304377,24,7,-3,-1,-2,-17,16,1
1532494304382,-25,-5,9,2,-1,-7,7,-4
1532494304387,-1,2,5,0,0,3,1,-2
1532494304392,-5,-7,-2,0,1,-5,-1,1
1532494304397,8,6,-2,1,-2,16,-1,-3
1532494304402,-9,-8,-1,-1,-3,-20,-8,4
1532494304407,-18,-3,5,-3,-1,16,-15,-4
1532494304412,26,9,0,0,-1,-4,-2,4
1532494304417,-7,-5,8,-2,2,44,13,-2
1532494304422,13,3,-6,3,-2,-53,-4,-2
1532494304427,-27,-7,0,-4,-5,77,46,-1
1532494304432,73,6,-5,2,3,-56,-37,0
1532494304437,-17,-6,0,-1,-3,-25,-2,3
1532494304442,22,3,5,0,1,14,-2,-6
1532494304447,14,-1,2,0,2,11,-6,-1
1532494304452,-23,3,-5,-5,0,53,12,-1
1532494304457,-5,-8,-2,1,0,5,-12,-5
1532494304462,-20,2,-7,0,0,-10,-10,3
1532494304467,45,-6,14,1,2,-11,6,5
1532494304472,-16,-2,7,-1,-2,4,-6,-6
1532494304477,1,4,13,-2,-1,-37,-11,-2
1532494304482,1,-2,1,-2,0,14,10,1
1532494304487,3,3,-5,0,1,-22,-10,-1
1532494304492,-14,-10,2,0,-1,0,13,2
1532494304497,5,-1,-10,-4,-4,13,5,1
1532494304502,-8,2,2,-1,-3,-28,-7,-3
1532494304507,-20,-4,-5,-2,-3,-12,-8,-6
1532494304512,-1,-1,0,2,2,2,3,3
1532494304517,-1,-3,-3,1,1,8,3,-5
1532494304522,16,-1,-17,-6,-2,7,-7,1
1532494304527,15,-1,12,1,-1,-23,-7,0
1532494304532,-1,0,-1,-2,-2,9,3,-1
1532494304537,8,1,-3,1,1,6,-3,0
1532494304542,4,-4,3,-1,1,-5,2,1
1532494304547,-1,1,-3,-1,0,-5,0,1
1532494304552,-23,-2,-1,1,0,0,6,-3
1532494304557,-17,-3,-5,1,-2,-30,-4,-2
1532494304562,-12,0,7,-1,-3,-13,-2,-1
1532494304567,-15,-3,-9,-2,-4,-5,0,-1
1532494304572,-1,-1,-3,-4,-2,19,-2,1
1532494304577,-1,0,-4,1,0,1,-4,1
1532494304582,3,-2,4,2,2,-1,-3,-1
1532494304587,15,2,0,-1,2,-39,-6,-1
1532494304592,-2,-3,-4,-4,-3,41,-1,-1
1532494304597,-1,-1,-1,-6,-7,5,-2,0
1532494304602,1,3,1,4,0,3,0,-6
1532494304607,-2,-5,-4,2,3,0,-4,-5
1532494304612,1,0,-3,-4,-8,-13,3,15
1532494304617,6,2,5,0,-3,-3,-4,-3
1532494304622,7,-3,-5,-4,7,-1,-2,0
1532494304627,7,-6,-4,-2,0,-4,-1,-1
1532494304632,2,-2,-3,1,1,-2,1,-6
1532494304637,4,-3,-6,1,1,15,0,-1
1532494304642,-19,-1,9,-2,-7,-8,-5,-3
1532494304647,11,4,-1,1,-1,7,0,1
1532494304652,-15,-5,1,-6,-6,-21,-5,-13
1532494304657,-13,2,-7,-4,0,-3,-1,18
1532494304662,14,3,-5,3,3,3,3,3
1532494304667,-22,1,5,2,1,3,-1,-3
1532494304672,-8,-2,-7,1,1,4,2,-1
1532494304677,5,0,-2,-1,-3,-7,-2,-4
1532494304682,-16,-3,-2,-3,-6,-5,-1,1
1532494304687,3,0,-1,-2,3,12,-3,-4
1532494304692,5,3,0,1,0,-14,1,9
1532494304697,0,-1,29,1,2,7,4,-1
1532494304702,0,-2,-27,-1,1,4,0,3
1532494304707,-5,1,3,1,-8,4,-4,-5
1532494304712,3,5,4,3,5,-12,-2,-6
1532494304717,-5,-4,-40,-5,-5,13,2,-3
1532494304722,-2,9,42,1,-1,3,1,4
1532494304727,-15,-6,-4,-2,1,-8,0,-10
1532494304732,-5,-8,-5,-1,0,12,3,19
1532494304737,8,7,1,5,3,-10,-1,-3
1532494304742,1,2,-5,5,-1,-1,-1,-7
1532494304747,-2,-1,-12,-2,10,3,-1,8
1532494304752,-6,-2,8,-7,-6,-3,0,-5
1532494304757,-6,-5,-6,-3,-8,-2,-4,-3
1532494304762,-4,-7,2,-1,-3,1,2,-4
1532494304767,0,3,-8,4,-3,-2,0,2
1532494304772,1,-2,-6,2,6,3,-1,-6
1532494304777,-2,0,1,0,0,-1,-2,-1
1532494304782,0,-3,1,0,-1,1,0,-3
1532494304787,2,-1,3,-8,-5,0,3,5
1532494304792,3,1,-2,0,-7,-2,-2,-5
1532494304797,-4,-6,-6,-2,2,-1,1,-9
1532494304802,1,-2,4,-5,-8,-6,-1,-5
1532494304807,0,3,1,4,-3,3,-3,10
1532494304812,4,3,1,7,6,3,-1,-3
1532494304817,-1,1,11,2,11,1,-2,-6
1532494304822,-3,-4,-11,-4,-4,4,-1,1
1532494304827,0,-4,-2,-3,2,-1,0,0
1532494304832,-4,-1,1,-6,-8,-3,-2,-3
1532494304837,-2,0,1,-1,-8,-4,-2,-3
1532494304842,2,-1,-5,1,8,3,1,5
1532494304847,0,2,3,1,-2,0,-1,-4
1532494304852,-2,-1,3,5,8,1,0,-1
1532494304857,3,-1,-2,-1,-5,-2,-2,4
1532494304862,0,-1,-5,-2,-1,0,-2,2
1532494304867,1,1,7,2,-2,-4,-2,-2
1532494304872,4,-1,-7,-5,0,1,0,0
1532494304877,-4,-3,3,-5,0,-3,-3,-15
1532494304882,-3,-3,0,1,-5,0,0,0
1532494304887,3,3,2,5,7,0,-2,17
1532494304892,2,-3,-3,0,24,-11,1,-1
1532494304897,2,2,0,-2,-22,19,2,8
1532494304902,0,0,2,2,0,5,-1,-2
1532494304907,2,1,-1,0,8,-5,0,0
1532494304912,1,-1,-2,-1,0,4,2,2
1532494304917,2,0,0,1,8,1,4,-2
1532494304922,0,-2,0,-4,-18,3,0,5
1532494304927,-1,-1,0,2,1,-13,0,0
1532494304932,-1,-1,-3,-5,16,13,1,0
1532494304937,-1,2,1,1,-12,-29,-2,-6
1532494304942,5,4,3,8,23,27,4,7
1532494304947,-6,-6,-10,-8,-35,-33,-2,2
1532494304952,1,0,0,-4,-10,-5,1,-1
1532494304957,-3,-4,-2,-12,-4,5,0,4
1532494304962,-10,1,2,3,1,-7,-3,-27
1532494304967,5,2,2,2,13,1,3,14
1532494304972,-2,-1,-2,4,5,7,1,-5
1532494304977,4,-1,1,4,1,-1,0,9
1532494304982,0,-1,-2,0,-10,-6,-3,-4
1532494304987,-2,-1,0,0,15,14,-1,-7
1532494304992,0,1,-2,-1,-11,0,-3,-4
1532494304997,-2,0,0,-1,-2,4,-2,-5
1532494305002,0,-2,0,1,0,-6,0,7
1532494305007,-1,-2,-2,-3,9,11,-4,-6
1532494305012,-2,-1,-2,-2,-19,-24,-1,7
1532494305017,-2,1,-1,-3,5,-7,-6,-6
1532494305022,0,-1,0,-3,-12,15,1,2
1532494305027,-2,0,0,1,27,20,0,-4
1532494305032,2,0,-2,-3,-28,-20,-1,1
1532494305037,-1,0,0,2,2,-3,-1,-5
1532494305042,-1,-1,-2,-3,-23,-26,-5,-3
1532494305047,-4,-2,0,0,16,42,-2,-2
1532494305052,3,-1,-1,-2,10,18,-3,8
1532494305057,-3,-1,-2,1,-1,11,-1,-14
1532494305062,-4,0,-1,-2,0,-1,-3,-13
1532494305067,1,-2,0,3,0,-11,3,18
1532494305072,1,-1,-3,-5,-9,-5,2,-2
1532494305077,0,-2,-1,-1,-17,-2,2,1
1532494305082,-1,2,0,-2,3,-12,3,-1
1532494305087,-4,1,0,-4,-16,-25,1,-12
1532494305092,2,-1,2,0,6,8,0,-3
1532494305097,-1,-2,0,1,0,-14,-3,8
1532494305102,1,-3,-4,-1,2,19,3,0
1532494305107,2,-1,0,1,-3,-20,-1,1
1532494305112,-1,1,-2,-3,-15,30,2,3
1532494305117,-3,1,-6,-1,5,25,16,-14
1532494305122,1,-1,0,-1,5,2,3,1
1532494305127,-2,-1,-2,0,5,-1,5,-1
1532494305132,0,-1,1,1,2,-6,7,-1
1532494305137,0,1,2,0,1,-2,4,-2
1532494305142,0,-3,-2,-1,-1,-4,0,3
1532494305147,1,0,1,1,3,-6,-3,-3
1532494305152,-3,-1,-1,-3,-8,0,-8,-7
1532494305157,0,0,-1,-1,3,-1,-8,-1
1532494305162,-1,-2,-1,1,18,7,-4,6
1532494305167,1,-1,-2,-7,-48,-18,-8,-1
1532494305172,-1,-2,-2,1,8,-7,-3,-2
1532494305177,-3,-2,-1,1,0,-5,-7,-9
1532494305182,2,-1,-3,-1,-5,11,2,26
1532494305187,0,-1,0,0,4,7,5,-1
1532494305192,2,-2,-2,1,12,-5,4,12
1532494305197,3,0,1,-1,-7,-2,4,1
1532494305202,-4,-1,-1,-1,-1,-10,0,-18
1532494305207,-2,0,-1,-2,-10,6,0,1
1532494305212,-2,0,0,2,11,0,3,2
1532494305217,0,-2,-3,-3,1,16,-3,3
1532494305222,-2,-1,-1,-2,-8,-12,-11,-4
1532494305227,-1,1,0,3,11,1,-4,2
1532494305232,-1,0,1,0,12,-13,-6,-7
1532494305237,0,0,-2,-3,3,2,-2,5
1532494305242,-1,0,0,0,-2,2,0,-1
1532494305247,0,0,-2,0,-3,-4,-1,-3
1532494305252,-2,-1,0,0,5,-8,-2,-4
1532494305257,-3,-3,-2,-2,-7,-9,-7,-7
1532494305262,-1,0,0,-2,-11,-5,1,-1
1532494305267,1,-2,-1,0,-2,-6,-3,6
1532494305272,-2,0,-2,-2,-8,-29,-4,0
1532494305277,-2,-1,0,-1,19,38,3,-4
1532494305282,-2,-1,-1,5,14,10,-3,-9
1532494305287,3,-2,-2,-9,-55,4,4,3
1532494305292,-6,-2,-2,0,-17,17,-5,-4
1532494305297,3,-1,2,1,0,-11,1,17
1532494305302,-3,-1,-1,-1,7,3,2,2
1532494305307,0,-1,2,3,24,3,-1,-4
1532494305312,-3,-2,-1,-3,2,5,-1,-6
1532494305317,-3,-2,-1,0,0,4,-2,-6
1532494305322,1,-1,-1,-4,-42,-45,0,8
1532494305327,-1,-1,-2,2,15,26,-2,-7
1532494305332,2,0,1,-2,4,10,2,5
1532494305337,-3,-2,-3,-2,0,-16,-1,-12
1532494305342,-1,-3,1,-1,-4,2,-2,7
1532494305347,-1,0,-1,2,8,-7,-2,-7
1532494305352,3,1,-3,-1,-6,13,2,11
1532494305357,0,-1,-1,2,12,6,1,-3
1532494305362,-2,-2,-2,-4,-27,-4,-1,-1
1532494305367,0,1,0,3,18,-14,2,8
1532494305372,-1,0,0,-1,-1,44,0,-8
1532494305377,-1,-2,1,1,-6,-21,-1,6
1532494305382,0,1,0,0,15,4,0,-2
1532494305387,-2,-2,-1,-1,9,5,1,-6
1532494305392,-1,2,0,3,16,-22,-2,-2
1532494305397,0,-1,-1,-4,-15,-5,2,5
1532494305402,0,-1,-1,-4,-3,20,0,-1
1532494305407,-3,-1,-1,0,-1,3,-4,-10
1532494305412,-4,-4,-2,-3,-4,-12,-4,-12
1532494305417,7,0,-1,0,1,5,-2,32
1532494305422,0,-2,0,0,10,0,-3,-11
1532494305427,-1,-2,-2,-2,-5,-9,3,5
1532494305432,-1,-3,0,1,3,-8,1,-6
1532494305437,-3,-1,-2,-1,-3,0,1,-2
1532494305442,0,0,-2,0,2,-8,0,4
1532494305447,-1,0,-1,-1,-2,3,2,-3
1532494305452,-1,-2,-1,0,0,-4,3,-2
1532494305457,-2,-1,-1,0,-5,-2,-1,-9
1532494305462,0,-1,0,0,20,6,-1,-2
1532494305467,-4,-2,-3,-7,-33,-19,-3,0
1532494305472,-3,0,-1,1,-5,-101,-8,-3
1532494305477,1,-1,1,-2,-2,82,8,-2
1532494305482,0,0,-1,-1,14,72,5,-1
1532494305487,0,0,2,6,10,-70,7,0
1532494305492,1,1,0,-5,-25,6,4,3
1532494305497,-7,-2,0,0,6,-49,-11,-26
1532494305502,1,-2,0,-4,-29,-23,-4,5
1532494305507,0,-1,-3,-1,23,47,-2,2
1532494305512,2,1,1,1,6,21,3,3
1532494305517,-3,-1,0,-1,-11,-1,-4,-8
1532494305522,-3,-2,-2,1,8,-2,1,-7
1532494305527,0,-2,-1,-1,-34,-14,-6,1
1532494305532,-3,-2,0,0,20,25,1,-1
1532494305537,-1,1,-1,-1,-8,7,4,0
1532494305542,0,0,-1,1,3,-20,-1,0
1532494305547,2,1,0,1,8,3,-2,9
1532494305552,1,-1,0,3,15,6,5,3
1532494305557,1,0,0,1,-16,12,-1,4
1532494305562,-3,0,-1,0,7,-17,3,1
1532494305567,-1,-2,0,-1,15,21,0,-6
1532494305572,0,0,0,0,3,3,-2,1
1532494305577,0,1,-1,1,26,-101,-5,0
1532494305582,1,-1,0,-2,6,57,12,0
1532494305587,-5,-2,-1,-6,-53,21,-6,-5
1532494305592,0,0,0,1,0,-8,0,-3
1532494305597,1,-1,0,0,12,-2,-1,3
1532494305602,0,-1,0,-3,-20,-2,-4,-4
1532494305607,1,0,0,4,19,4,-1,-3
1532494305612,-2,-2,-1,-3,-9,9,-5,1
1532494305617,0,0,-1,-3,-23,-29,-4,-1
1532494305622,-2,-1,-1,-1,9,-25,-12,-4
1532494305627,2,2,3,3,17,37,15,3
1532494305632,-1,0,-2,-4,-38,-9,-2,0
1532494305637,-1,-2,-1,-2,4,24,7,0
1532494305642,-1,-2,-1,-1,-3,-39,-10,-1
1532494305647,-2,-1,-1,-2,9,-14,-7,0
1532494305652,-1,0,-1,0,13,8,2,-2
1532494305657,0,0,-2,-4,-13,-30,-5,-2
1532494305662,0,-1,-1,0,-13,-63,0,-1
1532494305667,-3,-3,-4,-4,4,46,-4,-5
1532494305672,0,-2,-1,0,14,12,0,1
1532494305677,-1,0,-1,-2,-18,-1,-2,0
1532494305682,-1,2,0,3,18,-5,3,-1
1532494305687,0,0,-1,-1,-2,-8,0,-4
1532494305692,-1,-1,0,0,-2,-16,-6,-2
1532494305697,0,-1,-2,2,14,24,-1,0
1532494305702,-2,1,-1,-1,-11,6,7,-3
1532494305707,-3,-1,0,0,-1,-18,-1,-16
1532494305712,3,-1,-3,-2,6,15,3,38
1532494305717,1,0,2,1,-6,-8,-2,-7
1532494305722,-1,0,-2,0,2,47,0,4
1532494305727,0,1,-1,-1,5,-35,-5,0
1532494305732,-4,-2,0,1,-1,-4,-6,-19
1532494305737,0,4,1,-1,-1,-72,1,5
1532494305742,-2,-10,-3,1,8,43,-4,4
1532494305747,-1,1,-1,-4,-4,-4,-1,-4
1532494305752,-1,-11,-4,-4,-9,-28,-5,-9
1532494305757,-4,-7,3,4,2,60,3,-14
1532494305762,-2,21,2,1,2,-5,2,-7
1532494305767,3,-3,-14,-4,-12,-23,2,23
1532494305772,8,11,8,-3,-8,3,3,4
1532494305777,-1,1,7,-2,-15,25,2,-17
1532494305782,6,-4,4,3,-2,-22,3,20
1532494305787,-3,1,2,0,11,-7,-4,5
1532494305792,-6,-7,-8,3,5,-5,2,-4
1532494305797,-3,-7,-8,-5,13,31,-1,4
1532494305802,-1,-1,2,-1,-7,2,-1,-11
1532494305807,0,-1,-1,0,5,-15,-2,9
1532494305812,-1,-1,-3,-2,3,-5,-1,-9
1532494305817,-5,-2,-3,-2,5,6,1,5
1532494305822,3,1,-1,-2,-22,-24,-2,-4
1532494305827,-3,-4,1,2,5,4,0,0
1532494305832,-3,-1,-1,-3,-9,3,1,-11
1532494305837,-1,4,-2,0,5,7,-4,6
1532494305842,3,-3,1,-1,6,-8,-3,3
1532494305847,0,-1,2,-3,-10,-8,0,-11
1532494305852,-2,2,1,-2,1,20,3,-1
1532494305857,0,-1,-4,-2,-11,-20,-1,6
1532494305862,-1,-7,-4,-2,8,5,-3,-6
1532494305867,0,0,2,-1,-3,3,0,-4
1532494305872,-1,1,1,2,4,3,-3,0
1532494305877,2,-2,-3,-1,6,-5,-1,-1
1532494305882,0,-2,-2,-2,0,-2,-1,6
1532494305887,-4,0,-1,1,7,8,1,-6
1532494305892,1,1,0,-3,-15,-5,0,4
1532494305897,-2,-1,-1,2,12,6,0,-6
1532494305902,-4,-1,-3,-6,-23,-16,-2,-4
1532494305907,-2,-2,0,-1,-7,0,-1,-1
1532494305912,-2,1,1,2,12,-4,-2,-6
1532494305917,3,1,1,-2,-2,7,0,2
1532494305922,1,-2,-2,-2,-1,11,3,4
1532494305927,0,1,1,-1,-6,5,1,-1
1532494305932,-2,0,0,-1,1,-2,0,-1
1532494305937,-3,-2,-3,0,1,-3,-3,-4
1532494305942,-1,-1,-1,1,-1,-7,-1,-3
1532494305947,-1,-1,0,0,1,-1,-5,1
1532494305952,-3,-1,0,-2,3,1,1,-4
1532494305957,0,-1,0,0,-6,0,-1,-3
1532494305962,-2,-2,1,0,7,-1,-3,-4
1532494305967,-2,-1,0,-1,-5,-4,-7,3
1532494305972,0,-1,-1,0,0,1,-4,-1
1532494305977,-1,-1,-1,-2,-1,1,0,-2
1532494305982,0,0,0,-2,-3,-3,-3,0
1532494305987,-1,0,-1,-1,0,-6,-1,-3
1532494305992,0,-1,0,-1,-4,-2,-9,1
1532494305997,1,0,0,-1,0,3,-4,2
1532494306002,-1,-1,-1,-2,-3,0,-4,4
1532494306007,1,-1,-2,-1,0,0,3,-4
1532494306012,-1,0,-1,0,2,-1,1,-1
1532494306017,-2,0,-1,-1,-1,6,-4,-3
1532494306022,-1,-2,-1,-2,-3,-6,-1,-2
1532494306027,0,-1,1,2,1,4,3,2
1532494306032,0,0,1,1,-2,0,2,-2
1532494306037,-1,-1,0,0,-5,-14,-3,-4
1532494306042,0,0,-3,-1,6,9,-7,1
1532494306047,0,2,3,-2,-3,2,5,1
1532494306052,-2,-1,0,-2,-3,0,-3,-4
1532494306057,0,-1,0,-1,-2,-2,3,0
1532494306062,0,0,0,-2,-2,-3,4,-1
1532494306067,-1,-1,-2,-1,-1,0,1,-1
1532494306072,0,-2,-3,0,-2,-4,3,2
1532494306077,-2,-1,0,-1,2,3,-1,-3
1532494306082,0,1,0,-1,-2,-4,2,-3
1532494306087,-1,1,-1,-1,2,-2,2,0
1532494306092,-2,-1,0,-2,-5,-4,-2,-1
1532494306097,-1,0,-1,0,-1,2,-3,-1
1532494306102,-3,-1,-1,1,-3,-3,3,-2
1532494306107,-1,0,-2,-1,-2,-1,3,-1
1532494306112,0,-1,-1,0,2,0,6,0
1532494306117,0,0,0,-1,0,0,5,-1
1532494306122,-1,-2,-2,0,-3,-3,2,-2
1532494306127,0,1,0,0,-2,1,-4,1
1532494306132,-1,-1,-1,0,0,0,-6,-2
1532494306137,-1,-1,-2,-2,-1,1,-8,1
1532494306142,-2,-1,0,-1,0,-2,-5,-1
1532494306147,-1,-1,-1,-1,-1,-1,-11,-2
1532494306152,1,0,-1,0,0,1,-4,-1
1532494306157,2,-1,-1,0,-2,0,-3,-1
1532494306162,0,0,-2,-1,-1,0,8,1
1532494306167,-1,-1,-1,-1,-1,-2,5,-1
1532494306172,0,-1,-1,-1,-2,-2,2,-3
1532494306177,-1,-2,-1,-1,-1,-1,-5,0
1532494306182,-1,-2,1,0,-3,-2,-5,0
1532494306187,0,-1,0,-1,-1,-1,0,0
1532494306192,-1,1,-2,-1,-1,0,9,-1
1532494306197,0,-1,-3,-2,1,-2,4,0
1532494306202,0,-1,-1,-2,0,-3,-2,-1
1532494306207,1,0,-1,0,0,0,5,0
1532494306212,-2,-2,-1,-1,1,0,2,-1
1532494306217,-1,0,-2,0,-3,-1,2,0
1532494306222,0,0,0,-2,0,-1,-3,-2
1532494306227,0,-3,-1,0,0,0,-5,-1
1532494306232,-1,-1,-1,0,0,-1,-5,-1
1532494306237,0,-1,1,0,1,2,1,0
1532494306242,0,0,-1,-1,-5,-6,-1,0
1532494306247,-2,-2,-1,-1,-1,0,-1,-1
1532494306252,0,-2,-1,0,-1,-1,-3,-1
1532494306257,-1,-1,0,-1,-1,-1,1,-1
1532494306262,0,0,-2,0,0,0,-1,0
1532494306267,-1,0,-2,-2,0,-2,-1,0
1532494306272,-2,-1,0,-1,-1,-1,-3,0
1532494306277,0,-2,-1,-3,-1,0,-4,-3
1532494306282,-1,-1,0,-1,0,1,0,1
1532494306287,-2,-1,-1,-1,-3,1,0,-1
1532494306292,-1,-2,-1,-1,0,1,1,0
1532494306297,-1,-1,-1,-2,-1,-2,0,1
1532494306302,-1,-2,-3,0,0,-1,-4,-4
1532494306307,0,-2,-3,-1,0,-2,-2,-1
1532494306312,-1,1,0,0,-1,-1,-1,0
1532494306317,-2,0,-1,-1,-1,0,1,-1
1532494306322,-2,0,-1,0,-1,-3,0,-1
1532494306327,-2,-2,0,-2,0,-3,-3,-2
1532494306332,0,-2,1,0,-1,0,-1,0
1532494306337,0,-2,-2,-1,-2,0,-4,0
1532494306342,0,-1,-1,0,1,1,2,0
1532494306347,-1,-2,-2,-1,-1,-1,-2,-2
1532494306352,-2,-2,-3,-1,-1,-1,2,-1
1532494306357,0,0,-1,0,1,0,0,0
1532494306362,-1,-2,-1,0,1,1,2,-1
1532494306367,-1,0,-1,-2,-4,-3,1,0
1532494306372,1,0,-1,-3,0,0,-1,0
1532494306377,-2,-1,-1,1,-2,-2,-3,0
1532494306382,0,0,-1,0,-1,1,-1,-1
1532494306387,-1,-1,0,1,0,2,1,-1
1532494306392,-2,0,-1,-1,-2,-1,1,-2
1532494306397,0,0,-1,-1,-3,-2,-4,-1
1532494306402,0,0,-1,-1,-1,-2,-1,0
1532494306407,-2,0,-1,-1,1,0,-1,1
1532494306412,-1,0,-1,-2,-2,-2,-3,-2
1532494306417,-1,-1,-1,0,0,0,1,0
1532494306422,-2,0,-1,-1,-2,-1,-3,1
1532494306427,-1,0,-1,-2,0,0,-1,-2
1532494306432,-1,-1,1,-1,-1,0,-2,-1
1532494306437,-1,0,0,0,0,-2,4,1
1532494306442,-1,-2,1,-2,-2,-2,-3,-2
1532494306447,-1,0,-1,-1,-1,0,-1,0
1532494306452,0,0,0,0,1,-2,0,-1
1532494306457,-1,-1,-3,-1,0,-1,1,-3
1532494306462,-1,-2,-1,-2,-1,0,0,-2
1532494306467,0,-2,-1,-1,2,-1,0,0
1532494306472,-1,-2,-1,0,-2,-2,2,-1
1532494306477,-1,-1,0,0,4,10,-3,-1
1532494306482,0,-1,-2,0,-3,-3,1,0
1532494306487,0,-2,0,0,-2,-1,-2,-1
1532494306492,-1,-1,-1,1,1,0,-4,-2
1532494306497,0,0,-1,-1,0,-3,3,1
1532494306502,-1,0,-1,-2,0,0,0,1
1532494306507,1,0,-1,1,-1,0,-1,-1
1532494306512,-2,-1,-1,-1,-1,-1,1,0
1532494306517,-1,0,-1,-1,-3,-3,-1,-3
1532494306522,0,0,-1,0,0,-1,-3,-2
1532494306527,1,-1,-2,-1,-1,-2,1,1
1532494306532,-1,-1,-1,-1,-1,0,1,-1
1532494306537,-2,0,0,-2,-1,-4,-11,-5
1532494306542,0,-1,-1,0,0,1,10,-1
1532494306547,-2,-1,-1,-2,0,-1,-2,-3
1532494306552,0,-1,-2,-1,0,-2,-1,-1
1532494306557,-1,0,0,-1,-2,-1,-2,1
1532494306562,0,-1,0,0,-2,0,-2,-1
1532494306567,0,-1,0,0,-2,0,-1,-1
1532494306572,0,-1,0,0,-3,0,0,-3
1532494306577,-1,-3,-2,0,-2,-3,2,0
1532494306582,0,0,-3,-1,1,-2,-4,-2
1532494306587,-1,0,1,0,-2,0,2,1
1532494306592,-1,-1,-2,-1,0,0,-4,0
1532494306597,0,-1,1,-1,-1,0,1,0
1532494306602,-1,-2,-2,0,-2,0,-3,-2
1532494306607,0,-1,0,-1,0,0,-1,0
1532494306612,-2,0,-2,-2,0,0,-1,1
1532494306617,-1,0,-2,0,-2,-2,-4,2
1532494306622,-1,-1,0,-1,1,-1,4,-3
1532494306627,0,-1,-3,-2,-2,-1,0,0
1532494306632,-1,-2,-1,-2,0,-2,-3,0
1532494306637,0,-2,-1,-2,0,-5,1,-1
1532494306642,0,0,-2,0,-1,7,-4,3
1532494306647,0,0,-2,1,-1,-1,-7,-3
1532494306652,-1,-2,-1,0,0,-1,1,-1
1532494306657,0,0,-2,-1,0,-2,0,-1
1532494306662,-1,0,-2,-1,0,-4,0,0
1532494306667,-2,0,1,0,-1,-2,0,-2
1532494306672,-1,0,-2,1,-2,3,-3,0
1532494306677,-1,-1,-1,0,-2,0,2,0
1532494306682,-2,-1,0,-3,-1,-4,-2,-2
1532494306687,-1,-1,-1,0,-2,2,-1,0
1532494306692,1,-1,0,-1,-2,-4,1,-1
1532494306697,-1,-1,-1,-2,0,-1,-4,-2
1532494306702,-2,0,-1,1,1,0,9,0
1532494306707,-3,-3,-2,-1,-1,-3,-3,-3
1532494306712,1,-1,0,-1,-2,-1,-3,-3
1532494306717,-1,-1,1,1,-1,1,1,2
1532494306722,-1,-1,-1,-1,-1,0,-3,-1
1532494306727,-1,1,-1,-1,0,1,1,0
1532494306732,1,0,-1,-1,-2,-1,1,-1
1532494306737,0,-1,0,-1,-1,1,0,-1
1532494306742,0,-2,0,0,-1,-3,-5,-3
1532494306747,-1,-1,-1,-2,0,0,1,1
1532494306752,0,-1,-2,-1,0,-2,-5,-1
1532494306757,-1,0,0,0,-1,0,2,-2
1532494306762,-1,-2,-1,-1,-2,-3,-2,-1
1532494306767,1,-2,-1,-2,-3,-2,-1,-1
1532494306772,-3,1,-1,-1,0,1,-2,-1
1532494306777,-2,-3,0,-2,-1,-1,-8,-2
1532494306782,-1,0,0,0,-1,-1,8,1
1532494306787,0,0,-1,-1,-1,-2,1,-2
1532494306792,1,1,0,-1,-2,0,-4,2
1532494306797,0,0,-1,0,0,0,-1,-2
1532494306802,0,-1,0,1,0,0,-6,-3
1532494306807,0,-1,-1,0,0,0,1,0
1532494306812,-1,-2,0,0,-1,-2,3,0
1532494306817,0,-1,0,-2,-3,-2,1,-1
1532494306822,-1,0,-2,-2,0,-1,-1,1
1532494306827,-1,1,-2,0,0,-1,1,1
1532494306832,-1,-1,-2,-1,0,0,-1,-1
1532494306837,-1,-2,-2,0,-2,-1,1,0
1532494306842,-1,-1,-1,0,-3,-3,-3,0
1532494306847,-1,-1,1,-1,-1,1,-3,-1
1532494306852,-1,0,1,-2,-2,2,0,-2
1532494306857,0,1,-1,-3,-1,-1,-1,-2
1532494306862,0,0,0,-2,1,-2,7,1
1532494306867,-1,-1,-1,-2,0,0,2,0
1532494306872,-2,-3,-1,0,0,-1,-7,-4
1532494306877,0,0,-1,0,-1,-2,0,-2
1532494306882,-1,-1,-1,-1,-1,-2,-6,-3
1532494306887,-1,-1,0,-1,-1,-1,-1,1
1532494306892,0,-2,-1,-1,0,-1,3,-3
1532494306897,-1,-2,-2,-1,-2,-2,0,1
1532494306902,-1,-2,-1,-1,0,0,-4,-1
1532494306907,-2,0,0,-1,0,0,1,0
1532494306912,-1,-1,0,0,-2,-3,-6,-5
1532494306917,1,0,0,-1,1,1,-2,0
1532494306922,-1,0,-2,1,-1,-1,-1,0
1532494306927,-2,-3,0,-1,0,-2,2,-1
1532494306932,-1,0,0,-1,-2,1,5,-1
1532494306937,0,-1,-1,0,0,1,1,0
1532494306942,-1,0,-2,0,-2,-2,1,-2
1532494306947,0,0,-1,-1,-1,-2,-3,0
1532494306952,-2,0,-1,-1,0,-1,0,0
1532494306957,-1,0,1,-1,1,-1,3,0
1532494306962,1,0,0,-2,-1,1,-6,-1
1532494306967,-2,0,0,0,-1,-2,0,-1
1532494306972,0,-1,0,-1,-1,-1,-1,0
1532494306977,-2,-2,0,-2,-2,-1,1,-1
1532494306982,-1,-1,0,-1,-1,-1,1,1
1532494306987,-1,0,0,-1,-2,-1,-1,-2
1532494306992,0,-1,-2,0,-1,0,3,3
1532494306997,-2,-2,-2,-1,1,-1,-4,-3
1532494307002,0,-1,-1,-2,0,0,6,-2
1532494307007,0,-3,-1,0,0,0,0,-1
1532494307012,0,0,-2,0,-1,-1,-1,-1
1532494307017,-1,-1,-1,0,-1,0,1,-1
1532494307022,1,-1,0,-1,-1,-1,-5,1
1532494307027,0,1,0,-1,-2,0,-2,-1
1532494307032,1,1,0,1,-2,-1,4,2
1532494307037,-2,1,-1,0,0,-1,-7,-3
1532494307042,0,-1,0,-2,-2,-1,-3,-3
1532494307047,-1,0,0,-1,-2,-2,-2,-2
1532494307052,0,-1,-2,-1,-1,0,3,-1
1532494307057,0,0,-1,1,-1,0,0,0
1532494307062,-3,0,-1,-1,-2,2,-3,-2
1532494307067,-1,-1,-1,-3,1,-2,0,-1
1532494307072,-1,0,-1,-1,-1,-1,-3,-2
1532494307077,-1,-2,0,-2,-1,0,4,0
1532494307082,-1,-2,0,-1,0,-3,-6,-2
1532494307087,-2,0,-1,-1,-1,1,1,-1
1532494307092,-1,-1,-1,-1,-1,0,-2,-2
1532494307097,-1,0,1,0,0,-2,0,0
1532494307102,0,0,-1,0,0,-1,-3,-1
1532494307107,0,-2,0,0,0,-1,0,-1
1532494307112,-2,-1,0,-1,0,0,-2,-1
1532494307117,-1,1,-1,-1,-2,-1,0,-1
1532494307122,0,0,-2,2,-1,0,4,2
1532494307127,1,-1,0,0,0,0,-5,-2
1532494307132,-1,-1,0,0,-2,-2,0,-1
1532494307137,1,-1,0,-2,-2,0,-1,0
1532494307142,-3,-1,0,0,-1,-1,-1,-3
1532494307147,0,-1,0,0,-2,0,-1,-1
1532494307152,-2,-1,-1,-3,1,0,-1,0
1532494307157,-1,0,-2,-2,-1,-1,0,-1
1532494307162,-1,-1,0,-1,-2,-2,-4,-2
1532494307167,0,0,0,0,0,0,-1,-1
1532494307172,-1,-1,1,1,-1,-1,1,-1
1532494307177,0,-1,-1,0,0,-1,0,-1
1532494307182,-2,0,-2,-2,-1,2,1,-1
1532494307187,0,0,-1,-1,-1,-3,-6,-2
1532494307192,-1,-1,-1,0,-2,-2,2,1
1532494307197,-2,-1,-1,1,-1,-1,0,-2
1532494307202,-1,0,0,0,0,-1,0,3
1532494307207,0,1,-1,-1,0,1,0,0
1532494307212,0,0,0,-1,0,-1,0,-1
1532494307217,0,-2,-1,-1,-2,-2,-1,-1
1532494307222,0,-1,-1,-1,0,-1,-1,-2
1532494307227,0,0,-1,1,0,-1,1,-2
1532494307232,0,0,0,-1,-1,-1,-1,-1
1532494307237,-1,-1,-1,-2,-2,-1,1,1
1532494307242,0,-1,-1,-2,-1,-3,-8,-1
1532494307247,-2,-1,0,-2,-1,1,5,1
1532494307252,1,-1,-2,-2,-1,0,-1,-2
1532494307257,0,-1,0,-1,0,-1,-2,-1
1532494307262,0,-1,-1,-1,-2,-2,6,0
1532494307267,0,0,-1,0,1,-1,-5,0
1532494307272,-1,-1,-1,0,-1,0,-1,-2
1532494307277,-2,-2,1,0,-1,-2,2,-3
1532494307282,0,-1,-1,0,0,0,0,-1
1532494307287,1,-1,0,0,-3,0,3,2
1532494307292,0,0,-1,-1,-2,0,1,1
1532494307297,-1,-2,-1,0,0,1,-3,-1
1532494307302,-1,0,0,-1,-1,-2,0,-2
1532494307307,-1,0,-2,-1,-2,-2,1,-1
1532494307312,-1,-1,1,0,1,-1,-2,-2
1532494307317,-1,-2,-1,0,-2,-1,-2,-1
1532494307322,1,-1,0,-3,-1,0,8,0
1532494307327,-2,-1,0,-1,0,0,-1,0
1532494307332,-1,-1,0,0,-1,-2,-2,-2
1532494307337,-1,-1,0,-2,-1,-2,-1,-2
1532494307342,-1,0,0,-1,-1,1,-2,-2
1532494307347,-2,-1,0,-2,0,0,-4,-1
1532494307352,-1,-1,0,-2,-1,-1,2,-1
1532494307357,1,-1,-2,0,-1,-1,4,1
1532494307362,-3,0,-1,0,-1,-1,-10,-3
1532494307367,0,-2,-1,-1,-1,-1,2,-1
1532494307372,0,-1,-2,0,1,-1,-3,0
1532494307377,-1,0,0,-1,1,0,-2,-2
1532494307382,0,0,-1,-1,-1,0,3,1
1532494307387,-1,-1,0,0,0,-1,-5,-2
1532494307392,-1,-3,-1,0,-1,0,-1,-1
1532494307397,-1,0,0,-2,1,0,-1,0
1532494307402,-1,-1,-1,-1,0,0,-4,0
1532494307407,-1,-2,0,-2,-1,1,8,-1
1532494307412,-1,-1,0,-2,-2,0,2,-1
1532494307417,-1,-1,0,1,-2,0,-1,0
1532494307422,0,-1,-2,0,-1,-1,0,-3
1532494307427,-1,-2,-1,0,-1,-1,-4,-2
1532494307432,0,-1,-1,-2,-1,0,0,2
1532494307437,-2,-3,-1,-1,-1,-1,-8,-5
1532494307442,0,0,-1,0,-1,-2,0,0
1532494307447,0,0,0,-2,-1,-1,0,-2
1532494307452,-1,0,-1,-1,0,-3,3,0
1532494307457,-1,0,-1,-1,0,-1,0,1
1532494307462,-3,-2,-1,0,-2,-1,3,-1
1532494307467,-1,-1,-1,-1,-1,-2,-3,-1
1532494307472,-1,-1,0,0,-3,0,-4,-1
1532494307477,-1,1,-1,-1,-2,0,1,1
1532494307482,-2,-1,-1,-1,-2,0,-5,-1
1532494307487,-1,0,-1,1,-1,1,5,0
1532494307492,-2,-3,-1,-1,-3,0,-4,0
1532494307497,0,-2,-2,0,1,-1,0,0
1532494307502,0,-1,0,-2,-2,0,2,-1
1532494307507,-1,-3,-2,-1,0,1,2,1
1532494307512,0,-1,1,0,0,-2,-8,-5
1532494307517,0,0,-1,-1,-2,0,-2,-2
1532494307522,0,-1,-1,-2,-1,-1,1,0
1532494307527,-2,-1,-1,-1,-3,-1,-2,-3
