1532066865157,-4,-2,-9,-6,-2,-2,1,-1
1532066865162,-1,-2,4,4,1,-2,0,0
1532066865167,-3,-4,0,-9,-4,-2,0,0
1532066865172,1,0,-6,-9,0,-2,-1,-1
1532066865177,1,2,3,3,0,0,1,-1
1532066865182,-2,-3,-2,-4,-1,0,-1,0
1532066865187,-1,-2,1,-1,-1,0,-1,-2
1532066865192,0,-1,3,18,-1,0,0,-1
1532066865197,0,-2,-5,-6,0,-2,-1,-1
1532066865202,0,0,-5,5,-4,0,0,-1
1532066865207,0,1,4,2,2,2,0,-2
1532066865212,-2,-1,4,15,-1,-2,0,0
1532066865217,-1,-3,0,-15,0,-2,-1,-1
1532066865222,-1,1,0,-7,1,2,3,0
1532066865227,-2,-2,0,14,-2,-2,-3,-1
1532066865232,0,1,-5,-10,0,0,-1,0
1532066865237,-2,-4,-1,-4,-2,0,-2,1
1532066865242,0,0,-3,13,0,-1,0,0
1532066865247,0,-2,-2,-40,-3,0,1,-2
1532066865252,-2,-3,-1,5,-2,-3,-2,-1
1532066865257,-1,-2,-4,-5,-2,0,0,-1
1532066865262,0,0,-1,4,-1,0,-1,-2
1532066865267,-1,-1,-3,8,0,0,-1,-1
1532066865272,-2,0,-2,-5,-2,1,-1,0
1532066865277,2,0,-4,-3,3,1,-1,-1
1532066865282,-3,-1,-6,-11,-3,-1,-2,-1
1532066865287,-2,-3,2,18,2,-2,-3,0
1532066865292,0,2,4,-7,-1,0,-1,1
1532066865297,0,-1,-3,5,-1,0,-2,-1
1532066865302,0,-2,1,1,-4,-2,-1,-1
1532066865307,-1,-1,0,9,-2,-1,-1,-1
1532066865312,1,-1,-7,-8,1,-1,0,-1
1532066865317,-2,0,5,5,-2,-4,-1,-2
1532066865322,-1,-1,-2,-9,-3,-2,1,-2
1532066865327,0,-1,2,-4,0,1,0,1
1532066865332,0,1,-2,11,0,-1,-1,-2
1532066865337,2,0,1,-11,-1,0,0,-1
1532066865342,-1,-2,1,-2,-1,0,-3,-1
1532066865347,-3,-1,-1,1,-2,-1,-1,0
1532066865352,0,-1,0,-1,2,2,-1,-1
1532066865357,0,-1,2,17,-1,0,-2,0
1532066865362,-1,-3,-4,-8,-1,0,0,1
1532066865367,-1,2,0,1,0,0,-1,0
1532066865372,-1,0,-1,0,0,0,0,-1
1532066865377,-1,-2,-4,-17,0,-2,-2,-2
1532066865382,0,-1,1,15,1,0,-1,0
1532066865387,-1,0,-1,-1,-2,-3,-1,-1
1532066865392,0,-1,-3,-1,-3,-1,0,0
1532066865397,-1,0,-2,-15,1,1,1,0
1532066865402,0,-2,-5,15,-3,-3,-3,-1
1532066865407,1,-5,7,-41,-3,-2,-2,-3
1532066865412,0,2,0,7,0,-1,1,1
1532066865417,1,-3,-1,6,0,-1,-1,-2
1532066865422,1,0,-6,-11,1,0,0,-1
1532066865427,-2,1,-7,17,-4,-2,-1,-2
1532066865432,-1,-1,10,-6,-1,-1,-2,1
1532066865437,-2,-3,-3,-10,-2,1,-2,-3
1532066865442,2,1,-11,1,0,0,2,0
1532066865447,-2,-1,19,-17,-7,-3,-2,-2
1532066865452,0,0,-9,-6,0,-2,-2,-1
1532066865457,-1,1,6,21,0,-1,1,1
1532066865462,0,-2,0,-26,1,-2,-2,-2
1532066865467,-2,-1,-8,15,1,1,0,0
1532066865472,0,-1,0,-7,-1,-1,0,-1
1532066865477,0,-1,3,9,0,0,0,0
1532066865482,-2,-1,-1,9,-1,-1,0,0
1532066865487,2,0,-8,-2,5,3,2,-1
1532066865492,-2,-1,6,-25,0,1,0,-2
1532066865497,-5,-5,-17,-10,-9,-4,-4,-2
1532066865502,-1,1,4,20,0,1,0,-2
1532066865507,0,-2,-1,-25,-2,-1,-2,0
1532066865512,0,1,-5,9,0,1,0,-1
1532066865517,-1,1,-5,-2,1,0,0,-1
1532066865522,-4,-2,23,-25,-6,-4,-3,-1
1532066865527,0,-1,-12,4,3,2,2,-1
1532066865532,-2,-3,10,43,-2,-3,-2,-2
1532066865537,1,1,7,-13,5,2,1,-1
1532066865542,-2,-1,-19,-36,-10,-2,-3,1
1532066865547,-3,-7,3,-5,-3,-2,-5,0
1532066865552,2,1,-17,-9,6,2,3,1
1532066865557,-3,-4,19,10,-1,-3,-1,-1
1532066865562,1,3,4,-18,1,0,-1,0
1532066865567,1,2,-1,16,4,1,0,-2
1532066865572,0,-3,-14,-68,-6,1,-2,-2
1532066865577,2,3,-5,35,0,1,0,-1
1532066865582,-2,-6,11,41,-2,-4,-2,-1
1532066865587,-2,-1,0,2,-3,-2,-2,0
1532066865592,1,1,-10,8,2,0,1,1
1532066865597,0,-4,12,-18,2,-1,1,-3
1532066865602,1,5,2,45,4,0,0,-1
1532066865607,2,7,-10,4,-5,1,0,1
1532066865612,-7,-12,26,37,-9,-8,-6,-4
1532066865617,1,5,-14,17,6,3,3,1
1532066865622,-2,-8,2,-48,0,-2,-1,-4
1532066865627,-1,-2,8,36,4,0,1,1
1532066865632,-2,-1,-4,30,-5,-3,-4,0
1532066865637,-2,0,0,3,-4,-2,-2,-2
1532066865642,-4,-3,-20,-43,0,1,0,1
1532066865647,2,0,-15,12,4,2,2,0
1532066865652,-2,-6,24,0,-1,-4,-4,-1
1532066865657,-2,-3,-5,-14,-3,-2,-1,-2
1532066865662,2,2,4,11,3,2,0,0
1532066865667,-1,-2,-10,-17,-2,0,-1,-2
1532066865672,-2,0,2,16,2,0,1,1
1532066865677,0,-2,-3,-27,0,0,1,2
1532066865682,0,0,5,16,1,-3,-1,-1
1532066865687,-3,-2,13,-12,-2,-1,-2,-1
1532066865692,2,4,-17,13,3,5,2,0
1532066865697,-2,0,7,3,-2,-3,-3,0
1532066865702,0,-4,5,-36,-3,1,-1,-2
1532066865707,-2,-3,-6,23,0,-2,-2,-1
1532066865712,3,6,0,-68,-1,2,-1,-3
1532066865717,0,5,4,29,0,-1,-1,0
1532066865722,0,-5,-15,17,-2,-3,0,0
1532066865727,0,3,8,10,2,-2,-2,0
1532066865732,-1,-4,-10,-15,0,-1,0,-3
1532066865737,-1,1,3,-22,-5,-1,-1,0
1532066865742,2,-1,1,-4,4,2,2,1
1532066865747,0,1,-1,23,3,0,2,-2
1532066865752,-2,-5,9,-32,-11,-6,-3,-1
1532066865757,0,-3,-3,3,1,2,0,-1
1532066865762,-2,1,2,26,1,1,-2,0
1532066865767,-1,0,-11,-28,-4,0,0,-2
1532066865772,-1,1,-1,16,0,-1,-1,-1
1532066865777,-1,-3,7,1,-1,-2,-3,0
1532066865782,1,2,22,-13,-2,0,1,-1
1532066865787,0,-1,96,9,1,-1,0,-1
1532066865792,-2,-2,44,24,-3,-1,-3,-1
1532066865797,-1,-2,16,-12,-3,-2,-1,0
1532066865802,0,1,-18,7,-1,-2,-2,-2
1532066865807,-2,-4,-20,-6,0,-3,-1,-2
1532066865812,3,1,-28,22,6,3,2,-1
1532066865817,-1,-2,-34,-26,-9,-1,-3,0
1532066865822,-1,-1,-47,21,1,0,-1,0
1532066865827,-3,-1,-47,-2,-3,-1,-3,1
1532066865832,-1,-1,-26,-14,-2,-1,-2,0
1532066865837,0,1,-22,15,-1,-1,0,-1
1532066865842,2,1,3,7,8,3,1,-2
1532066865847,-1,-3,-7,-17,-5,-1,-2,-2
1532066865852,-1,1,-10,3,0,0,1,-1
1532066865857,-1,-1,3,-11,2,1,0,-2
1532066865862,-2,2,14,8,-5,-4,-3,-2
1532066865867,1,-1,-5,-2,1,-2,0,-2
1532066865872,-1,0,-2,0,0,2,-1,1
1532066865877,-1,-1,-1,2,2,-3,0,0
1532066865882,-1,1,5,-19,-6,-3,-1,0
1532066865887,-1,-2,-5,16,2,0,-2,-1
1532066865892,0,2,2,-28,-2,-2,0,-1
1532066865897,-1,-1,9,-4,-2,-1,-2,-1
1532066865902,-2,-4,3,1,-2,0,-2,1
1532066865907,1,0,-3,-9,-2,-1,-1,-1
1532066865912,0,1,4,10,1,1,1,0
1532066865917,-1,0,2,1,0,0,-2,-2
1532066865922,-1,1,-4,-6,-3,0,-1,0
1532066865927,-1,1,-2,-6,-1,0,-1,0
1532066865932,0,0,-2,-2,3,1,-1,-2
1532066865937,-2,0,-1,14,-5,-3,-2,-1
1532066865942,-2,-2,-1,3,0,0,1,-2
1532066865947,0,-1,6,-9,-3,-1,1,-2
1532066865952,-1,0,0,9,1,-3,-1,-1
1532066865957,-2,-4,-17,-20,-3,-1,-3,-2
1532066865962,-1,-1,4,-5,-1,0,1,-1
1532066865967,-1,-1,1,11,-1,1,1,-2
1532066865972,-2,-1,0,-3,-2,-3,-2,-1
1532066865977,0,-2,6,1,1,0,0,0
1532066865982,-1,0,-3,1,0,-1,-1,0
1532066865987,1,-2,-4,-14,5,1,0,0
1532066865992,-1,0,0,20,-1,-1,-1,-3
1532066865997,-1,0,3,-10,-2,-1,0,0
1532066866002,0,2,-1,4,-2,-1,-2,-2
1532066866007,-2,0,2,3,-3,-1,-1,0
1532066866012,-1,-2,-2,-2,-6,-1,-1,0
1532066866017,1,-1,1,7,5,0,0,-1
1532066866022,-1,0,1,2,0,0,-1,-1
1532066866027,-1,-1,-4,-8,-3,-2,-3,-2
1532066866032,0,-1,-4,-2,-2,-2,1,1
1532066866037,0,0,-1,-4,-2,-1,-1,0
1532066866042,-1,0,3,0,-2,-2,-2,0
1532066866047,0,2,1,-6,5,3,0,0
1532066866052,-2,0,3,4,-1,0,1,1
1532066866057,-3,-2,1,17,-4,-3,-1,-2
1532066866062,-1,-2,2,-19,-1,0,0,-1
1532066866067,-2,1,-5,-1,-6,-1,-2,0
1532066866072,0,1,4,-5,1,-1,-2,-2
1532066866077,1,1,-4,-4,1,-1,-2,1
1532066866082,-1,-1,-2,4,-3,-2,-2,-1
1532066866087,-2,-3,-1,-4,-1,-1,0,-2
1532066866092,0,-1,1,3,-2,-1,0,0
1532066866097,-2,1,-4,-7,3,2,0,1
1532066866102,0,-1,-2,-3,0,0,-1,-2
1532066866107,-1,0,-4,-1,-3,-3,-1,-2
1532066866112,1,0,-1,2,-2,-1,-1,-2
1532066866117,-1,1,4,1,0,1,2,1
1532066866122,0,-2,3,-16,-2,-1,-2,0
1532066866127,-2,-2,-2,3,-2,-1,-1,0
1532066866132,-1,2,0,10,1,1,1,1
1532066866137,-1,-3,-3,-11,-3,-1,0,-4
1532066866142,-2,-3,-8,-5,-1,-1,-1,0
1532066866147,0,0,1,3,3,0,-2,-4
1532066866152,-4,1,5,1,0,0,-3,-3
1532066866157,1,-1,6,7,0,-1,0,0
1532066866162,-1,-1,-4,4,1,-2,1,-1
1532066866167,-1,-1,1,-9,-5,-1,-2,-1
1532066866172,-1,-3,-9,10,3,0,0,0
1532066866177,-1,-5,-6,-11,-4,-2,-2,-2
1532066866182,-2,-2,5,-14,-16,0,-2,0
1532066866187,1,0,2,-6,0,-2,0,1
1532066866192,-1,1,0,-4,-3,-1,-1,0
1532066866197,0,2,3,3,0,-2,0,-1
1532066866202,-2,2,-6,1,5,0,0,0
1532066866207,-2,1,0,-2,-3,0,0,-1
1532066866212,-1,-2,-2,-7,-1,-1,-3,-1
1532066866217,-1,-1,-1,2,1,-1,0,0
1532066866222,2,1,1,9,3,-1,0,-3
1532066866227,0,-1,1,11,5,2,-1,0
1532066866232,1,-2,-2,-7,1,-2,1,-1
1532066866237,-1,4,6,-2,-7,-1,-2,-1
1532066866242,0,-2,1,18,4,1,2,-1
1532066866247,-3,-5,-1,-3,-1,-1,-2,-1
1532066866252,-1,-3,-9,-7,-4,-1,-1,0
1532066866257,-2,-1,7,-1,-1,-3,-4,-1
1532066866262,-4,-8,-10,-7,-16,-6,-6,0
1532066866267,0,-3,-4,2,6,3,4,0
1532066866272,1,1,2,1,-3,3,2,-1
1532066866277,-5,-9,-17,-23,0,0,-1,-3
1532066866282,0,2,6,7,4,-2,-2,2
1532066866287,1,5,-2,-8,-12,-4,-4,-2
1532066866292,-4,-8,-17,-7,-2,-3,-3,-1
1532066866297,1,5,10,21,2,0,0,2
1532066866302,2,3,-1,-13,1,1,1,-2
1532066866307,1,3,12,11,-6,2,0,0
1532066866312,-4,-4,-38,-19,4,-4,-3,-3
1532066866317,0,-5,3,1,2,2,0,-3
1532066866322,-3,-2,-1,15,3,-1,-2,-2
1532066866327,-4,-3,1,-5,-6,-1,-3,-2
1532066866332,1,5,14,7,7,-1,0,1
1532066866337,0,2,-5,-4,-6,-1,1,-1
1532066866342,2,9,18,5,6,1,-2,-1
1532066866347,-3,-6,-2,-11,8,-2,0,-1
1532066866352,-1,1,13,21,-6,-1,1,0
1532066866357,-4,-1,-7,-7,-7,-4,-5,-1
1532066866362,2,2,8,22,6,2,2,0
1532066866367,-2,0,2,-6,-3,-3,-3,-1
1532066866372,-1,-3,-2,-6,-1,0,-1,-2
1532066866377,3,5,4,5,5,1,2,0
1532066866382,-2,-4,-8,-6,-4,-1,-1,-3
1532066866387,-1,-2,-4,2,0,-1,-2,0
1532066866392,0,0,3,-3,2,0,2,-1
1532066866397,0,-2,2,5,2,0,-2,-1
1532066866402,1,2,-2,-3,-2,1,0,0
1532066866407,-1,-3,-5,-1,0,-2,-1,-1
1532066866412,-1,1,9,-4,-6,0,0,0
1532066866417,2,-1,-1,17,11,3,1,0
1532066866422,-3,-4,-7,-41,-5,-3,-3,-3
1532066866427,1,4,1,6,0,1,1,2
1532066866432,-2,-3,-6,-5,-4,-2,-5,-1
1532066866437,0,2,6,-6,-2,-1,2,-1
1532066866442,-5,0,6,7,-2,-1,-4,-1
1532066866447,1,-2,-2,8,-1,-1,-1,-1
1532066866452,-3,-6,5,-25,-4,-3,-2,-1
1532066866457,-1,-1,-5,-5,0,-1,1,-1
1532066866462,2,12,-2,4,-2,0,3,2
1532066866467,-3,-19,1,-10,-4,-3,-1,3
1532066866472,-1,11,2,10,4,2,-2,-2
1532066866477,-5,-18,-4,-6,-1,0,-1,0
1532066866482,-2,-1,-6,-1,-1,0,-3,-3
1532066866487,2,3,4,-9,2,1,2,1
1532066866492,1,-2,-2,15,-5,-2,-1,-3
1532066866497,-1,9,3,4,-2,-2,-1,4
1532066866502,3,-13,1,-2,-1,-1,1,0
1532066866507,7,-1,-7,0,-2,-4,-2,-7
1532066866512,-2,-1,8,-5,2,0,1,-5
1532066866517,-1,3,-2,-9,-6,-2,0,-3
1532066866522,3,2,1,9,-1,-1,0,3
1532066866527,5,1,4,-4,1,0,1,5
1532066866532,-9,-5,1,-2,2,0,-2,1
1532066866537,4,-7,-17,5,-4,-2,-3,-7
1532066866542,-3,-2,0,4,4,2,0,-1
1532066866547,1,0,-4,2,-2,-1,-2,-3
1532066866552,4,9,3,1,-2,1,0,2
1532066866557,6,27,2,-4,-4,-1,-1,4
1532066866562,-10,-11,5,4,5,1,0,-1
1532066866567,-11,-44,-18,12,-2,0,-1,-5
1532066866572,15,1,1,-1,8,-2,-1,1
1532066866577,-16,-8,0,-6,-1,-2,-6,-8
1532066866582,6,21,4,-3,-1,-2,0,-4
1532066866587,-8,19,1,-13,-5,0,1,4
1532066866592,11,-5,3,16,-1,2,1,5
1532066866597,-6,-3,3,-7,0,3,5,20
1532066866602,-47,-7,-11,-5,-7,-8,-11,-21
1532066866607,18,2,-5,2,2,0,1,-13
1532066866612,22,13,-1,-9,-4,-3,-2,6
1532066866617,-20,69,17,6,1,-2,0,-5
1532066866622,-30,-99,-43,-5,-2,-1,-1,-11
1532066866627,-2,16,9,1,-2,-3,-4,2
1532066866632,-8,-2,3,-2,-3,-1,-1,-6
1532066866637,8,11,4,4,-1,1,0,1
1532066866642,27,30,14,1,4,2,4,12
1532066866647,-3,-1,-2,3,3,0,3,-3
1532066866652,-5,-9,-7,-17,1,-3,-3,-1
1532066866657,1,-30,-4,-13,6,1,-1,-4
1532066866662,8,7,-1,7,-3,-2,-4,-3
1532066866667,-6,15,-2,-1,-6,-3,-3,3
1532066866672,-2,-8,-1,1,-10,-1,1,0
1532066866677,2,-18,-12,5,3,0,-3,-9
1532066866682,10,13,3,-4,0,-1,0,2
1532066866687,1,16,8,-2,3,3,0,3
1532066866692,-15,-21,-6,-7,-4,-3,-5,-4
1532066866697,2,-15,-6,7,-6,-2,-2,-6
1532066866702,1,12,1,-2,0,1,0,3
1532066866707,-2,-5,0,-3,-6,-2,-1,0
1532066866712,1,11,3,20,12,5,3,-1
1532066866717,0,1,1,-2,1,0,0,-3
1532066866722,7,4,0,-2,2,0,1,-1
1532066866727,-4,-4,-3,6,0,0,-2,-2
1532066866732,0,-3,-3,-26,-3,1,-1,0
1532066866737,2,-4,2,-3,-6,-2,-3,0
1532066866742,2,3,3,0,-1,1,0,3
1532066866747,-1,-4,-2,-4,-2,-1,0,0
1532066866752,-3,-1,-2,0,-1,-3,0,-4
1532066866757,0,-5,-4,0,-8,-3,1,0
1532066866762,0,-3,-4,-5,0,-1,-2,0
1532066866767,-2,0,-2,-2,-2,-1,-3,-1
1532066866772,-3,-1,-2,12,5,1,-1,-1
1532066866777,1,3,-1,-5,3,0,0,0
1532066866782,0,1,3,2,-3,-1,2,1
1532066866787,-1,-2,0,-4,4,0,-1,-2
1532066866792,-1,0,1,2,-3,-3,-4,-3
1532066866797,3,1,5,5,13,4,7,5
1532066866802,1,0,0,8,-6,1,-3,-3
1532066866807,-4,-2,-1,14,-4,-6,-12,-9
1532066866812,-1,1,3,-26,0,1,1,-3
1532066866817,-2,-4,-1,9,-1,-1,0,1
1532066866822,2,-2,0,9,15,0,3,2
1532066866827,1,2,-1,-7,-4,1,4,1
1532066866832,-1,-3,-2,23,-1,1,-1,2
1532066866837,-1,-2,2,-36,-4,-2,-2,-1
1532066866842,0,3,8,2,-5,-1,0,1
1532066866847,0,0,4,5,-1,-1,1,-1
1532066866852,1,4,-1,-2,5,0,1,-2
1532066866857,-1,-5,-5,0,-6,-3,-2,0
1532066866862,-1,0,2,-7,-7,0,-1,-3
1532066866867,-2,-2,-3,1,4,-2,-2,0
1532066866872,0,1,0,-3,1,1,2,1
1532066866877,-3,-6,-4,0,-7,-3,-3,-4
1532066866882,-1,-1,3,6,1,-2,-3,-2
1532066866887,0,-2,-8,-12,-3,1,3,2
1532066866892,-2,-2,2,9,3,1,2,0
1532066866897,-2,-3,-3,8,3,-1,-5,-3
1532066866902,-2,5,3,-3,1,0,-2,-2
1532066866907,-2,-2,3,3,-2,-2,-1,-1
1532066866912,-3,-3,0,-5,-6,-5,-5,-3
1532066866917,1,2,5,3,-5,-3,-1,1
1532066866922,0,1,2,-1,12,5,4,1
1532066866927,0,0,0,14,-1,1,-1,-3
1532066866932,1,0,3,0,-6,1,0,1
1532066866937,0,0,12,1,9,2,5,5
1532066866942,1,-1,4,-5,-5,-1,1,3
1532066866947,-3,-2,-2,-10,1,-2,-6,-8
1532066866952,-4,-4,-7,16,-8,-10,-12,-10
1532066866957,0,1,-5,-12,-7,0,0,0
1532066866962,-5,-7,-6,-6,-11,-4,-6,-4
1532066866967,-1,-2,-1,1,0,-1,-3,-4
1532066866972,-1,-1,-2,-8,-5,-2,-2,-2
1532066866977,1,-3,0,-7,-3,-1,0,0
1532066866982,-1,-2,0,-6,2,0,0,1
1532066866987,0,-1,-3,9,-3,0,-1,-2
1532066866992,-1,-3,-2,1,-6,-2,-3,-1
1532066866997,1,1,2,-9,8,-1,2,0
1532066867002,-1,-4,-3,-5,-4,-1,-1,-1
1532066867007,-1,-4,0,0,0,-1,-1,-3
1532066867012,-2,0,-1,2,-2,-1,0,-2
1532066867017,0,2,1,-10,-4,-1,1,-1
1532066867022,0,11,1,-1,-3,0,1,4
1532066867027,-2,-4,1,5,5,0,0,3
1532066867032,1,-20,-6,-18,-1,-3,-2,-9
1532066867037,1,2,6,-3,-3,2,4,3
1532066867042,0,-2,-3,2,0,-1,-4,-5
1532066867047,-4,11,2,-2,-9,-4,-11,-8
1532066867052,-2,2,3,16,0,-2,-1,2
1532066867057,-1,-5,-5,-14,0,-1,-2,1
1532066867062,0,2,0,-9,-3,-1,5,4
1532066867067,0,-2,1,-3,0,1,0,1
1532066867072,-1,4,0,22,-3,0,-1,1
1532066867077,0,-3,-1,-28,-1,-1,0,-3
1532066867082,-1,-2,1,-5,-4,-1,-2,-1
1532066867087,2,-1,-2,5,4,2,-1,-1
1532066867092,-2,3,5,-1,-1,0,1,-1
1532066867097,1,5,1,15,-3,-1,0,0
1532066867102,-3,-6,-6,-9,-1,0,0,-1
1532066867107,0,-1,-3,-14,-1,-2,-1,-2
1532066867112,3,11,2,-9,4,-1,0,3
1532066867117,-1,-11,1,7,-4,-1,-3,0
1532066867122,-4,-9,0,17,3,0,-1,-5
1532066867127,-1,-3,1,1,-1,-1,3,-2
1532066867132,2,5,3,1,2,1,1,2
1532066867137,-3,7,1,-3,1,-1,0,1
1532066867142,4,5,0,6,-1,-3,-1,7
1532066867147,-4,-7,1,-3,-6,0,2,2
1532066867152,10,-30,-3,1,4,-2,-3,-8
1532066867157,-6,4,-1,4,-4,-1,-3,-5
1532066867162,0,5,3,-8,7,-1,0,-1
1532066867167,-2,7,-7,-15,-9,-4,-4,1
1532066867172,-4,7,4,0,4,2,1,3
1532066867177,0,-16,-4,7,4,0,-1,-1
1532066867182,-1,4,5,1,-3,1,2,0
1532066867187,-2,-13,-1,6,2,-3,-2,0
1532066867192,-4,2,-5,-15,-8,-2,-2,-2
1532066867197,3,4,-5,-3,-2,-2,-2,-1
1532066867202,-6,-3,-2,-9,1,0,-2,-2
1532066867207,0,-3,-4,-5,-6,0,0,-2
1532066867212,-1,0,0,5,3,1,0,-1
1532066867217,-3,3,2,-19,0,-1,-2,-3
1532066867222,2,0,9,20,-5,2,0,1
1532066867227,-1,3,2,14,0,1,-2,-2
1532066867232,-2,8,-2,-7,-4,-3,-2,1
1532066867237,-2,-5,1,0,3,1,1,2
1532066867242,-1,-16,-5,-8,0,-1,0,-3
1532066867247,3,0,4,2,-1,-1,0,-4
1532066867252,0,8,2,10,1,2,-2,0
1532066867257,3,14,-1,29,-2,-1,-1,1
1532066867262,-4,-8,-6,-41,-7,-2,-3,-3
1532066867267,-2,-11,1,-7,4,0,0,-1
1532066867272,-3,4,0,-18,-6,0,3,0
1532066867277,3,-5,0,29,8,1,-2,-1
1532066867282,-4,5,3,-9,-13,-2,-2,-1
1532066867287,1,-6,3,9,9,2,1,0
1532066867292,-1,-1,2,-5,-1,-1,-1,-2
1532066867297,0,6,-3,-5,8,-1,-3,-2
1532066867302,-2,-1,-2,4,-10,-1,1,3
1532066867307,11,4,1,-17,9,1,0,-3
1532066867312,-5,7,1,-4,0,-1,-1,-3
1532066867317,-5,-12,3,9,-10,-4,-3,2
1532066867322,1,8,0,0,2,-2,-2,-1
1532066867327,-1,0,1,16,0,-1,-1,0
1532066867332,-1,-9,-2,-20,-2,0,-1,-3
1532066867337,-4,-8,-5,-12,-4,-1,0,-2
1532066867342,0,-1,0,-2,1,3,0,1
1532066867347,-4,1,-1,3,-9,-1,-1,0
1532066867352,0,1,1,11,8,-1,-1,-1
1532066867357,2,4,6,-3,-3,-1,0,-2
1532066867362,-2,-6,1,11,-2,-4,-4,-4
1532066867367,-3,1,-2,-1,5,-1,1,-1
1532066867372,-6,-17,0,7,20,-1,-1,1
1532066867377,2,1,-1,0,-21,1,-2,-2
1532066867382,2,4,3,-14,-12,-2,-3,-1
1532066867387,-2,8,1,-5,-7,-3,-2,-1
1532066867392,-4,-10,-4,3,-8,-3,-1,1
1532066867397,0,-2,-3,-1,11,-2,-1,-1
1532066867402,5,8,2,12,12,1,0,0
1532066867407,-3,-4,-2,-3,-8,0,-2,1
1532066867412,-1,-5,0,-2,-4,-1,-2,-1
1532066867417,-5,-4,2,-4,4,1,-2,-1
1532066867422,1,2,-2,-8,-1,0,1,-1
1532066867427,-2,6,-3,0,4,0,0,1
1532066867432,2,-12,0,1,-8,1,1,0
1532066867437,0,6,2,-1,-5,-1,-2,-1
1532066867442,-3,-3,3,11,1,1,2,-1
1532066867447,-4,-5,-2,-7,3,-1,-3,-1
1532066867452,3,5,-1,-2,-7,0,1,1
1532066867457,0,8,-1,-6,0,-2,-2,-3
1532066867462,-2,-5,2,6,2,0,0,-1
1532066867467,1,2,-2,1,3,0,-1,-1
1532066867472,-1,5,3,8,-9,-1,-3,-1
1532066867477,-2,-6,-3,-19,5,0,2,1
1532066867482,0,-6,-4,-2,-5,-4,-3,0
1532066867487,1,4,2,-2,2,-1,-1,-3
1532066867492,-1,-1,-2,-2,1,-3,0,0
1532066867497,2,2,0,4,2,0,-1,1
1532066867502,-1,-4,0,1,-3,0,-1,0
1532066867507,-2,-4,3,2,-4,-1,-12,-4
1532066867512,1,6,1,7,1,0,11,2
1532066867517,-2,-3,0,-9,-4,1,-1,-2
1532066867522,-1,0,-1,-4,-1,-2,0,0
1532066867527,0,-4,2,2,0,-3,0,0
1532066867532,3,3,0,-3,3,-1,-4,-4
1532066867537,-2,-4,3,-8,-9,-1,-1,0
1532066867542,0,1,2,5,8,-1,-1,0
1532066867547,-1,3,2,-2,-2,-1,0,-2
1532066867552,-2,-3,-3,-3,-1,2,-3,1
1532066867557,1,-3,0,16,7,0,2,-1
1532066867562,0,-3,-3,-28,-10,-1,-2,-5
1532066867567,-1,1,0,1,-5,0,2,1
1532066867572,-2,-5,1,7,4,0,0,0
1532066867577,-1,-9,-2,-9,1,-4,-6,-2
1532066867582,1,6,2,10,-1,0,-1,0
1532066867587,-3,-2,4,-3,-2,0,1,-1
1532066867592,-1,2,-2,-5,-3,-3,-3,-2
1532066867597,0,2,3,0,-5,-3,-1,-1
1532066867602,-1,-3,0,8,7,1,-2,0
1532066867607,-1,-3,-1,-8,-4,-1,1,-2
1532066867612,-2,0,2,4,-3,0,-3,-3
1532066867617,2,-1,0,-6,-5,-2,-1,1
1532066867622,-1,-4,-1,8,6,0,2,-1
1532066867627,0,0,1,3,0,-1,-1,1
1532066867632,1,2,-1,13,8,1,-1,-1
1532066867637,-5,0,1,-13,-1,-1,-1,-3
1532066867642,-2,1,1,-5,-7,0,-2,-1
1532066867647,-1,-2,1,11,4,-1,1,1
1532066867652,-3,1,1,1,-5,2,-1,2
1532066867657,1,-7,1,0,0,-2,1,0
1532066867662,0,9,2,4,3,-3,-3,-2
1532066867667,0,-2,1,-1,-2,-1,0,0
1532066867672,3,5,4,-8,-2,-1,-1,-2
1532066867677,-3,1,0,6,2,0,1,0
1532066867682,-4,-7,1,-2,-2,-1,0,-3
1532066867687,2,0,0,9,7,1,0,0
1532066867692,0,0,-1,-9,-7,0,-1,0
1532066867697,0,2,-3,11,-3,1,1,0
1532066867702,0,-1,1,-9,-1,-1,0,1
1532066867707,0,-1,1,-2,0,-1,1,0
1532066867712,-1,-1,0,-1,-5,-1,-2,-1
1532066867717,0,0,-1,3,2,0,1,-1
1532066867722,-1,-2,-2,1,0,-2,-1,0
1532066867727,-2,-2,1,-7,-8,-2,-2,-3
1532066867732,-3,-5,0,-10,-3,-4,-5,-2
1532066867737,1,0,3,8,-1,0,1,0
1532066867742,-4,-6,1,0,0,-1,-3,-2
1532066867747,1,3,3,-6,0,0,-1,0
1532066867752,-3,-2,-1,3,3,-3,-10,-2
1532066867757,-2,0,4,-12,-3,-1,5,-1
1532066867762,1,1,0,-6,-4,-3,1,2
1532066867767,-2,0,-2,14,-9,-1,-1,-1
1532066867772,-1,0,-2,-26,2,1,2,-1
1532066867777,-2,-5,-3,-2,-5,-1,-5,-1
1532066867782,0,2,-1,11,4,1,-1,-2
1532066867787,0,2,-3,-20,0,-1,1,-1
1532066867792,-4,-3,-4,14,-6,-5,-3,0
1532066867797,-4,1,1,-11,-1,-1,-2,0
1532066867802,2,-1,4,10,1,1,2,-1
1532066867807,0,3,2,10,-1,-3,-2,-1
1532066867812,0,-2,0,-7,1,1,2,0
1532066867817,-2,-1,-3,-4,2,-3,-1,-1
1532066867822,-4,-5,-1,5,-6,-4,-6,-1
1532066867827,1,0,3,-3,3,2,2,-2
1532066867832,-1,-3,-1,2,6,0,0,-3
1532066867837,-2,1,1,3,-11,-2,2,2
1532066867842,1,4,1,-3,11,1,-2,-1
1532066867847,1,-3,1,0,-2,0,-1,1
1532066867852,2,2,2,4,3,1,1,1
1532066867857,0,-3,0,-8,-2,-1,-2,-3
1532066867862,-2,-4,-1,-2,-5,-2,-1,2
1532066867867,-1,0,-2,-11,-1,0,-1,0
1532066867872,-2,1,2,8,-6,-2,0,0
1532066867877,1,0,0,5,2,1,-2,0
1532066867882,1,1,2,-9,3,1,2,-1
1532066867887,-3,-4,-1,15,0,-2,-3,-1
1532066867892,-1,-3,2,-15,-2,0,-1,0
1532066867897,0,-2,1,-9,-4,-3,-1,-1
1532066867902,-2,-1,0,-2,0,-2,0,-2
1532066867907,-2,-1,-3,5,-7,0,-1,0
1532066867912,2,-3,0,6,3,-1,0,-1
1532066867917,-1,-1,0,0,7,0,-1,-1
1532066867922,2,2,0,14,4,2,2,0
1532066867927,0,-1,1,-23,0,-1,0,-2
1532066867932,-2,-1,-3,-3,-8,-1,-1,-1
1532066867937,-1,-3,-1,0,0,0,-1,-1
1532066867942,-2,-2,0,-4,-6,-2,-3,-1
1532066867947,0,-3,2,5,3,-1,0,2
1532066867952,0,0,3,3,3,-1,-1,-2
1532066867957,0,-2,1,-4,-4,-1,-1,-2
1532066867962,-2,0,2,0,-1,0,-2,0
1532066867967,-3,-3,0,17,1,-2,-2,-2
1532066867972,-2,0,2,-21,-1,-1,-2,1
1532066867977,-2,-1,1,1,-6,-2,2,-1
1532066867982,0,-1,2,5,4,1,0,-1
1532066867987,-2,-3,1,-1,-1,-1,-1,-1
1532066867992,-1,-3,0,2,-1,-2,-1,-2
1532066867997,0,2,0,6,-2,1,-1,-1
1532066868002,-3,-3,2,-6,1,-1,2,-2
1532066868007,0,3,1,-10,-2,-1,1,-2
1532066868012,0,-3,0,2,0,-1,-3,0
1532066868017,1,4,-1,-12,-2,0,-1,2
1532066868022,-2,-3,-1,14,0,-1,-2,-1
1532066868027,-1,-2,-3,-2,-3,-1,-1,0
1532066868032,-1,0,1,1,8,2,2,0
1532066868037,0,1,0,13,2,0,-1,1
1532066868042,-1,-2,-1,-12,-6,-5,-3,-3
1532066868047,-1,0,2,0,-3,-1,0,-2
1532066868052,0,3,1,-2,0,0,2,-2
1532066868057,0,-2,-1,0,5,1,1,-1
1532066868062,1,4,-1,-5,-1,2,-1,0
1532066868067,-2,0,3,-7,-1,-1,-1,0
1532066868072,0,1,1,6,-3,-4,-1,0
1532066868077,1,-5,4,1,-3,0,-3,-2
1532066868082,-2,1,1,0,0,0,-1,-3
1532066868087,0,1,-1,-20,2,2,0,-1
1532066868092,-3,-1,0,6,-3,-1,-1,0
1532066868097,-1,0,2,7,-2,-4,-3,-1
1532066868102,2,0,2,-11,0,-1,1,0
1532066868107,-1,2,2,15,3,0,0,-1
1532066868112,-1,0,1,2,1,-1,0,-1
1532066868117,1,1,1,-8,-6,-4,-2,-2
1532066868122,0,-2,0,3,-1,0,0,1
1532066868127,-3,-3,-1,-3,0,-1,0,-1
1532066868132,-1,1,-2,1,-6,-2,-1,0
1532066868137,0,-5,0,-2,3,1,-1,-1
1532066868142,1,4,4,-2,-2,-1,-1,-3
1532066868147,-3,-7,-4,-5,1,1,-4,-1
1532066868152,-1,0,0,1,8,2,1,-1
1532066868157,-2,1,-2,-7,-15,-1,1,0
1532066868162,-3,-2,-2,2,4,0,1,-1
1532066868167,1,-4,2,12,-4,-1,2,4
1532066868172,-1,-4,0,-29,6,-2,-1,-2
1532066868177,-1,-1,-3,10,10,0,-1,-2
1532066868182,-1,-3,-1,-6,-8,-3,-3,1
1532066868187,0,3,-3,-1,10,0,0,-3
1532066868192,-1,-5,-3,1,-11,0,-2,-1
1532066868197,1,5,0,2,2,1,1,0
1532066868202,-4,-4,-1,-3,0,-1,0,-1
1532066868207,1,1,-2,7,1,0,-2,-5
1532066868212,0,-4,1,-5,-5,-1,0,3
1532066868217,0,5,0,5,5,-2,-2,0
1532066868222,-3,-3,2,2,-2,-1,-2,2
1532066868227,2,-4,-1,7,-7,2,2,0
1532066868232,1,5,9,11,-8,-3,-2,0
1532066868237,1,3,-2,-47,5,-2,0,-2
1532066868242,-1,3,0,20,-17,-3,-2,-2
1532066868247,-2,-1,0,-2,7,-1,-2,2
1532066868252,0,4,-3,-1,1,0,-1,-2
1532066868257,-6,-15,-1,-3,-4,1,1,2
1532066868262,4,8,1,-4,10,0,0,-2
1532066868267,0,4,6,-17,-8,-2,-1,-1
1532066868272,-3,-15,-3,17,3,-1,-1,-4
1532066868277,-2,-1,3,2,-3,-2,-2,0
1532066868282,-1,-3,-3,-5,2,2,0,2
1532066868287,3,4,-2,-1,-8,-1,-2,-2
1532066868292,0,0,-2,-5,7,-1,2,-1
1532066868297,-1,-4,3,4,-4,2,-1,-3
1532066868302,-1,1,2,10,0,1,2,0
1532066868307,-3,4,3,-4,-7,-2,-1,0
1532066868312,-2,-1,-2,-18,-5,-1,-2,-1
1532066868317,1,2,-3,11,21,3,-1,-3
1532066868322,2,-1,3,-14,-13,-2,-1,2
1532066868327,-3,-5,1,-7,3,-3,-3,-2
1532066868332,-2,-9,1,-7,-6,-1,-3,-3
1532066868337,1,0,-3,13,4,-1,0,-2
1532066868342,0,5,0,-25,-10,-2,0,0
1532066868347,-2,-10,0,-10,9,1,-3,-3
1532066868352,-1,3,0,17,-2,-4,-2,0
1532066868357,-2,4,4,-7,-10,-3,-2,-2
1532066868362,-1,12,-2,7,13,2,2,0
1532066868367,-1,-32,5,-10,-1,-3,2,3
1532066868372,5,3,3,-7,4,1,1,-3
1532066868377,-7,-1,5,42,-2,-1,1,-2
1532066868382,-5,-7,-4,-15,-3,-5,-4,-4
1532066868387,-2,5,-6,-6,-8,3,-2,2
1532066868392,-1,1,0,1,6,0,-2,1
1532066868397,1,0,0,-6,5,-1,-1,1
1532066868402,1,-3,2,5,2,2,3,-1
1532066868407,-3,6,2,-14,-7,-2,-1,-1
1532066868412,-2,-3,-2,5,-4,-3,-3,0
1532066868417,-1,3,2,20,1,0,1,-4
1532066868422,-4,1,3,-7,-2,-1,-1,1
1532066868427,-1,-2,3,8,1,0,-3,-1
1532066868432,-1,-4,1,-1,5,-2,-2,-3
1532066868437,-1,4,2,10,-6,-1,-1,1
1532066868442,-2,-2,0,-12,5,0,-2,-3
1532066868447,-1,-5,0,-5,-3,-3,-1,-1
1532066868452,-1,0,-2,-1,-1,-1,-1,0
1532066868457,-2,-4,1,-1,3,-3,-1,-1
1532066868462,1,3,0,5,-3,0,1,-2
1532066868467,2,3,-3,9,7,2,3,-2
1532066868472,-2,-6,-1,-2,-6,-3,-2,0
1532066868477,-1,3,-2,-3,0,0,0,-1
1532066868482,0,-2,0,-6,-12,-1,0,1
1532066868487,0,0,2,0,10,-1,1,-2
1532066868492,-2,-5,-1,0,-4,-1,-2,0
1532066868497,3,4,-2,-2,-10,1,1,0
1532066868502,-1,-1,-1,-1,-5,0,-1,-1
1532066868507,-2,5,0,6,-2,-1,-3,-1
1532066868512,-4,-6,-6,-1,-2,-2,0,-1
1532066868517,0,-3,-5,0,3,-2,-2,-3
1532066868522,0,1,-4,6,1,0,1,-1
1532066868527,1,-3,-3,-4,-3,2,0,-2
1532066868532,0,1,-1,-3,-2,-1,-3,-2
1532066868537,-1,-1,-1,-5,-3,-3,-3,0
1532066868542,0,1,-2,3,8,1,0,2
1532066868547,1,-1,2,0,2,-1,-1,-1
1532066868552,-2,-1,-2,16,-2,0,-2,-2
1532066868557,0,-2,-3,0,4,-1,-1,-1
1532066868562,-4,-4,2,-10,-8,0,0,-1
1532066868567,1,-4,1,-16,-1,-2,-1,2
1532066868572,5,2,5,-11,-7,1,1,-3
1532066868577,-1,-2,0,22,7,1,0,0
1532066868582,-2,2,3,0,-4,-2,-3,0
1532066868587,-2,-4,-2,-1,-4,1,-1,-1
1532066868592,0,0,1,-7,0,-1,0,-3
1532066868597,-3,2,3,-5,1,0,3,-2
1532066868602,0,-1,1,-5,0,-1,1,0
1532066868607,-2,0,0,4,-6,-3,-2,-1
1532066868612,-1,-3,-1,-6,1,1,-1,0
1532066868617,-1,5,2,-2,-6,-3,-4,-1
1532066868622,1,-3,3,5,5,-2,-1,0
1532066868627,-1,-3,-4,-1,0,0,-1,-3
1532066868632,-1,2,1,4,2,0,1,1
1532066868637,-2,2,3,-2,-7,-2,-1,-1
1532066868642,0,3,-2,2,-1,-1,-2,-1
1532066868647,-2,1,-3,2,0,-1,-2,1
1532066868652,1,-6,4,-7,-5,-2,0,0
1532066868657,-2,-2,-2,-6,-6,-1,-2,0
1532066868662,-2,-2,1,4,-2,-2,-2,-2
1532066868667,0,-2,2,-7,-2,0,-1,-1
1532066868672,-4,-3,-3,2,-1,1,-2,0
1532066868677,2,1,-2,-6,6,0,0,-1
1532066868682,-1,-8,-1,4,-4,-1,0,-3
1532066868687,0,0,3,9,1,0,-1,-1
1532066868692,-3,0,0,-16,0,-1,-1,-2
1532066868697,0,-2,4,2,1,-2,-2,1
1532066868702,-3,5,1,-4,-1,1,0,0
1532066868707,0,-6,-2,2,0,-2,-1,0
1532066868712,1,3,0,6,4,-2,-1,1
1532066868717,2,-7,8,-8,-1,-1,0,-2
1532066868722,1,1,6,-3,1,-1,-1,-1
1532066868727,-2,-2,1,-4,-5,-1,0,1
1532066868732,-1,3,1,0,-3,0,0,1
1532066868737,-2,-1,2,-1,8,1,-1,0
1532066868742,0,-2,3,2,4,-1,1,-2
1532066868747,-1,2,2,-5,-5,-2,0,0
1532066868752,-2,-4,-2,5,1,-1,-1,0
1532066868757,-1,2,-1,0,0,-3,0,0
1532066868762,-1,-1,-2,-6,-1,-1,-1,0
1532066868767,-1,0,1,5,-8,0,-1,-1
1532066868772,-2,-5,2,2,-3,0,-2,-2
1532066868777,0,-3,-2,3,3,2,-1,-1
1532066868782,-1,2,0,3,4,1,2,1
1532066868787,0,-1,1,-7,0,0,0,0
1532066868792,1,-2,1,1,-4,-2,-1,1
1532066868797,-1,-1,-2,5,-3,-1,-1,-1
1532066868802,0,-1,0,-1,1,-1,-2,-2
1532066868807,-1,-1,3,-2,-1,-3,-2,-1
1532066868812,-1,0,-1,5,3,0,0,-1
1532066868817,-2,-6,1,-8,0,-1,1,1
1532066868822,1,0,2,4,-2,-1,-2,-2
1532066868827,-3,-2,-2,-16,1,-5,-3,-1
1532066868832,-1,-3,2,0,-6,-3,-2,-1
1532066868837,-1,1,2,1,3,0,0,-2
1532066868842,-1,-6,0,3,-1,0,-1,0
1532066868847,3,-1,2,7,7,0,0,-1
1532066868852,-2,2,6,-10,-9,0,0,0
1532066868857,-1,1,-5,5,-1,0,0,-1
1532066868862,0,-1,-6,-4,-2,-1,-1,-2
1532066868867,-1,0,-4,0,3,0,1,-3
1532066868872,-3,-5,-10,-4,0,-2,1,-1
1532066868877,-1,1,-7,0,-1,-2,-2,-2
1532066868882,1,2,-4,-8,-5,-1,-3,2
1532066868887,0,-2,-2,0,-6,-1,0,0
1532066868892,0,-1,-6,1,1,-2,1,0
1532066868897,-1,-1,-2,-3,-5,-2,0,-3
1532066868902,-2,-2,-5,-2,2,1,0,-1
1532066868907,0,-2,-1,12,4,0,0,0
1532066868912,1,2,-3,-23,-5,0,-2,0
1532066868917,0,-2,-3,-3,-4,-2,-3,-1
1532066868922,-1,1,-3,-3,-1,-1,1,0
1532066868927,-5,-8,-1,12,-5,-1,-1,-3
1532066868932,2,2,-2,-6,11,1,0,-1
1532066868937,3,-1,0,5,0,-1,0,0
1532066868942,1,2,-2,-3,0,-1,-2,-1
1532066868947,1,3,-1,-2,-2,1,0,-1
1532066868952,-3,-5,3,7,2,-1,-1,-2
1532066868957,-2,-1,1,-8,-4,1,0,2
1532066868962,-2,-1,3,15,-2,0,0,2
1532066868967,1,0,-1,-21,-3,-2,-1,0
1532066868972,-3,-6,0,8,3,1,0,-2
1532066868977,-3,-1,1,4,-1,0,-1,-2
1532066868982,-1,-5,4,-1,-4,-1,-2,-2
1532066868987,0,4,2,16,2,2,-1,1
1532066868992,0,-1,1,-19,-4,0,-3,1
1532066868997,-2,-2,3,-1,0,-2,0,0
1532066869002,0,1,-1,-2,0,1,2,-1
1532066869007,1,-4,0,0,-3,-1,-1,-2
1532066869012,3,2,3,2,3,-1,-2,-1
1532066869017,-1,-1,6,-1,-7,-1,-3,-2
1532066869022,0,-1,4,-3,2,1,1,0
1532066869027,2,0,-2,-2,4,0,0,0
1532066869032,-2,0,-1,2,-2,-1,-1,0
1532066869037,-1,-2,-2,-8,-2,0,-1,1
1532066869042,1,1,1,-2,1,-4,0,0
1532066869047,-3,0,1,0,-6,0,-2,-2
1532066869052,-1,1,2,-2,3,2,-2,-1
1532066869057,0,-1,2,-7,-2,-1,-1,0
1532066869062,0,-1,-1,2,7,-1,-2,-1
1532066869067,-2,0,4,-11,-10,1,-1,2
1532066869072,1,0,2,16,-2,-2,-2,0
1532066869077,0,1,2,-1,3,-2,-2,-2
1532066869082,-3,-6,-2,1,-8,-4,-1,-1
1532066869087,0,-1,-2,-15,6,-3,-2,-1
1532066869092,1,1,4,2,-1,0,2,0
1532066869097,-3,-4,2,6,1,-1,-1,-2
1532066869102,0,0,4,-3,-5,1,-1,-1
1532066869107,-2,0,2,8,-1,-2,-1,0
1532066869112,1,1,5,10,-5,-3,-1,0
1532066869117,-1,-2,-3,-39,-5,-2,-3,-1
1532066869122,-1,-1,3,-1,-1,1,0,-2
1532066869127,-3,-3,2,-6,-3,-1,-2,0
1532066869132,1,0,1,2,2,-1,0,-1
1532066869137,0,1,0,12,-2,-1,1,0
1532066869142,-5,-6,-1,-4,-3,-1,-2,-1
1532066869147,2,-2,5,-11,1,-1,1,0
1532066869152,-1,2,2,-1,-4,2,1,-3
1532066869157,-2,0,2,24,3,0,-2,-1
1532066869162,-1,1,1,-4,-3,-1,-2,-1
1532066869167,-2,-2,-1,7,2,-1,0,-1
1532066869172,1,-3,0,18,2,0,0,0
1532066869177,2,-1,0,-46,-1,0,1,-3
1532066869182,0,3,4,1,-1,-1,-1,0
1532066869187,-1,2,3,20,-3,0,0,0
1532066869192,0,0,1,-25,4,-2,-1,1
1532066869197,2,1,-3,-4,-1,0,3,-1
1532066869202,-4,-7,-2,17,-2,-1,-2,-1
1532066869207,-3,-1,0,-6,1,-2,-4,0
1532066869212,-1,1,-1,2,0,0,-1,0
1532066869217,1,-4,1,23,1,-1,0,0
1532066869222,3,5,-1,-23,3,2,0,-1
1532066869227,-3,-3,-2,2,-2,-1,-1,-2
1532066869232,-1,-1,-5,-1,-4,-1,-3,-1
1532066869237,0,3,-3,9,2,-1,-1,1
1532066869242,0,-8,-5,-12,4,0,1,-2
1532066869247,-6,-5,-3,-10,-8,-5,-3,-1
1532066869252,-3,0,-1,0,3,-1,-1,-1
1532066869257,-1,0,-1,3,-2,-1,-2,-1
1532066869262,1,-2,1,13,-3,0,-1,-1
1532066869267,3,4,-3,-2,1,1,1,-1
1532066869272,-3,-4,-2,-14,-5,-2,-2,0
1532066869277,-4,-5,-3,13,-8,-1,-2,-3
1532066869282,-1,3,-3,-1,9,0,2,1
1532066869287,2,-2,-6,-4,1,-1,-1,0
1532066869292,0,1,-4,1,-4,0,0,-1
1532066869297,-2,0,2,5,0,-1,0,-1
1532066869302,-2,-3,-6,1,-2,-1,0,0
1532066869307,2,-2,-5,-14,-9,-1,-2,0
1532066869312,0,-3,-2,14,9,1,0,-3
1532066869317,-1,1,2,18,6,0,0,0
1532066869322,0,1,1,-30,-13,-1,-1,-2
1532066869327,-3,-5,-1,4,-2,1,-2,0
1532066869332,-2,2,1,-1,-6,0,0,0
1532066869337,-1,-4,-1,12,1,-1,1,0
1532066869342,2,4,5,1,4,-2,0,0
1532066869347,-1,3,5,-4,0,1,1,0
1532066869352,-4,-7,-4,-5,-2,-2,-3,-1
1532066869357,2,0,0,1,0,2,-2,1
1532066869362,-1,3,4,8,1,-2,0,-2
1532066869367,1,1,4,0,1,0,0,-1
1532066869372,-1,-2,0,-8,2,-1,1,-1
1532066869377,0,5,-1,-4,2,0,-1,-1
1532066869382,-2,-3,0,5,-6,-1,-2,1
1532066869387,-5,-3,-2,-8,5,-1,1,-3
1532066869392,0,-2,2,4,-3,-2,-3,-1
1532066869397,2,5,3,9,-1,-2,0,-2
1532066869402,1,-1,-2,-31,0,0,-1,-1
1532066869407,-5,-4,0,28,-1,-3,-3,-1
1532066869412,0,1,0,-13,-4,-2,-1,-2
1532066869417,-3,-2,1,-12,-3,-2,-2,0
1532066869422,3,1,0,9,8,1,-1,0
1532066869427,0,0,3,6,1,-2,-1,0
1532066869432,0,-1,0,1,1,-2,-1,0
1532066869437,0,1,4,-5,0,0,-1,1
1532066869442,-3,-1,1,3,-4,-2,-1,0
1532066869447,2,0,-1,-9,3,1,0,-2
1532066869452,0,1,2,9,0,-1,-1,-1
1532066869457,-1,0,3,-8,-5,0,-3,-2
1532066869462,0,-3,2,5,9,-1,-2,-1
1532066869467,-1,0,5,1,-9,0,1,-2
1532066869472,0,1,2,-1,2,0,0,1
1532066869477,-2,-3,-2,-4,4,-1,-1,-1
1532066869482,-1,2,1,2,-7,-1,-2,-1
1532066869487,3,5,2,3,5,-1,-1,-1
1532066869492,-3,0,2,-3,-3,0,0,0
1532066869497,-4,-3,-2,-21,-7,-3,-2,-2
1532066869502,-4,-8,1,2,-8,-3,-3,-2
1532066869507,2,3,0,1,6,-1,0,1
1532066869512,-1,-3,3,0,-4,-1,-2,-3
1532066869517,0,-1,1,1,-5,-1,-1,-1
1532066869522,-1,-2,0,-6,1,0,-1,-1
1532066869527,3,-1,1,7,0,1,-1,0
1532066869532,-1,-1,1,0,-7,-1,-1,0
1532066869537,1,-2,0,-4,-3,-1,0,-3
1532066869542,-1,1,2,3,3,-1,0,-1
1532066869547,-2,-4,-1,0,-2,-2,-2,0
1532066869552,1,0,0,-3,-6,0,-1,-1
1532066869557,-2,-1,0,-1,0,-3,-1,0
1532066869562,1,-1,4,-2,-2,-1,0,1
1532066869567,-1,-3,1,-1,0,-1,-2,-1
1532066869572,0,6,1,3,-4,-1,-1,-1
1532066869577,-1,-5,0,0,5,0,0,-1
1532066869582,0,2,-1,-4,-7,-1,-2,-1
1532066869587,1,0,-3,-4,0,-1,2,1
1532066869592,-2,-1,0,6,8,1,-1,-1
1532066869597,-1,0,-1,-4,-4,-2,-2,-3
1532066869602,-1,0,-4,-4,-6,0,0,-1
1532066869607,0,-3,0,3,-4,0,0,0
1532066869612,-2,1,-3,-9,1,0,-1,1
1532066869617,-3,-2,-3,0,-3,-1,-1,-1
1532066869622,0,-4,-2,-1,2,-2,-1,-1
1532066869627,-2,-1,1,-4,-4,-3,0,-2
1532066869632,1,-1,-3,5,4,0,1,-2
1532066869637,-3,-2,-2,-4,0,-1,-2,1
1532066869642,1,-1,-1,0,2,0,0,-1
1532066869647,-1,2,-1,-8,-4,-1,-2,-1
1532066869652,0,-6,0,5,0,-2,-2,0
1532066869657,1,5,1,-1,-1,-1,1,1
1532066869662,0,-2,1,-3,6,0,0,-1
1532066869667,0,1,-1,7,-10,-2,-2,0
1532066869672,-2,0,0,-5,-3,-2,-1,0
1532066869677,-3,-2,-1,1,-2,1,-1,-1
1532066869682,-2,0,-1,2,0,0,-3,-2
1532066869687,-3,-5,2,-2,1,-1,-1,-1
1532066869692,2,1,2,1,-1,-2,1,-1
1532066869697,-1,-2,1,0,-6,0,-2,-2
1532066869702,0,-1,-1,-4,5,-2,0,-2
1532066869707,-2,1,3,13,-2,1,0,1
1532066869712,-4,-7,0,-5,-2,-2,0,-3
1532066869717,2,2,0,-1,0,-3,-1,0
1532066869722,-1,-1,1,0,-4,0,0,2
1532066869727,0,3,3,-6,4,-1,-1,0
1532066869732,-2,-2,1,6,7,-2,0,-1
1532066869737,-1,2,2,-6,-9,1,1,2
1532066869742,1,-3,-2,3,5,-1,0,0
1532066869747,0,3,-2,-8,-3,-2,-1,0
1532066869752,-1,-1,-2,4,1,0,-2,-2
1532066869757,1,0,1,24,13,0,-2,-4
1532066869762,-3,-6,2,-35,-30,-1,-1,-2
1532066869767,-3,-10,-4,-8,-3,-4,-3,-2
1532066869772,2,6,1,-2,-6,-1,-3,-1
1532066869777,1,0,0,-6,-1,-1,0,-1
1532066869782,-2,-2,0,15,7,-1,-2,-2
1532066869787,-2,-2,3,9,2,1,3,-3
1532066869792,-2,-5,0,-14,-9,0,1,-1
1532066869797,-2,-2,0,6,-3,-2,-3,0
1532066869802,1,3,1,6,7,-1,0,-1
1532066869807,-2,-1,2,-7,-2,1,-1,0
1532066869812,0,-3,2,6,4,-1,-1,1
1532066869817,3,2,3,-6,-1,0,1,0
1532066869822,-1,-6,1,3,-4,0,-1,-2
1532066869827,2,4,1,0,0,-2,-2,-1
1532066869832,-2,0,1,-1,0,0,-1,-1
1532066869837,-2,-5,2,-8,-3,-1,-2,-3
1532066869842,-1,1,1,-1,0,0,1,0
1532066869847,1,0,1,2,3,0,1,-1
1532066869852,-2,-3,0,-2,4,-1,0,0
1532066869857,-1,1,1,-8,-7,0,1,2
1532066869862,0,1,0,-10,0,-2,-2,0
1532066869867,0,-4,0,0,-9,-2,-3,-2
1532066869872,-3,-5,2,2,3,1,-2,-1
1532066869877,-2,-3,3,-4,-3,-2,-2,-1
1532066869882,0,3,3,8,2,2,-1,-2
1532066869887,2,1,2,-4,4,0,1,1
1532066869892,0,-4,2,-8,-10,-3,-2,-1
1532066869897,1,-3,0,3,7,-1,-1,-1
1532066869902,0,3,5,4,1,-1,-1,-2
1532066869907,-2,-2,1,-3,3,0,0,-1
1532066869912,-1,0,2,1,-3,-2,-2,-1
1532066869917,-1,-4,-1,-2,-1,-1,1,0
1532066869922,-1,3,2,5,-1,0,1,-1
1532066869927,1,-8,-2,-3,-3,-1,-3,0
1532066869932,2,9,1,2,-2,0,-2,-2
1532066869937,0,0,-1,-2,-1,-1,0,-2
1532066869942,-1,-1,-1,-4,-1,-1,-3,-2
1532066869947,-2,-2,-1,-1,1,-1,0,0
1532066869952,-1,-3,-1,5,-1,1,0,0
1532066869957,0,1,0,-2,-1,-3,0,0
1532066869962,-1,-4,-1,-2,-1,-3,-3,-1
1532066869967,-1,-2,-2,1,1,-3,-2,-3
1532066869972,0,4,0,3,-1,-1,1,-1
1532066869977,-3,-4,-1,4,1,-1,-1,-2
1532066869982,-1,-1,-3,-1,-3,0,-1,1
1532066869987,0,1,0,4,-1,0,0,-1
1532066869992,-1,-2,-4,-15,-4,0,1,-1
1532066869997,1,3,-1,2,3,0,-2,0
1532066870002,-1,-4,-3,8,-1,0,0,-2
1532066870007,0,5,-3,-5,2,1,0,0
1532066870012,-1,-2,-2,-1,-6,-4,-2,0
1532066870017,1,3,2,-1,1,1,0,-1
1532066870022,-3,-2,1,11,1,-1,0,-2
1532066870027,-1,-4,1,7,0,-2,0,-2
1532066870032,1,0,-1,-4,4,0,1,-1
1532066870037,-1,-2,-2,-9,-2,-1,0,-1
1532066870042,1,3,1,1,-1,-3,-2,-1
1532066870047,-2,-1,0,1,-3,0,1,1
1532066870052,-2,-2,-2,5,6,1,0,1
1532066870057,-2,-4,-1,-1,-6,-3,-3,-1
1532066870062,1,2,-1,-4,1,-1,1,-1
1532066870067,-2,-1,1,-3,-2,-2,-1,-1
1532066870072,-2,-6,0,-2,1,-2,-1,0
1532066870077,-2,0,2,-1,-3,-3,-1,0
1532066870082,-2,-5,1,-2,1,-1,-1,0
1532066870087,-2,0,1,-6,-2,-1,-2,-1
1532066870092,0,-2,-1,6,-5,0,-1,0
1532066870097,1,-4,0,6,1,-1,-1,0
1532066870102,2,5,3,-15,1,0,-1,-1
1532066870107,-2,-4,0,-1,-4,-2,-2,-1
1532066870112,-3,-2,2,3,-4,-2,-3,-2
1532066870117,1,0,2,3,4,3,-1,0
1532066870122,1,-5,-1,-12,-3,-2,-1,0
1532066870127,0,1,1,-1,0,0,0,-1
1532066870132,-1,-1,1,-1,0,-1,0,-1
1532066870137,-1,0,-1,-1,-3,-1,0,1
1532066870142,-3,1,0,4,0,-1,-1,-1
1532066870147,-1,-3,1,4,2,1,0,-2
1532066870152,1,2,1,1,7,-2,-2,1
1532066870157,-3,-2,-1,-8,-3,-2,-2,-1
1532066870162,-1,-2,1,3,0,-1,0,0
1532066870167,0,1,0,-5,-7,-1,-1,0
1532066870172,-2,-2,0,-7,3,2,-1,-2
1532066870177,-2,1,2,3,-2,-2,-1,0
1532066870182,0,-1,-1,-5,0,0,-1,0
1532066870187,0,0,1,3,3,-1,-1,0
1532066870192,0,1,4,-2,-4,0,0,0
1532066870197,-2,-2,0,-2,-2,0,-1,-2
1532066870202,-1,-3,0,-3,-8,-3,-2,-2
1532066870207,-2,0,-1,3,8,1,-1,0
1532066870212,1,3,3,-5,-2,0,-1,-1
1532066870217,-1,-3,1,-1,-3,-1,-1,0
1532066870222,-2,1,1,8,-4,-3,-2,-2
1532066870227,0,-2,-1,1,8,2,-2,-1
1532066870232,1,-4,-2,-2,-4,-3,-2,-1
1532066870237,0,2,4,-1,3,0,-1,-1
1532066870242,0,-1,2,-1,-1,0,-1,0
1532066870247,-1,-1,1,2,-4,-1,2,-1
1532066870252,0,2,1,-1,4,2,1,0
1532066870257,-3,-2,-1,0,-1,-1,-1,-2
1532066870262,2,1,0,0,1,1,-1,1
1532066870267,-1,-1,2,-5,-3,-1,-2,-2
1532066870272,-1,1,1,2,-4,-1,0,0
1532066870277,-1,-1,0,-1,-6,-1,2,-1
1532066870282,-1,-2,2,-2,1,-1,0,-1
1532066870287,-2,-1,2,-1,2,1,-1,1
1532066870292,0,0,0,-4,-4,-1,-2,-1
1532066870297,-1,-2,-2,3,0,-1,-1,-2
1532066870302,-1,0,-1,2,3,2,-1,-1
1532066870307,1,1,0,-10,-3,-1,-2,-1
1532066870312,1,-3,0,-2,-2,-2,-1,-1
1532066870317,-2,2,1,1,4,-1,-1,0
1532066870322,-3,-7,0,-7,-4,-3,1,-1
1532066870327,-1,2,0,2,-3,-2,-1,-3
1532066870332,-2,0,-1,1,1,0,-1,0
1532066870337,1,-4,-2,-4,-4,-1,0,-2
1532066870342,0,1,-5,0,4,-1,-1,0
1532066870347,-2,-2,-2,-1,0,-2,0,-3
1532066870352,-1,-2,0,-1,0,-1,0,0
1532066870357,2,0,2,7,-1,0,0,0
1532066870362,-2,3,1,3,-1,1,0,-1
1532066870367,-2,-1,-4,2,-4,-2,-2,1
1532066870372,-2,0,-1,-2,-1,2,-2,-2
1532066870377,-1,2,0,13,2,-1,-2,-2
1532066870382,-2,-6,1,-24,-2,1,-1,1
1532066870387,2,4,0,4,-2,1,-1,2
1532066870392,0,0,-1,-1,2,0,1,-1
1532066870397,-2,-1,-3,-4,-1,0,-2,0
1532066870402,-2,-2,3,9,-2,0,-1,-2
1532066870407,1,-3,3,0,3,0,0,-2
1532066870412,0,0,-1,-5,-4,-3,-2,0
1532066870417,-2,-4,1,-2,-2,1,0,-2
1532066870422,3,1,-3,-2,-2,-1,-1,2
1532066870427,-1,-2,-1,1,0,-2,-2,-1
1532066870432,-2,0,0,6,-2,-2,0,-1
1532066870437,0,1,2,-6,0,-2,-1,1
1532066870442,-5,1,0,13,0,0,-1,-1
1532066870447,-1,-4,1,-35,-6,-3,0,-1
1532066870452,3,1,2,30,1,0,-1,0
1532066870457,-1,-2,0,-6,-4,-1,0,1
1532066870462,3,2,5,-6,6,1,-1,1
1532066870467,-3,-2,-2,0,-1,1,0,-1
1532066870472,-1,-4,1,-2,-1,-1,-1,0
1532066870477,-3,0,-2,-2,-2,-1,-2,-1
1532066870482,-1,-1,-1,7,-1,-1,-1,-1
1532066870487,-1,0,3,5,1,-1,0,-1
1532066870492,1,-1,1,-14,-5,-1,1,-1
1532066870497,2,2,6,18,3,0,-1,0
1532066870502,0,0,5,-23,-2,-1,0,-1
1532066870507,-5,-6,0,-7,-8,-3,-3,1
1532066870512,-2,2,2,6,5,2,0,0
1532066870517,-1,-3,0,-10,3,-1,0,-1
1532066870522,2,1,2,11,-2,0,-1,-1
1532066870527,-1,1,1,10,-1,-1,-1,-3
1532066870532,-1,-7,-4,-17,0,-3,-3,-2
1532066870537,1,4,-1,-2,-1,1,1,-1
1532066870542,-2,0,-2,6,2,0,0,0
1532066870547,-3,-8,1,2,-10,-3,-5,-1
1532066870552,-1,2,2,6,1,1,0,1
1532066870557,1,-1,-2,9,-1,0,0,-1
1532066870562,1,0,-2,-18,-4,-2,-2,-2
1532066870567,0,0,4,2,0,0,-2,0
1532066870572,-2,1,1,-3,-2,0,0,0
1532066870577,-2,-5,0,-9,-2,-1,-2,-2
1532066870582,-1,0,-3,9,-1,0,1,-1
1532066870587,0,-1,0,4,4,0,0,-2
1532066870592,-3,-2,0,-2,-1,-2,-2,-1
1532066870597,3,1,3,-8,-2,0,0,-1
1532066870602,-2,-2,-6,-1,1,2,-3,1
1532066870607,-1,1,-6,-9,-1,1,0,-1
1532066870612,-3,-2,2,14,-3,-3,-1,0
1532066870617,-2,-1,-2,-9,-1,-2,-1,0
1532066870622,-1,-4,-2,0,-2,-1,-2,-2
1532066870627,-1,0,-1,5,-3,1,-1,1
1532066870632,2,0,-1,-7,-2,1,0,-4
1532066870637,-1,-2,-3,-1,0,-1,-2,1
1532066870642,-3,-3,3,9,-5,-2,0,-2
1532066870647,1,3,1,24,7,1,-1,0
1532066870652,-2,-1,-3,-43,-1,-1,0,0
1532066870657,-2,-2,-2,-2,-1,1,-2,1
1532066870662,-1,-1,2,1,4,1,0,-1
1532066870667,1,8,0,7,-1,0,1,-2
1532066870672,-4,-2,-1,10,0,-1,-2,-2
1532066870677,1,5,-3,-1,-3,0,-2,-1
1532066870682,1,-2,-1,-5,0,-2,0,1
1532066870687,3,0,5,-3,5,0,1,0
1532066870692,-3,-4,1,2,-4,-1,-1,-1
1532066870697,-2,-5,1,-4,-5,0,0,-2
1532066870702,1,5,3,22,4,0,1,-3
1532066870707,-2,-6,-9,-36,-3,0,0,0
1532066870712,1,-2,-2,5,1,-1,0,0
1532066870717,-4,-3,2,-5,-2,-2,0,-2
1532066870722,1,-3,0,0,-2,-1,-1,1
1532066870727,-1,-3,4,5,0,-2,-2,-1
1532066870732,1,3,3,-3,-1,2,-2,0
1532066870737,-2,-4,3,11,2,-1,-3,-1
1532066870742,-2,-2,3,-8,-3,-1,-1,-1
1532066870747,-1,2,0,-13,-5,-2,2,-1
1532066870752,0,0,-3,5,1,-1,-2,-2
1532066870757,0,-2,1,12,3,-1,-1,0
1532066870762,-4,-3,-2,-13,-7,-4,-3,-2
1532066870767,2,0,0,4,9,1,-2,1
1532066870772,-1,-2,-2,-12,-3,-1,0,0
1532066870777,0,0,0,15,14,-1,-1,-2
1532066870782,-1,2,-1,-2,-10,3,2,0
1532066870787,-3,-4,-5,-9,-2,-1,-2,-4
1532066870792,0,1,-3,14,-8,-2,-1,1
1532066870797,-2,-4,-3,-9,1,1,-2,1
1532066870802,1,1,-2,-1,8,-2,0,0
1532066870807,0,0,4,10,-7,-2,-2,-1
1532066870812,2,1,-1,-4,5,0,1,0
1532066870817,1,0,3,-5,-8,-2,-1,-1
1532066870822,0,-3,-4,-2,0,1,-2,-1
1532066870827,0,1,2,1,-2,-3,0,0
1532066870832,-1,2,3,-2,1,-1,0,-2
1532066870837,-2,-6,-1,-16,-5,-1,0,-1
1532066870842,-2,1,2,3,1,-1,-1,0
1532066870847,-2,-3,-3,-3,0,-2,-3,-1
1532066870852,-1,-2,-2,-2,-1,0,-1,-1
1532066870857,-1,3,4,16,2,0,0,1
1532066870862,1,-1,1,-19,0,-1,1,-1
1532066870867,-2,-1,1,8,3,-1,1,-1
1532066870872,-1,-1,0,-2,-5,-1,-2,-1
1532066870877,0,2,-3,-17,0,0,-1,-1
1532066870882,0,-6,0,12,1,-2,-2,0
1532066870887,1,5,1,10,9,-2,-2,0
1532066870892,0,-2,-2,-19,-13,0,-1,-1
1532066870897,-3,-2,-1,2,-2,0,1,-2
1532066870902,-1,1,2,16,-5,-2,0,-1
1532066870907,2,0,-4,-41,2,-1,-2,0
1532066870912,-1,-2,2,4,4,-1,-2,-2
1532066870917,-1,1,-1,0,-4,-2,0,1
1532066870922,-4,-1,-1,0,1,0,-1,-1
1532066870927,-4,-6,-2,5,-5,0,-2,-1
1532066870932,1,2,3,6,5,-1,-2,-1
1532066870937,0,0,0,-14,-6,-3,-1,-1
1532066870942,-3,-6,-5,-1,0,-2,-2,-2
1532066870947,0,0,1,6,-5,1,1,-1
1532066870952,-1,-1,-1,0,1,-1,0,0
1532066870957,0,0,-4,-2,-2,1,-2,0
1532066870962,1,1,3,4,-1,-2,-1,-2
1532066870967,-2,0,1,0,-2,0,2,0
1532066870972,-2,-2,1,6,2,-1,-1,-3
1532066870977,1,3,1,1,6,-2,0,-1
1532066870982,0,0,-3,-10,-9,-3,-3,-2
1532066870987,-4,-5,-1,2,-11,-1,-1,-1
1532066870992,-1,-5,-2,3,5,-2,-2,0
1532066870997,2,2,0,-2,-2,-1,-1,-1
1532066871002,1,3,2,6,1,-3,-2,-1
1532066871007,-2,-2,-1,0,1,-1,0,-1
1532066871012,0,0,-2,-2,-5,0,1,-2
1532066871017,-2,-3,-2,7,5,1,-1,-1
1532066871022,-1,-3,-4,-5,-2,-3,-1,-1
1532066871027,-3,0,1,4,-5,-2,-2,-2
1532066871032,2,-5,-2,8,-1,-2,1,1
1532066871037,2,1,1,-18,-8,-2,-2,-1
1532066871042,0,-1,-3,5,12,2,1,1
1532066871047,1,1,4,6,-1,-2,0,-1
1532066871052,-3,0,3,5,0,0,-1,0
1532066871057,1,0,-2,-5,0,-2,1,-2
1532066871062,0,-2,0,-6,-10,-1,-2,-2
1532066871067,0,-1,-2,5,4,-1,-1,-2
1532066871072,-3,-2,-3,-2,2,1,-2,0
1532066871077,-1,-1,2,9,11,1,0,-3
1532066871082,-1,-1,2,-5,1,1,-1,-1
1532066871087,-2,-2,-1,-1,-12,-1,0,1
1532066871092,3,3,5,13,13,1,0,-1
1532066871097,-3,-4,-1,-22,-6,-2,-2,-2
1532066871102,-2,1,-1,17,5,1,1,0
1532066871107,2,2,0,-13,3,-1,0,-1
1532066871112,0,1,-2,-5,-11,2,-1,0
1532066871117,-2,-6,1,10,5,0,-1,0
1532066871122,-1,-4,-7,-9,-7,-1,0,0
1532066871127,3,4,2,1,-1,-1,0,0
1532066871132,-1,-2,-3,-12,-1,-2,1,0
1532066871137,-3,-2,-1,1,-5,0,-2,1
1532066871142,-1,1,-5,-9,-8,-4,-3,0
1532066871147,-1,-8,-4,2,5,0,0,-1
1532066871152,1,4,2,-3,2,-4,-1,-3
1532066871157,3,1,-1,6,-6,0,0,-1
1532066871162,0,0,-1,7,5,1,0,-3
1532066871167,1,1,0,-25,-2,1,2,0
1532066871172,-7,-8,-1,-5,-22,-5,-5,0
1532066871177,-5,-6,-10,-8,-12,-3,-2,0
1532066871182,-1,-4,2,-14,-3,-1,-1,-3
1532066871187,2,0,0,4,3,0,-1,-2
1532066871192,-1,0,2,5,2,0,-1,-3
1532066871197,0,5,4,-2,17,0,0,-2
1532066871202,-6,-14,-13,-23,-18,-2,0,0
1532066871207,-2,-7,-2,7,-1,-1,-3,1
1532066871212,1,0,0,-5,-4,0,0,1
1532066871217,1,2,7,7,1,0,-1,0
1532066871222,1,4,2,3,12,2,0,1
1532066871227,-1,3,1,3,-1,0,0,0
1532066871232,-1,-3,-1,-2,-1,-1,-2,0
1532066871237,0,0,-2,3,-2,-1,0,-1
1532066871242,1,4,7,-3,1,0,1,-1
1532066871247,1,4,-1,12,-2,1,-2,0
1532066871252,0,2,0,-11,2,0,1,0
1532066871257,-2,-3,0,-3,-4,-2,-2,-1
1532066871262,0,1,3,2,-1,-2,-2,-1
1532066871267,-1,1,0,1,-2,-1,-1,-1
1532066871272,1,1,-1,0,2,-1,0,-1
1532066871277,-1,0,2,1,-1,1,0,0
1532066871282,0,-3,-2,0,-3,-1,-1,0
1532066871287,-2,-4,0,6,3,-2,-1,-2
1532066871292,0,2,1,0,-4,0,-2,-2
1532066871297,-1,-2,-2,-2,0,0,1,0
1532066871302,0,2,3,1,1,-2,1,0
1532066871307,0,-2,-3,-8,-1,0,0,0
1532066871312,0,0,-4,0,-1,-1,0,-1
1532066871317,-2,-1,-2,-2,-3,-2,0,0
1532066871322,-2,1,1,2,6,-1,-1,-1
1532066871327,1,2,3,1,-2,0,2,0
1532066871332,0,2,1,0,4,0,1,-1
1532066871337,-1,-2,-1,-1,1,-1,-2,0
1532066871342,1,0,1,-4,-10,0,0,0
1532066871347,-2,-4,-2,-1,2,-1,-2,-1
1532066871352,2,1,-2,2,0,-2,-2,-2
1532066871357,-2,-2,-3,-4,-2,-1,-1,-1
1532066871362,1,1,1,3,0,-1,-1,-1
1532066871367,-1,0,1,1,-1,0,0,-1
1532066871372,-1,-2,1,3,3,0,0,-2
1532066871377,2,2,1,2,0,0,0,-1
1532066871382,-1,1,0,0,-2,-1,0,-2
1532066871387,0,0,3,-2,3,0,-1,-1
1532066871392,-4,-4,0,-6,1,-2,-2,-1
1532066871397,-1,2,3,4,-2,0,-1,-1
1532066871402,-1,-3,2,0,4,-1,-2,0
1532066871407,0,2,1,-2,-6,-3,-1,-1
1532066871412,-1,-2,1,4,0,1,2,-1
1532066871417,1,-1,1,-9,0,0,-1,-3
1532066871422,-1,1,0,6,-2,0,0,0
1532066871427,-4,0,2,-11,3,-1,-1,-2
1532066871432,-1,-2,-1,-2,-3,-3,-2,0
1532066871437,0,2,1,1,3,1,1,1
1532066871442,-4,-3,0,-2,-2,-2,-2,-2
1532066871447,3,-1,-2,-1,-5,1,-2,-1
1532066871452,3,6,3,0,0,0,-1,-2
1532066871457,0,-1,-1,1,-2,2,-1,-2
1532066871462,-2,-1,1,3,-1,-2,-1,0
1532066871467,-4,-3,0,3,2,-1,-2,0
1532066871472,-2,-4,0,3,2,-1,-1,-1
1532066871477,-4,-3,-2,-3,-11,-2,-4,-2
1532066871482,-2,-2,-5,-5,3,1,-2,-1
1532066871487,-1,-2,0,-9,-9,-2,-1,-2
1532066871492,-1,3,3,9,6,0,0,-1
1532066871497,0,0,-1,-1,-1,0,0,-1
1532066871502,0,-2,-1,-2,1,-1,-1,-2
1532066871507,-2,-3,-3,3,-1,-1,-1,0
1532066871512,-2,-2,-2,-5,-4,-2,-1,-1
1532066871517,-2,-2,1,11,2,0,0,1
1532066871522,2,0,1,-19,-4,-1,-3,1
1532066871527,-3,-1,0,13,4,1,-2,-1
1532066871532,0,-2,-5,-9,-11,0,1,1
1532066871537,-2,-3,-3,-5,0,-3,-3,-1
1532066871542,2,2,1,5,1,0,0,-1
1532066871547,0,-3,-4,-9,1,-1,0,-2
1532066871552,-3,-3,1,-4,-1,2,-1,0
1532066871557,-2,-4,1,-1,1,0,-2,-1
1532066871562,1,4,2,16,1,0,0,0
1532066871567,-1,-4,-1,-20,-3,-1,-2,-1
1532066871572,1,1,-2,1,-5,-2,-3,-1
1532066871577,0,-2,-4,2,3,1,2,-2
1532066871582,-3,-4,1,-11,0,1,-2,-1
1532066871587,-1,0,0,7,2,0,-1,-2
1532066871592,1,-1,-1,0,1,-3,-1,-2
1532066871597,0,1,2,-4,-3,-1,-1,0
1532066871602,-1,1,-1,3,-2,-2,0,-1
1532066871607,-3,-3,-1,-2,-4,-2,-1,-1
1532066871612,-2,-1,0,4,6,1,0,0
1532066871617,-1,-1,-2,2,-2,-1,0,0
1532066871622,-1,-3,-3,-2,1,0,0,-1
1532066871627,0,1,0,8,-1,0,-1,-2
1532066871632,1,0,-1,0,1,-1,1,-2
1532066871637,-1,0,2,-3,-3,-2,-2,0
1532066871642,-3,-6,-1,-3,-2,-2,-3,-2
1532066871647,2,2,2,17,0,0,0,-1
1532066871652,0,2,-1,-23,2,1,-1,0
1532066871657,-1,2,2,4,-1,-2,-2,0
1532066871662,0,-2,3,-2,-2,-1,2,-1
1532066871667,-1,-1,-2,-1,3,-1,-2,0
1532066871672,-2,-2,1,2,-2,-3,-1,-2
1532066871677,1,-1,-1,-9,-2,1,0,1
1532066871682,0,3,0,4,-7,0,-2,-2
1532066871687,-3,-3,1,1,2,0,-1,0
1532066871692,-1,-1,-1,-6,3,0,-1,0
1532066871697,-2,-3,0,2,1,-1,0,-2
1532066871702,-1,-3,-1,7,-4,-2,0,0
1532066871707,1,2,0,-2,-3,0,0,-1
1532066871712,-2,0,-1,-6,-3,-1,0,-1
1532066871717,-2,-2,1,8,6,-1,1,-1
1532066871722,-3,-4,-4,-14,0,-3,-4,0
1532066871727,0,-2,-4,-6,-5,-1,0,-1
1532066871732,-3,-5,-3,-2,-3,-1,-2,-1
1532066871737,0,0,0,12,-5,0,-1,-1
1532066871742,-2,-2,2,-5,0,-2,-2,0
1532066871747,-1,0,1,0,4,2,-1,0
1532066871752,1,-1,3,1,-3,-2,-1,0
1532066871757,-2,-4,-6,-1,-2,-2,-2,-2
1532066871762,1,0,3,5,3,0,1,-2
1532066871767,-1,-5,-5,-5,-7,-2,0,-2
1532066871772,-1,-1,1,9,4,2,2,0
1532066871777,1,3,1,-17,-5,-2,-1,1
1532066871782,-1,2,0,10,8,0,-1,-1
1532066871787,0,-5,-1,-1,-4,-2,-2,-3
1532066871792,-1,0,0,2,-4,-3,0,-2
1532066871797,-1,-2,-3,-4,-7,-2,-1,1
1532066871802,0,4,1,-6,-2,2,1,0
1532066871807,-2,-1,2,1,4,-2,-3,0
1532066871812,-2,-4,-1,4,-3,-1,-4,-2
1532066871817,-3,-4,-1,-3,-1,1,0,-1
1532066871822,2,1,0,13,2,0,2,-2
1532066871827,-1,3,5,-26,-9,-4,-3,-1
1532066871832,-1,-1,3,9,2,-1,-3,1
1532066871837,-2,-1,-2,-8,0,0,-2,-2
1532066871842,-3,-5,0,-1,-2,-2,-3,-1
1532066871847,0,-1,-2,7,6,1,1,-1
1532066871852,1,3,2,-4,-5,0,-1,-1
1532066871857,0,-1,-1,-1,1,-3,-1,-1
1532066871862,-1,-3,-1,2,-5,-1,-1,-1
1532066871867,0,-2,-2,3,3,-1,0,0
1532066871872,0,-1,-1,-11,-1,-1,-1,-1
1532066871877,-1,-3,1,8,1,0,-1,-2
1532066871882,1,3,-1,-2,-4,-1,-1,0
1532066871887,0,-3,-1,0,1,0,0,0
1532066871892,0,0,-2,-1,-2,-1,1,-1
1532066871897,2,2,5,0,-1,-1,0,-2
1532066871902,-3,1,-1,2,8,2,1,0
1532066871907,-2,-1,1,12,-3,0,-1,-1
1532066871912,3,1,-3,-5,-2,-1,0,-1
1532066871917,-1,2,1,1,-4,-1,-3,0
1532066871922,-1,0,1,-2,-2,-2,0,-1
1532066871927,0,-1,-4,-6,2,0,0,-1
1532066871932,-2,-5,0,2,-3,1,1,-1
1532066871937,-1,0,-1,-5,-1,0,0,0
1532066871942,-1,-2,3,3,-5,-1,-2,0
1532066871947,2,1,-1,-4,6,1,1,-2
1532066871952,-4,-10,-9,2,-13,-2,-3,0
1532066871957,0,1,1,-2,3,-1,0,-2
1532066871962,-3,-4,-3,-3,-3,-1,-2,1
1532066871967,-1,0,-1,4,-4,-2,-1,-2
1532066871972,2,-2,3,2,5,-1,0,-2
1532066871977,-1,0,-2,13,8,-2,0,-3
1532066871982,-3,-4,-8,-29,-17,-4,-5,1
1532066871987,-2,-1,2,4,-3,0,-1,-1
1532066871992,0,5,5,8,5,2,0,-1
1532066871997,-2,-3,-1,4,-1,-1,-2,-2
1532066872002,3,4,2,-1,4,1,0,-1
1532066872007,0,-2,3,-5,-1,-2,0,0
1532066872012,-1,3,1,-1,5,2,0,1
1532066872017,0,-1,2,-2,0,1,-2,-2
1532066872022,-1,-1,-3,3,-1,-1,-1,0
1532066872027,-2,-1,0,4,-2,0,0,0
1532066872032,-1,-3,-4,-6,2,-2,1,-1
1532066872037,0,3,-2,-9,-4,0,0,0
1532066872042,1,-5,1,-2,1,1,0,-1
1532066872047,-1,-2,-4,2,-7,-4,-2,-2
1532066872052,-1,1,4,3,1,-1,-2,-2
1532066872057,0,-2,0,-14,-5,-2,-1,-1
1532066872062,0,3,2,3,-2,-2,-1,0
1532066872067,-2,-4,2,3,3,1,-1,-1
1532066872072,-2,-2,0,1,2,-1,-1,-1
1532066872077,0,0,2,-7,-6,0,-2,0
1532066872082,-1,-2,-2,10,8,-2,2,-1
1532066872087,1,2,0,-8,-5,-2,-4,1
1532066872092,-3,-3,-3,-6,-1,-1,-1,0
1532066872097,1,-1,-1,0,0,2,-1,0
1532066872102,0,-2,0,2,1,1,0,-1
1532066872107,-1,-1,-1,2,-1,1,-1,-2
1532066872112,1,-1,-1,-14,-2,-3,0,-2
1532066872117,-1,0,-2,6,-1,-1,0,-1
1532066872122,0,0,0,-5,3,0,0,0
1532066872127,-1,1,0,3,-5,-2,0,-1
1532066872132,-1,-2,-1,-1,5,0,-2,-1
1532066872137,-2,-1,1,-1,-1,-1,1,1
1532066872142,-2,-3,-1,6,-2,-2,-4,-1
1532066872147,0,5,2,-10,-1,-1,-2,-1
1532066872152,1,0,1,2,-6,-1,1,0
1532066872157,-1,-3,-4,3,6,-2,-1,-2
1532066872162,-4,-1,2,4,2,1,-1,0
1532066872167,1,2,1,-6,-2,-2,0,0
1532066872172,1,3,2,0,-2,-1,-1,0
1532066872177,-2,0,2,6,-2,-2,-1,-1
1532066872182,1,2,0,-3,-3,-3,-2,-1
1532066872187,-2,-2,-3,-2,2,-1,0,-2
1532066872192,0,1,1,1,-2,1,2,-1
1532066872197,-2,-3,1,11,0,0,1,1
1532066872202,0,0,-3,-16,-1,0,0,0
1532066872207,-2,-4,-1,-2,-2,-1,-1,0
1532066872212,-3,-4,0,-6,-5,-3,-1,1
1532066872217,0,0,-2,-2,1,-1,0,-2
1532066872222,1,2,2,11,-3,-1,-1,-3
1532066872227,-1,0,-1,-4,1,0,-3,-3
1532066872232,-2,-2,0,5,-3,-2,-1,0
1532066872237,-1,-2,0,8,3,0,0,-1
1532066872242,0,0,-2,-20,-7,0,-1,0
1532066872247,1,1,0,6,6,0,0,0
1532066872252,-3,-7,-3,-3,2,0,-3,-2
1532066872257,-2,-1,1,-14,-5,-1,0,-2
1532066872262,-2,-7,-4,1,-3,-2,0,-2
1532066872267,3,2,1,8,-2,2,0,0
1532066872272,1,7,3,2,0,-1,-1,-4
1532066872277,1,-1,-2,7,1,-2,0,-3
1532066872282,-3,-5,-1,0,5,0,-1,-1
1532066872287,-2,0,0,-10,-3,-1,0,1
1532066872292,0,1,-3,5,-2,-1,0,-1
1532066872297,-2,1,0,-4,0,0,0,-1
1532066872302,1,3,2,5,0,-1,0,-1
1532066872307,-2,-4,-5,-2,-1,-2,-2,0
1532066872312,0,0,-1,-3,1,1,-2,-1
1532066872317,-2,-5,-6,-7,0,-2,-2,0
1532066872322,-2,-2,-1,-4,-1,0,-1,-2
1532066872327,1,2,1,-2,1,0,0,0
1532066872332,-3,-5,1,5,4,0,0,0
1532066872337,0,1,1,-6,-5,-2,-2,0
1532066872342,1,3,1,3,5,-1,1,1
1532066872347,-4,-4,-2,-7,-4,1,-1,0
1532066872352,-1,0,-1,-7,-1,-1,1,0
1532066872357,-1,0,1,6,-5,-3,-3,0
1532066872362,0,-2,-1,13,-1,-2,-1,-4
1532066872367,1,2,1,-3,2,-1,-1,0
1532066872372,1,2,0,0,-3,-1,-1,-1
1532066872377,1,0,-1,-3,0,1,1,-1
1532066872382,0,-3,-3,6,-1,0,0,0
1532066872387,0,-2,-3,-8,1,-1,-1,-2
1532066872392,1,-1,3,5,4,1,-1,0
1532066872397,0,0,-3,-3,-8,0,-2,0
1532066872402,-1,-1,0,1,3,-1,-1,-1
1532066872407,-3,-1,0,10,-3,-3,-1,-3
1532066872412,-1,-2,-5,-17,-1,-1,0,0
1532066872417,-1,-5,2,11,3,-1,-2,1
1532066872422,1,4,2,-12,-6,-1,-1,-2
1532066872427,-1,-4,-2,4,-3,-3,-2,1
1532066872432,0,1,0,1,-2,-1,-2,-1
1532066872437,0,2,-1,5,1,0,1,-2
1532066872442,-1,-6,-3,-19,-1,-2,0,-1
1532066872447,-1,-5,0,-19,0,-1,-1,-2
1532066872452,-4,-2,3,14,-1,-1,-2,-2
1532066872457,0,-2,-1,-7,-3,-1,-1,-1
1532066872462,-2,1,3,10,0,2,0,0
1532066872467,2,1,2,-1,3,0,-1,-1
1532066872472,0,-1,0,2,-2,-1,-1,-1
1532066872477,0,-1,2,-13,-3,-2,-2,-1
1532066872482,1,-1,-1,1,-1,0,-1,-1
1532066872487,0,2,0,2,1,0,0,1
1532066872492,0,1,1,0,2,0,-3,-1
1532066872497,-1,-1,0,4,0,1,-1,-1
1532066872502,0,-1,-1,-2,-2,-2,-2,1
1532066872507,0,0,1,-8,-2,-1,0,0
1532066872512,-1,-2,0,9,4,0,2,-1
1532066872517,-3,-1,-1,-2,-2,-1,-1,-2
1532066872522,-1,1,5,-2,-2,0,-1,-1
1532066872527,1,-3,0,-4,1,-1,1,0
1532066872532,-1,-1,0,-1,-5,-2,-3,0
1532066872537,-1,-2,0,-4,-1,1,-1,-1
1532066872542,-1,1,0,8,-4,-2,-1,-1
1532066872547,-1,0,-1,-4,4,-1,0,-1
1532066872552,1,2,0,-3,-4,0,1,0
1532066872557,-2,-3,-2,0,-3,-1,-2,1
1532066872562,-1,-4,-3,-6,-1,-1,-1,-2
1532066872567,1,0,-1,-3,-5,0,0,0
1532066872572,-3,-3,-1,8,4,-2,-2,-1
1532066872577,0,0,-2,-2,0,-1,0,1
1532066872582,-1,-2,-2,0,-8,-2,-1,0
1532066872587,-2,0,-3,-1,4,-1,-2,-1
1532066872592,2,-1,-1,-10,2,1,2,0
1532066872597,-1,0,2,13,1,-3,-2,0
1532066872602,-1,-1,-1,-11,-2,0,1,-2
1532066872607,-2,-2,1,7,-1,-1,-2,0
1532066872612,3,-2,-2,-6,-8,-1,-3,0
1532066872617,1,4,1,8,7,1,1,0
1532066872622,0,5,1,1,5,1,-1,0
1532066872627,-3,-3,-4,0,-3,-1,-1,-1
1532066872632,-3,-2,1,0,0,-2,-1,-1
1532066872637,-1,-4,-6,-3,-5,0,-1,0
1532066872642,0,0,1,-2,3,0,-2,-2
1532066872647,-1,1,0,3,-1,-1,-1,-1
1532066872652,-3,-1,0,1,-2,-1,-1,-1
1532066872657,2,1,2,-3,4,-1,-1,-1
1532066872662,-1,-2,1,10,-2,0,-2,-1
1532066872667,0,2,2,0,-1,-2,-2,1
1532066872672,-1,-6,-4,-10,-1,-1,0,-1
1532066872677,0,1,2,4,-4,-2,-3,-2
1532066872682,0,-1,0,-1,-1,1,1,0
1532066872687,-1,1,-3,-2,-5,-4,-1,0
1532066872692,-3,1,1,-1,-2,0,0,-2
1532066872697,-2,-4,-1,-5,-4,-1,-1,1
1532066872702,1,-1,-1,-10,0,-1,0,-1
1532066872707,-1,0,2,1,3,2,-1,-1
1532066872712,-2,-4,-1,2,-4,-2,-2,-2
1532066872717,-1,-1,-2,0,3,3,0,-2
1532066872722,-1,-3,2,1,0,-1,-1,-2
1532066872727,0,0,0,3,0,-1,0,0
1532066872732,0,-1,-1,-5,-6,0,-2,0
1532066872737,-2,-5,1,-1,5,0,1,-1
1532066872742,-1,-1,0,3,-2,-1,-1,-1
1532066872747,0,-1,-2,-13,0,-1,1,-1
1532066872752,-1,1,2,3,-1,0,-1,1
1532066872757,0,0,-2,1,-9,-2,-1,-1
1532066872762,-1,-5,-4,-3,1,-1,-1,0
1532066872767,1,2,1,3,0,0,-1,-3
1532066872772,-1,4,-2,-5,1,-1,2,-1
1532066872777,-1,0,3,-4,-3,0,-2,-2
1532066872782,1,1,-1,-2,-2,-1,-2,0
1532066872787,0,-4,0,5,1,2,-1,0
1532066872792,0,-2,-4,-15,3,0,0,0
1532066872797,-5,-3,0,6,-2,-3,-1,0
1532066872802,-3,-2,2,4,-3,-1,-3,1
1532066872807,-1,-3,-4,-2,-3,0,1,0
1532066872812,2,6,2,14,5,0,1,-2
1532066872817,-1,0,1,-9,-3,-2,1,-1
1532066872822,-2,-7,-2,-7,0,-3,-1,-2
1532066872827,-2,-1,-3,-2,-6,-3,-2,0
1532066872832,0,0,2,6,1,0,-3,-1
1532066872837,-1,-1,-2,-3,-4,-1,-1,-2
1532066872842,3,-1,-2,-2,-2,-2,0,-2
1532066872847,0,0,1,0,-5,-1,1,-2
1532066872852,1,-1,1,-3,7,-1,0,0
1532066872857,-1,-2,-6,-7,2,1,-2,1
1532066872862,-1,2,3,8,2,2,-2,2
1532066872867,-3,-3,-1,1,-4,-2,-4,-1
1532066872872,0,-2,-1,-7,-1,-1,0,-1
1532066872877,-1,-1,-4,-3,0,0,0,-2
1532066872882,-1,0,0,9,1,-1,-1,1
1532066872887,1,1,1,-17,0,0,1,-2
1532066872892,-3,-1,4,10,-2,-1,-3,-1
1532066872897,0,-3,0,0,-2,-1,-2,-1
1532066872902,0,3,1,5,-1,-1,1,-1
1532066872907,1,3,2,4,-1,-1,-1,0
1532066872912,-1,-9,-2,-5,-6,-2,0,-1
1532066872917,3,1,2,1,10,0,1,1
1532066872922,0,7,0,-6,-3,0,1,-3
1532066872927,-3,-4,1,4,-2,-1,-2,-2
1532066872932,-2,2,-1,-1,-1,-2,0,-2
1532066872937,-3,-1,0,3,-3,-1,-1,-1
1532066872942,-1,-5,-4,-6,0,0,-2,-1
1532066872947,0,-3,0,-7,1,-1,-1,-2
1532066872952,-1,-2,-3,2,0,1,-1,-1
1532066872957,-1,0,0,-5,-7,-2,0,-1
1532066872962,0,1,1,3,1,-3,0,0
1532066872967,-4,-1,-1,5,1,0,-1,1
1532066872972,0,-1,0,-3,-2,-1,-2,0
1532066872977,-1,1,-1,7,-2,-2,-1,-2
1532066872982,0,-1,-2,-12,-1,-2,-2,-2
1532066872987,-2,0,2,9,-4,-1,-1,-2
1532066872992,-2,-3,3,3,4,-3,-1,-2
1532066872997,2,4,-2,2,5,0,-1,2
1532066873002,-3,-2,0,-2,-1,1,-1,-1
1532066873007,-1,-1,-2,-5,-2,-2,-2,-1
1532066873012,-3,0,-4,1,-5,0,-1,-1
1532066873017,-2,-3,1,-4,-4,0,0,-1
1532066873022,-4,0,2,-5,-3,-2,-2,0
1532066873027,2,-1,-2,-1,4,0,-1,2
1532066873032,0,-1,2,-4,-1,1,3,1
1532066873037,2,3,1,-2,-3,-1,-2,-1
1532066873042,0,-3,-3,6,3,-1,1,-1
1532066873047,-1,-4,-3,1,0,-3,-3,-1
1532066873052,-2,0,0,-1,0,-1,-3,-1
1532066873057,-3,-3,-3,-4,-3,-2,-1,-1
1532066873062,-1,0,0,0,1,2,1,-1
1532066873067,-1,-1,1,7,-2,-3,2,-2
1532066873072,2,3,-1,-1,2,-1,0,-1
1532066873077,1,2,-1,-6,-1,0,0,-1
1532066873082,-1,-1,1,-11,-6,-3,-1,0
1532066873087,-1,-1,0,1,7,2,0,-2
1532066873092,-2,-11,-1,-2,-3,-1,-2,-1
1532066873097,1,0,1,-3,4,2,-3,-1
1532066873102,-1,-1,0,-3,-8,-2,-2,1
1532066873107,0,-1,0,5,7,1,1,-1
1532066873112,0,4,1,-2,-3,-2,-2,1
1532066873117,0,-2,2,6,4,1,0,-1
1532066873122,1,-2,-3,0,4,0,-1,0
1532066873127,-1,-2,0,-9,-3,-1,0,-2
1532066873132,2,2,1,5,-4,0,0,-2
1532066873137,-4,-6,-3,10,-3,-3,-1,-2
1532066873142,1,1,-2,-5,-3,-1,-2,0
1532066873147,-2,-1,0,-1,-1,-2,0,0
1532066873152,0,-2,-1,-5,-1,-2,-1,-1
1532066873157,3,2,0,-7,-7,-2,0,-1
1532066873162,1,-1,2,12,0,1,1,-1
1532066873167,-1,-2,0,3,-1,0,-2,0
1532066873172,-1,-1,-8,-17,0,0,-3,0
1532066873177,0,-6,3,-3,0,1,-1,0
1532066873182,-1,-1,-1,0,-1,-2,-2,-2
1532066873187,2,5,5,0,2,-2,-1,1
1532066873192,0,-1,0,3,-2,1,-3,-1
1532066873197,-2,0,-2,1,2,0,-1,0
1532066873202,0,-1,-1,-1,1,-1,-2,-2
1532066873207,-1,-3,-1,-2,-6,-1,-3,-2
1532066873212,-1,0,1,-3,-4,-2,-1,-1
1532066873217,-1,-1,0,-4,1,1,1,1
1532066873222,-1,0,2,1,1,1,-1,0
1532066873227,0,0,-2,-7,-6,-1,-1,-1
1532066873232,0,2,2,6,6,2,1,-1
1532066873237,2,2,1,5,-5,-1,0,-1
1532066873242,0,-1,-1,-4,4,1,0,-2
1532066873247,-1,-1,-1,-7,0,1,0,0
1532066873252,-4,1,2,3,-3,-2,-1,-1
1532066873257,-2,0,0,-8,-5,-3,-2,-1
1532066873262,-1,-2,1,-5,1,0,-1,-2
1532066873267,0,0,-1,1,0,0,-4,-1
1532066873272,-2,-3,0,-5,0,0,-2,-1
1532066873277,-3,0,2,10,-3,-1,-3,-2
1532066873282,-1,-2,2,2,-1,-2,1,1
1532066873287,2,2,-2,1,0,-2,0,0
1532066873292,-1,-3,-3,1,-6,-2,1,-1
1532066873297,0,0,0,-3,4,-1,-3,-1
1532066873302,0,0,-1,4,-5,-2,-2,-1
1532066873307,-2,-3,-1,-19,0,0,0,-1
1532066873312,-1,0,1,12,-5,-3,-1,0
1532066873317,-1,0,0,0,5,-1,-1,0
1532066873322,-4,-3,-4,-1,-4,0,-1,-1
1532066873327,-3,-1,2,4,-3,-1,0,-1
1532066873332,-1,-1,0,-4,3,1,0,1
1532066873337,-1,0,-1,-7,-8,-1,-1,1
1532066873342,0,0,0,-9,10,1,0,0
1532066873347,1,-2,-1,10,-2,-2,-2,-1
1532066873352,-1,0,0,-8,-4,-1,-1,-2
1532066873357,-1,-3,-2,1,1,-1,0,-1
1532066873362,3,3,3,2,2,1,-1,-2
1532066873367,1,-2,-7,-14,-4,0,-1,-1
1532066873372,1,3,2,5,1,-1,-1,1
1532066873377,0,-1,-1,-4,-5,-1,-2,-2
1532066873382,-1,2,1,2,3,0,-1,-1
1532066873387,-3,4,3,8,0,0,0,-1
1532066873392,1,0,-2,-2,2,-1,-1,-1
1532066873397,-1,1,1,-1,0,-1,1,0
1532066873402,0,-3,-2,-4,-8,-3,-1,-1
1532066873407,2,2,2,6,5,-1,-2,-1
1532066873412,-3,-2,-1,0,-8,-3,-3,-2
1532066873417,0,-1,2,5,1,-2,2,-1
1532066873422,-2,-1,0,-8,4,-2,-2,-2
1532066873427,-1,-6,-3,-5,-10,0,1,1
1532066873432,-4,-2,3,2,-5,-2,-2,-2
1532066873437,-3,-3,0,12,-1,-1,-3,-1
1532066873442,1,-2,-2,-19,0,0,-2,-1
1532066873447,0,0,0,-1,-4,-4,-3,-1
1532066873452,1,0,0,-6,5,2,1,-2
1532066873457,-4,-2,-3,-3,-3,-2,-1,-1
1532066873462,0,-1,-1,5,0,-2,0,-1
1532066873467,0,1,2,1,1,-1,2,-2
1532066873472,1,-2,-1,-7,0,-1,0,0
1532066873477,-1,-3,-1,-2,2,0,-2,-2
1532066873482,0,1,-1,4,-2,0,1,0
1532066873487,1,-1,0,-3,-2,-1,0,0
1532066873492,-1,1,0,2,2,-1,-1,2
1532066873497,-1,-5,-1,-7,-5,-1,0,0
1532066873502,-2,-5,-3,-4,-3,-2,-1,-1
1532066873507,-1,-2,1,2,-2,-1,-2,-3
1532066873512,0,0,-1,13,9,0,0,-2
1532066873517,1,3,0,-8,-1,2,-1,1
1532066873522,0,1,3,7,-4,-2,-1,0
1532066873527,0,1,1,4,-1,-1,-2,-1
1532066873532,-1,-3,-2,-8,-3,-1,-2,-1
1532066873537,3,-2,-7,-4,-2,-2,0,0
1532066873542,-2,1,1,7,1,1,0,-2
1532066873547,-1,-2,-2,0,10,1,1,-2
1532066873552,-1,-2,0,-1,-6,0,2,-1
1532066873557,-2,-6,-9,-4,1,-1,0,0
1532066873562,-2,-3,1,-8,-2,-3,-3,-2
1532066873567,-1,2,0,-9,-1,2,0,0
1532066873572,-3,-3,-2,0,-4,-1,-1,-1
1532066873577,-2,-3,-1,-2,-3,1,-1,0
1532066873582,3,4,-1,-9,-5,-2,-1,-1
1532066873587,-1,-2,2,14,-3,1,0,-1
1532066873592,0,-6,-2,-11,4,0,-2,0
1532066873597,-1,0,2,-3,-2,-2,1,0
1532066873602,-2,-1,3,5,-2,0,-1,-2
1532066873607,-4,-3,2,7,1,-2,-2,-2
1532066873612,0,5,-5,-4,-5,-2,-1,1
1532066873617,-1,1,3,11,1,-1,0,-2
1532066873622,0,0,-3,-11,-1,2,1,-2
1532066873627,0,1,0,6,7,0,0,-1
1532066873632,-4,-5,-3,1,1,0,-1,-1
1532066873637,-2,-2,1,-18,-8,-2,-4,0
1532066873642,0,2,0,4,0,-2,-3,-1
1532066873647,-4,-7,0,-16,1,0,2,0
1532066873652,3,1,3,-4,-2,-1,-1,-2
1532066873657,3,1,1,13,3,1,0,-1
1532066873662,-3,-2,4,-7,-7,-1,-2,-1
1532066873667,2,-4,-12,-11,-3,-3,-4,-1
1532066873672,-1,3,1,0,-1,-2,1,0
1532066873677,-2,-3,1,0,1,1,1,-1
1532066873682,2,3,3,3,7,0,1,2
1532066873687,-1,-1,3,7,-4,1,1,-3
1532066873692,-2,0,-2,-24,-6,-1,-1,0
1532066873697,0,1,-2,8,9,0,-1,-2
1532066873702,-1,-3,-3,1,4,-1,-2,-1
1532066873707,-1,1,0,-8,-2,-1,-1,-1
1532066873712,1,-4,-2,15,-6,1,-1,-2
1532066873717,-2,-3,-1,6,-17,-4,-3,1
1532066873722,1,-1,-2,1,6,0,-1,-2
1532066873727,-2,-5,-2,4,1,0,0,-1
1532066873732,-1,-1,1,-3,-1,-1,-1,-2
1532066873737,0,2,3,0,-3,-1,-1,-1
1532066873742,1,2,1,-10,-3,-1,-1,1
1532066873747,-3,-4,1,-3,1,-3,-3,-1
1532066873752,1,3,-3,10,3,-3,-2,-2
1532066873757,-2,-6,-1,-2,1,-2,-1,-2
1532066873762,2,-1,2,7,-6,0,0,-2
1532066873767,3,8,-2,-9,-1,-1,0,-2
1532066873772,-2,-3,-1,-5,1,1,0,0
1532066873777,-2,-3,1,3,-4,-1,-1,2
1532066873782,-2,-1,1,13,26,0,-3,-3
1532066873787,-3,-5,-2,-5,-16,-1,-1,-1
1532066873792,1,0,1,6,-5,-1,0,-2
1532066873797,3,5,2,0,1,-1,0,-2
1532066873802,-3,-5,0,-26,-5,-3,-1,1
1532066873807,2,0,0,5,-3,0,-1,-2
1532066873812,-2,-1,-3,-4,5,-1,0,-1
1532066873817,0,0,1,-3,-2,-1,1,-1
1532066873822,1,0,2,3,0,0,0,0
1532066873827,0,-1,-2,2,-3,-2,-1,-1
1532066873832,-3,-1,-1,-2,-1,-1,-2,-1
1532066873837,-2,-3,0,6,-6,1,-2,-1
1532066873842,-1,0,-1,-4,-1,0,0,0
1532066873847,0,1,1,1,-2,-1,0,0
1532066873852,0,4,3,5,-5,0,1,-1
1532066873857,-2,1,3,1,3,-1,1,-1
1532066873862,-3,-1,-1,7,-4,-1,-1,-2
1532066873867,-1,-4,-7,-11,3,0,0,0
1532066873872,-1,-1,3,2,-2,-1,-2,0
1532066873877,-2,1,1,4,1,1,-3,-1
1532066873882,-3,-5,0,-4,-2,-1,-2,1
1532066873887,3,1,4,11,1,-1,1,2
1532066873892,1,-2,-3,-2,3,-2,0,-1
1532066873897,2,0,-1,-13,-3,-1,0,-1
1532066873902,0,1,0,11,-3,-2,-2,-2
1532066873907,-1,3,4,-3,4,2,1,-2
1532066873912,-3,-4,-2,-9,-6,-2,-2,0
1532066873917,0,1,5,6,-2,-1,-4,1
1532066873922,-2,0,-1,-4,1,-1,1,-1
1532066873927,-1,-4,0,-21,-9,-1,-2,-1
1532066873932,0,0,1,-1,1,1,-1,2
1532066873937,-1,-6,-9,4,1,-2,-1,-1
1532066873942,-1,3,2,-3,1,1,-1,-1
1532066873947,0,0,2,3,-1,-3,-3,-2
1532066873952,0,0,2,9,-3,1,1,-2
1532066873957,0,-1,0,-13,0,-1,0,-1
1532066873962,-4,-4,-2,1,-5,-3,-1,-1
1532066873967,-1,0,-1,5,2,0,-2,-1
1532066873972,2,1,2,-5,-1,0,-1,-2
1532066873977,0,-2,-1,-4,-2,-1,-2,-1
1532066873982,2,-1,0,13,-4,-1,0,0
1532066873987,-2,1,3,5,4,1,-1,0
1532066873992,0,0,-1,6,-1,-1,-1,-1
1532066873997,-1,-1,0,5,-1,-2,-2,1
1532066874002,-3,-4,1,-23,-3,0,-1,-2
1532066874007,-1,1,1,5,1,1,0,-1
1532066874012,-2,-1,-2,-12,-6,-3,-1,-2
1532066874017,-2,2,-1,6,-2,-2,1,-3
1532066874022,-2,-7,-2,-5,-5,0,0,-1
1532066874027,0,-2,-3,7,3,0,-1,0
1532066874032,1,-1,0,6,2,-1,0,-2
1532066874037,0,4,2,-9,1,0,1,0
1532066874042,-1,0,-2,8,3,-1,0,-1
1532066874047,-1,2,0,-6,-8,0,-1,-1
1532066874052,0,0,1,8,2,0,2,-1
1532066874057,0,-2,-6,-25,-2,-1,0,0
1532066874062,-3,-4,-1,9,-5,-2,-4,0
1532066874067,-2,-5,-2,-2,5,-3,-1,-1
1532066874072,1,1,1,-1,2,2,1,0
1532066874077,-1,-1,-1,3,-3,-1,-2,-3
1532066874082,-1,0,-1,-10,3,1,-1,0
1532066874087,-1,-1,-3,0,-3,-1,-2,0
1532066874092,-3,-1,1,-5,-4,-1,-2,-2
1532066874097,1,-11,-2,-2,0,-1,-1,-2
1532066874102,1,3,1,1,-2,1,0,-1
1532066874107,1,-1,-2,9,1,-4,-3,-2
1532066874112,-2,-2,-3,-8,-3,-1,-1,-1
1532066874117,-1,0,2,3,3,1,2,1
1532066874122,0,-1,0,2,-8,-3,-2,-1
1532066874127,-1,-2,0,16,2,-1,-1,-1
1532066874132,-2,-2,-3,-25,-1,-1,-2,0
1532066874137,-1,3,2,3,-1,0,1,1
1532066874142,0,-1,1,-2,-6,0,-2,1
1532066874147,1,1,1,-19,5,-1,-1,-1
1532066874152,0,-1,0,7,3,-1,-1,-1
1532066874157,-1,1,-2,-3,-6,-3,-4,-1
1532066874162,1,0,0,-6,4,-1,0,-2
1532066874167,-2,2,1,1,-6,0,-1,-1
1532066874172,-1,-7,-2,-1,-2,-1,0,-1
1532066874177,0,4,3,-5,3,-1,-1,0
1532066874182,1,1,-1,7,-1,-1,1,-1
1532066874187,-1,-3,-2,-11,-3,-1,-1,-1
1532066874192,1,-2,0,4,-3,-1,-1,-1
1532066874197,-4,-6,-1,2,-7,-1,-1,-2
1532066874202,1,2,2,-7,-5,-1,1,-2
1532066874207,-4,0,-4,0,4,-1,-1,-2
1532066874212,-1,-3,3,2,0,-3,-1,1
1532066874217,0,0,-5,5,5,0,0,-1
1532066874222,-1,0,-3,0,-6,1,-2,1
1532066874227,-1,-2,0,8,-1,1,1,0
1532066874232,-2,-2,-1,-18,-4,-1,-2,-1
1532066874237,-2,-1,5,21,0,-1,-1,1
1532066874242,0,1,-1,19,-2,-1,-1,-1
1532066874247,2,1,0,-47,-3,-2,0,-2
1532066874252,-3,-3,0,7,0,-1,-1,2
1532066874257,1,1,1,-3,3,-1,1,-1
1532066874262,-1,0,0,6,-2,1,-1,1
1532066874267,0,0,1,4,-1,-3,-3,-2
1532066874272,-3,-2,1,-4,-7,0,0,-1
1532066874277,-2,-5,-1,-1,7,0,-1,-1
1532066874282,0,3,1,-13,-2,-3,0,-3
1532066874287,0,-8,-1,10,-1,-1,-3,-1
1532066874292,1,8,0,2,0,-2,0,-1
1532066874297,-2,0,-1,-12,-6,-1,-2,-1
1532066874302,-3,-4,1,-6,-2,-2,-1,-2
1532066874307,-1,1,0,1,-1,0,-1,0
1532066874312,-3,0,-2,1,-2,-1,-2,-2
1532066874317,3,2,1,5,-2,0,1,0
1532066874322,0,0,1,-4,8,0,-1,-1
1532066874327,0,2,2,2,0,1,0,-1
1532066874332,-1,-3,-2,-9,-2,-2,-2,0
1532066874337,-4,-5,2,6,-5,-3,-2,-3
1532066874342,0,-1,-1,-7,-4,0,-1,-1
1532066874347,1,-1,-2,6,-3,-2,-1,-2
1532066874352,1,0,-2,7,1,-1,0,1
1532066874357,1,-1,1,6,-1,1,1,0
1532066874362,1,-1,0,-3,4,-1,1,2
1532066874367,-1,-1,-2,-12,-4,-3,-2,-2
1532066874372,-2,-7,-2,-3,0,1,2,0
1532066874377,2,4,-3,0,2,-2,-2,-2
1532066874382,-3,-7,-1,3,-4,-2,-2,-1
1532066874387,1,2,1,0,1,1,1,-1
1532066874392,1,-3,-5,-2,6,0,0,-3
1532066874397,-2,-3,2,-12,-6,0,1,-1
1532066874402,-3,0,-3,4,4,-1,-1,1
1532066874407,0,-2,-1,-4,-4,0,0,0
1532066874412,0,0,1,4,3,0,-2,-2
1532066874417,0,2,1,4,0,0,0,1
1532066874422,1,2,2,-3,3,1,1,-2
1532066874427,-2,-5,-3,-1,-7,-4,-2,2
1532066874432,-2,0,0,4,-2,-4,-1,0
1532066874437,-1,-1,-2,-8,-3,-1,0,-1
1532066874442,-2,3,2,9,2,-1,1,-1
1532066874447,-2,-5,0,1,0,0,-2,-1
1532066874452,1,-5,-2,-10,-1,-2,1,0
1532066874457,0,0,-2,6,-1,-3,-2,2
1532066874462,0,3,1,-8,-1,0,1,-2
1532066874467,-1,-5,0,12,1,-1,-1,-2
1532066874472,-2,-3,-2,-17,-7,-1,-2,-1
1532066874477,-2,-6,0,7,11,-1,-1,-2
1532066874482,1,-1,-1,-2,-10,0,-1,0
1532066874487,1,2,-2,-7,-11,-1,0,-2
1532066874492,-3,1,3,7,-2,-2,-5,-1
1532066874497,-1,-3,0,-2,1,1,0,0
1532066874502,-3,-2,-1,0,-4,-3,-1,-1
1532066874507,-2,3,2,9,7,0,0,0
1532066874512,3,4,2,-2,2,2,2,-2
1532066874517,-1,3,2,9,-5,-2,-1,-1
1532066874522,0,-1,1,6,6,3,0,0
1532066874527,-2,1,2,-9,-2,-1,0,-1
1532066874532,-3,2,-3,4,0,-3,-2,-1
1532066874537,1,1,-1,-10,2,-2,-2,-1
1532066874542,-3,-5,0,3,0,-2,-2,-2
1532066874547,-1,0,0,-2,-2,0,0,1
1532066874552,0,-1,-1,-3,0,0,-1,0
1532066874557,-2,2,0,8,-3,0,-1,0
1532066874562,0,-6,-8,-15,-2,-3,-1,-2
1532066874567,-3,-2,2,9,4,0,1,-1
1532066874572,3,2,3,10,-5,1,1,-2
1532066874577,1,2,1,-14,4,2,0,0
1532066874582,-3,-2,-1,8,-8,-2,-4,-1
1532066874587,-2,0,-1,-9,3,-2,-1,-1
1532066874592,1,-3,0,16,-1,-1,0,1
1532066874597,1,-1,-2,-16,-3,-2,1,-1
1532066874602,0,0,2,-15,1,-2,-1,-1
1532066874607,-2,1,1,2,-9,0,-1,1
1532066874612,-1,-3,-2,-11,6,0,-1,-1
1532066874617,-2,-2,-1,5,-16,-1,-2,-2
1532066874622,0,1,1,-4,6,1,0,0
1532066874627,0,2,-1,1,13,-3,-2,-4
1532066874632,1,-2,-1,-5,-13,0,0,-1
1532066874637,-2,-5,-4,-3,1,0,-2,-1
1532066874642,-1,-1,-2,4,-6,-1,-1,0
1532066874647,0,0,-1,-2,2,1,-2,1
1532066874652,-3,-1,2,3,3,0,-2,-2
1532066874657,-4,-5,-4,14,-2,-1,-2,0
1532066874662,0,2,3,-28,1,0,1,-1
1532066874667,1,0,-1,4,2,2,1,0
1532066874672,-4,-6,-2,-3,-7,-3,-2,1
1532066874677,0,4,4,-8,0,-1,0,0
1532066874682,2,2,0,8,-1,2,1,0
1532066874687,-1,-3,1,-8,-7,-2,-3,-1
1532066874692,-2,-2,-3,3,4,0,1,-1
1532066874697,-2,-2,1,-1,5,0,-1,0
1532066874702,0,-2,0,5,-8,0,-1,-1
1532066874707,2,1,0,-3,2,1,0,1
1532066874712,-3,-3,-1,-6,-1,0,1,0
1532066874717,1,1,0,0,0,-3,-3,-2
1532066874722,2,4,2,7,1,-2,1,-1
1532066874727,-3,-3,-1,3,-2,0,-1,-1
1532066874732,0,2,4,14,9,0,-2,1
1532066874737,-1,0,2,-10,-6,-1,0,-1
1532066874742,0,-3,2,-6,-2,-1,1,-2
1532066874747,-2,-2,-1,12,-3,-1,1,-2
1532066874752,-1,-4,-1,-12,-1,-3,-5,-1
1532066874757,-2,-1,2,13,5,0,-2,0
1532066874762,1,0,1,11,1,0,-1,0
1532066874767,0,-7,-3,-12,6,0,2,0
1532066874772,1,1,0,-3,0,-2,-1,0
1532066874777,-1,0,-1,2,-2,-1,1,0
1532066874782,-3,-2,0,-2,5,-1,-2,1
1532066874787,2,3,2,3,-11,-1,0,-1
1532066874792,0,-4,1,2,2,2,0,-1
1532066874797,-1,0,0,3,-2,-2,-1,-1
1532066874802,-4,-7,-4,-21,-4,-3,-3,-5
1532066874807,-2,0,-2,14,0,-1,-2,0
1532066874812,3,5,2,-6,2,-2,1,-2
1532066874817,0,-5,0,-1,-7,0,-1,-1
1532066874822,-1,2,-2,7,5,-1,-3,-2
1532066874827,-1,-6,-2,-3,-2,-1,-2,-1
1532066874832,-1,4,-3,-10,-8,-1,0,-1
1532066874837,-2,-3,-1,7,6,-1,1,-1
1532066874842,-1,0,1,5,-2,2,0,1
1532066874847,1,0,-1,-12,-4,-1,-1,-2
1532066874852,-2,0,1,-3,-2,-2,-1,-1
1532066874857,-1,1,0,-1,0,0,-1,-1
1532066874862,2,-1,-2,5,-3,-1,0,-2
1532066874867,-3,-6,2,-12,-5,-2,-1,0
1532066874872,0,-2,-1,-2,-1,0,0,-2
1532066874877,-2,-1,0,-4,-6,1,-1,-1
1532066874882,1,1,2,9,7,0,0,0
1532066874887,1,3,0,-5,1,-1,1,1
1532066874892,0,0,-1,-6,3,0,0,0
1532066874897,0,-3,-2,-5,0,-1,1,-1
1532066874902,-2,-4,-2,-2,-9,-2,-3,3
1532066874907,-2,2,-1,-1,-3,-1,-2,-1
1532066874912,-1,-2,0,1,1,-1,-1,-3
1532066874917,-1,-1,-2,4,1,1,-1,-1
1532066874922,0,-3,-1,-3,3,1,0,-1
1532066874927,-4,-1,-3,-1,-8,-2,-1,-2
1532066874932,-1,-1,-1,6,1,-1,-1,0
1532066874937,-1,-1,1,-10,-6,-2,-1,-1
1532066874942,-1,-1,-1,6,-1,-1,0,-1
1532066874947,0,-1,0,-18,-5,-2,-3,-1
1532066874952,-3,-4,4,16,2,-1,0,-2
1532066874957,-1,1,-2,-17,0,-2,-2,-1
1532066874962,-3,-6,-5,-1,-8,-3,-2,-1
1532066874967,0,4,1,10,7,1,-1,-1
1532066874972,2,-4,-4,0,8,-1,-1,0
1532066874977,1,2,1,-6,-13,0,2,0
1532066874982,0,2,2,-4,0,-1,-1,-2
1532066874987,-2,1,1,0,-2,0,0,0
1532066874992,0,3,1,-6,-7,1,-1,0
1532066874997,-2,-4,-3,10,9,-1,-3,-1
1532066875002,-2,-5,1,-6,-7,-2,-2,-1
1532066875007,1,-1,-3,-17,-4,-2,-2,-1
1532066875012,-2,0,2,5,-1,-4,-2,-1
1532066875017,0,1,0,3,3,0,1,-1
1532066875022,-1,1,4,-6,-2,0,0,-1
1532066875027,0,-2,1,28,10,-1,2,0
1532066875032,2,2,-2,-38,-11,0,-1,1
1532066875037,-1,-5,-1,3,-1,-2,-1,-1
1532066875042,-2,0,-1,3,1,0,-2,-1
1532066875047,-1,1,3,6,1,-1,3,-2
1532066875052,0,4,0,-1,-1,-1,-2,1
1532066875057,-2,-2,3,10,-3,-2,-3,-1
1532066875062,1,2,-4,-2,11,-1,-1,-1
1532066875067,-1,-5,-1,-10,-16,0,0,-1
1532066875072,-2,-1,1,11,5,-1,-1,0
1532066875077,0,-1,0,-3,8,-1,-2,-1
1532066875082,2,2,2,10,4,0,0,0
1532066875087,-2,-2,3,2,-1,-3,-4,-1
1532066875092,-2,0,1,0,-6,-1,-1,-1
1532066875097,0,0,-1,1,-4,1,-1,-2
1532066875102,0,-1,-2,-15,-1,-2,0,-2
1532066875107,-2,-3,-1,-13,-3,-2,-1,0
1532066875112,-2,0,1,13,-1,1,-3,-1
1532066875117,0,4,3,-3,1,-1,1,-2
1532066875122,-1,-7,2,7,-6,0,-1,1
1532066875127,4,1,2,3,2,-1,-2,-3
1532066875132,1,-5,-5,7,11,-3,0,-3
1532066875137,-2,0,-1,-12,-10,1,-1,0
1532066875142,-2,0,-1,0,-2,0,-1,0
1532066875147,3,4,1,2,4,0,1,0
1532066875152,-2,-3,-1,0,1,0,-1,-3
1532066875157,1,-3,-2,-4,-2,-2,-2,-1
1532066875162,-1,-3,-2,0,3,0,-1,-1
1532066875167,-1,0,1,-4,2,0,-2,-2
1532066875172,-3,0,-1,3,0,-1,-3,1
1532066875177,-3,0,-1,-5,-2,-2,-2,-1
1532066875182,-1,-2,3,10,-6,0,-1,0
1532066875187,1,3,-1,-2,2,-1,2,0
1532066875192,1,-2,-1,2,4,1,2,0
1532066875197,-1,2,-4,0,-11,-1,-1,-2
1532066875202,0,-1,0,-10,-2,-2,-1,-1
1532066875207,-2,-3,-1,15,4,2,0,0
1532066875212,-2,-4,-1,-4,-6,-2,-2,-1
1532066875217,3,-2,3,5,7,-1,-2,1
1532066875222,-1,4,2,1,-8,-1,1,-2
1532066875227,1,-1,0,-9,1,-1,-1,0
1532066875232,0,-2,-2,-9,0,1,0,-2
1532066875237,0,-5,0,1,3,-2,-1,-3
1532066875242,-2,0,-2,1,1,2,-1,0
1532066875247,1,-1,0,-4,-2,-1,-3,-1
1532066875252,-2,-2,1,5,-4,-3,1,-1
1532066875257,-1,-1,-1,-5,3,-1,1,0
1532066875262,0,1,3,-8,-7,0,-2,-1
1532066875267,-1,0,-3,18,5,-1,-2,-1
1532066875272,-3,-2,-2,-17,-12,-2,-2,-1
1532066875277,-1,-1,-2,2,-3,0,-1,1
1532066875282,-1,1,-1,4,18,-2,-1,-3
1532066875287,-1,2,1,-2,1,1,0,-1
1532066875292,0,-2,-1,6,4,0,2,-1
1532066875297,-3,-5,-1,-9,-4,1,-1,-1
1532066875302,2,4,2,1,-3,-1,-1,0
1532066875307,-1,-1,-5,3,-2,-1,1,-2
1532066875312,-1,-2,2,-23,-7,-3,0,-3
1532066875317,-3,-2,0,-5,-9,-3,-3,-1
1532066875322,-1,-3,1,-1,1,0,-1,0
1532066875327,-1,-1,-1,4,3,-2,-3,0
1532066875332,0,-1,-1,4,4,1,1,0
1532066875337,0,-1,1,-5,0,-1,-1,-1
1532066875342,0,1,1,-1,-2,0,-2,-1
1532066875347,0,2,3,5,3,0,0,-2
1532066875352,-1,-3,-3,-7,-11,-3,-1,-2
1532066875357,-2,-1,-1,-1,1,-2,1,1
1532066875362,0,0,2,2,1,1,-1,1
1532066875367,-1,-2,0,-2,1,-1,0,-2
1532066875372,-2,-2,-1,-8,-8,-1,0,1
1532066875377,0,4,3,20,8,0,-1,-2
1532066875382,0,-2,0,-11,0,-2,1,-1
1532066875387,0,-2,-1,-24,-1,-3,-1,1
1532066875392,1,4,4,18,11,1,-2,0
1532066875397,-2,-4,-1,-14,5,-1,1,1
1532066875402,0,-1,-2,-8,-12,0,1,1
1532066875407,2,-1,1,11,-1,0,1,-1
1532066875412,-1,-1,-1,-6,-3,-2,-2,-1
1532066875417,0,1,0,0,-4,-1,0,-1
1532066875422,-4,-5,-5,4,6,-4,0,-1
1532066875427,0,-1,0,-4,-2,2,0,0
1532066875432,0,2,0,-2,-4,-1,-2,-1
1532066875437,-1,-3,0,-1,5,0,-1,0
1532066875442,-3,-1,1,12,-1,-1,-1,-2
1532066875447,-3,-3,-2,-19,-5,-3,-5,-1
1532066875452,2,4,0,13,6,0,1,-1
1532066875457,0,2,3,2,3,-1,0,-1
1532066875462,1,-1,-3,4,-5,0,1,-1
1532066875467,-1,1,0,-13,3,1,0,-1
1532066875472,-1,-5,2,7,-3,-2,0,1
1532066875477,-2,1,-3,-1,-5,-2,-2,1
1532066875482,-2,-1,2,-1,5,-2,-1,-2
1532066875487,0,0,1,10,-1,1,-1,-1
1532066875492,-1,2,-2,-7,0,1,-1,-4
1532066875497,0,-3,-2,3,-4,-1,0,-2
1532066875502,-1,1,0,-1,-4,-1,-1,0
1532066875507,-3,2,1,3,-3,-1,-2,0
1532066875512,-3,-1,0,1,-1,-2,-2,1
1532066875517,-2,1,0,-12,-8,-3,-3,-1
1532066875522,1,-5,-4,-8,2,0,1,-1
1532066875527,1,-2,0,24,-2,1,3,-2
1532066875532,-1,-2,0,-18,8,0,-1,1
1532066875537,-1,-2,-2,-2,-10,1,-1,0
1532066875542,-1,4,1,-16,-1,-1,-2,-1
1532066875547,-3,-2,0,12,-4,-1,-2,0
1532066875552,-1,-4,0,0,-2,-1,0,-4
1532066875557,0,0,-1,-6,5,2,2,-3
1532066875562,-2,-3,0,0,0,0,0,0
1532066875567,1,2,3,-9,4,-1,-1,1
1532066875572,-2,-1,-1,7,-6,-1,-1,-1
1532066875577,0,-2,-2,-8,2,1,-2,-1
1532066875582,-2,-1,1,10,2,-1,-1,-2
1532066875587,-2,0,-2,-20,-8,-1,1,0
1532066875592,0,0,-1,-2,0,-1,0,0
1532066875597,1,1,4,17,-5,-3,-2,-1
1532066875602,-1,-2,-5,-9,-2,1,0,0
1532066875607,0,-2,2,4,1,-3,-2,-1
1532066875612,1,3,1,6,1,1,1,0
1532066875617,-2,-2,-1,-15,-2,-2,-1,-3
1532066875622,0,-1,2,2,4,-1,0,-2
1532066875627,-1,-3,-3,-6,-1,-1,1,-1
1532066875632,-1,2,-1,8,-7,-3,-3,-1
1532066875637,1,-1,2,3,10,3,1,-1
1532066875642,-2,-1,-1,-1,-2,-1,0,-1
1532066875647,-3,-3,-1,4,-2,-1,-3,-2
1532066875652,-1,-6,-1,-6,1,-3,1,-2
1532066875657,3,4,4,1,-5,-1,0,0
1532066875662,0,-3,-4,-1,6,2,-1,0
1532066875667,1,0,1,17,1,2,2,-1
1532066875672,-4,-4,-1,-24,0,-2,-1,-1
1532066875677,-6,-4,-3,4,-13,-3,-4,-2
1532066875682,1,1,4,3,1,-1,-1,-1
1532066875687,0,-2,-2,2,0,-1,-1,-1
1532066875692,0,1,2,0,0,0,0,0
1532066875697,0,0,1,6,-6,-1,1,-1
1532066875702,-1,0,1,-13,11,-2,-2,-1
1532066875707,-1,1,1,8,-11,0,0,1
1532066875712,2,3,1,0,3,1,-1,0
1532066875717,-1,-1,1,0,9,1,0,0
1532066875722,-3,-3,1,6,-10,-2,0,-1
1532066875727,0,3,2,1,8,0,0,-1
1532066875732,-2,-1,0,3,-7,-1,0,0
1532066875737,3,1,4,7,5,0,-1,-2
1532066875742,0,-1,2,-15,-26,-3,-4,-1
1532066875747,-1,-2,-2,6,10,-1,-1,-1
1532066875752,-2,-1,1,-12,-1,1,0,0
1532066875757,-4,1,-3,-3,-7,-1,2,-1
1532066875762,-2,-2,-4,-1,7,0,0,1
1532066875767,-1,-3,0,-1,-4,-1,-3,-1
1532066875772,1,1,2,16,-1,0,1,0
1532066875777,-2,-3,-1,7,5,-2,-3,0
1532066875782,1,1,-1,-8,-1,-2,-2,-1
1532066875787,-3,-4,1,-9,-6,-1,0,-2
1532066875792,0,1,-1,7,4,-1,-2,-2
1532066875797,1,-2,-3,-7,-3,-2,0,-2
1532066875802,-2,0,2,9,-5,0,0,-1
1532066875807,2,-1,0,-1,4,0,-2,-1
1532066875812,2,0,1,-3,-4,-1,-2,-1
1532066875817,-2,1,0,1,3,-2,1,0
1532066875822,-1,0,-1,-7,1,1,-1,1
1532066875827,0,-1,-2,-3,3,2,1,-1
1532066875832,-3,-6,-1,2,-13,-2,1,-1
1532066875837,0,-1,-1,1,1,-1,-3,0
1532066875842,0,4,1,4,6,-1,0,-3
1532066875847,-2,-2,0,-11,-4,-2,-3,-3
1532066875852,2,3,-1,11,15,0,0,-2
1532066875857,-4,-5,-3,-10,-12,-1,-2,1
1532066875862,-1,-1,1,5,-3,-2,0,1
1532066875867,-1,0,-2,0,-3,-1,-1,-1
1532066875872,0,2,1,-2,-4,-1,1,-1
1532066875877,1,0,1,1,8,0,1,0
1532066875882,-1,-1,-2,0,0,1,0,-2
1532066875887,-2,0,1,7,-7,-3,-1,-1
1532066875892,0,-5,-2,3,6,0,-3,0
1532066875897,-2,1,1,-2,-2,-1,-2,0
1532066875902,2,2,0,8,-6,-1,0,0
1532066875907,0,-4,0,-6,5,0,0,0
1532066875912,-2,-6,-2,-10,-11,-4,-2,1
1532066875917,2,3,-1,4,4,1,0,0
1532066875922,-1,-1,3,-11,-3,1,1,0
1532066875927,0,2,1,13,1,-1,-1,-1
1532066875932,0,0,1,-3,-2,0,0,-1
1532066875937,-1,-9,-5,-5,-6,-2,-1,-2
1532066875942,-4,-5,0,-6,3,-2,-1,0
1532066875947,0,-2,-4,-7,3,1,0,-2
1532066875952,0,1,1,9,-5,0,-1,0
1532066875957,1,3,2,0,4,2,0,-1
1532066875962,0,-5,-4,-6,0,-1,-1,-1
1532066875967,-3,-1,0,0,-7,-2,-2,-1
1532066875972,2,5,0,-2,12,1,2,0
1532066875977,0,-2,0,-3,-7,-2,-2,-3
1532066875982,-1,-4,-2,-4,1,-1,-1,-3
1532066875987,-2,-3,-3,1,-5,-3,-1,0
1532066875992,0,-1,0,-10,2,0,-1,-1
1532066875997,-4,0,-2,-3,-7,-4,-2,0
1532066876002,-1,1,-1,9,0,-1,-1,0
1532066876007,0,-1,-1,-15,-1,-1,-1,-1
1532066876012,-1,0,-1,-3,-1,1,-3,-1
1532066876017,-2,-1,2,1,-3,0,-1,0
1532066876022,0,5,3,0,4,-1,0,-1
1532066876027,0,-1,-1,-7,0,0,1,-2
1532066876032,-1,-6,-2,4,-5,-2,0,1
1532066876037,2,0,-2,-8,1,-1,-1,0
1532066876042,-1,0,1,11,-2,1,0,0
1532066876047,2,2,3,-2,4,-1,1,-1
1532066876052,-4,-4,-2,1,-5,-2,0,-1
1532066876057,-2,-2,-1,-3,3,0,-2,-1
1532066876062,0,2,4,3,1,-1,-2,-1
1532066876067,-1,-3,-2,3,-7,-1,-1,-1
1532066876072,-4,-3,-1,-9,-6,-3,-3,0
1532066876077,1,-1,-1,3,6,0,-1,-2
1532066876082,1,1,0,4,-4,-1,1,-2
1532066876087,-1,0,1,-5,0,-2,0,0
1532066876092,-3,2,-1,4,0,2,0,0
1532066876097,0,-1,1,-1,4,0,1,-3
1532066876102,-1,-4,0,-3,-9,-1,0,1
1532066876107,-1,2,1,2,3,0,0,-2
1532066876112,0,-1,0,-4,0,-2,-1,-3
1532066876117,-1,1,3,6,-1,-1,0,-1
1532066876122,0,-6,0,4,6,1,1,-2
1532066876127,0,2,-3,-1,0,-1,-3,0
1532066876132,0,-1,2,2,-5,0,-1,-1
1532066876137,-2,0,-4,-4,-2,1,-2,0
1532066876142,-2,1,1,-2,4,0,-2,-3
1532066876147,-3,-3,2,-16,-4,-2,-1,0
1532066876152,1,1,0,10,1,-1,0,-2
1532066876157,-1,-1,1,-9,1,-1,0,0
1532066876162,-3,-3,-4,-5,-6,-1,-2,1
1532066876167,-2,-1,1,3,4,-1,-2,0
1532066876172,1,2,2,2,-8,-1,1,-2
1532066876177,-1,0,1,9,2,-1,0,-1
1532066876182,0,-1,-5,-14,0,-3,-1,-1
1532066876187,1,-1,1,3,4,0,-2,0
1532066876192,1,4,1,2,-1,-1,-2,-2
1532066876197,0,-3,0,-2,-5,-1,0,0
1532066876202,2,1,0,0,8,1,2,1
1532066876207,-4,-5,-3,-9,-7,-3,-3,-2
1532066876212,0,-1,-2,-2,0,-1,-1,-1
1532066876217,-1,0,-1,-8,-7,-2,-2,0
1532066876222,1,1,2,6,2,0,-1,0
1532066876227,-1,2,1,4,-1,-3,-2,1
1532066876232,-2,-5,-4,-4,1,0,-1,1
1532066876237,0,2,3,-5,0,0,1,-3
1532066876242,-1,-4,0,12,-4,-1,-1,-2
1532066876247,-1,-1,-1,-4,-2,0,-1,0
1532066876252,-2,-4,1,-5,1,-2,-1,-2
1532066876257,0,-1,-1,0,0,0,0,0
1532066876262,0,4,3,14,0,1,0,-1
1532066876267,3,2,-1,-1,2,0,0,0
1532066876272,-4,-10,-1,-20,-9,1,-2,0
1532066876277,-1,1,2,4,2,-1,-2,-2
1532066876282,-3,0,2,1,-3,-2,-3,-1
1532066876287,0,-3,-5,7,2,0,1,-2
1532066876292,0,4,0,-7,-1,-1,1,-1
1532066876297,0,-3,-2,8,0,-1,0,-1
1532066876302,0,-2,0,-16,-5,-2,-2,-1
1532066876307,-1,3,-1,5,-1,-2,-2,0
1532066876312,-1,-2,-1,-1,0,1,-1,1
1532066876317,-1,-1,0,-3,-5,-2,-1,-1
1532066876322,-1,1,-2,2,4,1,1,-1
1532066876327,0,-2,3,-2,-3,1,-1,-2
1532066876332,1,-1,0,0,2,0,-1,-2
1532066876337,-1,-3,-1,4,-4,0,0,1
1532066876342,0,-2,-2,-5,-1,0,-3,0
1532066876347,0,1,3,-4,0,-1,-1,-1
1532066876352,-2,0,-1,7,-10,-3,0,-2
1532066876357,-4,-1,0,1,11,0,-1,-2
1532066876362,0,0,-1,-8,0,-2,0,-3
1532066876367,-2,-1,2,18,-1,1,0,-2
1532066876372,-1,1,-2,-20,1,-2,-1,-2
1532066876377,2,1,2,-2,-5,-1,0,0
1532066876382,1,1,1,3,-1,-1,-1,0
1532066876387,0,-1,0,2,-2,0,-1,-1
1532066876392,0,-2,-3,-5,0,1,0,-1
1532066876397,0,-1,2,11,-3,-1,-2,-1
1532066876402,-4,1,-2,-3,4,2,-1,-1
1532066876407,-1,0,-1,-5,-7,-2,0,-1
1532066876412,-1,-2,-2,11,9,0,-2,2
1532066876417,0,4,2,-2,8,0,-1,-2
1532066876422,-2,-7,-3,-12,-26,-3,1,-1
1532066876427,1,1,2,0,9,0,-2,-2
1532066876432,0,1,3,-10,-3,0,-1,1
1532066876437,1,2,1,19,2,2,1,1
1532066876442,-2,-3,-1,-17,7,-1,-3,-4
1532066876447,-4,-1,0,-6,-5,-1,-1,2
1532066876452,1,3,1,3,-2,-1,0,0
1532066876457,1,-2,0,-1,1,0,-1,1
1532066876462,-1,0,4,8,0,-1,0,-1
1532066876467,-1,-2,-1,3,2,1,1,-3
1532066876472,0,3,1,-4,2,0,1,-1
1532066876477,-2,-2,-2,-2,-2,-2,0,-1
1532066876482,-2,-2,-2,5,0,-2,-1,0
1532066876487,2,-3,-1,-2,-4,-2,-2,0
1532066876492,-4,1,0,2,-1,-1,-1,-2
1532066876497,-1,0,0,-1,-2,0,-1,-1
1532066876502,-1,0,0,-9,-2,-2,0,0
1532066876507,-2,-1,-1,7,6,-1,1,1
1532066876512,1,1,1,12,-9,-4,-3,2
1532066876517,-1,2,3,-14,3,1,0,0
1532066876522,1,-1,3,17,6,0,1,0
1532066876527,2,2,-4,-6,-6,-1,0,0
1532066876532,-2,-5,2,-8,-3,-1,-1,-2
1532066876537,-2,-4,-2,1,-1,-1,-2,0
1532066876542,0,0,1,4,-3,-4,-2,-2
1532066876547,-1,-2,2,-10,-2,1,-2,-1
1532066876552,-1,0,-1,7,5,0,-2,-2
1532066876557,-1,-2,-3,-2,-7,-2,-1,-2
1532066876562,-1,1,-1,-18,1,0,-1,-1
1532066876567,-2,-3,-2,14,4,1,0,2
1532066876572,-3,-4,-1,4,7,-1,0,-1
1532066876577,0,1,-1,-22,-15,-2,1,-1
1532066876582,0,-1,-1,5,-1,-1,0,0
1532066876587,1,4,0,4,1,0,0,-2
1532066876592,-2,-10,-3,-4,-3,-1,-2,0
1532066876597,-3,-5,-1,2,2,-2,-4,-1
1532066876602,-1,-1,1,1,-10,-2,0,-2
1532066876607,-1,2,2,-5,1,-2,0,1
1532066876612,1,1,-2,16,5,0,1,-1
1532066876617,0,0,-2,-19,1,1,1,-1
1532066876622,0,1,-2,1,2,-1,-1,-1
1532066876627,-1,-5,0,-4,-5,-3,0,-3
1532066876632,1,2,1,8,0,0,4,0
1532066876637,-1,-3,-2,-9,0,-2,-1,-1
1532066876642,0,0,1,-3,-1,-2,-3,0
1532066876647,-2,-1,-2,7,10,0,0,-1
1532066876652,0,-1,2,-6,-6,0,-1,-1
1532066876657,3,2,1,-3,-1,-1,-1,0
1532066876662,-3,-1,0,6,1,1,0,-1
1532066876667,-3,-3,0,1,-4,-4,-2,1
1532066876672,2,2,-1,-10,-3,-1,0,-1
1532066876677,-2,-2,2,6,1,-2,-1,-1
1532066876682,0,-2,0,5,-3,-2,0,-3
1532066876687,-1,-4,1,-10,-4,-2,-1,-1
1532066876692,-5,-4,-6,-10,-2,-1,-3,-1
1532066876697,-3,-2,-1,-2,-3,-2,0,1
1532066876702,1,-1,-4,12,0,-2,0,0
1532066876707,2,4,3,9,0,0,-2,-2
1532066876712,0,0,1,-15,1,0,1,-1
1532066876717,-3,-2,1,11,-4,-1,-2,1
1532066876722,-2,0,0,-4,2,-1,-2,1
1532066876727,-1,-2,0,1,-2,1,0,0
1532066876732,2,3,3,-1,3,0,-1,-1
1532066876737,0,-2,3,-1,0,0,-1,-2
1532066876742,4,4,1,4,0,1,0,1
1532066876747,0,-1,-2,-10,-1,-1,-2,-2
1532066876752,-3,-4,-2,-7,-2,-2,0,-2
1532066876757,-4,-4,2,6,-8,-3,-4,-1
1532066876762,-1,-2,-1,-2,1,0,1,-1
1532066876767,-3,-1,-2,-2,-1,1,-1,-1
1532066876772,-1,-2,3,4,0,-2,0,-1
1532066876777,3,4,0,-6,2,1,1,1
1532066876782,-1,-11,0,1,3,0,-2,-1
1532066876787,0,1,0,0,3,-2,0,-1
1532066876792,-1,-1,0,-11,-3,-1,-2,0
1532066876797,2,2,1,0,-2,-3,-1,1
1532066876802,0,2,1,7,1,0,-1,0
1532066876807,0,-3,0,-12,0,-1,1,-2
1532066876812,1,-2,2,10,-3,-2,-2,-1
1532066876817,-1,2,-4,-1,2,0,1,0
1532066876822,-3,-4,1,-8,-2,-1,-2,-1
1532066876827,0,3,2,0,-3,-1,0,-1
1532066876832,2,4,3,3,1,1,-1,0
1532066876837,1,2,0,-2,3,2,-1,-2
1532066876842,0,2,2,-2,8,0,0,0
1532066876847,-3,-3,-1,-13,-9,-1,-1,-1
1532066876852,-4,-4,1,27,-1,-4,-3,1
1532066876857,-2,-1,-1,2,-3,-2,-2,-1
1532066876862,-3,-2,-2,-14,-2,0,-1,0
1532066876867,1,2,3,13,5,0,0,1
1532066876872,-2,-1,-8,-15,-3,0,0,-3
1532066876877,-1,-2,2,-11,-3,0,1,-1
1532066876882,1,3,1,16,4,0,1,-2
1532066876887,-5,-5,-2,9,-8,-3,-4,1
1532066876892,-2,1,1,-4,-1,2,-1,0
1532066876897,-1,-2,-1,13,4,0,2,-2
1532066876902,0,0,-1,-23,-5,-1,0,-2
1532066876907,1,0,1,3,3,0,-1,-3
1532066876912,0,2,2,3,2,-2,-1,2
1532066876917,-1,-5,-3,-21,-4,-3,-2,-2
1532066876922,-2,0,0,10,-3,-3,0,-1
1532066876927,-3,-5,1,-6,-2,-1,-2,-2
1532066876932,1,-2,-4,2,1,1,-2,-2
1532066876937,1,1,1,5,3,-2,-1,-1
1532066876942,-2,-4,-2,-12,-6,-3,-3,-1
1532066876947,-2,1,-3,-3,3,-1,1,0
1532066876952,0,-2,0,1,1,0,-1,0
1532066876957,0,2,3,4,-3,0,0,-1
1532066876962,0,1,0,3,-1,-1,-1,-1
1532066876967,-2,0,1,-14,-2,0,-2,-2
1532066876972,1,0,3,-3,0,-1,-1,0
1532066876977,0,-3,-2,-2,-2,0,-1,0
1532066876982,-2,0,-1,11,-4,-1,-1,1
1532066876987,0,-2,-4,7,1,-2,1,0
1532066876992,-4,-2,1,-24,0,-1,2,-1
1532066876997,-1,0,1,3,-1,-2,-2,0
1532066877002,1,0,1,-4,-4,0,0,-3
1532066877007,-1,-1,-2,2,4,2,0,0
1532066877012,-1,-2,0,7,1,-1,-1,-1
1532066877017,-2,0,0,8,2,0,-1,-1
1532066877022,1,-1,-2,-17,3,-2,2,1
1532066877027,-4,-7,-4,-8,-4,-4,-5,-2
1532066877032,0,1,2,3,-6,-2,-1,1
1532066877037,0,-2,-4,-12,2,-1,0,-2
1532066877042,0,0,0,20,0,-1,1,-1
1532066877047,2,5,2,-2,-3,-2,-1,2
1532066877052,-3,-1,0,-3,-1,-1,-1,-2
1532066877057,-3,-2,1,12,1,0,-2,-1
1532066877062,0,-5,-1,-19,-1,-1,0,-1
1532066877067,-2,1,1,4,-3,-2,-1,0
1532066877072,2,-1,1,6,1,0,-2,-1
1532066877077,1,-4,-2,-9,1,1,1,-1
1532066877082,-2,1,1,7,1,-1,-4,1
1532066877087,0,2,0,0,1,0,0,-3
1532066877092,-3,-5,0,0,-8,-2,-2,-2
1532066877097,-1,-5,-3,-1,2,1,1,0
1532066877102,0,1,0,-3,-1,0,0,-1
1532066877107,1,0,0,5,-1,-1,-2,-1
1532066877112,0,2,0,0,-1,0,1,-1
1532066877117,0,0,1,2,2,-1,-1,-2
1532066877122,-3,-1,0,-5,-1,0,-2,1
1532066877127,0,0,3,-1,-4,1,0,1
1532066877132,-1,-1,-2,1,2,0,-1,-2
1532066877137,-1,0,-2,-9,-1,-2,-1,0
1532066877142,0,0,0,8,0,-1,-2,-1
1532066877147,0,-2,-1,3,1,2,1,0
1532066877152,3,2,3,-3,2,1,-1,-1
1532066877157,-1,-6,1,14,-3,-3,-2,-3
1532066877162,0,-3,-5,-28,-3,0,-1,-1
1532066877167,1,1,2,-6,-4,-1,-2,-2
1532066877172,-3,-9,-1,-4,-3,-4,-1,-1
1532066877177,0,2,2,5,6,-1,-1,1
1532066877182,-2,-6,-1,1,-10,-2,-3,-1
1532066877187,1,0,-1,1,5,-2,-2,1
1532066877192,1,5,-2,-9,-3,-1,-1,0
1532066877197,-1,-2,1,-3,-5,-2,-2,-2
1532066877202,-1,-1,2,6,-2,-1,-2,-2
1532066877207,-3,-4,0,-2,1,-1,0,-1
1532066877212,-3,-4,2,3,-2,-1,-1,0
1532066877217,-1,3,1,-6,-6,-1,0,0
1532066877222,1,2,1,3,7,-1,0,-1
1532066877227,0,-1,-2,-2,-5,0,0,-1
1532066877232,1,2,2,-3,3,0,0,-1
1532066877237,-2,0,-1,-5,-5,-1,-2,-1
1532066877242,0,1,1,12,6,1,1,-1
1532066877247,-1,-2,-2,1,-3,-2,-1,0
1532066877252,1,-2,-1,-18,-1,-2,-1,-2
1532066877257,0,2,2,-2,-1,-2,-1,1
1532066877262,-1,0,0,5,2,0,0,-2
1532066877267,-2,0,1,4,-13,-2,-2,0
1532066877272,1,1,-1,-1,8,0,0,0
1532066877277,-3,-3,0,-1,-5,-1,-2,-1
1532066877282,0,0,-1,2,6,3,0,0
1532066877287,0,-2,2,2,0,-1,1,-1
1532066877292,0,-2,-1,2,-3,-1,-1,-1
1532066877297,-3,3,-1,-3,0,1,1,-2
1532066877302,-3,-5,1,0,-8,-2,-2,0
1532066877307,0,1,-1,2,9,0,-3,0
1532066877312,-2,-3,-5,4,-2,-1,-2,0
1532066877317,2,2,-2,-2,-1,0,-2,-2
1532066877322,0,0,-1,1,-2,0,-1,0
1532066877327,0,-5,-2,-8,1,-1,-1,-2
1532066877332,1,3,3,13,-1,0,1,1
1532066877337,0,-6,-2,-16,-1,-3,0,-1
1532066877342,0,-1,-2,0,-1,0,0,-1
1532066877347,-1,1,-1,-2,-2,1,0,-3
1532066877352,0,0,-1,5,0,-1,0,1
1532066877357,1,-2,2,11,4,1,0,-1
1532066877362,1,-2,0,-27,-6,-1,-1,-1
1532066877367,-3,2,2,3,1,-1,-3,1
1532066877372,-4,-2,-1,-7,-6,-1,-2,-1
1532066877377,-1,0,0,1,3,-2,0,1
1532066877382,-2,-1,-1,7,1,-2,1,-1
1532066877387,0,-1,1,-1,-1,0,0,-1
1532066877392,-2,1,0,5,0,0,-1,0
1532066877397,1,0,-1,-1,1,-1,-1,0
1532066877402,-3,0,0,9,1,-2,-1,-1
1532066877407,2,2,0,-24,-4,-2,0,-2
1532066877412,1,0,1,9,2,-1,-1,2
1532066877417,-1,-4,-1,-7,-5,-1,-2,1
1532066877422,0,-2,-1,3,1,-3,-2,-1
1532066877427,-1,-3,-3,4,2,0,0,-2
1532066877432,-2,-1,-1,-14,-6,-2,0,-1
1532066877437,-1,0,-1,4,-2,-2,-2,-2
1532066877442,0,0,1,1,0,-1,0,-2
1532066877447,-1,1,1,1,-4,-2,-1,-1
1532066877452,1,-1,1,3,0,-2,2,1
1532066877457,-4,-3,-2,-6,-6,-2,-4,-1
1532066877462,-1,-2,-1,-1,0,0,0,-1
1532066877467,0,1,0,5,3,-1,0,0
1532066877472,-1,0,1,-8,-7,-1,-1,-3
1532066877477,2,2,0,7,11,1,2,1
1532066877482,-1,2,3,-9,-1,-1,0,-1
1532066877487,-2,-2,-1,-2,-5,-3,-3,-1
1532066877492,-3,-3,1,-4,1,-1,0,-2
1532066877497,1,1,2,3,-2,0,0,0
1532066877502,2,2,1,3,5,1,1,2
1532066877507,-1,-7,2,0,0,0,-1,0
1532066877512,-3,-4,-9,-1,0,-3,-4,-1
1532066877517,-3,1,2,-4,-3,-2,-1,-1
1532066877522,-1,-4,-1,17,-4,-1,-1,0
1532066877527,-1,1,1,-13,-7,0,-2,0
1532066877532,1,1,0,11,8,1,1,0
1532066877537,-2,-3,-1,-3,-1,-1,0,-1
1532066877542,-3,0,-1,-6,-1,0,-2,0
1532066877547,1,0,2,12,-2,-1,2,-1
1532066877552,-1,-2,-1,-6,-2,-1,-2,-2
1532066877557,0,2,-2,-7,-5,-2,0,-1
1532066877562,1,2,4,13,4,0,2,0
1532066877567,-5,-4,-5,-19,-5,-4,-3,1
1532066877572,-1,-1,1,-7,2,0,-2,0
1532066877577,-1,1,1,6,-2,0,0,-2
1532066877582,-1,-4,0,-8,0,-1,-1,0
1532066877587,5,4,0,2,-3,0,0,-2
1532066877592,-3,3,2,5,0,-2,0,0
1532066877597,-2,-2,2,3,-1,-2,-3,-1
1532066877602,-2,0,-4,-14,-7,-3,-2,-2
1532066877607,-2,-3,-2,-1,5,-1,-2,-2
1532066877612,1,1,1,-1,-1,-1,-1,0
1532066877617,3,0,1,-1,2,1,-1,1
1532066877622,-2,-2,0,-2,-6,-3,-4,-1
1532066877627,1,-2,0,-2,-1,-1,-1,0
1532066877632,-3,-2,1,12,-2,-2,-2,-2
1532066877637,-1,-7,-4,-5,6,0,1,-1
1532066877642,-1,-1,0,-1,-2,-3,-1,-1
1532066877647,-1,-2,-1,9,-4,-2,-2,-1
1532066877652,0,1,4,5,1,0,0,-2
1532066877657,-2,-4,0,4,-3,-2,-1,0
1532066877662,0,0,-1,-11,-2,-3,-1,0
1532066877667,-1,1,3,3,3,-1,0,-1
1532066877672,2,1,1,-2,-1,-2,2,-1
1532066877677,-2,-1,1,6,0,-1,-2,-2
1532066877682,-4,-1,-1,-4,-1,-1,-2,-3
1532066877687,0,-1,0,-1,-4,-1,-1,0
1532066877692,0,-3,-1,-2,4,1,-1,-1
1532066877697,-3,-3,-4,-11,-9,-3,-3,-2
1532066877702,1,1,3,14,5,2,2,0
1532066877707,-2,-4,-1,-12,0,-2,0,-1
1532066877712,-1,-1,-2,0,-2,-1,-3,0
1532066877717,-1,-2,-1,-3,-2,-2,0,-2
1532066877722,0,0,0,9,2,-1,-1,-2
1532066877727,-2,-3,0,-1,6,0,1,0
1532066877732,0,0,-2,-3,0,0,0,-2
1532066877737,-1,1,3,-5,-8,-1,0,0
1532066877742,-2,-4,-1,-7,-5,-2,-2,1
1532066877747,2,3,0,9,-7,0,-1,0
1532066877752,-2,0,-1,-6,5,-2,0,0
1532066877757,1,7,3,16,1,-3,-1,-1
1532066877762,1,2,1,-13,-4,0,0,-1
1532066877767,-1,-2,-3,4,8,1,1,-1
1532066877772,-5,-2,-2,-9,-7,-3,-4,0
1532066877777,1,5,0,3,0,2,0,-1
1532066877782,0,-1,2,1,2,-1,-1,0
1532066877787,-1,2,1,4,1,0,1,-1
1532066877792,-1,-3,-1,-5,-4,-2,0,-2
1532066877797,0,0,-3,-2,3,-1,0,1
1532066877802,-2,-2,-2,-7,-1,-1,-1,-2
1532066877807,-1,0,1,4,1,0,-1,-1
1532066877812,0,3,3,9,-5,-1,0,-1
1532066877817,-1,-6,-1,-4,-1,-3,-2,0
1532066877822,-2,-2,0,8,-1,-3,-3,0
1532066877827,1,-2,-5,-9,0,-1,-3,-1
1532066877832,1,1,2,-9,-2,1,1,0
1532066877837,-1,-3,0,-4,0,1,-1,-2
1532066877842,-2,-5,-3,7,-1,0,-1,-1
1532066877847,1,4,5,2,0,0,1,0
1532066877852,-1,-5,-6,-6,-1,-1,0,-2
1532066877857,2,1,2,1,3,0,0,0
1532066877862,-1,-2,-1,4,-6,-1,-1,0
1532066877867,-2,-2,1,10,15,-2,0,-3
1532066877872,1,-1,-2,-29,-23,-3,0,-1
1532066877877,-2,0,-2,-4,-2,0,-1,1
1532066877882,1,0,1,-5,-2,-1,0,-2
1532066877887,0,-1,1,5,0,-1,-1,0
1532066877892,-2,-3,0,-4,4,0,-1,-2
1532066877897,-2,-3,-1,6,-4,-2,-3,0
1532066877902,-2,0,3,-2,8,3,-1,1
1532066877907,1,2,-1,7,-3,-1,-1,0
1532066877912,2,1,-3,-16,0,-2,-1,-1
1532066877917,0,-3,0,3,-2,1,0,-2
1532066877922,0,1,0,0,-1,-3,-3,-3
1532066877927,-1,-1,3,-2,-7,1,0,-1
1532066877932,0,3,0,6,6,1,1,-1
1532066877937,2,-5,-1,12,3,-1,1,-1
1532066877942,0,1,0,-20,0,-1,-2,0
1532066877947,-2,-5,-1,-8,-3,0,0,-1
1532066877952,0,1,2,4,-1,-2,-2,0
1532066877957,-1,-2,-1,-3,-1,1,0,0
1532066877962,-2,-1,1,6,0,-1,0,-2
1532066877967,2,1,1,-8,-5,-1,-1,1
1532066877972,-1,-5,1,7,2,-2,-4,-2
1532066877977,-1,3,3,-3,-1,-1,0,-3
1532066877982,0,-2,-2,-10,0,2,0,1
1532066877987,-2,-3,0,0,0,-1,-1,-2
1532066877992,-4,-1,2,6,-1,-2,0,0
1532066877997,-1,-6,-3,-9,-7,-2,0,-1
1532066878002,2,2,0,8,9,-2,1,0
1532066878007,-1,-2,-2,-12,-1,-1,-2,-1
1532066878012,0,-1,1,6,3,1,0,-1
1532066878017,-1,1,0,-8,-4,-2,0,0
1532066878022,-2,-5,1,7,-3,0,-1,-3
1532066878027,0,-3,-5,-3,-1,0,0,-2
1532066878032,-1,1,-1,0,0,-1,0,0
1532066878037,-4,2,1,-6,0,-1,-3,-3
1532066878042,0,0,-2,0,-1,-2,1,1
1532066878047,-1,-2,0,3,0,-1,-1,0
1532066878052,0,0,-1,-1,0,0,-1,-3
1532066878057,-1,2,1,-2,0,-3,-2,-2
1532066878062,1,1,1,-3,-6,-2,0,2
1532066878067,-3,5,2,1,-2,-3,-1,-1
1532066878072,1,-6,0,7,2,1,-1,-3
1532066878077,1,1,-1,-6,2,-1,-2,-1
1532066878082,0,1,-3,-5,-8,-3,-1,-1
1532066878087,-3,1,1,13,6,-2,-1,2
1532066878092,-2,-3,0,-10,0,-2,-2,1
1532066878097,0,4,1,0,2,1,0,0
1532066878102,-2,-2,1,-6,-2,-1,-1,-2
1532066878107,0,-3,-2,-2,1,0,0,-1
1532066878112,2,0,1,-1,2,0,1,1
1532066878117,1,-1,0,-1,1,1,1,-1
1532066878122,-4,-5,-1,2,-6,-2,-4,-2
1532066878127,0,-1,3,0,-4,-1,-1,-1
1532066878132,-1,-2,0,2,1,-1,-3,0
1532066878137,-2,5,-3,-6,-2,0,-2,-1
1532066878142,-5,-17,-4,3,0,-1,1,-2
1532066878147,2,2,0,2,1,-2,-1,0
1532066878152,-1,0,0,1,-1,0,-1,0
1532066878157,0,11,-1,-3,-1,-2,2,-1
1532066878162,0,-5,1,-1,1,0,0,-1
1532066878167,-2,-2,1,-3,-3,-1,0,-2
1532066878172,4,11,-1,4,-1,-2,-2,-1
1532066878177,-3,-6,-1,0,-1,-1,-1,3
1532066878182,-3,-8,-1,0,0,-2,-1,-2
1532066878187,-1,-3,0,-6,-1,0,-1,-1
1532066878192,-1,2,0,8,-7,-1,-1,0
1532066878197,0,11,5,-3,-5,-2,0,-1
1532066878202,-4,-5,0,9,14,2,3,0
1532066878207,0,-10,-2,1,-6,-1,-1,-1
1532066878212,3,9,1,-4,-8,-1,-1,-1
1532066878217,-2,-8,-9,1,7,3,1,-3
1532066878222,-4,-4,7,-9,-5,-2,0,-1
1532066878227,-1,-1,4,7,1,0,-2,-2
1532066878232,3,-1,-2,-3,7,0,1,-1
1532066878237,5,3,2,5,-3,-2,-3,-2
1532066878242,-5,-8,-5,-7,-4,-2,-1,-2
1532066878247,-1,-1,-2,-5,1,-1,-2,0
1532066878252,0,11,3,2,1,0,-1,0
1532066878257,-2,-9,0,-10,-7,-3,-2,-1
1532066878262,-1,0,-3,10,4,-1,-1,-1
1532066878267,1,2,0,-17,-5,-2,-1,-2
1532066878272,-3,-3,3,11,4,1,1,-2
1532066878277,-1,1,2,-2,3,1,1,0
1532066878282,-2,-3,1,1,-5,0,0,-2
1532066878287,2,4,3,6,-2,-1,0,-1
1532066878292,0,0,-7,-1,15,-3,-3,0
1532066878297,-2,5,0,-10,-25,-2,0,-1
1532066878302,-5,-27,-1,2,2,-1,-2,-2
1532066878307,0,0,1,5,-1,1,-1,-3
1532066878312,0,-1,5,1,2,-1,0,0
1532066878317,-3,0,-2,-1,-1,0,0,0
1532066878322,-1,5,1,-7,-6,0,-2,1
1532066878327,0,-5,0,6,3,-1,-1,1
1532066878332,0,-2,-1,-9,-15,0,-1,-1
1532066878337,0,-7,-1,0,5,1,-2,-1
1532066878342,3,5,1,-2,-2,-2,0,-1
1532066878347,-2,-3,-4,-9,-8,-4,-2,0
1532066878352,-1,5,3,0,1,1,0,1
1532066878357,-1,0,2,0,-6,-2,-3,-1
1532066878362,0,4,1,6,23,0,1,0
1532066878367,-1,-2,-1,-4,-12,1,-1,-1
1532066878372,-2,-6,-2,1,0,-2,-1,1
1532066878377,2,2,-1,-2,1,0,-1,-1
1532066878382,-1,3,-4,-2,-1,-2,-2,-1
1532066878387,-3,1,2,2,1,-1,0,-1
1532066878392,-2,1,0,1,5,3,2,0
1532066878397,-2,-1,0,2,3,-1,-1,-1
1532066878402,3,3,-3,-1,1,1,0,1
1532066878407,-2,-7,-2,-2,-3,-2,-2,-1
1532066878412,-1,0,-2,-4,-7,-1,-2,-1
1532066878417,-3,0,4,1,4,-1,0,0
1532066878422,0,2,1,-4,-7,-2,-1,1
1532066878427,0,0,0,3,3,-2,1,-1
1532066878432,-2,-6,-4,-8,-4,0,-1,0
1532066878437,-1,-2,1,-1,2,-1,0,-2
1532066878442,-2,-3,-2,-4,-7,0,-2,-1
1532066878447,-3,-1,0,8,6,1,2,-5
1532066878452,0,-5,1,-6,-3,0,-1,-3
1532066878457,0,1,-2,1,1,-1,-2,-2
1532066878462,-3,-2,0,-15,-11,-4,-2,0
1532066878467,-5,-3,-2,3,2,0,-1,0
1532066878472,3,4,-3,3,-1,-1,-2,-2
1532066878477,2,2,0,2,4,3,0,-1
1532066878482,2,3,3,2,-2,0,0,-1
1532066878487,-2,2,0,-3,0,1,0,1
1532066878492,-1,3,1,-2,-1,0,0,0
1532066878497,-2,-6,-2,4,3,-2,0,-1
1532066878502,-2,-3,-2,3,3,2,0,-3
1532066878507,2,2,0,-6,-6,-2,-3,0
1532066878512,0,0,1,4,-1,-2,-1,-1
1532066878517,-1,0,-5,-4,1,-2,-2,-2
1532066878522,-2,-1,1,3,1,-2,-1,-2
1532066878527,1,-5,-3,1,0,-1,0,-3
1532066878532,1,3,2,-4,-1,-1,0,-2
1532066878537,-2,-4,1,2,-1,-1,0,-2
1532066878542,-1,1,-1,-3,-4,-1,-2,-1
1532066878547,0,0,1,-2,2,-2,-1,1
1532066878552,-2,-1,1,2,-3,-2,-1,1
1532066878557,-1,-2,2,0,-2,1,0,-1
1532066878562,-1,0,1,-9,-2,0,0,-1
1532066878567,1,-2,-1,0,-1,-1,0,-1
1532066878572,0,0,2,4,2,1,-1,-1
1532066878577,-2,-4,0,-2,-3,-2,-1,0
1532066878582,1,3,3,3,-2,-1,0,0
1532066878587,-1,-1,-4,-8,0,-1,-2,-2
1532066878592,0,-1,2,2,-2,-1,0,2
1532066878597,-2,-3,-2,-4,-1,-1,1,0
1532066878602,-1,-5,-4,1,-2,-1,-2,-3
1532066878607,-2,-1,2,-5,-3,-2,-1,-1
1532066878612,0,-1,-4,1,2,-1,1,-1
1532066878617,1,0,2,-6,-2,-1,-1,1
1532066878622,1,-1,1,5,3,-1,0,-1
1532066878627,0,0,0,8,1,0,-1,1
1532066878632,1,1,-2,-9,0,1,-2,0
1532066878637,0,5,0,-5,-2,-2,-2,1
1532066878642,-3,-4,-4,6,-3,-1,-3,-2
1532066878647,1,2,-9,5,4,1,1,0
1532066878652,-3,-8,0,-6,-3,-3,-2,-2
1532066878657,-3,-5,7,-9,0,-3,-4,0
1532066878662,1,9,17,0,1,2,2,1
1532066878667,1,2,-20,-7,-3,-1,1,-2
1532066878672,-2,-7,-8,-8,-2,-2,-1,-3
1532066878677,2,14,14,7,2,2,2,-1
1532066878682,-2,-12,6,-8,-1,0,1,-2
1532066878687,-5,-3,3,23,-6,-4,-4,0
1532066878692,-4,-12,2,13,-2,-2,-4,-2
1532066878697,0,-4,-16,-22,7,1,-1,1
1532066878702,-1,8,10,2,-5,-2,-2,0
1532066878707,2,4,1,3,4,3,4,0
1532066878712,0,0,-29,-23,1,2,2,-2
1532066878717,2,17,14,35,-2,1,-1,1
1532066878722,7,22,23,22,1,3,8,-4
1532066878727,-14,-33,64,0,-1,-4,-18,0
1532066878732,3,18,0,17,1,1,2,2
1532066878737,-9,-45,-43,-13,-1,-7,-4,-5
1532066878742,-1,-7,-44,-3,-10,0,-2,6
1532066878747,6,20,-23,6,-1,1,6,-3
1532066878752,2,23,-5,-25,-6,0,2,-2
1532066878757,-7,-20,-1,-2,-2,-2,-6,-5
1532066878762,0,-5,14,-7,2,-3,-1,1
1532066878767,-6,-15,16,18,-1,-3,-4,-2
1532066878772,-1,1,-16,-3,1,3,0,0
1532066878777,0,13,-41,-26,-15,1,8,-3
1532066878782,-12,-17,-12,18,-1,-5,-6,0
1532066878787,3,1,-58,-14,-1,3,1,1
1532066878792,3,22,45,-1,18,3,4,3
1532066878797,-1,19,-76,20,7,1,4,1
1532066878802,-19,-57,33,-42,-15,-9,-13,-9
1532066878807,11,30,-64,15,38,5,10,3
1532066878812,-1,-3,63,-4,-26,-1,1,-3
1532066878817,-14,-44,37,26,-5,-5,-14,0
1532066878822,4,25,22,-5,1,0,-4,2
1532066878827,2,5,-9,-48,2,4,6,-3
1532066878832,-2,-15,29,75,-2,-4,-1,-3
1532066878837,3,12,36,-86,14,-6,-3,-4
1532066878842,3,-4,-20,19,-8,1,1,0
1532066878847,-9,-21,51,3,-12,-8,-9,0
1532066878852,6,5,-37,11,4,2,3,-3
1532066878857,7,13,26,24,-3,1,3,-2
1532066878862,8,7,-1,-19,9,-5,-5,-4
1532066878867,10,6,-18,6,22,13,20,3
1532066878872,-18,-26,-40,-61,-26,-15,-13,-2
1532066878877,3,17,-1,53,7,4,5,6
1532066878882,4,29,88,-47,-8,1,-3,5
1532066878887,0,-6,3,-12,-9,-2,-6,-6
1532066878892,-1,-7,-4,76,-7,0,4,-2
1532066878897,8,11,0,-81,2,5,7,-1
1532066878902,0,2,-35,83,28,-2,2,-2
1532066878907,-8,-13,7,-23,-38,-7,-10,0
1532066878912,7,-1,4,-28,28,1,-1,1
1532066878917,5,-3,-7,1,-19,-1,-1,-2
1532066878922,6,-6,-41,-38,4,3,3,-6
1532066878927,-1,0,17,63,-13,-4,-2,0
1532066878932,0,-4,-1,-23,4,-2,-6,0
1532066878937,1,-2,0,38,3,0,1,0
1532066878942,4,-1,-27,-22,7,3,4,-2
1532066878947,1,2,13,-18,-8,-1,-3,-2
1532066878952,-4,1,-4,-6,6,-1,0,-1
1532066878957,-1,0,20,30,1,0,-1,1
1532066878962,-5,-6,-10,28,-4,0,-2,1
1532066878967,-4,1,10,-29,-2,-5,-6,-1
1532066878972,-1,-2,-2,5,1,1,1,0
1532066878977,-3,-3,-6,-50,0,0,0,-4
1532066878982,-8,-3,-1,37,-4,-2,-6,1
1532066878987,0,-2,-6,11,4,-2,5,2
1532066878992,2,1,-3,-18,2,1,1,-1
1532066878997,-1,0,7,17,-1,-1,-1,-1
1532066879002,-1,1,-23,-36,-8,-4,2,0
1532066879007,0,0,5,34,5,0,-1,1
1532066879012,-2,-4,2,-18,-2,1,-2,2
1532066879017,-3,-3,5,0,-2,-4,-5,0
1532066879022,-1,-1,-3,3,-8,1,1,-1
1532066879027,-1,-1,-1,-22,7,0,0,-2
1532066879032,1,0,5,9,-4,-2,-3,0
1532066879037,-2,5,3,19,7,2,-1,0
1532066879042,-1,8,-7,-21,-3,-1,3,-1
1532066879047,-5,-24,-3,2,1,0,-1,-3
1532066879052,-3,-2,-2,8,-2,-2,-2,-2
1532066879057,-2,2,3,1,-2,-1,0,-1
1532066879062,2,-11,-3,4,3,-1,2,1
1532066879067,-2,9,0,8,3,-2,-2,-1
1532066879072,-1,-2,-11,-37,-9,0,0,-3
1532066879077,-1,1,6,-6,-5,-3,-1,-1
1532066879082,-1,-1,4,1,-2,1,1,-2
1532066879087,-3,2,4,9,1,-4,-5,-1
1532066879092,-2,-4,-3,-3,-11,-1,-2,-2
1532066879097,1,2,-2,-23,7,1,1,-2
1532066879102,-4,2,24,38,3,-1,-5,0
1532066879107,1,1,-7,-29,1,-2,-2,-1
1532066879112,0,-1,8,15,0,-2,-2,0
1532066879117,2,-2,-22,0,33,1,3,0
1532066879122,-6,-11,8,8,-27,-1,-3,1
1532066879127,0,12,-22,-21,-3,0,0,0
1532066879132,-2,-10,11,14,5,0,0,-2
1532066879137,5,8,-1,8,-10,-4,-5,-1
1532066879142,3,9,-14,-9,3,1,1,-3
1532066879147,-5,-3,5,10,-1,3,1,-1
1532066879152,-8,-15,-2,-6,-1,-3,-2,-1
1532066879157,-6,-24,2,16,-1,-3,-1,-5
1532066879162,5,10,-11,-8,-3,-5,-4,-2
1532066879167,5,13,10,-4,2,4,0,1
1532066879172,2,4,-10,1,7,2,2,-1
1532066879177,-1,-2,3,-3,-7,-1,0,-2
1532066879182,1,3,-14,-7,4,-4,-1,2
1532066879187,0,-5,3,-2,-7,-1,4,-1
1532066879192,1,3,-5,10,10,-1,-2,-2
1532066879197,-1,2,-4,-5,-10,-2,-1,0
1532066879202,1,-5,-7,4,15,0,3,-4
1532066879207,-1,0,-5,-10,-3,0,1,-2
1532066879212,2,5,17,-6,5,3,4,-1
1532066879217,-3,-6,-44,13,2,-2,-2,-2
1532066879222,-1,1,7,-11,-7,-3,-6,2
1532066879227,0,1,3,10,4,0,-1,1
1532066879232,-3,-6,4,3,-5,-2,0,0
1532066879237,2,8,11,15,-5,2,3,-1
1532066879242,-3,-3,-10,-15,4,-3,-3,-4
1532066879247,-1,-6,0,-1,-7,-6,-6,-3
1532066879252,0,-1,0,-8,-9,-2,-1,0
1532066879257,2,5,10,7,14,1,1,-2
1532066879262,0,0,-4,6,-3,-1,0,-1
1532066879267,-2,-3,6,6,-6,-1,-1,1
1532066879272,-1,-2,-11,-12,-1,0,-3,0
1532066879277,-2,3,9,4,0,-1,-3,-1
1532066879282,1,0,-36,-6,1,1,1,-2
1532066879287,-4,-11,41,6,-5,-6,-7,-2
1532066879292,0,4,-8,-5,-1,-1,0,0
1532066879297,1,-2,-7,-2,-4,1,1,1
1532066879302,-2,-2,-2,-2,-3,-2,-2,-1
1532066879307,1,2,-23,-1,2,0,1,0
1532066879312,1,5,16,-3,-3,-1,-1,-2
1532066879317,1,6,-13,6,1,0,1,-2
1532066879322,-9,-20,4,-13,-1,-3,-4,1
1532066879327,2,4,-1,-3,-5,-4,1,0
1532066879332,0,1,-5,3,2,0,0,0
1532066879337,1,2,4,22,2,2,2,1
1532066879342,-2,-8,8,-14,-6,-3,-1,-4
1532066879347,0,8,2,4,4,-1,0,0
1532066879352,0,-6,-3,2,-3,-1,-1,0
1532066879357,-2,-1,-2,4,-2,-1,-2,-2
1532066879362,-1,3,0,3,-5,-1,0,0
1532066879367,1,-3,-7,-5,1,2,2,0
1532066879372,0,-1,12,-9,-3,-2,0,-3
1532066879377,-1,-1,3,2,-4,-2,0,0
1532066879382,0,0,-2,2,3,-2,-2,0
1532066879387,1,0,0,-6,2,1,1,-1
1532066879392,-2,0,-12,2,0,1,-2,-1
1532066879397,-1,-2,4,-2,-5,-2,0,-2
1532066879402,-1,-2,3,0,0,0,1,-1
1532066879407,-1,2,1,-8,-2,1,0,0
1532066879412,-3,-2,-8,6,-8,-1,-1,1
1532066879417,-2,-3,21,-32,1,-2,-2,-1
1532066879422,0,6,-32,-3,-1,-2,-3,2
1532066879427,-2,-6,0,5,3,-1,-1,-3
1532066879432,-2,-11,-3,2,12,1,-1,-2
1532066879437,0,-2,-8,2,-10,0,-1,1
1532066879442,2,8,13,0,0,0,1,-2
1532066879447,1,2,-1,-3,-1,-1,-2,-1
1532066879452,0,3,11,5,3,-2,0,0
1532066879457,-4,-6,-10,8,0,-1,-2,-2
1532066879462,2,-2,1,-5,-2,-1,-1,-1
1532066879467,2,1,7,4,-2,-1,-1,-1
1532066879472,1,-3,-8,-3,-1,0,1,-1
1532066879477,-2,-5,-2,-2,0,-2,-2,1
1532066879482,0,1,12,-9,1,0,0,-1
1532066879487,-2,0,-1,-7,-2,-2,-1,1
1532066879492,-1,-2,-4,10,-2,0,-2,-2
1532066879497,-1,0,-4,-21,0,-2,-4,-4
1532066879502,0,-4,-12,2,-1,1,-1,-2
1532066879507,0,4,2,11,-3,-3,-2,-1
1532066879512,-4,-4,-14,-36,-5,-2,-2,-1
1532066879517,0,0,8,8,0,-1,3,2
1532066879522,-1,3,10,8,-2,-3,-4,-2
1532066879527,-2,-3,4,-6,-1,0,2,-1
1532066879532,1,3,5,19,0,0,-1,0
1532066879537,0,-4,2,-12,-4,-2,-3,-1
1532066879542,-2,-1,-7,-2,0,-2,0,0
1532066879547,1,1,-12,-12,-5,0,0,0
1532066879552,-2,-1,-12,21,-1,-3,-1,-1
1532066879557,0,1,12,13,2,0,0,-1
1532066879562,3,0,12,-13,-4,1,-1,0
1532066879567,-3,-3,16,3,2,0,0,-1
1532066879572,2,2,5,-18,-1,0,3,-1
1532066879577,-1,-2,-7,-2,-3,-1,0,1
1532066879582,-2,1,4,5,2,-1,-2,-2
1532066879587,0,2,-2,1,-1,-2,-1,-1
1532066879592,0,-4,-5,0,-12,-3,-1,0
1532066879597,-1,0,-8,6,-2,-2,-3,-1
1532066879602,-2,-1,-1,2,-1,0,2,1
1532066879607,0,-1,-9,11,4,0,1,-1
1532066879612,-1,2,6,-4,0,-2,-2,1
1532066879617,0,-2,-5,9,-1,-1,-3,-2
1532066879622,-1,0,0,1,3,3,1,-1
1532066879627,0,-3,1,-4,-1,-1,-1,0
1532066879632,2,2,4,-9,-1,0,-1,-4
1532066879637,-1,-4,0,-13,-4,-2,-1,-3
1532066879642,-2,-2,-3,12,0,-2,-2,-1
1532066879647,-2,-2,9,4,-2,1,-1,0
1532066879652,1,2,-1,-5,5,1,0,0
1532066879657,-1,-1,-3,-16,0,-1,-1,-1
1532066879662,1,0,4,-7,-1,0,0,0
1532066879667,-1,-2,11,6,-1,-2,-3,0
1532066879672,-1,1,7,-10,0,1,2,1
1532066879677,-1,0,4,11,6,1,1,0
1532066879682,-1,-2,-2,-2,-2,-1,0,0
1532066879687,1,-1,-12,-11,-3,-2,-3,0
1532066879692,-1,-1,-13,0,0,-1,0,-1
1532066879697,1,1,-5,-2,-2,-1,-1,-1
1532066879702,-1,-1,-3,8,-1,-1,0,1
1532066879707,-1,1,-6,-8,1,1,-2,-1
1532066879712,0,0,-1,9,0,-1,-2,-2
1532066879717,-2,-1,0,2,-5,-2,-1,0
1532066879722,0,-1,-2,2,-1,-1,-1,0
1532066879727,-2,-3,-1,-2,0,-1,0,0
1532066879732,2,0,-7,-22,1,1,2,-2
1532066879737,-3,-3,9,15,-2,-4,-2,-1
1532066879742,-2,0,3,7,0,-2,-3,0
1532066879747,-2,-2,-9,-14,-1,0,2,0
1532066879752,-2,-1,-1,11,0,-2,0,0
1532066879757,-1,0,-4,-22,0,1,-1,0
1532066879762,-3,0,0,8,-2,-2,-1,-1
1532066879767,-1,2,6,6,1,1,5,0
1532066879772,-10,-6,-2,-1,-5,-4,-6,0
1532066879777,-3,1,-5,-6,-2,-1,0,-1
1532066879782,-4,-2,4,-4,0,1,-3,-1
1532066879787,-5,-3,-7,-9,0,1,-3,-2
1532066879792,-4,1,0,14,1,1,0,-2
1532066879797,-7,0,12,8,0,-2,-3,0
1532066879802,-6,0,2,-15,-2,-2,-1,0
1532066879807,-3,-4,-1,8,-5,-4,-4,-2
1532066879812,-4,-3,9,-14,-1,-1,-2,-1
1532066879817,1,7,-5,5,-2,0,-1,-2
1532066879822,1,-15,-7,-13,1,-1,3,-1
1532066879827,2,1,7,31,-2,-2,-5,0
1532066879832,2,-2,-2,-8,-4,-2,5,-1
1532066879837,2,-1,-9,1,-3,-2,0,1
1532066879842,3,5,5,0,2,0,-1,-2
1532066879847,4,-1,1,-15,1,1,1,-1
1532066879852,2,-1,-3,11,-4,0,-4,0
1532066879857,4,1,1,3,6,0,-1,0
1532066879862,4,2,-6,4,2,-1,1,0
1532066879867,3,-2,-3,-24,-5,-3,-1,-2
1532066879872,2,9,11,31,2,-1,-3,-1
1532066879877,3,-4,-3,-1,-2,-1,-1,-1
1532066879882,1,-17,-6,-1,-5,0,-2,-1
1532066879887,0,-13,-2,-10,-1,-1,2,-1
1532066879892,3,-2,4,4,0,-1,1,0
1532066879897,3,9,-1,-4,0,2,0,-1
1532066879902,0,3,9,-6,-3,-2,-2,-2
1532066879907,2,3,-4,4,-6,-1,-1,-1
1532066879912,1,3,5,-5,4,0,-1,-1
1532066879917,3,-3,-2,7,-3,-2,-3,-2
1532066879922,-1,2,-7,7,4,1,-1,-1
1532066879927,-1,1,-1,-29,3,1,3,-1
1532066879932,-3,-5,-3,16,-7,-1,-4,0
1532066879937,-1,1,-3,-9,-1,1,3,0
1532066879942,-2,0,4,16,-5,-4,-2,0
1532066879947,0,3,3,-2,-1,-3,-2,-1
1532066879952,0,-3,-7,-7,-2,-1,-1,0
1532066879957,-3,-3,5,-6,0,1,1,0
1532066879962,-2,4,-6,1,-1,-1,1,-2
1532066879967,-4,0,7,13,1,0,-2,-1
1532066879972,-1,-1,-6,-19,-1,-2,-1,-1
1532066879977,-2,-12,-2,4,-4,-1,-1,-1
1532066879982,-2,2,2,-9,-1,0,0,1
1532066879987,0,0,-4,5,2,0,2,0
1532066879992,-1,2,2,3,-1,-3,-2,0
1532066879997,1,1,-4,-9,1,-1,-3,-1
1532066880002,-2,-4,-3,0,-7,-2,-2,-3
1532066880007,-2,-7,0,1,-1,-1,1,-1
1532066880012,0,0,-4,-13,0,1,0,-1
1532066880017,-2,-1,3,3,1,-2,-1,0
1532066880022,-2,3,0,14,0,1,1,-2
1532066880027,2,8,-2,-19,3,-1,-3,3
1532066880032,-5,-4,-1,-4,-2,1,1,1
1532066880037,1,-6,-1,11,0,-2,-1,-3
1532066880042,1,3,0,-19,-2,-2,-3,-2
1532066880047,2,1,-4,2,-2,0,0,-2
1532066880052,-1,-2,3,17,0,-4,-3,-2
1532066880057,0,1,-6,-7,1,1,2,0
1532066880062,-1,-1,4,1,2,-1,2,0
1532066880067,-1,0,-2,4,-1,0,0,-1
1532066880072,-2,-3,-1,-5,0,0,-2,-1
1532066880077,-2,-3,5,3,-2,-1,-1,-1
1532066880082,0,0,-3,-5,-2,0,-2,-1
1532066880087,-2,-3,1,6,1,0,-2,-1
1532066880092,-1,-2,1,4,0,0,0,0
1532066880097,-2,-1,1,3,-5,-1,-1,-2
1532066880102,1,3,-4,-29,5,0,0,2
1532066880107,-2,-1,1,8,-4,0,1,0
1532066880112,1,-7,0,1,1,0,0,0
1532066880117,-2,1,-2,-1,0,-1,0,-1
1532066880122,0,-2,1,-1,-2,-3,-1,-1
1532066880127,-1,1,1,7,-2,-3,-1,-2
1532066880132,0,1,-4,-11,-1,0,0,-2
1532066880137,0,1,-3,-1,1,2,1,-1
1532066880142,-3,-4,7,16,-5,-3,-4,0
1532066880147,-3,1,-2,0,-1,1,-3,0
1532066880152,0,-2,-1,-3,-1,1,0,-2
1532066880157,-1,1,-3,-5,0,-1,-1,1
1532066880162,-1,-2,-3,-10,1,0,1,-2
1532066880167,-2,-5,6,7,-2,-1,-1,-1
1532066880172,0,0,-2,17,0,-2,1,-1
1532066880177,0,1,-1,-20,-3,-2,-1,-1
1532066880182,1,1,-2,16,-1,0,0,-1
1532066880187,-1,0,4,-3,2,0,-2,0
1532066880192,-1,-1,-3,0,0,-1,0,-2
1532066880197,-1,-1,-2,-3,-1,-3,-3,-1
1532066880202,-3,0,0,7,-6,1,-1,1
1532066880207,0,0,-2,1,4,-1,-1,-1
1532066880212,0,-3,2,-9,-1,-3,0,-1
1532066880217,0,-3,2,0,-1,1,0,-1
1532066880222,-1,-2,-1,-4,1,-3,-2,-1
1532066880227,-2,-1,-1,13,-3,-4,0,-1
1532066880232,-2,-5,7,-23,-1,-1,-2,-1
1532066880237,-1,1,0,11,-3,-2,-1,0
1532066880242,1,0,-2,-1,0,1,1,0
1532066880247,2,0,-1,-6,-2,0,-1,-2
1532066880252,0,2,-4,0,0,-1,1,0
1532066880257,0,-1,3,-1,-2,-1,-1,-2
1532066880262,0,-2,4,0,0,-2,-10,1
1532066880267,0,-2,-2,1,1,1,8,-2
1532066880272,-1,0,-1,1,-2,0,-2,0
1532066880277,0,0,-2,-4,2,-2,-1,1
1532066880282,1,1,0,18,2,1,0,-1
1532066880287,-2,-3,-1,-13,-5,-1,-6,-1
1532066880292,0,0,-3,2,-3,-3,-2,0
1532066880297,-1,0,0,1,3,1,1,-1
1532066880302,0,-1,-5,7,5,1,1,-2
1532066880307,0,-1,6,-4,-9,-1,-2,-1
1532066880312,-1,1,2,6,-2,-2,-1,0
1532066880317,-1,-5,-2,3,0,0,-4,-1
1532066880322,0,-1,-1,-7,-1,-1,2,-1
1532066880327,-1,-1,0,2,-2,0,0,1
1532066880332,1,-1,0,8,2,-1,-1,-2
1532066880337,0,0,-5,-37,-2,0,1,-2
1532066880342,-2,-2,3,32,0,0,0,-2
1532066880347,-1,2,-6,-11,1,-1,-1,1
1532066880352,-3,-3,6,-3,-4,-3,-4,-2
1532066880357,0,2,-3,-7,1,-2,1,1
1532066880362,0,-1,5,-2,-2,-2,-7,-1
1532066880367,2,2,-2,-25,1,0,7,-3
1532066880372,-7,-10,4,18,-8,-4,-4,-3
1532066880377,0,-1,-2,1,2,0,1,0
1532066880382,0,1,0,-21,-2,-1,3,-1
1532066880387,-1,0,-1,23,4,-1,-5,1
1532066880392,4,3,1,-44,6,5,10,-2
1532066880397,-6,-4,4,27,-7,-4,-14,-1
1532066880402,0,-1,-1,-17,-2,-1,2,2
1532066880407,5,-1,3,-1,1,0,2,2
1532066880412,-4,1,-6,-5,2,2,1,-5
1532066880417,1,0,2,11,-1,1,3,0
1532066880422,0,0,1,-11,1,0,1,0
1532066880427,-2,-9,-11,-7,-11,-5,-3,0
1532066880432,3,2,-5,-7,0,-1,-8,-1
1532066880437,-3,-5,4,24,-2,-2,-2,-4
1532066880442,2,1,-2,-4,1,-2,1,0
1532066880447,3,6,3,26,6,3,6,-1
1532066880452,-5,-5,-6,-35,-6,-2,-2,5
1532066880457,-2,-8,5,-21,-5,0,-3,-7
1532066880462,-2,-3,5,10,-8,-3,2,2
1532066880467,-2,0,2,-12,-1,-1,-6,1
1532066880472,1,5,8,38,6,1,2,0
1532066880477,5,10,1,-9,5,1,5,3
1532066880482,-4,-8,16,23,-5,-2,0,-2
1532066880487,-2,0,82,-17,-1,0,15,-1
1532066880492,2,-2,49,8,-1,-1,-25,-1
1532066880497,1,2,37,-1,3,-2,-5,-6
1532066880502,0,0,-13,-15,-1,1,-7,-3
1532066880507,-4,-3,-41,14,-1,-2,1,-3
1532066880512,0,-3,-32,-8,0,-1,13,3
1532066880517,-2,-2,-28,-5,-2,-4,-12,2
1532066880522,1,3,-15,-5,3,0,21,2
1532066880527,-3,-4,-18,-10,0,-5,-31,-3
1532066880532,-3,-1,-16,5,-2,2,35,2
1532066880537,0,-1,-19,1,-1,1,19,5
1532066880542,-5,-3,-9,-4,-1,-5,-18,-17
1532066880547,-1,2,-9,2,0,2,-17,-3
1532066880552,2,9,1,27,2,-1,2,0
1532066880557,-5,-14,-18,-35,-9,-4,-22,-5
1532066880562,-1,1,6,7,-1,1,13,4
1532066880567,-3,-1,1,2,-1,-1,2,1
1532066880572,0,-7,-2,-1,6,-2,-5,-9
1532066880577,1,4,5,-6,-2,0,14,10
1532066880582,1,0,-5,-22,0,1,-28,-12
1532066880587,-2,-2,-8,7,-1,-2,-3,-2
1532066880592,1,2,-1,-2,-3,1,1,2
1532066880597,-2,-1,1,3,-1,-1,6,-2
1532066880602,1,-2,-5,-4,0,-3,-3,5
1532066880607,0,2,-1,1,-1,-1,10,-2
1532066880612,3,1,-5,-12,-4,-1,-2,-2
1532066880617,0,0,3,9,4,4,9,-2
1532066880622,-1,1,3,-4,-2,-2,-31,4
1532066880627,-1,0,6,5,1,-1,7,-1
1532066880632,-1,-3,0,-5,-1,0,-8,-1
1532066880637,-2,1,2,18,-4,1,5,-1
1532066880642,1,0,3,-14,0,2,6,0
1532066880647,1,-2,-9,20,-2,-2,-18,2
1532066880652,-1,-2,-4,-43,-1,-1,-26,2
1532066880657,-3,1,0,23,5,1,29,-1
1532066880662,0,-2,1,0,-1,0,17,4
1532066880667,0,0,-8,-10,-1,1,-8,-3
1532066880672,-1,1,0,1,-3,-2,-2,-1
1532066880677,1,1,1,-4,0,-2,-13,-3
1532066880682,-1,-2,-4,-11,2,0,5,2
1532066880687,-2,-4,4,2,3,-2,0,0
1532066880692,-1,-3,1,5,-6,-2,2,-4
1532066880697,1,0,8,-7,8,0,-7,0
1532066880702,0,-1,6,-3,-1,-1,5,3
1532066880707,0,0,9,19,-3,-2,4,-1
1532066880712,0,0,4,-11,6,0,6,-1
1532066880717,-4,-7,1,-42,-19,-7,-11,-1
1532066880722,0,1,8,8,1,1,-2,-2
1532066880727,-1,-2,0,-2,0,2,10,-2
1532066880732,-1,-2,-1,9,-2,-2,-9,0
1532066880737,-1,1,4,5,0,0,-10,-4
1532066880742,-1,-1,2,-7,0,2,10,-1
1532066880747,-1,-2,1,-5,-3,2,25,2
1532066880752,-2,-2,-1,10,-2,-2,-19,-1
1532066880757,-1,1,1,7,-1,-1,-2,-1
1532066880762,-2,-1,-4,6,-1,-2,-4,-5
1532066880767,-3,-2,-4,-1,-2,-1,-1,0
1532066880772,-1,1,-3,18,3,1,9,-2
1532066880777,-1,0,-2,-24,-3,0,-6,0
1532066880782,-1,0,2,-10,-6,-4,-1,-1
1532066880787,-1,0,5,-5,-2,0,-3,1
1532066880792,-3,0,2,5,3,1,2,2
1532066880797,1,3,2,4,-1,-1,-2,-2
1532066880802,-2,-4,1,-5,4,-1,3,-2
1532066880807,1,-4,1,-12,0,0,-3,-2
1532066880812,0,0,1,-2,-6,-2,1,-1
1532066880817,-2,1,-1,15,4,0,2,-2
1532066880822,0,-1,5,13,-2,1,3,0
1532066880827,-2,-2,-2,-40,-5,-1,-7,-4
1532066880832,0,-2,1,1,2,1,3,1
1532066880837,0,1,0,11,4,-1,-1,1
1532066880842,-1,0,-1,-4,-3,0,-3,0
1532066880847,3,6,0,24,4,-2,-2,1
1532066880852,-4,2,1,-8,-5,0,3,0
1532066880857,-2,-16,2,-3,-2,-2,-2,-2
1532066880862,-2,-5,-5,16,3,-1,-10,0
1532066880867,0,2,-1,-2,0,0,9,-2
1532066880872,1,-2,-1,-27,-7,-1,0,-3
1532066880877,1,8,0,14,0,-3,-1,1
1532066880882,-3,-13,1,-5,0,-1,-1,0
1532066880887,2,-1,2,-6,0,-1,-8,0
1532066880892,-2,3,3,10,-1,-2,2,0
1532066880897,2,1,-1,40,5,3,0,-1
1532066880902,-2,1,0,-20,-7,-4,-2,-1
1532066880907,0,-3,1,-7,-1,-1,-3,0
1532066880912,-1,-5,-3,15,-3,0,5,-1
1532066880917,-1,-5,-2,8,0,-2,-12,0
1532066880922,2,5,-3,6,0,0,-6,-1
1532066880927,-1,-2,1,-2,0,0,5,1
1532066880932,1,-3,2,6,-1,-2,-6,-3
1532066880937,-1,-2,0,-23,1,-1,9,0
1532066880942,1,3,6,8,-1,-1,-1,0
1532066880947,0,-1,2,6,-1,0,5,2
1532066880952,-2,-4,3,15,-1,-2,-10,-1
1532066880957,-1,1,3,-17,-4,0,-5,-1
1532066880962,-1,1,-1,-3,0,-1,3,-1
1532066880967,-1,-2,-2,11,1,-2,1,-4
1532066880972,-1,-2,-3,-3,0,0,-11,1
1532066880977,-1,-1,0,-1,1,0,9,1
1532066880982,-1,-1,-3,1,-3,1,3,-2
1532066880987,-1,0,-7,-12,2,0,-2,1
1532066880992,1,-1,-8,5,0,-1,13,4
1532066880997,-4,-3,2,-13,-7,-4,-22,-13
1532066881002,0,2,3,12,5,2,1,0
1532066881007,0,0,4,18,-2,-2,-5,-2
1532066881012,-1,-1,2,-47,-4,-1,4,-3
1532066881017,0,0,-11,16,0,-2,4,0
1532066881022,0,2,-2,-17,-1,0,4,0
1532066881027,-3,-4,-8,6,-3,-2,-6,-2
1532066881032,-1,-1,4,-7,-1,-2,-4,3
1532066881037,0,1,8,-1,-2,-3,-6,1
1532066881042,1,1,2,4,0,0,0,-1
1532066881047,-1,-2,1,-4,0,0,-4,0
1532066881052,-1,-2,5,-2,-1,1,7,-1
1532066881057,1,1,6,-9,4,1,-1,-1
1532066881062,-4,-4,0,-16,-8,-3,-4,-3
1532066881067,-2,-3,2,2,-5,0,-2,-1
1532066881072,1,-1,-2,5,4,-2,4,-1
1532066881077,0,-1,-1,7,0,-2,1,-1
1532066881082,-1,-1,0,13,1,0,1,1
1532066881087,-1,1,-2,-2,-1,-1,-11,-2
1532066881092,0,0,-4,-8,-3,-3,8,-2
1532066881097,0,0,0,-16,-2,1,-1,2
1532066881102,0,-3,1,17,1,-1,7,5
1532066881107,-2,-1,4,-2,0,-1,-11,-3
1532066881112,2,1,5,14,5,2,-4,-2
1532066881117,-2,-3,0,6,2,0,2,0
1532066881122,-1,0,5,-10,-6,-2,1,1
1532066881127,1,1,8,18,-3,-1,6,0
1532066881132,-3,-2,-3,-8,-1,0,-6,-2
1532066881137,-2,-1,1,12,-1,0,1,4
1532066881142,-3,-2,-4,4,2,0,-5,-3
1532066881147,0,0,3,10,-5,-4,5,1
1532066881152,0,-1,3,-39,-1,-3,-2,-3
1532066881157,0,0,6,-4,-2,0,1,2
1532066881162,0,1,0,18,6,-2,-2,-3
1532066881167,-1,-2,3,-3,-2,0,2,0
1532066881172,-1,0,4,30,3,0,3,3
1532066881177,0,-1,-3,-25,-4,-2,-1,-1
1532066881182,2,-2,4,-21,-4,-1,0,-2
1532066881187,-3,-2,-3,19,3,-2,-4,-1
1532066881192,0,0,2,-15,1,2,-1,-1
1532066881197,-1,0,1,16,2,0,2,0
1532066881202,-2,-2,4,-2,-5,-3,-7,-1
1532066881207,-2,-2,-5,-27,1,0,2,-1
1532066881212,-1,-1,-1,37,-2,-1,-2,-1
1532066881217,1,2,3,-32,-2,2,1,-4
1532066881222,-1,-1,-1,-6,2,0,2,0
1532066881227,-2,-4,-2,0,-2,0,-2,-2
1532066881232,-2,-1,0,6,2,1,-2,-2
1532066881237,-1,-2,-4,2,2,-2,-1,-1
1532066881242,-3,-3,-6,-13,-6,-1,-4,-1
1532066881247,0,0,2,-1,1,0,1,1
1532066881252,1,0,3,-8,1,0,-2,-3
1532066881257,0,-4,2,2,-1,-1,-1,-2
1532066881262,0,0,4,2,-1,1,0,-2
1532066881267,0,0,2,-15,2,-3,-2,-2
1532066881272,-1,-3,-4,3,-2,-2,-15,-2
1532066881277,-1,-1,2,12,-2,1,17,4
1532066881282,0,0,2,-1,1,0,-4,-2
1532066881287,1,2,-2,-6,-4,0,-1,0
1532066881292,-1,-1,3,2,-1,0,1,0
1532066881297,-1,-1,-4,-1,-1,-1,-4,-3
1532066881302,-1,0,-1,2,1,-1,0,-1
1532066881307,0,0,6,-5,0,1,5,-1
1532066881312,-2,0,0,1,-4,-2,-7,-1
1532066881317,-3,-2,1,0,2,-3,-4,2
1532066881322,1,1,4,18,-7,0,4,-2
1532066881327,0,-2,1,-20,-3,-2,-2,0
1532066881332,-1,0,1,-8,0,2,8,0
1532066881337,-1,-1,-3,13,-2,-2,-14,-2
1532066881342,0,0,-2,-12,0,-1,8,0
1532066881347,1,0,-4,2,0,-1,-7,-1
1532066881352,0,0,3,8,-2,0,8,0
1532066881357,-3,-4,-8,-21,-7,1,19,2
1532066881362,-2,-1,-2,-4,1,-2,-22,-4
1532066881367,-1,-2,-1,5,1,0,2,-1
1532066881372,-1,-2,-3,-11,-1,-2,-3,-2
1532066881377,1,2,0,17,4,0,-4,-3
1532066881382,0,0,-3,10,0,-2,2,-1
1532066881387,-1,-1,-2,-23,-4,2,1,-1
1532066881392,-3,-2,-8,2,-1,-2,-4,0
1532066881397,-1,0,5,-6,-4,0,-3,1
1532066881402,-1,-1,-5,10,6,0,4,2
1532066881407,2,0,2,-2,3,1,-3,0
1532066881412,-2,0,2,3,-4,0,-7,-2
1532066881417,-2,-3,-3,-11,-1,-1,7,1
1532066881422,1,0,0,-4,1,0,-3,0
1532066881427,-1,1,2,5,0,1,4,0
1532066881432,0,-1,1,-6,-2,-3,-2,-1
1532066881437,0,-1,2,-4,2,2,-6,-3
1532066881442,0,0,2,-6,-2,-2,4,2
1532066881447,-2,-2,2,0,2,0,0,-2
1532066881452,-4,-3,7,12,-1,0,1,0
1532066881457,0,0,1,-5,2,-2,-3,-2
1532066881462,-2,0,3,26,-8,-1,-4,1
1532066881467,-2,-3,-1,-13,0,-3,-6,0
1532066881472,1,1,3,-10,-1,2,3,0
1532066881477,-2,0,-5,10,-3,-1,-2,-2
1532066881482,1,0,-1,-15,6,0,0,-3
1532066881487,-4,-3,-10,4,-7,-5,-8,-2
1532066881492,2,1,1,-13,1,-2,11,-1
1532066881497,0,0,3,17,0,0,-5,1
1532066881502,-2,-3,-3,-14,-1,0,-2,0
1532066881507,2,2,7,-21,0,2,0,-1
1532066881512,-4,-2,-3,14,-2,-2,-4,1
1532066881517,1,3,2,-12,1,1,1,-1
1532066881522,-2,-2,3,-6,2,-3,-2,-1
1532066881527,-1,1,1,30,1,0,3,-1
1532066881532,3,2,4,-10,7,1,1,-4
1532066881537,-5,-7,-2,-4,-12,-5,-5,0
1532066881542,-1,1,2,-17,1,0,-3,0
1532066881547,-2,-3,-2,-3,-3,-3,1,-2
1532066881552,0,-3,-2,-19,-1,-1,1,0
1532066881557,0,2,4,3,0,0,0,0
1532066881562,0,0,0,7,-2,1,1,1
1532066881567,-1,1,2,12,2,-1,-1,-1
1532066881572,1,1,-5,-4,-1,1,-1,-3
1532066881577,-1,0,-2,-16,0,0,-2,0
1532066881582,-2,-4,-5,3,-4,-1,-2,2
1532066881587,2,2,2,5,1,0,3,1
1532066881592,-1,0,3,2,-4,-3,-3,0
1532066881597,0,1,4,-3,3,0,0,-1
1532066881602,0,0,4,-1,0,-1,-1,1
1532066881607,-1,-2,2,1,-3,0,-2,-1
1532066881612,2,1,3,-17,4,0,2,0
1532066881617,-4,-3,-1,11,-5,-3,-2,1
1532066881622,-2,-2,5,-26,-4,-2,3,-1
1532066881627,1,-2,-3,-32,0,0,2,0
1532066881632,-3,-5,-1,52,-4,-4,-6,-1
1532066881637,0,4,6,0,7,2,-1,2
1532066881642,-3,-1,-1,7,-9,-1,-1,-2
1532066881647,0,0,1,0,1,-1,1,1
1532066881652,0,-1,0,-11,0,-1,-4,-3
1532066881657,0,-4,1,-8,-6,-1,5,-4
1532066881662,-2,-2,2,10,3,-2,-9,-2
1532066881667,-2,-1,8,-7,1,0,4,3
1532066881672,-1,-2,-2,6,-5,0,1,0
1532066881677,2,2,1,-3,3,0,-4,-2
1532066881682,0,2,-1,-7,2,0,11,1
1532066881687,-2,-4,-6,3,-5,-1,-3,-3
1532066881692,-4,0,1,16,3,-1,-1,-2
1532066881697,0,-3,-3,-6,1,0,-6,0
1532066881702,3,1,4,9,0,-1,-2,-1
1532066881707,-3,-2,-1,4,-3,-2,-4,-2
1532066881712,-1,-3,-11,-10,-1,-2,-2,-3
1532066881717,-1,2,-3,7,-2,-3,-2,-4
1532066881722,0,-2,-9,19,2,2,6,3
1532066881727,-3,-2,0,6,-1,-5,-10,-2
1532066881732,0,-1,2,-14,-1,1,4,-1
1532066881737,0,-2,-4,-1,-1,-1,-5,-1
1532066881742,0,0,-1,23,-3,0,-6,-2
1532066881747,0,0,-7,1,0,1,15,1
1532066881752,-3,-2,0,-14,-4,-1,-6,0
1532066881757,0,1,-3,15,2,-2,4,-1
1532066881762,0,-1,-1,-18,-3,0,-3,-2
1532066881767,0,1,-2,3,-1,0,-5,0
1532066881772,0,3,2,-2,0,-1,-1,0
1532066881777,-2,-3,-2,5,-3,0,2,-1
1532066881782,-1,-1,-1,-10,3,-3,0,-1
1532066881787,1,0,0,19,1,0,-4,-2
1532066881792,1,-2,-1,7,-2,0,4,2
1532066881797,-1,-3,-7,0,-5,-1,-12,0
1532066881802,-2,0,3,-3,-2,0,2,-3
1532066881807,2,-1,6,-4,-1,-1,1,0
1532066881812,-3,-2,5,21,-4,-1,-3,-2
1532066881817,-2,-3,1,10,-2,0,2,1
1532066881822,-1,1,-3,-1,1,-2,-5,-2
1532066881827,1,1,-6,-5,1,1,10,1
1532066881832,-1,-1,-4,8,-1,0,-3,0
1532066881837,0,1,2,1,2,-1,0,-2
1532066881842,-1,-2,-9,-53,-4,-2,-1,0
1532066881847,0,-1,-3,0,1,-1,-6,-3
1532066881852,-1,-1,1,16,-5,-2,0,-1
1532066881857,0,0,4,-26,-1,2,-1,-3
1532066881862,-3,-3,2,14,1,-2,-2,-2
1532066881867,0,0,2,9,0,-1,-3,-1
1532066881872,2,0,5,-24,1,-1,-3,0
1532066881877,-1,-2,7,19,2,-2,1,0
1532066881882,-2,-3,-2,-17,-11,-1,-1,-1
1532066881887,-3,0,-7,-17,-1,1,-1,0
1532066881892,1,0,-4,-2,-2,-1,0,-2
1532066881897,-1,0,-2,1,0,-2,7,-1
1532066881902,0,0,-7,-2,3,0,0,-1
1532066881907,0,1,1,-7,2,-1,-3,-3
1532066881912,-2,-2,0,-32,-5,-2,-1,1
1532066881917,-3,-2,4,-14,-3,0,-1,0
1532066881922,0,0,1,35,2,1,0,-2
1532066881927,0,1,1,-12,2,0,3,-1
1532066881932,-4,0,-5,27,8,1,3,0
1532066881937,0,-1,-4,-19,-1,0,-2,0
1532066881942,1,1,1,-6,-2,2,4,1
1532066881947,0,-1,0,-7,-3,0,-7,-2
1532066881952,1,-1,-2,-14,-3,-1,-1,-2
1532066881957,-1,1,5,19,-4,-1,-3,-1
1532066881962,-2,-2,5,4,1,-1,-3,0
1532066881967,0,0,4,-7,-3,1,4,1
1532066881972,-1,-2,0,-24,-1,-2,-8,0
1532066881977,-1,0,0,23,2,-1,4,-1
1532066881982,-1,-1,1,-10,2,-1,-2,-1
1532066881987,-2,-1,-1,7,-2,0,-1,0
1532066881992,-1,-1,4,3,2,1,2,-2
1532066881997,1,1,3,-3,1,1,-2,0
1532066882002,-1,0,-3,14,-1,-2,-1,0
1532066882007,-1,-2,-1,1,-4,-1,-13,0
1532066882012,-2,1,1,6,-4,-1,9,0
1532066882017,0,-4,0,-32,-2,-3,-6,-1
1532066882022,-1,0,3,11,-4,-2,0,-2
1532066882027,1,1,6,-8,0,1,0,1
1532066882032,0,0,5,13,4,0,-2,0
1532066882037,-4,-3,-4,-29,-6,-1,-1,-3
1532066882042,-1,-1,1,-18,1,-1,1,1
1532066882047,-1,-2,3,12,1,-2,-1,-1
1532066882052,1,1,1,-12,0,2,0,-1
1532066882057,0,0,-1,10,0,-1,-1,1
1532066882062,0,0,-2,-5,1,0,-3,-2
1532066882067,-2,-1,-1,13,0,-3,-2,-3
1532066882072,2,-1,-3,-4,0,1,0,1
1532066882077,-3,-2,-5,3,-3,-1,-3,-1
1532066882082,-1,1,5,8,-2,-1,-1,-1
1532066882087,-1,-2,-2,-1,0,-4,1,1
1532066882092,-1,-1,0,5,-2,-1,-3,-2
1532066882097,2,0,3,-2,0,0,2,-1
1532066882102,0,0,-5,0,2,0,-8,-1
1532066882107,-5,-6,-6,-18,-5,-6,4,-1
1532066882112,-1,1,-2,-3,0,0,-4,2
1532066882117,0,0,1,13,2,0,5,-2
1532066882122,0,-2,-1,2,-1,0,1,-3
1532066882127,1,0,-1,8,0,1,-2,-1
1532066882132,0,-1,-3,7,0,-3,-2,-1
1532066882137,0,-1,-2,-18,-1,2,-3,1
1532066882142,0,-1,3,7,-2,-1,1,-2
1532066882147,-1,1,-6,9,-3,-1,1,-1
1532066882152,-1,-1,-2,-10,-2,-2,-6,-3
1532066882157,-1,-1,0,14,-2,-3,-1,-1
1532066882162,0,0,1,-7,0,-2,-1,0
1532066882167,1,1,1,-6,4,1,2,-2
1532066882172,-2,-1,2,8,-6,-1,1,1
1532066882177,0,0,0,1,1,-2,-1,-3
1532066882182,-1,-1,3,2,-3,0,-6,0
1532066882187,0,-2,2,-8,1,1,3,-2
1532066882192,0,1,2,8,-2,1,3,-1
1532066882197,0,0,-2,9,1,0,-3,1
1532066882202,0,1,-2,-45,-3,0,3,-1
1532066882207,-3,-3,1,-15,-5,-1,-5,-1
1532066882212,-1,-3,-2,-5,-2,-2,-3,1
1532066882217,-2,-1,-2,6,-2,0,1,-1
1532066882222,-2,-1,1,29,1,0,-4,-1
1532066882227,2,0,-1,-18,0,0,5,0
1532066882232,-2,-2,-1,17,0,-2,-8,-2
1532066882237,-4,-2,-1,8,-4,-3,9,3
1532066882242,0,0,1,-4,0,-2,-2,-2
1532066882247,-3,0,3,18,0,-1,-2,0
1532066882252,1,0,-2,-15,0,1,2,1
1532066882257,-1,0,3,21,1,0,-4,0
1532066882262,0,-2,-1,-15,-3,-1,-1,-1
1532066882267,-1,-1,-2,7,-1,-1,-2,0
1532066882272,-1,0,-1,2,-2,-2,1,0
1532066882277,1,0,1,0,0,0,-4,-3
1532066882282,0,1,0,6,-1,0,1,-1
1532066882287,-4,-4,-1,-4,-3,-1,-3,0
1532066882292,-1,0,-3,6,-1,-1,1,0
1532066882297,1,0,2,-4,3,1,-2,-1
1532066882302,-1,-4,1,7,-3,-1,-5,-1
1532066882307,1,1,-5,-20,1,-3,6,-2
1532066882312,-4,-5,-1,8,-3,-2,0,-1
1532066882317,1,1,3,15,-1,-2,-4,-1
1532066882322,0,0,-4,-8,2,-1,2,1
1532066882327,-1,1,1,16,1,0,-4,-3
1532066882332,-3,-4,-4,-40,-7,-2,-1,-1
1532066882337,1,2,0,-16,1,0,-1,0
1532066882342,-1,-3,-2,5,0,0,-2,2
1532066882347,-1,0,4,-5,-2,0,0,-3
1532066882352,1,2,0,21,1,-1,1,0
1532066882357,0,-4,1,-3,-1,-1,-5,-2
1532066882362,-3,-1,3,7,0,1,0,-2
1532066882367,0,1,0,-14,1,1,3,0
1532066882372,0,0,1,34,0,-1,-4,-2
1532066882377,-6,-3,0,18,-2,-2,-3,-1
1532066882382,-1,-1,1,-10,-1,-1,-1,-1
1532066882387,-1,-2,-1,1,-2,0,-11,-1
1532066882392,-2,0,2,-3,1,-1,12,1
1532066882397,1,2,-1,10,2,0,-1,-1
1532066882402,0,1,0,-10,-2,-2,4,0
1532066882407,-1,0,3,1,2,0,-11,-3
1532066882412,-1,-2,-3,-11,-4,-2,0,0
1532066882417,-1,-3,-2,-6,-6,-4,-2,-1
1532066882422,-2,-1,-3,16,1,0,2,-2
1532066882427,0,-5,-7,-35,-2,-1,-2,-1
1532066882432,-1,2,1,12,0,-1,-3,0
