1532627566096,11,0,2,10,41,7,-10,4
1532627566101,-3,-3,-2,-1,5,33,1,-2
1532627566106,2,-4,-1,-2,-14,-41,8,6
1532627566111,-13,1,-3,-4,0,-35,-25,-14
1532627566116,-8,-3,-2,-1,-24,-15,2,-5
1532627566121,3,-2,-3,-5,-1,20,3,2
1532627566126,-1,-2,-2,0,-15,-71,-8,-2
1532627566131,6,-4,-1,-5,4,41,-2,1
1532627566136,-1,-4,-3,-2,-7,-73,4,7
1532627566141,1,0,2,6,8,85,12,-2
1532627566146,3,0,2,3,14,-60,-11,-7
1532627566151,-1,-3,-1,-2,6,13,5,4
1532627566156,0,2,-1,-1,-11,-43,-11,-6
1532627566161,0,-1,-1,7,8,12,24,8
1532627566166,0,-1,0,-2,-5,-29,-3,-3
1532627566171,8,0,-1,-3,2,18,1,2
1532627566176,-3,2,-5,-2,-17,-28,1,0
1532627566181,-8,6,1,1,-2,0,-2,-1
1532627566186,-7,-1,1,-1,8,-4,2,-3
1532627566191,-1,2,-4,-4,1,22,-6,-1
1532627566196,-1,2,0,1,-14,-44,7,1
1532627566201,-4,-2,1,-2,8,32,6,-5
1532627566206,12,1,2,0,1,25,0,1
1532627566211,0,0,-4,-11,-51,-100,-22,1
1532627566216,-5,1,4,9,37,92,14,0
1532627566221,-8,0,-3,1,13,-18,6,-2
1532627566226,-6,0,0,3,2,-24,-7,4
1532627566231,-6,-3,-3,-6,6,50,23,4
1532627566236,-1,0,0,-2,-9,-5,-13,-3
1532627566241,-4,-1,2,1,-12,-82,-8,-3
1532627566246,-11,-2,-3,-1,-1,48,1,-5
1532627566251,0,-1,0,-3,16,7,-2,1
1532627566256,14,-1,-2,-3,-3,13,16,-2
1532627566261,-12,1,1,3,-15,12,-14,1
1532627566266,4,0,-1,-2,17,-5,2,-2
1532627566271,0,0,-3,-1,-1,11,-9,-5
1532627566276,0,-1,-2,-2,2,68,11,0
1532627566281,8,-1,-4,-3,-6,-1,-21,-1
1532627566286,2,2,2,4,-3,-38,4,2
1532627566291,-3,-1,4,6,14,37,4,-1
1532627566296,-6,-5,-8,-9,-11,-16,0,-1
1532627566301,2,0,0,2,-2,-31,8,0
1532627566306,-4,-2,-3,-5,-11,20,-1,-2
1532627566311,-1,0,1,0,9,-6,-9,-1
1532627566316,-2,0,3,2,-23,-33,-6,-2
1532627566321,3,-1,-3,-4,14,25,2,2
1532627566326,-2,-2,-3,-2,-3,-14,-2,-5
1532627566331,1,1,-5,-2,-9,-52,-4,-1
1532627566336,-3,1,0,0,8,40,2,-3
1532627566341,1,-1,-4,-6,-4,-10,-5,2
1532627566346,2,0,1,3,1,12,2,3
1532627566351,-2,-2,-2,-2,13,28,9,0
1532627566356,0,1,1,1,-4,-18,-12,-1
1532627566361,5,0,2,0,5,17,4,0
1532627566366,-3,-3,-2,-3,-13,-21,0,-1
1532627566371,0,-3,0,-1,11,0,-7,-1
1532627566376,-3,-1,1,4,8,4,13,2
1532627566381,-6,0,-2,1,10,37,6,-1
1532627566386,-6,0,-2,-5,-10,-3,-6,-1
1532627566391,-7,0,2,3,-5,-11,3,-2
1532627566396,-4,0,-2,-2,-7,-8,-3,-3
1532627566401,5,-3,-4,-7,-19,-14,-2,-2
1532627566406,1,-2,0,0,21,-37,-1,-2
1532627566411,5,1,3,4,15,48,1,1
1532627566416,1,-1,1,-2,5,33,1,-1
1532627566421,0,0,-2,-1,-11,-12,1,-1
1532627566426,-8,-1,-1,-5,-6,-17,-3,-6
1532627566431,2,-2,-1,-1,-2,-19,0,-3
1532627566436,-2,-1,-2,-5,0,-7,-3,-1
1532627566441,6,0,-1,1,5,6,2,3
1532627566446,-3,-1,-1,-1,-4,14,-1,-1
1532627566451,-1,-1,-1,0,-4,-25,-2,-1
1532627566456,-1,-3,-1,0,-5,7,0,-3
1532627566461,-1,0,-2,-3,2,-8,-2,-2
1532627566466,1,0,-1,-1,-13,-10,3,1
1532627566471,-5,-2,-1,-1,20,33,9,0
1532627566476,2,0,-2,0,1,-32,-14,-1
1532627566481,0,-2,1,3,1,-58,-8,-1
1532627566486,2,-1,-1,2,-5,3,-1,0
1532627566491,2,-1,0,1,-6,6,-2,-1
1532627566496,-3,-2,-4,-4,0,21,2,-2
1532627566501,1,0,2,5,-2,-48,-3,-1
1532627566506,2,1,-1,0,14,57,2,1
1532627566511,3,2,-2,1,-17,-30,-1,-1
1532627566516,11,-3,-2,-1,14,7,4,0
1532627566521,-5,0,-1,-4,-6,3,-1,-2
1532627566526,7,-1,-2,0,-3,-31,-7,2
1532627566531,-3,0,-1,-5,-4,14,3,-2
1532627566536,1,2,2,2,3,-2,-1,-2
1532627566541,-3,-1,-3,-4,-1,39,5,0
1532627566546,11,-1,0,-1,2,-13,0,0
1532627566551,-5,-2,-2,-3,-5,29,-6,-7
1532627566556,-6,-1,4,3,1,-53,-2,-1
1532627566561,0,-2,-1,-2,-4,1,-3,-2
1532627566566,-2,-2,-1,1,-1,36,1,-1
1532627566571,2,-1,-2,-2,-5,12,-3,0
1532627566576,1,-1,-1,3,2,-5,1,0
1532627566581,-2,-2,-3,-5,-6,-15,-1,-1
1532627566586,1,2,4,0,3,-23,-4,-1
1532627566591,1,-3,-6,0,-1,-4,5,2
1532627566596,-7,0,-1,-2,-2,12,1,-1
1532627566601,3,0,5,1,5,25,3,-1
1532627566606,-4,-3,-6,-5,-3,19,-2,-6
1532627566611,3,3,3,2,5,-11,-4,1
1532627566616,2,3,0,2,-3,-29,-2,4
1532627566621,-19,-4,-1,2,0,8,-3,-5
1532627566626,7,2,0,-1,-2,36,4,1
1532627566631,-13,-4,0,-2,-1,-23,-1,-4
1532627566636,6,2,-3,-3,1,18,-2,-1
1532627566641,3,1,-3,-3,0,8,1,0
1532627566646,-15,-4,-3,-4,-5,-21,1,-3
1532627566651,15,0,0,0,2,-2,-5,4
1532627566656,-9,-3,0,0,2,12,-3,1
1532627566661,19,1,0,3,0,-9,5,2
1532627566666,-3,1,-4,-2,-5,-18,0,-2
1532627566671,-13,-1,-1,-2,7,25,8,2
1532627566676,16,1,-1,0,-8,-12,-17,-2
1532627566681,-19,-6,0,-3,0,8,-11,-9
1532627566686,3,-4,0,1,1,-12,-2,-3
1532627566691,-2,-3,-2,-2,-6,-8,-1,-1
1532627566696,-6,-4,1,0,-2,0,6,-1
1532627566701,4,0,-4,1,7,15,2,2
1532627566706,-9,-3,-3,-6,-8,-17,-7,-8
1532627566711,-1,-1,0,3,-1,-5,-3,4
1532627566716,-4,-3,-6,-8,-2,10,6,-4
1532627566721,4,2,0,0,0,-3,-2,11
1532627566726,-2,1,2,1,4,7,4,7
1532627566731,-4,0,1,3,0,-8,-1,-4
1532627566736,-28,-2,-2,-2,-4,0,1,-7
1532627566741,37,2,-5,0,0,6,-2,-2
1532627566746,-36,1,-2,-1,1,-4,-8,-13
1532627566751,3,-4,0,-2,0,0,28,4
1532627566756,14,-3,-2,0,0,-5,-6,1
1532627566761,-7,-2,1,-1,2,11,3,2
1532627566766,10,0,1,3,0,1,2,0
1532627566771,2,3,-1,-5,-1,-10,-7,-8
1532627566776,-12,-3,-2,-1,-1,5,3,1
1532627566781,3,1,-2,1,-2,4,4,6
1532627566786,8,0,-2,-4,-3,-3,1,4
1532627566791,-25,-1,0,1,-1,-4,-1,-5
1532627566796,20,1,1,2,-2,3,22,0
1532627566801,-12,1,1,-2,-3,-2,9,-6
1532627566806,-1,-1,-3,-2,1,-7,10,0
1532627566811,4,0,-1,0,0,-2,-12,0
1532627566816,1,-1,-1,-2,-1,2,-12,2
1532627566821,-2,1,-1,0,0,1,-5,-3
1532627566826,15,0,0,1,2,3,-7,2
1532627566831,-3,-3,-3,-1,-2,-2,-9,1
1532627566836,-3,2,-1,0,0,-1,-4,0
1532627566841,-6,-1,-1,-3,-2,0,-6,-2
1532627566846,5,0,1,-3,2,2,-1,1
1532627566851,6,-2,-3,0,-2,-2,-4,2
1532627566856,-4,0,-2,-1,-2,-3,0,-3
1532627566861,-8,-3,-1,-1,2,1,-5,-4
1532627566866,8,-2,-1,1,0,-5,-3,2
1532627566871,10,2,0,1,2,1,5,4
1532627566876,-7,-3,-3,-3,-3,-3,-4,-3
1532627566881,3,-2,-3,-2,-2,2,0,1
1532627566886,-6,0,-1,-1,-1,-2,-2,-1
1532627566891,5,-3,-1,-2,1,1,-4,1
1532627566896,3,-1,-1,-3,0,-1,-2,0
1532627566901,-1,-3,-2,-1,1,0,-1,-3
1532627566906,-2,0,0,-1,-2,-7,-1,-1
1532627566911,1,1,1,1,0,4,-3,-5
1532627566916,-1,0,1,1,3,2,1,9
1532627566921,-17,0,6,-4,-1,0,-2,4
1532627566926,4,-6,-11,0,1,0,0,0
1532627566931,3,-1,2,-2,0,-4,-2,-13
1532627566936,-5,-2,0,2,3,7,2,4
1532627566941,9,3,1,2,0,-1,-1,-4
1532627566946,-6,4,3,2,1,1,-1,-2
1532627566951,-5,0,-1,-1,-1,-1,-2,0
1532627566956,-1,0,-2,0,-2,0,0,-3
1532627566961,-4,0,-2,-1,-2,0,-3,0
1532627566966,-7,-1,1,-1,-1,0,-2,-4
1532627566971,3,-1,-3,1,0,-3,-4,3
1532627566976,0,0,0,0,-1,-2,-2,-1
1532627566981,0,-3,-4,-1,0,0,2,-3
1532627566986,-3,-1,0,1,-1,-3,-1,1
1532627566991,4,0,-2,-1,-3,0,0,0
1532627566996,-8,-2,0,0,0,-2,-1,-2
1532627567001,0,0,-2,0,0,2,3,-2
1532627567006,3,1,0,0,4,3,0,6
1532627567011,-3,0,-1,-2,-1,-4,-2,-2
1532627567016,0,-2,-2,-2,-2,1,2,4
1532627567021,-1,-3,-1,1,-1,-1,-2,-4
1532627567026,1,0,0,-1,0,3,4,3
1532627567031,-1,-2,-1,-1,1,-2,0,-3
1532627567036,-1,0,-1,-1,0,-1,-3,-3
1532627567041,0,-1,-1,-1,-1,0,-3,1
1532627567046,1,-2,0,-1,-2,-1,-1,-3
1532627567051,2,2,-2,0,1,0,0,3
1532627567056,-9,-4,-1,0,-1,0,1,-7
1532627567061,-2,-1,-2,-2,-1,-3,-8,-2
1532627567066,-3,-1,0,-1,1,-1,0,-1
1532627567071,-2,0,-2,-1,-3,-3,-1,-1
1532627567076,3,2,0,-2,-3,2,0,0
1532627567081,-1,0,-1,0,-1,-1,2,0
1532627567086,-1,-1,0,2,-1,1,-2,0
1532627567091,-2,-1,1,-2,0,1,0,-2
1532627567096,-1,-1,0,0,1,-2,-3,-3
1532627567101,1,-1,0,0,-1,0,1,-2
1532627567106,2,0,-2,-2,-1,-3,1,-1
1532627567111,-4,-3,-1,-3,0,-2,2,0
1532627567116,0,0,-2,1,-1,-1,-3,-4
1532627567121,1,-1,0,-1,0,-1,0,2
1532627567126,0,-1,1,0,0,1,0,-1
1532627567131,0,1,-2,0,2,-4,-2,-2
1532627567136,0,-2,-2,-5,0,0,-3,-3
1532627567141,-1,-3,-6,-3,-2,-4,-3,0
1532627567146,0,-3,-4,-2,0,0,0,1
1532627567151,-2,2,3,4,0,2,1,0
1532627567156,0,2,3,5,2,2,-3,0
1532627567161,2,1,0,2,5,-3,2,-1
1532627567166,-3,-2,-2,-2,-2,-1,0,-2
1532627567171,0,-2,-3,-5,-5,-4,3,1
1532627567176,1,-3,-1,-1,6,4,-8,-1
1532627567181,-4,-1,-1,-4,-3,-1,0,-3
1532627567186,-2,-1,-2,1,1,1,-3,-4
1532627567191,5,0,-1,1,-1,1,0,-1
1532627567196,-7,0,-1,-4,-4,-5,8,2
1532627567201,-24,-4,-1,0,2,3,-2,-5
1532627567206,36,2,-2,0,-2,1,3,6
1532627567211,-27,4,0,-1,2,0,-1,-2
1532627567216,37,4,5,1,-1,0,-5,7
1532627567221,-46,-5,-13,-1,2,3,1,0
1532627567226,65,1,1,-2,-4,-1,9,9
1532627567231,-42,-2,-4,-2,1,-1,-13,-4
1532627567236,19,-2,-2,0,1,0,-8,-5
1532627567241,26,4,4,-1,-4,3,-1,4
1532627567246,-35,-4,-1,-3,2,-6,-2,0
1532627567251,2,0,-1,-1,2,0,12,1
1532627567256,-13,-2,-2,-1,-2,-6,2,-4
1532627567261,1,-2,-1,0,-4,2,-6,-5
1532627567266,-22,-2,0,0,0,1,5,0
1532627567271,21,-2,-1,-1,-2,1,-4,-2
1532627567276,-18,-2,-1,0,-1,1,-2,-1
1532627567281,17,-1,1,-1,1,-4,-1,2
1532627567286,-14,2,0,1,-2,-4,-4,-6
1532627567291,8,-2,-1,-1,-1,-6,-4,0
1532627567296,-3,-2,-2,-1,-1,0,3,0
1532627567301,-1,1,1,1,0,0,7,2
1532627567306,-4,0,0,1,-1,1,-5,-4
1532627567311,3,-2,-1,-2,-2,1,-3,-4
1532627567316,-7,0,-2,-1,-3,-3,6,3
1532627567321,10,1,1,0,1,-3,-3,-1
1532627567326,-12,-2,-2,-1,0,0,-8,-4
1532627567331,8,-3,-2,-2,-2,1,-1,1
1532627567336,-4,0,0,-1,-2,0,1,-3
1532627567341,3,-1,1,0,0,-1,-1,1
1532627567346,-2,-1,0,-2,-2,0,-5,-2
1532627567351,-2,-1,2,-1,0,-1,2,2
1532627567356,0,-2,-2,0,-1,-1,-2,-4
1532627567361,0,-1,0,-1,0,-3,1,-2
1532627567366,-5,-2,-3,-3,-2,2,0,-5
1532627567371,2,1,1,-1,-2,-2,0,0
1532627567376,-8,-2,0,-2,-1,-3,-3,-1
1532627567381,5,0,-1,1,0,-2,-1,0
1532627567386,-5,-1,-1,1,0,-2,0,-1
1532627567391,5,-1,0,-1,0,-3,-4,1
1532627567396,0,0,-1,-1,0,1,0,0
1532627567401,-1,-1,2,-2,0,3,4,0
1532627567406,2,1,0,0,1,0,-1,-1
1532627567411,0,0,-3,-1,-1,-1,-1,-2
1532627567416,-1,0,-1,2,-2,-12,2,-1
1532627567421,1,1,-1,-1,2,25,3,0
1532627567426,-6,-2,-1,-2,0,-4,-2,-2
1532627567431,0,-2,-1,0,-2,-2,-3,-2
1532627567436,-5,-1,-2,0,-1,-2,-9,-3
1532627567441,2,1,-2,0,-1,7,4,0
1532627567446,0,0,-1,1,1,-6,2,1
1532627567451,-3,-3,-3,-2,-3,0,-3,-2
1532627567456,-1,-2,-3,-5,0,-8,-4,-1
1532627567461,-4,-3,-3,-2,-8,-17,-22,-10
1532627567466,2,1,4,7,17,93,35,9
1532627567471,5,2,0,4,9,11,49,12
1532627567476,0,-1,-2,-5,-6,-17,-6,1
1532627567481,1,-1,-1,0,1,-3,7,3
1532627567486,-3,-2,-4,-4,-8,-31,-24,-7
1532627567491,-1,-1,0,1,0,3,-11,-5
1532627567496,10,4,8,1,1,15,4,3
1532627567501,-19,-8,7,-1,0,-16,-5,-6
1532627567506,-1,-5,-30,-2,-4,-1,4,-2
1532627567511,-2,0,0,-6,0,-5,-16,-4
1532627567516,0,-1,0,1,-1,-3,6,-2
1532627567521,8,2,2,0,-5,-19,-8,1
1532627567526,0,2,8,2,6,6,0,-1
1532627567531,2,-1,-1,0,-1,3,-4,-2
1532627567536,-2,-2,-3,1,0,-3,-5,-2
1532627567541,3,0,0,-3,-1,-9,7,2
1532627567546,-3,-4,0,-3,0,8,-6,-3
1532627567551,0,-1,-3,-1,-12,-47,-6,0
1532627567556,-4,-1,4,5,14,50,3,0
1532627567561,0,1,-2,3,0,13,5,0
1532627567566,-1,0,4,-1,-7,-37,-9,-3
1532627567571,-2,-2,-2,-7,-3,-10,-7,-3
1532627567576,-4,-2,-7,0,-6,-3,7,0
1532627567581,1,0,8,3,2,10,-3,0
1532627567586,-1,-1,-9,-3,0,-13,-6,-2
1532627567591,-4,-4,-5,1,-3,40,1,-4
1532627567596,-2,0,-1,-2,3,-36,6,-2
1532627567601,6,2,-4,4,3,-15,-3,5
1532627567606,-3,0,6,-4,-7,-17,-6,-8
1532627567611,-3,-1,4,3,9,0,-9,-4
1532627567616,2,-4,-12,-3,-3,12,0,12
1532627567621,2,1,1,-4,2,-1,0,-1
1532627567626,-1,-10,3,4,-1,-4,3,5
1532627567631,-1,4,-11,-2,1,1,1,-3
1532627567636,-3,0,-3,-4,1,0,-7,-6
1532627567641,-1,-1,-5,-1,-3,-5,-2,-1
1532627567646,-1,1,7,2,3,4,-1,-1
1532627567651,2,-3,3,1,1,0,1,1
1532627567656,-2,1,3,0,-3,-6,-4,-3
1532627567661,-5,-2,-4,-2,-3,2,1,-4
1532627567666,-2,2,2,-5,0,-7,-9,-7
1532627567671,0,-3,-2,-1,-2,-18,3,9
1532627567676,-1,1,-2,0,-2,24,6,-2
1532627567681,1,-2,1,1,12,-7,-7,-2
1532627567686,-3,0,0,-2,-2,4,7,-1
1532627567691,-2,-2,0,-3,-5,-11,-3,-3
1532627567696,0,-2,4,-2,1,19,-1,0
1532627567701,3,-2,-7,-7,-7,-16,-2,-3
1532627567706,-1,1,1,5,-2,-12,2,4
1532627567711,-3,-1,-1,-4,1,27,0,-1
1532627567716,0,-2,-1,0,-3,-16,1,-2
1532627567721,-1,0,-3,1,3,21,-2,-2
1532627567726,4,-2,-2,-3,-2,-11,0,1
1532627567731,-2,-2,3,0,-6,-18,-8,-8
1532627567736,-5,-4,-3,-2,2,25,-1,-4
1532627567741,2,2,0,-1,2,-7,3,4
1532627567746,1,-1,-2,-2,-1,-10,-4,1
1532627567751,0,0,-1,-1,0,3,-2,-3
1532627567756,1,0,0,-2,-2,-13,-1,0
1532627567761,-1,-3,-3,-2,-4,3,1,-3
1532627567766,1,3,2,0,2,6,0,0
1532627567771,-1,-1,-1,0,3,3,0,-2
1532627567776,0,0,1,0,0,-11,0,0
1532627567781,-2,-2,-1,-1,-2,11,1,1
1532627567786,-5,-1,-2,0,-3,-4,-2,-2
1532627567791,1,2,0,1,-4,-1,1,2
1532627567796,-1,-2,-1,0,1,-14,-3,0
1532627567801,-1,-1,-2,0,4,5,0,-3
1532627567806,-1,-1,-2,-3,-1,0,-3,-1
1532627567811,0,-1,-3,0,1,0,1,-1
1532627567816,0,0,1,4,4,7,3,1
1532627567821,-1,0,2,1,-2,16,4,1
1532627567826,-2,-1,-1,-2,-5,-28,-8,-7
1532627567831,3,1,0,-1,-2,-17,-2,6
1532627567836,-3,-2,-3,0,3,32,-6,-5
1532627567841,2,2,1,1,5,19,19,8
1532627567846,-1,0,-1,-1,0,8,0,0
1532627567851,-3,0,0,0,4,-7,1,-2
1532627567856,-2,-2,-2,-4,-8,-21,-10,-4
1532627567861,-3,-1,0,-1,-3,-19,-9,-5
1532627567866,0,-2,0,0,0,24,5,3
1532627567871,-1,-1,-2,0,3,2,-2,-2
1532627567876,0,0,0,1,1,-3,6,2
1532627567881,-4,-2,-2,-3,-6,5,-4,-2
1532627567886,-2,-2,0,0,2,-6,1,-2
1532627567891,0,-2,2,-1,-2,10,0,0
1532627567896,-1,-1,0,-1,-3,-23,-1,1
1532627567901,0,-3,-1,-1,1,10,-1,-1
1532627567906,-1,-1,-2,-1,-1,4,-5,-3
1532627567911,-1,-1,0,6,9,15,2,1
1532627567916,-1,-1,-3,-4,-8,-11,3,0
1532627567921,0,0,1,-1,0,-7,-2,-1
1532627567926,0,1,-2,-2,1,-3,1,-1
1532627567931,0,-2,-1,-4,-3,-2,0,-2
1532627567936,1,0,1,0,-5,-27,-3,-2
1532627567941,0,0,-1,-1,-2,24,-5,-2
1532627567946,0,-2,2,4,2,-9,3,2
1532627567951,-1,-2,-2,-3,2,13,-1,-2
1532627567956,0,-3,-3,-2,6,3,-3,-2
1532627567961,-2,-2,-2,-1,1,-2,5,2
1532627567966,-1,0,0,1,0,-4,0,0
1532627567971,-3,-1,-2,-5,-6,-35,-2,0
1532627567976,1,1,0,2,3,10,2,-1
1532627567981,-2,-1,-1,-1,-1,-12,-2,-3
1532627567986,-3,-1,-2,-3,-5,17,-2,-2
1532627567991,0,0,0,-1,-4,7,1,-1
1532627567996,-2,0,-1,-2,-5,-34,-1,-1
1532627568001,1,0,-1,3,14,12,-2,0
1532627568006,0,-1,-2,-3,-8,-12,-1,2
1532627568011,-1,-1,-2,-4,-2,3,-3,-3
1532627568016,-1,0,0,1,0,-5,2,1
1532627568021,-4,1,4,1,-6,-11,-3,-2
1532627568026,-3,-4,-10,-2,6,27,-3,-1
1532627568031,-1,-1,-1,-5,-6,-30,-2,-2
1532627568036,5,1,3,5,9,40,7,2
1532627568041,-1,-3,-1,0,-4,-18,0,-4
1532627568046,-2,-2,2,0,-2,-18,-3,-2
1532627568051,1,0,0,3,6,35,1,4
1532627568056,-2,-3,-2,-3,-5,-10,-3,-1
1532627568061,1,1,-2,1,-4,-29,-9,-4
1532627568066,1,-5,-8,-1,8,12,2,-1
1532627568071,-1,1,2,2,5,13,4,-1
1532627568076,7,-1,-2,-5,-5,-3,2,3
1532627568081,-14,-3,-9,-4,-4,14,-1,-4
1532627568086,1,0,7,-1,-7,-26,-3,-1
1532627568091,0,1,0,3,-2,-11,-4,-1
1532627568096,-8,-3,-1,2,7,-3,-3,-1
1532627568101,23,4,1,-4,-3,25,3,5
1532627568106,-13,-4,-2,-3,-2,-2,-1,-9
1532627568111,1,1,1,2,2,26,7,2
1532627568116,-3,1,7,-1,-2,-14,-2,-1
1532627568121,-3,-6,-17,-4,-6,-32,2,0
1532627568126,7,3,4,1,5,17,6,9
1532627568131,-2,-3,-7,-5,-5,-28,-6,-3
1532627568136,0,0,3,3,11,36,1,0
1532627568141,-1,0,4,-1,-2,-8,-1,1
1532627568146,2,2,-1,-3,-5,23,0,0
1532627568151,-3,-2,0,0,-7,-32,-2,-1
1532627568156,-2,-3,-6,-1,1,1,-3,-2
1532627568161,-2,-2,1,1,-3,-23,2,-1
1532627568166,-2,0,2,-2,13,50,2,2
1532627568171,1,0,2,2,-1,28,2,-1
1532627568176,-2,0,-3,2,3,6,-9,-4
1532627568181,0,-1,2,-3,1,-15,-4,-2
1532627568186,0,-2,0,-1,-10,-43,-2,0
1532627568191,-1,-3,-2,-4,-7,5,0,-1
1532627568196,0,-2,-4,-4,1,-8,0,0
1532627568201,-4,-1,2,-1,-1,7,-3,-2
1532627568206,2,1,-1,3,12,25,3,1
1532627568211,1,-1,0,1,5,2,9,7
1532627568216,0,-1,-2,-2,-13,-14,-2,-1
1532627568221,0,2,3,1,1,6,1,-2
1532627568226,2,0,-1,4,8,1,7,1
1532627568231,-2,-3,-4,0,-3,-11,-6,-3
1532627568236,-1,0,-1,0,3,-2,0,-2
1532627568241,1,-3,-1,-2,1,16,3,-1
1532627568246,-2,1,-2,-4,-14,-26,-4,-5
1532627568251,-1,-1,2,0,9,10,-1,-1
1532627568256,-2,0,-3,-1,-5,-17,1,-2
1532627568261,-4,-4,-2,-5,4,50,-5,-2
1532627568266,-2,-2,-2,-4,-15,-28,2,0
1532627568271,0,-2,0,1,11,-7,-2,0
1532627568276,-2,-1,-1,-3,-5,45,-1,-3
1532627568281,0,0,-1,2,7,-33,0,1
1532627568286,0,-1,1,-1,-5,-2,-2,-2
1532627568291,-1,0,-3,-2,-7,-1,0,0
1532627568296,-1,-1,-3,-1,6,-6,-2,-2
1532627568301,-4,-1,-2,-4,-6,15,2,-4
1532627568306,1,-1,0,1,6,12,-2,-1
1532627568311,1,-1,0,-3,-11,-39,-5,-4
1532627568316,4,0,-4,3,6,11,0,1
1532627568321,-1,-1,14,-4,-5,2,1,0
1532627568326,-12,-6,-24,-3,0,-12,2,-3
1532627568331,0,1,5,2,6,45,2,0
1532627568336,-4,-5,-8,-3,-9,-44,-4,-2
1532627568341,1,5,-10,0,6,7,1,4
1532627568346,13,2,9,-3,-9,-17,-3,-2
1532627568351,-8,0,-3,2,7,9,-3,-4
1532627568356,2,-1,5,0,-2,10,5,3
1532627568361,-1,-1,-1,1,-2,4,-7,-3
1532627568366,-1,-2,-2,0,-1,-9,-5,-2
1532627568371,-1,-2,-2,-3,-7,1,2,0
1532627568376,1,1,5,-2,-3,5,-2,-1
1532627568381,0,-1,-2,2,-1,-22,-4,1
1532627568386,8,-1,0,-2,-2,10,-7,0
1532627568391,-9,-1,3,0,3,-11,-6,1
1532627568396,-7,0,2,0,-5,-1,1,-4
1532627568401,-1,-5,-4,0,-2,-30,-1,-1
1532627568406,-7,2,-5,0,6,8,1,1
1532627568411,5,0,0,-2,-6,-5,-1,1
1532627568416,-3,-2,15,-2,-4,-21,3,0
1532627568421,-1,4,-9,-3,0,-28,1,-4
1532627568426,10,-3,-13,6,17,66,2,5
1532627568431,7,4,42,0,-2,-1,-3,3
1532627568436,-31,-3,-38,-4,-7,9,-5,-9
1532627568441,-16,-9,-8,0,-2,-9,-1,-6
1532627568446,15,0,16,-3,-11,-52,-8,-2
1532627568451,38,2,-22,-1,1,-7,7,10
1532627568456,-10,5,57,0,4,4,-3,0
1532627568461,30,-2,-29,-1,-3,28,2,10
1532627568466,-45,6,5,0,0,-1,3,-2
1532627568471,-5,-10,-11,-6,-12,-50,-9,-3
1532627568476,-6,0,16,1,-6,34,12,-8
1532627568481,-11,4,0,7,12,-12,-4,-4
1532627568486,7,-10,-36,-11,0,-19,-1,10
1532627568491,3,5,14,2,10,41,3,-3
1532627568496,31,-5,-23,-5,-6,-34,-6,6
1532627568501,-8,1,23,0,-3,10,0,1
1532627568506,-35,-8,89,2,-4,10,-1,-5
1532627568511,-12,-7,-108,-4,-7,-28,-2,2
1532627568516,44,13,10,4,16,38,1,-2
1532627568521,-5,8,6,0,-4,7,-2,-19
1532627568526,12,1,7,3,7,-23,-3,-1
1532627568531,-37,-6,9,-3,-4,7,2,-9
1532627568536,-10,-4,0,0,2,-10,-2,8
1532627568541,14,-4,-3,0,3,10,-1,4
1532627568546,-8,3,-20,-1,-5,5,1,-7
1532627568551,-1,0,20,0,-1,-8,-6,-6
1532627568556,7,-1,-16,3,7,-4,4,2
1532627568561,-1,-2,12,-2,-2,16,-1,2
1532627568566,-17,-4,-19,-3,-3,34,-3,-3
1532627568571,27,2,12,-1,-4,-38,-2,8
1532627568576,-1,-6,1,0,5,15,0,2
1532627568581,4,5,-3,-2,3,-25,-2,0
1532627568586,-25,2,31,4,1,15,3,-5
1532627568591,17,-4,-43,-2,4,11,2,-1
1532627568596,-19,0,2,-2,-5,14,0,-10
1532627568601,4,0,14,-2,-4,-44,0,10
1532627568606,15,-1,14,1,-2,15,1,-11
1532627568611,-19,4,-7,-1,1,7,-3,-4
1532627568616,-19,-3,-6,-1,-7,-25,-5,-2
1532627568621,-11,-8,-10,-1,0,5,3,4
1532627568626,12,1,2,-1,-2,-1,-3,-8
1532627568631,-13,-3,15,2,-4,-2,2,-1
1532627568636,5,0,-11,-2,1,-12,-2,3
1532627568641,-6,-3,7,-4,-5,-16,-5,-4
1532627568646,16,4,-13,0,-2,5,3,7
1532627568651,9,0,10,4,10,30,14,2
1532627568656,-1,0,-5,-1,-6,-19,-10,-1
1532627568661,1,-7,-1,-2,-5,-13,-6,-7
1532627568666,11,-2,-12,-1,0,35,-2,0
1532627568671,-8,-2,0,3,2,-51,3,-4
1532627568676,-3,1,58,1,2,34,8,6
1532627568681,-1,-4,-65,-6,-3,-5,-15,1
1532627568686,3,-4,1,-3,-6,-31,-1,-3
1532627568691,11,8,55,5,13,45,10,5
1532627568696,-15,-5,-66,-3,-6,-20,-1,-4
1532627568701,15,7,71,6,5,22,-3,-1
1532627568706,10,-2,-75,-4,-1,-19,-11,2
1532627568711,-4,-4,24,-4,-5,12,-2,-3
1532627568716,1,0,3,3,2,-14,1,-1
1532627568721,-2,-1,5,-1,-2,26,3,-2
1532627568726,-3,1,2,2,3,-25,-2,3
1532627568731,-2,0,0,-2,-1,-2,-5,-1
1532627568736,3,-5,-16,-6,-1,11,-1,-2
1532627568741,-7,0,0,2,-2,-3,7,0
1532627568746,2,3,22,-1,-3,-4,-7,-2
1532627568751,-3,-2,-22,3,5,33,12,6
1532627568756,6,-2,5,-2,0,4,-4,3
1532627568761,-10,-3,-2,-2,-1,7,5,-3
1532627568766,3,6,-2,-3,-1,-13,-2,1
1532627568771,-4,-1,33,0,-1,-15,-7,-5
1532627568776,0,-11,-83,-3,1,36,1,-1
1532627568781,3,-2,9,-2,-1,-18,-3,-5
1532627568786,-2,-1,3,-1,3,66,7,0
1532627568791,-2,-2,-3,-5,-10,-27,-8,-4
1532627568796,-2,3,44,4,8,13,2,-1
1532627568801,-8,-4,-20,-3,-1,-14,-8,-2
1532627568806,7,-4,-14,2,1,-18,2,3
1532627568811,-9,-1,11,-2,-3,5,-6,-5
1532627568816,5,1,0,-1,-4,-15,-1,2
1532627568821,0,3,4,2,-7,-14,-2,-3
1532627568826,-3,-5,-1,-2,-2,-2,1,-1
1532627568831,3,3,-9,-1,3,37,1,1
1532627568836,-9,0,6,-2,-3,-44,-11,-6
1532627568841,-1,-7,-5,-1,2,48,17,3
1532627568846,4,12,25,2,1,-19,-6,5
1532627568851,-2,-6,-28,-5,-5,-16,-6,-5
1532627568856,4,5,25,-1,0,-18,-2,1
1532627568861,-3,-4,-33,-3,-2,-8,-3,1
1532627568866,-11,-5,3,0,2,-6,2,-2
1532627568871,21,3,8,-3,-3,7,-5,-1
1532627568876,-2,1,-10,0,-2,-17,1,0
1532627568881,15,0,-3,1,0,-7,-3,2
1532627568886,-12,0,3,-1,0,-11,2,-4
1532627568891,-6,-2,-6,-1,-4,-3,-7,1
1532627568896,6,-3,-3,-2,-3,-18,1,5
1532627568901,-3,4,6,2,5,35,4,-5
1532627568906,1,-7,-15,-4,-3,-43,-4,-1
1532627568911,-9,1,19,-1,-2,0,0,-3
1532627568916,0,-1,15,-1,0,-7,1,2
1532627568921,1,3,-28,0,1,5,-2,4
1532627568926,1,-1,21,-1,0,-2,-2,-1
1532627568931,-8,-6,-13,0,7,-20,-3,-2
1532627568936,2,6,15,0,-3,16,0,0
1532627568941,-3,3,6,-2,1,-8,0,-3
1532627568946,0,-5,-6,0,0,2,1,-1
1532627568951,1,-7,-27,-2,-5,5,-4,-1
1532627568956,-2,-4,2,1,3,5,-1,-2
1532627568961,-1,0,18,-1,-1,26,0,-2
1532627568966,8,1,0,2,4,-23,6,7
1532627568971,-3,0,1,1,-5,-4,-3,-5
1532627568976,-1,0,-3,0,-2,9,-1,-3
1532627568981,-5,-4,2,-2,-2,-16,-5,-2
1532627568986,0,-2,-9,0,5,43,0,-1
1532627568991,-2,3,4,1,1,29,9,-1
1532627568996,-2,-4,34,0,-4,-22,-3,-1
1532627569001,0,-2,-53,0,1,-10,4,5
1532627569006,2,1,10,-3,1,-1,-5,0
1532627569011,3,-6,-12,-1,2,-9,-3,1
1532627569016,-11,5,5,-2,-1,0,-4,-6
1532627569021,-3,-1,21,-1,0,17,5,0
1532627569026,-2,1,-2,-1,-7,-19,0,-2
1532627569031,2,5,3,-2,3,29,-4,0
1532627569036,-2,-13,-26,1,-3,-24,-2,-1
1532627569041,-1,-1,4,1,-1,-21,-6,-1
1532627569046,-1,-4,-8,-3,-4,-58,-1,-4
1532627569051,-3,5,16,-1,-1,32,5,0
1532627569056,3,-5,-23,-1,0,9,1,3
1532627569061,-2,2,7,-1,1,6,3,-3
1532627569066,0,-1,14,1,-2,0,-1,0
1532627569071,-5,-3,-13,-1,-2,-20,-1,-3
1532627569076,-1,1,5,-1,1,10,1,-1
1532627569081,-2,-4,-7,-2,0,-9,-3,2
1532627569086,2,3,-8,1,4,27,4,-1
1532627569091,2,-1,2,-2,-3,-31,1,1
1532627569096,4,2,5,4,10,41,2,2
1532627569101,3,-5,3,-2,-7,-12,-7,-2
1532627569106,-6,0,-8,0,-3,6,-3,-3
1532627569111,5,-1,-1,0,-5,-5,-2,1
1532627569116,3,-1,-10,-4,-6,-12,-5,0
1532627569121,-9,-1,12,3,3,17,7,-2
1532627569126,-2,-3,-6,-1,-2,-30,-1,1
1532627569131,-1,-2,-8,-1,1,-28,-4,-4
1532627569136,0,3,8,0,-2,13,2,1
1532627569141,3,-2,-17,1,1,3,1,2
1532627569146,-8,-5,1,-3,-2,1,-4,-3
1532627569151,-1,2,10,2,-3,-19,2,1
1532627569156,-2,-3,26,-2,-2,-9,-5,-2
1532627569161,-1,4,-39,-3,-2,-5,1,-1
1532627569166,3,0,4,3,4,23,5,1
1532627569171,-3,-3,1,-1,-2,-4,-7,-2
1532627569176,-3,0,-1,1,7,55,4,-3
1532627569181,2,-2,10,4,2,-2,5,2
1532627569186,-1,-1,-6,0,-2,11,-5,0
1532627569191,-3,-3,0,-1,-2,-6,-1,0
1532627569196,-1,0,-11,-4,-9,-15,-1,-1
1532627569201,0,-1,17,-3,3,-6,-3,0
1532627569206,-1,1,-9,-1,1,4,-4,-2
1532627569211,-5,-4,-4,4,5,62,2,-2
1532627569216,1,0,-11,-1,-3,-24,1,1
1532627569221,-2,0,12,-3,-2,-12,-10,-1
1532627569226,0,0,4,-2,-2,8,3,-1
1532627569231,-3,0,-2,-1,-4,-19,-8,-3
1532627569236,0,-3,-17,1,5,34,4,-2
1532627569241,6,3,19,4,3,-2,6,4
1532627569246,-6,-2,-2,-1,-5,3,-4,-2
1532627569251,1,3,-15,-4,-8,-44,-9,-1
1532627569256,-6,-5,1,1,2,18,4,-2
1532627569261,-2,-2,9,-3,-9,-10,-3,-5
1532627569266,3,2,3,2,5,48,5,2
1532627569271,0,-14,7,0,-1,-11,5,1
1532627569276,0,7,-28,-2,-3,-16,-7,-2
1532627569281,-2,0,3,-1,1,1,0,-2
1532627569286,1,0,4,-1,5,-1,2,1
1532627569291,-2,-2,11,0,-1,13,1,-3
1532627569296,-1,-3,-2,-5,-2,-21,0,-1
1532627569301,-3,-2,-1,0,2,8,-1,-3
1532627569306,3,-1,-4,-1,-3,1,-1,2
1532627569311,-1,2,-5,0,5,3,3,1
1532627569316,-1,-1,-1,-2,-4,-44,-14,-5
1532627569321,-3,3,-3,2,14,56,15,3
1532627569326,1,-2,3,0,-2,-23,-1,3
1532627569331,1,2,-8,-1,7,-7,-2,-2
1532627569336,-1,-1,3,-1,-5,-23,-6,-1
1532627569341,-2,-3,3,-1,-6,5,0,-4
1532627569346,2,-2,-6,2,0,15,0,-2
1532627569351,-2,2,0,0,1,12,6,3
1532627569356,1,2,4,0,-1,-4,-1,0
1532627569361,-2,-4,9,-1,2,0,-6,-2
1532627569366,0,-1,-26,-4,-4,-6,-2,-3
1532627569371,1,1,4,0,-5,-31,1,-1
1532627569376,-1,-2,4,-3,1,84,4,1
1532627569381,2,2,2,1,-7,-53,-7,1
1532627569386,-3,0,3,-5,-5,-62,-10,-4
1532627569391,-2,-2,-5,-1,19,36,6,-2
1532627569396,3,1,0,3,3,2,10,4
1532627569401,0,-2,0,-2,-9,-9,-8,-2
1532627569406,-1,-2,-1,-1,-4,37,3,0
1532627569411,0,1,-2,1,-3,-39,-13,-3
1532627569416,-3,-4,-1,1,4,7,1,-1
1532627569421,0,-2,14,-1,-6,-8,-2,-1
1532627569426,4,4,-31,-2,2,6,-1,-1
1532627569431,-3,-1,4,-2,-11,2,3,2
1532627569436,-4,-2,-2,1,4,4,3,-2
1532627569441,-2,-3,8,-2,0,-56,-12,-2
1532627569446,-1,0,8,0,-3,7,-9,-5
1532627569451,5,1,-17,-2,2,-29,13,9
1532627569456,2,-2,50,1,-2,38,5,-2
1532627569461,-11,3,-76,-3,-6,-23,-6,-3
1532627569466,6,-2,24,0,-3,-24,-5,1
1532627569471,-3,-1,-10,-2,5,40,-9,-3
1532627569476,-2,-3,7,-1,-6,-61,0,-1
1532627569481,-1,-1,10,-2,-4,17,2,-1
1532627569486,-3,-4,-23,3,9,16,13,4
1532627569491,-5,-5,5,-2,-7,5,-9,-4
1532627569496,7,11,62,-1,-3,-22,-11,-1
1532627569501,7,-7,-81,-2,3,30,8,0
1532627569506,-15,2,21,1,4,6,2,-4
1532627569511,0,3,3,-2,-5,-12,-4,-4
1532627569516,-1,-3,-3,3,14,1,13,4
1532627569521,-2,1,19,-1,-8,-14,-5,-3
1532627569526,2,-3,6,-1,-1,8,-2,0
1532627569531,-1,3,10,1,-4,-4,-3,1
1532627569536,0,0,-33,-1,-4,4,1,0
1532627569541,-4,1,1,3,6,27,7,-1
1532627569546,1,1,-5,-1,1,7,6,0
1532627569551,0,0,17,0,-4,-14,-4,-2
1532627569556,-9,-4,-27,-4,-2,11,-8,-3
1532627569561,2,1,17,1,7,16,7,5
1532627569566,1,4,17,-1,-4,-5,-6,-1
1532627569571,1,-1,15,-3,-1,3,6,-3
1532627569576,2,-2,-85,-1,-4,-33,-6,3
1532627569581,-2,2,43,0,8,21,1,0
1532627569586,-2,-10,6,-2,-5,2,-4,-2
1532627569591,1,3,-25,-1,-2,-12,-4,0
1532627569596,-1,-1,8,-3,-3,13,1,4
1532627569601,0,-2,10,0,-5,-24,-11,-2
1532627569606,1,1,-10,-2,6,19,6,-1
1532627569611,6,1,6,0,2,11,-1,3
1532627569616,-12,-5,-3,-3,-4,-8,-2,-7
1532627569621,0,0,-1,-1,2,-25,-3,-2
1532627569626,-1,-1,5,0,-12,-37,-6,-5
1532627569631,-3,-4,-12,-1,2,22,8,-2
1532627569636,6,2,3,-3,-1,-15,0,1
1532627569641,0,-2,6,-1,-5,2,-5,-1
1532627569646,-1,1,-8,0,6,3,1,-1
1532627569651,-3,-3,-8,-2,-8,-64,-18,-8
1532627569656,7,2,4,5,19,64,38,17
1532627569661,-1,0,4,-5,-9,-7,-4,-3
1532627569666,-2,-1,-5,0,1,-30,1,3
1532627569671,-2,-2,-6,1,-1,4,-7,0
1532627569676,-4,0,38,-3,-9,-16,-13,-7
1532627569681,2,-2,-51,4,12,32,0,2
1532627569686,3,-3,-17,3,-3,-20,17,4
1532627569691,-4,2,17,-6,3,39,2,-4
1532627569696,-8,-9,-7,-6,-4,-29,-15,-17
1532627569701,-7,4,31,1,-1,27,6,6
1532627569706,0,-4,-2,0,3,-14,-11,5
1532627569711,0,-6,-24,1,-5,-40,9,4
1532627569716,2,2,-4,2,4,28,-1,-1
1532627569721,-3,-3,13,-1,4,-21,-7,-8
1532627569726,9,1,7,-1,-2,31,-7,-2
1532627569731,-7,3,13,2,4,14,14,0
1532627569736,4,0,-21,1,-1,8,0,1
1532627569741,2,0,19,1,-6,-17,-5,-2
1532627569746,-4,5,-2,-1,2,27,7,-2
1532627569751,4,-1,-9,-2,-8,8,-9,1
1532627569756,-2,-2,1,-3,-9,-32,-11,-2
1532627569761,-2,-1,-9,0,6,-29,-2,-2
1532627569766,-3,-2,-1,-2,-2,37,4,-1
1532627569771,-1,-7,23,1,0,-28,6,-1
1532627569776,-3,-8,-34,-4,-4,-12,-3,1
1532627569781,-1,-1,5,-5,-10,-13,-4,0
1532627569786,-2,4,32,-1,-1,-7,-2,-4
1532627569791,-1,-10,-36,-3,3,4,-1,-3
1532627569796,-1,-8,0,0,-2,24,4,1
1532627569801,-3,-1,-6,-4,0,11,1,-3
1532627569806,6,-2,5,1,2,-52,-6,-3
1532627569811,2,6,12,2,4,66,6,11
1532627569816,-2,-1,-4,-4,-7,-33,-7,-8
1532627569821,-1,-1,-9,0,-1,-4,-1,-6
1532627569826,-5,1,-2,-3,-1,2,6,20
1532627569831,4,3,1,2,-4,-54,-33,-3
1532627569836,4,4,-3,5,12,43,32,7
1532627569841,1,0,9,0,6,38,6,-5
1532627569846,-4,-2,-11,-3,-4,-8,-4,-10
1532627569851,-1,0,-6,-3,-4,7,2,-1
1532627569856,-4,2,11,-2,1,-16,-17,-5
1532627569861,-1,-3,-2,-2,-11,8,5,0
1532627569866,6,0,-10,5,19,55,5,1
1532627569871,-16,-6,-2,-2,-5,-13,-3,-5
1532627569876,7,4,10,-2,-1,-22,-5,3
1532627569881,-9,-1,13,-1,-6,30,4,2
1532627569886,-1,-3,-23,-5,-3,-4,-12,-2
1532627569891,5,6,6,2,3,31,18,5
1532627569896,-7,-3,-1,-4,-5,-6,-5,-9
1532627569901,7,1,-2,2,6,-20,10,12
1532627569906,-2,-1,3,0,-19,-25,-3,-3
1532627569911,-2,0,0,1,16,40,3,-3
1532627569916,1,2,0,-2,-7,-19,-2,2
1532627569921,3,-1,-5,3,-2,-15,-4,0
1532627569926,-4,-1,0,-1,2,-1,1,-2
1532627569931,2,-2,-6,-2,-4,-7,3,-5
1532627569936,-1,1,5,0,-1,3,-8,3
1532627569941,-3,-6,-9,-2,11,3,1,1
1532627569946,-2,1,3,1,-11,-24,1,5
1532627569951,5,-1,-3,-5,-7,-78,-9,-2
1532627569956,-8,1,3,3,6,90,-1,-9
1532627569961,23,2,-4,-2,2,46,2,-6
1532627569966,-9,-7,-5,-8,-5,-12,3,-5
1532627569971,18,2,6,9,-5,-67,-9,-8
1532627569976,-11,-3,2,2,3,-20,34,1
1532627569981,2,2,-4,1,4,19,7,19
1532627569986,3,-1,-3,-6,2,20,-10,3
1532627569991,-5,-1,-2,-6,-3,24,-13,-4
1532627569996,7,0,-2,-1,-1,-18,5,-2
1532627570001,-5,1,0,1,-6,-15,-17,-11
1532627570006,-3,0,5,5,-11,-32,-14,-13
1532627570011,-9,-2,-5,-1,26,48,11,5
1532627570016,2,-3,-5,-5,-20,-74,-14,-4
1532627570021,-8,-1,-2,-5,8,59,7,-1
1532627570026,-1,2,4,2,-2,-29,-6,-4
1532627570031,0,2,3,1,5,49,2,0
1532627570036,0,0,1,0,-13,-31,-9,-2
1532627570041,-3,-5,-4,-6,-6,13,-3,0
1532627570046,-1,-3,-5,2,7,29,10,-3
1532627570051,6,0,1,-4,-14,-50,-5,2
1532627570056,-40,0,-1,0,19,101,19,2
1532627570061,18,2,5,4,-12,-85,-9,-3
1532627570066,30,-1,-3,-3,-3,-18,-12,-3
1532627570071,-18,2,-2,0,2,3,28,-2
1532627570076,1,-2,-6,-7,-13,-38,-22,-5
1532627570081,-14,-2,-3,-5,0,-13,-30,-9
1532627570086,-19,-3,-1,0,9,37,6,-7
1532627570091,9,0,1,4,4,-14,-11,1
1532627570096,8,-2,-2,-4,-2,-16,-1,1
1532627570101,-8,-1,-3,-1,7,19,16,4
1532627570106,5,0,5,-1,-12,-24,-7,2
1532627570111,-5,-5,-2,-4,-4,-13,0,-3
1532627570116,6,3,1,4,20,16,-1,4
1532627570121,13,-4,1,2,6,17,8,-2
1532627570126,-4,-1,5,-1,-4,-64,-3,-2
1532627570131,3,0,-8,1,-4,26,11,7
1532627570136,-8,-3,3,-3,0,-17,-23,-4
1532627570141,-2,-5,-8,-7,-18,-25,5,-13
1532627570146,-9,2,0,5,11,19,-8,2
1532627570151,-10,0,7,3,6,15,-3,-4
1532627570156,24,-3,0,0,2,-36,-9,0
1532627570161,-2,3,-1,-6,-2,-17,-11,9
1532627570166,-2,-3,-4,-2,-2,-4,3,1
1532627570171,5,1,3,5,2,71,18,12
1532627570176,-13,-5,-4,11,3,-25,-36,-10
1532627570181,15,5,-3,1,41,71,42,7
1532627570186,-26,-7,-12,-27,-6,-22,0,-6
1532627570191,12,7,6,4,-6,64,-4,1
1532627570196,-2,-1,2,-4,-25,-53,4,-1
1532627570201,8,-2,0,11,-7,-3,-13,-4
1532627570206,-32,-2,4,8,17,33,0,-2
1532627570211,64,6,0,-4,-7,-17,-9,5
1532627570216,-10,-1,-1,1,-6,18,7,-9
1532627570221,10,8,0,1,-6,-21,-1,0
1532627570226,-11,-2,-4,0,0,0,-3,-10
1532627570231,-36,-11,-8,-7,-11,-25,-4,-14
1532627570236,9,2,1,0,11,21,14,6
1532627570241,5,-3,-2,-5,-6,-38,-9,0
1532627570246,17,3,0,2,-3,15,16,8
1532627570251,-9,-2,-1,1,5,-7,-18,-2
1532627570256,21,3,-5,-2,7,19,21,2
1532627570261,-37,-10,1,-2,-8,-8,9,-4
1532627570266,22,2,3,5,-3,7,-20,2
1532627570271,-59,-4,-4,0,4,6,15,-15
1532627570276,52,6,3,1,3,-9,-3,14
1532627570281,-12,-6,-1,-6,-16,-14,3,1
1532627570286,27,4,-5,1,5,43,5,2
1532627570291,34,5,-1,-7,-16,-84,-14,10
1532627570296,-77,-1,31,11,20,109,9,5
1532627570301,34,4,-23,10,6,5,6,8
1532627570306,-47,-10,0,-3,9,-21,-10,-19
1532627570311,19,-1,22,-5,-14,-24,-12,-17
1532627570316,12,8,-18,-9,-10,-32,-4,5
1532627570321,-7,-7,3,-6,-23,-101,-38,-2
1532627570326,-12,1,0,6,23,112,62,12
1532627570331,-5,-4,-14,-1,3,-9,-22,-3
1532627570336,21,5,13,1,7,44,40,10
1532627570341,-24,-8,2,-4,1,-31,-26,-10
1532627570346,60,2,-9,-2,-15,-33,-2,12
1532627570351,-16,4,7,-3,2,-4,2,3
1532627570356,16,-15,-16,3,3,7,-6,3
1532627570361,0,10,2,-4,6,27,4,-11
1532627570366,37,-1,7,5,4,-22,-11,-28
1532627570371,15,-2,-10,-5,0,9,8,27
1532627570376,6,1,4,-2,-4,-16,3,40
1532627570381,-26,-2,-6,0,-1,11,3,7
1532627570386,16,0,2,2,-4,-14,-12,-6
1532627570391,-28,-13,12,-4,-7,-17,5,-28
1532627570396,-22,-2,4,3,7,25,5,-8
1532627570401,36,4,18,4,5,-18,38,18
1532627570406,21,-4,-88,-5,5,53,35,16
1532627570411,-36,3,7,12,9,38,31,-10
1532627570416,0,-7,-1,-14,-7,-22,9,-40
1532627570421,-30,3,28,4,7,-20,13,22
1532627570426,-14,6,29,-4,-21,-119,-16,-7
1532627570431,22,-9,-21,-2,-5,6,13,10
1532627570436,-11,5,7,6,13,48,-20,-24
1532627570441,6,-1,-3,-8,0,51,8,-9
1532627570446,-50,-5,1,5,17,88,0,13
1532627570451,-18,-8,-3,-3,0,9,-18,-8
1532627570456,63,9,0,-1,-9,-69,-15,11
1532627570461,-13,-3,-15,3,11,56,-9,-3
1532627570466,-26,-15,6,-9,-23,-28,-66,10
1532627570471,-40,13,10,14,39,102,-3,3
1532627570476,24,-12,-20,-20,-32,-64,-31,-15
1532627570481,43,15,-4,14,39,85,27,19
1532627570486,-11,-6,27,6,-3,-61,-35,-8
1532627570491,7,-1,-7,-9,-13,-58,-23,1
1532627570496,-34,-8,-24,-16,-12,-17,-25,-9
1532627570501,-2,-4,-5,-1,-21,-48,-28,-17
1532627570506,15,2,12,6,11,22,38,-14
1532627570511,5,-6,-9,-5,5,34,4,8
1532627570516,-15,0,0,-6,-22,-56,1,13
1532627570521,11,7,9,5,-13,-69,-6,3
1532627570526,8,6,7,12,17,7,-2,8
1532627570531,22,3,-2,-1,-9,-20,-4,-17
1532627570536,5,-8,-5,1,1,-6,-10,-7
1532627570541,-33,-9,-8,-14,-16,2,-19,-28
1532627570546,12,5,0,5,12,38,15,14
1532627570551,-31,-3,-1,2,7,31,2,-15
1532627570556,10,5,-6,-10,1,40,19,7
1532627570561,89,-4,-6,3,11,57,-7,8
1532627570566,4,3,4,-7,-2,29,20,13
1532627570571,42,4,-2,-4,-15,-79,-20,14
1532627570576,-37,-4,5,23,21,54,26,0
1532627570581,-49,-3,0,0,15,59,-8,-14
1532627570586,4,0,-6,-18,-27,-49,-14,-14
1532627570591,-54,-9,-4,-1,-3,-25,14,6
1532627570596,48,8,3,5,4,-18,-5,4
1532627570601,-20,-5,-2,-5,-15,-60,30,-7
1532627570606,-12,-13,-6,0,-14,-71,-24,-5
1532627570611,-11,-2,-10,-6,12,36,-8,-9
1532627570616,-14,12,13,8,9,-23,-28,12
1532627570621,14,5,8,3,-7,-19,-1,7
1532627570626,1,5,3,1,4,27,11,8
1532627570631,31,-5,-5,-2,3,-41,8,6
1532627570636,-64,-14,-11,-1,-2,-3,-11,-28
1532627570641,-6,-4,-6,-2,2,-38,28,-16
1532627570646,-16,-8,-6,-35,-29,52,19,7
1532627570651,-27,2,4,10,12,-32,18,-14
1532627570656,15,0,-1,5,14,28,13,14
1532627570661,-32,-1,-3,-2,-22,-83,-32,-14
1532627570666,0,-3,1,1,3,19,41,-5
1532627570671,16,0,1,-5,1,18,1,4
1532627570676,-19,-3,2,1,-6,-34,-6,-4
1532627570681,-9,-5,-3,0,13,70,0,-2
1532627570686,2,7,-1,-8,-10,-68,-2,-7
1532627570691,29,12,9,5,0,-6,-6,26
1532627570696,11,-1,-1,-3,-9,-5,-6,-3
1532627570701,5,-4,-2,3,-8,-43,10,7
1532627570706,0,3,3,3,13,67,-17,-1
1532627570711,0,0,-5,-9,-9,-52,4,-8
1532627570716,-5,-8,-5,-10,-6,43,22,-7
1532627570721,-8,-4,-2,0,2,11,10,0
1532627570726,-10,1,0,7,6,-11,5,1
1532627570731,3,6,3,8,7,95,-12,-3
1532627570736,20,1,-1,3,8,-32,-8,1
1532627570741,2,-3,-8,-12,-4,22,-24,9
1532627570746,16,12,10,11,-3,-40,-18,4
1532627570751,13,-9,-2,-7,-5,45,16,5
1532627570756,-38,17,17,3,8,73,98,22
1532627570761,29,6,-3,14,1,-113,38,-4
1532627570766,2,-17,-20,-13,-10,-17,2,-7
1532627570771,12,0,1,-2,-6,45,-13,-6
1532627570776,-2,-10,-6,-7,-8,28,-35,-3
1532627570781,-4,1,13,-7,3,8,-29,11
1532627570786,-16,-1,-2,0,5,-20,-11,-6
1532627570791,13,-3,-6,4,1,-12,-18,-1
1532627570796,-17,1,0,-3,0,-42,-28,-83
1532627570801,-32,-23,-4,-1,-12,29,18,-32
1532627570806,20,-9,0,12,29,-2,-25,92
1532627570811,22,22,8,-12,-7,-41,-4,-19
1532627570816,16,0,-4,0,13,-7,4,-21
1532627570821,5,9,-1,-1,-7,-5,-11,27
1532627570826,-30,-6,-1,0,-12,-23,21,-128
1532627570831,6,-16,-3,2,-9,6,-2,124
1532627570836,40,14,3,5,11,-36,-51,87
1532627570841,36,23,8,9,12,-16,18,-97
1532627570846,-27,-17,-1,10,10,12,-39,-7
1532627570851,-33,2,1,-1,38,-56,13,-128
1532627570856,-10,-22,-18,-23,-74,68,-23,26
1532627570861,-34,-12,-10,-11,23,89,-33,20
1532627570866,-3,2,-1,-14,-31,-79,-58,8
1532627570871,8,8,5,18,8,7,57,-43
1532627570876,-13,-3,3,6,20,52,44,60
1532627570881,26,32,29,22,36,66,-10,18
1532627570886,-8,-2,-11,-10,22,108,28,-11
1532627570891,-15,-12,-7,-5,-20,-10,26,4
1532627570896,-14,-7,-4,-4,-8,-128,9,-66
1532627570901,-19,-22,-12,-12,-45,-55,-22,81
1532627570906,-1,7,7,11,46,30,11,-15
1532627570911,21,5,2,13,13,-35,-23,4
1532627570916,-16,-11,-5,12,-22,-38,-92,-37
1532627570921,-8,-19,-28,-53,-44,105,-128,-50
1532627570926,11,25,11,4,-62,69,-7,44
1532627570931,8,10,9,0,11,-86,-36,5
1532627570936,37,19,13,38,34,-20,14,4
1532627570941,-15,-16,-3,31,53,-69,22,-59
1532627570946,-41,-27,-31,-69,-100,-27,-64,1
1532627570951,16,9,0,-3,38,127,71,14
1532627570956,10,6,4,-12,0,10,69,29
1532627570961,-1,-1,2,8,1,-41,127,-51
1532627570966,-20,4,4,20,14,-13,103,72
1532627570971,-11,-7,-1,1,-6,-80,41,-3
1532627570976,50,5,4,-6,12,-4,34,0
1532627570981,-29,-3,1,-4,-17,-9,44,-31
1532627570986,18,1,7,20,33,-11,20,-38
1532627570991,-11,-9,-14,-19,-25,18,-7,10
1532627570996,-91,-7,-3,-1,4,39,35,-15
1532627571001,91,3,3,7,4,-27,22,44
1532627571006,37,-4,32,5,10,-9,-30,-9
1532627571011,-8,4,-41,-9,-10,52,-91,-8
1532627571016,-20,-3,2,-2,-4,1,5,-38
1532627571021,-6,3,1,-2,-2,15,47,33
1532627571026,-36,-7,-6,2,13,-9,85,13
1532627571031,26,-3,15,5,-4,-17,23,0
1532627571036,46,3,-7,-3,5,6,-53,-4
1532627571041,-77,-5,-4,-4,3,15,-21,7
1532627571046,75,12,5,7,13,-16,-19,-4
1532627571051,-68,-15,-6,-5,-19,-3,-36,-111
1532627571056,5,-6,-6,-6,-2,14,-16,32
1532627571061,55,24,15,4,10,4,-38,115
1532627571066,-24,8,-4,2,10,-17,-22,-58
1532627571071,3,-16,3,1,1,2,-25,22
1532627571076,5,1,-7,-5,2,12,-6,-53
1532627571081,-6,5,6,-6,-13,-4,-18,-32
1532627571086,-22,-5,-18,3,5,5,-12,7
1532627571091,-6,0,2,-3,-12,-16,-95,0
1532627571096,-38,-13,0,-2,-2,-11,-107,-7
1532627571101,-23,-5,-3,1,-1,3,-128,0
1532627571106,17,9,3,3,5,-97,-128,1
1532627571111,0,-1,2,-1,13,68,16,19
1532627571116,5,-2,-6,-8,-6,-14,-32,13
1532627571121,-3,-2,-6,-6,-1,19,-35,-10
1532627571126,-6,-4,-1,-6,-3,22,65,-17
1532627571131,11,3,3,6,-2,-22,112,23
1532627571136,-8,0,0,1,8,6,127,1
1532627571141,-7,-2,-5,-5,-4,-3,127,-24
1532627571146,-8,1,0,1,-2,6,126,-7
1532627571151,76,5,5,4,-4,-10,75,29
1532627571156,12,3,0,-3,0,14,91,-32
1532627571161,-6,-7,-5,-3,-6,-14,94,-12
1532627571166,9,1,0,-2,0,-3,-41,-1
1532627571171,-9,1,-1,-3,-6,-1,2,7
1532627571176,6,1,-2,1,2,5,-24,-4
1532627571181,-5,-8,-3,0,-1,24,-12,-11
1532627571186,18,15,14,10,19,20,36,28
1532627571191,-18,-1,-8,-11,-9,-10,-19,-8
1532627571196,2,-3,-2,-2,-3,-5,-11,6
1532627571201,-10,-1,-5,-5,-3,0,-31,-7
1532627571206,-4,-6,-5,-4,-5,-5,-25,-6
1532627571211,-16,-1,2,2,24,43,-14,-2
1532627571216,-4,-2,0,-5,-6,-46,14,4
1532627571221,14,6,7,13,0,-80,-14,13
1532627571226,-13,-6,-2,-1,-1,17,8,-5
1532627571231,4,2,0,-3,-15,-35,-1,-7
1532627571236,-14,-4,1,0,13,53,10,4
1532627571241,-15,-3,-2,-3,3,12,12,3
1532627571246,8,-3,-2,-4,0,15,-23,9
1532627571251,-28,-5,0,-1,-4,-28,15,-2
1532627571256,-3,-1,-1,1,-5,6,-61,-5
1532627571261,0,5,3,2,-4,9,-22,7
1532627571266,11,2,-1,3,6,-11,-19,-1
1532627571271,-23,-21,-5,-8,-1,57,35,-5
1532627571276,-42,9,9,-2,8,73,19,15
1532627571281,87,4,-3,6,-27,-99,-12,3
1532627571286,-13,-3,-5,-4,-5,42,2,-5
1532627571291,7,2,5,6,-6,13,64,-8
1532627571296,-18,-12,-9,-13,-7,49,-32,-20
1532627571301,-25,-2,-7,-4,13,-26,-12,0
1532627571306,0,10,30,43,44,84,8,-7
1532627571311,15,17,-1,39,-6,-88,-124,22
1532627571316,14,-3,-14,-25,-16,7,-12,5
1532627571321,-19,-8,-30,-31,-13,6,12,-16
1532627571326,-3,-9,-20,-6,-18,-34,4,-20
1532627571331,-15,6,18,1,22,39,24,4
1532627571336,11,3,14,22,13,-34,-38,-6
1532627571341,-2,0,10,19,8,24,53,3
1532627571346,-8,3,3,-21,-17,-18,-17,0
1532627571351,1,1,-2,-6,38,3,-29,1
1532627571356,9,-1,-5,-1,6,-35,2,8
1532627571361,-12,-1,5,-8,-8,33,-9,-6
1532627571366,0,0,-4,-2,-2,-7,-2,3
1532627571371,-2,-2,-3,-8,-20,40,9,8
1532627571376,5,-3,-4,4,-7,-43,34,15
1532627571381,-14,-4,2,-3,27,30,-18,-16
1532627571386,6,-8,-8,-3,0,-9,34,-15
1532627571391,-10,-9,-10,-9,-24,-50,-48,-43
1532627571396,-7,-2,2,0,5,3,101,-2
1532627571401,-41,-2,4,4,-10,16,31,23
1532627571406,-42,-7,0,-7,-8,-83,46,25
1532627571411,-8,4,-3,-12,-9,-39,113,14
1532627571416,14,-12,3,6,1,20,78,8
1532627571421,24,1,1,0,-1,90,88,5
1532627571426,22,-1,-8,-5,-7,39,-74,-16
1532627571431,7,-3,-1,-4,3,10,-103,-8
1532627571436,25,14,6,8,-4,-79,-81,4
1532627571441,16,2,-1,-2,-7,-19,-72,-13
1532627571446,8,2,-3,-7,-4,-24,-61,-7
1532627571451,0,-3,-4,3,2,34,-22,-5
1532627571456,8,8,4,7,13,9,-53,19
1532627571461,-14,-5,-6,-9,-3,-12,-68,-15
1532627571466,-1,6,4,5,3,15,-2,0
1532627571471,-6,2,0,-9,-20,-48,-39,-9
1532627571476,-17,-3,-7,0,-2,15,0,-13
1532627571481,-2,1,3,3,12,2,8,5
1532627571486,0,-1,-2,-3,-5,-25,-6,1
1532627571491,-1,-4,-1,1,4,4,21,8
1532627571496,-4,-2,-1,-5,-1,-2,3,-3
1532627571501,2,1,2,2,2,-14,0,1
1532627571506,1,-3,-3,-7,-9,2,40,0
1532627571511,-3,-3,0,-1,2,0,24,6
1532627571516,-2,0,-2,-1,1,5,8,-5
1532627571521,-2,-2,-1,-1,-6,-24,-9,-6
1532627571526,0,-3,-3,2,4,8,18,-3
1532627571531,1,-2,-2,1,2,8,8,9
1532627571536,-1,-2,-2,-2,-4,-9,-12,-6
1532627571541,-1,-2,-1,2,2,5,1,-1
1532627571546,5,-2,-1,-2,3,5,12,0
1532627571551,0,1,-2,-2,-5,-2,5,-1
1532627571556,-2,-3,-3,-3,-6,-5,-7,-6
1532627571561,1,-1,1,-1,2,2,0,-1
1532627571566,1,-2,-1,1,-1,5,10,3
1532627571571,-2,-3,-2,-1,-4,-11,-2,-3
1532627571576,-3,-1,-1,2,-4,-1,-1,-3
1532627571581,1,0,-1,1,1,3,2,4
1532627571586,0,0,-2,-2,-2,-7,3,-2
1532627571591,0,-2,-2,1,-1,2,9,2
1532627571596,-1,0,-2,-2,-1,0,3,-1
1532627571601,-3,0,1,1,-4,-4,-19,-13
1532627571606,0,-1,0,-1,1,-1,6,9
1532627571611,0,0,0,-1,-1,-1,0,14
1532627571616,-4,-1,0,-3,0,-1,-4,-4
1532627571621,-2,-1,0,0,-2,-6,-5,0
1532627571626,-2,2,-2,0,0,6,1,-5
1532627571631,-2,0,-1,-2,1,0,-3,-2
1532627571636,-1,-1,0,-1,-2,0,-1,-1
1532627571641,2,0,1,-1,1,1,3,0
1532627571646,0,0,-1,-2,1,0,-2,0
1532627571651,1,1,1,-1,-2,2,1,-2
1532627571656,1,0,-2,-2,-4,-29,-1,-5
1532627571661,3,1,1,4,8,27,19,8
1532627571666,-1,0,-1,-3,-4,-7,-4,0
1532627571671,-1,0,-2,-2,2,-4,-3,-4
1532627571676,-2,-1,-1,-1,-1,-8,-4,-3
1532627571681,-1,0,-1,-1,-3,-4,-5,-1
1532627571686,-3,-2,-1,0,0,3,-1,-2
1532627571691,-2,-2,1,-1,0,-1,-1,-2
1532627571696,-1,-2,-2,0,-2,9,-2,0
1532627571701,-3,-1,-2,-2,-1,-6,-2,2
1532627571706,-2,-2,0,0,3,4,3,0
1532627571711,-2,-1,0,-2,0,-4,-3,-2
1532627571716,0,0,0,-1,0,7,2,1
1532627571721,-1,-2,0,-1,-3,-2,-4,-1
1532627571726,0,-1,0,1,-1,-7,-3,-1
1532627571731,1,-3,-2,1,-1,3,1,0
1532627571736,-2,-2,-1,-1,1,3,-1,2
1532627571741,-1,-2,-2,-1,-3,-4,-3,-1
1532627571746,0,0,0,-2,-3,1,-1,0
1532627571751,0,0,-1,-1,0,-3,-3,0
1532627571756,0,0,-1,-1,-1,4,4,0
1532627571761,0,-2,-1,-1,-2,-4,-3,-2
1532627571766,1,0,-3,-1,0,2,-2,1
1532627571771,0,0,-2,1,0,1,-5,1
1532627571776,-1,-2,-1,-2,0,-1,-7,0
1532627571781,-2,-1,0,-1,-1,-4,-4,-2
1532627571786,-1,-2,0,-1,-2,-1,0,0
1532627571791,-2,-1,-1,-1,-2,-2,1,1
1532627571796,1,0,-2,0,-2,0,1,-3
1532627571801,-2,-1,-1,-2,-1,-4,2,-3
1532627571806,-1,0,0,-2,1,-2,-1,-2
1532627571811,-1,-2,0,-1,-2,1,0,-1
1532627571816,-1,-1,-1,0,1,1,-2,1
1532627571821,0,0,-2,-2,0,0,-2,-2
1532627571826,-1,-1,0,0,0,-2,2,-2
1532627571831,-1,2,-2,0,0,-3,1,-2
1532627571836,-2,0,0,-2,-1,0,0,-1
1532627571841,0,-1,-2,0,-1,-1,-1,-1
1532627571846,-1,-1,-1,-1,0,-1,0,2
1532627571851,0,-2,-1,0,0,0,-4,0
1532627571856,-2,0,0,-1,0,2,0,0
1532627571861,-1,1,2,1,0,-1,-1,0
1532627571866,0,-1,-1,-2,-1,-1,1,-1
1532627571871,-1,-1,-1,-2,-1,0,0,-2
1532627571876,-1,-1,-1,-2,-1,-1,0,0
1532627571881,0,-2,-2,-1,-3,-2,-3,1
1532627571886,-2,-1,-1,-2,1,2,-1,-1
1532627571891,-2,0,0,1,0,-2,-1,-3
1532627571896,0,0,1,-1,0,1,4,0
1532627571901,-2,0,-1,1,0,0,2,0
1532627571906,-2,-1,0,0,-1,-1,-5,-1
1532627571911,0,-1,-2,-3,-1,1,2,0
1532627571916,0,0,-1,0,-1,0,-10,1
1532627571921,-1,-1,-1,-1,0,1,-6,0
1532627571926,0,0,0,0,-1,-1,-2,0
1532627571931,-1,-1,0,0,-1,2,-2,-2
1532627571936,-2,0,-1,-1,-2,-2,4,-3
1532627571941,-2,-1,0,-2,1,-3,-1,-2
1532627571946,0,-2,-1,0,1,0,-5,-1
1532627571951,1,0,0,-1,-1,-2,-4,-1
1532627571956,0,-2,0,0,0,1,-3,-2
1532627571961,-1,0,-1,-2,-1,1,-3,0
1532627571966,0,-1,-2,-2,-1,0,0,-1
1532627571971,1,-1,0,0,0,-3,-1,1
1532627571976,-1,1,-2,-1,-1,2,0,-2
1532627571981,-2,0,-1,0,-1,-3,-3,1
1532627571986,-1,-2,-1,-1,-1,2,-3,-1
1532627571991,2,-1,-2,0,0,1,-2,-1
1532627571996,1,-1,0,0,0,1,3,0
1532627572001,-2,0,1,-1,-1,0,5,0
1532627572006,-2,1,0,-1,-3,-3,5,-1
1532627572011,-2,-1,-1,0,-1,-1,0,-1
1532627572016,-2,-1,-1,0,0,-2,1,0
1532627572021,1,-1,-1,1,0,-1,1,0
1532627572026,-1,0,-2,-1,0,-3,1,-1
1532627572031,-3,0,0,0,0,1,1,0
1532627572036,1,0,0,0,0,-2,-2,1
1532627572041,-3,-2,0,-1,0,0,0,-2
1532627572046,-1,0,-1,-1,-1,1,2,-2
1532627572051,0,0,-2,0,0,0,0,0
1532627572056,0,-2,-2,1,-1,-1,-1,-1
1532627572061,0,0,-2,0,-3,-5,-9,-3
1532627572066,0,-2,-2,-2,-1,2,3,0
1532627572071,-1,-3,1,-1,-1,-4,7,-4
1532627572076,-1,-2,-1,-3,-3,-3,-18,-2
1532627572081,0,0,-2,-2,0,-9,7,1
1532627572086,-1,0,0,1,-2,-6,-3,-1
1532627572091,-2,-2,-1,-3,0,-4,-3,-4
1532627572096,-3,-3,-1,-1,-2,-13,3,-3
1532627572101,-2,-3,0,-2,1,-8,-1,-1
1532627572106,2,3,0,1,2,22,9,2
1532627572111,-1,-2,1,-1,-4,-18,-21,-2
1532627572116,0,-1,-4,0,3,-2,22,2
1532627572121,-2,-2,-2,-1,1,5,-4,2
1532627572126,-2,-1,-2,1,-1,-3,1,-4
1532627572131,-1,0,1,2,-1,12,-5,0
1532627572136,-5,-1,-2,-4,-2,6,-9,-7
1532627572141,-4,-1,-2,-4,-8,20,-24,-11
1532627572146,1,-2,-3,-4,-7,-69,20,6
1532627572151,4,2,3,4,6,36,19,12
1532627572156,1,1,-1,2,0,-9,-6,-2
1532627572161,1,-2,-1,-1,1,-10,10,0
1532627572166,-3,-2,0,-3,1,55,-21,-7
1532627572171,-1,-1,3,2,-1,-47,-11,-5
1532627572176,-2,-1,-7,-3,-7,8,14,2
1532627572181,-2,-1,-3,-4,-2,-16,-9,-1
1532627572186,-1,0,0,-3,-1,56,0,-2
1532627572191,-1,-2,-2,2,2,-15,-11,-3
1532627572196,2,-1,10,6,6,20,21,6
1532627572201,-2,-6,-12,-6,-11,3,-1,-5
1532627572206,1,2,4,1,-4,-55,-13,-2
1532627572211,-2,0,-1,-5,0,25,-2,-2
1532627572216,3,0,2,8,19,71,22,6
1532627572221,-3,-1,0,2,-3,-31,-24,-8
1532627572226,3,-2,3,9,0,-30,20,13
1532627572231,-8,-9,-18,-17,11,15,12,-11
1532627572236,10,6,4,9,14,4,7,18
1532627572241,4,1,3,3,16,24,28,8
1532627572246,0,-1,-3,-2,0,18,-6,-3
1532627572251,-4,2,5,4,-12,-35,-22,-9
1532627572256,3,9,8,-8,-15,-1,-11,-3
1532627572261,-2,-1,-3,-2,9,12,3,0
1532627572266,-5,-3,-4,-15,-17,-28,-18,-9
1532627572271,3,-1,-4,-3,1,18,21,4
1532627572276,-1,-3,0,5,4,-22,-54,-4
1532627572281,2,5,9,14,-1,3,-51,5
1532627572286,-3,0,-1,-4,3,-4,-58,-3
1532627572291,-1,3,2,2,-6,3,-26,3
1532627572296,-4,0,-5,-4,7,-20,32,0
1532627572301,1,2,1,-6,-11,-11,62,-3
1532627572306,-2,-2,-6,6,21,31,38,3
1532627572311,-2,-1,-1,2,-20,13,-20,-2
1532627572316,-4,-4,-7,-8,-10,-30,-51,-10
1532627572321,1,0,0,3,14,-7,18,4
1532627572326,2,1,5,4,-7,4,29,2
1532627572331,-1,-5,-8,-5,3,-1,53,1
1532627572336,-6,-4,-5,-5,-5,-1,77,-7
1532627572341,1,1,3,2,7,14,77,0
1532627572346,-2,-2,-4,0,-4,0,39,-1
1532627572351,0,0,2,1,6,-6,-7,0
1532627572356,-2,-4,1,-2,-17,-4,-25,-4
1532627572361,-3,-5,-9,-8,-3,3,-31,-1
1532627572366,-1,-1,2,4,1,-9,-33,-3
1532627572371,2,-1,0,-3,2,8,-14,0
1532627572376,-2,-1,-2,0,3,-2,-19,-3
1532627572381,-2,0,8,4,-3,-5,-28,0
1532627572386,0,1,-2,-5,-2,5,-12,-1
1532627572391,-1,-1,1,0,8,7,2,0
1532627572396,1,0,-1,-1,-14,-9,-8,1
1532627572401,-1,-2,-1,2,-4,-3,-18,-1
1532627572406,0,-1,-1,-5,-1,10,-8,-2
1532627572411,0,-1,-3,-1,-3,-3,4,1
1532627572416,-2,-3,-6,3,5,-12,-5,-5
1532627572421,-2,-3,-3,-12,-8,8,-7,-2
1532627572426,-2,-1,4,-2,-4,-9,-2,-5
1532627572431,-1,-4,-4,5,15,-8,-31,2
1532627572436,-2,-3,-5,-20,-33,-2,-44,-1
1532627572441,0,2,-2,4,1,2,-24,-3
1532627572446,-2,0,3,1,-6,0,-13,0
1532627572451,0,1,2,2,2,-7,8,-1
1532627572456,0,0,0,-3,5,-3,10,1
1532627572461,2,1,2,-3,-6,-1,24,7
1532627572466,1,2,-3,0,12,3,24,4
1532627572471,-1,1,-1,-2,-12,1,25,1
1532627572476,-1,1,0,1,11,2,22,-1
1532627572481,1,1,-4,-3,0,1,8,-4
1532627572486,5,-1,-2,0,6,-2,2,-6
1532627572491,6,1,-2,-3,0,-1,0,-3
1532627572496,3,-4,0,3,2,2,3,-2
1532627572501,1,-3,-1,0,0,-2,-9,3
1532627572506,3,-2,-5,-2,-1,5,-6,4
1532627572511,-1,-1,4,-2,-5,0,0,0
1532627572516,1,-2,-4,1,14,4,0,-3
1532627572521,-2,0,-5,-2,-4,-3,-2,-5
1532627572526,-4,-1,1,-1,-3,-4,0,-4
1532627572531,-4,-3,-3,-4,-3,-3,6,-1
1532627572536,-7,-3,-2,1,3,0,2,-3
1532627572541,-5,0,3,3,-6,-2,-4,-2
1532627572546,-7,0,0,0,-3,0,0,0
1532627572551,-6,1,0,1,2,-3,-1,-2
1532627572556,-5,-1,-1,-2,-6,-3,-5,0
1532627572561,-3,-1,0,0,0,2,-4,1
1532627572566,0,-3,-2,-3,0,2,1,2
1532627572571,-1,0,0,0,-3,2,-1,-2
1532627572576,-2,-2,3,3,1,1,1,0
1532627572581,-1,0,-1,-2,1,-1,-1,-2
1532627572586,0,-1,0,3,4,2,-2,-1
1532627572591,0,-2,-1,-1,-4,-6,-2,-2
1532627572596,1,-2,-3,-2,-4,-3,-3,-2
1532627572601,1,-2,-1,4,7,1,-8,-2
1532627572606,1,-1,-2,-1,-9,-3,-3,-1
1532627572611,1,-1,0,-3,0,1,3,3
1532627572616,-1,2,1,1,1,-2,-1,-2
1532627572621,1,0,-1,-2,-4,-1,-3,-1
1532627572626,1,-1,0,1,9,1,-5,1
1532627572631,0,-2,-1,-5,-8,0,-1,0
1532627572636,0,-1,1,0,4,2,-3,-2
1532627572641,1,0,3,-1,2,0,-7,5
1532627572646,1,1,-2,0,-1,-2,0,1
1532627572651,1,-2,0,0,-2,1,4,0
1532627572656,-2,-2,-2,-2,1,2,5,-1
1532627572661,-1,0,0,-2,-3,0,0,-3
1532627572666,2,0,-2,0,3,0,2,1
1532627572671,-1,1,-1,-1,-2,1,-3,-1
1532627572676,1,-2,0,-1,-3,0,-9,-1
1532627572681,-3,-2,-1,-3,-1,-5,-1,-4
1532627572686,-2,-2,-1,-1,3,3,-12,0
1532627572691,0,1,-1,-1,1,0,-7,-3
1532627572696,0,0,-2,-2,1,-1,-4,1
1532627572701,-2,-2,-3,0,0,0,-1,1
1532627572706,-1,-1,-2,0,-11,-4,-7,-3
1532627572711,0,-2,0,-3,12,0,-1,-3
1532627572716,2,1,-2,1,-3,0,4,2
1532627572721,-1,-1,-1,-4,-3,1,12,-1
1532627572726,0,-2,0,1,0,0,16,0
1532627572731,0,-2,-2,-3,-2,0,11,1
1532627572736,0,0,0,2,1,1,7,-27
1532627572741,-5,-5,-4,-2,-2,-3,5,5
1532627572746,7,0,1,0,0,2,14,44
1532627572751,-6,-5,-2,-2,-5,-5,40,-19
1532627572756,3,4,4,0,2,3,100,14
1532627572761,6,3,2,1,-1,0,89,-2
1532627572766,-7,1,-3,-3,0,-6,47,-11
1532627572771,-4,-1,-3,-2,-3,-1,-14,6
1532627572776,-6,-4,0,-2,-3,2,-47,-12
1532627572781,-4,-2,-1,0,0,-1,-37,1
1532627572786,1,-2,-1,-3,0,-1,-111,-5
1532627572791,-2,-1,-2,0,-3,-3,-78,1
1532627572796,9,5,2,1,1,-1,-34,9
1532627572801,2,-1,-2,-2,-3,-1,-2,-1
1532627572806,3,1,0,-3,1,1,29,-6
1532627572811,2,-1,-2,0,-2,1,25,-7
1532627572816,-7,-7,-6,-4,-6,-4,4,6
1532627572821,4,4,1,2,-19,3,12,8
1532627572826,-7,-2,-2,0,20,6,43,-19
1532627572831,-1,-2,1,3,-3,1,28,-4
1532627572836,12,5,3,-3,1,2,19,15
1532627572841,-8,-4,-2,-2,2,-2,-21,-5
1532627572846,-2,-1,-2,-2,-7,-5,-18,-11
1532627572851,-4,-2,0,1,3,-2,-12,-2
1532627572856,-9,-2,-2,0,-5,-2,-10,-28
1532627572861,10,-1,-2,-3,3,-2,-18,22
1532627572866,-2,0,1,-3,-6,-1,-14,-4
1532627572871,8,5,1,1,7,5,13,14
1532627572876,-5,-8,-4,-3,-6,-2,1,-3
1532627572881,-1,-2,0,-1,8,1,9,-26
1532627572886,6,-4,-3,0,0,1,10,11
1532627572891,6,3,1,0,-2,0,3,26
1532627572896,-3,-1,0,1,1,-7,-20,-10
1532627572901,18,6,1,1,4,4,-11,7
1532627572906,-22,0,-3,0,-6,-2,-8,-9
1532627572911,3,1,-2,-2,-4,-4,-11,-27
1532627572916,-17,3,-4,-1,3,2,-8,0
1532627572921,37,-7,-2,-1,2,-2,-11,8
1532627572926,-4,3,2,0,-7,-1,-9,-14
1532627572931,-21,-1,-2,-1,-4,-6,-18,19
1532627572936,19,6,1,0,-4,-3,-13,-2
1532627572941,-16,4,2,-1,-11,-6,-21,-12
1532627572946,-10,-4,0,0,-2,2,-16,-3
1532627572951,13,-3,1,0,5,9,-40,-23
1532627572956,-4,-5,-3,-1,8,8,-114,26
1532627572961,-11,-4,-2,-1,5,0,-98,5
1532627572966,9,-2,-3,-3,-4,-6,-67,1
1532627572971,-30,-6,0,2,0,-1,-5,-5
1532627572976,-4,-2,-1,0,-1,-2,43,-2
1532627572981,-8,-1,-2,-1,2,3,48,-3
1532627572986,-4,-2,-1,1,0,-1,53,10
1532627572991,10,2,-2,-1,-4,0,49,-17
1532627572996,8,-1,1,-1,3,4,41,4
1532627573001,-21,-3,-3,-2,3,-4,9,-7
1532627573006,0,-4,-5,-4,-5,-4,24,-19
1532627573011,-52,-7,-4,-1,-2,-7,37,17
1532627573016,83,2,3,2,3,3,82,48
1532627573021,1,0,0,1,1,-2,104,1
1532627573026,15,0,-1,-3,0,-3,65,6
1532627573031,0,0,-3,-2,-1,-5,24,-21
1532627573036,-1,-2,0,2,-1,-2,-8,-1
1532627573041,-9,-6,-2,-3,0,-2,-31,-14
1532627573046,13,0,0,0,0,-1,-38,15
1532627573051,-11,-1,1,2,-1,4,-33,22
1532627573056,0,4,1,1,-2,-4,-32,-33
1532627573061,19,3,1,1,0,0,-27,52
1532627573066,-20,0,1,1,1,0,-20,-11
1532627573071,11,-1,-3,0,-2,-1,-22,-11
1532627573076,-24,-3,-2,-2,-5,4,-11,21
1532627573081,-8,0,0,0,2,-1,-7,-19
1532627573086,-5,-1,-1,-2,2,-3,-34,-34
1532627573091,9,-3,0,-2,0,-5,-9,-2
1532627573096,-13,-1,-1,-2,-1,3,0,-3
1532627573101,-9,-3,-4,-5,-9,-12,-43,3
1532627573106,0,0,-2,2,3,18,71,16
1532627573111,18,2,-1,-4,1,-13,-32,-5
1532627573116,-27,-4,-3,-3,-3,-5,-4,-19
1532627573121,10,2,0,2,1,5,21,10
1532627573126,-1,0,-1,-1,-1,-3,-8,-11
1532627573131,13,-1,-2,-1,-3,4,-2,-3
1532627573136,-3,-1,0,-1,0,-6,-4,5
1532627573141,-23,-5,-5,-4,1,1,-4,-25
1532627573146,13,3,3,-2,-1,-5,-14,16
1532627573151,-24,-3,0,-1,-1,5,17,-7
1532627573156,-4,0,0,1,0,-2,-6,8
1532627573161,13,-8,1,1,0,7,10,13
1532627573166,13,1,-3,-2,0,-1,-9,-3
1532627573171,4,1,1,2,2,2,6,-12
1532627573176,7,1,0,-2,-4,-3,8,-5
1532627573181,-29,-3,-2,-1,-3,-2,-4,-22
1532627573186,1,-2,2,1,2,1,5,42
1532627573191,17,0,-3,-2,-1,-3,-13,1
1532627573196,-28,-5,-1,-2,3,10,3,12
1532627573201,-5,2,0,-1,4,-4,-7,-26
1532627573206,-8,-2,-1,-1,2,-4,-16,4
1532627573211,-2,0,-2,0,0,5,24,-1
1532627573216,-15,-4,-3,-1,-3,-5,-11,-4
1532627573221,1,1,2,-1,2,5,0,-30
1532627573226,3,0,-3,-1,0,-2,0,-17
1532627573231,-4,-3,-1,-2,0,0,-4,23
1532627573236,6,0,-1,0,1,1,4,-3
1532627573241,2,1,1,0,-1,-1,1,-4
1532627573246,-10,-1,-3,-4,-4,-1,0,-10
1532627573251,7,-2,-1,0,-1,-1,-7,1
1532627573256,-4,-1,-2,0,0,-2,-8,-6
1532627573261,2,-1,-1,0,0,-1,5,21
1532627573266,-4,2,2,0,1,2,7,-35
1532627573271,22,2,-3,-4,-4,-2,1,24
1532627573276,-18,0,0,-3,2,0,-9,-17
1532627573281,-15,-2,-2,-1,-4,-6,-17,-3
1532627573286,-16,-3,-3,-1,-1,2,-12,1
1532627573291,31,0,0,-1,1,-12,1,19
1532627573296,-1,-1,-2,-3,-3,3,19,-22
1532627573301,8,0,-3,-1,-1,1,-1,24
1532627573306,-18,-1,2,2,-2,1,-4,3
1532627573311,-14,-2,-1,0,0,4,-2,8
1532627573316,18,4,2,3,1,-4,-16,-26
1532627573321,-14,-3,-1,0,1,3,10,-2
1532627573326,5,0,-1,0,-3,-4,4,-11
1532627573331,2,0,1,-1,-1,-1,-8,27
1532627573336,8,0,-3,-3,-1,1,11,20
1532627573341,-8,0,-2,-2,3,-3,-11,-37
1532627573346,-4,-4,0,0,1,-4,-6,10
1532627573351,-7,-1,-1,-2,0,1,2,-32
1532627573356,0,-2,-2,0,-3,-5,-121,-24
1532627573361,-40,-1,-1,0,-2,2,-53,-13
1532627573366,57,1,-2,-1,-2,2,-25,68
1532627573371,-17,0,1,0,1,3,23,-26
1532627573376,-11,-4,-3,-2,0,-5,49,19
1532627573381,15,-2,-3,-3,-2,-2,90,-14
1532627573386,-6,6,0,0,-1,0,46,-18
1532627573391,3,0,0,0,1,3,43,-3
1532627573396,-5,-3,-1,-3,-2,0,43,-2
1532627573401,15,0,1,0,0,1,22,17
1532627573406,-12,-2,-2,-1,0,-3,25,9
1532627573411,-4,0,-2,-1,-1,1,-9,7
1532627573416,18,1,-1,-1,0,-3,-3,0
1532627573421,1,-2,-2,0,-2,1,-16,15
1532627573426,-1,-3,0,0,-1,0,-15,-8
1532627573431,-3,3,1,-3,-3,-3,-26,-5
1532627573436,-13,-3,-1,1,3,2,6,13
1532627573441,-9,-2,0,-2,-2,-3,-9,-5
1532627573446,39,2,0,-2,0,1,-16,23
1532627573451,-10,2,-1,-1,-1,-3,-11,-19
1532627573456,-2,-6,-3,-3,-1,2,25,30
1532627573461,31,7,1,2,1,2,-1,-12
1532627573466,-45,-12,-4,-7,-4,-5,-10,-40
1532627573471,-19,-8,-2,1,2,-5,-16,15
1532627573476,19,10,0,-1,-2,0,14,-36
1532627573481,-11,1,-3,-3,-4,-4,-8,1
1532627573486,-57,0,1,2,4,-3,-15,-29
1532627573491,31,2,-3,-5,-3,0,10,1
1532627573496,-16,-1,-3,-3,-1,-4,-9,-35
1532627573501,-9,0,3,3,1,2,18,41
1532627573506,8,1,0,-1,1,2,4,-33
1532627573511,7,-2,-1,2,-1,-1,-5,40
1532627573516,-10,-3,0,1,1,1,1,-12
1532627573521,7,-1,0,-1,0,1,-4,-19
1532627573526,4,-5,-2,-1,-3,-1,3,5
1532627573531,-1,-2,3,4,4,1,-2,-4
1532627573536,4,-6,-4,-3,-3,-7,-35,4
1532627573541,-5,-4,-1,0,-1,5,18,-12
1532627573546,5,-3,-1,-2,1,-4,-3,9
1532627573551,2,2,-1,-3,-4,-2,-1,-11
1532627573556,-1,-1,1,-2,1,3,11,15
1532627573561,5,-1,1,3,5,-1,-20,3
1532627573566,13,3,-2,-1,-3,4,1,12
1532627573571,-20,-1,0,0,2,0,-1,-14
1532627573576,7,0,-4,-2,-3,0,12,19
1532627573581,42,5,2,-1,-2,-5,-6,10
1532627573586,4,1,-2,-2,-3,-2,1,14
1532627573591,-71,-8,-1,0,1,2,11,-40
1532627573596,32,9,0,-2,-2,-4,-19,35
1532627573601,8,-4,-1,-4,1,-1,3,-36
1532627573606,-6,2,2,2,1,5,-2,17
1532627573611,14,5,-4,-4,-3,-8,-12,-9
1532627573616,-27,-6,-2,2,-2,2,2,-9
1532627573621,-17,0,0,1,-3,-1,1,26
1532627573626,24,2,1,2,0,-2,4,-2
1532627573631,9,-7,1,1,0,3,0,-5
1532627573636,-10,-10,1,0,1,-3,-12,-8
1532627573641,12,-4,-3,-1,-6,0,-1,15
1532627573646,-26,-6,6,5,4,1,10,-24
1532627573651,-15,1,22,5,0,0,-3,-8
1532627573656,38,6,7,1,-2,-3,1,20
1532627573661,-18,0,-6,-2,0,-2,3,-16
1532627573666,-8,1,-17,-9,-3,0,-1,44
1532627573671,5,0,-12,-4,1,1,-4,-18
1532627573676,-10,2,-4,-2,1,0,8,12
1532627573681,8,2,-9,-7,-1,2,2,37
1532627573686,-26,0,-4,-3,0,-6,-5,-27
1532627573691,22,3,-9,-6,0,5,-8,20
1532627573696,-35,-5,-5,-5,-3,-5,-4,-15
1532627573701,27,-2,0,1,3,-6,-20,-19
1532627573706,-9,-3,4,-1,0,-7,-22,6
1532627573711,-2,-3,-2,-1,-4,6,16,-8
1532627573716,-35,-5,0,0,1,-1,9,-6
1532627573721,56,9,3,-1,-3,0,0,-7
1532627573726,-23,-1,3,2,-2,-1,-10,8
1532627573731,39,-1,-2,4,0,4,13,12
1532627573736,-9,1,2,4,1,0,-6,-10
1532627573741,-50,-8,2,-3,2,-4,-11,-10
1532627573746,35,3,5,-4,-4,3,14,-16
1532627573751,21,0,0,-4,-1,-6,-23,8
1532627573756,-6,-5,0,-2,-2,0,4,-37
1532627573761,-9,-3,4,-3,1,0,6,13
1532627573766,-43,-5,3,0,-1,-1,8,19
1532627573771,62,1,3,1,-1,-4,1,14
1532627573776,11,-2,-2,-3,1,2,6,-24
1532627573781,-34,-3,-3,-3,-4,-4,-9,-10
1532627573786,-15,-6,-15,-5,-2,2,7,5
1532627573791,-10,0,-14,-9,-1,-4,2,0
1532627573796,-2,-1,-16,-6,-3,-5,-19,11
1532627573801,22,2,-11,-5,-2,4,29,19
1532627573806,-24,-3,-5,2,4,4,-12,-30
1532627573811,-54,-7,-1,3,-4,-5,-2,-29
1532627573816,34,4,5,1,-1,1,10,4
1532627573821,-16,-4,9,3,0,-3,-10,21
1532627573826,60,5,15,6,0,-4,-6,-19
1532627573831,-44,-5,12,-2,3,0,-5,1
1532627573836,-5,-1,18,-1,4,1,-6,-9
1532627573841,1,-3,17,2,-2,1,3,2
1532627573846,13,0,15,1,-4,-2,1,-2
1532627573851,-3,2,-3,3,1,-3,-6,5
1532627573856,-18,1,-23,-7,-5,0,7,27
1532627573861,53,1,-41,-12,4,3,-9,-24
1532627573866,9,1,-41,-18,-1,-3,1,-34
1532627573871,5,2,-33,-14,2,-1,-3,11
1532627573876,-15,-4,-29,-14,-1,0,6,-5
1532627573881,18,5,-24,-5,0,1,10,0
1532627573886,-28,-6,-24,-1,1,-2,15,21
1532627573891,64,6,-15,8,-3,-3,42,-5
1532627573896,19,2,4,9,1,0,4,-11
1532627573901,-26,-3,14,11,-2,-3,28,-3
1532627573906,-4,-2,26,7,0,-11,-37,10
1532627573911,-37,0,31,7,-1,3,-6,6
1532627573916,38,2,30,10,-4,-3,-8,31
1532627573921,-14,1,23,5,-5,-1,-19,-18
1532627573926,1,0,15,4,3,7,9,-33
1532627573931,-14,-3,15,1,0,-2,-9,7
1532627573936,-7,0,10,5,2,0,-10,-3
1532627573941,-22,-2,9,0,-2,0,-6,4
1532627573946,49,3,3,3,-2,1,3,17
1532627573951,26,-1,1,1,0,2,-13,-3
1532627573956,14,-2,-3,1,1,0,3,-14
1532627573961,5,-1,0,-1,2,-2,-8,-2
1532627573966,-5,-1,0,1,-2,0,2,5
1532627573971,-17,0,-4,-1,0,-1,1,-2
1532627573976,26,-2,-1,1,0,-1,1,33
1532627573981,-17,-2,-2,-1,1,-2,-7,-15
1532627573986,1,2,-2,-1,-2,-1,-15,11
1532627573991,-33,-7,-2,0,2,0,-19,-51
1532627573996,-11,2,-1,0,1,2,2,-6
1532627574001,-12,-1,-1,2,-2,-3,-7,5
1532627574006,-12,-3,-3,0,-1,-1,14,-4
1532627574011,7,4,-1,0,-2,0,-4,25
1532627574016,-25,-1,-2,2,-1,-3,24,-17
1532627574021,6,-1,0,1,-1,2,31,3
1532627574026,-6,0,0,0,1,1,24,-5
1532627574031,-7,-1,-2,-3,-1,-1,-1,5
1532627574036,-16,-3,-1,-1,-3,0,-16,-5
1532627574041,11,0,-1,-1,1,0,-18,16
1532627574046,-76,-11,-2,-4,0,0,-14,-6
1532627574051,67,7,0,-2,1,2,-6,23
1532627574056,-14,1,0,-3,-1,-2,-8,-4
1532627574061,-7,0,-2,-1,-1,-1,-16,-6
1532627574066,-2,0,-3,-3,-2,0,-19,0
1532627574071,-18,-4,-1,-1,0,0,-13,-2
1532627574076,1,-1,-5,-6,0,-1,1,-4
1532627574081,-1,0,1,0,0,0,-4,-6
1532627574086,26,1,0,-2,-1,0,0,14
1532627574091,-11,-2,-1,-1,-3,-2,-2,-3
1532627574096,20,1,-3,-4,2,3,-4,4
1532627574101,11,-1,0,-2,-1,-1,0,0
1532627574106,23,-3,-2,-1,2,0,7,1
1532627574111,-15,-5,-1,-1,0,-2,12,-6
1532627574116,-27,-4,-1,1,-6,-2,3,-8
1532627574121,-52,-2,0,-1,1,2,12,10
1532627574126,53,9,0,-1,-3,-2,7,-7
1532627574131,72,8,4,0,1,-2,6,7
1532627574136,3,0,1,1,2,0,-1,-2
1532627574141,-6,-2,-1,0,0,2,1,1
1532627574146,-15,1,-3,-1,-1,-4,0,-2
1532627574151,-26,-2,-1,-1,-1,-2,2,-2
1532627574156,-4,-3,0,0,-2,-1,-6,1
1532627574161,4,-2,-2,-1,-2,0,-16,-6
1532627574166,-12,-4,0,-1,2,0,-11,6
1532627574171,24,0,-1,-2,-6,-6,-9,-2
1532627574176,-51,-6,-2,-3,0,4,-26,-18
1532627574181,-5,-2,-1,-2,0,-11,-51,-3
1532627574186,-19,-3,-1,-1,-2,17,-32,-2
1532627574191,37,1,-2,1,-3,-4,-40,5
1532627574196,15,0,-1,-1,-3,-1,-18,4
1532627574201,4,-2,-1,-2,-1,-2,-15,-4
1532627574206,12,0,-3,-3,1,-6,-16,0
1532627574211,-37,-5,-1,2,1,1,5,-3
1532627574216,6,0,0,0,0,1,20,1
1532627574221,8,-1,-1,-3,0,0,33,-3
1532627574226,6,1,2,1,1,5,45,2
1532627574231,-29,-5,-3,-1,2,2,38,-3
1532627574236,6,0,1,5,3,-5,-38,0
1532627574241,0,1,0,-6,-5,6,-11,-2
1532627574246,6,0,-2,-4,-5,-4,14,0
1532627574251,-20,-1,-5,-6,0,-2,24,-1
1532627574256,6,2,0,3,0,4,44,2
1532627574261,3,-1,4,14,12,0,39,0
1532627574266,2,1,0,-4,-7,-7,27,0
1532627574271,-16,-3,-3,-14,-2,0,27,-3
1532627574276,0,-1,-5,-6,-15,-11,21,2
1532627574281,-4,-1,-2,-4,0,-1,2,-4
1532627574286,0,-3,-2,-16,-13,-5,-8,-3
1532627574291,-1,-2,1,11,4,4,-14,-1
1532627574296,8,0,2,4,9,3,-4,1
1532627574301,2,0,1,6,5,4,-3,-1
1532627574306,0,0,1,6,8,-2,0,2
1532627574311,-11,-3,-1,-3,6,-5,-25,-7
1532627574316,1,0,-3,-2,-8,-1,14,5
1532627574321,-3,-5,-3,3,3,7,39,-3
1532627574326,1,0,1,-2,4,-7,-42,-1
1532627574331,-8,-4,-3,-8,-12,-3,-4,-3
1532627574336,6,0,1,4,10,1,3,-1
1532627574341,3,-1,-2,-9,-10,-7,-10,-5
1532627574346,5,-2,-3,-2,-4,-29,11,-1
1532627574351,-2,2,3,5,0,1,-2,0
1532627574356,0,-1,-2,-6,-6,-8,-13,0
1532627574361,-2,-2,-5,-6,-6,-5,-25,-3
1532627574366,-1,1,-5,1,3,2,-17,-3
1532627574371,-3,1,3,2,4,0,0,3
1532627574376,-3,-2,-2,-3,4,10,17,-1
1532627574381,-1,1,3,-5,-1,-4,-3,3
1532627574386,-2,-1,1,4,2,10,4,-1
1532627574391,-4,-3,-3,0,-3,3,14,1
1532627574396,0,-1,-2,-1,0,-2,-36,-4
1532627574401,1,0,-1,1,5,8,7,5
1532627574406,-5,-3,-5,-1,-9,-2,-6,-6
1532627574411,2,1,1,3,11,4,-11,7
1532627574416,-2,-1,-2,-6,-1,-8,15,-3
1532627574421,1,3,3,-1,-2,1,12,3
1532627574426,-2,-5,-3,10,7,6,-1,-1
1532627574431,-3,-3,4,7,2,1,20,-2
1532627574436,-2,-3,-12,-21,-16,8,-6,-3
1532627574441,1,0,-5,-5,-1,-4,-22,-1
1532627574446,2,1,-1,-2,-4,-12,19,3
1532627574451,-1,0,1,5,6,1,-22,-4
1532627574456,1,-1,6,8,9,4,6,0
1532627574461,-3,-3,-1,1,-2,4,7,1
1532627574466,0,1,0,-1,2,32,1,0
1532627574471,-4,-2,-3,-4,-5,-10,-5,-2
1532627574476,-2,0,5,2,-1,-12,-7,-3
1532627574481,-2,0,-5,-4,-3,-4,14,0
1532627574486,-1,1,3,2,7,12,-2,-1
1532627574491,-2,1,0,-10,-11,-19,-26,-3
1532627574496,4,3,6,4,4,7,73,11
1532627574501,0,2,4,6,3,-6,-34,-3
1532627574506,-1,2,-3,0,4,8,12,1
1532627574511,-3,-4,-6,-9,-10,8,1,-4
1532627574516,-3,-5,-3,-7,-15,-27,-26,-6
1532627574521,-3,-4,-16,3,9,70,3,-1
1532627574526,0,0,2,-5,0,-18,8,2
1532627574531,1,3,8,1,-1,-23,-9,0
1532627574536,0,0,2,6,8,24,-10,0
1532627574541,0,-1,0,1,-3,-25,5,-1
1532627574546,-1,-3,-1,-2,-3,1,-19,-1
1532627574551,-2,-2,-1,-1,4,23,12,-1
1532627574556,1,-1,-3,-2,-3,-17,-10,-1
1532627574561,-2,-1,-1,-4,-10,-7,0,-3
1532627574566,-1,0,1,2,2,1,7,1
1532627574571,1,0,-4,-1,-3,-13,-1,-3
1532627574576,-1,0,0,2,9,29,-6,0
1532627574581,0,-1,1,-2,-4,-29,-3,-1
1532627574586,-1,-1,-1,0,-2,5,-7,0
1532627574591,-6,-2,-2,0,0,1,1,-4
1532627574596,-1,-2,-3,-1,-1,5,3,10
1532627574601,2,1,3,-3,-4,2,-1,-22
1532627574606,-24,-1,-1,0,-1,-9,2,-3
1532627574611,57,1,-3,-1,2,33,2,7
1532627574616,-11,-1,-2,0,-2,2,-3,-1
1532627574621,5,-2,1,-3,0,-11,1,8
1532627574626,-6,-3,0,-2,-3,-6,3,-2
1532627574631,-29,-2,-3,-2,-2,1,0,-4
1532627574636,3,0,-1,2,1,-9,-7,-3
1532627574641,-17,-5,0,1,0,1,3,-1
1532627574646,8,1,-1,-1,1,-5,-3,8
1532627574651,3,2,0,-1,2,4,4,-6
1532627574656,7,-2,0,1,2,-9,-2,-1
1532627574661,0,0,1,-1,-2,-8,-2,7
1532627574666,-2,-1,-1,-2,0,4,1,5
1532627574671,3,-3,-3,-3,0,-9,4,-7
1532627574676,2,-3,-4,-2,4,-1,-5,-11
1532627574681,1,-2,-2,-2,3,0,-4,-15
1532627574686,11,-3,-2,-2,2,-2,-5,-1
1532627574691,-8,-1,-1,1,1,-2,-3,8
1532627574696,-8,-1,-1,1,-8,-8,-8,2
1532627574701,-6,2,3,3,-11,-3,-3,-2
1532627574706,-1,5,3,5,-5,-2,-1,-9
1532627574711,-10,-1,2,1,-2,1,7,-1
1532627574716,-1,-2,-1,-1,1,-1,7,12
1532627574721,12,0,-2,-1,7,5,13,15
1532627574726,15,0,0,-2,2,-1,7,4
1532627574731,-41,-1,-1,-2,0,0,9,-1
1532627574736,6,-2,-2,-1,2,2,2,-7
1532627574741,-1,-2,1,-1,-5,1,-1,-1
1532627574746,11,1,0,1,-2,1,-8,-8
1532627574751,-1,-2,0,-1,-2,-1,-10,-1
1532627574756,-2,0,-2,-1,-1,-5,-10,-5
1532627574761,1,1,1,1,1,-5,-8,-1
1532627574766,-7,-3,-1,0,-2,-3,-7,-1
1532627574771,7,-4,0,0,-1,-7,-6,4
1532627574776,0,-1,1,1,-2,0,-3,-2
1532627574781,3,-2,-2,-1,-1,0,1,1
1532627574786,1,0,1,-2,-1,2,6,2
1532627574791,6,0,0,-1,-1,0,6,1
1532627574796,4,1,0,-1,-1,-1,3,-1
1532627574801,-2,-1,-1,0,0,-1,1,2
1532627574806,-2,-2,0,-4,-1,-4,0,-1
1532627574811,3,0,-2,-1,-1,-2,-2,-1
1532627574816,-6,0,-1,-3,0,-3,1,1
1532627574821,0,0,-1,-1,-3,-5,1,0
1532627574826,-5,0,-2,1,-1,-1,-1,-3
1532627574831,2,2,-2,0,-3,0,-1,0
1532627574836,-2,1,0,-1,1,4,0,1
1532627574841,-2,-1,0,-2,-1,-2,-2,1
1532627574846,-1,-1,-2,0,-1,-4,-4,-3
1532627574851,-1,-1,-1,1,2,1,-1,1
1532627574856,0,-1,-1,-1,-2,-2,-1,-2
1532627574861,-2,-1,-1,1,0,2,-2,0
1532627574866,-3,-2,-2,-1,0,2,-2,-2
1532627574871,0,-1,0,-1,-2,-2,-2,-1
1532627574876,-2,0,-1,-2,1,3,-2,1
1532627574881,0,-3,-2,-2,-2,-8,-4,-3
1532627574886,1,-4,-1,-1,-1,3,-1,0
1532627574891,3,-1,1,-1,0,10,8,4
1532627574896,1,0,1,1,3,-17,-17,-5
1532627574901,0,-1,-1,-2,-1,3,5,0
1532627574906,-1,-2,-1,0,0,-1,0,-2
1532627574911,0,-1,-2,0,-3,-5,3,-1
1532627574916,-3,-1,-1,-1,0,9,4,2
1532627574921,0,-1,0,0,2,2,-4,-1
1532627574926,-3,-1,0,-2,-1,-5,-1,0
1532627574931,-1,0,-1,0,0,3,-3,-3
1532627574936,1,-1,-3,-2,-2,-4,1,-2
1532627574941,2,1,-2,-2,2,-2,-3,1
1532627574946,1,-1,2,-1,-1,2,0,1
1532627574951,1,-1,-2,0,1,-4,-5,-1
1532627574956,0,-2,0,0,-1,-1,1,-1
1532627574961,-1,-3,0,0,0,-3,0,-1
1532627574966,-1,-1,-2,-3,0,3,-2,-2
1532627574971,-1,-1,-2,-2,-1,-2,-5,-3
1532627574976,0,0,-2,0,-3,-2,-2,-1
1532627574981,-1,0,1,-1,0,2,-2,-1
1532627574986,-1,1,-2,1,0,-3,0,0
1532627574991,-1,1,-3,-1,-1,-3,-3,0
1532627574996,0,-1,-1,-1,-1,3,-1,-1
1532627575001,-2,1,-2,-3,0,0,-2,0
1532627575006,-1,0,-1,-1,0,2,0,-1
1532627575011,-2,0,-1,0,-1,-11,-1,-3
1532627575016,0,-1,0,0,-2,0,1,0
1532627575021,-1,-1,0,0,-1,0,-1,0
1532627575026,0,1,-2,0,1,1,-1,-1
1532627575031,0,-2,0,-1,0,4,-2,-2
1532627575036,-1,0,-1,-1,-1,-1,2,-2
1532627575041,-2,-1,1,-1,0,1,-2,0
1532627575046,0,-1,1,-3,-3,-10,-4,-1
1532627575051,-1,-2,1,0,-1,-2,0,0
1532627575056,-1,1,-1,-2,-1,1,-1,-2
1532627575061,0,0,-1,-1,1,2,1,0
1532627575066,2,-1,-3,0,-2,2,1,0
1532627575071,-3,-1,-1,0,-1,-3,-1,0
1532627575076,-2,0,0,0,0,0,-1,0
1532627575081,-3,0,-1,-1,-1,0,-1,-1
1532627575086,-3,-1,1,-1,1,-1,-1,-4
1532627575091,0,-1,-2,1,0,-1,0,1
1532627575096,-1,0,0,-1,-1,0,-1,-2
1532627575101,0,0,-1,-1,-2,-1,-4,-2
1532627575106,-1,-2,-1,-3,0,-2,-3,0
1532627575111,1,-1,0,-3,-1,2,0,-1
1532627575116,-1,-3,-1,-2,-1,-1,-1,0
1532627575121,0,0,-2,-1,-2,-2,-1,-1
1532627575126,-1,-2,-2,-1,0,-1,1,-1
1532627575131,1,0,-1,-1,1,-1,-1,0
1532627575136,0,-1,-1,0,-2,-5,0,-2
1532627575141,0,-1,-2,0,-1,-2,-3,-1
1532627575146,-1,1,-1,-2,1,2,-1,0
1532627575151,-1,-3,-1,-1,-1,0,-2,0
1532627575156,0,-1,-2,-1,0,-1,-2,-1
1532627575161,-1,-1,0,-2,-1,-1,2,0
1532627575166,1,-1,-2,1,-1,-1,0,-1
1532627575171,-2,-3,-2,1,-1,1,1,-2
1532627575176,-2,0,0,0,0,-2,-1,0
1532627575181,1,-1,0,0,-1,-1,1,-2
1532627575186,1,0,-1,1,-2,-1,-2,0
1532627575191,-1,2,0,-1,0,-2,-2,-2
1532627575196,1,-2,-1,-2,1,1,-1,0
1532627575201,-2,0,1,0,-2,0,-3,1
1532627575206,0,-2,0,1,0,-1,1,-1
1532627575211,-2,-1,0,-1,1,-3,-1,-2
1532627575216,-2,-1,-1,1,0,0,0,0
1532627575221,1,0,1,-2,0,-2,2,-1
1532627575226,-2,-1,-3,-2,-1,-1,1,0
1532627575231,-2,1,0,-1,-2,-1,1,-1
1532627575236,-2,-1,0,0,-1,-1,-2,0
1532627575241,0,-2,0,-1,-1,-2,-1,-1
1532627575246,0,1,-1,-1,0,1,0,0
1532627575251,0,0,-2,0,1,0,-1,0
1532627575256,-1,0,-3,-2,-1,1,-1,-1
1532627575261,-1,-3,-1,-1,1,0,0,-1
1532627575266,0,-2,0,-2,0,2,-1,-1
1532627575271,-2,-2,-2,1,-3,1,0,-2
1532627575276,-1,0,0,-1,0,0,-1,-1
1532627575281,-2,-1,-1,0,-1,-2,-3,-2
1532627575286,-1,-1,0,-1,0,0,-1,0
1532627575291,1,-1,-1,0,-1,-1,-1,-1
1532627575296,-1,1,1,2,-2,-1,-1,-1
1532627575301,0,-1,-3,-2,-2,-2,-1,-1
1532627575306,-1,0,0,-1,-2,-1,0,0
1532627575311,-1,-1,-1,0,-2,1,-2,-1
1532627575316,0,0,-1,-2,0,0,-1,0
1532627575321,-2,0,-1,-1,-1,-1,-1,0
1532627575326,-3,0,0,1,0,0,2,-3
1532627575331,-1,0,-1,-1,1,1,-2,-2
1532627575336,0,-1,-2,-2,0,-1,1,-1
1532627575341,-2,-3,-1,1,1,0,-1,0
1532627575346,0,-1,-1,2,0,-1,-4,0
1532627575351,-2,0,0,-1,1,-1,-2,0
1532627575356,0,-2,-3,-2,-1,-1,0,1
1532627575361,1,1,-2,0,0,-1,0,-2
1532627575366,-2,-1,-1,0,-1,1,0,-1
1532627575371,-1,0,-1,0,0,-2,-1,-1
1532627575376,-3,-1,-1,0,-2,-7,-4,-1
1532627575381,-2,-1,0,-2,1,1,1,1
1532627575386,0,-1,-3,-1,-2,-6,-4,-1
1532627575391,0,-2,-2,-2,-1,3,0,0
1532627575396,0,-1,-1,-1,1,-2,-1,-2
1532627575401,1,0,-1,0,-1,2,-1,-1
1532627575406,-1,0,0,-1,1,0,1,-1
1532627575411,-1,-1,-1,0,0,-1,-1,0
1532627575416,-1,-2,-1,0,0,2,-1,-1
1532627575421,0,0,-1,-4,0,-6,-1,-2
1532627575426,0,0,0,-2,1,9,6,0
1532627575431,-2,-1,-1,-1,-3,-36,-7,-3
1532627575436,1,1,-1,1,2,50,5,0
1532627575441,-3,-2,0,0,1,10,2,-2
1532627575446,1,0,0,-1,2,-28,-14,0
1532627575451,1,-2,-1,-3,-5,1,8,2
1532627575456,-1,0,-1,-3,-3,-19,-4,-2
1532627575461,-1,-2,-2,-2,-3,6,2,0
1532627575466,0,2,0,2,-1,-17,-8,-3
1532627575471,3,3,0,0,6,9,2,2
1532627575476,0,-1,2,-1,-2,-5,-6,1
1532627575481,-8,-6,-6,-2,-1,23,7,1
1532627575486,-2,-3,1,-1,0,-21,-1,0
1532627575491,-2,1,-1,0,1,8,0,-2
1532627575496,-1,0,1,4,4,12,13,2
1532627575501,-2,-1,-2,0,-1,-39,-20,-3
1532627575506,-2,0,-2,-3,-5,4,-9,2
1532627575511,1,-1,-1,-1,1,-6,-6,-7
1532627575516,-4,-3,-2,-1,1,-3,2,6
1532627575521,3,2,0,-2,2,15,3,3
1532627575526,-2,-3,-2,1,-1,10,6,4
1532627575531,-4,1,-3,0,9,9,0,-6
1532627575536,1,-1,-7,-3,5,-11,-3,-1
1532627575541,1,1,3,1,-3,-13,2,-2
1532627575546,1,-2,-3,1,-3,16,7,1
1532627575551,0,0,-2,-5,-6,-5,-4,0
1532627575556,-4,-3,-2,1,-1,-4,-1,-5
1532627575561,2,-1,1,2,2,-1,1,1
1532627575566,-5,-2,-1,-2,3,8,5,1
1532627575571,-4,-4,1,5,1,6,4,2
1532627575576,-1,2,-2,-3,-6,-12,-15,-3
1532627575581,1,1,-2,-4,-6,3,-6,-1
1532627575586,0,0,3,7,4,2,-11,1
1532627575591,-1,-3,-2,-4,-3,-11,-26,-2
1532627575596,-1,-4,-5,-5,6,9,6,-1
1532627575601,-1,-1,6,-8,-11,-5,-2,-2
1532627575606,0,0,-13,-11,-15,4,4,-2
1532627575611,1,2,5,13,-4,5,11,3
1532627575616,0,-1,-1,-1,16,-7,-3,-5
1532627575621,0,2,0,-9,7,-5,2,-2
1532627575626,1,2,-1,-2,-14,0,7,-1
1532627575631,0,-2,-5,-7,0,0,0,-5
1532627575636,-3,-2,-2,-14,-27,-4,4,0
1532627575641,4,0,-2,15,2,-1,6,3
1532627575646,2,-1,10,25,22,7,2,1
1532627575651,-11,0,5,18,10,3,8,2
1532627575656,0,-2,-2,-12,28,-4,3,-1
1532627575661,-13,-6,-15,-40,-19,-6,-5,-8
1532627575666,-3,-4,-9,-23,-42,-3,1,-4
1532627575671,4,-3,6,11,-13,1,5,0
1532627575676,-3,1,4,22,-6,1,0,3
1532627575681,-21,0,5,19,15,-1,-2,-6
1532627575686,6,2,-2,-5,13,-2,6,-5
1532627575691,10,0,-2,-8,3,0,23,2
1532627575696,-2,-4,0,-2,0,-3,4,-1
1532627575701,5,-1,-3,2,-2,3,-13,1
1532627575706,-4,-1,2,0,11,-1,-35,0
1532627575711,-1,1,-4,-8,-1,1,-35,-1
1532627575716,3,0,1,1,-10,-2,-22,-2
1532627575721,-2,-2,-1,5,0,-3,-6,-2
1532627575726,0,-1,0,1,7,-2,4,-2
1532627575731,0,-2,-4,-12,-2,-2,-1,-1
1532627575736,-4,1,2,9,-6,-3,1,0
1532627575741,7,1,3,6,0,2,3,2
1532627575746,-3,-4,-4,-13,1,-3,-3,1
1532627575751,-4,-1,-3,-2,-3,-1,1,2
1532627575756,-2,1,-1,-11,-7,0,-44,-1
1532627575761,3,-1,3,9,-4,-2,-52,1
1532627575766,2,0,-3,4,4,2,-10,1
1532627575771,-6,-2,0,-5,2,0,23,0
1532627575776,0,0,2,-1,-4,-3,53,2
1532627575781,2,-1,1,7,3,4,58,1
1532627575786,-3,-3,-1,3,8,1,38,-7
1532627575791,2,-3,-5,-16,-6,1,18,-4
1532627575796,3,-3,-8,-14,-9,-1,15,-7
1532627575801,5,1,-5,-1,-1,-3,10,-2
1532627575806,4,-1,5,7,2,0,3,4
1532627575811,4,-1,2,12,5,0,-6,1
1532627575816,3,1,3,7,6,0,-6,2
1532627575821,2,-2,-1,-11,1,0,-2,1
1532627575826,1,-2,-5,-9,-3,-2,-6,-3
1532627575831,-2,-1,-2,-6,-11,0,-14,2
1532627575836,2,0,-1,6,4,-2,-20,5
1532627575841,-3,0,0,2,-1,-1,-3,9
1532627575846,0,1,1,4,3,-1,-8,3
1532627575851,0,0,-2,-4,-1,1,-5,-1
1532627575856,-3,1,-1,3,-3,1,-3,-7
1532627575861,-2,-2,-5,-8,1,-1,-1,-7
1532627575866,-3,-1,-2,-3,-8,-4,-13,-8
1532627575871,-7,-1,-3,0,8,-3,-7,-10
1532627575876,-1,0,1,3,-5,-1,3,1
1532627575881,-2,-2,-2,0,4,0,-1,-7
1532627575886,-3,-1,2,-2,-2,1,2,-4
1532627575891,1,0,2,6,-1,0,-1,1
1532627575896,0,0,-1,-2,-2,0,0,-3
1532627575901,-2,-1,-4,-13,-5,-3,-4,1
1532627575906,-3,1,-2,-8,-7,-2,0,-2
1532627575911,-3,0,-2,2,-1,0,0,4
1532627575916,-2,-1,1,1,3,0,0,-4
1532627575921,1,1,2,7,1,2,5,2
1532627575926,-3,-1,1,1,0,1,3,1
1532627575931,-2,-2,0,-1,0,-2,-1,-2
1532627575936,0,-2,-2,-4,-2,-4,-1,2
1532627575941,0,-1,-2,1,0,0,-2,-1
1532627575946,0,-1,-1,1,2,-1,-2,11
1532627575951,-2,-1,0,-2,1,0,-2,3
1532627575956,0,0,-1,1,0,-1,-2,-14
1532627575961,2,0,0,-1,-1,-1,-2,-5
1532627575966,-1,-1,-1,0,0,-1,3,-3
1532627575971,-1,0,-1,-1,-2,-2,-2,2
1532627575976,0,-1,-3,-3,0,-1,0,4
1532627575981,-2,-2,2,2,-2,-1,-1,2
1532627575986,2,1,-1,0,-2,6,2,2
1532627575991,-3,-2,-1,-2,-2,-2,-2,-1
1532627575996,-4,-1,-1,0,-2,-4,-1,0
1532627576001,2,0,-2,-1,3,-1,-4,-7
1532627576006,-1,-3,0,-1,-6,-4,-1,5
1532627576011,4,1,-1,-4,0,2,0,0
1532627576016,-1,-2,-1,-1,-1,1,-1,3
1532627576021,-1,0,0,2,0,-1,-3,3
1532627576026,-1,-2,-1,0,4,2,-5,-7
1532627576031,1,-1,0,0,-1,-3,-2,2
1532627576036,0,0,-1,-3,-3,1,5,2
1532627576041,0,-2,-2,0,-3,0,1,-1
1532627576046,0,0,-1,-1,2,-1,1,0
1532627576051,-1,-1,-2,0,1,-1,-6,-3
1532627576056,1,0,0,1,2,1,-6,-4
1532627576061,-1,0,0,0,-3,1,0,1
1532627576066,-2,-2,0,0,0,-1,-3,-4
1532627576071,-1,0,-1,0,0,1,6,0
1532627576076,2,-1,-2,-2,0,2,3,0
1532627576081,0,-2,-2,-1,0,-4,-2,8
1532627576086,-1,0,1,1,1,-2,-2,-3
1532627576091,1,0,-1,-3,0,1,-3,-6
1532627576096,-1,0,-1,-1,-1,-4,-3,0
1532627576101,2,-1,-2,-1,-2,-2,-1,0
1532627576106,3,-1,0,0,0,-1,-1,2
1532627576111,7,-1,0,-2,-4,-1,0,-2
1532627576116,9,0,-2,1,-1,1,7,-2
1532627576121,7,-1,-2,-3,-3,-1,18,5
1532627576126,-2,1,-1,0,-1,-2,14,-6
1532627576131,-1,0,0,-2,-2,1,-5,-1
1532627576136,0,-3,-3,-1,-3,-1,-19,1
1532627576141,-3,0,0,-1,1,0,-19,-8
1532627576146,2,0,-1,-1,-1,-2,-6,1
1532627576151,-2,0,-2,-1,1,0,-6,-5
1532627576156,-3,0,-1,0,2,1,-1,11
1532627576161,0,1,1,1,1,-1,1,-5
1532627576166,-3,0,-1,-3,0,0,-1,7
1532627576171,-5,1,-1,0,1,-2,-14,0
1532627576176,-7,0,0,0,1,1,-13,-8
1532627576181,-4,0,-1,1,1,1,-4,-1
1532627576186,-5,-1,-3,-2,-2,0,2,-2
1532627576191,-6,-4,-3,-3,0,-2,5,3
1532627576196,-7,-2,-2,-3,-2,0,3,-5
1532627576201,-6,-2,-2,-1,-1,-2,0,5
1532627576206,-3,0,0,-1,0,-2,-1,-5
1532627576211,0,-1,-2,1,-1,-1,6,0
1532627576216,0,-2,-1,1,1,-1,4,1
1532627576221,-3,-2,-1,0,0,0,3,-2
1532627576226,0,0,0,-2,-1,0,-2,2
1532627576231,0,-1,0,-1,-1,0,3,-2
1532627576236,-3,0,-1,0,0,-2,0,-4
1532627576241,-2,0,-2,0,0,2,-1,-1
1532627576246,-3,-2,-1,1,-1,0,-4,0
1532627576251,-4,-2,-1,-1,-2,-1,0,-3
1532627576256,-3,-1,0,0,-1,1,1,-2
1532627576261,1,-1,0,-2,-1,0,-1,1
1532627576266,-3,-2,1,1,0,-1,-2,-2
1532627576271,-2,-3,-1,0,-3,-2,-2,2
1532627576276,-2,-2,-3,-1,-1,-1,1,1
1532627576281,3,0,0,1,1,-1,-1,-9
1532627576286,2,0,-1,0,-1,0,-3,-2
1532627576291,-1,-1,-1,0,3,-1,1,2
1532627576296,4,0,1,-2,1,2,6,9
1532627576301,-3,-2,-2,-1,-1,-1,2,-3
1532627576306,0,-1,-1,1,0,-1,3,-3
1532627576311,3,0,-2,-3,-1,1,0,6
1532627576316,-1,-1,-1,-3,0,-3,-1,-6
1532627576321,0,1,0,-2,-1,-3,0,2
1532627576326,1,-1,0,-1,-1,0,-4,-5
1532627576331,-2,0,-3,0,-1,0,-5,-2
1532627576336,2,-1,-1,0,-2,1,-3,3
1532627576341,-3,-1,-2,-2,0,-2,-6,0
1532627576346,0,-1,0,0,-2,-1,-3,-1
1532627576351,1,-1,-2,0,0,-1,1,-2
1532627576356,0,-1,-1,0,0,0,1,-2
1532627576361,-2,-2,0,0,-2,0,6,-1
1532627576366,1,0,-1,-1,0,1,3,-1
1532627576371,-1,-2,-1,0,1,-3,11,0
1532627576376,-1,0,-1,-3,-1,0,8,-3
1532627576381,0,-1,-1,0,0,1,-1,-3
1532627576386,1,-2,-3,0,-1,-1,-3,4
1532627576391,-3,-1,0,-1,-1,-2,-6,-8
1532627576396,0,-1,-2,0,-1,-3,-6,-2
1532627576401,-3,-2,-3,-1,0,1,-6,0
1532627576406,-1,0,-2,-4,0,0,-4,3
1532627576411,1,0,0,1,-2,0,-3,2
1532627576416,2,1,0,-1,-2,-1,-1,-2
1532627576421,-2,0,-1,-1,-2,-1,-4,2
1532627576426,-1,-1,-2,0,-1,-2,-2,-3
1532627576431,-1,1,0,-2,-1,1,-2,-1
1532627576436,0,-1,0,1,1,0,-3,-1
1532627576441,1,0,0,-2,1,-1,1,-1
1532627576446,-1,-1,-1,0,-1,1,0,-1
1532627576451,-2,0,-1,0,-2,-2,-1,-4
1532627576456,-1,-1,-1,-1,0,1,1,-2
1532627576461,0,1,-2,-1,0,0,-3,0
1532627576466,-2,0,0,-1,1,0,0,-5
1532627576471,1,0,-1,-2,0,1,-2,9
1532627576476,-2,-1,-2,-1,-2,-3,-3,0
1532627576481,-2,-2,-1,0,-2,2,1,0
1532627576486,-2,0,-1,-2,-2,-2,0,-3
1532627576491,1,-1,0,1,0,0,0,-3
1532627576496,-1,0,-1,-1,-1,0,-1,-1
1532627576501,1,-1,1,-2,0,-3,-2,-1
1532627576506,-3,-1,-1,0,0,-1,-3,-2
1532627576511,2,-2,0,-2,1,-1,-16,-1
1532627576516,-1,0,0,1,2,-2,-6,1
1532627576521,-3,0,-1,0,0,-1,-4,-6
1532627576526,-1,0,-1,0,0,0,5,-1
1532627576531,1,1,-2,-1,-1,-3,10,3
1532627576536,-1,0,2,-1,-4,-1,5,-3
1532627576541,-1,1,-1,-2,-1,-3,6,-6
1532627576546,-1,-1,-2,-1,-1,-1,2,5
1532627576551,-3,-2,-2,-2,0,-3,4,-3
1532627576556,2,0,-1,0,2,0,1,4
1532627576561,-2,0,-1,0,2,0,1,1
1532627576566,-4,-3,-1,-1,-1,0,-3,-4
1532627576571,0,0,-2,-1,0,1,-3,-4
1532627576576,-1,-1,-1,-1,0,0,1,1
1532627576581,1,0,1,0,-1,-1,-4,-1
1532627576586,1,0,1,0,0,0,-2,-1
1532627576591,-2,-2,1,0,-1,-2,0,-1
1532627576596,0,1,1,-1,0,-1,-1,-3
1532627576601,0,0,-3,0,0,-1,2,4
1532627576606,0,-1,-1,-1,1,-1,-1,-4
1532627576611,0,0,-3,-2,-1,0,1,-2
1532627576616,-1,-2,-1,-1,0,-1,-3,-3
1532627576621,-1,-2,0,-1,-1,0,-2,1
1532627576626,-1,-1,-1,-2,-1,-3,-1,1
1532627576631,-1,-1,-1,1,1,0,1,-4
1532627576636,1,-1,-2,-2,-1,-1,0,4
1532627576641,1,0,-1,-2,0,-1,-2,-2
1532627576646,0,1,-2,0,-2,-2,-1,1
1532627576651,-3,-2,0,0,0,1,-1,-5
1532627576656,-1,-2,-1,1,-4,2,0,1
1532627576661,-2,-1,-1,0,-1,-1,0,0
1532627576666,-1,-1,0,-1,-2,0,-2,-1
1532627576671,-1,-1,1,0,1,-3,-1,1
1532627576676,-3,-2,-2,1,1,-2,-1,0
1532627576681,1,-1,0,0,1,1,-1,0
1532627576686,-1,-2,0,1,-2,-1,0,-3
1532627576691,0,0,1,-1,0,-1,0,0
1532627576696,-3,-1,0,-1,3,2,-1,-4
1532627576701,-1,0,-1,-1,-1,-1,-3,7
1532627576706,0,-1,-2,-2,0,0,-1,1
1532627576711,-2,0,0,1,-3,-1,0,-2
1532627576716,0,0,0,1,-2,0,-1,-3
1532627576721,-2,-1,-3,0,-2,0,2,-3
1532627576726,-2,-1,0,-1,1,-1,-1,2
1532627576731,1,-1,-2,-2,-1,-1,-1,1
1532627576736,-3,-1,-2,-2,1,-3,-2,-4
1532627576741,1,-1,0,0,-2,0,-1,-2
1532627576746,1,-1,0,-1,-1,-1,-1,2
1532627576751,-24,-4,-2,-2,-1,1,0,-3
1532627576756,33,2,-1,0,0,-1,-2,-1
1532627576761,-7,-5,1,-2,0,-2,-1,-1
1532627576766,-2,1,1,1,0,0,0,0
1532627576771,-5,-2,0,0,-1,0,0,3
1532627576776,-8,0,-1,-1,-1,0,-1,0
1532627576781,-2,0,-3,0,-2,-2,0,-1
1532627576786,4,1,-1,1,-1,-1,-1,-1
1532627576791,4,-2,-2,-1,-1,-1,-1,-1
1532627576796,-6,-2,-2,-2,-1,-1,0,-3
1532627576801,7,1,0,-3,-1,1,-2,5
1532627576806,-5,-1,0,-1,0,0,-1,1
1532627576811,4,1,1,-1,0,1,0,1
1532627576816,-6,-1,-1,0,-3,-1,-3,-5
1532627576821,-3,1,0,0,1,0,-2,-2
1532627576826,-3,-3,-2,-1,-1,0,-1,-3
1532627576831,5,0,-1,-1,0,-1,-3,-1
1532627576836,-3,0,-1,1,0,-1,0,1
1532627576841,-4,-2,0,1,0,-1,-2,-3
1532627576846,1,0,0,-2,-2,-1,-2,0
1532627576851,4,0,0,0,-1,2,1,-1
1532627576856,-5,-3,-1,-2,-1,0,-2,0
1532627576861,0,-1,-1,0,0,-1,0,-2
1532627576866,0,0,-2,-1,1,-2,-1,-1
1532627576871,-1,-1,-1,0,-1,-1,0,-2
1532627576876,-4,-2,0,-3,0,0,2,7
1532627576881,1,-1,-1,-1,-1,-2,-3,-4
1532627576886,0,0,-1,-1,-3,0,-2,-1
1532627576891,2,1,0,-1,1,-1,0,-1
1532627576896,-4,0,0,0,0,1,2,-2
1532627576901,2,0,-1,0,-1,-1,1,-4
1532627576906,-3,-1,-2,-1,0,0,6,-1
1532627576911,0,0,-1,0,-1,0,3,-1
1532627576916,-1,-1,1,-2,0,1,4,0
1532627576921,1,-1,-1,1,-3,0,2,0
1532627576926,-2,-2,0,0,0,1,1,1
1532627576931,-4,-2,-2,-2,-2,-1,12,2
1532627576936,0,1,-1,-1,-1,-2,7,-4
1532627576941,-3,0,-1,-1,-1,-1,2,-5
1532627576946,2,0,-2,0,-1,-2,-3,-3
1532627576951,1,-1,1,-2,1,0,-9,-1
1532627576956,-2,-2,-1,-1,0,-3,-9,1
1532627576961,0,-1,-1,-1,0,0,-3,0
1532627576966,-1,-1,-1,2,-1,0,-5,-2
1532627576971,-1,2,-2,-2,2,-1,-5,0
1532627576976,-1,0,-1,-1,1,0,-5,-6
1532627576981,0,0,-1,-2,-1,-1,-4,3
1532627576986,0,0,-1,-2,-2,-2,-3,-1
1532627576991,2,0,-1,2,0,0,2,2
1532627576996,-1,-1,-2,-2,-2,-1,-2,1
1532627577001,-1,-1,-1,-2,0,-1,1,-3
1532627577006,-2,-2,0,-1,0,0,-2,-1
1532627577011,0,-1,0,0,-2,-2,0,-1
1532627577016,-1,-1,-1,-2,-1,-1,0,-2
1532627577021,-3,0,-1,-1,-1,-1,-2,-2
1532627577026,-1,0,-1,-1,-2,-3,0,-2
1532627577031,2,0,0,0,-1,-2,-2,-1
1532627577036,-1,-1,-1,-1,0,-1,0,1
1532627577041,0,-1,-1,-1,-2,0,-1,-1
1532627577046,1,-1,-1,-1,0,-2,0,-2
1532627577051,-3,-1,-2,0,-1,1,-2,1
1532627577056,2,1,0,2,2,0,4,6
1532627577061,-4,-1,-2,-1,0,-1,0,-2
1532627577066,0,-1,-1,-2,-1,0,-1,-1
1532627577071,-1,-1,-1,-2,1,-2,-3,-3
1532627577076,0,-1,-1,-1,-2,0,-2,-2
1532627577081,0,-2,1,-1,0,-1,-1,1
1532627577086,-2,-2,0,-1,0,0,0,0
1532627577091,-2,0,-2,0,-3,0,0,0
1532627577096,-2,-1,-1,-1,-2,1,-3,-2
1532627577101,1,-2,-2,-2,2,0,0,0
1532627577106,-1,-1,0,-1,-1,0,-4,-1
1532627577111,-3,0,1,-2,0,0,-3,-4
1532627577116,-1,-1,1,-1,-2,0,0,-2
1532627577121,0,2,0,0,-1,0,-2,1
1532627577126,-1,-1,-1,-1,0,-1,0,-1
1532627577131,-1,-1,-1,-1,-3,0,1,-1
1532627577136,-1,-2,-2,0,-1,-1,2,-2
1532627577141,0,0,-2,-3,-1,1,-1,-1
1532627577146,-1,-1,-2,0,-1,1,1,0
1532627577151,1,-1,-1,-1,0,0,-1,-4
1532627577156,-1,-1,-1,-1,0,0,0,-1
1532627577161,-2,0,-1,-2,-1,-1,-3,0
1532627577166,-1,-2,-1,-1,1,0,-1,-2
1532627577171,0,-1,-1,0,-1,0,-3,1
1532627577176,0,0,0,0,-2,-2,-3,0
1532627577181,1,-1,-1,0,-1,-2,-4,-1
1532627577186,1,1,0,0,-1,-3,-2,0
1532627577191,1,-3,-1,-1,-1,-2,-2,1
1532627577196,-1,-3,-1,-1,0,1,-7,1
1532627577201,1,-1,-1,-1,1,1,-4,-1
1532627577206,-1,-1,0,-3,-2,-2,-4,-2
1532627577211,-2,-1,1,-2,-1,1,-1,0
1532627577216,-1,-1,-1,-1,-1,0,1,-2
1532627577221,-1,-2,-1,0,-2,-2,2,-5
1532627577226,1,-1,-2,-1,-1,0,2,6
1532627577231,-1,-1,2,0,-1,-1,2,-1
1532627577236,-1,0,-2,-1,2,0,2,-1
1532627577241,0,-1,0,-1,0,-1,2,0
1532627577246,-1,-1,-1,0,0,-1,1,-2
1532627577251,-2,-2,-1,0,-1,-2,-2,-3
1532627577256,-1,-1,-1,1,0,-1,2,-1
1532627577261,0,-1,-2,-3,-1,0,2,-1
1532627577266,-1,1,0,-2,-2,0,1,-2
1532627577271,1,1,-1,0,-1,0,1,0
1532627577276,-3,-1,-1,-1,0,-1,1,-1
1532627577281,-1,-1,-1,0,0,1,-1,-1
1532627577286,-3,-2,-3,-1,-1,-1,0,-1
1532627577291,1,-1,-1,-1,1,0,-1,0
1532627577296,1,0,0,-1,-1,1,-1,-1
1532627577301,0,0,0,1,1,1,-1,2
1532627577306,-4,-3,0,-2,0,-1,-1,-7
1532627577311,2,1,-2,-1,1,-2,0,6
1532627577316,-1,-1,0,-2,-2,-1,0,-1
1532627577321,-1,-1,-1,0,-1,-1,1,1
1532627577326,-1,0,-3,-1,0,0,-2,-1
1532627577331,0,0,-2,-2,-2,0,-3,-5
1532627577336,-1,-2,-1,-1,-1,-2,0,-1
1532627577341,-1,-1,-1,0,-1,-1,1,-2
1532627577346,0,0,0,0,-1,1,0,-1
1532627577351,0,-1,-2,-1,-1,1,0,1
1532627577356,-1,-1,0,-1,-1,1,1,2
1532627577361,-3,-1,-1,-1,-3,0,-2,-4
1532627577366,0,0,0,0,-1,-3,1,0
1532627577371,-2,0,-2,1,-1,-1,-1,-3
1532627577376,0,-1,-1,-2,-1,-2,-3,-2
1532627577381,-3,-2,1,1,0,0,-3,-3
1532627577386,1,0,-2,-2,0,-1,0,11
1532627577391,0,-1,-2,-1,1,-2,-1,-2
1532627577396,0,1,-2,0,-2,0,-1,0
1532627577401,-2,-2,-1,-1,-1,-2,-4,-2
1532627577406,-1,-1,-3,0,1,0,-1,-2
1532627577411,-2,-2,1,1,-1,-1,0,0
1532627577416,-1,-2,0,1,1,-3,-1,-1
1532627577421,0,1,-1,-3,-2,-1,-1,0
1532627577426,-1,-3,-1,-1,-2,0,0,-3
1532627577431,-2,-2,1,-2,-1,-1,0,-2
1532627577436,-1,0,-3,-2,-2,-2,0,-4
1532627577441,0,-1,0,1,1,0,0,-1
1532627577446,-1,1,-1,-3,1,0,0,-3
1532627577451,0,0,0,-1,0,-2,0,-1
1532627577456,0,-1,0,-2,-1,-2,-2,0
1532627577461,0,-1,-1,-1,-1,-2,1,-2
1532627577466,1,-1,-2,1,-1,0,-1,6
1532627577471,0,0,0,0,1,0,0,-1
1532627577476,-1,-1,0,0,-1,2,-2,-3
1532627577481,0,-1,-1,0,-1,-1,1,-1
1532627577486,0,-1,0,-2,-1,1,0,-5
1532627577491,-2,-1,-1,1,-3,0,-2,-1
1532627577496,0,-1,0,2,0,0,1,1
1532627577501,-1,1,-1,0,1,-1,-1,0
1532627577506,0,-1,0,1,0,0,0,-1
1532627577511,-2,-2,0,0,-1,0,-3,-3
1532627577516,-2,0,0,-2,-3,-1,0,-2
1532627577521,-1,-2,-2,-1,-1,-1,-2,0
1532627577526,-2,-1,-2,0,-1,-3,0,-2
1532627577531,2,0,-3,-1,-1,0,0,1
1532627577536,1,0,-1,-1,0,-1,-1,-1
1532627577541,-1,-1,0,-1,1,0,0,-2
1532627577546,-1,-2,0,1,0,0,-2,-3
1532627577551,-1,-1,1,-2,-1,0,-1,-4
1532627577556,1,1,-2,-1,0,0,1,9
1532627577561,0,-1,-2,-1,0,0,0,0
1532627577566,-2,2,-1,-2,-1,-2,-2,-3
1532627577571,-1,-2,-1,-1,0,1,-2,-4
1532627577576,-1,-2,-2,-2,-1,0,-1,-2
1532627577581,0,-2,-2,-2,-1,0,1,0
1532627577586,-2,-1,-2,0,0,1,0,-3
1532627577591,1,0,0,0,1,-2,0,1
1532627577596,-2,-1,0,-2,-2,-2,-2,-2
1532627577601,1,1,0,-1,-1,0,-2,2
1532627577606,0,0,0,-1,-1,-2,-1,-2
1532627577611,0,0,-2,-2,0,-2,0,1
1532627577616,0,0,-1,-1,1,1,0,-1
1532627577621,0,0,0,0,-1,-1,0,-1
1532627577626,-2,-1,-1,-1,1,-1,-1,0
1532627577631,-1,0,-2,0,1,-2,1,-1
1532627577636,-1,-1,-2,0,-1,0,0,1
1532627577641,-1,-2,0,-2,1,-1,-1,-2
1532627577646,-1,0,0,-1,-1,0,0,-1
1532627577651,-2,-2,0,-2,-1,1,-1,-1
1532627577656,-1,0,-1,-1,1,-1,-1,-3
1532627577661,-2,0,0,-2,-2,1,0,-3
1532627577666,0,-2,-1,-1,-1,-1,0,2
1532627577671,-1,0,-2,0,0,1,0,1
1532627577676,0,-2,-2,0,-2,-3,-1,-1
1532627577681,0,-1,-1,1,0,-1,1,1
1532627577686,-2,-2,-1,-1,0,-1,-1,-3
1532627577691,-1,-1,0,-2,-1,-1,-1,-2
1532627577696,-1,-2,-1,0,0,-2,-1,0
1532627577701,0,0,-1,0,-1,1,-1,-1
1532627577706,1,0,-1,0,0,0,0,-1
1532627577711,-1,-1,-4,-1,0,-1,1,1
1532627577716,-1,0,-2,-1,0,0,-1,-2
1532627577721,-1,-1,-2,0,-2,-2,0,0
1532627577726,-1,-2,-1,-2,-1,0,-3,0
1532627577731,-2,-1,0,1,-1,-2,-3,-2
1532627577736,-1,-2,0,0,3,-1,1,-4
1532627577741,1,0,-1,0,0,1,-1,3
1532627577746,-2,0,-2,-2,0,-1,-1,0
1532627577751,0,-2,-2,-2,-3,-1,0,0
1532627577756,-1,0,-1,-1,0,1,-1,-4
1532627577761,-1,-1,0,-1,0,-2,-2,-2
1532627577766,0,-2,-2,-1,-2,0,2,-1
1532627577771,-1,-1,-2,0,-1,-1,-3,0
1532627577776,-2,-1,-2,-1,0,0,0,1
1532627577781,0,-1,-1,0,1,0,0,1
1532627577786,0,-2,-1,1,-2,1,-3,1
1532627577791,-3,-1,-1,-3,0,0,0,-2
1532627577796,0,0,2,0,-2,0,-2,0
1532627577801,-4,-2,-1,-3,-1,-1,-3,-4
1532627577806,1,0,-1,0,0,-3,0,1
1532627577811,-1,0,0,0,0,-1,-1,1
1532627577816,1,1,0,0,-1,-1,-3,0
1532627577821,0,-1,-1,0,-1,0,0,-2
1532627577826,0,-1,0,-1,-2,0,-1,-1
1532627577831,0,0,0,-1,0,1,0,-1
1532627577836,-3,1,-2,0,-2,-1,1,-4
1532627577841,2,0,-1,0,1,-1,0,4
1532627577846,0,-2,0,-1,-1,-3,-2,-2
1532627577851,0,0,-1,0,0,-2,1,0
1532627577856,-3,-2,-2,-1,-1,0,-2,-2
1532627577861,0,1,1,0,-2,-2,0,-2
1532627577866,-1,0,0,0,0,2,-1,0
1532627577871,-1,0,0,0,-1,1,-1,0
1532627577876,-1,1,-1,-1,0,-1,0,0
1532627577881,-1,-3,-1,-1,-1,0,-2,-2
1532627577886,-1,0,0,0,0,-1,2,0
1532627577891,-1,-2,0,0,-1,1,0,-2
1532627577896,1,0,-1,1,-2,0,0,1
1532627577901,-2,0,-3,-2,-1,-2,0,1
1532627577906,-1,0,-1,-3,-2,0,-1,-3
1532627577911,0,1,-2,-2,-1,0,1,0
1532627577916,0,-2,0,0,2,-1,0,0
1532627577921,0,-2,-1,0,-1,0,-1,-1
1532627577926,-1,-1,-1,0,-2,-1,0,-1
1532627577931,-3,-2,0,0,-1,0,-3,-4
1532627577936,2,-2,-1,-1,0,0,0,8
1532627577941,-3,-1,-2,-1,0,-2,-1,-4
1532627577946,-1,-1,-2,0,-2,0,-1,0
1532627577951,-1,-1,-1,0,1,0,-1,0
1532627577956,-1,-2,-2,0,1,-2,0,-3
1532627577961,-1,-1,0,-1,-1,-2,-1,0
1532627577966,-1,0,-2,1,6,-2,-2,-1
1532627577971,0,0,0,-3,-1,0,2,0
1532627577976,-1,0,-1,1,2,0,-1,-3
1532627577981,1,0,-2,-2,-8,-1,-1,0
1532627577986,-2,-2,1,1,0,-2,-3,-4
1532627577991,0,-1,-2,-2,0,-2,-2,-2
1532627577996,0,-1,1,-3,1,-1,-2,-2
1532627578001,0,0,-1,1,2,0,0,-1
1532627578006,0,0,-1,-2,2,2,0,1
1532627578011,0,-2,0,1,-1,0,-1,0
1532627578016,-1,-1,-1,-3,-3,-2,-1,-2
1532627578021,-1,-2,-1,1,2,0,0,-2
1532627578026,1,0,-1,0,-2,0,1,1
1532627578031,-1,0,-1,0,2,-3,-1,-1
1532627578036,-1,0,-2,-2,5,4,0,-1
1532627578041,0,-1,0,11,14,-5,-2,1
1532627578046,-1,-3,-4,-23,-19,2,2,1
1532627578051,-1,0,-1,8,-2,0,-3,-2
1532627578056,-1,0,0,8,16,-3,-5,-2
1532627578061,-1,1,-1,-7,-27,-2,2,-1
1532627578066,-1,2,4,25,27,-14,-6,-2
1532627578071,0,-1,-10,-35,-34,22,17,2
1532627578076,-3,-3,-1,2,-7,-4,4,-2
1532627578081,-2,-2,-1,-2,-2,3,5,1
1532627578086,1,-1,2,19,16,-25,-4,-1
1532627578091,-2,-2,-2,-6,6,76,-6,-2
1532627578096,-2,-1,-3,-14,-31,-97,3,-1
1532627578101,-1,0,2,17,50,51,21,3
1532627578106,5,2,-2,-18,-52,21,40,13
1532627578111,-1,0,-1,3,1,-95,-13,-7
1532627578116,0,0,1,3,4,33,21,0
1532627578121,-3,-2,-1,1,10,-3,-3,-4
1532627578126,-4,-2,-4,-11,-10,3,11,-2
1532627578131,0,-1,-1,5,5,-31,2,-2
1532627578136,-3,-1,-3,-3,-8,37,-44,-2
1532627578141,0,-1,-2,-6,-6,-8,1,-3
1532627578146,-2,-2,-1,2,10,-9,-13,-2
1532627578151,-2,-1,0,-1,-11,26,21,0
1532627578156,-1,0,-2,1,5,-45,-36,-1
1532627578161,2,0,-4,-6,-6,61,73,7
1532627578166,-12,-1,-3,-3,3,42,-60,-13
1532627578171,7,2,1,8,11,-63,-9,0
1532627578176,-3,0,2,-6,-9,13,-21,1
1532627578181,-11,-1,0,-2,0,-41,24,0
1532627578186,21,0,-2,2,8,-45,-66,5
1532627578191,-5,-4,-1,5,4,62,17,0
1532627578196,1,-1,-4,-1,4,45,8,-2
1532627578201,-6,-3,-3,-8,-17,-71,17,0
1532627578206,-14,-3,6,-2,1,-29,1,-4
1532627578211,-1,0,-10,-1,3,43,-45,3
1532627578216,-5,0,-2,-4,-11,-41,-17,-2
1532627578221,14,1,2,2,15,92,-24,10
1532627578226,-2,-5,-7,-4,-6,-7,54,-1
1532627578231,0,-3,6,-1,2,-1,-16,-1
1532627578236,-2,-2,-3,3,5,-9,16,-8
1532627578241,-36,-6,-2,-5,-15,-28,-32,-8
1532627578246,35,6,1,4,5,17,37,6
1532627578251,13,1,0,2,0,-16,-9,0
1532627578256,17,1,-3,-4,-8,-5,1,-3
1532627578261,20,0,8,1,3,-62,-14,3
1532627578266,-55,-8,-6,-6,7,78,-77,-23
1532627578271,7,-1,4,5,9,49,52,11
1532627578276,14,-1,-4,-5,0,-24,36,16
1532627578281,-42,-1,0,-3,-15,-34,59,-17
1532627578286,21,2,-8,-2,4,22,-69,-13
1532627578291,6,7,-1,1,-3,-41,-1,-26
1532627578296,-1,-4,-3,5,5,12,18,-15
1532627578301,-1,1,1,-3,-14,-4,-42,-13
1532627578306,23,8,3,7,12,31,63,20
1532627578311,-11,1,3,-1,-3,-1,58,-13
1532627578316,-29,-4,-3,-1,5,-16,-10,-2
1532627578321,-1,-5,-3,-1,-3,6,-62,1
1532627578326,-72,2,-10,-1,-10,-75,-35,-10
1532627578331,94,1,-10,3,-1,-29,-26,15
1532627578336,43,11,7,4,19,120,91,14
1532627578341,-99,-18,-5,-5,-2,-20,-59,-4
1532627578346,107,11,10,4,-1,10,13,53
1532627578351,-50,-5,1,-12,-16,-59,-86,-20
1532627578356,-96,-5,1,0,-4,-76,48,-16
1532627578361,75,12,-14,12,20,39,-30,19
1532627578366,-1,-8,5,-9,4,28,29,10
1532627578371,-36,-7,-15,-4,-17,-41,23,-3
1532627578376,54,4,8,6,8,10,-19,32
1532627578381,44,10,8,-2,-2,20,88,-1
1532627578386,-121,-42,-10,-7,-13,-72,-72,-31
1532627578391,74,-1,7,0,-3,45,-100,-42
1532627578396,-61,1,-5,-15,-10,-66,-61,-1
1532627578401,87,17,-6,-5,-24,-51,42,17
1532627578406,-98,2,2,0,17,32,19,-64
1532627578411,5,-2,7,0,17,25,5,20
1532627578416,-3,-9,0,4,-9,10,-14,-15
1532627578421,-13,-6,0,-4,-3,-5,9,4
1532627578426,30,6,1,-4,-12,-44,-75,8
1532627578431,-31,-5,-7,3,13,21,23,24
1532627578436,-6,1,-1,-2,-15,-13,-89,-20
1532627578441,-37,-2,4,10,13,22,96,28
1532627578446,42,1,-2,-2,14,40,-49,-4
1532627578451,-4,1,5,2,-7,-9,54,18
1532627578456,-50,-8,-3,-4,2,44,9,-11
1532627578461,-2,-5,-1,-11,-19,13,-128,-29
1532627578466,-11,-1,0,-1,-5,14,76,34
1532627578471,-28,-5,0,0,15,31,-34,3
1532627578476,3,-3,-1,-6,-12,-40,-15,-39
1532627578481,-2,-1,5,11,12,-4,40,2
1532627578486,-21,1,-2,1,-2,13,35,-27
1532627578491,-34,1,-2,-6,-8,-13,-6,12
1532627578496,64,1,0,2,9,-9,31,19
1532627578501,-20,-7,-4,-6,8,49,-30,-6
1532627578506,32,3,1,1,-16,-76,-42,-45
1532627578511,-19,2,0,-2,-25,-56,9,-7
1532627578516,23,3,-1,0,25,93,27,55
1532627578521,8,3,-1,1,23,22,48,13
1532627578526,38,7,6,7,-26,-82,15,82
1532627578531,-11,0,-2,-1,-13,7,-33,-30
1532627578536,-7,-2,-2,-3,-4,22,-24,-8
1532627578541,-4,-3,-6,-11,2,28,-42,-20
1532627578546,-10,-2,-4,-2,15,44,59,-25
1532627578551,43,3,1,4,8,-20,-3,23
1532627578556,10,-1,-1,0,-6,-15,22,-1
1532627578561,-7,8,-13,-9,-7,-12,-41,-17
1532627578566,17,1,-1,1,1,-7,59,6
1532627578571,-10,3,4,3,5,0,-21,-2
1532627578576,4,-4,-3,1,-2,3,-3,15
1532627578581,2,-5,3,3,-1,-21,-33,-17
1532627578586,-8,-2,-3,-4,-6,-3,0,0
1532627578591,-12,2,-5,-2,7,25,-26,-20
1532627578596,5,1,2,-1,-2,-23,-10,-6
1532627578601,5,1,1,3,-8,-27,-25,11
1532627578606,-16,-1,-2,-2,14,19,27,7
1532627578611,-8,-11,-2,-4,4,15,26,-3
1532627578616,7,1,-3,0,-4,-6,7,-23
1532627578621,-18,-6,1,0,-6,-15,-36,-23
1532627578626,-27,-5,-3,0,-7,12,33,25
1532627578631,-34,0,3,2,1,9,64,36
1532627578636,-49,-4,-1,0,-6,-16,-58,-3
1532627578641,-18,-1,-1,0,-4,-14,-3,-3
1532627578646,1,2,2,1,5,18,-37,-20
1532627578651,-12,2,0,0,-4,-5,1,-3
1532627578656,9,2,0,-1,-5,-1,-20,12
1532627578661,5,-1,1,1,5,11,-1,-3
1532627578666,19,3,1,3,9,2,-22,-5
1532627578671,26,-2,-4,-7,-12,-14,-26,11
1532627578676,19,-2,-2,0,6,-1,11,-3
1532627578681,38,1,4,1,16,28,-20,8
1532627578686,33,1,-1,-4,-8,16,3,9
1532627578691,18,-3,6,7,8,3,-100,-4
1532627578696,11,-1,-7,-9,-19,-27,-69,-7
1532627578701,3,-3,5,-1,-8,-25,-38,-5
1532627578706,5,-1,-1,-1,4,2,-26,-25
1532627578711,2,4,10,2,8,5,51,11
1532627578716,1,-2,0,1,10,32,67,7
1532627578721,8,2,-1,-2,-10,-4,58,-13
1532627578726,-19,-7,-6,-1,-2,-11,8,23
1532627578731,8,4,2,0,8,2,49,-29
1532627578736,7,5,-7,1,0,-18,26,26
1532627578741,0,-1,-4,-3,-2,4,20,-4
1532627578746,7,-2,0,1,-8,0,17,-10
1532627578751,-12,-6,-5,0,5,14,31,21
1532627578756,0,-1,3,0,7,10,-7,-8
1532627578761,2,1,4,2,-4,-8,13,3
1532627578766,12,-2,8,0,-5,-4,-3,3
1532627578771,-4,-5,-22,-12,-6,-4,-7,-7
1532627578776,1,-1,-3,0,2,11,14,-17
1532627578781,-5,-1,0,0,-3,-10,-7,17
1532627578786,2,-1,1,2,0,-12,-4,-7
1532627578791,-4,1,-2,-2,2,5,3,-5
1532627578796,-4,-2,2,-1,-5,-1,1,-7
1532627578801,-3,-2,-2,5,8,8,37,17
1532627578806,1,2,0,-12,-8,13,-15,-12
1532627578811,-2,-3,3,2,4,-12,-33,1
1532627578816,-9,-1,1,1,-9,-34,12,-10
1532627578821,-6,-2,1,-3,-4,-14,-18,2
1532627578826,-2,-3,-5,1,4,10,7,-7
1532627578831,-4,2,3,-1,-4,6,35,3
1532627578836,-3,-7,18,7,20,47,-6,-8
1532627578841,-1,1,-32,-17,-47,-62,-7,3
1532627578846,3,2,0,1,27,4,29,3
1532627578851,-3,-4,-5,0,-12,-11,13,-3
1532627578856,-1,-2,-2,2,7,21,-2,9
1532627578861,-4,-3,6,3,3,12,19,-4
1532627578866,-1,3,0,0,-5,-11,-31,5
1532627578871,-2,2,0,3,4,0,-15,-7
1532627578876,0,2,1,-7,-1,-8,-12,-1
1532627578881,-7,-4,0,-9,4,24,-22,-8
1532627578886,1,0,-5,0,-27,-36,-7,1
1532627578891,-1,0,2,5,12,20,4,5
1532627578896,-1,0,-2,3,-14,-10,-32,-12
1532627578901,-3,-2,0,5,20,5,-17,-1
1532627578906,3,1,-3,-2,4,25,41,3
1532627578911,-4,-3,-2,-7,-19,-12,26,-5
1532627578916,1,2,-1,2,26,-3,-69,0
1532627578921,1,-1,1,-6,-8,8,-24,6
1532627578926,-1,1,6,9,7,0,-1,1
1532627578931,0,-3,-8,-7,-13,-9,5,-6
1532627578936,-3,0,-3,-2,-3,-3,32,2
1532627578941,-2,-2,9,4,0,-12,14,-2
1532627578946,-1,-2,-9,-4,-2,5,-5,-1
1532627578951,1,2,3,0,5,5,-16,-2
1532627578956,-3,-3,-8,-4,-3,10,15,3
1532627578961,-2,-3,-3,4,5,3,40,-1
1532627578966,-1,1,-1,-7,-9,-10,-24,-4
1532627578971,-2,2,3,2,8,30,-25,-3
1532627578976,1,0,-4,0,-6,-16,0,2
1532627578981,0,1,1,2,1,-6,-11,-1
1532627578986,0,-2,0,-1,-3,-6,-12,5
1532627578991,1,1,-3,3,7,-5,46,0
1532627578996,-2,-1,2,-4,-7,-12,4,-4
1532627579001,-5,-1,-4,-3,-1,7,-17,2
1532627579006,-3,0,0,1,0,-7,18,-1
1532627579011,-3,-3,-1,-2,-3,-17,-9,0
1532627579016,-3,0,-1,2,-3,3,16,6
1532627579021,-1,0,0,-1,-4,-13,-5,-11
1532627579026,1,-1,-1,-1,-2,10,61,4
1532627579031,-9,0,-2,-2,-5,-2,7,-9
1532627579036,5,-7,-2,-4,-10,-12,-39,-5
1532627579041,-9,-2,-9,-9,-3,-11,-30,-19
1532627579046,1,4,2,-4,-1,8,-16,-2
1532627579051,0,-2,3,0,1,-4,3,2
1532627579056,-1,-2,-1,-1,3,9,1,2
1532627579061,1,0,1,3,-3,4,26,5
1532627579066,-5,-2,-1,2,1,2,-17,-2
1532627579071,-17,0,1,-2,0,-14,-44,-4
1532627579076,-11,2,-1,-1,-2,9,27,-2
1532627579081,0,-1,2,2,4,7,-14,5
1532627579086,4,-1,1,1,2,-5,-9,-4
1532627579091,8,1,-1,0,1,5,5,6
1532627579096,3,-2,-1,2,0,5,4,-3
1532627579101,6,1,1,3,4,2,3,3
1532627579106,0,-1,0,0,2,-5,7,2
1532627579111,3,-5,-3,-1,-5,1,-7,-4
1532627579116,2,1,-2,-1,0,-1,0,1
1532627579121,7,0,2,-1,1,-2,-9,-1
1532627579126,4,0,-1,-1,-3,3,-38,-2
1532627579131,5,0,-1,-2,2,-4,-18,-1
1532627579136,4,-1,2,1,0,0,26,-2
1532627579141,2,0,0,1,2,11,14,3
1532627579146,1,-4,-1,-2,0,1,-10,2
1532627579151,4,-1,0,-2,-2,-1,5,1
1532627579156,-2,-1,-2,0,-2,1,-8,-3
1532627579161,-3,-2,0,-2,-1,-3,8,0
1532627579166,-3,0,-1,0,0,-2,3,-1
1532627579171,0,-1,-2,1,-3,-4,-6,-2
1532627579176,-1,-2,0,-2,0,1,4,-2
1532627579181,-1,1,-1,2,-1,2,-2,3
1532627579186,-1,-1,-1,-2,-1,-4,37,-4
1532627579191,0,-1,0,0,2,2,27,0
1532627579196,-1,0,1,1,2,0,21,-4
1532627579201,0,-1,-2,-1,0,-5,-6,-1
1532627579206,-1,-2,-2,2,0,1,-25,-3
1532627579211,1,-1,0,0,-1,-2,-33,0
1532627579216,-1,0,0,-2,0,-1,-32,-1
1532627579221,-1,0,0,-1,-1,0,-11,0
1532627579226,0,-1,-2,0,1,0,-8,-1
1532627579231,-1,0,0,-1,-1,-2,-9,-2
1532627579236,0,1,-2,1,-1,-2,-7,1
1532627579241,1,-2,-1,-1,0,2,8,0
1532627579246,-1,-2,-2,-2,-1,-1,-6,-1
1532627579251,-1,-1,-1,-2,-2,-2,-6,-4
1532627579256,3,1,0,1,2,6,78,10
1532627579261,-1,-1,0,-1,1,-4,-25,-1
1532627579266,-2,-1,-3,0,0,-3,-12,-3
1532627579271,-1,-2,-2,-1,1,-2,9,-3
1532627579276,1,-1,-1,-1,-1,0,-39,-3
1532627579281,0,2,0,-1,-1,-1,13,3
1532627579286,-2,0,0,-1,1,-2,11,0
1532627579291,-1,1,-1,-1,1,1,2,1
1532627579296,-2,-2,-2,-1,-3,-5,-13,-4
1532627579301,-1,-1,-1,0,1,1,-6,-3
1532627579306,-2,-2,0,-1,-3,-2,-6,-1
1532627579311,0,-1,0,0,0,2,21,-2
1532627579316,-2,-1,-1,-2,-2,-2,-17,0
1532627579321,-2,-1,-1,-1,0,-4,30,-7
1532627579326,1,-1,2,0,-1,5,-24,6
1532627579331,-1,-2,-1,-3,0,-6,3,-3
1532627579336,-3,-1,-3,0,-1,-1,3,-2
1532627579341,0,0,-1,0,-2,0,0,-1
1532627579346,-2,-1,-1,-1,1,0,-12,-4
1532627579351,-1,0,-1,0,0,-1,-7,-2
1532627579356,1,1,0,-1,1,5,-9,-4
1532627579361,-2,0,-2,-1,-2,-10,6,-7
1532627579366,-1,-1,-2,1,0,-1,14,-2
1532627579371,-1,0,-1,-2,-1,-4,-13,-1
1532627579376,-2,-1,0,-1,-3,4,33,8
1532627579381,-4,-1,-2,-1,-1,-2,-30,-5
1532627579386,-3,-1,-1,-2,0,0,15,-1
1532627579391,0,0,0,1,0,3,-16,2
1532627579396,1,0,-1,0,0,0,65,7
1532627579401,-1,-1,1,-1,2,7,-8,1
1532627579406,3,0,-3,-2,-2,-2,-4,5
1532627579411,0,-1,0,-2,-1,-1,0,-3
1532627579416,-8,-2,-1,0,0,-3,-22,-5
1532627579421,0,-2,-3,-1,-2,0,-2,-1
1532627579426,-2,-2,1,-1,-1,3,52,1
1532627579431,0,-1,0,1,0,1,-24,1
1532627579436,5,1,1,0,-1,4,-8,2
1532627579441,-3,-3,-2,-1,-2,1,21,0
1532627579446,2,0,0,-1,1,-4,-22,3
1532627579451,1,1,-1,0,-1,-4,-21,-1
1532627579456,5,0,-2,0,1,-2,38,2
1532627579461,-5,-4,0,-2,3,2,-7,0
1532627579466,-10,-3,-1,0,0,0,7,-18
1532627579471,2,0,0,1,-1,1,3,8
1532627579476,-1,-3,-1,-1,0,-3,-19,-2
1532627579481,5,2,-1,-2,-3,-1,4,3
1532627579486,4,1,0,0,0,-5,-46,2
1532627579491,-4,-1,0,0,3,15,61,6
1532627579496,-7,-2,-3,-4,-1,-3,-34,-13
1532627579501,3,0,-2,-1,-3,-3,-18,5
1532627579506,-6,0,-2,-1,-3,-4,-4,-7
1532627579511,0,-3,-3,-1,-2,-4,0,0
1532627579516,0,-2,0,-1,-1,-1,-13,0
1532627579521,-1,-3,0,-1,0,3,2,-3
1532627579526,2,0,-1,-1,1,-3,6,3
1532627579531,0,0,-1,-3,-2,-5,-15,-3
1532627579536,0,0,-4,2,-1,-1,-1,-2
1532627579541,-3,-2,0,0,-2,-2,-6,-1
1532627579546,-1,-3,-1,-2,0,3,-1,-2
1532627579551,0,0,-1,-1,-1,-2,2,-2
1532627579556,0,-1,0,0,0,-2,-23,2
1532627579561,-3,1,-2,0,2,-2,-6,-4
1532627579566,3,1,1,0,-2,-1,-4,1
1532627579571,-3,-2,-2,-3,-3,-3,-54,-7
1532627579576,2,1,-1,-2,-3,-5,-9,0
1532627579581,3,1,0,3,-1,0,-4,3
1532627579586,-7,-2,0,0,3,3,16,-1
1532627579591,-1,-2,-2,0,-2,-5,-21,-4
1532627579596,-4,0,-1,0,0,3,-4,-1
1532627579601,0,-1,-2,-2,-1,10,7,2
1532627579606,0,-2,-2,0,-2,-19,-15,-1
1532627579611,0,-2,0,0,1,14,21,0
1532627579616,0,0,-1,-2,0,-7,3,1
1532627579621,-1,-1,0,0,1,12,13,-1
1532627579626,1,0,0,-1,-6,-15,-7,-1
1532627579631,-1,2,1,0,5,33,11,-1
1532627579636,2,0,0,-1,-8,-41,-8,4
1532627579641,-4,-1,0,1,2,6,14,-2
1532627579646,-2,-2,-3,-1,-1,-6,-63,-15
1532627579651,-6,-1,-2,0,0,-5,28,-5
1532627579656,0,-1,0,0,8,14,-71,-6
1532627579661,1,-1,-1,-1,-3,-15,13,0
1532627579666,2,-1,-1,0,1,16,46,12
1532627579671,-2,-2,0,2,0,-16,-22,-14
1532627579676,-1,0,0,-1,3,1,-63,-12
1532627579681,0,-2,-2,-1,0,3,49,4
1532627579686,2,1,0,-1,0,-5,32,7
1532627579691,1,0,-1,-2,-5,-6,19,-3
1532627579696,1,-1,-2,-1,-1,1,19,14
1532627579701,0,-1,-1,0,1,4,-25,1
1532627579706,-2,-1,-1,-2,-2,9,13,-5
1532627579711,-7,-5,-4,-5,-3,-5,2,5
1532627579716,1,1,-3,-3,-4,3,34,3
1532627579721,0,1,1,4,10,13,-25,9
1532627579726,0,-1,0,1,-5,-13,-46,-9
1532627579731,5,2,1,1,1,-4,74,21
1532627579736,0,-2,-2,-1,2,21,-34,-8
1532627579741,-2,-1,-2,-1,-9,-26,-20,-11
1532627579746,-6,-3,0,1,4,12,9,5
1532627579751,-1,-1,-1,-3,0,-4,-18,-3
1532627579756,-5,-2,0,1,0,4,100,5
1532627579761,4,1,-2,-2,-2,-7,-12,2
1532627579766,2,0,-1,-1,0,-5,16,0
1532627579771,-5,-1,-2,-3,-3,-12,-35,-8
1532627579776,-7,-3,0,2,2,14,14,-1
1532627579781,1,0,0,-3,0,-4,-19,-3
1532627579786,-3,-2,-4,-1,-1,1,5,-5
1532627579791,5,0,0,1,0,9,-23,2
1532627579796,-2,0,0,0,-4,-13,-33,-8
1532627579801,0,-2,-3,-1,-5,-1,25,2
1532627579806,1,1,1,0,1,4,-19,5
1532627579811,1,0,-1,-1,-2,-8,-23,-8
1532627579816,-5,-1,-2,-1,-3,-5,24,-6
1532627579821,-5,-2,0,-2,0,-3,-10,-2
1532627579826,6,3,2,1,4,10,99,9
1532627579831,-5,-2,-3,-2,-3,-12,-27,-12
1532627579836,-1,-2,-1,1,-1,-1,4,5
1532627579841,-1,0,-1,-1,0,9,53,2
1532627579846,-6,-3,-4,-5,-1,-12,-50,-13
1532627579851,5,-1,0,1,-1,1,7,-3
1532627579856,-4,-1,0,-1,-3,-2,-29,5
1532627579861,-6,-4,-1,-2,-1,-1,-11,-5
1532627579866,-1,-1,1,0,1,1,-19,-5
1532627579871,1,0,-2,0,-1,0,-33,5
1532627579876,5,1,-2,0,-3,-1,-48,-1
1532627579881,-5,-2,1,0,-3,-2,-28,-10
1532627579886,-2,0,0,-1,-1,1,-9,0
1532627579891,2,-1,0,0,2,4,45,4
1532627579896,1,-2,-1,-4,-7,-7,17,-6
1532627579901,2,0,-1,-3,2,0,-5,2
1532627579906,5,-2,0,-1,-3,-3,-9,3
1532627579911,1,0,0,-2,0,2,15,3
1532627579916,0,0,-1,-2,-1,1,7,4
1532627579921,1,-1,1,-1,0,-4,-9,-1
1532627579926,-1,0,-2,0,3,-1,-15,-2
1532627579931,-1,-3,-1,-2,-2,-2,-7,-2
1532627579936,-2,-2,-1,-2,-1,-2,-22,0
1532627579941,-3,-2,-2,-2,-2,-1,-7,-2
1532627579946,0,-1,-1,0,2,0,-20,0
1532627579951,1,0,-2,0,-3,-1,13,2
1532627579956,4,0,-1,0,-1,2,8,5
1532627579961,-3,-2,1,-1,-1,-2,-1,-4
1532627579966,1,-2,0,0,-1,1,6,3
1532627579971,-2,1,1,-1,1,1,5,-2
1532627579976,1,-2,-1,-1,-3,1,-23,5
1532627579981,0,0,-3,0,-3,-3,25,5
1532627579986,1,-2,-2,-2,0,-2,-59,-3
1532627579991,-1,0,-1,-1,0,-2,23,-2
1532627579996,-2,-1,-2,0,-1,1,2,-4
1532627580001,0,-1,-1,1,0,-6,-18,-1
1532627580006,2,0,0,-1,1,3,34,3
1532627580011,-1,0,-1,-2,0,1,2,-1
1532627580016,-2,0,-2,-1,-2,-2,-35,-4
1532627580021,-2,-1,-2,-2,-1,-1,1,-2
1532627580026,4,1,0,-1,-2,-2,2,-2
1532627580031,0,-2,-4,-1,-2,5,7,5
1532627580036,-5,-1,-1,0,0,1,20,-6
1532627580041,0,0,-2,-3,0,1,-11,-2
1532627580046,-1,-1,-1,-1,1,1,-2,1
1532627580051,3,-1,0,1,-2,0,-10,4
1532627580056,-2,-2,-2,1,-1,-1,1,0
1532627580061,-5,-1,0,-1,-2,-3,-2,-5
1532627580066,-1,-1,0,1,-3,-4,2,-1
1532627580071,1,-1,-1,-2,-1,-1,-10,-5
1532627580076,1,-1,-1,-2,-1,1,17,0
1532627580081,0,-1,1,0,1,-1,-21,-1
1532627580086,-2,-2,0,-2,-1,1,-40,-5
1532627580091,1,-1,-1,-1,-2,-2,59,5
1532627580096,1,-1,0,1,1,1,3,2
1532627580101,-3,-1,-3,-1,-3,-1,-21,-6
1532627580106,-3,-2,-1,-3,-2,-3,5,-1
1532627580111,2,0,0,0,-1,-6,-49,-8
1532627580116,0,0,-1,-2,0,-1,-2,0
1532627580121,0,-1,-1,0,0,0,17,0
1532627580126,1,0,1,0,1,1,6,2
1532627580131,-2,0,0,-1,0,1,-14,-2
1532627580136,-1,0,0,-2,-1,0,17,1
1532627580141,4,0,0,1,-1,-2,-14,1
1532627580146,-4,-2,1,0,1,0,-25,-3
1532627580151,-4,-1,-1,1,-1,3,24,1
1532627580156,0,-2,0,-3,-1,-1,-9,-1
1532627580161,1,1,0,-1,-1,2,2,-1
1532627580166,3,0,-2,-1,-2,0,5,4
1532627580171,-4,-1,-2,-2,-1,-1,0,-3
1532627580176,2,-1,-1,-1,0,-2,-27,1
1532627580181,0,0,-1,-1,1,0,9,6
1532627580186,0,-2,-3,0,2,-1,30,2
1532627580191,0,1,0,2,2,8,41,5
1532627580196,-2,0,0,-2,-2,-1,-12,-2
1532627580201,3,0,-1,-2,-2,-1,-6,1
1532627580206,0,1,1,-3,0,0,1,2
1532627580211,-4,-1,-1,-1,-1,-3,-12,-4
1532627580216,0,1,0,1,1,3,-23,3
1532627580221,-1,-2,0,1,1,-1,1,-2
1532627580226,0,0,-1,1,0,-2,-28,-4
1532627580231,2,0,-3,-2,-1,0,-15,2
1532627580236,-2,-2,-2,-1,-1,-5,-10,-4
1532627580241,0,0,0,0,-1,-4,-18,-3
1532627580246,0,-1,-1,-2,-1,2,21,1
1532627580251,1,1,0,0,0,-3,-24,-3
1532627580256,-1,0,-2,1,-1,-4,8,0
1532627580261,-2,-2,-1,0,-1,2,6,3
1532627580266,-4,-2,-2,-1,-1,-3,-6,-3
1532627580271,-3,-2,-2,-1,-1,1,3,-2
1532627580276,0,-1,0,-2,1,-1,5,-3
1532627580281,-1,-2,-1,0,-1,3,28,7
1532627580286,0,0,-2,-1,0,-6,-39,-6
1532627580291,-3,-2,-2,-1,-2,-3,18,-3
1532627580296,1,-1,-2,-1,-2,-2,9,-1
1532627580301,-4,1,-1,0,0,1,-10,-3
1532627580306,-3,-2,0,-1,-2,0,-4,0
1532627580311,0,-2,-1,0,1,-1,-13,0
1532627580316,-2,0,-1,-1,-1,-1,8,-4
1532627580321,-3,-2,-1,-1,1,1,12,-3
1532627580326,-2,-2,-2,0,-3,-9,-11,-2
1532627580331,3,1,-1,-1,-2,-6,-34,-8
1532627580336,1,0,1,2,0,7,86,11
1532627580341,-2,-2,-3,-2,-1,-2,-17,-4
1532627580346,-1,1,0,-2,0,2,15,2
1532627580351,-4,-1,0,0,0,-1,-4,-5
1532627580356,-1,-2,1,-1,-2,-1,-22,-2
1532627580361,-2,-1,0,-2,-1,-1,-1,-5
1532627580366,3,-3,-3,1,-1,2,18,1
1532627580371,2,-1,-2,0,1,-1,-7,5
1532627580376,-3,0,-1,0,-1,0,-12,-5
1532627580381,-1,-2,-1,1,0,1,18,-1
1532627580386,-1,0,0,0,-1,-2,-23,-8
1532627580391,3,-1,-1,0,1,0,-35,-2
1532627580396,-4,-2,0,-2,-1,-3,1,5
1532627580401,-3,-3,-1,-1,-1,2,11,-2
1532627580406,-2,0,0,-1,-3,-2,7,-1
1532627580411,-1,-1,1,0,-2,1,0,-1
1532627580416,2,1,-2,0,1,2,-13,4
1532627580421,0,-1,-1,-1,1,-3,-7,1
1532627580426,1,-2,-1,-1,1,3,4,3
1532627580431,-1,-1,0,-1,-1,1,20,2
1532627580436,-4,-1,0,-2,-1,0,-11,-5
1532627580441,0,1,1,-1,-1,0,8,2
1532627580446,2,-1,0,1,2,3,4,4
1532627580451,-6,-2,-1,0,-3,-6,-59,-12
1532627580456,-5,-2,-2,-1,0,-8,-12,-9
1532627580461,2,-1,1,-1,0,1,6,1
1532627580466,2,1,0,-1,-1,-1,6,-1
1532627580471,4,-1,-2,-2,-3,0,-1,2
1532627580476,-3,-2,-1,-1,1,4,3,-3
1532627580481,-1,0,-1,-2,-2,-4,-11,-4
1532627580486,-1,-2,-1,-2,-1,-2,-4,0
1532627580491,0,0,0,0,0,0,36,1
1532627580496,-2,0,-1,1,-1,0,-27,-2
1532627580501,2,1,-1,0,-3,-4,-9,1
1532627580506,-3,-2,-1,0,-1,-3,-1,-3
1532627580511,0,1,-1,0,1,2,16,3
1532627580516,1,0,-1,-2,-1,-4,0,-8
1532627580521,-4,-1,0,-1,2,2,-33,-4
1532627580526,-2,-2,0,0,0,-3,9,0
1532627580531,1,-3,-2,-1,0,1,4,4
1532627580536,3,0,-2,-2,-2,0,3,4
1532627580541,0,-1,-2,-1,0,0,2,-3
1532627580546,0,0,-1,-2,-3,0,1,-3
1532627580551,-2,2,1,-1,1,0,15,1
1532627580556,-5,-2,0,-1,1,1,12,3
1532627580561,2,1,1,1,1,7,77,5
1532627580566,-2,-1,-1,-1,1,1,-15,-2
1532627580571,3,2,-1,-1,0,-3,-4,2
1532627580576,1,0,-1,1,-3,0,13,-10
1532627580581,-4,0,-3,-2,0,-5,-2,2
1532627580586,-1,0,-1,0,-2,1,-3,-2
1532627580591,-1,0,0,-2,-2,0,6,1
1532627580596,-1,-2,-1,0,0,3,-5,-1
1532627580601,0,-2,-1,-2,-2,0,0,-1
1532627580606,-1,-1,-2,-1,0,-1,1,-1
1532627580611,0,-2,-1,-1,2,-3,-8,-2
1532627580616,4,2,0,1,4,4,-16,4
1532627580621,0,-2,-1,-1,-1,-2,-10,-3
1532627580626,-1,0,1,0,1,5,21,5
1532627580631,-1,-1,-1,-2,0,-3,1,-3
1532627580636,-1,0,0,-1,-2,-4,-1,-1
1532627580641,0,0,-1,-1,-1,-2,-7,-1
1532627580646,-1,0,0,-1,0,-1,-1,4
1532627580651,-1,0,0,0,-2,-2,-19,3
1532627580656,1,-1,-1,-2,1,-2,6,1
1532627580661,-3,-2,-1,-1,0,-2,-19,-4
1532627580666,1,-2,0,0,-1,2,2,5
1532627580671,-2,-1,0,1,0,-4,-10,-3
1532627580676,1,-1,-1,1,-1,0,15,7
1532627580681,1,-1,-2,-2,-1,-1,-4,0
1532627580686,3,0,-1,-1,-1,-6,-9,-3
1532627580691,-5,-2,0,-1,0,2,0,-1
1532627580696,-4,-1,-1,0,-4,-3,-10,-11
1532627580701,0,-1,-2,-1,-1,-2,2,3
1532627580706,0,0,-2,-3,-1,-1,-9,-4
1532627580711,0,-2,-2,-1,-1,3,-4,0
1532627580716,-2,-3,-1,1,1,-1,-2,-2
1532627580721,0,-1,0,-2,-3,-1,-12,-6
1532627580726,0,0,0,-3,-1,-3,-14,0
1532627580731,-8,-3,-1,1,1,1,14,-4
1532627580736,-1,0,-1,-3,0,2,5,0
1532627580741,2,-1,1,2,-2,-2,-3,-7
1532627580746,2,-2,-1,1,1,0,-3,0
1532627580751,-1,-1,-1,-3,-3,-6,-6,-5
1532627580756,-1,-1,-1,-2,-1,1,10,4
1532627580761,-1,0,2,0,-2,-1,-3,2
1532627580766,-2,-1,-1,-1,-2,-3,-22,-5
1532627580771,4,0,-1,-1,0,0,13,7
1532627580776,1,-2,-1,-2,0,-2,-15,0
1532627580781,-1,0,-2,1,-1,-1,4,0
1532627580786,0,0,0,1,-1,-1,-16,-4
1532627580791,-3,-1,1,1,-2,2,30,2
1532627580796,-1,-1,-1,-1,-2,0,9,1
1532627580801,-1,0,0,-2,0,-2,-16,-2
1532627580806,-2,-1,0,0,2,1,35,1
1532627580811,2,-1,-1,-1,0,-2,-5,-3
1532627580816,2,-1,0,1,-2,1,16,0
1532627580821,-2,-3,-3,0,-2,-1,11,-1
1532627580826,0,-1,-1,-1,-2,-3,-7,0
1532627580831,2,-1,1,-2,0,0,-17,0
1532627580836,0,-1,0,-3,-1,-2,-7,-1
1532627580841,-2,0,-2,-1,0,2,10,-4
1532627580846,-6,-3,-1,-2,0,-3,-29,-5
1532627580851,-1,-1,-2,0,0,-1,5,-1
1532627580856,0,-1,-2,1,-2,-2,-8,-1
1532627580861,2,0,-1,0,0,-1,-1,0
1532627580866,-2,1,-1,0,-2,-2,8,1
1532627580871,-1,0,-3,-2,-2,2,16,-2
1532627580876,-3,-2,-2,-1,0,1,-1,0
1532627580881,0,-1,0,-1,0,-2,-5,-1
1532627580886,-1,0,-1,2,-2,0,5,-2
1532627580891,-1,-1,0,0,0,-1,-3,-2
1532627580896,-1,1,0,-1,-2,-4,-23,-5
1532627580901,-2,-1,-3,-1,2,0,-4,-1
1532627580906,-1,-2,0,0,0,5,30,5
1532627580911,2,1,1,-1,0,-1,-8,-1
1532627580916,0,0,0,0,2,1,5,2
1532627580921,1,-1,-2,-1,0,-1,-23,0
1532627580926,2,0,-1,-1,-1,1,21,4
1532627580931,-1,0,-2,1,-1,-5,-17,-4
1532627580936,-1,-1,0,-1,1,-1,-10,-4
1532627580941,-2,-2,-1,-1,-1,-3,-1,3
1532627580946,2,-1,-3,0,-1,-1,19,-1
1532627580951,-1,0,-2,0,1,1,-2,-3
1532627580956,-3,-1,-1,1,0,-3,-6,-4
1532627580961,0,1,-1,-1,-1,-3,-11,2
1532627580966,-2,-1,-1,-2,-3,-1,-4,-6
1532627580971,0,-2,0,-1,1,-3,8,1
1532627580976,-1,-2,0,-1,-3,-1,5,1
1532627580981,0,-2,0,-1,0,1,-21,0
1532627580986,-3,0,0,0,-1,0,10,-3
1532627580991,-1,-2,-1,-2,0,1,-8,1
1532627580996,-2,-1,0,-2,-2,-1,5,-3
1532627581001,5,0,-1,0,0,1,-1,7
1532627581006,-1,-1,0,-2,0,-2,-15,1
1532627581011,-3,-2,-2,-2,-3,0,-2,-4
1532627581016,-1,0,-2,0,-1,1,12,2
1532627581021,-2,0,-1,-1,-2,-3,-10,-2
1532627581026,-1,-2,-2,0,2,0,1,-3
1532627581031,-1,1,1,0,-1,-3,-9,-2
1532627581036,3,0,-3,-3,0,2,21,6
1532627581041,-4,-1,0,1,0,5,29,-4
1532627581046,-1,-1,-2,0,0,2,7,1
1532627581051,2,-1,-1,-1,-4,-2,-23,1
1532627581056,1,0,-2,1,0,-4,0,2
1532627581061,-1,0,0,-2,-1,-1,12,0
1532627581066,-3,-2,-1,-1,-1,-3,-1,0
1532627581071,1,0,-1,-2,-1,3,5,2
1532627581076,1,0,-1,-1,1,0,-16,-2
1532627581081,0,-1,1,0,-1,0,0,0
1532627581086,1,-1,-1,-4,-2,-1,-2,0
1532627581091,0,-3,-1,0,-2,1,12,-2
1532627581096,-3,-1,-2,1,1,2,1,-5
1532627581101,-2,-2,0,-1,-1,-1,7,-3
1532627581106,1,0,1,0,-1,-1,-7,0
1532627581111,-3,-1,-2,-2,-1,-2,11,1
1532627581116,2,0,-1,-1,-2,-2,-42,4
1532627581121,-3,-3,-1,-3,0,0,-8,-2
1532627581126,-2,-1,-1,0,-1,-3,-15,-2
1532627581131,-2,0,-3,0,3,-1,-2,-1
1532627581136,-4,-1,-1,-1,1,-1,4,-4
1532627581141,5,2,-1,0,0,0,-3,3
1532627581146,-2,1,0,-1,0,1,-12,0
1532627581151,-3,-1,-2,-1,-2,0,-14,-4
1532627581156,0,-1,0,-1,-1,-1,5,-1
1532627581161,1,1,-1,0,-1,-2,-1,-3
1532627581166,1,-2,-1,0,-1,0,22,2
1532627581171,-2,-1,0,1,-2,-1,-11,-1
1532627581176,0,-1,0,0,-3,-2,6,1
1532627581181,-4,-1,-1,-1,0,-3,-16,-4
1532627581186,1,0,-1,0,-1,-2,7,2
1532627581191,2,-1,1,-1,0,-1,14,3
1532627581196,-1,-1,-1,-2,-2,-2,-12,-4
1532627581201,-2,-1,1,0,-2,-2,-21,-3
1532627581206,-1,-2,-2,-2,1,-2,-1,-1
1532627581211,0,-2,-3,-2,0,0,-2,-2
1532627581216,2,0,-1,-2,-1,4,16,1
1532627581221,-1,-2,0,0,0,-1,14,4
1532627581226,-4,-1,0,1,1,0,-21,-5
1532627581231,-3,-2,0,-1,-1,1,4,-1
1532627581236,-1,-2,-2,0,1,-5,-16,-4
1532627581241,3,-1,-2,0,-2,-1,2,0
1532627581246,-3,-1,0,-2,1,1,1,0
1532627581251,2,0,-2,1,-1,1,-1,2
1532627581256,-1,-2,-1,0,-2,-3,-1,2
1532627581261,-1,-1,0,-1,-2,0,16,1
1532627581266,-1,1,-1,-2,-2,-3,-27,-3
1532627581271,-1,0,0,-1,0,-3,-3,-3
1532627581276,-2,0,0,0,-2,-3,-15,-3
1532627581281,-1,-1,-1,-1,0,5,16,5
1532627581286,-2,-3,-2,0,-3,-7,-13,-10
1532627581291,0,-1,-3,-2,1,-1,-3,3
1532627581296,0,1,-2,-1,1,5,4,1
1532627581301,-3,-2,-2,-4,-3,-3,13,3
1532627581306,-1,0,0,-2,-1,3,-2,-2
1532627581311,2,-1,1,0,-1,-1,19,4
1532627581316,-2,-1,1,1,1,1,7,2
1532627581321,1,0,-2,2,0,-2,-23,1
1532627581326,-1,1,0,1,0,3,34,0
1532627581331,-3,-2,-1,-1,-1,-1,2,-7
1532627581336,-2,-1,1,-1,0,-1,0,-1
1532627581341,-2,-1,-1,0,0,0,-1,-2
1532627581346,3,0,-1,0,-2,2,-1,5
1532627581351,-1,0,-2,-1,-3,-2,-8,-7
1532627581356,0,-1,-2,0,0,-2,-10,3
1532627581361,1,1,-1,1,-1,2,12,2
1532627581366,-2,-2,-1,-1,0,2,13,2
1532627581371,-3,-1,0,-2,-2,-3,-16,-2
1532627581376,-2,-1,-2,-1,-3,1,3,-4
1532627581381,-2,-1,-1,0,-2,-5,-5,-8
1532627581386,1,-2,-1,-1,1,-1,5,1
1532627581391,2,1,0,-1,0,-2,-9,2
1532627581396,-1,0,-1,-2,-2,0,-25,-4
1532627581401,1,-2,0,-2,1,5,11,1
1532627581406,0,0,-1,1,0,-2,-3,-2
1532627581411,-1,-2,0,1,1,0,-8,-2
1532627581416,2,0,0,-2,2,-2,-27,3
1532627581421,-2,-1,-1,-1,-2,-3,-1,-5
1532627581426,1,0,-2,-2,0,2,-5,-3
1532627581431,-1,0,0,0,-2,-2,-14,-4
1532627581436,-5,-2,-2,0,-3,1,13,-5
1532627581441,0,0,-1,0,-1,0,13,5
1532627581446,1,-1,-1,0,-1,0,4,3
1532627581451,2,-1,0,-1,-1,-5,-28,-4
1532627581456,-3,0,-1,-2,0,3,31,-2
1532627581461,0,-3,-2,-2,2,-2,-8,-4
1532627581466,-1,0,-2,-1,-2,-1,-13,-4
1532627581471,0,0,-2,0,-1,4,22,4
1532627581476,2,-1,0,1,0,-3,-24,-5
1532627581481,-1,-1,1,0,0,1,-16,1
1532627581486,0,-2,0,1,1,4,8,7
1532627581491,-1,-1,-1,0,-3,1,38,2
1532627581496,0,-1,-1,-1,-1,-4,-13,-6
1532627581501,-4,-3,-2,-1,0,0,0,-4
1532627581506,3,-1,0,1,0,1,-9,3
1532627581511,-1,-2,0,-1,-2,-3,-15,-3
1532627581516,-3,-2,0,-1,0,-1,5,0
1532627581521,-3,1,-1,0,-2,0,1,-7
1532627581526,0,0,-1,-1,-1,-2,5,-2
1532627581531,0,-1,-2,1,2,1,-16,1
1532627581536,-1,-1,-1,-1,-1,2,35,1
1532627581541,0,-1,-1,-1,-1,-1,-6,-5
1532627581546,-2,-2,-1,-2,-3,-3,4,1
1532627581551,-3,-1,-1,0,1,-2,-4,2
1532627581556,3,-1,0,-2,-1,-1,24,1
1532627581561,-3,0,1,-1,0,-4,4,-5
1532627581566,-2,-1,-1,-1,-1,-4,-7,-4
1532627581571,0,-3,0,0,-1,2,7,4
1532627581576,-4,-2,0,1,-2,-1,-12,-1
1532627581581,-1,-3,-1,-1,-2,-1,10,-4
1532627581586,0,0,-2,1,-1,-4,0,1
1532627581591,-2,1,-2,-3,-2,0,8,2
1532627581596,0,0,-1,0,2,1,8,1
1532627581601,0,-1,-1,0,1,0,-3,2
1532627581606,-3,0,-1,-1,1,0,-1,-3
1532627581611,-1,0,0,0,-2,-3,-19,-4
1532627581616,2,0,0,-1,-1,0,-22,4
1532627581621,-5,-3,-3,-2,-1,1,17,-1
1532627581626,-1,-2,-2,-1,2,0,0,-3
1532627581631,-1,-1,0,-1,0,2,11,-1
1532627581636,2,-1,-1,-1,-1,-1,-12,-2
1532627581641,0,0,0,0,2,-1,-7,3
1532627581646,-2,-4,-1,-1,-1,0,-2,-3
1532627581651,-2,-2,-1,-1,0,0,8,0
1532627581656,2,0,-2,2,1,-1,-6,0
1532627581661,1,0,-1,-2,0,3,-7,-1
1532627581666,-7,-4,-1,-1,-1,-2,4,-10
1532627581671,1,-2,-1,0,2,-2,5,0
1532627581676,-2,0,-1,-2,-2,-2,-2,2
1532627581681,0,0,-3,-2,-1,-4,-14,-1
1532627581686,0,1,-2,0,-1,-2,-12,-4
1532627581691,-5,-1,-2,0,-2,-1,6,-4
1532627581696,-1,-2,0,1,-1,-4,-31,-5
1532627581701,3,1,1,1,-1,2,33,3
1532627581706,3,1,1,-2,0,1,-6,1
1532627581711,0,-1,-1,0,-4,-2,5,-1
1532627581716,-6,-1,-2,-1,0,-3,6,-4
1532627581721,0,-2,-1,-2,-1,-3,-7,-2
1532627581726,0,0,-1,-1,-1,0,1,2
1532627581731,2,1,-1,-2,-1,3,15,3
1532627581736,-1,-2,-1,-1,-2,3,3,5
1532627581741,0,0,-1,0,1,-1,-12,0
1532627581746,-3,-1,0,1,0,1,19,-4
1532627581751,1,-1,-1,-3,0,-1,-8,-2
1532627581756,-2,0,-2,-1,-1,0,14,-2
1532627581761,-1,-1,0,0,-1,0,-14,-1
1532627581766,3,1,-2,0,0,-1,14,8
1532627581771,-3,0,0,-1,1,0,-16,-4
1532627581776,1,-1,0,0,2,4,27,4
1532627581781,0,-1,-2,-1,0,-3,-9,-4
1532627581786,-1,-1,-1,-2,-2,-3,-14,-2
1532627581791,-1,-1,-2,-1,-1,-1,5,-3
1532627581796,2,-1,-2,-2,-3,-2,-1,3
1532627581801,-1,0,-1,1,-1,1,-6,4
1532627581806,-1,-3,-1,0,0,0,-6,0
1532627581811,0,0,-1,0,0,-1,-31,-4
1532627581816,0,0,-2,-1,2,-6,-14,-5
1532627581821,-1,-1,-1,-1,-1,-3,7,-1
1532627581826,1,-1,-1,-1,1,-1,-4,-1
1532627581831,-1,-2,0,-1,1,-2,4,0
1532627581836,0,-1,-1,0,0,-3,-16,0
1532627581841,-1,1,-1,0,-3,4,13,-2
1532627581846,-4,0,0,-3,-1,-2,-27,0
1532627581851,1,-1,-2,0,0,0,4,1
1532627581856,-2,-1,-1,1,0,-2,-6,-2
1532627581861,3,1,-2,0,0,3,24,1
1532627581866,0,0,-1,-1,-1,0,-3,5
1532627581871,-1,0,-2,0,-1,2,23,0
1532627581876,-3,-1,0,0,-1,-1,-20,-9
1532627581881,0,-2,-2,-2,0,-3,-15,2
1532627581886,-2,-1,-2,0,-1,3,0,-5
1532627581891,3,-1,0,-1,-1,-1,6,4
1532627581896,-1,-1,0,-1,-2,-1,13,-1
1532627581901,-1,-1,0,-1,0,2,19,-1
1532627581906,2,-2,1,1,-1,0,15,2
1532627581911,-1,-2,0,-1,-1,-1,-15,-3
1532627581916,0,-1,-1,-1,-1,2,9,3
1532627581921,2,-1,0,-2,-1,-1,-4,-3
1532627581926,-6,-1,-2,0,-1,-4,-28,-6
1532627581931,-5,-1,-2,0,0,1,2,0
1532627581936,4,-1,-2,-2,0,1,12,4
1532627581941,-1,-2,0,-1,-2,-1,-2,0
1532627581946,0,-2,0,0,-4,-2,-5,-2
1532627581951,-1,0,0,0,0,3,28,-1
1532627581956,0,0,-1,-3,1,-1,-5,-4
1532627581961,-3,0,0,-1,1,-1,-1,3
1532627581966,0,1,-1,-1,0,0,-12,-4
1532627581971,-3,-1,-1,-1,-1,-4,-2,0
1532627581976,-2,-1,-1,1,-1,0,18,0
1532627581981,1,-1,-1,-2,0,-2,-20,1
1532627581986,-3,0,-1,-1,0,1,15,2
1532627581991,-1,-1,-1,-1,-2,-1,-3,-3
1532627581996,0,-2,-1,0,-1,1,3,-1
1532627582001,-3,-1,-1,0,0,-6,-20,-4
1532627582006,1,1,-1,1,0,-3,-21,-2
1532627582011,2,0,0,-2,1,-3,-9,-2
1532627582016,0,-1,0,-1,1,-4,-3,0
1532627582021,-6,-2,-1,-1,-1,2,8,-2
1532627582026,0,-1,-1,-1,-3,0,4,-1
1532627582031,-3,-1,-2,0,0,0,12,-3
1532627582036,0,0,-2,0,0,0,-28,-2
1532627582041,-1,-2,-2,0,-2,-1,2,-7
1532627582046,-2,-2,-1,-2,-3,-7,22,0
1532627582051,1,0,0,1,0,-1,-10,1
1532627582056,-2,1,-1,-1,-2,1,11,-2
1532627582061,-2,-1,-2,1,0,2,0,1
1532627582066,-1,-1,-1,-1,-1,-1,5,-1
1532627582071,2,-1,-1,-1,0,-2,-3,1
1532627582076,-2,-1,-1,-2,-1,-3,-2,-4
1532627582081,-5,-1,-2,-2,-1,2,20,-1
1532627582086,-1,-1,-1,1,0,1,-2,-3
1532627582091,-2,-1,-1,-2,-1,-2,-12,6
1532627582096,2,-1,0,-3,0,-1,18,1
1532627582101,-1,-1,0,0,-2,-4,-19,-3
1532627582106,1,-1,-1,-2,-1,-2,-10,0
1532627582111,-2,-1,-1,0,1,1,-12,-3
1532627582116,-2,0,-1,-1,-1,1,6,1
1532627582121,1,-1,0,-1,-2,-1,26,1
1532627582126,1,1,0,-1,-3,-2,-27,-2
1532627582131,0,1,-1,-1,0,-1,-27,-3
1532627582136,-3,0,-1,0,1,1,3,0
1532627582141,2,-2,-3,0,0,-2,-13,2
1532627582146,0,0,-1,-2,0,-2,2,0
1532627582151,-1,-1,-1,-1,-2,-1,21,0
1532627582156,-4,-2,-2,0,-2,-7,-63,-5
1532627582161,3,0,-1,-1,1,2,22,4
1532627582166,-4,-1,-1,0,3,2,7,-1
1532627582171,-1,0,1,1,0,2,9,-5
1532627582176,1,0,1,0,0,0,6,0
1532627582181,0,0,-1,1,-1,-2,0,1
1532627582186,3,-1,-1,-1,0,0,1,2
1532627582191,1,0,-1,-1,0,-2,9,3
1532627582196,-2,-1,-2,-1,-3,1,-1,-1
1532627582201,2,0,1,0,-1,0,-7,0
1532627582206,-1,0,0,-1,1,4,24,-2
1532627582211,-3,-3,0,0,1,0,1,-3
1532627582216,-4,-2,-1,-2,1,-1,4,-1
1532627582221,-2,0,-1,-2,-2,-2,-21,-6
1532627582226,-1,0,0,-1,-2,-1,4,-1
1532627582231,1,-1,-2,-1,-2,-1,-1,1
1532627582236,-1,1,-2,-1,0,-1,13,1
1532627582241,2,-1,0,-1,0,-3,-23,0
1532627582246,-2,0,-1,0,3,6,16,3
1532627582251,-4,-2,-1,-1,-1,-2,-28,-11
1532627582256,0,-2,-1,0,-1,2,22,0
1532627582261,0,0,0,-1,2,2,-9,4
1532627582266,0,-1,-2,0,-1,-1,-20,0
1532627582271,4,0,-2,0,-2,-1,39,4
1532627582276,1,0,1,0,1,3,14,2
1532627582281,-2,-1,-1,-2,-1,-1,0,-5
1532627582286,-1,-1,-1,1,-3,-2,-3,-1
1532627582291,-4,-1,-1,0,0,-4,-15,-3
1532627582296,2,-1,1,-1,-1,2,1,2
1532627582301,0,0,0,-1,-1,1,7,0
1532627582306,-1,-2,-2,-3,-1,-6,-7,-6
1532627582311,0,0,0,0,-2,2,13,7
1532627582316,0,0,-2,-1,1,0,7,2
1532627582321,-3,-3,-2,0,1,-3,-25,-4
1532627582326,-7,-3,-1,-2,1,-1,23,0
1532627582331,2,0,-1,-3,1,1,1,-2
1532627582336,-3,-1,-1,-2,-1,-1,-3,-3
1532627582341,3,-1,0,-1,0,-3,-6,1
1532627582346,1,2,-2,1,-1,1,3,1
1532627582351,-2,-2,-1,-1,0,-2,-19,-2
1532627582356,1,-1,-1,0,-1,-1,2,0
1532627582361,2,1,-2,-1,0,2,3,-1
1532627582366,-2,-1,0,-3,0,-1,-19,-4
1532627582371,-1,0,1,0,1,-1,-20,-6
1532627582376,-1,-2,-1,0,-2,0,1,0
1532627582381,-5,-1,0,-1,-1,-2,7,-2
1532627582386,3,-1,-1,-1,-2,-1,-13,1
1532627582391,-2,0,-1,0,-1,1,13,2
1532627582396,0,-2,1,0,1,-4,-2,-4
1532627582401,-1,-1,-1,1,1,0,15,1
1532627582406,0,-1,-1,-2,-2,-3,-17,-2
1532627582411,0,-1,-1,-1,-2,-2,11,0
1532627582416,-1,0,-2,-1,-1,1,-4,-1
1532627582421,-3,-1,0,-1,-1,-3,-6,-1
1532627582426,0,1,-1,0,0,3,4,0
1532627582431,3,0,-2,-2,-1,5,0,8
1532627582436,-4,-1,-2,-2,-3,-7,-20,-5
1532627582441,-4,0,-2,0,-2,-1,2,-8
1532627582446,1,0,-1,-2,0,3,9,2
1532627582451,-3,-1,-1,0,-3,2,13,1
1532627582456,1,-1,-1,0,0,-1,-16,1
1532627582461,-1,0,-3,-1,2,2,8,2
1532627582466,-1,-3,1,-1,-1,-5,7,-7
1532627582471,0,-2,0,-3,-2,-1,-7,-4
1532627582476,0,1,-1,-2,0,-1,3,3
1532627582481,0,-3,1,0,1,1,2,-3
1532627582486,1,0,-1,-1,-2,1,-9,1
1532627582491,3,0,-1,-1,0,-5,-2,0
1532627582496,-2,0,0,0,0,-2,-21,-7
1532627582501,-2,0,0,-1,-1,-2,-6,-2
1532627582506,0,0,-1,1,0,2,18,10
1532627582511,-6,-2,0,-1,-1,-2,-13,-14
1532627582516,-1,1,-2,0,0,0,2,-3
1532627582521,0,0,-2,-1,0,-1,-2,2
1532627582526,1,-2,-1,-1,0,0,-5,-2
1532627582531,0,-1,0,-1,-1,0,14,2
1532627582536,-1,-1,-2,0,0,3,27,0
1532627582541,-3,-2,-1,0,-1,-2,-4,-4
1532627582546,-3,-1,-1,0,1,3,9,-1
1532627582551,1,-1,-1,-2,1,-3,-14,1
1532627582556,1,-1,0,0,-1,2,13,1
1532627582561,4,1,-1,0,-1,-3,14,1
1532627582566,-1,-1,-2,-1,-1,-2,4,-1
1532627582571,-4,-2,-2,-1,1,-6,-33,-8
1532627582576,-4,-1,-1,-2,-3,2,19,-3
1532627582581,1,-2,-1,-2,-1,0,-4,3
1532627582586,1,-2,0,-3,0,-4,-10,-2
1532627582591,0,1,-1,-1,-2,-4,-3,-2
1532627582596,-1,-3,-1,0,-2,0,9,-2
1532627582601,-4,-2,-1,0,-3,2,5,-2
1532627582606,-3,0,-1,0,-2,-1,6,-3
1532627582611,-1,0,-1,-1,0,1,-4,3
1532627582616,0,-1,-1,0,-3,-3,-14,0
1532627582621,0,0,-1,-2,-1,-1,-6,3
1532627582626,1,-2,-1,-1,-2,0,5,0
1532627582631,0,-3,0,-1,-1,0,6,0
1532627582636,2,-1,-1,0,1,-3,0,3
1532627582641,-4,-1,0,1,-2,4,45,-5
1532627582646,-1,1,0,1,0,-3,-9,0
1532627582651,3,1,-1,1,1,3,-7,1
1532627582656,0,-1,0,-2,0,-3,-1,-1
1532627582661,0,-1,-1,-2,-1,-2,-34,-2
1532627582666,1,-3,0,1,2,1,-10,-4
1532627582671,2,0,-1,0,-1,1,14,6
1532627582676,1,-1,-1,0,-1,0,2,2
1532627582681,-3,-2,-2,-3,0,-3,-13,-6
1532627582686,1,0,1,-2,0,-1,-5,-2
1532627582691,0,0,0,-1,0,0,-7,-2
1532627582696,-1,-1,-2,-1,0,3,3,2
1532627582701,3,0,0,0,0,5,19,11
1532627582706,-8,-3,-1,1,-2,-1,18,-2
1532627582711,1,0,0,-3,-1,-2,-7,1
1532627582716,1,1,0,1,-2,1,7,-1
1532627582721,-4,-2,0,-2,0,-2,-7,-4
1532627582726,0,-1,0,0,0,-2,-2,1
1532627582731,0,-2,0,0,0,1,0,-4
1532627582736,-1,-1,-1,0,-1,6,19,1
1532627582741,2,-1,-2,-1,-2,-3,-9,1
1532627582746,3,-1,0,-2,-1,-1,15,6
1532627582751,-8,-1,0,-1,-2,-8,-25,-12
1532627582756,0,0,-2,-1,-2,0,-5,1
1532627582761,-1,-2,-2,0,-1,1,-1,-1
1532627582766,-5,-1,-2,-1,-1,0,-7,-3
1532627582771,-2,-1,-1,-2,0,-1,27,1
1532627582776,-2,-1,0,-3,2,-4,-46,-5
1532627582781,0,1,0,-2,-1,1,37,0
1532627582786,3,0,-2,-1,-1,-2,-14,1
1532627582791,0,0,-3,-1,-1,1,8,4
1532627582796,-7,-2,-1,-1,-2,2,-10,-5
1532627582801,0,-2,-1,1,2,-7,-36,-3
1532627582806,1,0,-2,-1,-1,1,13,1
1532627582811,-1,-1,1,-1,0,3,7,0
1532627582816,1,-3,0,-1,0,-4,0,4
1532627582821,0,0,-2,-1,0,0,-12,-4
1532627582826,0,-1,-1,-2,-2,2,15,-5
1532627582831,0,0,0,0,-2,-4,-4,1
1532627582836,-1,-1,-1,0,-1,-4,-3,-2
1532627582841,-3,-2,-1,-1,0,-1,2,0
1532627582846,0,-1,-1,-1,1,-3,-4,-3
1532627582851,0,1,0,-2,0,3,-17,1
1532627582856,1,0,0,-1,-2,0,8,-1
1532627582861,0,1,0,-1,-1,-6,-9,-1
1532627582866,0,-2,0,-2,-1,-2,-3,-1
1532627582871,-3,-1,-1,1,0,3,-2,0
1532627582876,-6,-2,-2,-1,0,-1,8,-3
1532627582881,3,1,0,-1,-1,3,-17,2
1532627582886,-3,-1,1,-2,-1,1,-12,-1
1532627582891,1,0,-1,-1,0,-4,12,-2
1532627582896,0,-1,-1,-1,-2,-2,0,-1
1532627582901,-2,-1,1,0,-1,3,14,1
1532627582906,-1,1,0,0,-1,-1,0,0
1532627582911,1,-2,-1,0,0,2,1,-4
1532627582916,1,0,1,-4,0,1,10,2
1532627582921,-2,-1,-2,-1,-2,-3,-30,-4
1532627582926,-3,-2,-2,-2,-1,0,11,-3
1532627582931,-4,-3,-1,0,-1,-4,-28,-7
1532627582936,0,-1,-1,-1,-2,-4,-25,1
1532627582941,2,-1,-1,0,-1,-1,29,-1
1532627582946,-1,0,-1,-1,-3,-2,-12,-3
1532627582951,0,0,-2,-1,-1,0,8,-1
1532627582956,5,0,0,0,0,-1,-9,4
1532627582961,-4,-2,-2,0,0,-3,-1,0
1532627582966,-5,-1,-3,0,2,-1,-11,-3
1532627582971,1,-2,1,-1,0,0,11,4
1532627582976,0,1,-1,1,1,-3,-10,-6
1532627582981,-1,-2,-1,0,-2,2,11,2
1532627582986,-1,-1,-1,-2,-3,-4,-19,1
1532627582991,0,-1,1,-2,-2,1,5,-1
1532627582996,1,1,-1,0,2,-2,-5,1
