1532385894984,-1,-1,2,2,2,0,-4,-3
1532385894989,-1,1,-2,-4,-6,2,-3,0
1532385894994,-3,2,-2,0,5,0,-2,-2
1532385894999,1,-1,0,5,11,-1,4,0
1532385895004,-2,2,2,-2,-9,1,-3,-3
1532385895009,0,-4,-2,1,-3,0,2,0
1532385895014,-1,1,1,-2,-1,-1,-2,-3
1532385895019,0,-4,0,0,-8,0,-2,0
1532385895024,-4,7,-3,-4,5,0,1,-2
1532385895029,1,-8,-3,-1,-1,-3,-5,3
1532385895034,-3,-1,-3,-1,3,-1,4,-2
1532385895039,2,3,3,1,-5,-4,-3,-2
1532385895044,-1,2,-3,-1,1,-1,-2,-2
1532385895049,-2,-3,2,-2,-4,-2,-1,-2
1532385895054,0,-4,-1,-2,-10,-1,1,0
1532385895059,-1,3,1,0,10,0,3,1
1532385895064,-1,-5,0,0,-10,1,-4,-2
1532385895069,-1,1,2,2,7,-3,1,-2
1532385895074,-1,-3,-4,3,-1,-1,1,1
1532385895079,-1,1,0,-4,-2,-3,-1,-3
1532385895084,4,4,3,2,5,0,-4,1
1532385895089,-3,-3,-4,-8,-12,0,0,-2
1532385895094,-1,2,1,0,4,-3,-1,-2
1532385895099,1,6,-1,3,5,-2,0,-1
1532385895104,-3,-5,-1,-5,-9,-2,-4,0
1532385895109,0,-2,-1,-1,7,1,-2,-1
1532385895114,-1,-5,0,3,13,-2,7,2
1532385895119,-1,-3,0,0,0,0,-2,-2
1532385895124,-1,-1,-2,0,-3,-4,-1,-3
1532385895129,0,6,-1,0,12,-3,0,2
1532385895134,-2,-7,-6,-3,-5,-1,-5,-3
1532385895139,-2,0,3,-4,-11,-4,-3,-1
1532385895144,1,-4,1,3,16,1,5,1
1532385895149,-3,0,1,-1,-11,0,-5,-2
1532385895154,0,-4,-1,0,-11,2,-2,0
1532385895159,-1,-3,-2,-2,17,-5,4,-1
1532385895164,0,1,-4,-8,-11,-1,-3,-2
1532385895169,-5,-3,-4,-2,-8,-2,-5,-2
1532385895174,1,2,4,3,3,-4,5,1
1532385895179,0,1,-1,-1,-13,-1,-3,-2
1532385895184,-1,-10,-1,-2,-1,-3,0,-1
1532385895189,-3,-1,0,4,8,-1,1,-2
1532385895194,0,-1,1,-1,5,1,-4,-2
1532385895199,-1,-1,0,-1,-2,-2,0,0
1532385895204,-1,6,-2,-2,-10,-2,1,-1
1532385895209,5,0,1,-2,0,-2,-2,0
1532385895214,-2,-6,-1,-6,-10,1,0,-1
1532385895219,-2,0,0,1,1,1,4,2
1532385895224,0,6,1,-3,7,-2,-3,0
1532385895229,-2,-10,-3,-1,-10,-1,-5,-4
1532385895234,2,4,-3,-2,-4,-6,-6,-3
1532385895239,5,0,1,2,14,-2,9,2
1532385895244,-5,9,-4,-3,-11,-2,-8,-4
1532385895249,-1,-12,2,1,2,-3,2,-1
1532385895254,0,1,3,1,-2,1,3,1
1532385895259,-4,-1,-2,1,-8,0,-9,-5
1532385895264,-1,1,-1,0,4,-2,3,-2
1532385895269,0,3,-3,1,3,-1,3,0
1532385895274,3,2,0,0,-1,1,-3,-1
1532385895279,-2,-1,0,-2,2,0,-4,-3
1532385895284,2,0,4,8,16,0,1,-1
1532385895289,-4,-1,-4,-9,-15,-1,-7,-6
1532385895294,4,2,2,0,16,-3,14,9
1532385895299,0,5,-2,3,-7,2,0,0
1532385895304,-9,-18,-2,-2,4,1,-6,-3
1532385895309,2,2,2,3,-6,1,-2,-5
1532385895314,-5,-1,-3,-3,4,2,-8,-4
1532385895319,4,1,-3,-2,-5,2,-4,-2
1532385895324,0,2,2,2,0,-2,0,-1
1532385895329,-2,-1,-1,-1,-8,2,6,1
1532385895334,-5,11,-1,-6,-4,-1,-3,-2
1532385895339,-2,-14,-4,0,1,1,-1,-1
1532385895344,4,4,0,1,-7,-2,0,0
1532385895349,1,0,-1,2,0,0,-4,-1
1532385895354,-1,-1,-2,-3,-6,0,2,-2
1532385895359,-3,0,-1,-3,-3,-2,-4,-3
1532385895364,1,-2,-2,-2,-10,-1,6,2
1532385895369,-2,-3,-3,-7,0,-3,-5,-1
1532385895374,0,0,2,7,4,-3,1,-3
1532385895379,-1,-1,-1,1,-4,-3,-10,-3
1532385895384,0,-4,-1,0,-2,-2,10,-1
1532385895389,3,2,-4,-2,3,2,5,7
1532385895394,-3,-5,-1,-2,-1,-2,-3,-2
1532385895399,1,2,-2,-1,-2,-1,3,-2
1532385895404,1,3,0,-2,-2,-1,-2,0
1532385895409,-2,-3,3,6,10,-3,-1,-1
1532385895414,-2,-3,-4,1,-1,-1,-5,-3
1532385895419,-1,2,-3,-1,-7,-2,3,-2
1532385895424,-3,-2,-2,-3,-6,0,-6,-4
1532385895429,1,2,0,-5,-2,-3,1,-1
1532385895434,1,-5,1,1,-1,0,-1,-1
1532385895439,-2,1,2,5,4,0,0,2
1532385895444,1,-3,0,-7,2,0,1,1
1532385895449,0,-3,-2,-1,-11,-1,-2,-2
1532385895454,0,-2,2,1,6,-1,-1,-1
1532385895459,0,-1,-1,-1,-1,-1,3,-1
1532385895464,-3,-2,-5,-1,0,-2,-8,-1
1532385895469,0,1,2,2,3,-3,1,0
1532385895474,0,-3,-2,-2,-11,-3,-1,-1
1532385895479,-1,-2,0,-1,3,-4,-1,0
1532385895484,1,2,0,4,5,0,-5,-4
1532385895489,2,15,-3,-9,-7,-2,1,-1
1532385895494,-7,-15,-8,-1,-9,-1,1,0
1532385895499,-3,-11,2,2,13,0,0,-2
1532385895504,-1,6,6,1,-2,-3,-4,-2
1532385895509,-2,-4,-3,-4,-9,-1,-4,-4
1532385895514,3,5,-1,2,23,-2,9,0
1532385895519,3,-2,0,-3,-9,-3,-5,0
1532385895524,-7,1,-3,-1,-2,-2,-4,-2
1532385895529,0,0,1,2,-3,1,0,3
1532385895534,2,9,2,-3,-6,-1,-5,-2
1532385895539,-7,-4,-1,-4,-6,-3,-3,-1
1532385895544,5,-19,-1,5,16,-1,8,1
1532385895549,-5,1,-5,0,2,-3,-2,-3
1532385895554,0,-6,1,-1,-10,-4,-6,-3
1532385895559,7,19,3,3,-1,-2,5,2
1532385895564,-5,-4,3,-2,0,0,3,3
1532385895569,0,-4,-3,0,1,-1,-3,-4
1532385895574,-4,-6,0,0,-3,1,0,-2
1532385895579,2,5,-2,-1,-5,-1,-4,-1
1532385895584,1,2,-4,-6,-3,-1,-4,-2
1532385895589,2,-3,4,4,8,-1,5,0
1532385895594,-1,4,1,5,-10,0,-7,-1
1532385895599,-2,-3,-2,-5,3,-2,3,0
1532385895604,1,2,-3,-2,0,-2,2,-2
1532385895609,-2,-4,1,-2,2,-3,-7,-3
1532385895614,1,4,-1,-2,-2,-3,2,0
1532385895619,-5,-4,-6,-1,6,0,-5,-5
1532385895624,-1,1,-2,1,-1,-2,1,-2
1532385895629,-2,0,1,-3,-1,-1,4,0
1532385895634,-2,-2,1,6,1,0,-3,-2
1532385895639,0,-7,-6,-8,-6,0,0,1
1532385895644,0,1,-6,-5,-5,-3,-3,-3
1532385895649,-1,0,1,2,0,1,-5,-3
1532385895654,1,-3,-1,-4,0,-5,0,-5
1532385895659,-2,-2,1,3,1,-1,0,-2
1532385895664,-3,0,0,1,3,0,1,-2
1532385895669,3,-2,-2,0,0,-2,-3,-1
1532385895674,-4,-3,-1,0,0,1,-1,1
1532385895679,1,2,-3,-4,-5,4,-2,-2
1532385895684,-2,-4,-3,-6,-1,0,-3,-2
1532385895689,0,-1,1,2,3,-1,-1,-1
1532385895694,0,10,0,-2,-2,1,3,1
1532385895699,3,-13,-8,2,5,-1,-3,-2
1532385895704,-5,0,4,1,-1,0,4,-2
1532385895709,-2,-2,-1,-1,3,4,0,-3
1532385895714,3,0,0,2,-4,1,-4,0
1532385895719,-3,0,3,-2,3,1,9,1
1532385895724,2,0,-2,-2,-7,0,-3,-1
1532385895729,3,-2,2,4,9,-1,5,1
1532385895734,0,1,0,-3,10,-1,7,1
1532385895739,-1,0,1,0,-4,-1,-8,-4
1532385895744,1,-2,0,1,0,-4,5,3
1532385895749,-4,-1,-3,-6,-7,-4,-6,0
1532385895754,7,5,-1,-1,3,-1,1,0
1532385895759,-4,-7,2,-2,6,-5,3,-1
1532385895764,1,0,-1,0,0,-1,-4,-6
1532385895769,-2,-2,-3,0,-8,-3,-5,0
1532385895774,-10,-6,-2,-5,3,-1,13,-5
1532385895779,0,5,-2,0,-8,-5,-6,1
1532385895784,-2,1,1,3,-2,-3,-10,-1
1532385895789,-2,-2,-4,-4,-4,-4,13,3
1532385895794,-1,-6,-3,-1,-6,-1,-20,-5
1532385895799,1,3,0,-2,-1,0,6,1
1532385895804,-2,0,-2,1,2,-2,-2,-8
1532385895809,2,0,-1,0,2,0,-5,2
1532385895814,-4,-5,0,-4,-6,-1,2,0
1532385895819,2,3,0,4,7,-1,13,4
1532385895824,0,-2,-1,-4,-4,0,-16,-4
1532385895829,3,3,-2,-4,2,3,15,-2
1532385895834,-3,-7,-1,-2,-5,-4,-5,-5
1532385895839,4,11,-1,1,-2,-1,-6,-3
1532385895844,-7,-12,0,-3,-5,-2,-6,1
1532385895849,-5,-8,-1,3,-3,-1,7,-3
1532385895854,17,11,2,-1,-1,1,4,3
1532385895859,-4,2,-2,0,-6,0,-7,-2
1532385895864,6,0,-2,-1,-2,-2,1,1
1532385895869,-12,-20,3,0,-1,-2,-12,-3
1532385895874,-4,10,-1,-1,-2,1,0,-3
1532385895879,26,-1,3,2,-1,-2,4,9
1532385895884,-2,5,-2,-4,0,-2,-1,4
1532385895889,0,-1,-2,-1,5,1,2,-4
1532385895894,-5,-6,0,1,3,-2,-9,0
1532385895899,-10,-5,-3,-1,4,-3,-2,-3
1532385895904,-1,1,-2,0,-6,-2,-2,-1
1532385895909,-2,4,0,0,-2,-2,0,2
1532385895914,7,-4,-2,0,-1,0,-12,0
1532385895919,-8,-9,-2,-2,-4,1,4,-3
1532385895924,1,2,1,1,4,-2,6,1
1532385895929,-4,11,0,-2,-4,-3,-8,-1
1532385895934,-6,-5,0,-3,2,-2,0,-2
1532385895939,0,4,3,2,2,-3,3,-1
1532385895944,-3,-9,-5,-6,-7,-1,5,1
1532385895949,5,2,-2,-2,-7,-2,-4,-2
1532385895954,-3,-2,-1,-4,-2,1,1,-1
1532385895959,-1,-6,1,0,-5,-1,9,5
1532385895964,-2,5,0,0,4,1,1,-2
1532385895969,-4,2,-1,5,3,-4,1,-6
1532385895974,1,-4,-1,-4,-2,-3,-2,0
1532385895979,-9,2,0,1,-1,1,-17,-8
1532385895984,4,-1,2,-1,0,0,17,3
1532385895989,3,1,-3,-1,-6,-1,0,2
1532385895994,-2,-3,-3,-6,-5,-2,-3,-1
1532385895999,-1,2,1,-1,9,-3,6,-1
1532385896004,2,3,1,2,0,-1,-4,-2
1532385896009,2,-2,1,3,5,0,-3,-1
1532385896014,-2,2,-1,4,0,-1,7,-1
1532385896019,-5,-2,-2,-6,-5,1,-6,-4
1532385896024,1,-2,-3,2,4,-2,3,0
1532385896029,-2,0,1,-4,-10,-1,-5,-3
1532385896034,-2,-2,-3,3,2,1,2,0
1532385896039,0,0,-3,-6,0,3,-2,-2
1532385896044,-5,-2,-3,1,-5,3,-4,-2
1532385896049,-2,-4,-2,-8,3,3,-4,-3
1532385896054,7,4,5,4,-7,1,2,3
1532385896059,-8,-1,1,-5,0,0,-7,-5
1532385896064,0,2,1,4,1,-2,4,3
1532385896069,-3,1,0,-2,1,0,-6,-7
1532385896074,-1,-12,-2,-2,-3,-1,-8,-4
1532385896079,6,-3,-4,0,-1,-1,7,1
1532385896084,-3,0,2,1,1,4,-9,-9
1532385896089,-5,1,-2,-3,-6,0,1,4
1532385896094,-3,2,-6,1,10,0,0,2
1532385896099,21,-12,2,0,-4,1,-8,-1
1532385896104,2,5,0,-5,-9,-3,-7,-18
1532385896109,6,-10,-2,5,9,-2,27,22
1532385896114,-16,3,-1,-2,-2,0,-10,-24
1532385896119,12,-7,13,5,1,1,2,7
1532385896124,1,17,1,-1,5,2,0,6
1532385896129,-4,-6,0,-2,-5,-3,-5,-12
1532385896134,-1,6,-4,0,-2,-3,2,9
1532385896139,-12,-3,-7,-3,-5,-2,0,-4
1532385896144,10,-1,7,2,6,-4,3,2
1532385896149,-1,8,-1,1,-2,-3,-4,2
1532385896154,8,-6,-2,-1,-3,-3,2,4
1532385896159,-6,3,-3,0,3,1,-6,-7
1532385896164,-7,-4,-4,-4,-5,-1,-6,1
1532385896169,2,3,4,0,7,-3,7,0
1532385896174,2,-5,-2,-6,-4,0,-4,-4
1532385896179,-6,3,-1,3,-1,-4,1,1
1532385896184,1,1,-1,3,15,-3,1,5
1532385896189,-1,-4,-2,-3,-9,-2,-7,-3
1532385896194,1,-4,5,1,-2,-1,0,-3
1532385896199,-5,5,0,-3,5,-2,4,1
1532385896204,-5,-8,-3,-3,-7,-4,2,2
1532385896209,1,-1,-3,-4,-1,-1,-6,-6
1532385896214,0,2,1,1,3,-1,11,4
1532385896219,-3,-1,-4,-1,-4,0,-3,0
1532385896224,-8,-6,-2,-2,-6,0,-2,-2
1532385896229,14,9,3,0,1,0,0,1
1532385896234,-7,-7,-2,0,-4,2,-2,2
1532385896239,-3,-5,-2,-6,-4,-2,-16,-4
1532385896244,-4,-2,-1,3,-1,-3,10,-7
1532385896249,-1,1,-2,-3,-1,0,-7,1
1532385896254,1,3,1,6,-7,-3,1,2
1532385896259,1,1,-2,-6,2,-2,-5,-4
1532385896264,-3,-3,-4,-3,-3,-2,-5,0
1532385896269,-1,-2,-1,-1,-1,-1,-2,-2
1532385896274,0,-1,1,0,0,-1,-1,-1
1532385896279,-4,0,2,0,-2,-5,4,-1
1532385896284,1,0,1,0,1,-1,-2,-1
1532385896289,0,-2,-3,4,-1,1,9,4
1532385896294,-1,0,0,-1,6,-3,1,1
1532385896299,-1,2,-2,-5,-8,-1,-5,-3
1532385896304,3,-3,1,-4,2,-1,15,-1
1532385896309,-10,-5,-3,1,-4,-2,-9,-3
1532385896314,0,-1,-3,-1,4,-2,-6,0
1532385896319,5,1,2,-3,1,-2,2,-1
1532385896324,1,1,1,7,-4,-3,-9,1
1532385896329,-2,-6,0,-6,-3,1,-1,-5
1532385896334,-2,1,-4,-6,2,-2,4,-3
1532385896339,-1,-3,-2,-3,-8,1,-13,-2
1532385896344,-2,2,1,-2,2,0,6,1
1532385896349,2,-1,3,3,1,-2,-5,-4
1532385896354,-2,1,0,3,2,0,-1,1
1532385896359,-2,-2,-2,1,-2,-1,2,-1
1532385896364,9,-2,-1,-3,-5,-1,-13,-2
1532385896369,-6,1,0,5,5,-1,14,4
1532385896374,-1,-3,0,-4,-4,-1,-4,-4
1532385896379,6,1,-2,0,-2,-5,0,-4
1532385896384,-3,-3,-3,-1,2,-1,3,-1
1532385896389,1,-2,-1,-1,-4,-1,-19,-5
1532385896394,0,-1,0,-2,-2,0,20,2
1532385896399,-4,-1,-3,-4,-3,2,-12,-1
1532385896404,3,0,0,-1,3,2,10,5
1532385896409,1,-1,-1,2,2,3,2,-1
1532385896414,-2,3,1,4,0,-2,-19,-4
1532385896419,-4,-1,1,1,4,1,14,4
1532385896424,-5,-5,-2,-5,-6,2,1,-1
1532385896429,5,2,2,2,-3,-3,-10,-1
1532385896434,-3,-1,-3,-6,-5,-1,0,0
1532385896439,1,0,-2,-1,9,3,8,2
1532385896444,-6,-3,-3,-3,-2,4,-6,-12
1532385896449,-2,-1,1,-1,0,0,-1,10
1532385896454,1,0,-3,-1,-3,2,-6,-11
1532385896459,0,2,1,8,5,-1,2,-1
1532385896464,0,0,-1,1,-1,-1,-11,-2
1532385896469,2,-1,-2,-10,-3,-1,18,-2
1532385896474,-3,0,1,1,2,-1,-2,1
1532385896479,7,-2,0,-1,-5,-1,-6,-8
1532385896484,-1,-1,-5,-1,-1,-6,6,1
1532385896489,-4,-2,-1,0,1,0,-3,-7
1532385896494,-1,-1,1,2,0,0,0,6
1532385896499,-5,-3,-5,0,-2,0,-1,-2
1532385896504,0,0,1,1,-3,0,-9,1
1532385896509,-2,4,2,1,2,1,-1,-1
1532385896514,-1,-5,-2,-1,-2,-2,-2,0
1532385896519,-1,-2,2,1,1,-3,4,2
1532385896524,-1,0,-3,0,3,-4,1,-2
1532385896529,5,-3,-4,-5,-4,-4,-2,-1
1532385896534,2,3,0,2,0,-1,1,-1
1532385896539,-6,-1,-1,-2,-12,-1,-4,-4
1532385896544,10,0,-1,-2,5,-1,-1,5
1532385896549,-2,-1,-1,-1,1,-5,0,-8
1532385896554,0,3,2,0,1,-2,-1,-3
1532385896559,-5,-8,-1,-1,-3,-3,7,1
1532385896564,10,7,0,0,3,-2,-2,10
1532385896569,-5,0,-2,-2,-5,-1,-11,-19
1532385896574,1,-6,-2,-2,-2,-1,6,10
1532385896579,-1,3,-2,0,0,-2,3,2
1532385896584,-3,2,-5,5,0,-1,2,3
1532385896589,-2,5,-2,0,-2,-1,3,6
1532385896594,-13,-13,5,3,15,-2,-2,-21
1532385896599,9,5,-1,-2,-4,0,-3,-3
1532385896604,3,-8,1,-3,-4,1,-3,-9
1532385896609,6,11,1,-2,-1,-1,6,3
1532385896614,-4,-3,-8,-8,-11,-1,-5,0
1532385896619,8,-1,-3,1,5,1,3,6
1532385896624,-14,0,7,0,6,-3,0,-6
1532385896629,-2,-9,0,1,-1,-2,-1,3
1532385896634,4,5,2,1,2,-2,5,0
1532385896639,-2,0,0,-3,0,-3,-7,0
1532385896644,-5,-1,-4,-2,-8,1,6,-5
1532385896649,-3,-3,1,3,9,-1,1,21
1532385896654,8,2,-3,-1,0,-1,-4,3
1532385896659,-6,1,-3,-1,2,-1,-5,-7
1532385896664,-5,-6,-3,-3,-3,0,-4,-5
1532385896669,0,-5,-1,-2,-3,0,-3,-3
1532385896674,-1,2,-2,-1,0,0,4,1
1532385896679,0,2,4,3,3,-3,1,1
1532385896684,-3,-1,0,2,0,-4,-1,-2
1532385896689,-1,-2,-3,-5,-5,0,-3,-4
1532385896694,-3,1,-3,-6,-4,-2,-2,1
1532385896699,0,-4,-2,-2,-3,-1,0,-1
1532385896704,2,2,4,-1,2,-1,-4,0
1532385896709,-4,-2,0,5,6,0,-1,-4
1532385896714,5,3,3,2,-1,-3,2,-1
1532385896719,-3,-3,-3,-1,-1,0,1,1
1532385896724,-1,-1,-4,-1,-5,0,-1,0
1532385896729,2,2,-3,-1,-1,-1,-2,-2
1532385896734,-2,-5,-1,-3,-3,0,-1,-2
1532385896739,-4,-1,-1,0,0,-4,-3,-2
1532385896744,-1,-1,0,-3,-7,-3,1,-1
1532385896749,-1,5,3,0,-7,-2,-8,-9
1532385896754,-1,-8,-3,-1,-1,-3,4,0
1532385896759,-1,-3,-2,-1,-7,-3,-3,-2
1532385896764,-2,-4,-3,-3,-3,-2,-2,-5
1532385896769,5,0,-2,2,-1,0,1,1
1532385896774,-3,5,-2,-1,-2,0,0,3
1532385896779,9,1,2,3,3,0,0,3
1532385896784,-1,-6,-2,1,4,2,-2,1
1532385896789,-4,-2,0,-2,1,-1,0,-1
1532385896794,0,-4,-4,-3,0,-1,-3,0
1532385896799,-6,11,5,-1,0,2,5,-1
1532385896804,2,-8,-3,3,15,0,-1,1
1532385896809,-4,-10,0,-1,-1,-3,2,3
1532385896814,-2,-1,0,0,-2,-1,-2,-1
1532385896819,6,-8,-4,1,2,-4,-5,-3
1532385896824,-12,9,-6,-8,-8,1,-2,-8
1532385896829,7,3,4,3,4,-1,-3,-2
1532385896834,1,-14,-1,-5,-5,1,1,0
1532385896839,-5,19,2,4,0,-3,4,-1
1532385896844,-2,-1,-1,-6,-14,1,-5,1
1532385896849,-5,-4,-2,0,11,-1,-2,-3
1532385896854,4,2,-1,1,1,2,2,0
1532385896859,-8,-11,-2,-5,-7,-2,-5,-3
1532385896864,13,4,-1,1,1,-1,-1,0
1532385896869,-5,0,-4,-5,-7,-4,0,-2
1532385896874,7,6,5,3,7,-1,-2,3
1532385896879,0,-9,-3,-1,3,-1,2,-2
1532385896884,-10,14,3,-2,-3,-2,-2,-1
1532385896889,11,-21,-2,0,2,2,-2,-2
1532385896894,11,3,-6,-1,-4,-2,3,-1
1532385896899,-15,-5,1,-3,-9,-3,-4,-3
1532385896904,1,-23,-5,-1,1,-1,-6,-2
1532385896909,-11,14,4,1,-5,-3,9,0
1532385896914,1,22,-2,-3,-7,1,-2,0
1532385896919,-2,-4,2,1,8,-1,-4,-6
1532385896924,4,9,-2,0,-4,0,5,3
1532385896929,-4,-8,-3,-3,-7,-1,-4,1
1532385896934,-3,-3,2,4,18,-2,3,0
1532385896939,-25,-14,-6,-3,-9,-1,-3,-1
1532385896944,12,18,6,4,16,-3,0,-1
1532385896949,-14,-15,-2,-2,-7,-1,0,-2
1532385896954,-1,-4,3,-1,-4,-1,1,-1
1532385896959,0,2,1,-1,2,1,1,3
1532385896964,0,-1,-2,-1,-4,-3,2,-1
1532385896969,7,8,-5,0,-2,3,2,0
1532385896974,-15,-14,-2,-6,-12,-2,-6,-5
1532385896979,-1,9,1,3,12,-2,2,-1
1532385896984,1,-4,-2,-3,-11,-2,-5,-3
1532385896989,8,11,-3,0,0,-3,-3,-2
1532385896994,-8,-27,-1,2,1,-2,-2,-2
1532385896999,12,24,1,1,4,1,-2,2
1532385897004,-6,-19,0,0,2,-2,1,1
1532385897009,-14,11,1,0,0,-4,4,-1
1532385897014,-10,-4,-4,1,4,-3,1,1
1532385897019,37,-2,4,-8,-12,1,-12,-3
1532385897024,-6,-2,-3,0,0,-2,4,2
1532385897029,-6,-9,0,-1,7,0,3,-2
1532385897034,-18,10,-1,3,-3,-1,2,-8
1532385897039,9,-7,-2,2,1,-1,3,2
1532385897044,4,9,0,-2,-4,-1,0,-1
1532385897049,-2,-11,-2,-2,0,0,0,-3
1532385897054,11,8,-3,-3,-2,-5,-5,-3
1532385897059,-9,-4,-1,0,-5,0,-3,-1
1532385897064,0,-6,1,-1,0,-2,-3,-2
1532385897069,8,7,-1,6,12,-2,5,3
1532385897074,-9,-9,1,-4,-5,0,-5,0
1532385897079,13,8,-1,-2,0,-3,-1,-1
1532385897084,-13,-8,-1,-2,-6,1,-4,-1
1532385897089,4,3,-1,-1,-2,-3,2,-1
1532385897094,12,5,1,2,-1,-2,-2,-2
1532385897099,-12,-10,-4,-1,0,-1,3,0
1532385897104,3,6,2,2,1,2,0,1
1532385897109,-3,-6,0,-1,-1,0,-6,-3
1532385897114,3,3,-2,-4,-4,-1,-3,-2
1532385897119,-12,-4,-3,2,6,0,5,0
1532385897124,-3,-5,0,-3,-4,-1,-3,0
1532385897129,0,-1,-1,0,0,-4,-4,-3
1532385897134,12,-5,-3,-4,-8,-2,0,0
1532385897139,-10,11,-1,1,11,-2,1,-2
1532385897144,5,3,3,5,10,1,3,0
1532385897149,1,1,-1,-6,-7,1,-6,-3
1532385897154,-4,-6,0,-1,1,-1,-1,-3
1532385897159,2,-2,0,-1,-8,3,4,0
1532385897164,0,-1,-2,0,-2,-3,-2,-2
1532385897169,2,-3,-1,-1,5,-1,-2,-2
1532385897174,2,7,1,0,-2,2,-5,-1
1532385897179,1,-8,-3,-6,-5,-2,7,2
1532385897184,-10,-3,0,-1,4,0,-3,-4
1532385897189,1,-2,0,1,-2,0,0,3
1532385897194,3,4,1,2,2,0,9,2
1532385897199,-3,-2,0,4,-1,-3,-7,-4
1532385897204,1,-2,-1,-2,-2,0,0,-2
1532385897209,-3,1,0,-1,1,2,-3,1
1532385897214,0,0,-3,-3,-2,0,5,-1
1532385897219,-12,-6,0,1,1,1,1,2
1532385897224,9,4,-3,-4,-4,-6,-2,-4
1532385897229,-6,-2,-2,-1,-3,2,-5,-5
1532385897234,0,2,-1,1,2,1,1,1
1532385897239,4,-6,-1,0,-4,-1,-6,-2
1532385897244,-1,0,1,2,3,1,3,0
1532385897249,-8,-2,0,-2,-1,0,1,0
1532385897254,8,-2,-1,-5,-7,-1,-8,-2
1532385897259,0,3,-1,1,17,-1,7,0
1532385897264,-4,1,0,0,-7,1,-5,-3
1532385897269,-4,-13,-3,-3,-6,-3,3,0
1532385897274,10,17,3,4,6,0,1,2
1532385897279,-3,-5,-1,-2,-6,-3,-7,-3
1532385897284,1,-2,-3,0,-1,-2,1,-1
1532385897289,-5,-1,-1,-4,3,-1,1,0
1532385897294,-2,-2,-3,-4,-6,-3,-7,-3
1532385897299,1,-2,-3,-3,-3,-3,-2,-2
1532385897304,1,1,0,0,4,-1,2,1
1532385897309,5,1,-2,-1,-11,0,-2,-2
1532385897314,-4,-1,1,2,11,-2,6,1
1532385897319,-14,-8,0,-1,-8,0,-7,-3
1532385897324,17,1,-3,-5,-10,-1,2,-1
1532385897329,-2,0,0,2,1,2,-6,-2
1532385897334,10,3,0,1,0,-2,-4,0
1532385897339,5,13,1,-1,-2,1,8,3
1532385897344,-26,-27,-2,-2,-2,-2,-7,-4
1532385897349,6,8,3,4,3,-3,6,0
1532385897354,-8,-3,-3,-4,-1,1,-4,-3
1532385897359,4,-4,-2,0,-1,0,-2,-2
1532385897364,1,3,0,0,-1,0,-2,2
1532385897369,3,2,-2,-1,3,-5,-2,-2
1532385897374,-9,-5,-1,-1,-2,-1,-2,-1
1532385897379,-1,-6,0,2,0,0,-1,-1
1532385897384,-8,3,-2,-2,-3,-1,-3,-2
1532385897389,6,1,-1,-3,1,1,-2,-2
1532385897394,1,3,-1,2,-1,0,2,-5
1532385897399,-4,-6,-2,-4,-7,1,-3,-1
1532385897404,-10,3,0,0,3,-2,-1,-1
1532385897409,18,-6,-1,-1,-3,-2,-8,-1
1532385897414,-8,-3,-2,-1,-4,-2,3,-2
1532385897419,7,-2,-1,-3,1,-3,1,1
1532385897424,-7,-1,-1,-1,0,-1,-3,-3
1532385897429,-14,0,-1,-3,-8,-1,0,1
1532385897434,14,4,3,4,10,-2,-5,-1
1532385897439,0,0,1,-5,-9,-1,0,-1
1532385897444,3,-3,-2,0,2,-2,0,0
1532385897449,-4,11,-2,-5,-2,-3,-1,-2
1532385897454,-9,-15,-4,-1,-6,-2,-1,-2
1532385897459,7,-1,-2,0,0,-2,1,0
1532385897464,3,5,1,2,1,-2,-2,0
1532385897469,2,3,0,2,-3,0,1,0
1532385897474,-9,-6,-1,-2,-2,-3,-1,2
1532385897479,-3,1,-3,-1,0,-3,-3,-8
1532385897484,8,0,1,-1,-1,-1,3,4
1532385897489,-6,-2,0,1,2,1,-1,-3
1532385897494,-10,-1,0,1,1,1,2,4
1532385897499,3,7,-1,-5,-3,1,-7,-1
1532385897504,-19,-7,-5,-1,14,-1,7,0
1532385897509,24,-19,1,1,-8,-3,-2,2
1532385897514,-8,8,-1,1,3,-2,-4,-4
1532385897519,-3,-8,0,1,-2,-1,2,-1
1532385897524,8,8,0,0,-1,-2,-1,-2
1532385897529,-8,1,-3,-1,0,-1,1,0
1532385897534,0,-9,-1,-1,-3,2,-2,-1
1532385897539,-5,6,-1,-2,1,-2,2,-2
1532385897544,5,-1,-1,-1,-4,0,-7,-3
1532385897549,-8,-8,-2,0,1,2,-1,-2
1532385897554,13,8,1,0,-3,2,-1,-2
1532385897559,-7,0,-3,1,3,1,1,1
1532385897564,0,-7,0,-1,-3,2,0,0
1532385897569,-1,5,-1,-2,0,1,2,-2
1532385897574,-8,-6,-3,-4,-6,1,-4,-4
1532385897579,5,0,2,4,17,-1,7,2
1532385897584,4,-2,0,-2,-7,-2,0,-2
1532385897589,6,12,0,-2,-4,0,-7,-3
1532385897594,-15,1,0,1,4,-5,6,2
1532385897599,-13,-19,-5,-7,-10,0,-8,-1
1532385897604,28,6,2,1,4,-2,-2,1
1532385897609,-8,3,1,1,0,0,0,-1
1532385897614,3,0,-1,-2,-1,-1,-2,-2
1532385897619,-2,4,1,2,-7,-1,-2,-2
1532385897624,-6,-2,0,0,4,-1,-1,-1
1532385897629,-1,-2,0,0,-1,-1,-1,0
1532385897634,4,-1,2,1,5,-3,5,0
1532385897639,-2,2,-1,2,0,-1,-4,-3
1532385897644,-2,-5,-3,-4,-5,-3,0,1
1532385897649,-2,2,-1,-1,-1,-1,-2,-4
1532385897654,-6,-12,-1,1,1,0,-1,0
1532385897659,5,12,1,0,0,-1,8,1
1532385897664,-5,-3,1,1,-1,1,-1,0
1532385897669,3,3,-2,-3,2,-4,3,-2
1532385897674,-3,-2,-1,-2,-9,-3,-5,-2
1532385897679,0,-3,-1,-1,-3,-4,-7,0
1532385897684,-1,2,1,-2,-1,-2,9,2
1532385897689,-3,-5,-1,-3,2,-1,-1,-1
1532385897694,4,3,-2,0,-2,-2,-2,0
1532385897699,0,-3,1,3,2,-2,1,-2
1532385897704,-2,1,-1,-3,-4,0,-3,-2
1532385897709,-3,-2,-1,-2,-2,0,-3,-3
1532385897714,-5,-5,0,-2,0,2,3,2
1532385897719,17,5,-1,2,5,-2,4,2
1532385897724,-19,5,0,3,7,0,5,1
1532385897729,7,-4,0,-1,-1,-4,1,-2
1532385897734,2,2,0,3,1,0,-8,-5
1532385897739,-4,-6,-3,-6,-3,-1,-3,-2
1532385897744,1,1,1,4,-1,-1,2,0
1532385897749,-2,-1,-2,-3,0,-2,-1,1
1532385897754,0,-1,-1,-6,0,0,6,2
1532385897759,2,2,-1,1,-3,0,-2,0
1532385897764,-4,-2,-2,-2,-4,-2,-5,-4
1532385897769,-9,-4,0,0,-2,1,-4,-2
1532385897774,14,7,0,2,7,-2,4,-2
1532385897779,-9,-10,1,-2,-5,-2,-5,3
1532385897784,5,-3,-2,-3,-6,1,-3,-3
1532385897789,-5,10,1,1,-3,0,1,-1
1532385897794,4,-8,-3,-4,-8,-2,-9,-3
1532385897799,4,0,-1,3,17,-2,7,-4
1532385897804,-4,-7,0,-1,-3,-1,0,0
1532385897809,-2,1,-5,-1,-5,-1,-1,1
1532385897814,-5,-6,4,0,4,-1,3,-7
1532385897819,-2,0,2,-2,2,2,-4,-8
1532385897824,-3,-3,0,-1,-3,-1,-3,3
1532385897829,2,-3,-4,0,2,-3,-4,-10
1532385897834,0,8,-3,-3,-8,0,-6,1
1532385897839,-2,-6,-2,-2,-5,-1,2,4
1532385897844,0,1,0,0,-1,-2,-2,-8
1532385897849,-2,-2,0,-2,0,0,4,1
1532385897854,2,1,-3,1,-1,-5,0,0
1532385897859,-5,-2,-3,-4,-6,-2,-3,-6
1532385897864,2,1,-3,-6,-2,-1,-1,0
1532385897869,-1,-2,-1,0,1,-1,2,3
1532385897874,-4,-1,-1,0,-3,1,-2,-1
1532385897879,-2,-1,0,-1,5,-2,-2,0
1532385897884,3,0,-1,-1,1,0,-1,-2
1532385897889,-3,-3,1,5,-2,-2,-2,-1
1532385897894,-1,2,-1,-8,6,2,3,1
1532385897899,-1,-2,-5,-4,-7,-2,-4,-1
1532385897904,-1,-3,-3,-3,0,-1,-5,-3
1532385897909,4,2,2,0,-4,3,0,2
1532385897914,-1,0,-1,2,0,-1,-3,1
1532385897919,-3,-1,1,2,-2,3,-1,0
1532385897924,-1,-1,-2,-2,-1,-3,0,-1
1532385897929,1,-5,-2,-1,1,4,-3,0
1532385897934,-4,0,-2,-3,-3,0,1,-2
1532385897939,-1,2,2,4,2,-1,0,2
1532385897944,1,-1,-2,-6,-6,-3,-6,-4
1532385897949,-3,-2,-1,-1,5,-1,2,-1
1532385897954,0,0,-2,-3,-7,0,-1,1
1532385897959,-3,-4,-4,-3,-5,2,-6,-5
1532385897964,-1,1,1,1,2,2,4,2
1532385897969,0,-3,-2,-1,3,-4,4,1
1532385897974,0,-1,1,-1,0,-1,-5,-3
1532385897979,-3,0,0,0,2,-3,-1,2
1532385897984,0,2,-3,-2,-2,1,-7,-3
1532385897989,0,-3,-1,-2,2,-3,-4,-3
1532385897994,3,1,-1,4,3,-1,2,4
1532385897999,-2,-1,-1,-2,-7,-2,-6,-9
1532385898004,-2,-3,0,1,-1,-2,6,-1
1532385898009,1,0,0,-1,-2,-3,2,0
1532385898014,-9,7,-2,-3,0,-3,-3,-6
1532385898019,19,-6,-1,-4,-4,-1,-4,7
1532385898024,-5,-2,1,4,6,-2,0,-2
1532385898029,-1,-2,-2,-5,-6,-3,0,-1
1532385898034,-3,-3,-2,-3,-3,-2,1,0
1532385898039,-1,6,0,-2,2,0,1,1
1532385898044,0,-3,3,3,1,-1,-2,-1
1532385898049,0,1,-1,1,-1,-2,-2,1
1532385898054,3,-1,0,-3,-1,-1,1,2
1532385898059,-5,0,-2,-2,-3,-2,4,-4
1532385898064,1,-1,0,0,-2,-2,1,1
1532385898069,-2,1,2,6,1,1,-5,-3
1532385898074,-1,-8,-4,-6,1,0,-2,-1
1532385898079,-3,3,1,0,1,-1,1,1
1532385898084,0,1,-3,-5,-8,-2,2,0
1532385898089,4,1,0,-4,-7,-2,-2,0
1532385898094,-3,-1,1,3,0,-1,-2,-1
1532385898099,-3,-3,0,-2,-2,-2,1,-2
1532385898104,0,2,-1,2,1,-1,0,0
1532385898109,-1,-1,-4,-4,-2,-2,-1,-1
1532385898114,2,-2,-1,0,-6,0,-4,-3
1532385898119,-5,0,1,4,1,1,1,-1
1532385898124,-2,-2,-2,-1,-3,-1,-1,-1
1532385898129,-3,-2,-2,-5,0,0,-2,0
1532385898134,0,-1,2,0,3,-5,-1,-1
1532385898139,-1,0,-2,-1,-4,-2,-3,-3
1532385898144,2,-2,-1,-1,-2,0,-3,-1
1532385898149,-1,-1,1,0,0,-1,-4,-3
1532385898154,0,0,1,4,7,-2,0,0
1532385898159,0,0,-2,0,0,-3,17,4
1532385898164,-2,-2,-4,-7,-3,-3,-29,-7
1532385898169,-2,1,1,4,6,0,36,7
1532385898174,-1,-1,-1,0,-3,-2,-2,-3
1532385898179,3,0,1,0,2,-1,1,2
1532385898184,2,4,2,2,0,-2,-6,1
1532385898189,-3,-7,-2,-2,-3,-2,-7,-3
1532385898194,3,-1,-2,-4,-4,-1,3,3
1532385898199,2,1,1,-2,-6,0,-5,-12
1532385898204,-1,-2,1,4,11,-3,17,8
1532385898209,0,3,-2,-6,-7,-3,-10,-2
1532385898214,-12,-6,-1,-1,-2,-2,4,-3
1532385898219,6,0,-3,-5,-7,-2,-12,0
1532385898224,-2,-1,-1,-2,-4,-5,1,-2
1532385898229,0,5,1,3,9,-2,0,-2
1532385898234,0,0,-3,1,-7,-2,-6,-2
1532385898239,3,0,0,-5,-2,0,0,1
1532385898244,2,1,2,2,6,0,7,-3
1532385898249,0,-5,-3,-1,-4,1,-2,0
1532385898254,0,1,1,-1,2,-1,1,1
1532385898259,-4,-1,-1,3,-2,-3,-5,-3
1532385898264,0,0,-5,-7,-1,0,4,-2
1532385898269,-1,-6,-1,-2,-6,-2,-8,-4
1532385898274,-2,-1,-1,-1,2,0,-4,-2
1532385898279,9,-1,-1,-1,3,-2,1,2
1532385898284,-6,1,1,1,-3,-1,-3,-2
1532385898289,0,2,0,2,-2,0,0,0
1532385898294,0,-2,-3,-1,-4,3,0,-3
1532385898299,-6,-1,-1,0,5,2,1,1
1532385898304,1,0,-1,-3,-5,1,-1,-1
1532385898309,1,-1,3,2,4,1,-3,-1
1532385898314,2,1,1,4,3,0,1,1
1532385898319,-5,-3,-2,-3,-6,1,-3,-1
1532385898324,-1,-1,-2,-2,-2,3,-1,0
1532385898329,-3,2,0,0,2,0,1,0
1532385898334,2,0,0,-1,-3,0,-1,-1
1532385898339,-4,-1,0,-1,1,-2,-2,-1
1532385898344,-1,-4,-2,0,0,0,-1,-2
1532385898349,3,-1,0,1,-2,0,0,1
1532385898354,1,-1,-3,-4,-2,-1,0,-2
1532385898359,-6,0,0,3,-2,0,-3,-4
1532385898364,3,0,1,-1,-1,0,0,-1
1532385898369,-1,-3,-3,-4,-1,-4,-3,-2
1532385898374,-8,-4,-1,0,-4,-3,0,0
1532385898379,13,-1,-2,0,-2,-1,-2,-1
1532385898384,1,0,-2,-1,-2,-2,0,-2
1532385898389,-5,-2,0,0,4,-2,-1,-1
1532385898394,-5,3,3,1,-5,2,-2,-2
1532385898399,-6,-6,-3,-3,1,-2,-3,2
1532385898404,2,1,-1,1,1,-2,2,1
1532385898409,1,1,0,-1,-1,0,2,-1
1532385898414,3,-1,-3,-1,-1,-2,1,-1
1532385898419,-6,0,1,-2,2,-1,3,0
1532385898424,0,-2,-3,-1,0,0,0,0
1532385898429,-2,-2,-5,-5,-8,-3,-4,-3
1532385898434,0,0,-1,-3,4,-2,-4,-2
1532385898439,1,0,2,1,3,-1,4,0
1532385898444,-2,-2,0,1,-3,-4,-3,-2
1532385898449,0,0,-1,0,-2,0,-1,-2
1532385898454,2,-2,1,0,1,-2,-1,-1
1532385898459,-2,0,0,0,0,-1,0,-3
1532385898464,-1,-1,3,2,1,1,2,0
1532385898469,-2,-2,-1,-2,-2,2,-1,1
1532385898474,2,0,1,1,-2,0,-1,0
1532385898479,-4,0,-2,-2,-3,-5,-3,-2
1532385898484,0,1,1,0,0,-3,2,-1
1532385898489,0,-3,-2,0,-2,-4,-3,1
1532385898494,0,0,-3,-2,-3,0,-1,1
1532385898499,-2,-1,-2,0,0,0,-1,-7
1532385898504,-6,-5,-1,0,-3,-2,-3,-1
1532385898509,0,2,0,-1,-4,-2,-1,-2
1532385898514,1,-4,0,1,0,-2,0,1
1532385898519,1,1,-3,-1,3,-2,3,1
1532385898524,1,-2,-3,-3,-3,-2,-4,-1
1532385898529,-1,1,0,-1,1,1,2,-2
1532385898534,-5,-2,-1,-1,-4,-2,-2,-3
1532385898539,10,0,0,1,-3,-2,-2,5
1532385898544,-3,-3,-3,-4,-5,-4,0,-1
1532385898549,-1,0,-1,2,0,-2,1,-1
1532385898554,1,-1,-2,-1,-1,3,-4,-3
1532385898559,-4,-1,-1,2,-1,-2,0,-1
1532385898564,0,1,0,1,2,0,-1,-1
1532385898569,1,-1,0,0,-2,0,-3,-1
1532385898574,-3,-7,-1,-1,-1,-5,0,0
1532385898579,-2,1,1,-1,0,-3,0,0
1532385898584,1,-2,-2,-4,-3,1,-3,-3
1532385898589,0,2,0,0,0,-3,0,0
1532385898594,2,3,1,1,6,-3,4,-2
1532385898599,-4,-3,-1,2,-2,0,-3,-2
1532385898604,2,2,2,-1,1,0,0,-2
1532385898609,-1,-3,-1,-3,-2,-3,-2,-2
1532385898614,2,-1,-1,-2,-2,-2,-2,0
1532385898619,-3,-2,-1,3,3,-2,-4,-7
1532385898624,4,-1,-2,1,3,0,3,3
1532385898629,-5,-3,-3,-6,-5,-4,-2,-4
1532385898634,2,-3,-3,-1,0,-1,-1,1
1532385898639,-2,1,1,-3,-5,-1,0,2
1532385898644,-2,-1,0,0,0,1,-3,-4
1532385898649,1,-1,0,3,2,5,1,-1
1532385898654,-1,-1,-1,0,-1,-1,-1,-2
1532385898659,-2,1,-2,-4,-3,1,-2,-1
1532385898664,0,-2,0,-2,1,-3,-1,0
1532385898669,1,-1,-2,-3,-2,0,-2,-1
1532385898674,3,2,1,-1,2,1,0,-1
1532385898679,-7,-1,-2,1,1,1,-2,-2
1532385898684,7,-2,1,0,-4,1,-2,-2
1532385898689,-1,-4,-3,2,3,2,1,-1
1532385898694,-1,-1,-2,-2,-6,0,-3,-2
1532385898699,1,-3,-1,-1,4,2,0,1
1532385898704,-2,4,0,4,-1,2,0,0
1532385898709,-1,-1,-3,-4,-1,3,-2,-1
1532385898714,-2,0,-3,-1,-3,1,0,-1
1532385898719,-2,-2,-2,0,-1,1,0,-2
1532385898724,-1,0,0,0,4,-1,1,1
1532385898729,-5,-3,1,1,-5,-2,-4,-2
1532385898734,-1,1,-1,0,2,-3,-1,0
1532385898739,-2,-5,0,2,1,-1,0,1
1532385898744,-1,8,0,-2,-1,-4,-2,-1
1532385898749,2,-7,-2,-1,-4,-6,1,1
1532385898754,-1,1,1,-2,0,0,-2,-2
1532385898759,-1,0,-2,-2,-5,-2,-3,-7
1532385898764,-3,-2,0,0,0,-3,1,-1
1532385898769,0,5,0,-3,0,-2,0,1
1532385898774,-1,-2,-1,0,-2,-2,1,0
1532385898779,2,-1,-1,-2,-1,-3,-2,2
1532385898784,-6,-4,-2,0,-2,1,-1,-3
1532385898789,0,1,1,-1,1,-2,0,1
1532385898794,1,-3,-1,1,-2,-2,-1,0
1532385898799,-2,-1,-1,-1,-2,-1,-1,2
1532385898804,1,-1,-4,-4,-4,-3,-3,-2
1532385898809,3,8,3,1,0,-3,1,-1
1532385898814,-2,-7,0,0,5,-3,2,0
1532385898819,1,1,0,-1,-3,-3,-3,1
1532385898824,-3,-7,-3,1,-2,-2,-2,-2
1532385898829,0,-1,-2,-6,-3,-1,-4,-3
1532385898834,-2,4,2,0,-2,-4,-3,-2
1532385898839,1,-5,-1,0,1,-5,4,0
1532385898844,0,-2,0,0,-2,0,-1,1
1532385898849,-7,-3,0,0,-1,-2,-1,-3
1532385898854,0,1,-1,-3,-1,-1,-3,-1
1532385898859,0,0,-3,-3,-6,3,-4,-1
1532385898864,3,-2,-1,0,4,1,5,5
1532385898869,-1,-1,-1,1,1,-3,-2,-5
1532385898874,-2,0,-1,-2,3,1,-1,-1
1532385898879,0,0,1,0,1,-3,0,0
1532385898884,1,0,1,-2,-2,-6,-2,-4
1532385898889,-2,-2,-2,-5,-1,0,1,-1
1532385898894,-2,-1,-1,1,-2,0,-1,-3
1532385898899,1,-1,-1,-2,-1,-2,0,0
1532385898904,0,0,0,0,5,-1,-1,1
1532385898909,1,-1,0,3,1,-1,-3,-1
1532385898914,-3,-1,0,2,0,-2,-1,-1
1532385898919,3,-2,0,-2,1,-1,0,0
1532385898924,-5,-1,-3,-3,-3,0,0,-4
1532385898929,2,0,0,0,1,-3,-1,-1
1532385898934,1,0,-1,-1,1,1,0,-1
1532385898939,-1,2,0,2,-3,-1,-3,-1
1532385898944,-2,-2,-2,-2,0,0,1,-1
1532385898949,-4,0,3,2,5,-4,2,2
1532385898954,0,-2,0,0,1,0,-1,1
1532385898959,-3,-2,0,-1,-3,0,-1,-1
1532385898964,-9,-1,-1,-4,-7,-1,-3,-5
1532385898969,10,-1,-3,-2,-2,2,-1,5
1532385898974,-1,1,-1,0,4,-4,2,-2
1532385898979,-1,7,1,-3,-1,-2,1,-2
1532385898984,2,-11,-3,0,1,-2,-1,-1
1532385898989,-4,2,1,2,2,-1,0,-1
1532385898994,1,-5,-1,0,-6,-3,1,1
1532385898999,-1,-1,1,1,6,4,-1,-2
1532385899004,-4,-2,-2,-3,-5,3,0,-1
1532385899009,-2,-1,-4,-5,-4,-1,-2,-2
1532385899014,-2,-1,-1,0,-5,-3,-3,-2
1532385899019,-3,-1,1,1,-2,-2,0,-3
1532385899024,3,2,-1,-1,-1,-3,-2,-1
1532385899029,0,-4,-3,-2,5,2,2,-1
1532385899034,-6,1,0,2,0,1,-2,-4
1532385899039,-2,-6,-2,-3,-1,3,-2,-1
1532385899044,1,1,1,0,1,5,-1,-1
1532385899049,-1,0,2,-1,-6,2,-3,-3
1532385899054,0,-1,-1,-3,2,2,1,2
1532385899059,1,-1,-1,-1,1,3,0,0
1532385899064,-2,0,0,0,-1,-5,-3,-1
1532385899069,3,-2,-1,1,-1,3,-1,-1
1532385899074,-5,0,0,-2,-3,0,-3,-2
1532385899079,1,-1,-5,-1,-1,-5,2,2
1532385899084,0,-6,-2,-2,1,-1,1,-3
1532385899089,-3,-2,-1,1,1,4,-1,0
1532385899094,-1,3,1,0,-3,-1,-1,2
1532385899099,3,0,0,-4,-4,0,-3,-6
1532385899104,-4,4,4,4,11,0,4,5
1532385899109,-3,-1,-3,-2,-1,-4,-1,-3
1532385899114,3,-4,-3,-5,-3,2,-1,0
1532385899119,-4,0,-1,0,-4,-6,-1,0
1532385899124,-1,1,0,0,-4,-1,-2,-2
1532385899129,-1,-2,3,3,-1,0,-1,0
1532385899134,0,-1,-2,0,0,-1,2,0
1532385899139,-1,-2,-2,-1,7,0,1,-1
1532385899144,2,0,0,-1,-4,-2,-1,-1
1532385899149,-1,-1,2,0,0,-7,1,-2
1532385899154,0,-1,-1,-2,-4,-2,-2,-4
1532385899159,0,-1,1,-1,-1,0,-2,0
1532385899164,0,2,-1,1,-2,1,-2,0
1532385899169,-4,-4,-4,0,-6,3,-3,-1
1532385899174,2,-1,-1,-3,1,0,2,0
1532385899179,-3,-3,-4,-5,-5,-2,-3,-4
1532385899184,0,0,0,-1,0,0,-3,1
1532385899189,3,1,0,2,-1,-2,-1,-1
1532385899194,-5,-2,-2,1,-1,-2,-1,-2
1532385899199,1,0,-2,2,2,1,1,1
1532385899204,-1,0,0,0,-4,-2,-2,-3
1532385899209,0,-7,-2,0,-1,-1,0,4
1532385899214,-1,-1,-1,-2,-1,-1,-3,-6
1532385899219,-3,-1,-1,-4,-1,-3,1,1
1532385899224,-5,-4,0,-2,0,-1,-1,-2
1532385899229,12,3,1,-1,0,0,2,0
1532385899234,2,0,1,2,1,-1,1,6
1532385899239,0,1,1,2,-3,-2,-2,-2
1532385899244,-3,-2,-1,-2,-1,-3,0,-1
1532385899249,-3,3,-1,-3,-2,0,-2,-1
1532385899254,-1,-1,-1,-3,-2,1,-1,-4
1532385899259,-2,-3,0,1,-2,-3,-1,-1
1532385899264,2,2,-2,1,2,-1,-1,-2
1532385899269,-6,-4,-3,-5,-4,-4,-4,-3
1532385899274,2,1,-1,4,3,-3,3,-2
1532385899279,-2,0,0,-4,-5,2,-2,0
1532385899284,1,3,0,-3,-4,-4,-2,0
1532385899289,-6,0,1,-1,0,-3,-1,-8
1532385899294,1,-1,-1,3,0,-4,-3,-1
1532385899299,0,2,-3,-4,-3,-3,0,-2
1532385899304,1,-10,-2,-2,-3,3,-1,-1
1532385899309,-1,-1,-1,-1,0,0,3,2
1532385899314,-1,3,0,0,2,-1,0,-3
1532385899319,0,-2,-1,3,0,-4,-1,0
1532385899324,0,2,-1,-2,-1,0,1,-2
1532385899329,-1,2,0,2,1,2,0,-1
1532385899334,-8,-7,1,-1,-2,1,0,2
1532385899339,9,0,-2,-2,0,1,-4,-3
1532385899344,-5,1,1,-1,2,-3,0,-5
1532385899349,0,-3,0,0,-2,-1,-1,0
1532385899354,0,2,1,-1,-2,-2,-1,0
1532385899359,-2,0,-1,-2,3,1,3,0
1532385899364,-2,-2,2,1,-1,-2,-1,0
1532385899369,-5,0,-3,-2,6,-3,1,-5
1532385899374,3,2,1,1,-7,-3,-2,0
1532385899379,-2,-1,1,0,9,-1,2,1
1532385899384,6,-4,-2,-1,-3,0,-1,0
1532385899389,-7,7,3,3,-2,-1,-2,2
1532385899394,2,-12,-3,-3,-1,0,-1,-4
1532385899399,-1,-1,-2,0,-2,0,-1,0
1532385899404,-2,3,-1,-2,2,2,0,0
1532385899409,2,-2,-2,-2,-1,-2,-2,-1
1532385899414,1,4,-1,-2,-3,-1,-1,0
1532385899419,0,-2,1,5,-3,1,1,-1
1532385899424,1,-3,-3,-3,-1,-3,-2,-1
1532385899429,-3,0,-4,-4,1,1,0,-8
1532385899434,-1,1,0,-1,-1,2,-3,1
1532385899439,-1,-1,-2,-2,-1,-1,3,0
1532385899444,0,4,0,3,2,-1,0,0
1532385899449,0,-4,2,0,-5,-1,-1,1
1532385899454,1,1,2,0,8,1,0,-2
1532385899459,-2,-2,1,-3,-4,-1,-1,0
1532385899464,-1,-1,-1,-2,-1,0,0,-2
1532385899469,1,1,0,0,-2,-1,-3,-1
1532385899474,-1,-1,-2,-3,-2,-2,1,0
1532385899479,-1,1,0,1,3,-1,2,0
1532385899484,0,-1,-1,-1,-3,1,-1,-1
1532385899489,1,-1,-2,-3,-2,-4,-2,-1
1532385899494,-6,-5,0,2,-3,0,-3,-2
1532385899499,5,1,-1,-2,1,-4,-3,-3
1532385899504,-2,-1,-2,-2,0,-3,-1,-3
1532385899509,-3,5,0,0,-3,-3,1,0
1532385899514,0,-11,-2,0,-2,-2,-2,-1
1532385899519,-1,0,-2,-1,-1,-3,-2,0
1532385899524,-3,0,2,4,1,-1,-1,-6
1532385899529,2,-1,0,-1,-1,-1,-1,0
1532385899534,-4,0,-2,-5,-2,-3,0,-3
1532385899539,0,-1,-3,-2,-4,-1,-1,-1
1532385899544,2,1,-1,-1,-1,-3,0,1
1532385899549,-1,-8,-1,0,0,-1,0,0
1532385899554,2,2,-1,-1,-2,-2,-3,0
1532385899559,-6,-2,-2,0,-4,-2,-4,-9
1532385899564,-4,-2,-1,-2,0,0,1,0
1532385899569,1,-1,0,1,7,1,0,-1
1532385899574,1,2,-1,2,0,-2,0,2
1532385899579,-1,-2,0,-3,-2,-2,-2,-2
1532385899584,-1,-1,0,-2,-1,-5,-1,-1
1532385899589,0,-2,-1,-3,-2,-2,-3,1
1532385899594,0,0,1,0,1,-3,1,-1
1532385899599,-3,5,2,1,0,0,2,2
1532385899604,1,-13,-4,-2,-3,-3,-1,-2
1532385899609,1,1,-2,-3,1,-1,-1,1
1532385899614,1,5,1,0,-2,-1,-2,1
1532385899619,-1,-1,0,1,0,0,-3,-2
1532385899624,-3,2,-2,-2,-4,2,-4,-1
1532385899629,1,-1,2,0,2,-2,5,0
1532385899634,-3,-2,-1,0,1,1,-1,-7
1532385899639,-1,2,3,2,-1,-2,1,0
1532385899644,1,-3,-3,-1,-2,3,-2,1
1532385899649,-3,-1,-1,0,-3,-4,-1,-3
1532385899654,0,-1,-2,-3,-2,0,0,0
1532385899659,-3,-2,-1,0,2,-2,0,-1
1532385899664,-3,0,1,-2,0,-1,-1,-3
1532385899669,-2,-1,-2,1,3,0,-5,-8
1532385899674,3,2,0,-1,-6,-2,2,2
1532385899679,-1,-4,-1,2,4,-2,-2,0
1532385899684,2,1,-1,-3,-4,0,-3,1
1532385899689,1,0,-3,-1,-1,1,-1,1
1532385899694,-1,-1,0,-3,-3,-4,-3,-4
1532385899699,-2,-3,0,-1,0,2,-1,-1
1532385899704,-1,1,0,2,0,-3,-1,1
1532385899709,3,-1,0,2,-2,-4,-1,0
1532385899714,-1,-3,-1,-1,2,0,0,-2
1532385899719,1,-1,-2,-4,-2,-1,2,0
1532385899724,3,0,0,-1,0,-2,-2,-2
1532385899729,-5,-1,-1,-1,0,1,1,-1
1532385899734,-1,0,-2,2,2,0,-1,1
1532385899739,-1,-1,-2,-1,-1,-2,-1,-1
1532385899744,0,1,1,1,1,-4,1,0
1532385899749,-2,1,-2,-2,-7,-4,-3,-1
1532385899754,-4,-2,-3,-2,-2,0,-1,-2
1532385899759,0,0,0,-1,2,-3,1,0
1532385899764,1,6,3,5,-1,1,1,-1
1532385899769,-7,-10,-2,-3,-6,-3,-2,-1
1532385899774,2,2,-3,-3,-3,-1,0,0
1532385899779,-5,-6,-3,-4,-5,1,-9,-3
1532385899784,-1,0,0,0,1,-2,-10,-1
1532385899789,3,2,3,3,2,1,-5,3
1532385899794,0,-1,0,0,1,-1,-3,2
1532385899799,0,0,-2,-2,1,-2,1,-3
1532385899804,0,0,-2,-1,1,1,4,0
1532385899809,0,-2,-2,-3,-3,1,0,-2
1532385899814,0,0,-1,0,-1,0,1,-1
1532385899819,1,1,2,0,1,3,4,2
1532385899824,-3,-5,-2,-2,-5,1,3,1
1532385899829,0,0,-2,-5,1,-1,2,-2
1532385899834,-3,1,3,2,-2,-1,0,-1
1532385899839,1,-3,-2,-1,-1,0,2,-1
1532385899844,-1,4,-1,-5,0,0,-2,-4
1532385899849,-3,-13,-1,-1,-2,-1,-1,1
1532385899854,0,0,0,-1,1,-1,1,-2
1532385899859,2,0,2,2,-1,-2,0,0
1532385899864,-5,-4,-2,-3,0,-2,1,-2
1532385899869,5,5,1,3,1,-3,2,0
1532385899874,-1,-3,-1,-4,1,-3,0,0
1532385899879,0,-4,-2,2,-1,-4,-1,0
1532385899884,2,0,2,0,-1,-4,1,-1
1532385899889,0,0,-1,3,-2,-3,-2,-1
1532385899894,1,2,0,1,-1,-1,0,0
1532385899899,-7,1,-4,-4,-5,-3,-4,-2
1532385899904,9,-2,-1,0,-2,-4,-1,-1
1532385899909,-3,6,1,0,3,-3,2,0
1532385899914,-1,-9,-2,-1,-1,-1,-1,-1
1532385899919,2,5,1,-1,-1,0,-1,2
1532385899924,-8,-5,1,2,0,0,-5,-7
1532385899929,0,-1,-2,-2,-1,0,0,0
1532385899934,0,3,-4,-1,3,-1,0,-2
1532385899939,0,-3,-1,-2,-2,-1,-1,0
1532385899944,-2,2,-2,-1,-2,-1,-1,-1
1532385899949,1,2,0,-1,-1,-1,-1,-1
1532385899954,-2,-2,-1,-2,-3,-3,-3,1
1532385899959,3,-3,-1,2,8,-4,2,0
1532385899964,-3,0,-1,-2,-2,-4,0,1
1532385899969,0,1,1,-1,-1,-1,0,-2
1532385899974,-3,10,1,0,-1,0,0,-3
1532385899979,-1,-12,-3,-3,-3,-3,-2,-3
1532385899984,0,-7,-2,-1,-2,-1,0,0
1532385899989,-3,-2,2,1,1,-1,-3,-2
1532385899994,0,1,1,-4,-4,-3,-1,-1
1532385899999,0,1,-3,-3,-2,-1,0,-2
1532385900004,-3,1,-1,-1,1,3,0,-1
1532385900009,0,-3,-3,0,-2,-1,0,-1
1532385900014,1,-2,-2,1,1,-1,-1,0
1532385900019,-2,2,0,-3,-4,-1,-1,-2
1532385900024,-1,-3,-1,-1,1,1,-1,-3
1532385900029,0,9,-2,-1,0,-2,-2,-1
1532385900034,0,-13,-4,-2,1,0,-1,-1
1532385900039,2,2,1,0,-2,-2,-1,-1
1532385900044,-1,0,2,0,-2,-3,-2,1
1532385900049,-4,-2,-1,-3,2,3,1,-1
1532385900054,10,2,1,0,0,-1,-1,-2
1532385900059,-3,0,-2,-1,0,0,-2,-8
1532385900064,-1,-1,-1,-1,-9,1,-1,1
1532385900069,0,2,-2,1,1,-3,-1,-2
1532385900074,-3,-7,0,1,0,-3,-1,2
1532385900079,0,0,-3,-2,-2,0,0,0
1532385900084,0,3,1,-2,0,-4,-1,-4
1532385900089,0,-4,-3,-3,-2,-2,1,0
1532385900094,-3,3,-1,0,1,-2,-2,-2
1532385900099,0,11,5,5,1,-1,0,0
1532385900104,-1,-14,-4,-3,2,-1,0,-1
1532385900109,2,-4,2,0,-3,-1,-2,-6
1532385900114,-3,0,1,-3,-3,-3,0,-3
1532385900119,-4,-2,0,-3,-5,-1,0,-1
1532385900124,1,6,-3,0,3,-2,0,0
1532385900129,2,-2,-1,0,0,-1,2,1
1532385900134,-3,-4,-1,2,0,0,-1,-2
1532385900139,1,-1,-3,-2,-5,-2,-2,1
1532385900144,-3,-6,-1,-2,-2,-3,-1,-1
1532385900149,1,0,-2,0,0,1,-1,0
1532385900154,-3,-1,1,-1,-5,2,-3,-1
1532385900159,-1,-3,0,1,7,-1,4,0
1532385900164,-1,-4,-2,2,-1,1,1,-1
1532385900169,-3,-1,1,-2,-3,1,-3,-2
1532385900174,-2,0,0,-2,-4,-1,-3,0
1532385900179,-2,9,4,0,-2,1,-2,-9
1532385900184,1,-6,3,2,2,-2,1,2
1532385900189,-2,-3,-3,-1,-2,-1,-2,-1
1532385900194,-3,7,1,1,-4,2,-2,0
1532385900199,2,-10,0,0,5,1,1,1
1532385900204,5,10,0,-4,-1,-1,-2,-1
1532385900209,-4,-7,-2,0,-1,1,0,2
1532385900214,-1,0,-3,-4,-2,2,-3,-1
1532385900219,-3,-1,-1,-1,0,1,-1,-2
1532385900224,3,0,0,-1,1,1,2,3
1532385900229,-1,3,0,0,-1,-1,-1,1
1532385900234,-1,-11,-5,-1,0,-2,0,-3
1532385900239,-3,0,4,2,-5,-3,-2,0
1532385900244,-4,1,-1,-1,4,-2,-1,-1
1532385900249,1,2,-2,-2,-1,-4,2,-3
1532385900254,-2,0,-1,0,2,-3,-1,1
1532385900259,-2,-1,-3,-2,-3,1,-3,-6
1532385900264,1,-5,-1,0,0,1,-1,-1
1532385900269,-1,3,0,0,-3,-2,-2,0
1532385900274,2,-1,-1,1,6,-4,6,1
1532385900279,3,-1,-1,0,-2,-1,-4,3
1532385900284,-4,2,0,-1,-3,-1,-3,-3
1532385900289,2,0,0,-2,4,1,0,1
1532385900294,1,3,1,0,-1,-3,-1,-2
1532385900299,0,-3,1,1,0,-3,-2,2
1532385900304,-2,0,0,-1,-3,-1,-1,-2
1532385900309,-1,-8,-2,-2,-4,-3,-2,0
1532385900314,0,3,-1,-1,-1,-3,1,-3
1532385900319,-7,-11,-1,0,1,1,1,-1
1532385900324,7,5,2,-2,-7,-2,-4,-2
1532385900329,-2,-2,2,1,3,-2,1,0
1532385900334,2,0,0,-1,-1,-1,-1,-1
1532385900339,-4,-2,-3,-1,-5,-4,-2,-2
1532385900344,-3,-2,0,1,10,1,3,3
1532385900349,1,1,1,-1,-2,0,-4,-1
1532385900354,2,1,-2,-1,0,-5,-1,-1
1532385900359,-4,-1,-3,2,-2,-4,-1,-8
1532385900364,-2,-2,0,-3,-2,-1,-2,1
1532385900369,-2,-1,0,1,0,-1,-3,-5
1532385900374,-2,-3,-3,-3,-2,1,0,0
1532385900379,3,-1,-3,-4,-3,0,-2,0
1532385900384,0,-2,-2,-2,1,0,3,-2
1532385900389,-2,0,-1,-2,-3,-1,0,-1
1532385900394,0,-1,1,2,4,-2,-1,-2
1532385900399,2,1,-1,-1,-4,-2,0,1
1532385900404,0,8,-2,-3,-4,-4,-2,-2
1532385900409,-3,-11,-2,-2,0,0,0,-5
1532385900414,-2,0,-1,0,-2,-1,-2,-1
1532385900419,2,0,-1,-3,0,0,0,1
1532385900424,-2,-1,1,3,0,-4,-1,-1
1532385900429,2,2,-2,1,0,-1,1,-1
1532385900434,-1,-2,1,0,1,-1,1,-1
1532385900439,-1,1,1,-1,1,-2,-3,-1
1532385900444,1,-3,-4,-3,-4,-2,-1,-1
1532385900449,-3,2,-2,-4,-4,0,-3,-1
1532385900454,-1,-3,-1,0,3,-2,2,-2
1532385900459,3,4,1,0,0,-3,-1,3
1532385900464,-3,0,-1,1,0,-3,-2,-3
1532385900469,1,-6,-1,-2,-2,-2,-2,-1
1532385900474,-7,0,-3,-2,-4,-2,-2,-1
1532385900479,7,-3,-2,0,-5,-2,-1,-2
1532385900484,-8,-1,-1,0,3,-2,0,-7
1532385900489,2,1,0,1,0,-1,-1,2
1532385900494,-5,0,-1,-2,-5,2,-2,-3
1532385900499,1,0,-2,0,2,-1,1,3
1532385900504,-4,-9,-2,-3,-2,1,-2,-1
1532385900509,-1,3,-1,-1,2,-3,-1,-2
1532385900514,3,0,1,-2,-2,-3,-2,-1
1532385900519,-2,0,2,2,1,-3,1,-1
1532385900524,2,0,-1,-3,-2,1,-1,0
1532385900529,-2,-2,-1,2,-1,2,1,-3
1532385900534,2,2,1,-2,-1,2,2,1
1532385900539,-3,-4,-2,-2,-1,2,-4,-1
1532385900544,-2,-1,-1,0,0,1,0,-1
1532385900549,0,-1,-1,-2,-2,-1,-1,1
1532385900554,3,0,0,1,0,1,0,0
1532385900559,-5,-4,0,0,0,2,-1,-4
1532385900564,0,-1,-3,-2,-5,2,-1,0
1532385900569,-1,0,-1,0,-2,1,-2,-1
1532385900574,-1,0,0,0,4,0,0,0
1532385900579,0,-1,-1,-1,-3,-1,-3,1
1532385900584,1,-1,0,0,1,1,-2,-3
1532385900589,-3,1,0,0,0,-5,0,0
1532385900594,0,-5,-4,-1,-1,1,0,-1
1532385900599,-4,14,0,-1,1,0,1,-2
1532385900604,2,-13,-1,0,-1,0,0,1
1532385900609,0,2,0,-1,-2,-1,0,2
1532385900614,-1,1,2,1,-1,-4,-5,-2
1532385900619,1,-4,-2,1,2,-3,0,2
1532385900624,-2,4,-1,-2,-3,-3,-3,-2
1532385900629,-1,-2,0,-3,-2,-1,1,0
1532385900634,1,-3,-2,-1,-2,2,-2,-1
1532385900639,0,1,0,-1,-2,-2,-1,-2
1532385900644,-6,3,0,1,0,-2,0,-1
1532385900649,4,-5,-1,0,1,-1,-1,-1
1532385900654,-3,-3,-1,-2,-1,-3,-1,-2
1532385900659,-4,-5,-1,-4,-3,1,0,-2
1532385900664,7,2,0,-2,1,1,0,0
1532385900669,3,6,-1,3,0,1,1,3
1532385900674,-6,-10,-3,-6,1,1,-2,-6
1532385900679,2,-2,-2,-1,0,-2,1,1
1532385900684,1,-1,-1,-3,-7,-3,0,0
1532385900689,0,4,-1,-2,-3,0,-4,-4
1532385900694,1,2,2,2,3,-3,2,2
1532385900699,-3,-2,0,0,1,-2,0,-2
1532385900704,-2,0,1,0,1,-4,0,-2
1532385900709,-1,-3,-3,-1,2,-2,-2,-1
1532385900714,-6,0,-2,-3,-9,-1,-3,-3
1532385900719,-1,-1,1,-2,-4,-2,-2,-6
1532385900724,3,11,1,-1,-2,-3,0,0
1532385900729,3,-15,-1,-2,4,-2,-1,-4
1532385900734,-5,5,1,1,2,-4,0,2
1532385900739,-4,-5,-6,-2,1,0,-1,-2
1532385900744,1,4,-4,-2,0,-2,-2,-5
1532385900749,-3,-3,-3,-1,-18,-3,2,2
1532385900754,2,0,4,-1,19,-1,-4,-2
1532385900759,-1,-3,-1,-2,-1,-1,0,0
1532385900764,-3,-2,-1,-3,-2,-4,1,0
1532385900769,1,0,-5,-2,-4,-3,1,-2
1532385900774,-1,-2,-2,1,-6,-1,-3,-2
1532385900779,2,8,0,-2,-2,-1,0,2
1532385900784,-5,-16,-2,1,7,-2,-4,0
1532385900789,-2,6,0,0,3,-1,-1,-3
1532385900794,3,-1,-2,0,-7,-2,1,2
1532385900799,-1,-4,-2,-1,0,-1,0,-1
1532385900804,0,1,0,1,0,-1,0,-3
1532385900809,-5,-3,-2,-1,-3,0,-1,-1
1532385900814,2,3,1,-1,0,-3,-1,-2
1532385900819,1,-9,-6,-1,-2,-3,0,0
1532385900824,1,6,2,0,-2,-2,2,2
1532385900829,-7,-22,-3,-1,-1,-2,-4,-2
1532385900834,-2,-18,-1,-1,-5,0,0,-2
1532385900839,0,10,1,2,7,-1,-2,-1
1532385900844,-5,5,4,0,-7,-3,-2,2
1532385900849,-1,0,-2,-1,-1,-1,-1,-1
1532385900854,2,0,-3,-4,-3,-2,2,1
1532385900859,-3,-8,-4,-2,0,-4,-4,-3
1532385900864,1,0,0,1,1,-1,0,-1
1532385900869,0,8,5,-3,1,-3,0,-1
1532385900874,1,-1,-3,1,-2,-2,-1,-3
1532385900879,0,3,-1,-2,6,-1,1,0
1532385900884,2,2,0,-1,-8,-2,-2,0
1532385900889,-3,-1,-1,2,17,-1,0,-2
1532385900894,-1,3,-1,0,-5,-1,-2,-1
1532385900899,0,-1,-4,-2,-2,2,0,2
1532385900904,1,1,0,-3,15,-2,-1,-5
1532385900909,-5,1,-1,0,-22,1,0,-3
1532385900914,-3,-1,2,3,1,2,0,-1
1532385900919,-1,14,7,-1,-9,3,-1,-2
1532385900924,-7,-36,-10,-3,0,0,-2,-1
1532385900929,17,20,3,6,41,2,0,2
1532385900934,6,7,4,-3,-10,0,-3,-5
1532385900939,0,4,-2,-2,-6,-3,1,1
1532385900944,-1,-2,-1,-2,-10,3,-1,0
1532385900949,-6,10,1,-3,1,-1,-1,-3
1532385900954,-1,-24,-4,2,0,2,-1,0
1532385900959,4,9,1,-3,-1,2,-2,-1
1532385900964,-2,-1,-4,-2,-2,1,3,1
1532385900969,-3,-3,2,-1,-9,0,-2,-3
1532385900974,0,5,-1,-2,-15,-2,-1,0
1532385900979,-3,-6,-5,-3,7,-3,-3,-8
1532385900984,0,5,-1,2,-8,-2,2,4
1532385900989,-1,-8,0,-1,7,-2,-1,0
1532385900994,0,8,-2,0,-4,-5,-2,2
1532385900999,-2,-6,2,-1,-5,0,-1,0
1532385901004,-1,5,-2,2,-4,-3,-2,-1
1532385901009,0,-9,-1,-2,3,0,0,0
1532385901014,-2,2,-7,-5,7,-1,-1,-2
1532385901019,0,-18,1,1,-18,-3,3,0
1532385901024,2,26,6,2,17,-1,-2,0
1532385901029,1,0,-5,-1,-12,-2,1,-2
1532385901034,-7,3,-2,-8,3,-2,-2,-2
1532385901039,4,-10,-5,2,4,-3,-3,-2
1532385901044,-2,-1,1,-1,-1,-1,-2,-1
1532385901049,-2,-5,-1,-1,-6,-2,-1,-2
1532385901054,-5,-17,-2,2,-1,0,-1,-4
1532385901059,2,21,3,-3,4,-2,0,0
1532385901064,-2,-3,-1,0,-2,-2,-2,-3
1532385901069,-4,3,1,-3,-1,-1,-1,-1
1532385901074,1,-3,0,-1,2,-1,0,0
1532385901079,-1,-2,2,2,12,-1,0,1
1532385901084,1,0,-2,0,-3,-5,-2,-2
1532385901089,0,-2,-4,-3,-7,0,1,0
1532385901094,0,4,0,2,4,-2,2,1
1532385901099,0,-3,-1,0,0,-3,-1,-1
1532385901104,-3,-5,-1,-2,-3,1,-1,-2
1532385901109,0,-2,-1,-1,-2,-3,0,0
1532385901114,1,9,1,4,1,-1,2,0
1532385901119,-2,-10,0,-3,1,1,-3,-2
1532385901124,2,-6,-3,-4,1,1,1,-1
1532385901129,0,-1,-2,-4,-2,-1,-2,-2
1532385901134,0,2,-2,0,-2,-3,-2,-1
1532385901139,-1,2,-1,0,-2,0,0,0
1532385901144,-2,-7,-1,2,-2,-3,-3,-2
1532385901149,-1,1,3,-4,-4,0,-4,-2
1532385901154,0,2,-1,-1,4,-1,0,0
1532385901159,-1,-2,-1,-1,-3,-3,0,0
1532385901164,1,-5,-5,-1,0,1,0,1
1532385901169,-3,2,0,3,0,0,-1,-1
1532385901174,0,-1,-1,-1,-1,-5,-3,-1
1532385901179,-2,2,-4,-2,-4,0,-1,-2
1532385901184,-1,1,0,1,1,-1,0,0
1532385901189,-1,6,-1,0,1,0,-1,-2
1532385901194,0,-13,-3,-1,1,1,-1,0
1532385901199,-2,0,0,-4,-3,0,-1,-1
1532385901204,0,-1,-2,-1,-1,0,-3,-3
1532385901209,0,2,1,4,2,-3,1,-1
1532385901214,-3,1,-1,-5,-2,-3,2,-2
1532385901219,-3,-4,-1,0,2,-6,1,0
1532385901224,0,1,2,-3,-4,1,-1,-1
1532385901229,-1,-3,0,1,1,0,3,0
1532385901234,1,7,-4,0,-3,1,-2,-1
1532385901239,-1,-12,0,0,0,1,-2,-1
1532385901244,1,2,2,-2,-1,-2,-2,-2
1532385901249,-1,-2,-4,-2,-1,-2,-1,-2
1532385901254,0,-8,-4,-5,-5,-2,-1,-1
1532385901259,0,1,-1,2,5,2,0,-1
1532385901264,0,4,-1,2,-2,-1,-1,-3
1532385901269,-1,-3,0,2,-1,-1,-3,0
1532385901274,-2,-3,-2,-3,-2,0,-1,-2
1532385901279,-1,10,0,-1,-2,-3,-3,-2
1532385901284,2,-6,-2,-1,1,-1,3,-1
1532385901289,-2,2,-3,-3,-4,1,-1,-1
1532385901294,-2,-3,-1,-1,0,0,1,-1
1532385901299,0,-5,-1,-1,-1,3,1,0
1532385901304,-1,4,-1,0,2,1,-2,0
1532385901309,-1,-8,-3,1,3,0,0,-1
1532385901314,0,1,4,-1,-2,1,-1,-1
1532385901319,-1,10,-1,0,-1,-1,-2,-2
1532385901324,1,-4,-1,-3,-3,2,-1,-1
1532385901329,0,-7,-3,-3,-1,-1,-2,-1
1532385901334,-1,-3,-4,2,2,3,0,-1
1532385901339,-1,2,4,-1,-2,1,2,-1
1532385901344,-2,0,-2,-1,-4,-1,-2,-1
1532385901349,0,-8,-2,1,2,-1,3,2
1532385901354,-1,15,2,-3,1,-1,-2,-1
1532385901359,-2,-7,-6,-1,-1,1,-2,-1
1532385901364,-1,8,5,-1,2,-2,-3,-2
1532385901369,-2,-21,0,3,-3,-3,-3,-2
1532385901374,1,8,1,-4,-1,-4,1,0
1532385901379,0,-10,-5,-4,-4,-3,-2,-1
1532385901384,-1,2,0,-1,1,-2,4,-1
1532385901389,1,0,0,-3,-6,-2,-1,-1
1532385901394,-3,-2,-2,1,-2,1,-3,-1
1532385901399,0,-1,0,1,0,-4,0,0
1532385901404,0,-5,-5,-4,-2,-2,-3,-1
1532385901409,1,12,2,-1,-1,-1,-2,0
1532385901414,-1,-2,-1,2,-2,-1,-1,-1
1532385901419,0,-4,0,-3,1,0,-3,-1
1532385901424,-2,-2,-1,0,0,-2,2,-1
1532385901429,-1,3,-2,-2,1,-2,0,-1
1532385901434,-2,-3,3,1,-1,-2,0,-1
1532385901439,0,2,-1,1,1,0,2,0
1532385901444,-1,-3,-1,-2,-1,-6,-1,0
1532385901449,-1,2,0,1,0,0,0,0
1532385901454,0,-1,0,-2,1,-1,-2,-1
1532385901459,1,1,0,0,-4,1,-3,-2
1532385901464,-3,-5,-3,-2,4,-2,-2,-1
1532385901469,0,0,-1,-2,-2,-3,1,-1
1532385901474,-1,6,-1,2,4,-3,1,-1
1532385901479,-2,-9,-2,-2,-3,-1,-1,0
1532385901484,-3,0,2,0,-1,0,0,-1
1532385901489,-2,-6,1,-3,-4,-2,-3,-4
1532385901494,0,-1,-1,0,2,-2,2,0
1532385901499,-2,-1,1,0,-2,-4,-2,-1
1532385901504,1,5,-2,1,1,-1,2,0
1532385901509,2,2,-3,-1,0,-1,-1,-1
1532385901514,-4,-5,1,-3,-4,0,-4,-2
1532385901519,-2,2,-3,0,0,-5,-1,-2
1532385901524,0,-5,-1,-1,-2,1,-1,-2
1532385901529,0,5,0,-1,-1,3,1,-1
1532385901534,1,-5,-3,1,-1,-2,0,-2
1532385901539,-1,2,0,-6,-2,-2,0,-1
1532385901544,-3,-5,-1,-1,-2,-3,-1,-1
1532385901549,-2,0,-1,-1,1,0,-2,-1
1532385901554,1,3,1,0,-2,1,0,0
1532385901559,-1,-6,1,2,4,0,0,-2
1532385901564,1,-1,-1,0,-4,-2,-1,0
1532385901569,-2,1,-3,-4,1,-2,-1,-1
1532385901574,0,-3,-1,-3,-3,-4,-3,-1
1532385901579,0,2,-1,0,-3,-3,-1,-2
1532385901584,-1,8,0,0,0,1,-2,-2
1532385901589,-5,-7,-1,2,3,0,1,-1
1532385901594,0,3,1,2,1,0,-2,-1
1532385901599,-1,-6,0,-1,-1,-1,0,-2
1532385901604,0,-2,-3,-2,-2,-2,-1,-2
1532385901609,1,5,-2,-2,-6,-3,-1,0
1532385901614,0,-4,1,0,0,-3,-3,-1
1532385901619,0,2,3,0,0,1,-1,-1
1532385901624,-3,-5,0,5,2,-6,1,-1
1532385901629,-1,-3,-2,-4,-1,-6,-2,0
1532385901634,-1,1,-4,-2,-5,-2,-1,-2
1532385901639,2,4,-3,0,5,1,3,1
1532385901644,0,-3,-3,-2,-3,-2,-2,-1
1532385901649,-1,-3,0,2,1,1,-2,-3
1532385901654,0,-1,-3,0,-1,-1,-2,-1
1532385901659,-1,2,-2,-4,-2,-1,-1,-2
1532385901664,1,-4,0,-2,-1,6,2,0
1532385901669,-1,1,0,1,0,-1,0,0
1532385901674,1,-2,-3,-1,-2,0,-1,-2
1532385901679,-1,-2,0,2,0,1,2,0
1532385901684,1,0,-1,1,-1,-1,0,-1
1532385901689,0,0,-1,-1,-3,-2,-5,-1
1532385901694,-1,-1,0,-2,1,1,-2,-2
1532385901699,-3,-3,-3,0,-5,1,-2,0
1532385901704,2,0,-1,-3,1,-2,1,-2
1532385901709,1,3,2,1,-1,2,0,1
1532385901714,0,-5,-1,0,-1,2,1,-2
1532385901719,-2,0,-3,-3,-3,0,-2,-4
1532385901724,-1,-1,1,-2,2,1,0,-1
1532385901729,0,2,1,0,0,0,-3,0
1532385901734,-2,-3,-2,-1,1,-1,-1,0
1532385901739,0,1,-1,1,-2,-2,-2,-1
1532385901744,0,0,-2,-1,-2,-1,0,0
1532385901749,-1,-5,-2,-4,0,-2,-7,-3
1532385901754,-2,-3,-2,0,1,-4,3,-2
1532385901759,1,2,2,3,0,-3,5,-1
1532385901764,0,0,-4,-4,-2,-2,-4,-2
1532385901769,1,1,1,-1,-3,-1,-1,-3
1532385901774,4,4,2,3,-3,-1,-5,1
1532385901779,-8,-4,-2,0,3,-3,1,0
1532385901784,-1,-4,1,-2,2,0,14,2
1532385901789,-2,0,-1,0,-2,-3,-7,-3
1532385901794,1,-3,-2,-3,-2,-3,3,-1
1532385901799,2,1,-2,-2,0,-1,-3,-1
1532385901804,-1,1,-1,2,0,1,2,1
1532385901809,-1,-1,-2,-2,1,2,4,-2
1532385901814,-1,-1,1,4,3,0,2,-1
1532385901819,0,-2,-1,-4,-3,-4,-5,-3
1532385901824,0,0,-5,-2,-4,-4,-5,-2
1532385901829,-2,-4,-2,1,-1,0,-3,-3
1532385901834,-2,2,1,-1,4,-2,0,1
1532385901839,0,-3,2,-2,-4,-1,-6,0
1532385901844,0,-1,-3,3,6,-5,3,1
1532385901849,1,1,-4,-8,-10,-1,6,0
1532385901854,-3,-3,0,2,-2,-2,-5,0
1532385901859,-1,-1,-4,-5,-3,-1,-9,-6
1532385901864,-2,-1,2,2,8,0,-1,-3
1532385901869,2,-3,-1,3,-2,-1,-3,0
1532385901874,-3,-2,-5,-7,-1,-1,-2,-2
1532385901879,0,1,-1,2,-1,-1,3,1
1532385901884,-1,0,1,1,-1,-1,-6,0
1532385901889,1,1,0,2,5,1,-1,-1
1532385901894,0,-2,1,0,-3,0,-3,-1
1532385901899,-2,-1,1,1,3,-1,-2,-1
1532385901904,-1,-3,-2,-2,-7,-3,-3,-2
1532385901909,-3,-2,-1,-6,-1,-3,0,-1
1532385901914,1,0,-3,-4,-8,-1,3,0
1532385901919,2,2,0,2,0,0,3,0
1532385901924,-3,-5,1,-2,-6,-2,-6,-1
1532385901929,0,1,2,5,1,-3,8,0
1532385901934,-1,-3,-4,-4,0,0,3,0
1532385901939,-1,1,-2,-1,-3,-4,-2,-1
1532385901944,1,-2,0,1,-2,1,4,-1
1532385901949,-1,0,1,1,-1,-3,-4,-1
1532385901954,-1,0,1,1,0,-2,-5,-2
1532385901959,1,-1,-2,-1,-1,-1,9,1
1532385901964,-1,-1,-3,-3,-2,-1,-6,-2
1532385901969,0,0,2,1,1,1,4,0
1532385901974,-1,-2,0,-1,6,0,-1,-2
1532385901979,0,-1,0,2,0,-2,-3,1
1532385901984,-1,0,-2,-9,-7,-2,-6,-3
1532385901989,-1,-1,-1,-3,0,-1,-6,-2
1532385901994,-1,-1,-1,0,-2,-3,0,-1
1532385901999,-1,0,-1,1,0,-1,1,-1
1532385902004,-1,-1,1,2,1,-2,1,-2
1532385902009,0,2,-2,-2,4,-2,-2,0
1532385902014,-1,-3,-3,-1,1,0,-2,-2
1532385902019,-1,-3,-1,-4,-2,-3,0,0
1532385902024,0,2,1,4,-1,3,-3,0
1532385902029,-1,-1,-2,-5,-3,2,-5,0
1532385902034,0,-1,0,2,3,-2,17,0
1532385902039,0,-1,-3,-2,-3,8,-4,-2
1532385902044,0,0,0,0,1,2,0,-1
1532385902049,-1,-2,-1,0,-3,1,3,0
1532385902054,0,4,1,2,2,-1,-2,-1
1532385902059,-1,-5,0,-2,-5,1,-3,-2
1532385902064,-3,-1,0,-2,3,-2,6,-1
1532385902069,1,-1,-1,0,-2,-1,3,-1
1532385902074,-1,-1,-1,-3,-2,2,-14,-2
1532385902079,0,1,-2,-2,-5,-5,-7,-3
1532385902084,-3,-2,-2,-6,-1,-1,-13,-5
1532385902089,-2,1,0,2,8,-2,21,4
1532385902094,1,1,0,1,0,-1,-3,2
1532385902099,-3,-3,1,-5,0,-1,0,-2
1532385902104,1,-2,-2,-6,-8,-3,-21,-6
1532385902109,-4,-5,-4,3,0,0,-7,-4
1532385902114,0,0,-3,-6,-6,-2,1,0
1532385902119,0,1,-4,-1,-4,3,1,-1
1532385902124,1,-1,-1,1,-1,0,-3,-4
1532385902129,-1,-4,1,0,2,-2,-3,-2
1532385902134,1,1,0,4,3,-3,6,-1
1532385902139,-2,1,0,1,-3,-1,-8,-3
1532385902144,0,1,0,2,-4,-3,10,2
1532385902149,0,1,1,-4,2,-2,1,-3
1532385902154,-1,-3,-2,0,-4,-2,-6,-3
1532385902159,1,0,0,-1,3,-3,4,1
1532385902164,-1,-1,-2,3,3,0,4,1
1532385902169,-1,-1,-1,-4,-6,-3,-4,-1
1532385902174,-2,-1,-1,-4,0,-2,-6,-2
1532385902179,0,2,2,3,2,-2,-3,-1
1532385902184,0,-1,-2,-2,-1,0,16,3
1532385902189,-1,-1,-4,-4,-6,-2,-11,-2
1532385902194,0,-1,1,0,-1,1,4,1
1532385902199,-1,-1,0,0,6,-1,3,1
1532385902204,1,-1,-2,1,0,-1,-4,1
1532385902209,-1,-1,-3,-4,-5,-4,-2,0
1532385902214,-4,0,1,1,2,-1,3,2
1532385902219,-18,-3,-2,2,-1,-2,-1,-12
1532385902224,11,-4,-2,-2,1,0,0,2
1532385902229,5,2,-1,-1,-3,-3,-2,-2
1532385902234,1,2,0,1,-4,-1,-1,1
1532385902239,1,1,0,-2,0,1,-1,2
1532385902244,-13,-1,-1,-3,-2,-1,-3,-4
1532385902249,-1,-1,2,0,2,-2,3,-1
1532385902254,2,-1,-1,0,-1,-1,-6,-4
1532385902259,-3,-4,-6,-3,-4,-1,-1,-4
1532385902264,1,-5,1,-1,3,-4,3,5
1532385902269,1,3,-1,-1,0,1,-2,0
1532385902274,0,-4,-3,-2,-3,-1,1,-2
1532385902279,1,1,0,0,0,-1,3,-2
1532385902284,0,1,-1,-1,0,-2,2,0
1532385902289,1,-1,-3,-3,-4,0,-3,-4
1532385902294,-2,0,-1,-3,2,-2,1,-1
1532385902299,5,1,0,-1,-1,-3,1,1
1532385902304,-1,1,0,0,-1,-1,-5,-3
1532385902309,-4,-1,1,2,1,-2,-1,0
1532385902314,0,-3,-1,-3,-2,-3,-3,-3
1532385902319,4,-3,-2,-1,-3,-1,-1,1
1532385902324,-2,0,2,3,3,-3,1,-4
1532385902329,-4,-1,-2,2,-4,-1,-2,-1
1532385902334,1,-2,-1,-1,6,-2,1,0
1532385902339,0,0,1,3,2,-2,-1,1
1532385902344,0,2,-1,0,-3,1,-3,2
1532385902349,1,-2,-1,-5,-3,1,1,-4
1532385902354,1,-1,1,1,-2,-2,-2,-1
1532385902359,1,-1,-3,-2,1,-3,-1,0
1532385902364,-1,1,0,1,0,1,1,-2
1532385902369,2,-1,-1,-3,-4,1,2,1
1532385902374,-3,-2,-3,-2,-2,0,-3,-2
1532385902379,1,4,2,1,2,-2,1,-1
1532385902384,-5,-8,-3,-2,-4,-1,-2,-2
1532385902389,5,2,1,1,2,-2,0,0
1532385902394,2,-2,-2,-1,2,0,1,1
1532385902399,-1,2,0,1,1,-2,-1,-3
1532385902404,3,1,-1,-2,0,-2,-4,1
1532385902409,-4,-2,2,3,1,-1,8,-2
1532385902414,-5,-1,-1,-1,-2,-1,-2,-3
1532385902419,3,-4,0,-1,-2,1,-2,0
1532385902424,0,-1,0,-3,2,0,-4,-1
1532385902429,-2,-3,-1,0,-3,2,-2,-1
1532385902434,1,0,0,0,-2,-2,-2,0
1532385902439,-1,-1,0,2,-1,2,-2,0
1532385902444,-2,-1,1,3,1,3,1,-1
1532385902449,-2,-2,-1,0,1,-2,-1,-1
1532385902454,-1,-3,0,-1,-3,1,-2,-3
1532385902459,1,-2,-1,-1,0,0,-1,-1
1532385902464,-2,0,-1,-4,-6,-3,4,-3
1532385902469,0,1,-1,1,1,1,-2,-1
1532385902474,-2,0,0,0,4,0,-5,-1
1532385902479,-2,-5,-3,-3,0,-1,4,-1
1532385902484,0,2,1,2,6,-1,3,2
1532385902489,-2,-2,-1,0,-3,-3,-2,-1
1532385902494,0,0,0,-1,-1,0,0,-1
1532385902499,-3,-3,-2,-1,-6,1,-3,-8
1532385902504,0,-1,-3,-2,4,-1,3,0
1532385902509,-1,-2,-4,-3,-1,-1,-8,-1
1532385902514,-4,-1,-1,-1,0,1,4,0
1532385902519,8,1,2,2,0,0,-6,-2
1532385902524,-2,-4,-1,0,-5,-2,7,2
1532385902529,1,-2,-4,-4,0,-1,-2,-2
1532385902534,1,-1,-3,-4,-6,-2,-4,-2
1532385902539,-8,-3,0,-1,8,0,-5,0
1532385902544,1,1,2,2,0,1,-8,-2
1532385902549,0,0,-1,-2,-5,-1,-1,1
1532385902554,1,2,0,1,1,-1,0,-1
1532385902559,0,-3,-2,-2,-3,-3,-3,-1
1532385902564,-1,-2,-1,0,-4,-3,-3,-2
1532385902569,-6,-1,1,-1,1,-3,0,-3
1532385902574,0,1,-2,1,0,-2,1,1
1532385902579,-1,-2,-1,-5,-1,-1,4,2
1532385902584,-2,0,0,-2,-4,-1,-10,-4
1532385902589,4,-2,1,3,2,-2,17,1
1532385902594,-2,-1,0,-2,-2,0,-5,-3
1532385902599,-1,1,2,0,2,1,14,4
1532385902604,1,0,-6,-6,-7,0,-3,-2
1532385902609,-4,-1,1,0,8,-4,-6,1
1532385902614,12,1,1,3,0,-2,-3,-7
1532385902619,0,-2,-2,-2,1,-3,0,0
1532385902624,0,-1,0,-1,-3,1,-3,-2
1532385902629,-1,0,0,-4,-4,2,-9,-3
1532385902634,-7,1,0,1,3,-2,15,3
1532385902639,-6,-6,-4,-3,-7,-4,-11,-5
1532385902644,6,-1,-3,-1,3,-5,0,4
1532385902649,1,1,0,3,1,-1,-5,-3
1532385902654,-2,1,1,0,-1,-3,-1,2
1532385902659,-1,0,0,0,-2,1,1,0
1532385902664,-7,-4,-4,-3,-3,0,3,0
1532385902669,-2,-5,0,-3,-3,-6,-4,-6
1532385902674,0,1,0,-3,-3,-2,-8,-1
1532385902679,-3,-2,-1,4,4,-2,8,0
1532385902684,1,1,-1,-3,-3,0,-2,-1
1532385902689,1,0,-2,-2,7,2,-2,-2
1532385902694,-1,-5,-2,-2,-5,-2,3,0
1532385902699,2,3,3,3,-1,-2,-6,-2
1532385902704,-2,0,0,-5,-1,-4,-2,-1
1532385902709,-3,-1,-2,1,-4,-3,-3,1
1532385902714,-6,-1,-1,-4,-2,2,-10,-4
1532385902719,-2,-3,-3,-3,-3,-3,7,0
1532385902724,-7,-4,2,3,4,-2,-2,-1
1532385902729,11,1,0,0,-6,2,0,4
1532385902734,0,-2,-2,-3,-4,2,-4,-3
1532385902739,-2,2,2,2,2,0,-3,-2
1532385902744,-2,-1,0,2,-2,-2,-1,-4
1532385902749,2,-2,-3,-4,-1,-1,-2,-2
1532385902754,0,-2,-1,-2,-2,0,13,-1
1532385902759,2,1,-3,1,-3,1,-6,-2
1532385902764,-2,-1,1,-1,5,-2,1,-4
1532385902769,-3,1,3,4,6,0,-2,-1
1532385902774,-3,-2,-1,-1,-4,0,3,1
1532385902779,1,-4,-2,-6,-5,-1,-6,-7
1532385902784,1,1,0,1,-4,-2,-3,1
1532385902789,2,0,-3,-3,0,0,2,-1
1532385902794,-4,-1,-1,0,-1,0,-9,-4
1532385902799,1,0,0,1,-3,-1,-6,0
1532385902804,1,-4,-2,-6,-6,1,-1,-5
1532385902809,-2,2,1,3,10,2,10,0
1532385902814,2,-1,0,-1,1,0,2,2
1532385902819,0,-1,0,-2,1,-1,-6,0
1532385902824,1,4,0,3,-3,1,-3,-3
1532385902829,-7,-1,-1,-1,-11,-2,2,-4
1532385902834,-2,-4,-4,-7,3,-1,-8,-3
1532385902839,2,0,-2,-5,1,0,7,2
1532385902844,-2,0,0,3,4,0,3,2
1532385902849,-1,-1,-2,2,-3,1,-3,-1
1532385902854,3,1,0,1,1,-4,4,2
1532385902859,-2,-2,-1,0,1,-1,-2,-1
1532385902864,-2,1,-3,-4,0,-3,2,-2
1532385902869,2,-1,-1,-1,1,-1,-5,-2
1532385902874,0,-1,-2,-1,-5,-2,-4,-4
1532385902879,7,2,0,-1,-1,-3,5,1
1532385902884,-1,-1,-3,-5,-2,-2,2,-1
1532385902889,-1,1,0,0,-1,-2,-4,0
1532385902894,-2,-2,-2,1,1,-4,4,-1
1532385902899,2,2,1,0,8,-3,7,3
1532385902904,-1,-1,-1,-1,2,-3,-10,-2
1532385902909,-2,-2,-2,-5,-8,-3,11,1
1532385902914,9,0,1,2,7,-5,2,6
1532385902919,-9,-1,-2,1,-4,-3,-2,-10
1532385902924,3,1,1,0,-1,-4,4,6
1532385902929,-5,-5,-1,-2,1,-3,-6,-3
1532385902934,-7,-1,-3,-2,-7,-2,-5,-5
1532385902939,3,1,1,0,4,1,6,6
1532385902944,-5,-3,-2,-1,-3,1,-1,-10
1532385902949,-7,1,-2,-1,0,-2,3,1
1532385902954,6,-6,-1,-5,-8,-1,-10,-1
1532385902959,12,-1,-1,-1,1,-1,-1,-5
1532385902964,-2,0,3,5,8,-1,-2,-4
1532385902969,1,3,0,0,-1,-1,0,6
1532385902974,-5,-3,-3,-1,2,-1,1,-5
1532385902979,-7,-2,0,-1,-3,-3,-6,-4
1532385902984,0,-3,-2,-4,-2,2,3,4
1532385902989,1,0,-2,-3,0,-3,-3,-6
1532385902994,-2,4,-1,1,-2,1,-2,-2
1532385902999,-4,-3,-1,-1,-2,-2,-3,2
1532385903004,1,0,-1,-2,-3,-2,1,-3
1532385903009,-1,-5,-2,-5,0,-4,-1,-2
1532385903014,-1,-4,0,4,7,-3,1,-3
1532385903019,-3,2,-1,-7,4,-2,0,0
1532385903024,-2,0,1,4,-4,-2,-3,0
1532385903029,20,3,0,0,0,0,-1,2
1532385903034,-3,1,0,-4,-2,-5,2,3
1532385903039,-3,-6,-1,1,-5,0,-2,-1
1532385903044,2,1,0,0,3,-4,0,-4
1532385903049,-3,1,0,0,-3,0,-3,-1
1532385903054,0,-2,-1,2,-1,2,0,-2
1532385903059,-5,0,-1,0,-1,-1,-2,0
1532385903064,1,-5,-2,-1,0,0,-1,1
1532385903069,-5,0,0,1,-1,-1,-1,-5
1532385903074,-2,-3,0,-2,-2,2,-4,-1
1532385903079,4,3,-2,-2,-3,0,-3,0
1532385903084,2,2,0,1,1,-3,1,2
1532385903089,-3,-4,1,-1,0,1,-3,-4
1532385903094,-1,0,1,0,-1,-1,3,-1
1532385903099,0,-2,-1,-1,0,0,0,-3
1532385903104,0,1,-2,-1,-1,-2,-2,-1
1532385903109,-4,-1,0,0,1,-1,-1,-4
1532385903114,-3,1,-3,-4,-5,-2,-4,0
1532385903119,2,-2,-1,4,9,-1,6,6
1532385903124,1,-2,-1,-2,-6,1,-1,-4
1532385903129,-8,-3,-2,-4,-2,-3,1,-2
1532385903134,0,2,2,2,4,-3,-1,-1
1532385903139,-3,-1,0,0,-2,-2,2,1
1532385903144,0,0,1,-1,3,2,0,-3
1532385903149,-2,-1,-3,1,-6,-3,-2,-7
1532385903154,-3,-5,1,0,-1,-1,-3,-8
1532385903159,0,-3,-4,-1,-10,2,-3,-1
1532385903164,10,0,1,-3,4,0,-5,2
1532385903169,-4,-1,-1,1,-2,2,1,-1
1532385903174,1,1,-3,-2,-1,1,-2,0
1532385903179,-1,-1,0,2,-6,2,-9,-5
1532385903184,-9,-5,-4,-5,-4,2,9,1
1532385903189,-3,-3,0,1,0,4,-4,-1
1532385903194,7,2,-1,0,1,-4,7,7
1532385903199,-5,-1,-4,-1,0,0,-2,-3
1532385903204,-3,-2,-1,0,-1,1,1,-3
1532385903209,-2,-1,-1,-1,-5,2,-1,2
1532385903214,-1,0,1,2,0,1,0,-1
1532385903219,5,0,4,-2,-3,-1,-3,-5
1532385903224,-3,-2,-1,-2,-4,-1,1,3
1532385903229,-2,-3,-5,0,2,0,-7,-2
1532385903234,-5,-1,-2,-2,-2,3,1,-1
1532385903239,1,-1,-2,-3,2,-6,1,-1
1532385903244,-2,-2,1,3,-1,-3,-1,0
1532385903249,1,1,-1,-2,-3,-5,-8,2
1532385903254,-5,2,1,-1,1,0,5,-6
1532385903259,2,-3,-2,-1,-2,-2,-11,-1
1532385903264,-9,-2,-3,-1,0,0,4,-3
1532385903269,13,0,4,5,2,0,7,7
1532385903274,3,-1,-2,0,-2,-3,-11,-2
1532385903279,-6,-1,-2,-2,0,-1,1,-2
1532385903284,3,0,0,-1,-3,-5,-4,-3
1532385903289,-1,-1,-2,-7,-4,-1,-1,-4
1532385903294,-3,-3,-1,-1,-1,-1,2,-1
1532385903299,-1,2,4,8,4,-2,6,3
1532385903304,0,0,-4,-5,0,-1,-10,-1
1532385903309,0,-1,1,-5,0,-1,5,-1
1532385903314,-1,-3,-3,-6,-6,0,-11,-4
1532385903319,-4,-1,-2,6,-1,-1,3,-2
1532385903324,3,3,0,-4,2,-1,11,4
1532385903329,-5,-5,-2,-1,-1,-1,-5,-3
1532385903334,7,1,-1,-3,-1,-2,7,5
1532385903339,-8,0,-2,-3,-1,-1,-10,-8
1532385903344,-1,1,0,2,-2,-2,-7,-2
1532385903349,1,-2,1,2,5,-2,11,1
1532385903354,2,2,2,1,2,-1,-1,5
1532385903359,-3,0,0,0,1,0,1,-3
1532385903364,-2,-4,-2,-4,-8,0,-7,-3
1532385903369,-2,3,2,-5,-1,1,0,0
1532385903374,-22,-28,-4,0,1,-2,3,-1
1532385903379,13,21,2,-2,2,-4,2,-2
1532385903384,7,2,-1,2,1,0,-7,-4
1532385903389,-1,1,0,1,-2,-4,8,1
1532385903394,4,3,2,1,1,-3,-4,-3
1532385903399,-11,-12,-3,-6,-5,0,2,1
1532385903404,-4,-2,0,0,2,-2,1,0
1532385903409,-2,0,-3,2,2,0,-4,-3
1532385903414,-1,2,-2,2,0,2,1,-4
1532385903419,9,-1,-1,-5,-2,1,0,6
1532385903424,6,1,-1,0,-1,-3,4,6
1532385903429,-3,2,3,4,6,-3,-1,1
1532385903434,-4,-2,-4,-4,-5,1,-9,-8
1532385903439,-7,-3,1,-1,-2,-3,-1,1
1532385903444,12,0,-1,-2,-2,0,0,-13
1532385903449,-1,0,3,3,8,0,-2,40
1532385903454,8,2,-1,-1,-2,-3,2,-4
1532385903459,-5,-3,0,1,5,2,5,2
1532385903464,1,2,1,-1,-4,-3,2,2
1532385903469,-3,-4,-6,-3,-4,-4,-4,-8
1532385903474,-1,2,4,2,6,-3,2,-8
1532385903479,13,-4,-3,-5,-9,-3,0,17
1532385903484,-4,0,2,4,6,0,-1,-2
1532385903489,2,0,-3,-1,-1,-1,-2,-9
1532385903494,1,2,0,3,-3,-3,-2,4
1532385903499,-10,-8,-2,-6,-11,-1,-3,-14
1532385903504,9,1,-1,2,5,-2,-4,3
1532385903509,2,0,-2,-1,-7,-2,0,-4
1532385903514,-2,2,-2,-5,-1,-3,-2,1
1532385903519,-1,-2,-1,1,2,-2,1,-3
1532385903524,-5,-3,-2,0,-1,0,-3,1
1532385903529,-5,-4,-1,-3,-3,0,-3,-11
1532385903534,3,0,-1,0,-9,-1,-2,2
1532385903539,1,1,1,-4,8,0,4,-6
1532385903544,-8,-3,-1,1,0,0,-2,0
1532385903549,2,-1,-2,-3,-3,3,-2,-7
1532385903554,-3,0,-1,0,2,1,-3,2
1532385903559,1,-1,-1,-1,-1,1,-5,3
1532385903564,-4,-1,1,0,0,0,1,0
1532385903569,-2,0,-2,-1,2,-1,2,-4
1532385903574,-1,2,-1,-2,-3,1,-2,0
1532385903579,1,-2,-1,4,1,0,-3,-4
1532385903584,2,-4,-2,-7,-2,3,-3,-1
1532385903589,1,0,-1,-1,-6,-1,-5,-9
1532385903594,-4,0,-2,-1,4,1,5,0
1532385903599,2,2,1,1,-1,-2,-1,-1
1532385903604,-4,-1,3,3,6,-1,5,0
1532385903609,2,-2,0,-2,1,-2,-3,-2
1532385903614,-3,-1,-1,-2,-2,-1,-1,-1
1532385903619,-4,-2,0,-4,-7,0,-3,-4
1532385903624,-7,-1,1,1,-2,-1,-4,-1
1532385903629,4,0,-1,-6,-4,-1,0,2
1532385903634,0,0,2,4,2,-6,1,-3
1532385903639,-2,-1,-6,-3,-3,0,0,0
1532385903644,-3,-2,-3,1,-3,-1,1,1
1532385903649,-3,0,0,0,1,-5,-1,-3
1532385903654,3,-1,-1,-1,-2,-3,-3,-1
1532385903659,-6,-3,-1,0,1,-3,-2,0
1532385903664,-1,0,-2,-1,-6,-4,1,-1
1532385903669,-2,0,-1,0,-7,-3,-3,-2
1532385903674,1,-2,-1,-2,4,-4,2,-1
1532385903679,-9,-1,0,3,2,1,0,-7
1532385903684,8,0,-3,-3,-5,-3,-2,6
1532385903689,-1,-1,0,0,3,-1,-6,0
1532385903694,-2,3,1,5,-2,-2,-2,-3
1532385903699,3,-3,-3,-7,-2,-1,-1,1
1532385903704,-6,-1,-1,0,1,-1,-2,-5
1532385903709,-1,-2,2,2,5,-3,1,0
1532385903714,0,-1,-3,-6,-7,1,-1,2
1532385903719,0,-1,0,4,11,-2,2,-2
1532385903724,-1,0,-2,-3,-6,-1,1,-4
1532385903729,0,-1,0,2,6,-4,4,-1
1532385903734,-1,-1,-1,-3,-4,-3,0,1
1532385903739,1,1,0,-2,-5,-4,-1,3
1532385903744,-3,0,-1,0,4,-2,-1,-4
1532385903749,9,0,0,2,-1,1,2,7
1532385903754,-2,0,-3,-2,-1,0,-2,-4
1532385903759,0,1,-2,-2,-3,-1,-1,1
1532385903764,2,-1,1,-4,-5,-3,-3,-1
1532385903769,-4,-3,1,2,8,-1,5,0
1532385903774,2,-5,-1,1,2,3,-2,2
1532385903779,-5,1,-2,-1,-4,-1,-2,-4
1532385903784,8,-2,-2,1,0,0,2,2
1532385903789,-3,1,-5,-2,-7,-3,-3,-6
1532385903794,-3,-6,0,-3,1,-1,0,-2
1532385903799,10,1,2,4,7,-3,-2,-2
1532385903804,-7,1,-1,-3,-4,0,1,0
1532385903809,0,0,0,0,-4,-3,-1,-1
1532385903814,-5,2,1,1,3,-2,0,-4
1532385903819,2,0,-1,0,-5,1,-2,4
1532385903824,-4,8,0,-2,-4,-5,-2,-5
1532385903829,-2,-12,-3,-2,2,0,-3,-3
1532385903834,-1,0,-1,-3,-3,-3,-2,-3
1532385903839,2,1,1,1,0,0,0,1
1532385903844,-3,-3,-1,0,-1,1,-2,2
1532385903849,2,3,-1,-2,1,-2,0,-10
1532385903854,1,0,-1,3,-3,0,-1,3
1532385903859,-2,-3,-3,-5,-5,-4,-4,-3
1532385903864,-1,-3,-5,-1,2,-3,-1,-2
1532385903869,-1,0,3,-3,-11,1,-1,1
1532385903874,12,4,0,4,13,0,1,4
1532385903879,-1,3,1,-1,-1,-6,-1,-5
1532385903884,-7,-7,-3,-3,-1,-2,-2,-3
1532385903889,-2,2,-5,-5,-4,-2,-2,-4
1532385903894,1,4,0,-1,-1,-4,2,-4
1532385903899,-2,-14,-7,1,-4,-1,-1,-1
1532385903904,-8,6,8,1,5,5,-3,-4
1532385903909,4,2,3,-2,-2,5,-2,2
1532385903914,2,-2,0,0,0,4,0,0
1532385903919,-11,1,-2,-2,-4,0,-2,-5
1532385903924,1,-5,-2,0,9,0,2,0
1532385903929,-2,-4,0,0,-2,3,-1,0
1532385903934,0,2,-1,-5,-8,0,-4,-3
1532385903939,-1,-1,0,1,2,0,0,0
1532385903944,-1,-3,-1,1,-4,-2,6,0
1532385903949,-6,0,-7,-1,0,-2,-2,0
1532385903954,0,-3,3,1,17,0,1,-7
1532385903959,2,1,-1,-2,-3,3,-4,0
1532385903964,1,-1,-1,1,2,1,0,-6
1532385903969,-4,1,0,-1,-9,-2,-2,0
1532385903974,7,-2,-3,-1,-5,1,3,3
1532385903979,-3,-9,-3,0,1,1,-4,-4
1532385903984,-6,-1,-3,1,1,-2,0,1
1532385903989,11,5,1,2,2,0,-1,0
1532385903994,-10,-2,-2,-2,-9,-4,-2,-1
1532385903999,2,11,9,0,4,-3,0,-1
1532385904004,3,-15,-6,-3,-5,-1,-5,-2
1532385904009,-7,-2,1,0,0,0,0,-2
1532385904014,-1,1,-1,0,-3,-1,-1,0
1532385904019,-2,1,-3,0,-2,-1,4,-1
1532385904024,0,3,1,-4,-4,-2,-2,1
1532385904029,0,-6,-2,-2,0,-4,-2,-1
1532385904034,0,0,-2,-1,-1,-5,-5,-1
1532385904039,-2,0,-1,-4,2,-1,2,1
1532385904044,2,-2,-1,-1,-1,-2,-4,-1
1532385904049,-1,2,-1,1,0,-2,0,1
1532385904054,-6,-4,-1,-2,-1,3,-2,-3
1532385904059,3,-8,-3,-1,-4,-1,2,3
1532385904064,0,16,0,-1,-4,-1,0,-7
1532385904069,-4,4,-2,-2,0,-2,-1,0
1532385904074,5,-1,1,2,1,-4,0,7
1532385904079,-2,-8,1,-1,-3,-1,-2,-1
1532385904084,5,0,3,-3,-1,0,-1,1
1532385904089,-3,0,-4,-1,4,3,4,-2
1532385904094,-1,1,-1,0,1,-1,1,-1
1532385904099,-2,4,0,1,-4,-5,-1,-1
1532385904104,2,7,0,0,0,-4,-2,0
1532385904109,-2,-15,-3,-4,-5,-3,-5,-2
1532385904114,0,2,0,-1,4,-1,4,1
1532385904119,5,-1,-3,0,0,2,-3,-3
1532385904124,-7,0,1,3,-1,-1,1,-1
1532385904129,0,-2,0,-3,0,-4,-1,-2
1532385904134,-4,-2,-2,-3,-3,-5,-3,-2
1532385904139,-1,1,-1,0,2,-3,-1,-1
1532385904144,4,-5,-1,0,-4,-3,-3,-1
1532385904149,0,5,0,0,8,4,4,2
1532385904154,-3,-7,-3,-3,-6,-1,-2,-2
1532385904159,-2,1,2,0,-4,-3,1,0
1532385904164,-3,-4,-1,0,2,-1,0,-1
1532385904169,2,1,1,1,-4,-3,-2,-1
1532385904174,-1,2,-2,1,-1,-4,-3,-4
1532385904179,-2,0,-2,-2,0,-1,1,1
1532385904184,-2,-2,-2,-3,0,2,1,2
1532385904189,1,3,1,1,1,-5,1,-8
1532385904194,-5,-3,-2,1,-1,-4,0,-1
1532385904199,1,2,0,0,-4,-3,-2,0
1532385904204,0,9,1,-3,-2,-4,-1,-1
1532385904209,-5,-10,1,-2,-1,0,-2,-1
1532385904214,2,-2,-4,-2,-2,0,-1,-1
1532385904219,2,3,2,2,2,1,2,-2
1532385904224,-1,-4,-1,2,8,-5,1,-2
1532385904229,5,5,2,-2,-3,-3,-4,0
1532385904234,-6,-2,-2,-5,-6,0,0,-4
1532385904239,-1,-3,-4,-2,5,-3,2,-2
1532385904244,0,-1,-2,-1,-5,-1,-3,-1
1532385904249,-3,3,-1,1,-4,0,-2,-2
1532385904254,3,-7,2,2,1,-2,2,0
1532385904259,-2,3,1,-3,-5,-5,-3,-4
1532385904264,-5,-7,-1,-2,-1,0,-1,-1
1532385904269,0,-2,-3,0,-2,-3,0,6
1532385904274,19,4,0,-1,-2,1,-3,-11
1532385904279,-3,8,-2,1,0,0,-1,2
1532385904284,-2,-13,1,0,-1,2,0,0
1532385904289,-4,1,-2,0,3,0,-1,0
1532385904294,-2,0,1,-2,3,0,2,3
1532385904299,0,-1,-1,0,-2,0,-2,-4
1532385904304,0,1,-3,1,-1,2,-2,-2
1532385904309,0,1,0,-1,0,5,-1,2
1532385904314,-2,3,-2,0,0,1,-1,-1
1532385904319,1,-2,2,-1,-3,3,-2,-2
1532385904324,-2,-2,-1,-3,-2,2,0,0
1532385904329,1,-2,-2,-1,-3,-2,0,-4
1532385904334,-5,3,0,0,0,-4,-1,0
1532385904339,-3,-1,-3,-2,0,-1,0,-1
1532385904344,2,-1,-2,0,2,-2,1,0
1532385904349,-1,-9,-1,1,-4,-2,-2,-2
1532385904354,-2,-2,-2,0,0,2,2,0
1532385904359,-3,14,0,0,-4,-4,-4,-2
1532385904364,-3,5,1,-1,0,0,-1,1
1532385904369,11,2,-2,-2,-2,-1,1,-2
1532385904374,-5,-4,-1,-1,7,-1,0,2
1532385904379,-1,-7,-3,0,-2,0,2,1
1532385904384,0,1,0,0,-2,0,-2,-2
1532385904389,-4,-3,-1,0,-4,-3,-4,-1
1532385904394,-1,-1,1,-1,-2,1,-3,-1
1532385904399,1,-4,-2,-1,2,-2,-1,-1
1532385904404,0,0,-3,-1,1,-3,3,1
1532385904409,-8,-2,4,0,4,-4,-2,-7
1532385904414,9,2,-3,-3,-13,-1,-6,-3
1532385904419,-1,-6,1,3,12,-3,9,2
1532385904424,3,-5,-5,-1,-2,-3,0,-1
1532385904429,-7,1,-2,-2,-1,-2,1,-3
1532385904434,-3,1,-1,-1,-8,0,-4,-4
1532385904439,2,-3,-2,0,6,0,0,0
1532385904444,-2,-9,-3,-1,2,-2,-1,-2
1532385904449,0,12,-1,0,0,-4,-1,0
1532385904454,-4,2,-1,0,4,-1,0,0
1532385904459,0,-3,-2,-3,-5,-2,-2,-2
1532385904464,-2,-1,-2,-1,-4,-1,1,-3
1532385904469,-1,-4,-3,-2,0,-1,-2,0
1532385904474,-1,-3,-3,1,11,-3,2,-1
1532385904479,3,3,4,0,-5,1,-4,-1
1532385904484,-2,0,4,0,0,-3,-2,4
1532385904489,0,12,2,-2,-2,-1,1,-5
1532385904494,0,-13,-3,0,-2,-1,-2,2
1532385904499,-2,-2,-1,-2,-4,-1,-3,-2
1532385904504,0,-4,-3,-1,0,-3,-4,-3
1532385904509,1,6,2,2,-1,1,2,2
1532385904514,-4,-6,-1,-8,-2,0,3,-2
1532385904519,-2,0,-2,0,-2,-2,-4,-1
1532385904524,0,2,-1,-2,-3,-2,-1,-4
1532385904529,0,-7,-3,2,19,-4,5,3
1532385904534,-3,1,4,-1,-8,-1,-4,-3
1532385904539,-2,2,0,0,-3,-3,-1,0
1532385904544,0,3,3,-2,2,-1,-1,-3
1532385904549,1,-10,-3,1,-5,1,0,-1
1532385904554,-2,-5,-2,-3,-4,-3,0,-1
1532385904559,-1,3,1,0,-2,0,3,-1
1532385904564,-1,-1,-1,0,-3,-1,-3,-2
1532385904569,0,-3,-2,-1,-7,-2,-3,1
1532385904574,-2,4,-5,4,7,0,2,3
1532385904579,-1,-3,-6,-5,-9,0,-6,-5
1532385904584,-4,5,5,1,0,-4,4,-4
1532385904589,12,-2,1,0,4,-1,0,2
1532385904594,-7,7,0,2,-2,-2,-3,-2
1532385904599,1,-3,3,-2,1,-1,1,-2
1532385904604,-1,-8,-6,-3,-5,-1,-1,-1
1532385904609,2,12,1,-1,-3,0,-1,3
1532385904614,-2,-1,6,2,-1,-2,-4,-8
1532385904619,1,0,-1,1,12,0,2,2
1532385904624,1,0,1,-1,-3,-3,-2,1
1532385904629,-4,-5,-3,-3,-3,-6,-1,-2
1532385904634,4,6,-4,-4,-1,0,0,1
1532385904639,-5,-10,1,1,-3,1,-4,-3
1532385904644,0,2,-1,2,5,-2,4,1
1532385904649,-3,-4,-2,-3,-5,-1,-3,-3
1532385904654,-2,-1,-1,0,-2,2,0,-1
1532385904659,1,-3,-2,-3,-3,-2,-2,-2
1532385904664,2,-2,-6,-1,0,1,-2,-3
1532385904669,-3,0,3,0,-3,-1,-4,-2
1532385904674,-1,3,1,-2,-3,-3,-2,-1
1532385904679,-2,-2,1,0,-1,-1,-1,-1
1532385904684,1,-3,-1,-3,0,2,-1,0
1532385904689,-4,-3,-6,-3,-1,4,1,-1
1532385904694,1,-11,-2,0,-2,0,-1,-1
1532385904699,3,15,1,0,1,-3,1,-1
1532385904704,-6,2,2,1,-2,-1,-4,-2
1532385904709,-3,-6,-1,-2,0,3,1,-2
1532385904714,1,3,0,0,6,1,3,2
1532385904719,0,-7,-2,0,0,0,3,0
1532385904724,1,0,0,-2,-3,3,-2,0
1532385904729,-1,-2,1,1,-5,1,-1,0
1532385904734,0,-3,0,-1,2,-1,-3,-1
1532385904739,-1,-2,-6,-5,-2,0,-1,-1
1532385904744,1,1,1,-1,0,-3,-2,-1
1532385904749,0,-2,0,3,6,-4,-1,-3
1532385904754,-2,-3,-2,0,-3,-3,0,-1
1532385904759,-1,0,-2,-1,1,-2,-1,0
1532385904764,-1,2,0,1,-1,-4,1,1
1532385904769,1,-8,-5,-4,-3,-1,0,-3
1532385904774,1,13,5,0,-2,-1,-4,-1
1532385904779,-3,-2,-1,-1,-2,0,1,0
1532385904784,4,2,1,1,1,-2,0,2
1532385904789,-1,-5,1,0,1,-3,-2,-4
1532385904794,-1,2,-2,-2,-4,-2,2,0
1532385904799,-3,-8,-1,-1,0,-3,0,1
1532385904804,0,-3,-3,1,-2,-1,-2,0
1532385904809,-1,2,2,-5,-1,-2,0,0
1532385904814,-1,11,-3,-2,0,1,0,0
1532385904819,1,-12,-1,0,-6,-2,-2,-3
1532385904824,-2,0,1,-3,-2,-3,-1,-1
1532385904829,-6,1,1,1,1,-3,-2,-2
1532385904834,-2,-3,-2,0,0,-2,0,-2
1532385904839,0,-1,-4,0,-3,-2,-1,-2
1532385904844,0,-1,-3,-1,1,-1,2,-4
1532385904849,0,1,-2,-1,-3,0,-3,1
1532385904854,-1,-3,-1,-2,-2,-5,-1,-3
1532385904859,-1,-5,1,1,0,0,-2,-1
1532385904864,-1,-5,-2,-2,-1,-2,-1,-1
1532385904869,-4,5,3,0,3,-1,0,-1
1532385904874,1,-4,-3,2,-6,-2,-1,-1
1532385904879,0,5,-2,-3,8,-4,1,0
1532385904884,-1,-4,-4,-1,-3,2,-4,-2
1532385904889,1,6,0,-1,-2,-1,2,1
1532385904894,2,-13,-4,-1,0,-2,-1,-1
1532385904899,-6,3,3,-2,-3,-2,-6,-3
1532385904904,-1,1,-1,1,0,-1,-1,-1
1532385904909,3,1,-2,-4,1,0,-2,-2
1532385904914,-6,-4,1,-1,1,-1,0,-3
1532385904919,4,2,0,1,-1,-1,1,-3
1532385904924,1,0,1,-3,-4,-2,0,-1
1532385904929,0,0,0,1,1,-1,2,-1
1532385904934,0,-5,-2,-1,3,-1,-2,-2
1532385904939,-2,-1,-2,-3,-3,-1,0,0
1532385904944,-2,0,0,1,-1,0,-3,-9
1532385904949,0,-4,-5,0,-4,-2,-2,-1
1532385904954,2,1,3,-1,1,2,0,1
1532385904959,2,5,4,2,-2,2,-1,0
1532385904964,-1,-4,-2,-2,-2,-1,1,1
1532385904969,-2,-5,-3,-4,-6,-3,-2,-3
1532385904974,0,3,-3,-1,1,0,1,-2
1532385904979,0,-5,-4,0,0,-2,-3,-2
1532385904984,0,5,1,-1,-1,-2,2,-1
1532385904989,-2,-3,-1,3,1,-3,0,0
1532385904994,2,-1,0,-2,-1,-2,0,1
1532385904999,-3,-11,-4,-1,0,-2,2,-1
1532385905004,2,15,-1,-3,1,1,-2,-1
1532385905009,0,-2,-1,1,2,-1,2,0
1532385905014,0,4,1,1,-3,-3,0,-1
1532385905019,-2,-2,2,-3,-6,0,-2,-1
1532385905024,0,-2,3,3,12,-2,3,1
1532385905029,0,-8,-3,-2,-5,2,-3,-3
1532385905034,-1,-1,-1,-1,-4,1,-3,-2
1532385905039,1,0,-6,-1,7,2,1,-1
1532385905044,-1,-2,-2,-4,-6,-2,-3,0
1532385905049,1,5,2,2,4,2,1,0
1532385905054,-3,-6,-2,0,-2,2,-2,0
1532385905059,0,2,-1,-3,-3,2,0,-1
1532385905064,1,-3,-1,-1,-1,0,0,-2
1532385905069,-1,-1,0,1,-1,1,-1,-1
1532385905074,-3,-1,0,-2,-2,-2,-1,-2
1532385905079,-1,3,0,1,-2,0,0,-2
1532385905084,-1,-5,-2,-3,-2,2,0,-1
1532385905089,-2,-2,-2,-3,-3,-2,-2,-1
1532385905094,-1,2,-1,2,1,-4,-1,-1
1532385905099,0,3,1,1,-1,0,-2,0
1532385905104,-3,-4,-2,0,-3,-1,1,-2
1532385905109,-1,0,-1,1,7,2,1,0
1532385905114,2,11,3,0,1,0,-3,-2
1532385905119,-5,-15,-3,-2,-3,-2,-3,-1
1532385905124,-2,-1,0,-2,-3,-3,-2,-1
1532385905129,1,2,-2,1,-1,-5,1,-1
1532385905134,-3,-2,-4,-6,-3,-3,1,0
1532385905139,0,5,-2,-1,-3,0,-1,-1
1532385905144,0,-2,-1,0,1,-3,-2,-2
1532385905149,-2,-18,0,-1,1,-3,3,-2
1532385905154,1,18,1,1,-1,-1,0,0
1532385905159,1,2,1,-2,0,-2,1,-1
1532385905164,0,-3,-1,-1,1,0,0,1
1532385905169,0,5,1,-3,-4,-4,-2,-2
1532385905174,0,-10,-1,1,2,0,2,0
1532385905179,1,3,0,1,0,-3,0,1
1532385905184,-3,0,-1,-1,2,-3,-2,-2
1532385905189,-2,-1,-1,-2,-1,-2,0,-6
1532385905194,0,-6,-1,0,-1,-2,-1,-4
1532385905199,-4,3,1,2,-1,-4,-2,-2
1532385905204,1,-4,-4,-1,-2,-2,0,1
1532385905209,-2,2,1,-2,-3,0,-2,3
1532385905214,-3,-6,-2,-1,0,-3,0,2
1532385905219,0,1,-2,0,0,-3,-1,1
1532385905224,0,11,2,2,1,-1,2,2
1532385905229,-3,-12,-3,-4,-6,1,-2,0
1532385905234,2,1,1,2,5,-3,1,1
1532385905239,2,-4,-3,-4,-3,-2,-3,-1
1532385905244,-1,1,-4,-1,-2,-1,-2,0
1532385905249,3,8,-1,1,2,-2,0,0
1532385905254,-4,-8,-3,-2,-6,-2,-2,-2
1532385905259,0,-5,4,0,3,-2,4,-1
1532385905264,-1,-17,-4,-4,-3,-2,-2,-1
1532385905269,3,22,1,2,1,0,0,0
1532385905274,-6,3,-4,-1,-1,1,-2,-5
1532385905279,-8,-15,-2,-2,-1,-4,-1,-4
1532385905284,6,7,3,-1,-3,-2,0,1
1532385905289,11,-6,-2,-2,-2,-1,-3,0
1532385905294,-5,1,-1,0,3,2,3,2
1532385905299,4,10,1,-1,-5,1,-5,-3
1532385905304,-3,-10,-2,1,1,3,-2,-3
1532385905309,-7,-1,1,-1,-7,-2,1,-3
1532385905314,6,-1,1,-1,-1,0,-1,2
1532385905319,-6,-5,0,-1,0,0,-3,1
1532385905324,-1,-1,0,1,0,-2,-1,0
1532385905329,0,-1,-3,-5,-1,-1,-4,1
1532385905334,0,-4,2,2,7,-1,-2,-1
1532385905339,1,2,-1,1,3,-1,9,2
1532385905344,0,0,-1,0,-2,0,3,-1
1532385905349,-2,1,0,-1,3,0,1,-2
1532385905354,-4,-6,-3,-3,-3,-2,-5,-1
1532385905359,2,1,-2,-1,-4,-2,-4,-2
1532385905364,0,4,1,0,9,0,7,-1
1532385905369,-5,-8,-2,4,-4,-3,-4,-2
1532385905374,1,1,-1,-4,-2,-6,-6,-1
1532385905379,0,-2,0,4,2,4,16,3
1532385905384,-4,-2,-4,-7,-7,-2,-5,-4
1532385905389,-1,-4,-1,0,-1,-2,-4,-4
1532385905394,1,-2,0,-1,0,-1,-2,1
1532385905399,-1,3,-1,4,-2,0,-2,-2
1532385905404,-1,-3,-1,-1,0,3,-2,0
1532385905409,-1,-1,-2,-1,0,2,-1,0
1532385905414,1,1,2,2,0,1,1,0
1532385905419,-1,0,1,-1,4,0,-4,-2
1532385905424,0,0,0,1,-3,-2,-4,-1
1532385905429,0,3,-1,0,13,0,5,4
1532385905434,-2,-6,-3,-3,-12,2,-4,-4
1532385905439,-4,-2,-6,-7,0,1,-1,-1
1532385905444,2,5,4,6,3,-1,0,0
1532385905449,-3,-1,0,2,-1,0,-3,-2
1532385905454,0,-1,-1,-3,-7,0,2,-2
1532385905459,1,-2,-4,-10,-10,-3,-11,-3
1532385905464,-2,-3,-2,2,-1,-2,3,1
1532385905469,-4,-8,-2,-1,-8,1,1,0
1532385905474,1,2,1,1,2,-1,0,-1
1532385905479,0,3,0,0,-1,-1,2,0
1532385905484,-1,-2,2,0,2,-1,-2,-3
1532385905489,-1,2,-1,-2,-3,-3,2,0
1532385905494,1,-1,1,3,7,-2,0,-2
1532385905499,0,-2,-2,0,-1,-3,2,0
1532385905504,0,-2,-4,-6,-3,-4,-3,-4
1532385905509,0,0,1,1,-1,2,-16,-5
1532385905514,-3,-2,-4,-6,-3,0,18,1
1532385905519,-1,1,-2,2,3,-3,-12,-4
1532385905524,-3,-3,-1,-1,-5,-2,-4,-2
1532385905529,-1,2,0,-4,-2,0,0,-2
1532385905534,1,-4,0,-1,1,-6,-13,-3
1532385905539,0,1,2,1,0,-3,11,0
1532385905544,-1,-1,-2,-5,-4,-1,-5,-1
1532385905549,-1,-1,-1,-4,-1,-1,9,0
1532385905554,-1,0,0,3,3,1,1,0
1532385905559,2,0,2,1,1,-1,6,2
1532385905564,-3,-3,-4,-3,-2,-1,-3,-3
1532385905569,-1,2,3,4,8,-3,17,5
1532385905574,-2,-1,-2,-2,-5,-2,-5,-3
1532385905579,0,-1,1,-1,4,-2,5,0
1532385905584,0,0,0,1,0,0,-3,0
1532385905589,2,-4,-1,-2,-2,0,-2,0
1532385905594,-1,0,-1,1,-1,-2,-3,-1
1532385905599,0,0,-1,-2,-5,-3,-7,-3
1532385905604,-1,2,3,-1,-1,-1,2,1
1532385905609,-2,-4,-1,0,0,-5,-7,-3
1532385905614,3,-1,-1,-1,1,-3,4,2
1532385905619,-2,0,-1,3,-3,-2,-10,-4
1532385905624,-2,-1,2,2,0,-2,4,1
1532385905629,-1,-2,-3,-3,-2,1,-7,-2
1532385905634,-3,-6,-4,-4,-1,-1,-2,-2
1532385905639,-1,0,2,2,3,-2,0,0
1532385905644,0,1,0,1,-5,2,-2,-2
1532385905649,0,-3,-3,-5,-1,0,-5,-2
1532385905654,-3,0,-1,-1,-1,0,2,-2
1532385905659,0,1,-4,-2,-2,2,0,-3
1532385905664,2,-2,-1,1,0,-3,-1,-1
1532385905669,-2,2,-1,-2,-3,-2,-2,-2
1532385905674,-1,0,2,2,-2,-6,-3,1
1532385905679,-1,0,0,-5,-3,-3,-2,-1
1532385905684,0,-3,-2,2,1,-4,2,1
1532385905689,0,0,1,2,1,-3,-1,-1
1532385905694,0,1,2,-2,-1,1,0,-1
1532385905699,-2,-1,-2,1,0,-1,-1,-1
1532385905704,-2,-4,-1,-3,-3,2,1,0
1532385905709,1,1,0,3,1,-4,-3,-2
1532385905714,-1,-1,-1,0,4,3,9,-1
1532385905719,3,-1,2,0,1,0,-1,1
1532385905724,-3,-1,-5,-5,-1,-3,6,0
1532385905729,-9,-1,1,2,-3,-6,-7,-4
1532385905734,12,8,5,3,1,0,-9,-7
1532385905739,-2,-6,-4,-4,-1,-1,-4,-10
1532385905744,1,2,3,0,-1,-7,3,19
1532385905749,1,1,0,1,2,-2,-2,-4
1532385905754,-5,-2,-5,-4,-7,-2,-3,2
1532385905759,4,8,3,-1,2,1,3,6
1532385905764,0,0,-7,-5,-4,-1,-7,-8
1532385905769,-1,-5,-2,1,-2,-2,0,2
1532385905774,-5,-7,-6,-3,0,1,-5,0
1532385905779,-1,1,-3,-2,-3,2,-3,-4
1532385905784,-3,-3,4,6,4,3,-2,-4
1532385905789,4,2,-5,-15,-7,3,8,1
1532385905794,-3,-3,-1,-1,-2,-1,0,-2
1532385905799,-3,-3,0,-1,-3,-1,-3,-2
1532385905804,0,-1,3,0,-1,2,2,4
1532385905809,1,-1,2,5,3,3,-9,-2
1532385905814,-7,-3,-2,0,0,3,6,-2
1532385905819,-2,-2,-4,-4,-4,2,-1,1
1532385905824,0,2,3,2,1,0,-2,-4
1532385905829,0,-5,-6,-7,-5,0,3,-2
1532385905834,3,4,-1,1,2,-2,0,3
1532385905839,-2,0,-3,0,-4,1,2,2
1532385905844,0,-4,-5,-1,2,-1,1,-5
1532385905849,0,1,0,7,6,1,1,2
1532385905854,0,0,-1,-4,-5,-2,-2,-3
1532385905859,-3,-2,-1,0,-1,-1,-5,0
1532385905864,2,3,0,-2,-2,-2,0,-2
1532385905869,-1,-2,-2,1,4,0,6,0
1532385905874,-3,-2,-1,-3,-4,-3,-4,-2
1532385905879,-1,-2,1,0,-3,-4,-1,-1
1532385905884,2,2,-2,-2,6,0,-3,0
1532385905889,-4,1,1,3,-1,-3,14,1
1532385905894,4,0,-1,-5,-1,-1,-5,-3
1532385905899,-3,-3,0,-2,-3,-4,-5,-1
1532385905904,-2,1,-2,0,-3,-1,-5,-5
1532385905909,1,3,-1,1,1,0,-2,0
1532385905914,1,-5,-1,-1,-3,-1,-5,-3
1532385905919,-3,-8,-3,-4,0,0,3,1
1532385905924,-1,1,-1,-4,-1,1,8,0
1532385905929,-1,-2,-1,-2,-4,-5,-5,0
1532385905934,0,-1,-1,-1,-4,-3,-5,-2
1532385905939,-1,-1,1,2,3,-4,2,-1
1532385905944,-3,-3,-4,1,-5,-1,-2,-4
1532385905949,-3,-2,-2,-5,-1,-1,-8,-4
1532385905954,0,-1,1,2,3,0,5,6
1532385905959,0,0,-2,0,2,-2,3,-1
1532385905964,1,0,-1,0,2,1,5,-1
1532385905969,0,-1,0,1,-6,0,-8,-2
1532385905974,0,-2,1,-2,2,0,7,-1
1532385905979,-1,1,-3,1,-1,1,-4,-2
1532385905984,-2,-4,-1,-8,-3,-3,-5,-3
1532385905989,2,0,1,-1,-1,-3,-2,1
1532385905994,-2,-1,0,-1,1,-1,1,-2
1532385905999,-1,-5,-2,-2,-3,-7,0,-2
1532385906004,-2,3,-1,1,-1,-5,-1,-1
1532385906009,1,-2,-1,0,0,-2,0,0
1532385906014,-4,-1,-1,0,-4,-1,2,0
1532385906019,1,2,1,1,2,-3,-3,-3
1532385906024,0,-3,-2,1,-2,-1,-5,-1
1532385906029,0,-1,-1,-7,-1,-2,1,-1
1532385906034,-4,-3,-2,4,-2,-5,-4,-1
1532385906039,4,2,-4,-2,-3,-3,-8,-1
1532385906044,-4,-5,-3,-6,-2,0,2,-2
1532385906049,1,-1,2,3,0,0,-2,-1
1532385906054,3,3,-1,1,3,-2,1,-1
1532385906059,-3,-2,0,-1,0,-2,3,0
1532385906064,1,-2,-1,-1,-3,-2,-8,-4
1532385906069,-2,-1,0,6,3,-3,3,0
1532385906074,1,-6,0,-6,-1,0,7,1
1532385906079,0,2,-1,-3,-2,1,-3,-1
1532385906084,2,1,0,1,0,1,5,0
1532385906089,-1,-3,-3,-1,-3,-1,-7,-4
1532385906094,0,3,3,8,10,-2,19,2
1532385906099,-3,-2,-2,-1,-4,0,-15,-2
1532385906104,0,-3,-3,-2,-2,-5,-1,1
1532385906109,-2,0,-4,-4,-5,-2,5,-1
1532385906114,3,1,-1,0,-2,1,-5,0
1532385906119,-3,3,3,1,4,-2,11,0
1532385906124,-2,-2,-1,0,2,-3,2,-11
1532385906129,-2,-3,1,1,-2,-5,-9,0
1532385906134,-3,1,-2,-1,-4,-2,-2,-3
1532385906139,2,4,-1,0,-1,-1,3,1
1532385906144,-3,-3,0,4,-1,-1,-10,-1
1532385906149,3,1,-1,-3,3,1,35,5
1532385906154,-3,-1,-4,-5,-2,-3,-15,-6
1532385906159,2,-5,0,-1,-1,-1,3,-1
1532385906164,1,-2,-2,1,1,0,1,0
1532385906169,-1,1,0,-2,4,1,-8,-4
1532385906174,-4,-2,-2,-3,-4,3,-15,-5
1532385906179,2,2,1,4,5,3,29,6
1532385906184,5,9,0,1,-2,3,-8,-2
1532385906189,-18,-20,-3,-4,-2,3,-3,-2
1532385906194,5,10,0,-2,-4,4,-10,-3
1532385906199,-3,-3,-1,2,-1,3,-13,-3
1532385906204,1,4,3,0,4,7,15,4
1532385906209,-2,-1,-5,-1,-8,-1,-13,-4
1532385906214,-2,-4,-1,-3,1,-2,-11,-2
1532385906219,0,-1,4,2,4,-2,16,2
1532385906224,-1,-1,-4,-4,-5,-1,-5,0
1532385906229,2,3,-1,-3,-5,-1,-8,-4
1532385906234,0,-1,1,6,1,-4,5,-1
1532385906239,1,-3,-5,-8,-5,-3,-3,1
1532385906244,-2,-1,1,8,10,-6,2,1
1532385906249,4,5,3,3,5,-1,8,4
1532385906254,-1,-2,-1,1,-3,-2,-3,-5
1532385906259,-2,-1,-3,-10,-14,-2,-7,-2
1532385906264,-1,-5,-3,-2,-4,-3,0,-1
1532385906269,0,4,-2,-1,-2,-2,-4,-1
1532385906274,-1,-1,1,-1,2,-1,7,2
1532385906279,0,-2,-1,1,-5,-1,-12,-5
1532385906284,-4,1,3,-1,3,-4,2,2
1532385906289,-13,-5,-2,0,-8,-4,-6,-10
1532385906294,4,0,0,1,7,-2,3,0
1532385906299,-5,0,-1,1,2,0,0,-2
1532385906304,-2,1,0,-3,-4,-2,-7,-15
1532385906309,9,0,2,1,3,-2,2,12
1532385906314,-2,-2,-3,-1,-6,-2,-3,2
1532385906319,0,-3,-4,-4,1,0,-2,-1
1532385906324,-2,5,-2,-1,-3,0,3,1
1532385906329,3,-3,0,0,2,-1,-4,-5
1532385906334,-1,-3,-1,-2,-2,-4,-1,-2
1532385906339,3,0,1,2,5,-2,3,-2
1532385906344,-1,1,0,0,-4,-3,0,-1
1532385906349,1,-3,-5,-3,-4,1,0,-2
1532385906354,0,-1,-1,0,3,1,2,3
1532385906359,-4,2,-2,-2,-3,-1,-16,-6
1532385906364,1,1,1,-2,0,-4,22,5
1532385906369,0,-4,-5,1,-3,-3,1,0
1532385906374,0,-1,-1,-5,6,-1,-2,0
1532385906379,0,2,2,0,-2,-6,-3,-3
1532385906384,-3,-9,-4,-5,-7,0,-16,-1
1532385906389,3,4,1,3,4,-3,7,2
1532385906394,-1,-1,-3,0,-6,1,5,-4
1532385906399,0,-2,-1,-1,2,-1,-2,0
1532385906404,2,-1,0,1,-2,-2,5,2
1532385906409,0,1,2,-1,-1,-4,1,-3
1532385906414,-2,0,-2,-1,-3,-3,-5,-2
1532385906419,2,1,2,2,-1,-2,6,4
1532385906424,0,-4,-1,-2,2,-1,2,-1
1532385906429,-4,3,1,0,-3,1,-15,-6
1532385906434,-3,-2,-2,-2,-12,-1,-2,-3
1532385906439,2,2,2,5,12,-2,11,3
1532385906444,-2,-3,-4,-5,-11,-1,-17,-4
1532385906449,1,2,-1,-5,2,1,4,-2
1532385906454,0,-2,1,1,-2,-5,-4,-1
1532385906459,-3,0,-2,-3,-1,2,-3,-4
1532385906464,-1,-1,-2,1,3,-1,3,1
1532385906469,1,-3,-2,-4,-4,-4,-6,-3
1532385906474,-3,-2,-2,3,0,-1,1,0
1532385906479,-2,-5,-1,-4,-8,-3,-4,-2
1532385906484,-3,-1,-1,-4,0,-1,3,-1
1532385906489,1,1,-1,1,0,1,5,0
1532385906494,1,-4,-2,-3,0,0,-2,0
1532385906499,-3,-2,1,3,2,-5,-3,-4
1532385906504,-5,-3,-3,-3,-4,-2,-11,-2
1532385906509,2,-3,2,0,0,-4,5,-2
1532385906514,0,2,0,1,2,-3,-2,-1
1532385906519,-1,-3,-6,-6,-7,-3,-5,-1
1532385906524,0,0,1,1,-1,-5,-3,-4
1532385906529,-2,-3,-3,-2,-2,-1,-9,-2
1532385906534,1,1,2,1,4,1,17,1
1532385906539,-3,-5,-5,1,-6,1,-11,-4
1532385906544,0,1,2,1,0,5,-6,0
1532385906549,2,0,-1,-1,1,0,4,2
1532385906554,-1,-2,1,-1,1,2,-3,4
1532385906559,-1,1,1,-1,-3,1,-2,-3
1532385906564,1,-1,0,3,6,4,5,1
1532385906569,-2,-1,-2,0,-3,4,-5,-3
1532385906574,-4,0,-4,-4,-5,1,0,-3
1532385906579,4,-2,3,4,9,2,12,3
1532385906584,-1,-4,-3,-3,-6,1,-13,-5
1532385906589,-2,3,-1,2,0,0,0,1
1532385906594,0,-4,1,0,-1,-2,-4,-3
1532385906599,2,3,-1,0,0,2,7,0
1532385906604,3,0,-4,-5,-3,-2,-7,-3
1532385906609,-3,-2,-3,-5,3,-4,4,1
1532385906614,0,0,3,5,5,-1,2,-3
1532385906619,-3,-4,-5,-11,-14,0,-12,-6
1532385906624,0,-2,4,5,7,0,19,6
1532385906629,0,-4,-3,-3,-3,-1,-11,-3
1532385906634,0,-1,-2,-3,0,-1,-2,1
1532385906639,-2,0,-2,2,0,-2,1,-1
1532385906644,0,-1,-1,-5,-2,-4,4,-2
1532385906649,0,4,2,1,3,-3,-2,1
1532385906654,2,0,3,3,2,-3,13,0
1532385906659,0,-2,-3,2,-1,-5,-5,0
1532385906664,-3,0,-8,-6,-3,-2,-7,-2
1532385906669,-2,-2,1,2,1,-2,-2,-1
1532385906674,-2,0,-3,-4,-5,-3,-10,-3
1532385906679,-1,0,0,-1,3,-1,-3,0
1532385906684,1,3,4,3,5,-3,-2,-1
1532385906689,0,2,1,3,1,0,0,0
1532385906694,-5,0,-5,-3,-11,-4,-8,-3
1532385906699,0,-5,-8,-13,10,-2,-5,-3
1532385906704,-5,-5,-2,3,1,0,-4,-2
1532385906709,-5,1,-3,-6,-5,1,3,-4
1532385906714,5,-3,0,3,2,0,5,1
1532385906719,0,2,3,1,-4,-4,8,0
1532385906724,2,5,4,4,2,-2,2,0
1532385906729,-4,-5,0,3,-5,-2,1,-2
1532385906734,-2,-1,-1,-5,0,-1,-5,-1
1532385906739,-4,-2,-6,0,-6,-5,-4,-2
1532385906744,-1,-3,-1,-3,-4,-2,-7,-3
1532385906749,2,-1,0,2,1,2,6,0
1532385906754,-1,0,-2,-6,-7,-2,-9,-3
1532385906759,0,4,6,6,4,-3,0,0
1532385906764,-2,1,-1,2,-3,-2,18,1
1532385906769,2,1,-4,-5,-3,-2,-1,1
1532385906774,-6,-1,0,-3,1,-4,-11,-4
1532385906779,-4,-4,-1,0,-2,-1,0,-4
1532385906784,-3,-1,0,2,2,0,-1,-3
1532385906789,-4,0,1,-4,-6,1,-4,-3
1532385906794,3,1,-2,2,4,-1,2,4
1532385906799,-1,0,1,0,-2,1,3,0
1532385906804,0,0,-2,0,2,-3,-3,-2
1532385906809,-4,-9,-3,0,0,-5,-5,-7
1532385906814,-6,-2,-2,-2,-3,-2,-4,-3
1532385906819,0,1,-5,-1,-2,-2,10,4
1532385906824,0,3,9,1,1,0,-2,-2
1532385906829,4,1,1,1,-1,0,-1,4
1532385906834,1,4,3,0,-1,-1,3,1
1532385906839,1,-3,1,4,2,0,-3,-2
1532385906844,1,-1,-6,-1,1,-4,11,3
1532385906849,1,2,-1,-3,-1,-4,-4,1
1532385906854,2,5,-1,2,-1,2,-3,0
1532385906859,0,-2,-2,-8,-2,-1,-3,-5
1532385906864,0,-2,0,2,-1,-4,-6,-1
1532385906869,0,3,2,1,3,1,1,-1
1532385906874,0,-4,-2,1,4,0,-1,-5
1532385906879,1,1,1,1,-1,-2,7,3
1532385906884,0,-1,-1,-1,-1,-2,-3,-1
1532385906889,0,1,0,-1,0,-2,6,-2
1532385906894,0,-5,0,0,-3,-3,4,-1
1532385906899,-1,-2,0,-1,0,0,-3,-1
1532385906904,-2,-3,-3,-4,-3,-2,-4,1
1532385906909,-1,-2,-1,0,2,-1,-2,-5
1532385906914,0,-1,-1,-3,-2,3,3,2
1532385906919,-1,2,-1,-1,-4,0,-5,-2
1532385906924,-1,-1,-2,-3,-2,5,-2,-1
1532385906929,-2,-5,-1,1,1,1,-4,0
1532385906934,-2,-1,-3,-1,0,1,1,-1
1532385906939,-1,-4,-2,-5,1,0,-11,-2
1532385906944,-1,-1,-1,0,1,1,15,0
1532385906949,0,-2,-2,-1,0,2,-3,-1
1532385906954,0,-2,-1,-2,0,1,1,0
1532385906959,-1,-2,-2,1,-4,2,-2,-1
1532385906964,-2,0,-3,-3,1,-4,-5,-3
1532385906969,0,1,1,1,0,0,2,0
1532385906974,-1,3,-1,0,-1,-1,0,0
1532385906979,0,1,1,2,5,0,1,-1
1532385906984,-1,-5,0,0,-4,-1,-3,-1
1532385906989,0,3,1,-3,0,-2,2,0
1532385906994,-2,-2,1,0,1,-5,-2,-1
1532385906999,-2,-2,1,-1,-1,-1,2,-1
1532385907004,1,4,-1,1,-1,4,-4,1
1532385907009,-2,-6,-3,-3,-5,-2,-4,-3
1532385907014,1,1,0,1,0,1,5,-1
1532385907019,-2,2,1,2,1,1,-7,-2
1532385907024,0,-5,-1,-1,-2,-3,1,-1
1532385907029,1,3,-2,-1,1,-3,0,-1
1532385907034,-1,-1,-2,-4,-1,-2,-3,-3
1532385907039,-2,-1,1,0,0,-4,-3,1
1532385907044,-1,-1,-2,0,-5,-4,-7,-2
1532385907049,-1,0,0,-2,-3,-2,-1,-1
1532385907054,-1,0,-4,-3,-6,-2,-1,-1
1532385907059,0,0,-1,0,2,0,2,-1
1532385907064,1,0,0,-2,-5,-4,-8,-1
1532385907069,-1,-3,-2,-2,-2,-4,2,-1
1532385907074,-1,-4,0,-1,-8,1,-6,-3
1532385907079,1,-3,-1,-4,3,0,9,1
1532385907084,0,3,0,0,4,0,0,-1
1532385907089,-3,-7,-2,-2,-12,2,-6,-3
1532385907094,-1,3,-2,0,8,-1,5,-1
1532385907099,1,-2,0,0,-7,-3,-4,-4
1532385907104,-2,-3,-1,-3,2,-1,-2,-1
1532385907109,0,1,2,0,1,-2,1,0
1532385907114,-3,-2,-2,-4,-7,-1,-1,-2
1532385907119,1,-2,-1,-2,-1,-3,-1,-2
1532385907124,-1,0,0,1,2,-4,5,3
1532385907129,-2,2,-2,-1,-8,-2,-5,-5
1532385907134,1,0,0,1,3,-3,0,1
1532385907139,-1,-2,-3,0,1,-2,4,-1
1532385907144,-1,-1,0,-4,-5,-1,-3,-4
1532385907149,-2,-2,-3,0,-1,-1,-1,-1
1532385907154,2,0,4,4,12,-3,6,3
1532385907159,0,1,2,1,-2,2,-6,-1
1532385907164,-2,-2,-4,-4,2,2,-2,-4
1532385907169,-1,4,2,3,5,0,4,2
1532385907174,0,-4,-2,1,-9,-2,-3,-2
1532385907179,-3,2,0,-1,-2,-1,-2,-2
1532385907184,1,-3,1,-2,0,3,1,0
1532385907189,1,-1,-3,-3,5,-2,3,-1
1532385907194,-1,0,2,-3,-2,0,-5,-3
1532385907199,-1,-2,-1,1,-2,-5,0,-1
1532385907204,-2,-1,-1,0,-1,-1,-1,-2
1532385907209,0,-1,1,4,0,-1,1,1
1532385907214,-2,-2,-1,-5,-3,0,1,-2
1532385907219,-2,-5,-5,-2,-2,3,0,-1
1532385907224,1,3,-1,-3,7,-4,-2,0
1532385907229,-1,-3,0,-3,-11,3,0,0
1532385907234,0,3,-1,3,2,-1,-1,-2
1532385907239,0,-1,0,1,-12,-3,3,0
1532385907244,0,0,-1,1,1,-4,-1,-3
1532385907249,-1,-2,-2,-6,-9,-2,-2,-2
1532385907254,1,-3,0,-2,7,0,-1,-1
1532385907259,0,2,1,1,5,-1,-1,-1
1532385907264,-1,-1,0,-1,-14,0,-2,-2
1532385907269,0,-2,-1,0,12,-2,-1,-1
1532385907274,-1,-2,-2,-2,-2,-1,0,-2
1532385907279,-1,0,-3,2,2,0,0,-2
1532385907284,-1,-2,0,-3,-2,0,0,-2
1532385907289,0,3,0,3,10,-5,2,-1
1532385907294,-3,-1,-1,0,0,3,-1,-2
1532385907299,0,-3,0,0,-6,0,-3,-2
1532385907304,-1,-2,-2,1,2,1,2,-1
1532385907309,-2,-3,-2,-1,1,-1,0,1
1532385907314,0,0,-1,-1,-5,-2,1,-1
1532385907319,-1,1,0,-1,5,-1,-1,1
1532385907324,1,-1,0,-1,1,3,-2,0
1532385907329,0,-1,0,-3,0,3,0,-1
1532385907334,-1,0,2,2,3,0,0,0
1532385907339,-2,1,-1,0,0,2,1,1
1532385907344,-2,-3,-4,-9,-3,0,-1,-3
1532385907349,-2,-2,0,0,-3,-1,-3,-2
1532385907354,0,1,1,1,2,-2,-1,-2
1532385907359,-1,-4,-2,-2,-1,0,-1,-2
1532385907364,-3,5,1,5,1,-3,0,-1
1532385907369,-1,-9,-1,2,1,0,-2,-2
1532385907374,0,1,-3,-4,2,-1,-1,-2
1532385907379,0,-5,0,-1,1,-3,-1,-1
1532385907384,1,3,-1,0,-2,-2,1,-1
1532385907389,0,-2,-6,-1,-1,0,2,-2
1532385907394,-1,-4,2,0,-3,-3,0,1
1532385907399,1,0,1,-2,-3,-1,-2,-1
1532385907404,0,-2,0,-1,-2,-2,1,0
1532385907409,-2,3,0,3,2,-2,-3,0
1532385907414,-1,-3,-1,-1,-2,-2,-1,-1
1532385907419,0,2,-2,-2,-3,-1,-2,0
1532385907424,-1,-3,-2,-1,2,-4,-1,-1
1532385907429,0,2,0,-3,-1,0,-1,0
1532385907434,1,0,-2,-1,-2,0,-2,1
1532385907439,-1,1,2,0,-1,-1,-1,-2
1532385907444,0,-1,-2,-1,1,-1,1,-3
1532385907449,-1,2,-1,-3,-1,-3,0,1
1532385907454,-1,-2,1,1,-2,-2,-3,0
1532385907459,-1,-2,-1,-6,-2,-3,0,-3
1532385907464,-1,-2,-1,3,-1,-2,-3,-1
1532385907469,2,1,1,-4,-5,-2,1,-1
1532385907474,-2,-1,-3,-1,2,-4,-3,-3
1532385907479,0,1,-5,-1,4,-2,2,0
1532385907484,-3,-5,2,3,-1,-3,-2,-2
1532385907489,0,0,0,0,0,-2,-3,-4
1532385907494,-2,2,-3,-2,-5,1,1,-1
1532385907499,1,0,-1,-2,0,-4,-1,-2
1532385907504,-4,-7,0,-4,-1,0,-1,-3
1532385907509,-1,1,0,2,3,-6,1,-1
1532385907514,0,0,-3,-1,-2,-5,0,-1
1532385907519,0,0,1,1,0,-1,0,1
1532385907524,-1,2,-1,-1,-2,-5,-1,-1
1532385907529,0,0,0,3,2,3,1,-1
1532385907534,-2,2,-1,-1,-2,-1,-2,-1
1532385907539,0,-10,-8,-1,0,-1,-1,0
1532385907544,0,-3,-2,-7,-5,-1,-2,0
1532385907549,1,3,4,3,1,-3,-1,0
1532385907554,0,-4,0,1,1,-1,0,-1
1532385907559,0,5,3,3,2,-4,0,0
1532385907564,1,1,-5,-3,-1,2,0,1
1532385907569,-1,-6,-5,-5,-4,1,-3,-2
1532385907574,-1,1,1,1,-1,1,1,0
1532385907579,-1,0,2,1,-3,1,-2,-1
1532385907584,-1,-2,-2,3,2,0,-2,-2
1532385907589,-1,1,-2,-5,-1,1,1,0
1532385907594,1,-4,0,-1,-2,-1,-1,-1
1532385907599,-1,-3,-2,-2,-2,-1,-1,-2
1532385907604,-1,1,2,1,0,-3,1,0
1532385907609,-1,-4,-5,-1,-3,-3,-3,0
1532385907614,-2,3,1,-1,-2,1,-1,-2
1532385907619,-2,-10,2,0,2,-1,0,1
1532385907624,1,-2,-1,2,-3,0,-2,-1
1532385907629,-1,1,0,-1,1,-4,-1,-1
1532385907634,-2,-4,-2,-5,-4,-2,0,0
1532385907639,-2,3,0,-2,0,-1,0,-1
1532385907644,2,2,0,4,2,-2,0,0
1532385907649,-1,-3,-2,-2,-4,-4,-1,-2
1532385907654,1,3,-2,-4,-2,-3,-2,-1
1532385907659,-2,3,-1,-1,1,0,0,-1
1532385907664,0,-1,0,3,3,1,-2,-1
1532385907669,-1,0,1,3,-2,1,-1,-2
1532385907674,-1,-4,-2,-2,-2,1,-1,-3
1532385907679,0,3,0,-2,-1,1,-1,-2
1532385907684,-1,-3,0,-2,-1,0,-2,-1
1532385907689,0,1,1,3,-3,0,-2,-1
1532385907694,1,-2,-2,0,0,2,0,-1
1532385907699,1,0,-5,1,1,-1,-1,-2
1532385907704,-3,6,4,-2,-1,-2,0,-1
1532385907709,-1,-4,-1,-3,1,3,-1,0
1532385907714,-1,-4,0,2,-2,-2,1,0
1532385907719,-1,2,1,0,3,-1,-2,-1
1532385907724,0,-1,-8,0,-3,3,-1,0
1532385907729,0,2,4,0,-1,-1,-1,1
1532385907734,0,4,-1,0,0,-4,0,-1
1532385907739,0,-11,0,1,0,-3,1,-1
1532385907744,-1,25,4,0,-1,0,0,-2
1532385907749,-1,8,1,0,1,-2,-1,-2
1532385907754,1,-13,-4,-2,0,0,0,0
1532385907759,0,3,0,2,-3,-4,-1,-3
1532385907764,-2,-9,-10,-5,-2,-2,-1,-1
1532385907769,-1,-2,0,-1,-1,-4,0,-3
1532385907774,-1,8,0,0,1,-3,1,-3
1532385907779,-1,1,3,1,-5,-3,-2,-1
1532385907784,-1,-8,0,0,-5,-3,-1,0
1532385907789,0,0,-2,-2,3,0,-1,-3
1532385907794,-1,-7,-2,2,2,1,0,0
1532385907799,-1,2,-3,-7,-2,0,0,-2
1532385907804,-2,-4,0,-1,-1,3,-1,-3
1532385907809,-2,0,-2,-3,-4,-3,0,0
1532385907814,0,3,3,-2,0,-2,-2,0
1532385907819,0,-1,-4,0,0,0,-1,-2
1532385907824,0,-12,-1,-1,3,-6,-1,-3
1532385907829,0,18,4,-3,-3,-2,0,0
1532385907834,-1,-11,-4,-4,1,0,-2,-3
1532385907839,0,8,2,-1,-1,-2,-1,-1
1532385907844,-2,-7,-4,-1,-6,-1,-2,-2
1532385907849,-1,-11,-5,3,1,-4,0,0
1532385907854,-2,5,0,-3,0,-3,1,-1
1532385907859,2,-3,-1,-2,-8,-1,-2,0
1532385907864,-1,4,-1,0,3,-2,2,0
1532385907869,-2,-14,-1,-1,-2,-4,-2,-3
1532385907874,-3,9,1,-2,-1,-3,-1,-1
1532385907879,-2,-6,-3,-1,-2,0,-1,-2
1532385907884,2,4,0,-2,0,-4,0,0
1532385907889,0,11,-1,0,2,2,0,0
1532385907894,-2,-17,0,-2,-4,-3,0,-1
1532385907899,-2,-13,-3,-2,3,0,-2,-1
1532385907904,1,21,2,-3,-2,-4,-2,-1
1532385907909,-2,-3,-3,0,-2,-1,0,0
1532385907914,1,9,3,5,8,-3,-3,-2
1532385907919,-1,3,1,-3,-3,-3,-1,1
1532385907924,1,13,-1,-1,-2,0,0,0
1532385907929,-1,-41,-8,-6,-1,-1,-2,-3
1532385907934,-1,6,2,-1,-3,3,-1,0
1532385907939,0,-4,0,2,3,-2,0,-1
1532385907944,-2,-5,2,2,-1,-3,-1,-2
1532385907949,0,9,0,0,0,0,0,-1
1532385907954,0,-6,-2,-1,-3,-4,-1,-1
1532385907959,-2,4,1,0,1,-1,1,-2
1532385907964,-1,-2,-1,-1,0,3,1,-2
1532385907969,-2,1,-2,-2,-2,-2,-1,-1
1532385907974,-1,-1,0,-2,-3,-3,-1,-2
1532385907979,-1,6,0,1,-1,0,-1,0
1532385907984,-2,-16,1,-2,-3,0,0,-2
1532385907989,1,4,-2,-1,-2,-3,-2,-1
1532385907994,-3,-8,-2,0,-1,-3,0,-1
1532385907999,0,0,-5,-5,-1,-1,0,-1
1532385908004,0,4,4,1,3,-3,0,-2
1532385908009,-2,-6,-2,0,5,2,0,-1
1532385908014,5,5,1,0,-1,1,-1,0
1532385908019,-4,4,5,1,2,-1,-2,-1
1532385908024,-2,-12,-4,-2,-1,1,0,-1
1532385908029,1,8,0,-6,-4,-1,1,0
1532385908034,-4,2,-2,0,1,-2,1,-1
1532385908039,-1,-3,-3,2,-2,1,-2,1
1532385908044,2,-1,-4,-5,-1,0,-2,-1
1532385908049,-1,1,5,1,-2,3,0,-1
1532385908054,0,-3,-2,1,-4,1,-2,-1
1532385908059,2,3,2,0,-2,-3,0,-2
1532385908064,-1,-6,0,2,-1,1,-1,0
1532385908069,1,0,-4,-2,-1,1,0,0
1532385908074,-1,-7,-1,-3,-2,1,-1,-1
1532385908079,-3,-2,0,-2,-1,1,-1,-2
1532385908084,3,1,-1,1,0,4,0,0
1532385908089,-4,-2,-3,0,-2,-2,-1,-2
1532385908094,0,1,3,0,2,-1,2,0
1532385908099,2,1,0,-2,-1,0,1,-1
1532385908104,-4,-6,-1,-2,2,-2,-1,-2
1532385908109,0,4,1,-1,0,1,-1,-2
1532385908114,-1,1,-3,-1,-1,1,-1,-1
1532385908119,-1,0,-3,-2,-3,0,0,-1
1532385908124,-3,2,0,-1,5,-3,0,-2
1532385908129,-2,-5,1,2,-1,-5,-1,0
1532385908134,1,4,-4,0,-1,-1,0,-1
1532385908139,-2,-5,-3,-3,-4,-4,-1,-2
1532385908144,-2,-1,2,0,-2,4,-1,-1
1532385908149,0,1,0,0,0,-4,-1,-1
1532385908154,1,1,0,-5,-1,1,0,-1
1532385908159,2,-3,1,1,2,-2,1,0
1532385908164,0,0,-3,2,-2,-2,-2,-1
1532385908169,0,-1,-2,-4,-2,1,-1,-1
1532385908174,-1,0,-2,-1,-3,-5,1,0
1532385908179,0,1,1,-1,1,-2,-1,-1
1532385908184,-3,-2,0,1,-2,-2,-2,-1
1532385908189,1,0,1,-2,-1,-3,-2,-1
1532385908194,0,2,0,3,0,0,-3,-1
1532385908199,-1,-6,-5,-2,-3,-1,-2,-2
1532385908204,0,-2,-1,1,-1,0,1,-1
1532385908209,-2,-2,-1,3,-2,-1,-2,-2
1532385908214,-2,-1,-4,-5,-1,-4,0,-3
1532385908219,-1,7,-3,-2,2,0,2,-2
1532385908224,0,-11,7,1,-3,-5,-4,-3
1532385908229,-1,6,-5,0,0,-4,2,0
1532385908234,-2,-5,6,4,2,-2,-3,-2
1532385908239,-1,1,-2,1,0,-1,-2,-1
1532385908244,1,1,-6,-6,-4,-3,0,-3
1532385908249,-1,-3,3,0,1,-1,-3,0
1532385908254,-1,9,-2,2,0,-2,0,0
1532385908259,0,-15,-4,0,-2,-2,-1,0
1532385908264,-1,4,2,-1,-1,-3,-2,1
1532385908269,0,-1,4,-3,1,-2,1,-1
1532385908274,-1,-3,-2,-5,-4,0,-2,-2
1532385908279,-1,5,-1,0,-3,-4,-2,-2
1532385908284,2,1,-4,1,3,-5,3,-1
1532385908289,-1,-3,-3,-1,0,-2,-2,-2
1532385908294,-1,-3,1,0,0,0,-2,-2
1532385908299,-2,-2,1,-1,1,3,0,-2
1532385908304,-1,-2,-2,-3,-4,4,-2,-2
1532385908309,0,0,-1,0,0,4,-1,-2
1532385908314,-1,-3,0,0,-1,1,-1,-1
1532385908319,-1,3,3,4,0,-2,-3,-2
1532385908324,-2,-14,-6,-1,0,-4,0,-1
1532385908329,1,9,1,-5,-1,-3,1,0
1532385908334,0,-3,3,-2,-2,-5,-1,-2
1532385908339,0,3,2,-1,0,1,0,-2
1532385908344,0,7,-2,3,-1,-3,-2,0
1532385908349,-1,-4,-4,-1,-2,-3,0,0
1532385908354,-1,-7,-5,1,0,-3,0,0
1532385908359,0,-1,1,-1,1,0,1,1
1532385908364,-1,-2,0,-4,-2,-1,-2,-1
1532385908369,-2,-5,0,2,-2,-3,-1,-2
1532385908374,0,4,-1,-2,1,-2,0,-2
1532385908379,1,-3,-2,0,-1,-5,-1,0
1532385908384,-1,3,0,0,0,-2,-1,-2
1532385908389,0,1,0,0,0,-5,-2,-1
1532385908394,-2,14,-1,0,-1,-2,1,-2
1532385908399,-1,-16,-3,-3,-1,-1,0,-1
1532385908404,-1,-4,-5,-2,0,3,-1,-1
1532385908409,0,2,1,-1,-1,2,-2,-1
1532385908414,0,-5,1,-2,-2,0,0,0
1532385908419,-2,-2,-1,-1,-2,-2,1,-1
1532385908424,1,7,4,-3,-3,0,1,-3
1532385908429,0,-5,-1,0,3,3,-1,-2
1532385908434,-1,-2,-3,1,-1,0,-3,-1
1532385908439,-1,1,-1,-2,-1,1,0,-1
1532385908444,-1,-4,-2,0,0,2,1,0
1532385908449,0,-1,0,1,-1,-1,0,0
1532385908454,-1,0,-3,0,1,3,1,-1
1532385908459,-1,-4,-1,1,-1,-1,-1,-1
1532385908464,2,8,0,-2,-2,1,0,0
1532385908469,-2,-10,-1,1,-2,-1,-1,-1
1532385908474,0,-7,-2,-1,0,0,-1,-2
1532385908479,0,6,6,0,-2,1,-3,-3
1532385908484,-1,2,-1,-1,2,1,-1,-1
1532385908489,1,3,-1,-3,-3,-3,-2,-1
1532385908494,-1,-1,-2,-1,0,-3,-1,-1
1532385908499,-1,0,-3,0,-3,0,-1,-2
1532385908504,1,-1,-1,0,1,-6,-1,0
1532385908509,-1,-1,-1,0,1,0,0,-1
1532385908514,-2,-8,-3,1,-2,-1,-2,0
1532385908519,1,12,5,-1,-2,-2,-1,-1
1532385908524,-1,-10,-1,-5,0,0,0,-1
1532385908529,-1,3,-2,1,-1,-1,-1,-1
1532385908534,0,4,0,-3,-3,-3,-3,-1
1532385908539,1,-7,-4,1,4,-1,2,1
1532385908544,-2,0,-3,0,-3,-4,-1,0
1532385908549,0,-2,3,0,1,2,0,-1
1532385908554,0,2,-1,-2,0,-1,0,0
1532385908559,-1,2,1,0,-1,-1,0,0
1532385908564,-3,0,1,-2,0,-3,-2,-2
1532385908569,-1,0,-4,-1,0,-2,-1,-2
1532385908574,0,0,2,0,-1,1,0,0
1532385908579,-1,-1,-3,-5,-3,-5,-1,-2
1532385908584,1,-3,0,1,-1,-3,-1,0
1532385908589,-1,7,-4,-2,-1,1,1,-2
1532385908594,-1,-11,-1,-3,0,2,0,-3
1532385908599,-1,-8,-1,-1,3,-1,1,0
1532385908604,-1,8,3,1,-2,-1,-2,-3
1532385908609,-2,-5,-6,-2,-1,0,-2,0
1532385908614,1,6,3,0,-2,-2,-1,-2
1532385908619,-2,-9,-8,-1,-2,0,-1,-1
1532385908624,4,0,1,2,3,-8,3,2
1532385908629,-17,1,1,-1,-2,-2,-3,-3
1532385908634,12,-2,-2,-1,4,-3,2,6
1532385908639,-4,6,0,-1,-4,-1,-5,0
1532385908644,-2,0,-3,0,1,-2,1,-2
1532385908649,-11,-12,-3,-2,-2,-4,-3,-15
1532385908654,6,0,1,-1,0,-2,0,14
1532385908659,-25,-8,-4,-1,-4,-3,-1,-14
1532385908664,36,5,6,-1,-1,1,-1,9
1532385908669,-3,-1,-4,2,2,1,-1,-7
1532385908674,-16,-5,2,-2,0,-2,0,-10
1532385908679,9,5,-1,0,-3,-1,3,8
1532385908684,-20,-9,-6,-1,1,0,-4,-15
1532385908689,8,2,2,-2,-4,-3,1,4
1532385908694,6,-2,-5,2,5,-3,-4,-6
1532385908699,1,3,0,-1,0,-1,-1,2
1532385908704,-5,-3,-2,-2,-1,-5,2,-1
1532385908709,5,-2,0,-2,1,-2,0,3
1532385908714,-7,2,0,1,-8,-4,-1,-2
1532385908719,3,2,2,-2,6,-13,-3,-1
1532385908724,-2,4,-2,2,-4,-2,0,-2
1532385908729,1,-5,-1,-1,-1,0,-1,1
1532385908734,-1,3,-3,-1,-7,3,2,0
1532385908739,3,0,2,-1,5,6,-3,-5
1532385908744,-3,5,-5,-1,-5,6,-1,0
1532385908749,2,-6,5,1,-8,-2,0,1
1532385908754,-6,-7,-1,-2,-10,3,-3,-3
1532385908759,10,9,1,-2,9,2,3,1
1532385908764,-9,-3,-1,-3,1,2,-4,1
1532385908769,1,2,-2,1,13,1,1,4
1532385908774,-1,2,-2,0,-5,0,-1,-2
1532385908779,6,-2,-2,1,2,0,-3,-2
1532385908784,-4,-8,-1,1,1,0,3,3
1532385908789,1,10,2,-1,-1,3,-3,-3
1532385908794,-9,-9,0,-1,0,-2,1,-4
1532385908799,0,1,-8,-1,-6,1,-2,0
1532385908804,0,-6,-3,-1,1,-3,-1,-3
1532385908809,3,2,2,-3,-7,0,1,1
1532385908814,-6,3,1,-1,6,2,-1,-3
1532385908819,-5,-9,1,0,-5,2,-3,-3
1532385908824,-3,3,-3,-1,-3,5,-2,-1
1532385908829,0,-3,-3,-1,-2,1,3,4
1532385908834,2,-1,5,2,0,-1,-1,0
1532385908839,0,16,2,-1,-3,2,1,2
1532385908844,-2,-7,1,2,3,-1,0,-4
1532385908849,-5,4,0,0,-4,-1,-3,-1
1532385908854,9,-6,-6,-2,-2,1,3,3
1532385908859,-10,-6,-6,1,3,3,-2,-3
1532385908864,6,-15,0,1,-4,1,-3,-3
1532385908869,7,25,1,-2,-5,-3,0,-4
1532385908874,-5,6,-2,0,21,0,1,-2
1532385908879,-1,1,-1,-3,-9,-3,2,-6
1532385908884,-5,-1,2,0,-1,-1,-1,2
1532385908889,-2,-11,2,2,0,0,-1,-2
1532385908894,-1,0,-1,-1,-6,-2,-4,-4
1532385908899,0,4,0,-3,0,-3,0,1
1532385908904,-2,0,2,-1,1,-4,-1,-2
1532385908909,1,-12,-1,-3,-3,0,-1,0
1532385908914,-3,4,-3,-3,-1,-3,-3,-2
1532385908919,0,-10,-2,-2,2,-4,-2,0
1532385908924,3,4,0,4,-1,-2,0,0
1532385908929,-2,1,-1,-10,0,-1,0,-3
1532385908934,0,-3,0,2,1,-3,0,-1
1532385908939,0,-3,2,-2,0,-6,0,-2
1532385908944,-2,4,1,-4,-2,-4,0,-1
1532385908949,-1,2,-1,4,3,-3,-1,1
1532385908954,-1,-2,-1,-4,-2,1,-2,-2
1532385908959,1,-3,0,0,-2,1,-1,0
1532385908964,-1,3,-1,-1,-1,-3,-1,-2
1532385908969,-1,-8,-2,1,2,-1,0,-2
1532385908974,2,-2,0,-1,-6,-3,-1,0
1532385908979,0,2,2,3,3,-5,0,-1
1532385908984,-1,-3,-4,-9,-2,0,0,1
1532385908989,1,-2,-1,2,1,-2,-2,-1
1532385908994,1,0,0,1,-4,-2,-2,-2
1532385908999,0,0,1,-1,-1,-4,-1,-2
1532385909004,-1,1,-3,-5,-1,-4,-2,-1
1532385909009,0,-4,-2,1,2,-4,0,-1
1532385909014,0,3,-1,-2,-4,-4,-2,-2
1532385909019,0,3,-1,-1,-1,0,3,1
1532385909024,3,-5,2,1,-2,-2,1,2
1532385909029,-2,-5,-2,-3,-4,-3,1,-2
1532385909034,-4,-1,-5,0,2,-1,-3,-1
1532385909039,0,0,2,-1,0,2,-1,-4
1532385909044,-2,1,3,2,15,-1,-9,-2
1532385909049,-11,1,-2,0,-8,0,22,3
1532385909054,27,3,0,1,-6,-1,-6,0
1532385909059,-15,-4,-5,-3,-4,-3,-5,-8
1532385909064,-2,0,1,0,-5,2,-3,-2
1532385909069,-5,-2,-4,-4,2,0,-3,-2
1532385909074,-5,-4,-5,-2,5,-7,2,0
1532385909079,3,-1,0,-1,-5,-3,0,2
1532385909084,1,1,2,-2,-3,-4,1,-1
1532385909089,3,1,-1,0,1,-2,-4,0
1532385909094,-5,-1,2,-1,-2,3,2,-1
1532385909099,5,-2,-1,1,1,-1,1,1
1532385909104,-3,0,-1,0,-3,-2,1,-3
1532385909109,3,0,-3,-1,1,-5,-1,-1
1532385909114,-3,0,1,-1,-2,-2,-2,-1
1532385909119,-3,-4,-1,-2,0,1,-1,-2
1532385909124,1,1,-1,4,-1,-3,4,0
1532385909129,1,1,1,1,-1,-6,-6,-2
1532385909134,-5,-2,-1,-5,-1,0,1,-3
1532385909139,3,-1,0,1,0,-1,-1,1
1532385909144,-1,0,-3,-1,-4,1,1,-1
1532385909149,0,-2,2,2,3,0,-6,-1
1532385909154,-4,0,1,-2,-1,2,0,0
1532385909159,1,-1,0,-3,-2,-2,0,0
1532385909164,-1,-1,-3,3,1,-1,-1,-2
1532385909169,-1,4,7,1,0,4,-4,-3
1532385909174,-3,-4,0,1,1,1,2,-2
1532385909179,0,0,-1,2,0,0,-2,0
1532385909184,-1,-1,-3,-6,-7,2,-1,0
1532385909189,1,-5,-4,-2,-1,3,-1,-1
1532385909194,-3,2,-1,0,1,-2,0,2
1532385909199,0,0,3,2,-1,4,-1,-1
1532385909204,-1,-1,-1,1,0,4,1,0
1532385909209,0,0,-1,2,1,1,-2,0
1532385909214,0,-3,-5,-4,-5,-4,0,-1
1532385909219,-3,-3,-4,-7,0,-5,-2,0
1532385909224,1,0,1,2,0,2,-1,-2
1532385909229,-1,-2,0,0,0,-1,-3,-1
1532385909234,-1,-1,-1,4,2,-4,0,-1
1532385909239,0,1,2,2,0,2,-1,0
1532385909244,0,-1,-2,-5,-1,-3,-2,0
1532385909249,-1,-4,-7,-2,-1,0,1,-1
1532385909254,-2,0,3,0,3,-4,-1,-1
1532385909259,-2,-2,-2,-1,0,0,0,-1
1532385909264,-3,-4,-2,-5,-1,-1,-2,-1
1532385909269,1,1,2,-5,-3,-3,-1,-1
1532385909274,2,2,4,5,-1,1,-3,-1
1532385909279,0,2,0,2,-2,-1,1,-1
1532385909284,-1,-2,-2,0,-1,-1,-1,-2
1532385909289,0,-4,-6,-4,-3,-2,0,0
1532385909294,-1,-2,-2,-2,-3,2,2,-1
1532385909299,2,1,0,0,0,-1,-4,-2
1532385909304,0,0,0,1,0,7,5,1
1532385909309,1,1,0,1,-2,14,-5,-2
1532385909314,-1,-2,-1,-6,-2,26,0,0
1532385909319,-1,-1,1,-1,-3,14,-12,-3
1532385909324,2,3,0,3,6,-6,31,5
1532385909329,-5,-2,1,0,0,-17,-5,-2
1532385909334,2,1,-3,1,1,-18,0,-1
1532385909339,-3,-4,-6,-6,-3,-16,-5,-1
1532385909344,0,1,1,-2,-3,-11,-6,-3
1532385909349,-1,1,1,1,0,-7,1,0
1532385909354,-2,-3,-3,-2,-1,-1,-3,-2
1532385909359,-1,0,-1,0,0,5,4,1
1532385909364,-1,0,1,-2,-1,5,-6,-4
1532385909369,-1,-5,-2,1,-2,5,0,1
1532385909374,-1,1,-1,-1,2,3,-7,-1
1532385909379,1,-1,-2,-6,-5,-5,2,0
1532385909384,-3,-3,-1,1,-1,-3,-4,-1
1532385909389,-1,-2,0,-1,0,-6,-2,-3
1532385909394,0,0,0,4,0,-10,-2,-2
1532385909399,0,-1,-1,-6,-3,-6,3,-1
1532385909404,-1,1,-1,-1,-1,-4,-7,-3
1532385909409,0,-3,-1,-2,-2,-1,2,1
1532385909414,0,1,0,2,2,-6,1,-1
1532385909419,-2,-2,-2,5,1,-1,2,-2
1532385909424,0,1,0,1,-1,-2,-6,-1
1532385909429,1,-2,-3,-5,-3,1,-2,-2
1532385909434,-1,2,-1,-1,-2,-4,1,-1
1532385909439,-1,-2,-1,-2,0,-3,-4,-1
1532385909444,0,0,1,3,0,-1,-2,-1
1532385909449,-2,0,2,1,3,-2,2,-2
1532385909454,-1,-2,-2,-4,-5,1,-1,-2
1532385909459,1,-2,-1,-1,1,3,0,-1
1532385909464,0,-3,-2,-3,-2,-2,-7,-1
1532385909469,-1,1,0,4,2,2,2,-1
1532385909474,0,-4,-2,-2,0,1,1,-1
1532385909479,-1,1,-1,0,1,-1,1,-1
1532385909484,-1,1,0,3,0,1,-1,-2
1532385909489,0,-1,2,-3,-3,0,-2,-1
1532385909494,-1,-2,-2,-4,0,1,0,-1
1532385909499,0,-1,1,1,1,-3,2,1
1532385909504,-1,-2,-1,0,1,1,-1,0
1532385909509,1,5,-2,-3,-2,0,-1,-1
1532385909514,-1,-2,-2,2,1,0,0,-1
1532385909519,-2,-4,-3,-4,-1,-4,-1,1
1532385909524,-2,0,0,-2,-1,0,-2,-2
1532385909529,-2,-2,1,1,-2,1,1,0
1532385909534,1,3,0,1,0,-2,-1,-2
1532385909539,-1,-1,0,4,1,0,1,-2
1532385909544,-2,0,-1,-4,0,1,-2,-1
1532385909549,-2,-5,-5,0,-1,1,-4,-1
1532385909554,-1,1,0,-4,-1,0,1,-1
1532385909559,-4,1,0,0,-1,-1,-3,-1
1532385909564,-12,0,-3,0,-4,-2,-1,0
1532385909569,14,-7,-4,-2,1,-1,-6,-2
1532385909574,3,3,2,0,-4,0,0,-9
1532385909579,-2,2,3,0,-1,3,-2,-7
1532385909584,-1,0,-1,-1,-2,-3,0,13
1532385909589,-16,-2,-1,-1,-3,-1,-1,-4
1532385909594,8,-1,-3,-1,-1,-2,-2,3
1532385909599,0,0,-2,0,-4,0,1,-2
1532385909604,2,0,0,0,2,0,-2,-1
1532385909609,1,1,-1,-2,-5,-1,9,5
1532385909614,-4,-4,0,0,9,3,0,-3
1532385909619,1,2,-1,-1,-6,-8,-1,-5
1532385909624,3,-1,-1,0,6,1,2,-3
1532385909629,1,-1,1,-2,1,-2,-2,0
1532385909634,-2,-1,0,0,-4,-7,-2,0
1532385909639,0,-3,-1,-2,4,-2,2,3
1532385909644,0,-3,-2,-2,-5,-5,-4,-4
1532385909649,2,6,1,0,1,-4,-1,-1
1532385909654,-2,-1,0,-3,-2,-7,1,0
1532385909659,-1,-3,-2,1,-1,-7,-2,3
1532385909664,3,-4,-1,-2,-1,-12,1,-4
1532385909669,-2,3,-2,-6,-1,-1,0,-2
1532385909674,-3,-2,-2,1,-3,2,-2,1
1532385909679,2,-3,0,-2,1,1,-2,1
1532385909684,0,-1,-2,-1,-6,5,-1,-3
1532385909689,-2,-1,1,4,7,4,-1,0
1532385909694,-2,-1,0,2,0,2,0,-1
1532385909699,1,-2,-1,-9,-13,-2,-1,0
1532385909704,1,-3,-2,-1,4,3,0,-3
1532385909709,-2,-1,-3,1,1,-4,-2,-1
1532385909714,4,-2,-1,0,-3,0,-3,2
1532385909719,-7,0,0,4,0,0,-4,-5
1532385909724,-2,-3,-2,-2,-3,-1,0,2
1532385909729,6,-1,-1,-2,-3,0,-2,1
1532385909734,-3,-1,-1,-2,2,-3,-1,-2
1532385909739,-7,-2,-2,0,1,-1,2,0
1532385909744,11,1,1,2,0,-4,-1,3
1532385909749,-3,2,-1,1,1,-2,2,-1
1532385909754,-3,0,-2,0,-1,-5,-3,-1
1532385909759,1,-1,-2,-2,-3,-3,-1,-1
1532385909764,-6,-1,-1,-1,1,-3,0,-4
1532385909769,-1,-2,-1,-1,-3,-4,-3,-2
1532385909774,0,-2,-1,0,3,0,-1,-1
1532385909779,-2,-3,-2,-5,-2,2,1,1
1532385909784,-2,-1,-2,-2,-5,0,-1,-3
1532385909789,0,-1,0,3,6,-7,0,1
1532385909794,-2,-1,-1,-6,-6,-4,0,-2
1532385909799,4,1,1,4,6,-2,-2,-1
1532385909804,1,-1,-1,-1,-3,-4,0,-3
1532385909809,0,-1,1,0,-4,-3,-1,-2
1532385909814,0,-1,-2,2,2,-5,2,-2
1532385909819,2,1,-2,0,2,2,0,0
1532385909824,-1,0,-1,1,-2,0,-2,-1
1532385909829,-3,0,-2,-1,0,2,0,-3
1532385909834,-2,0,0,-3,-1,3,1,1
1532385909839,2,1,0,-1,1,-2,0,1
1532385909844,-5,-1,-1,-1,0,2,-3,-2
1532385909849,-2,1,0,-3,-3,1,0,0
1532385909854,2,-3,-3,-1,-5,2,-2,0
1532385909859,-3,-1,0,1,0,-1,-1,-3
1532385909864,-6,0,-2,-1,1,-2,-1,-4
1532385909869,1,-1,-1,-2,-5,-2,-1,1
1532385909874,-2,-1,0,-1,-2,1,-2,-1
1532385909879,0,-1,-1,0,0,-4,0,0
1532385909884,2,1,0,1,-2,0,0,0
1532385909889,-1,-2,-2,-4,1,-2,-2,-2
1532385909894,0,1,-1,0,-3,-2,0,-2
1532385909899,2,-1,1,0,0,1,0,-2
1532385909904,0,0,-1,2,1,1,0,1
1532385909909,-2,-2,0,1,-3,0,-3,-1
1532385909914,0,0,-2,-2,2,0,-2,0
1532385909919,-1,0,-1,0,-2,-1,0,-3
1532385909924,0,-1,0,-3,1,-2,-3,-1
1532385909929,-5,0,-2,1,-1,2,0,-6
1532385909934,-2,-2,-1,-1,-2,-1,-1,0
1532385909939,0,-1,-1,0,-1,2,-2,-1
1532385909944,1,-1,1,1,-1,0,0,1
1532385909949,0,0,-1,-1,0,1,0,1
1532385909954,0,0,0,1,0,-1,1,-2
1532385909959,-6,-1,-2,-3,1,0,-1,1
1532385909964,10,-1,0,-2,-2,-1,-2,-2
1532385909969,0,0,2,1,-1,0,-1,1
1532385909974,0,1,-2,-3,-1,2,0,1
1532385909979,-1,-2,-1,-1,0,-1,-4,-2
1532385909984,-5,1,1,-1,-2,0,0,-1
1532385909989,0,-3,-2,-3,-2,-4,0,-1
1532385909994,0,-2,0,1,3,-2,-1,0
1532385909999,3,1,1,1,-1,0,0,0
1532385910004,-2,0,0,-1,0,3,-1,-1
1532385910009,4,-3,-4,-5,-3,2,-1,-1
1532385910014,-6,-1,-1,-1,-2,-3,-1,-1
1532385910019,2,-1,0,0,-1,-2,0,1
1532385910024,-4,-5,-1,0,-1,-4,-3,-2
1532385910029,-1,0,0,-2,0,-6,0,1
1532385910034,1,0,-2,-2,-4,-3,-1,-4
1532385910039,0,-1,0,-1,1,-1,2,1
1532385910044,-1,1,-1,0,1,-1,1,-1
1532385910049,-4,0,1,1,-1,-2,-2,-1
1532385910054,6,1,-1,0,-1,-2,-3,-3
1532385910059,-1,-4,1,-1,1,-5,-2,-4
1532385910064,-2,-2,-1,-2,-2,1,-2,-1
1532385910069,-3,1,-1,0,1,-2,-2,-1
1532385910074,-1,-3,-2,-2,-4,-5,-1,3
1532385910079,0,8,-3,-1,-1,0,0,-2
1532385910084,0,-9,-4,-2,0,-6,-2,0
1532385910089,-3,-1,-2,0,-3,0,-1,-1
1532385910094,-1,0,2,3,2,0,0,-1
1532385910099,2,-2,-1,-1,-4,-3,-1,1
1532385910104,-2,3,0,-1,1,1,3,-1
1532385910109,0,-1,-1,-1,-1,-4,-1,-2
1532385910114,-2,-4,0,-1,0,-2,0,0
1532385910119,-8,-3,-2,-3,-2,-2,-1,-1
1532385910124,9,1,1,1,-1,-2,-1,-2
1532385910129,-1,-1,0,-1,1,-1,-2,-6
1532385910134,-2,-1,-2,0,-1,0,-2,-2
1532385910139,0,0,-1,-1,-1,1,-3,-3
1532385910144,-3,0,1,-1,-2,-2,0,1
1532385910149,2,0,-1,0,-1,1,2,2
1532385910154,-1,-2,0,-1,-1,0,2,-1
1532385910159,1,-1,0,1,0,8,-1,0
1532385910164,-1,1,-1,-2,-1,2,-1,4
1532385910169,-1,-3,-1,-2,-2,7,-1,-3
1532385910174,2,-3,-3,-2,0,-2,1,-5
1532385910179,-6,1,0,0,-1,-3,-2,-2
1532385910184,0,-2,-1,-1,-4,-1,1,-1
1532385910189,-2,0,-2,-2,0,-8,-2,1
1532385910194,-1,1,0,0,-2,-5,-3,0
1532385910199,1,-1,-2,-1,0,-6,2,-1
1532385910204,-2,1,0,0,-2,-7,-3,-2
1532385910209,-3,1,0,-1,0,-3,0,-2
1532385910214,10,4,2,3,1,-2,0,-3
1532385910219,-3,-7,-3,-2,-2,-4,-1,-2
1532385910224,1,-6,-1,-2,-2,1,-1,-1
1532385910229,2,0,-2,-1,-1,0,-2,-1
1532385910234,-5,4,-4,-2,-1,-5,1,1
1532385910239,0,-4,1,1,-2,3,-1,0
1532385910244,-4,2,1,0,1,-1,2,-2
1532385910249,-1,-3,-2,0,1,1,0,-1
1532385910254,2,4,3,2,0,-1,-3,-1
1532385910259,-5,1,0,-1,-1,-1,-1,-1
1532385910264,-1,-1,-3,-2,-2,2,-1,-2
1532385910269,2,0,1,0,-1,1,1,3
1532385910274,-4,-2,0,-1,1,3,-3,-3
1532385910279,1,-2,-1,1,-1,-2,0,0
1532385910284,1,-2,0,-1,-2,-2,0,-2
1532385910289,1,3,-2,0,-1,4,-1,-2
1532385910294,-3,-6,-3,-3,-1,4,0,3
1532385910299,4,1,0,1,0,6,-2,-2
1532385910304,-6,1,-1,1,1,0,-2,-2
1532385910309,7,3,1,-2,0,-1,0,3
1532385910314,-6,-9,-1,0,-1,5,-3,-4
1532385910319,0,0,-2,-3,0,3,-1,-1
1532385910324,-3,-2,-2,-1,-1,-3,0,-1
1532385910329,-3,-2,1,0,-1,-7,0,-2
1532385910334,0,0,-6,-2,3,0,0,0
1532385910339,0,3,7,1,0,1,-3,1
1532385910344,2,3,-5,-1,-1,4,0,1
1532385910349,-9,-12,-1,-2,-3,-1,-3,-5
1532385910354,2,3,-3,-1,-2,-1,2,0
1532385910359,-1,-2,-3,-1,-1,-3,1,0
1532385910364,0,-2,0,-1,-1,0,-2,-1
1532385910369,0,2,-1,0,1,-1,0,-1
1532385910374,-1,-1,-1,0,1,-2,0,-1
1532385910379,1,4,-1,-1,0,-2,1,3
1532385910384,-3,-5,-1,0,-1,-4,-1,-5
1532385910389,1,-1,-4,-4,-2,-3,-2,-1
1532385910394,-6,-4,-3,-1,-1,1,-1,-4
1532385910399,2,4,1,-2,-3,-3,-1,0
1532385910404,-2,-1,-1,1,-2,-1,0,0
1532385910409,-2,-5,-1,0,2,0,0,-2
1532385910414,6,8,3,-3,-3,-2,0,2
1532385910419,5,-2,-4,-3,-1,-2,-3,-4
1532385910424,-4,0,0,0,0,0,1,-2
1532385910429,-1,0,0,-1,-2,-2,-2,1
1532385910434,-7,3,1,0,0,-2,0,0
1532385910439,0,-9,-3,-1,0,-2,2,-4
1532385910444,2,-1,2,-1,0,-3,-2,3
1532385910449,1,0,0,-2,-2,-1,1,-4
1532385910454,-8,-3,-1,2,0,-1,0,0
1532385910459,8,3,-2,-2,-2,1,-1,-1
1532385910464,1,-2,-3,-1,3,-7,-2,-2
1532385910469,-1,7,4,2,-1,-1,-2,2
1532385910474,-2,-9,-2,-2,-1,3,0,-3
1532385910479,-6,-3,-2,1,-1,-4,1,-4
1532385910484,-2,0,3,-1,-2,-1,0,0
1532385910489,0,-2,-4,0,-1,5,-2,-2
1532385910494,4,0,-1,-3,-2,2,-2,-1
1532385910499,-5,-4,0,-1,1,-3,-1,0
1532385910504,-1,3,-3,-1,-1,-1,-1,-2
1532385910509,1,0,0,1,-1,-5,-1,0
1532385910514,-2,-1,1,1,-1,-6,-1,-1
1532385910519,-3,2,-1,0,-1,-1,0,0
1532385910524,-3,-2,-4,-4,-2,-1,-2,-2
1532385910529,1,-3,0,-3,0,-3,-2,0
1532385910534,0,0,-1,1,-1,-4,0,-1
1532385910539,-2,0,0,1,-1,-2,-1,-2
1532385910544,0,-2,0,2,-1,-2,0,-1
1532385910549,-1,-3,-2,-5,-1,2,-1,-2
1532385910554,0,0,0,-1,-1,-7,0,-1
1532385910559,-2,0,0,-1,-1,-5,-1,-1
1532385910564,0,-1,0,0,-3,-2,-1,-3
1532385910569,-1,-2,-2,0,0,-3,1,-1
1532385910574,0,-6,1,0,1,2,-2,-3
1532385910579,0,2,-1,-3,-2,1,0,-2
1532385910584,0,-2,-1,-1,1,2,-1,1
1532385910589,0,3,0,1,-1,2,1,-1
1532385910594,1,1,-2,-3,-1,0,-2,0
1532385910599,-2,-4,-5,-2,0,2,-1,-1
1532385910604,-1,0,-1,2,0,-2,-1,-1
1532385910609,-1,0,1,-1,-1,-1,-1,0
1532385910614,-2,1,0,4,1,-2,0,0
1532385910619,-2,0,-3,-4,-3,5,-1,-1
1532385910624,0,0,-2,-4,-1,2,-1,-2
1532385910629,-3,-5,-1,2,0,-3,-1,-3
1532385910634,-2,-2,-3,-1,-3,0,-2,-1
1532385910639,-1,1,2,1,2,-5,-2,-1
1532385910644,2,12,-1,-1,0,-1,1,2
1532385910649,-1,-16,-2,-2,0,0,-1,-3
1532385910654,-1,3,-1,-2,-1,-2,-2,-3
1532385910659,-5,-3,0,-1,-1,2,0,0
1532385910664,4,-1,-7,-1,0,-1,0,-3
1532385910669,0,12,7,-1,0,-1,1,2
1532385910674,-4,-9,0,1,1,2,0,1
1532385910679,1,-3,-2,0,-3,-1,-1,-3
1532385910684,1,-2,0,1,1,2,0,-2
1532385910689,-2,0,-6,-3,-1,-1,-1,0
1532385910694,0,-2,-1,-2,-1,4,0,-1
1532385910699,-2,0,0,2,0,2,1,2
1532385910704,-3,-4,0,-2,-1,1,-1,-2
1532385910709,2,-1,-2,-1,-2,-1,-3,-2
1532385910714,-7,0,1,0,-1,3,-1,-3
1532385910719,8,-3,-3,-3,-4,-4,-2,-3
1532385910724,-4,2,2,0,4,-1,-1,-2
1532385910729,0,-11,-1,1,-3,-3,3,2
1532385910734,3,0,-1,0,2,-4,-1,-5
1532385910739,-3,-1,-1,-1,0,-1,1,1
1532385910744,1,-2,0,-2,-7,-2,-2,-2
1532385910749,3,4,0,0,4,-3,-3,1
1532385910754,0,2,-1,1,-1,-3,-1,1
1532385910759,1,-2,1,2,6,-5,4,0
1532385910764,-9,-4,-1,-2,-2,-5,0,-2
1532385910769,-2,4,-2,0,0,-4,0,-1
1532385910774,11,1,-1,-2,-7,-7,-2,-5
1532385910779,-1,1,2,-4,-4,-3,-1,1
1532385910784,-7,-2,-1,1,-3,0,-2,-4
1532385910789,-1,-1,-1,1,0,1,-2,-1
1532385910794,-3,-3,-2,-1,1,-2,-2,-1
1532385910799,0,1,-1,1,0,-1,0,0
1532385910804,2,-3,-2,-5,-1,-3,0,1
1532385910809,1,4,3,2,-1,-1,-2,-1
1532385910814,-2,1,-1,0,-4,0,0,0
1532385910819,-4,-1,-2,-2,4,-8,0,-1
1532385910824,8,-3,0,0,-2,-5,-2,0
1532385910829,2,-1,0,-1,-3,-2,0,-4
1532385910834,-3,4,-1,1,4,-3,2,1
1532385910839,-7,-1,1,0,-3,2,-2,-4
1532385910844,5,-4,-4,0,0,4,0,0
1532385910849,-4,-5,-6,-2,0,1,0,-1
1532385910854,0,1,4,0,-2,2,1,-1
1532385910859,-1,-2,-2,-2,-3,1,-2,-2
1532385910864,-4,-3,0,-3,-1,1,-2,-2
1532385910869,-4,5,2,0,-1,-1,-2,0
1532385910874,7,-14,-4,-1,2,-1,1,2
1532385910879,-5,-3,-1,-2,0,0,-2,-5
1532385910884,-3,3,1,-2,-2,0,-2,1
1532385910889,2,-3,-1,-2,-2,-1,0,-2
1532385910894,-4,3,0,-2,0,1,-1,2
1532385910899,2,0,1,0,0,-1,-1,2
1532385910904,0,-5,0,2,0,-2,-2,-1
1532385910909,-6,1,-3,-7,-2,-2,-2,-2
1532385910914,-2,2,0,0,-3,-7,-2,-2
1532385910919,2,-4,-2,-1,-3,-4,-4,-3
1532385910924,-3,4,2,3,1,-5,2,1
1532385910929,-2,-5,-1,1,4,-2,0,-2
1532385910934,-1,1,-2,-3,-6,-2,-2,-1
1532385910939,1,-1,-1,0,2,-4,0,0
1532385910944,-2,-1,0,1,0,-2,0,-2
1532385910949,0,-1,-1,1,-2,-1,2,-1
1532385910954,-1,-3,1,0,-1,3,-1,-1
1532385910959,-1,1,0,0,-1,-2,-1,-1
1532385910964,-1,-2,-1,-4,-1,0,0,-1
1532385910969,0,-1,0,1,0,-1,-1,-1
1532385910974,-2,0,-2,-5,-2,-2,-1,-1
1532385910979,0,1,0,1,-1,-3,-2,-2
1532385910984,-2,0,-2,-1,0,1,0,0
1532385910989,1,0,0,-2,1,1,-1,-1
1532385910994,-3,-1,-1,2,-1,0,-2,-1
1532385910999,0,0,-1,-3,-2,1,1,-2
1532385911004,0,-1,0,-2,-1,-2,-1,-2
1532385911009,-2,-1,0,0,-1,-1,1,-1
1532385911014,1,1,1,-1,-3,-5,-2,-1
1532385911019,-2,-4,-1,-1,3,-2,-4,0
1532385911024,-1,1,-2,1,-2,1,-1,-1
1532385911029,0,0,-3,-3,-2,0,-2,-1
1532385911034,0,-2,0,1,1,-2,1,-3
1532385911039,1,1,1,0,-3,3,0,0
1532385911044,3,0,-1,0,-1,-4,-1,0
1532385911049,-8,-2,-1,-2,-4,0,0,3
1532385911054,10,0,-1,-1,3,-1,-10,-5
1532385911059,-3,0,3,1,6,5,13,2
1532385911064,-2,-2,-6,-4,-9,6,-8,-3
1532385911069,0,-1,0,1,-2,3,-3,1
1532385911074,-1,1,-1,-2,2,4,7,0
1532385911079,-1,-1,-3,-1,-3,3,-4,0
1532385911084,0,1,0,0,5,-3,1,0
1532385911089,3,-1,0,0,-3,-3,0,-2
1532385911094,-6,-4,-1,-2,-2,-16,0,-3
1532385911099,2,1,-1,-1,-1,-12,-4,0
1532385911104,0,-3,1,0,0,-2,4,-1
1532385911109,0,0,0,2,1,0,-6,-2
1532385911114,0,3,1,-1,0,8,1,1
1532385911119,-2,-1,-1,-2,-2,6,-1,-3
1532385911124,0,-2,-3,0,-2,2,0,0
1532385911129,0,-2,-1,-2,-1,0,-2,-3
1532385911134,-3,-1,0,2,-1,5,-3,-1
1532385911139,0,2,-1,-4,-3,-1,3,1
1532385911144,-3,-1,-1,0,2,-1,-6,-3
1532385911149,1,0,0,-5,1,-2,4,-1
1532385911154,1,0,-2,-1,1,-2,-1,0
1532385911159,-1,-2,-2,-3,-4,0,0,-2
1532385911164,-3,-3,1,0,-1,0,1,-2
1532385911169,0,0,-3,0,1,-2,1,-1
1532385911174,2,-1,-2,-3,-1,3,-1,-1
1532385911179,-4,-3,-2,-2,-1,-3,-1,-2
1532385911184,0,1,1,0,0,-2,0,0
1532385911189,-1,-1,-1,0,-1,1,0,-1
1532385911194,-3,2,-2,-2,-3,-2,2,0
1532385911199,2,0,0,0,2,-2,-3,-1
1532385911204,0,-1,-4,-1,2,-3,1,0
1532385911209,-2,-1,-3,-7,-7,-2,-1,-2
1532385911214,-1,-1,-1,3,2,-1,0,-1
1532385911219,0,-3,-1,-5,-2,-1,-1,-2
1532385911224,-2,1,1,0,1,-1,0,-1
1532385911229,0,3,0,0,0,-2,-1,-1
1532385911234,-2,-6,-1,1,-1,15,-2,-2
1532385911239,0,0,0,-1,-3,24,-1,-1
1532385911244,0,1,-1,-1,-5,14,-1,-2
1532385911249,-2,-7,-4,-2,-3,-2,-1,0
1532385911254,-1,0,-1,-1,-6,-15,-1,-1
1532385911259,0,2,4,5,8,-13,0,-2
1532385911264,0,-2,-4,-7,-4,-13,-1,0
1532385911269,3,-2,-5,3,0,-6,-4,-2
1532385911274,-3,4,2,-5,-6,-5,0,-1
1532385911279,1,-8,0,-1,1,-8,-1,0
1532385911284,1,2,2,4,0,-9,-1,-1
1532385911289,0,3,0,0,0,-3,0,-1
1532385911294,2,-4,-5,-2,-3,-4,0,0
1532385911299,0,3,0,-1,1,-1,0,0
1532385911304,-3,-1,1,-1,-1,-1,2,0
1532385911309,0,0,0,-2,-2,3,-2,-1
1532385911314,-2,-1,-4,2,-2,5,-2,-1
1532385911319,-2,0,2,-1,-1,4,-2,1
1532385911324,-1,4,-1,-2,0,5,-3,-1
1532385911329,-2,-8,-5,2,2,3,-1,0
1532385911334,0,2,4,1,-2,4,-2,-2
1532385911339,-2,-4,-2,-1,0,-11,0,-2
1532385911344,-2,-1,1,2,-2,-6,-2,1
1532385911349,0,6,3,0,2,-5,0,-1
1532385911354,-2,-1,-4,0,0,-6,-1,-2
1532385911359,-1,-7,0,0,0,-4,-1,-1
1532385911364,-1,-2,-1,-1,0,-3,1,-1
1532385911369,1,-2,1,-2,-2,-1,1,-1
1532385911374,-5,0,-1,0,1,-1,-1,-1
1532385911379,0,1,-2,-1,-1,1,-1,1
1532385911384,0,-2,-1,-1,-2,5,0,-2
1532385911389,-1,-1,1,-1,0,4,-1,-1
1532385911394,-1,-1,-3,0,0,5,-1,0
1532385911399,-1,1,-1,-1,-3,2,-1,-1
1532385911404,0,-4,-1,1,1,4,-2,-2
1532385911409,0,4,1,2,0,6,1,-2
1532385911414,2,-4,-3,-1,1,3,-1,0
1532385911419,0,2,1,-2,1,1,2,-1
1532385911424,1,1,-1,-1,-1,0,-1,0
1532385911429,0,-2,-3,0,-1,-3,-1,-1
1532385911434,-1,1,4,0,-1,-4,0,0
1532385911439,-1,8,-4,0,-1,-5,-2,0
1532385911444,0,-13,-2,0,-1,-5,-2,0
1532385911449,-2,1,2,-2,0,-6,-2,0
1532385911454,0,0,0,1,0,-3,-1,1
1532385911459,-1,2,-11,-7,-4,0,0,-1
1532385911464,-2,-6,4,-1,-2,0,-1,1
1532385911469,-2,-2,0,0,0,-1,-3,-3
1532385911474,1,-4,-1,1,-2,-2,-1,0
1532385911479,0,1,1,-1,0,-3,1,0
1532385911484,1,4,-3,0,-1,-2,0,-2
1532385911489,-3,-5,-1,0,0,0,-1,0
1532385911494,0,1,2,-1,-1,2,-1,-2
1532385911499,3,-4,-6,-1,0,2,0,2
1532385911504,-11,-2,2,-2,-2,-5,-2,-3
1532385911509,19,3,1,1,0,-4,-3,-4
1532385911514,-2,1,0,-3,-1,-2,0,1
1532385911519,-1,-5,0,1,-1,-5,0,-2
1532385911524,-3,0,-4,0,2,-4,0,0
1532385911529,-6,0,-1,-5,-4,-3,-1,0
1532385911534,1,-1,-1,-2,-1,-1,-1,-4
1532385911539,0,-2,1,1,-2,0,-3,-2
1532385911544,0,9,2,0,0,-2,-1,-2
1532385911549,-3,-12,-2,0,-1,-1,-1,0
1532385911554,0,-2,0,0,-1,-3,-2,-1
1532385911559,-5,1,2,-1,-3,1,-2,-3
1532385911564,3,-1,0,-1,0,-2,0,-1
1532385911569,-4,6,-3,0,-3,-1,1,-1
1532385911574,1,-3,0,0,-2,-2,1,-1
1532385911579,-2,-6,-2,0,-1,-1,-3,-3
1532385911584,4,1,3,-1,-1,-4,-4,-2
1532385911589,-2,-2,-1,0,-1,-1,0,-1
1532385911594,-3,-1,-3,-2,-2,-3,-1,-2
1532385911599,-3,-1,0,-1,7,-1,-1,0
1532385911604,3,-1,-3,-2,-5,0,2,3
1532385911609,-15,0,0,0,-1,-1,0,-4
1532385911614,15,0,1,2,-3,-5,0,1
1532385911619,-2,0,0,-1,-2,-4,-1,-7
1532385911624,-3,-4,-2,0,0,-1,1,-5
1532385911629,1,-4,-4,-1,0,1,-4,0
1532385911634,-6,0,1,1,3,-2,0,0
1532385911639,1,0,3,1,-3,-2,0,4
1532385911644,2,0,-2,0,1,-1,-2,2
1532385911649,-2,2,-3,-4,-6,-3,-2,0
1532385911654,-4,-5,-4,-3,-1,-2,-2,0
1532385911659,2,-2,1,-1,-1,0,0,-1
1532385911664,-4,-5,-1,1,-1,0,-2,-2
1532385911669,2,-1,0,0,0,0,-1,1
1532385911674,-2,-1,-2,-1,0,2,1,0
1532385911679,-2,-5,-2,-1,-5,-3,-1,-1
1532385911684,0,4,-2,-4,-1,-2,-1,0
1532385911689,3,-4,-1,-1,2,-4,0,-2
1532385911694,-4,-1,0,-1,1,-2,-2,-3
1532385911699,0,2,-2,-2,-5,-1,-1,-2
1532385911704,-1,-3,0,0,-1,3,-1,-1
1532385911709,0,0,0,-2,-1,-1,-1,-1
1532385911714,-1,1,-1,-1,0,-1,-2,-3
1532385911719,-1,-1,0,0,2,2,0,-1
1532385911724,-1,-1,-3,-1,1,2,1,-1
1532385911729,0,0,1,0,0,2,1,0
1532385911734,-2,1,-1,0,-1,1,-1,-1
1532385911739,0,0,0,0,0,1,-2,0
1532385911744,0,-3,-3,-5,-3,-3,-3,-1
1532385911749,0,2,0,-2,-3,0,-1,-1
1532385911754,0,-2,1,1,5,1,-1,0
1532385911759,-1,-1,-2,-3,0,-1,1,-1
1532385911764,1,0,-1,1,0,1,-1,-1
1532385911769,-1,-1,1,-1,-3,2,-1,-1
1532385911774,1,1,0,2,-7,-3,-1,-1
1532385911779,0,-1,-3,-5,2,1,2,0
1532385911784,-1,0,-1,-4,2,0,1,-3
1532385911789,-2,1,-2,0,2,3,-3,-3
1532385911794,-1,0,2,0,-2,-1,1,0
1532385911799,0,-1,1,3,-3,-6,-2,-1
1532385911804,-1,-3,0,0,-3,-11,0,-2
1532385911809,-1,-1,-2,0,4,-3,1,0
1532385911814,0,0,-2,-6,-6,-4,0,-1
1532385911819,0,-1,1,1,2,3,-2,-2
1532385911824,-1,-1,-3,1,-3,6,-4,-4
1532385911829,-2,-1,2,0,-2,1,-6,5
1532385911834,0,-5,-1,1,2,1,14,7
1532385911839,0,6,0,0,1,-2,-7,-3
1532385911844,-1,1,3,2,0,-1,-3,-1
1532385911849,-2,1,-2,2,3,-2,0,-6
1532385911854,0,-1,-3,-1,-2,0,-4,-1
1532385911859,0,-2,-3,-5,0,-3,0,2
1532385911864,0,0,2,2,-2,-1,2,0
1532385911869,0,0,-3,-3,-4,0,0,-1
1532385911874,-1,-3,-3,-2,1,2,-1,-2
1532385911879,-1,-2,-1,0,-4,-2,1,-3
1532385911884,-2,-2,0,1,2,-3,-1,0
1532385911889,1,-1,-3,-4,1,-1,2,-3
1532385911894,-1,2,0,0,0,3,-2,-3
1532385911899,0,-2,1,2,2,1,-3,-1
1532385911904,1,-3,-3,-5,-3,0,0,1
1532385911909,0,-2,2,4,2,-5,1,0
1532385911914,-1,0,-2,-5,-1,-4,-5,-3
1532385911919,-2,0,0,0,1,-4,-1,0
1532385911924,-1,-1,-3,0,0,1,2,0
1532385911929,0,-1,-3,-3,-4,-4,-2,-3
1532385911934,0,-1,-1,0,0,-4,-5,-2
1532385911939,-1,0,-1,-1,-3,-2,3,0
1532385911944,-1,-1,-1,1,-1,-3,-1,0
1532385911949,-2,0,0,0,-3,-2,-2,-3
1532385911954,-1,1,-1,0,2,-3,1,-1
1532385911959,-2,-1,-1,0,-1,-3,1,-1
1532385911964,0,0,1,1,-1,-3,-3,-1
1532385911969,0,-1,-1,-3,1,0,0,0
1532385911974,0,-1,0,-1,-3,-3,-1,-1
1532385911979,1,-2,-1,-1,0,0,1,0
1532385911984,0,-1,-2,1,2,1,-3,-2
1532385911989,-1,1,-2,-5,-2,-4,-1,-2
1532385911994,-2,1,0,-1,1,-3,-2,-2
1532385911999,2,-1,1,1,0,-3,-1,-1
1532385912004,-2,0,-2,-4,-3,-3,-1,-3
1532385912009,0,0,3,3,0,-1,0,0
1532385912014,-1,-3,-2,1,-1,3,-2,-2
1532385912019,-3,-2,-2,-3,0,-2,-2,-2
1532385912024,1,-2,0,0,0,1,0,0
1532385912029,0,0,0,2,1,-3,-1,-1
1532385912034,-1,-1,-2,-1,-1,0,-2,-2
1532385912039,-1,-2,-3,-3,-4,-5,0,0
1532385912044,0,0,0,-1,2,-2,1,-2
1532385912049,0,-1,0,-1,-1,-1,-1,-1
1532385912054,0,-1,-1,1,2,-1,-1,-2
1532385912059,0,0,0,-1,-1,0,0,-2
1532385912064,-1,0,1,0,1,-3,-1,-1
1532385912069,-1,-1,-1,0,-3,1,0,-1
1532385912074,-2,-2,-1,-1,-2,0,-1,-1
1532385912079,0,0,-1,-1,-2,-1,-3,-2
1532385912084,-2,-1,-3,-2,-1,0,0,-2
1532385912089,0,0,1,5,5,-2,-1,-1
1532385912094,-1,-1,0,0,-2,2,2,0
1532385912099,0,-3,-1,-2,1,1,0,0
1532385912104,2,-1,-1,1,-1,3,-1,-1
1532385912109,-2,0,-2,-2,-3,-4,-1,0
1532385912114,0,1,-2,-1,-1,2,-2,-1
1532385912119,-1,0,1,-1,0,2,-1,0
1532385912124,-1,-1,0,1,3,1,-1,-1
1532385912129,-2,-4,-1,-2,-3,3,0,0
1532385912134,-2,0,1,1,3,0,-3,0
1532385912139,-2,-1,0,0,-2,-2,-2,-1
1532385912144,-2,0,1,1,-3,0,1,1
1532385912149,1,-1,-4,-4,1,3,-1,-1
1532385912154,0,-2,-1,1,1,-1,0,-1
1532385912159,0,-3,0,-7,-3,2,0,-1
1532385912164,0,0,0,-1,0,2,-2,-1
1532385912169,-1,1,1,0,-1,1,-1,-3
1532385912174,-1,1,0,-2,-2,0,-2,-1
1532385912179,1,-2,-1,0,-1,-3,1,-2
1532385912184,1,0,0,-4,-3,-3,-4,0
1532385912189,-3,0,0,-3,-1,-3,0,0
1532385912194,-1,-3,2,-1,-1,-2,-5,0
1532385912199,2,3,-1,0,0,-5,4,-2
1532385912204,-2,-4,-4,-2,-1,-1,-5,-2
1532385912209,-1,-4,-2,-2,1,1,-1,-2
1532385912214,-1,2,0,0,-1,-4,-7,-3
1532385912219,-1,-1,1,1,1,1,10,2
1532385912224,0,0,-3,2,0,-5,-2,-1
1532385912229,0,0,-4,-1,1,-4,-2,0
1532385912234,-1,-1,-2,-3,-1,2,2,-3
1532385912239,-2,-1,-4,2,-2,3,-8,-2
1532385912244,0,4,4,-2,-3,-5,4,0
1532385912249,-1,-1,1,2,1,-5,-2,-2
1532385912254,-3,-2,-2,-1,-3,-3,1,-4
1532385912259,0,3,0,1,1,1,-4,2
