1532121710800,-4,-2,-3,-13,-10,0,-1,-4
1532121710805,2,1,0,21,59,9,0,2
1532121710810,-1,-5,-2,-12,-21,11,5,-4
1532121710815,2,3,2,-8,-49,22,-2,0
1532121710820,-2,-2,-2,-9,-7,-15,0,-1
1532121710825,1,-2,-4,-8,-19,10,0,1
1532121710830,-3,0,3,18,21,1,0,-1
1532121710835,0,-2,0,-5,20,15,-4,2
1532121710840,0,5,3,4,10,1,-2,3
1532121710845,0,-2,0,-8,-13,-2,1,-3
1532121710850,-1,-2,-3,0,-4,-12,-3,0
1532121710855,-3,1,-2,-5,12,-11,4,-4
1532121710860,-1,2,-1,-5,-25,8,1,2
1532121710865,-4,-3,-4,0,35,-4,-1,-4
1532121710870,2,-1,1,1,8,2,-4,1
1532121710875,-4,-2,1,-7,-4,1,2,-3
1532121710880,0,-2,-1,-7,-21,3,-3,0
1532121710885,-4,-2,-3,0,-9,3,1,-2
1532121710890,-2,0,-1,5,35,14,-3,3
1532121710895,1,0,1,-7,-13,-11,0,-2
1532121710900,-2,0,0,-1,36,11,0,-4
1532121710905,1,-1,-2,-11,-70,-20,-4,0
1532121710910,1,0,1,20,23,0,-5,3
1532121710915,-2,-1,-3,-1,16,16,0,-2
1532121710920,-1,-2,-3,-9,-24,-12,2,-2
1532121710925,-2,0,1,8,-6,-1,-1,0
1532121710930,1,2,-1,-12,-31,-7,2,-2
1532121710935,0,-2,1,-2,26,12,5,-1
1532121710940,4,-1,1,7,-3,0,-3,0
1532121710945,1,-3,-2,-8,12,4,1,-2
1532121710950,-1,-3,0,-3,-2,-4,0,-1
1532121710955,1,-1,-1,-4,-20,-1,0,1
1532121710960,1,1,0,2,38,0,4,5
1532121710965,0,1,0,-3,-41,3,-3,-1
1532121710970,0,-1,-3,-3,-4,-2,-7,-5
1532121710975,1,0,2,12,4,-10,4,-4
1532121710980,-2,-3,-4,-4,54,9,-7,-4
1532121710985,0,3,0,8,-22,-6,5,0
1532121710990,0,1,-2,-4,-30,-10,-14,-5
1532121710995,-3,-2,1,-10,-4,7,-16,-2
1532121711000,7,2,-3,-9,-55,0,26,12
1532121711005,3,-3,4,23,90,10,-1,8
1532121711010,-9,-5,-6,-18,-27,-5,2,-3
1532121711015,3,3,-5,-11,-34,-5,-14,-8
1532121711020,-2,1,3,19,12,-2,-7,-8
1532121711025,-1,0,-4,-7,-1,0,-2,-7
1532121711030,4,1,2,0,-5,0,16,4
1532121711035,2,0,-1,11,20,-11,2,2
1532121711040,3,-3,-5,-11,-23,-8,-5,0
1532121711045,0,-2,1,-5,12,-9,-1,-1
1532121711050,-1,-3,0,5,0,0,0,-1
1532121711055,-4,-1,-2,0,3,-15,-4,-11
1532121711060,-2,1,0,-1,-11,-9,-9,0
1532121711065,-21,-1,0,1,14,-7,20,5
1532121711070,12,-2,0,1,-6,-9,-15,0
1532121711075,21,-1,0,-5,8,9,9,7
1532121711080,41,0,0,-3,-8,-8,6,-2
1532121711085,45,-1,-1,1,3,-12,-7,-6
1532121711090,41,-4,-3,-1,-1,-7,-6,5
1532121711095,71,16,2,2,-5,2,-1,4
1532121711100,20,1,0,2,14,-2,-1,2
1532121711105,12,1,-3,-4,-1,6,-13,-4
1532121711110,-5,0,2,1,-3,-2,8,-1
1532121711115,-24,-4,-2,-1,12,-5,1,-7
1532121711120,-15,-1,0,1,-12,3,-5,1
1532121711125,-9,-1,0,-1,2,-3,-1,4
1532121711130,-31,-2,-2,-4,-3,-1,-3,0
1532121711135,-23,-5,-2,-3,3,1,7,1
1532121711140,-12,2,-1,0,-7,7,0,3
1532121711145,3,-2,-1,-3,-1,1,-6,16
1532121711150,35,-2,-1,-1,-2,3,-5,23
1532121711155,-5,-2,-1,2,-1,6,1,25
1532121711160,-18,-2,0,-1,-3,6,4,17
1532121711165,-29,1,-1,0,7,19,2,22
1532121711170,-37,8,2,-7,-8,11,11,16
1532121711175,-26,-32,-3,6,5,8,2,-2
1532121711180,-26,-21,-4,-4,2,9,-4,-25
1532121711185,-22,-5,0,-11,-14,11,3,-23
1532121711190,-26,6,1,-1,-1,17,-1,-20
1532121711195,-18,17,2,-2,0,19,1,-12
1532121711200,-4,12,1,0,-1,7,-4,-12
1532121711205,3,6,0,3,-3,18,-3,-7
1532121711210,11,13,0,-5,-1,7,1,0
1532121711215,17,4,1,-3,2,-1,7,-4
1532121711220,12,-1,1,2,-2,-2,-6,-8
1532121711225,3,8,0,0,1,-7,-2,-15
1532121711230,-14,5,-4,-4,-6,-13,7,-15
1532121711235,-21,8,-3,2,6,-8,-3,-8
1532121711240,-14,1,-3,0,-13,-15,1,-2
1532121711245,-8,-3,4,5,6,-5,4,-3
1532121711250,-10,-25,-2,-2,1,-7,-4,-8
1532121711255,-10,-12,-3,-9,-3,9,1,-8
1532121711260,-10,-2,-2,-3,-10,-30,0,0
1532121711265,-13,2,0,-2,6,0,-4,-5
1532121711270,-13,-1,1,12,-1,-3,1,-8
1532121711275,-11,0,-2,-8,-5,-3,-1,-5
1532121711280,-2,3,1,3,-3,7,-2,-4
1532121711285,-4,-3,-1,0,-1,7,-3,-4
1532121711290,-2,-1,1,-3,4,-3,0,-4
1532121711295,-5,-1,2,1,-2,-4,-5,-4
1532121711300,-9,0,-2,-6,-1,13,-2,1
1532121711305,0,-2,-3,0,-1,-6,4,0
1532121711310,-4,-3,1,0,0,-1,-3,-5
1532121711315,0,2,-2,0,0,-7,0,0
1532121711320,1,2,2,2,2,-4,1,3
1532121711325,0,-1,-1,-4,-4,-11,-5,2
1532121711330,2,-1,-5,-5,-1,-11,1,-1
1532121711335,3,8,-1,-1,2,-11,0,2
1532121711340,-1,3,-1,0,0,-6,-1,0
1532121711345,3,-1,-1,2,1,-12,-1,1
1532121711350,4,-3,-2,-1,-1,-5,-2,2
1532121711355,3,-5,0,-5,-4,-5,3,3
1532121711360,4,-2,0,0,-1,4,-3,0
1532121711365,6,-3,-2,0,3,-1,-3,-2
1532121711370,7,14,3,2,2,-3,-3,0
1532121711375,3,-20,-5,3,1,2,-6,2
1532121711380,6,1,-1,-2,1,-2,3,4
1532121711385,-2,-5,-3,-3,-2,-6,0,-2
1532121711390,7,-2,0,-2,-1,-1,1,-8
1532121711395,4,4,2,-1,-1,0,-1,5
1532121711400,1,-2,-1,-5,-3,-7,-1,2
1532121711405,3,-5,-2,0,-2,-10,-2,-2
1532121711410,2,-2,-4,0,1,-9,3,8
1532121711415,1,4,3,3,1,-14,1,-1
1532121711420,3,-1,-2,0,3,-2,-1,-1
1532121711425,3,3,-1,-1,-6,-22,3,1
1532121711430,2,-2,-2,0,0,-34,-4,0
1532121711435,1,2,0,-2,-3,-25,-3,0
1532121711440,0,1,0,0,1,-31,-2,1
1532121711445,0,0,0,-1,-2,-44,-2,-2
1532121711450,2,-3,0,-2,-2,-16,-2,0
1532121711455,1,-3,-3,-6,0,-5,0,1
1532121711460,0,-2,-2,-3,-1,8,0,-4
1532121711465,0,0,-3,3,1,10,-1,-1
1532121711470,0,-1,-3,-2,-1,-18,0,-2
1532121711475,2,4,2,2,3,-10,1,1
1532121711480,-2,-2,0,-3,-1,-7,-2,-2
1532121711485,1,0,0,-3,1,13,-1,0
1532121711490,0,-1,1,0,0,26,-2,1
1532121711495,-1,0,-2,-1,-2,21,-2,-1
1532121711500,0,-4,1,1,-3,18,-1,0
1532121711505,2,-4,-1,-3,-3,28,1,1
1532121711510,1,3,0,6,2,16,0,-1
1532121711515,-3,-6,-1,-1,1,-6,1,-1
1532121711520,-3,0,-3,-3,-3,-30,-3,-10
1532121711525,-1,0,1,-2,-2,-16,-3,7
1532121711530,7,0,-2,-1,1,-2,3,9
1532121711535,-2,1,1,-1,-6,12,-2,-2
1532121711540,3,1,-4,-3,-2,17,2,6
1532121711545,-5,-1,-2,-2,1,26,4,-12
1532121711550,-3,-3,-1,-1,-6,22,-11,5
1532121711555,3,2,-2,2,-1,17,-4,-2
1532121711560,-1,0,-1,1,1,19,0,-3
1532121711565,7,3,-1,-2,-5,12,-1,12
1532121711570,0,0,0,1,8,19,0,-21
1532121711575,-2,1,-2,0,-1,2,2,-3
1532121711580,2,1,2,-2,-6,-1,-4,4
1532121711585,0,-3,-2,0,6,18,-1,-3
1532121711590,-2,-2,-3,0,-4,-2,1,0
1532121711595,2,0,-1,-4,-2,5,-1,-1
1532121711600,-5,1,1,1,6,15,2,-5
1532121711605,-1,0,1,1,-2,0,-1,-3
1532121711610,-3,0,-1,2,-6,-2,-2,2
1532121711615,2,2,1,-1,0,8,-3,3
1532121711620,-1,-3,-3,-2,-4,5,-2,2
1532121711625,-4,-1,-2,0,-4,17,-5,-6
1532121711630,1,0,-2,-4,5,21,4,2
1532121711635,0,0,-2,-2,-4,6,3,-1
1532121711640,-2,0,-1,-1,3,6,3,-1
1532121711645,-2,-1,-1,-1,2,9,-4,0
1532121711650,2,0,-1,-2,-6,-11,-2,-1
1532121711655,-2,-1,1,0,-1,4,2,1
1532121711660,-1,-1,-1,-1,-2,-10,1,-3
1532121711665,0,-1,-2,0,0,-19,-4,0
1532121711670,-1,-2,-1,-3,-4,-9,-1,0
1532121711675,0,0,0,1,9,-1,-2,-2
1532121711680,2,-1,0,0,-3,-2,-2,0
1532121711685,0,-1,0,-2,2,2,4,0
1532121711690,0,-1,1,0,-8,7,-2,0
1532121711695,-1,0,-2,2,1,-16,0,-2
1532121711700,-2,-1,-3,-7,-9,3,-3,-1
1532121711705,0,4,0,-2,-11,-7,2,0
1532121711710,-3,-2,0,-1,16,3,0,0
1532121711715,1,1,1,-2,-9,-9,-2,1
1532121711720,0,-3,-5,5,3,1,-1,0
1532121711725,-1,0,-1,1,2,-2,2,-2
1532121711730,-3,0,-1,-5,-9,0,-2,-2
1532121711735,-1,0,0,3,-11,-4,-3,-1
1532121711740,-1,-1,1,-1,5,7,-4,-3
1532121711745,1,1,-2,-4,-7,-6,1,0
1532121711750,0,0,2,0,9,-2,2,-1
1532121711755,-3,-2,-2,-3,5,4,-3,-1
1532121711760,1,1,-3,-2,-6,15,2,2
1532121711765,-1,-1,0,1,4,-5,-3,-3
1532121711770,-1,1,-4,-1,-5,-8,-2,-1
1532121711775,-1,0,1,3,0,1,-2,1
1532121711780,0,-2,1,0,4,2,-3,1
1532121711785,-3,-1,-2,-2,-5,-30,1,1
1532121711790,-1,-2,-1,-3,3,-3,1,-2
1532121711795,-4,0,-3,-6,-5,-11,1,-1
1532121711800,2,2,2,7,4,-5,0,2
1532121711805,-3,0,-2,-4,-3,-30,-6,-4
1532121711810,1,0,-2,-1,-6,-22,-1,-3
1532121711815,-2,-3,-2,-2,4,-3,2,0
1532121711820,0,-2,-1,-1,-2,-15,-1,0
1532121711825,1,-2,-1,-1,0,1,-6,-1
1532121711830,-1,-2,-2,-1,-4,1,1,-2
1532121711835,1,-2,-1,0,-1,-10,-4,-3
1532121711840,-1,-2,-1,-1,0,-14,-2,-1
1532121711845,3,0,3,1,-2,4,-1,-1
1532121711850,0,1,-2,2,0,-4,2,6
1532121711855,0,0,-2,-4,0,-3,-1,0
1532121711860,-2,-1,1,1,-3,-5,0,-1
1532121711865,0,0,-2,-2,2,-2,1,-1
1532121711870,-1,-1,2,1,0,0,0,-2
1532121711875,-3,-1,-2,1,1,4,2,-1
1532121711880,-2,2,0,-1,6,-13,-5,-3
1532121711885,-3,-1,-2,1,-6,7,2,0
1532121711890,-3,-1,-2,-3,-3,-5,-3,-2
1532121711895,7,1,-2,3,1,9,0,5
1532121711900,-4,0,-1,-2,1,-1,1,-9
1532121711905,-1,-1,1,-1,4,9,-1,8
1532121711910,-2,0,1,0,0,-8,-2,1
1532121711915,-1,-2,1,-1,-3,-3,-2,0
1532121711920,3,-1,-3,-2,0,7,5,3
1532121711925,-2,-1,-1,-7,-11,2,-5,-7
1532121711930,4,1,1,-1,17,-10,-1,-1
1532121711935,1,1,-1,-1,0,7,0,-1
1532121711940,0,-1,1,1,-3,5,-3,-3
1532121711945,0,-2,1,2,4,7,-2,0
1532121711950,-3,1,2,-2,-1,6,-1,1
1532121711955,-5,-1,0,4,11,2,-2,2
1532121711960,2,4,-1,-4,-23,-1,-2,1
1532121711965,-14,-4,0,-1,-8,-3,-1,-2
1532121711970,-4,-4,-3,0,2,0,2,-2
1532121711975,-3,2,2,0,-5,-7,1,-2
1532121711980,1,-4,-2,-4,10,-1,2,-1
1532121711985,5,4,-1,1,4,-1,2,0
1532121711990,2,2,-2,1,-9,3,-2,0
1532121711995,-2,-5,1,-1,2,0,0,-1
1532121712000,-2,0,-1,3,5,-5,3,1
1532121712005,2,-1,-2,0,0,-1,2,2
1532121712010,-1,0,0,0,-2,7,-8,2
1532121712015,2,1,-2,-2,0,-7,1,-2
1532121712020,-2,-2,0,0,-4,1,-4,1
1532121712025,3,-1,0,3,2,-2,3,-4
1532121712030,-1,-2,-1,2,1,4,-1,-3
1532121712035,0,1,-1,-2,-5,-2,-3,-1
1532121712040,0,-2,-1,0,-3,-4,0,0
1532121712045,-1,-2,-1,-4,3,7,-2,-1
1532121712050,0,2,3,3,0,-4,0,0
1532121712055,-1,0,-4,-1,-5,-3,0,-3
1532121712060,-3,-2,-1,-4,2,-8,-2,-2
1532121712065,7,1,-1,-3,-12,4,0,2
1532121712070,-5,1,1,1,-12,4,-1,0
1532121712075,0,-2,-4,1,6,9,0,2
1532121712080,-3,-1,-2,-2,-6,-5,-4,-2
1532121712085,-1,0,-1,0,10,3,2,-1
1532121712090,4,0,2,-3,-1,-4,1,-6
1532121712095,-1,-1,-2,-1,-3,-1,1,3
1532121712100,1,1,1,0,0,5,-3,6
1532121712105,-4,-2,0,3,2,-1,0,-10
1532121712110,-2,-2,-1,-2,-2,-6,-9,-3
1532121712115,0,1,0,4,4,0,1,-2
1532121712120,1,1,1,0,2,12,4,4
1532121712125,1,0,-2,-2,-3,-16,-2,-1
1532121712130,0,0,-3,-1,1,-2,2,-2
1532121712135,0,0,-3,-5,-4,-6,-4,-2
1532121712140,1,0,-1,2,-1,0,2,-4
1532121712145,-1,-1,1,1,-2,-7,2,2
1532121712150,-3,-4,-4,-2,0,7,-5,-7
1532121712155,2,0,5,-1,2,-3,-9,15
1532121712160,-5,-1,-7,-8,-8,-19,5,-11
1532121712165,-1,0,2,3,8,-3,0,2
1532121712170,0,1,0,-1,-2,-17,5,0
1532121712175,-2,-1,1,-3,-4,5,-3,-6
1532121712180,-3,0,-2,2,0,5,-3,1
1532121712185,0,-1,0,-4,0,8,2,1
1532121712190,0,2,-1,4,-1,2,0,1
1532121712195,-1,0,-3,-12,-5,0,1,-5
1532121712200,1,0,-1,0,-1,11,-1,1
1532121712205,0,0,0,-1,-4,-14,-6,-3
1532121712210,1,2,0,-1,3,-4,-1,3
1532121712215,-10,-14,-5,-2,-3,-5,1,-8
1532121712220,0,1,1,0,2,-8,0,1
1532121712225,-5,-5,-3,5,2,10,2,3
1532121712230,1,3,-1,-4,-4,-3,-3,-1
1532121712235,2,3,3,7,2,5,1,-1
1532121712240,0,-5,2,-3,1,-1,-17,3
1532121712245,1,-2,-8,-7,-8,10,16,-5
1532121712250,4,-1,0,0,2,10,3,-1
1532121712255,-10,-4,-2,2,-2,2,-4,-2
1532121712260,-5,-7,-1,-2,4,14,-1,-5
1532121712265,1,1,2,5,4,9,-10,1
1532121712270,18,8,-4,-12,-10,-5,7,2
1532121712275,-19,-1,-1,-2,-3,12,1,-3
1532121712280,-5,-14,3,9,7,-24,-6,0
1532121712285,6,-3,-3,-8,0,15,10,4
1532121712290,-17,-3,-3,1,4,11,-3,-8
1532121712295,6,15,-3,-8,-2,-11,-1,2
1532121712300,33,22,-1,5,3,16,6,-3
1532121712305,-30,-14,2,7,5,-1,4,4
1532121712310,4,-6,6,21,14,-7,-17,3
1532121712315,2,0,8,82,29,0,7,-8
1532121712320,-9,-10,-19,-94,-56,7,0,-1
1532121712325,12,11,0,5,-9,-20,-11,-1
1532121712330,-1,9,-5,-17,-21,18,2,2
1532121712335,2,6,5,17,8,32,-4,1
1532121712340,1,5,5,26,24,46,-1,2
1532121712345,3,4,-1,-3,-4,8,-3,0
1532121712350,-10,-5,1,8,9,-7,-1,1
1532121712355,7,-4,-2,-14,-5,-43,5,-1
1532121712360,-5,-2,0,8,-1,-33,-1,-2
1532121712365,1,-5,-1,-9,-2,-23,-6,-3
1532121712370,23,20,3,10,2,-24,4,-3
1532121712375,-9,-28,-4,-12,3,-14,5,8
1532121712380,-2,4,0,-4,-7,-20,2,0
1532121712385,-13,-9,2,18,9,-16,-17,-3
1532121712390,-11,-6,-9,-16,-11,-12,13,-8
1532121712395,11,9,-1,-31,-15,-9,0,-6
1532121712400,-4,-3,2,31,4,-11,0,-19
1532121712405,14,5,0,-6,14,-4,-3,4
1532121712410,-17,-13,-3,-15,-23,4,6,-3
1532121712415,9,3,-5,-4,0,-1,-9,8
1532121712420,-12,-9,-2,-2,1,-10,-4,-10
1532121712425,4,7,4,8,13,5,9,-2
1532121712430,-5,-10,-3,-11,-4,0,-14,-3
1532121712435,-2,-6,-4,-13,-13,-4,4,-4
1532121712440,1,2,2,6,-1,-3,-1,5
1532121712445,-4,-5,-4,-5,-5,-5,-3,-3
1532121712450,-1,-6,1,1,-1,2,5,6
1532121712455,1,-2,0,2,25,1,-4,-7
1532121712460,2,3,-1,7,-12,2,-2,9
1532121712465,-1,-3,-4,-11,-8,4,-3,-6
1532121712470,4,-6,0,7,4,-3,2,11
1532121712475,-3,0,2,-3,-9,2,-2,-5
1532121712480,2,-6,2,-1,21,0,0,13
1532121712485,-13,-4,-2,-1,-35,0,11,-10
1532121712490,1,-24,-7,-4,19,0,-9,2
1532121712495,2,20,1,-5,-21,3,3,-2
1532121712500,-5,5,2,-2,-14,-2,-1,3
1532121712505,10,-19,-3,0,24,-3,0,-13
1532121712510,14,11,6,10,11,-1,-1,14
1532121712515,-17,18,-3,-13,-17,-3,-1,-20
1532121712520,7,-24,-7,7,3,-4,2,13
1532121712525,-9,13,1,-12,-41,-2,0,0
1532121712530,-7,11,-2,-10,49,-4,4,-1
1532121712535,6,7,2,8,-8,-6,-2,-1
1532121712540,-1,21,5,5,-11,-3,4,-2
1532121712545,3,5,-7,-2,4,0,-9,0
1532121712550,-3,-7,-4,-6,-28,1,-6,-2
1532121712555,0,5,3,-7,-23,-3,4,6
1532121712560,-1,7,0,1,47,-2,4,-10
1532121712565,3,-1,-2,-10,-30,-2,-5,5
1532121712570,1,1,2,17,27,0,-2,-5
1532121712575,4,-21,1,11,6,-4,0,8
1532121712580,-4,-37,0,-2,-20,-1,-2,-3
1532121712585,-1,-6,-1,2,13,-4,-1,7
1532121712590,-3,8,3,0,-17,0,3,-12
1532121712595,-5,10,-3,-7,7,0,-2,2
1532121712600,-1,15,-2,-3,9,1,0,3
1532121712605,-9,18,-3,0,-6,3,-1,-2
1532121712610,-5,19,2,0,-7,1,1,-1
1532121712615,9,-3,-4,-6,-13,4,-3,17
1532121712620,-8,6,3,4,-1,-3,2,-23
1532121712625,0,-7,2,-2,1,4,-3,-2
1532121712630,-5,-18,-9,-7,-19,0,0,-6
1532121712635,-3,-16,-4,-1,35,-4,-3,-5
1532121712640,7,-3,0,1,-15,2,-5,13
1532121712645,6,0,6,11,14,2,4,8
1532121712650,-2,-6,-1,0,-9,-3,-5,-8
1532121712655,-2,-6,-2,-4,16,5,-5,-7
1532121712660,-3,-1,-8,-6,-20,-4,-1,-6
1532121712665,-1,2,5,0,-7,-2,1,-1
1532121712670,2,-1,2,4,3,4,2,1
1532121712675,-5,3,-3,-4,18,3,-8,3
1532121712680,1,-9,-5,-5,-5,2,2,6
1532121712685,0,2,-2,4,4,-2,1,-22
1532121712690,-2,-1,4,3,-7,0,-3,-1
1532121712695,-2,-5,-3,-5,-4,-2,-2,1
1532121712700,3,5,1,-2,-5,1,5,-6
1532121712705,-6,-4,-5,-5,9,2,-3,-3
1532121712710,-1,-2,1,2,3,-6,1,0
1532121712715,0,-2,1,-1,-16,-4,3,-4
1532121712720,-1,1,-2,0,14,-4,-6,-1
1532121712725,1,-3,-2,4,-8,-1,1,6
1532121712730,-7,2,-4,-3,-2,-2,-1,-8
1532121712735,-2,-3,1,-4,-31,1,-4,21
1532121712740,-5,2,-1,1,12,-1,-2,0
1532121712745,-3,-2,-1,2,16,-3,-3,-2
1532121712750,5,-2,0,-1,-4,3,1,11
1532121712755,2,-3,-3,2,-1,-2,1,-6
1532121712760,-4,3,0,-2,-4,-3,-1,-8
1532121712765,-1,9,0,2,15,-1,3,11
1532121712770,4,5,3,-1,2,-3,-6,-3
1532121712775,-3,-3,0,0,-5,0,-1,-7
1532121712780,0,1,-3,0,-1,4,4,0
1532121712785,0,-3,1,-3,0,-1,-1,-1
1532121712790,-3,-4,1,-4,-16,3,1,-4
1532121712795,0,-1,-3,3,15,1,3,-2
1532121712800,0,-1,-1,-2,-2,-5,-4,2
1532121712805,6,-2,-3,-3,-1,-1,3,3
1532121712810,-6,-1,1,4,4,2,0,-3
1532121712815,0,0,0,-7,-14,-2,-2,-1
1532121712820,-1,2,0,3,3,-1,1,5
1532121712825,1,-4,-3,-6,-3,0,-2,5
1532121712830,-6,-4,-3,-2,-5,-4,-4,-23
1532121712835,6,1,0,1,4,-3,1,-10
1532121712840,-1,0,3,4,6,1,1,14
1532121712845,5,-4,0,-3,18,-1,-5,-1
1532121712850,2,-2,-5,-5,-20,-2,3,13
1532121712855,5,6,2,0,-3,-3,3,-11
1532121712860,-6,-15,-8,-3,-6,-2,-3,-3
1532121712865,-5,3,2,-2,-5,2,1,-4
1532121712870,3,0,0,6,13,-4,-1,12
1532121712875,-7,2,-3,-5,-1,-2,1,-6
1532121712880,2,4,0,-3,-7,-6,0,-2
1532121712885,-3,0,0,-1,-12,-1,-4,2
1532121712890,4,2,1,1,11,-3,-2,-2
1532121712895,3,-2,1,-2,9,1,0,8
1532121712900,-4,11,0,-1,-18,-1,-1,-16
1532121712905,2,-15,-2,0,-3,-6,-2,10
1532121712910,0,3,2,0,0,1,2,0
1532121712915,2,-3,1,0,-3,-3,-1,3
1532121712920,11,3,0,-3,4,-2,-1,0
1532121712925,0,2,-4,-1,2,-3,1,-4
1532121712930,4,-1,2,3,-1,0,4,2
1532121712935,-8,2,-3,-3,-5,-4,-3,-3
1532121712940,-2,-5,-1,1,7,-7,-1,-11
1532121712945,-2,3,-2,1,-9,-4,5,3
1532121712950,-15,-1,0,-7,8,-4,-2,-7
1532121712955,-4,1,0,4,2,1,-4,-2
1532121712960,-3,-4,-3,-1,-4,-3,-1,-5
1532121712965,-2,2,2,-1,-2,-1,-4,0
1532121712970,0,-1,-3,-2,0,-1,1,-3
1532121712975,-3,-2,0,0,1,-2,2,2
1532121712980,-4,0,1,0,1,8,-3,4
1532121712985,0,2,0,-2,0,1,2,-1
1532121712990,-2,-6,-4,0,-5,4,0,2
1532121712995,-7,-6,-3,3,-2,-3,-3,-5
1532121713000,1,-2,0,-1,3,-4,1,3
1532121713005,-2,2,-2,3,0,2,1,-5
1532121713010,3,2,0,-4,-3,0,-3,2
1532121713015,2,-2,1,0,-6,-4,1,4
1532121713020,0,3,1,-1,5,3,0,-1
1532121713025,1,1,0,-2,1,-2,-2,-6
1532121713030,1,-1,-2,-3,-10,5,2,7
1532121713035,0,-1,-2,4,9,6,-3,1
1532121713040,-4,-3,1,-3,-2,-2,-3,-22
1532121713045,-2,-1,-2,-3,-4,1,-1,2
1532121713050,-1,0,-4,0,-2,0,4,2
1532121713055,7,1,1,0,0,-1,1,6
1532121713060,-7,-3,-1,-2,12,0,-2,-1
1532121713065,-1,-4,-1,1,-11,2,-4,-8
1532121713070,0,3,3,0,6,0,-2,-5
1532121713075,-2,-1,-4,-4,-11,2,1,-2
1532121713080,4,1,1,-4,3,3,-6,8
1532121713085,-1,0,0,0,15,0,2,-1
1532121713090,2,0,0,4,-12,0,-2,-1
1532121713095,-10,-1,1,-6,-6,2,0,-4
1532121713100,6,-3,-3,-2,-12,-3,-3,2
1532121713105,3,5,6,2,3,3,-3,3
1532121713110,-3,-9,-10,-10,-3,-1,1,-3
1532121713115,6,-2,0,5,3,-1,-1,7
1532121713120,-4,-3,-3,0,-3,-2,0,-6
1532121713125,-11,-6,-3,2,5,-3,0,-8
1532121713130,4,0,1,-1,-9,-4,-4,9
1532121713135,2,4,-1,-6,-4,2,1,-12
1532121713140,1,-2,0,2,-4,-1,1,5
1532121713145,4,3,2,4,5,-1,-1,2
1532121713150,-3,-28,1,1,6,-1,-1,0
1532121713155,-1,-5,-3,-3,-18,-3,-2,-1
1532121713160,0,3,-1,-1,-6,2,1,2
1532121713165,-1,7,-2,-4,6,-6,0,-1
1532121713170,-3,15,1,1,3,-3,-3,-7
1532121713175,1,2,0,-3,-5,0,-2,-1
1532121713180,1,2,1,2,5,1,2,2
1532121713185,2,7,2,-7,15,-4,0,-12
1532121713190,-6,-18,-13,6,-14,1,-6,-1
1532121713195,1,5,5,2,4,-3,-1,9
1532121713200,1,2,3,5,3,1,4,12
1532121713205,-7,-2,-3,-6,-21,-3,0,-22
1532121713210,1,9,5,-6,8,-30,-2,-6
1532121713215,-2,-8,-2,-1,5,-32,-1,-6
1532121713220,2,1,-3,-3,-5,-27,-1,7
1532121713225,6,-2,0,3,-4,-24,3,16
1532121713230,-5,7,2,-5,-16,-50,3,-5
1532121713235,-3,-4,-7,3,20,-86,-2,1
1532121713240,1,3,2,-5,6,-101,-1,-2
1532121713245,1,0,4,8,-11,-96,-5,4
1532121713250,1,2,-6,-7,-1,-58,2,-1
1532121713255,4,-5,-5,-3,-2,-13,-2,0
1532121713260,-8,-3,-4,-3,-7,9,0,-8
1532121713265,-3,0,-1,1,-9,39,-2,-1
1532121713270,3,0,2,4,-4,48,-5,2
1532121713275,-2,3,3,4,10,64,0,-1
1532121713280,1,-4,-3,-2,-10,74,1,-3
1532121713285,-1,-12,-3,1,16,64,-3,4
1532121713290,1,2,-1,-3,1,63,2,-1
1532121713295,-3,-3,0,-3,-4,54,1,1
1532121713300,1,0,0,-1,-5,43,-3,-2
1532121713305,1,4,-4,-16,-44,26,0,3
1532121713310,2,9,9,10,59,18,-2,2
1532121713315,-3,0,-8,3,-8,11,0,-10
1532121713320,1,-6,3,3,5,-5,-2,-1
1532121713325,1,-17,-2,-5,-15,-11,-2,2
1532121713330,-1,-4,0,2,-2,81,-1,-6
1532121713335,2,-8,-1,-10,-14,70,2,7
1532121713340,0,-5,3,6,6,61,1,-4
1532121713345,-3,-3,0,-2,5,55,0,-6
1532121713350,1,-3,-2,-7,-14,51,-2,0
1532121713355,4,-2,1,3,-19,34,-1,-2
1532121713360,-2,2,3,10,13,43,-2,0
1532121713365,6,0,3,-6,-30,73,2,4
1532121713370,-10,-5,1,22,58,51,-1,-2
1532121713375,-3,-3,-7,-23,-44,65,-5,-20
1532121713380,3,-1,1,12,0,43,5,26
1532121713385,-2,2,5,22,21,15,-13,-16
1532121713390,10,-1,0,-5,-2,36,-2,11
1532121713395,-5,1,-1,-9,-14,22,1,-11
1532121713400,5,0,-3,-6,-12,6,-1,-5
1532121713405,-9,-1,-2,-7,3,2,5,-3
1532121713410,6,-2,0,-1,-11,14,3,8
1532121713415,-8,2,1,5,25,-17,-2,-5
1532121713420,0,0,-3,-15,-18,-8,-8,-5
1532121713425,-2,-1,2,8,26,4,3,4
1532121713430,-1,-2,-2,-8,-20,4,-1,-5
1532121713435,2,-1,-4,2,1,6,-2,6
1532121713440,-2,1,0,-7,2,7,0,-6
1532121713445,3,-1,-3,-16,-67,-2,2,3
1532121713450,-1,5,11,42,62,-3,-3,2
1532121713455,-1,0,-3,-4,8,3,1,-1
1532121713460,-4,-7,-10,-7,-5,-7,1,-3
1532121713465,0,-4,-4,-6,-42,-5,0,8
1532121713470,0,0,-3,-6,8,-2,1,-13
1532121713475,2,2,5,4,23,-3,3,13
1532121713480,-8,1,1,4,-6,-11,3,-1
1532121713485,-1,0,-1,-9,-6,-10,2,5
1532121713490,2,-3,-4,-1,9,-13,-4,-9
1532121713495,-3,-1,0,0,1,-9,-4,-7
1532121713500,-3,1,0,-8,-3,0,0,-1
1532121713505,-1,-1,0,7,19,-13,-2,-4
1532121713510,-1,-2,-5,-2,-7,-8,-3,6
1532121713515,1,-3,0,-3,-29,4,1,2
1532121713520,-2,0,1,9,27,0,-1,-4
1532121713525,4,1,0,1,3,-26,-1,1
1532121713530,-5,2,0,-4,-5,9,3,-5
1532121713535,1,0,-2,-5,-15,-18,-3,4
1532121713540,-4,2,-3,-2,33,0,-2,-6
1532121713545,1,-2,1,-9,-22,5,-1,-1
1532121713550,2,2,-3,7,-14,-6,-1,4
1532121713555,-7,-1,-1,-2,5,4,2,-28
1532121713560,4,-2,2,3,-7,3,-7,26
1532121713565,2,1,-6,-5,16,2,0,-2
1532121713570,-5,-3,-2,-12,-5,-6,2,-5
1532121713575,3,1,1,2,-12,3,-4,5
1532121713580,0,-2,-4,-6,-20,-28,1,0
1532121713585,-1,-1,2,10,42,-4,2,-4
1532121713590,-3,1,3,0,-29,-11,-1,7
1532121713595,-1,-2,-3,2,14,-15,1,1
1532121713600,0,2,-3,-3,-18,-14,1,-5
1532121713605,-1,-1,0,-10,-64,-5,1,0
1532121713610,-1,-1,-1,18,81,-16,-3,-3
1532121713615,0,-3,-1,-5,5,-6,-2,6
1532121713620,0,-3,-2,-3,-9,-26,0,-10
1532121713625,2,1,-1,6,16,-4,1,4
1532121713630,-1,1,2,-8,-23,-23,-1,-5
1532121713635,1,-1,-1,4,0,-12,-3,-1
1532121713640,-5,3,1,2,-2,12,-1,2
1532121713645,-4,-3,-6,-4,25,-19,2,-6
1532121713650,2,-2,0,-10,-33,-1,-4,-3
1532121713655,4,0,-1,3,19,-1,1,5
1532121713660,2,4,2,0,-16,3,1,-5
1532121713665,-3,1,4,8,29,-1,-1,6
1532121713670,4,-10,-9,-17,-66,2,0,-25
1532121713675,-7,4,4,16,50,-6,-2,6
1532121713680,-1,-1,-2,2,4,-2,-3,-6
1532121713685,3,2,-5,-8,-3,3,-1,2
1532121713690,-14,0,1,8,30,2,-3,-10
1532121713695,3,-2,-1,-8,-44,3,2,1
1532121713700,2,1,-1,-2,-15,-1,-1,-4
1532121713705,0,-2,-2,4,16,3,-3,1
1532121713710,3,8,1,0,-14,-1,1,5
1532121713715,4,-2,-2,-7,-4,1,0,-3
1532121713720,-4,2,-1,3,19,-2,1,15
1532121713725,-4,-19,-3,-4,-8,0,-10,-20
1532121713730,3,4,3,-6,0,6,-2,8
1532121713735,-6,-6,-1,3,3,-4,-8,-7
1532121713740,3,2,-3,-3,-8,1,0,-4
1532121713745,-2,5,-4,-3,12,-4,2,1
1532121713750,0,-9,-7,-4,-7,-6,2,3
1532121713755,2,7,4,0,2,-7,1,2
1532121713760,-1,-4,1,-1,-6,-7,-1,-5
1532121713765,10,7,3,2,-1,-2,1,4
1532121713770,-8,-8,-3,-6,-23,-6,0,-1
1532121713775,-2,1,0,7,29,2,0,1
1532121713780,-3,-5,-8,-9,21,-2,-2,-7
1532121713785,0,8,4,7,-7,5,3,3
1532121713790,3,7,7,-4,-17,4,1,5
1532121713795,2,-38,-18,-1,14,3,-3,4
1532121713800,-3,-6,0,0,-3,4,-2,3
1532121713805,-8,-9,-5,1,18,-3,-3,-10
1532121713810,1,15,5,-1,-2,4,1,2
1532121713815,-2,7,-2,-12,-24,-6,1,-6
1532121713820,8,-5,1,1,8,0,0,3
1532121713825,-4,9,0,3,-6,3,0,2
1532121713830,-7,-4,1,0,-1,5,-1,0
1532121713835,-4,5,3,-1,-6,-7,2,3
1532121713840,4,9,-2,-2,-2,3,1,-3
1532121713845,-2,-2,1,0,10,6,0,2
1532121713850,1,-7,-4,3,-2,1,-4,1
1532121713855,-5,19,4,-6,-7,4,0,-4
1532121713860,4,-14,4,2,-6,2,4,-2
1532121713865,-11,8,-1,1,10,8,-6,-9
1532121713870,7,-19,-3,-3,7,-13,4,3
1532121713875,-6,14,5,2,-21,-22,1,-6
1532121713880,-1,-4,-11,-10,-1,3,-3,3
1532121713885,-1,-18,-1,-3,5,8,-2,-4
1532121713890,-5,3,-3,2,1,-6,-3,-24
1532121713895,4,-1,-2,-5,-11,4,-4,13
1532121713900,-1,12,6,3,-1,-1,-2,-13
1532121713905,10,8,6,5,-2,-12,0,6
1532121713910,8,10,1,-4,-12,4,0,2
1532121713915,16,-6,-1,0,4,16,2,9
1532121713920,-6,23,4,1,-3,5,-5,-29
1532121713925,10,-32,-8,-8,-4,15,-2,7
1532121713930,-6,-14,-6,1,12,18,-6,-3
1532121713935,7,-3,-1,-4,-17,7,3,1
1532121713940,3,-1,1,2,13,3,0,5
1532121713945,-1,31,8,3,-3,0,-1,-6
1532121713950,-8,-29,-16,-2,1,17,4,19
1532121713955,-14,-11,-1,-6,-1,31,-2,-8
1532121713960,-18,-24,-7,4,-7,19,7,3
1532121713965,-2,15,8,1,5,8,-6,1
1532121713970,1,9,5,0,-13,-13,2,12
1532121713975,-10,14,-4,-1,15,-10,-4,-13
1532121713980,-1,3,3,0,-15,-17,1,7
1532121713985,-11,3,-3,-7,-11,-13,1,-9
1532121713990,-3,11,3,-1,4,-1,3,2
1532121713995,2,-5,0,7,10,-16,-5,-2
1532121714000,0,-7,1,-3,17,-2,-2,7
1532121714005,2,12,5,3,-10,-13,1,12
1532121714010,-1,-11,1,3,0,-6,2,-11
1532121714015,-3,7,0,-6,-20,-10,-3,-3
1532121714020,2,-4,-4,3,10,-8,-4,6
1532121714025,3,-9,-5,-1,0,-7,1,-5
1532121714030,1,12,4,-7,-13,-9,1,-5
1532121714035,8,-1,2,7,5,-13,1,10
1532121714040,-6,2,-1,0,-3,-9,-2,-12
1532121714045,0,0,0,0,-7,-16,-1,-1
1532121714050,15,11,-2,-8,2,7,4,28
1532121714055,-18,-2,-1,2,0,-8,2,-41
1532121714060,3,3,0,3,0,1,-4,5
1532121714065,-1,-7,-2,2,8,4,0,-2
1532121714070,-1,4,1,-1,11,9,-4,-2
1532121714075,4,4,3,-6,-7,4,1,4
1532121714080,1,-4,-3,-3,-7,-5,6,4
1532121714085,-4,-13,-5,-5,11,-4,-1,-3
1532121714090,-5,0,3,5,-4,-7,-1,-4
1532121714095,5,-8,-1,2,-3,-4,-3,10
1532121714100,-4,-2,2,-6,-12,0,-2,3
1532121714105,-4,-4,-3,0,6,4,-2,2
1532121714110,-2,4,0,-1,6,7,0,-6
1532121714115,0,-2,0,0,10,-3,0,1
1532121714120,4,-7,0,-4,-16,-11,0,-1
1532121714125,1,-6,-5,-5,-4,2,-1,2
1532121714130,-8,-1,-5,-10,-13,-5,-6,-12
1532121714135,0,-6,-2,-1,0,-1,1,1
1532121714140,5,20,9,15,28,7,3,7
1532121714145,-3,-19,-13,-5,7,17,2,-8
1532121714150,-2,0,0,2,-6,12,-4,-8
1532121714155,2,-8,-3,-10,-10,26,1,5
1532121714160,-4,7,0,-6,-23,5,-2,-4
1532121714165,0,-8,0,-2,5,-13,-4,-1
1532121714170,5,-4,-1,2,5,-21,2,2
1532121714175,1,5,-1,-1,12,-18,1,-2
1532121714180,1,0,1,3,-9,-20,-3,-5
1532121714185,-3,10,4,4,-6,-16,0,0
1532121714190,5,-4,-3,-5,-1,-16,-2,-1
1532121714195,4,2,1,3,3,-8,-2,9
1532121714200,4,3,2,-3,2,-4,-4,2
1532121714205,-18,7,-7,-1,-7,-7,-3,-6
1532121714210,-10,-15,-4,-1,6,-3,-4,-2
1532121714215,-6,-16,1,5,-2,-3,-1,-1
1532121714220,-3,1,-3,-9,-5,-4,2,-4
1532121714225,-1,-1,-2,3,-5,-1,2,-1
1532121714230,-1,4,1,4,4,0,-1,-4
1532121714235,0,8,-3,-4,-5,0,-1,-2
1532121714240,-2,-5,-2,1,1,1,2,-2
1532121714245,7,-4,0,-2,-3,-1,-1,1
1532121714250,1,3,-3,0,4,1,-1,-3
1532121714255,1,-4,1,2,-3,-2,-1,5
1532121714260,-1,-5,-2,0,1,4,-3,1
1532121714265,4,4,3,7,2,1,0,-1
1532121714270,-9,-3,-4,-3,-3,-2,-4,-7
1532121714275,8,7,3,1,1,0,3,11
1532121714280,-6,-4,-6,-8,-1,-2,-3,-4
1532121714285,8,5,1,-1,-1,0,6,13
1532121714290,2,5,4,4,1,0,7,-19
1532121714295,-6,-1,-1,0,-3,-4,-10,-6
1532121714300,-2,5,-3,-6,-2,1,4,-1
1532121714305,-5,-13,-7,-6,-9,-1,-4,-5
1532121714310,16,9,8,10,13,-4,1,2
1532121714315,-26,-5,-2,0,-5,0,6,-9
1532121714320,4,7,0,-1,-4,-1,-4,-10
1532121714325,-6,-12,-7,-13,-16,-2,-6,-7
1532121714330,0,10,5,13,16,-1,11,12
1532121714335,4,17,-2,-2,3,-6,-13,-7
1532121714340,-6,8,-3,3,-5,-3,-3,-5
1532121714345,2,16,-1,-5,-21,-3,2,-3
1532121714350,-1,6,-4,-11,-17,-8,-2,0
1532121714355,21,-7,3,6,23,-4,2,12
1532121714360,-17,-16,-5,-2,-4,-3,-1,-11
1532121714365,7,-8,3,5,28,-4,3,1
1532121714370,-5,-18,-1,-4,-20,-6,-7,-1
1532121714375,-2,-5,-5,-6,-3,-5,1,-9
1532121714380,5,-9,-1,-5,-5,-3,-4,0
1532121714385,-2,4,5,6,6,-2,1,3
1532121714390,-1,-1,-1,-1,5,-4,-3,10
1532121714395,-2,0,1,1,0,0,1,-7
1532121714400,5,-10,-2,3,7,1,-2,5
1532121714405,-2,1,1,1,-2,7,-3,5
1532121714410,-1,3,-4,-8,-3,-1,-4,5
1532121714415,-2,3,3,1,-10,5,3,0
1532121714420,1,-1,-1,1,-5,1,2,6
1532121714425,-6,7,5,3,1,1,2,-1
1532121714430,0,3,-2,-1,-2,3,-1,-2
1532121714435,-6,9,-1,0,-3,2,-1,-6
1532121714440,-2,-24,-7,-3,4,1,0,5
1532121714445,4,1,0,1,0,1,-1,-1
1532121714450,-1,-10,0,-1,-3,1,0,0
1532121714455,-1,2,-4,-3,-7,1,0,6
1532121714460,0,2,5,0,10,0,5,-5
1532121714465,1,-10,-3,-3,-10,3,-4,-3
1532121714470,-1,27,3,0,0,0,0,-1
1532121714475,-2,-37,-4,0,1,4,1,1
1532121714480,5,15,3,1,5,1,-3,0
1532121714485,-5,11,0,-1,-4,2,2,10
1532121714490,2,-19,0,3,3,3,-3,10
1532121714495,7,3,-2,-4,6,3,2,7
1532121714500,-6,-1,-1,2,-11,1,-2,-4
1532121714505,1,2,1,-3,3,-1,-2,-4
1532121714510,1,4,2,2,0,3,0,-3
1532121714515,-6,6,0,-1,0,-1,-4,-5
1532121714520,1,-2,-1,0,1,1,0,5
1532121714525,1,2,1,-2,-3,0,-2,-6
1532121714530,-1,0,-1,-6,-3,4,2,-3
1532121714535,6,15,4,3,3,-4,0,-1
1532121714540,-1,14,8,0,3,-4,0,-4
1532121714545,-4,-42,-14,-3,0,0,-1,-1
1532121714550,-4,-4,-2,-4,-2,2,-5,-4
1532121714555,-4,0,-2,0,-15,-2,-1,-3
1532121714560,4,13,4,2,-8,0,0,3
1532121714565,4,6,0,0,4,1,0,1
1532121714570,-7,5,-4,5,16,0,-3,-4
1532121714575,6,-4,0,-5,-1,-1,2,2
1532121714580,-7,-2,-3,-2,-7,3,-3,-4
1532121714585,1,0,2,2,12,-5,0,-2
1532121714590,0,-4,-2,-2,1,-1,-2,-4
1532121714595,2,13,2,2,1,-1,0,2
1532121714600,1,-4,-4,1,4,4,3,-4
1532121714605,3,10,4,0,-1,2,0,6
1532121714610,-1,17,4,-3,-15,-3,-1,-5
1532121714615,-5,-19,-5,5,8,1,-5,8
1532121714620,-6,-37,-20,-12,-10,-2,-2,1
1532121714625,-2,1,-2,1,2,0,-4,-4
1532121714630,4,6,7,-4,-3,2,4,4
1532121714635,-2,1,-1,-5,-14,-1,-1,-9
1532121714640,5,4,2,8,13,1,1,-2
1532121714645,-3,13,2,-2,1,-2,6,4
1532121714650,-9,-15,-8,-1,-8,-1,-7,-14
1532121714655,-3,-3,-4,-6,7,5,1,-1
1532121714660,-1,4,2,0,-23,2,-5,-1
1532121714665,1,0,-4,-3,9,-3,-1,1
1532121714670,3,-4,1,-2,-39,-5,4,4
1532121714675,-9,-2,0,3,44,-2,-3,-4
1532121714680,3,5,-1,0,10,1,0,0
1532121714685,-1,0,5,0,-13,-1,-4,-6
1532121714690,-5,-10,-12,-3,11,0,-4,-2
1532121714695,0,2,-3,-13,-32,-1,-2,-1
1532121714700,-1,-1,-1,-2,-4,-2,0,1
1532121714705,-5,-2,3,6,2,-4,-5,-3
1532121714710,0,0,2,4,4,-3,-1,-2
1532121714715,-1,-1,-4,-1,-18,-4,4,4
1532121714720,-1,0,1,1,9,-3,-1,-3
1532121714725,0,0,-4,-5,-11,-2,0,-1
1532121714730,-5,-4,1,1,14,-8,0,0
1532121714735,1,0,2,4,-6,-1,0,-3
1532121714740,-5,2,2,2,1,-2,-1,-2
1532121714745,1,3,0,1,3,-5,3,0
1532121714750,-2,2,0,-2,4,0,1,0
1532121714755,-5,-6,-2,-2,-5,1,-1,-2
1532121714760,1,0,2,-1,-2,-2,0,1
1532121714765,-2,-2,-3,1,0,1,1,-3
1532121714770,10,-5,-1,-2,4,6,2,15
1532121714775,-12,-1,-3,-1,-3,0,-3,-11
1532121714780,-1,6,-1,-1,2,1,0,-2
1532121714785,-1,2,1,-1,1,4,0,-13
1532121714790,10,-4,-2,3,4,0,-3,33
1532121714795,1,0,-1,1,4,0,-2,-11
1532121714800,2,1,-3,-10,-13,0,0,-2
1532121714805,0,-1,-1,-2,-3,-2,2,-22
1532121714810,3,3,5,4,3,2,-1,11
1532121714815,4,20,5,3,5,-2,0,9
1532121714820,9,-25,-7,-9,5,-1,-5,4
1532121714825,-8,-3,-9,8,-7,0,4,5
1532121714830,-1,-18,-7,-3,-3,3,-2,3
1532121714835,-1,-4,-2,-8,-29,0,0,-2
1532121714840,0,4,4,9,39,2,4,4
1532121714845,9,14,1,-8,-3,6,-2,6
1532121714850,3,4,2,1,7,2,2,-15
1532121714855,-1,-2,0,4,14,0,-3,0
1532121714860,-1,9,-1,-6,-34,0,-1,-3
1532121714865,-4,-8,1,-1,-3,-3,-2,0
1532121714870,-14,3,-1,-2,-2,0,-3,-16
1532121714875,0,-4,-1,-4,-3,-1,6,9
1532121714880,-5,2,1,5,8,-4,-2,-8
1532121714885,-4,-4,-1,-1,4,0,-2,2
1532121714890,-3,-4,-2,-4,-8,0,1,-12
1532121714895,-1,5,-2,-1,-2,0,-1,-7
1532121714900,-2,-4,2,4,-1,1,1,-2
1532121714905,3,5,1,1,-3,-2,-3,4
1532121714910,-10,2,0,-1,1,1,-2,-1
1532121714915,3,-5,-5,-1,-1,2,-1,2
1532121714920,-4,-7,-7,0,-3,2,-1,0
1532121714925,5,8,0,1,3,-1,-2,8
1532121714930,-2,-9,1,-7,-4,-1,0,-11
1532121714935,1,-10,0,6,4,0,-6,-5
1532121714940,-1,6,5,-1,2,-1,5,-1
1532121714945,-4,-7,-4,-2,1,1,-4,-4
1532121714950,6,1,-6,-5,-14,-4,0,12
1532121714955,-4,18,5,9,18,-5,-4,-6
1532121714960,0,-20,-1,-4,-5,3,-2,0
1532121714965,-10,-17,-11,-7,0,0,-3,-9
1532121714970,-1,3,1,8,8,0,4,-1
1532121714975,8,0,-2,-15,-15,3,-1,5
1532121714980,-6,12,3,-2,-4,-3,-5,-6
1532121714985,0,0,3,2,-4,-1,2,4
1532121714990,-1,1,-3,-3,-3,2,-2,-6
1532121714995,1,14,3,1,0,2,1,3
1532121715000,0,-28,-7,2,1,-3,-1,1
1532121715005,1,7,-1,-3,14,-1,0,3
1532121715010,0,4,-3,-2,-9,-4,2,-4
1532121715015,2,15,6,4,0,0,-1,0
1532121715020,-4,-16,-8,0,-6,1,1,1
1532121715025,2,-2,0,-1,1,2,-2,-2
1532121715030,6,19,6,0,4,1,1,0
1532121715035,-1,-6,2,-3,-8,2,4,2
1532121715040,-9,-16,-9,-3,7,-4,-2,0
1532121715045,1,-2,-2,-6,-8,-2,-2,1
1532121715050,-1,2,1,1,4,0,0,-2
1532121715055,1,-9,-4,1,2,2,0,0
1532121715060,6,24,6,1,-3,3,0,1
1532121715065,-4,-5,-3,-1,-1,-3,-1,-4
1532121715070,-2,-3,5,-1,-2,-4,-3,2
1532121715075,-2,-7,-8,-4,-2,-5,-3,-2
1532121715080,0,11,1,3,1,-4,-3,-1
1532121715085,0,7,0,-2,-5,-4,2,1
1532121715090,2,13,1,4,3,-4,2,-1
1532121715095,-7,-17,-4,-2,3,-2,1,-1
1532121715100,2,19,1,-5,-2,-5,-2,1
1532121715105,1,1,5,3,-5,-2,0,3
1532121715110,-3,-28,-8,0,0,-1,-2,-4
1532121715115,-1,-2,1,0,2,-13,-1,-7
1532121715120,4,-8,-4,-5,-2,-96,0,1
1532121715125,-1,16,12,6,-6,-119,2,-4
1532121715130,-4,6,-7,6,3,-128,-3,0
1532121715135,3,-8,5,-3,11,-75,3,5
1532121715140,2,11,6,2,-4,-6,0,1
1532121715145,4,0,-2,-5,-7,40,-1,2
1532121715150,0,-8,0,3,10,69,-2,-3
1532121715155,-5,27,4,0,-13,70,0,-2
1532121715160,-2,-12,-5,-2,-2,83,-4,-6
1532121715165,-2,-8,-3,-2,3,71,0,-1
1532121715170,-3,-7,-1,-4,-5,66,-2,-5
1532121715175,-4,-2,-3,0,11,48,-1,1
1532121715180,0,24,3,-2,-18,35,1,0
1532121715185,-6,-35,-4,2,2,28,-1,-4
1532121715190,2,-1,-10,-2,-3,20,-2,2
1532121715195,-2,-7,-1,-3,1,2,-3,-4
1532121715200,-1,18,6,-1,-3,4,1,4
1532121715205,-1,-10,-6,-1,5,9,-4,-1
1532121715210,1,7,3,-2,4,2,2,-2
1532121715215,5,-2,-1,-1,-11,-2,1,1
1532121715220,-1,-3,-4,1,12,0,2,0
1532121715225,0,10,2,-4,-4,0,-2,-1
1532121715230,-3,1,-4,-2,-7,-5,1,-1
1532121715235,1,-5,-3,-1,-1,-7,0,1
1532121715240,-4,-1,4,2,5,-5,1,-6
1532121715245,2,3,-2,-2,-8,-2,2,0
1532121715250,-4,-2,-3,-4,6,2,-3,-2
1532121715255,-3,-6,-2,2,-8,-2,-5,-1
1532121715260,4,-4,3,0,1,6,0,0
1532121715265,1,3,1,3,2,1,-1,1
1532121715270,0,2,1,0,0,1,2,0
1532121715275,-4,-5,-4,-3,-1,-2,-1,-2
1532121715280,1,-6,-1,-2,-2,2,-1,-1
1532121715285,0,5,-1,2,2,-4,-1,1
1532121715290,0,0,4,5,-3,-3,-4,0
1532121715295,1,-5,3,-5,-1,-5,-3,-2
1532121715300,2,-4,-7,-2,0,-2,0,1
1532121715305,-1,-2,-1,-4,-2,-5,1,-1
1532121715310,-3,-1,4,0,1,-7,1,-4
1532121715315,3,0,-1,5,-3,-5,-2,-1
1532121715320,-2,-4,-2,-7,0,0,-3,-2
1532121715325,2,3,-1,-3,-4,0,0,0
1532121715330,-1,-4,-4,1,-6,2,-2,-2
1532121715335,-3,4,-6,-2,-1,5,-3,-8
1532121715340,1,16,7,3,2,2,4,6
1532121715345,-3,-29,-6,-2,2,12,-7,0
1532121715350,-1,5,2,-4,-1,8,-1,-2
1532121715355,0,9,-2,1,1,20,1,-1
1532121715360,-6,-22,-10,-4,-1,16,-1,-5
1532121715365,1,15,4,6,6,1,8,4
1532121715370,5,-2,-2,-3,-5,-3,1,-1
1532121715375,-3,21,-2,-2,-6,-17,-2,-3
1532121715380,-6,-17,-2,-2,-5,-22,-3,1
1532121715385,-1,6,0,3,3,-15,0,-6
1532121715390,-1,-1,0,-3,0,-20,-3,1
1532121715395,7,0,6,2,0,-33,0,4
1532121715400,-1,3,-6,-3,0,-41,-4,-3
1532121715405,-1,3,4,1,-2,-37,-1,1
1532121715410,-1,-3,-6,-8,-6,-16,-1,-1
1532121715415,-1,-5,-6,-4,-2,6,-2,-2
1532121715420,-1,6,5,6,4,12,0,1
1532121715425,-1,0,0,0,-2,11,-1,5
1532121715430,1,13,4,2,2,15,1,2
1532121715435,-3,-22,-5,-3,-3,14,0,-2
1532121715440,0,0,-2,-5,-4,10,-1,-4
1532121715445,3,1,-2,-3,-2,10,-1,2
1532121715450,-1,-6,-3,-1,-9,-3,-3,1
1532121715455,-3,2,1,0,6,-2,1,-4
1532121715460,-5,-7,-5,1,5,-1,1,-1
1532121715465,1,1,1,2,-8,-2,0,2
1532121715470,-2,0,-2,-5,-2,-5,-4,-7
1532121715475,-1,10,0,-1,-1,-3,-3,-7
1532121715480,7,9,8,2,-1,-2,2,2
1532121715485,-6,-29,-16,-1,6,0,-3,-10
1532121715490,-5,6,-1,-6,-11,0,3,9
1532121715495,1,-19,-7,2,7,-7,-1,-7
1532121715500,-1,3,6,4,-1,-6,-2,-3
1532121715505,2,-4,-1,-7,-2,-2,-2,-2
1532121715510,8,4,6,2,-2,-5,2,8
1532121715515,-9,-2,3,1,-2,-5,2,-8
1532121715520,1,4,-5,0,-2,-4,-4,-1
1532121715525,0,6,0,-1,-1,-5,-3,3
1532121715530,-2,-14,-4,-1,6,5,0,-5
1532121715535,3,1,2,-1,13,2,0,8
1532121715540,0,-3,-1,-6,-24,-1,-2,-3
1532121715545,-1,5,1,-4,-4,3,0,0
1532121715550,-1,3,0,2,5,3,2,-5
1532121715555,1,7,3,3,0,30,1,5
1532121715560,0,-15,-6,0,3,36,1,2
1532121715565,0,19,1,-2,0,32,-2,-19
1532121715570,2,-9,3,0,2,13,0,4
1532121715575,-5,-19,-8,-1,-5,-8,0,0
1532121715580,0,-6,4,-1,17,-19,0,0
1532121715585,8,25,1,-2,-14,-17,-1,1
1532121715590,-8,-1,1,2,0,-9,-2,-5
1532121715595,2,-5,-4,1,2,-9,-2,-1
1532121715600,4,-2,1,-2,-4,-7,3,10
1532121715605,-10,-19,-11,-3,4,-8,-2,-7
1532121715610,-4,8,-5,1,3,-9,2,2
1532121715615,7,-13,-4,-5,-12,-9,-9,-2
1532121715620,-6,5,0,0,-3,2,-1,-2
1532121715625,2,9,7,4,9,-6,-1,11
1532121715630,1,-6,-3,-5,1,1,0,-2
1532121715635,-15,-2,-2,-3,-13,-4,-1,-5
1532121715640,3,7,-2,-2,-6,-3,-1,3
1532121715645,-2,2,5,3,0,2,1,1
1532121715650,0,-4,0,0,15,0,-1,-6
1532121715655,2,9,2,1,-12,1,0,8
1532121715660,-1,3,-3,-4,5,-3,-1,-7
1532121715665,-1,-1,2,-4,-2,0,1,-6
1532121715670,6,2,1,3,1,1,0,6
1532121715675,-5,2,-4,-3,0,-1,1,-4
1532121715680,2,21,3,0,-2,-3,-3,0
1532121715685,-8,-17,-7,0,-1,-3,-2,-4
1532121715690,-1,-6,1,1,-3,-3,-3,-2
1532121715695,-2,-2,1,2,2,-4,-1,2
1532121715700,-1,8,-1,-3,-9,1,-1,-4
1532121715705,1,2,5,-1,-2,-1,-1,7
1532121715710,-1,2,-3,-5,-12,-6,-4,-6
1532121715715,-4,2,0,2,16,0,0,6
1532121715720,-3,1,-1,2,3,-5,-1,-4
1532121715725,4,-5,3,0,6,0,2,2
1532121715730,-10,-4,-6,-6,-36,-3,-1,-23
1532121715735,1,-2,1,0,-3,-1,6,27
1532121715740,-5,-5,0,-2,6,0,-4,-21
1532121715745,8,4,2,0,1,15,-1,0
1532121715750,4,3,-1,-1,8,27,2,23
1532121715755,7,5,3,1,0,28,1,-6
1532121715760,-1,-23,-8,4,-8,4,3,5
1532121715765,-4,2,-3,-2,-5,-7,-2,-4
1532121715770,0,3,-1,0,6,-21,-14,-8
1532121715775,0,28,7,-1,14,32,9,-5
1532121715780,-6,-36,-18,-4,-12,13,-1,8
1532121715785,-2,13,3,-1,-14,1,-4,-14
1532121715790,-4,-9,-4,-3,8,-8,4,16
1532121715795,-1,-3,2,2,-9,-27,-2,-17
1532121715800,5,3,2,0,8,-11,-1,13
1532121715805,-3,3,1,1,8,-17,1,1
1532121715810,-9,11,3,0,-18,-6,-3,-14
1532121715815,5,-9,4,5,-6,-16,0,8
1532121715820,-1,7,-1,-1,6,-5,-8,-13
1532121715825,41,-29,-19,-5,-5,-7,3,-6
1532121715830,32,7,4,2,7,0,-11,-15
1532121715835,27,-14,-5,-6,-1,-10,2,-1
1532121715840,9,17,6,-6,-28,-13,-1,-3
1532121715845,-2,11,2,-3,26,-3,2,6
1532121715850,-5,-2,-1,2,-3,-7,10,-1
1532121715855,-12,17,-1,-2,3,-13,-7,-13
1532121715860,-28,-21,-1,2,10,-7,-10,-10
1532121715865,-31,-6,-3,-4,-19,-8,-15,-3
1532121715870,-18,-13,-1,-1,-2,1,15,19
1532121715875,-24,1,-2,0,0,-10,8,-2
1532121715880,2,11,5,-2,-3,-5,3,4
1532121715885,-13,-3,0,2,-1,-5,3,1
1532121715890,-16,-31,-7,-4,1,4,-7,-5
1532121715895,-2,-2,1,-6,-10,-10,-4,16
1532121715900,-7,-3,-1,0,-3,4,-1,-9
1532121715905,-2,12,5,0,4,-1,-1,-3
1532121715910,1,3,0,5,9,-1,1,-2
1532121715915,0,9,-1,-2,-6,4,0,-8
1532121715920,4,-9,0,-2,2,3,0,7
1532121715925,-1,11,8,4,1,3,-1,4
1532121715930,-2,-5,-7,-3,-1,3,-7,-1
1532121715935,-1,-21,-12,-6,-13,3,-12,-5
1532121715940,6,16,4,8,12,-1,7,-2
1532121715945,1,-6,-2,-1,0,4,5,10
1532121715950,3,-1,3,-1,4,1,4,3
1532121715955,2,6,2,-5,-5,-4,-7,-6
1532121715960,4,8,-4,-4,2,4,-10,-2
1532121715965,-4,-27,-5,1,1,2,12,-1
1532121715970,5,9,1,1,4,5,-5,-13
1532121715975,7,-2,4,2,3,-1,0,5
1532121715980,1,2,-2,-9,-7,0,-2,2
1532121715985,3,-1,3,-3,-9,3,7,7
1532121715990,0,-13,-4,1,0,-1,-6,-4
1532121715995,-3,-12,-5,-2,19,2,-5,-4
1532121716000,6,28,12,5,-5,2,-6,2
1532121716005,-9,-21,-12,-4,-12,1,-13,-12
1532121716010,-4,19,1,2,6,2,37,8
1532121716015,13,31,5,2,-1,2,3,-2
1532121716020,-14,-42,-8,-4,2,-3,1,2
1532121716025,-2,7,4,1,-3,2,-2,6
1532121716030,-2,4,4,-2,-12,-42,-20,-19
1532121716035,-2,-8,-5,-3,2,-72,5,20
1532121716040,3,13,3,1,3,-103,4,-7
1532121716045,-7,-1,-2,2,8,-79,-10,-9
1532121716050,0,-3,0,-2,-15,8,-9,-5
1532121716055,-4,-2,-1,-5,-4,43,-1,-8
1532121716060,5,-10,-4,1,5,60,1,7
1532121716065,6,15,-1,0,0,52,-5,0
1532121716070,3,27,2,0,5,39,-2,-3
1532121716075,-7,-23,-4,5,-5,36,-4,0
1532121716080,1,-5,0,-3,-6,32,5,14
1532121716085,-1,8,-2,-5,-4,9,-16,-13
1532121716090,-1,-5,-6,3,8,-54,13,6
1532121716095,5,4,1,-3,-5,-120,8,-1
1532121716100,-1,-2,0,2,6,-121,0,-5
1532121716105,-2,4,9,5,0,-88,3,4
1532121716110,-20,-5,-4,-5,-12,-49,-5,2
1532121716115,16,6,1,0,1,-36,-12,-6
1532121716120,14,20,-3,-1,4,-45,5,-33
1532121716125,-5,3,-4,-5,-3,-19,7,1
1532121716130,-11,-13,-2,-4,-2,-27,-25,-1
1532121716135,-5,-4,0,4,1,23,29,11
1532121716140,13,10,3,2,0,65,-8,-14
1532121716145,-13,-4,-3,-3,-5,70,4,9
1532121716150,5,-11,2,-2,-3,86,7,-1
1532121716155,14,16,-1,4,1,74,-6,-4
1532121716160,-8,-7,-2,-6,-8,66,0,7
1532121716165,5,9,1,-4,0,54,3,-1
1532121716170,-13,-3,-3,0,4,38,2,7
1532121716175,-9,2,2,-7,-8,41,-6,-1
1532121716180,-1,-28,-2,4,2,59,3,5
1532121716185,-2,-3,-4,4,-1,50,-4,-3
1532121716190,6,9,7,-2,6,48,5,0
1532121716195,1,-14,-9,-2,-2,40,-1,3
1532121716200,-13,2,-4,-5,-3,24,1,-9
1532121716205,6,1,1,-4,3,0,-2,4
1532121716210,3,2,2,2,3,-37,-5,-6
1532121716215,-4,-3,-2,-4,20,-32,3,0
1532121716220,-6,13,2,0,-10,-18,1,10
1532121716225,-4,-10,-2,-2,-9,5,-3,-2
1532121716230,3,-17,-6,-2,-8,12,-7,24
1532121716235,14,16,2,-1,1,19,-9,-4
1532121716240,-1,-3,-2,-2,4,6,-4,-4
1532121716245,13,8,4,0,-5,6,10,22
1532121716250,10,9,-3,1,15,3,-7,-14
1532121716255,-25,4,5,4,2,-1,4,-2
1532121716260,-4,-46,-14,-1,-2,2,-3,9
1532121716265,-1,0,-1,-8,-31,-2,4,-18
1532121716270,-17,-1,0,0,18,-5,3,19
1532121716275,48,-7,0,2,-23,-12,2,-16
1532121716280,-8,23,-2,-1,12,-4,-13,-21
1532121716285,4,5,-2,1,5,-13,2,-2
1532121716290,9,4,-3,-6,-17,7,2,-2
1532121716295,2,8,1,4,6,0,-3,-3
1532121716300,19,9,7,12,10,3,4,12
1532121716305,8,-25,-13,-3,8,2,-9,-6
1532121716310,9,5,3,-2,19,-1,-1,-7
1532121716315,-1,-18,-6,-6,-30,6,0,8
1532121716320,-14,-5,4,-8,-15,-5,-8,-12
1532121716325,-17,-21,0,5,7,-9,-5,1
1532121716330,39,8,-1,6,4,-5,-5,-6
1532121716335,23,5,-3,-1,13,10,5,2
1532121716340,-4,-3,1,-4,-5,6,-15,8
1532121716345,0,13,3,-1,4,11,16,2
1532121716350,-43,-1,-1,-6,-21,21,-8,-11
1532121716355,-42,-13,-4,0,14,26,-4,-5
1532121716360,-15,-10,1,-3,-6,4,9,6
1532121716365,-25,-7,4,1,-14,-3,-4,-3
1532121716370,-12,-10,-4,-1,-16,-16,4,-5
1532121716375,-18,-38,-7,-3,0,-1,-1,-6
1532121716380,3,12,-2,1,2,-3,-3,21
1532121716385,-17,10,-4,-2,13,-9,-1,-27
1532121716390,-7,8,3,5,0,-5,7,2
1532121716395,-17,9,1,-5,-3,-12,-3,-3
1532121716400,-13,4,1,2,-2,-13,0,-7
1532121716405,20,1,1,-1,-2,-14,-10,10
1532121716410,12,12,-7,-4,-1,-4,6,0
1532121716415,3,4,1,-1,-4,-13,-6,-5
1532121716420,12,-3,-2,-1,2,-5,2,3
1532121716425,16,11,3,0,0,-10,2,8
1532121716430,-11,-15,2,4,-9,-6,-2,-4
1532121716435,17,18,-2,-5,3,3,-2,7
1532121716440,4,13,-2,-3,2,6,1,-6
1532121716445,5,9,-2,0,5,6,-3,0
1532121716450,-1,-4,-1,-1,1,4,2,0
1532121716455,-5,5,6,-1,-5,-7,-3,1
1532121716460,0,1,-2,-1,-3,-7,2,-2
1532121716465,0,-7,-11,-4,-3,-11,0,0
1532121716470,4,-9,7,0,0,-18,5,0
1532121716475,-2,1,2,6,2,-6,-7,4
1532121716480,-2,14,0,-1,1,-6,4,-14
1532121716485,-5,-17,-2,-2,3,-9,-13,5
1532121716490,7,-4,-2,-5,-2,-11,3,-1
1532121716495,-14,-5,-4,-2,-5,-10,3,-3
1532121716500,-1,-10,1,2,3,-7,5,3
1532121716505,6,2,6,-1,-3,-9,2,-2
1532121716510,-10,-21,-13,-1,-2,-1,-5,-2
1532121716515,16,3,2,-1,1,12,-5,-1
1532121716520,6,-7,-1,-1,-1,5,8,2
1532121716525,2,16,2,-2,1,5,-2,-1
1532121716530,10,5,-7,-2,-2,5,-2,2
1532121716535,-12,-22,-7,-3,-2,0,-3,-3
1532121716540,4,11,0,0,-1,1,-5,1
1532121716545,0,-14,-2,2,3,1,3,0
1532121716550,1,-7,5,-3,-1,0,-1,-2
1532121716555,-4,-3,0,5,-1,-5,-2,-3
1532121716560,1,-4,-4,-8,-8,-7,1,-2
1532121716565,-2,-2,-3,-2,1,-4,-3,0
1532121716570,5,8,2,4,1,-3,-1,1
1532121716575,-3,5,3,0,0,-6,0,1
1532121716580,0,-4,3,3,-2,-4,1,0
1532121716585,-2,-1,2,3,1,-16,3,-3
1532121716590,0,2,-6,-8,-4,-13,-2,0
1532121716595,-2,3,-2,11,0,-24,0,0
1532121716600,1,3,7,-7,-2,-17,8,4
1532121716605,-9,-18,-9,-1,-4,-10,-16,0
1532121716610,0,8,5,5,7,3,6,-4
1532121716615,0,7,-6,-9,0,-1,-6,-2
1532121716620,-2,1,2,7,2,1,-3,2
1532121716625,4,2,1,5,-1,0,8,1
1532121716630,-4,17,10,1,1,-2,-17,1
1532121716635,-8,-10,-7,-4,-4,-3,10,-1
1532121716640,2,-12,-9,0,2,-1,5,12
1532121716645,-5,-2,-2,-7,-4,4,1,-4
1532121716650,1,-3,-3,1,-1,3,1,-5
1532121716655,2,7,7,-2,-1,1,-8,-2
1532121716660,0,1,1,-1,-4,-2,-4,-5
1532121716665,3,10,0,1,13,8,4,0
1532121716670,3,-6,-5,1,-4,-2,-2,1
1532121716675,0,8,3,-1,0,5,3,0
1532121716680,-2,1,-1,1,0,9,-1,-4
1532121716685,-1,-6,-3,-2,-3,1,14,0
1532121716690,-1,0,1,1,-8,-2,-21,-3
1532121716695,-1,-3,-1,0,10,15,7,-2
1532121716700,-1,-3,-5,1,-12,-5,-7,-2
1532121716705,3,8,8,4,3,19,-6,0
1532121716710,-1,-4,-2,-1,1,11,5,0
1532121716715,-1,-9,-2,-1,-2,16,2,1
1532121716720,2,-3,-2,-1,5,27,-4,-1
1532121716725,-2,1,4,1,-6,7,9,-1
1532121716730,5,-9,-6,-8,-3,6,12,5
1532121716735,-9,0,1,5,1,-7,-1,-3
1532121716740,-10,-12,-4,-3,0,-7,2,-1
1532121716745,5,14,1,-3,-1,-19,-2,1
1532121716750,0,5,-2,3,0,-4,0,-1
1532121716755,-1,-11,0,-1,-1,-14,6,1
1532121716760,0,9,4,-3,-3,-17,-18,-1
1532121716765,-12,2,-2,0,3,-4,7,-3
1532121716770,5,-1,6,11,8,-12,8,1
1532121716775,3,13,-5,-26,-13,-5,-4,0
1532121716780,-9,-3,-3,1,-3,-4,1,-3
1532121716785,-22,-10,-9,-8,-14,2,-23,-4
1532121716790,7,10,-2,-1,4,10,5,0
1532121716795,-6,-3,-2,3,1,7,-5,2
1532121716800,4,1,-1,1,2,7,3,3
1532121716805,6,-3,4,1,5,4,-4,4
1532121716810,1,4,-2,-5,-9,-3,-3,1
1532121716815,0,-3,-1,2,-2,2,-7,-6
1532121716820,0,-5,-3,-6,-1,1,1,-6
1532121716825,-1,5,1,9,-1,-7,4,-3
1532121716830,10,3,1,1,1,-2,0,-1
1532121716835,-1,-5,-4,-2,-2,-7,-1,-1
1532121716840,-1,5,2,4,0,-5,2,0
1532121716845,1,-3,-2,-6,-1,3,4,2
1532121716850,-9,6,1,-3,1,-2,-8,-3
1532121716855,-4,-24,-6,-2,-2,-9,-1,-1
1532121716860,0,-2,-3,0,-1,-14,2,-2
1532121716865,5,-2,-1,-2,3,-14,2,3
1532121716870,-7,-10,-1,-2,-1,-24,3,4
1532121716875,1,10,2,3,5,-34,-5,0
1532121716880,-2,6,0,-2,-4,-27,6,1
1532121716885,4,-6,-1,0,-1,-14,1,0
1532121716890,-6,1,0,-1,1,9,0,-2
1532121716895,-6,3,2,3,0,1,-4,-3
1532121716900,-6,-7,1,0,-2,21,-2,-2
1532121716905,3,-1,-4,-4,-3,22,0,-2
1532121716910,7,0,-2,-2,-4,13,5,1
1532121716915,3,3,3,-1,-4,19,-7,-1
1532121716920,9,34,9,2,0,17,-8,-3
1532121716925,0,-19,-2,0,5,13,1,-3
1532121716930,-18,-31,-15,-5,-2,6,-1,-4
1532121716935,19,21,0,-1,-1,-1,8,3
1532121716940,2,-5,1,-1,4,-3,-1,0
1532121716945,6,24,3,-2,-14,-20,1,0
1532121716950,-2,-4,3,2,1,-13,-1,-4
1532121716955,-12,-11,-3,1,-3,-19,-3,-2
1532121716960,3,1,-3,-1,3,-38,2,-3
1532121716965,6,15,1,4,8,-35,-1,1
1532121716970,-3,-1,-2,-4,-11,-31,-3,13
1532121716975,-1,4,3,0,-3,-2,2,8
1532121716980,-6,-14,-5,-1,4,12,1,3
1532121716985,-4,-9,-1,-4,-2,13,-2,-3
1532121716990,3,6,1,-1,-1,-3,-3,-7
1532121716995,-8,-2,-2,0,3,14,-2,-8
1532121717000,-2,-7,-3,-1,-2,7,1,-6
1532121717005,1,2,2,0,0,12,-9,-6
1532121717010,-5,5,-2,-3,-1,24,-2,-1
1532121717015,6,0,-4,-2,-3,7,2,1
1532121717020,5,-7,0,-1,-1,12,-4,-2
1532121717025,2,7,0,-3,-2,5,-3,-1
1532121717030,0,32,3,0,-1,-1,0,-2
1532121717035,-9,-49,-8,2,10,9,3,-3
1532121717040,0,0,-3,-4,-7,0,-3,1
1532121717045,-3,-1,1,-1,-3,3,0,-1
1532121717050,2,1,0,1,1,7,1,-2
1532121717055,0,18,2,1,-2,8,1,-3
1532121717060,-1,5,-2,-2,4,6,0,1
1532121717065,-2,-9,-4,0,1,5,0,2
1532121717070,4,8,4,-2,1,3,-2,-3
1532121717075,1,8,0,1,4,5,-2,0
1532121717080,-3,-8,1,2,-8,-8,-7,-4
1532121717085,0,5,-2,0,-2,5,7,0
1532121717090,-2,-15,-5,-3,-1,3,-3,-3
1532121717095,1,8,6,-1,-2,0,-1,0
1532121717100,-13,-26,-4,-4,1,6,1,-1
1532121717105,-5,1,-1,-2,-4,-8,-2,0
1532121717110,26,11,1,2,3,1,-1,0
1532121717115,-2,-3,0,0,5,-4,0,0
1532121717120,7,8,0,-3,-23,-13,-3,-2
1532121717125,-12,-10,-4,0,2,4,-3,-4
1532121717130,-13,-16,-2,-2,0,7,1,-1
1532121717135,5,17,5,-2,-11,-7,3,2
1532121717140,-7,-5,-8,-1,12,11,-1,-1
1532121717145,-1,-12,-2,0,-1,13,-1,0
1532121717150,-4,0,-1,-3,-3,8,1,1
1532121717155,3,-3,1,-5,-8,-1,-6,-1
1532121717160,0,17,1,7,9,7,3,-1
1532121717165,2,-4,0,0,3,4,-1,-1
1532121717170,-10,-2,1,2,-3,0,-1,-2
1532121717175,2,-13,-5,-5,-2,7,-1,1
1532121717180,4,4,4,-2,1,4,-1,2
1532121717185,6,3,-2,1,-1,2,1,2
1532121717190,-7,-1,-1,-1,-1,-4,-3,-1
1532121717195,-5,1,-2,2,0,4,-9,-5
1532121717200,5,1,0,1,1,0,0,-1
1532121717205,1,22,2,-1,-3,-6,-2,0
1532121717210,1,-18,1,-1,0,-3,6,0
1532121717215,-1,-5,-2,0,-9,-6,-2,0
1532121717220,3,-2,-1,-1,6,1,-2,0
1532121717225,-3,2,0,0,-1,-6,-1,-1
1532121717230,-6,-2,-3,1,-4,-10,-4,-3
1532121717235,5,1,-4,0,1,-3,1,-3
1532121717240,-2,8,2,0,-2,4,0,-1
1532121717245,2,-9,1,0,2,-11,-3,1
1532121717250,0,-4,-1,-2,0,2,0,0
1532121717255,-3,5,-3,-2,2,0,-1,0
1532121717260,2,5,0,0,-4,-5,3,0
1532121717265,-1,-3,-1,0,-5,-1,-1,-3
1532121717270,-1,3,-3,2,3,1,-4,-3
1532121717275,-8,-1,1,-1,1,-1,3,-1
1532121717280,13,-2,3,-5,-3,-2,-1,0
1532121717285,1,-17,-5,-5,1,-2,-2,0
1532121717290,-1,5,2,0,0,-1,-4,1
1532121717295,-5,-6,1,2,3,-5,1,-2
1532121717300,-2,17,2,1,-8,-7,2,1
1532121717305,-2,-11,-4,-2,4,5,1,-1
1532121717310,1,-8,-1,0,1,-5,-4,-2
1532121717315,-4,0,0,2,2,-3,4,1
1532121717320,-7,-18,-6,1,-3,-3,-8,-2
1532121717325,1,15,3,1,-1,-3,0,-2
1532121717330,-1,3,-2,-3,-6,-9,1,-1
1532121717335,-3,-7,-1,0,2,-5,1,0
1532121717340,-6,6,0,0,1,-9,3,1
1532121717345,6,2,-5,-2,-3,-6,0,0
1532121717350,0,-2,1,-2,3,0,-3,-2
1532121717355,-10,-5,-6,1,-5,-5,-1,-2
1532121717360,17,4,-3,-3,-1,-1,2,1
1532121717365,-8,-2,1,0,-3,-5,-4,0
1532121717370,3,-2,-1,3,2,2,10,2
1532121717375,3,1,3,-3,-4,-4,-1,0
1532121717380,-7,-3,-5,0,3,-6,1,-1
1532121717385,0,-5,-4,-3,3,-3,-2,-3
1532121717390,1,9,3,3,-22,-19,0,0
1532121717395,1,2,-3,-2,0,3,-4,-1
1532121717400,-7,-9,-3,-1,1,-5,0,-3
1532121717405,1,8,1,-2,1,3,-5,-1
1532121717410,-4,-6,0,-2,1,-7,4,3
1532121717415,3,-3,0,0,3,3,-4,-1
1532121717420,0,-1,-3,-2,2,7,-2,1
1532121717425,-1,2,0,-1,-2,-5,-1,0
1532121717430,0,1,-2,-1,1,7,-2,-2
1532121717435,1,0,0,1,-3,-2,-1,0
1532121717440,-3,-3,-2,1,9,10,-1,-3
1532121717445,-5,-4,1,-2,1,7,9,-1
1532121717450,-1,1,0,-4,-18,-12,-6,0
1532121717455,10,7,-3,-1,5,13,1,-1
1532121717460,-7,-3,0,-1,-7,1,-2,-1
1532121717465,1,1,-2,-3,-4,4,-3,-1
1532121717470,-7,-7,-1,2,10,7,2,0
1532121717475,-4,1,0,0,-5,-1,1,0
1532121717480,-1,2,0,-1,2,12,-2,-3
1532121717485,4,0,1,-2,-3,-2,0,15
1532121717490,-1,-5,-7,-5,-2,8,-3,-3
1532121717495,1,0,-2,1,-2,6,-4,2
1532121717500,2,2,3,2,1,-4,-1,1
1532121717505,-1,3,-2,0,-4,8,-5,-5
1532121717510,2,1,-2,0,2,6,-1,2
1532121717515,1,0,-1,-1,1,9,0,0
1532121717520,-4,-2,1,-4,-4,-15,-3,-4
1532121717525,0,-1,-2,2,-3,12,-4,-6
1532121717530,1,1,0,5,6,9,-3,-4
1532121717535,-5,0,-1,-3,-2,0,1,-4
1532121717540,1,0,0,-3,0,11,4,-1
1532121717545,0,4,0,2,-2,0,-2,-1
1532121717550,1,6,2,-2,-1,7,-1,-1
1532121717555,-1,0,-2,-6,-9,-6,-3,0
1532121717560,-1,1,-4,-2,2,18,0,-1
1532121717565,1,5,2,3,-1,21,6,2
1532121717570,-1,-3,-3,2,9,12,-10,-3
1532121717575,-1,1,2,0,1,12,3,-4
1532121717580,-1,-5,-2,-4,-4,-1,-1,-3
1532121717585,-2,-4,-3,-3,-1,0,0,-2
1532121717590,2,-1,1,0,-2,-12,1,2
1532121717595,0,-2,-1,1,-2,-23,4,1
1532121717600,0,-2,-3,0,-4,-15,-4,1
1532121717605,-1,-1,2,0,-1,-27,0,-1
1532121717610,-3,-4,-1,-3,1,-11,0,-2
1532121717615,-2,-1,0,-3,1,2,-6,-4
1532121717620,0,-2,2,2,-4,-35,6,-3
1532121717625,-2,-9,-3,-2,1,-10,2,0
1532121717630,4,0,1,-1,-3,0,-7,-2
1532121717635,-3,-1,-2,-3,-1,6,5,5
1532121717640,1,-22,1,-4,-28,-4,-10,-3
1532121717645,-1,-9,-5,-5,24,4,-12,-4
1532121717650,-2,8,-3,-3,-27,-11,9,0
1532121717655,3,6,1,2,28,8,2,-2
1532121717660,-5,0,-2,-3,1,20,0,3
1532121717665,2,-7,-1,1,-9,-20,-5,-6
1532121717670,0,-11,0,-11,1,17,1,0
1532121717675,2,7,-3,2,-12,-13,-4,-2
1532121717680,-1,9,0,-2,-3,5,7,2
1532121717685,-2,2,1,-2,-1,9,-3,-1
1532121717690,18,9,-3,-1,-1,-27,-10,2
1532121717695,12,20,0,10,-2,-5,-1,-1
1532121717700,0,-8,1,-1,-6,-20,-11,1
1532121717705,-5,-6,-1,2,-9,-24,-8,-7
1532121717710,1,-3,-2,0,-5,-17,0,0
1532121717715,-3,-8,0,-9,-9,-30,0,-2
1532121717720,-2,-3,-1,6,9,-22,8,2
1532121717725,0,6,7,15,5,-41,-5,1
1532121717730,-2,1,-7,-12,28,-4,5,-2
1532121717735,-5,-16,-1,-4,-13,-47,-5,-3
1532121717740,6,17,17,66,-16,-58,6,10
1532121717745,-4,2,-23,-94,-68,-54,-4,-1
1532121717750,-2,11,2,24,3,-25,-1,4
1532121717755,-8,8,-4,-11,-2,41,-1,-5
1532121717760,-6,-2,-3,-9,10,75,-2,-7
1532121717765,-6,1,9,44,43,47,1,-1
1532121717770,-6,-1,-1,-9,-1,71,-1,0
1532121717775,-1,-1,-3,-2,-14,54,-4,-2
1532121717780,-3,-6,-2,-15,-9,48,-2,-2
1532121717785,8,0,1,16,5,63,6,3
1532121717790,8,-7,3,3,16,51,-5,2
1532121717795,8,5,14,67,33,16,5,2
1532121717800,-2,-11,-27,-100,-76,39,-7,-5
1532121717805,0,-6,-4,14,-14,59,-4,-1
1532121717810,0,-7,0,22,6,-15,1,1
1532121717815,-3,-1,4,-1,-22,-2,2,-1
1532121717820,-6,-5,-1,-11,18,5,-2,-1
1532121717825,-3,-5,0,-17,-29,-1,-1,1
1532121717830,-2,0,1,-6,-18,-2,-4,1
1532121717835,-3,5,-3,-9,4,0,2,0
1532121717840,-8,1,2,14,25,25,-2,-4
1532121717845,-9,1,3,10,11,5,0,-1
1532121717850,-1,2,1,10,0,-9,2,2
1532121717855,2,-2,-6,-6,13,22,-1,0
1532121717860,-3,6,-1,-21,-4,-15,1,1
1532121717865,3,6,2,20,19,-18,-2,-2
1532121717870,4,3,-1,-12,-22,-15,0,-3
1532121717875,5,-1,-7,-11,3,-6,-4,-3
1532121717880,10,-1,1,11,12,-17,1,-1
1532121717885,9,0,2,4,-2,-12,1,-1
1532121717890,5,-4,-1,-8,1,1,0,-1
1532121717895,5,-2,-2,-9,1,-8,-1,-2
1532121717900,4,-1,2,16,5,-27,0,-1
1532121717905,2,0,-3,-7,-6,-16,0,-2
1532121717910,2,2,1,12,18,-12,-3,-2
1532121717915,-1,-6,1,18,10,-7,5,1
1532121717920,-1,-2,-2,2,-10,-31,-1,-1
1532121717925,-1,-3,-4,-11,0,-15,-3,-3
1532121717930,-2,-3,-1,-7,-8,-11,1,2
1532121717935,-3,3,4,18,13,1,0,1
1532121717940,0,3,2,4,5,-26,-8,-4
1532121717945,-3,-2,0,5,8,-5,1,-2
1532121717950,1,0,1,1,-11,3,-2,1
1532121717955,-2,0,-1,-5,-5,-15,-5,0
1532121717960,1,3,-4,-4,-1,-3,3,2
1532121717965,0,6,-1,5,4,-3,0,-1
1532121717970,-1,-3,-3,-12,-8,1,0,-1
1532121717975,-1,0,-1,1,7,3,0,1
1532121717980,-2,-8,-2,5,3,3,-2,0
1532121717985,1,-6,2,7,3,-4,-2,-2
1532121717990,-1,-6,-4,-2,0,1,1,-1
1532121717995,1,-2,-5,-17,-8,-1,-5,0
1532121718000,0,-1,5,13,6,-11,2,1
1532121718005,-3,-2,-2,9,17,-9,0,-2
1532121718010,-4,2,-6,-12,-21,-19,-1,-4
1532121718015,-3,3,-3,-19,-16,-14,0,-1
1532121718020,-1,-1,-2,-1,-6,-5,2,2
1532121718025,0,-3,1,2,3,5,-3,-1
1532121718030,1,-2,-1,4,12,-3,-1,0
1532121718035,-3,-2,-2,-4,-4,0,-1,-2
1532121718040,-2,0,2,1,0,-9,-4,-2
1532121718045,1,-1,2,-3,-4,4,3,0
1532121718050,0,1,1,1,1,-2,-4,-1
1532121718055,-2,1,0,-6,-6,9,6,0
1532121718060,-3,-3,-4,2,6,4,-6,-3
1532121718065,-1,1,-3,-3,-4,5,-1,0
1532121718070,-1,2,-1,-5,-3,2,-2,-1
1532121718075,-2,1,0,-1,4,9,-2,-1
1532121718080,-1,0,2,18,15,3,2,-1
1532121718085,-2,-1,-5,-25,-20,0,-1,-2
1532121718090,-2,-1,1,0,-2,13,-1,1
1532121718095,-1,0,-3,2,5,-5,-1,0
1532121718100,-1,1,0,-14,-7,8,1,-1
1532121718105,-1,5,1,11,14,-4,-3,-1
1532121718110,-1,-1,-2,-4,-1,9,1,-3
1532121718115,0,2,3,20,8,-3,0,-3
1532121718120,-1,-1,-4,-26,-23,3,-4,-2
1532121718125,-2,-4,0,-2,2,4,1,0
1532121718130,-1,-1,-6,-14,-12,-5,-2,-3
1532121718135,1,-1,3,10,14,8,-1,2
1532121718140,-1,1,-2,-3,-7,7,1,-1
1532121718145,-1,-1,3,10,2,-12,-2,-2
1532121718150,-1,-5,-3,-1,1,6,-3,-1
1532121718155,2,-1,-1,-13,-4,-1,4,0
1532121718160,-1,-3,2,9,7,6,-2,-2
1532121718165,0,-2,0,-8,-8,11,1,-2
1532121718170,-2,1,-1,11,4,-4,0,-1
1532121718175,-1,-2,-4,-19,-10,2,-2,-2
1532121718180,-1,0,-2,2,1,2,1,-1
1532121718185,-1,2,-2,1,-1,2,-7,-3
1532121718190,0,4,2,9,3,3,4,0
1532121718195,-3,-1,-3,-9,-7,4,-3,-3
1532121718200,-1,-2,-1,2,-1,-8,-4,-4
1532121718205,-2,-3,-2,-2,-2,-7,7,-1
1532121718210,-1,0,0,-4,2,3,-1,1
1532121718215,-1,2,0,-7,-5,5,-1,1
1532121718220,-1,-1,0,6,2,-1,-1,3
1532121718225,-1,-4,-4,3,-2,-1,4,-3
1532121718230,1,-2,-1,-6,-3,0,-3,-1
1532121718235,-2,-1,-1,2,0,-1,1,0
1532121718240,3,1,2,-1,-2,5,2,5
1532121718245,-2,-2,-1,-2,-1,-1,-2,4
1532121718250,-1,0,-3,-4,-1,1,0,-1
1532121718255,-1,-3,-3,-4,-2,-2,-3,-1
1532121718260,-1,1,1,3,4,1,2,-3
1532121718265,-1,4,1,-2,-7,-1,0,-1
1532121718270,-3,-1,-1,4,6,1,1,0
1532121718275,-2,-2,-2,-4,2,-6,1,1
1532121718280,-2,-1,-3,-3,-3,-13,-2,-4
1532121718285,-1,-6,0,1,2,-1,-5,1
1532121718290,1,0,4,2,2,-9,4,1
1532121718295,-1,2,-2,1,0,-1,-1,-2
1532121718300,-1,-1,-1,4,1,2,0,1
1532121718305,-1,0,-4,-5,-3,1,0,0
1532121718310,1,0,0,-2,-2,-1,-5,2
1532121718315,0,0,-1,-1,-3,-5,2,-3
1532121718320,-1,0,-2,0,6,-1,1,-2
1532121718325,-1,2,-1,4,-14,-9,-4,-1
1532121718330,3,4,0,-3,1,-1,-1,-6
1532121718335,-5,-2,1,1,-4,-23,-3,6
1532121718340,-3,-2,-3,1,8,-5,1,0
1532121718345,0,-2,-2,-3,6,-2,-1,-1
1532121718350,1,-2,-1,0,-9,-28,-1,1
1532121718355,-3,1,1,1,8,2,-2,-3
1532121718360,-2,4,-2,-4,-12,-7,-3,-2
1532121718365,0,-2,0,-3,0,-10,0,-1
1532121718370,5,-1,-1,-3,-2,-1,0,3
1532121718375,-8,-3,-2,1,1,-3,-4,-5
1532121718380,5,-3,0,0,9,-11,-4,0
1532121718385,1,7,0,0,-11,-9,0,-1
1532121718390,2,-10,-2,0,5,1,-2,3
1532121718395,-1,12,-3,-9,-8,-1,1,-3
1532121718400,-8,-16,1,8,14,-8,-1,-2
1532121718405,0,2,2,1,13,12,-3,-2
1532121718410,-5,-4,-1,2,11,10,1,-4
1532121718415,5,1,-3,0,-13,5,0,2
1532121718420,0,4,0,-6,-14,-2,0,-5
1532121718425,0,-3,-1,-1,0,-5,-2,-3
1532121718430,-2,3,4,0,4,6,-1,4
1532121718435,-1,-4,-1,-2,-15,-26,-2,-1
1532121718440,3,4,0,-1,-24,-6,1,-3
1532121718445,-2,-5,-4,-11,-3,-2,2,0
1532121718450,-3,-1,1,30,40,1,-1,-1
1532121718455,1,-1,0,-4,2,0,-3,0
1532121718460,-1,0,-1,0,12,16,2,1
1532121718465,1,-1,-1,-8,-29,-3,-3,-1
1532121718470,-4,3,-1,-7,-16,-7,0,-5
1532121718475,2,-3,-1,-4,-5,18,-1,0
1532121718480,-1,0,-1,7,14,3,-1,-1
1532121718485,1,1,-1,8,7,13,0,3
1532121718490,-4,1,-1,-9,-10,2,0,-7
1532121718495,0,-2,-1,6,10,1,0,-1
1532121718500,-1,1,0,-9,-15,1,-2,1
1532121718505,3,-2,-1,-2,-1,-7,-2,3
1532121718510,-6,-3,-4,-1,2,-10,0,2
1532121718515,2,0,1,2,-15,0,2,0
1532121718520,0,-1,-2,-4,-22,-6,-4,-2
1532121718525,-7,-4,-2,-11,-8,-3,-5,-4
1532121718530,1,3,4,22,46,-4,3,4
1532121718535,-1,-1,2,-2,-4,5,0,-2
1532121718540,1,-1,-1,1,23,-1,1,3
1532121718545,-1,-2,-1,-1,-14,4,-2,-1
1532121718550,1,-2,-5,-18,-31,-9,-4,-4
1532121718555,-3,-1,-1,6,11,0,-2,2
1532121718560,0,1,1,-5,-14,4,-1,1
1532121718565,-1,-1,-4,3,21,6,0,-2
1532121718570,-1,-1,1,-4,-8,7,-3,-6
1532121718575,0,-1,-3,-5,-8,-2,-4,-3
1532121718580,-3,-2,-2,6,12,-2,0,-1
1532121718585,0,4,4,5,7,4,0,1
1532121718590,5,-2,-4,-8,-14,12,-1,2
1532121718595,-5,-3,-1,-3,-7,12,1,-3
1532121718600,-4,0,-1,-7,-2,10,-1,-3
1532121718605,0,2,2,11,18,-7,2,0
1532121718610,-3,0,-3,-2,-8,0,-1,-1
1532121718615,5,-1,-3,-3,-4,-10,-1,3
1532121718620,-6,0,-3,-4,-3,-2,0,-5
1532121718625,-1,0,-1,-4,-1,-1,0,0
1532121718630,0,0,-3,-7,-14,-3,-1,-2
1532121718635,-1,-1,-2,0,-16,4,-1,-5
1532121718640,2,0,0,3,31,-5,-1,2
1532121718645,0,1,3,8,10,-2,0,-1
1532121718650,0,1,0,-4,-15,4,2,0
1532121718655,1,0,0,-4,10,-5,-4,-2
1532121718660,1,-2,-2,1,-15,6,1,0
1532121718665,-1,-2,-2,-7,-16,0,0,-2
1532121718670,-1,-1,1,0,12,1,0,-2
1532121718675,-1,0,0,4,9,-1,0,0
1532121718680,-1,1,-4,-2,-10,-2,0,1
1532121718685,-1,-1,-4,-6,-6,-1,-2,-1
1532121718690,-2,0,-1,4,-9,-12,0,-1
1532121718695,-3,-2,-1,-3,-1,-5,0,-3
1532121718700,1,1,1,8,3,-10,1,-2
1532121718705,1,0,-3,-3,-1,1,0,0
1532121718710,-1,0,0,-4,-3,-6,-1,-1
1532121718715,0,0,-2,-2,-3,2,-1,-1
1532121718720,-1,-1,-1,-4,8,4,1,0
1532121718725,-3,-2,-4,2,-3,-2,-3,-3
1532121718730,-1,-1,0,2,3,1,1,2
1532121718735,0,-1,0,0,6,-9,-2,-2
1532121718740,-1,-2,0,-2,-8,-8,1,0
1532121718745,0,-3,0,-4,-4,3,1,0
1532121718750,-1,3,1,6,2,-8,-4,2
1532121718755,3,-1,1,-2,-1,-11,1,-2
1532121718760,-1,-3,-3,-2,-2,-5,-1,0
1532121718765,-4,-2,-1,-1,-2,-9,-1,-5
1532121718770,-1,-4,-3,-4,-2,-5,-2,-3
1532121718775,-1,0,0,3,4,-7,-2,0
1532121718780,1,0,0,-3,-10,-14,0,0
1532121718785,1,0,1,7,14,-12,0,0
1532121718790,-2,-2,-1,-6,-3,-1,1,-2
1532121718795,0,0,-1,0,2,6,-1,1
1532121718800,1,0,-2,-3,-13,-2,-1,-2
1532121718805,-2,1,3,1,10,-7,1,2
1532121718810,0,1,-1,1,-12,-5,-1,-1
1532121718815,0,-3,-1,-1,3,-6,0,-1
1532121718820,-1,-2,-3,3,0,2,-1,-3
1532121718825,2,0,2,-3,-5,8,-2,1
1532121718830,-1,-1,-2,-5,-1,12,-2,-2
1532121718835,-2,-1,-1,-4,-2,-1,-1,-1
1532121718840,0,2,0,3,0,-2,-1,1
1532121718845,-1,0,-2,-2,-2,-7,0,-2
1532121718850,-1,-1,-1,-3,-1,-3,0,-1
1532121718855,0,-2,-2,0,-3,7,-1,-1
1532121718860,0,0,-1,-3,1,9,1,-1
1532121718865,0,1,1,-2,-1,3,-2,3
1532121718870,-1,-2,-2,1,-4,2,-2,-1
1532121718875,0,2,2,-1,1,-2,0,-1
1532121718880,-2,-1,0,-1,0,-1,-2,-2
1532121718885,1,1,-1,0,0,5,0,-2
1532121718890,-1,-1,-1,-2,-6,7,-1,-2
1532121718895,-1,-2,-2,0,3,2,-1,0
1532121718900,0,-2,0,0,5,0,-2,-3
1532121718905,0,0,-1,-4,-7,4,0,0
1532121718910,-2,-2,-1,6,-2,-3,0,-2
1532121718915,0,0,0,2,2,0,0,-1
1532121718920,3,1,1,-5,-3,4,0,3
1532121718925,-5,-1,-1,-1,-2,0,2,-5
1532121718930,-2,1,2,-1,1,0,-2,-4
1532121718935,-1,0,-3,-3,-5,0,1,0
1532121718940,-2,-1,-1,-2,-2,1,-2,-1
1532121718945,3,0,-1,0,-7,-7,0,1
1532121718950,1,-2,1,0,14,11,1,1
1532121718955,-4,-1,1,3,3,-4,-4,-1
1532121718960,0,0,0,1,2,-1,1,-1
1532121718965,0,-3,0,-3,-3,3,-2,-1
1532121718970,0,2,-2,-1,-5,-2,-1,0
1532121718975,0,0,-2,1,-1,7,0,-1
1532121718980,0,-1,0,-4,-9,1,-2,-2
1532121718985,-2,-1,-1,2,10,-7,-3,0
1532121718990,0,-1,-3,-2,-2,6,1,1
1532121718995,0,1,-1,-8,-2,0,1,1
1532121719000,3,2,1,4,-5,-2,-1,4
1532121719005,-3,-2,0,2,-3,3,1,-8
1532121719010,-8,-2,0,-1,1,-5,-7,-3
1532121719015,0,-1,-2,-3,1,2,0,0
1532121719020,-2,0,-5,-5,-7,-2,0,-2
1532121719025,3,0,-1,-1,0,2,0,1
1532121719030,2,1,1,-1,1,-5,2,0
1532121719035,0,3,5,0,-1,1,-2,0
1532121719040,-5,-14,-7,0,2,4,-3,-3
1532121719045,-2,0,-2,-2,7,0,0,0
1532121719050,-1,-1,0,1,-10,-1,-2,0
1532121719055,0,2,-1,-5,-1,1,0,-2
1532121719060,2,3,-2,2,8,4,0,2
1532121719065,1,-1,-1,-2,-7,6,2,2
1532121719070,1,1,0,2,0,-4,-1,-4
1532121719075,9,3,1,-2,-5,1,0,4
1532121719080,-10,0,1,0,-6,-6,-1,-4
1532121719085,-1,-4,0,7,16,0,-3,4
1532121719090,-4,7,-1,-4,1,-1,0,-2
1532121719095,-3,-10,-4,1,-8,2,-2,-3
1532121719100,3,3,3,1,4,-5,-2,0
1532121719105,-1,11,-1,-7,-11,-6,0,-3
1532121719110,2,-14,2,10,19,-5,5,-3
1532121719115,-2,-3,-3,2,11,-13,-2,4
1532121719120,-1,1,1,-3,-13,-14,-2,0
1532121719125,1,-4,-1,-3,1,-9,-2,-2
1532121719130,1,5,-1,2,-8,-8,-1,-4
1532121719135,-5,-2,-1,-1,-4,-6,1,-4
1532121719140,2,0,-3,5,15,-8,-3,1
1532121719145,2,4,4,-6,-7,-15,0,-3
1532121719150,-7,1,0,-9,-8,-5,-2,-1
1532121719155,1,-2,0,4,2,-4,2,-2
1532121719160,-3,0,0,-8,-5,-6,-2,-2
1532121719165,6,-4,-4,2,1,-1,0,4
1532121719170,1,1,-3,-2,-7,-2,-2,1
1532121719175,-3,0,1,-4,-17,-8,-1,-3
1532121719180,-1,3,-2,1,-11,2,-1,-1
1532121719185,-1,2,-1,-2,-3,-35,1,-2
1532121719190,4,2,3,2,6,-2,1,4
1532121719195,-7,-4,-10,1,0,3,-3,-2
1532121719200,2,-3,0,4,23,17,2,0
1532121719205,-2,-4,-1,-3,-20,22,-1,0
1532121719210,0,4,-2,-9,-6,9,-1,1
1532121719215,2,0,0,-2,2,14,-1,-1
1532121719220,-2,-3,-1,-7,-30,12,2,-4
1532121719225,-4,0,1,7,36,14,-1,-2
1532121719230,-1,-8,-6,-5,-3,0,2,-1
1532121719235,0,-1,-3,-8,4,3,-1,-2
1532121719240,1,-2,6,11,15,-2,0,2
1532121719245,-2,1,-1,-4,-11,2,-1,0
1532121719250,5,-1,1,-3,4,5,2,3
1532121719255,-4,2,-1,-9,-6,1,-2,-2
1532121719260,4,1,1,6,-1,-1,-2,2
1532121719265,-9,-3,0,1,-4,3,0,-5
1532121719270,1,-1,-1,5,8,-6,-4,7
1532121719275,1,3,3,-4,-16,-7,-1,0
1532121719280,-1,-4,-1,0,15,-8,1,-3
1532121719285,0,1,-1,2,3,-1,-2,4
1532121719290,-1,-7,-5,-8,-2,0,-1,-3
1532121719295,-1,1,1,5,-5,-4,1,-1
1532121719300,0,1,-2,-3,-15,-6,-1,-1
1532121719305,1,-2,1,0,1,-2,-2,0
1532121719310,-3,2,-2,-1,-10,1,1,-3
1532121719315,-1,-2,0,3,12,4,-2,0
1532121719320,-2,-4,0,-3,3,3,2,-2
1532121719325,2,-2,-8,-15,-52,0,-1,-3
1532121719330,-2,-1,3,23,63,2,-3,0
1532121719335,-1,1,0,-3,-3,0,1,-4
1532121719340,-1,2,-1,1,19,-1,-1,-1
1532121719345,-1,-1,-1,-8,-12,5,0,-2
1532121719350,-1,-1,-1,-1,-32,0,-1,3
1532121719355,0,2,3,5,16,-27,0,-2
1532121719360,-1,-3,-2,-6,-9,-5,1,0
1532121719365,-6,-1,0,1,10,-1,-1,-5
1532121719370,0,-4,-4,-7,-4,1,-2,-2
1532121719375,-1,-1,-1,-1,-14,7,-2,2
1532121719380,2,-1,-1,-10,5,-7,0,1
1532121719385,-4,-1,0,13,17,-8,-3,-1
1532121719390,-3,-2,-3,-4,-20,14,-2,-3
1532121719395,-2,-1,-4,-4,40,14,-1,-2
1532121719400,1,2,4,9,-14,4,1,0
1532121719405,1,-1,-1,1,11,7,-3,-1
1532121719410,-2,2,0,1,-2,0,-2,1
1532121719415,2,-3,-1,-4,-10,2,0,0
1532121719420,-2,0,-5,-10,-8,4,-1,-4
1532121719425,1,2,2,4,11,2,1,0
1532121719430,-3,-3,-1,1,-3,4,-2,-2
1532121719435,0,1,-1,-1,-7,-2,0,1
1532121719440,-1,-3,-4,-4,0,-9,0,-2
1532121719445,4,1,0,4,-8,-5,0,1
1532121719450,-4,-1,-1,0,12,-8,0,-4
1532121719455,-1,-2,1,2,-5,-11,-1,-2
1532121719460,2,1,1,-7,-15,-10,-1,1
1532121719465,-1,-1,-2,3,26,-6,-1,-2
1532121719470,2,0,0,1,-6,-12,0,1
1532121719475,-1,-1,1,4,-1,-12,1,-1
1532121719480,-1,0,-1,-1,2,-7,-2,-2
1532121719485,1,-1,0,1,-3,-1,1,2
1532121719490,-2,0,0,-3,-3,-2,-2,0
1532121719495,-3,0,-2,3,1,-5,0,0
1532121719500,0,0,-1,-3,-4,-6,-2,0
1532121719505,-1,-3,-1,0,-4,-2,0,-2
1532121719510,0,4,0,1,8,-5,0,1
1532121719515,0,-2,-2,1,-14,-4,-3,-1
1532121719520,-1,-3,-2,-4,2,-5,0,1
1532121719525,-1,0,-1,-1,1,-2,-2,1
1532121719530,-2,2,1,1,0,0,0,0
1532121719535,1,-2,-2,-3,-1,-5,-1,1
1532121719540,0,-1,0,2,1,1,1,-4
1532121719545,-3,0,0,2,0,-6,-2,0
1532121719550,-2,-3,-3,-8,-14,-12,-1,-1
1532121719555,-1,1,3,7,10,-8,0,0
1532121719560,-1,-1,0,1,2,-5,-2,1
1532121719565,-2,-2,-2,-4,1,4,0,-3
1532121719570,-1,-1,-2,-6,-14,9,-1,-2
1532121719575,0,-2,0,1,-18,8,0,-2
1532121719580,2,4,3,11,18,-2,-1,1
1532121719585,-3,0,-3,-3,-1,-10,-2,-2
1532121719590,-2,-3,-5,-6,-2,-7,-2,-2
1532121719595,0,-1,0,1,5,-3,1,0
1532121719600,-3,-1,-1,0,-3,12,0,-3
1532121719605,7,2,1,-1,-10,9,1,3
1532121719610,-6,2,2,4,4,12,-1,-2
1532121719615,2,0,-2,-3,-1,11,0,-6
1532121719620,1,0,-2,-2,-4,12,0,7
1532121719625,-5,-4,-3,0,1,5,-4,-3
1532121719630,3,-1,0,1,1,9,0,0
1532121719635,0,-1,-2,-3,-5,5,-2,0
1532121719640,5,5,1,-2,5,2,1,0
1532121719645,-6,3,-4,-3,4,5,-1,-4
1532121719650,-1,-13,1,4,-7,-1,-2,2
1532121719655,-2,6,-1,-1,1,-1,0,-1
1532121719660,3,-9,-4,-10,-13,-10,-1,-3
1532121719665,0,3,1,2,5,7,0,2
1532121719670,-6,2,1,2,42,6,-1,-5
1532121719675,0,-6,-3,3,-10,1,-2,-1
1532121719680,-3,3,1,-4,-24,0,0,-3
1532121719685,3,0,-2,-8,-9,11,1,0
1532121719690,1,-3,-1,11,17,5,-1,4
1532121719695,-2,0,1,-7,-21,0,-2,-1
1532121719700,1,0,-1,1,12,4,2,2
1532121719705,-7,5,2,-1,-41,-22,-3,-6
1532121719710,-2,-7,-2,-2,13,16,1,-7
1532121719715,-4,-3,-5,-5,-12,-2,-2,10
1532121719720,1,7,5,4,3,13,-2,1
1532121719725,4,5,2,1,2,0,3,1
1532121719730,-3,-6,-6,-4,-11,4,-3,6
1532121719735,-1,2,2,-1,5,6,1,-4
1532121719740,-3,-7,-4,-4,-2,13,0,-3
1532121719745,-2,6,3,-4,17,3,0,1
1532121719750,0,6,0,1,-13,-14,-1,-4
1532121719755,3,-1,1,8,15,-4,0,1
1532121719760,-4,5,-1,2,0,-20,-3,0
1532121719765,-2,-7,-5,-5,-17,-7,-2,-5
1532121719770,2,2,2,-1,6,-11,1,-1
1532121719775,-3,-2,-3,-9,-37,-5,-3,-3
1532121719780,-2,-1,2,15,49,-4,-1,2
1532121719785,5,-5,-1,1,-3,-3,0,0
1532121719790,-4,-3,-4,-3,0,0,0,-1
1532121719795,4,2,0,-4,24,-4,2,3
1532121719800,-6,-3,-3,-8,-23,0,-2,-7
1532121719805,-9,-6,-1,8,19,5,1,0
1532121719810,6,6,5,3,-2,-1,-4,1
1532121719815,-2,0,-3,-1,3,-6,0,-3
1532121719820,-1,-4,-2,-6,-13,-4,2,1
1532121719825,1,-6,-2,4,12,-8,-2,2
1532121719830,-2,1,-3,-7,-16,-6,1,-3
1532121719835,0,0,0,0,0,-6,-1,-4
1532121719840,4,-9,-5,1,3,-7,-2,1
1532121719845,-9,0,-2,-1,-9,-9,-2,0
1532121719850,0,2,-1,-2,-4,-8,0,-6
1532121719855,8,-2,2,3,17,8,-3,3
1532121719860,-8,0,-1,-1,-10,-15,0,-7
1532121719865,-3,-4,-4,-6,-1,-3,-4,-4
1532121719870,0,-3,-4,-4,-10,-5,1,1
1532121719875,-1,1,2,-2,16,-7,1,-1
1532121719880,3,1,0,2,5,-1,-2,0
1532121719885,5,0,3,2,9,4,1,-1
1532121719890,-3,5,2,5,-3,-9,-1,1
1532121719895,-2,1,-2,-1,5,4,1,-4
1532121719900,0,-2,-2,-7,-8,2,-2,-2
1532121719905,-2,-3,-2,-5,0,-5,-2,-3
1532121719910,3,4,2,2,5,-5,-2,-1
1532121719915,-2,-2,0,-2,5,-1,1,-1
1532121719920,-5,-2,-2,1,-21,-2,-2,-3
1532121719925,2,0,-1,-5,-12,5,-1,1
1532121719930,2,-2,2,5,20,7,0,2
1532121719935,2,0,-1,1,-5,3,-2,0
1532121719940,-7,0,0,-1,5,-1,-1,-3
1532121719945,2,1,-2,0,2,4,0,-1
1532121719950,-1,-1,-3,-9,-38,3,-1,-3
1532121719955,-1,-1,0,13,39,-3,-3,2
1532121719960,1,3,-2,-3,1,2,-1,-3
1532121719965,2,2,3,-1,-6,3,2,0
1532121719970,-1,-1,0,-4,-15,0,1,0
1532121719975,-2,-3,0,4,11,-3,1,-1
1532121719980,0,-1,0,-5,-16,4,1,1
1532121719985,1,-2,-2,5,25,6,-2,-3
1532121719990,-5,-5,-4,-3,-12,-1,-3,-1
1532121719995,0,-7,2,-1,-15,-1,0,-1
1532121720000,0,2,-2,-3,-7,-2,1,0
1532121720005,-2,0,-1,-10,-18,6,-1,-1
1532121720010,2,-1,1,12,37,-1,-3,-1
1532121720015,-4,-6,-5,-6,-21,3,0,-4
1532121720020,-2,-4,-1,1,13,3,0,-1
1532121720025,1,-1,0,-1,-12,-7,1,0
1532121720030,3,0,-3,-6,-2,1,2,1
1532121720035,-10,1,-1,0,-5,1,0,-4
1532121720040,4,0,1,-5,3,7,-1,3
1532121720045,-2,1,-1,-2,-2,-5,0,-1
1532121720050,-2,-3,0,4,5,3,-3,-5
1532121720055,2,2,0,-5,-9,-3,1,0
1532121720060,-1,1,-2,-3,-2,1,-1,0
1532121720065,-1,-1,-2,0,10,-6,-1,-1
1532121720070,0,1,-2,-1,-9,-1,1,-2
1532121720075,3,1,0,-4,2,6,0,4
1532121720080,-9,-1,0,3,-6,-1,-4,-10
1532121720085,7,0,1,1,19,3,-1,3
1532121720090,-4,-3,-6,-7,-39,-6,0,-1
1532121720095,7,2,0,-2,19,2,-1,3
1532121720100,-4,0,2,3,2,2,1,2
1532121720105,-2,0,1,1,-1,4,-2,-2
1532121720110,2,2,3,-6,-4,-9,0,1
1532121720115,-3,0,-1,-1,-8,2,0,0
1532121720120,3,1,1,2,0,-3,0,0
1532121720125,-3,-1,-1,-2,3,3,0,-2
1532121720130,3,0,-1,-6,-4,-1,-5,0
1532121720135,-2,1,0,8,19,-6,-1,-3
1532121720140,0,-2,-1,-1,-5,-2,-1,-2
1532121720145,-2,-1,0,5,-6,-4,0,2
1532121720150,-1,-2,-1,-2,4,2,0,0
1532121720155,-1,-1,-2,-9,-34,-2,-1,-1
1532121720160,-1,0,0,8,40,4,-1,0
1532121720165,-1,-2,-2,1,-1,1,-1,1
1532121720170,1,2,0,-2,1,-1,2,4
1532121720175,-3,1,-3,4,6,-2,-3,-6
1532121720180,4,-1,-1,-1,-15,-6,0,-3
1532121720185,-4,-2,0,-2,-6,-1,1,4
1532121720190,-2,0,0,2,15,1,-1,-1
1532121720195,1,1,-2,-7,-2,0,-1,2
1532121720200,2,-1,-4,-2,-32,-6,0,1
1532121720205,-1,3,1,9,26,-12,-2,-2
1532121720210,-1,-1,-2,-4,-5,-1,0,-2
1532121720215,-1,1,0,-2,0,-10,-1,0
1532121720220,-1,1,-1,-6,-7,-6,0,2
1532121720225,-1,0,-1,-5,-21,1,-4,-5
1532121720230,0,0,2,8,20,-6,-1,1
1532121720235,-1,-2,-2,-2,-13,-8,0,3
1532121720240,1,0,1,2,13,-10,-2,-26
1532121720245,0,-3,-3,-5,-14,-7,0,5
1532121720250,2,0,-2,-6,-3,-3,-2,3
1532121720255,-6,-3,-1,5,-1,-10,-4,-10
1532121720260,-6,-4,0,-1,6,6,1,-3
1532121720265,3,1,1,2,-11,-13,2,6
1532121720270,-3,-2,-6,-12,-16,2,0,-3
1532121720275,4,0,1,6,7,2,0,3
1532121720280,2,2,-1,-3,5,3,-1,5
1532121720285,-2,-2,0,-1,11,4,0,-6
1532121720290,4,1,0,-3,-15,-2,-1,12
1532121720295,-3,-2,-3,-3,-13,0,-1,-15
1532121720300,-4,-2,-2,2,8,0,-6,-1
1532121720305,8,1,2,-2,2,7,1,2
1532121720310,-12,1,-1,1,-3,0,1,-6
1532121720315,8,-1,2,0,24,6,1,3
1532121720320,-3,-1,-2,-2,-26,-5,0,4
1532121720325,-7,-2,-1,0,3,0,-2,-7
1532121720330,5,-1,-2,-8,-39,7,2,0
1532121720335,-5,-1,1,9,59,8,-1,4
1532121720340,4,1,3,-2,0,0,2,5
1532121720345,-2,-2,-5,-11,-13,6,-2,-6
1532121720350,-1,0,0,9,11,-17,-3,-6
1532121720355,-2,-2,-4,-8,-17,7,0,0
1532121720360,-1,-2,0,-1,-1,4,1,4
1532121720365,-2,-1,1,6,14,2,1,-4
1532121720370,-1,0,1,-1,-1,4,-1,-6
1532121720375,-2,-7,-3,-8,-16,2,-1,-1
1532121720380,-1,-10,-6,-2,-8,-3,-1,1
1532121720385,-2,0,-2,1,-11,-1,1,-3
1532121720390,0,4,-1,2,27,11,0,2
1532121720395,1,8,4,-2,-14,-9,-4,2
1532121720400,-7,1,-2,-1,-9,6,-3,-3
1532121720405,1,-1,-2,-5,25,-4,-2,1
1532121720410,-1,0,0,4,-14,6,-1,2
1532121720415,-3,0,-3,-5,-2,-11,1,-3
1532121720420,3,2,-1,-2,9,0,0,1
1532121720425,-1,-1,-1,-4,-18,3,-1,-2
1532121720430,3,-2,-1,-2,12,4,0,-3
1532121720435,-4,-3,0,0,-10,2,-2,0
1532121720440,0,2,1,0,-3,-10,-2,-1
1532121720445,2,1,0,5,20,4,0,-1
1532121720450,-1,-4,-2,-7,-8,-9,-1,-1
1532121720455,1,-3,-1,-3,-11,-1,2,-2
1532121720460,2,1,0,2,12,0,1,7
1532121720465,-3,1,0,0,-16,-2,-3,1
1532121720470,3,-2,-3,3,10,-3,-2,-2
1532121720475,-8,1,-3,-1,-4,-13,0,-4
1532121720480,1,0,1,-3,5,0,1,-2
1532121720485,-1,2,0,-4,-6,-4,0,0
1532121720490,0,-1,3,1,8,-1,0,0
1532121720495,1,-1,-5,2,-11,0,-1,1
1532121720500,-1,0,0,-4,2,4,0,-1
1532121720505,1,0,0,0,-1,12,0,1
1532121720510,1,2,0,0,-9,0,-3,-3
1532121720515,1,-1,0,0,-9,-8,1,0
1532121720520,-3,0,1,3,9,3,-1,-3
1532121720525,-1,2,1,-3,-17,-2,-2,0
1532121720530,0,-1,-3,-1,9,1,-1,-3
1532121720535,2,-2,-3,-3,1,-1,-3,1
1532121720540,-8,-6,-1,-4,9,-6,1,-6
1532121720545,6,0,0,1,-11,13,-1,5
1532121720550,-7,-1,0,0,7,-22,-1,-7
1532121720555,2,1,1,2,0,-2,-2,0
1532121720560,-2,-2,-4,-5,-2,-1,0,1
1532121720565,-1,-2,-2,-3,-15,-7,-2,-1
1532121720570,2,0,3,0,14,8,0,2
1532121720575,-2,0,-4,-3,1,-5,0,-4
1532121720580,1,0,0,1,10,0,-2,-1
1532121720585,-3,1,-1,-4,-32,-13,-1,-1
1532121720590,1,0,3,8,29,-5,-1,1
1532121720595,-3,-2,-5,-5,-5,-2,-2,-1
1532121720600,-1,1,0,0,-5,-12,-1,0
1532121720605,-1,1,0,5,27,5,1,-1
1532121720610,-1,-3,-4,-8,-19,-5,-1,-1
1532121720615,-1,1,3,0,7,0,0,1
1532121720620,-1,0,1,5,-1,-3,-2,-1
1532121720625,-1,-3,-1,-3,16,-6,0,-4
1532121720630,-1,-2,1,-4,-16,-5,-2,1
1532121720635,0,-2,0,3,7,-2,-1,0
1532121720640,5,-1,-1,-4,-7,0,0,-1
1532121720645,-7,-1,2,1,6,-2,1,-1
1532121720650,1,3,-1,-4,-9,6,0,3
1532121720655,-1,1,0,4,5,-8,-1,-5
1532121720660,0,0,-2,-1,-8,-6,-3,0
1532121720665,1,-2,-1,0,6,3,-1,0
1532121720670,0,0,-2,-1,-7,4,-1,-1
1532121720675,0,-2,-1,-5,-10,9,1,-1
1532121720680,-1,-1,0,5,1,4,-2,1
1532121720685,0,-1,2,-5,6,10,-1,0
1532121720690,-1,-2,-3,0,-22,-3,-1,-1
1532121720695,-2,-2,-1,5,1,3,-2,0
1532121720700,-2,0,0,0,6,2,-1,-2
1532121720705,0,0,-2,0,-2,-2,-2,-1
1532121720710,1,0,0,0,0,8,2,0
1532121720715,0,0,0,1,0,4,-3,-5
1532121720720,0,-2,-2,-4,-16,-2,3,6
1532121720725,2,2,0,-1,-3,5,0,2
1532121720730,-2,-2,-1,5,14,5,-2,-5
1532121720735,-4,-3,-1,-4,4,3,1,-1
1532121720740,-3,2,1,2,-8,1,-1,-2
1532121720745,0,0,-1,-2,-6,2,0,-1
1532121720750,0,-2,-1,-4,-24,-5,2,1
1532121720755,-1,-2,-1,1,36,6,-2,-2
1532121720760,2,-2,-3,-6,-5,2,-2,-1
1532121720765,-7,-2,-2,-5,-25,5,-2,-3
1532121720770,0,-1,2,5,38,5,-2,-1
1532121720775,-2,0,-1,-2,-34,-4,1,1
1532121720780,-1,-3,-4,4,10,4,-3,-2
1532121720785,2,1,0,3,7,-5,-1,0
1532121720790,-2,-2,-2,-9,-7,-2,-1,0
1532121720795,4,0,0,-3,-12,2,0,1
1532121720800,-8,0,1,1,11,5,1,-4
1532121720805,1,-4,-5,-5,-7,-2,-2,4
1532121720810,-2,-2,0,-1,-9,3,0,-3
1532121720815,0,0,0,1,5,-6,-1,-1
1532121720820,-1,0,-1,-6,-11,-6,-2,-1
1532121720825,-2,-2,1,10,21,-9,0,-4
1532121720830,0,-1,-3,-1,-2,-3,1,-1
1532121720835,-2,-2,-3,1,-2,2,-1,2
1532121720840,-1,2,-1,-6,-3,-3,1,-3
1532121720845,-2,3,-2,1,-2,-14,-1,-3
1532121720850,2,3,2,1,8,-5,0,5
1532121720855,-1,0,-3,-7,-20,4,0,0
1532121720860,3,0,-3,-2,14,-6,-1,0
1532121720865,-6,-4,-3,0,-20,5,-1,-4
1532121720870,1,-1,-1,2,16,6,-2,-2
1532121720875,-3,-3,1,4,1,8,0,-2
1532121720880,5,6,3,-1,-4,6,-1,2
1532121720885,1,-1,2,-1,3,1,-2,0
1532121720890,-5,-4,-6,-1,29,3,-4,-6
1532121720895,-2,-4,-3,-6,-28,1,-4,3
1532121720900,-1,-2,1,0,1,3,-1,-10
1532121720905,5,5,3,-3,5,7,-1,5
1532121720910,6,6,3,2,-9,-2,3,4
1532121720915,-6,-8,-3,-2,9,-6,-2,-7
1532121720920,-2,-3,-2,-1,-2,2,-3,-1
1532121720925,-1,-1,-2,-1,2,-4,-1,-2
1532121720930,0,1,-4,-4,-15,-1,-1,-2
1532121720935,-1,1,-1,0,12,-1,1,0
1532121720940,-2,-1,1,-2,3,-5,0,-1
1532121720945,-1,-4,-1,0,-10,-5,-1,-4
1532121720950,0,1,-3,-6,-27,-10,0,3
1532121720955,2,8,4,12,31,-7,-2,0
1532121720960,-2,-1,1,-2,-11,-9,-1,2
1532121720965,-2,-7,-5,-1,18,-8,-1,-2
1532121720970,-3,-3,1,-3,-4,-15,-1,-3
1532121720975,7,5,-1,-3,-6,-10,1,3
1532121720980,-8,-8,-1,-5,-6,-1,0,-8
1532121720985,0,3,-1,3,-17,-1,-1,3
1532121720990,-2,-3,2,4,41,-4,-3,-2
1532121720995,-1,1,-2,-10,-14,-8,1,0
1532121721000,7,2,1,6,9,3,1,4
1532121721005,-7,-2,-3,-5,2,-2,-1,-4
1532121721010,1,4,2,-4,-23,-2,-1,3
1532121721015,1,-1,-3,1,6,3,0,-2
1532121721020,0,5,-4,3,1,-4,-1,1
1532121721025,1,-3,1,-5,-9,6,0,0
1532121721030,2,-1,4,7,4,-2,-4,-1
1532121721035,-8,-6,1,-1,-11,1,-2,-4
1532121721040,-1,-1,-6,-4,-12,3,0,1
1532121721045,0,1,1,1,2,7,-1,1
1532121721050,-1,-3,-4,-2,29,5,-1,0
1532121721055,3,4,1,2,-13,0,2,-2
1532121721060,-2,-4,-1,-3,1,0,-1,0
1532121721065,0,-1,-1,-4,17,-4,3,-3
1532121721070,-1,1,0,-1,-34,1,1,-3
1532121721075,-2,-5,-1,-8,-5,6,-2,-3
1532121721080,-1,0,1,11,31,6,-2,2
1532121721085,1,2,-2,-10,-20,-8,-1,1
1532121721090,-2,0,-1,2,-5,9,1,-2
1532121721095,-2,-1,-1,-1,-8,-11,0,0
1532121721100,0,-2,3,-2,-11,8,-1,-1
1532121721105,0,1,0,6,25,-3,0,-1
1532121721110,-4,-1,0,-5,-6,2,-4,-1
1532121721115,0,-1,0,1,-4,-8,-4,0
1532121721120,0,0,-2,0,-4,-5,0,-2
1532121721125,-1,-1,-1,0,1,4,-1,-1
1532121721130,-2,0,-3,-6,-23,-1,0,-2
1532121721135,1,1,1,-1,8,9,-1,1
1532121721140,0,1,2,-4,-14,-3,0,-2
1532121721145,0,-1,-1,-1,12,-4,-2,-1
1532121721150,0,-1,-3,0,4,1,1,-2
1532121721155,1,0,2,0,0,0,0,-1
1532121721160,-2,-3,-4,0,-6,0,-1,0
1532121721165,-1,-4,-1,-7,-30,3,-2,-3
1532121721170,0,0,-3,5,36,1,0,-1
1532121721175,-1,1,1,0,4,2,-1,0
1532121721180,0,0,0,-3,-5,-5,1,0
1532121721185,-1,-2,-4,-7,-19,4,2,-1
1532121721190,-1,1,-1,5,-7,-4,-1,1
1532121721195,1,1,-3,2,5,8,1,-1
1532121721200,-1,0,1,0,7,-1,-1,-1
1532121721205,0,1,1,-2,1,8,1,-1
1532121721210,-3,-1,-1,-2,-10,8,-2,0
1532121721215,-3,-1,-1,0,8,-7,-1,-1
1532121721220,-1,-1,2,-1,-2,0,1,0
1532121721225,6,1,-3,6,7,0,-1,4
1532121721230,-8,3,-3,-9,-36,-2,-1,-6
1532121721235,-4,1,1,5,45,8,-2,0
1532121721240,1,-2,-2,-3,-6,4,-1,-1
1532121721245,-1,1,0,-3,-17,-4,-2,-2
1532121721250,5,-2,3,4,38,4,0,1
1532121721255,0,-2,-2,-3,-14,0,0,-2
1532121721260,-2,0,-1,-1,-24,-3,0,-2
1532121721265,1,1,-1,2,15,1,1,1
1532121721270,1,-2,-2,-4,-16,-5,0,-1
1532121721275,0,-2,-3,-6,-3,-8,2,-1
1532121721280,0,0,-1,-1,13,-4,0,1
1532121721285,-2,0,1,4,13,-2,-1,-1
1532121721290,-1,-2,0,-2,-12,-5,-1,1
1532121721295,-1,-1,2,2,-2,-1,-3,0
1532121721300,1,-1,-2,-2,-2,1,0,0
1532121721305,-2,0,-2,-4,-14,-3,1,-4
1532121721310,0,-1,0,0,21,-12,2,0
1532121721315,2,0,0,4,-3,3,0,-1
1532121721320,-2,1,-1,1,-15,-6,-5,0
1532121721325,-2,1,2,6,2,-7,-2,-2
1532121721330,1,-1,-1,-2,-11,-14,1,0
1532121721335,-1,-3,-4,-8,-9,-11,0,0
1532121721340,0,1,-1,0,0,-11,-1,-3
1532121721345,0,1,2,-1,2,-7,0,-1
1532121721350,-1,-1,-1,-1,-3,-1,-2,0
1532121721355,-2,-1,-1,-2,-12,-11,-1,0
1532121721360,-2,-2,-2,-1,10,-6,-2,-3
1532121721365,0,-2,-1,-1,8,-8,0,-1
1532121721370,-2,-1,0,6,3,-8,-3,1
1532121721375,-2,-1,-1,-7,-25,-7,-1,-2
1532121721380,6,-2,-2,9,28,1,-1,4
1532121721385,0,-1,0,-3,-10,-6,0,-5
1532121721390,-10,-2,-1,-1,4,3,5,4
1532121721395,4,-2,-2,0,5,12,-3,2
1532121721400,0,-1,0,-4,-16,-5,1,2
1532121721405,1,0,-1,1,6,3,0,0
1532121721410,3,0,-2,-2,-13,0,-1,-1
1532121721415,-3,0,-1,3,15,-1,-2,-3
1532121721420,-2,-1,-2,-8,-41,4,-1,-3
1532121721425,-1,1,2,10,50,-4,-4,1
1532121721430,0,1,-1,2,8,7,-2,-3
1532121721435,-3,0,-1,-2,-9,2,1,0
1532121721440,1,-3,0,1,9,-2,-2,-3
1532121721445,-3,-1,-2,-8,-28,6,0,-2
1532121721450,1,0,1,-1,7,8,-3,0
1532121721455,-1,-2,-2,1,-9,2,-1,-3
1532121721460,-2,1,-1,-5,-6,3,0,1
1532121721465,-2,-3,-2,-3,-3,-1,-1,-3
1532121721470,5,0,-3,-5,-5,-2,-2,-1
1532121721475,0,-1,3,4,10,0,-1,1
1532121721480,-3,0,1,7,13,4,-2,-4
1532121721485,0,-1,-3,-8,-24,1,1,0
1532121721490,-1,1,0,3,15,1,0,-1
1532121721495,0,0,-2,-1,-9,-1,0,-2
1532121721500,-4,1,1,-2,6,2,1,0
1532121721505,-6,-1,-1,-3,-10,4,-2,-4
1532121721510,0,0,1,9,2,-2,-1,1
1532121721515,-1,2,1,-3,2,4,1,-2
1532121721520,6,-3,-2,-2,15,2,0,3
1532121721525,-10,-2,-4,0,-1,3,-1,-7
1532121721530,1,0,-2,-10,-20,2,1,7
1532121721535,1,-1,3,3,8,-3,-1,3
1532121721540,-2,-2,-5,-4,-6,-2,-1,-3
1532121721545,-4,0,1,-1,5,4,2,-3
1532121721550,8,-1,0,3,-3,2,-2,14
1532121721555,1,-1,-2,-2,-8,3,1,9
1532121721560,-1,1,1,1,0,2,0,-8
1532121721565,1,1,0,2,11,1,-4,-1
1532121721570,-4,-2,-2,-4,-10,7,0,-10
1532121721575,2,-1,-3,0,-5,0,0,-1
1532121721580,-8,-2,0,-1,8,-3,-3,-1
1532121721585,2,0,-3,-2,2,3,3,5
1532121721590,-1,-3,-2,-1,-11,-4,-6,-4
1532121721595,2,-1,-4,-11,-27,-14,-2,0
1532121721600,-2,-2,-1,12,40,-5,-3,-1
1532121721605,4,6,2,3,-4,-1,1,4
1532121721610,-2,-1,-3,-4,1,1,3,-7
1532121721615,-2,3,4,-2,14,2,4,-2
1532121721620,0,-1,-1,-7,-32,-4,0,0
1532121721625,2,-3,1,1,1,-7,0,1
1532121721630,-2,-2,-1,-2,2,8,0,-2
1532121721635,-3,-1,0,2,0,3,-2,-6
1532121721640,1,0,-4,-4,3,3,0,1
1532121721645,1,2,0,0,3,-2,-2,4
1532121721650,-10,-2,-1,-3,-7,-2,0,-8
1532121721655,-1,2,0,-5,8,3,0,-1
1532121721660,-3,-7,-1,11,16,-5,0,-7
1532121721665,-1,-2,-4,-3,-8,-4,-4,4
1532121721670,-1,0,-1,-6,-3,2,-1,0
1532121721675,-1,7,1,3,5,-3,-2,-3
1532121721680,2,1,5,-2,9,6,1,3
1532121721685,-2,-3,-4,-1,-21,-13,0,-2
1532121721690,-1,-2,-2,-1,5,-11,-2,-3
1532121721695,-3,-3,-1,0,9,-6,2,2
1532121721700,0,5,0,-3,-10,-2,0,0
1532121721705,2,-2,1,2,7,-1,-2,-3
1532121721710,2,2,1,-3,-10,-16,3,0
1532121721715,-3,-3,-4,-4,-21,-16,-1,-4
1532121721720,1,1,0,9,13,-11,0,1
1532121721725,0,-2,0,-1,1,-3,-1,-1
1532121721730,0,1,-1,-1,0,-4,1,1
1532121721735,1,0,1,3,-3,-7,-2,-2
1532121721740,-2,-1,-2,-5,-8,-8,0,-1
1532121721745,5,-3,-2,0,0,-3,-1,-1
1532121721750,-6,0,1,2,5,-1,-2,-3
1532121721755,0,-1,0,1,7,4,-1,-1
1532121721760,-1,-1,0,-7,-24,-10,-2,-1
1532121721765,0,2,1,2,19,5,-1,0
1532121721770,2,-5,-3,-4,-4,1,2,1
1532121721775,-5,-3,-2,2,9,3,-1,-2
1532121721780,-1,-1,1,-3,2,3,-5,-3
1532121721785,-3,-2,0,2,-6,-2,-1,-2
1532121721790,-2,-1,-1,-1,-8,-4,-2,-9
1532121721795,1,-2,-3,-9,-25,19,0,5
1532121721800,1,2,1,11,28,3,0,2
1532121721805,-2,-1,-1,-6,0,2,-1,-3
1532121721810,1,1,-1,-1,6,1,-1,0
1532121721815,-2,-3,-4,5,-5,2,0,-2
1532121721820,-1,0,-2,-9,-11,2,-1,1
1532121721825,-1,-1,0,-1,3,8,0,-3
1532121721830,1,2,2,3,-8,-4,2,1
1532121721835,-1,-1,-1,2,16,0,-1,-3
1532121721840,0,1,-1,-1,-6,2,1,0
1532121721845,-1,-2,-2,0,3,-3,-2,0
1532121721850,1,-3,-1,-5,-3,6,-1,0
1532121721855,-1,1,0,-3,-2,-6,-1,-3
1532121721860,6,1,-1,1,4,7,-1,2
1532121721865,-3,3,-1,-4,-9,2,1,1
1532121721870,-2,-3,-2,4,-1,0,-2,-3
1532121721875,-1,-3,-3,-5,-10,-1,1,-3
1532121721880,-1,0,1,4,13,0,-1,0
1532121721885,2,-1,0,-1,-1,-3,1,0
1532121721890,-1,1,-2,-5,-1,1,-4,0
1532121721895,2,0,1,5,17,4,-3,1
1532121721900,-6,-2,-2,-5,-18,-4,0,-4
1532121721905,-2,1,-3,-6,-9,1,-1,-2
1532121721910,-1,0,-1,4,9,10,1,0
1532121721915,-2,-1,-2,0,7,-2,-5,-6
1532121721920,1,0,-1,-6,-5,1,0,-3
1532121721925,1,-1,1,-1,-5,-1,-1,2
1532121721930,-3,0,-3,-12,19,2,-1,-4
1532121721935,-1,0,2,18,2,-5,-1,0
1532121721940,-3,-1,-5,-5,-5,4,0,0
1532121721945,-2,1,0,-1,0,1,0,-3
1532121721950,3,-2,-1,-1,-7,-5,-1,1
1532121721955,0,1,-1,-6,-4,0,0,1
1532121721960,-3,-1,-4,-5,-3,-2,-1,-2
1532121721965,2,-1,0,4,9,2,-1,0
1532121721970,-1,2,0,2,-14,-2,-1,-3
1532121721975,-2,-2,1,-4,3,0,0,-2
1532121721980,-1,-1,-1,-4,-12,5,-1,0
1532121721985,6,0,0,3,9,-15,-2,2
1532121721990,-5,0,0,2,10,3,0,-2
1532121721995,1,-2,-2,4,-10,-7,-2,0
1532121722000,-2,-1,1,-4,-8,6,1,-1
1532121722005,-3,-2,-3,-4,-7,3,-2,-3
1532121722010,3,1,1,6,17,-9,0,1
1532121722015,0,1,-1,-4,-4,-2,2,-1
1532121722020,0,-2,-2,0,-2,-4,0,-1
1532121722025,-1,1,-1,-1,1,2,-2,0
1532121722030,-2,-1,-1,-1,-5,1,-2,0
1532121722035,1,1,-1,-6,-9,1,1,-1
1532121722040,0,-1,-1,5,11,1,2,0
1532121722045,-3,-2,1,-5,-10,2,0,-4
1532121722050,0,0,-2,6,24,-1,-1,0
1532121722055,-1,0,0,-6,-27,-5,-2,0
1532121722060,1,5,1,0,-6,-7,-2,1
1532121722065,-7,-5,-1,2,4,-6,0,-5
1532121722070,1,-2,0,-3,-8,-9,-2,0
1532121722075,0,-2,-5,-3,7,-4,0,1
1532121722080,-6,-2,-2,0,-2,-11,-1,-5
1532121722085,2,2,-1,-6,-15,-5,0,1
1532121722090,-2,-1,1,3,8,-6,1,1
1532121722095,-1,-1,0,3,9,-12,-1,-1
1532121722100,1,-1,-2,-5,12,-8,1,0
1532121722105,0,-1,-1,0,-18,-10,2,4
1532121722110,1,-1,0,-3,-14,-7,-4,-5
1532121722115,-1,0,-3,-1,6,-4,-1,-1
1532121722120,1,-1,2,2,2,-12,-3,-2
1532121722125,-2,-5,-4,-4,9,-1,0,3
1532121722130,-2,4,1,-2,-6,-7,-1,2
1532121722135,5,-3,-3,-1,1,2,2,2
1532121722140,-12,-2,0,-1,-12,-3,-2,-5
1532121722145,1,2,0,1,-9,-4,0,-3
1532121722150,-1,-2,-1,4,13,10,-2,4
1532121722155,-2,0,-1,-1,-1,-5,-2,1
1532121722160,6,-1,-1,-1,-3,3,0,7
1532121722165,-1,-1,-2,-1,3,7,-1,-4
1532121722170,-2,0,-2,-5,-1,5,1,-1
1532121722175,-3,0,0,3,-4,-2,-5,-3
1532121722180,1,0,-1,5,-2,1,-1,-1
1532121722185,-3,0,-2,-2,0,2,0,-2
1532121722190,5,0,-1,-2,-2,4,2,8
1532121722195,-10,-2,-1,-2,4,10,-1,-18
1532121722200,1,-2,-2,-6,-9,0,-2,1
1532121722205,4,1,1,6,22,5,-3,-2
1532121722210,0,-1,0,0,-12,0,2,6
1532121722215,-5,2,1,-6,-12,-4,-2,-3
1532121722220,0,-2,-2,3,5,4,-1,-1
1532121722225,-2,0,1,1,0,0,-1,-3
1532121722230,1,-1,1,-3,-5,-9,0,-5
1532121722235,1,2,1,-1,-15,2,-1,3
1532121722240,-1,1,2,2,1,0,3,-2
1532121722245,-3,-2,-1,-1,1,1,0,2
1532121722250,1,0,2,-3,-10,0,-2,0
1532121722255,-2,-3,0,-2,14,-2,2,2
1532121722260,0,-2,0,-3,-5,0,-2,-3
1532121722265,0,1,0,-1,0,-3,0,2
1532121722270,-5,-2,-4,-10,-36,7,-1,-7
1532121722275,2,-3,1,19,48,-2,0,2
1532121722280,3,5,1,-1,3,-2,0,3
1532121722285,-6,-3,-2,-10,-36,0,1,-7
1532121722290,0,-2,-1,12,38,-5,-4,1
1532121722295,-1,0,-1,-8,6,6,0,-6
1532121722300,0,-2,-3,-3,-17,2,1,5
1532121722305,1,3,-2,3,0,-2,-2,0
1532121722310,1,0,1,-2,-1,3,1,-1
1532121722315,-1,-1,-3,-4,-4,-7,-2,1
1532121722320,-3,1,-1,-4,12,-4,-1,-4
1532121722325,-2,-4,-3,-2,-24,1,2,3
1532121722330,-1,-1,-2,-6,-21,-2,-2,-8
1532121722335,-6,-1,1,9,16,-2,-3,1
1532121722340,1,1,0,1,3,-2,0,0
1532121722345,-3,-2,-4,-11,-5,5,-1,0
1532121722350,2,1,0,5,1,-6,-1,6
1532121722355,1,0,-1,-3,-1,-2,1,-15
1532121722360,-2,0,-1,-1,-4,-1,-2,-2
1532121722365,0,-5,-2,-4,-5,-2,1,2
1532121722370,-2,-1,-2,-2,4,-3,-6,3
1532121722375,4,3,0,-3,-5,1,-1,2
1532121722380,-2,-2,-2,1,-4,-3,1,-2
1532121722385,-2,0,0,0,23,3,-2,-1
1532121722390,-1,-1,-2,0,-12,-1,-2,-4
1532121722395,0,1,1,1,1,2,0,5
1532121722400,-3,0,-2,-6,-7,-3,1,-4
1532121722405,-5,0,0,0,-1,-6,-4,0
1532121722410,-2,-3,-4,-3,3,-8,1,-1
1532121722415,-1,-2,-1,-2,9,-1,-1,2
1532121722420,8,1,0,-2,-14,-5,2,5
1532121722425,-9,3,2,2,6,-2,1,-6
1532121722430,2,-3,-1,0,3,-5,-3,-5
1532121722435,3,0,-2,-3,-15,-6,-2,5
1532121722440,-2,-2,-1,3,30,-1,0,-3
1532121722445,2,2,-3,1,-25,-8,-2,0
1532121722450,-2,1,-2,-1,-15,2,2,-1
1532121722455,-3,-2,-4,-3,27,-7,0,1
1532121722460,-1,0,0,0,-6,-4,-2,-1
1532121722465,2,0,-2,1,-5,-3,0,3
1532121722470,2,-2,2,9,27,-4,-1,0
1532121722475,-7,-2,-2,-6,-16,0,-2,-8
1532121722480,-3,-1,-3,0,-13,-10,-1,-3
1532121722485,5,0,0,-1,7,6,2,1
1532121722490,-6,-2,-1,-6,-14,-2,-1,-2
1532121722495,3,1,0,0,2,1,1,0
1532121722500,-3,0,0,4,-5,0,-4,-1
1532121722505,1,-1,-2,-3,-9,1,-2,1
1532121722510,0,1,0,-1,6,5,0,1
1532121722515,-1,1,1,3,7,7,-1,0
1532121722520,2,0,0,-4,-3,-5,-2,-1
1532121722525,1,1,-2,-5,-18,1,0,1
1532121722530,0,-5,0,-1,17,4,0,0
1532121722535,0,1,-1,4,-3,-3,-5,-2
1532121722540,-1,0,-1,-2,-5,10,2,1
1532121722545,3,0,0,1,3,2,-1,-1
1532121722550,-1,-1,-3,-2,0,-3,0,1
1532121722555,-7,-2,2,-2,16,1,0,-5
1532121722560,1,0,-1,-1,-29,-6,-2,0
1532121722565,-4,0,1,4,12,1,-2,-1
1532121722570,0,2,0,-1,6,7,2,-16
1532121722575,5,-2,-1,-2,-11,-2,-1,6
1532121722580,-5,-3,-4,-2,13,5,0,-2
1532121722585,-1,-1,-3,-5,-15,-4,0,-2
1532121722590,-1,1,0,7,8,1,-3,1
1532121722595,1,1,0,-1,-3,-1,1,0
1532121722600,-2,0,2,2,14,6,-1,-4
1532121722605,-3,2,-1,-4,-15,-4,0,0
1532121722610,0,-2,-1,-1,2,-1,3,6
1532121722615,-5,-1,-1,0,15,2,-3,-6
1532121722620,1,-2,-2,-3,-27,1,0,4
1532121722625,1,1,0,4,21,-3,-4,-2
1532121722630,-6,-1,-2,-2,6,-1,0,-1
1532121722635,3,1,0,-1,-14,-1,2,4
1532121722640,-1,-2,-2,2,8,4,-1,-4
1532121722645,0,-2,-3,-4,-3,-1,-1,1
1532121722650,2,0,-1,-1,1,4,-1,-1
1532121722655,0,-1,-2,0,-15,-3,0,-1
1532121722660,0,-2,0,2,17,0,-2,-1
1532121722665,-2,-4,-3,-2,-5,0,1,-2
1532121722670,-1,-1,-1,0,-3,-5,-2,0
1532121722675,-1,0,-2,-1,-6,6,0,-2
1532121722680,4,1,1,1,-15,-3,0,4
1532121722685,-7,-2,2,5,20,-5,-1,-2
1532121722690,7,0,-2,-4,-16,2,-4,3
1532121722695,-7,-3,0,-1,-5,3,2,-4
1532121722700,1,4,1,8,25,-4,-2,-3
1532121722705,-3,-3,-1,1,-11,3,1,10
1532121722710,1,0,0,-1,2,-2,0,2
1532121722715,5,0,-1,-4,0,-1,1,1
1532121722720,-2,0,-2,-4,1,-3,2,1
1532121722725,-1,0,1,-6,-12,-4,0,-2
1532121722730,-2,-1,-2,-2,-15,2,-2,-2
1532121722735,5,1,0,7,20,-7,-1,8
1532121722740,-11,-2,2,5,5,2,2,-9
1532121722745,6,-1,-3,5,17,-2,-4,-8
1532121722750,-7,-2,-1,-5,14,-3,3,-2
1532121722755,0,-1,-1,1,-17,3,-5,-5
1532121722760,1,0,-1,-3,35,4,-1,2
1532121722765,-4,-1,0,-4,-28,9,-1,-9
1532121722770,1,-1,-3,-1,-12,-2,-1,12
1532121722775,0,0,0,-3,2,4,1,-1
1532121722780,-2,-1,-4,-11,-32,-8,1,-3
1532121722785,1,-1,0,7,41,0,-2,7
1532121722790,0,-1,0,0,4,9,-1,-8
1532121722795,-3,-3,-2,-2,13,-19,0,-6
1532121722800,2,3,0,0,-34,-9,-2,4
1532121722805,-1,-4,-1,-7,1,-1,-1,-5
1532121722810,3,1,-1,2,-13,-20,-2,0
1532121722815,-4,-1,-3,-2,-1,2,1,1
1532121722820,-4,-2,-2,1,28,-3,-1,-21
1532121722825,-1,2,-3,-8,-37,-14,-5,1
1532121722830,0,-1,1,4,16,1,0,0
1532121722835,-1,-1,0,-6,-7,5,2,-4
1532121722840,-1,0,-4,6,-13,-12,-5,3
1532121722845,1,3,0,-1,-1,-3,4,-1
1532121722850,-3,0,-1,-5,7,-5,-2,-6
1532121722855,-2,0,-1,-8,-15,1,-2,-3
1532121722860,4,-2,2,-1,0,10,-3,1
1532121722865,0,-1,-1,2,-11,-3,0,-3
1532121722870,-2,-1,-1,0,10,2,0,5
1532121722875,5,1,2,1,22,-2,1,2
1532121722880,-2,-2,-3,-2,-16,2,-3,1
1532121722885,-5,-2,0,6,19,0,-2,-4
1532121722890,-2,1,-1,-5,-25,2,0,-6
1532121722895,8,1,-5,-12,-52,-3,2,7
1532121722900,-3,1,2,17,72,21,2,2
1532121722905,-3,-2,-1,-4,-5,7,-2,-5
1532121722910,-4,2,-1,1,5,2,-1,0
1532121722915,-5,-1,-2,3,-1,5,-3,-9
1532121722920,10,-1,0,-12,5,-4,-3,20
1532121722925,-2,0,-2,-2,-26,5,1,3
1532121722930,5,-3,1,4,9,4,-2,3
1532121722935,-2,-1,1,4,1,3,-4,-1
1532121722940,-9,-4,-3,-10,-11,-11,2,-9
1532121722945,4,-1,0,-2,17,3,3,13
1532121722950,0,-2,-1,-3,-16,-11,0,-1
1532121722955,-2,0,0,6,9,-2,0,-17
1532121722960,2,0,0,1,-4,5,0,6
1532121722965,0,-2,0,-9,-6,-8,-2,-2
1532121722970,2,0,-2,4,-12,-3,1,5
1532121722975,-2,3,-2,3,24,-5,-1,0
1532121722980,-3,-7,-3,-2,-33,-2,-1,-11
1532121722985,2,2,2,0,4,3,0,3
1532121722990,10,0,-1,-5,6,1,-1,1
1532121722995,-14,-2,-3,1,3,-4,-3,-4
1532121723000,-5,1,-1,2,10,-2,-2,-6
1532121723005,-2,-2,-3,-4,-15,6,-1,8
1532121723010,3,0,-3,-1,12,7,1,-11
1532121723015,13,0,1,-2,3,4,-4,6
1532121723020,-16,-9,-4,-3,-12,-8,-2,-9
1532121723025,-2,-3,0,3,-14,-5,1,3
1532121723030,0,-1,4,4,10,-6,0,-3
1532121723035,0,-5,-5,-2,9,1,-1,-2
1532121723040,4,3,-1,-4,-21,-5,0,7
1532121723045,0,1,-1,1,4,-8,0,-5
1532121723050,-1,2,-1,-3,-4,-5,-1,-4
1532121723055,-2,4,-1,2,-8,-1,-4,-5
1532121723060,-3,1,1,0,12,1,0,1
1532121723065,0,-3,-2,0,8,-4,-1,-2
1532121723070,2,2,-2,-3,0,-7,-2,1
1532121723075,-5,0,-3,-4,6,11,2,-1
1532121723080,-5,-1,-1,3,-21,1,2,-6
1532121723085,10,2,0,-4,-7,-4,0,4
1532121723090,-4,1,1,4,4,-3,-2,-8
1532121723095,-4,-2,-5,-4,-1,-2,0,-1
1532121723100,3,-3,2,2,32,13,-1,-1
1532121723105,-3,1,-1,-10,-5,-15,-1,1
1532121723110,0,7,-3,-1,-14,-4,-3,-3
1532121723115,0,14,4,0,-10,-11,1,4
1532121723120,0,-4,1,-2,4,-7,-1,-2
1532121723125,0,-2,1,2,8,-2,-1,3
1532121723130,1,-13,-2,-5,12,0,0,1
1532121723135,-8,-5,-1,-1,-21,-7,-2,-9
1532121723140,-2,-6,-1,1,0,-8,1,0
1532121723145,0,-3,0,0,-2,8,-5,-4
1532121723150,-1,-1,0,-1,4,-16,-2,-6
1532121723155,4,-2,0,0,1,-7,1,2
1532121723160,-9,0,-3,1,-13,-8,-2,-4
1532121723165,2,-1,-1,0,10,7,-2,-1
1532121723170,1,1,1,1,-8,-11,0,2
1532121723175,3,-2,-2,-2,-2,3,1,-1
1532121723180,3,3,1,0,13,-14,-1,3
1532121723185,-1,6,1,-6,-19,-16,1,-8
1532121723190,0,-10,-3,5,3,2,-1,8
1532121723195,-3,-3,-1,-3,4,1,-1,-2
1532121723200,-1,1,0,-4,-44,0,-1,-3
1532121723205,0,-1,1,8,26,9,0,4
1532121723210,9,4,4,-5,-8,-6,-1,6
1532121723215,-10,-3,-3,5,26,-3,0,-6
1532121723220,0,5,-5,-12,-1,5,-2,-2
1532121723225,3,1,2,1,-6,-5,3,1
1532121723230,-4,-8,-5,-2,-4,7,0,-5
1532121723235,-1,-2,2,0,19,13,-1,-1
1532121723240,8,18,6,5,7,0,-1,1
1532121723245,-8,-14,-3,-4,-21,0,-1,0
1532121723250,1,0,-3,-5,-7,11,2,1
1532121723255,6,-3,-2,-1,-11,10,-1,0
1532121723260,-8,-8,-2,-2,11,7,-1,-5
1532121723265,0,6,-1,5,8,1,-1,-1
1532121723270,0,2,0,-2,16,9,0,-2
1532121723275,1,0,-2,-3,-39,-12,-3,0
1532121723280,2,-7,-4,-5,-5,-8,-1,5
1532121723285,3,7,1,0,16,3,1,2
1532121723290,-12,-13,-4,-3,-6,0,-3,-7
1532121723295,5,-1,-2,0,1,-2,-2,0
1532121723300,0,-3,0,2,13,10,0,-6
1532121723305,-6,3,-3,-12,-21,-3,-1,6
1532121723310,2,5,5,5,3,-2,-2,3
1532121723315,-2,-7,-6,-4,-9,-2,0,0
1532121723320,8,4,4,14,10,-1,0,3
1532121723325,-5,-2,-2,5,27,11,-2,-6
1532121723330,0,4,0,-3,-7,-2,-1,1
1532121723335,-1,4,3,-3,-5,-4,0,-3
1532121723340,-3,4,-1,-2,-1,3,-2,-5
1532121723345,1,-10,-2,-3,-7,-10,0,3
1532121723350,-1,-1,-4,3,-8,-7,-3,2
1532121723355,-9,-1,1,-1,-9,2,-2,-7
1532121723360,0,4,2,-2,16,2,0,-2
1532121723365,1,8,1,6,3,4,3,3
1532121723370,0,12,0,-7,-11,-7,-3,-6
1532121723375,3,-24,-2,1,-8,1,-2,1
1532121723380,0,-9,0,8,24,-4,-3,-1
1532121723385,3,4,-2,-2,2,-3,-1,-4
1532121723390,-7,1,1,6,3,2,-1,-4
1532121723395,-3,3,0,2,15,2,-3,-8
1532121723400,3,-7,-2,-11,-22,-3,0,8
1532121723405,-3,2,-4,-4,-14,9,-2,-3
1532121723410,0,-15,-2,1,10,-3,-1,0
1532121723415,-4,2,-4,-11,-37,7,2,-3
1532121723420,-1,1,3,21,24,4,-2,3
1532121723425,4,-4,-1,-5,-12,-11,3,-1
1532121723430,2,5,-1,-7,3,-3,-1,1
1532121723435,-5,6,1,2,-5,-10,0,-3
1532121723440,2,-7,-3,-8,-6,3,1,-1
1532121723445,-2,13,-1,-2,-34,4,-2,1
1532121723450,0,-12,-3,-1,4,2,2,1
1532121723455,2,5,0,3,18,-3,0,4
1532121723460,-1,-12,-7,-3,-17,-3,-1,-1
1532121723465,-4,3,1,-1,8,-3,-3,-5
1532121723470,1,6,-1,-2,7,8,0,0
1532121723475,-5,-6,-3,-3,-12,-7,-4,-1
1532121723480,-4,-3,-4,-9,-7,-10,-2,-6
1532121723485,-1,3,2,3,5,-6,0,-1
1532121723490,2,-15,-6,0,-16,-8,0,2
1532121723495,2,2,5,11,25,-8,-3,2
1532121723500,1,1,-1,-4,-30,-12,0,-1
1532121723505,-1,-5,1,-1,7,-10,-2,-1
1532121723510,1,5,0,-5,-6,-9,1,0
1532121723515,-4,1,-2,1,5,-6,0,0
1532121723520,-6,-4,1,0,-15,-14,-1,-2
1532121723525,-2,-6,0,-1,21,-6,-3,-4
1532121723530,-2,7,2,-2,8,-3,-1,1
1532121723535,2,0,-1,2,-16,-15,2,5
1532121723540,1,0,1,0,2,0,-5,-5
1532121723545,3,-4,-4,2,2,-3,4,8
1532121723550,-5,5,3,-2,-7,-5,-2,-4
1532121723555,-2,-5,-7,-5,16,2,-2,-1
1532121723560,0,1,-1,4,-1,-5,2,1
1532121723565,-5,-3,-1,-9,-16,1,-1,-4
1532121723570,2,6,-3,7,8,-2,-1,1
1532121723575,3,3,4,-2,-3,7,0,3
1532121723580,1,-2,-2,4,18,1,-2,1
1532121723585,-1,-3,-1,-4,-9,1,-3,-2
1532121723590,2,6,1,2,-7,-3,2,2
1532121723595,-7,3,2,2,6,2,-2,-6
1532121723600,2,-10,-4,-5,-14,1,1,7
1532121723605,-4,-1,1,1,11,1,-3,-5
1532121723610,-1,-3,0,-1,0,-1,-3,-1
1532121723615,3,-4,-2,-1,1,2,2,-1
1532121723620,3,4,2,-3,7,8,0,-1
1532121723625,0,-4,-1,0,20,4,-1,-1
1532121723630,-1,-3,-1,-2,-31,8,-1,0
1532121723635,-2,0,-2,-7,-7,0,0,-2
1532121723640,-8,-1,0,2,9,3,-1,-3
1532121723645,-1,-1,-3,-4,-10,1,-5,-4
1532121723650,-1,0,-1,-1,11,4,-1,3
1532121723655,3,1,-1,-1,4,0,-1,-2
1532121723660,-1,-1,-3,-4,-3,5,2,-1
1532121723665,5,1,4,1,-26,-5,1,1
1532121723670,-11,1,-3,3,20,1,-2,-8
1532121723675,-1,0,-5,2,-8,-1,-3,2
1532121723680,4,5,3,4,14,2,0,-1
1532121723685,1,17,0,-3,-16,-5,-1,-2
1532121723690,-1,-20,-7,-5,5,2,-1,-3
1532121723695,0,3,3,4,2,3,-1,0
1532121723700,1,-4,-3,-7,-15,6,-2,-2
1532121723705,-1,-2,2,-2,1,3,1,6
1532121723710,1,7,2,-5,-6,-1,-1,-2
1532121723715,-1,-7,-5,2,8,-5,-2,0
1532121723720,2,6,0,-4,-5,-3,0,1
1532121723725,1,-9,-6,3,10,1,1,1
1532121723730,-7,2,0,-2,-18,-1,-2,-3
1532121723735,1,-5,0,-2,5,2,-1,0
1532121723740,-6,-11,-1,-2,-11,-5,0,-4
1532121723745,-1,-9,-4,0,1,7,-2,4
1532121723750,0,-3,-1,-2,0,-7,0,-3
1532121723755,4,14,1,5,-2,-1,-2,1
1532121723760,0,9,-1,-2,-10,3,0,-2
1532121723765,-4,0,0,2,13,4,-1,-4
1532121723770,1,4,-1,-2,-5,6,0,2
1532121723775,-1,-6,0,-5,4,1,-1,0
1532121723780,-3,0,-3,-2,20,-4,0,-3
1532121723785,-2,2,2,1,-20,4,-3,-4
1532121723790,6,5,1,3,33,-10,1,2
1532121723795,-1,0,0,-3,-30,-2,0,-2
1532121723800,2,-9,-1,-2,6,3,-1,-3
1532121723805,-6,0,0,-1,-4,3,0,0
1532121723810,-3,-2,-3,0,6,8,0,-2
1532121723815,3,14,0,-7,-1,-5,2,-1
1532121723820,-1,3,-1,7,17,6,-2,1
1532121723825,1,-7,-4,-8,5,-2,2,-5
1532121723830,1,-1,1,7,-11,-1,-2,2
1532121723835,-3,-11,0,1,7,8,-1,-4
1532121723840,0,-6,-1,-1,-15,-13,0,3
1532121723845,-1,-6,0,0,8,3,1,-2
1532121723850,-2,4,-2,-7,-9,-7,-2,-1
1532121723855,-1,2,-2,-3,5,-1,-1,-2
1532121723860,-5,0,0,-5,-13,-6,-1,1
1532121723865,6,4,-3,5,15,-12,-2,2
1532121723870,-9,-5,-4,-3,15,-4,0,-4
1532121723875,1,-4,0,4,-29,-14,-2,-8
1532121723880,0,-1,-4,-4,5,-2,-2,5
1532121723885,-3,3,1,-4,-11,-10,-1,0
1532121723890,7,2,2,3,-5,-12,-1,2
1532121723895,-11,-5,-2,-3,17,-5,0,-5
1532121723900,-3,-5,-5,-1,-25,-11,0,-2
1532121723905,1,0,-1,8,24,-12,-2,1
1532121723910,0,1,-2,-8,-12,-4,3,-4
1532121723915,2,-2,-1,4,20,-8,-6,2
1532121723920,2,3,4,1,-13,-1,2,7
1532121723925,0,13,0,-2,-20,-7,-2,-3
1532121723930,1,-23,-3,1,-6,-3,0,3
1532121723935,-3,3,-1,1,-3,-1,0,-1
1532121723940,1,-2,-1,-2,5,7,0,-5
1532121723945,3,-2,-1,-4,-11,-11,0,1
1532121723950,-7,4,-1,1,1,2,-2,-4
1532121723955,2,-3,-1,0,-5,7,1,1
1532121723960,-1,-1,-1,-3,-5,2,0,0
1532121723965,1,1,0,1,13,-3,0,1
1532121723970,2,4,0,4,4,1,-1,-1
1532121723975,1,-4,-2,-4,3,2,1,1
1532121723980,-2,8,2,5,-4,-5,-4,-1
1532121723985,3,-8,-2,-3,-5,5,-1,-5
1532121723990,-3,-1,3,-3,-8,-4,-2,4
1532121723995,-2,0,2,1,19,4,1,2
1532121724000,1,2,0,-7,-19,1,-1,-4
1532121724005,-8,-6,-5,2,19,5,0,-2
1532121724010,6,2,-1,1,-3,-2,1,0
1532121724015,-2,3,1,0,-10,2,1,-1
1532121724020,1,-1,-4,0,-1,1,-4,0
1532121724025,-6,-7,-1,0,2,7,-1,-3
1532121724030,0,5,-3,-4,8,4,1,-2
1532121724035,1,-1,-1,-1,2,-6,-2,2
1532121724040,2,-1,2,2,-5,3,-2,-3
1532121724045,-4,0,0,3,27,6,-2,-2
1532121724050,1,3,-1,-3,8,2,0,3
1532121724055,2,-1,-1,-4,-35,-8,-1,-2
1532121724060,-2,-3,-1,-1,11,-3,0,-1
1532121724065,1,0,-2,-3,-15,-1,1,1
1532121724070,-4,2,0,1,-3,-1,-2,-5
1532121724075,0,-5,-3,-2,26,11,1,2
1532121724080,2,2,1,3,10,-4,1,1
1532121724085,-6,-3,-1,-5,-32,4,0,-3
1532121724090,-1,-2,-1,7,20,0,-2,-1
1532121724095,0,1,-2,-6,-9,2,-1,1
1532121724100,0,-1,0,-4,8,0,-1,-1
1532121724105,2,0,-1,1,-12,13,0,0
1532121724110,1,-1,0,-4,-18,4,0,0
1532121724115,-5,-1,0,2,7,1,-2,-3
1532121724120,-3,-3,-2,-2,9,0,-1,-2
1532121724125,-4,1,-2,2,8,-2,-2,-5
1532121724130,4,-1,0,-3,-4,2,-2,0
1532121724135,0,2,-3,-5,-11,-9,1,3
1532121724140,0,-2,-1,-1,8,-3,-2,-1
1532121724145,0,-3,0,1,-4,3,0,-2
1532121724150,-2,0,-1,-2,-6,-2,-1,-2
1532121724155,2,2,1,-2,0,2,1,0
1532121724160,-2,1,-1,3,-7,9,2,0
1532121724165,2,0,0,-5,-12,-1,-1,0
1532121724170,-2,-1,2,1,27,0,-1,-3
1532121724175,1,-2,-1,-4,-7,-7,1,1
1532121724180,-3,0,-1,1,-7,-6,-2,-6
1532121724185,-1,1,-1,-1,-3,-3,0,1
1532121724190,-1,-1,-2,-4,-2,4,-1,-2
1532121724195,1,1,0,-4,-5,1,-2,-1
1532121724200,-1,-3,0,0,-2,3,1,-3
1532121724205,0,1,1,1,10,-7,1,-1
1532121724210,-11,-4,-4,-4,-16,6,-2,-6
1532121724215,4,-1,-1,1,-17,-1,-2,1
1532121724220,-3,-3,-3,7,28,-3,-2,0
1532121724225,4,1,0,-4,-6,-7,0,1
1532121724230,3,3,0,2,-1,-11,0,1
1532121724235,-4,3,-3,-1,4,-2,-1,-3
1532121724240,2,0,-3,-7,-41,0,-2,1
1532121724245,-3,-1,0,4,34,-10,-2,-6
1532121724250,4,-2,0,0,-8,-3,2,13
1532121724255,-2,-1,3,10,35,-14,-1,-4
1532121724260,1,-2,0,-7,-25,-20,-3,1
1532121724265,-2,-4,-1,-1,-8,-5,-1,-2
1532121724270,-1,-2,-2,-4,-3,-14,-1,-4
1532121724275,1,-2,-4,-5,5,-5,0,-3
1532121724280,-1,-1,-1,-3,13,-1,-1,1
1532121724285,4,-2,0,3,-2,-13,-1,3
1532121724290,-4,0,1,-1,-3,-8,-1,-3
1532121724295,-1,1,2,-1,-5,-5,0,2
1532121724300,-2,0,-1,-1,13,-10,0,-3
1532121724305,4,0,0,-2,-5,0,1,2
1532121724310,-7,2,-1,-2,-33,-5,-1,-3
1532121724315,1,1,-1,-3,-8,12,-3,0
1532121724320,0,3,-2,-4,7,-2,1,1
1532121724325,3,2,0,-6,-5,3,0,2
1532121724330,-2,-1,-1,8,13,7,0,-1
1532121724335,-5,-1,1,-1,1,-7,-3,-5
1532121724340,0,1,2,-2,-7,12,1,-3
1532121724345,-4,0,-3,-2,-6,3,-1,-2
1532121724350,4,-1,0,2,14,9,0,-1
1532121724355,0,-2,-3,-9,-31,-1,-4,1
1532121724360,5,0,2,7,1,2,0,1
1532121724365,-9,2,-2,-1,11,10,-1,-11
1532121724370,6,0,0,-4,-13,-2,-3,3
1532121724375,-5,-1,0,6,15,9,2,-2
1532121724380,0,-3,-4,-5,-6,-7,-1,-1
1532121724385,-2,-2,0,6,-3,2,-3,-2
1532121724390,1,-1,-1,-12,-27,-5,0,0
1532121724395,2,1,-1,13,83,13,5,-2
1532121724400,0,0,1,-2,-30,-5,-4,0
1532121724405,-1,0,-1,-1,-1,3,1,-2
1532121724410,0,1,0,3,26,9,-5,1
1532121724415,1,-2,-2,-8,-45,-11,0,3
1532121724420,-4,-2,-1,-1,19,9,0,-3
1532121724425,0,-2,-2,-2,-12,-6,-2,1
1532121724430,6,-1,1,-1,6,2,3,1
1532121724435,-3,-1,-1,4,-11,-2,-2,-2
1532121724440,-4,1,0,0,10,13,-2,-4
1532121724445,2,0,-1,-12,-29,2,0,3
1532121724450,2,-1,0,14,33,1,0,1
1532121724455,-5,-2,-3,-4,-6,4,-2,-2
1532121724460,1,-2,-2,-6,-26,-3,0,1
1532121724465,-4,2,2,8,24,3,0,6
1532121724470,5,0,-4,-8,-15,-1,-1,-4
1532121724475,1,-5,1,5,9,6,-1,-2
1532121724480,-2,0,-4,-5,-6,-3,0,-1
1532121724485,2,1,4,2,4,2,-1,4
1532121724490,-6,-7,-7,1,3,6,-3,-4
1532121724495,2,4,3,0,-21,-8,0,2
1532121724500,-1,-2,-3,-3,19,7,0,-2
1532121724505,1,0,-1,2,-15,-6,0,-1
1532121724510,1,3,1,-2,4,-5,2,-5
1532121724515,-6,1,0,-1,-13,-7,-5,1
1532121724520,4,-3,-2,-4,2,0,0,1
1532121724525,-7,0,-1,1,14,3,-1,-5
1532121724530,-2,0,0,-1,-10,-8,0,-2
1532121724535,2,-3,-1,-1,7,6,1,-1
1532121724540,1,1,0,-3,-13,-5,-1,2
1532121724545,-2,-4,-3,-3,11,-1,-2,-5
1532121724550,-1,2,0,-1,-12,-6,-3,1
1532121724555,1,4,1,-2,5,-1,0,-2
1532121724560,-1,-7,-5,1,10,6,-2,0
1532121724565,1,-2,-3,0,-16,-5,-1,4
1532121724570,-4,-1,0,-5,-5,1,0,-6
1532121724575,1,-1,-2,6,8,0,1,4
1532121724580,-3,0,0,2,4,-4,-1,-2
1532121724585,6,2,1,-5,-5,5,1,3
1532121724590,-9,-7,-2,-2,-5,-6,0,-5
1532121724595,7,-1,-1,-2,-2,-2,-3,5
1532121724600,-7,4,3,2,-5,-5,0,-5
1532121724605,0,2,0,-1,-2,-8,1,-2
1532121724610,0,0,-1,4,2,-5,-1,-1
1532121724615,3,9,0,-3,-9,-8,3,4
1532121724620,-1,-10,-1,1,-9,-19,0,-4
1532121724625,-2,4,2,-1,4,-11,-2,0
1532121724630,0,-6,-3,-1,-3,-9,0,-1
1532121724635,-2,-2,-2,-3,-10,-9,-2,-4
1532121724640,1,4,1,2,8,-3,-2,1
1532121724645,-2,0,1,5,5,-3,1,-1
1532121724650,0,-2,1,1,24,-5,-1,0
1532121724655,-1,-1,-4,-3,-31,-9,-3,-2
1532121724660,0,2,1,1,-10,-6,0,3
1532121724665,-1,-6,-4,-2,0,-7,-2,-3
1532121724670,4,4,1,3,14,2,1,4
1532121724675,-9,-3,0,0,9,-4,-1,-4
1532121724680,8,0,0,2,3,0,-1,0
1532121724685,-8,-3,-2,-6,-12,-6,-1,-5
1532121724690,2,-1,2,-1,-4,2,0,2
1532121724695,0,2,2,-2,6,3,2,0
1532121724700,-1,6,1,3,7,6,0,-9
1532121724705,-2,-18,-10,-2,4,-8,-4,1
1532121724710,-2,-2,0,-1,-14,0,-3,-1
1532121724715,0,0,-6,1,11,3,-1,-1
1532121724720,-5,0,1,-3,28,4,-1,1
1532121724725,4,4,2,-3,-31,0,-1,-1
1532121724730,-3,2,-2,-3,-1,1,-2,-7
1532121724735,2,-1,-2,0,-1,5,0,2
1532121724740,-2,1,1,-1,8,7,1,0
1532121724745,1,4,0,1,1,0,-2,-2
1532121724750,2,-3,1,-5,-8,6,2,3
1532121724755,-5,-3,2,5,7,3,-2,-1
1532121724760,-2,-4,-3,-1,-1,4,-3,-1
1532121724765,1,0,1,0,-6,-5,2,1
1532121724770,1,2,-2,-1,-14,1,1,1
1532121724775,-3,-3,-2,-4,14,5,0,-3
1532121724780,-2,-1,0,-1,-16,3,-2,-2
1532121724785,-2,1,1,-1,12,10,0,1
1532121724790,-3,-1,-5,-2,0,-1,-2,-6
1532121724795,2,-2,1,-1,-6,-1,0,0
1532121724800,-4,-2,-2,-1,0,-1,1,-2
1532121724805,2,2,4,3,8,10,-1,2
1532121724810,-1,5,1,-3,-8,-2,0,2
1532121724815,-1,-1,-1,0,6,6,-3,-2
1532121724820,0,-1,0,-3,-21,-4,0,-6
1532121724825,5,2,-1,5,-2,8,2,3
1532121724830,-8,-4,-3,-5,5,0,-2,-6
1532121724835,0,2,1,1,6,5,-2,0
1532121724840,0,2,1,-4,6,0,-1,1
1532121724845,-2,-2,-1,0,1,-2,-1,-4
1532121724850,4,4,0,2,3,5,1,3
1532121724855,-7,-2,-2,-7,-12,-3,0,-6
1532121724860,1,-3,-5,1,2,-1,-3,4
1532121724865,-4,-4,-2,1,3,-3,1,-6
1532121724870,0,0,-3,-1,3,1,-2,-1
1532121724875,1,-2,2,-4,1,-6,0,-1
1532121724880,1,-1,1,3,-10,-1,-1,1
1532121724885,-1,2,-3,-6,-9,-9,0,0
1532121724890,-1,1,0,0,6,-1,-3,-1
1532121724895,2,-4,-4,2,2,-4,2,-1
1532121724900,-2,1,-1,2,1,1,0,0
1532121724905,0,1,-1,-4,-3,3,-3,0
1532121724910,-8,-6,-6,2,2,-7,-1,-3
1532121724915,1,0,1,-2,-8,-4,-2,0
1532121724920,-6,-3,-3,-5,9,1,-3,-4
1532121724925,0,-1,-3,1,11,0,0,1
1532121724930,5,3,2,-2,-21,-3,0,5
1532121724935,0,0,-1,2,-6,1,-1,-2
1532121724940,1,-3,-5,-6,-6,-3,2,9
1532121724945,-2,3,1,0,7,-1,-2,-3
1532121724950,1,-3,-2,-2,-8,-3,0,1
1532121724955,0,3,0,5,7,-4,0,-2
1532121724960,0,-8,-4,1,2,-5,1,-2
1532121724965,-1,1,-1,-2,-4,0,0,0
1532121724970,-2,-2,0,1,6,1,0,0
1532121724975,-1,0,-3,-8,-33,-3,-2,-2
1532121724980,-2,2,2,12,34,-6,-1,0
1532121724985,4,0,-3,-3,-18,-6,0,4
1532121724990,-3,-1,-1,1,3,0,0,-5
1532121724995,-4,3,1,-5,0,-6,-4,-5
1532121725000,-2,2,1,-4,-7,-2,1,0
1532121725005,-2,-8,-5,1,10,-10,-2,-5
1532121725010,1,2,-2,-3,-9,0,-2,3
1532121725015,4,-2,-2,2,30,-7,0,2
1532121725020,-1,2,-2,-2,-31,-8,1,-2
1532121725025,-3,-3,0,-4,-3,-10,-1,-1
1532121725030,1,2,1,-3,-8,-6,0,-4
1532121725035,-2,-2,3,1,2,-2,2,5
1532121725040,-2,2,-3,-3,-1,-4,-3,-8
1532121725045,0,0,0,1,4,-2,0,6
1532121725050,-2,2,2,3,1,-4,1,-1
1532121725055,-1,-9,-5,1,0,-7,0,-1
1532121725060,2,3,3,1,2,2,-2,2
1532121725065,-7,-1,0,-2,-7,3,-3,-6
1532121725070,-1,-3,0,-1,3,3,-3,-2
1532121725075,-1,2,1,-4,-3,7,1,-2
1532121725080,3,-1,-3,-2,23,2,1,0
1532121725085,-4,0,0,1,-35,-6,0,2
1532121725090,-3,1,0,-3,5,-4,-2,-5
1532121725095,1,-1,-2,3,-2,0,0,1
1532121725100,-1,0,-1,-4,-5,-4,0,1
1532121725105,5,-1,-1,-4,4,0,2,3
1532121725110,1,1,-1,0,0,-2,-2,1
1532121725115,-1,1,-1,1,-10,2,-1,0
1532121725120,0,-4,-4,-6,-9,3,0,-2
1532121725125,-3,1,2,8,6,-4,0,-1
1532121725130,4,0,1,-1,-10,0,0,2
1532121725135,-5,1,1,-2,5,9,-1,1
1532121725140,-3,-2,0,2,-11,-1,0,-4
1532121725145,3,1,-1,-5,13,15,-2,4
1532121725150,-4,-2,2,3,6,-1,1,-1
1532121725155,4,-2,0,0,4,6,-3,-3
1532121725160,-2,1,-1,-5,-20,-3,0,-3
1532121725165,0,-2,-3,-1,14,1,1,-2
1532121725170,2,2,0,9,3,-1,-2,0
1532121725175,-3,-2,-3,0,5,2,0,0
1532121725180,0,3,0,-2,-5,2,0,0
1532121725185,-3,-3,0,-2,-4,5,-1,-5
1532121725190,-1,-1,-1,3,17,-5,-1,1
1532121725195,0,0,0,-2,-18,-4,-3,-1
1532121725200,3,-2,-4,-6,-10,15,1,3
1532121725205,-5,-2,-2,-6,-12,-10,-4,-4
1532121725210,-2,-2,-2,-1,-1,8,-6,-5
1532121725215,-3,3,0,10,37,-1,-3,1
1532121725220,2,-1,0,-2,7,1,2,-2
1532121725225,1,-1,-1,0,-22,-9,-3,-1
1532121725230,-3,-1,-1,-3,10,1,3,0
1532121725235,3,1,1,-5,-31,7,1,5
1532121725240,-1,-7,-4,1,-1,-8,-2,-2
1532121725245,4,4,0,0,7,1,0,-1
1532121725250,-4,-3,-1,2,0,1,-2,-2
1532121725255,-2,-1,-1,-2,1,5,0,-10
1532121725260,-2,2,-1,2,7,-11,-1,2
1532121725265,-3,0,-1,-4,-5,6,3,0
1532121725270,3,-3,-2,-2,-3,-4,-3,0
1532121725275,0,-2,-4,-5,2,5,-4,-1
1532121725280,-2,0,-4,-13,-50,-3,2,-7
1532121725285,3,0,2,12,48,-5,1,6
1532121725290,-5,-2,-1,1,-12,16,6,3
1532121725295,-1,0,-2,-5,-6,-29,-8,-6
1532121725300,-2,1,0,-2,3,5,1,-1
1532121725305,0,3,-2,-2,-5,-4,-9,-6
1532121725310,-1,2,-2,-3,-6,-2,1,-1
1532121725315,-2,-1,0,3,3,-4,-1,2
1532121725320,8,1,3,5,26,2,7,2
1532121725325,-5,-2,2,-2,-39,4,-3,0
1532121725330,1,-3,2,6,23,11,2,2
1532121725335,2,-3,-3,-7,-11,9,0,-2
1532121725340,-1,2,1,3,10,-3,-4,2
1532121725345,0,-4,0,-2,-4,0,4,-1
1532121725350,-2,2,0,0,17,-20,-5,-1
1532121725355,-1,-8,-2,0,5,-14,2,-2
1532121725360,4,3,-1,-1,-14,-12,-1,-1
1532121725365,-7,-8,-4,0,5,-16,-3,-3
1532121725370,-2,-2,0,-3,4,-7,-1,-5
1532121725375,-3,-2,0,-11,-43,-9,2,-1
1532121725380,-1,-4,-2,13,40,-13,-5,2
1532121725385,1,-3,-1,-4,1,-8,-1,-6
1532121725390,-1,-1,0,-2,-6,-10,-2,6
1532121725395,7,6,1,4,23,1,4,1
1532121725400,-12,-9,-5,-4,-22,-1,-1,-3
1532121725405,0,1,0,-2,-6,-2,0,-1
1532121725410,0,0,1,0,-9,2,0,-1
1532121725415,0,9,1,2,7,-1,-1,1
1532121725420,-2,-3,-1,-4,-2,-2,0,1
1532121725425,0,0,-3,-9,-38,-1,3,-9
1532121725430,4,2,4,17,19,-14,-11,7
1532121725435,-3,1,0,-1,18,9,2,-4
1532121725440,-1,3,-1,-5,-17,1,-1,-5
1532121725445,-2,-1,-3,4,28,4,1,1
1532121725450,-2,1,-2,-8,-22,1,2,-4
1532121725455,0,1,3,4,-5,1,-4,1
1532121725460,0,-7,-4,0,9,11,-1,3
1532121725465,0,-1,0,-1,11,4,1,-2
1532121725470,5,0,0,-6,-13,-2,3,7
1532121725475,-5,-4,-1,5,22,-3,-1,0
1532121725480,-2,2,4,1,0,-4,-1,-3
1532121725485,2,1,-2,-3,0,-9,1,0
1532121725490,-2,-2,-2,4,-10,13,-3,-4
1532121725495,0,-7,-4,-11,-9,7,0,0
1532121725500,-1,9,0,-4,4,17,-2,1
1532121725505,-3,-7,0,1,-2,5,-1,0
1532121725510,-2,4,0,-3,4,-1,-3,-7
1532121725515,3,0,3,2,-2,-6,-1,5
1532121725520,-3,1,0,-5,-20,-12,-3,-3
1532121725525,1,2,-2,-4,61,-10,-3,1
1532121725530,-7,-1,-1,0,-32,-10,1,-2
1532121725535,4,3,0,-4,-17,-5,-1,-1
1532121725540,0,-5,0,2,18,-6,-2,-1
1532121725545,0,-2,-2,3,-28,-7,0,2
1532121725550,5,-3,0,-6,6,1,2,-1
1532121725555,-9,-3,-4,2,4,-2,-2,-6
1532121725560,2,-1,3,-2,2,7,2,7
1532121725565,-1,-1,-2,-5,-6,4,-1,-3
1532121725570,1,4,-2,3,7,1,-1,-1
1532121725575,0,-5,-2,2,-9,1,3,-1
1532121725580,2,-1,0,0,21,0,-1,-3
1532121725585,0,6,4,-1,-29,3,0,0
1532121725590,0,-2,1,0,5,-1,0,1
1532121725595,-2,0,-2,-2,-9,3,2,-2
1532121725600,5,2,-2,-1,-1,1,-7,0
1532121725605,-6,-3,-2,10,15,-1,-3,-1
1532121725610,-1,-3,-3,-5,-3,4,0,-4
1532121725615,-2,2,3,-1,13,3,0,1
1532121725620,1,-1,-1,-4,-32,-5,1,-5
1532121725625,6,2,3,4,3,0,-1,4
1532121725630,-8,-5,-5,-5,12,1,-3,-4
1532121725635,2,0,-1,1,-7,-9,0,1
1532121725640,-3,1,0,0,-6,-7,1,-2
1532121725645,1,1,1,-2,9,-2,-1,-5
1532121725650,2,-2,0,0,13,-2,1,2
1532121725655,-1,1,-2,0,-4,-1,0,-1
1532121725660,-5,-3,-3,1,6,0,-3,-5
1532121725665,-1,0,-1,1,1,7,0,1
1532121725670,1,1,2,-2,-10,-4,0,-2
1532121725675,0,-1,-1,1,-1,0,-2,0
1532121725680,-1,-1,-2,-2,-7,-3,-1,1
1532121725685,-1,-1,-1,-1,5,1,1,-3
1532121725690,-4,-1,1,-1,-27,-10,-2,-3
1532121725695,0,4,1,-3,-6,-16,-1,-1
1532121725700,-4,-9,-6,-2,-1,-16,-3,-3
1532121725705,3,2,-3,0,-6,-17,-1,2
1532121725710,-5,-3,-2,-17,-53,-17,0,-5
1532121725715,-1,-1,2,23,77,-8,-4,-2
1532121725720,-1,0,-1,-3,-9,-2,1,1
1532121725725,3,-2,-1,-6,-6,-7,-1,-2
1532121725730,2,0,-1,0,6,0,0,0
1532121725735,-2,-1,0,-5,-19,3,1,-4
1532121725740,1,-1,2,-2,15,-1,-3,-6
1532121725745,-2,-2,-2,-3,-25,-2,0,-4
1532121725750,0,-1,-4,2,14,0,0,4
1532121725755,1,0,1,-1,-7,-4,-1,1
1532121725760,0,-2,1,-3,8,-6,1,1
1532121725765,-4,-2,-1,-6,-21,-1,-1,-2
1532121725770,4,-1,0,7,69,-13,-2,0
1532121725775,-6,0,-1,-4,-19,-16,-3,-4
1532121725780,2,1,1,3,-8,-11,3,2
1532121725785,-5,2,-1,1,5,-3,-6,-3
1532121725790,-2,-3,-3,-2,-12,3,-1,-2
1532121725795,0,-6,-2,-3,10,11,-1,-2
1532121725800,-2,1,1,1,-10,10,-1,0
1532121725805,3,4,1,-1,9,17,3,3
1532121725810,1,-3,-1,3,-16,15,-1,1
1532121725815,-1,-1,-2,-4,4,16,0,-2
1532121725820,-2,0,-2,-2,-12,13,-1,0
1532121725825,-1,-2,0,-2,4,8,-3,-1
1532121725830,-1,0,-2,-4,-7,9,-1,-5
1532121725835,0,-1,-1,3,2,5,-1,-1
1532121725840,-1,1,1,-2,-2,2,-1,0
1532121725845,3,-1,0,6,2,3,-2,1
1532121725850,-10,2,-1,-4,-7,-6,-3,-2
1532121725855,6,0,-1,-6,2,7,3,-2
1532121725860,-5,3,0,0,-11,-1,0,-2
1532121725865,-3,-8,-5,-5,9,-4,0,-1
1532121725870,3,1,1,3,-4,3,1,-1
1532121725875,-1,0,-2,0,-5,1,-1,0
1532121725880,2,2,-2,1,16,5,-1,0
1532121725885,-1,1,0,-1,-4,-4,-2,-1
1532121725890,-2,-3,-5,2,-3,-3,2,-2
1532121725895,-2,-1,-1,-4,-11,0,-2,2
1532121725900,1,-1,0,0,-3,-1,1,0
1532121725905,-2,-2,-3,-7,-14,6,1,-1
1532121725910,3,2,4,10,4,0,-1,4
1532121725915,0,0,-4,0,-1,2,-3,-1
1532121725920,0,-1,-3,3,-1,5,1,1
1532121725925,-2,-2,-2,-3,2,-4,0,-3
1532121725930,4,2,0,-4,1,-3,0,4
1532121725935,-4,-2,0,-5,-17,-1,-2,-4
1532121725940,1,0,3,9,12,2,-1,1
1532121725945,-9,-2,-1,1,3,-1,-1,-6
1532121725950,1,-1,1,-4,1,3,0,2
1532121725955,-2,0,-1,-1,-5,-2,-1,0
1532121725960,0,-6,0,-6,27,9,-1,-1
1532121725965,3,3,1,7,-23,-1,-3,1
1532121725970,-4,-3,-1,2,6,5,-2,-4
1532121725975,1,1,-2,-4,-9,3,0,-5
1532121725980,-3,0,-4,-3,3,3,-1,1
1532121725985,1,1,0,1,6,0,0,2
1532121725990,-2,0,-2,-5,-7,6,1,-2
1532121725995,0,-1,-2,2,11,1,-3,-1
1532121726000,-1,0,0,-3,-7,-3,1,-2
1532121726005,-1,-1,-3,-4,10,2,0,0
1532121726010,-1,1,-3,1,-17,-2,0,-5
1532121726015,-2,-2,-2,-9,-9,-1,-1,0
1532121726020,0,-1,-4,9,0,-1,-2,0
1532121726025,1,6,5,1,9,4,1,-1
1532121726030,-2,-8,-8,-7,6,-3,-2,-3
1532121726035,-2,-1,-1,1,-2,-9,-1,1
1532121726040,-7,-1,0,-4,-15,-9,-2,-6
1532121726045,0,1,0,1,5,-8,2,1
1532121726050,2,1,1,2,6,-3,-1,-3
1532121726055,2,-2,0,1,-3,-1,0,2
1532121726060,2,2,-2,-5,-13,-7,-1,-1
1532121726065,-2,-2,0,3,36,10,-2,0
1532121726070,-2,0,-1,-3,-26,-7,-2,0
1532121726075,-1,-2,-3,-3,16,4,1,0
1532121726080,-1,3,1,-2,-11,-10,0,-2
1532121726085,-3,-3,-3,0,1,-9,-2,-4
1532121726090,0,1,0,2,2,-4,-1,5
1532121726095,1,-1,0,-2,-4,-5,0,-4
1532121726100,1,-1,-4,-1,3,-15,-2,-1
1532121726105,-2,-2,-2,-2,-11,-11,-1,2
1532121726110,0,3,0,-2,7,-8,-1,-1
1532121726115,-1,2,2,-1,-5,-12,-1,0
1532121726120,1,3,2,-1,-4,-17,-1,1
1532121726125,1,0,1,0,-2,-21,-1,-1
1532121726130,3,4,2,4,-2,-23,-1,2
1532121726135,-4,-3,-1,0,5,-10,0,0
1532121726140,-2,-5,-5,1,0,5,-3,2
1532121726145,-3,-6,0,-1,-2,2,-2,-3
1532121726150,1,-1,0,-1,8,10,-2,4
1532121726155,1,-5,0,1,-4,5,1,0
1532121726160,4,-2,0,1,3,0,0,-1
1532121726165,0,-1,-1,-5,-24,-8,1,1
1532121726170,-1,-1,0,0,8,-15,-4,-4
1532121726175,0,1,0,2,-2,-13,-1,1
1532121726180,-3,-1,-3,-2,8,-2,1,-2
1532121726185,1,1,1,1,-10,-3,1,0
1532121726190,-2,0,0,-2,11,15,3,-3
1532121726195,-1,0,-2,3,-3,10,-2,-2
1532121726200,-1,4,1,-4,0,16,-1,1
1532121726205,1,1,-1,-4,-7,13,-1,-1
1532121726210,0,-3,-4,7,4,2,1,-1
1532121726215,3,-1,-2,1,4,2,-2,0
1532121726220,-2,-2,1,-3,10,9,3,-1
1532121726225,0,-1,-1,6,-5,3,-2,0
1532121726230,-1,-1,0,-4,-12,5,-1,0
1532121726235,1,1,0,0,1,0,0,0
1532121726240,8,1,-2,-5,-5,-6,-3,1
1532121726245,-8,3,2,0,3,-1,1,-4
1532121726250,0,-2,-2,0,15,6,0,0
1532121726255,-4,0,1,-1,-3,3,0,-3
1532121726260,-2,-1,-1,0,-7,-1,0,0
1532121726265,2,0,-2,-4,4,-1,1,0
1532121726270,-2,1,1,-2,-4,0,-6,-4
1532121726275,-1,0,-3,0,2,-6,0,0
1532121726280,-2,-1,0,-2,-23,3,0,1
1532121726285,3,1,1,2,-6,0,1,4
1532121726290,-10,-1,-3,-6,-1,2,-2,-10
1532121726295,0,-1,-4,-8,-14,-5,-2,1
1532121726300,-3,-2,-2,-9,-2,11,0,-3
1532121726305,-3,-3,-5,-7,-38,-2,-2,-1
1532121726310,3,3,2,4,8,-4,4,2
1532121726315,3,3,0,2,1,1,-1,-2
1532121726320,-7,0,-1,3,7,-1,1,0
1532121726325,-2,-1,-4,-7,-4,3,-2,-3
1532121726330,1,0,1,-3,0,-3,0,0
1532121726335,-1,1,-1,-1,-8,4,0,-1
1532121726340,4,0,-1,-2,-20,-8,1,1
1532121726345,-2,-2,-2,4,24,10,-2,-1
1532121726350,4,-2,-1,-7,-19,0,4,6
1532121726355,-7,-3,1,15,18,0,-5,-9
1532121726360,1,-2,1,0,12,2,-2,5
1532121726365,-1,-1,-1,-4,-2,-6,-3,-1
1532121726370,-1,1,-1,-2,-4,1,0,-2
1532121726375,1,-1,1,-6,-4,0,-1,0
1532121726380,-3,-2,-2,1,2,1,-3,-4
1532121726385,8,1,-2,-2,-2,-4,4,5
1532121726390,-8,1,0,1,-8,-4,-11,0
1532121726395,-5,-3,-4,-8,-5,1,10,0
1532121726400,-1,1,-4,1,11,-5,1,-6
1532121726405,2,3,1,-1,-15,9,-4,0
1532121726410,1,1,0,3,5,5,4,10
1532121726415,-3,-3,1,2,5,-6,-9,-3
1532121726420,-3,-5,-4,-5,-7,2,-11,-10
1532121726425,-6,0,-1,0,1,6,10,-9
1532121726430,5,-1,0,2,8,-11,1,4
1532121726435,1,0,1,-1,-11,14,-5,-9
1532121726440,2,1,2,-1,5,-17,1,6
1532121726445,-1,-2,0,-3,-3,-9,-11,7
1532121726450,-6,2,-2,0,2,-7,-5,-11
1532121726455,3,-4,-4,0,3,7,3,3
1532121726460,1,6,3,2,-6,-13,2,-10
1532121726465,-4,4,1,2,10,-8,2,5
1532121726470,-7,-7,-4,-6,2,-7,-1,0
1532121726475,12,1,-4,-7,-18,-23,-22,-10
1532121726480,-5,-1,-1,4,16,9,19,30
1532121726485,-2,-4,0,-1,-20,-24,-21,-2
1532121726490,-2,-2,-2,2,16,10,28,-20
1532121726495,-5,2,2,0,-2,-27,1,4
1532121726500,-1,-4,0,-3,-9,-16,-19,-15
1532121726505,7,1,-2,-1,9,10,25,-1
1532121726510,-4,-6,-1,-1,-10,-2,-3,10
1532121726515,3,1,-2,0,10,3,10,2
1532121726520,1,9,0,2,-11,8,-5,-17
1532121726525,-14,-2,0,2,-5,4,4,10
1532121726530,2,-13,-7,-7,-26,-9,-15,-9
1532121726535,-3,3,0,3,12,1,-4,-9
1532121726540,4,0,1,1,-3,-6,-17,3
1532121726545,0,-2,-3,-5,-8,1,17,0
1532121726550,7,9,4,2,9,2,12,2
1532121726555,-15,-7,-3,-7,-11,-5,-22,-9
1532121726560,6,-5,-3,2,12,12,-1,1
1532121726565,30,5,2,7,13,-24,8,-4
1532121726570,0,-48,-2,-3,-9,6,-6,4
1532121726575,16,-2,1,-4,0,-4,14,9
1532121726580,-12,13,0,2,-3,-6,-6,-5
1532121726585,-12,10,1,-2,-13,-9,-11,-4
1532121726590,4,31,2,3,3,-7,4,3
1532121726595,-7,7,1,1,-7,3,1,4
1532121726600,-12,-2,-6,-3,5,5,10,0
1532121726605,8,3,-2,-3,1,11,-5,4
1532121726610,-10,1,-2,0,4,4,-8,-5
1532121726615,-13,-10,-1,4,17,10,6,-3
1532121726620,-21,-5,4,1,-15,-1,3,3
1532121726625,-18,-7,-1,-3,12,-19,-1,-1
1532121726630,31,-3,2,-1,3,-18,-6,2
1532121726635,18,12,1,-5,-8,-3,-2,8
1532121726640,7,0,-2,10,19,5,15,2
1532121726645,-16,-6,-1,-2,0,3,-5,-7
1532121726650,-17,5,0,0,2,-5,-6,-5
1532121726655,-3,4,2,0,-3,22,0,14
1532121726660,3,-8,1,-4,-9,-11,7,5
1532121726665,-6,-6,-4,-6,-5,10,-18,-19
1532121726670,5,11,0,1,-1,9,7,4
1532121726675,5,-10,-8,-1,2,8,3,-3
1532121726680,4,3,3,-1,0,11,-3,0
1532121726685,-6,-7,-3,-2,-9,5,5,1
1532121726690,-1,1,2,3,7,-1,-6,-2
1532121726695,11,5,0,0,1,-1,1,2
1532121726700,3,-5,-3,-9,-26,-1,5,1
1532121726705,-19,-14,0,6,28,-9,-4,-5
1532121726710,1,6,2,5,1,-9,-2,1
1532121726715,-9,3,-4,-4,-2,-13,-1,-6
1532121726720,17,-8,-2,-1,1,-6,-2,3
1532121726725,-10,5,-2,-6,-18,8,0,-4
1532121726730,-12,-17,-2,-3,-2,6,-3,-9
1532121726735,-6,0,2,6,2,-1,1,1
1532121726740,26,13,0,-5,-2,4,-5,0
1532121726745,-1,0,-5,-4,6,-1,-3,-3
1532121726750,-8,0,1,1,-4,-15,2,-1
1532121726755,-25,-8,1,-2,-9,-13,1,-4
1532121726760,15,5,1,-10,-13,-12,0,-2
1532121726765,7,3,4,21,27,-10,-5,3
1532121726770,14,4,-6,-6,-6,-27,3,2
1532121726775,3,3,-1,-4,19,-19,-4,-5
1532121726780,-20,-4,-3,-3,-23,-20,-3,-6
1532121726785,11,4,0,-8,-10,14,-1,-1
1532121726790,-6,-2,0,-1,-1,30,-4,0
1532121726795,2,-4,0,5,-12,30,3,3
1532121726800,-9,-3,0,8,23,22,-1,-5
1532121726805,2,-1,-1,-5,-12,12,-4,0
1532121726810,0,6,1,-2,-3,17,-2,2
1532121726815,6,2,-4,-7,0,2,1,-2
1532121726820,-4,-1,-1,6,-3,-2,-3,6
1532121726825,0,0,1,-2,-1,-2,6,1
1532121726830,-11,4,-4,-1,-13,-7,-6,-5
1532121726835,5,-5,-2,2,3,-5,2,4
1532121726840,4,4,-1,0,14,-9,-2,2
1532121726845,-1,-7,-3,-4,-14,-24,-1,-3
1532121726850,0,0,1,0,2,-26,-3,-2
1532121726855,-6,-4,1,2,-4,-34,2,-2
1532121726860,-3,-4,-2,-1,6,-25,0,-3
1532121726865,-7,-5,-3,-2,-4,-32,5,2
1532121726870,4,5,1,2,0,-44,-4,-2
1532121726875,1,1,-1,-3,0,-50,-3,-1
1532121726880,-1,-1,0,0,1,-38,-2,-1
1532121726885,6,8,0,0,7,-10,0,2
1532121726890,-5,-1,-3,-3,-15,12,1,-9
1532121726895,0,-1,1,-3,-3,12,-1,3
1532121726900,-6,-2,-2,0,5,21,1,-4
1532121726905,-8,-4,0,1,2,23,-3,-1
1532121726910,9,5,-2,-2,4,37,-1,1
1532121726915,-1,-10,1,-1,-5,32,2,-2
1532121726920,5,-9,-1,-2,3,27,0,0
1532121726925,-10,-8,-2,-1,-5,24,-1,-4
1532121726930,2,3,0,-5,-1,29,-2,2
1532121726935,-11,7,2,3,-4,19,3,2
1532121726940,-5,-11,-6,-2,2,22,-1,4
1532121726945,14,18,-1,5,12,18,3,-8
1532121726950,-2,-4,-5,-6,-12,7,0,0
1532121726955,6,0,-1,4,3,13,-6,0
1532121726960,-13,-6,4,2,-2,5,-3,-4
1532121726965,7,-6,1,-6,-7,-6,-3,5
1532121726970,3,1,1,0,9,-2,8,3
1532121726975,-9,-2,-2,1,1,-6,1,-5
1532121726980,-1,4,2,-2,-5,-5,-1,3
1532121726985,15,6,-1,2,0,-4,-3,-1
1532121726990,-6,-1,2,1,1,-6,-2,3
1532121726995,2,-1,-4,-6,-9,-11,-1,2
1532121727000,-2,5,1,1,7,3,-1,-4
1532121727005,1,1,1,-3,-11,-10,1,2
1532121727010,2,-5,0,2,-3,-1,-1,2
1532121727015,-3,-1,-2,1,-2,1,-1,-7
1532121727020,2,1,-2,-1,1,-4,-2,-5
1532121727025,-1,-5,2,0,-5,4,0,3
1532121727030,-8,-5,-4,-5,5,0,4,-2
1532121727035,13,4,1,4,3,5,-5,-1
1532121727040,-1,1,-3,-6,-7,2,-3,-1
1532121727045,4,0,0,4,10,4,-3,0
1532121727050,-2,-1,-1,2,-1,-12,-4,-3
1532121727055,-4,2,0,-3,-5,-6,5,0
1532121727060,0,-2,-1,-1,-1,1,0,-1
1532121727065,7,-2,-1,0,-9,2,1,1
1532121727070,-13,-5,0,2,10,2,-3,-5
1532121727075,-2,0,1,-5,3,3,-1,1
1532121727080,4,5,1,4,-7,-1,0,0
1532121727085,-4,-3,-1,-6,-5,2,-1,1
1532121727090,4,0,-1,0,-1,12,-1,1
1532121727095,-7,-3,-1,2,2,10,1,-3
1532121727100,-4,-1,-3,-2,4,8,1,-2
1532121727105,0,-9,0,0,-2,4,1,-1
1532121727110,-3,-4,-3,-1,0,1,-3,0
1532121727115,0,3,0,-3,-1,0,-1,0
1532121727120,2,6,-1,0,-2,-3,-2,0
1532121727125,-8,2,-1,-3,-5,-8,-2,-5
1532121727130,1,0,-1,0,3,-4,0,-4
1532121727135,2,-1,-3,-1,-1,-8,-2,7
1532121727140,2,-1,-2,-2,-4,5,-1,-2
1532121727145,-1,-1,-1,-2,0,2,1,-1
1532121727150,-1,-1,-1,-1,-2,-12,-2,0
1532121727155,1,2,3,2,0,1,2,-2
1532121727160,-4,-6,-2,0,4,-4,-2,0
1532121727165,-3,-4,-4,-5,8,-3,-5,-1
1532121727170,7,2,-1,2,-10,-12,1,0
1532121727175,-1,-1,-1,-1,-7,-4,-1,-2
1532121727180,-2,-1,2,2,5,-12,1,-1
1532121727185,-2,0,0,-3,-2,0,-1,-1
1532121727190,0,1,-2,-2,0,7,-3,-1
1532121727195,-1,-2,-1,-2,0,-15,-1,-1
1532121727200,-1,-1,1,1,-2,1,0,-1
1532121727205,3,2,-1,-2,-4,-13,-3,0
1532121727210,-2,-2,-1,0,-3,-6,1,-1
1532121727215,-1,0,-1,-1,-6,-1,-1,-1
1532121727220,-3,-2,-3,0,6,0,-3,-4
1532121727225,0,0,-2,2,-3,-9,1,1
1532121727230,0,-2,0,-5,-4,-2,-2,-2
1532121727235,-1,-2,0,0,0,-3,-2,-2
1532121727240,-1,-1,1,1,1,-12,0,-2
1532121727245,-1,0,-1,-4,-4,-11,1,0
1532121727250,-2,0,-3,0,1,-1,-1,1
1532121727255,-2,-2,0,-2,1,1,0,-1
1532121727260,5,1,-1,1,-5,-4,2,0
1532121727265,0,-1,-2,3,6,-3,-1,0
1532121727270,-3,2,3,0,3,-1,1,0
1532121727275,4,-1,-2,1,1,1,0,0
1532121727280,5,-1,-1,-1,-7,-3,-3,4
1532121727285,-10,-3,-4,-1,-5,2,-2,-8
1532121727290,1,-1,-1,-1,1,4,1,1
1532121727295,-4,-2,0,-1,-3,2,-2,-1
1532121727300,-1,-1,0,-3,-1,1,-2,-1
1532121727305,6,0,1,2,-5,3,-5,1
1532121727310,1,-3,-2,-2,1,0,-2,-2
1532121727315,-1,-1,-2,-1,-1,-1,1,2
1532121727320,-3,-1,-1,-1,0,5,2,0
1532121727325,2,3,3,3,1,1,2,1
1532121727330,-2,0,-2,-1,-4,-3,0,-2
1532121727335,4,-2,-4,0,0,5,0,0
1532121727340,-2,-2,-2,-3,-1,1,0,-3
1532121727345,-1,0,1,0,-1,5,-1,-1
1532121727350,-1,2,1,5,-1,0,-2,1
1532121727355,-2,-1,-4,-2,3,0,-1,-2
1532121727360,-4,0,-1,-1,0,1,-2,-3
1532121727365,1,-1,-1,-1,-3,2,2,0
1532121727370,2,-1,0,-2,-1,1,-1,-2
1532121727375,-5,-3,1,0,1,6,-5,-2
1532121727380,-3,-3,-2,4,0,-2,0,-1
1532121727385,-2,-2,2,1,-2,0,-1,0
1532121727390,-4,-3,-5,-1,1,-1,0,-7
1532121727395,8,4,2,-3,-2,1,0,3
1532121727400,0,-1,0,-1,1,-4,-1,0
1532121727405,1,-2,-2,2,-1,-1,-2,0
1532121727410,-5,-1,0,-3,-1,0,-1,-1
1532121727415,3,0,0,-1,-3,-3,3,1
1532121727420,-5,-1,0,1,2,7,-6,-5
1532121727425,2,-1,1,-2,-2,-2,2,-2
1532121727430,-6,-1,-1,-2,0,1,-1,-5
1532121727435,0,0,0,2,1,3,-2,-3
1532121727440,1,1,-1,-2,-1,4,2,-1
1532121727445,-1,-2,1,-3,-2,0,0,1
1532121727450,0,1,0,-1,-1,0,-1,1
1532121727455,0,0,0,2,0,-7,0,-3
1532121727460,-2,-1,0,-1,0,-3,1,0
1532121727465,0,0,-3,-1,-1,4,-2,-1
1532121727470,-11,-7,-1,-2,-3,0,-1,1
1532121727475,23,7,-2,-3,-3,6,0,0
1532121727480,2,2,0,-1,-1,2,-2,-1
1532121727485,-1,1,0,-2,1,1,1,0
1532121727490,1,1,1,3,-1,1,0,2
1532121727495,-13,-7,-2,-2,-4,-3,-1,-1
1532121727500,1,2,0,-2,-2,2,-1,-1
1532121727505,1,0,-1,0,1,-3,0,0
1532121727510,0,-3,-2,-3,-3,-8,-2,1
1532121727515,-6,-2,-1,-1,2,-1,0,-3
1532121727520,1,3,1,-2,-2,-4,1,0
1532121727525,-4,1,-2,-2,0,1,0,1
1532121727530,3,1,-1,2,0,-2,1,-1
1532121727535,-5,-4,-1,0,-2,-2,-1,0
1532121727540,-1,-3,-3,0,-2,-4,-1,-1
1532121727545,-3,0,-2,-2,-3,-4,0,-2
1532121727550,-4,-5,-1,3,1,-3,-1,-2
1532121727555,-1,2,2,-1,-2,-8,-1,-1
1532121727560,5,1,0,-2,-1,0,0,-8
1532121727565,-1,-1,-1,1,1,-4,0,4
1532121727570,0,1,0,0,-2,-4,-4,-1
1532121727575,-4,-3,-2,-3,-2,-7,1,2
1532121727580,-10,-3,-2,0,-1,-7,0,-4
1532121727585,4,1,-2,-2,-2,-7,-1,-2
1532121727590,2,2,1,-1,0,-1,0,1
1532121727595,-4,-2,1,-1,1,-2,-2,-3
1532121727600,-1,-2,-3,-2,-4,-5,-2,4
1532121727605,4,-1,-1,-3,2,-3,0,-2
1532121727610,0,0,1,-2,-1,4,-1,0
1532121727615,-1,0,-3,-4,-4,-2,-2,-4
1532121727620,-8,-9,0,0,-1,-5,1,0
1532121727625,-12,-2,1,4,-4,-4,-3,-2
1532121727630,12,7,0,-1,1,0,-1,0
1532121727635,-1,0,0,1,1,-5,-3,-2
1532121727640,0,-2,1,-3,0,-2,-1,1
1532121727645,-7,-4,0,0,-1,-2,-2,0
1532121727650,1,0,0,-1,0,-4,1,1
1532121727655,0,0,-2,2,-2,3,-1,-2
1532121727660,-3,-1,-1,1,0,-5,1,0
1532121727665,5,1,0,-4,-1,6,-1,-1
1532121727670,0,-3,-3,-2,-1,1,0,-1
1532121727675,-5,0,-1,-1,1,1,-1,0
1532121727680,2,2,-3,2,1,0,-1,1
1532121727685,4,2,2,3,0,-2,1,-5
1532121727690,4,-1,-1,-2,-1,1,-1,2
1532121727695,-8,-1,0,-1,-1,4,-1,-4
1532121727700,0,0,-2,0,-1,1,-2,-4
1532121727705,-3,-2,-2,-2,-2,2,1,-1
1532121727710,-4,-3,-2,-1,-1,-7,2,-4
1532121727715,6,3,1,2,1,5,-3,2
1532121727720,6,4,-1,-2,1,5,-1,2
1532121727725,-3,2,-3,-3,0,3,-2,-1
1532121727730,1,5,0,1,-3,1,0,2
1532121727735,-4,3,-1,0,0,5,0,-1
1532121727740,0,0,0,0,-2,-1,-1,-2
1532121727745,-1,-6,-3,-2,-2,2,-3,0
1532121727750,-5,-5,-2,-1,-1,3,-1,1
1532121727755,-10,-14,0,0,0,-2,0,-3
1532121727760,-1,-1,1,1,-2,-2,0,-1
1532121727765,7,2,0,-1,2,3,1,1
1532121727770,-1,-2,1,1,0,2,-2,-3
1532121727775,3,-1,-3,-2,-2,1,1,0
1532121727780,-7,-4,0,-5,0,1,-1,0
1532121727785,-6,-2,1,2,0,-5,-1,2
1532121727790,5,4,-1,-3,0,3,-3,-6
1532121727795,-5,-2,-4,-2,-1,-2,-3,-2
1532121727800,0,0,1,0,1,0,1,6
1532121727805,2,0,1,-1,-3,2,0,-3
1532121727810,-5,-2,-2,0,-1,2,-3,-1
1532121727815,3,2,1,0,1,0,0,1
1532121727820,0,-1,-1,2,-2,-2,-2,-3
1532121727825,7,2,0,1,2,5,0,4
1532121727830,-8,-1,0,-2,-1,-1,0,-7
1532121727835,1,-1,-3,1,-1,-4,-1,-4
1532121727840,0,1,1,1,1,0,2,1
1532121727845,-5,-3,-1,1,-4,-2,-5,-6
1532121727850,3,0,-4,-3,1,-3,2,4
1532121727855,3,2,0,-2,-1,2,-3,1
1532121727860,1,0,-2,-3,-2,3,1,0
1532121727865,-2,-3,0,0,-1,-5,1,-2
1532121727870,-1,-1,-2,0,-4,-3,-4,1
1532121727875,-5,1,1,0,-1,-6,0,-1
1532121727880,15,3,-2,-2,1,0,0,-2
1532121727885,0,-1,-3,0,0,3,0,-1
1532121727890,-1,1,0,-1,0,-3,0,-1
1532121727895,-3,-1,-1,-2,-1,-1,1,0
1532121727900,-4,-4,-1,0,-1,-1,-2,-2
1532121727905,-2,1,-1,0,-1,-2,0,0
1532121727910,1,-1,0,2,1,2,0,1
1532121727915,7,0,-2,0,-1,-2,1,-1
