1532321770000,-2,-2,-1,-1,-1,-2,1,-2
1532321770005,-2,0,0,-1,-1,1,-2,-3
1532321770010,1,0,-1,0,-1,-1,-1,-2
1532321770015,-1,-2,1,-2,-1,0,-1,-1
1532321770020,0,-2,-1,-1,-2,0,-1,2
1532321770025,-1,0,-1,0,-2,-2,0,-2
1532321770030,-1,-3,-1,0,0,-3,-1,-1
1532321770035,-2,-2,-1,0,-1,-1,-1,-1
1532321770040,-1,0,-2,-1,-1,-1,0,0
1532321770045,-1,-1,-1,-1,0,-1,0,1
1532321770050,-1,-1,0,-1,-2,-1,0,0
1532321770055,0,1,-1,-1,-1,1,-1,-1
1532321770060,-2,0,0,0,0,0,-1,-1
1532321770065,0,-2,-1,-1,-1,1,-1,0
1532321770070,-1,-1,1,1,-2,0,-1,-1
1532321770075,-2,-1,-1,-1,1,-1,-1,-1
1532321770080,0,-1,-1,0,-1,-1,-1,-2
1532321770085,-1,-1,-1,-3,0,0,0,0
1532321770090,-2,1,-1,-1,-1,1,-3,-1
1532321770095,-1,-2,-2,-2,-1,0,0,0
1532321770100,-1,-1,-1,0,0,-2,-1,-1
1532321770105,-1,0,-1,-1,0,-1,0,-2
1532321770110,-1,-1,-1,0,-1,-2,0,0
1532321770115,-1,-2,-1,-2,-2,0,-1,-1
1532321770120,0,0,-1,-1,0,0,0,-2
1532321770125,0,-1,0,-1,-1,0,-2,-1
1532321770130,-1,-3,-1,0,-1,-1,-1,-1
1532321770135,-1,0,-1,-1,0,-1,0,-1
1532321770140,-1,-2,-3,-1,0,-2,0,1
1532321770145,0,-1,0,-1,-2,-2,-2,-1
1532321770150,0,-1,0,0,-1,1,1,-1
1532321770155,0,-1,0,-1,-1,-2,-1,-1
1532321770160,-3,-1,1,0,-1,0,-1,-1
1532321770165,-1,0,-1,-1,-2,1,-1,0
1532321770170,1,-2,-1,-1,0,1,0,0
1532321770175,-2,-1,-1,-2,1,-1,-1,-1
1532321770180,0,-1,-2,-1,-1,-1,1,0
1532321770185,-1,1,-3,0,0,-1,0,-3
1532321770190,-1,0,1,-1,0,-2,-1,-1
1532321770195,1,-1,-1,1,-1,-1,-2,-2
1532321770200,0,0,0,-3,-1,0,-1,-1
1532321770205,-1,-3,-1,1,-3,-1,0,-1
1532321770210,0,0,-1,-1,-1,1,2,0
1532321770215,0,0,0,0,-2,-1,1,0
1532321770220,0,-1,0,-2,-1,-1,-1,-2
1532321770225,0,-1,0,-1,1,-1,-1,-1
1532321770230,0,-1,-2,-1,0,-1,-1,0
1532321770235,0,-2,0,0,-1,0,-1,1
1532321770240,0,-1,0,0,0,-1,-2,0
1532321770245,-1,0,-1,-1,-2,0,0,-3
1532321770250,-1,-2,-2,-2,-1,0,1,-2
1532321770255,0,0,-3,-1,1,0,-1,0
1532321770260,0,0,-1,0,-2,-1,0,-1
1532321770265,-1,-2,-2,-1,1,-2,1,-1
1532321770270,0,0,0,-1,0,-3,-1,-1
1532321770275,-1,0,-1,-1,-2,0,-2,-2
1532321770280,0,-1,-2,1,-1,0,0,-1
1532321770285,-1,-1,-1,-1,-1,-2,0,0
1532321770290,0,-1,-2,-2,0,-2,-3,-1
1532321770295,-1,-2,0,-2,-2,-3,-1,-1
1532321770300,0,-2,-1,-2,0,-2,0,0
1532321770305,1,-1,0,-2,0,0,0,0
1532321770310,0,-2,0,-2,-2,-3,-1,-1
1532321770315,-1,0,-2,0,1,0,-1,-1
1532321770320,-2,-1,-1,-1,-2,0,-2,-1
1532321770325,-1,-1,0,0,-1,-1,0,-2
1532321770330,-1,0,-1,-1,0,0,-3,-2
1532321770335,0,-2,-2,-1,-2,-1,-1,-1
1532321770340,0,1,-1,-2,0,-1,0,0
1532321770345,0,-1,-3,-2,-2,0,0,-1
1532321770350,0,0,0,-1,0,1,0,-2
1532321770355,-1,0,0,-1,-1,-1,-1,-1
1532321770360,0,-1,-1,-1,0,0,-1,-2
1532321770365,0,0,0,-1,-5,-1,-1,0
1532321770370,0,-2,-2,-1,3,1,0,-1
1532321770375,-1,-1,-1,-3,-2,-1,0,-1
1532321770380,-1,0,-1,1,1,0,-1,0
1532321770385,1,-2,0,-1,0,-1,0,-1
1532321770390,-2,-1,-1,-1,-1,-1,-1,0
1532321770395,0,0,0,-1,-1,-1,1,-1
1532321770400,0,-1,-1,0,-1,0,0,0
1532321770405,0,0,0,-1,1,-1,-1,0
1532321770410,1,1,0,-1,-1,-1,1,-2
1532321770415,0,-3,0,-1,-1,0,0,0
1532321770420,-1,-2,1,-1,-2,-2,-1,0
1532321770425,-2,-2,-3,0,-1,-2,-2,0
1532321770430,-2,-2,-1,-1,-4,0,-2,0
1532321770435,0,-1,0,-1,4,-1,0,0
1532321770440,-1,0,0,-1,-1,-3,-1,-1
1532321770445,-2,-1,0,-1,-2,0,0,0
1532321770450,-1,-2,-1,-1,-2,-2,-2,-1
1532321770455,-2,0,-2,1,-2,-1,-1,0
1532321770460,-2,-1,-2,-1,-2,0,0,-1
1532321770465,0,-2,-1,-1,3,1,0,0
1532321770470,0,-1,-1,0,2,-1,-2,-1
1532321770475,-2,-1,-1,0,-2,-2,0,-1
1532321770480,0,-2,-1,-2,0,0,-2,-2
1532321770485,-2,-2,-1,-1,-1,-2,-3,-1
1532321770490,0,-3,-1,-1,-2,0,-2,-1
1532321770495,-1,0,-1,1,0,0,-3,-1
1532321770500,-1,0,-2,0,-1,-1,0,1
1532321770505,-1,-1,1,0,0,0,0,0
1532321770510,-2,-1,-1,1,-1,-1,-1,1
1532321770515,-2,-1,-1,-1,-1,-1,0,0
1532321770520,-1,0,-1,0,-2,-1,-2,-1
1532321770525,-1,0,-1,0,-1,1,-1,-2
1532321770530,0,0,-1,-1,1,-1,-1,0
1532321770535,0,-1,0,0,-1,0,-1,-1
1532321770540,0,-1,-1,0,-1,-1,-1,0
1532321770545,0,-1,0,-1,-1,-1,1,-3
1532321770550,1,-1,0,0,0,0,-1,-1
1532321770555,0,-2,-2,-1,-2,-2,-1,-2
1532321770560,0,-2,-1,0,-1,0,-1,-2
1532321770565,-1,0,-1,2,-2,1,0,-1
1532321770570,-2,0,-1,0,-1,-1,-1,-1
1532321770575,2,-1,0,-2,-1,-1,-1,0
1532321770580,-2,-1,-2,0,-1,-2,-1,-1
1532321770585,-1,0,-1,-2,1,-1,0,-1
1532321770590,-1,0,0,-2,-1,0,-1,0
1532321770595,-2,0,0,-1,0,-1,-1,0
1532321770600,1,1,-1,-1,-2,0,-1,-1
1532321770605,-1,-2,-1,-1,-1,-1,0,-2
1532321770610,-1,-1,-1,0,0,0,2,-1
1532321770615,0,0,1,-1,-1,-2,-1,0
1532321770620,1,-2,-1,0,-1,0,0,-1
1532321770625,-1,-1,-2,0,0,-2,-1,0
1532321770630,0,0,-2,-1,-1,1,-2,-1
1532321770635,-1,0,-1,0,-3,-1,0,-1
1532321770640,-1,-3,0,-3,-1,0,0,0
1532321770645,-1,0,1,-1,-1,-1,-1,-2
1532321770650,1,-1,-1,-1,0,-1,-2,-1
1532321770655,0,-3,-1,-1,-2,1,-1,-2
1532321770660,-1,-1,-2,0,1,-2,-1,0
1532321770665,-1,-1,-1,0,-1,0,0,1
1532321770670,-1,1,0,0,-2,-2,-1,0
1532321770675,-1,1,-3,-2,-1,-1,-1,0
1532321770680,0,-1,0,0,-1,0,-1,-2
1532321770685,1,-1,0,-1,-1,-1,0,0
1532321770690,-1,-1,-1,-1,-1,-2,1,0
1532321770695,0,0,-2,-1,-1,-1,0,0
1532321770700,-1,-1,0,1,-1,-1,0,-1
1532321770705,1,0,-2,1,-1,-1,-2,-1
1532321770710,-1,-1,0,0,-1,-2,-1,-2
1532321770715,0,-1,0,-1,-1,0,-1,-1
1532321770720,-1,0,-1,-2,0,-1,0,0
1532321770725,-1,-1,-1,0,-1,0,0,0
1532321770730,0,-1,-1,0,-2,0,-1,-1
1532321770735,-1,0,-1,-2,-2,-2,-2,1
1532321770740,-1,-1,0,-1,0,-1,0,-2
1532321770745,0,-1,-1,-1,-2,-1,0,0
1532321770750,-1,-2,-3,0,0,-1,0,-1
1532321770755,-1,0,0,-1,-1,0,-1,-2
1532321770760,-1,-1,-3,0,0,-2,0,0
1532321770765,0,-1,0,0,0,-1,-1,0
1532321770770,-2,1,-1,0,0,-1,-2,-2
1532321770775,-2,0,-1,-1,0,1,0,0
1532321770780,0,1,-1,-1,-1,1,0,-2
1532321770785,0,2,0,-1,0,-1,-2,1
1532321770790,0,-2,0,-1,-1,0,-2,0
1532321770795,-1,-2,-1,1,-1,-2,0,-1
1532321770800,-1,-1,-1,-1,0,0,-3,0
1532321770805,-2,-2,-1,0,0,-1,-1,-1
1532321770810,-1,-1,1,-1,-2,-2,0,-1
1532321770815,0,-1,-1,0,0,0,-1,-1
1532321770820,0,0,-1,-1,-2,-1,0,0
1532321770825,-2,-1,-2,1,0,-2,0,-1
1532321770830,-1,-2,0,0,-1,-1,0,-1
1532321770835,-1,-1,0,-1,-1,0,-1,-1
1532321770840,-2,-1,-2,-2,-2,-2,1,0
1532321770845,-3,0,0,-2,-2,0,-2,0
1532321770850,-1,0,-1,1,0,-1,0,-1
1532321770855,0,0,0,-2,0,-1,-1,-1
1532321770860,-1,-2,-1,0,-1,-1,0,-1
1532321770865,-1,0,0,-2,-1,1,0,-1
1532321770870,-1,-2,-2,-1,-1,0,-2,0
1532321770875,-2,-1,0,0,0,-1,-1,1
1532321770880,0,-2,-1,0,0,2,-1,-1
1532321770885,0,-1,-2,-1,-2,-1,0,0
1532321770890,-1,-1,-2,-2,0,1,-1,-1
1532321770895,1,-1,-1,-1,-2,-1,-1,-2
1532321770900,-3,-2,-1,-2,-1,-1,0,-2
1532321770905,-1,-2,-2,-1,-1,-1,-1,-1
1532321770910,-1,0,-2,-1,-2,0,1,2
1532321770915,-2,-1,-1,-1,0,0,1,0
1532321770920,-1,0,1,0,-1,-1,-1,-1
1532321770925,0,0,-1,-1,0,0,-1,-3
1532321770930,-1,0,0,-1,-2,0,0,-2
1532321770935,-1,-2,-1,0,0,-1,0,-2
1532321770940,0,-1,1,-1,-1,-1,-1,0
1532321770945,-1,-2,-3,0,-2,-1,-2,0
1532321770950,0,0,0,-2,1,-1,-1,-1
1532321770955,-1,-1,0,-2,-2,-1,-1,0
1532321770960,-1,-2,-1,1,0,0,0,0
1532321770965,0,-1,1,-1,-1,-2,-2,-1
1532321770970,0,-1,-1,0,0,-1,0,-2
1532321770975,0,1,-3,-2,-1,-1,-2,0
1532321770980,-1,-1,-2,-1,0,-1,-3,-2
1532321770985,-1,-1,0,1,0,-2,0,-1
1532321770990,0,-2,0,0,-2,-1,-1,-1
1532321770995,1,0,-1,0,-1,0,1,-1
1532321771000,2,-1,0,-1,-1,0,0,-1
1532321771005,-1,-1,-1,-3,-1,-2,0,1
1532321771010,0,-1,0,-3,-2,1,0,0
1532321771015,-1,-3,0,-1,-1,-2,-1,-1
1532321771020,-1,1,-2,-1,1,-1,-2,1
1532321771025,0,0,0,-1,0,0,1,0
1532321771030,0,0,0,-1,-2,0,-2,-1
1532321771035,-2,0,0,-2,1,-1,-2,-1
1532321771040,0,-1,-1,0,-2,-1,-1,-1
1532321771045,-2,-1,0,-1,-2,0,-1,0
1532321771050,-2,-2,-1,-1,0,-2,-1,0
1532321771055,-4,0,0,0,0,-1,0,-2
1532321771060,0,-1,0,-1,0,0,1,0
1532321771065,-1,0,-1,0,-1,0,1,-1
1532321771070,0,0,-2,0,0,-1,1,-1
1532321771075,0,-1,0,-1,0,-2,-3,-2
1532321771080,-1,-1,-1,-2,-4,0,-2,-1
1532321771085,0,0,-1,-2,-2,-2,-1,-1
1532321771090,-1,-1,-1,-2,-2,-1,0,-1
1532321771095,-1,0,-2,-1,-2,0,1,-1
1532321771100,-2,-1,0,1,0,-2,-2,0
1532321771105,1,-1,-1,-1,0,-1,-1,0
1532321771110,-2,-1,1,0,-1,-1,-1,-1
1532321771115,0,-2,-2,-1,-2,0,-1,-2
1532321771120,0,-1,-1,-2,0,-1,0,0
1532321771125,0,-1,-2,-2,1,-1,0,0
1532321771130,-1,-1,-2,0,1,-1,-1,0
1532321771135,-1,-1,-2,-1,-1,1,0,-1
1532321771140,0,0,-2,0,-1,-1,0,0
1532321771145,0,-2,0,-1,2,0,-1,-3
1532321771150,0,0,-2,1,-2,0,0,-1
1532321771155,-1,-2,0,-2,0,-2,-1,1
1532321771160,-1,-1,-1,-1,0,-2,0,-1
1532321771165,-1,-1,0,-1,-1,1,-2,-1
1532321771170,-2,-2,-2,0,0,0,-1,1
1532321771175,-1,-1,-1,-1,1,-1,0,-1
1532321771180,-2,0,1,-1,-1,-2,-2,-3
1532321771185,0,-1,-1,-1,-2,-2,-1,1
1532321771190,1,-1,-2,-1,-1,0,-1,-1
1532321771195,1,-1,-1,1,-3,1,0,-1
1532321771200,-1,-1,-1,0,1,-1,-2,0
1532321771205,0,-1,0,1,-2,0,0,-2
1532321771210,0,-1,0,-1,0,-1,0,-2
1532321771215,0,0,-1,-2,-2,-2,-1,0
1532321771220,-3,-2,-1,-2,-1,0,-2,-1
1532321771225,0,-1,-2,0,-1,-2,-1,0
1532321771230,-1,0,-1,-2,0,-1,-3,0
1532321771235,0,-1,0,-1,-1,0,1,-1
1532321771240,-1,0,-1,0,-2,-1,0,-1
1532321771245,0,-2,0,0,1,-3,-2,0
1532321771250,-2,1,1,-1,-1,-1,1,-1
1532321771255,0,-2,-1,-1,0,-1,-2,0
1532321771260,-1,-2,0,-2,0,0,0,-2
1532321771265,0,0,1,-2,-3,0,-2,0
1532321771270,1,-2,-3,-1,-1,-2,1,-1
1532321771275,-1,0,-1,-1,-1,-2,-1,-2
1532321771280,-2,-1,-2,0,0,0,1,0
1532321771285,-1,1,0,-2,-1,-1,-1,0
1532321771290,-2,-1,0,1,0,-1,0,0
1532321771295,1,-1,-1,-2,-1,-2,-1,0
1532321771300,0,0,-2,-1,-1,-1,0,-1
1532321771305,-1,0,-2,-1,1,0,-1,-2
1532321771310,0,-3,-1,0,-1,0,-1,0
1532321771315,0,0,0,1,0,-1,-1,-2
1532321771320,0,1,0,-1,-2,1,1,-1
1532321771325,-1,-2,0,0,-2,-1,0,-1
1532321771330,0,-1,-1,-2,-1,-2,-1,-1
1532321771335,-2,-2,0,0,0,-2,-1,-2
1532321771340,-1,0,1,-2,-3,-1,-1,0
1532321771345,0,-2,0,2,-1,-1,0,-1
1532321771350,0,-1,-1,-1,-2,-2,-2,1
1532321771355,-1,-1,-2,0,-2,-1,-1,0
1532321771360,0,-1,0,-1,0,0,0,-2
1532321771365,-2,-1,-2,-2,0,1,-1,0
1532321771370,0,-1,-1,0,-3,0,1,-2
1532321771375,0,-1,-1,0,-1,-1,-1,1
1532321771380,1,-1,1,-2,-3,-1,0,0
1532321771385,0,1,0,0,-1,-1,0,0
1532321771390,-2,-2,-1,-2,1,0,-2,-1
1532321771395,-1,0,0,-3,-1,-1,0,-1
1532321771400,0,-2,-2,-2,1,-1,-2,-1
1532321771405,-2,-1,-1,-1,-1,-1,0,0
1532321771410,0,1,-1,-2,-3,-1,-1,0
1532321771415,-1,-1,-1,0,1,-1,0,-1
1532321771420,-1,0,-2,-1,-1,0,-1,-2
1532321771425,-1,-1,0,-1,0,1,-2,-2
1532321771430,1,-2,0,0,0,-1,-1,-1
1532321771435,-1,-2,-2,-2,1,-1,-2,2
1532321771440,-2,-2,-1,1,-1,-1,-1,0
1532321771445,-1,0,-2,-3,-2,-1,-1,-2
1532321771450,0,0,-3,-2,-3,-3,-1,-1
1532321771455,-1,-1,-1,-1,-1,-2,-1,-2
1532321771460,-1,-2,-3,1,-2,0,0,-2
1532321771465,-1,0,0,1,-2,0,-2,-2
1532321771470,-1,0,1,-1,0,0,-1,-2
1532321771475,0,0,-1,-2,-1,0,0,-2
1532321771480,0,-3,-3,-1,-1,-2,-1,-1
1532321771485,-2,-1,-2,-1,-1,-1,-1,0
1532321771490,-2,0,-1,0,1,1,1,-1
1532321771495,-2,1,0,0,-1,-1,1,1
1532321771500,0,-1,-1,-1,-1,-3,-2,-1
1532321771505,1,-1,-1,-1,0,-2,1,0
1532321771510,-1,-1,-2,0,0,-1,-1,0
1532321771515,-1,0,0,1,0,0,-2,0
1532321771520,-1,0,0,0,-1,-1,-1,-1
1532321771525,-1,-2,-2,-2,-1,-1,-3,-1
1532321771530,-1,-1,-1,-1,-1,0,-1,-2
1532321771535,0,-1,0,-1,-3,-1,-2,-1
1532321771540,-1,0,0,-1,0,-2,0,0
1532321771545,-1,-1,-2,0,-1,-2,-2,-2
1532321771550,0,-1,-1,-1,1,1,-1,-1
1532321771555,-2,-1,-2,-2,-2,0,-1,-1
1532321771560,-2,-1,0,-1,2,0,1,1
1532321771565,-1,-1,-2,-2,-2,0,-1,0
1532321771570,0,1,0,0,0,-2,-2,1
1532321771575,0,-1,-1,0,-2,-1,0,-1
1532321771580,-1,1,0,0,-1,-1,0,1
1532321771585,-1,0,0,-1,0,-1,-1,-1
1532321771590,1,-1,-1,-1,-1,0,0,-2
1532321771595,-2,-1,0,-1,0,1,1,-1
1532321771600,-1,-1,0,1,0,1,0,-2
1532321771605,-2,-2,-2,0,0,-1,-1,-2
1532321771610,0,1,0,0,-3,0,-2,0
1532321771615,-1,0,-3,0,0,-2,-2,-1
1532321771620,-2,0,0,-3,-2,1,-1,-2
1532321771625,-2,-1,-1,-1,0,0,0,-2
1532321771630,-1,-1,-1,0,-1,-1,-1,-2
1532321771635,1,0,-1,-1,2,-2,-1,-1
1532321771640,1,0,-1,-1,-2,0,0,1
1532321771645,0,-1,0,-2,0,0,0,-1
1532321771650,-2,-2,0,-1,0,0,-2,0
1532321771655,-2,0,-1,-1,-2,-1,0,-2
1532321771660,0,0,-3,2,0,-2,-1,-2
1532321771665,-1,-1,-1,-1,-1,-2,-1,-1
1532321771670,-2,-1,-1,-2,-1,-1,0,0
1532321771675,1,-2,-1,-1,-1,0,-1,-1
1532321771680,1,-1,-2,-1,0,0,-1,-1
1532321771685,-1,-1,-2,0,0,0,0,-1
1532321771690,-2,0,0,0,0,-1,-2,0
1532321771695,0,-1,-2,0,1,-1,-2,-1
1532321771700,0,-1,0,-3,-2,0,0,-1
1532321771705,-1,-1,0,-1,-2,-1,-2,-2
1532321771710,-1,-2,-1,0,0,0,0,-1
1532321771715,0,-1,-1,0,0,-1,0,-1
1532321771720,-1,-3,-1,-2,-1,0,-1,-2
1532321771725,1,-2,0,-4,-1,-1,-2,0
1532321771730,1,-1,-1,0,-1,-3,-1,1
1532321771735,-2,0,-1,-2,-1,0,-2,0
1532321771740,-1,0,-2,0,-1,0,0,-1
1532321771745,-1,0,-1,0,-2,-1,0,0
1532321771750,-1,-2,0,-1,0,0,0,-3
1532321771755,0,0,-1,0,-1,1,0,0
1532321771760,-1,-2,-1,-1,0,0,-3,-2
1532321771765,-1,-1,0,-1,-1,-2,0,-1
1532321771770,-1,-1,-2,0,1,-1,-1,-1
1532321771775,0,0,0,-1,-3,-2,-1,0
1532321771780,-1,-1,-1,-1,1,-3,-1,0
1532321771785,1,1,-2,1,-1,0,-1,0
1532321771790,-2,-1,-2,1,0,-2,0,-3
1532321771795,-1,-2,-1,0,-1,-1,0,-1
1532321771800,0,1,-1,0,-2,-1,0,0
1532321771805,0,0,-1,-1,-1,0,-1,-1
1532321771810,-1,0,0,-2,-2,-1,-1,1
1532321771815,-1,-1,-1,1,1,-1,-2,-2
1532321771820,0,-1,-1,-2,-1,-3,0,0
1532321771825,-1,-2,-1,-1,0,-2,0,-1
1532321771830,1,0,-1,0,-1,0,-1,0
1532321771835,-2,-2,-1,0,-2,-1,-1,-1
1532321771840,1,-2,0,-2,-1,1,0,-1
1532321771845,0,0,-1,-1,0,0,-1,-1
1532321771850,-2,-2,0,-3,-1,-2,-1,-1
1532321771855,-1,-2,-1,-3,0,-1,1,-1
1532321771860,-1,-1,1,-1,-1,-2,-2,0
1532321771865,-1,-1,-1,1,-1,-1,1,0
1532321771870,-1,-1,0,0,-1,0,-1,0
1532321771875,-1,-2,-1,0,0,0,-1,0
1532321771880,-2,0,0,0,-1,-2,-1,0
1532321771885,0,1,1,-1,-2,-1,-1,-2
1532321771890,0,0,-1,-1,0,-1,1,0
1532321771895,-1,0,-1,-2,-1,-1,0,-1
1532321771900,-1,-1,-1,0,0,0,-2,-1
1532321771905,1,-1,-1,0,0,-1,-1,-1
1532321771910,-1,-1,0,0,-3,-1,1,-1
1532321771915,0,0,-2,-2,-1,-1,-1,0
1532321771920,-1,-2,-1,1,-1,-1,0,0
1532321771925,0,-1,-1,0,0,0,-1,-2
1532321771930,-1,-1,-1,-2,-1,0,-1,-1
1532321771935,-1,-1,-1,-1,1,-1,0,-1
1532321771940,-2,-1,-2,0,-1,1,-1,0
1532321771945,-2,0,0,-1,-1,-1,-1,0
1532321771950,-1,0,-1,0,0,0,0,0
1532321771955,-1,-1,-2,1,-1,-2,-2,0
1532321771960,1,-1,-1,-1,-1,0,0,-4
1532321771965,-2,0,0,-1,-1,0,-1,0
1532321771970,-2,-1,0,0,-1,-1,-2,-2
1532321771975,2,-1,-2,0,0,-1,-1,-1
1532321771980,-1,-1,-1,-2,1,-2,0,0
1532321771985,-2,-2,-2,1,-1,0,1,-3
1532321771990,0,0,0,-1,-1,0,-1,2
1532321771995,0,1,-1,-1,-2,0,0,-2
1532321772000,-1,0,0,-1,-1,-2,-2,1
1532321772005,0,-2,-1,-1,0,0,0,0
1532321772010,-1,-2,-1,-2,0,0,0,-1
1532321772015,-1,-1,0,0,0,0,0,1
1532321772020,0,0,-1,0,-2,-1,-2,-2
1532321772025,-1,0,-2,-1,-1,-1,0,0
1532321772030,0,-3,-2,0,-2,-1,-3,1
1532321772035,-1,-2,0,-4,-2,1,-3,0
1532321772040,-3,-1,-2,0,0,-1,0,-1
1532321772045,0,-2,0,0,-1,-3,0,0
1532321772050,0,0,-1,0,1,-3,0,-1
1532321772055,0,0,0,-2,-2,0,1,-1
1532321772060,0,0,2,-2,-1,0,0,0
1532321772065,-2,0,0,-1,0,-1,-3,-1
1532321772070,0,-1,-1,-1,-2,-1,-1,-2
1532321772075,-2,0,0,1,-2,-2,-1,-1
1532321772080,-1,-1,-2,0,1,-2,0,-1
1532321772085,1,1,0,1,1,1,0,1
1532321772090,-2,1,-1,-1,0,-1,-1,-2
1532321772095,0,0,1,0,0,-1,-1,-2
1532321772100,0,-2,-2,0,-1,0,-1,-1
1532321772105,-1,-1,-1,-2,-1,2,-2,-2
1532321772110,-2,-1,-2,-1,-1,-1,-3,-1
1532321772115,-2,-3,-1,-1,-1,-1,-1,-2
1532321772120,-2,-1,0,-1,0,0,0,0
1532321772125,-1,-1,-2,-2,-2,-2,-1,-1
1532321772130,-1,-1,0,-1,0,1,-1,0
1532321772135,-2,0,0,-2,-1,-2,0,-1
1532321772140,-2,-1,1,0,0,-1,-1,-1
1532321772145,-2,-1,-2,0,0,0,-1,-1
1532321772150,1,-2,0,-1,-1,0,-1,-2
1532321772155,0,1,-1,-1,0,-2,-2,-1
1532321772160,0,-2,-1,-1,-1,-1,-1,0
1532321772165,0,-1,-1,-1,-1,-2,-2,-1
1532321772170,-1,-2,1,0,-2,-1,-1,0
1532321772175,0,-1,-1,-2,0,-1,-1,-2
1532321772180,0,0,-2,-1,-1,-2,-1,-1
1532321772185,-1,-1,0,1,-1,-1,-1,-1
1532321772190,-1,0,-2,-2,1,-1,-1,1
1532321772195,-2,-1,0,-2,-1,-1,0,0
1532321772200,-1,-1,-2,-1,0,-2,-1,-1
1532321772205,0,-1,-2,-2,0,0,0,-1
1532321772210,0,0,-1,0,0,1,0,-2
1532321772215,0,-1,-1,1,-2,-1,-1,0
1532321772220,0,0,-2,-2,-1,0,0,-1
1532321772225,0,0,1,-1,-1,0,0,-2
1532321772230,-1,-2,-2,1,-2,0,1,-2
1532321772235,0,-1,0,-2,-1,-1,-1,-2
1532321772240,0,-2,-2,0,-2,0,-2,-1
1532321772245,-1,0,-1,-1,1,-1,0,0
1532321772250,-1,0,-1,-1,-2,-1,-2,-1
1532321772255,2,-1,0,0,0,-1,0,0
1532321772260,0,-1,0,0,1,0,-1,-2
1532321772265,-1,-1,-1,0,0,0,-1,0
1532321772270,-1,-1,-1,-1,-1,0,-1,1
1532321772275,0,-1,-2,0,0,-1,-2,0
1532321772280,-1,-1,-1,-1,0,0,1,-1
1532321772285,0,-1,0,0,-2,-2,0,0
1532321772290,0,-1,-1,-2,-1,-3,0,-1
1532321772295,-2,0,0,1,-1,-1,-1,-1
1532321772300,-2,-1,0,0,0,-2,0,0
1532321772305,0,-1,-1,-2,1,-1,-2,-1
1532321772310,-2,-1,-1,1,0,1,0,0
1532321772315,-1,0,-1,-1,-1,-2,0,0
1532321772320,0,0,-1,-2,-1,0,-2,-2
1532321772325,-4,-1,-1,-2,-3,-1,0,-1
1532321772330,0,0,-1,-1,0,-1,-1,-2
1532321772335,0,-2,-3,0,-1,0,-1,0
1532321772340,-1,-2,-1,0,0,-1,-1,1
1532321772345,0,-1,-2,-1,-1,0,-1,-2
1532321772350,-1,-1,-2,-1,-2,0,-2,0
1532321772355,-1,0,-1,0,-2,-2,-2,0
1532321772360,-1,-1,0,0,-1,-1,0,-1
1532321772365,0,0,-2,-3,-1,0,-1,-1
1532321772370,-2,-1,-2,-1,0,-2,0,-1
1532321772375,0,-1,1,-1,-2,-1,-1,-2
1532321772380,-1,-1,-1,0,-1,0,0,0
1532321772385,0,-2,-2,0,0,-1,-1,0
1532321772390,-1,0,1,-1,-2,0,-1,0
1532321772395,-1,0,-2,-1,0,-2,-2,0
1532321772400,-1,-2,0,-1,-2,-1,0,-1
1532321772405,-2,-1,-1,0,-1,-1,1,0
1532321772410,1,-1,-2,-2,-1,0,-2,-2
1532321772415,0,0,1,-1,-1,0,0,-3
1532321772420,-1,0,0,-1,-1,-1,-1,0
1532321772425,-2,-2,0,-1,1,0,0,0
1532321772430,0,-1,0,-1,0,-3,-1,-2
1532321772435,-3,-1,-1,-2,-1,-1,0,-2
1532321772440,-1,0,-1,-1,-2,-1,0,-3
1532321772445,2,0,-3,-1,-2,0,-2,-1
1532321772450,-2,-2,-1,-1,-1,-1,-1,-1
1532321772455,0,-1,0,-1,-1,0,0,-2
1532321772460,-1,-1,-2,-2,-1,-2,-1,2
1532321772465,1,-1,0,1,-1,-1,-1,-1
1532321772470,-1,-1,0,0,-1,1,0,-1
1532321772475,-1,0,-3,-1,0,-2,2,1
1532321772480,1,-2,-2,-2,0,-2,-1,0
1532321772485,0,0,-2,-1,-1,-2,0,-1
1532321772490,-3,1,-1,-1,0,-1,-1,-1
1532321772495,-1,0,0,1,-1,-1,-1,-1
1532321772500,-1,-1,1,0,-1,-1,-1,-2
1532321772505,-2,0,-2,-1,0,-2,-3,0
1532321772510,1,-2,1,0,-1,-1,0,-1
1532321772515,-1,-2,-1,-1,-1,-2,-1,0
1532321772520,0,-1,-1,0,-2,0,-1,-1
1532321772525,0,-1,0,-1,-1,-1,-2,-1
1532321772530,-1,0,0,0,-1,-1,-1,-1
1532321772535,1,0,-1,-2,-1,-1,-1,-2
1532321772540,-1,0,-1,-1,-2,-1,-2,0
1532321772545,-2,-1,0,0,-3,-1,0,-2
1532321772550,-1,0,-1,-2,-1,-1,-2,0
1532321772555,-2,-2,0,-1,0,-1,-1,0
1532321772560,-1,-1,-1,-1,1,0,-1,-1
1532321772565,0,-1,1,0,-1,0,-1,-1
1532321772570,1,1,-1,0,-2,-1,0,0
1532321772575,0,1,0,-1,-2,-1,0,-1
1532321772580,-1,-1,-2,-1,-2,-2,1,-1
1532321772585,-1,-1,-1,-1,-1,-1,-1,0
1532321772590,-1,-2,-1,0,0,0,-2,-1
1532321772595,-1,-1,-1,-2,0,0,-1,0
1532321772600,-2,-1,0,-2,-3,0,0,0
1532321772605,-2,-1,-2,0,-1,-1,0,-1
1532321772610,0,1,-1,0,0,-2,0,-1
1532321772615,-1,-3,-1,0,-1,1,-2,-1
1532321772620,-2,-1,0,-1,0,0,-2,-1
1532321772625,-1,0,0,1,-1,2,-1,1
1532321772630,-1,-1,-1,-1,0,0,0,0
1532321772635,0,0,-2,0,0,-1,-1,-1
1532321772640,0,1,0,0,-1,-2,0,-2
1532321772645,0,-1,0,-2,-1,-1,-1,-3
1532321772650,-1,0,0,0,-2,-2,0,-1
1532321772655,-3,1,-2,-2,-1,0,0,1
1532321772660,0,-1,-1,-1,-1,-2,0,-1
1532321772665,0,0,0,0,0,-2,-2,0
1532321772670,0,-1,-2,-1,-1,-1,-1,0
1532321772675,-1,0,-1,-1,-1,0,0,0
1532321772680,-1,-1,-1,-1,1,0,-2,-1
1532321772685,0,-2,-1,1,0,0,2,-2
1532321772690,-3,0,-1,0,-2,0,-2,1
1532321772695,0,0,-1,-3,-3,0,-1,0
1532321772700,-1,1,-1,0,0,-1,-3,-1
1532321772705,0,1,0,-1,-1,0,-2,-2
1532321772710,-1,-3,0,-1,-1,-1,0,-1
1532321772715,0,-2,-1,0,-2,-2,-1,-1
1532321772720,-3,-2,-2,-1,-1,1,1,0
1532321772725,-1,-2,-1,-1,-2,0,-2,1
1532321772730,-1,-1,-1,-2,-2,-1,-1,-2
1532321772735,-1,-1,2,0,-2,-2,-1,0
1532321772740,0,0,0,-1,-1,-3,0,-2
1532321772745,-2,-1,1,-2,-1,-1,-2,0
1532321772750,-1,-2,-2,-1,1,1,-1,-1
1532321772755,-1,-1,0,-2,1,-2,-1,0
1532321772760,0,0,1,-3,1,1,-1,0
1532321772765,-1,0,0,-1,1,-1,-2,0
1532321772770,-1,0,1,0,0,-1,0,-1
1532321772775,-1,-2,-1,0,-1,0,-1,0
1532321772780,1,0,-1,0,-1,0,-2,0
1532321772785,-1,-1,-1,-1,-2,0,-2,-1
1532321772790,0,-2,0,-1,0,1,0,0
1532321772795,-2,-2,-1,0,1,-1,0,-1
1532321772800,0,-2,-1,-1,-1,-1,-2,-1
1532321772805,0,-1,-3,0,0,-1,-1,-1
1532321772810,-1,-2,-2,1,0,-1,0,-2
1532321772815,0,1,0,0,-1,0,-1,0
1532321772820,-1,-2,-1,-1,-1,0,-1,-1
1532321772825,0,0,-1,-1,0,-2,1,-2
1532321772830,0,-1,1,-2,0,-1,-1,-3
1532321772835,-1,0,0,-1,-1,-3,0,-3
1532321772840,1,0,0,-1,-1,-2,-2,0
1532321772845,-1,0,-1,0,-1,-1,-2,-1
1532321772850,-1,0,-2,-1,-1,1,-1,1
1532321772855,-1,0,0,0,-1,-1,-1,-2
1532321772860,-1,-1,-1,-2,-2,1,-1,0
1532321772865,0,-1,-2,-1,-1,-1,-2,1
1532321772870,-1,-2,-1,-2,-1,0,0,0
1532321772875,1,-1,-1,-1,-1,-2,0,-1
1532321772880,-2,-1,-1,-2,-2,-4,0,-2
1532321772885,0,-1,-2,-1,0,-1,-2,-1
1532321772890,-2,-1,-1,-1,-1,-1,1,0
1532321772895,1,-1,-2,0,-1,0,0,-2
1532321772900,-1,-2,-2,0,-1,-1,-2,0
1532321772905,-1,-1,-1,0,-2,-1,-2,0
1532321772910,-2,0,-2,0,-1,0,0,-2
1532321772915,-1,-1,-1,-1,-2,-3,0,-2
1532321772920,-1,0,-1,0,0,-1,1,0
1532321772925,-1,-2,-1,-1,-1,0,-1,-2
1532321772930,-2,-1,-1,0,-2,-2,0,-1
1532321772935,0,-1,-1,-2,-1,2,0,0
1532321772940,0,1,0,0,-2,-1,0,-1
1532321772945,0,-2,-1,0,0,-1,1,-2
1532321772950,-1,-1,-1,0,0,0,-2,-1
1532321772955,-1,-2,0,0,0,-1,-1,-1
1532321772960,0,0,0,0,-1,0,0,-2
1532321772965,0,0,-1,-1,0,2,1,0
1532321772970,0,0,0,-3,-1,0,0,-3
1532321772975,-1,-1,-2,-1,-1,1,0,-1
1532321772980,-2,-1,-1,-1,0,-1,-1,0
1532321772985,0,-2,-1,-2,-1,0,-3,-3
1532321772990,0,-1,-1,0,0,-1,-2,0
1532321772995,0,-1,1,-1,-1,-1,-1,-1
1532321773000,-2,-1,-1,-1,-1,0,-2,0
1532321773005,0,-3,-1,-2,-1,2,0,0
1532321773010,-1,-1,-1,-1,-1,-2,-1,0
1532321773015,0,1,-1,-1,0,-1,-1,0
1532321773020,-1,-2,-1,-1,-1,-1,0,0
1532321773025,-1,-1,-1,-1,0,-3,0,0
1532321773030,-1,-2,-1,0,-1,0,-2,-1
1532321773035,-2,-3,0,1,-3,-1,-1,1
1532321773040,0,-2,-3,-1,-1,-1,0,-1
1532321773045,-1,0,0,-1,-2,-1,-1,-1
1532321773050,-1,-1,1,1,-1,-2,-1,-1
1532321773055,-3,-2,-3,-2,0,-2,-1,0
1532321773060,1,0,-1,-1,-1,0,-1,-2
1532321773065,-1,-2,-1,-1,-1,0,0,-1
1532321773070,0,1,-1,-2,1,-1,0,0
1532321773075,0,0,0,-3,1,0,-1,-2
1532321773080,0,-1,0,0,-2,0,-1,0
1532321773085,1,-1,-1,-1,0,-1,-1,0
1532321773090,-1,0,0,-1,-1,-2,0,0
1532321773095,0,0,-1,1,-3,0,-1,0
1532321773100,-1,-1,-2,0,1,-1,-1,-1
1532321773105,-2,-2,-2,1,-2,-2,0,0
1532321773110,0,-1,-1,-1,-1,0,-2,-1
1532321773115,-1,-1,-1,-1,-1,0,-2,0
1532321773120,0,-1,1,-1,-2,2,1,-2
1532321773125,-2,0,0,-1,0,-1,-1,-1
1532321773130,-1,-3,0,-1,-1,1,0,1
1532321773135,1,0,-1,0,1,-2,-1,0
1532321773140,0,0,-2,-1,1,-1,-1,-2
1532321773145,-3,0,-2,-1,0,-1,-1,-2
1532321773150,0,0,0,-2,0,0,0,0
1532321773155,-1,0,0,-1,1,0,-2,-1
1532321773160,-1,-2,1,-2,-1,-1,-1,1
1532321773165,-1,-1,-2,0,-1,0,-1,0
1532321773170,-1,-1,-1,0,-1,-1,-1,-1
1532321773175,-1,-1,-1,-1,-1,0,-1,-1
1532321773180,-1,-1,-2,-2,0,-1,-1,-2
1532321773185,1,0,-2,0,1,-1,-2,-1
1532321773190,-2,-1,-1,0,-2,0,-1,0
1532321773195,-1,0,0,-1,-1,0,1,-2
1532321773200,0,0,2,-1,-1,-2,0,-2
1532321773205,0,-1,0,-1,-1,0,0,-1
1532321773210,-1,0,-1,-1,-2,0,-2,0
1532321773215,-1,-2,-1,-1,-1,-2,-1,-1
1532321773220,-1,-1,-1,-1,-2,-2,-2,0
1532321773225,0,1,-1,-1,-1,-2,1,-1
1532321773230,0,0,-1,-2,1,0,0,-2
1532321773235,-1,-1,-2,-2,-1,-1,0,1
1532321773240,-1,-1,-1,0,0,-2,-1,0
1532321773245,-1,-1,-1,-1,-1,-1,-1,-1
1532321773250,-1,-1,0,-1,-3,-1,0,-1
1532321773255,1,-1,-1,0,-2,0,0,-1
1532321773260,-1,0,-1,-2,-1,-1,-1,-1
1532321773265,0,1,-2,-1,1,0,-1,-4
1532321773270,-1,-2,-1,0,0,-1,0,1
1532321773275,-1,-2,0,0,0,-2,-1,-2
1532321773280,1,-1,-1,0,-1,-2,0,-1
1532321773285,-1,-2,0,-2,-1,-2,-2,1
1532321773290,0,2,-1,-1,-1,1,0,1
1532321773295,-2,-1,-1,-2,0,-1,-1,-1
1532321773300,1,-1,0,0,0,0,0,-1
1532321773305,-2,0,1,-1,0,-2,-1,-1
1532321773310,1,-2,0,0,-2,-2,-1,-1
1532321773315,-1,0,-1,0,-3,-2,-1,0
1532321773320,0,-2,-1,0,0,0,0,-1
1532321773325,-1,0,-1,-2,0,-2,-2,1
1532321773330,-1,-1,-2,0,-2,-1,1,0
1532321773335,-1,-2,-1,-1,0,0,-1,-2
1532321773340,-2,0,-2,-1,-1,0,1,0
1532321773345,0,-1,0,2,-2,1,1,0
1532321773350,-1,-1,-2,-2,0,1,-1,-2
1532321773355,-1,0,0,0,-1,-1,-2,-1
1532321773360,-3,-2,0,0,-1,0,-1,-1
1532321773365,-3,-1,-2,-1,1,-2,0,-1
1532321773370,-1,0,0,-1,0,-1,-2,0
1532321773375,0,-1,-1,-1,-2,1,-1,0
1532321773380,-1,0,-1,1,-2,0,-2,-1
1532321773385,-1,-1,-1,0,-1,0,0,-1
1532321773390,-2,-1,-1,0,1,-2,0,0
1532321773395,-1,-1,1,-1,0,-1,-3,1
1532321773400,0,0,0,-1,-1,-1,0,-1
1532321773405,-1,-2,-1,0,-2,0,0,-1
1532321773410,0,0,-2,1,0,0,0,-1
1532321773415,0,-1,-1,-1,-2,-2,0,-1
1532321773420,-1,-2,-1,-1,-1,-2,-1,-1
1532321773425,1,0,-1,-1,0,-1,0,-1
1532321773430,0,-2,-2,-1,-1,0,-1,1
1532321773435,0,0,-1,-1,0,-1,-1,-1
1532321773440,2,-2,-1,-1,-1,0,-1,-1
1532321773445,0,-1,-3,-2,-1,-1,0,0
1532321773450,-2,0,0,0,1,-2,0,0
1532321773455,-2,-1,-1,-2,-1,-1,0,0
1532321773460,-3,-1,-2,-2,0,-1,-2,-1
1532321773465,0,-1,-2,0,0,-1,0,-1
1532321773470,1,-2,-1,-1,-1,0,-2,0
1532321773475,0,-1,-1,0,0,-1,0,-1
1532321773480,0,-1,-1,-1,-2,-1,0,-1
1532321773485,-1,-1,-1,0,-2,-2,-1,-1
1532321773490,0,0,-2,-1,-2,-2,-1,-2
1532321773495,0,-1,0,1,-1,-1,-1,-1
1532321773500,-1,0,0,-1,-1,0,0,-1
1532321773505,-2,-1,-1,-2,-2,0,-1,0
1532321773510,-2,0,0,-1,-2,1,0,-2
1532321773515,-2,0,-2,-1,-2,-1,-2,0
1532321773520,0,1,-2,0,-1,0,0,-1
1532321773525,0,-2,1,-2,0,-1,0,0
1532321773530,0,-1,-1,-2,-1,0,-1,-1
1532321773535,-1,-1,-1,-1,0,1,-2,-1
1532321773540,0,-1,-2,-2,0,-2,0,0
1532321773545,0,-1,-2,0,-1,0,0,-1
1532321773550,0,-2,-1,0,-2,-2,0,-3
1532321773555,0,0,-2,-1,-3,-1,-1,-1
1532321773560,1,-2,0,0,0,0,-1,0
1532321773565,-2,0,0,-3,-1,0,0,0
1532321773570,-1,-1,1,0,0,-1,-1,1
1532321773575,-3,-2,-1,0,-1,-1,-1,0
1532321773580,0,0,0,-1,-1,-1,0,-1
1532321773585,-1,-1,-3,1,-1,-1,-3,-1
1532321773590,-1,-1,-1,0,0,-1,0,-1
1532321773595,0,-1,0,0,-1,-2,1,1
1532321773600,-1,-3,1,0,-2,-2,0,-1
1532321773605,-2,-2,-1,-1,-1,-1,0,-1
1532321773610,0,-1,-2,1,-1,-1,-1,-2
1532321773615,-1,-1,0,-1,-1,-1,-1,-1
1532321773620,-2,-2,-1,-1,0,0,-1,-1
1532321773625,1,-1,0,-2,-1,-1,-1,-1
1532321773630,-2,-1,-1,0,-2,-1,-2,-1
1532321773635,-1,0,-3,-3,2,0,-1,-1
1532321773640,0,0,-1,-1,0,-1,0,-3
1532321773645,1,-1,-2,0,0,-1,-1,-2
1532321773650,-1,-1,-1,-1,-1,-2,-3,-1
1532321773655,-1,0,-1,0,0,-1,0,-1
1532321773660,-2,-2,1,-1,-2,0,-1,0
1532321773665,-2,0,-1,0,1,1,-2,-1
1532321773670,0,-1,-1,0,0,-2,-1,0
1532321773675,-1,-2,0,-1,0,-2,1,0
1532321773680,-1,-1,0,0,-1,-1,0,-1
1532321773685,-1,0,-2,1,-1,0,0,-1
1532321773690,0,0,-1,0,0,0,-2,1
1532321773695,-1,-1,-1,1,-1,0,-2,-2
1532321773700,0,0,-2,-1,0,-2,-2,0
1532321773705,0,-1,0,0,-1,-2,-1,-1
1532321773710,1,-2,1,-1,-1,-1,-1,0
1532321773715,0,0,0,0,-2,1,1,-2
1532321773720,-2,0,-3,-1,-1,0,0,0
1532321773725,-1,-1,0,-1,0,-1,-1,-1
1532321773730,0,0,-1,-2,-1,1,0,0
1532321773735,0,-2,-1,-2,-2,-1,-1,1
1532321773740,-1,-1,-1,0,0,-3,-1,0
1532321773745,0,-1,-1,-1,-1,-2,0,-2
1532321773750,-1,-1,0,-2,0,-1,-1,-1
1532321773755,-1,0,0,0,0,0,-1,0
1532321773760,-1,0,-2,0,-2,-1,-1,-1
1532321773765,0,-2,-1,-2,-1,0,0,-1
1532321773770,0,-1,-1,-1,0,0,-1,2
1532321773775,-1,-1,-1,0,-1,0,-1,-1
1532321773780,0,-3,0,-1,-1,-1,0,-1
1532321773785,-2,-1,-1,2,-2,-2,-1,0
1532321773790,-1,0,-1,-3,0,0,0,-3
1532321773795,-2,-1,-1,-2,0,0,-1,-1
1532321773800,1,0,-1,-1,-1,1,-1,0
1532321773805,-2,-1,-1,0,0,0,1,-2
1532321773810,1,0,-1,-1,-2,-1,0,-1
1532321773815,0,-2,-1,0,-3,-2,-1,0
1532321773820,-2,-1,0,0,-1,-1,-2,-2
1532321773825,1,-1,0,-2,0,-2,-1,0
1532321773830,-1,0,-1,0,0,0,0,-1
1532321773835,1,0,1,-1,-1,0,-1,0
1532321773840,-2,-2,-1,0,-1,-2,1,-1
1532321773845,-2,-2,1,-1,-1,-2,-1,0
1532321773850,-1,0,-1,0,-2,-1,0,-3
1532321773855,0,-1,-2,-1,1,-1,-1,0
1532321773860,1,0,-1,-2,-1,0,1,0
1532321773865,-1,-1,-1,1,-1,-1,-1,0
1532321773870,-3,0,-2,-2,2,0,-1,0
1532321773875,-1,0,0,-1,0,0,0,-1
1532321773880,1,-1,0,-1,-1,0,-1,-1
1532321773885,-1,-1,0,-2,-1,-1,-3,0
1532321773890,-2,-1,-1,1,-2,-1,-1,-2
1532321773895,-2,-1,-1,-1,1,-1,-1,-2
1532321773900,-1,0,-1,-2,0,-2,-1,0
1532321773905,0,-1,-1,-1,-1,-1,0,-1
1532321773910,-1,-1,-1,2,-2,-1,0,0
1532321773915,-2,0,-1,-2,-1,-1,-4,-1
1532321773920,0,-2,-1,-1,-1,-2,1,-1
1532321773925,0,0,-2,0,-2,-1,0,1
1532321773930,-2,0,1,-2,1,-1,1,-1
1532321773935,-1,-1,-1,1,1,-2,-1,-1
1532321773940,-2,1,-1,-2,-1,1,-2,-2
1532321773945,0,-1,-1,-1,0,0,0,0
1532321773950,0,-1,1,-1,-2,0,0,-2
1532321773955,0,-1,-1,-1,-1,-2,-1,-1
1532321773960,-1,-1,0,-1,-3,-2,-1,0
1532321773965,-1,-3,-2,-2,-1,-2,-1,-2
1532321773970,-1,-1,-1,-1,0,-1,-2,1
1532321773975,-1,-1,1,-1,0,-2,0,0
1532321773980,0,0,-3,-1,-1,-1,-1,-1
1532321773985,0,0,-1,-1,-2,-1,-1,-1
1532321773990,1,-2,-2,-1,-4,-2,-1,-1
1532321773995,-2,0,-2,-1,-2,2,-1,-1
1532321774000,-2,-2,0,0,0,0,0,0
1532321774005,0,1,-1,-1,-2,1,-1,-1
1532321774010,-1,-1,-1,0,-2,-1,0,0
1532321774015,-1,0,-1,-1,-4,-1,1,0
1532321774020,0,-1,0,-1,0,-1,-1,0
1532321774025,-1,-1,-2,-1,-1,-1,-1,-1
1532321774030,-1,-1,1,-1,-3,0,-1,-1
1532321774035,0,-2,0,-1,0,-1,-1,-1
1532321774040,0,-1,-3,0,-1,-1,-1,-1
1532321774045,0,-2,1,-1,0,0,0,-1
1532321774050,0,-1,-2,-1,0,1,-2,-1
1532321774055,-3,0,0,0,0,0,-1,-1
1532321774060,-1,0,1,0,-1,-2,-1,0
1532321774065,-1,-2,1,-1,0,1,0,-2
1532321774070,1,-2,-1,-1,0,-2,-2,-1
1532321774075,0,-1,-3,-3,0,-1,0,-1
1532321774080,-1,-1,-2,-3,-2,-1,-1,0
1532321774085,-3,-1,-2,0,-1,0,0,1
1532321774090,-1,-2,1,-1,0,-1,1,-2
1532321774095,1,-2,-1,-1,0,0,1,0
1532321774100,1,-1,-2,-2,0,0,-1,-2
1532321774105,-1,0,-1,-1,-1,0,-2,-1
1532321774110,-2,-1,0,0,-1,-1,-1,-1
1532321774115,-1,-1,0,0,0,-2,-2,-1
1532321774120,-2,0,0,0,0,0,-1,-1
1532321774125,0,-2,-1,0,-2,-2,-1,0
1532321774130,-2,0,-3,-3,-2,-1,-1,0
1532321774135,-1,-1,-1,-1,-1,-1,-1,-2
1532321774140,0,-1,-1,-1,-1,-1,0,-1
1532321774145,0,-1,0,-3,0,-2,1,0
1532321774150,1,-1,-2,-2,0,0,-2,0
1532321774155,-1,-2,1,-1,-1,-3,-1,-1
1532321774160,1,-2,-1,-1,-1,2,0,-1
1532321774165,0,-1,-1,-2,-1,-1,0,-3
1532321774170,-1,-1,-1,-3,0,0,1,-1
1532321774175,-2,-1,-2,0,-1,-1,-3,-1
1532321774180,-2,-3,0,0,0,-1,-1,1
1532321774185,0,0,-1,0,-1,1,-2,-1
1532321774190,0,-1,-1,-1,0,-1,0,0
1532321774195,-2,0,-3,1,1,0,-1,-2
1532321774200,-1,0,-1,0,0,-2,-1,-2
1532321774205,-1,-1,-1,0,0,0,0,-1
1532321774210,-1,0,0,-2,0,-1,-1,1
1532321774215,1,-1,0,-1,-3,0,0,0
1532321774220,0,-1,0,-1,-1,-2,-1,0
1532321774225,1,0,-1,-1,0,-1,-1,0
1532321774230,-2,-1,-2,-1,-1,0,-2,-1
1532321774235,1,0,0,-2,0,2,0,-2
1532321774240,-2,0,-1,-2,-2,-1,-3,0
1532321774245,-1,-1,1,0,-1,-1,0,-1
1532321774250,-1,-2,-2,0,0,-1,-2,-1
1532321774255,0,0,-1,-2,-1,-1,0,0
1532321774260,-2,-1,-1,-2,0,1,0,-2
1532321774265,0,0,0,0,0,0,-2,-1
1532321774270,-1,0,1,1,-1,-1,1,0
1532321774275,-1,-2,0,0,-2,-1,-2,-1
1532321774280,-1,0,-2,0,-1,-1,-1,-1
1532321774285,-1,-1,-1,-1,0,-2,-1,-1
1532321774290,-1,-2,-1,0,0,0,0,-1
1532321774295,0,-1,-2,-2,-2,0,1,-2
1532321774300,-1,-1,0,0,0,-1,-2,0
1532321774305,-1,-1,-1,-2,0,-1,-1,0
1532321774310,1,-1,0,0,-3,-1,-1,-1
1532321774315,-1,-1,-2,1,-1,-1,-1,-1
1532321774320,0,-1,-1,0,-2,0,0,-1
1532321774325,0,-2,-1,-1,-1,-1,-1,-1
1532321774330,0,-1,-2,-4,-1,0,-1,1
1532321774335,-2,1,-2,-1,-1,-1,1,-1
1532321774340,0,0,-1,-2,0,-1,1,-1
1532321774345,0,0,-1,1,-1,-1,0,-2
1532321774350,-1,-1,1,0,-1,1,-2,-3
1532321774355,-1,-2,-2,-2,0,-2,-1,-1
1532321774360,1,-1,1,1,-3,-1,0,-1
1532321774365,-2,0,1,-1,0,-2,-1,-1
1532321774370,-2,-2,-1,-1,-1,-1,-1,0
1532321774375,0,0,0,1,0,0,-1,0
1532321774380,-2,0,0,1,0,-2,-1,-1
1532321774385,-1,0,-1,1,-1,-2,-1,0
1532321774390,-1,-2,-1,-1,-1,-1,-2,-1
1532321774395,0,-2,2,0,0,0,-1,0
1532321774400,0,-1,-2,-3,0,-1,-1,1
1532321774405,0,-1,-1,-1,-2,0,-2,-1
1532321774410,-2,1,-2,-1,0,-1,1,-1
1532321774415,1,-1,-1,-1,-1,-1,-3,0
1532321774420,-1,0,-1,-1,-1,0,-2,0
1532321774425,0,-1,0,-1,-1,-2,0,0
1532321774430,-1,-1,1,1,-1,-1,1,-1
1532321774435,-1,-1,-1,-1,-2,-1,0,1
1532321774440,-1,-2,-1,1,-1,0,0,-1
1532321774445,0,0,0,-3,0,1,-1,-1
1532321774450,-1,-1,-1,0,-1,0,-2,0
1532321774455,-1,-1,0,0,0,-1,0,0
1532321774460,-2,-2,0,-2,0,-1,1,0
1532321774465,0,-1,-1,0,0,1,0,0
1532321774470,0,-1,0,0,0,0,0,0
1532321774475,0,-1,-1,-1,-2,0,0,-1
1532321774480,0,1,0,-1,-1,-1,-1,0
1532321774485,0,0,-1,-1,-1,-1,0,0
1532321774490,1,1,0,-2,-2,0,-2,-1
1532321774495,-1,-1,-1,-2,-1,-1,0,-1
1532321774500,-1,0,0,-1,-1,-2,-1,-2
1532321774505,-3,-1,-2,-1,-1,0,-1,0
1532321774510,-1,-1,0,0,-1,-1,0,0
1532321774515,-2,-1,-1,0,-1,-1,1,1
1532321774520,0,-1,-1,-1,0,1,-1,-1
1532321774525,0,-2,0,-2,0,0,0,0
1532321774530,0,0,-2,0,0,-2,0,-1
1532321774535,0,-1,-2,-1,-1,-1,-1,-1
1532321774540,0,0,0,-1,-2,0,1,-1
1532321774545,0,0,-1,0,-1,-1,0,-1
1532321774550,0,-3,-2,-1,0,-1,0,-1
1532321774555,0,1,-2,0,-1,-1,-1,-1
1532321774560,0,-3,-2,0,0,-1,-2,-1
1532321774565,-2,-2,-2,0,-2,0,-2,-1
1532321774570,-2,0,0,-1,-2,-1,1,0
1532321774575,-2,0,0,0,0,0,-2,-2
1532321774580,-1,0,-1,-1,-2,-2,-1,0
1532321774585,-1,-2,-1,1,1,-2,-1,-1
1532321774590,-1,0,-2,0,-1,0,-2,0
1532321774595,0,-1,0,1,-1,-1,-2,-1
1532321774600,0,0,-1,-1,-2,2,0,-1
1532321774605,-2,-2,0,-1,0,0,-2,0
1532321774610,-1,0,0,-1,-1,-1,-2,-1
1532321774615,-1,-1,-1,0,-1,0,-1,0
1532321774620,0,-1,-1,-1,-1,0,-1,0
1532321774625,-1,0,-1,-1,-2,-2,-1,-2
1532321774630,-2,-1,-1,0,0,-1,-1,-1
1532321774635,0,0,0,0,-1,-1,-1,-2
1532321774640,-2,-1,-1,0,-1,-1,-2,-1
1532321774645,0,-1,0,-2,1,0,0,-2
1532321774650,-2,-3,-1,0,-1,1,-1,0
1532321774655,0,-1,-2,-1,-1,-1,0,-1
1532321774660,-1,-1,-1,0,0,0,0,0
1532321774665,-1,-1,-2,0,0,-1,-1,1
1532321774670,0,1,-1,-1,0,-1,0,-1
1532321774675,-1,-1,0,-1,-1,-1,-1,1
1532321774680,1,-2,-2,0,-1,-1,-2,-2
1532321774685,0,1,-1,0,-1,0,-1,-2
1532321774690,-2,0,-1,-2,-1,-1,-2,0
1532321774695,-1,-1,-2,0,-1,1,-1,0
1532321774700,0,-2,0,-1,-1,0,-2,-1
1532321774705,0,-3,-1,1,-1,1,0,0
1532321774710,0,-2,-1,1,-1,-1,-1,2
1532321774715,-2,1,-2,-2,0,0,-1,0
1532321774720,-1,-2,-2,-3,-1,-1,0,-1
1532321774725,-1,-1,-1,-1,-2,-1,0,-1
1532321774730,-1,-2,-1,-2,-1,-2,-2,0
1532321774735,0,0,-2,-2,-1,-1,0,-2
1532321774740,-1,-2,-2,1,0,2,-1,-2
1532321774745,-1,0,-1,-1,-2,-2,0,0
1532321774750,0,0,-1,0,-1,-2,-2,0
1532321774755,0,-1,-1,0,0,-1,-1,-1
1532321774760,1,0,0,-1,0,-1,0,0
1532321774765,-1,-2,0,0,-1,-1,-1,0
1532321774770,0,2,-1,0,0,0,-2,-1
1532321774775,-1,-1,-2,-1,-2,-2,0,-2
1532321774780,-2,0,0,0,-1,-1,-1,-1
1532321774785,1,-1,-1,-1,0,0,-2,0
1532321774790,-1,-1,-2,-1,-1,0,-1,-2
1532321774795,-2,-1,0,1,0,0,-1,0
1532321774800,-3,0,-2,-1,-1,-3,-2,0
1532321774805,0,0,0,-3,-1,-1,0,-2
1532321774810,-1,0,-2,0,-1,-1,0,-2
1532321774815,-1,-2,0,-1,0,-1,-1,-2
1532321774820,-2,-1,-1,-1,-2,1,0,1
1532321774825,-1,-1,-2,-1,-2,0,-2,0
1532321774830,0,-1,0,-1,0,0,2,-1
1532321774835,-1,0,-2,-2,0,-1,-1,0
1532321774840,0,0,0,0,-1,0,-1,-1
1532321774845,-1,0,0,-2,-2,-1,0,-1
1532321774850,-2,-1,-2,-1,0,0,-1,-2
1532321774855,1,-2,0,0,-1,0,0,0
1532321774860,-2,-2,1,-1,-2,-2,1,-1
1532321774865,0,-2,-2,-2,-3,-2,0,-1
1532321774870,0,-3,-1,0,-1,0,-1,-1
1532321774875,-3,0,-2,0,0,1,-1,-1
1532321774880,-1,0,-1,-1,-2,-1,-1,-1
1532321774885,-2,-1,-1,-1,0,-1,-1,0
1532321774890,-2,-1,-1,-2,-2,-3,1,0
1532321774895,-1,-2,0,2,0,-1,0,-2
1532321774900,1,-2,-1,-1,0,0,-1,-1
1532321774905,-1,0,0,-1,-1,0,-3,0
1532321774910,-1,-2,0,-1,-1,0,0,0
1532321774915,0,-1,1,-2,-3,0,-1,0
1532321774920,0,0,1,-1,-1,-2,-1,-2
1532321774925,-1,-1,-1,-1,0,0,-1,-2
1532321774930,0,0,0,0,0,1,-1,-1
1532321774935,0,0,-1,-2,-1,0,1,-2
1532321774940,-1,-1,-1,-2,0,0,-1,-1
1532321774945,0,0,0,0,-1,-2,-1,0
1532321774950,-1,0,0,0,-2,-1,-2,-2
1532321774955,-2,0,-1,-1,-1,-2,-1,0
1532321774960,1,2,-2,-1,-2,-1,0,-2
1532321774965,1,-1,-2,0,1,-1,-1,-1
1532321774970,-1,-2,-1,-2,-1,-1,-1,0
1532321774975,-2,0,0,-1,-1,-2,-1,0
1532321774980,-1,-1,0,-3,1,0,-2,1
1532321774985,-2,0,-1,0,-2,-1,-1,-1
1532321774990,-1,0,0,0,-2,-2,1,-1
1532321774995,1,-2,0,-2,-1,1,-2,-1
1532321775000,0,-1,1,0,-1,-3,0,-1
1532321775005,-1,-1,1,1,0,0,-1,-1
1532321775010,-1,0,-1,-2,0,1,-2,-2
1532321775015,-2,-1,-2,0,1,-2,0,-3
1532321775020,0,0,1,-1,0,-1,0,-2
1532321775025,0,0,-1,0,-1,0,2,-1
1532321775030,0,0,-1,-1,0,-2,0,0
1532321775035,-1,0,-1,-1,-1,1,1,0
1532321775040,-1,-2,-1,-2,0,-2,1,-2
1532321775045,-1,-1,0,0,-2,0,0,-1
1532321775050,-3,-2,-1,-1,-2,0,0,-1
1532321775055,-1,0,-1,0,0,-2,-1,-1
1532321775060,-1,0,0,-2,1,-1,-1,-1
1532321775065,-1,1,1,-2,1,-3,0,-1
1532321775070,0,0,0,-1,-1,-1,0,-2
1532321775075,0,0,-2,-1,0,0,-2,-2
1532321775080,-1,0,-2,0,-1,-2,-2,0
1532321775085,0,-3,-2,-2,-1,-2,0,-1
1532321775090,-1,1,-1,2,0,-1,0,0
1532321775095,0,0,-1,-3,-1,-2,-2,0
1532321775100,0,0,-1,0,-3,0,-1,-1
1532321775105,-1,-2,-1,1,-1,-2,-2,-1
1532321775110,-1,-1,-2,-3,0,0,0,0
1532321775115,-1,-2,-1,0,-3,-2,-2,-2
1532321775120,1,-1,-1,-2,0,1,-1,-2
1532321775125,0,0,-1,-1,-1,0,-1,0
1532321775130,0,0,-1,0,-2,-2,0,0
1532321775135,-2,-2,0,-1,0,0,-2,-1
1532321775140,-1,-1,-1,0,-1,-1,0,-1
1532321775145,0,0,-2,-1,0,0,-1,0
1532321775150,-1,-1,0,-1,-1,-2,-2,-2
1532321775155,0,-1,-1,-1,-1,-1,-2,0
1532321775160,-1,-1,1,-2,-2,0,-2,-1
1532321775165,-2,-1,-2,1,0,-1,2,0
1532321775170,-2,-2,-3,-2,1,-1,-1,-1
1532321775175,0,-1,0,0,0,1,1,1
1532321775180,-1,0,1,-1,0,-1,-1,0
1532321775185,0,-3,-1,-2,-2,-2,-1,-1
1532321775190,1,-2,-1,-1,0,-1,-1,0
1532321775195,0,-2,-1,-1,-1,-1,0,-1
1532321775200,-2,0,0,1,-2,-1,0,0
1532321775205,-1,0,1,-1,1,2,-1,-3
1532321775210,0,-1,-1,0,-2,0,-1,1
1532321775215,0,-2,0,-2,1,1,-1,0
1532321775220,-2,-2,-1,-1,-1,-1,0,2
1532321775225,-1,0,-1,0,-1,-2,-2,2
1532321775230,1,-1,-2,0,1,0,-1,-1
1532321775235,-2,1,-1,0,-1,0,-1,-1
1532321775240,1,-1,-1,-3,0,-1,-1,-1
1532321775245,-2,-1,0,0,0,-1,-1,1
1532321775250,-1,-2,1,-1,0,-1,0,0
1532321775255,1,-2,-1,-1,0,-3,-2,0
1532321775260,0,-1,-1,0,-1,-2,-1,-1
1532321775265,-1,-2,-1,-2,-2,-1,-1,-1
1532321775270,-1,0,0,-2,-1,-1,0,0
1532321775275,0,-1,-2,-3,-1,-2,0,-1
1532321775280,1,0,-2,0,0,0,0,-1
1532321775285,-2,0,1,0,-1,-1,-1,-1
1532321775290,-1,-1,0,-1,-2,-2,-1,-1
1532321775295,-1,-2,2,-1,-1,-2,-1,0
1532321775300,0,-2,-1,-1,1,-1,-2,-2
1532321775305,-1,0,-1,-1,-1,-2,-2,-2
1532321775310,-1,-2,0,0,-2,-1,0,-1
1532321775315,0,0,-1,1,-2,-1,-2,1
1532321775320,-1,-1,1,-2,-1,0,0,-1
1532321775325,-3,-2,-2,-2,1,-1,0,1
1532321775330,-1,0,1,0,1,-1,0,-1
1532321775335,1,-2,0,-2,0,-1,0,-1
1532321775340,0,0,0,0,-1,0,-2,-1
1532321775345,1,-1,-1,-1,-1,-1,1,-1
1532321775350,0,-1,-2,-1,-2,-3,-1,-1
1532321775355,-2,1,-1,-2,-2,-2,0,0
1532321775360,-2,-1,-2,0,-2,-1,0,-1
1532321775365,0,0,0,0,-1,0,-2,-2
1532321775370,1,-1,-1,0,-4,2,0,-1
1532321775375,-1,-1,0,-2,2,1,-1,0
1532321775380,-1,0,1,-1,-3,-2,-1,0
1532321775385,-1,-1,-2,-1,-2,-1,-2,1
1532321775390,-2,-1,-1,-2,2,0,-1,-1
1532321775395,-1,-2,-1,0,-1,-1,-1,0
1532321775400,0,-1,-1,-1,1,-2,-2,-1
1532321775405,1,-2,-1,-1,-2,1,0,0
1532321775410,-2,1,-2,-2,0,-1,-1,-1
1532321775415,1,-1,-1,-1,-2,-1,-1,-1
1532321775420,-1,-2,0,0,0,-1,0,0
1532321775425,1,1,-1,-1,-1,-1,-1,-2
1532321775430,-1,-2,-1,0,0,0,-1,0
1532321775435,-1,0,0,-1,-1,0,-1,-1
1532321775440,-1,-1,-3,-1,-1,0,-2,-2
1532321775445,0,-1,0,-3,-2,0,-1,0
1532321775450,0,-2,1,0,-1,-1,-2,1
1532321775455,-2,0,-1,0,0,-2,1,-2
1532321775460,-1,-1,0,-1,-1,-1,0,-1
1532321775465,-1,-1,0,1,0,0,-3,-2
1532321775470,-1,-1,-2,-1,-2,-2,-1,1
1532321775475,-1,-2,-2,0,-1,-2,-1,0
1532321775480,-1,-2,-1,0,0,-1,0,0
1532321775485,-2,0,-1,-1,-2,0,1,-1
1532321775490,0,-1,-1,-1,-3,0,-1,-1
1532321775495,0,-1,-1,-1,0,0,-2,0
1532321775500,-1,0,-1,-2,1,0,-3,-1
1532321775505,-1,-2,-1,0,0,0,-2,-2
1532321775510,0,-1,0,-2,-2,2,0,-1
1532321775515,0,-1,-2,2,-2,-1,0,-2
1532321775520,-1,0,0,0,0,-3,-1,-1
1532321775525,-2,-1,-1,-1,-1,0,-2,0
1532321775530,0,0,0,0,0,-2,-1,0
1532321775535,-1,-1,0,-2,0,0,0,-1
1532321775540,0,-1,-1,0,-2,0,0,0
1532321775545,-1,0,-1,0,0,-1,1,-1
1532321775550,0,-1,-2,-2,-1,1,-1,0
1532321775555,-2,-1,0,-1,-1,0,0,-1
1532321775560,0,-2,-2,0,0,-1,-1,-1
1532321775565,0,-2,0,-1,0,1,-1,0
1532321775570,-1,0,-2,-1,0,0,0,-1
1532321775575,-1,0,0,-1,0,-1,-1,0
1532321775580,-1,-1,1,0,-1,1,-1,-1
1532321775585,0,-1,-1,0,-2,-1,0,0
1532321775590,0,-1,0,-3,0,-3,-1,-1
1532321775595,-1,-1,-1,-2,-1,-1,-1,-1
1532321775600,0,-2,0,-1,-1,-1,1,0
1532321775605,-2,0,-2,1,-1,-1,-1,0
1532321775610,-1,-1,-1,1,1,1,-1,-2
1532321775615,-1,-1,0,-2,-1,0,-2,0
1532321775620,0,-1,-1,-1,-2,-2,-2,0
1532321775625,0,-2,-1,-2,0,-1,0,-1
1532321775630,-2,-1,0,-2,0,0,-1,-1
1532321775635,-1,0,-1,-2,0,-1,-1,-1
1532321775640,0,0,-2,-2,-1,-1,-1,0
1532321775645,0,0,-1,-2,0,-1,0,0
1532321775650,-2,0,-1,0,0,-1,-3,-1
1532321775655,-2,-1,-1,0,-1,0,-1,-1
1532321775660,-1,-1,0,1,0,0,0,-2
1532321775665,-1,-1,-1,-2,-1,0,-3,-1
1532321775670,0,-1,-1,0,-2,-1,-1,1
1532321775675,0,0,-1,-1,-1,-2,2,1
1532321775680,-1,0,-3,0,-1,0,-1,-1
1532321775685,0,0,0,0,-1,0,-1,-1
1532321775690,-1,0,0,0,-1,-1,2,-2
1532321775695,2,0,0,0,-1,-1,0,0
1532321775700,-1,0,0,-1,-2,0,-1,0
1532321775705,0,-1,-1,0,-1,-1,1,-1
1532321775710,1,-2,-3,0,-2,0,-1,-1
1532321775715,-1,0,-2,1,-2,-1,-3,-3
1532321775720,0,0,-1,-1,-1,-2,-3,-1
1532321775725,-2,-1,-1,-1,0,1,0,-1
1532321775730,-1,0,-1,-1,0,-1,-1,-1
1532321775735,-3,-3,0,-1,-1,-1,-1,-1
1532321775740,-1,-1,-2,-2,1,0,1,0
1532321775745,-2,-1,0,-1,-1,-1,-1,1
1532321775750,-1,0,-2,-1,-1,-3,-1,-1
1532321775755,0,0,-3,0,0,0,-1,0
1532321775760,-1,0,0,-1,0,-2,0,-1
1532321775765,0,-1,0,-1,-1,0,-1,-1
1532321775770,0,-1,0,-1,1,-1,-2,0
1532321775775,-2,-2,0,0,-1,-1,-1,-2
1532321775780,0,-1,-1,-1,0,0,-2,0
1532321775785,0,0,-1,-1,-1,-2,-1,-1
1532321775790,-1,-1,-1,-1,-1,-1,-1,-1
1532321775795,-1,-2,-2,-1,-1,0,0,-2
1532321775800,0,0,0,-2,-2,0,-1,-1
1532321775805,0,0,-1,-1,-1,-3,-3,-1
1532321775810,0,-1,-1,-2,-1,0,0,0
1532321775815,-2,0,0,0,0,0,-1,-1
1532321775820,1,-1,0,0,-1,-1,0,-1
1532321775825,0,-2,0,0,0,0,-1,-2
1532321775830,0,0,0,-1,-1,-1,0,0
1532321775835,1,-1,-1,-2,-1,-1,-1,-1
1532321775840,-1,-2,-2,-2,-2,-1,-1,-1
1532321775845,-2,-1,-2,-1,-2,-1,0,0
1532321775850,-2,-1,-1,0,0,0,-1,-1
1532321775855,0,-1,-1,-1,0,1,-1,0
1532321775860,-1,0,1,0,1,0,-1,-2
1532321775865,0,-2,-1,-1,-3,-2,-3,1
1532321775870,-1,-1,-2,1,-3,-1,0,0
1532321775875,-1,-1,-1,-4,-4,-1,-1,0
1532321775880,0,-1,0,-1,-2,-2,0,0
1532321775885,0,-1,0,0,-1,-1,-2,-2
1532321775890,0,-1,-2,-1,0,-1,-1,-1
1532321775895,-1,-2,0,1,-1,-1,0,0
1532321775900,0,-1,-1,0,-2,-1,-1,0
1532321775905,0,0,2,-1,0,-3,-1,-2
1532321775910,-2,0,2,0,-1,-3,-1,-1
1532321775915,0,1,-1,-2,0,5,-1,0
1532321775920,-1,-2,-1,-1,-1,-2,-1,-1
1532321775925,-3,0,-1,-1,-3,-4,1,-1
1532321775930,-1,-1,0,-1,1,1,-2,1
1532321775935,-1,-1,0,-1,-6,-5,-1,-2
1532321775940,-2,1,-2,-1,0,-1,1,-1
1532321775945,0,0,-2,-1,-1,2,-1,-1
1532321775950,-1,0,0,1,1,-4,-1,-2
1532321775955,0,1,-2,-2,-1,-4,1,0
1532321775960,0,-1,0,1,0,-3,-1,0
1532321775965,-1,-1,-1,0,4,3,1,-1
1532321775970,-1,-1,-2,-2,-7,-3,-2,-2
1532321775975,-2,-1,-1,0,0,-9,-4,-2
1532321775980,-1,0,-3,-2,-7,8,2,-2
1532321775985,-1,0,-2,-4,-1,-12,-11,-2
1532321775990,-1,-1,0,1,5,2,9,1
1532321775995,0,1,0,-1,2,8,2,0
1532321776000,-2,-1,1,0,1,-3,-2,-2
1532321776005,-1,-1,-2,3,3,10,4,0
1532321776010,0,0,0,1,-5,-6,-5,-1
1532321776015,-2,-2,-1,-1,2,-6,-4,0
1532321776020,1,-1,0,-2,-8,9,5,1
1532321776025,-1,-1,-1,-4,-5,-17,-7,-1
1532321776030,-1,-1,-2,2,-3,-1,0,-2
1532321776035,-1,-2,-2,0,-1,11,0,0
1532321776040,-2,-1,-1,-3,0,-19,-8,1
1532321776045,1,-2,-1,0,0,8,6,-3
1532321776050,-1,0,-1,-2,3,4,1,0
1532321776055,-2,-1,-1,0,-1,-1,-1,-1
1532321776060,-2,-1,1,3,6,4,0,-2
1532321776065,0,0,-1,-1,-5,-5,0,0
1532321776070,-1,-2,-3,-1,1,-5,-2,-3
1532321776075,1,-1,-2,-3,-7,-13,-2,0
1532321776080,-2,-3,-5,-5,-4,-1,0,0
1532321776085,0,-1,5,2,3,10,0,2
1532321776090,1,1,0,6,7,3,4,1
1532321776095,1,1,1,-7,-4,-6,-12,0
1532321776100,1,0,-2,-3,3,-8,5,-3
1532321776105,0,0,-5,-10,-11,2,-3,-2
1532321776110,-2,0,0,-7,-12,4,0,0
1532321776115,-2,-4,2,9,7,-2,3,-2
1532321776120,-2,-1,-1,2,6,-4,-20,0
1532321776125,0,-1,1,1,1,3,7,-1
1532321776130,1,-2,-1,0,-4,-5,-4,-1
1532321776135,-1,-1,-3,-3,1,-2,-2,-2
1532321776140,0,-1,0,0,-8,3,-2,-2
1532321776145,0,-1,0,3,6,-2,-3,0
1532321776150,-1,1,-2,-1,4,6,4,-1
1532321776155,-1,0,-3,-4,-7,-3,3,-1
1532321776160,1,-2,-1,1,0,3,-1,-4
1532321776165,0,0,1,1,1,-3,-2,-4
1532321776170,-2,-4,0,-5,-4,3,-4,0
1532321776175,-2,2,0,3,1,12,5,-1
1532321776180,-1,3,-5,-2,4,-6,7,2
1532321776185,-3,-3,-3,2,1,-13,0,0
1532321776190,2,-17,-2,-2,2,10,-4,1
1532321776195,-3,12,1,-3,-5,0,-17,1
1532321776200,-1,1,0,2,-2,4,35,0
1532321776205,-2,2,-3,-1,1,-2,-6,1
1532321776210,-14,0,0,-5,-3,-7,-3,-1
1532321776215,7,-5,-4,-1,-1,5,6,2
1532321776220,-3,-2,1,0,2,1,-6,0
1532321776225,0,0,-1,3,4,2,2,-1
1532321776230,7,3,0,-1,-5,-6,0,-1
1532321776235,-8,-1,0,0,2,-2,1,-5
1532321776240,-1,5,-2,-3,-1,-3,-9,-2
1532321776245,-1,-5,-18,-4,-7,10,2,-2
1532321776250,-4,-4,11,3,-1,-10,-1,-1
1532321776255,7,-5,6,-1,-1,-4,6,-4
1532321776260,-14,-9,-10,2,3,2,-1,0
1532321776265,-2,-2,1,-4,0,2,-6,-1
1532321776270,4,5,-3,5,3,0,0,-5
1532321776275,1,-3,-3,-5,-4,-2,4,2
1532321776280,-5,-3,5,-6,-10,-13,-15,-2
1532321776285,9,3,3,3,3,13,21,5
1532321776290,-3,2,-5,0,1,-2,-17,-4
1532321776295,2,-2,1,2,6,-4,13,-1
1532321776300,3,0,-1,-1,-2,5,-7,0
1532321776305,-6,-1,1,-3,-4,-4,-7,-2
1532321776310,2,-4,-5,-7,-5,-2,6,-1
1532321776315,-5,4,3,1,0,2,0,-3
1532321776320,7,-13,0,0,0,-4,2,-3
1532321776325,-2,11,3,2,2,-6,-19,-2
1532321776330,3,6,1,-1,0,6,17,3
1532321776335,-4,-4,-5,-3,-4,-7,-16,-1
1532321776340,2,4,1,-3,4,7,2,0
1532321776345,4,-10,-4,-4,-7,-5,-1,-1
1532321776350,-9,-3,5,5,5,2,-4,-1
1532321776355,-2,1,-2,0,-2,-1,-7,-2
1532321776360,-7,-4,-1,-3,-5,-4,4,1
1532321776365,-6,2,1,1,-1,4,-3,-1
1532321776370,3,6,-7,-3,-3,-3,-3,0
1532321776375,0,0,2,4,5,5,2,-1
1532321776380,3,3,3,-2,5,-1,-7,1
1532321776385,1,1,-4,-6,-10,-12,0,0
1532321776390,-3,-3,-3,1,-1,8,-1,1
1532321776395,1,-1,0,0,2,-1,-14,1
1532321776400,3,4,-7,-7,-1,1,16,-2
1532321776405,-3,-16,-6,1,-6,-3,1,1
1532321776410,2,6,6,-5,2,-5,0,-1
1532321776415,-1,-1,-2,0,-5,3,2,-1
1532321776420,0,4,4,6,2,2,-6,0
1532321776425,-1,-5,1,0,6,1,3,1
1532321776430,0,-2,1,-3,-3,-4,-2,-2
1532321776435,1,-1,-11,-10,-5,-5,5,-1
1532321776440,-1,-3,-2,-1,-7,-5,-7,-2
1532321776445,0,4,3,-1,0,-2,3,-2
1532321776450,2,-2,0,6,6,4,1,0
1532321776455,0,-1,0,1,7,-3,-5,2
1532321776460,2,0,0,-1,-3,1,1,-2
1532321776465,-3,1,2,-2,-5,-5,-8,-2
1532321776470,0,-1,-5,-3,-3,-3,6,0
1532321776475,0,-4,-2,2,1,1,2,-2
1532321776480,-2,-1,-1,2,-1,1,-3,-1
1532321776485,-1,2,1,1,6,-2,0,-2
1532321776490,-2,-3,-6,-7,-10,-7,-3,-2
1532321776495,1,0,0,2,-1,3,9,3
1532321776500,-1,2,-1,1,3,0,-10,-3
1532321776505,-1,-3,-10,1,3,2,1,-2
1532321776510,0,6,12,2,-1,0,0,0
1532321776515,-2,-5,-2,-1,1,0,-13,0
1532321776520,-1,-1,1,-2,-7,-6,-4,-3
1532321776525,-1,1,1,0,7,0,-12,1
1532321776530,0,2,-6,-2,-2,12,32,-2
1532321776535,1,-4,1,-1,-3,-7,-11,-1
1532321776540,-1,-2,0,2,2,-1,0,-1
1532321776545,-1,1,0,-1,-2,-10,-10,-7
1532321776550,1,-4,-3,-9,-15,-6,-8,1
1532321776555,-4,1,2,-4,1,2,11,-3
1532321776560,1,-1,3,4,0,2,8,3
1532321776565,-1,-2,-5,-2,-1,0,7,0
1532321776570,-2,-3,0,2,2,-3,-10,1
1532321776575,-1,0,0,1,2,4,7,0
1532321776580,0,1,0,0,5,0,-5,0
1532321776585,-1,-7,-2,-4,-6,0,5,-1
1532321776590,-2,-1,-2,-1,2,-3,-5,1
1532321776595,0,4,-5,-1,-5,-6,-8,-2
1532321776600,-2,-5,0,-1,3,2,15,-2
1532321776605,-1,1,6,0,2,3,-9,4
1532321776610,2,-2,-3,4,1,-6,-10,-2
1532321776615,2,5,2,-1,-6,4,15,-1
1532321776620,-1,-4,-11,0,-1,-6,-7,0
1532321776625,-3,2,5,-6,-7,3,10,-2
1532321776630,-3,-2,-7,0,7,-1,-9,-1
1532321776635,-1,-4,2,0,1,-2,-9,0
1532321776640,0,-3,0,1,2,4,0,0
1532321776645,-3,-3,0,1,4,-3,7,-4
1532321776650,7,8,11,3,-1,0,-7,0
1532321776655,-3,-7,-16,4,3,-3,-3,-2
1532321776660,2,1,-3,1,6,0,-5,-3
1532321776665,1,-12,2,-2,-11,-5,1,-1
1532321776670,6,-5,4,-9,-6,4,3,-1
1532321776675,-7,0,4,-1,-1,-5,-5,-5
1532321776680,-1,1,1,3,4,-7,-7,0
1532321776685,1,4,-5,2,-3,5,10,-2
1532321776690,-1,-2,-1,5,4,-2,-8,-3
1532321776695,1,5,1,-7,2,-1,2,0
1532321776700,-1,-5,-8,-4,-9,-2,17,-4
1532321776705,2,5,-2,1,1,-2,-8,11
1532321776710,-5,-3,-2,2,0,-5,-20,-6
1532321776715,5,-1,2,5,4,15,30,8
1532321776720,-3,-2,-1,-3,-1,-1,9,-6
1532321776725,-2,1,-1,-5,0,6,9,-2
1532321776730,-4,-1,-1,-4,-5,-6,-5,2
1532321776735,1,1,-1,2,0,-7,-6,-4
1532321776740,1,-1,2,1,6,-2,-15,-2
1532321776745,-4,4,0,-6,-12,-1,7,-3
1532321776750,-3,-3,2,1,11,-1,-8,-1
1532321776755,0,1,-5,-3,-13,-2,-2,-1
1532321776760,-1,0,-1,-1,-2,-3,0,1
1532321776765,0,2,0,7,12,-9,-12,-1
1532321776770,-4,-3,-6,-8,-9,-4,3,-2
1532321776775,0,-1,2,3,7,-1,-5,-1
1532321776780,1,0,2,-1,-3,1,-4,2
1532321776785,-2,1,-3,1,5,5,0,-3
1532321776790,-2,-2,-3,2,0,2,12,2
1532321776795,2,2,2,-2,-4,2,-3,1
1532321776800,-1,0,-1,-1,-7,3,12,1
1532321776805,2,0,-3,-3,-1,-2,-7,-1
1532321776810,0,0,3,1,0,-3,2,0
1532321776815,0,0,-3,-5,-5,1,-7,-1
1532321776820,0,-1,-8,-5,-6,-1,-1,0
1532321776825,-3,-2,0,-1,-2,3,6,-1
1532321776830,-1,-1,-1,-6,-10,-10,-18,-4
1532321776835,-1,-2,-2,-1,4,1,13,-1
1532321776840,0,-1,2,5,2,-3,-3,-1
1532321776845,3,2,-3,-1,1,-11,-28,-1
1532321776850,-1,-1,-1,-1,-2,7,17,1
1532321776855,-2,0,-1,0,-3,5,3,-1
1532321776860,0,-1,5,3,-1,-6,-7,-2
1532321776865,-1,-1,-8,1,0,5,10,2
1532321776870,0,-1,1,0,5,2,-11,0
1532321776875,-1,3,1,-2,-6,-3,1,0
1532321776880,-2,-3,-2,-3,2,3,8,-1
1532321776885,-1,-1,2,-2,-5,-4,-11,-3
1532321776890,-1,0,-2,3,-2,0,6,-1
1532321776895,-2,-1,-1,-2,-2,-6,-9,-2
1532321776900,-2,-1,-1,1,5,0,-4,0
1532321776905,0,-4,-3,-7,-7,-3,0,-1
1532321776910,0,2,0,0,-1,0,9,1
1532321776915,-1,0,1,3,-1,1,-3,-1
1532321776920,-3,-2,-2,1,2,-3,-8,-3
1532321776925,0,1,2,2,3,-11,7,1
1532321776930,-2,-3,-2,-3,-5,10,2,-1
1532321776935,0,0,4,-3,-4,3,-4,0
1532321776940,1,1,-6,-1,3,1,-3,2
1532321776945,-2,0,0,1,5,-5,6,-1
1532321776950,-3,-3,0,-1,-7,-2,-7,-4
1532321776955,-1,-1,0,1,6,0,-4,-1
1532321776960,0,0,1,-3,-10,-8,-3,-2
1532321776965,1,-2,-1,-2,-3,-4,-5,0
1532321776970,-1,-1,1,3,4,7,4,-1
1532321776975,0,1,-4,-5,5,3,1,0
1532321776980,-2,-2,-2,-4,-11,1,7,1
1532321776985,-2,3,-1,-1,2,2,-4,-1
1532321776990,-1,0,1,1,7,2,-3,0
1532321776995,0,-1,-2,4,-8,-11,-6,-2
1532321777000,-1,-1,-3,-2,1,0,7,0
1532321777005,-1,-2,-1,-7,1,4,4,-1
1532321777010,-1,-2,0,-1,-9,-19,-14,-3
1532321777015,-2,-1,1,3,2,10,1,0
1532321777020,-1,-1,0,4,5,-12,-2,-1
1532321777025,-1,0,2,3,-3,18,27,-1
1532321777030,-1,0,0,-1,5,-8,-5,0
1532321777035,0,-1,-2,-2,-3,-12,-6,-1
1532321777040,-2,-1,4,-2,3,7,-5,-3
1532321777045,-1,-1,-10,-1,-9,-2,3,-1
1532321777050,-1,-1,-2,-1,3,2,1,1
1532321777055,-2,-3,-1,0,3,0,-8,-1
1532321777060,0,0,0,-1,-6,-14,1,-3
1532321777065,0,-1,4,1,-1,-7,-12,-3
1532321777070,0,-1,2,1,-1,4,3,1
1532321777075,0,-2,-6,-3,1,-9,-9,0
1532321777080,0,-1,0,-6,1,12,2,-2
1532321777085,0,-1,-3,-1,-5,-1,-4,-2
1532321777090,0,-1,1,0,1,-5,18,0
1532321777095,-1,0,0,1,1,2,-16,0
1532321777100,-2,0,-5,2,0,21,-3,-2
1532321777105,-2,-1,-4,-2,-3,17,17,0
1532321777110,0,-1,-2,-3,0,-22,-47,0
1532321777115,0,-1,5,-1,-1,-5,35,0
1532321777120,-2,0,-1,-1,-2,-8,-10,-2
1532321777125,-1,0,0,1,3,-8,-2,-1
1532321777130,-2,0,-1,-3,-6,13,0,-1
1532321777135,-1,-1,2,-2,-1,1,-3,-2
1532321777140,1,-1,-3,1,-1,-2,-2,1
1532321777145,0,3,-10,-2,3,-25,-6,0
1532321777150,-1,-7,2,-2,0,32,27,0
1532321777155,-2,-1,3,1,-1,-16,-25,-1
1532321777160,2,0,0,-5,3,15,33,2
1532321777165,-1,-2,-3,-2,-8,1,-12,-2
1532321777170,0,1,-3,1,4,-8,-2,0
1532321777175,-1,0,-4,-1,1,-6,0,-2
1532321777180,-1,-4,-2,3,1,-6,-1,-5
1532321777185,-1,1,8,-7,-4,-20,-12,1
1532321777190,-1,-2,-1,0,1,-6,-5,2
1532321777195,0,-1,4,4,3,11,-5,-1
1532321777200,-1,0,3,2,3,-28,-10,0
1532321777205,-2,0,-5,-1,8,27,7,-1
1532321777210,0,-1,-4,-3,-2,-5,-14,-3
1532321777215,-2,-3,0,-1,-9,11,4,0
1532321777220,1,1,-1,-1,5,-8,4,-1
1532321777225,-1,3,-1,-1,-6,-22,-19,-2
1532321777230,-2,-3,-2,-1,-5,5,10,0
1532321777235,0,-3,0,0,1,19,2,1
1532321777240,-1,1,-5,-3,-2,-16,11,0
1532321777245,1,-6,-1,0,1,3,1,0
1532321777250,-2,0,11,-1,-2,0,-10,-3
1532321777255,0,0,-9,3,5,1,-1,-1
1532321777260,0,-2,2,-1,-1,18,11,0
1532321777265,-1,1,1,2,-4,-14,12,-1
1532321777270,0,0,1,0,3,6,-3,-1
1532321777275,0,-1,1,-1,0,-13,-7,-2
1532321777280,1,4,5,4,7,10,-1,-2
1532321777285,-3,-6,-10,-5,-2,1,-1,-1
1532321777290,0,1,-4,-5,-12,-12,-1,0
1532321777295,-2,-1,-1,-7,-7,2,15,-1
1532321777300,0,-2,-4,2,1,-2,-25,-2
1532321777305,-1,1,7,2,-3,5,8,-2
1532321777310,0,0,-4,5,6,-5,2,0
1532321777315,-3,-2,1,2,10,7,-1,1
1532321777320,-1,-4,-2,-7,-15,5,11,1
1532321777325,-1,0,-2,-8,-1,-3,2,1
1532321777330,1,2,-1,-2,-2,-31,-26,-4
1532321777335,-1,0,4,4,4,38,2,1
1532321777340,-2,0,2,3,10,-17,-8,-3
1532321777345,1,0,-3,1,-6,9,10,-1
1532321777350,-2,-1,-2,-3,-3,7,6,-2
1532321777355,3,2,5,5,18,-12,-6,-2
1532321777360,0,-2,0,2,3,1,16,-1
1532321777365,-1,-2,-3,-8,-21,-18,-21,0
1532321777370,-1,-2,-5,-9,-3,-6,-3,-1
1532321777375,-2,0,0,-1,-9,11,8,-1
1532321777380,-2,-3,-4,2,20,22,9,1
1532321777385,3,-1,4,4,2,-10,-6,5
1532321777390,0,2,0,2,1,21,3,4
1532321777395,1,0,-1,-4,-5,-24,-27,-1
1532321777400,2,2,1,-1,-2,18,46,-3
1532321777405,-2,-1,1,7,15,2,-5,-7
1532321777410,-2,-2,1,2,-2,-7,-4,-2
1532321777415,-1,-4,-1,-3,7,24,19,-2
1532321777420,-4,-5,-3,-8,-30,-34,-17,-1
1532321777425,0,1,-2,-5,-5,1,-12,-4
1532321777430,0,-2,-2,-5,-9,2,15,0
1532321777435,-3,0,0,3,-7,-25,-14,0
1532321777440,0,1,2,5,-1,8,-6,1
1532321777445,-2,0,-2,-9,-14,-46,-14,-3
1532321777450,1,-1,-2,-1,5,73,44,7
1532321777455,0,1,-1,-2,-7,-12,-16,0
1532321777460,1,1,-2,2,5,0,-8,1
1532321777465,-1,-1,0,3,9,-2,-20,-6
1532321777470,2,0,6,8,9,-15,0,1
1532321777475,-2,-3,-4,-1,14,4,11,-1
1532321777480,-1,-3,1,1,-6,-20,-16,-1
1532321777485,0,1,0,1,7,-3,10,-1
1532321777490,0,-1,-4,3,17,17,-8,-2
1532321777495,-4,-4,0,0,-23,15,-14,-1
1532321777500,-1,-1,1,-4,-6,-8,20,0
1532321777505,0,0,0,-4,-14,-21,-20,-3
1532321777510,0,1,2,-1,7,2,-16,-1
1532321777515,0,0,-1,6,24,38,25,0
1532321777520,-2,-2,-1,-3,1,-31,-21,-5
1532321777525,-1,-3,-8,-4,-7,15,3,-2
1532321777530,0,-1,-1,-3,-20,-7,14,0
1532321777535,-2,-1,3,5,19,3,-15,-4
1532321777540,3,1,-3,-3,-10,-7,-7,0
1532321777545,-3,-1,1,0,-2,10,4,0
1532321777550,-1,0,-3,-2,1,-29,0,-3
1532321777555,-1,-3,-5,-2,3,9,24,7
1532321777560,1,4,8,9,26,21,-23,-5
1532321777565,-3,-1,-1,-3,-19,15,-2,2
1532321777570,-3,-3,-2,-6,-5,-5,6,-2
1532321777575,-2,-1,-1,2,6,-9,-7,-4
1532321777580,-1,-3,-1,-2,12,40,2,1
1532321777585,1,0,1,1,9,-29,-7,-3
1532321777590,0,0,-1,2,0,-8,-12,0
1532321777595,-1,-2,-2,0,2,43,16,0
1532321777600,-2,2,-2,-1,4,-35,-33,-4
1532321777605,0,1,0,0,-2,-2,39,2
1532321777610,0,-5,-2,0,-2,0,-7,-1
1532321777615,0,0,-2,-1,9,-8,1,-2
1532321777620,2,1,-4,0,-4,16,-2,1
1532321777625,1,0,-4,-2,0,6,2,5
1532321777630,1,1,2,-2,6,20,23,5
1532321777635,1,1,-5,-3,16,-10,-25,-7
1532321777640,-1,-5,2,-1,-9,-7,5,4
1532321777645,-1,1,5,1,-1,-22,-11,-5
1532321777650,0,0,-1,-6,-16,29,14,0
1532321777655,1,2,3,0,1,0,-10,1
1532321777660,-2,-1,3,-2,-10,-13,1,-7
1532321777665,0,-1,-9,1,7,-9,-2,8
1532321777670,-3,-1,4,1,-5,1,-7,-7
1532321777675,-4,-1,-2,1,-3,-2,11,1
1532321777680,3,-1,2,1,12,20,-5,-3
1532321777685,-3,-2,4,3,-4,-40,-33,-10
1532321777690,-5,0,-4,-2,2,6,27,-1
1532321777695,6,-2,0,-1,-1,-4,7,9
1532321777700,-3,-3,-6,-2,-7,-3,10,13
1532321777705,5,1,-3,1,5,22,-22,-2
1532321777710,-9,-2,-4,-6,-7,8,7,-28
1532321777715,-2,0,0,4,-2,-35,-35,4
1532321777720,-1,-2,-4,-6,-7,-36,7,-10
1532321777725,1,0,-1,5,14,0,-16,13
1532321777730,-1,-1,-4,-5,-29,-31,-20,-1
1532321777735,-2,0,0,-3,-2,5,14,-6
1532321777740,-7,-5,-3,-4,-15,-7,-5,14
1532321777745,6,2,5,3,17,6,19,-26
1532321777750,1,-4,-4,-9,-22,10,-16,21
1532321777755,-3,-1,-1,4,18,1,-33,-27
1532321777760,-2,-2,-4,-1,-31,-20,12,0
1532321777765,-4,-4,-1,-3,-3,12,3,32
1532321777770,8,5,4,8,16,-10,-16,-26
1532321777775,-1,-1,-3,-1,0,22,24,-17
1532321777780,2,2,3,-1,-11,-43,-15,-4
1532321777785,-5,0,-2,-8,-21,16,21,-2
1532321777790,-1,-7,-4,-3,1,-9,18,7
1532321777795,5,2,3,2,2,9,-23,22
1532321777800,-3,0,1,4,22,14,28,-1
1532321777805,5,0,-7,-4,-3,-13,13,5
1532321777810,-7,-1,-1,4,22,13,-16,-29
1532321777815,1,-1,-1,-7,-3,9,17,31
1532321777820,-2,-1,0,3,8,-3,-3,-12
1532321777825,-4,-1,2,1,5,15,-2,1
1532321777830,-2,-2,0,-4,-12,1,7,5
1532321777835,-6,-4,-5,-6,-8,-19,-15,-16
1532321777840,0,1,0,-1,-7,8,-5,1
1532321777845,3,1,1,0,4,12,3,-1
1532321777850,0,0,-1,2,8,21,3,-4
1532321777855,-2,-1,2,-2,-9,-13,-4,-6
1532321777860,-1,-1,-2,0,7,2,-6,6
1532321777865,-2,0,-2,-1,-6,3,11,-4
1532321777870,1,-4,-2,-1,3,6,-1,2
1532321777875,-3,-3,-1,-4,-2,-5,-11,-4
1532321777880,-1,0,0,3,-2,2,2,-3
1532321777885,1,-1,1,1,2,1,-2,0
1532321777890,0,1,-3,0,-2,-1,1,1
1532321777895,-2,-1,-3,-6,-12,-14,-14,-4
1532321777900,1,1,-1,-1,-1,-7,-13,1
1532321777905,1,1,-2,0,2,10,8,8
1532321777910,0,-1,-1,-1,-1,7,-10,-2
1532321777915,-3,-2,-2,-5,-2,-3,-5,-2
1532321777920,-2,-4,-5,-2,0,-1,4,-6
1532321777925,-3,-3,-3,0,-7,-8,-2,-7
1532321777930,3,4,2,3,7,16,20,10
1532321777935,-1,-6,-4,-2,3,-10,0,-3
1532321777940,-3,0,1,-1,-5,-5,-8,3
1532321777945,0,-3,-1,0,1,1,3,1
1532321777950,-5,0,-5,-2,-3,2,5,-7
1532321777955,-2,0,-3,-4,-1,1,-2,-4
1532321777960,2,2,6,5,5,4,9,8
1532321777965,0,-6,-5,-4,-2,-1,-9,-7
1532321777970,0,-5,-2,-6,-9,2,-4,-2
1532321777975,2,4,5,5,7,8,9,2
1532321777980,-1,2,3,3,5,-2,0,4
1532321777985,-1,0,0,-3,-8,-10,3,-5
1532321777990,-3,-2,1,-3,-7,16,-1,0
1532321777995,-4,0,-2,2,-4,1,4,2
1532321778000,6,1,0,4,9,15,5,-4
1532321778005,-1,2,3,2,7,4,13,8
1532321778010,-1,0,-5,-7,-18,-17,-29,-2
1532321778015,8,1,0,-2,-16,-3,-18,13
1532321778020,-1,0,-1,1,-5,14,21,-1
1532321778025,-3,-1,-2,-2,7,3,-8,7
1532321778030,-2,-1,-1,-2,1,13,-10,-10
1532321778035,-2,0,3,4,11,17,20,14
1532321778040,1,-2,-6,-5,-6,-22,-11,2
1532321778045,1,1,1,0,2,36,3,4
1532321778050,-9,-6,-3,-5,-4,-23,-18,-36
1532321778055,5,2,2,5,10,1,23,7
1532321778060,0,-3,-3,-4,6,14,-51,-12
1532321778065,-2,0,-2,-1,5,-14,-6,11
1532321778070,6,4,3,6,-3,-21,33,-8
1532321778075,2,0,0,3,34,62,5,12
1532321778080,11,-1,-4,-10,-42,-75,28,96
1532321778085,-14,-1,2,5,44,-17,-34,-84
1532321778090,1,-6,-9,-3,-17,22,8,12
1532321778095,-1,-1,-1,-1,7,-4,-12,-2
1532321778100,-12,-4,-2,-3,5,9,-16,-11
1532321778105,-2,-3,-2,-2,3,59,36,43
1532321778110,-6,2,6,3,12,-76,-58,-42
1532321778115,-3,-4,-4,-7,-30,-11,22,13
1532321778120,-3,1,-1,0,9,-86,-23,-16
1532321778125,2,2,-1,2,-8,64,12,-1
1532321778130,3,-3,-4,-2,28,52,27,9
1532321778135,-8,-2,-1,6,62,79,-24,-32
1532321778140,2,2,0,-11,-77,-47,-4,-13
1532321778145,5,2,-1,3,13,-23,-11,-8
1532321778150,5,2,-1,-8,-19,13,24,29
1532321778155,-6,-2,-5,2,2,-14,-15,-22
1532321778160,1,-2,-3,5,35,58,27,5
1532321778165,1,-1,-1,-3,-15,-60,-5,3
1532321778170,-2,0,-5,1,-7,50,7,4
1532321778175,0,1,-1,-11,-39,-70,-6,4
1532321778180,-9,-3,-6,4,21,30,-7,-28
1532321778185,1,-2,-1,-1,-26,-29,-1,8
1532321778190,-1,1,5,-1,5,-8,-8,3
1532321778195,-7,-2,5,11,3,-15,-14,-28
1532321778200,11,4,-5,-13,-3,42,30,22
1532321778205,-1,-4,-18,-9,3,12,-5,-6
1532321778210,4,3,19,5,2,-15,8,21
1532321778215,-1,-3,2,-4,-18,-15,-7,-2
1532321778220,-6,-1,18,12,17,47,-4,-13
1532321778225,-1,-3,-4,-9,-31,0,0,2
1532321778230,-2,1,-14,1,15,1,-8,-2
1532321778235,3,0,-1,1,-18,-44,-7,2
1532321778240,-2,-1,3,3,3,-3,-12,-12
1532321778245,1,2,16,5,11,18,18,1
1532321778250,-3,-1,-11,-3,4,6,8,3
1532321778255,1,-1,-1,-3,1,-25,-5,0
1532321778260,-1,-1,-4,-3,1,21,7,-4
1532321778265,-1,-2,0,-1,-9,-6,-7,-4
1532321778270,-1,1,-1,0,-3,-9,-18,0
1532321778275,1,-2,-6,-6,-8,5,8,3
1532321778280,-1,0,1,-2,-4,-18,-14,-6
1532321778285,2,1,-2,-1,3,20,17,3
1532321778290,-2,-1,2,3,-6,-37,-19,8
1532321778295,3,2,1,-4,0,35,23,4
1532321778300,-3,-2,-7,1,0,4,4,-2
1532321778305,-1,-1,0,0,-2,-21,-23,-2
1532321778310,2,-3,-3,-3,-3,3,11,4
1532321778315,-4,-3,0,0,-6,4,-1,-2
1532321778320,0,0,0,1,5,-1,2,-6
1532321778325,0,0,-3,-3,-4,-12,6,0
1532321778330,-1,-2,4,0,-3,9,4,-5
1532321778335,0,0,1,1,-4,-24,-38,-6
1532321778340,-1,-2,-7,0,0,9,19,-8
1532321778345,-1,-1,-3,0,-3,-24,0,-3
1532321778350,2,0,1,-2,-5,43,6,15
1532321778355,-3,-1,-5,-3,-3,-5,-21,-10
1532321778360,0,-1,1,-1,-3,2,12,3
1532321778365,0,-2,2,-2,-22,-39,-11,-2
1532321778370,-3,-4,-5,-1,-1,-1,3,-4
1532321778375,1,0,0,-2,-2,2,7,3
1532321778380,-1,-3,-1,1,0,1,12,1
1532321778385,-1,0,1,2,10,8,1,6
1532321778390,-2,-3,-2,-3,-6,13,20,-3
1532321778395,2,1,-2,5,9,-4,-15,8
1532321778400,-1,0,3,0,4,0,-8,0
1532321778405,-1,-2,-2,-3,-4,9,-1,-1
1532321778410,-4,2,0,6,11,-15,-15,-9
1532321778415,-2,-4,-4,-1,-1,11,14,4
1532321778420,-3,0,0,-1,3,-13,-7,-1
1532321778425,2,-2,-1,-5,-8,-14,1,3
1532321778430,0,1,-6,-4,0,21,-9,-3
1532321778435,0,0,2,2,9,9,3,-1
1532321778440,-6,-5,-2,-2,-17,-58,-15,-7
1532321778445,1,-1,4,10,27,46,-1,5
1532321778450,2,4,1,-6,-43,-71,-1,-5
1532321778455,-1,-4,-7,-8,-10,14,17,1
1532321778460,-1,-1,-1,2,-6,18,-13,-1
1532321778465,-1,1,1,1,7,-9,-9,-4
1532321778470,-7,-6,0,3,10,5,-7,-9
1532321778475,-4,0,-3,-5,-10,-11,0,-4
1532321778480,1,1,-1,-7,-8,17,12,0
1532321778485,0,1,2,4,-3,9,8,7
1532321778490,3,3,4,5,16,9,-1,8
1532321778495,-4,-3,1,1,4,-8,8,-11
1532321778500,-3,-5,-5,-3,4,0,-8,6
1532321778505,0,-2,-3,-6,-8,-3,-9,-1
1532321778510,-2,-1,0,0,6,2,4,3
1532321778515,-2,-3,1,1,0,-8,-26,-6
1532321778520,2,-1,-2,4,8,17,37,5
1532321778525,-2,0,-1,-6,-4,-6,0,3
1532321778530,-3,-2,1,-1,0,-20,-18,-3
1532321778535,-3,1,3,-2,-3,11,1,-19
1532321778540,1,-1,-4,-2,-4,4,-15,-11
1532321778545,-2,-1,-3,-4,-4,-5,11,11
1532321778550,-1,-4,-3,-2,-1,-2,-11,-1
1532321778555,1,0,-1,0,1,-6,6,-2
1532321778560,-3,0,1,3,4,-11,-8,-6
1532321778565,0,0,-1,-2,-15,-13,3,-2
1532321778570,-2,-1,-1,-7,0,8,-8,-4
1532321778575,-1,-1,-2,-2,-15,-9,-4,23
1532321778580,3,1,1,1,1,-11,7,-9
1532321778585,-1,-1,-4,-4,-4,0,-27,-9
1532321778590,2,0,1,0,5,11,29,8
1532321778595,0,0,-2,-3,2,2,6,7
1532321778600,0,0,-2,-3,-1,0,-41,4
1532321778605,-5,-2,-2,0,8,2,-13,-13
1532321778610,-1,-1,-2,-1,-4,-3,7,5
1532321778615,-2,-1,-5,-2,0,2,7,-9
1532321778620,-5,-1,-1,-1,-1,-5,-1,1
1532321778625,-3,-2,0,1,4,4,-2,-5
1532321778630,3,-1,-1,1,-1,-3,2,0
1532321778635,-1,-1,2,8,11,-3,4,3
1532321778640,4,3,0,-5,2,16,4,15
1532321778645,-2,-2,-4,-6,-3,-11,6,1
1532321778650,-4,-3,-4,-2,-3,-4,-3,-10
1532321778655,0,-2,-3,-7,-10,3,3,7
1532321778660,-3,-3,-1,3,12,5,-3,-16
1532321778665,1,1,2,3,8,12,10,3
1532321778670,-3,-2,-1,1,-1,-11,-11,-7
1532321778675,-4,-2,0,-4,-5,-20,-17,-6
1532321778680,2,0,1,5,7,21,0,3
1532321778685,2,-1,-3,-3,-7,-4,0,-5
1532321778690,0,0,-2,0,4,-19,-4,3
1532321778695,3,1,0,-2,-8,2,9,6
1532321778700,-2,-1,2,1,0,-10,-24,-2
1532321778705,-2,0,0,2,3,-31,41,0
1532321778710,0,0,-2,-2,-3,34,1,-2
1532321778715,-2,-2,-2,-4,-3,1,8,-4
1532321778720,1,-1,-3,-5,-9,-14,0,4
1532321778725,1,3,2,6,13,27,-15,2
1532321778730,0,-3,-1,0,6,-20,8,-1
1532321778735,4,0,-2,-1,-15,-17,17,9
1532321778740,-2,-2,-3,-2,-6,10,-9,-2
1532321778745,-3,-1,-1,0,-7,-9,-12,-8
1532321778750,1,0,5,4,9,17,-2,3
1532321778755,4,2,1,3,9,12,-8,0
1532321778760,-1,-3,-2,-4,-4,-11,-2,-3
1532321778765,-1,1,4,1,1,8,-1,2
1532321778770,1,0,-6,1,-1,-6,-10,-1
1532321778775,-3,-5,-6,-2,1,9,1,-8
1532321778780,-1,2,-1,-1,-3,-3,12,2
1532321778785,-2,-4,-2,-6,-6,-14,-20,-4
1532321778790,1,2,5,2,2,15,1,5
1532321778795,-1,-1,-2,0,-3,-15,-4,-2
1532321778800,-1,-1,-1,0,3,2,10,-4
1532321778805,2,-1,-2,0,-2,14,-2,-3
1532321778810,-3,-1,-1,-3,-5,-11,-13,-2
1532321778815,1,-1,0,-2,6,5,13,1
1532321778820,-1,1,1,1,0,-2,-4,0
1532321778825,-3,1,-3,-4,-4,0,8,-2
1532321778830,0,-3,-2,-2,-4,-4,4,-1
1532321778835,-5,-2,2,8,9,4,-17,-2
1532321778840,10,5,4,5,9,9,16,17
1532321778845,1,-3,-4,-5,-17,-15,-22,-1
1532321778850,-4,-2,-3,-8,-6,-3,3,-5
1532321778855,-1,0,2,4,-2,8,-8,-3
1532321778860,-4,-1,0,4,14,-6,11,-6
1532321778865,3,2,1,9,23,10,-7,7
1532321778870,3,-1,-5,-19,-70,-23,0,1
1532321778875,-3,-3,-2,-7,0,19,17,1
1532321778880,-3,-2,0,-2,-12,-31,-12,-6
1532321778885,-2,0,3,10,30,47,6,-5
1532321778890,-3,-1,2,10,39,-9,-21,-8
1532321778895,5,2,-2,-9,-34,-38,0,5
1532321778900,-5,-3,-1,-6,-11,-4,-31,-13
1532321778905,0,-2,-2,1,0,9,43,13
1532321778910,0,1,0,5,14,11,9,3
1532321778915,0,-1,-1,0,9,9,1,-3
1532321778920,-2,-4,-4,-3,3,4,-5,-3
1532321778925,1,-2,-2,-4,-15,-20,2,-4
1532321778930,-2,0,1,0,3,7,4,-1
1532321778935,1,0,-2,1,8,-1,-18,-8
1532321778940,0,2,6,3,8,2,43,-1
1532321778945,-2,2,1,-1,-1,-2,3,1
1532321778950,1,-1,-1,-1,-3,7,18,11
1532321778955,0,0,2,-1,-5,-9,-14,1
1532321778960,-3,-4,-5,-5,-6,3,-5,-2
1532321778965,2,1,1,1,9,10,2,5
1532321778970,0,-1,1,0,-2,-7,2,-4
1532321778975,2,-2,-3,-1,6,7,19,6
1532321778980,0,1,0,-2,-6,-12,-18,-3
1532321778985,-8,-1,-1,1,5,-6,5,-8
1532321778990,1,1,0,-2,4,10,-1,5
1532321778995,1,-2,-8,-8,-16,-12,4,0
1532321779000,-3,-2,0,-2,-4,-5,-8,-8
1532321779005,-1,0,-2,1,5,18,1,2
1532321779010,0,0,-2,0,1,-6,-3,-5
1532321779015,1,2,4,4,1,1,3,2
1532321779020,0,-1,-6,-3,-3,4,-4,2
1532321779025,0,-2,1,6,-9,-11,-4,-5
1532321779030,0,0,1,2,11,11,-1,2
1532321779035,-4,-2,-2,-2,0,2,-11,-4
1532321779040,-1,0,-2,-3,-5,-11,-12,-2
1532321779045,-2,-4,-6,-12,-15,-4,-10,-3
1532321779050,-1,-1,0,0,-2,-1,10,4
1532321779055,-3,-1,1,4,5,11,10,-3
1532321779060,1,-1,3,8,10,6,2,5
1532321779065,0,1,-1,0,8,-2,7,3
1532321779070,-5,-1,-2,-5,-12,-6,-6,-11
1532321779075,0,-1,-5,-4,-3,2,2,3
1532321779080,1,-1,1,3,3,11,13,4
1532321779085,3,1,1,0,1,-4,-10,1
1532321779090,3,0,-2,-3,-2,-2,-3,3
1532321779095,-2,-1,-2,-3,-4,-8,-27,-8
1532321779100,0,-3,0,0,-1,4,35,6
1532321779105,-2,-2,0,3,8,-1,3,3
1532321779110,-3,-1,-2,-5,-5,-2,-6,-5
1532321779115,2,-2,-2,-1,-11,-17,-7,1
1532321779120,-2,1,-3,-1,2,16,-19,-5
1532321779125,-4,-2,-2,0,-3,-9,-4,-6
1532321779130,-2,0,2,5,5,5,15,2
1532321779135,0,0,-3,-10,-6,-6,-2,-1
1532321779140,0,-1,0,1,0,-3,-4,-3
1532321779145,-3,-3,-1,-1,1,5,1,-6
1532321779150,7,1,-3,-2,-1,12,0,9
1532321779155,-2,-1,0,3,-3,-11,11,-1
1532321779160,-2,-1,0,-1,3,2,-6,-3
1532321779165,4,1,2,6,15,3,-24,4
1532321779170,-4,-4,-3,-3,-20,-19,-4,-9
1532321779175,1,-1,2,2,4,12,0,0
1532321779180,-2,-2,-3,-2,0,-1,1,-3
1532321779185,1,1,-1,-4,-13,0,5,1
1532321779190,-3,-3,1,2,7,-5,0,-3
1532321779195,-2,-1,-4,-4,3,-1,5,-6
1532321779200,-6,-1,1,-1,-6,-3,-16,-13
1532321779205,4,0,0,0,-3,-12,11,15
1532321779210,0,-2,0,-1,2,-1,-6,-3
1532321779215,0,1,1,-1,0,4,6,7
1532321779220,2,-1,0,1,4,-3,-5,3
1532321779225,-3,-2,-2,-6,-8,-1,-2,-8
1532321779230,-1,-1,2,6,5,6,7,1
1532321779235,-2,-1,-2,-1,1,-3,-12,-3
1532321779240,-3,0,-3,-8,-9,-12,-1,-8
1532321779245,1,-1,2,2,5,8,10,6
1532321779250,-1,0,-3,-5,-6,-8,8,0
1532321779255,-3,-1,1,3,5,2,-8,-6
1532321779260,-2,-1,0,0,5,-14,-19,-3
1532321779265,-2,-1,-1,0,-5,15,7,-1
1532321779270,-3,-2,-1,2,3,2,-9,-7
1532321779275,-1,-1,-4,-4,-4,-3,9,-5
1532321779280,2,2,0,0,9,-1,6,9
1532321779285,-1,-1,-1,-4,-14,-1,-4,-1
1532321779290,-3,-1,-2,0,2,-1,-19,-2
1532321779295,-1,-1,2,2,2,6,3,5
1532321779300,0,-1,-2,0,-2,0,-6,-2
1532321779305,-6,-1,-2,1,4,-4,8,-13
1532321779310,0,0,0,-1,-5,3,5,0
1532321779315,-1,0,0,-3,-6,-5,-11,-5
1532321779320,-1,0,0,1,2,4,10,0
1532321779325,0,-1,-1,-2,2,-7,-11,1
1532321779330,-2,-2,-5,-4,-3,-6,-4,-1
1532321779335,-2,0,4,5,4,-3,-1,-1
1532321779340,0,-3,-4,5,-5,5,2,1
1532321779345,-4,-2,-3,-3,0,3,12,-8
1532321779350,1,0,-1,-5,-5,-5,-3,2
1532321779355,-1,-3,1,0,-2,-4,-6,-7
1532321779360,-1,-1,0,-2,3,2,-6,-2
1532321779365,-4,0,-2,-2,1,-1,5,-7
1532321779370,1,1,-1,-2,-4,-6,-9,4
1532321779375,1,0,-1,-2,-3,2,2,9
1532321779380,-3,-1,1,0,0,-1,-3,2
1532321779385,-2,-1,1,0,5,0,-5,0
1532321779390,-1,-2,-4,-7,-8,-9,4,3
1532321779395,-2,-3,-2,-2,-5,0,9,-2
1532321779400,-4,-3,-3,-6,-7,-12,-26,-9
1532321779405,1,-2,-1,1,0,-2,11,10
1532321779410,-5,-1,2,7,5,3,1,-7
1532321779415,-2,-1,-4,-5,-5,-10,-3,14
1532321779420,-4,-3,-4,-7,-15,-18,-41,-6
1532321779425,2,1,2,-1,-1,8,17,14
1532321779430,-2,-3,-3,-1,5,3,-19,-11
1532321779435,-4,-1,1,5,-1,-6,11,-11
1532321779440,-4,-1,-1,-1,1,-3,8,-22
1532321779445,1,-1,-2,0,-1,-6,-15,-2
1532321779450,-5,0,-2,-4,-10,2,1,-12
1532321779455,1,0,1,0,3,2,-5,-8
1532321779460,3,2,0,0,1,5,7,-13
1532321779465,-1,-1,-3,-1,-9,-10,2,-28
1532321779470,0,-3,-2,-1,4,1,-9,-26
1532321779475,0,0,-3,-3,2,1,2,-21
1532321779480,3,2,4,4,5,13,36,3
1532321779485,1,0,0,3,7,-3,-33,-3
1532321779490,5,0,-4,-5,-8,-10,-6,26
1532321779495,3,-2,-4,-5,-6,-3,9,33
1532321779500,-1,0,-1,-2,-3,0,-18,14
1532321779505,-5,-2,4,6,4,-1,5,-15
1532321779510,-2,1,-1,-3,6,3,-9,4
1532321779515,4,1,2,3,1,8,11,-22
1532321779520,-5,-1,0,-2,-4,1,3,-14
1532321779525,0,-2,-5,-8,-6,-4,-2,-8
1532321779530,-3,-2,0,1,3,-1,0,12
1532321779535,-3,-2,-2,0,7,2,-15,33
1532321779540,-1,0,-3,-2,-7,-3,-6,35
1532321779545,-4,-1,1,-1,-2,-6,7,30
1532321779550,-2,0,2,5,5,5,9,-30
1532321779555,-3,0,-1,0,-4,-7,-19,-86
1532321779560,1,-1,-3,-2,-4,-1,13,-40
1532321779565,-2,-1,-1,-1,-1,0,-18,-31
1532321779570,-2,2,5,5,8,3,34,-25
1532321779575,3,1,-2,2,4,9,4,15
1532321779580,1,0,0,0,-1,-10,-21,1
1532321779585,4,-1,-4,-7,-9,1,21,50
1532321779590,3,-1,-1,0,1,8,26,38
1532321779595,-4,1,1,-3,2,-3,-16,19
1532321779600,-6,-1,3,10,9,-2,8,-21
1532321779605,7,-2,-5,-6,-3,0,-3,40
1532321779610,-1,-4,-2,-3,-9,-4,-15,5
1532321779615,-1,-3,-3,1,-4,-2,2,6
1532321779620,2,1,2,-1,5,6,0,24
1532321779625,-1,4,8,6,13,9,9,-22
1532321779630,7,-2,-4,1,0,6,12,23
1532321779635,-1,-2,-4,-7,-10,-14,-23,24
1532321779640,0,-3,-3,-3,-2,2,0,23
1532321779645,-5,-3,0,1,1,-1,1,-10
1532321779650,1,2,8,8,17,11,8,8
1532321779655,1,-1,-8,-9,-11,-7,5,16
1532321779660,4,-1,-7,-8,-10,-2,8,20
1532321779665,-3,-1,-3,-8,-9,-6,7,-4
1532321779670,-3,-1,2,0,-1,1,5,-25
1532321779675,3,3,8,6,15,2,-1,1
1532321779680,5,-3,-4,-4,9,8,-5,13
1532321779685,4,-1,-7,-3,-10,-10,9,-6
1532321779690,-1,0,-1,-7,-12,-7,-10,-14
1532321779695,-4,-4,-1,1,2,9,14,-13
1532321779700,2,-1,0,0,-1,-3,-7,-16
1532321779705,-6,2,6,7,10,5,-8,-28
1532321779710,4,0,0,1,2,4,1,4
1532321779715,-3,-2,-4,-4,-7,-4,-2,-10
1532321779720,-2,0,-2,-1,-2,-3,-7,-4
1532321779725,-4,-1,-2,-1,0,-3,-1,-3
1532321779730,1,2,4,2,0,-3,-7,-13
1532321779735,-1,-1,4,6,7,8,21,-2
1532321779740,0,0,-4,-5,-7,5,13,3
1532321779745,5,-1,-1,2,2,-5,-5,19
1532321779750,-7,-4,-7,-9,-14,-19,-15,2
1532321779755,7,2,0,0,1,0,-29,26
1532321779760,-8,-1,0,-2,0,-12,-4,6
1532321779765,2,1,2,4,6,12,-1,16
1532321779770,6,-3,-5,-4,-2,0,12,40
1532321779775,1,0,-2,-4,-1,-3,-14,3
1532321779780,-2,-1,-1,1,0,-1,-2,5
1532321779785,-1,-4,-4,-5,-3,0,-11,10
1532321779790,-1,-1,-1,3,0,-6,-13,-1
1532321779795,-2,-2,-7,-9,-7,-4,4,-4
1532321779800,1,1,2,0,-2,2,0,4
1532321779805,1,0,-1,0,3,12,11,0
1532321779810,-5,-1,1,-1,-1,-19,-31,-9
1532321779815,-6,-3,1,5,5,-4,30,-12
1532321779820,-2,2,-1,-2,1,-1,26,-4
1532321779825,-3,-3,-4,-9,-11,-8,-35,-12
1532321779830,-1,-2,0,0,0,11,13,1
1532321779835,-1,-1,-1,1,-2,-4,1,-2
1532321779840,-1,-2,1,3,4,-5,-8,-3
1532321779845,-3,0,-2,1,-2,3,14,0
1532321779850,2,1,-1,0,5,10,-18,4
1532321779855,-3,-2,1,-4,-10,-24,-19,0
1532321779860,-1,0,2,3,4,6,12,-12
1532321779865,-2,0,-2,-5,-14,-18,-3,9
1532321779870,0,0,1,0,6,12,15,-15
1532321779875,-2,0,2,2,6,16,-13,-2
1532321779880,0,-1,-2,-3,-5,-8,-3,-2
1532321779885,-2,0,0,4,29,5,-9,-15
1532321779890,-2,-2,-6,-11,-52,-51,-12,26
1532321779895,-2,-2,-2,-2,1,8,32,13
1532321779900,-1,-1,0,2,2,-2,-22,2
1532321779905,0,-2,-1,-2,-1,0,21,3
1532321779910,-2,-1,-2,-1,10,13,-6,-13
1532321779915,0,0,2,1,1,-1,-2,-2
1532321779920,-1,0,0,2,-3,5,-8,9
1532321779925,2,0,1,3,5,13,8,-8
1532321779930,-2,-1,-5,-9,-8,-6,-6,-2
1532321779935,-1,-2,-4,-6,-13,-14,-20,4
1532321779940,3,2,0,1,8,8,31,14
1532321779945,-3,-1,-1,-1,-5,1,-7,37
1532321779950,1,2,4,5,12,12,35,15
1532321779955,2,-1,-1,3,4,-1,-14,3
1532321779960,0,-1,0,-4,-2,0,2,-14
1532321779965,0,-2,-1,0,-4,-3,-5,-29
1532321779970,-3,-2,-2,-1,4,4,1,-14
1532321779975,-5,-1,-2,-1,-4,-6,-24,-22
1532321779980,-1,-1,0,2,3,-2,32,-5
1532321779985,0,-1,-5,-3,-8,-6,-8,7
1532321779990,-3,-1,-2,1,6,-1,-11,0
1532321779995,1,0,0,1,4,9,15,3
1532321780000,0,-2,0,-1,-2,-11,-22,15
1532321780005,-1,-1,-1,-3,1,-7,-3,12
1532321780010,0,-2,-4,-1,-11,-3,10,9
1532321780015,0,-3,-2,0,0,4,6,-13
1532321780020,-2,-1,-2,0,-2,-2,-3,-16
1532321780025,-2,-2,3,4,2,1,2,-28
1532321780030,-4,1,0,-1,1,2,-7,-31
1532321780035,1,0,-1,-2,0,0,3,-17
1532321780040,2,0,0,1,6,5,-9,-21
1532321780045,0,1,-2,0,-3,-2,0,-13
1532321780050,0,-2,-9,-2,6,-7,2,-6
1532321780055,0,-1,8,0,-7,-3,-3,4
1532321780060,1,0,-10,-6,-6,-6,-6,6
1532321780065,-1,-1,-7,-6,-6,-2,3,9
1532321780070,-1,-2,2,5,5,4,2,-2
1532321780075,-1,1,-3,0,6,10,13,3
1532321780080,-2,-2,6,-1,-5,-1,0,-2
1532321780085,0,0,4,1,0,-1,3,1
1532321780090,1,0,-6,-4,1,-1,-15,-3
1532321780095,-1,0,2,1,-1,-2,-6,5
1532321780100,-1,0,-4,-2,-3,3,-5,67
1532321780105,-1,0,4,2,-2,2,19,16
1532321780110,2,0,2,2,1,-2,-16,80
1532321780115,-3,-1,-7,-2,0,-4,-14,8
1532321780120,-1,-1,4,-3,-2,0,-11,-29
1532321780125,-4,-3,-9,1,-4,1,-7,39
1532321780130,0,-1,7,-1,0,1,1,-6
1532321780135,-2,-3,-7,-3,-2,-6,-2,27
1532321780140,-3,-2,-9,-2,2,2,-1,30
1532321780145,0,-1,2,-2,1,-2,9,-21
1532321780150,-1,-1,1,-4,-8,-6,33,-30
1532321780155,1,-1,3,1,1,3,17,-17
1532321780160,-1,-1,4,8,7,4,19,-33
1532321780165,1,0,-4,-8,-5,-8,4,-15
1532321780170,-1,0,-2,1,3,7,9,-33
1532321780175,-3,-1,-1,0,-2,1,20,-24
1532321780180,1,0,0,1,1,-3,-17,2
1532321780185,0,-2,1,0,-5,-2,-14,22
1532321780190,-2,-1,-15,-2,0,5,16,73
1532321780195,1,1,13,2,1,-15,-27,108
1532321780200,1,0,-1,-3,-2,9,-3,4
1532321780205,-2,-3,-3,0,-5,-6,-6,40
1532321780210,-1,-1,-4,-3,-4,-6,-24,20
1532321780215,-3,-1,7,2,0,7,5,-38
1532321780220,-1,1,4,0,-3,-7,-1,-24
1532321780225,-1,-4,-2,0,2,2,1,-31
1532321780230,-3,-5,0,3,7,-1,-23,-23
1532321780235,1,5,1,-3,-3,7,54,-23
1532321780240,-1,0,-2,-4,-9,-11,-28,-58
1532321780245,2,4,-1,1,2,-4,-8,-90
1532321780250,-2,-1,0,2,0,-3,-12,-57
1532321780255,-2,-2,-4,-2,1,-7,-9,-57
1532321780260,-4,-4,-5,-2,-4,16,19,-51
1532321780265,0,1,7,-2,0,1,3,-26
1532321780270,1,2,-5,1,1,1,0,-32
1532321780275,0,-6,-6,0,1,-2,-3,-33
1532321780280,1,7,6,-1,-2,-2,17,12
1532321780285,-1,-2,-10,-1,1,-19,6,24
1532321780290,0,1,21,-4,-4,6,1,-1
1532321780295,-1,-1,-4,0,-3,1,5,-10
1532321780300,-1,-3,-3,3,4,0,-9,19
1532321780305,0,3,8,1,3,-15,-13,0
1532321780310,0,3,-12,-5,-3,17,24,-15
1532321780315,-1,-6,1,-3,-8,6,-9,14
1532321780320,-2,-4,1,-1,-1,3,32,23
1532321780325,0,4,7,7,8,-13,-30,-3
1532321780330,-1,-13,-6,4,3,-17,-4,-2
1532321780335,0,5,-7,-8,-7,4,-11,6
1532321780340,0,6,-3,-4,0,0,-43,-7
1532321780345,0,0,-9,-6,-5,13,16,0
1532321780350,-2,3,2,2,2,1,4,0
1532321780355,1,-6,1,1,2,0,-3,-7
1532321780360,0,-1,4,0,-1,-7,9,-6
1532321780365,-1,1,-3,-5,-5,10,1,5
1532321780370,-3,-2,1,0,-1,-6,-14,-5
1532321780375,-1,-6,15,5,1,-5,2,-2
1532321780380,-4,3,-2,0,-1,11,-7,-1
1532321780385,1,2,-2,-4,4,5,24,10
1532321780390,1,-2,6,2,0,2,-4,6
1532321780395,1,-1,-6,-3,-1,0,3,9
1532321780400,-4,4,14,-2,-4,-1,3,0
1532321780405,-3,-2,-18,-2,1,1,-1,6
1532321780410,-2,-5,0,-3,-3,0,-5,3
1532321780415,-1,2,7,4,1,-8,5,-1
1532321780420,-3,4,1,6,12,1,3,0
1532321780425,-9,-3,-6,-5,-2,-9,-6,-7
1532321780430,6,-4,-1,-5,-6,19,16,12
1532321780435,3,2,-3,0,-6,-13,-33,3
1532321780440,2,-2,0,-1,-8,-8,-8,7
1532321780445,-2,2,-4,4,6,9,19,1
1532321780450,-6,-4,2,5,8,-1,-1,-5
1532321780455,-1,-2,-7,-5,-4,0,-12,1
1532321780460,2,-1,-5,-2,-4,3,-1,-2
1532321780465,-1,-1,2,-2,-7,-8,-9,1
1532321780470,4,3,6,5,3,15,31,5
1532321780475,-3,-1,-1,5,5,-16,-7,-3
1532321780480,-1,-1,-5,0,3,5,3,2
1532321780485,2,1,-4,-4,-6,3,-2,2
1532321780490,-4,-3,-1,-1,-1,-4,-22,-2
1532321780495,-4,-1,-1,-1,4,8,25,-5
1532321780500,1,0,1,-1,-4,3,20,8
1532321780505,2,3,-1,5,4,-13,-33,-2
1532321780510,-1,-5,-1,-4,-1,-5,1,0
1532321780515,-5,-1,-1,-8,-13,-9,-53,-14
1532321780520,3,-1,0,-3,-10,-4,26,11
1532321780525,1,-2,-3,2,-1,7,5,3
1532321780530,-3,0,-1,4,2,-2,1,-1
1532321780535,0,1,5,3,6,1,-13,0
1532321780540,-4,-2,1,3,10,0,7,-8
1532321780545,3,3,-2,-5,-7,-12,-11,3
1532321780550,2,-1,-1,-3,-13,-3,9,-1
1532321780555,1,-1,-4,-4,-1,17,14,6
1532321780560,1,-2,-1,3,13,-22,-33,-3
1532321780565,-4,0,3,1,-8,-17,1,-2
1532321780570,-4,2,1,0,-3,-11,-8,-4
1532321780575,2,-2,-3,1,1,7,17,3
1532321780580,-1,0,-1,-3,-7,20,7,0
1532321780585,1,0,0,-1,6,9,3,1
1532321780590,-4,2,0,1,-4,-16,-14,-4
1532321780595,2,1,2,5,10,9,19,3
1532321780600,-6,-5,-6,-7,-9,-11,-5,-6
1532321780605,1,-2,-4,-7,-7,13,10,9
1532321780610,0,-1,5,6,10,3,-19,2
1532321780615,2,1,-1,-5,-30,-8,25,0
1532321780620,0,1,-2,2,8,4,-15,2
1532321780625,-2,-2,1,-5,-1,10,3,-7
1532321780630,1,-4,-4,-2,0,-9,-1,7
1532321780635,-7,-2,-1,0,2,-7,-13,-5
1532321780640,3,-1,-3,-7,-5,-3,-1,-4
1532321780645,3,1,-2,3,2,11,15,7
1532321780650,1,1,1,2,11,-2,8,0
1532321780655,-4,-3,-5,-1,-1,1,3,-2
1532321780660,-1,1,0,-3,-6,-2,-3,0
1532321780665,-1,-3,-2,5,15,-2,-15,1
1532321780670,1,0,-3,-6,-16,-8,1,-1
1532321780675,-5,-4,-2,-1,6,-1,0,-13
1532321780680,3,0,0,0,-2,7,-33,1
1532321780685,-2,0,1,1,-1,-5,48,-1
1532321780690,-4,-1,-1,2,9,6,0,-3
1532321780695,-3,-1,-2,-4,-10,-9,-8,-3
1532321780700,-2,-1,0,1,-1,-5,4,1
1532321780705,-1,0,-1,-2,-6,-4,-13,-6
1532321780710,-1,-2,-3,-2,2,2,-1,-3
1532321780715,2,-1,-1,-5,-1,3,20,3
1532321780720,2,0,-2,-3,-2,-8,-20,8
1532321780725,-1,-3,0,-2,-7,7,-1,1
1532321780730,2,-1,2,3,4,-6,28,-1
1532321780735,-1,-1,0,3,11,-1,-30,-1
1532321780740,-3,0,0,0,-3,-5,20,-3
1532321780745,-1,-3,-4,-6,-6,-11,8,-2
1532321780750,2,-1,-2,-5,1,11,4,3
1532321780755,0,-1,-3,1,1,9,6,0
1532321780760,-2,2,4,-2,-4,2,-5,-5
1532321780765,2,2,6,2,9,17,-17,4
1532321780770,-4,-2,-3,-2,-2,-7,-15,-7
1532321780775,0,10,4,-1,-3,-5,24,7
1532321780780,-4,-71,-24,0,3,12,1,-2
1532321780785,0,54,-1,0,-3,-15,-11,-5
1532321780790,0,2,12,2,-1,10,-2,0
1532321780795,-1,3,-11,0,1,0,-15,6
1532321780800,1,4,34,1,1,-6,15,1
1532321780805,-6,-13,0,-1,-1,-9,-8,-7
1532321780810,2,-8,-11,-1,-4,-19,20,8
1532321780815,-1,8,4,-1,0,37,-15,-3
1532321780820,-1,-9,-17,-2,-2,-14,-5,-4
1532321780825,1,6,20,5,0,1,-1,1
1532321780830,-6,7,5,-6,-3,-22,-18,-7
1532321780835,2,-13,-4,3,4,8,-2,0
1532321780840,0,21,-9,-6,-4,-4,8,1
1532321780845,0,-19,-9,-2,-6,3,-10,-6
1532321780850,0,-3,-6,-2,-1,5,6,3
1532321780855,-1,4,-14,1,4,-10,-10,-1
1532321780860,-2,17,2,0,-1,6,11,-2
1532321780865,2,-13,-6,1,2,3,-1,5
1532321780870,-1,-2,2,0,-2,-17,-25,-5
1532321780875,-1,-45,-9,-5,-2,-12,0,0
1532321780880,3,49,26,2,1,6,-6,-3
1532321780885,-5,-31,-18,0,-2,-1,5,-3
1532321780890,-1,30,25,-1,0,11,1,-12
1532321780895,2,-2,14,3,0,-9,3,4
1532321780900,0,-5,1,8,7,1,6,-3
1532321780905,4,-4,3,-9,1,1,-3,5
1532321780910,-2,-2,-15,-4,-13,5,1,-2
1532321780915,-6,7,-5,-7,-6,-11,-19,-9
1532321780920,-2,-1,3,-1,-4,-28,17,12
1532321780925,-2,4,-1,7,7,23,-2,-6
1532321780930,-3,-10,-11,0,2,-1,5,-3
1532321780935,1,7,28,-2,-2,-4,-11,8
1532321780940,4,-13,-34,-3,-7,9,-4,2
1532321780945,-2,-2,-3,-2,-2,-9,-13,1
1532321780950,-2,-8,0,3,1,10,12,-1
1532321780955,-2,1,4,8,10,-6,-10,-5
1532321780960,-1,4,22,-3,4,-3,-14,3
1532321780965,-7,10,-4,-8,-10,-9,4,-7
1532321780970,-9,-27,-13,-2,0,7,-10,-3
1532321780975,12,24,-4,6,3,-5,16,5
1532321780980,2,1,-3,-5,-2,0,-4,5
1532321780985,0,2,5,-2,-11,-2,1,8
1532321780990,-4,-4,2,-3,0,1,-6,-3
1532321780995,-3,-7,-10,-1,1,0,0,-4
1532321781000,-2,-2,-11,5,6,0,3,-11
1532321781005,-2,4,19,0,0,6,-5,-8
1532321781010,7,-2,-1,-2,-4,-5,13,16
1532321781015,0,-3,-6,4,5,10,8,-5
1532321781020,-2,0,3,-4,-11,-1,-32,-5
1532321781025,-1,-4,-9,0,5,-10,36,-3
1532321781030,0,1,-5,-1,4,1,-12,1
1532321781035,0,0,1,-3,-7,-14,1,0
1532321781040,0,-6,-2,0,-3,21,11,1
1532321781045,-2,-2,-5,-1,2,-5,-15,-2
1532321781050,4,10,7,0,-2,-1,0,-1
1532321781055,-4,-18,-11,-6,-2,1,13,4
1532321781060,-4,-2,-2,1,2,3,8,-13
1532321781065,5,-1,-2,1,4,-2,-7,6
1532321781070,3,5,0,3,9,11,1,1
1532321781075,1,4,3,-6,-6,1,-2,-3
1532321781080,-5,-3,-2,-2,-6,-24,-5,-4
1532321781085,1,-1,0,1,13,21,-2,-1
1532321781090,-2,-4,-6,-6,-15,-3,21,-9
1532321781095,0,1,0,-2,0,-7,-7,3
1532321781100,-1,-3,-4,-2,-2,-3,3,-1
1532321781105,-1,2,-1,1,-2,-13,-4,-1
1532321781110,2,0,-1,1,5,3,-15,-2
1532321781115,-2,-1,-1,1,0,8,4,-2
1532321781120,0,1,-1,-4,-2,14,4,1
1532321781125,-3,-1,2,0,-5,-28,17,-1
1532321781130,-1,-8,-13,-1,3,14,-1,3
1532321781135,-2,2,3,3,-5,-22,-18,-6
1532321781140,4,-4,-7,3,10,21,20,7
1532321781145,-2,-2,0,-6,-9,-4,-4,-3
1532321781150,-2,-2,2,-1,-4,-11,3,1
1532321781155,2,11,4,0,2,20,-7,-1
1532321781160,-2,-20,15,3,0,-12,-17,-2
1532321781165,0,-7,5,0,1,12,10,0
1532321781170,-3,-16,16,0,-2,-12,3,0
1532321781175,1,13,-40,-5,-1,9,0,5
1532321781180,0,5,3,0,1,-7,1,-20
1532321781185,4,13,6,0,-1,4,-12,-5
1532321781190,-2,-3,6,2,-2,-28,-23,-8
1532321781195,-3,-10,2,1,-1,2,20,-1
1532321781200,-1,-1,0,-1,-3,-1,-7,10
1532321781205,-2,-14,-28,-1,4,4,10,2
1532321781210,1,17,21,-2,-1,-1,-27,7
1532321781215,-4,-3,8,-3,-1,-14,11,-4
1532321781220,2,7,-6,-1,2,-4,14,10
1532321781225,0,-3,8,0,-3,9,-12,6
1532321781230,1,2,-15,2,5,0,-8,6
1532321781235,-2,-1,8,-1,-5,-4,2,-3
1532321781240,-2,0,3,1,-1,0,-4,-5
1532321781245,-2,1,-6,-4,-6,-5,1,-8
1532321781250,0,0,-5,-4,-1,12,0,5
1532321781255,-1,3,0,-2,2,-8,-7,-2
1532321781260,5,13,-17,-2,-2,2,9,9
1532321781265,-2,-10,0,2,1,8,2,0
1532321781270,-1,3,-6,-1,2,20,11,-4
1532321781275,1,-16,4,-2,-4,-31,-28,-9
1532321781280,0,1,-7,-5,-4,-6,7,7
1532321781285,-2,4,4,-1,0,-8,-11,-2
1532321781290,-1,-6,-9,2,2,19,26,-4
1532321781295,2,1,1,1,-2,8,1,9
1532321781300,-2,-4,3,0,3,-2,-6,-7
1532321781305,1,-2,-2,-1,-5,-6,1,4
1532321781310,-4,2,3,-2,0,-1,-1,-3
1532321781315,1,0,2,-1,3,11,6,-1
1532321781320,-3,-3,-3,-2,-9,-19,-38,1
1532321781325,2,-4,-2,0,2,-6,30,2
1532321781330,-3,2,-1,-1,1,27,-1,-6
1532321781335,-2,-1,9,1,-1,-1,15,0
1532321781340,-5,-2,-3,-3,3,8,-4,-8
1532321781345,1,-5,-17,-4,-2,-3,-4,-3
1532321781350,4,2,13,3,-3,-12,-6,6
1532321781355,0,-9,9,3,4,-3,-5,-1
1532321781360,-2,13,-6,-4,7,11,8,-4
1532321781365,-3,-13,-20,-8,-9,-7,-17,-1
1532321781370,0,-14,-11,-3,-12,-18,-3,-5
1532321781375,-3,3,2,-2,-5,12,12,0
1532321781380,1,-6,8,6,1,0,-5,1
1532321781385,-2,12,11,1,8,-5,-11,-6
1532321781390,-3,-2,-13,-2,0,-7,0,0
1532321781395,0,-1,-5,-2,-1,6,5,-4
1532321781400,0,1,3,-3,2,5,3,-2
1532321781405,-1,0,7,2,-6,1,1,0
1532321781410,0,1,3,3,-1,-15,-15,-4
1532321781415,1,1,-9,-2,5,7,22,6
1532321781420,-2,-7,-1,-3,-4,6,-5,-1
1532321781425,-2,8,10,0,-8,0,-43,-3
1532321781430,-1,2,-5,-3,-2,-17,62,-3
1532321781435,-4,-3,-8,-1,2,-1,-11,-2
1532321781440,3,-2,3,2,1,2,3,-1
1532321781445,-1,-1,0,4,3,7,1,9
1532321781450,-2,5,-6,-8,-7,-2,-23,-2
1532321781455,-1,-6,-5,-6,-8,-15,-13,-6
1532321781460,-2,-5,2,-1,0,1,12,0
1532321781465,-4,3,3,-1,-6,-7,-8,-15
1532321781470,4,1,4,6,16,13,8,9
1532321781475,-5,0,-1,-7,-1,2,4,-1
1532321781480,1,-1,-6,-3,-5,9,-10,-3
1532321781485,2,1,1,-1,-7,-20,-10,6
1532321781490,-2,2,2,-2,-10,-6,-3,-26
1532321781495,1,1,0,3,6,-1,-9,-4
1532321781500,4,1,1,2,-5,-13,10,9
1532321781505,-3,0,1,0,5,25,23,5
1532321781510,0,-2,1,-1,0,5,1,14
1532321781515,0,1,-2,1,-3,-19,-26,0
1532321781520,0,-2,1,-1,4,4,-29,9
1532321781525,-2,0,-2,0,2,-8,29,-1
1532321781530,2,0,-3,0,3,24,21,12
1532321781535,-1,-1,0,-4,-13,-3,2,2
1532321781540,-2,1,-2,2,2,-35,-20,-6
1532321781545,0,-1,-2,0,1,30,13,0
1532321781550,-3,3,-5,-1,-2,-13,-22,-7
1532321781555,0,-13,-15,0,0,-2,0,1
1532321781560,-1,38,39,-1,-3,-4,14,-2
1532321781565,-1,-26,-1,0,4,-3,-7,-4
1532321781570,-2,0,-21,-7,-2,-6,-10,-4
1532321781575,2,11,17,-1,-4,5,7,6
1532321781580,-4,3,22,3,-2,3,-4,-6
1532321781585,-2,-4,-16,-4,3,3,0,-3
1532321781590,-5,14,13,-2,0,6,15,1
1532321781595,3,-13,-13,0,0,-5,-1,-3
1532321781600,-3,-5,2,-2,-1,-3,-7,-3
1532321781605,0,9,7,2,1,-16,-15,-4
1532321781610,0,-8,-18,-7,-4,-1,0,2
1532321781615,-4,3,9,-6,-6,2,2,-9
1532321781620,-3,-3,-1,3,-8,-1,4,2
1532321781625,4,0,3,1,5,2,20,11
1532321781630,1,-4,9,3,5,-9,-49,-4
1532321781635,-3,-4,-5,4,3,-6,7,-3
1532321781640,-1,5,-17,-4,-1,4,8,-3
1532321781645,-1,8,1,-1,-3,-4,-23,-2
1532321781650,0,3,8,3,8,2,17,0
1532321781655,1,0,-5,-3,3,20,16,9
1532321781660,-1,-15,-17,-3,-3,-15,-30,-4
1532321781665,-1,6,3,-5,-13,-18,0,1
1532321781670,-1,-2,1,1,0,0,-16,-3
1532321781675,0,-2,5,5,5,11,40,-1
1532321781680,1,-11,-7,4,7,14,16,4
1532321781685,-4,2,-3,-2,7,8,6,-5
1532321781690,-3,-7,2,-6,-24,-20,-11,-7
1532321781695,0,3,1,2,2,-3,-22,4
1532321781700,-1,-2,-4,0,-2,-15,10,-10
1532321781705,-1,-1,-1,2,11,31,11,-1
1532321781710,-2,-7,-1,-9,-25,-31,-15,-4
1532321781715,-6,3,-5,-2,-3,6,-10,-4
1532321781720,-1,-4,-6,1,18,7,4,0
1532321781725,1,-6,-3,-1,-22,-21,-12,0
1532321781730,1,-1,2,2,6,16,15,2
1532321781735,3,5,5,2,6,11,1,-1
1532321781740,1,-4,-7,1,2,7,2,2
1532321781745,-6,-2,-3,-3,-2,-23,-4,-11
1532321781750,-1,-1,-2,1,9,6,-2,2
1532321781755,-3,-1,-1,-4,-4,2,-2,-5
1532321781760,1,-3,-2,-7,-9,12,3,0
1532321781765,-1,1,4,-1,1,6,10,3
1532321781770,-1,2,1,4,5,-4,-8,-4
1532321781775,-1,-2,1,2,14,-19,-4,-1
1532321781780,-3,-6,-6,-10,-21,-9,-16,-6
1532321781785,1,-2,-3,-8,-10,40,10,8
1532321781790,4,2,9,10,9,-5,-6,4
1532321781795,-5,-3,-3,-4,2,0,-4,-11
1532321781800,0,-1,1,3,10,-3,-5,1
1532321781805,0,1,0,2,-14,-26,-10,-1
1532321781810,-2,-3,-3,-1,16,25,12,0
1532321781815,-1,2,3,-5,-19,-7,4,-1
1532321781820,-1,-2,-1,2,-6,5,11,2
1532321781825,0,-1,-5,1,11,3,-3,-2
1532321781830,-2,-2,-1,2,5,0,-7,-1
1532321781835,2,2,0,2,-4,-8,-21,2
1532321781840,-2,-1,-1,0,8,6,13,4
1532321781845,-1,-4,-4,-1,-6,-23,-17,-5
1532321781850,0,1,1,-1,-3,5,17,0
1532321781855,3,0,1,5,3,1,2,12
1532321781860,-1,-2,-4,-2,6,-6,4,-2
1532321781865,-1,2,4,-6,-19,-6,-15,-7
1532321781870,-8,-5,-5,-4,-7,-12,-2,-9
1532321781875,2,-1,2,2,6,15,10,-2
1532321781880,5,0,0,4,-5,-14,-8,17
1532321781885,2,0,1,-1,1,18,8,3
1532321781890,3,1,0,0,3,-23,-9,-2
1532321781895,-2,-1,-3,-3,-4,1,3,-5
1532321781900,-3,-3,-1,0,-5,-14,-6,-6
1532321781905,-3,-2,0,-4,-5,-2,-2,-2
1532321781910,1,0,0,1,-3,21,14,3
1532321781915,-2,1,1,5,11,-5,-6,0
1532321781920,-2,-2,-5,-1,-3,10,12,-3
1532321781925,-3,0,-1,1,12,-29,-15,-1
1532321781930,2,1,-3,-3,-3,25,8,3
1532321781935,-2,-1,-4,-5,0,7,23,3
1532321781940,-2,-2,0,-1,-9,-15,-6,-5
1532321781945,-2,0,3,3,4,3,-9,-1
1532321781950,-1,-2,-3,-3,-2,-16,-4,-3
1532321781955,-1,1,-1,2,-5,4,6,3
1532321781960,-3,-1,-3,-3,-1,3,-13,-10
1532321781965,1,-1,-3,-3,8,-21,2,4
1532321781970,-2,-5,-7,-1,-6,0,-2,-5
1532321781975,-1,14,24,-2,-12,-14,-17,-5
1532321781980,-3,-3,1,2,4,-7,7,-4
1532321781985,5,3,0,1,4,44,7,13
1532321781990,2,-3,-20,-7,-6,-31,-4,5
1532321781995,-2,-12,13,-3,0,38,2,-2
1532321782000,0,0,2,1,1,4,17,1
1532321782005,-3,10,9,1,5,-14,-10,-14
1532321782010,-3,-8,11,-2,-2,10,0,1
1532321782015,2,-6,-10,0,1,-9,9,1
1532321782020,-1,1,-6,-3,-4,-8,-20,0
1532321782025,0,-9,-4,3,3,6,4,3
1532321782030,-2,14,9,3,1,-3,1,1
1532321782035,-1,13,-3,-1,-5,-20,-35,-6
1532321782040,0,-11,-2,-3,-1,34,53,2
1532321782045,2,2,-4,1,-3,-11,-6,0
1532321782050,3,0,2,0,0,-6,-5,10
1532321782055,3,-5,-3,3,2,-3,13,4
1532321782060,-5,2,-4,-2,-3,-15,-5,-8
1532321782065,2,-2,-1,4,6,13,-11,-1
1532321782070,3,-3,0,-5,6,32,13,3
1532321782075,-5,-4,-9,-8,-14,-8,0,5
1532321782080,1,-1,-1,2,7,12,-30,2
1532321782085,-4,-5,-3,-6,-23,-41,-43,-26
1532321782090,-9,-5,2,-2,-2,-14,38,-13
1532321782095,6,2,-7,1,7,14,21,4
1532321782100,-2,2,-1,-1,-3,-3,-21,-7
1532321782105,-1,-3,0,0,20,8,33,30
1532321782110,2,5,0,-4,-42,1,-40,-28
1532321782115,-7,-7,-8,-3,1,-34,-37,-34
1532321782120,-2,-2,0,0,-4,3,28,0
1532321782125,0,1,0,-1,10,22,-14,-8
1532321782130,7,0,-1,7,30,-7,21,50
1532321782135,-4,-3,-4,-1,-9,19,14,-14
1532321782140,0,2,3,-4,-6,3,-33,-8
1532321782145,-2,-3,-3,1,10,10,53,0
1532321782150,-13,-4,0,3,25,-10,-41,-55
1532321782155,5,2,1,-2,-30,37,0,58
1532321782160,0,-2,0,1,11,-3,42,15
1532321782165,4,2,2,6,13,54,-14,20
1532321782170,0,-1,1,-1,6,24,12,-15
1532321782175,-1,-2,-5,-3,7,-31,15,18
1532321782180,-4,-5,-8,-2,-2,-23,-26,-28
1532321782185,8,4,5,3,6,61,47,80
1532321782190,6,1,5,4,-31,-11,-31,-32
1532321782195,-8,-4,-8,-6,6,-24,26,-29
1532321782200,3,0,3,5,11,38,-1,11
1532321782205,-2,-3,-3,-3,-6,-45,39,-29
1532321782210,-2,0,-5,-6,-7,13,-20,16
1532321782215,-1,6,7,0,-6,-2,10,-5
1532321782220,-3,-3,-8,-2,1,-38,-25,-17
1532321782225,-1,-1,-4,-3,-21,-13,-28,-18
1532321782230,-4,-2,-3,-1,-5,-30,5,1
1532321782235,1,-1,-1,-2,13,10,-11,-6
1532321782240,2,9,7,-2,-11,5,12,11
1532321782245,-7,-14,-6,-1,-3,-26,-21,-23
1532321782250,1,-3,-3,-1,6,6,15,15
1532321782255,-1,-3,-3,1,1,2,-6,-3
1532321782260,0,1,1,-2,1,6,-8,0
1532321782265,-2,3,2,-1,-6,-11,-6,-10
1532321782270,-3,-3,-3,1,0,-7,2,0
1532321782275,0,-2,-1,4,6,6,-19,3
1532321782280,1,-2,-2,-7,-10,-12,3,-2
1532321782285,-1,1,-1,0,-1,-4,-6,-10
1532321782290,2,-1,5,-1,2,6,7,14
1532321782295,0,3,6,2,1,-7,-8,-1
1532321782300,0,-1,1,-2,-1,11,3,2
1532321782305,-3,-5,-6,-4,-6,-19,-17,-9
1532321782310,-2,0,-1,-1,2,7,19,4
1532321782315,1,-5,-10,-1,-2,-6,-16,-3
1532321782320,-1,1,6,0,0,2,-9,-2
1532321782325,4,4,1,1,-3,0,3,2
1532321782330,-1,-1,-7,-5,-4,-8,-2,4
1532321782335,1,2,2,2,3,3,-6,-8
1532321782340,2,0,-2,0,-1,2,3,14
1532321782345,-2,2,1,3,6,3,11,-9
1532321782350,-2,-4,-3,-3,-5,-1,6,1
1532321782355,-2,-4,-1,-1,0,-5,-27,-7
1532321782360,2,-2,-2,2,2,-11,-19,2
1532321782365,-2,-3,-2,-3,-3,-22,-11,-1
1532321782370,-2,1,1,3,6,40,6,3
1532321782375,-3,-2,2,1,5,4,-3,-2
1532321782380,0,-3,0,8,8,-2,7,4
1532321782385,2,3,-8,-9,-33,-3,4,3
1532321782390,0,-2,-3,-2,-2,-17,-11,1
1532321782395,-3,-1,-2,0,-4,-3,5,-3
1532321782400,-7,-6,-3,-3,-1,8,5,-6
1532321782405,-2,-2,1,3,3,-7,4,0
1532321782410,9,2,0,2,1,-4,-8,17
1532321782415,2,1,0,-1,-3,2,5,4
1532321782420,2,3,0,0,0,-3,-3,-1
1532321782425,-6,-1,1,-4,2,2,-17,-10
1532321782430,-3,-3,-3,0,-1,-6,-4,-5
1532321782435,0,-1,0,-2,3,6,24,5
1532321782440,0,0,0,-2,-2,-3,-13,1
1532321782445,-1,-1,-4,-1,5,3,-10,0
1532321782450,-2,1,10,2,-1,-6,2,-2
1532321782455,-1,-2,-9,-1,1,-10,4,-5
1532321782460,-4,-3,-4,1,20,5,4,-9
1532321782465,0,-2,1,-7,-39,-12,-9,3
1532321782470,-1,0,1,-2,-1,-2,7,0
1532321782475,2,2,2,2,-5,-11,-7,7
1532321782480,0,-1,2,7,17,26,3,-4
1532321782485,-2,0,-3,-3,12,2,-3,-3
1532321782490,-1,-1,-1,-4,0,-6,0,7
1532321782495,-7,-5,-5,-10,-22,-47,-12,-18
1532321782500,2,2,-3,-5,-11,26,2,5
1532321782505,3,-3,-3,2,0,-4,4,-3
1532321782510,-2,-2,-2,0,0,6,-3,0
1532321782515,5,0,0,5,21,13,-6,11
1532321782520,-1,0,6,1,-15,-17,16,-2
1532321782525,-3,-1,-1,2,10,1,9,-3
1532321782530,-10,-5,-3,-2,-1,-11,-11,-17
1532321782535,1,1,2,5,11,13,-10,2
1532321782540,5,1,-3,-8,-5,7,8,17
1532321782545,-2,-2,-2,-4,-9,-9,-2,-1
1532321782550,-10,-3,-6,-2,0,-3,-24,-26
1532321782555,-3,-1,3,-2,-2,2,19,7
1532321782560,0,-3,-3,0,1,-9,-6,-6
1532321782565,1,2,1,1,5,-1,-8,-4
1532321782570,2,0,-2,2,6,2,7,5
1532321782575,-4,-4,-3,-9,-21,24,-10,-6
1532321782580,-2,-1,0,0,8,-7,-3,-4
1532321782585,-3,-1,0,3,4,-5,8,2
1532321782590,4,2,2,0,2,-9,-6,5
1532321782595,3,1,0,3,8,30,9,4
1532321782600,-1,-3,-2,-3,-13,-8,5,3
1532321782605,-2,0,2,3,14,-2,-7,-7
1532321782610,3,1,1,-1,-10,12,12,3
1532321782615,3,-1,-4,-6,-5,-17,13,9
1532321782620,-3,-2,-2,-3,-9,-5,-7,-6
1532321782625,-2,-2,0,0,9,20,17,-2
1532321782630,1,0,1,0,-1,-11,-1,9
1532321782635,-6,-2,1,5,16,5,-52,-14
1532321782640,-1,0,-4,-6,-26,-35,44,-1
1532321782645,-2,-2,-2,0,-6,20,6,0
1532321782650,2,0,0,1,6,4,4,5
1532321782655,0,0,-1,2,10,6,5,-3
1532321782660,-1,-1,-2,-4,-10,11,3,1
1532321782665,-1,1,4,4,17,33,-9,7
1532321782670,-3,-2,-4,-6,-35,-84,-43,-13
1532321782675,0,1,2,-1,7,18,-10,-4
1532321782680,-2,-2,0,3,13,22,-7,-5
1532321782685,-3,-5,-7,-11,-16,-26,18,-3
1532321782690,3,4,1,7,16,10,-37,-3
1532321782695,-2,-4,-6,-7,-31,19,0,5
1532321782700,-2,-1,2,3,1,-55,-3,-7
1532321782705,1,-1,3,10,27,87,4,8
1532321782710,3,-1,-3,-4,-2,-7,14,9
1532321782715,-2,-1,-2,-5,-1,-14,-5,-11
1532321782720,-4,-3,2,0,6,25,-18,-1
1532321782725,-1,0,-1,-1,-5,-18,4,-3
1532321782730,-1,-1,0,2,4,14,10,2
1532321782735,1,2,1,1,-11,-8,-4,3
1532321782740,0,0,-1,-1,3,-60,-22,-1
1532321782745,1,0,-1,-3,-9,12,-2,-3
1532321782750,-1,-3,-2,-2,-7,26,21,1
1532321782755,-4,-5,-5,-1,8,-5,7,-1
1532321782760,2,2,-2,-4,-6,6,-2,0
1532321782765,-3,-1,0,-7,-31,-88,-48,-10
1532321782770,-4,2,-8,-2,10,34,21,3
1532321782775,-3,-5,-18,1,0,-10,4,-1
1532321782780,-1,0,31,2,7,29,6,0
1532321782785,-1,4,4,0,-1,-9,-1,-4
1532321782790,-1,-7,33,8,-2,2,4,0
1532321782795,2,1,-22,-9,-9,-39,-9,1
1532321782800,5,4,-26,6,11,46,25,8
1532321782805,-4,-2,-39,-2,3,0,9,-7
1532321782810,2,2,41,0,2,-7,-3,4
1532321782815,1,0,12,2,1,3,4,2
1532321782820,-2,-1,6,0,-3,4,-7,-3
1532321782825,1,0,2,-1,6,2,-2,3
1532321782830,-2,0,-24,0,-3,-5,-6,-11
1532321782835,-1,-2,9,1,7,4,1,1
1532321782840,-2,-1,-8,-7,-10,-7,-3,-5
1532321782845,0,-2,8,1,-4,-14,-6,0
1532321782850,-2,-1,-6,6,15,-1,12,-3
1532321782855,-3,1,8,-6,-19,25,12,-6
1532321782860,5,1,2,2,7,9,-4,18
1532321782865,-4,-3,-4,-2,-6,-12,-12,-9
1532321782870,-2,-1,-9,-2,4,5,23,-5
1532321782875,-1,1,1,1,6,11,-10,-9
1532321782880,3,0,-7,-1,-17,-12,-1,2
1532321782885,-2,-2,6,-3,-6,-6,-12,-15
1532321782890,12,1,-12,-9,-6,0,3,12
1532321782895,0,0,0,-2,-10,-8,31,5
1532321782900,-8,-4,-1,0,11,5,-34,-16
1532321782905,2,3,6,5,9,-18,5,7
1532321782910,-3,-1,-7,-5,-18,-8,8,9
1532321782915,-1,-1,2,3,0,-3,-19,-1
1532321782920,2,-2,-1,-1,2,3,22,4
1532321782925,-3,0,-1,-2,7,14,11,3
1532321782930,-4,-1,-7,0,23,25,-2,-9
1532321782935,1,-1,3,-3,-19,8,0,16
1532321782940,-1,1,2,3,-19,-84,6,-10
1532321782945,1,-1,-2,-3,-3,56,-3,-16
1532321782950,-1,-1,-5,-3,-7,-34,-14,3
1532321782955,0,1,-1,-1,16,14,-23,-9
1532321782960,-6,-4,-5,-6,3,-14,-16,-9
1532321782965,3,3,1,0,-13,-2,20,12
1532321782970,-1,-2,1,5,25,34,-9,-7
1532321782975,3,1,-3,-7,-16,-37,11,2
1532321782980,-7,-5,-2,-3,-12,-2,0,-8
1532321782985,0,0,2,0,19,6,-16,-1
1532321782990,-4,-3,-7,-4,-22,-48,-16,-3
1532321782995,2,1,4,4,10,31,19,-2
1532321783000,0,0,-1,-2,9,13,-6,-10
1532321783005,-1,-4,-1,-1,-14,19,6,7
1532321783010,-2,1,1,-1,0,-9,-12,-3
1532321783015,-1,5,9,5,8,-22,-4,-6
1532321783020,-3,-9,-17,-2,0,18,6,8
1532321783025,-4,-6,0,0,4,0,-4,-5
1532321783030,-3,-4,-37,0,-17,-21,-15,-12
1532321783035,3,-1,59,4,8,8,31,4
1532321783040,1,13,-17,-13,3,26,-2,0
1532321783045,1,0,5,-2,-4,-15,12,12
1532321783050,-4,-14,-29,-6,-9,2,1,-4
1532321783055,-7,-68,-59,-7,-2,-17,-21,-3
1532321783060,2,42,18,6,0,10,-5,4
1532321783065,2,12,23,4,0,-14,3,0
1532321783070,0,11,23,1,0,13,2,5
1532321783075,0,3,-29,-3,4,9,2,6
1532321783080,6,-9,13,1,3,14,11,9
1532321783085,3,-5,-14,0,-5,-19,-15,7
1532321783090,3,1,19,3,2,19,6,6
1532321783095,-3,13,0,-2,-3,-8,-2,-9
1532321783100,-7,-16,-7,0,-9,-8,-1,-8
1532321783105,1,10,15,2,6,-5,-16,-4
1532321783110,3,-9,-5,-1,4,0,7,-3
1532321783115,-1,12,8,1,0,0,-1,-2
1532321783120,0,-5,1,-1,-8,2,-2,4
1532321783125,-3,-11,-13,-1,-4,-29,-19,-3
1532321783130,1,3,8,3,10,48,41,-3
1532321783135,-1,5,-6,-2,-15,-11,7,3
1532321783140,-3,-6,4,2,6,-30,-27,-4
1532321783145,2,-3,-7,0,10,26,30,1
1532321783150,-1,1,1,-11,-17,-56,-3,7
1532321783155,-3,7,8,5,4,24,-14,-10
1532321783160,2,-8,-6,3,13,7,13,8
1532321783165,-4,-3,-2,-2,-10,33,20,-4
1532321783170,-3,3,7,9,24,-10,-36,-7
1532321783175,2,1,-1,-4,-19,-37,12,7
1532321783180,-1,0,4,-3,-10,20,20,-6
1532321783185,-2,-5,-11,1,14,-42,-17,-7
1532321783190,-3,-3,-1,-7,-21,0,10,-4
1532321783195,3,3,3,3,10,35,-4,10
1532321783200,1,-2,1,7,25,-17,38,0
1532321783205,3,5,9,-3,-21,54,-2,2
1532321783210,-3,-4,-5,-11,3,11,11,-5
1532321783215,-3,-2,-4,-3,-5,6,-33,-7
1532321783220,-5,1,9,-1,-22,-45,-24,-12
1532321783225,7,5,6,6,23,-82,-8,31
1532321783230,0,1,1,3,14,74,12,-27
1532321783235,-2,1,-5,-3,10,48,11,-5
1532321783240,-5,-6,-6,-5,-1,15,-1,-6
1532321783245,-4,-3,-7,-5,-17,-1,-2,-9
1532321783250,-2,0,0,-3,-17,-32,-33,9
1532321783255,0,1,4,2,17,-19,31,0
1532321783260,-1,-4,-4,-2,-16,-17,-20,-6
1532321783265,-2,-2,-1,2,18,40,4,-9
1532321783270,1,2,0,2,3,4,3,11
1532321783275,1,1,3,4,0,-19,-3,-1
1532321783280,1,0,0,-3,9,10,-7,9
1532321783285,-2,-3,-8,-12,-16,6,-10,-8
1532321783290,-1,-1,-2,-3,-22,-70,3,-2
1532321783295,2,2,2,9,2,10,5,2
1532321783300,0,-1,1,6,12,42,-3,3
1532321783305,-2,-1,4,10,36,-65,18,-2
1532321783310,1,0,-2,2,2,62,-31,0
1532321783315,-1,3,-3,-14,-4,-55,-28,2
1532321783320,0,-3,-4,-3,5,5,-5,1
1532321783325,1,0,0,-7,-21,8,15,3
1532321783330,0,0,-2,2,-17,9,15,-4
1532321783335,-1,-1,-1,-5,-6,19,2,7
1532321783340,0,-1,2,-2,-9,17,32,-2
1532321783345,2,1,1,3,24,0,-23,1
1532321783350,4,2,3,-2,6,42,8,11
1532321783355,-3,0,-1,0,-8,-25,-24,-10
1532321783360,0,0,2,4,4,-20,-20,1
1532321783365,1,-2,-3,-7,-8,-7,32,2
1532321783370,-3,-2,-1,1,0,-24,-6,-6
1532321783375,1,1,-1,1,3,18,-28,15
1532321783380,-3,-2,-4,-4,3,-16,20,-8
1532321783385,-4,0,2,1,0,7,-11,-6
1532321783390,2,-2,-6,-3,-3,41,-32,5
1532321783395,-2,1,1,-2,-3,21,34,9
1532321783400,0,-2,-1,-5,-36,-36,-13,5
1532321783405,4,1,5,-1,6,30,10,6
1532321783410,-4,-3,1,-3,-3,-36,-12,4
1532321783415,-2,-3,-3,5,-15,13,30,-6
1532321783420,1,0,-4,-6,-3,41,-24,-1
1532321783425,-6,-2,0,4,8,-4,-1,-12
1532321783430,1,-1,0,4,-26,-34,-2,-1
1532321783435,2,-2,-3,-4,23,31,-7,14
1532321783440,0,0,2,6,12,-74,11,-9
1532321783445,-2,-1,-4,5,-1,8,3,0
1532321783450,-2,-2,-3,1,19,10,11,-4
1532321783455,1,-2,-2,-7,-9,-27,-11,-3
1532321783460,0,1,-7,1,10,49,1,-4
1532321783465,1,1,2,-2,45,24,-6,9
1532321783470,1,2,0,7,41,11,21,-3
1532321783475,-2,0,1,-4,-44,-57,-22,2
1532321783480,-1,-3,-3,-6,3,20,-29,-1
1532321783485,0,0,0,-2,-10,-3,9,-8
1532321783490,-3,-1,-4,3,23,15,-4,0
1532321783495,-1,-3,2,4,30,64,1,-13
1532321783500,-1,-1,0,-5,-10,8,42,16
1532321783505,0,0,0,-8,-5,-32,-36,-6
1532321783510,-2,0,1,2,-5,16,31,2
1532321783515,-5,-3,-4,-3,-19,-100,-75,-15
1532321783520,0,-1,0,-2,-5,15,8,1
1532321783525,0,-1,-3,0,-6,2,2,-2
1532321783530,3,1,-2,0,0,-20,55,4
1532321783535,0,0,-2,-2,3,-6,13,-3
1532321783540,-3,-3,-1,-2,5,49,17,-7
1532321783545,1,-1,-2,-4,-15,-23,-28,-1
1532321783550,-2,-2,-3,-6,-14,-38,-34,-9
1532321783555,1,-2,-4,0,-2,91,34,-1
1532321783560,-2,-1,3,-3,-18,-58,2,-3
1532321783565,2,1,0,-2,-10,-54,-9,-1
1532321783570,-4,-2,-1,1,3,-3,-37,-7
1532321783575,-1,-4,-1,-5,-4,1,1,1
1532321783580,1,1,3,4,16,-13,18,0
1532321783585,-5,-4,-7,-8,-8,17,9,-3
1532321783590,1,0,0,-4,-13,39,-38,-2
1532321783595,1,5,4,-1,-3,-54,40,5
1532321783600,-1,-5,-2,11,38,15,-25,-5
1532321783605,2,0,0,0,-37,-11,43,5
1532321783610,1,-3,-1,-3,5,49,5,-2
1532321783615,-4,-2,-5,-8,-10,-67,-62,-9
1532321783620,2,1,0,-4,-6,4,21,3
1532321783625,-3,-1,1,2,12,6,-7,-9
1532321783630,4,3,3,1,-24,-10,17,12
1532321783635,0,1,1,0,5,10,-21,-1
1532321783640,-2,-1,-2,-5,10,31,-21,-2
1532321783645,-1,-1,-4,-2,-8,6,15,1
1532321783650,0,-2,-3,-3,8,17,-4,-4
1532321783655,-3,-3,-8,-4,-5,-5,-9,-2
1532321783660,-2,-2,-4,18,58,-24,12,-5
1532321783665,-2,-4,-7,-6,9,31,9,-1
1532321783670,-2,-2,-5,-8,-13,0,-7,-1
1532321783675,-2,-1,-2,-3,0,-5,12,0
1532321783680,1,1,0,-3,9,-7,-5,-1
1532321783685,2,0,3,1,-17,-10,29,2
1532321783690,-1,0,-4,5,10,-45,-47,-7
1532321783695,-2,-4,-7,-4,-3,-11,23,1
1532321783700,-1,-2,-1,-5,-26,1,-1,5
1532321783705,-3,-1,0,0,0,-3,-14,-2
1532321783710,-1,0,4,0,4,6,10,3
1532321783715,0,1,9,12,37,26,-3,-2
1532321783720,-1,0,-1,-7,-30,-48,3,1
1532321783725,0,0,-3,2,7,-5,-25,-7
1532321783730,1,0,-3,-1,10,6,18,4
1532321783735,-2,-1,0,-3,-7,22,12,0
1532321783740,-5,-4,-8,2,2,4,-17,-6
1532321783745,0,-1,0,-8,-24,-36,-3,9
1532321783750,-2,-1,-2,-1,-15,19,-25,-8
1532321783755,2,0,-1,1,0,-30,-3,0
1532321783760,-2,0,1,-1,22,-26,0,-8
1532321783765,-3,-5,-1,5,8,4,-16,-4
1532321783770,-4,-1,-1,-11,-28,13,34,-2
1532321783775,2,-4,-5,-4,-46,-63,8,5
1532321783780,0,-1,-2,-7,-18,-8,-19,2
1532321783785,1,2,2,6,35,23,14,2
1532321783790,-1,-3,0,-3,-25,-36,-3,2
1532321783795,-4,2,2,2,23,2,-9,-9
1532321783800,4,4,2,-1,-8,27,24,11
1532321783805,-2,-2,-3,-6,-8,-7,1,-6
1532321783810,3,1,5,7,12,-13,17,6
1532321783815,0,0,2,-1,-17,30,-22,0
1532321783820,3,1,2,2,-2,-8,5,5
1532321783825,-3,0,0,-5,1,-37,-12,-4
1532321783830,-3,2,3,1,29,78,-14,-15
1532321783835,-2,-3,-6,-6,-13,-74,29,7
1532321783840,0,-2,-2,-2,-22,-27,-7,0
1532321783845,2,0,0,4,-2,-25,8,5
1532321783850,2,1,2,11,54,-33,-27,-4
1532321783855,-1,-1,-2,-5,-5,9,-8,-5
1532321783860,0,-2,1,-2,-8,9,5,0
1532321783865,2,0,0,-3,-12,-33,6,4
1532321783870,-1,-7,-2,3,8,67,16,2
1532321783875,-2,-2,3,6,18,24,1,-2
1532321783880,-2,-1,1,-3,23,18,-5,-9
1532321783885,-4,-3,-5,-6,-14,0,-7,0
1532321783890,1,3,1,0,-11,-17,12,6
1532321783895,0,2,1,1,13,23,6,-2
1532321783900,-3,-3,-1,-2,-11,-9,-1,-2
1532321783905,1,2,0,3,4,28,7,-4
1532321783910,-4,-1,-3,-4,-13,-13,-8,-7
1532321783915,2,1,2,3,6,17,10,5
1532321783920,4,2,3,-1,-10,-17,-16,9
1532321783925,-1,-1,-2,-3,-7,8,-4,-6
1532321783930,-2,-2,-4,-5,-10,-22,-4,4
1532321783935,-1,0,1,1,8,17,-5,-8
1532321783940,-3,-2,-3,-4,-4,-31,3,-6
1532321783945,2,1,-1,-2,-23,48,-17,0
1532321783950,0,-2,-2,-1,-1,21,8,4
1532321783955,-4,-3,-3,-8,-13,-36,-15,-9
1532321783960,1,1,2,3,1,12,3,5
1532321783965,-2,-2,2,1,7,-9,-14,-5
1532321783970,-2,-1,-5,1,2,-22,11,-2
1532321783975,-1,-3,-3,-2,-8,43,0,-5
1532321783980,-3,5,2,0,-16,-11,2,-5
1532321783985,2,-4,5,0,14,0,7,6
1532321783990,-1,-19,-22,-2,-8,12,-16,1
1532321783995,0,11,13,-2,-4,-26,10,-1
1532321784000,-5,3,-3,-1,3,11,-11,-1
1532321784005,2,-3,-3,0,1,2,10,3
1532321784010,-1,1,1,-4,-7,-13,-15,3
1532321784015,1,-7,-22,-3,-1,5,4,8
1532321784020,-5,-11,13,-2,-5,-3,2,-3
1532321784025,1,12,8,1,3,-1,0,2
1532321784030,0,-14,19,2,2,7,9,0
1532321784035,1,13,-13,-3,0,-1,-6,-3
1532321784040,-3,-6,-7,0,-6,-2,-4,-9
1532321784045,-3,-3,-9,1,4,-7,3,-4
1532321784050,0,6,7,-3,-2,-7,-10,-9
1532321784055,6,-2,8,4,2,10,12,14
1532321784060,0,-2,-9,-6,-8,-11,-14,-1
1532321784065,-5,-1,0,0,2,-1,-8,-6
1532321784070,0,8,-2,-4,-4,-5,8,3
1532321784075,-3,-4,1,0,0,-1,-4,-3
1532321784080,0,0,-6,1,1,6,3,-5
1532321784085,1,0,3,-1,2,4,-2,8
1532321784090,5,4,-1,-4,0,-10,11,8
1532321784095,4,-2,0,0,0,11,-4,6
1532321784100,2,1,3,2,7,12,20,9
1532321784105,-2,-2,-3,-1,-9,-7,-3,-4
1532321784110,2,2,-1,3,3,10,-12,-1
1532321784115,-6,-3,1,-1,-4,-18,-8,-11
1532321784120,-3,-2,1,1,24,-29,8,-5
1532321784125,-2,-4,-7,-9,-47,47,22,6
1532321784130,2,3,-3,0,-1,3,-1,7
1532321784135,-7,-5,0,-1,19,22,5,-18
1532321784140,4,-1,-2,-3,-22,-17,1,16
1532321784145,-2,-1,-2,5,42,18,-28,-18
1532321784150,-4,0,1,0,15,-21,28,-6
1532321784155,1,-1,1,-5,-20,78,-55,-26
1532321784160,-8,0,-3,-1,-21,-11,24,27
1532321784165,-12,-4,-5,-2,19,-27,-17,-10
1532321784170,-9,-4,-2,-3,-12,84,-26,-15
1532321784175,1,-4,-2,-1,-7,-46,80,-5
1532321784180,4,0,-6,-2,6,61,-53,3
1532321784185,7,3,4,-6,-12,-10,24,15
1532321784190,0,1,1,6,18,-3,4,5
1532321784195,-3,0,-1,0,-7,-51,-24,0
1532321784200,2,-1,-1,-3,1,17,6,-13
1532321784205,5,2,-3,0,-6,-5,26,-8
1532321784210,-2,0,1,2,9,-26,0,4
1532321784215,-1,-8,-10,-1,4,1,-3,9
1532321784220,0,13,15,-1,-13,-19,5,-16
1532321784225,0,6,6,4,18,21,-4,1
1532321784230,1,-7,-4,-6,-16,-22,-2,-1
1532321784235,-2,-5,0,7,6,-33,9,6
1532321784240,-3,-6,-5,0,10,24,-11,-8
1532321784245,-5,-4,-6,2,-4,-45,2,-3
1532321784250,0,5,3,-9,-49,-52,0,8
1532321784255,-2,-5,6,-3,-12,-16,-17,-4
1532321784260,2,-4,-10,2,14,-7,-1,5
1532321784265,1,2,-9,4,6,24,13,5
1532321784270,-3,2,1,-8,4,2,-1,-15
1532321784275,-1,2,8,1,4,3,4,5
1532321784280,-2,2,4,0,-13,-34,-10,-4
1532321784285,0,-8,1,-1,-3,15,-6,-2
1532321784290,4,6,-4,4,3,3,-8,6
1532321784295,-1,-26,-23,-5,4,-1,3,6
1532321784300,0,0,-15,-7,-13,11,9,1
1532321784305,-1,22,20,-6,-3,-28,-9,-3
1532321784310,-2,-17,-22,2,6,19,17,-5
1532321784315,4,10,3,-1,0,-1,-5,9
1532321784320,-2,-3,13,11,7,-5,1,-7
1532321784325,-2,-15,-10,1,2,-6,-11,2
1532321784330,-1,6,17,-1,3,1,10,-7
1532321784335,0,11,-6,-1,-4,13,-13,4
1532321784340,-5,-7,-5,-4,0,-4,-7,-4
1532321784345,-3,-2,-6,-4,-4,-12,6,-9
1532321784350,4,3,8,3,1,15,-1,9
1532321784355,-1,-3,-3,2,4,4,3,3
1532321784360,8,2,3,-1,1,-16,-23,8
1532321784365,-3,-2,5,2,0,3,0,-8
1532321784370,-3,-5,-10,-2,-8,-2,5,-6
1532321784375,-3,2,7,-1,-4,-35,-39,-8
1532321784380,-2,0,-2,-3,-6,23,13,3
1532321784385,2,-3,-4,0,-1,-2,-16,6
1532321784390,-5,-2,-2,0,5,-6,14,-6
1532321784395,-2,3,0,-3,5,2,18,2
1532321784400,-7,-5,0,-2,-9,-12,-18,-9
1532321784405,0,-5,-4,1,8,15,3,5
1532321784410,-4,-1,0,-3,0,-2,-14,-19
1532321784415,0,2,8,-3,-10,-9,-6,3
1532321784420,4,-4,-7,3,6,1,28,5
1532321784425,0,-1,0,-1,1,7,-5,9
1532321784430,0,1,0,-1,7,23,23,9
1532321784435,3,3,3,-2,-39,-60,-12,2
1532321784440,5,1,0,4,14,-4,-38,-9
1532321784445,-3,-2,-3,-4,-26,-4,2,-5
1532321784450,-3,-2,0,-4,-12,-27,0,0
1532321784455,-1,-3,-2,2,21,67,35,2
1532321784460,-5,-1,0,-4,0,-25,-11,-16
1532321784465,1,-1,-1,3,-15,3,-47,-19
1532321784470,0,0,-3,-6,3,44,53,4
1532321784475,-6,-3,-4,-4,-10,-15,-25,-11
1532321784480,-4,-3,0,1,4,-63,-7,-9
1532321784485,1,-3,-4,-7,6,90,21,26
1532321784490,-1,-2,-2,2,-3,-25,-28,-26
1532321784495,1,1,2,11,53,-43,6,6
1532321784500,2,1,3,-1,-11,67,35,9
1532321784505,2,1,-3,-2,-5,-34,-3,5
1532321784510,-1,-5,-2,0,-7,1,-14,5
1532321784515,0,2,1,-1,-2,-4,5,-1
1532321784520,-3,-2,-3,2,12,64,14,-5
1532321784525,-4,-3,3,2,4,-38,-16,-7
1532321784530,1,0,-5,-3,-13,-27,-17,9
1532321784535,0,-1,-1,3,1,43,22,2
1532321784540,2,-1,-1,-3,-8,-15,-2,4
1532321784545,-2,-2,-2,-3,-9,23,53,-7
1532321784550,-1,1,2,2,32,4,-77,0
1532321784555,-1,-2,1,-1,3,-55,2,-9
1532321784560,0,1,-5,-7,-12,29,-5,5
1532321784565,0,0,0,3,13,-17,-1,-1
1532321784570,-2,-2,2,-1,-3,-10,-3,-4
1532321784575,5,7,2,1,-4,25,2,11
1532321784580,-4,-7,-7,3,5,-10,9,0
1532321784585,-3,-4,-4,2,7,-17,-2,-5
1532321784590,-3,1,-9,-2,1,12,1,1
1532321784595,-1,-7,12,-3,-9,14,1,-2
1532321784600,1,9,19,2,2,-14,5,3
1532321784605,3,1,-2,-1,4,-1,-4,-1
1532321784610,2,-1,-8,4,0,-9,3,3
1532321784615,-2,-5,-17,-6,-6,18,-7,1
1532321784620,-2,-1,-14,-3,7,-7,18,-7
1532321784625,3,0,17,-1,-1,-14,-23,3
1532321784630,0,2,8,1,-3,-14,-8,-2
1532321784635,-1,-2,-1,-1,-8,7,13,-2
1532321784640,-2,-2,-2,2,1,-1,-5,-3
1532321784645,2,1,-3,2,3,6,6,4
1532321784650,-1,-3,-2,0,-5,-2,2,-1
1532321784655,0,0,1,0,-1,14,13,7
1532321784660,-1,-1,1,-5,-7,-13,-6,-5
1532321784665,-1,-1,-2,-1,2,-4,10,-4
1532321784670,-1,-1,7,1,-1,2,-1,0
1532321784675,-3,-2,-10,-3,0,5,-4,-5
1532321784680,1,1,0,1,-1,-5,1,2
1532321784685,-2,-3,-4,-2,-6,-21,-6,-6
1532321784690,-1,-2,2,-3,-5,19,6,1
1532321784695,-4,0,4,-1,1,8,-4,-9
1532321784700,2,-2,-4,-2,4,1,-1,3
1532321784705,0,0,-1,0,-3,-5,3,0
1532321784710,-2,-3,1,1,3,7,4,0
1532321784715,-2,0,-3,0,-2,-2,-8,3
1532321784720,-1,-2,-2,-2,-1,6,24,4
1532321784725,-1,0,0,-2,-2,5,16,2
1532321784730,-3,0,0,3,19,12,-10,-4
1532321784735,1,1,1,-4,-23,-18,-9,-1
1532321784740,-2,-2,-7,-6,-8,-2,9,4
1532321784745,-2,-1,-1,-2,0,2,-4,-3
1532321784750,0,1,-2,-2,-6,-18,-7,-2
1532321784755,-5,-5,-5,-3,3,2,6,-14
1532321784760,1,1,5,9,37,7,-19,27
1532321784765,-1,-1,-3,-7,-33,-15,32,-14
1532321784770,-1,0,-2,-1,-4,-5,-9,3
1532321784775,4,2,3,-2,-13,-26,-4,-1
1532321784780,4,0,-3,-3,-12,-11,0,3
1532321784785,0,-2,1,6,19,26,-12,24
1532321784790,-5,-3,4,-1,1,-37,4,-12
1532321784795,-5,-1,-2,4,22,2,26,5
1532321784800,-2,-1,-3,-7,-47,-26,-19,-4
1532321784805,-2,0,-2,-3,5,-24,5,-4
1532321784810,-3,-4,-4,-4,-7,56,-12,-7
1532321784815,2,0,4,9,43,30,31,4
1532321784820,-6,-3,-5,0,-3,5,-40,-29
1532321784825,0,0,-1,1,0,6,15,-5
1532321784830,0,-1,-3,-5,-3,-26,-14,10
1532321784835,-1,-2,-1,-6,-10,-2,-10,4
1532321784840,-1,-1,-1,-4,8,15,-8,-5
1532321784845,2,1,2,2,6,25,15,5
1532321784850,-1,-2,-1,-1,2,-13,36,8
1532321784855,-1,2,-1,-2,-19,-8,1,0
1532321784860,0,-5,1,0,-3,2,-7,-2
1532321784865,-5,-6,-7,-6,-11,-17,-38,-10
1532321784870,-1,-3,-1,2,6,4,10,-3
1532321784875,-2,0,3,8,25,4,-8,-8
1532321784880,-1,-2,-7,-7,-20,-19,12,7
1532321784885,0,1,2,2,11,3,-19,-6
1532321784890,0,2,-1,-4,-16,17,-2,-4
1532321784895,-7,-3,-7,0,2,-22,-6,-7
1532321784900,3,5,5,4,23,-8,15,6
1532321784905,1,-5,-7,-6,-7,10,21,5
1532321784910,-3,-4,-15,-3,-12,-8,-18,-7
1532321784915,-4,-1,11,-5,-9,15,-20,-9
1532321784920,1,8,24,3,-10,-50,18,1
1532321784925,1,-8,-23,-3,3,2,11,0
1532321784930,-2,-3,3,3,3,-2,5,-4
1532321784935,2,-4,-6,-5,-11,-4,-8,2
1532321784940,-4,-10,-13,-3,2,7,-17,-6
1532321784945,1,13,11,2,3,2,-5,1
1532321784950,-2,1,16,-3,-8,-15,-1,-2
1532321784955,-1,0,-8,-2,-8,19,8,3
1532321784960,-1,-1,4,-3,1,10,-1,0
1532321784965,-4,-2,3,-3,-6,-11,-12,-8
1532321784970,0,-3,-10,-2,4,12,11,1
1532321784975,0,1,-1,-3,-12,-3,0,1
1532321784980,0,-1,-1,2,8,6,-15,-2
1532321784985,-4,-2,5,-1,-3,-6,0,-7
1532321784990,-2,2,-9,-1,-4,-2,-2,-3
1532321784995,4,-3,3,0,-3,5,6,5
1532321785000,2,1,-7,1,2,11,7,4
1532321785005,0,6,4,1,0,-3,1,-1
1532321785010,1,-7,-1,-1,2,4,-5,-2
1532321785015,-1,0,-4,-1,-5,-1,-7,4
1532321785020,-3,-3,-5,2,12,20,16,-2
1532321785025,0,-2,1,-8,-36,-33,-3,-2
1532321785030,-2,-1,4,1,6,-13,-10,-1
1532321785035,1,1,-5,-1,3,2,-5,3
1532321785040,-3,-1,0,-2,-7,10,7,-6
1532321785045,-2,-3,2,1,8,1,16,-10
1532321785050,2,3,-2,0,-2,-12,-12,10
1532321785055,0,-2,-2,-2,-3,-1,-9,-1
1532321785060,0,0,3,4,8,-6,-3,3
1532321785065,-1,-2,-4,1,15,23,7,2
1532321785070,0,0,-1,-5,-4,-6,1,-5
1532321785075,1,-1,1,1,-9,18,-3,2
1532321785080,0,0,-6,-2,-3,-5,0,-1
1532321785085,-3,-2,-2,0,2,7,20,5
1532321785090,7,6,7,7,32,21,-42,5
1532321785095,-4,-3,-2,-5,-44,-38,5,-10
1532321785100,-1,-1,-5,-7,-4,5,-17,5
1532321785105,4,-3,-2,0,-1,-9,-17,-2
1532321785110,-3,-1,2,-1,-5,-10,24,2
1532321785115,-4,-1,-3,1,11,10,-10,-8
1532321785120,-1,-2,-1,1,3,4,5,-6
1532321785125,2,1,1,-1,-2,1,-24,13
1532321785130,-1,0,-1,-4,-23,-15,25,-2
1532321785135,3,2,0,2,15,-18,-16,10
1532321785140,-1,1,1,-2,-2,-2,5,1
1532321785145,-2,-1,2,4,27,76,-5,7
1532321785150,-2,0,0,-1,-17,-88,-6,-5
1532321785155,-5,-1,-4,-4,-1,46,5,-7
1532321785160,1,0,-2,1,0,3,-1,4
1532321785165,1,-2,-4,-2,-10,-28,4,0
1532321785170,-3,-1,-2,0,12,88,23,-10
1532321785175,7,3,2,2,-3,-18,-18,26
1532321785180,-3,-2,-2,1,-11,-17,-19,-12
1532321785185,-2,-1,-1,-1,-6,10,4,0
1532321785190,-2,-3,-3,-2,4,3,8,-6
1532321785195,0,0,1,0,-3,-35,11,4
1532321785200,1,0,3,4,9,30,-16,-7
1532321785205,0,0,-1,0,6,-8,-27,-6
1532321785210,1,-1,1,-2,1,6,25,7
1532321785215,-2,-3,-2,0,7,14,5,-7
1532321785220,0,2,0,-1,5,-11,16,1
1532321785225,2,-3,1,4,1,-10,4,4
1532321785230,0,0,-1,-8,-7,2,-10,-1
1532321785235,-3,-5,-5,-1,-5,1,-12,-11
1532321785240,-1,-2,-1,0,3,13,22,0
1532321785245,-3,0,3,0,-5,-8,6,-5
1532321785250,0,0,-6,1,-2,-31,-51,-1
1532321785255,-1,5,3,-1,5,21,18,-7
1532321785260,1,-3,-5,0,-7,-9,0,-1
1532321785265,-3,-4,-6,-2,2,7,10,-3
1532321785270,0,-2,1,-1,-7,9,8,8
1532321785275,-3,-1,2,-2,0,-34,-19,-8
1532321785280,1,-3,-4,3,7,10,16,5
1532321785285,-3,-1,1,-2,-8,-14,2,-8
1532321785290,-1,-2,-2,-3,-3,-10,-2,-1
1532321785295,1,-5,-13,2,0,13,-15,0
1532321785300,-1,2,9,-3,-1,1,0,-3
1532321785305,-2,2,5,0,-9,-3,8,-1
1532321785310,-2,0,3,-1,-2,-8,-9,-2
1532321785315,0,-1,5,3,9,4,3,-2
1532321785320,-2,-4,-10,-4,-7,-18,-1,-2
1532321785325,0,0,-3,-3,-3,8,-7,-5
1532321785330,-2,0,2,0,4,8,-15,4
1532321785335,-1,-4,-7,-8,-6,29,34,-1
1532321785340,0,-1,1,2,1,-30,-26,1
1532321785345,0,2,-1,0,-2,-4,19,0
1532321785350,-2,-2,-4,-1,2,13,-19,-6
1532321785355,0,0,2,-1,3,-28,-34,-1
1532321785360,-1,1,1,-1,-2,37,72,6
1532321785365,0,-1,4,3,8,-20,-24,-6
1532321785370,0,-3,-5,4,1,2,10,-2
1532321785375,0,-1,-5,-7,-11,-6,-14,1
1532321785380,-2,1,0,-3,-3,4,-18,2
1532321785385,0,-2,7,1,0,3,-2,-1
1532321785390,1,-2,-10,1,-2,-7,-2,0
1532321785395,0,2,6,3,3,-28,2,0
1532321785400,0,-1,1,1,1,33,10,-1
1532321785405,1,0,-1,0,-1,11,-15,-3
1532321785410,-2,1,2,0,-3,-19,-7,-3
1532321785415,0,-10,-4,-5,-9,7,14,-4
1532321785420,1,23,15,-2,-5,-21,-8,2
1532321785425,-2,-21,-19,-2,-3,-22,-11,2
1532321785430,1,4,3,0,2,21,22,1
1532321785435,-2,1,-4,1,6,10,0,0
1532321785440,-4,-7,-5,-1,-2,-18,-2,-9
1532321785445,4,7,3,-3,2,40,12,8
1532321785450,1,-2,2,-3,-1,-9,12,-2
1532321785455,-1,-2,-1,-1,0,-4,1,3
1532321785460,-1,0,-2,1,3,1,-3,-2
1532321785465,-3,0,-3,0,-4,-16,-6,-3
1532321785470,-3,-5,-4,0,2,10,0,2
1532321785475,2,5,6,-3,-6,-9,6,2
1532321785480,-3,-7,-4,1,6,17,-4,-3
1532321785485,0,2,-1,2,3,-13,-8,-1
1532321785490,-1,0,1,1,-3,-2,-9,-5
1532321785495,-2,1,1,-1,4,-11,4,-3
1532321785500,0,-2,-4,-6,-20,-41,-31,-1
1532321785505,0,-1,-2,-2,-5,17,11,3
1532321785510,-2,-1,2,-2,-4,8,9,1
1532321785515,-2,0,-1,4,12,-7,-10,-5
1532321785520,3,-2,-3,-2,3,16,8,7
1532321785525,-3,1,2,-3,-9,-26,-7,-9
1532321785530,1,2,-2,2,4,10,2,2
1532321785535,-1,-5,-4,-4,-10,-14,-8,-3
1532321785540,0,-2,-2,-1,0,21,1,-3
1532321785545,-1,0,1,2,-2,-11,-5,-2
1532321785550,3,2,3,6,30,26,29,5
1532321785555,-3,-1,-2,-7,-35,-6,-10,-7
1532321785560,-1,-2,-2,-4,-4,-36,-11,0
1532321785565,1,-1,-2,-4,-1,30,8,4
1532321785570,-1,-2,-7,-4,-13,-9,1,-5
1532321785575,-2,0,3,4,14,24,7,1
1532321785580,0,-2,-2,2,3,0,-6,2
1532321785585,0,3,3,-3,-10,3,4,1
1532321785590,-2,-4,-1,-1,-13,-39,-4,-2
1532321785595,0,0,-2,-2,7,13,-12,1
1532321785600,-3,-2,-4,-1,-3,-4,-5,-6
1532321785605,0,-2,-1,2,9,-18,0,2
1532321785610,-3,-2,0,-1,-9,3,-22,-4
1532321785615,0,0,1,1,10,3,-5,-2
1532321785620,-1,0,1,-2,4,25,3,-9
1532321785625,1,-4,-5,-7,-11,-37,6,6
1532321785630,-1,-3,-4,1,18,34,8,2
1532321785635,2,3,0,2,-8,0,-13,-2
1532321785640,-2,-3,-1,-2,4,14,0,-3
1532321785645,-3,-1,1,4,6,18,-9,-9
1532321785650,-1,-1,-2,-3,-4,-35,-16,4
1532321785655,1,-3,-1,2,19,40,39,0
1532321785660,0,-3,-4,0,-14,-33,-4,1
1532321785665,-4,-3,-3,1,24,8,3,-5
1532321785670,1,2,9,0,-33,-32,-1,2
1532321785675,-2,-2,0,-3,-1,-8,9,0
1532321785680,-1,-4,-5,1,6,5,-14,-1
1532321785685,1,5,3,0,0,-5,-1,1
1532321785690,-1,0,-1,-1,16,16,-3,-4
1532321785695,-1,-1,0,-4,-20,-1,-14,3
1532321785700,-5,-1,-4,1,-7,-4,4,-3
1532321785705,-3,1,8,-1,-8,-10,-11,-8
1532321785710,6,-2,-4,1,14,16,14,14
1532321785715,0,1,1,-1,1,12,-2,3
1532321785720,1,-3,0,1,9,-45,15,2
1532321785725,0,2,2,6,32,84,14,-5
1532321785730,-7,-3,-2,0,-20,55,1,-12
1532321785735,-1,-3,-3,-3,-16,-34,17,3
1532321785740,-1,2,-3,-5,-4,-11,-13,-8
1532321785745,2,1,-2,0,-2,-26,4,10
1532321785750,-3,-1,3,-4,-11,-24,0,-10
1532321785755,-3,-2,-1,10,40,-15,-21,-6
1532321785760,0,3,6,5,21,75,0,3
1532321785765,-3,-3,-8,-14,-41,-28,2,2
1532321785770,2,-3,-4,-1,-23,-44,24,5
1532321785775,-1,1,1,-2,1,10,-12,-2
1532321785780,0,2,3,2,16,-25,-1,4
1532321785785,1,-4,-6,0,5,10,3,1
1532321785790,-1,3,0,1,9,9,-13,-2
1532321785795,-3,-2,-4,-5,1,7,0,-3
1532321785800,-2,-3,2,0,-4,-41,2,3
1532321785805,0,2,-2,-2,-16,18,6,4
1532321785810,-2,1,-1,1,19,13,-22,-4
1532321785815,-1,1,0,0,-23,-14,12,0
1532321785820,1,-1,-3,-3,-5,-5,-10,1
1532321785825,-5,-3,-3,-3,-1,-32,-28,-12
1532321785830,2,-2,-2,-3,-19,10,4,8
1532321785835,1,1,-1,1,0,-15,11,4
1532321785840,-2,1,3,6,10,57,13,-2
1532321785845,-2,-2,-3,1,2,-63,-15,1
1532321785850,-1,1,2,-2,10,27,2,-5
1532321785855,3,-1,-1,4,10,18,9,5
1532321785860,-5,-5,-4,-2,-15,-10,-4,-6
1532321785865,-1,-1,1,-1,-6,-18,4,0
1532321785870,-1,-2,-5,-2,-1,5,-6,-3
1532321785875,-1,-1,-4,-7,-14,-14,-9,-4
1532321785880,1,2,-1,-2,-3,-27,-14,0
1532321785885,0,-1,1,2,6,17,8,0
1532321785890,-4,0,1,0,-3,-14,10,2
1532321785895,0,-3,0,0,3,17,-2,1
1532321785900,1,0,-2,1,-8,-12,0,0
1532321785905,1,1,-2,-1,-5,4,-2,-1
1532321785910,0,-3,-2,-2,-2,8,-1,-3
1532321785915,-5,0,3,4,9,7,8,-5
1532321785920,3,-2,-1,-4,2,14,-7,10
1532321785925,3,2,1,4,13,28,12,-2
1532321785930,-7,-3,-4,-12,-32,-49,-21,-9
1532321785935,-1,2,-1,-3,-11,-15,-1,1
1532321785940,0,-2,0,1,0,12,6,-2
1532321785945,-1,-1,2,3,10,6,-23,-2
1532321785950,2,-2,-1,-2,8,9,32,-5
1532321785955,-8,-3,-3,-6,-7,8,0,-10
1532321785960,0,2,1,-3,-16,-21,-9,-11
1532321785965,-4,-4,-5,-3,6,9,4,-18
1532321785970,3,3,6,16,36,-15,-31,11
1532321785975,5,-1,-3,-4,1,45,3,10
1532321785980,1,2,1,-2,-3,-24,-4,-25
1532321785985,-5,-1,-3,-6,-10,-30,14,5
1532321785990,3,0,-1,1,-3,29,7,1
1532321785995,-3,0,1,7,30,17,-4,1
1532321786000,-6,-2,0,-4,-6,34,7,10
1532321786005,3,-3,-6,-5,-23,-31,-27,4
1532321786010,-12,-6,-2,-3,2,-5,9,-14
1532321786015,6,0,1,-4,-4,-11,-5,19
1532321786020,3,2,1,0,-3,1,11,4
1532321786025,-3,0,3,3,0,1,12,-3
1532321786030,0,4,11,0,7,-6,-10,-1
1532321786035,-6,-7,-13,-5,-13,-9,-4,-16
1532321786040,-4,-4,-5,-4,-7,-35,-27,-5
1532321786045,2,-1,0,0,4,38,16,9
1532321786050,1,1,-1,-4,0,-4,-1,-5
1532321786055,-1,0,4,0,-4,-34,-16,-1
1532321786060,0,-3,-5,-1,-3,12,12,1
1532321786065,-1,2,2,3,7,3,7,-2
1532321786070,-2,-6,-4,1,-4,11,1,1
1532321786075,1,1,3,-3,-13,-28,-18,-5
1532321786080,0,-1,-2,-2,4,27,24,5
1532321786085,-1,-4,4,1,1,-6,-2,4
1532321786090,0,3,-11,-5,-11,-10,-13,1
1532321786095,-2,2,3,3,2,-1,28,-5
1532321786100,2,-6,-4,1,5,7,-2,4
1532321786105,-2,4,-7,-3,2,-5,-9,-5
1532321786110,0,-7,28,2,-8,-6,3,7
1532321786115,-3,-14,-48,1,-1,0,-3,-14
1532321786120,2,10,21,-1,2,-3,-2,8
1532321786125,2,-3,6,-9,-10,-1,6,4
1532321786130,-4,3,-15,2,3,0,-8,-5
1532321786135,0,1,24,0,-2,0,-3,4
1532321786140,-3,-3,3,4,0,-14,-12,-3
1532321786145,1,0,-9,1,-2,-1,-4,1
1532321786150,0,1,2,-2,-2,-5,-11,-1
1532321786155,-4,0,5,0,-1,5,19,-5
1532321786160,2,-2,-10,0,2,-9,-29,7
1532321786165,0,-2,6,0,1,1,-25,2
1532321786170,-1,0,-7,-4,0,2,25,-4
1532321786175,2,0,-2,-2,-2,-15,-37,1
1532321786180,1,-1,0,-4,0,9,49,-5
1532321786185,-5,-1,-4,-2,-6,-1,7,7
1532321786190,1,-3,-3,0,1,-17,-83,-36
1532321786195,4,7,6,5,8,33,71,25
1532321786200,0,2,4,-1,-4,-1,2,17
1532321786205,-4,-8,-16,-4,-4,2,30,-12
1532321786210,12,11,10,0,6,14,35,0
1532321786215,-10,-2,1,-7,-9,-27,-79,-36
1532321786220,-15,0,-2,3,1,9,56,1
1532321786225,14,-6,18,8,4,-1,-20,-19
1532321786230,1,11,-1,-3,-3,-18,-41,39
1532321786235,-2,-10,-12,-4,-13,-30,-25,3
1532321786240,11,9,4,2,13,52,90,13
1532321786245,-9,0,-7,-4,-3,-11,-25,-39
1532321786250,0,-5,-7,-6,-17,-5,16,7
1532321786255,7,4,14,4,8,-15,-17,-5
1532321786260,-5,-5,-12,-9,-31,-12,-29,1
1532321786265,-2,-1,2,0,3,1,-50,9
1532321786270,-2,-7,-2,7,37,27,50,-8
1532321786275,-2,3,1,-7,-41,-26,42,14
1532321786280,-2,-7,-4,-3,3,-25,-32,-13
1532321786285,0,8,-1,-1,3,18,20,5
1532321786290,-4,-8,-1,0,-2,-2,-7,6
1532321786295,-1,-1,-1,-1,14,27,10,-1
1532321786300,2,4,7,0,4,-10,-35,-5
1532321786305,-1,-3,2,-4,-11,-19,-14,5
1532321786310,-2,0,-51,-1,6,14,31,9
1532321786315,-3,13,45,7,4,-8,-5,-9
1532321786320,1,-14,-3,-2,-10,-4,-30,-7
1532321786325,-2,4,8,-2,-8,8,9,17
1532321786330,0,-8,2,-3,-1,-5,2,-2
1532321786335,-1,1,-17,2,7,25,8,-3
1532321786340,-5,4,-2,2,3,-7,-20,-5
1532321786345,-2,-2,-4,0,1,6,18,3
1532321786350,-2,2,7,-5,-9,-16,-11,-4
1532321786355,-1,-2,-5,-3,4,19,12,6
1532321786360,-1,-7,4,-1,-1,-11,-34,-4
1532321786365,0,-4,-9,5,8,-4,32,7
1532321786370,-3,1,8,-5,-13,3,-12,-5
1532321786375,0,-5,-4,2,5,7,2,2
1532321786380,-2,0,-6,-3,0,-12,-4,-9
1532321786385,-1,-2,-5,2,3,19,11,4
1532321786390,1,-1,7,0,-4,-6,-19,1
1532321786395,-1,-6,1,2,3,-1,6,6
1532321786400,2,1,-13,4,2,-4,-13,5
1532321786405,-2,4,2,-6,-8,-6,1,-3
1532321786410,-2,-6,3,-3,-4,12,11,-1
1532321786415,0,-4,-5,-1,-4,-24,-24,-1
1532321786420,1,2,2,-2,3,13,10,0
1532321786425,-2,-2,2,0,1,-2,-3,3
1532321786430,-1,-3,1,2,-6,0,0,0
1532321786435,0,0,-7,-4,2,0,-2,-4
1532321786440,-1,-1,0,-1,1,-3,0,-2
1532321786445,-1,-2,-4,-1,-1,0,1,-1
1532321786450,-2,-4,1,0,1,-7,-5,-2
1532321786455,-1,1,-2,-3,-3,4,13,-4
1532321786460,-2,-1,0,-2,-4,7,5,1
1532321786465,0,-7,-4,0,4,-11,-9,1
1532321786470,-2,5,4,1,-3,-4,-2,-4
1532321786475,0,2,-3,0,3,5,-19,0
1532321786480,-1,-6,2,0,1,10,20,4
1532321786485,0,3,4,-2,0,-13,20,-5
1532321786490,-1,-3,-6,-3,-4,-1,4,0
1532321786495,1,-2,5,-1,-3,3,-6,0
1532321786500,-3,0,-10,-2,1,4,-1,-5
1532321786505,1,1,2,-1,0,-5,-13,-5
1532321786510,1,-1,3,0,0,2,14,4
1532321786515,-1,0,-3,-3,-4,-28,-2,1
1532321786520,1,1,2,-1,0,30,-15,-4
1532321786525,-1,1,0,0,2,2,-8,0
1532321786530,-2,-1,-2,1,-1,-5,0,-1
1532321786535,0,-2,-4,-1,-2,4,-3,-1
1532321786540,-2,-1,-1,-1,-1,-6,10,-2
1532321786545,-1,1,-1,-1,-2,-4,-5,-2
1532321786550,-2,-1,2,1,2,14,2,-4
1532321786555,0,-1,-3,-1,2,10,7,0
1532321786560,-1,1,2,-2,-5,-37,-22,-5
1532321786565,1,-2,0,-4,-4,5,-1,6
1532321786570,-1,2,-2,-1,-4,-9,5,-2
1532321786575,-1,-6,-3,-1,-1,11,-15,2
1532321786580,1,0,-5,1,0,-9,21,-2
1532321786585,0,-8,-12,0,0,-6,-13,2
1532321786590,0,7,11,2,6,0,-8,-1
1532321786595,0,-1,-20,-5,-2,7,4,-3
1532321786600,-1,4,29,3,-6,-3,2,-1
1532321786605,-3,-2,-3,-5,0,16,12,1
1532321786610,0,-3,-5,-2,-5,-11,-5,-4
1532321786615,0,1,7,2,0,-29,-13,-6
1532321786620,0,-2,-14,-2,2,17,10,-1
1532321786625,-1,1,1,1,0,-2,-5,-4
1532321786630,-1,-2,-1,2,3,-7,-6,-1
1532321786635,-4,-2,4,2,3,3,5,-1
1532321786640,-3,-3,-6,-6,-2,-1,-2,1
1532321786645,3,2,4,-1,-8,-8,-33,4
1532321786650,-1,-2,-3,-3,1,0,31,2
1532321786655,1,1,-2,0,1,-3,-2,5
1532321786660,-2,4,3,2,5,-2,-6,0
1532321786665,-4,-9,-7,-2,-2,4,3,1
1532321786670,-2,-20,-27,-2,-6,-4,-5,-5
1532321786675,-1,16,16,-2,-3,-7,-8,-3
1532321786680,-2,1,8,1,2,18,10,0
1532321786685,-2,4,-7,-2,0,-12,-5,-4
1532321786690,2,-5,-2,5,1,9,0,4
1532321786695,-3,-8,-4,1,2,15,12,-5
1532321786700,1,-1,-4,-3,-5,-11,-14,1
1532321786705,0,-1,7,1,1,0,-18,-5
1532321786710,0,2,0,-2,-1,-15,8,1
1532321786715,0,-3,-7,-3,-2,6,-1,-1
1532321786720,0,1,0,-3,-4,-4,0,-1
1532321786725,-1,-3,-6,0,-1,-1,3,-1
1532321786730,-1,3,4,2,4,4,-8,-4
1532321786735,1,-1,2,-3,0,-13,0,4
1532321786740,-1,-6,-9,-1,-5,13,-6,-1
1532321786745,-2,2,3,2,-3,-10,14,-4
1532321786750,0,8,8,-2,1,-4,-11,-1
1532321786755,-1,-7,-6,-1,-3,-2,-1,4
1532321786760,-2,-4,-3,1,1,-7,-4,-3
1532321786765,-1,1,4,0,2,1,13,1
1532321786770,-1,2,5,-1,-2,10,-11,-5
1532321786775,-1,-1,6,-1,3,-8,0,-6
1532321786780,-1,-2,-9,1,0,-8,-4,-3
1532321786785,-2,2,5,0,-5,10,5,-5
1532321786790,0,-3,-3,-3,-5,0,-2,2
1532321786795,-1,-2,-1,-3,-3,-6,-5,2
1532321786800,1,0,2,2,1,3,0,2
1532321786805,-1,1,3,1,6,3,11,-1
1532321786810,-2,-2,-1,-4,-3,-8,-20,1
1532321786815,-1,0,-2,-3,-10,-2,-6,-1
1532321786820,0,0,0,-2,1,-3,4,1
1532321786825,-2,-1,-6,0,0,-3,-3,2
1532321786830,-1,0,3,1,2,10,5,0
1532321786835,-2,1,-2,3,3,7,3,-4
1532321786840,-1,-1,-1,-2,0,-12,-3,0
1532321786845,0,1,0,-2,-2,6,-1,0
1532321786850,-1,0,-2,-1,-4,-17,-11,-3
1532321786855,0,-1,1,1,1,-20,-16,-1
1532321786860,-5,-3,-4,1,0,26,23,-11
1532321786865,0,0,-2,-2,-1,4,1,7
1532321786870,4,-1,1,-4,-1,4,8,1
1532321786875,-1,-2,-5,-3,-3,3,1,0
1532321786880,0,-2,-3,-4,-5,-12,-9,0
1532321786885,-2,3,6,1,1,1,0,-6
1532321786890,-2,-8,-7,0,0,2,-12,-1
1532321786895,3,0,-1,0,0,16,25,5
1532321786900,0,-1,3,1,-1,-23,-41,-2
1532321786905,1,0,9,0,3,-5,10,-2
1532321786910,0,2,-9,-3,-2,2,8,3
1532321786915,0,0,-1,0,-1,8,5,-3
1532321786920,0,-2,1,2,1,-3,-1,2
1532321786925,1,-1,-3,-1,-1,0,1,0
1532321786930,-1,2,4,-1,-1,1,-5,-4
1532321786935,-1,-1,1,-4,2,7,1,-2
1532321786940,-1,0,0,3,0,10,14,1
1532321786945,-2,-2,-3,2,1,1,-3,-6
1532321786950,0,0,-1,-5,-2,-6,-1,4
1532321786955,-1,-3,-2,-1,-5,7,8,-5
1532321786960,-1,0,1,-2,6,-7,-11,2
