1532116811307,-3,1,0,-8,8,11,-3,-22
1532116811312,1,0,-3,-2,5,113,3,0
1532116811317,-1,0,1,-2,-9,97,4,26
1532116811322,6,6,0,1,5,27,-11,-12
1532116811327,-5,-3,2,8,-10,-25,-4,-49
1532116811332,1,-3,-4,-4,7,-71,-11,-3
1532116811337,-2,-4,-6,-11,-12,-9,-5,7
1532116811342,-4,3,5,10,33,-15,0,-12
1532116811347,5,2,1,0,2,-18,6,10
1532116811352,2,-1,-3,-3,1,-5,6,38
1532116811357,-2,0,-2,1,-22,0,-10,-61
1532116811362,1,-2,-3,-7,7,-7,-6,5
1532116811367,0,-3,-1,3,0,-10,1,9
1532116811372,-4,-4,-2,-5,3,-2,4,-22
1532116811377,-3,-3,0,0,-4,7,-7,6
1532116811382,-3,-3,-3,-5,-14,-10,12,1
1532116811387,13,4,3,4,13,-7,-17,-6
1532116811392,-6,2,1,-1,-2,-109,-19,21
1532116811397,4,1,-1,-2,7,27,-4,-12
1532116811402,-1,1,-1,2,-6,39,0,17
1532116811407,0,-2,3,-6,-5,37,5,2
1532116811412,2,0,-6,-4,-8,38,-1,12
1532116811417,-6,-12,-9,-1,-13,3,7,-28
1532116811422,-5,-4,-5,0,5,22,-2,11
1532116811427,3,1,-1,3,-21,22,5,-16
1532116811432,-2,1,4,1,6,10,-4,12
1532116811437,1,4,5,6,-1,-3,-1,-20
1532116811442,-4,0,-2,-8,-19,13,-2,2
1532116811447,-2,0,0,4,42,-22,3,19
1532116811452,10,-1,-2,-6,-11,-79,0,4
1532116811457,-10,-3,0,3,4,-83,-17,-17
1532116811462,1,-1,-2,1,-4,-65,5,6
1532116811467,-2,-2,-2,-6,-26,-49,-8,8
1532116811472,15,8,11,5,17,-47,4,15
1532116811477,-10,-5,-5,3,10,-5,2,-14
1532116811482,1,4,-3,-6,-5,2,-7,-20
1532116811487,-3,-9,-6,2,-8,-88,-3,9
1532116811492,-5,3,-2,-9,-14,-39,0,-12
1532116811497,4,0,0,6,60,-128,7,19
1532116811502,1,1,4,1,23,-44,0,-8
1532116811507,1,0,-1,-5,-1,23,5,32
1532116811512,3,2,5,2,-7,59,-4,-45
1532116811517,-6,-1,-2,-3,-14,106,4,-1
1532116811522,2,0,-2,1,-7,76,4,-10
1532116811527,-3,-1,0,1,6,69,-2,2
1532116811532,-3,-5,-4,-12,-10,60,-3,12
1532116811537,4,2,1,-5,-34,60,9,22
1532116811542,-3,-2,-1,2,-8,56,-7,-35
1532116811547,-1,3,5,-2,11,63,5,20
1532116811552,-6,0,-5,3,-11,8,-7,-25
1532116811557,8,-1,-2,3,-3,21,-11,0
1532116811562,0,-4,3,-5,-4,9,0,-1
1532116811567,1,0,0,-2,-1,32,-6,-8
1532116811572,-7,-3,-7,-1,2,28,1,0
1532116811577,0,3,0,-5,-10,-3,5,12
1532116811582,-1,1,0,1,-1,-79,9,3
1532116811587,2,-1,-3,-2,16,-40,0,-10
1532116811592,7,-1,0,6,-1,-35,0,9
1532116811597,-6,-1,3,-2,-17,10,-6,6
1532116811602,-2,-3,-1,9,20,29,-4,-2
1532116811607,-4,-3,-8,-12,-20,-2,1,-15
1532116811612,-1,0,-1,3,33,5,5,3
1532116811617,0,1,4,0,-15,13,-1,1
1532116811622,3,1,-1,-4,4,8,3,-6
1532116811627,2,4,3,-1,-11,-3,3,4
1532116811632,0,-7,-2,0,-5,7,-11,7
1532116811637,18,0,4,-2,-21,-2,1,30
1532116811642,-28,1,-2,0,6,-1,-7,-43
1532116811647,-6,-8,-6,0,4,6,-7,-15
1532116811652,-7,-5,-3,-1,-7,1,7,6
1532116811657,-2,0,0,0,-13,-9,0,5
1532116811662,10,-1,1,-2,6,5,-2,19
1532116811667,3,-1,0,0,2,5,-1,-14
1532116811672,-6,-2,2,-1,-1,-5,-2,-8
1532116811677,-4,-2,-4,2,4,-5,-1,-2
1532116811682,2,-2,0,-3,-14,14,-10,18
1532116811687,1,4,1,-3,16,-2,-8,-33
1532116811692,-1,-1,3,6,-12,-5,-1,3
1532116811697,-2,0,-3,-3,10,-2,-1,3
1532116811702,2,-1,-8,-6,-3,2,-2,-20
1532116811707,1,2,-3,-4,-16,-3,14,31
1532116811712,0,0,2,3,3,-2,8,-1
1532116811717,-2,-1,2,4,17,1,1,2
1532116811722,-12,-3,-1,-3,-7,-1,1,-13
1532116811727,13,0,0,1,-8,-1,7,44
1532116811732,3,1,-4,-6,-16,0,7,-7
1532116811737,-3,-2,-2,6,45,-1,3,-8
1532116811742,6,-2,-3,-4,-2,-3,12,12
1532116811747,-9,0,-1,2,2,1,-6,-13
1532116811752,-5,1,2,2,-5,0,-9,-3
1532116811757,-4,0,-2,-2,-10,-2,6,25
1532116811762,7,0,3,4,-4,0,-6,-27
1532116811767,-3,0,-2,-3,6,1,-3,-1
1532116811772,0,-1,-4,-2,-14,-2,-6,-6
1532116811777,-1,0,2,-4,10,-1,-3,-14
1532116811782,2,0,-1,1,-5,0,0,14
1532116811787,2,-2,-2,0,4,0,-5,-3
1532116811792,-14,-4,0,-1,6,-2,-5,-17
1532116811797,-5,1,1,0,-3,0,5,-5
1532116811802,3,0,-1,-4,-4,6,-12,1
1532116811807,-1,-1,-1,0,1,40,6,-2
1532116811812,5,-3,-5,-8,-17,35,-8,-1
1532116811817,2,2,0,-4,-6,44,-1,-11
1532116811822,0,-2,2,5,5,36,3,8
1532116811827,-1,0,-2,1,-6,22,-3,1
1532116811832,-5,0,2,5,-2,18,8,10
1532116811837,5,-2,-6,-5,-7,15,-3,-5
1532116811842,4,2,-1,-2,-6,-2,-1,5
1532116811847,-8,-1,2,0,-1,5,-8,-4
1532116811852,4,1,-4,-6,1,3,-5,-8
1532116811857,-5,-2,0,1,-2,-6,-8,-14
1532116811862,3,-3,0,0,3,2,8,87
1532116811867,2,-1,0,1,-14,-7,4,-34
1532116811872,0,3,4,0,23,3,4,6
1532116811877,-2,-2,-2,-3,-36,-12,5,-5
1532116811882,-1,-2,-4,1,11,-7,-24,-10
1532116811887,-3,-2,0,2,-4,-13,-5,13
1532116811892,-1,-4,-5,-1,-1,-7,2,4
1532116811897,-1,0,-2,-4,-3,1,-2,-5
1532116811902,5,0,1,-2,-1,-6,9,-6
1532116811907,-5,0,1,0,-6,-8,-1,0
1532116811912,-10,-2,0,-1,-1,-8,-6,-18
1532116811917,3,1,-3,-5,7,-5,4,0
1532116811922,-4,1,-1,-2,-6,-7,3,-14
1532116811927,4,-1,2,0,11,-15,-5,1
1532116811932,4,-1,0,6,-1,-6,2,11
1532116811937,-8,-3,0,-2,5,-71,-7,-3
1532116811942,-2,-1,-5,-2,-5,-74,1,-11
1532116811947,1,0,-3,-1,-2,-70,8,-1
1532116811952,3,1,5,4,1,-53,-5,-2
1532116811957,-1,-3,-3,-1,0,13,0,25
1532116811962,0,1,4,-3,-6,34,-3,-49
1532116811967,-6,-2,-2,3,12,54,11,5
1532116811972,-1,-1,-7,-6,-6,37,-26,-1
1532116811977,0,-2,-3,-3,4,35,-1,11
1532116811982,-3,0,-1,-3,-4,28,4,-4
1532116811987,4,2,0,-1,16,31,-1,5
1532116811992,0,0,2,7,-6,10,3,10
1532116811997,5,1,-3,-11,-13,6,1,1
1532116812002,-9,-1,-1,2,18,1,5,0
1532116812007,-2,-2,-5,-6,-12,5,-10,-7
1532116812012,1,-1,-1,-2,4,0,0,2
1532116812017,-4,-1,1,6,2,-4,-5,-9
1532116812022,2,-1,1,0,-10,6,2,3
1532116812027,2,-1,1,0,-4,-6,4,1
1532116812032,7,0,-1,-3,-1,-8,7,6
1532116812037,-12,-3,0,8,1,-2,-6,-14
1532116812042,-3,-2,-4,-3,9,8,1,-4
1532116812047,-2,-3,-4,-3,7,-19,-1,7
1532116812052,2,-1,-4,-7,-6,-3,4,18
1532116812057,-2,-1,2,0,-2,-8,-6,-46
1532116812062,2,-1,1,2,-4,-1,6,39
1532116812067,-3,-3,-2,0,-5,-7,3,-6
1532116812072,2,1,-2,-1,-3,-10,-8,9
1532116812077,3,-1,-4,-4,12,1,10,13
1532116812082,-3,-1,1,2,-9,-6,-14,-19
1532116812087,-1,-2,-3,-3,-6,-19,0,3
1532116812092,8,1,2,0,2,-14,6,-5
1532116812097,-10,-2,2,0,-3,-11,2,1
1532116812102,-1,-2,-4,-4,-4,-10,-2,-3
1532116812107,-5,0,0,1,9,12,-3,-12
1532116812112,-1,-2,-4,-4,-2,6,-2,-8
1532116812117,5,1,2,0,-5,3,-3,14
1532116812122,-7,-1,2,3,3,7,6,-21
1532116812127,6,-1,0,0,-4,18,0,35
1532116812132,-4,0,-4,1,0,-2,8,-7
1532116812137,-5,-2,-7,-1,7,3,-5,-4
1532116812142,5,1,-1,-1,-1,1,-3,15
1532116812147,-7,-1,-3,2,-5,-5,-11,-24
1532116812152,0,0,3,-1,-1,4,5,-4
1532116812157,5,1,0,-3,-5,-1,5,-10
1532116812162,-1,-4,-3,-3,-4,-1,-5,1
1532116812167,5,-3,-2,-6,5,-3,3,-1
1532116812172,-1,1,10,9,4,1,-6,0
1532116812177,1,0,-2,-3,-3,-26,-12,-1
1532116812182,-9,-2,-1,-2,0,-6,0,-3
1532116812187,13,0,0,0,-8,-5,2,8
1532116812192,-10,-2,-2,-1,5,-4,-4,-8
1532116812197,2,-1,1,-1,1,7,6,-20
1532116812202,2,-3,-1,3,-2,-7,-3,5
1532116812207,-6,2,-2,-3,-11,-11,-6,1
1532116812212,-2,-3,-4,-2,7,0,10,-6
1532116812217,6,1,3,2,0,-15,-2,9
1532116812222,-8,-2,-4,-5,-6,-6,1,-23
1532116812227,0,-1,-1,1,3,-1,-1,1
1532116812232,10,0,-2,-5,6,-4,-2,1
1532116812237,-16,-2,-5,-2,-5,3,-1,-5
1532116812242,2,-1,1,-4,2,-3,1,3
1532116812247,-4,1,1,-3,-30,-4,-3,-2
1532116812252,1,3,6,15,40,2,3,5
1532116812257,5,0,0,-5,3,-2,4,10
1532116812262,-1,0,-6,-2,-5,-2,-2,5
1532116812267,5,3,1,-1,-5,-6,-3,1
1532116812272,-4,-1,-2,-5,-14,-8,-5,0
1532116812277,-4,1,4,8,-7,7,-1,0
1532116812282,16,-4,-2,-6,-5,-2,3,11
1532116812287,-12,-1,-1,-6,18,-4,-4,-4
1532116812292,-4,-4,-6,-1,-52,-14,-4,-8
1532116812297,-2,-4,1,3,17,2,8,12
1532116812302,2,5,0,0,-18,-6,-4,-14
1532116812307,-1,-5,-1,1,18,-10,0,-10
1532116812312,-2,0,0,-6,-19,-2,-1,-5
1532116812317,0,0,0,-2,-8,-1,7,-4
1532116812322,-2,1,1,3,2,-8,-11,4
1532116812327,9,-3,-4,-3,-16,-5,4,19
1532116812332,-14,-2,-1,-5,15,5,8,-39
1532116812337,7,1,-1,-4,-9,-22,-18,14
1532116812342,-1,-2,2,-1,5,-6,6,2
1532116812347,-3,1,0,3,5,-2,-7,-10
1532116812352,1,-3,-5,-4,1,-2,0,10
1532116812357,3,1,-3,1,1,0,9,-2
1532116812362,-2,1,2,4,-1,1,2,-9
1532116812367,-8,-1,-3,-3,3,-7,-4,2
1532116812372,8,-3,-5,-1,2,12,7,6
1532116812377,6,-1,-1,-3,-15,-5,-8,-5
1532116812382,-10,-1,-3,-3,1,6,4,14
1532116812387,-9,-3,0,2,8,8,8,-16
1532116812392,1,3,4,2,-2,5,-8,7
1532116812397,-1,-2,-4,-2,9,7,-1,4
1532116812402,3,-1,2,4,-13,-1,-2,-2
1532116812407,2,0,4,-2,30,-1,-1,1
1532116812412,-11,-3,-5,-11,-14,6,7,12
1532116812417,-5,-5,-5,4,4,0,3,-2
1532116812422,-2,-2,-3,-2,12,9,1,7
1532116812427,6,2,0,1,-27,9,-6,0
1532116812432,4,0,1,0,23,-13,-7,-2
1532116812437,-4,0,1,-5,-6,10,-1,-17
1532116812442,-6,0,-1,0,1,4,-3,4
1532116812447,6,-1,-1,4,-5,-1,2,-4
1532116812452,-1,-2,1,2,5,0,-5,7
1532116812457,-2,0,-2,-2,-6,6,-3,-11
1532116812462,-4,4,-1,-1,-3,-1,2,-11
1532116812467,1,-6,-1,-5,-13,6,2,21
1532116812472,-2,-1,-4,-4,-30,4,0,4
1532116812477,10,2,6,12,78,-6,4,18
1532116812482,-1,-2,0,-1,-25,-4,-4,-13
1532116812487,-8,-1,-8,-3,37,-4,3,-13
1532116812492,-2,-3,-5,-5,-16,-13,-2,4
1532116812497,4,1,0,-5,-24,0,-7,6
1532116812502,6,0,0,0,16,-12,6,-1
1532116812507,10,3,3,-5,-26,-20,0,21
1532116812512,-22,-2,1,1,23,-26,-5,-38
1532116812517,6,7,13,1,-16,-4,-1,-17
1532116812522,1,31,2,0,9,-9,-3,-8
1532116812527,-20,-42,-8,-2,-16,-2,-8,13
1532116812532,-1,-10,-10,-2,-4,-10,-21,-24
1532116812537,-11,-16,-5,-5,-10,-2,-7,-19
1532116812542,-15,7,14,1,-34,-8,-7,-15
1532116812547,3,-24,-22,-6,23,21,24,-3
1532116812552,24,25,9,4,5,-4,5,35
1532116812557,1,-22,-9,-2,27,3,8,1
1532116812562,-10,1,4,-6,-29,-6,-29,-22
1532116812567,-4,17,7,3,-5,-7,-12,5
1532116812572,-2,-5,-2,1,7,19,12,-3
1532116812577,26,24,1,-6,-26,10,6,29
1532116812582,-20,-29,-15,-1,29,6,-12,-33
1532116812587,2,13,9,4,-5,7,-1,9
1532116812592,5,-5,2,5,-9,-15,0,1
1532116812597,1,27,1,-3,-2,-55,0,7
1532116812602,6,5,10,0,-2,-36,3,5
1532116812607,10,13,-1,7,10,-28,0,10
1532116812612,-17,-36,-12,-6,5,-6,7,-53
1532116812617,5,-37,-15,0,-33,-13,-4,62
1532116812622,1,3,-17,-16,13,5,-13,-2
1532116812627,4,2,4,1,-15,10,-5,7
1532116812632,-9,10,7,4,10,-50,-1,12
1532116812637,-4,-10,13,12,15,-86,3,0
1532116812642,15,40,3,-2,-9,-109,-8,-20
1532116812647,-2,-33,-7,0,7,-72,-4,-8
1532116812652,3,4,-4,3,-9,-80,0,-19
1532116812657,-13,10,-6,-5,-4,-67,7,1
1532116812662,24,36,6,1,5,-115,18,47
1532116812667,-15,-5,-3,-6,-10,-50,1,-31
1532116812672,22,23,4,-2,0,37,-4,20
1532116812677,-31,19,4,2,-16,96,8,10
1532116812682,4,-38,-12,9,32,127,-2,10
1532116812687,7,19,4,-7,-15,83,12,1
1532116812692,-8,-35,2,-6,-18,87,-9,-1
1532116812697,6,-14,-8,-6,-19,79,-6,-17
1532116812702,-1,-15,12,6,8,69,15,13
1532116812707,-12,-14,-8,-6,-19,45,-29,-16
1532116812712,11,13,10,2,-13,53,54,31
1532116812717,13,17,6,6,69,120,-20,9
1532116812722,-13,-15,-12,-6,-36,127,10,-21
1532116812727,3,-7,-3,-2,24,107,-9,-35
1532116812732,-12,-3,-1,6,-1,124,9,22
1532116812737,3,-6,-5,-12,-55,40,-6,-5
1532116812742,7,6,3,0,35,-5,8,1
1532116812747,-16,32,11,12,11,-62,-5,-61
1532116812752,12,-11,-20,-7,7,-85,-12,15
1532116812757,-14,-9,-4,-1,-43,-109,-6,-33
1532116812762,5,-17,-6,-11,15,-108,-3,38
1532116812767,6,19,5,-6,-16,-128,6,-9
1532116812772,2,3,-4,-4,-2,-92,-16,5
1532116812777,-4,6,1,1,22,-7,-5,-20
1532116812782,-6,-8,4,1,-3,26,-5,-2
1532116812787,4,-5,-6,-1,-31,52,5,28
1532116812792,-9,4,2,-4,-14,111,-13,-10
1532116812797,-17,8,4,-5,-16,110,0,-32
1532116812802,8,-35,-2,11,40,127,15,16
1532116812807,-6,-4,-1,1,-8,127,12,-5
1532116812812,-5,6,2,-15,-32,107,-12,-23
1532116812817,0,-2,7,12,81,47,5,1
1532116812822,-10,-1,-8,-7,-30,82,2,-13
1532116812827,8,19,2,-5,23,127,3,43
1532116812832,8,-14,-4,8,-6,30,-8,-43
1532116812837,-7,-22,-21,-14,-17,60,-11,-7
1532116812842,23,28,13,5,-33,41,9,4
1532116812847,-5,-41,-8,6,17,107,-3,16
1532116812852,-30,11,9,2,32,62,-15,-19
1532116812857,0,7,3,8,1,-80,2,-5
1532116812862,-4,0,-1,-4,-20,-125,-4,-2
1532116812867,7,6,-1,-10,-15,-128,4,-1
1532116812872,3,15,-1,3,34,-128,13,23
1532116812877,-3,-1,2,7,-27,-113,8,-6
1532116812882,11,0,-8,-2,13,-119,6,-8
1532116812887,-5,2,0,-5,24,-128,-1,-2
1532116812892,6,5,9,2,-43,-119,3,65
1532116812897,-1,-8,3,-6,4,-90,-1,-30
1532116812902,-15,-13,-8,-3,20,-61,-13,-16
1532116812907,2,3,0,7,12,-68,-6,-1
1532116812912,3,-15,-8,-7,6,-62,-6,-15
1532116812917,14,17,11,2,12,-27,6,16
1532116812922,-15,14,6,-2,-55,-11,-3,15
1532116812927,5,-14,-12,0,-2,-43,-3,-22
1532116812932,-2,8,-1,0,10,-43,-3,7
1532116812937,1,-8,-7,-11,-44,-24,-2,11
1532116812942,-4,-16,1,8,63,-26,1,-7
1532116812947,-1,-19,4,-10,-95,-36,-4,10
1532116812952,3,-23,7,19,32,-116,10,-7
1532116812957,1,-8,-3,-1,3,-119,0,5
1532116812962,0,10,-5,3,-8,-128,3,1
1532116812967,-5,28,-2,-14,-16,-128,-2,-3
1532116812972,5,19,1,14,15,-103,11,3
1532116812977,-6,10,-5,-1,11,-124,-5,-5
1532116812982,0,13,-2,-2,33,-107,-4,10
1532116812987,-2,8,1,-6,-44,-5,-10,-1
1532116812992,-11,-4,-5,-11,-9,104,-11,-5
1532116812997,4,-21,3,8,50,127,-2,-27
1532116813002,1,-27,-3,-7,23,127,-5,8
1532116813007,5,10,7,1,-25,112,3,18
1532116813012,26,18,2,0,-52,115,2,-18
1532116813017,-21,13,-2,1,-8,127,1,9
1532116813022,-9,4,-5,-6,-47,127,-11,-9
1532116813027,3,-23,1,1,22,120,16,-24
1532116813032,-13,4,-1,-2,51,122,20,16
1532116813037,11,3,-1,-1,-33,97,17,13
1532116813042,0,-11,-4,-11,-43,73,-15,-2
1532116813047,-17,2,3,2,1,41,-20,-2
1532116813052,33,-2,11,15,7,24,-18,21
1532116813057,-28,8,-7,-11,-30,-20,-20,-83
1532116813062,-27,-23,-18,1,14,36,-2,59
1532116813067,13,20,-6,-8,-56,-7,3,-7
1532116813072,-11,1,5,0,10,1,6,30
1532116813077,4,21,2,3,42,5,18,-16
1532116813082,5,3,3,9,-26,-16,26,-2
1532116813087,-15,-10,-6,-5,45,1,18,-7
1532116813092,-3,2,0,-11,-52,-37,4,-16
1532116813097,31,-1,6,2,-38,-6,4,60
1532116813102,-10,38,25,-8,-18,-3,-15,-10
1532116813107,9,-1,0,7,95,1,-1,35
1532116813112,-35,-43,-29,7,68,-27,-19,-29
1532116813117,-14,-28,1,2,-26,-11,-28,14
1532116813122,11,-35,-19,-8,3,-23,-27,-22
1532116813127,-10,-3,9,7,47,-8,-27,15
1532116813132,1,13,4,-18,-56,-28,-26,-62
1532116813137,5,2,-4,5,34,-8,49,72
1532116813142,7,42,14,-1,18,-43,26,-14
1532116813147,0,78,26,18,-9,-59,18,-12
1532116813152,-11,-95,-63,-24,-29,-31,27,2
1532116813157,-3,4,1,6,41,3,23,9
1532116813162,7,0,2,-5,-52,10,18,-30
1532116813167,1,-31,0,-3,-31,24,8,-23
1532116813172,-3,37,16,6,26,24,-56,19
1532116813177,2,-26,-7,-9,-24,14,-79,-10
1532116813182,2,15,13,4,3,36,-20,11
1532116813187,-4,-28,-20,-5,-13,-2,16,-15
1532116813192,12,64,40,14,19,2,12,15
1532116813197,-7,-32,-35,-11,-5,-9,31,-3
1532116813202,-7,-38,3,9,-1,-22,4,-7
1532116813207,6,-7,-2,-5,8,-29,-22,-1
1532116813212,-3,-1,-1,-21,-109,1,27,-5
1532116813217,11,24,23,22,-19,-8,-10,-1
1532116813222,-1,7,-18,-3,-6,1,14,-3
1532116813227,9,-2,-3,4,-6,-24,1,9
1532116813232,-2,3,7,-5,-4,-66,-10,-3
1532116813237,-8,5,2,-8,-20,-26,-12,-18
1532116813242,10,-3,0,7,-28,-7,4,9
1532116813247,6,4,7,1,0,-83,3,3
1532116813252,5,7,-1,8,31,-117,-1,4
1532116813257,-7,-18,-6,-10,-10,-128,-9,-9
1532116813262,-7,-30,-22,5,22,-63,-2,-4
1532116813267,-10,28,1,-1,-10,65,-9,-6
1532116813272,4,-12,3,1,43,126,19,1
1532116813277,9,7,8,-3,-13,127,1,3
1532116813282,-16,-6,-5,-2,-15,123,-3,-7
1532116813287,-11,5,1,7,-10,50,-9,-10
1532116813292,15,5,1,3,25,-32,18,9
1532116813297,6,3,-1,-10,-36,-93,6,6
1532116813302,7,5,5,9,-6,-128,3,2
1532116813307,-1,-13,-2,2,5,-75,-1,2
1532116813312,-9,3,-4,-1,-9,13,-6,-7
1532116813317,2,-3,-2,-7,17,44,16,0
1532116813322,12,18,12,10,34,54,-2,0
1532116813327,-15,-32,-18,-7,-18,51,-3,1
1532116813332,3,-6,-10,-5,50,48,-19,-9
1532116813337,-23,4,8,-3,2,46,0,-9
1532116813342,-6,-13,-13,-4,-5,32,-21,0
1532116813347,10,8,9,4,11,28,13,16
1532116813352,9,-6,-2,-2,-34,111,-19,27
1532116813357,-3,34,12,2,-42,127,-25,-36
1532116813362,-1,-20,1,-4,-1,127,16,-11
1532116813367,-1,-9,-2,-3,-29,21,43,7
1532116813372,7,15,8,12,63,-100,-2,-3
1532116813377,-17,-3,-7,-6,9,-125,100,-3
1532116813382,4,5,7,-5,21,-128,108,11
1532116813387,-2,-13,-24,1,2,-116,78,-14
1532116813392,-9,-5,-5,-3,-12,-118,40,2
1532116813397,10,-14,-4,9,-4,-128,-36,14
1532116813402,-3,6,1,-8,-11,-128,-65,-8
1532116813407,0,5,6,-13,14,-97,-52,5
1532116813412,-4,8,0,1,-29,-84,-41,-7
1532116813417,1,2,-4,1,25,-71,-66,2
1532116813422,0,15,3,-1,-24,-56,-78,-26
1532116813427,3,2,9,9,11,-41,-81,6
1532116813432,-6,-12,-9,-10,-24,-30,38,2
1532116813437,12,20,11,0,11,-17,43,6
1532116813442,11,6,-7,-2,-22,-33,38,8
1532116813447,-6,-34,-6,6,57,-36,15,5
1532116813452,-19,-3,3,5,-24,-32,0,-43
1532116813457,-4,-24,-6,-6,-8,-27,7,0
1532116813462,4,20,4,-2,11,-26,4,11
1532116813467,-1,10,3,-2,-18,-15,38,2
1532116813472,3,-6,-3,-4,-2,-7,60,15
1532116813477,6,10,7,9,-2,-11,55,-3
1532116813482,-4,-10,-4,-7,-11,-8,24,13
1532116813487,1,-4,-9,0,30,-2,-7,-2
1532116813492,-3,-4,1,-2,-22,-1,-33,-8
1532116813497,4,12,6,0,14,1,-79,1
1532116813502,2,-23,-8,0,6,0,-6,4
1532116813507,-1,-11,-8,-3,-20,-1,-30,-9
1532116813512,2,1,5,0,-19,2,-49,-22
1532116813517,4,-15,-6,2,16,-1,-30,21
1532116813522,14,8,6,-4,-31,-4,-36,-2
1532116813527,5,-8,-14,-12,-16,0,-7,-36
1532116813532,-6,-21,-2,2,63,3,1,-6
1532116813537,1,19,10,0,-20,-3,-2,-9
1532116813542,5,25,4,-8,-1,6,9,13
1532116813547,-6,-20,3,2,0,0,17,2
1532116813552,-6,1,-7,2,18,0,2,7
1532116813557,-11,-13,1,-3,-4,-3,-4,-40
1532116813562,3,4,2,1,-11,2,14,12
1532116813567,1,14,0,0,4,-1,-14,-13
1532116813572,14,17,13,5,-17,2,-33,15
1532116813577,-14,-27,-15,-4,13,-2,-18,1
1532116813582,3,-2,-2,-3,-7,4,-4,15
1532116813587,4,10,-7,-5,-10,-3,4,-11
1532116813592,-3,-14,2,2,5,1,13,11
1532116813597,8,9,3,5,-1,1,-9,6
1532116813602,-9,-7,-1,3,15,1,-12,1
1532116813607,-8,18,-8,-6,4,2,-2,-14
1532116813612,7,-12,-3,-3,6,-2,-2,21
1532116813617,-1,11,3,0,-16,4,5,-22
1532116813622,11,-13,12,2,24,-1,13,5
1532116813627,-10,-30,-12,-5,-27,1,10,2
1532116813632,0,10,-2,4,1,-1,21,-16
1532116813637,-8,-8,-3,-8,-15,1,15,7
1532116813642,0,6,-5,-2,7,-2,23,13
1532116813647,6,13,14,8,28,-2,16,-24
1532116813652,-10,-10,-10,-4,-29,-6,24,-11
1532116813657,8,11,12,8,5,-53,30,4
1532116813662,-2,12,-2,-9,-10,-84,11,-2
1532116813667,0,-23,-10,4,7,-126,16,6
1532116813672,0,0,-12,-7,-1,-128,1,-9
1532116813677,2,-3,2,-4,0,-113,-8,12
1532116813682,-4,8,-2,1,-4,-126,-4,-36
1532116813687,3,3,6,0,2,-59,-14,22
1532116813692,0,43,9,-3,-2,-36,-11,-4
1532116813697,-1,-56,-12,-3,-4,-82,-4,-2
1532116813702,-5,-7,-3,-2,1,-5,-17,-8
1532116813707,2,28,10,2,-9,-70,0,8
1532116813712,9,-9,-3,0,22,45,2,3
1532116813717,-16,1,-10,-1,-15,120,0,-19
1532116813722,5,24,2,0,8,127,1,35
1532116813727,-8,-35,-12,-1,10,127,7,-8
1532116813732,-3,11,13,4,-4,119,-5,-11
1532116813737,9,10,1,-4,-2,116,2,-26
1532116813742,-6,-13,-6,-5,-6,96,-6,-5
1532116813747,1,-1,4,0,-9,92,-3,28
1532116813752,-4,-10,-6,-7,-7,50,-9,-12
1532116813757,2,-1,-2,3,0,52,-1,2
1532116813762,0,-3,0,4,-2,32,2,4
1532116813767,1,8,9,2,2,33,-1,-10
1532116813772,-6,-5,-4,4,-8,16,4,37
1532116813777,-6,12,2,-4,6,11,2,0
1532116813782,4,-5,0,-5,-8,8,-3,6
1532116813787,2,15,-2,-5,-2,16,-5,4
1532116813792,11,-21,9,5,10,3,12,-1
1532116813797,-16,55,14,6,-5,3,1,-14
1532116813802,-10,-41,-23,2,0,0,1,3
1532116813807,-1,-7,-10,-2,-11,10,-5,13
1532116813812,-4,-1,-8,-6,-4,-3,-9,-33
1532116813817,8,9,7,-7,-4,-1,5,2
1532116813822,-4,1,4,1,4,2,-6,-9
1532116813827,6,10,8,9,2,4,9,0
1532116813832,-3,8,-1,-2,-3,-2,-3,8
1532116813837,4,-9,-6,-4,-1,1,-7,5
1532116813842,-5,1,0,-5,-6,1,-5,-6
1532116813847,-1,-9,-2,1,5,4,4,6
1532116813852,-6,6,3,1,-6,-2,6,0
1532116813857,2,-14,-4,-2,-2,1,2,-1
1532116813862,6,-2,6,2,2,-1,1,-3
1532116813867,1,36,18,-1,4,2,-6,-8
1532116813872,-1,-50,-30,-3,-10,-1,5,35
1532116813877,0,16,5,0,25,-1,2,-3
1532116813882,3,4,-6,1,-21,0,-2,23
1532116813887,-11,-17,-10,-10,5,1,-7,-47
1532116813892,-11,-4,-4,-1,1,0,3,-3
1532116813897,8,-18,-5,1,1,0,-1,0
1532116813902,3,12,12,2,2,-1,3,5
1532116813907,-3,-4,-2,-4,-7,1,-7,2
1532116813912,-1,25,10,4,0,36,-3,-12
1532116813917,2,1,-5,-3,-1,85,3,7
1532116813922,-5,0,2,-5,-2,117,-14,-23
1532116813927,2,9,2,-3,-6,127,16,14
1532116813932,-6,-7,-11,0,4,127,6,-5
1532116813937,-3,-1,-1,2,-2,125,4,8
1532116813942,-5,-5,-3,-1,-8,118,-1,-9
1532116813947,-4,-13,-5,1,2,84,-2,4
1532116813952,3,14,10,-3,-5,27,-9,-1
1532116813957,1,-6,-2,-3,4,-22,1,-4
1532116813962,1,14,16,3,6,-72,2,-1
1532116813967,2,10,-14,0,-10,-88,-7,6
1532116813972,-9,-48,-13,-7,0,-83,-1,-18
1532116813977,-2,25,0,-6,-8,-70,-8,-1
1532116813982,0,-13,-3,2,4,-63,8,3
1532116813987,2,11,12,5,3,-38,-4,3
1532116813992,-1,14,-2,4,3,-23,-5,-5
1532116813997,0,-13,-11,-7,-4,-41,0,0
1532116814002,0,10,3,-5,-1,-50,-2,3
1532116814007,1,4,3,3,-3,-66,7,2
1532116814012,10,20,6,-1,4,-70,0,3
1532116814017,-17,-11,4,0,3,-64,4,2
1532116814022,8,3,-9,-3,-4,-50,-7,-8
1532116814027,-3,-21,-11,-7,-3,-43,-24,-2
1532116814032,-3,1,8,-3,-2,-23,-6,0
1532116814037,4,-3,6,9,-5,-21,9,-12
1532116814042,-3,5,-4,-2,-1,-12,15,6
1532116814047,2,-19,-5,-5,1,-5,15,17
1532116814052,-6,11,5,1,-1,-13,-2,-24
1532116814057,1,-2,-7,-3,-5,-18,4,10
1532116814062,-13,-21,-4,-5,-5,-6,-3,-32
1532116814067,3,4,2,3,5,-2,5,5
1532116814072,3,16,9,4,3,-5,-1,-9
1532116814077,5,-5,-6,-2,-2,-1,-7,32
1532116814082,-4,-2,-6,-4,4,-6,-4,8
1532116814087,0,0,-3,-5,-6,-4,-6,-3
1532116814092,-1,5,6,-1,3,1,-3,-4
1532116814097,4,-14,3,5,-6,4,-5,-12
1532116814102,5,10,-4,-3,-2,4,-3,6
1532116814107,-3,-26,-4,-9,-3,11,0,-4
1532116814112,-2,-5,-4,0,-5,18,1,7
1532116814117,1,4,3,2,1,-5,1,-5
1532116814122,8,4,4,5,-1,-1,-1,-1
1532116814127,-14,12,1,2,0,2,5,-8
1532116814132,2,9,-3,-3,0,-5,-1,2
1532116814137,-2,-14,0,-2,-1,1,-3,-3
1532116814142,-1,3,-5,-1,-1,-11,1,-5
1532116814147,14,3,-2,1,-2,-9,-2,3
1532116814152,-9,5,2,-2,-4,-21,0,4
1532116814157,-1,2,-3,3,1,-4,4,-4
1532116814162,-3,-25,-10,-4,1,-7,-2,3
1532116814167,-3,-3,-5,-4,-4,-4,-6,-5
1532116814172,4,3,1,2,3,-10,0,6
1532116814177,4,-1,4,-1,1,0,-4,-3
1532116814182,-5,27,9,2,1,0,1,0
1532116814187,-2,-8,-5,-7,-5,-8,2,0
1532116814192,-2,-10,0,-5,-7,-5,-4,-2
1532116814197,0,-5,-7,0,-6,-10,-6,-4
1532116814202,-5,2,2,-6,-1,2,2,-1
1532116814207,-4,2,-3,7,3,-18,-2,-4
1532116814212,1,5,1,-1,0,-6,4,10
1532116814217,0,38,12,1,-1,-5,-2,2
1532116814222,-3,-43,-9,-4,-1,5,1,1
1532116814227,-2,-10,-8,-5,0,6,-2,-3
1532116814232,3,6,1,-1,-5,1,-6,0
1532116814237,-3,-7,-3,7,2,2,2,3
1532116814242,2,38,6,-6,-5,-7,-5,-3
1532116814247,-3,-27,-6,3,0,0,-4,-9
1532116814252,-1,-1,-1,-5,-3,-2,1,1
1532116814257,0,-9,-5,-1,-1,5,3,-3
1532116814262,1,6,5,4,0,-14,-4,-2
1532116814267,0,19,4,-4,-1,-4,-1,0
1532116814272,-1,-2,-5,-2,-2,5,1,0
1532116814277,0,1,1,1,-4,3,-2,-2
1532116814282,8,-16,-2,0,2,-4,2,2
1532116814287,-7,7,5,2,-2,3,-4,-3
1532116814292,-5,-15,-3,6,6,1,-1,-3
1532116814297,1,-21,-11,1,0,-25,4,6
1532116814302,-6,-24,-12,-6,-3,-36,-3,-18
1532116814307,-6,13,-1,-8,-4,-18,-2,9
1532116814312,13,-1,0,0,-4,-26,0,7
1532116814317,-5,15,6,3,1,-20,1,-10
1532116814322,2,-4,1,0,-3,-20,-1,5
1532116814327,1,-16,-5,-1,-1,-37,5,-2
1532116814332,-5,18,2,2,3,-11,-2,-2
1532116814337,0,-1,3,-4,0,-5,2,3
1532116814342,0,1,-8,-2,1,-3,-3,-2
1532116814347,14,-3,-4,-6,-6,2,-4,-3
1532116814352,-21,3,0,2,0,12,3,-3
1532116814357,1,-2,-3,0,-2,-1,-2,-3
1532116814362,-1,-4,2,-1,-1,-3,-3,0
1532116814367,2,-1,6,8,-3,-9,-2,2
1532116814372,5,8,3,-4,0,6,2,3
1532116814377,-7,-25,-17,-9,-1,-13,-1,-1
1532116814382,-1,8,2,-1,-4,3,0,4
1532116814387,1,13,4,-4,-1,6,3,-1
1532116814392,6,-33,3,5,0,4,3,1
1532116814397,-3,3,4,7,1,1,-1,-2
1532116814402,1,-9,-5,-3,0,-3,0,1
1532116814407,-3,-13,-4,-6,-2,0,-3,-6
1532116814412,-5,13,4,0,-2,3,2,1
1532116814417,11,29,12,4,0,-4,0,-4
1532116814422,-2,-7,-6,-1,-5,-3,1,5
1532116814427,-8,-12,-12,-1,2,4,-3,-1
1532116814432,1,-8,-3,-1,3,-5,4,-3
1532116814437,4,21,2,-5,-2,-4,-1,3
1532116814442,-3,13,8,-3,-3,4,0,-2
1532116814447,2,0,2,2,0,-1,1,0
1532116814452,-6,-9,-11,-5,-3,5,-7,-3
1532116814457,-5,8,8,5,1,3,-2,-1
1532116814462,2,-24,-5,0,0,-7,2,-1
1532116814467,2,1,-12,-10,-3,0,-2,0
1532116814472,-8,2,-3,2,-1,1,-1,-3
1532116814477,1,-2,3,0,-5,-10,1,2
1532116814482,-3,14,3,-2,-1,-6,-1,1
1532116814487,0,-10,-1,3,-1,-6,0,-2
1532116814492,4,6,0,-5,-3,-6,1,1
1532116814497,0,0,1,0,0,-8,1,1
1532116814502,-7,-9,-15,0,-3,-9,-6,-4
1532116814507,-2,34,6,0,2,-1,-1,-3
1532116814512,0,-20,0,-2,-4,-11,-5,0
1532116814517,-8,-23,-16,-7,1,1,0,-2
1532116814522,4,4,2,0,-3,-4,-1,-1
1532116814527,0,12,6,0,-2,-13,-5,-3
1532116814532,1,-18,1,2,0,7,4,1
1532116814537,0,1,4,5,2,0,1,2
1532116814542,2,2,-3,-4,-2,-9,-3,-1
1532116814547,-5,-13,-4,-3,0,3,-1,-7
1532116814552,0,21,6,-2,-3,2,-1,-1
1532116814557,-1,2,1,-5,-3,-7,-2,-1
1532116814562,-3,-2,-3,3,2,9,4,0
1532116814567,0,-12,-7,-5,-3,2,1,-7
1532116814572,8,13,3,1,-1,-3,-3,6
1532116814577,-8,-18,-11,-3,-2,4,0,-6
1532116814582,0,4,0,-2,-1,4,-1,-1
1532116814587,-2,10,3,-2,-2,-6,-5,-2
1532116814592,-1,3,0,-2,0,1,1,-1
1532116814597,5,3,7,10,0,4,-4,4
1532116814602,-3,-11,-9,-7,-3,0,-1,-2
1532116814607,1,4,-3,0,0,2,-1,-1
1532116814612,0,-14,-2,-5,-2,-1,3,-3
1532116814617,-4,9,-9,-1,-1,-2,-1,1
1532116814622,-4,-11,-2,3,-2,-3,-6,-3
1532116814627,7,16,0,-3,1,2,1,3
1532116814632,-2,-5,6,1,-2,-5,-3,1
1532116814637,-2,-2,5,0,-3,-2,1,-5
1532116814642,4,8,-6,-5,-4,4,-8,-1
1532116814647,-3,-6,2,2,1,-7,6,2
1532116814652,-6,17,4,3,-1,0,-4,-4
1532116814657,0,-3,-2,0,0,-6,-2,-5
1532116814662,-3,0,-2,0,1,5,1,0
1532116814667,4,-2,2,-2,1,-3,-2,-1
1532116814672,-1,11,2,-3,-4,6,1,1
1532116814677,-4,-9,-4,2,0,5,2,9
1532116814682,11,15,3,1,-1,-5,1,-9
1532116814687,-9,2,7,-5,0,4,-4,-2
1532116814692,-2,-23,-16,-1,0,2,-3,-3
1532116814697,-4,3,3,-2,0,-3,3,2
1532116814702,2,34,8,2,-2,0,1,3
1532116814707,-1,-28,-7,2,-1,3,3,-4
1532116814712,-2,0,4,-2,1,-1,2,0
1532116814717,7,6,-1,-9,-1,2,4,0
1532116814722,-7,7,-4,2,0,0,3,-1
1532116814727,1,2,1,2,-1,-3,-1,-1
1532116814732,-2,-3,-2,-1,-2,-4,-11,1
1532116814737,2,2,2,4,-2,2,-14,-2
1532116814742,-2,-4,3,-3,1,-6,-7,-2
1532116814747,1,1,-1,1,0,0,-7,1
1532116814752,-1,-8,1,7,1,3,5,0
1532116814757,-2,4,-6,-8,-5,-5,-3,-4
1532116814762,-3,-11,1,2,1,1,3,-1
1532116814767,0,8,2,-3,-3,-9,0,2
1532116814772,1,-15,-6,-4,-2,-1,3,1
1532116814777,-2,-4,-5,-1,-10,5,-2,-4
1532116814782,-1,-7,0,-4,6,17,1,10
1532116814787,1,1,0,1,-21,-14,8,3
1532116814792,1,5,9,-5,8,1,0,-4
1532116814797,10,17,1,3,-14,0,-3,5
1532116814802,-14,11,-7,1,29,-8,1,-7
1532116814807,2,-20,-2,-2,-4,11,6,0
1532116814812,3,1,-2,-3,-13,-2,3,2
1532116814817,-7,0,-1,-2,19,1,2,-6
1532116814822,0,4,3,2,-23,-7,-3,-6
1532116814827,2,6,2,3,24,7,-3,-1
1532116814832,0,4,-1,0,-15,1,-2,0
1532116814837,1,-7,0,3,34,-16,-5,2
1532116814842,3,-6,-3,-3,-28,-14,5,4
1532116814847,-4,0,1,0,27,-3,-1,-3
1532116814852,1,-3,2,-2,-79,5,-2,-3
1532116814857,-5,-2,-2,-6,40,10,-3,2
1532116814862,-5,3,5,8,69,-18,-5,-6
1532116814867,3,-6,-6,-3,-1,0,-6,-8
1532116814872,-13,5,-2,-2,-39,-11,-4,-4
1532116814877,-1,17,0,-4,-30,-10,-1,-3
1532116814882,-4,-34,-13,-9,-61,-2,1,1
1532116814887,-7,4,0,-7,20,-5,1,-3
1532116814892,14,-1,-2,8,47,-10,0,2
1532116814897,-7,3,3,-6,-73,-4,1,6
1532116814902,6,0,-1,5,41,-3,6,-8
1532116814907,-3,5,0,-3,-52,5,0,6
1532116814912,-4,-14,-8,-10,-20,-7,4,-14
1532116814917,6,-2,1,4,44,6,1,2
1532116814922,6,8,9,0,-27,-4,2,15
1532116814927,-3,10,6,3,-19,-3,-6,-2
1532116814932,5,-2,-6,0,21,-8,-9,11
1532116814937,7,20,1,-3,-10,67,2,-1
1532116814942,-1,-9,-5,-9,31,-75,2,-1
1532116814947,2,-4,-3,5,-9,4,18,5
1532116814952,3,0,2,-6,12,43,-7,1
1532116814957,-2,4,2,10,2,51,-1,-7
1532116814962,-3,-2,4,-1,-21,99,-11,-5
1532116814967,2,8,-1,-4,1,43,-4,8
1532116814972,-4,-7,-8,0,-5,53,-5,-4
1532116814977,-5,-8,-4,-5,-4,45,-11,-9
1532116814982,1,5,6,6,2,67,-2,6
1532116814987,1,-3,-1,-1,-1,19,-6,1
1532116814992,-1,-1,0,4,11,15,-6,-4
1532116814997,-3,-4,-1,-4,-15,-30,-7,-1
1532116815002,-1,4,5,1,11,22,-6,3
1532116815007,-3,-4,0,-5,-9,3,0,3
1532116815012,0,7,4,-2,6,-3,-6,-5
1532116815017,0,-4,-11,-2,-3,-11,0,3
1532116815022,0,6,-3,0,3,22,5,-2
1532116815027,-1,10,0,0,-1,13,-4,-4
1532116815032,1,-5,-1,-1,0,-6,6,3
1532116815037,-2,21,4,1,-4,1,-2,-1
1532116815042,3,31,16,2,6,-16,8,-7
1532116815047,-4,-32,-17,-6,-5,-90,-2,4
1532116815052,1,-2,-1,-2,1,-114,-1,1
1532116815057,2,-8,-4,-3,5,-128,6,0
1532116815062,-1,0,-1,0,-1,-91,-6,-4
1532116815067,-3,0,0,-1,-2,-62,0,-4
1532116815072,11,-16,-8,7,19,6,12,10
1532116815077,-14,-7,-7,-3,0,61,6,-6
1532116815082,-2,-12,1,-3,-3,74,0,0
1532116815087,2,6,8,-1,-7,72,8,-1
1532116815092,-1,-1,-2,3,-6,57,-4,-2
1532116815097,-1,-7,-3,-8,-5,58,-7,-5
1532116815102,-1,-4,-1,-2,-7,41,-4,1
1532116815107,0,18,0,3,6,38,2,2
1532116815112,-4,-7,-3,-4,-1,29,-2,-3
1532116815117,5,6,13,4,2,11,-4,1
1532116815122,-3,-21,-8,-8,-2,15,1,2
1532116815127,3,3,1,4,-8,20,-7,-4
1532116815132,-4,0,-3,-2,-7,3,-16,-8
1532116815137,2,4,11,-1,3,2,-6,-1
1532116815142,-2,3,-4,0,-7,8,6,-1
1532116815147,-2,-5,7,-1,1,22,0,4
1532116815152,8,5,-7,-2,-9,85,8,-6
1532116815157,-8,-11,1,3,1,12,7,2
1532116815162,1,-10,-2,3,7,-76,-3,-4
1532116815167,-5,4,0,1,0,-68,-5,-1
1532116815172,-4,-9,-8,-8,-4,-60,-1,-5
1532116815177,4,18,-3,-4,2,7,0,4
1532116815182,2,-1,-3,-3,-6,23,2,5
1532116815187,3,-15,-1,2,20,9,5,-1
1532116815192,-4,10,3,1,-4,2,-7,-1
1532116815197,3,1,2,3,-4,9,0,0
1532116815202,-1,-8,-4,0,-1,11,-2,3
1532116815207,5,5,6,-2,-10,14,-11,0
1532116815212,-9,4,9,4,-6,112,8,0
1532116815217,-2,-15,-11,-3,-1,105,-5,-19
1532116815222,-1,2,2,3,1,127,2,-1
1532116815227,2,4,0,-5,-8,127,-2,-1
1532116815232,1,29,7,1,6,102,0,4
1532116815237,3,-24,-6,0,1,47,-8,-9
1532116815242,-13,7,1,0,3,-32,3,0
1532116815247,5,-7,-5,0,4,-103,12,1
1532116815252,-5,9,2,-5,-5,-128,10,-7
1532116815257,6,5,-1,2,8,-89,15,28
1532116815262,1,-1,-2,-4,-8,-73,7,-6
1532116815267,15,5,-2,-1,4,-96,20,-31
1532116815272,-28,-14,0,1,8,-128,9,-39
1532116815277,2,2,-4,0,11,-128,11,17
1532116815282,1,-5,-2,-1,4,-128,-11,26
1532116815287,-10,11,-1,-5,-9,-69,-13,49
1532116815292,12,-16,0,0,4,-3,-25,-22
1532116815297,-2,-3,-3,-3,2,36,-10,-56
1532116815302,-8,1,-8,-1,1,85,-7,4
1532116815307,-5,-1,2,-3,-3,89,-15,-17
1532116815312,8,21,-6,-1,4,55,11,0
1532116815317,-7,-24,-1,-1,-1,44,-10,-6
1532116815322,10,2,5,1,7,52,18,41
1532116815327,1,-9,-8,-5,-4,49,0,-30
1532116815332,2,18,0,-3,-13,18,-5,19
1532116815337,-5,-6,3,2,-9,13,4,13
1532116815342,0,8,1,2,-8,21,-13,-26
1532116815347,-5,-4,0,4,-5,18,3,11
1532116815352,-1,-2,0,2,-8,5,3,9
1532116815357,0,6,-2,-2,-7,-1,2,-13
1532116815362,9,2,0,1,-3,7,-4,2
1532116815367,-12,10,1,3,3,10,4,-7
1532116815372,3,-22,3,-2,-4,-3,3,2
1532116815377,3,19,-3,0,-5,-4,3,10
1532116815382,12,-11,0,-1,-5,2,4,30
1532116815387,-24,-24,-12,-2,4,6,-32,-40
1532116815392,-6,-11,1,-1,-4,-3,-1,14
1532116815397,-2,8,0,-1,-1,-4,-1,4
1532116815402,4,20,8,2,-3,3,-14,-22
1532116815407,9,15,2,1,1,4,1,7
1532116815412,-3,-27,-4,-1,-1,-2,-6,7
1532116815417,5,29,4,0,1,-3,-3,6
1532116815422,-6,0,-2,-2,-1,1,10,18
1532116815427,15,-11,-7,-1,-1,3,2,16
1532116815432,-18,-7,-4,-3,1,-2,-9,-4
1532116815437,5,-6,0,-3,-2,-3,-5,10
1532116815442,-8,-4,-2,1,3,1,7,-23
1532116815447,-3,-12,2,0,-4,2,4,1
1532116815452,9,15,1,0,0,-1,6,19
1532116815457,2,-1,-1,-2,0,-2,14,-11
1532116815462,24,0,-1,-4,-4,1,5,-9
1532116815467,3,-1,2,0,-1,1,3,17
1532116815472,-14,36,3,1,-2,-1,8,-13
1532116815477,-9,-49,-1,-1,-5,-1,-9,3
1532116815482,-42,-15,-14,0,2,0,7,-9
1532116815487,35,21,1,-3,-1,2,-28,-10
1532116815492,12,-18,0,1,11,-1,-23,16
1532116815497,9,16,2,0,-7,-1,-13,5
1532116815502,-10,-8,3,-2,-1,0,-24,-14
1532116815507,-36,-8,-1,1,-5,1,17,-1
1532116815512,16,10,1,-1,0,35,-9,-2
1532116815517,10,23,4,1,8,51,-3,8
1532116815522,-1,1,-1,-4,-22,44,-5,11
1532116815527,-15,-15,-9,2,18,45,4,-22
1532116815532,-14,-4,1,1,-11,8,-17,-14
1532116815537,-5,-3,-3,2,1,11,19,0
1532116815542,-8,27,3,-7,-2,7,-2,-9
1532116815547,10,-19,-1,-4,-7,-5,5,6
1532116815552,14,-5,-3,-1,14,2,11,11
1532116815557,-13,-20,-4,2,-18,-6,-20,-22
1532116815562,16,8,5,3,20,1,9,0
1532116815567,-9,10,1,1,-12,8,4,9
1532116815572,-8,-10,-2,-1,0,5,8,-6
1532116815577,-1,2,1,4,0,-11,-9,2
1532116815582,-11,-6,-4,-5,2,-8,-6,-6
1532116815587,6,-10,8,-1,-4,-8,7,-4
1532116815592,6,11,-4,-6,-8,-4,18,1
1532116815597,-7,-11,-9,-2,7,-3,-11,-1
1532116815602,0,-3,0,0,6,3,-16,-8
1532116815607,0,22,1,1,-2,-11,-14,3
1532116815612,2,-15,4,-2,-7,-8,8,-2
1532116815617,-10,-2,-5,-4,-2,-9,19,2
1532116815622,-1,-11,-4,1,2,-9,2,-12
1532116815627,-1,18,2,-2,5,6,-2,3
1532116815632,2,2,1,1,-5,-25,-11,-3
1532116815637,2,6,2,-4,0,-8,8,4
1532116815642,1,-8,-6,0,-9,-6,3,-4
1532116815647,0,-2,0,-1,1,-7,4,4
1532116815652,-6,-8,-2,1,3,0,-3,-4
1532116815657,24,-12,0,-1,-7,0,-3,4
1532116815662,4,8,5,5,10,-7,5,4
1532116815667,-2,2,3,-4,7,-6,0,-6
1532116815672,-4,-1,-5,-1,-9,-11,-2,2
1532116815677,-14,3,-1,-5,-10,-8,-18,-4
1532116815682,7,4,2,0,-3,1,12,4
1532116815687,-5,-6,-4,5,-2,0,5,5
1532116815692,-5,22,-1,-4,2,0,0,-9
1532116815697,4,-28,-1,0,19,-8,-24,-7
1532116815702,1,4,2,7,-10,22,62,6
1532116815707,-3,-5,-1,-6,-3,-7,0,4
1532116815712,18,-1,-2,-2,-7,-8,4,4
1532116815717,-28,16,2,-2,8,2,14,-5
1532116815722,1,-10,-4,-3,-5,-9,-18,-5
1532116815727,-5,-1,0,3,-1,-9,1,-1
1532116815732,-3,-7,0,2,1,-1,9,-1
1532116815737,14,11,-1,-1,-5,-4,8,8
1532116815742,-5,-7,-2,-3,2,-13,-16,-6
1532116815747,5,6,-1,-3,-3,4,4,0
1532116815752,-5,-9,-1,-6,-3,3,-14,-2
1532116815757,-7,8,2,-2,2,-7,3,-2
1532116815762,-7,17,1,-2,-11,-15,-5,-3
1532116815767,5,-20,-7,4,4,-6,-6,5
1532116815772,-5,-8,-4,3,2,1,0,0
1532116815777,-2,3,2,1,0,-4,10,0
1532116815782,6,4,1,-6,-7,-10,-15,-2
1532116815787,-3,1,-1,-3,-4,-5,6,4
1532116815792,-4,-2,2,1,-1,-2,-4,0
1532116815797,0,2,-4,-1,2,-9,-7,-2
1532116815802,0,-9,-1,-4,0,-5,-13,3
1532116815807,-5,-1,-1,0,-3,-4,-7,-7
1532116815812,0,-3,-3,-1,22,0,0,0
1532116815817,4,5,0,3,-20,-3,7,1
1532116815822,2,-7,-2,-1,0,-8,-4,0
1532116815827,-8,5,2,-1,-3,-4,-2,1
1532116815832,8,-2,-3,-2,-5,-3,-5,0
1532116815837,-3,0,0,2,3,4,-7,-9
1532116815842,-7,11,-2,0,6,-1,-2,-5
1532116815847,3,-28,6,2,-4,-3,9,-1
1532116815852,0,1,-4,0,-3,-9,-3,0
1532116815857,-1,-7,-8,-3,1,-4,4,2
1532116815862,0,-6,-2,-1,-7,-14,-8,-3
1532116815867,1,15,-1,-1,0,-6,12,2
1532116815872,-7,3,1,-2,-4,-5,-16,-8
1532116815877,0,-16,1,2,6,8,5,2
1532116815882,0,-3,0,1,4,6,20,0
1532116815887,0,3,-1,-4,-5,-1,37,-1
1532116815892,-3,-5,-1,0,-4,-5,18,0
1532116815897,-2,11,-1,-1,-3,0,-3,-1
1532116815902,-5,-8,-2,-4,1,1,-28,-2
1532116815907,0,2,-2,1,-3,-4,-26,-1
1532116815912,2,0,2,2,-7,-9,-10,3
1532116815917,-2,3,4,-1,-3,-9,-14,-1
1532116815922,-1,-8,-5,-1,1,3,-5,-3
1532116815927,-1,3,-1,-5,2,-3,-16,-5
1532116815932,-1,3,1,-2,-7,-4,1,2
1532116815937,-2,-1,-2,-2,0,-7,-5,0
1532116815942,2,-5,-1,-1,-3,-8,0,0
1532116815947,0,4,1,1,2,8,-5,-4
1532116815952,0,-3,-3,-1,-1,-1,11,2
1532116815957,1,0,-1,-1,-6,-7,7,2
1532116815962,0,-1,-1,0,0,-3,8,2
1532116815967,1,2,-2,-3,-2,-6,-1,1
1532116815972,-4,0,-3,0,2,-5,-2,-3
1532116815977,-2,0,-1,0,-3,-6,6,0
1532116815982,1,0,2,5,0,-12,3,-2
1532116815987,-2,-1,-1,2,-3,-1,-6,0
1532116815992,0,-4,-3,-3,-2,4,1,-2
1532116815997,0,1,-1,0,1,5,1,0
1532116816002,-1,-1,-1,-1,2,-10,-2,2
1532116816007,0,2,-1,0,-4,-14,5,1
1532116816012,-1,-3,1,-1,-1,-15,-5,1
1532116816017,-2,-18,0,0,0,-35,1,-2
1532116816022,1,-4,0,2,-1,-6,1,-2
1532116816027,2,13,1,0,-2,5,-3,3
1532116816032,-3,-5,-6,-3,-3,10,0,0
1532116816037,-3,7,-1,-3,-2,15,-3,-3
1532116816042,-1,3,0,1,1,10,4,-1
1532116816047,2,2,5,4,-1,-6,-1,2
1532116816052,-3,5,4,2,-1,-4,-3,-4
1532116816057,1,46,1,-10,-2,-7,5,0
1532116816062,-1,-59,-7,-4,-2,-1,6,0
1532116816067,-1,-6,-8,0,-2,-4,-10,-1
1532116816072,0,-3,0,3,-1,3,-5,3
1532116816077,-1,-7,0,3,-3,14,8,3
1532116816082,-4,21,5,-1,0,15,7,1
1532116816087,1,-4,0,-5,-3,18,-3,0
1532116816092,0,-9,3,0,1,16,-7,-9
1532116816097,-1,1,-1,-1,1,24,8,5
1532116816102,-2,11,-1,-2,0,12,-2,-1
1532116816107,-1,-6,-4,-2,0,3,2,1
1532116816112,0,13,2,1,-3,0,0,-1
1532116816117,-1,-7,-4,2,-2,5,-5,2
1532116816122,0,3,0,-3,-3,-3,2,4
1532116816127,-2,-5,0,2,1,-2,3,1
1532116816132,-1,-4,-2,-5,0,1,-1,1
1532116816137,1,-8,2,2,1,2,2,-4
1532116816142,-1,1,0,0,-4,0,-7,-5
1532116816147,0,2,-2,-3,-2,-8,-12,-7
1532116816152,0,-5,-1,4,2,-29,12,-2
1532116816157,-1,-9,-2,-3,-2,-18,-4,-2
1532116816162,0,6,-1,-2,-3,-8,-7,3
1532116816167,0,-2,-1,2,-2,11,3,-1
1532116816172,-2,-2,-2,-3,-1,17,1,0
1532116816177,1,-1,0,0,-1,6,1,1
1532116816182,-1,3,0,0,-2,4,0,-2
1532116816187,-1,5,0,0,0,2,0,-3
1532116816192,2,-8,-2,0,0,-2,1,6
1532116816197,-3,19,7,1,-1,-3,-2,-6
1532116816202,3,-2,-3,-1,-1,7,0,-1
1532116816207,-6,-34,-15,-6,-1,-3,-9,-2
1532116816212,-2,4,0,-4,-2,0,-2,1
1532116816217,-2,-9,-2,-2,0,-14,-3,-3
1532116816222,1,13,3,-1,-3,-38,-2,-1
1532116816227,-1,7,2,-2,0,-26,11,-2
1532116816232,1,0,1,1,-2,-32,-6,-5
1532116816237,-2,-2,-4,-2,-2,4,-5,0
1532116816242,-3,-2,-1,3,2,20,-6,-3
1532116816247,0,2,-1,-3,-3,32,-3,2
1532116816252,-1,3,0,2,-1,26,7,0
1532116816257,0,2,-2,-3,-1,6,-9,-2
1532116816262,-2,-2,-1,-1,0,7,0,-3
1532116816267,-1,1,0,0,2,-2,1,1
1532116816272,1,2,0,-3,0,-3,-4,-4
1532116816277,0,-12,-1,2,-2,-7,-1,0
1532116816282,-1,-2,-4,-2,0,2,5,0
1532116816287,-2,4,4,0,-2,-5,-5,-2
1532116816292,-3,-3,-1,-2,-2,2,5,-2
1532116816297,1,-6,-1,4,1,3,-3,1
1532116816302,1,0,2,-3,0,-4,-2,-3
1532116816307,2,6,0,0,0,-4,1,3
1532116816312,-3,-7,-4,-1,-1,2,-3,0
1532116816317,-3,-6,-2,-1,-2,-5,2,-1
1532116816322,-1,1,-2,1,-1,-8,2,-1
1532116816327,0,1,-1,-3,-1,-14,-6,-3
1532116816332,2,2,2,1,-1,-5,0,0
1532116816337,0,0,-1,3,2,6,-3,-2
1532116816342,-2,1,0,-1,-2,1,-2,0
1532116816347,2,-4,-5,-3,1,-3,6,-1
1532116816352,-2,-2,-4,-3,-2,0,-6,-1
1532116816357,-1,4,0,2,-2,1,3,2
1532116816362,-1,3,3,2,0,-6,3,2
1532116816367,-1,2,-3,-3,-5,-4,-1,-1
1532116816372,-1,1,0,-1,-2,1,-3,-1
1532116816377,0,2,-3,-3,-2,-1,-6,-4
1532116816382,-1,3,-4,-4,-1,3,1,0
1532116816387,0,2,2,1,0,-3,-6,-3
1532116816392,-2,0,0,1,0,3,-3,1
1532116816397,0,-2,1,-3,-4,2,-7,-3
1532116816402,-2,0,0,-1,-2,3,3,0
1532116816407,1,-3,1,2,1,4,-9,-3
1532116816412,-1,2,-2,-1,-3,1,-3,-2
1532116816417,-3,-1,1,2,-2,-1,-3,-1
1532116816422,0,-9,-12,-1,-5,-3,0,-1
1532116816427,-6,-10,-7,-4,-2,-2,0,-2
1532116816432,-1,-6,1,-1,0,-3,2,0
1532116816437,-1,4,2,0,1,-9,-1,-1
1532116816442,4,23,9,4,-1,-5,-2,4
1532116816447,-1,-22,-9,-3,-2,7,0,-7
1532116816452,6,5,-2,-2,-2,-4,-5,-3
1532116816457,-8,0,1,-3,-4,3,3,-2
1532116816462,-5,-13,-7,-5,-1,6,9,-2
1532116816467,-1,11,5,2,0,-28,-4,0
1532116816472,-1,-7,-3,2,-1,-7,1,0
1532116816477,2,3,1,-3,-2,-8,1,1
1532116816482,-2,3,5,1,0,4,-21,-8
1532116816487,1,-6,-6,2,1,12,10,8
1532116816492,2,-8,2,1,-2,1,4,1
1532116816497,-1,-2,-2,-1,-3,0,3,6
1532116816502,-8,-3,0,0,-2,-3,0,-3
1532116816507,-1,-2,2,-2,-2,3,-2,0
1532116816512,-2,17,4,2,-2,-1,0,-2
1532116816517,6,-12,-1,0,2,0,-3,0
1532116816522,2,28,1,1,2,4,-1,0
1532116816527,-3,-36,-3,-2,-10,-5,-3,1
1532116816532,-1,-4,-7,-8,-3,9,-1,-3
1532116816537,-2,2,2,1,-3,3,-8,-3
1532116816542,2,-9,-2,-2,3,7,10,3
1532116816547,0,21,2,-2,-2,-5,1,0
1532116816552,0,6,7,2,-1,-5,1,0
1532116816557,-4,-14,-6,0,2,-1,5,0
1532116816562,3,7,2,0,0,-5,-1,4
1532116816567,10,-10,-5,0,-7,-3,-1,4
1532116816572,-7,-8,-5,-2,1,1,-6,-9
1532116816577,-3,4,0,2,-1,-3,-1,-5
1532116816582,8,-6,-2,-2,-3,0,3,0
1532116816587,-11,37,10,-1,3,0,2,-2
1532116816592,-2,-11,-10,-6,1,-1,-1,4
1532116816597,-6,-29,-6,0,-2,-3,-5,-8
1532116816602,0,-8,-4,-3,-6,-8,-1,-2
1532116816607,3,12,0,-1,-3,-7,-7,-3
1532116816612,0,9,3,-1,-2,0,14,1
1532116816617,-1,20,3,2,5,5,5,0
1532116816622,-10,-15,-9,-6,-3,-4,-6,-4
1532116816627,8,2,0,0,0,-1,7,2
1532116816632,-3,-10,-4,1,-2,-5,-4,-4
1532116816637,2,-9,-3,0,-4,-7,-9,2
1532116816642,0,0,6,3,2,-4,6,1
1532116816647,-6,-1,-2,1,3,1,-3,0
1532116816652,1,3,-2,-3,-3,-9,1,-2
1532116816657,3,-1,-10,-6,-2,-1,-3,-1
1532116816662,1,6,6,2,0,-4,-10,0
1532116816667,-2,-4,0,-2,0,3,1,-2
1532116816672,1,0,2,3,-2,-7,-2,0
1532116816677,-3,13,-3,1,-1,0,0,0
1532116816682,-5,-28,-8,-6,-2,0,1,-3
1532116816687,-1,-14,-2,-1,1,-2,-1,0
1532116816692,8,0,2,-1,-3,-2,-1,3
1532116816697,-9,2,4,1,3,1,3,0
1532116816702,0,5,3,1,-3,-1,0,-1
1532116816707,-1,31,2,0,-4,0,-8,-1
1532116816712,-5,-28,-8,-5,-1,2,-5,-5
1532116816717,1,9,2,-1,1,-1,-1,1
1532116816722,1,-1,-3,-2,-1,0,5,-1
1532116816727,-2,-9,3,0,1,6,10,1
1532116816732,0,13,-1,0,-1,2,-9,-2
1532116816737,2,-5,-3,2,1,4,-1,-1
1532116816742,-2,1,2,0,-1,-3,-2,-1
1532116816747,-2,-6,-3,-3,-4,-1,-3,0
1532116816752,-1,3,-2,-1,1,2,-4,1
1532116816757,1,-2,3,1,-5,-4,3,0
1532116816762,-2,0,-2,-2,0,2,-3,-3
1532116816767,-1,1,3,1,0,1,-5,-1
1532116816772,-2,-3,-1,-1,0,2,4,3
1532116816777,1,-2,-1,-5,-2,4,-2,-2
1532116816782,-1,4,-1,0,-5,-2,9,1
1532116816787,2,-6,-1,0,2,-1,-5,0
1532116816792,-2,0,0,-1,-1,0,-4,-2
1532116816797,2,0,-1,-1,0,-4,-2,1
1532116816802,0,-1,-2,-1,-2,-2,-1,0
1532116816807,-2,2,-1,2,0,1,4,-1
1532116816812,0,0,1,3,0,0,1,-1
1532116816817,-1,-1,-2,-2,-4,3,1,-2
1532116816822,-3,-2,0,-2,-1,1,-1,-3
1532116816827,-2,-2,-4,-3,-4,1,0,0
1532116816832,-1,1,-2,-3,0,3,1,0
1532116816837,1,-2,0,-2,0,-4,-1,1
1532116816842,-1,-1,-1,1,3,1,-3,-1
1532116816847,1,2,3,3,-1,-1,3,1
1532116816852,-3,-4,-4,-2,-1,0,-2,-2
1532116816857,2,12,11,3,-2,2,6,-1
1532116816862,-1,9,-5,3,-3,-4,-2,-1
1532116816867,-2,-16,-11,-4,-1,2,1,2
1532116816872,-1,-15,-2,-1,-2,3,-4,-2
1532116816877,-3,-5,-3,-2,-2,2,-3,1
1532116816882,0,5,2,-1,1,3,-7,-1
1532116816887,0,12,7,-1,-3,-2,1,-1
1532116816892,1,5,2,-1,0,-4,6,0
1532116816897,0,0,-1,-3,-1,2,-2,-2
1532116816902,0,-6,-5,0,-1,3,1,0
1532116816907,-2,-4,-3,-4,-1,-2,-4,-2
1532116816912,-1,0,1,4,-4,-5,0,0
1532116816917,1,-1,-1,-2,0,-2,-3,-2
1532116816922,1,-2,-1,-2,-3,-1,1,0
1532116816927,1,-2,2,2,1,3,-3,-4
1532116816932,-3,4,0,1,-1,6,1,0
1532116816937,-2,-1,0,-5,-3,-2,-1,-1
1532116816942,-1,-10,-4,1,-2,1,7,2
1532116816947,-2,-1,-1,-1,1,-1,-4,-2
1532116816952,0,7,2,0,-1,2,-6,-5
1532116816957,-3,-12,-3,2,0,-1,-1,-1
1532116816962,1,12,10,3,2,1,1,0
1532116816967,-1,-3,-8,-3,-9,-6,5,1
1532116816972,-4,-15,-5,-4,-1,-3,3,0
1532116816977,0,21,2,-1,-4,-5,-7,-3
1532116816982,-3,-36,-11,-2,0,1,-1,-1
1532116816987,1,2,4,3,2,1,-1,-2
1532116816992,-1,3,0,-4,1,-2,-2,-3
1532116816997,0,2,-3,0,-2,-2,5,2
1532116817002,-1,8,7,2,-2,-6,0,-1
1532116817007,0,1,-3,-1,-2,-6,-2,-1
1532116817012,-2,-4,-2,-1,-1,-8,-1,0
1532116817017,0,-1,-2,1,0,-5,1,0
1532116817022,0,1,0,-2,-2,-7,-5,0
1532116817027,-4,-8,-6,-3,3,-3,-13,-4
1532116817032,1,7,0,2,-2,-3,0,1
1532116817037,1,-7,-2,-1,0,-5,-3,0
1532116817042,-1,2,1,-1,-2,-2,13,-2
1532116817047,-1,1,2,0,-1,-6,12,0
1532116817052,0,-3,-1,-2,-5,-3,5,-1
1532116817057,-1,0,3,-2,2,-4,2,2
1532116817062,3,2,-3,0,0,1,-14,-4
1532116817067,-1,-9,-2,0,0,-1,-3,0
1532116817072,0,8,5,2,1,-2,-5,-1
1532116817077,-1,-11,-9,-1,-6,-6,-6,-2
1532116817082,0,2,0,-4,-3,-1,-1,1
1532116817087,1,2,0,-1,-2,1,-3,-2
1532116817092,1,0,0,0,2,2,4,2
1532116817097,-1,5,2,-1,-1,4,-4,-1
1532116817102,2,-11,-1,-1,-3,-1,-1,-4
1532116817107,-1,-4,-1,-2,-2,3,-1,-1
1532116817112,-1,3,0,-2,-1,1,-5,0
1532116817117,-1,3,-2,0,1,-1,2,-1
1532116817122,-1,1,-4,-2,-4,-1,0,1
1532116817127,-2,-2,2,2,0,-1,-2,-1
1532116817132,0,0,-6,3,1,0,4,0
1532116817137,0,-5,-1,-3,-1,-5,0,1
1532116817142,-1,-5,0,0,-2,-3,2,-1
1532116817147,-2,3,1,-4,0,-2,0,-2
1532116817152,-3,-2,1,2,4,3,-12,-4
1532116817157,-2,1,-2,0,0,0,-7,-2
1532116817162,-1,5,-4,-1,-3,-1,4,2
1532116817167,2,9,2,2,-4,3,5,0
1532116817172,-4,-17,-10,-2,-1,-2,2,-1
1532116817177,-1,5,2,-1,-2,-1,2,-1
1532116817182,-1,-8,-2,-1,-2,-1,-4,-1
1532116817187,-2,9,3,-1,1,1,0,-1
1532116817192,-1,5,5,0,-1,1,1,2
1532116817197,0,0,0,0,1,1,1,-1
1532116817202,-1,8,-2,-4,-4,-5,-4,-2
1532116817207,3,-3,3,2,0,-1,-2,-1
1532116817212,-3,-9,-11,-2,2,7,1,-2
1532116817217,0,-2,0,-2,-2,4,6,-1
1532116817222,0,3,1,1,2,4,-2,0
1532116817227,1,-3,-1,3,-1,-4,-1,-1
1532116817232,4,7,5,-2,-3,-2,8,1
1532116817237,1,3,-2,-3,-1,0,-6,-2
1532116817242,0,-1,0,2,1,0,0,0
1532116817247,0,2,-1,-5,-2,3,-7,0
1532116817252,-4,-8,-3,2,-2,1,4,-2
1532116817257,-2,-3,-3,-4,0,1,1,-3
1532116817262,-2,0,1,2,0,-1,-2,-2
1532116817267,-2,-20,-3,2,-1,-2,0,-1
1532116817272,3,13,1,-4,-1,-2,-1,4
1532116817277,0,8,2,1,-2,-1,0,0
1532116817282,-1,-6,3,-1,-3,-1,1,-2
1532116817287,-4,-14,-11,0,0,2,0,-1
1532116817292,-1,-3,3,0,-1,1,-5,-3
1532116817297,-1,20,1,3,-1,-6,2,0
1532116817302,9,-12,0,0,-2,-4,-3,5
1532116817307,-10,3,0,-2,0,5,-1,0
1532116817312,-1,-2,2,-4,-4,0,-4,-7
1532116817317,-1,10,-1,-1,0,3,1,0
1532116817322,-4,1,-6,-2,-5,0,3,-1
1532116817327,4,-6,-2,0,0,-1,2,-2
1532116817332,-7,0,-3,-6,-18,-2,-1,1
1532116817337,7,-7,6,4,1,6,1,-2
1532116817342,-2,6,3,0,12,-1,-2,-3
1532116817347,1,-2,-2,3,3,-6,-3,0
1532116817352,-1,12,-4,-1,4,7,5,1
1532116817357,-2,-13,-6,1,-18,-14,-9,-1
1532116817362,-2,2,-3,-5,-24,-3,0,-1
1532116817367,1,6,2,0,8,0,-1,1
1532116817372,1,1,5,3,-9,-9,5,2
1532116817377,-2,-3,-4,-1,20,-12,-5,-3
1532116817382,-1,1,-3,1,13,-4,-5,-4
1532116817387,-5,2,0,-4,6,-7,4,-1
1532116817392,2,-2,1,4,-6,-2,-1,0
1532116817397,-5,-11,-4,0,-6,-10,4,2
1532116817402,-2,1,-4,-3,1,-13,-9,-5
1532116817407,2,-4,-4,-3,-18,21,0,-1
1532116817412,1,4,-1,0,10,27,-3,2
1532116817417,-3,-2,-1,-5,-3,22,14,1
1532116817422,0,3,1,1,-5,-5,-9,3
1532116817427,1,3,-3,0,-6,-20,-1,0
1532116817432,0,-3,-6,-6,16,-17,-4,-3
1532116817437,-3,3,2,4,-26,14,-3,1
1532116817442,-1,1,-1,-2,19,11,6,0
1532116817447,0,-3,-5,-7,-15,3,1,0
1532116817452,-1,3,3,7,15,-10,-2,0
1532116817457,1,-4,-6,-6,-33,-9,-1,-2
1532116817462,-2,-1,1,6,34,10,2,0
1532116817467,0,0,1,3,0,-2,-2,-2
1532116817472,-1,-2,-2,1,5,-2,0,0
1532116817477,0,-2,-1,-3,-16,4,2,-1
1532116817482,-2,-1,-2,-1,-18,-15,-6,-2
1532116817487,-3,2,-1,-1,4,-1,0,-1
1532116817492,1,-2,0,1,-5,-4,0,-2
1532116817497,0,-4,-1,-3,22,-3,-2,1
1532116817502,0,-1,-2,-1,-13,10,4,0
1532116817507,0,1,2,0,1,3,5,0
1532116817512,-2,-2,0,-2,-6,5,-7,-2
1532116817517,-2,-1,0,2,21,-6,-6,-2
1532116817522,1,2,4,-2,-23,-1,8,3
1532116817527,2,1,0,0,-3,-9,-1,2
1532116817532,0,-1,-5,-6,-10,17,2,-4
1532116817537,-2,-7,-1,2,12,12,-1,-2
1532116817542,-3,2,-3,-6,-1,1,-6,-4
1532116817547,0,-6,1,-1,2,7,5,2
1532116817552,-1,9,5,4,6,-13,-7,3
1532116817557,0,20,-7,-9,-6,-12,-3,0
1532116817562,-2,13,-2,-2,-2,0,4,-1
1532116817567,-2,-1,-3,-1,-4,2,-6,-2
1532116817572,0,-22,1,-1,-1,-6,-1,-2
1532116817577,-1,-16,-1,2,-2,-5,0,-3
1532116817582,-2,-7,-1,2,-2,1,2,0
1532116817587,0,3,-3,-3,3,-4,-3,-2
1532116817592,-3,5,1,1,-5,-9,1,0
1532116817597,1,0,1,1,-9,-2,-1,3
1532116817602,-2,-5,-2,-3,-11,-1,-4,-4
1532116817607,0,-8,3,2,18,-2,-1,-2
1532116817612,0,-2,-2,1,-1,-4,2,-1
1532116817617,1,2,3,-2,3,-9,2,2
1532116817622,-1,-4,-4,-6,-17,-6,-5,0
1532116817627,-3,-4,-2,-3,-10,-8,-5,-2
1532116817632,0,2,-1,-2,-1,7,0,2
1532116817637,-3,-2,-4,-1,32,-3,-3,-2
1532116817642,0,-2,-1,5,-5,-6,4,0
1532116817647,-1,4,0,-2,-20,-11,-2,-1
1532116817652,-3,1,-2,-4,12,-8,-3,0
1532116817657,-1,0,1,2,-15,-6,-2,-1
1532116817662,-1,-1,1,2,13,2,3,-1
1532116817667,-1,-1,-1,1,-6,-3,1,-2
1532116817672,-3,-5,-5,-3,-14,-6,2,1
1532116817677,-3,-4,-3,4,11,6,-2,-5
1532116817682,0,2,3,-2,0,-3,-3,-2
1532116817687,0,7,2,3,-4,13,-2,0
1532116817692,-1,0,-5,-3,30,-3,0,-1
1532116817697,0,-16,-2,-6,-32,13,-5,2
1532116817702,1,24,3,-2,0,12,0,0
1532116817707,-2,-23,-6,-3,1,4,-1,-3
1532116817712,3,27,9,4,-6,-5,1,-1
1532116817717,1,21,16,4,18,-14,1,-2
1532116817722,-8,-52,-38,-9,-9,-8,-1,-2
1532116817727,-8,-25,-11,-5,7,-5,1,-2
1532116817732,-1,-11,-5,1,-10,-4,-1,-2
1532116817737,1,3,2,-5,-10,-9,0,-2
1532116817742,3,7,16,5,-12,-7,-1,-2
1532116817747,-1,-5,-1,-5,22,-9,-3,0
1532116817752,-1,-14,-2,-1,-14,-6,-1,0
1532116817757,2,5,0,-1,7,-20,2,-1
1532116817762,1,3,2,-3,-1,-26,-2,0
1532116817767,1,6,-4,2,4,-9,0,2
1532116817772,-1,12,6,0,-10,0,-4,-1
1532116817777,-2,-3,-1,-2,-13,12,-2,0
1532116817782,-1,-7,-1,1,-2,17,1,-1
1532116817787,0,7,0,-3,-4,14,1,0
1532116817792,2,-4,1,-5,-7,8,-1,0
1532116817797,-1,4,-6,0,-8,-6,-1,0
1532116817802,-3,-1,2,1,2,12,0,-1
1532116817807,1,17,4,0,0,4,-1,-2
1532116817812,-1,1,-3,-3,-8,-3,0,1
1532116817817,-2,-9,-6,0,12,10,1,0
1532116817822,1,14,3,4,5,-5,0,1
1532116817827,0,4,0,4,-7,4,2,1
1532116817832,-1,-2,0,-2,9,3,0,-3
1532116817837,-3,-3,-6,-7,13,0,-3,-3
1532116817842,0,3,0,2,4,0,-1,1
1532116817847,0,2,1,4,-11,-1,1,-2
1532116817852,-2,-6,-3,-2,36,-1,2,0
1532116817857,2,1,0,-2,-20,-2,-2,2
1532116817862,-1,-5,-2,-1,5,0,2,0
1532116817867,1,-3,-1,-4,4,-2,-3,-2
1532116817872,-2,-1,-2,6,-6,-4,1,-1
1532116817877,-3,-5,-2,0,0,4,-2,-3
1532116817882,-2,-2,-1,-3,10,-3,-2,-3
1532116817887,-1,-1,-2,-1,-8,-2,1,0
1532116817892,1,1,-2,-2,-12,0,-2,1
1532116817897,-2,0,2,2,1,1,1,1
1532116817902,-1,-1,1,1,-21,0,-2,-2
1532116817907,-3,3,-3,0,7,-4,-2,1
1532116817912,-2,-1,-2,0,-15,-2,-2,-1
1532116817917,0,3,-2,3,7,0,0,0
1532116817922,0,4,2,-3,-3,0,0,0
1532116817927,0,7,1,-6,-9,-14,-1,3
1532116817932,1,-5,-3,-2,-3,0,-1,-1
1532116817937,0,-10,-1,-2,-15,-1,0,-1
1532116817942,-2,-6,-2,3,8,3,2,0
1532116817947,-1,4,-1,2,-7,1,0,-2
1532116817952,0,12,-1,-3,-5,-18,-3,0
1532116817957,-1,4,-1,-2,1,-5,-1,-1
1532116817962,-1,-1,-1,-2,-2,-3,-4,-3
1532116817967,0,5,2,3,-1,5,0,-4
1532116817972,0,-4,-1,-5,-12,9,-3,-1
1532116817977,-1,7,1,3,2,9,1,1
1532116817982,1,2,1,-1,0,5,0,2
1532116817987,0,8,-1,-2,-2,2,0,0
1532116817992,-3,3,-3,-1,2,9,-2,-3
1532116817997,-3,-4,-1,-3,5,-4,-1,-3
1532116818002,-3,-4,-1,-1,2,3,-2,-1
1532116818007,0,-41,-2,1,0,-2,1,0
1532116818012,-2,-15,-1,-2,-1,-40,2,-3
1532116818017,2,-4,-3,3,-10,-18,7,4
1532116818022,2,4,2,-2,20,-17,-2,0
1532116818027,0,15,2,1,-6,-3,-4,-4
1532116818032,0,3,-2,-3,-7,11,-3,-4
1532116818037,0,2,-1,-3,19,10,-2,-2
1532116818042,-1,7,-2,-1,-15,-1,-3,0
1532116818047,-2,1,0,-3,5,12,0,1
1532116818052,-1,-1,-2,0,-7,8,-1,-1
1532116818057,-2,-1,-1,-3,-2,6,-1,1
1532116818062,0,-3,-2,-3,0,14,1,0
1532116818067,-2,-4,-1,-1,2,-3,-1,0
1532116818072,-2,1,-2,2,-2,8,0,-1
1532116818077,-1,-1,0,1,-3,0,-3,-2
1532116818082,-2,-3,1,2,-2,2,-2,-2
1532116818087,-1,-6,-5,-3,-6,-6,0,-3
1532116818092,0,-3,3,-1,6,-2,1,0
1532116818097,-1,-7,-3,1,-5,-4,-3,0
1532116818102,-1,-6,3,2,-4,-3,0,-1
1532116818107,0,-1,-1,1,0,-7,-1,0
1532116818112,-1,-2,-3,-1,-2,-2,-2,2
1532116818117,-3,-2,1,-1,-3,-4,-3,-3
1532116818122,-2,-4,-5,-3,-1,-4,0,-1
1532116818127,-1,0,-2,4,3,-2,0,1
1532116818132,-1,0,1,0,-3,-11,-2,-1
1532116818137,0,-3,0,0,-4,-5,0,-1
1532116818142,-2,0,-3,0,4,-1,0,-2
1532116818147,0,0,0,-1,-4,-9,0,-3
1532116818152,0,-1,-1,1,-4,-1,-1,-1
1532116818157,2,-2,-2,-1,-2,-1,2,-2
1532116818162,2,-1,0,0,2,-5,0,-2
1532116818167,1,-1,1,-1,-2,4,-1,-1
1532116818172,0,-2,4,3,1,4,4,0
1532116818177,-2,-1,-2,1,0,-3,-2,-2
1532116818182,-1,-3,-3,-4,-2,5,-4,-1
1532116818187,0,0,-2,-1,1,4,-2,-1
1532116818192,-2,2,0,-4,-4,-1,0,-1
1532116818197,0,2,1,1,-3,2,-1,1
1532116818202,-1,1,1,3,5,-3,1,-4
1532116818207,-2,2,-4,-6,0,1,-4,-1
1532116818212,-2,-1,-2,-1,-3,6,1,-1
1532116818217,-1,-1,-2,-2,3,2,0,-2
1532116818222,1,1,2,2,-5,-5,-1,-2
1532116818227,-1,-1,-3,3,-4,1,-3,-2
1532116818232,-1,0,-2,-6,4,1,-1,-1
1532116818237,-1,-2,-3,-1,-3,1,3,0
1532116818242,0,-1,-1,0,-3,2,1,1
1532116818247,-2,-1,3,-1,-1,-3,2,-1
1532116818252,-1,-2,0,2,-1,-1,0,-2
1532116818257,-1,2,-1,-3,-1,-2,0,-1
1532116818262,-2,-1,-2,-1,-3,-4,0,0
1532116818267,-1,1,1,1,3,-2,-2,1
1532116818272,-1,-1,-4,-1,2,4,0,0
1532116818277,-2,-1,1,-3,-13,-1,-1,-3
1532116818282,-2,-1,0,5,13,-2,0,0
1532116818287,1,0,1,-2,0,-2,0,1
1532116818292,-1,-1,-2,-1,3,-6,-2,-1
1532116818297,0,0,-1,-2,-3,-1,-1,0
1532116818302,-2,0,-3,-5,-12,-4,-1,0
1532116818307,0,-3,0,-3,1,-3,0,-1
1532116818312,2,2,1,3,1,1,1,1
1532116818317,1,-3,-3,-3,2,-1,-4,0
1532116818322,1,1,2,2,0,-2,-2,-1
1532116818327,-2,-2,-3,0,0,-1,-3,-3
1532116818332,-1,0,-2,-3,-3,1,-3,-4
1532116818337,-1,0,0,2,3,-3,-1,-2
1532116818342,1,-1,-1,-4,-5,-5,0,1
1532116818347,-2,1,0,4,3,0,1,1
1532116818352,0,0,1,2,5,2,1,1
1532116818357,-1,0,1,4,7,-4,-1,1
1532116818362,-2,-2,-3,-4,3,6,-1,-1
1532116818367,1,1,0,-3,-5,-2,4,-1
1532116818372,-2,1,2,-1,0,1,-1,0
1532116818377,-2,0,0,1,0,-6,-2,-1
1532116818382,0,-4,-1,-1,-2,-2,-2,-2
1532116818387,0,-4,-6,-4,-4,0,-4,0
1532116818392,0,-2,-1,0,-4,-1,-2,-2
1532116818397,-1,0,0,2,0,9,0,-2
1532116818402,0,-4,0,-3,-10,-9,0,0
1532116818407,-3,5,0,-3,-7,-4,-4,0
1532116818412,-2,-4,-4,-4,-2,0,-2,0
1532116818417,1,-1,1,-5,-8,-5,0,-1
1532116818422,-1,0,3,6,-4,0,3,0
1532116818427,0,-3,-3,0,-1,1,0,-2
1532116818432,-1,0,1,2,-2,-4,-1,0
1532116818437,-1,0,-3,-2,-18,-2,-3,1
1532116818442,-1,11,-2,-4,13,-1,-2,0
1532116818447,0,1,3,1,-8,-8,0,0
1532116818452,2,10,6,3,1,-2,1,-1
1532116818457,-5,-29,-15,-3,0,7,1,-2
1532116818462,0,2,0,-1,-1,1,-1,-2
1532116818467,-2,-9,-2,4,3,-2,-1,-2
1532116818472,1,16,2,-4,-7,-8,-4,1
1532116818477,0,9,5,0,3,-3,-2,0
1532116818482,-1,-9,-2,-1,-7,-2,0,1
1532116818487,-2,8,2,0,6,-5,0,-1
1532116818492,-2,-9,-3,-2,-2,-4,-3,-2
1532116818497,-1,4,-2,-2,0,-5,-2,-2
1532116818502,-4,-3,-4,0,0,0,-2,-1
1532116818507,2,3,0,0,-4,-3,1,-1
1532116818512,0,-6,-2,4,1,-5,0,-1
1532116818517,2,-6,1,-3,2,2,2,1
1532116818522,1,6,1,-2,-4,-6,-1,-1
1532116818527,-1,-3,-2,-2,0,-6,0,0
1532116818532,-2,-6,-4,-1,3,-2,-2,-1
1532116818537,2,7,2,1,1,-4,-1,0
1532116818542,-2,0,0,1,-3,1,2,-3
1532116818547,0,1,-1,-2,-17,3,2,-1
1532116818552,-1,-4,-4,-2,18,3,1,1
1532116818557,-1,-7,-3,-3,-8,-4,-3,0
1532116818562,1,1,1,-3,-1,2,-1,2
1532116818567,0,-8,-1,0,-2,1,-2,-2
1532116818572,1,6,5,4,-3,1,0,-1
1532116818577,-2,5,2,-2,-3,2,0,-1
1532116818582,-2,-6,-6,-5,-2,0,-2,1
1532116818587,-1,5,-2,-3,4,0,0,0
1532116818592,1,-2,1,1,-5,-1,-1,-2
1532116818597,-2,4,0,-4,-12,1,-1,-3
1532116818602,1,-2,-2,4,13,4,3,-2
1532116818607,1,0,2,-4,-22,0,-5,-2
1532116818612,-3,-5,-2,-8,10,-1,-1,-2
1532116818617,0,-3,-4,3,-6,0,0,-1
1532116818622,-2,1,-1,-3,-2,0,-1,-4
1532116818627,0,1,-1,1,5,0,1,1
1532116818632,-2,-8,-3,-1,-2,0,0,0
1532116818637,0,2,2,-2,10,1,-2,-2
1532116818642,2,28,8,-1,-7,-2,-1,0
1532116818647,-2,-29,-8,2,0,0,3,1
1532116818652,0,-19,-2,-1,-10,0,1,-1
1532116818657,-1,6,-2,-2,0,-2,1,-1
1532116818662,-1,0,-2,-1,13,-3,-3,-1
1532116818667,0,6,0,-3,-4,0,-2,-1
1532116818672,0,5,-2,1,1,2,0,1
1532116818677,1,-3,3,4,-3,-11,-1,2
1532116818682,-3,13,-6,-3,-13,2,-1,-4
1532116818687,-3,-19,0,0,2,1,-2,-1
1532116818692,-2,0,-7,-1,9,-1,2,-2
1532116818697,0,9,-1,-6,-22,-9,-3,-2
1532116818702,-3,-21,-4,-1,0,0,-2,0
1532116818707,-2,0,-3,2,10,0,-2,0
1532116818712,-1,-2,1,-2,-11,4,0,-1
1532116818717,-1,6,0,0,4,3,0,1
1532116818722,3,-4,0,-1,-1,-4,1,-1
1532116818727,0,0,-1,-5,-10,-5,-3,-2
1532116818732,-1,13,7,0,21,4,-3,0
1532116818737,0,-7,-6,1,-1,-2,-2,-1
1532116818742,-1,-9,1,-2,-3,3,1,-1
1532116818747,-2,5,1,-3,12,9,2,-1
1532116818752,-3,3,-1,4,-17,-4,-1,0
1532116818757,-2,-5,-1,-2,11,6,0,0
1532116818762,1,-7,2,2,-4,-3,-3,-1
1532116818767,0,10,-1,0,-6,-3,-1,0
1532116818772,-1,1,-2,-5,-8,-2,-3,0
1532116818777,-1,-6,-1,-1,4,0,0,-2
1532116818782,-2,0,-1,4,-11,-3,0,-1
1532116818787,0,5,4,-1,51,-8,-1,1
1532116818792,1,-2,-6,-4,-30,-1,-1,0
1532116818797,0,-1,0,0,-1,-2,1,-1
1532116818802,1,-2,1,0,-1,-3,-2,2
1532116818807,-2,-1,-1,-3,-2,3,0,-3
1532116818812,2,-2,0,3,7,-1,-2,0
1532116818817,-5,-5,-3,0,2,-3,0,-2
1532116818822,-1,-4,-3,-3,-8,-6,1,-1
1532116818827,-1,0,0,-1,-11,-2,0,0
1532116818832,-1,0,1,-1,0,-1,2,-2
1532116818837,-1,2,1,2,0,5,-2,0
1532116818842,1,-2,-1,-1,5,-1,-1,0
1532116818847,-1,-1,-3,0,-5,0,0,-2
1532116818852,-1,1,1,-4,-4,-4,-1,-2
1532116818857,0,-4,-4,-3,-1,-3,-2,0
1532116818862,-1,-3,-2,-4,5,-3,-1,-1
1532116818867,1,-2,2,1,-3,-5,-1,0
1532116818872,-1,-8,2,-2,-6,-4,1,0
1532116818877,2,-7,1,0,3,-5,-1,-1
1532116818882,-2,2,-2,-2,-7,1,-3,-2
1532116818887,-1,12,1,3,-5,0,-1,-2
1532116818892,-2,9,-2,-1,5,-1,-1,-1
1532116818897,-2,9,-2,2,-3,-7,0,0
1532116818902,0,2,-1,4,3,-3,-1,0
1532116818907,-1,-4,-2,-5,-4,0,-1,-1
1532116818912,1,-5,-1,-3,-2,2,-1,0
1532116818917,0,-5,2,2,2,4,2,-1
1532116818922,-2,-5,-3,-7,-4,-3,-1,-2
1532116818927,0,-6,-1,-4,-3,0,0,-2
1532116818932,-1,1,0,0,-1,1,-2,-1
1532116818937,-1,-1,1,2,4,2,-1,-3
1532116818942,-2,2,0,2,0,1,-1,-1
1532116818947,-3,-4,-5,-3,-4,2,1,0
1532116818952,-1,-2,-2,-2,-1,-2,1,0
1532116818957,1,6,5,-2,-11,-5,-2,1
1532116818962,0,-1,-1,0,5,3,0,1
1532116818967,0,-3,-3,-2,-8,-1,-4,0
1532116818972,1,14,-1,3,2,-6,-1,0
1532116818977,-1,-27,-2,-1,2,2,1,0
1532116818982,0,-4,1,-1,-3,3,0,-1
1532116818987,-2,2,2,3,3,3,2,1
1532116818992,0,-8,-3,1,-4,2,-3,0
1532116818997,0,16,0,-7,-2,-5,-2,-1
1532116819002,-1,0,-2,0,1,0,-2,-2
1532116819007,-1,-4,0,-1,-1,-2,-1,0
1532116819012,-1,0,0,0,-2,1,-2,-2
1532116819017,1,1,-3,-1,1,1,0,0
1532116819022,0,-9,-1,0,-2,-1,1,-2
1532116819027,0,3,-1,0,-3,1,-1,-3
1532116819032,0,-6,1,-1,-2,-3,-1,-2
1532116819037,-1,-2,0,0,2,-3,1,0
1532116819042,0,-5,-1,-3,-15,-2,0,-1
1532116819047,0,4,1,-2,10,-5,-1,1
1532116819052,-3,-6,-3,0,-2,1,0,0
1532116819057,-3,-4,-4,-1,4,-2,-2,0
1532116819062,-2,5,0,1,-2,-1,-2,0
1532116819067,0,-2,1,0,-2,-1,-1,0
1532116819072,0,-5,-4,-6,13,1,-3,-3
1532116819077,-1,0,-1,2,-16,1,-2,0
1532116819082,-1,1,-1,-4,1,0,-1,1
1532116819087,-2,-1,-1,0,-4,-1,0,-1
1532116819092,0,-2,0,0,3,0,1,-1
1532116819097,0,5,2,0,-3,-1,-2,-1
1532116819102,0,-3,-5,-4,2,0,-2,-1
1532116819107,-1,-2,-1,-1,-4,-1,0,-1
1532116819112,0,1,1,0,1,-3,1,0
1532116819117,-3,0,0,2,3,5,1,-2
1532116819122,-1,0,-2,-1,-6,-5,-2,1
1532116819127,0,0,-4,-4,-1,-3,-1,-1
1532116819132,-2,-2,1,1,-5,2,0,-1
1532116819137,2,0,-1,-2,3,2,-1,-1
1532116819142,0,0,3,3,3,-1,-1,1
1532116819147,0,1,-1,3,-7,0,-1,-1
1532116819152,-2,0,0,-1,0,-2,-1,1
1532116819157,1,1,-4,-3,3,2,-2,-1
1532116819162,-2,1,1,-1,-6,2,0,-5
1532116819167,-1,0,0,-3,-1,-1,-2,0
1532116819172,-1,0,-1,-2,-3,0,-2,0
1532116819177,-1,0,-1,2,3,-2,0,0
1532116819182,0,0,-1,0,-1,-5,-1,-3
1532116819187,1,-1,-1,1,-1,-2,2,2
1532116819192,-1,-4,-2,-2,-1,1,-1,-2
1532116819197,-2,-2,-1,-1,-3,-1,-2,-1
1532116819202,0,-1,0,0,2,-1,2,0
1532116819207,-2,-1,0,0,-5,-4,2,-2
1532116819212,0,1,1,4,-3,-8,-1,-2
1532116819217,-1,0,-3,-1,-2,-6,-2,-2
1532116819222,-4,-2,-2,-2,0,-1,-3,-1
1532116819227,-2,-1,1,0,2,-2,-3,0
1532116819232,-1,-1,2,-3,-6,-12,0,-1
1532116819237,1,-2,-2,0,0,-2,2,1
1532116819242,-2,-1,-3,-2,4,-3,2,1
1532116819247,-3,-3,0,3,-3,-5,-4,-5
1532116819252,-2,1,2,2,0,-3,-2,-3
1532116819257,-1,0,-1,-5,-2,-4,-1,-2
1532116819262,1,-1,0,1,1,-4,0,-1
1532116819267,-1,0,-1,-3,-3,-5,0,-1
1532116819272,-1,-3,-6,-2,-1,2,-1,-2
1532116819277,-1,-4,3,1,0,0,-2,-2
1532116819282,-1,0,1,-1,1,0,1,0
1532116819287,1,0,0,0,-3,0,-1,0
1532116819292,-1,0,-1,0,-4,-2,0,2
1532116819297,-2,2,0,-1,-1,-2,1,0
1532116819302,-2,-1,-2,-4,-1,1,-6,-1
1532116819307,0,-3,-1,-3,-2,4,-1,-4
1532116819312,1,1,-3,-3,-2,4,1,0
1532116819317,-1,2,-1,2,0,1,0,0
1532116819322,0,1,0,1,-1,-1,-1,0
1532116819327,0,1,1,-2,-1,-5,-2,0
1532116819332,-2,-1,-2,-3,1,-1,0,0
1532116819337,-2,-3,-2,1,-1,-2,2,-1
1532116819342,0,1,-3,-5,-3,0,4,5
1532116819347,0,-1,-3,1,-3,-6,-1,-2
1532116819352,-4,2,0,0,-1,-1,-6,-11
1532116819357,0,1,-1,-4,0,0,1,0
1532116819362,-2,-3,0,1,0,2,-2,-2
1532116819367,-1,-2,1,2,5,3,2,4
1532116819372,1,-1,-2,-1,-9,-3,-1,0
1532116819377,0,3,-1,-4,-4,1,-2,-2
1532116819382,0,0,1,0,-2,0,0,0
1532116819387,-1,-2,-1,0,-1,2,-2,1
1532116819392,-1,-2,-2,1,3,1,-2,0
1532116819397,-1,-3,-2,-2,-3,-2,-2,0
1532116819402,0,-1,-1,-1,-2,0,1,-1
1532116819407,-2,1,0,4,-2,-1,0,-1
1532116819412,-1,-2,1,1,1,0,2,0
1532116819417,-1,-3,-5,-6,-8,-4,0,0
1532116819422,1,0,-2,-2,1,-2,-2,-5
1532116819427,0,1,-2,-3,0,1,1,-1
1532116819432,1,-2,2,-1,0,6,-1,1
1532116819437,-1,1,3,2,3,4,-1,-1
1532116819442,-3,-2,-2,-2,-2,2,-2,-2
1532116819447,-1,-1,-1,-3,-1,-1,-2,0
1532116819452,-2,0,-5,2,-9,-4,-1,0
1532116819457,-1,-3,1,-5,1,2,-2,-3
1532116819462,-1,0,0,1,-3,1,-1,-1
1532116819467,1,-2,0,0,-2,1,1,0
1532116819472,-1,-2,-1,-2,1,1,0,-1
1532116819477,-3,0,-1,1,1,-2,0,-2
1532116819482,-2,0,-4,-2,1,-1,0,-1
1532116819487,-1,-2,-2,-1,-1,1,-2,-1
1532116819492,-1,-2,0,-3,-1,2,-1,0
1532116819497,-1,-1,-1,0,-1,1,-3,1
1532116819502,-1,-3,-3,-2,-3,-2,-1,1
1532116819507,-1,2,-1,-2,-1,1,0,-2
1532116819512,-1,0,-4,1,3,0,2,0
1532116819517,-1,-1,-4,-7,-3,2,-2,-2
1532116819522,-2,2,1,1,0,-3,-1,0
1532116819527,-1,-2,-1,0,0,-1,-2,-2
1532116819532,2,0,2,1,-3,-3,-1,-1
1532116819537,2,0,1,-1,-2,-2,0,-2
1532116819542,0,-1,0,-2,0,0,1,0
1532116819547,0,-1,-2,-2,1,3,-2,-1
1532116819552,-1,2,0,-3,-2,0,-3,-2
1532116819557,0,3,-1,3,0,3,1,-1
1532116819562,0,2,2,4,-4,-1,-2,-2
1532116819567,-1,-3,-1,-2,-1,1,0,-2
1532116819572,1,-2,-2,-3,-2,0,1,0
1532116819577,0,2,0,1,0,0,-2,0
1532116819582,0,0,-2,-2,-2,-5,1,-1
1532116819587,-1,-2,-1,-2,1,-5,-1,-1
1532116819592,-1,-4,0,-2,-2,-6,-2,0
1532116819597,-2,-2,0,-1,-4,-9,-4,-4
1532116819602,-1,-5,0,-1,-1,-4,-2,0
1532116819607,-1,-4,-2,-1,-3,-4,0,-3
1532116819612,-3,-3,-3,-3,10,-4,-1,-1
1532116819617,0,-3,-1,5,22,-2,1,1
1532116819622,0,0,-2,-12,2,-2,-1,0
1532116819627,0,1,1,0,2,-2,-3,-1
1532116819632,-3,0,-4,1,-3,-5,-2,-1
1532116819637,0,-4,-1,2,-9,-5,0,-1
1532116819642,-2,-1,-2,1,-4,1,-1,-1
1532116819647,0,4,1,0,-5,-4,-1,0
1532116819652,1,-2,-1,-1,-12,-5,2,1
1532116819657,-1,-1,-1,1,-7,-3,-1,0
1532116819662,-2,-2,-1,1,2,0,-3,-4
1532116819667,0,0,-1,-2,-3,0,0,-1
1532116819672,-1,0,0,0,1,0,-1,1
1532116819677,0,0,0,-4,-3,3,2,-1
1532116819682,-1,-2,-1,2,-4,-2,-1,-3
1532116819687,0,-1,0,0,-5,-18,0,1
1532116819692,0,1,-3,-2,-1,-9,-1,0
1532116819697,-1,0,-3,-2,-4,-8,1,2
1532116819702,-1,-3,1,0,0,-4,-3,-2
1532116819707,-3,-4,0,0,0,-89,-1,-3
1532116819712,0,-2,3,1,-2,15,-1,-2
1532116819717,-1,-2,0,0,-2,36,2,0
1532116819722,1,-1,-2,2,0,57,2,-1
1532116819727,-1,1,-1,-3,-4,50,-2,-2
1532116819732,-1,0,-2,-5,-2,17,0,-1
1532116819737,-3,2,0,1,-3,12,-4,-2
1532116819742,1,0,-2,-2,-1,1,-1,1
1532116819747,0,-1,2,4,0,12,1,-1
1532116819752,0,0,-1,-2,1,-4,1,-1
1532116819757,0,-1,-1,-2,-2,0,-3,-1
1532116819762,-3,1,-2,0,0,-18,-2,-2
1532116819767,-1,-2,-4,-2,-2,7,-2,-1
1532116819772,0,1,3,5,-1,3,-1,-1
1532116819777,0,0,-2,0,-1,-16,-1,-3
1532116819782,-2,0,-2,-3,-3,-16,0,0
1532116819787,-1,-1,1,-2,0,9,-2,-2
1532116819792,0,-1,-2,-1,-4,2,-3,2
1532116819797,1,-2,3,0,-1,-9,1,2
1532116819802,-1,-1,0,3,2,-8,-2,-3
1532116819807,-1,0,-2,-4,-2,12,3,0
1532116819812,1,1,-1,0,0,-9,2,0
1532116819817,1,-1,-1,-1,-2,-16,0,-2
1532116819822,-1,0,1,2,-2,0,-3,-1
1532116819827,-1,-2,-2,-1,1,3,-1,-1
1532116819832,-3,-2,-1,-1,0,-5,0,-2
1532116819837,-1,0,1,0,-2,5,2,1
1532116819842,0,1,2,3,-2,1,2,2
1532116819847,1,0,-2,0,-3,0,-2,-1
1532116819852,-1,-3,-4,-3,1,0,-1,-3
1532116819857,1,-1,-3,-3,0,-1,-3,-3
1532116819862,0,-2,0,1,-1,-6,-1,0
1532116819867,1,1,1,-1,-1,-1,0,0
1532116819872,0,0,-2,0,0,1,1,-1
1532116819877,-2,-2,-2,-2,0,1,1,-2
1532116819882,0,-1,1,-2,1,-4,0,-2
1532116819887,-1,1,-3,-4,-2,3,0,0
1532116819892,0,-1,2,1,2,-2,-2,-1
1532116819897,-1,-1,-1,-1,-2,-3,0,1
1532116819902,-1,0,-1,0,0,0,0,-3
1532116819907,-1,0,-1,-4,-1,1,-3,-2
1532116819912,-1,-2,2,3,2,1,2,-2
1532116819917,0,-3,-4,-6,-3,-2,-1,0
1532116819922,0,-1,0,-3,-1,1,-1,0
1532116819927,-2,-1,0,2,-1,0,1,1
1532116819932,-1,-1,0,2,-2,0,-1,-2
1532116819937,-2,-1,0,1,0,-4,-1,-1
1532116819942,1,0,-1,-3,-4,0,-1,0
1532116819947,-1,-4,-3,-1,-2,0,-1,-4
1532116819952,-1,0,-1,-1,-1,-5,-2,-2
1532116819957,-3,1,-2,-4,-4,5,-1,0
1532116819962,-2,-1,1,0,0,-6,0,-1
1532116819967,0,0,-1,3,2,-2,-1,1
1532116819972,0,1,-1,-6,-1,-7,2,0
1532116819977,-1,-1,2,2,-17,-8,1,2
1532116819982,-3,-4,-3,3,20,-5,-5,-7
1532116819987,-3,-6,-2,-4,-7,-2,-1,0
1532116819992,-2,0,0,0,1,-4,-1,1
1532116819997,-1,-2,-2,-1,-11,-8,-1,-1
1532116820002,2,-1,-1,0,7,-4,3,4
1532116820007,0,1,-2,2,-2,-4,0,0
1532116820012,-1,-1,-2,-2,2,-8,-3,-2
1532116820017,-1,-1,0,-2,3,-4,-1,-3
1532116820022,0,0,-1,-2,-9,-2,1,2
1532116820027,1,1,2,2,10,-1,0,-1
1532116820032,-4,-2,-2,-5,-10,0,-2,-5
1532116820037,0,-1,-2,-1,2,1,-1,-2
1532116820042,-1,0,-1,2,-5,2,-1,-2
1532116820047,1,0,0,1,-5,1,3,2
1532116820052,1,0,2,-1,-2,1,-4,1
1532116820057,2,-2,1,-5,1,1,2,1
1532116820062,0,0,1,5,5,2,0,-2
1532116820067,0,-1,-2,-10,-5,-1,-1,1
1532116820072,-2,2,0,-3,-5,-3,1,-2
1532116820077,0,-2,-2,-3,-2,3,-4,-2
1532116820082,0,-1,-2,-1,1,0,2,0
1532116820087,-1,-2,-1,6,-1,-1,2,-1
1532116820092,0,1,-2,0,0,3,2,1
1532116820097,-2,-1,-2,-3,0,-3,-1,-3
1532116820102,-2,1,0,0,-1,-5,-1,0
1532116820107,-1,-1,-2,0,1,5,-1,-2
1532116820112,-2,-2,-1,-2,-1,-2,-3,1
1532116820117,-1,-1,-1,1,1,1,0,-2
1532116820122,-2,1,-3,-7,-7,4,-2,0
1532116820127,-2,-1,2,1,4,2,-3,-3
1532116820132,1,-2,-1,-5,-4,0,3,5
1532116820137,0,1,3,6,0,-1,-1,0
1532116820142,-1,-2,-4,-3,-4,-5,-2,-2
1532116820147,0,1,-4,-3,2,-6,1,0
1532116820152,-3,1,3,2,-2,0,-2,-1
1532116820157,-4,-1,-2,-1,1,0,0,-2
1532116820162,-1,0,-2,-5,0,2,1,1
1532116820167,0,0,0,-2,0,-1,-3,-2
1532116820172,2,-3,-3,1,-1,-1,0,-1
1532116820177,1,0,1,3,-2,-2,-1,-1
1532116820182,0,-2,-1,1,1,1,-1,1
1532116820187,1,-1,1,1,-1,-4,-2,0
1532116820192,-2,-1,-3,-4,1,-4,-1,-3
1532116820197,-1,1,-1,-5,-2,0,1,-1
1532116820202,1,-1,1,0,-2,-1,1,2
1532116820207,-2,1,-1,-1,-1,1,1,1
1532116820212,-2,-1,1,3,-2,-1,-3,-2
1532116820217,-3,0,-1,-3,0,2,-1,-3
1532116820222,0,-1,-2,1,0,2,0,-2
1532116820227,0,0,2,-7,-4,0,-1,0
1532116820232,1,1,-1,1,0,0,1,-1
1532116820237,0,-3,-3,0,0,-1,-2,0
1532116820242,-1,-2,-1,-1,-1,4,-3,-1
1532116820247,-2,0,2,5,-1,2,0,-1
1532116820252,-1,-1,-1,-6,-1,0,-2,-2
1532116820257,-1,-4,0,-2,-3,-3,-3,-2
1532116820262,-2,-2,-2,-5,-1,0,1,-1
1532116820267,1,0,0,4,-1,1,0,2
1532116820272,-1,-1,-2,2,1,5,1,0
1532116820277,-1,0,-3,-2,1,1,0,-3
1532116820282,0,-1,1,-3,-3,-1,-1,-2
1532116820287,-1,-2,-3,-2,1,2,-1,-2
1532116820292,0,0,1,0,-1,-1,-1,-1
1532116820297,-2,0,-1,-1,-2,-4,-1,-1
1532116820302,-1,1,-3,-2,-4,0,0,-1
1532116820307,-1,2,3,2,-1,-4,-1,-2
1532116820312,-1,0,-1,2,-1,0,-2,0
1532116820317,-1,-1,-2,-2,-1,-3,-3,-1
1532116820322,0,0,1,2,0,-7,-1,0
1532116820327,-1,0,1,0,-2,-3,-1,-1
1532116820332,1,-1,-1,0,0,-6,1,2
1532116820337,-4,-3,-1,1,-4,-1,0,-1
1532116820342,0,-1,-2,-4,-1,5,1,0
1532116820347,2,-1,1,2,4,-1,3,2
1532116820352,1,0,-1,0,-1,-2,1,-3
1532116820357,-1,0,-1,-2,2,-2,-2,-1
1532116820362,-3,-2,-4,-3,-3,1,1,-2
1532116820367,-2,-2,-2,-6,-2,0,0,0
1532116820372,0,0,2,0,1,1,-2,1
1532116820377,0,0,0,-1,-2,0,1,0
1532116820382,-2,-2,0,-1,-1,-3,0,-1
1532116820387,0,0,-3,0,0,0,-1,1
1532116820392,-1,-1,1,4,0,3,-1,0
1532116820397,-1,0,-1,-1,-1,0,0,0
1532116820402,-1,0,-1,0,-2,-1,-1,1
1532116820407,-2,-1,-2,-4,-1,1,-1,-1
1532116820412,-1,-2,-4,-2,-3,0,-3,-2
1532116820417,-1,-16,0,-2,2,-1,2,1
1532116820422,0,-4,0,0,-3,0,1,-1
1532116820427,-2,1,1,-1,-1,-3,-2,1
1532116820432,-3,3,-3,2,2,3,-2,-4
1532116820437,0,7,1,-4,-5,3,0,1
1532116820442,1,4,0,0,0,1,-1,1
1532116820447,0,2,-2,-3,0,4,1,-2
1532116820452,-2,-4,-4,-4,1,4,1,-2
1532116820457,-2,3,1,0,1,0,1,0
1532116820462,1,1,-1,0,-2,-4,-1,0
1532116820467,-1,1,2,-1,-3,1,-4,-1
1532116820472,-1,-1,2,-1,-2,0,-1,-1
1532116820477,-2,-1,-2,0,0,-3,0,-5
1532116820482,-1,5,0,0,2,3,1,1
1532116820487,-1,5,0,2,2,-3,-2,-1
1532116820492,-1,1,-2,-2,0,-1,2,0
1532116820497,1,-3,0,-1,-2,2,-2,0
1532116820502,-2,-5,0,-1,0,-2,-2,-5
1532116820507,-2,-8,-3,1,-1,0,-3,-1
1532116820512,0,-1,1,0,0,1,0,1
1532116820517,1,4,-2,0,-4,-8,-3,-1
1532116820522,0,-7,-2,-1,-2,-4,2,-1
1532116820527,-2,3,0,-2,-1,4,2,-2
1532116820532,-1,0,0,-2,0,-3,1,-1
1532116820537,0,-1,-2,-2,-3,-1,0,-1
1532116820542,0,1,1,2,3,1,-4,0
1532116820547,-1,-5,-2,0,-4,-2,1,-2
1532116820552,-1,2,0,-5,-5,-4,-3,1
1532116820557,1,1,-2,1,-10,-1,-2,1
1532116820562,-1,0,-1,-7,-1,1,-5,-4
1532116820567,-1,-2,-1,1,5,-1,0,-2
1532116820572,1,0,6,4,4,0,3,1
1532116820577,-1,-4,-3,0,-5,2,-1,-1
1532116820582,2,-2,-3,-2,2,2,-1,-1
1532116820587,0,1,4,0,-4,-7,-1,-2
1532116820592,-1,4,-1,-3,-3,0,1,-1
1532116820597,-1,8,-1,-2,3,4,2,2
1532116820602,-1,-1,0,2,-3,3,-1,-1
1532116820607,-1,-1,-1,-4,-3,1,0,-2
1532116820612,-2,-5,-3,-4,-2,1,1,-2
1532116820617,-1,-1,0,0,0,-4,0,0
1532116820622,-1,18,-1,3,-2,-1,-1,-1
1532116820627,0,-3,-2,-2,-1,-1,0,1
1532116820632,-1,-6,0,1,-1,-3,-2,-2
1532116820637,0,-7,-2,-1,5,1,-1,-1
1532116820642,-2,-13,0,-5,-4,-1,0,0
1532116820647,1,-8,-1,2,0,-3,-1,-1
1532116820652,-1,-7,-3,3,-1,-1,-2,-1
1532116820657,-1,-7,-1,-2,-2,-4,0,-2
1532116820662,-1,-2,-2,-2,-2,-4,0,-1
1532116820667,1,5,3,-2,-3,-1,-1,2
1532116820672,0,-3,-2,5,-7,-6,0,-1
1532116820677,1,2,-3,-2,2,-5,-4,-4
1532116820682,-2,2,1,1,1,-2,-2,-1
1532116820687,-1,2,-3,-7,-8,-4,1,1
1532116820692,2,1,-1,1,-2,-5,-1,-2
1532116820697,-1,-5,-2,0,2,-2,1,0
1532116820702,-2,-6,-3,-3,-1,1,2,-2
1532116820707,-1,-5,-2,-5,-9,0,-2,-2
1532116820712,0,-1,0,-1,-1,2,1,3
1532116820717,1,2,3,0,-2,-1,0,-2
1532116820722,-3,-5,3,2,5,-5,0,-1
1532116820727,-1,0,-1,-3,-3,-5,0,-2
1532116820732,-2,0,-5,-5,-2,2,-3,0
1532116820737,0,3,0,5,4,2,-1,-3
1532116820742,0,1,-1,1,-2,2,-2,-2
1532116820747,0,-2,-3,-1,-2,-1,-1,-3
1532116820752,-2,0,-2,-1,1,-4,0,-1
1532116820757,0,-1,-2,2,3,4,1,1
1532116820762,0,-1,1,-2,-2,-1,-2,1
1532116820767,2,0,0,5,4,4,-1,1
1532116820772,1,-1,0,-2,2,2,-2,-1
1532116820777,-2,1,-2,-2,-2,2,-1,-2
1532116820782,-2,-2,0,-1,-8,-6,0,-2
1532116820787,-1,-1,1,0,0,-1,0,-3
1532116820792,-4,1,1,1,0,-2,-2,0
1532116820797,-1,-2,-4,-7,-1,-3,0,-1
1532116820802,0,1,-2,-2,-1,-40,1,0
1532116820807,0,0,1,3,2,-29,0,0
1532116820812,-1,-1,-1,-4,0,14,-1,2
1532116820817,-3,-1,0,-4,-7,25,-4,-2
1532116820822,0,1,-3,-1,0,50,0,-2
1532116820827,0,1,-1,3,-2,29,-2,1
1532116820832,2,0,0,-2,-3,7,0,-1
1532116820837,-1,-1,-2,3,-4,19,-1,1
1532116820842,0,1,3,0,-2,6,2,-1
1532116820847,-1,-1,1,-1,2,1,-1,0
1532116820852,-1,-2,-2,-4,-3,-2,-3,-2
1532116820857,1,-2,-1,-1,0,-9,-3,1
1532116820862,0,-1,-3,-1,1,-5,0,-1
1532116820867,-2,-1,-1,1,1,-1,-1,0
1532116820872,0,-1,1,-2,-2,-6,2,-1
1532116820877,-3,-3,-3,-3,-2,-13,0,-1
1532116820882,-3,-2,1,1,-2,-1,-3,-3
1532116820887,0,-4,-2,-1,0,11,-1,-2
1532116820892,-2,-1,0,-1,1,3,-2,-1
1532116820897,-1,-1,0,-1,-1,-4,0,0
1532116820902,-1,-4,-2,-1,0,0,0,0
1532116820907,2,1,1,4,-2,0,1,0
1532116820912,0,3,-2,-3,-2,-18,1,1
1532116820917,-1,1,-2,-6,-8,-10,-1,-1
1532116820922,-2,-1,-1,0,1,-2,0,1
1532116820927,0,1,-1,0,-1,6,0,1
1532116820932,1,0,0,2,-1,2,-2,-1
1532116820937,-1,0,-1,0,0,4,-1,0
1532116820942,-1,-2,-1,-2,-2,4,-1,0
1532116820947,-2,-5,-3,-1,-2,2,-1,-1
1532116820952,-1,-3,-2,2,-2,3,0,-2
1532116820957,-1,-1,-1,-3,-2,0,0,-1
1532116820962,0,0,1,-1,-3,-2,-2,-2
1532116820967,-1,-3,-2,0,1,-4,-4,-1
1532116820972,-1,2,-2,1,-1,-2,-2,-3
1532116820977,0,-3,-3,-4,-2,1,-1,-1
1532116820982,1,3,0,-2,-2,-1,-3,2
1532116820987,0,5,1,-1,-1,-4,0,-1
1532116820992,-3,-3,-3,-1,0,2,0,-3
1532116820997,-3,1,0,1,2,-5,3,-3
1532116821002,-2,-1,-4,-3,0,0,-1,-1
1532116821007,-1,1,-4,-2,-2,1,-2,1
1532116821012,-2,-1,0,-2,-3,1,0,0
1532116821017,0,2,0,-1,-1,-3,-3,-2
1532116821022,1,-2,0,0,-2,2,-1,-3
1532116821027,-3,0,-3,0,-1,-3,-1,-2
1532116821032,-2,-1,-1,3,0,-2,0,-1
1532116821037,0,0,2,-3,-2,-1,0,-2
1532116821042,-1,-1,1,0,-1,-2,1,-1
1532116821047,-1,-2,3,0,-3,-1,0,-1
1532116821052,-1,0,-1,0,-1,-2,-2,-2
1532116821057,0,3,-3,2,1,-6,0,-2
1532116821062,-1,1,-1,1,-2,1,-3,-1
1532116821067,0,-1,1,-4,-2,-4,1,-2
1532116821072,-1,-3,-3,-3,-3,-3,0,-1
1532116821077,-1,-1,-2,2,2,1,-3,-2
1532116821082,-2,-2,-2,-1,-2,0,0,-1
1532116821087,-1,0,1,-1,2,-3,-3,-1
1532116821092,1,3,1,-2,-1,2,-2,0
1532116821097,0,-1,1,1,-2,-3,-1,2
1532116821102,-1,-2,-4,-2,-1,-3,-2,1
1532116821107,-1,0,-1,0,-1,0,0,-1
1532116821112,-2,-1,-1,0,-2,-3,-1,-1
1532116821117,1,-2,1,0,-1,-1,-1,0
1532116821122,1,1,-1,0,-3,-7,-1,-1
1532116821127,0,-1,-1,-1,-5,-3,-2,-3
1532116821132,0,1,-1,-2,-2,1,0,-2
1532116821137,0,-1,1,-1,0,8,0,2
1532116821142,0,1,-1,1,-1,0,-1,0
1532116821147,-1,-3,-3,-1,-1,1,-2,0
1532116821152,-1,0,-1,-1,-1,4,0,-1
1532116821157,0,1,3,1,-3,-3,-1,-1
1532116821162,-1,-1,-3,-4,1,3,0,0
1532116821167,-2,-2,0,-1,2,5,0,-2
1532116821172,-1,-2,-1,3,-12,-11,-3,-2
1532116821177,-2,5,-3,-1,3,2,1,-1
1532116821182,-2,-6,0,-4,-1,-5,-2,-1
1532116821187,-1,0,-1,1,2,6,-1,-2
1532116821192,0,-1,-1,-2,2,4,0,0
1532116821197,1,-1,0,-2,-3,-5,-1,1
1532116821202,-1,-2,0,-3,1,3,1,-2
1532116821207,-1,-1,0,-1,-5,-7,0,1
1532116821212,0,0,-1,3,1,-1,0,-2
1532116821217,-1,2,1,-1,-2,-3,-1,-1
1532116821222,-1,0,0,0,5,5,1,-1
1532116821227,-2,-3,-3,-2,-7,-12,-3,-1
1532116821232,-1,-2,-2,-5,-12,-4,-5,1
1532116821237,-4,-3,-1,-2,-5,5,-1,-2
1532116821242,-1,-2,0,-1,2,-4,-1,-1
1532116821247,-1,0,1,1,-2,5,0,-2
1532116821252,1,1,-1,-1,11,2,1,0
1532116821257,0,-3,0,1,-15,-6,-2,0
1532116821262,-1,-3,-1,-3,-4,-2,-1,-1
1532116821267,2,-2,-3,-3,3,2,-1,-1
1532116821272,0,2,0,-1,-5,-5,-2,-1
1532116821277,0,1,-1,0,22,3,-1,0
1532116821282,0,3,-1,3,-14,-5,-1,1
1532116821287,-1,1,-1,-1,3,-6,-1,-1
1532116821292,1,2,2,-2,1,8,1,-2
1532116821297,-2,-4,-3,3,-1,-1,0,-1
1532116821302,-1,-2,-3,-7,3,-1,0,-2
1532116821307,1,2,-1,-4,-4,-5,-2,-1
1532116821312,-2,-1,1,0,-3,-2,4,0
1532116821317,-1,0,0,1,1,-3,33,0
1532116821322,0,0,2,3,-3,-3,6,2
1532116821327,-2,0,-1,-4,5,5,4,-1
1532116821332,-1,-1,-1,-2,-3,0,-14,-1
1532116821337,0,-3,-5,-7,-6,1,-14,1
1532116821342,-1,0,1,5,3,9,-8,-2
1532116821347,0,0,0,-2,0,10,-9,1
1532116821352,-2,-2,1,3,4,-6,-5,-2
1532116821357,-1,-3,-4,2,-3,-2,-7,-3
1532116821362,0,1,-1,-1,-1,-8,-1,-1
1532116821367,0,0,0,-3,-2,-15,-3,1
1532116821372,-1,-1,1,-2,-2,-2,0,-1
1532116821377,-4,-1,-2,-3,2,-8,-4,-2
1532116821382,-3,-1,-1,0,-5,-18,-3,-3
1532116821387,-2,0,0,0,-8,0,2,-1
1532116821392,-1,-1,-3,0,3,1,3,-1
1532116821397,0,-2,2,-9,-5,1,-1,1
1532116821402,0,0,0,0,0,6,2,1
1532116821407,0,-4,-1,1,-1,-5,2,-2
1532116821412,-1,-1,-2,-2,0,-6,3,-1
1532116821417,-2,-2,2,1,-4,-5,-6,-2
1532116821422,1,0,-1,-1,-1,-3,0,-1
1532116821427,-1,0,0,1,-1,-9,-1,0
1532116821432,0,0,0,1,1,-2,0,0
1532116821437,0,-1,-2,-1,-1,-4,-1,-2
1532116821442,-2,-3,-3,-6,-4,-5,0,0
1532116821447,-2,2,-3,2,1,6,1,-4
1532116821452,-2,-3,-2,2,1,2,-2,-2
1532116821457,1,1,1,-6,-8,-8,-6,0
1532116821462,-3,-1,3,3,-1,5,-1,-1
1532116821467,-2,-3,0,-1,-2,4,-3,0
1532116821472,-1,0,-2,-1,2,1,-2,-2
1532116821477,-2,-4,-4,-6,1,7,-2,-3
1532116821482,0,2,1,-4,-3,-4,2,1
1532116821487,-1,0,2,0,-3,-6,1,-1
1532116821492,-2,-2,0,-1,-1,5,1,1
1532116821497,0,0,1,4,5,4,2,-1
1532116821502,1,-3,-2,-1,-2,-4,-2,1
1532116821507,0,2,-2,1,-1,2,2,0
1532116821512,0,0,1,-2,-2,-1,3,1
1532116821517,-2,0,-3,-2,-1,0,1,0
1532116821522,-2,1,-2,-1,0,4,1,0
1532116821527,0,-2,0,-1,0,-1,0,-1
1532116821532,-3,-3,-6,-10,-8,-4,-3,-3
1532116821537,0,0,1,3,-4,0,0,0
1532116821542,0,1,0,-1,0,-1,-1,-2
1532116821547,0,-1,-1,1,1,5,2,1
1532116821552,-1,-3,-1,-2,1,1,-3,-1
1532116821557,1,-2,-2,-4,0,-2,-2,-3
1532116821562,0,0,0,4,-4,-4,-1,1
1532116821567,0,1,-1,-2,2,3,-1,-1
1532116821572,0,-1,-1,-2,-2,-1,2,1
1532116821577,-1,-1,2,1,2,1,-1,0
1532116821582,-2,-1,0,0,2,0,-1,-1
1532116821587,0,-2,2,0,-4,1,-3,-3
1532116821592,1,-1,-1,4,0,-1,0,0
1532116821597,-3,-1,-3,-6,-5,4,-4,0
1532116821602,1,0,-1,1,3,-1,0,0
1532116821607,-2,1,1,0,-3,-3,-2,-2
1532116821612,0,1,0,0,-1,-3,-2,-2
1532116821617,-1,0,-1,4,1,-3,0,-1
1532116821622,-1,-1,-4,-2,0,1,1,-3
1532116821627,0,-1,-1,0,-3,-1,-1,0
1532116821632,0,0,1,2,-1,0,0,-1
1532116821637,0,0,0,1,-1,-6,-3,0
1532116821642,0,-1,1,-2,2,6,-1,-1
1532116821647,1,-1,-1,-4,-4,-5,-1,1
1532116821652,-4,-4,-3,-4,-2,-1,-2,-3
1532116821657,-1,0,0,1,-1,-1,3,0
1532116821662,0,0,-2,-1,-2,-4,0,-1
1532116821667,-2,0,0,1,3,0,-2,-4
1532116821672,2,-3,-1,-2,2,7,0,0
1532116821677,-2,0,0,0,-3,-4,1,-1
1532116821682,-1,1,0,0,-2,-2,-2,1
1532116821687,1,-1,0,-4,-1,2,1,0
1532116821692,0,1,-1,1,-2,-5,0,-1
1532116821697,1,0,-1,3,1,3,-2,-2
1532116821702,-1,0,-2,-3,-8,-8,-3,0
1532116821707,-2,-1,0,0,0,-4,-1,-1
1532116821712,0,0,-3,-5,-19,-3,1,0
1532116821717,2,-1,-1,0,14,8,-2,1
1532116821722,-6,1,-1,0,-8,5,3,0
1532116821727,-2,-3,-3,0,-3,-1,1,-3
1532116821732,-4,-2,3,0,0,2,0,-1
1532116821737,1,1,-2,-7,-9,-9,-2,-1
1532116821742,5,1,-2,0,2,-1,-3,-2
1532116821747,0,-4,0,1,4,8,3,1
1532116821752,1,4,3,2,3,-2,-2,-2
1532116821757,0,-4,-2,-4,-6,-2,-1,-1
1532116821762,-5,-8,-3,-1,2,-4,-2,-4
1532116821767,-1,2,-4,-3,-8,-9,-2,-1
1532116821772,9,6,0,2,8,-1,0,2
1532116821777,14,-2,0,-2,-13,-15,-2,0
1532116821782,-34,-11,-2,1,0,1,1,-1
1532116821787,-2,-1,-3,1,2,-8,-2,0
1532116821792,-9,-4,-1,-1,-2,-5,-1,1
1532116821797,2,4,2,4,5,-4,1,0
1532116821802,11,3,-1,-5,-3,-1,3,0
1532116821807,-2,-3,-1,-1,0,0,2,3
1532116821812,2,2,-3,-3,-2,-13,-5,-4
1532116821817,-6,1,0,0,-3,-3,-4,-6
1532116821822,3,-2,-1,0,0,-6,-3,1
1532116821827,-3,2,-1,-1,4,2,2,0
1532116821832,2,0,-1,0,-1,-2,3,4
1532116821837,-4,-3,2,3,0,4,2,-1
1532116821842,0,-1,2,-1,-3,3,-2,-1
1532116821847,4,-1,-3,-4,-5,-1,-3,0
1532116821852,-1,-4,-1,-2,-1,3,-3,0
1532116821857,-3,-1,-2,0,2,5,3,2
1532116821862,4,4,-4,-3,-4,-4,-1,-2
1532116821867,-1,3,0,-4,2,0,-3,-2
1532116821872,-3,-4,1,1,0,-1,0,1
1532116821877,-4,-3,0,0,-3,0,-5,-2
1532116821882,2,-2,-5,-4,1,6,-3,-5
1532116821887,0,3,0,8,2,-2,3,1
1532116821892,-2,3,2,-3,-2,-1,-1,-3
1532116821897,2,-1,-3,-2,-5,-6,-2,4
1532116821902,1,0,1,2,-1,-2,-1,-2
1532116821907,-2,-3,-1,-3,3,7,-1,-5
1532116821912,0,-4,0,1,-6,-2,0,0
1532116821917,-1,1,-1,-1,4,2,-1,0
1532116821922,3,1,2,-1,-1,1,-1,0
1532116821927,2,-1,1,1,7,2,-1,-3
1532116821932,1,-1,-1,-1,-6,-2,-1,2
1532116821937,-2,2,-4,-4,-4,-3,0,0
1532116821942,-1,1,0,0,0,-9,4,4
1532116821947,-3,0,-1,0,-5,-13,-4,-2
1532116821952,-3,-4,0,2,-2,-10,-3,-5
1532116821957,-2,-1,3,2,17,-6,1,-1
1532116821962,4,1,-1,8,-4,10,2,1
1532116821967,-2,-7,-7,-8,-4,10,-1,-2
1532116821972,-1,-2,0,2,7,12,-5,-8
1532116821977,0,-2,-2,-2,-9,6,5,1
1532116821982,2,1,2,7,8,-1,0,2
1532116821987,-1,1,-3,-10,-9,-3,-2,2
1532116821992,-4,0,-4,-2,-2,1,-5,-5
1532116821997,-2,-3,-1,0,-6,1,-4,-5
1532116822002,-1,0,1,0,4,3,2,-1
1532116822007,0,3,2,2,-6,-4,0,4
1532116822012,1,2,-1,-2,3,4,2,3
1532116822017,-5,-3,-2,-3,-5,-1,-3,-4
1532116822022,-2,-4,-2,-2,-4,-3,0,-2
1532116822027,-2,-4,-2,3,3,0,-2,-3
1532116822032,2,0,-1,-8,-1,-4,3,2
1532116822037,0,1,-2,-1,-1,1,1,2
1532116822042,0,2,-1,-3,-4,1,-2,-4
1532116822047,0,1,1,-1,8,2,-2,-4
1532116822052,2,-1,1,4,-31,10,1,4
1532116822057,1,-1,-2,-1,17,4,-3,2
1532116822062,-5,1,-1,-6,-8,3,-5,-8
1532116822067,-2,-1,3,2,-2,0,2,-1
1532116822072,-3,-4,-4,4,5,-3,-1,-3
1532116822077,-1,0,-3,-2,-7,-9,-2,-4
1532116822082,1,-2,0,4,-2,-1,0,3
1532116822087,0,0,0,-4,3,-1,2,1
1532116822092,-1,1,-2,-5,-1,0,-3,-2
1532116822097,-1,-1,-1,0,-5,-1,1,3
1532116822102,1,1,-1,-2,9,-1,-3,-3
1532116822107,-2,-2,1,1,-9,-1,-2,-2
1532116822112,-2,0,-3,0,7,-3,0,0
1532116822117,-1,1,-1,-1,-7,4,1,-2
1532116822122,-3,-1,0,-1,-6,-7,1,-1
1532116822127,0,2,-1,-1,-3,-7,-1,-2
1532116822132,0,0,-2,-2,2,-10,-1,-1
1532116822137,0,-1,-4,-3,-3,-2,0,0
1532116822142,-2,-8,-3,-2,-5,-10,-1,0
1532116822147,0,2,3,-5,-1,-7,2,1
1532116822152,-1,-1,-2,0,-5,-24,-4,1
1532116822157,0,-1,-2,-1,-3,-8,0,-1
1532116822162,-1,1,0,0,2,-2,0,0
1532116822167,-1,-1,0,1,2,12,0,-1
1532116822172,1,3,1,-3,-4,6,1,0
1532116822177,-2,-1,-2,2,0,-1,-2,1
1532116822182,0,2,-2,0,1,1,1,0
1532116822187,-2,-2,0,2,1,-2,-2,-4
1532116822192,-1,-1,1,1,1,3,-2,0
1532116822197,-1,-1,1,0,-2,-11,-1,-1
1532116822202,-2,-2,-4,-5,-1,2,0,-1
1532116822207,-1,0,0,2,-4,4,0,0
1532116822212,0,2,2,3,2,0,-2,-3
1532116822217,-1,-3,-3,0,-4,3,1,-2
1532116822222,-1,0,-1,-2,-1,5,2,1
1532116822227,1,1,-1,-2,0,0,0,0
1532116822232,-1,0,-2,-3,-2,-8,-2,0
1532116822237,-1,-4,1,0,-1,0,0,2
1532116822242,-2,-2,-2,-2,1,6,0,1
1532116822247,-3,-2,0,3,-1,1,-2,-5
1532116822252,0,0,-1,-1,0,2,1,0
1532116822257,-1,0,0,-3,-3,0,-1,-2
1532116822262,0,1,0,-2,-1,0,-3,-1
1532116822267,0,2,1,-2,1,0,1,3
1532116822272,-2,-4,2,4,-1,0,-2,-2
1532116822277,-3,-2,-3,-3,0,-2,-1,1
1532116822282,0,-1,-1,-2,-1,2,-2,-3
1532116822287,-1,-3,-1,-2,-2,3,-3,-3
1532116822292,0,-3,-1,2,3,-4,-1,0
1532116822297,-1,-1,2,1,1,2,-1,-1
1532116822302,-1,-1,-1,-3,-1,-4,-4,-2
1532116822307,-2,-3,-3,-10,-4,-2,-1,-1
1532116822312,-1,-1,-1,0,-1,4,1,1
1532116822317,0,3,-2,0,-2,-2,3,2
1532116822322,-2,1,0,1,1,-6,2,-3
1532116822327,0,-1,2,-2,0,4,1,4
1532116822332,-1,-2,-1,0,0,1,-4,-2
1532116822337,-3,-1,2,-3,0,2,-5,-5
1532116822342,-1,-1,-1,2,-5,0,0,-1
1532116822347,-1,-1,-2,-2,-1,-7,2,-1
1532116822352,0,0,2,-2,-1,-1,1,0
1532116822357,1,1,1,3,4,-1,0,1
1532116822362,-1,-1,-1,-4,-3,3,-3,0
1532116822367,0,-3,-2,1,1,4,-1,-2
1532116822372,1,2,2,-2,-8,-5,-2,1
1532116822377,0,-1,-4,-2,-5,-5,-2,-1
1532116822382,-1,-1,-3,-3,-1,2,0,-2
1532116822387,-1,0,-2,-1,1,0,-3,-1
1532116822392,-1,0,2,2,3,4,1,-1
1532116822397,-2,1,-1,2,0,1,2,0
1532116822402,-2,0,-1,-1,-1,-6,-2,2
1532116822407,-2,1,0,-1,-4,-4,-4,-4
1532116822412,1,-1,-2,-1,-3,-4,-1,-1
1532116822417,-1,-2,0,0,0,-2,0,-1
1532116822422,0,-2,2,0,-1,2,-1,-1
1532116822427,-2,-1,-3,-1,1,-4,1,0
1532116822432,-1,-2,1,-2,-2,-3,0,-1
1532116822437,-1,-1,-1,0,-3,-2,-1,-1
1532116822442,-1,-2,-1,-2,4,6,0,-1
1532116822447,0,1,1,1,-1,-1,-2,-2
1532116822452,-2,-2,-4,-3,-3,-3,-2,0
1532116822457,0,-1,-2,0,1,-1,-1,0
1532116822462,-2,-1,0,-1,-9,-7,1,3
1532116822467,1,0,-1,0,1,-2,-3,-9
1532116822472,-2,0,-3,2,0,3,2,0
1532116822477,-1,-2,0,1,0,-3,-1,-3
1532116822482,2,1,-1,-3,1,-8,0,-2
1532116822487,-2,-1,-2,-1,-4,-7,1,1
1532116822492,2,0,2,0,-1,-7,0,-2
1532116822497,-1,-1,-6,-6,-2,-8,-2,-1
1532116822502,-3,-2,-2,1,-2,-4,0,-2
1532116822507,-1,-1,1,0,-1,-3,-1,0
1532116822512,-2,-2,-2,-4,-3,-4,-2,-3
1532116822517,-1,1,3,3,-2,-3,-2,2
1532116822522,-2,-2,-2,-1,0,0,-1,-1
1532116822527,0,-1,-2,-1,1,1,0,1
1532116822532,-1,0,1,0,-4,-9,-1,-3
1532116822537,2,-2,-1,-5,1,0,-1,-2
1532116822542,-1,-1,0,0,-4,-7,-1,-2
1532116822547,0,0,0,2,2,3,-2,0
1532116822552,-1,-2,-3,-3,1,0,2,0
1532116822557,-2,-2,0,0,-1,0,0,-1
1532116822562,-1,1,-2,-1,0,-1,-2,-3
1532116822567,0,0,-2,-1,-1,-1,-1,-1
1532116822572,1,2,-1,-2,0,3,-1,0
1532116822577,0,-1,-1,1,-3,-3,1,1
1532116822582,-2,1,3,1,1,3,0,-1
1532116822587,-2,-2,-2,-3,-3,1,0,1
1532116822592,-1,-1,-4,-3,-2,5,0,-3
1532116822597,0,-1,0,2,3,-4,-2,-1
1532116822602,1,0,2,4,2,3,-1,0
1532116822607,2,2,1,1,-2,2,1,0
1532116822612,0,-2,0,-1,-1,-7,1,0
1532116822617,-1,0,0,-2,-3,2,1,-1
1532116822622,1,-3,-3,-1,-5,-1,0,-1
1532116822627,-1,-1,0,-1,1,2,-3,-2
1532116822632,-1,0,-1,-1,-1,1,-5,-1
1532116822637,-2,-1,-3,-1,-5,-1,-2,-1
1532116822642,0,2,-1,-2,2,4,2,0
1532116822647,1,0,0,-1,-2,2,-1,0
1532116822652,-2,-1,-1,1,-1,2,1,-1
1532116822657,0,-1,0,-1,-5,2,-1,-1
1532116822662,-1,-1,-2,1,2,5,-1,-3
1532116822667,-1,-1,-1,-2,-3,-2,-1,-2
1532116822672,0,0,0,1,5,3,-1,0
1532116822677,-1,0,0,-2,-1,0,-2,-1
1532116822682,0,-2,-2,-3,-6,-4,0,0
1532116822687,0,-1,-3,-2,0,-1,0,0
1532116822692,-1,2,2,2,0,1,2,0
1532116822697,-1,-1,-3,-4,0,3,-2,-2
1532116822702,-1,-1,0,1,0,-1,-1,0
1532116822707,-1,0,-1,1,-1,-4,1,0
1532116822712,-2,-2,0,-2,0,1,-2,-2
1532116822717,-1,-1,0,2,2,-1,2,2
1532116822722,-2,1,1,2,-2,-6,-3,-1
1532116822727,-2,-4,1,1,-1,1,1,0
1532116822732,-1,-2,-4,-8,-4,8,1,2
1532116822737,0,2,0,2,-2,-2,3,0
1532116822742,-1,-2,-3,-3,-1,3,-3,-2
1532116822747,-1,-1,-2,-3,-1,5,-3,-2
1532116822752,0,0,0,1,1,10,0,-3
1532116822757,-2,0,0,-2,-2,2,-3,-3
1532116822762,0,2,4,3,-7,-7,1,0
1532116822767,0,0,2,-2,4,-2,-1,1
1532116822772,0,1,0,-3,1,-5,-1,-1
1532116822777,0,-5,-2,0,-1,2,0,-1
1532116822782,-1,2,2,7,1,-3,0,0
1532116822787,-2,0,-2,-13,-9,-7,-2,-1
1532116822792,-1,-2,-1,2,-2,-4,0,2
1532116822797,-2,-1,-2,0,0,2,-2,-5
1532116822802,-2,-2,-2,-6,2,1,1,-1
1532116822807,-2,1,1,4,-4,-7,1,0
1532116822812,-1,0,-1,-2,5,-2,-2,-1
1532116822817,-2,-3,-4,-2,-9,-14,-2,0
1532116822822,-1,-5,-3,-3,3,-10,1,-3
1532116822827,-1,-1,1,3,-5,-36,-1,1
1532116822832,2,-1,1,0,-2,-27,-1,-2
1532116822837,-1,-3,1,0,0,-39,-1,1
1532116822842,-1,-3,-6,-4,-2,-15,-1,2
1532116822847,1,-1,-2,-2,1,35,-3,-5
1532116822852,-2,1,0,0,-9,-12,-2,-4
1532116822857,-1,1,1,3,4,65,1,1
1532116822862,1,2,1,1,1,69,3,-1
1532116822867,-1,-3,-1,5,3,70,2,0
1532116822872,-1,-1,-2,0,-3,34,-1,3
1532116822877,-1,-2,-2,-3,-4,15,0,0
1532116822882,1,5,5,1,3,14,0,1
1532116822887,-2,1,-1,0,-1,-5,-2,-4
1532116822892,-1,2,1,5,-3,1,1,-1
1532116822897,-2,-1,-4,-10,4,-25,-1,-3
1532116822902,-2,-7,-8,-6,-9,-18,-1,-1
1532116822907,-1,2,1,3,4,-22,0,1
1532116822912,0,-3,-1,-3,-2,-1,-3,0
1532116822917,1,3,1,2,-8,0,-3,2
1532116822922,-1,1,-4,-9,-32,-23,-6,-6
1532116822927,0,0,2,10,61,-18,2,-1
1532116822932,-2,-1,-3,-2,-3,0,1,0
1532116822937,1,1,0,4,9,2,2,0
1532116822942,-1,-4,-1,-1,2,6,1,1
1532116822947,0,-1,-1,-2,-23,-2,-1,-1
1532116822952,-2,-3,0,-1,-3,8,0,-1
1532116822957,2,0,-1,-2,0,6,1,-1
1532116822962,0,-7,-1,1,7,-1,-6,0
1532116822967,-1,-3,-5,-4,-14,1,0,-1
1532116822972,1,-1,-1,-4,3,-3,3,2
1532116822977,-1,-2,2,2,-9,-17,0,0
1532116822982,-1,2,1,1,4,-10,-7,-12
1532116822987,-3,-3,0,-1,-5,-6,3,3
1532116822992,0,3,0,1,3,-1,-2,0
1532116822997,-2,1,-2,-1,-12,-8,-2,-1
1532116823002,-1,3,2,3,2,7,4,5
1532116823007,-1,0,-2,-5,-8,1,-1,-2
1532116823012,-1,-2,-4,0,0,2,0,-2
1532116823017,0,-1,1,-2,-1,0,-3,2
1532116823022,-1,-1,1,3,3,0,0,1
1532116823027,1,1,-2,-5,-4,5,-3,-1
1532116823032,1,-1,0,-3,-1,3,1,1
1532116823037,-2,-2,-2,-1,3,2,-2,-6
1532116823042,0,0,-3,-4,-3,0,-2,-1
1532116823047,0,-1,2,-4,-25,-3,0,-1
1532116823052,-2,0,0,3,27,-5,0,-1
1532116823057,-2,-3,-3,1,-2,5,0,-2
1532116823062,-1,2,0,-4,-11,-2,2,2
1532116823067,0,1,-1,3,9,2,1,2
1532116823072,1,-1,1,3,4,-6,-3,-4
1532116823077,0,1,2,-3,1,-2,0,0
1532116823082,-1,-3,-3,-2,6,1,-2,-1
1532116823087,-2,1,-2,-2,-14,-6,-4,0
1532116823092,-4,-1,-2,-1,-14,2,2,1
1532116823097,-3,1,-1,-1,-1,1,-5,-9
1532116823102,0,0,0,2,4,-4,3,1
1532116823107,1,-3,-1,-2,-6,-1,1,16
1532116823112,-5,-2,0,1,23,2,1,-20
1532116823117,-1,-2,1,-3,-1,-2,-3,-2
1532116823122,-2,0,-1,-1,0,-4,0,-2
1532116823127,-1,-3,-2,0,-4,-6,-5,-6
1532116823132,0,-2,-1,-1,-7,-1,2,9
1532116823137,0,1,-4,-7,-13,4,1,4
1532116823142,0,0,0,4,1,-3,-1,-3
1532116823147,3,-1,4,4,32,-3,1,3
1532116823152,1,-2,-1,-2,-12,-1,-2,1
1532116823157,-1,1,1,4,10,1,-1,-4
1532116823162,2,0,-2,-4,-13,-9,-4,1
1532116823167,-5,-4,-4,-2,-8,-5,-3,-8
1532116823172,1,-3,0,-3,-5,-6,-3,0
1532116823177,-1,-3,-2,-1,-7,1,2,-3
1532116823182,-4,-2,0,1,5,2,-3,-6
1532116823187,-1,-7,-3,-3,-10,3,0,-2
1532116823192,2,5,2,-1,-10,1,0,1
1532116823197,-1,0,-1,4,18,0,1,5
1532116823202,-1,-1,-3,-2,4,4,1,-1
1532116823207,0,3,3,0,0,-1,-3,-5
1532116823212,-1,0,-3,0,-9,2,-4,0
1532116823217,0,0,1,-2,-1,-3,-1,1
1532116823222,-1,0,-1,-3,-31,-3,-6,-6
1532116823227,-1,1,1,4,17,-4,3,0
1532116823232,-1,0,-2,-6,-11,-5,2,2
1532116823237,-2,1,0,3,4,-2,0,-2
1532116823242,-2,-2,-2,-6,-14,-5,1,2
1532116823247,0,0,-2,-3,12,-3,-1,6
1532116823252,-1,-1,1,4,-9,-7,-4,3
1532116823257,2,-1,-3,-1,0,-3,-9,-10
1532116823262,-2,-3,0,4,-5,2,1,0
1532116823267,-1,0,-3,-3,-2,-1,-2,-7
1532116823272,0,-5,-2,-1,8,-5,3,6
1532116823277,-2,0,-1,1,-8,-1,0,1
1532116823282,-2,-3,-4,-2,9,4,14,-3
1532116823287,1,0,1,-2,-33,-10,8,0
1532116823292,0,0,-2,-2,12,-12,4,-3
1532116823297,-3,-3,-1,-3,-8,-1,-5,0
1532116823302,2,-1,2,2,13,-1,-7,2
1532116823307,-1,1,-3,-1,-6,13,-6,0
1532116823312,-1,-1,-3,-1,-4,16,-8,-3
1532116823317,1,0,0,-2,-6,4,-3,-1
1532116823322,-2,-1,-4,0,16,9,-5,3
1532116823327,0,-1,1,1,-5,2,-3,-2
1532116823332,-3,-1,-1,1,-1,-2,-6,-4
1532116823337,-4,-1,-1,-1,9,3,3,3
1532116823342,-8,-2,-3,0,-15,-1,-3,-3
1532116823347,-9,-2,-3,-5,10,-1,-6,-2
1532116823352,-6,-5,-1,4,4,-1,-4,-3
1532116823357,0,-1,-1,2,-4,5,5,5
1532116823362,4,0,3,2,1,-8,-2,-1
1532116823367,2,-2,-1,-1,3,-1,-1,-2
1532116823372,1,-1,-1,-5,-15,3,1,3
1532116823377,4,-1,0,-4,-8,-3,1,-5
1532116823382,4,0,4,5,29,-2,2,-1
1532116823387,3,-1,-1,-1,-11,1,1,0
1532116823392,1,-1,1,-1,0,2,1,-1
1532116823397,0,-1,-2,-5,3,-5,2,20
1532116823402,5,0,-2,-1,-10,-2,1,-15
1532116823407,-2,-1,-2,-2,2,4,-1,-3
1532116823412,0,2,1,3,-1,2,-1,-4
1532116823417,-2,-4,-2,-6,-1,-3,-1,1
1532116823422,-2,2,0,-5,3,2,-1,4
1532116823427,-1,-1,1,10,14,-8,1,-2
1532116823432,-2,-2,-3,-3,-31,6,1,-4
1532116823437,1,2,2,4,35,-5,0,-4
1532116823442,-2,-1,-4,-4,-12,2,50,4
1532116823447,-1,1,1,-2,6,3,48,-2
1532116823452,-2,0,0,-4,-7,1,11,2
1532116823457,-1,-1,0,-3,-9,11,-1,-3
1532116823462,-2,-3,-1,5,14,11,-33,-1
1532116823467,-3,-1,1,-1,2,0,-29,-3
1532116823472,-1,-3,-6,-5,-26,-4,-10,-2
1532116823477,-2,0,-2,4,28,-7,-22,-4
1532116823482,-1,-2,-1,-2,-4,-11,-13,3
1532116823487,0,1,0,-2,-17,1,-9,-2
1532116823492,-1,-2,1,0,4,-4,-7,-3
1532116823497,0,-2,-1,-2,-5,0,1,-1
1532116823502,-3,-2,-1,-6,-17,-2,2,2
1532116823507,1,1,0,0,-7,-4,-1,0
1532116823512,-1,1,1,-1,19,-4,-4,-1
1532116823517,0,2,1,-1,-22,-6,8,0
1532116823522,-2,0,-1,-1,5,-1,-1,-1
1532116823527,0,-1,-1,-1,-1,1,-12,1
1532116823532,1,1,1,-1,-7,-4,0,1
1532116823537,-2,-2,0,1,10,2,2,-3
1532116823542,1,1,1,-3,-24,-5,-4,2
1532116823547,-1,-3,-1,-2,19,0,-2,-1
1532116823552,0,-1,-4,-2,-4,2,4,2
1532116823557,-1,-3,-3,-3,-14,-2,-2,-4
1532116823562,-1,-2,-1,0,13,4,-5,-1
1532116823567,0,-3,-1,-3,-16,0,-2,1
1532116823572,1,1,6,4,17,2,4,0
1532116823577,-2,-1,0,1,0,-4,0,0
1532116823582,0,-1,-3,-4,-5,0,-6,-1
1532116823587,-3,-2,-2,-2,-4,-4,-2,-1
1532116823592,-1,-1,-3,-3,8,-1,-2,-1
1532116823597,1,0,3,-1,-29,-2,2,-2
1532116823602,1,3,0,2,18,-3,3,2
1532116823607,0,0,2,2,-8,-5,3,3
1532116823612,-3,-2,-2,-5,2,10,-6,-5
1532116823617,-2,0,1,-8,-6,1,14,-2
1532116823622,-2,-1,-1,-2,13,-16,-14,-2
1532116823627,2,-1,4,14,8,-7,2,3
1532116823632,3,0,-4,-8,0,-2,-10,-3
1532116823637,-2,0,-4,-11,-39,0,-4,-5
1532116823642,-2,-2,1,12,47,7,8,-1
1532116823647,-1,-2,-6,-12,-1,-15,-2,-1
1532116823652,1,0,3,9,-24,4,3,2
1532116823657,1,0,0,11,44,8,3,3
1532116823662,0,-4,-1,-11,-29,31,2,0
1532116823667,-3,-2,1,9,1,17,-3,-2
1532116823672,-1,-1,0,4,15,5,-1,-3
1532116823677,-1,0,-1,-7,-4,-7,-5,-2
1532116823682,-1,-1,-3,-3,-23,-10,-4,-1
1532116823687,1,0,-1,-5,-19,5,4,2
1532116823692,0,-1,0,-6,-9,-4,1,2
1532116823697,-2,-1,-3,-2,10,-6,-7,-5
1532116823702,-5,-3,-2,2,-4,-5,5,-3
1532116823707,-1,-1,-2,-2,-11,-9,-1,-2
1532116823712,1,1,-1,0,5,-14,1,0
1532116823717,2,-2,1,3,-7,-24,1,3
1532116823722,2,0,0,1,-5,-7,-1,2
1532116823727,-2,-3,-4,-5,2,1,-1,-3
1532116823732,-3,-2,-5,-2,6,4,3,-2
1532116823737,-2,0,-2,4,-6,10,0,0
1532116823742,-1,2,1,0,-4,3,-1,-1
1532116823747,1,-1,1,-1,0,9,-1,-2
1532116823752,-1,-1,-3,-2,-5,0,-1,-2
1532116823757,-2,-2,-3,-1,-19,5,-2,-1
1532116823762,1,-1,-1,2,44,-3,-1,0
1532116823767,0,2,2,5,3,-2,0,1
1532116823772,-2,-3,-2,-4,1,-1,-1,-1
1532116823777,0,0,0,-3,4,2,-2,1
1532116823782,-1,1,2,-3,-18,0,0,-3
1532116823787,-2,-1,-1,-2,6,9,0,-2
1532116823792,0,1,2,0,5,-9,0,0
1532116823797,-1,-1,-3,-1,2,1,0,0
1532116823802,2,-3,-3,-7,-22,-4,-1,1
1532116823807,-1,1,0,1,27,-6,-4,-2
1532116823812,0,-1,-3,-2,-7,-1,5,6
1532116823817,-1,-1,2,3,1,-1,-2,0
1532116823822,-1,-1,1,0,-8,-6,-1,-4
1532116823827,-1,-3,-3,-7,-4,-12,-6,-3
1532116823832,-1,0,0,0,-7,-4,1,0
1532116823837,-1,2,1,0,8,-5,-4,-2
1532116823842,-3,-1,-2,1,2,3,5,-1
1532116823847,-1,1,0,-2,-11,1,0,0
1532116823852,0,0,1,4,14,-2,0,-2
1532116823857,0,-5,-3,-6,-18,1,0,1
1532116823862,2,-1,0,-2,-9,2,-3,1
1532116823867,0,-3,-2,2,17,1,-2,-2
1532116823872,0,0,3,6,17,-13,-1,-1
1532116823877,-1,-1,-1,0,-4,7,-1,-1
1532116823882,-1,0,-1,-4,0,-2,-3,1
1532116823887,-3,-2,-3,-4,-5,6,-1,0
1532116823892,-2,-3,-1,-3,-9,4,-2,-2
1532116823897,-1,-1,1,3,10,-3,2,-2
1532116823902,0,-3,0,0,-6,-3,3,0
1532116823907,2,1,-2,-2,-13,-7,1,1
1532116823912,-1,-1,-1,-3,1,-3,-5,-5
1532116823917,1,-1,0,-1,-1,-3,-1,0
1532116823922,-2,-3,-2,1,1,14,-1,0
1532116823927,-1,-2,-2,-3,-9,11,2,3
1532116823932,0,-2,1,2,0,-1,4,-3
1532116823937,-5,-4,-2,0,0,-4,-7,-4
1532116823942,-4,2,1,0,2,0,-6,-6
1532116823947,8,-1,0,-3,-6,-2,-3,0
1532116823952,1,1,-2,-1,-4,3,-4,7
1532116823957,2,-1,0,-3,-1,4,4,5
1532116823962,12,1,-3,1,0,-7,2,47
1532116823967,-17,3,4,3,1,6,5,-40
1532116823972,-5,0,-1,-1,-5,11,-16,-25
1532116823977,5,-5,-2,1,-1,-10,1,9
1532116823982,10,-4,-4,0,-2,-10,2,30
1532116823987,-11,-3,-3,-2,-2,-14,-7,-33
1532116823992,-4,7,0,-2,-5,-11,3,-37
1532116823997,-5,-5,-3,3,7,16,5,33
1532116824002,13,6,1,-2,-4,-27,-13,-21
1532116824007,12,-16,-6,-6,-6,-3,7,84
1532116824012,-12,3,-4,-2,0,-9,-9,-35
1532116824017,10,-5,-4,-1,-2,36,11,33
1532116824022,-12,-2,3,-5,-4,28,-23,-63
1532116824027,-10,9,0,3,1,39,-1,27
1532116824032,-7,5,-2,-4,2,25,-4,28
1532116824037,16,-33,-4,-1,-5,-12,1,18
1532116824042,-5,-1,5,4,6,16,-5,-27
1532116824047,-15,22,5,-1,-3,34,-3,-19
1532116824052,-3,-16,-2,-4,-4,-6,-7,25
1532116824057,0,25,4,1,-2,22,-5,-7
1532116824062,-11,-34,-15,-1,-2,16,5,24
1532116824067,4,-8,5,1,-2,-10,-11,-54
1532116824072,-3,3,-1,2,5,12,8,4
1532116824077,4,6,2,-3,-2,-8,2,13
1532116824082,-3,-3,3,-1,-3,-10,7,26
1532116824087,-1,3,-4,-2,-5,3,9,-4
1532116824092,-4,-13,-3,-1,-2,-11,5,2
1532116824097,-3,-2,-1,2,-2,-11,-4,-19
1532116824102,9,5,1,1,-1,-1,2,23
1532116824107,-5,-11,-5,-5,1,5,-1,-6
1532116824112,7,11,4,0,-2,-9,-3,-13
1532116824117,-8,-1,-3,0,-1,0,-6,-20
1532116824122,6,-3,-1,1,2,10,7,26
1532116824127,3,-1,-2,-4,-7,-2,-8,8
1532116824132,0,-2,-1,3,-2,-8,-9,-17
1532116824137,-8,0,0,6,6,-5,-5,-15
1532116824142,2,6,-4,-15,-6,0,3,25
1532116824147,3,-8,-2,0,-6,2,-7,-6
1532116824152,0,4,1,30,27,-8,-2,-9
1532116824157,-9,-2,-11,-57,-31,11,3,-5
1532116824162,5,5,5,19,0,-21,1,10
1532116824167,1,-4,2,-9,7,-14,-2,-5
1532116824172,-4,-3,-6,-22,-21,3,-1,-5
1532116824177,-4,5,3,16,7,0,-4,1
1532116824182,2,-2,-2,-7,-3,1,1,3
1532116824187,-1,-3,0,7,7,9,-6,-7
1532116824192,-4,3,3,10,5,17,-6,-4
1532116824197,-1,-2,-3,3,7,23,-6,-5
1532116824202,2,0,2,3,-5,0,-4,4
1532116824207,-1,0,4,20,8,33,-1,-1
1532116824212,1,-1,-6,-34,-32,16,6,-2
1532116824217,-2,-1,0,4,0,2,-4,-2
1532116824222,-1,-1,-2,3,1,-1,7,5
1532116824227,0,0,0,2,9,-12,8,2
1532116824232,0,-1,0,3,-6,-17,5,-5
1532116824237,-4,-1,1,-1,-16,-9,-2,-5
1532116824242,0,2,2,8,35,5,1,5
1532116824247,1,0,0,1,-11,-15,-5,-2
1532116824252,-1,1,-1,9,13,-11,0,-3
1532116824257,-3,-2,-1,2,-13,-21,0,-2
1532116824262,-2,-4,-3,-5,-11,5,-2,0
1532116824267,-1,-4,-4,0,6,-8,1,-2
1532116824272,-2,-1,1,7,-3,0,-3,-4
1532116824277,1,4,10,25,20,4,-3,0
1532116824282,-1,-5,-16,-71,-56,8,-3,1
1532116824287,-1,0,2,-1,-2,1,-5,-1
1532116824292,-2,0,1,6,-11,-6,1,4
1532116824297,-1,-1,3,22,34,-6,-1,-9
1532116824302,0,-2,2,10,1,-1,0,0
1532116824307,-1,0,-3,-5,-2,-6,-1,-2
1532116824312,-4,-2,-1,0,10,-11,2,-6
1532116824317,2,-2,-1,-13,-14,-6,-1,4
1532116824322,1,-3,-1,5,7,-7,0,1
1532116824327,0,-5,-5,-5,-5,-9,3,-1
1532116824332,-1,-3,-3,-9,-3,-14,-2,-3
1532116824337,-3,-3,-5,-7,-7,-15,-1,-3
1532116824342,-2,3,2,10,3,-43,-1,-3
1532116824347,-2,4,1,4,-1,-13,2,3
1532116824352,-1,4,-1,-8,-4,-11,0,-2
1532116824357,-3,0,-2,-2,-1,-1,6,2
1532116824362,1,2,1,8,8,15,-6,3
1532116824367,-1,0,-3,-13,-15,7,-2,-2
1532116824372,2,-2,0,-1,7,7,-1,0
1532116824377,1,-1,0,-2,3,10,-1,0
1532116824382,-1,-1,0,10,-5,9,-3,0
1532116824387,-1,-4,-1,-4,-9,-6,2,-1
1532116824392,2,-7,0,-2,-2,1,1,2
1532116824397,-1,1,-2,10,5,4,-7,-1
1532116824402,-2,5,-2,-5,-4,2,-4,0
1532116824407,0,6,-2,3,6,25,-2,-2
1532116824412,0,2,-1,-9,-6,17,0,2
1532116824417,1,0,-1,2,-1,7,5,-2
1532116824422,0,0,-3,-3,0,2,2,1
1532116824427,0,-3,-1,-3,-4,-8,2,-1
1532116824432,-1,1,4,7,6,-5,-5,-3
1532116824437,-1,0,1,-9,-10,-3,-1,-1
1532116824442,0,-3,-2,1,2,-4,-1,-3
1532116824447,-2,-2,-2,0,0,-2,-1,-1
1532116824452,-1,-4,-3,-5,-4,-3,-1,-1
1532116824457,1,-3,2,-3,-2,-1,0,3
1532116824462,1,-2,2,7,3,1,1,2
1532116824467,0,0,1,-4,-2,4,-2,-1
1532116824472,2,3,-1,1,-2,0,-2,0
1532116824477,-2,1,-6,-4,-3,-4,-1,-4
1532116824482,-2,-3,0,-5,-1,-7,3,-2
1532116824487,-2,-3,-4,-4,-1,-6,-2,3
1532116824492,1,2,1,3,-2,-3,3,-9
1532116824497,2,-8,-1,0,1,-8,-6,8
1532116824502,3,-5,2,1,0,3,4,13
1532116824507,-14,5,0,-4,-7,-5,-8,-24
1532116824512,3,-2,-5,1,1,6,9,21
1532116824517,-1,4,-3,-6,2,4,5,-1
1532116824522,1,4,0,1,0,10,-4,4
1532116824527,6,1,-1,1,-1,6,0,16
1532116824532,-4,3,1,4,13,1,-1,-7
1532116824537,-2,1,-4,-6,-16,-10,0,-4
1532116824542,-2,-2,0,0,5,-4,1,1
1532116824547,-2,-5,-4,-7,-1,2,0,-8
1532116824552,-3,-4,-2,-3,-3,1,-3,-4
1532116824557,-2,-3,-1,2,1,4,-3,0
1532116824562,-1,1,4,7,2,-5,0,-10
1532116824567,1,-4,0,-4,-6,-3,1,-1
1532116824572,-1,-1,-1,-6,-6,-1,-2,2
1532116824577,-2,-1,-2,-2,0,3,-1,3
1532116824582,-3,-1,0,0,-4,0,0,-7
1532116824587,1,-2,0,0,4,-1,2,2
1532116824592,-1,0,-1,3,1,0,2,2
1532116824597,-2,-2,-2,-5,-12,-4,-1,-5
1532116824602,-3,-2,-4,-5,5,6,1,-3
1532116824607,3,-2,-1,0,-3,1,2,4
1532116824612,-1,-2,0,0,-3,-4,-5,-4
1532116824617,0,0,3,0,3,-2,1,-2
1532116824622,0,-1,-4,-2,-3,-1,-2,2
1532116824627,0,-1,0,3,-2,-3,-4,1
1532116824632,-2,-1,0,-7,-4,-4,-2,-6
1532116824637,-1,-1,-1,-2,5,1,1,-2
1532116824642,1,1,-2,-4,-8,-4,-1,0
1532116824647,-1,-2,0,5,9,-3,3,-1
1532116824652,1,-1,0,2,-1,-4,-1,-2
1532116824657,0,-1,1,0,0,-5,-3,-1
1532116824662,-2,-2,-1,-3,-2,-2,-5,-4
1532116824667,1,2,1,-1,-3,0,-1,0
1532116824672,-1,0,-3,-4,-2,1,-1,-1
1532116824677,0,1,-2,-1,-2,-3,0,-1
1532116824682,-1,0,0,6,-1,-10,1,-2
1532116824687,-1,-4,0,2,0,-2,-1,-1
1532116824692,-3,-2,-1,-1,-2,-2,-4,-1
1532116824697,-1,0,-2,-1,-1,1,2,-2
1532116824702,-2,0,1,-2,0,0,-3,-2
1532116824707,0,2,2,-1,-2,-2,-3,-1
1532116824712,0,-3,1,3,-4,-4,0,0
1532116824717,-2,-3,-1,1,1,-2,-4,-2
1532116824722,-1,0,-2,-1,-2,-7,0,-4
1532116824727,-3,-1,0,-2,0,-5,1,0
1532116824732,0,-3,0,-3,-2,-5,-1,-2
1532116824737,0,0,-1,-5,-4,-3,2,3
1532116824742,1,-3,-1,0,2,-5,1,2
1532116824747,0,-2,-2,0,-3,-4,-4,-1
1532116824752,-1,1,0,-1,0,-6,-1,-1
1532116824757,0,-1,0,2,-1,0,-1,-1
1532116824762,0,-1,0,-3,-6,-1,1,-2
1532116824767,-1,1,-1,-4,-3,-4,0,-1
1532116824772,0,0,-1,1,0,2,2,0
1532116824777,0,0,-1,-2,0,2,0,-1
1532116824782,-1,-1,0,1,-1,4,-1,0
1532116824787,-1,-3,-1,5,4,1,-1,-1
1532116824792,-1,-3,-5,-7,-4,0,-4,-2
1532116824797,-1,-3,-1,2,6,-1,1,-2
1532116824802,-1,-1,-1,0,0,4,-1,-1
1532116824807,-1,-1,-1,-8,-6,-24,0,0
1532116824812,1,3,0,2,0,-10,1,1
1532116824817,-1,-1,-4,-4,-3,1,-3,-3
1532116824822,-2,-2,-4,-5,-2,10,0,0
1532116824827,1,-1,1,0,2,17,-2,0
1532116824832,-2,0,0,-2,2,12,0,0
1532116824837,-1,0,3,2,-1,5,0,1
1532116824842,0,1,3,3,2,5,1,2
1532116824847,0,-1,-3,-4,-3,4,0,-1
1532116824852,1,-1,0,0,0,-5,-1,-2
1532116824857,-1,-2,-2,0,-2,3,0,-1
1532116824862,0,0,2,0,-3,-2,-3,2
1532116824867,0,-1,0,2,-1,2,-1,-2
1532116824872,0,0,0,-2,-3,3,0,0
1532116824877,0,-1,-2,-3,-1,-4,0,0
1532116824882,-3,0,0,0,0,-7,1,-2
1532116824887,-1,0,-2,-2,-8,2,-1,-1
1532116824892,-3,-4,-4,-3,1,-6,-2,-2
1532116824897,-1,1,2,5,7,9,1,0
1532116824902,-2,-1,-2,-3,2,2,-1,-2
1532116824907,-1,1,-1,0,0,0,-2,0
1532116824912,0,1,-1,-1,-9,3,0,-1
1532116824917,0,1,-1,0,-3,-3,-3,-2
1532116824922,-1,0,0,0,3,2,0,-3
1532116824927,-2,-2,-3,-1,-1,5,-1,-1
1532116824932,-2,-3,-1,1,1,1,0,-1
1532116824937,1,0,1,-3,-2,-4,1,0
1532116824942,-1,-1,-2,0,-1,-1,-1,0
1532116824947,-1,-1,-1,-1,0,-3,0,-1
1532116824952,-3,-2,0,0,1,3,0,2
1532116824957,-3,-1,0,2,-3,-15,-2,-2
1532116824962,0,-2,-1,-2,-3,-2,1,0
1532116824967,0,1,1,-4,4,4,-2,-1
1532116824972,0,-1,1,-1,2,-1,-1,1
1532116824977,-1,-3,0,-4,-3,12,-3,-2
1532116824982,-2,-1,-4,-1,-7,-5,-2,-3
1532116824987,-2,-1,-4,-2,-13,-14,-2,0
1532116824992,-1,1,-1,2,16,28,0,-1
1532116824997,2,2,0,2,4,-9,1,2
1532116825002,1,0,0,-1,-11,-13,-4,-1
1532116825007,0,-1,-1,0,8,8,1,-3
1532116825012,-2,-1,-3,-4,-16,9,-2,-1
1532116825017,-1,-2,-1,-2,24,17,-2,-1
1532116825022,-2,-1,0,1,0,6,1,1
1532116825027,0,-1,-1,1,-15,-2,-2,-2
1532116825032,0,0,0,0,-2,-8,-1,-1
1532116825037,-1,-1,-2,0,-8,-5,0,-1
1532116825042,-1,0,1,-6,2,2,0,1
1532116825047,1,-1,-1,2,7,-13,-2,-1
1532116825052,1,-1,1,3,-1,0,-1,1
1532116825057,-3,-2,-3,0,-18,-4,-3,-1
1532116825062,-1,-2,-4,-4,-4,-5,-2,-4
1532116825067,-1,0,3,3,7,13,2,-1
1532116825072,-1,0,-3,2,14,-26,2,0
1532116825077,0,0,-1,-1,-16,-5,-3,-9
1532116825082,1,2,2,8,-6,-22,6,13
1532116825087,-1,-2,-3,-7,-6,-3,-4,0
1532116825092,1,0,-1,1,5,-7,-2,-3
1532116825097,-3,-1,0,0,2,12,2,4
1532116825102,14,0,-3,-5,-5,0,-1,5
1532116825107,-9,-1,-2,-2,4,1,0,-13
1532116825112,-3,-3,0,-1,-12,-9,-3,12
1532116825117,-3,-2,0,2,0,-10,-1,0
1532116825122,-2,-2,-1,-1,3,0,-2,-6
1532116825127,-1,-1,0,-3,-2,-6,-9,-1
1532116825132,-2,0,2,5,2,-6,0,3
1532116825137,1,2,-1,-3,4,8,6,0
1532116825142,-5,-3,-3,-3,-5,-1,2,-5
1532116825147,-1,1,-3,-2,0,-13,0,4
1532116825152,-4,-1,-1,-2,0,1,-1,-8
1532116825157,-1,-4,1,2,0,2,2,3
1532116825162,13,1,0,0,-5,-1,0,26
1532116825167,-25,1,0,-1,0,9,2,-41
1532116825172,-6,-3,1,-2,21,9,-6,-12
1532116825177,-7,-2,-3,-2,-11,-5,-6,-5
1532116825182,4,-1,2,0,1,0,-1,-5
1532116825187,6,-1,-4,-3,-7,-12,-1,17
1532116825192,-4,2,1,1,-5,4,-1,-8
1532116825197,4,4,3,1,6,2,5,1
1532116825202,-3,0,-1,-2,-3,-1,-6,6
1532116825207,3,-1,-6,-5,-1,-1,-1,-3
1532116825212,-8,-6,-4,-3,-5,7,0,0
1532116825217,2,-1,-1,3,-3,-6,-5,4
1532116825222,-1,1,1,-1,3,5,4,-7
1532116825227,15,3,3,-1,-5,-4,4,10
1532116825232,-9,0,-6,-6,-14,-4,-3,-2
1532116825237,-8,-1,-5,-11,-27,1,-6,-6
1532116825242,3,6,5,8,27,-15,-3,-3
1532116825247,4,-1,-1,2,-8,19,0,3
1532116825252,2,-4,-1,-3,-15,-5,-2,4
1532116825257,-1,-1,3,0,-5,-36,-1,-3
1532116825262,-5,-6,-8,-4,-10,18,-1,-7
1532116825267,-11,-2,0,3,9,9,-1,-6
1532116825272,8,2,1,1,-11,15,-1,-4
1532116825277,-3,-6,-5,-4,17,18,0,22
1532116825282,4,2,0,2,-19,-8,-1,0
1532116825287,4,1,4,10,45,-5,0,-4
1532116825292,-1,3,-2,-3,-8,-3,-8,-5
1532116825297,0,-2,3,-5,6,11,1,-13
1532116825302,10,12,7,4,-15,14,3,-1
1532116825307,-2,-14,-6,-7,-9,-26,5,13
1532116825312,-5,-11,-13,-5,-5,-4,-11,-23
1532116825317,-15,-6,0,7,4,10,-4,-11
1532116825322,-5,0,-1,-7,20,20,5,22
1532116825327,1,5,0,-4,-61,4,-6,-9
1532116825332,9,3,7,6,63,-17,8,6
1532116825337,14,1,-3,-6,-20,-11,-2,0
1532116825342,-6,-4,0,3,50,8,-2,-7
1532116825347,10,6,5,2,-22,1,-4,1
1532116825352,2,-4,-2,-2,-5,16,4,28
1532116825357,3,5,2,4,-11,-5,1,-6
1532116825362,-2,7,1,0,-8,-7,0,7
1532116825367,4,-16,3,7,68,-16,5,13
1532116825372,-4,-3,-2,6,10,6,-6,-28
1532116825377,-8,-11,-7,-11,-24,-29,-16,3
1532116825382,7,18,14,4,-35,-9,15,-1
1532116825387,-8,-9,-6,5,17,-12,7,2
1532116825392,2,13,2,-1,1,-6,8,-8
1532116825397,-7,-11,-10,-4,-12,28,-4,-15
1532116825402,-16,-13,-3,-1,-3,20,-6,-16
1532116825407,-2,8,2,-10,-20,36,-11,-2
1532116825412,2,4,8,5,-22,22,7,10
1532116825417,-7,1,3,7,52,10,9,20
1532116825422,9,-4,-6,-10,-19,0,-15,-54
1532116825427,2,3,0,3,-7,-1,-7,27
1532116825432,-10,-3,-2,-10,-25,5,3,-5
1532116825437,6,9,8,10,38,-27,-13,-12
1532116825442,-6,-10,-5,0,-1,-3,-1,11
1532116825447,-4,29,10,-8,-58,-13,4,-20
1532116825452,8,-34,-22,-5,61,-11,-4,7
1532116825457,-12,4,1,1,-23,20,14,8
1532116825462,3,-14,-6,-6,-11,-4,-6,-3
1532116825467,-1,4,1,3,48,19,4,1
1532116825472,2,13,6,-6,-62,0,7,-1
1532116825477,5,-9,-2,-7,-32,29,0,13
1532116825482,-14,-24,-13,5,53,18,-3,9
1532116825487,-6,-8,-5,-6,-26,81,-25,-42
1532116825492,-17,-4,2,-6,6,74,-6,8
1532116825497,17,5,1,1,9,126,19,1
1532116825502,4,13,8,-1,-30,47,13,10
1532116825507,-4,-11,-7,-3,10,-37,-41,-19
1532116825512,0,3,8,7,4,-85,34,2
1532116825517,14,33,9,-4,-1,-106,40,20
1532116825522,-31,-26,-21,-2,-27,-95,-4,-29
1532116825527,0,-7,-7,-2,13,-92,11,-11
1532116825532,1,-1,0,3,1,-74,-21,-1
1532116825537,1,4,3,-3,-25,-66,-13,-8
1532116825542,6,32,8,-5,-32,-51,5,5
1532116825547,9,-17,-7,2,51,-41,-2,13
1532116825552,-7,54,35,2,-4,-12,-16,-5
1532116825557,5,-17,-5,10,16,-27,4,12
1532116825562,-1,-9,-13,-6,-18,-17,-2,-11
1532116825567,1,-6,-13,-8,-19,0,-1,30
1532116825572,9,-4,-6,2,-15,-2,9,-16
1532116825577,6,12,16,10,23,-16,2,-7
1532116825582,0,4,10,-3,-1,-3,-2,11
1532116825587,-9,24,2,0,22,5,9,-14
1532116825592,-5,-26,-2,3,26,3,2,-3
1532116825597,-12,-9,-10,-7,-26,-6,-27,-17
1532116825602,7,-12,-2,-2,24,2,4,5
1532116825607,0,10,7,1,-23,4,13,22
1532116825612,-2,2,-4,0,5,-2,-1,-33
1532116825617,13,-9,-9,-7,-38,0,-10,5
1532116825622,-2,12,9,12,70,3,2,0
1532116825627,6,-3,5,-3,-17,3,24,20
1532116825632,-11,-17,-7,2,31,2,-14,-5
1532116825637,1,-3,-6,-3,-9,0,-4,14
1532116825642,12,10,3,-5,-24,-6,-6,-12
1532116825647,-22,-22,-4,0,-8,2,1,15
1532116825652,25,-11,-13,1,14,3,-2,9
1532116825657,-24,5,5,-2,-1,-3,-4,-50
1532116825662,2,19,-1,1,4,3,-4,9
1532116825667,-4,-31,-4,-1,-8,3,0,-12
1532116825672,2,1,-6,-8,-41,-1,0,17
1532116825677,0,-5,-4,1,55,-4,-4,-6
1532116825682,0,0,-2,-7,-42,2,-6,1
1532116825687,6,8,4,4,7,0,11,-3
1532116825692,-3,0,3,10,-7,-1,1,0
1532116825697,0,3,0,-2,1,0,0,4
1532116825702,-9,-15,-11,-2,-1,-1,0,1
1532116825707,5,2,3,-4,-5,0,-5,-20
1532116825712,-3,14,6,-4,-11,-3,-5,11
1532116825717,-6,-7,-9,1,8,-5,-5,0
1532116825722,2,-2,0,-1,-11,5,-1,4
1532116825727,-2,-17,-9,-2,-8,-2,-4,-11
1532116825732,-5,6,-2,-4,2,1,1,5
1532116825737,0,13,0,-6,-10,3,0,2
1532116825742,4,7,16,0,6,1,-2,-5
1532116825747,1,-17,-14,5,8,3,1,2
1532116825752,-7,-12,-12,-1,46,3,2,3
1532116825757,0,-12,3,3,-14,1,5,-2
1532116825762,1,9,6,0,-4,-3,-3,2
1532116825767,7,18,-1,-4,-8,-1,-1,0
1532116825772,-12,-5,-11,-7,-15,4,1,0
1532116825777,-3,6,-1,-4,-5,0,-6,-4
1532116825782,-6,0,1,-3,-16,0,-2,-1
1532116825787,6,10,9,12,43,1,2,4
1532116825792,2,-21,-5,1,-26,1,1,1
1532116825797,-8,-7,-1,0,40,-1,0,-2
1532116825802,-1,-13,-5,-5,-9,-1,-2,-3
1532116825807,5,1,-3,-8,-44,-2,-2,5
1532116825812,10,35,11,11,41,1,-2,10
1532116825817,-2,-42,-2,-2,-9,-3,0,-11
1532116825822,-12,-12,-7,3,51,1,-2,-15
1532116825827,-3,16,0,-9,-36,0,-2,-1
1532116825832,-10,-13,-7,-4,-41,1,-4,-14
1532116825837,7,13,1,-2,29,-1,6,46
1532116825842,-1,3,5,9,-7,-1,6,10
1532116825847,-1,0,1,-2,-30,-7,-3,-20
1532116825852,8,10,-1,-8,-4,-110,0,38
1532116825857,0,4,0,-3,-48,-51,-3,-11
1532116825862,4,-9,-9,-11,-33,-19,-3,5
1532116825867,-7,9,11,19,66,25,3,10
1532116825872,-10,-6,1,-4,-57,49,0,-13
1532116825877,18,6,-4,-9,-17,-52,6,0
1532116825882,-16,-11,-8,4,86,-12,-6,-6
1532116825887,-5,-5,-2,-9,-58,14,-9,-5
1532116825892,9,2,5,9,56,44,-12,-9
1532116825897,8,6,0,8,26,50,-6,-29
1532116825902,-1,4,-5,-11,-24,35,1,9
1532116825907,4,0,1,2,14,69,-1,0
1532116825912,-21,-11,-5,-4,-56,48,10,4
1532116825917,1,11,7,6,38,40,-1,-25
1532116825922,6,-1,-15,-9,-55,37,9,-6
1532116825927,-4,-18,3,8,22,22,-17,-2
1532116825932,12,12,2,-5,14,8,-19,9
1532116825937,-17,-17,-9,2,-12,3,-11,10
1532116825942,3,4,7,4,-23,-32,-3,4
1532116825947,15,12,1,-10,-26,-45,15,2
1532116825952,-5,-8,-12,1,16,-14,28,-2
1532116825957,-18,-4,4,7,11,-20,19,-3
1532116825962,0,5,3,-1,2,-18,-3,-5
1532116825967,-8,7,-5,-9,-27,-21,-7,10
1532116825972,13,-9,8,-4,14,-14,-14,12
1532116825977,9,39,3,1,-21,3,-6,-47
1532116825982,2,-39,1,4,4,0,-2,15
1532116825987,-4,-1,-7,-3,-3,-13,-4,-9
1532116825992,-8,-17,-2,2,-2,-7,-1,-9
1532116825997,2,8,-4,-6,0,7,-3,10
1532116826002,1,15,8,2,6,4,-8,-35
1532116826007,-6,-8,1,2,24,-17,-3,7
1532116826012,-6,3,-2,0,-12,-5,21,-5
1532116826017,-3,1,2,-2,-14,8,5,8
1532116826022,9,12,3,-2,-6,-4,0,12
1532116826027,-3,-11,-6,-1,18,-7,-14,0
1532116826032,-1,7,-2,-2,-10,0,18,-10
1532116826037,-10,-20,-12,-10,-16,6,12,-9
1532116826042,0,5,0,3,3,-3,-1,14
1532116826047,-6,-17,-5,-5,-9,-3,-15,-22
1532116826052,11,12,9,-3,-7,2,33,20
1532116826057,3,-5,2,10,40,1,-2,3
1532116826062,-12,-5,-7,-3,9,2,5,-1
1532116826067,3,12,5,4,1,-2,-1,11
1532116826072,0,-1,-5,-11,-5,0,-23,-24
1532116826077,-6,2,-2,-3,-18,0,-6,19
1532116826082,3,-22,-1,-1,5,1,3,1
1532116826087,2,-2,-4,2,-10,-4,9,-2
1532116826092,-3,1,1,-4,-5,1,-43,-12
1532116826097,-6,-17,-8,-6,-15,2,35,7
1532116826102,13,33,12,2,11,2,-14,14
1532116826107,2,0,-8,-6,10,-5,28,-6
1532116826112,-3,-7,0,3,-10,-4,-7,-6
1532116826117,-5,11,4,-6,-26,0,-36,-6
1532116826122,-2,-15,-4,7,-4,0,-25,15
1532116826127,-1,16,10,1,-12,2,22,10
1532116826132,53,33,-3,-6,39,-2,10,31
1532116826137,-50,-51,-1,13,-1,1,-16,-31
1532116826142,-3,-10,-6,-9,-18,-1,-1,-14
1532116826147,-16,-1,-2,-5,7,-2,29,-10
1532116826152,-7,-3,-4,-15,-7,1,-9,5
1532116826157,27,20,17,93,33,0,15,9
1532116826162,-2,-6,-23,-90,-41,0,-6,-4
1532116826167,-6,-4,-1,17,3,0,-30,-9
1532116826172,-5,-5,-1,1,-58,-2,-19,-15
1532116826177,66,18,-1,-12,37,-1,19,27
1532116826182,-75,-21,3,32,52,-2,4,-9
1532116826187,8,18,2,0,-9,-1,4,5
1532116826192,-30,8,5,-4,-5,-2,7,-5
1532116826197,92,32,1,-13,2,-1,-11,10
1532116826202,-67,-46,-2,8,-22,-3,32,-12
1532116826207,2,-36,-14,-20,14,-1,30,24
1532116826212,-32,-24,-3,18,14,-4,-4,-7
1532116826217,-8,6,4,-19,-12,0,-25,-4
1532116826222,81,61,8,11,-1,-4,0,14
1532116826227,-29,-50,0,10,13,-4,-32,-5
1532116826232,-11,-9,0,2,-19,3,-4,-9
1532116826237,-2,0,0,6,-30,-1,6,7
1532116826242,28,12,-4,-14,11,0,13,4
1532116826247,59,53,6,4,-16,1,-38,-2
1532116826252,-62,-33,-2,4,31,-1,11,0
1532116826257,-11,4,-8,-26,-25,0,-10,-3
1532116826262,-28,-21,-2,25,6,5,-10,-13
1532116826267,36,39,7,0,16,-3,5,3
1532116826272,-11,-19,-3,-5,2,0,-2,-10
1532116826277,-17,-14,-3,3,-14,-1,1,10
1532116826282,3,4,-1,-5,-59,-3,-1,-5
1532116826287,-3,16,6,7,40,3,1,5
1532116826292,16,13,-6,-3,-11,1,-10,-4
1532116826297,-20,-14,-2,-7,-6,3,9,-1
1532116826302,22,17,-1,5,-3,2,-10,3
1532116826307,-5,-18,-5,-11,-14,0,9,-17
1532116826312,18,-5,1,14,21,2,6,7
1532116826317,-12,-7,-1,-9,-3,-1,-25,-28
1532116826322,15,-22,0,1,10,2,-5,17
1532116826327,-15,20,2,12,0,0,17,19
1532116826332,-3,4,1,-4,38,-4,2,8
1532116826337,20,11,1,-7,-7,-2,-2,10
1532116826342,-11,-14,-5,5,7,-5,-1,-19
1532116826347,-15,-13,-1,4,7,-2,-11,-7
1532116826352,33,16,0,0,-31,-3,-4,1
1532116826357,-24,-9,-4,-23,-17,2,7,5
1532116826362,9,15,11,18,32,0,-1,-7
1532116826367,-3,11,2,-8,-21,-2,6,-7
1532116826372,14,-14,1,2,-10,1,2,-3
1532116826377,-26,-37,-23,3,30,2,-5,-6
1532116826382,-8,2,-3,-1,-9,1,-14,2
1532116826387,8,-1,2,-2,0,0,-7,-5
1532116826392,32,32,6,0,33,1,13,9
1532116826397,-12,-18,-1,-4,-1,-2,-2,1
1532116826402,-11,-1,-1,0,-11,1,-4,-11
1532116826407,-6,-5,-2,-9,-12,-3,-8,-4
1532116826412,-7,-2,-1,-3,-14,-2,-1,-5
1532116826417,-2,-1,0,-9,-21,1,3,12
1532116826422,8,30,8,4,34,1,7,12
1532116826427,-10,-26,-3,1,-23,1,-15,-26
1532116826432,-8,-8,-10,-5,-24,1,19,4
1532116826437,31,36,5,-2,-31,-1,-11,2
1532116826442,-27,0,1,3,33,-1,11,-10
1532116826447,12,-6,4,2,-2,-2,1,15
1532116826452,-5,-14,-7,0,3,1,-9,-5
1532116826457,-27,-14,-1,1,16,-3,-1,-6
1532116826462,21,18,0,-2,-8,-5,-5,2
1532116826467,-7,1,0,-4,-4,-1,15,3
1532116826472,8,7,4,15,6,-3,-9,-3
1532116826477,-5,3,-3,-24,28,-2,-4,-1
1532116826482,1,-2,0,2,-6,1,7,2
1532116826487,-6,1,-8,-12,-62,1,-3,2
1532116826492,-4,-9,3,2,26,0,-12,-7
1532116826497,-8,1,-1,12,9,-2,5,-5
1532116826502,11,-21,-4,-5,-36,1,4,3
1532116826507,-10,-13,-2,-3,21,-2,7,-6
1532116826512,39,22,7,3,-7,-1,-3,-5
1532116826517,-4,2,4,6,-3,1,6,10
1532116826522,8,-39,-9,-3,-2,-4,-2,-1
1532116826527,-20,-4,1,1,-2,2,-7,-2
1532116826532,-17,-10,-5,-2,5,0,-2,-5
1532116826537,1,5,1,-2,-34,-2,-7,-3
1532116826542,9,11,3,4,9,-1,-7,-4
1532116826547,8,7,2,4,9,3,-3,3
1532116826552,-15,-2,3,-1,7,-2,9,5
1532116826557,1,-10,-17,-12,-30,0,1,-2
1532116826562,-5,2,0,2,-1,-1,-2,1
1532116826567,15,3,3,4,27,-3,17,5
1532116826572,-6,1,-6,-5,-23,0,0,-4
1532116826577,-10,-2,0,9,17,-2,-3,-5
1532116826582,-3,-3,-3,-2,-5,-1,5,-1
1532116826587,7,3,0,-3,3,-3,-7,3
1532116826592,-2,2,2,-4,-10,-3,1,2
1532116826597,-5,-1,3,3,-10,-4,3,-1
1532116826602,47,44,1,3,22,-2,-18,-6
1532116826607,-45,-50,-9,-2,-12,-4,24,-1
1532116826612,13,9,-1,-7,-17,3,3,5
1532116826617,-4,19,0,-2,3,1,3,0
1532116826622,42,0,5,0,10,-1,5,6
1532116826627,-64,-13,-1,0,13,0,-17,-15
1532116826632,15,7,-2,-2,-13,1,-4,1
1532116826637,-15,-20,-2,-1,5,-4,-3,-2
1532116826642,-9,3,1,1,41,3,5,2
1532116826647,20,11,-1,4,8,1,-3,-1
1532116826652,2,-6,4,1,3,-1,3,9
1532116826657,-10,20,5,0,10,1,5,-5
1532116826662,-21,-22,-17,-7,-29,5,10,-7
1532116826667,9,6,-4,-4,-19,0,-9,-1
1532116826672,-12,4,2,-1,-4,-1,-5,-4
1532116826677,24,4,5,5,5,1,1,9
1532116826682,-17,-11,1,-8,-26,-4,-15,-9
1532116826687,6,10,3,11,9,-1,-4,-1
1532116826692,2,-3,-6,-13,-5,-1,-20,-1
1532116826697,-2,-8,0,0,28,1,30,-1
1532116826702,-8,-3,0,-8,-29,0,5,8
1532116826707,10,8,3,15,-18,0,-12,0
1532116826712,-11,-4,-8,-20,-17,0,5,-8
1532116826717,0,-11,2,13,55,-1,-9,0
1532116826722,-10,-3,-7,-9,-18,-3,4,0
1532116826727,16,7,4,0,17,-1,1,0
1532116826732,-6,-3,5,4,-19,3,2,-2
1532116826737,1,0,-6,-6,-15,4,-4,-4
1532116826742,-5,-1,-2,-3,-35,-1,4,1
1532116826747,6,6,-1,-3,36,-2,0,4
1532116826752,-8,-5,2,5,10,1,2,-8
1532116826757,98,82,1,-4,-9,-6,-1,19
1532116826762,-107,-92,-7,9,15,0,-1,5
1532116826767,-4,10,-7,-11,-24,2,-1,-11
1532116826772,-8,7,-1,-3,24,1,-4,-27
1532116826777,1,-33,-12,-10,-45,1,-4,23
1532116826782,32,30,9,4,40,-1,3,-26
1532116826787,6,-7,-4,-5,-40,-1,-1,5
1532116826792,-12,-6,1,2,-7,0,4,10
1532116826797,-20,-4,4,-1,6,0,-13,-10
1532116826802,34,13,-3,-4,-23,0,-4,-10
1532116826807,-25,-12,-2,-5,21,-3,0,5
1532116826812,3,14,4,6,7,-3,8,1
1532116826817,-28,-23,-4,-6,-11,-2,-8,-15
1532116826822,13,9,1,2,-29,0,1,10
1532116826827,19,9,1,-2,6,3,-2,-9
1532116826832,5,-1,1,-1,-16,-2,-1,25
1532116826837,-14,-13,0,2,-1,-4,-6,-25
1532116826842,-5,-1,-10,0,3,3,-9,-1
1532116826847,9,4,-2,-8,-6,-1,-9,6
1532116826852,0,-13,1,10,1,1,12,6
1532116826857,-15,-47,1,-6,-3,-1,14,6
1532116826862,4,13,6,4,22,-4,12,0
1532116826867,2,-5,-4,-4,-20,-2,4,-9
1532116826872,-15,-36,-2,-2,15,0,-16,-9
1532116826877,2,10,2,2,2,0,-5,-3
1532116826882,1,17,-2,-8,-32,-2,-4,30
1532116826887,-1,29,-1,4,12,0,9,-46
1532116826892,-2,27,-5,1,0,-1,0,0
1532116826897,-5,13,-3,-2,1,2,-5,-3
1532116826902,2,6,2,-3,-3,1,-7,4
1532116826907,1,11,3,3,-9,-1,3,7
1532116826912,5,7,-1,1,4,1,3,-5
1532116826917,8,0,0,-3,-11,1,2,39
1532116826922,4,-3,-1,-2,1,-4,-6,-16
1532116826927,-4,-4,4,0,11,-3,-3,-13
1532116826932,-8,2,-3,3,-7,-3,-1,-22
1532116826937,-7,-20,-1,-5,5,-2,-10,-21
1532116826942,-5,15,-2,-6,-35,-2,4,34
1532116826947,25,12,1,-3,12,-2,-15,-24
1532116826952,-23,6,-3,0,18,-3,-5,-13
1532116826957,1,-5,-4,-1,-9,0,-3,9
1532116826962,-1,-4,0,-1,-8,-2,-5,9
1532116826967,-6,-5,-2,-2,20,0,11,28
1532116826972,11,4,-1,-5,-24,1,2,-37
1532116826977,-7,-25,-18,-1,28,1,12,37
1532116826982,7,-11,-2,-5,-65,0,5,0
1532116826987,-1,-5,5,4,39,-2,4,-7
1532116826992,-10,-3,6,1,3,1,-13,0
1532116826997,-6,-13,-2,-5,0,4,-10,3
1532116827002,5,-10,-7,-2,-42,1,-19,-5
1532116827007,-11,-5,-2,3,-15,-1,-4,13
1532116827012,-4,-2,3,-1,6,0,0,-11
1532116827017,-4,3,6,4,27,1,-14,-13
1532116827022,0,0,1,-2,-10,-3,-4,-4
1532116827027,-1,-1,3,-3,-11,0,-7,0
1532116827032,6,-6,-5,0,15,2,17,10
1532116827037,3,5,1,0,-24,0,-13,-4
1532116827042,5,4,2,-5,27,-2,21,-7
1532116827047,-1,2,1,1,3,-36,-1,-2
1532116827052,6,2,-1,2,8,-114,2,23
1532116827057,-1,-4,-4,-8,-32,-87,-1,-23
1532116827062,-3,-2,-3,2,17,-54,6,-2
1532116827067,-1,-2,-5,-1,10,2,-3,-8
1532116827072,-5,-2,0,-5,-8,-94,-4,9
1532116827077,0,6,1,5,17,-98,9,2
1532116827082,18,0,-2,-1,12,-17,-4,0
1532116827087,-7,2,4,0,-19,50,8,16
1532116827092,-3,-8,-4,-10,-12,127,-16,-41
1532116827097,-8,5,5,12,21,127,20,27
1532116827102,-8,-4,-4,0,0,116,-3,8
1532116827107,-3,1,-1,-3,-14,113,-15,-24
1532116827112,-8,-2,1,-1,1,127,2,6
1532116827117,20,2,4,-1,8,127,-1,11
1532116827122,-2,1,-1,-2,-1,44,1,1
1532116827127,5,2,-2,-1,0,-38,0,2
1532116827132,-5,-2,-1,-1,7,-66,-7,-28
1532116827137,-4,-2,-9,-6,-28,-86,-7,12
1532116827142,23,5,5,8,11,-81,0,-2
1532116827147,-24,-3,-4,0,2,-84,2,-14
1532116827152,5,-1,0,-5,16,-65,4,-8
1532116827157,-18,0,0,1,-1,-46,-6,4
1532116827162,-4,-1,1,-1,-12,-41,2,5
1532116827167,4,-1,-3,-7,-5,-39,3,5
1532116827172,7,2,-3,3,9,-11,13,6
1532116827177,6,0,-2,-7,-22,-8,-2,-6
1532116827182,-8,-3,-2,-2,-1,-11,-26,-19
1532116827187,3,-1,-2,2,8,-5,-2,14
1532116827192,-2,0,-3,-3,-17,8,-2,1
1532116827197,4,2,3,-5,23,-3,-9,3
1532116827202,-13,3,1,1,-25,-4,1,-8
1532116827207,12,-2,-5,3,0,0,0,13
1532116827212,4,5,2,-1,-2,3,1,22
1532116827217,5,8,1,3,8,-1,1,-8
1532116827222,-12,2,0,-3,15,1,1,1
1532116827227,-2,-1,-4,-7,-27,-3,-4,-7
1532116827232,1,1,-1,8,31,2,6,5
1532116827237,-3,-6,-1,-2,-4,-5,-2,-4
1532116827242,-3,-5,1,0,24,-1,4,-7
1532116827247,3,-2,0,4,-32,-2,15,-1
1532116827252,0,-5,2,0,-12,-2,3,5
1532116827257,-2,0,2,2,24,2,6,-4
1532116827262,-2,-5,-4,-2,-15,2,-5,1
1532116827267,5,0,3,-3,-1,-3,-7,-2
1532116827272,-4,-1,2,3,-24,1,-4,6
1532116827277,-2,-7,-8,-4,37,1,-7,-9
1532116827282,2,-2,-4,3,-22,-4,2,0
1532116827287,-3,-2,1,-5,0,-4,-5,-2
1532116827292,0,6,5,6,17,0,6,7
1532116827297,-1,-2,-1,1,-29,-2,-4,-5
1532116827302,-1,-1,-2,-4,10,-5,0,-1
1532116827307,-3,-1,-1,-2,3,-2,0,-3
1532116827312,2,1,0,-8,-12,1,-5,2
1532116827317,1,-1,0,2,0,-4,-2,-3
1532116827322,-3,0,1,2,7,-1,0,3
1532116827327,2,0,1,1,3,-6,-6,-5
1532116827332,-4,-2,-4,-1,-9,-2,-4,-3
1532116827337,1,0,-1,-2,12,-2,4,1
1532116827342,-10,-3,-1,-6,-30,-5,-9,-3
1532116827347,7,-1,2,4,23,-3,8,-10
1532116827352,12,-2,-3,-5,-2,2,-2,6
1532116827357,-15,-3,3,3,23,-2,6,-6
1532116827362,8,0,2,1,1,4,2,4
1532116827367,-7,-1,-2,1,-8,0,-5,0
1532116827372,-4,-6,-7,-4,-8,-2,-1,-4
1532116827377,0,-1,-3,-4,8,-1,-5,0
1532116827382,-5,0,1,-4,-10,-2,0,14
1532116827387,-12,6,9,3,-11,1,2,-31
1532116827392,-9,-1,-1,4,22,0,-1,-14
1532116827397,15,2,-3,-1,-31,-1,-3,0
1532116827402,-1,-4,1,1,-4,2,-5,-6
1532116827407,5,-1,-3,-4,-2,4,3,13
1532116827412,-6,-1,0,0,8,-2,1,-3
1532116827417,1,3,3,3,11,0,7,3
1532116827422,3,2,-5,-2,8,-2,-2,-3
1532116827427,0,-2,-5,-4,-1,1,-1,8
1532116827432,-4,-1,2,-6,-10,2,-5,-1
1532116827437,-6,-4,-4,3,-3,1,-13,-8
1532116827442,6,0,1,-7,-11,-2,0,-1
1532116827447,-9,-2,-3,-1,17,1,3,4
1532116827452,8,2,-1,-2,-15,2,3,8
1532116827457,3,-2,0,2,-25,-1,-3,2
1532116827462,-4,-2,-1,-4,24,-1,7,-7
1532116827467,0,-3,-1,-3,13,-2,1,3
1532116827472,-3,-4,-1,-7,-28,-3,-8,4
1532116827477,-1,-2,0,1,-12,-1,-2,-13
1532116827482,-2,-4,-3,4,28,0,0,-4
1532116827487,-1,0,-2,-5,-30,0,-6,1
1532116827492,3,5,7,7,22,-1,6,5
1532116827497,-3,1,0,1,-15,2,-3,3
1532116827502,-3,1,-3,-4,10,-1,2,0
1532116827507,14,3,0,2,-13,-2,8,6
1532116827512,-11,-2,-6,-2,43,1,-11,-5
1532116827517,14,0,1,-8,-33,-6,-2,7
1532116827522,-33,-9,-8,-1,-1,4,-7,-4
1532116827527,10,5,4,3,-25,-2,6,-7
1532116827532,10,2,2,-10,-1,-2,5,8
1532116827537,0,0,1,10,53,0,3,5
1532116827542,3,-1,-3,-4,-22,-1,-4,-1
1532116827547,-7,-3,0,2,20,-1,0,-1
1532116827552,-1,-4,-2,3,-15,-3,-2,-2
1532116827557,-6,-3,-3,-10,-12,0,-6,-12
1532116827562,8,6,5,9,16,1,14,6
1532116827567,-3,-1,-2,4,14,0,-2,-1
1532116827572,3,-2,-4,-1,-17,-4,0,-3
1532116827577,-5,-1,-3,-7,-13,0,6,3
1532116827582,-3,0,2,0,3,-1,-4,9
1532116827587,9,-1,-3,0,17,1,-2,-23
1532116827592,-6,-3,-2,-3,-12,-1,1,0
1532116827597,-5,-3,1,0,2,-1,-4,-8
1532116827602,-3,-5,-6,-4,18,-3,-11,-7
1532116827607,7,8,9,0,-47,4,11,16
1532116827612,-3,-2,-1,11,-9,0,1,1
1532116827617,4,3,3,-1,13,0,6,3
1532116827622,14,3,1,4,-4,-1,6,5
1532116827627,-42,-8,-7,-6,20,-2,-10,-14
1532116827632,4,0,-2,-4,-6,0,-9,-13
1532116827637,-12,-1,1,-3,-9,-2,4,8
1532116827642,30,1,0,6,-8,1,0,6
1532116827647,-2,-3,0,-7,6,0,-12,-26
1532116827652,-2,4,-2,3,1,0,6,26
1532116827657,0,-8,-6,-2,2,-2,-1,0
1532116827662,0,-1,4,-2,-12,-1,-2,19
1532116827667,-5,0,-2,-11,5,-2,-2,-20
1532116827672,-3,-2,-11,-18,-2,-5,6,-8
1532116827677,1,2,-7,0,-1,0,-7,-5
1532116827682,-2,2,-2,-2,-4,-5,26,-11
1532116827687,4,0,6,13,2,-4,-6,7
1532116827692,-1,-2,2,4,11,-2,-1,-8
1532116827697,-1,1,1,-2,-9,1,1,5
1532116827702,-7,-2,-3,-5,-5,-1,-7,-8
1532116827707,4,-4,-6,1,12,-5,-2,9
1532116827712,-2,-1,-2,-4,2,-1,-4,4
1532116827717,6,2,2,-1,-6,-5,-5,0
1532116827722,-2,-2,5,6,-4,-3,-7,-10
1532116827727,20,0,3,5,-1,1,3,21
1532116827732,-15,-7,-9,-12,-14,1,-5,-11
1532116827737,-2,-1,0,6,-11,1,-1,-8
1532116827742,-1,-2,-2,0,10,-2,-2,-3
1532116827747,0,-2,-6,-11,-71,-30,0,11
1532116827752,5,0,7,10,74,-113,0,-2
1532116827757,-2,-1,0,2,-14,-125,4,-1
1532116827762,-19,-1,-2,0,53,-128,1,13
1532116827767,24,5,1,-2,-2,-128,0,-3
1532116827772,-7,14,5,0,-39,-118,1,-21
1532116827777,1,-23,-15,-13,-22,-19,-6,-4
1532116827782,-3,-2,-5,-1,12,65,-7,-1
1532116827787,-9,-1,7,11,21,108,25,8
1532116827792,2,2,-1,-14,-26,127,5,7
1532116827797,-2,10,-7,-4,4,101,6,0
1532116827802,4,0,3,7,-21,92,5,-9
1532116827807,-7,-3,-10,-8,16,80,-12,10
1532116827812,3,-2,4,9,-5,73,8,2
1532116827817,-1,1,-2,1,4,57,-3,1
1532116827822,2,-2,-5,-6,-23,41,-6,-5
1532116827827,-3,-4,-5,-3,7,21,-13,-6
1532116827832,1,-6,2,3,4,33,-11,0
1532116827837,1,-3,2,2,1,22,-7,-4
1532116827842,4,7,9,6,-20,6,-8,-1
1532116827847,-3,0,2,-6,15,0,-1,-1
1532116827852,0,-3,-6,0,-22,15,-7,-5
1532116827857,-1,3,4,5,6,8,-1,2
1532116827862,1,1,3,-5,-12,-4,1,-3
1532116827867,-8,-4,0,-2,-10,0,-1,1
1532116827872,-1,-7,-3,-2,-2,10,4,0
1532116827877,0,3,5,8,4,0,1,0
1532116827882,-2,-3,-2,-1,-8,-2,10,-3
1532116827887,-1,-2,-2,1,6,-1,15,-5
1532116827892,1,-2,-1,3,-8,4,14,1
1532116827897,-4,5,-3,-2,29,0,17,1
1532116827902,5,0,4,-5,-18,-1,3,-3
1532116827907,-1,1,-5,-3,3,0,-5,5
1532116827912,-1,-2,-1,3,9,1,-3,0
1532116827917,-3,-2,2,5,-7,1,-12,-1
1532116827922,2,-5,-4,-5,2,0,-9,1
1532116827927,-2,-3,-3,-3,5,-2,-13,-1
1532116827932,0,1,1,4,-5,1,-9,2
1532116827937,0,4,3,2,2,1,-16,1
1532116827942,-3,9,5,1,3,-2,-4,-2
1532116827947,-5,-1,-3,-8,-15,-2,-8,-3
1532116827952,-3,-6,-5,2,3,2,1,-3
1532116827957,1,2,-2,-7,4,1,-2,-1
1532116827962,1,4,0,3,-4,-2,1,-2
1532116827967,-1,6,0,1,-2,-1,4,0
1532116827972,1,4,2,-4,3,2,-1,1
1532116827977,0,-2,2,-5,-16,-1,7,0
1532116827982,-2,-8,-4,-1,18,-1,1,-2
1532116827987,0,-3,-2,7,-5,-1,0,0
1532116827992,1,5,1,-3,0,1,1,1
1532116827997,-1,0,1,1,0,-1,2,-4
1532116828002,0,-5,-3,-6,-54,-1,1,-1
1532116828007,-2,0,4,14,60,-1,1,-2
1532116828012,0,18,3,-6,-6,0,-7,-2
1532116828017,3,-14,4,11,-1,-1,9,5
1532116828022,-32,-26,-23,-31,-23,-1,-11,-12
1532116828027,-28,-22,-8,-1,-9,-1,2,2
1532116828032,59,40,9,5,1,0,-1,7
1532116828037,9,16,4,-5,1,0,-6,-1
1532116828042,11,17,6,9,18,-1,3,2
1532116828047,-9,-8,0,-2,-5,-1,5,1
1532116828052,-21,-25,-3,3,-7,0,0,-4
1532116828057,0,3,-7,-9,17,-2,-1,-5
1532116828062,-5,-10,-5,-4,-4,0,3,1
1532116828067,-3,-25,-3,-16,2,-1,-9,-6
1532116828072,-5,-12,-2,16,-17,-1,-6,-1
1532116828077,12,27,7,-2,4,0,13,7
1532116828082,-5,9,1,-1,0,0,5,-2
1532116828087,-9,4,0,1,8,-1,7,2
1532116828092,2,-29,17,57,-10,0,3,-3
1532116828097,6,49,-23,-83,-57,0,-4,-1
1532116828102,-8,22,-4,15,2,-1,-7,-2
1532116828107,-2,32,-11,-9,-33,0,-9,-2
1532116828112,10,-16,2,12,24,0,-7,4
1532116828117,7,-28,12,27,9,0,-12,-2
1532116828122,-24,0,-1,-6,7,0,-10,-4
1532116828127,5,-34,-4,-20,-10,-1,-7,-1
1532116828132,12,45,1,-18,10,-1,-11,0
1532116828137,6,-116,7,18,2,6,1,5
1532116828142,-3,-72,0,-3,5,51,-11,-2
1532116828147,-8,-12,3,16,-2,78,-2,-1
1532116828152,-5,-2,-6,-14,38,84,-2,1
1532116828157,-2,40,-2,-3,-45,51,-4,-4
1532116828162,-3,15,-2,11,11,25,2,-1
1532116828167,-4,0,-2,-5,1,17,3,-2
1532116828172,-2,28,-7,-16,-1,0,7,0
1532116828177,-2,32,1,11,2,2,-2,-4
1532116828182,4,19,2,1,15,-18,9,3
1532116828187,1,41,-3,7,3,2,5,3
1532116828192,-3,16,-6,-16,-7,-22,-9,-7
1532116828197,1,66,6,19,40,-30,-6,2
1532116828202,3,8,2,-9,-35,15,1,3
1532116828207,-1,17,-2,-9,-5,2,-2,-2
1532116828212,-2,5,-4,-2,2,59,12,5
