1532320742074,-1,5,0,2,-5,-5,-38,-20
1532320742079,1,-6,-1,-2,2,-3,-10,-4
1532320742084,-6,-4,-1,1,2,2,12,-19
1532320742089,2,6,2,3,-3,-1,-21,-3
1532320742094,-3,-12,-4,-1,5,1,-7,2
1532320742099,-3,3,1,3,2,5,-3,11
1532320742104,-9,-6,-3,-5,-7,-6,-22,-54
1532320742109,9,4,1,0,5,8,6,14
1532320742114,-4,-3,-4,-8,-15,-8,-7,10
1532320742119,4,5,1,1,2,-1,5,-15
1532320742124,-1,-3,-1,2,0,1,3,3
1532320742129,-11,-4,-3,-2,-3,-5,11,-7
1532320742134,5,2,-1,0,5,1,-21,-15
1532320742139,-7,-5,0,1,1,0,-6,-6
1532320742144,1,5,-2,-3,-1,-1,8,19
1532320742149,-3,-4,-3,-3,-5,-6,-2,5
1532320742154,-7,-3,-1,-2,-7,0,-5,-7
1532320742159,4,-1,-1,0,-2,0,2,-4
1532320742164,-3,-13,1,-1,-5,-1,-4,6
1532320742169,-4,4,1,0,3,-1,-11,8
1532320742174,-1,1,-2,0,4,-1,-9,5
1532320742179,7,6,-1,-4,-3,4,7,4
1532320742184,3,3,5,3,2,5,53,36
1532320742189,-4,-12,-5,-2,-6,-9,-23,-16
1532320742194,1,1,0,-1,0,-2,-15,-5
1532320742199,2,-3,0,-2,1,-1,7,1
1532320742204,-4,3,1,1,3,3,4,2
1532320742209,0,1,-4,-1,0,0,0,-2
1532320742214,1,1,1,-3,0,2,21,16
1532320742219,-2,2,-2,5,5,0,4,-14
1532320742224,3,-6,-3,1,0,-3,-10,-8
1532320742229,2,7,3,0,-8,-6,-2,-6
1532320742234,-4,-6,-3,0,11,4,-5,0
1532320742239,-1,0,-3,-8,-16,-4,0,5
1532320742244,-4,-3,-2,-7,-5,-11,2,7
1532320742249,3,-2,-1,1,4,9,-7,-10
1532320742254,1,-2,2,2,0,-8,-15,8
1532320742259,-5,-4,0,2,1,-1,-6,2
1532320742264,1,3,-1,2,6,7,-2,10
1532320742269,-4,-4,-3,-8,-13,-11,36,-13
1532320742274,-9,4,0,1,4,-2,-67,9
1532320742279,2,-2,0,1,2,12,22,3
1532320742284,-8,-3,0,2,2,-2,14,22
1532320742289,-1,0,0,3,9,-4,-10,0
1532320742294,4,1,0,-3,-4,-12,12,6
1532320742299,1,-1,-4,-2,-8,-14,-28,-20
1532320742304,1,2,0,-4,0,11,-12,-4
1532320742309,-2,3,-1,0,0,2,8,-1
1532320742314,4,2,0,0,-2,7,20,-12
1532320742319,-7,-6,-1,-2,2,13,25,12
1532320742324,2,2,-3,3,-2,-9,7,2
1532320742329,-8,-27,-4,0,2,-11,-28,0
1532320742334,18,8,0,-3,-10,-5,-1,-2
1532320742339,-1,4,-1,-2,0,-18,-1,7
1532320742344,-1,-2,-2,1,2,34,17,-17
1532320742349,2,0,4,-1,-1,2,-3,2
1532320742354,-1,-3,-3,-4,-3,-17,-17,-5
1532320742359,9,2,0,2,0,9,18,34
1532320742364,-20,-1,-1,-6,-8,5,21,-16
1532320742369,-5,4,2,5,0,-12,-15,-18
1532320742374,-7,-8,-3,-5,5,-1,8,-3
1532320742379,1,8,-4,-4,-2,-17,-27,-9
1532320742384,-4,-3,-2,1,-4,-15,-20,-9
1532320742389,0,3,1,-2,-1,8,9,-7
1532320742394,-9,-3,0,4,3,13,9,-6
1532320742399,-1,-4,1,-2,-3,-1,-4,-2
1532320742404,5,1,1,0,0,-5,-10,-7
1532320742409,-1,1,-3,-2,-5,2,-1,1
1532320742414,-2,0,0,1,0,-3,12,-1
1532320742419,-6,0,-2,-2,-4,5,2,-8
1532320742424,9,-4,-2,-2,-4,6,-6,-5
1532320742429,-1,3,-2,-1,9,7,23,10
1532320742434,0,2,0,0,4,-47,-45,-3
1532320742439,-2,2,0,6,15,32,-7,-4
1532320742444,10,0,0,-5,-7,-6,-26,0
1532320742449,1,-1,-1,9,-17,10,10,7
1532320742454,-3,-2,-7,-11,-15,1,34,0
1532320742459,-1,-22,-7,-16,-22,-1,-14,-31
1532320742464,9,22,0,-13,0,-23,-53,19
1532320742469,-13,-3,-1,2,10,11,-5,-3
1532320742474,-4,-1,0,12,14,23,14,0
1532320742479,-5,-3,0,7,2,-8,4,-4
1532320742484,-3,-8,1,5,8,9,28,2
1532320742489,8,2,1,-3,4,8,8,15
1532320742494,0,4,2,3,-2,-2,-5,-8
1532320742499,-1,2,2,-4,2,-15,-23,13
1532320742504,-3,-3,-2,-1,-1,-4,22,-15
1532320742509,1,5,-2,0,9,-1,-41,12
1532320742514,1,-5,1,-1,-9,20,13,11
1532320742519,2,5,2,-4,-4,-11,22,1
1532320742524,-3,0,0,4,2,-13,-24,-26
1532320742529,-1,-4,0,1,-3,0,-15,-20
1532320742534,6,0,-4,-13,-11,5,5,-38
1532320742539,-11,-7,-3,5,0,0,6,76
1532320742544,3,4,2,4,11,-12,1,12
1532320742549,6,0,-3,-8,-13,-44,14,1
1532320742554,1,3,2,-3,-1,40,-18,4
1532320742559,9,6,-1,-4,-10,-6,-16,-17
1532320742564,-1,-7,-7,-3,-7,7,11,2
1532320742569,-1,0,-3,-2,-2,-18,-9,6
1532320742574,1,-1,0,1,2,-14,31,-11
1532320742579,0,0,0,-1,-2,11,3,-27
1532320742584,-4,-1,1,6,4,3,5,18
1532320742589,-1,0,0,1,-13,10,-2,-16
1532320742594,-1,-5,-9,-9,-3,-14,7,2
1532320742599,-7,2,-3,-12,-1,3,9,-12
1532320742604,-12,-5,0,1,5,7,-5,-11
1532320742609,1,-1,2,4,15,8,0,1
1532320742614,-3,-2,2,8,3,-2,34,9
1532320742619,2,0,1,4,15,12,-3,-7
1532320742624,13,2,-2,-11,-17,-26,5,-14
1532320742629,-13,-4,-5,-8,-11,2,2,5
1532320742634,-3,0,1,7,8,-6,-13,17
1532320742639,1,1,0,-2,3,-8,-3,-16
1532320742644,-5,-6,-2,1,-8,7,-9,-1
1532320742649,6,3,5,-7,11,11,13,1
1532320742654,-5,-2,4,-1,1,-9,-1,8
1532320742659,-2,0,-3,-2,-5,-9,-1,-4
1532320742664,2,1,0,2,-7,2,-9,3
1532320742669,2,3,2,9,20,-29,0,3
1532320742674,-9,-2,-7,-13,-21,16,-12,-17
1532320742679,1,-1,-1,6,-8,47,-2,3
1532320742684,2,0,-4,-8,-9,-52,4,-1
1532320742689,1,1,-2,1,0,0,-23,-13
1532320742694,-7,-3,-2,9,15,-20,-11,-3
1532320742699,6,-2,1,3,7,19,7,-5
1532320742704,-24,-9,-9,-8,2,-7,36,-25
1532320742709,-1,-9,0,2,26,2,-14,41
1532320742714,12,13,6,-3,-32,25,-15,6
1532320742719,6,1,-2,8,-7,-52,-11,13
1532320742724,7,8,4,-2,-7,33,-9,-12
1532320742729,-4,-8,-8,-1,-14,-26,33,-7
1532320742734,-10,-2,4,0,4,8,13,17
1532320742739,-10,-5,-4,1,21,2,-2,-16
1532320742744,4,-2,-1,-12,-14,31,4,-10
1532320742749,-1,8,4,-1,-9,20,-17,-16
1532320742754,2,-1,2,16,31,-17,-5,5
1532320742759,1,4,7,7,3,-22,3,-1
1532320742764,-2,0,-4,-7,-12,13,0,5
1532320742769,2,-5,-12,-13,-9,56,59,10
1532320742774,-3,-6,-3,-10,-2,-76,-17,-14
1532320742779,9,7,11,-3,-33,-28,-12,0
1532320742784,-1,-3,3,13,32,109,23,5
1532320742789,5,4,9,7,12,-9,-5,5
1532320742794,-2,-1,-3,3,-17,-53,-3,5
1532320742799,-10,-6,-11,-12,-11,-4,-1,-4
1532320742804,-1,0,3,2,8,-96,5,6
1532320742809,-6,0,0,0,2,-80,-64,-24
1532320742814,10,-3,-7,-12,-29,104,89,34
1532320742819,4,0,-1,9,31,43,7,10
1532320742824,-3,6,-7,-19,-22,-42,-8,-18
1532320742829,-12,-10,-1,2,8,-15,-5,13
1532320742834,-3,-2,0,2,4,-7,22,-16
1532320742839,-5,-3,-1,-5,10,18,-58,1
1532320742844,3,-2,-3,-1,-36,-15,11,11
1532320742849,1,1,-7,-11,-28,-18,-41,-30
1532320742854,-2,-1,-1,-1,1,7,-37,-14
1532320742859,-10,3,1,8,18,18,35,-2
1532320742864,3,-5,4,15,37,27,-21,2
1532320742869,5,4,1,16,-27,-13,-1,8
1532320742874,0,-7,-8,-30,-14,38,23,-4
1532320742879,-5,-2,-8,-14,-25,-96,-39,-27
1532320742884,-5,-2,-2,5,13,42,14,25
1532320742889,5,-1,3,-1,11,17,10,-6
1532320742894,-2,-4,2,29,21,1,2,4
1532320742899,-2,-3,-9,-19,-23,-20,-15,1
1532320742904,-2,0,3,-2,-9,-30,-18,-7
1532320742909,3,1,0,-7,9,27,27,1
1532320742914,9,3,0,12,33,-2,-31,7
1532320742919,-6,4,7,2,-5,19,44,-4
1532320742924,6,-2,1,1,-26,-23,-37,-1
1532320742929,-1,1,0,-2,32,44,49,0
1532320742934,-26,-8,-1,-8,-11,-56,-79,-20
1532320742939,7,-2,4,21,32,39,5,17
1532320742944,-5,-1,-7,-14,-5,15,35,-2
1532320742949,0,-2,-5,-7,1,-42,-45,-6
1532320742954,13,4,-4,-14,-39,-51,-6,2
1532320742959,5,0,2,5,3,49,12,10
1532320742964,0,-2,-1,1,5,8,10,-1
1532320742969,0,-1,-1,-2,-3,20,55,24
1532320742974,-2,-3,5,5,30,17,-29,-26
1532320742979,-1,-2,-8,8,3,-14,23,3
1532320742984,0,0,3,-10,-14,11,35,2
1532320742989,-2,-1,-2,12,3,-19,-52,-7
1532320742994,-15,1,-2,1,8,-3,-6,-20
1532320742999,6,-2,-6,-15,-15,-14,15,7
1532320743004,9,3,3,7,33,23,-39,31
1532320743009,-4,-2,-3,-9,-27,4,70,-8
1532320743014,6,3,1,-1,-3,22,1,0
1532320743019,-4,-3,-4,-6,9,-8,-35,-35
1532320743024,-13,-4,-6,-1,-24,-57,-8,4
1532320743029,6,5,7,-10,-17,19,-4,19
1532320743034,1,-2,3,4,17,18,12,9
1532320743039,-1,-1,3,1,-21,-11,3,-1
1532320743044,-4,-3,-1,-1,9,-43,-30,-18
1532320743049,-7,-3,-1,0,2,20,-12,-9
1532320743054,2,0,-4,0,-4,-2,-3,1
1532320743059,-2,-3,0,-1,-14,33,13,7
1532320743064,5,2,3,8,37,-12,22,6
1532320743069,2,2,-1,6,-20,-31,-47,-7
1532320743074,2,-3,-6,-14,-6,8,15,3
1532320743079,0,2,0,3,9,13,10,3
1532320743084,-2,-4,-2,5,-6,3,-7,-9
1532320743089,-8,-1,8,17,29,21,24,-9
1532320743094,1,-3,-4,-6,-21,10,2,2
1532320743099,-1,-1,-8,-31,-34,-104,-36,3
1532320743104,-7,-2,-7,-8,-18,66,6,-24
1532320743109,4,-5,-4,-7,8,4,-7,20
1532320743114,3,5,7,13,5,24,8,-9
1532320743119,-12,-6,4,11,15,55,7,-42
1532320743124,-14,-4,2,13,12,13,-12,-37
1532320743129,-2,-2,-5,-7,-11,-1,4,-21
1532320743134,-12,-5,3,14,29,22,26,0
1532320743139,11,-20,-9,2,-24,-12,-7,16
1532320743144,0,-5,-6,-19,-7,-9,-3,-8
1532320743149,-1,2,-2,-5,-9,-5,-17,-12
1532320743154,3,0,5,-2,-4,14,-12,3
1532320743159,-16,2,22,32,42,1,1,35
1532320743164,-74,24,-3,-12,-29,-6,25,-18
1532320743169,66,-9,-4,-25,-20,-13,-33,-18
1532320743174,12,5,1,4,2,3,45,15
1532320743179,13,7,1,1,10,4,-2,10
1532320743184,-13,-5,3,14,8,15,-19,-10
1532320743189,-27,-1,0,4,21,11,31,-6
1532320743194,2,5,-5,10,2,10,-35,-15
1532320743199,-1,-2,-6,-13,6,-16,-4,32
1532320743204,9,-6,4,4,5,19,49,4
1532320743209,-12,-2,-14,-26,-40,-34,-24,-12
1532320743214,16,-1,5,8,10,-43,-29,-2
1532320743219,-11,3,-5,-8,-13,-4,17,-24
1532320743224,16,-5,2,10,18,33,-43,5
1532320743229,-12,-4,5,10,17,12,-11,6
1532320743234,-7,5,-4,-2,-8,34,26,-2
1532320743239,4,3,-2,-14,-13,-2,41,7
1532320743244,18,1,8,12,31,4,-18,10
1532320743249,-4,2,-1,-2,-40,-53,13,-3
1532320743254,-7,-4,-3,-8,-3,23,13,5
1532320743259,-5,-5,-3,-3,-4,-1,-24,-21
1532320743264,19,-1,-4,5,10,50,79,28
1532320743269,-12,-2,2,1,21,-8,-37,-4
1532320743274,-3,-1,-1,8,15,-9,-3,4
1532320743279,4,4,4,-5,-33,-1,-13,-1
1532320743284,-4,-5,-6,-11,-12,-46,-25,-13
1532320743289,-2,1,-4,-1,-1,16,22,8
1532320743294,0,-1,-1,-4,-6,15,27,4
1532320743299,0,0,-1,11,26,-9,-24,-14
1532320743304,-1,-3,-6,-6,-17,-26,-19,-17
1532320743309,-1,0,0,0,2,15,22,9
1532320743314,-1,-4,-1,3,-1,-11,-14,-5
1532320743319,0,0,-3,-2,5,39,-7,-1
1532320743324,5,-1,0,-2,-6,-11,-8,2
1532320743329,-3,-1,-2,0,9,12,9,-1
1532320743334,-5,-1,-2,1,12,-5,-7,-1
1532320743339,3,2,3,3,-5,0,8,1
1532320743344,3,1,1,-3,2,-8,-8,-6
1532320743349,-4,0,-3,-2,-16,-12,11,-3
1532320743354,-2,0,0,-6,-8,-20,4,4
1532320743359,-1,0,1,4,9,-20,-3,-5
1532320743364,2,-3,0,3,-3,-1,-10,-5
1532320743369,-2,-2,0,-1,9,13,10,10
1532320743374,-2,-2,-2,-1,-8,-45,-6,1
1532320743379,0,0,-2,-3,11,67,23,-3
1532320743384,-3,-2,-2,-1,0,-17,-34,3
1532320743389,0,0,0,2,3,24,0,-8
1532320743394,1,-1,-2,-4,0,0,5,9
1532320743399,-3,-1,-2,3,3,-36,-3,-9
1532320743404,-1,-2,-5,-6,-11,-3,-13,-1
1532320743409,-2,1,-2,-4,-1,5,-2,3
1532320743414,0,-1,2,-3,-5,6,-1,-4
1532320743419,-1,-1,-1,0,-2,-14,-18,-3
1532320743424,-1,-2,2,-2,-9,5,1,-1
1532320743429,-1,-2,0,-1,2,1,3,-1
1532320743434,-3,-1,-1,-2,3,5,-1,-3
1532320743439,-1,-1,-2,5,-2,-5,-5,4
1532320743444,0,-1,-4,-8,-3,-2,14,-2
1532320743449,-2,0,-2,2,1,0,-14,-2
1532320743454,0,-2,0,0,-5,3,2,-1
1532320743459,1,-1,-1,1,7,0,-6,-2
1532320743464,-1,-2,-3,-4,0,-2,0,1
1532320743469,-2,-2,-1,1,-11,24,7,1
1532320743474,-1,-1,-1,-1,8,8,-1,3
1532320743479,0,-1,-1,2,-1,-14,-37,-2
1532320743484,0,0,0,-1,-10,-16,2,-1
1532320743489,0,-2,-3,-4,-1,2,-7,3
1532320743494,-2,0,2,0,7,17,29,-7
1532320743499,1,-1,1,13,-1,23,-3,1
1532320743504,-2,-2,-1,-9,-22,4,-2,-5
1532320743509,-2,-3,-3,-10,-3,-4,-7,0
1532320743514,0,-1,-2,0,5,-15,-11,-1
1532320743519,0,0,0,1,-4,-19,-7,0
1532320743524,-3,1,1,9,28,25,37,-8
1532320743529,0,0,-1,-8,-7,-6,-6,3
1532320743534,4,1,2,14,28,-13,-5,4
1532320743539,-3,-2,-4,-19,-51,4,7,-1
1532320743544,-5,-5,-11,-21,-13,-21,-3,1
1532320743549,-2,-2,-1,-1,-3,-13,-17,-6
1532320743554,-1,-1,-1,-2,15,16,16,6
1532320743559,3,2,4,20,3,-12,-25,5
1532320743564,0,-2,0,-1,-4,-5,-26,-5
1532320743569,0,0,-1,1,8,0,16,-3
1532320743574,-2,-1,-2,-2,-14,4,2,-14
1532320743579,1,-1,0,10,33,16,20,4
1532320743584,4,6,9,34,-3,32,-14,-1
1532320743589,1,0,-4,-4,18,-37,12,1
1532320743594,4,2,3,1,6,1,20,5
1532320743599,-1,-2,-1,7,-8,12,-9,-5
1532320743604,-4,-2,-5,-9,-6,-25,-40,-7
1532320743609,-2,0,-2,-2,0,8,0,2
1532320743614,5,3,4,8,17,-5,18,4
1532320743619,-1,-1,-2,-5,-14,2,31,-2
1532320743624,-3,-3,-4,-9,-6,-8,-19,-5
1532320743629,-2,0,0,3,9,9,12,-2
1532320743634,-3,-3,-3,-2,-10,-1,-3,9
1532320743639,2,1,0,-2,14,21,22,4
1532320743644,-2,-1,2,19,-15,-14,-8,1
1532320743649,-1,-2,-6,-20,-11,-12,-23,-5
1532320743654,-1,-3,-5,-10,-1,-5,4,-3
1532320743659,-1,-2,0,0,-20,-13,-6,-4
1532320743664,-1,0,-3,-16,0,14,7,1
1532320743669,1,1,1,11,-3,2,23,3
1532320743674,-3,-3,-5,-10,-8,-10,-10,-5
1532320743679,0,0,0,2,3,-1,-14,4
1532320743684,1,0,2,11,10,7,-9,-4
1532320743689,3,3,2,5,5,-6,10,5
1532320743694,-2,-1,2,-3,-3,-1,0,-5
1532320743699,0,0,1,3,1,-5,-15,-4
1532320743704,-2,-2,-3,-6,-2,5,0,-2
1532320743709,-1,0,-2,0,5,-5,2,1
1532320743714,0,-3,-1,0,1,5,17,0
1532320743719,-3,-3,-2,-3,-4,-3,-11,-5
1532320743724,-5,-3,-2,-9,-10,-16,-40,-6
1532320743729,-6,-1,-2,2,0,-22,-34,-22
1532320743734,1,0,0,2,-1,-2,4,1
1532320743739,-1,-1,-1,-3,0,-3,-8,-4
1532320743744,1,-2,3,-7,-3,12,2,7
1532320743749,5,4,0,8,12,29,42,7
1532320743754,-9,-4,-5,-6,-5,-25,-27,-20
1532320743759,1,-1,0,-6,1,3,11,5
1532320743764,-3,-1,-1,0,-3,-6,-22,-10
1532320743769,2,-2,3,-3,-3,6,12,11
1532320743774,-3,0,4,3,2,0,-12,-2
1532320743779,1,1,-1,2,9,-10,4,6
1532320743784,0,0,-4,-4,-4,10,0,-3
1532320743789,-4,-2,2,2,-2,0,12,-2
1532320743794,1,2,1,3,3,3,-19,-8
1532320743799,-6,-8,-5,2,6,15,35,5
1532320743804,2,1,-2,-8,-6,-25,-38,0
1532320743809,2,-2,-2,-2,-4,-10,13,7
1532320743814,-2,0,-3,-6,-16,-18,-33,-3
1532320743819,2,0,1,2,0,-5,0,2
1532320743824,-3,-2,1,6,10,25,101,-3
1532320743829,4,1,1,2,11,21,-19,11
1532320743834,1,2,3,3,5,11,21,7
1532320743839,-3,0,-4,-1,-1,-5,0,-7
1532320743844,-2,-2,-1,-1,1,-2,7,-2
1532320743849,-2,-2,-3,-2,-4,-13,-16,-4
1532320743854,6,-1,-1,2,3,4,14,5
1532320743859,-4,-2,0,-3,-6,-4,-19,-8
1532320743864,1,2,-1,-2,-2,-6,-19,-4
1532320743869,-3,-2,1,-1,3,4,8,3
1532320743874,-5,-3,-5,-4,-2,-2,-2,-3
1532320743879,7,2,0,-3,-3,0,-5,2
1532320743884,-16,0,0,5,3,-12,-7,1
1532320743889,-3,-2,-2,0,2,22,-35,-11
1532320743894,-2,-3,-5,-6,-11,-2,104,-5
1532320743899,3,2,3,0,-4,-9,-10,38
1532320743904,5,-3,0,1,3,3,-34,22
1532320743909,-3,-5,0,0,2,-8,27,-13
1532320743914,-2,-12,-7,-1,0,-2,-34,-5
1532320743919,21,13,2,-1,-3,15,47,-2
1532320743924,9,-10,-4,-3,-4,-7,-7,4
1532320743929,-13,-10,-5,-2,-5,-19,-17,-10
1532320743934,-8,-3,3,0,0,2,-15,1
1532320743939,-9,1,2,2,1,-2,-12,-8
1532320743944,9,0,2,0,-2,5,1,-7
1532320743949,-2,-4,1,-2,-2,-7,11,0
1532320743954,-18,-10,-16,-1,2,6,9,-4
1532320743959,0,3,1,-2,-3,-16,-53,-11
1532320743964,7,0,-10,0,0,23,104,4
1532320743969,15,18,23,9,7,9,-15,10
1532320743974,-12,4,6,-4,0,-4,-13,5
1532320743979,-13,-13,-26,-6,-2,-1,-1,-9
1532320743984,1,3,20,2,-3,-2,-16,-6
1532320743989,2,16,-5,-5,-5,-10,-1,-5
1532320743994,-26,-15,4,6,8,6,-16,-12
1532320743999,4,-6,-24,-7,3,-8,-27,-3
1532320744004,-15,-8,-16,-9,-5,-3,-4,-8
1532320744009,7,0,-14,-4,-17,-6,6,3
1532320744014,5,20,29,4,0,-14,-28,-3
1532320744019,5,-8,1,-2,-6,3,-19,-4
1532320744024,-2,-10,-6,-3,8,3,3,8
1532320744029,-2,5,14,8,5,2,-3,2
1532320744034,22,3,-7,1,-2,1,-4,2
1532320744039,-4,5,-7,1,3,1,45,13
1532320744044,-3,-14,8,4,2,-3,-56,0
1532320744049,9,-4,-8,-4,-1,5,54,-7
1532320744054,3,0,0,-2,-4,4,12,12
1532320744059,2,4,7,2,-1,0,-1,-8
1532320744064,-7,2,13,0,0,-8,-29,-3
1532320744069,-1,-18,-11,-1,5,-7,-27,10
1532320744074,16,14,-5,-6,-5,16,28,-3
1532320744079,-12,-8,11,-1,-4,0,2,2
1532320744084,0,4,-8,0,4,1,13,-6
1532320744089,-8,-9,0,0,-9,-5,-25,-5
1532320744094,7,3,-8,-4,4,0,-3,9
1532320744099,-29,-31,-2,-6,-5,-15,-33,-16
1532320744104,6,23,-1,-1,-9,-2,16,-7
1532320744109,2,4,3,8,11,4,-7,-5
1532320744114,15,-10,0,-3,0,1,8,37
1532320744119,13,19,39,6,-2,9,12,18
1532320744124,-4,-2,-37,-8,-1,14,12,-3
1532320744129,-58,-12,-1,-4,-2,-16,41,-38
1532320744134,41,-10,1,2,1,-3,-19,-18
1532320744139,21,1,-21,4,13,19,10,62
1532320744144,-7,2,6,0,-4,-21,-8,-33
1532320744149,13,15,5,3,-3,14,33,30
1532320744154,-33,-5,4,1,0,-10,-61,-27
1532320744159,7,4,2,-2,-3,-25,-24,-40
1532320744164,-7,-9,-10,4,3,8,10,18
1532320744169,-15,-8,-5,-4,30,25,21,-20
1532320744174,-16,-8,9,-18,-34,12,39,19
1532320744179,-5,5,-39,-13,-31,-56,-111,-38
1532320744184,5,10,21,0,-6,-31,-55,-3
1532320744189,13,-4,-22,-4,1,6,-22,7
1532320744194,2,8,-10,17,23,23,34,11
1532320744199,-26,-4,7,-1,4,27,35,-39
1532320744204,28,-1,35,8,-5,-1,20,39
1532320744209,-10,-19,-11,-6,2,-9,-11,12
1532320744214,26,23,3,3,4,2,14,-9
1532320744219,-53,-14,29,2,0,-50,-54,-31
1532320744224,8,4,-40,-2,5,9,17,-24
1532320744229,32,0,11,-2,-7,4,20,39
1532320744234,-8,-9,-5,-3,-4,20,62,17
1532320744239,9,8,2,1,6,83,99,15
1532320744244,-17,-9,-12,-7,-3,-38,5,-20
1532320744249,7,17,38,6,1,-40,-103,-4
1532320744254,-20,5,10,5,1,-35,-11,-24
1532320744259,-10,-13,-82,-14,0,17,25,8
1532320744264,-17,2,68,7,2,56,112,-18
1532320744269,49,-3,0,4,-6,-1,-53,43
1532320744274,26,27,13,5,4,-13,-36,37
1532320744279,18,2,34,9,11,-51,-49,-1
1532320744284,-9,-9,-36,7,16,-1,-43,-2
1532320744289,-13,-2,27,7,15,7,3,-3
1532320744294,25,12,4,-4,-12,-13,-33,12
1532320744299,-14,-8,-9,-6,-16,-2,6,-15
1532320744304,2,-2,-22,-4,1,-3,5,3
1532320744309,7,3,29,11,3,3,-7,3
1532320744314,0,-10,-9,-7,23,-11,-82,5
1532320744319,7,14,-45,2,18,18,64,5
1532320744324,-17,-22,-32,-18,-47,-24,-72,-22
1532320744329,-1,10,11,6,-14,-26,70,9
1532320744334,15,-1,28,3,1,52,-42,6
1532320744339,-15,6,17,1,7,-3,3,-6
1532320744344,0,-3,9,-12,14,-18,-75,-10
1532320744349,0,8,-58,-3,-3,17,81,16
1532320744354,2,-14,23,7,-12,-14,-2,-2
1532320744359,-4,1,51,11,30,-1,-25,-5
1532320744364,0,1,-52,1,14,13,33,-2
1532320744369,-4,-8,4,-18,-28,-15,-113,-15
1532320744374,4,-1,5,-1,1,14,125,30
1532320744379,-12,0,-12,-8,-28,10,-33,-6
1532320744384,-1,-4,12,17,34,10,2,3
1532320744389,31,-24,14,5,33,-17,-38,-4
1532320744394,-20,40,23,-11,-50,-6,1,-17
1532320744399,0,-13,-37,-15,-22,-19,-50,2
1532320744404,3,-2,-24,-1,-12,-16,1,0
1532320744409,14,29,74,2,23,18,96,-2
1532320744414,-3,-20,-52,30,42,25,0,17
1532320744419,1,-5,-6,-6,-28,-5,-39,-14
1532320744424,-23,3,20,0,-7,-36,-69,-28
1532320744429,8,-5,-17,-13,-11,-3,34,-4
1532320744434,-2,6,-11,3,12,9,38,15
1532320744439,-6,2,3,-5,10,11,25,-3
1532320744444,6,-12,3,-7,-13,-2,9,-11
1532320744449,-22,-11,-5,-8,-14,-34,-73,-24
1532320744454,-9,2,33,-23,-25,-21,56,0
1532320744459,7,-14,-114,6,-11,-10,-30,-5
1532320744464,-15,0,93,4,0,-8,-13,21
1532320744469,2,7,-14,21,36,74,50,35
1532320744474,-4,-16,-29,5,10,-4,-47,-10
1532320744479,-6,17,64,-2,-5,-9,21,-17
1532320744484,-15,-18,-8,-2,-18,-39,-11,-33
1532320744489,16,24,-15,3,1,25,-23,23
1532320744494,13,-9,-12,-12,16,1,-10,-12
1532320744499,-36,-11,-1,-17,-54,-7,24,-5
1532320744504,2,3,-3,1,-10,-10,51,-40
1532320744509,6,-9,-19,-6,-1,31,55,-11
1532320744514,38,0,14,0,-9,-28,-58,61
1532320744519,-7,-4,10,9,31,-27,-48,-7
1532320744524,11,14,-2,2,7,29,-11,19
1532320744529,-8,-8,6,-4,3,-15,-82,-20
1532320744534,-19,-1,-23,0,1,16,-44,-25
1532320744539,5,-12,36,8,5,16,-13,-25
1532320744544,17,7,-80,-2,14,6,-27,45
1532320744549,-19,-5,32,-6,-6,-20,-50,-15
1532320744554,-5,7,-17,-9,-30,-41,-65,-22
1532320744559,-10,-19,14,-10,8,55,-6,7
1532320744564,14,1,4,13,9,-14,-102,-11
1532320744569,16,0,10,11,6,-24,-97,62
1532320744574,-19,15,7,-8,-3,-8,-128,-42
1532320744579,19,6,-6,3,3,15,-35,24
1532320744584,3,5,12,-5,-6,46,72,10
1532320744589,-9,-2,-14,-5,-9,19,11,-8
1532320744594,-7,-20,-2,7,4,-7,37,0
1532320744599,-19,-9,-12,-7,21,-8,61,-16
1532320744604,10,17,20,2,3,-6,-3,13
1532320744609,5,-3,17,1,-18,-23,28,-17
1532320744614,-35,-10,-25,-12,-3,-8,47,-15
1532320744619,41,8,-45,0,-11,19,33,4
1532320744624,-16,-7,30,-3,-1,-13,46,-9
1532320744629,13,13,2,-1,-27,-2,14,15
1532320744634,9,4,18,7,14,3,-27,-16
1532320744639,33,6,8,0,0,-32,6,58
1532320744644,-35,-4,8,14,17,20,24,-13
1532320744649,-6,-19,-15,-12,-16,4,14,-17
1532320744654,-2,5,-14,2,23,0,62,9
1532320744659,-10,9,4,0,-15,-15,-40,-1
1532320744664,8,0,1,1,-1,40,5,3
1532320744669,-8,-15,-12,-7,26,-62,12,-4
1532320744674,10,-3,-1,-14,-28,-36,27,2
1532320744679,9,5,6,5,3,14,3,-1
1532320744684,-7,-1,-7,3,20,9,-13,-18
1532320744689,14,3,10,4,-3,-9,17,23
1532320744694,-5,-6,-6,-1,2,-7,-8,-4
1532320744699,1,5,-4,8,20,17,15,1
1532320744704,-7,8,-10,-9,4,-25,-21,2
1532320744709,-23,-20,-24,0,-16,-25,1,-65
1532320744714,42,-13,16,-15,-19,16,6,45
1532320744719,43,17,11,8,0,-26,-14,102
1532320744724,35,26,72,16,10,49,-24,13
1532320744729,-29,10,-50,-4,0,-5,13,-18
1532320744734,-28,-2,-13,3,7,-21,-16,-31
1532320744739,-25,-30,-18,-6,8,23,-9,-48
1532320744744,-8,-15,-4,6,-14,-28,29,13
1532320744749,-8,2,21,-4,25,20,41,7
1532320744754,-3,-4,-6,-5,3,31,57,-4
1532320744759,-5,9,1,-8,-20,9,-21,-13
1532320744764,-11,3,-9,-6,-28,-18,-1,-3
1532320744769,3,-4,23,9,9,-19,-23,4
1532320744774,6,6,-5,6,30,3,-35,21
1532320744779,-13,0,-23,-13,8,39,36,-16
1532320744784,-2,-10,-66,-10,-24,14,18,-1
1532320744789,4,10,45,4,12,-29,-24,-9
1532320744794,-13,4,16,1,-27,-19,-30,-29
1532320744799,-19,-12,-1,10,8,3,9,-10
1532320744804,49,-15,-2,2,9,-9,-2,39
1532320744809,34,31,0,1,1,-11,22,34
1532320744814,-8,2,-4,0,10,37,4,5
1532320744819,-18,0,2,-4,-4,-12,13,-29
1532320744824,-19,-5,6,-5,-13,-2,-62,-18
1532320744829,-10,-13,13,6,12,38,79,8
1532320744834,-1,-5,-26,-9,24,-44,-46,-8
1532320744839,3,0,-19,-8,-52,-4,-2,-4
1532320744844,-2,-1,27,0,17,10,5,7
1532320744849,0,-2,2,-2,-12,-21,-47,-8
1532320744854,-8,1,4,1,-31,-18,-1,-8
1532320744859,7,3,7,4,33,52,7,0
1532320744864,0,1,-23,4,12,-4,24,9
1532320744869,-16,-1,6,-4,-3,12,-23,-12
1532320744874,-22,-21,-15,-9,-8,-11,38,-8
1532320744879,25,-7,6,4,-4,-16,-27,-5
1532320744884,-31,26,36,12,17,3,31,-32
1532320744889,62,5,-6,-11,-17,-6,-11,46
1532320744894,23,11,-2,-1,3,26,-4,14
1532320744899,-10,6,2,1,-9,-22,-1,5
1532320744904,-13,-12,-5,3,0,-48,-25,-8
1532320744909,-24,-5,-9,2,14,72,-9,-33
1532320744914,-7,-10,16,15,16,17,9,-1
1532320744919,2,0,-10,-5,13,18,-25,0
1532320744924,1,-6,2,-9,-3,-43,4,-9
1532320744929,-12,0,-10,-15,-36,-20,-43,0
1532320744934,5,0,-1,-6,-29,-8,41,0
1532320744939,-27,3,11,8,-3,12,0,-20
1532320744944,21,5,-8,1,13,16,42,18
1532320744949,17,-5,13,7,10,-10,-1,-3
1532320744954,-21,5,14,0,11,10,-38,-4
1532320744959,18,-4,-23,4,17,-6,32,1
1532320744964,-57,-11,6,-2,-11,-11,-2,-46
1532320744969,37,-9,-8,-5,-15,-11,7,12
1532320744974,18,21,9,7,24,3,15,25
1532320744979,3,7,12,-3,-16,-19,-21,-5
1532320744984,1,-3,1,-3,-16,7,2,9
1532320744989,-25,2,-4,1,25,11,9,-36
1532320744994,-5,-9,-19,-1,-15,-10,10,-10
1532320744999,-2,-4,10,-1,8,-52,-50,1
1532320745004,10,-4,9,-18,-16,37,77,10
1532320745009,-20,-13,-61,-11,-53,-15,3,-6
1532320745014,5,-1,11,-2,15,19,7,9
1532320745019,-4,7,13,11,3,-3,9,11
1532320745024,6,-5,-5,0,2,-4,-16,1
1532320745029,-8,8,15,7,20,-12,-15,-1
1532320745034,11,3,-2,1,-2,4,4,6
1532320745039,-7,-8,-7,-3,-9,-30,-10,-10
1532320745044,12,2,6,2,25,11,-11,12
1532320745049,-7,0,-5,-9,3,10,-1,4
1532320745054,-8,-15,-23,-4,-33,-21,-20,-18
1532320745059,-3,-5,2,3,27,-2,2,-5
1532320745064,1,20,-2,-3,-20,-4,-19,-3
1532320745069,8,5,17,5,7,4,-32,16
1532320745074,2,4,1,-5,13,-3,-7,-11
1532320745079,-10,-9,-11,-9,-39,6,16,29
1532320745084,8,-8,-14,1,10,3,9,14
1532320745089,-8,-1,-5,4,4,-2,-10,-14
1532320745094,-3,-3,2,6,15,6,6,0
1532320745099,-34,-6,-32,-9,8,12,-3,-24
1532320745104,9,-3,6,-10,-40,1,5,-33
1532320745109,12,4,10,3,8,-12,-15,53
1532320745114,15,0,-3,0,-2,-3,-1,23
1532320745119,3,9,9,7,6,9,19,4
1532320745124,-2,-6,-22,3,25,7,-4,-4
1532320745129,-19,-6,9,-5,7,-8,19,-23
1532320745134,-8,-2,-2,-10,-35,-11,0,-5
1532320745139,13,8,13,-8,-15,11,1,2
1532320745144,-2,-5,-8,-2,-14,-8,-22,7
1532320745149,3,2,4,10,14,10,7,-1
1532320745154,-11,0,-4,-4,12,-7,1,-4
1532320745159,-9,-2,2,5,5,3,-5,-21
1532320745164,6,-5,3,7,9,-8,5,0
1532320745169,22,-3,-6,3,-8,-8,1,44
1532320745174,2,8,-10,-6,1,-4,7,-16
1532320745179,-1,-1,21,-11,-14,0,-15,-8
1532320745184,-9,-6,0,-10,-29,-10,-18,-1
1532320745189,-12,-3,2,2,0,-3,-28,-28
1532320745194,-16,-3,0,12,-4,14,-24,8
1532320745199,29,9,4,14,44,3,2,3
1532320745204,-16,-4,-29,-12,6,7,-10,-9
1532320745209,7,0,7,-19,-48,-19,-20,18
1532320745214,19,-3,-3,-4,-2,1,-2,-2
1532320745219,5,-2,6,9,-3,-2,18,8
1532320745224,-4,5,23,19,22,21,20,4
1532320745229,-9,-7,-24,-18,16,-9,-16,-21
1532320745234,-2,-2,7,-9,-9,1,90,5
1532320745239,-4,1,-7,-14,-30,-8,5,-3
1532320745244,12,1,-1,9,-9,2,12,15
1532320745249,-13,-1,7,18,22,19,18,-22
1532320745254,-7,1,5,9,34,-7,-13,-22
1532320745259,9,-4,-9,-14,-27,-9,7,32
1532320745264,4,-2,-5,-6,-3,-9,-30,17
1532320745269,2,5,6,2,13,2,23,-8
1532320745274,-15,-8,-5,-2,-5,-2,-17,-27
1532320745279,11,-12,-10,2,9,-6,-16,1
1532320745284,-14,7,4,7,4,5,5,-5
1532320745289,22,7,1,-4,-3,10,11,6
1532320745294,5,2,4,2,-4,-22,-5,13
1532320745299,-11,-4,0,-7,-9,4,5,-19
1532320745304,-1,-3,14,-10,1,-59,-19,12
1532320745309,-13,3,-14,-2,-23,43,23,-15
1532320745314,1,-10,-11,6,11,4,-37,3
1532320745319,-13,-3,-6,-2,4,22,-13,-17
1532320745324,5,0,6,-3,8,-4,-5,-13
1532320745329,13,-1,-1,3,-4,-10,5,35
1532320745334,5,3,3,-2,-3,3,-9,10
1532320745339,-2,4,-1,4,16,-4,9,7
1532320745344,2,0,-3,-2,-16,-1,24,-16
1532320745349,-12,-8,0,-4,-3,-13,9,-4
1532320745354,11,0,-2,-3,-1,7,6,25
1532320745359,4,12,10,13,21,1,5,-4
1532320745364,0,0,-6,2,14,50,-1,11
1532320745369,-10,-5,0,-11,-27,-19,1,-21
1532320745374,-6,3,6,0,11,-22,-8,-6
1532320745379,-2,2,-9,1,-20,9,1,-1
1532320745384,8,-5,-3,-7,-24,-1,1,6
1532320745389,-20,-6,-7,-6,-6,-7,4,-11
1532320745394,-11,-5,-4,-3,-2,3,-38,-5
1532320745399,9,7,0,7,13,7,1,18
1532320745404,-5,-1,2,8,26,5,-5,2
1532320745409,0,1,12,22,16,-9,11,-11
1532320745414,9,2,-3,-10,-6,5,-5,22
1532320745419,-12,-10,-14,-26,-41,-20,-30,-16
1532320745424,4,-1,-15,-12,-15,3,42,6
1532320745429,-8,-3,8,-4,-7,-7,-13,-14
1532320745434,-2,3,2,16,16,4,12,-11
1532320745439,1,0,12,17,31,9,14,9
1532320745444,4,-4,-11,-10,-18,-14,-15,-3
1532320745449,-1,-1,3,1,1,-4,-9,11
1532320745454,1,2,-7,-6,-3,7,16,-8
1532320745459,0,-5,-17,-2,-12,-2,-4,-4
1532320745464,-2,0,-1,4,10,8,-6,-3
1532320745469,-8,-3,8,8,28,5,-6,-15
1532320745474,3,4,-12,-8,-15,-20,9,19
1532320745479,-4,3,0,-4,-10,-13,-3,-8
1532320745484,2,-2,3,5,10,-4,-11,1
1532320745489,7,1,-4,0,-17,38,2,2
1532320745494,-8,-2,17,-12,9,5,33,-11
1532320745499,-6,-4,-10,-2,-12,-7,-3,0
1532320745504,11,-2,39,7,14,-1,1,7
1532320745509,-1,9,6,-3,24,2,-57,-8
1532320745514,-1,-4,-23,-6,-16,9,20,-3
1532320745519,-8,-14,-7,-9,-28,-10,-5,-8
1532320745524,2,-4,-2,6,3,3,9,20
1532320745529,12,-1,5,7,8,-10,1,-1
1532320745534,2,5,10,7,1,5,-8,-9
1532320745539,5,4,2,-8,7,-6,10,11
1532320745544,-7,-2,-8,1,5,2,3,-12
1532320745549,-5,-3,-6,-9,-18,-9,24,3
1532320745554,-7,-3,-7,0,0,-5,4,-10
1532320745559,9,2,7,9,18,14,7,9
1532320745564,6,3,13,-2,-8,-8,-16,-3
1532320745569,-8,-1,-24,-13,-16,-12,12,0
1532320745574,-3,0,6,-1,-5,6,-8,4
1532320745579,-9,-5,1,1,0,-6,-8,-12
1532320745584,-5,4,1,1,11,-8,-37,-1
1532320745589,3,1,12,3,2,19,62,8
1532320745594,7,-9,-28,-6,-9,-4,22,-2
1532320745599,-1,0,2,-2,10,0,-9,4
1532320745604,-3,3,0,-1,-22,-16,-6,-2
1532320745609,-3,0,7,15,20,-5,-20,-1
1532320745614,6,5,10,-6,3,15,-17,-8
1532320745619,-1,-3,-13,-16,-41,-14,1,2
1532320745624,-1,-3,-14,-11,-7,-8,6,6
1532320745629,-4,-4,-2,-4,-13,-18,-4,2
1532320745634,3,0,5,15,17,7,7,3
1532320745639,-1,2,3,6,18,-28,-11,-16
1532320745644,-4,-3,-7,-1,-2,44,14,11
1532320745649,-3,-1,-3,-3,1,-3,-5,0
1532320745654,1,1,1,-1,-14,3,-20,0
1532320745659,-4,-1,3,-3,1,-20,-63,-13
1532320745664,0,1,-1,1,3,18,107,8
1532320745669,2,0,-7,2,11,3,-17,2
1532320745674,-3,2,7,1,-2,-4,-15,-6
1532320745679,0,1,2,3,-1,8,5,2
1532320745684,-1,-2,-5,0,3,-13,-26,-11
1532320745689,-2,-2,-7,-11,-14,-10,-12,-4
1532320745694,-3,-3,5,1,5,7,39,3
1532320745699,4,0,0,3,15,8,8,2
1532320745704,0,1,-7,3,-7,16,21,6
1532320745709,-3,-3,-5,-14,-2,-10,-1,-5
1532320745714,-3,1,3,-4,-20,-10,-25,-5
1532320745719,3,-2,2,5,4,8,9,7
1532320745724,0,0,2,1,8,-17,-13,-8
1532320745729,-5,-4,0,1,-5,-10,-54,-8
1532320745734,1,0,1,1,8,27,84,0
1532320745739,-9,-6,-5,-1,2,18,-8,-5
1532320745744,0,6,5,7,7,-7,-15,-6
1532320745749,17,3,3,1,2,-4,-8,57
1532320745754,-6,-1,-1,2,0,-5,-34,-7
1532320745759,1,-2,-3,-4,-2,-16,-40,-14
1532320745764,-6,-1,-1,-3,-7,18,77,-13
1532320745769,-9,-2,-4,2,19,4,9,-15
1532320745774,4,3,1,4,-9,-5,-20,-2
1532320745779,-2,0,0,-10,-8,-2,13,-3
1532320745784,-4,-7,-5,-9,-24,-18,-50,-7
1532320745789,1,2,2,7,5,17,13,-8
1532320745794,-3,-3,-6,-14,-18,-35,-73,-6
1532320745799,5,3,2,7,10,34,96,20
1532320745804,1,2,3,3,7,4,-43,1
1532320745809,0,1,-3,2,8,-11,13,-3
1532320745814,-2,-1,0,-10,-20,-3,-23,0
1532320745819,1,0,3,-3,-12,-9,-15,0
1532320745824,7,-5,-30,2,7,-3,-8,-1
1532320745829,-7,-3,28,-7,6,13,16,-4
1532320745834,-2,-2,3,3,13,-8,-7,-5
1532320745839,8,5,12,17,1,4,1,0
1532320745844,-9,-2,8,9,26,3,3,4
1532320745849,-1,-1,-23,-10,-44,-17,-26,-16
1532320745854,-4,-3,3,-10,-4,-6,7,10
1532320745859,4,1,4,-9,-22,0,10,11
1532320745864,-2,0,-1,7,23,-24,-52,-10
1532320745869,-3,-4,-9,-3,-2,6,-15,-7
1532320745874,4,1,1,1,15,35,41,7
1532320745879,-1,-1,-7,0,7,-1,-15,-1
1532320745884,-6,-3,1,-13,-33,-13,-15,-18
1532320745889,-1,0,-1,-1,-3,-23,-25,8
1532320745894,0,-1,-3,8,12,18,-2,0
1532320745899,-8,-2,7,8,12,-20,-66,-13
1532320745904,-3,-8,2,11,-5,11,55,5
1532320745909,11,14,1,-30,-2,36,-16,11
1532320745914,-9,-3,17,11,-5,-11,-10,0
1532320745919,0,-16,-12,-2,2,9,15,-1
1532320745924,-6,7,21,-4,-10,-13,-49,-6
1532320745929,7,-4,0,15,11,-2,3,5
1532320745934,0,-2,-13,-4,1,-3,11,4
1532320745939,-2,1,-3,-9,-10,-17,-37,-9
1532320745944,5,-1,3,2,5,17,67,8
1532320745949,-6,0,-3,6,1,2,21,-4
1532320745954,-1,0,-6,-4,0,-8,-16,-17
1532320745959,3,2,-2,0,-2,0,39,27
1532320745964,0,0,-11,-10,-1,-7,-54,4
1532320745969,3,2,-1,1,-1,3,22,-24
1532320745974,-10,-14,-6,-3,-4,-10,-6,3
1532320745979,-38,3,0,2,10,13,-8,1
1532320745984,6,0,-5,-10,-12,-25,-64,-3
1532320745989,-6,-5,4,6,8,10,26,6
1532320745994,26,11,6,12,5,17,36,2
1532320745999,4,-1,-5,-5,5,6,22,-3
1532320746004,-3,-9,-4,-11,-5,-8,-40,-6
1532320746009,-9,-8,-4,-6,-26,-21,-34,-7
1532320746014,-9,1,-6,1,3,-7,-14,-2
1532320746019,-1,6,-7,-1,0,-10,-47,-8
1532320746024,17,-6,7,9,24,58,107,22
1532320746029,-11,-9,-2,5,5,-5,-29,-17
1532320746034,-2,0,2,-6,-13,-3,20,20
1532320746039,9,-3,0,-11,-9,-8,-23,-9
1532320746044,-1,1,-7,-7,-12,-20,-52,-5
1532320746049,8,2,3,7,10,20,55,9
1532320746054,-3,-1,1,-2,0,-15,-41,10
1532320746059,4,-1,-2,1,-3,0,29,-5
1532320746064,1,3,-6,2,9,8,-19,6
1532320746069,-1,2,6,7,3,-3,9,-8
1532320746074,-15,-1,-4,-3,-4,-13,-35,-15
1532320746079,5,-2,-2,-2,-4,-4,0,3
1532320746084,-9,0,-2,-2,-5,-2,32,-9
1532320746089,-3,-2,-2,-2,-1,-3,-15,7
1532320746094,6,-1,7,-1,-2,-4,-10,-5
1532320746099,3,0,-28,-1,2,7,11,1
1532320746104,-8,2,9,0,-1,0,16,-4
1532320746109,-11,-4,17,-1,-4,-4,-12,-2
1532320746114,9,0,-4,-3,-1,3,2,1
1532320746119,-1,0,9,0,3,5,16,-4
1532320746124,3,8,-10,0,-5,-6,-10,-3
1532320746129,-12,-12,-12,-3,0,-7,-10,5
1532320746134,9,-4,-4,-1,5,3,8,-6
1532320746139,-13,0,2,0,-8,-1,-21,-1
1532320746144,-10,1,-3,-2,-4,-3,-3,-12
1532320746149,1,3,0,-2,0,0,-3,3
1532320746154,14,0,-3,-1,1,6,-4,-9
1532320746159,9,-1,3,1,3,-10,-5,9
1532320746164,2,-3,1,0,0,-12,-7,-2
1532320746169,-1,1,-3,-2,-6,26,22,2
1532320746174,-8,1,-6,-2,0,-17,-20,-10
1532320746179,-2,-1,2,-1,-2,0,6,-1
1532320746184,-6,-2,4,-4,-1,-11,-4,-1
1532320746189,8,-2,-7,1,4,5,2,0
1532320746194,-5,-1,-1,0,1,9,8,2
1532320746199,-1,-2,4,-2,-6,3,12,-3
1532320746204,2,-2,-1,-3,-3,3,1,7
1532320746209,6,1,-6,0,-3,-17,-18,-1
1532320746214,-4,1,1,0,-2,3,2,4
1532320746219,-2,0,2,1,5,1,5,-4
1532320746224,3,-3,-3,-1,4,3,-1,-1
1532320746229,0,4,-5,-3,-9,-6,-2,1
1532320746234,-6,-5,0,-1,-2,0,1,-2
1532320746239,-3,3,0,-2,-1,1,4,0
1532320746244,-6,0,-1,1,3,3,-4,-1
1532320746249,2,-1,0,-1,0,-7,5,0
1532320746254,-1,-1,-3,-1,-2,-5,-5,-1
1532320746259,2,-2,-1,2,1,5,4,0
1532320746264,0,-2,0,-2,-5,8,16,4
1532320746269,2,11,1,0,0,-11,-22,-4
1532320746274,8,-10,-4,-2,-2,-2,9,3
1532320746279,-8,-6,1,-2,1,-4,-11,-5
1532320746284,2,0,0,0,-4,-2,-2,-2
1532320746289,-6,-4,-1,-3,1,1,4,0
1532320746294,11,5,-1,1,2,6,11,1
1532320746299,1,0,-1,0,0,3,0,-9
1532320746304,1,-3,-1,4,-4,-18,-29,6
1532320746309,5,1,-2,-4,1,-1,9,9
1532320746314,-4,0,-2,-3,-4,-7,-14,6
1532320746319,-2,-5,-1,0,0,6,13,-5
1532320746324,-4,0,-1,-2,-3,4,8,-4
1532320746329,3,-4,0,2,0,-6,-6,-1
1532320746334,-4,3,0,0,3,3,5,-1
1532320746339,-2,-1,-2,-3,-1,2,2,4
1532320746344,0,-1,-2,-2,-3,-1,0,-1
1532320746349,0,-1,-1,0,0,-5,-2,-5
1532320746354,-8,-3,-2,-2,-2,-2,1,-10
1532320746359,1,2,0,1,0,-4,-12,-1
1532320746364,2,-2,-1,-2,2,-1,2,1
1532320746369,-2,-2,-3,1,2,3,4,-2
1532320746374,-5,0,-1,-1,-4,-3,-3,-4
1532320746379,1,0,-1,-2,0,-3,-3,2
1532320746384,-2,0,1,0,-1,4,12,-2
1532320746389,-3,-3,-1,-1,1,1,-3,2
1532320746394,-2,0,-2,-3,-3,-2,-1,1
1532320746399,0,-1,-3,-5,-7,-2,0,0
1532320746404,-2,-2,-2,-2,1,-2,-2,-2
1532320746409,1,2,1,2,1,3,8,-2
1532320746414,-2,0,-1,2,2,-2,-9,0
1532320746419,1,1,3,-1,-1,-2,1,1
1532320746424,-2,0,-3,-6,-4,-2,-1,-2
1532320746429,0,-2,-2,-1,-2,-2,-4,-2
1532320746434,3,-1,-2,0,3,3,6,0
1532320746439,-5,-1,2,3,1,0,1,-1
1532320746444,1,0,1,2,3,5,1,-2
1532320746449,0,0,-2,-2,2,-2,-2,-1
1532320746454,-3,-2,-2,-5,-15,-4,-6,-2
1532320746459,2,-1,-2,-2,1,-4,-4,-1
1532320746464,1,-1,0,2,1,-2,-4,-1
1532320746469,-3,-3,-2,0,2,4,4,-1
1532320746474,-7,2,1,0,2,1,-6,1
1532320746479,24,-8,1,1,4,0,-2,2
1532320746484,-5,-2,-1,-2,-4,0,3,-3
1532320746489,1,0,1,-2,4,3,8,0
1532320746494,4,1,-1,1,1,1,2,-2
1532320746499,-6,-1,1,1,0,1,0,-1
1532320746504,14,2,-2,-4,-2,-5,-6,0
1532320746509,-5,0,-1,0,-5,2,6,1
1532320746514,1,-2,-1,-2,0,-5,-4,-2
1532320746519,0,1,-3,-1,-1,-2,0,-1
1532320746524,4,-2,-1,2,2,0,3,-1
1532320746529,-5,-1,-2,-3,-1,-3,-2,-1
1532320746534,0,0,-2,-3,-11,-1,6,1
1532320746539,1,0,-1,-1,3,-2,-12,0
1532320746544,-2,-2,0,2,5,0,-1,-1
1532320746549,-4,0,0,1,-1,-3,-2,-1
1532320746554,0,-1,0,-1,-2,-3,0,-1
1532320746559,1,-2,0,-1,1,1,3,-2
1532320746564,-3,0,0,-1,-1,0,1,-2
1532320746569,-3,-3,-1,0,-1,1,1,0
1532320746574,4,-1,-2,-3,-1,-2,-2,1
1532320746579,0,0,0,-3,-12,-3,-3,0
1532320746584,-3,0,0,0,8,5,9,-1
1532320746589,-1,0,0,0,-4,-2,-8,-2
1532320746594,1,1,-1,1,1,-4,-7,0
1532320746599,-1,-1,0,1,1,-3,-3,-1
1532320746604,-2,-1,-2,-2,-4,-1,0,0
1532320746609,0,0,-2,-2,1,2,10,0
1532320746614,-1,-2,-1,-1,2,6,-3,0
1532320746619,-2,1,1,3,-4,-5,0,-12
1532320746624,1,1,-1,-2,1,-6,-7,1
1532320746629,-2,-1,-3,-6,-10,-20,-5,-8
1532320746634,1,0,-1,-4,-5,8,10,18
1532320746639,0,0,0,0,6,13,0,-2
1532320746644,-4,-1,-3,2,-3,6,2,-1
1532320746649,-3,0,0,4,7,1,-4,-13
1532320746654,3,1,1,-1,0,-2,9,19
1532320746659,-2,-2,-1,-4,-6,-7,-4,-8
1532320746664,-2,-1,-2,-3,-3,-2,-14,-10
1532320746669,0,0,1,-1,-4,1,1,2
1532320746674,0,0,1,1,4,-3,2,-8
1532320746679,1,-1,-5,5,6,7,-3,8
1532320746684,-2,0,-1,3,-1,-9,-2,7
1532320746689,1,-1,-3,-9,-9,3,14,-1
1532320746694,-2,1,1,0,-5,-1,-7,-7
1532320746699,-8,-2,-2,-2,2,-5,3,5
1532320746704,22,-2,-2,-3,-2,4,6,-2
1532320746709,-14,1,2,2,3,2,7,4
1532320746714,3,2,-3,1,-2,-9,-12,-10
1532320746719,-11,-9,-2,-4,-4,1,0,-5
1532320746724,-16,-2,2,3,4,-5,-13,1
1532320746729,10,-5,-2,2,-1,5,0,5
1532320746734,-12,6,-1,1,3,1,4,-6
1532320746739,-11,4,-3,0,3,2,0,-12
1532320746744,27,-4,-7,-6,-2,0,6,-4
1532320746749,7,1,-1,2,-3,-1,-3,13
1532320746754,0,1,2,-2,-3,0,16,17
1532320746759,21,-2,-3,-6,-6,-8,-10,-28
1532320746764,-24,2,1,-4,-5,-10,-20,13
1532320746769,11,13,0,9,16,24,55,14
1532320746774,-9,-11,-9,-4,5,3,-14,6
1532320746779,9,6,-1,-8,-20,-19,-23,-20
1532320746784,2,9,8,6,4,7,18,-11
1532320746789,-32,-18,-4,1,1,-8,-43,47
1532320746794,33,5,1,3,5,5,30,-8
1532320746799,1,3,4,4,6,6,-32,-22
1532320746804,18,-1,-5,-3,1,-4,-24,15
1532320746809,-78,-12,5,-8,-15,-11,36,-17
1532320746814,89,24,7,1,-1,-11,-32,-36
1532320746819,-79,-29,-5,4,5,-9,-51,44
1532320746824,93,8,-4,-3,-1,3,62,-18
1532320746829,-14,-13,2,1,1,-5,4,-22
1532320746834,-43,5,2,-3,-1,28,-2,-25
1532320746839,29,9,6,3,9,6,32,85
1532320746844,-38,-1,3,1,2,23,48,-60
1532320746849,26,11,-1,4,6,-14,-70,40
1532320746854,4,-31,-13,-8,-14,-49,-18,-4
1532320746859,21,-1,-1,-1,-7,13,-19,-21
1532320746864,-71,-3,-1,-1,-2,-34,-63,-19
1532320746869,-11,-3,1,0,8,55,96,6
1532320746874,12,2,-4,-1,8,17,29,48
1532320746879,-46,3,4,10,12,16,5,-38
1532320746884,96,31,-3,-3,-14,-49,-11,24
1532320746889,6,7,-4,-8,-8,12,-27,-67
1532320746894,-5,0,0,1,0,-7,-37,-36
1532320746899,36,-2,-1,3,2,-21,10,47
1532320746904,-51,-17,3,-3,4,32,-21,30
1532320746909,-27,1,3,-2,-8,-22,-40,-38
1532320746914,4,-1,-4,0,-5,3,31,28
1532320746919,22,-2,-1,-5,-8,5,9,-7
1532320746924,-22,-21,0,3,6,7,49,-1
1532320746929,62,9,-3,-3,-2,-10,-9,17
1532320746934,-40,-7,4,0,2,2,-29,-10
1532320746939,1,4,-1,-1,-4,-4,-2,-23
1532320746944,14,2,1,-2,-1,1,-13,14
1532320746949,-16,-6,-1,1,5,-13,-10,-5
1532320746954,-5,2,5,8,13,10,25,5
1532320746959,15,2,-5,-10,-14,-10,11,3
1532320746964,-31,-5,-2,-1,-6,1,-8,32
1532320746969,10,0,-1,-4,-7,1,-24,-18
1532320746974,-15,1,1,3,-3,-15,-7,9
1532320746979,6,1,0,0,7,27,32,7
1532320746984,-18,-4,5,1,0,3,-15,-6
1532320746989,4,1,-3,1,5,21,-7,3
1532320746994,3,-2,-1,0,-2,-34,-45,-5
1532320746999,-15,-6,-1,-5,-9,-10,4,4
1532320747004,-11,-4,-2,-2,-5,8,73,-46
1532320747009,12,2,0,1,5,-1,-78,55
1532320747014,-3,3,5,6,8,27,44,4
1532320747019,-11,0,-2,1,3,-1,-3,33
1532320747024,-9,-11,-4,0,0,3,7,-20
1532320747029,35,11,2,3,-1,-1,15,25
1532320747034,-11,-1,-5,-4,-1,-9,-13,33
1532320747039,-22,-3,7,0,-8,-13,-23,-15
1532320747044,48,5,2,1,1,-3,-15,-12
1532320747049,-2,-5,-2,-5,-5,-10,6,5
1532320747054,19,0,1,1,0,21,-14,0
1532320747059,1,-2,-3,0,2,1,26,-15
1532320747064,-24,-19,-5,-1,3,3,-26,17
1532320747069,5,-1,-1,-4,-9,-20,9,-33
1532320747074,-4,-3,-6,-10,-15,-5,1,-29
1532320747079,5,0,0,1,6,8,-38,29
1532320747084,-4,1,-2,-1,0,8,4,-11
1532320747089,-2,-1,0,5,13,15,47,51
1532320747094,-20,-10,-2,-8,-9,-31,-5,-18
1532320747099,-1,-3,-3,-1,-10,-38,10,-16
1532320747104,-4,4,-2,-6,-10,37,-16,20
1532320747109,-16,-10,-8,2,-2,-18,8,-30
1532320747114,-2,3,-1,-1,11,39,13,-17
1532320747119,16,7,7,-1,4,19,2,13
1532320747124,1,4,1,1,0,-12,4,27
1532320747129,0,-2,-5,-6,-6,-4,-1,-34
1532320747134,-21,-10,-10,1,-7,-72,16,17
1532320747139,-2,1,-1,1,-2,61,16,-40
1532320747144,15,0,-3,1,9,1,-46,-15
1532320747149,11,3,-1,3,5,-4,16,2
1532320747154,-12,-5,0,5,4,18,-9,4
1532320747159,2,3,8,-4,1,-87,-13,-6
1532320747164,0,3,0,-9,-24,-30,22,-7
1532320747169,-4,-5,-2,7,-9,5,21,-11
1532320747174,-10,-12,-12,-12,6,63,-23,-9
1532320747179,-7,2,-3,-9,25,12,-17,-49
1532320747184,14,8,6,11,-1,-23,-16,38
1532320747189,0,-2,-6,-5,-10,-30,-11,-9
1532320747194,-6,-3,3,14,4,1,-9,-17
1532320747199,-2,-7,-5,8,23,76,13,4
1532320747204,-9,-5,-8,-13,-10,15,4,-21
1532320747209,0,2,1,-2,-22,-31,-2,-2
1532320747214,-1,0,-3,-8,-4,7,-21,3
1532320747219,28,7,3,4,1,-40,-13,26
1532320747224,-17,-2,1,5,6,-8,13,-17
1532320747229,-10,0,6,6,10,-11,4,6
1532320747234,6,2,-1,-5,-2,8,10,21
1532320747239,-3,-4,-7,8,-7,-4,35,11
1532320747244,6,0,-1,1,22,68,12,-25
1532320747249,6,0,1,-7,-27,-11,-23,33
1532320747254,-1,1,5,6,35,68,25,16
1532320747259,0,1,2,2,-1,-41,7,16
1532320747264,-1,-4,-7,-6,-19,-48,-47,5
1532320747269,-3,-3,-5,-4,2,-28,6,-25
1532320747274,2,2,-4,-1,-15,18,50,-1
1532320747279,-8,-1,-3,-4,-4,-8,-66,-14
1532320747284,-6,-6,0,11,15,-70,6,-11
1532320747289,13,4,-1,-8,10,77,21,0
1532320747294,-7,-4,-3,-4,-24,-49,-15,12
1532320747299,-11,-4,-1,0,21,122,39,-9
1532320747304,4,1,3,-3,-2,0,6,7
1532320747309,0,2,-4,3,2,-1,-14,6
1532320747314,-8,-3,-2,-5,-7,-56,1,-18
1532320747319,3,-1,-4,-2,-19,-24,-13,6
1532320747324,-12,0,0,0,3,9,1,-20
1532320747329,4,-6,-2,5,10,0,11,1
1532320747334,-3,7,4,5,4,-3,4,22
1532320747339,-5,2,3,-1,-3,-26,-4,-11
1532320747344,13,0,0,-1,-5,15,12,23
1532320747349,-2,-2,-4,-7,-7,-18,-3,-17
1532320747354,-8,-2,0,2,0,-52,-6,-11
1532320747359,0,-1,2,2,-3,41,1,7
1532320747364,-2,-1,-5,-2,8,41,37,-9
1532320747369,-2,-2,-2,-5,-6,-6,-25,17
1532320747374,7,1,-3,-1,-1,-6,-4,-3
1532320747379,-4,-2,0,0,0,-15,-9,2
1532320747384,-1,-3,-1,-6,-8,-14,-14,-8
1532320747389,-2,-3,-2,0,5,-5,17,0
1532320747394,-1,-2,-2,-2,0,7,-1,-8
1532320747399,-1,1,0,-2,-4,-3,42,-5
1532320747404,3,-1,1,-1,-4,4,25,8
1532320747409,-3,0,2,-1,1,-11,-24,-4
1532320747414,-3,1,-1,-1,4,-1,4,-8
1532320747419,-3,-3,-1,-4,-5,-9,0,-8
1532320747424,1,-2,-1,1,-1,-4,-20,-5
1532320747429,1,-1,-2,0,2,6,21,23
1532320747434,-3,-1,0,-1,-3,6,1,-37
1532320747439,9,-1,-2,-1,0,-8,-9,16
1532320747444,6,2,2,5,5,10,-4,52
1532320747449,-1,1,-1,-3,-5,-19,-40,-37
1532320747454,-3,-3,-4,-8,-7,12,8,-19
1532320747459,-1,-1,0,-1,-7,-23,-29,42
1532320747464,-5,-1,-2,1,5,10,39,-37
1532320747469,-1,-2,-2,-1,2,5,12,4
1532320747474,3,0,1,2,3,2,-2,15
1532320747479,-5,-1,-3,-4,-8,5,6,-24
1532320747484,-3,-3,-2,-1,0,0,-4,-4
1532320747489,-4,0,2,0,-1,0,14,-5
1532320747494,10,2,0,-1,-1,-6,-15,-4
1532320747499,6,4,0,2,3,-5,-20,-14
1532320747504,-16,-5,-2,-3,-7,7,-8,3
1532320747509,-9,0,-1,-1,-2,-10,-7,-8
1532320747514,-7,-5,-3,-3,-3,-7,4,5
1532320747519,19,3,1,1,2,10,12,7
1532320747524,8,2,-2,-1,4,-4,-24,-2
1532320747529,-5,-1,-1,4,4,-10,2,-13
1532320747534,5,-3,-6,-8,-8,-13,16,19
1532320747539,-2,2,0,0,-3,2,21,32
1532320747544,10,1,2,2,0,16,5,-3
1532320747549,-19,-3,-2,-2,-7,-74,-32,-9
1532320747554,-14,-6,-3,-10,-3,90,22,2
1532320747559,19,0,2,4,11,-2,9,15
1532320747564,5,-1,-4,-2,-12,-21,-35,-17
1532320747569,26,10,4,6,27,18,40,25
1532320747574,5,-1,1,11,7,-97,12,-1
1532320747579,-16,-7,-5,-11,-23,109,-41,-49
1532320747584,20,3,4,3,17,-25,-52,4
1532320747589,11,3,-2,-2,-7,25,37,-23
1532320747594,-3,-1,-1,2,2,-30,-55,3
1532320747599,-16,-2,-3,1,8,-48,2,-21
1532320747604,-18,-5,-1,-1,-6,27,55,-52
1532320747609,5,-5,-4,-11,-4,12,-59,5
1532320747614,-12,-1,-1,4,-14,-9,59,-1
1532320747619,-29,-5,-2,-4,2,-28,16,18
1532320747624,-1,-5,-3,-4,-8,4,-13,-7
1532320747629,-11,-6,-2,-2,-3,-15,43,2
1532320747634,21,6,1,-2,-2,21,12,5
1532320747639,11,7,3,8,10,-17,-44,44
1532320747644,-12,1,4,5,18,-8,11,41
1532320747649,-2,-2,-2,-1,-13,2,11,-11
1532320747654,1,-12,-5,-2,-4,-4,5,12
1532320747659,-23,8,0,-3,0,23,34,-14
1532320747664,23,-2,-2,0,-6,-5,-24,-10
1532320747669,-9,-4,-1,-3,-8,51,69,-3
1532320747674,6,5,10,10,19,2,-71,53
1532320747679,0,3,-5,5,-1,-63,-38,-12
1532320747684,-16,5,-8,-20,-8,15,11,-8
1532320747689,23,-2,-3,-3,-1,16,23,-17
1532320747694,11,-3,-3,-6,-5,20,36,-12
1532320747699,6,-2,6,6,8,61,0,-13
1532320747704,-22,-9,3,11,2,-50,-16,20
1532320747709,-14,-4,-2,-10,-18,-21,-14,14
1532320747714,-28,6,-4,-5,-3,17,-13,-21
1532320747719,45,-8,2,-3,3,-19,-11,7
1532320747724,-6,-2,-4,3,4,15,33,-13
1532320747729,-3,-1,0,3,15,-3,-36,0
1532320747734,-2,-1,-3,7,-4,-19,-5,-10
1532320747739,-17,-5,-1,-6,-13,-15,6,-17
1532320747744,3,-2,-3,-12,-10,-8,-36,-25
1532320747749,8,6,4,7,12,31,71,4
1532320747754,-2,0,1,-2,0,8,-33,22
1532320747759,0,-1,-2,0,-1,3,40,4
1532320747764,-5,1,3,6,1,-6,-68,-47
1532320747769,-12,-4,-2,4,4,-13,-36,9
1532320747774,3,1,1,-7,-3,16,23,-21
1532320747779,-6,-4,-6,-7,-3,2,-8,-28
1532320747784,-2,0,-3,3,0,0,2,17
1532320747789,-7,-2,-2,-2,-3,-3,-24,-9
1532320747794,4,-1,-4,-3,-7,-11,22,-4
1532320747799,-2,0,0,-2,-5,-10,-24,-9
1532320747804,-4,-1,0,0,3,5,32,10
1532320747809,0,1,0,-4,-9,-21,-23,1
1532320747814,2,-3,-4,-6,-2,1,7,0
1532320747819,-6,-2,-2,1,10,14,-13,3
1532320747824,1,-1,1,2,6,0,28,14
1532320747829,0,0,-1,2,6,-36,-11,3
1532320747834,0,1,-1,-10,-33,7,-8,1
1532320747839,-5,-1,-3,-1,7,-2,8,1
1532320747844,0,0,-1,0,0,6,2,-10
1532320747849,-2,-2,-2,-3,0,4,-18,-18
1532320747854,-4,-3,0,0,3,-4,-8,16
1532320747859,2,1,1,2,8,10,1,5
1532320747864,1,2,0,0,-2,-19,10,12
1532320747869,-4,0,-4,-3,-15,-10,-11,-1
1532320747874,3,1,-2,-2,-8,-12,8,-9
1532320747879,-3,0,0,3,3,-5,13,8
1532320747884,-2,0,-3,0,-2,-7,-1,1
1532320747889,0,0,0,7,9,14,-8,11
1532320747894,0,1,-2,-9,5,28,12,-4
1532320747899,-1,-2,-4,-5,-11,-44,2,1
1532320747904,-5,-2,1,2,3,11,4,-1
1532320747909,0,0,-1,-3,-11,-14,-10,0
1532320747914,-1,-1,0,-1,-14,-4,-26,-7
1532320747919,-2,-1,-3,-1,7,40,16,-3
1532320747924,0,-1,0,3,11,-14,35,2
1532320747929,1,-1,1,-2,-31,22,8,13
1532320747934,-3,-2,0,4,31,13,0,-5
1532320747939,-1,-1,2,-1,-1,-13,-12,0
1532320747944,3,0,1,0,0,9,16,6
1532320747949,0,0,-2,1,6,-16,-3,1
1532320747954,-3,-2,2,9,17,-1,-2,-11
1532320747959,-1,0,-3,-3,-14,-5,7,-1
1532320747964,1,-1,-2,-4,-2,25,-1,-4
1532320747969,0,0,-2,-3,16,-5,8,0
1532320747974,-2,0,1,1,-7,-29,-11,-6
1532320747979,-5,-3,0,5,12,2,-9,-4
1532320747984,6,0,-2,-3,-17,-14,-11,9
1532320747989,4,1,-2,-5,-11,-37,-8,9
1532320747994,0,-2,-4,-7,-11,5,9,1
1532320747999,-1,-3,0,6,9,11,4,-3
1532320748004,-4,0,0,-2,-7,-11,-4,-2
1532320748009,-3,-4,0,1,12,43,-6,-6
1532320748014,-1,-2,1,3,9,-8,26,0
1532320748019,0,0,2,-4,-27,-48,-12,5
1532320748024,0,0,-1,5,19,16,-8,6
1532320748029,-3,0,-2,-2,1,15,-14,-5
1532320748034,2,-3,-3,-4,-6,-6,-15,-1
1532320748039,-2,0,-1,0,7,3,12,-5
1532320748044,-1,-1,-1,-3,-9,26,18,4
1532320748049,-2,-1,2,1,-5,-33,-15,-6
1532320748054,0,0,-1,4,9,9,18,0
1532320748059,0,-1,-4,-6,-9,-7,-5,-3
1532320748064,-3,-2,0,-2,-14,-22,-15,-4
1532320748069,0,-1,1,-3,3,6,6,4
1532320748074,-1,0,-2,-2,-5,25,8,-1
1532320748079,0,-1,0,3,8,2,-3,1
1532320748084,-1,0,0,-1,2,10,1,0
1532320748089,-4,-1,-3,-1,-8,-11,-3,-5
1532320748094,1,1,-1,0,-1,-18,-7,-3
1532320748099,3,2,0,-1,-1,13,2,0
1532320748104,-3,-1,0,-3,3,-22,-23,-2
1532320748109,1,-2,-1,1,-5,12,10,-1
1532320748114,-2,-2,-1,-4,6,2,-2,0
1532320748119,-2,-1,-1,1,-8,-1,6,-1
1532320748124,0,-3,-1,0,-1,7,19,1
1532320748129,1,2,-1,-4,7,-25,-27,-4
1532320748134,-1,0,-1,-1,-2,25,-3,-4
1532320748139,0,-1,-1,-4,-4,-3,-2,-3
1532320748144,0,-1,-2,0,-6,0,4,-1
1532320748149,-3,-2,-1,3,7,4,8,-3
1532320748154,-1,-1,1,6,7,-1,-4,-2
1532320748159,0,0,-1,-2,-3,5,6,1
1532320748164,0,-1,-6,-8,-10,-7,-3,1
1532320748169,-2,-2,-1,-2,-2,6,-3,-3
1532320748174,-1,0,1,-1,-3,-16,-10,-2
1532320748179,0,0,1,4,7,9,4,1
1532320748184,1,1,0,5,5,-11,-4,-4
1532320748189,-1,-1,-4,-5,-5,-4,5,-1
1532320748194,-1,-2,-4,-3,-1,13,11,2
1532320748199,-2,0,1,-3,-6,17,-1,0
1532320748204,0,0,1,3,8,-7,-23,-3
1532320748209,-1,1,-2,-1,-5,0,-6,0
1532320748214,0,0,0,1,2,-8,-9,0
1532320748219,0,-2,-1,-1,3,11,14,2
1532320748224,-1,-1,-2,-5,-12,-16,13,-1
1532320748229,-1,-2,1,1,3,9,-10,-2
1532320748234,-2,-3,-1,3,-1,-16,2,-2
1532320748239,-2,-3,-3,-4,4,6,-7,0
1532320748244,-2,-1,-4,-5,0,2,8,1
1532320748249,0,-1,0,-4,-8,-1,4,2
1532320748254,2,0,0,-1,-4,-1,3,0
1532320748259,0,0,-1,2,3,-7,-1,-3
1532320748264,-2,-1,1,2,3,0,-13,-4
1532320748269,0,0,-2,-3,7,13,18,2
1532320748274,0,0,-3,-4,-1,-5,-18,0
1532320748279,2,0,0,-2,-11,1,-2,-2
1532320748284,-2,-2,-2,-2,1,9,13,2
1532320748289,-2,-1,-1,4,4,-13,-8,-6
1532320748294,0,-1,2,1,1,-3,-6,6
1532320748299,-2,0,-2,-2,0,-15,-15,-1
1532320748304,1,-1,-2,-2,-7,7,1,-2
1532320748309,1,-1,-1,1,8,17,12,3
1532320748314,-2,-1,-2,-4,-12,-30,-1,-3
1532320748319,-4,0,-2,-1,-1,6,4,-1
1532320748324,1,-1,0,-1,-2,1,-4,3
1532320748329,-2,-2,-2,-4,-3,3,11,-2
1532320748334,-1,-1,-1,-3,0,-4,-17,-4
1532320748339,-1,-4,-2,2,8,-10,-2,-1
1532320748344,-2,-2,-1,-6,-6,1,-3,-4
1532320748349,-1,-1,1,4,0,6,-12,1
1532320748354,0,-3,-1,1,2,9,19,1
1532320748359,1,0,0,-3,-1,-10,3,-1
1532320748364,-2,0,-1,0,-6,-11,-15,-4
1532320748369,-1,-2,-1,-5,-5,10,6,1
1532320748374,0,2,0,3,8,-18,-15,-3
1532320748379,-1,0,1,-4,-3,2,14,2
1532320748384,0,-1,1,2,1,-21,-42,-2
1532320748389,0,1,2,2,4,28,31,-2
1532320748394,-1,0,-6,-2,-6,6,6,0
1532320748399,-1,-2,-2,-5,-6,-4,1,-2
1532320748404,0,0,0,-1,2,4,7,2
1532320748409,-1,-1,2,2,4,-11,-18,-2
1532320748414,-2,0,1,1,-3,0,15,1
1532320748419,-1,0,-2,2,3,-4,-22,-5
1532320748424,-1,-3,-2,-2,-4,4,21,-1
1532320748429,-1,-3,-2,-1,-1,-12,-17,-1
1532320748434,-1,-1,-1,-4,-1,11,10,-2
1532320748439,-1,0,-1,-1,2,1,-9,0
1532320748444,0,1,1,0,-7,-5,4,0
1532320748449,0,1,-1,-1,-5,-11,-8,-1
1532320748454,-1,-1,1,0,1,-3,-15,-3
1532320748459,0,-2,1,-1,-6,-4,-1,-1
1532320748464,-1,-1,-2,2,8,7,7,0
1532320748469,-1,-1,-1,-4,-4,-2,13,-1
1532320748474,-1,-2,1,0,-3,10,8,-8
1532320748479,3,1,0,2,-2,-13,-18,5
1532320748484,-1,1,-2,-4,2,7,4,-2
1532320748489,-2,-1,-2,-1,-5,-13,-13,-1
1532320748494,-1,0,2,1,3,4,4,0
1532320748499,-2,-2,0,-2,0,4,2,0
1532320748504,-1,-2,-2,0,2,6,-2,-1
1532320748509,2,-1,-1,-1,-2,-11,22,-1
1532320748514,0,-1,-1,-5,-2,0,-14,-1
1532320748519,-1,0,1,2,-4,0,9,-1
1532320748524,-1,-3,0,0,1,0,8,1
1532320748529,-1,0,-2,-1,2,-1,-24,-1
1532320748534,0,-1,-1,-1,-3,3,8,2
1532320748539,-1,-1,0,0,-1,0,11,0
1532320748544,0,1,1,3,4,-6,-17,-5
1532320748549,-1,-2,-1,-1,3,3,5,0
1532320748554,1,0,-4,-5,-3,-8,-15,-2
1532320748559,-3,-1,-2,2,0,-1,-1,-2
1532320748564,0,0,0,0,2,6,14,2
1532320748569,0,-1,1,2,1,4,8,1
1532320748574,-1,1,-1,-3,-2,-5,-7,1
1532320748579,1,-1,-1,-3,-4,0,1,-1
1532320748584,0,0,-1,2,1,4,28,0
1532320748589,1,0,-3,-4,-4,-9,-29,-1
1532320748594,0,-1,-1,1,0,3,1,1
1532320748599,-2,-1,2,1,4,16,18,-1
1532320748604,-1,0,-1,-1,-9,-24,-30,-4
1532320748609,-2,0,-2,-2,0,9,-1,-1
1532320748614,1,-1,1,2,-2,-5,6,0
1532320748619,0,-2,-2,-2,2,4,3,-1
1532320748624,0,-1,1,0,2,-5,-17,-2
1532320748629,-1,0,-2,-2,-4,-3,3,0
1532320748634,-2,-2,-1,0,-3,-3,7,0
1532320748639,0,-1,-2,-2,-3,-6,-20,-2
1532320748644,-2,-1,-2,-2,3,4,7,0
1532320748649,-1,0,1,-1,2,0,5,-2
1532320748654,-2,-2,-1,-1,0,2,6,2
1532320748659,0,-1,-2,-1,-1,3,10,1
1532320748664,-1,-2,-4,-6,-6,-3,-8,1
1532320748669,2,0,-2,1,-3,-13,-7,-3
1532320748674,-1,-1,-1,0,1,2,0,-1
1532320748679,-2,-1,-2,-3,0,-6,7,1
1532320748684,-1,-1,2,1,-2,22,18,3
1532320748689,-1,-1,0,0,2,-10,-31,-5
1532320748694,-2,-1,1,-1,-2,0,-2,-1
1532320748699,-1,0,-4,-2,-2,-7,-13,-3
1532320748704,-3,-1,-1,0,2,-1,1,-2
1532320748709,0,2,0,-4,-8,0,10,4
1532320748714,0,2,-1,2,1,4,-4,-2
1532320748719,1,1,2,0,1,-2,-5,0
1532320748724,-1,-1,-2,-2,-3,-3,-4,-3
1532320748729,-2,-1,-1,4,5,4,5,-2
1532320748734,0,-2,-3,-2,3,-2,-4,-1
1532320748739,0,-2,-2,-3,-7,-4,-7,-2
1532320748744,0,-3,-2,-1,1,1,20,0
1532320748749,-1,-1,2,1,2,1,-29,-2
1532320748754,-2,0,-3,-2,-5,-16,-9,-2
1532320748759,-1,0,-1,2,0,2,4,-1
1532320748764,-1,1,1,0,-2,-3,-2,-1
1532320748769,-1,-2,-1,-2,0,10,18,1
1532320748774,0,0,2,2,1,-3,-17,-2
1532320748779,0,-1,-2,-2,-1,-5,-3,-2
1532320748784,0,-1,0,-1,1,0,0,-1
1532320748789,1,0,-1,-4,-4,-1,5,0
1532320748794,-2,-3,0,2,2,7,7,0
1532320748799,-2,-3,-3,-3,-4,-2,7,-1
1532320748804,-1,0,0,-1,-3,-3,-12,-1
1532320748809,0,-2,-1,-2,0,2,10,-1
1532320748814,-1,-1,-3,-1,1,2,6,0
1532320748819,-2,-3,3,2,3,-1,-6,-2
1532320748824,-2,-2,-3,-4,-1,-1,4,0
1532320748829,0,-3,-2,-4,-7,-4,-5,-2
1532320748834,-1,-1,-2,-2,-3,-1,7,1
1532320748839,-1,-1,0,2,3,-1,-25,-4
1532320748844,0,0,1,3,4,7,34,2
1532320748849,-1,-1,-2,1,-1,-10,0,-1
1532320748854,0,-2,-2,-4,-5,-2,4,1
1532320748859,-2,-2,0,0,-2,2,4,0
1532320748864,1,1,-1,-4,-6,-4,-20,-1
1532320748869,-2,-1,1,4,8,0,-5,-5
1532320748874,-1,0,-1,1,2,-2,1,0
1532320748879,0,-1,-4,-4,-14,-2,7,0
1532320748884,-1,-1,0,0,-2,-4,-18,-1
1532320748889,-1,-4,0,-4,-3,3,14,3
1532320748894,-1,-1,1,3,2,-3,-19,-1
1532320748899,1,1,0,0,7,0,5,-2
1532320748904,-1,-2,0,-2,-6,3,7,-1
1532320748909,0,0,-2,1,-3,-4,-11,0
1532320748914,-2,0,2,-1,-1,0,0,-1
1532320748919,1,0,0,2,0,5,8,3
1532320748924,-1,-1,-2,-2,1,-3,1,-1
1532320748929,-1,1,-2,0,3,-5,-9,-1
1532320748934,0,0,-2,-5,-8,-2,19,-2
1532320748939,0,-1,1,-2,3,-3,-27,-2
1532320748944,0,-1,-1,3,3,-1,-8,-1
1532320748949,-1,-1,-1,1,-4,2,7,1
1532320748954,-1,-1,-1,-3,-4,6,4,0
1532320748959,1,1,0,0,-2,-11,-6,1
1532320748964,-1,-1,-2,0,3,4,15,-5
1532320748969,-1,0,0,0,1,1,-25,0
1532320748974,-1,-1,1,4,6,2,1,1
1532320748979,-1,-1,-3,-3,-2,-8,2,1
1532320748984,0,-1,0,-2,-8,3,-3,1
1532320748989,-2,-1,-1,-1,-2,1,-14,-2
1532320748994,1,-1,1,-1,3,1,38,0
1532320748999,-1,-1,-2,1,0,5,6,-3
1532320749004,-1,1,-1,-1,0,-3,-9,0
1532320749009,0,0,0,0,-2,1,9,1
1532320749014,2,-1,0,-1,-1,-7,-26,-3
1532320749019,-1,-2,-2,1,-4,-6,-4,-2
1532320749024,-1,-2,-1,-1,4,4,18,0
1532320749029,0,-1,-3,-1,2,10,20,3
1532320749034,-1,2,0,0,-3,-21,-32,-1
1532320749039,0,1,-1,0,3,2,7,-1
1532320749044,-1,-2,-1,-2,-8,-9,-17,-2
1532320749049,-1,-2,0,0,-2,0,6,1
1532320749054,-2,-3,-2,-2,2,11,5,-2
1532320749059,-1,0,-1,1,0,-2,28,5
1532320749064,-2,0,0,1,-12,13,-57,-10
1532320749069,1,1,0,2,16,-4,9,3
1532320749074,-2,-2,-4,-5,-7,-1,29,-2
1532320749079,-1,-2,0,1,-1,0,6,5
1532320749084,-1,0,-1,0,9,8,-1,5
1532320749089,-3,-1,1,3,-1,0,2,7
1532320749094,-1,-2,-3,-1,-6,-4,-22,6
1532320749099,-2,-1,-1,-3,4,7,-10,-2
1532320749104,-1,-3,-1,-2,-1,-10,20,-6
1532320749109,-2,-2,-1,3,2,0,-15,-10
1532320749114,0,-1,1,6,0,-3,-1,-4
1532320749119,0,-1,-2,-4,-4,0,0,-6
1532320749124,-2,-2,-3,0,6,-3,2,-1
1532320749129,1,1,0,-6,-17,-12,-2,-1
1532320749134,-3,-3,-4,-5,-5,4,-14,-4
1532320749139,-1,-1,0,-1,12,1,-2,-2
1532320749144,0,1,3,8,-9,-6,-1,-3
1532320749149,0,-2,-2,6,-5,3,2,-7
1532320749154,-2,-1,0,-23,-10,-2,7,5
1532320749159,-1,-1,-2,-3,-10,-6,-15,-1
1532320749164,-1,0,0,-3,21,2,3,7
1532320749169,0,-2,-7,14,19,-4,4,4
1532320749174,-2,-3,-4,-12,-24,2,-3,-3
1532320749179,-2,-2,0,-8,-20,-9,-12,-4
1532320749184,0,-1,1,-2,1,2,10,0
1532320749189,1,6,14,8,6,0,1,-2
1532320749194,-1,0,4,13,17,-1,-3,-4
1532320749199,1,1,2,7,26,7,2,2
1532320749204,-1,1,1,1,-21,-4,0,1
1532320749209,0,-2,-8,-16,-8,-6,-6,-3
1532320749214,3,0,0,3,9,2,3,4
1532320749219,1,2,6,17,27,9,-1,0
1532320749224,-6,-5,-7,-14,-33,-15,-8,-3
1532320749229,-2,-3,-8,-15,-8,-2,1,-9
1532320749234,3,0,-1,-1,-1,4,-6,2
1532320749239,-5,-1,-3,-2,-2,-6,2,-6
1532320749244,4,-3,-11,16,21,3,0,10
1532320749249,-3,-2,5,-20,-13,1,-2,2
1532320749254,-3,2,4,9,-3,-14,-4,-3
1532320749259,4,2,12,2,-4,6,1,1
1532320749264,-3,-3,-2,3,-9,-7,-2,-6
1532320749269,-6,-3,-1,-2,-5,2,-1,-4
1532320749274,-2,-1,-4,1,5,2,-2,-4
1532320749279,-5,-1,0,-3,6,2,2,-17
1532320749284,4,4,4,-11,-27,-54,1,17
1532320749289,3,-3,-2,4,8,30,4,3
1532320749294,0,-3,-2,0,0,-6,1,6
1532320749299,2,-1,-7,-2,-10,5,-2,-5
1532320749304,-5,-4,-4,-6,10,14,0,-12
1532320749309,-3,-1,-3,1,-1,-12,-2,-6
1532320749314,-1,3,8,1,-6,2,9,13
1532320749319,-2,3,0,-2,-5,15,-11,-6
1532320749324,2,0,2,-2,9,5,9,2
1532320749329,0,2,1,1,-8,-9,-11,24
1532320749334,-2,-6,-7,1,3,5,-12,-10
1532320749339,1,-2,-2,-8,-9,-9,-1,11
1532320749344,-1,1,-4,-1,9,8,-3,-9
1532320749349,-3,-2,-6,-1,-3,-8,6,-5
1532320749354,-2,-1,2,-1,-4,-1,2,-6
1532320749359,-2,-3,-3,3,-6,-13,-2,1
1532320749364,-1,-1,0,-3,3,13,-1,4
1532320749369,1,-2,1,4,3,1,0,-9
1532320749374,2,-1,-2,2,11,9,0,-1
1532320749379,2,-3,-4,-5,-18,-39,3,3
1532320749384,-4,-2,1,-2,2,6,-4,-6
1532320749389,0,-1,0,-1,-7,-1,-2,-4
1532320749394,1,1,0,2,14,11,5,5
1532320749399,-2,-2,-3,-2,3,6,9,3
1532320749404,-4,-2,3,0,4,-10,-17,-7
1532320749409,8,4,2,2,-2,-5,-4,17
1532320749414,-5,0,-3,3,2,-2,4,-10
1532320749419,3,-1,-3,-2,-14,14,-4,9
1532320749424,-1,-1,-4,-8,0,-12,0,-4
1532320749429,-2,-1,0,0,0,4,10,-2
1532320749434,0,2,0,-3,11,0,-13,-5
1532320749439,-2,-1,1,10,10,2,6,3
1532320749444,4,3,8,15,44,14,-10,1
1532320749449,1,1,4,25,-43,3,1,-4
1532320749454,-4,-6,-11,-40,-44,-15,-2,-4
1532320749459,-6,-6,-11,-38,-12,-26,-5,-5
1532320749464,-2,-1,-6,-7,-8,1,-5,-6
1532320749469,0,0,-1,-3,29,16,2,-3
1532320749474,2,3,7,28,6,2,4,5
1532320749479,2,1,3,10,-7,-14,-3,1
1532320749484,2,0,1,-1,5,53,5,0
1532320749489,-2,-1,0,5,13,-2,-2,-1
1532320749494,0,-2,-1,3,-5,6,1,1
1532320749499,-1,-1,-2,0,11,-3,-2,-5
1532320749504,0,-1,-1,2,-12,-15,4,4
1532320749509,-2,-1,-1,-4,0,-10,0,-4
1532320749514,-2,-2,-4,-6,-1,-1,-4,-3
1532320749519,0,-1,-2,0,5,7,0,-2
1532320749524,2,-1,0,4,-5,-8,2,2
1532320749529,-4,-3,-4,-10,-13,-4,-5,-5
1532320749534,2,-1,-1,-3,8,-10,-2,0
1532320749539,-1,-1,0,6,-1,12,1,0
1532320749544,-1,0,-3,-2,-11,-3,4,3
1532320749549,-2,-3,-3,-9,8,-7,-3,-3
1532320749554,0,0,0,2,-1,2,0,0
1532320749559,0,0,1,4,-1,5,0,-1
1532320749564,0,-3,0,-5,-8,-7,-1,-1
1532320749569,0,0,0,-4,3,-5,0,0
1532320749574,-1,0,2,2,-1,0,1,-2
1532320749579,0,-1,-1,-1,-6,6,0,1
1532320749584,-1,0,-2,-2,-2,-10,-1,-2
1532320749589,0,0,1,1,-1,-1,-2,-1
1532320749594,0,-1,0,0,-3,2,1,-1
1532320749599,-1,0,-1,-2,1,1,-3,0
1532320749604,1,0,0,0,-2,-1,0,0
1532320749609,-2,0,-1,-2,2,1,0,-2
1532320749614,1,1,-2,-2,0,1,0,-2
1532320749619,-2,-2,-2,0,0,-1,0,0
1532320749624,-1,1,0,0,-1,-3,1,1
1532320749629,-1,-1,-2,-3,-4,-1,1,2
1532320749634,-1,-1,-1,-1,2,-3,-1,-2
1532320749639,-1,0,-1,2,0,5,-2,0
1532320749644,-2,-2,-2,-1,-3,-2,0,0
1532320749649,0,0,0,-1,1,-4,-3,-2
1532320749654,-1,-1,-1,1,0,0,-1,1
1532320749659,-1,0,-1,-2,-2,1,-1,-2
1532320749664,0,-1,0,0,-1,-1,0,-3
1532320749669,-1,-1,-2,-3,0,-3,-1,-2
1532320749674,-1,-1,0,0,-1,-3,1,-1
1532320749679,-1,1,0,0,-1,3,-1,-2
1532320749684,0,-1,-1,-1,1,-4,-3,-2
1532320749689,0,-2,-1,0,0,-2,-2,-1
1532320749694,-1,-2,-1,-1,-1,-2,-1,0
1532320749699,2,-1,-1,1,0,-2,-1,-2
1532320749704,-1,0,0,2,0,-2,-1,-3
1532320749709,1,0,-2,0,1,0,1,1
1532320749714,-2,-1,-2,-2,-1,0,-1,-1
1532320749719,-1,-2,1,1,0,-2,-1,1
1532320749724,-1,-1,1,-2,-3,-1,-2,-2
1532320749729,-2,-2,-1,-2,-2,-5,-3,-2
1532320749734,-1,0,0,-1,-1,0,2,-1
1532320749739,-1,-1,0,-2,-2,0,0,-1
1532320749744,-1,-1,0,-1,1,3,-3,-2
1532320749749,-1,-2,7,-4,-1,-3,-1,-2
1532320749754,-2,-2,-10,5,1,-2,-1,-1
1532320749759,0,1,0,-2,-4,-7,-2,1
1532320749764,1,-3,-1,0,-5,5,4,-3
1532320749769,-1,0,-2,-2,-1,-2,1,-1
1532320749774,5,2,5,-2,5,7,-2,11
1532320749779,0,-1,-1,-1,-2,-3,-2,-2
1532320749784,0,-1,-1,0,3,-1,2,1
1532320749789,0,0,-4,0,4,4,0,-1
1532320749794,-3,0,-1,-2,-6,-6,0,-5
1532320749799,-3,-3,-3,1,1,-4,1,0
1532320749804,2,0,-2,-2,0,-2,-4,2
1532320749809,-3,1,2,0,-2,5,8,-4
1532320749814,5,1,2,5,11,12,0,2
1532320749819,-4,-47,-34,-10,0,-6,-3,1
1532320749824,2,48,44,6,-22,-10,-3,2
1532320749829,-4,4,4,-11,-16,-13,-11,-1
1532320749834,2,5,6,0,-4,-9,-6,-2
1532320749839,-1,6,9,3,16,10,1,0
1532320749844,0,-14,-15,7,16,9,-1,-3
1532320749849,-4,-8,-18,-1,-3,-3,7,-5
1532320749854,1,1,10,-3,-5,-15,-20,0
1532320749859,-3,4,4,4,0,4,-11,-2
1532320749864,-12,-11,-8,-4,-1,0,36,4
1532320749869,18,16,3,5,8,5,-6,0
1532320749874,-4,-12,-12,-4,-3,0,0,-5
1532320749879,4,18,12,2,-4,-4,1,-1
1532320749884,1,-12,-17,-7,-8,-7,-33,-3
1532320749889,6,-6,-6,1,4,5,32,-2
1532320749894,-14,-11,-12,1,0,0,5,-1
1532320749899,-12,-11,2,2,-8,-11,-5,-11
1532320749904,9,12,3,-4,0,3,-8,2
1532320749909,-1,-5,-7,0,-3,-3,-10,0
1532320749914,5,2,2,-3,-1,2,0,-2
1532320749919,-1,7,-2,-6,-7,-8,-14,-4
1532320749924,-5,-14,-4,-5,-4,1,-3,-2
1532320749929,-1,1,3,3,0,0,-8,2
1532320749934,1,5,1,-1,-1,-1,-2,1
1532320749939,2,0,1,3,3,8,23,3
1532320749944,3,-1,-2,4,7,7,20,4
1532320749949,-7,-4,1,-1,-3,-1,-12,-7
1532320749954,-1,-3,-1,-3,-5,-1,-6,-3
1532320749959,5,3,-2,0,-3,-12,-12,1
1532320749964,1,-1,-3,0,6,0,4,2
1532320749969,-6,-2,2,-1,-1,5,11,0
1532320749974,-5,-5,-1,0,-3,-7,-10,-4
1532320749979,2,6,1,-2,0,2,-6,-1
1532320749984,-3,-3,-4,-4,-3,-4,0,-2
1532320749989,-6,-4,-2,-3,-8,-9,-11,-7
1532320749994,1,2,1,2,3,6,8,-3
1532320749999,4,3,2,1,-1,8,2,10
1532320750004,-4,-5,-3,-2,1,-4,3,-4
1532320750009,0,0,1,-1,1,5,-5,5
1532320750014,1,0,-3,-6,-6,-5,3,1
1532320750019,-2,1,-1,1,-1,3,8,-2
1532320750024,-2,-5,-2,-1,-2,-4,-11,-3
1532320750029,1,1,0,1,2,2,1,2
1532320750034,-2,0,1,-2,3,1,7,-1
1532320750039,-3,-1,-1,-2,-2,-1,1,-5
1532320750044,0,-3,-4,-4,-6,-4,-17,-3
1532320750049,-2,-3,0,1,1,-1,-11,3
1532320750054,6,12,0,-2,0,1,15,1
1532320750059,0,-11,-3,-2,1,3,2,-1
1532320750064,-4,0,1,1,-1,-1,-6,-1
1532320750069,0,-1,-1,1,3,-2,-2,1
1532320750074,-2,-3,-2,-1,0,-1,-3,-2
1532320750079,2,4,4,-2,-2,-2,-3,-4
1532320750084,3,1,0,-1,0,1,4,0
1532320750089,-1,-3,-2,-4,-3,-3,0,-1
1532320750094,-4,-1,-2,-2,-6,-1,-3,1
1532320750099,-1,1,-3,-1,-1,-1,3,1
1532320750104,-2,-2,2,3,3,0,0,-1
1532320750109,0,0,0,-1,-4,-2,2,-1
1532320750114,-1,-5,-1,-1,2,0,-2,0
1532320750119,-2,2,-2,-3,-4,-2,0,0
1532320750124,-1,-2,2,3,0,-2,0,-2
1532320750129,1,-1,-3,3,4,1,0,-1
1532320750134,-3,-2,-2,-1,-2,-1,-1,-1
1532320750139,0,1,-1,1,0,1,0,-1
1532320750144,0,0,-1,-2,-4,-3,-1,-1
1532320750149,-2,0,0,-2,-2,-2,2,-1
1532320750154,-3,-2,-1,-1,1,-1,-2,-1
1532320750159,-2,-2,-3,1,-2,-1,0,-1
1532320750164,-1,-1,-1,0,3,-1,2,1
1532320750169,-2,0,-2,-5,3,0,-1,1
1532320750174,0,-2,1,-3,-10,-2,0,0
1532320750179,0,0,-3,1,3,2,-3,-1
1532320750184,-2,-3,-3,-2,-5,-2,-1,-1
1532320750189,-2,-2,-2,0,2,-3,-4,-2
1532320750194,0,1,0,0,2,-1,-3,0
1532320750199,2,1,2,-1,-3,-1,1,-1
1532320750204,1,-2,-2,-1,-3,-2,0,-1
1532320750209,0,-1,-1,2,2,1,0,0
1532320750214,-2,-1,-1,-1,-1,-1,-2,-1
1532320750219,-1,-1,-2,0,0,1,2,-1
1532320750224,0,-2,-2,1,1,1,-1,0
1532320750229,-1,0,0,0,-1,-3,1,-1
1532320750234,0,-1,0,0,3,0,0,-3
1532320750239,-1,-1,-1,-1,1,-2,-9,1
1532320750244,0,1,-5,-3,-7,-3,-3,-1
1532320750249,-4,-1,-3,-1,-2,0,1,-1
1532320750254,0,-1,-2,1,-1,2,0,-1
1532320750259,-1,1,0,-2,3,1,2,-2
1532320750264,-2,-2,-1,-3,-3,-2,-4,-1
1532320750269,2,0,3,0,-3,-3,-2,0
1532320750274,-2,-2,-2,0,1,-1,-1,-2
1532320750279,-1,-1,-2,0,0,2,0,0
1532320750284,-1,-1,-1,-2,-3,-3,0,-1
1532320750289,-1,0,0,-1,-1,0,1,0
1532320750294,-2,-3,-2,-1,1,-2,-2,0
1532320750299,4,-2,-2,-3,-9,-4,0,-1
1532320750304,-3,1,1,-1,0,-2,2,-2
1532320750309,1,-1,-1,-1,-4,-1,0,-1
1532320750314,-1,1,1,0,3,2,-2,-1
1532320750319,1,-2,-1,0,0,-1,-1,1
1532320750324,-3,0,2,3,1,-1,3,-3
1532320750329,-1,-1,-1,0,0,1,-6,1
1532320750334,1,0,-2,-4,0,0,2,1
1532320750339,-3,0,0,-4,-7,-4,-1,-1
1532320750344,0,-2,1,-1,-2,-1,-1,-1
1532320750349,-2,1,0,0,0,-1,-3,0
1532320750354,0,-1,0,2,3,-1,-10,-2
1532320750359,-2,-1,-1,-1,-3,-4,11,-2
1532320750364,-1,0,0,0,2,4,-7,0
1532320750369,-1,-1,-3,3,0,0,1,-1
1532320750374,-1,0,-2,-5,-7,-2,3,0
1532320750379,-2,-1,-3,-3,-3,-3,-6,-1
1532320750384,-1,-1,0,-1,-1,-1,-1,0
1532320750389,0,-1,-3,1,1,3,6,0
1532320750394,-1,0,-1,3,-4,-1,-6,-2
1532320750399,0,0,0,-1,1,0,-1,-1
1532320750404,-1,0,0,-1,1,0,2,0
1532320750409,0,0,2,-2,1,0,-1,-1
1532320750414,-1,-2,-3,0,-1,-2,9,0
1532320750419,0,-2,0,0,-1,1,-1,0
1532320750424,0,-2,-3,-1,-1,-1,-1,0
1532320750429,-3,-1,-2,-3,-6,-6,-3,-3
1532320750434,0,-1,0,1,1,2,1,-2
1532320750439,-4,-1,-2,0,4,-1,-1,-2
1532320750444,5,-1,-1,0,0,1,0,-1
1532320750449,-4,0,0,0,6,0,-1,1
1532320750454,-2,-1,0,-3,-10,-3,-1,-2
1532320750459,-1,0,-1,-1,0,1,-3,-1
1532320750464,-1,-1,0,1,0,-2,-3,-2
1532320750469,2,-1,-1,-2,-4,-1,2,-1
1532320750474,-1,-2,-1,1,-1,1,-4,-1
1532320750479,0,1,1,-1,3,0,0,-1
1532320750484,1,-2,-2,-5,-4,-2,2,-1
1532320750489,-1,0,-1,-2,1,0,2,-1
1532320750494,0,-2,-1,-2,-5,-4,-1,1
1532320750499,-1,-2,-1,0,-3,-1,0,0
1532320750504,-2,1,2,3,4,1,-8,0
1532320750509,1,-1,2,1,-1,-4,0,2
1532320750514,-2,-2,-2,-2,0,2,-1,-2
1532320750519,0,-1,-1,-3,-3,-2,-1,-1
1532320750524,-1,-2,0,-1,-3,-4,-1,-2
1532320750529,0,0,-1,-1,0,0,-1,-1
1532320750534,-1,-1,-2,-2,-3,-2,0,0
1532320750539,1,0,-1,2,-1,-1,-1,1
1532320750544,-1,-1,-3,1,2,-3,-8,-1
1532320750549,-1,0,-1,0,-2,1,12,-1
1532320750554,-2,1,0,-1,2,1,-2,-1
1532320750559,0,-1,-3,-5,-8,-3,-3,-1
1532320750564,-1,2,0,2,0,2,-1,0
1532320750569,-4,-1,0,0,-2,-4,-1,-1
1532320750574,-2,-1,-3,-1,1,-3,-8,-1
1532320750579,1,1,1,-1,-2,2,3,-1
1532320750584,-1,-2,-2,-3,2,-1,0,1
1532320750589,0,0,-2,0,0,2,4,-2
1532320750594,-1,0,2,-2,0,1,-6,-2
1532320750599,-1,-1,0,-1,-2,-1,-5,-1
1532320750604,-1,-2,-2,-5,-11,-4,-1,-2
1532320750609,0,0,-2,0,-1,1,-6,0
1532320750614,0,-1,0,1,2,0,3,0
1532320750619,-2,0,0,0,4,2,-1,2
1532320750624,0,-1,2,0,-1,-2,-1,0
1532320750629,-2,-1,-3,-1,-1,-1,0,0
1532320750634,1,-1,-2,-2,-4,-2,-3,1
1532320750639,-2,0,-2,0,1,0,-1,0
1532320750644,0,-1,-1,-3,-1,-3,1,-1
1532320750649,1,0,-1,0,2,0,-6,-1
1532320750654,0,1,4,3,2,0,8,-1
1532320750659,-2,-2,-2,0,-1,-1,2,0
1532320750664,-1,-2,-1,-2,2,-1,1,-1
1532320750669,-3,-2,0,-1,-9,-6,-4,-1
1532320750674,-2,-2,-2,0,-4,-1,-7,-1
1532320750679,2,0,0,0,2,-1,5,1
1532320750684,0,-1,1,5,3,1,3,1
1532320750689,0,0,0,1,6,2,5,0
1532320750694,0,-1,-1,-4,-6,-3,-3,-1
1532320750699,-1,-1,-1,-1,-3,-4,-3,-2
1532320750704,-2,-1,-3,-5,-1,-1,-1,0
1532320750709,-1,-1,-2,-2,-5,1,0,-1
1532320750714,0,0,0,1,-2,0,-6,0
1532320750719,1,-2,-1,-1,3,0,-3,-1
1532320750724,-2,-1,-1,3,-1,2,-1,-1
1532320750729,-1,-1,-2,-1,0,0,0,-1
1532320750734,0,-3,-2,-3,-6,0,1,-1
1532320750739,-2,-1,0,0,3,0,-1,-1
1532320750744,-1,0,1,1,-3,-1,-2,-1
1532320750749,-1,-4,-2,-1,-2,-3,-7,-1
1532320750754,-2,1,-3,-2,-1,-2,4,-1
1532320750759,-2,-1,0,0,-1,1,1,-2
1532320750764,0,-1,-4,-1,1,0,-1,-1
1532320750769,-1,-1,0,1,1,-2,0,0
1532320750774,-1,-1,-1,-2,-1,-3,-8,1
1532320750779,-1,-2,-4,-2,-2,-2,7,-1
1532320750784,0,-1,-2,0,5,3,2,-2
1532320750789,0,-1,-1,0,-9,-1,3,-1
1532320750794,0,0,-3,-3,0,0,-3,-1
1532320750799,-2,-1,-1,-2,-1,-1,2,-1
1532320750804,0,0,1,2,-3,0,-4,-1
1532320750809,0,0,0,3,7,1,1,0
1532320750814,0,-1,-3,-3,-4,-1,1,0
1532320750819,-2,0,-2,0,-3,-1,-5,-1
1532320750824,-1,0,0,1,-3,0,0,-1
1532320750829,-2,-1,-1,0,1,0,-3,-2
1532320750834,-2,0,0,-2,-1,0,-1,-2
1532320750839,0,1,2,-4,-2,1,1,0
1532320750844,0,0,-2,-1,1,0,1,2
1532320750849,0,-1,-3,-1,-1,-1,1,0
1532320750854,-1,-2,-2,-1,2,-1,1,-2
1532320750859,2,1,1,-1,-7,-2,-4,0
1532320750864,-2,-3,-2,-1,1,-2,-4,-2
1532320750869,1,-1,3,-3,1,0,-2,1
1532320750874,-2,-1,-2,-1,0,1,-2,-1
1532320750879,-2,-2,-1,0,1,0,-4,-1
1532320750884,0,0,-1,-1,-5,-3,0,-1
1532320750889,1,0,-1,-2,1,-1,3,1
1532320750894,0,-1,1,1,2,0,-1,0
1532320750899,0,-1,0,-1,2,2,1,-2
1532320750904,-2,0,0,-2,-4,-1,-2,0
1532320750909,-2,-3,-5,-3,-2,0,-1,-2
1532320750914,0,-2,-1,-2,-2,-1,-1,-1
1532320750919,-1,0,-1,-1,0,-2,-3,-2
1532320750924,-1,-1,-1,-1,0,2,2,-1
1532320750929,-1,1,-1,-1,1,-2,-5,-1
1532320750934,0,0,-3,-2,0,1,2,-2
1532320750939,-1,-1,0,3,0,0,1,0
1532320750944,2,-1,-1,-4,-1,-2,-2,0
1532320750949,-3,-2,-4,-2,0,1,-1,0
1532320750954,1,-1,2,0,-6,-1,3,-1
1532320750959,-2,-1,1,-1,2,-1,-2,-3
1532320750964,-1,0,-1,-1,-2,-3,-1,-1
1532320750969,2,-2,1,-1,1,0,2,-1
1532320750974,0,0,-1,1,2,0,-2,1
1532320750979,-2,-1,-2,-3,-4,-1,-1,-1
1532320750984,-1,-1,-3,-1,-1,-4,-8,-1
1532320750989,-2,-1,-1,0,-2,-1,6,-2
1532320750994,0,1,0,-1,1,2,-4,0
1532320750999,-1,1,-1,-2,-1,0,-3,-1
1532320751004,-1,-2,-1,0,2,1,4,-1
1532320751009,-1,-2,0,-1,-3,-2,-4,-3
1532320751014,-2,-1,2,1,0,-3,1,-3
1532320751019,1,-2,-2,2,3,1,0,1
1532320751024,-1,-1,-1,-1,-1,-2,-4,0
1532320751029,-2,1,0,-4,-5,-2,1,-2
1532320751034,-3,-2,-2,-3,-5,-2,0,1
1532320751039,-1,-1,-1,0,1,-1,2,1
1532320751044,0,-1,-1,0,-2,-2,0,-2
1532320751049,-5,0,-2,-2,-1,-1,0,-2
1532320751054,-2,0,0,-2,-2,-1,-3,0
1532320751059,0,-2,0,-1,0,-1,-2,0
1532320751064,-1,-1,2,1,3,1,5,1
1532320751069,2,0,-2,0,-3,1,-5,1
1532320751074,-1,-1,-1,-2,-5,-4,1,-3
1532320751079,-1,-1,-4,-2,-4,-2,-10,-2
1532320751084,-1,-1,-3,-1,2,1,9,-1
1532320751089,0,0,0,0,2,-1,-1,2
1532320751094,0,-1,-1,0,-2,0,3,-2
1532320751099,-1,-1,-1,0,-2,0,-6,0
1532320751104,0,-2,0,-1,-2,-1,-2,-2
1532320751109,-1,0,1,-2,0,-1,-1,-2
1532320751114,-2,0,1,2,2,2,1,1
1532320751119,-3,-2,-2,0,-1,-1,3,-1
1532320751124,-1,-2,-6,0,-3,1,-5,0
1532320751129,0,1,0,-1,-3,-1,-2,-1
1532320751134,0,-3,-1,-3,-1,-4,-6,-1
1532320751139,0,-1,0,-1,-2,0,3,0
1532320751144,-1,-1,1,0,1,-1,2,0
1532320751149,0,-1,-3,1,2,0,-2,-1
1532320751154,-1,0,-3,1,-4,-2,1,-1
1532320751159,0,1,0,1,-3,-2,-2,-1
1532320751164,-4,-1,-5,-1,-3,-1,3,-2
1532320751169,0,-1,3,1,0,-1,-5,-2
1532320751174,0,-2,-4,-1,5,1,1,-1
1532320751179,-4,0,-1,0,0,0,1,-2
1532320751184,1,0,0,-1,-4,-1,-12,-1
1532320751189,0,-1,-2,-4,-2,-1,12,0
1532320751194,-2,-2,-1,-2,-2,0,0,1
1532320751199,2,1,1,0,2,-1,1,-2
1532320751204,-1,-2,-6,-4,-1,-2,-1,0
1532320751209,-2,-2,1,0,0,0,-3,-2
1532320751214,-3,0,0,1,4,-2,-8,0
1532320751219,5,0,-1,-2,0,2,10,0
1532320751224,1,-1,1,-1,-3,-3,1,-1
1532320751229,0,1,-2,0,-4,-1,-3,-3
1532320751234,0,0,1,-4,-3,-1,3,-3
1532320751239,2,1,0,-1,-2,-2,-7,-1
1532320751244,-3,-2,-2,1,2,0,3,1
1532320751249,-1,-2,-2,0,0,0,-7,-1
1532320751254,-1,-1,-3,-3,-3,0,-4,0
1532320751259,-2,-3,0,1,-3,-3,0,0
1532320751264,1,2,0,-2,-5,0,-5,-1
1532320751269,-2,0,1,-1,0,-1,1,-2
1532320751274,-2,-2,-3,3,6,1,0,-2
1532320751279,1,0,-5,-5,-8,-5,-4,1
1532320751284,-1,-1,-3,0,0,2,3,-4
1532320751289,0,-1,0,-1,0,2,-1,2
1532320751294,-3,-1,0,-2,-6,-2,0,-1
1532320751299,-2,-1,1,0,1,2,0,0
1532320751304,1,-1,-1,-4,-7,-2,1,0
1532320751309,-2,-1,1,-1,0,-1,-2,0
1532320751314,-1,0,-3,-3,-4,-2,4,-1
1532320751319,0,0,0,-1,-1,2,4,0
1532320751324,0,0,-2,0,-2,0,0,-1
1532320751329,3,-1,1,0,-3,-1,-2,-2
1532320751334,-2,-1,-2,2,4,1,-1,0
1532320751339,-2,-1,0,-1,1,2,4,-1
1532320751344,1,0,1,-1,-3,-2,-8,-3
1532320751349,-3,-3,-4,-3,0,-3,3,1
1532320751354,-1,0,0,0,0,2,0,-2
1532320751359,1,-2,-1,-1,-1,-2,-5,-1
1532320751364,-1,-1,8,-1,-2,1,3,-1
1532320751369,0,-2,-10,-5,0,-2,-4,-1
1532320751374,-1,-1,-1,-3,-3,-1,-1,-2
1532320751379,-1,-1,-2,1,2,1,0,-2
1532320751384,1,-1,2,2,4,2,1,-1
1532320751389,-4,-1,1,1,1,0,-2,0
1532320751394,-1,0,3,-3,-3,0,0,2
1532320751399,-2,-2,-3,2,3,0,0,1
1532320751404,-1,0,0,-3,6,-2,-6,1
1532320751409,2,-2,-2,-4,-11,-2,4,-1
1532320751414,-6,-1,-2,-1,-5,-4,0,-2
1532320751419,0,-2,0,-2,-5,-2,-5,-1
1532320751424,1,2,-1,4,2,2,6,1
1532320751429,-4,0,0,0,8,3,-4,-1
1532320751434,0,-2,-4,-1,-5,-3,0,-3
1532320751439,1,0,1,-3,-3,-2,-4,0
1532320751444,0,-1,-2,-1,0,0,2,-1
1532320751449,6,1,2,0,-2,-1,-2,0
1532320751454,0,0,1,2,5,2,-1,1
1532320751459,-2,0,-2,-3,-1,-2,3,-5
1532320751464,-3,-3,-6,-6,-8,-6,-5,-3
1532320751469,-1,1,1,2,-3,0,0,-3
1532320751474,3,0,0,0,5,1,-2,0
1532320751479,-2,-2,-2,1,6,1,-1,-1
1532320751484,-3,0,2,-2,-10,-1,1,-1
1532320751489,-3,0,-2,-3,-5,-3,-1,-1
1532320751494,-1,0,-1,1,0,-2,-2,0
1532320751499,2,1,1,1,3,0,3,0
1532320751504,-1,-2,-3,-1,3,-2,-4,0
1532320751509,-3,-1,-1,-4,-10,-1,5,-2
1532320751514,-1,-2,-1,-1,-6,-2,-1,-1
1532320751519,0,0,2,3,7,-1,-1,0
1532320751524,0,-1,-3,1,3,1,1,-1
1532320751529,-1,-1,0,-2,-4,-4,-16,-2
1532320751534,1,2,-3,-5,-8,-7,5,0
1532320751539,-1,-2,-1,-2,-5,4,18,0
1532320751544,1,-2,0,0,5,0,-2,1
1532320751549,0,0,1,1,6,1,5,0
1532320751554,0,0,1,-4,0,0,-9,-1
1532320751559,-2,-1,1,-3,-5,-3,-8,-1
1532320751564,-2,0,0,-1,-2,-1,3,0
1532320751569,0,-1,0,0,-1,1,-5,0
1532320751574,-1,-2,-3,2,5,-2,-1,0
1532320751579,-1,-1,-2,-2,0,1,-1,-1
1532320751584,-2,-1,-1,-4,-5,-1,-3,-1
1532320751589,-1,-2,0,0,-2,-2,2,0
1532320751594,-1,0,-1,0,6,-2,1,0
1532320751599,0,-1,-2,1,-3,-3,3,0
1532320751604,2,1,1,-2,1,-3,-2,-2
1532320751609,-3,-2,-3,-4,-7,1,-5,0
1532320751614,-3,-3,0,0,-2,1,2,-1
1532320751619,0,-2,-1,-1,0,0,-3,-1
1532320751624,-1,2,1,4,4,-1,-7,1
1532320751629,0,-1,-3,1,6,-1,2,-1
1532320751634,0,-1,1,-4,-7,-1,-1,-2
1532320751639,-2,1,-1,0,-3,-2,-6,1
1532320751644,0,-2,-2,0,3,-1,-1,-3
1532320751649,0,0,-2,-3,-2,-1,3,-2
1532320751654,0,-1,-3,-1,0,2,-1,-1
1532320751659,2,-1,-1,0,-5,-2,-3,-1
1532320751664,-3,-1,-1,1,0,-1,2,0
1532320751669,-1,0,1,-1,1,-1,1,-1
1532320751674,-1,0,0,0,2,0,0,-1
1532320751679,0,-1,-3,-2,3,-1,-5,-3
1532320751684,-1,-1,-1,-4,-9,-2,0,-1
1532320751689,1,-1,-1,0,0,0,-2,0
1532320751694,-1,-1,0,-1,-2,-1,-1,0
1532320751699,-1,0,1,1,1,0,-2,-2
1532320751704,-1,-1,0,1,5,1,2,0
1532320751709,0,-2,1,0,-3,-2,0,0
1532320751714,-1,-1,-2,-3,0,-2,0,-1
1532320751719,-1,-1,-3,-3,-4,-3,-4,-1
1532320751724,1,0,-3,-2,0,1,4,-1
1532320751729,-1,-1,-1,-1,0,0,-1,1
1532320751734,3,1,0,2,3,2,-2,0
1532320751739,-2,0,2,-1,-1,-1,-1,1
1532320751744,-1,-2,-4,-3,-5,-2,-3,0
1532320751749,-1,-2,-1,1,2,0,0,-1
1532320751754,0,-1,0,0,-1,-1,-1,-1
1532320751759,-1,-2,-2,0,1,1,0,-2
1532320751764,-1,0,1,-3,-1,-1,-4,0
1532320751769,-1,1,-1,-4,-12,-5,-1,-2
1532320751774,-2,-2,0,-1,0,1,-3,-1
1532320751779,-2,1,3,2,-5,-2,-2,-1
1532320751784,0,-1,0,2,3,2,0,-1
1532320751789,0,-1,0,0,5,-1,-2,0
1532320751794,-2,-1,-4,-2,0,0,0,0
1532320751799,-1,0,-3,-1,-4,-1,1,0
1532320751804,-1,-2,-3,-1,-2,-2,-9,-2
1532320751809,1,-1,-2,0,0,-2,9,-1
1532320751814,1,-1,1,-1,2,1,-1,0
1532320751819,-2,1,1,0,5,1,0,-2
1532320751824,-2,0,4,-1,-2,-2,-1,-1
1532320751829,-1,-2,-3,0,3,3,-8,-2
1532320751834,1,0,1,0,2,-1,2,-1
1532320751839,-1,0,2,1,0,2,-1,0
1532320751844,-2,-1,1,1,2,0,-2,-1
1532320751849,-1,-1,-2,-3,-4,0,3,-1
1532320751854,3,0,-1,0,-2,-1,0,2
1532320751859,0,-1,2,-3,1,-2,1,1
1532320751864,0,-1,-2,0,-4,1,1,-1
1532320751869,0,-2,-3,1,6,-1,-1,-1
1532320751874,-1,-1,-1,-4,-3,-1,-2,-4
1532320751879,-1,0,1,-1,-5,0,-1,0
1532320751884,-2,-1,-2,0,-1,-1,-2,0
1532320751889,0,0,0,-1,-5,-2,-1,0
1532320751894,-2,-1,-1,-1,-6,-6,-2,-3
1532320751899,-1,1,0,1,4,0,1,-1
1532320751904,-1,-1,-1,-1,6,1,-1,0
1532320751909,-1,-3,-1,-4,1,0,-2,-2
1532320751914,2,0,2,2,-2,2,2,-1
1532320751919,-1,-2,-3,-2,1,-3,-3,1
1532320751924,-3,0,-3,-6,-14,-4,-4,-2
1532320751929,0,1,0,2,2,-1,1,0
1532320751934,-3,-3,0,0,1,0,-1,0
1532320751939,0,1,-2,0,-2,0,0,-2
1532320751944,-2,0,1,0,7,2,0,2
1532320751949,-1,-1,-4,0,-3,-1,-2,-1
1532320751954,-1,-1,-1,-4,-6,-3,-1,-1
1532320751959,-3,-1,1,-1,6,0,1,-2
1532320751964,-2,-2,-3,-1,0,-2,0,-2
1532320751969,-1,-1,-1,-2,-4,-2,-2,-1
1532320751974,-3,1,-3,0,2,2,2,-1
1532320751979,0,0,1,2,5,3,0,-3
1532320751984,0,-3,-1,-1,-2,-2,-2,-3
1532320751989,0,-1,-2,-2,-6,-3,0,-1
1532320751994,-1,0,-2,-3,2,0,-3,-2
1532320751999,0,-1,0,-1,-7,-2,-2,-1
1532320752004,0,0,0,1,-2,-3,0,-1
1532320752009,-2,-1,-1,0,3,0,0,0
1532320752014,-2,0,-3,-4,-6,-1,0,1
1532320752019,0,-1,0,2,5,1,0,-1
1532320752024,-1,0,-1,1,9,1,0,1
1532320752029,-1,-2,0,-2,-12,-5,-2,-1
1532320752034,1,-1,-2,-1,0,-2,-2,0
1532320752039,0,1,3,0,-1,0,0,-1
1532320752044,0,0,0,0,6,-1,-2,0
1532320752049,-1,-1,-4,-3,-3,-1,0,-1
1532320752054,1,-1,-2,-1,-2,-1,-2,-2
1532320752059,-1,-2,-3,0,-2,-2,-1,1
1532320752064,0,1,1,0,-7,-2,-2,0
1532320752069,-2,-1,1,1,4,2,-2,-1
1532320752074,-1,-1,-1,-1,-3,0,0,0
1532320752079,-1,-1,-1,-1,0,-1,-1,-1
1532320752084,0,-1,-1,2,1,1,1,-2
1532320752089,-1,-1,0,1,0,1,0,1
1532320752094,0,-2,-2,1,1,-1,-1,-2
1532320752099,0,1,3,-3,-1,0,0,-2
1532320752104,-1,-3,-7,-3,-6,-1,7,0
1532320752109,-1,0,1,-3,4,-3,-2,-3
1532320752114,1,-1,-1,3,3,3,-1,1
1532320752119,-2,-1,1,-1,3,0,-2,-1
1532320752124,-1,-2,2,-3,-7,-3,-2,-3
1532320752129,0,-3,-5,-2,-1,-1,-1,-1
1532320752134,0,1,1,-1,-3,-6,-2,0
1532320752139,-1,-2,-3,3,0,0,0,0
1532320752144,0,0,0,3,1,1,-3,0
1532320752149,0,0,-1,-2,3,-1,0,-1
1532320752154,-1,-2,-1,0,-2,0,-1,-1
1532320752159,2,0,-3,-5,-2,-3,-2,-1
1532320752164,0,-1,0,-4,-7,-2,-4,-1
1532320752169,0,1,2,1,-1,1,1,0
1532320752174,-1,0,-1,0,0,1,0,-2
1532320752179,0,0,-1,4,4,0,-1,0
1532320752184,0,-1,-1,0,4,-1,0,0
1532320752189,-2,-2,0,-3,0,0,-2,0
1532320752194,-3,0,2,-2,2,-1,2,-2
1532320752199,-1,-2,-5,0,-6,-3,-4,-2
1532320752204,-1,-1,-1,-1,1,1,0,-2
1532320752209,1,-1,1,2,0,0,0,1
1532320752214,-1,-2,1,-1,-2,-1,-1,1
1532320752219,0,-2,0,1,0,0,0,-1
1532320752224,0,0,-1,1,1,-2,-2,0
1532320752229,0,0,1,-2,0,0,-1,-2
1532320752234,-1,-1,-2,0,-2,-1,-1,-1
1532320752239,0,2,-1,0,-3,0,0,-1
1532320752244,-1,-2,-1,-2,-1,-3,-2,-1
1532320752249,0,-1,-2,-1,-3,-2,0,-1
1532320752254,0,-2,-2,-4,-6,-3,-1,-1
1532320752259,0,-1,-1,0,3,2,0,-2
1532320752264,-2,-2,-2,3,8,1,-2,-1
1532320752269,-2,-1,0,-2,-10,-4,-2,0
1532320752274,2,0,0,-1,1,0,-1,-2
1532320752279,-3,-1,-1,0,-4,-3,-2,-1
1532320752284,-2,-1,-3,-1,-2,1,2,-1
1532320752289,-1,-1,1,1,1,1,-1,-1
1532320752294,0,-1,0,-1,1,-3,0,0
1532320752299,0,0,-2,-1,-1,-1,2,-1
1532320752304,-1,-2,2,-1,-1,-3,-9,-1
1532320752309,0,0,-5,0,0,-1,-2,-2
1532320752314,0,1,2,0,1,0,-1,-2
1532320752319,-2,-1,-3,-2,-2,0,0,-1
1532320752324,0,-1,0,0,-2,-3,1,-2
1532320752329,-2,0,0,-1,-5,-1,1,0
1532320752334,0,-1,0,-2,4,-1,0,1
1532320752339,0,-1,-1,-3,-6,-4,-2,0
1532320752344,-1,0,-3,-1,1,2,0,0
1532320752349,0,-1,-1,0,-4,0,-1,-1
1532320752354,-2,0,0,1,-2,-1,-1,-1
1532320752359,-1,-1,0,-1,1,-2,-3,-1
1532320752364,0,0,-1,0,-3,-2,1,-1
1532320752369,-1,-2,-2,-2,1,1,-1,-1
1532320752374,-1,-2,-3,-3,-2,0,-2,-2
1532320752379,0,0,0,1,0,1,0,0
1532320752384,0,-2,0,3,2,-2,0,-1
1532320752389,1,-1,-1,-1,-2,0,-1,1
1532320752394,-1,-2,-1,-2,2,-1,0,-2
1532320752399,0,-2,-2,-1,-6,-2,0,-2
1532320752404,-1,1,1,0,-4,-1,-2,-2
1532320752409,0,0,-1,3,-1,-2,4,-1
1532320752414,0,0,1,-2,-1,0,-7,0
1532320752419,-2,0,0,1,9,5,2,0
1532320752424,-1,0,-1,-2,-7,-4,1,0
1532320752429,-2,-2,-3,-2,-3,-2,-3,0
1532320752434,-2,-1,0,0,-4,-2,-1,-2
1532320752439,-1,-2,0,-1,0,-2,-2,0
1532320752444,0,1,1,1,3,2,3,-1
1532320752449,0,-1,1,2,6,0,-1,0
1532320752454,-1,0,2,-2,-1,0,3,-1
1532320752459,-1,-1,-1,-2,-3,-3,-4,-2
1532320752464,-1,-1,-4,0,1,0,2,0
1532320752469,-1,0,-1,-3,-2,-1,0,0
1532320752474,0,0,1,1,2,1,1,0
1532320752479,1,-2,-1,1,-2,-1,-1,1
1532320752484,-1,-1,1,-2,-2,0,-3,-2
1532320752489,-1,0,1,-2,-1,-1,0,-1
1532320752494,-1,-1,-5,-3,-4,-2,-2,-1
1532320752499,-1,1,-1,-1,-1,-1,1,0
1532320752504,0,-1,-1,-2,3,0,-1,1
1532320752509,0,-1,-3,-4,-10,-2,-2,-2
1532320752514,0,0,-2,3,0,0,2,1
1532320752519,-1,0,-1,2,3,0,-2,-1
1532320752524,0,1,2,-2,0,-2,-1,-2
1532320752529,0,-1,1,1,3,0,-3,1
1532320752534,0,0,0,-2,-3,0,0,-1
1532320752539,0,-1,-4,-1,-2,-1,0,-2
1532320752544,-1,-2,-1,-2,-1,-3,-2,0
1532320752549,-1,1,-1,0,4,-2,0,-1
1532320752554,-1,0,-2,1,1,-1,-2,0
1532320752559,-1,-4,0,-1,1,0,-1,0
1532320752564,-1,-1,-2,-1,-3,-1,-2,-4
1532320752569,1,-1,0,-1,0,1,-3,-2
1532320752574,-1,-1,-1,0,2,0,0,-1
1532320752579,-1,0,-1,-4,-6,-3,-2,-3
1532320752584,0,0,-2,-3,-2,0,-1,1
1532320752589,-1,-2,1,1,-1,-1,1,-1
1532320752594,-2,0,1,-3,0,-1,-1,-2
1532320752599,0,-2,-3,-1,0,-1,-1,-1
1532320752604,1,0,0,1,-3,-1,7,1
1532320752609,-3,-1,-2,0,3,1,0,-1
1532320752614,1,-1,-1,1,0,-2,-1,1
1532320752619,0,1,2,1,7,1,1,-1
1532320752624,1,-2,-4,1,-2,-1,0,0
1532320752629,-1,0,-3,-5,-9,-3,-2,-2
1532320752634,0,-1,0,-2,-4,-3,0,-2
1532320752639,-2,-1,0,-4,-7,-4,-2,-1
1532320752644,-1,-3,-1,2,3,0,-1,-1
1532320752649,-1,-1,1,4,6,0,0,-1
1532320752654,0,-2,-1,0,0,1,-1,-2
1532320752659,1,-1,-1,-2,-4,-2,-2,0
1532320752664,-1,0,1,-1,4,1,-2,-2
1532320752669,-1,-2,-2,-1,-7,-3,0,0
1532320752674,-2,0,-2,1,2,1,0,2
1532320752679,0,1,-1,0,2,1,-2,0
1532320752684,0,-2,-1,-1,-5,-2,-1,-2
1532320752689,1,2,0,2,3,-1,0,0
1532320752694,0,-1,-2,-1,1,0,0,-2
1532320752699,-2,0,0,-1,0,-1,2,-1
1532320752704,-2,-1,-3,-4,-11,-3,-4,-1
1532320752709,0,-1,0,3,5,2,1,0
1532320752714,-2,-1,1,2,2,-1,-1,-1
1532320752719,-1,-1,-5,-4,0,1,2,0
1532320752724,-1,0,-1,-4,-9,-4,-4,0
1532320752729,-1,-1,-1,-1,1,0,1,0
1532320752734,0,1,-3,-1,-1,1,1,1
1532320752739,1,-1,1,1,3,-1,-4,-2
1532320752744,-2,0,0,1,0,0,0,-1
1532320752749,-1,0,0,-3,-3,0,1,0
1532320752754,1,0,0,2,1,0,0,-1
1532320752759,0,-2,-2,0,1,-1,0,-1
1532320752764,-1,-1,-2,-4,-7,-2,-1,-1
1532320752769,-2,-1,-3,-2,-5,-2,-4,-1
1532320752774,-2,0,3,-1,-1,-3,-1,-1
1532320752779,0,0,0,0,-2,0,-1,-1
1532320752784,0,0,-1,0,9,0,0,-1
1532320752789,-1,0,-1,-1,-1,-2,0,-1
1532320752794,-1,-2,-2,-5,-4,0,-1,-2
1532320752799,0,0,2,4,-1,-1,1,1
1532320752804,-2,0,1,0,10,3,-1,-1
1532320752809,-1,0,-1,-2,-8,-1,-1,-1
1532320752814,-1,0,-1,2,-1,2,3,0
1532320752819,-1,1,-1,2,5,0,-2,2
1532320752824,0,-1,-4,-5,-3,-3,-1,1
1532320752829,-1,-2,-4,-3,-5,-4,-1,-1
1532320752834,0,0,1,-1,0,0,0,-2
1532320752839,0,-1,-1,-1,-6,-3,-3,-2
1532320752844,-1,1,2,4,5,1,3,2
1532320752849,-2,0,1,-1,1,0,-1,0
1532320752854,-1,-2,-3,-1,-3,-2,-2,1
1532320752859,-2,-1,-1,-2,-3,-1,-2,-2
1532320752864,0,1,1,1,1,2,-3,-1
1532320752869,0,-1,-2,-2,6,3,6,-1
1532320752874,-2,-1,1,0,-7,0,-1,-3
1532320752879,-2,-1,1,-1,-4,-1,-2,-1
1532320752884,0,-2,-2,1,-3,-3,0,-1
1532320752889,0,-2,0,0,5,-1,-2,-1
1532320752894,-1,-1,-2,-2,-5,-3,-2,-1
1532320752899,-1,-1,-1,-1,1,-1,1,1
1532320752904,-2,1,-1,-2,-3,-2,-2,-2
1532320752909,0,0,0,2,1,1,-1,0
1532320752914,0,-1,-3,0,2,-2,-2,-1
1532320752919,-1,0,-1,-2,-5,-1,0,-2
1532320752924,-1,-2,-2,-2,2,0,0,-2
1532320752929,1,0,1,-1,3,-1,-1,-2
1532320752934,-2,0,0,-2,-3,-2,-1,-1
1532320752939,0,-1,-2,0,-1,0,-2,0
1532320752944,0,-1,0,0,-1,1,-1,-1
1532320752949,-1,-2,-1,2,-6,-1,1,-2
1532320752954,0,-1,0,-2,0,0,-2,-2
1532320752959,0,1,1,0,0,-1,-1,0
1532320752964,-2,0,-1,-1,1,-1,-1,-1
1532320752969,-3,-1,0,-1,-2,-1,-3,0
1532320752974,0,0,-2,-1,-1,-1,-1,-1
1532320752979,-1,-1,-2,-2,-3,0,2,-2
1532320752984,0,-1,0,-4,-5,-1,-1,1
1532320752989,-1,1,-1,-1,0,-2,-2,-1
1532320752994,-1,-1,0,-3,7,0,-3,1
1532320752999,1,0,-1,1,-3,0,8,0
1532320753004,0,-1,0,2,3,-1,-1,-1
1532320753009,1,-1,-3,-1,-3,-2,-3,-2
1532320753014,-2,1,-3,1,1,-2,-1,-2
1532320753019,-1,-1,0,2,1,0,-3,0
1532320753024,0,1,0,0,1,-1,-3,1
1532320753029,-1,-2,0,-2,-4,0,0,1
1532320753034,-2,-3,-1,0,-1,0,-1,-1
1532320753039,-1,0,-2,-2,-1,0,-3,-1
1532320753044,-1,-1,-1,2,-1,0,2,1
1532320753049,-1,0,-3,-4,0,-3,-1,-2
1532320753054,0,-1,0,0,-3,-2,0,0
1532320753059,-1,-1,-2,0,2,0,-4,0
