1532115899152,-16,-2,-8,-28,-2,11,0,-8
1532115899157,-3,-5,2,30,-8,-5,-3,-3
1532115899162,0,-3,-23,-43,-11,-23,0,1
1532115899167,1,-6,17,19,-3,28,1,-3
1532115899172,10,4,-1,-15,13,5,1,3
1532115899177,-5,-4,-12,32,-14,-7,-4,-1
1532115899182,-2,-9,-12,6,-2,-4,-2,-2
1532115899187,-4,0,8,0,-19,-2,-1,-2
1532115899192,7,2,13,41,4,-5,-1,0
1532115899197,-8,-5,-18,-51,2,-6,-1,-1
1532115899202,5,0,-6,-5,-14,-11,-1,3
1532115899207,5,-2,10,16,11,7,1,2
1532115899212,-7,3,-9,-13,2,5,3,0
1532115899217,2,0,0,5,-4,-5,-3,-1
1532115899222,-13,-8,-1,25,4,-11,-7,-7
1532115899227,4,22,21,-32,-3,1,3,1
1532115899232,-2,-9,-11,-13,-10,-5,-3,-1
1532115899237,9,0,5,17,25,26,3,1
1532115899242,4,3,-2,-10,-6,-18,-1,1
1532115899247,-13,-16,-23,25,11,6,1,-3
1532115899252,2,0,30,6,2,5,2,0
1532115899257,3,6,-9,11,-16,-19,-3,3
1532115899262,-1,4,-1,7,10,16,-3,-3
1532115899267,0,-4,-11,-43,3,-8,-2,1
1532115899272,2,10,11,-3,7,-1,1,3
1532115899277,3,11,6,3,-2,-5,-1,1
1532115899282,7,11,21,10,0,8,0,0
1532115899287,-6,-9,-14,7,7,10,-1,-1
1532115899292,-4,-9,-16,-40,6,15,5,-1
1532115899297,-4,-6,2,1,-3,-10,-6,-3
1532115899302,2,-1,-6,-16,-6,-23,-2,3
1532115899307,6,11,13,24,3,2,0,-3
1532115899312,-2,-5,-9,20,-1,-4,-5,-1
1532115899317,-5,-12,-14,-7,-8,5,3,-3
1532115899322,-3,11,32,-9,12,13,0,-1
1532115899327,5,-12,-25,21,1,-5,-3,2
1532115899332,3,7,4,-32,2,14,-1,-4
1532115899337,-2,-3,5,-8,-2,-32,-2,2
1532115899342,-1,-2,0,-2,3,12,2,-3
1532115899347,0,-3,4,1,-9,-5,0,-2
1532115899352,0,6,-4,-13,-5,-5,-2,-1
1532115899357,-1,-5,1,45,2,8,-7,-3
1532115899362,-9,-6,-17,-100,9,20,9,-2
1532115899367,-1,1,6,11,6,-3,0,3
1532115899372,1,-4,-4,12,-12,-7,-1,0
1532115899377,-4,-22,-27,-13,-23,-30,-5,-6
1532115899382,7,27,36,27,-2,20,2,0
1532115899387,-1,-2,-1,3,-1,1,-2,1
1532115899392,6,1,0,-20,5,4,0,2
1532115899397,1,4,5,-4,1,-1,-3,1
1532115899402,-2,-8,-7,24,-7,-1,0,-3
1532115899407,-7,-7,-18,-36,0,7,4,-5
1532115899412,5,5,20,30,-2,-14,-4,2
1532115899417,-2,-1,2,-6,1,8,2,2
1532115899422,4,-1,-8,10,-4,-7,-3,1
1532115899427,-3,2,5,6,1,5,-2,-3
1532115899432,-4,-9,-14,0,-3,-1,0,-2
1532115899437,-2,3,5,14,5,12,3,-3
1532115899442,-4,4,-11,-25,1,-11,-5,-2
1532115899447,6,5,12,31,-14,3,-2,1
1532115899452,-7,-2,-11,14,14,-1,-3,-2
1532115899457,4,-1,0,-5,5,-2,0,1
1532115899462,-5,-8,-7,2,-22,-3,2,-1
1532115899467,3,1,3,-13,0,3,-1,-5
1532115899472,-5,-2,-2,7,-10,2,-1,-2
1532115899477,-5,7,7,-10,-3,-5,-2,-1
1532115899482,2,-11,-7,20,2,-6,1,0
1532115899487,3,8,6,0,-2,-11,0,-2
1532115899492,-6,-9,-11,-20,-5,10,0,1
1532115899497,2,2,10,-21,0,1,2,0
1532115899502,3,3,4,-10,-2,-3,-2,2
1532115899507,3,-6,-7,-7,-1,1,-2,0
1532115899512,-7,5,7,49,4,7,-3,-5
1532115899517,-3,-11,-9,-68,-7,-2,1,1
1532115899522,-1,0,1,-4,19,13,-3,1
1532115899527,1,4,7,10,9,-8,1,2
1532115899532,5,-8,-15,6,-6,-3,-2,1
1532115899537,-4,4,-2,-15,-1,-15,1,-2
1532115899542,-1,-4,-4,-5,-9,11,0,-4
1532115899547,3,4,-1,-13,5,3,-5,0
1532115899552,-6,-3,7,12,-11,-9,0,1
1532115899557,-6,-2,1,0,-7,3,0,-4
1532115899562,-2,-4,-6,-16,5,3,0,-3
1532115899567,0,-6,-18,32,-2,-17,-3,-1
1532115899572,2,19,41,-19,2,-1,1,5
1532115899577,4,0,0,6,4,0,-2,1
1532115899582,-2,-1,6,37,-2,5,-2,-1
1532115899587,-6,-6,-7,-11,0,-18,-3,1
1532115899592,5,-6,-13,-11,4,7,0,0
1532115899597,4,-3,-6,18,-4,5,-3,-4
1532115899602,-10,0,4,14,-13,-19,-1,-4
1532115899607,-3,-1,-2,-7,3,21,3,-1
1532115899612,3,-2,-7,-17,9,9,-6,-2
1532115899617,2,3,-2,2,-2,5,6,2
1532115899622,5,-19,-7,14,-2,-14,-1,-2
1532115899627,0,9,11,18,-2,6,-1,-3
1532115899632,-4,1,-14,-33,-11,-18,-3,-6
1532115899637,0,-1,12,8,17,8,-4,0
1532115899642,-2,-3,5,-20,2,-8,0,2
1532115899647,1,-2,1,-18,4,25,2,-2
1532115899652,-2,-6,-5,18,-9,-17,-3,-2
1532115899657,-1,-2,-4,16,-5,-10,-5,-3
1532115899662,-4,8,-3,4,3,-2,-5,-2
1532115899667,-2,1,5,-21,-6,1,-3,-1
1532115899672,1,-2,6,1,9,8,4,2
1532115899677,1,-1,-13,0,-4,6,0,0
1532115899682,-4,-2,5,10,4,-5,-1,-5
1532115899687,0,-3,4,-6,4,1,1,0
1532115899692,1,-3,-8,29,1,-16,-4,-2
1532115899697,-6,0,-2,-27,-26,-15,2,0
1532115899702,3,3,-10,-23,17,23,3,1
1532115899707,-4,-5,-7,0,-13,-18,-4,0
1532115899712,1,-2,11,18,13,0,-2,-1
1532115899717,1,0,1,13,13,12,-1,-2
1532115899722,5,0,-3,28,-8,-8,-2,1
1532115899727,-7,-9,-6,-36,0,3,-2,-6
1532115899732,1,1,-5,-14,0,11,0,0
1532115899737,0,8,11,3,-3,-9,0,-1
1532115899742,1,2,-1,1,-1,5,-1,-1
1532115899747,-6,-4,7,30,4,-4,0,-1
1532115899752,1,4,-3,-25,4,-1,-3,0
1532115899757,-3,-1,-1,25,4,0,0,-3
1532115899762,-3,-2,-3,18,-4,11,3,-4
1532115899767,3,-1,-5,14,-15,-35,-9,2
1532115899772,-6,-13,-22,4,5,21,3,-2
1532115899777,5,5,13,-4,4,-7,-5,1
1532115899782,6,5,-10,-24,1,7,1,1
1532115899787,-6,-4,-61,-4,1,-2,0,-6
1532115899792,-9,-11,69,-7,-21,2,-3,-5
1532115899797,18,16,21,1,7,-2,2,8
1532115899802,-2,-2,8,-21,-7,-22,-4,2
1532115899807,-5,1,-20,-15,-4,4,0,1
1532115899812,1,1,-11,-12,5,-9,1,-3
1532115899817,-5,-15,-36,-26,-9,-7,-1,-1
1532115899822,0,8,33,-3,2,-5,0,3
1532115899827,1,-5,-23,10,20,20,1,-3
1532115899832,2,5,14,39,-4,-13,1,2
1532115899837,-7,-2,12,-24,5,12,-1,1
1532115899842,-2,-7,-11,-7,13,7,-2,-3
1532115899847,-8,-5,17,16,-9,-8,-1,-4
1532115899852,5,10,-11,-16,10,7,3,4
1532115899857,-2,0,-5,-8,5,26,-2,-4
1532115899862,0,-3,-8,13,-4,-27,1,1
1532115899867,5,3,10,-33,-11,-6,0,4
1532115899872,-2,-4,-14,-1,-1,-5,0,-1
1532115899877,1,-3,-22,1,-10,-18,-2,-1
1532115899882,-1,3,19,-15,-3,25,-1,2
1532115899887,-4,-12,6,28,-7,-18,-4,-3
1532115899892,2,8,9,-28,0,-2,2,0
1532115899897,-3,-9,-8,-25,-1,-5,0,-7
1532115899902,-9,-6,-31,5,-9,0,-4,-7
1532115899907,11,20,33,-9,15,5,3,7
1532115899912,0,-2,-7,14,-10,-10,-7,1
1532115899917,-6,0,14,35,8,4,2,-2
1532115899922,-2,-5,-23,19,-4,-3,-1,-2
1532115899927,4,1,-5,-28,-1,3,-6,-2
1532115899932,-7,-1,4,-79,-3,8,6,0
1532115899937,7,8,8,11,13,15,1,2
1532115899942,3,-2,-8,7,-11,-31,-6,4
1532115899947,-9,-4,11,4,4,5,2,0
1532115899952,1,-5,-19,24,4,7,-4,-3
1532115899957,-5,-11,-12,17,3,-2,-3,-5
1532115899962,3,7,31,-35,-5,10,1,5
1532115899967,2,9,18,38,9,8,-4,-5
1532115899972,-4,-2,-11,-10,-42,-18,-4,-1
1532115899977,-1,-4,-1,12,-4,-9,-1,2
1532115899982,0,-3,-8,4,-6,13,-3,-2
1532115899987,-6,-6,0,-8,-12,2,1,-6
1532115899992,1,2,-1,62,12,5,-1,-4
1532115899997,-3,0,0,-76,-19,12,2,0
1532115900002,5,-4,-3,22,-4,-9,-1,2
1532115900007,-3,-3,6,-15,-5,-4,1,3
1532115900012,-5,-7,-14,1,11,16,-2,-6
1532115900017,-1,3,12,19,-8,-22,-7,-1
1532115900022,1,0,2,2,2,-13,1,-4
1532115900027,8,2,-10,-3,-1,16,1,6
1532115900032,1,-1,0,5,2,-7,1,2
1532115900037,-5,0,-3,21,2,-1,-3,-3
1532115900042,-8,-3,-3,-5,2,2,-1,-3
1532115900047,-4,-3,-6,33,3,-8,-6,-8
1532115900052,6,13,2,-74,-13,1,8,5
1532115900057,10,2,-4,5,-6,-1,-1,1
1532115900062,-7,-1,-12,-48,-8,17,4,-3
1532115900067,0,-12,-13,35,-17,-21,-7,1
1532115900072,5,7,28,39,11,-8,-3,0
1532115900077,-3,-2,1,-51,-2,4,-2,-2
1532115900082,-3,-4,-4,12,-10,1,-1,-2
1532115900087,5,12,27,-18,5,10,5,3
1532115900092,-9,-12,-14,9,7,-8,-6,-4
1532115900097,0,-3,-10,39,5,-2,3,0
1532115900102,1,2,25,6,-5,5,0,0
1532115900107,4,7,21,-32,-6,2,4,1
1532115900112,-2,-5,-16,25,2,-2,-4,-4
1532115900117,-3,-3,-4,-12,2,-14,-3,-4
1532115900122,-8,-8,-35,35,7,13,-2,-3
1532115900127,-3,1,48,-7,-5,-1,-3,-1
1532115900132,3,-5,8,-6,-2,10,3,4
1532115900137,2,8,-1,-1,22,9,1,6
1532115900142,-4,3,19,45,-11,-3,-7,-5
1532115900147,-3,-10,-34,-29,-9,-1,4,-2
1532115900152,-9,-14,-32,18,-1,0,-3,-5
1532115900157,2,19,44,7,-10,7,2,-1
1532115900162,4,0,-9,9,-1,-10,-3,-1
1532115900167,-8,0,-27,58,20,10,-3,-9
1532115900172,3,-2,12,-40,-21,-6,3,7
1532115900177,0,-9,-25,20,12,13,-1,-4
1532115900182,4,8,12,-16,-1,-15,0,5
1532115900187,0,0,-15,19,2,4,-3,1
1532115900192,-5,-16,-52,6,-9,3,-3,-8
1532115900197,3,15,17,-15,-6,-18,-8,4
1532115900202,-1,0,5,20,23,14,1,0
1532115900207,-6,-12,-31,19,-9,-5,0,-4
1532115900212,-4,-3,-15,40,-1,-3,-1,-2
1532115900217,3,-8,-9,-9,-10,-9,-1,-2
1532115900222,-3,2,3,-34,4,-2,0,-1
1532115900227,10,3,-15,-21,-3,-7,-2,5
1532115900232,-1,5,0,13,13,8,0,-6
1532115900237,-12,-15,-17,-11,-14,-6,-4,-7
1532115900242,-11,-10,3,-18,-4,-2,-3,-3
1532115900247,9,16,43,36,-6,-6,4,4
1532115900252,2,2,0,9,2,-1,-2,2
1532115900257,-2,-7,4,-14,13,13,-3,1
1532115900262,2,2,26,-5,-1,-8,-1,-6
1532115900267,1,5,-12,83,2,6,-1,-1
1532115900272,-3,-7,-9,-28,10,-2,0,0
1532115900277,4,-1,-6,28,-6,-1,-1,1
1532115900282,-1,5,-1,-49,-8,-3,1,4
1532115900287,1,-5,-15,-4,-4,1,1,0
1532115900292,4,3,-1,6,0,-3,1,-1
1532115900297,-6,-5,5,-43,2,11,1,-2
1532115900302,-2,10,17,-26,4,1,-4,-2
1532115900307,-3,-3,-3,-7,8,-4,5,2
1532115900312,1,1,-4,14,8,4,1,1
1532115900317,-1,-6,-12,-34,5,-1,-5,0
1532115900322,5,2,-5,18,-13,-8,-2,-1
1532115900327,-1,0,2,-15,-1,-7,-5,-1
1532115900332,-8,-5,8,3,5,-2,3,-4
1532115900337,-6,-2,-2,7,3,16,-3,-2
1532115900342,2,-1,14,8,5,-4,-2,0
1532115900347,10,-1,-25,-3,-3,2,-1,2
1532115900352,1,4,18,5,-1,-6,-4,-4
1532115900357,-7,-1,7,-8,-3,-3,1,0
1532115900362,1,0,0,-9,3,9,6,3
1532115900367,-4,-1,0,-7,-7,-4,-3,-2
1532115900372,-1,1,-10,4,-10,-6,-6,-2
1532115900377,2,2,-4,-15,-8,-8,-1,-3
1532115900382,3,5,8,-14,12,4,3,1
1532115900387,4,0,2,5,2,5,3,0
1532115900392,-9,-1,-2,-7,3,5,2,-3
1532115900397,6,7,4,-8,-4,-11,-4,-1
1532115900402,-4,-4,-7,2,-4,0,0,1
1532115900407,-3,-3,5,-8,-2,11,3,-1
1532115900412,7,0,0,7,2,-4,-6,1
1532115900417,-2,-2,-6,1,4,-3,12,0
1532115900422,-10,-6,-8,50,-7,-11,-13,-9
1532115900427,0,-3,16,20,-7,-16,-2,1
1532115900432,9,1,17,6,2,-7,-1,5
1532115900437,-2,-4,4,9,3,7,-3,-2
1532115900442,-14,-2,7,2,3,14,0,-6
1532115900447,-7,-4,-3,6,-18,-20,-3,-5
1532115900452,-1,-4,-12,17,-10,2,3,1
1532115900457,9,7,5,-2,-5,-6,1,4
1532115900462,2,-3,-14,-6,-6,-4,-1,1
1532115900467,-12,-5,-3,-24,7,11,-2,-3
1532115900472,-5,-1,-6,-13,-1,3,3,-1
1532115900477,9,3,1,-9,0,-5,-2,2
1532115900482,-3,0,3,-6,-3,-8,-1,-2
1532115900487,-6,-4,-1,-2,-3,-6,-2,-3
1532115900492,5,6,4,-10,7,2,0,-2
1532115900497,-8,-6,-6,-13,-11,-3,-2,-5
1532115900502,-1,4,3,-27,4,4,0,0
1532115900507,0,7,1,-29,1,5,0,-3
1532115900512,-1,3,-3,-28,4,1,-3,-2
1532115900517,-3,-1,1,-21,2,2,-1,-1
1532115900522,-2,-5,6,-22,4,-5,-1,1
1532115900527,4,-2,9,-3,-1,3,2,3
1532115900532,-1,-3,1,-18,-5,-12,-2,-5
1532115900537,-4,-2,2,2,3,-13,-3,0
1532115900542,2,-2,-2,-13,8,-5,-1,1
1532115900547,-3,-2,-5,16,-6,-3,0,3
1532115900552,4,1,-5,2,1,4,1,0
1532115900557,-1,1,-5,4,0,6,0,2
1532115900562,4,13,-1,10,3,4,2,4
1532115900567,-4,1,-3,13,1,2,-8,-3
1532115900572,-4,0,-3,9,4,16,-3,-3
1532115900577,-4,-3,-8,-4,7,14,-4,-1
1532115900582,-3,-6,6,0,-7,2,2,1
1532115900587,0,-9,-17,2,0,2,-4,2
1532115900592,1,-5,14,6,-1,0,1,-1
1532115900597,-1,-1,-1,-3,3,-1,0,0
1532115900602,7,0,4,1,-4,4,-2,0
1532115900607,0,3,-3,2,-8,-7,3,-4
1532115900612,-8,-7,-8,1,2,-2,0,-2
1532115900617,1,0,-2,0,-3,-5,-1,1
1532115900622,-2,-6,-7,-2,-3,-7,-1,-2
1532115900627,-5,-1,-1,-3,3,-3,-3,-4
1532115900632,2,-1,-8,-6,-1,2,-2,-2
1532115900637,-4,-2,1,8,-8,-18,-4,-1
1532115900642,4,1,-2,5,-3,-19,-3,1
1532115900647,5,2,0,-5,-3,-18,2,0
1532115900652,3,1,-6,2,-2,-13,2,3
1532115900657,-3,-5,-2,3,10,-29,-8,-6
1532115900662,0,-1,1,8,9,-8,-8,-1
1532115900667,0,2,3,10,4,24,16,6
1532115900672,-4,-4,0,1,-7,6,3,1
1532115900677,5,-2,-1,-5,-7,11,-5,0
1532115900682,-7,-4,-7,-10,-4,25,3,-4
1532115900687,-3,2,5,12,8,-3,-5,-4
1532115900692,3,3,16,-1,-3,19,-2,-2
1532115900697,-4,-3,-11,0,7,22,2,0
1532115900702,1,-1,2,5,-5,10,-1,0
1532115900707,1,0,-5,-8,1,28,-3,-1
1532115900712,-3,-6,-6,7,1,3,0,2
1532115900717,0,2,-1,-6,-1,18,2,-2
1532115900722,3,6,8,1,-2,-4,-4,2
1532115900727,-2,-3,2,-6,-3,12,-1,-4
1532115900732,-2,0,-4,3,0,-5,-5,0
1532115900737,6,-1,0,4,-4,-4,0,0
1532115900742,-2,-2,-7,2,-1,0,1,-2
1532115900747,-3,-2,4,0,-6,-13,-2,-5
1532115900752,1,5,-5,-2,0,-2,2,-1
1532115900757,-8,-1,3,2,-2,-6,-1,-4
1532115900762,3,-3,-1,7,-1,-2,0,-1
1532115900767,1,-1,3,-4,1,-15,-4,-1
1532115900772,3,0,-2,-3,-2,-12,-2,0
1532115900777,3,2,1,-2,-6,-5,4,0
1532115900782,-6,0,-2,-3,1,-5,-9,-3
1532115900787,-1,-1,1,-1,1,5,7,1
1532115900792,4,1,-3,8,3,-5,-3,1
1532115900797,1,-1,4,-8,0,8,5,2
1532115900802,-4,-6,-3,-13,10,-6,9,-6
1532115900807,-7,-5,-2,12,0,-8,-6,-1
1532115900812,8,8,4,2,-4,-7,1,9
1532115900817,-9,-2,-2,6,-7,-6,-4,-6
1532115900822,4,-2,2,1,7,15,-3,-8
1532115900827,7,0,-5,-13,-7,9,-2,-2
1532115900832,-11,-6,-6,2,-2,3,-4,-5
1532115900837,2,1,0,-2,-3,7,-3,3
1532115900842,7,0,0,-1,-3,10,4,4
1532115900847,-9,-3,0,-6,2,-6,-3,2
1532115900852,-1,-2,-4,1,-3,0,0,5
1532115900857,-1,2,1,-3,2,-4,3,-11
1532115900862,-5,-6,-3,-5,-1,5,0,7
1532115900867,7,1,1,-11,3,5,-11,-5
1532115900872,-9,2,-2,19,-10,2,3,-3
1532115900877,-3,-1,4,6,1,-1,3,1
1532115900882,3,2,1,-1,-6,-6,0,0
1532115900887,7,0,-2,-5,0,2,-2,5
1532115900892,-2,-7,-1,-11,5,-1,-3,-5
1532115900897,3,1,-4,-6,1,-10,-5,1
1532115900902,-4,-1,-1,-8,-8,-5,1,-1
1532115900907,1,-1,0,-2,2,-5,0,3
1532115900912,1,-5,-2,-16,-1,-7,-2,-2
1532115900917,0,1,0,1,-1,-6,-3,-3
1532115900922,-7,-2,-2,-1,-3,-3,-4,-9
1532115900927,-4,0,0,6,4,-9,1,0
1532115900932,2,1,0,-2,-3,-2,0,-5
1532115900937,-1,0,2,1,5,12,0,2
1532115900942,-5,-2,0,2,-4,-18,-7,1
1532115900947,0,-1,2,6,-9,-8,6,0
1532115900952,0,-1,1,-2,-1,5,-2,2
1532115900957,2,-2,-5,-6,-3,-16,-3,1
1532115900962,2,3,0,11,5,16,3,0
1532115900967,0,2,-1,-8,1,-4,-1,9
1532115900972,-4,-5,-3,-5,-5,-5,-7,-13
1532115900977,-5,-4,1,5,-2,4,-2,-2
1532115900982,0,-3,-3,-2,-3,-8,-2,-1
1532115900987,5,3,4,3,-5,5,2,-11
1532115900992,-2,1,-2,-14,14,5,3,5
1532115900997,-7,-3,2,9,-2,-3,-2,5
1532115901002,5,2,0,2,6,9,-1,-5
1532115901007,0,-1,0,-1,-14,-21,-4,4
1532115901012,-4,-1,2,-2,-5,-9,-2,-5
1532115901017,-7,-8,-2,-8,-2,12,0,-1
1532115901022,3,3,-1,1,-2,-2,2,6
1532115901027,4,1,-1,-5,6,10,1,2
1532115901032,0,0,1,-3,-6,-18,-2,-3
1532115901037,-4,-3,-5,-1,1,4,1,-3
1532115901042,4,-1,0,-4,1,10,3,-1
1532115901047,-11,0,-3,11,-7,-9,-3,-7
1532115901052,-2,-1,-3,13,4,4,-1,7
1532115901057,4,0,-1,2,-7,-2,-3,-1
1532115901062,6,0,-1,-3,-8,-6,-2,-2
1532115901067,-6,-4,0,0,6,7,0,0
1532115901072,-4,-2,-2,-3,0,7,1,-1
1532115901077,4,3,-1,-4,-1,-2,1,-2
1532115901082,-8,-1,-4,-2,-4,-3,-3,-1
1532115901087,3,-5,-3,1,0,9,-2,-1
1532115901092,8,4,0,-2,8,10,-2,14
1532115901097,-8,0,2,5,-4,-16,-1,-17
1532115901102,-2,-3,-1,3,-4,-5,-4,-11
1532115901107,-4,-3,0,-12,5,12,6,-2
1532115901112,5,0,0,6,2,0,0,-1
1532115901117,6,1,-1,-3,8,5,0,11
1532115901122,-7,-2,0,-5,-7,-4,-2,-4
1532115901127,-6,2,1,5,-4,-9,-3,-5
1532115901132,-1,-3,1,6,-1,6,0,0
1532115901137,0,-3,0,2,0,-2,0,4
1532115901142,-2,-1,0,8,-1,-4,0,1
1532115901147,7,0,-3,-4,3,5,-1,1
1532115901152,1,2,2,-2,-2,10,2,-1
1532115901157,-2,-4,-5,-1,0,-19,-4,-1
1532115901162,-6,2,-2,2,0,19,0,-2
1532115901167,-2,1,1,-1,-3,-15,-4,-1
1532115901172,5,3,1,6,0,3,1,-2
1532115901177,-3,-2,-2,-1,0,2,-2,0
1532115901182,-1,-2,3,-2,4,-4,0,3
1532115901187,-3,-4,-5,-2,2,1,-4,-5
1532115901192,-3,-7,-2,-1,-9,-5,0,-6
1532115901197,-3,-3,-2,-3,-3,15,0,-3
1532115901202,0,0,1,-2,3,-18,1,3
1532115901207,7,3,-13,2,-2,-3,-2,-1
1532115901212,-3,0,0,-3,0,-9,-2,-1
1532115901217,4,-2,-6,-9,-7,4,0,2
1532115901222,-7,0,6,-6,-2,-10,0,-2
1532115901227,-9,-3,3,-6,1,-1,-4,0
1532115901232,-1,1,-4,-6,-2,-2,0,-3
1532115901237,5,3,1,-2,2,-1,-3,0
1532115901242,-3,-4,-5,-5,-3,-5,0,-2
1532115901247,3,-2,0,-11,-3,11,2,2
1532115901252,-3,-1,-3,-3,-2,-15,-1,1
1532115901257,-3,1,3,-7,1,-6,-4,-4
1532115901262,-1,-2,1,-7,4,-5,-1,0
1532115901267,2,0,0,-3,8,10,2,1
1532115901272,-1,1,0,-10,-10,-15,-2,-3
1532115901277,2,2,0,-6,-4,-1,3,4
1532115901282,-1,-1,-5,0,-6,2,-4,-2
1532115901287,-2,-4,4,8,2,4,0,1
1532115901292,2,-1,3,-1,5,9,0,-1
1532115901297,-4,1,-4,-1,2,0,1,-1
1532115901302,-2,0,2,1,3,2,-1,2
1532115901307,1,3,0,2,-9,-12,0,0
1532115901312,1,0,-1,1,0,-4,-2,-2
1532115901317,-4,-2,-4,5,-10,-1,0,-3
1532115901322,0,-1,-1,-6,2,1,0,1
1532115901327,-3,1,-2,-3,5,-11,-2,-5
1532115901332,-3,0,-1,1,6,4,2,3
1532115901337,7,1,1,3,-2,13,-1,-1
1532115901342,3,0,-2,1,3,-11,-1,-2
1532115901347,-13,-8,0,14,-13,-13,-6,-3
1532115901352,-2,-1,-3,-5,-8,-3,-4,-2
1532115901357,-1,0,2,3,8,3,0,0
1532115901362,9,3,-1,-4,-2,10,-1,2
1532115901367,2,1,0,-2,4,10,3,2
1532115901372,-4,-5,-1,4,1,1,-2,-3
1532115901377,-1,-1,2,1,-6,2,-2,-1
1532115901382,-1,-1,-1,2,-11,-4,0,-1
1532115901387,7,2,3,6,3,0,1,2
1532115901392,-6,-4,-4,7,1,5,0,-2
1532115901397,5,2,-2,-4,1,-11,1,-1
1532115901402,-2,-2,0,5,0,12,-2,-3
1532115901407,-6,-5,-4,-5,-3,-4,-3,-1
1532115901412,4,1,3,1,9,17,1,-2
1532115901417,-2,-3,-2,6,-3,-14,1,6
1532115901422,2,1,-2,-2,-14,-9,0,0
1532115901427,1,1,1,-7,-2,1,0,-2
1532115901432,-1,-1,-1,1,0,2,-3,-3
1532115901437,-7,0,-2,-5,2,-1,-1,-3
1532115901442,8,3,-1,-3,-1,3,1,2
1532115901447,1,-2,-2,-2,1,-6,-3,2
1532115901452,-13,-7,-4,-5,-6,-6,-6,-9
1532115901457,0,0,0,-4,4,1,-2,0
1532115901462,-1,0,1,1,-2,-7,-2,-5
1532115901467,3,2,2,-4,0,9,3,3
1532115901472,8,3,1,1,-3,-22,-2,9
1532115901477,0,0,0,2,-4,0,-4,-15
1532115901482,-3,-7,-5,-1,1,2,-1,-2
1532115901487,-5,-3,-3,1,-3,-6,0,-7
1532115901492,-1,6,4,-1,0,6,1,3
1532115901497,0,-3,2,-7,4,5,1,3
1532115901502,-2,-1,-1,0,-5,-12,-1,1
1532115901507,3,0,-1,2,-1,6,1,1
1532115901512,0,0,0,-1,-2,2,2,0
1532115901517,-1,-1,-2,-1,0,0,-2,4
1532115901522,-2,-2,-2,-6,2,1,0,1
1532115901527,-11,-2,-1,-2,0,3,-4,-9
1532115901532,5,0,0,2,1,1,2,-1
1532115901537,0,-1,-1,4,-1,0,-1,-2
1532115901542,-4,-3,-1,10,6,4,0,3
1532115901547,5,3,-1,-7,-7,4,-2,0
1532115901552,-5,-3,-2,3,-2,-8,-3,1
1532115901557,4,-1,0,-4,-2,-4,0,-1
1532115901562,-8,2,1,-8,3,-1,1,0
1532115901567,1,-2,-1,5,1,-8,-5,-4
1532115901572,1,-1,-1,1,-3,1,-1,-2
1532115901577,-1,-4,0,-1,-4,-4,-1,5
1532115901582,3,-6,-4,-1,2,0,-3,-1
1532115901587,2,5,0,-3,-6,1,2,-3
1532115901592,-9,-2,2,-7,2,-3,0,1
1532115901597,2,3,1,-3,-1,0,0,0
1532115901602,-1,2,-1,-12,-4,6,2,-6
1532115901607,-3,-5,-2,5,3,-14,-3,1
1532115901612,-2,-3,-4,-13,-1,-4,2,12
1532115901617,1,-1,1,-1,-2,2,0,-4
1532115901622,0,0,2,0,5,2,-6,-9
1532115901627,3,1,-3,-4,-1,3,0,1
1532115901632,2,0,-2,-9,-1,2,-3,-8
1532115901637,4,-1,-2,-2,-5,-8,-4,4
1532115901642,-9,-3,-1,-4,-5,-7,-2,7
1532115901647,-2,-3,0,-13,-3,-14,-4,-4
1532115901652,1,-1,0,-1,0,7,0,-2
1532115901657,-1,0,-2,-1,6,5,0,2
1532115901662,6,6,0,-2,-5,0,-1,-1
1532115901667,0,0,-2,-2,1,1,-1,-1
1532115901672,4,-2,-2,1,1,1,-2,0
1532115901677,-3,1,2,-6,-8,-18,2,0
1532115901682,-10,-2,-1,-3,-5,13,0,-6
1532115901687,-6,-1,-1,1,5,-1,1,0
1532115901692,1,-3,-3,1,-3,-2,-2,-1
1532115901697,1,2,1,-1,0,1,-1,-2
1532115901702,4,-1,0,3,5,-1,1,3
1532115901707,2,-2,-1,-7,-4,4,1,13
1532115901712,0,1,0,4,-3,1,-1,-9
1532115901717,-6,-2,0,0,5,14,0,-12
1532115901722,-2,-3,-3,-1,-7,-27,-4,-9
1532115901727,2,1,0,3,-1,6,2,-4
1532115901732,-5,-3,-1,3,2,-3,-1,4
1532115901737,6,2,1,-2,-5,2,3,11
1532115901742,-9,-2,-1,6,4,1,-6,-5
1532115901747,4,2,3,4,2,-1,1,1
1532115901752,-5,-2,0,-1,-5,-9,1,-4
1532115901757,-10,-4,-2,-2,4,7,0,-7
1532115901762,9,0,0,2,1,2,-2,2
1532115901767,-2,1,-2,-6,-8,8,1,-1
1532115901772,4,2,0,8,1,-11,-4,-4
1532115901777,-2,0,-1,0,-2,-3,-1,9
1532115901782,1,-1,0,-3,6,4,3,-7
1532115901787,-4,-1,-2,10,-4,-8,-5,-6
1532115901792,7,0,1,-3,-2,1,-1,-8
1532115901797,-1,-2,-2,0,-1,4,-1,-3
1532115901802,-3,-2,-1,4,-4,8,2,12
1532115901807,1,0,1,-2,3,1,-1,-2
1532115901812,-4,-1,-2,2,-3,3,0,1
1532115901817,3,-3,-3,2,-1,-4,0,-1
1532115901822,0,2,-1,-1,1,11,2,3
1532115901827,-1,-3,-1,5,7,-1,0,-5
1532115901832,1,4,-3,-10,-7,-4,-5,0
1532115901837,-6,-5,-1,3,3,-2,-1,-4
1532115901842,6,5,2,5,-5,-1,2,0
1532115901847,-4,-5,-1,3,-4,-2,0,1
1532115901852,2,-3,0,-3,0,11,-1,2
1532115901857,-4,2,-2,-1,-1,-9,-2,-5
1532115901862,-4,-1,-2,-9,1,3,-4,-3
1532115901867,3,2,3,3,-1,-15,-2,16
1532115901872,2,-2,-1,2,-2,3,5,1
1532115901877,-1,-2,1,-6,-1,0,-6,-14
1532115901882,-1,-4,-1,-2,-5,-5,1,-2
1532115901887,-3,0,-1,1,-1,7,-4,-4
1532115901892,0,0,-2,-1,-5,0,-1,5
1532115901897,4,0,-1,12,4,-2,0,10
1532115901902,-1,-1,-4,2,2,2,-2,-2
1532115901907,-7,-2,-2,-2,-4,-2,-1,-9
1532115901912,-9,2,2,0,1,-3,0,-3
1532115901917,6,2,-2,-4,2,6,0,-2
1532115901922,0,1,0,-7,-5,-3,-1,6
1532115901927,-5,-2,-1,3,-2,-7,1,-10
1532115901932,0,0,-3,-6,0,-4,0,-6
1532115901937,0,1,-2,1,-2,-6,-5,-2
1532115901942,-1,-3,-1,1,-3,-2,-1,5
1532115901947,2,-1,-1,-5,-1,1,1,10
1532115901952,6,4,2,-5,1,4,0,-7
1532115901957,-10,-2,-3,0,0,15,0,1
1532115901962,-6,-4,-2,-2,2,-10,-3,-2
1532115901967,-4,-5,-3,0,4,8,0,-9
1532115901972,10,0,-2,-3,-5,-10,1,6
1532115901977,-5,-4,-1,-7,-7,-5,-3,-3
1532115901982,1,-1,-2,-4,3,1,0,1
1532115901987,-2,3,1,-4,2,-1,2,3
1532115901992,2,-2,0,4,1,4,-2,-3
1532115901997,-2,1,0,-7,0,5,4,-1
1532115902002,-4,-4,-4,-1,-12,-1,-3,-2
1532115902007,7,0,1,-8,-6,0,0,-1
1532115902012,-3,-1,0,-3,3,1,1,3
1532115902017,-2,2,2,6,0,0,0,-2
1532115902022,4,4,-1,4,1,-2,-2,-4
1532115902027,-7,0,0,-2,-1,-2,-3,-3
1532115902032,-4,-4,-3,4,-1,7,-1,-2
1532115902037,1,-3,-1,-10,-4,-3,0,2
1532115902042,4,-1,-1,-1,10,9,4,9
1532115902047,10,2,-1,1,-6,-19,-2,-5
1532115902052,-11,-2,0,8,-2,0,-1,-3
1532115902057,-2,-3,-3,-2,8,6,-1,-7
1532115902062,-1,1,0,-3,-3,-6,-3,-10
1532115902067,-4,-3,-2,-5,5,5,-2,7
1532115902072,5,2,2,-5,-1,-1,1,0
1532115902077,-1,2,0,4,1,1,0,0
1532115902082,-5,-1,0,7,0,3,0,-2
1532115902087,4,0,0,-1,-3,-5,0,2
1532115902092,3,-2,0,3,12,15,0,0
1532115902097,-2,4,-1,-5,-12,-16,-1,1
1532115902102,-6,-2,-3,-3,4,2,-3,-3
1532115902107,-2,-3,-2,3,-5,-5,-2,-1
1532115902112,3,1,0,-1,-8,-18,1,-2
1532115902117,-4,-3,1,-4,10,17,0,1
1532115902122,1,0,-2,-2,5,-2,0,0
1532115902127,0,0,-1,4,-6,8,1,-2
1532115902132,-5,-1,1,-3,-1,-18,-2,-2
1532115902137,-3,0,-2,3,1,6,-1,4
1532115902142,-2,-2,-1,6,0,-3,0,-5
1532115902147,-2,-3,-2,6,-1,-10,-3,-11
1532115902152,0,-1,-3,-2,5,10,3,12
1532115902157,-1,-2,2,-3,-1,17,-2,-21
1532115902162,2,0,-1,13,-11,-4,-3,7
1532115902167,10,2,-1,1,-1,-5,-2,3
1532115902172,-2,-1,-3,2,-2,-4,-2,-3
1532115902177,-11,-2,0,0,-2,2,0,3
1532115902182,-5,-1,0,-3,5,8,2,-2
1532115902187,2,0,0,-5,5,-7,-1,0
1532115902192,-6,-4,-2,0,-1,18,2,-1
1532115902197,12,5,-1,9,-3,-16,0,6
1532115902202,-2,-1,-2,-4,-2,-2,-3,-3
1532115902207,-8,-3,-1,2,-1,-3,-1,5
1532115902212,0,-3,3,4,4,0,-2,-12
1532115902217,5,0,-3,-7,0,-1,1,-3
1532115902222,-1,-1,-14,1,-2,-5,-2,-2
1532115902227,-1,0,-1,-8,0,5,-1,-1
1532115902232,-2,-2,1,-2,-3,-3,-1,1
1532115902237,1,-5,4,-3,5,3,-1,1
1532115902242,2,2,4,4,-12,-21,0,8
1532115902247,2,4,-1,-6,-1,-2,1,-9
1532115902252,3,0,-2,1,-2,-7,0,4
1532115902257,-6,-5,-6,-4,-1,-4,-3,-9
1532115902262,-5,-5,0,-6,2,-1,-4,-3
1532115902267,-7,-5,0,6,0,1,-2,-1
1532115902272,1,6,-5,0,0,7,1,-11
1532115902277,7,3,-6,0,-3,-16,4,9
1532115902282,4,1,2,-9,6,5,0,2
1532115902287,-1,-2,0,2,-7,2,3,0
1532115902292,-6,-2,3,1,-4,-12,-7,-9
1532115902297,2,-1,-3,2,2,12,-3,-1
1532115902302,1,0,-2,-7,-7,14,1,-7
1532115902307,-2,-3,2,4,9,-11,-4,11
1532115902312,0,2,-1,2,-9,-15,-4,1
1532115902317,3,-1,2,2,-1,0,0,-5
1532115902322,-2,4,5,2,-1,-2,0,0
1532115902327,-4,-1,5,-10,-4,9,-1,-4
1532115902332,-4,-3,-4,-6,-3,-6,-2,3
1532115902337,-4,-8,-20,-2,-2,-5,-1,0
1532115902342,0,-2,3,-8,0,5,0,1
1532115902347,3,0,-4,-5,-1,3,2,0
1532115902352,1,1,3,8,5,-6,-6,15
1532115902357,-4,3,10,-6,-8,3,1,-12
1532115902362,-3,0,-6,1,5,1,-2,-8
1532115902367,2,-1,-7,-3,0,-2,-3,5
1532115902372,5,2,5,-5,-9,6,2,-9
1532115902377,-4,-6,0,4,10,-2,-3,9
1532115902382,-2,4,9,1,2,2,-2,-4
1532115902387,-3,1,-6,4,-4,1,-1,-5
1532115902392,3,-1,16,-1,2,-2,7,14
1532115902397,1,0,-15,1,-6,5,-6,-6
1532115902402,-3,-3,1,-6,-5,-18,0,-6
1532115902407,-13,-4,5,-2,1,-12,-7,2
1532115902412,-1,-4,-22,-4,2,2,-3,-6
1532115902417,0,6,22,4,6,4,2,-7
1532115902422,3,3,12,3,-4,18,1,6
1532115902427,7,-1,-2,-3,-1,5,4,-1
1532115902432,-7,-8,-9,4,-4,0,-4,0
1532115902437,-1,0,14,1,-2,-6,-5,2
1532115902442,0,-5,-12,0,5,10,4,-2
1532115902447,-2,3,-16,-9,-2,-5,-1,10
1532115902452,-1,-3,7,-6,1,5,4,-12
1532115902457,3,0,-14,1,2,-10,1,7
1532115902462,0,1,7,-13,1,-5,0,0
1532115902467,-1,-1,8,8,-10,-21,-6,-7
1532115902472,-2,-2,-17,-8,6,-2,3,-9
1532115902477,-1,-8,-16,-12,-8,-3,-13,19
1532115902482,-2,4,20,3,-4,3,-1,-19
1532115902487,-2,-1,-18,1,3,12,4,-5
1532115902492,-6,-3,14,2,-4,-14,-5,13
1532115902497,1,1,-21,-20,-13,14,8,15
1532115902502,-2,-7,-5,-10,-20,-23,-21,-39
1532115902507,3,0,8,15,41,7,-6,-9
1532115902512,2,7,27,38,3,9,7,5
1532115902517,2,0,-16,-4,-4,-4,5,-1
1532115902522,2,-1,10,-7,-6,14,10,38
1532115902527,1,0,2,-5,-15,3,-6,-21
1532115902532,-5,-2,-4,-15,6,-4,-13,-10
1532115902537,-3,-5,4,10,-4,-8,-1,8
1532115902542,3,-2,-17,2,-2,-5,2,9
1532115902547,9,6,32,2,-4,0,2,2
1532115902552,-3,-2,-16,-16,3,14,7,30
1532115902557,-5,3,10,-13,3,-3,14,39
1532115902562,-25,-8,-15,40,0,-12,-40,-82
1532115902567,5,-5,3,3,-6,-1,6,21
1532115902572,-5,6,5,-1,-4,-5,-10,-12
1532115902577,6,0,-3,-10,4,-8,-1,6
1532115902582,4,-5,-5,-35,16,14,16,31
1532115902587,-3,-5,-5,2,-13,-38,-3,0
1532115902592,2,-3,-22,-17,-16,-24,-3,-4
1532115902597,-1,1,28,-1,-4,4,0,-16
1532115902602,-3,-5,5,-9,-4,7,-1,-6
1532115902607,2,4,-4,7,8,13,-7,-5
1532115902612,4,4,-1,10,16,2,5,-7
1532115902617,-1,0,9,18,-4,2,-4,-12
1532115902622,2,-4,-27,6,-4,-7,5,8
1532115902627,-6,-4,2,-22,-19,8,1,10
1532115902632,8,5,-7,-3,2,8,4,15
1532115902637,-7,-12,2,-7,3,21,-7,-40
1532115902642,-2,-9,7,-8,-1,-14,-2,19
1532115902647,0,-5,-14,-10,-15,-8,-2,-7
1532115902652,-5,-5,22,-2,-5,21,-4,-15
1532115902657,3,1,-6,0,11,38,6,-5
1532115902662,8,1,-11,-11,11,17,8,25
1532115902667,-6,-12,-22,21,22,1,-6,-7
1532115902672,2,9,-7,-11,-10,-7,-2,4
1532115902677,0,3,30,-6,-8,-14,-2,-8
1532115902682,4,17,13,-6,1,-6,-6,21
1532115902687,-1,5,-2,0,2,-3,-4,-32
1532115902692,-5,-4,-20,4,-1,11,-3,-12
1532115902697,-5,7,10,-2,0,-33,-4,13
1532115902702,2,-2,-23,7,-1,-5,12,0
1532115902707,4,12,44,-11,-7,-7,-15,-13
1532115902712,-2,-6,-31,-2,-6,3,-3,-4
1532115902717,6,6,-6,-8,1,19,-2,-4
1532115902722,-12,-11,2,23,7,-11,-1,1
1532115902727,-4,-4,-7,8,7,4,8,17
1532115902732,-1,0,-12,-9,-14,-21,-4,-4
1532115902737,3,4,8,-1,-5,13,0,3
1532115902742,10,12,26,-20,28,-2,0,9
1532115902747,-5,-3,-49,10,-15,11,5,-1
1532115902752,-4,-4,44,-13,1,-4,0,17
1532115902757,12,12,-11,23,1,-16,3,13
1532115902762,-4,-2,-8,5,-5,9,-2,-22
1532115902767,0,-1,-6,-21,-11,-3,-17,-21
1532115902772,-11,-19,-40,13,-2,5,5,-8
1532115902777,-2,11,47,-39,17,-15,-7,-13
1532115902782,8,-5,-8,16,-14,9,10,7
1532115902787,0,-3,9,-21,2,-1,-3,18
1532115902792,-1,-2,-28,7,-8,-18,-3,0
1532115902797,-9,-12,-16,8,-3,-2,-1,-3
1532115902802,1,9,18,6,-4,-3,-5,9
1532115902807,4,-5,-10,-26,-2,-7,14,11
1532115902812,6,18,45,20,6,18,1,-7
1532115902817,-4,-7,-34,5,0,3,-3,-5
1532115902822,0,-2,-7,-11,-3,10,0,2
1532115902827,5,0,6,28,-9,-27,8,8
1532115902832,1,-3,5,-9,3,-21,-3,-8
1532115902837,-7,0,-8,4,2,-7,-4,13
1532115902842,2,-6,-23,-3,-7,10,-6,-29
1532115902847,-14,-3,-2,11,4,9,0,5
1532115902852,-1,6,36,-4,5,-8,-3,1
1532115902857,0,-6,-9,16,-16,9,1,-2
1532115902862,3,-2,9,-7,9,-5,-1,9
1532115902867,2,7,4,-9,4,17,1,5
1532115902872,-3,-10,-23,-13,1,4,-2,1
1532115902877,1,3,-6,-3,-5,-2,4,0
1532115902882,-10,-4,-13,17,4,-21,-4,-10
1532115902887,-6,-5,38,5,-9,15,-4,-19
1532115902892,19,32,42,3,31,-2,1,11
1532115902897,-5,-8,-19,21,-7,-2,2,0
1532115902902,2,-1,-15,-7,0,11,-1,-6
1532115902907,-2,1,-21,4,-17,-4,-2,4
1532115902912,-5,-7,-2,-18,-2,12,2,8
1532115902917,-7,-9,-7,-13,-17,-7,-7,-15
1532115902922,-1,7,15,-17,5,6,5,9
1532115902927,-2,-9,-3,-3,-5,-14,-4,17
1532115902932,5,3,4,-5,-17,10,-4,-16
1532115902937,4,-2,4,-12,-17,-8,-4,-2
1532115902942,-2,-4,-10,-1,-7,16,5,-7
1532115902947,-3,6,5,-7,12,-7,9,23
1532115902952,4,-6,-12,9,6,-2,-4,-23
1532115902957,-9,-4,-10,25,3,-6,-6,-6
1532115902962,-3,-3,18,8,-6,-7,-4,1
1532115902967,10,0,-15,-3,3,10,-1,-5
1532115902972,-9,-14,-16,-3,-2,9,7,16
1532115902977,2,2,6,-10,4,-9,-5,-11
1532115902982,-6,2,19,8,-3,-2,-2,5
1532115902987,3,11,13,-8,3,-1,1,-3
1532115902992,-4,-13,-25,-2,4,2,-4,1
1532115902997,4,-1,-23,-17,4,7,0,-11
1532115903002,-3,-4,33,-13,-4,-45,0,21
1532115903007,6,-4,-15,-5,-1,2,-9,-28
1532115903012,-4,-1,9,-6,-2,11,3,3
1532115903017,-2,0,-2,-6,2,-10,-2,0
1532115903022,0,0,-9,6,1,-4,-1,-1
1532115903027,-4,-7,-11,7,0,-1,0,2
1532115903032,-3,-9,-16,-5,-5,-5,-2,-2
1532115903037,-13,-25,-15,-4,9,9,3,15
1532115903042,5,33,46,-13,-7,-3,-5,-35
1532115903047,1,1,7,-14,6,10,-4,6
1532115903052,0,-1,1,2,-4,-15,-1,-4
1532115903057,4,1,2,2,-2,-9,1,19
1532115903062,-7,-12,-29,0,-6,5,-1,-12
1532115903067,-2,0,-7,0,9,-1,-1,-4
1532115903072,4,1,7,-1,-3,-5,1,4
1532115903077,1,4,3,-3,7,-1,-1,-1
1532115903082,1,-4,-14,-2,-3,0,1,13
1532115903087,1,6,14,-1,2,-8,1,6
1532115903092,3,-2,-10,-1,0,-6,-3,1
1532115903097,4,2,12,-18,-3,8,4,-5
1532115903102,-9,-2,-2,0,8,-9,-3,11
1532115903107,0,-10,-22,13,-10,-1,-2,-11
1532115903112,1,7,5,-9,1,13,4,11
1532115903117,8,7,24,-6,15,2,-1,1
1532115903122,-8,-5,-20,6,7,14,-7,-31
1532115903127,-2,0,18,-4,-3,-6,2,0
1532115903132,-5,-11,-26,9,-3,-4,-3,-5
1532115903137,1,4,9,-13,1,1,5,5
1532115903142,5,-7,-15,-2,-10,-1,4,21
1532115903147,-2,8,20,-8,-1,-1,-3,2
1532115903152,-6,-1,5,14,-2,1,-5,-34
1532115903157,-5,-1,3,8,3,9,-1,-3
1532115903162,-2,-5,-6,-12,-4,9,2,13
1532115903167,-2,-6,-9,19,-5,-22,-1,8
1532115903172,5,2,14,3,3,-4,-1,-7
1532115903177,-10,-2,-18,1,-9,-12,-8,-20
1532115903182,11,1,13,3,-4,10,2,-5
1532115903187,-5,-3,-6,-12,-2,11,1,16
1532115903192,-4,3,6,1,-3,-11,-3,2
1532115903197,3,-3,-6,12,4,-10,1,3
1532115903202,5,3,6,3,-8,4,-5,-10
1532115903207,12,1,-2,-8,-7,0,0,1
1532115903212,-12,-5,3,-5,7,0,3,5
1532115903217,-6,-4,-10,4,-4,0,-4,-9
1532115903222,-7,0,-2,5,-5,-5,-2,4
1532115903227,5,0,-1,8,22,4,-1,-5
1532115903232,3,3,2,-8,-8,-7,-1,2
1532115903237,7,1,8,4,-4,11,8,6
1532115903242,-1,-6,-13,-5,7,-8,0,36
1532115903247,1,3,9,17,-14,-11,-11,-59
1532115903252,-2,-2,-2,-2,0,0,-5,4
1532115903257,0,0,3,2,-4,-10,-5,-3
1532115903262,-3,-4,-5,7,12,19,5,-1
1532115903267,-2,1,-4,-15,-3,5,1,10
1532115903272,-3,2,8,8,2,5,1,-3
1532115903277,-4,-2,-3,-2,-3,2,-2,-5
1532115903282,4,-1,-3,-2,-7,-28,-2,-2
1532115903287,1,5,6,-1,6,8,5,14
1532115903292,2,-3,-3,-8,0,2,-3,4
1532115903297,-4,1,3,4,0,0,-2,-7
1532115903302,5,-1,-10,-2,4,3,0,0
1532115903307,-8,-7,-12,4,-1,-16,-1,0
1532115903312,3,1,-1,-10,-11,-1,1,7
1532115903317,3,3,0,0,8,-18,-6,-12
1532115903322,-6,-7,-13,-1,-3,-5,1,-4
1532115903327,2,1,7,-9,1,15,4,1
1532115903332,7,-1,-6,-13,-2,-10,0,22
1532115903337,-11,-6,-5,-3,-10,6,3,-7
1532115903342,-1,3,7,-6,-11,1,0,-9
1532115903347,1,0,-1,1,20,14,-1,-1
1532115903352,-1,-1,1,-3,-12,-17,-4,-2
1532115903357,3,-1,4,4,0,12,0,12
1532115903362,-3,-4,0,-2,2,16,-3,-7
1532115903367,-2,-3,-7,-7,-9,-22,1,3
1532115903372,-1,2,-2,12,-4,2,0,-1
1532115903377,2,0,0,3,5,3,1,2
1532115903382,2,2,-3,1,-5,-13,-4,9
1532115903387,10,0,0,1,0,7,0,-2
1532115903392,-4,0,0,-6,4,6,3,17
1532115903397,-6,-2,-1,8,-4,-4,-2,-24
1532115903402,-7,-4,-4,-9,1,12,-3,-13
1532115903407,-6,-4,-4,1,-1,-16,-2,10
1532115903412,6,3,3,-6,-5,5,-1,-10
1532115903417,2,1,1,13,13,-7,-7,8
1532115903422,-3,2,1,3,-1,-6,-2,-4
1532115903427,-3,-5,-2,-8,-5,10,2,1
1532115903432,2,0,0,0,2,-1,6,7
1532115903437,-2,-1,0,-13,2,32,7,3
1532115903442,3,1,7,-4,-3,-46,-10,-8
1532115903447,2,-1,-1,14,5,17,-2,2
1532115903452,-5,-4,0,-10,0,2,-2,-5
1532115903457,-6,-4,-2,-2,-3,-10,-3,1
1532115903462,3,-1,-3,-8,2,6,4,9
1532115903467,-3,1,3,-11,-7,-3,1,-4
1532115903472,-8,-1,2,-2,6,0,-4,-13
1532115903477,5,-1,0,-15,-4,0,-1,14
1532115903482,-1,-2,3,3,-4,-1,0,-9
1532115903487,1,2,0,-19,-5,-3,-1,12
1532115903492,-1,0,-2,-7,-1,5,5,17
1532115903497,1,-1,-2,6,1,-10,-4,-38
1532115903502,2,0,-3,-6,0,7,-5,21
1532115903507,-10,-6,-4,-5,-1,-4,-6,-39
1532115903512,0,0,1,5,1,-2,-2,3
1532115903517,-3,-2,-4,-7,-10,-4,4,18
1532115903522,9,5,1,-5,-3,-5,7,21
1532115903527,0,3,3,-7,8,5,-1,31
1532115903532,-7,-5,-7,0,-4,-4,-6,-45
1532115903537,1,1,1,-10,9,6,-4,11
1532115903542,3,1,0,12,-7,-9,1,-4
1532115903547,-14,-3,-4,6,-5,-6,-2,-12
1532115903552,3,1,-2,-6,6,17,5,6
1532115903557,4,7,6,-9,-8,-24,0,0
1532115903562,1,-3,-1,-2,5,-10,-2,12
1532115903567,2,-3,-2,1,-11,7,6,-2
1532115903572,-5,-3,-4,26,10,-11,-9,-12
1532115903577,-6,-4,-2,1,-2,1,-1,2
1532115903582,-2,-2,3,1,1,10,3,0
1532115903587,10,-1,3,-4,-4,-3,0,-8
1532115903592,-7,-3,-1,2,1,19,0,2
1532115903597,-1,0,-1,-10,-3,-2,-6,-8
1532115903602,-8,-4,-3,0,-10,2,-1,-21
1532115903607,-5,-3,-2,5,1,-5,-4,8
1532115903612,9,0,-1,-8,-11,-7,15,32
1532115903617,5,4,2,10,1,-26,-9,-18
1532115903622,-6,1,-1,7,4,21,2,-12
1532115903627,-2,-6,-7,-2,4,-7,-3,-3
1532115903632,-4,-1,1,-3,2,15,1,15
1532115903637,-5,-4,0,6,3,-10,2,-12
1532115903642,10,5,1,3,0,-2,7,4
1532115903647,-1,2,2,4,-2,0,-5,23
1532115903652,-5,-3,-4,6,1,7,-6,-34
1532115903657,-3,-4,-2,-2,-9,4,-1,-5
1532115903662,-4,-1,0,5,17,16,-4,-16
1532115903667,6,2,-1,-2,-2,10,4,8
1532115903672,-1,1,1,6,0,-8,-2,5
1532115903677,0,1,-1,-13,-2,25,3,6
1532115903682,-1,-2,-1,4,6,-14,-2,11
1532115903687,0,0,-2,9,-6,-9,0,-14
1532115903692,1,-1,1,-1,-4,-9,-3,-5
1532115903697,0,-2,-1,-3,0,3,2,11
1532115903702,-4,0,-1,1,-6,-2,-4,-4
1532115903707,11,-2,-2,3,1,9,5,15
1532115903712,-6,-1,2,6,1,-11,8,-17
1532115903717,-5,1,0,17,5,2,-13,9
1532115903722,3,-1,-1,1,-3,-2,-3,-18
1532115903727,-5,-1,1,4,-1,-4,-1,-6
1532115903732,4,0,-1,-7,-4,0,1,9
1532115903737,3,-2,-2,-4,2,2,11,21
1532115903742,-1,0,0,-1,2,4,1,9
1532115903747,-6,0,-1,7,0,-2,-8,-20
1532115903752,5,1,2,4,4,-3,-6,-7
1532115903757,-1,-3,-3,-5,-3,-2,-1,-1
1532115903762,-7,-4,-4,-7,0,1,-1,-2
1532115903767,3,3,0,4,-2,-2,5,9
1532115903772,3,-2,0,-10,1,-3,-6,3
1532115903777,-9,-2,0,1,-7,1,0,-5
1532115903782,-1,-3,-2,0,7,6,1,11
1532115903787,-6,-4,-3,-8,0,30,0,-10
1532115903792,5,6,0,10,-5,-37,-11,-24
1532115903797,1,2,0,2,16,0,3,7
1532115903802,-1,-2,-3,0,-8,6,-6,-8
1532115903807,-9,-4,1,-6,-1,-7,-1,0
1532115903812,1,-2,-1,-19,-4,10,3,14
1532115903817,0,-2,0,-10,-4,3,2,-3
1532115903822,-2,1,-1,-9,-1,-6,2,13
1532115903827,16,3,-2,-17,2,-3,0,-5
1532115903832,-16,-6,-8,-8,0,14,-7,-30
1532115903837,-9,0,6,-4,-1,-13,-5,-5
1532115903842,1,0,-1,6,-8,-2,-1,-8
1532115903847,-6,-2,1,-5,-2,-9,0,4
1532115903852,7,1,-3,-7,0,-4,3,23
1532115903857,2,-3,-2,-5,2,10,3,8
1532115903862,-3,-2,-2,-10,-7,12,-3,-30
1532115903867,1,2,2,-5,14,-28,1,-1
1532115903872,3,1,1,0,-3,-8,-1,17
1532115903877,-6,-3,-2,2,-6,10,-3,-17
1532115903882,7,4,2,-12,0,-4,-5,20
1532115903887,-12,-4,-5,-2,-1,0,-6,-37
1532115903892,2,1,0,-4,-5,-1,-1,4
1532115903897,8,3,-2,-6,-12,-4,8,12
1532115903902,-8,-4,-3,12,14,-4,-9,-4
1532115903907,-3,-1,2,6,-8,-7,3,14
1532115903912,0,-3,-1,-10,-3,-1,-4,10
1532115903917,1,1,-2,10,2,3,0,-19
1532115903922,-1,-3,-2,-6,-3,3,5,-2
1532115903927,2,1,0,-9,0,11,-4,6
1532115903932,0,-1,0,8,6,-4,1,2
1532115903937,5,1,-2,-10,-3,-10,-4,7
1532115903942,-7,-1,0,-6,-5,-3,1,0
1532115903947,-3,-2,-1,3,1,-6,-5,-7
1532115903952,-1,-5,-3,1,-11,4,2,4
1532115903957,3,1,2,-2,9,10,-2,2
1532115903962,3,1,-3,0,-6,-12,-1,-11
1532115903967,-5,1,7,4,-2,1,0,9
1532115903972,-6,0,-1,7,10,15,-3,-14
1532115903977,1,-3,-4,13,0,-7,0,5
1532115903982,-2,-2,-1,-2,-2,7,-1,14
1532115903987,1,-1,-5,-9,-6,10,8,7
1532115903992,0,-1,-2,12,3,-17,-12,-21
1532115903997,-8,-3,-2,7,13,21,-2,-7
1532115904002,6,4,1,4,2,-25,4,2
1532115904007,2,-1,-2,2,2,-1,6,18
1532115904012,-4,3,2,-3,-8,8,-2,-3
1532115904017,2,-2,-5,-9,2,8,1,4
1532115904022,6,-4,-1,0,4,3,-1,3
1532115904027,-8,0,2,10,0,2,-6,-2
1532115904032,5,1,3,-1,-6,0,4,3
1532115904037,-3,-2,0,0,-5,-10,-3,2
1532115904042,-5,-1,2,3,1,11,1,-5
1532115904047,3,-3,-3,-2,-3,-13,-5,-1
1532115904052,-3,-4,-4,-3,6,13,7,0
1532115904057,2,2,0,0,-14,-24,-7,-4
1532115904062,-3,0,2,3,1,-1,2,10
1532115904067,-1,-1,-1,1,-4,7,-5,-22
1532115904072,2,2,1,-5,0,-8,-2,-2
1532115904077,-2,-3,-1,5,2,-7,1,3
1532115904082,-2,-2,2,-1,-2,9,1,4
1532115904087,6,3,-1,-7,-3,-7,-7,-13
1532115904092,-5,1,-3,-10,-13,-4,-5,6
1532115904097,2,1,1,-19,9,21,4,9
1532115904102,-2,0,1,7,-4,-18,-6,-35
1532115904107,-1,-3,-4,-1,0,10,3,11
1532115904112,8,-1,2,3,-8,-17,-2,-7
1532115904117,-6,-3,-5,1,-4,6,-1,-2
1532115904122,-4,0,-4,-10,-2,13,-3,-1
1532115904127,-1,3,2,-10,4,-11,0,0
1532115904132,-2,-2,-2,11,0,6,7,10
1532115904137,8,2,2,3,-4,-10,-10,-11
1532115904142,-1,-2,-3,-8,-1,-1,-1,-9
1532115904147,-7,-2,-5,-2,-1,-2,0,-1
1532115904152,3,-2,1,3,3,13,5,8
1532115904157,-9,-7,-6,-4,-8,-3,-3,-5
1532115904162,4,5,5,8,-2,-19,-9,-3
1532115904167,0,0,-1,0,-2,-3,0,-4
1532115904172,0,-1,0,-15,1,13,2,1
1532115904177,2,-2,-1,3,0,-14,2,7
1532115904182,1,-1,-2,-6,4,6,0,-8
1532115904187,1,-2,0,6,-2,1,0,6
1532115904192,-8,-4,-3,-16,7,3,-2,0
1532115904197,2,3,3,0,-27,-21,0,1
1532115904202,-1,-2,-3,-11,-5,6,-5,8
1532115904207,5,0,-2,-10,7,2,1,7
1532115904212,-3,-1,-3,-5,-1,-2,-7,-31
1532115904217,3,3,4,-12,14,16,4,0
1532115904222,-1,-3,-3,-10,-5,-11,-1,7
1532115904227,-15,-4,-1,-14,-4,13,-4,-13
1532115904232,0,0,0,0,1,-24,0,12
1532115904237,1,2,-2,1,-2,-5,0,4
1532115904242,4,1,-1,-1,-1,4,2,0
1532115904247,-2,-2,-2,-10,-1,-3,-1,3
1532115904252,-9,0,0,-2,-3,6,-2,-6
1532115904257,7,1,1,7,3,-8,3,-1
1532115904262,-4,-4,-4,0,1,7,0,9
1532115904267,0,-2,0,-2,1,18,4,-14
1532115904272,2,-1,1,8,-10,-38,-8,9
1532115904277,-1,-3,-4,10,-2,4,-1,1
1532115904282,-3,2,3,-4,8,-2,1,-4
1532115904287,10,0,-1,-8,2,10,6,18
1532115904292,-15,-5,-4,19,-5,-10,-13,-49
1532115904297,-6,-2,-1,-6,5,4,-1,5
1532115904302,-2,1,-2,-5,-6,-6,-5,-5
1532115904307,6,0,0,14,-1,-7,3,10
1532115904312,6,3,3,-18,7,20,10,28
1532115904317,-3,-4,-3,-3,-7,-8,-8,-15
1532115904322,-4,0,1,7,2,8,1,-4
1532115904327,0,0,-1,-3,-13,-16,-5,-10
1532115904332,9,-1,-1,-5,13,8,2,10
1532115904337,-5,1,-2,-5,-3,0,4,2
1532115904342,9,-3,-1,-1,-8,-1,0,3
1532115904347,-5,0,0,2,-7,-24,-4,-4
1532115904352,-10,-2,0,8,-1,-1,-4,1
1532115904357,-3,-1,2,-1,8,10,2,5
1532115904362,4,1,-3,1,2,-1,1,9
1532115904367,-1,-2,-3,3,-3,-5,-2,-13
1532115904372,10,2,-2,-5,0,15,4,1
1532115904377,-1,-1,1,-3,2,-5,0,1
1532115904382,-10,-6,-4,-3,-4,-8,1,-11
1532115904387,-4,-3,-2,11,4,0,-9,-5
1532115904392,-1,0,-3,-7,-5,5,4,9
1532115904397,4,4,-1,-5,-4,-7,-4,-18
1532115904402,1,-1,2,-3,0,5,4,15
1532115904407,-3,-2,-2,-7,4,15,-2,2
1532115904412,5,-1,3,3,1,-19,1,-2
1532115904417,-10,-2,-3,5,-13,-26,-9,1
1532115904422,-5,1,1,1,-5,-4,1,-6
1532115904427,-2,0,0,2,1,-3,-2,-7
1532115904432,0,-4,-6,-8,-5,-8,-2,-10
1532115904437,6,3,1,2,-1,22,4,5
1532115904442,-2,-1,0,-6,-4,6,-1,-1
1532115904447,3,1,-2,-3,10,-7,-1,18
1532115904452,1,2,0,10,3,-2,-2,-1
1532115904457,-3,-2,2,-4,-1,4,0,-5
1532115904462,1,-1,-2,13,-5,-14,-10,-11
1532115904467,1,0,3,-5,-5,7,1,-12
1532115904472,-3,-2,-2,-7,2,5,0,3
1532115904477,5,0,0,-4,-2,-1,-1,0
1532115904482,-3,-3,-3,10,2,-1,0,8
1532115904487,3,-1,-3,-5,-6,-3,0,6
1532115904492,-8,-2,-1,3,1,-4,-2,-6
1532115904497,-5,-7,-6,-6,1,13,3,22
1532115904502,0,3,3,-12,2,-14,-6,-24
1532115904507,-3,0,-1,12,-5,-6,-4,-13
1532115904512,-1,-1,-1,-3,-9,19,6,-2
1532115904517,4,3,1,-7,2,-10,3,0
1532115904522,2,0,-1,-3,3,-7,-9,30
1532115904527,0,-1,1,4,-6,-9,1,-18
1532115904532,-11,-2,0,13,9,16,-4,-12
1532115904537,-6,-5,-2,3,0,3,-4,-14
1532115904542,0,-2,-4,-18,-3,7,9,7
1532115904547,5,5,4,-7,7,26,0,9
1532115904552,9,1,0,-7,-13,-28,-8,-1
1532115904557,-4,-3,-2,3,-2,-2,-6,-2
1532115904562,5,2,-1,-6,5,-5,1,-3
1532115904567,-11,-4,-3,-11,-7,-4,0,10
1532115904572,0,-3,-6,-10,-3,2,2,4
1532115904577,-2,5,2,-9,3,2,-2,-5
1532115904582,-3,-2,1,3,-3,2,1,-4
1532115904587,1,-1,-2,-7,-2,10,1,3
1532115904592,2,0,-1,3,0,-15,-2,3
1532115904597,11,-1,-4,-6,4,-4,-1,1
1532115904602,-7,0,-1,14,-9,-11,-2,-3
1532115904607,-5,-5,0,-10,-3,-4,-3,6
1532115904612,-2,-2,0,-13,7,13,-1,-14
1532115904617,-2,-1,0,13,-5,-5,-3,-3
1532115904622,2,-1,0,-19,-3,-10,3,10
1532115904627,-4,-3,-3,10,0,4,-1,-8
1532115904632,-2,3,2,1,1,3,-1,-6
1532115904637,-2,-1,-1,2,0,2,0,-1
1532115904642,1,1,-1,3,1,13,4,-9
1532115904647,2,1,1,1,1,-32,-4,4
1532115904652,0,-2,-3,-12,-7,6,-3,1
1532115904657,-7,0,-4,2,-5,-14,-4,-9
1532115904662,2,-1,1,4,3,9,-3,1
1532115904667,0,-2,-1,2,1,2,3,3
1532115904672,0,0,1,4,-3,0,3,16
1532115904677,11,1,0,-5,1,-4,1,9
1532115904682,-11,-4,0,2,1,11,-9,-31
1532115904687,-3,-3,0,-12,4,2,-1,-4
1532115904692,4,-2,1,8,3,-5,-1,1
1532115904697,-6,-2,-2,-5,0,6,2,4
1532115904702,3,2,1,13,-7,-17,0,5
1532115904707,-1,1,-1,-3,-1,14,2,0
1532115904712,-6,-3,-3,2,-8,-21,-5,-2
1532115904717,3,1,0,-6,3,14,2,2
1532115904722,4,0,-1,5,-3,0,-6,12
1532115904727,2,-1,-2,-3,5,20,4,-20
1532115904732,-7,-4,-3,10,5,-8,-2,0
1532115904737,-3,-1,0,-5,1,4,1,9
1532115904742,-4,0,-2,0,-3,-3,-5,-15
1532115904747,5,3,-2,8,-12,-13,2,15
1532115904752,3,1,0,-17,-4,13,3,0
1532115904757,-1,-3,1,14,5,-11,-6,-6
1532115904762,-4,-3,-5,-3,1,-7,-4,-7
1532115904767,-6,1,1,5,2,-4,-2,-3
1532115904772,9,3,1,-15,0,15,7,-4
1532115904777,-10,-3,-1,2,-8,-15,2,5
1532115904782,-1,-3,-1,-9,6,18,10,28
1532115904787,-2,0,-4,6,-2,-14,-11,-33
1532115904792,1,1,-1,-2,-3,-1,-3,4
1532115904797,1,-1,-1,0,-3,-3,-2,-9
1532115904802,-2,-5,-3,-6,1,5,1,-2
1532115904807,-2,-3,-2,-5,1,-3,-1,12
1532115904812,-2,1,2,2,-6,-20,1,6
1532115904817,6,0,-1,3,3,16,-2,6
1532115904822,1,-1,0,12,-1,5,1,-17
1532115904827,-4,-1,-1,-2,3,11,0,-8
1532115904832,-4,-1,0,-2,1,-12,0,-7
1532115904837,1,-1,-2,0,-7,9,-3,2
1532115904842,4,1,-2,-16,-1,-5,-1,4
1532115904847,5,0,2,1,1,-8,-4,3
1532115904852,-3,-3,-1,-4,1,14,3,8
1532115904857,-4,-3,0,-4,-2,-13,2,-1
1532115904862,4,0,-3,-2,-3,0,2,-3
1532115904867,-2,-3,-3,-9,-3,2,2,-6
1532115904872,-5,-3,-4,-11,-3,13,-6,-7
1532115904877,4,1,3,4,8,-1,-4,0
1532115904882,-5,-3,-2,6,-1,-3,-1,9
1532115904887,1,-1,-1,0,2,-6,-2,-2
1532115904892,1,1,2,2,-5,9,3,4
1532115904897,1,-1,0,-2,-5,-4,-3,-4
1532115904902,-9,-2,-4,3,-3,3,1,-6
1532115904907,-1,-1,2,-1,0,-6,-3,-5
1532115904912,1,-2,-2,11,-3,-27,-13,2
1532115904917,3,-1,1,-6,2,16,7,12
1532115904922,1,1,-1,-6,-2,-6,-4,-22
1532115904927,-3,-5,-4,-4,0,10,2,10
1532115904932,-6,0,-3,-9,2,8,2,-1
1532115904937,5,3,-1,3,2,-5,4,-2
1532115904942,-5,-1,3,4,3,-6,2,21
1532115904947,7,1,1,3,0,-2,0,11
1532115904952,-6,-4,0,1,0,9,-8,-22
1532115904957,-4,-1,-3,-6,-3,-12,-2,-13
1532115904962,0,-1,2,-12,-1,13,3,-3
1532115904967,-2,3,1,-3,-2,-4,4,13
1532115904972,10,2,-1,-3,-5,-9,0,20
1532115904977,-8,-5,-2,5,1,13,-2,-10
1532115904982,4,2,-2,2,1,-1,-2,3
1532115904987,1,0,-4,-7,2,-5,-3,4
1532115904992,6,2,1,-5,-6,-14,-3,-8
1532115904997,-9,0,-2,8,7,1,1,-5
1532115905002,-6,-3,-2,-4,-4,-13,-4,-5
1532115905007,-1,1,1,-2,-3,11,-2,2
1532115905012,6,1,2,3,5,9,-1,3
1532115905017,-1,-4,-4,-4,-2,0,-1,-9
1532115905022,2,2,5,-5,-3,-1,2,8
1532115905027,-6,-3,-1,-8,-6,15,-2,-4
1532115905032,-4,-4,-1,23,6,-16,4,5
1532115905037,-3,0,-1,7,-2,-8,-6,-21
1532115905042,1,2,-3,-4,4,15,4,15
1532115905047,10,2,0,-2,2,-9,-4,-18
1532115905052,-10,-4,-2,9,-10,-5,0,2
1532115905057,2,-1,2,-1,5,6,0,5
1532115905062,4,2,-2,-2,0,-7,-1,-4
1532115905067,-4,-5,-2,7,-7,-1,1,6
1532115905072,-3,1,-1,-9,4,8,-3,2
1532115905077,1,-2,0,-4,-6,-16,-2,-3
1532115905082,0,1,-1,9,-1,16,0,-3
1532115905087,0,1,-1,-1,0,-12,-4,14
1532115905092,-2,-3,-1,-1,-3,-2,-3,-30
1532115905097,-1,1,-1,-11,-3,13,-2,7
1532115905102,2,0,1,2,-2,-11,-2,-7
1532115905107,2,-1,-1,4,-3,2,0,4
1532115905112,-4,0,1,-5,3,-5,2,21
1532115905117,-1,-1,-2,0,-4,-9,-7,-18
1532115905122,-5,-3,-1,-8,1,-3,-3,0
1532115905127,0,0,-1,14,3,6,2,-3
1532115905132,5,2,2,-16,0,13,1,-4
1532115905137,-2,0,0,10,-6,-20,-3,24
1532115905142,-3,-3,-2,-4,-7,-29,-4,-25
1532115905147,-1,-1,0,13,-2,8,1,-1
1532115905152,3,2,1,2,-2,8,6,-1
1532115905157,4,1,1,-12,23,28,1,-7
1532115905162,2,1,0,1,-7,-5,-1,9
1532115905167,-3,0,0,-9,1,-4,-1,2
1532115905172,0,-2,-2,-11,-2,0,-1,0
1532115905177,0,-1,-1,-10,-8,7,5,21
1532115905182,5,3,1,9,-2,-13,-6,-16
1532115905187,-11,-6,-5,-16,-7,-7,3,9
1532115905192,-7,-2,-2,20,1,-4,-11,-28
1532115905197,-5,-1,-1,-10,-5,-7,-2,-4
1532115905202,5,0,1,-9,5,35,2,6
1532115905207,-1,1,0,4,-11,-31,-2,-4
1532115905212,-1,-1,-6,1,3,-6,0,8
1532115905217,-2,1,-1,-6,-5,-12,-1,-14
1532115905222,-5,-2,0,-5,-3,24,1,1
1532115905227,4,2,4,-2,1,-11,-2,-2
1532115905232,-1,0,0,-2,-2,1,-1,3
1532115905237,0,0,-1,-10,2,3,1,-9
1532115905242,2,2,2,-3,-7,0,0,15
1532115905247,-5,-5,-2,-15,9,12,3,-11
1532115905252,1,2,-1,1,-5,-1,-2,6
1532115905257,-1,-2,-3,2,-1,4,3,11
1532115905262,-4,-3,-3,1,-3,-28,-10,-17
1532115905267,3,2,1,8,0,11,3,1
1532115905272,5,-1,0,-5,3,10,3,18
1532115905277,-7,-7,-3,-2,-2,-3,2,-15
1532115905282,-7,-6,-1,3,2,-8,-1,3
1532115905287,2,4,0,6,-6,-11,-5,3
1532115905292,-1,-3,-6,-5,-2,-2,-2,-16
1532115905297,0,1,4,-7,-7,0,-1,10
1532115905302,4,-1,0,-6,8,3,-4,4
1532115905307,-2,-5,-2,7,-5,3,5,0
1532115905312,-2,0,1,-4,-1,5,1,0
1532115905317,5,3,1,2,-1,-11,-8,0
1532115905322,-1,-2,-3,-6,4,9,0,8
1532115905327,-6,-2,-1,-6,1,-2,0,-6
1532115905332,2,-3,-2,0,-1,-2,0,1
1532115905337,-1,-2,-3,-5,-11,-13,-1,-18
1532115905342,-4,-3,-1,1,-6,4,-2,3
1532115905347,6,0,-2,-19,13,17,-3,-4
1532115905352,-3,1,2,-3,7,1,2,2
1532115905357,1,1,-1,6,-4,-11,-1,16
1532115905362,3,3,0,-20,-6,-14,-3,-7
1532115905367,-9,-6,-2,-7,-4,-6,-5,-11
1532115905372,-7,-2,-3,-2,0,-3,-5,3
1532115905377,2,0,-2,3,2,3,-2,-7
1532115905382,3,3,0,2,4,-1,2,9
1532115905387,3,1,3,-2,2,12,-1,-4
1532115905392,0,-3,-1,-5,1,-5,1,-1
1532115905397,-6,0,1,10,-3,6,1,2
1532115905402,0,-3,0,3,1,10,4,4
1532115905407,-5,2,-2,3,-3,-15,-5,-9
1532115905412,0,0,-3,3,-7,2,0,-2
1532115905417,2,-1,-1,-8,4,0,2,4
1532115905422,-6,-3,-4,11,7,13,-8,-10
1532115905427,3,0,-1,8,-9,-16,-3,15
1532115905432,4,5,-1,4,-6,-27,-3,-9
1532115905437,3,0,0,1,-4,20,3,10
1532115905442,-10,-2,-2,4,2,9,2,-21
1532115905447,-2,-2,-4,-5,-5,-13,-4,-1
1532115905452,0,-3,1,0,-6,0,-4,-5
1532115905457,-2,0,4,-12,8,4,3,-1
1532115905462,5,3,1,-4,-3,-12,1,20
1532115905467,0,0,1,4,5,9,-3,-16
1532115905472,-3,-2,-2,-2,-4,-9,0,-1
1532115905477,-1,0,-3,1,-2,2,-4,5
1532115905482,-4,-2,-2,-2,-1,-7,1,-15
1532115905487,-5,-3,-3,-3,2,-5,3,-1
1532115905492,4,2,0,-3,7,-3,-3,12
1532115905497,0,-4,-4,-5,3,15,0,-6
1532115905502,3,6,0,-2,-8,-37,-10,-7
1532115905507,-2,-3,-5,-8,-6,4,3,4
1532115905512,1,-2,-1,-2,3,3,-1,9
1532115905517,-4,-3,1,-1,-2,-2,-2,-4
1532115905522,4,-3,0,-2,-7,-4,-5,-10
1532115905527,4,1,3,6,5,26,5,4
1532115905532,-9,-2,0,4,-3,-18,1,-6
1532115905537,-5,-1,0,14,8,9,-4,11
1532115905542,7,2,-1,1,-10,7,8,24
1532115905547,-1,-1,0,1,-5,-7,-6,-27
1532115905552,-1,-2,0,-4,3,13,1,-2
1532115905557,7,3,1,0,0,-11,2,-1
1532115905562,-8,-4,0,-1,5,-1,-2,11
1532115905567,0,-2,-4,-7,-3,-4,-8,-6
1532115905572,1,-1,2,-9,-2,11,4,0
1532115905577,7,2,-2,3,-7,-39,-3,5
1532115905582,-6,-1,-2,3,0,12,0,5
1532115905587,-6,-1,0,-1,-4,-8,1,-6
1532115905592,-4,-2,-1,-3,4,19,-1,-10
1532115905597,1,-1,-3,-5,-4,-3,0,4
1532115905602,-3,1,-1,-3,-5,-6,2,4
1532115905607,-4,-1,1,4,-5,7,0,-6
1532115905612,4,-3,-1,0,-5,4,-4,-21
1532115905617,-9,-3,-2,11,7,7,5,18
1532115905622,1,1,2,4,-6,-10,-5,-15
1532115905627,-3,2,-3,-6,-3,3,-4,-2
1532115905632,-2,-1,2,-24,4,23,5,-6
1532115905637,5,3,3,-5,-4,-33,-4,7
1532115905642,2,-2,-2,7,-2,6,1,-6
1532115905647,0,-1,-1,-9,-8,-5,1,5
1532115905652,-4,-4,-3,-10,4,6,0,6
1532115905657,2,-2,2,-12,-4,-1,-1,-1
1532115905662,-9,-3,-3,3,2,-16,-3,-5
1532115905667,6,1,1,-7,-4,-15,3,11
1532115905672,5,-1,-3,-8,-1,5,1,-2
1532115905677,-9,-1,-1,2,11,-2,-5,-18
1532115905682,2,0,-1,4,-3,2,1,-2
1532115905687,-2,-3,0,-8,-2,4,-1,-1
1532115905692,-3,2,-2,-6,0,12,-4,-5
1532115905697,-3,-2,-2,-13,8,21,5,0
1532115905702,2,0,0,-7,0,0,7,10
1532115905707,1,-2,0,5,3,1,-8,-5
1532115905712,2,1,-2,-7,-4,1,1,0
1532115905717,-3,-3,-3,-7,-6,4,-4,-8
1532115905722,-2,2,0,4,2,11,-2,3
1532115905727,0,0,4,5,-3,-17,0,13
1532115905732,8,-2,-2,-3,7,-7,-1,-4
1532115905737,-9,-4,-2,4,-16,-13,-8,-5
1532115905742,4,0,-1,-14,-4,4,1,1
1532115905747,-5,-4,-5,-4,-2,-1,-2,-4
1532115905752,-2,3,1,11,-4,-2,0,-1
1532115905757,6,1,2,3,1,11,5,8
1532115905762,-6,-4,0,3,7,-10,-4,-4
1532115905767,-7,-3,-4,12,-5,4,-2,3
1532115905772,-4,-1,0,0,0,-1,0,-3
1532115905777,5,2,1,2,-8,-9,3,13
1532115905782,0,1,0,-6,-4,-20,-2,-11
1532115905787,0,-1,0,-11,11,40,7,14
1532115905792,-4,-1,-3,17,3,-27,-12,-45
1532115905797,2,-3,-3,7,-5,-16,-1,-1
1532115905802,8,3,0,1,-2,6,0,-4
1532115905807,-14,-1,1,-2,-4,-16,0,8
1532115905812,-4,-2,0,-2,2,13,3,14
1532115905817,6,-2,-2,-3,5,6,-1,1
1532115905822,-3,-2,-4,6,-5,-9,-2,4
1532115905827,6,-2,-1,6,-3,5,1,-11
1532115905832,-3,-2,1,0,2,5,1,8
1532115905837,-3,2,-1,-2,-2,-4,-3,-4
1532115905842,-2,-3,-1,-3,7,3,0,4
1532115905847,1,0,-3,6,1,14,1,2
1532115905852,2,0,0,4,-2,-10,-1,3
1532115905857,-4,-2,-3,13,1,-2,-2,-12
1532115905862,-4,-1,1,-9,1,-2,-2,-6
1532115905867,3,1,-2,-2,-2,1,-2,-11
1532115905872,7,-2,5,-10,7,12,6,26
1532115905877,-7,-3,-3,12,-19,-29,-11,-13
1532115905882,1,0,0,-14,6,5,0,7
1532115905887,-7,-2,0,2,-13,-17,-8,-9
1532115905892,-2,-3,-3,12,7,11,-4,-14
1532115905897,10,6,1,-18,-1,4,1,8
1532115905902,-9,-5,-2,3,-1,14,0,-11
1532115905907,-1,-2,-1,10,-1,-16,4,30
1532115905912,-3,-1,-3,4,2,10,-2,-14
1532115905917,0,-4,-2,3,-3,8,4,-1
1532115905922,3,1,0,1,-7,-5,-6,7
1532115905927,1,-1,-2,-7,2,5,-1,-11
1532115905932,0,-1,-1,11,-1,-9,0,11
1532115905937,3,2,0,-2,7,-5,1,8
1532115905942,3,2,-2,2,0,32,4,-4
1532115905947,-3,-3,-1,2,-1,-25,-4,-5
1532115905952,-3,-2,-3,-16,-5,10,2,-1
1532115905957,4,2,0,0,1,-20,-2,13
1532115905962,-1,-2,0,2,1,-6,2,-12
1532115905967,-1,0,1,-4,2,-1,-4,-12
1532115905972,-5,1,0,-4,-6,-1,-2,23
1532115905977,5,-1,-3,-2,-4,-4,-1,-31
1532115905982,-4,-1,2,16,-4,10,-1,0
1532115905987,-6,-5,-7,-4,-8,9,-6,-11
1532115905992,-1,1,2,3,-7,-24,0,11
1532115905997,-3,-1,1,-2,5,9,0,11
1532115906002,6,2,0,3,-4,-10,-2,9
1532115906007,4,0,1,0,1,10,0,-3
1532115906012,-1,-5,-4,2,1,-1,-3,-9
1532115906017,-4,-1,0,-9,-2,-2,-1,3
1532115906022,-2,-3,-2,-11,-3,-2,3,14
1532115906027,-3,0,0,4,-3,3,-3,-17
1532115906032,0,-1,-3,-4,-3,-1,2,-8
1532115906037,0,0,2,2,6,13,0,7
1532115906042,4,0,-4,-11,-1,-4,-1,2
1532115906047,-5,-2,0,-2,8,-8,-7,-4
1532115906052,-9,-1,-2,-1,-1,-7,-5,-27
1532115906057,-3,-5,-1,3,-3,14,7,11
1532115906062,-4,-1,0,-9,-2,-3,-3,-10
1532115906067,8,7,2,-18,-9,-4,5,3
1532115906072,-2,-5,-3,5,4,-4,0,2
1532115906077,2,-2,1,-6,-8,13,2,24
1532115906082,5,2,1,-4,-3,-21,-1,-9
1532115906087,0,-4,-4,12,-7,7,0,-29
1532115906092,-8,-1,-2,-12,1,-13,-7,-14
1532115906097,-9,-4,0,0,2,-2,1,1
1532115906102,2,-1,0,1,-3,5,-1,11
1532115906107,-4,-3,0,-10,2,-4,7,6
1532115906112,5,2,0,-7,1,1,-6,3
1532115906117,1,0,0,7,6,21,4,-8
1532115906122,-2,-1,-4,-1,-2,-4,-5,2
1532115906127,8,6,2,4,-2,-10,-7,-1
1532115906132,-4,-4,0,-3,-3,6,3,16
1532115906137,-9,-1,-4,-1,-8,-25,-3,-19
1532115906142,-5,-1,1,12,25,31,2,-5
1532115906147,-1,-3,-1,0,-4,-5,-2,5
1532115906152,10,5,2,-13,-5,7,5,6
1532115906157,5,1,2,4,5,-12,-2,11
1532115906162,1,-1,-1,-10,-13,-17,-4,-7
1532115906167,-8,-4,-1,-7,2,8,6,-1
1532115906172,-9,-4,0,6,6,4,-3,-9
1532115906177,1,-2,1,2,-4,-9,0,2
1532115906182,1,-3,-3,-8,-9,-3,-1,12
1532115906187,5,6,1,-9,4,-2,-1,10
1532115906192,-1,0,-2,0,-4,-8,0,-15
1532115906197,-2,-3,-4,-4,1,12,-4,-4
1532115906202,-1,-1,-2,6,-3,14,4,6
1532115906207,-2,-1,-2,-3,4,-2,-2,-3
1532115906212,5,1,0,8,7,-5,1,-3
1532115906217,-4,0,-5,3,-14,-8,-1,13
1532115906222,-3,-4,-2,4,0,2,-2,10
1532115906227,-6,-3,0,-8,-5,3,-6,-40
1532115906232,-2,-2,0,20,1,-7,-5,-9
1532115906237,6,2,-1,-7,4,0,3,3
1532115906242,-4,-1,2,1,8,-9,2,-1
1532115906247,2,1,0,5,0,9,4,16
1532115906252,0,0,-1,-4,-13,0,-1,7
1532115906257,-4,-2,-4,-8,13,12,-2,-10
1532115906262,-3,0,-2,-8,-11,-15,2,2
1532115906267,2,-6,-3,12,3,4,-3,8
1532115906272,4,1,2,-2,0,-6,-4,-15
1532115906277,-7,-1,-1,2,-14,-7,4,-8
1532115906282,-2,-2,-5,-10,1,8,-6,9
1532115906287,0,2,4,5,4,-17,-6,-21
1532115906292,2,-4,-5,9,-8,-12,0,9
1532115906297,1,-3,1,-1,6,4,-2,-4
1532115906302,-1,2,3,-3,-12,-11,-1,0
1532115906307,-2,0,2,-6,4,1,3,8
1532115906312,2,0,-1,2,2,11,0,9
1532115906317,6,1,0,-13,-4,6,4,8
1532115906322,-10,-6,-3,-4,-8,-18,-6,-29
1532115906327,-5,-4,-4,-7,-17,-16,-8,4
1532115906332,-6,0,-2,-9,16,0,-1,-8
1532115906337,5,-1,-1,4,4,-1,-3,8
1532115906342,10,3,1,6,2,25,10,1
1532115906347,-7,-2,-2,-1,-1,3,-2,-10
1532115906352,-6,-3,-3,-5,12,-4,6,-1
1532115906357,4,4,2,-8,-7,1,-2,15
1532115906362,-4,1,-1,11,-2,1,-2,-25
1532115906367,-1,-1,-2,-10,-4,-7,-3,5
1532115906372,1,-2,-2,4,0,6,-9,-8
1532115906377,3,-3,0,1,-1,6,5,11
1532115906382,-2,-1,-3,-6,-4,-15,-3,0
1532115906387,2,-2,-1,-6,-2,5,2,8
1532115906392,-7,-1,-1,-8,-1,-1,2,-3
1532115906397,-4,-2,1,22,13,-2,-6,-5
1532115906402,3,2,0,13,-6,-12,-7,8
1532115906407,4,1,-3,2,26,4,-3,-13
1532115906412,-4,-1,0,-9,2,5,1,1
1532115906417,0,-3,-1,-5,-6,-2,1,2
1532115906422,-3,-2,1,-10,-6,1,-2,-13
1532115906427,0,0,0,-6,-14,-1,0,10
1532115906432,5,3,4,0,-17,-4,1,-8
1532115906437,0,-1,-1,-12,-4,-1,2,1
1532115906442,-4,0,-4,0,-3,-1,-5,-1
1532115906447,-5,-4,-2,-6,1,6,2,3
1532115906452,4,-1,-1,-2,-4,1,-4,-12
1532115906457,-6,-1,-2,-10,2,13,-1,-7
1532115906462,-3,-2,1,-8,9,-6,0,4
1532115906467,4,1,-2,9,-11,-17,-5,6
1532115906472,-1,-3,-2,-5,-7,13,2,4
1532115906477,4,0,1,7,8,-17,-1,-2
1532115906482,7,1,-1,-6,-2,24,4,10
1532115906487,-14,-1,2,5,0,8,0,-8
1532115906492,2,0,0,6,6,-13,-2,7
1532115906497,1,0,-3,-7,-10,-3,-1,-7
1532115906502,-2,-2,0,-1,0,4,1,-3
1532115906507,6,2,1,-12,3,-3,-2,-3
1532115906512,-5,-1,-1,0,-4,3,2,-4
1532115906517,0,-2,-1,-2,4,-2,-1,14
1532115906522,1,-3,-2,12,-3,-36,-7,-4
1532115906527,6,2,1,3,-1,25,5,2
1532115906532,-7,-1,-1,0,-7,1,-2,-19
1532115906537,-3,0,0,5,-4,-6,0,9
1532115906542,-1,-4,-1,3,1,3,1,-6
1532115906547,4,-1,1,1,8,19,3,7
1532115906552,6,3,2,-6,-12,-32,-2,10
1532115906557,-6,-3,-1,14,-2,4,-3,-12
1532115906562,-2,-5,-1,-6,-3,2,0,10
1532115906567,5,1,0,-2,-1,-6,0,-2
1532115906572,0,1,-1,-2,2,13,1,3
1532115906577,-2,1,2,-2,2,-7,-6,-19
1532115906582,-2,1,-1,1,2,2,2,3
1532115906587,-1,-1,-1,-4,1,-1,1,-2
1532115906592,10,-1,-1,3,1,-1,1,3
1532115906597,-17,-3,-3,0,0,-5,-5,-3
1532115906602,-1,-1,0,-1,5,12,1,13
1532115906607,2,-1,-1,-1,-1,-16,-1,-10
1532115906612,2,-4,-2,2,1,3,-3,0
1532115906617,-3,1,1,-9,0,13,6,-12
1532115906622,-4,-1,-2,-6,-17,-20,-2,1
1532115906627,-2,-3,0,-1,9,16,4,8
1532115906632,-2,-4,-4,0,-4,-3,-1,10
1532115906637,4,5,-1,7,-6,-18,-7,-6
1532115906642,5,1,1,-3,4,2,-1,3
1532115906647,-6,-2,-2,6,-8,-10,-3,0
1532115906652,-2,-1,-3,-2,7,10,2,1
1532115906657,-1,-1,1,-7,5,3,-1,-4
1532115906662,0,-2,0,0,0,1,-3,-6
1532115906667,2,0,-2,-5,-4,-4,-1,0
1532115906672,0,-1,0,0,1,1,-2,4
1532115906677,-5,-1,0,5,1,-2,2,-11
1532115906682,0,-2,-4,-2,4,0,-2,1
1532115906687,-4,-1,2,-4,-1,0,-2,-2
1532115906692,0,2,3,9,-1,-3,2,-2
1532115906697,5,-3,-3,-5,-3,-1,-2,0
1532115906702,-1,0,2,4,7,6,1,-6
1532115906707,-6,0,0,-6,2,-5,-2,3
1532115906712,-1,0,-1,-2,-5,-5,-3,-1
1532115906717,3,5,-1,-10,-6,8,2,6
1532115906722,-6,-3,-2,0,-4,-5,-4,-7
1532115906727,0,-4,-6,-13,-1,-3,1,-1
1532115906732,-4,2,0,-12,0,2,-3,-4
1532115906737,0,-4,-2,1,5,-8,-3,2
1532115906742,4,3,2,-17,-3,3,1,1
1532115906747,5,0,-1,-4,-2,-16,0,2
1532115906752,-7,-5,-2,-4,5,13,2,8
1532115906757,0,1,0,-9,5,2,2,-8
1532115906762,5,1,-4,0,-2,-8,-7,1
1532115906767,-13,-3,-1,9,4,-1,-2,-14
1532115906772,6,-1,-4,-9,-4,-12,-3,-4
1532115906777,-9,-3,-1,-11,-5,-2,-6,2
1532115906782,-2,-4,1,1,4,8,7,4
1532115906787,8,1,-5,-5,0,14,1,-3
1532115906792,-7,1,0,-7,-10,-27,-4,3
1532115906797,2,-1,1,2,-5,7,0,3
1532115906802,0,-1,1,-9,8,30,2,-4
1532115906807,-3,-5,-1,2,-7,-14,-3,4
1532115906812,2,0,2,10,7,3,-5,-7
1532115906817,3,-1,-1,-10,-9,-3,-1,1
1532115906822,-3,-1,1,2,-3,-6,0,-2
1532115906827,2,1,0,0,-3,10,0,1
1532115906832,-6,-3,0,3,3,1,1,-6
1532115906837,2,-3,-2,8,7,-2,-1,-2
1532115906842,2,3,0,-6,0,0,3,1
1532115906847,3,1,0,2,-4,-2,0,0
1532115906852,-10,-3,-4,9,-3,-2,-3,-4
1532115906857,-8,-7,-4,2,-5,-2,1,-1
1532115906862,6,3,1,-11,-4,-6,-4,-3
1532115906867,-5,-3,1,-3,-4,8,0,8
1532115906872,2,0,0,2,3,-12,0,-13
1532115906877,8,6,2,7,1,10,-3,13
1532115906882,0,-5,-2,-8,2,2,3,0
1532115906887,-10,-3,-2,10,0,-33,-11,-14
1532115906892,8,-2,-2,0,-4,16,3,7
1532115906897,-5,-1,2,-4,4,3,-1,-1
1532115906902,-5,3,-2,2,-13,-15,-4,4
1532115906907,-2,0,-1,6,-5,5,3,3
1532115906912,0,1,1,-2,13,23,2,-1
1532115906917,0,-4,-3,-1,4,-4,1,0
1532115906922,1,1,1,8,4,9,-3,-5
1532115906927,-2,0,-1,-6,-4,-6,-1,-1
1532115906932,-7,-5,-4,2,-10,-18,-1,0
1532115906937,2,5,2,0,3,20,3,-1
1532115906942,-2,0,-2,6,2,-2,3,1
1532115906947,3,2,2,-6,0,5,-2,-2
1532115906952,9,0,1,-4,0,-1,0,8
1532115906957,-6,-4,-2,-2,-3,3,0,2
1532115906962,-2,-6,-5,6,-9,-21,-4,-8
1532115906967,-2,0,1,0,0,-3,-2,5
1532115906972,2,5,1,-7,-1,13,-1,-10
1532115906977,-2,-3,-3,-1,-4,-10,0,4
1532115906982,-6,-5,-1,9,-6,-1,-3,1
1532115906987,-3,-2,0,0,10,8,0,-6
1532115906992,0,1,-2,-2,-5,-4,-1,7
1532115906997,4,1,-1,0,-7,2,2,-4
1532115907002,1,2,0,-2,-1,-9,-1,0
1532115907007,-1,0,-4,-2,6,-1,0,-1
1532115907012,-6,-4,0,6,-4,-2,-5,-5
1532115907017,-2,-1,-2,-1,1,7,2,-3
1532115907022,5,2,1,-3,-2,-5,-3,7
1532115907027,-2,-4,-1,-8,-8,-17,0,-14
1532115907032,8,4,2,-7,-14,24,-4,-5
1532115907037,-13,0,0,-13,8,-11,-2,-7
1532115907042,-6,-2,0,6,0,6,2,21
1532115907047,1,1,2,-2,9,6,-6,-21
1532115907052,1,-1,-2,-1,2,-12,-1,-2
1532115907057,3,1,0,-3,-10,10,-4,-5
1532115907062,0,0,-3,-2,4,0,-3,-2
1532115907067,3,1,-2,7,-10,-4,0,10
1532115907072,-4,-2,2,-6,4,-2,2,-1
1532115907077,4,-3,-3,9,2,-7,1,4
1532115907082,-4,2,3,-4,9,1,-1,-7
1532115907087,-3,-2,-1,-1,-5,9,0,1
1532115907092,-4,-1,-1,4,-1,-8,-1,3
1532115907097,14,2,0,0,-2,-2,-2,6
1532115907102,-13,-4,-2,-6,3,-5,-5,-27
1532115907107,-5,-2,0,-1,-1,-2,1,3
1532115907112,-8,0,-1,-10,0,7,2,4
1532115907117,4,-1,1,2,-2,-22,-2,-2
1532115907122,3,1,-1,-8,-10,6,-1,-9
1532115907127,-1,-2,-1,-11,6,-2,-2,11
1532115907132,-4,-5,-3,1,-4,-8,-2,-21
1532115907137,-2,0,-2,-11,-5,21,6,8
1532115907142,5,2,2,4,-3,-19,-3,-8
1532115907147,1,-2,-2,-5,-2,9,-1,4
1532115907152,5,1,0,-7,2,-8,1,5
1532115907157,-7,-3,-1,-4,-11,-25,-4,-5
1532115907162,-5,-4,-7,-13,-1,4,2,2
1532115907167,3,5,3,3,5,8,-1,-1
1532115907172,3,-3,-3,-7,0,-7,0,14
1532115907177,-9,-5,-3,4,0,0,-3,-17
1532115907182,-2,-2,1,-2,2,0,0,10
1532115907187,-4,-1,-2,-4,-5,4,2,8
1532115907192,6,4,2,5,0,-12,-5,-12
1532115907197,-3,-1,0,-4,-3,6,-1,-13
1532115907202,-3,0,-3,9,1,1,-1,-4
1532115907207,5,-3,-5,-5,-7,0,1,4
1532115907212,-5,-3,3,6,3,9,2,9
1532115907217,4,1,-1,3,-1,-10,-3,2
1532115907222,1,1,1,-4,0,8,-1,0
1532115907227,4,0,-1,1,-2,3,0,0
1532115907232,-5,-1,-1,2,5,-7,0,-4
1532115907237,0,-1,-1,6,1,-5,-3,2
1532115907242,5,2,0,-3,2,5,1,5
1532115907247,-2,-1,-1,-5,0,1,0,-5
1532115907252,-14,-5,-4,4,1,-2,-5,-3
1532115907257,3,0,3,-7,12,7,-2,-5
1532115907262,-2,-3,-2,5,-6,-13,-1,4
1532115907267,6,0,1,3,-8,-2,-2,4
1532115907272,5,2,1,-10,0,-2,1,6
1532115907277,-7,-1,0,0,-11,0,-1,-9
1532115907282,0,-3,-4,9,21,16,-4,-1
1532115907287,1,4,0,1,-2,-10,-4,-14
1532115907292,2,-1,1,-3,2,14,0,1
1532115907297,2,-1,-3,3,5,-2,2,11
1532115907302,-6,-2,0,-2,-14,-7,-2,0
1532115907307,-2,-2,-3,1,7,9,-1,1
1532115907312,-1,0,-2,-3,2,-4,-2,2
1532115907317,1,1,-2,1,2,-2,2,3
1532115907322,3,2,1,-5,-5,-5,-3,-12
1532115907327,-8,-4,-1,1,6,1,0,-3
1532115907332,-4,-3,-3,-17,-5,6,6,11
1532115907337,2,1,1,9,4,7,-1,-6
1532115907342,4,0,-1,-1,-13,-2,-2,-21
1532115907347,0,-4,-1,0,1,-17,-3,6
1532115907352,-2,0,1,-6,-6,1,-6,-21
1532115907357,-4,-7,-3,-5,9,-5,3,3
1532115907362,-6,0,-2,0,1,5,4,14
1532115907367,13,12,6,-4,-7,-9,-1,-8
1532115907372,1,-3,0,-1,-7,-4,5,9
1532115907377,-11,-7,-5,2,2,4,-5,4
1532115907382,-7,-8,-2,-5,2,-8,0,-2
1532115907387,9,2,-1,11,1,10,4,8
1532115907392,-8,-3,-5,-10,-3,-10,-6,-9
1532115907397,4,4,0,13,-15,2,-5,-29
1532115907402,-3,1,3,-2,-3,1,-1,22
1532115907407,5,-3,-4,-10,1,-4,0,-2
1532115907412,3,-1,-2,-5,-7,7,-4,4
1532115907417,-1,3,1,4,-7,-25,-8,-20
1532115907422,-6,-2,2,-10,-2,13,2,2
1532115907427,-1,0,-1,7,8,-10,1,3
1532115907432,1,0,-2,4,-7,4,3,-1
1532115907437,1,-1,-2,-16,6,10,2,12
1532115907442,15,4,1,4,-1,-17,0,7
1532115907447,-13,-9,-5,11,-6,17,-7,-2
1532115907452,-2,-3,-6,5,0,-16,-6,-17
1532115907457,-4,0,4,1,-2,0,1,21
1532115907462,2,-1,-1,2,8,-2,-2,-32
1532115907467,-5,-2,0,-7,0,7,-1,7
1532115907472,0,4,1,11,1,-11,-2,-1
1532115907477,2,1,1,-7,-4,4,4,21
1532115907482,11,2,0,0,-5,7,3,-4
1532115907487,-20,-4,-2,-1,-4,-19,-11,-30
1532115907492,-8,-3,0,14,6,10,3,0
1532115907497,1,-1,0,-6,2,-3,-2,-3
1532115907502,-1,-2,0,-8,1,8,2,13
1532115907507,5,1,0,1,-8,-6,0,13
1532115907512,15,6,2,-7,6,9,0,-5
1532115907517,-13,-6,-5,-4,0,3,5,6
1532115907522,-9,-4,0,-21,-6,12,2,-7
1532115907527,-4,-5,-2,13,-6,-27,-6,-7
1532115907532,-4,-3,-2,5,-10,11,-4,7
1532115907537,13,4,3,-7,11,-6,-1,-3
1532115907542,3,-2,-3,-2,5,3,1,10
1532115907547,-6,-2,0,-16,1,21,5,0
1532115907552,4,2,2,1,-7,-27,2,15
1532115907557,10,2,-2,-3,-5,-8,-12,1
1532115907562,-24,-11,-5,2,3,7,0,-8
1532115907567,2,-2,-1,-10,-4,-5,-8,-18
1532115907572,-9,-7,-2,4,2,5,-1,-19
1532115907577,7,4,2,-3,1,10,5,4
1532115907582,16,11,0,-7,-2,-7,-5,14
1532115907587,-4,-2,1,1,-6,-12,5,-2
1532115907592,4,-1,0,-6,11,21,1,9
1532115907597,-8,-4,-2,1,-2,-6,4,-4
1532115907602,0,-3,-1,15,3,-18,-11,-3
1532115907607,4,1,-1,-1,14,23,8,8
1532115907612,-3,0,-2,-7,-8,-26,-2,-4
1532115907617,0,-2,-1,8,-4,20,1,-7
1532115907622,-6,0,-2,-11,0,-5,5,18
1532115907627,1,1,2,21,0,-8,-11,-37
1532115907632,-7,-3,-1,-2,-4,-9,-1,-3
1532115907637,-4,-4,-3,-3,-10,-4,-2,6
1532115907642,3,0,1,-3,9,11,2,-4
1532115907647,7,4,-1,-4,4,14,1,12
1532115907652,0,-2,-1,-1,-1,-14,-1,-33
1532115907657,-10,-5,-2,-5,-5,0,-3,-8
1532115907662,-4,-4,0,7,-4,2,-3,-7
1532115907667,0,-1,3,-3,-1,-3,6,20
1532115907672,9,4,0,-3,6,17,-4,6
1532115907677,4,7,1,-3,2,2,-1,0
1532115907682,0,-2,1,13,0,-14,0,-5
1532115907687,2,-3,-5,-2,-3,0,0,6
1532115907692,-22,-9,-2,3,4,5,-1,0
1532115907697,-5,-4,-1,-1,4,1,0,-9
1532115907702,7,4,2,0,-2,4,-1,16
1532115907707,3,4,1,6,-10,-17,-3,-18
1532115907712,9,4,1,-13,9,22,3,9
1532115907717,-4,-1,-3,7,0,-15,-8,-11
1532115907722,0,-3,-1,0,3,5,2,-1
1532115907727,-6,-2,-1,-11,1,16,0,-9
1532115907732,4,-1,-3,-2,-15,-31,-2,12
1532115907737,-8,-3,4,5,16,17,5,-8
1532115907742,-1,-2,-3,4,-2,-2,-1,-5
1532115907747,1,0,2,-5,-1,-6,2,12
1532115907752,10,4,1,-3,2,7,-3,-2
1532115907757,-10,-1,0,1,-7,-9,-2,9
1532115907762,-3,-3,-3,3,-9,5,-3,-9
1532115907767,-3,0,0,-6,1,-6,4,9
1532115907772,1,-1,0,11,0,5,2,12
1532115907777,8,0,-1,-3,-7,-3,-4,-20
1532115907782,-3,1,0,-6,6,-5,2,-3
1532115907787,-2,-4,-3,2,-2,-7,-3,-1
1532115907792,3,3,1,5,-9,-12,-2,9
1532115907797,-3,0,-5,-13,0,18,6,7
1532115907802,-5,0,0,-4,-19,-30,-7,-7
1532115907807,-2,-1,0,-22,11,24,5,7
1532115907812,11,3,3,7,11,-22,-5,-7
1532115907817,-10,-5,-3,10,-7,0,3,7
1532115907822,-4,-4,-4,2,4,4,-1,-25
1532115907827,-1,-3,-5,1,-10,-9,-2,8
1532115907832,-6,-2,1,-7,0,13,6,-4
1532115907837,4,5,5,-3,-9,-13,-5,-8
1532115907842,4,1,-2,4,20,25,3,11
1532115907847,-4,-2,-2,11,4,0,-4,-4
1532115907852,-8,-3,-2,-2,1,5,0,-8
1532115907857,3,-1,-2,1,2,-24,-6,7
1532115907862,4,1,0,-8,-13,-7,0,3
1532115907867,3,1,1,1,2,4,-1,-2
1532115907872,2,0,-2,-4,-7,5,1,0
1532115907877,-9,-4,-1,-6,4,-3,1,4
1532115907882,-5,1,1,-9,9,14,4,4
1532115907887,11,1,-3,1,-18,-26,-5,17
1532115907892,-10,-4,-2,-7,-9,27,7,0
1532115907897,-8,-4,4,7,2,-30,-7,-10
1532115907902,-1,-1,-1,3,0,12,2,-4
1532115907907,6,4,1,-8,6,1,4,2
1532115907912,5,2,-3,10,-4,-8,-4,9
1532115907917,-1,1,-8,-7,-5,-4,0,4
1532115907922,-3,-4,-1,-4,-3,5,-1,-7
1532115907927,-4,-3,-1,-9,7,21,5,-5
1532115907932,7,1,0,-2,-5,-29,-7,8
1532115907937,-7,-1,0,6,1,-1,-3,-4
1532115907942,2,0,-2,10,0,4,-1,-5
1532115907947,2,-1,-1,-5,3,7,0,7
1532115907952,2,0,2,4,-1,1,-2,-5
1532115907957,-7,-1,-3,-1,3,3,-2,-14
1532115907962,-5,-4,-2,5,-5,-10,0,6
1532115907967,1,-2,0,2,2,8,1,-2
1532115907972,4,1,1,8,1,2,1,19
1532115907977,5,3,3,2,0,-11,0,-5
1532115907982,-12,-10,-6,7,-1,24,3,-10
1532115907987,-7,1,0,2,5,-36,-6,-4
1532115907992,-1,-2,-4,3,-9,5,0,2
1532115907997,4,1,-2,-12,1,-6,-4,6
1532115908002,-1,2,2,1,4,-5,0,5
1532115908007,4,0,0,5,2,11,1,11
1532115908012,-6,0,-1,-10,-4,-6,-3,-8
1532115908017,-6,-6,-3,6,-1,4,-2,-22
1532115908022,1,0,2,-7,4,-15,-6,-17
1532115908027,-6,-4,-3,0,-5,6,4,15
1532115908032,4,2,0,-11,5,2,1,-3
1532115908037,-1,-1,-2,1,0,9,-3,3
1532115908042,-1,-1,-1,-12,-1,5,0,6
1532115908047,4,2,1,-6,1,1,1,-9
1532115908052,-1,-2,-1,5,1,-2,-1,9
1532115908057,8,1,-1,-5,-6,-2,8,8
1532115908062,-12,-7,-4,0,3,4,-5,19
1532115908067,-3,1,1,2,1,2,-7,-30
1532115908072,-5,-4,-2,-1,-3,7,-2,-7
1532115908077,-1,-1,0,7,6,9,1,-4
1532115908082,9,4,1,4,3,-3,-1,24
1532115908087,-1,2,0,8,-8,-15,-3,-29
1532115908092,-1,-2,0,13,9,18,-1,-2
1532115908097,-5,-2,0,-2,-1,-10,0,3
1532115908102,-1,0,-4,1,3,7,-2,-10
1532115908107,-4,-4,-3,-6,-10,-3,-1,27
1532115908112,1,3,1,17,14,-3,5,-16
1532115908117,2,0,1,7,-4,6,3,7
1532115908122,-4,-4,-2,-6,-4,7,-4,-10
1532115908127,-1,-5,-1,8,7,-12,2,0
1532115908132,2,1,-2,-3,-2,-8,0,13
1532115908137,1,0,-1,-9,1,9,4,13
1532115908142,-1,3,-1,1,2,-16,-5,-16
1532115908147,5,-1,-3,1,-5,8,-1,5
1532115908152,-5,-6,-1,-13,-5,10,-3,0
1532115908157,-2,-1,1,3,-3,-36,-2,0
1532115908162,1,2,1,-11,-3,4,1,-7
1532115908167,6,0,0,-15,-12,11,4,19
1532115908172,-10,-5,-1,-5,1,-9,-2,-29
1532115908177,-1,-3,-5,-4,-3,1,-5,-5
1532115908182,11,4,1,2,1,5,1,5
1532115908187,-15,-5,-3,-1,2,-1,-4,-16
1532115908192,4,1,2,-2,-7,1,-1,9
1532115908197,7,1,0,-3,-9,-20,-3,-1
1532115908202,-10,-5,-3,6,7,22,0,-4
1532115908207,4,-1,0,-11,7,-3,3,-2
1532115908212,-2,-2,-2,0,-9,-10,-2,2
1532115908217,-4,3,1,-12,17,4,-1,-4
1532115908222,14,5,2,-4,-6,3,2,6
1532115908227,-6,-2,-1,-8,-8,-9,-5,3
1532115908232,-4,-4,-3,8,2,8,-2,-19
1532115908237,1,0,0,-25,-5,9,-2,10
1532115908242,-11,-4,-2,5,-3,-16,-5,-21
1532115908247,0,-1,-1,-4,4,8,1,2
1532115908252,-5,0,0,-1,-4,-17,-2,7
1532115908257,4,0,-3,6,1,20,3,0
1532115908262,1,-1,1,-10,-1,4,2,-1
1532115908267,-4,0,0,-5,-3,-2,-2,7
1532115908272,4,0,0,1,2,2,-4,-7
1532115908277,2,3,2,5,-4,3,1,-1
1532115908282,4,-2,-3,-9,1,-8,-1,16
1532115908287,-14,-4,-1,10,-9,-21,-3,-26
1532115908292,4,3,0,-5,8,23,2,7
1532115908297,-7,-4,-1,3,-8,-8,-1,-4
1532115908302,-2,-1,-1,4,6,8,-1,-2
1532115908307,13,2,0,-5,-5,-1,0,6
1532115908312,-12,-2,-1,-3,-14,-24,-5,2
1532115908317,-8,-4,-2,0,-11,-17,-4,-5
1532115908322,4,1,2,5,8,12,3,3
1532115908327,4,2,0,3,7,16,1,3
1532115908332,5,-1,0,-10,6,6,2,13
1532115908337,-8,-5,-3,13,-6,-9,-8,-13
1532115908342,-12,-3,-2,-4,-6,-8,-1,-11
1532115908347,3,0,-2,4,1,9,-1,-5
1532115908352,1,-1,-3,5,-2,-11,1,10
1532115908357,4,0,1,-7,2,8,1,0
1532115908362,5,2,2,-7,-2,9,1,-3
1532115908367,-3,-2,1,4,2,-13,-3,5
1532115908372,-2,-1,-2,-8,-2,-1,-2,-8
1532115908377,-1,2,0,-28,10,25,1,1
1532115908382,-3,-2,-2,24,-17,-35,-12,-4
1532115908387,7,0,-3,-7,15,13,4,4
1532115908392,0,0,-1,6,-3,-10,2,6
1532115908397,-11,-5,0,8,2,4,-2,0
1532115908402,-2,-2,0,-2,-1,3,1,-3
1532115908407,3,2,1,-10,0,10,1,4
1532115908412,-4,-2,-1,5,3,-5,-3,-4
1532115908417,14,1,-2,4,0,-6,1,1
1532115908422,-12,-5,-2,-5,-5,-1,-1,0
1532115908427,-3,0,-1,10,2,5,-1,-9
1532115908432,5,4,2,-5,2,11,3,0
1532115908437,-1,-1,0,2,-2,-16,-2,-1
1532115908442,-5,-3,-2,-1,-6,-4,-2,-2
1532115908447,5,3,-1,1,2,-3,-1,1
1532115908452,0,1,3,-1,-5,-8,0,0
1532115908457,-1,-2,-1,1,4,14,0,3
1532115908462,2,0,3,-7,3,-14,1,1
1532115908467,-8,-3,-2,-2,-8,-3,-4,-3
1532115908472,1,1,1,-4,-13,3,2,-1
1532115908477,5,1,-1,7,-1,-10,1,4
1532115908482,2,0,-1,-12,4,7,4,2
1532115908487,-3,-2,0,-5,-4,8,-2,-3
1532115908492,-1,-4,-2,-2,1,-28,-5,13
1532115908497,-9,0,-2,7,-2,21,-1,-39
1532115908502,-5,-6,-1,3,-1,-13,-2,4
1532115908507,0,-1,-1,3,4,-5,1,-8
1532115908512,0,0,0,-7,5,23,1,5
1532115908517,1,-2,0,3,-6,-19,-2,15
1532115908522,4,2,-4,-7,-4,3,-1,-5
1532115908527,0,1,-1,4,-9,1,-3,2
1532115908532,5,3,-2,-9,-1,-7,0,-2
1532115908537,-11,-4,-2,-1,-2,-8,-2,4
1532115908542,2,3,4,11,6,15,0,3
1532115908547,0,-2,-1,5,1,1,1,-2
1532115908552,1,-3,-2,10,-3,-5,-5,-4
1532115908557,2,1,1,-6,-6,-6,2,5
1532115908562,1,0,-1,-3,0,1,-2,1
1532115908567,-11,-2,-2,-12,-9,5,-2,-9
1532115908572,-5,-3,-1,-5,-4,-5,1,-3
1532115908577,11,7,0,-7,0,-3,-2,6
1532115908582,10,3,1,-5,2,4,1,4
1532115908587,-15,-11,-2,-1,-3,2,0,0
1532115908592,8,2,-2,-1,7,29,-1,-3
1532115908597,10,4,2,-2,12,-11,2,5
1532115908602,-5,-1,-2,3,2,7,0,-1
1532115908607,1,1,-2,-15,-2,13,0,-1
1532115908612,2,-2,-1,-4,-7,-32,-3,6
1532115908617,5,1,-1,16,-3,-5,-5,15
1532115908622,-4,1,3,5,-2,-6,1,-19
1532115908627,-2,-2,-1,1,-1,13,-1,-4
1532115908632,-12,-7,-6,-4,-2,5,0,-9
1532115908637,3,2,2,1,-4,-5,-2,5
1532115908642,7,8,3,-9,-2,-9,-1,5
1532115908647,-1,-1,-4,-3,0,13,1,0
1532115908652,-14,-4,-1,-1,-7,-11,-3,-5
1532115908657,4,-2,-3,-14,-5,7,1,-7
1532115908662,-2,-3,-4,0,0,-12,-5,0
1532115908667,-1,0,4,0,1,-2,-1,-3
1532115908672,-1,0,0,3,6,-4,-1,-1
1532115908677,3,1,1,2,3,4,2,1
1532115908682,4,2,0,4,-5,-5,-1,0
1532115908687,5,-4,-1,14,8,13,1,2
1532115908692,-3,-2,-1,2,-1,-12,-4,-3
1532115908697,-4,-3,-2,2,-7,-2,-2,2
1532115908702,-2,-2,-1,-10,-2,5,-1,-12
1532115908707,-2,0,1,-6,-3,4,-1,-1
1532115908712,7,3,3,-11,-1,-8,4,3
1532115908717,-4,0,-3,8,0,-12,-1,-16
1532115908722,0,0,-3,-6,6,1,1,7
1532115908727,-4,-6,-4,-5,-3,-3,-2,-3
1532115908732,-7,2,1,4,-4,18,1,-5
1532115908737,-1,-2,-3,-13,-3,-19,-1,8
1532115908742,-2,-4,-1,8,5,4,-1,-2
1532115908747,0,1,0,3,-6,-2,-1,8
1532115908752,-1,0,-1,-6,1,9,0,-17
1532115908757,0,-1,0,-3,-4,-2,-1,-1
1532115908762,7,4,2,6,-1,3,1,1
1532115908767,-2,-3,-1,-6,6,0,-3,5
1532115908772,1,-3,-4,-5,-6,-28,-3,4
1532115908777,-3,-3,0,6,3,18,-2,-1
1532115908782,-6,-1,-1,-8,-3,8,2,-2
1532115908787,-1,1,0,-4,0,-11,-3,0
1532115908792,2,0,-3,0,4,5,0,0
1532115908797,19,8,2,-2,3,0,2,6
1532115908802,-11,-5,-2,-3,-3,-4,0,2
1532115908807,-13,-9,-3,-7,-6,-5,-2,-14
1532115908812,-7,-3,-2,4,-6,4,3,0
1532115908817,5,0,3,-6,6,-3,-6,5
1532115908822,3,-1,-4,8,-4,4,-4,1
1532115908827,16,8,0,5,-3,-1,2,-11
1532115908832,-6,0,3,-12,4,27,3,-4
1532115908837,-14,-6,-3,8,-14,-34,-4,0
1532115908842,5,-2,0,-3,2,2,-2,10
1532115908847,4,3,0,-9,-4,-8,-1,5
1532115908852,1,-1,-3,5,1,5,0,6
1532115908857,-1,-3,-4,-4,8,12,0,5
1532115908862,14,4,3,0,-4,-5,2,-5
1532115908867,-16,-9,-4,-5,-3,-23,-2,-5
1532115908872,-8,-5,0,10,0,12,-5,-8
1532115908877,-8,0,1,-11,-1,9,2,-9
1532115908882,3,-1,-1,10,-4,16,0,0
1532115908887,7,3,2,2,-1,-9,2,10
1532115908892,9,5,2,6,-2,-11,-1,5
1532115908897,-7,-3,-2,-3,-2,5,-2,-6
1532115908902,-2,-1,-3,3,0,-3,-2,-4
1532115908907,2,1,1,0,2,23,5,-2
1532115908912,-1,-5,-4,-8,-11,-27,-1,0
1532115908917,8,5,3,5,11,12,0,-6
1532115908922,-12,-3,-1,-8,8,6,-2,1
1532115908927,-9,-3,-3,14,-1,7,-3,-4
1532115908932,1,-1,-2,-1,5,-3,-1,0
1532115908937,-1,4,1,-2,-8,4,3,0
1532115908942,18,4,0,2,0,-9,2,4
1532115908947,-18,-10,-3,-2,-6,3,-5,-4
1532115908952,-5,-1,0,5,-2,3,-2,-4
1532115908957,-5,1,0,-3,-2,-4,-2,-4
1532115908962,-3,-3,-2,-5,3,-1,-5,0
1532115908967,11,4,2,5,4,26,2,4
1532115908972,4,2,2,-8,-2,-13,1,1
1532115908977,2,-1,-2,15,-1,-19,-7,0
1532115908982,-8,-5,-1,-19,-6,-9,1,-1
1532115908987,-4,-5,-4,3,2,-6,-4,0
1532115908992,2,-2,-1,-12,5,25,1,-3
1532115908997,-4,-1,0,-3,-3,2,-1,-4
1532115909002,-4,-2,-1,3,0,-9,-3,-2
1532115909007,1,1,-4,-8,-3,-2,0,0
1532115909012,0,1,-2,-3,-4,0,-2,-1
1532115909017,-1,1,4,-1,0,0,0,-4
1532115909022,1,-1,0,-2,2,-2,1,-3
1532115909027,-2,0,1,-2,-1,-2,-3,4
1532115909032,-4,-3,-1,6,3,-2,-3,-7
1532115909037,3,0,-2,-3,-1,2,2,0
1532115909042,-11,0,-1,5,-4,0,-2,-3
1532115909047,5,0,0,-2,9,-5,2,-1
1532115909052,5,3,1,15,1,-2,-3,5
1532115909057,-7,-7,-3,-8,-5,7,4,0
1532115909062,-1,-2,2,1,3,-9,-3,1
1532115909067,10,3,-2,9,-4,-14,-9,0
1532115909072,8,3,1,-8,-1,5,5,0
1532115909077,-19,-10,-2,-1,1,1,-1,-5
1532115909082,9,-1,-2,7,-6,18,-2,-3
1532115909087,-9,0,-1,12,-4,-23,-2,0
1532115909092,7,0,1,2,18,21,0,7
1532115909097,1,1,-3,-11,0,2,-4,-7
1532115909102,-9,-3,-2,8,-2,-2,1,0
1532115909107,6,0,1,-12,-3,-2,-4,0
1532115909112,-10,-7,-3,6,-6,-8,-1,-6
1532115909117,7,7,6,1,-3,-4,6,4
1532115909122,-2,-1,0,-13,-2,17,-1,0
1532115909127,8,3,1,0,8,-9,1,0
1532115909132,-2,1,-2,0,-3,1,-1,3
1532115909137,-6,-7,-8,-6,-1,-15,-1,-3
1532115909142,-5,-4,-1,1,-10,-7,1,-3
1532115909147,-3,2,4,-6,4,19,1,2
1532115909152,-2,-2,-1,-4,-6,0,-3,-4
1532115909157,4,1,-3,-5,-3,-2,-7,-2
1532115909162,4,3,2,0,-4,-11,6,3
1532115909167,1,-1,0,3,-3,14,0,-1
1532115909172,-4,0,0,-7,14,5,3,3
1532115909177,-11,-6,-3,5,4,-9,-7,1
1532115909182,-4,-1,-1,-3,-7,-11,-5,-19
1532115909187,3,-4,-4,-19,3,11,1,-2
1532115909192,4,1,2,-1,-6,-5,-4,-3
1532115909197,-4,-2,-1,0,8,29,3,1
1532115909202,6,5,3,16,2,-26,-2,8
1532115909207,-3,-1,-1,19,-5,-3,-3,-1
1532115909212,-5,-2,-3,1,-5,-5,-1,-6
1532115909217,-3,-3,-1,0,-6,-7,-5,-2
1532115909222,-2,0,-1,3,8,16,4,-1
1532115909227,-1,0,0,3,4,0,1,0
1532115909232,1,0,-2,15,-5,-9,-1,2
1532115909237,18,5,0,-1,-3,6,1,2
1532115909242,-10,-2,-1,1,1,2,-5,-1
1532115909247,-4,-3,0,5,4,-12,-3,-1
1532115909252,3,0,-1,2,-13,-2,4,0
1532115909257,6,3,1,0,-3,6,-2,-5
1532115909262,-10,-6,-3,-7,6,-12,1,3
1532115909267,-6,-6,-5,3,-1,-12,-1,-3
1532115909272,0,0,2,0,11,16,-2,-3
1532115909277,1,2,1,5,-5,-2,3,-3
1532115909282,6,2,1,6,-2,-17,-9,4
1532115909287,-3,1,-2,-12,-4,9,0,-4
1532115909292,0,-2,-1,-6,-7,-23,-2,-3
1532115909297,1,0,0,5,3,-3,-2,1
1532115909302,0,-1,-2,-9,3,16,4,0
1532115909307,6,0,1,1,1,-9,2,8
1532115909312,-5,-2,-4,-5,-1,4,-4,-15
1532115909317,-2,-1,0,-4,-1,0,-2,-5
1532115909322,-4,-1,-1,-4,-3,-7,0,-2
1532115909327,0,-2,5,-3,-1,6,0,-1
1532115909332,-6,3,-1,-11,-2,-1,0,3
1532115909337,-1,-2,-2,-6,2,7,0,2
1532115909342,6,2,-2,-12,0,0,-5,0
1532115909347,-8,-2,-1,-3,-5,-3,-2,-5
1532115909352,-1,-3,1,-11,-1,6,1,3
1532115909357,1,-1,0,2,-6,-17,-2,0
1532115909362,8,2,-1,-7,0,16,0,2
1532115909367,2,2,-1,0,-1,-1,-4,-2
1532115909372,2,-3,-2,-1,-13,-41,-6,0
1532115909377,7,2,0,5,11,40,5,3
1532115909382,-13,-7,-2,-4,-10,1,-3,-9
1532115909387,-6,-4,-2,0,2,-1,1,-5
1532115909392,-1,1,2,-5,-4,-1,-1,2
1532115909397,2,-1,-2,-6,-2,-13,2,3
1532115909402,3,0,-1,5,-2,7,1,2
1532115909407,14,8,1,-9,-4,8,1,4
1532115909412,-11,-4,-4,-1,-11,-3,-1,-5
1532115909417,-18,-8,0,-11,5,1,-4,-6
1532115909422,-3,-3,0,6,2,-11,-3,-1
1532115909427,6,0,-2,-14,-1,-4,1,8
1532115909432,4,1,-3,-6,5,12,0,-14
1532115909437,1,0,-1,1,0,-13,-2,-1
1532115909442,-1,1,2,-2,1,-1,0,-4
1532115909447,-2,1,1,5,1,9,3,0
1532115909452,13,4,2,7,1,5,3,13
1532115909457,-13,-7,-4,8,-4,-10,1,-3
1532115909462,-5,-1,-3,2,3,3,-2,-5
1532115909467,-3,-1,-1,-3,-9,-27,-3,-2
1532115909472,-2,2,0,-2,9,36,3,2
1532115909477,3,0,1,1,-2,-3,-3,-1
1532115909482,11,1,-2,4,-5,-8,1,8
1532115909487,-4,-1,-1,-1,18,26,1,-2
1532115909492,-8,-3,-2,2,5,-19,-2,-1
1532115909497,-8,-6,-3,5,-3,-3,-1,2
1532115909502,-6,-1,0,-6,-2,-10,-4,-6
1532115909507,-2,-1,-2,-1,-3,-4,1,-6
1532115909512,10,1,0,5,-5,7,2,2
1532115909517,4,3,0,-6,-1,-3,1,7
1532115909522,-3,-4,-1,9,3,-6,-4,-5
1532115909527,0,-1,-1,1,-3,9,0,-3
1532115909532,1,3,5,6,2,-10,-2,2
1532115909537,0,-2,-2,1,1,-8,-2,-1
1532115909542,1,0,-2,-3,1,12,1,3
1532115909547,0,-3,0,-6,0,-1,3,-1
1532115909552,-4,-2,-3,19,-8,-9,-6,-2
1532115909557,1,0,0,2,0,5,-3,1
1532115909562,3,2,1,3,-3,-16,-2,8
1532115909567,7,2,-1,21,3,15,-4,-12
1532115909572,-11,-4,-4,-5,4,-1,2,1
1532115909577,-10,-6,-4,6,-5,-1,-4,-8
1532115909582,4,3,0,1,2,11,4,6
1532115909587,-4,-2,-2,-5,-4,-4,1,5
1532115909592,2,0,1,3,-7,-9,-6,-6
1532115909597,9,7,3,-2,1,0,-1,2
1532115909602,-5,-3,-2,-6,-3,0,-3,-4
1532115909607,-4,-4,-3,1,-5,-5,-2,-3
1532115909612,-2,0,-1,-2,2,-3,-1,2
1532115909617,2,0,0,-3,-1,1,3,-1
1532115909622,3,1,-3,-2,-2,1,-2,-2
1532115909627,-1,2,3,-10,7,-1,-5,-1
1532115909632,-9,-6,-3,-7,1,-1,-5,0
1532115909637,-2,-2,1,-3,0,-3,-3,-5
1532115909642,3,-1,-3,7,-6,-8,-2,-1
1532115909647,-1,-3,-4,-7,5,22,-2,-1
1532115909652,7,5,3,9,-12,-47,1,5
1532115909657,4,2,1,-3,17,32,3,3
1532115909662,-8,-1,-3,-2,1,1,-1,-2
1532115909667,-12,-6,0,4,-4,6,1,-2
1532115909672,-5,-3,0,-2,1,-1,-1,-6
1532115909677,3,-2,-4,-4,-5,-7,0,12
1532115909682,4,3,2,-4,3,14,2,-10
1532115909687,-5,-3,-2,5,-8,-27,-3,0
1532115909692,6,0,-1,-13,-4,4,-1,-2
1532115909697,1,6,0,-3,-7,-7,-4,-7
1532115909702,1,0,0,-20,15,29,3,7
1532115909707,-9,-5,-4,-7,-14,-27,-2,-2
1532115909712,5,-2,-1,-6,4,11,2,-1
1532115909717,1,0,-1,-4,0,-6,-1,0
1532115909722,-3,-3,-4,-15,-8,1,5,1
1532115909727,-5,2,3,-5,-2,4,-3,-5
1532115909732,6,2,0,-5,5,3,-1,4
1532115909737,-12,-6,-3,-11,-5,-1,-1,-4
1532115909742,6,0,0,-7,-2,-6,-1,1
1532115909747,-2,-1,-4,6,0,-13,-7,1
1532115909752,-6,-2,-3,-14,1,11,2,-4
1532115909757,2,2,5,1,-7,9,2,-2
1532115909762,-1,0,1,1,12,5,3,-3
1532115909767,8,2,1,9,-6,-26,-2,8
1532115909772,-3,-1,-3,8,3,23,-2,1
1532115909777,8,1,-2,3,-2,-10,0,-1
1532115909782,-9,-5,-4,-1,-8,3,-4,-2
1532115909787,0,1,4,-2,2,-4,5,-1
1532115909792,-3,-2,-2,5,0,-6,-3,-3
1532115909797,-4,-3,-4,5,3,-7,-1,-4
1532115909802,13,4,5,11,2,-4,-1,3
1532115909807,-1,-1,-4,-10,2,9,3,1
1532115909812,-20,-12,-4,4,0,7,-1,-6
1532115909817,2,0,-1,2,-5,-1,0,3
1532115909822,0,0,-2,-5,-5,-13,-7,-1
1532115909827,4,3,2,10,-4,10,-1,-7
1532115909832,6,4,3,1,1,1,2,4
1532115909837,-3,-1,-1,0,-4,-5,-3,1
1532115909842,-1,0,2,4,1,-3,-1,0
1532115909847,3,0,-1,-10,-4,2,3,4
1532115909852,-1,0,-2,-4,4,13,-10,-4
1532115909857,-5,0,1,-7,-10,-40,0,-4
1532115909862,-7,-3,-3,6,-2,-6,-2,-1
1532115909867,1,-2,-3,9,-8,-2,0,-2
1532115909872,5,3,2,-4,12,32,5,1
1532115909877,2,3,-1,-8,5,3,-1,2
1532115909882,5,-2,0,8,-3,-6,-2,0
1532115909887,-9,2,2,3,0,-1,-4,0
1532115909892,-12,-10,-5,3,-1,-17,-1,4
1532115909897,-3,1,0,-7,-7,18,0,-14
1532115909902,-5,-4,-2,1,-8,-6,2,-2
1532115909907,13,4,3,1,1,10,1,1
1532115909912,11,3,1,-8,-1,-6,2,-1
1532115909917,-5,-5,-1,1,9,16,-2,2
1532115909922,-6,-3,-3,3,-6,-3,-8,-2
1532115909927,-2,-2,-4,-13,-3,-22,-4,0
1532115909932,-1,-1,1,3,-5,1,2,2
1532115909937,1,-1,-1,9,-1,4,3,1
1532115909942,-4,0,-1,-7,0,-4,-2,-2
1532115909947,-4,-1,1,-3,11,12,-2,0
1532115909952,1,1,-3,-3,-6,-7,-1,-1
1532115909957,1,0,1,2,0,3,0,3
1532115909962,6,0,-2,-5,-2,-2,-2,-1
1532115909967,-11,-7,-4,1,0,2,-3,-9
1532115909972,-6,-2,0,-3,-8,-7,-2,-3
1532115909977,-5,-5,-2,4,2,1,-4,-1
1532115909982,-1,1,3,-1,-9,-16,2,3
1532115909987,9,0,0,-4,13,21,2,1
1532115909992,5,4,-1,-2,-3,-14,1,2
1532115909997,5,1,-3,-12,11,35,-2,-2
1532115910002,-7,-5,-2,2,-3,-12,-1,0
1532115910007,6,1,-1,15,-5,-28,-3,3
1532115910012,-1,0,-1,0,2,-7,-1,2
1532115910017,2,-2,-1,1,-5,-6,-1,5
1532115910022,-4,1,-1,-7,2,16,-4,-15
1532115910027,-1,-2,-2,-4,-8,8,6,-3
1532115910032,-7,-1,0,-1,3,5,-5,-7
1532115910037,-4,-2,-2,-4,-2,-12,2,3
1532115910042,4,1,-1,-3,5,4,-1,6
1532115910047,-15,-4,-1,3,-3,2,-1,-4
1532115910052,9,3,-1,-3,-5,-3,1,-1
1532115910057,-10,-3,-2,3,3,0,-3,-5
1532115910062,5,0,3,-3,0,2,1,1
1532115910067,3,0,0,-4,-4,4,-4,3
1532115910072,2,0,0,5,1,2,-2,2
1532115910077,8,3,-1,-5,-6,-22,-2,0
1532115910082,-12,-7,-5,0,-2,-1,4,-1
1532115910087,-2,-2,1,-13,3,9,0,-3
1532115910092,-3,-2,-1,-1,3,-8,-1,1
1532115910097,6,1,2,3,1,-6,-3,-4
1532115910102,0,2,2,-5,2,1,0,1
1532115910107,13,1,-6,-7,-3,-2,0,0
1532115910112,5,0,-2,-4,7,-10,-6,-1
1532115910117,-1,4,2,5,12,30,5,3
1532115910122,11,2,-2,7,2,-9,-1,6
1532115910127,-12,-5,-4,-2,-3,-1,-3,-8
1532115910132,0,-1,-1,7,6,8,0,-13
1532115910137,4,2,-3,-3,-6,-17,-6,-1
1532115910142,4,0,-3,-4,-5,1,-1,1
1532115910147,10,2,1,0,2,-3,-1,-2
1532115910152,-9,-3,-2,-6,-3,1,-2,-1
1532115910157,-4,-5,-1,5,-4,9,-1,-3
1532115910162,-1,-2,1,-7,14,8,-2,-2
1532115910167,0,1,0,9,4,-7,-4,-5
1532115910172,3,0,-5,-7,0,-2,3,7
1532115910177,-4,1,1,0,-10,-28,-7,-14
1532115910182,0,-3,-2,-16,-2,6,-4,1
1532115910187,0,-2,0,-5,1,1,3,1
1532115910192,0,-1,-5,-1,-7,9,-1,-4
1532115910197,-1,2,2,1,4,-4,6,7
1532115910202,6,-2,-2,2,-6,-2,-3,1
1532115910207,-8,-3,-3,2,-9,-15,1,-1
1532115910212,3,1,2,1,2,7,-2,-2
1532115910217,3,2,2,-2,0,1,-1,3
1532115910222,-11,-1,-3,3,-5,-6,2,-4
1532115910227,-1,-2,2,-6,9,22,5,4
1532115910232,1,0,-4,2,-7,-20,-1,-3
1532115910237,-1,-4,-3,-1,3,-8,-4,-5
1532115910242,-4,-2,0,11,-4,-11,-4,1
1532115910247,-6,-1,-1,4,-2,4,1,-1
1532115910252,9,3,2,-8,4,5,1,1
1532115910257,-4,-1,-3,-5,2,7,-2,0
1532115910262,1,0,-1,4,-2,-2,0,-4
1532115910267,-1,-2,-4,4,-9,8,0,0
1532115910272,-1,-4,0,1,-4,-33,-7,-1
1532115910277,1,3,0,30,-3,20,0,4
1532115910282,4,0,-1,-7,1,4,-2,-1
1532115910287,-5,-3,-4,-1,-2,-5,-2,-2
1532115910292,10,4,2,5,3,7,4,0
1532115910297,-16,-5,-1,-13,-2,-3,-5,-2
1532115910302,0,-2,-2,6,-9,-11,-2,-2
1532115910307,-5,1,0,-2,3,3,0,1
1532115910312,-7,-5,-3,-2,-8,-6,-5,-2
1532115910317,7,0,0,-14,4,-3,1,9
1532115910322,9,3,4,-6,7,35,0,-15
1532115910327,-8,-1,0,3,-8,-51,-2,-2
1532115910332,-7,-2,-2,3,8,13,-2,-1
1532115910337,1,0,1,6,-8,-4,0,-3
1532115910342,1,-3,-3,3,3,3,0,6
1532115910347,8,2,3,2,-1,8,-3,1
1532115910352,-2,1,1,3,1,6,1,1
1532115910357,21,3,-1,-7,-2,-11,3,1
1532115910362,-23,-5,-3,-6,-4,14,1,-2
1532115910367,2,-2,-2,2,-3,-15,-6,-6
1532115910372,2,0,0,-2,4,-5,-2,2
1532115910377,-9,-7,-3,-12,6,17,1,-3
1532115910382,6,4,1,9,-13,-27,-4,3
1532115910387,5,1,2,-6,-1,11,3,4
1532115910392,-1,-2,-3,-16,9,9,0,2
1532115910397,0,1,-2,-3,4,-1,-1,-3
1532115910402,-8,-4,-3,-5,2,-6,-2,-5
1532115910407,-2,0,2,-8,-3,6,-3,-3
1532115910412,-2,0,0,-4,-6,8,1,-1
1532115910417,-3,-1,0,0,1,-11,1,2
1532115910422,4,-3,-4,-2,-6,3,-2,1
1532115910427,5,1,0,-18,16,19,0,-2
1532115910432,-7,-2,-3,-2,-8,5,1,4
1532115910437,-7,-2,-1,-8,-3,-2,-5,-4
1532115910442,3,1,1,5,-7,0,1,0
1532115910447,-3,-2,-1,-9,2,18,5,-1
1532115910452,-3,-3,-1,6,0,-28,-4,-2
1532115910457,-10,-6,-2,4,-10,-7,-2,4
1532115910462,5,-1,1,-8,-1,-8,-2,3
1532115910467,5,2,2,1,1,2,-1,-2
1532115910472,-4,1,-2,-1,0,8,1,-2
1532115910477,7,3,-1,6,0,-6,-2,0
1532115910482,0,-2,0,-4,5,1,4,3
1532115910487,-8,-3,-4,-17,-2,14,-1,-2
1532115910492,-2,-3,-3,13,-7,-31,1,-2
1532115910497,2,2,0,6,0,16,1,-1
1532115910502,8,3,1,-1,2,-16,-1,2
1532115910507,-13,-7,-6,-4,-5,-5,-2,-3
1532115910512,8,1,2,3,2,10,1,-4
1532115910517,-13,-2,0,-11,-2,-8,0,1
1532115910522,1,2,3,8,-3,19,0,-4
1532115910527,0,-3,-2,1,10,9,-2,4
1532115910532,-15,-8,-6,-1,-10,2,-6,-7
1532115910537,6,0,1,-8,5,1,4,-1
1532115910542,4,3,-1,-5,1,-6,1,1
1532115910547,1,1,1,-4,-7,-9,-1,0
1532115910552,6,3,1,1,-1,7,-4,-3
1532115910557,-1,-3,1,-4,0,3,-1,-2
1532115910562,-9,-4,-2,5,-4,0,-2,-3
1532115910567,4,3,2,-3,-1,7,4,3
1532115910572,4,2,1,5,2,-29,-4,3
1532115910577,6,1,-2,-5,-1,-3,-3,1
1532115910582,-2,-1,-2,-10,-6,6,4,1
1532115910587,-4,-5,-1,7,-5,-25,1,-4
1532115910592,-7,-4,1,-5,8,22,2,1
1532115910597,10,3,-2,2,-4,-10,3,5
1532115910602,-6,0,0,3,6,6,-4,1
1532115910607,9,3,-1,-8,-9,1,-4,-5
1532115910612,-14,-6,-2,9,0,-5,-1,-6
1532115910617,-5,-5,-1,-1,6,2,0,0
1532115910622,0,0,-1,-5,4,-3,1,1
1532115910627,3,6,2,12,-6,-6,-2,2
1532115910632,6,0,-1,-3,-2,2,-2,3
1532115910637,-7,-1,-2,-3,-4,-4,1,-6
1532115910642,-2,-2,0,-5,0,13,-2,-3
1532115910647,-7,-4,-3,4,-3,-15,-4,1
1532115910652,7,-1,-4,5,0,14,4,0
1532115910657,-3,1,6,-1,4,2,1,0
1532115910662,1,-5,-4,-2,1,-9,-3,-2
1532115910667,4,2,1,11,-4,-17,-4,3
1532115910672,-9,0,0,-14,-2,26,0,-3
1532115910677,0,-2,-2,12,1,-21,-2,-4
1532115910682,-2,-1,-3,-1,-2,-10,0,2
1532115910687,-4,-5,0,4,-1,3,-5,-8
1532115910692,5,4,4,12,3,-1,3,4
1532115910697,6,4,-1,-4,2,15,0,9
1532115910702,-12,-4,-3,5,-2,-11,-5,-19
1532115910707,0,-1,-3,-1,2,2,1,0
1532115910712,-3,-1,0,-4,-4,-2,-3,-3
1532115910717,8,2,-1,-2,-1,1,-1,0
1532115910722,-7,-2,0,0,0,3,1,4
1532115910727,-2,-3,-3,-5,-3,-7,-4,-4
1532115910732,-7,-3,-1,-9,-3,-7,1,-2
1532115910737,0,-1,1,10,-14,-17,-5,2
1532115910742,-5,-3,-5,-5,-1,-1,1,-4
1532115910747,-10,-6,-1,-20,-6,28,5,-2
1532115910752,0,0,-1,4,-3,-34,-6,-2
1532115910757,-3,-1,-1,-7,-4,-6,-4,1
1532115910762,12,3,-1,-4,-6,0,-2,-1
1532115910767,-11,-6,0,-5,9,20,2,-1
1532115910772,1,2,1,-2,-10,-13,1,0
1532115910777,-6,-6,-6,13,-1,4,1,3
1532115910782,4,6,3,-2,-3,-7,-2,-3
1532115910787,3,4,-1,1,-1,-3,0,-2
1532115910792,4,1,2,-10,1,7,-1,3
1532115910797,0,-1,-4,-3,-2,-4,0,-3
1532115910802,6,1,0,-12,0,1,-1,1
1532115910807,-11,-6,-3,6,1,-6,-4,-4
1532115910812,-3,-3,-5,-4,-6,-7,-2,0
1532115910817,7,3,5,3,2,2,1,1
1532115910822,2,-1,-2,-3,4,-13,1,13
1532115910827,-10,-4,-1,7,-5,5,-2,-7
1532115910832,6,1,0,4,-4,3,1,-5
1532115910837,-8,2,0,-3,-2,-6,2,-1
1532115910842,-2,-7,-5,-1,5,12,-2,-6
1532115910847,10,3,2,-5,2,-6,1,5
1532115910852,-6,-4,-3,-1,-17,-3,-5,5
1532115910857,18,9,2,-2,4,-9,0,-1
1532115910862,-15,-3,-1,-1,0,-16,-5,-2
1532115910867,-2,-1,-4,5,2,-7,-4,-2
1532115910872,0,-2,-3,-4,-4,21,4,-3
1532115910877,-2,-1,0,-1,1,-5,1,-2
1532115910882,0,1,0,3,-20,0,-3,-2
1532115910887,4,2,3,3,7,3,0,-2
1532115910892,2,3,1,3,6,-2,-2,1
1532115910897,1,-3,-1,-6,-4,6,1,5
1532115910902,-12,-3,1,2,5,10,0,-5
1532115910907,-2,0,-1,7,-1,-8,-2,-4
1532115910912,7,4,2,1,-5,-10,1,0
1532115910917,-11,-6,-4,-6,2,-3,-2,-4
1532115910922,-7,-5,0,5,6,17,2,-3
1532115910927,9,1,-5,-8,3,4,0,4
1532115910932,-9,-4,2,0,3,10,-3,0
1532115910937,-6,-1,-2,10,-4,-15,-7,-12
1532115910942,6,1,1,-6,-6,-4,4,0
1532115910947,2,1,0,-11,-6,-7,-2,-3
1532115910952,5,2,0,2,6,5,-1,5
1532115910957,-6,-4,-3,-7,5,9,0,-1
1532115910962,1,-2,-2,7,-3,-7,-5,1
1532115910967,-3,-1,-1,21,1,-15,-1,0
1532115910972,1,-2,-3,-3,2,0,3,-2
1532115910977,-4,-1,3,0,-7,5,-1,1
1532115910982,-1,-3,-4,-5,0,0,-4,-7
1532115910987,9,5,-1,-7,-1,8,-1,0
1532115910992,-9,-3,0,6,6,-7,0,0
1532115910997,-3,-5,-3,1,-8,5,2,4
1532115911002,14,8,4,-2,2,4,-2,-6
1532115911007,-11,-7,0,0,-1,-2,-2,-7
1532115911012,-1,-2,0,-6,6,5,-1,-2
1532115911017,-3,-2,-3,0,-1,6,0,0
1532115911022,6,-3,-2,-1,0,-1,1,5
1532115911027,1,2,0,-9,-8,-7,-3,-1
1532115911032,-1,0,-2,3,5,4,0,-1
1532115911037,5,1,1,-9,1,4,3,5
1532115911042,1,1,0,2,0,-12,1,-1
1532115911047,-13,-6,-3,0,1,-3,-1,1
1532115911052,-5,-3,-3,-1,-5,-5,-8,-6
1532115911057,2,0,1,0,4,3,-1,-4
1532115911062,-1,2,1,-2,1,11,-1,-1
1532115911067,4,0,0,1,-19,-5,-2,4
1532115911072,-4,-4,-2,-5,-4,-13,0,-2
1532115911077,0,0,-2,2,0,-9,-3,-1
1532115911082,10,6,3,-4,-1,14,1,3
1532115911087,-16,-9,-4,6,1,-32,-7,-18
1532115911092,2,1,-2,-3,-7,7,-3,2
1532115911097,1,0,-2,-19,1,6,2,-5
1532115911102,-2,0,1,-12,-6,-8,-1,7
1532115911107,4,1,-1,-12,3,7,3,3
1532115911112,-3,1,2,8,-2,-12,-2,-3
1532115911117,-8,-5,-2,3,-2,-2,-5,-6
1532115911122,-8,-4,-2,-2,11,18,4,-2
1532115911127,2,0,0,-20,-2,0,-1,0
1532115911132,2,1,-1,-1,2,-23,-4,5
1532115911137,2,3,0,-10,1,17,2,3
1532115911142,-4,-3,-2,0,-9,-37,-5,1
1532115911147,-4,-2,0,2,6,16,4,2
1532115911152,-3,-3,-3,-6,-5,0,1,-4
1532115911157,1,1,2,3,-1,-1,-3,3
1532115911162,9,1,-2,-1,-4,-1,-2,-2
1532115911167,-3,1,-1,3,0,-9,1,5
1532115911172,-4,-3,-4,-12,-6,1,-2,-7
1532115911177,-1,-1,1,-7,2,3,0,-2
1532115911182,-5,-7,-3,0,2,-1,-2,-2
1532115911187,2,3,3,5,-1,1,-6,2
1532115911192,-5,-2,0,0,-1,-1,4,3
1532115911197,5,3,0,5,-2,-4,-3,-15
1532115911202,-7,-3,0,7,-3,5,-2,-5
1532115911207,5,2,-1,-5,9,12,-2,-4
1532115911212,7,1,2,6,-8,-2,1,4
1532115911217,-5,-4,-4,18,6,-12,-3,8
1532115911222,-1,1,0,2,2,-5,-2,-2
1532115911227,1,-1,-1,9,-6,6,1,1
1532115911232,-3,-3,-3,-9,5,12,-4,-4
1532115911237,-4,-3,-1,-8,-8,-3,0,0
1532115911242,1,1,0,6,-1,-11,0,1
1532115911247,1,-2,-2,-3,1,1,0,7
1532115911252,-5,-4,0,0,4,4,2,-11
1532115911257,13,7,-1,-4,-6,1,-2,0
1532115911262,-18,-6,-2,1,-1,5,1,0
1532115911267,-4,-2,0,-7,0,2,0,-4
1532115911272,0,1,3,-3,-2,-3,0,1
1532115911277,3,2,1,-2,2,-6,0,9
1532115911282,3,-1,-4,-6,-1,6,-1,-9
1532115911287,-6,-2,0,1,-2,-6,0,-2
1532115911292,-3,0,-1,-10,4,-1,-2,2
1532115911297,-5,-3,-1,3,-12,-9,-7,-3
1532115911302,6,2,-1,-2,0,15,7,2
1532115911307,1,0,-3,-8,6,-2,1,0
1532115911312,-2,-1,1,4,-5,-9,-2,-1
1532115911317,-1,0,0,-4,-8,-13,1,-1
1532115911322,-2,-4,-2,-7,-13,-1,-3,4
1532115911327,6,2,-3,-1,-3,7,-1,-7
1532115911332,-3,1,0,7,6,-18,0,3
1532115911337,9,0,2,2,9,5,-1,-2
1532115911342,-14,-4,-2,7,-1,-4,-3,0
1532115911347,-6,-1,-2,-3,-8,18,3,4
1532115911352,11,1,-1,-6,3,-1,3,2
1532115911357,-9,-6,-4,3,0,-6,-4,-8
1532115911362,-3,-3,-3,2,8,13,-2,-5
1532115911367,7,5,3,-8,-6,-3,1,2
1532115911372,3,5,5,1,-1,10,3,7
1532115911377,0,-3,-1,2,5,5,1,4
1532115911382,3,1,-2,-22,-11,-19,-3,0
1532115911387,-6,-5,-2,4,-3,-1,-4,-2
1532115911392,-1,-3,-3,-7,4,13,-3,-3
1532115911397,-5,1,-2,7,-5,-6,-1,-1
1532115911402,9,5,6,-3,0,-1,3,3
1532115911407,9,3,-2,-2,2,-7,-2,-4
1532115911412,-24,-6,2,1,-8,6,0,-8
1532115911417,-4,-2,-1,-2,6,-2,3,-1
1532115911422,0,0,-4,-2,-1,-10,-6,1
1532115911427,3,1,4,5,2,-3,1,5
1532115911432,20,3,-4,3,1,3,3,8
1532115911437,-12,-4,-1,-6,-7,1,-1,-13
1532115911442,-3,-3,-1,7,-5,20,0,0
1532115911447,3,1,-1,-10,-10,-9,0,-5
1532115911452,1,-2,-4,-10,-1,-15,-7,5
1532115911457,-3,-4,-1,5,7,3,2,3
1532115911462,3,-4,-2,4,2,-15,-2,5
1532115911467,-6,-1,2,-3,-6,13,-4,-8
1532115911472,0,0,-2,-2,0,-1,-2,-2
1532115911477,5,0,1,-11,-6,-7,-2,4
1532115911482,-9,-3,-1,-8,2,6,1,-4
1532115911487,-4,-6,-4,-10,10,-1,-3,0
1532115911492,9,4,-1,-7,-6,2,-2,-3
1532115911497,-14,-1,1,-4,5,1,-1,-1
1532115911502,0,-5,0,0,-1,0,0,-1
1532115911507,-3,0,-2,-1,-4,-7,2,0
1532115911512,-1,-3,-5,-7,7,11,0,-6
1532115911517,12,6,3,6,-12,2,1,5
1532115911522,2,6,0,-3,5,-4,1,10
1532115911527,-12,-9,-8,4,1,-9,-5,-19
1532115911532,-4,-2,1,3,2,7,0,0
1532115911537,1,1,-3,-8,-2,5,-1,-2
1532115911542,-5,-4,-2,13,-9,-10,-7,-7
1532115911547,4,1,1,15,18,21,4,4
1532115911552,-5,-1,0,14,-1,-18,-1,3
1532115911557,4,-2,0,1,3,10,4,4
1532115911562,0,-3,0,-4,-2,-5,-4,-5
1532115911567,-4,-3,-1,0,-5,-11,-3,-4
1532115911572,1,0,1,-12,-10,-24,-2,-4
1532115911577,-4,0,2,4,3,36,2,2
1532115911582,3,1,-1,4,1,-7,1,-1
1532115911587,-1,0,-1,-3,0,-3,2,4
1532115911592,4,-3,-3,12,-2,-5,-4,-1
1532115911597,-6,2,0,-6,-9,-14,-2,-2
1532115911602,0,2,0,-3,2,5,4,-1
1532115911607,1,-3,0,-4,1,-1,-3,2
1532115911612,-3,0,-1,1,-8,0,0,4
1532115911617,-4,-3,-4,-7,-3,-10,-2,-4
1532115911622,-3,0,4,2,6,18,0,-4
1532115911627,3,2,0,-5,-5,-7,1,3
1532115911632,14,5,-3,-3,-4,-3,-2,2
1532115911637,-11,-4,1,-3,6,-15,-1,4
1532115911642,-6,-3,0,2,3,1,2,-1
1532115911647,4,5,3,10,-6,10,5,1
1532115911652,3,-2,-1,-8,12,-1,-9,2
1532115911657,-4,-4,-4,-3,2,-2,1,-1
1532115911662,5,2,0,-4,1,-6,-1,-2
1532115911667,-7,0,0,-5,1,-6,-2,1
1532115911672,-3,-1,1,6,-8,-3,2,-5
1532115911677,13,1,-1,9,10,17,-1,0
1532115911682,-19,-4,-2,3,0,-6,-3,-7
1532115911687,3,-3,-2,6,2,5,-1,1
1532115911692,-4,-1,3,2,-1,0,0,-6
1532115911697,1,-3,-3,1,-1,-4,1,-1
1532115911702,3,2,2,4,-5,-3,-4,0
1532115911707,-2,0,1,-4,0,0,-5,1
1532115911712,-2,1,-2,14,-1,3,3,-3
1532115911717,-3,0,-1,-5,0,1,1,0
1532115911722,4,-1,1,2,6,-5,5,10
1532115911727,6,1,-6,-6,-3,4,-1,-8
1532115911732,-16,-4,-2,4,-2,3,-5,-5
1532115911737,-1,1,4,-7,10,11,1,-2
1532115911742,4,1,-3,10,-2,-33,-7,1
1532115911747,2,-1,2,3,-7,-5,1,5
1532115911752,1,4,-2,5,9,17,2,3
1532115911757,4,1,-1,2,-13,-6,-2,-1
1532115911762,-5,-1,0,-1,13,41,6,-1
1532115911767,-2,-4,-1,8,5,-16,-6,3
1532115911772,4,-3,1,2,-11,9,0,-8
1532115911777,-11,-4,-3,-1,-7,-12,-3,1
1532115911782,-1,-3,-3,-4,0,2,-3,-4
1532115911787,0,-1,0,0,-8,-6,-1,-1
1532115911792,-3,0,1,-9,4,0,2,2
1532115911797,13,3,0,0,0,4,0,2
1532115911802,10,3,0,-7,-3,-12,-3,-1
1532115911807,-15,-10,-1,4,4,-2,-1,-4
1532115911812,-9,-4,-2,-1,0,0,-4,-5
1532115911817,-2,-2,-2,6,-2,-12,-3,-3
1532115911822,7,1,-1,-12,-2,8,0,4
1532115911827,8,5,1,-9,2,5,2,-1
1532115911832,0,-1,2,-7,-3,-5,2,4
1532115911837,-3,-1,-4,6,3,14,1,-1
1532115911842,-9,-4,-2,-11,1,-8,-4,-17
1532115911847,-14,-7,-5,9,-10,-22,-7,-6
1532115911852,1,-1,-1,-6,-12,-1,-4,-3
1532115911857,3,0,-1,-22,9,6,1,5
1532115911862,5,2,0,-9,-5,6,2,2
1532115911867,-1,0,-3,-4,6,9,4,2
1532115911872,2,3,3,-1,-1,-13,-1,-1
1532115911877,12,4,1,-15,-10,1,-2,1
1532115911882,-14,-6,1,1,-1,0,-3,2
1532115911887,-4,-3,-6,-10,-1,-27,-5,-2
1532115911892,1,-3,-2,1,-5,-6,-1,3
1532115911897,-11,-3,0,9,2,-3,-2,-8
1532115911902,10,2,-2,4,-7,0,3,1
1532115911907,2,4,2,-4,-1,6,-1,0
1532115911912,-4,-2,-1,-9,10,9,3,2
1532115911917,4,-3,-1,-5,-1,-3,-2,-2
1532115911922,-9,0,-4,-5,-3,-4,-2,-1
1532115911927,10,2,6,1,-2,9,3,0
1532115911932,-9,-2,-3,-2,1,2,-1,-1
1532115911937,-5,-5,0,-11,-1,23,-3,-5
1532115911942,5,0,-3,16,-6,-41,-3,5
1532115911947,10,5,1,-10,2,15,4,11
1532115911952,-11,-8,-4,3,-6,-5,-1,-6
1532115911957,-11,-5,0,5,6,9,2,-7
1532115911962,-5,-4,0,-9,4,9,-5,2
1532115911967,4,1,-2,-3,-5,-1,0,-10
1532115911972,3,4,1,-9,3,-4,-3,3
1532115911977,-2,-1,-4,2,-5,-12,-3,1
1532115911982,2,-1,0,2,-5,13,2,-4
1532115911987,-1,0,-1,2,-1,-10,-2,4
1532115911992,-3,2,-1,0,4,11,3,3
1532115911997,0,2,3,14,1,-12,-6,-5
1532115912002,4,3,0,9,-5,4,4,0
1532115912007,1,-1,0,0,-3,5,-2,-5
1532115912012,-6,-2,-2,-4,1,-1,2,-2
1532115912017,5,3,1,6,4,-14,-1,6
1532115912022,10,0,0,0,10,17,-2,0
1532115912027,-25,-7,0,2,-3,20,5,-5
1532115912032,-1,-3,-3,18,-11,-37,-6,2
1532115912037,1,2,-2,-6,-4,-20,-3,-10
1532115912042,2,3,-1,0,-10,1,0,-1
1532115912047,9,4,0,-26,25,53,3,1
1532115912052,0,-4,0,6,2,-9,-3,-1
1532115912057,-3,-1,1,8,-10,-3,-1,3
1532115912062,1,1,-2,-1,-2,-10,0,0
1532115912067,-5,-1,-3,4,-9,-8,-2,1
1532115912072,-6,-1,2,-3,-2,18,1,-5
1532115912077,-2,-2,-1,-4,-3,-6,-1,2
1532115912082,-4,-1,2,7,5,7,-1,-2
1532115912087,1,3,-2,2,-4,-21,-4,4
1532115912092,6,0,1,-6,3,12,4,-3
1532115912097,-8,-5,0,7,5,4,-1,-3
1532115912102,1,-2,0,-7,-2,0,0,0
1532115912107,3,0,0,4,5,-6,-2,2
1532115912112,-8,-6,-1,5,-3,-4,-4,-4
1532115912117,-3,-1,0,-7,0,-3,-3,-1
1532115912122,-7,-5,-1,-2,1,17,2,-1
1532115912127,6,-1,-2,6,-9,-18,-2,-1
1532115912132,8,5,-1,-14,9,27,4,0
1532115912137,2,-1,-5,-3,-2,-3,1,3
1532115912142,-3,1,5,-8,4,0,-3,2
1532115912147,-8,-4,-2,5,-10,1,0,-4
1532115912152,3,3,0,-4,-3,-6,-2,-4
1532115912157,-3,-2,-1,9,-1,3,-2,-1
1532115912162,9,4,1,-8,-7,-9,1,11
1532115912167,0,-1,-2,-2,1,-13,-4,-16
1532115912172,-14,-7,-3,-6,-1,23,1,0
1532115912177,-1,-1,-1,-2,5,-5,3,-2
1532115912182,-2,-1,-1,-1,-8,-4,0,-3
1532115912187,14,9,3,-4,-1,-6,-2,9
1532115912192,-12,-8,-3,2,-4,-16,-3,-4
1532115912197,-3,-3,-2,-7,-8,2,-3,-3
1532115912202,-6,-5,-4,-3,2,-5,-2,-1
1532115912207,0,-3,-2,6,-5,-5,1,2
1532115912212,15,5,1,5,13,20,3,3
1532115912217,-3,1,1,3,7,2,1,4
1532115912222,1,-4,-3,5,-4,4,0,-5
1532115912227,-9,-1,1,-1,-7,-13,-3,-4
1532115912232,6,2,0,-4,-5,-15,-1,1
1532115912237,-1,-2,-2,-6,5,-3,2,6
1532115912242,-5,-2,-2,-4,1,-4,-10,-11
1532115912247,-1,-3,0,-1,-1,18,3,0
1532115912252,-2,-4,-3,-3,-3,-9,-3,-2
1532115912257,4,3,2,4,-6,-14,-5,1
1532115912262,0,1,-1,-3,0,-12,0,2
1532115912267,-3,-4,-4,-4,3,7,1,3
1532115912272,-3,2,4,-6,2,13,-1,-2
1532115912277,13,3,-1,-16,-12,-11,-2,-1
1532115912282,-17,-3,-1,11,0,-1,-1,-3
1532115912287,-2,-4,-4,-4,7,2,-4,-3
1532115912292,10,5,0,4,-12,-7,2,3
1532115912297,2,-2,-3,-8,-2,6,2,1
1532115912302,-1,-1,2,5,-6,8,-2,-3
1532115912307,1,1,-1,-12,14,5,0,5
1532115912312,-10,-7,-3,0,-6,-5,0,-15
1532115912317,-1,-1,-1,-2,-2,3,-2,0
1532115912322,-4,-1,-5,-2,0,-14,-5,-6
1532115912327,-2,0,5,3,4,26,2,-1
1532115912332,13,5,-1,-1,-20,-37,1,6
1532115912337,-6,-1,-1,7,1,0,1,-1
1532115912342,1,1,0,4,5,9,2,-1
1532115912347,-4,-1,-2,6,-2,-16,-3,-1
1532115912352,9,2,-2,-3,4,3,-7,1
1532115912357,-5,-4,-2,3,-3,2,0,-2
1532115912362,0,-1,2,-8,1,-2,1,-1
1532115912367,-1,1,-2,-5,-6,4,0,-2
1532115912372,2,1,-1,-3,2,-3,1,5
1532115912377,-8,-6,-2,-4,-4,20,1,-3
1532115912382,-4,-2,-4,-5,8,0,0,-2
1532115912387,-1,2,4,11,-9,-14,0,-1
1532115912392,1,-3,-1,3,-2,-5,-4,-3
1532115912397,-1,-2,-1,3,15,25,0,1
1532115912402,2,1,-1,10,-10,-12,-1,-2
1532115912407,-10,-8,-3,0,-3,7,0,1
1532115912412,-5,-2,-2,-4,1,-11,-3,0
1532115912417,2,1,-1,8,-3,-1,-3,-1
1532115912422,7,2,1,-7,3,6,1,2
1532115912427,0,-1,-2,12,-12,-25,-4,0
1532115912432,-3,-1,-3,-5,3,16,1,2
1532115912437,-2,1,1,-5,-1,8,3,-3
1532115912442,-6,-2,0,-2,2,-5,-1,-3
1532115912447,-1,-4,-1,0,3,-1,1,8
1532115912452,4,0,2,-4,8,-4,-5,-22
1532115912457,0,5,2,-1,-4,13,1,0
1532115912462,-1,-3,-4,0,-16,-26,-5,2
1532115912467,-3,1,1,3,11,8,0,-2
1532115912472,2,2,0,9,-3,1,1,5
1532115912477,3,2,0,4,-7,-27,-4,-1
1532115912482,-2,3,3,1,1,11,1,2
1532115912487,-2,-2,-4,-6,1,-8,-4,-1
1532115912492,2,3,2,-1,-7,3,1,1
1532115912497,-6,-6,-2,-12,4,-2,-1,-5
1532115912502,-11,-4,-3,11,-7,-9,-4,0
1532115912507,7,4,1,-13,-2,9,2,-2
1532115912512,0,2,-1,-2,-1,-6,-2,3
1532115912517,-2,-2,0,-1,-2,-15,-5,-1
1532115912522,-2,-4,-1,8,-4,10,4,1
1532115912527,-2,0,-4,-14,10,4,-1,-4
1532115912532,5,4,1,4,-9,-11,0,-1
1532115912537,-5,-2,0,-2,8,29,-2,0
1532115912542,-2,-1,-3,-2,1,-9,-2,-2
1532115912547,5,0,1,5,-4,7,0,0
1532115912552,-7,-4,-2,-6,-2,2,2,-1
1532115912557,2,3,-1,-6,2,-3,0,-1
1532115912562,-9,-5,0,-6,-5,-2,-6,-1
1532115912567,-1,-1,1,-9,-5,3,-1,-1
1532115912572,-1,-5,-1,-2,7,-10,-3,-2
1532115912577,7,1,-1,6,-9,-14,-2,-1
1532115912582,-1,1,0,-3,-3,4,2,-2
1532115912587,-7,-3,-3,-2,-7,-10,-3,2
1532115912592,2,1,0,-5,1,17,3,0
1532115912597,2,0,0,-4,-1,-5,0,-1
1532115912602,3,0,-2,-9,0,-2,-4,-1
1532115912607,2,-2,0,8,2,-9,-1,1
1532115912612,4,2,-2,2,9,10,-2,-2
1532115912617,3,4,2,4,-11,1,1,2
1532115912622,-6,-5,-2,5,18,-2,2,-1
1532115912627,0,1,2,16,2,-4,-8,-2
1532115912632,6,3,3,-5,-6,4,4,3
1532115912637,-6,-3,-5,-9,0,-5,-3,-5
1532115912642,-12,-5,-2,-1,-1,8,-5,-7
1532115912647,4,2,0,-2,-6,-3,3,-1
1532115912652,-1,-3,0,-2,2,9,0,3
1532115912657,-3,-2,-3,-14,7,13,0,-4
1532115912662,10,2,0,-10,-3,3,2,0
1532115912667,-14,-5,1,4,4,-9,0,2
1532115912672,2,0,-1,-12,-9,-2,-2,-5
1532115912677,3,1,1,-3,-2,-14,-2,1
1532115912682,1,-1,-1,-2,5,1,-3,-1
1532115912687,9,3,-1,6,-4,0,4,0
1532115912692,-6,-5,-4,-2,2,-7,-4,1
1532115912697,-15,-6,-2,6,-2,5,0,-5
1532115912702,5,4,1,6,-6,-8,-5,-2
1532115912707,-1,-2,-2,4,-5,9,-2,-3
1532115912712,1,2,0,-4,1,-2,-3,-1
1532115912717,4,-3,-4,-6,0,-2,0,-2
1532115912722,4,4,5,1,-11,1,3,6
1532115912727,1,-1,1,-21,4,15,4,0
1532115912732,-14,-5,-2,15,-10,-45,-9,-5
1532115912737,7,0,1,12,0,13,3,1
1532115912742,-11,-5,-6,0,-1,5,1,-1
1532115912747,5,1,0,-2,1,-1,0,1
1532115912752,7,1,1,0,4,2,-2,0
1532115912757,-3,0,1,-5,0,-8,-1,-2
1532115912762,1,0,-5,-6,-3,-7,-4,-4
1532115912767,-12,-2,2,-11,2,2,3,-3
1532115912772,-4,0,-2,-3,-2,7,-2,-3
1532115912777,0,0,1,1,-2,-1,1,-1
1532115912782,7,0,2,3,4,-13,-3,1
1532115912787,17,3,-1,2,-2,-10,-3,1
1532115912792,-11,-4,-2,-7,-2,-5,-3,0
1532115912797,-5,-7,-2,5,2,4,-2,-1
1532115912802,-4,0,1,-10,3,7,2,-2
1532115912807,-2,0,-1,4,-15,-20,-8,-1
1532115912812,5,2,1,-2,-1,7,3,0
1532115912817,7,3,-1,-17,-3,5,4,1
1532115912822,0,-2,-1,-4,-7,15,1,5
1532115912827,-7,-3,-3,-13,14,-8,-11,0
1532115912832,0,-2,0,-3,-8,-4,1,-19
1532115912837,-2,2,2,5,1,-9,-4,0
1532115912842,-4,0,-4,-11,-15,-11,0,-2
1532115912847,-5,-4,2,14,9,15,3,0
1532115912852,-1,0,-1,5,6,22,2,7
1532115912857,-3,-3,-2,11,-6,-16,-6,-6
1532115912862,3,2,0,5,2,-10,-3,-2
1532115912867,2,1,-2,-4,1,16,4,-2
1532115912872,-9,-4,-2,2,-2,-17,-3,2
1532115912877,2,0,0,-1,1,3,1,1
1532115912882,1,-1,-3,-6,-1,4,1,3
1532115912887,-5,-2,-1,-3,-11,-5,-1,-2
1532115912892,-1,-3,-5,1,8,3,3,1
1532115912897,1,4,6,-2,-2,3,-3,0
1532115912902,-2,-1,-2,1,1,-5,-3,-3
1532115912907,3,2,1,-1,-1,0,2,0
1532115912912,2,0,1,-5,3,-4,-2,3
1532115912917,-3,-2,0,6,-1,-7,-4,2
1532115912922,9,1,1,-6,-1,0,5,2
1532115912927,0,3,-3,-1,-9,-15,-3,1
1532115912932,-8,-2,3,-6,2,11,-1,-2
1532115912937,-8,-8,-6,-8,0,-2,-1,-2
1532115912942,3,1,0,-8,41,1,-2,1
1532115912947,-7,-4,-5,-5,11,-3,0,-5
1532115912952,12,5,1,-3,-4,0,1,1
1532115912957,5,4,2,-10,-11,-3,-1,0
1532115912962,0,-6,-5,10,-16,14,1,1
1532115912967,-9,-5,0,-1,0,5,3,-4
1532115912972,2,-3,-1,8,-7,1,-5,2
1532115912977,-3,-1,-1,1,-12,-20,-4,6
1532115912982,-2,0,-2,-2,-8,0,-8,1
1532115912987,10,1,1,-3,-3,2,-1,-6
1532115912992,-5,-3,-3,-5,-6,-2,2,-4
1532115912997,4,4,2,11,5,20,5,-1
1532115913002,11,3,-1,-10,-5,-5,-1,6
1532115913007,-15,-4,0,-1,-5,1,-1,2
1532115913012,-8,-9,-3,0,-2,-1,-1,-5
1532115913017,1,-1,-3,2,0,-3,-1,-1
1532115913022,3,7,5,-6,-4,-1,2,-1
1532115913027,5,-3,-1,-4,-3,-1,-1,3
1532115913032,-5,2,0,0,-3,-4,-1,-5
1532115913037,4,1,-2,-6,8,9,1,-1
1532115913042,-10,-2,-2,11,-14,-19,-4,-2
1532115913047,-7,-7,-5,1,0,-5,-6,-5
1532115913052,-3,0,-1,-2,-4,5,1,3
1532115913057,-1,-2,1,4,14,-4,-1,-2
1532115913062,3,1,-2,7,-3,9,1,-1
1532115913067,4,3,1,9,-5,-25,-5,0
1532115913072,-6,-3,-1,-9,-3,13,0,-4
1532115913077,3,-2,-2,-8,-2,4,2,-5
1532115913082,-1,-2,0,1,11,-4,6,4
1532115913087,13,2,1,11,2,-1,1,2
1532115913092,-5,0,2,-6,4,7,-2,-2
1532115913097,-11,-8,-5,7,-14,-13,-4,-3
1532115913102,-3,-4,-3,-10,-6,-1,-1,-3
1532115913107,-4,0,0,-1,-3,-8,-3,-1
1532115913112,16,5,3,-7,1,-2,3,4
1532115913117,6,3,2,-12,3,10,3,2
1532115913122,-15,-6,-1,4,1,-9,-7,-3
1532115913127,4,-1,-2,-6,-5,-5,0,2
1532115913132,-8,-4,-3,1,0,-7,-2,-5
1532115913137,-4,-1,-1,-4,0,2,-2,-1
1532115913142,8,3,0,7,0,-12,1,-3
1532115913147,6,2,-1,-2,4,32,-2,3
1532115913152,-1,-1,-3,-2,1,-9,1,1
1532115913157,-3,-4,-2,4,0,11,0,-2
1532115913162,4,3,2,-1,6,5,4,0
1532115913167,-5,-2,-3,-5,-9,-23,-4,0
1532115913172,-7,-7,-4,18,-8,-6,-4,1
1532115913177,4,2,1,-6,1,-7,-1,3
1532115913182,-5,-2,0,-1,0,22,-1,-3
1532115913187,12,5,0,1,-3,-10,0,1
1532115913192,-7,-3,-2,1,2,-5,-1,1
1532115913197,-12,-5,-2,0,-6,-7,-4,-5
1532115913202,2,-2,1,-8,-6,6,1,11
1532115913207,-3,-3,-1,-4,2,5,-2,-11
1532115913212,10,7,0,-1,6,8,2,-1
1532115913217,-3,0,-1,3,-1,-1,-1,-3
1532115913222,-6,-2,-2,-1,3,-6,-4,0
1532115913227,0,3,1,8,1,10,4,2
1532115913232,-2,-4,1,-6,-3,-8,0,0
1532115913237,5,0,-3,-2,0,7,-1,-2
1532115913242,-8,-3,0,-9,-6,-4,-4,-7
1532115913247,-5,-3,1,2,9,-7,0,0
1532115913252,6,1,-3,-2,6,13,-1,1
1532115913257,-2,-3,-1,2,-9,-3,0,1
1532115913262,1,-2,-1,-9,-1,2,2,-4
1532115913267,2,3,-1,6,-9,-10,-4,1
1532115913272,0,-1,0,-8,15,5,0,1
1532115913277,-12,-4,-3,-5,1,-7,-2,-7
1532115913282,-3,-5,-4,-10,1,5,-2,-6
1532115913287,-2,-3,-2,-9,8,6,1,-3
1532115913292,5,3,1,-5,-4,-4,1,3
1532115913297,5,2,0,-7,-6,4,-2,1
1532115913302,-4,2,-1,9,-9,-17,0,-5
1532115913307,1,0,-1,-4,3,4,0,4
1532115913312,-1,-4,-3,1,-10,-14,-5,-4
1532115913317,-3,-2,0,-3,5,0,5,-1
1532115913322,-3,0,0,-4,1,3,-5,2
1532115913327,5,4,3,-21,-2,21,4,-14
1532115913332,-4,-2,-1,10,-4,-22,-4,0
1532115913337,3,-1,-2,5,1,-11,-5,1
1532115913342,5,1,-3,-3,-7,-14,-2,2
1532115913347,-11,-9,-1,-3,2,12,-1,-1
1532115913352,-3,0,0,-10,-1,9,0,-11
1532115913357,2,2,1,3,1,-3,-1,0
1532115913362,-1,-1,-1,-3,-2,6,1,1
1532115913367,0,-1,-2,7,0,8,3,4
1532115913372,0,0,-2,-1,1,-10,3,-2
1532115913377,-1,-3,-1,4,0,-3,-2,9
1532115913382,4,-2,0,9,3,8,-1,-5
1532115913387,-3,1,-3,-5,-7,-8,-5,-3
1532115913392,0,0,1,1,-1,-6,0,0
1532115913397,4,2,1,5,7,24,2,0
1532115913402,-1,1,2,5,-5,-2,-2,0
1532115913407,-6,-4,-7,7,8,-24,2,-1
1532115913412,16,8,6,9,6,10,2,7
1532115913417,-5,0,1,-4,2,10,4,6
1532115913422,4,1,1,9,-1,-14,-5,-23
1532115913427,-18,-6,-1,1,-4,0,-1,-1
1532115913432,4,-3,-4,-3,-4,-4,-4,-1
1532115913437,5,2,-2,-1,-2,-1,0,2
1532115913442,-9,-2,0,2,6,8,0,1
1532115913447,9,3,1,6,-13,-14,-1,4
1532115913452,-4,-5,-3,-1,-3,5,-1,1
1532115913457,-2,-2,-1,-2,-2,-7,-2,-4
1532115913462,3,3,-2,-8,-9,2,2,3
1532115913467,0,2,3,13,5,2,-2,-1
1532115913472,-4,-1,-1,2,2,16,0,3
1532115913477,0,-2,-2,9,-2,-7,-3,-3
1532115913482,3,-1,-2,-1,7,4,1,1
1532115913487,1,-2,-3,-3,-7,6,1,2
1532115913492,-4,0,0,11,-6,-17,-8,-6
1532115913497,4,1,-3,-1,3,-5,-2,-5
1532115913502,-4,0,3,6,-2,-1,2,9
1532115913507,4,-6,-4,-15,6,12,-2,5
1532115913512,-11,-5,1,2,-9,4,-2,-11
1532115913517,-8,-1,-1,-2,-1,-9,-2,-6
1532115913522,7,0,-5,1,-1,-8,1,3
1532115913527,1,0,2,-4,-4,5,2,5
1532115913532,1,3,-2,-3,5,3,-1,1
1532115913537,1,2,0,0,-13,-4,2,-3
1532115913542,0,-1,2,-4,2,-8,-1,-1
1532115913547,0,1,-3,-7,5,5,-6,-2
1532115913552,-2,-2,1,-13,-4,16,4,1
1532115913557,5,1,2,-7,0,-10,0,-1
1532115913562,-6,0,-1,2,4,2,-4,0
1532115913567,-5,-2,-2,8,-9,-15,-1,-10
1532115913572,-1,-1,-2,-4,1,11,0,-1
1532115913577,1,-4,-3,-5,1,-9,-2,6
1532115913582,0,-2,0,11,-1,1,-4,-6
1532115913587,-1,3,0,-5,-3,-3,0,0
1532115913592,3,1,-1,5,1,11,3,7
1532115913597,2,-2,2,3,4,-2,0,-11
1532115913602,-6,0,-3,9,-7,-6,-7,-8
1532115913607,-15,-10,-3,10,14,22,0,-6
1532115913612,5,1,-2,10,5,-20,-1,4
1532115913617,-2,-2,-2,-6,-4,-2,-2,1
1532115913622,6,0,0,-9,2,7,2,6
1532115913627,5,7,2,-2,-1,-6,1,1
1532115913632,2,-1,-4,-14,-4,15,-2,-7
1532115913637,-10,-5,-3,7,-4,-32,-5,1
1532115913642,0,0,1,5,1,18,5,-1
1532115913647,3,0,-3,-4,-6,8,0,-10
1532115913652,-2,-4,-1,6,-2,-20,-3,2
1532115913657,-2,3,4,0,3,8,-2,-2
1532115913662,-4,-1,-3,-7,-1,-1,-2,7
1532115913667,2,6,0,-10,-1,-8,3,7
1532115913672,0,-2,2,-9,-1,-3,-1,-12
1532115913677,-6,-2,-1,-8,-2,11,-2,-3
1532115913682,-4,-7,0,-3,1,-2,0,-2
1532115913687,6,2,3,-1,-5,3,0,4
1532115913692,4,2,-4,0,0,-9,-3,4
1532115913697,20,8,0,-1,4,12,-1,2
1532115913702,-22,-7,-2,-3,-8,-7,-4,-4
1532115913707,-3,-8,-4,0,-3,-10,-5,-7
1532115913712,-3,1,2,-1,2,1,3,4
1532115913717,4,1,0,-4,1,9,-1,-1
1532115913722,6,-2,-3,0,2,-5,4,-2
1532115913727,0,-1,3,6,12,-1,-2,2
1532115913732,-2,-3,-3,-4,2,-1,-3,2
1532115913737,-7,-1,0,4,2,3,-4,-1
1532115913742,2,0,-2,-7,-12,-7,-1,-4
1532115913747,0,1,0,6,-8,-10,-1,3
1532115913752,1,0,3,-10,-4,20,3,0
1532115913757,-5,-1,-2,2,1,-22,-3,2
1532115913762,-5,-3,-3,-5,4,4,-3,-1
1532115913767,7,2,0,-3,-7,-31,1,6
1532115913772,-9,-3,-1,7,-7,12,-9,-3
1532115913777,-5,-5,-4,-9,4,21,6,-7
1532115913782,0,-1,-1,0,-3,-14,-3,0
1532115913787,2,0,0,4,-3,7,0,-1
1532115913792,4,1,0,-2,0,-8,-1,3
1532115913797,-2,-2,0,0,4,17,1,3
1532115913802,3,0,2,8,8,-7,2,-5
1532115913807,-3,-2,-2,-6,1,8,-2,1
1532115913812,-1,0,-1,-6,-12,-13,0,-4
1532115913817,-4,0,-1,3,-4,-5,-4,0
1532115913822,-1,0,-1,-3,-1,-1,-5,7
1532115913827,-4,0,-2,-7,-3,-5,-3,-19
1532115913832,13,2,-2,-2,5,4,2,0
1532115913837,-12,-5,-2,-6,2,5,2,-4
1532115913842,-4,0,-3,-10,-4,15,3,2
1532115913847,-4,-3,0,11,4,-27,-4,1
1532115913852,6,3,1,1,2,2,0,-2
1532115913857,3,0,0,7,-13,-18,-1,3
1532115913862,0,1,0,12,12,27,2,0
1532115913867,-3,-5,-5,6,13,37,0,0
1532115913872,-3,1,-1,1,4,-12,-3,0
1532115913877,9,4,0,2,-17,-13,7,1
1532115913882,7,3,1,1,-3,-2,2,1
1532115913887,-3,-3,0,-4,4,4,-2,0
1532115913892,-21,-10,-4,-4,2,2,-5,1
1532115913897,-6,-3,-3,-5,-9,0,-4,-13
1532115913902,0,-1,0,1,-3,-8,-2,-4
1532115913907,6,5,2,-4,-8,-1,3,1
1532115913912,6,4,-1,-9,1,-2,4,1
1532115913917,2,-2,-3,0,0,-10,-6,5
1532115913922,-4,-1,-1,0,-2,-3,-3,0
1532115913927,-2,-1,1,-5,-4,-4,-3,-2
1532115913932,-4,-4,0,6,-1,5,3,1
1532115913937,-2,0,-1,12,0,-1,-4,-1
1532115913942,6,2,-1,-4,14,13,-1,0
1532115913947,-7,-1,-2,-1,-9,-9,-3,-2
1532115913952,-3,-5,-1,-3,-4,6,1,-7
1532115913957,8,7,2,-9,0,-7,-2,6
1532115913962,-10,-10,-2,-3,2,5,-3,-4
1532115913967,-3,-1,0,12,-1,-16,-4,1
1532115913972,-3,-1,-4,6,1,2,-1,-5
1532115913977,6,4,2,-9,-5,7,1,4
1532115913982,-1,-2,-3,3,-3,-13,0,0
1532115913987,-4,-4,-4,1,-8,9,-5,-14
1532115913992,3,0,3,-7,-4,-7,-1,0
1532115913997,5,0,-2,6,12,9,0,-3
1532115914002,-9,-4,-3,-10,3,8,0,5
1532115914007,-7,-5,-2,1,-1,0,-1,0
1532115914012,9,5,1,-3,-4,-5,-3,3
1532115914017,-11,-7,-3,0,5,7,-1,0
1532115914022,-4,-1,-2,1,-12,2,-2,-11
1532115914027,4,2,1,-7,3,-8,2,3
1532115914032,-3,0,-2,-8,-3,-13,-1,0
1532115914037,12,3,2,-5,-8,0,3,6
1532115914042,-1,-1,-1,-10,1,3,-2,-3
1532115914047,1,0,1,-4,-5,-11,-1,0
1532115914052,-6,-4,-1,-10,0,6,-4,-1
1532115914057,8,1,1,5,-1,-20,-3,1
1532115914062,-2,2,0,-6,-9,-11,1,6
1532115914067,-6,-3,-2,-10,0,12,-4,-14
1532115914072,-10,-7,-1,4,9,-4,-1,0
1532115914077,-4,-2,-1,10,5,12,0,-2
1532115914082,4,-1,-1,0,-4,-17,-2,3
1532115914087,5,1,-3,3,2,0,-1,0
1532115914092,-3,-3,-2,2,-7,3,0,-1
1532115914097,-4,-4,-2,-15,11,0,-2,-2
1532115914102,10,5,3,6,-9,-6,1,0
1532115914107,0,0,0,-5,-10,-9,1,6
1532115914112,1,-3,-2,-1,-4,-4,0,-6
1532115914117,-11,-2,-2,4,0,13,0,-8
1532115914122,6,4,2,-5,3,-2,-4,-1
1532115914127,-1,2,2,4,2,-6,-1,0
1532115914132,17,8,2,2,-1,8,5,3
1532115914137,-17,-4,0,-6,-5,-6,1,0
1532115914142,-1,-2,-2,-4,7,13,-4,-7
1532115914147,-2,-1,0,1,-12,-16,-3,6
1532115914152,4,-2,-3,7,1,-8,-2,-2
1532115914157,-2,2,-1,-1,-6,-9,-3,-2
1532115914162,-2,1,-1,6,4,8,-2,-6
1532115914167,5,0,1,-17,11,17,6,4
1532115914172,-3,0,-3,16,-9,-17,-6,1
1532115914177,4,-1,-3,-7,-3,0,-1,4
1532115914182,-8,-1,1,3,0,1,-2,-13
1532115914187,12,1,-2,5,7,7,3,1
1532115914192,-4,2,5,1,4,1,-4,-3
1532115914197,-6,-4,-2,-4,1,-3,0,-1
1532115914202,-1,-3,-4,0,-10,12,3,1
1532115914207,0,0,-1,-5,7,5,-3,0
1532115914212,1,0,0,-4,-4,-24,1,0
1532115914217,-3,3,-1,14,9,24,2,-4
1532115914222,-10,-8,-4,0,-7,-22,-4,-3
1532115914227,0,1,0,0,-4,10,0,-1
1532115914232,-3,-2,1,2,-2,5,-5,1
1532115914237,5,2,3,-7,3,1,0,2
1532115914242,0,0,-4,1,-11,-21,-5,1
1532115914247,3,-1,0,19,-4,-8,1,3
1532115914252,-10,-3,-3,-4,0,2,0,-4
1532115914257,-1,-4,-1,-3,-4,-5,-2,-5
1532115914262,8,5,1,-4,17,19,0,1
1532115914267,-11,-6,-1,-6,-5,-12,2,-2
1532115914272,-2,3,2,3,-4,-4,-2,-2
1532115914277,8,0,-2,4,5,9,1,-1
1532115914282,-3,-2,-1,-3,0,-8,-1,2
1532115914287,-13,-4,-3,3,1,3,-5,-6
1532115914292,-2,-5,-2,-9,-3,2,2,-3
1532115914297,-1,1,4,2,-1,-5,-2,0
1532115914302,12,3,1,-4,1,-6,1,2
1532115914307,9,4,-1,-8,0,10,0,0
1532115914312,-12,-6,-2,-1,-8,-6,-2,-2
1532115914317,-3,-4,-4,4,1,-13,-2,-5
1532115914322,-2,1,3,-2,4,-14,-2,3
1532115914327,2,2,1,-3,1,13,3,-1
1532115914332,-2,0,-1,3,-1,0,-3,10
1532115914337,2,3,-1,0,-4,-7,-3,1
1532115914342,1,-4,-2,1,4,5,1,-11
1532115914347,-11,-7,-4,2,-2,-2,-4,-3
1532115914352,-3,0,-1,3,6,13,2,-4
1532115914357,-1,-3,0,-3,-8,-4,1,7
1532115914362,7,4,1,2,-5,-12,-2,3
1532115914367,-6,-3,-1,-2,15,20,-3,-5
1532115914372,-3,0,2,20,0,-1,4,-2
1532115914377,-1,-1,-4,-6,2,-4,-1,-6
1532115914382,-2,-4,0,9,2,3,-2,2
1532115914387,11,5,0,1,-12,-1,-1,4
1532115914392,-2,-1,-1,-9,0,-6,-4,-2
1532115914397,-2,-4,-4,-2,-1,6,0,-4
1532115914402,-2,-1,0,-7,-5,-1,5,0
1532115914407,0,0,2,-11,13,7,1,2
1532115914412,-6,-3,-5,-10,-2,12,-1,-5
1532115914417,-1,1,0,1,-2,-7,-6,-4
1532115914422,-2,-2,-2,-3,0,-3,2,2
1532115914427,12,6,1,2,-3,-7,-1,3
1532115914432,9,3,0,-8,-2,6,5,3
1532115914437,-15,-7,-4,-9,-5,-5,-1,4
1532115914442,-10,-4,-1,6,-1,-4,-5,-19
1532115914447,4,-2,2,-8,4,6,0,1
1532115914452,4,3,2,-7,5,-10,-1,1
1532115914457,6,1,0,17,-7,6,-2,5
1532115914462,-10,-5,-3,0,1,10,1,1
1532115914467,-4,-2,-3,-1,-2,6,3,-1
1532115914472,8,0,-1,9,4,-13,-2,-1
1532115914477,-7,3,2,-11,-1,10,-2,-6
1532115914482,8,2,0,-4,-7,-17,-5,3
1532115914487,-8,-4,-1,8,-2,10,1,-4
1532115914492,-2,-2,-2,-11,-1,3,-4,1
1532115914497,-2,-3,-1,-3,1,1,6,-2
1532115914502,2,0,1,-6,2,14,2,0
1532115914507,-2,0,-1,-2,-6,-15,-1,2
1532115914512,3,-1,-1,6,4,2,-4,-3
1532115914517,-2,-1,-1,-6,2,5,-1,-4
1532115914522,-3,4,1,-5,1,-4,-3,3
1532115914527,9,-1,-2,5,-5,-5,3,3
1532115914532,-10,-3,1,-6,1,8,1,-1
1532115914537,5,-3,-8,-8,1,-15,-4,-2
1532115914542,-12,-2,6,1,-18,21,7,-4
1532115914547,-2,-3,-1,-11,4,-16,-4,1
1532115914552,5,4,3,1,1,-1,-1,-1
1532115914557,-5,-7,-3,-1,-4,-18,-1,-4
1532115914562,3,3,-2,-2,0,13,1,4
1532115914567,-5,-4,-2,-2,-3,-18,-4,-4
1532115914572,-2,-4,-3,8,0,7,0,-1
1532115914577,7,7,5,2,4,-2,1,1
1532115914582,-7,-4,-6,-3,-1,-1,-5,-2
1532115914587,-1,0,0,2,-3,1,-2,-2
1532115914592,3,-2,-3,-3,7,4,-2,-3
1532115914597,0,-1,0,-4,0,-3,0,2
1532115914602,2,-3,-2,12,4,-6,-2,1
1532115914607,8,4,-1,0,-7,0,-1,-1
1532115914612,-13,-4,-1,-4,-8,4,3,-1
1532115914617,-5,-2,0,6,0,2,0,-2
1532115914622,12,3,1,-6,0,-19,-4,2
1532115914627,-16,-7,-3,5,2,-8,-2,-2
1532115914632,7,2,0,-3,-2,10,-1,-1
1532115914637,4,5,5,-6,4,8,4,2
1532115914642,-12,-10,-6,-5,-6,-10,-5,-5
1532115914647,2,1,0,5,-7,1,-2,-2
1532115914652,-10,-4,-1,14,7,-8,-4,-3
1532115914657,9,6,1,1,9,34,3,3
1532115914662,5,7,3,12,4,-11,2,6
1532115914667,-4,-3,-3,6,0,6,-3,-6
1532115914672,-6,-5,-4,-4,-5,-5,-4,-5
1532115914677,1,-2,-2,-8,1,-9,-3,-2
1532115914682,2,0,0,5,-9,3,-2,11
1532115914687,-4,-1,-3,-14,-2,-9,2,-1
1532115914692,8,2,-2,2,5,-5,-4,-2
1532115914697,2,0,-2,6,-10,-3,1,1
1532115914702,-3,0,0,-6,3,17,3,-4
1532115914707,-8,-8,-3,-3,-3,-22,-5,3
1532115914712,0,-2,0,0,3,0,0,0
1532115914717,-6,-1,0,-7,-4,1,-4,-1
1532115914722,-3,-3,-2,-2,1,-4,4,0
1532115914727,9,6,4,0,0,10,2,0
1532115914732,7,1,-1,-6,-3,0,3,5
1532115914737,-6,-5,-2,4,1,-5,-1,-1
1532115914742,1,-2,-3,-10,0,-6,-8,-3
1532115914747,-2,0,-1,-4,2,7,1,-7
1532115914752,-4,-1,0,-8,-6,11,1,2
1532115914757,3,2,-2,3,1,-28,-6,-14
1532115914762,-2,-2,-1,-14,2,10,3,0
1532115914767,3,3,0,0,-8,-15,-6,0
1532115914772,-3,-5,-11,-17,-3,-10,0,0
1532115914777,-13,0,11,5,-4,9,1,1
1532115914782,2,2,-3,-7,2,7,1,6
1532115914787,4,-1,-1,2,3,8,1,-1
1532115914792,-2,1,4,6,-7,-1,-2,-4
1532115914797,1,-4,1,3,-3,-1,-4,3
1532115914802,-3,-4,-3,-1,1,-8,-5,-14
1532115914807,0,0,0,-11,0,8,4,9
1532115914812,12,6,-1,-3,-1,-1,2,1
1532115914817,-14,-6,-7,-4,-4,1,1,-3
1532115914822,0,-6,2,4,-1,-3,-3,0
1532115914827,-7,-3,2,-9,1,0,-3,-5
1532115914832,-3,-2,-2,-2,-2,-4,-2,-1
1532115914837,1,1,-5,-8,-1,0,-2,-4
1532115914842,8,2,2,-1,-4,-6,3,12
1532115914847,-2,-2,-3,-1,6,12,-1,-13
1532115914852,1,-2,-2,-4,2,-12,-1,-5
1532115914857,-1,-1,-1,1,5,3,-4,16
1532115914862,-10,-2,-4,-5,-14,9,1,-9
1532115914867,-1,2,4,6,-1,-16,-6,0
1532115914872,0,3,9,3,0,9,2,0
1532115914877,3,-4,-17,-9,1,6,3,-6
1532115914882,9,3,9,9,-4,-25,-7,8
1532115914887,-10,-2,-3,4,-3,13,0,2
1532115914892,-7,-12,-23,-14,-6,-5,-1,-7
1532115914897,4,2,11,-1,1,16,4,9
1532115914902,-4,4,1,1,8,23,-1,-19
1532115914907,1,-3,-9,1,-7,-21,0,-1
1532115914912,-2,1,11,7,-1,-7,-7,-1
1532115914917,-5,-13,-12,6,-5,-4,-2,-4
1532115914922,-1,5,2,-4,0,8,8,8
1532115914927,-5,-3,3,5,9,-8,-7,-14
1532115914932,1,-4,-9,-4,-2,0,-1,1
1532115914937,1,2,2,-1,-13,6,-1,-3
1532115914942,2,0,-36,8,3,-43,0,2
1532115914947,5,10,71,17,6,33,6,7
1532115914952,0,1,-3,7,5,-8,1,4
1532115914957,8,5,18,6,-2,-6,0,0
1532115914962,-18,-13,-23,-4,7,34,-1,-8
1532115914967,-1,-3,-20,-18,-10,-18,2,1
1532115914972,-4,0,-21,3,-2,-1,0,-3
1532115914977,-2,-10,15,8,2,-12,-2,-4
1532115914982,0,-6,-4,0,-5,-2,-1,3
1532115914987,8,13,-2,-29,2,0,0,5
1532115914992,-7,7,52,16,0,8,0,-10
1532115914997,-5,-18,-85,-10,-20,-14,-1,-11
1532115915002,2,10,76,10,26,-4,-8,-5
1532115915007,-2,-14,-25,31,-1,7,2,-2
1532115915012,15,18,21,6,14,0,4,10
1532115915017,3,1,-39,13,11,3,-3,2
1532115915022,-19,-23,-16,-3,-13,-7,-3,-9
1532115915027,9,10,1,-17,-9,-35,1,30
1532115915032,-7,-8,-15,-1,-5,5,1,-10
1532115915037,-7,-12,-21,-6,2,17,-8,-29
1532115915042,9,6,25,11,-2,-11,3,6
1532115915047,9,13,20,19,3,12,0,-6
1532115915052,-9,-18,-46,8,8,-11,-9,8
1532115915057,7,24,62,-29,-17,-26,0,6
1532115915062,1,3,36,6,-5,47,1,20
1532115915067,-9,-18,-46,9,11,19,-1,-29
1532115915072,15,25,63,31,7,3,3,34
1532115915077,-3,-2,-23,-11,14,22,-11,-55
1532115915082,8,-2,-25,-31,-16,-33,-5,1
1532115915087,-1,-1,11,-17,-17,22,6,4
1532115915092,-18,-45,-68,5,14,23,-7,0
1532115915097,-10,34,51,15,6,-22,5,13
1532115915102,23,12,-7,9,-2,-32,-5,9
1532115915107,-10,-4,-4,-11,-5,-11,-2,8
1532115915112,-1,-2,-21,-2,2,5,2,-17
1532115915117,4,-18,-13,-2,-6,18,7,19
1532115915122,-10,-37,-68,12,3,9,4,-9
1532115915127,4,43,63,13,6,-18,-6,-5
1532115915132,10,45,85,-32,-9,10,8,0
1532115915137,-2,-5,-4,-3,8,-7,-1,15
1532115915142,-10,-14,-88,16,-5,27,-3,-26
1532115915147,-3,-20,16,18,6,-11,-12,-5
1532115915152,1,22,-12,-45,-6,-7,-5,-12
1532115915157,5,3,10,1,13,3,-1,-5
1532115915162,0,3,-7,-10,3,-7,4,9
1532115915167,-11,-40,-85,13,-20,-1,5,3
1532115915172,-4,5,47,-49,-1,0,-2,-5
1532115915177,5,-2,-13,20,2,-5,10,14
1532115915182,-4,-4,-2,-12,-13,0,-4,-4
1532115915187,6,15,12,-17,10,-1,2,5
1532115915192,-6,-18,-60,7,-19,-3,2,12
1532115915197,-5,17,95,-7,-8,2,2,0
1532115915202,-4,12,17,5,3,-4,-2,-4
1532115915207,17,3,-9,3,-4,2,-4,-12
1532115915212,-3,-4,-15,13,-6,-10,0,0
1532115915217,-14,-11,11,-1,0,-6,-7,6
1532115915222,-8,-10,-55,-5,2,-4,-2,-15
1532115915227,0,21,66,-19,2,4,-2,6
1532115915232,7,-13,-27,14,0,2,2,-3
1532115915237,8,-2,-16,5,-4,-11,1,-1
1532115915242,3,17,57,-8,1,-2,-3,5
1532115915247,-5,-13,-48,0,4,4,1,-1
1532115915252,-11,-26,-24,0,-13,-14,-8,-11
1532115915257,9,7,31,11,3,1,2,7
1532115915262,8,17,-12,-14,23,6,7,29
1532115915267,-24,-19,-28,1,29,9,-6,-42
1532115915272,-10,2,20,7,15,-3,-3,-16
1532115915277,-9,-24,-58,-13,33,-3,-11,-22
1532115915282,12,4,7,-8,29,1,4,4
1532115915287,12,7,19,4,49,0,4,22
1532115915292,-2,-1,1,4,26,0,1,9
1532115915297,12,-1,-27,-18,30,-4,-3,16
1532115915302,-16,-6,40,11,60,7,-5,-24
1532115915307,-7,-6,-20,-26,49,3,-2,0
1532115915312,5,-3,-6,0,37,4,-2,-7
1532115915317,11,10,-4,-15,10,-21,0,18
1532115915322,22,8,18,12,1,1,2,9
1532115915327,-18,-9,9,-6,16,-5,-3,-14
1532115915332,-22,-18,31,13,25,4,-8,-9
1532115915337,4,7,25,9,27,15,10,29
1532115915342,4,1,-24,-7,35,-9,-7,-39
1532115915347,-9,-33,-74,5,-12,13,-1,-8
1532115915352,17,52,108,-25,-46,-12,8,39
1532115915357,-14,-8,-24,19,-90,4,-10,-48
1532115915362,-2,-12,-30,19,-96,1,1,4
1532115915367,-2,-25,-51,12,-116,-10,1,4
1532115915372,4,43,47,-15,-87,-5,1,-6
1532115915377,-12,-30,-60,3,-86,-22,-9,2
1532115915382,3,45,116,-15,-79,-12,5,7
1532115915387,1,-13,-36,-11,-57,-15,-1,-1
1532115915392,-2,-40,-73,21,-38,11,0,4
1532115915397,8,37,6,-10,-15,8,0,1
1532115915402,-16,-31,-35,-6,-19,-8,-2,-10
1532115915407,0,37,55,14,-9,18,-3,6
1532115915412,1,-2,74,76,15,-11,-2,-8
1532115915417,5,18,-28,3,6,10,3,5
1532115915422,3,-20,-44,-4,24,-10,0,11
1532115915427,-11,2,0,-26,-11,10,3,2
1532115915432,-8,-31,-92,-45,3,16,7,-13
1532115915437,-1,-5,-15,-2,16,-30,-7,-11
1532115915442,-5,20,56,-17,13,7,-3,9
1532115915447,-5,-22,-34,-26,44,-16,-7,-3
1532115915452,1,12,50,-15,49,11,-2,-3
1532115915457,-8,-26,-3,-4,17,15,6,4
1532115915462,18,28,17,-22,-9,4,-1,2
1532115915467,1,10,46,7,-16,-4,-3,-2
1532115915472,-1,-3,-47,-21,-24,-13,-5,-1
1532115915477,10,-7,-13,3,-16,23,7,3
1532115915482,-18,-9,-8,-15,-12,7,1,-3
1532115915487,2,24,46,11,-7,-24,-2,3
1532115915492,8,3,-29,2,-3,22,-2,4
1532115915497,-9,-16,-6,-2,-3,1,-6,-3
1532115915502,-8,-21,-21,2,-7,-30,-2,-3
1532115915507,10,20,27,1,-11,2,1,7
1532115915512,8,-5,-65,-12,4,-8,-1,4
1532115915517,4,17,37,-19,11,2,-3,-5
1532115915522,-14,-15,-22,1,3,16,2,-6
1532115915527,6,-5,1,-8,15,-1,-1,-1
1532115915532,5,-7,-3,10,2,-10,-3,2
1532115915537,-4,-12,-34,-5,9,14,3,1
1532115915542,1,-1,45,0,-3,6,2,3
1532115915547,10,-3,3,-12,3,-15,-2,6
1532115915552,-12,9,0,-25,12,30,-3,-9
1532115915557,1,11,36,-3,21,-25,8,5
1532115915562,-8,-20,-22,26,-4,-11,-3,-1
1532115915567,11,2,-74,8,2,8,3,4
1532115915572,2,33,86,11,6,-2,2,1
1532115915577,-6,-7,4,-15,-6,-16,-9,-5
1532115915582,-1,4,-4,-15,6,3,-3,-6
1532115915587,-2,-9,4,-5,-3,1,0,-1
1532115915592,-6,-45,-96,11,-1,-26,-3,-3
1532115915597,16,48,56,1,6,26,0,0
1532115915602,-4,15,-11,-11,-8,-13,-3,12
1532115915607,-2,-12,-10,28,20,24,-4,-13
1532115915612,-13,-24,-19,-10,-2,-12,2,-3
1532115915617,5,-23,-59,2,-3,-2,-2,0
1532115915622,-2,19,52,-6,8,17,5,-6
1532115915627,0,8,-23,1,3,-29,-7,7
1532115915632,5,-11,-10,12,11,11,-3,2
1532115915637,4,7,26,-1,-2,-4,1,1
1532115915642,2,-4,-18,-1,3,21,-1,5
1532115915647,-16,-8,-2,-1,-1,-2,-2,-9
1532115915652,3,9,28,0,-12,-6,-1,-3
1532115915657,-8,-43,-84,8,2,-7,0,-3
1532115915662,13,52,81,29,-9,-12,-1,-1
1532115915667,4,2,27,-6,8,25,3,4
1532115915672,3,-3,24,8,-3,-13,-4,0
1532115915677,-9,-5,-79,-11,4,13,1,1
1532115915682,3,-13,29,-2,4,-9,-4,-6
1532115915687,-4,8,32,-8,-7,-1,0,-3
1532115915692,15,16,0,-9,0,11,1,3
1532115915697,-28,-33,-49,-6,5,0,0,-3
1532115915702,1,-40,-52,-3,1,-1,0,-3
1532115915707,1,32,27,-26,-10,-32,-3,6
1532115915712,3,0,-32,8,-2,-2,0,0
1532115915717,-2,8,57,4,-6,-3,0,-3
1532115915722,-3,-41,-89,-6,0,2,-3,-2
1532115915727,1,-4,56,0,11,39,1,-3
1532115915732,0,1,40,-20,-14,-32,1,2
1532115915737,5,19,-16,-16,-6,-4,-1,1
1532115915742,0,7,46,-16,18,2,1,1
1532115915747,-2,-27,-74,8,-13,-9,1,4
1532115915752,2,13,29,-8,8,7,0,-2
1532115915757,-8,-14,37,10,-4,9,-2,-7
1532115915762,10,43,57,9,5,10,3,2
1532115915767,3,-10,-36,18,3,-16,0,3
1532115915772,-7,-13,-32,-11,-16,-11,-4,1
1532115915777,-23,-20,-36,1,-6,14,-4,-8
1532115915782,9,34,48,-9,0,-19,-1,0
1532115915787,-7,-14,-42,-7,0,-2,-3,-1
1532115915792,14,46,89,8,7,16,6,1
1532115915797,12,-3,-43,13,-16,-26,0,2
1532115915802,-12,-24,-13,24,1,3,-5,-3
1532115915807,10,24,28,-3,1,13,6,1
1532115915812,1,22,21,-12,-6,-16,-4,-2
1532115915817,5,33,56,-9,20,19,-1,1
1532115915822,10,-12,-58,-1,-9,-1,-1,2
1532115915827,-16,-1,26,12,5,16,3,-1
1532115915832,-8,-31,-66,30,-5,-16,-7,-4
1532115915837,4,14,81,4,10,-1,-5,-1
1532115915842,-7,-15,-63,-25,-10,-13,2,0
1532115915847,-1,-17,5,9,-9,21,0,-4
1532115915852,-13,-32,-72,7,3,10,1,-4
1532115915857,24,54,83,-4,2,-11,-1,5
1532115915862,-9,-14,-38,-3,3,20,-1,0
1532115915867,-13,-14,-7,10,-13,-26,-6,-7
1532115915872,-1,-11,-13,-9,-8,2,-2,-1
1532115915877,4,-17,-18,3,-5,-5,0,-1
1532115915882,-4,13,51,14,-4,7,2,-2
1532115915887,0,-1,-1,-4,3,3,0,-1
1532115915892,19,9,3,-1,2,-10,-4,2
1532115915897,-25,-28,-18,-3,-11,-9,-5,-5
1532115915902,-5,11,33,-5,2,3,0,1
1532115915907,4,-5,-8,-5,5,-6,-3,-13
1532115915912,7,-7,-8,3,2,8,-2,1
1532115915917,0,2,-2,-1,-7,-7,2,-1
1532115915922,-2,-3,18,-5,3,5,-3,-1
1532115915927,1,-4,-14,-16,-2,2,5,7
1532115915932,-5,-7,1,6,2,10,0,-4
1532115915937,14,16,3,-15,24,41,7,2
1532115915942,-7,4,8,15,-9,-39,-1,0
1532115915947,-1,0,14,-2,1,13,-2,-1
1532115915952,-6,-21,-27,-4,-7,-6,-3,-2
1532115915957,-4,-9,-2,4,-3,-10,-5,1
1532115915962,5,0,-26,-8,8,12,2,1
1532115915967,3,5,37,19,-4,-5,0,-3
1532115915972,-11,0,5,2,-3,1,-2,-1
1532115915977,-2,-3,-7,-2,-6,-6,0,0
1532115915982,11,8,-9,-5,2,12,-2,0
1532115915987,-11,-15,-30,1,-11,-8,-3,3
1532115915992,-11,-4,11,6,2,-6,-4,-2
1532115915997,-1,-9,11,-5,5,9,1,1
1532115916002,2,4,-13,-5,4,6,0,-4
1532115916007,11,6,-9,-23,8,-2,-1,5
1532115916012,-2,13,26,-14,3,10,4,8
1532115916017,-4,-2,-6,0,2,-6,-2,-14
1532115916022,6,-5,-20,1,-3,-16,-7,0
1532115916027,-13,-14,-21,-8,1,11,0,-10
1532115916032,-3,18,25,6,6,-10,-6,-2
1532115916037,-2,-13,17,11,-1,-7,-2,1
1532115916042,11,5,29,-15,-6,30,6,16
1532115916047,-6,11,17,4,-11,-42,-5,1
1532115916052,2,-6,7,13,5,-4,2,-5
1532115916057,4,-3,-19,2,-4,-13,-4,1
1532115916062,8,3,-4,5,-4,7,1,-10
1532115916067,-9,-12,-19,-5,-2,1,-1,12
1532115916072,-3,-6,-49,-5,3,9,0,-4
1532115916077,4,5,68,7,-6,0,1,-1
1532115916082,1,1,-12,0,4,-5,-2,-1
1532115916087,3,-2,-8,0,-1,6,1,1
1532115916092,-4,-4,-8,-1,1,2,-1,-4
1532115916097,-1,-1,-21,-2,-3,-6,1,1
1532115916102,-6,0,-1,0,5,17,-1,-3
1532115916107,3,2,20,-1,1,-30,-2,-3
