1532113665146,2,-1,-6,-5,-3,-6,1,1
1532113665151,0,1,3,19,4,5,-6,-3
1532113665156,-2,-1,2,-1,27,-2,0,-1
1532113665161,-2,0,4,6,4,-9,-4,0
1532113665166,1,-3,-3,-7,-3,1,-8,-2
1532113665171,1,0,-2,-7,16,5,18,4
1532113665176,-1,-1,-3,3,-7,-2,-2,-2
1532113665181,-2,1,-1,-1,9,-15,0,0
1532113665186,-1,1,0,7,8,4,1,-1
1532113665191,0,0,-1,-7,3,2,-4,-2
1532113665196,1,-1,2,-5,-6,-14,4,2
1532113665201,-2,1,2,0,-7,26,1,-1
1532113665206,-3,-3,-4,9,21,0,-2,-3
1532113665211,0,-1,3,-7,7,6,1,0
1532113665216,-2,-2,-3,-9,-20,11,-4,-2
1532113665221,-1,-1,-1,-11,-6,-14,-13,-2
1532113665226,-1,-1,6,11,-12,-5,5,1
1532113665231,-1,-1,-5,-3,-2,6,-10,1
1532113665236,-2,-1,0,2,1,3,7,-2
1532113665241,-2,-2,-1,0,-3,-7,-1,-3
1532113665246,-1,-2,-6,-9,-10,14,0,0
1532113665251,0,-4,-5,-3,-5,-7,-1,0
1532113665256,1,4,18,14,-2,-11,-9,-3
1532113665261,1,0,-4,-16,-15,-4,-1,1
1532113665266,-1,1,1,-1,4,-3,-2,-4
1532113665271,-1,-2,-5,-3,-1,-2,-4,-2
1532113665276,0,-4,-4,2,-1,-9,-4,-1
1532113665281,-4,-2,1,12,4,-2,6,1
1532113665286,-3,-3,-3,-7,-1,-4,-5,-7
1532113665291,-1,-1,-2,-1,-4,0,1,-1
1532113665296,0,-1,-2,1,-2,-4,-3,1
1532113665301,-2,2,3,4,3,-6,-5,-1
1532113665306,2,0,1,-5,-8,1,1,6
1532113665311,-3,-1,-2,0,-6,-6,0,-2
1532113665316,0,2,1,-3,3,6,-3,-2
1532113665321,3,-1,-5,2,0,-3,1,4
1532113665326,0,-2,4,-1,0,1,5,1
1532113665331,-1,-4,-4,-2,-4,-7,-1,-3
1532113665336,1,1,2,7,4,4,1,4
1532113665341,-2,-1,-6,-17,-3,-4,-17,-4
1532113665346,2,1,1,-1,-1,1,38,8
1532113665351,-1,-2,-1,-3,1,2,-4,-1
1532113665356,-1,-2,-3,10,10,-3,-4,-2
1532113665361,-1,-2,0,7,4,-7,0,-3
1532113665366,1,-1,0,-12,-1,1,-6,-1
1532113665371,-4,-1,-4,-1,0,2,-1,-2
1532113665376,1,-2,-2,-13,-2,-1,3,-3
1532113665381,0,1,2,7,2,-3,0,-1
1532113665386,-4,-1,-3,-2,-3,-5,-9,-4
1532113665391,-2,-1,2,4,-4,1,3,2
1532113665396,-4,-2,-1,-12,-3,-5,-7,-3
1532113665401,0,-1,1,19,-1,4,-11,-3
1532113665406,3,-1,1,14,-1,-9,-12,0
1532113665411,0,0,-3,-7,-1,-2,8,2
1532113665416,-2,-2,-4,-20,-7,3,-1,-1
1532113665421,1,-1,1,-9,1,-5,2,1
1532113665426,-1,4,-2,1,2,1,-6,-3
1532113665431,2,0,6,17,2,-1,-4,2
1532113665436,0,0,-2,7,-1,0,0,-2
1532113665441,-1,-1,-5,-1,-1,-1,4,-1
1532113665446,-3,-4,0,-2,-1,0,6,0
1532113665451,-1,2,0,-6,1,1,-1,-5
1532113665456,-3,0,-3,-6,-4,2,0,-1
1532113665461,0,-2,-1,5,-1,1,0,3
1532113665466,-1,-3,-4,-10,-2,-5,-2,-1
1532113665471,-2,1,0,-1,0,1,-1,-1
1532113665476,0,1,-5,2,9,-5,1,-3
1532113665481,-2,-3,2,1,-1,5,4,-5
1532113665486,1,0,3,-2,-1,1,-2,5
1532113665491,0,-1,4,-1,1,-1,3,-2
1532113665496,0,1,0,5,-1,-4,-2,1
1532113665501,-1,-1,-6,-11,-2,2,-11,-3
1532113665506,0,0,0,17,0,-1,1,-2
1532113665511,4,-1,-1,-6,1,-4,-4,2
1532113665516,-8,-3,-1,-1,-5,-5,-3,-4
1532113665521,0,1,4,-3,4,3,0,0
1532113665526,-1,-4,-9,-8,-1,4,-2,-1
1532113665531,1,0,-2,7,-1,2,1,3
1532113665536,1,-1,1,1,0,7,2,-4
1532113665541,-2,0,1,-1,-7,-5,2,-4
1532113665546,1,-1,1,-3,-4,-4,-4,3
1532113665551,-2,-2,-2,-15,-1,0,-3,-4
1532113665556,2,0,-8,-2,2,6,2,3
1532113665561,-3,-5,-2,-3,3,2,2,0
1532113665566,0,0,7,4,-5,-1,-3,-2
1532113665571,-1,-2,-4,-3,-5,-2,-2,-2
1532113665576,-2,-5,0,-8,-2,-1,-2,2
1532113665581,1,0,-9,-2,-6,0,3,-1
1532113665586,-1,-2,-7,-7,0,2,-1,0
1532113665591,0,1,5,7,2,-4,-4,0
1532113665596,1,-1,-2,0,-4,-6,-6,-6
1532113665601,1,0,3,-3,2,8,11,5
1532113665606,-1,-1,-2,-2,-2,-3,-4,-5
1532113665611,-1,3,3,5,0,-1,1,-3
1532113665616,1,1,1,8,0,-2,-4,2
1532113665621,0,1,1,1,2,3,-1,0
1532113665626,-3,-1,-4,-19,-4,8,1,-6
1532113665631,-3,-3,-5,-19,-2,0,-1,1
1532113665636,0,-2,5,51,-2,-2,0,-1
1532113665641,-1,3,-6,-12,-4,-9,-3,-1
1532113665646,1,2,14,-10,0,-2,-2,1
1532113665651,-5,-6,-6,2,0,-2,-4,-9
1532113665656,-1,-1,1,-13,-2,1,0,0
1532113665661,0,-5,-2,12,0,-4,-1,0
1532113665666,-2,0,-6,-12,-2,-1,-1,-1
1532113665671,0,0,-1,6,-1,-1,-2,0
1532113665676,-1,0,3,1,-5,-1,-1,2
1532113665681,1,0,-1,7,5,-5,3,0
1532113665686,0,-1,0,5,1,-1,-4,-2
1532113665691,-1,-3,-1,1,-3,3,2,1
1532113665696,1,-1,-2,-14,-2,3,1,1
1532113665701,-2,-1,1,-3,0,-4,-1,4
1532113665706,-2,-3,-3,5,0,-4,-4,-10
1532113665711,1,0,5,9,2,-1,-2,0
1532113665716,-1,-1,-6,-22,0,0,1,-2
1532113665721,-2,-1,1,4,-4,-1,-3,-2
1532113665726,2,1,0,0,1,-1,0,1
1532113665731,-2,0,-5,-8,-4,3,2,1
1532113665736,1,1,2,-1,2,-1,-1,0
1532113665741,-2,-6,-1,-3,-13,-2,-3,-3
1532113665746,-1,-2,-17,15,3,3,1,1
1532113665751,0,-1,8,-4,-1,-2,-2,-3
1532113665756,-1,1,3,-6,-2,-1,0,0
1532113665761,-2,0,-1,4,1,-5,-3,1
1532113665766,-4,-2,1,3,-3,0,0,-4
1532113665771,0,-3,-13,-8,-2,-3,-3,-1
1532113665776,-1,1,1,-11,2,-6,-2,1
1532113665781,1,2,6,17,7,0,-1,-1
1532113665786,-3,-3,-6,-16,-2,4,2,1
1532113665791,-1,-2,-7,11,0,2,2,1
1532113665796,-3,-1,5,-5,-4,0,-3,-3
1532113665801,1,0,-1,-11,0,-2,-3,0
1532113665806,-1,-1,7,6,4,-8,-2,1
1532113665811,-1,0,-6,-6,-3,0,-2,-1
1532113665816,-2,-4,-3,-9,-1,-1,-2,-3
1532113665821,0,-1,6,9,-2,1,2,-1
1532113665826,-2,3,4,17,0,-2,1,-1
1532113665831,0,0,4,-11,0,-1,1,1
1532113665836,-1,-2,-13,-14,-5,4,1,1
1532113665841,0,0,-1,18,-1,-3,-2,1
1532113665846,0,-2,0,1,0,-3,-2,-2
1532113665851,0,-1,-2,-3,1,0,0,-2
1532113665856,1,2,5,10,0,2,-1,2
1532113665861,-2,-4,-4,-8,0,-3,1,0
1532113665866,0,2,4,-10,-2,1,-3,1
1532113665871,0,1,4,21,-2,-5,-2,0
1532113665876,1,0,-21,-9,-1,-1,1,2
1532113665881,0,-1,9,3,0,1,-1,-4
1532113665886,2,-1,-2,1,-2,-4,-1,3
1532113665891,-3,0,1,-19,2,2,0,-3
1532113665896,-1,0,3,31,-1,-3,-1,-1
1532113665901,0,-1,-7,-2,0,2,0,-1
1532113665906,-1,-3,-1,-9,-1,2,0,0
1532113665911,-1,-2,-1,-8,-6,0,1,2
1532113665916,-2,-2,-1,18,1,-1,-2,-2
1532113665921,2,-1,-5,-29,-3,-1,0,-1
1532113665926,1,-1,-3,21,0,-2,-2,-1
1532113665931,-1,-1,-2,-34,1,-3,-2,-2
1532113665936,3,2,9,16,-2,-1,0,0
1532113665941,-1,-1,-4,-3,0,-6,-4,1
1532113665946,-1,0,2,2,4,-2,-1,-1
1532113665951,-2,-1,-2,18,-1,-2,1,-2
1532113665956,-2,-1,2,12,3,-1,-2,-2
1532113665961,-1,-1,-13,-20,-2,0,-1,0
1532113665966,0,-4,4,-16,-6,-1,0,-1
1532113665971,2,3,9,5,-2,-1,0,3
1532113665976,-6,-6,-6,-38,-4,1,3,0
1532113665981,0,1,8,44,1,-2,0,1
1532113665986,-1,0,-7,7,5,2,1,1
1532113665991,0,-3,-5,-1,-2,-1,-2,2
1532113665996,0,-1,3,6,0,1,-3,-2
1532113666001,-2,0,-3,-12,-2,1,1,-1
1532113666006,-1,-3,-5,-5,-2,-5,-3,-3
1532113666011,-1,-1,6,8,1,-1,-2,-3
1532113666016,1,-2,-10,-23,2,3,2,3
1532113666021,-3,-2,6,-3,-3,0,-3,-4
1532113666026,-1,0,4,8,-1,-3,-2,1
1532113666031,-2,-2,-7,1,0,-1,-1,-2
1532113666036,1,-2,-2,-4,1,-6,-1,-3
1532113666041,-3,-2,-11,-7,0,1,-1,-1
1532113666046,-1,-1,9,18,2,6,3,1
1532113666051,0,1,7,-29,-5,-2,-1,0
1532113666056,1,4,7,6,2,-2,0,3
1532113666061,-1,-5,-4,3,2,-1,-2,-1
1532113666066,-1,-1,-11,-8,-3,2,0,0
1532113666071,2,0,-4,4,3,1,1,2
1532113666076,3,3,14,18,-1,-4,1,2
1532113666081,0,4,4,-16,4,-2,0,1
1532113666086,-2,-2,-8,-12,1,-4,-3,-3
1532113666091,-2,-1,1,22,-1,-1,-1,0
1532113666096,-4,-3,-4,0,-3,0,-4,-5
1532113666101,-2,-5,-7,-4,-3,-2,-1,-6
1532113666106,1,2,6,-26,-2,-1,0,1
1532113666111,-1,1,-17,-6,-1,-2,1,0
1532113666116,-2,-6,-14,0,-5,0,-3,-1
1532113666121,-1,0,-2,-11,-1,1,3,0
1532113666126,-1,0,0,19,1,-1,-2,-2
1532113666131,0,-1,3,4,-3,0,0,-4
1532113666136,-2,0,-1,-10,1,-2,-2,-3
1532113666141,-3,-2,0,-10,-1,2,0,-1
1532113666146,0,-1,0,3,-2,-2,-3,0
1532113666151,-2,-3,1,13,1,5,-2,-3
1532113666156,-1,-2,-5,-9,-2,-1,-1,-1
1532113666161,0,2,12,16,0,-1,2,1
1532113666166,0,-1,-5,-18,0,1,0,0
1532113666171,0,-1,7,39,2,-2,-2,-1
1532113666176,-1,2,0,-14,5,-5,-2,-2
1532113666181,1,0,-6,-17,-8,2,0,-1
1532113666186,-1,-5,-3,3,0,1,0,-6
1532113666191,-3,0,-1,12,2,-2,-3,-3
1532113666196,-1,0,1,-14,-4,4,3,0
1532113666201,1,-3,-7,5,-2,-2,-1,-2
1532113666206,-1,1,5,-7,-1,-4,-2,2
1532113666211,-1,-1,-5,-9,-1,2,-1,-3
1532113666216,-1,-2,6,23,2,0,-1,-4
1532113666221,-2,-1,-1,-8,-5,0,0,1
1532113666226,0,-2,-6,14,4,3,2,-1
1532113666231,-4,-3,-3,-7,-7,-5,-3,-3
1532113666236,1,1,19,4,-2,0,1,2
1532113666241,1,-2,-12,-23,-2,-4,-2,0
1532113666246,-1,0,8,30,-1,4,1,2
1532113666251,-2,0,-8,-18,0,-4,-2,1
1532113666256,-1,-3,-6,-4,-3,-1,-2,-2
1532113666261,-1,0,2,8,1,1,-1,-2
1532113666266,-1,0,1,-5,0,1,1,2
1532113666271,2,1,1,16,4,1,2,1
1532113666276,-2,-3,-9,-2,-1,0,0,-5
1532113666281,1,0,3,-35,-1,-2,-2,1
1532113666286,1,-1,-2,5,-4,-3,-2,6
1532113666291,-1,-1,-5,0,1,-1,-3,-2
1532113666296,-1,-1,2,-4,1,1,-1,1
1532113666301,-2,2,3,2,3,-1,0,-2
1532113666306,0,-2,-5,7,0,0,0,-3
1532113666311,-1,1,1,-10,-2,1,-1,0
1532113666316,-1,0,-3,-6,-3,-1,0,-1
1532113666321,-2,-3,-6,8,2,-2,1,0
1532113666326,-1,3,7,-5,-3,0,-2,-3
1532113666331,0,-5,-7,-4,1,-1,1,0
1532113666336,-1,-2,-3,-10,-6,3,-2,-2
1532113666341,1,0,1,6,1,4,1,1
1532113666346,0,-1,0,2,4,-2,4,-2
1532113666351,0,1,1,2,-2,2,-1,0
1532113666356,0,-1,-4,-10,-1,-5,-3,2
1532113666361,-1,-1,5,15,-4,-4,-2,-4
1532113666366,-1,0,1,-15,-2,0,-1,-1
1532113666371,-2,-1,4,3,1,-3,-1,0
1532113666376,-2,-2,-7,15,2,-1,1,-2
1532113666381,-1,1,-4,-9,-1,-1,0,2
1532113666386,0,0,-4,-23,-4,-5,-6,-2
1532113666391,-2,-4,5,-1,-2,3,2,0
1532113666396,2,1,-3,2,-2,-3,-3,1
1532113666401,-2,-1,2,13,1,-2,-2,-3
1532113666406,-2,-2,-1,0,-2,-2,0,-2
1532113666411,-1,3,1,-14,-4,-5,1,0
1532113666416,-3,-5,-6,3,-1,1,-2,-7
1532113666421,0,0,-5,-4,-8,-2,-3,-1
1532113666426,-2,-3,1,-1,0,-3,-2,-1
1532113666431,1,2,10,-3,2,1,0,-2
1532113666436,-2,1,5,13,-2,0,0,3
1532113666441,1,2,1,1,-1,-3,-2,1
1532113666446,-4,-6,-15,-12,-3,3,1,-3
1532113666451,0,-2,-3,-9,-2,2,0,1
1532113666456,1,-1,2,-1,3,-3,1,-1
1532113666461,0,-1,-3,8,9,-1,-1,-1
1532113666466,2,0,-7,-13,-4,-1,3,2
1532113666471,0,0,0,3,0,-4,-2,1
1532113666476,1,-2,-1,-4,1,6,1,0
1532113666481,0,0,1,9,2,-2,1,0
1532113666486,0,-1,-13,-5,1,-2,0,-1
1532113666491,-1,-2,8,16,-4,2,0,-2
1532113666496,1,2,4,-6,2,-2,0,0
1532113666501,0,-2,-2,-14,-5,0,0,1
1532113666506,-3,0,3,4,-2,0,-1,-1
1532113666511,0,-1,-7,-4,-3,-5,-4,-3
1532113666516,-3,-2,0,5,-3,0,-1,-1
1532113666521,-1,-4,-7,3,1,-2,-2,-3
1532113666526,-2,0,1,-5,-1,2,1,1
1532113666531,2,3,2,6,3,0,-2,1
1532113666536,0,-1,0,-15,-3,-2,-1,0
1532113666541,0,-4,-5,9,-2,1,0,2
1532113666546,-1,0,4,10,0,-3,-2,-2
1532113666551,-2,-1,-4,-3,-5,-1,0,-1
1532113666556,0,-2,-2,-7,1,-2,2,1
1532113666561,1,1,-9,2,0,6,0,-3
1532113666566,-1,-3,9,7,-1,-2,0,-1
1532113666571,-2,-3,-4,-6,4,0,2,0
1532113666576,0,1,8,7,-9,-1,-1,1
1532113666581,-2,1,1,-4,1,-5,-3,1
1532113666586,-1,-1,3,0,-1,-1,-1,0
1532113666591,-1,-4,-10,-4,-1,-1,-1,-1
1532113666596,-1,0,-6,-2,-1,-3,-3,-1
1532113666601,-2,-1,0,-14,-2,-1,-1,0
1532113666606,-1,0,2,22,-3,0,-4,-1
1532113666611,-2,-3,-2,-7,1,3,1,-2
1532113666616,0,0,1,-1,-3,1,2,-1
1532113666621,-2,-5,-18,-1,-4,-2,-2,-4
1532113666626,1,2,17,0,5,-2,-2,-1
1532113666631,-1,-1,0,-10,-4,-4,-1,-1
1532113666636,-1,-1,-5,2,-1,-1,-2,-1
1532113666641,-2,0,5,1,0,3,-1,0
1532113666646,0,0,-9,1,0,-1,-1,1
1532113666651,1,1,2,4,0,-1,0,3
1532113666656,-2,0,-10,-14,4,4,0,-1
1532113666661,-1,3,12,7,1,-1,2,1
1532113666666,-1,-2,-6,-2,-1,1,0,0
1532113666671,0,1,10,3,1,-2,-1,-1
1532113666676,1,0,-7,7,-2,-3,-2,2
1532113666681,0,-1,1,-5,6,-4,-4,1
1532113666686,-2,-3,-6,-19,-3,3,1,-2
1532113666691,-1,-1,-13,4,-2,1,-2,-1
1532113666696,-3,-3,9,-1,0,-2,0,-3
1532113666701,-1,-3,-1,5,1,-3,-4,-1
1532113666706,0,0,-4,-6,0,-2,-1,1
1532113666711,-1,-2,-8,-16,-12,5,1,-2
1532113666716,1,-2,-2,0,2,-2,1,0
1532113666721,0,1,5,-2,-3,-1,-1,0
1532113666726,0,0,0,10,0,-2,-1,-2
1532113666731,-1,-4,-6,-5,1,-2,-1,-3
1532113666736,-2,0,0,-1,-2,0,-2,-3
1532113666741,-3,1,7,-4,-2,-2,-1,-1
1532113666746,1,2,-3,2,3,-2,-1,2
1532113666751,0,3,5,14,8,-2,2,1
1532113666756,-2,-6,-11,-24,-4,-7,-2,2
1532113666761,0,-2,-2,16,3,3,2,-2
1532113666766,-1,-1,9,2,-3,2,0,-1
1532113666771,-1,1,14,10,2,-3,-1,1
1532113666776,-1,-2,-5,1,0,-1,0,0
1532113666781,-1,-2,-4,-9,-2,1,-1,0
1532113666786,-1,-2,-11,1,1,-3,0,-2
1532113666791,-1,-3,-6,1,4,-1,-1,-3
1532113666796,-2,1,5,-1,0,-2,-2,-3
1532113666801,-1,1,2,-8,-4,-3,-1,-1
1532113666806,-1,1,4,2,-2,-1,0,0
1532113666811,0,-3,-3,2,-3,0,-1,0
1532113666816,-1,-3,-9,2,1,3,-1,-1
1532113666821,1,-1,-2,-28,-2,-2,1,1
1532113666826,1,1,6,24,-3,6,1,1
1532113666831,-2,-2,4,-7,-2,-1,-1,-2
1532113666836,0,1,9,19,4,0,-1,0
1532113666841,-3,-1,2,-1,-13,-3,0,-3
1532113666846,1,-3,-5,-9,4,-3,-2,0
1532113666851,-3,-1,-11,-12,-4,-1,-1,-2
1532113666856,0,0,2,1,-3,11,2,-2
1532113666861,-2,-6,-3,3,1,-1,-3,-3
1532113666866,-2,-3,-6,-6,-4,-3,-3,0
1532113666871,-1,-1,2,2,0,0,0,0
1532113666876,1,2,1,-6,-4,-9,-1,1
1532113666881,1,-2,-1,-3,1,0,2,3
1532113666886,0,1,-13,-8,3,-1,0,-4
1532113666891,0,-2,8,2,0,0,0,1
1532113666896,-2,2,3,14,-2,-3,-2,-2
1532113666901,-2,-2,-6,-15,-5,3,0,-2
1532113666906,1,0,4,-2,-2,-6,-3,1
1532113666911,-1,2,-4,-4,-1,0,-1,0
1532113666916,-2,-4,-6,-6,1,-1,-1,-1
1532113666921,-1,1,3,8,3,0,0,-1
1532113666926,0,0,0,12,0,-2,-2,-1
1532113666931,-2,1,2,-2,-4,6,2,1
1532113666936,0,4,5,-3,-1,-2,-1,-1
1532113666941,0,-3,-10,-3,1,-3,-1,0
1532113666946,-1,-1,4,-5,-1,7,1,-1
1532113666951,0,2,-6,-5,-1,-3,-3,-1
1532113666956,0,-1,15,16,1,-2,-2,-1
1532113666961,-1,-2,-6,-7,-3,-3,0,-1
1532113666966,-1,-2,4,-3,-4,-1,-1,-3
1532113666971,-1,-2,-4,6,1,-3,-1,-1
1532113666976,0,0,-2,1,2,-1,0,1
1532113666981,0,2,4,4,-3,0,-3,-2
1532113666986,0,-1,-4,-4,-4,-3,2,1
1532113666991,0,-2,1,-2,1,-3,-1,1
1532113666996,-1,-3,-4,-9,-5,2,1,-2
1532113667001,-2,-1,5,12,6,2,0,-1
1532113667006,-1,0,-3,-8,-4,-1,-2,-1
1532113667011,0,-1,-3,-5,-1,-3,-2,-1
1532113667016,1,-1,-14,-6,-1,0,0,-1
1532113667021,-2,1,9,15,0,2,3,-2
1532113667026,-4,-4,-5,-22,1,-1,-3,-3
1532113667031,-1,-1,2,9,1,0,-2,-2
1532113667036,-1,-2,-4,-12,-4,-3,-2,2
1532113667041,-1,2,-4,10,1,-3,-3,2
1532113667046,1,-1,-1,-10,0,-2,1,1
1532113667051,0,0,0,-7,-4,-2,1,0
1532113667056,-2,-1,-5,-3,0,-5,-2,-2
1532113667061,0,1,3,10,3,0,0,1
1532113667066,0,0,3,7,2,0,0,0
1532113667071,1,0,2,3,-3,-3,0,2
1532113667076,-2,1,0,-4,-1,-1,0,-3
1532113667081,1,-3,-19,-2,-6,-1,-2,-2
1532113667086,-3,-4,7,7,0,-4,-1,-3
1532113667091,0,-1,-2,-17,-2,-1,-2,-1
1532113667096,-1,-1,0,-2,0,-1,-1,0
1532113667101,-3,-1,1,1,-2,-1,-1,-1
1532113667106,1,0,-7,-13,-2,0,0,-1
1532113667111,0,-2,-1,8,-1,2,-1,-2
1532113667116,0,0,-2,6,1,-2,-2,-3
1532113667121,0,-3,0,-12,-2,-2,-1,-1
1532113667126,-2,1,2,20,0,0,-1,-1
1532113667131,-1,0,0,-23,-1,-3,-2,-4
1532113667136,0,0,5,15,-1,-1,-1,2
1532113667141,-1,1,0,1,-1,1,-1,-1
1532113667146,-1,0,-6,5,-1,-2,-3,-2
1532113667151,-4,-2,-1,-15,-2,0,-2,-7
1532113667156,0,-2,14,1,-1,-2,1,0
1532113667161,2,1,-1,-14,0,-3,0,1
1532113667166,-2,0,1,1,-9,7,2,2
1532113667171,2,-1,-10,17,5,1,1,1
1532113667176,-1,-2,-5,-11,-1,3,3,0
1532113667181,0,1,5,-9,0,-3,-1,-3
1532113667186,0,1,0,11,0,-2,-2,-1
1532113667191,-2,-2,-5,11,-1,-3,-3,-1
1532113667196,-2,-1,1,-10,-1,0,-1,-2
1532113667201,0,1,4,7,1,2,0,-2
1532113667206,0,-1,-4,-29,3,-3,-1,2
1532113667211,-1,1,4,-1,-1,-2,0,-1
1532113667216,1,0,0,19,0,-1,-2,1
1532113667221,-3,-3,-8,-11,-1,1,-2,-2
1532113667226,-1,0,0,18,3,-1,0,0
1532113667231,-2,-1,9,16,1,-5,-6,-3
1532113667236,-3,1,0,-28,-1,-1,-2,0
1532113667241,2,-2,0,14,-2,1,2,3
1532113667246,-1,1,1,-20,-1,-1,-1,0
1532113667251,0,-3,-11,4,2,1,2,1
1532113667256,-1,-3,-2,-5,-1,2,-2,-1
1532113667261,-2,-3,1,0,2,-7,-5,-4
1532113667266,-1,-2,-1,12,-3,-2,0,-2
1532113667271,0,-1,-5,-20,-2,-2,-2,1
1532113667276,0,-2,-3,0,3,2,3,0
1532113667281,-1,0,-5,-13,-3,-2,-1,-1
1532113667286,-3,-3,5,5,-1,0,0,0
1532113667291,-1,-3,9,18,-1,-1,0,-2
1532113667296,-2,0,-3,-14,-5,-2,-6,-4
1532113667301,0,-3,-7,25,2,6,2,0
1532113667306,-1,0,0,-12,5,-1,0,-2
1532113667311,-3,-2,-6,-23,-5,-2,0,-1
1532113667316,-1,1,6,17,3,-2,-3,1
1532113667321,-1,0,-6,-13,-7,-8,-2,1
1532113667326,0,-2,1,0,-1,2,1,1
1532113667331,0,2,4,12,-1,0,-1,1
1532113667336,-1,-3,-9,-17,-6,-5,0,0
1532113667341,-1,2,0,2,0,2,-2,-2
1532113667346,-2,-3,-1,-3,-3,-4,-3,-3
1532113667351,-2,2,6,2,-1,-2,-2,-1
1532113667356,-3,-5,-10,-14,0,-5,1,-3
1532113667361,0,2,13,5,4,2,4,6
1532113667366,0,0,-7,10,-5,-5,-6,-1
1532113667371,-4,-2,-4,8,1,1,1,-5
1532113667376,0,-2,-5,-13,0,-2,0,-1
1532113667381,0,1,20,11,-1,0,-2,0
1532113667386,-1,0,0,13,0,0,0,-2
1532113667391,-1,2,3,-14,-4,-4,-2,0
1532113667396,1,0,-20,7,0,3,-1,-1
1532113667401,-2,-5,-1,-23,1,0,0,-2
1532113667406,3,1,10,11,-5,-1,0,2
1532113667411,0,-2,-8,-3,-1,2,2,2
1532113667416,-1,-3,-2,12,8,0,-2,-2
1532113667421,-1,0,-6,-21,-10,-3,-2,-2
1532113667426,1,-2,-1,5,4,-2,-3,-2
1532113667431,1,1,0,-8,2,-1,-1,2
1532113667436,0,-1,-2,5,-5,-1,-1,-3
1532113667441,-1,1,3,23,4,-2,-5,-3
1532113667446,-2,-2,-7,-48,-5,-4,1,-1
1532113667451,2,2,-4,24,0,-3,-1,0
1532113667456,-2,0,9,3,-1,-1,1,0
1532113667461,-2,-4,1,14,4,0,1,-1
1532113667466,-3,-2,3,30,-3,2,-1,-6
1532113667471,3,-1,-27,-45,-3,-5,-2,1
1532113667476,0,1,24,24,-7,-2,-2,-2
1532113667481,1,-2,-8,-43,-9,2,1,3
1532113667486,-2,-1,-4,11,6,3,0,-3
1532113667491,-2,-3,3,6,2,2,1,-3
1532113667496,-1,1,-6,8,-1,2,3,-2
1532113667501,-1,1,0,9,2,-4,-3,-5
1532113667506,1,-1,1,-1,-2,-4,-2,1
1532113667511,0,-1,1,-6,-5,1,-2,2
1532113667516,-2,-3,-6,-1,-5,2,1,0
1532113667521,-1,-3,14,26,-1,0,1,0
1532113667526,1,1,-7,-32,1,1,1,1
1532113667531,-2,0,13,46,-1,-2,0,-2
1532113667536,1,1,-7,-30,-1,8,-1,0
1532113667541,2,1,-3,-21,2,0,2,1
1532113667546,-4,-4,-32,12,-4,-1,0,-2
1532113667551,1,-1,23,2,1,-1,-3,2
1532113667556,-2,2,9,12,10,-3,0,2
1532113667561,-1,-2,-9,9,-2,-6,-6,-3
1532113667566,0,-1,2,5,6,-3,0,-1
1532113667571,0,2,-3,-25,-6,2,-2,1
1532113667576,1,-1,5,6,1,0,2,0
1532113667581,0,-1,-2,-11,-5,-5,0,0
1532113667586,-2,0,-2,-4,0,-4,-3,-1
1532113667591,-1,-1,-4,15,-1,2,2,-1
1532113667596,0,2,3,-13,-4,-1,-3,0
1532113667601,-1,-2,-7,-15,-2,2,0,-2
1532113667606,2,4,-15,-21,-3,-7,0,2
1532113667611,-5,-4,16,32,11,8,-3,-3
1532113667616,-1,-3,-10,-9,-10,-4,-1,-1
1532113667621,0,2,-10,-3,1,2,0,2
1532113667626,-4,-4,6,8,-2,-1,-1,-8
1532113667631,0,4,0,-20,-6,-6,-3,-2
1532113667636,-4,-6,-12,8,3,-1,-2,-2
1532113667641,0,1,-2,1,0,-1,-3,0
1532113667646,-2,-3,1,-30,-5,3,0,0
1532113667651,0,4,-2,-1,7,-8,-1,1
1532113667656,1,1,1,-7,-12,2,-3,-1
1532113667661,-3,-3,-9,13,2,0,0,-1
1532113667666,-2,-1,10,-9,-4,9,4,1
1532113667671,-2,-7,-26,-13,-6,-6,-6,-3
1532113667676,0,1,4,12,7,-1,-1,1
1532113667681,-3,0,16,0,0,7,2,-1
1532113667686,2,5,14,8,-4,-2,-3,5
1532113667691,-4,-4,-15,5,0,-2,-2,-4
1532113667696,0,2,-3,-20,0,0,-2,-2
1532113667701,0,0,-1,22,-6,-3,-2,-2
1532113667706,1,-1,1,-9,6,-2,3,1
1532113667711,-1,-2,1,9,-6,1,1,1
1532113667716,-4,-5,-6,-23,-4,-5,-3,0
1532113667721,1,2,13,0,-8,2,-2,1
1532113667726,0,-2,-6,-7,-2,-1,-2,-1
1532113667731,-3,-6,3,2,1,0,0,-4
1532113667736,0,2,-20,10,2,-5,1,-2
1532113667741,-3,-3,-2,19,6,0,0,-2
1532113667746,-2,-1,7,2,8,-2,-6,-1
1532113667751,1,1,4,1,-11,1,2,2
1532113667756,1,0,-4,-8,-1,-5,0,1
1532113667761,-1,-2,-6,-12,0,1,-2,-3
1532113667766,-1,1,-5,1,-1,-3,-1,0
1532113667771,-1,-1,-3,-6,2,2,-2,-3
1532113667776,-1,1,9,5,6,-1,0,2
1532113667781,0,-1,-5,-7,-9,-4,-1,2
1532113667786,-1,-3,-4,2,-5,1,0,-1
1532113667791,2,-1,10,-2,8,2,2,2
1532113667796,-1,-2,8,16,-1,-3,-7,-6
1532113667801,0,-4,-33,-19,-3,-1,1,-1
1532113667806,-1,2,29,39,4,2,2,-1
1532113667811,0,0,2,-25,0,-4,-4,0
1532113667816,0,-1,1,8,0,0,2,0
1532113667821,-1,2,1,-23,-3,1,0,-3
1532113667826,-1,-4,-16,-7,0,-4,-2,0
1532113667831,0,0,-4,11,-1,3,1,1
1532113667836,-2,-1,7,5,2,2,0,-2
1532113667841,0,0,3,4,0,-5,-1,-2
1532113667846,-1,-1,0,3,-1,0,0,0
1532113667851,-1,-2,-1,-4,-4,-2,-1,0
1532113667856,-1,1,3,1,-1,-1,-1,-1
1532113667861,-2,0,1,9,8,2,-1,-3
1532113667866,-1,-2,-2,-15,-5,-6,-6,-5
1532113667871,-3,-1,-6,-7,-5,-3,1,0
1532113667876,-1,-1,4,9,-9,8,-1,-4
1532113667881,-2,-3,-8,-18,-1,-2,-1,1
1532113667886,0,-1,11,14,5,-3,-2,-1
1532113667891,-2,1,14,21,-3,-3,-2,-5
1532113667896,-1,-1,-3,-2,-3,-2,3,1
1532113667901,1,0,6,-19,-4,-2,-3,2
1532113667906,-1,-1,-16,-7,-2,4,-1,-1
1532113667911,-1,0,-4,-1,-1,-4,-4,-1
1532113667916,-1,-1,0,23,7,7,3,3
1532113667921,1,2,6,-1,6,-1,1,0
1532113667926,0,-2,-15,-36,-13,-1,3,3
1532113667931,-1,-1,16,21,1,0,-1,-5
1532113667936,1,1,-4,-10,-2,-4,-3,-1
1532113667941,-1,-3,1,22,7,-3,-1,-3
1532113667946,1,2,1,5,-2,3,2,1
1532113667951,-1,-2,-8,-17,1,3,4,1
1532113667956,-2,-4,-4,-15,-5,-3,-4,-2
1532113667961,0,5,21,25,5,-1,1,-1
1532113667966,-2,-1,7,14,0,-4,-2,-2
1532113667971,0,-1,-7,-7,-2,5,3,3
1532113667976,2,2,-3,-10,1,-4,-2,0
1532113667981,-1,-3,-11,-2,-9,3,-2,-1
1532113667986,-1,-1,0,7,2,-5,-4,-1
1532113667991,-1,-1,-2,-1,-1,-1,1,0
1532113667996,-2,-2,-2,-7,1,-1,1,0
1532113668001,1,-1,0,-21,-17,-7,-4,-1
1532113668006,1,2,1,0,-1,-2,-1,-4
1532113668011,0,-5,-8,7,7,0,0,-1
1532113668016,-1,-3,0,5,-9,8,2,-1
1532113668021,-2,-2,-3,-9,0,-3,3,1
1532113668026,1,3,8,2,0,0,0,0
1532113668031,1,-1,-27,-18,-3,0,-1,-1
1532113668036,0,-2,12,16,4,-3,-2,0
1532113668041,-1,-3,1,-2,1,-1,0,-2
1532113668046,-1,-3,-4,7,-5,5,2,0
1532113668051,0,4,4,-12,-3,-3,1,0
1532113668056,-1,-3,-11,-23,-1,-6,-4,0
1532113668061,-1,1,3,22,0,0,2,0
1532113668066,0,-2,1,-6,2,1,0,3
1532113668071,0,-2,0,0,-1,5,-2,-1
1532113668076,-1,1,0,6,1,-7,0,-4
1532113668081,0,-3,-3,-11,3,2,1,1
1532113668086,0,3,1,-4,-1,-3,-2,-3
1532113668091,-2,-4,-5,5,1,-5,-1,0
1532113668096,-2,-1,-1,-13,-3,-1,0,2
1532113668101,-1,1,-4,13,3,1,-1,-2
1532113668106,-3,-2,-6,27,0,-1,0,-3
1532113668111,-1,0,9,-20,-2,-5,-1,-1
1532113668116,2,0,12,-16,-2,1,0,2
1532113668121,0,1,0,8,7,-6,-3,-1
1532113668126,1,0,0,-6,-4,0,1,0
1532113668131,1,2,5,11,3,-1,-2,-1
1532113668136,-3,-2,-9,4,1,2,1,0
1532113668141,-1,0,-3,-4,-3,0,-3,-3
1532113668146,-3,-2,3,-7,0,1,0,-4
1532113668151,0,-1,-4,1,-3,0,0,2
1532113668156,-2,-2,-3,-5,-4,-10,-3,-2
1532113668161,0,1,0,-3,-1,5,2,-2
1532113668166,-1,-1,-3,-3,0,0,0,-1
1532113668171,-3,-3,-4,-3,-2,-2,-2,-1
1532113668176,0,1,-8,7,1,0,-1,1
1532113668181,0,-1,24,-1,-4,-2,-3,3
1532113668186,-1,1,1,-4,0,0,-2,0
1532113668191,1,2,-1,-8,-1,1,-1,-1
1532113668196,0,-1,-5,-3,-3,0,2,1
1532113668201,-2,-3,-13,-2,-1,-4,-2,-2
1532113668206,1,0,1,2,1,5,2,1
1532113668211,-1,-2,3,-1,-6,1,1,0
1532113668216,-1,0,-1,10,1,-1,-3,-2
1532113668221,0,-3,0,-5,-2,0,0,-1
1532113668226,-1,-4,-3,-4,1,-4,-2,0
1532113668231,-1,0,1,3,-12,-1,0,0
1532113668236,-1,0,-2,-3,0,-2,-2,-1
1532113668241,-2,-3,-6,0,-1,-1,-1,-3
1532113668246,-1,1,0,0,0,-2,-2,-1
1532113668251,1,0,5,-6,3,0,-2,-2
1532113668256,1,2,13,6,1,10,2,0
1532113668261,-5,-1,-5,-3,-4,-2,-2,-2
1532113668266,0,0,-6,-6,4,-4,-1,1
1532113668271,-2,-2,-3,4,2,1,0,-2
1532113668276,1,1,0,-9,-2,-5,-5,-1
1532113668281,0,-2,-4,3,2,-2,-1,1
1532113668286,0,0,-3,-13,-3,-1,-1,-1
1532113668291,1,0,1,-1,-1,-2,3,5
1532113668296,-1,-1,-1,3,-1,-3,0,-2
1532113668301,-1,-2,-3,-1,1,-1,-1,-2
1532113668306,-2,-3,-1,5,-2,1,-3,-1
1532113668311,0,-1,-2,0,0,-1,0,0
1532113668316,2,0,-3,-8,-3,1,1,-1
1532113668321,1,5,9,3,-5,-2,0,3
1532113668326,-3,-10,-27,-5,1,-5,-4,-2
1532113668331,-1,1,15,0,2,1,-2,-2
1532113668336,-1,-1,6,3,3,0,0,0
1532113668341,0,2,0,-3,-7,0,1,1
1532113668346,0,1,3,3,-1,-4,-2,0
1532113668351,-2,-5,-13,0,-1,0,-3,-4
1532113668356,-1,-3,-3,-4,-2,4,2,-1
1532113668361,1,-1,-3,-9,-1,1,1,3
1532113668366,-3,-2,4,0,-4,-1,0,-1
1532113668371,-2,-2,-3,8,2,-3,-3,-2
1532113668376,-1,1,1,-2,-2,-6,-2,3
1532113668381,-2,1,-2,2,-1,1,-1,-2
1532113668386,-1,-1,0,-5,-4,2,0,0
1532113668391,-2,1,3,-5,-1,-1,0,0
1532113668396,-2,-5,-4,4,2,-1,-1,-5
1532113668401,-1,1,-4,-11,0,-3,-2,-3
1532113668406,0,-2,2,4,-7,0,-2,0
1532113668411,2,1,6,3,-2,-3,-2,0
1532113668416,-2,-3,-10,0,1,-2,-1,0
1532113668421,0,-2,-4,-1,1,-3,-4,-3
1532113668426,0,2,8,0,-1,-2,-1,-1
1532113668431,-1,-4,4,8,-1,0,-2,-2
1532113668436,0,0,2,0,-3,-2,-1,-4
1532113668441,0,-1,1,6,1,-1,-1,0
1532113668446,-2,-3,-6,-1,4,-4,-1,-1
1532113668451,0,0,-3,-5,-3,2,0,-1
1532113668456,-1,1,1,-9,3,0,0,1
1532113668461,-2,0,4,10,3,-4,-1,-1
1532113668466,1,-2,-1,3,1,1,0,-1
1532113668471,1,0,-4,-14,-1,0,0,1
1532113668476,-2,-1,3,3,-1,-3,-2,0
1532113668481,-2,-4,-7,-1,3,-7,0,0
1532113668486,-2,-2,-3,-6,1,3,-1,-3
1532113668491,-1,-1,1,7,-1,0,-1,-1
1532113668496,-1,-1,-1,3,0,-1,-3,1
1532113668501,-1,-1,1,1,0,0,-2,-1
1532113668506,0,1,-1,-11,-7,0,1,2
1532113668511,-3,0,-13,-5,0,-1,-3,-6
1532113668516,-1,-3,4,1,-4,0,-1,0
1532113668521,-1,1,3,0,-2,-1,-1,0
1532113668526,1,3,6,0,-3,1,1,-3
1532113668531,-2,-6,-10,-3,-2,-1,0,-1
1532113668536,-1,-1,-8,-2,0,-1,-1,-1
1532113668541,1,-2,-1,-2,2,2,2,-1
1532113668546,-1,0,4,6,-1,-6,-3,0
1532113668551,-1,0,-1,-11,-1,1,-1,0
1532113668556,-1,0,0,-5,1,-4,-2,-1
1532113668561,-2,-3,-7,-7,-1,1,-2,-3
1532113668566,-1,-1,-1,5,0,-1,2,-2
1532113668571,0,-2,1,12,2,-2,1,-1
1532113668576,0,1,2,4,2,0,0,2
1532113668581,-2,1,1,-11,-5,1,3,1
1532113668586,-1,-2,-5,-3,-1,-2,-2,-2
1532113668591,-1,0,-3,-2,-1,-1,-2,-2
1532113668596,-1,-1,0,4,-2,-3,0,0
1532113668601,0,0,-1,6,1,0,-1,-1
1532113668606,-4,0,0,4,-1,-1,-1,-3
1532113668611,3,0,-8,-21,-1,1,0,5
1532113668616,-3,-2,10,13,-4,1,-1,-4
1532113668621,-1,-2,-4,-6,-2,3,2,0
1532113668626,1,1,4,0,1,1,1,1
1532113668631,0,1,6,-6,0,1,0,2
1532113668636,1,-3,-9,-8,1,-2,-2,-4
1532113668641,0,-3,-3,14,-9,-1,-1,-1
1532113668646,1,0,-2,0,-1,-1,-3,0
1532113668651,-4,-3,-2,-4,-12,-5,-1,-6
1532113668656,2,-2,0,-2,1,3,-1,0
1532113668661,-1,-1,1,-3,0,-1,-1,0
1532113668666,-2,2,-1,-3,2,-1,0,-1
1532113668671,-2,-3,-1,-4,-3,-3,0,1
1532113668676,-1,1,-3,2,-3,4,1,2
1532113668681,0,-2,-9,7,7,1,0,0
1532113668686,0,-1,0,-14,-2,0,0,1
1532113668691,-2,-1,7,-2,2,0,-1,1
1532113668696,-1,-1,-3,2,-2,-6,-1,-1
1532113668701,2,0,1,-2,3,-2,0,1
1532113668706,-1,0,-3,1,-4,-2,-1,0
1532113668711,0,-3,-3,8,3,0,-1,-2
1532113668716,-1,-2,-6,-8,0,-1,0,-1
1532113668721,-3,-2,-1,1,-3,1,0,-1
1532113668726,1,-1,0,-5,1,1,-1,-3
1532113668731,1,4,9,6,0,-2,-3,1
1532113668736,-2,-5,-5,-8,-4,-5,-1,-4
1532113668741,0,-2,-2,10,-1,4,0,-1
1532113668746,0,0,-2,-5,0,-3,2,2
1532113668751,-1,1,-1,-4,1,-2,-1,1
1532113668756,0,-1,-1,-7,1,-2,1,-1
1532113668761,1,5,15,12,0,1,-1,0
1532113668766,-2,-1,3,8,0,-1,-2,-1
1532113668771,1,-2,-1,7,3,-1,-1,-2
1532113668776,-2,2,1,2,-1,-1,-3,-2
1532113668781,0,-3,-10,-14,-2,1,1,-4
1532113668786,1,1,7,2,-4,-2,0,2
1532113668791,1,1,-2,2,-1,-2,-3,2
1532113668796,-2,-2,-5,-3,-2,1,0,-1
1532113668801,0,-3,-2,-5,-2,-3,-2,1
1532113668806,0,1,-2,7,5,-3,-1,-2
1532113668811,0,-1,-4,-10,-4,1,1,0
1532113668816,1,0,5,4,4,1,-2,1
1532113668821,-3,-2,-5,-8,-15,0,-2,0
1532113668826,-2,-5,-19,-22,-3,0,-1,-2
1532113668831,-2,-1,17,19,-4,-5,-1,-1
1532113668836,-1,0,-5,-2,3,3,2,0
1532113668841,1,-1,4,5,5,-6,-2,-1
1532113668846,-3,-3,-2,2,-3,-1,-3,-2
1532113668851,0,-1,0,0,3,1,2,0
1532113668856,0,1,0,-3,-3,2,1,0
1532113668861,-2,-5,-8,-9,0,-2,0,1
1532113668866,-2,-2,-2,-3,-2,-2,-3,0
1532113668871,-1,-2,-1,-3,3,1,-1,-8
1532113668876,1,0,0,4,-3,0,0,0
1532113668881,-1,2,-7,-7,-1,-4,-3,1
1532113668886,-2,0,19,8,1,2,-1,1
1532113668891,0,-2,-9,-3,1,0,0,0
1532113668896,0,1,-24,-6,-3,-1,-3,0
1532113668901,-1,0,21,-5,-1,-1,0,-1
1532113668906,0,1,2,1,0,-3,-2,-3
1532113668911,-1,0,-5,2,4,1,0,0
1532113668916,0,2,1,-1,-4,-3,1,1
1532113668921,2,-2,-10,-7,-1,0,0,-1
1532113668926,0,0,-1,-1,-5,-6,0,0
1532113668931,0,-1,1,2,5,2,0,0
1532113668936,-2,-1,3,7,4,0,-2,-1
1532113668941,-1,0,1,-5,-2,0,-1,-3
1532113668946,-1,-1,0,-11,-2,3,1,-1
1532113668951,-1,-2,-12,0,-9,1,0,0
1532113668956,1,-2,9,-3,3,-5,-1,-1
1532113668961,0,0,7,18,1,1,-1,0
1532113668966,0,-2,-8,-1,1,-2,-1,-1
1532113668971,0,0,-8,-6,0,1,2,-1
1532113668976,-2,-1,5,3,-3,-1,-2,0
1532113668981,-2,-3,0,0,1,-1,-1,-3
1532113668986,0,-1,-3,0,-1,1,-1,-1
1532113668991,-3,-1,0,0,-3,-3,-2,-1
1532113668996,0,-4,1,1,-3,0,1,-1
1532113669001,-1,1,-2,-3,-2,-5,-2,-2
1532113669006,-1,-4,-4,-3,-1,-1,-2,-1
1532113669011,0,0,4,5,0,6,-1,-1
1532113669016,-1,-1,-6,-4,-8,1,-1,-1
1532113669021,-1,0,-4,-7,0,2,0,0
1532113669026,0,0,2,5,2,-2,1,-1
1532113669031,-3,0,3,-1,-1,-3,0,0
1532113669036,-1,-1,0,-1,-1,-4,-6,-1
1532113669041,-1,-2,-7,-3,-1,-1,-2,-1
1532113669046,-2,-3,-10,-8,-5,3,1,-2
1532113669051,-1,-2,-3,0,4,-2,-2,1
1532113669056,0,0,-2,-1,-5,1,2,0
1532113669061,-1,0,-1,-1,-2,-6,-4,-1
1532113669066,1,0,2,1,4,5,1,2
1532113669071,-2,-1,-3,-3,-4,1,1,0
1532113669076,-3,-2,-4,-2,7,0,-3,-2
1532113669081,1,0,2,1,-9,-1,-1,-1
1532113669086,-1,-2,0,-3,2,-5,-1,-2
1532113669091,1,2,4,-1,-4,-2,-4,0
1532113669096,-3,-6,-16,-6,-6,0,-1,0
1532113669101,-1,-2,-8,-9,1,1,-1,-1
1532113669106,-4,1,18,14,1,-1,0,-1
1532113669111,-1,1,-1,0,-2,0,1,0
1532113669116,0,-1,3,2,-3,0,0,0
1532113669121,0,1,1,0,1,-3,-3,-1
1532113669126,-1,-3,-12,-10,-3,0,1,-1
1532113669131,0,-1,4,3,1,0,-4,-1
1532113669136,2,3,-5,4,-4,-3,1,1
1532113669141,-2,-1,3,-4,2,-3,-1,-1
1532113669146,-1,0,0,-3,-2,-1,1,-1
1532113669151,0,-1,6,2,7,3,2,2
1532113669156,2,-5,-11,-5,-5,-3,-3,-2
1532113669161,0,-1,0,2,3,-2,0,0
1532113669166,0,0,-2,-4,-7,-2,-3,-1
1532113669171,-2,0,-2,-1,2,-2,-1,0
1532113669176,-1,0,7,-6,-4,0,-2,0
1532113669181,-4,-2,11,11,0,1,-1,-1
1532113669186,0,-1,-7,-5,0,2,1,-2
1532113669191,0,-1,-4,-1,2,1,-1,-1
1532113669196,1,2,-1,-1,1,0,1,0
1532113669201,-4,-1,-3,-4,-4,-3,-3,-3
1532113669206,3,-1,1,0,5,-1,1,1
1532113669211,-1,-1,-6,-5,-14,-5,-4,-5
1532113669216,-2,-1,0,1,2,-2,-2,-3
1532113669221,2,-1,0,-2,0,1,-1,0
1532113669226,-2,-1,-2,-2,-1,6,1,-1
1532113669231,-1,1,-1,1,-6,-5,-2,0
1532113669236,-3,-3,-3,-2,-4,0,-3,-3
1532113669241,0,-1,-1,1,1,0,1,-1
1532113669246,-1,0,-4,-4,5,-4,-4,2
1532113669251,-1,-2,-2,-10,-11,0,-3,-3
1532113669256,-1,1,4,9,5,13,9,3
1532113669261,0,0,-2,-5,-5,-2,2,-1
1532113669266,-3,-1,-2,-2,-5,-3,-1,1
1532113669271,-2,-5,-5,3,9,0,1,-3
1532113669276,3,2,2,-2,4,-3,1,3
1532113669281,-1,-2,-7,-5,2,2,-1,-1
1532113669286,1,0,1,-2,-4,1,0,-1
1532113669291,0,-4,-3,-2,0,-3,-4,1
1532113669296,0,2,15,15,7,0,0,0
1532113669301,0,0,1,3,-2,0,1,1
1532113669306,-1,-1,0,-9,0,-4,-6,-4
1532113669311,0,-2,-6,-1,-4,0,2,0
1532113669316,0,-1,-2,-1,0,7,-2,-1
1532113669321,0,1,1,9,-2,-5,-1,-2
1532113669326,-1,1,-1,-5,-4,-1,1,-2
1532113669331,-2,-1,-2,-14,-1,-1,0,-2
1532113669336,-1,-2,2,-1,-7,-4,-3,-1
1532113669341,-1,-3,-1,4,3,1,-2,-3
1532113669346,-1,0,-3,5,4,-2,-2,-1
1532113669351,-1,1,3,8,3,0,-2,-1
1532113669356,0,1,-2,0,-5,-7,-1,-2
1532113669361,-1,-3,-5,-9,-3,-5,-5,-4
1532113669366,1,-5,-4,-1,-4,-2,1,1
1532113669371,-1,0,2,-7,3,1,2,0
1532113669376,-1,0,-8,-3,-2,-3,0,-3
1532113669381,0,-1,3,0,5,2,1,-2
1532113669386,-3,-2,6,-5,-8,0,-4,-2
1532113669391,-2,0,-3,10,1,-2,-3,-2
1532113669396,-3,-3,-3,-6,-2,-1,-1,-4
1532113669401,-1,-1,-7,-6,0,1,1,1
1532113669406,0,-3,-9,-5,-5,-1,0,0
1532113669411,0,1,11,12,3,-1,0,0
1532113669416,-2,-1,-3,-11,0,-2,0,0
1532113669421,0,-2,-1,1,-9,-3,-1,1
1532113669426,0,0,2,5,5,-5,-3,-2
1532113669431,1,0,-2,-5,-11,-1,0,-1
1532113669436,-1,-1,-7,-1,4,1,-2,-3
1532113669441,1,-1,3,1,-1,-2,0,0
1532113669446,-1,-1,4,4,8,0,1,0
1532113669451,-2,-2,-3,0,-4,-3,-3,0
1532113669456,1,1,3,2,2,2,-1,-1
1532113669461,-2,-3,-6,-5,0,2,1,-1
1532113669466,-1,-1,-20,-3,0,0,0,0
1532113669471,-1,-2,7,-2,-6,1,-1,-2
1532113669476,-1,1,2,1,-5,-4,-3,-2
1532113669481,-3,-3,-9,-4,-5,0,3,0
1532113669486,-1,1,5,5,3,-6,-1,0
1532113669491,0,0,-3,-1,1,-1,-1,0
1532113669496,-1,-2,-4,-1,3,1,0,0
1532113669501,0,1,3,-3,-7,-3,1,-2
1532113669506,-1,-2,-2,0,-2,1,-1,-1
1532113669511,-1,-1,-3,-5,2,-1,1,0
1532113669516,-1,-1,2,1,-2,-6,-3,-1
1532113669521,1,-1,2,6,4,-1,-2,0
1532113669526,-2,-4,1,0,-1,-4,-2,-6
1532113669531,0,2,2,0,1,-2,-1,0
1532113669536,0,-6,-9,-2,-3,0,0,0
1532113669541,0,2,3,0,4,-1,-1,-2
1532113669546,-1,0,0,2,-1,-3,-2,0
1532113669551,-1,-2,1,7,0,-4,0,-1
1532113669556,-2,-2,-6,-15,-3,-3,-4,-2
1532113669561,-1,-1,4,1,0,4,-1,1
1532113669566,0,-1,0,0,-1,2,-2,-1
1532113669571,-2,-2,-2,-2,-2,-2,1,-2
1532113669576,-1,-2,-6,-4,1,1,2,2
1532113669581,0,1,14,14,-1,-4,-5,-1
1532113669586,-3,-1,-2,-4,-6,-1,2,-1
1532113669591,0,-1,-1,0,9,-1,2,0
1532113669596,0,1,3,3,-3,-5,2,-1
1532113669601,0,-1,-8,-5,2,-3,-3,-1
1532113669606,-1,-3,-3,-1,0,1,-1,-2
1532113669611,1,1,0,-4,1,-1,0,3
1532113669616,-2,-1,0,3,4,1,0,-3
1532113669621,-3,-1,0,-3,-2,-2,-2,-1
1532113669626,1,1,4,1,-2,-1,-1,0
1532113669631,-2,-2,-7,-2,2,4,-2,0
1532113669636,-1,0,0,-3,-10,-3,0,-1
1532113669641,-1,0,0,1,0,-1,1,0
1532113669646,1,2,-3,-3,-3,-2,-1,0
1532113669651,-2,-3,4,2,5,1,0,-3
1532113669656,2,0,4,3,1,0,-4,2
1532113669661,-1,-1,-7,-5,-2,-1,-1,-1
1532113669666,-1,0,0,5,3,-2,0,1
1532113669671,-1,-2,-6,-9,-7,4,0,-2
1532113669676,0,-1,3,-5,-3,1,0,0
1532113669681,-1,1,9,7,0,0,1,3
1532113669686,0,-1,-2,-1,-1,-1,-1,0
1532113669691,0,-1,1,5,4,-4,-4,-2
1532113669696,-2,-1,-5,-4,-2,-2,0,-2
1532113669701,-2,-1,-5,-5,-2,3,0,0
1532113669706,-2,-4,2,0,2,2,4,-1
1532113669711,-1,0,-4,-1,-12,-1,-2,-2
1532113669716,-1,-1,2,5,5,2,-1,-1
1532113669721,2,1,0,-2,5,-3,-1,-1
1532113669726,-2,-3,-1,0,-8,0,0,-2
1532113669731,-1,-3,-3,-7,1,-2,-1,0
1532113669736,0,-1,-1,-2,1,-1,-1,-1
1532113669741,-3,-1,-1,-3,-5,-1,-1,-3
1532113669746,-2,1,0,-2,2,1,0,-1
1532113669751,-1,0,-3,0,-4,0,0,-1
1532113669756,-2,-5,4,4,-4,-1,1,1
1532113669761,-2,0,-2,0,4,0,-3,-2
1532113669766,-1,-1,0,-2,1,-3,-6,-2
1532113669771,-2,0,-1,0,-2,6,0,-2
1532113669776,-1,0,-11,-1,-1,-2,-1,-2
1532113669781,0,-3,-2,-6,-4,-2,1,3
1532113669786,0,-2,4,2,0,-1,-2,-2
1532113669791,0,-1,0,0,2,-1,-1,-1
1532113669796,-1,-1,0,0,-2,-1,2,0
1532113669801,-1,-2,-8,-7,-1,1,0,-2
1532113669806,0,-1,-1,0,2,0,0,2
1532113669811,-1,-2,1,3,-9,-3,0,-1
1532113669816,1,1,0,-1,-1,-4,-2,3
1532113669821,0,-3,-6,-4,-6,-4,-3,-1
1532113669826,-3,1,5,2,2,2,-1,0
1532113669831,-2,0,-4,-3,1,0,-2,1
1532113669836,-1,-1,0,0,-2,-1,0,0
1532113669841,-3,1,-2,1,-5,4,-2,-3
1532113669846,1,-2,-3,-2,-5,-2,-3,-1
1532113669851,2,1,1,-4,7,-2,2,0
1532113669856,-1,1,1,8,-4,8,1,1
1532113669861,-2,-1,-4,-7,5,-3,-3,-1
1532113669866,0,0,-2,-5,-3,0,2,1
1532113669871,-1,-2,1,0,-1,-4,-2,-1
1532113669876,2,3,5,2,1,-2,-2,-2
1532113669881,1,-5,-8,-1,3,0,-1,0
1532113669886,-1,2,-10,-5,-3,1,-1,-1
1532113669891,1,-1,8,-1,1,-5,-1,1
1532113669896,-2,-3,7,4,0,-2,-2,-5
1532113669901,0,2,-1,0,-3,1,0,1
1532113669906,-3,-2,-1,0,2,-4,-3,-3
1532113669911,-1,-2,-9,-6,-7,-1,-1,-1
1532113669916,-1,-1,-2,-3,-1,-3,0,-1
1532113669921,0,-1,3,3,-3,-5,-1,0
1532113669926,-1,0,2,1,4,-3,-2,0
1532113669931,-2,1,1,4,1,2,1,-1
1532113669936,-1,-1,-3,-7,0,1,-2,1
1532113669941,-1,-2,1,-1,-1,-4,-1,-2
1532113669946,1,0,1,4,-1,2,-2,0
1532113669951,1,-1,-2,3,2,0,1,-1
1532113669956,-2,1,-4,-6,-3,-3,-4,-2
1532113669961,-1,-1,-1,-1,1,3,0,-4
1532113669966,-3,-1,1,-2,-1,-2,0,-1
1532113669971,-1,0,0,1,0,-3,-1,-1
1532113669976,0,-1,-1,0,1,0,1,0
1532113669981,1,1,0,0,4,-1,1,2
1532113669986,-1,-2,-5,-7,-7,-2,1,-1
1532113669991,-1,0,0,1,0,1,-2,-3
1532113669996,-1,1,-1,-2,-1,-4,0,0
1532113670001,-2,-2,-4,-5,-5,1,-2,-1
1532113670006,1,-1,10,12,0,0,0,0
1532113670011,-1,1,-3,-4,-2,1,-3,-4
1532113670016,-1,-4,-1,-2,-1,-4,-3,-1
1532113670021,0,0,2,7,1,1,-1,-1
1532113670026,-2,-3,-12,-8,2,1,1,0
1532113670031,-2,-4,-4,-11,-9,-4,-2,1
1532113670036,1,0,0,3,-2,2,0,-2
1532113670041,0,0,0,1,4,-1,0,-1
1532113670046,-1,-1,1,2,-3,-3,-1,-2
1532113670051,-1,0,0,2,-1,-1,-2,-1
1532113670056,-1,-1,-4,-4,-1,5,2,1
1532113670061,0,-1,3,3,-3,-3,2,1
1532113670066,-1,0,0,0,-1,-4,-3,-2
1532113670071,0,0,0,0,3,-2,0,-1
1532113670076,-2,-2,0,0,1,-2,-2,-4
1532113670081,0,-1,-6,-3,-3,-1,-3,-2
1532113670086,-1,0,0,-2,2,0,-3,-3
1532113670091,-1,-1,0,-2,-7,2,-1,1
1532113670096,-1,-1,-1,1,4,-1,0,1
1532113670101,0,0,1,-1,0,1,1,-1
1532113670106,-1,-3,-4,-2,-1,2,0,-1
1532113670111,-1,-2,2,-2,3,-8,-6,-2
1532113670116,0,0,9,10,-1,-1,1,3
1532113670121,-3,-1,-1,-7,-6,-1,-2,-5
1532113670126,2,-1,1,4,1,0,2,0
1532113670131,0,0,-3,-1,2,0,1,1
1532113670136,-1,-3,-8,-9,-5,-1,-1,0
1532113670141,0,-2,-2,0,3,-4,-1,1
1532113670146,-1,0,-2,-2,-2,0,-1,1
1532113670151,-2,-1,-3,1,2,1,1,-1
1532113670156,1,-2,-2,-1,2,-4,-3,-5
1532113670161,0,0,0,2,-1,3,1,-2
1532113670166,-1,1,-2,-3,-2,2,1,1
1532113670171,0,1,0,2,-1,-2,-3,0
1532113670176,-1,-2,-1,-3,-2,-2,-1,-3
1532113670181,-2,-1,-6,-6,-5,-2,-2,-1
1532113670186,0,0,7,5,-1,-3,0,1
1532113670191,1,-2,-1,0,1,0,1,-2
1532113670196,0,-1,-5,-4,0,0,-2,0
1532113670201,0,0,2,2,-4,4,2,1
1532113670206,0,0,-18,-11,-1,-6,0,0
1532113670211,0,-1,12,5,3,0,-5,-1
1532113670216,0,0,-2,2,-1,2,0,-1
1532113670221,0,-1,-1,-1,5,-7,-2,-2
1532113670226,-1,-1,2,2,1,3,0,1
1532113670231,1,0,-2,-1,-4,1,2,0
1532113670236,-1,-1,-5,-5,0,-3,-2,0
1532113670241,1,0,0,9,1,3,-1,-2
1532113670246,-1,-2,1,-13,-2,-2,-1,0
1532113670251,0,1,-1,-3,-3,7,1,-1
1532113670256,-1,1,6,2,0,-3,-2,-2
1532113670261,0,-2,-2,2,3,-1,1,0
1532113670266,1,-2,2,1,-1,-3,-2,-1
1532113670271,-2,-2,-1,1,1,-2,-3,0
1532113670276,-2,-3,-6,-1,-1,-1,-1,-1
1532113670281,-1,-2,-1,-5,-2,-1,0,-2
1532113670286,-3,-2,-1,2,1,-3,-4,-4
1532113670291,-2,0,-1,-4,0,3,3,0
1532113670296,0,-1,-2,-1,-1,-2,-2,-1
1532113670301,-1,1,3,-2,-9,-1,-2,1
1532113670306,-1,-1,-3,0,-1,2,0,-2
1532113670311,1,2,-2,0,-1,-4,2,2
1532113670316,-1,-1,-2,3,0,1,2,0
1532113670321,0,-1,0,-15,1,-1,0,1
1532113670326,-1,0,11,9,-1,-1,0,-2
1532113670331,0,-1,-1,1,-1,-5,-3,-1
1532113670336,0,1,1,3,4,-1,1,1
1532113670341,-3,0,-1,-2,-4,2,0,1
1532113670346,-2,-1,-6,5,-2,-5,-2,-4
1532113670351,-1,-3,-1,-7,0,4,0,-3
1532113670356,1,0,-1,-11,-5,1,-1,-1
1532113670361,-3,-1,-2,5,-1,-1,-2,-3
1532113670366,-1,2,2,-1,1,-4,-1,1
1532113670371,-1,-3,-7,4,-3,-2,-1,-3
1532113670376,0,-1,-2,0,-3,-1,-2,-1
1532113670381,-3,-2,1,-9,0,-2,2,1
1532113670386,1,0,-4,1,0,4,2,1
1532113670391,-1,-3,-1,3,-6,-5,0,0
1532113670396,-2,1,2,-2,1,-4,-2,0
1532113670401,0,-1,0,7,-1,0,-2,-3
1532113670406,-1,-2,-1,-8,4,0,1,0
1532113670411,-1,-1,-4,-5,-7,-3,-2,1
1532113670416,-2,-1,-1,0,1,1,-1,-1
1532113670421,1,0,1,1,-1,-1,0,1
1532113670426,-1,0,-1,0,0,0,-2,-1
1532113670431,0,1,2,-3,-3,-1,-2,-1
1532113670436,1,-2,-1,6,-2,2,0,-2
1532113670441,-2,-1,-17,-13,-3,-4,-2,0
1532113670446,-1,-1,9,2,0,0,-2,0
1532113670451,-1,-1,4,1,2,-5,0,0
1532113670456,0,-1,-3,-4,-1,1,0,-1
1532113670461,-2,-1,0,7,0,-3,0,-2
1532113670466,-1,-1,-7,-8,-3,-1,-4,-2
1532113670471,-1,0,-4,0,2,-4,-2,-1
1532113670476,-2,0,3,0,-2,2,0,1
1532113670481,-1,-1,0,-2,2,2,-1,0
1532113670486,1,1,0,-3,-3,-3,-1,-2
1532113670491,-1,-1,0,-4,-1,1,0,0
1532113670496,-1,0,-3,1,3,-3,-2,0
1532113670501,2,-3,2,3,-3,-3,-1,2
1532113670506,-2,-1,0,-1,-4,-2,-4,-4
1532113670511,0,-2,-3,-3,2,1,1,-1
1532113670516,-1,2,2,-10,0,-1,1,0
1532113670521,-1,-2,-3,-1,-8,0,0,2
1532113670526,0,-3,-2,1,0,-2,1,0
1532113670531,-1,-2,-6,0,-2,2,1,-2
1532113670536,1,-2,1,2,1,-2,-1,-2
1532113670541,2,3,5,3,2,-1,-1,-1
1532113670546,-2,-2,-3,1,-3,2,1,0
1532113670551,1,0,-2,-3,-5,-1,-2,-1
1532113670556,-2,-2,-1,-10,-5,-5,-2,2
1532113670561,0,0,1,2,0,0,-2,-2
1532113670566,-2,-2,-3,-10,-4,-1,-2,2
1532113670571,-2,-3,-4,-5,2,0,-2,-1
1532113670576,0,0,1,4,-1,-1,0,2
1532113670581,-2,-2,-2,2,2,-2,-2,-5
1532113670586,0,0,1,1,3,-5,-2,-4
1532113670591,1,2,4,0,0,1,-2,1
1532113670596,-1,-1,-1,-7,-3,-4,-1,-3
1532113670601,-1,0,10,15,4,4,1,2
1532113670606,0,-2,2,8,0,-1,1,1
1532113670611,0,0,-2,-2,7,-3,-2,-1
1532113670616,-1,1,-7,-6,-8,1,1,1
1532113670621,-1,2,-3,-11,1,-2,-1,-2
1532113670626,1,0,3,3,0,-2,-1,2
1532113670631,-2,-2,-5,-3,-4,4,2,-3
1532113670636,-2,-4,0,7,3,2,1,-1
1532113670641,0,-4,-4,-14,7,-1,-2,1
1532113670646,-2,-1,-5,-8,-13,-2,-1,0
1532113670651,1,3,8,8,3,-1,-1,1
1532113670656,-2,-5,-12,9,3,0,-1,-3
1532113670661,-2,-1,0,-9,1,-1,-2,-3
1532113670666,1,1,0,-4,1,1,0,-2
1532113670671,-1,-1,-1,-6,-5,-3,-1,3
1532113670676,-3,-1,3,0,-5,-4,0,-2
1532113670681,2,0,2,14,4,1,-1,1
1532113670686,1,-2,-10,-9,-4,0,-1,1
1532113670691,-2,-1,-12,-3,-2,0,-2,-2
1532113670696,-2,-2,8,-8,1,3,3,-1
1532113670701,-2,1,1,4,-6,-1,-2,-4
1532113670706,-1,0,0,1,3,-1,1,-1
1532113670711,-2,0,4,1,1,-2,0,-1
1532113670716,0,1,-6,-11,-3,-3,-4,-2
1532113670721,-2,-7,-5,7,0,-4,1,-1
1532113670726,-1,0,3,-3,0,4,1,-1
1532113670731,0,-2,-5,-9,-4,-1,-1,-1
1532113670736,1,2,5,10,5,-1,-2,0
1532113670741,1,2,2,6,-8,1,2,1
1532113670746,0,-2,0,5,-3,0,0,0
1532113670751,-1,-3,-1,-3,0,-2,1,-1
1532113670756,-1,-3,-5,1,0,2,-3,-1
1532113670761,1,1,-2,-10,-1,-3,0,0
1532113670766,-1,0,0,-1,2,-5,-4,-1
1532113670771,-2,0,2,8,3,-3,0,-4
1532113670776,0,0,3,2,-4,2,-1,1
1532113670781,0,-1,-4,-8,1,-4,-2,-1
1532113670786,-1,-1,-1,-10,-3,8,2,-1
1532113670791,-2,-2,-14,-3,-1,-2,-5,-2
1532113670796,0,0,9,10,1,-2,0,-1
1532113670801,-1,-1,-1,-3,-4,-2,-1,-2
1532113670806,-3,0,-3,7,1,1,0,-2
1532113670811,2,0,2,0,-1,1,1,0
1532113670816,-2,-2,-6,-2,0,0,1,-2
1532113670821,-3,-3,-6,-9,-4,1,0,-1
1532113670826,-2,-2,2,-1,0,-5,-2,-3
1532113670831,-2,-2,-4,-5,-1,-1,-2,-1
1532113670836,0,0,2,-2,1,-5,0,0
1532113670841,0,1,2,4,-1,-1,-1,-4
1532113670846,0,-2,-2,16,1,-1,0,-2
1532113670851,-2,-2,5,-7,-5,0,-1,-1
1532113670856,1,1,-5,-8,3,-2,-1,2
1532113670861,0,1,4,8,-9,-5,-2,1
1532113670866,-1,-6,-13,-9,-4,-2,1,-1
1532113670871,-2,-1,1,-5,0,-1,-2,1
1532113670876,0,0,0,8,3,-1,-2,-2
1532113670881,1,-1,-2,0,-1,-4,-3,1
1532113670886,0,1,5,3,1,-1,-3,-1
1532113670891,1,0,-2,-4,1,-7,-1,-2
1532113670896,-5,-5,3,-8,-6,1,1,-1
1532113670901,-2,0,7,0,2,1,-1,-2
1532113670906,0,0,-1,1,-3,-2,-2,0
1532113670911,0,-1,1,5,4,5,3,-3
1532113670916,1,1,-7,-6,-1,-1,-4,0
1532113670921,-1,-3,-5,0,0,0,-1,-1
1532113670926,0,2,5,-2,3,1,1,2
1532113670931,-3,1,1,5,-3,-2,-2,-1
1532113670936,-1,-1,-4,6,1,-2,0,-1
1532113670941,1,0,1,-11,-1,-1,0,-2
1532113670946,-2,-3,-8,-23,-2,-1,-2,-3
1532113670951,2,1,4,13,5,3,1,0
1532113670956,-1,-1,-1,5,-9,1,2,0
1532113670961,-2,-2,-4,-3,9,1,-1,0
1532113670966,-1,1,1,-11,-14,-5,-2,0
1532113670971,-1,-2,-5,6,-7,-5,-4,-2
1532113670976,-4,-4,2,-7,-2,6,0,-1
1532113670981,-2,-1,-1,-2,-3,0,1,0
1532113670986,-1,-1,1,10,4,8,0,-1
1532113670991,-1,-1,4,-4,1,2,1,-1
1532113670996,2,1,-2,2,1,-1,-1,1
1532113671001,-2,-3,-3,-13,-2,-5,-3,-1
1532113671006,0,-1,2,10,1,-5,-1,-1
1532113671011,2,1,1,-2,-1,-2,3,2
1532113671016,-1,0,-2,-8,0,-1,-1,-3
1532113671021,0,-1,1,5,0,3,0,2
1532113671026,0,0,-1,-4,1,-5,-3,-2
1532113671031,-1,0,-2,4,5,0,-1,-3
1532113671036,0,0,0,7,4,-3,-1,0
1532113671041,-1,-1,0,-5,-10,-1,-2,-2
1532113671046,-1,-1,-3,-7,-1,-1,-1,-1
1532113671051,-2,0,2,3,1,-2,-2,1
1532113671056,-1,-2,-1,1,1,-4,-3,-1
1532113671061,0,0,0,-9,-6,1,2,1
1532113671066,0,-1,0,2,6,8,4,5
1532113671071,-2,-1,2,-11,-7,-4,-4,-2
1532113671076,-1,1,-2,10,2,-3,1,-1
1532113671081,-1,-3,-19,-2,-3,2,-1,-1
1532113671086,-1,1,12,8,0,-2,0,0
1532113671091,-1,-2,-1,-6,-4,4,1,1
1532113671096,-1,-1,1,-9,-4,-5,-1,0
1532113671101,-1,-2,-4,5,6,-6,-6,-4
1532113671106,-1,-1,-3,-5,-4,-1,-3,-1
1532113671111,-1,0,-1,7,5,1,1,-3
1532113671116,0,1,2,2,-7,1,-3,-3
1532113671121,-1,0,3,2,1,-3,-1,-1
1532113671126,-2,0,-5,-4,3,-4,-3,-1
1532113671131,-1,-3,-1,-14,-6,2,0,-1
1532113671136,0,-2,-2,-6,-1,-2,2,1
1532113671141,0,-2,1,2,3,2,-3,-2
1532113671146,-1,0,-1,7,0,9,0,-2
1532113671151,-1,0,1,9,0,-3,-1,1
1532113671156,1,1,-3,-19,-3,-1,1,2
1532113671161,-1,1,0,4,7,5,2,1
1532113671166,-1,1,0,3,-1,-3,-1,0
1532113671171,-1,-1,-4,-2,-2,-2,-1,-1
1532113671176,-1,1,2,-1,2,1,-4,-3
1532113671181,-1,-1,-1,-3,-1,-2,2,0
1532113671186,-1,-1,0,-3,3,-3,-3,-2
1532113671191,1,-4,-15,-1,-2,2,-2,-2
1532113671196,-2,-2,10,8,-11,2,0,0
1532113671201,-1,0,1,-7,-3,-5,0,-1
1532113671206,0,-1,-3,-9,-6,-1,2,1
1532113671211,0,-1,0,9,-2,-3,-2,-2
1532113671216,-1,0,-8,-7,3,-1,1,-1
1532113671221,1,0,-1,3,-2,2,0,0
1532113671226,0,-2,1,4,-3,-7,-4,-2
1532113671231,-2,-3,-3,-10,-1,3,2,0
1532113671236,2,0,-2,6,5,2,0,0
1532113671241,-2,-5,3,4,-3,-1,-1,1
1532113671246,-2,-1,-5,-4,3,-2,-1,-2
1532113671251,1,3,4,2,0,-3,-1,0
1532113671256,-1,-1,-3,4,-11,0,-4,-2
1532113671261,1,0,-1,-3,2,-2,0,0
1532113671266,-1,-2,-3,-2,-1,3,1,0
1532113671271,0,-2,-9,-12,0,0,-3,-3
1532113671276,-1,-1,7,6,6,-4,-1,0
1532113671281,-2,-2,-3,4,-3,-1,-2,0
1532113671286,1,1,0,1,-1,-1,0,1
1532113671291,-1,-1,4,-6,-4,0,2,0
1532113671296,-1,-3,-3,2,7,0,-1,-4
1532113671301,-2,-1,-3,-4,-1,-1,-2,0
1532113671306,1,-1,0,2,3,0,4,0
1532113671311,1,-3,-1,1,1,-4,-6,-1
1532113671316,-1,-1,-3,-5,-2,0,0,-3
1532113671321,2,2,3,7,1,4,1,0
1532113671326,-1,0,-2,-3,0,-4,-1,-2
1532113671331,-1,1,-9,-9,-6,0,1,1
1532113671336,-2,-3,11,10,3,5,2,-1
1532113671341,0,1,1,3,1,-7,-1,-2
1532113671346,-2,-3,-5,-7,3,4,1,0
1532113671351,0,2,4,0,-7,-2,-2,1
1532113671356,-2,-2,-12,-11,-5,-4,-3,-1
1532113671361,-2,-1,0,-1,4,3,0,-2
1532113671366,-3,0,-1,5,-9,0,-1,-4
1532113671371,-2,-1,3,3,4,-4,-1,-3
1532113671376,1,0,-3,-5,0,-6,0,2
1532113671381,0,0,2,2,7,-1,-1,-2
1532113671386,-1,1,-2,-3,-6,-2,-4,0
1532113671391,0,-2,2,10,6,3,2,1
1532113671396,0,0,1,-6,-1,-1,-3,-1
1532113671401,-1,0,-3,-7,-3,-2,-1,1
1532113671406,-1,-1,0,-6,-3,-2,0,-2
1532113671411,-1,0,1,3,-2,-1,-1,-1
1532113671416,-2,-2,-6,5,2,2,-1,-2
1532113671421,1,0,-1,-10,-4,1,1,0
1532113671426,-1,-1,-2,-5,0,0,-1,1
1532113671431,-1,0,4,4,1,-1,1,0
1532113671436,0,-2,-3,3,1,7,4,0
1532113671441,1,2,4,-4,-10,-3,-6,-4
1532113671446,-1,-1,-2,7,11,0,-6,-5
1532113671451,-3,2,-6,-9,1,-6,-3,0
1532113671456,-1,-1,6,-10,-6,0,-2,0
1532113671461,-2,-1,6,12,6,3,2,-2
1532113671466,0,-2,-1,-6,-8,1,0,0
1532113671471,1,0,0,4,5,-2,0,-1
1532113671476,0,-1,-5,-2,0,-4,0,-1
1532113671481,-3,-1,-2,-6,-1,-1,-2,0
1532113671486,-1,-4,-7,0,3,-1,-1,0
1532113671491,-1,0,0,2,-3,3,-2,-4
1532113671496,-2,-1,-1,-9,-2,-8,-5,-4
1532113671501,-1,-1,-3,11,-4,0,1,-1
1532113671506,-2,-2,0,-5,-5,0,-1,-1
1532113671511,0,0,2,-1,-3,-1,1,-2
1532113671516,-1,0,-3,1,-3,-1,-2,-2
1532113671521,-1,-3,2,0,-1,-1,-2,-1
1532113671526,1,0,-1,6,-2,-2,-2,1
1532113671531,1,-3,-1,-1,2,2,-1,1
1532113671536,0,2,1,-3,2,-3,-1,-2
1532113671541,-1,-2,-5,-4,-1,-1,0,-1
1532113671546,1,0,3,-2,-4,4,2,1
1532113671551,0,-3,0,-4,-2,-3,-2,0
1532113671556,0,-1,0,6,4,-1,-2,-1
1532113671561,-2,-1,-3,-7,-12,-1,0,0
1532113671566,-3,-5,-6,-3,-1,2,0,-1
1532113671571,0,0,-6,-20,-6,-3,-4,-1
1532113671576,-1,0,4,-7,-3,0,1,0
1532113671581,0,0,4,13,0,-2,1,-2
1532113671586,1,2,3,0,5,-5,-4,-1
1532113671591,-1,-2,2,12,1,0,-2,-3
1532113671596,-2,-3,-10,-3,1,0,0,-1
1532113671601,0,-2,-1,-3,2,-3,-2,1
1532113671606,-1,-1,2,3,1,3,1,-1
1532113671611,0,0,4,16,8,-1,-2,0
1532113671616,-2,-1,-1,-18,-4,-1,0,-1
1532113671621,-2,0,-2,-5,0,0,-1,-1
1532113671626,-1,0,-1,-3,-2,-2,2,-1
1532113671631,2,-1,-1,2,-2,0,2,0
1532113671636,0,-1,-2,11,0,-1,-4,0
1532113671641,1,0,-4,-6,2,-2,-1,-1
1532113671646,0,2,-1,-10,-4,-2,1,1
1532113671651,-2,1,0,1,0,0,-1,-1
1532113671656,0,-1,2,5,-1,0,2,-1
1532113671661,-1,-1,-2,-5,-4,0,1,0
1532113671666,0,-1,1,4,1,-2,-4,-1
1532113671671,0,-2,-1,-8,-2,-2,1,4
1532113671676,0,0,-2,-6,-4,-1,-2,-3
1532113671681,-1,0,-2,5,1,-1,-2,-1
1532113671686,-1,0,3,9,-1,0,2,1
1532113671691,-1,-2,-1,1,-1,-2,-4,1
1532113671696,0,-1,0,11,1,1,-1,0
1532113671701,1,0,-1,-7,2,-4,1,0
1532113671706,-1,-1,-1,-11,-3,-5,-3,-1
1532113671711,-1,-2,-2,-7,-3,9,5,-1
1532113671716,0,-2,2,0,-1,-4,-4,0
1532113671721,-3,-2,-1,3,1,1,1,-1
1532113671726,1,-1,-1,12,1,-1,0,0
1532113671731,-2,-1,-1,-10,1,-2,-3,-2
1532113671736,-2,1,-1,2,-22,-4,-1,-2
1532113671741,0,-1,1,4,4,1,-3,-1
1532113671746,-2,-1,1,-3,-4,-4,-2,-2
1532113671751,-4,-2,-5,-15,-6,0,0,-4
1532113671756,1,2,4,19,5,-1,0,-1
1532113671761,-4,-2,-4,-12,-4,1,0,-3
1532113671766,1,-1,-1,11,8,-11,-5,0
1532113671771,-3,-1,2,11,2,1,-1,-3
1532113671776,0,-1,-5,-39,-4,1,1,0
1532113671781,2,0,2,7,1,1,0,1
1532113671786,-1,-2,-2,-1,0,3,3,-1
1532113671791,-3,-1,-3,9,-6,0,-1,-5
1532113671796,1,-1,-1,-2,3,-2,-3,-1
1532113671801,-1,0,-5,-14,-2,-3,-2,-1
1532113671806,0,-2,0,-8,-3,3,3,-1
1532113671811,0,2,13,13,5,-3,-5,-5
1532113671816,-1,-2,-4,-9,-3,0,1,0
1532113671821,-2,-3,5,34,-2,-2,-1,-4
1532113671826,-1,-1,-5,-13,4,2,1,2
1532113671831,-1,0,-6,2,-4,-1,-1,4
1532113671836,-2,0,6,-7,6,-3,-1,-1
1532113671841,-1,-3,-13,-43,-4,4,0,-1
1532113671846,-1,-1,6,13,-2,3,-1,-3
1532113671851,2,-1,0,13,9,2,3,1
1532113671856,-2,-2,-7,-13,2,-1,-1,-3
1532113671861,-2,-3,-6,9,-7,-1,-2,-1
1532113671866,-1,-2,0,-5,-3,-1,-3,-1
1532113671871,-1,-1,-4,-21,-2,-4,-2,2
1532113671876,-2,-2,5,27,3,1,0,0
1532113671881,1,0,0,1,3,-2,-2,0
1532113671886,-3,-1,-3,-4,-7,-4,-2,-2
1532113671891,0,-2,-8,4,3,0,0,-2
1532113671896,-2,-2,7,14,-3,0,-3,-1
1532113671901,0,0,0,6,0,-1,-1,0
1532113671906,1,2,2,0,-4,1,1,0
1532113671911,2,-1,-4,-15,-19,-7,-2,-1
1532113671916,-1,0,-4,-1,23,6,1,0
1532113671921,-1,0,5,-7,-5,-2,-1,1
1532113671926,3,-1,-8,9,15,0,-3,-1
1532113671931,-1,-3,1,1,-2,1,0,-2
1532113671936,0,-2,-7,-5,-5,0,0,-1
1532113671941,-3,0,1,4,-1,-2,-2,0
1532113671946,-1,0,0,3,-5,-2,-2,-1
1532113671951,1,1,-2,-16,9,-2,1,1
1532113671956,-1,-3,-2,11,-13,-6,-3,-1
1532113671961,0,1,1,-8,6,2,1,0
1532113671966,-2,0,0,-13,-6,3,1,2
1532113671971,-1,-1,-6,1,0,-1,-2,-2
1532113671976,-1,2,1,6,0,-1,-2,-1
1532113671981,-2,0,2,-10,-3,-2,-2,-2
1532113671986,0,-2,-4,2,-4,0,1,2
1532113671991,-2,-1,3,-5,-3,-5,-2,-2
1532113671996,-2,-4,-5,13,3,7,3,-4
1532113672001,-2,-1,5,-12,-4,-1,-3,-3
1532113672006,0,-2,-15,1,0,-3,-2,0
1532113672011,0,3,16,-1,0,1,-1,-1
1532113672016,-2,-4,-7,-16,-3,0,-1,0
1532113672021,-2,-1,4,22,0,-4,-2,0
1532113672026,-2,-1,-6,-3,3,4,4,-4
1532113672031,1,2,-8,-35,0,-7,-4,1
1532113672036,0,-1,4,19,3,-3,-6,-3
1532113672041,-1,-2,-2,-3,-9,-1,1,2
1532113672046,-2,-1,-3,15,0,-3,-3,-3
1532113672051,0,0,-2,1,2,2,1,0
1532113672056,0,-2,2,-13,-2,-1,0,0
1532113672061,0,-1,-1,-4,-8,0,-1,0
1532113672066,0,-2,0,14,7,-1,-1,1
1532113672071,-1,-3,-2,12,-7,6,2,-2
1532113672076,-3,-1,-5,-44,-5,-2,-2,-3
1532113672081,0,2,3,16,4,3,1,-1
1532113672086,1,0,6,-5,-2,-2,-3,0
1532113672091,-1,-2,-4,-2,2,-5,-2,-2
1532113672096,0,-1,-7,8,3,1,0,0
1532113672101,-1,0,-14,4,-6,0,2,0
1532113672106,-1,0,8,-1,4,5,1,1
1532113672111,1,3,5,17,4,-7,-7,-1
1532113672116,-2,-2,-4,-3,-5,-6,1,0
1532113672121,-1,0,1,-24,2,1,-3,-2
1532113672126,2,0,-8,-17,-11,-1,0,1
1532113672131,0,1,6,7,0,6,4,1
1532113672136,0,-4,-6,7,3,-3,-3,-1
1532113672141,-2,-3,1,19,6,-1,0,-3
1532113672146,-2,-1,1,-6,-3,-3,-4,-4
1532113672151,-1,-2,-2,-13,-2,1,0,-2
1532113672156,-1,1,1,6,-4,0,0,0
1532113672161,-1,-1,4,-10,1,-3,0,1
1532113672166,-1,-2,-1,35,4,-2,-6,-4
1532113672171,-1,-1,-6,-36,-4,1,1,0
1532113672176,0,3,-11,9,-4,-1,1,1
1532113672181,-2,0,16,-7,8,-2,-3,-1
1532113672186,1,0,3,-27,-7,-2,3,2
1532113672191,-2,-2,-3,23,2,7,0,-2
1532113672196,0,1,3,3,-1,-3,0,-1
1532113672201,-1,-1,-4,9,-2,0,0,0
1532113672206,0,-1,-2,-10,2,3,2,2
1532113672211,-1,2,-2,12,5,-10,-3,-1
1532113672216,-2,-1,4,1,-4,-2,-2,-4
1532113672221,-1,-1,-5,-2,-2,1,-2,-3
1532113672226,-2,-3,-2,-7,1,0,0,-1
1532113672231,-1,-3,-6,-10,-4,0,0,-3
1532113672236,0,1,7,16,2,-5,-2,0
1532113672241,-1,-4,-6,-4,5,-3,0,0
1532113672246,0,-1,-1,-15,-7,3,1,0
1532113672251,0,-3,-1,-5,-1,-4,-4,-1
1532113672256,1,-3,3,8,1,-3,-4,-1
1532113672261,-1,0,-8,-4,-4,2,-1,-2
1532113672266,0,0,11,29,4,-1,0,-1
1532113672271,-1,1,6,13,-5,1,2,1
1532113672276,-3,-3,-4,-49,-5,1,-1,-3
1532113672281,2,0,-3,6,-4,-1,-2,0
1532113672286,0,-1,-3,-1,8,2,1,-2
1532113672291,-1,-3,0,22,-3,-8,-3,-2
1532113672296,-4,0,-3,0,-1,2,-1,-2
1532113672301,1,1,9,-24,1,3,0,3
1532113672306,-3,-3,-7,-12,2,-7,-5,-2
1532113672311,-1,-1,-3,-11,-9,-1,0,1
1532113672316,0,-1,-1,8,2,-2,0,1
1532113672321,-4,-2,0,14,-2,1,-2,-4
1532113672326,0,-4,-5,-4,-2,1,0,0
1532113672331,-1,0,-3,-5,-2,-1,1,1
1532113672336,0,-1,-1,-6,-4,-3,-1,-3
1532113672341,1,-1,-13,5,1,1,-3,-2
1532113672346,-1,-2,3,2,0,-6,1,2
1532113672351,0,-1,4,0,3,1,0,-2
1532113672356,0,-1,-4,6,2,3,3,1
1532113672361,-2,-1,4,-12,-3,0,2,-2
1532113672366,1,1,-10,-21,-1,2,0,1
1532113672371,-1,-2,-8,-11,-5,-5,-6,-2
1532113672376,0,-1,7,11,-2,2,2,2
1532113672381,1,1,0,21,1,-10,-1,1
1532113672386,0,-1,0,-18,-8,0,0,-2
1532113672391,-1,0,5,2,3,6,2,-2
1532113672396,0,0,-1,6,0,-3,-5,-1
1532113672401,-4,-3,-1,-3,-5,-1,-2,0
1532113672406,-2,1,-8,4,-1,0,-3,-3
1532113672411,-2,-3,3,-2,-1,0,0,0
1532113672416,-1,0,2,-14,-1,1,2,0
1532113672421,0,-1,0,1,0,2,1,0
1532113672426,-1,0,3,23,4,-5,-5,-1
1532113672431,-4,-3,-11,-14,-9,6,0,-3
1532113672436,-1,2,-1,-18,-2,-1,0,1
1532113672441,-1,-5,-3,-1,0,1,-1,0
1532113672446,-1,-2,-5,2,-2,2,0,-2
1532113672451,0,-2,-2,8,2,-5,-4,-2
1532113672456,-2,-1,2,-2,4,1,0,0
1532113672461,2,1,2,-2,-2,-3,-1,0
1532113672466,0,0,1,-4,-3,-2,1,1
1532113672471,0,0,-1,4,3,0,2,0
1532113672476,-1,-2,0,2,-7,-3,-6,-2
1532113672481,-1,-1,-4,-6,-4,0,1,2
1532113672486,-2,-1,-14,-6,1,-6,-3,-2
1532113672491,0,0,13,2,1,-3,0,-2
1532113672496,-1,-3,-4,11,5,-1,0,-1
1532113672501,-4,-2,-1,-4,-10,3,2,-1
1532113672506,-2,0,11,1,-5,3,0,-1
1532113672511,-1,0,-14,-28,-3,-4,-3,1
1532113672516,-1,-3,-3,16,0,2,1,1
1532113672521,-2,-2,1,2,1,-3,-3,-2
1532113672526,-2,-1,2,14,2,1,2,0
1532113672531,0,0,-4,-3,-1,-1,-2,-2
1532113672536,1,0,0,-12,-1,-1,-1,-1
1532113672541,1,-1,0,-3,0,0,2,2
1532113672546,1,0,4,2,-1,-1,-2,0
1532113672551,0,-2,0,10,1,2,0,-2
1532113672556,-1,-1,-1,-2,-3,-2,0,-2
1532113672561,1,1,-3,6,6,-5,-3,-1
1532113672566,0,1,18,4,0,1,0,-3
1532113672571,-1,0,-2,-4,4,-2,-2,3
1532113672576,0,-1,1,-12,-11,-1,0,0
1532113672581,-2,-2,-3,-2,0,-1,-2,-3
1532113672586,-1,1,-2,6,1,-2,-2,-1
1532113672591,0,-3,1,-2,-3,-1,-2,-2
1532113672596,-3,-3,-8,8,3,0,-1,-1
1532113672601,-1,0,4,0,6,0,2,0
1532113672606,-3,-2,-5,-11,-4,5,3,0
1532113672611,-1,0,1,3,0,-1,-3,2
1532113672616,-2,0,0,0,1,4,-2,-3
1532113672621,-1,-1,-2,-3,-3,-3,-3,-4
1532113672626,0,-3,0,-4,0,-1,0,2
1532113672631,-2,-2,-1,5,4,0,3,-1
1532113672636,1,-1,2,-2,-5,-7,-4,0
1532113672641,0,0,0,-2,-2,1,-1,-1
1532113672646,-1,-1,-7,-7,-4,-4,-1,0
1532113672651,-1,0,-1,3,3,4,2,0
1532113672656,-2,-1,4,-17,-6,-5,-3,-2
1532113672661,-1,2,7,27,-2,-2,0,0
1532113672666,0,0,-2,-10,-3,-2,-2,0
1532113672671,0,0,3,1,-2,-1,-1,1
1532113672676,-1,-2,-10,5,7,2,1,-2
1532113672681,-1,-1,0,-23,-15,-2,0,2
1532113672686,-1,-2,-2,10,5,-1,-2,-4
1532113672691,0,-4,-2,4,-1,-1,-2,-3
1532113672696,0,-2,-1,-17,0,-1,1,0
1532113672701,2,3,4,8,3,1,1,-2
1532113672706,-1,-2,-2,-8,-5,1,-1,-1
1532113672711,-1,1,3,10,1,-5,-1,-1
1532113672716,-2,-3,-2,9,6,8,1,0
1532113672721,0,-1,-3,-7,-3,-4,-5,-2
1532113672726,0,-1,-1,-5,7,5,0,0
1532113672731,-2,-2,-16,-5,-1,-2,0,-2
1532113672736,0,2,14,14,-6,-7,-6,-3
1532113672741,-3,-5,-5,-16,1,6,3,0
1532113672746,-1,2,2,-6,-4,-4,-4,0
1532113672751,-2,-4,-3,-9,4,4,0,-3
1532113672756,2,1,-6,10,-5,-1,1,1
1532113672761,-2,-1,-4,-11,-4,-2,0,-3
1532113672766,-1,0,3,11,1,-2,0,0
1532113672771,-2,-2,-1,-12,-3,-1,-2,0
1532113672776,-2,-1,3,0,2,-1,0,1
1532113672781,-1,-2,2,9,3,-4,0,-2
1532113672786,-3,-4,-4,7,-2,3,-1,-4
1532113672791,0,2,6,-5,-4,-2,0,0
1532113672796,-1,-3,-6,-19,-6,6,0,0
1532113672801,-1,0,0,9,4,1,0,-1
1532113672806,0,-3,-22,-8,-3,-4,0,-1
1532113672811,0,2,18,31,2,1,-1,-1
1532113672816,-4,0,-3,-28,-3,-4,-2,1
1532113672821,0,0,3,-1,-1,-1,0,-1
1532113672826,-1,-2,-6,3,5,-3,-3,0
1532113672831,1,-3,-3,-14,-16,7,4,2
1532113672836,1,2,1,12,1,-2,0,0
1532113672841,2,-1,-4,-4,-6,1,-2,1
1532113672846,0,-1,2,-3,-1,-3,-2,1
1532113672851,-1,-1,-1,15,-3,-5,0,-2
1532113672856,-2,-2,-1,-3,2,0,2,-1
1532113672861,-1,0,-4,-9,0,0,-3,-1
1532113672866,0,1,6,8,3,-1,-1,-3
1532113672871,1,0,-3,-12,-2,1,0,1
1532113672876,0,0,0,-1,0,-1,-3,1
1532113672881,-1,-3,-17,-6,-2,-3,-3,-3
1532113672886,-1,3,22,6,-3,0,0,-1
1532113672891,0,1,-5,4,9,0,0,-1
1532113672896,-1,1,0,7,-1,-6,-3,-1
1532113672901,-3,-1,0,-4,0,0,-3,0
1532113672906,-1,0,0,-5,4,1,1,0
1532113672911,-1,-1,-2,-11,-8,-2,-1,0
1532113672916,0,0,-5,6,-5,-2,-1,1
1532113672921,0,-3,2,-3,5,1,0,0
1532113672926,-2,-1,0,2,-4,-3,1,-3
1532113672931,-2,-2,0,4,5,-3,-3,-3
1532113672936,0,-3,-3,-9,1,-1,-2,-2
1532113672941,1,-1,0,6,-1,-3,-1,0
1532113672946,-1,-2,-3,-5,-1,-3,-3,-4
1532113672951,-2,-2,-5,-6,-6,7,0,1
1532113672956,-1,1,5,7,3,-1,0,1
1532113672961,-2,-2,2,-3,0,-1,1,-3
1532113672966,0,-1,-14,1,-8,-1,-3,1
1532113672971,-1,-3,4,4,-3,-3,0,0
1532113672976,-2,0,1,0,-3,2,1,-2
1532113672981,-1,1,3,-10,0,-2,0,0
1532113672986,-1,-2,-7,-12,-5,3,0,-1
1532113672991,-1,0,-6,-6,-6,-7,-5,-3
1532113672996,0,0,0,16,4,-1,0,0
1532113673001,-1,-3,-1,4,1,0,-1,-5
1532113673006,0,-1,0,-12,-3,1,0,0
1532113673011,-1,-3,-4,-2,-1,-1,1,-1
1532113673016,-2,0,1,1,4,1,-1,-2
1532113673021,-1,1,2,2,-2,0,0,0
1532113673026,-1,-1,-2,2,1,1,-1,1
1532113673031,-2,-1,2,-2,-1,-2,-3,-2
1532113673036,1,0,-12,-11,-4,-4,-3,-1
1532113673041,-2,-2,5,3,-1,1,1,1
1532113673046,1,0,7,5,-6,0,-1,1
1532113673051,0,2,1,-3,-1,-3,0,0
1532113673056,-1,-2,-2,3,8,-2,0,-1
1532113673061,-1,-1,-7,-7,-14,-3,-2,-1
1532113673066,-2,-2,-4,7,7,0,0,-4
1532113673071,0,1,4,5,-1,-1,-3,1
1532113673076,0,-1,0,-12,-2,0,1,0
1532113673081,-2,0,-3,-3,4,0,1,0
1532113673086,-4,-2,1,-6,0,-2,0,-2
1532113673091,-1,-1,-5,5,1,1,1,-3
1532113673096,1,-2,-4,10,-1,-4,-1,-1
1532113673101,-2,-2,-2,-8,5,1,1,-1
1532113673106,0,0,1,-4,-8,0,1,2
1532113673111,1,0,3,9,1,-2,-1,-2
1532113673116,-2,-1,-2,-8,3,1,-2,0
1532113673121,-1,0,13,16,0,1,-1,-1
1532113673126,0,-1,-3,-6,-3,-1,0,-1
1532113673131,-4,-1,3,14,3,1,-1,-3
1532113673136,0,-1,-4,-10,-10,-2,0,-1
1532113673141,0,-1,-4,-13,1,-5,-2,2
1532113673146,-2,-3,0,-3,-3,-1,-1,-2
1532113673151,-1,2,-3,3,2,1,-1,0
1532113673156,-1,1,3,3,0,9,3,0
1532113673161,-3,0,-4,-10,-3,0,1,-1
1532113673166,-1,-3,0,5,4,-1,-2,-2
1532113673171,-2,-1,-2,2,0,0,0,0
1532113673176,-2,-2,1,-4,0,-6,-3,-1
1532113673181,1,0,-2,-12,-4,-2,-1,1
1532113673186,-2,2,0,11,6,-1,-1,-2
1532113673191,2,-1,3,-4,-5,-7,-5,0
1532113673196,-3,-3,-5,-11,-14,0,-4,-3
1532113673201,1,-2,-1,-1,7,1,0,-4
1532113673206,0,3,17,17,-2,-1,0,-2
1532113673211,-1,-6,-13,-8,0,1,1,0
1532113673216,2,2,7,13,10,-9,1,2
1532113673221,-2,0,-6,-10,0,5,1,1
1532113673226,1,-3,-8,-7,-3,-5,-6,-2
1532113673231,-1,-2,4,-10,-2,2,0,0
1532113673236,1,-1,-1,6,6,-2,-1,-1
1532113673241,0,1,-3,3,-2,-2,-1,0
1532113673246,-2,1,1,6,-2,2,0,1
1532113673251,0,-1,1,-1,-1,-2,0,-1
1532113673256,-1,-2,-1,-11,-3,-4,0,-3
1532113673261,-1,-2,-4,-4,-1,2,1,2
1532113673266,-1,-3,-11,-3,-3,0,-3,-1
1532113673271,-1,1,3,0,1,1,-2,-1
1532113673276,0,0,-8,7,3,1,-2,-1
1532113673281,1,-1,7,-1,-3,-5,-2,-3
1532113673286,0,1,1,-4,4,-1,0,-2
1532113673291,0,-1,-4,-4,5,2,-1,1
1532113673296,-1,0,2,5,-13,-1,1,4
1532113673301,-2,-3,-7,6,3,0,-4,-8
1532113673306,0,-2,-6,-13,0,3,0,0
1532113673311,-2,3,5,-7,-2,-5,0,0
1532113673316,1,3,3,12,5,3,-1,-1
1532113673321,1,0,-3,-6,-5,-6,-5,-1
1532113673326,-1,0,3,-9,0,-3,1,-1
1532113673331,2,-1,-2,0,-1,2,1,0
1532113673336,0,-2,0,-3,-1,0,-4,-2
1532113673341,-2,0,3,8,-1,-1,-1,-1
1532113673346,0,-2,-5,1,0,1,-1,-1
1532113673351,1,-2,-2,0,3,-4,2,2
1532113673356,-3,-1,-6,-5,6,-4,1,-2
1532113673361,0,-3,7,-3,-12,4,1,-1
1532113673366,0,0,4,0,-3,0,-1,0
1532113673371,0,-1,-3,6,0,-3,-2,0
1532113673376,-1,-2,1,3,3,2,-1,-2
1532113673381,-1,1,-9,-10,-2,-4,0,0
1532113673386,-1,-1,0,-6,-1,2,0,0
1532113673391,1,0,4,8,-1,-1,0,-2
1532113673396,0,-2,-1,-1,2,0,0,0
1532113673401,-1,-2,-4,4,-1,-2,-2,-3
1532113673406,2,0,3,6,-6,1,-2,-1
1532113673411,0,2,-2,-11,1,-9,-4,0
1532113673416,0,-2,-1,-6,-4,1,1,1
1532113673421,0,-2,-4,-5,-2,-2,0,2
1532113673426,-3,-3,-1,6,-2,-2,-2,-1
1532113673431,2,-1,2,-1,-1,1,2,0
1532113673436,0,2,-14,-11,-1,-3,-2,-1
1532113673441,-3,-3,5,10,-2,-2,-4,-2
1532113673446,0,1,2,3,6,-2,-1,0
1532113673451,-2,-3,-4,-4,-5,2,-1,-2
1532113673456,-1,1,2,-4,1,0,0,-1
1532113673461,-1,-2,-7,-2,-11,6,1,1
1532113673466,-2,-1,-2,0,-3,-4,-2,-1
1532113673471,-1,-2,-3,-5,-2,1,0,0
1532113673476,0,-2,3,0,2,0,0,-2
1532113673481,0,1,-1,-1,3,-5,-2,-1
1532113673486,-2,-2,-2,1,0,2,1,0
1532113673491,1,1,2,5,-4,2,-1,1
1532113673496,-1,0,2,-4,-1,0,-3,-2
1532113673501,0,1,0,-4,3,-3,-1,1
1532113673506,-1,-1,5,4,-3,-1,2,0
1532113673511,-3,-6,-12,5,-1,-1,-3,-3
1532113673516,0,2,5,1,-4,-1,-2,-2
1532113673521,0,-1,-16,-10,2,-2,2,0
1532113673526,0,1,10,-5,-2,-4,-2,0
1532113673531,0,-1,1,2,10,-2,-4,-2
1532113673536,-2,-2,3,-1,-12,-2,1,0
1532113673541,-1,-1,1,2,-7,-2,-1,1
1532113673546,1,2,-6,-8,1,2,0,0
1532113673551,-1,-1,0,-2,-1,1,-1,-6
1532113673556,0,-2,-1,2,-1,-2,-4,-1
1532113673561,-3,-2,1,-7,-1,4,0,-1
1532113673566,-1,-2,-6,-2,9,-4,0,-1
1532113673571,-1,1,4,2,-2,2,-1,-1
1532113673576,-1,0,-2,-7,-3,-4,-1,2
1532113673581,-1,-1,3,14,0,-2,-1,0
1532113673586,-1,-1,0,-5,-7,1,-2,-5
1532113673591,-1,-3,-6,-11,-8,-2,-1,-1
1532113673596,0,0,-4,0,4,-1,1,-1
1532113673601,-1,-2,6,2,13,1,0,-4
1532113673606,0,0,-3,0,-4,0,-2,-2
1532113673611,1,0,-1,2,7,2,-1,0
1532113673616,0,-1,0,-2,2,0,0,-2
1532113673621,2,2,0,-1,1,-3,-1,-2
1532113673626,-1,-3,-6,2,9,2,0,-2
1532113673631,0,1,4,-5,18,3,2,3
1532113673636,-1,1,0,0,-19,-3,-2,0
1532113673641,-1,0,0,-1,8,-1,-1,-2
1532113673646,0,-2,-2,-5,-24,-5,-2,1
1532113673651,0,0,0,-1,-15,-12,-4,-2
1532113673656,-1,-1,2,3,11,7,3,2
1532113673661,-1,-1,-3,1,0,0,0,-1
1532113673666,-1,2,2,-4,11,-2,-2,-2
1532113673671,-2,0,-1,5,10,5,0,0
1532113673676,-4,-1,-1,10,6,-5,-4,-4
1532113673681,-1,-2,-2,-18,-68,-6,1,1
1532113673686,0,-2,-1,2,32,5,-2,2
1532113673691,-2,0,0,6,-25,-6,3,-1
1532113673696,-2,-4,-5,-17,3,5,0,-1
1532113673701,-2,-1,-3,10,6,-6,-3,-3
1532113673706,-1,0,-1,-10,-37,4,1,-2
1532113673711,0,1,5,50,29,6,2,2
1532113673716,-3,-2,1,3,17,2,-3,-6
1532113673721,1,-2,-9,-37,-44,-8,11,8
1532113673726,-4,-4,-7,-10,-2,-9,-5,-4
1532113673731,-1,1,10,8,28,0,-1,-6
1532113673736,-3,-8,-12,5,-66,0,-3,1
1532113673741,-2,0,3,-10,-39,-10,-15,-4
1532113673746,2,1,0,12,57,14,13,3
1532113673751,-1,-2,-8,-28,-27,-14,-10,-3
1532113673756,-1,0,3,-3,16,-9,2,-3
1532113673761,0,-1,-1,4,46,7,-2,-3
1532113673766,-2,0,-3,-6,-34,-11,-4,0
1532113673771,1,-1,1,-5,11,-2,-4,-2
1532113673776,0,-2,0,0,-3,-2,2,2
1532113673781,-1,1,-3,3,-20,8,4,0
1532113673786,-1,1,1,0,20,5,-3,1
1532113673791,-3,-1,5,14,31,-5,1,-3
1532113673796,0,-3,-7,-5,-43,4,17,-1
1532113673801,-1,0,1,-3,-2,4,-28,0
1532113673806,3,1,5,17,-20,-1,29,-2
1532113673811,1,-2,-2,4,36,8,-3,2
1532113673816,1,2,-1,11,-20,-6,-3,1
1532113673821,-3,-4,-6,-21,-7,-2,-5,-2
1532113673826,-1,1,1,7,16,-2,-8,3
1532113673831,-2,-3,-3,-6,-16,2,-1,-5
1532113673836,2,3,4,-14,38,12,-1,2
1532113673841,-3,-3,-6,5,-16,6,10,-1
1532113673846,-2,-2,-1,9,4,1,-9,-1
1532113673851,2,4,8,29,33,3,5,0
1532113673856,-1,-2,-1,-13,-11,-5,-12,-4
1532113673861,0,0,-1,-7,-35,-6,18,2
1532113673866,0,2,-2,-7,70,6,-1,-1
1532113673871,0,-4,-6,-5,-11,6,-1,2
1532113673876,-1,-1,5,28,6,-4,-15,-3
1532113673881,-1,-1,-2,-14,-2,-1,12,2
1532113673886,-1,-2,-4,-10,-14,-4,-9,-2
1532113673891,0,2,2,-6,14,-5,-3,-1
1532113673896,-1,-2,-5,6,-21,-5,8,-1
1532113673901,-3,-3,-6,-31,-52,-5,2,-4
1532113673906,1,2,2,14,11,5,2,4
1532113673911,-4,-2,-1,-11,-29,-5,-6,-2
1532113673916,-3,-3,-5,-11,4,-2,-1,-2
1532113673921,0,2,4,4,23,5,-18,-3
1532113673926,-1,0,-2,-7,-10,-2,27,2
1532113673931,-3,-2,-2,-7,0,-3,-3,-6
1532113673936,-1,-1,1,6,-9,5,3,0
1532113673941,2,0,-1,-2,27,-2,1,2
1532113673946,-1,-4,-4,-8,-23,-1,-14,-3
1532113673951,2,3,5,17,-1,1,1,0
1532113673956,-4,-4,-7,-46,-66,-11,0,-1
1532113673961,-3,-2,-7,20,32,4,-8,-2
1532113673966,-1,-3,-4,-16,-41,-8,-7,1
1532113673971,-1,-2,4,12,-8,4,5,1
1532113673976,-1,1,-4,-10,-23,-6,-9,-2
1532113673981,-2,-1,-1,-22,36,-6,0,-3
1532113673986,-1,1,2,17,-2,-6,2,-1
1532113673991,0,1,-6,-11,7,-2,-2,-1
1532113673996,-1,-3,-1,9,23,-6,-4,-2
1532113674001,0,1,-2,-1,-9,6,1,5
1532113674006,-1,1,0,-7,8,5,-1,-7
1532113674011,-2,-2,-4,-10,-12,-2,-5,-3
1532113674016,3,1,7,18,27,-1,0,2
1532113674021,-3,-2,-2,-3,-33,-8,-21,-11
1532113674026,-1,-3,-3,-11,-29,-1,-8,6
1532113674031,1,3,4,7,-4,2,20,-2
1532113674036,0,0,-2,0,17,3,-2,1
1532113674041,0,-3,2,9,29,0,-1,-3
1532113674046,-2,-1,-3,-6,-12,0,-3,1
1532113674051,-1,0,-2,2,-1,-7,-3,-2
1532113674056,1,1,-1,2,6,0,-7,0
1532113674061,1,1,6,9,13,3,11,-1
1532113674066,0,0,-1,-3,-24,-4,-6,0
1532113674071,-3,-5,-10,-9,2,-13,-3,-2
1532113674076,-3,-1,2,5,-19,10,-5,-4
1532113674081,-1,1,1,-3,-23,0,6,0
1532113674086,-1,-1,3,8,78,0,2,-3
1532113674091,0,0,-7,-4,11,2,-11,2
1532113674096,0,0,4,-5,49,0,4,1
1532113674101,-1,-1,8,10,13,12,2,-1
1532113674106,1,4,10,22,4,-1,-2,-2
1532113674111,0,-2,-3,7,-18,10,5,4
1532113674116,0,0,-1,7,24,-2,0,-1
1532113674121,-2,-2,-5,-16,-13,-8,3,1
1532113674126,-1,-3,-5,-33,-14,-5,-4,-1
1532113674131,0,0,3,4,2,0,-4,-4
1532113674136,1,-2,-3,12,-16,-4,5,5
1532113674141,-1,-3,-2,5,-3,-33,-5,-1
1532113674146,-2,0,0,3,-13,23,2,-6
1532113674151,-2,-1,-4,-12,-12,16,3,-2
1532113674156,0,1,-1,4,14,13,2,2
1532113674161,-4,-3,-1,12,3,-3,-1,-5
1532113674166,0,0,-2,-12,3,-8,-7,1
1532113674171,2,1,3,19,-1,-11,-2,2
1532113674176,-1,-3,-1,9,-34,-3,1,-4
1532113674181,1,0,-1,8,59,1,-3,0
1532113674186,-1,-2,-6,-6,-10,-5,0,4
1532113674191,-2,-2,-11,-8,1,3,-4,-3
1532113674196,0,-1,4,-2,-5,0,-1,2
1532113674201,1,1,0,-6,-31,0,-1,1
1532113674206,0,0,3,6,18,1,0,0
1532113674211,2,-1,2,0,26,0,-3,-1
1532113674216,-1,-2,-9,-12,-17,-9,-3,-2
1532113674221,0,-3,-4,-14,-16,6,-4,-2
1532113674226,1,1,2,4,3,3,1,0
1532113674231,-2,-3,-1,-2,-19,-8,-3,-1
1532113674236,-1,2,4,5,20,-2,-1,-4
1532113674241,-1,-1,0,-13,-9,7,2,1
1532113674246,2,-1,-4,6,-8,-7,-4,-1
1532113674251,0,0,4,1,-5,-1,-2,4
1532113674256,-4,-2,-4,-16,32,0,0,-3
1532113674261,0,1,-1,4,-17,1,-5,1
1532113674266,-1,-1,-1,-3,-2,-4,-3,0
1532113674271,1,0,1,-4,1,-6,-5,-1
1532113674276,1,1,0,12,3,-1,-1,0
1532113674281,-2,-2,-6,-3,-17,3,6,-1
1532113674286,-2,-1,-3,-8,1,0,1,-1
1532113674291,-1,-2,1,4,18,-4,4,0
1532113674296,-3,1,2,-9,-10,0,-6,-3
1532113674301,1,0,-1,11,5,-4,-3,-1
1532113674306,-2,-2,0,-22,-18,-5,-2,1
1532113674311,-1,-2,-4,-8,-3,1,-5,-1
1532113674316,1,2,9,32,10,6,-3,2
1532113674321,2,0,-2,-11,-7,-1,9,3
1532113674326,0,-1,1,11,-5,-1,1,-3
1532113674331,0,0,0,-17,-10,-3,0,-3
1532113674336,1,-5,-8,-11,5,0,1,-2
1532113674341,-1,-2,0,2,-16,-4,-5,0
1532113674346,0,-1,-1,14,11,-2,-5,0
1532113674351,-3,0,1,-13,-11,-1,0,-2
1532113674356,0,-2,-2,-8,2,-3,1,0
1532113674361,-2,-1,-1,-1,10,1,-4,-4
1532113674366,-1,-3,-3,-4,-22,1,3,-1
1532113674371,0,-2,2,10,13,-2,-1,-2
1532113674376,0,-1,-3,-7,-11,0,2,-2
1532113674381,-1,-1,-2,-2,3,-1,-1,-2
1532113674386,-2,-1,0,4,9,-1,-4,-3
1532113674391,-1,2,2,4,-3,1,2,-1
1532113674396,-3,-1,-4,-11,-10,-3,-3,0
1532113674401,0,2,6,15,9,2,1,0
1532113674406,-2,-1,0,-2,-5,-1,0,-2
1532113674411,-2,1,-1,0,-4,-2,-5,0
1532113674416,-2,-2,-2,2,-3,-1,0,-1
1532113674421,0,-3,-4,-3,-4,0,-2,0
1532113674426,-2,0,-5,-18,2,0,0,-2
1532113674431,-3,-1,-1,7,-5,-2,0,0
1532113674436,1,1,3,-2,1,-2,0,0
1532113674441,-1,-2,-2,5,-2,1,1,-1
1532113674446,0,-1,-1,2,1,-2,-1,-1
1532113674451,0,0,3,-3,-2,-10,-4,0
1532113674456,-2,-2,-1,-1,-3,-9,-1,-1
1532113674461,0,1,1,-1,2,17,-1,-1
1532113674466,0,0,-1,5,3,-5,6,1
1532113674471,-1,-2,2,-2,0,5,2,3
1532113674476,-3,-6,-3,-5,-1,-15,-3,-9
1532113674481,-1,-1,-2,-10,-9,3,-1,0
1532113674486,1,0,-1,6,1,5,2,0
1532113674491,0,0,-1,0,-5,1,-6,-2
1532113674496,3,0,-1,-1,-1,6,0,0
1532113674501,-7,-2,-1,-10,-3,-10,-18,-6
1532113674506,-2,-5,-3,5,-4,7,3,1
1532113674511,-2,-1,-2,2,-1,0,-1,-1
1532113674516,-1,1,-1,-3,0,0,0,1
1532113674521,1,0,-1,-3,-2,-4,-2,0
1532113674526,1,2,2,1,2,-5,-2,-3
1532113674531,4,-5,-4,-2,-3,3,3,-2
1532113674536,-3,0,-1,-1,0,-5,0,4
1532113674541,-2,-4,-2,0,0,-3,1,-2
1532113674546,-4,-2,-1,-1,0,-4,-2,-2
1532113674551,-5,-1,-2,-3,-1,0,4,-3
1532113674556,6,2,-2,-1,-1,4,4,2
1532113674561,0,-1,1,1,0,-5,-11,-1
1532113674566,0,0,-2,0,2,-4,10,9
1532113674571,5,-1,0,0,1,9,-1,-2
1532113674576,-3,0,-3,-4,-4,1,-3,1
1532113674581,2,1,2,11,2,-4,4,0
1532113674586,1,0,0,2,0,-4,-11,-3
1532113674591,-1,3,2,1,1,-3,4,1
1532113674596,0,-3,-1,-2,-1,2,-6,-1
1532113674601,-2,-1,0,-5,0,2,-8,0
1532113674606,2,0,-2,2,0,-2,18,6
1532113674611,-3,-3,-3,-3,-1,-4,-6,-5
1532113674616,-9,-6,-4,-1,-8,1,-1,-9
1532113674621,3,0,1,-1,1,-2,-2,2
1532113674626,-3,-3,1,-2,1,-7,-17,-2
1532113674631,2,0,-3,-7,0,5,1,1
1532113674636,1,4,5,10,0,3,0,2
1532113674641,0,-5,-18,-12,-5,5,10,-3
1532113674646,-3,-1,15,12,4,-1,-4,-5
1532113674651,-3,0,0,-3,-3,-2,-2,1
1532113674656,-3,-2,1,-5,-3,-1,-2,-2
1532113674661,2,4,0,0,-1,-2,6,2
1532113674666,1,2,-7,-3,-3,-1,-3,-3
1532113674671,-2,-4,-3,-7,-5,-10,-9,-4
1532113674676,2,2,0,4,3,-2,-1,0
1532113674681,-5,-6,-6,0,-4,1,4,-3
1532113674686,-1,-4,-13,-15,1,7,4,2
1532113674691,-2,4,22,20,1,-1,-2,0
1532113674696,-2,-3,-12,-8,-1,0,0,-1
1532113674701,-1,-1,8,-3,0,-8,-1,0
1532113674706,3,2,-3,-3,-8,0,-1,2
1532113674711,-2,-2,-8,-1,-1,0,-4,-3
1532113674716,-2,1,5,4,2,0,-1,1
1532113674721,-2,2,-1,1,-6,0,-4,-1
1532113674726,-2,-5,-6,-7,2,-4,-3,-3
1532113674731,-1,0,-3,-6,-1,0,1,0
1532113674736,1,1,3,7,2,-1,1,-4
1532113674741,-1,-3,-1,-5,3,2,5,1
1532113674746,-4,0,4,3,-3,1,-4,-5
1532113674751,2,-2,-7,-28,-8,-4,1,2
1532113674756,-1,0,5,13,3,-1,-1,-1
1532113674761,1,1,-13,-4,-1,-1,2,2
1532113674766,-4,-2,-2,-6,-3,0,-4,-9
1532113674771,-1,-5,-3,15,4,-2,-4,-3
1532113674776,-2,-1,0,-1,-4,3,2,1
1532113674781,-1,-1,1,-3,0,1,2,-1
1532113674786,1,-1,2,2,-11,-4,-2,1
1532113674791,-1,2,-2,10,0,1,-1,-3
1532113674796,0,-3,-5,1,3,4,0,-2
1532113674801,1,2,-12,-1,1,-1,0,1
1532113674806,-1,-3,4,-6,4,1,1,-2
1532113674811,0,2,3,5,0,-1,-1,0
1532113674816,-1,1,8,-4,-4,0,0,3
1532113674821,-5,-4,-6,1,1,2,-3,-4
1532113674826,2,0,5,2,-1,0,-2,2
1532113674831,-1,-5,-11,4,3,3,-1,-1
1532113674836,-1,2,5,12,5,-5,-3,0
1532113674841,0,-2,-1,-12,-4,9,5,5
1532113674846,-2,-3,3,-20,-3,-1,-3,-2
1532113674851,0,6,27,25,1,1,-1,1
1532113674856,0,0,-2,-9,1,3,1,0
1532113674861,0,0,-2,-7,-4,-4,-2,0
1532113674866,0,0,-11,-2,-5,1,1,-2
1532113674871,-2,-5,-12,-3,0,-4,-4,-5
1532113674876,1,0,8,6,3,2,0,-1
1532113674881,-1,2,-2,0,-4,0,1,0
1532113674886,-1,0,4,7,-3,7,3,0
1532113674891,1,-1,0,-11,-2,1,1,1
1532113674896,-2,-4,-4,4,6,-3,-2,-2
1532113674901,-1,-2,1,-5,8,-3,-4,-3
1532113674906,2,0,-14,12,-24,7,2,0
1532113674911,-3,-2,2,-27,-8,2,3,-3
1532113674916,1,1,4,9,2,-2,-2,1
1532113674921,-2,-1,-8,-13,-7,-16,-8,-3
1532113674926,-3,1,-1,69,11,0,0,-1
1532113674931,0,-1,8,-49,-2,-2,-1,0
1532113674936,2,2,4,17,-8,4,4,1
1532113674941,0,1,-4,-19,0,2,3,0
1532113674946,-1,-4,-7,-37,-4,-3,1,4
1532113674951,-1,1,-10,-13,-3,-2,-10,-3
1532113674956,-2,-7,-6,20,5,-4,3,-1
1532113674961,0,-2,-6,22,0,9,-5,-2
1532113674966,-2,-3,10,4,3,-1,4,-3
1532113674971,-1,-3,0,-6,-6,-4,0,1
1532113674976,-1,-1,-6,-5,1,-12,-8,0
1532113674981,-2,-3,10,11,-3,4,6,-1
1532113674986,-2,2,1,-37,-3,-7,-6,-5
1532113674991,-1,0,-3,13,2,-2,0,-2
1532113674996,0,2,-4,-28,-3,0,-2,0
1532113675001,-3,-1,-8,11,7,-1,3,1
1532113675006,-1,0,-2,-23,-2,1,4,0
1532113675011,1,6,23,3,8,-1,-10,-1
1532113675016,-2,-2,-6,1,-5,-6,-5,-2
1532113675021,-2,-3,1,9,-1,10,-3,-2
1532113675026,-1,0,5,13,11,-3,-7,-6
1532113675031,1,0,-15,11,-1,2,8,2
1532113675036,0,-3,1,-2,-4,9,2,-3
1532113675041,-2,-2,-2,5,-3,-5,-1,0
1532113675046,-1,0,3,-11,1,-6,-3,-1
1532113675051,-3,-5,-11,3,-6,-5,4,0
1532113675056,-1,5,12,83,7,20,-22,-4
1532113675061,3,3,6,-83,-2,-12,8,1
1532113675066,-1,-1,-9,-25,-18,1,-2,3
1532113675071,-1,-2,-5,17,3,-6,4,-1
1532113675076,-2,-1,5,15,-1,-5,4,2
1532113675081,-2,-2,-5,29,1,9,2,-3
1532113675086,-1,-2,0,0,0,-5,-8,-4
1532113675091,-2,-3,1,4,-3,7,2,0
1532113675096,0,1,-4,-31,-4,-7,2,-2
1532113675101,0,0,-6,-3,-3,-1,-3,-2
1532113675106,-2,-2,12,1,9,-2,5,1
1532113675111,0,-1,7,27,1,3,-4,-4
1532113675116,-1,-2,-3,-35,-2,-4,3,1
1532113675121,2,3,3,-2,-5,-6,-6,-2
1532113675126,0,-1,-6,4,0,9,3,-1
1532113675131,0,-1,-5,7,-1,-9,-8,-3
1532113675136,-1,-1,0,-14,-5,-1,9,1
1532113675141,-1,-2,1,2,-3,0,-6,-1
1532113675146,0,-2,-4,11,3,-1,-1,-3
1532113675151,1,-1,0,-3,5,7,4,1
1532113675156,0,-1,-1,-13,1,-6,1,-1
1532113675161,-1,-3,1,4,-5,3,6,1
1532113675166,0,1,0,12,1,0,-5,0
1532113675171,1,4,-1,-11,-2,3,-1,0
1532113675176,-1,-4,-1,-5,1,1,-2,-1
1532113675181,-1,-3,-5,6,3,2,-1,-1
1532113675186,0,1,-7,-6,-5,-4,2,-1
1532113675191,-1,1,11,3,-17,-6,-4,-2
1532113675196,-1,-1,-2,-5,-1,2,-1,-3
1532113675201,0,-1,-1,7,2,-2,0,-2
1532113675206,-1,0,-4,-11,5,-5,-6,-4
1532113675211,0,-1,-6,18,1,7,2,0
1532113675216,-3,-2,-2,-3,-1,-4,-2,-3
1532113675221,-2,0,-4,-27,-6,-4,1,1
1532113675226,-1,-1,3,2,-1,0,0,0
1532113675231,-1,-1,-4,-3,3,0,-1,1
1532113675236,0,-2,0,16,1,3,2,1
1532113675241,-1,0,1,4,1,-2,-1,-2
1532113675246,-1,-2,0,0,-3,-3,-6,0
1532113675251,-2,-3,-2,-7,4,10,4,-1
1532113675256,-1,0,-3,-2,0,1,-3,-3
1532113675261,-1,-1,1,7,-1,3,-6,-6
1532113675266,-1,-1,0,3,0,-6,-1,-1
1532113675271,3,-2,-3,-2,-1,-4,-1,0
1532113675276,-7,0,-4,-13,-7,0,0,-3
1532113675281,0,0,6,11,1,-4,1,0
1532113675286,-2,-1,-5,-1,2,4,-8,-1
1532113675291,0,-3,0,-5,7,-1,0,0
1532113675296,1,-1,9,-14,-4,-6,3,2
1532113675301,-1,0,-1,6,0,0,-2,0
1532113675306,-1,-2,2,10,-3,-6,0,-2
1532113675311,-5,-4,-9,-7,2,5,2,0
1532113675316,1,-2,-8,-8,0,0,-1,1
1532113675321,0,1,7,14,-1,3,4,4
1532113675326,2,1,-7,-8,1,-6,-7,-3
1532113675331,-2,3,3,-6,0,-4,-4,0
1532113675336,-2,-3,-2,1,-5,-2,-1,-1
1532113675341,5,0,-3,1,-1,2,0,2
1532113675346,-8,-4,0,1,0,1,3,-1
1532113675351,-2,-1,-1,-8,-4,-9,-4,-4
1532113675356,0,-1,1,2,5,9,1,0
1532113675361,0,-2,-3,22,-8,-9,-9,-3
1532113675366,1,1,2,-2,1,1,1,-2
1532113675371,1,2,-1,-30,-7,-12,-2,3
1532113675376,-1,0,0,3,-1,12,2,-1
1532113675381,-1,-1,-3,-7,3,10,4,0
1532113675386,2,-1,3,18,-1,-3,-4,0
1532113675391,-3,-2,-3,8,1,-4,1,-3
1532113675396,3,1,3,-4,2,-12,-7,0
1532113675401,-5,-5,-9,-7,-1,1,0,-3
1532113675406,-1,-3,-2,-4,-5,-1,4,-1
1532113675411,0,0,2,6,5,2,0,2
1532113675416,0,1,-8,11,-1,-3,-1,-1
1532113675421,-1,-1,7,-11,-8,-6,-3,-1
1532113675426,0,-1,2,-14,9,6,7,2
1532113675431,1,0,-1,2,-15,4,2,2
1532113675436,0,0,-1,3,-4,-10,-4,-2
1532113675441,-2,-4,-7,2,3,-3,-3,-3
1532113675446,0,0,-4,-6,-7,2,1,1
1532113675451,0,3,3,-1,3,1,-1,-1
1532113675456,1,-1,-1,0,3,-1,2,4
1532113675461,0,0,-2,-2,-3,-4,-2,0
1532113675466,-1,0,1,0,0,1,0,-3
1532113675471,1,-2,1,9,2,9,0,-2
1532113675476,-3,-5,-7,-9,-6,-4,-4,-2
1532113675481,0,0,0,-3,6,7,0,-1
1532113675486,-1,-1,0,5,-2,-4,1,0
1532113675491,-1,0,-4,-1,-2,-4,-5,0
1532113675496,-1,-1,1,-5,-4,5,2,-3
1532113675501,-3,0,3,-1,5,-5,-3,-1
1532113675506,1,0,-1,-1,-13,2,0,-2
1532113675511,-3,-1,-1,4,0,2,0,-1
1532113675516,0,-2,2,1,3,-8,-6,-5
1532113675521,-2,0,-9,-8,-10,-6,0,0
1532113675526,-2,-2,1,-2,-1,0,-2,1
1532113675531,-1,-2,4,2,3,-4,-1,-2
1532113675536,-2,0,2,0,3,2,-1,-1
1532113675541,1,1,2,-7,-2,-1,0,0
1532113675546,0,0,-5,-2,1,4,2,-2
1532113675551,0,-3,-5,0,-3,1,1,0
1532113675556,-2,0,1,2,0,-3,-1,-1
1532113675561,0,2,0,4,1,-9,-4,0
1532113675566,0,0,1,2,-2,2,-2,-1
1532113675571,-3,-2,-7,-9,-2,0,-2,-2
1532113675576,1,1,1,2,-2,2,2,2
1532113675581,2,-2,-2,0,0,2,0,0
1532113675586,-4,-3,-1,6,4,-1,-4,-3
1532113675591,1,-2,-4,-10,-1,-2,0,-1
1532113675596,-2,0,-1,-6,-7,-7,1,0
1532113675601,-2,0,2,-1,3,8,-2,-2
1532113675606,0,0,-1,0,-3,2,0,-2
1532113675611,0,1,3,4,-3,-17,0,0
1532113675616,-3,-6,-12,-1,1,25,-2,-2
1532113675621,-1,0,5,2,-5,-7,-2,-1
1532113675626,0,0,-1,-3,-2,-3,0,2
1532113675631,-2,-1,2,6,-3,-2,-2,-2
1532113675636,2,-3,-19,-13,3,-5,1,-1
1532113675641,-1,1,15,11,0,-1,2,0
1532113675646,-1,-3,-4,-4,4,3,0,-1
1532113675651,2,1,1,-6,-17,-6,-3,0
1532113675656,-1,-2,2,5,-5,-2,0,-2
1532113675661,-1,2,-2,3,12,2,-3,-1
1532113675666,-1,1,1,-4,3,0,1,-1
1532113675671,1,-3,-5,6,-1,1,1,1
1532113675676,1,1,0,-10,-14,-6,-3,1
1532113675681,-1,-5,-7,-8,-2,-3,-3,-8
1532113675686,-1,1,6,2,5,-2,0,1
1532113675691,-2,0,-3,0,0,3,-1,-1
1532113675696,0,2,9,4,4,-2,-3,-2
1532113675701,-2,-4,-1,-2,-2,-1,-1,0
1532113675706,-1,-4,-6,1,-2,-8,-4,-3
1532113675711,1,0,0,0,2,8,5,0
1532113675716,1,3,7,4,0,-12,-5,3
1532113675721,1,0,-2,-4,2,0,1,0
1532113675726,-1,-1,-1,-2,-5,0,2,0
1532113675731,-4,-2,-3,-2,1,-5,-3,-2
1532113675736,0,0,3,15,4,4,3,-1
1532113675741,1,1,0,-13,-4,0,1,1
1532113675746,-1,-2,-3,-7,0,-3,0,-2
1532113675751,3,-2,2,-1,-4,3,-2,-2
1532113675756,-7,0,-1,-2,5,-2,-3,-3
1532113675761,-1,-1,-5,4,-5,-6,-4,-1
1532113675766,-1,0,-1,0,-3,0,1,0
1532113675771,-1,-1,-2,-6,3,0,1,-1
1532113675776,4,-1,-1,-2,-1,-1,-2,-1
1532113675781,0,-3,-1,1,-3,1,0,0
1532113675786,6,0,3,-1,2,-3,-1,1
1532113675791,-9,-2,-4,5,-3,3,-2,-3
1532113675796,0,0,-1,-17,-4,1,0,0
1532113675801,-1,-3,-2,-2,1,1,3,2
1532113675806,-5,0,0,2,-1,-3,-4,-4
1532113675811,-2,-3,-2,8,-4,-4,-3,1
1532113675816,-2,2,4,1,15,6,4,-4
1532113675821,0,1,-1,-6,-5,-3,-6,2
1532113675826,-1,-3,10,13,-2,4,-2,1
1532113675831,-1,-5,-3,3,4,-2,-1,-2
1532113675836,1,0,-2,-3,2,-6,3,2
1532113675841,-1,0,-4,-3,-11,-3,2,0
1532113675846,0,-1,-4,-2,1,-1,-3,-1
1532113675851,-1,0,1,-1,4,-3,-2,-1
1532113675856,3,-1,-2,-3,-4,-2,-1,-2
1532113675861,-2,-2,-7,-5,0,1,-1,-1
1532113675866,-1,1,3,1,2,2,1,0
1532113675871,-2,-5,0,-6,-8,1,3,-1
1532113675876,1,1,-2,-2,-5,-4,-4,0
1532113675881,-3,-1,1,1,1,-3,-2,-3
1532113675886,-2,-2,-3,0,2,6,2,-2
1532113675891,1,2,10,-6,4,-2,-2,1
1532113675896,-3,-3,0,5,-3,-3,-1,-3
1532113675901,0,-1,3,3,0,1,1,-2
1532113675906,-1,-2,-11,-10,-15,-8,-3,1
1532113675911,-1,1,-4,1,6,-2,-2,-3
1532113675916,-3,-2,3,12,15,1,-2,-2
1532113675921,1,0,-3,-15,-9,1,1,4
1532113675926,-1,-5,-9,1,6,1,0,-1
1532113675931,-1,1,6,-7,-19,-3,-4,-2
1532113675936,0,-2,-2,-3,-7,-1,-1,0
1532113675941,-1,0,-2,19,50,10,4,0
1532113675946,0,1,4,-5,-25,-7,-2,0
1532113675951,-1,-3,-13,-10,5,0,-1,-3
1532113675956,-2,0,14,11,0,1,2,0
1532113675961,-2,-1,1,-5,-12,-6,-3,-2
1532113675966,-2,-2,-1,-4,8,5,-1,-1
1532113675971,0,1,0,4,-5,-4,-1,1
1532113675976,0,-1,-8,-4,17,5,1,-1
1532113675981,0,-2,-5,-1,-6,1,0,-1
1532113675986,1,0,3,-1,-2,-4,-1,-1
1532113675991,2,1,0,0,-1,0,1,-1
1532113675996,-1,-2,-4,-7,2,-1,-1,0
1532113676001,-1,1,4,4,6,1,-1,1
1532113676006,-1,-1,-5,-6,-15,3,1,0
1532113676011,0,-1,-3,2,-3,-1,0,-2
1532113676016,0,0,0,-7,-8,-2,0,1
1532113676021,-1,-1,-1,0,6,-1,0,-3
1532113676026,-2,-1,3,2,8,-5,-3,-2
1532113676031,1,0,-1,1,7,4,1,1
1532113676036,-2,-1,1,-1,-19,-4,-2,1
1532113676041,-1,0,-1,0,-1,-1,-1,-3
1532113676046,0,2,-1,1,4,-2,0,-1
1532113676051,-3,-1,0,-2,-7,-5,-1,-1
1532113676056,-1,0,-1,-1,-12,0,0,-3
1532113676061,-2,-4,-2,-4,24,-1,-2,-1
1532113676066,-1,-2,-7,-8,-17,-2,-1,2
1532113676071,1,1,2,4,12,4,3,0
1532113676076,-2,-5,-9,-6,-6,-5,-1,-2
1532113676081,1,2,13,12,9,-6,-6,-2
1532113676086,-2,1,3,-1,-6,-2,0,1
1532113676091,0,-1,-1,2,-2,-1,-1,1
1532113676096,-4,-1,-6,-3,2,4,1,-2
1532113676101,-1,-1,-7,-8,-13,-1,1,-1
1532113676106,1,1,2,3,11,-1,-3,0
1532113676111,-1,3,-2,0,-4,-4,-2,-1
1532113676116,-1,-1,2,-1,4,1,0,-2
1532113676121,-1,-1,-1,-3,-17,1,0,-1
1532113676126,0,-1,1,2,-2,1,-1,1
1532113676131,-1,-3,-2,-4,9,-3,-2,-2
1532113676136,1,0,0,2,0,-5,-2,1
1532113676141,-2,-1,1,-1,-13,-5,-1,-2
1532113676146,-2,-4,-3,-2,7,10,1,-2
1532113676151,1,-2,-3,-2,2,-2,-2,1
1532113676156,0,-2,5,2,-4,-2,1,2
1532113676161,-1,0,-4,-1,-14,0,-1,-1
1532113676166,5,1,2,5,0,-3,-4,-4
1532113676171,-7,1,2,-7,-3,1,6,2
1532113676176,-1,0,-5,-9,-5,-3,-10,-7
1532113676181,-3,-4,-4,-2,0,2,8,-1
1532113676186,-1,0,-1,1,-3,-1,-7,-2
1532113676191,9,-1,1,6,-1,3,7,3
1532113676196,-2,0,-1,-1,0,-9,-5,-2
1532113676201,-1,0,-2,-3,-2,5,1,0
1532113676206,0,-1,1,3,4,-4,-3,0
1532113676211,-1,0,2,9,12,1,-4,1
1532113676216,1,0,0,-8,-18,3,0,-2
1532113676221,-1,-1,-1,-10,2,-10,-9,-1
1532113676226,-6,-2,-3,6,-6,5,0,-2
1532113676231,-1,1,1,-5,5,5,0,-1
1532113676236,-1,-2,-3,-2,7,1,1,-1
1532113676241,1,-1,-1,5,-4,0,0,-2
1532113676246,3,1,1,-2,4,-4,4,1
1532113676251,-3,0,0,9,-3,-3,0,-3
1532113676256,0,-1,-1,-1,-1,-1,-6,0
1532113676261,1,-1,-2,-10,-6,3,-4,-1
1532113676266,0,0,0,0,8,-7,-5,1
1532113676271,0,-3,-1,-3,-7,-2,-9,-4
1532113676276,0,-2,-2,3,1,-3,8,3
1532113676281,0,-2,-2,4,-2,-5,-2,-2
1532113676286,-5,-1,1,-4,0,3,0,-3
1532113676291,4,-1,1,-5,1,-2,-4,0
1532113676296,-8,0,-2,1,-3,-2,1,-1
1532113676301,0,1,2,1,-1,6,4,3
1532113676306,3,1,0,-2,3,-2,2,1
1532113676311,-3,-2,-5,-7,10,-2,-6,-3
1532113676316,1,-1,-2,4,-15,-1,2,1
1532113676321,2,-1,2,3,-1,-4,-2,-1
1532113676326,-1,0,-2,-16,-9,5,-4,0
1532113676331,-1,-2,2,-4,1,3,10,-1
1532113676336,1,-1,-4,0,4,3,2,0
1532113676341,1,-3,-3,6,2,-2,-5,-3
1532113676346,-3,0,-3,-1,-4,-7,-6,-1
1532113676351,-3,-1,-4,-3,-6,-4,-3,-4
1532113676356,0,-1,1,-3,3,3,3,0
1532113676361,9,2,-1,0,-4,-1,1,2
1532113676366,-10,-1,-1,2,5,1,1,-3
1532113676371,-1,1,3,-1,-6,-1,-3,-2
1532113676376,-2,0,-3,1,4,0,-1,-3
1532113676381,0,1,0,-1,-1,2,0,1
1532113676386,-1,-3,-2,-4,0,0,2,2
1532113676391,-1,2,-2,0,-1,-6,-17,-6
1532113676396,0,-3,-2,1,0,7,11,2
1532113676401,-3,1,1,-1,0,-3,1,-4
1532113676406,6,-3,-2,6,0,1,2,-2
1532113676411,1,1,3,2,-6,-8,-4,-5
1532113676416,-14,2,2,-3,6,4,24,9
1532113676421,-2,-2,-4,-9,-7,2,6,2
1532113676426,-5,0,1,4,3,-12,-16,-6
1532113676431,4,-2,-3,0,13,2,0,2
1532113676436,5,3,3,3,-27,-5,-11,-4
1532113676441,-4,-2,-2,-6,3,-2,2,0
1532113676446,4,0,-1,-4,-7,2,6,2
1532113676451,-3,-3,-2,6,0,2,-8,-1
1532113676456,6,3,3,-6,4,1,-7,-3
1532113676461,-10,-6,-5,5,3,3,-6,-6
1532113676466,2,-2,-1,-5,-3,-8,2,-1
1532113676471,1,-3,-3,-1,-3,2,9,2
1532113676476,-7,0,3,5,5,-5,-14,-5
1532113676481,0,0,1,-4,-3,-8,-10,-1
1532113676486,-3,-2,-1,-4,0,5,0,-1
1532113676491,-2,1,-2,-7,-4,4,-6,-2
1532113676496,8,-1,-1,-1,0,-4,14,5
1532113676501,-1,0,0,8,-1,2,-1,-2
1532113676506,-3,-1,-2,-5,3,-2,2,0
1532113676511,2,0,1,-9,-5,-4,4,3
1532113676516,-2,-1,1,0,5,1,-20,-6
1532113676521,2,0,3,1,-2,1,15,1
1532113676526,1,0,-3,1,3,2,4,5
1532113676531,-12,-5,-3,5,-7,-2,-1,-6
1532113676536,4,0,-2,2,3,-3,-3,-1
1532113676541,-4,-3,-2,0,0,2,0,3
1532113676546,0,0,0,-3,-1,-4,-6,-2
1532113676551,6,0,-1,3,10,10,7,6
1532113676556,-6,-2,-3,-6,-7,-3,-6,-6
1532113676561,1,1,-3,6,0,-7,-6,1
1532113676566,-1,-1,1,-3,-13,2,-1,-4
1532113676571,2,0,-3,1,2,-3,3,3
1532113676576,-1,-2,-1,-1,4,1,3,0
1532113676581,2,0,0,0,0,1,-2,-2
1532113676586,-2,0,-4,-4,1,-6,-2,0
1532113676591,-2,0,2,5,1,-6,0,-2
1532113676596,2,-3,-4,1,-5,-3,-5,-1
1532113676601,-1,0,0,2,-2,0,-1,-3
1532113676606,-2,-3,-2,-2,1,3,-6,1
1532113676611,-2,-4,-7,-18,-8,-5,0,0
1532113676616,2,0,0,6,5,0,-1,-2
1532113676621,0,2,2,-5,-2,0,-1,0
1532113676626,0,1,1,4,-2,3,1,0
1532113676631,-5,1,0,-1,-4,-1,-1,-5
1532113676636,-2,-4,-4,-2,3,-2,-5,1
1532113676641,-2,2,0,1,7,3,1,1
1532113676646,1,2,0,-2,-13,-5,-1,-1
1532113676651,1,0,-1,-1,0,-1,-2,0
1532113676656,0,-2,-1,3,0,-7,2,2
1532113676661,-8,1,1,-5,2,1,1,-6
1532113676666,-3,1,1,-1,-2,0,-1,0
1532113676671,3,-3,-3,0,-5,-4,-1,-3
1532113676676,0,0,3,4,7,4,0,0
1532113676681,1,-2,-4,-3,-3,-2,-3,-4
1532113676686,-3,-2,-4,-4,-1,-1,-2,-4
1532113676691,0,3,2,2,-1,-7,-1,1
1532113676696,0,-2,-2,-2,-2,-2,0,-3
1532113676701,1,0,0,3,-2,-1,-1,2
1532113676706,5,-3,-6,-13,-5,6,4,7
1532113676711,-6,-2,-3,-2,-7,4,-8,-18
1532113676716,4,0,0,-1,1,-4,11,9
1532113676721,-2,2,1,-2,2,-1,2,-1
1532113676726,-1,-2,-2,1,0,-2,-3,-1
1532113676731,3,-2,-1,-4,-15,-1,-1,4
1532113676736,1,-1,2,2,2,-5,-1,-3
1532113676741,-2,1,1,7,22,7,5,2
1532113676746,2,0,0,0,-5,-4,-2,-2
1532113676751,1,-1,-1,-1,3,1,0,3
1532113676756,-2,-3,-2,-2,-7,-1,-5,-3
1532113676761,0,-2,-5,-6,-7,-2,-2,0
1532113676766,1,-1,-5,-4,-3,5,2,-6
1532113676771,-12,-1,0,3,-1,-4,-4,1
1532113676776,4,-1,2,2,7,5,1,2
1532113676781,0,-2,-2,-1,-9,-5,-4,-6
1532113676786,-9,-2,-2,-1,-5,-4,-2,-2
1532113676791,3,-2,-2,3,4,-1,1,1
1532113676796,2,0,-1,3,6,0,-2,-1
1532113676801,0,-1,-1,-11,-17,-3,-1,-1
1532113676806,2,1,5,1,1,-3,-3,-1
1532113676811,-2,-1,-1,-3,5,0,0,-1
1532113676816,6,-2,-3,4,4,1,-4,0
1532113676821,-2,-3,-3,0,-15,-4,0,-1
1532113676826,-2,0,-1,0,9,0,1,2
1532113676831,0,-2,-2,2,-16,1,-2,0
1532113676836,-2,-1,-2,-1,14,-2,-3,-3
1532113676841,3,-1,1,-1,-9,1,-1,5
1532113676846,-4,-1,-2,1,2,0,-3,-5
1532113676851,-3,-2,-3,-7,3,-1,-1,-3
1532113676856,3,3,5,-1,-3,1,-6,-2
1532113676861,-7,0,-3,1,3,-1,-4,-2
1532113676866,2,2,0,1,4,1,-1,2
1532113676871,0,-2,-1,2,-5,-8,3,2
1532113676876,-6,-1,-2,-3,-10,3,-2,-5
1532113676881,1,-2,-2,-4,-2,-3,0,-1
1532113676886,1,-1,0,2,10,3,1,2
1532113676891,1,1,1,3,-4,-6,-3,-2
1532113676896,-1,-2,-3,-9,1,3,0,-2
1532113676901,-3,0,-1,6,-2,0,0,-5
1532113676906,-3,-3,-1,-10,-5,-5,0,0
1532113676911,0,0,0,0,5,6,2,2
1532113676916,-1,-2,0,0,4,-2,-1,-2
1532113676921,2,0,-2,2,-4,2,-1,0
1532113676926,-1,-2,-2,2,-3,-6,-4,-1
1532113676931,-1,-1,-1,2,8,-1,1,-1
1532113676936,-3,-2,-3,-7,-11,0,2,2
1532113676941,1,0,0,3,2,-3,-1,-4
1532113676946,1,-1,-2,7,-13,-8,-2,1
1532113676951,-2,-1,0,-2,26,4,0,-1
1532113676956,-1,1,0,4,3,-3,1,-1
1532113676961,-2,0,-2,-2,-3,0,1,0
1532113676966,0,0,3,5,-1,2,0,1
1532113676971,2,1,-3,-11,-10,-2,-1,-1
1532113676976,-1,0,2,3,8,-4,-2,-2
1532113676981,-1,-3,-3,-6,-6,8,0,1
1532113676986,-2,0,1,0,4,2,1,-2
1532113676991,-1,-1,-1,1,-6,1,-2,0
1532113676996,-1,1,-2,3,2,-1,1,-2
1532113677001,1,-1,-2,-9,-1,-6,-3,0
1532113677006,-3,-2,0,11,5,4,1,0
1532113677011,-1,1,3,-14,4,-1,1,0
1532113677016,-2,-1,0,0,-16,4,0,0
1532113677021,0,-1,0,0,5,-4,-2,1
1532113677026,1,1,-2,2,-7,1,1,2
1532113677031,-3,-1,-2,6,2,-4,-1,-2
1532113677036,-4,-1,-2,-4,-2,1,-2,-1
1532113677041,2,-1,-3,-3,-10,-1,0,1
1532113677046,1,-1,1,-7,18,0,-3,-3
1532113677051,1,-1,-2,5,-9,-3,-5,-1
1532113677056,-2,-2,1,2,-2,-1,1,2
1532113677061,0,-1,2,2,8,2,2,-3
1532113677066,-1,-1,-1,-4,-7,-1,1,-2
1532113677071,0,-1,1,-3,-2,-4,-1,1
1532113677076,1,-1,-4,5,1,-3,-2,1
1532113677081,1,0,1,-3,-6,-1,1,1
1532113677086,-4,-2,-4,-9,-11,-4,0,-1
1532113677091,-1,0,-1,-2,4,-1,0,-1
1532113677096,0,2,3,0,-5,-4,-1,-1
1532113677101,-2,0,-3,-2,4,2,1,1
1532113677106,0,-1,-1,5,0,-5,-1,-1
1532113677111,-1,-2,-3,-15,-8,4,1,1
1532113677116,-1,-2,-4,14,1,-5,-4,-4
1532113677121,0,-1,1,-4,0,-1,-1,1
1532113677126,1,1,3,2,11,3,0,2
1532113677131,0,0,-1,-8,-14,1,1,0
1532113677136,1,-1,-2,-3,0,-2,1,-3
1532113677141,-1,-2,-1,10,5,0,-2,-2
1532113677146,-2,-2,-4,-8,-7,-5,-2,-1
1532113677151,-1,-2,-1,1,1,2,0,0
1532113677156,-1,0,1,-4,4,2,2,0
1532113677161,-3,-2,-2,1,-18,-7,-4,-5
1532113677166,0,0,0,-3,3,6,2,0
1532113677171,0,-3,1,0,-8,1,1,-1
1532113677176,-2,-2,-3,-9,-3,-4,-1,-1
1532113677181,-2,-1,-1,-3,7,0,2,-1
1532113677186,-1,0,-2,0,3,-2,-3,-1
1532113677191,-1,-1,-2,0,-9,-2,-2,-2
1532113677196,1,-2,0,-3,-2,2,-1,0
1532113677201,0,-1,-1,3,2,0,-1,-1
1532113677206,0,0,-2,-2,-1,-1,-1,-1
1532113677211,-3,-3,-2,0,4,-7,-3,-1
1532113677216,0,1,-1,1,-6,-1,-2,-1
1532113677221,2,0,1,0,3,1,0,2
1532113677226,-2,-1,-1,-4,-6,-5,-1,-4
1532113677231,1,1,-1,1,3,-2,-2,0
1532113677236,-4,-2,-4,-4,-3,-1,1,-1
1532113677241,-1,-1,2,0,1,-1,-3,2
1532113677246,-2,0,1,-1,-5,-2,-1,-3
1532113677251,1,-1,-1,-2,3,-2,1,-1
1532113677256,-3,0,-1,-2,1,2,-1,-2
1532113677261,-2,-2,-3,-1,2,-3,0,-2
1532113677266,-3,-2,2,3,-6,-1,-3,-3
1532113677271,-1,-1,-3,-2,7,3,-1,-1
1532113677276,0,-1,-1,-4,-2,2,2,-1
1532113677281,1,2,-1,4,0,-5,-3,0
1532113677286,6,-3,0,-2,2,-1,-2,2
1532113677291,-7,2,7,-3,-4,-2,1,-5
1532113677296,1,-2,-3,-2,-2,1,-2,0
1532113677301,0,-2,-1,-5,2,0,1,0
1532113677306,3,-1,1,4,-1,-3,-6,0
1532113677311,1,-2,-3,5,7,0,-2,-2
1532113677316,2,1,3,-1,-2,-6,0,0
1532113677321,-3,0,-3,5,-1,-2,0,-1
1532113677326,-2,-2,-5,-3,-11,-1,2,-2
1532113677331,-1,0,1,-1,5,1,-6,0
1532113677336,-2,1,2,4,-10,-4,8,-1
1532113677341,0,-2,-3,-1,0,2,-1,-2
1532113677346,4,1,-1,-8,1,3,5,3
1532113677351,-8,-3,-3,-3,-2,-6,-3,-4
1532113677356,-4,0,-1,0,1,3,-2,-1
1532113677361,-4,-1,-2,-3,7,1,-1,1
1532113677366,-2,0,-1,3,-10,1,1,-3
1532113677371,3,-1,0,0,1,-3,-3,-2
1532113677376,1,-1,1,-1,2,1,-3,-1
1532113677381,0,-1,0,2,0,1,2,1
1532113677386,-2,0,1,-3,3,0,-2,-2
1532113677391,2,-2,-2,4,0,0,-1,2
1532113677396,-3,1,1,0,8,0,-7,-2
1532113677401,7,-1,-3,-4,-13,1,-2,1
1532113677406,-11,-2,1,6,0,-2,0,-2
1532113677411,-2,-2,-4,-6,-3,4,2,-1
1532113677416,3,-1,-3,3,3,0,-2,-2
1532113677421,-1,-2,-1,-6,-3,-1,0,-2
1532113677426,1,0,-3,5,1,-2,-4,0
1532113677431,2,1,2,3,6,1,3,3
1532113677436,-4,-4,0,0,-6,6,2,-5
1532113677441,0,4,3,2,3,1,-3,-3
1532113677446,-1,-2,-2,-2,-8,-2,-1,0
1532113677451,1,-1,-1,-6,-1,-2,-1,-1
1532113677456,1,-2,-1,-2,-3,-5,-3,-1
1532113677461,-3,-4,-3,2,5,-1,0,-1
1532113677466,-2,-3,1,-5,-3,1,0,-1
1532113677471,-1,-1,0,16,-2,-1,-2,-5
1532113677476,0,0,1,-7,7,-1,-2,0
1532113677481,-2,-1,-2,-9,-4,-4,-2,-2
1532113677486,0,2,1,0,-10,-4,1,1
1532113677491,0,-3,-3,-1,-9,0,1,1
1532113677496,-1,-2,-2,8,23,-1,-2,-1
1532113677501,-1,-2,2,-2,-2,-3,-9,-3
1532113677506,7,0,-1,-7,5,4,12,5
1532113677511,-5,0,-2,3,-4,-1,-6,-4
1532113677516,0,1,-2,3,-3,1,4,0
1532113677521,-4,-2,-3,-4,1,-2,-1,2
1532113677526,0,0,-1,-1,-13,2,-7,-2
1532113677531,2,-1,-1,1,2,0,7,2
1532113677536,-5,-3,-1,-5,-2,-3,-8,-5
1532113677541,0,0,2,6,-2,3,3,1
1532113677546,-2,-2,-4,-11,-1,3,-1,0
1532113677551,2,-1,-2,-14,-5,-3,5,1
1532113677556,0,1,0,16,12,-4,-2,2
1532113677561,-1,0,0,6,-11,2,3,-3
1532113677566,-3,-3,-1,-7,15,0,1,-3
1532113677571,0,-1,-1,4,3,-5,-7,-3
1532113677576,-4,0,0,0,-11,0,0,0
1532113677581,-1,2,1,-6,2,-2,-6,1
1532113677586,-2,0,-4,-3,0,-2,5,-2
1532113677591,-5,-1,-2,-5,7,0,0,-2
1532113677596,-1,-1,-1,3,-6,0,0,-3
1532113677601,-1,-1,0,5,-3,-2,-10,-2
1532113677606,-2,0,-1,-4,7,-1,16,3
1532113677611,2,-1,0,0,-24,-3,-8,-3
1532113677616,-1,-3,-2,-5,15,0,0,-1
1532113677621,-2,-2,-1,-1,-1,3,0,-3
1532113677626,0,-1,0,6,10,-4,-6,-2
1532113677631,-1,1,0,2,4,5,5,5
1532113677636,1,1,0,-9,-6,-4,-6,1
1532113677641,2,-1,-2,-5,-24,-1,-4,1
1532113677646,-2,-2,3,11,46,4,10,-7
1532113677651,-1,-2,-1,-3,-13,-3,10,2
1532113677656,2,0,-3,-5,-15,-4,-10,-3
1532113677661,1,-1,-3,-4,5,-3,9,3
1532113677666,-4,-2,-1,12,0,0,-12,-2
1532113677671,-2,0,-2,-5,4,-1,-7,-4
1532113677676,3,0,1,-11,1,3,10,2
1532113677681,-3,-2,-1,2,19,-4,-5,-4
1532113677686,0,1,-2,8,-34,-5,-6,-1
1532113677691,-2,-1,2,-22,5,1,-2,0
1532113677696,-1,0,-5,-10,-11,-2,-1,1
1532113677701,4,3,3,16,4,1,5,2
1532113677706,-8,-2,0,-5,-22,-4,-11,-5
1532113677711,2,1,-1,19,17,2,3,2
1532113677716,-3,-3,-1,-8,-7,-3,3,-2
1532113677721,-2,-1,0,-12,6,1,-14,-3
1532113677726,1,-2,-3,-1,-11,-3,-3,-2
1532113677731,1,1,0,4,20,-6,-8,-2
1532113677736,3,3,5,8,-18,3,2,5
1532113677741,-5,-4,-4,-1,7,2,11,-7
1532113677746,-1,-1,-2,-6,-5,-2,-7,0
1532113677751,-1,0,1,-8,3,3,-2,-3
1532113677756,0,-1,-2,-5,-14,-5,-14,-1
1532113677761,-2,-3,0,-10,-11,-1,19,0
1532113677766,1,-1,1,3,20,-1,10,1
1532113677771,0,-1,-2,5,13,-6,-11,-4
1532113677776,-1,-4,-5,-11,-12,0,-4,1
1532113677781,0,-1,0,19,9,-3,-6,0
1532113677786,1,0,2,-18,-31,-4,-1,1
1532113677791,0,-1,-1,8,0,3,5,1
1532113677796,-1,2,4,1,9,-2,-8,-5
1532113677801,-1,-2,-3,0,0,-6,1,3
1532113677806,-1,0,-2,-3,2,0,5,-2
1532113677811,-2,-1,-1,-2,-13,2,0,2
1532113677816,-3,0,-2,3,-6,-1,0,-3
1532113677821,1,0,1,-5,5,-2,-6,-2
1532113677826,1,-1,-1,-11,4,0,-6,4
1532113677831,2,-2,-2,-7,-25,0,0,2
1532113677836,-8,-2,1,0,21,-2,10,-2
1532113677841,-2,0,0,12,24,1,-1,0
1532113677846,-3,-2,-2,-7,-14,-4,-10,-1
1532113677851,1,0,1,10,-1,-1,3,2
1532113677856,3,-3,-3,-1,-5,0,0,0
1532113677861,-1,1,-3,-8,-7,2,0,0
1532113677866,1,0,3,6,9,-1,0,-1
1532113677871,-4,0,0,0,-7,-5,-6,-3
1532113677876,-1,-1,-2,2,4,-1,0,-2
1532113677881,0,-1,0,-16,-12,0,-1,-1
1532113677886,1,-1,-1,4,-1,-2,-4,-3
1532113677891,-2,-2,1,11,-1,-2,-7,-2
1532113677896,-1,-1,-3,-10,2,2,15,2
1532113677901,-2,0,-3,-8,-1,-3,-2,-1
1532113677906,0,-1,-3,0,-3,0,-3,-1
1532113677911,-1,-1,0,-7,4,-3,14,1
1532113677916,2,-1,5,21,0,3,-24,2
1532113677921,0,-2,-2,-2,-13,0,1,2
1532113677926,2,-2,-3,1,-6,7,16,-4
1532113677931,-8,-2,-5,1,-3,-11,-9,-6
1532113677936,-1,-2,-7,-16,6,-4,-3,-3
1532113677941,-1,1,2,-2,-14,-3,-3,-1
1532113677946,-1,-1,2,4,12,-1,-8,1
1532113677951,4,-1,-1,2,-1,8,5,1
1532113677956,-4,-3,-4,-9,-3,5,8,-7
1532113677961,-2,0,-1,-5,0,2,7,4
1532113677966,-1,1,0,-1,-7,-6,-2,1
1532113677971,-2,-4,-4,-3,-2,-4,0,-4
1532113677976,0,3,3,3,2,6,-2,1
1532113677981,-3,-2,-4,9,-1,-2,0,-1
1532113677986,0,0,-1,-8,4,-7,-5,-3
1532113677991,1,0,-1,-1,-7,-1,1,0
1532113677996,-3,-2,1,-1,-4,-3,0,1
1532113678001,1,3,3,0,23,0,-11,-2
1532113678006,-1,-2,0,4,-5,1,7,0
1532113678011,-2,0,-1,5,7,-1,-4,-4
1532113678016,-2,1,0,3,-9,-3,-1,-1
1532113678021,0,-2,-4,-10,2,2,1,2
1532113678026,0,-2,0,9,-18,-2,0,3
1532113678031,-1,-1,0,2,4,-5,-17,-6
1532113678036,-1,-1,-2,-4,5,0,12,1
1532113678041,1,-1,0,-16,-10,-5,-7,-2
1532113678046,-1,0,2,10,7,1,-1,0
1532113678051,1,-2,-2,6,-5,-2,-19,-3
1532113678056,-4,-3,-4,-12,1,-6,4,2
1532113678061,-2,-2,0,4,-7,3,6,1
1532113678066,-2,0,-2,-12,6,-3,-5,0
1532113678071,2,1,1,2,-5,2,16,0
1532113678076,0,-1,0,-1,3,-1,-9,-1
1532113678081,-2,-1,0,1,-6,-1,2,-1
1532113678086,-2,-2,-2,7,8,3,1,0
1532113678091,0,-2,1,0,-2,5,7,5
1532113678096,0,-1,-2,-4,1,-8,-12,-8
1532113678101,0,-1,0,-6,-4,-3,3,0
1532113678106,0,0,-1,-1,-3,0,-2,-3
1532113678111,-3,-3,0,9,2,-2,-1,-2
1532113678116,-3,-1,-2,7,0,2,0,0
1532113678121,0,0,-3,-16,-15,0,-5,0
1532113678126,0,0,0,-5,-6,-4,-2,-1
1532113678131,1,2,-1,2,3,2,5,0
1532113678136,0,-2,1,6,12,0,-6,-1
1532113678141,-1,-1,-1,1,-5,1,3,-2
1532113678146,0,-1,0,-7,-5,-3,2,4
1532113678151,0,0,-3,-3,8,-5,-3,0
1532113678156,-1,-3,0,3,-8,-3,-4,-1
1532113678161,-2,-1,-2,-1,4,0,1,-2
1532113678166,-1,-1,-2,-6,1,-1,-1,-2
1532113678171,1,3,3,8,-5,0,-2,-2
1532113678176,-1,-1,-2,-6,4,-1,-1,-1
1532113678181,0,-3,-1,-5,-3,0,0,-1
1532113678186,0,-3,-2,4,3,-3,-10,-3
1532113678191,-3,-3,-6,-8,-5,4,6,-2
1532113678196,-1,-1,0,5,-6,0,-9,-3
1532113678201,4,-3,-2,2,1,2,1,1
1532113678206,-4,1,1,0,2,-1,-6,-4
1532113678211,1,-2,-1,-4,-4,-2,4,1
1532113678216,0,1,2,-2,8,-1,1,0
1532113678221,0,0,0,2,-16,-1,-3,-1
1532113678226,-1,-5,-6,-9,10,7,3,1
1532113678231,-1,0,0,-5,-4,-2,-27,-6
1532113678236,2,0,1,2,0,3,47,5
1532113678241,-1,-1,-1,2,1,-6,-7,-2
1532113678246,0,0,1,4,1,0,5,2
1532113678251,-1,0,-1,-14,-7,2,1,0
1532113678256,1,0,-1,-2,-12,-4,-12,1
1532113678261,-1,2,2,9,9,1,2,1
1532113678266,-2,-1,-3,-9,-4,9,11,0
1532113678271,0,-1,0,2,6,-6,-5,0
1532113678276,-2,-1,-2,-8,-5,-3,-9,-3
1532113678281,-1,-2,3,5,1,-1,-6,-4
1532113678286,-1,-3,-2,9,-5,-4,-5,-2
1532113678291,1,0,-2,-9,6,5,6,1
1532113678296,-2,-1,-2,0,1,-2,-7,1
1532113678301,-3,-1,0,3,0,0,-5,-1
1532113678306,-1,-3,-2,4,4,-2,-1,-5
1532113678311,-1,-1,-2,-8,-8,-5,3,0
1532113678316,-2,-2,-3,-6,0,1,-4,-2
1532113678321,-1,0,-2,-3,-1,-3,-1,0
1532113678326,2,2,3,2,-2,-2,0,2
1532113678331,-1,-2,-2,4,-1,-5,3,0
1532113678336,-2,0,-1,2,-3,2,-7,-2
1532113678341,0,-2,-2,2,7,-6,-1,0
1532113678346,0,0,-2,-5,3,0,1,-2
1532113678351,-3,-2,-1,-4,-3,3,0,0
1532113678356,-1,-3,-2,-6,-6,0,-4,-3
1532113678361,0,1,1,2,4,3,5,-2
1532113678366,0,-1,-1,8,-1,-4,1,-2
1532113678371,0,-2,0,1,9,1,-2,-2
1532113678376,-2,0,0,3,3,-3,-9,0
1532113678381,0,-2,-3,1,5,11,13,5
1532113678386,-1,0,1,-3,-12,-7,-4,-2
1532113678391,-2,-1,-2,-5,-5,-3,-5,-2
1532113678396,0,3,0,6,0,-3,-15,-3
1532113678401,0,1,-2,-17,-2,4,7,1
1532113678406,-1,0,-3,-1,-1,1,1,0
1532113678411,-1,-2,-1,3,-4,-1,1,0
1532113678416,-1,-3,0,1,-4,-3,1,-1
1532113678421,-2,-2,-2,0,0,-3,-7,-3
1532113678426,-1,0,0,6,0,2,3,0
1532113678431,-1,0,0,-9,-4,-1,-2,-3
1532113678436,0,-1,-1,2,7,0,-8,-5
1532113678441,-3,-1,0,-6,-4,0,6,2
1532113678446,0,-2,-3,3,-2,-2,1,-2
1532113678451,-1,-1,1,6,4,-2,-2,1
1532113678456,1,-2,-1,-5,-5,0,0,-3
1532113678461,-1,0,1,4,-9,-4,-6,-5
1532113678466,1,0,0,-3,3,1,-3,2
1532113678471,1,-1,-1,-2,-1,-5,2,0
1532113678476,-1,-1,-3,-1,2,9,5,0
1532113678481,-2,-1,-3,0,-3,-3,-5,-1
1532113678486,-1,0,0,-4,0,-4,2,-1
1532113678491,0,-1,-2,-1,2,3,-1,-2
1532113678496,-1,-2,-1,-5,0,-3,2,1
1532113678501,-1,0,-1,3,-1,-2,-6,-2
1532113678506,0,1,1,-2,-2,5,-3,-3
1532113678511,-1,0,1,0,-4,-4,0,0
1532113678516,1,-1,-2,1,-2,-4,-1,-1
1532113678521,-2,-3,-2,-5,-3,2,0,-3
1532113678526,-1,0,0,-2,1,-3,0,0
1532113678531,-2,0,1,0,-1,-1,-3,-2
1532113678536,-2,-4,-1,2,3,1,5,3
1532113678541,-1,-4,-3,0,2,-1,-1,1
1532113678546,-2,0,-2,-6,-6,-2,-7,-4
1532113678551,0,-1,-2,0,4,2,15,1
1532113678556,0,0,-1,-11,-6,-5,-20,-5
1532113678561,0,1,0,0,2,-7,-4,-2
1532113678566,-2,-2,-3,1,-2,-1,2,0
1532113678571,0,1,1,7,3,1,-4,1
1532113678576,0,-1,-1,0,-9,-2,2,1
1532113678581,1,-1,1,-4,2,0,0,-2
1532113678586,2,-1,3,6,0,-1,-1,-1
1532113678591,-1,-2,-3,1,-1,2,-1,1
1532113678596,-1,-2,-1,-4,1,-3,0,-2
1532113678601,0,1,-2,-3,-2,2,-7,1
1532113678606,1,0,-2,4,0,-3,-1,4
1532113678611,-2,-2,0,0,-1,2,-3,-1
1532113678616,-2,0,0,-7,-4,-1,-6,-2
1532113678621,-1,-1,-1,1,-3,-3,5,0
1532113678626,-1,-3,-1,-2,1,1,1,0
1532113678631,0,-1,-3,-5,-7,-5,-5,0
1532113678636,0,2,-1,4,4,-1,-1,-3
1532113678641,-3,0,0,-5,-1,4,4,0
1532113678646,-1,-1,-2,0,-1,-2,-5,-1
1532113678651,-3,-2,1,-3,-5,0,1,0
1532113678656,0,1,3,7,13,2,7,2
1532113678661,1,-1,-1,4,-1,-2,-4,1
1532113678666,0,-1,0,7,-2,-2,0,-2
1532113678671,-2,-2,-5,-25,-5,-3,-7,-5
1532113678676,0,1,-1,1,2,2,11,4
1532113678681,0,0,2,4,3,-1,-7,-4
1532113678686,-2,1,-2,3,1,0,-2,-1
1532113678691,-1,-2,-2,6,4,1,-2,0
1532113678696,-2,-2,-2,-8,-11,0,1,2
1532113678701,-3,-2,-3,-2,-9,-5,-2,-2
1532113678706,-1,-1,1,0,5,8,2,-3
1532113678711,1,1,2,8,8,0,2,-1
1532113678716,0,0,-2,-3,-16,-3,-1,2
1532113678721,-2,-1,-3,-3,1,1,-3,0
1532113678726,0,-1,-1,3,-2,-3,-2,-1
1532113678731,-1,-2,-2,-4,-3,1,3,0
1532113678736,0,-2,1,-1,10,1,-2,-3
1532113678741,1,1,1,0,-2,-6,-5,0
1532113678746,-1,-4,-3,-8,-3,-2,0,1
1532113678751,1,0,-1,-2,2,7,2,-1
1532113678756,0,-2,-3,7,-1,-3,0,-1
1532113678761,1,-1,1,1,2,-1,1,0
1532113678766,0,-1,-2,-10,-9,-4,-2,0
1532113678771,-2,0,-1,5,-1,-3,-3,-3
1532113678776,-2,-1,-2,-4,-1,1,-3,0
1532113678781,0,0,0,4,5,1,3,0
1532113678786,-2,-3,-3,0,1,-2,-3,-3
1532113678791,-2,-1,1,4,-2,-4,-3,-1
1532113678796,-1,1,0,-6,2,0,-1,-1
1532113678801,1,0,-3,-1,-4,-2,-1,1
1532113678806,-2,1,0,-3,-1,6,1,-1
1532113678811,-1,-1,-2,-2,-2,-2,-6,-5
1532113678816,-2,-2,-2,5,-2,3,0,-1
1532113678821,-1,-2,-1,-9,1,-1,-1,-2
1532113678826,-1,-1,-1,-5,-8,-4,-7,-2
1532113678831,-1,-3,-2,4,-1,-3,-2,1
1532113678836,-1,-1,0,2,3,0,-7,-4
1532113678841,0,-2,0,-9,-4,-4,-1,1
1532113678846,0,0,-1,-12,-2,0,-2,-4
1532113678851,0,0,0,5,4,-1,2,-1
1532113678856,-1,-2,1,3,-10,-1,-4,-1
1532113678861,-1,-1,0,-5,-2,-1,2,-2
1532113678866,-2,-2,-1,0,3,-1,2,0
1532113678871,-2,0,-1,1,-10,-4,-6,-3
1532113678876,1,0,-1,3,-1,-7,-1,0
1532113678881,-2,1,-2,1,9,5,4,0
1532113678886,0,-1,0,-6,-1,3,-2,-2
1532113678891,-1,-1,-1,6,0,0,-2,-1
1532113678896,-1,-2,-2,-19,-3,-4,2,2
1532113678901,0,-1,1,3,-1,-5,-5,0
1532113678906,2,-1,-1,-2,1,0,4,4
1532113678911,-1,-4,-1,4,0,3,-2,-5
1532113678916,1,-1,-1,2,1,-2,9,0
1532113678921,2,-1,0,2,0,4,0,0
1532113678926,-1,0,0,0,-3,-1,-1,0
1532113678931,0,0,0,-4,1,2,3,-2
1532113678936,-2,-2,0,-3,-2,-1,-2,-2
1532113678941,-1,-1,-1,4,-4,-4,-2,1
1532113678946,-1,-2,-2,6,9,-3,0,-2
1532113678951,-1,-1,-2,-16,-4,5,0,2
1532113678956,-1,1,0,0,-8,-6,0,-2
1532113678961,1,1,1,6,-2,3,9,-2
1532113678966,-3,-3,-3,4,1,-3,-2,-2
1532113678971,-1,1,-1,-2,6,3,2,-1
1532113678976,0,-2,-1,-5,5,0,1,2
1532113678981,0,0,-2,2,-1,-4,0,2
1532113678986,-1,-2,-2,-3,-6,1,-2,0
1532113678991,0,-1,0,-2,2,-7,-4,-3
1532113678996,-1,-1,-2,0,-4,3,1,0
1532113679001,0,-1,1,-1,-2,0,-13,-3
1532113679006,-1,1,1,0,4,1,-2,-1
1532113679011,0,1,0,0,0,-1,3,-1
1532113679016,-1,-3,-3,6,-5,0,-8,-2
1532113679021,-3,0,0,-9,-2,0,-3,-2
1532113679026,-3,-1,0,-5,-3,2,-3,-1
1532113679031,-3,-2,-2,1,0,-2,0,1
1532113679036,0,-1,-2,-1,7,2,13,-2
1532113679041,0,-1,-3,-2,-1,-2,-10,0
1532113679046,-1,-1,-1,-2,-7,-7,-2,1
1532113679051,0,0,-2,0,3,2,-3,-1
1532113679056,-1,0,-1,3,3,1,-1,-1
1532113679061,0,-2,0,2,3,-2,3,1
1532113679066,1,0,1,-6,-7,-7,0,-1
1532113679071,0,-3,-2,2,0,2,-3,-4
1532113679076,0,0,1,8,-2,-6,-7,-1
1532113679081,-1,-2,-4,-17,3,5,-2,-5
1532113679086,-2,-1,-2,1,-2,-2,-2,0
1532113679091,0,0,-2,-4,-4,-3,-3,2
1532113679096,-1,1,-1,6,3,-4,3,0
1532113679101,-1,0,1,1,-7,0,-1,1
1532113679106,0,-3,-1,3,2,3,2,-2
1532113679111,0,1,-1,-8,-3,-2,0,0
1532113679116,1,4,1,5,-3,-3,-5,0
1532113679121,0,0,-1,0,-3,-5,1,-1
1532113679126,0,-1,-1,2,3,2,-2,-1
1532113679131,-2,-3,0,6,2,-3,1,-2
1532113679136,-2,-2,-3,-11,2,3,-4,-2
1532113679141,-1,0,0,4,-4,0,4,1
1532113679146,0,-2,-1,-4,1,-2,-2,-2
1532113679151,0,-2,-2,-5,1,-1,0,-2
1532113679156,1,0,-2,-11,-6,1,-10,-1
1532113679161,-2,-3,1,8,2,-2,3,-2
1532113679166,-2,1,0,0,-1,1,-6,-3
1532113679171,1,-2,-1,9,2,-1,12,3
1532113679176,-2,-1,-1,-3,-7,-1,0,-2
1532113679181,3,1,0,-12,-1,-2,1,1
1532113679186,-1,-1,-2,-1,-3,-1,2,-4
1532113679191,0,-2,-1,-2,0,-2,-3,1
1532113679196,-1,-2,-1,4,2,9,0,0
1532113679201,-1,-2,-1,6,-2,-2,2,1
1532113679206,0,-2,-1,-5,-3,2,0,-2
1532113679211,-1,0,-2,1,1,-7,-8,-1
1532113679216,-1,-2,0,-1,4,-5,-5,-4
1532113679221,-3,-4,-4,0,-6,1,-1,-1
1532113679226,0,-2,-3,-11,7,7,7,2
1532113679231,-2,1,0,2,-15,2,-3,-1
1532113679236,-1,0,-1,-5,2,0,7,3
1532113679241,-1,-2,-4,5,5,-1,-4,-2
1532113679246,-3,-2,-2,-3,-10,-6,-5,-2
1532113679251,2,-2,0,-4,0,-1,-5,0
1532113679256,3,0,-1,-3,0,0,4,3
1532113679261,-1,1,-1,12,4,1,1,0
1532113679266,0,-1,-1,4,1,-1,-8,-2
1532113679271,-1,-1,-1,-12,-2,-5,1,0
1532113679276,1,-1,-3,-1,-1,-3,-8,-1
1532113679281,-1,-1,-1,-1,-2,-1,4,1
1532113679286,0,-1,0,4,1,-1,3,1
1532113679291,-2,-2,-2,1,3,10,-1,-4
1532113679296,-1,-2,-1,2,-3,-4,-1,0
1532113679301,-1,0,-2,-4,-2,-2,-2,-3
1532113679306,-1,2,0,0,2,3,4,2
1532113679311,-1,-3,-3,0,2,1,-2,-1
1532113679316,-1,0,0,-5,-7,3,0,0
1532113679321,0,0,1,4,-3,-1,-9,-6
1532113679326,1,0,-1,-9,-4,-9,6,5
1532113679331,0,0,1,5,5,3,-2,-3
1532113679336,-2,0,-2,-1,1,0,1,-1
1532113679341,-1,0,0,-9,-8,0,0,1
1532113679346,-1,-1,-1,10,9,0,-6,-4
1532113679351,-1,1,4,7,-11,-7,-3,2
1532113679356,-1,-3,-3,-7,-2,1,15,-2
1532113679361,-1,0,-2,-11,5,3,-14,-4
1532113679366,0,-2,-2,1,-1,0,1,-1
1532113679371,-3,0,-2,1,0,-2,-1,-3
1532113679376,-2,0,0,8,0,-1,-8,-2
1532113679381,0,0,0,0,-1,-5,7,1
1532113679386,0,-1,-1,-4,0,-1,-1,-2
1532113679391,1,1,0,-4,1,0,-1,0
1532113679396,-1,-1,0,1,-2,-2,-15,-2
1532113679401,0,-1,-2,-5,-3,-9,0,-1
1532113679406,-2,-1,0,2,3,2,-3,0
1532113679411,0,-1,-2,-7,-9,-2,0,0
1532113679416,-3,-1,-1,-8,-3,-2,-2,-3
1532113679421,-1,-1,-1,5,1,3,6,2
1532113679426,-2,2,1,-1,-5,0,7,0
1532113679431,-2,-2,-2,-2,-5,-6,-3,3
1532113679436,-1,-1,2,0,0,-3,-4,-2
1532113679441,-2,-2,-1,-2,4,4,2,-1
1532113679446,-2,1,1,2,-4,-5,-5,-4
1532113679451,0,0,-1,0,6,5,14,3
1532113679456,1,1,-1,1,0,-3,-15,0
1532113679461,0,-2,0,-1,-4,-2,-1,-3
1532113679466,1,-2,2,6,3,-1,0,4
1532113679471,-3,0,0,-10,-5,-2,-4,-5
1532113679476,0,1,-1,-1,4,-1,5,0
1532113679481,-1,-1,0,1,1,-1,-1,-1
1532113679486,0,0,-3,-2,-3,1,-9,-3
1532113679491,2,0,-1,-9,3,-3,3,2
1532113679496,0,0,1,1,-1,4,15,1
1532113679501,0,1,0,-3,1,-7,-6,1
1532113679506,-1,-1,-2,3,-3,-3,1,0
1532113679511,0,-1,0,9,1,-2,-6,-1
1532113679516,-1,-3,-1,-2,2,0,0,0
1532113679521,0,-3,-2,0,0,2,3,-1
1532113679526,-2,-1,-1,2,1,1,-3,-6
1532113679531,-1,1,1,7,6,-2,-6,-4
1532113679536,0,0,-1,-7,-1,-4,4,1
1532113679541,0,1,-2,-2,-3,0,-8,-5
1532113679546,-4,-2,-3,-9,-3,0,-1,-3
1532113679551,-2,-1,-2,-4,2,-1,-6,1
1532113679556,0,0,1,10,16,-4,5,-2
1532113679561,-2,-2,0,-3,-4,4,3,0
1532113679566,0,1,1,1,-15,-4,-1,2
1532113679571,-4,-5,-6,-10,-25,7,-4,-6
1532113679576,0,-1,0,2,10,0,12,3
1532113679581,-1,-3,-2,1,-3,-4,0,1
1532113679586,1,-1,-1,4,23,1,-4,1
1532113679591,-1,-3,-1,3,-6,1,12,1
1532113679596,-1,-2,-2,-6,-9,0,-7,-2
1532113679601,-1,0,-2,3,5,4,2,0
1532113679606,0,0,0,1,-9,-8,-1,1
1532113679611,1,3,2,-10,2,-6,-5,1
1532113679616,-2,-4,-3,4,8,-2,-10,-6
1532113679621,-2,-1,1,-3,-25,1,5,1
1532113679626,1,-1,-1,-1,3,1,3,1
1532113679631,0,0,0,12,8,-2,-3,2
1532113679636,0,0,-2,-12,-13,-3,0,-1
1532113679641,-2,0,0,4,-14,-9,-1,-2
1532113679646,1,1,1,-3,22,0,1,0
1532113679651,-3,-4,-4,1,-7,-2,1,2
1532113679656,-3,1,3,5,0,2,2,1
1532113679661,0,0,-1,-11,-13,-5,-14,-2
1532113679666,-1,-1,-5,-9,-20,1,-1,1
1532113679671,0,-1,-3,19,4,-1,-2,-4
1532113679676,-1,-1,0,-6,-13,0,-1,1
1532113679681,-1,0,1,1,3,-1,1,-1
1532113679686,-1,-1,-1,-6,9,-2,-2,-3
1532113679691,1,1,-1,-4,19,3,1,1
1532113679696,-2,1,3,11,-23,1,-2,1
1532113679701,-2,-5,-9,-8,10,-3,1,-1
1532113679706,-3,0,3,-6,-10,4,1,-3
1532113679711,-2,-5,-4,3,7,5,1,-4
1532113679716,-3,-4,-7,-3,8,3,-3,-2
1532113679721,0,2,-6,-20,1,2,-7,-4
1532113679726,2,-3,-3,-2,-32,-22,2,8
1532113679731,-3,0,3,-7,3,20,6,2
1532113679736,-1,0,4,34,11,4,-2,-6
1532113679741,-2,-1,2,-16,-3,-11,-5,-2
1532113679746,2,0,0,-33,13,-1,-3,0
1532113679751,4,3,2,13,-18,0,5,6
1532113679756,1,1,-6,-8,0,-7,-7,-1
1532113679761,-2,-2,-7,-19,21,8,4,-3
1532113679766,-4,-1,6,77,-3,0,4,-4
1532113679771,-1,1,2,-25,-32,-12,-22,0
1532113679776,1,1,-2,-12,9,4,17,1
1532113679781,0,-2,-2,38,26,4,14,1
1532113679786,0,-1,-6,-14,2,2,-5,-5
1532113679791,-1,-2,-2,-5,11,-1,-2,-6
1532113679796,1,1,2,-23,-11,3,3,4
1532113679801,1,1,6,5,-30,3,-11,2
1532113679806,-2,-2,-2,50,49,3,10,-4
1532113679811,-3,-6,-12,-48,-29,-14,-5,-5
1532113679816,0,0,-3,-23,-14,3,-1,3
1532113679821,-2,0,10,-23,-11,-3,-7,-2
1532113679826,0,0,0,-4,-4,-11,-9,1
1532113679831,-1,-1,-1,41,18,7,1,-3
1532113679836,-3,-3,-4,22,18,-12,-8,-5
1532113679841,-1,0,-2,20,-37,-1,7,-1
1532113679846,-1,0,2,32,2,19,-3,2
1532113679851,-1,-3,-7,-20,9,-8,2,-1
1532113679856,0,0,2,-64,-19,-19,6,-1
1532113679861,5,-1,-7,9,-22,-15,-21,-4
1532113679866,-5,-2,9,27,1,45,5,-1
1532113679871,-1,1,6,-57,32,-14,-4,8
1532113679876,7,10,-5,39,-12,14,21,6
1532113679881,1,-4,27,16,11,7,2,0
1532113679886,0,-10,-15,32,51,-13,6,0
1532113679891,-6,-4,2,30,-29,4,-8,-10
1532113679896,-7,-4,-3,-18,0,9,-21,-8
1532113679901,3,5,-10,1,31,-33,7,4
1532113679906,4,4,0,-32,7,-23,-2,1
1532113679911,2,-1,3,26,52,-16,3,5
1532113679916,-2,-6,-7,6,-35,6,9,-1
1532113679921,-3,-5,-7,11,30,29,0,-2
1532113679926,-5,-3,-1,-33,-90,-28,-5,-1
1532113679931,4,8,4,-58,-68,-7,4,4
1532113679936,-2,-4,-6,28,20,11,-13,-4
1532113679941,-1,1,2,1,17,-2,2,3
1532113679946,-3,-1,-3,-21,-24,-2,3,0
1532113679951,1,-2,-1,39,39,6,-6,-6
1532113679956,-1,-1,3,-23,-16,-21,-13,0
1532113679961,0,2,-3,-2,-19,1,2,1
1532113679966,-1,-1,-8,-31,22,14,-9,-6
1532113679971,-1,2,-5,9,-107,14,21,6
1532113679976,-1,-3,8,17,34,-7,6,-2
1532113679981,-4,-4,-12,-21,14,-5,-2,-3
1532113679986,-1,-3,4,-15,-21,-7,-7,0
1532113679991,0,0,3,16,26,16,2,-4
1532113679996,3,0,1,6,12,-9,4,4
1532113680001,-2,-2,-6,1,-18,-17,-15,-7
1532113680006,-2,2,6,20,-6,4,-4,-6
1532113680011,-1,0,-1,13,10,-7,7,1
1532113680016,-2,-5,-10,6,-9,21,-5,-1
1532113680021,6,4,4,-57,-7,6,5,4
1532113680026,-3,-4,-8,-99,-17,-4,-11,1
1532113680031,-2,3,4,43,32,-10,0,-5
1532113680036,4,0,9,3,22,-41,-3,0
1532113680041,-3,-6,4,47,-7,37,17,5
1532113680046,-7,-9,-11,-7,-17,-22,-20,-14
1532113680051,7,-8,-6,-34,-15,0,8,9
1532113680056,-29,-24,-26,3,26,-31,-34,-26
1532113680061,-3,-3,1,13,15,51,17,-5
1532113680066,14,7,3,8,61,26,29,37
1532113680071,4,10,1,-24,-24,-3,-7,0
1532113680076,16,21,23,61,67,-6,6,13
1532113680081,-10,-8,-12,-45,16,-8,-9,-7
1532113680086,-8,0,1,7,-21,12,1,-11
1532113680091,-3,-5,-6,0,18,-7,-6,-3
1532113680096,1,1,6,15,-11,4,-3,-4
1532113680101,-3,1,-2,-21,-48,-9,0,-1
1532113680106,5,9,10,-9,8,6,-9,-2
1532113680111,-7,-9,-10,-5,9,-9,16,-3
1532113680116,-4,-2,-3,-20,-23,12,-6,-4
1532113680121,0,0,-3,21,12,-16,4,0
1532113680126,-2,-1,-2,8,-16,-4,-8,-4
1532113680131,-2,0,3,0,16,5,-12,-4
1532113680136,3,2,2,-16,-34,7,12,5
1532113680141,1,2,2,11,2,-12,-3,5
1532113680146,2,2,2,3,6,-31,-4,0
1532113680151,-8,-8,-7,31,19,1,-16,-14
1532113680156,2,1,-4,-5,-39,26,8,6
1532113680161,3,5,3,-47,6,-16,-1,2
1532113680166,-6,-6,-5,38,-15,-4,9,2
1532113680171,-2,-2,-1,-11,20,-1,-10,-5
1532113680176,1,4,-1,-34,-4,-5,-4,3
1532113680181,3,2,1,23,28,-9,-7,-1
1532113680186,-5,-6,-3,-6,1,11,17,3
1532113680191,-3,-1,3,20,-24,3,-9,-1
1532113680196,-2,-1,2,4,11,6,1,-3
1532113680201,-1,-3,-4,-13,-31,3,3,5
1532113680206,-2,1,-1,4,7,-12,-20,-11
1532113680211,1,-2,-3,-10,-14,14,-8,-5
1532113680216,0,-1,2,-16,-48,15,32,9
1532113680221,-2,-3,-5,8,-31,-17,-5,-6
1532113680226,-1,-2,-5,-1,21,15,8,1
1532113680231,-2,-2,-1,-13,-23,-6,-17,-1
1532113680236,-3,-5,-3,-12,-50,10,5,0
1532113680241,0,0,2,20,-26,-7,-10,0
1532113680246,-1,-3,0,-5,-29,8,2,-5
1532113680251,2,1,-3,-18,40,1,2,4
1532113680256,-2,-4,-6,-1,19,-3,-7,1
1532113680261,1,0,1,19,3,-6,1,1
1532113680266,2,1,-3,-26,-7,-2,-9,-6
1532113680271,-4,-4,-1,-4,-15,-13,2,-2
1532113680276,3,5,6,0,-46,1,-13,7
1532113680281,-3,-6,-5,2,14,5,29,-3
1532113680286,0,2,1,3,26,5,6,0
1532113680291,2,2,0,11,-7,-16,-1,4
1532113680296,-2,-4,-2,-3,14,-6,-11,-7
1532113680301,1,4,4,5,-2,-6,-14,0
1532113680306,-1,0,3,4,51,5,4,-2
1532113680311,1,1,3,3,7,12,5,5
1532113680316,-3,-3,-4,-4,10,-14,2,-1
1532113680321,-2,-3,-2,-1,9,20,-3,2
1532113680326,0,-1,1,6,27,-7,1,-2
1532113680331,-2,0,3,0,8,8,9,3
1532113680336,0,-1,0,2,34,-15,-17,-6
1532113680341,-3,-2,-3,-7,-12,-5,2,-2
1532113680346,-2,-2,-2,2,-18,-6,-10,-3
1532113680351,1,1,-1,-3,-1,-2,8,-2
1532113680356,2,2,1,5,3,9,3,3
1532113680361,0,1,0,-4,2,-5,-4,-4
1532113680366,4,3,5,18,-14,-13,-8,0
1532113680371,-6,-5,-1,-8,6,15,9,4
1532113680376,0,0,2,-3,10,13,7,-1
1532113680381,-1,-2,-2,4,6,2,-9,-1
1532113680386,-2,-1,-3,-13,-20,-13,-3,0
1532113680391,2,3,1,12,3,-9,-3,1
1532113680396,-4,-3,-2,-4,10,-1,-3,-4
1532113680401,1,-1,4,-9,-1,3,2,-2
1532113680406,0,-2,4,8,-15,4,7,3
1532113680411,0,2,1,-1,-41,-7,-9,-2
1532113680416,-1,-1,-4,2,3,-4,-3,-4
1532113680421,0,0,-6,-5,-6,-7,-4,0
1532113680426,-3,-1,-6,-3,11,0,-1,-3
1532113680431,0,-1,2,-1,-3,1,-3,-2
1532113680436,1,-2,-2,7,3,-8,1,-3
1532113680441,-1,-2,-2,1,9,0,-4,1
1532113680446,-2,-3,-5,-11,2,6,-1,-1
1532113680451,0,-1,-1,24,15,12,9,2
1532113680456,-2,-3,-1,-3,5,1,-1,-4
1532113680461,0,0,-1,1,10,9,-1,-2
1532113680466,0,-1,-1,-3,-17,-1,0,0
1532113680471,-2,1,-2,-7,-10,-10,-4,-1
1532113680476,-2,-3,-6,-8,-42,-5,-4,-4
1532113680481,0,-2,-3,1,-34,-3,0,3
1532113680486,1,2,-17,-15,-24,0,0,0
1532113680491,0,-3,10,-6,1,2,-4,-1
1532113680496,0,2,10,17,36,5,1,1
1532113680501,-2,1,1,-4,24,-6,-6,-5
1532113680506,-3,-3,-16,-10,-51,5,3,3
1532113680511,-2,-2,0,-4,-4,-9,-6,-4
1532113680516,-2,-2,-1,1,29,12,6,3
1532113680521,-1,-1,2,3,6,-3,-10,-5
1532113680526,0,0,2,-1,13,-4,-2,-2
1532113680531,-3,-1,-6,-3,2,4,1,-5
1532113680536,-2,-4,-4,-6,-15,-7,-1,-1
1532113680541,-1,2,-1,-4,13,3,1,0
1532113680546,1,0,-28,-4,5,1,0,1
1532113680551,-1,-2,17,-1,-4,-5,0,-1
1532113680556,-2,-1,14,24,2,-2,-4,0
1532113680561,0,-1,18,8,37,4,3,1
1532113680566,-2,0,1,-1,-7,-1,0,-1
1532113680571,-1,0,-15,-11,-6,-2,-2,1
1532113680576,-1,-4,-10,-8,-1,-5,-1,0
1532113680581,0,3,-2,0,-13,-1,2,0
1532113680586,-1,-1,13,0,39,7,1,-1
1532113680591,1,1,9,15,7,1,-2,2
1532113680596,0,3,9,0,-5,2,-1,0
1532113680601,1,-1,-7,-2,-19,-6,2,2
1532113680606,0,-1,3,-2,-9,0,-3,-4
1532113680611,2,-1,-15,-11,-27,-5,0,-1
1532113680616,-2,1,0,2,23,0,-2,-1
1532113680621,0,0,2,-5,-26,-2,0,0
1532113680626,0,-3,-24,-10,5,3,0,0
1532113680631,-1,-3,16,-19,8,-3,0,-3
1532113680636,-2,4,48,40,-15,5,-5,1
1532113680641,-2,-3,3,0,10,-3,0,-2
1532113680646,-2,0,24,15,9,-4,-4,-3
1532113680651,0,1,-23,-8,-10,-1,1,3
1532113680656,0,3,-4,-11,-2,-3,-2,0
1532113680661,-1,-1,-6,1,-12,-6,-2,-2
1532113680666,0,-1,-5,-13,6,1,2,3
1532113680671,0,1,2,11,11,6,-2,-1
1532113680676,-1,-4,-14,-17,-21,-5,-2,-1
1532113680681,0,0,-5,2,50,8,-1,-2
1532113680686,-1,-1,13,8,-20,-3,-4,-1
1532113680691,-1,3,1,2,4,-3,-2,0
1532113680696,1,-2,0,-2,-6,-4,-1,-3
1532113680701,-1,-2,-8,1,-9,-2,-1,-2
1532113680706,1,1,12,6,3,0,0,0
1532113680711,-1,-3,-2,-1,13,-1,-2,-2
1532113680716,0,-3,-12,-24,-15,0,1,0
1532113680721,0,0,-4,7,2,-2,0,-1
1532113680726,2,1,11,0,-12,3,1,2
1532113680731,-1,0,-9,-1,-13,-3,0,-3
1532113680736,0,-2,1,1,-1,-1,1,0
1532113680741,-3,0,13,10,-1,3,-1,1
1532113680746,-2,1,3,6,1,-3,0,-2
1532113680751,0,-1,-2,-7,0,2,-1,-2
1532113680756,-2,0,-4,-3,17,1,0,1
1532113680761,1,1,-2,-4,-33,-5,0,1
1532113680766,-2,-2,-4,0,17,-4,-3,-3
1532113680771,1,1,1,1,2,9,3,1
1532113680776,-1,-2,-4,-4,-10,-2,-2,-1
1532113680781,0,-3,-26,-4,5,0,0,0
1532113680786,0,0,18,-1,-12,-2,0,0
1532113680791,-1,0,1,-1,15,-1,-2,1
1532113680796,1,-1,-4,-7,2,0,-1,-2
1532113680801,-2,-1,10,8,-8,-1,-1,-3
1532113680806,0,1,-7,2,15,3,0,-1
1532113680811,-3,-3,-1,-5,-7,0,-2,-1
1532113680816,0,0,0,1,-3,-2,-2,-1
1532113680821,2,1,5,0,23,2,1,2
1532113680826,-3,-3,-7,-4,-3,1,-2,0
1532113680831,-1,0,-1,-2,4,-3,-1,-2
1532113680836,0,-2,-4,-6,9,0,-1,-2
1532113680841,-1,-2,-2,-4,-17,-4,-2,-2
1532113680846,0,-1,0,5,22,1,-1,-1
1532113680851,-2,-2,1,4,8,-1,-1,-1
1532113680856,-1,-1,-11,-5,-14,-1,-1,1
1532113680861,-3,-2,2,0,3,-2,-2,-2
1532113680866,2,-1,-5,-3,-6,-1,-1,0
1532113680871,0,-1,3,5,-3,0,1,-2
1532113680876,0,2,8,5,-6,-5,-1,-1
1532113680881,0,1,-4,-15,-6,4,-1,1
1532113680886,-3,-3,-4,-4,-11,-3,-1,1
1532113680891,0,-1,1,3,-15,-3,-1,0
1532113680896,-1,-2,1,2,0,-3,0,-1
1532113680901,1,-1,-5,-5,-6,4,1,0
1532113680906,-1,2,2,1,-2,2,-1,-2
1532113680911,-5,-3,-3,0,1,1,-1,-2
1532113680916,-3,-1,1,6,1,-1,-1,-2
1532113680921,1,-2,-2,0,4,-1,-1,-2
1532113680926,1,1,-5,-4,-8,0,1,-2
1532113680931,2,-2,2,-11,-7,-1,0,-1
1532113680936,-1,1,-4,10,6,1,0,0
1532113680941,-2,-2,8,4,-9,-4,-2,-2
1532113680946,-2,3,20,11,-2,-3,-2,-1
1532113680951,-1,-2,-23,-5,35,-1,-2,0
1532113680956,-4,-8,-8,-14,-21,-4,-3,-1
1532113680961,-1,-4,-8,0,-10,-3,-1,0
1532113680966,-1,-3,-10,-3,-1,-1,1,-1
1532113680971,1,4,6,-3,-7,0,-2,1
1532113680976,1,2,4,-2,10,0,0,-2
1532113680981,-2,-4,-4,1,7,-2,-1,0
1532113680986,1,-1,0,1,-1,0,-1,-2
1532113680991,0,3,2,1,-7,-3,0,-1
1532113680996,-3,-7,-4,-3,-17,3,0,-1
1532113681001,-1,2,0,2,-1,1,-1,1
1532113681006,-2,-5,-6,-5,-5,-4,-1,-2
1532113681011,-2,0,2,-2,-6,2,0,-2
1532113681016,3,1,2,3,-3,2,-1,-1
1532113681021,-3,2,0,0,16,0,-3,-3
1532113681026,2,1,-1,1,5,1,-1,-1
1532113681031,-3,-1,-1,-1,11,-3,0,-1
1532113681036,0,1,-7,-3,-8,-2,-2,-2
1532113681041,0,-3,7,-6,11,-1,-2,-1
1532113681046,-1,-2,-10,-12,-19,-7,-2,0
1532113681051,0,-2,17,18,-17,3,1,-2
1532113681056,0,-2,-8,1,5,0,-1,-1
1532113681061,-1,0,4,7,-2,0,-2,-1
1532113681066,-1,-1,-7,-8,8,3,-1,-1
1532113681071,2,0,-3,-9,-5,-1,-1,-1
1532113681076,0,-3,3,3,16,0,0,0
1532113681081,0,-1,-12,-2,-32,-4,-1,0
1532113681086,-2,0,20,9,31,1,0,-2
1532113681091,-1,-1,0,-1,0,-3,-1,-1
1532113681096,-1,0,-5,-3,-10,1,-1,0
1532113681101,1,0,1,1,5,0,-1,-1
1532113681106,0,2,-3,5,1,0,0,0
1532113681111,-1,-2,-1,-5,-12,-2,-2,-3
1532113681116,0,0,-7,-6,-8,-1,0,-1
1532113681121,1,3,11,2,-3,1,2,-1
1532113681126,-1,-4,-1,1,-4,-4,-3,-2
1532113681131,-3,-3,-5,-1,-17,0,-1,-3
1532113681136,-2,3,5,4,20,3,2,1
1532113681141,-1,-1,-4,-1,7,4,0,-1
1532113681146,0,3,-3,3,0,1,0,-1
1532113681151,0,-2,-1,-6,-10,-5,-1,0
1532113681156,-1,-2,-2,0,-3,0,-1,-1
1532113681161,-2,-2,3,-4,-6,-3,-3,-3
1532113681166,-2,-8,-3,4,5,-3,-2,-2
1532113681171,2,1,3,-6,7,2,-1,0
1532113681176,-2,-3,1,0,-11,-1,-2,-1
1532113681181,0,-1,-3,-1,-10,-4,-3,-1
1532113681186,-1,2,5,3,1,-1,1,0
1532113681191,-1,1,-8,-2,14,-1,0,0
1532113681196,1,0,-2,-5,-38,-3,-1,-1
1532113681201,0,-1,0,4,2,2,0,0
1532113681206,-2,-5,-24,-11,25,2,0,-2
1532113681211,1,-1,11,9,-37,-7,-3,0
1532113681216,-1,-2,-3,-5,-4,-4,-2,1
1532113681221,-1,-1,-2,-10,2,-1,-1,0
1532113681226,0,-2,6,2,-7,-1,0,1
1532113681231,0,0,-12,-2,10,2,2,-1
1532113681236,0,3,7,-1,6,-2,-1,-3
1532113681241,-1,-1,-4,2,-3,-4,-3,-3
1532113681246,0,0,0,5,-2,6,0,1
1532113681251,0,-1,-1,-6,-6,0,-1,1
1532113681256,-2,-5,-2,-2,10,0,-1,-3
1532113681261,0,-2,-7,-3,1,-3,-2,-1
1532113681266,1,5,10,1,0,-1,0,-3
1532113681271,-3,0,-1,3,3,1,-1,-1
1532113681276,-2,-2,-2,-8,-12,-5,-1,0
1532113681281,-3,-2,12,16,11,8,0,0
1532113681286,-2,-2,-3,0,-1,-1,-2,-2
1532113681291,2,3,-1,3,10,3,0,1
1532113681296,-3,-2,-7,-14,-4,-2,0,-2
1532113681301,-2,-3,-9,-3,0,1,0,-1
1532113681306,-1,-2,16,4,-7,-4,-1,0
1532113681311,1,3,7,1,9,-2,-1,0
1532113681316,0,2,0,7,6,3,2,1
1532113681321,-2,1,4,5,7,-4,-1,-1
1532113681326,-2,-1,-12,-9,6,4,-1,2
1532113681331,-3,-4,-4,-10,-17,-8,-2,-5
1532113681336,0,-1,10,6,25,2,-3,-2
1532113681341,0,2,-4,-3,-5,2,1,-1
1532113681346,-1,1,0,4,-24,-3,-2,2
1532113681351,-1,-2,-4,-5,7,1,0,1
1532113681356,-1,-2,-2,7,4,0,-1,1
1532113681361,-1,1,0,-7,-8,-3,1,0
1532113681366,-1,-3,-13,-11,-5,0,2,-2
1532113681371,2,4,13,14,6,3,-1,0
1532113681376,-3,0,0,6,6,-3,-2,-2
1532113681381,0,-7,-4,-3,-8,-4,0,-1
1532113681386,-3,-4,-3,0,-24,-4,-2,-2
1532113681391,0,-1,-3,-6,5,5,3,2
1532113681396,2,2,-3,-7,-11,-2,-2,-2
1532113681401,-2,2,8,4,6,1,-2,-1
1532113681406,-4,-4,-21,-13,-13,-3,-2,-2
1532113681411,-2,-4,2,6,-2,-1,1,-2
1532113681416,-1,0,7,0,0,0,-1,0
1532113681421,0,-1,-2,1,3,-1,-1,1
1532113681426,-1,3,4,0,7,-3,-2,0
1532113681431,-4,-5,-8,-5,5,1,-1,-2
1532113681436,-1,-6,-7,-2,-6,-1,0,-2
1532113681441,2,4,1,1,-4,-4,0,-1
1532113681446,2,2,3,9,21,8,4,-1
1532113681451,0,-1,6,-2,6,-4,-3,0
1532113681456,-1,-1,-3,-4,-5,-4,-3,0
1532113681461,1,3,-1,2,2,2,1,2
1532113681466,-1,7,21,9,-2,1,-4,-2
1532113681471,-4,-8,1,-3,-4,-9,1,-1
1532113681476,-7,-17,-17,-1,-3,16,-3,-3
1532113681481,-2,-4,-5,9,42,-10,-10,-5
1532113681486,1,2,-5,-25,-34,-8,-1,2
1532113681491,3,6,-4,-5,0,-6,-8,0
1532113681496,-2,2,11,-3,10,5,3,-2
1532113681501,-2,-6,-7,-13,-22,12,-2,-2
1532113681506,0,-4,2,11,13,-4,-1,0
1532113681511,0,2,-6,-2,-1,6,3,-2
1532113681516,1,4,0,4,-2,-10,-6,0
1532113681521,-1,0,1,5,-1,5,-2,-1
1532113681526,-1,-6,-10,-5,2,0,1,0
1532113681531,-2,-2,0,1,-5,-2,4,-1
1532113681536,-1,3,-2,-2,8,1,0,-1
1532113681541,1,1,3,-5,-12,-2,2,3
1532113681546,-2,1,5,3,0,1,1,-1
1532113681551,-3,-9,-16,10,7,0,-6,-4
1532113681556,3,3,4,-7,-4,-2,1,4
1532113681561,-3,-1,-2,-15,-12,-6,-3,-2
1532113681566,-1,-5,-1,-4,8,-4,-2,-1
1532113681571,4,6,-3,-9,-8,-2,2,1
1532113681576,-2,2,-7,1,0,1,3,-1
1532113681581,-2,-4,8,17,-2,-5,-3,-4
1532113681586,-1,-4,-1,-22,1,6,-2,0
1532113681591,0,1,6,25,11,0,0,-1
1532113681596,4,4,-5,-6,-4,-3,-1,0
1532113681601,-1,0,10,4,-4,-3,1,-2
1532113681606,-3,-4,-3,-1,10,-1,-2,-4
1532113681611,-2,-6,-10,-14,-8,-1,-5,0
1532113681616,-2,-2,1,12,5,-3,3,0
1532113681621,0,-1,-5,11,11,5,1,-1
1532113681626,-2,-1,0,7,0,-3,-2,-3
1532113681631,0,-4,-6,11,-3,6,4,-1
1532113681636,1,5,2,-18,3,-1,-1,1
1532113681641,-1,1,2,4,-8,0,1,1
1532113681646,0,-4,-2,-11,-8,5,2,-1
1532113681651,-1,-4,-2,-7,-5,-3,0,-1
1532113681656,0,2,0,13,-5,-1,-1,0
1532113681661,-2,-2,-7,4,-1,3,-1,-3
1532113681666,-1,-3,11,34,11,0,-3,-2
1532113681671,2,5,-1,-56,-14,-5,0,0
1532113681676,0,-2,-5,1,-7,-1,1,2
1532113681681,-1,3,2,-8,0,2,0,0
1532113681686,-2,-4,-13,-16,-3,-4,-3,-1
1532113681691,0,2,10,21,14,4,0,-1
1532113681696,-3,-6,-9,17,1,-5,-3,-3
1532113681701,0,1,4,1,13,2,1,0
1532113681706,-1,-1,-3,3,8,-3,-4,0
1532113681711,-1,2,4,10,0,6,4,0
1532113681716,-1,1,-3,-4,-1,0,2,-1
1532113681721,-1,-1,-1,2,2,-8,-3,-2
1532113681726,-2,-3,0,-9,-7,1,1,-1
1532113681731,-1,-3,-11,-4,1,-5,-2,-1
1532113681736,-1,0,6,7,3,-3,-2,-3
1532113681741,1,-1,-1,-12,-7,1,0,-2
1532113681746,-3,-2,1,18,-3,-1,1,-2
1532113681751,0,0,-5,-26,-2,-2,-1,0
1532113681756,0,3,5,13,7,3,0,-1
1532113681761,0,0,1,-4,2,1,0,0
1532113681766,1,3,4,-4,3,-3,-1,0
1532113681771,-4,-4,-6,-15,-20,-2,0,-1
1532113681776,0,-5,-2,0,-14,1,-1,0
1532113681781,0,-1,-7,-4,-2,-1,0,-1
1532113681786,1,2,9,11,3,1,2,0
1532113681791,-1,-2,-6,1,2,-3,-3,-2
1532113681796,1,1,8,-10,4,2,-1,2
1532113681801,-4,-6,-3,5,-3,0,-1,-1
1532113681806,0,1,-1,-11,-9,-1,-1,-1
1532113681811,0,2,-2,9,20,2,2,-1
1532113681816,-1,-1,-5,-1,-5,-3,-6,0
1532113681821,1,-2,0,5,-1,-1,-1,0
1532113681826,0,-2,-3,-8,-2,-3,-1,0
1532113681831,-1,2,3,7,-3,-2,-1,1
1532113681836,-2,1,-1,7,0,0,1,-1
1532113681841,-3,-4,-6,-10,4,1,-1,0
1532113681846,1,0,-4,-33,-13,-1,-1,-1
1532113681851,1,1,7,35,2,0,0,1
1532113681856,-1,-1,0,1,6,0,-1,-2
1532113681861,-1,0,4,0,-9,0,-1,-1
1532113681866,-1,1,-5,-12,0,0,2,0
1532113681871,-3,-4,-1,0,1,1,0,-1
1532113681876,-2,-3,-4,2,2,-3,-1,-2
1532113681881,0,1,1,-1,1,0,0,0
1532113681886,-1,0,1,-7,-1,-2,-1,-2
1532113681891,-1,-3,-4,3,1,-1,-1,-1
1532113681896,-1,-1,-12,-1,1,-1,1,0
1532113681901,-2,0,14,2,-1,-2,-2,1
1532113681906,-1,1,1,15,-1,-6,-2,-1
1532113681911,0,-1,1,-15,-6,4,0,0
1532113681916,-1,0,-7,-13,-7,-3,-1,1
1532113681921,-3,-2,1,-3,4,-1,-1,-1
1532113681926,0,-1,4,8,-2,-1,-2,-1
1532113681931,-2,-1,-5,-5,-11,-6,-3,-3
1532113681936,2,3,8,-9,3,2,0,-2
1532113681941,0,0,0,17,-1,0,-1,0
1532113681946,0,-1,-2,2,-2,-2,1,-1
1532113681951,-4,-2,-6,-8,-5,-1,0,-1
1532113681956,0,2,8,4,1,0,0,-2
1532113681961,-2,-2,-10,-4,0,-2,-1,-1
1532113681966,-2,0,1,2,0,1,-1,-1
1532113681971,0,-2,-6,-6,-1,-2,-2,1
1532113681976,1,0,-1,1,-1,-2,0,0
1532113681981,-1,0,-2,-5,-2,-1,0,-2
1532113681986,1,-2,-3,1,-1,2,1,1
1532113681991,0,-2,-2,2,2,-1,-1,0
1532113681996,-1,-2,0,0,-9,0,0,-1
1532113682001,0,0,-5,-12,-6,-1,1,-1
1532113682006,-1,2,5,-1,3,1,-2,1
1532113682011,-1,-1,-2,2,-2,-2,-1,-1
1532113682016,-1,-4,-5,3,2,0,0,-1
1532113682021,-1,1,-5,-7,0,0,0,0
1532113682026,1,-1,4,2,-2,-1,-3,1
1532113682031,0,2,5,-6,5,1,-2,-3
1532113682036,1,3,9,29,4,1,0,1
1532113682041,-2,0,-7,-8,-7,-3,-2,-2
1532113682046,-2,-7,-10,1,4,-1,-1,-2
1532113682051,1,0,5,3,0,0,1,1
1532113682056,-1,-3,-2,-14,-3,0,1,-1
1532113682061,1,0,-6,-12,2,0,-1,-1
1532113682066,-3,0,2,28,-3,0,-1,-1
1532113682071,0,-1,-1,1,3,-1,-1,0
1532113682076,0,1,0,-2,-1,0,-2,0
1532113682081,-1,0,4,7,-1,-1,1,1
1532113682086,-2,-5,-4,-9,0,-2,-1,-2
1532113682091,-1,0,1,-5,-7,0,-2,-2
1532113682096,-3,-2,-4,-14,-3,-1,-4,-4
1532113682101,-2,-4,-2,1,-6,-3,-2,1
1532113682106,0,2,-3,-13,-4,-1,-1,0
1532113682111,-1,0,1,8,0,-2,-2,-2
1532113682116,0,2,2,1,6,-2,0,0
1532113682121,1,-1,0,0,-4,0,-2,-3
1532113682126,2,0,-4,-19,-7,-1,1,1
1532113682131,-2,-3,0,1,-2,-1,-2,-2
1532113682136,-3,-3,-2,-5,-1,-1,-2,-2
1532113682141,-2,-2,1,-3,0,-2,-1,-1
1532113682146,2,0,3,21,3,1,1,1
1532113682151,-2,4,-5,-13,-4,0,-1,-2
1532113682156,0,-6,0,10,1,-2,-2,-4
1532113682161,0,-3,-3,-45,-8,1,1,1
1532113682166,0,2,2,16,2,0,-2,0
1532113682171,-4,-3,-4,-2,-1,-1,-1,-1
1532113682176,0,-1,-2,0,0,1,0,1
1532113682181,0,7,0,1,-3,-1,-3,-1
1532113682186,-2,-6,-3,-3,2,-2,-1,-3
1532113682191,0,-5,-6,25,5,0,1,-2
1532113682196,-1,0,-1,-48,-7,-1,1,2
1532113682201,0,1,3,48,2,-1,-2,-1
1532113682206,0,1,0,-10,-4,-1,-1,-1
1532113682211,0,1,6,4,0,-1,-2,0
1532113682216,0,1,-2,13,6,-1,-2,-2
1532113682221,-2,-4,-3,5,-1,-1,-1,-1
1532113682226,1,3,5,-7,-5,2,0,0
1532113682231,-1,-4,-6,-10,2,-1,-2,-1
1532113682236,0,2,2,5,2,2,2,2
1532113682241,1,-3,-3,-15,-3,0,0,-2
1532113682246,1,-3,-3,3,1,-1,-1,-1
1532113682251,-5,1,1,-7,-3,-2,-1,-2
1532113682256,-3,1,-7,-11,-1,-2,-3,-5
1532113682261,-1,-2,0,17,2,-2,0,-2
1532113682266,0,0,4,1,-1,0,0,0
1532113682271,-1,-3,-1,-15,-5,-2,-2,3
1532113682276,-1,-6,-7,-6,0,-2,0,-1
1532113682281,-3,-4,-4,-22,-3,0,-1,-2
1532113682286,-1,3,-3,14,1,0,1,0
1532113682291,3,4,4,11,4,2,2,0
1532113682296,-1,2,0,-1,-4,-1,-2,-2
1532113682301,-1,0,-3,7,5,0,-1,-2
1532113682306,-2,-1,-3,-4,-1,-1,-1,1
1532113682311,0,1,1,-17,-4,1,-2,0
1532113682316,0,2,0,30,3,-1,-1,-3
1532113682321,7,-4,1,-16,0,-1,1,0
