1532321322452,1,0,-1,-3,-1,-5,-11,-1
1532321322457,0,1,-1,0,-2,-1,-5,-2
1532321322462,0,0,3,3,4,6,36,4
1532321322467,0,-1,-3,-5,-1,-4,-14,-1
1532321322472,-1,-2,0,-2,-3,1,3,1
1532321322477,-2,-1,2,-2,-2,-4,-7,-4
1532321322482,-1,0,-5,-4,-4,-4,-10,0
1532321322487,-1,-2,-9,-4,-11,0,0,0
1532321322492,-1,0,0,1,0,0,12,0
1532321322497,-2,-1,-1,-2,-1,-1,3,-1
1532321322502,1,0,2,4,0,1,-8,-2
1532321322507,0,-2,0,-1,2,-2,-9,-2
1532321322512,0,-1,-6,-4,-1,0,10,1
1532321322517,-3,-1,-2,-2,0,-5,-14,1
1532321322522,-1,1,1,-2,4,4,24,2
1532321322527,0,0,1,5,2,1,-6,2
1532321322532,-2,-3,0,1,3,1,-5,-4
1532321322537,-2,2,-2,-3,-2,0,-1,-3
1532321322542,-2,-2,-3,-6,-9,-5,-9,-3
1532321322547,-1,0,3,-1,1,-2,-1,-2
1532321322552,0,-2,-4,4,4,-2,4,-1
1532321322557,-1,-2,0,2,2,-2,2,-1
1532321322562,-1,-4,-4,-6,-9,-5,-6,-3
1532321322567,1,0,-1,-2,-4,0,1,0
1532321322572,0,1,4,3,3,-2,-13,-2
1532321322577,-1,-2,-2,1,2,-1,1,3
1532321322582,-1,-1,1,0,-1,1,-1,0
1532321322587,-2,-1,-2,-2,-3,-6,-9,-1
1532321322592,1,0,-1,-1,1,8,21,1
1532321322597,0,-1,-2,1,-2,0,0,-1
1532321322602,-1,0,1,3,1,0,-3,3
1532321322607,-3,-2,-2,0,-3,-1,-3,0
1532321322612,-2,-1,-1,-3,-2,0,-11,-1
1532321322617,-1,-1,10,1,3,3,-1,-1
1532321322622,2,1,-12,-7,2,2,18,1
1532321322627,-1,-1,-1,2,1,-4,9,-1
1532321322632,-2,-3,-4,-4,-6,-4,-4,1
1532321322637,0,-3,-1,-3,-5,-5,-1,3
1532321322642,-1,-3,4,4,3,-1,-13,-1
1532321322647,-1,-2,-1,-1,2,-2,0,-2
1532321322652,0,-1,1,-1,0,-3,-4,-2
1532321322657,1,1,-2,-2,-3,3,4,-2
1532321322662,-1,-1,0,-2,-3,-4,-16,-4
1532321322667,1,1,-2,-1,6,10,24,2
1532321322672,-2,-1,0,-2,-12,-4,-6,-1
1532321322677,-2,-1,-5,-2,0,-1,-2,-2
1532321322682,-1,0,0,2,2,1,7,-1
1532321322687,-1,-2,2,1,-3,-4,-8,-3
1532321322692,0,-2,-1,1,4,2,1,1
1532321322697,1,0,5,1,2,0,8,4
1532321322702,-2,-2,-7,-3,-7,-2,-6,1
1532321322707,0,-2,0,-1,-1,-3,-6,-1
1532321322712,-2,2,-2,-1,0,-4,-5,-3
1532321322717,-1,0,-2,1,0,0,2,-1
1532321322722,-3,-3,2,2,3,-1,0,-5
1532321322727,-1,-1,0,-2,0,-2,-25,-4
1532321322732,0,-1,-2,1,1,3,-6,-3
1532321322737,-2,0,-1,1,2,0,0,-1
1532321322742,-1,2,3,1,0,-1,-7,-1
1532321322747,-3,-2,-4,-4,-2,-2,0,-1
1532321322752,-1,-1,-1,-3,-13,-3,7,0
1532321322757,-2,-2,-6,-3,-1,-2,-4,-2
1532321322762,-1,-1,2,0,-2,-3,-4,1
1532321322767,0,-1,-1,2,2,-1,-11,1
1532321322772,0,0,1,1,5,2,17,2
1532321322777,1,-1,-1,-1,-1,2,-3,0
1532321322782,-1,0,0,-1,0,-1,1,1
1532321322787,-1,1,-2,1,-1,-3,-1,0
1532321322792,-1,-1,-1,-1,3,-2,-2,-3
1532321322797,0,-2,-3,-2,-6,0,3,1
1532321322802,0,-3,0,2,1,1,-5,-1
1532321322807,-1,-1,0,-2,-4,-2,6,1
1532321322812,-1,-2,0,-2,-4,-5,-15,-2
1532321322817,1,0,1,-2,-1,3,23,5
1532321322822,1,0,-5,-2,2,-1,-14,-2
1532321322827,1,-1,-1,1,5,2,14,-1
1532321322832,0,1,0,1,-1,-2,2,-1
1532321322837,0,0,-3,-4,-5,-4,-8,-3
1532321322842,1,0,0,1,-2,-3,11,1
1532321322847,-3,-1,-3,-2,-4,-3,-7,-1
1532321322852,0,-1,2,-2,0,-1,13,-1
1532321322857,-3,-1,0,0,4,-2,-7,0
1532321322862,-1,0,-1,-2,3,0,-2,-2
1532321322867,0,-2,1,-1,-7,-4,-15,1
1532321322872,-3,-2,-1,-3,2,3,1,3
1532321322877,-1,0,2,0,-2,-1,2,-2
1532321322882,-1,-2,-3,0,-2,-3,-1,-1
1532321322887,-1,0,-2,1,3,1,5,-2
1532321322892,-4,-2,-1,-3,-3,-8,-20,-6
1532321322897,0,-2,-4,-4,-3,-4,10,0
1532321322902,0,1,3,1,-3,4,-1,1
1532321322907,0,-1,-1,-4,-5,-2,-8,0
1532321322912,0,1,-1,1,4,2,10,0
1532321322917,0,-1,-1,1,3,-1,-11,-2
1532321322922,-3,-4,-2,-2,-2,-1,-1,-2
1532321322927,0,-2,4,1,-2,1,10,2
1532321322932,-1,-2,-3,2,0,-4,-14,0
1532321322937,0,-1,-1,-5,0,2,19,0
1532321322942,1,0,-4,0,-2,2,36,4
1532321322947,-1,-2,6,1,1,0,-8,-2
1532321322952,1,1,-5,-3,-2,3,18,-2
1532321322957,1,-1,0,2,-1,-2,-14,-4
1532321322962,-1,-1,-2,-2,0,-1,-10,-5
1532321322967,2,0,-1,-2,-2,-2,5,1
1532321322972,2,0,1,-2,4,1,-5,0
1532321322977,-2,-2,-3,-5,-13,-4,-4,1
1532321322982,-1,0,0,-1,0,-1,-2,2
1532321322987,0,1,-1,2,2,1,3,-2
1532321322992,-1,0,3,2,-1,-1,-3,8
1532321322997,1,0,-7,-3,4,1,-3,11
1532321323002,-1,-1,1,1,-1,-3,-28,2
1532321323007,-2,-1,-1,2,-1,0,21,3
1532321323012,-1,-1,0,-2,-1,2,-3,-3
1532321323017,-3,-1,9,2,7,2,4,-2
1532321323022,0,0,-8,-2,-2,-6,-8,-3
1532321323027,1,-2,-3,-5,-4,-6,-11,-6
1532321323032,-1,1,-3,2,-4,0,-4,-2
1532321323037,0,-1,3,2,1,1,-2,-3
1532321323042,-1,2,3,1,-1,1,2,-2
1532321323047,1,1,-1,4,12,5,7,-1
1532321323052,-1,-3,-2,-8,-19,-3,4,-2
1532321323057,-1,-3,-5,-6,-7,-4,-4,-4
1532321323062,-3,-1,2,1,0,-2,-11,-3
1532321323067,0,-1,-2,1,-2,1,10,2
1532321323072,0,-1,3,3,4,0,-4,1
1532321323077,0,-2,-3,3,4,2,5,-4
1532321323082,-1,-2,-3,-1,3,1,-6,0
1532321323087,-1,0,0,-5,-7,-5,-7,1
1532321323092,-1,-6,-2,-2,1,-1,0,-19
1532321323097,-2,-2,1,1,-6,-3,-9,-13
1532321323102,-1,-1,-2,-1,-1,-3,1,1
1532321323107,-2,-2,-3,1,1,2,-10,4
1532321323112,0,1,1,2,1,-2,5,12
1532321323117,-1,-1,2,3,2,-2,2,6
1532321323122,0,0,-2,-3,-4,-7,-5,0
1532321323127,0,-1,-1,-4,-5,-3,-3,0
1532321323132,-2,0,0,-2,0,1,-7,0
1532321323137,-2,0,-1,1,4,0,-6,0
1532321323142,-1,0,0,3,1,2,-2,-3
1532321323147,0,0,-4,-6,-8,-2,0,-3
1532321323152,-2,0,-3,-2,-3,-2,2,-2
1532321323157,-1,-1,4,-2,-4,-4,-3,-2
1532321323162,-2,-3,-7,-3,-4,0,1,-1
1532321323167,-2,0,1,3,3,0,5,-2
1532321323172,-2,-3,-1,0,0,-5,-6,-2
1532321323177,1,-1,-3,0,2,-4,-22,1
1532321323182,1,0,4,-1,-1,7,30,0
1532321323187,0,0,0,-2,-1,-2,-6,-2
1532321323192,1,0,-3,1,2,0,7,0
1532321323197,0,0,0,-2,-2,-3,-7,-4
1532321323202,-1,-3,-3,-1,-2,-2,0,0
1532321323207,-2,-3,-2,-1,1,2,2,-2
1532321323212,0,-1,1,0,-2,-1,-4,8
1532321323217,-1,-3,-2,-2,1,4,7,11
1532321323222,-1,2,6,1,1,0,-6,2
1532321323227,-1,-1,-2,0,0,0,4,-2
1532321323232,-1,1,-3,-4,-6,-3,-5,-6
1532321323237,1,0,-4,1,1,-2,8,-2
1532321323242,-1,-2,5,0,-3,-3,-6,-3
1532321323247,-3,-1,-4,-1,2,-2,-2,-4
1532321323252,0,-1,0,0,1,0,-8,-3
1532321323257,1,0,-2,-3,2,2,10,-4
1532321323262,1,-1,1,-1,1,0,-3,-4
1532321323267,-1,-1,3,-1,-2,-2,-3,-2
1532321323272,0,-1,-1,2,3,1,0,-1
1532321323277,-1,-1,0,-3,-3,0,-10,0
1532321323282,2,0,-1,0,2,1,-9,-1
1532321323287,0,-2,-1,-3,-5,-4,-3,-3
1532321323292,0,1,-3,0,1,1,2,1
1532321323297,-1,0,-1,-1,-1,-5,-2,-4
1532321323302,-2,-2,3,1,1,-1,4,-3
1532321323307,1,-2,-6,0,2,-1,-7,1
1532321323312,-1,0,6,-3,-1,1,17,1
1532321323317,0,-1,-8,-2,-1,-1,3,-1
1532321323322,-2,0,-1,1,1,-1,7,-1
1532321323327,-1,0,1,2,3,1,-7,0
1532321323332,1,0,0,-2,-1,-1,-5,-2
1532321323337,-1,-1,-1,0,-4,-2,-1,1
1532321323342,-1,1,-4,-4,-3,-4,-13,3
1532321323347,-2,1,3,1,-1,-1,-9,-1
1532321323352,0,-1,-1,-1,-1,1,2,0
1532321323357,-2,-1,1,-1,2,5,8,5
1532321323362,-1,-1,-1,1,8,-2,-12,2
1532321323367,-1,0,8,-1,-1,-3,6,5
1532321323372,0,-2,-11,-6,-15,-5,-1,2
1532321323377,-2,-1,-4,-5,-4,-3,1,-4
1532321323382,-1,-1,2,1,1,-1,15,-5
1532321323387,-1,-2,-3,2,2,-1,2,-5
1532321323392,0,-1,1,0,4,4,15,-4
1532321323397,0,0,2,-1,-5,-3,-4,-5
1532321323402,-1,0,-3,0,-2,0,4,0
1532321323407,1,-2,-1,-3,1,0,4,3
1532321323412,-2,0,4,1,0,-3,-15,0
1532321323417,1,-2,-4,0,1,1,5,-3
1532321323422,-1,-1,5,-2,0,-2,-2,-5
1532321323427,-1,-1,-15,-3,-2,-1,-4,-5
1532321323432,0,-1,6,3,1,1,14,2
1532321323437,-1,-2,7,1,0,-1,0,0
1532321323442,-1,-1,-2,-2,-2,1,5,1
1532321323447,0,0,9,-1,-2,-5,-17,-2
1532321323452,-2,-2,-7,-2,1,1,-11,1
1532321323457,-1,0,-4,-2,-5,-5,7,-1
1532321323462,0,-1,2,-4,-1,-4,-13,2
1532321323467,-1,0,-5,-2,0,3,15,1
1532321323472,-1,-1,-1,0,4,1,-6,-1
1532321323477,-2,-1,3,0,0,-4,-7,-1
1532321323482,0,-1,-5,-5,-6,-3,-9,0
1532321323487,-1,-1,-5,-2,-3,-3,2,-2
1532321323492,-2,-2,2,1,0,1,5,11
1532321323497,-1,0,-1,2,3,-1,-7,23
1532321323502,-1,1,3,0,-1,-2,4,12
1532321323507,0,-3,-1,-1,-1,0,8,5
1532321323512,-2,-2,-3,1,-3,-4,-12,-9
1532321323517,-2,0,-1,0,1,1,3,-9
1532321323522,0,-2,-3,0,0,2,4,-7
1532321323527,0,0,3,1,3,2,-3,-18
1532321323532,1,1,0,2,1,-5,4,-18
1532321323537,1,-1,-2,-2,-1,0,-2,-1
1532321323542,0,-1,-5,-5,-4,0,6,8
1532321323547,-1,-2,0,-3,-3,1,-2,11
1532321323552,0,-1,0,-2,-3,-6,-9,-12
1532321323557,0,-2,-2,2,2,1,7,-4
1532321323562,-2,0,-1,0,-1,-3,-7,-5
1532321323567,1,1,-2,0,-2,0,-4,4
1532321323572,-1,0,0,0,2,0,-4,4
1532321323577,0,-1,0,-5,0,0,-1,-1
1532321323582,-1,-1,0,2,-2,3,1,-1
1532321323587,-2,0,0,4,1,-3,-2,-3
1532321323592,0,0,-4,-4,-7,-4,-5,-1
1532321323597,-1,-1,-1,-4,-3,2,2,-4
1532321323602,-2,-1,-1,-1,-4,-4,6,-7
1532321323607,-2,0,1,-2,2,-2,-7,5
1532321323612,-1,0,-1,2,-1,3,0,13
1532321323617,1,1,2,3,7,0,2,5
1532321323622,-2,-2,-4,0,0,-4,-2,17
1532321323627,-1,-3,-2,-3,-6,2,0,11
1532321323632,-2,-1,1,-4,-7,-17,-11,10
1532321323637,-2,-2,0,5,12,13,1,-66
1532321323642,0,0,1,2,-5,21,-2,-50
1532321323647,-1,-2,1,1,3,3,4,-26
1532321323652,1,0,-2,1,11,4,-5,10
1532321323657,-1,-1,-2,-5,-12,-6,6,30
1532321323662,-2,0,1,-2,2,-4,-3,2
1532321323667,-1,-2,-1,-2,-1,-1,0,-6
1532321323672,3,-1,0,1,2,6,7,-6
1532321323677,1,0,0,2,4,2,-4,8
1532321323682,0,0,-1,-2,1,-1,7,14
1532321323687,-3,-3,-2,-7,-13,-9,-7,10
1532321323692,-1,-3,-4,-2,-3,-5,1,2
1532321323697,-1,-1,-1,1,-1,-2,-11,11
1532321323702,0,-1,-1,0,0,-7,-4,12
1532321323707,-1,2,1,1,-1,-2,11,17
1532321323712,-3,-1,0,0,2,5,-17,5
1532321323717,-3,-2,-1,-2,-2,-4,-5,1
1532321323722,0,0,-2,4,2,-1,-2,-2
1532321323727,-1,0,0,0,5,-1,-7,11
1532321323732,-2,-2,-4,-8,-9,2,8,-1
1532321323737,-2,1,1,1,-6,-4,-3,-7
1532321323742,0,-2,-2,-3,4,-9,-16,-16
1532321323747,2,-1,-4,-3,-4,6,63,-21
1532321323752,-1,-1,-1,1,-7,-5,-17,-12
1532321323757,2,-2,-2,-4,0,4,10,-2
1532321323762,0,0,3,4,-1,-2,5,-3
1532321323767,-1,0,-1,2,3,-3,-18,-6
1532321323772,-1,0,-2,0,4,0,6,-4
1532321323777,-1,-1,-2,0,-1,-3,-2,-4
1532321323782,1,0,-1,-5,-1,-2,2,-6
1532321323787,-1,-1,-1,0,0,-2,-12,-6
1532321323792,1,-1,1,1,-1,-1,3,22
1532321323797,-1,-2,-3,1,-1,-2,-5,3
1532321323802,0,-2,-2,-2,-1,2,12,1
1532321323807,-1,1,1,-1,2,1,-6,-3
1532321323812,-1,0,0,1,0,-4,6,-3
1532321323817,0,-2,-6,-6,-10,-5,-15,5
1532321323822,-1,0,-2,-4,-4,5,7,8
1532321323827,1,-2,-2,-3,-8,-2,-3,-8
1532321323832,-2,0,1,0,4,-5,-21,-8
1532321323837,0,1,2,1,3,-1,-2,4
1532321323842,-1,0,-1,-1,2,-1,-1,0
1532321323847,-1,-2,0,1,2,5,-11,-2
1532321323852,0,0,-1,0,-4,-6,15,-4
1532321323857,-2,0,1,0,0,-6,5,0
1532321323862,0,-2,-2,-1,-5,-6,-18,-3
1532321323867,-3,0,-1,-3,-2,-3,-6,-10
1532321323872,0,-3,-2,-3,-2,3,-1,-4
1532321323877,1,0,0,2,2,1,2,0
1532321323882,0,-1,-1,1,1,1,5,4
1532321323887,-1,-1,-1,-2,-4,-4,-12,-5
1532321323892,-1,-1,-2,0,-5,0,-4,0
1532321323897,-1,0,-3,-2,1,-3,-9,-1
1532321323902,-2,1,1,-1,3,9,30,7
1532321323907,-1,-2,1,6,2,-3,-13,5
1532321323912,-2,0,-4,-6,-3,2,13,-4
1532321323917,0,-2,-1,-2,-4,1,10,0
1532321323922,-2,-1,-2,-1,-3,-7,-23,-2
1532321323927,0,-1,-1,-1,2,1,12,3
1532321323932,0,-1,1,5,7,4,13,-5
1532321323937,-2,-1,-1,-2,-2,-4,-15,-2
1532321323942,-1,-2,-1,0,1,-1,-7,-5
1532321323947,0,1,-1,-5,-4,-3,2,2
1532321323952,-1,0,-1,-2,-9,-2,-5,-4
1532321323957,-3,-1,-2,-3,-4,-2,-1,-5
1532321323962,-1,-2,-2,0,-1,6,37,-2
1532321323967,-1,0,0,2,8,-4,-26,1
1532321323972,0,0,1,2,2,2,6,-2
1532321323977,-1,-1,0,-3,-3,-2,-2,-4
1532321323982,-1,0,0,0,1,-2,-4,-2
1532321323987,0,0,0,0,-2,-1,-2,3
1532321323992,-1,-2,1,-1,0,-1,-4,-2
1532321323997,1,0,-1,-1,-2,2,3,2
1532321324002,0,-2,-2,-4,-4,-3,-10,3
1532321324007,1,0,0,-2,0,-1,13,1
1532321324012,1,2,1,1,3,0,-10,-2
1532321324017,-2,-2,2,2,0,-1,6,-2
1532321324022,0,1,-1,-3,-2,0,-6,0
1532321324027,0,-2,-3,-2,-5,-4,-5,2
1532321324032,-1,-2,-2,0,-1,0,-10,0
1532321324037,0,0,-1,1,3,2,4,2
1532321324042,-1,-1,1,2,-1,-3,-7,-2
1532321324047,-2,-3,-2,3,3,2,2,3
1532321324052,-2,-1,-2,-4,-3,-5,-6,-3
1532321324057,-1,1,1,0,-3,-1,-6,-1
1532321324062,0,-2,1,-1,-1,0,-11,0
1532321324067,-1,-1,-2,-2,-5,-5,12,-4
1532321324072,4,-1,-1,-1,2,1,5,3
1532321324077,-6,-3,-1,1,-3,6,-10,0
1532321324082,-3,0,-3,-2,-1,-4,15,1
1532321324087,12,2,1,0,1,-1,4,3
1532321324092,-2,0,0,-3,1,-2,-2,-8
1532321324097,4,-1,1,0,-1,0,-1,-1
1532321324102,1,-1,-3,-1,-3,-2,-10,-1
1532321324107,-8,-5,-1,-1,-7,-5,-16,17
1532321324112,1,-1,1,4,4,4,14,11
1532321324117,-3,1,-1,-2,1,0,2,1
1532321324122,3,0,-2,-3,-5,-5,-10,-7
1532321324127,1,-1,0,-1,0,-7,-26,-9
1532321324132,1,0,-1,-1,0,18,62,0
1532321324137,0,-2,2,-2,2,-17,0,-6
1532321324142,-1,-2,-1,1,-3,4,-8,-4
1532321324147,-1,2,0,-3,-3,-6,22,0
1532321324152,-8,-5,-3,-3,-1,-2,-37,-5
1532321324157,0,-3,-1,-2,1,4,13,-3
1532321324162,10,5,4,4,4,-3,4,4
1532321324167,-10,-3,-2,-2,0,1,-2,-5
1532321324172,-2,0,-2,-1,-4,-3,15,-2
1532321324177,5,1,-3,-2,-5,2,22,5
1532321324182,-5,0,-2,0,0,0,-17,-1
1532321324187,2,2,5,3,4,9,43,-21
1532321324192,-4,-5,-4,-3,-6,-4,-18,-11
1532321324197,-8,-2,-3,-6,-7,-12,-19,3
1532321324202,8,-3,2,0,1,26,14,16
1532321324207,-6,-2,-2,4,4,-1,-25,13
1532321324212,-1,-1,-1,-2,-2,-9,-11,7
1532321324217,3,0,-1,5,7,14,3,8
1532321324222,-4,-1,-1,-3,-2,-11,16,-2
1532321324227,3,-1,-2,-1,-1,0,-12,2
1532321324232,-2,0,-1,2,3,1,-3,-5
1532321324237,2,1,0,-4,-7,-8,-22,-4
1532321324242,-11,-1,-1,2,3,-1,10,-2
1532321324247,20,-2,-1,-3,-3,7,1,-4
1532321324252,-3,3,1,-2,-2,-9,2,1
1532321324257,2,7,2,0,0,-1,-1,-1
1532321324262,-7,-9,-1,-2,-1,14,-7,-7
1532321324267,-4,0,-1,0,-2,-3,7,-3
1532321324272,3,-2,-2,1,1,-2,-8,-2
1532321324277,-2,-2,-3,-2,-2,2,1,-7
1532321324282,0,-1,-1,-4,-7,-15,-5,-7
1532321324287,-3,1,-1,-2,-3,-9,-3,-2
1532321324292,1,1,2,3,5,8,12,0
1532321324297,-5,-2,0,0,3,9,9,-2
1532321324302,-2,0,-2,-2,-4,-15,-8,1
1532321324307,-5,-3,-3,0,-2,8,10,-1
1532321324312,0,1,-2,-4,-5,-9,-18,2
1532321324317,1,-2,-2,-2,-3,0,0,0
1532321324322,-1,0,-3,-1,0,-1,-25,0
1532321324327,-3,-1,2,3,5,-4,-2,-1
1532321324332,1,0,-1,2,6,4,-17,-1
1532321324337,-1,-2,-3,-5,-10,-4,8,0
1532321324342,-1,-2,-2,-2,-1,-2,9,0
1532321324347,-4,-1,-2,-1,-3,-14,2,0
1532321324352,-1,-3,3,-1,2,5,8,-4
1532321324357,0,-2,1,0,2,19,16,1
1532321324362,0,1,1,2,3,-16,-1,1
1532321324367,1,0,0,0,0,-3,-5,-1
1532321324372,-3,0,-1,0,-7,-10,-2,-1
1532321324377,10,4,-3,1,-1,-6,-2,-5
1532321324382,-3,-2,-1,-4,-3,8,10,-6
1532321324387,-4,-6,-1,-2,-5,8,9,0
1532321324392,4,1,1,-1,0,4,-3,4
1532321324397,-3,-3,0,-5,-7,1,-5,-9
1532321324402,-8,10,-2,-2,1,9,13,-19
1532321324407,12,6,0,5,11,-30,-34,43
1532321324412,11,-6,-2,-3,-3,-8,12,-3
1532321324417,0,2,2,2,1,13,-19,-4
1532321324422,0,-3,-1,1,-4,-3,24,4
1532321324427,-25,-6,-1,-3,-1,5,-2,-10
1532321324432,11,-2,-2,-1,0,7,21,13
1532321324437,-7,-1,0,-1,1,-10,-12,13
1532321324442,-1,-12,-1,-2,-2,-8,-11,-11
1532321324447,-8,0,1,4,3,4,-17,-18
1532321324452,12,4,0,-1,-4,-1,17,0
1532321324457,1,2,0,-6,-6,11,4,4
1532321324462,-4,-3,-5,0,-1,-1,-8,3
1532321324467,-3,-5,-4,0,2,-7,5,-7
1532321324472,-13,0,0,-2,-1,7,-22,-12
1532321324477,4,-2,-2,2,3,-9,-8,-3
1532321324482,3,10,4,0,-1,-16,-7,9
1532321324487,1,1,2,0,-3,6,-21,-7
1532321324492,-7,-1,-4,-1,-5,6,30,2
1532321324497,-2,-2,-2,-3,-1,8,10,-13
1532321324502,4,-2,-1,-1,3,-5,-27,14
1532321324507,1,-5,-1,2,2,1,36,-2
1532321324512,-7,6,0,0,-3,-9,-4,4
1532321324517,10,-4,-3,-4,-7,12,-1,0
1532321324522,-4,-3,0,3,3,3,10,0
1532321324527,6,2,2,0,3,-1,-5,-4
1532321324532,-6,-4,0,1,0,-8,-24,-1
1532321324537,5,1,0,1,3,4,24,8
1532321324542,-17,2,0,-3,-3,9,4,1
1532321324547,7,0,0,0,2,-8,-5,-8
1532321324552,-11,1,0,-5,-6,-1,-12,1
1532321324557,-4,4,-3,2,3,-2,-7,-1
1532321324562,6,2,0,-1,-4,2,1,4
1532321324567,-4,-4,1,1,0,-18,-12,-6
1532321324572,0,0,0,2,2,18,10,-2
1532321324577,-2,-3,-1,-1,3,14,2,-1
1532321324582,4,-4,-1,0,2,1,2,0
1532321324587,-3,-1,0,-1,-3,-9,-7,0
1532321324592,4,-1,-2,-4,0,-2,3,-1
1532321324597,-1,-1,-1,-4,-9,-4,11,2
1532321324602,-5,-4,-3,0,-5,-6,-12,-9
1532321324607,15,0,0,-3,-2,-13,-10,9
1532321324612,2,0,2,-1,2,-4,8,-4
1532321324617,-6,-2,-3,3,5,-3,-20,-7
1532321324622,-1,0,-1,-2,-5,1,12,0
1532321324627,-6,-2,-2,-5,-5,4,-8,-12
1532321324632,-1,3,0,3,1,6,13,6
1532321324637,-3,-5,3,-1,-1,0,6,3
1532321324642,2,-2,-1,1,0,-2,-10,0
1532321324647,4,-11,-2,0,3,0,-3,-4
1532321324652,2,-1,0,1,0,-5,-1,1
1532321324657,-9,-3,-4,-3,-6,-14,-6,-2
1532321324662,1,-1,-2,-3,-2,12,5,2
1532321324667,-4,-1,-1,-2,-1,2,2,0
1532321324672,0,-1,-2,1,2,0,0,-3
1532321324677,9,1,1,3,-3,-10,-10,-1
1532321324682,-1,-3,1,-4,4,6,6,-2
1532321324687,-2,2,-2,-5,-10,2,4,-1
1532321324692,-2,-2,-3,-3,-2,-1,-3,-5
1532321324697,-1,2,0,-1,0,3,-2,-2
1532321324702,1,2,0,0,3,-10,-5,1
1532321324707,-5,-1,-1,1,0,-3,-11,-5
1532321324712,-3,-1,-2,0,0,4,10,-10
1532321324717,1,-2,-3,-2,-3,-2,-2,5
1532321324722,3,2,-1,1,-1,-14,-8,-4
1532321324727,-1,1,-1,0,1,4,0,0
1532321324732,2,-2,-2,-3,-6,-7,-6,1
1532321324737,-1,5,-1,0,-1,6,6,-2
1532321324742,1,-9,0,-1,-1,2,3,0
1532321324747,-2,-2,-2,4,3,-9,-4,-6
1532321324752,-2,-1,0,0,3,9,0,0
1532321324757,1,-1,-1,-2,0,2,5,3
1532321324762,-6,0,-5,-2,-4,-14,-17,-1
1532321324767,-1,-1,0,2,0,16,11,1
1532321324772,0,2,0,-1,0,-6,-6,3
1532321324777,-2,0,-1,1,0,1,-2,-1
1532321324782,2,0,-1,-1,-2,-3,1,-1
1532321324787,-5,1,-2,-1,-1,-2,1,2
1532321324792,-1,-1,-2,-1,-1,-2,-3,0
1532321324797,0,0,0,-1,5,1,-3,-3
1532321324802,-2,1,0,0,-1,1,1,2
1532321324807,0,0,-1,-5,-5,3,3,1
1532321324812,-1,-1,-2,-3,-6,-6,-6,-3
1532321324817,-7,-2,0,-1,-3,-2,-7,-6
1532321324822,7,3,0,0,0,3,6,1
1532321324827,-3,-1,0,2,2,-2,1,-1
1532321324832,-2,0,1,2,-1,-10,-9,-2
1532321324837,7,8,1,0,1,6,7,-1
1532321324842,0,-15,-3,-1,-2,8,21,-2
1532321324847,-9,-5,2,-1,1,-4,-11,-2
1532321324852,-13,9,-3,-1,-2,-7,4,1
1532321324857,-14,-8,-2,-4,0,-4,-16,-5
1532321324862,15,3,0,1,-4,-7,3,1
1532321324867,8,1,-1,-2,0,2,-3,-1
1532321324872,4,-4,1,2,2,10,11,8
1532321324877,-6,0,-1,-1,-4,-9,1,1
1532321324882,-6,0,1,-1,4,10,1,1
1532321324887,10,1,-3,-2,-2,-4,3,-1
1532321324892,4,6,0,1,1,-8,-9,-1
1532321324897,2,-9,0,2,0,20,6,2
1532321324902,-7,-2,-1,-2,-2,-3,-9,1
1532321324907,-2,-2,-2,0,-2,-2,-1,-3
1532321324912,2,2,0,-3,-3,-9,-8,-3
1532321324917,-8,-10,-1,0,1,14,16,1
1532321324922,0,2,-2,0,-1,-15,-7,-5
1532321324927,-16,-1,2,-1,0,0,-1,2
1532321324932,-11,-7,-2,-1,-1,7,1,-5
1532321324937,37,8,0,-1,-2,-6,-7,0
1532321324942,-3,2,1,-3,-1,-3,-1,2
1532321324947,1,2,-2,-2,-1,4,10,-2
1532321324952,5,-7,-1,-2,0,7,12,-2
1532321324957,3,1,0,1,3,-11,-38,1
1532321324962,-1,1,1,1,-2,0,3,-4
1532321324967,9,0,-3,-2,-2,-11,-15,2
1532321324972,-6,-4,1,-2,-3,1,1,-1
1532321324977,-2,2,0,-2,-1,2,17,5
1532321324982,-6,1,-2,-1,-1,-4,-10,-2
1532321324987,0,-5,0,0,2,1,-5,-2
1532321324992,6,-3,-1,1,-1,3,11,5
1532321324997,-4,0,-2,-1,-3,-7,3,-4
1532321325002,-5,10,2,0,-1,1,-9,-2
1532321325007,-5,-5,-2,-3,-1,-1,14,0
1532321325012,-9,-3,-1,0,1,0,-7,-4
1532321325017,-15,-3,-2,-1,0,-7,-1,-2
1532321325022,6,-5,-2,0,0,2,-4,-4
1532321325027,-2,-1,-6,-2,-7,-5,-18,1
1532321325032,-8,5,0,1,1,0,5,-4
1532321325037,-12,-1,-1,0,-2,1,2,2
1532321325042,8,-4,-3,-3,-2,-4,0,7
1532321325047,-20,8,3,-1,1,6,-4,-1
1532321325052,7,-1,2,-1,0,0,-8,2
1532321325057,-2,0,0,-2,-5,-13,-10,0
1532321325062,9,-2,-4,-1,-1,-4,3,0
1532321325067,2,-3,-1,2,1,-3,-2,1
1532321325072,5,-1,-1,-1,-1,2,-1,-3
1532321325077,-19,-5,-2,-2,-3,4,2,-3
1532321325082,-1,0,0,-1,2,-2,1,-2
1532321325087,-2,1,-2,1,0,-4,7,-6
1532321325092,3,-3,0,-1,0,2,-6,-1
1532321325097,11,0,0,-1,-1,-7,-17,-7
1532321325102,-9,-3,0,-2,-2,-7,7,-7
1532321325107,0,-1,-1,1,2,29,20,4
1532321325112,16,-2,-2,-2,0,-7,-9,-3
1532321325117,16,2,-1,-2,-2,-4,-14,0
1532321325122,-8,-3,0,0,-1,4,24,3
1532321325127,5,2,-1,-2,-2,-2,0,1
1532321325132,-5,0,-1,1,-1,2,-5,4
1532321325137,4,-1,-3,0,-2,-7,-5,0
1532321325142,-3,1,1,-1,-2,-3,-6,-2
1532321325147,12,3,1,0,-1,-3,0,-1
1532321325152,-18,-6,-1,0,-1,5,7,0
1532321325157,4,5,-1,-1,-1,1,22,-1
1532321325162,-2,1,-1,-2,-1,1,-6,0
1532321325167,-5,-3,-1,-4,-4,-10,2,0
1532321325172,8,2,0,-1,1,0,-6,-3
1532321325177,-16,-6,0,0,0,1,1,-4
1532321325182,7,1,0,1,0,8,0,5
1532321325187,14,0,2,-1,-2,-4,-11,-9
1532321325192,-14,0,-3,-4,-4,-10,0,6
1532321325197,0,-1,-5,-2,0,11,-1,2
1532321325202,-6,-1,-1,0,-1,1,-3,-2
1532321325207,-3,-4,-3,-1,-1,-1,-2,-3
1532321325212,4,1,0,1,0,-9,-8,-5
1532321325217,0,1,2,1,1,1,9,-2
1532321325222,4,0,-2,-5,-4,1,-1,3
1532321325227,-4,-3,2,-1,1,-4,-4,5
1532321325232,-6,-1,-1,-3,-2,-2,-9,-8
1532321325237,8,-1,-2,0,-1,-2,6,-2
1532321325242,0,-1,1,-1,0,-1,-9,1
1532321325247,-2,-2,-2,1,-2,0,4,-3
1532321325252,3,0,0,0,0,2,6,2
1532321325257,0,-2,1,0,0,0,0,-1
1532321325262,-6,-6,-1,1,-2,-2,-7,-3
1532321325267,-4,-1,0,-1,-3,0,2,-1
1532321325272,1,-1,-3,-2,-2,1,0,3
1532321325277,-1,0,-1,-1,0,-3,-2,-3
1532321325282,-5,-3,-3,0,0,-2,-3,-5
1532321325287,-12,5,4,-1,2,1,-3,1
1532321325292,1,-2,-3,1,-1,2,0,-5
1532321325297,0,1,-1,-3,-3,-5,-3,3
1532321325302,-8,-2,-3,-1,-2,1,6,1
1532321325307,1,-2,-2,-1,-1,-3,-1,-2
1532321325312,3,1,1,-2,1,-2,1,0
1532321325317,-6,-2,-1,-2,0,-1,-1,-5
1532321325322,3,-1,1,-1,1,-1,-3,3
1532321325327,1,-1,-2,-1,-2,-1,0,-5
1532321325332,3,-3,2,0,-1,0,1,7
1532321325337,4,-1,-5,4,1,-2,-3,0
1532321325342,2,0,-1,-4,0,-2,-3,-2
1532321325347,4,1,-1,-1,-1,-3,0,-2
1532321325352,-4,-2,-1,0,-1,-3,-2,-6
1532321325357,-2,-1,-2,-10,-3,-1,-1,1
1532321325362,-2,0,-2,0,-1,0,-4,-4
1532321325367,-5,-2,-2,-1,1,2,1,-6
1532321325372,-1,-2,-3,-1,0,-1,-1,2
1532321325377,2,0,2,5,3,4,6,-2
1532321325382,3,1,-1,-1,-4,-2,1,8
1532321325387,-2,-2,-4,-6,-4,-3,-4,0
1532321325392,-1,1,-3,0,-5,-2,-3,-6
1532321325397,6,3,4,2,4,0,-1,9
1532321325402,-4,-2,-1,5,0,-2,-1,-8
1532321325407,2,1,-4,6,10,12,3,5
1532321325412,2,3,2,-7,-15,-6,-1,-6
1532321325417,-9,-6,-7,-2,-3,-5,-1,-5
1532321325422,-1,-1,0,-10,-6,-2,-2,1
1532321325427,2,1,0,3,0,-1,1,2
1532321325432,1,1,1,-2,1,1,1,2
1532321325437,1,-1,0,0,-2,-4,-3,2
1532321325442,-1,-3,0,-1,-3,-4,-6,-3
1532321325447,2,0,0,4,11,8,7,3
1532321325452,0,-5,-14,6,-1,5,2,-1
1532321325457,-3,-1,1,-15,-15,-5,-2,0
1532321325462,-2,2,3,0,0,-4,-8,-1
1532321325467,-1,1,7,-8,-3,-5,-7,-1
1532321325472,3,-7,-3,10,3,0,-1,1
1532321325477,-2,-3,-5,0,-5,-4,1,-1
1532321325482,-1,-2,-4,-9,-6,-1,-1,-3
1532321325487,-2,-4,-5,-2,-6,-4,-6,2
1532321325492,-2,2,5,-4,1,-4,-7,1
1532321325497,0,1,3,4,5,2,1,-1
1532321325502,2,1,2,7,9,10,14,-2
1532321325507,2,1,-1,0,-1,-2,1,0
1532321325512,-2,0,-2,-3,4,0,0,-2
1532321325517,-1,0,2,0,-2,-2,-4,-2
1532321325522,-1,-1,-4,-2,0,2,4,-2
1532321325527,-3,-5,-2,-1,-8,-13,-4,-3
1532321325532,-1,0,3,-2,3,8,4,-3
1532321325537,-1,-2,-1,1,-1,0,-4,-4
1532321325542,-2,-1,-3,0,0,-1,-4,-3
1532321325547,-1,-2,0,-2,-2,-2,-10,-5
1532321325552,-1,0,0,-2,-3,-4,-7,-3
1532321325557,0,-1,0,-1,0,2,-4,-2
1532321325562,-1,0,-1,2,3,0,-2,1
1532321325567,-1,-2,0,-2,-4,-1,2,-1
1532321325572,0,0,0,-2,-2,-1,-3,0
1532321325577,-2,-1,-1,-1,0,3,-1,0
1532321325582,-2,-1,-1,0,-4,-3,-3,2
1532321325587,1,0,-2,1,-4,-2,6,3
1532321325592,0,0,0,-3,-1,-2,8,4
1532321325597,-2,-1,0,-1,-3,-2,7,0
1532321325602,-2,-1,2,2,0,-1,7,-1
1532321325607,0,-1,1,-1,0,4,2,0
1532321325612,-1,-2,-2,-2,-1,0,-3,-2
1532321325617,-2,-1,-2,1,0,1,2,-2
1532321325622,-1,1,-2,-1,1,-2,-1,0
1532321325627,-1,-3,-2,-1,-1,0,1,1
1532321325632,-1,0,1,-2,-1,-3,1,2
1532321325637,0,3,0,1,1,-1,-1,0
1532321325642,0,-3,-1,1,0,-1,-3,3
1532321325647,0,-1,-1,1,2,-1,0,3
1532321325652,0,-5,-6,0,-1,-1,-1,-2
1532321325657,0,1,1,1,1,0,-1,-1
1532321325662,-1,-2,0,-1,-1,-2,-12,-4
1532321325667,1,1,0,-2,-1,-1,-7,-2
1532321325672,-1,-2,-1,0,0,-1,-3,-3
1532321325677,-2,-2,-3,-3,-1,-3,3,-6
1532321325682,0,5,2,1,-1,3,7,-3
1532321325687,-3,-4,-5,-1,0,-2,1,-6
1532321325692,-1,0,1,-1,-1,-2,1,-1
1532321325697,-1,-2,-1,0,0,0,2,0
1532321325702,-3,0,1,-1,-1,-1,1,0
1532321325707,-2,-1,0,-2,-3,-2,-1,-3
1532321325712,-1,-1,-1,-1,-1,0,1,1
1532321325717,-2,-2,-1,-2,-3,-2,-4,1
1532321325722,1,-2,-3,-1,-1,1,2,-1
1532321325727,-2,2,-1,0,-2,1,3,0
1532321325732,0,0,1,-1,1,1,0,-3
1532321325737,-1,-3,-2,-2,-1,-1,-3,-1
1532321325742,0,-1,-1,-1,-2,1,-1,2
1532321325747,-1,-1,-1,-1,0,-3,-1,-1
1532321325752,-1,-1,-1,0,-3,-3,0,-5
1532321325757,1,-1,-1,1,-1,-1,-2,-2
1532321325762,-3,0,-2,0,-3,0,-2,0
1532321325767,0,-3,2,1,-1,-2,-2,0
1532321325772,-2,-1,-1,-3,-1,-2,-3,1
1532321325777,0,0,0,-1,0,1,-2,3
1532321325782,-1,-5,0,0,1,-1,6,-2
1532321325787,0,0,-1,-2,-2,0,-2,2
1532321325792,-1,-2,-2,0,-2,-2,-6,2
1532321325797,-4,-1,1,0,-1,1,-7,1
1532321325802,2,1,-1,-1,-2,0,-7,1
1532321325807,1,1,-1,0,1,-1,-2,0
1532321325812,-2,0,-2,-2,0,0,1,-1
1532321325817,2,2,-1,-2,-2,-5,-2,1
1532321325822,0,-5,-3,-1,-1,0,1,-2
1532321325827,-1,-2,-1,-1,-1,-1,2,-1
1532321325832,1,1,-1,-1,-2,-1,1,-1
1532321325837,-2,-2,-1,-1,0,0,0,-3
1532321325842,-3,-1,2,0,0,-2,-6,-1
1532321325847,0,0,-1,-1,0,0,2,-1
1532321325852,-3,-2,-1,-1,1,-1,1,1
1532321325857,0,0,-2,0,-1,1,0,0
1532321325862,-1,-1,0,-1,-2,-2,-6,0
1532321325867,-2,-2,0,-1,0,-1,-6,-2
1532321325872,0,1,2,2,1,1,-1,-1
1532321325877,0,-1,0,0,0,1,-1,-2
1532321325882,0,0,-2,-2,0,0,-3,-1
1532321325887,0,0,-1,-2,-1,-2,-3,-1
1532321325892,-1,-1,-1,-1,0,-1,-2,0
1532321325897,-1,-1,1,-3,-1,0,-1,1
1532321325902,-1,-3,-1,-1,1,1,3,-1
1532321325907,-1,-1,-1,-1,-1,0,0,0
1532321325912,0,-3,0,-3,-2,-2,0,-1
1532321325917,-1,-2,-1,0,-1,-1,1,1
1532321325922,-2,0,-2,-1,0,-2,0,-1
1532321325927,-2,-1,0,-1,-1,-1,0,0
1532321325932,-2,-2,-1,-1,-1,-3,-4,0
1532321325937,-1,-1,-1,-1,-3,-3,-3,-5
1532321325942,0,0,0,1,-2,-2,0,-2
1532321325947,-1,-2,-1,-2,-2,-2,2,-2
1532321325952,-1,0,0,-1,0,-1,5,1
1532321325957,0,0,0,1,-1,-2,10,2
1532321325962,0,-2,0,0,-1,0,1,-2
1532321325967,-1,-1,-1,0,0,1,-3,-2
1532321325972,-1,-2,-2,0,1,1,-5,-1
1532321325977,-1,-1,-2,-1,-1,-1,-8,-1
1532321325982,-1,1,0,1,-1,-1,-5,-1
1532321325987,0,-1,-2,0,0,-3,-5,-1
1532321325992,0,-1,0,-2,-4,-1,-3,-1
1532321325997,-1,-1,-1,-2,-1,0,-1,1
1532321326002,-1,-2,-1,-1,-2,-2,-4,1
1532321326007,0,-1,0,-2,-2,0,2,-3
1532321326012,-1,-1,-2,0,0,-4,-1,-1
1532321326017,0,0,0,-1,0,1,0,-2
1532321326022,-2,-1,0,-1,2,1,0,-1
1532321326027,-2,-1,-2,0,-1,0,1,-1
1532321326032,-1,0,1,-1,-1,0,-2,-1
1532321326037,-1,-1,-1,1,-1,-1,-3,-1
1532321326042,0,1,-1,-3,0,0,2,2
1532321326047,-1,0,-1,-2,0,-1,-1,0
1532321326052,-1,-3,-1,-1,0,-1,0,-1
1532321326057,-2,0,0,0,1,-2,0,-2
1532321326062,0,-2,-2,0,-2,-2,1,-3
1532321326067,-3,0,0,2,-3,-2,-3,0
1532321326072,0,0,-2,0,-2,1,-4,-1
1532321326077,1,-1,0,0,0,1,1,-1
1532321326082,1,-3,-1,-1,-2,-1,-2,-2
1532321326087,-1,-1,-1,-1,0,-3,0,-2
1532321326092,-2,-1,0,-1,-1,-1,0,-1
1532321326097,-3,-2,-2,0,0,-1,-2,-1
1532321326102,-1,2,0,-1,0,-1,-1,-2
1532321326107,-1,-1,0,0,0,-1,1,0
1532321326112,-1,-2,0,-1,-1,-3,1,1
1532321326117,0,-1,-1,-1,-2,-4,-2,-1
1532321326122,-2,-3,-2,0,-1,-1,0,0
1532321326127,0,-1,-1,-1,-2,2,2,0
1532321326132,0,0,-1,-1,0,1,-2,0
1532321326137,-1,-1,-1,-1,-2,0,-1,0
1532321326142,-3,-1,1,0,1,-3,0,3
1532321326147,-1,-1,-1,0,0,-2,-2,2
1532321326152,-2,-3,0,1,1,0,1,-1
1532321326157,-1,-2,0,-2,-1,-2,-2,-1
1532321326162,1,0,-1,-1,0,2,-3,-1
1532321326167,-1,0,0,-1,-1,1,-2,-2
1532321326172,-2,1,-1,-1,0,0,0,-2
1532321326177,-1,0,-3,-1,-1,2,2,-1
1532321326182,0,-1,-2,-1,-1,-1,0,-2
1532321326187,1,-1,-4,0,1,-1,-1,-3
1532321326192,2,-1,0,0,0,-2,-2,-2
1532321326197,0,-2,1,-1,0,-1,-1,-2
1532321326202,0,0,0,-1,-1,-2,-1,1
1532321326207,-2,1,1,-1,-1,1,0,0
1532321326212,0,-1,1,-1,-2,1,0,0
1532321326217,0,0,0,1,-1,-4,-1,-2
1532321326222,-1,0,1,-2,0,-3,0,-1
1532321326227,-1,-1,-2,-2,-1,-3,-1,-1
1532321326232,0,-1,-1,-1,-2,-1,-2,-1
1532321326237,1,-2,-1,0,0,0,-3,0
1532321326242,-1,-2,0,-1,-3,1,-1,-1
1532321326247,-1,-1,-1,-1,1,0,-3,0
1532321326252,0,0,0,-1,1,2,2,0
1532321326257,0,0,0,-1,-2,0,0,0
1532321326262,-1,-1,-2,0,-1,-1,1,1
1532321326267,-2,-3,-1,-2,-3,0,-1,-1
1532321326272,-2,0,-2,0,-1,-2,-2,-1
1532321326277,-2,0,-2,-3,0,0,-1,-2
1532321326282,0,0,-2,0,1,2,0,-3
1532321326287,1,-1,1,0,-2,0,0,0
1532321326292,-1,0,-3,0,-3,-1,0,-2
1532321326297,1,0,-1,-1,-1,-5,-1,-2
1532321326302,-4,1,-1,-1,0,-1,1,-2
1532321326307,1,1,-1,0,0,-1,1,-2
1532321326312,-1,-2,-1,-1,-2,-2,-1,-3
1532321326317,0,0,0,-1,0,1,0,-2
1532321326322,1,-2,0,-2,0,0,-2,-2
1532321326327,1,-1,0,-1,0,-1,0,-1
1532321326332,-2,-1,-1,-1,-1,1,-3,2
1532321326337,-1,0,-1,-1,-3,-1,1,0
1532321326342,-1,-1,0,0,0,0,-2,-1
1532321326347,-1,0,-3,-2,-1,-3,-3,-1
1532321326352,-1,-1,-1,-1,0,-2,-1,-6
1532321326357,0,-2,-3,0,-2,-1,-3,-6
1532321326362,1,0,0,0,-1,-1,1,-8
1532321326367,0,-2,-1,1,-2,0,-2,-3
1532321326372,-1,1,-1,-1,0,2,-1,-1
1532321326377,-2,0,0,-1,0,1,-3,2
1532321326382,1,0,0,-2,-1,-1,-2,3
1532321326387,-2,0,-2,-1,-1,0,0,-1
1532321326392,0,0,-1,-1,0,-1,0,-1
1532321326397,-2,0,-1,-2,0,2,1,1
1532321326402,-1,-1,-1,0,-2,-2,-2,3
1532321326407,-2,-2,1,-1,-1,-2,-1,4
1532321326412,0,-2,-1,-2,-1,0,0,2
1532321326417,-1,-2,0,0,-3,-2,-3,0
1532321326422,0,-1,0,0,0,0,3,0
1532321326427,1,0,1,1,-3,1,1,-1
1532321326432,-1,-1,-2,-2,-2,-2,0,0
1532321326437,-2,-1,-1,0,0,-2,-2,-1
1532321326442,-1,-2,0,-2,1,-1,-1,0
1532321326447,1,0,-1,-1,0,0,2,-1
1532321326452,-1,-1,-1,-1,-1,-1,0,-3
1532321326457,-1,0,1,0,0,-1,-2,-1
1532321326462,0,-2,-1,-1,-2,-1,-2,-2
1532321326467,-1,-1,-1,0,0,-1,0,-3
1532321326472,0,0,-2,-1,-1,-1,3,-2
1532321326477,0,-3,-1,0,-1,1,1,0
1532321326482,-1,0,-2,1,-1,1,-1,0
1532321326487,-2,0,0,0,0,-1,-2,1
1532321326492,0,1,0,-2,0,-1,-2,1
1532321326497,-1,-1,-1,-1,-1,-3,0,1
1532321326502,-1,1,0,0,-2,-1,-2,-1
1532321326507,-1,-1,0,-1,-1,-1,-3,-1
1532321326512,-3,-2,0,-2,1,0,0,-1
1532321326517,-2,-2,1,-1,1,-1,-3,0
1532321326522,-1,-1,-1,-1,0,-2,-1,-1
1532321326527,1,1,-2,0,0,0,-1,1
1532321326532,0,-1,0,-2,-2,1,-1,-2
1532321326537,0,0,-1,-1,-2,0,0,0
1532321326542,1,-1,-1,0,-2,-1,-1,-1
1532321326547,-3,0,-2,-1,0,-1,-2,-2
1532321326552,-2,-1,-1,0,-1,0,-5,0
1532321326557,-2,0,-2,0,2,1,-3,-1
1532321326562,-1,-1,1,-1,-1,-1,-1,-3
1532321326567,-1,-1,0,-1,-2,-1,-3,-2
1532321326572,0,-2,0,-2,-1,-1,-1,0
1532321326577,-2,-1,0,-2,-1,0,1,1
1532321326582,-2,-1,-2,-1,0,-1,-1,0
1532321326587,-1,-2,0,0,-1,0,0,-3
1532321326592,1,1,-3,-2,0,0,-2,-3
1532321326597,-1,1,1,0,0,-2,1,-2
1532321326602,1,-1,-2,0,0,1,1,0
1532321326607,-1,-1,0,-1,0,-2,0,-1
1532321326612,-1,-1,0,1,0,-3,0,1
1532321326617,-1,0,-1,0,-1,0,-1,-1
1532321326622,-1,0,0,0,-1,-3,-1,-1
1532321326627,-2,0,-1,-1,-1,0,0,-1
1532321326632,-1,-2,0,-1,-1,0,1,0
1532321326637,-1,-2,0,-1,-2,-1,-2,-1
1532321326642,-1,0,-1,-1,0,0,0,-3
1532321326647,0,-2,0,-1,1,1,-1,-2
1532321326652,-1,-3,0,-1,0,-1,0,-2
1532321326657,-1,-1,0,-1,-1,-1,-2,-1
1532321326662,0,-1,1,-2,-1,-2,-1,0
1532321326667,1,0,-1,-1,-1,-3,-1,1
1532321326672,-3,-1,1,-2,-2,-3,-2,0
1532321326677,0,-1,-2,-1,-2,-1,-2,1
1532321326682,-1,-2,-1,0,1,0,-1,-4
1532321326687,0,-2,-2,0,-1,0,1,1
1532321326692,0,0,-1,0,-1,-1,-1,1
1532321326697,0,0,-2,-1,-2,-1,-2,-1
1532321326702,0,0,-1,0,-1,0,-2,-1
1532321326707,-1,-1,-3,-2,0,1,-1,1
1532321326712,-1,-2,1,-1,0,-3,0,-1
1532321326717,3,-1,-1,0,-1,-3,-1,-3
1532321326722,1,-1,-1,-1,-1,-2,-1,-1
1532321326727,0,1,-1,-2,-1,0,1,0
1532321326732,1,-1,0,0,-1,0,2,0
1532321326737,-1,-1,-1,-1,0,0,-1,0
1532321326742,0,-2,0,1,-1,-2,2,-1
1532321326747,0,0,0,0,-1,-1,-2,-2
1532321326752,-1,0,-1,0,-1,-1,-2,-1
1532321326757,0,-1,-2,-2,-2,-1,-1,-1
1532321326762,-1,-1,-2,1,1,2,0,-3
1532321326767,-2,-1,-2,-2,0,0,1,0
1532321326772,1,-1,-1,-2,-2,1,-1,-2
1532321326777,-1,0,0,0,-2,0,-2,-2
1532321326782,0,-2,-1,-1,-2,-1,-1,-1
1532321326787,-1,-1,0,0,0,1,1,-1
1532321326792,0,0,0,1,-1,-1,-1,-3
1532321326797,-2,0,-2,-3,1,0,1,-2
1532321326802,-1,0,-1,-2,-2,0,-3,1
1532321326807,-2,-2,-1,0,-2,1,-1,-3
1532321326812,0,-2,0,0,-1,-1,-1,0
1532321326817,-1,-1,-1,-1,0,-4,-2,0
1532321326822,-1,0,-1,-1,0,-3,-2,-1
1532321326827,-1,-3,0,-1,-2,-2,-2,-1
1532321326832,0,-1,-1,-1,-2,-2,-3,-1
1532321326837,-1,-2,-2,-1,-3,-1,-2,0
1532321326842,-2,0,-1,-2,-1,2,0,-1
1532321326847,-1,0,0,-1,0,-2,-1,-1
1532321326852,-2,0,0,0,1,0,0,-1
1532321326857,1,-2,2,0,0,1,-1,-2
1532321326862,-1,-2,0,-2,0,-1,-3,0
1532321326867,1,-1,-1,0,-2,-1,-2,0
1532321326872,0,0,0,-1,2,2,1,0
1532321326877,-2,-1,-1,1,0,-2,-1,-2
1532321326882,0,0,-2,0,-3,-3,1,-1
1532321326887,-1,-1,0,-1,-2,-2,0,0
1532321326892,0,-1,-2,-1,-2,-1,-1,-2
1532321326897,-1,0,0,-1,-2,-2,0,-1
1532321326902,-1,-1,0,-1,-2,1,1,1
1532321326907,-3,-1,-2,-2,0,1,0,-1
1532321326912,0,-1,-2,-1,1,-2,0,2
1532321326917,0,0,0,-2,-1,-1,-2,1
1532321326922,-1,-1,0,0,0,0,-3,-1
1532321326927,2,-2,0,-1,1,-1,-1,0
1532321326932,-2,-1,1,0,-1,-3,-1,-1
1532321326937,-1,-2,0,0,1,1,1,-2
1532321326942,-2,-1,0,-2,-1,0,1,0
1532321326947,-2,-1,0,0,-2,0,0,0
1532321326952,-1,-2,1,-1,1,0,-2,-1
1532321326957,0,0,-1,-1,-1,-1,-2,-1
1532321326962,-1,1,-1,0,-1,0,1,0
1532321326967,1,0,-2,-2,0,1,-1,-3
1532321326972,-2,-1,-2,0,-2,-2,-2,-1
1532321326977,-3,-1,-1,-1,1,-1,0,0
1532321326982,-1,-1,0,-1,-1,-2,-1,-1
1532321326987,-2,0,2,0,0,-1,0,-2
1532321326992,0,-2,-1,-2,0,-1,-2,-3
1532321326997,-1,-1,-2,-1,0,-1,-2,-1
1532321327002,1,0,1,-1,-1,0,0,0
1532321327007,0,0,-2,-3,-1,2,0,1
1532321327012,-1,0,-2,0,-2,-1,-1,1
1532321327017,-3,-1,0,-1,-2,-1,-2,-1
1532321327022,0,-1,-2,0,0,-3,-1,-2
1532321327027,0,-2,-1,0,-1,-3,-2,-2
1532321327032,0,-1,0,-1,-1,-1,-1,-1
1532321327037,-2,-3,-1,-3,-1,-1,0,1
1532321327042,0,-1,-2,-1,-2,0,2,0
1532321327047,-1,-1,0,0,-1,-1,0,-2
1532321327052,-1,0,-2,0,-1,-1,-1,1
1532321327057,0,0,-1,-1,-1,-5,0,-1
1532321327062,-2,-2,0,-2,0,-1,-1,-2
1532321327067,0,0,-1,-2,-1,0,-1,0
1532321327072,0,0,-1,-3,-1,1,-1,-1
1532321327077,1,0,-1,0,-3,1,2,-1
1532321327082,-1,-1,-2,0,0,-1,-2,-1
1532321327087,0,-2,-2,-2,-2,-1,-2,0
1532321327092,-2,-1,0,0,0,-2,0,-1
1532321327097,1,-1,1,-1,-1,-1,1,0
1532321327102,-2,0,-1,-1,-2,0,0,-1
1532321327107,0,0,0,0,-1,1,2,-2
1532321327112,-2,-2,-1,-3,-2,1,-1,-2
1532321327117,1,-2,-1,-2,-1,-2,-2,-2
1532321327122,-1,0,1,0,-2,-2,-4,-2
1532321327127,-1,-1,1,0,1,-1,0,0
1532321327132,0,0,-2,-2,1,-2,-1,0
1532321327137,-2,-1,0,-1,0,1,-2,-1
1532321327142,-1,-2,-1,0,0,-2,-2,0
1532321327147,0,-2,-2,-1,0,0,0,1
1532321327152,1,-1,1,-1,-1,-2,0,0
1532321327157,-1,-2,-2,-1,-1,-1,-2,-1
1532321327162,-3,0,-2,-1,-1,-2,0,-1
1532321327167,0,0,-1,1,0,-2,-1,-2
1532321327172,0,-2,-1,0,0,0,0,-1
1532321327177,-2,0,-2,-1,-2,-1,-2,0
1532321327182,-1,-1,0,1,0,1,1,1
1532321327187,0,0,-2,-3,-1,-1,-4,-1
1532321327192,0,-1,1,1,0,-1,0,0
1532321327197,-2,0,0,0,-1,1,-1,-2
1532321327202,2,0,-2,0,-1,-1,0,-2
1532321327207,-2,0,2,-2,0,-1,0,-2
1532321327212,-2,-2,0,0,-2,-2,-1,-2
1532321327217,-2,-1,0,-1,-1,-1,0,0
1532321327222,0,-1,0,0,0,0,-1,-1
1532321327227,-1,-1,0,-1,1,-1,-2,-2
1532321327232,0,1,-1,-3,0,1,0,-1
1532321327237,0,-3,-2,0,-1,-2,-1,1
1532321327242,-2,-1,1,-2,-1,1,-1,0
1532321327247,-2,-1,1,1,-2,-1,-1,0
1532321327252,-1,0,-2,-2,-1,-1,-2,0
1532321327257,0,-1,-2,-2,-2,-1,-1,-1
1532321327262,0,-1,-1,0,-1,-1,0,0
1532321327267,-1,-2,-1,-2,0,-2,0,-1
1532321327272,-1,-2,-2,1,-1,-1,0,-1
1532321327277,0,-2,-1,-1,-2,-1,-1,0
1532321327282,0,-1,-1,-1,-1,-3,-3,-1
1532321327287,-1,0,-1,-2,-1,-2,1,1
1532321327292,0,0,-1,0,-1,-1,0,-1
1532321327297,1,-3,0,-1,0,-1,0,-2
1532321327302,-1,-2,0,-3,0,1,-1,-2
1532321327307,-1,0,-2,-2,-1,1,-1,0
1532321327312,-1,-1,0,-2,-1,-1,-1,-1
1532321327317,1,0,0,-1,1,0,-1,-1
1532321327322,0,2,-1,-2,0,-3,0,-2
1532321327327,-1,-2,-1,-1,-1,0,1,-2
1532321327332,-2,0,-1,0,-1,-1,-2,-1
1532321327337,-1,-1,1,1,-1,0,-2,-1
1532321327342,-1,-1,-1,-1,-2,-3,-2,-1
1532321327347,0,0,0,-2,-1,0,-2,1
1532321327352,-1,1,-1,0,0,-1,0,0
1532321327357,-1,0,-1,-2,1,1,-1,1
1532321327362,-2,-2,-2,0,0,-1,-3,-1
1532321327367,-1,-2,-1,0,0,-1,-2,-2
1532321327372,-1,-2,-1,-2,-4,-1,-2,0
1532321327377,1,-1,-2,-1,-3,-2,-2,0
1532321327382,-1,0,-1,1,-1,0,2,1
1532321327387,-1,0,-2,0,-1,0,1,-2
1532321327392,0,0,-2,0,3,0,-2,-2
1532321327397,-1,0,-1,0,1,-1,-1,-2
1532321327402,0,-2,-1,0,-1,0,-1,0
1532321327407,-1,-1,-1,-1,-2,-1,0,0
1532321327412,0,-1,-1,-1,-2,-2,-1,0
1532321327417,-1,-2,-2,-2,-1,0,0,1
1532321327422,-1,-1,0,0,-2,0,-1,-1
1532321327427,1,-1,-2,0,0,0,-1,-1
1532321327432,-1,-2,-1,-2,-1,-3,1,-1
1532321327437,0,-2,0,-1,-1,-1,0,0
1532321327442,-1,-1,0,0,-2,-1,-2,1
1532321327447,0,-1,0,-2,-2,-1,2,0
1532321327452,-1,-1,0,-1,1,1,0,-1
1532321327457,0,0,-1,0,-2,-1,-2,-2
1532321327462,-1,0,-2,-1,-2,1,-1,-1
1532321327467,0,0,-1,-1,-1,0,-1,-1
1532321327472,-1,-2,-2,-1,0,0,-2,-1
1532321327477,-1,0,0,0,-1,0,-2,-1
1532321327482,0,-1,0,1,0,0,-2,-1
1532321327487,0,-3,-2,0,-2,-1,-1,2
1532321327492,1,0,-1,0,1,-2,1,0
1532321327497,-2,-1,0,-1,-1,-1,1,-3
1532321327502,-1,-1,-2,-1,-1,0,-1,-1
1532321327507,-1,1,0,-2,0,-2,0,-3
1532321327512,-2,-1,-2,-1,-1,-1,-1,-2
1532321327517,0,0,-2,0,-2,0,-1,0
1532321327522,0,-1,-2,-1,-1,-1,0,-2
1532321327527,-1,0,-2,0,-2,0,-1,-1
1532321327532,-1,-2,0,-1,-2,0,0,0
1532321327537,-1,1,0,-1,0,-1,-1,0
1532321327542,-1,-2,0,-1,0,0,-1,0
1532321327547,-1,-1,-1,-1,0,0,-1,0
1532321327552,-1,-1,0,-1,0,0,1,-1
1532321327557,-1,-3,-2,-1,-2,0,-3,-1
1532321327562,-1,-1,0,1,0,-2,0,-1
1532321327567,-3,-1,-1,-2,0,-1,1,0
1532321327572,-1,-2,1,0,-1,-1,-4,0
1532321327577,-1,0,-1,-1,-2,1,1,1
1532321327582,0,0,0,0,-1,-1,0,-1
1532321327587,-1,0,-2,0,0,-2,-1,-1
1532321327592,0,-1,-2,0,-1,-3,0,-2
1532321327597,0,-2,0,-2,1,-3,-3,-1
1532321327602,-1,-2,0,-1,-1,-1,-1,-1
1532321327607,0,-1,1,0,0,0,-1,-2
1532321327612,0,-1,0,-2,-2,-2,-2,-2
1532321327617,-1,-1,-2,-1,-1,-1,-1,-1
1532321327622,0,0,-2,0,-1,0,-1,-1
1532321327627,-1,-1,0,1,-1,0,-2,-1
1532321327632,0,-1,-1,1,1,1,1,0
1532321327637,-1,1,0,-2,-1,0,0,-2
1532321327642,0,-2,-2,-2,-1,-1,1,-3
1532321327647,1,0,-2,0,1,0,0,-2
1532321327652,-2,1,-1,-3,0,-2,0,0
1532321327657,1,-1,0,-1,1,-1,0,1
1532321327662,0,0,-1,-2,-1,1,-2,-1
1532321327667,0,0,0,-2,-4,-3,-3,-1
1532321327672,0,-2,0,0,-1,-1,-1,-2
1532321327677,-1,-2,1,-2,-3,0,0,-3
1532321327682,-1,-1,-2,0,-2,0,-1,-1
1532321327687,-1,-1,-1,-1,0,-1,-1,0
1532321327692,-1,-2,-1,-1,-2,0,0,0
1532321327697,0,-1,-1,0,1,-2,0,0
1532321327702,1,-1,-1,-1,1,-1,-1,0
1532321327707,0,-1,-2,0,1,-2,-1,1
1532321327712,-1,0,-2,-2,-2,-1,-3,-2
1532321327717,-2,-1,-1,0,-1,3,-2,0
1532321327722,-2,0,0,0,-2,-2,-1,-1
1532321327727,-1,-1,-1,-1,-1,-3,0,-1
1532321327732,0,-1,0,-1,-1,-1,-2,-1
1532321327737,0,0,-2,-1,0,-2,-2,0
1532321327742,-2,1,-2,-1,-1,0,0,0
1532321327747,0,-1,-1,-3,-1,0,0,-1
1532321327752,1,-1,-1,-1,0,0,-2,-1
1532321327757,0,-1,-1,1,-2,0,0,0
1532321327762,0,-2,-1,-1,-1,0,0,0
1532321327767,-2,0,-1,-1,-3,-2,-1,1
1532321327772,-1,-1,-1,0,-1,-1,-1,-1
1532321327777,0,0,0,0,0,0,-1,-1
1532321327782,1,-1,0,-1,-1,-1,-1,-1
1532321327787,0,0,0,-1,0,1,0,-2
1532321327792,-1,1,-1,0,-1,-1,0,-1
1532321327797,2,-1,-3,-1,-3,-2,-2,-2
1532321327802,-2,-1,-2,-1,0,-1,1,-1
1532321327807,-1,-2,-1,-2,-1,0,-2,-1
1532321327812,-1,0,1,-2,0,1,-3,0
1532321327817,0,-2,-1,-2,0,-1,-2,0
1532321327822,-2,0,1,1,0,1,-1,0
1532321327827,-1,1,-3,-2,-2,-1,-1,0
1532321327832,-1,-3,-1,-2,-1,-2,1,-1
1532321327837,0,-1,-1,-1,-1,-1,0,-2
1532321327842,-1,1,-2,-1,-1,0,-2,-2
1532321327847,1,-2,1,-1,0,-1,-2,0
1532321327852,-1,-1,-2,0,-1,-1,3,0
1532321327857,-2,0,1,-1,0,-2,0,-2
1532321327862,0,-2,-1,-1,0,0,-2,1
1532321327867,-2,-1,0,-3,-1,-1,0,-1
1532321327872,-1,-1,-2,-1,0,2,1,0
1532321327877,-2,-3,0,0,0,-3,-2,-1
1532321327882,0,0,-1,-2,-2,1,-2,-2
1532321327887,0,-1,-2,0,-2,-3,-2,1
1532321327892,0,0,-2,-1,0,1,0,1
1532321327897,1,-1,-1,-1,-1,-2,0,0
1532321327902,-1,-1,-1,-1,0,0,0,-2
1532321327907,-2,-2,1,-1,-1,-1,-1,-2
1532321327912,1,-1,0,-3,-1,-1,-3,0
1532321327917,0,0,-2,0,1,1,-1,-1
1532321327922,1,0,0,0,0,0,1,0
1532321327927,-2,0,-1,0,0,0,0,-1
1532321327932,-3,0,-1,-1,-1,-1,0,0
1532321327937,-1,-3,-1,0,-1,-3,-3,0
1532321327942,-1,0,-2,-1,-1,-2,-1,-2
1532321327947,0,0,-1,1,1,0,1,0
1532321327952,0,-1,0,-1,-2,-1,-2,-2
1532321327957,-1,2,-1,-2,-2,0,0,-3
1532321327962,-3,-1,-1,0,0,1,1,0
1532321327967,0,0,-2,1,0,1,0,-1
1532321327972,0,0,-1,-1,1,-1,0,-1
1532321327977,0,-1,1,-1,0,-2,-1,0
1532321327982,-3,-2,-1,0,0,-2,0,0
1532321327987,-1,0,-1,-2,1,-1,-1,-2
1532321327992,1,-1,1,1,0,0,-4,-2
1532321327997,2,-3,-2,-1,-2,1,0,-1
1532321328002,-1,-1,0,-2,0,0,-1,-1
1532321328007,-1,1,0,1,-1,-1,-1,1
1532321328012,-1,-2,-1,-1,-1,-2,1,-1
1532321328017,-1,-1,-2,-1,-2,-1,-2,0
1532321328022,-1,-1,-1,-1,0,0,-2,-2
1532321328027,1,-2,0,-2,-2,1,-1,1
1532321328032,-1,0,0,-1,-2,-1,-1,-2
1532321328037,-1,0,-3,0,0,0,-1,-5
1532321328042,0,-1,2,-2,-1,-1,1,-2
1532321328047,-2,0,-1,0,0,-1,-1,0
1532321328052,-1,-1,0,0,0,0,-1,0
1532321328057,-1,0,-1,-2,-1,0,0,2
1532321328062,-1,0,-2,-1,-1,-4,-2,2
1532321328067,-1,0,-2,-1,-2,2,0,-2
1532321328072,0,-1,-1,1,-2,0,-1,0
1532321328077,-1,-1,-1,-1,1,-1,0,1
1532321328082,-1,-1,0,-2,-2,-1,-2,-1
1532321328087,-1,-2,-2,-2,0,-2,-1,1
1532321328092,-2,1,-2,-1,-1,-1,-2,-2
1532321328097,-3,-1,-2,0,-1,2,1,-1
1532321328102,0,-2,-2,-1,-1,1,1,0
1532321328107,1,0,-2,0,0,-2,-1,-2
1532321328112,-3,-2,0,-1,-1,0,-2,-1
1532321328117,-3,-1,-1,-1,-2,-2,-2,-1
1532321328122,-1,-1,1,0,0,0,0,1
1532321328127,-3,1,0,-1,-1,-1,-1,-3
1532321328132,1,-1,-2,0,0,-2,0,-1
1532321328137,0,-1,2,0,-1,-1,-1,1
1532321328142,0,-2,-2,-1,-1,-3,-2,-1
1532321328147,0,-2,-1,-3,1,-2,-2,-2
1532321328152,-1,-1,-2,0,0,1,0,-2
1532321328157,0,-2,-1,-1,0,1,0,-3
1532321328162,-1,0,-2,-2,-2,-1,0,-2
1532321328167,0,-2,-1,1,0,-2,1,0
1532321328172,-2,0,-1,-2,-1,-3,-1,-1
1532321328177,-2,-1,-1,-1,0,-1,-1,0
1532321328182,0,0,-2,-1,-1,-2,-2,0
1532321328187,-1,1,-1,-2,-2,0,0,0
1532321328192,-1,-2,-1,-3,-1,1,-1,1
1532321328197,-1,-2,0,0,-1,-3,0,-2
1532321328202,0,-1,0,1,-1,-1,-2,-3
1532321328207,-1,-1,-1,-1,-1,-1,0,-1
1532321328212,0,-2,-2,0,-1,1,-2,-1
1532321328217,0,-1,-1,0,2,0,1,0
1532321328222,-1,0,-1,-2,-3,0,-1,1
1532321328227,-1,-1,0,-1,-2,-3,-2,0
1532321328232,-1,-1,-1,0,-1,0,0,-2
1532321328237,-1,-1,-1,-1,-1,-2,-2,-1
1532321328242,0,0,-1,2,0,1,0,-1
1532321328247,-1,-3,0,-1,-1,1,-1,-1
1532321328252,0,0,0,0,-1,-1,-2,-1
1532321328257,-1,0,-2,-1,-2,-1,-1,1
1532321328262,0,-1,-2,0,-2,-1,-1,-1
1532321328267,-1,-1,-2,-1,-1,0,1,0
1532321328272,-1,-1,-1,-1,0,-1,0,-2
1532321328277,0,0,0,-2,-1,0,0,-2
1532321328282,0,-1,-2,0,-2,0,-2,0
1532321328287,0,-1,-1,0,0,-1,-2,-2
1532321328292,0,-1,-1,-1,-2,1,-1,1
1532321328297,-2,0,-1,0,-3,0,-1,-1
1532321328302,-1,-2,-2,-1,-2,-2,-3,-1
1532321328307,1,-1,-1,0,-1,2,3,-2
1532321328312,-1,-2,-1,-1,-1,-1,-2,0
1532321328317,-1,-1,-1,0,-2,0,-3,-2
1532321328322,-1,-2,2,-1,-1,0,0,-1
1532321328327,-1,-2,-1,-1,-2,-2,-1,-1
1532321328332,-2,-1,0,-2,-1,-1,2,-1
1532321328337,0,0,-3,0,0,-2,-1,-1
1532321328342,1,-1,-2,0,-2,-1,-1,-1
1532321328347,0,0,-1,-2,-1,1,-1,-1
1532321328352,-1,0,0,-1,1,1,1,0
1532321328357,1,0,-1,0,-1,-1,-3,1
1532321328362,-1,0,0,0,0,-3,-3,-1
1532321328367,-3,0,-1,-2,-1,0,-2,-1
1532321328372,-1,-3,-2,-1,-1,-2,0,-2
1532321328377,-1,0,-1,-1,-1,-2,-1,-3
1532321328382,0,-2,0,-1,-2,-1,0,-1
1532321328387,0,-1,1,-1,-1,-2,1,-2
1532321328392,0,-1,-1,-1,0,-1,0,-1
1532321328397,1,-2,-3,-2,-1,-2,-1,1
1532321328402,0,0,-2,0,0,1,1,-1
1532321328407,0,-2,-1,-1,-1,-1,0,-1
1532321328412,-1,0,-1,0,2,-2,0,-1
1532321328417,-1,0,-1,1,0,-2,-1,-1
1532321328422,-2,1,0,-1,-1,-2,0,-3
1532321328427,1,0,-1,-1,0,-2,1,-1
1532321328432,-1,0,-1,0,1,-1,-3,-2
1532321328437,-2,1,-1,1,0,4,0,-1
1532321328442,-1,-2,0,0,-2,0,-3,0
1532321328447,0,-1,-1,-2,-1,0,-3,-1
1532321328452,-1,0,1,-1,-1,-1,0,0
1532321328457,-2,0,0,-1,-1,-2,-1,-2
1532321328462,-2,0,0,-1,-2,0,-1,-1
1532321328467,-1,-1,-1,0,-2,0,-1,-1
1532321328472,-1,-1,-3,1,-2,-2,-1,1
1532321328477,0,-1,0,-1,-1,1,0,0
1532321328482,-1,-2,-2,0,1,-1,-1,0
1532321328487,1,0,-2,-1,0,0,-2,-1
1532321328492,-1,-2,0,-1,-1,0,-2,-1
1532321328497,0,-1,1,-2,-1,0,-1,-2
1532321328502,-2,0,-1,-3,0,0,-1,-1
1532321328507,0,0,-1,-1,0,-1,1,-1
1532321328512,0,0,-1,0,0,0,-1,0
1532321328517,-1,-1,0,-1,-1,0,-2,0
1532321328522,0,-1,0,-3,-1,-1,-4,-1
1532321328527,-1,-1,-1,-1,0,-1,0,-1
1532321328532,-2,-2,-2,0,-1,-1,-1,-1
1532321328537,-1,-2,0,1,0,-1,1,0
1532321328542,0,-1,0,-1,0,0,-1,-1
1532321328547,0,-1,0,-1,-1,1,-2,0
1532321328552,0,1,-1,-2,0,0,-1,-2
1532321328557,0,0,1,0,-3,0,0,-2
1532321328562,-2,0,-2,-1,0,-2,0,0
1532321328567,-2,0,0,-1,-1,-3,0,0
1532321328572,-1,-1,-1,-2,-3,-2,-2,0
1532321328577,-2,1,-1,-1,-1,-1,0,1
1532321328582,1,0,0,0,0,-2,1,-2
1532321328587,-2,-1,-1,0,0,-1,-1,-1
1532321328592,-1,-2,0,-2,-1,1,1,-2
1532321328597,-2,-1,0,-1,1,1,-2,-3
1532321328602,0,0,-1,1,0,3,1,0
1532321328607,-2,-2,-1,-1,-1,-2,-2,-1
1532321328612,-1,0,-1,-1,-1,-1,-2,-3
1532321328617,-1,-2,-1,-3,-1,-1,-2,-2
1532321328622,-2,-2,-2,-2,-2,0,-2,1
1532321328627,0,-1,-1,0,0,0,-1,-1
1532321328632,-1,0,-1,0,-1,-1,0,1
1532321328637,0,-1,-2,0,-1,-1,0,0
1532321328642,0,-1,0,-1,0,-1,1,0
1532321328647,0,-1,-1,-1,-3,-2,-1,-1
1532321328652,-1,-1,0,-1,-1,-1,0,1
1532321328657,-1,-1,0,0,0,0,0,1
1532321328662,0,-2,-1,-1,-2,-1,0,1
1532321328667,0,0,-1,-2,0,-3,-1,2
1532321328672,0,-2,-2,0,-2,1,-2,-1
1532321328677,-2,0,-2,-1,-1,-1,1,-1
1532321328682,0,-1,-1,0,-1,0,0,-3
1532321328687,0,-1,-1,-1,-1,2,-1,1
1532321328692,1,0,-3,-2,1,0,1,-1
1532321328697,-1,0,-2,0,2,0,1,1
1532321328702,-2,0,-1,0,-1,-2,0,1
1532321328707,-1,0,-1,1,0,-3,1,-2
1532321328712,-1,-2,1,0,-3,-3,-2,-1
1532321328717,0,-1,0,0,-3,-3,-4,-2
1532321328722,-1,-1,-1,-2,-1,0,-3,-3
1532321328727,0,-1,-2,-3,-1,1,0,0
1532321328732,-3,1,-1,-1,-1,0,0,0
1532321328737,1,-1,1,0,0,-1,-1,0
1532321328742,-1,1,0,0,-1,-2,0,-1
1532321328747,1,-1,-2,-3,-1,0,-3,-1
1532321328752,0,-1,-1,0,0,-2,-1,0
1532321328757,1,-1,-2,-1,0,-1,-1,-2
1532321328762,-3,-2,-2,-2,-1,-1,-2,-1
1532321328767,-2,-1,1,0,-1,0,0,-2
1532321328772,-1,-1,-1,-1,-1,0,-3,-1
1532321328777,-1,0,-1,-1,-2,-1,0,-1
1532321328782,2,0,0,-2,-1,-2,-2,-2
1532321328787,-1,1,-1,0,1,0,0,0
1532321328792,0,-1,0,-1,-1,-2,0,0
1532321328797,-2,-1,-1,-1,0,1,0,0
1532321328802,-4,-1,-2,0,-1,-2,-1,-2
1532321328807,0,-1,-1,-1,-3,-3,-3,-2
1532321328812,-1,-1,1,-1,0,-1,-1,-1
1532321328817,-1,-1,-2,-3,0,-1,-4,-1
1532321328822,1,-2,-1,-2,-1,-3,0,-2
1532321328827,-1,-2,0,-2,0,0,0,0
1532321328832,-1,-2,-1,-1,-1,0,1,0
1532321328837,-1,-1,-1,0,-3,-1,-1,0
1532321328842,0,-2,-1,0,-1,3,0,0
1532321328847,-1,-1,-2,-1,0,-1,-1,-1
1532321328852,-2,-1,-3,-2,-1,-1,-1,-1
1532321328857,0,-1,0,-1,0,0,-3,-2
1532321328862,-1,1,-2,1,1,1,0,-1
1532321328867,-1,0,1,-1,-2,-2,-3,-4
1532321328872,0,0,0,0,0,0,3,-3
1532321328877,-2,-1,0,0,-1,0,-2,0
1532321328882,0,0,-2,-2,1,-2,0,1
1532321328887,0,-1,-2,-1,-1,-2,0,1
1532321328892,-1,-1,-1,-2,-1,-4,-1,0
1532321328897,1,0,-1,0,-2,0,0,1
1532321328902,0,-1,0,0,-2,-2,-2,-3
1532321328907,-2,-1,-2,1,-1,1,0,-1
1532321328912,-1,-1,0,0,-2,-1,1,-1
1532321328917,-1,-2,0,0,1,-3,0,0
1532321328922,-1,-1,1,-1,0,1,0,1
1532321328927,-1,-1,0,-3,-1,-1,-2,0
1532321328932,0,0,-1,-1,0,1,-4,-2
1532321328937,0,-2,-1,-1,-2,0,1,-1
1532321328942,1,0,0,0,-2,0,-2,0
1532321328947,-1,-1,-1,-1,1,-1,0,-2
1532321328952,1,1,-1,0,0,2,1,0
1532321328957,-2,-1,0,-2,-1,-1,-2,0
1532321328962,-3,0,-3,-2,-1,-3,-1,-3
1532321328967,0,0,0,0,-1,-4,-1,-1
1532321328972,0,-2,-1,-1,-1,-1,-2,1
1532321328977,-1,-2,0,-1,0,-2,-1,-2
1532321328982,0,-2,-1,-1,-1,-1,0,2
1532321328987,0,0,-2,-3,0,0,0,-2
1532321328992,-3,-2,-1,0,0,-1,-2,-1
1532321328997,1,1,-2,2,0,1,1,0
1532321329002,-1,-1,2,0,-1,-2,0,1
1532321329007,-1,-2,-1,0,-2,-2,0,0
1532321329012,-2,0,-1,1,-1,-2,-2,1
1532321329017,-2,-1,0,-2,1,2,-2,-2
1532321329022,0,0,-2,-2,1,-1,-2,-3
1532321329027,0,0,-1,-1,-2,0,-1,0
1532321329032,-1,1,-1,0,-2,-1,-2,-1
1532321329037,-3,-3,-3,-1,-2,-2,-3,-3
1532321329042,-2,0,0,1,-2,-1,-1,-2
1532321329047,-2,-1,0,-1,0,0,-1,0
1532321329052,0,-2,-1,-2,-1,-2,0,-2
1532321329057,0,-1,0,0,-1,-1,1,-1
1532321329062,0,0,-1,-1,1,0,-1,0
1532321329067,-2,1,-1,0,-1,-2,0,-4
1532321329072,0,0,-2,-1,-1,-4,-1,-3
1532321329077,-2,-1,-3,0,-2,-3,-2,-2
1532321329082,-2,-2,-1,-2,-1,-1,1,0
1532321329087,-2,0,0,1,0,0,2,1
1532321329092,-1,-1,0,-1,-1,0,2,-1
1532321329097,-1,1,0,-1,0,-3,-1,-1
1532321329102,-1,1,-2,-1,0,-1,0,-1
1532321329107,-1,0,-1,-1,0,0,-2,1
1532321329112,1,-1,0,-1,-2,-2,-2,0
1532321329117,1,-1,-1,-2,0,1,3,0
1532321329122,1,-1,-1,-1,0,0,-2,1
1532321329127,-1,0,-1,-1,0,-2,-2,0
1532321329132,-2,1,0,-2,-1,1,-2,-1
1532321329137,-1,-1,0,0,-1,-2,-1,-1
1532321329142,-1,0,0,-2,-1,0,-1,-2
1532321329147,-1,-2,-2,-2,-2,0,-1,-1
1532321329152,-2,-1,1,-1,-2,0,1,-2
1532321329157,0,0,-1,0,-1,-1,-1,-2
1532321329162,0,-3,0,-2,-1,0,-2,0
1532321329167,1,-2,0,-1,-1,-2,-1,1
1532321329172,-2,0,-2,0,1,1,-1,1
1532321329177,-2,-2,-2,-1,0,1,-3,-1
1532321329182,-1,1,-1,0,1,1,0,0
1532321329187,0,-2,0,-1,0,-1,-2,-2
1532321329192,3,1,-2,-1,-2,-2,0,-1
1532321329197,-2,0,-1,-2,-2,1,1,0
1532321329202,0,0,-1,-1,0,-1,-1,2
1532321329207,0,-1,-2,0,-1,1,-1,1
1532321329212,-1,-1,-1,1,1,0,-1,1
1532321329217,1,0,0,0,0,-2,1,-1
1532321329222,0,-1,-1,0,-3,-2,1,-3
1532321329227,-1,-1,-1,-1,-1,0,-1,-3
1532321329232,-1,-4,-1,-2,-2,-1,-2,-3
1532321329237,-1,-1,-3,0,-1,-2,-1,-1
1532321329242,-1,0,-2,0,1,0,0,-3
1532321329247,-3,1,-1,0,-2,-2,2,0
1532321329252,-1,-2,-1,-3,-2,-3,-2,-1
1532321329257,-2,-2,0,0,-2,-2,-2,-1
1532321329262,0,-1,-1,0,-2,-2,0,-2
1532321329267,-1,-1,-2,-2,-1,-3,-1,0
1532321329272,-2,0,0,1,-1,-1,2,-4
1532321329277,-1,-1,0,-1,0,-2,1,1
1532321329282,-1,1,0,-1,0,0,-3,1
1532321329287,0,1,0,0,0,2,-1,0
1532321329292,-2,0,-3,0,1,1,-1,3
1532321329297,1,1,-1,0,-1,0,0,0
1532321329302,-1,-1,-2,0,0,-1,1,-1
1532321329307,-3,-3,0,-2,-1,-2,-2,1
1532321329312,-1,-2,0,-1,-1,-2,-1,2
1532321329317,0,-1,-1,0,-1,1,-1,-2
1532321329322,-1,-3,1,-1,-1,-2,-1,0
1532321329327,1,-2,0,0,0,0,1,-2
1532321329332,1,-1,-1,1,0,1,-1,1
1532321329337,-1,-2,-1,-1,0,-1,-3,1
1532321329342,0,-2,0,-2,-2,-1,0,1
1532321329347,1,-1,1,-1,0,-2,-3,-1
1532321329352,0,-1,-1,0,-2,-1,-1,-3
1532321329357,0,0,-1,0,-1,-1,-1,-1
1532321329362,-1,-1,-2,-1,-2,0,-2,-1
1532321329367,0,-1,-2,-2,-2,-1,-1,-1
1532321329372,0,1,0,0,1,0,0,1
1532321329377,-2,0,-1,-2,0,-2,-2,1
1532321329382,0,-3,-1,-1,-1,-1,-1,-2
1532321329387,-2,-2,-1,0,-1,-1,-1,2
1532321329392,-2,-1,0,0,-1,-2,-1,0
1532321329397,0,0,-1,1,1,-1,2,-1
1532321329402,-2,0,0,-1,0,-2,0,-1
1532321329407,-1,1,-2,-1,0,-1,-1,-2
1532321329412,-1,-2,-1,0,1,-2,-2,-4
1532321329417,-1,0,-1,-1,-1,1,-3,-4
1532321329422,0,-2,-1,-2,-2,0,-1,-2
1532321329427,0,-2,-2,-2,-1,0,1,0
1532321329432,-4,0,-1,-1,-3,0,2,-1
1532321329437,-2,-1,-2,0,-1,-1,-2,-3
1532321329442,-1,-2,-1,0,0,-1,-1,0
1532321329447,-2,-1,-1,1,-1,-2,-1,0
1532321329452,0,0,-1,1,-1,-3,-2,1
1532321329457,0,0,0,-1,0,0,0,0
1532321329462,0,-1,0,0,2,1,1,-2
1532321329467,0,-1,1,2,-1,0,0,-1
1532321329472,0,0,-1,-1,1,-2,-1,0
1532321329477,-1,-1,1,-1,-2,0,-2,0
1532321329482,2,0,-1,-1,-2,-2,-2,1
1532321329487,1,0,1,-2,-2,0,-1,0
1532321329492,0,-2,0,1,-3,0,0,-1
1532321329497,0,-2,-2,-1,-1,-2,0,1
1532321329502,-1,0,-1,0,-1,1,-1,2
1532321329507,0,0,0,0,0,-1,-2,-1
1532321329512,0,-1,-1,-3,1,0,-1,0
1532321329517,-1,-2,-2,-2,-2,0,-2,-2
1532321329522,-2,-1,0,-1,-1,-2,1,-2
1532321329527,-1,-1,-3,-1,-1,-1,0,-2
1532321329532,0,-1,-1,-1,-2,-2,-2,-3
1532321329537,0,0,-2,0,0,-2,-2,-3
1532321329542,0,-2,-2,-1,-2,-1,-2,-2
1532321329547,-1,-1,-1,-2,-2,-3,-2,0
1532321329552,-2,0,-3,0,-1,2,-3,-2
1532321329557,-1,-2,-1,-1,-1,0,2,-2
1532321329562,0,-2,1,-2,-2,-1,0,-1
1532321329567,-2,-1,-1,-1,-1,-1,-2,-1
1532321329572,-1,-2,0,-1,0,-1,-2,0
1532321329577,-1,-1,0,-2,-1,-1,0,-1
1532321329582,-1,-1,-1,0,-1,-1,-1,-3
1532321329587,-1,-2,-1,-2,0,-1,-1,-1
1532321329592,-3,0,-1,-1,-3,-1,-1,2
1532321329597,-2,1,0,-1,0,-1,-3,2
1532321329602,2,2,1,-1,0,-1,0,-2
1532321329607,-2,0,-1,0,0,-1,0,-1
1532321329612,-1,1,-2,0,-1,-1,0,-2
1532321329617,-3,-2,-1,-1,-1,0,0,-1
1532321329622,-2,0,1,-1,0,0,0,1
1532321329627,0,0,-1,-2,-1,-1,0,-1
1532321329632,-1,0,-2,0,-1,-1,-2,-1
1532321329637,1,-1,-1,0,-2,-1,0,-3
1532321329642,0,-1,0,0,-1,0,1,-1
1532321329647,-2,-3,1,1,0,-1,0,1
1532321329652,-2,-1,1,-1,0,0,-2,-1
1532321329657,0,-1,-3,0,0,-1,-2,0
1532321329662,-2,-1,-3,0,-1,-2,0,0
1532321329667,0,-1,-2,-2,-1,-1,-3,-2
1532321329672,0,0,-3,-1,0,-2,-4,1
1532321329677,-1,-1,0,-1,-2,2,1,-1
1532321329682,2,-1,-3,-2,0,-2,-1,-2
1532321329687,0,-3,-1,0,0,-5,-1,-1
1532321329692,-2,-2,1,-2,0,0,-1,0
1532321329697,-2,-1,1,1,0,-1,0,0
1532321329702,-1,-1,-1,1,-2,-3,-1,-1
1532321329707,0,-1,-1,1,-1,1,0,1
1532321329712,0,-1,-2,0,-3,0,-1,-1
1532321329717,-1,0,1,-3,-3,1,0,-1
1532321329722,-1,0,-2,-2,-2,2,-1,-1
1532321329727,0,-1,-1,-2,-1,-1,-1,-1
1532321329732,-2,-1,0,-3,0,-3,1,-3
1532321329737,1,-1,0,-1,0,-3,0,-2
1532321329742,0,-1,-1,0,-1,1,0,-2
1532321329747,0,0,-2,1,-4,3,-1,-1
1532321329752,-1,-1,0,-1,-1,1,2,3
1532321329757,-1,-3,0,-1,2,-2,-1,1
1532321329762,-2,-1,-1,-1,2,-2,1,0
1532321329767,-1,-3,-3,-1,-1,0,-1,-1
1532321329772,-1,1,-2,0,0,0,-2,-4
1532321329777,-1,-1,-1,-1,1,0,0,-2
1532321329782,1,0,-1,0,-1,-2,1,0
1532321329787,0,-1,0,0,0,-4,0,-2
1532321329792,0,-4,0,-2,-3,-2,0,0
1532321329797,0,-2,-1,-2,-1,0,-2,0
1532321329802,-2,0,0,-3,-1,0,-2,-1
1532321329807,-1,1,0,0,0,-1,-2,-2
1532321329812,-1,-1,-1,-1,-1,-1,0,-2
1532321329817,-1,0,0,-1,-1,1,-1,-1
1532321329822,-1,-2,-1,-1,-3,-1,-1,-2
1532321329827,0,1,-2,-1,-2,-2,2,-1
1532321329832,-1,-1,-2,-1,0,-2,-1,0
1532321329837,0,-1,0,-2,-3,-2,0,-1
1532321329842,0,-2,0,-1,-1,0,1,0
1532321329847,-1,2,-1,0,-1,-1,1,-1
1532321329852,-1,-1,-2,-1,1,-2,-2,-1
1532321329857,-1,0,0,-1,-1,-4,-1,0
1532321329862,-1,-2,-1,0,1,-1,-2,0
1532321329867,-2,-2,0,-1,2,2,-2,-1
1532321329872,-1,-2,-2,0,-1,0,0,0
1532321329877,-3,-1,-1,1,-1,2,-1,0
1532321329882,-2,-4,-2,-2,-2,-2,-1,0
1532321329887,0,2,0,-1,0,2,-2,0
1532321329892,1,0,1,-1,0,2,-2,-1
1532321329897,1,-1,0,0,0,-1,-2,-2
1532321329902,0,0,0,-1,1,-1,-1,-2
1532321329907,-1,-2,-1,-1,-2,0,0,-1
1532321329912,1,-2,-1,0,-3,1,-1,0
1532321329917,0,-1,-1,1,-2,-2,-1,0
1532321329922,-1,-2,0,0,-1,1,-2,-1
1532321329927,0,-2,-1,-3,-1,-1,-2,0
1532321329932,-1,-1,0,0,0,-2,-2,-2
1532321329937,0,0,-2,-1,0,0,1,0
1532321329942,-2,0,0,0,0,-2,0,0
1532321329947,1,-1,-1,-3,-3,-2,-2,1
1532321329952,0,-2,0,1,-2,-2,2,-1
1532321329957,-2,0,-3,-2,-2,-1,-3,-4
1532321329962,-1,-1,-2,-1,-1,-2,-2,-1
1532321329967,-1,0,0,0,0,-3,-3,0
1532321329972,-2,-1,1,1,1,0,0,-2
1532321329977,2,0,-1,0,1,1,-1,1
1532321329982,-1,0,-2,-1,0,1,1,-1
1532321329987,-1,-2,0,1,0,0,0,-3
1532321329992,1,1,-2,-1,-2,0,-1,0
1532321329997,-1,-1,-2,0,-1,1,-1,-1
1532321330002,0,1,0,0,0,0,0,-1
1532321330007,-1,-1,0,0,1,0,-1,3
1532321330012,-1,-1,1,-1,2,-1,0,5
1532321330017,-2,-1,-1,-1,0,0,-1,2
1532321330022,-2,-3,-2,1,-1,-2,0,-2
1532321330027,-2,-1,0,-2,-3,-3,-3,-3
1532321330032,-2,0,2,1,-2,-2,1,-3
1532321330037,0,0,-1,-1,0,-3,1,-2
1532321330042,0,0,-1,-1,1,0,1,-3
1532321330047,0,-1,-2,-1,-1,-2,0,-2
1532321330052,0,-2,-2,0,-2,-1,-2,0
1532321330057,1,-1,1,-1,-1,1,1,-3
1532321330062,1,-2,-2,-1,-1,2,0,0
1532321330067,0,0,1,0,0,2,2,-1
1532321330072,0,-1,-2,-2,-1,-1,-3,-2
1532321330077,0,-2,1,-1,-1,-2,0,-1
1532321330082,-2,-1,-2,-3,-3,-2,-2,0
1532321330087,-1,1,-1,-1,0,-1,1,0
1532321330092,1,-1,-1,-1,-1,1,-2,-1
1532321330097,0,-1,-1,-2,-1,-1,-1,0
1532321330102,1,0,1,-1,-2,-1,-2,0
1532321330107,0,-2,-1,-2,-1,-1,0,-1
1532321330112,-1,0,-1,0,-1,-2,0,-1
1532321330117,-1,0,-2,-2,-1,-1,0,1
1532321330122,-1,0,0,0,0,-2,-1,-2
1532321330127,-1,0,-2,0,0,-2,0,0
1532321330132,-1,-1,-3,-1,-1,-3,-1,1
1532321330137,-2,-2,0,-1,-1,1,-2,0
1532321330142,0,-1,-1,-2,-2,2,1,-1
1532321330147,0,0,1,0,-2,1,3,-2
1532321330152,-2,-2,-1,-2,1,-2,4,-1
1532321330157,-3,-2,-2,1,0,-3,0,-2
1532321330162,0,-2,-2,-1,-1,-2,0,0
1532321330167,1,-3,1,-1,-2,-1,1,0
1532321330172,-2,-1,-1,0,-3,1,-3,-1
1532321330177,0,-1,-1,-1,-4,-3,-2,-1
1532321330182,-1,-1,1,0,-2,-1,-2,-1
1532321330187,0,0,-1,-1,-1,-2,-4,-3
1532321330192,0,0,-2,0,0,0,-2,0
1532321330197,0,0,0,1,-1,1,2,0
1532321330202,-1,0,-1,0,1,-1,-1,2
1532321330207,0,-1,-2,-1,-1,-1,-1,0
1532321330212,0,-3,-1,-2,0,2,-1,-2
1532321330217,0,-2,-1,-1,1,2,-1,-2
1532321330222,-2,-1,0,-1,-2,0,0,-7
1532321330227,-3,0,-2,-1,-2,-3,-1,-1
1532321330232,-2,0,-3,-2,-2,-4,-1,0
1532321330237,-2,-1,-1,-3,-1,-3,-2,1
1532321330242,0,-1,-1,1,0,-1,-1,4
1532321330247,-1,-1,1,1,0,-1,-1,1
1532321330252,0,-1,1,0,0,0,2,-1
1532321330257,0,-1,-2,-1,-3,-1,-1,-1
1532321330262,-2,-1,-1,-2,-1,0,-1,0
1532321330267,-1,-1,-2,1,-1,1,-2,-1
1532321330272,-1,0,0,-1,-1,-2,-2,1
1532321330277,-2,-1,0,-1,1,-2,0,-2
1532321330282,-2,-1,0,-1,1,-1,-1,-3
1532321330287,-1,0,0,-2,0,-1,-3,0
1532321330292,-2,-1,-1,-1,-2,-2,-3,-1
1532321330297,-1,-2,-2,1,-2,0,-1,-1
1532321330302,0,-1,-1,-2,1,-1,1,1
1532321330307,0,-2,-1,-2,1,-2,3,0
1532321330312,-2,-2,-1,0,-1,1,2,0
1532321330317,-1,0,0,-3,-1,1,-2,-3
1532321330322,0,-1,-3,0,-1,0,-3,-1
1532321330327,1,-2,-1,2,-1,0,-2,-2
1532321330332,-1,-2,0,1,-1,-3,-1,-2
1532321330337,-1,0,-1,0,0,1,-1,-2
1532321330342,-2,-1,-1,0,0,0,1,0
1532321330347,0,-2,-1,-2,1,1,0,0
1532321330352,0,-1,-2,-1,0,1,0,-1
1532321330357,1,-1,-3,0,-2,-1,-2,-2
1532321330362,0,2,0,0,0,-1,0,-1
1532321330367,-4,0,-2,-1,-1,0,-1,0
1532321330372,-1,0,-1,0,-1,-1,-1,1
1532321330377,-2,-2,-1,0,0,0,-1,0
1532321330382,0,-1,-1,-1,-3,-2,-2,-1
1532321330387,-2,1,0,-1,-3,-1,-2,-2
1532321330392,1,-1,1,-1,0,0,-1,-3
1532321330397,-1,0,-1,1,0,-1,-1,-1
1532321330402,-1,-2,0,0,-2,-1,-2,-1
1532321330407,0,-1,0,-2,0,0,-2,-1
1532321330412,-1,-1,-2,-2,0,-2,0,-1
1532321330417,-2,-3,0,2,-1,0,-1,0
1532321330422,-1,-2,-2,-1,-3,-1,0,3
1532321330427,2,-2,1,1,0,-1,1,1
1532321330432,0,-1,0,-1,-1,0,-1,-4
1532321330437,0,0,-1,-1,1,1,1,0
1532321330442,-3,0,1,-1,1,0,1,-4
1532321330447,-2,-1,-1,1,-1,0,1,-3
1532321330452,-2,0,-3,-1,-1,0,0,-1
1532321330457,1,-1,1,0,0,-1,-2,1
1532321330462,-1,-1,-1,-1,-1,-1,0,-1
1532321330467,-2,0,-1,-1,-1,-2,-3,-3
1532321330472,-1,-1,1,-1,0,0,-3,-1
1532321330477,1,0,-2,-1,0,0,-1,0
1532321330482,0,-1,-2,1,1,0,-3,0
1532321330487,0,-1,-2,-2,1,-2,-4,-1
1532321330492,0,-2,-1,0,1,-3,1,2
1532321330497,0,-1,0,-1,-2,-6,5,-1
1532321330502,-1,-1,0,0,0,-4,-1,-2
1532321330507,-1,0,0,-1,-2,0,-1,-2
1532321330512,-2,0,0,0,0,1,-3,0
1532321330517,0,-1,0,-1,-3,1,-4,-1
1532321330522,-1,0,0,-1,-3,3,-3,0
1532321330527,-1,-1,0,0,0,2,-3,0
1532321330532,0,0,-1,2,-3,-1,0,-1
1532321330537,-1,-1,-2,-1,-1,-2,0,-2
1532321330542,0,1,-1,0,-1,1,-1,-2
1532321330547,0,-3,-2,0,-2,0,1,-1
1532321330552,1,-4,0,-1,-1,-2,-1,-1
1532321330557,0,-2,-1,0,-1,-1,1,-2
1532321330562,-1,0,-1,0,1,0,2,-1
1532321330567,-1,-2,0,-2,0,0,-1,-2
1532321330572,-1,-1,-1,-1,0,0,-1,-1
1532321330577,0,-1,-1,-2,1,-2,-5,1
1532321330582,-1,-2,-1,-2,-1,-2,-3,0
1532321330587,-2,0,-1,0,-2,0,1,0
1532321330592,0,0,-2,-1,-2,-2,-1,-1
1532321330597,-1,-1,0,0,0,1,0,-1
1532321330602,-2,0,0,2,-1,-2,-1,0
1532321330607,-1,-1,-1,-1,-1,-3,-1,0
1532321330612,0,-2,-2,-3,-1,-3,-2,-1
1532321330617,-2,-1,0,-2,-1,-2,0,-2
1532321330622,-2,1,0,-1,-1,-2,0,-1
1532321330627,0,0,0,-1,-1,0,2,0
1532321330632,-3,-1,0,0,-1,1,1,1
1532321330637,-1,-1,-2,0,-1,-1,-2,0
1532321330642,0,-1,-1,1,-2,0,-4,-1
1532321330647,0,-2,-1,-1,-1,-1,-2,-1
1532321330652,-1,0,-1,0,-1,0,-2,-2
1532321330657,-1,1,-1,0,-1,1,1,-2
1532321330662,-3,-2,-3,0,-1,-2,0,-2
1532321330667,-2,-1,-1,0,-1,-1,-1,0
1532321330672,0,-1,0,1,-1,0,-2,0
1532321330677,-1,-1,-1,-2,-1,0,-1,1
1532321330682,0,0,-1,-1,0,1,-1,-1
1532321330687,0,-1,-1,-2,1,-2,-1,0
1532321330692,1,-2,-1,-1,-1,0,0,-3
1532321330697,1,-1,0,-1,-1,0,0,-1
1532321330702,0,-2,0,-2,-2,-3,1,-3
1532321330707,-1,-1,-1,-1,0,-2,0,-4
1532321330712,0,-2,0,-2,-1,-1,-1,-2
1532321330717,0,-2,0,-1,-1,-2,-1,-1
1532321330722,0,-1,0,-1,-2,2,1,0
1532321330727,-1,1,-1,1,1,0,-2,-2
1532321330732,-1,-1,-2,-2,-1,0,-1,-1
1532321330737,0,-1,-2,-2,2,0,-1,0
1532321330742,1,-1,-3,-1,-1,-3,-1,2
1532321330747,-1,0,-1,0,-2,0,0,2
1532321330752,-1,0,0,0,0,-1,-1,-2
1532321330757,-3,1,-2,0,0,-3,-2,0
1532321330762,-1,-1,0,0,-1,-2,0,0
1532321330767,0,-1,-1,-1,-1,-3,-2,1
1532321330772,-1,0,1,-1,-1,-1,2,0
1532321330777,0,-3,0,-1,-2,-1,1,0
1532321330782,0,-1,0,-1,-1,0,1,-1
1532321330787,0,-1,-1,-1,-1,2,2,0
1532321330792,0,0,-1,-2,2,0,-1,2
1532321330797,-2,1,-1,0,-1,-1,-3,0
1532321330802,-1,-1,-1,0,2,-1,-2,-3
1532321330807,0,-1,-1,0,0,0,0,-1
1532321330812,-2,0,0,0,-2,0,-3,-3
1532321330817,-1,0,1,0,-1,1,-1,0
1532321330822,1,1,-2,0,-3,1,-2,0
1532321330827,-1,-1,0,-2,-2,-1,0,-2
1532321330832,0,-3,-1,-2,-1,-1,-2,-3
1532321330837,-1,1,-1,-1,0,-1,-1,-2
1532321330842,0,-1,-1,-3,-2,-3,-1,1
1532321330847,-1,0,-2,-2,-2,-2,1,3
1532321330852,-2,-1,-2,1,-3,-1,1,4
1532321330857,-1,-1,0,-2,-2,-1,-1,-1
1532321330862,-2,-1,-1,-1,0,2,1,-4
1532321330867,1,-1,0,0,-2,0,-1,-1
1532321330872,0,-2,-1,0,-1,1,-1,-1
1532321330877,-2,-1,-1,0,-1,-2,-2,0
1532321330882,-1,-2,-1,0,0,-1,0,0
1532321330887,0,-2,-1,-2,-2,-1,-1,-2
1532321330892,-1,0,-1,-1,-2,-2,1,0
1532321330897,-1,-1,-1,1,-1,0,0,-2
1532321330902,-1,0,-1,-1,1,0,-1,-1
1532321330907,-1,0,-1,0,0,-1,0,-2
1532321330912,0,0,0,-1,-2,2,-2,0
1532321330917,0,-1,-1,-2,-1,-1,-2,0
1532321330922,-1,-2,0,-1,0,-1,-1,1
1532321330927,-1,-1,0,-2,0,0,0,0
1532321330932,-2,-2,-2,-1,0,-2,0,-1
1532321330937,0,-1,-1,-1,-2,0,-2,-2
1532321330942,-1,0,0,0,-1,-1,2,0
1532321330947,-1,-1,-1,0,0,-4,-1,-1
1532321330952,0,1,0,-1,-1,-3,-1,-1
1532321330957,0,0,-2,0,0,0,0,0
1532321330962,0,-1,0,-2,-1,1,-4,0
1532321330967,-1,-1,-1,0,0,-1,-2,-2
1532321330972,1,2,-3,-1,0,1,-1,-1
1532321330977,-1,0,0,0,0,2,1,-2
1532321330982,-1,0,-2,-1,-1,-1,1,-1
1532321330987,-2,-2,0,-2,-1,1,-3,-2
1532321330992,-1,-2,1,0,0,-1,1,-4
1532321330997,0,-2,-1,0,-2,-1,2,-1
1532321331002,-1,0,-1,0,-1,-2,-2,0
1532321331007,-1,-1,-1,0,-1,0,-2,1
1532321331012,-3,-1,-2,0,-1,-1,-5,0
1532321331017,-2,-2,0,-1,-1,1,-4,0
1532321331022,-1,-2,-3,-1,-1,0,-1,-1
1532321331027,0,0,1,0,0,0,1,-1
1532321331032,-1,-1,-1,-2,0,-1,-4,-1
1532321331037,0,-1,-1,0,1,0,-2,-1
1532321331042,1,-1,-1,-1,0,-2,-1,-2
1532321331047,0,1,-2,-1,-2,-1,-1,-1
1532321331052,-1,0,0,0,-2,0,0,1
1532321331057,0,0,1,-2,0,-2,-1,-1
1532321331062,-3,0,-1,-1,0,1,2,-1
1532321331067,-2,0,0,1,-1,-2,0,-1
1532321331072,-1,0,-1,-1,1,-1,2,0
1532321331077,0,-2,0,0,-1,-1,0,1
1532321331082,0,-2,-1,0,-2,-2,-1,-1
1532321331087,-1,-1,-2,-2,-2,0,1,0
1532321331092,0,-2,-2,-1,0,0,0,-2
1532321331097,-1,-2,-2,-1,-2,-2,-2,-3
1532321331102,-2,-2,1,-1,-1,0,0,-3
1532321331107,0,-2,-1,0,0,0,-3,-2
1532321331112,0,-2,0,1,-3,-2,0,-2
1532321331117,-1,1,-1,0,-1,-2,0,0
1532321331122,1,-1,1,-1,-2,-1,-3,-1
1532321331127,0,-2,-1,1,1,1,0,0
1532321331132,-3,0,0,-1,-2,0,0,-1
1532321331137,-2,-2,0,-2,0,0,0,1
1532321331142,-1,-1,-2,1,-1,1,-1,1
1532321331147,-2,1,0,0,0,-1,0,0
1532321331152,-1,-1,-1,-2,-1,-2,0,1
1532321331157,-2,0,-2,0,-2,0,1,0
1532321331162,-1,0,0,0,-3,-1,0,-1
1532321331167,1,-1,0,-1,0,-3,0,-2
1532321331172,1,-1,1,-1,-1,0,-2,-1
1532321331177,-1,1,-1,-1,0,0,-2,-2
1532321331182,-1,0,-1,0,0,1,0,-2
1532321331187,-1,-1,-4,-2,1,-1,0,-1
1532321331192,-1,-2,-2,0,0,-2,0,1
1532321331197,0,0,-1,0,-1,0,-1,0
1532321331202,-1,2,-1,-2,-1,-1,0,0
1532321331207,0,-1,-1,0,-3,-1,-1,1
1532321331212,-2,-3,1,0,0,1,1,-1
1532321331217,1,-1,0,-1,1,1,-1,-3
1532321331222,-1,-2,-1,0,0,-1,-2,-2
1532321331227,-2,2,0,-1,0,1,-1,-2
1532321331232,0,0,-3,-1,0,0,-1,-1
1532321331237,0,-3,0,-1,-1,-1,0,-1
1532321331242,1,0,-1,-1,-2,-1,-1,-1
1532321331247,-1,-2,0,-1,-2,-3,-2,-1
1532321331252,0,-1,-2,-1,-2,-3,0,-2
1532321331257,0,0,-1,-1,-1,-2,0,-1
1532321331262,1,0,0,-2,-1,0,1,-1
1532321331267,-1,-1,-1,-1,-1,1,-2,-1
1532321331272,-1,1,0,-3,-1,0,-2,1
1532321331277,-3,-3,-3,-1,0,-1,0,1
1532321331282,0,-1,-1,-1,-1,0,-1,0
1532321331287,-1,-3,-1,-1,-3,1,1,1
1532321331292,1,-1,1,-1,-2,0,0,-2
1532321331297,-1,0,-1,-1,0,-3,0,-2
1532321331302,0,-1,-1,0,-1,1,-1,-2
1532321331307,-1,-1,-2,0,0,-3,-2,0
1532321331312,-1,-1,0,-1,-1,0,-1,0
1532321331317,-1,-1,0,0,0,-3,1,0
1532321331322,-2,-2,-2,0,-1,-2,1,-2
1532321331327,-2,1,-1,0,0,-2,-2,-3
1532321331332,0,-1,-1,1,0,0,-2,0
1532321331337,0,-2,-1,1,-1,-3,-1,-1
1532321331342,-1,-1,0,-1,0,0,-2,1
1532321331347,0,-1,-2,-1,0,0,1,-1
1532321331352,-1,-2,-2,0,0,0,-2,-2
1532321331357,-1,1,-2,0,0,1,-1,1
1532321331362,0,-2,-1,0,-1,-3,1,-1
1532321331367,-3,0,0,-1,-1,-2,-1,0
1532321331372,-1,0,0,-1,-1,-2,1,-1
1532321331377,-1,-3,-2,-2,-2,0,-4,-1
1532321331382,-2,-3,-1,-2,-1,-1,-1,0
1532321331387,1,-1,-1,-1,-1,1,-1,-2
1532321331392,0,0,-1,-2,-1,-2,0,1
1532321331397,2,-1,0,-2,-2,0,1,-1
1532321331402,-1,0,0,-3,0,0,0,-2
1532321331407,1,1,-2,-2,-1,1,3,1
1532321331412,0,0,1,0,-1,0,1,1
1532321331417,0,-1,-1,0,-2,-1,0,0
1532321331422,0,-2,1,-1,0,-1,0,-1
1532321331427,-2,-1,-1,0,0,-3,-3,-3
1532321331432,0,-2,-2,0,-1,-2,0,-3
1532321331437,0,0,0,1,-1,-2,-1,0
1532321331442,1,0,-2,-1,-1,0,-2,0
1532321331447,0,-2,-1,-2,-1,0,1,-1
1532321331452,-1,0,0,-2,-1,-3,-3,0
1532321331457,-2,-2,-1,1,1,1,-1,0
1532321331462,0,-2,0,-2,-2,-2,1,0
1532321331467,-1,-2,-1,-1,-1,-1,0,0
1532321331472,-2,0,-1,-1,-1,-1,0,-1
1532321331477,0,-1,0,-1,-1,0,-3,-1
1532321331482,0,0,-1,-1,-1,0,-2,-1
1532321331487,0,0,1,-1,0,-1,-1,-2
1532321331492,-1,-1,1,-1,0,1,1,-2
1532321331497,-2,0,-2,-1,-1,-1,0,0
1532321331502,0,-1,-1,-1,-1,0,-1,0
1532321331507,-1,-1,0,0,-2,-1,-2,-2
1532321331512,-1,-1,-2,-2,0,1,-2,-1
1532321331517,-1,-1,-2,-2,-1,0,-3,-3
1532321331522,-1,-1,-1,0,0,-4,-2,-1
1532321331527,1,0,-2,-1,2,-1,3,0
1532321331532,-1,-1,1,-2,-1,-2,-1,0
1532321331537,-2,0,0,0,0,-3,-1,0
1532321331542,-2,-2,-2,-1,0,-1,-2,0
1532321331547,1,0,0,-2,-2,1,-1,-2
1532321331552,1,-1,-2,0,-2,0,-1,-1
1532321331557,-1,-1,-1,0,-1,0,0,-1
1532321331562,-1,-2,1,-1,0,-1,2,1
1532321331567,-2,0,-2,-1,1,-1,0,1
1532321331572,-1,0,-1,0,1,0,-2,0
1532321331577,1,-1,-1,-1,0,-3,-1,-1
1532321331582,-1,-3,-2,-1,-1,1,-1,-2
1532321331587,-1,-3,-1,-1,0,0,-2,-2
1532321331592,0,-2,-2,-2,-2,0,-1,-2
1532321331597,1,-1,-1,-2,0,-1,0,-1
1532321331602,-1,1,-2,0,-1,-3,0,1
1532321331607,1,-1,-1,0,1,-2,1,2
1532321331612,-3,-1,-1,-2,0,-1,-2,-1
1532321331617,-3,-1,0,-2,-2,1,-2,-1
1532321331622,0,0,-1,0,-1,0,0,-2
1532321331627,-2,-1,-1,0,-3,0,-1,0
1532321331632,0,0,0,0,-1,-1,-1,1
1532321331637,0,-3,0,0,-1,-2,0,2
1532321331642,1,0,1,-1,0,0,0,-1
1532321331647,-2,0,-2,0,-2,-3,-1,-2
1532321331652,-1,0,-1,1,-1,-1,-1,-2
1532321331657,0,-1,-1,-1,-1,-3,-2,-2
1532321331662,2,-1,0,-1,0,0,0,-1
1532321331667,-2,0,-1,-1,-1,-2,-1,-1
1532321331672,1,0,-1,0,-2,0,-1,-1
1532321331677,1,0,-1,1,0,2,1,0
1532321331682,0,-2,0,0,-1,0,-2,-2
1532321331687,-1,-1,-1,-1,0,0,-1,-2
1532321331692,-3,-2,0,-1,1,-1,-1,-1
1532321331697,-3,-1,0,-2,-1,-1,0,-2
1532321331702,-1,-2,-1,-1,0,-2,-1,-1
1532321331707,0,1,-2,-2,-3,0,-1,-1
1532321331712,-1,1,-1,-3,-2,-2,-2,1
1532321331717,-1,-1,-1,0,-2,0,-2,-1
1532321331722,-2,0,0,0,-1,0,-3,0
1532321331727,-2,-2,0,0,0,-1,-2,-2
1532321331732,1,-1,-2,0,0,-1,1,0
1532321331737,0,-1,-1,-1,-2,-1,-2,-1
1532321331742,-1,-1,-1,-1,0,-1,-1,-1
1532321331747,-1,0,-1,0,-1,-1,-2,-2
1532321331752,-1,0,0,-2,-2,0,0,-1
1532321331757,0,1,1,-3,1,-1,-1,-1
1532321331762,-1,0,0,-2,-1,-1,0,-1
1532321331767,0,-2,-1,-1,-1,2,-1,0
1532321331772,-1,-3,0,0,-1,-1,1,-1
1532321331777,-1,-2,-1,1,-2,-2,-1,-2
1532321331782,-1,-2,-2,0,-2,0,-2,0
1532321331787,-1,-1,-1,-1,1,-2,-1,-1
1532321331792,0,1,1,-1,1,1,1,-2
1532321331797,0,-1,-1,0,-2,-2,-1,-1
1532321331802,0,2,-3,-2,-1,0,0,-2
1532321331807,0,0,-1,-1,-2,0,-2,-1
1532321331812,-1,-2,0,1,-2,-3,-2,-2
1532321331817,-1,-1,0,1,0,-1,1,-2
1532321331822,-1,1,-1,0,-1,-1,0,0
1532321331827,1,-1,-2,-1,-3,-2,-1,-1
1532321331832,-1,-1,0,1,-1,0,-1,-2
1532321331837,0,0,-1,-1,-1,-2,0,1
1532321331842,-2,-3,0,-2,-1,-1,-1,0
1532321331847,0,-1,-2,-1,1,0,0,-2
1532321331852,0,-1,0,-1,1,0,0,-2
1532321331857,-1,-1,-2,-1,0,0,1,0
1532321331862,-1,-1,1,0,-1,0,1,-1
1532321331867,-1,-2,0,0,-1,0,-1,1
1532321331872,0,-2,0,-1,-2,0,-2,0
1532321331877,-1,1,-3,-2,0,0,-3,-1
1532321331882,0,1,-1,-1,-1,1,-2,0
1532321331887,-1,0,0,-2,-3,-1,-1,-1
1532321331892,0,-1,-1,1,-3,-3,-1,-1
1532321331897,-1,-1,-1,-2,-1,-1,1,0
1532321331902,-2,0,0,0,0,-1,0,-2
1532321331907,-2,-1,-1,0,-1,-3,-1,-2
1532321331912,1,-3,0,-3,0,-1,-2,0
1532321331917,-2,0,-1,1,0,0,-1,0
1532321331922,0,-2,0,-1,0,-1,-1,-2
1532321331927,1,-1,-1,-1,-1,-1,1,0
1532321331932,-2,0,-1,-1,-1,0,-1,1
1532321331937,0,0,0,0,-1,-1,-1,-2
1532321331942,0,-1,-1,-1,-1,-1,-1,-2
1532321331947,0,-1,2,-1,2,0,-1,-2
1532321331952,0,-3,-2,-1,-1,-3,-2,0
1532321331957,-1,-2,-1,-3,-1,0,1,1
1532321331962,0,1,-1,1,-1,-1,0,1
1532321331967,-2,1,0,-3,0,-3,0,-1
1532321331972,-1,0,-1,-1,1,1,1,-3
1532321331977,-2,0,0,-1,0,-2,-1,-1
1532321331982,0,0,-2,-1,-1,-1,1,-2
1532321331987,0,0,-1,0,-1,-1,1,1
1532321331992,-1,-1,-1,1,-1,-1,0,1
1532321331997,-3,0,-2,1,0,0,-2,0
1532321332002,-1,-1,-2,-2,-1,-1,-1,-1
1532321332007,1,1,-2,-2,-2,1,-3,-1
1532321332012,-1,0,-1,-2,-1,0,1,-1
1532321332017,-3,-2,0,-1,0,-2,-1,-1
1532321332022,0,-2,-1,-1,-2,-4,1,1
1532321332027,-1,-1,1,1,0,-1,1,0
1532321332032,1,0,-1,0,-1,-1,-2,-1
1532321332037,0,-1,-2,-1,-1,0,-1,-2
1532321332042,0,-1,-1,-1,1,-2,-2,-2
1532321332047,-1,-1,0,-2,-2,-1,-2,-1
1532321332052,-2,0,1,-1,0,0,-3,-1
1532321332057,0,-1,-1,0,-2,-1,1,-1
1532321332062,-2,-1,0,-1,-2,-1,-2,0
1532321332067,-2,-1,-2,0,-1,-1,1,1
1532321332072,-1,1,0,0,1,-1,1,1
1532321332077,2,-1,-1,-1,0,-1,-1,0
1532321332082,0,-1,-2,-1,0,0,-2,-1
1532321332087,1,-1,0,0,-2,0,-1,1
1532321332092,-1,0,0,-1,0,-1,1,0
1532321332097,-3,-3,-1,0,-1,-2,-2,0
1532321332102,0,-1,-2,-2,1,0,0,-1
1532321332107,-2,-1,1,1,-1,-1,0,-1
1532321332112,-2,-1,-1,0,-1,1,0,-2
1532321332117,-1,0,-1,-1,0,-2,-1,-3
1532321332122,-1,-2,0,-1,-1,-2,-2,-2
1532321332127,-3,-1,-1,-1,-3,0,-1,0
1532321332132,0,0,1,-1,-1,0,-1,1
1532321332137,-1,-1,-1,0,-2,0,0,-1
1532321332142,-1,0,0,-1,-1,-1,-2,-1
1532321332147,-1,-1,-2,-1,0,0,-1,-1
1532321332152,0,0,-2,0,0,-1,-1,1
1532321332157,1,-1,-1,-1,-1,0,-2,0
1532321332162,-1,0,-1,-1,1,-1,-2,0
1532321332167,-2,0,0,-2,1,-2,-2,-2
1532321332172,-1,-2,-1,-1,-1,0,-2,0
1532321332177,-2,0,-1,-1,-2,0,1,-1
1532321332182,-1,1,-1,0,-1,0,-1,-1
1532321332187,1,-1,-2,-1,-1,0,0,-1
1532321332192,-1,0,-1,-3,0,-2,0,-1
1532321332197,0,-2,0,-2,-1,-3,0,0
1532321332202,-1,-2,0,0,-3,-2,-1,0
1532321332207,-1,-1,0,-1,-1,-1,-3,-3
1532321332212,0,-1,0,-2,0,1,-3,-1
1532321332217,-1,0,-1,0,-1,-1,0,0
1532321332222,0,0,1,-2,0,0,-2,-2
1532321332227,-1,-1,-1,0,0,1,-1,0
1532321332232,-2,-2,-2,-1,-1,-1,0,2
1532321332237,-1,-2,-3,-1,0,0,-1,-1
1532321332242,0,-1,0,-3,-1,-1,0,-1
1532321332247,-2,-2,-1,-1,-1,0,0,1
1532321332252,-1,0,1,0,-1,-2,-1,-1
1532321332257,0,0,0,0,-1,-1,0,1
1532321332262,0,0,0,-2,1,-1,-2,-1
1532321332267,0,1,1,-2,0,0,1,1
1532321332272,0,-2,-1,-2,-1,1,-1,-1
1532321332277,-1,-1,-3,0,-1,1,1,-3
1532321332282,0,0,0,-1,-1,-1,0,-1
1532321332287,-1,0,0,0,-1,-2,-2,-1
1532321332292,-2,0,0,0,-1,-3,-1,-2
1532321332297,0,0,0,-2,0,0,0,-3
1532321332302,-1,-2,-2,-1,-2,1,1,1
1532321332307,0,0,-1,-1,-3,1,0,0
1532321332312,-2,-1,-1,0,-2,0,-1,0
1532321332317,0,0,0,1,1,-2,-2,-1
1532321332322,0,0,-1,1,-1,-1,0,-1
1532321332327,0,-1,-2,-1,-2,-2,-2,-1
1532321332332,-1,0,0,-1,0,-2,-1,-1
1532321332337,-1,-1,0,-2,-1,0,0,1
1532321332342,-2,0,0,-1,0,-1,-1,1
1532321332347,-1,-2,-1,-1,-1,-1,-1,0
1532321332352,0,-1,-1,-1,-1,-1,-2,-1
1532321332357,-1,0,-1,-2,-2,-3,-1,0
1532321332362,-2,0,-2,-2,-2,-1,0,-1
1532321332367,-2,-1,-1,0,-2,0,-3,-3
1532321332372,-1,1,-1,-1,-2,0,1,1
1532321332377,0,-2,0,-2,0,0,-3,1
1532321332382,0,-2,-3,1,0,-2,2,-1
1532321332387,-1,-2,1,-1,-2,-2,-3,1
1532321332392,0,-3,-3,-1,0,-2,-2,0
1532321332397,-1,0,-1,-1,0,0,0,-1
1532321332402,0,-1,-1,-2,0,1,-2,0
1532321332407,-2,0,0,-1,1,1,1,-4
1532321332412,-1,0,-1,1,-1,-1,-1,-1
1532321332417,0,2,-1,-2,-2,0,0,0
1532321332422,0,2,0,-2,-1,1,-1,0
1532321332427,-1,-1,-1,-1,-3,1,-1,0
1532321332432,-1,-1,-1,-2,-1,0,-2,-1
1532321332437,-1,-2,-1,0,0,-1,-1,-1
1532321332442,0,-1,-1,-2,0,-1,1,-2
1532321332447,-1,0,0,0,-2,-1,0,-2
1532321332452,-1,0,0,-1,1,1,0,-1
1532321332457,-1,0,-2,0,-3,-2,0,-1
1532321332462,-1,0,-2,0,1,-2,-1,-2
1532321332467,0,-1,0,0,0,-1,-1,0
1532321332472,0,-1,-2,-1,0,-1,-2,0
1532321332477,0,-2,-4,0,0,-2,-3,-2
1532321332482,0,0,-2,0,-1,0,-3,1
1532321332487,-2,-2,-3,-2,0,-1,-2,0
1532321332492,-1,-2,-2,-1,-1,-1,0,0
1532321332497,-1,-2,1,1,2,2,2,-2
1532321332502,-3,-1,-1,-1,0,-1,-1,-1
1532321332507,0,0,-1,-1,-1,-1,-2,-1
1532321332512,-1,0,0,0,1,-2,0,-2
1532321332517,0,0,-2,-3,-2,-1,-4,1
1532321332522,-1,0,0,-1,0,1,1,-3
1532321332527,0,-2,-1,-1,0,0,-2,-2
1532321332532,-1,-1,-1,-1,-4,-2,1,-2
1532321332537,-1,-1,0,-1,-2,0,0,0
1532321332542,-1,1,-1,0,-1,-1,-1,-1
1532321332547,0,-2,0,-1,0,1,0,1
1532321332552,0,-1,-1,-1,-2,0,-3,-1
1532321332557,-1,-2,-2,-1,-2,-1,1,-1
1532321332562,-1,-2,-1,-2,-1,-3,0,-1
1532321332567,1,-2,-3,1,0,0,0,0
1532321332572,0,-1,-1,-1,0,-1,4,-3
1532321332577,-2,2,-2,-1,-1,-3,1,-2
1532321332582,-1,0,-1,1,-2,1,3,-1
1532321332587,-1,-2,1,0,-2,0,-3,-2
1532321332592,-1,-2,0,-1,0,0,-1,-1
1532321332597,0,0,-1,-1,-2,-4,-4,0
1532321332602,-1,-1,-2,-2,-2,-4,-2,-2
1532321332607,0,0,-1,-1,1,1,0,2
1532321332612,-2,-2,0,-1,-1,0,-3,1
1532321332617,-1,1,-1,0,1,-1,1,-2
1532321332622,-2,0,-1,0,0,-1,0,-1
1532321332627,0,0,-1,-1,-1,-2,-1,-1
1532321332632,0,0,-1,-1,1,0,-2,-2
1532321332637,1,-1,1,0,0,-2,-2,-2
1532321332642,2,-1,-1,-1,-2,2,-3,1
1532321332647,-2,1,-1,1,-1,1,-1,1
1532321332652,-1,0,0,-1,-2,-1,0,1
1532321332657,-1,0,0,-1,-2,-1,-3,-1
1532321332662,0,-1,-1,-1,1,-2,-1,-2
1532321332667,-1,-1,0,-1,-1,-1,1,-1
1532321332672,0,0,-2,-1,-2,-1,0,-1
1532321332677,0,-2,0,0,2,1,2,-1
1532321332682,-1,-2,0,0,0,-3,-2,1
1532321332687,1,0,-3,-1,-1,-2,-2,-1
1532321332692,-2,-1,-2,1,0,0,-2,0
1532321332697,-2,0,-2,-1,-1,-1,0,0
1532321332702,-2,-1,0,0,-1,-1,-2,0
1532321332707,-1,-1,0,-2,0,0,-1,0
1532321332712,-1,0,0,-1,0,1,0,0
1532321332717,-1,-2,-2,-1,1,-1,-2,-3
1532321332722,-1,0,-1,0,-1,1,0,0
1532321332727,-2,0,0,-1,-1,0,-3,-1
1532321332732,-1,0,-1,0,0,-1,0,-1
1532321332737,-3,-1,-1,-1,-1,-1,-3,-2
1532321332742,-1,1,-2,-1,0,-2,-1,0
1532321332747,-1,0,-2,-1,-2,-1,0,0
1532321332752,1,-2,-1,-1,0,-2,-2,-1
1532321332757,-1,-2,0,0,-1,0,0,-1
1532321332762,-1,-1,0,0,-2,-2,0,-1
1532321332767,-1,-1,0,-3,-1,0,-1,0
1532321332772,-1,1,0,0,-1,-1,-2,0
1532321332777,-1,-1,0,-1,-1,0,0,1
1532321332782,1,-1,-1,0,-1,-3,-3,-3
1532321332787,-1,-1,-1,-2,-1,-1,-1,-1
1532321332792,-1,-1,-1,-1,-1,0,2,-2
1532321332797,0,0,0,-2,0,1,0,1
1532321332802,-2,-1,0,-1,-2,-1,-3,0
1532321332807,0,-1,3,1,-2,-1,-3,-3
1532321332812,-2,-1,-7,-2,0,-1,-5,-2
1532321332817,0,1,-1,0,0,1,3,-3
1532321332822,0,3,0,0,0,-2,-5,0
1532321332827,0,-3,7,-1,1,0,2,-4
1532321332832,-3,-4,-17,-3,0,-1,0,1
1532321332837,1,-1,10,3,-1,-2,-2,-1
1532321332842,-2,3,4,-1,-3,-5,-6,-1
1532321332847,-4,-16,-5,2,1,4,12,3
1532321332852,-2,14,0,-4,-1,-4,-9,-3
1532321332857,14,-14,4,3,-1,2,2,0
1532321332862,-2,18,16,0,-1,2,-2,-2
1532321332867,2,12,-23,2,-1,-2,-5,2
1532321332872,4,-8,-6,-5,-2,0,2,2
1532321332877,-7,-3,-2,-3,0,-4,-2,1
1532321332882,0,-2,10,-5,-2,6,4,1
1532321332887,-8,-5,-8,6,3,4,6,-5
1532321332892,15,-1,0,1,1,3,4,6
1532321332897,1,11,3,1,-2,-4,-7,-4
1532321332902,1,-15,-10,0,-1,-5,-2,-1
1532321332907,4,2,-12,-1,-6,0,-5,-1
1532321332912,-4,-23,23,-4,-5,-2,-4,-7
1532321332917,2,34,-9,-5,3,6,0,2
1532321332922,8,9,4,-1,-2,1,1,3
1532321332927,7,-2,-5,-5,1,0,0,2
1532321332932,-26,-30,-29,3,-1,-3,-4,-6
1532321332937,-33,-7,25,-5,0,-1,6,-3
1532321332942,11,31,9,5,2,4,0,-6
1532321332947,-1,15,9,-5,-5,-7,-4,-5
1532321332952,16,16,11,0,-4,8,-5,2
1532321332957,-3,-16,-19,0,-8,-14,-1,0
1532321332962,-9,-20,-12,-2,0,0,3,5
1532321332967,-3,-2,15,1,3,-15,-3,2
1532321332972,4,3,0,1,1,-5,-13,-4
1532321332977,8,21,-8,-1,0,7,-3,-13
1532321332982,4,-15,-17,-2,-2,0,12,20
1532321332987,-2,0,-1,-2,-1,3,9,14
1532321332992,-11,-5,5,2,-1,-4,-3,4
1532321332997,-4,-5,-10,-2,-1,-4,3,5
1532321333002,-23,-8,2,1,0,-2,-10,-15
1532321333007,19,6,-2,-2,-2,-4,-6,-9
1532321333012,4,10,-8,-1,-1,-3,1,4
1532321333017,-12,-14,9,2,-3,7,12,5
1532321333022,-15,-9,-6,-2,1,-1,4,-4
1532321333027,-8,-11,10,0,0,2,-3,-1
1532321333032,5,11,-2,0,0,2,1,2
1532321333037,14,-10,-9,-2,-1,0,-1,-2
1532321333042,4,8,0,-3,-1,-3,0,-6
1532321333047,-5,-16,-13,-1,-1,2,1,-7
1532321333052,1,12,7,0,0,-2,8,-5
1532321333057,0,2,-1,-3,0,-2,-6,-1
1532321333062,1,-8,-4,0,0,1,6,-6
1532321333067,-5,-2,3,-4,-3,0,-5,-6
1532321333072,-2,2,3,-1,-2,2,8,8
1532321333077,2,-8,2,1,-1,-3,-7,-2
1532321333082,2,-4,-7,-2,0,-3,-6,1
1532321333087,0,3,13,0,-1,-1,-6,-1
1532321333092,-4,-8,-6,-2,2,0,10,-5
1532321333097,-7,-1,-8,0,-2,-3,-17,-9
1532321333102,56,19,2,0,0,1,14,31
1532321333107,-8,4,2,-2,0,-3,-9,-6
1532321333112,-7,-5,5,1,1,1,-6,-9
1532321333117,2,-12,-13,0,-3,-5,-3,-15
1532321333122,-15,1,2,-4,-1,0,-9,9
1532321333127,1,-4,-14,0,-1,2,5,-2
1532321333132,0,3,23,2,-1,-3,-17,0
1532321333137,-5,7,-4,-7,4,3,20,-2
1532321333142,-5,-12,-9,3,-2,-2,-6,24
1532321333147,-4,2,-10,-1,0,-1,-4,-20
1532321333152,10,-1,-2,0,-1,1,-6,-29
1532321333157,0,-11,2,0,-2,-2,11,67
1532321333162,-5,0,-1,-2,0,-2,6,-7
1532321333167,-3,-2,-3,-3,-3,-2,-1,12
1532321333172,-4,-2,2,2,0,-1,-6,-9
1532321333177,3,-3,5,-1,-2,-2,-21,-2
1532321333182,2,5,-3,-3,0,2,18,-11
1532321333187,5,-11,2,1,0,-1,8,-1
1532321333192,11,4,-1,-2,-4,-2,34,9
1532321333197,-7,-16,2,4,7,4,-27,-32
1532321333202,-3,8,-31,-2,0,-3,-5,-14
1532321333207,-6,2,14,-2,-2,1,0,-1
1532321333212,-2,-3,-9,-4,-1,-2,9,10
1532321333217,1,-2,-1,-4,0,2,-1,15
1532321333222,0,-7,16,6,-1,-4,-7,-12
1532321333227,4,5,-14,-5,4,2,-5,-3
1532321333232,-3,-2,-8,-1,0,1,0,11
1532321333237,-8,-5,-4,-1,-5,-3,0,-9
1532321333242,-4,13,14,-4,-9,-8,-36,-36
1532321333247,0,-7,14,7,1,1,20,50
1532321333252,-12,-6,-10,-3,1,-4,-18,-4
1532321333257,22,9,-2,3,2,0,3,-9
1532321333262,-10,-9,-2,-4,-1,1,10,-1
1532321333267,11,5,0,-2,-1,-4,-17,-17
1532321333272,-10,-1,2,3,0,0,-1,-6
1532321333277,5,0,-2,0,-1,-2,5,-7
1532321333282,2,-4,-2,-4,-1,2,12,7
1532321333287,-7,3,7,3,0,2,-3,21
1532321333292,-10,-8,3,0,-1,0,5,9
1532321333297,15,16,-6,-3,-2,-5,5,4
1532321333302,-9,-10,2,0,1,0,-2,-4
1532321333307,-5,0,-8,0,-2,-2,5,-7
1532321333312,5,-9,1,-2,0,-1,-4,-6
1532321333317,-15,5,2,0,0,2,1,-2
1532321333322,-5,-8,-2,2,0,0,3,-1
1532321333327,3,0,-2,2,2,-3,-4,-10
1532321333332,6,5,-2,-5,2,1,2,7
1532321333337,-7,-5,-22,-7,-13,-3,-1,-8
1532321333342,-1,0,69,13,1,3,-3,0
1532321333347,1,-5,-37,-13,-4,-1,-1,-9
1532321333352,10,7,-15,4,1,-2,-3,1
1532321333357,-17,-9,-7,-3,4,0,3,-3
1532321333362,-3,-5,-8,-4,-2,-3,-7,-3
1532321333367,-1,0,19,5,-2,-1,-4,1
1532321333372,-1,4,3,-1,8,1,-2,9
1532321333377,7,3,9,3,6,-1,-4,1
1532321333382,0,-3,-12,-2,-8,-1,1,3
1532321333387,-4,3,5,-2,-2,1,1,-11
1532321333392,4,0,-10,-5,-10,-8,0,-7
1532321333397,1,5,13,5,-1,2,-2,-2
1532321333402,-5,-4,-13,-5,5,2,-5,-8
1532321333407,0,-1,-8,-1,-8,-3,-1,0
1532321333412,-3,1,7,4,0,4,-2,-3
1532321333417,-1,-4,4,-2,-1,-5,-1,2
1532321333422,-2,-2,-14,-5,-5,-3,-5,0
1532321333427,-2,1,1,-1,0,-1,-12,1
1532321333432,-4,-1,3,2,0,0,-11,7
1532321333437,1,1,2,1,0,3,-6,1
1532321333442,3,0,-11,-2,2,1,-6,5
1532321333447,-1,-1,3,1,0,-2,0,-4
1532321333452,-8,-1,1,-1,7,3,-3,-5
1532321333457,0,0,-6,-2,-6,-1,3,0
1532321333462,-2,1,-1,-1,-4,-6,7,3
1532321333467,0,-1,4,0,2,2,8,0
1532321333472,-2,0,0,-2,-10,-8,2,-5
1532321333477,0,-1,0,-1,4,-1,3,-4
1532321333482,-2,-1,-3,-4,-6,-7,8,-1
1532321333487,-2,0,0,2,1,3,2,-2
1532321333492,-2,-1,-4,0,-3,4,4,-1
1532321333497,2,0,2,3,2,0,-1,2
1532321333502,0,-1,-4,-4,5,6,-2,-2
1532321333507,-1,0,-2,-3,-4,-1,-3,-3
1532321333512,-1,-3,1,-2,-2,-5,0,-1
1532321333517,-1,-3,0,-3,-6,-2,-1,-1
1532321333522,2,3,-3,5,-1,1,-1,3
1532321333527,-4,-2,0,0,-1,-6,-4,2
1532321333532,0,-1,-2,-5,0,7,-3,0
1532321333537,-3,0,0,-1,-7,-22,-3,-1
1532321333542,2,-1,-6,-1,4,22,1,-5
1532321333547,-5,-3,-1,0,10,15,2,1
1532321333552,2,1,2,1,-9,-4,0,0
1532321333557,-2,-1,-2,2,12,-11,-1,-1
1532321333562,-4,-1,-1,-3,-18,-25,-13,-2
1532321333567,1,-1,-1,1,2,35,2,-1
1532321333572,0,-2,-3,-1,-4,6,-1,-3
1532321333577,0,0,-1,-3,2,3,0,0
1532321333582,-1,0,-2,2,5,-12,-6,-5
1532321333587,0,0,0,-1,-6,-10,0,-2
1532321333592,-2,2,-1,-2,2,-1,3,3
1532321333597,-2,-3,0,1,-1,12,1,0
1532321333602,3,-1,-3,0,2,-10,-2,-4
1532321333607,2,0,-1,-2,-2,14,-1,5
1532321333612,-1,-3,-3,-8,-9,-21,-1,-2
1532321333617,-3,0,0,0,-6,-8,-1,2
1532321333622,-1,-2,-3,0,5,21,-7,3
1532321333627,-2,-1,3,1,2,-15,-8,-4
1532321333632,2,2,5,8,13,5,-3,0
1532321333637,3,-1,-5,-9,6,3,-1,-3
1532321333642,-4,-4,-4,-9,-20,-16,4,-2
1532321333647,-4,2,2,2,-8,-11,1,-3
1532321333652,-3,-1,1,3,1,2,2,-1
1532321333657,3,0,3,5,10,13,6,-2
1532321333662,-1,-2,-4,1,8,-7,4,-6
1532321333667,-1,-4,-5,-6,-8,-25,-5,-7
1532321333672,-1,-1,-3,-9,-3,29,5,-3
1532321333677,-1,-2,-1,-3,-14,1,2,1
1532321333682,0,-2,2,1,-1,8,3,3
1532321333687,0,0,-1,2,7,-5,2,4
1532321333692,0,0,-1,3,6,-8,-1,-2
1532321333697,-2,3,6,1,1,-3,-4,0
1532321333702,-2,-3,-6,-2,2,-6,0,2
1532321333707,-1,-26,7,-7,-11,-7,1,0
1532321333712,-4,9,30,-7,-3,0,4,-2
1532321333717,-6,-64,-102,-1,-1,3,-1,-2
1532321333722,-2,53,-27,18,17,7,-2,1
1532321333727,6,26,38,2,2,-3,-2,4
1532321333732,3,30,69,-4,-18,-36,-10,0
1532321333737,1,-25,-42,-8,-23,2,3,2
1532321333742,-5,-14,6,-3,9,2,-2,0
1532321333747,0,-17,-27,0,5,12,2,-1
1532321333752,-4,4,-10,4,18,19,0,3
1532321333757,2,23,42,1,-3,-18,-4,-2
1532321333762,0,-13,-3,-6,-14,-29,-6,-1
1532321333767,-5,9,0,-2,-3,-2,0,-3
1532321333772,0,-20,-21,-1,-10,7,0,-1
1532321333777,-1,22,16,-1,13,-26,-6,-2
1532321333782,1,-14,0,-6,-9,56,23,1
1532321333787,1,1,2,1,4,-14,4,-4
1532321333792,2,-8,8,1,0,-27,-3,0
1532321333797,-2,3,-7,4,13,19,-3,-1
1532321333802,-3,-6,-11,0,-9,-11,-8,-2
1532321333807,-2,1,12,-1,16,36,1,1
1532321333812,1,0,0,-3,5,15,2,6
1532321333817,-2,-7,-15,-10,-11,16,3,-1
1532321333822,-1,1,-1,1,-13,-33,0,1
1532321333827,4,6,9,5,-5,-9,-6,-3
1532321333832,4,-3,0,2,-4,0,-2,1
1532321333837,-2,2,2,1,3,-27,-7,-3
1532321333842,0,-6,-3,1,15,16,-1,1
1532321333847,2,4,3,1,-16,-18,-6,0
1532321333852,-11,-8,-1,-3,7,8,-6,-5
1532321333857,-2,0,-1,-6,-11,-23,-8,1
1532321333862,1,-3,-6,-1,-17,14,2,-3
1532321333867,-3,0,5,3,11,16,-3,-7
1532321333872,2,0,-1,-6,-12,-8,-2,-3
1532321333877,-2,-2,-4,0,-2,10,-2,-5
1532321333882,-2,-3,-6,-4,-7,-16,-4,-5
1532321333887,1,2,2,-2,6,4,5,5
1532321333892,0,-1,3,2,5,59,2,9
1532321333897,-2,0,-2,2,-11,-14,9,0
1532321333902,-2,-2,-3,1,23,-12,23,-3
1532321333907,-2,0,-2,-9,-19,0,10,-4
1532321333912,-5,-2,-2,-3,0,3,3,-7
1532321333917,1,-1,-1,1,2,2,-9,4
1532321333922,4,0,-1,2,1,17,-12,-1
1532321333927,-9,1,4,4,14,-11,-7,0
1532321333932,4,-1,-3,-1,-3,-5,-11,-2
1532321333937,5,0,0,0,-23,13,-6,-1
1532321333942,-4,-6,-4,-2,-1,-59,-15,-19
1532321333947,-2,-1,0,-5,-20,26,-3,-12
1532321333952,-3,-1,1,3,2,-16,-6,-7
1532321333957,-2,1,0,1,7,-11,0,1
1532321333962,0,0,-3,-4,1,72,5,11
1532321333967,0,0,-2,0,-4,-12,-7,8
1532321333972,-1,-1,0,-2,1,-8,2,5
1532321333977,-2,-4,-1,2,4,-14,1,7
1532321333982,0,1,-1,1,5,0,-1,11
1532321333987,1,1,2,-1,0,-8,-1,8
1532321333992,1,-3,0,0,-2,0,7,5
1532321333997,-1,0,0,0,7,6,4,-3
1532321334002,1,0,-1,-2,-6,-1,0,-2
1532321334007,-3,0,0,-1,-5,3,-3,-3
1532321334012,1,0,1,-1,7,-5,-4,-5
1532321334017,-3,-3,-1,0,-6,-6,-4,-7
1532321334022,0,-1,-4,-2,9,9,-6,-6
1532321334027,5,2,1,-1,-8,-30,-5,-2
1532321334032,-3,2,0,-1,0,5,-3,-1
1532321334037,0,1,-1,1,4,0,-4,-2
1532321334042,-3,0,2,3,-1,2,0,1
1532321334047,-10,-4,-3,-3,1,0,2,-1
1532321334052,-1,0,-3,-4,-5,-7,1,-2
1532321334057,-2,-1,1,-3,-2,5,4,-2
1532321334062,4,-1,-2,-2,-4,-15,0,-3
1532321334067,1,1,0,2,6,2,2,-1
1532321334072,-2,-5,-2,0,-4,-3,1,-2
1532321334077,0,0,0,-2,5,6,3,-1
1532321334082,-1,-2,-5,-1,1,4,-6,-1
1532321334087,2,1,3,-2,-10,-17,-1,2
1532321334092,-2,-1,-5,-1,1,2,1,1
1532321334097,-4,1,-2,0,0,-7,-3,-3
1532321334102,1,-1,0,-3,-8,-2,9,-2
1532321334107,-2,-2,0,-2,-2,2,1,-4
1532321334112,1,1,0,1,4,-5,1,2
1532321334117,1,0,-2,0,-4,36,4,2
1532321334122,-1,0,-1,3,8,-23,-3,5
1532321334127,2,1,0,0,0,22,4,3
1532321334132,2,-1,-2,-1,-6,-8,0,1
1532321334137,1,-2,-2,-2,7,-16,-4,-5
1532321334142,-3,-1,-3,-2,-3,17,5,-1
1532321334147,-2,-2,-4,-1,2,-2,-1,2
1532321334152,1,0,1,0,3,10,-2,-3
1532321334157,0,2,2,0,14,-2,-6,-3
1532321334162,0,0,0,0,-3,-7,-4,-6
1532321334167,1,0,-1,-2,-10,-5,1,-3
1532321334172,-1,-1,0,0,8,11,-2,0
1532321334177,0,-1,-2,-2,-2,8,1,-1
1532321334182,-3,0,0,-1,-11,-35,-4,-3
1532321334187,0,-1,0,2,-2,12,1,0
1532321334192,-1,-3,1,0,1,-45,-5,0
1532321334197,1,-1,-2,2,10,32,5,3
1532321334202,-6,-2,2,-1,1,15,6,-5
1532321334207,4,0,-1,-1,9,28,0,0
1532321334212,3,0,0,-2,-9,-18,0,-2
1532321334217,5,0,0,-1,-2,-24,-5,-3
1532321334222,-7,-2,0,0,7,14,-1,-2
1532321334227,-5,-2,-3,-2,-7,-13,-2,-4
1532321334232,1,0,-2,1,6,22,0,2
1532321334237,4,-1,-1,0,-3,-11,-1,3
1532321334242,1,3,2,1,7,11,2,6
1532321334247,-7,-5,-2,-3,-4,-10,-3,-3
1532321334252,1,-1,1,-2,-1,-1,-3,0
1532321334257,-1,0,-1,0,-2,-8,-2,-1
1532321334262,4,-1,-3,-1,8,5,3,5
1532321334267,2,1,-1,-4,-15,-10,1,0
1532321334272,-2,-1,-1,-2,-8,8,0,-3
1532321334277,-5,0,1,0,5,6,0,-3
1532321334282,2,-1,-1,-1,0,-2,-2,1
1532321334287,0,-1,0,-1,2,-3,2,6
1532321334292,-1,-2,0,-3,-2,-6,-1,4
1532321334297,-4,-1,-2,-3,-6,-5,0,2
1532321334302,1,0,0,-1,-1,1,0,4
1532321334307,-1,0,0,-2,-6,-7,-1,-1
1532321334312,-3,1,0,1,-1,1,0,-4
1532321334317,-6,0,0,0,0,-6,0,-3
1532321334322,2,-1,-2,-2,-5,-8,-3,-8
1532321334327,-2,0,0,-1,2,10,0,-1
1532321334332,2,-3,-1,-1,3,8,-1,-8
1532321334337,-2,0,-3,0,1,-3,-1,2
1532321334342,-4,-3,-3,1,-1,1,5,0
1532321334347,0,-1,0,2,5,-12,8,-1
1532321334352,-1,-1,0,0,-2,3,4,-6
1532321334357,1,-1,2,1,-1,-3,0,0
1532321334362,2,-1,1,-3,-9,-2,6,4
1532321334367,1,0,1,-1,3,2,2,2
1532321334372,0,-1,-1,1,4,-1,2,2
1532321334377,0,-1,-2,-1,-4,-2,5,-2
1532321334382,-1,-1,-1,-1,0,-8,1,0
1532321334387,-3,-1,-1,-2,-4,-3,4,0
1532321334392,-1,-1,0,-2,-1,-5,-1,0
1532321334397,-1,-1,-1,0,-2,-4,-10,-2
1532321334402,2,0,0,0,2,3,-6,4
1532321334407,0,0,-1,-2,-7,-2,6,-1
1532321334412,1,0,-1,0,0,3,7,2
1532321334417,0,-3,-1,0,6,7,13,-2
1532321334422,0,-1,-2,-2,-5,-5,5,-6
1532321334427,-1,0,0,1,-4,-6,-42,-1
1532321334432,-3,-1,0,0,0,2,-38,3
1532321334437,1,-2,-1,0,-4,-5,-10,-3
1532321334442,-6,-1,-2,3,-2,2,3,-2
1532321334447,4,-2,-2,0,5,-1,23,-2
1532321334452,-1,-1,-2,0,-6,2,20,-5
1532321334457,-6,-3,-1,0,-3,-3,6,0
1532321334462,-3,-2,-2,-3,1,-1,-2,-7
1532321334467,1,-1,-3,0,2,-2,-5,-1
1532321334472,1,-1,-1,-3,3,-3,-5,-1
1532321334477,1,2,-1,-3,-2,-5,-6,0
1532321334482,-1,-2,-2,-2,-3,-12,-7,0
1532321334487,3,-1,-1,-2,-3,0,6,3
1532321334492,-4,-1,-2,-2,0,-2,2,-3
1532321334497,1,-1,-1,2,-3,3,0,4
1532321334502,0,0,-1,-1,-2,3,-9,-1
1532321334507,-2,-1,-1,0,0,-2,-6,-4
1532321334512,0,-1,1,-2,-2,-1,-28,1
1532321334517,-1,-1,1,-2,-1,3,-36,-6
1532321334522,-1,-2,0,0,-2,-8,-26,-1
1532321334527,0,0,-2,0,-4,-2,-7,1
1532321334532,-2,-2,-1,1,-1,3,12,-2
1532321334537,0,-1,-1,-1,1,3,9,-1
1532321334542,2,-1,0,-1,-1,5,10,2
1532321334547,-6,-2,0,1,3,11,5,-1
1532321334552,-2,-1,-2,1,-9,-12,13,5
1532321334557,-3,-1,-3,-1,-3,-5,6,-5
1532321334562,6,0,-3,1,-3,2,0,-6
1532321334567,1,-1,0,0,-2,1,11,8
1532321334572,1,-2,0,-1,7,-11,2,2
1532321334577,0,-1,0,-1,-5,7,12,6
1532321334582,-2,1,0,-1,-1,-1,5,2
1532321334587,-3,2,0,0,3,4,0,0
1532321334592,3,2,-2,-1,-4,-6,4,3
1532321334597,-2,-1,-1,0,-4,-12,12,0
1532321334602,-4,-1,1,-1,1,-4,3,-6
1532321334607,-2,0,-2,-1,-1,1,1,-1
1532321334612,-3,-1,0,-1,2,5,1,-2
1532321334617,-1,-2,0,1,4,3,-1,-11
1532321334622,3,-1,0,0,0,7,-7,-5
1532321334627,-7,-2,-2,-2,-1,-2,-7,-7
1532321334632,-1,-2,0,-2,1,6,-6,2
1532321334637,-1,1,-2,0,3,3,-2,2
1532321334642,0,-3,-1,-2,1,0,-7,2
1532321334647,-1,-1,0,-2,-1,-5,-13,-2
1532321334652,-4,-1,-3,0,0,3,-18,1
1532321334657,0,0,0,-2,0,-1,-13,3
1532321334662,0,0,0,-1,1,-1,3,2
1532321334667,2,-2,0,0,-1,-2,1,-2
1532321334672,-1,-1,-3,-1,-1,0,4,-4
1532321334677,1,-2,-3,2,-3,-5,1,-2
1532321334682,-2,-2,-5,0,-1,-1,8,-4
1532321334687,0,0,0,-1,-2,-1,9,-2
1532321334692,2,-1,-2,0,0,3,-1,-3
1532321334697,-3,-3,0,0,-2,-4,-5,-1
1532321334702,-1,0,-1,-3,2,4,-1,0
1532321334707,0,-2,-2,-3,-2,-7,3,-3
1532321334712,-2,-1,-1,-1,3,3,14,-6
1532321334717,2,-1,-1,-4,-2,-1,7,-4
1532321334722,-2,0,1,2,-1,0,-4,-1
1532321334727,-5,1,-1,-2,0,-4,-6,-4
1532321334732,-3,2,1,-1,-2,-3,-1,-1
1532321334737,2,0,1,-2,0,-1,-2,-1
1532321334742,6,1,-3,-3,-1,-2,-4,2
1532321334747,4,-2,-2,-1,-1,-1,-9,-2
1532321334752,2,-1,-2,-1,-1,1,4,3
1532321334757,-6,-3,-2,0,2,4,3,0
1532321334762,-5,-2,0,0,-3,-4,1,-1
1532321334767,-1,-2,0,-1,0,1,2,1
1532321334772,4,0,-1,-1,-6,-2,-2,-1
1532321334777,1,0,-2,1,-4,-2,1,-2
1532321334782,-2,-2,-2,1,-1,-2,1,-2
1532321334787,-1,-1,0,-2,-3,-3,-5,3
1532321334792,-4,-3,0,0,2,-1,-7,0
1532321334797,2,0,-1,-3,-3,1,-8,4
1532321334802,-3,-2,-1,1,-1,2,-1,0
1532321334807,0,-1,-2,-1,0,4,1,0
1532321334812,2,-1,0,0,-1,0,2,0
1532321334817,1,-1,-2,-1,1,-3,-2,-6
1532321334822,-1,0,-1,-2,-2,-2,1,4
1532321334827,3,-1,-2,-1,-1,0,-3,0
1532321334832,2,1,-1,0,0,-1,-2,1
1532321334837,1,1,-2,-1,-2,-2,1,0
1532321334842,0,0,-1,-2,1,-3,3,0
1532321334847,-3,-1,-2,-1,-3,-1,1,-5
1532321334852,-3,-1,-1,0,-2,-1,2,-4
1532321334857,-2,0,1,0,-1,-5,-1,-2
1532321334862,0,-3,0,-1,-1,-1,0,0
1532321334867,-2,-2,0,-1,-1,1,1,1
1532321334872,-3,0,-2,-1,-2,2,-2,-1
1532321334877,2,-2,-1,0,1,-3,-5,-1
1532321334882,-4,-1,1,0,-2,-3,-4,-2
1532321334887,-2,-1,0,1,-1,-4,-2,-1
1532321334892,0,-1,0,-1,-1,2,5,3
1532321334897,0,0,-2,0,2,0,5,1
1532321334902,0,0,0,1,0,1,2,-3
1532321334907,0,0,-1,0,-2,0,1,0
1532321334912,1,-3,-2,-2,0,2,2,-1
1532321334917,1,-1,-2,-1,-3,0,-2,2
1532321334922,1,-1,0,-1,2,2,2,-2
1532321334927,1,1,-1,1,-2,-4,1,0
1532321334932,-1,0,0,1,0,2,1,-2
1532321334937,-3,0,0,0,2,-1,-3,-3
1532321334942,5,0,-3,-3,2,0,-3,0
1532321334947,1,-3,-2,1,1,1,0,-1
1532321334952,-4,-1,-3,-1,0,-4,-5,-5
1532321334957,0,-1,0,0,-2,-2,1,2
1532321334962,-2,1,0,-1,-2,-3,1,5
1532321334967,-1,2,2,-2,0,2,2,2
1532321334972,-1,0,0,-2,-3,0,0,1
1532321334977,-1,-1,0,0,-3,1,-1,5
1532321334982,-1,0,-1,-1,-1,0,-2,4
1532321334987,-2,-3,1,0,-1,-1,1,-2
1532321334992,-1,0,-1,1,-2,-1,0,-2
1532321334997,-3,1,-3,-1,-1,-2,1,-8
1532321335002,0,-2,-4,0,-1,-3,-3,-6
1532321335007,-2,-1,-3,-2,0,-2,-2,-2
1532321335012,-4,-1,-1,0,0,-2,-3,-4
1532321335017,-1,-2,0,-1,-1,-2,-2,-3
1532321335022,-3,-1,2,0,-2,0,-3,-5
1532321335027,0,0,0,0,-1,0,-3,-7
1532321335032,3,-1,1,0,0,0,-2,-6
1532321335037,-2,-1,0,-2,1,-2,0,0
1532321335042,2,-1,0,1,-2,0,1,-3
1532321335047,5,0,1,0,2,2,-1,-1
1532321335052,-1,0,-1,-2,-3,3,-1,-5
1532321335057,-3,-1,-2,-1,0,2,4,-3
1532321335062,-1,-1,0,-2,-4,-1,-9,5
1532321335067,-2,-1,-1,-1,-2,-2,-6,8
1532321335072,-2,1,-1,0,0,-3,-2,8
1532321335077,0,0,0,-2,1,-3,2,6
1532321335082,-1,-1,-2,-1,-1,-2,6,4
1532321335087,-1,-1,-2,-2,-2,-2,0,-2
1532321335092,-2,-5,-2,-2,-1,-4,-1,-5
1532321335097,-1,-3,-1,-1,0,-1,-19,-13
1532321335102,-1,-1,-1,-2,1,1,-8,4
1532321335107,-1,1,0,-2,-1,0,-19,5
1532321335112,1,2,-2,-1,-2,-1,-14,4
1532321335117,0,2,0,1,-2,4,-6,2
1532321335122,-2,-1,0,0,-2,0,11,-8
1532321335127,-2,-1,-1,-1,1,-3,7,-3
1532321335132,-2,0,0,-1,-1,-1,16,2
1532321335137,1,1,-2,-2,-2,0,17,2
1532321335142,0,1,-2,-1,-2,-2,5,-3
1532321335147,0,1,0,0,-3,-2,43,-3
1532321335152,-1,0,-1,0,0,-4,11,-2
1532321335157,0,-5,-1,0,2,1,0,-1
1532321335162,-4,-2,0,0,0,0,-22,-4
1532321335167,-3,-4,-1,0,-1,1,-33,-2
1532321335172,5,2,-2,-2,-1,1,-24,2
1532321335177,1,0,-1,0,-3,-1,-12,-3
1532321335182,0,0,0,-2,-4,-3,12,-2
1532321335187,-1,-2,0,0,-1,-1,11,-2
1532321335192,-2,-1,0,-3,-1,-2,15,-1
1532321335197,-1,-1,-2,-2,1,-1,8,4
1532321335202,-1,-2,-3,-1,2,-1,1,-6
1532321335207,-1,0,-3,-2,-1,-2,-5,-4
1532321335212,1,0,-1,0,0,-2,-8,4
1532321335217,-4,0,0,-2,-2,-1,-1,0
1532321335222,-4,0,-1,-1,-2,-2,-6,-5
1532321335227,-2,-1,-2,-2,-2,0,5,3
1532321335232,0,-2,0,-1,-1,-1,3,-3
1532321335237,2,0,-1,0,-1,1,2,4
1532321335242,-2,-5,-9,-4,-3,1,3,4
1532321335247,2,-4,-6,-8,-5,-2,-12,-3
1532321335252,-6,4,11,4,1,1,-3,-3
1532321335257,0,2,5,6,2,2,-8,-2
1532321335262,1,1,5,2,-1,-1,-5,2
1532321335267,0,-1,-2,0,3,-1,4,0
1532321335272,0,-2,-1,-1,1,0,2,1
1532321335277,2,2,4,1,-1,-1,4,-1
1532321335282,-5,-2,-4,-3,0,-1,2,-1
1532321335287,-3,-1,2,0,0,1,2,-1
1532321335292,-4,1,-3,-1,-1,2,-2,-4
1532321335297,0,-3,-4,-3,-1,1,-2,-2
1532321335302,4,2,0,-3,-1,0,-1,-4
1532321335307,-1,-1,5,6,2,-2,-3,-2
1532321335312,-5,-6,-2,-2,-3,-10,-8,1
1532321335317,-10,-3,-2,-1,-2,-2,2,-1
1532321335322,11,1,0,1,0,-1,2,6
1532321335327,-16,-4,-2,-3,1,6,-2,-7
1532321335332,4,-1,2,2,-3,4,1,-1
1532321335337,-1,-1,1,-2,-3,-6,-6,-7
1532321335342,-2,-1,1,0,-1,-6,-3,1
1532321335347,6,2,-4,0,1,-2,-2,2
1532321335352,2,-3,-2,-3,-2,-1,1,-6
1532321335357,1,0,-2,0,-1,1,1,4
1532321335362,-2,2,2,2,1,3,-1,2
1532321335367,2,0,-1,-2,-3,-1,-4,2
1532321335372,-3,-2,-3,-2,-1,2,-3,3
1532321335377,0,1,-1,-1,-3,-2,-5,0
1532321335382,0,-1,-2,-2,1,2,8,-4
1532321335387,-3,-1,2,4,1,0,-3,-2
1532321335392,-3,-2,0,2,0,-1,3,11
1532321335397,3,-1,1,2,2,4,0,-2
1532321335402,-3,-1,1,-2,-3,-13,-9,-1
1532321335407,7,1,0,-4,-7,-4,-2,-8
1532321335412,3,-1,-1,-2,1,3,0,-12
1532321335417,-2,-3,-4,-2,2,5,4,-2
1532321335422,1,-3,0,-1,0,4,-4,-4
1532321335427,0,2,2,2,0,-5,1,-3
1532321335432,1,0,-2,-3,-1,-2,-4,3
1532321335437,3,-1,-2,-3,0,-6,5,5
1532321335442,-2,-1,-1,-3,0,-5,2,-7
1532321335447,-2,-2,-3,-4,-1,1,4,-4
1532321335452,8,-2,-3,-1,-3,-1,1,2
1532321335457,0,1,2,2,-2,-1,0,-2
1532321335462,-7,-2,-1,1,-2,3,0,3
1532321335467,0,0,1,1,1,-1,-6,0
1532321335472,-5,1,-1,0,1,-2,-3,-8
1532321335477,-2,0,-4,-2,-1,-1,-5,-4
1532321335482,2,0,-1,0,-1,-2,-1,1
1532321335487,-3,-5,-3,-1,-1,-3,-1,-3
1532321335492,5,2,1,1,0,0,0,-3
1532321335497,-6,0,0,-2,-2,0,-2,2
1532321335502,-2,1,-1,0,0,4,2,0
1532321335507,5,-1,-1,0,-1,-3,0,5
1532321335512,-2,0,0,-2,0,1,-2,1
1532321335517,4,-1,0,-3,0,-1,-1,2
1532321335522,-3,0,-1,-1,1,0,-3,1
1532321335527,-3,-2,-6,-2,-1,2,-4,0
1532321335532,-17,-2,3,1,0,-3,-4,-2
1532321335537,3,-2,-3,0,-2,-3,-11,-14
1532321335542,3,0,-1,1,-1,-1,10,10
1532321335547,1,-1,1,-1,-1,-1,-3,-3
1532321335552,2,-2,-3,-2,-3,-3,1,-1
1532321335557,8,1,0,-2,-1,-1,2,1
1532321335562,-10,-1,-2,-3,-2,2,-2,-5
1532321335567,-3,1,4,1,1,0,3,-1
1532321335572,2,0,0,1,0,-2,2,0
1532321335577,-6,-2,0,0,-1,-2,2,1
1532321335582,6,0,-5,-1,-2,0,-4,0
1532321335587,-1,1,-2,-2,1,2,-2,3
1532321335592,-1,-3,-3,-2,0,0,2,-2
1532321335597,0,-1,0,-1,0,-2,6,8
1532321335602,-3,-3,-2,-1,0,-1,-10,-4
1532321335607,0,0,-1,-2,-1,0,2,-6
1532321335612,1,1,-1,0,1,0,-3,2
1532321335617,1,-1,-3,-2,0,-2,2,4
1532321335622,-1,-1,-1,-2,-1,-1,2,-1
1532321335627,-15,-2,-1,1,-3,0,-3,4
1532321335632,1,2,-2,-3,0,0,-4,0
1532321335637,-3,-2,-2,0,-3,-1,1,1
1532321335642,4,-1,-2,0,-1,-2,-3,0
1532321335647,4,1,3,0,-1,-3,-2,-2
1532321335652,-7,-3,-2,-3,-4,-3,1,-6
1532321335657,8,1,-4,3,3,1,-3,-2
1532321335662,-1,-1,1,0,0,-1,-4,-3
1532321335667,3,0,-3,-1,-1,-4,3,3
1532321335672,-7,1,1,2,0,2,1,2
1532321335677,-8,0,1,-2,-3,1,2,-1
1532321335682,2,-3,-2,-2,-2,0,5,3
1532321335687,2,-2,-2,-3,-1,-3,-2,0
1532321335692,10,-1,-3,-2,-2,-1,3,3
1532321335697,-2,1,5,0,3,-2,-9,-4
1532321335702,-3,-1,1,0,0,-1,10,-8
1532321335707,-4,-1,-1,0,1,3,-1,23
1532321335712,-6,-5,-7,-7,-3,-5,-15,-22
1532321335717,-4,-2,2,-1,-2,0,0,3
1532321335722,7,-1,-6,-2,0,0,-1,-2
1532321335727,1,1,3,3,2,0,4,-3
1532321335732,-11,1,5,7,1,0,6,2
1532321335737,-4,-3,-4,-5,-3,-5,-4,0
1532321335742,-3,0,0,0,-3,-2,0,2
1532321335747,9,-3,-6,-3,-1,-3,-2,-4
1532321335752,2,-3,-4,1,1,4,4,3
1532321335757,-6,-2,2,-4,-3,-1,-4,-15
1532321335762,-1,0,0,2,1,3,0,13
1532321335767,-2,-2,-4,-2,-2,0,1,2
1532321335772,-1,1,0,0,1,2,-4,1
1532321335777,1,-1,-1,-1,0,1,-1,-2
1532321335782,1,0,1,-1,-1,0,-5,-11
1532321335787,-2,-1,-2,0,-1,1,-3,-10
1532321335792,7,-1,-1,-5,-4,-3,4,6
1532321335797,-5,-2,-1,2,2,-3,1,0
1532321335802,-4,1,1,1,1,5,1,-3
1532321335807,-1,1,2,1,1,-2,-4,-5
1532321335812,1,0,-2,0,-1,-3,2,-5
1532321335817,7,3,-1,0,0,-3,4,0
1532321335822,-11,-5,1,-1,-1,-2,-10,-6
1532321335827,-6,0,0,2,2,0,5,4
1532321335832,4,-2,-5,-1,1,0,6,6
1532321335837,1,-1,0,0,-1,-2,0,5
1532321335842,7,4,1,1,-1,-2,2,3
1532321335847,-3,0,1,-1,-2,3,-3,-11
1532321335852,-6,-2,4,3,6,3,-3,3
1532321335857,-4,-1,-4,-4,-2,-2,1,-2
1532321335862,-1,-2,-1,-6,-9,-6,-1,-1
1532321335867,4,-1,-4,-2,-3,-3,-6,0
1532321335872,0,0,0,0,-3,-5,-9,-6
1532321335877,-2,-2,-3,2,0,6,1,-3
1532321335882,1,-2,0,-1,3,-1,2,-1
1532321335887,0,-1,0,-1,0,0,0,-2
1532321335892,0,-3,-1,-1,1,0,3,3
1532321335897,6,-2,-4,-3,1,-1,-2,1
1532321335902,-3,1,2,0,-2,-2,-2,1
1532321335907,1,0,4,-1,-1,-1,6,1
1532321335912,-1,1,-1,-2,-2,0,-8,1
1532321335917,-6,0,2,1,-4,-1,-6,-6
1532321335922,0,-1,-1,1,0,1,4,3
1532321335927,-3,-2,-2,-1,2,-1,-2,0
1532321335932,1,-2,2,-1,-2,1,2,0
1532321335937,-7,-1,-6,-1,1,1,-5,-3
1532321335942,12,0,-1,-2,-1,0,5,-1
1532321335947,-1,-1,-1,-1,-1,-1,-2,0
1532321335952,1,-1,-4,-2,-3,-1,3,-4
1532321335957,-1,4,4,2,-1,-3,4,8
1532321335962,-4,-3,-5,-2,-2,-5,-18,-11
1532321335967,1,-1,-1,-1,-2,-2,-1,-3
1532321335972,1,1,1,-2,-3,0,-6,-10
1532321335977,-3,-3,-3,-2,-1,0,3,-8
1532321335982,-7,-3,0,1,0,-1,2,-2
1532321335987,2,-1,1,-2,-3,-2,-1,-4
1532321335992,0,-2,-5,-2,-2,-3,1,3
1532321335997,-2,0,3,1,0,1,0,4
1532321336002,-4,2,-2,0,2,0,-7,-1
1532321336007,16,2,-2,-2,-3,0,5,6
1532321336012,-1,0,-1,-1,-2,0,-5,-3
1532321336017,15,-8,0,-2,-1,-1,0,-1
1532321336022,-19,-1,-1,-1,-1,-1,-3,-5
1532321336027,-8,0,1,-1,-2,-1,-6,-8
1532321336032,1,1,0,-2,-1,-2,10,11
1532321336037,4,1,-1,1,-1,-2,-1,1
1532321336042,-5,-4,-7,0,3,-1,0,-2
1532321336047,-4,-6,1,-2,0,0,2,2
1532321336052,-2,1,1,1,0,0,-1,-1
1532321336057,-6,-1,0,-1,-2,-1,-5,-4
1532321336062,10,0,0,-3,-3,-3,1,7
1532321336067,-2,1,-5,-3,-1,-1,-4,-3
1532321336072,-3,-2,-2,-3,0,-2,-4,-3
1532321336077,-2,1,1,0,3,-1,0,0
1532321336082,4,1,0,-1,-2,-1,1,-1
1532321336087,-5,-1,-3,-1,-1,-3,-1,-9
1532321336092,-5,-2,0,-1,-1,4,1,-5
1532321336097,-3,-1,-7,-2,-1,0,-1,-1
1532321336102,3,0,3,0,1,0,0,2
1532321336107,-3,0,-1,0,0,2,-4,2
1532321336112,5,1,-1,0,-1,-2,-2,3
1532321336117,-2,-1,0,-5,-4,1,-2,0
1532321336122,-2,-1,-1,-1,0,2,-3,-1
1532321336127,2,-2,-4,-1,1,-3,1,4
1532321336132,0,0,2,1,4,0,0,1
1532321336137,0,1,2,2,2,1,4,-1
1532321336142,2,1,-2,-7,-10,-6,3,2
1532321336147,-4,-2,0,-2,0,-1,0,0
1532321336152,-3,-1,-1,-1,0,-2,-7,-2
1532321336157,7,-1,1,-2,-2,-1,-10,-1
1532321336162,-2,-1,-3,2,3,0,-8,-1
1532321336167,-6,-3,3,1,-2,-2,-6,-5
1532321336172,-3,-1,-1,-1,-3,-1,0,-2
1532321336177,-4,-1,0,-1,-3,1,8,0
1532321336182,2,-1,1,2,0,0,4,3
1532321336187,2,0,-2,0,-1,0,4,2
1532321336192,3,-2,1,0,0,-1,2,2
1532321336197,0,1,-1,0,-2,-2,0,6
1532321336202,0,-1,-1,-3,-5,-1,1,5
1532321336207,-2,-1,-1,0,1,-1,-3,2
1532321336212,0,-1,0,0,-3,-1,-2,-4
1532321336217,-1,-1,-2,-2,-1,-3,-2,-3
1532321336222,-13,-3,-4,-1,4,1,-3,-6
1532321336227,-6,1,0,3,1,0,-1,-1
1532321336232,-3,2,0,0,-3,-1,-1,0
1532321336237,-3,-1,2,-1,-2,-2,1,1
1532321336242,6,-2,1,-1,-1,-2,1,1
1532321336247,4,1,-3,-1,0,4,2,-3
1532321336252,2,0,-1,-2,0,2,-1,-2
1532321336257,-2,-1,-1,0,2,2,-2,-2
1532321336262,6,1,1,0,-3,-3,-1,-3
1532321336267,5,-3,-2,-5,-3,-2,0,-3
1532321336272,-5,-1,0,-1,-2,0,0,-3
1532321336277,1,1,0,3,1,-2,1,-5
1532321336282,0,1,2,4,5,2,-1,-2
1532321336287,3,0,0,-3,-3,-2,0,2
1532321336292,3,-2,1,-2,0,-2,-2,0
1532321336297,-3,-2,-4,0,0,0,3,-3
1532321336302,-1,-3,-3,-2,-2,-1,4,-3
1532321336307,-2,-1,-1,-1,-5,-3,0,0
1532321336312,2,-3,-10,-2,-3,-2,1,-2
1532321336317,-5,1,3,0,0,-1,-5,-2
1532321336322,2,1,0,-2,1,2,-2,-1
1532321336327,-3,-1,-1,3,4,2,-2,0
1532321336332,0,0,0,-4,-3,-2,-1,-2
1532321336337,-1,-2,-1,-2,0,0,-1,-3
1532321336342,-1,-2,0,-1,0,-2,2,-3
1532321336347,0,-1,-1,-1,-1,-3,-1,-2
1532321336352,-1,0,3,2,3,-2,-1,0
1532321336357,0,0,-1,0,-2,1,0,2
1532321336362,-4,-2,0,1,-2,0,-3,1
1532321336367,-1,-2,-4,0,-3,-3,-1,-1
1532321336372,-1,-1,-3,-1,-2,0,0,-2
1532321336377,0,0,-1,-1,0,1,-2,-2
1532321336382,1,1,0,-3,0,-1,1,0
1532321336387,-3,0,1,-1,-1,-5,-1,1
1532321336392,-2,-1,1,1,-2,-4,0,-1
1532321336397,-2,-2,-2,-2,-1,-3,-1,-1
1532321336402,0,-2,-4,0,-1,-2,-1,-1
1532321336407,1,1,0,0,1,-1,-1,0
1532321336412,-8,0,-1,-1,0,2,0,1
1532321336417,-1,0,-1,0,-1,0,0,-3
1532321336422,1,2,-1,-1,0,0,0,3
1532321336427,-2,-1,0,1,0,1,1,-3
1532321336432,0,-2,0,0,1,-2,0,0
1532321336437,-2,-3,-2,-1,-1,-2,-3,-1
1532321336442,-4,-2,-2,1,-2,0,1,-2
1532321336447,4,-1,0,-3,-2,1,0,1
1532321336452,-1,0,-2,0,-2,0,0,0
1532321336457,1,-1,1,-2,-1,-1,0,1
1532321336462,0,1,1,-1,-1,-2,1,-2
1532321336467,-2,-1,-1,-1,-1,1,-1,-1
1532321336472,-2,-1,-1,-1,0,-1,-1,0
1532321336477,-1,0,0,-1,1,2,0,1
1532321336482,2,0,1,1,1,1,-2,0
1532321336487,-1,0,-2,0,-3,0,-1,0
1532321336492,-2,-1,-3,-3,-3,-3,0,1
1532321336497,-8,-3,-1,-1,0,0,-2,-9
1532321336502,10,2,0,-1,1,-1,0,8
1532321336507,2,-4,0,0,2,-2,1,-1
1532321336512,2,0,0,1,0,-1,-2,-1
1532321336517,-7,0,-2,-4,-4,-2,0,-2
1532321336522,-4,-1,-2,-1,-3,-1,-2,-3
1532321336527,0,-2,0,-2,-1,-3,1,-1
1532321336532,-1,0,0,0,0,-2,4,0
1532321336537,1,-1,-1,0,-1,-2,0,4
1532321336542,-2,-2,-1,0,0,-1,-1,-2
1532321336547,1,0,-1,1,0,2,-3,-1
1532321336552,-1,-1,-2,-2,4,3,-1,-3
1532321336557,3,0,0,1,2,0,-3,3
1532321336562,-3,0,-1,-2,1,-1,-1,0
1532321336567,-2,0,0,0,-2,0,-3,-1
1532321336572,-2,1,-1,0,-6,-3,-3,-1
1532321336577,1,1,0,-1,-1,-3,0,-1
1532321336582,-2,-2,0,-1,0,0,3,-10
1532321336587,0,0,0,1,0,1,3,16
1532321336592,0,-3,-2,-1,-2,0,-5,-1
1532321336597,0,-1,-1,0,0,-1,-8,5
1532321336602,-3,-2,0,0,2,-2,3,-7
1532321336607,-3,-2,0,1,-1,0,2,-2
1532321336612,1,-2,-3,-6,-9,-3,-1,2
1532321336617,-3,-3,-3,-3,-4,-2,0,-2
1532321336622,2,-1,0,-2,-3,0,-1,5
1532321336627,-7,1,0,2,-1,-2,-3,-3
1532321336632,-6,0,1,1,3,1,1,1
1532321336637,-2,0,0,-1,0,1,0,-5
1532321336642,-2,0,-3,0,0,1,-3,1
1532321336647,0,-2,-3,-3,0,-1,-2,-5
1532321336652,0,-2,-1,1,-2,-1,-3,-5
1532321336657,2,-2,-3,-1,0,-1,1,1
1532321336662,-2,1,-1,-2,-3,-4,0,0
1532321336667,0,-1,2,-1,0,-2,1,-2
1532321336672,-2,0,-2,-1,1,1,1,2
1532321336677,2,-2,1,1,0,4,-1,-1
1532321336682,2,0,-2,0,-4,-14,-3,1
1532321336687,3,0,-3,-2,-3,7,-4,7
1532321336692,-2,1,0,1,-2,-2,-1,0
1532321336697,-1,-3,-4,-2,0,-2,-4,-2
1532321336702,-4,-3,-2,-5,0,3,4,-2
1532321336707,2,6,10,6,2,-8,0,-7
1532321336712,0,-2,-1,0,2,1,0,-4
1532321336717,0,-2,-4,-2,-1,3,19,6
1532321336722,-9,-6,-7,-8,-4,-7,-21,-5
1532321336727,14,7,6,0,2,1,-3,-2
1532321336732,2,3,2,5,3,4,8,6
1532321336737,-1,-4,-5,-9,-6,0,-8,-6
1532321336742,5,5,5,4,1,0,-5,4
1532321336747,-17,-7,-2,5,2,-1,-1,-1
1532321336752,2,-1,0,-1,0,-1,0,-4
1532321336757,3,-1,1,2,-1,-1,3,8
1532321336762,-7,-7,-8,-13,-4,0,5,2
1532321336767,-3,-4,-8,-6,-3,0,-2,-5
1532321336772,10,13,8,7,4,-2,1,8
1532321336777,-21,-3,0,7,1,-2,-9,-2
1532321336782,4,0,2,2,1,1,10,2
1532321336787,-4,-4,-7,-11,-7,-6,-1,-9
1532321336792,4,-5,-5,-3,-1,-1,2,-2
1532321336797,3,3,0,-2,0,-3,-4,-4
1532321336802,10,-5,8,5,3,5,-3,-5
1532321336807,1,3,-3,3,3,1,6,-2
1532321336812,-14,2,-4,-3,-3,-2,0,-5
1532321336817,3,2,1,-2,-6,-7,-3,-1
1532321336822,-3,0,0,1,0,-3,1,0
1532321336827,5,-5,-5,-4,-2,2,-3,3
1532321336832,-1,-4,0,-1,1,1,-6,7
1532321336837,3,2,1,4,5,1,-3,0
1532321336842,-6,0,-3,-1,-2,-2,-6,-11
1532321336847,-1,-1,0,-1,-1,-1,-5,-16
1532321336852,-1,-1,0,-3,1,1,-3,-8
1532321336857,-7,-5,1,-6,-7,-2,1,4
1532321336862,0,0,-1,-3,-4,-1,6,1
1532321336867,-3,3,3,3,-1,-2,-8,7
1532321336872,-2,-5,-2,1,1,-2,1,-11
1532321336877,5,0,-4,-2,2,0,1,-10
1532321336882,3,0,1,2,2,2,-2,2
1532321336887,-6,0,-1,-2,-1,-2,-4,-9
1532321336892,-5,-4,-6,-5,-3,-3,-1,22
1532321336897,3,3,5,6,5,3,-5,-7
1532321336902,1,5,3,4,2,0,1,1
1532321336907,0,-4,-5,-5,-2,3,3,5
1532321336912,0,-3,-4,-2,-5,-1,-3,-1
1532321336917,7,0,-3,-3,1,6,5,5
1532321336922,-5,1,-2,0,-1,-3,-1,3
1532321336927,-17,-6,-5,0,3,-2,-6,-5
1532321336932,16,2,4,1,-2,-13,-7,6
1532321336937,1,-2,-2,2,4,-1,1,5
1532321336942,2,-1,-1,-5,-16,-1,2,1
1532321336947,5,1,0,-3,-4,-4,6,5
1532321336952,-8,-4,-2,-1,-2,1,-3,-10
1532321336957,-3,0,0,2,1,-11,-12,-10
1532321336962,1,0,0,1,5,5,13,1
1532321336967,0,0,0,-1,1,3,-4,-5
1532321336972,-2,-1,-1,-4,-4,-6,6,1
1532321336977,1,0,-1,0,-3,-3,-9,-4
1532321336982,-5,-2,-3,1,1,4,-4,4
1532321336987,2,0,-2,1,-1,4,3,4
1532321336992,-2,-1,-1,0,3,5,8,-4
1532321336997,0,0,-1,-5,-4,-7,-6,3
1532321337002,-1,-1,-1,0,-1,-4,-7,-11
1532321337007,3,0,-1,1,0,-4,7,8
1532321337012,-3,-1,-2,-2,-1,1,-8,-9
1532321337017,0,-2,-3,-3,-4,0,3,1
1532321337022,-6,-1,-1,6,7,8,6,-2
1532321337027,7,0,-1,-1,-4,-5,-1,2
1532321337032,3,0,-2,0,0,2,-2,-5
1532321337037,-6,0,-1,-1,-3,-1,0,4
1532321337042,-5,0,2,-2,0,-3,0,9
1532321337047,-5,-2,0,-2,-2,-3,-6,-5
1532321337052,1,-3,0,-1,-2,-1,4,-4
1532321337057,1,0,0,1,-1,0,-3,-8
1532321337062,1,-1,-3,-5,-3,-7,-1,6
1532321337067,-3,1,0,1,0,4,2,8
1532321337072,-3,-2,-3,0,-1,1,2,3
1532321337077,-1,-1,0,0,2,5,11,1
1532321337082,-2,-2,-1,-3,-2,-6,-6,-5
1532321337087,-1,-2,-2,-2,-5,-10,-9,-14
1532321337092,-3,1,1,1,7,3,0,-2
1532321337097,-3,0,1,1,-2,6,3,2
1532321337102,0,-3,-6,-3,-5,-7,-10,-6
1532321337107,4,1,-1,-1,-2,4,9,7
1532321337112,-4,-3,-2,-1,0,-1,-1,3
1532321337117,-2,-2,-1,0,-1,-2,0,-2
1532321337122,-1,-1,-1,0,-1,-1,-15,-1
1532321337127,-1,-1,0,0,4,-4,-11,5
1532321337132,-2,-1,-3,-8,-11,-17,-6,3
1532321337137,-1,-1,-1,-2,-5,20,1,0
1532321337142,1,-1,1,0,6,0,-4,-9
1532321337147,-1,-1,-1,-1,-6,9,1,-14
1532321337152,-3,-2,-1,0,8,-1,-8,-15
1532321337157,-2,-1,-1,3,28,-8,-10,-6
1532321337162,3,2,-2,-5,-63,-12,30,-1
1532321337167,-4,-4,0,4,20,-29,-9,-2
1532321337172,-2,-1,-5,-4,-15,20,0,3
1532321337177,2,0,-5,-7,-13,-14,-9,8
1532321337182,1,1,1,2,22,20,-1,2
1532321337187,1,-1,2,-1,5,-7,-1,5
1532321337192,-2,-3,3,2,-5,-11,0,2
1532321337197,-4,-3,4,7,12,11,2,-2
1532321337202,0,-2,-5,-11,4,-8,-14,5
1532321337207,2,2,-2,-3,-6,11,9,-6
1532321337212,3,1,4,5,3,-6,3,1
1532321337217,3,0,-1,2,-16,22,19,-1
1532321337222,-1,0,3,4,18,-3,-6,0
1532321337227,-1,-2,-2,-1,-6,2,5,6
1532321337232,-1,0,-2,-3,4,8,-3,6
1532321337237,1,0,0,-2,5,-11,-5,11
1532321337242,1,2,0,3,-8,-2,4,11
1532321337247,-1,-2,0,-2,0,10,-2,7
1532321337252,-1,-2,-1,2,4,3,1,3
1532321337257,-1,-2,-2,-5,-14,-15,-3,-10
1532321337262,-2,-3,0,2,8,3,-5,-15
1532321337267,-1,-1,-1,-4,-7,-4,-4,-6
1532321337272,-2,-1,0,1,1,0,5,-4
1532321337277,1,-1,-1,-1,-3,-8,6,7
1532321337282,0,-1,-2,-1,3,3,-3,2
1532321337287,-2,0,-2,0,0,0,4,3
1532321337292,0,1,-1,0,-6,-5,-2,-7
1532321337297,0,-1,-2,-3,0,1,-1,11
1532321337302,-1,0,-1,2,3,2,5,15
1532321337307,-2,-1,-1,-1,-6,-3,-1,14
1532321337312,-3,-1,-1,-2,1,-1,-1,5
1532321337317,-2,0,1,1,0,-5,1,1
1532321337322,-1,0,1,2,2,0,0,-5
1532321337327,-2,-2,-2,0,-1,-1,-5,-9
1532321337332,0,-1,0,-2,0,-1,-5,-14
1532321337337,-1,-1,1,1,-1,-2,-3,-19
1532321337342,-1,0,0,0,-3,-1,-3,-12
1532321337347,0,1,0,0,-2,1,0,-17
1532321337352,-4,-1,0,1,2,3,0,-11
1532321337357,0,1,-1,-2,-10,-12,-3,-9
1532321337362,0,0,0,-1,2,3,1,4
1532321337367,-2,0,0,-1,-2,1,1,7
1532321337372,1,1,-3,-1,-3,-5,-1,12
1532321337377,-6,-2,-2,2,6,-6,-4,-9
1532321337382,2,-1,0,-2,-2,6,4,-10
1532321337387,2,0,0,1,-1,1,2,-6
1532321337392,-1,-2,-1,-1,-3,0,-3,1
1532321337397,-1,-1,-1,-2,0,5,-2,5
1532321337402,-2,-1,-1,-1,3,-4,-1,0
1532321337407,-2,-2,-3,0,0,-2,-2,-1
1532321337412,2,1,-2,-2,-1,0,1,-1
1532321337417,2,-1,-1,0,1,-1,0,-4
1532321337422,-2,-3,-1,-1,0,-3,-5,-10
1532321337427,-1,-4,1,0,-2,-1,0,-5
1532321337432,-2,-2,1,1,-2,-2,-3,0
1532321337437,1,-1,0,-1,-1,-1,0,4
1532321337442,0,0,-1,-1,-1,-1,0,3
1532321337447,-2,0,-2,0,0,0,-1,0
1532321337452,-1,-2,-1,-1,-1,-3,0,0
1532321337457,-2,1,-1,-2,0,0,1,2
1532321337462,-2,-1,1,0,0,0,-1,1
1532321337467,1,1,1,-1,0,-2,2,0
1532321337472,-1,0,-1,-2,-1,-3,0,-2
1532321337477,-1,-1,0,-2,-1,-1,-1,2
1532321337482,-3,-1,-3,-1,-1,-2,-1,0
1532321337487,-1,0,-2,1,-1,-2,-3,2
1532321337492,1,0,-1,-1,-2,-1,-5,1
1532321337497,-2,-1,-2,0,-1,1,-1,1
1532321337502,-2,-1,-1,-2,0,-2,0,0
1532321337507,0,-1,2,-2,-1,-1,0,2
1532321337512,0,-1,0,-1,0,0,0,-3
1532321337517,-1,1,0,-2,-1,-1,-1,-2
1532321337522,-3,1,-1,-1,-2,-2,-3,-1
1532321337527,-1,-1,-2,-2,-1,-1,-3,-3
1532321337532,-1,-1,-2,-1,0,-2,0,-3
1532321337537,-1,-1,-2,-2,0,1,1,-5
1532321337542,0,-2,-1,1,0,1,1,-5
1532321337547,0,-1,1,-3,-2,0,2,-5
1532321337552,-2,-1,-1,-1,-2,1,-2,-4
1532321337557,1,0,1,-1,-1,3,-1,-1
1532321337562,0,-2,-1,-1,1,0,0,2
1532321337567,0,0,-1,0,-2,-3,-2,1
1532321337572,-2,1,0,-1,-2,-4,0,-4
1532321337577,-1,-2,-1,-1,-1,0,0,-3
1532321337582,0,0,-1,0,0,1,-1,-1
1532321337587,-1,-1,0,-1,0,0,0,6
1532321337592,-1,-2,0,0,1,-2,0,8
1532321337597,-1,-1,0,0,0,-2,0,4
1532321337602,-1,-1,-1,-1,1,-1,2,-1
1532321337607,0,-1,-1,0,1,0,2,-3
1532321337612,0,-1,-1,0,-1,-2,-2,-3
1532321337617,0,-3,-1,0,-1,2,0,-5
1532321337622,0,0,0,0,0,-1,-3,7
1532321337627,0,0,-1,-1,-2,-1,-2,8
1532321337632,-2,0,0,-2,-1,1,0,4
1532321337637,-1,-2,-1,-1,-2,-3,-2,1
1532321337642,-1,-2,-3,-2,-1,-2,-1,-5
1532321337647,0,-3,-1,-1,0,0,-2,-8
1532321337652,-1,-1,-2,0,0,-2,-1,-10
1532321337657,-2,0,-1,0,-2,-1,1,-6
1532321337662,-2,-1,-1,-3,-1,-2,1,-9
1532321337667,-2,-1,-2,-3,-1,-2,-1,-3
1532321337672,1,-3,-1,-1,0,0,-1,-2
1532321337677,0,-1,-2,-1,0,1,-2,6
1532321337682,0,-1,-2,-1,0,-2,-1,3
1532321337687,-2,0,-2,1,-1,-2,-1,-6
1532321337692,-2,-1,-2,0,-1,1,-4,-1
1532321337697,-3,0,-1,-1,0,0,-2,1
1532321337702,-1,-1,-1,-1,-1,-1,-1,6
1532321337707,0,-1,-1,-1,1,-1,-1,6
1532321337712,1,0,-2,-1,-2,0,1,4
1532321337717,0,0,-2,0,-1,0,1,3
1532321337722,-1,-1,0,-1,-1,-1,0,0
1532321337727,-1,-1,-2,-2,-2,-1,0,-1
1532321337732,-2,0,-2,-1,-2,-2,0,-1
1532321337737,-1,-1,-2,-1,0,-1,-2,1
1532321337742,0,-1,1,-1,-2,0,-2,0
1532321337747,0,-2,-1,0,-1,1,-1,1
1532321337752,-1,0,-1,0,0,1,0,2
1532321337757,-1,-2,0,0,0,0,-3,-1
1532321337762,0,-1,-1,-2,-1,-2,0,-3
1532321337767,-1,-2,-2,-3,0,-3,-1,-1
1532321337772,0,-1,0,-1,0,0,-1,-7
1532321337777,-1,-1,0,-1,0,0,0,-6
1532321337782,0,0,0,-1,-1,1,0,-3
1532321337787,0,-2,0,1,0,0,0,-3
1532321337792,-1,-1,0,0,-1,-1,2,0
1532321337797,0,0,-2,-1,-2,-2,0,-1
1532321337802,0,0,-1,0,0,-2,-2,2
1532321337807,-1,0,-2,-1,-2,0,-1,4
1532321337812,-1,-1,-2,-4,0,0,-2,5
1532321337817,-1,-2,0,-2,1,-4,0,4
1532321337822,0,-3,-1,0,0,-2,1,2
1532321337827,-2,0,-1,0,1,-1,2,0
1532321337832,-1,-1,-2,1,0,-1,-1,4
1532321337837,-1,-1,0,0,-1,1,-2,2
1532321337842,-2,1,1,-1,-2,0,-1,-1
1532321337847,-2,-1,2,-1,0,-1,0,-4
1532321337852,1,-3,-1,-2,-2,-2,1,-2
1532321337857,0,-1,-1,-1,0,0,-3,-3
1532321337862,-1,1,-2,-1,-2,-2,-1,-3
1532321337867,0,1,-1,0,-3,0,-1,-1
1532321337872,-1,-2,-1,0,-1,0,-1,0
1532321337877,1,1,0,0,-3,0,1,-2
1532321337882,-1,-2,-1,1,0,0,-2,-3
1532321337887,-1,0,0,-2,-1,-1,-2,-2
1532321337892,1,0,-1,0,-1,-1,-2,-1
1532321337897,2,-1,-2,-2,1,-1,1,-2
1532321337902,-2,1,0,-1,2,2,-1,1
1532321337907,-1,-2,-1,-1,1,-1,0,-1
1532321337912,-2,-1,0,0,0,-2,0,-2
1532321337917,-1,-1,-1,1,-2,-2,-2,-4
1532321337922,0,0,-1,0,-2,-1,-1,-3
1532321337927,0,-2,-2,-1,-1,-1,-2,-1
1532321337932,-1,0,-2,-1,-1,-1,1,-3
1532321337937,-2,0,-1,-1,-1,-2,1,4
1532321337942,0,0,-2,0,0,-1,-2,3
1532321337947,-2,-1,-1,-1,0,0,-1,0
1532321337952,-1,-2,-1,0,1,-1,1,-1
1532321337957,0,0,0,1,-2,-1,1,-4
1532321337962,-1,-2,0,-1,0,-1,-1,-2
1532321337967,1,-2,0,-2,-1,-2,-1,-4
1532321337972,-2,-2,-1,-1,-1,0,-3,-2
1532321337977,-2,-2,-1,1,-1,-1,-2,-2
1532321337982,0,0,-1,-1,-1,-1,-1,-2
1532321337987,-1,0,-2,0,-2,1,-1,-3
1532321337992,-1,0,-1,-1,-3,1,-2,0
1532321337997,-1,-1,-1,0,-1,1,0,0
1532321338002,-1,0,-2,-2,-1,-1,-1,-1
1532321338007,-2,0,0,0,1,-3,-1,-1
1532321338012,-1,-1,-1,-1,0,0,-2,-1
1532321338017,0,-2,0,-2,-1,0,0,-1
1532321338022,-1,-2,-2,0,0,-1,-1,-1
1532321338027,-2,0,0,-2,-1,-2,1,-3
1532321338032,-1,0,-1,-1,1,0,-1,-3
1532321338037,-1,-1,-2,0,1,-1,-2,0
1532321338042,-2,-1,-1,-1,0,-1,1,-3
1532321338047,0,-1,0,1,-1,-2,0,4
1532321338052,0,0,-1,0,-2,-2,0,1
1532321338057,1,1,-2,-1,-1,-2,-2,-2
1532321338062,1,0,-1,-1,-2,-1,-1,-1
1532321338067,0,-1,1,0,-1,-1,-1,1
1532321338072,0,-1,-2,1,-1,-2,-1,2
1532321338077,-1,-1,-2,-1,0,-3,-1,-1
1532321338082,-1,-1,0,0,-1,-2,0,-1
1532321338087,-1,0,2,-2,0,0,-2,0
1532321338092,-1,0,1,-1,-1,0,-1,-2
1532321338097,-1,0,0,-2,-2,2,0,0
1532321338102,-1,1,-1,-1,0,1,-1,0
1532321338107,-1,-1,-1,-2,-1,-1,-1,-2
1532321338112,-1,-3,-1,0,-1,1,-2,-1
1532321338117,-2,-2,-1,-1,1,-1,-2,0
1532321338122,-1,-2,-2,-1,-1,-1,-1,0
1532321338127,-1,-3,-1,-2,-1,-3,0,-1
1532321338132,0,-1,0,-1,-1,-2,-1,0
1532321338137,0,-1,-1,-2,-1,-1,2,0
1532321338142,-2,-2,0,-2,0,-1,-1,0
1532321338147,1,-1,-1,0,-1,1,0,-1
1532321338152,-2,0,-1,-1,0,0,1,0
1532321338157,0,-1,-1,-2,-1,0,0,-1
1532321338162,1,-2,-1,-2,-1,-1,-1,-1
1532321338167,0,-1,0,0,0,0,-1,1
1532321338172,-2,-2,0,-1,-2,-1,-1,2
1532321338177,-3,-2,-2,0,0,-1,-2,1
1532321338182,1,-1,-3,-2,1,0,-1,0
1532321338187,0,0,0,0,0,0,-1,-1
1532321338192,-2,1,0,-3,0,-2,0,1
1532321338197,-1,-1,-1,-1,0,-3,2,0
1532321338202,-1,-1,0,-1,-4,-1,-1,2
1532321338207,-1,-2,-3,0,-1,-2,-2,0
1532321338212,0,-1,-1,0,0,1,0,-2
1532321338217,-1,-1,-1,-1,0,2,-4,-2
1532321338222,0,-2,-1,-1,-1,0,-1,-4
1532321338227,0,1,-1,-1,0,1,1,-2
1532321338232,-1,-1,0,-1,-2,-2,-1,-1
1532321338237,-3,0,0,-2,-2,-2,-2,0
1532321338242,-1,1,0,-1,-2,-1,-1,0
1532321338247,-1,-1,-2,0,-2,-3,0,-1
1532321338252,1,0,-1,0,-3,-2,-1,2
1532321338257,-1,-2,-1,0,0,0,0,1
1532321338262,0,0,-1,0,0,-1,0,0
1532321338267,-2,-1,-2,-1,-1,-1,-2,-2
1532321338272,-1,-1,-2,-1,0,0,-3,-2
1532321338277,1,-2,0,0,-3,0,0,-4
1532321338282,-2,0,0,0,-1,-1,0,-3
1532321338287,-2,-1,0,-1,0,-1,-3,-1
1532321338292,-2,-1,-1,0,0,0,-1,1
1532321338297,-1,0,-1,-1,-1,0,-1,1
1532321338302,-2,-1,-1,1,1,-1,1,-1
1532321338307,1,0,1,-1,-1,-1,1,1
1532321338312,1,0,0,-2,-2,-3,-2,-2
1532321338317,-2,-1,0,-1,1,-2,0,0
1532321338322,-2,-2,-1,-1,-3,-1,-1,0
1532321338327,0,-2,1,-1,0,-1,-1,1
1532321338332,1,-2,-2,-1,-1,0,1,-4
1532321338337,1,0,-1,-1,-1,0,0,2
1532321338342,-1,0,0,-1,1,1,-2,1
1532321338347,-1,-1,-3,-2,-1,-1,-1,1
1532321338352,-1,-1,-2,0,-1,0,0,-1
1532321338357,0,0,0,0,0,0,0,-3
1532321338362,-3,-1,-2,0,-1,0,-1,-1
1532321338367,-1,-1,0,0,1,-1,-1,-2
1532321338372,-1,1,0,-1,0,-1,1,0
1532321338377,-1,-2,0,0,0,-1,-1,-1
1532321338382,0,0,2,0,-1,-1,-2,-1
1532321338387,0,-1,0,0,0,-1,-2,-1
1532321338392,1,-1,0,-1,-1,0,0,-4
1532321338397,0,0,0,0,-1,0,-3,-3
1532321338402,0,-1,-2,0,0,-2,-1,-1
1532321338407,-2,-1,-2,-1,0,0,-1,0
1532321338412,0,-2,0,-1,1,-3,0,0
1532321338417,-2,0,0,-1,-1,-3,-2,1
1532321338422,-1,-3,0,-1,-2,0,-1,-1
1532321338427,0,0,-1,0,-1,0,0,1
1532321338432,-1,-2,-1,-2,2,0,-2,0
1532321338437,-1,-1,-1,0,-1,-1,-1,0
1532321338442,0,-1,0,-1,0,-1,-2,-3
1532321338447,-3,1,-2,-3,-1,-1,-1,-3
1532321338452,-1,-3,1,0,-1,0,0,0
1532321338457,-2,-1,-1,0,-2,0,0,-1
1532321338462,-2,1,-1,-2,0,0,-1,0
1532321338467,-1,-2,-2,-1,-2,-2,0,-1
1532321338472,-2,1,-2,0,-3,-2,-3,-3
1532321338477,1,1,-2,-2,-1,-3,-2,0
1532321338482,-1,0,1,1,-2,-1,-1,1
1532321338487,0,0,0,0,-1,0,-2,-1
1532321338492,-1,-1,-1,-2,-1,0,-3,-2
1532321338497,0,-1,0,-2,-1,-1,-2,-1
1532321338502,-1,-1,-1,-2,-2,-1,-1,0
1532321338507,-2,-1,-1,0,-2,0,0,-1
1532321338512,-2,0,-2,-1,-1,0,0,1
1532321338517,-1,-2,-2,0,-1,0,1,-1
1532321338522,0,-1,-1,-1,0,-1,2,0
1532321338527,-1,1,-1,-2,0,-1,-1,0
1532321338532,-1,0,0,-2,0,-1,0,-1
1532321338537,1,-2,-3,-1,-2,0,-3,0
1532321338542,-2,-1,-1,-1,-1,-1,-1,-1
1532321338547,1,1,-1,-1,0,-2,-1,0
1532321338552,0,-1,-1,0,-1,-2,0,0
1532321338557,-3,0,0,-1,-2,-2,0,0
1532321338562,1,0,-2,-1,-1,-2,-2,-3
1532321338567,-1,0,-1,-1,-1,-2,0,0
1532321338572,0,0,-1,0,0,0,0,-1
1532321338577,-1,0,-2,-2,-1,0,2,0
1532321338582,-1,-1,-1,0,0,-1,-1,-1
1532321338587,1,-2,-1,0,0,0,0,-2
1532321338592,1,-1,2,-1,1,-1,-1,0
1532321338597,0,0,0,0,-1,0,-2,0
1532321338602,1,-2,-1,-1,0,-1,-1,-1
1532321338607,0,-1,-1,-2,-1,-2,-1,-1
1532321338612,-3,0,-2,1,-1,-1,0,1
1532321338617,-1,-1,-3,0,1,-3,0,-1
1532321338622,-1,-2,-3,-2,0,-3,-1,0
1532321338627,-1,-1,-1,0,0,-1,-1,-1
1532321338632,0,-1,0,0,-3,-2,1,1
1532321338637,0,-1,-2,0,0,0,-2,-1
1532321338642,0,-1,-2,-1,0,0,-2,0
1532321338647,-1,-1,0,-1,-1,0,-3,-1
1532321338652,0,-2,0,0,-1,-2,1,-1
1532321338657,-2,-2,1,0,0,0,0,-3
1532321338662,-1,-2,-2,0,-1,0,-1,-2
1532321338667,-1,0,-3,-1,-1,0,-2,-1
1532321338672,-1,1,-2,-1,0,-2,-2,-1
1532321338677,-1,0,0,-1,1,1,-2,-2
1532321338682,0,-1,-1,0,-2,0,0,0
1532321338687,-1,0,-2,-1,0,0,1,0
1532321338692,-1,-2,-2,-2,-2,1,-1,0
1532321338697,0,0,-1,0,-2,-2,0,0
1532321338702,1,0,2,-2,-2,0,-1,-1
1532321338707,1,-2,-2,-1,-2,-2,-1,-2
1532321338712,-3,-1,-1,0,1,-2,-2,-2
1532321338717,-2,-1,-1,-1,0,-1,-2,-1
1532321338722,-1,0,-1,0,-3,-1,1,0
1532321338727,-1,0,0,-1,0,-1,0,0
1532321338732,1,-1,0,0,-2,0,-2,0
1532321338737,1,-1,-1,2,-1,0,0,0
1532321338742,-2,-1,0,-1,0,1,-2,-1
1532321338747,-1,-2,0,-1,0,1,-1,0
1532321338752,-1,-2,-1,-1,-1,-1,1,-4
1532321338757,1,0,0,-1,1,-2,-1,0
1532321338762,0,-1,0,-1,-2,-3,-1,2
1532321338767,0,-2,-1,0,0,-2,0,1
1532321338772,-2,-1,-1,-1,-1,-1,-1,1
1532321338777,0,1,0,-1,-1,1,-1,0
1532321338782,-1,0,-1,-1,1,0,1,-3
1532321338787,-1,-1,0,-1,-1,-1,-2,0
1532321338792,-1,-1,-1,-1,0,-3,-2,-1
1532321338797,-2,-3,-1,-2,-2,-1,0,0
1532321338802,0,0,-1,1,-1,-2,0,-2
1532321338807,-3,-1,1,-1,-2,1,2,-2
1532321338812,-1,0,0,-2,0,0,0,-1
1532321338817,0,0,1,0,-4,-3,0,-1
1532321338822,1,-3,0,0,0,-1,-2,-2
1532321338827,-1,-1,-3,0,1,-2,-1,-2
1532321338832,1,0,-2,0,-2,0,-1,-1
1532321338837,0,-2,0,0,0,-3,-1,-1
1532321338842,-1,-1,-1,-2,-1,-2,0,0
1532321338847,2,-3,-2,0,-2,-1,0,-1
1532321338852,-2,0,-1,-1,-1,0,-1,1
1532321338857,-2,-1,0,-2,0,-3,0,0
1532321338862,-1,-2,0,1,-1,-2,-2,-1
1532321338867,-3,-1,-2,-1,1,0,-1,0
1532321338872,-1,-2,-1,-1,-2,0,0,-1
1532321338877,-2,0,-1,-1,0,-1,-1,0
1532321338882,0,0,-2,0,-1,-2,-1,-1
1532321338887,-1,-1,-1,-1,-1,-1,0,0
1532321338892,-2,0,-3,0,0,-2,0,0
1532321338897,0,-1,-2,-1,-1,0,0,-1
1532321338902,0,-1,-2,-1,0,0,-3,-1
1532321338907,-2,-2,0,-2,-1,0,-2,0
1532321338912,0,-2,-1,0,0,-1,-1,-3
1532321338917,0,0,-2,0,-1,-2,0,-2
1532321338922,1,-1,0,1,1,-1,-1,-1
1532321338927,0,-2,-1,0,0,1,-1,-2
1532321338932,1,-1,0,-2,-1,0,-2,-2
1532321338937,0,0,2,-1,0,0,-2,-4
1532321338942,0,-1,0,-1,-1,0,-1,-5
1532321338947,0,0,-2,1,-1,-2,0,-1
1532321338952,0,0,-1,-2,-2,-3,-2,0
1532321338957,0,-1,-2,0,-3,-2,-2,1
1532321338962,-2,-3,-1,-1,-1,-1,0,2
1532321338967,1,-1,-2,-2,0,0,0,2
1532321338972,-1,-1,-1,-1,1,-1,3,1
1532321338977,-1,-1,-2,-2,-2,2,0,1
1532321338982,0,0,-1,-1,-1,0,-1,0
1532321338987,-1,-1,-1,0,-2,-2,-3,-1
1532321338992,-1,-1,0,0,0,-2,-1,0
1532321338997,-2,-2,-1,0,0,-1,0,-1
1532321339002,0,-2,-1,-2,-1,0,-2,-1
1532321339007,-1,0,0,0,-1,-3,-3,-2
1532321339012,1,1,1,-1,1,-3,-2,-1
1532321339017,-1,-1,0,-2,1,-2,-1,-1
1532321339022,-2,-1,-1,-1,0,1,1,-1
1532321339027,-1,-1,-2,-1,-2,-1,0,-2
1532321339032,-1,-2,0,-1,-1,-1,-2,1
1532321339037,0,-1,-1,1,0,-1,0,1
1532321339042,1,1,0,0,-2,-1,2,-1
1532321339047,-1,0,-1,-2,-1,1,-1,-1
1532321339052,-2,-1,-2,0,-2,1,-2,-1
1532321339057,1,0,-1,-1,-2,-1,-1,-2
1532321339062,-3,0,-1,-1,0,-1,-1,-1
1532321339067,-1,0,0,-1,0,-1,0,-2
1532321339072,1,-2,-3,-1,0,0,-1,-3
1532321339077,0,-2,0,-1,0,-2,-1,0
1532321339082,-1,-2,-1,0,-3,-2,-1,-1
1532321339087,-1,-1,0,-1,0,-2,-2,0
1532321339092,0,-1,-3,-2,0,-1,-1,0
1532321339097,1,-1,-1,-2,0,0,0,-1
1532321339102,0,1,0,0,1,-2,-1,-1
1532321339107,0,-1,0,0,-1,1,0,1
1532321339112,0,-2,-1,-1,-1,0,-1,1
1532321339117,-1,0,-1,-1,-1,-1,-2,0
1532321339122,0,0,-1,-2,-2,-1,0,0
1532321339127,0,-1,-2,0,-1,-2,-1,-2
1532321339132,-1,-1,0,0,0,-1,-2,0
1532321339137,-3,0,0,1,0,1,-1,0
1532321339142,-4,-1,0,1,0,0,-2,0
1532321339147,-1,1,2,-3,-1,-1,0,0
1532321339152,-1,0,0,-2,-2,1,-1,0
1532321339157,0,-1,-1,1,-3,0,-2,1
1532321339162,0,-1,0,-1,0,0,-2,0
1532321339167,1,-1,-2,0,-1,-2,-1,-1
1532321339172,0,0,0,0,-1,-2,2,-4
1532321339177,0,-3,0,-1,-3,-2,-1,-2
1532321339182,0,0,-1,-1,-1,-1,0,1
1532321339187,-1,1,-1,0,0,-1,-1,0
1532321339192,-1,-2,-2,0,-1,0,-2,1
1532321339197,0,-1,-1,-3,1,0,-1,0
1532321339202,0,-2,-1,-1,-1,-1,0,-2
1532321339207,-1,0,1,-1,-3,-1,-1,-2
1532321339212,0,0,0,-1,0,-2,3,-2
1532321339217,-2,-1,0,0,1,-2,-1,-1
1532321339222,-1,-2,-1,-2,0,0,-4,-2
1532321339227,0,-1,-1,-2,0,0,-3,-1
1532321339232,0,-1,1,1,-1,-1,-2,-1
1532321339237,-1,-1,0,0,0,-2,-2,-1
1532321339242,0,0,-1,-1,0,-2,0,-1
1532321339247,0,-4,-2,0,-1,0,0,-2
1532321339252,0,-2,0,-2,0,0,0,-1
1532321339257,1,0,-1,-1,-2,-1,2,0
1532321339262,-1,0,0,-1,-1,0,-1,1
1532321339267,0,-2,-1,-1,0,-2,-1,-1
1532321339272,-3,-2,-1,1,-2,-1,0,-2
1532321339277,1,0,-2,-1,-1,-3,-1,0
1532321339282,-1,-1,-1,-1,-1,-1,-3,-2
1532321339287,-1,-1,0,0,-3,-1,1,1
1532321339292,-2,-1,0,-1,-2,-2,0,0
1532321339297,1,-1,-1,0,0,-1,0,0
1532321339302,-3,-1,-1,1,-1,-2,0,1
1532321339307,-1,-1,-1,-1,1,0,-1,2
1532321339312,0,0,-1,-1,0,-1,0,-1
1532321339317,-2,0,-1,-1,-2,1,0,-2
1532321339322,0,-1,-1,0,-1,3,-1,-3
1532321339327,-1,0,0,-1,-2,2,-2,-3
1532321339332,-1,0,-2,0,-1,0,-1,1
1532321339337,-3,-3,-1,-1,-1,-1,-2,-1
1532321339342,-1,-1,-1,-1,-2,-1,0,-1
1532321339347,-1,-2,-2,-1,-1,-3,-2,0
1532321339352,1,-1,-1,-2,0,0,-2,-2
1532321339357,0,0,0,0,-1,-1,-1,-1
1532321339362,0,-1,-1,-1,-1,-3,1,2
1532321339367,-2,-1,1,0,-1,-2,-2,0
1532321339372,-1,-2,-1,1,-1,-3,-2,-1
1532321339377,0,0,-2,0,-2,-1,0,-1
1532321339382,1,0,-1,-2,0,0,-1,0
1532321339387,-1,1,-1,0,-1,0,2,-2
1532321339392,0,-1,-2,-2,1,-1,-1,-2
1532321339397,0,-1,0,-1,-2,-1,-3,0
1532321339402,-1,-1,-2,-2,-1,0,-2,-2
1532321339407,-1,0,-1,-1,-1,0,0,-1
1532321339412,-1,-1,-1,0,-2,-1,0,-1
1532321339417,-1,1,0,-1,1,-1,1,0
1532321339422,0,0,-1,0,0,-3,0,-3
1532321339427,-1,-2,0,0,-1,-2,1,0
1532321339432,-1,-1,0,-2,-1,-1,-2,1
1532321339437,0,-1,0,-1,-2,-1,-1,-1
1532321339442,0,-2,1,-2,-3,0,-1,-1
1532321339447,0,-2,-3,-2,-1,1,-2,-1
1532321339452,-1,0,-2,-2,0,-1,0,-1
1532321339457,-2,-1,-2,-1,0,0,-1,-3
1532321339462,1,1,-2,0,-2,-1,0,-2
1532321339467,1,-3,-1,0,0,0,-2,0
1532321339472,-2,0,-1,-2,1,1,-2,0
1532321339477,-2,-2,0,1,1,-1,-1,0
1532321339482,-2,-1,-1,-2,0,-1,-1,-1
1532321339487,-1,0,-3,-1,-1,-1,-2,1
1532321339492,0,-2,0,0,-3,-1,-2,-3
1532321339497,0,-1,0,-1,-1,0,-2,-1
1532321339502,-2,-3,-2,-1,-1,0,0,-2
1532321339507,-1,0,0,0,-2,-2,0,0
1532321339512,0,-1,-1,0,-1,1,1,2
1532321339517,0,-2,0,0,-1,-1,-1,0
1532321339522,-1,1,0,1,0,0,-2,1
1532321339527,1,-1,0,0,0,1,0,-2
1532321339532,0,0,0,-1,0,0,2,0
1532321339537,-1,1,-1,-1,-3,0,1,0
1532321339542,0,-2,-2,0,1,-2,2,-1
1532321339547,0,0,-3,0,1,-2,1,-4
1532321339552,-2,-1,-1,1,-1,-1,-3,-2
1532321339557,-2,-1,-3,0,1,-1,0,-1
1532321339562,0,-1,0,-1,-1,0,1,-1
1532321339567,-1,0,-1,-1,-2,-1,-3,-1
1532321339572,1,-1,0,-1,-1,-2,0,-3
1532321339577,0,-1,1,-1,-1,-1,-3,-2
1532321339582,-1,-1,0,-2,1,-1,-1,1
1532321339587,-1,1,-1,0,-2,-3,1,-1
1532321339592,0,1,0,0,-1,0,1,-1
1532321339597,-1,0,-1,-1,0,0,1,-1
1532321339602,0,1,-1,0,-1,-2,-4,-2
1532321339607,-1,0,0,0,-1,2,-2,0
1532321339612,-2,-3,0,-1,0,-2,-4,-4
1532321339617,-1,-2,-3,0,0,-1,0,-5
1532321339622,-1,-1,-1,-1,-1,-1,-1,-3
1532321339627,-1,-1,-2,0,0,-1,0,1
1532321339632,0,0,-1,-1,-2,-2,1,2
1532321339637,0,0,-3,-2,-2,-1,0,2
1532321339642,0,-2,-2,-2,-2,-2,0,0
1532321339647,-1,0,-2,-1,-1,0,-1,-2
1532321339652,-1,0,0,-1,-2,0,1,2
1532321339657,-2,-1,0,-1,-1,-1,-1,0
1532321339662,0,-1,0,0,-1,0,-1,-1
1532321339667,0,-2,2,-1,1,-2,-2,-1
