timestamp,emg1,emg2,emg3,emg4,emg5,emg6,emg7,emg8
1533863975924090,-2,0,2,4,-1,-2,0,-2
1533863975924090,-1,-1,2,3,-2,0,1,-2
1533863975925087,0,-2,-1,6,0,1,-1,-1
1533863975925087,0,0,3,6,1,-2,-1,-1
1533863975926084,0,1,-2,3,1,1,0,1
1533863975926084,0,1,1,1,2,-2,-1,-2
1533863975927081,-2,-3,2,0,-1,-3,-4,-2
1533863975927081,-3,-5,-15,0,-4,-3,-1,-1
1533863975934075,0,-1,-3,-2,-2,-1,-2,0
1533863975934075,0,-1,-2,-1,-1,0,0,-1
1533863975938051,-1,-1,3,1,-3,-1,-1,0
1533863975938051,0,-1,4,-5,-1,0,0,-1
1533863975954007,-3,-2,0,-3,0,-3,0,-1
1533863975954007,0,2,5,27,1,3,2,1
1533863975960989,0,-2,-5,-40,-3,-3,-3,0
1533863975960989,-2,-1,-2,-3,-2,-2,-2,-1
1533863975968968,-1,-1,-2,1,-1,-1,-3,-1
1533863975968968,-1,-2,-2,-8,-1,-3,-1,-1
1533863975991907,0,2,0,16,2,0,1,-1
1533863975991907,-1,0,-3,-3,0,0,0,0
1533863976021825,-1,-1,-2,-14,-4,-1,-1,0
1533863976021825,-1,-3,-2,2,-2,-4,-1,-2
1533863976029805,0,-1,1,3,1,-3,-3,0
1533863976029805,-2,-1,1,1,-1,-3,0,-1
1533863976029805,-2,-1,1,1,0,-2,0,-1
1533863976029805,0,0,2,-1,-2,0,0,-1
1533863976031801,0,-2,-3,-6,-3,-1,-1,-1
1533863976031801,-3,-1,-4,-3,0,0,-2,-1
1533863976042773,0,0,1,6,0,0,0,-1
1533863976042773,-1,0,2,-1,-1,1,0,-1
1533863976051746,-1,-1,-1,13,0,-2,-1,-2
1533863976051746,-1,0,-5,-14,-2,-2,-1,-1
1533863976057734,-1,-1,-2,-6,-4,-1,-2,-1
1533863976057734,0,1,-1,-4,2,1,-2,-1
1533863976073688,-2,0,-1,4,-2,1,0,-1
1533863976073688,1,-3,1,15,1,-1,-1,-2
1533863976079679,-1,-2,-5,-15,-1,-2,-2,-2
1533863976079679,-2,-2,0,0,-1,-2,-1,-1
1533863976103608,-1,0,-4,-9,-2,-1,-1,0
1533863976103608,0,0,7,5,-2,0,0,2
1533863976104643,-3,0,9,21,2,0,1,2
1533863976104643,-3,-4,-15,-23,-2,-2,-2,-2
1533863976117571,-1,-1,1,-4,0,-1,0,-3
1533863976117571,2,0,-3,2,0,0,-1,-3
1533863976118567,1,0,0,10,2,-1,-2,-3
1533863976118567,-1,1,3,0,0,-1,-1,1
1533863976140545,-1,-1,-2,-7,-1,-1,0,-2
1533863976140545,0,0,2,-6,0,-3,0,1
1533863976141507,-1,-1,-1,0,-2,-1,1,-1
1533863976141507,-2,-3,-2,6,-2,0,-2,-2
1533863976163447,-1,-2,-3,-2,-2,-2,0,-1
1533863976163447,-1,-2,-2,1,-1,-2,-1,-2
1533863976163447,-1,-3,-5,-6,-2,-2,-2,0
1533863976163447,1,1,3,12,1,0,-1,0
1533863976178427,-1,-1,-1,-10,-1,0,-2,-2
1533863976178427,-4,-5,-7,0,-1,-1,-2,-3
1533863976178427,-1,0,-4,1,-2,-1,-2,0
1533863976178427,0,0,-3,0,-1,-2,-2,-1
1533863976200351,-1,-2,-1,19,2,1,0,-1
1533863976200351,-1,0,0,-17,-4,-1,-1,0
1533863976201346,-1,-2,-2,5,0,-2,-1,-2
1533863976201346,0,-1,0,-9,-2,-2,-1,-2
1533863976223291,1,0,-7,-6,-2,-2,-2,-1
1533863976223291,-3,-1,-1,2,1,2,-3,-1
1533863976224285,-2,-1,0,-2,-4,-1,-1,0
1533863976224285,0,-1,3,21,3,0,2,-1
1533863976238282,-1,0,7,-32,-4,-1,0,-1
1533863976238282,-4,-4,-17,-4,-2,-3,-2,-2
1533863976239278,-1,-2,-1,9,3,0,0,-2
1533863976239278,-1,-1,-3,-1,-2,-3,-2,-3
1533863976261203,-1,-1,1,6,1,0,-2,-1
1533863976261203,0,3,3,2,-2,0,-1,0
1533863976261203,0,0,-1,-9,-3,-2,-2,-2
1533863976261203,-1,-3,-1,1,1,-3,0,-1
1533863976283131,1,-1,1,2,1,0,-1,0
1533863976283131,1,1,1,-4,-3,-1,-2,0
1533863976284124,-1,-1,-2,7,-2,-1,-1,-2
1533863976284124,0,0,1,-17,-4,-1,-3,0
1533863976298091,0,0,-1,8,0,-2,-1,0
1533863976298091,-2,-1,0,4,-4,0,1,-1
1533863976299085,1,0,-2,-30,-1,-2,-1,1
1533863976299085,-4,-4,-6,10,-3,-2,-3,-2
1533863976321026,-2,-1,0,4,2,-1,0,-2
1533863976321026,-1,0,1,7,4,1,-3,-1
1533863976321026,0,1,3,9,1,-1,0,-2
1533863976321026,0,-1,-3,-23,-3,-1,-3,-1
1533863976342970,-2,-2,-3,1,-2,-1,-2,-2
1533863976342970,-1,-1,3,3,-1,-2,0,-3
1533863976343964,-2,-2,-1,-1,-2,-1,-1,-1
1533863976343964,-2,-1,0,-2,2,-1,0,-1
1533863976357930,0,-3,-1,1,1,-2,-3,-1
1533863976357930,-1,1,1,-6,-1,-1,0,1
1533863976358924,-1,-2,-2,-2,-1,1,-1,2
1533863976358924,-1,1,1,5,0,0,0,-1
1533863976380866,-2,-2,-1,0,-5,-1,-2,0
1533863976380866,1,-1,1,11,2,0,0,-2
1533863976380866,0,-2,-4,-36,-5,-3,-3,-3
1533863976380866,-1,1,4,28,7,0,0,1
1533863976402807,-3,-3,-10,-19,-8,-3,-5,-3
1533863976402807,-2,-2,-4,1,-1,-1,-3,-1
1533863976403805,-1,-1,3,5,-4,0,1,-2
1533863976403805,1,-2,-3,-9,-6,-2,-1,-1
1533863976417767,0,1,2,3,2,-1,1,0
1533863976417767,-2,-1,-2,8,3,-1,-1,0
1533863976418769,0,0,-2,11,5,-1,-2,-3
1533863976418769,-2,0,-1,-10,-9,1,-1,-2
1533863976440705,-2,-3,-1,-1,-1,-2,1,-1
1533863976440705,-1,-2,-3,-13,-2,-3,0,1
1533863976441703,-3,0,0,3,-1,-2,-1,0
1533863976441703,0,-1,-1,17,-2,0,0,0
1533863976462647,-1,-1,-1,-26,-5,0,0,1
1533863976462647,-1,0,0,1,0,-1,-3,-2
1533863976463644,-1,1,1,11,0,0,-1,-1
1533863976463644,-3,-3,-2,-17,0,-2,1,-1
1533863976478604,2,-1,-2,-4,-5,-2,0,0
1533863976478604,1,-1,1,-3,6,0,1,0
1533863976478604,0,-2,0,11,-6,-1,-2,0
1533863976478604,-4,-3,-1,3,10,0,-3,-2
1533863976500757,-2,4,7,16,6,3,1,-1
1533863976500757,-1,-1,-3,-4,-14,-2,-3,-1
1533863976501543,0,-3,-12,-32,-3,-3,0,-1
1533863976501543,1,-2,-1,1,5,-1,-2,1
1533863976523550,0,-3,-4,-7,-5,-2,-5,-3
1533863976523550,-1,-2,3,17,3,2,-1,-1
1533863976524482,-3,-2,1,6,-1,0,-1,0
1533863976524482,1,-1,-4,-14,-6,-4,-1,0
1533863976538569,-1,-1,-2,9,4,-1,-1,-1
1533863976538569,0,0,-1,-10,-2,-2,0,-2
1533863976538569,0,-1,-1,-1,-2,-1,0,-2
1533863976538569,-3,0,-1,-3,0,-2,-1,0
1533863976560406,-2,-1,-2,8,-3,-3,0,-1
1533863976560406,0,-1,-4,-9,-3,-1,1,-2
1533863976561386,-1,-1,-1,-3,3,-1,0,-2
1533863976561386,0,1,2,8,0,-1,-2,-2
1533863976583328,-1,1,0,-1,-4,0,-1,0
1533863976583328,-1,-1,-2,-9,-3,-4,-1,-1
1533863976584322,-1,0,1,0,2,-1,-2,-1
1533863976584322,2,2,1,7,-1,1,0,-1
1533863976598284,0,-1,-3,3,4,-3,-2,-2
1533863976598284,-5,-3,-5,-7,-6,-3,-2,-1
1533863976598284,-2,-1,-1,3,-6,-2,-2,0
1533863976598284,-1,0,2,5,-2,-1,-1,1
1533863976620229,-2,0,-3,-14,0,1,-1,0
1533863976620229,3,1,3,15,-3,0,1,-1
1533863976621223,-1,-1,-4,-2,1,0,-1,-1
1533863976621223,-1,-1,-1,-11,-5,-1,0,-2
1533863976643164,0,-2,3,9,0,-3,1,-3
1533863976643164,-2,-1,-4,-16,7,1,-1,-3
1533863976644161,-1,-2,-4,-3,-6,-3,-1,-1
1533863976644161,-2,-1,-1,0,2,-1,-1,-2
1533863976657130,-1,1,1,10,-2,1,1,-2
1533863976657130,-2,1,3,-10,3,-1,-1,0
1533863976665107,0,1,1,8,-7,-1,-1,-1
1533863976665107,-2,0,1,-6,4,0,-2,-2
1533863976681063,-4,-4,-6,-5,1,-1,-3,0
1533863976681063,-1,-5,-6,-7,-1,-2,-2,0
1533863976681063,-1,1,0,3,4,0,0,-2
1533863976681063,-2,-1,-2,5,-3,-1,-1,-1
1533863976703011,-1,0,1,6,-5,-1,-1,-1
1533863976703011,0,1,2,11,-2,-1,0,0
1533863976704002,-2,-2,-3,-5,6,1,0,0
1533863976704002,0,-1,-2,-7,-3,-1,1,0
1533863976717967,-2,-2,-2,0,-1,-2,-1,-2
1533863976717967,-1,-2,4,8,-1,0,-2,-2
1533863976724949,1,-1,0,-10,2,-1,-1,-1
1533863976724949,0,-1,-3,-5,-7,-1,-2,-1
1533863976740902,-3,-2,-3,4,3,0,-1,-2
1533863976740902,-2,-1,-1,5,-4,0,1,-1
1533863976740902,-2,-2,1,8,0,0,-2,-1
1533863976740902,-1,-2,-6,-14,0,2,-1,-2
1533863976762845,0,0,0,-3,-8,-4,-1,-2
1533863976762845,-2,-2,-1,-5,1,-1,-3,-2
1533863976763848,-2,-2,0,3,-5,-2,0,-1
1533863976763848,0,-1,-1,-6,-5,-4,-1,-2
1533863976777804,-2,0,0,5,5,1,-1,-1
1533863976777804,0,0,-6,-13,1,1,0,1
1533863976784994,-1,-3,-2,-20,3,-2,-2,-2
1533863976784994,-1,-1,1,2,-4,-2,-2,0
1533863976800960,0,-3,-1,1,4,1,2,0
1533863976800960,-2,0,2,0,-3,-3,-3,-2
1533863976801774,-1,-1,1,-1,1,2,-2,-2
1533863976801774,-1,-1,-1,13,5,-3,-1,-2
1533863976822857,0,1,2,-5,-7,0,2,-1
1533863976822857,-4,-4,-4,17,-4,-4,-2,-3
1533863976823682,-1,-2,-6,-15,-3,-2,-1,-3
1533863976823682,-2,-3,-1,2,-3,-2,0,-1
1533863976837645,0,-1,-1,-5,4,1,-2,0
1533863976837645,1,2,2,-1,0,1,-1,0
1533863976844629,-3,0,-2,16,-7,-6,-3,-2
1533863976844629,-1,2,2,-28,-1,0,0,1
1533863976860586,-4,-3,-10,-24,-2,-4,-4,-1
1533863976860586,2,1,5,7,0,1,2,2
1533863976861580,-2,-3,-1,13,6,-1,-2,-2
1533863976861580,-2,-1,-5,-11,-2,-2,-3,-1
1533863976883521,0,0,4,2,-9,-1,0,-1
1533863976883521,1,-1,-8,-11,11,1,-1,-1
1533863976883521,-1,1,3,5,-7,0,0,1
1533863976883521,-3,-3,-3,6,5,-5,-2,-4
1533863976897485,-1,0,0,-2,4,0,-1,-3
1533863976897485,-1,1,-1,9,-6,0,1,3
1533863976904531,1,1,3,-6,9,1,2,-1
1533863976904531,-4,-7,-9,7,-14,-2,-4,-2
1533863976920426,0,-3,-5,-18,-4,-2,-3,-2
1533863976920426,-2,-2,-1,0,-4,-3,-2,-2
1533863976921420,0,3,5,23,4,1,1,1
1533863976921420,-4,-4,-5,-37,-15,-4,-1,-3
1533863976943365,-2,0,3,-3,-2,1,-3,-1
1533863976943365,-2,-5,-7,-9,-1,-6,-3,-2
1533863976943365,-1,0,5,7,7,1,-2,-1
1533863976943365,-2,-3,-8,0,-2,1,1,-2
1533863976957324,1,3,9,10,12,5,3,1
1533863976957324,2,6,13,62,10,4,5,0
1533863976965302,-8,-16,-30,-62,-40,-17,-13,-9
1533863976965302,1,2,6,31,-4,-1,-1,0
1533863976980264,-2,-2,-6,-3,-3,-4,-2,-2
1533863976980264,-2,-2,7,11,9,2,-2,-2
1533863976981261,-1,5,10,33,9,1,3,4
1533863976981261,-1,1,-4,0,-4,-4,-3,-3
1533863977003395,-2,-5,-8,-4,-7,-4,-1,-3
1533863977003395,-2,-2,-3,-25,-5,-3,-3,-2
1533863977004225,2,3,4,-8,6,2,1,-1
1533863977004225,0,0,-4,41,11,1,0,1
1533863977025142,-7,-7,-6,-39,-23,-11,-5,-4
1533863977025142,-3,-6,-13,-17,-9,-7,-5,-4
1533863977026140,2,3,14,14,5,6,2,2
1533863977026140,1,-2,-15,-14,7,2,2,-1
1533863977049078,1,4,3,28,3,3,2,2
1533863977049078,-3,-5,-6,-23,-11,-3,-3,-3
1533863977049078,-1,-2,0,1,-1,-2,-1,-1
1533863977049078,0,2,10,11,13,4,2,0
1533863977063041,0,-3,-3,-7,-2,-6,1,2
1533863977063041,-3,-2,-1,-4,-14,-4,-3,-1
1533863977064039,1,0,-5,-12,0,2,0,-1
1533863977064039,0,0,6,15,-1,-1,1,0
1533863977086042,-2,-2,-6,4,6,-1,-2,-1
1533863977086042,-1,0,3,20,10,1,-1,-1
1533863977086042,-2,-4,-8,-12,-17,-6,0,1
1533863977086042,-2,-1,0,-1,-4,1,-3,-3
1533863977108922,1,-1,6,22,3,0,-3,1
1533863977108922,0,1,-1,-15,1,0,-2,-2
1533863977109916,-1,-1,2,20,12,1,1,-2
1533863977109916,-1,-1,1,-16,-13,-5,-1,-2
1533863977123089,-1,1,-1,3,-1,-4,-1,-1
1533863977123089,-2,-1,-2,-7,1,-3,2,1
1533863977123879,-1,-2,-5,-7,1,-2,-2,-1
1533863977123879,-2,0,4,-6,1,0,-1,-1
1533863977145820,-2,-1,-1,-7,0,3,0,0
1533863977145820,0,-1,-3,-2,-1,-1,-2,-4
1533863977146822,-3,-1,-2,1,-1,0,0,-2
1533863977146822,1,0,0,-8,1,-2,0,0
1533863977168808,-1,-2,-2,9,4,-1,-1,-1
1533863977168808,1,-2,-2,-12,-12,-3,-3,0
1533863977169789,0,0,-3,-2,5,0,-2,-2
1533863977169789,-2,-2,0,-4,-8,-2,-1,0
1533863977182926,1,1,-2,-7,4,1,-2,0
1533863977182926,-1,0,3,-7,-5,-3,0,0
1533863977190703,-2,-2,-3,0,-3,-1,-2,-2
1533863977190703,1,-2,-1,-1,2,-1,-3,0
1533863977213639,-3,-1,0,-3,-11,0,2,-2
1533863977213639,-4,-2,-2,-3,-7,-1,-1,-1
1533863977214636,-3,0,-1,-9,0,0,-1,-1
1533863977214636,1,-1,1,7,12,2,-1,0
1533863977227601,1,0,-1,1,-2,-3,-2,-1
1533863977227601,1,0,-4,-4,3,0,2,0
1533863977228607,-1,-1,-3,0,-1,2,-1,-2
1533863977228607,-2,0,-2,-4,0,-1,-1,-2
1533863977242563,1,-3,3,5,1,-1,-1,-1
1533863977242563,-3,-1,-4,-9,-2,-2,-4,-4
1533863977250540,0,-1,0,-1,0,0,0,1
1533863977250540,-2,-2,-1,-6,-4,0,1,-1
1533863977265506,-3,-1,-2,1,-2,-1,0,1
1533863977265506,-1,1,3,8,8,5,0,-1
1533863977266499,-2,-1,0,4,10,-3,-3,-2
1533863977266499,-1,0,-1,-10,-17,-3,-1,0
1533863977288473,-1,-1,-5,-5,-7,0,-2,-4
1533863977288473,-2,-2,1,-2,-8,-1,1,2
1533863977289436,1,-2,0,-1,1,2,-1,0
1533863977289436,0,-1,1,1,4,-2,0,0
1533863977302525,1,0,2,-2,9,0,-3,-2
1533863977302525,-1,-1,-6,6,3,-2,-3,-2
1533863977310578,-3,-4,-8,-3,-6,-4,-3,-2
1533863977310578,0,-3,-3,5,0,0,1,0
1533863977325343,-1,2,-2,-3,0,-1,2,-2
1533863977325343,2,-2,1,-5,2,1,-1,-2
1533863977326337,-1,2,2,2,-5,-2,1,1
1533863977326337,-1,1,-2,-2,0,-2,-4,-1
1533863977348282,-2,-3,-4,-2,-3,0,-2,-2
1533863977348282,0,-3,-3,0,6,-2,-1,-2
1533863977348282,-2,-3,-2,-3,-8,-2,0,-4
1533863977348282,0,0,0,-1,10,1,-3,-1
1533863977362248,-2,3,-1,-5,-18,-4,-1,-1
1533863977362248,-2,1,-1,6,-4,-1,-2,0
1533863977370219,1,-1,1,-14,3,1,0,0
1533863977370219,-5,-3,-4,2,-12,-5,-4,-3
1533863977386178,0,0,0,2,11,1,0,-1
1533863977386178,-1,0,1,-1,6,-1,1,1
1533863977386178,-3,-1,-3,3,-9,-3,-2,-1
1533863977386178,1,1,0,-11,-3,2,-1,-2
1533863977408121,1,-1,-1,7,1,2,3,2
1533863977408121,-2,0,-1,-3,-3,-2,0,0
1533863977409116,1,1,0,8,4,-1,-2,-1
1533863977409116,-2,-4,-4,-14,-1,-1,0,-2
1533863977422081,0,-2,-1,0,-4,-2,-3,-1
1533863977422081,0,-1,-1,-3,-1,0,-2,-2
1533863977430059,-1,-1,0,1,2,-2,-2,-2
1533863977430059,0,-1,-2,3,0,-1,-2,-2
1533863977446016,0,-2,0,-1,0,-2,-2,-1
1533863977446016,-2,-1,-2,-4,-7,-4,-3,-2
1533863977446016,-2,-1,-2,1,-1,0,-3,-3
1533863977446016,-1,1,2,1,3,2,1,1
1533863977468202,-4,-3,-1,-1,8,-3,-2,-2
1533863977468202,-2,-4,-4,4,4,-2,-3,-1
1533863977469026,0,0,0,0,0,2,-1,-1
1533863977469026,-1,0,-3,-4,-14,-2,1,-1
1533863977482027,-3,-5,-5,-6,-13,-4,-2,-1
1533863977482027,-1,-1,-2,-4,-6,2,0,-2
1533863977491003,-1,-2,1,0,8,2,0,-1
1533863977491003,0,-1,-1,0,9,1,0,0
1533863977505965,1,1,2,0,3,1,-2,1
1533863977505965,-1,-2,-3,0,1,-1,1,0
1533863977505965,-1,-1,-4,-2,-3,-5,-1,0
1533863977505965,-2,-1,3,0,-1,-2,-1,-3
1533863977527906,-1,0,-1,2,-3,-2,-1,-3
1533863977527906,1,-1,-2,-3,1,-1,-2,0
1533863977528900,-1,1,-3,-4,-6,-3,1,1
1533863977528900,-2,-2,-1,1,-4,-3,-3,0
1533863977551839,-1,0,0,-6,8,3,0,-3
1533863977551839,0,-1,2,3,7,-1,-1,-2
1533863977551839,-3,-5,-7,-6,-27,-9,-4,-4
1533863977551839,-1,0,-1,1,1,1,-2,0
1533863977565805,0,0,-4,1,9,5,2,1
1533863977565805,-4,-2,-4,-11,-19,-2,-4,1
1533863977566800,0,-1,-1,-1,6,-2,-1,-1
1533863977566800,0,-1,-4,-2,-2,-8,-3,-6
1533863977587751,2,0,-3,-1,0,-3,-2,-1
1533863977587751,-1,2,2,4,2,0,3,0
1533863977588741,-1,-4,-3,0,2,2,2,1
1533863977588741,-3,-2,-1,-1,4,3,-1,1
1533863977611682,-1,0,1,-2,-5,1,-4,-3
1533863977611682,-2,-1,1,1,0,-1,-2,-2
1533863977611682,-2,-1,-4,-6,-7,-2,-3,-5
1533863977611682,-1,0,-3,-1,7,-3,-3,-4
1533863977625645,-1,-1,-4,-1,-5,0,0,-2
1533863977625645,-1,-1,-3,0,-4,-1,1,2
1533863977626651,-1,-1,5,2,5,-1,-2,0
1533863977626651,0,-1,5,-3,-4,2,4,1
1533863977648584,-5,-3,-7,-2,-3,-6,-1,0
1533863977648584,-1,3,-2,-7,-8,-5,-2,-1
1533863977648584,-2,-2,-7,-4,-11,-8,-9,-5
1533863977648584,0,-3,1,2,15,-1,7,-1
1533863977671523,3,-2,4,-5,-14,2,4,4
1533863977671523,-1,-3,-3,0,5,9,1,1
1533863977671523,-1,1,2,0,6,1,-1,-1
1533863977671523,-2,0,-8,-7,-10,-6,-8,-3
1533863977685499,-4,-3,-2,0,4,-7,-3,-3
1533863977685499,-2,-2,0,3,0,-4,-2,-4
1533863977686491,0,0,-1,1,0,-2,-4,-3
1533863977686491,1,-1,1,4,13,4,1,3
1533863977708424,-2,2,3,-9,-22,-9,2,2
1533863977708424,-1,-1,-1,-5,0,6,2,-1
1533863977708424,-2,-3,1,2,0,-8,-10,-4
1533863977708424,-2,0,-3,4,6,3,-2,-3
1533863977731362,0,0,0,3,6,8,3,4
1533863977731362,-1,0,-1,0,-2,3,6,-1
1533863977732356,-2,4,2,2,-4,3,11,6
1533863977732356,-2,-2,-6,0,-3,-5,-4,1
1533863977745360,-1,1,1,-2,6,-6,-9,-4
1533863977745360,-2,3,12,6,8,3,-7,-3
1533863977746319,-3,-6,6,-5,-13,-4,1,-3
1533863977746319,-2,-8,-10,-2,-19,-10,-8,-4
1533863977768264,0,-3,-10,-3,1,-1,-4,-5
1533863977768264,3,-2,-6,1,19,1,-1,0
1533863977769257,0,3,-19,-3,-13,-3,1,-1
1533863977769257,-2,-1,12,-5,-14,-9,-15,-5
1533863977791198,-1,0,-18,-1,4,5,14,5
1533863977791198,-2,8,41,4,1,8,0,-3
1533863977792196,0,-3,-1,-2,-3,-1,10,3
1533863977792196,-1,1,3,5,-4,1,-8,-2
1533863977805374,1,-3,0,3,-2,-6,-2,-4
1533863977805374,-1,1,-9,1,2,4,1,3
1533863977806169,-2,-2,-1,-3,10,9,-1,1
1533863977806169,-1,2,8,2,-1,-4,1,-1
1533863977828100,0,2,4,-2,3,-6,-7,-3
1533863977828100,-3,-3,-68,-10,-17,-14,-2,-5
1533863977829102,3,3,82,10,28,-3,-4,-2
1533863977829102,-1,-1,-18,-12,-39,10,6,3
1533863977851205,-2,-4,21,3,1,1,-2,1
1533863977851205,0,-3,5,-7,-8,-5,1,0
1533863977852036,-1,-2,-27,2,2,-3,-4,-1
1533863977852036,0,-2,-28,-7,16,-4,-1,1
1533863977866002,-3,1,-7,-5,-1,0,-3,-2
1533863977866002,-2,-8,-7,-9,-10,-21,-16,-9
1533863977866002,1,-1,-6,-2,8,5,6,1
1533863977866002,-1,1,13,10,4,17,-2,3
1533863977887944,-1,0,-11,-6,-2,5,7,3
1533863977887944,-1,-1,1,1,5,-1,-4,1
1533863977888938,-4,0,5,0,-5,-2,-2,-4
1533863977888938,-3,-3,-14,-3,-1,-8,-1,-4
1533863977911876,1,-5,-11,-3,-1,-3,-4,-3
1533863977911876,0,-1,-4,3,-3,-5,1,0
1533863977911876,5,0,27,-3,-2,-2,-1,2
1533863977911876,0,0,1,0,11,0,4,-1
1533863977926010,-5,-5,6,-2,-19,2,-3,-3
1533863977926010,-2,3,11,1,-1,-2,3,0
1533863977926010,-2,-4,-10,-2,-5,3,-2,0
1533863977926010,0,-2,-3,1,6,-5,-1,0
1533863977947784,1,0,0,2,3,-3,-2,-1
1533863977947784,-2,-9,-4,2,11,5,-1,-2
1533863977948777,-2,1,-20,-8,-19,0,-2,-1
1533863977948777,-3,3,-8,-5,-4,-5,2,-1
1533863977970718,2,3,71,8,0,-2,-2,-1
1533863977970718,0,-2,-5,0,-4,1,1,2
1533863977971715,0,4,34,5,7,-1,-2,-1
1533863977971715,0,-2,17,0,-3,-3,4,0
1533863977985682,-1,1,-26,-1,-4,-3,-5,-5
1533863977985682,-1,4,1,-3,5,-1,0,0
1533863977986676,2,-4,7,3,-1,-3,1,0
1533863977986676,-5,-16,-14,0,-4,-3,-5,-5
1533863978007623,-1,-5,-22,-4,9,1,1,1
1533863978007623,0,-2,25,3,10,-4,-5,-3
1533863978008631,-4,-3,-47,-15,-39,2,6,2
1533863978008631,-1,3,-5,9,17,6,2,1
1533863978031578,-4,-2,-8,-6,-13,7,4,2
1533863978031578,-1,-2,7,1,0,-10,-3,-2
1533863978032554,-3,-2,-13,-4,12,1,-3,-3
1533863978032554,2,2,7,1,-2,-2,-2,-1
1533863978045518,-1,-1,-3,4,8,-3,-3,-2
1533863978045518,-3,1,-3,0,0,0,-2,0
1533863978046516,-1,-2,11,0,2,-2,-4,-2
1533863978046516,-3,-3,10,-5,-12,-4,3,-2
1533863978068466,-2,9,-30,1,8,-2,-6,-3
1533863978068466,-4,-1,-22,-10,-12,0,-4,-3
1533863978068466,0,-13,20,9,9,-4,-5,-1
1533863978068466,2,6,13,-6,-7,-18,-22,-6
1533863978091408,6,-15,-9,-5,-4,-10,16,12
1533863978091408,2,-5,-13,1,-1,40,13,3
1533863978092402,-6,-9,-19,-2,6,11,12,2
1533863978092402,0,12,1,1,0,-3,3,1
1533863978105377,-5,-3,16,2,-9,-17,-13,-8
1533863978105377,4,3,0,-4,-11,-14,-4,-3
1533863978106381,-1,2,-14,-1,10,-8,-14,3
1533863978106381,0,6,8,1,13,30,9,3
1533863978128362,-1,7,5,-3,-4,-2,-6,-6
1533863978128362,-7,-3,0,-5,-14,-8,5,1
1533863978128362,-1,-4,-21,-2,-6,-6,-5,-3
1533863978128362,-3,-6,8,-16,2,-13,-2,-6
1533863978151306,1,16,-2,13,25,10,0,-1
1533863978151306,0,-36,-19,-6,-5,2,-3,-3
1533863978152295,-2,9,0,-3,-27,-9,2,2
1533863978152295,0,-1,-14,-1,-2,-1,0,1
1533863978165273,-5,0,7,-2,-2,5,0,-4
1533863978165273,-1,4,12,2,8,-8,-3,-3
1533863978173238,0,-7,-19,1,10,-4,-6,-2
1533863978173238,-1,0,-3,1,-2,3,6,3
1533863978188198,0,-1,4,0,-2,-2,-4,-3
1533863978188198,2,6,4,3,0,-5,-2,1
1533863978189195,1,5,8,-4,7,9,0,1
1533863978189195,-2,-3,-7,0,-7,-1,1,3
1533863978211140,-4,-11,-6,-6,-7,-3,-2,-1
1533863978211140,3,5,0,0,-1,-7,-4,0
1533863978212135,-3,-5,-8,-5,4,1,-1,-6
1533863978212135,0,-2,7,2,5,0,-1,-2
1533863978225299,-1,-6,-10,-5,-22,-5,-3,1
1533863978225299,-2,0,-1,0,0,2,0,0
1533863978233082,1,5,0,-5,-7,-3,-1,-3
1533863978233082,0,-5,2,6,-1,-6,-3,-1
1533863978248223,-1,-7,0,-6,6,4,-1,-3
1533863978248223,1,3,5,-2,-3,-1,0,-3
1533863978249035,-1,2,-4,0,-4,-5,-4,-2
1533863978249035,-2,-3,-9,-3,1,3,1,-3
1533863978271158,1,5,5,-1,-6,-2,-3,4
1533863978271158,-3,7,15,2,1,1,-1,1
1533863978271978,-2,-11,-20,1,5,-1,-1,-1
1533863978271978,-1,-8,-1,-1,-8,-3,0,-2
1533863978284943,-1,-2,-5,2,2,-2,-3,-3
1533863978284943,0,2,-2,-1,1,-1,0,-2
1533863978292937,1,6,10,2,7,3,1,0
1533863978292937,-2,-6,-15,-5,-16,0,0,2
1533863978307878,-5,-7,-1,-2,0,-1,0,-2
1533863978307878,1,-2,-7,-6,-4,-6,-4,-1
1533863978308908,-2,3,1,8,-2,-2,-3,-6
1533863978308908,1,0,3,-5,15,-3,-2,-3
1533863978330831,-1,1,-4,-8,-20,-1,-1,2
1533863978330831,-2,-2,7,3,-1,2,-2,1
1533863978331829,0,4,-3,-5,5,0,-1,-1
1533863978331829,-2,5,-5,0,-18,-2,0,4
1533863978344783,-1,-24,10,3,1,-1,-3,-1
1533863978344783,0,-12,-22,-5,3,-5,-1,0
1533863978352758,3,-2,-7,-1,-5,-1,-1,-1
1533863978352758,-1,0,0,1,10,2,3,-3
1533863978367722,2,11,-4,1,2,5,3,1
1533863978367722,-7,1,6,1,-4,-1,-1,-3
1533863978368715,1,-6,3,1,7,-2,-1,-1
1533863978368715,0,-3,-1,-1,-5,-4,-2,0
1533863978390656,1,3,2,0,4,-1,0,-2
1533863978390656,1,-1,1,0,7,0,-1,-1
1533863978391653,-3,2,1,-2,-10,-4,0,-3
1533863978391653,-2,6,6,-1,0,2,-2,-1
1533863978404623,0,-17,-20,1,12,1,-4,-4
1533863978404623,0,-1,4,-1,18,5,1,1
1533863978413596,-2,4,-3,-6,-26,-6,-1,-1
1533863978413596,-3,-9,10,-5,-25,2,0,-1
1533863978427565,-1,4,-9,4,16,2,0,-4
1533863978427565,-2,-15,-8,-7,-15,-4,-2,-1
1533863978436533,-2,2,5,2,24,3,-1,-2
1533863978436533,-2,-9,-9,3,-3,-1,1,-2
1533863978451497,-1,6,4,-2,-11,-5,-1,-1
1533863978451497,1,6,0,4,7,1,1,0
1533863978452491,-2,0,9,6,6,4,0,1
1533863978452491,-3,-4,-4,-3,-4,-5,-6,-4
1533863978464464,1,2,-2,-3,5,1,-1,-5
1533863978464464,-1,0,-2,-2,-9,-3,-1,0
1533863978473439,-2,0,-1,-3,-8,-3,0,0
1533863978473439,0,6,1,2,6,0,-1,0
1533863978487496,-1,-2,1,-1,-4,-1,0,3
1533863978487496,1,1,-2,-2,-4,-4,-1,-2
1533863978496487,-1,-1,-1,-2,-5,1,0,-2
1533863978496487,1,1,-1,2,26,0,-2,-3
1533863978511433,-1,-2,-1,1,-6,-10,-4,-3
1533863978511433,-2,3,1,-3,-18,-2,0,-1
1533863978512430,-4,-7,-6,-10,-25,-3,-1,-7
1533863978512430,-1,-1,3,-1,8,13,7,5
1533863978533377,-1,11,3,3,10,2,-3,0
1533863978533377,-1,2,-7,1,9,0,0,0
1533863978535369,-3,-22,-4,-4,-3,-5,-6,-6
1533863978535369,-1,4,-8,-2,-4,-5,-4,-5
1533863978547337,-3,-1,7,-1,3,0,0,-2
1533863978547337,1,7,2,0,-11,-7,-3,-2
1533863978556318,-3,0,-5,-1,9,4,2,1
1533863978556318,0,-4,0,-2,-6,-5,-4,0
1533863978571275,-1,4,-3,-3,-1,0,0,-2
1533863978571275,-4,-7,4,-2,-2,-2,-3,-4
1533863978573273,0,2,-2,1,2,0,-1,0
1533863978573273,-3,5,-1,-1,-3,-2,-1,-2
1533863978601395,-3,-16,-7,-2,-8,-2,0,-1
1533863978601395,0,-1,4,-1,1,1,0,0
1533863978603187,2,2,1,3,8,2,0,0
1533863978603187,1,1,-2,-1,-7,-5,-2,-2
1533863978607379,-3,-2,1,-1,3,-2,-1,0
1533863978607379,-1,-4,-9,-1,-4,-1,-2,-2
1533863978616206,0,0,-4,-1,-1,1,1,1
1533863978616206,-1,-4,5,-1,-1,0,1,-1
1533863978631327,-2,-2,-1,1,-2,-3,-2,-1
1533863978631327,-3,1,1,-5,7,4,-2,-2
1533863978633128,-1,-1,2,2,0,-1,0,1
1533863978633128,0,-10,-13,-2,0,-4,-1,0
1533863978654052,2,4,7,0,-6,5,2,-1
1533863978654052,-3,-9,-6,-1,6,-5,-1,1
1533863978655048,-2,7,9,2,6,6,0,0
1533863978655048,-3,-2,-2,-1,-5,-3,-1,-1
1533863978668022,-3,-12,-3,-3,-1,-2,-4,-2
1533863978668022,-1,-3,-1,-1,-2,-2,-3,-3
1533863978675160,-1,2,-3,-8,-7,-2,-1,-2
1533863978675160,-1,-4,0,1,5,-1,0,-1
1533863978690952,-3,10,-1,-2,-5,-1,0,0
1533863978690952,-3,10,3,1,-9,-3,-1,-3
1533863978692946,-2,-18,8,-5,-8,-13,-6,-2
1533863978692946,2,-6,-25,-4,-4,7,-1,-1
1533863978713902,-3,1,-4,-3,1,-11,-6,-6
1533863978713902,1,-3,-2,0,10,16,11,6
1533863978714888,0,-13,-4,-1,-15,18,8,2
1533863978714888,-3,-2,3,2,6,-9,-2,-2
1533863978728025,1,-1,14,-2,-6,-4,-2,-1
1533863978728025,-2,-9,-18,-2,-10,-14,-7,-6
1533863978735835,-1,5,-4,0,6,-7,-4,-3
1533863978735835,0,4,4,0,-6,0,-3,2
1533863978750795,-1,-1,0,-2,-3,-1,-2,-2
1533863978750795,-1,0,3,-1,0,-1,-1,-1
1533863978752789,-1,3,-4,-2,3,2,0,-1
1533863978752789,0,4,2,1,2,-1,-2,-2
1533863978773855,0,0,-3,0,-3,2,1,0
1533863978773855,-2,1,9,-2,-3,-1,-1,-1
1533863978775726,-2,-5,-10,2,11,-3,0,-2
1533863978775726,-4,-18,-6,-3,3,0,-2,-1
1533863978787899,-1,-2,4,-1,-9,1,0,1
1533863978787899,1,-6,-12,-2,-2,2,-1,0
1533863978796669,-1,5,1,0,-5,-4,-2,-1
1533863978796669,-1,5,8,2,3,-2,-2,-2
1533863978811630,0,-2,-3,0,4,2,-1,-1
1533863978811630,0,7,7,3,-4,0,-1,-1
1533863978812628,-2,3,-2,3,5,-4,-4,0
1533863978812628,-1,-4,0,-5,-6,-5,-1,-2
1533863978833574,-1,-5,-13,0,2,7,2,-1
1533863978833574,-2,-1,0,-5,-9,-7,-2,-4
1533863978835565,0,1,-2,-2,2,-2,0,-1
1533863978835565,-1,11,3,-1,-7,-2,-2,-1
1533863978847558,-1,-15,-2,1,3,0,-1,-1
1533863978847558,-1,-3,-6,0,-2,-3,-1,-3
1533863978856513,5,0,1,2,14,3,-1,-1
1533863978856513,0,7,7,-6,-14,6,3,2
1533863978878470,-5,-12,23,-7,-9,-9,-4,-2
1533863978878470,-3,-12,-36,-4,5,-1,-2,-1
1533863978880449,0,-1,-4,3,-3,5,1,1
1533863978880449,0,2,-2,1,6,0,0,-1
1533863978893425,-1,11,3,2,1,1,-2,-1
1533863978893425,-1,-2,19,4,-2,-4,-4,0
1533863978895413,-4,-5,-11,-17,-10,-9,-4,-3
1533863978895413,0,-2,-1,0,2,0,-1,-1
1533863978907377,1,3,-6,-4,-3,-1,1,0
1533863978907377,0,-2,7,2,-1,0,-2,-1
1533863978916362,0,4,-3,2,1,0,-1,0
1533863978916362,-2,-5,3,0,-5,-4,-2,-1
1533863978931527,-1,-2,-6,-2,-4,-4,-2,-2
1533863978931527,0,3,-2,-1,3,4,0,0
1533863978933303,-2,-1,5,-1,-3,-3,0,-3
1533863978933303,0,-5,2,0,8,-1,-2,-1
1533863978954248,1,8,-4,3,4,-1,0,2
1533863978954248,-1,3,3,-4,-2,1,0,0
1533863978955245,-6,-13,-5,-4,-10,-5,-4,-3
1533863978955245,-1,-5,-10,-2,-1,-3,-3,-3
1533863978967212,2,1,-4,1,5,-1,-1,0
1533863978967212,0,2,4,-1,6,0,1,0
1533863978976252,5,0,0,1,4,5,-4,-1
1533863978976252,-6,-1,-7,-1,-1,-8,-2,-4
1533863978991150,1,0,-3,-3,-19,0,-6,2
1533863978991150,0,1,10,-2,1,-2,6,3
1533863978993145,1,-4,0,9,10,2,4,1
1533863978993145,1,1,-5,-1,-3,10,2,2
1533863979014091,-3,-3,-10,-8,-13,-5,1,-2
1533863979014091,-3,-3,-2,-5,-9,-8,-8,-2
1533863979015087,-1,4,0,-3,-12,-11,-5,-1
1533863979015087,-1,-3,2,2,8,1,-1,0
1533863979027058,-2,-1,-3,0,9,4,5,-3
1533863979027058,0,0,-1,5,1,3,0,-2
1533863979036034,-1,0,-4,-10,3,-2,0,-1
1533863979036034,-2,-1,2,-2,-3,-6,-2,-2
1533863979050990,-1,0,1,-1,2,-1,-2,-3
1533863979050990,0,-1,1,2,-4,-1,0,-3
1533863979053002,-2,-1,1,1,-3,0,-1,-1
1533863979053002,-2,1,-1,-2,-6,-4,-2,-1
1533863979074140,0,-1,0,1,1,-1,1,-1
1533863979074140,-3,-1,-1,0,4,1,-1,-2
1533863979074953,-2,2,0,1,-7,-4,-2,-3
1533863979074953,-1,-2,2,-3,-5,-1,-1,-2
1533863979087915,0,-5,-3,0,7,0,0,-1
1533863979087915,0,0,0,1,0,2,2,1
1533863979095869,0,-3,2,-1,0,1,-4,0
1533863979095869,-3,-4,-6,-3,-6,-5,1,-3
1533863979110832,0,-1,-6,-2,2,4,2,-1
1533863979110832,-3,0,-2,-3,-4,-1,-1,-1
1533863979117810,-5,1,1,0,-4,-1,-2,-1
1533863979117810,2,1,3,0,10,-2,-5,-4
1533863979133771,-2,-1,-1,-2,-10,-4,-1,-1
1533863979133771,-2,-3,-3,-3,-2,-2,-2,-1
1533863979135768,-1,1,0,1,-2,-1,-1,-1
1533863979135768,-2,-1,-1,-1,0,-2,-3,-1
1533863979156711,-3,0,-1,-1,5,-2,-2,-2
1533863979156711,0,-3,-3,2,-2,-2,-4,-2
1533863979157704,0,-1,1,8,29,-1,-2,-1
1533863979157704,-4,-2,-6,-15,-40,0,1,2
1533863979171666,-1,1,1,1,-1,4,1,3
1533863979171666,-2,-1,-1,2,-5,3,0,-2
1533863979172663,-2,-3,-1,0,0,-6,-2,-2
1533863979172663,0,-2,-2,4,6,2,-3,-4
1533863979193820,0,1,0,0,3,-3,-3,-1
1533863979193820,-1,-5,-2,-7,-3,1,-2,0
1533863979195630,0,1,-2,0,-2,3,1,1
1533863979195630,0,0,3,3,-1,-2,0,0
1533863979207570,-1,2,-2,-3,2,-1,1,-2
1533863979207570,-1,-8,3,0,7,-3,-3,-2
1533863979216546,0,-5,-12,-6,-14,-5,-5,-2
1533863979216546,2,-2,-5,1,3,1,0,1
1533863979231509,-1,3,-1,1,-1,0,-1,-3
1533863979231509,-1,5,2,0,9,-1,-3,-2
1533863979232503,-1,-1,0,0,-11,1,0,0
1533863979232503,-3,-4,-1,-7,-10,0,1,-1
1533863979253449,0,-2,-2,-1,0,0,-2,-1
1533863979253449,1,3,-1,-3,-1,4,1,2
1533863979255443,-2,0,0,-5,-7,-1,-1,0
1533863979255443,-1,0,1,2,6,-5,-4,-5
1533863979267474,-1,-4,-3,-2,-1,-4,0,-1
1533863979267474,-4,-3,-4,-2,1,-3,-1,-2
1533863979276386,-1,-1,-1,-2,-1,-1,1,0
1533863979276386,0,5,2,2,3,-1,-2,-1
1533863979290365,-1,-7,-5,-2,0,-1,-2,0
1533863979290365,-1,-3,-1,-3,-5,-4,-3,-2
1533863979297338,-1,1,-3,-2,0,2,1,-1
1533863979297338,0,-2,1,0,1,1,-2,-2
1533863979313304,1,2,2,1,0,0,0,0
1533863979313304,2,-1,0,-1,-5,0,1,0
1533863979315296,-1,11,0,-1,-1,0,2,0
1533863979315296,-2,-9,-5,-1,1,-2,0,0
1533863979327292,1,0,-1,-2,-2,-1,-7,-2
1533863979327292,-2,0,2,2,5,-2,0,-1
1533863979336233,-1,1,3,1,-9,-8,-2,-2
1533863979336233,-4,0,-4,-7,-13,2,2,1
1533863979350296,-2,0,2,2,-3,-1,0,1
1533863979350296,-2,-3,-6,-6,-2,3,-1,1
1533863979357190,-4,-10,-4,0,11,2,-1,1
1533863979357190,1,2,2,1,6,0,-2,-2
1533863979374128,-2,-4,-2,-3,-6,-1,1,-3
1533863979374128,0,3,1,4,1,-2,-1,-1
1533863979375138,0,-2,0,-3,-4,-5,-2,-3
1533863979375138,-2,-7,-5,2,2,-1,-1,0
1533863979387091,0,1,3,-2,0,0,0,0
1533863979387091,-2,-1,-6,0,-4,-5,-6,-5
1533863979396067,-1,-1,-2,-8,-3,0,0,2
1533863979396067,0,-2,-2,2,6,1,-2,0
1533863979411027,-2,2,-3,3,6,0,0,1
1533863979411027,-2,2,-1,-2,-17,-8,2,1
1533863979417010,-6,-5,-1,-8,-25,-1,1,-3
1533863979417010,1,4,4,3,21,-2,-5,-4
1533863979433967,-4,-7,-5,-7,-21,-8,-3,-2
1533863979433967,-1,2,-1,2,23,7,2,1
1533863979435994,0,0,3,1,-22,-3,0,1
1533863979435994,-3,-2,-6,-6,-13,-6,-2,-2
1533863979455906,-1,-5,-3,1,10,-1,-2,-3
1533863979455906,-3,-3,0,2,-6,-3,-2,-3
1533863979457934,-1,1,1,4,14,2,1,1
1533863979457934,-1,-6,-7,-1,2,0,0,-1
1533863979470866,-1,3,1,-2,-4,-2,-1,-2
1533863979470866,-1,-2,-1,-2,-4,-2,-2,-1
1533863979477851,-1,-2,-1,2,9,2,-3,-2
1533863979477851,0,4,4,1,-6,1,1,-1
1533863979493976,-1,0,-3,-2,9,0,-3,-3
1533863979493976,-1,-5,-3,-2,-15,-4,-1,-1
1533863979495799,1,1,1,0,6,3,0,-1
1533863979495799,-1,-1,2,-3,-3,-5,-1,1
1533863979516744,0,-3,-2,-2,6,1,1,-1
1533863979516744,0,1,-1,3,9,1,-1,-2
1533863979517741,-1,-4,-5,-2,-13,-4,-2,-3
1533863979517741,0,-1,0,-2,-6,-5,-3,-3
1533863979530734,3,2,0,1,5,6,1,3
1533863979530734,1,5,3,-4,-6,0,1,1
1533863979537698,-6,-8,-5,-1,8,3,-1,-3
1533863979537698,0,2,-2,-1,0,-1,0,-1
1533863979553644,-1,-3,-3,-1,-5,-4,-2,-5
1533863979553644,0,-12,-4,-5,-2,0,-2,-1
1533863979555639,0,1,-1,0,13,-5,-2,-2
1533863979555639,2,6,4,-2,-9,0,0,0
1533863979576585,-2,11,0,-1,-3,-2,-2,0
1533863979576585,-2,-12,-6,-3,2,0,-1,-1
1533863979577593,0,-2,-2,-2,-8,-2,-3,-2
1533863979577593,-1,-4,1,1,3,0,-1,0
1533863979589552,-1,4,3,-1,5,6,1,2
1533863979589552,-3,1,0,-1,-3,-1,-1,-1
1533863979598757,-2,-1,-1,1,3,0,0,-2
1533863979598757,-1,2,0,-1,-3,-2,-1,-1
1533863979613550,-1,-7,-3,-2,-8,-5,-2,-3
1533863979613550,-2,3,0,2,-3,-2,-3,0
1533863979615545,-1,-1,0,-2,1,2,-2,-1
1533863979615545,-1,1,5,0,3,2,2,1
1533863979636488,-3,-12,-10,-2,-3,-1,-3,-2
1533863979636488,-1,-3,-4,-1,-2,-1,1,-3
1533863979637502,-2,-1,-1,-3,-7,-3,-1,0
1533863979637502,-1,-4,-3,-3,-1,0,0,-1
1533863979649454,-1,13,1,2,-2,-5,-1,-4
1533863979649454,1,9,1,-3,0,-1,-1,-2
1533863979658431,3,2,3,2,-7,-4,0,3
1533863979658431,-4,-3,-3,-2,10,1,-1,-4
1533863979673425,-1,-13,-5,-2,-5,-1,0,0
1533863979673425,0,-4,-6,-2,-11,-1,-1,0
1533863979675384,0,0,-1,0,5,1,-1,-3
1533863979675384,-1,2,1,-2,-3,-2,-1,-1
1533863979696330,-1,3,1,1,5,-1,0,0
1533863979696330,-2,-8,-1,-2,1,0,0,-2
1533863979698342,-1,0,3,0,0,0,1,-1
1533863979698342,-1,0,-7,-3,-2,-1,-1,-1
1533863979710296,-3,7,-1,-1,-2,-1,-3,-2
1533863979710296,-3,-12,9,0,-2,-4,-4,-5
1533863979719269,-2,3,-12,-4,-4,-2,0,-1
1533863979719269,4,-7,-4,0,-2,-2,-1,3
1533863979734231,-1,4,2,0,2,3,4,1
1533863979734231,1,7,2,0,6,10,3,3
1533863979735226,-4,-4,1,-3,-2,2,-2,-3
1533863979735226,-2,-7,-4,0,-2,-4,-3,-2
1533863979756172,-1,-10,-4,-4,-6,-8,-1,-4
1533863979756172,-1,2,-2,-2,-5,-4,-4,-2
1533863979758164,-1,-5,-45,-5,-2,-1,-1,-2
1533863979758164,-2,1,10,0,0,0,-2,-1
1533863979770135,-1,-3,-2,0,2,-1,-2,-3
1533863979770135,0,6,32,1,-6,-6,2,0
1533863979779107,-2,2,3,-2,3,3,-3,-1
1533863979779107,-3,-1,6,-3,-1,-2,-3,-3
1533863979801052,-2,2,-54,-5,-5,-1,-2,-1
1533863979801052,0,4,67,12,6,3,0,0
1533863979803044,0,-4,54,7,-2,-1,0,-1
1533863979803044,-3,2,14,0,-3,0,0,-2
1533863979816150,-3,-2,6,2,1,1,0,2
1533863979816150,-3,-17,-27,-6,-2,-2,-3,-3
1533863979818031,-2,-7,-52,-6,1,-2,-2,-3
1533863979818031,4,13,56,8,0,-1,-4,0
1533863979829971,4,-2,-60,-7,2,-4,-4,-3
1533863979829971,0,14,52,-1,4,-1,4,-1
1533863979839026,-6,-26,79,9,-12,-5,3,7
1533863979839026,-5,-10,-25,-9,-3,6,2,0
1533863979854205,-1,0,101,16,-16,-2,0,2
1533863979854205,-2,1,-39,-9,-4,-4,-3,0
1533863979855078,-1,2,-35,0,7,2,-6,-4
1533863979855078,-3,2,9,4,-2,-2,-1,-1
1533863979876025,5,6,-6,-13,10,2,-3,-1
1533863979876025,-2,-5,-41,-8,-10,-6,-3,0
1533863979878035,2,8,13,3,8,0,0,-1
1533863979878035,-3,-11,-50,7,-6,-5,-2,-3
1533863979890016,-1,2,3,-8,3,-1,-2,-1
1533863979890016,0,3,-17,-23,-3,-1,0,1
1533863979898961,-2,-1,-19,-4,0,-3,0,0
1533863979898961,1,4,-4,-2,5,-1,-2,0
1533863979913920,-3,-7,8,11,-1,0,-1,-1
1533863979913920,-1,-8,-5,5,-1,1,-2,-1
1533863979914918,0,1,2,-2,-2,1,-1,-2
1533863979914918,1,0,-1,5,20,0,-3,-3
1533863979935861,-3,-1,4,-7,-39,-8,1,1
1533863979935861,-1,0,-20,7,24,9,1,-1
1533863979937856,-3,3,-8,-10,-14,-1,-4,-1
1533863979937856,-2,-2,-1,-6,-4,-3,0,1
1533863979949967,-1,-7,-8,-3,5,-2,0,-3
1533863979949967,4,2,-2,11,-9,-8,-7,-3
1533863979958802,2,0,-2,-6,-19,1,-3,1
1533863979958802,-2,0,7,3,4,8,5,4
1533863979973966,-8,-6,-40,-23,-10,-4,-5,-2
1533863979973966,-1,1,3,13,-2,-3,-3,-2
1533863979975755,1,0,-40,0,13,-2,-3,-1
1533863979975755,-1,4,49,-8,-7,-3,-2,-1
1533863979995702,-1,-2,13,34,6,0,1,0
1533863979995702,-3,-15,-74,-27,-4,-6,-3,-2
1533863979997704,2,-5,6,-29,1,-4,-2,-3
1533863979997704,2,18,-47,10,2,-1,-1,-2
1533863980009703,1,-3,34,-12,2,2,2,-1
1533863980009703,-10,-26,7,13,-5,0,0,0
1533863980018672,-4,-4,15,9,4,0,8,18
1533863980018672,-3,-8,-64,-8,-3,-1,-11,-26
1533863980033604,9,6,11,2,2,-2,-4,1
1533863980033604,-1,3,-84,-9,-2,1,-4,-6
1533863980035594,-8,5,33,2,1,2,16,41
1533863980035594,3,-13,-21,-5,-4,-2,-13,-26
1533863980056705,-18,-2,34,2,2,-2,-5,-17
1533863980056705,0,13,29,-6,0,-1,-3,-12
1533863980057535,-4,1,-7,10,3,-2,-4,-6
1533863980057535,1,-4,11,-2,-6,-2,6,15
1533863980070542,2,-4,-10,3,8,5,2,7
1533863980070542,4,6,19,1,-1,0,9,13
1533863980078481,-4,2,5,2,0,-1,-6,-12
1533863980078481,-2,-2,-2,0,-1,-2,-2,-5
1533863980093445,0,-5,-19,-7,0,-3,-6,-12
1533863980093445,-2,3,24,5,1,1,1,6
1533863980095451,8,1,-6,1,-2,-1,-1,-3
1533863980095451,-2,-7,14,-7,-3,-1,2,0
1533863980116385,0,1,-11,-3,1,1,2,12
1533863980116385,-1,-3,70,6,6,1,3,5
1533863980118376,-2,-2,-3,-6,-18,-4,-3,-13
1533863980118376,-2,-3,1,2,-2,-7,0,5
1533863980129344,1,-2,-5,-24,-5,0,-3,-5
1533863980129344,0,-2,-14,-4,-8,3,-2,10
1533863980139317,0,3,-6,4,3,-1,-1,-21
1533863980139317,0,2,15,-1,-4,1,5,9
1533863980154277,2,-1,-6,9,3,-5,-3,4
1533863980154277,1,5,-2,0,23,-2,-10,-10
1533863980155274,-2,-3,-8,-7,-21,-7,-2,0
1533863980155274,-2,-12,-6,-6,-26,2,7,5
1533863980176221,-1,2,-3,5,-13,-6,-1,-5
1533863980176221,0,-3,-3,9,12,2,-4,-8
1533863980178214,1,-5,-6,4,27,-17,-12,-7
1533863980178214,-8,1,-1,-12,2,6,4,4
1533863980190185,2,2,3,1,-20,9,9,2
1533863980190185,-4,1,9,1,-14,-3,2,-8
1533863980199159,0,0,0,4,11,3,-2,8
1533863980199159,0,-1,2,-2,11,-7,-8,-5
1533863980213120,-1,-6,-1,-5,-3,-17,-33,-15
1533863980213120,-11,-8,-9,-6,-4,-9,9,-1
1533863980220103,3,0,-1,-4,2,9,4,-3
1533863980220103,1,4,2,1,-1,-6,-29,-30
1533863980236059,-1,4,6,7,14,19,42,39
1533863980236059,6,8,3,9,15,42,31,12
1533863980238054,-8,-15,-13,-14,-20,-5,7,-1
1533863980238054,-7,11,5,1,12,-20,-8,7
1533863980250021,-3,-19,-6,-1,-2,-10,-23,-20
1533863980250021,1,9,1,-16,-33,-12,-12,-6
1533863980264985,3,15,9,4,-9,9,1,2
1533863980264985,1,-30,-21,8,-9,-1,-3,1
1533863980272963,-3,-2,-7,-4,7,-16,-11,-10
1533863980272963,0,-9,-7,-4,10,-6,6,12
1533863980279942,0,3,1,-9,-10,2,-8,-16
1533863980279942,4,8,5,6,2,-2,0,0
1533863980295906,1,3,-4,-2,4,1,9,24
1533863980295906,-4,-3,1,0,-6,-1,-9,-26
1533863980297894,1,2,1,3,4,-4,-7,-4
1533863980297894,-1,4,4,-1,3,6,9,7
1533863980309873,0,5,1,-4,-1,5,7,2
1533863980309873,0,-5,-4,2,-5,-6,-8,0
1533863980318838,-1,0,0,6,5,-3,-3,3
1533863980318838,1,25,10,-3,1,7,12,3
1533863980332806,-7,-23,0,2,1,1,-3,-6
1533863980332806,0,-13,-26,-6,-1,-9,-8,-1
1533863980339796,-1,-8,-9,-1,12,1,0,-6
1533863980339796,2,0,5,-10,-19,5,5,8
1533863980355739,0,5,-38,-5,-5,-5,-6,-10
1533863980355739,-1,3,22,9,6,2,-2,3
1533863980357734,-3,-9,-2,2,7,1,3,4
1533863980357734,-2,0,5,-1,-10,-5,-4,0
1533863980369704,2,6,4,-1,1,1,-1,-3
1533863980369704,0,0,-3,-5,-6,-6,-5,-5
1533863980378677,1,-1,-7,0,-2,1,-1,0
1533863980378677,-1,-2,6,3,6,-3,0,-1
1533863980393722,-4,-4,7,2,2,3,5,-1
1533863980393722,2,3,-6,2,6,-2,-2,3
1533863980399754,-4,21,13,2,-7,-1,-3,1
1533863980399754,4,-13,-8,-3,1,2,1,1
1533863980416592,-12,-16,0,-5,-3,1,3,8
1533863980416592,1,-13,2,-5,-4,-4,-4,-7
1533863980417577,-5,-5,-16,-2,1,-4,-5,-9
1533863980417577,6,-3,-3,-2,-1,1,-1,0
1533863980438518,-3,8,5,3,-2,-2,-4,-11
1533863980438518,0,5,-1,-4,-2,-2,0,6
1533863980440526,0,-3,4,-2,0,2,2,0
1533863980440526,-3,-3,0,1,4,0,5,3
1533863980453685,8,16,4,0,1,-1,-7,5
1533863980453685,-9,-3,-7,-6,-13,-9,-5,-13
1533863980460505,3,-6,-1,0,-3,-4,-6,-6
1533863980460505,-3,-1,0,-3,3,-1,-1,9
1533863980476502,2,1,2,1,2,-4,4,-13
1533863980476502,6,10,6,3,-4,16,14,26
1533863980477441,-3,-6,0,4,13,15,5,1
1533863980477441,-9,-12,-9,-5,-7,-19,-24,-29
1533863980498361,-2,-10,-7,-2,-4,-15,-5,12
1533863980498361,2,1,6,-3,0,17,20,3
1533863980500352,2,3,1,5,2,19,13,10
1533863980500352,-3,-1,0,3,6,2,6,4
1533863980512336,0,7,4,2,1,-7,-14,-8
1533863980512336,-4,5,-3,3,-1,-21,-19,-9
1533863980521296,-1,2,15,-1,-4,-14,-3,-5
1533863980521296,-3,-27,-7,-8,-10,6,-1,-1
1533863980536255,-2,-10,-15,-9,-26,-15,-10,-4
1533863980536255,-1,4,-2,-5,3,-10,-15,-16
1533863980538251,-5,-3,-1,-3,-1,16,12,-3
1533863980538251,5,17,11,13,28,11,9,13
1533863980559369,-5,-2,1,-10,-18,-2,7,-7
1533863980559369,0,-4,-2,16,9,-2,-1,3
1533863980560192,-1,-2,-3,-3,-13,-16,-11,-3
1533863980560192,-2,1,-7,-15,-4,-5,-3,1
1533863980572160,-1,-2,-1,1,-3,13,6,-3
1533863980572160,0,-3,-6,-9,-7,-7,-7,-2
1533863980581154,3,-2,3,1,3,-8,-4,-1
1533863980581154,2,6,0,3,-1,3,3,-1
1533863980596096,2,-6,-2,9,9,2,-2,-1
1533863980596096,-3,-3,-5,-7,-14,-5,-5,-4
1533863980598092,3,0,-2,4,9,1,6,5
1533863980598092,-3,-11,-4,4,-3,-1,-3,-5
1533863980619034,0,4,18,-2,6,2,2,-2
1533863980619034,-1,0,-4,6,13,0,0,0
1533863980620031,1,-4,-12,-14,-6,-4,-5,-4
1533863980620031,-1,3,-2,-4,-12,1,0,-1
1533863980632438,1,3,3,2,3,4,-3,4
1533863980632438,-1,-4,3,-1,-5,3,1,-1
1533863980641252,2,3,2,10,9,-11,-3,-2
1533863980641252,-4,-2,-4,-8,2,7,5,0
1533863980656202,-1,-6,0,0,-10,2,4,-1
1533863980656202,-7,4,-4,-1,6,4,0,0
1533863980658193,-2,-8,-7,-8,-8,-8,-7,-4
1533863980658193,3,1,4,6,-3,-3,0,-2
1533863980679137,2,1,-1,5,19,1,-2,-2
1533863980679137,-1,1,-1,-15,-30,-4,1,0
1533863980680138,-7,-9,-7,-5,-6,2,0,1
1533863980680138,-2,-3,-1,-2,5,-1,0,0
1533863980692302,0,7,-5,-2,-1,-2,0,0
1533863980692302,4,-4,1,3,6,-4,-5,-1
1533863980701153,2,3,0,-3,0,-1,-5,-3
1533863980701153,-10,14,5,2,-2,2,8,4
1533863980716057,-1,7,6,5,10,2,4,0
1533863980716057,-8,-48,-26,-7,-3,-1,-2,-3
1533863980718065,3,1,2,-3,-11,-3,-5,1
1533863980718065,5,5,-9,2,5,-1,-2,-7
1533863980738977,1,-5,1,0,0,2,1,6
1533863980738977,-3,4,1,-4,6,-2,-4,-4
1533863980739982,2,4,16,0,-10,-1,0,6
1533863980739982,-5,-7,-23,-7,-8,-4,-5,-8
1533863980753067,7,-13,-3,-5,0,5,-1,3
1533863980753067,2,1,-4,-1,1,0,1,-2
1533863980761917,-5,-11,-2,-3,-3,-5,0,3
1533863980761917,3,9,11,4,5,-17,-12,-17
1533863980775881,-6,6,-1,-2,-10,3,4,5
1533863980775881,-5,7,9,5,12,15,5,4
1533863980777873,-3,7,-5,-1,-10,4,4,-6
1533863980777873,-3,-13,0,-2,-7,-9,5,14
1533863980798820,-1,-1,-4,-1,2,7,7,-4
1533863980798820,-1,3,4,2,-4,1,2,-3
1533863980800811,-2,0,-5,1,4,-4,-9,-9
1533863980800811,-1,-1,4,-4,-4,-8,-3,1
1533863980812780,0,-1,-7,1,11,-12,-18,-14
1533863980812780,-2,-7,-3,-4,-16,6,6,-3
1533863980821755,6,6,5,7,4,0,5,0
1533863980821755,0,-12,-11,-2,35,5,5,1
1533863980836715,-5,0,1,-11,-48,-3,7,-3
1533863980836715,-5,4,-2,-6,0,2,0,0
1533863980837713,-2,-6,-1,-2,-1,-2,-5,-5
1533863980837713,-2,3,3,-5,-22,-16,-15,-3
1533863980858660,2,-1,-2,2,8,-43,-33,-10
1533863980858660,-1,-1,-1,2,42,30,32,-2
1533863980860651,2,4,2,0,-10,46,25,10
1533863980860651,-4,4,4,10,18,14,3,9
1533863980872619,-8,-2,-1,-4,-18,-18,-5,-3
1533863980872619,2,-4,-8,-6,-25,-52,-45,-18
1533863980881596,0,3,-3,-2,13,-12,17,21
1533863980881596,7,16,5,6,11,55,30,10
1533863980896555,4,-4,3,6,15,32,11,8
1533863980896555,-12,-4,-1,2,-2,-17,-8,-5
1533863980897553,-3,-4,-7,-1,-2,-18,-22,-17
1533863980897553,0,6,3,-3,-30,-29,-18,-3
1533863980918496,-5,-5,-2,-3,8,2,2,2
1533863980918496,1,-16,-4,0,-1,8,0,-5
1533863980920491,-3,-5,-8,-3,-2,-10,-10,-1
1533863980920491,-6,-11,-2,-3,-7,-5,-1,-9
1533863980932458,5,8,2,1,9,10,5,5
1533863980932458,-2,1,-3,-6,-8,-1,-1,7
1533863980941472,-9,-9,-4,0,-3,-6,-6,-6
1533863980941472,2,-3,-10,-5,-2,-2,-5,0
1533863980956396,2,9,17,0,5,7,5,0
1533863980956396,-3,-5,3,3,-5,0,1,3
1533863980957419,-1,-1,1,-1,3,-3,-3,-4
1533863980957419,1,-1,13,-2,-2,-1,-3,-5
1533863980978341,-1,-2,-26,-5,-3,-5,-4,-5
1533863980978341,3,5,-3,3,-2,0,0,7
1533863980980332,-3,0,-1,-5,3,6,3,3
1533863980980332,-4,-1,-6,5,-1,-1,-2,0
1533863980992299,-7,-19,-7,-1,-4,-3,-1,-11
1533863980992299,10,13,13,3,0,1,3,27
1533863981001289,-7,10,-4,-2,0,-4,-7,-32
1533863981001289,2,-9,-7,-4,-8,-7,-4,-1
1533863981016238,9,-4,-3,-1,3,1,3,33
1533863981016238,3,9,11,5,9,5,1,-11
1533863981018230,-1,4,-2,-4,-7,-7,-5,-11
1533863981018230,1,-2,-2,-3,2,-2,-3,-8
1533863981039188,-9,0,4,-2,2,-1,-1,-5
1533863981039188,-2,3,-5,1,-11,-1,2,-9
1533863981040171,1,-6,-4,-2,-2,-3,0,27
1533863981040171,-9,-6,-4,-6,-4,0,0,1
1533863981052312,-5,-2,-1,1,5,-2,-3,-15
1533863981052312,1,4,0,-3,-16,-5,-4,0
1533863981061116,-3,-5,3,4,18,2,1,-8
1533863981061116,3,-2,3,-1,-4,0,3,0
1533863981076075,1,4,-4,-2,1,5,-1,14
1533863981076075,-5,-1,-3,-5,-5,-13,-9,-3
1533863981078069,2,-4,0,0,-7,-13,-15,-20
1533863981078069,2,-3,-1,0,6,13,19,7
1533863981099017,12,7,3,2,4,15,7,-16
1533863981099017,-22,0,-1,-2,-5,-24,-13,16
1533863981101009,2,-5,-1,-3,-5,8,-11,-8
1533863981101009,-7,-6,-13,-3,-3,4,-1,-12
1533863981112976,1,-1,8,-2,4,-7,9,-3
1533863981112976,6,10,10,0,-10,5,3,-3
1533863981120958,4,-7,-18,0,3,-29,-12,-3
1533863981120958,-7,-20,4,-4,-4,42,30,3
1533863981135918,-11,-14,-18,-1,7,14,0,7
1533863981135918,-3,-2,-1,3,22,0,13,-13
1533863981142896,-7,7,6,-7,-28,-8,1,-2
1533863981142896,6,6,-4,-2,-3,-36,-30,-4
1533863981158858,-5,-6,-4,-7,-17,-12,-8,-3
1533863981158858,7,0,-2,-4,8,4,-33,-9
1533863981160848,5,1,1,5,6,9,34,6
1533863981160848,0,-1,1,2,4,5,6,1
1533863981172817,2,5,7,5,7,17,8,12
1533863981172817,-3,-4,-2,-1,-2,5,2,-9
1533863981181806,0,0,-2,0,1,3,-6,14
1533863981181806,-3,1,2,-3,-15,-21,-14,0
1533863981195755,-2,3,3,-3,-4,-18,-9,-13
1533863981195755,0,-11,19,1,-1,2,5,-3
1533863981202901,0,-3,2,-1,1,7,-1,7
1533863981202901,0,-2,-6,-4,-2,-10,-6,-5
1533863981218696,-4,-2,7,0,-4,-4,-6,-6
1533863981218696,2,2,-5,-3,1,7,9,3
1533863981220688,-3,-2,-1,-2,-3,1,1,4
1533863981220688,-1,2,4,3,2,-4,-6,-5
1533863981232656,0,7,-4,0,0,0,-3,-2
1533863981232656,3,1,-39,-4,-5,5,6,11
1533863981241632,-5,-9,4,0,1,0,-1,-3
1533863981241632,2,7,-18,-4,-2,-5,-6,4
1533863981255652,-2,-12,21,5,-3,-3,-1,-4
1533863981255652,-1,-6,-8,-1,1,-2,4,0
1533863981262577,0,3,8,-4,-3,-1,-4,-1
1533863981262577,-1,0,4,2,1,-1,0,1
1533863981278534,-3,3,-10,-4,-6,-5,2,2
1533863981278534,2,-1,1,1,0,0,-1,-11
1533863981280529,1,-6,-1,0,2,3,1,32
1533863981280529,1,-3,1,-2,0,-3,-3,-9
1533863981292499,-4,0,-6,0,1,-5,-3,-7
1533863981292499,5,1,6,-4,-4,-1,-1,-1
1533863981301473,-5,2,-5,-1,0,1,1,-5
1533863981301473,5,4,6,0,-1,-1,-1,-2
1533863981315438,-9,-3,-6,-3,-3,-3,-5,10
1533863981315438,-2,-2,-1,-1,5,-1,-1,-4
1533863981322420,2,0,-1,-2,-1,-2,-1,-4
1533863981322420,-3,-4,-2,0,-1,-1,-1,3
1533863981339378,-1,-4,-9,-7,-4,-4,-3,-11
1533863981339378,-2,2,2,-1,-2,-1,-1,4
1533863981340368,-2,-10,-16,-1,4,-3,-3,-9
1533863981340368,-5,-6,8,-1,-12,-2,-2,2
1533863981361312,1,-4,-25,-3,-2,3,2,-1
1533863981361312,-5,-8,8,7,10,1,0,2
1533863981363317,-1,5,-2,-7,-9,-4,-4,-3
1533863981363317,1,3,-4,-1,0,-3,-1,2
1533863981375312,-2,-2,1,-1,2,-2,-2,-4
1533863981375312,4,7,-6,-2,0,-3,-1,5
1533863981384302,0,0,7,2,-12,-1,1,-5
1533863981384302,-4,0,-5,-4,3,-4,-3,-7
1533863981399214,2,4,6,-3,-6,-3,-1,2
1533863981399214,-2,-4,-1,0,4,-1,0,-1
1533863981400208,-3,1,3,2,4,3,1,-7
1533863981400208,1,-3,2,-2,-1,2,1,4
1533863981421152,2,4,2,0,1,-4,-1,-4
1533863981421152,-6,14,-2,-2,-6,-2,-1,7
1533863981423147,-3,-8,16,-2,-2,-1,-1,-18
1533863981423147,4,2,-17,0,0,-5,-1,31
1533863981435118,-2,-8,-10,-1,2,10,-1,-3
1533863981435118,-2,-12,8,-3,-12,-11,-8,-15
1533863981444141,-3,5,-6,-2,-3,-17,-9,-1
1533863981444141,-5,-14,-7,-6,-5,-11,-28,-14
1533863981459313,5,13,12,2,7,28,43,5
1533863981459313,3,-5,-3,2,12,37,18,25
1533863981460098,-1,-9,-4,7,8,3,3,4
1533863981460098,-8,3,8,9,20,-10,-5,-12
1533863981481046,-3,-13,-14,-11,-38,-35,-34,-6
1533863981481046,-4,-6,-2,-9,-7,-8,-4,-13
1533863981483036,6,2,0,-2,-1,14,4,0
1533863981483036,2,8,2,3,7,0,7,-4
1533863981495006,-1,2,4,2,8,-17,-3,5
1533863981495006,4,1,1,1,-1,2,-12,-3
1533863981503981,-4,2,-4,-1,3,-3,6,4
1533863981503981,0,-3,1,0,-3,13,11,1
1533863981517944,-3,-4,1,0,3,0,-4,-4
1533863981517944,-3,-5,-4,-7,-14,-12,-17,-13
1533863981524959,-2,1,-3,-2,1,14,12,11
1533863981524959,3,-1,4,1,6,5,9,11
1533863981540887,-7,-4,1,-1,-8,1,2,-8
1533863981540887,0,-2,-7,-4,3,-13,-9,-5
1533863981542876,-1,0,1,3,10,-18,-16,-6
1533863981542876,4,2,5,-2,-4,19,16,1
1533863981554879,0,11,2,-1,-6,8,-4,6
1533863981554879,-2,-19,-10,1,-2,-4,2,-1
1533863981563835,-1,-3,-6,-2,-8,-1,1,0
1533863981563835,-2,-6,-3,1,5,-11,-8,-9
1533863981578783,1,1,1,3,10,-4,-5,-2
1533863981578783,0,7,8,1,-6,1,6,1
1533863981580775,2,5,2,1,3,0,0,0
1533863981580775,-2,-8,-3,-3,-10,-8,-7,-4
1533863981601797,-5,0,5,1,3,2,-2,-6
1533863981601797,0,2,1,-2,-3,1,6,4
1533863981602731,-4,-12,-2,-1,-2,-2,-6,-1
1533863981602731,0,4,-5,-6,-9,-4,-1,5
1533863981614772,-1,-7,-3,-1,0,1,1,-10
1533863981614772,-1,3,0,1,2,-6,0,0
1533863981623711,0,2,4,-3,-5,1,-2,-4
1533863981623711,-2,16,5,-2,-7,0,0,-3
1533863981638740,-1,-10,-7,2,4,0,-2,3
1533863981638740,-1,1,1,-1,2,-2,-1,-2
1533863981640717,-1,3,-2,-2,-7,-1,-1,-1
1533863981640717,-3,-2,-3,-1,4,2,1,-1
1533863981661661,1,-3,-5,-1,0,-4,-3,2
1533863981661661,-3,2,8,-3,-2,0,0,-1
1533863981662659,3,2,2,0,-4,-2,-3,0
1533863981662659,-1,1,-1,-4,-2,-1,-2,-5
1533863981674630,-5,-11,-8,-2,1,-1,1,3
1533863981674630,-4,-9,1,2,0,2,4,2
1533863981683663,-3,-3,-2,-1,-2,1,-1,-2
1533863981683663,-1,-8,3,0,-3,-2,-4,-2
1533863981698566,2,1,-2,1,1,1,-1,0
1533863981698566,0,1,-3,-1,-11,-2,-1,0
1533863981700558,1,3,-5,0,-1,-3,-3,-1
1533863981700558,1,-7,-4,1,5,2,1,-2
1533863981721505,2,1,1,-5,9,0,0,1
1533863981721505,-1,4,-3,-4,-6,-3,-2,2
1533863981722499,-3,2,0,-2,-6,-3,-3,-10
1533863981722499,-3,-4,-5,0,9,-2,-5,-2
1533863981735467,0,2,8,-1,-22,-8,1,0
1533863981735467,2,4,0,0,-6,1,3,-3
1533863981743443,4,-20,-14,-3,13,8,2,5
1533863981743443,-13,0,8,0,-3,3,0,0
1533863981758406,1,10,8,-3,3,-6,-3,-4
1533863981758406,5,-8,-12,-3,-4,-10,-7,-2
1533863981760397,-4,-1,-5,-3,-19,-13,-12,-4
1533863981760397,1,-7,-4,2,7,-2,-8,-5
1533863981781345,2,6,15,2,-4,10,15,-6
1533863981781345,-2,-6,-6,-2,-3,-5,-2,17
1533863981783351,-2,8,0,3,17,25,19,-3
1533863981783351,1,-4,-3,4,5,18,16,11
1533863981804316,-11,2,-3,-1,-6,-7,-3,-7
1533863981804316,0,-1,2,-1,-2,-16,-20,-20
1533863981805278,-6,1,-3,-4,-11,-26,-18,-2
1533863981805278,2,-1,0,-1,-4,-18,1,-2
1533863981818399,6,-2,-4,0,4,26,1,5
1533863981818399,-3,1,1,2,9,10,13,6
1533863981825228,-2,-4,1,-1,-2,-4,0,-1
1533863981825228,-1,3,0,-6,-16,-7,0,-10
1533863981841205,-4,-8,-5,-2,2,-11,-8,-2
1533863981841205,-4,-2,-4,1,5,-21,-19,-10
1533863981843176,4,-15,-5,-6,-4,17,12,7
1533863981843176,0,1,4,-3,-10,12,12,7
1533863981855147,2,6,-4,-2,-9,0,5,4
1533863981855147,-3,-5,1,0,-2,-1,-3,-4
1533863981864119,-7,-8,-10,-6,-3,-26,-13,-10
1533863981864119,2,-5,-10,-3,7,1,-6,-4
1533863981879093,3,0,-3,2,7,9,5,2
1533863981879093,1,7,5,2,2,10,6,1
1533863981880077,2,3,4,4,2,-1,-2,4
1533863981880077,-3,-1,-4,-2,-9,-9,-9,-6
1533863981901021,-2,-1,-1,0,2,-10,-8,1
1533863981901021,1,0,-1,-1,4,5,8,-1
1533863981903015,-2,4,5,2,2,6,4,1
1533863981903015,-2,-2,1,-2,-4,-5,-8,-3
1533863981914993,-1,-5,-1,1,-2,-7,-4,-3
1533863981914993,-3,4,-19,-5,0,3,5,2
1533863981930941,2,-1,4,-2,-1,2,0,1
1533863981930941,-6,-1,0,-3,-3,-5,-3,-3
1533863981938923,-1,0,12,-1,-1,-4,-4,-8
1533863981938923,-1,-5,-8,-2,-2,6,0,-2
1533863981939917,-1,-2,9,2,4,2,0,2
1533863981939917,-1,-4,-13,0,4,-2,1,3
1533863981960861,-4,-3,-3,2,-5,-2,-2,3
1533863981960861,1,1,10,0,1,1,0,-1
1533863981962856,3,11,-26,-4,-6,0,1,-2
1533863981962856,-1,-9,48,4,5,2,3,2
1533863981974858,-2,-3,0,-2,2,-4,-3,1
1533863981974858,-1,-2,-2,0,-4,1,2,0
1533863981983800,1,1,3,-1,3,1,-2,0
1533863981983800,3,7,-12,-1,-1,-5,-4,-4
1533863981997762,0,11,-17,-2,-2,-2,-1,-1
1533863981997762,-4,-6,19,2,4,2,3,2
1533863982006738,-3,4,-4,1,0,-2,0,0
1533863982006738,-2,-13,-14,-3,-11,-4,-4,-3
1533863982021701,1,-7,-2,-1,14,-1,-3,1
1533863982021701,-2,-2,-9,-7,-12,-2,-3,-8
1533863982022695,0,3,7,1,0,1,0,8
1533863982022695,1,11,-3,-2,-2,-1,-4,-11
1533863982043643,-1,-5,-4,0,-4,-3,-2,0
1533863982043643,-1,-5,-5,0,-2,0,0,1
1533863982045673,-1,-4,5,0,-4,-3,-1,1
1533863982045673,-1,2,0,-1,12,4,0,-2
1533863982057605,0,2,-2,2,-13,-2,1,-4
1533863982057605,4,7,5,1,-1,-1,0,3
1533863982066578,-12,-28,-14,-4,-8,-8,-7,-12
1533863982066578,3,-2,-6,-3,1,-10,-5,7
1533863982081554,-1,-4,-2,-1,4,12,7,-1
1533863982081554,0,3,3,1,3,8,4,8
1533863982082535,-1,9,6,3,-1,1,0,-7
1533863982082535,-2,-5,-3,1,-7,-7,-3,-1
1533863982095510,1,-6,-2,-3,10,-5,-5,0
1533863982095510,-5,-5,-4,-4,-3,-8,-6,-9
1533863982103479,2,3,1,-3,-5,-6,-2,-1
1533863982103479,-2,2,0,-2,-1,17,3,-2
1533863982118440,2,5,5,3,5,5,4,8
1533863982118440,-1,1,-4,2,2,0,2,0
1533863982125424,-3,1,-2,0,-1,-16,-21,-9
1533863982125424,-1,-4,-11,-9,-19,-34,-14,-8
1533863982141381,-5,-9,-2,0,3,25,17,11
1533863982141381,0,5,6,8,13,32,19,3
1533863982143379,-2,3,3,-1,2,-9,-3,4
1533863982143379,-3,-20,-9,-2,-9,-15,-7,-6
1533863982155353,-6,-10,-9,-5,-4,-2,-2,-3
1533863982155353,0,-3,-2,-3,0,-3,1,-2
1533863982164316,-1,1,3,0,-9,2,-2,1
1533863982164316,-1,7,0,-4,-2,-17,-21,-7
1533863982178279,2,1,-3,0,17,5,3,-3
1533863982178279,-3,-3,-1,0,-10,15,10,3
1533863982185276,-2,3,-1,-4,5,-3,-3,-3
1533863982185276,-3,3,3,-2,-13,4,11,2
1533863982209197,1,4,4,-1,-3,-2,-4,0
1533863982209197,0,3,-12,-3,-7,-2,3,0
1533863982210194,-2,-8,-4,1,8,3,-3,-2
1533863982210194,-2,-3,-6,1,-1,-3,-6,0
1533863982215181,-3,-2,2,-3,-9,-14,-11,-6
1533863982215181,2,3,1,-3,0,-12,-11,-6
1533863982224156,3,3,1,0,-6,1,3,2
1533863982224156,-3,0,0,1,8,14,10,-2
1533863982238120,0,5,0,0,-7,-4,-4,0
1533863982238120,-2,-3,0,-3,-2,-12,-9,-3
1533863982245101,0,-6,-1,-2,1,6,7,0
1533863982245101,0,4,1,1,5,12,5,6
1533863982261062,3,1,-3,-3,-6,-7,-6,-1
1533863982261062,-1,-2,0,-2,-3,-10,-7,-5
1533863982263054,-1,1,3,-2,1,5,6,1
1533863982263054,-1,-4,-6,2,4,5,4,2
1533863982275024,-4,-1,-3,-4,-14,-13,-5,-4
1533863982275024,0,-6,1,0,-2,-5,-2,-2
1533863982283997,-2,3,-1,1,1,7,3,-2
1533863982283997,3,6,2,0,0,3,0,3
1533863982297963,-2,3,-13,-6,-1,-3,-3,-4
1533863982297963,-2,-19,3,5,3,-1,-3,1
1533863982304945,-3,2,-8,-10,-9,-1,0,-3
1533863982304945,-1,0,3,3,6,2,3,0
1533863982320902,-1,-3,-1,-5,-8,-5,-6,-3
1533863982320902,0,10,-8,-5,1,-5,-5,-4
1533863982326886,3,-18,-7,2,2,-1,-2,-1
1533863982326886,-3,9,74,12,2,9,9,6
1533863982343840,-5,-3,16,2,-1,-1,0,-2
1533863982343840,-3,3,-7,-4,1,-3,-5,-2
1533863982345838,2,-5,-1,1,-4,-2,0,-1
1533863982345838,1,-2,-22,-6,-7,-1,-3,-1
1533863982357803,-1,1,-12,-1,4,-3,-1,-2
1533863982357803,-2,3,11,1,-11,-3,-3,-1
1533863982366781,1,5,-4,-3,3,0,1,-2
1533863982366781,1,0,-10,-1,6,-1,-1,-4
1533863982381739,-2,-3,-1,-2,-6,-3,-1,1
1533863982381739,-2,-1,-13,-5,1,-4,-1,-3
1533863982382747,1,-2,10,1,3,2,1,-1
1533863982382747,-5,-2,-17,-6,0,-3,-3,1
1533863982403704,0,-2,4,2,-9,-2,-1,-2
1533863982403704,1,-2,2,0,7,-2,-3,-1
1533863982405687,-2,13,-3,0,-8,1,0,0
1533863982405687,2,-2,-2,-2,6,-7,-8,-3
1533863982417643,-3,-6,-4,1,-2,5,8,0
1533863982417643,-6,-13,-2,0,-2,2,0,-5
1533863982426616,1,4,7,-2,0,-1,-4,-1
1533863982426616,2,-1,-14,-3,-4,3,2,-1
1533863982441575,-1,1,3,-3,-5,-5,-6,-3
1533863982441575,1,2,0,0,3,-7,-4,1
1533863982442573,1,-5,-1,3,0,-3,-2,-1
1533863982442573,-3,-2,0,-3,0,4,-2,-6
1533863982463520,3,10,-6,1,2,-5,7,4
1533863982463520,1,-6,3,2,5,20,7,11
1533863982465511,-5,-3,-4,-2,-7,-8,-2,-3
1533863982465511,3,1,-3,-2,6,-7,-9,-5
1533863982477479,-1,0,3,-5,-10,-12,-10,-4
1533863982477479,-3,1,-3,-2,-7,-12,-2,1
1533863982486455,-4,-12,-7,-3,0,-2,-3,-4
1533863982486455,-5,-6,-6,-7,-8,-11,-18,-2
1533863982501416,1,-5,-4,-5,-9,-9,-1,-1
1533863982501416,1,8,9,3,18,22,21,3
1533863982502458,-4,-12,-5,1,0,18,16,15
1533863982502458,-4,3,0,5,5,18,10,-3
1533863982524355,-1,-2,0,2,16,8,1,2
1533863982524355,2,-7,-5,-3,-17,-12,5,1
1533863982525353,-4,6,1,-1,-2,-13,-9,-5
1533863982525353,0,8,-4,1,-7,-12,-10,-1
1533863982537323,-2,-12,-4,-5,-1,-3,-12,-7
1533863982537323,0,6,-3,-3,1,-7,-9,-9
1533863982546295,1,1,0,-1,-4,-1,2,-2
1533863982546295,0,-4,3,-3,-4,0,2,3
1533863982561264,1,-3,-7,-3,-1,5,0,-2
1533863982561264,-4,-8,-5,-2,-2,-5,-3,-4
1533863982563264,0,6,4,-2,1,-3,-5,-1
1533863982563264,0,1,-2,1,-5,2,5,2
1533863982584193,-3,-3,2,0,5,3,1,-2
1533863982584193,-1,14,-35,-15,-7,-8,-10,-5
1533863982585208,-3,-12,23,4,3,2,1,1
1533863982585208,-2,-2,1,0,4,3,5,0
1533863982598157,-1,1,14,1,-8,-1,0,-2
1533863982598157,-1,0,-5,-3,-8,-4,-8,-4
1533863982606151,-1,1,-14,-7,-1,1,-2,-2
1533863982606151,-2,4,-8,-3,-4,-3,3,0
1533863982621095,0,-3,3,3,7,-2,-2,0
1533863982621095,-3,-5,12,3,-1,0,-3,-1
1533863982623090,1,7,-4,-2,-1,-2,-3,-3
1533863982623090,-2,-14,-19,-5,-5,1,0,1
1533863982644034,-3,4,-42,-3,1,-1,-3,-1
1533863982644034,1,-1,11,3,-5,1,0,0
1533863982645042,1,12,10,3,3,-3,-1,-3
1533863982645042,-3,-28,-15,-3,-2,-1,0,1
1533863982657271,1,-2,-38,-5,-4,-4,-3,-3
1533863982657271,-3,-4,13,-1,2,-3,-1,1
1533863982665977,-3,-5,-7,1,4,-1,-2,-3
1533863982665977,2,10,11,0,-3,-2,-1,-2
1533863982680936,1,1,-1,-1,-3,0,-2,0
1533863982680936,-1,-12,0,2,0,-3,-2,1
1533863982686919,1,6,0,-1,3,0,-2,-1
1533863982686919,-6,-5,1,2,4,2,5,0
1533863982703909,-2,1,15,-2,-5,-6,-5,-3
1533863982703909,0,-3,-1,-3,-6,-4,3,3
1533863982705879,3,-1,-2,-1,-2,-1,-3,-2
1533863982705879,0,4,3,2,1,1,-1,-1
1533863982725816,-1,0,10,2,2,0,5,1
1533863982725816,-5,3,-1,2,-5,0,-3,-5
1533863982727821,-3,-8,-10,-1,2,2,7,2
1533863982727821,1,4,5,-2,-7,-5,-9,-6
1533863982740776,1,0,12,-2,1,-13,-14,-4
1533863982740776,4,3,0,2,-4,21,17,-1
1533863982742771,-3,4,1,1,5,-2,-4,0
1533863982742771,-1,-1,-1,1,-2,-9,-2,-11
1533863982763718,3,-1,9,-1,2,4,5,5
1533863982763718,0,1,-4,1,7,8,-19,-18
1533863982765711,-5,-12,-8,-3,-11,-5,17,22
1533863982765711,-8,-1,1,-3,0,-11,-13,-21
1533863982777681,5,7,6,10,30,17,25,13
1533863982777681,-2,-16,-6,-3,-21,0,0,3
1533863982786665,-3,0,1,1,-3,5,8,-1
1533863982786665,-5,1,-4,-3,-11,-13,-14,-2
1533863982800616,-4,-6,4,-3,-2,-12,-14,-4
1533863982800616,0,5,-3,-1,1,-9,-8,-4
1533863982808638,2,1,0,-1,1,-3,-14,-13
1533863982808638,4,-7,-4,-1,8,0,4,8
1533863982823554,-2,-2,0,-2,-7,1,-1,-7
1533863982823554,0,3,1,-4,12,-7,-5,4
1533863982825561,2,-9,-3,-4,-30,5,0,-8
1533863982825561,5,7,6,-1,3,9,7,17
1533863982837525,-3,0,1,3,0,3,1,3
1533863982837525,-5,-8,-3,0,5,-10,-1,-6
1533863982846492,0,1,-6,-1,4,-3,-4,0
1533863982846492,1,3,-1,0,6,-4,-11,-6
1533863982861452,-2,2,4,-2,-22,6,8,3
1533863982861452,-1,3,0,-2,3,7,5,5
1533863982862449,-2,-7,-2,2,9,1,-1,-1
1533863982862449,0,2,-3,-1,-8,2,3,5
1533863982883440,-4,-10,-5,-5,-6,-14,-14,-7
1533863982883440,2,9,2,1,-1,-8,-1,-1
1533863982885388,-2,-6,-6,-2,0,-1,-1,-3
1533863982885388,-4,-4,-5,-3,-3,0,1,-1
1533863982897367,0,-6,-3,0,1,0,-2,-4
1533863982897367,-2,-3,-1,-2,-3,1,4,3
1533863982906332,0,10,3,-5,-2,-3,-6,-2
1533863982906332,-3,3,2,0,-2,0,3,-1
1533863982921293,-1,2,1,-1,0,3,0,-2
1533863982921293,-1,-2,2,-1,0,-2,-1,1
1533863982923286,-1,-2,-2,0,10,-5,-5,-2
1533863982923286,0,-2,-1,1,-15,-1,4,2
1533863982944246,-1,2,-1,0,2,3,0,-4
1533863982944246,0,-1,0,0,-3,-6,-6,-3
1533863982945231,0,0,1,-2,3,-3,-5,-3
1533863982945231,1,-3,-1,0,6,6,9,2
1533863982957231,-3,3,1,0,-2,0,1,-1
1533863982957231,-2,-5,-8,-1,-6,-5,-2,-2
1533863982966184,0,-1,-2,-1,-2,0,0,-1
1533863982966184,2,-1,-7,0,-1,1,-2,-3
1533863982981135,0,4,0,-1,-2,-2,-2,-2
1533863982981135,-3,-11,-41,-5,0,-2,1,0
1533863982983128,-2,-5,14,2,-4,0,1,1
1533863982983128,0,-4,-1,-2,1,-1,1,0
1533863983004103,-3,2,3,-1,1,-2,-1,-3
1533863983004103,0,6,2,0,-1,-2,-1,-2
1533863983005068,-4,-6,-9,-1,-1,-2,-2,-6
1533863983005068,1,-1,1,-4,-1,-1,-1,1
1533863983026012,-2,-2,2,-1,2,1,-3,1
1533863983026012,-2,4,9,-1,-4,-4,-2,0
1533863983028007,-2,-5,-7,-2,-2,-1,0,-1
1533863983028007,-1,4,8,0,-1,6,2,0
1533863983039975,-1,-6,-6,-1,-1,-1,-1,0
1533863983039975,-1,1,5,-2,-1,-3,-2,-2
1533863983048951,-1,6,0,-2,-5,-4,-11,-15
1533863983048951,-4,0,-11,-3,4,2,5,6
1533863983063911,2,0,-2,1,0,6,3,4
1533863983063911,-3,-4,7,1,-1,-2,2,1
1533863983064927,-3,-5,-7,-2,-4,-6,-6,-2
1533863983064927,-3,1,-1,0,0,3,-5,-5
1533863983085852,2,-1,0,0,-1,4,2,-2
1533863983085852,-2,-3,1,-2,0,-6,-1,-1
1533863983087847,-2,4,-1,-4,-2,-15,-8,-2
1533863983087847,1,-3,0,0,0,4,-4,-4
1533863983101029,-1,-2,-3,-5,5,4,3,5
1533863983101029,-1,1,4,2,2,5,2,-4
1533863983107794,0,1,0,3,4,2,7,3
1533863983107794,-4,-1,0,1,-5,-13,-11,-9
1533863983123751,2,-3,0,0,5,4,2,-1
1533863983123751,1,0,5,-1,3,3,7,4
1533863983125746,-1,5,3,-3,-12,-3,-2,-2
1533863983125746,-1,-2,2,-3,7,-10,-4,-2
1533863983146690,-7,-10,-8,-4,-16,-7,-6,-3
1533863983146690,2,-3,0,4,21,0,-14,-1
1533863983147687,-3,-2,-1,-3,-11,9,9,-2
1533863983147687,3,2,-2,-5,-28,-9,-8,-1
1533863983160656,-1,11,-1,-3,6,-10,-8,-3
1533863983160656,1,-2,3,1,2,21,15,1
1533863983167637,1,-2,1,3,9,-1,1,17
1533863983167637,0,-2,-6,-1,-9,-3,1,-5
1533863983183594,-3,-4,-2,-3,-6,-6,2,5
1533863983183594,-1,-1,0,-6,-4,-14,-13,-11
1533863983185586,2,4,0,1,11,12,-1,-3
1533863983185586,-4,-3,-2,-2,-3,-1,4,7
1533863983197554,-3,-5,-4,-1,2,-9,-11,-16
1533863983197554,-4,2,1,-4,-5,8,12,2
1533863983206529,1,4,2,2,3,10,1,3
1533863983206529,-2,-4,-1,2,9,2,2,1
1533863983220492,-2,-15,1,1,-7,-5,-3,0
1533863983220492,-2,1,-3,-3,-8,-9,-10,-3
1533863983227474,-3,-11,-7,-3,-1,-9,-2,-6
1533863983227474,0,0,0,-2,1,2,-1,-1
1533863983243646,0,0,-6,0,0,2,0,1
1533863983243646,-1,-1,2,-1,-9,-6,-3,-1
1533863983245425,0,0,5,-1,-3,-3,-1,-1
1533863983245425,-1,2,-1,-1,6,5,4,1
1533863983266373,-3,-3,-1,0,-4,0,-1,-1
1533863983266373,-2,-2,0,1,-1,-2,-1,1
1533863983268367,-1,0,-3,-2,-5,0,-2,-3
1533863983268367,-3,-1,-3,-2,5,3,0,-2
1533863983280335,2,3,59,5,-2,-3,-3,-4
1533863983280335,1,-2,-6,-4,-2,-3,-2,1
1533863983287516,-5,-2,-1,-1,0,2,2,1
1533863983287516,-1,-5,8,2,1,1,-1,1
1533863983304307,-2,2,-14,-2,-1,2,1,0
1533863983304307,2,-1,-9,-5,-6,-4,-6,-1
1533863983305280,-1,-2,7,-3,1,-4,-4,0
1533863983305280,0,1,-10,-3,-7,-2,-2,-2
1533863983334189,1,14,-5,0,2,0,-1,-1
1533863983334189,-1,-17,-5,0,0,-1,-2,0
1533863983335187,-10,-4,-11,-3,5,-3,0,-2
1533863983335187,-1,-7,-7,-3,4,3,2,1
1533863983340195,-2,-9,-8,-4,-7,-1,-1,-2
1533863983340195,1,8,7,2,-1,-2,-3,-2
1533863983349157,1,3,0,-1,-15,-4,-1,0
1533863983349157,0,-6,3,2,5,2,2,-1
1533863983364107,-3,-1,-5,-2,4,2,1,0
1533863983364107,-1,-3,-5,-4,3,0,0,1
1533863983365106,0,2,0,0,-1,-3,-2,-2
1533863983365106,0,1,3,1,0,-3,-2,-3
1533863983386049,-2,-10,-15,-2,-3,-1,-1,0
1533863983386049,-1,-2,2,1,-6,-5,-4,-3
1533863983388043,2,3,1,1,-1,2,4,1
1533863983388043,-1,6,4,-1,-4,0,-1,-1
1533863983400217,1,-8,-8,-1,-1,-1,0,4
1533863983400217,-3,-1,-1,-2,1,-2,-4,-8
1533863983408989,1,-2,1,-3,-2,-2,-7,-3
1533863983408989,-3,0,-2,-4,0,-4,-3,-3
1533863983424152,1,3,-2,-2,0,-8,0,-1
1533863983424152,0,0,0,-1,2,23,11,2
1533863983425944,-2,1,-2,1,7,5,1,-1
1533863983425944,-4,-5,-4,-1,-2,-21,-14,-4
1533863983445908,2,-3,-1,0,-6,-9,-2,-2
1533863983445908,-1,1,2,-1,-1,18,14,2
1533863983447884,0,0,-1,0,1,2,2,1
1533863983447884,-2,-2,-3,1,6,10,11,2
1533863983459855,-5,0,-2,-1,-1,-10,-11,-4
1533863983459855,-3,-7,-4,-3,-4,-26,-10,-9
1533863983468828,0,-3,0,-2,-5,-1,-1,3
1533863983468828,3,6,5,-1,1,23,3,2
1533863983482794,-3,-1,1,2,-2,5,7,-2
1533863983482794,-3,-8,-8,-2,-1,0,-9,-8
1533863983489775,-2,-4,-7,-2,-4,-18,-7,2
1533863983489775,1,-3,-3,-6,-12,-8,-3,-2
1533863983506730,-1,3,0,2,30,4,-8,-2
1533863983506730,0,-4,2,-2,-8,-8,-4,0
1533863983508725,-5,-5,-3,-6,-21,10,6,2
1533863983508725,2,5,4,3,10,13,17,2
1533863983519692,-1,-4,6,-3,-9,9,8,-2
1533863983519692,-2,5,-4,2,27,-11,-7,2
1533863983528685,-3,-3,-6,1,-8,-9,-5,-7
1533863983528685,1,1,3,3,10,12,0,1
1533863983543631,-2,-3,-8,-5,-11,2,-1,2
1533863983543631,-3,2,3,3,-2,-10,-7,-3
1533863983545622,1,1,0,-4,2,2,3,-2
1533863983545622,-2,1,-2,-3,-12,-10,-9,-4
1533863983566570,-1,-7,-2,0,-1,-5,-1,-1
1533863983566570,-2,15,-2,-3,-10,2,0,2
1533863983567563,1,2,1,3,9,3,-1,-3
1533863983567563,0,-1,-2,0,-1,-9,-4,3
1533863983579532,1,3,0,-3,1,0,-3,-3
1533863983579532,0,-1,-1,-3,-20,1,3,0
1533863983596487,-2,-2,2,1,6,-2,-2,0
1533863983596487,-6,-14,-8,-2,-1,-4,-2,-3
1533863983603468,-1,1,-3,-2,-9,3,1,-1
1533863983603468,-2,-6,-2,1,10,4,1,1
1533863983605462,2,4,3,-7,-6,-7,-4,-2
1533863983605462,-2,-7,-1,-1,-1,-4,-4,-1
1533863983626410,-2,3,1,-3,-12,1,3,0
1533863983626410,0,1,10,1,5,0,-1,3
1533863983628401,3,7,10,0,-6,-2,-4,-5
1533863983628401,0,1,-39,-6,-1,1,-1,0
1533863983640369,-5,-4,7,-3,3,0,-1,0
1533863983640369,-2,-2,-3,1,-2,-2,0,-2
1533863983649345,1,0,-3,1,5,1,-1,3
1533863983649345,-5,-6,-6,-1,-3,-2,-1,-3
1533863983664305,3,-3,-8,0,0,-3,-3,0
1533863983664305,-1,-3,-6,-5,-7,-1,0,-2
1533863983665303,2,6,-6,-1,3,-2,-1,-1
1533863983665303,0,-14,15,4,-4,-2,-1,0
1533863983686250,-3,-3,-9,-2,0,1,2,-1
1533863983686250,-1,2,5,-1,-3,-1,-1,3
1533863983688241,2,0,-1,3,2,2,0,10
1533863983688241,-2,9,3,-4,-2,-6,-4,-13
1533863983709188,-3,-5,0,-1,-3,0,-1,-1
1533863983709188,3,-2,-6,1,-2,-1,-1,-1
1533863983710182,-5,-9,-4,-1,3,2,-1,-4
1533863983710182,-1,10,0,-1,-13,-6,0,2
1533863983723150,0,-3,0,-1,1,-1,-2,-2
1533863983723150,0,5,7,-2,1,-4,-1,-2
1533863983730129,-4,-1,-6,0,-6,6,5,-3
1533863983730129,0,2,8,0,1,-3,-2,3
1533863983746227,-2,5,0,1,-5,-4,-5,-5
1533863983746227,-3,-8,-2,-2,2,1,3,3
1533863983748083,-2,-3,-3,-1,4,3,2,2
1533863983748083,0,-2,-1,-5,-7,-10,1,-3
1533863983769028,2,2,0,2,6,11,0,4
1533863983769028,-2,-4,-2,1,7,5,-1,0
1533863983770022,-2,2,3,0,-4,-11,-11,-6
1533863983770022,1,-1,-2,1,6,2,8,6
1533863983782003,-2,-9,-1,2,4,4,1,2
1533863983782003,-2,0,-3,-1,-7,-1,5,-1
1533863983790967,-3,-9,3,-1,6,-1,-1,-3
1533863983790967,-4,-5,-5,-2,-4,-2,-5,-2
1533863983805926,-2,3,-2,-3,-4,-4,1,-3
1533863983805926,-1,2,-1,3,9,-9,-11,-2
1533863983807921,-1,-3,-3,-8,-18,-8,-4,-6
1533863983807921,0,1,3,-5,-8,4,-1,1
1533863983828865,-2,1,-4,-1,-7,0,2,0
1533863983828865,-1,-2,-2,-3,-5,-20,-16,-11
1533863983830859,1,-4,-6,-3,-5,-3,-7,-5
1533863983830859,-1,0,5,2,10,24,21,10
1533863983843825,3,6,2,5,36,14,13,7
1533863983843825,-3,-1,-2,-4,-38,1,9,8
1533863983845819,-2,4,3,6,10,-6,-6,-5
1533863983845819,1,-4,-2,-6,-12,-15,-16,-7
1533863983866767,-2,2,-5,-2,-6,-1,-1,-4
1533863983866767,-1,-5,-3,1,12,3,-2,-3
1533863983867761,-1,0,-1,-1,-8,-3,-1,-2
1533863983867761,-1,3,1,-1,-1,-4,-8,-3
1533863983879733,1,2,2,-1,-1,-12,-2,-4
1533863983879733,-2,-5,-4,-2,5,2,0,-4
1533863983888709,-3,-2,-8,-3,-2,8,3,2
1533863983888709,-1,3,3,2,6,0,-3,-1
1533863983903751,-1,1,3,-4,-14,-7,-10,-3
1533863983903751,-1,-3,-2,-2,1,2,3,2
1533863983905685,1,-3,0,-5,-7,3,5,11
1533863983905685,-1,1,0,2,4,-5,-4,-14
1533863983926607,-3,-9,-4,1,-6,-6,-5,-4
1533863983926607,0,3,0,-2,2,4,3,1
1533863983927601,0,1,2,1,6,-1,1,0
1533863983927601,0,0,-3,0,0,-1,-1,7
1533863983939569,-8,-4,-3,-4,-8,-4,-2,-13
1533863983939569,-1,0,1,0,1,1,0,-2
1533863983948831,-2,-5,-2,3,13,5,-1,0
1533863983948831,0,1,-7,-3,-17,-3,-2,0
1533863983963631,5,7,18,4,4,-4,-3,-1
1533863983963631,-4,2,3,-2,-1,0,0,2
1533863983965626,-7,-11,-3,-3,-2,1,4,-2
1533863983965626,-4,-2,10,3,6,1,-1,-1
1533863983986571,-1,-4,-11,-3,-5,-4,-3,0
1533863983986571,1,3,-4,-3,-5,-1,-3,-3
1533863983987567,6,8,8,2,2,0,1,0
1533863983987567,-6,1,-11,-2,3,-1,-3,-6
1533863984008544,0,4,-6,-6,-4,-3,-1,7
1533863984008544,-2,-13,-4,-4,-3,0,-2,-7
1533863984010504,-2,-9,-8,0,10,0,-1,-5
1533863984010504,0,-3,0,-3,-12,-2,-2,-2
1533863984022673,-2,-1,-3,-1,0,1,1,0
1533863984022673,3,3,5,2,1,1,1,5
1533863984031450,-2,2,-4,-2,-2,-3,-2,-5
1533863984031450,0,-3,1,1,3,0,-2,-15
1533863984046409,-2,0,1,1,1,2,-3,14
1533863984046409,0,1,-5,-6,-7,-4,-4,3
1533863984048403,-7,-8,-8,-3,-4,-2,0,-17
1533863984048403,0,-2,3,-1,3,-1,-3,1
1533863984068350,-1,-8,-6,-2,2,2,-2,-9
1533863984068350,-1,1,-4,0,-6,-10,-3,2
1533863984070345,-5,3,2,1,13,3,-4,-7
1533863984070345,-3,-2,2,-4,-29,-3,-1,-3
1533863984091292,1,-1,-4,-3,-4,-1,8,-3
1533863984091292,1,-2,1,2,5,18,8,8
1533863984092286,0,0,0,0,-8,-16,-17,-1
1533863984092286,0,-4,-4,2,5,-23,-4,-10
1533863984105255,4,-2,-2,-3,17,36,32,15
1533863984105255,-2,4,3,3,0,15,7,6
1533863984106249,0,1,0,0,-6,10,8,3
1533863984106249,-4,-2,-2,1,9,-6,-10,-1
1533863984128190,-2,-3,-4,-4,-21,-38,-35,-11
1533863984128190,0,-5,-2,3,3,-3,6,-12
1533863984129187,2,-1,-1,-8,-9,6,1,5
1533863984129187,-2,-2,-3,-5,-4,-4,-1,5
1533863984151129,-3,-1,-1,-2,-15,-1,1,-3
1533863984151129,-4,-1,-2,-6,-9,-5,-5,-5
1533863984152127,-1,-2,0,3,7,-7,-5,-1
1533863984152127,-2,-4,-3,-1,5,-3,0,-1
1533863984165098,-1,-3,-2,-4,-4,-5,-5,1
1533863984165098,-3,-1,1,-1,5,13,7,-1
1533863984166110,2,1,1,0,3,3,6,3
1533863984166110,2,3,2,1,7,12,11,10
1533863984188030,-5,2,4,0,-3,-6,-11,-11
1533863984188030,-2,-5,-10,-4,-5,-18,-13,-5
1533863984189028,0,-9,-7,-3,-7,0,4,1
1533863984189028,0,4,-1,-1,2,4,2,2
1533863984201996,-1,3,-2,2,1,-4,0,-3
1533863984201996,0,0,2,1,4,-1,-3,-2
1533863984210968,-1,-8,-11,0,-2,-3,1,-1
1533863984210968,-1,-3,1,-3,-4,-1,-7,1
1533863984225932,-1,-8,-3,0,2,-2,0,-4
1533863984225932,0,4,5,2,4,-1,-1,-2
1533863984225932,0,7,2,-2,-5,-3,-3,0
1533863984225932,1,-9,-2,-3,-3,1,1,0
1533863984247883,-3,2,5,-1,5,4,1,0
1533863984247883,1,-3,-7,-2,0,-3,-6,-3
1533863984248868,1,-1,0,-1,-4,-2,1,4
1533863984248868,-5,5,0,0,2,2,2,-3
1533863984262831,3,-3,-9,-3,1,0,-1,8
1533863984262831,-6,-6,31,2,-2,-5,-4,-13
1533863984270810,-1,0,6,3,-3,-1,-1,1
1533863984270810,1,3,1,2,4,6,3,-16
1533863984285768,-5,-7,3,3,0,-1,-4,14
1533863984285768,3,-4,-16,-4,-4,-6,-1,-5
1533863984286766,3,2,-4,-2,-1,0,1,-3
1533863984286766,3,0,9,4,2,1,-1,-1
1533863984307711,5,5,-3,0,2,-2,1,13
1533863984307711,-14,-3,-12,-7,-19,-4,-3,-23
1533863984308708,-1,-7,0,0,0,-3,-4,0
1533863984308708,-2,-10,-11,-3,-4,-2,-1,-4
1533863984322673,3,-5,-6,-3,3,2,0,-9
1533863984322673,-1,2,-3,-2,2,1,0,13
1533863984330652,-2,10,6,-1,-4,0,-1,-13
1533863984330652,1,3,-2,-2,1,-2,-3,29
1533863984345608,-7,-6,-5,1,3,-1,2,-14
1533863984345608,5,0,-1,-1,3,-1,-3,13
1533863984346606,-3,0,-3,-4,-4,-7,-5,-2
1533863984346606,-4,-2,0,-4,-2,-3,-1,-10
1533863984368550,-1,3,4,3,16,13,5,-4
1533863984368550,2,-1,-5,-4,-31,-11,-7,-1
1533863984368550,-1,-4,-1,-1,3,4,-2,3
1533863984368550,0,3,-1,3,2,7,1,-2
1533863984391485,0,2,3,1,-3,-13,-7,-10
1533863984391485,-2,-4,-4,2,18,-10,-3,-2
1533863984392483,0,-4,-1,0,-13,-6,7,0
1533863984392483,-1,-2,-4,-14,-39,24,20,1
1533863984405451,-4,-1,0,-3,-2,3,-1,3
1533863984405451,-1,8,0,5,14,12,9,8
1533863984406446,-2,-10,1,5,1,-8,-7,0
1533863984406446,-2,0,-3,4,12,-9,2,-3
1533863984428387,0,-3,-4,-3,-13,-7,-7,-5
1533863984428387,0,-3,-4,-2,-4,-15,-13,-7
1533863984428387,-3,3,0,-2,0,-4,-7,-3
1533863984428387,0,2,-1,1,19,-4,-9,-5
1533863984451537,-1,-8,-5,-6,-20,-5,1,-1
1533863984451537,-2,-11,-3,-4,6,0,-5,-2
1533863984452324,3,1,-2,-3,-1,8,-5,-5
1533863984452324,2,-3,-6,-3,4,8,16,6
1533863984465289,-1,6,3,3,0,5,7,0
1533863984465289,3,3,0,5,36,8,1,0
1533863984466286,-5,-3,-2,-10,-46,-4,-12,-4
1533863984466286,0,1,1,-1,8,2,6,2
1533863984488392,2,2,3,1,6,9,9,3
1533863984488392,-3,1,0,2,-3,3,2,1
1533863984489264,0,1,-2,2,18,-8,-7,-2
1533863984489264,-4,-5,-3,1,-7,-17,-18,-6
1533863984502190,-1,1,-3,0,0,2,-3,-5
1533863984502190,-1,1,3,-2,-7,-3,2,1
1533863984510172,-3,-4,-5,-1,7,-3,0,-1
1533863984510172,0,-10,-3,1,-4,-4,-5,-2
1533863984526181,-1,8,2,-2,-1,-6,-3,-3
1533863984526181,0,-2,3,-2,-9,-3,-2,-4
1533863984526181,-1,4,1,-2,2,3,6,1
1533863984526181,-7,-15,-9,-4,0,2,-1,0
1533863984548108,-2,-5,-2,-2,1,-4,-7,-2
1533863984548108,-2,1,-2,-4,-10,-3,-2,-3
1533863984549112,4,9,5,-1,2,0,4,-3
1533863984549112,0,-2,5,-1,-3,-3,-2,1
1533863984562032,-2,-5,0,-3,-3,-3,-1,1
1533863984562032,-1,1,-2,-4,-6,2,5,-1
1533863984571056,-2,-8,7,0,2,0,5,2
1533863984571056,1,9,0,1,0,-7,-7,-3
1533863984585979,-1,-4,-4,0,-4,-2,-2,-1
1533863984585979,0,12,-1,0,-4,1,1,-2
1533863984585979,0,3,-11,0,2,0,-1,0
1533863984585979,1,1,0,0,-3,-4,-4,-1
1533863984607907,-2,-2,0,1,3,-1,0,-2
1533863984607907,5,-3,0,-5,-5,-2,-1,2
1533863984608905,-9,1,-6,-2,1,-1,1,-1
1533863984608905,0,4,3,-1,-2,1,-3,-6
1533863984622923,4,5,5,-3,-3,-3,0,7
1533863984622923,-2,-15,-10,2,2,1,-3,-4
1533863984631018,-1,-1,2,2,10,1,1,4
1533863984631018,-2,3,2,-1,-14,-1,-4,-4
1533863984645815,-1,1,-1,-1,-1,0,-1,-19
1533863984645815,1,6,-2,-4,-2,-1,1,22
1533863984646808,0,-3,-1,-3,-3,-6,-5,-5
1533863984646808,-1,-6,-5,3,14,-7,-4,0
1533863984667747,1,-3,-3,-5,-4,9,4,-4
1533863984667747,-2,0,3,2,-5,16,-1,-4
1533863984668758,1,-1,3,1,-8,-12,-3,-3
1533863984668758,3,4,1,-3,-1,4,10,9
1533863984691686,-2,1,-1,0,2,-7,-4,0
1533863984691686,-2,-5,-2,-1,6,-1,-3,-4
1533863984691686,0,-2,-2,-1,1,-1,-4,4
1533863984691686,2,-2,-2,0,-4,-13,-10,3
1533863984705649,0,-2,-5,0,1,14,9,-7
1533863984705649,-5,-1,0,0,0,4,5,4
1533863984706643,-1,3,1,3,7,2,4,0
1533863984706643,-4,1,-1,-3,-12,-4,-5,-5
1533863984728603,-1,-9,-3,3,10,-10,-11,3
1533863984728603,-1,-5,0,-2,-19,-15,-11,-10
1533863984728603,-2,-2,-5,-10,-10,1,-1,-7
1533863984728603,-1,-1,-4,-3,11,-1,-1,-5
1533863984751530,-2,2,-1,-8,-24,4,-4,12
1533863984751530,2,-4,1,-1,19,6,13,-4
1533863984752522,0,0,1,-1,-7,5,3,3
1533863984752522,-2,2,4,2,-3,-3,-15,-5
1533863984765485,-4,-6,-4,3,14,-2,11,1
1533863984765485,0,3,-1,-1,-10,-4,1,-1
1533863984766483,-6,-5,-3,-2,3,-23,-14,-3
1533863984766483,-2,4,2,-3,-8,14,12,3
1533863984788424,1,-4,-2,2,12,17,-2,-4
1533863984788424,-1,1,0,2,6,7,1,1
1533863984788424,-2,0,-1,4,-2,-2,6,0
1533863984788424,0,-5,-3,-1,1,-12,-8,0
1533863984811362,-3,2,2,-4,-12,-15,-7,-3
1533863984811362,-2,1,-5,-1,-10,-5,-3,-3
1533863984812362,2,0,0,1,7,1,-4,-2
1533863984812362,-3,-5,-7,-3,-1,-1,-1,-5
1533863984825329,-1,2,3,-2,-14,-5,0,0
1533863984825329,-3,-2,-5,-3,3,0,-2,-5
1533863984826323,1,-1,-2,-3,-4,0,0,-1
1533863984826323,-1,-3,-1,1,12,4,4,-2
1533863984848267,-1,5,1,0,-2,-1,-1,0
1533863984848267,0,0,2,-2,-5,-9,-6,0
1533863984849276,-1,-6,-1,1,0,7,3,-1
1533863984849276,-3,-3,0,3,11,2,2,-1
1533863984862227,0,-4,-5,-1,-2,-6,-5,-2
1533863984862227,-3,-2,0,-6,-8,-2,-2,-2
1533863984870335,0,2,-42,-5,-3,3,4,0
1533863984870335,-1,-15,12,0,-3,0,-2,-1
1533863984885323,-1,0,2,1,2,-7,-4,-1
1533863984885323,-3,-5,-2,-1,4,-2,-1,-1
1533863984886163,-1,0,1,1,2,4,0,0
1533863984886163,2,10,-1,-1,-6,-3,-4,-1
1533863984908107,1,-4,-9,-2,1,-3,-2,-1
1533863984908107,-3,-10,-5,0,3,2,4,4
1533863984909101,-4,-2,9,-3,-4,2,-1,-5
1533863984909101,-2,1,-1,-2,-5,0,-1,-1
1533863984923085,1,3,7,-1,1,0,-2,-3
1533863984923085,-3,-7,-2,-1,-3,-3,-2,-4
1533863984931043,0,-3,5,-2,0,-2,-1,0
1533863984931043,-1,0,-1,-2,-1,-2,0,-1
1533863984946078,-1,0,-2,-3,0,-1,0,-1
1533863984946078,-4,0,3,-2,-2,-3,-3,-5
1533863984946078,4,3,5,2,0,1,1,-1
1533863984946078,-14,-21,-13,-4,-1,0,-1,-3
1533863984967943,2,-3,-5,0,0,-2,-2,-1
1533863984967943,3,0,-1,-2,0,0,-2,-4
1533863984968941,-5,-2,11,1,-1,0,0,4
1533863984968941,4,5,-3,-1,-4,-2,-1,3
1533863984990884,-1,0,-1,-2,-2,-5,-3,-2
1533863984990884,-2,4,0,0,-4,-8,-7,-8
1533863984991890,-1,2,0,-1,5,-4,-4,-3
1533863984991890,4,5,0,2,2,15,4,3
1533863985005877,-5,-4,-1,0,-7,3,4,1
1533863985005877,0,-2,2,-3,-1,-9,-6,-2
1533863985005877,0,4,0,-3,0,5,0,-2
1533863985005877,-1,-4,-3,-3,-6,-39,-28,-9
1533863985027784,3,1,0,-3,-4,8,8,3
1533863985027784,5,1,4,8,11,48,33,5
1533863985028782,-1,1,2,3,6,8,11,11
1533863985028782,-3,1,-2,0,-4,-11,-6,-2
1533863985051723,-1,3,3,-2,-2,-9,-4,-4
1533863985051723,2,4,-5,1,-6,-9,-14,1
1533863985051723,-3,-11,-6,2,17,8,0,-3
1533863985051723,-1,5,1,-2,-15,7,5,0
1533863985065686,-5,-7,0,1,3,-20,-12,-8
1533863985065686,-1,2,-2,-10,-3,2,0,-3
1533863985066680,2,-1,1,0,7,-2,-5,-5
1533863985066680,-3,-2,-1,-6,-19,3,2,1
1533863985088624,-2,10,-2,0,0,-3,-4,-1
1533863985088624,-2,-8,-8,-3,2,-9,-4,1
1533863985088624,3,-2,-3,0,0,0,-1,-2
1533863985088624,0,-2,1,0,11,8,12,0
1533863985111560,0,2,1,2,17,3,-1,7
1533863985111560,-4,1,1,-3,-29,-9,-7,-1
1533863985111560,-2,-3,-2,-2,-9,-5,-7,-4
1533863985111560,-1,4,1,-2,-9,1,6,-2
1533863985125526,-1,-1,0,0,3,5,3,-2
1533863985125526,-1,-2,0,1,6,-15,-7,-3
1533863985126520,0,7,3,-2,-5,-9,-4,-1
1533863985126520,0,-13,-4,-3,0,3,0,-2
1533863985148461,-2,-14,-11,-4,1,-3,-3,-2
1533863985148461,-1,-2,0,2,7,-4,0,-1
1533863985148461,-2,1,1,-3,-20,-1,1,-1
1533863985148461,1,1,4,2,13,3,-3,1
1533863985171403,0,4,1,-3,-8,-3,-3,-3
1533863985171403,1,-4,-2,-3,-4,1,0,-1
1533863985172397,-5,-4,0,0,3,0,2,-1
1533863985172397,-2,0,-7,0,3,-1,-1,1
1533863985185365,-1,-6,-1,-2,-9,2,-1,0
1533863985185365,-1,2,1,0,5,0,0,-1
1533863985186360,1,0,-1,-2,-2,-9,-4,-1
1533863985186360,0,-8,-5,-2,-1,-3,-2,3
1533863985208304,-6,0,-30,-5,-3,4,2,-2
1533863985208304,-2,3,29,4,3,-1,-1,1
1533863985209299,-1,-5,2,-2,-7,-2,-4,-2
1533863985209299,1,3,2,-2,-1,-1,-1,0
1533863985231256,-1,-8,-3,-1,3,0,-2,-1
1533863985231256,-2,-4,-10,-3,1,-2,0,0
1533863985232237,-1,-5,-5,-3,-4,0,1,1
1533863985232237,-2,9,6,0,6,-1,-2,-6
1533863985245202,2,1,8,0,-1,0,-1,7
1533863985245202,-10,-2,-8,-2,-4,-2,-1,-8
1533863985261161,-3,-2,4,-2,-2,-2,-3,-10
1533863985261161,3,0,-5,1,2,-1,0,1
1533863985268141,-2,-3,5,-2,-4,-3,-3,-1
1533863985268141,1,0,-5,0,-2,-2,-1,0
1533863985269138,-1,2,-7,-3,-2,1,2,5
1533863985269138,-4,-8,-2,0,0,-6,-5,-9
1533863985291083,0,-1,5,-1,-2,1,2,4
1533863985291083,1,11,0,-2,2,3,-6,-3
1533863985292085,-2,-14,-3,-2,-5,-9,-10,-3
1533863985292085,0,1,-1,-2,-3,-7,6,-1
1533863985305042,2,-2,5,2,8,15,4,-2
1533863985305042,0,-1,-4,0,-5,2,0,0
1533863985313021,-3,1,0,1,4,-6,0,-1
1533863985313021,-2,3,-1,-2,-19,-11,-13,-3
1533863985327981,-1,-6,-5,-2,-2,-5,-4,-3
1533863985327981,-2,-5,-5,-1,8,8,15,4
1533863985328988,-1,2,-2,-2,-3,-1,-7,-7
1533863985328988,0,-2,-1,-1,3,-13,-5,3
1533863985350923,1,7,3,0,-1,-14,-1,-5
1533863985350923,2,-5,-4,0,5,28,3,3
1533863985351917,-3,-1,1,0,-5,-10,7,7
1533863985351917,-4,0,-4,-3,-7,16,10,-4
1533863985365099,-1,0,5,8,36,0,-5,-1
1533863985365099,-3,15,0,-12,-47,-17,-9,1
1533863985373078,-3,-7,-4,-1,-5,-1,-4,-4
1533863985373078,-3,-14,-10,-1,10,1,-1,-2
1533863985387824,0,1,1,-4,-18,-6,-11,-9
1533863985387824,1,-4,-5,-4,6,-11,2,2
1533863985388819,1,2,-3,-1,0,1,-4,1
1533863985388819,-2,3,2,0,0,2,3,3
1533863985411772,1,-1,-2,-2,-3,3,6,3
1533863985411772,-1,-6,-1,3,9,-5,-4,-6
1533863985411772,-1,-2,-4,-3,-9,0,-1,-1
1533863985411772,2,-2,0,1,12,3,-1,0
1533863985424725,-2,-1,-1,-1,-8,2,0,0
1533863985424725,-2,-1,-2,-2,-1,-9,-6,-1
1533863985433701,1,-1,-1,1,6,2,2,0
1533863985433701,1,1,1,1,-3,1,0,-1
1533863985448662,-3,-1,-2,-2,-11,-3,-1,-2
1533863985448662,0,-7,-2,1,3,-6,-2,-1
1533863985448662,-2,-2,-3,-2,3,6,2,-1
1533863985448662,-1,3,4,-2,-3,1,-2,-2
1533863985471631,-2,3,0,-5,-9,-4,0,-2
1533863985471631,-1,-9,-5,2,6,-1,-3,-2
1533863985471631,1,2,-4,-1,1,-2,-1,-1
1533863985471631,0,2,43,3,-2,2,1,2
1533863985485599,-5,-3,0,-1,2,-2,2,0
1533863985485599,0,1,-1,-1,3,-2,-1,-1
1533863985486599,-2,3,5,-3,-10,-1,0,-2
1533863985486599,0,1,-13,-3,-2,-4,-3,-1
1533863985508502,-1,3,-3,-1,-4,-2,-2,-4
1533863985508502,2,3,8,-1,1,-3,-2,-1
1533863985508502,-5,-14,-8,0,0,-1,2,0
1533863985508502,-3,-5,-16,-2,1,1,1,0
1533863985531438,0,-3,-4,-1,0,-3,-1,1
1533863985531438,0,2,-6,-2,-3,-1,-4,0
1533863985531438,3,5,7,0,3,0,-3,-1
1533863985531438,-1,-3,-6,-1,-3,0,0,-1
1533863985545413,-4,-8,-5,-4,-1,0,-1,-4
1533863985545413,1,-3,-2,-2,-1,-2,-1,-2
1533863985546397,0,3,-2,-1,-2,-1,-2,-1
1533863985546397,1,2,0,2,6,-2,-1,0
1533863985568341,1,3,-2,-2,1,-4,-2,1
1533863985568341,-3,-4,0,0,-2,-5,-4,-3
1533863985569336,-3,-1,-2,-3,-5,-6,-2,-2
1533863985569336,0,-2,-10,-3,5,0,0,0
1533863985591280,-1,0,0,-3,-7,-5,-8,0
1533863985591280,-1,-3,-3,2,-3,0,6,-1
1533863985592274,2,5,1,-2,7,17,2,3
1533863985592274,-2,-4,-4,-2,-6,-1,3,-1
1533863985605239,0,0,1,2,3,-5,3,0
1533863985605239,-3,-2,-2,-3,-14,-10,-11,2
1533863985607235,-4,-4,-5,-2,-5,-23,-7,-6
1533863985607235,5,2,1,1,23,19,-3,-9
1533863985628197,4,2,2,0,-14,25,20,12
1533863985628197,-8,0,0,3,9,2,17,1
1533863985629176,-2,0,0,3,0,-1,-6,-1
1533863985629176,-2,2,-3,-2,-7,-28,-19,-4
1533863985651117,1,-5,-4,-2,2,-3,-4,-6
1533863985651117,2,-3,0,1,9,2,-8,-3
1533863985652114,-1,-3,-1,-1,-3,-6,1,-5
1533863985652114,-5,-7,-8,-9,-32,-7,-9,-3
1533863985666080,0,-2,0,-4,12,3,4,-1
1533863985666080,2,0,-1,0,-1,4,0,0
1533863985666080,1,-7,1,3,19,7,-2,2
1533863985666080,0,-5,0,-2,-11,-22,-10,-1
1533863985688019,-3,0,-4,-4,1,14,10,2
1533863985688019,-1,-1,-1,-3,-6,16,6,-2
1533863985689015,1,-8,-6,2,1,-9,0,6
1533863985689015,-3,3,0,0,3,3,-6,-5
1533863985710956,-1,-2,1,2,4,-13,-3,-2
1533863985710956,1,4,5,1,7,5,4,0
1533863985711972,1,2,1,-1,-7,5,2,-2
1533863985711972,-4,11,0,0,0,-3,2,2
1533863985725920,-3,-4,-6,1,-10,-15,-16,-8
1533863985725920,0,-2,-5,-2,-1,-3,-3,-3
1533863985725920,-1,0,-3,-3,-3,1,0,0
1533863985725920,-2,-2,0,-1,0,2,4,0
1533863985747861,-3,3,3,0,-4,2,-3,-4
1533863985747861,-1,-3,-1,0,0,-5,-5,0
1533863985748868,-1,0,-2,-3,-4,0,-2,-3
1533863985748868,0,-1,2,-1,2,6,6,0
1533863985771880,-1,-1,-3,-4,-16,-5,-4,-1
1533863985771880,-1,-4,-5,-8,-9,-5,-3,-3
1533863985771880,-1,2,-1,1,-1,2,1,-2
1533863985771880,0,-1,-2,0,3,7,4,2
1533863985784762,-1,-1,0,2,7,-6,-5,-2
1533863985784762,-1,-2,0,-1,-2,-5,-5,0
1533863985792738,-2,1,1,-3,-13,2,1,-1
1533863985792738,1,0,-33,-4,8,-2,-1,2
1533863985816695,-2,-9,0,-2,-8,-3,-2,0
1533863985816695,0,-1,2,2,2,-3,-2,1
1533863985816695,3,0,1,1,1,3,-2,-2
1533863985816695,1,13,-1,-2,2,3,4,1
1533863985831634,-5,-31,38,13,8,3,3,1
1533863985831634,0,-6,-1,2,1,-4,-1,2
1533863985831634,-6,-2,3,-3,-2,-2,-1,-7
1533863985831634,0,-3,-6,-1,-2,1,1,0
1533863985844599,1,15,-15,-6,-3,-4,-4,-1
1533863985844599,-3,-1,5,-1,-4,-2,-4,-4
1533863985853576,6,-2,0,0,0,-3,0,5
1533863985853576,-4,-3,7,0,-6,-1,2,24
1533863985868538,-1,2,-7,-7,1,-2,-4,-26
1533863985868538,-2,-1,-4,-1,-1,-3,3,6
1533863985868538,0,4,-10,-5,-2,-2,-4,-37
1533863985868538,-1,-9,4,1,-1,1,3,21
1533863985891477,0,4,-5,-4,0,0,-8,3
1533863985891477,-2,-3,-7,0,0,-4,-4,2
1533863985892491,5,1,2,-5,-3,-1,4,17
1533863985892491,-6,8,3,-1,-4,3,0,-43
1533863985905602,4,-3,-5,-1,11,-4,-7,14
1533863985905602,-9,1,-3,-4,-23,-11,-6,-35
1533863985913612,4,-4,-2,2,18,10,6,30
1533863985913612,2,-3,3,-5,-20,-4,4,15
1533863985928389,-2,8,-7,-3,3,3,3,-2
1533863985928389,7,0,0,2,11,1,1,1
1533863985929372,-6,0,3,2,-2,-5,-5,-8
1533863985929372,4,-2,1,0,3,7,6,28
1533863985952457,-1,3,-3,-4,-18,-9,2,-10
1533863985952457,-3,-4,-1,-1,2,-2,-16,0
1533863985953562,-1,-3,-4,6,22,4,-1,-14
1533863985953562,-1,-7,3,4,14,-2,-1,-18
1533863985966276,6,-2,-9,-17,-55,-1,-1,45
1533863985966276,-9,1,-1,1,19,-12,-3,-18
1533863985973256,-1,0,-4,-7,-28,11,4,-1
1533863985973256,-1,0,5,3,11,2,-2,-12
1533863985988249,-1,-7,-3,0,5,-7,3,16
1533863985988249,2,-7,-7,1,17,-6,0,7
1533863985989247,-5,-3,-3,-9,-41,-6,-6,0
1533863985989247,0,-3,2,2,5,0,-3,-10
1533863986011157,-3,0,-1,0,13,9,4,-14
1533863986011157,3,4,0,-3,2,2,-3,9
1533863986012152,-3,-4,0,0,7,-10,-12,-17
1533863986012152,-2,-3,-2,-4,-10,10,3,-7
1533863986025116,2,7,3,7,19,-2,0,-6
1533863986025116,-9,-3,-2,-2,-9,13,13,-11
1533863986033099,1,1,0,0,1,-3,1,12
1533863986033099,-1,-3,-3,-3,-7,-11,-8,-4
1533863986048058,-5,-3,-2,2,21,0,-8,-11
1533863986048058,6,0,0,-6,-26,-5,0,13
1533863986049053,-5,-1,-2,0,6,1,3,19
1533863986049053,-4,1,-1,-4,-9,1,-7,-16
1533863986070994,-1,2,-2,0,2,3,4,5
1533863986070994,-1,-6,-4,-1,-2,1,-5,-15
1533863986071991,0,2,0,-4,3,-3,-2,-1
1533863986071991,1,-8,-1,-1,1,-2,1,4
1533863986084957,-3,-6,-1,0,2,-4,-1,-1
1533863986084957,-1,1,2,-1,-3,1,-2,-7
1533863986092954,1,2,-6,-2,-1,-1,-2,10
1533863986092954,-1,-2,-2,-1,8,-2,-3,3
1533863986107898,-5,-5,-1,-2,-7,3,-1,-9
1533863986107898,-2,0,1,-2,1,2,2,6
1533863986108892,-2,-5,-3,0,3,0,2,-13
1533863986108892,3,6,0,0,-6,-7,-6,-2
1533863986131837,0,3,-3,-2,-3,0,-2,0
1533863986131837,-2,-4,-12,-1,0,0,-1,3
1533863986131837,0,-4,14,0,2,-3,0,3
1533863986131837,-5,-3,-1,-4,3,-2,-1,2
1533863986154145,-2,2,9,-1,-24,-4,-4,-10
1533863986154145,3,3,15,-2,1,2,6,12
1533863986155025,-2,1,-6,-2,-4,-1,-5,-10
1533863986155025,-2,-3,-33,-6,-2,-5,-3,-9
1533863986167991,-1,-2,2,3,8,-2,-2,-6
1533863986167991,1,18,-5,0,1,-2,1,22
1533863986168989,-4,-5,0,-3,-12,-4,0,-11
1533863986168989,2,-4,-1,0,3,0,4,27
1533863986190929,-6,-11,-13,-2,4,0,-3,-31
1533863986190929,1,-2,-1,0,-2,-2,-3,1
1533863986191926,3,6,3,1,5,-2,0,0
1533863986191926,-7,4,11,0,-4,0,-1,-4
1533863986213868,4,3,1,-3,4,-1,1,11
1533863986213868,-1,-6,2,-2,-6,-2,-3,-6
1533863986213868,-5,-5,-9,1,4,1,-1,-5
1533863986213868,2,-2,4,-1,-10,-4,-2,-7
1533863986227837,-4,-1,-1,-3,5,-5,-3,0
1533863986227837,0,-2,-3,-3,-6,3,0,1
1533863986228827,-4,3,-1,1,0,2,3,-10
1533863986228827,0,-3,1,2,9,-2,-4,3
1533863986251767,-4,1,-2,-1,-3,-3,-2,5
1533863986251767,0,-2,0,-3,-5,-2,0,1
1533863986251767,-3,-2,0,0,-11,-6,-5,2
1533863986251767,0,-1,2,-1,1,0,-4,-5
1533863986273711,3,2,-5,0,-4,-6,-7,2
1533863986273711,0,-4,-2,5,10,6,12,-4
1533863986274705,2,1,2,1,1,16,10,14
1533863986274705,-2,1,1,2,-1,-3,-8,-21
1533863986287840,-2,0,-2,3,1,1,-5,5
1533863986287840,-1,-1,-2,-3,-13,0,-1,-7
1533863986288668,4,-1,-1,-2,12,0,0,2
1533863986288668,-6,-1,-1,-6,-20,-25,-20,-3
1533863986311606,-1,-7,-6,-2,2,-2,2,1
1533863986311606,1,2,2,3,2,16,18,4
1533863986311606,-1,0,-1,-1,12,13,6,8
1533863986311606,-5,-2,1,-5,-7,-10,-10,-5
1533863986333551,0,0,-2,-3,3,-18,-15,-13
1533863986333551,-2,-5,-2,-8,-15,1,-1,2
1533863986334560,-4,2,-5,0,-1,10,9,-2
1533863986334560,-1,-5,-3,0,6,12,11,3
1533863986348508,-5,1,2,-3,-12,-9,-6,-6
1533863986348508,-1,-4,-3,-1,11,-14,-13,-2
1533863986348508,1,2,0,1,-5,-11,-9,-6
1533863986348508,2,-2,0,2,7,4,2,-1
1533863986372443,3,-1,0,0,0,6,5,3
1533863986372443,-2,2,-1,-1,-1,-1,-4,-2
1533863986372443,-3,-1,-3,-5,-8,-8,-5,-3
1533863986372443,0,3,1,1,0,3,6,3
1533863986393391,0,-5,-2,-2,-1,7,5,0
1533863986393391,-1,-5,21,0,2,-3,-6,-5
1533863986394406,-4,2,1,-1,0,-9,-5,-3
1533863986394406,1,-8,1,0,1,4,5,5
1533863986408393,-7,4,11,1,-3,5,3,-8
1533863986408393,1,2,-9,-1,0,-7,-10,-5
1533863986409344,-1,-4,-4,-3,-1,-5,-1,3
1533863986409344,-5,2,5,1,-1,1,5,0
1533863986431287,-1,-1,-7,0,0,4,2,2
1533863986431287,-3,-3,-7,-2,1,-4,-4,-1
1533863986432284,-3,-3,-3,-2,-5,-6,-4,-10
1533863986432284,4,1,-4,-1,-2,1,-3,-1
1533863986454339,5,8,-16,-5,-2,-1,-3,1
1533863986454339,-4,-9,2,3,4,1,6,17
1533863986454339,-4,-2,6,1,1,-1,-2,-12
1533863986454339,-2,1,3,-2,-1,2,0,-1
1533863986468187,0,-2,-7,-3,-4,-1,-3,-1
1533863986468187,2,1,-4,-1,3,0,-5,-6
1533863986469184,-7,-4,-9,-4,-13,-5,-3,-2
1533863986469184,6,-1,1,0,0,-1,1,11
1533863986491303,-3,2,5,2,0,0,3,4
1533863986491303,-2,1,-5,1,1,-3,-9,-11
1533863986492144,0,-5,1,-4,1,-2,-2,0
1533863986492144,-1,2,-2,-1,0,-2,0,-4
1533863986514068,-1,-2,3,-1,-1,0,2,-6
1533863986514068,-1,-1,-3,1,-2,-1,-2,7
1533863986514068,1,2,-4,0,0,-2,-5,0
1533863986514068,1,-2,-2,-3,2,1,2,3
1533863986528035,-6,-3,0,1,0,1,2,0
1533863986528035,-3,-2,-3,-4,4,-5,-4,-6
1533863986529025,-1,-1,0,-6,-18,-7,-8,-1
1533863986529025,-2,-2,-3,0,11,2,2,-3
1533863986551962,0,-3,5,0,-6,4,1,2
1533863986551962,1,2,-1,-3,1,8,4,-3
1533863986551962,0,-1,0,-1,-17,-6,-1,3
1533863986551962,-4,-4,-6,-4,-2,-20,-10,-9
1533863986573904,0,-1,-1,4,7,1,-2,-7
1533863986573904,1,4,1,2,6,22,1,13
1533863986574902,5,0,-1,3,12,10,6,17
1533863986574902,-9,-1,0,2,-7,0,6,-21
1533863986587867,-6,-4,-1,-1,-5,-9,-1,-3
1533863986587867,-2,-2,-3,-3,-6,-14,-7,-6
1533863986588873,0,-1,-1,-1,4,-4,-8,-2
1533863986588873,1,0,1,-2,-5,-4,-6,3
1533863986611803,1,-1,3,-5,7,0,0,6
1533863986611803,-4,-1,-1,-5,-15,-7,-3,-10
1533863986611803,0,1,0,-5,10,1,2,-3
1533863986611803,-6,-17,-8,-2,-2,-2,0,-1
1533863986633745,1,2,-1,2,2,-4,-10,-8
1533863986633745,0,-1,-1,-5,-19,-10,0,3
1533863986634742,1,-6,-3,-8,6,-24,-39,-13
1533863986634742,-3,-1,-2,-3,-5,-13,12,8
1533863986647711,7,6,5,0,1,58,34,17
1533863986647711,0,8,7,7,16,39,34,6
1533863986648704,-2,19,6,13,16,24,29,13
1533863986648704,-5,-11,-7,-2,-11,-13,-17,-11
1533863986671647,-5,-6,-3,-3,-9,-34,-24,-7
1533863986671647,-5,-9,-9,-4,-13,-28,-23,-9
1533863986671647,2,0,-2,-4,-4,-6,-11,-7
1533863986671647,-2,-1,-1,-1,-4,-1,-8,-3
1533863986693803,0,-1,-1,-3,0,-8,-2,-2
1533863986693803,1,-1,-1,-3,0,-2,-1,-2
1533863986695580,-4,-6,-3,-1,-2,-3,3,-2
1533863986695580,2,6,3,1,4,10,6,5
1533863986707547,-3,-6,-1,-1,-4,1,2,4
1533863986707547,1,2,-7,-3,6,-6,-8,1
1533863986715530,-2,-13,26,5,-1,1,7,-6
1533863986715530,-1,4,4,0,-5,7,3,5
1533863986731495,2,3,2,1,2,-4,-4,0
1533863986731495,-1,-4,10,0,-1,-5,-2,-1
1533863986732481,-1,3,-12,-2,-5,0,3,1
1533863986732481,2,-6,-4,0,1,5,-1,0
1533863986754441,0,-3,2,-3,0,-10,-5,1
1533863986754441,-3,-3,-12,-1,1,-2,-3,-3
1533863986754441,-2,-1,-5,-2,-7,1,2,-4
1533863986754441,2,5,1,-1,5,3,-3,2
1533863986767391,0,6,-3,-2,-2,-4,-3,-1
1533863986767391,-3,-11,-8,-3,-1,-1,2,-2
1533863986776363,-2,4,-12,-5,-1,0,0,-3
1533863986776363,1,4,10,1,-1,1,3,4
1533863986790331,-3,-10,-4,-3,-3,1,-2,1
1533863986790331,-2,-5,-4,-1,0,-1,-2,0
1533863986799302,2,1,1,-1,0,-2,-4,-7
1533863986799302,1,-8,-6,-2,1,0,-2,0
1533863986814262,-4,1,-2,1,-1,-3,-2,-12
1533863986814262,-1,3,1,0,-1,-2,-2,-2
1533863986815274,0,-5,-5,-2,-4,-1,0,2
1533863986815274,-1,5,2,-1,0,-1,-5,-2
1533863986827324,2,-3,1,-4,-4,-4,1,-9
1533863986827324,-4,-2,1,3,4,-3,-2,8
1533863986836202,-2,-7,-4,-3,2,-2,1,-4
1533863986836202,-2,6,2,0,2,15,-9,-2
1533863986850321,1,2,-5,-2,0,-15,-10,3
1533863986850321,3,-9,-6,-2,2,16,19,-2
1533863986859142,-6,5,2,1,-2,9,11,6
1533863986859142,-3,-7,-3,-1,3,-4,0,2
1533863986874105,-4,-3,-2,0,-4,-11,-13,-7
1533863986874105,-1,3,2,-2,-9,-10,-17,-9
1533863986875099,3,-3,-2,1,-1,1,9,16
1533863986875099,-5,-1,0,-1,1,6,13,-11
1533863986887072,-2,13,-1,3,16,5,2,8
1533863986887072,-3,-4,-2,-4,-32,-22,-18,-7
1533863986896057,3,-3,-2,0,12,-2,-6,-5
1533863986896057,2,4,-3,-3,-4,3,7,8
1533863986910006,1,0,3,-1,-8,4,1,4
1533863986910006,-1,6,7,-1,7,2,1,-8
1533863986926978,-6,-2,-8,-5,-17,-20,-14,-4
1533863986926978,3,-14,-15,0,29,-10,-8,-8
1533863986933942,-2,-2,4,-3,-15,19,14,6
1533863986933942,0,6,4,3,10,30,12,4
1533863986935937,-3,-3,3,2,-6,-6,0,1
1533863986935937,0,3,-3,-4,-12,-23,-20,-4
1533863986947904,-2,-7,-8,-3,4,-9,1,-4
1533863986947904,0,12,-2,1,12,10,15,4
1533863986956880,0,-3,0,-1,0,15,5,-2
1533863986956880,-4,0,0,1,-4,-3,0,4
1533863986970844,-1,-4,-4,-2,-3,-14,-15,-7
1533863986970844,-2,-3,-2,-5,-12,-17,-8,-2
1533863986977880,-2,-1,-1,1,3,1,-3,-2
1533863986977880,4,1,1,-2,-7,1,-2,0
1533863986993782,-3,-5,0,-2,-3,3,2,-2
1533863986993782,0,0,1,0,6,-1,-4,-2
1533863986995778,-2,1,-14,-9,-2,-2,-3,-2
1533863986995778,-1,0,1,0,5,2,-1,-2
1533863987016737,1,3,40,7,-8,-3,3,2
1533863987016737,-5,-11,-44,-6,0,-2,0,-3
1533863987017718,-2,-2,32,5,2,1,-1,-2
1533863987017718,1,5,15,-2,-10,2,4,-1
1533863987030704,2,1,-7,-1,7,3,1,-2
1533863987030704,0,-6,-6,-2,0,-8,-6,-2
1533863987037665,-2,-3,0,2,-7,-4,-3,-1
1533863987037665,-3,1,-11,-1,2,4,1,0
1533863987053622,-1,-8,-8,3,6,0,0,1
1533863987053622,2,-8,6,-1,-5,-8,-10,-4
1533863987055643,5,8,-22,-1,0,-3,-5,-5
1533863987055643,-4,-3,37,-2,-1,9,10,5
1533863987076778,-2,2,-33,-11,-4,-1,-3,0
1533863987076778,-4,5,31,8,1,2,4,2
1533863987077557,-6,-11,-11,0,1,0,1,-1
1533863987077557,-4,-8,-5,0,-6,-1,-1,0
1533863987090526,-1,0,-3,-5,-4,-2,-2,-3
1533863987090526,3,-7,-1,-3,2,-4,-2,14
1533863987097508,-2,-1,6,1,0,-4,-4,-23
1533863987097508,4,3,-8,-2,-3,-3,-2,3
1533863987113548,1,-1,1,-1,0,0,-1,0
1533863987113548,1,6,5,1,0,-3,-6,-6
1533863987115457,3,-9,-7,-3,-4,-3,-3,7
1533863987115457,-3,3,-10,-3,-6,-1,-1,-1
1533863987136401,-6,2,1,-1,-3,2,-2,-9
1533863987136401,-1,-5,-7,-2,2,-3,-5,4
1533863987138394,-8,1,-3,-1,5,2,8,-9
1533863987138394,4,4,-6,-1,2,-5,-4,6
1533863987150382,1,-3,4,1,1,7,3,-1
1533863987150382,-3,4,6,0,6,6,1,-6
1533863987159358,1,-5,-3,-5,-9,-11,-9,10
1533863987159358,0,0,-4,0,-3,-4,1,-6
1533863987173335,-5,-2,-6,-2,-5,-10,-8,1
1533863987173335,-2,-3,-5,-3,-7,-10,-3,-8
1533863987175296,4,3,8,6,19,18,12,3
1533863987175296,2,12,0,2,-4,24,9,2
1533863987204222,-5,-16,-9,1,-6,-11,0,-2
1533863987204222,-2,-1,-1,-1,-11,-16,-13,-8
1533863987205217,0,-1,-2,-4,1,-13,-5,0
1533863987205217,1,-3,-2,-2,-13,3,3,-4
1533863987210203,1,4,5,3,5,1,-4,-2
1533863987210203,-1,-2,-1,-5,4,11,11,3
1533863987219227,-1,2,3,3,-1,2,-5,10
1533863987219227,-12,-13,-10,-2,23,-16,-9,-22
1533863987233148,-2,-4,-5,-1,-5,21,23,5
1533863987233148,3,6,1,-2,-8,7,-2,5
1533863987240331,-4,4,0,0,-4,-12,-9,-4
1533863987240331,2,-3,-2,0,0,-13,-14,-1
1533863987256080,3,3,0,-9,-25,5,-4,-1
1533863987256080,-4,-5,-5,1,12,-5,5,-6
1533863987258075,0,-6,-5,-5,-11,1,-6,-8
1533863987258075,-2,3,-7,0,4,-2,1,5
1533863987270062,2,1,0,3,20,1,2,-1
1533863987270062,0,4,1,1,-5,7,7,6
1533863987279031,0,4,31,1,-5,-3,-3,-1
1533863987279031,0,4,5,-3,-8,-10,-6,0
1533863987292985,-5,-10,-3,-4,1,-2,0,-2
1533863987292985,-1,-1,0,-3,-5,-1,-1,-2
1533863987299968,-3,-13,7,2,2,-6,-3,0
1533863987299968,-3,-2,4,-2,-2,3,2,-3
1533863987316958,0,3,2,0,-2,1,-1,-1
1533863987316958,-1,-3,0,1,3,-3,-2,-4
1533863987317915,1,2,-11,-2,0,1,2,7
1533863987317915,-1,-1,-4,-2,-9,4,1,-6
1533863987329892,-6,-2,-4,-2,1,-5,-6,-12
1533863987329892,-3,-3,-2,-2,4,-4,-3,-3
1533863987338875,-1,2,-10,-3,-5,3,4,1
1533863987338875,-2,-6,-1,-2,-4,0,0,5
1533863987353822,2,2,-4,0,2,-9,-6,0
1533863987353822,1,4,0,-1,1,-2,-5,-4
1533863987355814,0,1,-5,-2,0,5,3,-3
1533863987355814,0,-8,-22,-9,-2,-3,0,2
1533863987376757,-6,-10,9,3,3,-1,1,2
1533863987376757,0,4,2,-3,-14,-4,-2,-1
1533863987377754,-2,-6,6,-3,-1,-1,-1,-2
1533863987377754,0,5,-6,-2,-4,-2,-4,-2
1533863987389726,2,2,-7,-2,2,-1,1,4
1533863987389726,-2,-4,1,-2,-2,2,1,-2
1533863987398700,0,2,-14,-3,-2,-1,-2,2
1533863987398700,-2,-3,3,1,8,0,0,1
1533863987413662,-4,2,1,-1,-3,-2,-3,-11
1533863987413662,1,-2,-1,1,2,-3,-1,2
1533863987415652,0,-3,-4,1,-1,1,0,-2
1533863987415652,4,8,10,-1,-1,0,0,4
1533863987436601,2,-11,3,1,0,-2,-3,3
1533863987436601,-1,-1,-9,-3,-2,-2,-1,-4
1533863987437594,-4,-6,-10,-3,1,2,-1,-1
1533863987437594,-3,-9,5,1,-4,1,-1,-5
1533863987458538,1,10,-1,0,-2,-3,-4,3
1533863987458538,0,1,0,-3,-4,-3,-4,2
1533863987460534,1,0,-1,0,-4,-6,0,-2
1533863987460534,-1,0,3,0,-7,2,3,0
1533863987481481,1,2,-3,4,19,9,2,-2
1533863987481481,-4,-4,0,-2,-21,-6,-4,2
1533863987482475,-2,2,2,1,-2,-8,2,-2
1533863987482475,2,-2,-4,-3,-1,4,-3,0
1533863987496439,-2,-3,-4,-5,-2,-8,-2,3
1533863987496439,-2,-3,-2,0,4,-8,-6,-6
1533863987497461,3,3,-1,1,-1,5,-4,-2
1533863987497461,2,1,3,3,-3,12,12,2
1533863987518378,1,1,3,4,15,9,6,4
1533863987518378,-6,-2,-1,-2,-10,-6,-3,-6
1533863987520373,-3,-4,-8,-4,-13,-20,-18,-7
1533863987520373,-2,-5,-3,-3,-6,-24,-12,-13
1533863987533342,0,1,0,-7,3,19,17,12
1533863987533342,-4,0,0,2,3,15,4,0
1533863987540338,-2,0,1,0,1,16,11,4
1533863987540338,-3,-1,5,7,13,-6,-5,6
1533863987556283,-1,-1,-6,-12,-50,-22,-17,-13
1533863987556283,1,-4,-2,-4,2,-3,4,5
1533863987558272,2,-1,-1,-1,0,8,3,1
1533863987558272,-2,2,0,-1,-5,-19,-14,-4
1533863987570240,-1,-2,-2,1,1,-5,-6,-3
1533863987570240,2,-2,-1,1,8,7,6,1
1533863987579235,-5,-3,-2,-1,0,6,8,-2
1533863987579235,-3,0,-2,-2,0,1,4,0
1533863987593178,-1,6,3,3,1,-5,-7,-2
1533863987593178,-1,-5,-1,0,2,-5,-10,-3
1533863987600364,-3,1,0,-3,1,-4,-2,-4
1533863987600364,1,-3,-3,-5,-1,7,1,-4
1533863987616317,0,-4,-6,-2,1,-5,-3,0
1533863987616317,0,0,0,-1,-1,-2,1,-1
1533863987618141,-2,0,-2,-1,-1,-1,1,1
1533863987618141,-3,-3,0,0,-2,4,1,2
1533863987630080,-2,1,1,-1,1,1,-4,-3
1533863987630080,0,1,1,-1,0,-3,0,-3
1533863987639056,0,-1,-1,-2,0,-1,-3,-1
1533863987639056,1,4,-2,-1,-2,0,-1,-3
1533863987654219,-2,-3,-1,1,2,-3,4,-2
1533863987654219,-1,2,-3,-1,-1,1,-2,2
1533863987655035,-2,-1,3,-1,0,-3,-4,-3
1533863987655035,-3,-3,-5,-1,-2,2,-1,-3
1533863987683937,3,0,-12,-3,-3,-6,-4,-1
1533863987683937,2,3,3,-5,0,-1,-2,0
1533863987685931,-5,-27,-18,-4,1,0,-1,-2
1533863987685931,-3,0,40,4,-4,-2,2,-2
1533863987689968,-1,0,7,2,-1,-2,2,7
1533863987689968,0,-18,-75,-4,0,-1,-5,-15
1533863987698901,-12,4,61,9,2,3,5,-2
1533863987698901,1,-2,-2,-1,-7,0,-1,3
1533863987712882,1,-2,2,-2,14,2,-3,-1
1533863987712882,-6,5,-4,-1,-11,-4,1,-1
1533863987721854,6,8,-22,-2,1,-4,-4,-2
1533863987721854,-1,-7,-14,-3,-6,1,0,0
1533863987736795,-3,3,9,1,-9,-1,0,-3
1533863987736795,1,2,8,-1,0,0,-2,9
1533863987737792,3,4,-4,0,-2,-5,-8,-15
1533863987737792,-5,3,3,1,2,-5,-3,1
1533863987759848,5,-4,-19,-2,6,8,13,25
1533863987759848,1,3,20,4,9,-1,-1,-21
1533863987760731,-1,-1,-7,-3,-6,1,0,5
1533863987760731,-4,-1,-18,-6,-2,-6,-9,-6
1533863987773705,-5,-1,2,0,-7,-2,-3,-9
1533863987773705,-2,-1,8,0,1,2,-1,7
1533863987779857,1,2,1,-4,-7,-10,-5,2
1533863987779857,3,1,-8,-1,4,16,18,-4
1533863987796810,-4,0,4,2,1,3,-3,0
1533863987796810,-3,0,13,2,-3,-5,-5,0
1533863987797818,-2,0,-16,-4,1,2,6,-4
1533863987797818,1,-1,-2,-1,5,3,-4,4
1533863987818754,-5,-3,-1,-3,-8,-8,-2,-5
1533863987818754,-6,-4,-2,-3,-3,-8,-4,2
1533863987820746,4,3,-1,-1,-1,-1,-1,6
1533863987820746,-3,-1,-1,-1,-2,-2,0,3
1533863987833767,4,0,2,-1,0,0,-3,-7
1533863987833767,3,-2,1,-3,-2,-2,-3,-6
1533863987839698,-5,-4,-5,-5,-4,-5,-12,-2
1533863987839698,1,1,1,0,4,11,15,1
1533863987856653,-1,-1,-3,-2,0,-4,-7,6
1533863987856653,-3,-4,-1,-2,-5,-10,1,2
1533863987857647,0,0,-2,1,4,19,9,6
1533863987857647,-1,-3,-6,-1,-5,-10,-17,-13
1533863987878591,-4,-2,-4,-3,1,-14,-9,-16
1533863987878591,3,3,5,0,-14,2,14,7
1533863987880586,1,-1,-1,4,17,4,8,0
1533863987880586,0,0,-2,2,3,13,10,5
1533863987892557,0,-3,0,0,0,5,-4,-2
1533863987892557,-3,0,2,1,3,-6,-5,-1
1533863987901538,-1,-2,-5,-2,-9,-15,-15,-11
1533863987901538,1,-4,-2,-6,-6,-5,-10,-1
1533863987916489,1,-3,-3,-3,-3,-15,-8,-1
1533863987916489,-3,0,0,-2,9,13,5,-7
1533863987917487,1,0,-1,0,-1,1,3,11
1533863987917487,-7,-3,-1,9,1,-8,-9,-35
1533863987930452,4,3,5,-4,2,10,4,4
1533863987930452,6,1,1,14,-1,-4,-3,18
1533863987939428,-11,0,-5,-16,-26,0,5,-6
1533863987939428,12,1,-1,-10,17,2,2,4
1533863987953391,-5,-8,-5,0,-7,0,-2,-10
1533863987953391,-3,1,0,-2,-1,-8,-8,-8
1533863987960375,3,-5,1,2,5,-13,-9,-2
1533863987960375,-1,2,-2,4,0,4,3,6
1533863987976345,-2,0,1,0,4,2,4,-4
1533863987976345,5,2,2,-1,-5,7,2,2
1533863987978334,1,0,-1,2,-1,2,-4,1
1533863987978334,-5,-3,-4,-8,-3,-10,-4,0
1533863987999272,-1,0,-1,-4,-20,-7,-5,-2
1533863987999272,-3,-3,-3,-4,-3,-6,-5,-5
1533863988000266,1,0,1,1,7,9,18,1
1533863988000266,-1,-1,0,4,-1,14,4,8
1533863988013234,-8,1,-1,0,3,-13,-7,-12
1533863988013234,1,1,-1,-2,3,12,-1,-1
1533863988020215,-1,-1,-2,1,1,-4,-9,-4
1533863988020215,1,-2,-2,-4,-1,-11,-3,2
1533863988037170,1,-1,-1,5,-2,3,6,0
1533863988037170,-4,-3,-3,-1,-8,-9,-5,-5
1533863988038164,-1,-1,0,-2,-1,-4,-4,-2
1533863988038164,-3,-2,0,1,-13,-7,-4,0
1533863988059111,1,0,-1,-8,5,0,-2,-2
1533863988059111,-2,-2,0,5,2,4,0,0
1533863988060106,1,-3,-3,-15,-8,-12,-9,-3
1533863988060106,-2,1,1,-7,11,-1,5,2
1533863988073133,-1,-1,-1,-5,-20,1,6,2
1533863988073133,-1,1,1,3,9,16,13,3
1533863988081053,-4,0,1,8,4,10,4,-4
1533863988081053,-2,-4,-5,-4,-30,-21,-12,-8
1533863988097006,1,0,1,6,22,6,1,3
1533863988097006,-4,-2,-1,-3,-8,-4,1,2
1533863988098005,1,0,-1,-1,2,2,2,2
1533863988098005,-2,-2,-3,1,-3,-5,-7,-3
1533863988117951,0,-1,-2,2,1,-2,3,-1
1533863988117951,1,-1,-2,-3,-2,-3,-7,-3
1533863988126927,0,2,1,1,2,-1,-2,0
1533863988126927,-2,0,2,2,7,5,5,4
1533863988132914,0,-5,-3,-8,-26,-38,-39,-12
1533863988132914,1,-4,-3,-1,15,10,24,2
1533863988141887,2,3,4,-6,-1,39,22,10
1533863988141887,-5,-2,2,-1,0,8,8,2
1533863988156954,-3,3,2,4,2,12,5,3
1533863988156954,-3,-6,-6,0,12,-19,-20,-8
1533863988157845,-1,-3,-20,1,-6,-21,-12,-5
1533863988157845,3,-2,4,0,-4,3,-4,-1
1533863988178790,0,-4,-3,-10,-7,-1,2,-2
1533863988178790,0,0,4,8,1,3,-1,-3
1533863988180795,1,0,-5,-14,1,0,1,0
1533863988180795,-2,1,31,-2,-3,-6,-7,-2
1533863988192750,-2,-2,-1,3,-1,3,4,1
1533863988192750,0,1,-2,-10,-2,3,0,-1
1533863988201727,-2,-1,11,13,0,-5,-5,1
1533863988201727,0,-2,-9,0,-5,-4,-3,-2
1533863988216690,-2,-3,-5,-9,-1,6,5,1
1533863988216690,-2,0,5,-1,-3,0,-3,1
1533863988217702,-1,-3,-4,-4,-7,-12,-7,-7
1533863988217702,1,-1,-9,-3,3,1,-1,1
1533863988238833,-2,-3,-3,10,5,6,4,3
1533863988238833,-3,-2,-7,0,-1,-4,-6,-4
1533863988240657,0,-7,2,7,3,-4,-3,-2
1533863988240657,-1,4,-7,-16,-7,-3,0,0
1533863988252798,-2,1,5,18,5,0,0,0
1533863988252798,-7,-2,-3,-6,-11,-4,-4,0
1533863988261566,1,-3,-15,-19,-7,-8,-5,-1
1533863988261566,0,-7,-16,7,-1,-1,-1,-1
1533863988276532,-2,5,3,15,18,6,4,-3
1533863988276532,-3,-8,0,-17,-15,-9,-4,-4
1533863988277526,1,3,9,15,4,6,0,2
1533863988277526,1,0,-10,-23,-13,0,-2,-1
1533863988299470,0,0,-1,19,15,1,-1,-1
1533863988299470,1,-2,5,4,-3,-3,-1,-4
1533863988300471,-2,-3,-9,-22,2,-7,-3,-7
1533863988300471,3,5,-1,-2,-3,4,6,10
1533863988312458,-4,-3,1,6,2,1,-5,-5
1533863988312458,-3,1,7,24,10,2,2,9
1533863988321407,0,-3,6,24,0,-6,-1,-5
1533863988321407,-2,2,2,33,9,-3,-6,-11
1533863988336366,3,-3,-8,-116,-19,-2,2,1
1533863988336366,0,2,-15,10,1,-1,-4,-2
1533863988338361,-5,-6,19,-17,-17,-5,-4,-1
1533863988338361,-1,-4,13,-9,3,0,0,1
1533863988359308,-2,3,-49,28,-3,0,-2,-6
1533863988359308,1,-11,49,31,10,2,4,4
1533863988360303,1,5,-11,-28,-1,2,-4,-2
1533863988360303,5,6,40,-30,13,3,-1,3
1533863988372274,-4,-1,61,-6,-13,-5,-2,4
1533863988372274,-1,6,-11,50,-10,-3,-12,-13
1533863988381250,1,3,10,43,10,1,4,8
1533863988381250,1,-8,-19,-42,-12,-2,-2,-4
1533863988404188,5,-1,-9,-2,18,3,3,11
1533863988404188,-6,-1,-13,-17,-31,-2,-2,-23
1533863988405195,-2,-3,2,1,-5,-3,1,-2
1533863988405195,3,3,-3,27,16,-4,-9,-10
1533863988419145,-8,-9,-28,-5,-11,-11,-6,-1
1533863988419145,-3,-9,-81,-30,-3,5,6,18
1533863988420143,2,14,84,48,31,1,-3,-2
1533863988420143,-3,9,-121,-77,-37,0,2,-3
1533863988441291,12,9,103,93,0,0,0,10
1533863988441291,-5,-15,34,-32,5,-10,-4,3
1533863988443107,-8,-9,-41,-25,-7,-3,-5,-7
1533863988443107,-2,-5,0,63,38,11,11,6
1533863988456050,-8,-11,-20,27,-29,-5,-7,-12
1533863988456050,4,13,-123,-40,18,-2,-4,-2
1533863988462030,-4,6,86,45,5,8,6,7
1533863988462030,16,-3,76,52,-17,-9,-7,-5
1533863988478985,-4,-2,-25,-29,-5,5,3,-10
1533863988478985,-2,-2,18,-5,4,1,4,4
1533863988479983,3,3,-72,-44,0,5,-2,-4
1533863988479983,-21,-30,105,98,22,-12,-14,-2
1533863988500926,4,14,-7,-42,24,10,13,19
1533863988500926,-1,-17,66,0,-5,-11,-11,-24
1533863988502921,-5,-10,-29,-5,-36,-5,-1,-6
1533863988502921,-2,6,-42,9,-20,-1,-1,-4
1533863988514925,1,-3,-17,-5,3,-3,0,2
1533863988514925,4,12,16,-16,10,4,2,9
1533863988523865,3,1,-36,-14,-3,-7,-4,-2
1533863988523865,-2,2,-2,-14,-4,0,5,7
1533863988538825,-6,-16,-87,-32,-4,4,1,-5
1533863988538825,2,2,5,13,-1,9,3,5
1533863988540820,2,8,34,14,3,-3,-2,-2
1533863988540820,-8,-17,-82,-73,-16,-3,-3,-4
1533863988552791,4,-4,60,22,18,-9,-7,-3
1533863988552791,1,7,22,9,-18,1,1,-2
1533863988561780,-1,-7,68,45,17,1,2,9
1533863988561780,-10,-1,56,4,6,-1,-1,-1
1533863988576728,0,-9,61,1,-6,-2,-3,-2
1533863988576728,-2,-4,25,4,-13,-5,-3,0
1533863988577739,-1,-9,-62,-22,4,4,2,1
1533863988577739,4,10,-4,-4,21,10,0,-1
1533863988600660,-4,0,-42,-3,-8,-6,-2,-8
1533863988600660,2,2,-9,1,-1,2,0,14
1533863988601656,3,-4,-34,-18,17,-4,2,1
1533863988601656,0,3,-26,-13,-20,-1,1,0
1533863988612679,1,5,-51,4,4,10,1,-2
1533863988612679,5,7,54,19,9,0,1,0
1533863988621604,-3,5,54,-18,-38,-10,-4,-4
1533863988621604,-4,-1,-18,6,5,-3,-1,1
1533863988636573,-3,4,-20,3,2,-2,-2,-5
1533863988636573,1,-2,42,-10,-9,-3,-1,-3
1533863988637621,-5,-6,-32,-22,-8,0,-2,-3
1533863988637621,4,5,25,34,9,0,4,9
1533863988659502,-5,0,-20,-13,-2,2,-3,-9
1533863988659502,-1,9,-25,8,-5,-5,-3,-7
1533863988660500,1,4,-15,20,1,1,-1,1
1533863988660500,2,-6,-20,-66,4,-2,-1,-2
1533863988672752,0,-6,-2,-18,-9,-4,-1,6
1533863988672752,-8,-6,-30,-10,2,0,-3,-1
1533863988681735,2,-3,-65,11,3,-2,2,12
1533863988681735,6,-4,37,44,16,8,-1,-16
1533863988696658,-10,-1,-2,27,-19,-4,-1,0
1533863988696658,5,5,-35,-20,1,-1,11,20
1533863988698649,-2,6,-11,-3,-6,-3,-13,-35
1533863988698649,-3,-16,-24,-2,3,-2,-7,5
1533863988718598,7,14,-53,-25,5,0,-1,-3
1533863988718598,-8,-2,15,12,1,5,3,-7
1533863988720590,-1,-19,76,17,11,5,7,16
1533863988720590,-3,-2,-14,-11,-3,-5,1,0
1533863988732561,-4,-9,26,16,-18,-3,-4,-8
1533863988732561,-1,-14,-114,-2,-4,-2,-3,5
1533863988741535,7,7,-48,-19,3,5,0,0
1533863988741535,-3,3,41,7,-11,-7,-5,-3
1533863988755499,-9,-3,39,2,0,-4,-2,7
1533863988755499,0,8,-1,20,25,2,-4,-14
1533863988762478,-3,-5,-47,-24,0,-1,-1,-4
1533863988762478,1,4,-7,5,-14,-1,0,-2
1533863988779432,2,0,-14,-2,-2,0,1,2
1533863988779432,3,-7,51,-11,-14,-4,-3,-1
1533863988780438,-6,-1,57,2,-2,-5,-1,2
1533863988780438,-4,11,-10,-14,-4,-4,-4,-16
1533863988792401,4,-3,2,1,2,-1,-1,1
1533863988792401,-6,-1,-3,1,8,1,-3,-10
1533863988801374,2,2,14,-3,-3,1,2,3
1533863988801374,0,11,8,-24,-11,-3,0,5
1533863988815347,1,6,56,8,4,-3,-2,-5
1533863988815347,-6,-14,-23,-14,-3,-1,-3,-8
1533863988822442,-4,-3,-83,5,-6,-4,-3,4
1533863988822442,1,7,66,4,5,0,1,4
1533863988839272,1,17,-20,-15,-3,-2,-3,-6
1533863988839272,2,1,-14,-8,-2,0,2,10
1533863988840269,-8,-32,-19,-2,-15,-5,-2,-3
1533863988840269,-2,-4,-41,1,19,7,0,0
1533863988852616,0,10,23,2,1,0,-2,-1
1533863988852616,2,-4,-30,-5,-7,-2,-2,-3
1533863988867419,4,14,7,-16,0,3,4,12
1533863988867419,-3,-11,22,13,-5,-2,-3,-7
1533863988876392,-2,-15,-50,10,4,-1,0,-2
1533863988876392,-5,-5,17,-16,-15,-2,-1,-1
1533863988882376,8,17,116,29,17,0,-2,-10
1533863988882376,-2,-4,-24,-56,-17,-4,0,7
1533863988899334,-3,-3,-3,14,5,0,-1,0
1533863988899334,-4,4,10,-3,0,-2,3,0
1533863988900327,-6,-4,-11,-2,-6,-2,0,-5
1533863988900327,2,-6,-45,-18,1,-4,7,9
1533863988921272,-1,-8,-1,-4,-7,-2,-14,-24
1533863988921272,-1,-1,-3,-6,10,2,-4,-6
1533863988923267,-4,6,-92,-28,-7,-6,-7,-7
1533863988923267,-4,1,-6,18,0,2,2,-6
1533863988936235,1,0,-20,-10,-7,-3,5,10
1533863988936235,4,10,31,6,5,-2,0,3
1533863988938227,-3,1,17,9,-3,-4,-3,-6
1533863988938227,-3,5,-93,-7,-4,-1,0,1
1533863988959340,-1,-3,55,-1,-4,-1,2,6
1533863988959340,-3,-2,10,11,1,0,-2,-5
1533863988960171,1,-2,3,-19,-2,-3,-2,2
1533863988960171,0,-3,-47,-12,1,-1,-5,-10
1533863988981112,-4,2,74,37,7,2,1,-2
1533863988981112,1,-13,28,-22,-7,0,0,-3
1533863988983115,-6,-7,17,0,0,2,-1,2
1533863988983115,1,-5,2,-7,-11,-3,-1,1
1533863988995109,4,-7,-23,-16,5,2,2,-1
1533863988995109,3,8,5,13,-1,-1,2,8
1533863989004056,-3,-19,-74,-18,1,-3,-7,-16
1533863989004056,-6,5,15,17,-7,-1,-2,0
1533863989019014,0,-5,-24,-31,0,0,2,8
1533863989019014,-6,-2,-23,0,-6,-4,-5,-7
1533863989020008,-1,0,-35,-11,-5,2,1,1
1533863989020008,1,4,12,34,1,-2,-4,0
1533863989040952,-2,-2,-13,-17,0,-4,-4,-4
1533863989040952,1,-7,-35,-21,2,4,4,4
1533863989042947,-2,-8,-82,0,-2,1,-3,-1
1533863989042947,-2,-2,-16,-19,-14,-6,-3,-12
1533863989056912,-3,7,58,40,5,1,2,-3
1533863989056912,2,-2,-42,-2,0,-5,-4,15
1533863989057906,-3,11,58,15,-4,-2,0,-5
1533863989057906,-10,-22,-57,-13,7,2,3,-11
1533863989078851,0,-3,41,-8,-7,-6,-5,-7
1533863989078851,4,8,36,-11,4,1,3,4
1533863989080844,-6,-2,33,10,-3,-1,-1,-3
1533863989080844,6,9,25,19,-1,-4,-6,5
1533863989101789,-2,-5,-56,-25,-4,-2,-2,1
1533863989101789,-1,0,1,13,-2,-2,-4,-6
1533863989102786,6,3,23,-22,-1,2,2,8
1533863989102786,2,-5,-53,33,5,1,0,1
1533863989115755,0,3,24,-2,-3,-1,-1,-2
1533863989115755,-7,0,33,28,1,2,1,-2
1533863989122733,0,3,24,1,7,-1,-1,-2
1533863989122733,0,19,-79,-23,-7,-5,-2,1
1533863989146673,2,-20,26,24,12,7,7,8
1533863989146673,-8,-11,-14,-32,-23,-8,-6,-9
1533863989147667,-5,-1,7,28,0,-3,0,4
1533863989147667,0,0,25,-13,2,3,5,11
1533863989161630,1,4,-58,5,3,-2,-7,-9
1533863989161630,4,6,10,12,-2,1,-2,-9
1533863989162627,1,5,61,-28,4,-2,-3,-4
1533863989162627,8,-3,46,32,-12,-5,-1,3
1533863989175595,-6,-1,-12,-18,1,-2,-3,1
1533863989175595,-2,-3,-17,11,6,-1,0,-8
1533863989183570,-1,-5,-31,-1,-4,-1,-1,1
1533863989183570,-3,2,70,-10,6,1,2,1
1533863989198530,3,9,-23,26,-1,-1,3,0
1533863989198530,-6,-7,-37,-4,-9,-6,-6,-2
1533863989200526,0,2,-2,-11,2,1,0,-2
1533863989200526,-6,-16,17,-12,3,2,1,-3
1533863989221472,-1,0,-28,-3,-8,0,-1,-2
1533863989221472,1,-12,-57,2,0,-3,-5,-4
1533863989222466,2,8,4,2,0,1,0,5
1533863989222466,-8,-3,18,9,5,1,1,-4
1533863989235458,-2,0,32,-8,-5,-1,1,2
1533863989235458,0,0,-3,-5,-3,-1,2,-2
1533863989242558,2,2,66,12,-4,-2,-2,-3
1533863989242558,0,2,-11,-35,-7,-3,-5,1
1533863989259371,-3,5,-57,-4,1,0,-2,-3
1533863989259371,-1,4,36,2,4,0,1,2
1533863989260366,0,-2,-8,-3,-2,0,1,-1
1533863989260366,-2,-8,-6,0,2,-2,-5,-1
1533863989281309,2,1,14,-21,-2,-1,-2,-2
1533863989281309,-2,4,22,9,0,-1,-1,4
1533863989283305,-3,-6,-24,2,-5,0,-1,-5
1533863989283305,0,-1,14,17,4,0,1,3
1533863989295271,-5,-12,-12,-12,-6,1,0,1
1533863989295271,2,2,-9,-10,2,-1,-2,3
1533863989302256,0,-1,-12,3,5,-2,0,-1
1533863989302256,0,9,5,9,7,2,0,0
1533863989319211,-6,-14,13,-8,-17,-8,0,1
1533863989319211,-1,-5,19,-1,6,2,0,-1
1533863989320205,1,-1,-31,-20,-7,-2,-1,-2
1533863989320205,-3,-23,27,45,-1,-1,-1,-3
1533863989341152,3,9,57,-11,7,-2,-3,1
1533863989341152,-5,-1,-82,-24,-8,-2,-1,-6
1533863989343155,-7,-1,36,16,7,3,2,5
1533863989343155,0,-14,-50,-24,-2,-2,-3,-5
1533863989355112,0,-2,7,16,-4,-3,-2,-2
1533863989355112,-2,-2,3,7,3,2,0,-4
1533863989364088,3,9,-47,3,1,-3,-4,2
1533863989364088,-1,7,56,-27,-11,-6,-5,-3
1533863989379048,-4,-2,-30,0,0,0,-1,0
1533863989379048,0,4,19,-11,11,4,-3,-3
1533863989380045,-1,-5,-14,6,5,-4,-3,-7
1533863989380045,2,4,8,-5,-14,-1,3,6
1533863989401990,1,-3,-27,-10,-11,-4,-3,-4
1533863989401990,2,-4,-40,6,-2,2,0,-2
1533863989407974,2,-7,49,-1,-1,0,1,0
1533863989407974,0,0,-9,8,9,-1,-5,-4
1533863989414956,3,24,2,6,3,-3,-1,-2
1533863989414956,-3,-7,-83,-30,-5,-4,-3,-4
1533863989423928,-9,14,45,13,-10,1,1,2
1533863989423928,-3,-21,-95,10,4,-3,-1,-3
1533863989438888,1,11,96,10,5,1,2,2
1533863989438888,-3,-12,-29,-23,-5,-8,-3,-3
1533863989440884,3,-5,-38,-8,-8,-1,-1,-1
1533863989440884,-1,12,19,4,-4,-3,-1,-4
1533863989461826,-3,-13,-48,-12,2,2,-1,0
1533863989461826,1,1,51,12,1,0,0,3
1533863989462824,-2,-7,6,3,-5,-4,-2,-3
1533863989462824,3,9,-7,-25,-1,-1,-1,-1
1533863989474893,5,15,65,9,-1,-2,-2,-2
1533863989474893,-2,-4,96,2,-2,3,7,4
1533863989483861,-5,-6,-29,-6,-1,-3,-6,-5
1533863989483861,-3,-2,15,18,-1,1,-2,0
1533863989498824,3,4,-22,-5,1,0,-1,-1
1533863989498824,2,5,35,19,-8,-3,-4,-3
1533863989500816,-2,3,63,8,3,0,3,3
1533863989500816,-4,-3,-6,-16,-1,-1,2,3
1533863989521761,-3,-14,-33,-2,-1,-2,-2,-2
1533863989521761,0,6,-32,10,2,0,0,-1
1533863989522756,7,-16,-24,1,3,0,-3,1
1533863989522756,-5,0,-15,-30,-10,-3,-2,-4
1533863989534728,-2,-5,-10,-5,2,2,0,0
1533863989534728,-3,11,27,14,-1,-2,-1,0
1533863989543705,0,2,-3,-8,-2,-2,-2,-3
1533863989543705,1,-3,-2,1,-1,0,-1,-4
1533863989558864,-1,-9,-11,-15,-1,1,2,7
1533863989558864,2,7,-20,1,-7,-5,-5,2
1533863989560655,2,9,63,6,-3,-5,-2,-2
1533863989560655,-6,1,8,13,3,2,3,8
1533863989581701,-3,-11,-37,-12,0,0,0,-3
1533863989581701,-1,8,52,6,3,3,2,3
1533863989582623,1,-3,-60,-3,-1,2,-1,1
1533863989582623,-1,-3,-27,-20,-9,-2,-2,-2
1533863989594565,-1,3,8,13,0,-1,0,-1
1533863989594565,1,-3,-8,3,1,0,-1,-1
1533863989603541,-4,-5,-1,-8,-4,1,2,-3
1533863989603541,-1,-5,6,12,8,2,0,1
1533863989618501,-6,-8,-68,-14,3,1,-1,-3
1533863989618501,-3,-5,46,25,-9,-5,-1,-1
1533863989620495,1,1,-50,-10,0,-4,-5,-1
1533863989620495,1,-4,33,-5,-3,-2,-3,-1
1533863989641471,-1,-3,14,-2,3,2,0,2
1533863989641471,-1,-18,54,2,3,-1,-1,-3
1533863989643435,-6,9,70,11,-5,-2,3,0
1533863989643435,-1,0,38,-1,-6,-1,-1,-3
1533863989655442,1,-6,-12,-2,-7,-4,-2,0
1533863989655442,-6,-5,-47,-10,-1,0,-1,-6
1533863989664377,1,-5,-40,-6,0,-3,-2,-3
1533863989664377,5,3,-21,1,-3,-2,-3,1
1533863989678341,-4,-5,-19,3,-1,-2,5,2
1533863989678341,-5,0,-8,-10,-3,0,-7,-9
1533863989680336,-4,-7,-22,5,3,-1,1,1
1533863989680336,-1,4,11,-7,3,-1,2,1
1533863989701279,0,-3,-37,18,-6,-3,-3,-8
1533863989701279,3,-1,-81,-13,-2,-2,0,2
1533863989703291,-4,8,34,13,2,4,0,-2
1533863989703291,-5,-22,-11,-27,-6,-2,-2,-5
1533863989715242,-4,-11,-2,-7,-8,-1,-3,0
1533863989715242,2,-1,7,12,0,-4,-2,1
1533863989724224,-2,-2,-27,-16,-3,-1,-1,-2
1533863989724224,4,15,11,20,5,-1,-1,2
1533863989739376,-2,8,1,-12,2,-2,-2,2
1533863989739376,0,-5,-11,8,-3,-1,2,0
1533863989740176,-1,-2,-12,-9,-4,0,-2,1
1533863989740176,0,2,2,15,3,-2,-2,-1
1533863989761120,3,9,9,-10,0,-2,-3,-3
1533863989761120,-6,-1,-18,-14,2,2,0,3
1533863989763121,-2,-5,85,5,4,2,1,1
1533863989763121,-2,4,-1,-5,-1,0,1,3
1533863989775295,-6,2,0,18,1,-3,-2,-9
1533863989775295,1,5,-40,-12,-2,-3,-1,-1
1533863989784058,0,-17,0,9,-1,0,-2,-1
1533863989784058,-1,-6,-31,-9,-1,-3,1,1
1533863989799018,-4,-2,33,6,0,0,-5,-11
1533863989799018,2,13,-5,-12,-3,-1,-1,-5
1533863989800029,0,-5,-107,-8,-3,-3,-2,-1
1533863989800029,-1,-6,96,9,-3,-2,3,1
1533863989820960,-2,-2,-3,-1,2,2,-2,-4
1533863989820960,0,6,73,-8,-5,-2,1,3
1533863989822953,4,2,-72,-12,-2,-4,0,3
1533863989822953,-2,11,7,23,-3,-4,-9,-7
1533863989835119,1,-4,45,11,1,-3,1,7
1533863989835119,-2,8,105,16,4,2,-1,1
1533863989843899,-4,-1,-20,-4,-3,-3,0,1
1533863989843899,3,0,33,-34,-5,0,-2,-1
1533863989859055,5,-8,-16,15,-4,-2,-2,0
1533863989859055,-6,-16,-44,1,2,2,3,1
1533863989860874,-4,1,-12,-15,-7,-5,2,19
1533863989860874,1,2,-71,-1,-3,-2,-7,-14
1533863989881798,-4,-9,35,2,4,5,2,8
1533863989881798,-1,-1,-2,-6,-4,-4,0,-13
1533863989882794,4,-4,-14,-11,-2,0,-4,-9
1533863989882794,-9,-26,80,8,5,6,2,-10
1533863989903776,3,11,5,-7,-6,-4,6,14
1533863989903776,-2,-7,-24,-4,2,-3,-12,5
1533863989905767,-5,-3,48,9,0,1,1,-1
1533863989905767,-3,6,-58,0,0,-3,-4,-10
1533863989918699,3,1,-8,-1,0,-1,-2,-3
1533863989918699,-1,-2,15,0,-2,1,5,8
1533863989920692,-3,4,-8,-2,-1,-2,-1,-3
1533863989920692,3,3,-4,2,1,2,1,7
1533863989941640,-3,-2,2,-19,-5,2,2,-1
1533863989941640,1,-4,-88,27,6,1,2,-3
1533863989942650,-4,-4,3,-33,-4,-6,-7,-7
1533863989942650,0,4,-6,11,5,-2,2,1
1533863989963578,-3,-4,4,-5,-9,-1,-2,-1
1533863989963578,4,1,-6,2,1,0,-2,-2
1533863989965615,-4,-2,15,3,-8,-2,-4,-8
1533863989965615,0,6,-16,-15,3,2,3,4
1533863989979535,1,-14,42,-2,-2,-6,-3,-3
1533863989979535,-2,-3,21,-1,-3,-1,-3,-1
1533863989980533,2,0,10,17,-2,2,2,-2
1533863989980533,-2,2,-10,-23,-4,-5,-2,2
1533863990001477,2,7,-26,0,-1,-2,-3,-6
1533863990001477,1,-3,-41,-24,-9,-2,1,-3
1533863990003489,-5,-19,62,13,5,1,2,-2
1533863990003489,-2,-3,-18,8,-7,-1,-1,0
1533863990023618,-2,0,-13,-1,2,-1,-4,-3
1533863990023618,0,0,1,10,3,-1,-2,0
1533863990025429,-2,1,-24,-16,-3,-5,-3,-4
1533863990025429,1,-4,-11,-4,0,3,0,-1
1533863990038379,-2,-1,-10,-2,-2,1,1,1
1533863990038379,-2,-7,-7,-12,-5,-4,-3,0
1533863990045360,3,-16,-46,-2,-2,2,-1,-2
1533863990045360,-5,6,59,22,1,-1,-3,1
1533863990061317,-7,-3,-23,-2,-1,-3,-3,-4
1533863990061317,-2,2,-2,-12,-8,-1,1,1
1533863990063311,-2,-6,-54,4,2,-1,0,-4
1533863990063311,1,0,54,8,-6,-3,0,0
1533863990084256,0,6,14,-7,6,1,0,-1
1533863990084256,4,19,11,8,5,1,-1,1
1533863990085252,-5,-4,-4,-6,-7,-4,-4,-2
1533863990085252,0,-1,-16,15,10,0,2,-2
1533863990098218,-3,0,-10,-24,-15,-6,-3,-2
1533863990098218,-2,2,33,10,6,-1,1,-2
1533863990105199,4,11,19,7,8,2,2,1
1533863990105199,-1,-3,-30,18,-6,-2,-4,-2
1533863990121172,-2,-6,-14,-55,-6,-2,-2,2
1533863990121172,-2,-4,-1,-18,-6,-4,-3,-5
1533863990123150,4,7,11,16,9,0,0,-1
1533863990123150,-1,-1,-13,-7,4,0,-2,0
1533863990144095,-1,-4,-2,30,7,2,2,-1
1533863990144095,-5,-6,14,-4,-3,1,0,0
1533863990145134,-1,-3,-59,-18,-5,-2,0,-1
1533863990145134,-1,3,76,2,-1,-1,-1,0
1533863990158061,-1,3,-20,10,-2,-4,-4,-3
1533863990158061,-1,4,40,-3,2,-2,-1,-2
1533863990165039,1,0,6,8,0,0,-2,-1
1533863990165039,-1,-4,-32,-25,-5,-5,-4,-2
1533863990180999,1,-2,-4,6,-2,2,0,-2
1533863990180999,-4,-5,0,13,-5,-2,0,-2
1533863990182991,-4,5,4,-26,-7,-2,-1,-3
1533863990182991,1,18,-60,-13,-3,-1,-2,-1
1533863990203938,0,-1,23,8,1,-3,-2,0
1533863990203938,-1,-5,-7,3,3,0,0,-1
1533863990205930,-2,1,29,9,0,2,0,2
1533863990205930,1,8,-38,-2,-3,-3,-2,-4
1533863990217901,-2,-8,34,11,-3,-2,-2,-3
1533863990217901,-2,-6,-47,-5,2,2,0,2
1533863990224882,2,13,38,-2,-5,-5,-3,-2
1533863990224882,2,9,38,14,0,-1,0,-2
1533863990241834,3,13,51,-7,-2,-1,2,0
1533863990241834,-6,1,-65,-17,-1,1,1,-3
1533863990242831,-4,-6,15,24,9,1,1,0
1533863990242831,-6,-17,-16,-8,-10,-4,-2,-2
1533863990263778,2,3,-17,11,6,-1,-2,0
1533863990263778,3,-1,24,22,-3,-2,-3,1
1533863990265785,0,2,6,-8,-7,-1,0,0
1533863990265785,2,-5,-14,4,2,0,-1,-1
1533863990278737,-2,-2,-28,-3,0,-1,0,-2
1533863990278737,-1,-2,16,-3,6,-1,0,-2
1533863990284722,-1,-3,-11,3,1,0,-1,-2
1533863990284722,-1,-9,-5,-9,-2,-1,-1,0
1533863990301673,-2,0,-23,-5,0,0,-2,-6
1533863990301673,1,-12,5,-7,-6,-3,-2,-1
1533863990302670,-3,-21,64,7,-2,0,2,2
1533863990302670,-7,-18,-74,-17,2,3,1,1
1533863990323799,0,1,37,16,-2,-2,-1,-1
1533863990323799,2,5,10,-10,-2,-5,-3,-2
1533863990325610,-4,-1,-12,0,1,0,0,-4
1533863990325610,-3,-12,11,20,2,-1,2,1
1533863990338575,-3,-11,-28,-30,-7,-5,-6,-3
1533863990338575,1,1,-2,-10,-10,-2,-4,-2
1533863990344559,3,3,-2,-1,3,0,-2,-1
1533863990344559,2,3,35,0,-5,-1,0,-1
1533863990361514,-1,-2,-40,19,4,-3,-4,-2
1533863990361514,-1,1,21,-11,3,0,1,1
1533863990362511,0,1,3,-4,-6,-2,-2,-1
1533863990362511,2,-1,-15,-2,2,-1,-1,-1
1533863990384504,1,4,-5,-9,0,0,1,0
1533863990384504,-1,-2,1,2,-5,0,-1,-2
1533863990385450,-2,4,-24,5,2,2,0,0
1533863990385450,-3,-1,3,-22,-3,-4,-3,-1
1533863990397421,-5,-3,7,14,1,1,1,-1
1533863990397421,-1,1,1,-5,3,2,-1,0
1533863990406393,1,2,4,18,1,-5,-1,3
1533863990406393,-5,-4,-13,-16,-12,-5,-4,-4
1533863990421353,2,4,17,-10,6,4,4,4
1533863990421353,-6,-7,-3,84,13,-5,-4,-2
1533863990423349,-9,-4,-22,-57,-22,-5,-4,-2
1533863990423349,3,1,6,-12,-10,1,-3,-3
1533863990444293,2,0,-12,-8,1,3,4,6
1533863990444293,4,6,14,-1,0,0,-5,-9
1533863990445291,-13,-10,-1,19,1,-5,-4,-2
1533863990445291,-3,-2,2,-7,13,-5,-2,-1
1533863990457358,-3,-4,-11,-7,-9,-2,-2,-5
1533863990457358,0,0,2,-15,-5,2,3,6
1533863990466236,6,2,4,12,4,2,2,-3
1533863990466236,-1,0,2,-13,-4,0,-1,-3
1533863990481197,0,1,1,29,3,1,0,3
1533863990481197,-1,0,1,9,-1,-4,-2,-5
1533863990483188,1,-1,-19,-52,-11,-4,-2,-3
1533863990483188,1,0,5,12,-2,3,-2,3
1533863990504135,-3,0,1,0,6,0,0,-4
1533863990504135,0,-1,2,-18,-5,-3,-3,-13
1533863990505129,0,-1,-3,15,3,-3,-3,1
1533863990505129,1,-1,2,-5,-5,4,1,7
1533863990517225,-3,-4,-1,38,11,0,-1,0
1533863990517225,0,-2,-6,-17,7,-1,-2,-1
1533863990526075,1,1,-3,-4,-4,-1,-8,-4
1533863990526075,0,1,-2,10,10,-3,5,-2
1533863990541033,-2,-1,-10,-18,-21,2,8,0
1533863990541033,-3,-1,4,-4,-4,1,3,7
1533863990543028,0,0,7,11,7,1,0,-1
1533863990543028,-4,-2,7,17,1,-1,-7,-4
1533863990564087,0,-2,4,-10,1,-6,-7,-6
1533863990564087,-2,-4,-7,-26,0,-2,4,3
1533863990564970,0,1,7,33,7,-6,-1,-5
1533863990564970,-3,-8,-12,-69,-13,-8,-4,-4
1533863990577937,-2,0,-1,-8,-6,0,0,0
1533863990577937,0,0,3,-10,-7,1,-1,0
1533863990586910,-2,2,2,17,3,2,1,-1
1533863990586910,0,1,12,23,7,-6,-6,-7
1533863990601068,-1,-1,3,0,1,-2,0,-11
1533863990601068,0,1,0,-11,0,11,5,12
1533863990602867,1,1,-1,-3,3,4,1,0
1533863990602867,-2,1,3,15,3,6,7,3
1533863990623844,-1,-3,-5,-23,-6,-6,-10,0
1533863990623844,-3,-4,-6,11,-2,-10,-3,-6
1533863990625807,6,6,12,-17,20,16,3,-3
1533863990625807,-6,-9,-1,58,-9,-10,1,2
1533863990637893,-7,-12,-21,-14,-32,-9,-10,-1
1533863990637893,-3,-5,-6,-29,-7,1,1,0
1533863990646750,-1,-8,-5,-4,-3,-10,-8,-1
1533863990646750,4,3,6,-3,9,1,-4,-3
1533863990660714,2,2,4,23,12,0,9,1
1533863990660714,-2,0,3,5,-3,7,-1,-1
1533863990667731,-2,2,-8,-7,-3,1,4,0
1533863990667731,-1,-1,0,2,3,-2,-3,-3
1533863990683665,-2,2,-2,-2,-1,-5,-3,1
1533863990683665,0,1,-1,-4,-2,-5,-3,-2
1533863990685647,-1,2,-3,-1,-4,-4,-2,-2
1533863990685647,-3,-3,-10,-11,-7,2,2,0
1533863990697618,-1,-4,-44,-11,2,-2,-2,0
1533863990697618,-1,-1,3,0,3,-2,-4,-3
1533863990706615,-3,3,6,-3,-8,-2,-1,0
1533863990706615,5,11,-77,-26,-5,-3,-5,-5
1533863990720558,-2,12,85,6,6,9,6,5
1533863990720558,-11,-19,-6,27,-1,-3,-2,-2
1533863990727540,-1,-2,1,13,2,-2,0,2
1533863990727540,-4,-2,-20,-18,-12,-5,-2,-2
1533863990743493,2,6,-17,-30,7,-2,-3,-2
1533863990743493,4,3,-14,19,-6,-3,-4,-2
1533863990745487,-3,-4,-8,-2,-4,1,-1,-1
1533863990745487,3,0,20,-14,-1,4,3,1
1533863990757454,-2,-5,-4,9,4,0,-3,0
1533863990757454,-1,0,13,14,2,-5,-4,-5
1533863990766431,0,-5,-18,-4,-5,-2,1,-2
1533863990766431,-1,1,21,17,2,3,0,-3
1533863990780397,0,-5,0,-7,-8,-2,-2,-4
1533863990780397,1,4,-9,-9,-3,-2,0,3
1533863990787378,2,3,1,0,-1,-3,0,-1
1533863990787378,-3,-4,59,3,12,1,0,0
1533863990803335,-2,-4,-5,0,-18,-5,-3,-2
1533863990803335,0,2,-8,-16,-7,-2,0,2
1533863990811312,2,0,4,1,-2,-1,-5,-14
1533863990811312,-3,-2,10,35,6,2,4,-3
1533863990826274,1,-4,-13,-8,15,0,4,7
1533863990826274,-3,-3,5,-12,-1,-2,-4,-5
1533863990828278,0,-4,-2,-4,-6,0,1,3
1533863990828278,-1,-3,-11,-7,-3,-3,-5,-4
1533863990841313,0,-1,1,11,1,-2,-6,-9
1533863990841313,-1,0,0,7,17,-16,-8,-4
1533863990847371,2,0,0,-10,-23,-8,-13,6
1533863990847371,0,1,4,15,28,26,20,6
1533863990864215,-2,3,-3,-16,-2,21,12,-1
1533863990864215,-2,-1,2,-16,-19,8,17,14
1533863990865173,-7,-4,-4,8,1,-13,-3,0
1533863990865173,-4,-6,-4,-17,-21,-12,-15,-4
1533863990886110,1,-4,-2,3,1,-11,-10,-8
1533863990886110,2,3,3,16,13,1,-2,-7
1533863990888106,0,-3,-5,-18,-2,-1,1,-1
1533863990888106,0,-2,-6,-9,2,-9,-2,2
1533863990901071,-4,-4,-5,-7,-19,-2,-4,2
1533863990901071,-1,-2,-2,-2,-5,-4,-6,-6
1533863990907093,-1,0,4,14,5,2,1,1
1533863990907093,-2,-1,1,-2,2,2,-5,-2
1533863990924010,-2,-2,-5,-4,-4,-3,3,2
1533863990924010,0,2,2,-3,5,8,4,5
1533863990925033,-2,-1,2,1,1,6,3,-1
1533863990925033,-2,-1,0,7,-1,-1,-2,-2
1533863990946969,-2,-5,-5,-10,-5,-12,-8,-5
1533863990946969,-1,-2,-1,-1,9,-5,-5,-6
1533863990947944,-3,-4,-3,-4,-6,1,2,-3
1533863990947944,4,2,1,2,-10,-2,3,6
1533863990960910,-5,-3,-3,20,-5,-5,1,2
1533863990960910,0,2,3,3,8,5,-1,2
1533863990967892,3,3,2,-3,-8,0,2,5
1533863990967892,9,-6,-17,-61,-17,-14,-8,-5
1533863990983852,3,-9,-1,12,-7,-7,-12,-16
1533863990983852,-24,-1,-1,1,11,1,2,4
1533863990985844,-2,5,4,-5,5,10,3,-10
1533863990985844,-2,1,3,23,2,7,8,7
1533863991013787,19,4,0,-9,5,1,5,7
1533863991013787,16,-1,3,-3,-6,-4,-4,0
1533863991015764,-17,-9,-1,28,-4,-7,-6,-5
1533863991015764,-1,2,-3,-16,-4,-3,-2,0
1533863991019960,24,0,-4,-2,6,-1,-2,3
1533863991019960,-55,-12,-4,0,-11,-2,-4,-18
1533863991028730,0,-2,-2,-5,6,-3,-1,0
1533863991028730,-4,-3,-1,7,3,-2,-5,-5
1533863991043703,-23,3,-1,0,2,-2,0,3
1533863991043703,39,7,3,-4,-12,-1,0,6
1533863991045683,6,-1,-7,-16,11,2,-2,2
1533863991045683,-14,-3,1,13,-5,-3,-2,-3
1533863991066631,9,1,1,-2,0,0,-1,2
1533863991066631,3,-3,-6,-3,-12,-4,-2,-4
1533863991067625,-7,-4,-2,-7,3,0,0,-2
1533863991067625,4,1,2,9,4,1,2,4
1533863991088572,-4,0,2,5,5,4,1,-1
1533863991088572,-5,0,-5,-6,-6,-2,-2,-6
1533863991090563,-6,-6,-3,-1,-5,-5,-1,0
1533863991090563,11,-4,0,1,-4,-2,-2,1
1533863991103529,-11,-3,-3,-3,5,2,-1,-4
1533863991103529,-19,-1,0,1,9,0,0,-6
1533863991105524,13,5,0,-7,-19,-4,0,2
1533863991105524,-4,1,-3,0,2,-2,-2,-3
1533863991127465,-5,-1,1,1,4,-1,-1,-2
1533863991127465,9,1,-2,0,1,-1,-4,3
1533863991129460,7,-1,1,1,-1,0,-2,2
1533863991129460,-14,-3,-1,-1,-4,-4,-3,-7
1533863991140435,-11,-3,-2,-1,-2,-3,-3,-3
1533863991140435,9,5,1,2,3,5,4,4
1533863991149426,-1,0,-3,-4,3,-1,-2,1
1533863991149426,-2,-2,0,0,-4,1,-1,0
1533863991163372,-1,-1,-1,3,7,2,1,0
1533863991163372,0,-2,-3,-6,-7,-5,-1,-3
1533863991165363,-2,-2,-2,-5,-13,-3,-2,-3
1533863991165363,0,1,1,1,3,0,-2,0
1533863991186311,-5,-2,0,1,3,-1,-3,-2
1533863991186311,5,-2,-1,-3,0,-1,-1,0
1533863991188302,-4,-1,-3,-3,-2,-2,-2,-4
1533863991188302,-2,-3,-5,1,3,-5,-2,-4
1533863991200270,0,2,-1,-6,-5,-1,2,5
1533863991200270,2,0,0,1,0,5,-2,2
1533863991209246,0,-5,-1,-2,-6,-1,1,-1
1533863991209246,-3,-1,-3,-1,-2,-3,-3,-4
1533863991224385,-1,-1,-2,-1,0,-2,3,-1
1533863991224385,1,1,0,-2,3,3,-1,-2
1533863991225204,-2,2,1,4,11,8,5,4
1533863991225204,-1,-2,-2,0,-2,0,3,-2
1533863991246165,-5,-1,-2,-1,-4,-7,-5,-3
1533863991246165,0,-3,-1,-2,-6,-2,1,4
1533863991248142,0,-2,-1,1,3,0,-3,-1
1533863991248142,-1,-2,-1,-2,3,-1,-1,1
1533863991260110,-3,-2,-1,-1,-5,-2,-2,-4
1533863991260110,-2,-4,-4,-2,-5,-4,-3,-4
1533863991269086,0,-1,0,-2,0,-5,-2,-2
1533863991269086,1,2,0,0,-1,3,-2,2
1533863991284049,0,-1,-1,-1,-4,-5,-5,-1
1533863991284049,3,-3,-1,-1,-5,3,1,-1
1533863991286041,-3,-2,-1,0,6,-1,-3,-4
1533863991286041,0,0,0,-2,-11,2,10,2
1533863991306985,-1,1,0,1,4,6,2,3
1533863991306985,-3,-2,-1,-2,-2,-3,-3,-1
1533863991307981,-2,-3,-1,-1,2,-3,-5,-4
1533863991307981,-1,-2,-2,-2,-2,-7,-5,-6
1533863991319951,2,-2,1,-2,0,-1,3,1
1533863991319951,-2,-3,-3,-1,-2,-5,-5,-3
1533863991328937,-1,0,-2,-1,-2,-4,-4,-2
1533863991328937,1,0,-1,-1,1,-3,-7,-1
1533863991343886,0,0,-1,1,0,1,-3,-1
1533863991343886,-1,-5,-6,-3,-3,-10,-6,-4
1533863991345881,0,-2,-2,-2,-2,-6,0,-2
1533863991345881,-1,0,1,2,6,19,24,7
1533863991366828,-4,1,0,1,-3,14,8,4
1533863991366828,-3,2,3,1,6,0,1,-1
1533863991368819,-4,-2,-2,0,-8,-7,-10,-5
1533863991368819,-3,-9,-60,-7,0,-12,-14,-8
1533863991379793,2,2,44,0,-10,-12,-8,0
1533863991379793,0,3,3,0,1,5,1,2
1533863991388766,-2,-3,4,-5,-6,4,9,2
1533863991388766,0,-2,0,0,-1,-3,-3,-2
1533863991403726,-1,-2,-16,-1,-1,-3,-8,-5
1533863991403726,-1,-5,-6,-3,-1,-11,-9,-6
1533863991405745,3,-1,-3,3,11,7,5,3
1533863991405745,-1,0,11,2,-3,6,6,4
1533863991426724,-4,-2,-6,-1,2,-6,-3,-1
1533863991426724,-1,1,9,-1,-10,-9,-15,-7
1533863991427676,1,-1,-10,-3,5,1,8,0
1533863991427676,-1,3,14,5,2,10,5,6
1533863991439649,-5,-3,-7,-5,-8,-4,-1,-2
1533863991439649,-5,-2,-67,-5,-5,-4,-5,-4
1533863991448610,0,-1,54,1,-3,-8,-6,-4
1533863991448610,3,2,13,4,15,5,-4,2
1533863991471548,1,-1,-4,2,-6,0,6,-1
1533863991471548,-2,-2,-3,-6,-8,1,4,4
1533863991473539,-3,-1,-20,-4,-2,-7,-7,-3
1533863991473539,-2,-1,5,-2,-13,-11,-8,-6
1533863991486508,1,-1,-2,3,8,3,-3,-1
1533863991486508,2,0,12,-2,1,-1,-2,-4
1533863991487502,-1,2,-6,2,5,7,12,3
1533863991487502,-2,-1,8,1,3,1,-4,-1
1533863991500635,-3,-3,-11,-3,0,-3,3,-1
1533863991500635,0,1,15,3,2,0,0,5
1533863991509463,-2,-3,-56,-8,-2,-4,-5,-4
1533863991509463,-1,1,40,-1,-6,-3,-2,-3
1533863991523405,-1,-2,1,-3,-4,-1,-4,-3
1533863991523405,1,0,22,3,3,-3,2,0
1533863991525400,-1,3,-4,0,2,5,1,3
1533863991525400,-2,7,-36,-2,0,-4,0,-3
1533863991546344,-1,-14,6,-9,-4,8,2,0
