timestamp,emg1,emg2,emg3,emg4,emg5,emg6,emg7,emg8
98217204226,-1,0,0,21,5,0,1,1
98217204226,-3,0,1,-11,2,0,-4,-22
98217212908,0,0,-3,-4,1,1,0,28
98217212908,0,0,1,-1,-13,-1,2,-2
98217213691,-2,-3,11,-18,-1,-2,-8,-1
98217213691,-1,-1,-30,34,1,1,13,0
98217214501,1,3,9,-13,-5,-1,-1,-13
98217214501,-2,2,20,6,6,-1,-4,-1
98217215315,-1,-4,-6,-3,-6,-1,-4,0
98217215315,1,0,3,-6,-8,-3,-5,2
98217225934,-3,-3,-7,6,3,-1,1,-1
98217225934,-1,-2,-10,0,-2,1,2,-4
98217242209,0,-1,0,-3,-6,-9,-10,-7
98217242209,-1,-1,4,-11,-1,5,18,-5
98217243863,0,-1,-8,-6,-4,3,-9,16
98217243863,-2,-3,-4,-9,4,-1,-4,0
98217256571,-1,0,7,-12,1,-3,0,-15
98217256571,1,0,-7,8,4,-1,-3,28
98217271680,-1,-2,10,-22,-1,-7,-6,-12
98217271680,-1,-3,-21,-5,-5,-1,8,-2
98217272448,0,2,-16,9,1,3,0,7
98217272448,-1,-1,9,-17,4,-7,-6,-8
98217318391,0,2,1,10,3,1,-2,1
98217318391,-3,0,3,11,3,0,-2,-4
98217319151,-1,-1,1,0,3,0,-1,-1
98217319151,1,2,-6,-12,-1,0,0,3
98217319983,-3,-3,-1,-12,-4,-4,-2,0
98217319983,-2,-3,13,-3,-1,-1,-1,-2
98217323252,2,1,-3,8,-15,2,1,4
98217323252,-1,0,-7,-10,-2,-1,-5,-2
98217330695,-2,-3,1,9,3,-5,0,-12
98217330695,0,-2,-5,-14,-6,14,1,6
98217347850,-1,0,-1,-26,5,-2,3,-5
98217347850,-3,-3,0,17,0,-2,-7,1
98217348659,-1,-2,-8,-7,-6,-3,2,-6
98217348659,0,1,3,5,-6,-8,-1,-3
98217360722,-3,-3,-1,11,-3,0,-4,0
98217360722,-2,-2,-2,1,-3,0,-1,-5
98217368235,1,0,4,-11,3,3,0,3
98217368235,0,-1,-2,7,3,-1,0,0
98217391345,-3,-1,-2,3,-2,-2,-1,-16
98217391345,0,-3,-21,-4,0,-3,0,10
98217392116,-2,0,18,-2,-9,-1,1,1
98217392116,0,-1,5,3,2,-2,-2,3
98217407858,-3,-3,-12,-21,0,-5,-2,-8
98217407858,-1,-1,25,-8,-5,3,-5,-6
98217408640,0,-1,-32,-27,1,2,-4,3
98217408640,-1,-2,-8,55,-10,-1,1,-6
98217428816,-1,0,1,28,3,0,-7,3
98217428816,-2,-2,0,-5,0,-6,1,-5
98217429620,0,-2,3,30,4,5,-2,7
98217429620,-2,0,-4,-26,1,-7,8,-2
98217451798,0,-1,-1,-12,3,0,-7,6
98217451798,-4,-2,0,0,-3,0,17,2
98217458907,-1,0,-14,1,-5,-6,-16,-10
98217458907,-1,-2,-9,-15,-2,2,7,1
98217466322,-1,-4,5,14,1,-1,-1,3
98217466322,1,0,-6,-12,-1,0,-6,-6
98217467122,-3,-4,25,18,-3,0,6,5
98217467122,1,3,0,-13,3,0,-8,1
98217488904,0,-1,-16,-5,-5,-4,5,3
98217488904,1,1,10,-5,-3,-2,-8,-2
98217489650,-1,1,-15,-21,-2,-1,6,-7
98217489650,-2,-4,-10,-2,-17,-8,-14,-3
98217511449,2,4,16,0,0,5,-18,0
98217511449,0,1,4,1,1,4,26,-3
98217512171,1,2,-2,24,1,-2,-4,2
98217512171,-5,-10,6,-26,3,-2,-2,-1
98217526396,-2,1,1,-5,-4,-7,5,-2
98217526396,-4,-1,3,6,2,-2,-15,-3
98217527183,-2,-2,4,-30,2,2,16,3
98217527183,-3,2,-3,16,0,-1,-1,-20
98217548920,-3,-3,-5,33,5,-1,-4,27
98217548920,1,-2,13,5,4,-2,-2,1
98217549642,2,1,2,-21,-1,-4,-10,-3
98217549642,0,3,9,-11,4,-3,-8,-3
98217571376,-1,-5,-7,-15,-3,-1,12,-6
98217571376,-1,-2,-1,21,-4,-3,-20,-3
98217572127,-5,-6,1,21,1,-2,13,4
98217572127,0,-6,-6,-10,-1,7,-4,0
98217586370,1,2,-4,-27,1,-10,2,-7
98217586370,-1,1,20,9,-8,-2,-5,1
98217587184,1,6,11,17,2,0,-10,-7
98217587184,-3,-1,-17,4,-1,-5,-5,3
98217608913,-3,-4,9,-6,1,2,6,0
98217608913,2,0,-21,21,5,2,8,-3
98217609655,-2,0,6,-13,-5,1,1,1
98217609655,-2,1,1,42,6,-3,3,1
98217631374,-1,-1,-2,-8,-6,3,-1,-3
98217631374,-4,-2,-13,-44,-2,-3,-3,0
98217632175,-2,-2,5,28,2,0,-4,-1
98217632175,1,2,5,-24,5,-3,1,6
98217646373,-1,-1,-40,19,-3,-4,-9,-8
98217646373,-4,-9,8,-6,-8,-2,6,-2
98217647131,-2,-7,19,-18,-2,-1,-4,-4
98217647131,0,4,-1,15,2,0,3,-1
98217668920,0,-5,-26,2,-10,-3,-2,-3
98217668920,1,4,19,7,5,3,0,2
98217669651,-3,3,-36,-18,-7,-7,-4,-3
98217669651,0,0,13,13,-11,-2,0,-1
98217692023,-1,-5,-3,-20,9,0,1,-1
98217692023,3,4,-15,-46,17,1,0,-1
98217692789,0,-1,21,51,1,-1,-3,-2
98217692789,-2,-3,4,4,8,2,-2,0
98217714582,-1,1,1,-27,-11,-1,-2,-2
98217714582,-3,-5,-11,-24,-13,-5,-1,-3
98217715345,0,-3,-22,-8,-2,-1,-18,-2
98217715345,1,1,-11,-31,10,1,16,5
98217728977,-1,0,44,-19,4,-4,-5,-5
98217728977,-2,1,-30,73,13,4,15,3
98217729713,0,-1,0,-22,-12,3,0,0
98217729713,-1,1,-31,-24,-6,-1,3,-3
98217751385,0,-1,22,29,-4,0,-9,-2
98217751385,-1,-1,4,-20,-5,-3,-1,-2
98217752147,-1,2,-12,9,4,-6,-2,-1
98217752147,-2,-2,0,-19,4,9,-3,-1
98217767205,-2,3,4,55,-2,-4,2,-2
98217767205,1,-1,1,-33,-19,-5,-7,-2
98217774004,-1,-6,-16,11,23,0,7,2
98217774004,-1,-1,27,-23,-7,-4,-4,-4
98217788907,1,2,-1,9,-4,0,7,0
98217788907,-2,-4,-5,-8,-5,-4,-4,-2
98217789666,-1,-1,-9,-26,-4,-1,-12,-2
98217789666,-2,-6,-1,25,-11,5,15,4
98217811354,1,-1,-11,-16,11,4,1,1
98217811354,-1,-2,-2,8,-3,-5,-2,-2
98217812129,-2,-2,13,-26,-2,0,4,-3
98217812129,-3,-4,-1,4,4,-5,-8,-3
98217825753,-1,-1,-15,-21,-9,4,-6,-1
98217825753,-3,0,0,13,-9,-6,-1,-2
98217833923,-2,-3,7,-14,5,-5,-12,-2
98217833923,-1,-2,-1,-4,4,3,17,2
98217848911,-4,-2,26,-15,-1,-5,-1,0
98217848911,0,-2,-12,26,1,2,-10,-2
98217849706,1,2,-4,10,-6,-2,9,-1
98217849706,1,1,-15,-7,4,-7,-10,1
98217871422,-2,-2,-5,-1,-4,-2,-2,-3
98217871422,-1,-1,16,8,6,3,-7,-12
98217872128,-1,-2,5,-3,-4,2,15,19
98217872128,0,0,-16,-14,-4,-4,-9,0
98217885785,-1,2,0,20,2,-1,0,-1
98217885785,1,0,9,-27,14,-1,-9,-6
98217893949,-2,-2,-13,50,1,-3,-7,-7
98217893949,-1,1,25,-17,-10,-6,-5,-5
98217908929,-1,-2,14,24,9,4,5,3
98217908929,-2,-1,-31,-1,2,-2,1,4
98217909697,-1,-1,-8,6,-7,-1,-1,-5
98217909697,0,-2,-14,15,-1,-3,-6,2
98217931383,-2,2,10,-9,6,0,-3,-6
98217931383,0,-4,1,7,-8,3,-9,3
98217932156,-2,-2,5,-15,-2,0,18,1
98217932156,-3,-2,-11,3,1,-2,-1,1
98217954572,0,0,-3,-7,2,2,1,-3
98217954572,-1,1,5,-6,3,-4,2,-9
98217955342,2,-2,-5,-14,-7,2,-6,2
98217955342,1,-1,13,6,0,-4,-6,-2
98217968936,-2,-1,17,9,-5,1,-12,-1
98217968936,-3,-3,0,-36,-2,-1,19,1
98217969665,-3,1,-5,62,8,0,2,-8
98217969665,-3,-2,11,17,-3,-1,0,-2
98217991521,-2,-5,-14,12,-2,-7,-2,-3
98217991521,1,2,4,7,-3,1,-4,4
98217992205,-2,-2,4,-44,-22,-4,-5,-1
98217992205,-3,-4,-19,8,-1,1,-2,-1
98218007223,2,1,3,4,-9,-3,0,-2
98218007223,0,-3,1,18,3,-2,-5,7
98218021466,0,-3,14,4,6,2,0,-2
98218021466,-3,-3,8,-10,-3,-3,-8,-10
98218029015,-1,-2,-10,-35,-2,-2,8,-9
98218029015,-3,1,-16,3,-1,0,-2,6
98218029622,2,-3,-13,-6,-2,-3,-1,18
98218029622,-1,-1,-11,3,-3,5,-4,0
98218059715,-2,-2,-8,-17,0,-3,-15,1
98218059715,1,0,2,-13,-1,0,12,2
98218060311,-3,0,12,4,1,-1,-5,-10
98218060311,-1,0,-1,-1,-6,-4,2,2
98218065771,0,-2,-3,-10,-4,-3,-2,1
98218065771,-3,0,0,13,-9,-3,-10,-7
98218073933,-3,1,-6,-28,8,5,-4,-4
98218073933,1,-1,8,16,4,0,2,-2
98218089323,-1,-3,7,16,4,0,2,2
98218089323,-2,-2,-10,0,-5,-1,-1,0
98218096408,-1,-1,-22,-9,5,-5,2,-4
98218096408,2,0,5,4,-1,3,0,1
98218111401,0,1,4,-3,-4,-1,2,-5
98218111401,-3,-4,-3,18,-3,-4,0,8
98218112174,1,2,9,-6,4,-1,14,-2
98218112174,-5,-3,-24,-15,-3,0,-2,-4
98218134626,-2,-2,-16,26,1,-4,-1,-5
98218134626,-2,1,14,-18,4,0,0,-6
98218135385,1,2,22,-6,-4,-6,-16,-6
98218135385,-3,-3,-1,-2,-6,-5,-9,-22
98218148895,1,-2,-18,-34,10,4,21,38
98218148895,1,-3,2,25,-7,-1,-3,0
98218149705,-1,-1,4,-9,1,0,-2,0
98218149705,1,3,16,34,-3,0,-8,2
98218171403,-1,-1,0,-12,-9,-1,-11,-11
98218171403,-1,-3,-18,-34,1,-6,0,-6
98218172164,-1,-4,-3,6,3,3,-4,2
98218172164,-1,0,1,-11,-5,-3,-2,1
98218194747,-4,0,-9,12,-1,5,-4,-6
98218194747,-1,-1,5,-5,3,-1,-5,2
98218195351,-2,-3,-20,-3,-5,-4,8,-7
98218195351,-2,-1,-1,12,-2,-3,1,3
98218209086,-1,-3,-5,-25,2,-3,0,0
98218209086,0,-2,28,-5,-16,1,-5,-6
98218209712,-1,0,-6,-9,0,-2,-6,0
98218209712,-2,-3,-7,-5,-2,-1,5,2
98218231499,-2,0,10,-2,6,-3,-3,-4
98218231499,0,0,-10,-7,-2,-2,-1,-3
98218232202,0,-2,22,15,-1,2,0,2
98218232202,0,2,-2,-25,-6,-3,-3,2
98218262305,-1,-3,1,18,0,-1,4,-5
98218262305,-1,1,-7,-15,3,1,2,1
98218262861,-2,-3,-3,24,-6,-3,-3,0
98218262861,0,-3,-10,-9,-2,0,3,-3
98218269107,-1,2,2,-30,-3,-1,-14,-1
98218269107,1,0,8,35,6,-2,7,4
98218269667,0,0,-21,11,-4,1,0,-3
98218269667,0,1,11,-41,4,-2,-4,-1
98218291552,-2,-1,-20,21,0,-2,-3,-10
98218291552,-2,-2,14,-16,-4,-1,-4,1
98218292163,0,0,7,12,-2,-1,-3,-4
98218292163,-1,-6,-9,14,6,0,2,3
98218314638,0,-1,-5,-22,-13,-1,-1,-3
98218314638,-2,0,-2,2,6,0,-1,-2
98218315403,-2,1,-1,7,-2,1,-3,-2
98218315403,-1,-2,-1,-6,-7,-4,2,-4
98218352711,-1,1,14,12,-2,-1,-2,2
98218352711,0,1,-47,-6,4,1,-5,-19
98218353364,0,-2,5,-13,-3,0,3,28
98218353364,0,0,4,11,1,0,0,2
98218359756,1,-4,-6,-10,-18,-1,3,-6
98218359756,-2,-6,1,13,1,0,2,15
98218360345,-4,-2,-8,-43,-4,-4,-10,-13
98218360345,0,-1,-8,6,5,1,3,1
98218374630,-3,-2,20,-5,-4,-2,0,2
98218374630,-1,-1,5,15,-4,0,0,-6
98218375380,-2,-4,-11,-1,-4,-1,0,-6
98218375380,-4,-3,2,-10,-3,-1,-4,4
98218397332,-1,0,-13,-4,1,0,2,-6
98218397332,-1,-1,8,2,-3,-2,2,2
98218397885,-1,-2,3,-9,0,0,-3,-3
98218397885,1,2,4,20,-6,-1,0,-4
98218410796,1,1,1,-11,6,1,1,4
98218410796,-2,-3,-2,18,-3,-3,-1,-2
98218419148,0,-4,3,-13,1,-3,-8,-3
98218419148,1,3,15,32,7,0,13,1
98218442118,0,0,-10,-23,1,-1,3,2
98218442118,0,0,-6,17,0,0,-3,1
98218442919,0,2,4,-29,-3,-2,-7,-5
98218442919,0,-1,10,-23,-2,-3,2,0
98218457190,-1,-2,6,13,0,-2,-2,1
98218457190,2,-2,-5,-17,4,-1,-1,-7
98218457968,-1,1,-14,14,-1,-2,2,1
98218457968,-2,-2,-11,-17,0,-2,-5,7
98218470934,0,0,3,1,-2,-1,1,-1
98218470934,-3,-2,-14,0,-8,-1,-3,2
98218479087,-3,-3,2,6,2,-1,1,-11
98218479087,-2,0,-2,-3,-16,-2,-3,-2
98218494772,-3,-3,-9,9,1,-2,-2,-1
98218494772,-2,2,13,-10,-1,1,-3,-5
98218495416,0,0,-2,13,-4,-1,2,0
98218495416,-3,-1,-8,-6,1,1,-2,-4
98218517140,1,-2,6,18,8,-1,0,1
98218517140,-2,0,3,-14,-7,-2,-1,0
98218517865,-3,0,7,-8,4,-6,0,-1
98218517865,1,-1,-12,23,1,5,0,0
98218539632,0,0,1,-29,-2,-3,-8,-3
98218539632,0,-1,-11,27,8,-1,-2,0
98218540360,2,2,16,-40,5,-1,3,-1
98218540360,-2,-2,-3,3,-10,-3,1,-5
98218554637,-3,-3,-13,11,0,1,-3,-1
98218554637,-1,0,8,-11,-2,-2,-12,-14
98218555362,-2,-3,-11,15,1,-2,1,23
98218555362,-1,-2,-8,-13,1,-1,-1,-2
98218577299,-1,-1,5,9,1,-4,-2,-2
98218577299,-1,-1,-3,-4,4,2,2,2
98218577933,0,-3,-5,-1,-8,0,-3,-10
98218577933,-1,-1,-2,-8,9,-2,-2,-1
98218590889,-1,0,1,-3,6,-2,4,3
98218590889,-2,0,14,14,-6,-3,-4,1
98218599095,-1,-1,-15,-11,-1,1,1,-4
98218599095,-1,-4,9,13,-1,-3,-3,-2
98218614589,0,2,9,-9,-3,-3,-1,2
98218614589,0,-1,19,-14,0,-3,3,2
98218615371,-1,1,-18,70,6,1,-5,-20
98218615371,-1,-3,-7,-6,0,-1,3,16
98218637319,0,-1,-9,0,-2,0,2,10
98218637319,-2,-1,4,-27,-1,-1,2,4
98218637903,0,-2,-4,-25,-4,2,2,0
98218637903,-2,-2,-9,-2,2,0,-7,-11
98218650945,-2,-1,22,31,-2,-1,0,-9
98218650945,2,0,-8,-4,1,-2,0,5
98218659130,-2,-5,-9,15,-5,-3,-7,-4
98218659130,0,1,14,-1,8,0,5,-1
98218674874,-2,-2,0,-42,-8,0,0,3
98218674874,-2,0,-22,-14,-1,-2,1,-2
98218675394,0,2,29,7,6,0,-3,0
98218675394,2,0,-20,12,7,1,-2,0
98218697141,-3,-4,-14,12,-17,-5,1,-6
98218697141,-2,-1,13,-19,4,-2,1,-5
98218697902,-3,-4,-7,-28,-8,-4,0,2
98218697902,-1,0,10,-19,-1,0,-2,0
98218719858,-1,-1,-10,20,-1,-2,1,-4
98218719858,-2,0,27,-6,1,1,0,1
98218720392,1,1,5,-16,-8,0,2,1
98218720392,-2,1,0,13,-1,0,-4,-10
98218734758,-3,0,-13,23,2,-5,-5,8
98218734758,-3,-4,-14,-12,0,-1,0,-8
98218735464,3,2,8,34,1,4,3,11
98218735464,-2,1,-5,-72,-3,-2,-3,-15
98218757182,-2,0,12,-7,-7,1,-2,-4
98218757182,-2,-3,-13,35,0,-1,-2,3
98218757919,-2,-4,-15,-22,-25,-5,1,-10
98218757919,-1,-2,2,-4,-10,-3,-1,5
98218779873,-2,-3,-9,6,12,2,-1,-3
98218779873,1,0,9,41,2,1,-2,2
98218780391,-1,2,0,-82,6,0,-7,2
98218780391,-4,-4,-12,-19,-6,-2,1,0
98218794691,0,-2,15,53,-14,-2,-3,-3
98218794691,-1,0,-33,-12,-7,0,0,-15
98218795412,2,2,15,6,12,2,-1,24
98218795412,-1,0,-5,21,7,3,-2,4
98218817268,-3,-7,-21,-116,-4,-2,-3,-19
98218817268,2,4,17,59,9,2,2,10
98218817861,-3,0,-11,-24,-6,-4,0,-10
98218817861,-2,-4,11,6,1,-4,-2,2
98218838912,0,-1,-9,-2,5,1,0,-2
98218838912,-1,-2,-1,-21,-10,1,-1,-3
98218847233,-3,-4,4,34,-2,-5,-1,0
98218847233,1,-1,0,10,0,-2,-1,-5
98218853447,-1,-2,-5,-2,2,0,-3,0
98218853447,0,2,9,13,2,-2,1,5
98218862237,-2,-2,20,13,-1,-3,0,-15
98218862237,-3,0,-36,13,0,-3,-9,7
98218877131,1,0,-10,22,-4,1,-6,0
98218877131,-1,-4,12,-29,-7,-4,1,-10
98218878695,-1,-1,16,-11,2,0,-1,1
98218878695,-1,-3,-10,6,-7,-4,1,-3
98218899379,-2,-1,-5,-16,-2,-2,-3,8
98218899379,-1,-3,1,-23,2,-2,-3,-11
98218905815,-1,-2,-21,9,4,1,0,-6
98218905815,0,-1,22,32,2,-1,-1,5
98218913263,0,1,23,-15,0,-7,-4,1
98218913263,-1,-3,-45,-24,-2,22,6,-3
98218922210,-3,-3,-4,15,-21,-2,2,5
98218922210,-1,2,6,-10,6,3,2,0
98218937348,1,0,5,21,-1,-2,0,-3
98218937348,-1,-3,13,12,-2,-11,-6,0
98218938765,-2,-1,-32,-4,-4,-4,-1,-3
98218938765,1,-1,20,-3,-8,2,-1,-7
98218967272,-2,0,-3,10,10,-1,4,2
98218967272,-4,-3,-8,-4,-4,-7,-8,4
98218968701,0,0,-18,49,9,0,-6,-12
98218968701,3,0,7,-18,-1,-4,7,15
98218973371,0,-2,-4,2,-5,1,0,-2
98218973371,-2,0,0,-22,2,-1,1,6
98218982226,-2,-2,7,-1,-2,-2,0,-10
98218982226,-4,-3,-4,-3,-13,3,-3,-7
98218997095,1,0,3,-3,-3,0,1,11
98218997095,1,-1,-5,-9,9,-3,3,7
98218998660,-2,-2,3,-14,-9,-2,-3,-11
98218998660,-1,-3,4,6,2,1,-3,-7
98219027241,0,3,-16,-8,-3,-1,2,-2
98219027241,-4,-3,-15,1,-6,-6,-5,-1
98219028694,1,1,22,-16,6,0,1,7
98219028694,-3,-1,-23,2,-5,-3,-1,-6
98219033371,-2,-1,-1,38,17,0,2,1
98219033371,0,-1,3,4,-7,0,1,-2
98219042239,1,0,-7,32,8,2,1,3
98219042239,-3,-1,5,-7,1,0,0,-2
98219057226,-3,-1,17,-35,-5,-1,-2,-4
98219057226,-1,-1,-14,34,2,0,-2,-10
98219058714,-1,-5,21,-7,-10,-2,-1,8
98219058714,-1,0,-31,2,4,-1,-8,-3
98219087252,0,0,1,-17,11,1,-3,-17
98219087252,-1,-3,4,-1,-4,-2,2,16
98219088731,-3,-3,5,-19,1,-1,-2,-11
98219088731,0,-1,5,-12,2,-2,-3,11
98219102307,-2,-2,-22,37,-6,-4,-6,-4
98219102307,-3,1,14,-5,-5,7,-2,-3
98219103716,-1,-1,-9,-16,-3,-3,2,3
98219103716,0,2,-12,34,-3,-2,-7,-6
98219117127,-2,-2,10,-5,13,2,1,-1
98219117127,-1,1,7,-17,-7,-7,0,1
98219118721,-1,1,-5,1,-4,-3,-1,2
98219118721,-1,-1,4,-11,-2,-1,0,-9
98219139788,-1,-3,-2,-13,-9,-3,-1,5
98219139788,0,0,-3,-3,2,0,0,-1
98219141181,-1,-2,-12,2,5,0,-3,-2
98219141181,-2,-1,8,-1,-5,-1,1,-1
98219153385,-1,-1,-3,6,-7,-2,2,1
98219153385,1,-2,3,-8,-2,-4,-4,-3
98219162257,-2,-1,-3,8,0,-1,-9,0
98219162257,2,0,-9,-9,1,0,3,0
98219192212,-2,-1,13,1,1,2,-26,-3
98219192212,0,-4,-6,17,1,1,41,0
98219193775,-1,-5,-19,-26,5,3,13,3
98219193775,-1,4,24,-22,-4,-3,-1,-2
98219199837,-1,2,0,24,-1,-1,-14,-5
98219199837,-3,-5,-12,8,-7,-5,-34,-6
98219201209,-1,-1,11,-7,7,2,46,6
98219201209,0,-1,4,11,-11,0,0,1
98219213249,1,4,12,-19,-1,0,4,0
98219213249,-2,-1,6,-12,-2,-5,-12,-3
98219222270,0,-2,-17,-3,3,-1,-10,-1
98219222270,-1,-4,-1,-4,7,-1,-2,-5
98219237010,-3,-3,1,-18,-6,-1,2,0
98219237010,-1,-5,-20,-12,2,0,7,2
98219243420,-1,1,-3,6,-8,0,-16,-5
98219243420,6,7,11,-1,3,-1,10,0
98219259590,-2,-5,-18,-13,-11,-5,-2,0
98219259590,-3,2,20,-11,-9,-4,-10,-1
98219261205,-3,-5,2,8,-3,0,14,1
98219261205,-5,-5,-2,-9,-1,-3,-10,0
98219273271,2,0,-20,57,12,4,5,-1
98219273271,3,4,6,-51,0,5,-3,0
98219282208,-4,-1,4,-6,-4,-6,-7,-5
98219282208,0,-4,-23,-11,-7,-2,-10,-8
98219297079,0,-1,11,24,-3,4,24,11
98219297079,-3,0,3,-6,-2,-8,-7,-6
98219298726,-1,-1,-5,29,-4,-3,-15,-4
98219298726,-2,-6,0,-25,6,5,11,4
98219319604,-2,-1,-5,-4,-5,-3,-1,-11
98219319604,0,-2,-11,7,-4,2,-3,1
98219321704,-1,-1,8,53,8,-1,-8,2
98219321704,-5,-2,-18,21,-2,-4,-4,-9
98219333267,2,0,12,-41,-2,-1,16,-6
98219333267,-2,0,-9,63,0,-1,6,17
98219342271,0,0,12,-61,-4,-4,-7,-6
98219342271,-1,-2,9,37,-4,2,-7,3
98219357624,-1,1,10,21,16,3,-5,-8
98219357624,0,1,-16,-53,-3,-4,-2,0
98219358739,-5,-2,-10,-20,7,5,-3,-6
98219358739,1,0,3,30,-1,-5,-3,-2
98219379666,1,1,21,26,4,1,-8,13
98219379666,-2,-4,-6,6,1,0,-15,-26
98219381217,1,2,13,-12,-3,-11,23,24
98219381217,-2,-3,-2,-50,4,11,11,2
98219393240,-2,-3,-8,21,-6,2,3,3
98219393240,0,-3,-2,7,2,3,-3,0
98219402247,-2,0,12,-1,0,-5,-14,-11
98219402247,-4,-2,-2,-21,-6,-5,-19,-12
98219417295,-1,-5,-9,-16,-10,-7,8,18
98219417295,-1,-1,7,-18,1,2,5,-1
98219418758,2,-1,-12,9,2,5,-4,-2
98219418758,0,-1,-2,4,0,-6,-2,5
98219439674,-2,-1,-11,1,-4,-4,-16,-10
98219439674,-1,0,31,27,9,0,5,6
98219441283,0,2,2,17,-9,1,-6,-18
98219441283,3,0,3,-23,-6,-10,9,21
98219453289,-2,-4,-14,-1,-5,12,2,-4
98219453289,0,-1,-21,9,13,-8,5,-2
98219468298,0,2,12,-21,-19,4,-15,3
98219468298,-3,-1,-13,-24,-5,-2,11,-6
98219477130,-3,-2,4,-31,-4,-13,-5,-7
98219477130,0,-3,4,8,0,-3,9,7
98219478745,0,-2,-19,21,2,9,1,2
98219478745,-4,-2,-5,28,-4,-2,5,-6
98219499831,0,3,22,-30,-4,-1,-4,2
98219499831,-1,3,-2,21,-1,1,1,-5
98219501233,0,-1,-2,23,1,-4,-12,-1
98219501233,-2,-4,-23,-28,-2,2,-4,-14
98219513323,-2,-4,-5,36,3,0,3,-3
98219513323,1,1,-16,0,-2,0,-10,12
98219522289,-2,1,10,-16,0,-1,3,6
98219522289,0,0,6,18,-1,2,-7,-6
98219537131,-2,-4,-8,-19,3,-8,-2,-11
98219537131,-4,-4,-6,-19,-19,-2,-13,-9
98219538715,0,-2,-8,-4,4,-3,13,1
98219538715,-1,0,6,-1,-10,2,-10,8
98219559680,-3,-5,-4,-22,-18,-1,20,-1
98219559680,2,0,-1,10,9,3,7,0
98219561213,-1,2,23,85,10,-3,-3,1
98219561213,-3,-2,-8,-54,5,0,-13,-5
98219573322,1,-1,1,42,3,1,-4,2
98219573322,-1,-5,12,-19,-15,-2,-5,-5
98219582259,-2,-5,-46,-18,-2,-9,-8,-16
98219582259,3,1,19,-3,8,-4,8,11
98219597297,0,0,-4,12,-7,7,-2,17
98219597297,1,-1,20,-27,0,4,-3,-4
98219598750,1,-1,10,10,2,0,1,1
98219598750,-1,2,-2,23,1,-7,3,-7
98219627315,0,-2,-4,-44,8,-2,-2,-4
98219627315,-3,0,-1,19,3,-4,-2,-6
98219628745,-2,-2,-12,-63,-1,1,-2,0
98219628745,-2,-2,-4,65,-4,0,2,0
98219642159,-1,2,3,-31,7,0,-4,-1
98219642159,-2,1,-2,-6,2,-2,-2,0
98219643763,-2,-1,3,-23,-5,-2,1,-1
98219643763,-1,-3,12,1,-1,-2,-1,2
98219657134,0,1,-8,7,0,1,-6,-3
98219657134,-1,1,15,-44,-10,-4,-2,-4
98219658746,-1,-3,-2,-2,-6,5,-13,2
98219658746,-1,0,12,1,4,-1,13,-1
98219679699,-1,-3,-13,-23,-5,-4,-12,-5
98219679699,-3,0,-12,-6,-13,-5,6,-2
98219681297,0,-2,0,-8,-4,-1,4,-5
98219681297,2,-1,6,30,10,3,-8,-14
98219702106,-3,-2,-10,-15,-12,-5,-5,3
98219702106,2,0,4,46,5,-3,11,16
98219703759,-1,-5,-7,8,1,-1,8,-2
98219703759,-3,-1,-8,-57,-3,3,-4,-5
98219717311,-2,-1,2,29,2,-4,4,-7
98219717311,-2,-2,-6,10,-1,0,-8,-10
98219718687,1,0,-6,-8,0,-1,-10,7
98219718687,0,-5,-11,-20,-5,0,-7,1
98219738897,0,0,8,11,5,0,7,-3
98219738897,-3,-3,-6,-15,-11,-1,-3,4
98219747271,-1,-2,-1,3,11,-1,7,-8
98219747271,-3,-1,8,56,3,-5,-17,6
98219762199,-4,-2,-24,-13,-10,-7,-9,-1
98219762199,1,2,27,-9,10,1,12,-7
98219763777,-1,2,-24,15,-3,0,-6,-4
98219763777,0,-1,-8,-4,-1,-2,-11,-34
98219776648,0,-2,1,-12,-1,-1,21,40
98219776648,1,-3,-11,14,-3,-1,1,-5
98219783395,0,-2,8,4,-7,-1,-1,6
98219783395,-1,0,5,-7,6,1,4,2
98219799739,-1,2,2,17,5,-2,-5,-12
98219799739,-2,-1,-9,-18,-6,-5,-3,-2
98219801224,-2,1,6,-19,2,0,-13,1
98219801224,-2,-3,-13,-23,-13,-5,23,11
98219822258,2,-2,5,38,-1,3,9,-8
98219822258,-1,1,-17,-15,5,3,-7,3
98219823773,-1,1,20,-28,-3,1,2,-6
98219823773,-1,-1,12,3,2,0,-4,5
98219836698,-2,-5,8,-35,-4,-2,-10,-6
98219836698,-1,0,-14,25,-3,-4,0,-14
98219843452,-3,-3,-9,19,2,-11,-8,11
98219843452,2,0,-2,-6,1,22,7,-3
98219859685,-8,-4,0,-7,2,-6,-9,-45
98219859685,3,-1,1,12,6,5,14,65
98219861205,-1,-1,-4,-10,-9,-10,-14,-4
98219861205,1,4,9,5,9,0,-12,-7
98219882178,3,1,-7,1,-7,0,5,-2
98219882178,-5,-2,-3,-3,-2,-1,1,-14
98219883779,-3,-1,0,-14,3,1,-2,-3
98219883779,-2,-2,3,18,-2,-5,9,15
98219896646,-1,1,-9,26,0,-1,-2,-3
98219896646,-3,-3,-9,-23,3,0,-8,-9
98219903474,2,-1,-15,3,-3,2,11,9
98219903474,1,4,-1,-22,-6,-5,-10,-11
98219919688,-3,-1,-4,-54,-3,0,-7,5
98219919688,0,-4,37,47,-8,0,-2,-3
98219921282,1,-2,-71,14,1,0,3,-5
98219921282,-2,-4,7,-10,-8,-4,-2,4
98219942344,-2,0,12,12,0,0,-3,5
98219942344,-2,2,25,-50,5,0,-3,-5
98219943698,2,2,0,12,0,3,4,-3
98219943698,-2,-2,-9,13,-5,-8,-1,2
98219956238,0,-4,0,-11,-5,0,0,9
98219956238,-3,-2,-3,1,-3,1,-6,-14
98219964843,-4,-3,4,-6,-4,-2,2,-1
98219964843,-2,0,12,-9,-2,-3,3,2
98219979761,0,-1,-4,-1,2,-4,-25,3
98219979761,4,0,-11,35,1,0,33,2
98219987270,-1,0,15,-16,2,0,5,-3
98219987270,-2,-1,-17,-5,-9,-3,-1,2
98220002161,-1,-4,14,16,9,-2,-4,-5
98220002161,-4,-2,-20,-13,-9,-4,-18,-12
98220003773,0,-1,32,22,-1,1,-6,14
98220003773,-2,0,-8,6,-1,-5,7,1
98220016276,-2,0,-15,-21,-9,1,-3,-3
98220016276,3,1,-4,-25,-5,-3,-9,2
98220024766,-5,-5,-6,44,1,2,-1,-8
98220024766,0,-2,13,-29,3,1,-3,-3
98220040336,0,0,4,-11,-4,-1,3,5
98220040336,-3,-4,-16,15,6,-1,-6,-8
98220041931,1,4,21,-15,-18,-2,-2,-7
98220041931,-2,-1,-18,5,2,1,-15,3
98220062160,-1,4,11,13,3,1,12,0
98220062160,-2,-2,-1,-8,9,0,9,2
98220063752,-1,-2,-4,-12,0,-3,-3,-2
98220063752,2,-2,11,-15,-1,-1,4,2
98220077535,-2,1,-2,-2,5,1,-8,-2
98220077535,-4,-1,-3,3,-5,-2,-11,-2
98220083478,-2,-3,-8,-11,-10,-1,4,0
98220083478,-1,2,-3,5,5,2,-3,-6
98220107334,2,-2,-6,-34,8,1,5,-6
98220107334,2,2,11,-32,0,-3,0,11
98220108768,0,0,13,24,2,4,0,0
98220108768,-2,-2,-3,-11,-8,-3,1,-8
98220122133,-1,1,-31,8,-7,-3,-1,3
98220122133,-2,-3,0,0,-7,-3,-9,0
98220123768,1,-1,3,-26,9,-3,11,-5
98220123768,-2,-3,-2,5,2,0,-3,4
98220135846,-2,-2,-5,5,-8,-2,2,1
98220135846,-2,-3,-2,-22,-6,-3,-8,-5
98220144857,-2,0,8,48,19,2,-2,-5
98220144857,1,2,-22,29,9,4,-29,-1
98220160331,2,-2,11,-38,-8,1,62,9
98220160331,-2,0,15,19,-2,-2,-6,-6
98220161268,-5,-7,16,-26,-8,-2,0,2
98220161268,-1,1,-8,1,2,-4,4,1
98220182252,-3,-1,3,19,1,-1,-23,-10
98220182252,1,-2,-23,-3,-9,1,2,-2
98220183760,1,0,6,-30,0,-2,-1,-1
98220183760,-2,-2,6,26,-13,-5,0,-1
98220196009,-4,-2,-4,-17,3,0,-11,-13
98220196009,0,1,-1,35,5,1,3,19
98220212309,-1,-3,-8,-24,2,-3,-4,1
98220212309,-4,-3,6,-9,-6,4,-3,-19
98220227822,1,1,3,28,4,3,1,28
98220227822,-2,1,-13,-20,0,-1,-2,-8
98220229405,-2,-3,-8,-9,-8,-3,-7,-1
98220229405,0,-4,-14,8,6,-2,5,1
98220242144,0,1,9,2,1,0,-6,-8
98220242144,0,-1,11,9,-5,-1,-6,-9
98220243723,0,1,-20,-6,-7,-2,-9,2
98220243723,0,0,29,-4,13,-4,23,1
98220265219,-4,-8,-53,19,-17,-5,-11,-3
98220265219,2,0,-5,10,9,1,-5,-2
98220266444,0,3,2,-42,-3,1,1,-3
98220266444,-1,1,30,30,1,-1,-2,4
98220281441,0,1,8,7,-8,-4,-11,-5
98220281441,-2,-2,-9,-17,-4,-5,10,-3
98220282025,-4,-1,-5,15,-1,0,-13,0
98220282025,-1,-4,-21,-4,-3,-1,1,4
98220302859,0,2,25,-16,-3,0,-1,2
98220302859,-3,-4,-3,22,6,0,-3,-7
98220304513,-1,-1,-10,-14,-18,-4,-7,-3
98220304513,-2,4,21,19,28,7,5,3
98220316292,-4,-4,-5,-3,-1,-3,-7,-7
98220316292,-1,2,-4,-14,20,0,-2,-1
98220325115,1,-3,-4,4,-38,-8,-5,-2
98220325115,0,-4,-18,-26,1,-3,25,4
98220342047,1,4,4,-9,4,5,1,-1
98220342047,-3,-1,22,41,-8,-4,-9,-5
98220345059,1,0,-8,-11,16,-3,8,3
98220345059,-1,-6,-12,-2,-19,5,-24,-7
98220369651,1,-4,1,-7,9,-3,3,-2
98220369651,-2,-2,-7,-10,-16,2,4,3
98220371634,0,4,21,5,10,-2,1,-2
98220371634,-3,-3,-16,-19,-7,-5,-7,-1
98220376026,0,-3,-1,8,-4,3,-3,-1
98220376026,0,-2,-12,9,-4,-1,-2,-3
98220385351,0,3,17,13,18,-2,6,-1
98220385351,-5,-4,-6,-24,-9,-2,-15,-3
98220399633,0,0,-36,0,12,-2,3,-3
98220399633,1,-6,-2,-16,-11,0,25,4
98220401362,0,-2,31,16,-15,1,2,1
98220401362,0,3,-30,1,-6,-3,-5,-1
98220422186,0,2,21,51,12,-2,-1,-1
98220422186,-3,0,-6,5,-16,-6,-9,-13
98220423846,3,0,-5,20,19,6,6,21
98220423846,-3,-3,5,-20,-9,-2,1,-13
98220435789,-1,-2,-7,-39,-12,-1,-15,1
98220435789,-3,0,-5,15,5,-4,-2,-4
98220444855,0,-2,1,8,0,1,2,1
98220444855,-3,0,0,-7,-10,-5,-2,-3
98220459659,-1,-2,3,23,24,2,2,2
98220459659,-2,0,2,-15,-6,-3,-9,0
98220461242,-2,-2,-20,-29,13,1,-2,-10
98220461242,2,1,10,35,-7,-1,1,6
98220481282,-1,-2,20,-24,-8,-8,5,-4
98220481282,2,0,-32,-17,-5,3,-5,3
98220493717,-2,-1,0,38,13,1,1,-5
98220493717,-1,-3,-6,-8,-11,3,0,2
98220514038,-1,2,1,-10,-12,-5,-3,2
98220514038,-3,-3,2,-42,1,-4,-3,-3
98220514160,0,-1,1,26,16,-1,-1,-3
98220514160,1,1,6,36,13,-1,-4,5
98220519659,-1,-4,-7,-16,-16,-6,18,-3
98220519659,-1,-1,-4,12,-8,2,-9,-1
98220521220,-1,-2,-13,-32,7,-1,-8,-4
98220521220,-4,-3,0,1,3,-1,4,1
98220542254,0,1,15,-28,2,1,-1,2
98220542254,-2,0,9,42,7,8,0,-1
98220543779,-2,-1,10,17,-18,-5,-6,-5
98220543779,-1,-1,-3,-16,-2,-5,-4,-8
98220564657,-3,-2,-16,3,1,-3,-2,7
98220564657,1,-2,6,-14,0,-5,-5,1
98220566220,-3,-2,-12,-3,-14,8,-2,-5
98220566220,0,-2,16,-12,11,-4,5,2
98220580127,-5,-1,-6,20,-12,-4,-14,-8
98220580127,-1,1,10,-44,1,0,17,2
98220581684,-4,-3,-1,21,4,0,0,2
98220581684,-1,-2,-17,35,8,-5,6,-4
98220602189,-1,2,8,-17,-28,0,-15,-4
98220602189,-1,-3,40,15,27,-3,21,2
98220603748,0,1,3,-17,-14,-2,1,-2
98220603748,-2,0,-2,-35,0,2,-3,3
98220624725,-3,-6,-32,25,6,-3,-10,-6
98220624725,-2,-1,-11,-28,-25,-6,-4,-6
98220626334,-1,-1,5,-10,5,1,0,0
98220626334,-2,-3,5,7,-12,-2,1,2
98220639658,1,0,3,-3,-4,4,2,4
98220639658,-2,-5,-1,-24,12,-5,-5,0
98220641270,0,0,-15,44,-12,1,4,-1
98220641270,-1,1,0,7,-5,-5,-9,-2
98220662164,-2,-2,10,3,5,-1,-2,-3
98220662164,0,3,-15,1,-1,1,-1,0
98220663751,-1,-4,-8,-25,-5,-5,-7,-10
98220663751,3,2,40,-13,0,0,4,20
98220684942,-2,-3,-24,43,-6,1,1,-6
98220684942,0,-1,-8,13,0,-2,-4,-2
98220686261,-2,-2,-3,-19,-3,-3,1,-1
98220686261,0,-4,-6,-19,-9,3,-12,-6
98220699682,0,-1,9,-1,11,0,23,2
98220699682,0,0,-5,6,4,2,-17,3
98220701272,-1,1,-1,-17,-9,-1,11,-1
98220701272,-1,0,-9,-34,-8,-4,-4,-6
98220722173,-2,-1,14,38,1,2,-7,0
98220722173,0,1,-6,21,3,-5,-7,-5
98220723767,-1,-4,3,-15,-3,-1,0,0
98220723767,1,3,11,-5,7,0,0,-3
98220744854,2,-1,-6,-19,1,-5,1,2
98220744854,-3,-2,2,5,-13,1,-1,-3
98220746299,-3,-2,-4,-10,2,-1,-2,-1
98220746299,0,-2,-12,5,-2,0,2,-1
98220758998,-2,-3,1,-8,10,-3,-2,-4
98220758998,-2,-2,14,-6,-10,1,-6,-2
98220766008,-1,3,-20,7,12,-1,0,2
98220766008,-2,0,-2,14,-9,-2,-1,-4
98220782214,-2,-3,-3,-5,1,-4,-3,-3
98220782214,0,-1,7,-26,10,2,-4,0
98220783797,-4,-6,-7,90,7,-3,-2,-1
98220783797,-2,-3,-6,-14,10,2,-5,-12
98220804671,2,1,15,-16,-4,2,26,22
98220804671,-3,-1,-9,1,-8,-3,-9,-23
98220806312,1,-2,7,-29,-7,-6,1,-4
98220806312,0,-2,-10,11,3,-1,-2,19
98220819152,1,-1,-2,-9,3,-2,-13,-7
98220819152,-1,-1,-1,-4,-20,-1,3,5
98220825845,-2,-2,5,8,7,0,3,-9
98220825845,-3,-2,-7,1,3,-4,-3,-6
98220841309,-4,1,-11,-25,-7,5,-3,-3
98220841309,1,-1,1,15,30,-1,3,8
98220849842,-3,-4,-3,-25,-24,-1,-7,0
98220849842,-2,-2,2,-7,11,4,1,0
98220864915,1,0,0,15,10,-2,-2,0
98220864915,-1,1,-16,49,9,2,0,-4
98220866271,-2,0,6,-46,-6,-4,-5,1
98220866271,0,-2,-6,-7,-7,-2,-1,-3
98220879080,-3,-1,3,10,-1,0,-10,-3
98220879080,-3,-2,-7,-14,-8,-2,20,5
98220885920,-2,-1,-6,-13,-4,-4,-6,-1
98220885920,-1,-3,-5,3,-8,3,-5,-4
98220909693,-2,-1,-9,-6,-9,-4,19,-13
98220909693,-1,-1,2,-6,12,4,-8,7
98220911309,0,0,3,3,-8,-7,4,21
98220911309,2,1,4,-4,21,-6,-7,-11
98220924762,-1,-2,1,-4,-12,2,-10,2
98220924762,-3,-2,9,2,-6,-4,-4,-14
98220926314,-2,1,3,-10,-16,5,2,-13
98220926314,-3,1,-1,1,3,-4,9,14
98220939073,0,-4,-8,-16,2,-3,-7,-3
98220939073,0,-1,0,-22,-21,-5,0,5
98220945912,-2,-2,-4,61,2,0,-8,-6
98220945912,-2,-1,5,-5,-14,-1,4,-3
98220969794,-3,-3,5,-4,3,1,-4,-1
98220969794,0,0,-8,-2,2,-1,-2,-1
98220971335,-2,-2,-9,3,4,-1,1,1
98220971335,-3,-3,19,-2,-9,-2,3,-5
98220984994,-1,-1,-29,-3,-4,-2,-2,2
98220984994,0,0,7,10,-1,2,-2,0
98220986350,0,-2,-10,-22,7,-1,0,-2
98220986350,-2,-2,24,15,-8,-1,0,1
98220999004,-1,3,-27,-7,-9,-5,-6,-3
98220999004,-2,-3,4,-11,-5,-3,-1,-1
98221007291,0,-3,-45,3,4,-3,-2,-3
98221007291,2,4,18,-7,-1,0,1,-2
98221022164,-2,2,33,5,-4,-1,-5,0
98221022164,0,-2,0,-31,1,2,2,-1
98221023765,-1,-1,-5,31,-4,1,-2,2
98221023765,-2,-6,-19,-12,15,4,-2,-2
