timestamp,emg1,emg2,emg3,emg4,emg5,emg6,emg7,emg8
1533864477909424,-3,1,-1,5,1,-3,-7,-5
1533864477909424,0,-3,-3,9,2,-1,-1,0
1533864477909424,-2,-2,-48,-30,-6,0,-2,-2
1533864477909424,0,-6,31,0,-1,0,0,2
1533864477911421,-2,1,0,-2,-6,1,0,-1
1533864477911421,-1,0,2,8,3,-1,-4,-2
1533864477912418,-1,-7,27,9,4,1,2,3
1533864477912418,-2,2,-15,-6,-13,-5,-5,-3
1533864477921392,0,-1,-3,2,8,-2,0,-1
1533864477921392,-1,-1,5,-3,-8,-3,-1,-2
1533864477925381,-3,4,-3,-8,12,-6,-3,-3
1533864477925381,-2,-2,-11,-4,0,0,-1,-3
1533864477942366,-2,-1,11,2,-7,0,-1,-2
1533864477942366,-1,1,-13,-6,-4,2,1,-1
1533864477949321,0,0,6,8,1,1,-3,-1
1533864477949321,-3,-2,-2,3,-2,0,0,-1
1533864477957297,1,-3,-10,-4,2,-1,1,0
1533864477957297,-2,-4,-3,-5,-5,-1,-1,-1
1533864477980244,-1,-1,2,5,-4,-1,0,-2
1533864477980244,0,-1,-3,0,4,0,1,-2
1533864477982230,1,-2,-4,-5,-2,-1,0,-1
1533864477982230,0,0,1,-2,2,-1,6,8
1533864478018138,-2,-2,-1,-2,-4,-2,-6,-2
1533864478018138,-1,-1,-1,-3,-1,-2,-2,-9
1533864478018138,-4,-3,-1,1,0,-4,-4,-1
1533864478018138,-1,-1,-1,-5,-19,-1,-1,-1
1533864478019143,0,-1,-3,-8,0,-2,0,-1
1533864478019143,-3,0,-1,-4,-1,-2,-2,1
1533864478023311,-1,0,0,0,-4,2,-1,0
1533864478023311,0,-1,-2,0,13,0,-2,-1
1533864478030102,-2,-2,-1,0,-3,1,-1,-1
1533864478030102,0,-2,0,0,-6,-1,-2,0
1533864478039081,0,-2,0,-2,3,-1,-1,-2
1533864478039081,-3,-1,-2,0,-9,-4,-1,0
1533864478045065,0,0,1,1,3,-1,0,-1
1533864478045065,-1,-2,-2,-1,-3,-1,1,2
1533864478060216,-1,0,-1,4,-4,-1,0,-1
1533864478060216,-2,-2,-6,-13,1,-4,-2,-4
1533864478068160,-1,-3,-1,4,-4,-2,0,1
1533864478068160,1,-1,-1,-4,3,-1,-1,-1
1533864478090943,-1,-3,-4,-16,6,0,-3,-2
1533864478090943,-1,-1,-2,6,2,0,1,-3
1533864478091937,-3,-2,-1,3,1,-1,0,-1
1533864478091937,1,1,2,-5,-1,3,0,2
1533864478105908,2,1,1,9,-2,-3,1,3
1533864478105908,-1,-4,-2,-6,-9,-4,-3,0
1533864478106898,-4,-1,-2,2,2,-2,1,-9
1533864478106898,-1,1,-1,4,-3,0,1,0
1533864478127842,-1,-1,1,6,-1,0,-1,-1
1533864478127842,-2,0,2,-2,2,0,-1,1
1533864478128839,3,1,-1,-4,-1,0,-3,0
1533864478128839,-1,-3,-3,-8,6,-3,-1,-4
1533864478150873,-4,-2,-2,19,2,-2,0,-2
1533864478150873,-2,1,0,15,-3,-2,-2,-2
1533864478151777,0,0,-1,-33,5,2,1,-1
1533864478151777,0,-1,1,21,1,-3,-1,-1
1533864478165751,1,-1,-6,-49,-6,0,-1,0
1533864478165751,0,-4,-4,35,3,-1,0,-1
1533864478166737,0,-1,1,16,-4,-3,-2,1
1533864478166737,-1,0,0,-3,1,-2,-2,0
1533864478188681,0,0,1,10,4,-1,0,-3
1533864478188681,0,0,2,-14,-6,1,-2,-1
1533864478189675,0,1,-2,-13,-13,0,0,-1
1533864478189675,-1,-3,0,29,15,-3,-2,-4
1533864478210620,-6,-4,-2,-26,-18,-8,-1,-2
1533864478210620,-2,-5,-8,-25,-11,-5,-4,-4
1533864478211617,-2,0,-2,-3,-13,1,1,0
1533864478211617,-2,0,-2,-10,-10,0,0,2
1533864478225584,3,3,-33,17,6,1,-2,-1
1533864478225584,-3,-8,27,-8,3,-2,-1,1
1533864478226593,-1,-4,-6,3,-3,-2,-3,-1
1533864478226593,1,-2,1,5,2,2,1,-2
1533864478248518,0,-3,-3,5,-12,-6,-1,-1
1533864478248518,-1,3,-8,-22,4,-2,-3,-4
1533864478249535,1,2,2,14,6,-2,-2,-2
1533864478249535,-4,-3,1,-31,1,-1,2,1
1533864478270463,2,-3,-70,39,12,6,1,-2
1533864478270463,-8,9,-51,-28,-1,-7,-7,-4
1533864478271456,-8,-7,7,-23,-17,-7,-4,-2
1533864478271456,-6,-3,-6,-52,-48,-7,-6,-4
1533864478286470,-1,0,21,15,10,5,2,0
1533864478286470,4,6,-12,13,4,4,2,0
1533864478286470,-2,-4,-13,37,22,7,3,0
1533864478286470,-1,-2,-19,9,3,0,-1,0
1533864478308366,0,3,2,-17,-4,-4,-2,-1
1533864478308366,5,-3,9,2,4,0,5,21
1533864478309366,-7,3,10,1,8,0,-9,-26
1533864478309366,-2,-3,47,13,-9,-7,-4,-4
1533864478331304,-1,1,27,23,10,1,0,-3
1533864478331304,2,1,9,-38,-2,2,2,-1
1533864478331304,1,-4,-1,-8,-1,-3,1,9
1533864478331304,-1,1,-16,9,5,0,0,-1
1533864478346258,-1,-1,10,-25,-4,-3,-4,-4
1533864478346258,-1,-3,13,31,2,1,0,0
1533864478346258,-1,0,-17,1,2,0,2,3
1533864478346258,0,-1,-5,-13,1,-1,0,-1
1533864478368198,-2,-6,-21,20,2,2,-2,1
1533864478368198,-4,0,2,-7,-20,-1,-1,-5
1533864478369201,2,0,7,-6,1,-1,-2,3
1533864478369201,0,0,-1,-19,10,0,-1,0
1533864478391140,0,-3,4,-20,-7,-4,0,3
1533864478391140,-1,-2,1,22,-2,1,0,-4
1533864478392137,1,-2,-5,-9,2,-4,-2,-3
1533864478392137,1,-1,-12,6,1,1,1,3
1533864478406096,-1,0,7,-18,-8,-1,-2,-1
1533864478406096,-2,-4,-4,2,0,-2,-1,-7
1533864478406096,2,1,10,5,-6,-1,1,1
1533864478406096,0,-1,-3,15,10,-2,-3,-2
1533864478428037,-3,2,16,2,0,-5,-3,-3
1533864478428037,4,8,35,82,46,14,6,5
1533864478429034,-9,-13,-34,-59,-39,-6,-4,1
1533864478429034,2,-8,-21,-81,-17,-5,-2,-4
1533864478450977,1,1,-5,19,3,2,-4,-4
1533864478450977,1,-2,-5,-51,-7,-2,1,1
1533864478451974,0,4,13,74,34,7,3,-1
1533864478451974,-5,-3,3,76,-5,-5,-2,-1
1533864478465937,-1,-4,1,-60,-12,-2,0,0
1533864478465937,0,-1,1,-15,-6,0,-2,-1
1533864478466954,1,4,6,9,17,3,-3,1
1533864478466954,-4,-3,-4,-3,-13,-3,-4,-4
1533864478488899,-1,0,12,22,2,-1,-1,0
1533864478488899,-2,-2,-6,10,6,1,2,0
1533864478488899,-1,-4,1,-20,-15,-4,-3,-3
1533864478488899,2,4,9,30,15,4,3,4
1533864478511028,-3,-1,5,-11,5,-3,0,-2
1533864478511028,-3,-11,-30,-26,-20,-10,-8,-7
1533864478511816,-1,1,7,8,-11,-6,-4,-1
1533864478511816,0,3,9,-33,17,1,-2,-1
1533864478524779,-1,0,3,0,-4,7,3,2
1533864478524779,-3,-3,-1,-2,-11,-10,-3,-4
1533864478532758,5,2,3,10,10,5,5,1
1533864478532758,-5,1,0,11,-24,-2,-1,0
1533864478548749,-1,-1,-1,-4,-3,-3,-4,-1
1533864478548749,-1,-3,-3,-1,4,1,-1,-2
1533864478548749,0,1,-1,0,-1,-2,0,0
1533864478548749,-2,3,1,2,4,0,-1,-3
1533864478570660,-3,-4,-6,1,0,-3,-3,-1
1533864478570660,-2,0,4,4,-2,-1,-4,-2
1533864478571653,-2,-3,-4,-8,-2,-3,-1,-1
1533864478571653,2,-1,-7,-4,4,0,0,-1
1533864478585620,-1,0,0,3,-4,-4,-2,0
1533864478585620,-2,0,3,2,3,0,0,1
1533864478592598,-1,-2,-5,-7,-4,0,-1,-1
1533864478592598,0,-2,-5,-2,5,3,0,-1
1533864478608558,-1,-1,3,5,-1,-2,-3,-1
1533864478608558,-2,0,1,-3,-1,2,0,-1
1533864478609552,-1,-2,-3,-7,-2,-2,0,0
1533864478609552,-1,-2,2,5,-3,-1,-1,-2
1533864478630502,0,0,-2,-3,7,0,2,-3
1533864478630502,-2,-3,-3,0,-2,-1,-2,-2
1533864478631516,-3,-1,-3,1,-6,-3,-3,-2
1533864478631516,3,1,0,8,11,2,0,0
1533864478645654,-2,0,-3,-18,-11,-6,-1,0
1533864478645654,0,-2,-2,1,0,0,-3,-3
1533864478652438,-4,-3,-2,3,-10,-7,-4,0
1533864478652438,-2,-3,-3,-2,2,2,-2,0
1533864478668395,-1,-2,-2,10,17,11,4,0
1533864478668395,-3,1,0,-3,-15,-4,-4,-1
1533864478669392,0,-1,-1,-8,2,1,-1,-2
1533864478669392,-3,-1,-1,-1,-8,-6,-3,-2
1533864478691454,-1,0,-1,2,10,0,-1,-1
1533864478691454,2,1,0,0,-7,-6,-1,-2
1533864478691454,2,-1,-1,-3,-1,3,2,-1
1533864478691454,-2,-3,-2,0,6,-1,0,-1
1533864478705302,-1,-1,0,-3,-12,-3,-1,-3
1533864478705302,-3,-2,-1,4,0,-3,-1,0
1533864478712277,-2,1,-2,-11,-2,-1,-3,-1
1533864478712277,1,0,1,2,6,2,0,1
1533864478728710,0,-3,-1,-1,-11,-6,-1,-3
1533864478728710,0,-3,-2,0,-3,2,0,-2
1533864478729545,-1,-4,-2,5,5,0,0,-2
1533864478729545,-3,0,-1,-1,1,-3,-1,-1
1533864478750480,-3,0,-1,-9,-7,-1,0,-1
1533864478750480,0,2,0,5,-3,-1,-1,1
1533864478751478,1,-1,0,-5,7,2,1,0
1533864478751478,-2,-2,-1,0,-9,1,-3,-2
1533864478765459,0,-2,0,1,2,-3,-2,-2
1533864478765459,-1,-1,0,-3,1,-2,-1,-1
1533864478773418,0,-1,-2,-2,-1,-1,-2,0
1533864478773418,0,1,-1,-2,-2,-2,0,0
1533864478788386,-1,-1,0,0,-4,-2,0,0
1533864478788386,2,0,-1,-1,8,2,0,0
1533864478795363,-2,-2,-1,3,-4,-2,0,-3
1533864478795363,-1,-1,-3,-6,-1,-5,-2,-3
1533864478811319,-1,-2,0,1,-3,-2,-3,-2
1533864478811319,0,0,-4,-3,3,1,-2,0
1533864478811319,-2,-1,1,-5,-1,1,2,2
1533864478811319,-1,1,0,0,-9,0,1,-1
1533864478825280,0,-1,-2,-1,0,0,0,0
1533864478825280,-2,-3,-2,-1,4,-2,-3,-3
1533864478833265,-2,-1,-3,-2,-3,-2,-3,-3
1533864478833265,-1,-2,-3,4,-7,-2,-2,-2
1533864478848223,0,0,-1,-2,10,2,0,0
1533864478848223,-3,0,0,-1,-3,1,-4,-2
1533864478849221,0,-1,0,3,2,1,4,1
1533864478849221,-2,-4,-1,-5,-5,-3,-1,-2
1533864478871157,0,-1,-2,3,-6,-16,-17,-5
1533864478871157,0,-3,-1,-3,3,-3,7,-2
1533864478871157,2,4,2,0,9,17,7,5
1533864478871157,-2,0,1,3,1,7,8,2
1533864478885120,-4,-1,-2,-2,-5,0,0,-2
1533864478885120,-1,-1,0,-3,-1,-8,-6,-6
1533864478893099,-1,-2,-3,0,-6,-9,-6,-3
1533864478893099,0,-3,-3,-5,-1,0,0,-2
1533864478908059,-1,1,2,0,-3,3,0,1
1533864478908059,-3,-2,-4,0,-3,-4,-5,-2
1533864478916054,-2,-1,-3,-1,-2,-7,-4,-3
1533864478916054,-2,-1,-2,-1,2,2,4,0
1533864478930998,-1,-1,0,-3,-1,4,1,0
1533864478930998,-1,-2,0,1,7,1,0,0
1533864478932015,-2,-1,0,-2,-14,-9,-5,-3
1533864478932015,0,-1,-2,-4,4,1,-1,-2
1533864478944977,2,-1,1,4,7,0,1,1
1533864478944977,1,0,2,0,5,8,1,0
1533864478952944,-2,-3,0,-2,-1,2,1,0
1533864478952944,-3,-1,-2,-3,-12,-9,-4,-4
1533864478968897,-3,-1,-2,-1,-5,-1,0,-2
1533864478968897,0,0,0,-2,-1,-3,-3,0
1533864478968897,-1,-3,-1,-2,5,-2,-2,-1
1533864478968897,-2,-2,-3,2,-5,-4,-2,-2
1533864478990837,1,-3,-1,-2,3,-2,-1,0
1533864478990837,0,-1,-3,-3,-4,-2,1,1
1533864478991834,0,1,0,2,6,1,0,-1
1533864478991834,-2,-2,-2,-3,-1,1,-4,-2
1533864479013776,-1,0,-3,-2,-8,-4,1,-1
1533864479013776,-2,-3,-1,-2,-8,-11,-6,-4
1533864479013776,0,-1,-4,-1,3,-1,-1,-2
1533864479013776,1,-1,-1,-3,8,6,1,1
1533864479036735,-3,1,4,-4,-11,3,3,3
1533864479036735,-5,-5,-8,0,-6,0,1,-2
1533864479037711,-4,-1,-1,0,-9,-6,-3,-2
1533864479037711,1,-3,0,1,7,-3,-13,-3
1533864479050681,0,1,-2,-3,2,-2,-2,-4
1533864479050681,0,3,1,-2,0,5,8,4
1533864479051687,-3,0,0,1,1,-2,-1,0
1533864479051687,-1,-1,-2,0,2,-1,1,0
1533864479073620,-3,-5,1,-1,-3,1,-1,-3
1533864479073620,-2,-2,-3,-2,0,-6,-8,-2
1533864479074613,0,-2,-4,-3,-15,-10,-3,-6
1533864479074613,2,2,-1,-1,2,3,-3,2
1533864479096573,0,1,0,1,4,8,1,1
1533864479096573,-3,-1,-2,0,5,-1,-1,-4
1533864479097574,-3,-2,-2,-6,-1,-4,-5,-5
1533864479097574,0,-2,-4,-3,-9,-14,0,-3
1533864479110520,2,1,2,6,19,10,2,8
1533864479110520,-1,1,3,2,5,5,6,0
1533864479111515,-2,0,1,-2,-15,3,4,2
1533864479111515,-3,-3,0,3,6,-1,-5,-5
1533864479133455,-2,-2,-6,-10,-27,-14,-5,-4
1533864479133455,1,1,4,0,1,-2,-7,0
1533864479134468,1,-1,-1,-7,1,-1,-2,-1
1533864479134468,-2,-2,-3,-1,-3,2,1,0
1533864479156654,-2,-6,-2,-2,0,1,6,-3
1533864479156654,0,-3,-1,1,-5,-1,-3,-2
1533864479157649,0,-1,-1,-2,5,-5,-6,-2
1533864479157649,1,0,3,0,-4,1,-9,-3
1533864479170617,1,-2,-4,-1,3,1,8,0
1533864479170617,0,-1,2,-5,-7,3,3,-1
1533864479178596,-4,-2,-4,3,3,1,4,1
1533864479178596,-3,0,0,-2,-1,-6,-5,0
1533864479193556,1,-2,-3,1,-1,-1,2,-4
1533864479193556,-1,2,3,0,5,8,6,4
1533864479194550,0,0,-1,2,0,2,-3,-1
1533864479194550,-1,-2,-2,-3,2,-4,2,-1
1533864479217491,-1,-3,-4,-1,-7,-11,-9,-5
1533864479217491,1,-1,-2,-3,-18,-11,-8,-3
1533864479217491,0,-4,-6,-4,1,9,4,3
1533864479217491,-1,-1,-1,-3,-4,3,3,1
1533864479230454,-3,0,1,0,7,0,-1,0
1533864479230454,-1,2,-4,-2,3,-5,-2,-3
1533864479238432,3,5,8,-5,-5,-10,-6,-1
1533864479238432,-6,-8,0,2,0,2,3,-2
1533864479253392,-3,-9,-6,-5,-5,-1,-2,-1
1533864479253392,-1,-6,0,-3,-4,-5,-2,-2
1533864479254410,2,2,-12,0,3,2,-1,-4
1533864479254410,1,2,-1,-2,-1,-2,3,1
1533864479276366,-1,2,-2,-2,3,1,-1,0
1533864479276366,-2,-2,-3,-5,6,-4,-7,-1
1533864479277333,2,-1,0,2,-10,-13,5,1
1533864479277333,0,1,0,-2,-8,12,10,8
1533864479290294,-3,-1,4,2,2,12,-7,2
1533864479290294,-2,-2,3,0,2,-3,1,-2
1533864479298272,-4,-4,1,0,5,5,-1,-4
1533864479298272,-2,0,-3,-1,0,-6,-2,-7
1533864479313267,-1,0,1,-2,-17,-7,-1,-3
1533864479313267,0,-3,-4,2,-1,7,4,-1
1533864479314236,-3,-5,-5,6,2,-7,-12,-5
1533864479314236,1,1,0,-4,-3,-9,-5,-1
1533864479344153,3,10,-1,0,15,1,-5,3
1533864479344153,-1,6,1,0,-3,-9,1,-1
1533864479345147,-3,-14,13,-5,-9,-7,-9,-5
1533864479345147,2,-3,-12,-1,-5,7,11,10
1533864479350138,1,0,-3,6,15,12,5,3
1533864479350138,-3,0,-8,-2,-1,13,11,7
1533864479359110,-5,-17,-4,0,8,1,-9,-2
1533864479359110,-1,-4,3,2,-18,-11,-11,-10
1533864479374070,1,-4,-1,-7,8,-14,-7,-6
1533864479374070,2,3,0,-1,-2,3,-2,1
1533864479375067,-1,5,-6,0,2,0,3,-1
1533864479375067,0,2,3,0,3,-4,-4,-3
1533864479404007,-2,-2,-2,2,-7,-2,2,-3
1533864479404007,-1,0,1,-2,1,-4,-3,-2
1533864479405007,1,5,-3,-3,-2,4,2,3
1533864479405007,-1,0,5,5,5,0,0,0
1533864479410008,1,3,4,0,-2,-3,0,-1
1533864479410008,-2,-2,6,5,16,3,-3,-2
1533864479417988,0,-6,-12,-2,5,4,0,-1
1533864479417988,-5,1,3,-1,-36,-4,-5,1
1533864479433916,-1,-6,-10,-3,-11,-1,-3,-3
1533864479433916,2,-1,-1,-5,-2,-1,-1,-1
1533864479433916,1,5,-7,7,7,2,0,0
1533864479433916,-1,1,-2,-2,14,0,-4,-3
1533864479456848,-3,-3,1,9,-1,-6,2,-2
1533864479456848,3,-4,6,-1,5,-3,-4,-1
1533864479456848,-2,2,-2,-18,-5,1,3,0
1533864479456848,-2,-3,-3,-1,-2,-5,-3,-3
1533864479478797,1,3,-2,0,-8,-4,-6,-2
1533864479478797,-1,0,-4,7,2,5,8,4
1533864479479787,-1,1,8,1,-7,-2,0,1
1533864479479787,-1,-2,-9,-8,7,-2,-2,-2
1533864479493752,1,-3,-1,-2,0,-3,-1,-4
1533864479493752,-1,-4,-8,0,-1,3,-7,-5
1533864479494764,-1,4,3,6,23,2,10,4
1533864479494764,-3,0,-1,-9,-43,-2,5,2
1533864479516691,-8,-5,-2,-8,-8,-4,0,0
1533864479516691,-2,-3,1,-5,-7,0,-8,-4
1533864479517685,0,2,3,-1,-1,-1,-1,-3
1533864479517685,5,2,9,8,30,0,-4,-5
1533864479538633,2,-7,-5,-10,-2,-5,-6,-1
1533864479538633,-2,-3,-7,3,-23,-6,-2,-2
1533864479545614,-2,0,-1,5,-6,1,-3,-1
1533864479545614,-1,1,-5,-4,23,4,3,0
1533864479553593,1,0,-4,-2,-8,0,-2,-2
1533864479553593,-3,-3,-9,-1,-8,-8,-4,-4
1533864479554589,3,1,6,4,1,11,3,6
1533864479554589,1,-3,4,-4,0,-1,0,-1
1533864479576532,2,4,6,5,17,11,5,5
1533864479576532,1,-1,2,0,-2,-6,1,-3
1533864479577525,-3,-2,4,2,1,-9,-5,-4
1533864479577525,-4,-4,-1,-7,-24,3,0,-3
1533864479599466,-2,-3,0,7,11,6,-2,-5
1533864479599466,-3,-2,0,-8,-13,-3,-1,-1
1533864479599466,-2,1,3,-8,1,-9,-1,-1
1533864479599466,1,1,-2,11,27,5,-1,-3
1533864479613439,-4,1,-9,-8,-18,-16,-8,-4
1533864479613439,2,1,-8,7,-5,2,-7,0
1533864479621515,-1,-5,-6,-1,0,7,2,1
1533864479621515,-2,-4,-6,1,1,-4,-2,2
1533864479636475,-2,-2,3,3,-6,-5,0,-2
1533864479636475,3,3,0,-6,0,1,3,0
1533864479638469,1,-1,-5,-5,1,-3,-5,-3
1533864479638469,0,-3,1,3,1,1,-3,-3
1533864479666412,6,0,5,1,-3,-2,-1,1
1533864479666412,-5,-1,4,-3,14,-5,-3,-3
1533864479668391,-4,1,0,3,-15,3,10,2
1533864479668391,-1,0,0,-4,0,-2,-5,-4
1533864479672380,-4,-11,-6,7,3,-1,4,-1
1533864479672380,-3,1,-7,-20,-15,-9,-12,-1
1533864479681356,0,-5,-5,2,-6,1,0,-3
1533864479681356,-4,0,-3,-12,-1,-2,-4,-1
1533864479696316,-3,-1,-5,-5,-8,-4,-1,-3
1533864479696316,1,1,1,8,4,1,-1,4
1533864479698329,0,3,-2,-3,7,9,-1,0
1533864479698329,3,-4,-2,-1,3,-2,-3,3
1533864479719253,3,4,6,-4,12,12,7,-4
1533864479719253,-9,0,-1,0,-23,-16,4,-6
1533864479720250,4,3,8,9,1,-10,-16,8
1533864479720250,-5,-7,-1,1,-8,-2,-1,-2
1533864479733219,-2,10,-4,-3,-2,-1,-3,-2
1533864479733219,-2,-14,-15,-2,0,0,1,-4
1533864479742192,-1,-8,-1,-2,-4,-1,2,-5
1533864479742192,1,2,-1,-1,0,-5,-1,-2
1533864479757155,0,0,7,2,1,-2,-5,0
1533864479757155,-2,1,6,3,15,6,3,1
1533864479758149,0,-3,-7,-11,-21,-9,-2,-2
1533864479758149,0,2,1,1,-2,1,-1,-6
1533864479779096,-1,-1,2,-2,-1,7,8,3
1533864479779096,-1,2,5,6,-7,-3,-6,-5
1533864479781098,-4,-10,-14,6,15,2,0,-2
1533864479781098,1,1,-2,-5,-26,4,2,2
1533864479794072,1,-1,-1,-2,14,2,-1,-2
1533864479794072,-3,-6,-9,7,-5,-11,-4,0
1533864479800036,-2,4,5,-1,9,-3,-1,-1
1533864479800036,-2,0,-4,2,6,-1,7,3
1533864479816991,-3,-3,-5,-4,-20,3,2,2
1533864479816991,-1,1,6,-4,9,1,0,-2
1533864479817996,-3,-8,-7,-4,-12,-9,-9,-7
1533864479817996,-1,-4,-5,1,9,-6,-6,-2
1533864479838933,0,0,0,-6,-5,-6,-5,-3
1533864479838933,1,2,4,-6,7,6,3,1
1533864479840928,1,4,-1,3,-6,-1,-4,-1
1533864479840928,0,1,9,6,8,4,-1,2
1533864479861875,-3,-1,-7,4,2,-3,-5,-3
1533864479861875,1,-12,-12,-7,-8,-2,5,1
1533864479862869,-2,0,0,-11,8,5,3,0
1533864479862869,-3,-6,-8,-1,-7,-4,-6,-1
1533864479876835,-4,-1,-2,-1,-8,-4,-1,-2
1533864479876835,3,7,6,-2,10,3,-1,1
1533864479877829,-1,0,2,-6,-12,-3,-2,-5
1533864479877829,-1,-2,-3,1,17,1,1,1
1533864479898773,-7,2,2,-5,-9,-8,-5,-3
1533864479898773,0,-2,-6,-4,11,3,6,3
1533864479900781,-3,1,-1,-3,-13,0,2,-3
1533864479900781,-3,1,-5,-6,-11,-10,-4,-7
1533864479912739,-1,-7,-4,-4,6,0,2,6
1533864479912739,-2,-2,-1,-4,3,1,-5,-1
1533864479921726,2,1,2,-3,7,8,3,1
1533864479921726,-1,2,1,-2,1,-1,1,0
1533864479936674,2,-1,2,-7,-5,-5,-3,-4
1533864479936674,0,0,13,-1,-4,1,1,-1
1533864479938666,-2,-9,-9,-3,-6,-4,-2,-1
1533864479938666,0,-7,-16,-2,-5,0,-6,0
1533864479959615,0,-2,-3,1,11,-2,-6,-2
1533864479959615,-1,0,-1,0,-6,5,-2,0
1533864479960614,-4,3,8,5,-9,-2,-1,-3
1533864479960614,0,5,13,-3,0,2,3,-1
1533864479972581,-2,-5,-8,-3,-3,0,-2,1
1533864479972581,0,-5,-6,2,-6,-3,-3,-2
1533864479981552,-1,3,5,-2,12,-4,-1,-2
1533864479981552,-2,3,2,-2,0,4,2,-2
1533864479996730,2,0,-4,2,1,-4,0,0
1533864479996730,-3,-11,-4,-6,-9,1,1,-2
1533864479998567,1,-1,-10,-2,-7,-8,-3,-2
1533864479998567,0,-2,3,3,-4,-3,-1,-1
1533864480019484,0,1,3,-2,0,6,5,2
1533864480019484,0,2,-7,1,5,-4,-5,1
1533864480020461,0,-2,-2,0,1,-3,-5,-1
1533864480020461,1,0,2,-3,-2,0,-1,-3
1533864480032415,-1,-2,-1,-5,-4,-2,1,1
1533864480032415,-7,0,-5,-1,0,0,2,-3
1533864480049369,-1,3,8,-1,0,3,1,1
1533864480049369,4,-1,-1,0,6,-2,-1,8
1533864480056351,-10,-6,-6,-1,-9,-4,-5,-14
1533864480056351,2,2,1,0,10,-3,-3,-4
1533864480058346,1,1,-2,2,-2,-5,-2,1
1533864480058346,-2,-3,2,-2,0,2,-3,0
1533864480078296,2,-1,-1,-6,-3,-10,-2,4
1533864480078296,1,3,2,1,-1,7,2,3
1533864480087270,-4,-3,-4,-4,-4,1,-4,-10
1533864480087270,-2,-3,-1,-3,7,-1,4,0
1533864480093256,2,-1,-9,2,6,-4,-6,3
1533864480093256,-3,1,-5,-3,0,-2,-2,-3
1533864480109209,2,2,9,-4,2,0,1,0
1533864480109209,-2,-6,-13,0,-4,-4,-1,-1
1533864480116197,-1,1,1,-3,-4,0,-1,-3
1533864480116197,-1,0,2,0,0,-6,1,-3
1533864480118186,0,-1,-7,2,5,8,8,2
1533864480118186,0,0,4,-5,-1,-6,-9,-1
1533864480139133,1,1,5,3,-3,-1,0,4
1533864480139133,0,-1,-2,3,-1,4,1,0
1533864480141127,-3,-2,2,-2,-8,-1,3,-1
1533864480141127,-2,-1,-2,-1,-7,-3,-1,-5
1533864480162071,6,0,3,1,2,-1,-3,9
1533864480162071,-1,-1,1,-3,0,-1,-1,-12
1533864480163066,-1,-1,-5,-2,-8,-8,-5,-2
1533864480163066,-2,-3,-2,0,12,7,0,-2
1533864480177032,0,-1,-2,1,-1,1,2,-1
1533864480177032,-2,0,5,-6,-11,-3,-2,4
1533864480178025,-1,-1,-5,2,2,-5,-2,-3
1533864480178025,-2,-2,-4,2,-8,-3,-2,-1
1533864480199038,-4,-2,2,-3,4,0,-2,-6
1533864480199038,0,0,-1,-1,-7,-7,1,-2
1533864480200965,1,0,0,5,24,-1,-13,5
1533864480200965,-2,2,0,1,-10,2,4,1
1533864480212936,-3,-2,1,0,-6,2,0,-3
1533864480212936,0,-2,-1,-1,-2,-2,-2,0
1533864480221909,5,0,2,-3,-1,-15,-11,-5
1533864480221909,1,-3,-4,-1,-2,-6,-3,-1
1533864480235874,-1,0,-2,-9,-4,14,7,3
1533864480235874,-4,-1,-1,4,5,1,0,0
1533864480243853,1,-1,-3,-3,-4,2,3,2
1533864480243853,-4,-1,-2,-1,2,-12,-7,-6
1533864480258811,-1,-1,-2,-6,-18,-12,-7,-6
1533864480258811,2,-1,-1,-2,4,4,-3,2
1533864480260804,1,-1,0,-2,-7,2,1,-1
1533864480260804,-1,2,2,3,1,1,0,-15
1533864480272937,0,-2,2,4,6,0,-2,-8
1533864480272937,3,-5,-3,-4,0,-1,4,36
1533864480281762,-1,-3,-2,2,-8,-1,0,10
1533864480281762,1,-3,-2,-3,-3,-1,-2,-2
1533864480296712,-2,2,2,7,5,0,-2,-11
1533864480296712,-1,1,-1,-6,-8,-6,-5,-11
1533864480297706,-4,-1,-3,1,0,4,7,-1
1533864480297706,3,0,0,-1,25,6,2,5
1533864480326826,-6,-2,-4,-3,-10,-16,-14,-7
1533864480326826,1,-1,-2,-5,0,-6,1,-2
1533864480328624,-5,-5,-1,-3,13,4,0,-1
1533864480328624,0,-1,-1,-1,-14,11,6,-5
1533864480332612,0,-2,-4,-8,-4,-1,2,11
1533864480332612,-1,0,2,11,4,6,2,-7
1533864480341589,-2,-1,-3,-1,7,5,4,-6
1533864480341589,-5,-3,0,0,-29,-10,-4,-4
1533864480364528,3,-2,-2,-3,3,-4,-1,3
1533864480364528,-6,-1,-5,-14,-8,-9,-6,-12
1533864480365524,5,2,6,5,7,11,-3,-31
1533864480365524,-10,-6,-10,-5,-9,-9,-3,64
1533864480379490,-8,-3,-3,-7,-22,0,0,-15
1533864480379490,4,1,3,2,-1,0,-2,-13
1533864480380485,-10,-2,-3,-1,-7,-10,-6,-21
1533864480380485,4,2,1,4,12,3,-4,15
1533864480401432,3,-4,1,6,20,2,3,9
1533864480401432,-4,-4,-3,-12,-32,0,5,5
1533864480403424,1,-2,-1,-2,-9,-5,-3,-4
1533864480403424,-5,2,3,-5,-14,-6,1,-26
1533864480416388,5,-1,-1,7,21,5,2,40
1533864480416388,-2,-1,-4,1,4,0,-5,-11
1533864480418383,2,-1,-2,-3,-11,-5,0,6
1533864480418383,0,1,2,-3,-6,-3,-4,-14
1533864480439341,-2,1,3,1,8,-2,-1,-14
1533864480439341,-1,-1,-2,2,8,-2,-1,15
1533864480441335,1,-1,-2,-5,-11,2,0,2
1533864480441335,0,-3,-5,2,34,0,-2,-10
1533864480461270,-2,-1,0,4,-16,6,1,-9
1533864480461270,2,1,0,1,5,0,-1,5
1533864480463263,-8,-1,-3,-4,6,-8,-4,1
1533864480463263,0,-1,2,-3,-3,1,0,-8
1533864480476231,-3,-1,-4,-6,-4,-2,0,-8
1533864480476231,0,0,4,4,3,-3,-4,-4
1533864480478223,-4,-1,1,3,8,6,1,-3
1533864480478223,2,-1,-2,0,-4,-1,-3,-5
1533864480506152,-1,0,-1,0,-3,-3,0,-1
1533864480506152,0,-1,0,0,5,2,0,1
1533864480508160,-2,-1,1,-3,-4,0,-1,1
1533864480508160,-1,-4,-4,-2,-6,2,3,-2
1533864480522109,0,-1,-2,-5,-6,-3,-2,0
1533864480522109,-8,-1,-4,0,4,-1,-3,-11
1533864480523120,1,0,-2,-2,-6,-1,-1,8
1533864480523120,-1,0,-2,0,-5,-2,0,0
1533864480544050,-2,-1,-5,-3,5,-2,-1,-4
1533864480544050,-5,-2,0,-1,1,0,-1,-7
1533864480546042,3,-2,-1,-2,-5,0,-1,11
1533864480546042,-4,0,2,0,1,2,0,3
1533864480566986,0,-2,-1,0,1,1,-2,-13
1533864480566986,-3,-1,-5,0,-4,-2,-2,-1
1533864480567983,-1,-1,-3,-2,-5,-4,0,5
1533864480567983,-1,-2,-1,-1,1,2,-2,-7
1533864480588930,-3,-2,3,2,0,-3,-2,1
1533864480588930,-1,-1,-1,-3,-8,-2,3,-1
1533864480590922,-3,-1,-4,-4,0,-3,-2,-2
1533864480590922,1,2,-1,-3,0,1,1,1
1533864480595912,-13,0,1,-4,0,1,-1,-5
1533864480595912,4,-2,-2,1,8,2,-2,0
1533864480602893,-3,-2,-1,0,-7,-4,-3,-2
1533864480602893,-1,0,0,-4,-8,-4,0,-2
1533864480618866,0,0,-4,-4,-1,2,2,3
1533864480618866,0,-1,-1,2,-1,1,0,-1
1533864480620842,-1,-2,0,-1,1,0,0,2
1533864480620842,-4,-1,1,-2,4,-2,-3,-6
1533864480641789,2,1,4,-3,-3,0,4,4
1533864480641789,-2,-1,-2,-1,6,-2,-4,1
1533864480642783,0,-1,-4,-1,-6,0,-2,-7
1533864480642783,0,-1,-1,5,-10,1,-1,0
1533864480655748,0,-3,-4,0,12,-4,-4,-4
1533864480655748,1,-1,0,-3,-15,-1,3,-2
1533864480664731,-3,-3,-1,2,-1,1,-1,0
1533864480664731,-1,-2,-2,-2,1,-4,-1,-2
1533864480679694,-1,-2,-4,3,0,1,-2,1
1533864480679694,0,0,-5,1,0,-2,-2,-2
1533864480680681,0,1,-5,-2,3,-2,-3,-1
1533864480680681,-2,0,-7,-3,-4,-2,1,-1
1533864480701627,-1,1,-8,0,1,-4,-2,-5
1533864480701627,0,-1,-1,1,6,-5,-2,0
1533864480703620,-1,0,4,0,4,5,1,4
1533864480703620,-3,-5,-2,-3,7,-2,-2,-2
1533864480715588,2,1,6,0,-7,-3,-3,0
1533864480715588,1,0,0,-2,-3,1,1,-2
1533864480724564,-1,1,1,0,2,3,1,0
1533864480724564,-1,-2,1,-1,-1,-2,0,-3
1533864480739527,0,-3,-2,-1,-3,0,-2,-3
1533864480739527,-1,-2,0,0,1,-1,0,0
1533864480740521,-2,-3,-3,-1,-3,-3,0,-2
1533864480740521,0,-1,6,-2,0,0,-1,-1
1533864480761469,0,-1,2,-3,-8,-5,-1,1
1533864480761469,0,-2,-4,-3,-5,-7,-4,-3
1533864480763473,-1,-1,-2,1,6,9,1,2
1533864480763473,-2,-1,-4,4,-3,3,-3,0
1533864480775431,-3,-3,-4,-1,2,1,-1,-2
1533864480775431,-3,-1,-14,2,-7,-1,0,-1
1533864480784403,-1,-2,-4,-6,-3,-8,-3,-1
1533864480784403,2,0,-3,-2,-1,-4,-1,-1
1533864480799364,-1,3,-4,-2,7,2,1,0
1533864480799364,-4,-2,-4,0,-3,-1,-1,0
1533864480800362,-4,-4,-9,0,-2,-1,1,-1
1533864480800362,0,-1,4,0,-1,-2,-4,-1
1533864480821324,0,-1,14,2,-6,-3,0,-2
1533864480821324,1,-2,10,-2,0,-2,-2,-4
1533864480823300,1,-1,13,1,-8,-4,-3,-3
1533864480823300,-1,-2,0,-2,1,0,1,1
1533864480835271,-6,0,-2,1,-6,1,0,2
1533864480835271,-4,-1,0,-2,10,0,0,-1
1533864480844243,0,-1,2,-2,-7,-3,-1,-1
1533864480844243,1,1,-6,-2,0,-6,-2,-4
1533864480859207,1,-9,-70,-8,-1,-2,-1,-2
1533864480859207,4,1,88,11,2,4,2,2
1533864480861199,-1,2,53,6,-2,-3,1,-1
1533864480861199,0,-2,12,-2,3,-3,-3,-2
1533864480881145,1,2,11,-2,-5,-1,-2,-2
1533864480881145,0,0,-34,-9,0,4,2,1
1533864480883140,-1,-1,-19,0,4,1,-2,-2
1533864480883140,-2,1,8,-1,-6,-3,-1,-3
1533864480895108,0,3,11,-3,-6,0,2,-2
1533864480895108,-2,-3,-21,5,-2,-3,-7,-4
1533864480904098,-1,2,6,0,-1,1,4,4
1533864480904098,-1,-5,-25,0,7,6,2,1
1533864480919044,-4,-7,-8,-4,-5,-9,-3,-2
1533864480919044,0,-3,-5,-3,-2,5,-1,-3
1533864480921039,-1,4,-7,-7,-2,-6,-3,-3
1533864480921039,-4,0,-17,-2,-6,-2,-3,-1
1533864480941986,0,-4,18,-1,-2,1,-1,-1
1533864480941986,-1,-1,-20,-3,1,-1,0,0
1533864480942995,-2,-1,-8,-5,1,-2,-1,-2
1533864480942995,-1,5,-1,2,-5,-3,-2,0
1533864480954951,-3,-1,13,8,8,0,-1,1
1533864480954951,-3,-3,-15,1,-7,-6,-2,0
1533864480963930,0,-4,-17,-4,1,-4,-3,-3
1533864480963930,-1,-3,1,-3,-5,-2,1,-3
1533864480978884,1,0,-1,-2,0,3,1,0
1533864480978884,1,0,4,0,4,2,3,-1
1533864480980879,-1,-3,-8,-3,-5,0,-1,-2
1533864480980879,-2,1,9,-1,4,-1,-4,-2
1533864481001827,-2,1,1,-1,-16,-7,-3,-2
1533864481001827,0,0,-4,-6,8,-3,-1,-1
1533864481002820,1,1,5,8,-2,4,1,0
1533864481002820,0,-5,-12,-3,-2,-1,0,0
1533864481024139,-11,-5,-3,0,-27,-8,-7,-4
1533864481024139,-3,-2,0,-8,-1,-3,-3,-1
1533864481025915,-3,-2,-8,-8,-13,-5,-5,-2
1533864481025915,1,-1,9,3,9,4,2,0
1533864481038881,1,0,-1,1,11,3,0,-1
1533864481038881,-2,-3,3,1,-13,-4,-1,-2
1533864481040876,0,-3,-6,-4,11,0,0,0
1533864481040876,-1,2,5,0,-2,3,1,1
1533864481061823,3,0,10,1,2,1,2,1
1533864481061823,-2,-2,-3,-2,-1,-1,-4,-4
1533864481062817,-1,2,-5,-1,2,0,-2,-2
1533864481062817,-2,-3,8,-3,-5,-1,1,-2
1533864481075785,-1,-3,-11,8,8,-1,-2,-4
1533864481075785,-2,0,-4,-4,-6,-2,2,-1
1533864481084759,-1,-4,-1,-1,0,-2,0,-1
1533864481084759,-2,-2,-7,-4,-7,-3,-5,-2
1533864481098721,1,2,-1,-6,10,1,1,2
1533864481098721,0,0,-10,3,-14,-3,-1,-1
1533864481105702,-2,-2,-4,-2,0,-4,-1,-3
1533864481105702,-2,-3,0,0,-3,-5,-4,0
1533864481121674,2,-1,4,-4,2,-3,-3,-4
1533864481121674,0,3,-5,-1,9,2,1,2
1533864481123654,-1,-5,-4,-2,-3,3,-1,1
1533864481123654,-2,-3,-2,0,-2,3,4,-1
1533864481135625,0,5,-14,-3,2,-4,-1,-2
1533864481135625,1,-12,1,1,-2,-1,1,-3
1533864481144598,-2,1,5,1,7,2,-1,2
1533864481144598,-2,-1,-4,7,-11,-4,0,-1
1533864481158561,-3,-5,5,-22,-11,-1,-2,-2
1533864481158561,1,4,9,8,4,-2,0,-3
1533864481165560,-1,-6,-9,9,3,-2,-2,-3
1533864481165560,0,-2,-9,-6,0,-3,-4,-3
1533864481181499,0,-2,-11,-1,1,3,2,1
1533864481181499,-2,-1,2,-6,0,0,-4,0
1533864481183494,0,-1,-6,-4,-4,-3,-3,-3
1533864481183494,-2,3,5,1,2,0,1,0
1533864481195465,2,4,5,6,5,4,0,2
1533864481195465,-1,-3,1,-2,4,-2,-3,0
1533864481204438,1,2,7,1,-3,-4,-1,-3
1533864481204438,0,-2,-6,-6,1,3,-2,-4
1533864481218404,-4,0,-14,3,-9,-3,-2,-2
1533864481218404,-1,4,17,3,-1,1,1,1
1533864481225385,-1,-12,0,-7,-4,-3,0,0
1533864481225385,0,-1,1,1,4,-4,-2,-1
1533864481241343,-2,-4,-6,1,7,-1,-1,-1
1533864481241343,-3,0,-8,-7,-5,-3,-5,-3
1533864481243334,-4,2,-1,2,-1,-3,-2,0
1533864481243334,1,-1,2,-5,1,0,0,-1
1533864481255302,-2,-2,10,3,0,2,1,-2
1533864481255302,-1,1,-5,1,0,-3,0,-2
1533864481264294,0,-2,1,-1,4,-2,-2,-2
1533864481264294,-1,0,-2,3,-1,3,2,4
1533864481278240,-2,-1,1,-2,-6,-1,-3,-1
1533864481278240,-2,-1,-5,-1,-3,-2,-1,-1
1533864481285225,-3,2,-7,-5,-9,1,-2,-1
1533864481285225,-1,-1,-4,-2,2,-2,-3,-4
1533864481301214,2,0,4,2,0,-1,-1,-2
1533864481301214,-2,5,-57,-9,5,0,-3,-2
1533864481303174,1,-9,37,10,1,-1,1,1
1533864481303174,-3,-3,-4,-4,0,-6,-2,-3
1533864481315142,0,-2,3,-5,2,-3,-1,1
1533864481315142,-3,-2,-2,0,-4,1,3,0
1533864481324119,0,4,-22,-1,-1,5,0,-1
1533864481324119,0,0,-3,0,7,-3,-3,0
1533864481338081,2,1,0,2,-11,2,3,2
1533864481338081,-2,-4,10,2,-9,-4,-1,0
1533864481345062,-1,3,-5,-3,-7,-4,2,-1
1533864481345062,-3,-2,11,1,-8,-2,-2,0
1533864481362057,-2,-2,2,0,6,2,1,1
1533864481362057,2,-2,6,-4,0,0,1,2
1533864481363054,1,7,-4,-2,-4,-1,-1,-3
1533864481363054,-1,-14,-6,0,0,0,-2,1
1533864481384003,-2,-2,-5,-1,5,-3,-3,-3
1533864481384003,-1,-4,7,-1,-4,-3,-3,-3
1533864481385992,0,-1,-2,2,16,-4,-2,1
1533864481385992,0,6,-3,-11,-37,-7,-2,-3
1533864481397960,-2,1,-1,8,4,2,0,2
1533864481397960,-4,-5,11,3,-3,0,0,1
1533864481404942,-3,-1,-1,-2,-4,-1,-4,-4
1533864481404942,0,1,-2,0,18,2,-2,-3
1533864481421900,0,-2,-24,-6,-8,-3,0,-3
1533864481421900,-1,1,-1,-1,-2,-3,-1,-3
1533864481422894,0,2,43,4,4,-2,2,-2
1533864481422894,0,0,4,-3,2,2,0,-1
1533864481443842,-2,-1,0,-3,-1,-3,-4,-4
1533864481443842,0,5,11,-1,4,-1,0,-2
1533864481445832,-1,-4,-17,-5,-1,0,-1,1
1533864481445832,-4,1,-6,2,-10,-2,0,0
1533864481458798,-1,-7,21,4,1,-5,-5,-2
1533864481458798,2,-1,-5,1,7,4,0,-2
1533864481464781,-3,-3,-86,-20,-4,-3,0,1
1533864481464781,-1,0,75,6,-2,-4,-1,-3
1533864481481738,-3,1,-2,-3,-1,0,-2,-2
1533864481481738,-4,0,5,0,2,0,-3,-1
1533864481482734,-2,-5,-10,4,1,0,-1,-1
1533864481482734,-2,-2,-24,0,2,0,-1,-1
1533864481504675,-2,-3,-1,-3,-1,-1,0,-2
1533864481504675,0,-3,10,0,0,2,-1,1
1533864481505672,-1,0,13,4,-5,0,-2,-1
1533864481505672,0,0,-18,-1,1,-2,-2,-2
1533864481517640,0,0,12,2,-2,0,1,1
1533864481517640,0,-3,-17,-4,-3,-2,-1,-1
1533864481526617,0,1,4,0,-5,0,-1,-2
1533864481526617,-1,0,-11,-3,1,0,0,1
1533864481541576,-2,-2,-10,-4,0,-2,-2,-1
1533864481541576,0,0,2,2,-3,-5,0,-1
1533864481543598,0,0,9,0,5,1,-2,-2
1533864481543598,-2,-3,-3,-3,-9,-4,1,-1
1533864481564515,-2,-2,0,1,-3,1,0,-1
1533864481564515,-3,-3,-3,-3,-6,1,0,1
1533864481565512,-1,0,11,2,-5,-2,-1,-1
1533864481565512,-1,-1,-14,-3,4,2,-2,-2
1533864481577484,-1,0,-5,-2,2,-1,-3,-2
1533864481577484,1,-2,0,0,-2,-2,-2,-2
1533864481586456,-1,-2,0,0,-3,-1,-2,-1
1533864481586456,-1,-2,-3,-1,3,-1,-2,-2
1533864481601494,0,-1,1,-3,1,-3,-3,-2
1533864481601494,-2,-2,1,-1,-1,-2,-2,-3
1533864481603426,-2,-1,2,-2,0,-4,-1,0
1533864481603426,-2,-1,-6,-1,-1,-1,-1,0
1533864481624369,-1,-2,4,0,3,-1,-1,0
1533864481624369,0,-1,-3,-3,-8,-2,-1,-1
1533864481626378,1,-1,0,-1,-6,0,-2,0
1533864481626378,0,1,-2,-1,-1,-2,-1,-1
1533864481638578,0,-3,-4,-3,-4,-2,0,-1
1533864481638578,-1,-3,0,-2,1,-2,-1,-2
1533864481645544,-1,-1,2,3,6,0,-1,1
1533864481645544,-3,-1,0,-6,-4,-1,-2,1
1533864481661502,1,1,0,-1,-3,3,0,0
1533864481661502,-1,-1,-1,-1,0,-1,-1,0
1533864481663494,0,-2,1,4,-2,-4,-2,-4
1533864481663494,-1,-3,-5,0,4,-2,1,-3
1533864481684440,0,1,-1,-1,2,0,1,1
1533864481684440,0,0,0,-2,-10,-1,0,-1
1533864481685444,-1,-1,2,-1,-4,-2,-1,-3
1533864481685444,-1,-3,-3,2,2,0,-4,-1
1533864481698424,-1,-3,-4,-4,-1,-4,-2,-3
1533864481698424,-4,0,-1,1,5,0,-2,0
1533864481712366,-2,-1,0,-5,-11,-1,-1,0
1533864481712366,0,-1,-1,0,-3,-1,-1,-2
1533864481721466,0,0,0,-1,7,-4,-1,-1
1533864481721466,1,-1,-3,-1,-3,0,-2,0
1533864481723358,-2,-1,-1,-2,0,0,-1,-1
1533864481723358,-1,-1,0,-2,-1,0,-1,-1
1533864481744280,-2,-1,-2,-1,-3,-2,-1,-1
1533864481744280,-1,-1,-2,-2,0,-1,0,0
1533864481745275,0,-2,-1,-2,-3,-2,-1,1
1533864481745275,-1,-1,0,1,0,0,0,0
1533864481758239,-3,0,-2,-1,-2,3,1,0
1533864481758239,-1,1,1,-1,2,-2,-4,0
1533864481765221,-1,-2,-1,0,-2,0,-1,1
1533864481765221,-2,-1,-2,0,-1,-7,-4,-4
1533864481781179,-2,-2,-2,-3,-5,-3,2,-1
1533864481781179,1,1,3,2,3,2,2,2
1533864481783182,-1,0,-2,1,2,1,1,1
1533864481783182,-3,-4,-2,0,-1,0,-2,-2
1533864481804121,-1,-2,0,0,-6,-2,-4,-3
1533864481804121,0,-2,-1,-2,-4,-2,-2,-2
1533864481806117,0,2,-4,1,-1,-2,-2,-4
1533864481806117,-2,-2,-1,0,0,-1,0,-2
1533864481818100,-3,-2,-1,-3,-5,-3,-1,-3
1533864481818100,-1,-2,-2,2,0,-3,-3,-4
1533864481825064,1,-1,1,-10,-2,2,0,-1
1533864481825064,-2,1,0,-2,1,0,2,1
1533864481842015,-1,-1,-2,0,-1,-1,-5,-2
1533864481842015,-2,-1,-2,-1,1,2,5,1
1533864481843012,-5,-1,-1,4,-3,-5,-2,-3
1533864481843012,1,-1,-1,2,0,2,-2,-1
1533864481863957,1,2,1,0,5,5,-1,2
1533864481863957,-2,-2,-1,-2,-3,-4,-1,-2
1533864481865964,-2,-1,-2,-2,-6,-3,-3,-1
1533864481865964,-2,-1,-4,-4,-1,0,1,0
1533864481877923,-2,-2,-1,0,-6,-5,-4,-3
1533864481877923,-1,-2,0,-1,4,-1,-2,-1
1533864481886895,1,-1,0,1,9,1,0,-2
1533864481886895,-3,1,-4,-7,-20,-7,-3,-1
1533864481901856,0,0,-2,2,-2,-2,-1,2
1533864481901856,0,0,-2,-2,0,-1,-2,-2
1533864481902852,0,0,1,5,11,2,-1,1
1533864481902852,1,-3,-3,-5,6,4,-2,-1
1533864481923835,-3,-2,-2,-1,-12,0,1,-2
1533864481923835,0,-3,7,-2,-2,-7,-4,-1
1533864481925792,-1,0,-5,2,-4,2,-5,-2
1533864481925792,-2,-2,0,5,9,-3,-2,-1
1533864481937760,-3,0,-5,-15,-19,-6,-2,0
1533864481937760,-4,-4,-14,-5,-5,1,-1,-2
1533864481946736,0,-4,1,-4,-1,-7,-3,-3
1533864481946736,1,-1,-3,5,6,2,-2,0
1533864481961696,-1,0,1,2,7,-2,-1,0
1533864481961696,-2,0,-2,-2,-12,-2,-1,-2
1533864481962693,0,-2,-2,-5,1,-1,3,-2
1533864481962693,0,0,6,0,-2,-3,-1,0
1533864481991793,-1,-1,-1,5,8,0,-4,-3
1533864481991793,0,1,2,0,5,2,1,3
1533864481993612,-1,-2,-1,-5,0,3,4,1
1533864481993612,-1,0,-8,-2,-3,-2,2,0
1533864481997600,-2,1,1,1,-1,1,-2,-4
1533864481997600,-2,-4,12,-1,-3,-4,-5,-5
1533864482006575,-2,-7,-16,-5,-7,-1,2,1
1533864482006575,-1,-3,-3,-1,-3,-1,-1,-2
1533864482021741,-2,-2,-2,3,4,1,1,3
1533864482021741,0,5,2,1,0,0,-3,-1
1533864482023548,-4,3,10,4,1,-4,-2,-6
1533864482023548,-2,0,-7,0,-9,-3,0,-3
1533864482043480,-2,-6,3,3,7,-3,-2,-4
1533864482043480,-1,-9,-2,-9,-3,-6,-3,-3
1533864482051455,2,-2,-3,0,-5,3,-2,1
1533864482051455,0,4,7,4,-8,-2,2,2
1533864482057443,-2,-1,-17,-24,-5,5,0,0
1533864482057443,-3,1,-9,3,1,1,-2,1
1533864482066416,-1,-1,1,0,1,-1,-2,-2
1533864482066416,0,-1,17,2,5,4,-1,-1
1533864482081376,2,-1,-10,2,4,-3,1,1
1533864482081376,-1,-3,-4,-2,1,-3,-1,-3
1533864482083371,-1,0,-4,-3,-1,-1,-2,0
1533864482083371,0,1,0,-1,4,-1,0,0
1533864482104330,-2,-2,5,0,-1,-3,-1,-1
1533864482104330,-2,-1,-3,0,1,1,0,0
1533864482105312,-2,0,2,0,-3,-3,1,0
1533864482105312,0,-4,-6,-4,-3,-2,-2,-3
1533864482118335,-1,-1,3,1,-4,-2,-2,-2
1533864482118335,-1,0,-1,-1,-3,1,2,0
1533864482126255,-1,0,0,0,-4,-1,-1,0
1533864482126255,-1,-5,-5,-2,6,-1,-3,-3
1533864482142213,1,0,2,1,-2,6,5,1
1533864482142213,1,-1,0,1,7,-4,-3,-1
1533864482143217,-2,-1,1,-1,3,-4,-2,-2
1533864482143217,-2,0,-2,-5,-12,1,0,1
1533864482164155,-2,-7,-1,3,-1,1,0,1
1533864482164155,-1,0,-4,-2,-11,-4,1,0
1533864482166149,0,-1,-2,-1,0,5,-1,-1
1533864482166149,-1,1,11,0,1,-4,-3,-3
1533864482178318,-1,-2,-12,-1,-5,-3,-5,-2
1533864482178318,-1,-3,-3,1,6,3,0,-1
1533864482187092,-2,-4,-3,-2,1,-8,-3,-2
1533864482187092,-1,0,-4,-2,0,-2,2,-2
1533864482201072,0,1,6,2,6,1,1,0
1533864482201072,-1,1,-1,-1,1,3,-1,-2
1533864482208040,-2,-1,-3,-1,-5,-1,2,0
1533864482208040,-1,-3,-2,-2,-2,-5,-2,-1
1533864482224206,-1,0,2,0,-1,-2,-1,-1
1533864482224206,-1,0,-1,0,1,0,-1,-1
1533864482225988,-1,-1,0,-3,-4,-2,-3,-1
1533864482225988,1,-3,-3,-2,-1,3,-1,0
1533864482237956,-2,0,-1,-3,3,-10,-6,-1
1533864482237956,0,2,0,1,0,10,4,0
1533864482246933,-1,-1,1,2,6,-1,-1,-3
1533864482246933,-4,-2,-7,-6,-24,-6,-3,-2
1533864482268981,-1,0,2,2,-1,0,-5,-4
1533864482268981,-2,-2,0,-4,-10,-2,-1,-1
1533864482270869,-1,0,-3,1,7,5,0,1
1533864482270869,1,-2,-2,-1,10,4,1,0
1533864482284047,-1,-1,-4,-2,-2,-5,-2,-2
1533864482284047,-1,-3,-3,-1,-8,-6,-1,-2
1533864482286042,1,-1,0,-1,-2,-3,-4,-1
1533864482286042,-1,-1,-1,-2,3,-2,-1,-1
1533864482306985,0,-3,2,-2,4,4,2,2
1533864482306985,0,-2,0,1,7,-3,-4,-1
1533864482307995,0,-3,-2,-5,-11,-2,2,1
1533864482307995,-2,1,-1,0,3,-1,-4,-4
1533864482320946,-1,0,-3,0,-1,-2,-1,-2
1533864482320946,-2,-1,-2,-2,1,-2,-2,1
1533864482327927,-3,-2,-1,-3,0,0,2,-2
1533864482327927,-2,-1,-1,2,0,-3,1,-1
1533864482343888,0,0,-1,1,4,0,-3,0
1533864482343888,-2,-1,-1,-4,-15,-8,-4,-4
1533864482345880,0,0,1,0,1,2,-2,-1
1533864482345880,-1,-2,-3,0,1,4,6,3
1533864482366827,0,-1,0,2,4,0,2,-1
1533864482366827,-3,-2,0,0,-1,-3,2,0
1533864482367821,0,-2,-2,-7,-13,-1,-2,-3
1533864482367821,-3,-3,-4,0,-4,-5,-2,-5
1533864482380787,-2,-1,0,-1,-7,1,-1,-1
1533864482380787,-1,-2,-2,1,7,0,-1,0
1533864482388765,-2,0,-2,-2,-5,-6,-2,1
1533864482388765,0,-1,-4,-2,0,-1,-3,0
1533864482403728,0,-1,0,-3,-3,-1,-5,-1
1533864482403728,-2,-3,-2,-3,-2,3,0,-1
1533864482405720,-2,-1,0,0,0,1,-3,-1
1533864482405720,1,0,1,0,5,1,0,1
1533864482426667,-4,-1,0,1,-5,-5,-1,-2
1533864482426667,-2,0,-3,1,3,2,1,-2
1533864482428662,-1,-1,-1,0,3,0,1,0
1533864482428662,-3,-2,-4,-5,-14,-7,-6,-3
1533864482440629,-2,2,2,-4,3,0,1,0
1533864482440629,1,-2,2,-1,0,1,-3,-2
1533864482447608,-1,-2,-3,1,2,1,0,-3
1533864482447608,-1,-3,-2,-1,-2,-2,-1,-3
1533864482464564,0,0,-1,-1,0,2,2,2
1533864482464564,0,0,-1,1,-1,-3,-1,0
1533864482465561,-2,-2,-2,-3,-5,-1,1,-1
1533864482465561,0,-1,1,1,7,3,-4,0
1533864482486522,0,-4,-3,-1,-16,-7,-2,-3
1533864482486522,-1,1,0,0,0,0,-4,-2
1533864482488498,0,0,1,0,1,-1,1,2
1533864482488498,-3,0,0,1,4,4,3,-1
1533864482500467,-3,-3,-3,-3,-6,-4,-1,-1
1533864482500467,-1,0,-2,0,-4,-6,-5,-2
1533864482509442,-2,-1,-2,-2,-4,-2,-3,-4
1533864482509442,0,-1,-3,-1,-4,-2,0,-1
1533864482524402,0,0,-1,1,5,0,-2,0
1533864482524402,0,-1,-3,-2,-4,0,-3,-1
1533864482525399,0,-1,0,-3,2,-5,-4,0
1533864482525399,1,-1,-1,-5,2,-1,-4,0
1533864482547341,0,-2,-1,0,-2,0,3,-1
1533864482547341,-2,-3,-1,-3,3,-1,-2,-3
1533864482548338,-2,-2,0,-2,3,2,-1,-2
1533864482548338,0,1,0,1,4,2,0,4
1533864482560306,-2,-1,-1,-2,-4,-1,-3,-1
1533864482560306,-1,1,0,-1,1,0,1,-1
1533864482569283,-1,-1,-1,1,-7,-5,-2,-3
1533864482569283,-2,-1,-2,-1,2,-4,1,-3
1533864482584342,-1,0,-2,-1,-1,1,0,-1
1533864482584342,-2,0,1,2,6,0,-3,0
1533864482585241,-1,-4,-2,-4,-8,-4,-4,-4
1533864482585241,-2,1,1,1,-4,-1,0,0
1533864482606185,-1,0,-1,-2,0,0,-2,-2
1533864482606185,-2,-2,-1,-1,-1,-3,-2,-1
1533864482608180,0,-1,-3,1,0,0,1,1
1533864482608180,-2,-3,-3,0,-5,-5,-6,-3
1533864482620150,-1,-2,-1,0,0,-1,0,-1
1533864482620150,-2,-3,-1,-4,-3,-5,1,-3
1533864482629122,-1,-2,0,0,2,-1,-1,-3
1533864482629122,-1,-1,-1,-2,2,-1,1,-1
1533864482644085,-1,1,0,-3,3,1,0,1
1533864482644085,-2,0,-2,-1,3,2,1,0
1533864482646077,-2,1,-2,3,-7,-2,-2,-1
1533864482646077,-1,-1,0,-6,-6,-1,-1,-1
1533864482667021,0,-2,0,-1,-6,-2,-3,-4
1533864482667021,-1,-2,0,1,-1,0,0,-1
1533864482668019,-2,-1,-1,-3,4,0,2,2
1533864482668019,-2,-3,-3,0,-4,-2,0,-1
1533864482679987,0,0,-3,1,0,-1,-1,-2
1533864482679987,-1,-1,-4,-5,-4,0,0,0
1533864482688963,-3,-2,-2,-1,-1,0,-2,-3
1533864482688963,-2,-1,1,-2,-2,-2,1,0
1533864482703927,-1,-1,0,0,5,1,2,-1
1533864482703927,-1,-1,-2,-2,-4,-1,1,-2
1533864482705923,-1,-1,-2,0,-7,-2,-1,0
1533864482705923,-1,-2,1,3,-5,0,-1,0
1533864482726869,0,-2,0,2,-2,-2,0,1
1533864482726869,-1,0,-2,-5,2,-4,-3,-2
1533864482732848,-1,-1,-1,-3,4,2,-4,0
1533864482732848,1,-2,1,2,-1,-2,-3,-1
1533864482740854,-1,-1,-2,0,-3,-2,-1,-3
1533864482740854,0,-2,-2,2,-5,-2,0,0
1533864482748802,0,0,-1,0,3,-2,-2,-2
1533864482748802,0,0,-1,-1,6,-2,-2,-1
1533864482763764,-1,-1,-2,-5,-6,-2,-5,-1
1533864482763764,-3,-2,-1,-3,-6,-1,0,-1
1533864482765757,-2,-1,-1,1,0,0,-1,-2
1533864482765757,-1,-1,0,-1,2,3,-3,0
1533864482786710,-2,0,-1,-1,0,-4,-1,-3
1533864482786710,0,-1,0,-3,-7,0,1,-1
1533864482788695,-3,-2,-2,2,12,5,3,0
1533864482788695,-1,-2,-1,-1,-6,-6,-3,-4
1533864482800663,-4,-1,-1,-1,-2,0,1,0
1533864482800663,-2,-1,-1,1,-3,4,6,3
1533864482809639,-2,-2,0,-2,-6,-1,1,-2
1533864482809639,-1,-1,0,2,-9,-5,-3,-1
1533864482824603,-1,1,-2,1,17,-4,-3,0
1533864482824603,-2,0,-3,-3,-2,0,1,0
1533864482825596,-1,-1,-1,1,0,4,-2,0
1533864482825596,-2,-3,-4,-7,0,-6,-4,-5
1533864482846540,-3,-4,-1,-7,-22,-4,-1,-1
1533864482846540,-1,-2,-2,2,7,2,-5,0
1533864482848536,2,-1,1,-2,2,0,-2,-2
1533864482848536,-3,0,-1,0,6,5,1,-3
1533864482860506,0,-2,-2,-3,-12,-8,-4,-3
1533864482860506,1,-2,-2,-3,3,-3,-2,-3
1533864482869486,-2,1,1,1,-2,-3,-4,3
1533864482869486,-2,-1,-2,-1,-7,-2,-3,-1
1533864482883447,0,0,1,3,10,6,1,1
1533864482883447,1,1,3,0,2,-4,-10,-4
1533864482890426,-1,-1,-3,0,-5,-3,1,-2
1533864482890426,-1,0,0,-3,8,6,4,2
1533864482906383,-4,-3,-7,-1,-2,-6,-6,-2
1533864482906383,1,-1,-1,-2,-6,0,1,0
1533864482908385,1,1,3,-2,-3,-4,-1,0
1533864482908385,1,-2,1,0,-8,-6,-3,2
1533864482920346,2,0,3,-3,-2,-9,-9,0
1533864482920346,-7,-7,-5,-4,-16,-6,-9,-9
1533864482929320,1,1,4,3,12,16,8,5
1533864482929320,0,0,1,5,7,19,8,-4
1533864482944282,-3,0,1,5,5,7,7,-2
1533864482944282,-2,0,-5,0,-1,-9,-4,-2
1533864482945276,-2,-4,-6,-8,-8,-11,-8,-4
1533864482945276,1,-1,-7,5,6,-10,-2,-2
1533864482966224,0,-1,-6,-16,-21,-4,-2,0
1533864482966224,1,0,-1,-5,2,-2,2,4
1533864482968216,-1,-3,-4,-6,-15,-6,-5,-5
1533864482968216,2,1,-1,-6,-4,-5,-2,0
1533864482980183,1,-1,2,2,12,3,9,5
1533864482980183,0,-2,4,5,-3,6,1,3
1533864482989266,-3,0,2,1,9,7,2,0
1533864482989266,-3,2,-2,-2,-5,-7,-8,-3
1533864483004151,-2,-2,1,-1,-8,-3,-2,-4
1533864483004151,-1,-2,0,1,8,-1,-2,-1
1533864483006115,0,-1,-4,2,-4,-6,-4,-2
1533864483006115,2,-3,-4,-5,-5,-2,8,30
1533864483027228,-7,-5,-37,-2,3,-1,-10,-53
1533864483027228,-5,0,6,-5,-7,1,-1,6
1533864483028056,-3,0,0,0,-4,-5,-6,-6
1533864483028056,0,-1,4,-1,-1,-1,1,7
1533864483040041,0,0,-4,-3,7,0,1,2
1533864483040041,1,-2,-5,-1,8,-1,-1,-6
1533864483048999,-2,-1,-4,-3,-11,-4,0,-2
1533864483048999,-1,-1,-5,-3,0,-1,-4,-1
1533864483063960,0,0,8,5,-3,0,1,13
1533864483063960,-2,-2,-3,-4,-6,-4,-6,-10
1533864483070144,-1,-2,2,-1,0,-7,-4,4
1533864483070144,3,1,1,3,15,15,4,-8
1533864483086898,-3,-2,4,-3,0,-4,-4,5
1533864483086898,0,-1,1,0,-21,-9,-1,0
1533864483087894,-3,-3,-7,-6,8,3,4,4
1533864483087894,2,0,0,-1,-22,-8,-1,21
1533864483100921,-3,1,4,1,15,6,-1,-21
1533864483100921,-2,0,-4,3,4,4,4,3
1533864483108842,1,-2,-3,-1,3,0,-3,-5
1533864483108842,1,-2,-2,-2,-2,-4,4,16
1533864483123983,-1,-2,-10,-1,-10,1,-1,6
1533864483123983,-2,3,44,6,5,-2,0,-6
1533864483129786,-1,-2,-2,0,-8,-3,-9,-6
1533864483129786,-3,-4,2,-2,1,2,0,-12
1533864483146755,1,0,1,-2,-4,-3,0,9
1533864483146755,-2,-2,-15,-3,6,-2,1,-2
1533864483148737,-3,-1,-2,-1,3,-2,-4,-2
1533864483148737,-3,-1,0,-3,5,-3,-1,-11
1533864483160700,0,-1,0,-1,-8,0,2,4
1533864483160700,4,0,-9,2,5,2,0,4
1533864483169677,-2,0,1,-5,-6,1,3,0
1533864483169677,-3,-3,-10,4,-4,-3,-5,-13
1533864483183639,-1,-2,4,-1,7,2,-4,3
1533864483183639,0,-1,-4,-5,-6,2,2,0
1533864483190627,-2,-5,-5,0,9,-2,3,3
1533864483190627,-4,-3,-1,-3,-3,0,-6,-13
1533864483206781,0,-1,3,-1,-3,-3,-2,6
1533864483206781,-2,-2,-5,1,-8,-3,1,-6
1533864483208572,-3,0,-3,-2,-12,-3,-7,0
1533864483208572,1,0,1,-1,16,-2,-3,-5
1533864483220543,-2,0,4,1,-4,3,1,2
1533864483220543,0,-1,-7,2,2,4,-1,0
1533864483229516,1,1,2,1,21,0,3,-2
1533864483229516,-4,-2,-5,-4,-21,-5,-5,-9
1533864483243482,2,0,0,0,-13,-2,-1,1
1533864483243482,0,-2,-1,5,6,-3,-2,4
1533864483250460,4,0,5,-1,18,2,2,0
1533864483250460,-4,-2,2,-2,-20,-2,1,0
1533864483266421,1,-2,1,-8,-9,-7,-2,-1
1533864483266421,-2,-1,-3,-3,-4,3,-2,0
1533864483268413,1,1,0,2,5,0,-2,-3
1533864483268413,-1,0,-2,-4,4,-5,-7,-4
1533864483289359,-2,-1,1,-1,7,-3,1,1
1533864483289359,-1,-2,-4,-1,3,-2,-1,2
1533864483290357,0,0,-3,-2,-11,2,2,-1
1533864483290357,-1,-2,-3,-4,-1,6,-2,-5
1533864483303359,2,-1,-1,4,11,-3,-1,0
1533864483303359,-2,-2,2,-3,-6,-2,1,1
1533864483310342,2,-2,-3,-14,-14,-7,2,2
1533864483310342,-4,-3,-5,0,-6,-2,4,-3
1533864483326261,-3,0,-1,-1,4,5,-2,-2
1533864483326261,0,0,-7,1,-2,-4,-1,-3
1533864483328252,-2,-2,3,5,4,5,1,2
1533864483328252,4,1,5,5,16,12,4,2
1533864483349200,-1,-2,-2,-3,-22,-6,-1,-2
1533864483349200,-2,-1,0,-1,3,-1,-3,-2
1533864483351191,-2,-2,-1,-1,-10,0,-2,-2
1533864483351191,-3,-2,-1,-2,7,-5,-2,-2
1533864483364156,0,-1,1,3,26,5,2,-1
1533864483364156,-3,-2,-5,-6,-32,-6,-2,-2
1533864483366151,-3,-1,-3,6,2,-1,-1,-3
1533864483366151,-4,-2,-3,2,0,-6,-1,-2
1533864483387095,0,-1,0,1,2,3,4,3
1533864483387095,1,-1,-1,-1,8,2,-4,0
1533864483388107,-2,-1,-2,-3,-17,-5,-4,-3
1533864483388107,1,2,2,-1,2,-3,-1,-5
1533864483409036,-2,-3,-5,-1,-2,8,6,-1
1533864483409036,0,-1,1,1,7,-8,-4,1
1533864483411030,-2,-2,-3,-1,-7,-1,0,0
1533864483411030,-1,0,0,-2,-6,-2,-3,-3
1533864483424028,-3,-2,1,1,-4,-1,-1,-1
1533864483424028,-2,-3,-2,1,7,0,2,-1
1533864483429980,-2,-2,-1,-1,1,-3,-1,0
1533864483429980,-1,0,-1,0,-2,2,-2,-3
1533864483446935,1,0,-2,-3,2,-3,-4,-1
1533864483446935,-3,-2,-1,-2,-10,-5,4,-3
1533864483447932,-6,-1,-2,1,-7,-6,-9,-3
1533864483447932,5,-1,-2,-6,-4,-4,-3,-5
1533864483468876,1,0,-3,6,3,1,2,5
1533864483468876,3,0,-1,-7,10,12,4,1
1533864483470871,-3,-2,-3,-4,-12,-8,-1,0
1533864483470871,-7,-4,-3,11,3,2,1,-2
1533864483483836,1,2,3,-2,-6,-7,-8,2
1533864483483836,-3,-2,-1,2,3,1,0,-1
1533864483490817,3,2,0,-1,2,0,-3,-2
1533864483490817,-2,-2,-5,-5,-5,2,0,-3
1533864483506774,0,-2,1,-2,-2,-8,1,-2
1533864483506774,0,-2,-3,0,-7,-5,-2,1
1533864483507772,-1,-4,-2,1,2,6,2,-2
1533864483507772,-2,-1,-2,-4,1,0,0,-2
1533864483529746,-2,-2,-4,-5,-12,-8,-8,-6
1533864483529746,1,1,2,-2,13,8,0,6
1533864483530712,-1,-1,0,1,3,3,8,1
1533864483530712,3,1,2,0,2,1,2,6
1533864483543679,-1,-1,-2,-1,2,-2,-7,-3
1533864483543679,0,0,-4,-2,-7,-9,-9,-4
1533864483550868,-1,-2,-2,-1,5,3,4,2
1533864483550868,-2,-1,0,0,-5,-3,-1,0
1533864483566632,-3,-3,-1,-5,-16,-2,-2,-5
1533864483566632,-1,-3,-1,2,8,1,-1,-4
1533864483568610,1,0,-1,3,4,5,-3,0
1533864483568610,-2,-3,-4,-5,4,-2,-2,-3
1533864483589557,-4,-2,-2,-5,3,-2,2,-4
1533864483589557,-3,0,-4,2,-11,-3,-5,-4
1533864483590551,4,2,2,-5,7,-6,-1,3
1533864483590551,4,0,3,10,10,19,6,5
1533864483603516,-6,-4,-2,-3,-23,-6,3,-1
1533864483603516,-4,-3,-1,2,20,7,2,-4
1533864483610500,-3,-3,-3,-14,-27,-18,-8,-4
1533864483610500,-3,-1,-1,-2,-8,-11,-9,-4
1533864483626458,2,1,-3,0,12,5,-1,1
1533864483626458,0,-1,1,-2,-8,-6,-2,-1
1533864483628449,-1,-2,-2,3,1,-3,-3,-3
1533864483628449,-2,-2,-3,-4,3,-6,-2,-1
1533864483649397,2,-1,-1,-2,-7,-2,0,1
1533864483649397,0,0,-1,-1,-1,2,2,0
1533864483655381,-2,-1,-2,3,3,4,-1,-4
1533864483655381,-1,0,0,-4,-3,-2,-1,1
1533864483662358,1,3,3,5,7,1,-1,3
1533864483662358,-2,-3,-8,1,0,-3,-2,-1
1533864483671334,-1,-1,-2,0,-5,-7,-1,-4
1533864483671334,0,0,0,-6,5,2,-4,0
1533864483686295,-2,0,0,8,3,11,4,0
1533864483686295,-5,-1,1,-8,-21,-7,-4,-1
1533864483688290,-3,0,1,6,2,3,-4,-5
1533864483688290,-2,-1,0,-2,-3,-4,0,-3
1533864483709233,3,-2,-1,3,20,5,-1,1
1533864483709233,-1,0,-1,-10,-23,-7,-2,-1
1533864483711227,-3,-1,-4,-6,0,-4,-5,-3
1533864483711227,1,1,-1,2,-2,-2,-2,0
1533864483723200,0,-2,-3,-1,3,-1,-1,-3
1533864483723200,-2,0,0,3,-2,-2,1,-2
1533864483730177,1,-1,-3,-3,-2,-4,0,1
1533864483730177,0,-1,-3,-3,-1,0,1,1
1533864483746138,-2,-1,-1,-2,-5,-2,-3,-3
1533864483746138,0,-3,-2,1,5,-2,-2,-1
1533864483748145,-2,-3,1,0,-1,2,3,1
1533864483748145,-1,-2,1,1,0,0,1,1
1533864483769073,-4,-4,-4,-3,3,-8,-5,-2
1533864483769073,2,0,2,-3,7,7,2,1
1533864483771068,-2,-1,-1,-1,-5,-1,-2,1
1533864483771068,-4,0,0,-1,-9,-4,-3,-3
1533864483783039,-2,-1,-1,-1,-4,-3,-3,-4
1533864483783039,1,-1,-1,5,11,3,-1,0
1533864483792012,1,0,1,0,1,1,1,-1
1533864483792012,-2,-1,-2,-4,0,-5,0,-1
1533864483806972,-1,0,-1,-2,-3,2,1,0
1533864483806972,-1,1,1,-1,0,0,1,-2
1533864483807969,0,-2,0,0,0,-1,-3,-4
1533864483807969,-2,-1,-2,0,-2,-4,-2,-2
1533864483828954,-1,-3,1,1,-4,-2,-2,-1
1533864483828954,-2,-1,-3,-1,-5,-3,0,1
1533864483830912,-1,-1,0,-3,-5,-4,0,0
1533864483830912,-1,-2,-4,-1,-2,-6,-5,-3
1533864483842879,-1,0,-1,-2,-5,-2,3,0
1533864483842879,0,0,-2,-1,13,9,-7,1
1533864483851853,0,0,0,0,0,3,-1,1
1533864483851853,-2,-3,-2,-2,-3,-1,-1,-2
1533864483866815,0,-1,-1,-2,-7,-3,-4,-3
1533864483866815,0,-2,-1,2,-1,-5,0,-2
1533864483867813,1,-2,-3,-3,4,2,-2,-2
1533864483867813,-1,-1,0,-4,-6,5,2,2
1533864483889750,1,-2,2,4,2,-5,-4,1
1533864483889750,-3,-2,-1,-3,-14,-6,-2,-2
1533864483890748,-1,-1,0,6,6,6,2,2
1533864483890748,-1,0,1,-11,-16,-7,-6,-3
1533864483902874,1,-4,-4,-2,20,8,6,0
1533864483902874,0,0,-2,-4,-2,-6,-1,1
1533864483911699,-3,-1,-1,3,-14,2,-1,1
1533864483911699,-2,-1,-1,2,2,-1,1,-1
1533864483926808,-3,0,-1,-2,-7,-1,-1,0
1533864483926808,2,-1,-2,-3,4,-4,-4,-5
1533864483928650,-1,0,0,-3,7,1,3,0
1533864483928650,-3,-1,-1,-1,2,1,-1,-2
1533864483949757,-2,-2,-3,-6,-5,-6,-4,-3
1533864483949757,-2,-2,1,1,-1,1,2,-2
1533864483950589,0,-1,-1,0,-4,-2,-2,-1
1533864483950589,-1,-1,-2,-1,7,-2,-1,-1
1533864483962556,-1,-1,-1,0,-2,-3,-2,1
1533864483962556,-3,-1,0,1,1,1,0,-2
1533864483971532,-1,1,-2,-5,-3,1,0,-1
1533864483971532,-2,-2,-1,-3,1,-4,-8,-6
1533864483986494,0,-2,1,-2,-9,-3,2,1
1533864483986494,1,0,-1,0,7,7,4,4
1533864483988497,-2,-1,1,-2,4,-2,0,-1
1533864483988497,-1,-1,0,-1,-14,-3,0,0
1533864484009430,-2,0,-3,-4,-2,-6,-2,-4
1533864484009430,-1,-2,-1,-2,0,1,0,0
1533864484010441,-1,-1,0,-1,9,-1,0,-2
1533864484010441,-1,-1,1,-1,-4,1,3,1
1533864484023451,-2,0,-2,3,0,1,-2,-1
1533864484023451,-1,-1,-1,-1,6,-2,0,-2
1533864484031373,-1,-2,-4,-1,-13,-5,-4,-4
1533864484031373,-2,1,-2,1,13,-1,0,1
1533864484046503,-1,0,-3,-4,-19,-7,-3,-1
1533864484046503,-1,-2,-4,1,1,0,-3,-5
1533864484048328,-1,-1,0,-5,-9,-6,-1,0
1533864484048328,0,0,1,0,10,1,1,0
1533864484069274,-4,-1,1,4,-8,1,-1,0
1533864484069274,-2,-1,-2,-5,-4,-2,-1,0
1533864484071284,-1,-1,-1,-2,-5,-5,-3,-1
1533864484071284,1,0,-3,1,-3,1,0,-2
1533864484083233,-1,1,1,3,13,6,3,3
1533864484083233,-3,-1,0,-4,-11,-7,-6,-4
1533864484092210,0,-1,2,0,3,-2,1,-2
1533864484092210,-2,-2,0,-1,-6,-3,-3,-6
1533864484106177,0,-2,-5,-3,3,-1,-3,2
1533864484106177,0,-1,0,2,-3,5,0,0
1533864484108167,-2,-1,1,-2,6,1,-2,0
1533864484108167,-3,-1,-4,2,-10,-4,-1,-1
1533864484137097,-1,-1,0,-3,-4,-2,0,-3
1533864484137097,-1,-2,0,-1,-5,-4,-1,0
1533864484138087,0,0,-3,-2,-3,0,-2,-1
1533864484138087,-1,-1,1,2,3,4,1,-1
1533864484152052,-2,-2,0,0,5,-3,-2,-3
1533864484152052,0,0,-3,0,-3,0,1,1
1533864484153057,0,-1,0,3,0,0,-3,-3
1533864484153057,0,-3,-3,-4,7,4,0,-1
1533864484166015,-1,1,2,2,-6,1,1,1
1533864484166015,-2,0,0,1,-7,-6,-7,-1
1533864484172993,-1,-2,-2,-2,-4,-5,-1,-3
1533864484172993,-2,-3,0,3,13,4,1,0
1533864484188953,-3,-2,-4,-4,-9,-10,-7,-4
1533864484188953,-1,-4,-4,-3,7,-3,0,-1
1533864484190945,1,0,0,-1,-3,3,4,3
1533864484190945,-1,-3,0,-1,-5,-4,0,3
1533864484211892,-1,0,0,0,4,3,-1,-2
1533864484211892,-1,-2,-1,1,-2,0,1,-3
1533864484212891,-1,-2,-2,-1,3,-5,-5,-1
1533864484212891,1,0,0,-4,-4,-3,-1,1
1533864484227060,-1,-1,-3,-1,0,2,1,-3
1533864484227060,-1,-1,-1,-3,0,-1,-1,-1
1533864484227859,0,-2,-3,-2,3,0,1,-1
1533864484227859,0,0,-3,-2,-9,-4,-2,-2
1533864484248791,-1,-2,0,-4,0,-2,-1,-1
1533864484248791,0,0,-3,0,-1,-1,-1,-1
1533864484250806,-2,-1,-1,1,1,3,1,-1
1533864484250806,-2,0,-2,0,-6,-1,-2,-1
1533864484271729,-1,-3,0,-1,2,0,-1,0
1533864484271729,0,-2,-1,-2,-2,1,-1,-1
1533864484273724,-1,-1,-1,0,0,0,-1,-1
1533864484273724,3,-1,-1,1,0,-2,-2,-1
1533864484286692,0,0,-4,-1,-3,-3,-2,-1
1533864484286692,-2,-1,2,-1,-8,-4,-1,-1
1533864484288684,0,0,-1,1,7,4,-2,-1
1533864484288684,-2,-1,0,2,3,-1,0,-1
1533864484309637,-2,-2,-4,-2,-4,-1,-1,-2
1533864484309637,-1,-1,-2,-1,3,-3,-2,-3
1533864484310627,-1,-1,0,-2,-7,-3,-4,-2
1533864484310627,-2,-1,-1,-4,-5,-1,-1,0
1533864484331570,-2,-1,-2,2,2,0,2,0
1533864484331570,-2,-1,-3,-1,0,0,-1,-1
1533864484333564,0,-1,-1,-1,-1,-3,1,0
1533864484333564,0,0,0,-1,-2,0,0,0
1533864484346528,0,-1,0,-1,-2,-2,-1,-2
1533864484346528,0,-2,-1,0,1,2,-1,-2
1533864484352648,-2,-2,-2,0,-4,-1,-1,-4
1533864484352648,-1,-2,-2,0,-4,-1,-1,-3
1533864484369471,-1,0,0,-2,1,1,-1,0
1533864484369471,-1,-1,-1,-1,-3,-3,-1,0
1533864484370474,-2,-2,-1,0,-3,-2,-1,-1
1533864484370474,-2,-1,-1,-1,-2,0,-2,0
1533864484391413,-1,-1,0,-1,2,0,-1,-1
1533864484391413,0,-1,-1,-1,1,-2,0,-1
1533864484393403,-2,0,-3,-1,-3,-4,-1,0
1533864484393403,-1,0,-3,0,-3,-2,-3,0
1533864484405371,0,-1,-1,-3,-3,-2,-2,-1
1533864484405371,0,-3,-1,-1,2,-1,1,0
1533864484414348,-2,-2,0,-4,-4,-2,-2,-1
1533864484414348,-1,-2,-3,1,4,-1,-1,1
1533864484429310,-1,0,-2,-2,-6,1,1,-1
1533864484429310,-2,-1,-3,-4,-6,-7,-5,-5
1533864484430307,-2,0,-2,-2,0,2,3,1
1533864484430307,-1,-1,1,-1,1,-4,-7,0
1533864484451252,0,-1,0,-1,5,3,0,-3
1533864484451252,0,1,1,1,4,7,1,4
1533864484453244,0,-1,-1,-1,-6,0,-1,-2
1533864484453244,-2,-3,0,0,-5,-3,3,-2
1533864484465215,-2,-2,-2,2,0,-3,-2,0
1533864484465215,0,0,2,-2,2,-5,-7,-3
1533864484474188,-2,0,-1,2,2,7,-1,1
1533864484474188,-1,0,-2,-1,1,1,1,-1
1533864484489204,-1,0,0,-3,-13,-3,0,-1
1533864484489204,-3,-1,-1,1,-3,0,2,-1
1533864484491142,-1,-1,2,0,-6,-9,-5,-5
1533864484491142,2,0,0,-5,6,3,4,0
1533864484511088,-3,0,0,2,3,3,2,3
1533864484511088,-2,2,1,1,-1,2,1,3
1533864484513084,0,-1,-2,-1,1,-1,-2,-1
1533864484513084,-2,0,1,1,-2,-1,-1,-4
1533864484525051,0,-1,3,-3,-6,-8,-2,-4
1533864484525051,0,-3,1,-4,15,8,2,1
1533864484534030,-1,-2,-2,-1,-9,-9,-4,-2
1533864484534030,-2,-2,-3,-1,3,0,-1,0
1533864484548987,-1,-1,-4,-2,-5,-1,-2,0
1533864484548987,-4,-3,-4,2,-3,-4,-2,-3
1533864484550982,-4,-2,-3,-2,12,-2,-2,-1
1533864484550982,-3,-2,0,-1,-2,2,2,-2
1533864484571932,0,-2,-1,-3,0,3,-1,0
1533864484571932,1,-2,0,-1,-5,-1,0,-3
1533864484572939,2,1,0,0,5,1,-3,2
1533864484572939,0,0,-5,-1,-2,-1,-2,0
1533864484585895,-1,0,1,0,3,0,0,-3
1533864484585895,0,-1,-2,-4,-2,-2,-1,0
1533864484593870,0,-2,2,-3,1,0,3,0
1533864484593870,1,-2,-3,-2,-5,-1,-1,-1
1533864484608830,-3,-2,-2,0,-2,-3,-1,0
1533864484608830,-2,-1,-4,-2,0,-3,-2,-1
1533864484610821,-1,-1,-1,-1,3,1,0,-1
1533864484610821,-1,-1,4,-2,-7,-5,-2,-3
1533864484631770,-1,0,-6,-1,5,0,-3,-1
1533864484631770,-2,-1,-1,0,-9,-4,-2,-2
1533864484633761,-2,-2,-2,-3,-5,0,0,-1
1533864484633761,-1,-2,0,-1,-1,0,-1,-1
1533864484645731,-1,-1,-1,1,0,-2,-1,-1
1533864484645731,-2,-1,0,-1,-2,-1,-2,-2
1533864484654704,1,1,0,-4,0,0,0,0
1533864484654704,-3,-1,-2,-3,-13,-10,-5,-2
1533864484669667,1,-1,4,1,15,8,0,0
1533864484669667,-3,-2,1,2,-13,-8,-2,-3
1533864484670682,-4,-2,-3,-3,7,5,3,1
1533864484670682,-3,0,-3,-2,-7,0,1,0
1533864484691623,2,0,-5,0,-2,-4,-4,-4
1533864484691623,0,-3,-3,2,5,-1,-1,0
1533864484693600,0,-2,-2,-2,-7,-6,-3,-3
1533864484693600,-2,-2,-2,3,4,-1,-4,-2
1533864484705589,-1,-2,-2,-6,0,-2,-1,-1
1533864484705589,-1,0,0,-1,-3,2,-1,0
1533864484714555,0,-1,-1,1,0,-2,-1,-2
1533864484714555,0,-1,-1,-1,4,2,2,2
1533864484729515,-2,-3,1,-2,-6,-3,-4,-1
1533864484729515,-1,-2,-1,-2,-1,0,0,-1
1533864484730513,-2,-1,-1,0,2,0,-3,1
1533864484730513,-1,-1,-1,-2,-6,-1,-2,-3
1533864484751449,-1,1,-3,0,5,-1,1,1
1533864484751449,-3,1,-2,-5,-8,-1,2,2
1533864484753442,-2,-1,-2,-3,-5,-1,-1,-2
1533864484753442,-1,1,2,-1,-3,-4,-2,0
1533864484765412,0,-3,0,3,8,7,1,-1
1533864484765412,-2,-1,-3,0,2,1,1,-2
1533864484774385,-1,-2,-1,3,-4,-5,0,-1
1533864484774385,-2,-1,-2,-1,10,1,-1,-3
1533864484789347,-1,0,-1,-6,-26,-8,-2,-2
1533864484789347,-1,-2,-1,-3,4,1,-2,-3
1533864484790342,-1,-1,-1,0,-3,-1,-1,-3
1533864484790342,-3,-2,0,-6,-10,-3,-2,-1
1533864484811291,-2,-3,-2,-2,5,-1,-1,-1
1533864484811291,0,-3,2,1,-2,0,-2,-1
1533864484813280,1,-1,0,0,-1,0,-1,-1
1533864484813280,2,-2,-1,-1,4,-1,-2,0
1533864484825457,2,0,-1,-2,-4,-3,-5,-2
1533864484825457,1,2,-2,2,-1,2,0,-1
1533864484834225,0,0,-1,4,5,-1,-2,-1
1533864484834225,-1,-1,3,-4,-4,-2,0,-3
1533864484849188,-3,-2,-4,-2,1,-1,1,-2
1533864484849188,1,0,-1,0,3,1,1,1
1533864484851179,-1,-2,-2,-1,-6,-2,-1,1
1533864484851179,1,1,-4,0,-3,-2,1,1
1533864484871142,-1,-2,0,-1,-3,-3,-3,-1
1533864484871142,-2,-3,-3,-3,5,-9,-4,-6
1533864484873125,0,-1,-2,-5,-4,2,0,0
1533864484873125,-2,-2,1,1,4,2,-1,0
1533864484885092,-3,-2,-2,-1,-3,2,1,0
1533864484885092,0,0,-1,3,9,2,0,0
1533864484894064,-3,-1,-1,-1,-13,-5,-4,0
1533864484894064,-2,-2,0,1,-6,-4,-3,-3
1533864484909160,1,-1,-1,-1,2,-1,0,-1
1533864484909160,-1,0,-1,-8,-3,9,7,3
1533864484911020,0,-2,-6,-3,5,-5,-2,-3
1533864484911020,-3,-4,23,6,7,-1,-2,-1
1533864484931966,-6,-2,3,4,-10,-4,-4,-1
1533864484931966,-2,-1,0,1,2,-4,-5,-4
1533864484932981,-2,-3,8,-1,-3,2,1,0
1533864484932981,0,-1,-7,-5,0,-1,-2,0
1533864484945929,1,-2,-6,-3,-1,-2,2,-1
1533864484945929,-1,-3,2,-2,-6,-3,-1,-1
1533864484953908,0,1,-9,0,6,0,1,0
1533864484953908,-1,-1,-6,-2,-1,-3,-4,-2
1533864484968867,-1,1,3,0,3,-3,0,1
1533864484968867,0,0,-5,-2,-6,-3,-4,-2
1533864484975854,0,-2,-1,-2,-2,-5,-2,-5
1533864484975854,0,-2,-6,-1,-1,2,1,-2
1533864484991806,-1,1,-1,1,5,3,-1,-1
1533864484991806,-3,-1,-2,-1,-5,-3,-2,1
1533864484992800,-2,1,1,-1,-13,0,2,2
1533864484992800,0,-1,-2,-1,3,2,0,-1
1533864485004769,0,1,-6,-1,-5,-3,-2,-4
1533864485004769,-2,-3,2,-4,2,-3,-3,-2
1533864485014742,-3,-2,-1,-4,-1,-4,-3,-2
1533864485014742,-2,-1,-8,-4,-13,-1,-1,2
1533864485028908,-2,-1,-2,-2,2,-3,-1,0
1533864485028908,2,0,1,2,2,1,-1,1
1533864485035704,-1,-2,0,0,8,2,-1,-2
1533864485035704,-1,-1,-4,-3,-7,-1,0,-1
1533864485051646,-3,-3,2,5,-3,-6,-4,-5
1533864485051646,0,-2,-3,-6,-4,-1,2,1
1533864485053637,-2,1,-4,-10,5,1,-1,2
1533864485053637,-1,1,-7,0,2,3,-2,-1
1533864485065610,-2,-2,1,-6,-4,-2,0,0
1533864485065610,-1,-3,-3,3,-1,-4,-4,-5
1533864485074581,-1,0,-1,2,-3,0,0,-3
1533864485074581,-1,-2,6,0,2,-1,-2,-2
1533864485088547,2,-1,-4,-5,-2,2,-1,0
1533864485088547,-1,-3,-3,1,9,-5,-1,-1
1533864485095529,0,-2,-4,-5,-11,4,2,1
1533864485095529,-2,0,-3,6,-3,-1,0,-1
1533864485111486,-1,-1,3,-5,6,1,0,-1
1533864485111486,-4,0,-1,-3,-7,-6,-4,-2
1533864485113478,0,0,-3,7,20,5,-3,-1
1533864485113478,-4,-3,0,-7,-16,-3,5,1
1533864485125448,-2,-2,-33,0,-10,2,0,-1
1533864485125448,-1,1,11,-10,-3,3,-1,-1
1533864485134422,-2,-3,0,2,-3,-5,-5,-3
1533864485134422,1,1,1,0,8,0,-3,-1
1533864485148387,-1,-1,2,3,4,-2,-1,-2
1533864485148387,-1,-3,-7,1,-5,-1,1,2
1533864485155365,1,1,1,1,1,1,1,-1
1533864485155365,2,0,0,3,9,1,-2,-1
1533864485172357,2,3,11,-1,0,-1,0,2
1533864485172357,-3,-2,-8,0,-1,-1,-4,-6
1533864485173319,1,0,10,4,15,4,3,2
1533864485173319,-4,-4,-8,0,-18,-7,-3,-1
1533864485194262,-4,0,4,5,-3,-2,-1,-1
1533864485194262,-2,-3,6,6,4,-4,-6,-5
1533864485196255,1,-4,-12,-5,-5,7,1,-1
1533864485196255,-3,-6,-11,-6,-4,-3,-2,-3
1533864485208227,-1,-1,-1,-5,-2,-4,-4,0
1533864485208227,0,3,0,1,2,3,4,3
1533864485215208,1,2,5,3,-10,-5,-2,-1
1533864485215208,-2,-3,-6,0,11,-4,-2,0
1533864485232160,-2,-5,-2,-3,-2,-2,-3,-4
1533864485232160,3,-1,1,3,2,0,-1,-3
1533864485233158,-2,-2,4,-5,-2,2,4,1
1533864485233158,2,2,-2,-1,2,2,-4,1
1533864485254104,0,0,2,-3,0,0,0,0
1533864485254104,0,0,-4,1,-9,-2,-3,0
1533864485256115,-2,2,-3,0,-6,-6,-3,-4
1533864485256115,0,-3,2,1,5,2,-1,0
1533864485268067,0,-4,3,-2,2,1,0,1
1533864485268067,-2,1,5,-7,-12,0,1,-1
1533864485276046,-2,-2,-7,-2,-3,-5,-3,-3
1533864485276046,0,1,-1,-2,4,-1,-1,-3
1533864485291002,-1,0,3,0,2,-2,0,0
1533864485291002,0,1,3,-2,-5,0,0,1
1533864485292205,-2,0,1,1,-3,-1,-1,-1
1533864485292205,-1,-2,-2,1,-1,0,-1,-2
1533864485312944,-2,0,-1,1,1,1,0,-1
1533864485312944,-1,1,-2,0,-9,-8,-5,-5
1533864485320926,0,-3,-5,6,32,0,-4,-1
1533864485320926,1,3,1,-1,-9,5,5,5
1533864485327907,-4,-1,3,1,-6,-2,1,0
1533864485327907,-2,-1,-7,-7,0,4,1,1
1533864485335885,0,-3,0,-5,-11,-6,-4,-3
1533864485335885,-3,-3,4,-1,4,-4,-5,-4
1533864485350842,0,1,-3,-2,4,2,1,1
1533864485350842,-1,-2,-2,1,6,-2,1,0
1533864485351840,-1,-1,-1,-1,-11,-5,-1,-2
1533864485351840,2,0,0,-6,4,0,0,-2
1533864485373781,1,0,4,-1,1,4,0,-2
1533864485373781,-4,-3,-4,6,0,-1,-3,-2
1533864485373781,-1,-1,0,-4,-4,2,-2,-1
1533864485373781,-2,-1,-2,-7,-10,-9,-3,-2
1533864485387778,-1,-3,-6,-2,-5,-7,-6,-2
1533864485387778,3,-1,1,7,39,14,4,3
1533864485395934,-5,-1,-1,-5,-20,-4,-1,-1
1533864485395934,-1,-2,-1,-3,-4,-1,-1,-3
1533864485410686,-2,-2,-1,-1,-8,-5,-2,-3
1533864485410686,-1,-3,0,-7,-14,-5,0,-1
1533864485411680,-1,0,1,-1,6,1,-1,-1
1533864485411680,2,0,3,5,7,-1,1,-1
1533864485433621,-3,-4,-5,0,-3,-3,-3,-3
1533864485433621,-1,-1,-2,-1,-1,0,0,0
1533864485434618,-2,-1,0,-2,2,5,-1,1
1533864485434618,-1,2,1,-4,-3,-1,1,0
1533864485447585,0,1,1,4,10,2,1,-1
1533864485447585,-2,0,0,0,-9,-3,-3,-2
1533864485456563,-2,-7,-10,-2,-1,-7,-7,-2
1533864485456563,-3,0,-3,-2,-8,1,1,0
1533864485470526,0,2,1,-5,-2,-1,0,3
1533864485470526,-1,-2,-3,-2,-3,-3,-1,-3
1533864485471520,-1,0,2,-1,-6,-1,1,-2
1533864485471520,-2,-2,-3,3,6,-1,-4,-3
1533864485493497,0,-1,1,-3,5,1,-1,-2
1533864485493497,0,0,0,-5,-11,-6,-1,0
1533864485494458,-2,-1,1,0,-1,-2,-2,0
1533864485494458,1,-5,-2,-1,1,-1,-2,-4
1533864485507424,-2,-1,-1,0,-6,-3,1,-1
1533864485507424,-2,-1,-6,-3,1,-3,0,-1
1533864485516403,2,2,2,4,6,3,3,-3
1533864485516403,-1,-2,-4,-1,-2,-1,-2,-1
1533864485531361,-1,0,-2,-6,-2,-1,-4,-1
1533864485531361,-1,-1,-4,3,9,-1,-2,-2
1533864485531361,-1,-2,-2,-8,-15,-4,-2,-1
1533864485531361,0,0,1,-3,0,2,0,1
1533864485553483,0,-1,3,-4,-2,0,0,-3
1533864485553483,-1,-2,-7,0,-4,-1,-1,-1
1533864485554299,-1,1,-2,0,-1,-5,-2,1
1533864485554299,0,0,0,1,2,0,-3,-1
1533864485577309,-2,-3,-3,-1,-1,-1,-1,0
1533864485577309,-1,-2,3,-3,1,0,-1,-1
1533864485578261,0,-1,0,1,1,-3,1,-3
1533864485578261,-1,0,-1,-2,-7,-5,-3,-3
1533864485591203,-3,-2,-3,0,2,-2,-2,-1
1533864485591203,1,2,2,-1,-7,3,-6,2
1533864485592201,-2,-4,-5,1,5,3,-1,-1
1533864485592201,-2,-2,-2,-1,0,-3,0,-1
1533864485613141,-4,-2,-5,-3,-7,-4,-3,-3
1533864485613141,-1,-3,-3,-2,-1,-1,2,-1
1533864485614146,1,-3,0,-2,3,-2,-1,-1
1533864485614146,0,1,-1,0,-5,-3,-1,-1
1533864485628307,1,0,2,4,5,6,3,0
1533864485628307,1,1,6,-4,-5,-3,0,1
1533864485629143,-4,-5,-9,0,-7,-4,-4,-2
1533864485629143,-3,-2,0,2,2,-1,1,0
1533864485651085,-1,0,0,4,1,-1,-1,-1
1533864485651085,0,0,0,-2,-1,-1,0,-2
1533864485652082,0,1,2,-5,1,2,-1,-3
1533864485652082,-2,0,-1,2,-8,-5,-3,-1
1533864485674022,-2,-3,-2,-2,-1,0,-2,-1
1533864485674022,-1,-3,-2,-1,1,-3,-5,-3
1533864485674022,0,0,-1,-3,-10,-7,-1,-3
1533864485674022,0,-1,1,-4,1,5,1,1
1533864485687985,0,1,5,1,-1,-1,0,0
1533864485687985,-3,-2,-4,0,-4,-5,-1,-3
1533864485695969,0,-2,-2,0,6,3,3,3
1533864485695969,-1,1,-2,0,7,4,-1,-1
1533864485710948,2,-1,-1,2,4,6,1,-2
1533864485710948,-2,-1,-1,0,3,-3,-3,-2
1533864485711922,-2,-3,1,-12,-16,-3,-1,-1
1533864485711922,-3,-4,-2,9,2,-1,-3,-3
1533864485733867,-3,-4,-7,-6,-3,-6,-6,-4
1533864485733867,-1,0,1,2,4,-2,-3,-1
1533864485733867,0,3,-2,-4,6,1,5,1
1533864485733867,0,1,1,-5,-8,0,1,-2
1533864485747837,1,-1,1,2,11,2,-1,0
1533864485747837,-2,3,0,0,-17,-4,-2,-1
1533864485755809,-1,-4,1,1,-1,1,-1,1
1533864485755809,-3,-6,-8,-5,5,1,-2,-2
1533864485770767,-1,5,3,7,7,-6,-2,-2
1533864485770767,-1,4,5,1,-4,1,4,0
1533864485771765,-3,-15,-16,-6,11,0,-4,-4
1533864485771765,-2,-11,-8,-20,-43,-6,0,-1
1533864485793702,-2,-7,-4,-1,-8,-4,-5,-5
1533864485793702,1,2,4,-6,6,4,-1,0
1533864485794718,2,10,9,13,-3,1,0,0
1533864485794718,-1,-4,-17,2,12,-3,-2,-2
1533864485816644,0,-1,-3,-7,-3,0,0,1
1533864485816644,0,-1,-6,-5,6,3,1,2
1533864485817654,-2,-1,3,1,6,-1,-3,-1
1533864485817654,-1,3,8,2,7,1,0,0
1533864485830617,0,0,0,-3,-10,-3,0,0
1533864485830617,-3,-3,-4,5,6,-1,-3,-6
1533864485831602,0,1,-2,-5,-9,-4,0,-2
1533864485831602,1,4,4,2,8,4,0,3
1533864485853702,-4,-2,-3,-2,-2,0,-1,0
1533864485853702,-1,-7,-6,-4,-7,-2,-2,0
1533864485854541,-3,1,-1,4,-4,-4,-5,-3
1533864485854541,-1,3,3,1,1,-5,-3,-2
1533864485867714,-1,0,-1,-2,3,4,3,3
1533864485867714,-2,-5,-2,-2,-2,0,-2,0
1533864485875610,0,2,1,3,9,2,1,0
1533864485875610,0,3,1,0,-6,-2,2,-1
1533864485891446,-1,4,0,-4,-2,-6,2,-1
1533864485891446,-2,-7,0,-3,-11,-4,1,-2
1533864485891446,-1,-5,-5,-1,1,2,-5,-2
1533864485891446,0,-3,-1,3,9,3,-2,-3
1533864485913500,5,-2,4,4,-2,-6,-2,13
1533864485913500,-6,2,-4,-5,-9,-2,-1,-10
1533864485914498,-1,2,-2,-2,0,0,0,-1
1533864485914498,-3,-1,-1,5,2,-1,-2,-4
1533864485928461,-1,-2,-3,-5,-2,1,1,-1
1533864485928461,3,0,3,-2,7,1,-3,1
1533864485936440,-2,0,-5,8,-6,-2,0,-3
1533864485936440,-2,0,-2,4,2,-2,1,2
1533864485951397,-2,-1,0,2,-2,1,-1,-5
1533864485951397,-2,-2,-2,-4,-1,-2,0,0
1533864485951397,2,-2,2,-10,-7,-4,-4,-3
1533864485951397,2,1,0,-1,3,2,2,5
1533864485973340,-2,-3,-3,-2,1,-1,-3,-3
1533864485973340,-1,0,-1,0,0,-1,0,-1
1533864485974337,0,-1,3,0,-5,-2,-2,1
1533864485974337,-1,-1,0,-3,7,-4,-3,-4
1533864485988300,-1,1,-2,-2,-3,-1,-3,-3
1533864485988300,-2,0,-3,2,-3,1,0,-1
1533864485996280,-1,-1,0,-2,9,-1,0,-1
1533864485996280,-1,-2,0,-6,-27,-1,0,1
1533864486011238,-1,-2,-7,-2,-2,-3,-2,-2
1533864486011238,0,-1,-2,2,-2,-2,-4,0
1533864486011238,-3,-2,2,3,0,2,-1,0
1533864486011238,-1,-1,2,-5,4,-3,-2,-5
1533864486033376,0,-1,1,1,0,-2,-3,-4
1533864486033376,-1,0,-2,1,-1,-4,-1,0
1533864486034180,-2,0,-5,-1,1,1,0,-1
1533864486034180,-2,1,-2,-2,6,1,-1,-1
1533864486048157,-2,0,4,-2,-8,-1,0,-2
1533864486048157,-2,-5,-3,-4,1,-4,-1,-4
1533864486056122,-3,-4,-2,0,-11,-4,2,-1
1533864486056122,-1,0,-26,1,14,4,-7,-1
1533864486071197,1,-1,10,2,-4,9,3,1
1533864486071197,-1,-3,-4,-3,-13,-7,-1,1
1533864486072094,-3,2,0,-5,-5,2,-1,-2
1533864486072094,-2,-1,0,1,-8,-5,-6,-3
1533864486094032,-1,-2,-5,-2,-3,-2,2,0
1533864486094032,-1,-1,0,3,12,5,-4,-2
1533864486094032,-1,-2,-2,-2,-3,-3,-4,-1
1533864486094032,2,0,4,-5,-4,-5,0,0
1533864486116955,-3,-1,-3,-1,6,1,1,-6
1533864486116955,-4,-1,3,2,-5,-4,-3,-9
1533864486116955,-2,-3,-4,0,8,-3,2,0
1533864486116955,-1,1,6,2,5,7,-1,2
1533864486130919,0,-2,-1,0,0,-6,-6,-5
1533864486130919,0,1,-4,-5,1,1,6,4
1533864486131920,-1,-1,0,-1,-6,0,-1,-3
1533864486131920,-2,-2,4,-1,4,-2,1,-2
1533864486153860,-2,-1,-2,-4,-8,1,0,0
1533864486153860,-1,-2,1,1,7,0,-1,0
1533864486154858,-1,-1,-3,-2,-1,-6,-2,-2
1533864486154858,-1,0,2,-1,-6,-1,0,0
1533864486176799,-3,-3,-7,-1,5,-3,-4,-2
1533864486176799,0,-1,-3,-5,-4,6,-2,-1
1533864486177793,0,-2,0,-2,2,-2,0,2
1533864486177793,-3,-1,4,4,-3,-2,-2,-3
1533864486190758,-3,-3,-5,-3,4,-6,-3,-4
1533864486190758,2,0,-1,1,-7,1,1,4
1533864486191767,1,1,2,3,-1,0,-2,-2
1533864486191767,0,1,4,-5,4,12,4,2
1533864486213696,-2,-1,-2,0,-1,-2,1,-1
1533864486213696,0,-2,-3,-4,-6,-9,-3,-1
1533864486213696,0,-2,-5,-3,1,-2,-7,-1
1533864486213696,0,-1,-1,4,2,-5,2,-3
1533864486236635,-1,0,0,-3,-3,5,5,1
1533864486236635,-3,-1,-2,-1,-1,0,-1,0
1533864486237633,-1,-1,2,0,2,3,-2,1
1533864486237633,-3,-3,0,-5,-7,-10,-6,-3
1533864486250811,-1,-1,-8,-4,-2,-1,2,4
1533864486250811,-2,2,2,0,3,5,-1,-1
1533864486251598,-1,-1,-1,-1,-4,-3,-6,-3
1533864486251598,-3,-2,2,-2,-6,1,3,-1
1533864486273675,0,0,0,1,0,3,3,1
1533864486273675,-1,-2,-1,-3,0,0,0,-1
1533864486274536,-3,-3,-2,-1,10,2,4,-1
1533864486274536,-1,-2,-4,-1,3,-5,-7,-3
1533864486296476,0,-2,4,1,8,-4,-4,-1
1533864486296476,-3,-2,-1,-1,-21,0,2,0
1533864486297487,-1,-1,0,-2,-3,-2,2,0
1533864486297487,-3,-3,-6,0,0,-5,-3,-3
1533864486311547,1,3,2,-8,-13,-7,-8,-2
1533864486311547,-1,-3,-7,3,17,-6,-8,-2
1533864486311547,-2,1,0,-2,-14,3,3,0
1533864486311547,1,-1,-2,-2,-7,1,1,0
1533864486333377,-2,-2,0,3,6,5,5,2
1533864486333377,-1,-2,1,-2,-4,-5,-2,-3
1533864486334374,1,0,1,-1,1,-12,-8,-2
1533864486334374,-2,-3,-4,4,6,13,0,2
1533864486356319,-3,0,-1,1,-3,9,2,0
1533864486356319,-1,-1,-4,-3,-2,-1,3,2
1533864486357313,-1,-2,-2,0,-3,-4,-6,-4
1533864486357313,2,0,0,-4,-5,-9,-3,-3
1533864486371277,0,-1,-3,-2,6,-3,-3,-1
1533864486371277,-2,0,-1,-2,-1,-3,-7,-3
1533864486371277,0,-1,-1,-2,-4,-2,3,-1
1533864486371277,-1,-2,1,-2,6,9,-1,-1
1533864486393220,1,-2,-3,0,-7,-3,-3,-4
1533864486393220,-3,-1,2,-1,2,-4,1,-1
1533864486394214,0,1,2,1,-1,4,1,-1
1533864486394214,2,2,0,-2,5,-2,0,0
1533864486416176,-5,-4,-3,2,-19,1,5,2
1533864486416176,-2,-1,1,0,-2,0,-4,1
1533864486417152,0,-2,-3,-2,-2,-1,-2,0
1533864486417152,-1,-2,-3,-6,-11,-15,-12,-7
1533864486431115,0,-1,-4,-7,8,1,5,0
1533864486431115,-1,1,0,3,2,4,-2,-1
1533864486432113,-2,-2,-1,-1,2,1,2,2
1533864486432113,-1,0,-1,2,-10,0,3,1
1533864486453225,-3,-1,-1,-3,-10,-8,-4,-5
1533864486453225,1,1,1,-2,3,-1,3,-1
1533864486454054,0,0,-1,-1,3,3,-2,1
1533864486454054,-4,-3,-5,3,-4,-4,-5,-1
1533864486476130,1,-1,0,1,-3,-5,-5,-2
1533864486476130,1,-1,-2,0,-3,-2,0,-4
1533864486476993,-3,0,2,0,7,-7,1,-4
1533864486476993,0,-1,-5,-2,-3,15,-1,6
1533864486490959,-3,0,4,0,0,4,2,1
1533864486490959,-2,-3,-1,1,2,-3,-2,0
1533864486491953,0,-1,-3,-6,-12,-9,-7,-5
1533864486491953,-1,-1,0,-2,4,-1,5,0
1533864486521876,1,0,0,-2,8,1,-1,2
1533864486521876,-1,0,-2,-3,4,4,0,1
1533864486522869,-2,-3,-5,-1,1,-1,1,0
1533864486522869,-1,2,5,1,-1,-6,0,-4
1533864486537033,-2,-3,-4,2,-1,1,-4,-3
1533864486537033,1,0,0,-4,-4,-7,-1,-3
1533864486537836,0,-1,-5,2,-2,6,2,1
1533864486537836,-1,0,1,-3,0,-2,-6,0
1533864486550795,-1,-2,-8,-2,8,-1,-3,-3
1533864486550795,-1,0,3,2,4,2,2,2
1533864486551793,-4,-2,-3,-1,-9,-6,-5,-3
1533864486551793,-1,-2,-2,-3,-13,-11,-4,-5
1533864486573735,1,-2,1,-5,5,0,6,-2
1533864486573735,2,-2,-5,5,2,1,-8,2
1533864486573735,-1,1,3,1,3,5,0,2
1533864486573735,-1,-2,0,-2,7,1,8,-1
1533864486596673,-2,-1,-2,1,-5,-4,-7,-1
1533864486596673,0,-1,-1,-2,3,2,-1,-5
1533864486597677,0,-1,2,3,3,1,3,3
1533864486597677,-2,-2,1,-2,-6,-7,-5,-3
1533864486610638,1,2,0,-1,-1,-4,-5,-3
1533864486610638,-2,-2,-1,-2,-13,1,9,3
1533864486611632,-2,-1,-2,4,12,2,1,0
1533864486611632,-1,-1,0,-2,1,2,3,0
1533864486633707,0,-2,-2,0,-5,-5,-1,-1
1533864486633707,0,0,-4,-3,-4,-2,-2,-3
1533864486634572,-2,-2,-1,1,-2,0,0,1
1533864486634572,1,1,-2,-1,8,4,3,0
1533864486656513,-1,-1,4,2,9,2,-3,-2
1533864486656513,-6,-7,-6,-5,-30,-25,-13,-12
1533864486657510,-1,0,-2,0,20,6,9,2
1533864486657510,-2,2,3,0,-2,19,3,6
1533864486671473,-3,-2,-3,0,-6,3,3,0
1533864486671473,-3,-1,-1,-4,-8,-1,0,1
1533864486671473,-1,-1,-2,-4,-14,-12,-6,-9
1533864486671473,1,-2,-4,-8,-3,-12,-5,-9
1533864486693495,-1,-1,-2,8,6,4,-3,1
1533864486693495,0,0,2,3,15,3,0,0
1533864486694412,-1,-2,-1,-7,-18,-4,-2,-2
1533864486694412,-2,0,-14,1,7,-1,-3,0
1533864486716353,-5,-7,-13,2,-15,-9,-4,-5
1533864486716353,0,-1,2,0,6,3,2,0
1533864486716353,-1,-1,1,0,-5,-1,-4,-2
1533864486716353,1,1,2,-2,1,-5,-10,3
1533864486730315,-1,1,2,-5,18,5,6,1
1533864486730315,-2,-1,-2,-3,-13,0,2,0
1533864486738297,-3,-1,-5,5,0,0,-3,-1
1533864486738297,-5,-2,-2,-1,-13,-7,0,-5
1533864486753255,1,0,-35,-1,12,-5,-10,2
1533864486753255,2,17,66,0,4,7,0,0
1533864486754267,0,-9,43,-3,-5,-2,3,1
1533864486754267,-2,-7,-15,1,-8,-4,-6,-4
1533864486776192,-1,1,29,1,-2,-3,1,1
1533864486776192,-1,-2,-34,-9,0,2,1,0
1533864486776192,-1,0,-8,-1,1,-2,0,-1
1533864486776192,0,0,11,0,0,1,0,0
1533864486799144,-3,-5,-24,-6,-10,-1,-1,-4
1533864486799144,0,-4,-28,-5,5,0,-4,-4
1533864486800128,0,-1,-8,-3,-4,0,1,0
1533864486800128,-1,-5,1,3,7,0,-6,2
1533864486813109,2,3,8,-5,-5,1,0,2
1533864486813109,-1,-7,-6,1,11,-4,-4,-1
1533864486814092,-2,1,-5,0,-9,0,0,-3
1533864486814092,-2,1,-14,-3,0,-2,3,-5
1533864486836032,1,-1,3,-6,-9,2,6,3
1533864486836032,0,1,31,8,4,-3,-3,1
1533864486837030,2,5,63,3,-2,0,-3,0
1533864486837030,0,1,-20,-4,6,-3,0,1
1533864486850041,-3,-10,5,6,-5,-4,-2,-2
1533864486850041,-2,-1,24,2,11,3,2,1
1533864486858972,-3,-3,-48,-6,-5,-1,-6,-3
1533864486858972,-1,-3,8,2,-7,2,5,0
1533864486874092,-1,0,4,-2,3,1,0,-2
1533864486874092,0,0,-26,-1,-1,-1,-6,1
1533864486874092,0,0,-29,-4,6,2,-4,-2
1533864486874092,1,0,11,0,-3,-3,3,1
1533864486896085,-3,-2,-12,1,-5,-6,-3,-2
1533864486896085,-2,-6,3,3,2,-3,-1,-3
1533864486896870,-2,0,-11,0,-1,2,0,-1
1533864486896870,-4,-1,-12,-7,3,2,2,0
1533864486910832,2,3,13,-6,-14,-6,-1,-1
1533864486910832,-2,-2,-10,-10,-12,0,0,-3
1533864486918811,-2,-7,-3,-2,8,-2,1,-2
1533864486918811,-1,0,0,-2,0,-5,-9,-3
1533864486933930,0,2,7,3,7,-2,-4,5
1533864486933930,-3,-3,-6,-1,-1,0,0,-1
1533864486933930,-1,2,-7,-4,-3,0,3,-2
1533864486933930,-3,1,-64,-7,-6,-3,-1,-6
1533864486955747,0,-12,22,1,4,1,-2,-1
1533864486955747,-3,-4,-3,2,-8,-3,0,-2
1533864486956714,1,-1,6,1,2,-5,-6,-3
1533864486956714,-2,1,-5,6,0,3,4,2
1533864486970708,0,4,-4,-1,5,6,2,0
1533864486970708,-2,-1,-8,0,-6,-1,3,2
1533864486978656,-3,-2,-4,-9,-3,-3,-1,-1
1533864486978656,0,-4,21,0,-2,-3,-3,-2
1533864486993812,0,5,-6,2,0,-1,-2,-3
1533864486993812,1,-2,3,2,4,2,1,3
1533864486994619,-2,2,-2,-6,-4,-2,0,-1
1533864486994619,0,-4,18,-4,-2,-4,0,-1
1533864487015552,-1,-1,2,-5,-4,-6,-5,-2
1533864487015552,-1,2,-11,-4,0,1,-4,-4
1533864487016551,1,1,-1,5,1,0,-1,1
1533864487016551,1,-3,9,4,-1,4,0,-2
1533864487030531,0,-2,-8,-1,6,0,2,-1
1533864487030531,-1,-2,-3,-1,-3,-4,-4,-2
1533864487038676,0,-1,-3,-3,3,1,-2,-2
1533864487038676,-3,-2,15,5,-10,-6,-1,-5
1533864487053469,2,4,-1,-6,2,0,-2,-1
1533864487053469,-3,-3,-4,7,5,2,4,2
1533864487054473,-3,-2,-1,-4,1,-3,-1,0
1533864487054473,-1,-2,0,1,-7,-4,-3,-4
1533864487076512,0,-1,-2,-6,-3,3,0,-3
1533864487076512,-2,-3,-3,-6,-16,-5,0,-1
1533864487076512,-1,-1,1,3,6,6,0,3
1533864487076512,-2,-2,6,-1,3,-3,-1,-2
1533864487099476,0,2,-1,1,1,-2,-3,-4
1533864487099476,1,-3,2,-2,5,0,-2,-3
1533864487100334,-1,-4,-5,1,-3,-5,-2,-4
1533864487100334,-1,0,4,-2,-1,1,0,3
1533864487113291,-2,0,-3,0,-4,0,0,-2
1533864487113291,1,0,-7,-3,0,-2,1,-2
1533864487114289,-1,-2,2,1,-5,-4,-4,-5
1533864487114289,0,0,0,-4,7,0,-2,0
1533864487136229,-2,-1,-1,-1,1,2,3,5
1533864487136229,-4,0,0,-1,-3,0,0,-3
1533864487137227,0,1,4,3,0,0,-3,0
1533864487137227,2,0,3,-4,1,1,-2,1
1533864487159250,-7,-4,-3,-2,-7,-8,-2,-5
1533864487159250,3,1,-1,1,-1,-1,4,2
1533864487160212,0,0,-4,-1,-8,-3,-7,-1
1533864487160212,0,-1,1,0,1,1,4,0
1533864487173140,-1,-2,-1,1,-1,-1,-4,-2
1533864487173140,1,-2,0,-3,-4,0,1,-5
1533864487174128,1,-2,0,-1,3,-1,0,1
1533864487174128,-2,0,-3,1,-1,-1,-4,0
1533864487196071,-3,-1,-4,-1,-1,1,1,-5
1533864487196071,3,0,0,-1,0,2,0,-1
1533864487197073,-6,-1,-2,-5,-4,-5,-7,-6
1533864487197073,0,-1,1,0,6,2,4,-5
1533864487219008,-2,-2,-1,2,-8,-4,-5,-3
1533864487219008,-4,-2,0,-3,1,1,-1,2
1533864487220005,-2,0,-3,-1,-3,-5,1,1
1533864487220005,0,-3,-1,0,1,2,0,1
1533864487233969,-2,0,0,-3,-2,0,-5,0
1533864487233969,-3,-1,-2,-1,1,-1,-3,-1
1533864487233969,0,-1,-1,1,-2,-1,1,-1
1533864487233969,0,0,0,-1,2,1,2,4
1533864487256051,3,0,0,3,0,-3,1,1
1533864487256051,-2,-2,0,0,-15,2,1,-1
1533864487263906,0,-1,2,-3,1,1,1,-1
1533864487263906,-2,-3,-8,1,-8,-8,-1,-3
1533864487278852,-1,-3,-3,-2,8,2,3,0
1533864487278852,0,0,2,2,10,-2,-5,0
1533864487279846,-2,-3,-6,0,-8,-4,2,-2
1533864487279846,0,1,2,-4,-5,-1,-3,-2
1533864487293810,0,-1,-2,-2,-5,-4,-1,-1
1533864487293810,-2,-2,0,-3,5,-1,-2,-6
1533864487293810,1,-2,-8,2,1,1,-4,4
1533864487293810,-1,-3,0,1,3,-1,-1,1
1533864487315753,-1,-2,-1,-2,-9,-3,-2,-2
1533864487315753,0,0,-1,-2,2,-1,1,2
1533864487316747,-1,0,2,-1,2,-1,0,0
1533864487316747,-1,1,0,-1,-8,-4,-5,-1
1533864487339686,-3,0,-1,-2,1,0,0,0
1533864487339686,0,-2,-2,-2,-4,-2,-4,9
1533864487339686,-1,-1,-2,-2,-1,1,-1,-3
1533864487339686,-2,-1,-2,1,4,1,-1,0
1533864487353648,0,-1,0,-5,-3,-1,-1,0
1533864487353648,-1,-4,-35,-7,-3,-4,-3,8
1533864487354655,-3,-1,17,3,0,1,2,-16
1533864487354655,0,0,2,-1,2,2,-4,1
1533864487375590,0,0,1,2,-4,-2,-1,0
1533864487375590,-2,-1,-1,0,0,-2,-3,-5
1533864487376587,2,-1,-7,-5,2,-1,-1,6
1533864487376587,-1,-2,0,-2,-3,-1,1,-2
1533864487399579,1,-1,-2,9,2,3,-2,-3
1533864487399579,-2,-3,6,-3,-3,-12,-3,-6
1533864487399579,-3,-2,-3,-8,-19,-5,1,-3
1533864487399579,1,3,5,7,11,12,-1,9
1533864487413498,-1,0,-2,-6,4,3,-3,3
1533864487413498,0,1,7,9,6,6,1,-3
1533864487414485,-1,0,2,-2,-3,-1,2,-2
1533864487414485,0,1,-2,-5,-3,-5,-1,-7
1533864487436427,0,-4,-8,4,-7,-5,-1,-3
1533864487436427,-2,-1,2,2,1,-1,-1,-2
1533864487436427,0,-3,-2,-3,2,-1,1,0
1533864487436427,1,-1,3,0,1,-3,2,1
1533864487459583,-1,-2,-1,-1,6,-1,-3,3
1533864487459583,-2,-1,3,-3,-1,-4,-4,-6
1533864487460364,0,1,-4,5,-3,-3,-2,-1
1533864487460364,-2,-1,-1,0,3,3,-3,8
1533864487473513,1,0,0,-4,-5,-2,2,-1
1533864487473513,-2,-1,0,0,-2,1,-2,-5
1533864487474326,1,-1,-3,-3,3,2,-2,1
1533864487474326,-2,-2,-5,-6,-12,-5,-2,-6
1533864487496287,-1,0,-1,-3,1,-1,-2,-1
1533864487496287,0,1,-10,-3,-1,0,0,1
1533864487496287,-7,-4,-86,-11,1,1,-1,2
1533864487496287,5,-7,76,10,-1,-3,-1,-13
1533864487519290,0,3,-1,-6,-2,-2,-1,0
1533864487519290,-2,-7,1,5,-4,-2,-1,-1
1533864487520235,-2,1,-1,2,3,1,-1,1
1533864487520235,-3,-6,-31,-4,3,-3,-1,-1
1533864487541146,-3,-4,-16,-10,-16,-4,-4,-5
1533864487541146,2,3,16,4,4,-1,0,-4
1533864487542144,1,0,18,1,1,-1,-1,0
1533864487542144,-2,2,-14,-2,-2,-1,-1,-1
1533864487557103,0,0,17,1,2,-1,0,0
1533864487557103,-1,-3,-17,-4,-5,2,2,2
1533864487557103,2,1,14,2,-2,0,-1,0
1533864487557103,-2,5,-10,-7,0,0,-2,-4
1533864487579226,-5,-8,-26,-2,-3,-5,-3,-3
1533864487579226,-2,1,-6,-3,-3,-5,-5,-2
1533864487580094,1,-7,25,-1,-5,-2,-1,0
1533864487580094,-3,-4,-69,-8,-3,1,1,0
1533864487594092,2,18,35,6,-4,-2,-5,-1
1533864487594092,-3,-16,-18,-4,-4,4,4,1
1533864487594092,0,-3,42,9,0,-2,-1,0
1533864487594092,-2,6,-25,-8,-4,-4,-2,0
1533864487617072,-4,-6,-14,-3,-3,1,1,-1
1533864487617072,0,4,-6,-1,11,-4,-5,-1
1533864487617072,1,-1,-16,-4,-5,-1,-2,-2
1533864487617072,2,1,0,0,-1,-3,1,-1
1533864487639016,1,-3,-3,2,-1,1,-1,0
1533864487639016,-3,0,-19,-1,-1,-5,-1,-4
1533864487640010,-4,0,4,-5,1,1,1,-1
1533864487640010,-2,-3,30,6,3,1,0,0
1533864487653972,0,-4,8,-1,1,1,2,-1
1533864487653972,-1,-3,2,-4,-7,0,-1,0
1533864487653972,-5,7,-106,-22,-1,-5,-8,-7
1533864487653972,9,6,98,12,0,0,0,3
1533864487676047,-3,-11,64,10,6,3,4,3
1533864487676047,-3,-3,22,1,-5,0,-1,-1
1533864487676943,-2,-9,4,5,-1,1,0,-1
1533864487676943,-3,0,-51,-10,-4,-4,-2,-2
1533864487698856,2,4,-46,-8,1,-1,-5,-5
1533864487698856,5,12,74,10,1,0,1,-1
1533864487699871,-4,3,-6,-3,-1,0,1,0
1533864487699871,-3,-6,-79,-12,1,2,0,-1
1533864487712815,6,-21,85,28,11,4,6,7
1533864487712815,-7,-5,-62,-17,-9,-2,-3,-5
1533864487720794,1,-7,6,1,0,-2,-2,-1
1533864487720794,3,1,74,8,3,-7,-4,-1
1533864487735757,-2,5,43,-7,-14,0,1,-1
1533864487735757,-1,0,19,3,6,2,0,0
1533864487736752,1,2,53,8,3,1,1,1
1533864487736752,-7,-5,-26,-2,1,-1,-2,-2
1533864487759690,-3,6,-48,-10,-4,-5,-5,-2
1533864487759690,1,-2,16,-1,-6,-2,-1,1
1533864487759690,0,2,-17,-3,0,-1,-2,-2
1533864487759690,-2,-2,-9,1,-5,0,0,-4
1533864487772655,-3,-1,-26,-5,1,-3,-2,-3
1533864487772655,0,1,-14,-4,-1,0,-1,-2
1533864487780649,-2,-3,2,4,1,-2,-3,-2
1533864487780649,1,1,0,-5,4,1,-2,1
1533864487795597,-2,-3,-15,-3,-5,-3,-1,-3
1533864487795597,0,-5,-5,-1,-3,1,-1,0
1533864487796591,2,3,17,3,11,0,2,1
1533864487796591,0,-7,18,8,-7,-2,-2,-1
1533864487819533,-4,4,-32,-10,-19,-7,-4,-4
1533864487819533,2,1,1,-1,7,0,-1,2
1533864487819533,-1,-5,-10,-3,-6,-3,-1,-1
1533864487819533,-2,3,-2,-3,3,-1,0,0
1533864487832499,0,4,18,-1,7,-3,-3,-3
1533864487832499,2,-6,9,4,0,1,-1,-1
1533864487841474,-1,1,12,3,-2,0,2,1
1533864487841474,-6,-6,-88,-15,-8,-1,-4,-5
1533864487856431,0,-11,18,8,5,3,1,4
1533864487856431,-4,17,-5,-7,-7,-1,-2,-5
1533864487856431,0,-15,7,-4,11,-3,-2,0
1533864487856431,-3,-3,17,3,-10,-7,-1,-1
1533864487879384,-5,-1,-44,-7,-7,-1,-1,-2
1533864487879384,0,3,56,11,10,3,0,2
1533864487880367,0,15,-36,-14,-8,-5,-4,-5
1533864487880367,6,-3,87,6,0,2,4,4
1533864487893335,-4,-7,-19,-1,3,3,1,-2
1533864487893335,2,-2,68,9,-3,-7,1,0
1533864487901314,-6,-3,-11,-1,-6,0,-1,-1
1533864487901314,3,8,28,5,4,2,-3,-1
1533864487916299,0,4,-1,-2,1,-4,-5,-1
1533864487916299,-2,-10,-29,-4,3,-1,-1,0
1533864487917270,3,-1,18,1,-3,-1,1,-1
1533864487917270,-4,2,-14,-3,-1,0,0,-4
1533864487939209,0,-5,-47,-10,3,2,-1,-2
1533864487939209,-3,-2,-38,-3,-11,-5,-1,-2
1533864487940208,2,-2,25,7,-1,2,-3,0
1533864487940208,-4,-3,-2,0,-4,0,-1,-2
1533864487953219,-3,-2,-54,-6,-2,-5,-4,-3
1533864487953219,1,6,16,-6,3,0,-1,-2
1533864487962153,-5,-11,-13,-3,-2,-1,2,0
1533864487962153,1,-4,10,4,5,0,2,-1
1533864487975149,0,3,13,-1,-4,-1,-2,0
1533864487975149,-1,-3,-33,-4,-5,-3,-3,-4
1533864487984089,0,15,-14,-4,0,2,-3,-2
1533864487984089,1,-21,5,1,6,1,2,4
1533864487999049,-3,-2,76,14,-4,-3,3,3
1533864487999049,-4,-9,-44,-5,1,-1,-1,-1
1533864488001044,1,6,21,2,-6,2,-2,-2
1533864488001044,-1,-3,-57,-19,-6,-4,-5,-5
1533864488022023,5,7,71,3,3,-5,-2,-2
1533864488022023,-5,-10,-69,-4,-5,-1,2,0
1533864488023007,-2,-2,40,2,6,1,0,-1
1533864488023007,-4,7,-24,-6,-18,-7,-3,-4
1533864488034954,1,-4,-6,2,4,4,1,-1
1533864488034954,-1,-1,-8,-3,-1,-2,-2,-1
1533864488043966,0,-1,-8,-3,-2,-2,0,-2
1533864488043966,-2,0,-3,1,2,-1,-1,-1
1533864488058905,-1,4,-19,-8,-1,-3,-1,-4
1533864488058905,2,10,16,-2,-3,0,-3,-2
1533864488060884,3,-20,-1,3,3,0,-1,4
1533864488060884,-2,9,-16,3,1,3,-4,-1
1533864488081855,3,2,70,1,-4,-2,0,0
1533864488081855,8,6,78,11,2,1,3,3
1533864488083824,-8,-9,-34,-12,-2,-1,0,-3
1533864488083824,-2,-3,-55,-10,-1,-2,0,0
1533864488094821,-2,-1,-14,4,-2,2,2,2
1533864488094821,-3,-4,-26,-6,-2,-2,-2,-3
1533864488103804,0,1,19,6,-3,-3,-2,-1
1533864488103804,1,5,24,-2,2,0,0,0
1533864488118765,-2,10,-65,-14,5,0,-3,-3
1533864488118765,0,-22,6,0,-6,-2,-1,2
1533864488120731,-1,1,-14,2,5,0,-3,0
1533864488120731,0,-4,6,-6,-2,2,0,0
1533864488141703,-1,-3,-17,3,9,-4,-2,-3
1533864488141703,-1,4,3,2,-4,1,-2,-3
1533864488143698,0,3,4,1,-13,-5,0,-1
1533864488143698,-1,22,-30,-2,10,1,-1,-3
1533864488155631,-4,-16,-18,-7,-8,-3,0,-1
1533864488155631,1,1,86,2,0,-4,-4,-1
1533864488164607,1,10,-11,1,2,0,1,1
1533864488164607,-3,-5,101,0,-3,1,3,4
1533864488179596,0,14,37,-12,-4,-4,-3,-2
1533864488179596,-6,-11,-50,-5,1,-3,-2,-4
1533864488180566,-5,5,16,4,-1,-4,-2,-4
1533864488180566,-5,-27,-39,-8,3,3,4,0
1533864488201511,-1,14,-98,3,-13,-5,-6,-2
1533864488201511,7,2,108,19,-7,5,5,6
1533864488203503,-2,1,-17,-4,3,1,0,-1
1533864488203503,1,1,-42,12,5,0,-3,-1
1533864488215475,-1,-14,-32,-3,7,5,2,-1
1533864488215475,-1,12,-82,-11,-5,-6,-6,-3
1533864488224448,2,-6,-22,-1,-2,-4,-2,2
1533864488224448,1,2,27,-3,-7,-1,1,-1
1533864488239502,-2,-5,-3,6,3,-2,2,-1
1533864488239502,-3,4,1,4,3,-1,0,-3
1533864488241408,-1,-8,8,-2,-2,0,0,0
1533864488241408,-3,-8,-16,-3,-9,-5,-8,-4
1533864488261348,0,9,36,-6,-7,-2,-4,-3
1533864488261348,1,7,-105,-17,14,3,-2,-6
1533864488263358,-3,-13,0,13,-16,-1,1,1
1533864488263358,-3,5,75,9,-4,-4,1,1
1533864488275311,-2,-7,19,6,0,-3,0,1
1533864488275311,-5,-3,-94,-3,8,6,0,-2
1533864488284287,2,10,63,-12,-3,-3,-2,-1
1533864488284287,2,-6,-16,-7,-2,-2,-1,-1
1533864488299250,-2,-5,-25,-6,-7,-2,-2,-2
1533864488299250,-1,-6,-14,3,13,3,1,2
1533864488301242,3,7,-118,-7,0,-1,-2,-5
1533864488301242,-1,-14,80,14,-5,-5,0,3
1533864488321204,-2,-1,7,4,1,2,-1,-2
1533864488321204,-9,-1,8,2,-16,-3,6,3
1533864488323183,-1,-1,-11,-25,10,-1,-10,-12
1533864488323183,-11,2,-31,3,-2,-3,-4,-3
1533864488335317,7,6,-37,1,2,-2,-2,-1
1533864488335317,0,-12,-14,4,-3,-2,2,3
1533864488344126,-1,-6,107,15,1,4,3,-4
1533864488344126,4,0,-84,-32,-2,3,3,-2
1533864488359123,1,9,110,30,9,3,1,7
1533864488359123,-5,5,10,13,2,0,-4,-2
1533864488361081,1,-12,9,1,-4,-9,-2,5
1533864488361081,-3,-6,10,-6,-8,-1,-3,-3
1533864488382067,-3,-10,22,-2,1,1,3,0
1533864488382067,17,6,-23,3,3,-3,-5,1
1533864488383024,-19,2,-44,1,-7,-6,-2,-1
1533864488383024,12,-2,40,14,-1,-6,2,0
1533864488394993,20,-6,-42,-4,5,9,8,13
1533864488394993,-24,-3,27,-12,-5,3,4,-1
1533864488411948,-28,-8,-83,-4,3,1,-7,-17
1533864488411948,-38,-23,-6,14,2,0,-10,-23
1533864488418927,-21,-15,-24,-14,-11,-10,-8,-17
1533864488418927,18,-1,10,-17,-3,-4,2,4
1533864488420922,11,19,-3,36,9,3,2,4
1533864488420922,9,19,-16,-2,0,-2,3,9
1533864488441865,5,-7,-13,-41,-11,-2,-4,-1
1533864488441865,-5,2,-41,-49,-7,-5,-6,-7
1533864488442863,8,-1,21,-3,0,2,3,7
1533864488442863,6,4,-13,26,-1,0,-3,2
1533864488455829,0,2,-16,-89,-9,-8,-3,-3
1533864488455829,-1,-4,-1,-4,-7,-3,-5,-3
1533864488463808,11,2,12,-9,5,6,3,5
1533864488463808,8,-2,36,3,10,4,-1,0
1533864488478767,-12,-1,-33,31,1,3,1,-3
1533864488478767,-4,-4,6,6,-3,-4,-1,-1
1533864488480761,-4,-10,36,2,-17,-8,-1,0
1533864488480761,-2,14,-63,-2,22,3,-1,-3
1533864488501706,0,-7,-9,9,-4,-1,-1,0
1533864488501706,2,6,127,20,-2,-5,-5,-1
1533864488503709,-2,-6,-12,-7,-7,3,3,1
1533864488503709,3,1,-23,-15,-6,-4,-2,0
1533864488516830,0,-5,-9,6,-2,-6,-2,-1
1533864488516830,-1,1,-28,27,16,2,-1,-2
1533864488526255,1,-5,-24,-37,-20,-9,-6,-5
1533864488526255,-3,-4,10,-28,-12,-5,-3,-1
1533864488538635,-5,7,5,6,8,-1,0,-1
1533864488538635,-4,-5,-4,-2,-7,-3,2,-2
1533864488545588,3,2,1,9,5,-1,-2,0
1533864488545588,-1,-4,-7,10,-8,-1,-2,1
1533864488561545,5,0,-2,20,15,1,0,1
1533864488561545,-1,1,-13,-12,-11,4,3,0
1533864488563555,5,1,11,21,9,6,2,3
1533864488563555,-1,1,-5,38,9,-1,1,1
1533864488575536,-3,0,-5,-31,-12,-4,-7,-5
1533864488575536,-5,-6,65,12,-6,-8,-7,-4
1533864488584485,0,5,7,11,2,1,1,-1
1533864488584485,0,-1,-16,-2,-10,0,-1,-2
1533864488599447,-3,-3,32,5,5,0,-1,-2
1533864488599447,0,-4,-15,-6,3,1,0,0
1533864488600442,3,12,-45,-25,2,-1,-2,1
1533864488600442,-4,-12,17,-39,-2,-2,-1,-3
1533864488621396,2,1,-14,-18,-4,0,7,6
1533864488621396,-1,-2,-16,-16,-4,-1,-10,-15
1533864488623380,-3,-10,-46,6,0,-2,-2,-3
1533864488623380,0,5,-12,11,7,1,1,4
1533864488635351,-1,-1,-6,5,-5,0,-2,-2
1533864488635351,-1,1,-6,8,-2,2,3,3
1533864488650311,0,-4,-3,-5,9,-1,1,0
1533864488650311,0,0,4,-22,2,1,0,0
1533864488659284,-3,-4,3,43,-12,-1,-1,0
1533864488659284,0,-1,-19,-20,-2,-2,-1,0
1533864488661282,-3,-1,13,-13,1,-2,-4,-3
1533864488661282,-4,-6,-1,31,-10,-3,-1,0
1533864488681224,2,6,17,33,7,0,-1,-1
1533864488681224,2,0,-7,-7,7,2,2,3
1533864488683221,1,0,-12,-22,-23,-3,-1,-3
1533864488683221,-11,-9,-4,-14,-2,-9,-13,-10
1533864488695191,-2,-2,-17,-18,5,2,2,0
1533864488695191,1,-21,18,4,1,-2,0,-1
1533864488704178,4,11,94,10,9,3,8,9
1533864488704178,7,6,7,-7,-3,-1,8,17
1533864488718308,-2,-5,-3,-4,-2,-1,-11,-23
1533864488718308,3,5,-14,-7,0,-1,0,2
1533864488725111,1,-3,-2,11,1,-2,1,6
1533864488725111,-3,-3,0,5,-2,0,-5,-24
1533864488742062,21,18,19,-3,-2,1,2,10
1533864488742062,-11,-11,-16,28,5,-2,5,2
1533864488743070,-9,-9,-16,-57,-17,-6,-5,0
1533864488743070,9,22,1,-10,-2,0,-11,-11
1533864488755027,-9,-28,-16,2,7,2,3,7
1533864488755027,22,19,5,22,0,-3,-10,-11
1533864488764004,-36,15,36,-5,-5,-2,3,3
1533864488764004,-3,-41,11,8,-4,3,19,28
1533864488778118,-3,-12,0,-11,-7,-5,-8,0
1533864488778118,-8,20,5,5,-3,-1,-4,0
1533864488785102,9,-6,-25,17,5,-3,-6,-2
1533864488785102,16,31,-11,-7,-3,0,-3,7
1533864488802057,-29,-22,4,18,2,0,3,1
1533864488802057,6,0,-29,-9,-3,-4,-1,4
1533864488803057,-10,4,-17,0,-1,-1,-7,-14
1533864488803057,-13,-18,6,-2,5,4,6,7
1533864488815019,17,16,-11,12,-5,-5,-3,-3
1533864488815019,-3,-6,-5,-26,-4,-3,-4,-1
1533864488823995,30,24,4,14,5,0,1,-5
1533864488823995,-6,-11,0,0,-2,-1,-3,-3
1533864488838959,3,11,4,7,4,2,-1,0
1533864488838959,-10,-15,-1,-4,-3,1,-2,-7
1533864488844943,-1,1,-6,4,-3,0,2,5
1533864488844943,-7,-12,-15,-6,-4,-1,-3,-7
1533864488861897,1,2,-6,-10,-3,-3,-2,-6
1533864488861897,-1,1,-1,-4,4,-1,3,5
1533864488862891,3,-15,-1,4,7,2,-1,-3
1533864488862891,-1,8,-1,-13,-3,-2,-4,-7
1533864488875880,-4,2,-27,-2,-3,-3,-4,-5
1533864488875880,-5,-6,1,-12,-11,1,-1,1
1533864488884832,3,-6,-4,4,-1,-2,-4,-2
1533864488884832,3,17,7,4,1,-3,-1,-5
1533864488898798,1,3,10,9,4,1,5,7
1533864488898798,14,32,-6,4,-3,-1,2,-1
1533864488904779,-13,-4,4,10,6,-1,-7,-6
1533864488904779,-19,-39,-25,3,-7,-3,-8,-10
1533864488920772,-1,2,1,-7,-3,-1,-3,-1
1533864488920772,18,-17,-1,9,3,-1,0,-3
1533864488929714,11,15,5,1,-3,-2,-3,3
1533864488929714,4,20,11,12,6,0,0,-1
1533864488935805,-17,-5,1,-5,-2,-2,-1,-3
1533864488935805,2,-5,4,-8,1,0,-3,-2
1533864488944672,-7,-12,-4,-9,1,0,2,3
1533864488944672,0,1,0,-14,-1,-1,1,1
1533864488958645,13,-2,-8,-15,-4,-4,-3,-4
1533864488958645,-16,-1,-5,1,-3,1,2,3
1533864488965619,5,-6,-2,11,1,1,1,-3
1533864488965619,-5,-3,3,6,0,0,1,-1
1533864488981573,2,1,7,-11,0,1,2,0
1533864488981573,-8,-9,-4,11,0,-4,-3,-2
1533864488983568,-6,-6,-6,-2,-2,-1,-1,0
1533864488983568,3,10,4,3,1,-1,-2,-1
1533864489004512,-6,-17,3,9,3,1,3,10
1533864489004512,-20,-17,-9,-11,-6,-3,-7,-14
1533864489005509,23,8,-7,-2,-3,0,1,1
1533864489005509,-13,-15,-1,-11,-7,-3,-4,-3
1533864489018474,-9,-2,-1,5,2,-2,0,4
1533864489018474,23,17,3,0,-1,3,-4,-10
1533864489025466,-22,-6,5,-6,-3,1,-2,-5
1533864489025466,16,-7,-13,-1,-2,-2,3,9
1533864489041416,-11,3,-2,-2,-4,-1,-6,-15
1533864489041416,-3,-5,2,-1,1,0,3,6
1533864489043408,-12,-22,-3,-3,1,0,0,-6
1533864489043408,6,13,-1,-1,-1,-1,0,0
1533864489064401,-1,8,2,0,-2,0,1,3
1533864489064401,7,-9,4,2,0,-1,1,5
1533864489065393,5,5,1,2,0,-2,-1,0
1533864489065393,-10,-2,-8,-8,-3,-1,-1,-1
1533864489079360,13,8,5,-1,0,0,-2,-1
1533864489079360,-8,1,-3,-1,-3,-2,-1,1
1533864489080354,-7,-8,-2,-1,0,-1,-2,-4
1533864489080354,6,0,6,5,5,2,-2,-4
1533864489101300,-5,5,-4,-8,-5,-3,-3,-1
1533864489101300,1,2,-5,-2,-1,1,0,1
1533864489103291,-13,-14,-6,-9,-9,-8,-2,-2
1533864489103291,11,17,2,1,2,0,-1,0
1533864489124236,-2,1,0,0,2,1,0,-2
1533864489124236,1,15,6,3,4,1,1,4
1533864489126230,10,13,-4,-2,-1,-2,-2,-2
1533864489126230,-7,-9,0,2,-1,-1,-1,6
1533864489138200,-3,-5,-5,7,-4,-3,-3,-5
1533864489138200,-2,2,3,-4,-1,0,-1,-2
1533864489145383,8,19,3,4,-2,0,-2,6
1533864489145383,-9,3,3,1,-3,-1,1,-3
1533864489162135,1,-6,-1,0,-1,-1,0,0
1533864489162135,-7,-5,-6,-8,-5,-2,-2,-3
1533864489163144,-3,-9,-1,2,-1,0,2,4
1533864489163144,6,-7,-32,-3,-2,-2,-3,-4
1533864489184079,4,-4,4,0,0,0,0,3
1533864489184079,-8,4,2,3,1,1,-1,-10
1533864489186071,-15,-19,-4,-2,-1,-1,-1,-7
1533864489186071,19,6,3,2,-3,-1,-6,-2
1533864489207018,-2,2,-7,-1,-3,-3,-3,-7
1533864489207018,1,0,-4,-11,-2,-4,0,4
1533864489208012,-3,-15,-24,-3,0,-2,-1,-3
1533864489208012,9,1,9,-3,-2,0,0,-3
1533864489221978,0,5,36,-2,0,0,1,2
1533864489221978,-3,-12,13,6,-2,-2,-1,2
1533864489222972,6,5,0,2,-2,-2,-2,1
1533864489222972,-7,3,4,-1,-2,-1,-1,-2
1533864489243936,-2,-1,-14,-9,-2,0,-2,-1
1533864489243936,-5,-8,-14,7,1,2,1,0
1533864489245911,8,7,9,-9,-2,-1,0,2
1533864489245911,-20,-4,-3,2,-1,-2,0,-3
1533864489258876,1,0,-7,-1,0,-1,-1,-1
1533864489258876,-1,-3,3,-2,-3,0,4,6
1533864489264860,-7,3,-2,13,-2,2,-8,-10
1533864489264860,-1,-3,10,4,-3,-1,-4,-2
1533864489281818,1,-1,-9,5,0,-3,0,-3
1533864489281818,-1,-7,2,2,0,-5,-6,-3
1533864489282812,-1,-2,-3,-12,-4,-2,2,1
1533864489282812,-6,-6,-9,0,-1,0,0,0
1533864489303759,-5,-4,-1,6,-1,-1,-2,0
1533864489303759,6,7,-2,-2,3,-2,0,8
1533864489305767,7,8,-8,-4,1,-3,-4,-7
1533864489305767,-20,-18,-25,-2,1,-4,0,-4
1533864489318719,2,-4,-3,-4,-1,0,2,6
1533864489318719,-23,-12,8,2,-1,2,-4,-11
1533864489325700,3,-2,15,7,1,0,1,3
1533864489325700,2,6,-7,1,-1,-2,-1,-3
1533864489341658,6,4,-4,-5,1,1,1,-3
1533864489341658,-2,6,-14,-11,-2,-1,1,0
1533864489343649,-1,-9,-15,-14,-2,-1,-1,-1
1533864489343649,2,-1,8,-10,-1,-1,-1,4
1533864489364593,-8,3,6,-3,0,-2,-1,-1
1533864489364593,9,4,4,-2,1,0,-2,-1
1533864489365591,-7,-9,-5,-1,-3,-2,0,0
1533864489365591,5,1,12,-4,1,-2,-1,0
1533864489377561,2,-2,1,-3,1,-1,-3,-2
1533864489377561,-2,-2,-5,-2,-1,-1,-1,-2
1533864489386537,2,3,13,9,6,3,3,5
1533864489386537,-3,-3,-2,-6,-2,0,1,1
1533864489401498,-2,-5,-16,-8,-5,-4,-5,-5
1533864489401498,-2,-4,-3,-1,-3,-1,0,-1
1533864489403490,1,-4,5,2,-1,-2,-9,-3
1533864489403490,6,7,8,-1,1,5,2,-3
1533864489424467,1,-1,2,5,1,3,5,3
1533864489424467,-2,-6,-1,-1,1,-2,2,-1
1533864489425470,-4,-2,5,7,-1,-4,1,-3
1533864489425470,0,0,-7,-23,-6,-4,-1,0
1533864489437399,-1,-2,-1,1,-2,1,-5,-1
1533864489437399,-3,-4,-8,-7,-5,-1,2,0
1533864489446375,-3,-3,-3,2,-2,-1,0,-2
1533864489446375,-2,-1,1,1,-2,-4,-2,0
1533864489461334,-4,-4,-1,-1,-2,-1,0,-5
1533864489461334,1,-1,1,3,1,-1,-4,-3
1533864489463330,-1,-2,1,-5,-2,0,0,-2
1533864489463330,-1,0,4,10,1,0,-3,2
1533864489484276,1,-1,-1,-13,-2,-2,-1,0
1533864489484276,0,-1,0,4,-1,-5,-1,1
1533864489486268,-1,-3,-1,-6,-1,1,3,-1
1533864489486268,-2,-2,0,-2,-2,-2,0,-3
1533864489498236,0,1,-4,3,3,3,-3,1
1533864489498236,0,2,35,0,0,4,0,4
1533864489507211,0,-3,0,-2,-1,-2,0,2
1533864489507211,-1,-1,-2,0,-2,-3,-3,-6
1533864489521174,-5,-3,0,-1,-12,-7,-8,-5
1533864489521174,0,-2,-11,-2,7,-4,-1,-1
1533864489523181,-3,0,1,2,1,3,4,0
1533864489523181,0,0,4,0,-11,0,-2,-4
1533864489544116,-3,-4,-6,2,14,-4,-3,-6
1533864489544116,-1,-1,-6,-9,-18,1,-1,1
1533864489546108,-2,0,-3,3,4,-2,1,2
1533864489546108,1,2,-5,2,-2,-1,0,-1
1533864489558255,-4,-5,-3,3,-10,-7,-7,-5
1533864489558255,1,-3,-5,-1,2,-13,-3,14
1533864489567052,0,2,1,-1,3,16,8,-2
1533864489567052,2,3,6,-3,4,13,4,9
1533864489582188,-2,0,0,1,1,-1,4,-1
1533864489582188,-1,-2,-5,-3,-2,-3,0,-6
1533864489583028,-3,-6,-6,-6,-9,-11,-3,-4
1533864489583028,-2,-2,1,0,-7,-8,-7,-6
1533864489603956,3,-1,0,-3,5,-2,-8,0
1533864489603956,-2,-1,-8,2,7,8,3,-5
1533864489605947,-2,1,1,0,3,0,0,-1
1533864489605947,-3,0,0,-4,-7,-5,1,-1
1533864489617919,2,0,3,-2,-9,-4,-3,-1
1533864489617919,-1,-4,-4,1,0,-8,-8,-6
1533864489626892,-1,0,-3,-1,3,4,-10,-7
1533864489626892,-2,-3,-4,3,10,5,8,6
1533864489640890,-1,0,0,-1,-6,-2,1,1
1533864489640890,3,0,-4,-3,-1,-5,0,-3
1533864489647871,0,0,0,-1,1,14,4,5
1533864489647871,-2,-4,-2,1,1,-6,-1,-1
1533864489663813,-2,-4,-3,1,-5,-14,-11,5
1533864489663813,-3,-3,-2,-1,-2,-2,1,-13
1533864489665789,-1,3,2,0,-7,-4,-2,1
1533864489665789,2,1,2,6,9,8,1,-2
1533864489677792,-1,-1,-3,0,2,3,8,1
1533864489677792,0,1,1,0,-6,-2,-10,0
1533864489686733,0,-3,-4,-4,-4,-11,-1,-5
1533864489686733,0,-1,-4,-2,1,0,0,-5
1533864489700733,1,2,1,2,0,4,0,-1
1533864489700733,-4,-3,0,7,-4,0,-3,-1
1533864489707703,-1,-3,-1,-1,0,1,-1,2
1533864489707703,-2,-1,-1,2,-11,1,-2,-3
1533864489724630,-2,-4,-2,2,12,0,-2,-5
1533864489724630,-1,-1,-4,0,1,-7,-6,-3
1533864489725629,0,-1,0,16,-6,-3,-3,-1
1533864489725629,-2,0,-2,-1,-10,-6,0,-2
1533864489737615,-4,-2,-1,2,-9,3,-4,-4
1533864489737615,-1,0,-1,5,9,11,5,1
1533864489746579,-7,0,1,2,1,-6,0,0
1533864489746579,-1,2,0,-3,-6,-4,2,2
1533864489760537,-2,-2,0,-2,0,2,2,-2
1533864489760537,1,-1,-4,-9,-3,-3,-4,-2
1533864489767519,0,-1,-1,-9,-5,-8,0,0
1533864489767519,2,-1,-1,-2,10,0,-13,-5
1533864489784473,0,2,-2,2,5,11,8,3
1533864489784473,-2,0,2,1,-2,4,6,3
1533864489785467,0,-2,-1,3,-4,-3,-2,-3
1533864489785467,-1,-5,-4,4,-1,-5,-4,-4
1533864489798447,0,-2,0,0,-1,-7,-11,-3
1533864489798447,-1,0,-2,4,-4,1,2,-4
1533864489806414,0,0,0,-1,6,3,5,2
1533864489806414,-1,-3,-3,1,-3,-2,-8,-1
1533864489821371,-2,2,-2,-3,-9,-1,4,0
1533864489821371,0,1,2,0,16,0,9,3
1533864489827358,-1,0,0,-16,-2,-4,-13,-5
1533864489827358,-2,-2,-3,-6,-5,-3,-1,-1
1533864489844313,1,0,1,6,8,1,8,6
1533864489844313,-1,-3,0,-2,-1,8,-3,0
1533864489846322,-1,-3,-1,-8,-6,-2,-3,-3
1533864489846322,-4,1,2,-15,-7,0,-1,-1
1533864489858276,-1,-2,-3,-13,-11,-8,-4,-1
1533864489858276,-4,-2,-2,-9,-4,-5,0,-2
1533864489867249,0,-1,2,-7,7,-2,-5,-3
1533864489867249,0,-1,-3,-14,-1,-4,-3,-1
1533864489881221,-4,-1,-2,-6,1,5,10,1
1533864489881221,1,0,-1,-4,-2,3,-6,1
1533864489888193,-2,-4,-2,-2,-8,-11,-9,-5
1533864489888193,0,-3,-1,2,11,3,4,1
1533864489904150,0,2,2,1,-1,4,2,-1
1533864489904150,-2,1,0,-2,-3,-2,-3,-1
1533864489906145,-2,0,-7,-2,-5,-3,0,2
1533864489906145,-2,-3,-3,4,-12,-9,-6,-4
1533864489927089,-1,-2,-2,0,6,-3,5,3
1533864489927089,-2,2,-1,-1,-8,8,9,5
1533864489928086,-3,-2,0,2,3,2,-4,-1
1533864489928086,0,-2,-4,-2,4,-9,-8,-4
1533864489941051,0,-2,-1,-4,-7,-7,-4,-6
1533864489941051,1,1,1,-2,5,3,-7,4
1533864489948032,-5,-2,-1,0,10,3,13,1
1533864489948032,-2,1,2,0,-3,0,-6,-2
1533864489963990,-1,-2,0,-6,-5,-3,-8,-4
1533864489963990,-3,-6,-8,-7,-3,-4,-3,-4
1533864489965985,0,2,1,4,0,6,0,4
1533864489965985,-4,-2,-1,0,-5,0,5,0
1533864489986929,-2,-3,-1,7,13,0,0,-2
1533864489986929,0,-2,-2,1,-6,-9,-5,-6
1533864489987926,0,-5,-6,-5,-14,-8,-4,-2
1533864489987926,1,4,6,2,4,15,2,6
1533864490000894,1,5,7,-1,-2,-2,-1,2
1533864490000894,-4,-7,-9,2,3,-6,-9,-6
1533864490008871,-1,-2,-4,-6,-8,-4,-1,-5
1533864490008871,1,-1,-1,-1,-12,-9,-6,-2
1533864490023830,-2,-2,-2,-3,-7,7,6,4
1533864490023830,-2,0,3,3,1,1,5,-2
1533864490025855,0,0,1,6,4,1,2,-1
1533864490025855,0,-1,0,0,-2,-7,-6,-5
1533864490046768,0,-1,-1,0,20,3,-3,2
1533864490046768,-3,-2,-1,0,-10,-3,1,0
1533864490048762,-1,-2,-3,-1,10,2,-1,0
1533864490048762,-1,-1,-4,-4,0,1,-1,-3
1533864490060731,1,-2,-1,3,-9,-4,-7,-4
1533864490060731,-2,-2,-6,-3,3,-4,9,2
1533864490069707,-1,-2,-2,-1,-9,-1,-3,-5
1533864490069707,-1,-1,-1,0,4,6,6,6
1533864490084670,-4,0,-1,7,1,0,-12,-4
1533864490084670,-3,-2,-4,-5,-3,2,3,2
1533864490085665,-1,1,2,-1,11,0,0,-2
1533864490085665,-3,-5,-7,1,4,-4,3,-4
1533864490106612,0,-3,-5,-3,-7,-9,-6,-3
1533864490106612,0,3,-26,1,2,7,-1,2
1533864490108604,-2,1,8,-3,-12,1,5,3
1533864490108604,-3,-1,1,-3,-10,0,3,-3
1533864490120697,-3,0,6,1,-3,-3,-1,-4
1533864490120697,0,-4,-9,-4,-1,-13,-9,-10
1533864490129548,-1,-1,-5,-3,3,-4,-8,2
1533864490129548,1,1,4,6,16,8,2,5
1533864490144510,0,-1,-6,0,5,6,10,1
1533864490144510,0,8,-19,-1,0,0,-1,-2
1533864490145504,1,-11,23,1,-10,-1,0,-1
1533864490145504,-2,-4,-4,4,-1,-10,-1,-5
1533864490166448,-2,-5,-4,-6,-9,-1,-1,-3
1533864490166448,-1,0,9,5,16,2,-2,0
1533864490168444,-1,0,-20,-5,-6,-3,1,1
1533864490168444,3,4,56,7,3,-2,1,2
1533864490180420,0,8,67,1,2,-3,-4,-5
1533864490180420,-3,-3,16,-4,-17,-2,1,0
1533864490189387,-1,-2,-45,-4,1,4,3,-1
1533864490189387,-4,-8,4,-1,6,-1,-1,-1
1533864490204347,-4,4,-33,-11,-7,-5,-5,-3
1533864490204347,1,1,16,7,3,0,-4,2
1533864490206342,-1,2,-21,2,14,0,-1,-2
1533864490206342,-2,7,16,-2,-12,2,-1,-3
1533864490226291,3,-9,6,-2,2,-2,1,-2
1533864490226291,-4,-3,-23,-8,-3,-1,-2,-6
1533864490228294,-2,-9,21,6,4,-2,5,3
1533864490228294,0,-1,-5,0,4,3,-6,1
1533864490240251,-6,-10,-104,-3,0,1,-1,-2
1533864490240251,-1,0,46,-2,-26,-5,3,3
1533864490249239,-2,2,42,2,3,0,0,-2
1533864490249239,-6,-1,-15,-3,-16,-5,-6,-6
1533864490264187,0,0,-5,4,35,3,-2,1
1533864490264187,-1,-1,-28,-9,-5,3,-2,5
1533864490266184,-6,2,-13,-3,-2,0,-1,-4
1533864490266184,-1,-3,-18,0,12,-1,1,2
1533864490287245,-2,-3,0,-1,-22,-5,-1,-1
1533864490287245,1,-4,2,5,9,-3,-2,-7
1533864490288126,3,7,54,8,-7,-2,-3,3
1533864490288126,3,0,-9,-4,1,-2,1,1
1533864490300091,2,-2,11,2,1,1,-1,-1
1533864490300091,3,-1,15,-1,-2,-6,0,-1
1533864490309067,0,-1,-30,-4,-10,-2,-4,1
1533864490309067,0,-1,-19,-5,6,5,2,0
1533864490324027,-1,2,18,-3,-7,1,2,0
1533864490324027,0,-1,-4,-2,-9,-5,-8,-9
1533864490326022,-1,-4,-17,0,3,-3,1,4
1533864490326022,-2,0,2,-1,-2,2,1,0
1533864490346986,-1,1,11,0,3,2,-5,4
1533864490346986,-2,0,6,2,2,0,3,0
1533864490347962,-1,-3,-8,-5,-10,-4,-2,-8
1533864490347962,2,1,3,1,-6,-2,-3,-3
1533864490359932,-5,-5,-8,4,-21,-3,2,1
1533864490359932,-4,-2,-23,-2,12,3,3,-2
1533864490368972,-2,-9,-85,-19,-5,0,-7,-4
1533864490368972,2,1,27,2,-1,-4,1,2
1533864490383870,0,4,51,-1,-3,-2,0,-2
1533864490383870,1,3,18,3,10,-1,-2,-1
1533864490385862,-1,5,-24,0,-6,-1,1,2
1533864490385862,-1,-2,7,9,1,2,1,0
1533864490406829,0,-6,15,0,3,2,2,-1
1533864490406829,-1,1,-5,-2,-6,-1,0,3
1533864490407823,-3,2,21,2,5,0,-4,-4
1533864490407823,-1,-4,-21,-10,-12,-5,-1,-3
1533864490420771,1,2,-3,2,3,-3,-1,0
1533864490420771,1,-2,1,1,-9,-6,-2,2
1533864490429755,4,1,20,-1,14,14,3,7
1533864490429755,-6,-5,-12,3,-2,-6,-6,-4
1533864490444707,-3,-3,-19,-5,-10,-4,1,-4
1533864490444707,0,-7,-5,-4,-3,8,8,-2
1533864490445701,1,-2,15,2,15,-11,-18,-2
1533864490445701,-2,0,-11,-2,-1,-5,0,-1
1533864490466649,-2,0,-9,-2,-11,2,0,-2
1533864490466649,-3,-4,1,-5,-3,-2,2,-5
1533864490468641,-1,2,13,0,-12,-4,2,-5
1533864490468641,2,-1,-5,2,22,3,1,3
1533864490480608,-3,-2,-7,-7,4,-2,-5,-1
1533864490480608,-4,-1,3,3,1,2,-4,-3
1533864490489584,2,1,9,-2,-1,3,8,5
1533864490489584,-5,-6,-13,0,-14,-9,-13,-9
1533864490504576,3,-3,-1,0,26,5,11,6
1533864490504576,-3,-1,-2,-7,-9,1,-2,3
1533864490505581,-4,-2,2,2,-21,-4,-4,1
1533864490505581,1,4,2,-6,-1,0,2,-3
1533864490526488,-4,-3,-5,1,-1,0,-3,-4
1533864490526488,1,-2,0,0,4,-2,-5,-1
1533864490528480,0,-2,4,0,-3,-3,0,-4
1533864490528480,1,-3,-2,-3,4,6,5,2
1533864490540461,-2,-4,-8,0,-5,-6,-7,-4
1533864490540461,-2,-2,-5,-2,1,-6,-4,-2
1533864490549424,-2,-1,1,1,5,2,-1,-3
1533864490549424,-1,0,-2,0,0,1,1,0
1533864490564402,0,1,-2,-1,-2,-1,0,-1
1533864490564402,-1,-2,-6,-2,-8,-8,-4,-3
1533864490565381,-4,-1,4,-3,-11,-3,-4,-2
1533864490565381,-1,-1,-2,0,11,4,1,0
1533864490586341,-2,-1,0,-3,-10,-1,-3,-1
1533864490586341,1,0,4,-6,4,4,3,0
1533864490594305,-2,-2,-3,-3,-13,-5,-1,-2
1533864490594305,1,-3,-5,-4,-8,-3,2,-2
1533864490600291,1,1,1,1,3,6,6,4
1533864490600291,1,-1,0,4,10,-5,-6,-1
1533864490609264,1,2,5,-7,-6,-2,-1,-3
1533864490609264,0,-2,-1,-1,-4,2,-1,-2
1533864490624227,-4,-3,-9,2,4,1,1,-3
1533864490624227,-2,1,-1,-3,-16,-3,-1,-3
1533864490626222,-1,-1,0,1,11,4,-2,3
1533864490626222,-1,1,2,-4,0,-7,-7,-2
1533864490647163,0,3,2,3,-10,-1,1,0
1533864490647163,-2,-2,2,8,4,-1,0,0
1533864490648160,-5,-5,-9,-6,-6,-7,1,-5
1533864490648160,-3,-2,-1,-2,-6,-3,0,-2
1533864490660131,0,-1,0,-1,10,-1,-4,-1
1533864490660131,-2,-1,1,-5,-14,-1,-1,-1
1533864490669108,2,0,3,5,12,1,2,-1
1533864490669108,-3,-3,-8,-1,0,0,-1,-1
1533864490684075,-1,-3,-5,-4,-7,-3,2,0
1533864490684075,0,0,3,3,0,4,-1,-1
1533864490686059,-3,-2,-2,-3,15,-2,-3,-4
1533864490686059,-1,2,0,-4,-16,-4,2,2
1533864490707006,-1,-2,-6,1,5,0,0,4
1533864490707006,-2,0,-2,3,-11,1,1,1
1533864490708000,0,2,2,-3,6,3,2,0
1533864490708000,-2,0,0,-3,-12,-5,-3,-3
1533864490719971,0,-2,-1,-3,-4,-4,-4,-5
1533864490719971,-3,-3,-7,-1,6,-7,-5,0
1533864490728944,-1,-1,-3,3,0,3,-2,-2
1533864490728944,-1,0,1,-1,4,-3,1,0
1533864490743907,1,-1,3,-3,3,4,-2,1
1533864490743907,0,-1,-1,-3,-5,0,1,-1
1533864490745906,-2,-2,1,4,-6,-5,1,-2
1533864490745906,-1,0,1,0,3,-1,-2,-2
1533864490766866,0,-2,-4,-5,-5,0,0,-1
1533864490766866,-2,0,4,-1,3,-2,1,-3
1533864490767840,-2,-2,-7,1,-7,-4,0,-1
1533864490767840,-2,0,-2,0,15,1,-5,0
1533864490780806,-2,2,0,-3,-19,-1,2,0
1533864490780806,0,-3,-1,-6,2,-1,-1,-2
1533864490789782,1,-1,0,-4,1,-2,0,-1
1533864490789782,-4,-4,-1,5,-3,0,-6,-1
1533864490803747,-1,0,1,-4,-2,-8,-3,-4
1533864490803747,1,1,-2,1,7,6,5,3
1533864490805738,1,0,4,-2,-4,-2,-1,2
1533864490805738,-2,-5,-7,-4,0,-1,0,-1
1533864490826686,-1,-2,-1,-1,0,-4,-6,-3
1533864490826686,-3,-3,-9,-3,-7,-4,-3,-2
1533864490828677,-1,1,-1,1,2,0,-1,-1
1533864490828677,-2,0,1,1,-2,2,0,0
1533864490840645,-2,-2,0,-5,5,-2,-5,-3
1533864490840645,0,-1,-2,3,-5,2,1,0
1533864490849622,0,-3,-10,-2,4,0,-4,-2
1533864490849622,-1,-3,-7,-5,-3,-6,-1,-1
1533864490871566,-3,-1,-3,4,-5,-2,-2,-2
1533864490871566,-1,1,3,-2,12,0,-4,-2
1533864490873566,-1,-2,1,-2,-10,4,-1,0
1533864490873566,0,2,4,6,9,0,0,0
1533864490886526,0,2,-2,-4,-6,-4,1,-1
1533864490886526,-3,-2,-2,-6,-10,-6,-7,-4
1533864490888517,0,-1,-1,-4,-3,2,5,1
1533864490888517,1,1,6,-9,3,3,3,-1
1533864490909464,-4,-4,-6,8,0,0,-3,-3
1533864490909464,1,-2,0,6,20,1,-2,1
1533864490910458,-3,-1,-2,-7,-23,-6,-1,0
1533864490910458,-2,-1,0,-3,-4,-4,-1,0
1533864490924424,1,0,4,-4,6,-1,-1,-2
1533864490924424,-1,-3,-3,-1,-6,-2,0,-2
1533864490926416,-1,-2,1,5,11,-1,-3,-2
1533864490926416,0,-1,-4,-1,-1,3,4,2
1533864490946367,1,3,6,-9,5,-1,-1,1
1533864490946367,-3,-4,-5,3,2,0,-3,-3
1533864490948362,1,-3,-6,-5,-2,-4,-1,-3
1533864490948362,-4,-1,-5,1,-10,-1,-2,-2
1533864490969304,1,-2,2,-3,-1,0,-1,-2
1533864490969304,1,0,0,-1,1,0,-1,0
1533864490971296,-1,0,-1,2,-3,-1,-1,-2
1533864490971296,-2,-1,0,-2,1,0,-1,-3
1533864490984264,-2,-4,-32,-4,-6,-6,0,-3
1533864490984264,-2,0,32,1,-3,-3,0,0
1533864490986257,-2,0,-1,3,-2,-2,-2,-3
1533864490986257,1,-3,-3,0,10,2,-3,4
1533864491007200,-2,-2,1,-1,-1,-4,-6,0
1533864491007200,0,0,-7,-3,-4,1,3,0
1533864491008208,-3,0,2,2,3,0,-2,0
1533864491008208,-1,-3,2,-3,-2,3,0,-3
1533864491029154,-1,-2,1,0,-10,-1,0,-2
1533864491029154,-2,-1,-7,-4,2,-6,-4,-3
1533864491031143,2,-1,5,2,1,7,2,0
1533864491031143,-2,-1,-9,-1,-7,-7,-4,-3
1533864491044104,-4,-2,3,-2,-1,-6,-3,1
1533864491044104,-1,-1,-7,-6,-3,-3,0,-2
1533864491050085,-2,0,-6,-1,0,-3,-3,-2
1533864491050085,1,0,17,-1,5,1,0,0
1533864491067043,0,5,4,-1,-5,1,0,-1
1533864491067043,-2,-13,-2,1,1,1,-1,0
1533864491068037,-1,-2,5,0,-3,-1,-2,0
1533864491068037,-3,-3,-31,-3,-5,-1,-1,-2
1533864491089978,0,0,29,5,-6,-2,1,-1
1533864491089978,0,3,-3,-4,6,2,0,2
1533864491090990,-1,1,-8,-8,-1,-9,-3,-2
1533864491090990,-2,-3,-3,2,3,-1,-2,-4
1533864491103941,2,0,-7,4,3,11,4,6
1533864491103941,-3,-1,-6,-4,-7,1,-2,-1
1533864491110925,-1,-1,4,0,1,-1,-1,-1
1533864491110925,-1,2,3,-3,-2,-5,-1,-3
1533864491126883,0,-5,-3,-2,-5,-9,-3,-3
1533864491126883,-1,2,-1,-2,13,3,-1,-1
1533864491127877,-2,-2,-8,2,-3,-6,-2,1
1533864491127877,0,-2,4,-1,-26,0,4,1
1533864491148824,-4,-2,-5,-2,4,-2,-2,-2
1533864491148824,-1,0,-9,-1,-9,-3,-2,0
1533864491150817,-2,1,-20,-2,7,-1,-1,-3
1533864491150817,6,10,92,11,10,-2,0,1
1533864491163781,-5,-2,-46,-6,-3,-1,-3,-1
1533864491163781,2,12,86,7,-5,-5,0,0
1533864491170817,-6,-18,-23,-1,0,3,-2,-2
1533864491170817,0,1,-45,-6,0,0,-1,0
1533864491186723,0,-8,48,5,3,3,3,3
1533864491186723,-2,-1,-8,3,-1,-1,-2,-1
1533864491188714,-1,1,-30,-4,-1,-1,-1,-1
1533864491188714,0,-1,24,-5,-4,1,-3,-1
1533864491209661,-1,6,-13,-2,1,-4,-4,-3
1533864491209661,0,-2,-41,-8,-4,-1,-1,-2
1533864491210656,-1,-2,38,4,0,0,1,2
1533864491210656,-2,-10,-20,-3,5,-2,-1,1
1533864491223624,-4,-5,-1,-1,0,-3,0,-1
1533864491223624,-4,-3,-4,-2,-5,0,-1,0
1533864491230602,-1,0,-19,-5,-2,1,-3,-3
1533864491230602,1,-6,5,-3,2,0,0,1
1533864491246559,-1,-1,-18,-2,5,0,-2,-1
1533864491246559,-3,8,-40,-7,-13,-6,-5,-4
1533864491248555,1,2,33,3,3,-2,2,1
1533864491248555,-5,-8,-29,-1,-2,-1,0,-1
1533864491269502,2,4,62,5,9,0,0,-1
1533864491269502,-4,6,-22,-10,-4,-1,-3,-3
1533864491270496,-1,-16,-37,3,-4,-2,-2,-1
1533864491270496,2,6,17,3,-4,-4,-1,2
1533864491282467,-5,-10,-31,-4,1,1,-3,-1
1533864491282467,-1,-7,12,3,3,3,1,-1
1533864491291439,1,9,5,-6,-2,0,-2,0
1533864491291439,-3,-2,-20,-2,-1,-2,-4,-2
1533864491306403,-1,3,-17,-5,-7,-3,-1,0
1533864491306403,1,-2,3,3,9,-1,1,2
1533864491308401,-2,-6,-1,-3,-13,-1,1,-2
1533864491308401,0,2,-14,-8,1,-1,-1,-3
1533864491329343,-1,-8,0,2,-6,1,-1,0
1533864491329343,2,0,27,3,0,-2,-1,0
1533864491331333,-3,0,-19,-4,2,-2,-1,-1
1533864491331333,-1,1,5,1,-1,0,-2,-1
1533864491343304,0,1,-57,-6,-6,-2,-2,-2
1533864491343304,-1,-7,4,0,6,2,0,0
1533864491352286,3,5,5,-6,-5,-5,-1,1
1533864491352286,-2,0,42,-2,-17,-4,-4,-1
1533864491367241,-3,4,-37,-9,-9,-3,-2,-4
1533864491367241,-2,-9,-30,2,-4,0,0,-2
1533864491368234,-3,7,25,-1,1,0,0,0
1533864491368234,-3,-13,-8,6,8,-1,0,0
1533864491389178,0,0,8,0,3,4,-1,-1
1533864491389178,-6,-4,0,-2,-1,4,-1,0
1533864491391174,-4,3,-8,-2,4,-1,-3,-4
1533864491391174,-3,-3,-47,-10,-1,-2,-3,-5
1533864491403167,5,4,20,4,5,-2,0,1
1533864491403167,1,-2,-6,-1,-4,-3,-3,-1
1533864491412119,0,-2,11,1,1,1,-2,0
1533864491412119,-3,-2,-32,-3,-2,-1,0,-2
1533864491427077,3,2,84,5,3,-2,0,-1
1533864491427077,0,-5,-5,-9,-8,-2,-1,0
1533864491428074,-3,0,-7,5,2,2,0,-5
1533864491428074,1,-2,25,-1,4,-1,1,1
1533864491449022,-6,3,-116,-18,-10,-2,-4,-5
1533864491449022,2,-12,53,12,5,2,7,4
1533864491451013,-2,-6,1,0,4,-1,0,0
1533864491451013,1,4,5,5,-2,1,2,-1
1533864491462992,0,4,-12,-4,-4,-3,-4,-2
1533864491462992,-2,5,-14,-6,3,0,-2,-3
1533864491471957,0,-10,-4,3,3,1,0,0
1533864491471957,-2,0,1,2,5,-3,0,0
1533864491486917,0,3,21,4,7,7,2,0
1533864491486917,2,-1,-14,-4,-2,0,-1,-4
1533864491487916,1,2,17,0,-13,-2,-2,-2
1533864491487916,-2,3,-12,-1,-5,0,-1,-3
1533864491508865,-4,-9,13,1,0,-3,0,-1
1533864491508865,2,6,-1,2,3,-2,0,2
1533864491510853,-1,-5,3,-6,5,-1,-2,-1
1533864491510853,-3,2,-48,-4,-13,0,-2,-1
1533864491522820,-1,-3,29,-3,-1,-1,2,0
1533864491522820,-3,-5,-27,1,1,-3,-4,-3
1533864491531797,4,1,57,3,-1,-2,0,-1
1533864491531797,-2,-1,-8,-3,0,0,-2,-1
1533864491546792,1,-4,12,0,-2,-1,1,0
1533864491546792,-2,1,-12,-4,-9,-3,-2,-2
1533864491548753,-2,3,-27,-3,-7,-1,-2,-2
1533864491548753,1,-1,6,-6,4,0,0,-1
1533864491569732,-3,-4,3,3,-2,-3,0,0
1533864491569732,0,-1,7,-6,3,-3,-1,-1
1533864491570693,-2,0,-13,2,-9,-4,-2,0
1533864491570693,-1,-3,14,-3,9,0,-1,-3
1533864491582674,1,-1,-2,-2,-2,0,-2,-2
1533864491582674,-1,0,-6,-1,-3,-1,-1,-2
1533864491591640,1,2,1,-3,-2,0,0,1
1533864491591640,0,-2,1,1,0,-4,-4,-2
1533864491606597,-1,-6,-10,-1,-12,-4,0,0
1533864491606597,-3,-2,0,-2,-1,2,-4,-3
1533864491608591,0,0,-4,-3,3,-2,2,-1
1533864491608591,-1,-1,9,6,-9,-4,-1,-2
1533864491629537,0,1,1,2,17,3,0,-1
1533864491629537,-3,-1,3,-6,-4,-4,1,-1
1533864491630533,-4,-1,-4,1,3,-1,-1,-1
1533864491630533,-5,-6,-40,5,-3,-1,-3,0
1533864491642504,-1,0,17,2,2,-2,-3,-1
1533864491642504,1,-2,-1,-1,-6,1,1,-1
1533864491651483,2,2,2,-5,4,0,-2,-1
1533864491651483,1,-3,0,1,-4,-1,1,-2
1533864491666440,0,2,-5,4,-3,-2,-2,0
1533864491666440,-1,0,8,-4,-2,-2,-1,-1
1533864491668432,-1,-1,-8,-2,-3,-2,-3,-2
1533864491668432,1,3,11,-1,-1,1,1,1
1533864491689379,-1,-1,-4,-6,0,-2,-6,3
1533864491689379,-1,0,2,1,0,-3,-4,-2
1533864491690373,-3,-2,-5,1,-5,-1,0,-2
1533864491690373,-3,-1,8,3,-8,-4,-4,-4
1533864491703344,0,-3,3,-7,11,4,2,0
1533864491703344,-4,-4,-10,6,-9,-8,-5,-1
1533864491712313,0,-2,-4,-18,5,2,6,6
1533864491712313,1,2,7,0,-3,2,1,-3
1533864491726280,0,-1,1,19,6,7,4,-2
1533864491726280,-2,-2,-4,6,-10,-3,-4,-1
1533864491733263,-4,-6,-38,-56,-14,-3,-3,-2
1533864491733263,1,8,20,-2,16,0,2,4
1533864491749218,0,-12,63,-1,-35,-9,-5,-3
1533864491749218,0,-15,41,14,15,3,5,10
1533864491751210,-3,1,1,23,2,-2,-6,-15
1533864491751210,-3,-4,7,-9,0,0,8,9
1533864491763178,-5,0,-38,-5,3,-1,-14,-28
1533864491763178,-1,6,-19,-5,2,1,0,-1
1533864491772154,1,0,23,16,5,-1,5,11
1533864491772154,-4,-4,-17,-14,-7,-2,-10,-17
1533864491786116,0,2,-9,5,1,-3,5,3
1533864491786116,0,-5,-50,-3,-5,-2,-4,-2
1533864491793101,-3,2,-2,-20,0,1,-3,-2
1533864491793101,2,4,5,14,8,2,-3,2
1533864491809055,-1,1,-8,-17,-6,-3,1,7
1533864491809055,-5,-4,3,-10,-7,-5,-5,-9
1533864491811050,0,-4,-3,11,-1,1,-3,0
1533864491811050,0,-3,3,10,4,1,0,3
1533864491831997,-2,1,-1,12,1,-1,1,3
1533864491831997,3,7,1,-8,12,4,3,3
1533864491832991,-1,0,1,2,-16,-5,-4,-3
1533864491832991,-2,-2,7,-6,8,-3,-3,-1
1533864491845957,3,0,-12,-26,-5,1,4,9
1533864491845957,0,2,7,0,-6,-1,-2,-5
1533864491852938,-4,-4,-1,11,4,-6,-2,-4
1533864491852938,1,-1,-5,-16,-10,-6,-3,-4
1533864491868898,-2,3,-20,22,27,5,7,6
1533864491868898,7,-10,28,17,7,15,3,25
1533864491870890,-6,-2,-28,3,-7,-2,-4,-9
1533864491870890,-4,-6,32,12,-5,-2,2,3
1533864491892051,-4,-1,7,-5,-4,-7,-7,-8
1533864491892051,0,0,-32,-14,-1,-7,3,4
1533864491893969,2,5,10,15,2,1,1,1
1533864491893969,0,-7,-11,23,2,-1,-5,-3
1533864491905822,-1,1,-6,-46,-21,-6,-1,2
1533864491905822,-8,-2,-7,-1,-1,-4,-2,-9
1533864491912779,8,2,5,-36,-6,-4,-3,1
1533864491912779,-4,3,-13,12,-1,-1,-2,-4
1533864491928738,0,2,17,15,4,2,-1,-1
1533864491928738,0,3,1,6,-1,-1,-2,-4
1533864491930730,-2,-2,3,15,3,-1,-4,-5
1533864491930730,1,2,3,-1,0,4,2,2
1533864491951677,-1,-5,-12,-2,2,0,-2,-3
1533864491951677,-7,1,2,-3,-6,-5,-6,-7
1533864491953668,-9,-10,5,32,11,5,2,3
1533864491953668,7,3,-9,10,-2,0,0,-2
1533864491966637,-5,-7,-7,-33,-14,-4,-6,-3
1533864491966637,9,1,-1,-8,-3,-6,0,-4
1533864491972621,-7,-1,-1,-48,-3,-2,-6,-1
1533864491972621,-8,-9,-14,-25,-1,-2,0,4
1533864491989573,-2,-1,8,13,8,2,-1,-8
1533864491989573,11,7,6,6,0,-4,0,-9
1533864491990570,5,0,-10,-8,-6,-4,-1,8
1533864491990570,-1,1,4,4,-2,0,-6,-13
1533864492011514,4,-1,-10,2,-4,-3,-3,0
1533864492011514,-10,-10,8,3,-1,2,0,5
1533864492013526,32,12,44,21,7,0,6,2
1533864492013526,-28,-13,-18,-26,-6,-2,3,3
1533864492025682,15,25,9,10,-4,-2,-1,2
1533864492025682,-22,-54,-4,34,-2,0,-3,-6
1533864492034452,5,4,-23,-36,-10,-2,3,-4
1533864492034452,5,-8,2,1,0,3,-6,-7
1533864492049416,-9,-10,0,2,-1,-2,-3,-6
1533864492049416,5,16,-1,11,4,-1,2,1
1533864492050409,-10,0,-3,13,-1,-1,-1,-3
1533864492050409,6,2,-2,-9,-2,-3,0,1
1533864492071357,-6,3,-5,7,1,-3,0,-1
1533864492071357,4,11,4,-20,-4,-2,-2,-2
1533864492073358,-11,-17,-10,14,0,0,-2,-1
1533864492073358,2,10,2,-7,-3,-2,1,1
1533864492085319,3,-4,9,19,7,2,-1,2
1533864492085319,1,14,-11,-11,-6,-2,-3,-1
1533864492094292,-6,0,-1,0,-3,-2,-2,0
1533864492094292,0,-5,-4,2,0,-1,0,1
1533864492109255,-2,1,2,-8,-5,-3,0,-4
1533864492109255,-3,-3,-2,-17,-2,-3,-3,-3
1533864492111250,-5,6,2,10,4,2,-2,-2
1533864492111250,1,5,0,-3,-1,0,1,1
1533864492132191,-8,-22,-6,-3,-4,-4,0,0
1533864492132191,-1,9,5,-5,-1,1,1,-2
1533864492133188,0,-7,-1,-1,1,-2,-2,-2
1533864492133188,2,3,-2,6,-2,-2,-1,-2
1533864492145159,0,0,0,-6,2,-1,2,12
1533864492145159,-3,-2,-1,1,1,-1,-10,-17
1533864492154135,-2,0,-4,-4,-3,-1,0,9
1533864492154135,1,-4,-2,-10,-3,-1,3,6
1533864492169260,-3,3,0,3,1,-1,-6,-16
1533864492169260,4,-3,0,-6,0,-1,-2,2
1533864492171088,-3,7,2,-1,-1,-1,-2,2
1533864492171088,-20,-15,-6,-2,-4,-3,0,-6
1533864492192034,-2,-9,3,6,0,2,0,1
1533864492192034,-4,0,-3,-3,1,0,2,6
1533864492193028,3,-4,3,6,-1,1,-3,-9
1533864492193028,-5,3,1,7,3,1,0,3
1533864492205003,-1,1,-11,-8,-2,-1,7,8
1533864492205003,-6,-1,-1,-3,-1,-2,-11,-21
1533864492213990,-7,1,-1,4,2,-2,4,6
1533864492213990,1,1,2,5,2,-2,-2,-3
1533864492228933,4,2,2,2,-1,0,8,32
1533864492228933,-7,4,-2,-13,-8,-2,-13,-37
1533864492230941,1,-6,-6,-4,-3,-4,-2,-3
1533864492230941,4,3,1,-7,-1,-1,-4,-2
1533864492250873,1,0,-3,9,1,0,-1,-5
1533864492250873,3,-2,-2,6,-5,-1,8,23
1533864492259850,-1,-1,5,9,4,1,2,-9
1533864492259850,13,6,-7,-14,-6,-2,-3,7
1533864492265836,-15,2,-1,-4,-2,-1,-6,-13
1533864492265836,-9,-42,-7,-1,-2,1,2,4
1533864492274826,-3,-6,-2,3,1,-1,-2,-8
1533864492274826,6,1,3,1,-2,-1,2,8
1533864492288776,1,-2,-4,-13,-2,-2,0,1
1533864492288776,6,15,-4,-1,-1,0,4,5
1533864492290768,-1,-3,-1,-1,-1,-1,1,1
1533864492290768,-2,-6,-1,2,-2,-1,-2,-6
1533864492311748,-4,4,-5,2,-3,-4,-13,-8
1533864492311748,-4,-11,2,-1,2,0,6,8
1533864492313738,-1,3,-3,5,-3,-3,-3,-4
1533864492313738,0,2,-1,-15,-2,-1,-2,-4
1533864492325717,2,-3,-2,-4,-1,0,0,7
1533864492325717,0,8,3,-1,1,-2,2,-1
1533864492334679,-1,1,-2,0,0,-1,-4,2
1533864492334679,-4,-5,0,8,-2,-2,-2,-5
1533864492349642,11,1,-1,-4,-2,1,2,5
1533864492349642,-9,5,0,0,0,0,3,5
1533864492350635,-2,-4,-7,-5,-6,-2,-6,13
1533864492350635,4,-6,-4,-1,-2,0,-4,-8
1533864492371581,-16,-1,-8,-2,-4,-2,-2,-16
1533864492371581,26,11,1,-2,2,-1,1,7
1533864492373574,-7,7,6,9,4,1,2,-7
1533864492373574,2,-17,0,-4,1,-1,2,0
1533864492385545,0,-2,-5,10,-4,-5,-6,-5
1533864492385545,-5,-3,-5,-26,-6,0,2,5
1533864492394526,6,4,4,-2,2,1,5,7
1533864492394526,-2,7,3,8,4,2,3,3
1533864492409481,-4,2,0,-2,2,-1,-1,-14
1533864492409481,3,15,9,9,4,2,0,12
1533864492410476,-9,-15,-9,-6,-4,-2,-5,-12
1533864492410476,-3,3,2,-2,0,-2,-2,-2
1533864492431420,0,-8,-3,-3,-3,-3,0,1
1533864492431420,2,-7,-2,6,-2,-2,2,5
1533864492433425,3,4,1,-8,-2,3,1,-1
1533864492433425,0,3,0,0,-2,-3,1,8
1533864492446387,-5,-17,-1,-5,-1,-2,-2,-9
1533864492446387,1,7,2,1,-1,-5,-4,-8
1533864492454359,0,2,-3,0,-2,-4,-3,-5
1533864492454359,2,5,-1,1,-3,-3,0,0
1533864492469319,-3,1,0,6,3,1,-1,1
1533864492469319,-9,-6,-12,-7,-7,-4,-5,-7
1533864492471418,-3,-7,-2,-1,-2,-2,1,-1
1533864492471418,-1,-3,-2,-1,-1,-1,-1,-1
1533864492492272,2,3,2,-3,-2,-1,0,0
1533864492492272,-3,-5,2,7,1,0,0,-4
1533864492493255,-7,-4,-1,-3,1,1,0,2
1533864492493255,13,7,-5,-17,-5,0,-3,-6
1533864492505225,2,7,8,9,2,3,-3,0
1533864492505225,4,-13,2,-4,1,-1,0,4
1533864492514209,2,-8,-6,-7,-5,-3,-2,-3
1533864492514209,-6,-4,-2,4,0,1,-4,-7
1533864492528363,0,-2,-5,-6,-2,0,1,0
1533864492528363,6,5,1,10,1,-3,-1,2
1533864492537137,-4,1,3,3,2,-1,-2,0
1533864492537137,-6,-2,1,1,-3,-3,-3,-2
1533864492552101,2,-1,-1,0,-1,-2,-2,-1
1533864492552101,-9,2,-1,2,0,1,0,-1
1533864492553094,1,-1,3,-4,-2,-2,0,-1
1533864492553094,-8,-3,-9,-8,-7,-3,-4,-6
1533864492565066,1,-1,-2,1,0,0,1,5
1533864492565066,-4,2,0,-4,1,2,-1,-5
1533864492574042,0,0,-1,-1,1,2,0,-3
1533864492574042,1,-1,-1,2,3,0,-1,1
1533864492588999,-2,-1,3,5,1,-1,0,-1
1533864492588999,-6,-2,-5,-10,-4,-2,-4,-5
1533864492590993,-1,-1,-3,2,-3,-4,-1,-2
1533864492590993,-4,-2,1,0,0,0,0,2
1533864492611940,0,-2,-3,-7,-2,-1,-2,-1
1533864492611940,-1,0,2,4,1,0,-2,-3
1533864492612934,-1,-3,-5,-7,-6,-1,-1,-1
1533864492612934,-3,-2,0,-2,2,-2,1,-1
1533864492625903,-1,-1,3,12,0,-2,-2,-2
1533864492625903,2,1,2,-8,4,-9,-4,-3
1533864492634890,-2,3,-4,-12,8,11,-3,-4
1533864492634890,-3,0,0,8,-8,-3,2,0
1533864492648842,2,3,3,-2,-14,-4,3,0
1533864492648842,-2,0,-1,3,18,6,1,0
1533864492650832,-5,-4,-5,-21,-21,-7,-2,-3
1533864492650832,0,0,-1,-2,-3,-4,-3,-2
1533864492671780,-3,-5,-7,-6,14,2,-4,0
1533864492671780,-3,-2,-1,-1,-11,-5,0,-2
1533864492673776,1,-1,-2,4,3,-5,-5,-2
1533864492673776,-2,-4,-2,-2,-2,1,-1,-2
1533864492685743,-2,-1,-1,-5,-4,0,2,-2
1533864492685743,-1,0,-1,2,2,6,2,-2
1533864492694715,-2,0,-1,8,5,-1,-2,1
1533864492694715,-2,2,0,-3,-3,-5,-1,-1
1533864492708681,-1,-2,0,-3,0,-4,-4,-1
1533864492708681,0,-1,-3,1,-4,0,-2,2
1533864492715663,-2,-5,-7,1,-9,-4,-2,-5
1533864492715663,0,-3,-3,-8,1,2,1,-1
1533864492731620,-1,-2,-3,-12,1,0,1,-2
1533864492731620,-2,-2,0,9,-6,-1,-1,-1
1533864492733612,0,2,4,11,3,-3,-1,-2
1533864492733612,-1,0,1,3,3,3,0,2
1533864492745580,-3,-4,-10,-29,-9,-2,-2,-2
1533864492745580,-1,0,-7,-5,-7,-6,-2,-4
1533864492754570,0,-1,0,-1,3,0,3,1
1533864492754570,-2,-1,2,9,4,2,0,-3
1533864492768781,0,-1,4,16,-2,0,-2,4
1533864492768781,-2,0,0,-8,-2,-4,-1,-3
1533864492775528,1,3,3,4,0,-1,2,1
1533864492775528,-3,-4,-4,-5,0,1,-7,-12
1533864492791485,-1,-2,2,8,2,-1,-3,2
1533864492791485,0,3,-6,-12,-5,-2,5,10
1533864492793452,-4,-5,-2,11,0,-1,-8,-21
1533864492793452,1,2,3,-6,-2,-2,0,1
1533864492814401,0,-3,-4,-2,0,-1,0,-1
1533864492814401,6,7,3,-2,2,1,0,0
1533864492815393,-13,4,9,21,3,1,9,19
1533864492815393,13,4,-8,13,-4,-5,-5,-9
1533864492829355,0,-12,-8,-42,-8,-5,-10,-21
1533864492829355,19,12,5,2,3,3,2,6
1533864492830369,1,-15,-2,-13,0,-2,-1,0
1533864492830369,-7,-6,0,-4,2,3,2,3
1533864492852299,-2,1,0,10,1,0,1,-8
1533864492852299,-5,-5,-1,-4,-2,0,-3,-8
1533864492853307,11,12,3,-11,0,0,-2,7
1533864492853307,-3,-5,-5,-4,0,-1,-2,-2
1533864492874235,-3,-15,0,12,-1,-4,1,5
1533864492874235,-7,-5,-7,-17,-5,-4,-5,-1
1533864492876235,1,1,-2,4,1,-3,-3,-11
1533864492876235,-6,-8,-3,-14,-3,-1,2,8
1533864492888198,0,7,4,-1,0,2,3,5
1533864492888198,-5,-3,1,-6,2,0,-4,-8
1533864492895183,1,-6,-3,-13,-1,0,-1,2
1533864492895183,1,2,2,-8,-2,-3,-2,3
1533864492912134,0,5,-2,11,-3,-3,-2,1
1533864492912134,-5,-11,-2,-4,-3,2,-2,-4
1533864492913133,-3,-5,-8,-10,-6,-3,-2,-6
1533864492913133,4,9,-7,-3,-2,-3,1,2
1533864492934079,-5,-4,0,19,3,0,-2,4
1533864492934079,0,-8,1,11,1,-3,-3,3
1533864492936069,-10,8,-8,-8,-6,-1,0,-4
1533864492936069,5,7,7,19,3,0,2,-3
1533864492949039,-5,-16,-6,8,-3,-5,-2,-1
1533864492949039,-5,-3,-2,20,-1,-2,-1,1
1533864492956017,9,4,4,10,1,1,2,3
1533864492956017,-4,-4,-2,4,1,1,-4,-10
1533864492971977,2,7,-1,-3,0,2,2,-1
1533864492971977,-6,1,0,0,-1,-1,1,-2
1533864492972990,-6,-15,-5,-8,-5,-4,-5,-4
1533864492972990,-3,2,0,-4,0,-1,-2,0
1533864492994048,2,1,1,-4,0,-2,-1,1
1533864492994048,-4,-1,1,4,0,0,-2,-2
1533864492995910,-2,3,-5,-1,-2,0,2,-1
1533864492995910,-4,-8,-3,-2,-2,-2,-5,0
1533864493008875,-1,1,-4,-8,-1,-1,-3,-6
1533864493008875,0,-1,3,9,2,-2,1,4
1533864493014859,4,2,-2,-8,-6,-5,-2,-1
1533864493014859,-6,-1,5,3,0,2,0,1
1533864493031814,0,0,-12,-22,-9,-5,-3,0
1533864493031814,-3,-2,-5,-4,-5,1,-3,-5
1533864493032811,3,-5,3,6,2,-2,-2,2
1533864493032811,-6,3,3,1,0,-1,0,0
1533864493053759,2,8,2,-2,1,1,2,0
1533864493053759,-3,-5,-3,-4,-2,-2,0,-4
1533864493055749,-1,-2,-1,-1,2,1,-1,-1
1533864493055749,1,-5,2,0,1,0,0,2
1533864493068718,-1,-3,-6,-6,-3,-2,0,-1
1533864493068718,-4,-5,-5,-9,-4,-4,-2,-3
1533864493075700,3,3,5,5,4,1,1,3
1533864493075700,-2,-4,-12,-3,-6,-4,3,3
1533864493091657,-5,-5,-3,2,-3,0,-8,-19
1533864493091657,5,4,0,1,-3,-1,-1,-2
1533864493093648,-4,-3,0,-2,2,0,2,4
1533864493093648,-2,-3,-1,-7,-3,-1,-5,-9
1533864493114596,2,2,3,2,2,-1,1,4
1533864493114596,0,9,-2,-4,-1,-1,-1,1
1533864493115589,-5,-6,0,12,3,1,-1,-2
1533864493115589,-1,0,2,5,0,-2,-2,3
1533864493128624,-4,-3,-5,-8,-8,-2,-2,-1
1533864493128624,2,-2,-1,-1,-2,-2,-2,-3
1533864493135609,-3,4,0,-1,0,-1,-3,1
1533864493135609,4,2,7,4,4,1,-1,1
1533864493151567,-1,1,3,3,3,-1,3,1
1533864493151567,-5,2,3,2,2,1,0,-2
1533864493153558,1,-1,-8,2,-3,-3,1,-3
1533864493153558,-3,-2,-1,13,-2,0,0,-3
1533864493174505,0,-2,-4,6,-1,-1,-3,-2
1533864493174505,-4,-6,-4,-9,-5,0,-1,0
1533864493175499,0,-1,3,-7,0,1,0,0
1533864493175499,-1,-5,-3,-15,-2,-3,-4,-5
1533864493188465,-3,-2,5,-1,2,1,-1,5
1533864493188465,3,21,-1,-6,-1,-1,-1,-1
1533864493195445,2,1,-2,-9,-3,-3,-3,1
1533864493195445,-6,-12,-3,-5,-3,0,1,2
1533864493211403,0,-6,0,8,0,-4,-1,-4
1533864493211403,9,-4,-7,-22,-4,-2,-1,2
1533864493213397,-13,-5,-2,-2,-2,-1,-2,-3
1533864493213397,5,6,-2,-6,0,-2,-1,2
1533864493234345,-1,0,0,1,-1,2,-1,-1
1533864493234345,-1,-8,2,4,0,-1,6,10
1533864493235339,-6,0,-6,1,0,-4,-12,-23
1533864493235339,-3,-8,-6,-8,-1,0,-1,1
1533864493248305,-1,-1,-1,-5,-1,1,-1,-2
1533864493248305,-5,-3,1,7,-2,-2,1,2
1533864493255289,12,-3,-1,2,-2,0,6,12
1533864493255289,-2,16,7,5,-1,-1,-4,-3
1533864493272241,-23,-13,-6,-1,-2,-2,0,-2
1533864493272241,9,2,2,20,3,-3,-4,-3
1533864493273238,-7,-7,-3,-7,-2,-1,-1,0
1533864493273238,1,-17,-2,6,-1,0,-2,-5
1533864493294185,14,12,-1,-19,-4,-3,-1,3
1533864493294185,-7,-6,0,-4,1,0,0,-4
1533864493296177,2,-6,-5,-4,-6,-2,-1,1
1533864493296177,12,13,-1,-3,0,-1,0,3
1533864493308361,-18,-3,0,7,-1,-2,-2,-3
1533864493308361,10,-5,-3,1,-1,0,-2,0
1533864493317133,2,11,3,2,-1,-1,-3,-4
1533864493317133,-3,-17,-7,-10,-3,-2,-1,-3
1533864493332084,1,0,0,4,0,-3,3,6
1533864493332084,-7,-4,-4,-3,-2,-4,-3,-6
1533864493333077,2,-4,-6,-3,-3,-1,0,0
1533864493333077,-8,-3,-2,1,-1,-2,-1,-1
1533864493354025,13,-1,3,0,0,0,-1,0
1533864493354025,-19,14,-5,-1,-2,-1,-3,-3
1533864493356017,-1,-20,2,-1,3,1,2,0
1533864493356017,-2,1,-1,2,-1,-1,-5,-5
1533864493367988,10,0,-2,-6,0,0,4,7
1533864493367988,6,6,3,5,-1,0,-7,-13
1533864493376960,-15,3,3,1,2,0,1,-2
1533864493376960,3,-6,-2,4,-1,-2,-1,1
1533864493391924,4,8,6,0,-1,1,1,-4
1533864493391924,-11,-14,-7,-2,-4,-3,-1,0
1533864493392922,3,5,3,-1,-1,0,-1,-1
1533864493392922,-2,2,1,-3,0,-3,-2,-3
1533864493413875,-1,1,-7,4,1,-2,-3,-1
1533864493413875,4,-5,-1,-2,-3,0,2,6
1533864493415865,-9,-5,-4,-2,-3,-2,-4,-10
1533864493415865,1,7,-2,2,-1,-1,1,3
1533864493427828,1,6,1,-3,0,-1,-3,-2
1533864493427828,-6,-13,-5,-8,-4,1,-1,-1
1533864493436820,2,2,1,-1,-1,1,1,3
1533864493436820,-9,-6,-4,-2,-3,-1,0,-4
1533864493451764,-2,-1,-1,2,-1,-1,-1,-1
1533864493451764,-2,-2,-2,-3,-1,-4,-2,-1
1533864493453755,5,4,3,-8,0,-2,-2,3
1533864493453755,1,5,-3,-9,-2,-2,1,-2
1533864493474699,-1,-3,3,0,0,1,0,1
1533864493474699,1,-1,1,1,1,0,0,-1
1533864493475700,1,-3,-4,4,-2,-1,-2,-1
1533864493475700,2,-2,6,-1,-1,2,0,3
1533864493487699,-7,5,-5,0,-1,-3,-5,-5
1533864493487699,-2,-2,-2,-7,-1,-1,0,0
1533864493496648,1,0,-6,0,-5,-7,-6,0
1533864493496648,-1,-2,-1,4,3,1,5,-1
1533864493511678,2,1,6,3,1,5,2,1
1533864493511678,-2,0,-3,-1,2,0,-3,-4
1533864493513596,-2,0,0,0,-4,-1,2,-3
1533864493513596,-2,2,-1,0,-3,-5,-3,-1
1533864493534542,-2,-5,0,-6,-2,-6,-1,-3
1533864493534542,-3,-2,-5,-2,-4,-4,-11,-3
1533864493535536,2,1,-3,-1,-5,-3,1,-2
1533864493535536,-2,-2,-2,-4,-1,-1,1,-1
1533864493547508,4,-1,0,0,25,0,5,6
1533864493547508,-5,-1,-2,-7,-25,8,8,-1
1533864493556484,1,1,0,2,6,-5,-5,2
1533864493556484,-3,-1,-5,-3,-6,-2,-4,-6
1533864493571440,0,-2,2,5,5,9,1,0
1533864493571440,0,0,2,2,1,4,5,2
1533864493578422,-2,-2,-2,0,-7,-3,0,-1
1533864493578422,-2,-4,-2,-3,-6,-8,-8,-6
1533864493594379,-2,-5,-6,-6,7,-8,-13,-4
1533864493594379,0,0,2,3,-2,-1,0,0
1533864493596373,-3,-1,-2,-8,-2,3,5,1
1533864493596373,-2,-1,-1,4,14,0,0,4
1533864493616324,-3,-2,-4,-4,-26,-13,-17,-6
1533864493616324,-4,-4,-5,-6,-2,-16,-5,-6
1533864493617318,1,0,-3,-1,6,19,12,3
